frequency,raw
20,-12.92
21,-12.30
22,-11.69
23,-11.10
24,-10.53
25,-9.98
26,-9.45
27,-8.93
28,-8.44
29,-7.96
30,-7.50
31,-7.07
32,-6.65
33,-6.24
34,-5.86
35,-5.49
36,-5.15
37,-4.82
38,-4.49
39,-4.17
40,-3.86
41,-3.57
42,-3.28
43,-3.01
44,-2.76
45,-2.52
46,-2.29
47,-2.10
48,-1.88
49,-1.68
50,-1.50
51,-1.33
52,-1.17
53,-1.03
54,-0.90
55,-0.76
56,-0.63
57,-0.52
58,-0.41
59,-0.30
60,-0.20
61,-0.09
62,-0.01
63,0.08
64,0.17
65,0.26
66,0.35
67,0.42
68,0.50
69,0.57
70,0.63
71,0.71
72,0.78
73,0.84
74,0.89
75,0.95
76,0.99
77,1.04
78,1.09
79,1.15
80,1.21
81,1.25
82,1.29
83,1.35
84,1.39
85,1.42
86,1.44
87,1.47
88,1.49
89,1.53
90,1.57
91,1.61
92,1.65
93,1.68
94,1.70
95,1.73
96,1.76
97,1.80
98,1.83
99,1.87
100,1.89
101,1.90
102,1.89
104,1.88
105,1.84
106,1.80
107,1.77
108,1.74
109,1.70
110,1.67
111,1.64
112,1.61
113,1.59
114,1.57
115,1.55
117,1.53
118,1.51
119,1.49
120,1.47
121,1.44
123,1.41
124,1.38
125,1.34
126,1.31
128,1.28
129,1.26
130,1.24
131,1.23
133,1.22
134,1.21
135,1.20
137,1.19
138,1.17
140,1.14
141,1.11
142,1.08
144,1.04
145,1.02
147,0.99
148,0.97
150,0.94
151,0.90
153,0.87
154,0.84
156,0.81
157,0.79
159,0.78
160,0.75
162,0.72
164,0.68
165,0.64
167,0.59
169,0.54
170,0.49
172,0.45
174,0.41
175,0.39
177,0.37
179,0.35
181,0.32
183,0.28
184,0.23
186,0.19
188,0.15
190,0.12
192,0.09
194,0.06
196,0.04
198,0.01
200,-0.03
202,-0.05
204,-0.07
206,-0.09
208,-0.10
210,-0.10
212,-0.09
214,-0.08
216,-0.06
218,-0.06
221,-0.06
223,-0.07
225,-0.09
227,-0.11
229,-0.14
232,-0.17
234,-0.20
236,-0.24
239,-0.27
241,-0.31
244,-0.34
246,-0.37
248,-0.39
251,-0.41
253,-0.42
256,-0.43
259,-0.42
261,-0.41
264,-0.41
266,-0.40
269,-0.40
272,-0.40
274,-0.40
277,-0.40
280,-0.40
283,-0.39
286,-0.38
288,-0.38
291,-0.39
294,-0.40
297,-0.43
300,-0.45
303,-0.47
306,-0.49
309,-0.52
312,-0.57
316,-0.62
319,-0.67
322,-0.71
325,-0.76
328,-0.81
332,-0.86
335,-0.92
338,-0.96
342,-1.00
345,-1.05
349,-1.10
352,-1.17
356,-1.23
359,-1.30
363,-1.36
366,-1.41
370,-1.45
374,-1.50
377,-1.55
381,-1.61
385,-1.66
389,-1.70
393,-1.73
397,-1.78
401,-1.83
405,-1.89
409,-1.93
413,-1.97
417,-2.03
421,-2.08
425,-2.15
430,-2.22
434,-2.29
438,-2.37
443,-2.45
447,-2.52
451,-2.61
456,-2.72
460,-2.82
465,-2.93
470,-3.03
474,-3.15
479,-3.26
484,-3.37
489,-3.48
494,-3.58
499,-3.68
504,-3.78
509,-3.87
514,-3.97
519,-4.05
524,-4.11
529,-4.16
535,-4.20
540,-4.22
545,-4.23
551,-4.23
556,-4.22
562,-4.19
568,-4.13
573,-4.06
579,-3.97
585,-3.85
591,-3.74
596,-3.62
602,-3.49
608,-3.35
615,-3.23
621,-3.11
627,-2.99
633,-2.86
639,-2.73
646,-2.62
652,-2.52
659,-2.41
665,-2.31
672,-2.23
679,-2.15
686,-2.07
692,-1.99
699,-1.92
706,-1.86
713,-1.81
721,-1.78
728,-1.75
735,-1.73
742,-1.71
750,-1.70
757,-1.68
765,-1.66
773,-1.65
780,-1.64
788,-1.62
796,-1.58
804,-1.54
812,-1.50
820,-1.45
828,-1.40
837,-1.34
845,-1.28
853,-1.22
862,-1.16
871,-1.10
879,-1.04
888,-0.98
897,-0.92
906,-0.84
915,-0.76
924,-0.68
933,-0.60
943,-0.52
952,-0.45
962,-0.35
971,-0.26
981,-0.18
991,-0.09
1001,0.01
1011,0.11
1021,0.21
1031,0.30
1041,0.40
1052,0.50
1062,0.59
1073,0.67
1084,0.75
1094,0.85
1105,0.94
1116,1.03
1128,1.11
1139,1.18
1150,1.24
1162,1.30
1173,1.37
1185,1.43
1197,1.49
1209,1.55
1221,1.61
1233,1.66
1246,1.70
1258,1.74
1271,1.78
1283,1.81
1296,1.83
1309,1.85
1322,1.87
1335,1.88
1349,1.89
1362,1.89
1376,1.88
1390,1.87
1404,1.87
1418,1.88
1432,1.89
1446,1.89
1461,1.89
1475,1.88
1490,1.88
1505,1.86
1520,1.84
1535,1.81
1550,1.77
1566,1.72
1582,1.65
1597,1.56
1613,1.46
1629,1.35
1646,1.23
1662,1.10
1679,0.95
1696,0.79
1713,0.62
1730,0.46
1747,0.27
1764,0.08
1782,-0.12
1800,-0.31
1818,-0.51
1836,-0.72
1854,-0.94
1873,-1.15
1892,-1.37
1911,-1.58
1930,-1.80
1949,-2.01
1969,-2.21
1988,-2.37
2008,-2.52
2028,-2.66
2048,-2.78
2069,-2.89
2090,-2.97
2111,-3.02
2132,-3.05
2153,-3.05
2175,-3.04
2196,-3.01
2218,-2.96
2240,-2.90
2263,-2.83
2285,-2.74
2308,-2.65
2331,-2.56
2355,-2.45
2378,-2.33
2402,-2.20
2426,-2.08
2450,-1.97
2475,-1.86
2500,-1.75
2525,-1.64
2550,-1.53
2575,-1.44
2601,-1.35
2627,-1.27
2653,-1.22
2680,-1.18
2707,-1.17
2734,-1.19
2761,-1.23
2789,-1.30
2817,-1.40
2845,-1.53
2873,-1.68
2902,-1.86
2931,-2.07
2960,-2.30
2990,-2.54
3020,-2.80
3050,-3.06
3080,-3.33
3111,-3.63
3142,-3.93
3174,-4.24
3206,-4.54
3238,-4.83
3270,-5.13
3303,-5.41
3336,-5.66
3369,-5.87
3403,-6.03
3437,-6.13
3471,-6.18
3506,-6.16
3541,-6.09
3576,-5.95
3612,-5.76
3648,-5.51
3685,-5.22
3721,-4.90
3759,-4.56
3796,-4.21
3834,-3.86
3873,-3.50
3911,-3.15
3950,-2.83
3990,-2.53
4030,-2.24
4070,-1.98
4111,-1.74
4152,-1.52
4193,-1.33
4235,-1.17
4278,-1.04
4321,-0.93
4364,-0.85
4407,-0.77
4451,-0.71
4496,-0.67
4541,-0.65
4586,-0.66
4632,-0.69
4679,-0.72
4725,-0.76
4773,-0.82
4820,-0.90
4868,-0.97
4917,-1.05
4966,-1.15
5016,-1.25
5066,-1.36
5117,-1.47
5168,-1.58
5220,-1.68
5272,-1.77
5325,-1.84
5378,-1.90
5432,-1.96
5486,-2.00
5541,-2.03
5596,-2.04
5652,-2.04
5709,-2.00
5766,-1.96
5823,-1.93
5882,-1.88
5940,-1.83
6000,-1.79
6060,-1.77
6120,-1.78
6182,-1.80
6244,-1.85
6306,-1.91
6369,-2.00
6433,-2.10
6497,-2.22
6562,-2.37
6628,-2.56
6694,-2.75
6761,-2.97
6828,-3.24
6897,-3.53
6966,-3.86
7035,-4.25
7106,-4.69
7177,-5.18
7249,-5.72
7321,-6.32
7394,-6.95
7468,-7.60
7543,-8.25
7618,-8.87
7694,-9.46
7771,-9.98
7849,-10.41
7928,-10.77
8007,-11.05
8087,-11.24
8168,-11.34
8250,-11.39
8332,-11.37
8415,-11.29
8499,-11.18
8584,-11.04
8670,-10.88
8757,-10.70
8845,-10.51
8933,-10.33
9022,-10.14
9113,-9.95
9204,-9.76
9296,-9.58
9389,-9.40
9483,-9.22
9577,-9.05
9673,-8.90
9770,-8.76
9868,-8.63
9966,-8.54
10066,-8.48
10167,-8.45
10268,-8.46
10371,-8.52
10475,-8.62
10579,-8.74
10685,-8.88
10792,-9.03
10900,-9.18
11009,-9.30
11119,-9.39
11230,-9.44
11343,-9.45
11456,-9.41
11571,-9.32
11686,-9.17
11803,-8.98
11921,-8.75
12040,-8.50
12161,-8.24
12282,-7.99
12405,-7.77
12529,-7.58
12655,-7.43
12781,-7.33
12909,-7.25
13038,-7.20
13168,-7.16
13300,-7.13
13433,-7.10
13567,-7.09
13703,-7.10
13840,-7.12
13978,-7.17
14118,-7.24
14259,-7.36
14402,-7.52
14546,-7.72
14692,-7.97
14838,-8.26
14987,-8.58
15137,-8.93
15288,-9.28
15441,-9.61
15595,-9.91
15751,-10.16
15909,-10.35
16068,-10.46
16229,-10.50
16391,-10.48
16555,-10.41
16720,-10.29
16888,-10.13
17056,-9.96
17227,-9.79
17399,-9.62
17573,-9.47
17749,-9.34
17926,-9.24
18106,-9.17
18287,-9.11
18470,-9.07
18654,-9.05
18841,-9.04
19029,-9.04
19220,-9.07
19412,-9.11
19606,-9.16
19802,-9.24
20000,-9.33
