frequency,raw,smoothed,error,error_smoothed,equalization,parametric_eq,fixed_band_eq,equalized_raw,equalized_smoothed,target
20.00,8.64,8.64,1.18,1.19,-1.20,-0.53,-0.30,7.44,7.44,7.46
20.20,8.61,8.61,1.15,1.15,-1.15,-0.54,-0.31,7.46,7.45,7.46
20.40,8.57,8.57,1.11,1.11,-1.11,-0.54,-0.32,7.46,7.46,7.46
20.61,8.53,8.53,1.08,1.08,-1.07,-0.55,-0.32,7.46,7.46,7.45
20.81,8.49,8.49,1.04,1.04,-1.03,-0.55,-0.33,7.46,7.46,7.45
21.02,8.45,8.45,1.00,1.00,-0.99,-0.56,-0.34,7.46,7.46,7.45
21.23,8.41,8.41,0.96,0.96,-0.95,-0.56,-0.35,7.46,7.45,7.45
21.44,8.37,8.37,0.92,0.92,-0.92,-0.57,-0.36,7.45,7.45,7.45
21.66,8.33,8.33,0.88,0.88,-0.89,-0.57,-0.37,7.44,7.45,7.45
21.87,8.30,8.30,0.85,0.85,-0.86,-0.58,-0.38,7.44,7.44,7.45
22.09,8.27,8.27,0.82,0.82,-0.83,-0.58,-0.39,7.44,7.45,7.45
22.31,8.25,8.25,0.80,0.80,-0.80,-0.59,-0.40,7.45,7.45,7.45
22.54,8.23,8.23,0.78,0.78,-0.78,-0.60,-0.41,7.45,7.45,7.45
22.76,8.21,8.21,0.76,0.76,-0.75,-0.60,-0.42,7.46,7.45,7.45
22.99,8.18,8.18,0.73,0.74,-0.73,-0.61,-0.43,7.45,7.45,7.45
23.22,8.16,8.16,0.72,0.72,-0.72,-0.61,-0.44,7.44,7.44,7.44
23.45,8.14,8.14,0.70,0.70,-0.70,-0.62,-0.46,7.44,7.44,7.44
23.69,8.13,8.13,0.69,0.68,-0.69,-0.63,-0.47,7.44,7.44,7.44
23.92,8.11,8.11,0.67,0.67,-0.68,-0.63,-0.48,7.43,7.44,7.44
24.16,8.10,8.10,0.66,0.66,-0.66,-0.64,-0.49,7.44,7.44,7.44
24.40,8.10,8.10,0.66,0.66,-0.66,-0.65,-0.51,7.44,7.44,7.44
24.65,8.09,8.09,0.65,0.65,-0.65,-0.65,-0.52,7.44,7.44,7.44
24.89,8.08,8.08,0.64,0.64,-0.64,-0.66,-0.53,7.44,7.44,7.44
25.14,8.07,8.07,0.63,0.63,-0.63,-0.67,-0.54,7.44,7.44,7.43
25.39,8.06,8.06,0.63,0.63,-0.63,-0.67,-0.56,7.43,7.43,7.43
25.65,8.05,8.05,0.62,0.62,-0.62,-0.68,-0.57,7.43,7.43,7.43
25.91,8.04,8.04,0.61,0.61,-0.61,-0.69,-0.59,7.43,7.43,7.43
26.16,8.03,8.03,0.60,0.60,-0.60,-0.70,-0.60,7.43,7.43,7.43
26.43,8.02,8.02,0.59,0.59,-0.59,-0.70,-0.61,7.43,7.42,7.43
26.69,8.01,8.01,0.58,0.58,-0.59,-0.71,-0.63,7.42,7.42,7.43
26.96,8.00,8.00,0.58,0.58,-0.58,-0.72,-0.64,7.42,7.42,7.42
27.23,8.00,8.00,0.58,0.57,-0.57,-0.73,-0.66,7.43,7.42,7.42
27.50,7.99,7.99,0.57,0.57,-0.57,-0.74,-0.67,7.42,7.42,7.42
27.77,7.98,7.98,0.56,0.56,-0.56,-0.75,-0.68,7.42,7.42,7.42
28.05,7.97,7.97,0.55,0.55,-0.55,-0.75,-0.70,7.42,7.42,7.42
28.33,7.96,7.96,0.55,0.55,-0.55,-0.76,-0.71,7.41,7.41,7.41
28.62,7.95,7.95,0.54,0.54,-0.54,-0.77,-0.72,7.41,7.41,7.41
28.90,7.95,7.95,0.54,0.54,-0.54,-0.78,-0.74,7.41,7.41,7.41
29.19,7.95,7.95,0.54,0.54,-0.54,-0.79,-0.75,7.41,7.41,7.41
29.48,7.95,7.95,0.54,0.54,-0.54,-0.80,-0.76,7.41,7.41,7.41
29.78,7.95,7.95,0.55,0.55,-0.55,-0.81,-0.78,7.40,7.41,7.40
30.08,7.95,7.95,0.55,0.55,-0.55,-0.82,-0.79,7.40,7.40,7.40
30.38,7.96,7.96,0.56,0.56,-0.56,-0.83,-0.80,7.40,7.39,7.40
30.68,7.96,7.97,0.57,0.57,-0.58,-0.84,-0.81,7.38,7.39,7.39
30.99,7.98,7.98,0.59,0.59,-0.59,-0.85,-0.82,7.39,7.39,7.39
31.30,8.00,8.00,0.61,0.61,-0.61,-0.86,-0.83,7.39,7.39,7.39
31.61,8.02,8.02,0.63,0.63,-0.63,-0.87,-0.84,7.39,7.39,7.39
31.93,8.04,8.04,0.66,0.66,-0.65,-0.88,-0.85,7.39,7.39,7.38
32.24,8.05,8.05,0.67,0.67,-0.67,-0.90,-0.86,7.38,7.39,7.38
32.57,8.07,8.06,0.69,0.69,-0.68,-0.91,-0.87,7.39,7.38,7.38
32.89,8.07,8.07,0.70,0.70,-0.70,-0.92,-0.88,7.37,7.37,7.37
33.22,8.08,8.08,0.71,0.71,-0.72,-0.93,-0.89,7.36,7.36,7.37
33.55,8.09,8.09,0.73,0.73,-0.73,-0.94,-0.90,7.36,7.36,7.36
33.89,8.11,8.11,0.75,0.75,-0.75,-0.96,-0.91,7.36,7.36,7.36
34.23,8.12,8.12,0.76,0.77,-0.77,-0.97,-0.92,7.35,7.36,7.36
34.57,8.14,8.14,0.79,0.79,-0.79,-0.98,-0.93,7.35,7.35,7.35
34.92,8.16,8.16,0.81,0.81,-0.81,-0.99,-0.94,7.35,7.35,7.35
35.27,8.17,8.17,0.83,0.83,-0.83,-1.01,-0.95,7.34,7.34,7.34
35.62,8.19,8.19,0.85,0.85,-0.86,-1.02,-0.96,7.33,7.33,7.34
35.97,8.21,8.21,0.88,0.88,-0.89,-1.03,-0.97,7.32,7.33,7.33
36.33,8.24,8.24,0.91,0.91,-0.91,-1.05,-0.98,7.33,7.32,7.33
36.70,8.26,8.26,0.94,0.94,-0.94,-1.06,-0.99,7.32,7.32,7.32
37.06,8.29,8.29,0.97,0.97,-0.97,-1.08,-1.00,7.32,7.32,7.32
37.43,8.31,8.31,1.00,1.00,-1.00,-1.09,-1.01,7.31,7.31,7.31
37.81,8.33,8.33,1.03,1.03,-1.02,-1.11,-1.02,7.31,7.31,7.30
38.19,8.35,8.35,1.05,1.05,-1.04,-1.12,-1.03,7.31,7.31,7.30
38.57,8.36,8.36,1.07,1.07,-1.06,-1.14,-1.05,7.30,7.30,7.29
38.95,8.36,8.36,1.08,1.08,-1.07,-1.15,-1.06,7.29,7.29,7.28
39.34,8.36,8.36,1.08,1.08,-1.08,-1.17,-1.07,7.28,7.27,7.28
39.74,8.36,8.36,1.09,1.09,-1.10,-1.19,-1.09,7.26,7.26,7.27
40.14,8.36,8.37,1.10,1.10,-1.11,-1.20,-1.10,7.25,7.25,7.26
40.54,8.38,8.38,1.13,1.13,-1.13,-1.22,-1.12,7.25,7.25,7.25
40.94,8.40,8.40,1.15,1.15,-1.16,-1.24,-1.14,7.24,7.24,7.25
41.35,8.42,8.42,1.18,1.18,-1.18,-1.25,-1.15,7.24,7.24,7.24
41.76,8.44,8.44,1.21,1.21,-1.21,-1.27,-1.17,7.23,7.23,7.23
42.18,8.46,8.46,1.24,1.24,-1.24,-1.29,-1.19,7.22,7.22,7.22
42.60,8.49,8.49,1.28,1.28,-1.27,-1.31,-1.21,7.22,7.21,7.21
43.03,8.51,8.51,1.31,1.31,-1.30,-1.33,-1.23,7.21,7.21,7.20
43.46,8.53,8.53,1.34,1.34,-1.33,-1.34,-1.25,7.20,7.20,7.19
43.90,8.55,8.55,1.37,1.37,-1.36,-1.36,-1.28,7.19,7.18,7.18
44.33,8.56,8.56,1.39,1.39,-1.39,-1.38,-1.30,7.17,7.17,7.17
44.78,8.57,8.57,1.41,1.42,-1.42,-1.40,-1.33,7.15,7.15,7.16
45.23,8.59,8.59,1.44,1.44,-1.45,-1.42,-1.35,7.14,7.14,7.15
45.68,8.61,8.61,1.48,1.47,-1.48,-1.44,-1.38,7.13,7.13,7.13
46.13,8.63,8.63,1.51,1.51,-1.51,-1.46,-1.41,7.12,7.12,7.12
46.60,8.65,8.65,1.54,1.54,-1.54,-1.49,-1.44,7.11,7.11,7.11
47.06,8.67,8.67,1.57,1.57,-1.56,-1.51,-1.47,7.11,7.11,7.10
47.53,8.68,8.68,1.60,1.60,-1.58,-1.53,-1.50,7.10,7.09,7.08
48.01,8.68,8.68,1.61,1.61,-1.60,-1.55,-1.53,7.08,7.08,7.07
48.49,8.68,8.68,1.63,1.63,-1.62,-1.57,-1.56,7.06,7.06,7.05
48.97,8.68,8.67,1.64,1.64,-1.64,-1.60,-1.59,7.04,7.03,7.04
49.46,8.67,8.67,1.65,1.65,-1.66,-1.62,-1.63,7.01,7.01,7.02
49.96,8.67,8.68,1.66,1.67,-1.69,-1.64,-1.66,6.98,6.99,7.01
50.46,8.69,8.69,1.70,1.70,-1.72,-1.67,-1.70,6.97,6.97,6.99
50.96,8.71,8.71,1.74,1.74,-1.75,-1.69,-1.73,6.96,6.97,6.97
51.47,8.74,8.74,1.79,1.78,-1.78,-1.72,-1.77,6.96,6.96,6.95
51.99,8.76,8.76,1.83,1.82,-1.81,-1.74,-1.81,6.95,6.94,6.93
52.51,8.77,8.77,1.86,1.86,-1.84,-1.77,-1.84,6.93,6.93,6.91
53.03,8.78,8.78,1.89,1.88,-1.87,-1.79,-1.88,6.91,6.91,6.89
53.56,8.78,8.78,1.91,1.90,-1.90,-1.82,-1.92,6.88,6.88,6.87
54.10,8.77,8.77,1.92,1.92,-1.92,-1.84,-1.95,6.85,6.85,6.85
54.64,8.76,8.76,1.93,1.93,-1.93,-1.87,-1.99,6.83,6.83,6.83
55.18,8.75,8.75,1.94,1.94,-1.95,-1.90,-2.02,6.80,6.80,6.81
55.74,8.75,8.75,1.97,1.96,-1.97,-1.92,-2.06,6.78,6.78,6.78
56.29,8.75,8.75,1.99,1.99,-2.00,-1.95,-2.10,6.75,6.75,6.76
56.86,8.75,8.75,2.01,2.02,-2.02,-1.98,-2.13,6.73,6.73,6.74
57.42,8.76,8.76,2.05,2.05,-2.05,-2.01,-2.16,6.71,6.71,6.71
58.00,8.77,8.77,2.09,2.08,-2.08,-2.04,-2.19,6.69,6.69,6.68
58.58,8.77,8.77,2.11,2.11,-2.11,-2.07,-2.23,6.66,6.66,6.66
59.16,8.77,8.77,2.14,2.14,-2.14,-2.10,-2.26,6.63,6.63,6.63
59.76,8.77,8.77,2.17,2.17,-2.16,-2.13,-2.28,6.61,6.60,6.60
60.35,8.76,8.76,2.19,2.19,-2.19,-2.16,-2.31,6.57,6.57,6.57
60.96,8.76,8.76,2.22,2.22,-2.22,-2.19,-2.34,6.54,6.54,6.54
61.57,8.75,8.75,2.24,2.24,-2.25,-2.22,-2.36,6.50,6.50,6.51
62.18,8.75,8.75,2.27,2.27,-2.28,-2.25,-2.38,6.47,6.47,6.48
62.80,8.75,8.75,2.31,2.31,-2.31,-2.28,-2.40,6.44,6.44,6.44
63.43,8.75,8.75,2.34,2.34,-2.35,-2.31,-2.42,6.40,6.40,6.41
64.07,8.75,8.75,2.38,2.38,-2.38,-2.34,-2.44,6.37,6.37,6.37
64.71,8.76,8.76,2.42,2.42,-2.42,-2.38,-2.46,6.34,6.34,6.34
65.35,8.76,8.76,2.46,2.46,-2.45,-2.41,-2.47,6.31,6.31,6.30
66.01,8.75,8.75,2.49,2.49,-2.48,-2.44,-2.49,6.27,6.27,6.26
66.67,8.74,8.74,2.52,2.52,-2.52,-2.48,-2.50,6.22,6.22,6.22
67.33,8.73,8.73,2.55,2.55,-2.55,-2.51,-2.51,6.18,6.18,6.18
68.01,8.72,8.72,2.58,2.58,-2.58,-2.54,-2.52,6.14,6.13,6.14
68.69,8.71,8.71,2.61,2.61,-2.62,-2.58,-2.53,6.09,6.09,6.10
69.37,8.70,8.70,2.64,2.65,-2.65,-2.61,-2.54,6.05,6.05,6.06
70.07,8.70,8.70,2.69,2.69,-2.68,-2.65,-2.55,6.02,6.02,6.01
70.77,8.69,8.69,2.72,2.72,-2.71,-2.68,-2.56,5.98,5.98,5.97
71.48,8.68,8.67,2.76,2.75,-2.75,-2.72,-2.57,5.93,5.93,5.92
72.19,8.65,8.65,2.78,2.78,-2.78,-2.75,-2.58,5.87,5.87,5.87
72.91,8.63,8.63,2.80,2.81,-2.82,-2.79,-2.59,5.81,5.82,5.83
73.64,8.62,8.62,2.84,2.84,-2.85,-2.83,-2.60,5.77,5.77,5.78
74.38,8.61,8.61,2.88,2.89,-2.89,-2.86,-2.61,5.72,5.72,5.73
75.12,8.61,8.60,2.94,2.93,-2.93,-2.90,-2.62,5.68,5.68,5.67
75.87,8.59,8.59,2.97,2.97,-2.97,-2.94,-2.64,5.62,5.63,5.62
76.63,8.58,8.58,3.01,3.01,-3.00,-2.97,-2.65,5.57,5.57,5.57
77.40,8.56,8.56,3.05,3.05,-3.04,-3.01,-2.67,5.52,5.52,5.51
78.17,8.54,8.54,3.08,3.08,-3.08,-3.05,-2.68,5.46,5.46,5.46
78.95,8.52,8.52,3.12,3.11,-3.11,-3.08,-2.70,5.41,5.41,5.40
79.74,8.49,8.49,3.14,3.14,-3.14,-3.12,-2.72,5.35,5.35,5.35
80.54,8.46,8.46,3.17,3.17,-3.17,-3.16,-2.75,5.29,5.29,5.29
81.35,8.42,8.43,3.19,3.20,-3.20,-3.20,-2.77,5.22,5.22,5.23
82.16,8.40,8.40,3.23,3.23,-3.23,-3.23,-2.80,5.17,5.16,5.17
82.98,8.37,8.37,3.26,3.26,-3.27,-3.27,-2.83,5.10,5.11,5.11
83.81,8.35,8.35,3.30,3.30,-3.30,-3.31,-2.86,5.05,5.05,5.05
84.65,8.32,8.32,3.34,3.34,-3.34,-3.34,-2.89,4.98,4.98,4.98
85.50,8.29,8.29,3.37,3.37,-3.38,-3.38,-2.92,4.91,4.92,4.92
86.35,8.27,8.27,3.42,3.41,-3.41,-3.42,-2.96,4.86,4.85,4.85
87.22,8.24,8.24,3.45,3.45,-3.45,-3.46,-3.00,4.79,4.79,4.79
88.09,8.22,8.22,3.50,3.49,-3.49,-3.49,-3.04,4.73,4.73,4.72
88.97,8.19,8.19,3.53,3.53,-3.53,-3.53,-3.09,4.66,4.66,4.66
89.86,8.16,8.16,3.57,3.57,-3.57,-3.57,-3.13,4.59,4.59,4.59
90.76,8.13,8.13,3.61,3.60,-3.61,-3.60,-3.18,4.52,4.52,4.52
91.66,8.09,8.09,3.64,3.64,-3.65,-3.64,-3.23,4.44,4.45,4.45
92.58,8.06,8.06,3.68,3.68,-3.68,-3.67,-3.29,4.38,4.38,4.38
93.51,8.04,8.03,3.73,3.72,-3.72,-3.71,-3.34,4.32,4.31,4.31
94.44,8.00,8.00,3.76,3.76,-3.76,-3.74,-3.40,4.24,4.25,4.24
95.39,7.97,7.97,3.80,3.80,-3.79,-3.78,-3.46,4.18,4.18,4.17
96.34,7.93,7.93,3.83,3.83,-3.83,-3.81,-3.52,4.10,4.10,4.10
97.30,7.89,7.89,3.86,3.86,-3.86,-3.84,-3.59,4.03,4.03,4.03
98.28,7.85,7.85,3.89,3.89,-3.89,-3.88,-3.65,3.96,3.96,3.96
99.26,7.81,7.81,3.92,3.92,-3.92,-3.91,-3.72,3.89,3.89,3.89
100.25,7.76,7.76,3.95,3.95,-3.94,-3.94,-3.79,3.82,3.82,3.81
101.25,7.71,7.71,3.97,3.97,-3.97,-3.97,-3.86,3.74,3.74,3.74
102.27,7.66,7.66,3.99,3.99,-4.00,-4.00,-3.93,3.66,3.66,3.67
103.29,7.61,7.61,4.01,4.02,-4.03,-4.03,-4.00,3.58,3.58,3.60
104.32,7.57,7.57,4.05,4.05,-4.06,-4.06,-4.07,3.51,3.52,3.52
105.37,7.54,7.54,4.09,4.09,-4.09,-4.09,-4.14,3.45,3.45,3.45
106.42,7.50,7.50,4.12,4.12,-4.11,-4.12,-4.21,3.39,3.39,3.38
107.48,7.45,7.45,4.15,4.15,-4.14,-4.14,-4.28,3.31,3.31,3.30
108.56,7.40,7.40,4.17,4.17,-4.16,-4.17,-4.35,3.24,3.24,3.23
109.64,7.34,7.34,4.18,4.19,-4.18,-4.19,-4.42,3.16,3.16,3.16
110.74,7.29,7.29,4.21,4.20,-4.20,-4.22,-4.48,3.09,3.08,3.08
111.85,7.23,7.23,4.22,4.22,-4.22,-4.24,-4.54,3.01,3.01,3.01
112.97,7.18,7.18,4.24,4.24,-4.25,-4.26,-4.60,2.94,2.93,2.94
114.10,7.12,7.13,4.25,4.26,-4.27,-4.28,-4.66,2.85,2.86,2.87
115.24,7.08,7.08,4.28,4.28,-4.29,-4.30,-4.71,2.79,2.79,2.80
116.39,7.04,7.04,4.31,4.31,-4.31,-4.32,-4.76,2.73,2.73,2.73
117.55,7.00,7.00,4.34,4.34,-4.33,-4.33,-4.80,2.67,2.66,2.66
118.73,6.95,6.95,4.36,4.36,-4.35,-4.35,-4.84,2.60,2.59,2.59
119.92,6.89,6.89,4.37,4.38,-4.37,-4.36,-4.86,2.52,2.52,2.52
121.12,6.84,6.84,4.39,4.39,-4.39,-4.38,-4.89,2.45,2.45,2.45
122.33,6.78,6.78,4.40,4.40,-4.40,-4.39,-4.91,2.38,2.38,2.38
123.55,6.72,6.72,4.41,4.41,-4.41,-4.40,-4.92,2.31,2.31,2.31
124.79,6.67,6.67,4.42,4.42,-4.42,-4.41,-4.93,2.25,2.24,2.25
126.03,6.61,6.61,4.43,4.43,-4.43,-4.42,-4.93,2.18,2.18,2.18
127.29,6.55,6.55,4.44,4.44,-4.44,-4.42,-4.92,2.11,2.11,2.11
128.57,6.49,6.49,4.44,4.44,-4.44,-4.43,-4.91,2.05,2.05,2.05
129.85,6.43,6.43,4.44,4.45,-4.45,-4.43,-4.89,1.98,1.98,1.99
131.15,6.37,6.37,4.45,4.45,-4.45,-4.43,-4.87,1.92,1.92,1.92
132.46,6.32,6.32,4.46,4.46,-4.45,-4.43,-4.83,1.87,1.86,1.86
133.79,6.26,6.26,4.46,4.46,-4.45,-4.43,-4.80,1.81,1.80,1.80
135.12,6.19,6.19,4.45,4.46,-4.45,-4.43,-4.75,1.74,1.74,1.74
136.48,6.13,6.13,4.45,4.45,-4.45,-4.43,-4.71,1.68,1.68,1.68
137.84,6.06,6.06,4.44,4.44,-4.45,-4.42,-4.66,1.61,1.61,1.62
139.22,6.00,6.00,4.44,4.44,-4.44,-4.41,-4.60,1.56,1.56,1.56
140.61,5.94,5.94,4.43,4.43,-4.44,-4.41,-4.55,1.50,1.50,1.51
142.02,5.88,5.88,4.43,4.43,-4.43,-4.40,-4.49,1.45,1.45,1.45
143.44,5.82,5.82,4.42,4.43,-4.42,-4.39,-4.42,1.40,1.40,1.40
144.87,5.77,5.76,4.43,4.42,-4.41,-4.37,-4.36,1.36,1.35,1.34
146.32,5.69,5.69,4.40,4.40,-4.39,-4.36,-4.29,1.30,1.30,1.29
147.78,5.62,5.62,4.38,4.38,-4.38,-4.35,-4.23,1.24,1.24,1.24
149.26,5.54,5.54,4.35,4.35,-4.36,-4.33,-4.16,1.18,1.18,1.19
150.75,5.47,5.48,4.33,4.34,-4.35,-4.31,-4.09,1.12,1.13,1.14
152.26,5.42,5.42,4.33,4.33,-4.33,-4.29,-4.03,1.09,1.08,1.09
153.78,5.36,5.36,4.32,4.32,-4.32,-4.27,-3.96,1.04,1.04,1.04
155.32,5.31,5.31,4.31,4.31,-4.31,-4.25,-3.90,1.00,0.99,1.00
156.88,5.25,5.25,4.30,4.30,-4.31,-4.23,-3.83,0.94,0.95,0.95
158.44,5.20,5.20,4.29,4.30,-4.30,-4.21,-3.77,0.90,0.90,0.91
160.03,5.15,5.15,4.29,4.29,-4.29,-4.18,-3.71,0.86,0.86,0.86
161.63,5.10,5.10,4.29,4.28,-4.28,-4.16,-3.65,0.82,0.82,0.81
163.24,5.04,5.04,4.27,4.27,-4.26,-4.13,-3.59,0.78,0.78,0.77
164.88,4.97,4.97,4.24,4.24,-4.24,-4.11,-3.54,0.73,0.74,0.73
166.53,4.90,4.90,4.21,4.21,-4.21,-4.08,-3.48,0.69,0.69,0.69
168.19,4.82,4.82,4.17,4.17,-4.18,-4.05,-3.43,0.64,0.64,0.65
169.87,4.75,4.75,4.14,4.14,-4.14,-4.02,-3.38,0.61,0.61,0.61
171.57,4.68,4.68,4.10,4.10,-4.10,-3.99,-3.33,0.58,0.58,0.58
173.29,4.61,4.61,4.07,4.07,-4.06,-3.96,-3.29,0.55,0.55,0.54
175.02,4.53,4.53,4.02,4.02,-4.02,-3.92,-3.25,0.51,0.51,0.51
176.77,4.45,4.45,3.98,3.98,-3.97,-3.89,-3.21,0.48,0.48,0.47
178.54,4.37,4.37,3.93,3.93,-3.93,-3.86,-3.17,0.44,0.44,0.44
180.32,4.29,4.29,3.88,3.88,-3.89,-3.82,-3.14,0.40,0.40,0.41
182.13,4.21,4.21,3.83,3.83,-3.85,-3.79,-3.10,0.36,0.37,0.38
183.95,4.14,4.14,3.79,3.79,-3.81,-3.75,-3.07,0.33,0.34,0.35
185.79,4.08,4.08,3.76,3.76,-3.77,-3.72,-3.05,0.31,0.32,0.32
187.65,4.03,4.03,3.74,3.74,-3.73,-3.68,-3.02,0.30,0.30,0.29
189.52,3.97,3.97,3.71,3.70,-3.69,-3.65,-3.00,0.28,0.27,0.26
191.42,3.90,3.90,3.66,3.66,-3.66,-3.61,-2.98,0.24,0.25,0.24
193.33,3.83,3.83,3.62,3.62,-3.62,-3.57,-2.96,0.21,0.21,0.21
195.27,3.76,3.76,3.57,3.57,-3.58,-3.54,-2.94,0.18,0.18,0.19
197.22,3.69,3.69,3.53,3.53,-3.54,-3.50,-2.93,0.15,0.15,0.16
199.19,3.63,3.63,3.49,3.49,-3.50,-3.46,-2.92,0.13,0.13,0.14
201.18,3.57,3.57,3.46,3.45,-3.45,-3.42,-2.91,0.12,0.12,0.11
203.19,3.51,3.51,3.42,3.42,-3.41,-3.39,-2.90,0.10,0.10,0.09
205.23,3.44,3.44,3.37,3.37,-3.36,-3.35,-2.89,0.08,0.08,0.07
207.28,3.37,3.37,3.32,3.32,-3.31,-3.31,-2.88,0.06,0.05,0.05
209.35,3.29,3.29,3.26,3.26,-3.27,-3.27,-2.88,0.02,0.02,0.03
211.44,3.22,3.22,3.21,3.21,-3.22,-3.23,-2.87,-0.00,0.00,0.01
213.56,3.16,3.16,3.17,3.17,-3.17,-3.19,-2.87,-0.01,-0.01,-0.01
215.69,3.10,3.10,3.13,3.13,-3.13,-3.16,-2.87,-0.03,-0.03,-0.03
217.85,3.04,3.04,3.08,3.08,-3.08,-3.12,-2.87,-0.04,-0.04,-0.04
220.03,2.98,2.98,3.04,3.04,-3.03,-3.08,-2.87,-0.05,-0.06,-0.06
222.23,2.91,2.91,2.99,2.99,-2.99,-3.04,-2.86,-0.08,-0.08,-0.08
224.45,2.85,2.85,2.94,2.95,-2.95,-3.01,-2.86,-0.10,-0.10,-0.09
226.70,2.80,2.80,2.91,2.91,-2.91,-2.97,-2.86,-0.11,-0.11,-0.11
228.96,2.74,2.74,2.86,2.86,-2.87,-2.93,-2.86,-0.13,-0.12,-0.12
231.25,2.69,2.69,2.83,2.83,-2.83,-2.90,-2.86,-0.14,-0.14,-0.14
233.57,2.63,2.63,2.78,2.79,-2.79,-2.86,-2.85,-0.16,-0.16,-0.15
235.90,2.58,2.58,2.76,2.75,-2.75,-2.82,-2.85,-0.17,-0.17,-0.18
238.26,2.53,2.53,2.72,2.72,-2.72,-2.79,-2.84,-0.19,-0.19,-0.19
240.64,2.48,2.48,2.68,2.68,-2.68,-2.75,-2.83,-0.20,-0.20,-0.20
243.05,2.43,2.43,2.64,2.65,-2.65,-2.72,-2.83,-0.22,-0.21,-0.21
245.48,2.39,2.39,2.62,2.61,-2.61,-2.68,-2.81,-0.22,-0.23,-0.23
247.93,2.34,2.34,2.58,2.58,-2.58,-2.65,-2.80,-0.24,-0.24,-0.24
250.41,2.30,2.30,2.55,2.55,-2.54,-2.61,-2.79,-0.24,-0.24,-0.25
252.92,2.25,2.25,2.51,2.51,-2.51,-2.58,-2.78,-0.26,-0.26,-0.26
255.45,2.21,2.21,2.48,2.48,-2.47,-2.55,-2.76,-0.26,-0.27,-0.27
258.00,2.16,2.16,2.44,2.44,-2.44,-2.51,-2.74,-0.28,-0.28,-0.28
260.58,2.12,2.12,2.41,2.41,-2.41,-2.48,-2.72,-0.29,-0.29,-0.29
263.19,2.08,2.08,2.38,2.38,-2.38,-2.45,-2.70,-0.30,-0.30,-0.30
265.82,2.04,2.04,2.35,2.35,-2.35,-2.42,-2.68,-0.31,-0.31,-0.31
268.48,2.01,2.01,2.32,2.32,-2.32,-2.39,-2.65,-0.31,-0.31,-0.31
271.16,1.98,1.98,2.30,2.30,-2.29,-2.36,-2.63,-0.31,-0.32,-0.32
273.87,1.94,1.94,2.27,2.27,-2.27,-2.33,-2.60,-0.33,-0.33,-0.33
276.61,1.90,1.90,2.24,2.24,-2.24,-2.30,-2.58,-0.34,-0.34,-0.34
279.38,1.86,1.86,2.21,2.21,-2.21,-2.27,-2.55,-0.35,-0.35,-0.35
282.17,1.83,1.83,2.18,2.18,-2.18,-2.24,-2.52,-0.35,-0.35,-0.35
284.99,1.80,1.80,2.15,2.15,-2.15,-2.21,-2.49,-0.35,-0.35,-0.35
287.84,1.78,1.78,2.13,2.13,-2.12,-2.19,-2.47,-0.35,-0.35,-0.35
290.72,1.76,1.75,2.11,2.10,-2.10,-2.16,-2.44,-0.34,-0.35,-0.35
293.63,1.72,1.72,2.08,2.08,-2.07,-2.14,-2.41,-0.35,-0.35,-0.36
296.57,1.69,1.69,2.04,2.05,-2.05,-2.11,-2.38,-0.36,-0.36,-0.35
299.53,1.67,1.67,2.02,2.02,-2.03,-2.09,-2.35,-0.36,-0.36,-0.35
302.53,1.65,1.66,2.01,2.01,-2.02,-2.06,-2.33,-0.37,-0.36,-0.36
305.55,1.65,1.65,2.00,2.00,-2.00,-2.04,-2.30,-0.35,-0.36,-0.35
308.61,1.64,1.64,2.00,1.99,-1.99,-2.02,-2.28,-0.35,-0.35,-0.36
311.69,1.63,1.63,1.98,1.98,-1.98,-2.00,-2.25,-0.35,-0.35,-0.35
314.81,1.62,1.62,1.98,1.97,-1.97,-1.98,-2.23,-0.35,-0.35,-0.36
317.96,1.61,1.61,1.96,1.96,-1.96,-1.96,-2.21,-0.35,-0.35,-0.35
321.14,1.60,1.60,1.96,1.95,-1.95,-1.94,-2.19,-0.35,-0.35,-0.36
324.35,1.59,1.59,1.94,1.94,-1.94,-1.92,-2.17,-0.35,-0.35,-0.35
327.59,1.58,1.58,1.92,1.93,-1.93,-1.90,-2.15,-0.35,-0.35,-0.34
330.87,1.57,1.57,1.92,1.91,-1.91,-1.89,-2.13,-0.34,-0.34,-0.35
334.18,1.56,1.56,1.90,1.90,-1.90,-1.87,-2.12,-0.34,-0.34,-0.34
337.52,1.55,1.55,1.89,1.89,-1.89,-1.86,-2.10,-0.34,-0.34,-0.34
340.90,1.54,1.54,1.88,1.88,-1.88,-1.84,-2.09,-0.34,-0.34,-0.34
344.30,1.54,1.54,1.87,1.87,-1.87,-1.83,-2.08,-0.33,-0.33,-0.33
347.75,1.53,1.53,1.86,1.86,-1.86,-1.82,-2.07,-0.33,-0.33,-0.33
351.23,1.53,1.53,1.86,1.85,-1.86,-1.81,-2.07,-0.33,-0.33,-0.33
354.74,1.53,1.53,1.84,1.85,-1.85,-1.80,-2.06,-0.32,-0.32,-0.31
358.28,1.54,1.54,1.85,1.85,-1.85,-1.79,-2.06,-0.31,-0.31,-0.31
361.87,1.54,1.54,1.85,1.85,-1.84,-1.78,-2.05,-0.30,-0.30,-0.31
365.49,1.55,1.55,1.85,1.85,-1.84,-1.77,-2.05,-0.29,-0.29,-0.30
369.14,1.55,1.55,1.85,1.85,-1.84,-1.77,-2.05,-0.29,-0.29,-0.30
372.83,1.55,1.55,1.84,1.84,-1.84,-1.76,-2.06,-0.29,-0.29,-0.29
376.56,1.55,1.55,1.84,1.84,-1.85,-1.76,-2.06,-0.30,-0.29,-0.29
380.33,1.56,1.56,1.84,1.84,-1.85,-1.76,-2.06,-0.29,-0.29,-0.28
384.13,1.57,1.57,1.85,1.85,-1.86,-1.76,-2.07,-0.29,-0.28,-0.28
387.97,1.59,1.59,1.86,1.86,-1.86,-1.76,-2.08,-0.27,-0.27,-0.27
391.85,1.61,1.61,1.87,1.87,-1.87,-1.76,-2.09,-0.26,-0.26,-0.26
395.77,1.63,1.63,1.89,1.88,-1.88,-1.76,-2.10,-0.25,-0.25,-0.26
399.73,1.64,1.64,1.89,1.89,-1.88,-1.77,-2.11,-0.24,-0.24,-0.25
403.72,1.65,1.65,1.89,1.89,-1.89,-1.77,-2.12,-0.24,-0.24,-0.24
407.76,1.65,1.65,1.89,1.89,-1.89,-1.78,-2.13,-0.24,-0.24,-0.24
411.84,1.65,1.65,1.89,1.89,-1.89,-1.79,-2.14,-0.24,-0.24,-0.24
415.96,1.66,1.66,1.89,1.89,-1.90,-1.80,-2.16,-0.24,-0.24,-0.23
420.12,1.67,1.67,1.90,1.90,-1.90,-1.81,-2.17,-0.23,-0.23,-0.23
424.32,1.68,1.68,1.90,1.90,-1.90,-1.82,-2.18,-0.22,-0.22,-0.22
428.56,1.70,1.70,1.91,1.91,-1.91,-1.83,-2.19,-0.21,-0.21,-0.21
432.85,1.71,1.71,1.91,1.92,-1.91,-1.84,-2.21,-0.20,-0.20,-0.20
437.18,1.72,1.72,1.93,1.93,-1.92,-1.86,-2.22,-0.20,-0.20,-0.21
441.55,1.74,1.74,1.94,1.93,-1.93,-1.87,-2.23,-0.19,-0.19,-0.20
445.96,1.75,1.75,1.94,1.94,-1.94,-1.89,-2.24,-0.19,-0.19,-0.19
450.42,1.77,1.77,1.94,1.94,-1.95,-1.91,-2.25,-0.18,-0.18,-0.17
454.93,1.79,1.79,1.95,1.95,-1.96,-1.93,-2.26,-0.17,-0.17,-0.16
459.48,1.82,1.81,1.97,1.97,-1.97,-1.94,-2.26,-0.15,-0.15,-0.15
464.07,1.83,1.83,1.98,1.98,-1.98,-1.96,-2.27,-0.15,-0.15,-0.15
468.71,1.85,1.85,1.99,1.99,-1.99,-1.98,-2.27,-0.14,-0.14,-0.14
473.40,1.86,1.86,2.00,2.00,-2.00,-2.00,-2.27,-0.14,-0.14,-0.14
478.13,1.88,1.88,2.01,2.01,-2.01,-2.02,-2.26,-0.13,-0.13,-0.13
482.91,1.90,1.90,2.02,2.02,-2.02,-2.03,-2.26,-0.12,-0.12,-0.12
487.74,1.92,1.92,2.03,2.03,-2.03,-2.05,-2.25,-0.11,-0.11,-0.11
492.62,1.94,1.94,2.04,2.04,-2.03,-2.06,-2.24,-0.09,-0.09,-0.10
497.55,1.95,1.95,2.04,2.04,-2.03,-2.08,-2.22,-0.08,-0.08,-0.09
502.52,1.96,1.96,2.04,2.03,-2.03,-2.09,-2.20,-0.07,-0.07,-0.08
507.55,1.96,1.96,2.02,2.02,-2.02,-2.10,-2.18,-0.06,-0.07,-0.06
512.62,1.95,1.96,2.00,2.01,-2.02,-2.10,-2.16,-0.07,-0.06,-0.05
517.75,1.96,1.96,2.00,2.00,-2.02,-2.11,-2.13,-0.06,-0.06,-0.04
522.93,1.97,1.97,2.00,2.00,-2.01,-2.11,-2.10,-0.04,-0.04,-0.03
