frequency,raw,error,smoothed,error_smoothed,equalization,parametric_eq,equalized_raw,equalized_smoothed,target
20,3.12,-1.02,3.12,-1.02,1.02,0.79,4.14,4.14,4.14
21,3.05,-1.05,3.04,-1.05,1.05,0.84,4.10,4.09,4.09
22,2.96,-1.09,2.97,-1.07,1.07,0.89,4.03,4.05,4.05
23,2.90,-1.10,2.90,-1.10,1.10,0.94,3.99,4.00,4.00
24,2.88,-1.07,2.83,-1.12,1.12,0.99,4.00,3.95,3.95
25,2.77,-1.14,2.76,-1.14,1.14,1.04,3.91,3.90,3.90
26,2.68,-1.18,2.69,-1.17,1.17,1.09,3.84,3.85,3.85
27,2.60,-1.21,2.62,-1.19,1.19,1.13,3.79,3.81,3.81
28,2.53,-1.23,2.55,-1.21,1.21,1.17,3.74,3.76,3.76
29,2.49,-1.22,2.48,-1.23,1.23,1.21,3.72,3.71,3.71
30,2.42,-1.24,2.41,-1.25,1.25,1.25,3.66,3.66,3.66
31,2.35,-1.26,2.35,-1.26,1.26,1.28,3.61,3.61,3.61
32,2.28,-1.28,2.28,-1.28,1.28,1.32,3.55,3.56,3.56
33,2.23,-1.28,2.22,-1.29,1.29,1.35,3.52,3.51,3.51
34,2.17,-1.29,2.15,-1.30,1.30,1.38,3.47,3.46,3.46
35,2.09,-1.32,2.09,-1.32,1.32,1.40,3.40,3.41,3.41
36,2.01,-1.35,2.02,-1.33,1.33,1.42,3.34,3.35,3.35
37,1.95,-1.36,1.95,-1.35,1.35,1.45,3.29,3.30,3.30
38,1.89,-1.36,1.89,-1.36,1.36,1.46,3.25,3.25,3.25
39,1.83,-1.37,1.82,-1.38,1.38,1.48,3.21,3.20,3.20
40,1.77,-1.38,1.75,-1.40,1.40,1.50,3.16,3.14,3.15
41,1.68,-1.42,1.68,-1.42,1.42,1.51,3.09,3.09,3.09
42,1.61,-1.43,1.61,-1.44,1.44,1.52,3.04,3.04,3.04
43,1.53,-1.46,1.53,-1.45,1.45,1.53,2.98,2.99,2.99
44,1.46,-1.48,1.46,-1.47,1.47,1.53,2.93,2.94,2.94
45,1.40,-1.49,1.40,-1.49,1.49,1.54,2.88,2.89,2.89
46,1.34,-1.50,1.33,-1.50,1.50,1.54,2.84,2.83,2.83
47,1.28,-1.51,1.27,-1.52,1.52,1.54,2.79,2.78,2.78
48,1.21,-1.53,1.21,-1.53,1.53,1.54,2.73,2.74,2.73
49,1.15,-1.54,1.15,-1.53,1.53,1.53,2.68,2.69,2.69
50,1.13,-1.51,1.10,-1.54,1.54,1.53,2.66,2.64,2.64
51,1.05,-1.55,1.06,-1.53,1.53,1.52,2.58,2.59,2.59
52,1.01,-1.54,1.02,-1.52,1.52,1.51,2.53,2.55,2.55
53,0.98,-1.53,0.99,-1.51,1.51,1.50,2.49,2.50,2.50
54,0.97,-1.49,0.97,-1.49,1.49,1.49,2.45,2.46,2.46
55,0.96,-1.46,0.96,-1.46,1.46,1.48,2.42,2.42,2.42
56,0.98,-1.40,0.95,-1.43,1.43,1.47,2.41,2.38,2.38
57,0.91,-1.43,0.94,-1.40,1.40,1.45,2.30,2.34,2.34
58,0.94,-1.36,0.94,-1.36,1.36,1.43,2.30,2.30,2.30
59,0.98,-1.29,0.94,-1.32,1.32,1.42,2.30,2.26,2.26
60,0.96,-1.27,0.94,-1.29,1.29,1.40,2.24,2.23,2.23
61,0.91,-1.29,0.94,-1.25,1.25,1.38,2.16,2.20,2.20
62,0.95,-1.22,0.94,-1.22,1.22,1.35,2.17,2.16,2.16
63,0.96,-1.18,0.94,-1.20,1.20,1.33,2.15,2.13,2.13
64,0.96,-1.15,0.93,-1.17,1.17,1.31,2.13,2.10,2.10
65,0.89,-1.19,0.92,-1.15,1.15,1.28,2.04,2.07,2.07
66,0.90,-1.15,0.91,-1.13,1.13,1.26,2.03,2.04,2.04
67,0.92,-1.10,0.90,-1.12,1.12,1.23,2.03,2.02,2.02
68,0.90,-1.09,0.89,-1.10,1.10,1.20,2.00,1.99,1.99
69,0.87,-1.10,0.87,-1.09,1.09,1.17,1.96,1.96,1.96
70,0.88,-1.06,0.86,-1.08,1.08,1.14,1.96,1.94,1.94
71,0.84,-1.07,0.84,-1.07,1.07,1.11,1.91,1.91,1.91
72,0.81,-1.08,0.82,-1.06,1.06,1.08,1.87,1.88,1.88
73,0.81,-1.05,0.81,-1.05,1.05,1.05,1.85,1.86,1.86
74,0.81,-1.03,0.80,-1.04,1.04,1.02,1.84,1.83,1.83
75,0.77,-1.04,0.79,-1.02,1.02,0.99,1.79,1.81,1.81
76,0.80,-0.98,0.77,-1.00,1.00,0.95,1.80,1.78,1.78
77,0.77,-0.99,0.77,-0.98,0.98,0.92,1.75,1.75,1.75
78,0.74,-0.99,0.76,-0.96,0.96,0.88,1.70,1.72,1.72
79,0.77,-0.93,0.75,-0.94,0.94,0.85,1.71,1.69,1.69
80,0.74,-0.93,0.74,-0.92,0.92,0.81,1.66,1.66,1.66
81,0.75,-0.89,0.74,-0.90,0.90,0.78,1.64,1.63,1.63
82,0.76,-0.85,0.73,-0.87,0.87,0.74,1.63,1.60,1.60
83,0.72,-0.86,0.72,-0.85,0.85,0.70,1.56,1.57,1.57
84,0.73,-0.81,0.72,-0.82,0.82,0.67,1.54,1.54,1.54
85,0.72,-0.79,0.72,-0.79,0.79,0.63,1.50,1.50,1.50
86,0.69,-0.78,0.71,-0.76,0.76,0.59,1.44,1.47,1.47
87,0.70,-0.74,0.71,-0.72,0.72,0.55,1.42,1.43,1.43
88,0.71,-0.69,0.72,-0.68,0.68,0.51,1.39,1.40,1.40
89,0.74,-0.62,0.72,-0.64,0.64,0.47,1.38,1.36,1.36
90,0.76,-0.56,0.72,-0.60,0.60,0.44,1.35,1.32,1.32
91,0.73,-0.56,0.73,-0.56,0.56,0.40,1.28,1.28,1.28
92,0.73,-0.52,0.73,-0.51,0.51,0.36,1.24,1.24,1.24
93,0.72,-0.49,0.73,-0.47,0.47,0.32,1.19,1.20,1.20
94,0.73,-0.44,0.73,-0.43,0.43,0.28,1.16,1.16,1.16
95,0.76,-0.37,0.73,-0.39,0.39,0.24,1.15,1.12,1.12
96,0.73,-0.35,0.73,-0.35,0.35,0.20,1.08,1.08,1.08
97,0.73,-0.31,0.73,-0.31,0.31,0.16,1.03,1.04,1.04
98,0.73,-0.27,0.74,-0.26,0.26,0.12,0.98,1.00,1.00
99,0.74,-0.22,0.75,-0.21,0.21,0.08,0.94,0.95,0.96
100,0.80,-0.12,0.76,-0.15,0.15,0.04,0.95,0.91,0.92
101,0.76,-0.12,0.77,-0.09,0.09,-0.00,0.85,0.86,0.88
102,0.75,-0.09,0.79,-0.03,0.03,-0.04,0.78,0.82,0.84
104,0.84,0.08,0.80,0.03,-0.03,-0.12,0.80,0.77,0.75
105,0.84,0.12,0.82,0.10,-0.10,-0.16,0.74,0.73,0.71
106,0.83,0.15,0.84,0.16,-0.16,-0.20,0.67,0.68,0.68
107,0.85,0.21,0.85,0.21,-0.21,-0.24,0.63,0.64,0.64
108,0.91,0.31,0.87,0.27,-0.27,-0.28,0.64,0.60,0.60
109,0.87,0.30,0.88,0.32,-0.32,-0.32,0.55,0.56,0.56
110,0.88,0.35,0.89,0.37,-0.37,-0.36,0.51,0.53,0.53
111,0.92,0.42,0.91,0.42,-0.42,-0.40,0.50,0.49,0.49
112,0.93,0.47,0.92,0.46,-0.46,-0.44,0.46,0.45,0.46
113,0.93,0.50,0.93,0.52,-0.52,-0.47,0.41,0.42,0.42
114,0.93,0.54,0.95,0.57,-0.57,-0.51,0.36,0.38,0.39
115,0.97,0.61,0.96,0.62,-0.62,-0.55,0.34,0.34,0.35
117,0.99,0.70,0.98,0.68,-0.68,-0.62,0.31,0.30,0.29
118,0.99,0.73,1.00,0.73,-0.73,-0.66,0.25,0.26,0.25
119,1.04,0.81,1.01,0.79,-0.79,-0.70,0.25,0.22,0.22
120,1.03,0.84,1.03,0.84,-0.84,-0.73,0.18,0.18,0.19
121,1.03,0.87,1.04,0.90,-0.90,-0.77,0.13,0.15,0.16
123,1.09,0.99,1.06,0.95,-0.95,-0.84,0.14,0.11,0.10
124,1.07,1.00,1.07,1.00,-1.00,-0.87,0.07,0.07,0.07
125,1.06,1.02,1.08,1.05,-1.05,-0.91,0.01,0.03,0.04
126,1.11,1.10,1.10,1.10,-1.10,-0.94,0.01,-0.00,0.01
128,1.11,1.16,1.11,1.15,-1.15,-1.01,-0.04,-0.04,-0.05
129,1.13,1.20,1.12,1.20,-1.20,-1.04,-0.07,-0.07,-0.08
130,1.16,1.26,1.14,1.24,-1.24,-1.07,-0.09,-0.11,-0.10
131,1.12,1.25,1.15,1.29,-1.29,-1.10,-0.17,-0.14,-0.13
133,1.19,1.37,1.16,1.33,-1.33,-1.16,-0.15,-0.17,-0.18
134,1.18,1.38,1.17,1.37,-1.37,-1.19,-0.20,-0.21,-0.20
135,1.14,1.36,1.17,1.41,-1.41,-1.22,-0.27,-0.24,-0.23
137,1.22,1.49,1.18,1.45,-1.45,-1.28,-0.23,-0.27,-0.27
138,1.19,1.48,1.18,1.48,-1.48,-1.31,-0.29,-0.30,-0.29
140,1.17,1.50,1.19,1.51,-1.51,-1.36,-0.35,-0.33,-0.34
141,1.19,1.54,1.19,1.54,-1.54,-1.39,-0.36,-0.35,-0.36
142,1.20,1.57,1.19,1.57,-1.57,-1.42,-0.37,-0.38,-0.37
144,1.19,1.60,1.19,1.59,-1.59,-1.47,-0.41,-0.41,-0.41
145,1.15,1.57,1.19,1.62,-1.62,-1.49,-0.47,-0.43,-0.42
147,1.23,1.68,1.19,1.64,-1.64,-1.54,-0.42,-0.45,-0.46
148,1.22,1.69,1.19,1.66,-1.66,-1.56,-0.45,-0.48,-0.47
150,1.18,1.68,1.18,1.68,-1.68,-1.61,-0.50,-0.50,-0.50
151,1.16,1.67,1.18,1.70,-1.70,-1.63,-0.54,-0.52,-0.51
153,1.17,1.71,1.17,1.71,-1.71,-1.67,-0.55,-0.54,-0.54
154,1.15,1.70,1.17,1.73,-1.73,-1.69,-0.58,-0.56,-0.56
156,1.19,1.77,1.16,1.74,-1.74,-1.72,-0.55,-0.58,-0.58
157,1.18,1.77,1.15,1.75,-1.75,-1.74,-0.57,-0.60,-0.59
159,1.16,1.78,1.14,1.76,-1.76,-1.78,-0.61,-0.62,-0.62
160,1.12,1.75,1.13,1.77,-1.77,-1.79,-0.66,-0.64,-0.63
162,1.11,1.76,1.13,1.78,-1.78,-1.82,-0.68,-0.66,-0.66
164,1.12,1.80,1.12,1.80,-1.80,-1.85,-0.68,-0.68,-0.68
165,1.11,1.80,1.11,1.81,-1.81,-1.86,-0.70,-0.70,-0.70
167,1.08,1.80,1.10,1.82,-1.82,-1.89,-0.75,-0.72,-0.72
169,1.10,1.85,1.09,1.83,-1.83,-1.91,-0.74,-0.75,-0.75
170,1.11,1.87,1.07,1.84,-1.84,-1.92,-0.74,-0.77,-0.77
172,1.08,1.87,1.06,1.85,-1.85,-1.94,-0.78,-0.79,-0.79
174,1.04,1.86,1.04,1.86,-1.86,-1.96,-0.82,-0.82,-0.82
175,1.01,1.84,1.02,1.87,-1.87,-1.97,-0.86,-0.84,-0.84
177,1.01,1.87,1.01,1.87,-1.87,-1.99,-0.87,-0.87,-0.86
179,1.01,1.90,0.99,1.88,-1.88,-2.00,-0.87,-0.89,-0.89
181,0.97,1.89,0.97,1.89,-1.89,-2.01,-0.92,-0.92,-0.92
183,0.94,1.88,0.95,1.90,-1.90,-2.02,-0.96,-0.94,-0.95
184,0.92,1.88,0.94,1.91,-1.91,-2.02,-0.99,-0.97,-0.97
186,0.94,1.93,0.93,1.92,-1.92,-2.03,-0.99,-0.99,-0.99
188,0.93,1.95,0.92,1.94,-1.94,-2.04,-1.01,-1.02,-1.02
190,0.90,1.94,0.91,1.95,-1.95,-2.04,-1.06,-1.05,-1.05
192,0.88,1.95,0.89,1.96,-1.96,-2.04,-1.09,-1.07,-1.07
194,0.92,2.01,0.88,1.97,-1.97,-2.04,-1.06,-1.10,-1.10
196,0.89,2.01,0.86,1.98,-1.98,-2.04,-1.09,-1.12,-1.12
198,0.85,1.99,0.83,1.98,-1.98,-2.04,-1.13,-1.15,-1.15
200,0.79,1.96,0.81,1.98,-1.98,-2.04,-1.19,-1.17,-1.17
202,0.75,1.94,0.78,1.97,-1.97,-2.03,-1.23,-1.19,-1.19
204,0.75,1.96,0.75,1.97,-1.97,-2.03,-1.22,-1.21,-1.22
206,0.75,1.98,0.73,1.96,-1.96,-2.02,-1.22,-1.24,-1.24
208,0.72,1.97,0.70,1.96,-1.96,-2.01,-1.24,-1.26,-1.26
210,0.68,1.95,0.68,1.95,-1.95,-2.00,-1.28,-1.27,-1.27
212,0.64,1.93,0.66,1.95,-1.95,-1.99,-1.31,-1.29,-1.29
214,0.62,1.93,0.64,1.95,-1.95,-1.98,-1.33,-1.31,-1.31
216,0.65,1.97,0.62,1.94,-1.94,-1.97,-1.30,-1.33,-1.32
218,0.62,1.95,0.60,1.94,-1.94,-1.96,-1.32,-1.34,-1.34
221,0.56,1.91,0.58,1.93,-1.93,-1.93,-1.37,-1.35,-1.36
223,0.55,1.91,0.56,1.92,-1.92,-1.92,-1.38,-1.37,-1.37
225,0.53,1.90,0.53,1.91,-1.91,-1.90,-1.39,-1.38,-1.38
227,0.52,1.90,0.51,1.90,-1.90,-1.89,-1.38,-1.39,-1.39
229,0.51,1.90,0.49,1.88,-1.88,-1.87,-1.38,-1.39,-1.39
232,0.49,1.89,0.47,1.87,-1.87,-1.84,-1.38,-1.40,-1.40
234,0.47,1.87,0.44,1.85,-1.85,-1.82,-1.38,-1.41,-1.41
236,0.39,1.79,0.42,1.83,-1.83,-1.80,-1.44,-1.41,-1.41
239,0.38,1.79,0.40,1.81,-1.81,-1.77,-1.43,-1.41,-1.41
241,0.38,1.79,0.38,1.79,-1.79,-1.75,-1.42,-1.41,-1.41
244,0.36,1.77,0.36,1.78,-1.78,-1.71,-1.42,-1.41,-1.41
246,0.34,1.75,0.35,1.76,-1.76,-1.69,-1.42,-1.41,-1.41
248,0.36,1.76,0.34,1.74,-1.74,-1.67,-1.39,-1.41,-1.41
251,0.34,1.74,0.32,1.73,-1.73,-1.63,-1.39,-1.40,-1.40
253,0.31,1.70,0.31,1.71,-1.71,-1.61,-1.40,-1.40,-1.40
256,0.29,1.68,0.29,1.68,-1.68,-1.57,-1.40,-1.39,-1.39
259,0.29,1.67,0.27,1.65,-1.65,-1.54,-1.37,-1.39,-1.39
261,0.23,1.61,0.24,1.62,-1.62,-1.51,-1.40,-1.38,-1.38
264,0.22,1.59,0.21,1.59,-1.59,-1.47,-1.37,-1.37,-1.37
266,0.19,1.55,0.18,1.55,-1.55,-1.45,-1.36,-1.37,-1.36
269,0.15,1.50,0.15,1.51,-1.51,-1.41,-1.36,-1.36,-1.36
272,0.13,1.47,0.12,1.46,-1.46,-1.37,-1.34,-1.35,-1.35
274,0.07,1.40,0.08,1.42,-1.42,-1.34,-1.35,-1.34,-1.34
277,0.06,1.39,0.04,1.37,-1.37,-1.30,-1.32,-1.33,-1.33
280,-0.00,1.32,0.01,1.33,-1.33,-1.26,-1.33,-1.32,-1.32
283,-0.03,1.28,-0.03,1.28,-1.28,-1.21,-1.31,-1.31,-1.31
286,-0.07,1.23,-0.07,1.23,-1.23,-1.17,-1.30,-1.30,-1.30
288,-0.09,1.20,-0.11,1.18,-1.18,-1.14,-1.28,-1.29,-1.29
291,-0.16,1.12,-0.15,1.13,-1.13,-1.10,-1.30,-1.28,-1.28
294,-0.19,1.08,-0.19,1.08,-1.08,-1.06,-1.28,-1.28,-1.28
297,-0.23,1.03,-0.23,1.03,-1.03,-1.01,-1.27,-1.27,-1.27
300,-0.26,0.99,-0.27,0.99,-0.99,-0.97,-1.25,-1.26,-1.26
303,-0.31,0.94,-0.31,0.94,-0.94,-0.93,-1.25,-1.25,-1.25
306,-0.36,0.88,-0.35,0.89,-0.89,-0.88,-1.25,-1.24,-1.24
309,-0.40,0.83,-0.39,0.84,-0.84,-0.84,-1.24,-1.23,-1.23
312,-0.43,0.79,-0.44,0.79,-0.79,-0.79,-1.22,-1.23,-1.23
316,-0.46,0.76,-0.48,0.74,-0.74,-0.74,-1.20,-1.22,-1.22
319,-0.52,0.69,-0.52,0.69,-0.69,-0.69,-1.21,-1.21,-1.21
322,-0.56,0.64,-0.57,0.63,-0.63,-0.65,-1.20,-1.20,-1.20
325,-0.60,0.59,-0.62,0.58,-0.58,-0.60,-1.18,-1.20,-1.20
328,-0.66,0.53,-0.67,0.53,-0.53,-0.55,-1.19,-1.19,-1.19
332,-0.72,0.46,-0.71,0.47,-0.47,-0.49,-1.20,-1.18,-1.18
335,-0.76,0.41,-0.76,0.42,-0.42,-0.45,-1.18,-1.18,-1.18
338,-0.81,0.36,-0.81,0.37,-0.37,-0.40,-1.18,-1.17,-1.17
342,-0.86,0.30,-0.85,0.32,-0.32,-0.34,-1.18,-1.17,-1.17
345,-0.89,0.27,-0.89,0.27,-0.27,-0.29,-1.16,-1.16,-1.16
349,-0.90,0.25,-0.93,0.23,-0.23,-0.23,-1.13,-1.16,-1.16
352,-0.93,0.22,-0.97,0.19,-0.19,-0.18,-1.12,-1.15,-1.15
356,-1.02,0.12,-1.00,0.15,-0.15,-0.12,-1.18,-1.15,-1.15
359,-1.05,0.09,-1.02,0.12,-0.12,-0.07,-1.18,-1.14,-1.14
363,-1.03,0.11,-1.04,0.10,-0.10,-0.01,-1.14,-1.14,-1.14
366,-1.09,0.04,-1.05,0.08,-0.08,0.04,-1.18,-1.14,-1.14
370,-1.12,0.01,-1.07,0.06,-0.06,0.10,-1.19,-1.13,-1.13
374,-1.10,0.03,-1.09,0.04,-0.04,0.16,-1.14,-1.13,-1.13
377,-1.12,0.01,-1.13,-0.00,0.00,0.21,-1.12,-1.13,-1.13
381,-1.11,0.01,-1.19,-0.06,0.06,0.28,-1.06,-1.13,-1.13
385,-1.19,-0.07,-1.26,-0.14,0.14,0.34,-1.06,-1.13,-1.13
389,-1.27,-0.15,-1.37,-0.24,0.24,0.41,-1.03,-1.13,-1.13
393,-1.42,-0.30,-1.49,-0.36,0.36,0.47,-1.06,-1.13,-1.13
397,-1.61,-0.49,-1.62,-0.50,0.50,0.54,-1.12,-1.13,-1.13
401,-1.77,-0.65,-1.76,-0.63,0.63,0.60,-1.14,-1.12,-1.12
405,-1.98,-0.86,-1.88,-0.76,0.76,0.67,-1.22,-1.12,-1.12
409,-2.12,-1.00,-2.00,-0.87,0.87,0.73,-1.25,-1.12,-1.12
413,-2.16,-1.04,-2.09,-0.97,0.97,0.80,-1.20,-1.12,-1.12
417,-2.18,-1.07,-2.16,-1.04,1.04,0.87,-1.14,-1.12,-1.12
421,-2.14,-1.03,-2.22,-1.10,1.10,0.93,-1.04,-1.11,-1.11
425,-2.19,-1.09,-2.26,-1.15,1.15,1.00,-1.04,-1.11,-1.11
430,-2.28,-1.18,-2.30,-1.20,1.20,1.08,-1.08,-1.10,-1.10
434,-2.30,-1.21,-2.34,-1.25,1.25,1.15,-1.06,-1.09,-1.09
438,-2.37,-1.29,-2.38,-1.30,1.30,1.22,-1.08,-1.08,-1.08
443,-2.45,-1.38,-2.42,-1.35,1.35,1.30,-1.10,-1.07,-1.07
447,-2.49,-1.43,-2.47,-1.41,1.41,1.37,-1.08,-1.06,-1.06
451,-2.53,-1.49,-2.52,-1.48,1.48,1.44,-1.06,-1.05,-1.05
456,-2.57,-1.54,-2.58,-1.54,1.54,1.52,-1.03,-1.03,-1.03
460,-2.60,-1.59,-2.63,-1.62,1.62,1.59,-0.99,-1.02,-1.02
465,-2.67,-1.67,-2.69,-1.69,1.69,1.67,-0.98,-1.00,-1.00
470,-2.72,-1.74,-2.75,-1.77,1.77,1.75,-0.96,-0.98,-0.98
474,-2.80,-1.84,-2.81,-1.84,1.84,1.81,-0.96,-0.97,-0.97
479,-2.90,-1.96,-2.86,-1.92,1.92,1.89,-0.99,-0.95,-0.95
484,-2.93,-2.00,-2.92,-1.99,1.99,1.97,-0.95,-0.93,-0.93
489,-2.99,-2.08,-2.97,-2.06,2.06,2.05,-0.94,-0.91,-0.91
494,-3.02,-2.13,-3.02,-2.12,2.12,2.13,-0.90,-0.90,-0.90
499,-3.07,-2.19,-3.07,-2.19,2.19,2.21,-0.89,-0.88,-0.88
504,-3.10,-2.24,-3.12,-2.25,2.25,2.28,-0.85,-0.87,-0.86
509,-3.14,-2.29,-3.16,-2.31,2.31,2.35,-0.83,-0.85,-0.85
514,-3.19,-2.36,-3.22,-2.38,2.38,2.42,-0.81,-0.84,-0.84
519,-3.25,-2.43,-3.27,-2.45,2.45,2.49,-0.80,-0.82,-0.82
524,-3.32,-2.51,-3.33,-2.52,2.52,2.56,-0.80,-0.81,-0.81
529,-3.39,-2.60,-3.39,-2.59,2.59,2.62,-0.80,-0.80,-0.80
535,-3.46,-2.68,-3.45,-2.66,2.66,2.69,-0.80,-0.79,-0.79
540,-3.52,-2.75,-3.51,-2.73,2.73,2.75,-0.79,-0.77,-0.77
545,-3.56,-2.80,-3.55,-2.79,2.79,2.81,-0.77,-0.76,-0.76
551,-3.59,-2.85,-3.60,-2.85,2.85,2.87,-0.75,-0.75,-0.75
556,-3.63,-2.90,-3.63,-2.90,2.90,2.92,-0.74,-0.74,-0.74
562,-3.65,-2.93,-3.66,-2.94,2.94,2.97,-0.72,-0.72,-0.72
568,-3.67,-2.97,-3.67,-2.97,2.97,3.02,-0.71,-0.71,-0.71
573,-3.70,-3.01,-3.68,-3.00,3.00,3.05,-0.71,-0.69,-0.69
579,-3.71,-3.04,-3.69,-3.02,3.02,3.09,-0.70,-0.67,-0.67
585,-3.68,-3.03,-3.69,-3.04,3.04,3.13,-0.65,-0.65,-0.65
591,-3.65,-3.02,-3.68,-3.06,3.06,3.16,-0.60,-0.63,-0.63
596,-3.65,-3.05,-3.68,-3.07,3.07,3.18,-0.58,-0.61,-0.61
602,-3.68,-3.10,-3.67,-3.09,3.09,3.20,-0.59,-0.58,-0.58
608,-3.66,-3.11,-3.67,-3.11,3.11,3.21,-0.55,-0.56,-0.56
615,-3.66,-3.13,-3.66,-3.13,3.13,3.23,-0.53,-0.53,-0.53
621,-3.65,-3.15,-3.66,-3.15,3.15,3.23,-0.50,-0.50,-0.50
627,-3.63,-3.16,-3.65,-3.17,3.17,3.23,-0.46,-0.47,-0.48
633,-3.66,-3.22,-3.63,-3.19,3.19,3.23,-0.48,-0.45,-0.45
639,-3.62,-3.20,-3.62,-3.20,3.20,3.22,-0.42,-0.42,-0.42
646,-3.58,-3.19,-3.60,-3.21,3.21,3.20,-0.38,-0.39,-0.39
652,-3.57,-3.21,-3.58,-3.21,3.21,3.19,-0.37,-0.37,-0.37
659,-3.55,-3.21,-3.55,-3.20,3.20,3.16,-0.35,-0.34,-0.34
665,-3.51,-3.19,-3.52,-3.19,3.19,3.14,-0.32,-0.32,-0.32
672,-3.47,-3.18,-3.48,-3.18,3.18,3.10,-0.30,-0.30,-0.30
679,-3.43,-3.15,-3.44,-3.15,3.15,3.07,-0.28,-0.28,-0.28
686,-3.40,-3.14,-3.39,-3.12,3.12,3.03,-0.28,-0.27,-0.26
692,-3.35,-3.10,-3.34,-3.09,3.09,2.99,-0.27,-0.25,-0.25
699,-3.27,-3.03,-3.28,-3.04,3.04,2.95,-0.23,-0.24,-0.24
706,-3.21,-2.98,-3.23,-2.99,2.99,2.90,-0.22,-0.23,-0.23
713,-3.17,-2.95,-3.17,-2.94,2.94,2.85,-0.23,-0.23,-0.22
721,-3.10,-2.88,-3.11,-2.88,2.88,2.79,-0.22,-0.22,-0.22
728,-3.02,-2.81,-3.04,-2.83,2.83,2.74,-0.20,-0.22,-0.22
735,-2.98,-2.77,-2.98,-2.77,2.77,2.68,-0.22,-0.22,-0.22
742,-2.92,-2.70,-2.92,-2.70,2.70,2.63,-0.22,-0.22,-0.22
750,-2.84,-2.62,-2.86,-2.64,2.64,2.56,-0.21,-0.22,-0.22
757,-2.79,-2.57,-2.80,-2.57,2.57,2.50,-0.22,-0.23,-0.23
765,-2.75,-2.52,-2.73,-2.50,2.50,2.43,-0.25,-0.23,-0.23
773,-2.68,-2.45,-2.66,-2.43,2.43,2.36,-0.26,-0.23,-0.23
780,-2.58,-2.35,-2.59,-2.35,2.35,2.30,-0.23,-0.24,-0.24
788,-2.50,-2.26,-2.51,-2.27,2.27,2.23,-0.23,-0.24,-0.24
796,-2.42,-2.18,-2.44,-2.19,2.19,2.16,-0.23,-0.25,-0.25
804,-2.35,-2.10,-2.36,-2.11,2.11,2.09,-0.24,-0.25,-0.25
812,-2.28,-2.03,-2.28,-2.03,2.03,2.02,-0.25,-0.25,-0.25
820,-2.20,-1.95,-2.20,-1.95,1.95,1.95,-0.25,-0.25,-0.25
828,-2.11,-1.86,-2.12,-1.87,1.87,1.87,-0.25,-0.25,-0.25
837,-2.04,-1.79,-2.04,-1.78,1.78,1.79,-0.26,-0.25,-0.25
845,-1.96,-1.71,-1.95,-1.70,1.70,1.72,-0.26,-0.25,-0.25
853,-1.85,-1.61,-1.86,-1.61,1.61,1.65,-0.24,-0.25,-0.25
862,-1.76,-1.52,-1.77,-1.52,1.52,1.56,-0.24,-0.24,-0.24
871,-1.69,-1.46,-1.67,-1.43,1.43,1.48,-0.26,-0.24,-0.24
879,-1.57,-1.35,-1.57,-1.34,1.34,1.40,-0.24,-0.23,-0.23
888,-1.42,-1.20,-1.46,-1.24,1.24,1.32,-0.18,-0.22,-0.22
897,-1.34,-1.14,-1.36,-1.15,1.15,1.23,-0.19,-0.21,-0.21
906,-1.25,-1.06,-1.25,-1.05,1.05,1.15,-0.20,-0.20,-0.20
915,-1.14,-0.96,-1.14,-0.96,0.96,1.06,-0.19,-0.18,-0.18
924,-1.04,-0.88,-1.03,-0.86,0.86,0.97,-0.19,-0.17,-0.17
933,-0.91,-0.76,-0.91,-0.76,0.76,0.88,-0.16,-0.15,-0.15
943,-0.80,-0.67,-0.79,-0.66,0.66,0.78,-0.15,-0.13,-0.13
952,-0.65,-0.54,-0.66,-0.55,0.55,0.69,-0.10,-0.11,-0.11
962,-0.50,-0.42,-0.53,-0.44,0.44,0.59,-0.06,-0.09,-0.09
971,-0.39,-0.33,-0.40,-0.34,0.34,0.50,-0.06,-0.06,-0.06
981,-0.29,-0.26,-0.26,-0.23,0.23,0.39,-0.07,-0.04,-0.04
991,-0.14,-0.13,-0.13,-0.12,0.12,0.29,-0.03,-0.01,-0.01
1001,0.02,-0.00,0.01,-0.01,0.01,0.19,0.03,0.02,0.02
1011,0.17,0.11,0.15,0.10,-0.10,0.08,0.07,0.05,0.05
1021,0.30,0.21,0.29,0.20,-0.20,-0.03,0.10,0.09,0.09
1031,0.44,0.31,0.43,0.30,-0.30,-0.13,0.14,0.13,0.12
1041,0.54,0.37,0.56,0.40,-0.40,-0.24,0.14,0.16,0.16
1052,0.72,0.51,0.69,0.49,-0.49,-0.35,0.23,0.20,0.20
1062,0.83,0.58,0.82,0.58,-0.58,-0.45,0.25,0.25,0.25
1073,0.93,0.64,0.95,0.66,-0.66,-0.56,0.26,0.29,0.29
1084,1.08,0.74,1.08,0.74,-0.74,-0.67,0.33,0.34,0.33
1094,1.21,0.83,1.20,0.82,-0.82,-0.76,0.39,0.38,0.38
1105,1.32,0.89,1.31,0.89,-0.89,-0.86,0.43,0.43,0.43
1116,1.42,0.94,1.42,0.95,-0.95,-0.96,0.47,0.48,0.47
1128,1.52,0.99,1.53,1.00,-1.00,-1.05,0.51,0.52,0.52
1139,1.66,1.09,1.62,1.05,-1.05,-1.13,0.61,0.57,0.57
1150,1.71,1.09,1.70,1.08,-1.08,-1.20,0.62,0.62,0.62
1162,1.76,1.09,1.77,1.11,-1.11,-1.26,0.65,0.66,0.66
1173,1.82,1.11,1.83,1.12,-1.12,-1.31,0.69,0.71,0.71
1185,1.90,1.15,1.88,1.13,-1.13,-1.35,0.77,0.75,0.75
1197,1.93,1.14,1.92,1.13,-1.13,-1.38,0.80,0.79,0.79
1209,1.92,1.09,1.94,1.12,-1.12,-1.39,0.80,0.83,0.83
1221,1.97,1.10,1.96,1.10,-1.10,-1.39,0.87,0.86,0.86
1233,1.95,1.05,1.96,1.07,-1.07,-1.38,0.88,0.89,0.89
1246,2.01,1.08,1.95,1.03,-1.03,-1.34,0.98,0.92,0.92
1258,1.93,0.98,1.93,0.99,-0.99,-1.30,0.94,0.95,0.95
1271,1.89,0.91,1.91,0.94,-0.94,-1.24,0.95,0.97,0.97
1283,1.86,0.87,1.87,0.88,-0.88,-1.17,0.98,0.99,0.99
1296,1.85,0.84,1.82,0.82,-0.82,-1.09,1.03,1.00,1.01
1309,1.78,0.76,1.77,0.75,-0.75,-0.99,1.02,1.02,1.02
1322,1.69,0.66,1.71,0.68,-0.68,-0.89,1.00,1.02,1.03
1335,1.63,0.59,1.64,0.61,-0.61,-0.78,1.02,1.03,1.03
1349,1.57,0.53,1.57,0.53,-0.53,-0.66,1.03,1.03,1.03
1362,1.50,0.46,1.48,0.45,-0.45,-0.54,1.05,1.04,1.04
1376,1.41,0.37,1.40,0.36,-0.36,-0.40,1.04,1.03,1.04
1390,1.33,0.29,1.30,0.27,-0.27,-0.27,1.06,1.03,1.03
1404,1.20,0.17,1.20,0.17,-0.17,-0.14,1.02,1.03,1.03
1418,1.07,0.04,1.10,0.07,-0.07,-0.01,1.00,1.03,1.03
1432,0.99,-0.04,0.99,-0.04,0.04,0.12,1.02,1.02,1.03
1446,0.88,-0.15,0.87,-0.15,0.15,0.25,1.03,1.02,1.02
1461,0.77,-0.26,0.76,-0.27,0.27,0.38,1.03,1.02,1.02
1475,0.66,-0.37,0.64,-0.39,0.39,0.50,1.05,1.03,1.03
1490,0.51,-0.53,0.52,-0.52,0.52,0.63,1.02,1.03,1.03
1505,0.40,-0.64,0.39,-0.65,0.65,0.75,1.04,1.04,1.04
1520,0.27,-0.79,0.27,-0.78,0.78,0.87,1.05,1.05,1.05
1535,0.14,-0.94,0.15,-0.92,0.92,1.00,1.06,1.07,1.07
1550,0.03,-1.07,0.03,-1.07,1.07,1.12,1.09,1.09,1.09
1566,-0.09,-1.22,-0.09,-1.22,1.22,1.25,1.12,1.12,1.12
1582,-0.21,-1.37,-0.21,-1.37,1.37,1.39,1.15,1.16,1.16
1597,-0.33,-1.53,-0.33,-1.52,1.52,1.52,1.19,1.20,1.19
1613,-0.44,-1.68,-0.44,-1.69,1.69,1.67,1.24,1.24,1.24
1629,-0.54,-1.84,-0.56,-1.85,1.85,1.83,1.31,1.29,1.29
1646,-0.65,-2.00,-0.67,-2.02,2.02,2.00,1.37,1.35,1.35
1662,-0.75,-2.17,-0.78,-2.19,2.19,2.17,1.44,1.42,1.41
1679,-0.90,-2.39,-0.88,-2.37,2.37,2.35,1.46,1.49,1.48
1696,-1.00,-2.56,-0.98,-2.54,2.54,2.53,1.54,1.56,1.56
1713,-1.11,-2.76,-1.08,-2.72,2.72,2.72,1.60,1.64,1.64
1730,-1.14,-2.87,-1.17,-2.89,2.89,2.90,1.75,1.73,1.73
1747,-1.24,-3.06,-1.25,-3.07,3.07,3.07,1.83,1.82,1.82
1764,-1.34,-3.26,-1.33,-3.25,3.25,3.25,1.90,1.91,1.91
1782,-1.39,-3.41,-1.41,-3.42,3.42,3.43,2.03,2.01,2.01
1800,-1.47,-3.59,-1.49,-3.60,3.60,3.61,2.13,2.11,2.11
1818,-1.55,-3.77,-1.56,-3.78,3.78,3.79,2.23,2.22,2.22
