frequency,raw,smoothed,error,error_smoothed,equalization,parametric_eq,fixed_band_eq,equalized_raw,equalized_smoothed,target
20.00,-1.94,-1.94,-10.43,-10.44,6.00,6.75,2.72,4.06,4.06,8.49
20.20,-1.86,-1.86,-10.38,-10.38,6.00,6.73,2.80,4.14,4.14,8.52
20.40,-1.77,-1.77,-10.32,-10.32,6.00,6.71,2.88,4.23,4.23,8.55
20.61,-1.68,-1.69,-10.25,-10.26,6.00,6.69,2.97,4.32,4.31,8.57
20.81,-1.60,-1.60,-10.20,-10.20,6.00,6.67,3.05,4.40,4.40,8.60
21.02,-1.51,-1.51,-10.14,-10.14,6.00,6.65,3.14,4.49,4.49,8.63
21.23,-1.42,-1.42,-10.06,-10.07,6.00,6.63,3.23,4.58,4.58,8.64
21.44,-1.34,-1.34,-9.99,-9.99,6.00,6.60,3.32,4.66,4.66,8.65
21.66,-1.25,-1.25,-9.91,-9.91,6.00,6.58,3.42,4.75,4.75,8.66
21.87,-1.17,-1.17,-9.83,-9.83,6.00,6.56,3.52,4.83,4.83,8.66
22.09,-1.08,-1.08,-9.75,-9.75,6.00,6.53,3.62,4.92,4.92,8.67
22.31,-1.00,-1.00,-9.67,-9.67,6.00,6.51,3.72,5.00,5.00,8.67
22.54,-0.92,-0.92,-9.59,-9.59,6.00,6.49,3.83,5.08,5.08,8.67
22.76,-0.83,-0.83,-9.50,-9.50,6.00,6.46,3.94,5.17,5.17,8.67
22.99,-0.75,-0.75,-9.41,-9.41,6.00,6.44,4.05,5.25,5.25,8.66
23.22,-0.66,-0.66,-9.32,-9.32,6.00,6.41,4.16,5.34,5.34,8.65
23.45,-0.58,-0.58,-9.23,-9.23,6.00,6.39,4.28,5.42,5.42,8.65
23.69,-0.49,-0.49,-9.15,-9.15,6.00,6.36,4.40,5.51,5.51,8.65
23.92,-0.41,-0.41,-9.06,-9.06,6.00,6.33,4.52,5.59,5.59,8.65
24.16,-0.32,-0.32,-8.98,-8.98,6.00,6.31,4.64,5.68,5.68,8.66
24.40,-0.24,-0.24,-8.90,-8.90,6.00,6.28,4.77,5.76,5.76,8.66
24.65,-0.16,-0.16,-8.81,-8.81,6.00,6.25,4.90,5.84,5.84,8.65
24.89,-0.07,-0.07,-8.72,-8.72,6.00,6.22,5.03,5.93,5.93,8.65
25.14,0.01,0.01,-8.64,-8.64,6.00,6.20,5.16,6.01,6.01,8.65
25.39,0.10,0.10,-8.55,-8.55,6.00,6.17,5.29,6.10,6.10,8.65
25.65,0.18,0.18,-8.47,-8.46,6.00,6.14,5.43,6.18,6.18,8.65
25.91,0.26,0.26,-8.38,-8.38,6.00,6.11,5.56,6.26,6.26,8.63
26.16,0.35,0.34,-8.28,-8.29,6.00,6.08,5.69,6.35,6.34,8.63
26.43,0.43,0.43,-8.21,-8.20,6.00,6.05,5.82,6.43,6.43,8.63
26.69,0.51,0.51,-8.12,-8.12,6.00,6.01,5.96,6.51,6.51,8.63
26.96,0.59,0.59,-8.04,-8.04,6.00,5.98,6.09,6.59,6.59,8.63
27.23,0.67,0.67,-7.96,-7.96,6.00,5.95,6.21,6.67,6.67,8.63
27.50,0.74,0.74,-7.89,-7.88,6.00,5.92,6.33,6.74,6.74,8.63
27.77,0.82,0.82,-7.80,-7.80,6.00,5.88,6.45,6.82,6.82,8.62
28.05,0.89,0.89,-7.73,-7.72,6.00,5.85,6.57,6.89,6.89,8.61
28.33,0.97,0.97,-7.63,-7.64,6.00,5.82,6.67,6.97,6.97,8.60
28.62,1.05,1.04,-7.55,-7.56,6.00,5.78,6.78,7.05,7.04,8.60
28.90,1.12,1.12,-7.48,-7.48,6.00,5.75,6.87,7.12,7.12,8.60
29.19,1.20,1.20,-7.39,-7.40,6.00,5.71,6.95,7.20,7.20,8.59
29.48,1.28,1.28,-7.32,-7.31,6.00,5.67,7.02,7.28,7.28,8.60
29.78,1.36,1.36,-7.23,-7.23,6.00,5.64,7.09,7.36,7.36,8.58
30.08,1.44,1.44,-7.15,-7.14,6.00,5.60,7.14,7.44,7.44,8.58
30.38,1.52,1.52,-7.05,-7.06,6.00,5.56,7.18,7.52,7.52,8.57
30.68,1.60,1.60,-6.97,-6.97,6.00,5.52,7.21,7.60,7.60,8.57
30.99,1.68,1.68,-6.88,-6.88,6.00,5.48,7.23,7.68,7.68,8.56
31.30,1.76,1.75,-6.80,-6.80,6.00,5.44,7.23,7.76,7.75,8.55
31.61,1.83,1.83,-6.72,-6.72,6.00,5.40,7.22,7.83,7.83,8.55
31.93,1.91,1.91,-6.63,-6.63,6.00,5.36,7.19,7.91,7.91,8.54
32.24,1.99,1.99,-6.54,-6.55,6.01,5.32,7.16,8.00,7.99,8.53
32.57,2.07,2.07,-6.46,-6.46,6.01,5.28,7.11,8.08,8.08,8.53
32.89,2.15,2.15,-6.37,-6.37,6.02,5.24,7.05,8.17,8.17,8.52
33.22,2.24,2.24,-6.27,-6.28,6.01,5.19,6.98,8.25,8.25,8.51
33.55,2.32,2.32,-6.19,-6.18,6.00,5.15,6.90,8.32,8.32,8.51
33.89,2.41,2.41,-6.09,-6.09,5.97,5.11,6.81,8.38,8.38,8.49
34.23,2.50,2.50,-5.99,-5.99,5.93,5.06,6.71,8.43,8.43,8.49
34.57,2.58,2.58,-5.90,-5.90,5.87,5.02,6.60,8.45,8.46,8.48
34.92,2.67,2.67,-5.80,-5.80,5.81,4.97,6.49,8.47,8.47,8.46
35.27,2.75,2.75,-5.71,-5.71,5.72,4.92,6.37,8.47,8.47,8.46
35.62,2.84,2.84,-5.61,-5.61,5.63,4.88,6.25,8.47,8.47,8.45
35.97,2.92,2.92,-5.51,-5.52,5.53,4.83,6.12,8.45,8.45,8.43
36.33,3.00,3.00,-5.43,-5.43,5.43,4.78,5.99,8.43,8.43,8.43
36.70,3.08,3.08,-5.34,-5.33,5.33,4.73,5.86,8.41,8.42,8.42
37.06,3.17,3.17,-5.23,-5.24,5.24,4.68,5.72,8.41,8.41,8.40
37.43,3.25,3.25,-5.15,-5.15,5.15,4.63,5.58,8.40,8.40,8.40
37.81,3.33,3.33,-5.06,-5.05,5.06,4.58,5.45,8.38,8.38,8.38
38.19,3.41,3.41,-4.96,-4.97,4.96,4.53,5.31,8.37,8.37,8.37
38.57,3.49,3.49,-4.88,-4.87,4.87,4.48,5.17,8.36,8.36,8.36
38.95,3.57,3.57,-4.78,-4.78,4.78,4.43,5.04,8.35,8.35,8.35
39.34,3.65,3.65,-4.69,-4.69,4.69,4.37,4.90,8.34,8.34,8.33
39.74,3.73,3.73,-4.59,-4.59,4.60,4.32,4.77,8.32,8.32,8.32
40.14,3.81,3.81,-4.51,-4.51,4.51,4.26,4.64,8.32,8.31,8.31
40.54,3.88,3.88,-4.42,-4.42,4.42,4.21,4.51,8.30,8.30,8.30
40.94,3.96,3.96,-4.33,-4.33,4.34,4.15,4.38,8.30,8.30,8.29
41.35,4.03,4.03,-4.25,-4.25,4.26,4.10,4.25,8.29,8.28,8.28
41.76,4.10,4.10,-4.17,-4.17,4.18,4.04,4.13,8.28,8.27,8.27
42.18,4.16,4.16,-4.11,-4.10,4.10,3.98,4.01,8.25,8.26,8.26
42.60,4.23,4.23,-4.02,-4.02,4.01,3.92,3.89,8.24,8.25,8.25
43.03,4.30,4.30,-3.94,-3.94,3.93,3.86,3.78,8.23,8.23,8.24
43.46,4.37,4.37,-3.85,-3.85,3.85,3.80,3.66,8.22,8.21,8.22
43.90,4.43,4.43,-3.77,-3.77,3.77,3.74,3.55,8.19,8.20,8.20
44.33,4.50,4.50,-3.68,-3.68,3.68,3.68,3.45,8.18,8.18,8.18
44.78,4.57,4.57,-3.59,-3.59,3.60,3.62,3.34,8.16,8.16,8.16
45.23,4.64,4.63,-3.50,-3.51,3.51,3.56,3.24,8.15,8.15,8.14
45.68,4.70,4.70,-3.42,-3.42,3.43,3.49,3.14,8.13,8.13,8.12
46.13,4.76,4.76,-3.34,-3.34,3.35,3.43,3.04,8.11,8.11,8.10
46.60,4.83,4.83,-3.27,-3.27,3.27,3.36,2.95,8.10,8.09,8.09
47.06,4.89,4.89,-3.19,-3.19,3.19,3.30,2.85,8.07,8.07,8.08
47.53,4.95,4.95,-3.11,-3.11,3.11,3.23,2.76,8.05,8.05,8.06
48.01,5.01,5.01,-3.04,-3.03,3.02,3.17,2.68,8.03,8.03,8.04
48.49,5.07,5.07,-2.95,-2.95,2.94,3.10,2.59,8.01,8.01,8.01
48.97,5.13,5.13,-2.85,-2.85,2.85,3.03,2.51,7.98,7.98,7.98
49.46,5.19,5.19,-2.76,-2.76,2.77,2.97,2.43,7.96,7.96,7.95
49.96,5.25,5.25,-2.67,-2.68,2.68,2.90,2.35,7.93,7.93,7.92
50.46,5.31,5.31,-2.60,-2.60,2.60,2.83,2.27,7.91,7.91,7.91
50.96,5.37,5.37,-2.52,-2.51,2.51,2.76,2.19,7.88,7.88,7.89
51.47,5.43,5.43,-2.42,-2.43,2.43,2.69,2.12,7.86,7.86,7.85
51.99,5.49,5.48,-2.34,-2.35,2.35,2.62,2.05,7.84,7.83,7.83
52.51,5.54,5.54,-2.28,-2.27,2.27,2.54,1.98,7.81,7.81,7.81
53.03,5.60,5.60,-2.19,-2.19,2.19,2.47,1.91,7.79,7.79,7.79
53.56,5.66,5.65,-2.11,-2.11,2.11,2.40,1.84,7.77,7.76,7.77
54.10,5.71,5.71,-2.03,-2.03,2.03,2.33,1.78,7.73,7.74,7.74
54.64,5.77,5.77,-1.95,-1.94,1.94,2.25,1.71,7.71,7.71,7.71
55.18,5.83,5.83,-1.86,-1.86,1.86,2.18,1.65,7.69,7.69,7.69
55.74,5.88,5.88,-1.78,-1.78,1.78,2.10,1.58,7.66,7.66,7.66
56.29,5.94,5.94,-1.70,-1.70,1.70,2.03,1.52,7.64,7.64,7.64
56.86,5.99,5.99,-1.63,-1.62,1.63,1.95,1.46,7.61,7.62,7.61
57.42,6.05,6.05,-1.54,-1.54,1.55,1.88,1.40,7.60,7.59,7.59
58.00,6.10,6.10,-1.47,-1.47,1.47,1.80,1.34,7.57,7.57,7.57
58.58,6.15,6.15,-1.40,-1.40,1.40,1.72,1.29,7.54,7.55,7.55
59.16,6.20,6.20,-1.33,-1.32,1.32,1.65,1.23,7.52,7.52,7.53
59.76,6.26,6.26,-1.25,-1.25,1.24,1.57,1.17,7.50,7.50,7.51
60.35,6.31,6.31,-1.16,-1.17,1.16,1.49,1.11,7.47,7.47,7.47
60.96,6.36,6.36,-1.09,-1.08,1.08,1.41,1.06,7.44,7.44,7.45
61.57,6.41,6.41,-1.00,-1.00,1.01,1.33,1.00,7.41,7.41,7.41
62.18,6.46,6.46,-0.92,-0.92,0.93,1.25,0.95,7.38,7.38,7.37
62.80,6.50,6.50,-0.85,-0.84,0.85,1.18,0.89,7.35,7.35,7.35
63.43,6.55,6.55,-0.77,-0.77,0.77,1.10,0.83,7.32,7.32,7.31
64.07,6.60,6.60,-0.69,-0.69,0.69,1.02,0.78,7.29,7.29,7.29
64.71,6.64,6.64,-0.62,-0.62,0.62,0.94,0.72,7.26,7.26,7.26
65.35,6.69,6.69,-0.55,-0.55,0.55,0.86,0.67,7.23,7.23,7.23
66.01,6.73,6.73,-0.48,-0.48,0.47,0.78,0.61,7.20,7.20,7.21
66.67,6.78,6.78,-0.40,-0.40,0.40,0.70,0.56,7.18,7.18,7.18
67.33,6.82,6.82,-0.33,-0.33,0.33,0.62,0.50,7.15,7.15,7.15
68.01,6.86,6.86,-0.26,-0.26,0.26,0.54,0.45,7.12,7.12,7.12
68.69,6.89,6.89,-0.20,-0.19,0.19,0.46,0.39,7.08,7.09,7.09
69.37,6.93,6.93,-0.13,-0.13,0.13,0.38,0.33,7.05,7.05,7.05
70.07,6.97,6.97,-0.05,-0.06,0.06,0.31,0.28,7.03,7.02,7.02
70.77,7.00,7.00,0.00,0.01,-0.01,0.23,0.22,6.99,6.99,7.00
71.48,7.04,7.04,0.08,0.07,-0.08,0.15,0.16,6.96,6.96,6.96
72.19,7.07,7.07,0.14,0.14,-0.14,0.07,0.10,6.93,6.93,6.93
72.91,7.10,7.10,0.21,0.21,-0.21,-0.01,0.05,6.89,6.89,6.89
73.64,7.13,7.13,0.27,0.27,-0.27,-0.08,-0.01,6.86,6.86,6.85
74.38,7.16,7.16,0.33,0.34,-0.33,-0.16,-0.07,6.83,6.83,6.83
75.12,7.19,7.18,0.40,0.39,-0.39,-0.24,-0.13,6.80,6.79,6.79
75.87,7.21,7.21,0.45,0.45,-0.45,-0.31,-0.19,6.76,6.76,6.76
76.63,7.23,7.23,0.50,0.51,-0.51,-0.39,-0.25,6.72,6.73,6.73
77.40,7.26,7.26,0.56,0.56,-0.56,-0.46,-0.31,6.70,6.69,6.70
78.17,7.28,7.28,0.62,0.61,-0.61,-0.53,-0.38,6.66,6.66,6.66
78.95,7.30,7.30,0.66,0.67,-0.67,-0.61,-0.44,6.63,6.63,6.63
79.74,7.32,7.32,0.72,0.72,-0.72,-0.68,-0.50,6.60,6.60,6.60
80.54,7.34,7.34,0.77,0.77,-0.77,-0.75,-0.57,6.57,6.57,6.57
81.35,7.35,7.35,0.82,0.82,-0.82,-0.82,-0.64,6.53,6.53,6.53
82.16,7.37,7.37,0.87,0.87,-0.87,-0.89,-0.70,6.50,6.50,6.50
82.98,7.38,7.38,0.91,0.92,-0.92,-0.96,-0.77,6.46,6.46,6.47
83.81,7.40,7.40,0.98,0.97,-0.97,-1.03,-0.84,6.43,6.43,6.42
84.65,7.41,7.41,1.02,1.02,-1.02,-1.09,-0.91,6.39,6.39,6.38
85.50,7.42,7.42,1.06,1.07,-1.07,-1.16,-0.98,6.35,6.35,6.36
86.35,7.43,7.43,1.11,1.11,-1.11,-1.22,-1.05,6.32,6.32,6.32
87.22,7.44,7.44,1.16,1.16,-1.16,-1.29,-1.12,6.28,6.28,6.28
88.09,7.45,7.45,1.21,1.21,-1.21,-1.35,-1.20,6.24,6.24,6.24
88.97,7.46,7.46,1.25,1.26,-1.26,-1.41,-1.27,6.20,6.20,6.21
89.86,7.46,7.46,1.29,1.30,-1.30,-1.47,-1.35,6.16,6.16,6.16
90.76,7.47,7.47,1.36,1.35,-1.35,-1.52,-1.43,6.12,6.12,6.11
91.66,7.47,7.47,1.39,1.40,-1.40,-1.58,-1.50,6.07,6.08,6.08
92.58,7.48,7.48,1.45,1.44,-1.44,-1.64,-1.58,6.04,6.03,6.03
93.51,7.48,7.48,1.49,1.49,-1.49,-1.69,-1.66,5.99,5.99,5.99
94.44,7.48,7.48,1.53,1.53,-1.53,-1.74,-1.75,5.95,5.95,5.95
95.39,7.48,7.48,1.57,1.58,-1.58,-1.79,-1.83,5.90,5.90,5.90
96.34,7.48,7.48,1.63,1.62,-1.62,-1.84,-1.91,5.86,5.85,5.85
97.30,7.47,7.47,1.66,1.67,-1.66,-1.89,-1.99,5.80,5.81,5.80
98.28,7.47,7.47,1.71,1.71,-1.71,-1.94,-2.08,5.76,5.76,5.76
99.26,7.46,7.46,1.75,1.75,-1.75,-1.98,-2.16,5.71,5.71,5.71
100.25,7.46,7.46,1.79,1.79,-1.79,-2.03,-2.25,5.67,5.66,5.67
101.25,7.45,7.45,1.83,1.83,-1.83,-2.07,-2.33,5.62,5.62,5.62
102.27,7.45,7.45,1.87,1.87,-1.87,-2.11,-2.41,5.58,5.58,5.58
103.29,7.44,7.44,1.92,1.91,-1.91,-2.15,-2.50,5.53,5.53,5.52
104.32,7.43,7.43,1.95,1.95,-1.95,-2.18,-2.58,5.48,5.48,5.48
105.37,7.42,7.42,1.98,1.98,-1.98,-2.22,-2.66,5.44,5.43,5.44
106.42,7.40,7.40,2.01,2.01,-2.02,-2.25,-2.74,5.38,5.39,5.39
107.48,7.39,7.39,2.04,2.05,-2.05,-2.29,-2.82,5.34,5.34,5.34
108.56,7.38,7.37,2.09,2.08,-2.08,-2.32,-2.89,5.30,5.29,5.29
109.64,7.36,7.36,2.12,2.11,-2.11,-2.35,-2.97,5.24,5.24,5.24
110.74,7.34,7.34,2.14,2.15,-2.15,-2.37,-3.03,5.19,5.19,5.20
111.85,7.32,7.32,2.17,2.17,-2.18,-2.40,-3.10,5.14,5.14,5.15
112.97,7.30,7.30,2.21,2.21,-2.21,-2.42,-3.16,5.09,5.09,5.08
114.10,7.28,7.28,2.24,2.24,-2.24,-2.44,-3.22,5.04,5.04,5.04
115.24,7.26,7.25,2.27,2.27,-2.27,-2.46,-3.26,4.99,4.98,4.98
116.39,7.23,7.23,2.30,2.30,-2.30,-2.48,-3.31,4.93,4.93,4.93
117.55,7.20,7.20,2.32,2.33,-2.32,-2.50,-3.35,4.87,4.88,4.88
118.73,7.18,7.18,2.36,2.35,-2.35,-2.52,-3.38,4.83,4.83,4.82
119.92,7.15,7.15,2.37,2.37,-2.37,-2.53,-3.40,4.78,4.78,4.78
121.12,7.12,7.12,2.39,2.39,-2.39,-2.54,-3.42,4.73,4.73,4.73
122.33,7.08,7.08,2.40,2.40,-2.41,-2.55,-3.43,4.67,4.68,4.67
123.55,7.05,7.05,2.42,2.42,-2.42,-2.56,-3.43,4.63,4.63,4.63
124.79,7.02,7.01,2.44,2.43,-2.44,-2.57,-3.42,4.58,4.58,4.58
126.03,6.98,6.98,2.45,2.45,-2.45,-2.57,-3.41,4.53,4.53,4.53
127.29,6.94,6.94,2.46,2.46,-2.46,-2.58,-3.39,4.48,4.48,4.48
128.57,6.90,6.90,2.48,2.47,-2.47,-2.58,-3.36,4.43,4.43,4.42
129.85,6.86,6.86,2.49,2.48,-2.48,-2.58,-3.32,4.38,4.38,4.37
131.15,6.81,6.81,2.48,2.49,-2.48,-2.58,-3.27,4.32,4.33,4.32
132.46,6.77,6.77,2.49,2.49,-2.49,-2.57,-3.22,4.28,4.28,4.28
133.79,6.72,6.72,2.48,2.48,-2.48,-2.57,-3.16,4.23,4.23,4.24
135.12,6.67,6.67,2.48,2.48,-2.48,-2.56,-3.09,4.19,4.19,4.18
136.48,6.62,6.62,2.47,2.47,-2.47,-2.55,-3.02,4.15,4.14,4.15
137.84,6.56,6.56,2.45,2.46,-2.46,-2.54,-2.94,4.10,4.10,4.10
139.22,6.51,6.51,2.46,2.45,-2.45,-2.53,-2.86,4.06,4.06,4.05
140.61,6.46,6.45,2.45,2.44,-2.44,-2.52,-2.76,4.02,4.02,4.01
142.02,6.40,6.40,2.41,2.42,-2.42,-2.50,-2.67,3.98,3.98,3.99
143.44,6.35,6.35,2.40,2.41,-2.41,-2.49,-2.57,3.94,3.94,3.95
144.87,6.30,6.30,2.39,2.39,-2.39,-2.47,-2.47,3.90,3.90,3.90
146.32,6.25,6.25,2.38,2.38,-2.38,-2.45,-2.37,3.87,3.87,3.87
147.78,6.20,6.20,2.36,2.37,-2.37,-2.43,-2.26,3.83,3.83,3.84
149.26,6.15,6.15,2.35,2.35,-2.35,-2.40,-2.15,3.79,3.79,3.80
150.75,6.10,6.10,2.35,2.34,-2.34,-2.38,-2.04,3.76,3.76,3.75
152.26,6.05,6.05,2.33,2.33,-2.33,-2.35,-1.93,3.72,3.72,3.72
153.78,6.00,6.00,2.32,2.32,-2.32,-2.32,-1.81,3.68,3.68,3.68
155.32,5.95,5.95,2.31,2.31,-2.31,-2.29,-1.70,3.64,3.64,3.63
156.88,5.90,5.90,2.30,2.30,-2.30,-2.26,-1.58,3.60,3.60,3.60
158.44,5.84,5.84,2.28,2.28,-2.28,-2.23,-1.46,3.55,3.56,3.56
160.03,5.79,5.79,2.27,2.27,-2.27,-2.19,-1.35,3.52,3.52,3.52
161.63,5.73,5.73,2.25,2.25,-2.25,-2.16,-1.23,3.48,3.48,3.47
163.24,5.67,5.67,2.23,2.23,-2.23,-2.12,-1.11,3.44,3.44,3.43
164.88,5.60,5.60,2.19,2.20,-2.20,-2.08,-0.99,3.40,3.40,3.40
166.53,5.54,5.54,2.17,2.17,-2.17,-2.04,-0.88,3.37,3.36,3.36
168.19,5.47,5.47,2.14,2.14,-2.14,-1.99,-0.76,3.33,3.33,3.33
169.87,5.40,5.40,2.11,2.11,-2.11,-1.95,-0.64,3.29,3.29,3.29
171.57,5.33,5.33,2.08,2.07,-2.08,-1.90,-0.52,3.25,3.25,3.25
173.29,5.25,5.25,2.03,2.04,-2.04,-1.85,-0.40,3.21,3.21,3.22
175.02,5.18,5.18,2.00,2.00,-2.00,-1.80,-0.29,3.18,3.17,3.18
176.77,5.10,5.10,1.96,1.96,-1.96,-1.75,-0.17,3.14,3.13,3.14
178.54,5.02,5.02,1.93,1.92,-1.92,-1.69,-0.05,3.10,3.10,3.09
180.32,4.94,4.94,1.88,1.88,-1.88,-1.64,0.06,3.06,3.06,3.06
182.13,4.86,4.85,1.83,1.83,-1.83,-1.58,0.18,3.02,3.02,3.03
183.95,4.77,4.77,1.79,1.78,-1.78,-1.52,0.30,2.98,2.99,2.98
185.79,4.68,4.68,1.73,1.73,-1.73,-1.46,0.41,2.95,2.95,2.95
187.65,4.60,4.59,1.69,1.68,-1.68,-1.39,0.53,2.92,2.92,2.91
189.52,4.50,4.50,1.62,1.62,-1.62,-1.33,0.64,2.88,2.88,2.88
191.42,4.41,4.41,1.56,1.56,-1.56,-1.26,0.76,2.85,2.85,2.85
193.33,4.31,4.31,1.49,1.48,-1.49,-1.19,0.87,2.82,2.82,2.82
195.27,4.21,4.21,1.41,1.42,-1.42,-1.12,0.99,2.79,2.79,2.79
197.22,4.11,4.11,1.34,1.35,-1.34,-1.04,1.10,2.76,2.76,2.77
199.19,4.01,4.01,1.28,1.27,-1.27,-0.96,1.22,2.74,2.74,2.73
201.18,3.90,3.90,1.19,1.19,-1.18,-0.88,1.33,2.72,2.72,2.71
203.19,3.79,3.79,1.09,1.10,-1.10,-0.80,1.44,2.69,2.69,2.70
205.23,3.68,3.68,1.01,1.00,-1.00,-0.71,1.55,2.68,2.67,2.67
207.28,3.56,3.56,0.89,0.90,-0.91,-0.63,1.66,2.65,2.66,2.67
209.35,3.45,3.45,0.81,0.81,-0.80,-0.54,1.76,2.64,2.64,2.64
211.44,3.33,3.33,0.71,0.70,-0.70,-0.44,1.87,2.63,2.63,2.62
213.56,3.20,3.20,0.58,0.59,-0.59,-0.34,1.97,2.61,2.62,2.61
215.69,3.08,3.08,0.47,0.47,-0.47,-0.25,2.08,2.61,2.60,2.61
217.85,2.95,2.95,0.35,0.35,-0.35,-0.14,2.17,2.59,2.59,2.60
220.03,2.82,2.82,0.23,0.23,-0.23,-0.03,2.27,2.59,2.59,2.59
222.23,2.68,2.68,0.10,0.10,-0.10,0.08,2.36,2.58,2.59,2.57
224.45,2.55,2.55,-0.03,-0.03,0.04,0.19,2.46,2.59,2.58,2.58
226.70,2.41,2.41,-0.17,-0.17,0.18,0.31,2.54,2.58,2.58,2.58
228.96,2.26,2.26,-0.32,-0.32,0.32,0.43,2.62,2.58,2.58,2.58
231.25,2.12,2.12,-0.47,-0.47,0.46,0.56,2.70,2.58,2.58,2.59
233.57,1.97,1.97,-0.62,-0.62,0.62,0.69,2.77,2.58,2.58,2.59
235.90,1.82,1.82,-0.77,-0.77,0.77,0.82,2.84,2.59,2.59,2.59
238.26,1.67,1.67,-0.92,-0.93,0.93,0.96,2.91,2.60,2.60,2.59
240.64,1.51,1.51,-1.09,-1.09,1.09,1.11,2.96,2.60,2.61,2.60
243.05,1.36,1.35,-1.25,-1.26,1.26,1.26,3.02,2.62,2.61,2.61
245.48,1.19,1.19,-1.44,-1.44,1.43,1.42,3.06,2.62,2.62,2.62
247.93,1.02,1.02,-1.62,-1.61,1.61,1.58,3.10,2.63,2.63,2.64
250.41,0.85,0.85,-1.79,-1.80,1.80,1.74,3.14,2.65,2.65,2.64
252.92,0.68,0.67,-1.98,-1.99,1.99,1.91,3.17,2.67,2.66,2.66
255.45,0.49,0.49,-2.20,-2.19,2.19,2.09,3.19,2.67,2.68,2.68
258.00,0.31,0.30,-2.39,-2.39,2.39,2.28,3.21,2.70,2.70,2.70
260.58,0.11,0.11,-2.60,-2.60,2.60,2.47,3.22,2.71,2.71,2.71
263.19,-0.09,-0.09,-2.82,-2.82,2.82,2.66,3.22,2.73,2.73,2.73
265.82,-0.29,-0.30,-3.04,-3.05,3.05,2.87,3.23,2.76,2.75,2.75
268.48,-0.51,-0.51,-3.28,-3.28,3.28,3.07,3.22,2.77,2.77,2.77
271.16,-0.73,-0.73,-3.53,-3.52,3.53,3.29,3.22,2.79,2.79,2.80
273.87,-0.96,-0.96,-3.77,-3.78,3.77,3.50,3.20,2.81,2.81,2.81
276.61,-1.20,-1.20,-4.04,-4.03,4.03,3.73,3.19,2.83,2.83,2.83
279.38,-1.44,-1.44,-4.29,-4.29,4.31,3.95,3.17,2.87,2.87,2.85
282.17,-1.69,-1.69,-4.56,-4.56,4.60,4.18,3.15,2.91,2.91,2.86
284.99,-1.94,-1.94,-4.83,-4.83,4.89,4.42,3.13,2.94,2.94,2.89
287.84,-2.20,-2.20,-5.11,-5.11,5.16,4.65,3.10,2.95,2.95,2.90
290.72,-2.46,-2.46,-5.39,-5.39,5.40,4.88,3.08,2.94,2.94,2.93
293.63,-2.72,-2.72,-5.67,-5.67,5.61,5.11,3.05,2.89,2.88,2.95
296.57,-2.98,-2.98,-5.95,-5.95,5.78,5.34,3.02,2.80,2.79,2.97
299.53,-3.25,-3.25,-6.24,-6.24,5.90,5.56,2.99,2.65,2.66,2.99
302.53,-3.51,-3.51,-6.51,-6.52,5.99,5.77,2.96,2.48,2.48,3.00
305.55,-3.77,-3.77,-6.81,-6.81,6.04,5.96,2.93,2.27,2.26,3.04
308.61,-4.03,-4.03,-7.09,-7.09,6.05,6.15,2.90,2.02,2.02,3.06
311.69,-4.28,-4.28,-7.36,-7.37,6.05,6.31,2.87,1.76,1.77,3.08
314.81,-4.51,-4.51,-7.63,-7.62,6.02,6.46,2.84,1.51,1.51,3.12
317.96,-4.71,-4.72,-7.85,-7.85,6.00,6.58,2.81,1.29,1.29,3.14
321.14,-4.89,-4.89,-8.04,-8.04,6.00,6.67,2.78,1.11,1.11,3.15
324.35,-5.02,-5.02,-8.19,-8.19,6.00,6.74,2.76,0.98,0.98,3.17
327.59,-5.09,-5.09,-8.29,-8.29,6.00,6.78,2.73,0.91,0.91,3.20
330.87,-5.10,-5.10,-8.31,-8.32,6.00,6.79,2.71,0.90,0.90,3.21
334.18,-5.06,-5.05,-8.29,-8.28,6.00,6.78,2.69,0.94,0.95,3.23
337.52,-4.93,-4.93,-8.18,-8.19,6.00,6.73,2.67,1.07,1.07,3.25
340.90,-4.76,-4.77,-8.04,-8.04,6.00,6.66,2.66,1.24,1.23,3.28
344.30,-4.56,-4.56,-7.85,-7.85,6.00,6.57,2.64,1.44,1.44,3.29
347.75,-4.32,-4.33,-7.63,-7.64,6.00,6.46,2.63,1.68,1.67,3.31
351.23,-4.07,-4.07,-7.40,-7.40,6.01,6.33,2.62,1.94,1.94,3.33
354.74,-3.81,-3.81,-7.16,-7.15,6.03,6.19,2.61,2.21,2.22,3.35
358.28,-3.54,-3.54,-6.91,-6.91,6.04,6.03,2.60,2.49,2.49,3.36
361.87,-3.28,-3.29,-6.66,-6.66,6.03,5.87,2.59,2.75,2.74,3.38
365.49,-3.04,-3.04,-6.43,-6.43,6.01,5.70,2.59,2.97,2.96,3.39
369.14,-2.82,-2.82,-6.22,-6.22,5.96,5.53,2.59,3.14,3.14,3.40
372.83,-2.61,-2.61,-6.03,-6.03,5.89,5.36,2.59,3.27,3.27,3.42
376.56,-2.41,-2.41,-5.84,-5.84,5.78,5.19,2.59,3.37,3.37,3.42
380.33,-2.21,-2.21,-5.66,-5.66,5.65,5.02,2.60,3.44,3.44,3.45
384.13,-2.01,-2.01,-5.47,-5.47,5.50,4.85,2.60,3.49,3.48,3.46
387.97,-1.82,-1.82,-5.29,-5.29,5.32,4.68,2.61,3.50,3.50,3.47
391.85,-1.62,-1.62,-5.10,-5.10,5.13,4.52,2.62,3.51,3.51,3.48
395.77,-1.42,-1.42,-4.92,-4.91,4.93,4.37,2.63,3.51,3.51,3.50
399.73,-1.22,-1.22,-4.73,-4.73,4.73,4.21,2.65,3.51,3.51,3.51
403.72,-1.02,-1.02,-4.54,-4.54,4.54,4.07,2.66,3.52,3.52,3.51
407.76,-0.83,-0.83,-4.35,-4.35,4.35,3.93,2.68,3.52,3.53,3.52
411.84,-0.63,-0.63,-4.17,-4.17,4.17,3.80,2.70,3.54,3.54,3.54
415.96,-0.44,-0.44,-3.99,-3.99,3.99,3.67,2.71,3.55,3.55,3.55
420.12,-0.26,-0.26,-3.82,-3.82,3.82,3.55,2.73,3.55,3.56,3.56
424.32,-0.07,-0.08,-3.64,-3.64,3.64,3.44,2.75,3.57,3.57,3.57
428.56,0.10,0.10,-3.48,-3.48,3.48,3.33,2.78,3.58,3.58,3.58
432.85,0.27,0.27,-3.32,-3.32,3.32,3.22,2.80,3.59,3.59,3.59
437.18,0.43,0.43,-3.17,-3.17,3.17,3.13,2.82,3.60,3.60,3.59
441.55,0.59,0.59,-3.03,-3.02,3.03,3.04,2.84,3.61,3.61,3.61
445.96,0.74,0.74,-2.88,-2.89,2.89,2.95,2.86,3.63,3.62,3.62
450.42,0.88,0.88,-2.75,-2.76,2.76,2.87,2.89,3.64,3.64,3.63
454.93,1.01,1.01,-2.64,-2.64,2.64,2.79,2.91,3.64,3.65,3.65
459.48,1.14,1.14,-2.52,-2.52,2.52,2.72,2.93,3.66,3.66,3.66
464.07,1.27,1.27,-2.41,-2.41,2.41,2.66,2.95,3.68,3.68,3.68
468.71,1.39,1.39,-2.31,-2.31,2.31,2.59,2.97,3.70,3.69,3.70
473.40,1.50,1.50,-2.21,-2.21,2.21,2.54,2.99,3.71,3.71,3.71
478.13,1.61,1.61,-2.12,-2.12,2.12,2.48,3.01,3.72,3.72,3.73
482.91,1.71,1.71,-2.03,-2.03,2.03,2.43,3.03,3.74,3.74,3.74
487.74,1.81,1.81,-1.95,-1.95,1.95,2.39,3.04,3.75,3.75,3.76
492.62,1.90,1.90,-1.88,-1.87,1.87,2.35,3.06,3.77,3.77,3.78
497.55,1.99,1.99,-1.80,-1.80,1.80,2.31,3.07,3.79,3.79,3.78
502.52,2.07,2.07,-1.74,-1.73,1.74,2.28,3.08,3.81,3.80,3.80
507.55,2.14,2.14,-1.67,-1.68,1.68,2.24,3.09,3.82,3.82,3.81
512.62,2.20,2.20,-1.63,-1.63,1.63,2.22,3.10,3.83,3.83,3.83
517.75,2.26,2.26,-1.59,-1.59,1.59,2.19,3.11,3.85,3.85,3.85
522.93,2.31,2.31,-1.56,-1.56,1.56,2.17,3.11,3.87,3.87,3.87
528.16,2.35,2.35,-1.53,-1.54,1.54,2.15,3.12,3.89,3.89,3.88
533.44,2.38,2.38,-1.52,-1.52,1.52,2.14,3.12,3.90,3.90,3.90
538.77,2.40,2.40,-1.52,-1.52,1.52,2.13,3.13,3.92,3.92,3.92
544.16,2.42,2.42,-1.52,-1.52,1.52,2.11,3.13,3.94,3.94,3.94
549.60,2.43,2.43,-1.53,-1.53,1.53,2.11,3.13,3.96,3.96,3.96
555.10,2.43,2.43,-1.54,-1.55,1.55,2.10,3.14,3.98,3.97,3.97
