frequency,raw
20.00,-6.59
20.20,-6.50
20.40,-6.42
20.61,-6.33
20.81,-6.25
21.02,-6.16
21.23,-6.07
21.44,-5.98
21.66,-5.89
21.87,-5.80
22.09,-5.71
22.31,-5.62
22.54,-5.53
22.76,-5.44
22.99,-5.35
23.22,-5.27
23.45,-5.18
23.69,-5.09
23.92,-5.00
24.16,-4.91
24.40,-4.81
24.65,-4.72
24.89,-4.63
25.14,-4.54
25.39,-4.45
25.65,-4.35
25.91,-4.26
26.16,-4.17
26.43,-4.08
26.69,-3.99
26.96,-3.90
27.23,-3.81
27.50,-3.72
27.77,-3.63
28.05,-3.53
28.33,-3.44
28.62,-3.35
28.90,-3.26
29.19,-3.17
29.48,-3.08
29.78,-2.99
30.08,-2.90
30.38,-2.81
30.68,-2.72
30.99,-2.62
31.30,-2.53
31.61,-2.44
31.93,-2.35
32.24,-2.26
32.57,-2.18
32.89,-2.09
33.22,-2.00
33.55,-1.92
33.89,-1.84
34.23,-1.75
34.57,-1.67
34.92,-1.59
35.27,-1.51
35.62,-1.43
35.97,-1.35
36.33,-1.26
36.70,-1.18
37.06,-1.10
37.43,-1.01
37.81,-0.93
38.19,-0.85
38.57,-0.77
38.95,-0.69
39.34,-0.61
39.74,-0.52
40.14,-0.44
40.54,-0.36
40.94,-0.27
41.35,-0.19
41.76,-0.11
42.18,-0.03
42.60,0.05
43.03,0.13
43.46,0.20
43.90,0.28
44.33,0.36
44.78,0.43
45.23,0.51
45.68,0.58
46.13,0.65
46.60,0.73
47.06,0.80
47.53,0.85
48.01,0.91
48.49,0.96
48.97,1.01
49.46,1.04
49.96,1.08
50.46,1.11
50.96,1.15
51.47,1.17
51.99,1.20
52.51,1.23
53.03,1.25
53.56,1.28
54.10,1.30
54.64,1.33
55.18,1.35
55.74,1.38
56.29,1.40
56.86,1.42
57.42,1.44
58.00,1.46
58.58,1.49
59.16,1.51
59.76,1.53
60.35,1.55
60.96,1.57
61.57,1.58
62.18,1.59
62.80,1.61
63.43,1.62
64.07,1.64
64.71,1.65
65.35,1.67
66.01,1.68
66.67,1.69
67.33,1.69
68.01,1.69
68.69,1.68
69.37,1.68
70.07,1.67
70.77,1.67
71.48,1.67
72.19,1.67
72.91,1.67
73.64,1.67
74.38,1.67
75.12,1.68
75.87,1.69
76.63,1.69
77.40,1.68
78.17,1.67
78.95,1.66
79.74,1.64
80.54,1.62
81.35,1.60
82.16,1.57
82.98,1.54
83.81,1.52
84.65,1.48
85.50,1.46
86.35,1.43
87.22,1.42
88.09,1.40
88.97,1.38
89.86,1.35
90.76,1.33
91.66,1.32
92.58,1.30
93.51,1.29
94.44,1.28
95.39,1.26
96.34,1.22
97.30,1.17
98.28,1.13
99.26,1.07
100.25,1.02
101.25,0.97
102.27,0.92
103.29,0.90
104.32,0.86
105.37,0.81
106.42,0.76
107.48,0.73
108.56,0.69
109.64,0.64
110.74,0.58
111.85,0.52
112.97,0.47
114.10,0.43
115.24,0.37
116.39,0.34
117.55,0.28
118.73,0.20
119.92,0.13
121.12,0.07
122.33,0.03
123.55,-0.02
124.79,-0.11
126.03,-0.18
127.29,-0.22
128.57,-0.27
129.85,-0.34
131.15,-0.42
132.46,-0.46
133.79,-0.52
135.12,-0.59
136.48,-0.63
137.84,-0.69
139.22,-0.74
140.61,-0.81
142.02,-0.89
143.44,-0.93
144.87,-1.00
146.32,-1.04
147.78,-1.11
149.26,-1.16
150.75,-1.23
152.26,-1.28
153.78,-1.35
155.32,-1.39
156.88,-1.46
158.44,-1.52
160.03,-1.60
161.63,-1.66
163.24,-1.71
164.88,-1.77
166.53,-1.83
168.19,-1.90
169.87,-1.99
171.57,-2.05
173.29,-2.10
175.02,-2.18
176.77,-2.24
178.54,-2.30
180.32,-2.35
182.13,-2.40
183.95,-2.49
185.79,-2.54
187.65,-2.60
189.52,-2.66
191.42,-2.71
193.33,-2.77
195.27,-2.83
197.22,-2.89
199.19,-2.94
201.18,-3.00
203.19,-3.06
205.23,-3.13
207.28,-3.19
209.35,-3.24
211.44,-3.30
213.56,-3.36
215.69,-3.41
217.85,-3.47
220.03,-3.51
222.23,-3.56
224.45,-3.63
226.70,-3.71
228.96,-3.79
231.25,-3.84
233.57,-3.89
235.90,-3.94
238.26,-3.98
240.64,-4.04
243.05,-4.09
245.48,-4.15
247.93,-4.21
250.41,-4.24
252.92,-4.29
255.45,-4.33
258.00,-4.36
260.58,-4.39
263.19,-4.41
265.82,-4.44
268.48,-4.46
271.16,-4.48
273.87,-4.51
276.61,-4.52
279.38,-4.52
282.17,-4.51
284.99,-4.50
287.84,-4.48
290.72,-4.47
293.63,-4.47
296.57,-4.47
299.53,-4.48
302.53,-4.50
305.55,-4.53
308.61,-4.55
311.69,-4.59
314.81,-4.63
317.96,-4.69
321.14,-4.76
324.35,-4.84
327.59,-4.94
330.87,-5.01
334.18,-5.11
337.52,-5.21
340.90,-5.30
344.30,-5.39
347.75,-5.47
351.23,-5.56
354.74,-5.65
358.28,-5.76
361.87,-5.84
365.49,-5.95
369.14,-6.06
372.83,-6.15
376.56,-6.27
380.33,-6.37
384.13,-6.48
387.97,-6.58
391.85,-6.69
395.77,-6.80
399.73,-6.92
403.72,-7.02
407.76,-7.12
411.84,-7.22
415.96,-7.32
420.12,-7.41
424.32,-7.51
428.56,-7.60
432.85,-7.71
437.18,-7.82
441.55,-7.91
445.96,-8.01
450.42,-8.14
454.93,-8.25
459.48,-8.37
464.07,-8.48
468.71,-8.58
473.40,-8.72
478.13,-8.86
482.91,-8.99
487.74,-9.13
492.62,-9.29
497.55,-9.44
502.52,-9.59
507.55,-9.74
512.62,-9.91
517.75,-10.10
522.93,-10.31
528.16,-10.52
533.44,-10.70
538.77,-10.91
544.16,-11.15
549.60,-11.37
555.10,-11.62
560.65,-11.86
566.25,-12.11
571.92,-12.42
577.64,-12.70
583.41,-12.98
589.25,-13.27
595.14,-13.60
601.09,-13.90
607.10,-14.18
613.17,-14.42
619.30,-14.67
625.50,-14.90
631.75,-15.10
638.07,-15.27
644.45,-15.37
650.89,-15.43
657.40,-15.43
663.98,-15.38
670.62,-15.27
677.32,-15.12
684.10,-14.92
690.94,-14.64
697.85,-14.33
704.83,-13.97
711.87,-13.57
718.99,-13.19
726.18,-12.76
733.44,-12.27
740.78,-11.78
748.19,-11.33
755.67,-10.81
763.23,-10.32
770.86,-9.84
778.57,-9.31
786.35,-8.82
794.22,-8.34
802.16,-7.85
810.18,-7.36
818.28,-6.88
826.46,-6.41
834.73,-5.98
843.08,-5.55
851.51,-5.11
860.02,-4.71
868.62,-4.33
877.31,-3.91
886.08,-3.54
894.94,-3.19
903.89,-2.85
912.93,-2.50
922.06,-2.16
931.28,-1.84
940.59,-1.55
950.00,-1.27
959.50,-1.01
969.09,-0.73
978.78,-0.49
988.57,-0.26
998.46,-0.04
1008.44,0.18
1018.53,0.38
1028.71,0.56
1039.00,0.73
1049.39,0.87
1059.88,0.99
1070.48,1.09
1081.19,1.18
1092.00,1.25
1102.92,1.31
1113.95,1.35
1125.09,1.38
1136.34,1.39
1147.70,1.40
1159.18,1.39
1170.77,1.39
1182.48,1.39
1194.30,1.37
1206.25,1.34
1218.31,1.32
1230.49,1.29
1242.80,1.23
1255.22,1.17
1267.78,1.11
1280.45,1.02
1293.26,0.92
1306.19,0.81
1319.25,0.68
1332.45,0.53
1345.77,0.38
1359.23,0.22
1372.82,0.07
1386.55,-0.07
1400.41,-0.23
1414.42,-0.40
1428.56,-0.58
1442.85,-0.76
1457.28,-0.94
1471.85,-1.14
1486.57,-1.33
1501.43,-1.52
1516.45,-1.73
1531.61,-1.95
1546.93,-2.17
1562.40,-2.38
1578.02,-2.60
1593.80,-2.82
1609.74,-3.04
1625.84,-3.25
1642.10,-3.44
1658.52,-3.64
1675.10,-3.83
1691.85,-4.01
1708.77,-4.20
1725.86,-4.40
1743.12,-4.61
1760.55,-4.82
1778.15,-5.02
1795.94,-5.22
1813.90,-5.42
1832.03,-5.63
1850.36,-5.84
1868.86,-6.04
1887.55,-6.22
1906.42,-6.38
1925.49,-6.53
1944.74,-6.65
1964.19,-6.77
1983.83,-6.88
2003.67,-6.97
2023.71,-7.05
2043.94,-7.13
2064.38,-7.18
2085.03,-7.22
2105.88,-7.27
2126.94,-7.31
2148.20,-7.35
2169.69,-7.39
2191.38,-7.42
2213.30,-7.45
2235.43,-7.49
2257.78,-7.53
2280.36,-7.57
2303.17,-7.60
2326.20,-7.65
2349.46,-7.71
2372.95,-7.77
2396.68,-7.84
2420.65,-7.92
2444.86,-8.00
2469.31,-8.08
2494.00,-8.16
2518.94,-8.25
2544.13,-8.35
2569.57,-8.44
2595.27,-8.53
2621.22,-8.61
2647.43,-8.69
2673.90,-8.76
2700.64,-8.83
2727.65,-8.91
2754.93,-8.98
2782.48,-9.04
2810.30,-9.13
2838.40,-9.21
2866.79,-9.30
2895.46,-9.39
2924.41,-9.49
2953.65,-9.59
2983.19,-9.69
3013.02,-9.79
3043.15,-9.90
3073.58,-10.01
3104.32,-10.11
3135.36,-10.19
3166.72,-10.24
3198.38,-10.29
3230.37,-10.32
3262.67,-10.33
3295.30,-10.32
3328.25,-10.30
3361.53,-10.24
3395.15,-10.18
3429.10,-10.11
3463.39,-10.01
3498.03,-9.90
3533.01,-9.79
3568.34,-9.66
3604.02,-9.51
3640.06,-9.34
3676.46,-9.17
3713.22,-8.98
3750.36,-8.80
3787.86,-8.61
3825.74,-8.41
3864.00,-8.23
3902.64,-8.07
3941.66,-7.91
3981.08,-7.79
4020.89,-7.68
4061.10,-7.58
4101.71,-7.51
4142.73,-7.48
4184.15,-7.46
4226.00,-7.46
4268.26,-7.44
4310.94,-7.41
4354.05,-7.35
4397.59,-7.24
4441.56,-7.08
4485.98,-6.89
4530.84,-6.62
4576.15,-6.28
4621.91,-5.89
4668.13,-5.45
4714.81,-4.97
4761.96,-4.46
4809.58,-3.93
4857.67,-3.39
4906.25,-2.85
4955.31,-2.32
5004.87,-1.81
5054.91,-1.34
5105.46,-0.90
5156.52,-0.48
5208.08,-0.10
5260.16,0.27
5312.77,0.60
5365.89,0.90
5419.55,1.17
5473.75,1.42
5528.49,1.63
5583.77,1.83
5639.61,1.99
5696.00,2.12
5752.96,2.23
5810.49,2.29
5868.60,2.32
5927.28,2.32
5986.56,2.30
6046.42,2.27
6106.89,2.21
6167.96,2.11
6229.64,2.00
6291.93,1.86
6354.85,1.71
6418.40,1.55
6482.58,1.35
6547.41,1.13
6612.88,0.89
6679.01,0.61
6745.80,0.30
6813.26,-0.05
6881.39,-0.42
6950.21,-0.82
7019.71,-1.24
7089.91,-1.67
7160.81,-2.13
7232.41,-2.61
7304.74,-3.11
7377.79,-3.62
7451.56,-4.16
7526.08,-4.71
7601.34,-5.30
7677.35,-5.91
7754.13,-6.53
7831.67,-7.18
7909.98,-7.86
7989.08,-8.58
8068.98,-9.31
8149.67,-10.06
8231.16,-10.81
8313.47,-11.55
8396.61,-12.24
8480.57,-12.88
8565.38,-13.47
8651.03,-13.96
8737.54,-14.37
8824.92,-14.67
8913.17,-14.86
9002.30,-14.95
9092.32,-14.95
9183.25,-14.85
9275.08,-14.67
9367.83,-14.41
9461.51,-14.10
9556.12,-13.77
9651.68,-13.42
9748.20,-13.07
9845.68,-12.73
9944.14,-12.40
10043.58,-12.09
10144.02,-11.79
10245.46,-11.50
10347.91,-11.22
10451.39,-10.95
10555.91,-10.68
10661.46,-10.42
10768.08,-10.16
10875.76,-9.91
10984.52,-9.66
11094.36,-9.43
11205.31,-9.21
11317.36,-9.01
11430.53,-8.82
11544.84,-8.66
11660.29,-8.54
11776.89,-8.46
11894.66,-8.40
12013.60,-8.37
12133.74,-8.37
12255.08,-8.39
12377.63,-8.44
12501.41,-8.51
12626.42,-8.61
12752.68,-8.72
12880.21,-8.86
13009.01,-9.03
13139.10,-9.23
13270.49,-9.46
13403.20,-9.73
13537.23,-10.02
13672.60,-10.34
13809.33,-10.71
13947.42,-11.10
14086.90,-11.52
14227.77,-11.97
14370.04,-12.44
14513.74,-12.90
14658.88,-13.36
14805.47,-13.80
14953.52,-14.23
15103.06,-14.62
15254.09,-14.97
15406.63,-15.28
15560.70,-15.54
15716.30,-15.77
15873.47,-15.97
16032.20,-16.14
16192.52,-16.29
16354.45,-16.42
16517.99,-16.55
16683.17,-16.70
16850.01,-16.87
17018.51,-17.08
17188.69,-17.33
17360.58,-17.62
17534.18,-17.97
17709.53,-18.38
17886.62,-18.83
18065.49,-19.33
18246.14,-19.87
18428.60,-20.44
18612.89,-21.06
18799.02,-21.71
18987.01,-22.41
19176.88,-23.16
19368.65,-23.94
19562.33,-24.77
19757.96,-25.64
19955.54,-26.56
