frequency,raw,error,smoothed,error_smoothed,equalization,parametric_eq,equalized_raw,equalized_smoothed,target
20,-13.38,-16.58,-13.28,-16.45,6.00,2.94,-7.38,-7.28,3.20
21,-12.69,-15.89,-12.64,-15.82,6.00,3.37,-6.69,-6.64,3.20
22,-12.00,-15.20,-12.02,-15.20,6.00,3.84,-6.00,-6.02,3.20
23,-11.32,-14.52,-11.42,-14.60,6.00,4.36,-5.32,-5.42,3.20
24,-10.79,-13.98,-10.83,-14.01,6.00,4.90,-4.79,-4.83,3.19
25,-10.26,-13.45,-10.27,-13.45,6.00,5.46,-4.26,-4.27,3.19
26,-9.68,-12.87,-9.72,-12.90,6.00,6.03,-3.68,-3.72,3.19
27,-9.20,-12.38,-9.19,-12.37,6.00,6.57,-3.20,-3.19,3.18
28,-8.62,-11.80,-8.68,-11.86,6.00,7.06,-2.62,-2.68,3.18
29,-8.18,-11.35,-8.19,-11.36,6.00,7.45,-2.18,-2.19,3.18
30,-7.68,-10.85,-7.71,-10.88,6.00,7.71,-1.68,-1.71,3.17
31,-7.25,-10.41,-7.27,-10.43,6.00,7.84,-1.25,-1.27,3.17
32,-6.83,-9.99,-6.85,-9.99,6.00,7.81,-0.83,-0.85,3.16
33,-6.44,-9.59,-6.44,-9.58,6.00,7.66,-0.44,-0.44,3.15
34,-6.07,-9.22,-6.03,-9.17,6.00,7.41,-0.07,-0.03,3.15
35,-5.71,-8.85,-5.65,-8.78,6.00,7.10,0.29,0.35,3.14
36,-5.34,-8.47,-5.28,-8.40,6.00,6.74,0.66,0.72,3.13
37,-4.89,-8.01,-4.92,-8.03,6.00,6.38,1.11,1.08,3.12
38,-4.57,-7.68,-4.58,-7.68,6.00,6.02,1.43,1.42,3.11
39,-4.23,-7.33,-4.24,-7.33,6.00,5.68,1.77,1.76,3.10
40,-3.92,-7.01,-3.91,-7.00,6.00,5.35,2.08,2.09,3.09
41,-3.62,-6.70,-3.60,-6.68,6.00,5.05,2.38,2.40,3.08
42,-3.25,-6.32,-3.30,-6.36,5.94,4.77,2.69,2.65,3.07
43,-3.05,-6.10,-3.01,-6.06,5.82,4.52,2.77,2.81,3.06
44,-2.75,-5.79,-2.73,-5.77,5.64,4.29,2.90,2.91,3.04
45,-2.43,-5.46,-2.47,-5.50,5.44,4.08,3.01,2.96,3.03
46,-2.17,-5.18,-2.23,-5.23,5.21,3.90,3.04,2.99,3.01
47,-1.99,-4.98,-1.99,-4.98,4.98,3.73,2.99,2.98,3.00
48,-1.76,-4.74,-1.76,-4.73,4.73,3.58,2.98,2.97,2.98
49,-1.57,-4.53,-1.55,-4.50,4.50,3.44,2.93,2.95,2.96
50,-1.40,-4.34,-1.34,-4.28,4.28,3.32,2.88,2.94,2.94
51,-1.18,-4.10,-1.15,-4.07,4.07,3.21,2.89,2.92,2.92
52,-0.99,-3.89,-0.98,-3.87,3.87,3.11,2.88,2.89,2.90
53,-0.79,-3.67,-0.81,-3.68,3.68,3.02,2.89,2.87,2.88
54,-0.63,-3.49,-0.65,-3.49,3.49,2.93,2.86,2.84,2.86
55,-0.45,-3.28,-0.49,-3.32,3.32,2.85,2.87,2.82,2.83
56,-0.33,-3.14,-0.35,-3.15,3.15,2.78,2.82,2.80,2.81
57,-0.19,-2.97,-0.21,-2.98,2.98,2.70,2.79,2.78,2.78
58,-0.13,-2.89,-0.08,-2.83,2.83,2.63,2.70,2.75,2.76
59,0.07,-2.66,0.04,-2.68,2.68,2.56,2.75,2.73,2.73
60,0.08,-2.62,0.16,-2.54,2.54,2.49,2.62,2.70,2.70
61,0.22,-2.45,0.27,-2.40,2.40,2.42,2.63,2.67,2.67
62,0.37,-2.27,0.36,-2.27,2.27,2.34,2.64,2.64,2.64
63,0.57,-2.04,0.46,-2.15,2.15,2.27,2.72,2.61,2.61
64,0.57,-2.01,0.54,-2.02,2.02,2.19,2.60,2.57,2.58
65,0.57,-1.98,0.63,-1.91,1.91,2.12,2.48,2.53,2.55
66,0.77,-1.75,0.71,-1.79,1.79,2.04,2.56,2.50,2.52
67,0.77,-1.71,0.80,-1.67,1.67,1.96,2.44,2.47,2.48
68,0.87,-1.58,0.89,-1.55,1.55,1.88,2.42,2.44,2.45
69,0.97,-1.44,0.97,-1.44,1.44,1.80,2.41,2.40,2.41
70,0.97,-1.41,1.05,-1.32,1.32,1.71,2.29,2.37,2.38
71,1.11,-1.23,1.12,-1.20,1.20,1.63,2.31,2.32,2.34
72,1.18,-1.12,1.20,-1.09,1.09,1.55,2.27,2.28,2.30
73,1.22,-1.04,1.28,-0.97,0.97,1.47,2.19,2.25,2.26
74,1.38,-0.85,1.36,-0.86,0.86,1.39,2.24,2.22,2.23
75,1.48,-0.71,1.43,-0.75,0.75,1.31,2.23,2.18,2.19
76,1.56,-0.59,1.50,-0.64,0.64,1.23,2.20,2.14,2.15
77,1.58,-0.53,1.56,-0.54,0.54,1.15,2.12,2.10,2.11
78,1.58,-0.49,1.62,-0.44,0.44,1.07,2.03,2.07,2.07
79,1.68,-0.35,1.67,-0.35,0.35,1.00,2.04,2.03,2.03
80,1.75,-0.24,1.72,-0.27,0.27,0.92,2.02,1.99,1.99
81,1.78,-0.17,1.76,-0.19,0.19,0.85,1.97,1.95,1.95
82,1.78,-0.12,1.79,-0.12,0.12,0.77,1.90,1.91,1.91
83,1.78,-0.08,1.81,-0.05,0.05,0.70,1.83,1.86,1.86
84,1.78,-0.04,1.83,0.01,-0.01,0.63,1.77,1.82,1.82
85,1.88,0.10,1.85,0.07,-0.07,0.56,1.81,1.77,1.78
86,1.88,0.14,1.86,0.13,-0.13,0.49,1.75,1.73,1.74
87,1.88,0.18,1.87,0.18,-0.18,0.42,1.70,1.70,1.70
88,1.88,0.22,1.88,0.23,-0.23,0.36,1.65,1.66,1.66
89,1.88,0.27,1.89,0.28,-0.28,0.29,1.61,1.61,1.61
90,1.88,0.31,1.89,0.32,-0.32,0.23,1.56,1.57,1.57
91,1.89,0.36,1.89,0.37,-0.37,0.16,1.53,1.53,1.53
92,1.89,0.40,1.90,0.41,-0.41,0.10,1.48,1.49,1.49
93,1.89,0.44,1.90,0.45,-0.45,0.04,1.44,1.45,1.45
94,1.89,0.48,1.90,0.49,-0.49,-0.03,1.40,1.41,1.41
95,1.89,0.52,1.89,0.52,-0.52,-0.09,1.37,1.36,1.37
96,1.88,0.55,1.88,0.56,-0.56,-0.15,1.32,1.32,1.33
97,1.88,0.59,1.88,0.60,-0.60,-0.21,1.29,1.29,1.29
98,1.87,0.62,1.87,0.63,-0.63,-0.26,1.24,1.25,1.25
99,1.86,0.65,1.86,0.65,-0.65,-0.32,1.21,1.21,1.21
100,1.84,0.67,1.84,0.68,-0.68,-0.38,1.16,1.16,1.17
101,1.83,0.70,1.82,0.70,-0.70,-0.43,1.13,1.12,1.13
102,1.81,0.72,1.80,0.72,-0.72,-0.49,1.09,1.08,1.10
104,1.78,0.76,1.77,0.73,-0.73,-0.59,1.05,1.03,1.02
105,1.76,0.78,1.73,0.74,-0.74,-0.64,1.02,0.99,0.99
106,1.73,0.78,1.70,0.75,-0.75,-0.69,0.98,0.95,0.95
107,1.71,0.80,1.67,0.76,-0.76,-0.74,0.95,0.90,0.91
108,1.59,0.71,1.64,0.77,-0.77,-0.78,0.82,0.87,0.88
109,1.56,0.72,1.61,0.78,-0.78,-0.83,0.78,0.83,0.84
110,1.55,0.74,1.59,0.79,-0.79,-0.87,0.76,0.80,0.81
111,1.53,0.76,1.56,0.80,-0.80,-0.91,0.73,0.76,0.78
112,1.52,0.78,1.53,0.81,-0.81,-0.95,0.71,0.72,0.74
113,1.51,0.80,1.51,0.82,-0.82,-0.99,0.69,0.69,0.71
114,1.50,0.82,1.50,0.84,-0.84,-1.02,0.66,0.66,0.68
115,1.50,0.85,1.49,0.86,-0.86,-1.05,0.64,0.64,0.66
117,1.50,0.90,1.49,0.87,-0.87,-1.11,0.63,0.61,0.60
118,1.51,0.93,1.48,0.89,-0.89,-1.14,0.62,0.59,0.58
119,1.48,0.93,1.47,0.91,-0.91,-1.16,0.58,0.56,0.55
120,1.40,0.87,1.45,0.92,-0.92,-1.18,0.48,0.53,0.53
121,1.41,0.90,1.43,0.93,-0.93,-1.20,0.48,0.50,0.51
123,1.45,0.98,1.41,0.94,-0.94,-1.23,0.52,0.47,0.47
124,1.46,1.01,1.39,0.94,-0.94,-1.24,0.52,0.45,0.45
125,1.41,0.97,1.38,0.95,-0.95,-1.25,0.46,0.43,0.44
126,1.35,0.93,1.36,0.95,-0.95,-1.26,0.40,0.41,0.42
128,1.24,0.86,1.34,0.95,-0.95,-1.27,0.29,0.39,0.39
129,1.25,0.88,1.32,0.95,-0.95,-1.27,0.30,0.36,0.37
130,1.27,0.91,1.29,0.95,-0.95,-1.27,0.32,0.34,0.36
131,1.28,0.94,1.27,0.95,-0.95,-1.27,0.33,0.32,0.34
133,1.28,0.97,1.26,0.95,-0.95,-1.26,0.33,0.30,0.31
134,1.29,1.00,1.23,0.95,-0.95,-1.25,0.34,0.28,0.29
135,1.30,1.02,1.20,0.95,-0.95,-1.24,0.35,0.25,0.28
137,1.19,0.95,1.18,0.95,-0.95,-1.22,0.24,0.23,0.24
138,1.08,0.85,1.16,0.95,-0.95,-1.21,0.13,0.21,0.23
140,1.10,0.91,1.15,0.95,-0.95,-1.18,0.15,0.20,0.20
141,1.10,0.92,1.13,0.95,-0.95,-1.16,0.15,0.18,0.18
142,1.10,0.93,1.11,0.95,-0.95,-1.15,0.15,0.16,0.17
144,1.10,0.97,1.07,0.94,-0.94,-1.11,0.16,0.13,0.13
145,1.07,0.95,1.04,0.94,-0.94,-1.10,0.13,0.10,0.12
147,0.96,0.87,1.01,0.93,-0.93,-1.06,0.03,0.08,0.09
148,0.99,0.91,0.98,0.92,-0.92,-1.04,0.07,0.06,0.08
150,1.04,0.99,0.96,0.92,-0.92,-1.00,0.12,0.04,0.05
151,0.96,0.92,0.94,0.91,-0.91,-0.99,0.05,0.04,0.04
153,0.90,0.89,0.92,0.90,-0.90,-0.95,0.00,0.03,0.02
154,0.90,0.90,0.89,0.89,-0.89,-0.93,0.02,0.00,0.01
156,0.76,0.78,0.85,0.87,-0.87,-0.89,-0.11,-0.02,-0.02
157,0.76,0.79,0.82,0.86,-0.86,-0.87,-0.10,-0.04,-0.03
159,0.80,0.85,0.79,0.85,-0.85,-0.83,-0.05,-0.06,-0.05
160,0.83,0.89,0.76,0.83,-0.83,-0.81,-0.00,-0.07,-0.06
162,0.80,0.88,0.73,0.82,-0.82,-0.78,-0.02,-0.09,-0.08
164,0.69,0.79,0.70,0.81,-0.81,-0.74,-0.12,-0.11,-0.10
165,0.69,0.80,0.67,0.80,-0.80,-0.72,-0.11,-0.13,-0.11
167,0.59,0.72,0.64,0.79,-0.79,-0.69,-0.20,-0.14,-0.13
169,0.55,0.71,0.62,0.77,-0.77,-0.66,-0.22,-0.16,-0.15
170,0.57,0.74,0.59,0.76,-0.76,-0.64,-0.19,-0.17,-0.17
172,0.60,0.79,0.56,0.75,-0.75,-0.61,-0.15,-0.19,-0.19
174,0.58,0.78,0.52,0.73,-0.73,-0.58,-0.15,-0.21,-0.20
175,0.50,0.71,0.49,0.72,-0.72,-0.56,-0.21,-0.23,-0.21
177,0.45,0.68,0.47,0.70,-0.70,-0.53,-0.25,-0.23,-0.23
179,0.45,0.69,0.44,0.68,-0.68,-0.50,-0.23,-0.23,-0.24
181,0.39,0.64,0.42,0.66,-0.66,-0.48,-0.27,-0.24,-0.25
183,0.34,0.59,0.39,0.64,-0.64,-0.45,-0.30,-0.24,-0.25
184,0.38,0.62,0.37,0.61,-0.61,-0.44,-0.23,-0.24,-0.24
186,0.35,0.59,0.34,0.59,-0.59,-0.41,-0.24,-0.25,-0.24
188,0.30,0.54,0.31,0.56,-0.56,-0.39,-0.26,-0.25,-0.24
190,0.31,0.54,0.29,0.53,-0.53,-0.36,-0.22,-0.24,-0.23
192,0.35,0.57,0.28,0.51,-0.51,-0.34,-0.16,-0.23,-0.22
194,0.29,0.51,0.26,0.48,-0.48,-0.32,-0.19,-0.22,-0.22
196,0.14,0.35,0.24,0.45,-0.45,-0.30,-0.31,-0.22,-0.21
198,0.15,0.36,0.21,0.43,-0.43,-0.27,-0.27,-0.21,-0.21
200,0.18,0.38,0.19,0.40,-0.40,-0.25,-0.22,-0.21,-0.20
202,0.18,0.38,0.16,0.37,-0.37,-0.24,-0.19,-0.21,-0.20
204,0.21,0.41,0.13,0.35,-0.35,-0.22,-0.14,-0.22,-0.20
206,0.17,0.37,0.11,0.33,-0.33,-0.20,-0.15,-0.22,-0.20
208,0.09,0.30,0.09,0.30,-0.30,-0.18,-0.21,-0.22,-0.21
210,0.01,0.23,0.05,0.29,-0.29,-0.16,-0.28,-0.23,-0.21
212,-0.03,0.19,0.03,0.27,-0.27,-0.15,-0.30,-0.24,-0.22
214,-0.02,0.21,0.01,0.25,-0.25,-0.13,-0.27,-0.24,-0.23
216,-0.02,0.22,-0.00,0.24,-0.24,-0.11,-0.26,-0.24,-0.24
218,-0.03,0.22,-0.03,0.22,-0.22,-0.10,-0.25,-0.25,-0.25
221,-0.03,0.23,-0.05,0.21,-0.21,-0.08,-0.23,-0.26,-0.26
223,-0.03,0.23,-0.08,0.19,-0.19,-0.06,-0.22,-0.27,-0.26
225,-0.07,0.20,-0.10,0.17,-0.17,-0.05,-0.24,-0.27,-0.27
227,-0.17,0.10,-0.12,0.15,-0.15,-0.03,-0.32,-0.28,-0.27
229,-0.16,0.10,-0.14,0.14,-0.14,-0.02,-0.29,-0.27,-0.26
232,-0.08,0.18,-0.15,0.12,-0.12,-0.00,-0.20,-0.27,-0.26
234,-0.14,0.11,-0.15,0.10,-0.10,0.01,-0.24,-0.25,-0.25
236,-0.20,0.04,-0.17,0.08,-0.08,0.02,-0.28,-0.25,-0.24
239,-0.19,0.04,-0.18,0.06,-0.06,0.04,-0.25,-0.24,-0.23
241,-0.29,-0.07,-0.19,0.04,-0.04,0.05,-0.33,-0.23,-0.22
244,-0.27,-0.06,-0.20,0.02,-0.02,0.07,-0.28,-0.21,-0.20
246,-0.22,-0.03,-0.21,-0.01,0.01,0.08,-0.21,-0.20,-0.19
248,-0.20,-0.03,-0.23,-0.04,0.04,0.09,-0.16,-0.19,-0.17
251,-0.19,-0.03,-0.24,-0.07,0.07,0.11,-0.12,-0.17,-0.16
253,-0.14,0.01,-0.27,-0.11,0.11,0.12,-0.03,-0.16,-0.14
256,-0.23,-0.09,-0.30,-0.15,0.15,0.13,-0.08,-0.15,-0.14
259,-0.38,-0.25,-0.33,-0.19,0.19,0.15,-0.19,-0.14,-0.13
261,-0.35,-0.23,-0.36,-0.23,0.23,0.16,-0.12,-0.13,-0.12
264,-0.37,-0.25,-0.39,-0.28,0.28,0.17,-0.09,-0.12,-0.12
266,-0.51,-0.39,-0.44,-0.32,0.32,0.18,-0.19,-0.12,-0.12
269,-0.51,-0.39,-0.49,-0.36,0.36,0.20,-0.14,-0.13,-0.12
272,-0.50,-0.38,-0.54,-0.41,0.41,0.21,-0.09,-0.14,-0.12
274,-0.56,-0.44,-0.58,-0.44,0.44,0.22,-0.12,-0.14,-0.12
277,-0.63,-0.51,-0.61,-0.47,0.47,0.23,-0.15,-0.13,-0.12
280,-0.66,-0.54,-0.63,-0.50,0.50,0.25,-0.16,-0.13,-0.12
283,-0.66,-0.54,-0.64,-0.51,0.51,0.26,-0.15,-0.13,-0.11
286,-0.67,-0.56,-0.63,-0.51,0.51,0.27,-0.16,-0.12,-0.11
288,-0.68,-0.58,-0.62,-0.51,0.51,0.28,-0.17,-0.11,-0.10
291,-0.69,-0.60,-0.60,-0.50,0.50,0.29,-0.19,-0.10,-0.09
294,-0.58,-0.50,-0.58,-0.49,0.49,0.31,-0.09,-0.09,-0.08
297,-0.51,-0.44,-0.56,-0.47,0.47,0.32,-0.04,-0.08,-0.07
300,-0.49,-0.43,-0.53,-0.46,0.46,0.34,-0.03,-0.07,-0.06
303,-0.48,-0.43,-0.50,-0.44,0.44,0.35,-0.04,-0.06,-0.05
306,-0.47,-0.43,-0.47,-0.42,0.42,0.36,-0.04,-0.04,-0.04
309,-0.45,-0.42,-0.45,-0.41,0.41,0.38,-0.04,-0.03,-0.03
312,-0.36,-0.34,-0.43,-0.41,0.41,0.39,0.05,-0.03,-0.02
316,-0.38,-0.36,-0.42,-0.41,0.41,0.41,0.03,-0.01,-0.02
319,-0.45,-0.44,-0.42,-0.42,0.42,0.42,-0.03,-0.01,-0.01
322,-0.45,-0.44,-0.43,-0.43,0.43,0.44,-0.02,-0.00,-0.01
325,-0.45,-0.44,-0.46,-0.45,0.45,0.45,0.00,-0.00,-0.01
328,-0.45,-0.44,-0.48,-0.48,0.48,0.47,0.03,-0.00,-0.01
332,-0.55,-0.54,-0.51,-0.51,0.51,0.49,-0.04,-0.00,-0.01
335,-0.56,-0.55,-0.55,-0.55,0.55,0.50,-0.01,-0.00,-0.01
338,-0.56,-0.55,-0.60,-0.59,0.59,0.52,0.03,-0.01,-0.01
342,-0.60,-0.59,-0.64,-0.62,0.62,0.54,0.03,-0.02,-0.00
345,-0.66,-0.66,-0.68,-0.66,0.66,0.56,0.00,-0.02,-0.00
349,-0.74,-0.74,-0.72,-0.70,0.70,0.58,-0.04,-0.02,-0.00
352,-0.76,-0.76,-0.74,-0.73,0.73,0.59,-0.03,-0.02,0.00
356,-0.78,-0.79,-0.76,-0.75,0.75,0.62,-0.03,-0.01,0.01
359,-0.85,-0.86,-0.77,-0.77,0.77,0.63,-0.08,-0.00,0.01
363,-0.85,-0.87,-0.78,-0.78,0.78,0.66,-0.06,0.00,0.02
366,-0.84,-0.87,-0.78,-0.80,0.80,0.67,-0.04,0.02,0.03
370,-0.83,-0.87,-0.78,-0.80,0.80,0.70,-0.03,0.02,0.04
374,-0.74,-0.78,-0.78,-0.81,0.81,0.72,0.07,0.03,0.04
377,-0.72,-0.77,-0.78,-0.81,0.81,0.74,0.09,0.03,0.05
381,-0.71,-0.77,-0.77,-0.81,0.81,0.76,0.10,0.04,0.06
385,-0.70,-0.77,-0.76,-0.81,0.81,0.79,0.11,0.05,0.07
389,-0.70,-0.77,-0.76,-0.81,0.81,0.81,0.12,0.06,0.07
393,-0.74,-0.81,-0.76,-0.82,0.82,0.84,0.08,0.06,0.08
397,-0.79,-0.87,-0.76,-0.82,0.82,0.86,0.03,0.07,0.08
401,-0.80,-0.88,-0.76,-0.83,0.83,0.89,0.03,0.07,0.08
405,-0.80,-0.88,-0.77,-0.84,0.84,0.91,0.04,0.07,0.08
409,-0.80,-0.88,-0.78,-0.85,0.85,0.94,0.05,0.07,0.08
413,-0.80,-0.88,-0.80,-0.86,0.86,0.96,0.06,0.06,0.08
417,-0.81,-0.89,-0.81,-0.88,0.88,0.98,0.07,0.07,0.08
421,-0.80,-0.89,-0.81,-0.89,0.89,1.01,0.09,0.08,0.09
425,-0.80,-0.90,-0.80,-0.90,0.90,1.03,0.10,0.10,0.10
430,-0.79,-0.91,-0.79,-0.91,0.91,1.06,0.13,0.12,0.12
434,-0.77,-0.91,-0.77,-0.93,0.93,1.08,0.16,0.16,0.14
438,-0.74,-0.91,-0.75,-0.94,0.94,1.11,0.21,0.19,0.17
443,-0.77,-0.98,-0.73,-0.96,0.96,1.13,0.19,0.23,0.21
447,-0.76,-1.02,-0.71,-0.98,0.98,1.16,0.22,0.27,0.26
451,-0.71,-1.02,-0.69,-1.00,1.00,1.18,0.29,0.31,0.31
456,-0.65,-1.01,-0.66,-1.03,1.03,1.20,0.38,0.36,0.36
460,-0.59,-1.01,-0.63,-1.05,1.05,1.22,0.46,0.42,0.42
465,-0.59,-1.07,-0.60,-1.08,1.08,1.24,0.49,0.48,0.48
470,-0.57,-1.11,-0.57,-1.10,1.10,1.26,0.54,0.54,0.54
474,-0.52,-1.12,-0.54,-1.13,1.13,1.28,0.61,0.59,0.60
479,-0.56,-1.21,-0.51,-1.15,1.15,1.29,0.60,0.64,0.65
484,-0.51,-1.21,-0.48,-1.18,1.18,1.31,0.67,0.69,0.70
489,-0.47,-1.22,-0.46,-1.20,1.20,1.33,0.73,0.74,0.75
494,-0.43,-1.22,-0.44,-1.22,1.22,1.34,0.79,0.78,0.79
499,-0.40,-1.22,-0.43,-1.24,1.24,1.35,0.84,0.81,0.83
504,-0.38,-1.23,-0.43,-1.25,1.25,1.36,0.87,0.83,0.85
509,-0.41,-1.28,-0.42,-1.27,1.27,1.37,0.86,0.85,0.87
514,-0.45,-1.33,-0.41,-1.28,1.28,1.38,0.83,0.86,0.88
519,-0.45,-1.33,-0.42,-1.29,1.29,1.39,0.84,0.87,0.88
524,-0.45,-1.33,-0.44,-1.30,1.30,1.39,0.85,0.86,0.88
529,-0.46,-1.32,-0.46,-1.31,1.31,1.40,0.86,0.86,0.86
535,-0.48,-1.32,-0.50,-1.33,1.33,1.40,0.85,0.83,0.84
540,-0.51,-1.32,-0.54,-1.35,1.35,1.41,0.84,0.81,0.82
545,-0.55,-1.33,-0.59,-1.37,1.37,1.41,0.82,0.78,0.78
551,-0.60,-1.35,-0.65,-1.40,1.40,1.41,0.80,0.74,0.75
556,-0.65,-1.37,-0.71,-1.42,1.42,1.41,0.77,0.71,0.72
562,-0.80,-1.48,-0.77,-1.45,1.45,1.42,0.66,0.69,0.68
568,-0.85,-1.51,-0.83,-1.49,1.49,1.42,0.64,0.66,0.66
573,-0.89,-1.52,-0.88,-1.52,1.52,1.42,0.63,0.64,0.63
579,-0.96,-1.57,-0.94,-1.55,1.55,1.42,0.59,0.62,0.61
585,-1.05,-1.65,-0.98,-1.58,1.58,1.42,0.53,0.60,0.60
591,-1.07,-1.67,-1.02,-1.61,1.61,1.42,0.54,0.60,0.60
596,-1.07,-1.67,-1.04,-1.64,1.64,1.42,0.57,0.60,0.60
602,-1.07,-1.68,-1.06,-1.66,1.66,1.43,0.59,0.61,0.61
608,-1.06,-1.69,-1.06,-1.68,1.68,1.43,0.62,0.62,0.63
615,-1.04,-1.69,-1.05,-1.70,1.70,1.43,0.66,0.65,0.65
621,-1.02,-1.70,-1.03,-1.71,1.71,1.44,0.69,0.68,0.68
627,-1.00,-1.71,-1.01,-1.72,1.72,1.44,0.72,0.71,0.71
633,-0.97,-1.72,-0.97,-1.73,1.73,1.45,0.76,0.76,0.75
639,-0.93,-1.73,-0.93,-1.73,1.73,1.45,0.80,0.80,0.80
646,-0.90,-1.75,-0.88,-1.74,1.74,1.46,0.84,0.85,0.85
652,-0.85,-1.75,-0.84,-1.74,1.74,1.47,0.89,0.90,0.90
659,-0.81,-1.76,-0.79,-1.74,1.74,1.48,0.93,0.95,0.95
665,-0.76,-1.76,-0.75,-1.75,1.75,1.49,0.99,1.00,1.00
672,-0.70,-1.75,-0.71,-1.75,1.75,1.50,1.05,1.04,1.05
679,-0.65,-1.75,-0.67,-1.75,1.75,1.52,1.10,1.09,1.10
686,-0.61,-1.75,-0.63,-1.76,1.76,1.53,1.15,1.13,1.14
692,-0.57,-1.75,-0.60,-1.76,1.76,1.55,1.19,1.16,1.18
699,-0.54,-1.75,-0.57,-1.76,1.76,1.57,1.22,1.19,1.21
706,-0.53,-1.77,-0.55,-1.77,1.77,1.59,1.24,1.22,1.24
713,-0.52,-1.77,-0.53,-1.78,1.78,1.61,1.26,1.24,1.25
721,-0.53,-1.79,-0.53,-1.78,1.78,1.63,1.25,1.26,1.26
728,-0.55,-1.81,-0.53,-1.79,1.79,1.65,1.24,1.26,1.26
735,-0.56,-1.82,-0.54,-1.80,1.80,1.68,1.24,1.27,1.26
742,-0.50,-1.76,-0.55,-1.81,1.81,1.70,1.32,1.27,1.26
750,-0.53,-1.79,-0.55,-1.83,1.83,1.73,1.30,1.27,1.26
757,-0.56,-1.82,-0.56,-1.84,1.84,1.76,1.28,1.27,1.26
765,-0.58,-1.85,-0.58,-1.85,1.85,1.79,1.27,1.27,1.27
773,-0.60,-1.87,-0.58,-1.85,1.85,1.82,1.25,1.27,1.27
780,-0.61,-1.89,-0.57,-1.86,1.86,1.85,1.25,1.28,1.28
788,-0.61,-1.90,-0.57,-1.86,1.86,1.88,1.25,1.29,1.29
796,-0.58,-1.89,-0.55,-1.85,1.85,1.91,1.27,1.30,1.31
804,-0.51,-1.83,-0.53,-1.84,1.84,1.94,1.34,1.32,1.33
812,-0.51,-1.85,-0.50,-1.83,1.83,1.97,1.32,1.33,1.34
820,-0.50,-1.86,-0.47,-1.82,1.82,2.01,1.32,1.35,1.36
828,-0.50,-1.87,-0.44,-1.80,1.80,2.04,1.30,1.36,1.38
837,-0.40,-1.79,-0.40,-1.78,1.78,2.07,1.38,1.38,1.39
845,-0.30,-1.70,-0.37,-1.76,1.76,2.10,1.46,1.39,1.40
853,-0.30,-1.71,-0.33,-1.74,1.74,2.13,1.44,1.41,1.42
862,-0.30,-1.72,-0.30,-1.72,1.72,2.16,1.42,1.42,1.42
871,-0.22,-1.65,-0.27,-1.70,1.70,2.19,1.48,1.43,1.43
879,-0.22,-1.65,-0.25,-1.69,1.69,2.21,1.47,1.43,1.44
888,-0.23,-1.67,-0.23,-1.67,1.67,2.23,1.44,1.44,1.44
897,-0.23,-1.67,-0.21,-1.66,1.66,2.25,1.43,1.45,1.45
906,-0.24,-1.69,-0.19,-1.64,1.64,2.27,1.40,1.45,1.45
915,-0.18,-1.64,-0.17,-1.63,1.63,2.29,1.45,1.46,1.46
924,-0.15,-1.61,-0.16,-1.62,1.62,2.30,1.47,1.46,1.46
933,-0.15,-1.62,-0.15,-1.61,1.61,2.30,1.46,1.47,1.47
943,-0.16,-1.64,-0.13,-1.60,1.60,2.31,1.45,1.48,1.48
952,-0.15,-1.64,-0.11,-1.60,1.60,2.30,1.45,1.49,1.49
962,-0.05,-1.55,-0.09,-1.59,1.59,2.30,1.54,1.50,1.50
971,-0.04,-1.55,-0.07,-1.58,1.58,2.28,1.54,1.51,1.51
981,-0.03,-1.55,-0.05,-1.57,1.57,2.27,1.54,1.53,1.53
991,-0.01,-1.55,-0.02,-1.57,1.57,2.24,1.56,1.54,1.54
1001,0.00,-1.56,0.00,-1.56,1.56,2.22,1.56,1.56,1.56
1011,0.02,-1.56,0.02,-1.56,1.56,2.18,1.58,1.58,1.58
1021,0.04,-1.56,0.05,-1.55,1.55,2.14,1.59,1.60,1.60
1031,0.07,-1.56,0.09,-1.54,1.54,2.10,1.61,1.63,1.63
1041,0.10,-1.55,0.12,-1.54,1.54,2.05,1.64,1.66,1.65
1052,0.14,-1.54,0.15,-1.53,1.53,1.99,1.67,1.68,1.68
1062,0.18,-1.53,0.18,-1.52,1.52,1.94,1.70,1.70,1.71
1073,0.22,-1.52,0.22,-1.51,1.51,1.87,1.73,1.73,1.74
1084,0.27,-1.50,0.26,-1.50,1.50,1.80,1.77,1.76,1.77
1094,0.32,-1.48,0.31,-1.48,1.48,1.73,1.81,1.79,1.80
1105,0.38,-1.45,0.36,-1.47,1.47,1.65,1.85,1.83,1.83
1116,0.45,-1.41,0.42,-1.44,1.44,1.57,1.89,1.86,1.86
1128,0.44,-1.46,0.48,-1.42,1.42,1.48,1.86,1.90,1.90
1139,0.49,-1.44,0.54,-1.39,1.39,1.39,1.88,1.93,1.93
1150,0.57,-1.40,0.60,-1.36,1.36,1.30,1.93,1.96,1.97
1162,0.66,-1.34,0.67,-1.33,1.33,1.20,1.99,2.00,2.00
1173,0.75,-1.29,0.74,-1.29,1.29,1.11,2.04,2.04,2.04
1185,0.85,-1.23,0.83,-1.25,1.25,1.00,2.10,2.08,2.08
1197,0.95,-1.16,0.91,-1.21,1.21,0.90,2.16,2.12,2.11
1209,0.98,-1.17,0.99,-1.16,1.16,0.80,2.15,2.16,2.15
1221,1.06,-1.13,1.07,-1.11,1.11,0.69,2.18,2.19,2.19
1233,1.11,-1.11,1.15,-1.06,1.06,0.59,2.17,2.21,2.22
1246,1.24,-1.01,1.23,-1.00,1.00,0.47,2.24,2.24,2.25
1258,1.36,-0.91,1.31,-0.94,0.94,0.36,2.30,2.25,2.28
1271,1.46,-0.83,1.40,-0.87,0.87,0.25,2.33,2.27,2.29
1283,1.51,-0.80,1.48,-0.79,0.79,0.14,2.30,2.28,2.31
1296,1.61,-0.70,1.57,-0.71,0.71,0.03,2.32,2.28,2.31
1309,1.61,-0.70,1.66,-0.62,0.62,-0.09,2.23,2.28,2.31
1322,1.66,-0.64,1.76,-0.53,0.53,-0.20,2.19,2.28,2.30
1335,1.76,-0.53,1.86,-0.43,0.43,-0.32,2.19,2.29,2.29
1349,1.91,-0.37,1.95,-0.32,0.32,-0.44,2.23,2.27,2.28
1362,2.06,-0.20,2.04,-0.21,0.21,-0.56,2.27,2.25,2.26
1376,2.21,-0.03,2.13,-0.09,0.09,-0.68,2.30,2.22,2.24
1390,2.34,0.12,2.23,0.03,-0.03,-0.80,2.32,2.20,2.22
1404,2.35,0.15,2.34,0.14,-0.14,-0.92,2.21,2.19,2.20
1418,2.44,0.26,2.45,0.26,-0.26,-1.04,2.18,2.19,2.18
1432,2.57,0.40,2.56,0.38,-0.38,-1.17,2.19,2.18,2.17
1446,2.69,0.53,2.68,0.49,-0.49,-1.29,2.20,2.19,2.16
1461,2.71,0.56,2.79,0.60,-0.60,-1.41,2.11,2.19,2.16
1475,2.76,0.60,2.89,0.71,-0.71,-1.53,2.05,2.18,2.16
1490,2.95,0.79,2.99,0.82,-0.82,-1.66,2.13,2.17,2.16
1505,3.14,0.97,3.09,0.93,-0.93,-1.79,2.21,2.16,2.17
1520,3.27,1.10,3.19,1.03,-1.03,-1.92,2.24,2.16,2.18
1535,3.37,1.18,3.29,1.13,-1.13,-2.04,2.24,2.16,2.19
1550,3.44,1.24,3.40,1.22,-1.22,-2.17,2.22,2.17,2.20
1566,3.51,1.29,3.50,1.31,-1.31,-2.30,2.20,2.20,2.22
1582,3.59,1.35,3.61,1.39,-1.39,-2.43,2.20,2.22,2.24
1597,3.69,1.42,3.72,1.46,-1.46,-2.55,2.23,2.26,2.27
1613,3.75,1.45,3.83,1.53,-1.53,-2.68,2.22,2.29,2.30
1629,3.86,1.53,3.91,1.60,-1.60,-2.81,2.26,2.32,2.33
1646,4.02,1.65,3.98,1.66,-1.66,-2.94,2.36,2.32,2.37
1662,4.13,1.72,4.06,1.73,-1.73,-3.06,2.40,2.33,2.42
1679,4.26,1.79,4.14,1.81,-1.81,-3.19,2.45,2.34,2.47
1696,4.39,1.87,4.24,1.89,-1.89,-3.31,2.50,2.35,2.52
1713,4.52,1.93,4.35,1.99,-1.99,-3.43,2.54,2.37,2.59
1730,4.56,1.90,4.49,2.09,-2.09,-3.55,2.47,2.40,2.66
1747,4.59,1.84,4.67,2.21,-2.21,-3.66,2.38,2.46,2.75
1764,4.73,1.89,4.90,2.36,-2.36,-3.76,2.37,2.54,2.84
1782,4.93,2.00,5.20,2.54,-2.54,-3.87,2.39,2.66,2.93
1800,5.23,2.20,5.54,2.74,-2.74,-3.97,2.49,2.80,3.04
1818,5.68,2.54,5.89,2.98,-2.98,-4.06,2.70,2.91,3.14
1836,6.12,2.87,6.27,3.24,-3.24,-4.14,2.88,3.03,3.25
1854,6.55,3.19,6.67,3.53,-3.53,-4.22,3.02,3.14,3.36
1873,7.21,3.74,7.11,3.84,-3.84,-4.29,3.37,3.27,3.47
1892,7.72,4.14,7.58,4.15,-4.15,-4.35,3.57,3.43,3.58
