frequency,raw
20,-0.36
21,-0.09
22,0.17
23,0.42
24,0.66
25,0.89
26,1.11
27,1.33
28,1.53
29,1.72
30,1.90
31,2.07
32,2.23
33,2.39
34,2.53
35,2.66
36,2.79
37,2.90
38,3.00
39,3.09
40,3.15
41,3.20
42,3.23
43,3.25
44,3.23
45,3.20
46,3.13
47,3.04
48,2.92
49,2.76
50,2.59
51,2.41
52,2.24
53,2.06
54,1.87
55,1.71
56,1.58
57,1.47
58,1.38
59,1.32
60,1.31
61,1.32
62,1.35
63,1.41
64,1.48
65,1.57
66,1.67
67,1.77
68,1.86
69,1.94
70,2.01
71,2.07
72,2.13
73,2.18
74,2.22
75,2.26
76,2.30
77,2.34
78,2.38
79,2.44
80,2.48
81,2.52
82,2.56
83,2.63
84,2.69
85,2.76
86,2.83
87,2.90
88,2.97
89,3.03
90,3.11
91,3.20
92,3.28
93,3.36
94,3.44
95,3.52
96,3.60
97,3.69
98,3.77
99,3.85
100,3.92
101,4.01
102,4.08
104,4.14
105,4.20
106,4.27
107,4.34
108,4.41
109,4.48
110,4.55
111,4.60
112,4.65
113,4.69
114,4.74
115,4.80
117,4.85
118,4.89
119,4.94
120,4.98
121,5.03
123,5.07
124,5.09
125,5.10
126,5.11
128,5.14
129,5.18
130,5.21
131,5.24
133,5.27
134,5.29
135,5.31
137,5.34
138,5.38
140,5.41
141,5.44
142,5.47
144,5.50
145,5.52
147,5.53
148,5.54
150,5.54
151,5.52
153,5.52
154,5.51
156,5.52
157,5.53
159,5.54
160,5.54
162,5.52
164,5.51
165,5.49
167,5.46
169,5.43
170,5.39
172,5.37
174,5.34
175,5.32
177,5.28
179,5.24
181,5.20
183,5.17
184,5.14
186,5.11
188,5.07
190,5.04
192,5.00
194,4.96
196,4.90
198,4.83
200,4.77
202,4.70
204,4.63
206,4.56
208,4.49
210,4.41
212,4.33
214,4.24
216,4.15
218,4.06
221,3.96
223,3.87
225,3.76
227,3.65
229,3.53
232,3.43
234,3.32
236,3.20
239,3.08
241,2.96
244,2.83
246,2.70
248,2.58
251,2.44
253,2.30
256,2.18
259,2.06
261,1.93
264,1.80
266,1.67
269,1.53
272,1.40
274,1.27
277,1.15
280,1.03
283,0.90
286,0.77
288,0.63
291,0.50
294,0.35
297,0.21
300,0.08
303,-0.07
306,-0.21
309,-0.33
312,-0.46
316,-0.61
319,-0.76
322,-0.90
325,-1.04
328,-1.19
332,-1.33
335,-1.47
338,-1.62
342,-1.78
345,-1.93
349,-2.07
352,-2.21
356,-2.36
359,-2.49
363,-2.61
366,-2.73
370,-2.84
374,-2.95
377,-3.04
381,-3.14
385,-3.22
389,-3.28
393,-3.33
397,-3.39
401,-3.45
405,-3.51
409,-3.56
413,-3.62
417,-3.66
421,-3.69
425,-3.71
430,-3.73
434,-3.73
438,-3.72
443,-3.72
447,-3.73
451,-3.72
456,-3.70
460,-3.67
465,-3.63
470,-3.59
474,-3.54
479,-3.48
484,-3.44
489,-3.40
494,-3.34
499,-3.28
504,-3.22
509,-3.15
514,-3.07
519,-2.99
524,-2.90
529,-2.82
535,-2.74
540,-2.66
545,-2.58
551,-2.49
556,-2.41
562,-2.32
568,-2.24
573,-2.16
579,-2.08
585,-2.00
591,-1.92
596,-1.84
602,-1.77
608,-1.69
615,-1.62
621,-1.55
627,-1.48
633,-1.42
639,-1.35
646,-1.27
652,-1.19
659,-1.12
665,-1.07
672,-1.00
679,-0.93
686,-0.86
692,-0.79
699,-0.72
706,-0.65
713,-0.59
721,-0.53
728,-0.50
735,-0.47
742,-0.43
750,-0.39
757,-0.35
765,-0.32
773,-0.28
780,-0.23
788,-0.19
796,-0.16
804,-0.14
812,-0.12
820,-0.08
828,-0.05
837,-0.03
845,-0.01
853,0.01
862,0.02
871,0.02
879,0.02
888,0.01
897,0.00
906,0.00
915,0.00
924,-0.00
933,0.00
943,0.00
952,0.00
962,0.00
971,0.00
981,0.00
991,0.00
1001,0.00
1011,0.00
1021,0.00
1031,0.00
1041,0.00
1052,0.00
1062,0.00
1073,0.00
1084,0.00
1094,-0.01
1105,-0.01
1116,-0.02
1128,-0.02
1139,-0.01
1150,-0.00
1162,0.01
1173,0.03
1185,0.05
1197,0.09
1209,0.13
1221,0.18
1233,0.24
1246,0.30
1258,0.36
1271,0.42
1283,0.47
1296,0.52
1309,0.55
1322,0.58
1335,0.60
1349,0.63
1362,0.67
1376,0.70
1390,0.73
1404,0.74
1418,0.74
1432,0.74
1446,0.74
1461,0.75
1475,0.75
1490,0.74
1505,0.74
1520,0.73
1535,0.73
1550,0.72
1566,0.70
1582,0.67
1597,0.65
1613,0.63
1629,0.61
1646,0.59
1662,0.56
1679,0.53
1696,0.47
1713,0.41
1730,0.34
1747,0.26
1764,0.17
1782,0.09
1800,0.00
1818,-0.09
1836,-0.18
1854,-0.27
1873,-0.36
1892,-0.45
1911,-0.56
1930,-0.66
1949,-0.75
1969,-0.84
1988,-0.93
2008,-1.01
2028,-1.08
2048,-1.14
2069,-1.21
2090,-1.26
2111,-1.30
2132,-1.32
2153,-1.34
2175,-1.33
2196,-1.31
2218,-1.29
2240,-1.25
2263,-1.19
2285,-1.11
2308,-1.04
2331,-0.96
2355,-0.88
2378,-0.79
2402,-0.69
2426,-0.59
2450,-0.49
2475,-0.40
2500,-0.31
2525,-0.24
2550,-0.18
2575,-0.12
2601,-0.08
2627,-0.05
2653,-0.03
2680,-0.01
2707,0.01
2734,0.03
2761,0.05
2789,0.05
2817,0.03
2845,0.01
2873,-0.02
2902,-0.05
2931,-0.08
2960,-0.11
2990,-0.15
3020,-0.18
3050,-0.21
3080,-0.26
3111,-0.30
3142,-0.33
3174,-0.36
3206,-0.39
3238,-0.41
3270,-0.40
3303,-0.36
3336,-0.31
3369,-0.22
3403,-0.09
3437,0.06
3471,0.25
3506,0.47
3541,0.72
3576,1.03
3612,1.36
3648,1.74
3685,2.14
3721,2.56
3759,2.97
3796,3.40
3834,3.83
3873,4.22
3911,4.59
3950,4.95
3990,5.28
4030,5.59
4070,5.86
4111,6.10
4152,6.31
4193,6.48
4235,6.62
4278,6.72
4321,6.79
4364,6.83
4407,6.84
4451,6.83
4496,6.79
4541,6.71
4586,6.60
4632,6.45
4679,6.26
4725,6.02
4773,5.75
4820,5.44
4868,5.11
4917,4.75
4966,4.36
5016,3.96
5066,3.55
5117,3.14
5168,2.71
5220,2.29
5272,1.87
5325,1.47
5378,1.09
5432,0.73
5486,0.41
5541,0.11
5596,-0.15
5652,-0.37
5709,-0.58
5766,-0.75
5823,-0.88
5882,-0.97
5940,-1.01
6000,-1.03
6060,-1.02
6120,-0.99
6182,-0.93
6244,-0.84
6306,-0.73
6369,-0.58
6433,-0.42
6497,-0.25
6562,-0.07
6628,0.11
6694,0.28
6761,0.44
6828,0.59
6897,0.72
6966,0.82
7035,0.92
7106,1.00
7177,1.05
7249,1.07
7321,1.06
7394,1.03
7468,0.97
7543,0.91
7618,0.82
7694,0.73
7771,0.61
7849,0.48
7928,0.33
8007,0.16
8087,-0.02
8168,-0.21
8250,-0.41
8332,-0.61
8415,-0.81
8499,-1.00
8584,-1.21
8670,-1.41
8757,-1.62
8845,-1.82
8933,-2.02
9022,-2.21
9113,-2.39
9204,-2.55
9296,-2.71
9389,-2.85
9483,-2.97
9577,-3.06
9673,-3.14
9770,-3.21
9868,-3.27
9966,-3.29
10066,-3.30
10167,-3.30
10268,-3.28
10371,-3.26
10475,-3.23
10579,-3.19
10685,-3.14
10792,-3.09
10900,-3.02
11009,-2.94
11119,-2.83
11230,-2.71
11343,-2.57
11456,-2.41
11571,-2.22
11686,-2.02
11803,-1.81
11921,-1.60
12040,-1.37
12161,-1.15
12282,-0.95
12405,-0.78
12529,-0.62
12655,-0.49
12781,-0.41
12909,-0.36
13038,-0.36
13168,-0.39
13300,-0.47
13433,-0.58
13567,-0.73
13703,-0.89
13840,-1.08
13978,-1.26
14118,-1.46
14259,-1.67
14402,-1.89
14546,-2.15
14692,-2.42
14838,-2.73
14987,-3.09
15137,-3.45
15288,-3.83
15441,-4.20
15595,-4.58
15751,-4.95
15909,-5.29
16068,-5.60
16229,-5.88
16391,-6.13
16555,-6.35
16720,-6.53
16888,-6.68
17056,-6.83
17227,-6.97
17399,-7.11
17573,-7.28
17749,-7.48
17926,-7.72
18106,-7.98
18287,-8.26
18470,-8.55
18654,-8.85
18841,-9.18
19029,-9.53
19220,-9.90
19412,-10.28
19606,-10.69
19802,-11.11
20000,-11.55
