frequency,raw,error,smoothed,error_smoothed,equalization,parametric_eq,equalized_raw,equalized_smoothed,target
20,-0.23,-0.34,-0.24,-0.33,0.33,0.29,0.10,0.09,0.11
21,-0.20,-0.31,-0.19,-0.29,0.29,0.33,0.09,0.10,0.11
22,-0.18,-0.29,-0.16,-0.26,0.26,0.37,0.07,0.10,0.11
23,-0.15,-0.26,-0.13,-0.23,0.23,0.41,0.08,0.10,0.11
24,-0.12,-0.23,-0.11,-0.21,0.21,0.46,0.09,0.10,0.10
25,-0.10,-0.20,-0.10,-0.20,0.20,0.50,0.09,0.10,0.10
26,-0.07,-0.17,-0.09,-0.19,0.19,0.55,0.12,0.10,0.10
27,-0.07,-0.17,-0.10,-0.19,0.19,0.59,0.12,0.10,0.09
28,-0.08,-0.17,-0.11,-0.20,0.20,0.62,0.12,0.09,0.09
29,-0.08,-0.17,-0.13,-0.21,0.21,0.65,0.13,0.09,0.09
30,-0.11,-0.19,-0.16,-0.24,0.24,0.66,0.13,0.08,0.08
31,-0.15,-0.23,-0.20,-0.28,0.28,0.67,0.13,0.07,0.08
32,-0.23,-0.30,-0.26,-0.33,0.33,0.66,0.10,0.07,0.07
33,-0.31,-0.37,-0.32,-0.38,0.38,0.65,0.07,0.06,0.06
34,-0.40,-0.46,-0.39,-0.44,0.44,0.63,0.04,0.04,0.06
35,-0.48,-0.53,-0.47,-0.50,0.50,0.60,0.02,0.03,0.05
36,-0.56,-0.60,-0.54,-0.56,0.56,0.58,0.00,0.02,0.04
37,-0.64,-0.67,-0.61,-0.62,0.62,0.55,-0.02,0.01,0.03
38,-0.71,-0.73,-0.67,-0.67,0.67,0.52,-0.04,0.00,0.02
39,-0.76,-0.77,-0.73,-0.72,0.72,0.50,-0.04,-0.01,0.01
40,-0.79,-0.79,-0.77,-0.76,0.76,0.47,-0.04,-0.02,0.00
41,-0.82,-0.81,-0.81,-0.78,0.78,0.45,-0.04,-0.03,-0.01
42,-0.84,-0.82,-0.84,-0.80,0.80,0.44,-0.04,-0.04,-0.02
43,-0.86,-0.83,-0.86,-0.81,0.81,0.42,-0.05,-0.05,-0.03
44,-0.87,-0.82,-0.87,-0.81,0.81,0.41,-0.06,-0.06,-0.05
45,-0.87,-0.81,-0.88,-0.81,0.81,0.39,-0.06,-0.07,-0.06
46,-0.87,-0.79,-0.88,-0.80,0.80,0.39,-0.07,-0.08,-0.08
47,-0.88,-0.79,-0.88,-0.79,0.79,0.38,-0.09,-0.09,-0.09
48,-0.87,-0.76,-0.88,-0.78,0.78,0.37,-0.10,-0.11,-0.11
49,-0.88,-0.75,-0.88,-0.76,0.76,0.37,-0.12,-0.13,-0.13
50,-0.88,-0.73,-0.89,-0.74,0.74,0.37,-0.14,-0.15,-0.15
51,-0.88,-0.71,-0.89,-0.72,0.72,0.37,-0.16,-0.17,-0.17
52,-0.89,-0.70,-0.89,-0.71,0.71,0.37,-0.18,-0.19,-0.19
53,-0.89,-0.68,-0.90,-0.69,0.69,0.37,-0.20,-0.21,-0.21
54,-0.90,-0.67,-0.91,-0.67,0.67,0.37,-0.23,-0.24,-0.23
55,-0.91,-0.65,-0.92,-0.66,0.66,0.37,-0.26,-0.26,-0.26
56,-0.93,-0.65,-0.92,-0.64,0.64,0.37,-0.29,-0.29,-0.28
57,-0.93,-0.63,-0.93,-0.62,0.62,0.37,-0.31,-0.31,-0.31
58,-0.94,-0.61,-0.94,-0.60,0.60,0.37,-0.34,-0.34,-0.33
59,-0.95,-0.59,-0.94,-0.58,0.58,0.37,-0.38,-0.36,-0.36
60,-0.96,-0.57,-0.94,-0.55,0.55,0.37,-0.41,-0.39,-0.39
61,-0.97,-0.55,-0.95,-0.53,0.53,0.37,-0.44,-0.42,-0.42
62,-0.97,-0.53,-0.96,-0.51,0.51,0.37,-0.46,-0.45,-0.45
63,-0.96,-0.48,-0.97,-0.48,0.48,0.37,-0.48,-0.48,-0.48
64,-0.95,-0.44,-0.98,-0.46,0.46,0.37,-0.49,-0.51,-0.51
65,-0.96,-0.42,-0.99,-0.44,0.44,0.36,-0.52,-0.55,-0.54
66,-0.97,-0.40,-1.00,-0.42,0.42,0.36,-0.55,-0.58,-0.57
67,-1.00,-0.39,-1.01,-0.40,0.40,0.36,-0.60,-0.61,-0.61
68,-1.02,-0.38,-1.03,-0.38,0.38,0.35,-0.64,-0.65,-0.64
69,-1.05,-0.37,-1.04,-0.36,0.36,0.35,-0.69,-0.68,-0.68
70,-1.08,-0.37,-1.06,-0.34,0.34,0.34,-0.74,-0.72,-0.71
71,-1.10,-0.35,-1.08,-0.32,0.32,0.34,-0.78,-0.75,-0.75
72,-1.11,-0.32,-1.09,-0.30,0.30,0.33,-0.81,-0.79,-0.79
73,-1.12,-0.30,-1.11,-0.28,0.28,0.33,-0.84,-0.83,-0.82
74,-1.12,-0.26,-1.13,-0.26,0.26,0.32,-0.86,-0.87,-0.86
75,-1.13,-0.23,-1.14,-0.24,0.24,0.32,-0.90,-0.91,-0.90
76,-1.14,-0.20,-1.16,-0.21,0.21,0.32,-0.93,-0.95,-0.94
77,-1.17,-0.19,-1.17,-0.18,0.18,0.31,-0.99,-0.98,-0.98
78,-1.19,-0.17,-1.18,-0.16,0.16,0.31,-1.03,-1.02,-1.02
79,-1.20,-0.14,-1.19,-0.13,0.13,0.31,-1.07,-1.06,-1.06
80,-1.21,-0.11,-1.20,-0.10,0.10,0.30,-1.11,-1.10,-1.10
81,-1.21,-0.07,-1.22,-0.08,0.08,0.30,-1.14,-1.14,-1.14
82,-1.23,-0.05,-1.23,-0.05,0.05,0.30,-1.18,-1.18,-1.18
83,-1.24,-0.02,-1.25,-0.02,0.02,0.30,-1.22,-1.23,-1.23
84,-1.26,0.01,-1.27,0.00,-0.00,0.29,-1.26,-1.27,-1.27
85,-1.28,0.03,-1.29,0.02,-0.02,0.29,-1.30,-1.31,-1.31
86,-1.31,0.04,-1.31,0.05,-0.05,0.29,-1.36,-1.35,-1.35
87,-1.33,0.06,-1.33,0.07,-0.07,0.29,-1.40,-1.39,-1.39
88,-1.35,0.08,-1.35,0.09,-0.09,0.29,-1.44,-1.43,-1.43
89,-1.37,0.10,-1.37,0.11,-0.11,0.29,-1.48,-1.48,-1.47
90,-1.39,0.13,-1.39,0.12,-0.12,0.29,-1.51,-1.52,-1.52
91,-1.42,0.14,-1.42,0.14,-0.14,0.29,-1.56,-1.56,-1.56
92,-1.44,0.16,-1.44,0.16,-0.16,0.29,-1.60,-1.60,-1.60
93,-1.48,0.16,-1.47,0.17,-0.17,0.29,-1.65,-1.64,-1.64
94,-1.50,0.18,-1.50,0.18,-0.18,0.30,-1.68,-1.68,-1.68
95,-1.54,0.18,-1.53,0.19,-0.19,0.30,-1.73,-1.72,-1.72
96,-1.56,0.20,-1.56,0.20,-0.20,0.30,-1.76,-1.76,-1.76
97,-1.58,0.22,-1.60,0.20,-0.20,0.30,-1.79,-1.80,-1.80
98,-1.62,0.22,-1.64,0.21,-0.21,0.30,-1.83,-1.85,-1.84
99,-1.66,0.22,-1.68,0.21,-0.21,0.31,-1.87,-1.89,-1.88
100,-1.70,0.22,-1.72,0.21,-0.21,0.31,-1.91,-1.93,-1.92
101,-1.75,0.20,-1.76,0.21,-0.21,0.31,-1.96,-1.97,-1.96
102,-1.80,0.19,-1.81,0.21,-0.21,0.31,-2.01,-2.02,-1.99
104,-1.89,0.18,-1.85,0.20,-0.20,0.32,-2.10,-2.06,-2.07
105,-1.93,0.17,-1.90,0.20,-0.20,0.32,-2.13,-2.10,-2.10
106,-1.97,0.17,-1.94,0.19,-0.19,0.32,-2.17,-2.13,-2.14
107,-2.00,0.17,-1.98,0.19,-0.19,0.32,-2.19,-2.17,-2.18
108,-2.03,0.18,-2.03,0.18,-0.18,0.32,-2.21,-2.21,-2.21
109,-2.07,0.17,-2.08,0.17,-0.17,0.32,-2.24,-2.25,-2.24
110,-2.11,0.17,-2.13,0.16,-0.16,0.32,-2.27,-2.29,-2.28
111,-2.15,0.16,-2.18,0.14,-0.14,0.33,-2.30,-2.32,-2.31
112,-2.21,0.13,-2.23,0.13,-0.13,0.32,-2.34,-2.36,-2.34
113,-2.25,0.13,-2.28,0.11,-0.11,0.32,-2.36,-2.39,-2.38
114,-2.31,0.10,-2.33,0.09,-0.09,0.32,-2.41,-2.42,-2.41
115,-2.36,0.08,-2.38,0.08,-0.08,0.32,-2.44,-2.46,-2.44
117,-2.47,0.03,-2.44,0.06,-0.06,0.32,-2.53,-2.49,-2.50
118,-2.53,-0.00,-2.49,0.04,-0.04,0.31,-2.57,-2.53,-2.53
119,-2.58,-0.02,-2.55,0.02,-0.02,0.31,-2.60,-2.56,-2.56
120,-2.62,-0.03,-2.60,-0.01,0.01,0.31,-2.62,-2.60,-2.59
121,-2.65,-0.04,-2.66,-0.03,0.03,0.30,-2.62,-2.63,-2.61
123,-2.72,-0.05,-2.72,-0.05,0.05,0.29,-2.67,-2.67,-2.67
124,-2.75,-0.06,-2.77,-0.07,0.07,0.28,-2.68,-2.70,-2.69
125,-2.79,-0.07,-2.83,-0.09,0.09,0.27,-2.70,-2.74,-2.72
126,-2.83,-0.09,-2.88,-0.11,0.11,0.27,-2.72,-2.76,-2.75
128,-2.93,-0.14,-2.93,-0.13,0.13,0.25,-2.80,-2.79,-2.79
129,-2.99,-0.17,-2.97,-0.16,0.16,0.24,-2.83,-2.82,-2.82
130,-3.05,-0.21,-3.02,-0.18,0.18,0.23,-2.87,-2.85,-2.84
131,-3.09,-0.23,-3.07,-0.20,0.20,0.22,-2.89,-2.88,-2.86
133,-3.17,-0.26,-3.12,-0.22,0.22,0.19,-2.95,-2.91,-2.91
134,-3.18,-0.25,-3.18,-0.24,0.24,0.18,-2.94,-2.94,-2.93
135,-3.20,-0.25,-3.22,-0.26,0.26,0.17,-2.94,-2.97,-2.95
137,-3.24,-0.25,-3.27,-0.28,0.28,0.14,-2.96,-3.00,-2.99
138,-3.28,-0.27,-3.32,-0.29,0.29,0.13,-2.99,-3.02,-3.01
140,-3.35,-0.31,-3.35,-0.31,0.31,0.10,-3.04,-3.05,-3.04
141,-3.39,-0.33,-3.39,-0.32,0.32,0.09,-3.07,-3.07,-3.06
142,-3.43,-0.35,-3.42,-0.33,0.33,0.07,-3.10,-3.09,-3.08
144,-3.48,-0.37,-3.45,-0.34,0.34,0.04,-3.14,-3.11,-3.11
145,-3.51,-0.38,-3.48,-0.35,0.35,0.02,-3.16,-3.14,-3.13
147,-3.54,-0.38,-3.52,-0.36,0.36,-0.01,-3.19,-3.16,-3.16
148,-3.54,-0.36,-3.55,-0.36,0.36,-0.02,-3.18,-3.19,-3.18
150,-3.56,-0.35,-3.58,-0.37,0.37,-0.06,-3.19,-3.21,-3.21
151,-3.57,-0.35,-3.61,-0.37,0.37,-0.07,-3.20,-3.23,-3.22
153,-3.60,-0.35,-3.63,-0.38,0.38,-0.11,-3.22,-3.25,-3.25
154,-3.63,-0.37,-3.65,-0.38,0.38,-0.12,-3.25,-3.27,-3.26
156,-3.68,-0.39,-3.67,-0.38,0.38,-0.16,-3.30,-3.29,-3.29
157,-3.70,-0.40,-3.68,-0.37,0.37,-0.17,-3.33,-3.31,-3.30
159,-3.73,-0.41,-3.70,-0.37,0.37,-0.21,-3.36,-3.33,-3.32
160,-3.74,-0.41,-3.71,-0.37,0.37,-0.23,-3.37,-3.34,-3.33
162,-3.74,-0.39,-3.72,-0.36,0.36,-0.26,-3.38,-3.36,-3.36
164,-3.72,-0.34,-3.73,-0.35,0.35,-0.29,-3.37,-3.38,-3.38
165,-3.73,-0.34,-3.74,-0.34,0.34,-0.31,-3.39,-3.40,-3.39
167,-3.72,-0.31,-3.74,-0.33,0.33,-0.35,-3.39,-3.41,-3.41
169,-3.73,-0.31,-3.75,-0.32,0.32,-0.38,-3.41,-3.43,-3.43
170,-3.72,-0.29,-3.75,-0.30,0.30,-0.40,-3.42,-3.44,-3.43
172,-3.74,-0.29,-3.74,-0.29,0.29,-0.43,-3.45,-3.46,-3.45
174,-3.74,-0.27,-3.74,-0.27,0.27,-0.47,-3.47,-3.47,-3.47
175,-3.73,-0.25,-3.73,-0.25,0.25,-0.49,-3.48,-3.48,-3.48
177,-3.73,-0.24,-3.72,-0.22,0.22,-0.52,-3.51,-3.50,-3.49
179,-3.73,-0.22,-3.71,-0.20,0.20,-0.56,-3.53,-3.51,-3.51
181,-3.72,-0.20,-3.70,-0.17,0.17,-0.59,-3.55,-3.53,-3.52
183,-3.69,-0.16,-3.68,-0.14,0.14,-0.63,-3.55,-3.54,-3.53
184,-3.67,-0.13,-3.65,-0.10,0.10,-0.65,-3.57,-3.55,-3.54
186,-3.63,-0.08,-3.63,-0.07,0.07,-0.68,-3.56,-3.56,-3.55
188,-3.58,-0.02,-3.60,-0.03,0.03,-0.72,-3.55,-3.57,-3.57
190,-3.54,0.04,-3.57,0.02,-0.02,-0.75,-3.56,-3.58,-3.58
192,-3.51,0.08,-3.53,0.06,-0.06,-0.79,-3.57,-3.59,-3.59
194,-3.48,0.12,-3.50,0.11,-0.11,-0.82,-3.59,-3.60,-3.60
196,-3.45,0.16,-3.46,0.15,-0.15,-0.86,-3.60,-3.61,-3.61
198,-3.43,0.19,-3.42,0.20,-0.20,-0.89,-3.63,-3.62,-3.62
200,-3.39,0.24,-3.38,0.25,-0.25,-0.93,-3.64,-3.63,-3.63
202,-3.35,0.29,-3.34,0.31,-0.31,-0.96,-3.66,-3.64,-3.64
204,-3.30,0.34,-3.29,0.36,-0.36,-1.00,-3.66,-3.65,-3.65
206,-3.25,0.40,-3.24,0.42,-0.42,-1.03,-3.67,-3.66,-3.65
208,-3.20,0.46,-3.19,0.48,-0.48,-1.07,-3.68,-3.67,-3.66
210,-3.14,0.53,-3.13,0.54,-0.54,-1.10,-3.68,-3.67,-3.67
212,-3.08,0.59,-3.08,0.60,-0.60,-1.13,-3.68,-3.68,-3.68
214,-3.02,0.66,-3.02,0.66,-0.66,-1.16,-3.68,-3.69,-3.68
216,-2.96,0.73,-2.97,0.73,-0.73,-1.20,-3.69,-3.69,-3.69
218,-2.90,0.79,-2.91,0.79,-0.79,-1.23,-3.69,-3.70,-3.70
221,-2.82,0.88,-2.86,0.85,-0.85,-1.27,-3.67,-3.71,-3.70
223,-2.78,0.93,-2.81,0.91,-0.91,-1.30,-3.69,-3.71,-3.71
225,-2.74,0.97,-2.75,0.97,-0.97,-1.33,-3.71,-3.72,-3.72
227,-2.71,1.01,-2.70,1.03,-1.03,-1.36,-3.74,-3.73,-3.72
229,-2.67,1.05,-2.65,1.08,-1.08,-1.38,-3.75,-3.73,-3.73
232,-2.61,1.12,-2.60,1.14,-1.14,-1.42,-3.75,-3.74,-3.73
234,-2.56,1.18,-2.55,1.20,-1.20,-1.45,-3.76,-3.74,-3.74
236,-2.51,1.23,-2.49,1.26,-1.26,-1.47,-3.77,-3.75,-3.74
239,-2.43,1.32,-2.44,1.31,-1.31,-1.50,-3.74,-3.75,-3.75
241,-2.39,1.36,-2.39,1.37,-1.37,-1.52,-3.76,-3.76,-3.75
244,-2.31,1.45,-2.33,1.43,-1.43,-1.55,-3.74,-3.76,-3.76
246,-2.27,1.49,-2.28,1.49,-1.49,-1.56,-3.76,-3.77,-3.76
248,-2.22,1.54,-2.22,1.55,-1.55,-1.58,-3.77,-3.77,-3.77
251,-2.16,1.61,-2.16,1.61,-1.61,-1.60,-3.77,-3.77,-3.77
253,-2.11,1.66,-2.11,1.67,-1.67,-1.61,-3.78,-3.77,-3.77
256,-2.05,1.73,-2.05,1.72,-1.72,-1.63,-3.77,-3.78,-3.78
259,-1.99,1.79,-2.00,1.78,-1.78,-1.65,-3.77,-3.78,-3.78
261,-1.95,1.83,-1.95,1.84,-1.84,-1.66,-3.79,-3.78,-3.78
264,-1.90,1.89,-1.90,1.89,-1.89,-1.67,-3.79,-3.79,-3.79
266,-1.86,1.93,-1.85,1.94,-1.94,-1.68,-3.80,-3.79,-3.79
269,-1.80,1.99,-1.80,1.99,-1.99,-1.69,-3.79,-3.80,-3.79
272,-1.75,2.05,-1.76,2.04,-2.04,-1.70,-3.79,-3.80,-3.80
274,-1.72,2.08,-1.71,2.09,-2.09,-1.70,-3.81,-3.80,-3.80
277,-1.67,2.13,-1.67,2.13,-2.13,-1.71,-3.80,-3.80,-3.80
280,-1.63,2.18,-1.63,2.18,-2.18,-1.72,-3.81,-3.81,-3.81
283,-1.58,2.23,-1.59,2.22,-2.22,-1.72,-3.80,-3.81,-3.81
286,-1.54,2.27,-1.55,2.26,-2.26,-1.73,-3.80,-3.81,-3.81
288,-1.52,2.29,-1.51,2.30,-2.30,-1.73,-3.82,-3.81,-3.81
291,-1.48,2.34,-1.48,2.34,-2.34,-1.74,-3.82,-3.82,-3.82
294,-1.45,2.37,-1.44,2.37,-2.37,-1.75,-3.83,-3.82,-3.82
297,-1.41,2.41,-1.41,2.41,-2.41,-1.75,-3.82,-3.82,-3.82
300,-1.38,2.44,-1.38,2.44,-2.44,-1.76,-3.82,-3.82,-3.82
303,-1.35,2.47,-1.35,2.47,-2.47,-1.77,-3.82,-3.83,-3.83
306,-1.33,2.50,-1.33,2.50,-2.50,-1.77,-3.83,-3.83,-3.83
309,-1.30,2.53,-1.30,2.53,-2.53,-1.78,-3.83,-3.83,-3.83
312,-1.28,2.55,-1.28,2.55,-2.55,-1.79,-3.84,-3.83,-3.83
316,-1.25,2.58,-1.25,2.58,-2.58,-1.81,-3.83,-3.83,-3.83
319,-1.23,2.60,-1.23,2.60,-2.60,-1.82,-3.83,-3.83,-3.83
322,-1.21,2.63,-1.22,2.62,-2.62,-1.83,-3.83,-3.84,-3.84
325,-1.20,2.64,-1.20,2.64,-2.64,-1.84,-3.84,-3.84,-3.84
328,-1.19,2.65,-1.19,2.65,-2.65,-1.86,-3.85,-3.84,-3.84
332,-1.17,2.67,-1.17,2.67,-2.67,-1.88,-3.84,-3.84,-3.84
335,-1.16,2.68,-1.16,2.68,-2.68,-1.90,-3.84,-3.84,-3.84
338,-1.15,2.69,-1.15,2.69,-2.69,-1.91,-3.84,-3.84,-3.84
342,-1.15,2.69,-1.15,2.70,-2.70,-1.94,-3.85,-3.84,-3.85
345,-1.14,2.71,-1.14,2.70,-2.70,-1.96,-3.84,-3.85,-3.85
349,-1.14,2.71,-1.14,2.71,-2.71,-1.99,-3.85,-3.85,-3.85
352,-1.13,2.72,-1.14,2.71,-2.71,-2.01,-3.84,-3.85,-3.85
356,-1.14,2.71,-1.14,2.71,-2.71,-2.04,-3.85,-3.85,-3.85
359,-1.14,2.71,-1.14,2.71,-2.71,-2.07,-3.85,-3.85,-3.85
363,-1.15,2.70,-1.15,2.70,-2.70,-2.10,-3.86,-3.85,-3.85
366,-1.15,2.70,-1.15,2.70,-2.70,-2.13,-3.85,-3.85,-3.85
370,-1.16,2.69,-1.15,2.70,-2.70,-2.17,-3.86,-3.85,-3.85
374,-1.16,2.69,-1.16,2.70,-2.70,-2.21,-3.86,-3.86,-3.85
377,-1.16,2.69,-1.16,2.70,-2.70,-2.23,-3.86,-3.86,-3.86
381,-1.16,2.70,-1.16,2.70,-2.70,-2.28,-3.86,-3.86,-3.86
385,-1.16,2.70,-1.16,2.70,-2.70,-2.32,-3.86,-3.86,-3.86
389,-1.16,2.70,-1.16,2.70,-2.70,-2.36,-3.86,-3.86,-3.86
393,-1.16,2.70,-1.16,2.70,-2.70,-2.40,-3.87,-3.86,-3.86
397,-1.15,2.71,-1.15,2.71,-2.71,-2.45,-3.86,-3.86,-3.86
401,-1.15,2.71,-1.14,2.72,-2.72,-2.49,-3.87,-3.86,-3.86
405,-1.14,2.72,-1.13,2.73,-2.73,-2.54,-3.87,-3.86,-3.86
409,-1.12,2.74,-1.12,2.74,-2.74,-2.58,-3.86,-3.86,-3.86
413,-1.11,2.75,-1.11,2.76,-2.76,-2.62,-3.87,-3.86,-3.86
417,-1.09,2.77,-1.10,2.77,-2.77,-2.67,-3.86,-3.87,-3.86
421,-1.08,2.78,-1.08,2.79,-2.79,-2.71,-3.87,-3.87,-3.86
425,-1.06,2.80,-1.07,2.81,-2.81,-2.75,-3.87,-3.87,-3.87
430,-1.03,2.84,-1.05,2.83,-2.83,-2.81,-3.86,-3.88,-3.87
434,-1.02,2.85,-1.03,2.85,-2.85,-2.85,-3.87,-3.88,-3.87
438,-1.00,2.87,-1.00,2.88,-2.88,-2.89,-3.88,-3.88,-3.87
443,-0.98,2.89,-0.97,2.90,-2.90,-2.93,-3.88,-3.87,-3.87
447,-0.97,2.89,-0.94,2.93,-2.93,-2.97,-3.90,-3.87,-3.86
451,-0.95,2.91,-0.91,2.95,-2.95,-3.00,-3.90,-3.86,-3.86
456,-0.91,2.95,-0.89,2.97,-2.97,-3.04,-3.88,-3.86,-3.86
460,-0.88,2.97,-0.86,2.99,-2.99,-3.07,-3.87,-3.85,-3.85
465,-0.83,3.01,-0.84,3.00,-3.00,-3.10,-3.83,-3.84,-3.84
470,-0.79,3.04,-0.83,3.01,-3.01,-3.13,-3.80,-3.84,-3.83
474,-0.77,3.05,-0.82,3.01,-3.01,-3.15,-3.78,-3.83,-3.82
479,-0.76,3.05,-0.81,3.01,-3.01,-3.17,-3.77,-3.82,-3.81
484,-0.77,3.03,-0.80,3.00,-3.00,-3.19,-3.77,-3.80,-3.80
489,-0.80,2.99,-0.80,2.99,-2.99,-3.20,-3.79,-3.79,-3.79
494,-0.82,2.95,-0.81,2.97,-2.97,-3.20,-3.79,-3.77,-3.77
499,-0.84,2.92,-0.82,2.94,-2.94,-3.21,-3.78,-3.76,-3.76
504,-0.86,2.88,-0.83,2.91,-2.91,-3.20,-3.77,-3.75,-3.74
509,-0.87,2.85,-0.85,2.88,-2.88,-3.20,-3.75,-3.73,-3.72
514,-0.87,2.84,-0.87,2.85,-2.85,-3.19,-3.72,-3.72,-3.71
519,-0.88,2.81,-0.89,2.81,-2.81,-3.17,-3.69,-3.70,-3.69
524,-0.90,2.77,-0.91,2.77,-2.77,-3.16,-3.67,-3.68,-3.67
529,-0.92,2.73,-0.93,2.73,-2.73,-3.13,-3.65,-3.66,-3.65
535,-0.93,2.70,-0.94,2.69,-2.69,-3.11,-3.62,-3.64,-3.63
540,-0.95,2.66,-0.96,2.65,-2.65,-3.08,-3.61,-3.61,-3.61
545,-0.97,2.62,-0.97,2.62,-2.62,-3.05,-3.59,-3.59,-3.59
551,-1.00,2.56,-0.98,2.58,-2.58,-3.01,-3.58,-3.56,-3.56
556,-1.00,2.54,-1.00,2.54,-2.54,-2.98,-3.54,-3.54,-3.54
562,-1.01,2.50,-1.01,2.50,-2.50,-2.93,-3.52,-3.51,-3.51
568,-1.02,2.46,-1.02,2.47,-2.47,-2.89,-3.49,-3.49,-3.48
573,-1.02,2.43,-1.02,2.44,-2.44,-2.85,-3.46,-3.46,-3.45
579,-1.03,2.39,-1.02,2.41,-2.41,-2.80,-3.44,-3.43,-3.42
585,-1.02,2.37,-1.02,2.38,-2.38,-2.76,-3.40,-3.40,-3.39
591,-1.02,2.34,-1.02,2.35,-2.35,-2.71,-3.37,-3.37,-3.36
596,-1.01,2.32,-1.01,2.32,-2.32,-2.67,-3.34,-3.34,-3.33
602,-1.01,2.29,-1.00,2.30,-2.30,-2.62,-3.31,-3.31,-3.30
608,-0.99,2.28,-0.99,2.28,-2.28,-2.57,-3.27,-3.27,-3.27
615,-0.98,2.26,-0.98,2.26,-2.26,-2.52,-3.24,-3.24,-3.24
621,-0.97,2.24,-0.97,2.24,-2.24,-2.47,-3.22,-3.21,-3.21
627,-0.95,2.22,-0.95,2.23,-2.23,-2.43,-3.18,-3.18,-3.18
633,-0.94,2.20,-0.93,2.21,-2.21,-2.38,-3.15,-3.14,-3.14
639,-0.91,2.20,-0.92,2.19,-2.19,-2.34,-3.10,-3.11,-3.11
646,-0.90,2.18,-0.90,2.17,-2.17,-2.29,-3.08,-3.08,-3.08
652,-0.88,2.16,-0.89,2.16,-2.16,-2.25,-3.04,-3.04,-3.05
659,-0.86,2.15,-0.87,2.14,-2.14,-2.21,-3.00,-3.01,-3.01
665,-0.85,2.13,-0.86,2.12,-2.12,-2.17,-2.97,-2.97,-2.98
672,-0.84,2.10,-0.84,2.10,-2.10,-2.13,-2.94,-2.94,-2.94
679,-0.82,2.08,-0.83,2.07,-2.07,-2.09,-2.90,-2.90,-2.90
686,-0.81,2.06,-0.82,2.05,-2.05,-2.05,-2.86,-2.87,-2.87
692,-0.80,2.03,-0.80,2.03,-2.03,-2.02,-2.83,-2.83,-2.83
699,-0.79,2.00,-0.79,2.01,-2.01,-1.99,-2.80,-2.80,-2.79
706,-0.77,1.98,-0.77,1.99,-1.99,-1.96,-2.76,-2.76,-2.75
713,-0.76,1.95,-0.75,1.97,-1.97,-1.93,-2.73,-2.72,-2.71
721,-0.75,1.92,-0.73,1.95,-1.95,-1.89,-2.70,-2.68,-2.67
728,-0.72,1.91,-0.71,1.93,-1.93,-1.87,-2.65,-2.64,-2.63
735,-0.70,1.89,-0.68,1.91,-1.91,-1.84,-2.62,-2.60,-2.60
742,-0.66,1.90,-0.66,1.90,-1.90,-1.82,-2.56,-2.56,-2.56
750,-0.62,1.90,-0.64,1.87,-1.87,-1.79,-2.50,-2.52,-2.52
757,-0.60,1.88,-0.62,1.85,-1.85,-1.77,-2.45,-2.48,-2.48
765,-0.58,1.86,-0.61,1.83,-1.83,-1.75,-2.41,-2.44,-2.44
773,-0.57,1.83,-0.59,1.81,-1.81,-1.73,-2.38,-2.40,-2.40
780,-0.57,1.79,-0.58,1.78,-1.78,-1.72,-2.36,-2.37,-2.37
788,-0.56,1.77,-0.57,1.76,-1.76,-1.70,-2.32,-2.33,-2.33
796,-0.55,1.74,-0.56,1.74,-1.74,-1.69,-2.29,-2.30,-2.30
804,-0.56,1.70,-0.55,1.72,-1.72,-1.67,-2.28,-2.27,-2.26
812,-0.55,1.68,-0.54,1.70,-1.70,-1.66,-2.25,-2.24,-2.23
820,-0.55,1.64,-0.53,1.68,-1.68,-1.65,-2.23,-2.21,-2.20
828,-0.54,1.62,-0.51,1.67,-1.67,-1.64,-2.21,-2.18,-2.16
837,-0.51,1.62,-0.49,1.66,-1.66,-1.63,-2.17,-2.14,-2.13
845,-0.49,1.61,-0.46,1.65,-1.65,-1.62,-2.14,-2.11,-2.10
853,-0.44,1.63,-0.43,1.65,-1.65,-1.62,-2.09,-2.08,-2.07
862,-0.39,1.65,-0.39,1.65,-1.65,-1.61,-2.04,-2.05,-2.04
871,-0.34,1.67,-0.36,1.66,-1.66,-1.61,-2.00,-2.02,-2.01
879,-0.30,1.68,-0.32,1.67,-1.67,-1.60,-1.97,-1.99,-1.98
888,-0.26,1.69,-0.28,1.68,-1.68,-1.60,-1.94,-1.96,-1.95
897,-0.23,1.69,-0.24,1.69,-1.69,-1.59,-1.92,-1.93,-1.93
906,-0.20,1.70,-0.20,1.70,-1.70,-1.59,-1.90,-1.90,-1.90
915,-0.17,1.70,-0.17,1.71,-1.71,-1.59,-1.88,-1.87,-1.87
924,-0.14,1.70,-0.13,1.72,-1.72,-1.58,-1.86,-1.85,-1.84
933,-0.12,1.70,-0.10,1.72,-1.72,-1.58,-1.84,-1.82,-1.82
943,-0.09,1.70,-0.07,1.72,-1.72,-1.58,-1.81,-1.79,-1.79
952,-0.06,1.71,-0.05,1.71,-1.71,-1.58,-1.77,-1.76,-1.77
962,-0.04,1.70,-0.03,1.70,-1.70,-1.57,-1.74,-1.73,-1.74
971,-0.02,1.69,-0.03,1.68,-1.68,-1.57,-1.70,-1.70,-1.71
981,0.01,1.70,-0.03,1.65,-1.65,-1.57,-1.64,-1.68,-1.69
991,0.01,1.67,-0.04,1.61,-1.61,-1.57,-1.61,-1.65,-1.66
1001,-0.00,1.63,-0.06,1.57,-1.57,-1.57,-1.57,-1.63,-1.63
1011,-0.03,1.58,-0.08,1.52,-1.52,-1.56,-1.55,-1.60,-1.61
1021,-0.08,1.50,-0.11,1.47,-1.47,-1.56,-1.55,-1.58,-1.58
1031,-0.13,1.42,-0.15,1.41,-1.41,-1.56,-1.54,-1.56,-1.55
1041,-0.20,1.32,-0.18,1.35,-1.35,-1.56,-1.55,-1.53,-1.53
1052,-0.25,1.25,-0.22,1.29,-1.29,-1.55,-1.54,-1.51,-1.50
1062,-0.30,1.17,-0.25,1.24,-1.24,-1.55,-1.54,-1.48,-1.47
1073,-0.32,1.12,-0.27,1.18,-1.18,-1.55,-1.51,-1.46,-1.44
1084,-0.32,1.09,-0.29,1.14,-1.14,-1.55,-1.46,-1.43,-1.41
1094,-0.32,1.06,-0.30,1.11,-1.11,-1.55,-1.43,-1.41,-1.38
1105,-0.30,1.05,-0.29,1.08,-1.08,-1.54,-1.38,-1.38,-1.35
1116,-0.27,1.05,-0.28,1.07,-1.07,-1.54,-1.34,-1.34,-1.32
1128,-0.24,1.05,-0.25,1.06,-1.06,-1.54,-1.30,-1.31,-1.29
1139,-0.20,1.06,-0.20,1.07,-1.07,-1.54,-1.27,-1.27,-1.26
1150,-0.16,1.06,-0.15,1.08,-1.08,-1.54,-1.24,-1.23,-1.22
1162,-0.10,1.09,-0.10,1.10,-1.10,-1.54,-1.20,-1.20,-1.19
1173,-0.05,1.11,-0.04,1.12,-1.12,-1.55,-1.17,-1.16,-1.16
1185,0.03,1.16,0.02,1.15,-1.15,-1.55,-1.12,-1.13,-1.13
1197,0.10,1.20,0.09,1.19,-1.19,-1.55,-1.09,-1.10,-1.10
1209,0.18,1.24,0.16,1.23,-1.23,-1.56,-1.05,-1.07,-1.06
1221,0.26,1.29,0.23,1.27,-1.27,-1.56,-1.01,-1.04,-1.03
1233,0.32,1.32,0.31,1.31,-1.31,-1.57,-1.00,-1.01,-1.00
1246,0.40,1.37,0.39,1.36,-1.36,-1.58,-0.96,-0.98,-0.97
1258,0.46,1.39,0.47,1.41,-1.41,-1.59,-0.96,-0.94,-0.94
1271,0.55,1.45,0.56,1.47,-1.47,-1.60,-0.92,-0.91,-0.90
1283,0.64,1.51,0.65,1.53,-1.53,-1.61,-0.89,-0.88,-0.87
1296,0.73,1.56,0.75,1.59,-1.59,-1.62,-0.86,-0.85,-0.83
1309,0.83,1.62,0.85,1.66,-1.66,-1.63,-0.83,-0.81,-0.80
1322,0.94,1.70,0.95,1.73,-1.73,-1.65,-0.80,-0.78,-0.76
1335,1.05,1.77,1.07,1.81,-1.81,-1.67,-0.76,-0.74,-0.72
1349,1.19,1.87,1.18,1.89,-1.89,-1.69,-0.70,-0.70,-0.69
1362,1.30,1.95,1.30,1.97,-1.97,-1.71,-0.67,-0.66,-0.65
1376,1.43,2.04,1.43,2.05,-2.05,-1.73,-0.62,-0.62,-0.61
1390,1.55,2.12,1.55,2.12,-2.12,-1.75,-0.58,-0.58,-0.57
1404,1.67,2.20,1.67,2.20,-2.20,-1.78,-0.53,-0.54,-0.53
1418,1.79,2.28,1.78,2.28,-2.28,-1.80,-0.49,-0.50,-0.50
1432,1.92,2.38,1.89,2.35,-2.35,-1.83,-0.43,-0.46,-0.46
1446,2.03,2.45,2.00,2.42,-2.42,-1.86,-0.39,-0.42,-0.42
1461,2.13,2.51,2.10,2.48,-2.48,-1.89,-0.35,-0.38,-0.38
1475,2.22,2.56,2.20,2.54,-2.54,-1.92,-0.32,-0.34,-0.34
1490,2.31,2.61,2.29,2.60,-2.60,-1.96,-0.29,-0.31,-0.30
1505,2.39,2.65,2.39,2.66,-2.66,-1.99,-0.27,-0.27,-0.26
1520,2.47,2.69,2.48,2.71,-2.71,-2.03,-0.24,-0.23,-0.22
1535,2.55,2.73,2.58,2.77,-2.77,-2.06,-0.22,-0.19,-0.18
1550,2.64,2.77,2.67,2.83,-2.83,-2.10,-0.19,-0.15,-0.13
1566,2.75,2.84,2.78,2.89,-2.89,-2.14,-0.14,-0.11,-0.09
