frequency,raw,error,smoothed,error_smoothed,equalization,parametric_eq,fixed_band_eq,equalized_raw,equalized_smoothed,target
20.00,-8.70,-7.84,-8.70,-7.84,6.00,7.01,2.02,-2.70,-2.70,-0.86
20.20,-8.57,-7.80,-8.57,-7.79,6.00,6.95,2.08,-2.57,-2.57,-0.77
20.40,-8.43,-7.74,-8.43,-7.74,6.00,6.88,2.14,-2.43,-2.43,-0.69
20.61,-8.30,-7.68,-8.30,-7.69,6.00,6.82,2.20,-2.30,-2.30,-0.62
20.81,-8.17,-7.64,-8.17,-7.64,6.00,6.75,2.27,-2.17,-2.17,-0.53
21.02,-8.04,-7.59,-8.04,-7.58,6.00,6.68,2.34,-2.04,-2.04,-0.45
21.23,-7.90,-7.51,-7.90,-7.52,6.00,6.62,2.40,-1.90,-1.90,-0.39
21.44,-7.77,-7.44,-7.77,-7.44,6.00,6.55,2.48,-1.77,-1.77,-0.33
21.66,-7.64,-7.36,-7.64,-7.36,6.00,6.48,2.55,-1.64,-1.64,-0.28
21.87,-7.51,-7.28,-7.51,-7.28,6.00,6.41,2.63,-1.51,-1.51,-0.23
22.09,-7.37,-7.19,-7.37,-7.19,6.00,6.34,2.70,-1.37,-1.37,-0.18
22.31,-7.24,-7.11,-7.24,-7.10,6.00,6.27,2.78,-1.24,-1.24,-0.13
22.54,-7.10,-7.01,-7.10,-7.01,6.00,6.20,2.86,-1.10,-1.10,-0.09
22.76,-6.97,-6.92,-6.97,-6.92,6.00,6.13,2.95,-0.97,-0.97,-0.05
22.99,-6.84,-6.82,-6.84,-6.82,6.00,6.06,3.03,-0.84,-0.84,-0.02
23.22,-6.70,-6.72,-6.70,-6.72,6.00,5.99,3.12,-0.70,-0.70,0.02
23.45,-6.57,-6.63,-6.57,-6.62,6.00,5.92,3.21,-0.56,-0.56,0.06
23.69,-6.43,-6.53,-6.43,-6.53,6.01,5.85,3.30,-0.42,-0.42,0.10
23.92,-6.29,-6.43,-6.29,-6.43,6.02,5.77,3.40,-0.27,-0.27,0.14
24.16,-6.16,-6.34,-6.16,-6.34,6.02,5.70,3.49,-0.14,-0.14,0.19
24.40,-6.03,-6.24,-6.03,-6.24,6.01,5.63,3.59,-0.02,-0.02,0.22
24.65,-5.90,-6.15,-5.90,-6.15,5.99,5.55,3.69,0.09,0.09,0.25
24.89,-5.77,-6.04,-5.76,-6.04,5.95,5.48,3.78,0.18,0.19,0.28
25.14,-5.63,-5.94,-5.63,-5.94,5.90,5.41,3.88,0.27,0.27,0.32
25.39,-5.50,-5.84,-5.50,-5.85,5.83,5.33,3.98,0.34,0.33,0.34
25.65,-5.37,-5.75,-5.37,-5.75,5.75,5.26,4.09,0.38,0.38,0.38
25.91,-5.24,-5.64,-5.24,-5.65,5.66,5.18,4.19,0.42,0.42,0.40
26.16,-5.11,-5.54,-5.11,-5.54,5.56,5.10,4.28,0.45,0.45,0.43
26.43,-4.97,-5.44,-4.97,-5.44,5.45,5.03,4.38,0.48,0.48,0.47
26.69,-4.84,-5.34,-4.84,-5.34,5.35,4.95,4.48,0.51,0.51,0.50
26.96,-4.71,-5.24,-4.71,-5.25,5.25,4.87,4.58,0.54,0.54,0.53
27.23,-4.58,-5.15,-4.58,-5.15,5.15,4.80,4.67,0.57,0.57,0.57
27.50,-4.46,-5.06,-4.46,-5.05,5.05,4.72,4.76,0.59,0.59,0.60
27.77,-4.33,-4.95,-4.33,-4.96,4.95,4.64,4.84,0.62,0.62,0.62
28.05,-4.21,-4.87,-4.21,-4.86,4.85,4.56,4.93,0.65,0.65,0.66
28.33,-4.08,-4.76,-4.08,-4.76,4.76,4.48,5.00,0.68,0.68,0.68
28.62,-3.95,-4.66,-3.95,-4.66,4.66,4.40,5.07,0.71,0.71,0.71
28.90,-3.82,-4.56,-3.82,-4.56,4.57,4.33,5.14,0.75,0.74,0.75
29.19,-3.70,-4.46,-3.70,-4.47,4.47,4.25,5.19,0.77,0.78,0.76
29.48,-3.58,-4.39,-3.58,-4.38,4.38,4.17,5.24,0.81,0.81,0.81
29.78,-3.46,-4.29,-3.46,-4.29,4.30,4.09,5.29,0.84,0.84,0.83
30.08,-3.34,-4.20,-3.35,-4.21,4.21,4.01,5.32,0.87,0.86,0.86
30.38,-3.24,-4.13,-3.24,-4.12,4.13,3.93,5.34,0.89,0.89,0.89
30.68,-3.13,-4.05,-3.13,-4.04,4.04,3.85,5.35,0.91,0.91,0.92
30.99,-3.02,-3.96,-3.02,-3.97,3.96,3.77,5.36,0.94,0.94,0.94
31.30,-2.92,-3.89,-2.92,-3.88,3.88,3.69,5.35,0.96,0.96,0.97
31.61,-2.81,-3.81,-2.81,-3.80,3.80,3.61,5.34,0.99,0.99,1.00
31.93,-2.70,-3.71,-2.70,-3.72,3.72,3.53,5.31,1.02,1.02,1.01
32.24,-2.59,-3.62,-2.59,-3.63,3.63,3.45,5.28,1.05,1.04,1.03
32.57,-2.49,-3.55,-2.49,-3.55,3.55,3.36,5.23,1.06,1.06,1.06
32.89,-2.38,-3.47,-2.38,-3.47,3.46,3.28,5.18,1.09,1.08,1.09
33.22,-2.28,-3.39,-2.28,-3.38,3.38,3.20,5.12,1.10,1.10,1.11
33.55,-2.17,-3.30,-2.17,-3.29,3.29,3.12,5.05,1.12,1.13,1.13
33.89,-2.06,-3.19,-2.06,-3.21,3.21,3.04,4.97,1.15,1.14,1.14
34.23,-1.96,-3.12,-1.96,-3.12,3.12,2.96,4.89,1.16,1.16,1.16
34.57,-1.86,-3.03,-1.86,-3.03,3.03,2.88,4.79,1.17,1.17,1.17
34.92,-1.76,-2.94,-1.76,-2.95,2.94,2.80,4.70,1.18,1.18,1.18
35.27,-1.66,-2.86,-1.66,-2.85,2.85,2.72,4.60,1.19,1.19,1.20
35.62,-1.57,-2.77,-1.57,-2.77,2.76,2.64,4.49,1.19,1.20,1.20
35.97,-1.47,-2.67,-1.47,-2.68,2.68,2.56,4.38,1.21,1.21,1.20
36.33,-1.37,-2.59,-1.37,-2.59,2.59,2.49,4.27,1.22,1.22,1.22
36.70,-1.28,-2.50,-1.28,-2.50,2.50,2.41,4.15,1.22,1.22,1.22
37.06,-1.19,-2.41,-1.19,-2.41,2.41,2.33,4.03,1.22,1.22,1.22
37.43,-1.10,-2.32,-1.10,-2.32,2.32,2.25,3.91,1.22,1.22,1.22
37.81,-1.01,-2.23,-1.01,-2.23,2.23,2.17,3.79,1.22,1.22,1.22
38.19,-0.93,-2.15,-0.93,-2.15,2.15,2.10,3.67,1.22,1.22,1.22
38.57,-0.84,-2.07,-0.84,-2.06,2.06,2.02,3.55,1.22,1.22,1.23
38.95,-0.75,-1.97,-0.75,-1.97,1.97,1.94,3.42,1.22,1.22,1.22
39.34,-0.67,-1.88,-0.66,-1.88,1.88,1.87,3.30,1.21,1.22,1.21
39.74,-0.58,-1.79,-0.58,-1.79,1.80,1.79,3.18,1.22,1.21,1.21
40.14,-0.50,-1.70,-0.50,-1.70,1.71,1.72,3.06,1.21,1.21,1.20
40.54,-0.42,-1.62,-0.42,-1.62,1.62,1.65,2.94,1.20,1.20,1.20
40.94,-0.34,-1.54,-0.34,-1.54,1.53,1.58,2.82,1.19,1.19,1.20
41.35,-0.26,-1.45,-0.26,-1.45,1.45,1.50,2.70,1.19,1.19,1.19
41.76,-0.18,-1.37,-0.18,-1.36,1.36,1.43,2.59,1.18,1.19,1.19
42.18,-0.09,-1.28,-0.09,-1.28,1.27,1.36,2.47,1.19,1.18,1.19
42.60,-0.01,-1.18,-0.01,-1.19,1.19,1.29,2.36,1.18,1.18,1.17
43.03,0.07,-1.11,0.07,-1.10,1.10,1.23,2.24,1.17,1.17,1.18
43.46,0.14,-1.02,0.14,-1.02,1.02,1.16,2.13,1.16,1.16,1.16
43.90,0.21,-0.94,0.21,-0.94,0.94,1.09,2.02,1.15,1.15,1.15
44.33,0.28,-0.85,0.28,-0.86,0.86,1.03,1.91,1.14,1.14,1.13
44.78,0.34,-0.79,0.34,-0.78,0.79,0.97,1.81,1.13,1.13,1.13
45.23,0.40,-0.71,0.40,-0.71,0.72,0.90,1.70,1.12,1.12,1.11
45.68,0.46,-0.65,0.46,-0.65,0.65,0.84,1.60,1.11,1.11,1.11
46.13,0.52,-0.58,0.52,-0.59,0.59,0.78,1.49,1.11,1.11,1.10
46.60,0.57,-0.54,0.57,-0.53,0.53,0.72,1.39,1.10,1.10,1.11
47.06,0.63,-0.47,0.63,-0.47,0.47,0.67,1.29,1.10,1.09,1.10
47.53,0.68,-0.42,0.68,-0.42,0.41,0.61,1.20,1.09,1.09,1.10
48.01,0.74,-0.36,0.74,-0.36,0.35,0.56,1.10,1.09,1.09,1.10
48.49,0.80,-0.29,0.80,-0.29,0.29,0.50,1.00,1.09,1.09,1.09
48.97,0.86,-0.23,0.86,-0.22,0.23,0.45,0.91,1.09,1.09,1.09
49.46,0.91,-0.16,0.91,-0.16,0.17,0.40,0.82,1.09,1.09,1.07
49.96,0.96,-0.10,0.96,-0.11,0.12,0.35,0.73,1.08,1.08,1.06
50.46,1.00,-0.07,1.00,-0.07,0.07,0.30,0.64,1.07,1.07,1.07
50.96,1.04,-0.05,1.04,-0.04,0.03,0.26,0.55,1.07,1.07,1.09
51.47,1.08,0.00,1.08,0.00,-0.01,0.21,0.46,1.07,1.08,1.08
51.99,1.13,0.05,1.13,0.04,-0.04,0.17,0.38,1.09,1.08,1.08
52.51,1.17,0.08,1.17,0.08,-0.08,0.13,0.30,1.09,1.09,1.09
53.03,1.20,0.11,1.20,0.11,-0.11,0.09,0.21,1.09,1.09,1.09
53.56,1.23,0.14,1.23,0.14,-0.14,0.05,0.13,1.09,1.09,1.09
54.10,1.26,0.17,1.26,0.17,-0.17,0.01,0.06,1.09,1.09,1.09
54.64,1.29,0.21,1.29,0.20,-0.20,-0.02,-0.02,1.09,1.09,1.08
55.18,1.31,0.23,1.31,0.23,-0.23,-0.06,-0.09,1.08,1.08,1.08
55.74,1.33,0.26,1.33,0.26,-0.26,-0.09,-0.16,1.07,1.08,1.07
56.29,1.35,0.28,1.35,0.28,-0.28,-0.12,-0.23,1.07,1.07,1.07
56.86,1.36,0.30,1.36,0.30,-0.30,-0.16,-0.30,1.06,1.06,1.06
57.42,1.37,0.32,1.38,0.33,-0.33,-0.18,-0.36,1.05,1.05,1.05
58.00,1.39,0.35,1.39,0.35,-0.34,-0.21,-0.43,1.05,1.05,1.04
58.58,1.40,0.37,1.40,0.37,-0.36,-0.24,-0.48,1.04,1.04,1.03
59.16,1.41,0.38,1.41,0.38,-0.38,-0.27,-0.54,1.03,1.03,1.03
59.76,1.40,0.39,1.41,0.39,-0.40,-0.29,-0.59,1.00,1.01,1.01
60.35,1.40,0.41,1.40,0.40,-0.41,-0.31,-0.65,0.99,0.99,0.99
60.96,1.40,0.41,1.40,0.42,-0.43,-0.34,-0.69,0.97,0.97,0.99
61.57,1.39,0.44,1.39,0.44,-0.44,-0.36,-0.74,0.95,0.95,0.95
62.18,1.39,0.47,1.39,0.46,-0.45,-0.38,-0.78,0.94,0.94,0.93
62.80,1.38,0.46,1.38,0.47,-0.46,-0.40,-0.82,0.92,0.92,0.92
63.43,1.37,0.48,1.37,0.47,-0.47,-0.42,-0.86,0.90,0.90,0.89
64.07,1.36,0.47,1.36,0.48,-0.47,-0.44,-0.89,0.89,0.89,0.89
64.71,1.35,0.47,1.35,0.48,-0.48,-0.45,-0.92,0.87,0.88,0.88
65.35,1.35,0.48,1.35,0.47,-0.48,-0.47,-0.95,0.87,0.87,0.87
66.01,1.34,0.47,1.34,0.47,-0.47,-0.49,-0.98,0.87,0.87,0.87
66.67,1.34,0.47,1.34,0.47,-0.47,-0.50,-1.00,0.87,0.87,0.87
67.33,1.34,0.47,1.34,0.47,-0.47,-0.52,-1.02,0.87,0.87,0.87
68.01,1.34,0.47,1.34,0.47,-0.47,-0.53,-1.04,0.88,0.88,0.87
68.69,1.34,0.47,1.34,0.47,-0.46,-0.55,-1.06,0.88,0.88,0.87
69.37,1.34,0.46,1.34,0.46,-0.46,-0.56,-1.07,0.88,0.88,0.88
70.07,1.34,0.46,1.34,0.46,-0.46,-0.58,-1.09,0.89,0.89,0.88
70.77,1.34,0.44,1.34,0.45,-0.45,-0.59,-1.10,0.89,0.89,0.90
71.48,1.34,0.45,1.34,0.45,-0.45,-0.61,-1.11,0.89,0.89,0.89
72.19,1.34,0.45,1.34,0.45,-0.45,-0.62,-1.12,0.90,0.90,0.89
72.91,1.34,0.44,1.34,0.45,-0.44,-0.63,-1.13,0.90,0.90,0.90
73.64,1.34,0.45,1.34,0.45,-0.45,-0.65,-1.14,0.89,0.89,0.89
74.38,1.34,0.44,1.34,0.45,-0.45,-0.66,-1.15,0.89,0.89,0.90
75.12,1.35,0.46,1.35,0.46,-0.46,-0.68,-1.16,0.89,0.89,0.89
75.87,1.36,0.47,1.36,0.47,-0.48,-0.69,-1.17,0.88,0.89,0.89
76.63,1.38,0.48,1.38,0.49,-0.49,-0.71,-1.18,0.89,0.89,0.90
77.40,1.40,0.51,1.40,0.51,-0.51,-0.72,-1.19,0.89,0.89,0.89
78.17,1.42,0.54,1.42,0.53,-0.52,-0.74,-1.20,0.90,0.90,0.88
78.95,1.44,0.54,1.44,0.54,-0.54,-0.75,-1.21,0.90,0.90,0.90
79.74,1.45,0.55,1.45,0.55,-0.55,-0.77,-1.22,0.90,0.90,0.90
80.54,1.47,0.57,1.47,0.57,-0.57,-0.79,-1.23,0.91,0.91,0.90
81.35,1.49,0.58,1.49,0.58,-0.58,-0.80,-1.25,0.91,0.91,0.91
82.16,1.51,0.59,1.51,0.59,-0.59,-0.82,-1.26,0.92,0.92,0.92
82.98,1.53,0.59,1.53,0.60,-0.60,-0.84,-1.27,0.93,0.93,0.94
83.81,1.56,0.62,1.56,0.62,-0.62,-0.86,-1.29,0.94,0.94,0.95
84.65,1.60,0.65,1.60,0.64,-0.64,-0.88,-1.30,0.96,0.96,0.95
85.50,1.63,0.65,1.63,0.66,-0.66,-0.90,-1.32,0.97,0.98,0.98
86.35,1.67,0.68,1.67,0.68,-0.68,-0.92,-1.34,0.99,0.99,1.00
87.22,1.71,0.71,1.71,0.71,-0.71,-0.94,-1.36,1.00,1.00,1.00
88.09,1.75,0.73,1.75,0.74,-0.74,-0.96,-1.38,1.01,1.02,1.02
88.97,1.80,0.77,1.79,0.77,-0.77,-0.98,-1.40,1.03,1.03,1.03
89.86,1.83,0.80,1.84,0.80,-0.80,-1.00,-1.42,1.03,1.04,1.03
90.76,1.87,0.84,1.87,0.84,-0.83,-1.02,-1.45,1.04,1.04,1.03
91.66,1.90,0.87,1.90,0.87,-0.86,-1.05,-1.47,1.04,1.04,1.03
92.58,1.92,0.91,1.92,0.90,-0.90,-1.07,-1.50,1.02,1.02,1.02
93.51,1.94,0.92,1.94,0.93,-0.94,-1.09,-1.52,1.00,1.00,1.02
94.44,1.96,0.96,1.96,0.96,-0.98,-1.12,-1.55,0.98,0.99,1.00
95.39,1.99,1.01,1.99,1.01,-1.02,-1.14,-1.58,0.97,0.97,0.98
96.34,2.02,1.07,2.02,1.07,-1.07,-1.17,-1.61,0.95,0.95,0.95
97.30,2.04,1.12,2.04,1.12,-1.11,-1.19,-1.64,0.93,0.93,0.92
98.28,2.05,1.16,2.05,1.17,-1.16,-1.22,-1.68,0.90,0.90,0.89
99.26,2.06,1.21,2.06,1.21,-1.20,-1.24,-1.71,0.86,0.86,0.85
100.25,2.06,1.25,2.06,1.25,-1.24,-1.27,-1.74,0.82,0.81,0.81
101.25,2.05,1.28,2.05,1.28,-1.28,-1.29,-1.78,0.77,0.77,0.77
102.27,2.04,1.31,2.04,1.32,-1.32,-1.32,-1.81,0.72,0.72,0.73
103.29,2.04,1.36,2.04,1.35,-1.36,-1.35,-1.84,0.68,0.68,0.68
104.32,2.04,1.39,2.04,1.39,-1.40,-1.37,-1.88,0.64,0.64,0.65
105.37,2.04,1.44,2.04,1.44,-1.44,-1.40,-1.91,0.60,0.60,0.60
106.42,2.04,1.48,2.04,1.48,-1.48,-1.43,-1.95,0.57,0.57,0.56
107.48,2.04,1.52,2.04,1.52,-1.51,-1.46,-1.98,0.53,0.53,0.52
108.56,2.04,1.56,2.04,1.56,-1.55,-1.48,-2.01,0.49,0.49,0.48
109.64,2.04,1.60,2.04,1.59,-1.59,-1.51,-2.04,0.45,0.45,0.45
110.74,2.04,1.62,2.04,1.63,-1.63,-1.54,-2.07,0.41,0.41,0.42
111.85,2.04,1.65,2.04,1.66,-1.66,-1.56,-2.10,0.38,0.38,0.39
112.97,2.04,1.70,2.04,1.69,-1.70,-1.59,-2.13,0.35,0.35,0.34
114.10,2.04,1.72,2.04,1.73,-1.73,-1.62,-2.16,0.31,0.31,0.32
115.24,2.04,1.76,2.04,1.76,-1.76,-1.65,-2.18,0.29,0.29,0.28
116.39,2.04,1.79,2.04,1.78,-1.78,-1.67,-2.20,0.26,0.26,0.25
117.55,2.04,1.80,2.04,1.81,-1.80,-1.70,-2.22,0.24,0.24,0.24
118.73,2.04,1.83,2.04,1.83,-1.82,-1.72,-2.24,0.22,0.22,0.21
119.92,2.04,1.84,2.04,1.84,-1.84,-1.75,-2.25,0.20,0.20,0.20
121.12,2.04,1.86,2.04,1.86,-1.86,-1.78,-2.26,0.18,0.18,0.18
122.33,2.04,1.87,2.04,1.87,-1.87,-1.80,-2.27,0.17,0.17,0.17
123.55,2.04,1.88,2.04,1.88,-1.88,-1.82,-2.27,0.16,0.16,0.16
124.79,2.04,1.89,2.04,1.89,-1.89,-1.85,-2.27,0.15,0.15,0.15
126.03,2.04,1.90,2.04,1.90,-1.90,-1.87,-2.27,0.14,0.14,0.14
127.29,2.04,1.91,2.04,1.92,-1.92,-1.89,-2.26,0.12,0.12,0.13
128.57,2.04,1.94,2.04,1.93,-1.93,-1.92,-2.25,0.11,0.11,0.10
129.85,2.04,1.94,2.04,1.94,-1.94,-1.94,-2.24,0.10,0.10,0.10
131.15,2.04,1.95,2.04,1.96,-1.95,-1.96,-2.22,0.09,0.09,0.09
132.46,2.04,1.98,2.04,1.97,-1.97,-1.98,-2.20,0.07,0.07,0.06
133.79,2.04,1.98,2.04,1.98,-1.98,-2.00,-2.18,0.06,0.06,0.06
135.12,2.04,2.00,2.04,2.00,-2.00,-2.02,-2.16,0.04,0.04,0.04
136.48,2.04,2.01,2.04,2.01,-2.02,-2.04,-2.13,0.03,0.03,0.03
137.84,2.04,2.03,2.04,2.04,-2.03,-2.05,-2.10,0.01,0.01,0.01
139.22,2.04,2.06,2.04,2.05,-2.06,-2.07,-2.07,-0.01,-0.02,-0.02
140.61,2.04,2.08,2.04,2.07,-2.08,-2.09,-2.04,-0.04,-0.04,-0.04
142.02,2.04,2.09,2.04,2.10,-2.10,-2.10,-2.00,-0.06,-0.06,-0.05
143.44,2.05,2.12,2.05,2.12,-2.12,-2.12,-1.97,-0.07,-0.07,-0.07
144.87,2.06,2.15,2.06,2.15,-2.15,-2.13,-1.93,-0.09,-0.09,-0.09
146.32,2.06,2.18,2.06,2.17,-2.17,-2.14,-1.89,-0.11,-0.11,-0.12
147.78,2.05,2.19,2.05,2.19,-2.19,-2.16,-1.85,-0.13,-0.13,-0.14
149.26,2.04,2.20,2.04,2.20,-2.20,-2.17,-1.81,-0.16,-0.16,-0.16
150.75,2.02,2.22,2.02,2.21,-2.21,-2.18,-1.77,-0.19,-0.19,-0.20
152.26,2.00,2.22,2.00,2.22,-2.21,-2.18,-1.73,-0.21,-0.21,-0.22
153.78,1.97,2.21,1.97,2.22,-2.21,-2.19,-1.69,-0.24,-0.24,-0.24
155.32,1.94,2.22,1.94,2.21,-2.22,-2.20,-1.65,-0.27,-0.28,-0.28
156.88,1.90,2.20,1.90,2.21,-2.22,-2.21,-1.61,-0.31,-0.31,-0.30
158.44,1.87,2.21,1.87,2.21,-2.22,-2.21,-1.58,-0.35,-0.35,-0.34
160.03,1.83,2.20,1.84,2.21,-2.22,-2.22,-1.54,-0.39,-0.38,-0.37
161.63,1.81,2.23,1.81,2.22,-2.22,-2.22,-1.50,-0.41,-0.41,-0.41
163.24,1.79,2.24,1.79,2.23,-2.23,-2.22,-1.46,-0.44,-0.44,-0.44
164.88,1.76,2.24,1.77,2.24,-2.23,-2.22,-1.42,-0.47,-0.47,-0.47
166.53,1.74,2.24,1.74,2.24,-2.24,-2.22,-1.39,-0.50,-0.50,-0.50
168.19,1.72,2.25,1.72,2.25,-2.25,-2.22,-1.35,-0.53,-0.54,-0.53
169.87,1.69,2.25,1.70,2.26,-2.26,-2.22,-1.32,-0.57,-0.56,-0.56
171.57,1.67,2.26,1.68,2.26,-2.27,-2.22,-1.28,-0.59,-0.59,-0.59
173.29,1.66,2.28,1.65,2.27,-2.27,-2.21,-1.25,-0.61,-0.62,-0.62
175.02,1.63,2.27,1.63,2.27,-2.27,-2.21,-1.22,-0.64,-0.64,-0.64
176.77,1.60,2.27,1.61,2.27,-2.27,-2.20,-1.19,-0.67,-0.67,-0.67
178.54,1.58,2.27,1.58,2.27,-2.27,-2.20,-1.16,-0.69,-0.69,-0.69
180.32,1.56,2.27,1.56,2.27,-2.26,-2.19,-1.13,-0.70,-0.70,-0.71
182.13,1.53,2.25,1.53,2.25,-2.25,-2.18,-1.10,-0.71,-0.72,-0.72
183.95,1.49,2.23,1.49,2.23,-2.23,-2.17,-1.07,-0.74,-0.73,-0.74
185.79,1.45,2.20,1.46,2.21,-2.20,-2.16,-1.05,-0.75,-0.75,-0.75
187.65,1.42,2.19,1.42,2.18,-2.18,-2.15,-1.02,-0.76,-0.76,-0.76
189.52,1.38,2.15,1.38,2.15,-2.15,-2.14,-1.00,-0.77,-0.77,-0.77
191.42,1.34,2.12,1.34,2.12,-2.13,-2.13,-0.98,-0.79,-0.79,-0.78
193.33,1.30,2.08,1.31,2.09,-2.11,-2.11,-0.95,-0.80,-0.80,-0.78
195.27,1.28,2.06,1.28,2.07,-2.08,-2.10,-0.93,-0.80,-0.80,-0.78
197.22,1.26,2.06,1.26,2.06,-2.06,-2.08,-0.91,-0.80,-0.80,-0.80
199.19,1.24,2.06,1.24,2.05,-2.03,-2.06,-0.89,-0.79,-0.79,-0.82
201.18,1.21,2.03,1.21,2.03,-2.01,-2.05,-0.87,-0.80,-0.80,-0.82
203.19,1.17,1.99,1.17,1.99,-1.98,-2.03,-0.85,-0.81,-0.81,-0.82
205.23,1.12,1.95,1.12,1.94,-1.94,-2.01,-0.84,-0.82,-0.82,-0.83
207.28,1.07,1.90,1.08,1.91,-1.91,-1.99,-0.82,-0.84,-0.83,-0.83
209.35,1.03,1.87,1.03,1.87,-1.87,-1.97,-0.80,-0.84,-0.85,-0.84
211.44,0.98,1.83,0.98,1.83,-1.84,-1.94,-0.79,-0.85,-0.85,-0.85
213.56,0.93,1.78,0.93,1.79,-1.80,-1.92,-0.77,-0.87,-0.86,-0.85
215.69,0.89,1.74,0.89,1.75,-1.76,-1.90,-0.75,-0.86,-0.87,-0.85
217.85,0.84,1.71,0.85,1.72,-1.71,-1.87,-0.74,-0.87,-0.86,-0.87
220.03,0.81,1.69,0.81,1.69,-1.67,-1.84,-0.73,-0.86,-0.86,-0.88
222.23,0.76,1.65,0.75,1.64,-1.62,-1.82,-0.71,-0.86,-0.87,-0.89
224.45,0.69,1.58,0.69,1.58,-1.57,-1.79,-0.70,-0.88,-0.88,-0.89
226.70,0.61,1.51,0.62,1.51,-1.52,-1.76,-0.69,-0.91,-0.90,-0.90
228.96,0.54,1.45,0.55,1.45,-1.47,-1.73,-0.67,-0.93,-0.92,-0.90
231.25,0.49,1.40,0.48,1.40,-1.41,-1.70,-0.66,-0.92,-0.93,-0.91
233.57,0.43,1.36,0.42,1.35,-1.36,-1.66,-0.65,-0.93,-0.94,-0.93
235.90,0.35,1.29,0.36,1.30,-1.31,-1.63,-0.64,-0.95,-0.95,-0.94
238.26,0.30,1.26,0.30,1.26,-1.25,-1.59,-0.63,-0.95,-0.96,-0.96
240.64,0.23,1.21,0.24,1.21,-1.20,-1.56,-0.62,-0.97,-0.96,-0.97
243.05,0.18,1.16,0.18,1.16,-1.15,-1.52,-0.61,-0.97,-0.97,-0.98
245.48,0.12,1.11,0.11,1.10,-1.09,-1.48,-0.60,-0.97,-0.98,-0.99
247.93,0.03,1.02,0.04,1.04,-1.04,-1.44,-0.58,-1.01,-0.99,-0.99
250.41,-0.02,0.99,-0.02,0.97,-0.98,-1.39,-0.57,-0.99,-1.00,-1.00
252.92,-0.09,0.90,-0.08,0.91,-0.91,-1.35,-0.56,-1.00,-1.00,-0.99
255.45,-0.14,0.84,-0.14,0.85,-0.85,-1.30,-0.55,-0.99,-0.99,-0.98
258.00,-0.19,0.79,-0.20,0.78,-0.78,-1.25,-0.54,-0.97,-0.98,-0.98
260.58,-0.26,0.71,-0.25,0.72,-0.71,-1.20,-0.53,-0.97,-0.97,-0.97
263.19,-0.31,0.65,-0.31,0.65,-0.64,-1.15,-0.52,-0.95,-0.95,-0.96
265.82,-0.37,0.58,-0.36,0.58,-0.57,-1.09,-0.51,-0.94,-0.94,-0.95
268.48,-0.42,0.50,-0.42,0.51,-0.50,-1.03,-0.50,-0.92,-0.92,-0.92
271.16,-0.47,0.44,-0.48,0.43,-0.43,-0.97,-0.49,-0.90,-0.91,-0.91
273.87,-0.55,0.34,-0.54,0.35,-0.36,-0.90,-0.48,-0.91,-0.89,-0.89
276.61,-0.59,0.27,-0.59,0.28,-0.29,-0.83,-0.47,-0.88,-0.88,-0.86
279.38,-0.64,0.22,-0.64,0.22,-0.22,-0.76,-0.46,-0.86,-0.86,-0.86
282.17,-0.68,0.16,-0.68,0.16,-0.16,-0.69,-0.45,-0.84,-0.84,-0.84
284.99,-0.72,0.10,-0.72,0.10,-0.10,-0.61,-0.44,-0.82,-0.83,-0.82
287.84,-0.77,0.04,-0.76,0.04,-0.05,-0.52,-0.43,-0.82,-0.81,-0.81
290.72,-0.80,-0.02,-0.80,-0.01,0.01,-0.43,-0.43,-0.79,-0.79,-0.78
293.63,-0.82,-0.05,-0.82,-0.06,0.06,-0.34,-0.42,-0.76,-0.77,-0.77
296.57,-0.85,-0.11,-0.85,-0.10,0.11,-0.24,-0.41,-0.74,-0.74,-0.74
299.53,-0.88,-0.15,-0.88,-0.15,0.16,-0.14,-0.40,-0.71,-0.72,-0.73
302.53,-0.92,-0.20,-0.92,-0.21,0.22,-0.03,-0.39,-0.70,-0.70,-0.72
305.55,-0.96,-0.28,-0.96,-0.27,0.27,0.08,-0.38,-0.68,-0.68,-0.68
308.61,-1.00,-0.34,-1.00,-0.34,0.33,0.19,-0.37,-0.67,-0.66,-0.66
311.69,-1.03,-0.39,-1.03,-0.40,0.39,0.31,-0.36,-0.64,-0.64,-0.63
314.81,-1.05,-0.45,-1.05,-0.45,0.45,0.43,-0.36,-0.60,-0.61,-0.60
317.96,-1.08,-0.50,-1.08,-0.50,0.50,0.55,-0.35,-0.58,-0.58,-0.58
321.14,-1.11,-0.55,-1.11,-0.55,0.56,0.67,-0.34,-0.55,-0.55,-0.56
324.35,-1.14,-0.60,-1.14,-0.60,0.61,0.78,-0.33,-0.53,-0.53,-0.54
327.59,-1.18,-0.67,-1.17,-0.65,0.65,0.89,-0.33,-0.52,-0.51,-0.51
330.87,-1.19,-0.69,-1.19,-0.70,0.70,0.99,-0.32,-0.49,-0.50,-0.50
334.18,-1.21,-0.74,-1.21,-0.74,0.74,1.08,-0.31,-0.47,-0.48,-0.47
337.52,-1.23,-0.78,-1.22,-0.78,0.77,1.16,-0.31,-0.46,-0.45,-0.45
340.90,-1.23,-0.81,-1.23,-0.81,0.80,1.22,-0.30,-0.43,-0.43,-0.42
344.30,-1.23,-0.84,-1.23,-0.83,0.83,1.26,-0.29,-0.40,-0.40,-0.39
347.75,-1.22,-0.85,-1.22,-0.85,0.86,1.29,-0.29,-0.36,-0.36,-0.37
351.23,-1.21,-0.87,-1.21,-0.87,0.88,1.29,-0.28,-0.33,-0.33,-0.34
354.74,-1.21,-0.89,-1.21,-0.89,0.91,1.28,-0.28,-0.30,-0.31,-0.31
358.28,-1.22,-0.92,-1.22,-0.93,0.93,1.25,-0.27,-0.29,-0.29,-0.30
361.87,-1.23,-0.96,-1.23,-0.96,0.95,1.20,-0.26,-0.28,-0.27,-0.27
365.49,-1.23,-0.99,-1.23,-0.98,0.97,1.14,-0.26,-0.26,-0.25,-0.24
369.14,-1.22,-0.99,-1.22,-1.00,0.99,1.07,-0.25,-0.23,-0.23,-0.23
372.83,-1.21,-1.01,-1.21,-1.01,1.01,0.99,-0.25,-0.20,-0.20,-0.20
376.56,-1.19,-1.01,-1.19,-1.01,1.02,0.91,-0.25,-0.17,-0.17,-0.18
380.33,-1.17,-1.03,-1.17,-1.02,1.03,0.82,-0.24,-0.14,-0.15,-0.14
384.13,-1.15,-1.02,-1.15,-1.02,1.02,0.74,-0.24,-0.12,-0.13,-0.13
387.97,-1.14,-1.03,-1.13,-1.02,1.02,0.65,-0.23,-0.12,-0.12,-0.11
391.85,-1.11,-1.00,-1.11,-1.01,1.00,0.57,-0.23,-0.11,-0.10,-0.10
395.77,-1.07,-0.99,-1.07,-0.99,0.98,0.48,-0.23,-0.09,-0.09,-0.08
399.73,-1.03,-0.96,-1.03,-0.96,0.95,0.41,-0.22,-0.08,-0.08,-0.07
403.72,-0.99,-0.92,-0.98,-0.92,0.91,0.33,-0.22,-0.08,-0.07,-0.07
407.76,-0.93,-0.87,-0.93,-0.87,0.87,0.26,-0.22,-0.06,-0.06,-0.06
411.84,-0.87,-0.82,-0.87,-0.82,0.83,0.20,-0.21,-0.04,-0.04,-0.05
415.96,-0.82,-0.77,-0.82,-0.77,0.78,0.14,-0.21,-0.04,-0.04,-0.05
420.12,-0.77,-0.72,-0.77,-0.73,0.74,0.08,-0.21,-0.03,-0.04,-0.05
424.32,-0.74,-0.69,-0.74,-0.69,0.69,0.03,-0.21,-0.05,-0.04,-0.05
428.56,-0.70,-0.65,-0.70,-0.65,0.65,-0.02,-0.20,-0.05,-0.05,-0.05
432.85,-0.67,-0.61,-0.67,-0.61,0.60,-0.07,-0.20,-0.07,-0.07,-0.06
437.18,-0.63,-0.57,-0.63,-0.57,0.56,-0.11,-0.20,-0.07,-0.07,-0.06
441.55,-0.59,-0.53,-0.59,-0.52,0.52,-0.15,-0.20,-0.07,-0.07,-0.06
445.96,-0.55,-0.48,-0.55,-0.48,0.47,-0.19,-0.20,-0.07,-0.07,-0.07
450.42,-0.50,-0.43,-0.50,-0.43,0.43,-0.22,-0.20,-0.06,-0.07,-0.07
454.93,-0.46,-0.39,-0.46,-0.38,0.40,-0.25,-0.20,-0.06,-0.06,-0.07
459.48,-0.42,-0.34,-0.43,-0.35,0.36,-0.28,-0.20,-0.06,-0.07,-0.08
464.07,-0.40,-0.32,-0.40,-0.32,0.33,-0.31,-0.20,-0.07,-0.07,-0.07
468.71,-0.38,-0.30,-0.37,-0.30,0.29,-0.33,-0.20,-0.09,-0.08,-0.07
473.40,-0.34,-0.26,-0.34,-0.27,0.26,-0.36,-0.20,-0.08,-0.08,-0.08
478.13,-0.30,-0.23,-0.31,-0.23,0.23,-0.38,-0.20,-0.07,-0.08,-0.07
482.91,-0.27,-0.19,-0.27,-0.20,0.19,-0.40,-0.20,-0.08,-0.07,-0.08
487.74,-0.23,-0.16,-0.23,-0.16,0.16,-0.42,-0.21,-0.07,-0.07,-0.07
492.62,-0.18,-0.12,-0.18,-0.12,0.12,-0.44,-0.21,-0.06,-0.06,-0.06
