frequency,raw,error,smoothed,error_smoothed,equalization,parametric_eq,equalized_raw,equalized_smoothed,target
20,0.24,-3.26,0.18,-3.30,3.30,0.57,3.54,3.48,3.50
21,0.44,-3.05,0.43,-3.05,3.05,0.66,3.49,3.48,3.49
22,0.65,-2.84,0.67,-2.81,2.81,0.77,3.46,3.48,3.49
23,0.87,-2.61,0.89,-2.58,2.58,0.88,3.45,3.47,3.49
24,1.08,-2.40,1.11,-2.36,2.36,1.00,3.44,3.47,3.48
25,1.29,-2.18,1.32,-2.14,2.14,1.13,3.43,3.46,3.47
26,1.49,-1.98,1.52,-1.94,1.94,1.25,3.43,3.46,3.47
27,1.68,-1.78,1.71,-1.74,1.74,1.36,3.42,3.45,3.46
28,1.89,-1.56,1.89,-1.56,1.56,1.44,3.45,3.45,3.45
29,2.07,-1.38,2.06,-1.38,1.38,1.51,3.45,3.44,3.45
30,2.25,-1.19,2.22,-1.21,1.21,1.54,3.46,3.43,3.44
31,2.41,-1.02,2.38,-1.05,1.05,1.53,3.46,3.42,3.43
32,2.54,-0.88,2.52,-0.90,0.90,1.50,3.44,3.42,3.42
33,2.67,-0.74,2.65,-0.76,0.76,1.43,3.43,3.41,3.41
34,2.78,-0.62,2.78,-0.62,0.62,1.33,3.41,3.40,3.40
35,2.88,-0.51,2.89,-0.50,0.50,1.22,3.38,3.39,3.39
36,2.98,-0.40,2.99,-0.39,0.39,1.10,3.37,3.38,3.38
37,3.07,-0.30,3.09,-0.28,0.28,0.96,3.35,3.36,3.37
38,3.16,-0.19,3.17,-0.18,0.18,0.82,3.34,3.35,3.36
39,3.24,-0.10,3.25,-0.09,0.09,0.69,3.33,3.34,3.34
40,3.32,-0.01,3.33,0.00,-0.00,0.55,3.32,3.32,3.33
41,3.40,0.09,3.40,0.09,-0.09,0.42,3.31,3.31,3.31
42,3.47,0.17,3.47,0.17,-0.17,0.28,3.30,3.30,3.30
43,3.53,0.25,3.53,0.25,-0.25,0.16,3.28,3.28,3.28
44,3.59,0.32,3.59,0.33,-0.33,0.03,3.26,3.26,3.27
45,3.65,0.40,3.65,0.40,-0.40,-0.09,3.25,3.25,3.25
46,3.70,0.47,3.70,0.47,-0.47,-0.21,3.23,3.23,3.23
47,3.75,0.54,3.75,0.54,-0.54,-0.32,3.21,3.21,3.21
48,3.80,0.61,3.80,0.61,-0.61,-0.43,3.20,3.19,3.19
49,3.84,0.67,3.84,0.67,-0.67,-0.54,3.17,3.17,3.17
50,3.88,0.73,3.89,0.73,-0.73,-0.65,3.15,3.15,3.15
51,3.92,0.79,3.92,0.79,-0.79,-0.75,3.13,3.13,3.13
52,3.96,0.85,3.96,0.85,-0.85,-0.86,3.11,3.11,3.11
53,4.00,0.91,3.99,0.91,-0.91,-0.95,3.09,3.08,3.09
54,4.03,0.97,4.03,0.97,-0.97,-1.05,3.06,3.06,3.06
55,4.06,1.02,4.06,1.03,-1.03,-1.13,3.04,3.03,3.04
56,4.09,1.08,4.09,1.08,-1.08,-1.22,3.01,3.01,3.01
57,4.12,1.13,4.12,1.14,-1.14,-1.30,2.98,2.98,2.99
58,4.15,1.19,4.16,1.20,-1.20,-1.38,2.95,2.95,2.96
59,4.17,1.24,4.19,1.26,-1.26,-1.45,2.91,2.93,2.93
60,4.20,1.30,4.22,1.32,-1.32,-1.51,2.88,2.90,2.91
61,4.24,1.36,4.26,1.38,-1.38,-1.57,2.86,2.87,2.88
62,4.28,1.43,4.29,1.44,-1.44,-1.63,2.84,2.84,2.85
63,4.32,1.50,4.31,1.50,-1.50,-1.68,2.82,2.81,2.82
64,4.36,1.57,4.34,1.55,-1.55,-1.72,2.81,2.78,2.79
65,4.39,1.63,4.36,1.61,-1.61,-1.76,2.78,2.75,2.76
66,4.41,1.69,4.38,1.66,-1.66,-1.80,2.75,2.72,2.73
67,4.41,1.72,4.40,1.71,-1.71,-1.84,2.70,2.69,2.69
68,4.42,1.76,4.42,1.76,-1.76,-1.87,2.66,2.66,2.66
69,4.42,1.79,4.43,1.81,-1.81,-1.90,2.61,2.62,2.63
70,4.43,1.84,4.45,1.86,-1.86,-1.93,2.57,2.59,2.60
71,4.43,1.87,4.46,1.90,-1.90,-1.96,2.53,2.56,2.56
72,4.45,1.92,4.47,1.95,-1.95,-1.99,2.50,2.52,2.53
73,4.47,1.98,4.48,2.00,-2.00,-2.02,2.47,2.48,2.49
74,4.51,2.05,4.50,2.05,-2.05,-2.05,2.46,2.45,2.46
75,4.53,2.11,4.51,2.10,-2.10,-2.08,2.43,2.42,2.42
76,4.54,2.15,4.53,2.15,-2.15,-2.11,2.39,2.38,2.39
77,4.55,2.20,4.55,2.20,-2.20,-2.14,2.35,2.35,2.35
78,4.56,2.24,4.57,2.25,-2.25,-2.18,2.31,2.32,2.32
79,4.57,2.29,4.59,2.30,-2.30,-2.21,2.27,2.28,2.28
80,4.60,2.36,4.60,2.36,-2.36,-2.25,2.24,2.25,2.24
81,4.62,2.41,4.62,2.41,-2.41,-2.29,2.21,2.21,2.21
82,4.64,2.47,4.64,2.46,-2.46,-2.33,2.18,2.17,2.17
83,4.66,2.53,4.65,2.52,-2.52,-2.38,2.14,2.13,2.14
84,4.67,2.57,4.67,2.57,-2.57,-2.42,2.10,2.10,2.10
85,4.69,2.63,4.68,2.62,-2.62,-2.47,2.07,2.06,2.06
86,4.69,2.66,4.70,2.67,-2.67,-2.52,2.02,2.03,2.03
87,4.71,2.72,4.72,2.73,-2.73,-2.57,1.98,1.99,1.99
88,4.72,2.77,4.73,2.78,-2.78,-2.63,1.94,1.95,1.95
89,4.75,2.83,4.75,2.83,-2.83,-2.68,1.92,1.92,1.92
90,4.76,2.88,4.76,2.88,-2.88,-2.74,1.88,1.88,1.88
91,4.77,2.92,4.78,2.93,-2.93,-2.80,1.84,1.85,1.85
92,4.80,2.99,4.80,2.98,-2.98,-2.86,1.82,1.81,1.81
93,4.81,3.04,4.81,3.03,-3.03,-2.93,1.78,1.78,1.78
94,4.83,3.09,4.83,3.08,-3.08,-2.99,1.75,1.74,1.74
95,4.83,3.13,4.84,3.13,-3.13,-3.06,1.70,1.71,1.71
96,4.85,3.18,4.85,3.18,-3.18,-3.13,1.67,1.67,1.67
97,4.88,3.24,4.86,3.23,-3.23,-3.20,1.65,1.63,1.64
98,4.89,3.29,4.87,3.28,-3.28,-3.27,1.61,1.60,1.60
99,4.89,3.32,4.88,3.32,-3.32,-3.34,1.57,1.56,1.57
100,4.90,3.37,4.89,3.37,-3.37,-3.41,1.53,1.52,1.53
101,4.90,3.40,4.90,3.42,-3.42,-3.48,1.48,1.49,1.50
102,4.89,3.42,4.91,3.46,-3.46,-3.55,1.43,1.45,1.47
104,4.90,3.50,4.92,3.51,-3.51,-3.70,1.39,1.41,1.40
105,4.92,3.55,4.93,3.55,-3.55,-3.77,1.37,1.38,1.37
106,4.93,3.59,4.95,3.60,-3.60,-3.84,1.33,1.35,1.34
107,4.95,3.64,4.96,3.64,-3.64,-3.91,1.31,1.31,1.31
108,4.97,3.69,4.97,3.69,-3.69,-3.97,1.28,1.28,1.28
109,4.99,3.74,4.98,3.73,-3.73,-4.04,1.26,1.25,1.25
110,5.00,3.78,4.99,3.77,-3.77,-4.10,1.23,1.22,1.22
111,5.01,3.82,4.99,3.81,-3.81,-4.16,1.20,1.18,1.19
112,5.01,3.85,5.00,3.85,-3.85,-4.22,1.16,1.15,1.16
113,5.02,3.89,5.01,3.89,-3.89,-4.28,1.14,1.12,1.13
114,5.01,3.91,5.01,3.92,-3.92,-4.33,1.09,1.09,1.11
115,5.02,3.94,5.02,3.96,-3.96,-4.38,1.06,1.06,1.08
117,5.01,3.99,5.02,4.00,-4.00,-4.47,1.02,1.03,1.02
118,5.00,4.00,5.03,4.03,-4.03,-4.51,0.97,1.00,1.00
119,5.00,4.03,5.03,4.06,-4.06,-4.54,0.94,0.97,0.97
120,5.01,4.07,5.03,4.10,-4.10,-4.57,0.91,0.94,0.95
121,5.02,4.10,5.03,4.13,-4.13,-4.60,0.89,0.91,0.92
123,5.05,4.18,5.03,4.16,-4.16,-4.64,0.89,0.87,0.87
124,5.06,4.21,5.03,4.18,-4.18,-4.66,0.88,0.84,0.85
125,5.06,4.24,5.02,4.21,-4.21,-4.67,0.85,0.81,0.82
126,5.05,4.25,5.02,4.23,-4.23,-4.68,0.82,0.78,0.80
128,5.02,4.26,5.01,4.25,-4.25,-4.68,0.77,0.76,0.76
129,4.99,4.26,5.00,4.27,-4.27,-4.68,0.72,0.73,0.74
130,4.96,4.25,5.00,4.29,-4.29,-4.67,0.67,0.71,0.71
131,4.95,4.26,4.98,4.30,-4.30,-4.66,0.65,0.68,0.69
133,4.93,4.28,4.97,4.32,-4.32,-4.63,0.61,0.65,0.65
134,4.94,4.31,4.95,4.33,-4.33,-4.62,0.61,0.62,0.63
135,4.95,4.34,4.93,4.34,-4.34,-4.60,0.61,0.59,0.61
137,4.95,4.37,4.92,4.35,-4.35,-4.55,0.60,0.57,0.58
138,4.93,4.37,4.90,4.36,-4.36,-4.52,0.57,0.54,0.56
140,4.90,4.38,4.89,4.37,-4.37,-4.47,0.53,0.52,0.52
141,4.88,4.38,4.88,4.39,-4.39,-4.44,0.50,0.50,0.51
142,4.86,4.37,4.87,4.40,-4.40,-4.41,0.46,0.48,0.49
144,4.83,4.38,4.86,4.41,-4.41,-4.35,0.43,0.46,0.46
145,4.82,4.38,4.85,4.41,-4.41,-4.32,0.41,0.43,0.44
147,4.81,4.40,4.83,4.42,-4.42,-4.25,0.39,0.41,0.41
148,4.82,4.43,4.81,4.43,-4.43,-4.22,0.39,0.38,0.39
150,4.82,4.46,4.79,4.44,-4.44,-4.16,0.39,0.36,0.36
151,4.81,4.46,4.78,4.44,-4.44,-4.13,0.37,0.34,0.35
153,4.79,4.47,4.76,4.44,-4.44,-4.07,0.35,0.32,0.32
154,4.76,4.45,4.75,4.45,-4.45,-4.04,0.31,0.30,0.31
156,4.71,4.43,4.73,4.45,-4.45,-3.98,0.26,0.28,0.28
157,4.70,4.43,4.72,4.46,-4.46,-3.95,0.25,0.26,0.27
159,4.66,4.41,4.70,4.46,-4.46,-3.90,0.20,0.24,0.25
160,4.65,4.41,4.68,4.46,-4.46,-3.88,0.19,0.22,0.24
162,4.65,4.44,4.67,4.46,-4.46,-3.83,0.19,0.21,0.21
164,4.65,4.46,4.65,4.46,-4.46,-3.79,0.19,0.19,0.19
165,4.64,4.46,4.62,4.45,-4.45,-3.77,0.19,0.17,0.18
167,4.63,4.47,4.60,4.45,-4.45,-3.73,0.18,0.15,0.16
169,4.60,4.46,4.58,4.44,-4.44,-3.70,0.16,0.14,0.14
170,4.58,4.45,4.56,4.43,-4.43,-3.68,0.15,0.12,0.13
172,4.54,4.43,4.53,4.42,-4.42,-3.66,0.12,0.11,0.11
174,4.50,4.41,4.50,4.41,-4.41,-3.64,0.09,0.09,0.09
175,4.48,4.39,4.48,4.40,-4.40,-3.63,0.08,0.08,0.09
177,4.44,4.37,4.45,4.39,-4.39,-3.61,0.05,0.06,0.07
179,4.39,4.34,4.42,4.37,-4.37,-3.60,0.02,0.05,0.05
181,4.36,4.32,4.39,4.36,-4.36,-3.59,0.00,0.03,0.04
183,4.33,4.31,4.36,4.34,-4.34,-3.58,-0.01,0.02,0.02
184,4.32,4.31,4.33,4.32,-4.32,-3.58,-0.00,0.01,0.02
186,4.30,4.30,4.30,4.31,-4.31,-3.58,-0.00,-0.01,0.00
188,4.29,4.30,4.27,4.29,-4.29,-3.58,0.01,-0.02,-0.01
190,4.26,4.29,4.23,4.27,-4.27,-3.59,-0.00,-0.03,-0.03
192,4.23,4.27,4.20,4.24,-4.24,-3.59,-0.01,-0.04,-0.04
194,4.19,4.24,4.16,4.22,-4.22,-3.60,-0.03,-0.06,-0.05
196,4.14,4.20,4.13,4.20,-4.20,-3.62,-0.05,-0.07,-0.06
198,4.08,4.15,4.09,4.17,-4.17,-3.63,-0.09,-0.08,-0.07
200,4.04,4.12,4.06,4.14,-4.14,-3.65,-0.10,-0.09,-0.08
202,4.00,4.09,4.02,4.12,-4.12,-3.67,-0.12,-0.10,-0.09
204,3.96,4.06,3.98,4.10,-4.10,-3.69,-0.13,-0.11,-0.10
206,3.93,4.04,3.95,4.07,-4.07,-3.71,-0.14,-0.12,-0.11
208,3.89,4.01,3.91,4.05,-4.05,-3.73,-0.15,-0.13,-0.12
210,3.88,4.01,3.88,4.02,-4.02,-3.75,-0.14,-0.14,-0.13
212,3.85,3.99,3.85,4.00,-4.00,-3.77,-0.15,-0.15,-0.14
214,3.83,3.98,3.82,3.98,-3.98,-3.80,-0.15,-0.15,-0.15
216,3.81,3.97,3.79,3.95,-3.95,-3.82,-0.14,-0.16,-0.16
218,3.79,3.96,3.76,3.93,-3.93,-3.85,-0.14,-0.17,-0.16
221,3.75,3.93,3.73,3.91,-3.91,-3.88,-0.16,-0.18,-0.18
223,3.71,3.89,3.70,3.88,-3.88,-3.90,-0.17,-0.18,-0.18
225,3.67,3.86,3.67,3.86,-3.86,-3.92,-0.19,-0.19,-0.19
227,3.63,3.83,3.64,3.84,-3.84,-3.94,-0.21,-0.20,-0.20
229,3.60,3.80,3.60,3.81,-3.81,-3.96,-0.21,-0.21,-0.20
232,3.55,3.76,3.57,3.79,-3.79,-3.99,-0.24,-0.22,-0.21
234,3.52,3.74,3.54,3.77,-3.77,-4.01,-0.25,-0.22,-0.22
236,3.51,3.73,3.52,3.75,-3.75,-4.02,-0.24,-0.23,-0.22
239,3.49,3.72,3.49,3.73,-3.73,-4.04,-0.24,-0.24,-0.23
241,3.47,3.71,3.47,3.72,-3.72,-4.05,-0.24,-0.24,-0.24
244,3.45,3.70,3.45,3.70,-3.70,-4.06,-0.25,-0.25,-0.24
246,3.44,3.69,3.44,3.69,-3.69,-4.06,-0.25,-0.25,-0.25
248,3.43,3.69,3.43,3.68,-3.68,-4.06,-0.25,-0.26,-0.25
251,3.42,3.68,3.41,3.68,-3.68,-4.06,-0.25,-0.26,-0.26
253,3.41,3.68,3.40,3.67,-3.67,-4.06,-0.26,-0.27,-0.27
256,3.39,3.66,3.39,3.66,-3.66,-4.06,-0.27,-0.27,-0.27
259,3.38,3.66,3.38,3.66,-3.66,-4.04,-0.28,-0.28,-0.28
261,3.37,3.65,3.37,3.65,-3.65,-4.04,-0.28,-0.28,-0.28
264,3.36,3.65,3.36,3.65,-3.65,-4.02,-0.29,-0.29,-0.29
266,3.35,3.64,3.35,3.64,-3.64,-4.01,-0.29,-0.29,-0.29
269,3.34,3.64,3.34,3.64,-3.64,-3.99,-0.30,-0.30,-0.30
272,3.33,3.63,3.33,3.64,-3.64,-3.96,-0.30,-0.30,-0.30
274,3.33,3.64,3.33,3.63,-3.63,-3.95,-0.30,-0.31,-0.30
277,3.32,3.63,3.32,3.63,-3.63,-3.92,-0.31,-0.31,-0.31
280,3.31,3.62,3.31,3.62,-3.62,-3.90,-0.31,-0.31,-0.31
283,3.30,3.62,3.30,3.62,-3.62,-3.87,-0.32,-0.32,-0.32
286,3.30,3.62,3.30,3.62,-3.62,-3.84,-0.32,-0.32,-0.32
288,3.29,3.62,3.29,3.62,-3.62,-3.82,-0.33,-0.33,-0.32
291,3.29,3.62,3.29,3.62,-3.62,-3.79,-0.33,-0.33,-0.33
294,3.28,3.61,3.29,3.62,-3.62,-3.77,-0.34,-0.33,-0.33
297,3.28,3.62,3.28,3.62,-3.62,-3.74,-0.34,-0.34,-0.34
300,3.28,3.62,3.28,3.62,-3.62,-3.72,-0.34,-0.34,-0.34
303,3.27,3.61,3.27,3.62,-3.62,-3.69,-0.35,-0.34,-0.34
306,3.27,3.62,3.27,3.62,-3.62,-3.67,-0.35,-0.35,-0.35
309,3.27,3.62,3.27,3.62,-3.62,-3.65,-0.35,-0.35,-0.35
312,3.27,3.62,3.27,3.62,-3.62,-3.63,-0.35,-0.35,-0.35
316,3.27,3.63,3.27,3.62,-3.62,-3.61,-0.35,-0.36,-0.35
319,3.26,3.62,3.26,3.62,-3.62,-3.60,-0.36,-0.36,-0.36
322,3.26,3.62,3.26,3.63,-3.63,-3.58,-0.36,-0.36,-0.36
325,3.26,3.62,3.26,3.63,-3.63,-3.57,-0.37,-0.36,-0.36
328,3.26,3.63,3.26,3.63,-3.63,-3.57,-0.37,-0.37,-0.37
332,3.26,3.63,3.26,3.63,-3.63,-3.56,-0.37,-0.37,-0.37
335,3.25,3.62,3.26,3.63,-3.63,-3.55,-0.38,-0.37,-0.37
338,3.25,3.62,3.26,3.63,-3.63,-3.55,-0.38,-0.37,-0.37
342,3.25,3.63,3.25,3.63,-3.63,-3.56,-0.38,-0.38,-0.38
345,3.25,3.63,3.24,3.62,-3.62,-3.56,-0.37,-0.38,-0.38
349,3.24,3.62,3.24,3.62,-3.62,-3.57,-0.38,-0.38,-0.38
352,3.24,3.62,3.23,3.61,-3.61,-3.58,-0.37,-0.38,-0.38
356,3.23,3.62,3.22,3.60,-3.60,-3.59,-0.37,-0.38,-0.38
359,3.21,3.60,3.20,3.59,-3.59,-3.61,-0.38,-0.39,-0.39
363,3.19,3.58,3.19,3.58,-3.58,-3.63,-0.39,-0.39,-0.39
366,3.18,3.57,3.18,3.57,-3.57,-3.64,-0.39,-0.39,-0.39
370,3.16,3.55,3.16,3.56,-3.56,-3.67,-0.39,-0.39,-0.39
374,3.14,3.53,3.15,3.54,-3.54,-3.70,-0.40,-0.39,-0.39
377,3.13,3.53,3.14,3.53,-3.53,-3.72,-0.40,-0.40,-0.39
381,3.12,3.52,3.12,3.52,-3.52,-3.75,-0.40,-0.40,-0.40
385,3.11,3.51,3.11,3.51,-3.51,-3.79,-0.40,-0.40,-0.40
389,3.10,3.50,3.10,3.51,-3.51,-3.83,-0.41,-0.40,-0.40
393,3.10,3.50,3.10,3.50,-3.50,-3.87,-0.40,-0.40,-0.40
397,3.10,3.50,3.10,3.50,-3.50,-3.91,-0.40,-0.40,-0.40
401,3.10,3.51,3.10,3.51,-3.51,-3.95,-0.41,-0.41,-0.40
405,3.11,3.52,3.11,3.52,-3.52,-3.99,-0.40,-0.41,-0.41
409,3.12,3.53,3.12,3.53,-3.53,-4.03,-0.41,-0.41,-0.41
413,3.13,3.54,3.13,3.55,-3.55,-4.08,-0.41,-0.41,-0.41
417,3.15,3.56,3.15,3.57,-3.57,-4.12,-0.42,-0.42,-0.41
421,3.17,3.58,3.18,3.60,-3.60,-4.16,-0.43,-0.42,-0.41
425,3.19,3.61,3.20,3.63,-3.63,-4.20,-0.44,-0.43,-0.41
430,3.24,3.66,3.24,3.67,-3.67,-4.26,-0.43,-0.43,-0.42
434,3.27,3.69,3.28,3.71,-3.71,-4.30,-0.44,-0.43,-0.42
438,3.32,3.74,3.33,3.76,-3.76,-4.33,-0.44,-0.43,-0.42
443,3.39,3.81,3.39,3.82,-3.82,-4.38,-0.43,-0.43,-0.42
447,3.43,3.85,3.45,3.88,-3.88,-4.41,-0.44,-0.42,-0.42
451,3.48,3.89,3.51,3.93,-3.93,-4.44,-0.45,-0.42,-0.41
456,3.56,3.97,3.58,3.99,-3.99,-4.48,-0.43,-0.41,-0.41
460,3.62,4.02,3.64,4.05,-4.05,-4.50,-0.43,-0.41,-0.40
465,3.71,4.11,3.70,4.10,-4.10,-4.53,-0.39,-0.40,-0.40
470,3.79,4.18,3.76,4.15,-4.15,-4.54,-0.36,-0.39,-0.39
474,3.84,4.22,3.80,4.19,-4.19,-4.56,-0.34,-0.38,-0.38
479,3.89,4.26,3.85,4.22,-4.22,-4.56,-0.33,-0.37,-0.37
484,3.91,4.27,3.88,4.24,-4.24,-4.56,-0.33,-0.36,-0.36
489,3.91,4.25,3.91,4.25,-4.25,-4.56,-0.34,-0.34,-0.34
494,3.92,4.25,3.93,4.25,-4.25,-4.55,-0.33,-0.33,-0.33
499,3.92,4.24,3.93,4.25,-4.25,-4.53,-0.33,-0.31,-0.32
504,3.91,4.21,3.93,4.23,-4.23,-4.50,-0.32,-0.30,-0.30
509,3.90,4.18,3.91,4.20,-4.20,-4.47,-0.30,-0.28,-0.28
514,3.89,4.16,3.89,4.16,-4.16,-4.43,-0.27,-0.27,-0.27
519,3.87,4.12,3.86,4.11,-4.11,-4.39,-0.24,-0.25,-0.25
524,3.84,4.07,3.82,4.05,-4.05,-4.34,-0.21,-0.23,-0.23
529,3.79,4.01,3.77,3.99,-3.99,-4.28,-0.20,-0.21,-0.21
535,3.74,3.94,3.72,3.92,-3.92,-4.21,-0.17,-0.19,-0.19
540,3.68,3.86,3.67,3.84,-3.84,-4.15,-0.16,-0.17,-0.17
545,3.62,3.77,3.61,3.76,-3.76,-4.08,-0.14,-0.15,-0.15
551,3.54,3.67,3.55,3.67,-3.67,-4.00,-0.13,-0.13,-0.13
556,3.49,3.59,3.48,3.59,-3.59,-3.92,-0.10,-0.10,-0.10
562,3.41,3.49,3.42,3.50,-3.50,-3.83,-0.09,-0.08,-0.08
568,3.35,3.40,3.36,3.42,-3.42,-3.74,-0.07,-0.06,-0.05
573,3.30,3.32,3.31,3.34,-3.34,-3.65,-0.04,-0.03,-0.02
579,3.25,3.24,3.27,3.27,-3.27,-3.56,-0.02,-0.01,0.01
585,3.22,3.18,3.23,3.21,-3.21,-3.46,0.01,0.02,0.04
591,3.20,3.13,3.21,3.16,-3.16,-3.36,0.04,0.05,0.07
596,3.18,3.08,3.20,3.12,-3.12,-3.27,0.06,0.08,0.10
602,3.18,3.05,3.20,3.09,-3.09,-3.17,0.09,0.11,0.13
608,3.19,3.03,3.21,3.07,-3.07,-3.07,0.13,0.14,0.16
615,3.22,3.03,3.23,3.05,-3.05,-2.96,0.17,0.18,0.19
621,3.24,3.02,3.26,3.05,-3.05,-2.86,0.19,0.21,0.22
627,3.29,3.04,3.30,3.05,-3.05,-2.76,0.24,0.25,0.26
633,3.33,3.04,3.34,3.06,-3.06,-2.66,0.27,0.28,0.29
639,3.39,3.07,3.39,3.07,-3.07,-2.57,0.32,0.32,0.32
646,3.45,3.10,3.43,3.08,-3.08,-2.46,0.37,0.35,0.35
652,3.50,3.12,3.48,3.09,-3.09,-2.37,0.41,0.39,0.38
659,3.55,3.13,3.53,3.10,-3.10,-2.26,0.45,0.43,0.42
665,3.59,3.14,3.57,3.11,-3.11,-2.17,0.48,0.46,0.45
672,3.63,3.14,3.61,3.12,-3.12,-2.07,0.51,0.49,0.49
679,3.66,3.14,3.65,3.13,-3.13,-1.97,0.54,0.53,0.53
686,3.69,3.13,3.69,3.13,-3.13,-1.88,0.56,0.56,0.56
692,3.72,3.12,3.72,3.13,-3.13,-1.80,0.59,0.59,0.60
699,3.74,3.10,3.75,3.12,-3.12,-1.71,0.62,0.63,0.64
706,3.76,3.08,3.78,3.12,-3.12,-1.62,0.64,0.66,0.68
713,3.78,3.07,3.81,3.11,-3.11,-1.53,0.67,0.70,0.71
721,3.80,3.05,3.84,3.10,-3.10,-1.43,0.70,0.74,0.75
728,3.83,3.04,3.86,3.08,-3.08,-1.35,0.75,0.78,0.79
735,3.85,3.02,3.88,3.06,-3.06,-1.26,0.79,0.82,0.83
742,3.88,3.01,3.90,3.04,-3.04,-1.18,0.85,0.86,0.87
750,3.91,3.00,3.90,3.00,-3.00,-1.09,0.91,0.91,0.91
757,3.92,2.97,3.90,2.95,-2.95,-1.02,0.97,0.95,0.95
765,3.90,2.91,3.87,2.88,-2.88,-0.93,1.02,0.99,0.99
773,3.87,2.85,3.83,2.80,-2.80,-0.85,1.07,1.03,1.02
780,3.82,2.76,3.78,2.71,-2.71,-0.78,1.11,1.07,1.06
788,3.74,2.65,3.70,2.59,-2.59,-0.70,1.15,1.10,1.10
796,3.64,2.51,3.60,2.46,-2.46,-0.63,1.18,1.14,1.13
804,3.50,2.34,3.48,2.31,-2.31,-0.55,1.19,1.17,1.16
812,3.36,2.17,3.34,2.14,-2.14,-0.48,1.22,1.20,1.20
820,3.19,1.96,3.19,1.96,-1.96,-0.41,1.24,1.23,1.23
828,3.01,1.75,3.02,1.76,-1.76,-0.34,1.25,1.26,1.26
837,2.81,1.52,2.84,1.55,-1.55,-0.26,1.26,1.29,1.29
845,2.63,1.31,2.65,1.33,-1.33,-0.20,1.30,1.32,1.32
853,2.45,1.10,2.46,1.11,-1.11,-0.14,1.34,1.35,1.35
862,2.26,0.88,2.26,0.88,-0.88,-0.07,1.38,1.38,1.38
871,2.06,0.65,2.06,0.66,-0.66,-0.00,1.40,1.41,1.41
879,1.88,0.44,1.87,0.44,-0.44,0.05,1.45,1.43,1.44
888,1.68,0.21,1.67,0.22,-0.22,0.12,1.46,1.46,1.47
897,1.48,-0.02,1.48,0.00,-0.00,0.17,1.48,1.48,1.50
906,1.30,-0.22,1.30,-0.20,0.20,0.23,1.51,1.51,1.52
915,1.12,-0.43,1.13,-0.41,0.41,0.28,1.53,1.53,1.55
924,0.95,-0.63,0.96,-0.60,0.60,0.33,1.55,1.56,1.58
933,0.78,-0.82,0.81,-0.78,0.78,0.38,1.56,1.59,1.60
943,0.63,-1.00,0.66,-0.96,0.96,0.43,1.59,1.62,1.63
952,0.50,-1.15,0.52,-1.13,1.13,0.48,1.63,1.65,1.66
962,0.37,-1.31,0.39,-1.29,1.29,0.52,1.66,1.68,1.68
971,0.27,-1.44,0.27,-1.44,1.44,0.56,1.71,1.71,1.71
981,0.18,-1.55,0.16,-1.58,1.58,0.60,1.76,1.74,1.73
991,0.08,-1.68,0.05,-1.72,1.72,0.63,1.80,1.77,1.76
1001,-0.01,-1.80,-0.05,-1.84,1.84,0.66,1.83,1.79,1.79
1011,-0.09,-1.90,-0.14,-1.96,1.96,0.69,1.87,1.81,1.81
1021,-0.18,-2.02,-0.22,-2.06,2.06,0.72,1.88,1.83,1.84
1031,-0.26,-2.13,-0.29,-2.14,2.14,0.75,1.88,1.85,1.87
1041,-0.33,-2.22,-0.34,-2.20,2.20,0.77,1.87,1.86,1.89
1052,-0.38,-2.30,-0.37,-2.24,2.24,0.79,1.86,1.88,1.92
1062,-0.41,-2.36,-0.36,-2.26,2.26,0.81,1.85,1.89,1.95
1073,-0.40,-2.38,-0.34,-2.25,2.25,0.83,1.85,1.91,1.98
1084,-0.36,-2.37,-0.27,-2.21,2.21,0.84,1.85,1.94,2.01
1094,-0.29,-2.33,-0.18,-2.14,2.14,0.85,1.85,1.96,2.04
1105,-0.16,-2.23,-0.05,-2.05,2.05,0.86,1.89,2.00,2.07
1116,0.02,-2.08,0.11,-1.93,1.93,0.87,1.95,2.04,2.10
1128,0.24,-1.89,0.29,-1.79,1.79,0.88,2.04,2.09,2.13
1139,0.47,-1.69,0.49,-1.65,1.65,0.89,2.12,2.14,2.16
1150,0.70,-1.49,0.69,-1.50,1.50,0.90,2.20,2.19,2.19
1162,0.94,-1.29,0.88,-1.35,1.35,0.91,2.29,2.23,2.23
1173,1.15,-1.11,1.07,-1.21,1.21,0.91,2.36,2.28,2.26
1185,1.35,-0.94,1.23,-1.08,1.08,0.92,2.43,2.31,2.29
1197,1.50,-0.82,1.38,-0.97,0.97,0.92,2.47,2.35,2.32
1209,1.62,-0.73,1.50,-0.88,0.88,0.93,2.50,2.38,2.35
1221,1.66,-0.72,1.59,-0.82,0.82,0.93,2.48,2.41,2.39
1233,1.67,-0.75,1.66,-0.78,0.78,0.93,2.45,2.44,2.42
1246,1.67,-0.78,1.70,-0.77,0.77,0.94,2.44,2.47,2.45
1258,1.65,-0.83,1.72,-0.79,0.79,0.94,2.44,2.51,2.48
1271,1.63,-0.88,1.71,-0.83,0.83,0.95,2.47,2.54,2.52
1283,1.63,-0.92,1.68,-0.90,0.90,0.95,2.53,2.58,2.55
1296,1.61,-0.98,1.63,-0.98,0.98,0.96,2.59,2.60,2.59
1309,1.60,-1.02,1.56,-1.07,1.07,0.97,2.67,2.63,2.62
1322,1.56,-1.10,1.48,-1.17,1.17,0.97,2.73,2.65,2.66
1335,1.50,-1.19,1.40,-1.28,1.28,0.98,2.78,2.68,2.69
1349,1.41,-1.32,1.32,-1.39,1.39,0.99,2.80,2.70,2.73
1362,1.29,-1.48,1.24,-1.49,1.49,1.00,2.78,2.73,2.77
1376,1.16,-1.65,1.17,-1.59,1.59,1.01,2.75,2.76,2.81
1390,1.04,-1.80,1.11,-1.68,1.68,1.02,2.72,2.79,2.84
1404,0.95,-1.93,1.07,-1.75,1.75,1.03,2.70,2.82,2.88
1418,0.90,-2.02,1.04,-1.81,1.81,1.04,2.71,2.85,2.92
1432,0.92,-2.04,1.02,-1.85,1.85,1.06,2.77,2.87,2.96
1446,0.97,-2.03,1.03,-1.87,1.87,1.07,2.84,2.90,3.00
1461,1.04,-2.00,1.06,-1.87,1.87,1.09,2.91,2.93,3.04
1475,1.15,-1.93,1.12,-1.85,1.85,1.10,3.00,2.97,3.08
1490,1.26,-1.85,1.20,-1.82,1.82,1.12,3.08,3.02,3.12
1505,1.35,-1.80,1.31,-1.76,1.76,1.13,3.11,3.07,3.16
1520,1.45,-1.75,1.43,-1.70,1.70,1.15,3.15,3.13,3.20
1535,1.55,-1.69,1.57,-1.62,1.62,1.17,3.17,3.19,3.24
1550,1.66,-1.62,1.71,-1.54,1.54,1.19,3.20,3.25,3.28
1566,1.81,-1.51,1.86,-1.44,1.44,1.21,3.25,3.30,3.33
1582,1.98,-1.39,2.01,-1.35,1.35,1.24,3.33,3.35,3.37
1597,2.14,-1.27,2.15,-1.25,1.25,1.26,3.39,3.40,3.41
1613,2.32,-1.14,2.29,-1.15,1.15,1.28,3.47,3.45,3.46
1629,2.47,-1.03,2.43,-1.06,1.06,1.30,3.53,3.49,3.51
1646,2.61,-0.94,2.57,-0.98,0.98,1.33,3.59,3.54,3.55
1662,2.73,-0.87,2.69,-0.90,0.90,1.35,3.64,3.60,3.60
1679,2.84,-0.80,2.81,-0.84,0.84,1.38,3.68,3.65,3.64
1696,2.94,-0.75,2.92,-0.78,0.78,1.40,3.72,3.70,3.69
1713,3.02,-0.72,3.02,-0.73,0.73,1.43,3.75,3.75,3.74
1730,3.09,-0.70,3.10,-0.70,0.70,1.46,3.79,3.80,3.79
1747,3.15,-0.68,3.16,-0.67,0.67,1.48,3.83,3.84,3.83
1764,3.20,-0.68,3.22,-0.66,0.66,1.51,3.86,3.89,3.88
1782,3.26,-0.67,3.27,-0.67,0.67,1.53,3.93,3.93,3.93
1800,3.30,-0.68,3.30,-0.69,0.69,1.56,3.99,3.99,3.98
1818,3.34,-0.70,3.33,-0.72,0.72,1.58,4.06,4.05,4.04
1836,3.36,-0.73,3.34,-0.77,0.77,1.61,4.13,4.11,4.09
1854,3.36,-0.79,3.35,-0.83,0.83,1.63,4.19,4.18,4.15
1873,3.36,-0.86,3.34,-0.89,0.89,1.66,4.25,4.24,4.22
1892,3.36,-0.92,3.33,-0.97,0.97,1.68,4.33,4.30,4.28
1911,3.33,-1.02,3.31,-1.06,1.06,1.70,4.39,4.36,4.35
1930,3.31,-1.11,3.28,-1.14,1.14,1.72,4.45,4.42,4.42
1949,3.28,-1.22,3.25,-1.23,1.23,1.75,4.51,4.48,4.50
1969,3.23,-1.35,3.21,-1.33,1.33,1.77,4.56,4.54,4.58
1988,3.20,-1.46,3.18,-1.42,1.42,1.78,4.62,4.60,4.66
2008,3.17,-1.58,3.16,-1.50,1.50,1.80,4.67,4.66,4.75
2028,3.15,-1.69,3.16,-1.57,1.57,1.82,4.73,4.74,4.84
