frequency,raw
20,-0.49
21,0.23
22,0.91
23,1.42
24,2.06
25,2.52
26,3.01
27,3.53
28,3.80
29,4.20
30,4.54
31,4.79
32,5.10
33,5.33
34,5.51
35,5.83
36,5.99
37,6.16
38,6.27
39,6.49
40,6.53
41,6.81
42,6.81
43,6.81
44,6.81
45,6.81
46,6.81
47,6.81
48,6.81
49,6.81
50,6.81
51,6.81
52,6.81
53,6.81
54,6.81
55,6.81
56,6.81
57,6.81
58,6.81
59,6.81
60,6.81
61,6.81
62,6.81
63,6.81
64,6.81
65,6.81
66,6.81
67,6.81
68,6.81
69,6.81
70,6.81
71,6.78
72,6.62
73,6.49
74,6.49
75,6.49
76,6.49
77,6.49
78,6.49
79,6.49
80,6.40
81,6.26
82,6.16
83,6.16
84,6.16
85,6.16
86,6.07
87,5.94
88,5.84
89,5.84
90,5.84
91,5.76
92,5.63
93,5.51
94,5.51
95,5.43
96,5.31
97,5.20
98,5.19
99,5.13
100,5.02
101,4.90
102,4.86
104,4.86
105,4.79
106,4.68
107,4.58
108,4.54
109,4.54
110,4.54
111,4.54
112,4.54
113,4.35
114,4.22
115,4.22
117,4.22
118,4.22
119,4.19
120,4.09
121,4.00
123,3.89
124,3.89
125,3.89
126,3.87
128,3.69
129,3.60
130,3.57
131,3.57
133,3.57
134,3.57
135,3.57
137,3.41
138,3.33
140,3.24
141,3.24
142,3.16
144,3.01
145,2.93
147,2.92
148,2.92
150,2.87
151,2.80
153,2.65
154,2.59
156,2.59
157,2.59
159,2.54
160,2.47
162,2.33
164,2.27
165,2.27
167,2.27
169,2.27
170,2.27
172,2.14
174,2.11
175,2.10
177,1.97
179,1.95
181,1.95
183,1.95
184,1.95
186,1.95
188,1.95
190,2.07
192,2.19
194,2.27
196,2.27
198,2.27
200,2.27
202,2.27
204,2.27
206,2.27
208,2.27
210,2.27
212,2.27
214,2.27
216,2.27
218,2.27
221,2.27
223,2.27
225,2.27
227,2.27
229,2.27
232,2.27
234,2.18
236,1.99
239,1.95
241,1.95
244,1.92
246,1.82
248,1.73
251,1.62
253,1.62
256,1.54
259,1.41
261,1.32
264,1.30
266,1.27
269,1.14
272,1.01
274,0.97
277,0.97
280,0.97
283,0.89
286,0.77
288,0.69
291,0.65
294,0.62
297,0.51
300,0.39
303,0.32
306,0.32
309,0.32
312,0.28
316,0.13
319,0.03
322,0.00
325,-0.00
328,0.00
332,-0.10
335,-0.20
338,-0.30
342,-0.32
345,-0.32
349,-0.34
352,-0.44
356,-0.56
359,-0.65
363,-0.65
366,-0.65
370,-0.65
374,-0.65
377,-0.80
381,-0.97
385,-0.97
389,-0.97
393,-0.97
397,-0.99
401,-1.10
405,-1.14
409,-1.16
413,-1.27
417,-1.30
421,-1.30
425,-1.30
430,-1.30
434,-1.30
438,-1.30
443,-1.30
447,-1.30
451,-1.30
456,-1.30
460,-1.30
465,-1.31
470,-1.43
474,-1.46
479,-1.48
484,-1.60
489,-1.62
494,-1.62
499,-1.62
504,-1.62
509,-1.74
514,-1.95
519,-1.95
524,-1.95
529,-1.95
535,-1.95
540,-1.95
545,-1.97
551,-2.09
556,-2.11
562,-2.15
568,-2.27
573,-2.27
579,-2.27
585,-2.27
591,-2.27
596,-2.27
602,-2.26
608,-2.15
615,-2.11
621,-2.11
627,-2.11
633,-2.02
639,-1.95
646,-1.95
652,-1.95
659,-1.95
665,-1.95
672,-1.95
679,-1.95
686,-1.95
692,-1.95
699,-1.95
706,-1.95
713,-1.95
721,-1.84
728,-1.78
735,-1.78
742,-1.68
750,-1.62
757,-1.62
765,-1.62
773,-1.54
780,-1.44
788,-1.33
796,-1.30
804,-1.30
812,-1.30
820,-1.20
828,-1.09
837,-0.97
845,-0.97
853,-0.97
862,-0.96
871,-0.85
879,-0.74
888,-0.65
897,-0.65
906,-0.65
915,-0.58
924,-0.36
933,-0.32
943,-0.32
952,-0.32
962,-0.21
971,-0.11
981,0.00
991,-0.00
1001,0.00
1011,0.05
1021,0.28
1031,0.32
1041,0.36
1052,0.48
1062,0.58
1073,0.65
1084,0.65
1094,0.86
1105,0.97
1116,0.99
1128,1.23
1139,1.30
1150,1.34
1162,1.57
1173,1.62
1185,1.66
1197,1.77
1209,1.88
1221,1.95
1233,1.95
1246,2.06
1258,2.17
1271,2.27
1283,2.27
1296,2.34
1309,2.46
1322,2.57
1335,2.59
1349,2.63
1362,2.74
1376,2.86
1390,2.92
1404,2.92
1418,2.92
1432,2.98
1446,3.09
1461,3.21
1475,3.24
1490,3.30
1505,3.52
1520,3.57
1535,3.61
1550,3.72
1566,3.83
1582,3.95
1597,4.05
1613,4.17
1629,4.22
1646,4.23
1662,4.34
1679,4.46
1696,4.54
1713,4.54
1730,4.54
1747,4.54
1764,4.54
1782,4.54
1800,4.54
1818,4.54
1836,4.54
1854,4.48
1873,4.36
1892,4.25
1911,4.06
1930,3.86
1949,3.75
1969,3.54
1988,3.33
2008,3.10
2028,2.77
2048,2.44
2069,2.10
2090,1.87
2111,1.65
2132,1.42
2153,1.20
2175,0.89
2196,0.59
2218,0.37
2240,0.14
2263,0.00
2285,0.00
2308,-0.10
2331,-0.11
2355,0.00
2378,0.00
2402,0.14
2426,0.36
2450,0.58
2475,0.81
2500,1.07
2525,1.41
2550,1.65
2575,1.87
2601,2.10
2627,2.32
2653,2.54
2680,2.77
2707,3.00
2734,3.29
2761,3.63
2789,3.97
2817,4.22
2845,4.45
2873,4.67
2902,4.89
2931,5.16
2960,5.50
2990,5.73
3020,5.96
3050,6.18
3080,6.40
3111,6.63
3142,6.85
3174,7.08
3206,7.31
3238,7.53
3270,7.75
3303,7.88
3336,8.04
3369,8.26
3403,8.38
3437,8.55
3471,8.77
3506,8.88
3541,9.06
3576,9.29
3612,9.51
3648,9.65
3685,9.80
3721,10.02
3759,10.25
3796,10.47
3834,10.70
3873,10.81
3911,10.98
3950,11.21
3990,11.43
4030,11.66
4070,11.86
4111,11.97
4152,12.17
4193,12.39
4235,12.62
4278,12.75
4321,12.91
4364,13.13
4407,13.25
4451,13.36
4496,13.47
4541,13.58
4586,13.62
4632,13.65
4679,13.76
4725,13.87
4773,13.95
4820,13.95
4868,14.04
4917,14.16
4966,14.27
5016,14.27
5066,14.33
5117,14.45
5168,14.56
5220,14.67
5272,14.78
5325,14.90
5378,15.01
5432,15.12
5486,15.23
5541,15.34
5596,15.46
5652,15.57
5709,15.68
5766,15.79
5823,15.92
5882,16.15
5940,16.22
6000,16.22
6060,16.22
6120,16.30
6182,16.38
6244,16.38
6306,16.28
6369,16.22
6433,16.21
6497,16.10
6562,15.92
6628,15.71
6694,15.60
6761,15.41
6828,15.16
6897,14.82
6966,14.58
7035,14.35
7106,14.13
7177,13.69
7249,13.30
7321,12.96
7394,12.63
7468,12.29
7543,11.92
7618,11.36
7694,10.96
7771,10.62
7849,10.28
7928,9.85
8007,9.48
8087,9.26
8168,9.03
8250,8.81
8332,8.59
8415,8.48
8499,8.43
8584,8.42
8670,8.30
8757,8.35
8845,8.43
8933,8.43
9022,8.52
9113,8.64
9204,8.75
9296,8.86
9389,8.97
9483,9.09
9577,9.32
9673,9.54
9770,9.75
9868,9.86
9966,9.97
10066,10.12
10167,10.34
10268,10.38
10371,10.47
10475,10.69
10579,10.70
10685,10.76
10792,10.87
10900,10.98
11009,11.03
11119,11.03
11230,11.03
11343,11.03
11456,11.03
11571,11.03
11686,11.03
11803,11.03
11921,11.03
12040,11.13
12161,11.25
12282,11.35
12405,11.35
12529,11.35
12655,11.33
12781,11.22
12909,11.11
13038,11.03
13168,11.03
13300,10.93
13433,10.82
13567,10.71
13703,10.59
13840,10.48
13978,10.37
14118,10.26
14259,10.14
14402,10.05
14546,10.05
14692,10.05
14838,10.05
14987,10.05
15137,9.96
15288,9.84
15441,9.73
15595,9.51
15751,9.23
15909,8.90
16068,8.67
16229,8.30
16391,7.88
16555,7.54
16720,7.12
16888,6.67
17056,6.22
17227,5.87
17399,5.43
17573,4.87
17749,4.42
17926,3.97
18106,3.51
18287,2.95
18470,2.39
18654,1.85
18841,1.40
19029,1.04
19220,0.66
19412,0.21
19606,-0.04
19802,-0.26
20000,-0.49
