frequency,raw
20,-41.78
21,-41.02
22,-40.28
23,-39.56
24,-38.86
25,-38.18
26,-37.53
27,-36.89
28,-36.28
29,-35.69
30,-35.12
31,-34.52
32,-33.95
33,-33.43
34,-32.97
35,-32.56
36,-32.16
37,-31.78
38,-31.39
39,-30.99
40,-30.57
41,-30.12
42,-29.63
43,-29.11
44,-28.57
45,-28.03
46,-27.44
47,-26.84
48,-26.26
49,-25.69
50,-25.15
51,-24.63
52,-24.14
53,-23.70
54,-23.31
55,-22.95
56,-22.63
57,-22.33
58,-22.05
59,-21.80
60,-21.55
61,-21.30
62,-21.07
63,-20.85
64,-20.62
65,-20.38
66,-20.14
67,-19.91
68,-19.67
69,-19.43
70,-19.19
71,-18.95
72,-18.72
73,-18.47
74,-18.24
75,-18.03
76,-17.80
77,-17.57
78,-17.36
79,-17.16
80,-16.95
81,-16.74
82,-16.55
83,-16.35
84,-16.16
85,-15.98
86,-15.81
87,-15.65
88,-15.49
89,-15.33
90,-15.19
91,-15.05
92,-14.91
93,-14.77
94,-14.65
95,-14.53
96,-14.41
97,-14.29
98,-14.19
99,-14.08
100,-13.97
101,-13.86
102,-13.75
104,-13.63
105,-13.54
106,-13.45
107,-13.35
108,-13.26
109,-13.18
110,-13.10
111,-13.02
112,-12.95
113,-12.87
114,-12.79
115,-12.70
117,-12.62
118,-12.53
119,-12.43
120,-12.34
121,-12.26
123,-12.16
124,-12.06
125,-11.95
126,-11.86
128,-11.76
129,-11.65
130,-11.55
131,-11.45
133,-11.35
134,-11.25
135,-11.15
137,-11.05
138,-10.93
140,-10.82
141,-10.72
142,-10.60
144,-10.48
145,-10.38
147,-10.29
148,-10.19
150,-10.09
151,-10.00
153,-9.90
154,-9.80
156,-9.72
157,-9.63
159,-9.54
160,-9.44
162,-9.36
164,-9.28
165,-9.19
167,-9.10
169,-9.01
170,-8.94
172,-8.85
174,-8.77
175,-8.69
177,-8.62
179,-8.54
181,-8.46
183,-8.38
184,-8.29
186,-8.21
188,-8.14
190,-8.08
192,-8.01
194,-7.94
196,-7.87
198,-7.82
200,-7.76
202,-7.71
204,-7.65
206,-7.60
208,-7.55
210,-7.49
212,-7.44
214,-7.39
216,-7.36
218,-7.31
221,-7.25
223,-7.19
225,-7.14
227,-7.11
229,-7.07
232,-7.02
234,-6.96
236,-6.91
239,-6.86
241,-6.81
244,-6.75
246,-6.68
248,-6.61
251,-6.53
253,-6.47
256,-6.41
259,-6.36
261,-6.30
264,-6.24
266,-6.18
269,-6.13
272,-6.08
274,-6.03
277,-5.98
280,-5.92
283,-5.86
286,-5.81
288,-5.76
291,-5.72
294,-5.67
297,-5.61
300,-5.56
303,-5.51
306,-5.46
309,-5.42
312,-5.38
316,-5.33
319,-5.29
322,-5.27
325,-5.25
328,-5.23
332,-5.19
335,-5.15
338,-5.11
342,-5.07
345,-5.03
349,-5.00
352,-4.98
356,-4.95
359,-4.92
363,-4.90
366,-4.88
370,-4.86
374,-4.84
377,-4.81
381,-4.79
385,-4.77
389,-4.75
393,-4.73
397,-4.70
401,-4.66
405,-4.63
409,-4.60
413,-4.56
417,-4.54
421,-4.51
425,-4.49
430,-4.47
434,-4.47
438,-4.47
443,-4.48
447,-4.49
451,-4.49
456,-4.50
460,-4.51
465,-4.51
470,-4.51
474,-4.50
479,-4.49
484,-4.47
489,-4.44
494,-4.41
499,-4.38
504,-4.34
509,-4.31
514,-4.28
519,-4.24
524,-4.21
529,-4.19
535,-4.17
540,-4.15
545,-4.14
551,-4.16
556,-4.18
562,-4.19
568,-4.18
573,-4.17
579,-4.15
585,-4.12
591,-4.09
596,-4.06
602,-4.03
608,-4.00
615,-3.97
621,-3.95
627,-3.92
633,-3.88
639,-3.84
646,-3.80
652,-3.77
659,-3.75
665,-3.73
672,-3.71
679,-3.67
686,-3.63
692,-3.59
699,-3.54
706,-3.49
713,-3.43
721,-3.37
728,-3.32
735,-3.27
742,-3.22
750,-3.16
757,-3.09
765,-3.03
773,-2.95
780,-2.86
788,-2.79
796,-2.70
804,-2.61
812,-2.51
820,-2.40
828,-2.29
837,-2.18
845,-2.07
853,-1.95
862,-1.83
871,-1.71
879,-1.60
888,-1.48
897,-1.36
906,-1.24
915,-1.12
924,-1.00
933,-0.88
943,-0.75
952,-0.61
962,-0.49
971,-0.36
981,-0.22
991,-0.11
1001,0.01
1011,0.13
1021,0.24
1031,0.35
1041,0.44
1052,0.53
1062,0.62
1073,0.71
1084,0.79
1094,0.87
1105,0.96
1116,1.05
1128,1.12
1139,1.20
1150,1.28
1162,1.36
1173,1.44
1185,1.50
1197,1.58
1209,1.65
1221,1.73
1233,1.80
1246,1.87
1258,1.94
1271,2.01
1283,2.08
1296,2.15
1309,2.22
1322,2.29
1335,2.37
1349,2.45
1362,2.54
1376,2.61
1390,2.69
1404,2.78
1418,2.86
1432,2.94
1446,3.03
1461,3.13
1475,3.23
1490,3.31
1505,3.40
1520,3.50
1535,3.60
1550,3.68
1566,3.76
1582,3.85
1597,3.94
1613,4.01
1629,4.09
1646,4.18
1662,4.25
1679,4.31
1696,4.39
1713,4.46
1730,4.53
1747,4.62
1764,4.71
1782,4.80
1800,4.90
1818,4.99
1836,5.09
1854,5.20
1873,5.31
1892,5.42
1911,5.54
1930,5.67
1949,5.79
1969,5.91
1988,6.04
2008,6.18
2028,6.33
2048,6.49
2069,6.66
2090,6.84
2111,7.04
2132,7.24
2153,7.46
2175,7.68
2196,7.89
2218,8.10
2240,8.31
2263,8.52
2285,8.74
2308,8.94
2331,9.14
2355,9.34
2378,9.52
2402,9.70
2426,9.86
2450,10.03
2475,10.19
2500,10.34
2525,10.49
2550,10.62
2575,10.73
2601,10.82
2627,10.89
2653,10.94
2680,10.98
2707,10.98
2734,10.96
2761,10.93
2789,10.89
2817,10.82
2845,10.74
2873,10.65
2902,10.53
2931,10.40
2960,10.25
2990,10.09
3020,9.91
3050,9.72
3080,9.50
3111,9.27
3142,9.02
3174,8.76
3206,8.51
3238,8.24
3270,7.96
3303,7.65
3336,7.36
3369,7.06
3403,6.77
3437,6.47
3471,6.17
3506,5.87
3541,5.57
3576,5.25
3612,4.94
3648,4.63
3685,4.31
3721,3.99
3759,3.65
3796,3.32
3834,3.00
3873,2.66
3911,2.31
3950,1.95
3990,1.58
4030,1.21
4070,0.84
4111,0.45
4152,0.05
4193,-0.37
4235,-0.80
4278,-1.24
4321,-1.68
4364,-2.12
4407,-2.54
4451,-2.96
4496,-3.37
4541,-3.78
4586,-4.16
4632,-4.50
4679,-4.79
4725,-5.05
4773,-5.27
4820,-5.42
4868,-5.53
4917,-5.58
4966,-5.58
5016,-5.55
5066,-5.47
5117,-5.37
5168,-5.22
5220,-5.05
5272,-4.86
5325,-4.63
5378,-4.38
5432,-4.11
5486,-3.82
5541,-3.50
5596,-3.14
5652,-2.75
5709,-2.32
5766,-1.87
5823,-1.40
5882,-0.90
5940,-0.39
6000,0.11
6060,0.62
6120,1.12
6182,1.61
6244,2.09
6306,2.54
6369,2.96
6433,3.35
6497,3.74
6562,4.10
6628,4.42
6694,4.73
6761,5.03
6828,5.30
6897,5.54
6966,5.76
7035,5.95
7106,6.12
7177,6.26
7249,6.37
7321,6.44
7394,6.50
7468,6.54
7543,6.55
7618,6.53
7694,6.49
7771,6.44
7849,6.37
7928,6.30
8007,6.21
8087,6.13
8168,6.05
8250,5.98
8332,5.93
8415,5.89
8499,5.88
8584,5.90
8670,5.95
8757,6.03
8845,6.14
8933,6.27
9022,6.44
9113,6.63
9204,6.83
9296,7.05
9389,7.28
9483,7.52
9577,7.75
9673,7.98
9770,8.20
9868,8.39
9966,8.56
10066,8.72
10167,8.86
10268,8.97
10371,9.05
10475,9.11
10579,9.15
10685,9.16
10792,9.16
10900,9.13
11009,9.07
11119,9.02
11230,8.95
11343,8.87
11456,8.78
11571,8.69
11686,8.58
11803,8.45
11921,8.30
12040,8.14
12161,7.95
12282,7.74
12405,7.51
12529,7.24
12655,6.94
12781,6.61
12909,6.26
13038,5.90
13168,5.51
13300,5.09
13433,4.65
13567,4.21
13703,3.74
13840,3.25
13978,2.74
14118,2.19
14259,1.61
14402,1.01
14546,0.38
14692,-0.28
14838,-0.96
14987,-1.69
15137,-2.44
15288,-3.22
15441,-4.03
15595,-4.86
15751,-5.69
15909,-6.54
16068,-7.41
16229,-8.31
16391,-9.20
16555,-10.09
16720,-10.98
16888,-11.86
17056,-12.70
17227,-13.51
17399,-14.27
17573,-14.97
17749,-15.61
17926,-16.15
18106,-16.62
18287,-17.00
18470,-17.30
18654,-17.54
18841,-17.70
19029,-17.79
19220,-17.81
19412,-17.76
19606,-17.64
19802,-17.44
20000,-17.18
