frequency,raw
20.00,-41.78
20.20,-41.63
20.40,-41.47
20.61,-41.32
20.81,-41.16
21.02,-41.00
21.23,-40.85
21.44,-40.69
21.66,-40.53
21.87,-40.37
22.09,-40.21
22.31,-40.05
22.54,-39.89
22.76,-39.73
22.99,-39.57
23.22,-39.40
23.45,-39.24
23.69,-39.08
23.92,-38.91
24.16,-38.75
24.40,-38.58
24.65,-38.42
24.89,-38.25
25.14,-38.09
25.39,-37.92
25.65,-37.76
25.91,-37.59
26.16,-37.42
26.43,-37.25
26.69,-37.09
26.96,-36.92
27.23,-36.75
27.50,-36.58
27.77,-36.42
28.05,-36.25
28.33,-36.08
28.62,-35.91
28.90,-35.75
29.19,-35.58
29.48,-35.41
29.78,-35.25
30.08,-35.07
30.38,-34.89
30.68,-34.71
30.99,-34.53
31.30,-34.35
31.61,-34.17
31.93,-33.99
32.24,-33.82
32.57,-33.65
32.89,-33.49
33.22,-33.33
33.55,-33.17
33.89,-33.02
34.23,-32.88
34.57,-32.73
34.92,-32.59
35.27,-32.45
35.62,-32.31
35.97,-32.17
36.33,-32.03
36.70,-31.89
37.06,-31.75
37.43,-31.61
37.81,-31.46
38.19,-31.31
38.57,-31.16
38.95,-31.01
39.34,-30.84
39.74,-30.68
40.14,-30.51
40.54,-30.33
40.94,-30.15
41.35,-29.95
41.76,-29.74
42.18,-29.53
42.60,-29.31
43.03,-29.09
43.46,-28.86
43.90,-28.63
44.33,-28.39
44.78,-28.15
45.23,-27.90
45.68,-27.63
46.13,-27.36
46.60,-27.08
47.06,-26.80
47.53,-26.53
48.01,-26.26
48.49,-25.98
48.97,-25.71
49.46,-25.44
49.96,-25.17
50.46,-24.91
50.96,-24.65
51.47,-24.40
51.99,-24.15
52.51,-23.92
53.03,-23.69
53.56,-23.48
54.10,-23.28
54.64,-23.08
55.18,-22.89
55.74,-22.71
56.29,-22.54
56.86,-22.37
57.42,-22.21
58.00,-22.05
58.58,-21.90
59.16,-21.76
59.76,-21.61
60.35,-21.46
60.96,-21.31
61.57,-21.17
62.18,-21.03
62.80,-20.89
63.43,-20.75
64.07,-20.60
64.71,-20.45
65.35,-20.29
66.01,-20.14
66.67,-19.99
67.33,-19.83
68.01,-19.67
68.69,-19.50
69.37,-19.34
70.07,-19.17
70.77,-19.01
71.48,-18.84
72.19,-18.67
72.91,-18.49
73.64,-18.32
74.38,-18.16
75.12,-18.00
75.87,-17.83
76.63,-17.65
77.40,-17.49
78.17,-17.33
78.95,-17.17
79.74,-17.00
80.54,-16.84
81.35,-16.67
82.16,-16.52
82.98,-16.35
83.81,-16.20
84.65,-16.04
85.50,-15.90
86.35,-15.75
87.22,-15.62
88.09,-15.48
88.97,-15.34
89.86,-15.21
90.76,-15.08
91.66,-14.96
92.58,-14.83
93.51,-14.71
94.44,-14.60
95.39,-14.48
96.34,-14.37
97.30,-14.26
98.28,-14.16
99.26,-14.05
100.25,-13.94
101.25,-13.83
102.27,-13.73
103.29,-13.67
104.32,-13.60
105.37,-13.51
106.42,-13.41
107.48,-13.31
108.56,-13.22
109.64,-13.13
110.74,-13.04
111.85,-12.96
112.97,-12.87
114.10,-12.78
115.24,-12.69
116.39,-12.64
117.55,-12.57
118.73,-12.46
119.92,-12.35
121.12,-12.25
122.33,-12.19
123.55,-12.10
124.79,-11.97
126.03,-11.86
127.29,-11.80
128.57,-11.70
129.85,-11.56
131.15,-11.44
132.46,-11.38
133.79,-11.27
135.12,-11.14
136.48,-11.08
137.84,-10.95
139.22,-10.86
140.61,-10.76
142.02,-10.60
143.44,-10.51
144.87,-10.39
146.32,-10.32
147.78,-10.21
149.26,-10.13
150.75,-10.02
152.26,-9.94
153.78,-9.82
155.32,-9.75
156.88,-9.64
158.44,-9.56
160.03,-9.44
161.63,-9.37
163.24,-9.31
164.88,-9.20
166.53,-9.12
168.19,-9.05
169.87,-8.95
171.57,-8.87
173.29,-8.80
175.02,-8.69
176.77,-8.63
178.54,-8.56
180.32,-8.49
182.13,-8.41
183.95,-8.29
185.79,-8.22
187.65,-8.15
189.52,-8.09
191.42,-8.03
193.33,-7.96
195.27,-7.90
197.22,-7.84
199.19,-7.78
201.18,-7.73
203.19,-7.67
205.23,-7.62
207.28,-7.57
209.35,-7.51
211.44,-7.45
213.56,-7.40
215.69,-7.36
217.85,-7.31
220.03,-7.27
222.23,-7.21
224.45,-7.15
226.70,-7.11
228.96,-7.07
231.25,-7.03
233.57,-6.97
235.90,-6.91
238.26,-6.87
240.64,-6.82
243.05,-6.77
245.48,-6.70
247.93,-6.61
250.41,-6.55
252.92,-6.47
255.45,-6.42
258.00,-6.38
260.58,-6.31
263.19,-6.26
265.82,-6.19
268.48,-6.14
271.16,-6.09
273.87,-6.03
276.61,-5.99
279.38,-5.93
282.17,-5.88
284.99,-5.83
287.84,-5.76
290.72,-5.72
293.63,-5.68
296.57,-5.62
299.53,-5.57
302.53,-5.52
305.55,-5.47
308.61,-5.43
311.69,-5.38
314.81,-5.34
317.96,-5.30
321.14,-5.28
324.35,-5.25
327.59,-5.23
330.87,-5.20
334.18,-5.16
337.52,-5.12
340.90,-5.08
344.30,-5.04
347.75,-5.01
351.23,-4.99
354.74,-4.96
358.28,-4.93
361.87,-4.91
365.49,-4.88
369.14,-4.86
372.83,-4.85
376.56,-4.81
380.33,-4.79
384.13,-4.77
387.97,-4.76
391.85,-4.74
395.77,-4.71
399.73,-4.67
403.72,-4.64
407.76,-4.61
411.84,-4.57
415.96,-4.55
420.12,-4.52
424.32,-4.49
428.56,-4.48
432.85,-4.47
437.18,-4.47
441.55,-4.48
445.96,-4.49
450.42,-4.49
454.93,-4.50
459.48,-4.51
464.07,-4.51
468.71,-4.51
473.40,-4.50
478.13,-4.49
482.91,-4.47
487.74,-4.45
492.62,-4.42
497.55,-4.39
502.52,-4.35
507.55,-4.32
512.62,-4.29
517.75,-4.25
522.93,-4.22
528.16,-4.19
533.44,-4.18
538.77,-4.15
544.16,-4.14
549.60,-4.16
555.10,-4.18
560.65,-4.19
566.25,-4.18
571.92,-4.17
577.64,-4.15
583.41,-4.13
589.25,-4.10
595.14,-4.07
601.09,-4.03
607.10,-4.00
613.17,-3.98
619.30,-3.96
625.50,-3.93
631.75,-3.89
638.07,-3.85
644.45,-3.81
650.89,-3.78
657.40,-3.75
663.98,-3.73
670.62,-3.71
677.32,-3.68
684.10,-3.64
690.94,-3.60
697.85,-3.55
704.83,-3.50
711.87,-3.44
718.99,-3.38
726.18,-3.33
733.44,-3.28
740.78,-3.23
748.19,-3.17
755.67,-3.10
763.23,-3.04
770.86,-2.97
778.57,-2.88
786.35,-2.80
794.22,-2.72
802.16,-2.63
810.18,-2.53
818.28,-2.42
826.46,-2.31
834.73,-2.21
843.08,-2.10
851.51,-1.97
860.02,-1.86
868.62,-1.74
877.31,-1.62
886.08,-1.51
894.94,-1.39
903.89,-1.27
912.93,-1.15
922.06,-1.03
931.28,-0.90
940.59,-0.78
950.00,-0.64
959.50,-0.52
969.09,-0.39
978.78,-0.25
988.57,-0.14
998.46,-0.02
1008.44,0.10
1018.53,0.21
1028.71,0.32
1039.00,0.42
1049.39,0.51
1059.88,0.60
1070.48,0.69
1081.19,0.77
1092.00,0.85
1102.92,0.94
1113.95,1.03
1125.09,1.10
1136.34,1.18
1147.70,1.26
1159.18,1.34
1170.77,1.42
1182.48,1.49
1194.30,1.56
1206.25,1.63
1218.31,1.71
1230.49,1.79
1242.80,1.85
1255.22,1.92
1267.78,1.99
1280.45,2.07
1293.26,2.14
1306.19,2.20
1319.25,2.28
1332.45,2.35
1345.77,2.43
1359.23,2.52
1372.82,2.59
1386.55,2.67
1400.41,2.76
1414.42,2.84
1428.56,2.92
1442.85,3.01
1457.28,3.11
1471.85,3.21
1486.57,3.29
1501.43,3.38
1516.45,3.48
1531.61,3.58
1546.93,3.66
1562.40,3.74
1578.02,3.83
1593.80,3.92
1609.74,4.00
1625.84,4.07
1642.10,4.16
1658.52,4.23
1675.10,4.30
1691.85,4.37
1708.77,4.44
1725.86,4.51
1743.12,4.60
1760.55,4.69
1778.15,4.78
1795.94,4.88
1813.90,4.97
1832.03,5.07
1850.36,5.18
1868.86,5.29
1887.55,5.39
1906.42,5.51
1925.49,5.64
1944.74,5.76
1964.19,5.88
1983.83,6.01
2003.67,6.15
2023.71,6.30
2043.94,6.46
2064.38,6.62
2085.03,6.80
2105.88,6.99
2126.94,7.19
2148.20,7.41
2169.69,7.63
2191.38,7.84
2213.30,8.06
2235.43,8.27
2257.78,8.47
2280.36,8.69
2303.17,8.90
2326.20,9.10
2349.46,9.29
2372.95,9.48
2396.68,9.66
2420.65,9.82
2444.86,9.99
2469.31,10.15
2494.00,10.30
2518.94,10.45
2544.13,10.59
2569.57,10.71
2595.27,10.80
2621.22,10.87
2647.43,10.93
2673.90,10.97
2700.64,10.98
2727.65,10.96
2754.93,10.94
2782.48,10.90
2810.30,10.84
2838.40,10.76
2866.79,10.67
2895.46,10.56
2924.41,10.43
2953.65,10.28
2983.19,10.13
3013.02,9.95
3043.15,9.76
3073.58,9.55
3104.32,9.32
3135.36,9.07
3166.72,8.82
3198.38,8.57
3230.37,8.30
3262.67,8.02
3295.30,7.72
3328.25,7.43
3361.53,7.13
3395.15,6.84
3429.10,6.54
3463.39,6.24
3498.03,5.94
3533.01,5.64
3568.34,5.32
3604.02,5.01
3640.06,4.70
3676.46,4.38
3713.22,4.06
3750.36,3.73
3787.86,3.39
3825.74,3.07
3864.00,2.74
3902.64,2.39
3941.66,2.03
3981.08,1.66
4020.89,1.29
4061.10,0.92
4101.71,0.54
4142.73,0.14
4184.15,-0.28
4226.00,-0.71
4268.26,-1.14
4310.94,-1.58
4354.05,-2.02
4397.59,-2.45
4441.56,-2.87
4485.98,-3.28
4530.84,-3.69
4576.15,-4.08
4621.91,-4.43
4668.13,-4.72
4714.81,-4.99
4761.96,-5.22
4809.58,-5.39
4857.67,-5.51
4906.25,-5.57
4955.31,-5.58
5004.87,-5.56
5054.91,-5.49
5105.46,-5.39
5156.52,-5.25
5208.08,-5.09
5260.16,-4.90
5312.77,-4.68
5365.89,-4.44
5419.55,-4.17
5473.75,-3.89
5528.49,-3.57
5583.77,-3.22
5639.61,-2.84
5696.00,-2.42
5752.96,-1.97
5810.49,-1.50
5868.60,-1.01
5927.28,-0.50
5986.56,-0.00
6046.42,0.51
6106.89,1.01
6167.96,1.50
6229.64,1.98
6291.93,2.44
6354.85,2.87
6418.40,3.26
6482.58,3.65
6547.41,4.02
6612.88,4.35
6679.01,4.66
6745.80,4.96
6813.26,5.24
6881.39,5.49
6950.21,5.71
7019.71,5.91
7089.91,6.08
7160.81,6.23
7232.41,6.34
7304.74,6.42
7377.79,6.49
7451.56,6.53
7526.08,6.55
7601.34,6.53
7677.35,6.50
7754.13,6.45
7831.67,6.39
7909.98,6.32
7989.08,6.23
8068.98,6.15
8149.67,6.07
8231.16,6.00
8313.47,5.94
8396.61,5.90
8480.57,5.88
8565.38,5.90
8651.03,5.94
8737.54,6.01
8824.92,6.11
8913.17,6.24
9002.30,6.40
9092.32,6.59
9183.25,6.78
9275.08,7.00
9367.83,7.23
9461.51,7.47
9556.12,7.70
9651.68,7.93
9748.20,8.15
9845.68,8.35
9944.14,8.52
10043.58,8.68
10144.02,8.83
10245.46,8.95
10347.91,9.03
10451.39,9.10
10555.91,9.14
10661.46,9.16
10768.08,9.16
10875.76,9.14
10984.52,9.08
11094.36,9.03
11205.31,8.97
11317.36,8.89
11430.53,8.80
11544.84,8.71
11660.29,8.60
11776.89,8.48
11894.66,8.33
12013.60,8.18
12133.74,7.99
12255.08,7.79
12377.63,7.56
12501.41,7.30
12626.42,7.01
12752.68,6.68
12880.21,6.34
13009.01,5.98
13139.10,5.60
13270.49,5.18
13403.20,4.75
13537.23,4.31
13672.60,3.84
13809.33,3.36
13947.42,2.85
14086.90,2.31
14227.77,1.74
14370.04,1.14
14513.74,0.52
14658.88,-0.13
14805.47,-0.81
14953.52,-1.53
15103.06,-2.27
15254.09,-3.05
15406.63,-3.85
15560.70,-4.68
15716.30,-5.51
15873.47,-6.35
16032.20,-7.21
16192.52,-8.11
16354.45,-9.00
16517.99,-9.89
16683.17,-10.78
16850.01,-11.66
17018.51,-12.51
17188.69,-13.33
17360.58,-14.10
17534.18,-14.81
17709.53,-15.47
17886.62,-16.03
18065.49,-16.51
18246.14,-16.91
18428.60,-17.23
18612.89,-17.49
18799.02,-17.66
18987.01,-17.77
19176.88,-17.81
19368.65,-17.77
19562.33,-17.67
19757.96,-17.48
19955.54,-17.24
