frequency,raw,smoothed,error,error_smoothed,equalization,parametric_eq,fixed_band_eq,equalized_raw,equalized_smoothed,target
20.00,7.89,7.89,0.57,0.57,-0.58,-0.73,-0.42,7.31,7.31,7.32
20.20,7.91,7.91,0.59,0.59,-0.59,-0.73,-0.43,7.32,7.32,7.32
20.40,7.92,7.92,0.60,0.60,-0.60,-0.73,-0.45,7.32,7.32,7.32
20.61,7.93,7.93,0.61,0.62,-0.61,-0.74,-0.46,7.32,7.32,7.31
20.81,7.94,7.94,0.63,0.62,-0.63,-0.74,-0.47,7.31,7.31,7.31
21.02,7.95,7.95,0.64,0.64,-0.64,-0.74,-0.49,7.31,7.31,7.31
21.23,7.96,7.96,0.65,0.65,-0.65,-0.74,-0.50,7.31,7.31,7.31
21.44,7.98,7.98,0.67,0.66,-0.66,-0.75,-0.52,7.32,7.31,7.31
21.66,7.99,7.99,0.68,0.68,-0.68,-0.75,-0.53,7.31,7.31,7.31
21.87,8.00,8.00,0.69,0.69,-0.69,-0.76,-0.55,7.31,7.31,7.31
22.09,8.01,8.01,0.70,0.70,-0.70,-0.76,-0.56,7.31,7.31,7.31
22.31,8.02,8.02,0.71,0.71,-0.72,-0.76,-0.58,7.30,7.31,7.31
22.54,8.04,8.04,0.73,0.73,-0.73,-0.77,-0.60,7.31,7.31,7.31
22.76,8.05,8.05,0.74,0.74,-0.74,-0.77,-0.61,7.31,7.31,7.31
22.99,8.06,8.06,0.75,0.75,-0.75,-0.78,-0.63,7.31,7.31,7.31
23.22,8.07,8.07,0.76,0.76,-0.76,-0.78,-0.65,7.30,7.30,7.30
23.45,8.08,8.08,0.78,0.78,-0.78,-0.78,-0.67,7.30,7.30,7.30
23.69,8.09,8.09,0.79,0.79,-0.79,-0.79,-0.69,7.30,7.30,7.30
23.92,8.10,8.10,0.80,0.80,-0.80,-0.79,-0.71,7.30,7.30,7.30
24.16,8.11,8.11,0.81,0.81,-0.81,-0.80,-0.73,7.30,7.30,7.30
24.40,8.12,8.12,0.82,0.82,-0.82,-0.81,-0.75,7.30,7.30,7.30
24.65,8.13,8.13,0.83,0.83,-0.83,-0.81,-0.77,7.30,7.30,7.30
24.89,8.14,8.14,0.84,0.84,-0.84,-0.82,-0.79,7.30,7.30,7.30
25.14,8.15,8.15,0.85,0.85,-0.85,-0.82,-0.81,7.30,7.29,7.30
25.39,8.15,8.15,0.86,0.86,-0.86,-0.83,-0.83,7.29,7.29,7.29
25.65,8.16,8.16,0.87,0.87,-0.87,-0.83,-0.85,7.29,7.29,7.29
25.91,8.17,8.17,0.88,0.88,-0.88,-0.84,-0.87,7.29,7.29,7.29
26.16,8.18,8.18,0.89,0.89,-0.89,-0.85,-0.89,7.29,7.29,7.29
26.43,8.18,8.18,0.89,0.90,-0.89,-0.85,-0.91,7.29,7.29,7.29
26.69,8.19,8.19,0.90,0.90,-0.90,-0.86,-0.93,7.29,7.29,7.29
26.96,8.19,8.19,0.90,0.90,-0.91,-0.87,-0.95,7.28,7.28,7.28
27.23,8.19,8.19,0.91,0.91,-0.91,-0.87,-0.97,7.28,7.28,7.28
27.50,8.20,8.20,0.92,0.92,-0.92,-0.88,-0.99,7.28,7.28,7.28
27.77,8.20,8.20,0.92,0.92,-0.92,-0.89,-1.01,7.28,7.28,7.28
28.05,8.20,8.20,0.92,0.92,-0.92,-0.89,-1.02,7.28,7.28,7.28
28.33,8.20,8.20,0.92,0.92,-0.93,-0.90,-1.04,7.27,7.27,7.27
28.62,8.20,8.20,0.93,0.93,-0.93,-0.90,-1.05,7.27,7.27,7.27
28.90,8.20,8.20,0.93,0.93,-0.93,-0.91,-1.07,7.27,7.27,7.27
29.19,8.20,8.20,0.93,0.93,-0.93,-0.91,-1.08,7.27,7.27,7.27
29.48,8.19,8.19,0.92,0.93,-0.93,-0.92,-1.09,7.26,7.27,7.27
29.78,8.19,8.19,0.93,0.93,-0.93,-0.92,-1.10,7.26,7.26,7.26
30.08,8.19,8.18,0.93,0.92,-0.93,-0.93,-1.11,7.26,7.26,7.26
30.38,8.18,8.18,0.92,0.93,-0.93,-0.93,-1.12,7.25,7.26,7.26
30.68,8.18,8.18,0.92,0.92,-0.93,-0.93,-1.13,7.25,7.25,7.25
30.99,8.18,8.17,0.93,0.92,-0.92,-0.93,-1.13,7.25,7.25,7.25
31.30,8.17,8.17,0.92,0.92,-0.92,-0.93,-1.13,7.25,7.25,7.25
31.61,8.17,8.17,0.92,0.92,-0.92,-0.93,-1.13,7.25,7.25,7.25
31.93,8.17,8.16,0.93,0.92,-0.92,-0.93,-1.13,7.25,7.24,7.24
32.24,8.16,8.16,0.92,0.92,-0.92,-0.93,-1.13,7.24,7.24,7.24
32.57,8.15,8.15,0.91,0.92,-0.92,-0.93,-1.13,7.23,7.23,7.24
32.89,8.15,8.15,0.92,0.91,-0.92,-0.93,-1.12,7.23,7.23,7.23
33.22,8.14,8.14,0.91,0.91,-0.92,-0.92,-1.12,7.22,7.23,7.23
33.55,8.14,8.14,0.92,0.92,-0.91,-0.92,-1.11,7.22,7.23,7.22
33.89,8.14,8.14,0.92,0.92,-0.91,-0.92,-1.10,7.23,7.22,7.22
34.23,8.13,8.13,0.91,0.91,-0.91,-0.91,-1.09,7.22,7.22,7.22
34.57,8.12,8.12,0.91,0.91,-0.91,-0.91,-1.08,7.21,7.21,7.21
34.92,8.11,8.11,0.90,0.90,-0.90,-0.91,-1.07,7.20,7.20,7.21
35.27,8.10,8.10,0.90,0.90,-0.90,-0.90,-1.06,7.20,7.20,7.20
35.62,8.09,8.09,0.89,0.90,-0.90,-0.90,-1.04,7.19,7.19,7.20
35.97,8.09,8.09,0.90,0.89,-0.89,-0.89,-1.03,7.20,7.19,7.19
36.33,8.08,8.08,0.89,0.89,-0.89,-0.89,-1.01,7.19,7.19,7.19
36.70,8.07,8.07,0.89,0.89,-0.89,-0.88,-1.00,7.18,7.18,7.18
37.06,8.06,8.06,0.88,0.88,-0.88,-0.88,-0.98,7.18,7.18,7.18
37.43,8.05,8.05,0.88,0.88,-0.88,-0.87,-0.97,7.17,7.17,7.17
37.81,8.04,8.04,0.88,0.88,-0.88,-0.87,-0.95,7.16,7.16,7.16
38.19,8.03,8.03,0.87,0.87,-0.87,-0.86,-0.94,7.16,7.16,7.16
38.57,8.02,8.02,0.87,0.87,-0.87,-0.86,-0.92,7.15,7.15,7.15
38.95,8.01,8.01,0.87,0.87,-0.87,-0.86,-0.91,7.14,7.14,7.14
39.34,8.00,8.00,0.86,0.86,-0.86,-0.85,-0.89,7.14,7.14,7.14
39.74,7.99,7.99,0.86,0.86,-0.86,-0.85,-0.88,7.13,7.13,7.13
40.14,7.98,7.98,0.86,0.86,-0.85,-0.84,-0.86,7.13,7.13,7.12
40.54,7.97,7.97,0.86,0.85,-0.85,-0.84,-0.85,7.12,7.12,7.11
40.94,7.95,7.95,0.84,0.84,-0.84,-0.84,-0.83,7.11,7.11,7.11
41.35,7.93,7.93,0.83,0.83,-0.84,-0.83,-0.82,7.09,7.10,7.10
41.76,7.92,7.92,0.83,0.83,-0.83,-0.83,-0.80,7.09,7.08,7.09
42.18,7.90,7.90,0.82,0.82,-0.83,-0.83,-0.79,7.07,7.08,7.08
42.60,7.89,7.89,0.82,0.82,-0.82,-0.83,-0.78,7.07,7.07,7.07
43.03,7.88,7.88,0.82,0.82,-0.82,-0.82,-0.77,7.06,7.06,7.06
43.46,7.87,7.87,0.82,0.82,-0.82,-0.82,-0.76,7.05,7.05,7.05
43.90,7.86,7.86,0.82,0.82,-0.82,-0.82,-0.75,7.04,7.04,7.04
44.33,7.84,7.84,0.81,0.81,-0.81,-0.81,-0.74,7.02,7.03,7.03
44.78,7.83,7.83,0.81,0.81,-0.81,-0.81,-0.73,7.02,7.02,7.02
45.23,7.82,7.82,0.81,0.81,-0.81,-0.81,-0.72,7.01,7.01,7.01
45.68,7.81,7.81,0.81,0.81,-0.81,-0.81,-0.71,7.00,7.00,6.99
46.13,7.79,7.79,0.81,0.81,-0.81,-0.80,-0.70,6.98,6.98,6.98
46.60,7.77,7.77,0.80,0.80,-0.80,-0.80,-0.69,6.97,6.97,6.97
47.06,7.75,7.75,0.79,0.79,-0.80,-0.80,-0.69,6.95,6.95,6.96
47.53,7.73,7.73,0.79,0.79,-0.79,-0.80,-0.68,6.94,6.94,6.94
48.01,7.72,7.72,0.79,0.79,-0.78,-0.79,-0.68,6.94,6.93,6.93
48.49,7.70,7.70,0.79,0.79,-0.77,-0.79,-0.67,6.93,6.93,6.91
48.97,7.68,7.67,0.78,0.77,-0.77,-0.79,-0.67,6.91,6.91,6.90
49.46,7.64,7.64,0.76,0.76,-0.76,-0.79,-0.66,6.88,6.88,6.88
49.96,7.60,7.61,0.73,0.74,-0.76,-0.78,-0.66,6.84,6.85,6.87
50.46,7.59,7.59,0.74,0.74,-0.76,-0.78,-0.66,6.83,6.83,6.85
50.96,7.58,7.58,0.75,0.75,-0.76,-0.78,-0.65,6.82,6.82,6.83
51.47,7.57,7.57,0.76,0.76,-0.76,-0.78,-0.65,6.81,6.82,6.81
51.99,7.57,7.56,0.77,0.77,-0.76,-0.77,-0.65,6.81,6.80,6.79
52.51,7.55,7.55,0.77,0.77,-0.77,-0.77,-0.65,6.78,6.78,6.77
53.03,7.53,7.53,0.77,0.78,-0.77,-0.77,-0.65,6.76,6.76,6.75
53.56,7.51,7.51,0.77,0.78,-0.77,-0.77,-0.65,6.73,6.74,6.73
54.10,7.49,7.49,0.78,0.78,-0.77,-0.76,-0.65,6.71,6.71,6.71
54.64,7.47,7.47,0.78,0.78,-0.77,-0.76,-0.65,6.70,6.69,6.69
55.18,7.44,7.44,0.77,0.77,-0.77,-0.76,-0.65,6.67,6.67,6.67
55.74,7.41,7.41,0.76,0.77,-0.77,-0.76,-0.65,6.64,6.64,6.65
56.29,7.38,7.38,0.76,0.76,-0.76,-0.75,-0.65,6.61,6.62,6.62
56.86,7.36,7.36,0.76,0.76,-0.76,-0.75,-0.66,6.60,6.59,6.60
57.42,7.33,7.33,0.76,0.76,-0.76,-0.75,-0.66,6.57,6.57,6.57
58.00,7.31,7.31,0.77,0.76,-0.76,-0.75,-0.66,6.55,6.54,6.54
58.58,7.28,7.28,0.76,0.77,-0.76,-0.75,-0.67,6.51,6.52,6.52
59.16,7.26,7.26,0.77,0.77,-0.77,-0.75,-0.67,6.49,6.49,6.49
59.76,7.23,7.23,0.77,0.77,-0.77,-0.75,-0.68,6.46,6.46,6.46
60.35,7.20,7.20,0.77,0.77,-0.77,-0.75,-0.68,6.43,6.43,6.43
60.96,7.17,7.17,0.77,0.77,-0.77,-0.76,-0.69,6.40,6.40,6.40
61.57,7.14,7.14,0.77,0.77,-0.77,-0.76,-0.69,6.37,6.37,6.37
62.18,7.11,7.11,0.77,0.77,-0.77,-0.76,-0.70,6.34,6.33,6.34
62.80,7.07,7.07,0.77,0.77,-0.77,-0.77,-0.71,6.30,6.30,6.30
63.43,7.04,7.04,0.77,0.77,-0.77,-0.78,-0.71,6.26,6.27,6.27
64.07,7.01,7.01,0.78,0.78,-0.78,-0.78,-0.72,6.23,6.23,6.23
64.71,6.98,6.98,0.78,0.78,-0.78,-0.79,-0.73,6.20,6.20,6.20
65.35,6.95,6.95,0.79,0.79,-0.78,-0.80,-0.74,6.17,6.16,6.16
66.01,6.91,6.91,0.79,0.79,-0.79,-0.81,-0.75,6.12,6.12,6.12
66.67,6.88,6.88,0.80,0.79,-0.79,-0.82,-0.76,6.08,6.08,6.08
67.33,6.84,6.84,0.80,0.80,-0.80,-0.83,-0.77,6.04,6.04,6.04
68.01,6.81,6.81,0.81,0.81,-0.81,-0.84,-0.78,6.00,6.00,6.00
68.69,6.78,6.77,0.82,0.82,-0.82,-0.85,-0.79,5.96,5.96,5.96
69.37,6.74,6.74,0.82,0.83,-0.83,-0.87,-0.80,5.91,5.92,5.92
70.07,6.71,6.71,0.84,0.84,-0.84,-0.88,-0.81,5.87,5.87,5.87
70.77,6.68,6.67,0.85,0.85,-0.85,-0.89,-0.82,5.83,5.83,5.83
71.48,6.64,6.64,0.86,0.86,-0.86,-0.91,-0.84,5.78,5.78,5.78
72.19,6.60,6.60,0.87,0.87,-0.87,-0.92,-0.85,5.73,5.73,5.73
72.91,6.57,6.56,0.88,0.88,-0.88,-0.93,-0.86,5.69,5.68,5.69
73.64,6.53,6.53,0.89,0.89,-0.89,-0.95,-0.88,5.64,5.64,5.64
74.38,6.49,6.49,0.90,0.91,-0.91,-0.96,-0.90,5.58,5.59,5.59
75.12,6.46,6.46,0.92,0.92,-0.92,-0.98,-0.91,5.54,5.54,5.54
75.87,6.42,6.42,0.94,0.93,-0.94,-0.99,-0.93,5.48,5.48,5.48
76.63,6.38,6.38,0.95,0.95,-0.95,-1.01,-0.95,5.43,5.43,5.43
77.40,6.34,6.34,0.96,0.97,-0.97,-1.02,-0.97,5.37,5.37,5.38
78.17,6.31,6.31,0.99,0.99,-0.99,-1.04,-0.99,5.32,5.32,5.32
78.95,6.27,6.27,1.01,1.01,-1.00,-1.06,-1.01,5.27,5.26,5.26
79.74,6.23,6.23,1.02,1.02,-1.02,-1.07,-1.03,5.21,5.21,5.21
80.54,6.19,6.19,1.04,1.04,-1.04,-1.09,-1.05,5.15,5.15,5.15
81.35,6.15,6.15,1.06,1.06,-1.06,-1.10,-1.08,5.09,5.09,5.09
82.16,6.11,6.11,1.08,1.08,-1.08,-1.12,-1.10,5.03,5.03,5.03
82.98,6.07,6.07,1.10,1.10,-1.10,-1.13,-1.13,4.97,4.97,4.97
83.81,6.03,6.03,1.12,1.12,-1.12,-1.15,-1.15,4.91,4.91,4.91
84.65,5.99,5.99,1.15,1.15,-1.15,-1.17,-1.18,4.84,4.84,4.84
85.50,5.95,5.95,1.17,1.17,-1.17,-1.18,-1.21,4.78,4.78,4.78
86.35,5.91,5.91,1.19,1.19,-1.19,-1.20,-1.24,4.72,4.71,4.71
87.22,5.87,5.87,1.22,1.22,-1.22,-1.22,-1.27,4.65,4.65,4.65
88.09,5.82,5.83,1.24,1.24,-1.24,-1.23,-1.30,4.58,4.58,4.58
88.97,5.79,5.79,1.27,1.27,-1.27,-1.25,-1.33,4.52,4.52,4.52
89.86,5.75,5.75,1.30,1.30,-1.30,-1.27,-1.36,4.45,4.45,4.45
90.76,5.71,5.71,1.33,1.33,-1.32,-1.29,-1.40,4.39,4.38,4.38
91.66,5.66,5.66,1.35,1.35,-1.35,-1.30,-1.43,4.31,4.31,4.31
92.58,5.62,5.62,1.38,1.38,-1.38,-1.32,-1.47,4.24,4.24,4.24
93.51,5.58,5.58,1.41,1.41,-1.41,-1.34,-1.51,4.17,4.17,4.17
94.44,5.54,5.54,1.44,1.43,-1.43,-1.36,-1.55,4.10,4.10,4.10
95.39,5.50,5.50,1.47,1.46,-1.46,-1.38,-1.58,4.04,4.04,4.03
96.34,5.45,5.45,1.49,1.49,-1.49,-1.40,-1.62,3.96,3.96,3.96
97.30,5.41,5.41,1.52,1.52,-1.52,-1.42,-1.66,3.89,3.89,3.89
98.28,5.36,5.36,1.54,1.54,-1.54,-1.44,-1.71,3.82,3.82,3.82
99.26,5.32,5.32,1.57,1.57,-1.57,-1.46,-1.75,3.75,3.75,3.75
100.25,5.27,5.27,1.60,1.60,-1.60,-1.48,-1.79,3.67,3.67,3.67
101.25,5.22,5.22,1.62,1.62,-1.62,-1.50,-1.83,3.60,3.60,3.60
102.27,5.18,5.17,1.65,1.65,-1.65,-1.52,-1.87,3.53,3.53,3.53
103.29,5.13,5.13,1.67,1.67,-1.67,-1.54,-1.92,3.45,3.45,3.46
104.32,5.08,5.08,1.70,1.70,-1.70,-1.56,-1.96,3.38,3.38,3.38
105.37,5.04,5.04,1.73,1.73,-1.73,-1.58,-2.00,3.31,3.31,3.31
106.42,4.99,4.99,1.75,1.75,-1.76,-1.60,-2.04,3.23,3.24,3.24
107.48,4.95,4.95,1.79,1.78,-1.78,-1.63,-2.08,3.17,3.16,3.16
108.56,4.90,4.90,1.81,1.81,-1.81,-1.65,-2.12,3.09,3.09,3.09
109.64,4.86,4.86,1.84,1.84,-1.84,-1.67,-2.16,3.02,3.02,3.02
110.74,4.81,4.81,1.86,1.86,-1.86,-1.70,-2.20,2.94,2.94,2.94
111.85,4.76,4.76,1.89,1.89,-1.89,-1.72,-2.24,2.87,2.87,2.87
112.97,4.72,4.72,1.92,1.92,-1.92,-1.74,-2.27,2.80,2.80,2.80
114.10,4.67,4.67,1.94,1.94,-1.94,-1.77,-2.31,2.73,2.73,2.73
115.24,4.63,4.63,1.97,1.97,-1.97,-1.79,-2.34,2.66,2.66,2.66
116.39,4.58,4.58,1.99,1.99,-1.99,-1.82,-2.36,2.59,2.59,2.59
117.55,4.53,4.53,2.01,2.02,-2.02,-1.84,-2.39,2.51,2.52,2.52
118.73,4.49,4.48,2.04,2.04,-2.04,-1.86,-2.41,2.45,2.44,2.45
119.92,4.44,4.44,2.06,2.06,-2.06,-1.89,-2.43,2.38,2.38,2.38
121.12,4.39,4.39,2.08,2.09,-2.08,-1.91,-2.45,2.30,2.31,2.31
122.33,4.35,4.35,2.11,2.11,-2.10,-1.94,-2.46,2.24,2.24,2.24
123.55,4.30,4.30,2.13,2.13,-2.12,-1.96,-2.47,2.18,2.17,2.17
124.79,4.25,4.25,2.14,2.14,-2.14,-1.99,-2.48,2.11,2.11,2.11
126.03,4.20,4.20,2.16,2.16,-2.16,-2.01,-2.48,2.04,2.04,2.04
127.29,4.15,4.15,2.17,2.18,-2.18,-2.04,-2.48,1.97,1.97,1.97
128.57,4.10,4.10,2.19,2.19,-2.19,-2.06,-2.48,1.91,1.91,1.91
129.85,4.05,4.05,2.20,2.20,-2.21,-2.08,-2.47,1.84,1.84,1.85
131.15,4.00,4.00,2.22,2.22,-2.22,-2.11,-2.47,1.78,1.78,1.78
132.46,3.96,3.96,2.24,2.24,-2.23,-2.13,-2.45,1.72,1.72,1.72
133.79,3.91,3.91,2.25,2.25,-2.25,-2.15,-2.44,1.66,1.66,1.66
135.12,3.86,3.86,2.26,2.26,-2.26,-2.17,-2.42,1.60,1.60,1.60
136.48,3.81,3.81,2.27,2.27,-2.27,-2.19,-2.40,1.54,1.54,1.54
137.84,3.76,3.76,2.28,2.28,-2.28,-2.21,-2.38,1.48,1.48,1.48
139.22,3.71,3.71,2.29,2.29,-2.29,-2.23,-2.35,1.42,1.42,1.42
140.61,3.66,3.66,2.29,2.29,-2.29,-2.25,-2.33,1.37,1.37,1.37
142.02,3.61,3.61,2.30,2.30,-2.30,-2.27,-2.30,1.31,1.31,1.31
143.44,3.56,3.56,2.30,2.30,-2.31,-2.28,-2.27,1.25,1.25,1.26
144.87,3.51,3.51,2.31,2.30,-2.31,-2.30,-2.24,1.20,1.20,1.20
146.32,3.46,3.46,2.31,2.31,-2.31,-2.31,-2.21,1.15,1.15,1.15
147.78,3.41,3.42,2.31,2.32,-2.32,-2.32,-2.18,1.09,1.10,1.10
149.26,3.38,3.37,2.33,2.32,-2.32,-2.33,-2.15,1.06,1.05,1.05
150.75,3.33,3.32,2.33,2.32,-2.32,-2.34,-2.12,1.01,1.00,1.00
152.26,3.26,3.27,2.31,2.32,-2.31,-2.35,-2.09,0.94,0.95,0.95
153.78,3.21,3.21,2.31,2.31,-2.31,-2.36,-2.06,0.90,0.90,0.90
155.32,3.16,3.16,2.30,2.30,-2.31,-2.36,-2.03,0.85,0.85,0.86
156.88,3.11,3.11,2.30,2.30,-2.30,-2.36,-2.00,0.81,0.81,0.81
158.44,3.06,3.06,2.29,2.29,-2.29,-2.37,-1.97,0.77,0.76,0.77
160.03,3.00,3.00,2.28,2.28,-2.28,-2.37,-1.94,0.71,0.72,0.72
161.63,2.95,2.95,2.28,2.28,-2.28,-2.36,-1.92,0.67,0.67,0.67
163.24,2.90,2.90,2.27,2.27,-2.27,-2.36,-1.89,0.63,0.63,0.63
164.88,2.85,2.85,2.26,2.26,-2.26,-2.35,-1.87,0.59,0.59,0.59
166.53,2.80,2.80,2.25,2.25,-2.25,-2.35,-1.84,0.55,0.55,0.55
168.19,2.75,2.75,2.24,2.24,-2.24,-2.34,-1.82,0.51,0.51,0.51
169.87,2.70,2.70,2.23,2.22,-2.22,-2.33,-1.80,0.48,0.47,0.47
171.57,2.64,2.64,2.20,2.21,-2.21,-2.32,-1.78,0.43,0.44,0.44
173.29,2.59,2.59,2.19,2.19,-2.19,-2.30,-1.76,0.40,0.40,0.40
175.02,2.54,2.54,2.17,2.17,-2.17,-2.29,-1.74,0.37,0.37,0.37
176.77,2.48,2.48,2.15,2.15,-2.15,-2.27,-1.72,0.33,0.33,0.33
178.54,2.43,2.43,2.13,2.13,-2.13,-2.25,-1.71,0.30,0.30,0.30
180.32,2.37,2.37,2.10,2.10,-2.10,-2.23,-1.70,0.26,0.27,0.27
182.13,2.32,2.32,2.08,2.08,-2.08,-2.21,-1.69,0.24,0.24,0.24
183.95,2.27,2.27,2.06,2.06,-2.06,-2.19,-1.67,0.21,0.21,0.21
185.79,2.21,2.21,2.03,2.03,-2.03,-2.16,-1.67,0.18,0.18,0.18
187.65,2.16,2.16,2.01,2.01,-2.01,-2.14,-1.66,0.15,0.15,0.15
189.52,2.10,2.10,1.98,1.98,-1.98,-2.11,-1.65,0.12,0.12,0.12
191.42,2.05,2.05,1.95,1.95,-1.95,-2.08,-1.64,0.10,0.10,0.10
193.33,1.99,1.99,1.92,1.92,-1.92,-2.06,-1.64,0.07,0.07,0.07
195.27,1.93,1.93,1.88,1.89,-1.89,-2.03,-1.64,0.04,0.05,0.05
197.22,1.88,1.87,1.86,1.85,-1.85,-2.00,-1.63,0.03,0.02,0.02
199.19,1.82,1.82,1.82,1.82,-1.82,-1.97,-1.63,-0.00,-0.00,-0.00
201.18,1.76,1.76,1.78,1.79,-1.79,-1.93,-1.63,-0.03,-0.02,-0.03
203.19,1.71,1.71,1.76,1.75,-1.76,-1.90,-1.63,-0.05,-0.05,-0.05
205.23,1.66,1.66,1.73,1.73,-1.73,-1.87,-1.63,-0.07,-0.07,-0.07
207.28,1.61,1.61,1.70,1.70,-1.70,-1.83,-1.63,-0.09,-0.09,-0.09
209.35,1.57,1.57,1.68,1.68,-1.68,-1.80,-1.63,-0.11,-0.12,-0.11
211.44,1.53,1.53,1.66,1.66,-1.67,-1.77,-1.64,-0.14,-0.13,-0.13
213.56,1.50,1.50,1.65,1.65,-1.65,-1.73,-1.64,-0.15,-0.15,-0.15
215.69,1.48,1.48,1.65,1.64,-1.64,-1.70,-1.64,-0.17,-0.17,-0.17
217.85,1.45,1.45,1.63,1.64,-1.64,-1.66,-1.64,-0.19,-0.18,-0.18
220.03,1.44,1.43,1.64,1.63,-1.63,-1.63,-1.64,-0.19,-0.20,-0.20
222.23,1.41,1.41,1.63,1.63,-1.62,-1.59,-1.64,-0.22,-0.21,-0.22
224.45,1.39,1.39,1.62,1.62,-1.62,-1.55,-1.64,-0.23,-0.23,-0.23
226.70,1.36,1.36,1.61,1.61,-1.61,-1.52,-1.64,-0.25,-0.25,-0.25
228.96,1.33,1.33,1.59,1.59,-1.59,-1.48,-1.64,-0.26,-0.26,-0.26
231.25,1.30,1.30,1.58,1.58,-1.58,-1.45,-1.64,-0.28,-0.28,-0.28
233.57,1.26,1.26,1.55,1.56,-1.55,-1.41,-1.63,-0.29,-0.29,-0.29
235.90,1.22,1.22,1.53,1.53,-1.53,-1.38,-1.62,-0.31,-0.31,-0.32
238.26,1.18,1.18,1.51,1.50,-1.50,-1.34,-1.62,-0.32,-0.33,-0.33
240.64,1.13,1.13,1.47,1.48,-1.47,-1.31,-1.61,-0.34,-0.34,-0.34
243.05,1.09,1.09,1.44,1.44,-1.44,-1.27,-1.60,-0.35,-0.35,-0.35
245.48,1.05,1.04,1.41,1.41,-1.41,-1.24,-1.58,-0.36,-0.37,-0.37
247.93,1.00,1.00,1.38,1.38,-1.38,-1.20,-1.57,-0.38,-0.38,-0.38
250.41,0.95,0.96,1.34,1.34,-1.35,-1.17,-1.55,-0.40,-0.39,-0.39
252.92,0.92,0.91,1.32,1.31,-1.31,-1.14,-1.53,-0.40,-0.40,-0.40
255.45,0.88,0.88,1.29,1.28,-1.28,-1.10,-1.51,-0.40,-0.41,-0.41
258.00,0.83,0.83,1.25,1.25,-1.25,-1.07,-1.49,-0.42,-0.41,-0.42
260.58,0.79,0.79,1.22,1.21,-1.21,-1.04,-1.46,-0.42,-0.43,-0.43
263.19,0.74,0.74,1.18,1.18,-1.18,-1.00,-1.43,-0.44,-0.44,-0.44
265.82,0.70,0.70,1.14,1.14,-1.14,-0.97,-1.40,-0.45,-0.45,-0.45
268.48,0.65,0.65,1.10,1.11,-1.11,-0.94,-1.37,-0.46,-0.46,-0.45
271.16,0.61,0.61,1.07,1.07,-1.08,-0.91,-1.34,-0.47,-0.47,-0.46
273.87,0.57,0.57,1.04,1.04,-1.04,-0.88,-1.30,-0.47,-0.47,-0.47
276.61,0.53,0.53,1.01,1.01,-1.00,-0.85,-1.27,-0.48,-0.47,-0.48
279.38,0.49,0.49,0.97,0.97,-0.97,-0.82,-1.23,-0.48,-0.48,-0.49
282.17,0.45,0.45,0.94,0.93,-0.93,-0.78,-1.19,-0.48,-0.49,-0.49
284.99,0.40,0.41,0.89,0.90,-0.90,-0.75,-1.15,-0.50,-0.49,-0.49
287.84,0.37,0.37,0.86,0.86,-0.86,-0.72,-1.11,-0.49,-0.49,-0.49
290.72,0.33,0.33,0.82,0.82,-0.82,-0.70,-1.07,-0.49,-0.49,-0.49
293.63,0.29,0.29,0.79,0.78,-0.78,-0.67,-1.03,-0.49,-0.49,-0.50
296.57,0.25,0.25,0.74,0.74,-0.74,-0.64,-0.98,-0.49,-0.49,-0.49
299.53,0.21,0.21,0.70,0.70,-0.70,-0.61,-0.94,-0.49,-0.49,-0.49
302.53,0.17,0.17,0.66,0.66,-0.66,-0.58,-0.89,-0.49,-0.50,-0.50
305.55,0.13,0.13,0.62,0.62,-0.63,-0.55,-0.85,-0.50,-0.50,-0.49
308.61,0.09,0.09,0.59,0.59,-0.59,-0.52,-0.80,-0.50,-0.49,-0.50
311.69,0.06,0.05,0.55,0.55,-0.55,-0.50,-0.76,-0.49,-0.49,-0.49
314.81,0.02,0.02,0.52,0.51,-0.51,-0.47,-0.71,-0.49,-0.49,-0.50
317.96,-0.02,-0.02,0.47,0.48,-0.47,-0.44,-0.67,-0.49,-0.49,-0.49
321.14,-0.05,-0.05,0.44,0.44,-0.44,-0.41,-0.62,-0.49,-0.49,-0.49
324.35,-0.09,-0.09,0.40,0.40,-0.40,-0.39,-0.58,-0.49,-0.49,-0.49
327.59,-0.12,-0.12,0.36,0.37,-0.37,-0.36,-0.53,-0.49,-0.49,-0.48
330.87,-0.15,-0.15,0.34,0.33,-0.34,-0.33,-0.48,-0.49,-0.49,-0.49
334.18,-0.18,-0.18,0.30,0.30,-0.30,-0.30,-0.44,-0.48,-0.49,-0.48
337.52,-0.21,-0.21,0.27,0.27,-0.27,-0.28,-0.39,-0.48,-0.48,-0.48
340.90,-0.24,-0.24,0.24,0.24,-0.24,-0.25,-0.35,-0.48,-0.48,-0.48
344.30,-0.26,-0.26,0.21,0.21,-0.21,-0.23,-0.30,-0.47,-0.47,-0.47
347.75,-0.28,-0.28,0.18,0.19,-0.18,-0.20,-0.26,-0.46,-0.46,-0.47
351.23,-0.30,-0.31,0.17,0.16,-0.15,-0.17,-0.21,-0.45,-0.45,-0.47
354.74,-0.34,-0.34,0.11,0.12,-0.12,-0.15,-0.17,-0.46,-0.45,-0.45
358.28,-0.37,-0.37,0.08,0.08,-0.08,-0.12,-0.12,-0.45,-0.45,-0.45
361.87,-0.40,-0.40,0.05,0.04,-0.05,-0.09,-0.08,-0.45,-0.45,-0.45
365.49,-0.43,-0.43,0.01,0.01,-0.02,-0.07,-0.03,-0.45,-0.45,-0.44
369.14,-0.45,-0.45,-0.01,-0.01,0.01,-0.04,0.01,-0.44,-0.44,-0.44
372.83,-0.47,-0.47,-0.05,-0.04,0.04,-0.01,0.06,-0.43,-0.44,-0.43
376.56,-0.49,-0.49,-0.06,-0.06,0.06,0.01,0.10,-0.43,-0.43,-0.43
380.33,-0.51,-0.51,-0.09,-0.09,0.09,0.04,0.14,-0.42,-0.42,-0.42
384.13,-0.53,-0.53,-0.11,-0.11,0.12,0.06,0.19,-0.41,-0.41,-0.42
387.97,-0.55,-0.55,-0.14,-0.14,0.15,0.09,0.23,-0.40,-0.41,-0.41
391.85,-0.58,-0.58,-0.18,-0.18,0.18,0.12,0.28,-0.40,-0.40,-0.40
395.77,-0.61,-0.61,-0.21,-0.22,0.21,0.14,0.32,-0.40,-0.40,-0.40
399.73,-0.64,-0.64,-0.25,-0.25,0.25,0.17,0.36,-0.39,-0.39,-0.39
403.72,-0.67,-0.67,-0.29,-0.28,0.28,0.20,0.40,-0.39,-0.39,-0.38
407.76,-0.70,-0.70,-0.32,-0.32,0.32,0.23,0.45,-0.38,-0.38,-0.38
411.84,-0.73,-0.73,-0.35,-0.36,0.36,0.25,0.49,-0.37,-0.37,-0.38
415.96,-0.77,-0.77,-0.40,-0.40,0.40,0.28,0.53,-0.37,-0.37,-0.37
420.12,-0.80,-0.80,-0.43,-0.43,0.43,0.31,0.57,-0.37,-0.37,-0.37
424.32,-0.83,-0.83,-0.47,-0.47,0.47,0.34,0.61,-0.36,-0.36,-0.36
428.56,-0.86,-0.86,-0.51,-0.51,0.51,0.36,0.65,-0.35,-0.36,-0.35
432.85,-0.89,-0.89,-0.55,-0.54,0.54,0.39,0.69,-0.35,-0.35,-0.34
437.18,-0.92,-0.92,-0.58,-0.58,0.58,0.42,0.73,-0.34,-0.34,-0.35
441.55,-0.94,-0.94,-0.60,-0.60,0.61,0.45,0.76,-0.33,-0.33,-0.34
445.96,-0.96,-0.96,-0.63,-0.64,0.64,0.48,0.80,-0.32,-0.32,-0.33
450.42,-0.98,-0.98,-0.67,-0.67,0.67,0.51,0.83,-0.31,-0.32,-0.31
454.93,-1.01,-1.01,-0.71,-0.70,0.69,0.54,0.86,-0.32,-0.31,-0.30
459.48,-1.02,-1.02,-0.73,-0.73,0.72,0.57,0.89,-0.31,-0.31,-0.29
464.07,-1.03,-1.03,-0.74,-0.74,0.74,0.60,0.92,-0.30,-0.29,-0.29
468.71,-1.03,-1.03,-0.75,-0.75,0.75,0.63,0.95,-0.28,-0.28,-0.28
473.40,-1.04,-1.04,-0.77,-0.76,0.77,0.66,0.98,-0.27,-0.27,-0.27
478.13,-1.05,-1.05,-0.78,-0.78,0.79,0.69,1.00,-0.26,-0.26,-0.27
482.91,-1.06,-1.06,-0.80,-0.81,0.81,0.72,1.03,-0.25,-0.25,-0.26
487.74,-1.08,-1.08,-0.83,-0.83,0.83,0.75,1.05,-0.25,-0.24,-0.25
492.62,-1.09,-1.09,-0.85,-0.85,0.86,0.78,1.06,-0.23,-0.24,-0.24
497.55,-1.11,-1.11,-0.88,-0.88,0.88,0.81,1.08,-0.23,-0.23,-0.23
502.52,-1.13,-1.13,-0.91,-0.91,0.91,0.84,1.10,-0.22,-0.22,-0.22
507.55,-1.15,-1.15,-0.95,-0.94,0.94,0.88,1.11,-0.21,-0.21,-0.20
512.62,-1.16,-1.16,-0.97,-0.97,0.97,0.91,1.12,-0.19,-0.20,-0.19
