frequency,raw,error,smoothed,error_smoothed,equalization,parametric_eq,fixed_band_eq,equalized_raw,equalized_smoothed,target
20.00,-8.29,-12.69,-8.30,-12.72,6.00,5.22,2.80,-2.29,-2.30,4.40
20.20,-8.21,-12.61,-8.22,-12.63,6.00,5.28,2.88,-2.21,-2.22,4.40
20.40,-8.14,-12.54,-8.14,-12.55,6.00,5.34,2.96,-2.14,-2.14,4.40
20.61,-8.06,-12.46,-8.06,-12.46,6.00,5.40,3.04,-2.06,-2.06,4.40
20.81,-7.98,-12.38,-7.98,-12.37,6.00,5.45,3.13,-1.98,-1.98,4.40
21.02,-7.90,-12.30,-7.90,-12.28,6.00,5.51,3.22,-1.90,-1.90,4.40
21.23,-7.81,-12.19,-7.82,-12.18,6.00,5.56,3.31,-1.81,-1.82,4.38
21.44,-7.73,-12.10,-7.74,-12.09,6.00,5.61,3.41,-1.73,-1.74,4.37
21.66,-7.65,-12.00,-7.65,-11.99,6.00,5.67,3.50,-1.65,-1.65,4.35
21.87,-7.57,-11.90,-7.57,-11.89,6.00,5.72,3.60,-1.57,-1.57,4.33
22.09,-7.48,-11.80,-7.49,-11.79,6.00,5.77,3.71,-1.48,-1.49,4.32
22.31,-7.40,-11.69,-7.40,-11.69,6.00,5.82,3.81,-1.40,-1.40,4.29
22.54,-7.32,-11.59,-7.31,-11.58,6.00,5.86,3.92,-1.32,-1.31,4.27
22.76,-7.22,-11.47,-7.23,-11.47,6.00,5.91,4.03,-1.22,-1.23,4.25
22.99,-7.14,-11.36,-7.14,-11.36,6.00,5.95,4.15,-1.14,-1.14,4.22
23.22,-7.05,-11.24,-7.05,-11.26,6.00,6.00,4.27,-1.05,-1.05,4.19
23.45,-6.96,-11.13,-6.97,-11.15,6.00,6.04,4.39,-0.96,-0.97,4.17
23.69,-6.87,-11.03,-6.88,-11.04,6.00,6.08,4.51,-0.87,-0.88,4.16
23.92,-6.78,-10.92,-6.79,-10.93,6.00,6.11,4.63,-0.78,-0.79,4.14
24.16,-6.69,-10.82,-6.70,-10.81,6.00,6.15,4.76,-0.69,-0.70,4.12
24.40,-6.61,-10.72,-6.60,-10.70,6.00,6.18,4.89,-0.61,-0.60,4.10
24.65,-6.51,-10.60,-6.51,-10.59,6.00,6.21,5.02,-0.51,-0.51,4.08
24.89,-6.42,-10.49,-6.42,-10.48,6.00,6.24,5.16,-0.42,-0.42,4.06
25.14,-6.33,-10.38,-6.33,-10.37,6.00,6.27,5.29,-0.33,-0.33,4.05
25.39,-6.23,-10.26,-6.23,-10.26,6.00,6.30,5.43,-0.23,-0.23,4.03
25.65,-6.13,-10.16,-6.14,-10.15,6.00,6.32,5.57,-0.13,-0.14,4.02
25.91,-6.04,-10.04,-6.04,-10.04,6.00,6.34,5.70,-0.04,-0.04,3.99
26.16,-5.94,-9.92,-5.95,-9.93,6.00,6.36,5.84,0.06,0.05,3.98
26.43,-5.85,-9.83,-5.85,-9.82,6.00,6.37,5.98,0.15,0.15,3.97
26.69,-5.75,-9.70,-5.76,-9.71,6.00,6.39,6.11,0.25,0.24,3.95
26.96,-5.66,-9.60,-5.66,-9.60,6.00,6.40,6.25,0.34,0.34,3.94
27.23,-5.56,-9.49,-5.56,-9.49,6.00,6.41,6.38,0.44,0.44,3.93
27.50,-5.47,-9.39,-5.47,-9.38,6.00,6.41,6.51,0.53,0.53,3.92
27.77,-5.37,-9.27,-5.37,-9.27,6.00,6.42,6.63,0.63,0.63,3.90
28.05,-5.27,-9.16,-5.28,-9.16,6.00,6.42,6.75,0.73,0.72,3.89
28.33,-5.18,-9.05,-5.18,-9.05,6.00,6.41,6.87,0.82,0.82,3.87
28.62,-5.08,-8.94,-5.08,-8.94,6.00,6.41,6.98,0.92,0.92,3.85
28.90,-4.99,-8.84,-4.99,-8.83,6.00,6.40,7.07,1.01,1.01,3.84
29.19,-4.89,-8.72,-4.89,-8.72,6.00,6.39,7.17,1.11,1.11,3.82
29.48,-4.79,-8.61,-4.79,-8.61,6.00,6.38,7.25,1.21,1.21,3.82
29.78,-4.70,-8.51,-4.70,-8.51,6.00,6.37,7.32,1.30,1.30,3.81
30.08,-4.60,-8.40,-4.60,-8.40,6.00,6.35,7.38,1.40,1.40,3.80
30.38,-4.51,-8.29,-4.51,-8.29,6.00,6.33,7.43,1.49,1.49,3.78
30.68,-4.41,-8.18,-4.42,-8.18,6.00,6.31,7.46,1.59,1.58,3.77
30.99,-4.31,-8.06,-4.33,-8.08,6.00,6.29,7.49,1.69,1.67,3.75
31.30,-4.23,-7.97,-4.24,-7.97,6.00,6.26,7.50,1.77,1.76,3.74
31.61,-4.14,-7.87,-4.15,-7.87,6.00,6.23,7.50,1.86,1.85,3.72
31.93,-4.06,-7.77,-4.06,-7.76,6.00,6.20,7.49,1.94,1.94,3.70
32.24,-3.98,-7.65,-3.98,-7.66,6.00,6.17,7.46,2.02,2.02,3.67
32.57,-3.89,-7.55,-3.89,-7.55,6.00,6.13,7.42,2.11,2.11,3.66
32.89,-3.81,-7.46,-3.81,-7.45,6.00,6.10,7.37,2.19,2.19,3.65
33.22,-3.72,-7.34,-3.73,-7.35,6.00,6.06,7.31,2.28,2.27,3.62
33.55,-3.65,-7.26,-3.64,-7.25,6.00,6.02,7.24,2.35,2.36,3.61
33.89,-3.56,-7.15,-3.56,-7.15,6.00,5.98,7.16,2.44,2.44,3.58
34.23,-3.48,-7.05,-3.48,-7.05,6.00,5.93,7.08,2.52,2.52,3.56
34.57,-3.40,-6.94,-3.40,-6.95,6.00,5.89,6.98,2.60,2.60,3.54
34.92,-3.32,-6.84,-3.32,-6.85,6.00,5.84,6.88,2.68,2.68,3.52
35.27,-3.24,-6.75,-3.25,-6.75,6.00,5.80,6.78,2.76,2.75,3.51
35.62,-3.16,-6.65,-3.17,-6.65,6.00,5.75,6.67,2.84,2.83,3.48
35.97,-3.09,-6.55,-3.09,-6.55,6.00,5.70,6.56,2.91,2.91,3.46
36.33,-3.01,-6.46,-3.01,-6.46,6.00,5.64,6.44,2.99,2.99,3.45
36.70,-2.94,-6.37,-2.93,-6.36,6.00,5.59,6.32,3.06,3.07,3.43
37.06,-2.85,-6.26,-2.86,-6.27,5.99,5.54,6.20,3.14,3.13,3.41
37.43,-2.78,-6.18,-2.78,-6.17,5.97,5.49,6.08,3.19,3.19,3.39
37.81,-2.70,-6.07,-2.71,-6.08,5.94,5.43,5.96,3.23,3.23,3.37
38.19,-2.63,-5.98,-2.63,-5.98,5.89,5.37,5.84,3.26,3.26,3.35
38.57,-2.56,-5.90,-2.56,-5.89,5.84,5.32,5.73,3.27,3.28,3.34
38.95,-2.48,-5.79,-2.49,-5.80,5.77,5.26,5.61,3.29,3.29,3.31
39.34,-2.41,-5.70,-2.41,-5.71,5.70,5.20,5.49,3.29,3.29,3.29
39.74,-2.34,-5.61,-2.34,-5.62,5.62,5.14,5.38,3.28,3.28,3.27
40.14,-2.27,-5.54,-2.27,-5.53,5.53,5.09,5.27,3.26,3.26,3.26
40.54,-2.20,-5.44,-2.20,-5.44,5.44,5.03,5.16,3.24,3.24,3.24
40.94,-2.13,-5.36,-2.13,-5.36,5.36,4.97,5.06,3.23,3.23,3.23
41.35,-2.06,-5.27,-2.07,-5.28,5.28,4.91,4.95,3.21,3.21,3.20
41.76,-1.99,-5.19,-2.00,-5.19,5.19,4.85,4.85,3.20,3.19,3.20
42.18,-1.93,-5.12,-1.93,-5.11,5.11,4.79,4.76,3.18,3.18,3.18
42.60,-1.86,-5.02,-1.87,-5.03,5.03,4.73,4.66,3.16,3.16,3.16
43.03,-1.80,-4.96,-1.80,-4.94,4.94,4.67,4.58,3.14,3.14,3.16
43.46,-1.74,-4.88,-1.74,-4.86,4.86,4.61,4.49,3.12,3.13,3.13
43.90,-1.67,-4.78,-1.67,-4.79,4.79,4.55,4.41,3.11,3.11,3.11
44.33,-1.61,-4.71,-1.61,-4.71,4.71,4.49,4.33,3.10,3.10,3.09
44.78,-1.55,-4.63,-1.55,-4.63,4.63,4.43,4.25,3.08,3.08,3.08
45.23,-1.49,-4.55,-1.49,-4.56,4.56,4.37,4.18,3.06,3.06,3.05
45.68,-1.43,-4.47,-1.43,-4.48,4.48,4.31,4.11,3.05,3.05,3.04
46.13,-1.37,-4.39,-1.38,-4.41,4.41,4.25,4.04,3.03,3.03,3.02
46.60,-1.31,-4.33,-1.32,-4.33,4.33,4.19,3.98,3.02,3.01,3.02
47.06,-1.26,-4.26,-1.26,-4.26,4.26,4.14,3.92,2.99,2.99,3.00
47.53,-1.20,-4.19,-1.21,-4.18,4.18,4.08,3.86,2.98,2.98,2.98
48.01,-1.15,-4.13,-1.15,-4.11,4.11,4.02,3.80,2.96,2.96,2.98
48.49,-1.10,-4.06,-1.10,-4.04,4.04,3.96,3.75,2.94,2.94,2.95
48.97,-1.05,-3.98,-1.05,-3.98,3.98,3.91,3.70,2.92,2.93,2.92
49.46,-1.00,-3.90,-1.00,-3.91,3.91,3.85,3.66,2.91,2.91,2.90
49.96,-0.95,-3.82,-0.95,-3.84,3.84,3.79,3.61,2.89,2.89,2.87
50.46,-0.90,-3.78,-0.90,-3.77,3.77,3.74,3.57,2.87,2.87,2.87
50.96,-0.85,-3.71,-0.86,-3.71,3.71,3.68,3.53,2.85,2.85,2.85
51.47,-0.81,-3.64,-0.81,-3.64,3.64,3.63,3.49,2.83,2.83,2.83
51.99,-0.76,-3.57,-0.76,-3.58,3.58,3.57,3.46,2.81,2.81,2.81
52.51,-0.72,-3.52,-0.72,-3.51,3.51,3.52,3.42,2.79,2.79,2.80
53.03,-0.68,-3.46,-0.68,-3.45,3.45,3.47,3.39,2.77,2.78,2.78
53.56,-0.63,-3.39,-0.63,-3.39,3.39,3.41,3.36,2.76,2.76,2.76
54.10,-0.58,-3.32,-0.59,-3.33,3.33,3.36,3.33,2.75,2.74,2.74
54.64,-0.55,-3.27,-0.55,-3.27,3.27,3.31,3.30,2.72,2.72,2.72
55.18,-0.51,-3.21,-0.51,-3.22,3.22,3.26,3.27,2.70,2.70,2.70
55.74,-0.47,-3.15,-0.48,-3.16,3.16,3.21,3.24,2.69,2.69,2.68
56.29,-0.44,-3.11,-0.44,-3.11,3.11,3.16,3.22,2.66,2.67,2.67
56.86,-0.40,-3.05,-0.40,-3.05,3.05,3.11,3.19,2.65,2.65,2.65
57.42,-0.37,-3.00,-0.37,-3.00,3.00,3.06,3.16,2.63,2.63,2.63
58.00,-0.33,-2.95,-0.34,-2.95,2.95,3.02,3.13,2.61,2.61,2.61
58.58,-0.30,-2.89,-0.30,-2.90,2.90,2.97,3.10,2.59,2.59,2.59
59.16,-0.27,-2.85,-0.27,-2.85,2.85,2.92,3.08,2.57,2.57,2.58
59.76,-0.24,-2.81,-0.24,-2.80,2.80,2.88,3.05,2.56,2.55,2.56
60.35,-0.21,-2.75,-0.22,-2.75,2.75,2.83,3.02,2.54,2.54,2.54
60.96,-0.19,-2.73,-0.19,-2.71,2.71,2.78,2.98,2.51,2.52,2.53
61.57,-0.16,-2.66,-0.16,-2.66,2.66,2.74,2.95,2.50,2.50,2.50
62.18,-0.14,-2.62,-0.14,-2.62,2.62,2.70,2.92,2.48,2.48,2.47
62.80,-0.11,-2.57,-0.12,-2.58,2.58,2.65,2.88,2.47,2.46,2.46
63.43,-0.09,-2.52,-0.10,-2.54,2.54,2.61,2.84,2.45,2.44,2.43
64.07,-0.08,-2.50,-0.08,-2.50,2.50,2.57,2.81,2.42,2.43,2.41
64.71,-0.05,-2.46,-0.06,-2.47,2.47,2.53,2.77,2.41,2.41,2.41
65.35,-0.04,-2.43,-0.04,-2.43,2.43,2.49,2.73,2.39,2.39,2.39
66.01,-0.02,-2.40,-0.02,-2.40,2.40,2.45,2.68,2.37,2.38,2.38
66.67,-0.00,-2.36,-0.00,-2.36,2.36,2.41,2.64,2.36,2.36,2.36
67.33,0.02,-2.34,0.01,-2.34,2.34,2.37,2.60,2.35,2.35,2.35
68.01,0.03,-2.31,0.03,-2.31,2.31,2.33,2.55,2.33,2.33,2.33
68.69,0.04,-2.28,0.04,-2.28,2.28,2.29,2.50,2.32,2.32,2.32
69.37,0.05,-2.25,0.05,-2.25,2.25,2.26,2.46,2.30,2.30,2.30
70.07,0.07,-2.22,0.06,-2.23,2.23,2.22,2.41,2.29,2.29,2.29
70.77,0.08,-2.20,0.07,-2.20,2.20,2.19,2.36,2.27,2.27,2.28
71.48,0.09,-2.17,0.08,-2.17,2.17,2.15,2.31,2.26,2.25,2.25
72.19,0.09,-2.15,0.09,-2.14,2.14,2.12,2.27,2.23,2.23,2.24
72.91,0.10,-2.12,0.10,-2.12,2.12,2.08,2.22,2.21,2.21,2.21
73.64,0.10,-2.09,0.10,-2.09,2.09,2.05,2.17,2.19,2.19,2.19
74.38,0.10,-2.08,0.11,-2.06,2.06,2.02,2.12,2.16,2.17,2.17
75.12,0.12,-2.02,0.11,-2.04,2.04,1.98,2.07,2.15,2.15,2.14
75.87,0.12,-2.01,0.11,-2.01,2.01,1.95,2.02,2.13,2.13,2.12
76.63,0.12,-1.99,0.12,-1.98,1.98,1.92,1.98,2.10,2.10,2.10
77.40,0.12,-1.96,0.12,-1.96,1.96,1.89,1.93,2.08,2.08,2.08
78.17,0.12,-1.92,0.12,-1.93,1.93,1.86,1.88,2.05,2.05,2.04
78.95,0.12,-1.91,0.12,-1.91,1.91,1.83,1.84,2.02,2.02,2.03
79.74,0.12,-1.88,0.12,-1.88,1.88,1.80,1.79,2.00,2.00,2.00
80.54,0.11,-1.86,0.11,-1.85,1.85,1.77,1.75,1.96,1.97,1.97
81.35,0.12,-1.82,0.11,-1.83,1.83,1.75,1.71,1.95,1.94,1.94
82.16,0.11,-1.80,0.11,-1.80,1.80,1.72,1.66,1.91,1.91,1.91
82.98,0.11,-1.78,0.10,-1.78,1.78,1.69,1.62,1.89,1.88,1.89
83.81,0.10,-1.75,0.10,-1.75,1.75,1.66,1.58,1.85,1.85,1.84
84.65,0.09,-1.72,0.09,-1.73,1.73,1.64,1.54,1.81,1.82,1.81
85.50,0.09,-1.70,0.08,-1.70,1.70,1.61,1.50,1.79,1.79,1.79
86.35,0.08,-1.68,0.07,-1.68,1.68,1.59,1.46,1.76,1.75,1.75
87.22,0.06,-1.66,0.07,-1.65,1.65,1.56,1.43,1.71,1.72,1.72
88.09,0.06,-1.63,0.06,-1.63,1.63,1.54,1.39,1.69,1.69,1.68
88.97,0.05,-1.61,0.05,-1.61,1.61,1.52,1.36,1.65,1.65,1.66
89.86,0.04,-1.59,0.04,-1.58,1.58,1.49,1.32,1.62,1.62,1.62
90.76,0.03,-1.55,0.03,-1.56,1.56,1.47,1.29,1.59,1.59,1.58
91.66,0.02,-1.53,0.02,-1.53,1.53,1.45,1.26,1.55,1.55,1.55
92.58,0.01,-1.50,0.01,-1.51,1.51,1.43,1.23,1.52,1.52,1.50
93.51,-0.01,-1.50,-0.01,-1.49,1.49,1.41,1.20,1.47,1.48,1.49
94.44,-0.01,-1.46,-0.02,-1.46,1.46,1.39,1.17,1.45,1.44,1.45
95.39,-0.02,-1.43,-0.03,-1.43,1.43,1.37,1.14,1.41,1.40,1.41
96.34,-0.04,-1.41,-0.04,-1.41,1.41,1.35,1.11,1.36,1.36,1.36
97.30,-0.06,-1.39,-0.05,-1.38,1.38,1.33,1.09,1.32,1.32,1.32
98.28,-0.06,-1.35,-0.07,-1.35,1.35,1.31,1.06,1.29,1.28,1.29
99.26,-0.08,-1.32,-0.08,-1.32,1.32,1.29,1.04,1.24,1.24,1.24
100.25,-0.09,-1.29,-0.10,-1.30,1.30,1.27,1.01,1.20,1.20,1.20
101.25,-0.11,-1.27,-0.11,-1.27,1.27,1.26,0.99,1.15,1.16,1.16
102.27,-0.12,-1.23,-0.13,-1.24,1.24,1.24,0.97,1.12,1.11,1.11
103.29,-0.14,-1.20,-0.14,-1.21,1.21,1.22,0.94,1.07,1.07,1.06
104.32,-0.15,-1.17,-0.16,-1.18,1.18,1.21,0.92,1.03,1.02,1.02
105.37,-0.17,-1.15,-0.17,-1.15,1.15,1.19,0.90,0.98,0.98,0.98
106.42,-0.19,-1.12,-0.19,-1.12,1.12,1.17,0.88,0.93,0.93,0.93
107.48,-0.21,-1.10,-0.21,-1.09,1.09,1.16,0.86,0.87,0.88,0.88
108.56,-0.22,-1.06,-0.22,-1.05,1.05,1.14,0.85,0.83,0.83,0.83
109.64,-0.23,-1.02,-0.24,-1.02,1.02,1.13,0.83,0.79,0.78,0.78
110.74,-0.25,-1.00,-0.25,-0.99,0.99,1.12,0.81,0.74,0.74,0.74
111.85,-0.27,-0.97,-0.27,-0.96,0.96,1.10,0.80,0.68,0.69,0.70
112.97,-0.29,-0.92,-0.29,-0.92,0.92,1.09,0.78,0.63,0.64,0.63
114.10,-0.31,-0.90,-0.31,-0.89,0.89,1.08,0.77,0.58,0.59,0.59
115.24,-0.31,-0.85,-0.32,-0.86,0.86,1.06,0.75,0.55,0.54,0.54
116.39,-0.33,-0.82,-0.34,-0.83,0.83,1.05,0.74,0.50,0.49,0.48
117.55,-0.35,-0.79,-0.36,-0.80,0.80,1.04,0.72,0.45,0.44,0.43
118.73,-0.37,-0.76,-0.37,-0.77,0.77,1.03,0.71,0.40,0.40,0.39
119.92,-0.39,-0.74,-0.39,-0.74,0.74,1.02,0.70,0.35,0.35,0.35
121.12,-0.41,-0.72,-0.41,-0.71,0.71,1.01,0.69,0.30,0.30,0.30
122.33,-0.43,-0.69,-0.43,-0.69,0.69,1.00,0.68,0.25,0.26,0.26
123.55,-0.44,-0.66,-0.45,-0.66,0.66,0.99,0.67,0.22,0.21,0.22
124.79,-0.46,-0.64,-0.46,-0.64,0.64,0.98,0.66,0.17,0.17,0.18
126.03,-0.48,-0.62,-0.48,-0.61,0.61,0.97,0.65,0.13,0.13,0.14
127.29,-0.50,-0.60,-0.50,-0.59,0.59,0.96,0.64,0.09,0.09,0.10
128.57,-0.52,-0.57,-0.52,-0.57,0.57,0.95,0.63,0.05,0.05,0.04
129.85,-0.53,-0.54,-0.54,-0.55,0.55,0.94,0.62,0.02,0.01,0.01
131.15,-0.55,-0.53,-0.55,-0.53,0.53,0.94,0.61,-0.02,-0.02,-0.02
132.46,-0.56,-0.50,-0.57,-0.51,0.51,0.93,0.61,-0.05,-0.06,-0.07
133.79,-0.58,-0.49,-0.59,-0.49,0.49,0.92,0.60,-0.09,-0.09,-0.09
135.12,-0.60,-0.47,-0.60,-0.48,0.48,0.91,0.59,-0.12,-0.12,-0.13
136.48,-0.62,-0.47,-0.62,-0.47,0.47,0.91,0.59,-0.15,-0.15,-0.15
137.84,-0.63,-0.46,-0.63,-0.46,0.46,0.90,0.58,-0.18,-0.18,-0.17
139.22,-0.65,-0.44,-0.65,-0.45,0.45,0.89,0.58,-0.20,-0.20,-0.21
140.61,-0.66,-0.42,-0.66,-0.44,0.44,0.89,0.58,-0.22,-0.22,-0.24
142.02,-0.68,-0.44,-0.68,-0.44,0.44,0.88,0.57,-0.25,-0.24,-0.24
143.44,-0.69,-0.44,-0.69,-0.43,0.43,0.88,0.57,-0.26,-0.26,-0.26
144.87,-0.71,-0.43,-0.71,-0.43,0.43,0.87,0.57,-0.28,-0.28,-0.28
146.32,-0.72,-0.42,-0.72,-0.42,0.42,0.87,0.56,-0.30,-0.30,-0.30
147.78,-0.73,-0.43,-0.74,-0.42,0.42,0.86,0.56,-0.31,-0.31,-0.31
149.26,-0.74,-0.42,-0.75,-0.42,0.42,0.86,0.56,-0.32,-0.33,-0.32
150.75,-0.76,-0.42,-0.76,-0.42,0.42,0.86,0.56,-0.35,-0.35,-0.35
152.26,-0.77,-0.41,-0.77,-0.41,0.41,0.85,0.56,-0.36,-0.36,-0.36
153.78,-0.78,-0.41,-0.79,-0.41,0.41,0.85,0.56,-0.37,-0.38,-0.38
155.32,-0.80,-0.41,-0.80,-0.41,0.41,0.85,0.56,-0.40,-0.39,-0.39
156.88,-0.81,-0.41,-0.81,-0.40,0.40,0.85,0.56,-0.41,-0.41,-0.40
158.44,-0.82,-0.40,-0.82,-0.39,0.39,0.84,0.56,-0.43,-0.42,-0.42
160.03,-0.83,-0.39,-0.83,-0.39,0.39,0.84,0.56,-0.44,-0.44,-0.44
161.63,-0.84,-0.38,-0.84,-0.38,0.38,0.84,0.56,-0.46,-0.46,-0.47
163.24,-0.85,-0.38,-0.85,-0.38,0.38,0.84,0.56,-0.48,-0.47,-0.48
164.88,-0.86,-0.38,-0.86,-0.37,0.37,0.84,0.56,-0.49,-0.49,-0.49
166.53,-0.87,-0.37,-0.87,-0.36,0.36,0.84,0.56,-0.51,-0.51,-0.51
168.19,-0.88,-0.35,-0.89,-0.36,0.36,0.84,0.57,-0.52,-0.53,-0.53
169.87,-0.90,-0.35,-0.91,-0.35,0.35,0.84,0.57,-0.55,-0.55,-0.55
171.57,-0.91,-0.34,-0.92,-0.35,0.35,0.84,0.57,-0.56,-0.57,-0.57
173.29,-0.94,-0.36,-0.95,-0.35,0.35,0.84,0.58,-0.60,-0.60,-0.59
175.02,-0.95,-0.34,-0.97,-0.35,0.35,0.84,0.58,-0.61,-0.62,-0.61
176.77,-0.98,-0.33,-0.99,-0.35,0.35,0.84,0.58,-0.64,-0.65,-0.65
178.54,-1.01,-0.34,-1.02,-0.35,0.35,0.84,0.59,-0.66,-0.67,-0.67
180.32,-1.04,-0.34,-1.05,-0.35,0.35,0.84,0.59,-0.69,-0.70,-0.70
182.13,-1.08,-0.36,-1.08,-0.35,0.35,0.84,0.60,-0.73,-0.73,-0.72
183.95,-1.12,-0.36,-1.11,-0.36,0.36,0.84,0.61,-0.77,-0.75,-0.76
185.79,-1.14,-0.36,-1.14,-0.36,0.36,0.84,0.61,-0.78,-0.78,-0.78
187.65,-1.18,-0.37,-1.17,-0.37,0.37,0.85,0.62,-0.82,-0.81,-0.82
189.52,-1.22,-0.38,-1.20,-0.37,0.37,0.85,0.63,-0.85,-0.83,-0.84
191.42,-1.24,-0.38,-1.23,-0.37,0.37,0.85,0.63,-0.87,-0.86,-0.86
193.33,-1.26,-0.39,-1.26,-0.38,0.38,0.85,0.64,-0.89,-0.88,-0.87
195.27,-1.29,-0.40,-1.29,-0.38,0.38,0.86,0.65,-0.91,-0.90,-0.90
197.22,-1.32,-0.41,-1.31,-0.39,0.39,0.86,0.66,-0.94,-0.92,-0.92
199.19,-1.33,-0.38,-1.34,-0.40,0.40,0.86,0.67,-0.94,-0.94,-0.96
201.18,-1.35,-0.39,-1.37,-0.40,0.40,0.87,0.67,-0.95,-0.96,-0.97
203.19,-1.39,-0.41,-1.40,-0.42,0.42,0.87,0.68,-0.98,-0.98,-0.98
205.23,-1.41,-0.41,-1.43,-0.43,0.43,0.88,0.69,-0.98,-1.00,-1.00
207.28,-1.44,-0.45,-1.46,-0.45,0.45,0.88,0.70,-1.00,-1.01,-1.00
209.35,-1.48,-0.46,-1.49,-0.47,0.47,0.89,0.71,-1.02,-1.03,-1.03
211.44,-1.51,-0.47,-1.53,-0.49,0.49,0.89,0.72,-1.02,-1.04,-1.05
213.56,-1.55,-0.50,-1.57,-0.52,0.52,0.90,0.73,-1.04,-1.05,-1.05
215.69,-1.60,-0.55,-1.61,-0.55,0.55,0.90,0.74,-1.06,-1.06,-1.05
217.85,-1.65,-0.59,-1.64,-0.58,0.58,0.91,0.75,-1.08,-1.07,-1.06
220.03,-1.69,-0.61,-1.68,-0.61,0.61,0.92,0.76,-1.08,-1.07,-1.08
222.23,-1.72,-0.64,-1.72,-0.65,0.65,0.92,0.77,-1.08,-1.07,-1.09
224.45,-1.76,-0.69,-1.76,-0.68,0.68,0.93,0.78,-1.08,-1.08,-1.07
226.70,-1.80,-0.72,-1.79,-0.72,0.72,0.94,0.79,-1.09,-1.07,-1.08
228.96,-1.83,-0.76,-1.82,-0.75,0.75,0.94,0.80,-1.08,-1.07,-1.08
231.25,-1.86,-0.80,-1.85,-0.79,0.79,0.95,0.82,-1.08,-1.07,-1.06
233.57,-1.88,-0.83,-1.88,-0.82,0.82,0.96,0.83,-1.06,-1.06,-1.05
235.90,-1.90,-0.86,-1.90,-0.86,0.86,0.96,0.84,-1.05,-1.04,-1.04
238.26,-1.91,-0.87,-1.92,-0.89,0.89,0.97,0.85,-1.03,-1.03,-1.04
240.64,-1.93,-0.92,-1.93,-0.92,0.92,0.98,0.86,-1.02,-1.02,-1.02
243.05,-1.94,-0.94,-1.95,-0.95,0.95,0.99,0.86,-1.00,-1.00,-1.00
245.48,-1.95,-0.98,-1.96,-0.98,0.98,1.00,0.87,-0.98,-0.98,-0.98
247.93,-1.96,-1.00,-1.96,-1.00,1.00,1.01,0.88,-0.96,-0.96,-0.96
250.41,-1.96,-1.02,-1.97,-1.03,1.03,1.02,0.89,-0.93,-0.94,-0.95
252.92,-1.96,-1.05,-1.97,-1.06,1.06,1.02,0.90,-0.90,-0.92,-0.91
255.45,-1.97,-1.09,-1.98,-1.08,1.08,1.03,0.91,-0.89,-0.89,-0.89
258.00,-1.97,-1.11,-1.97,-1.11,1.11,1.04,0.92,-0.87,-0.87,-0.86
260.58,-1.96,-1.12,-1.97,-1.13,1.13,1.05,0.93,-0.83,-0.84,-0.84
263.19,-1.96,-1.15,-1.96,-1.15,1.15,1.06,0.94,-0.81,-0.82,-0.82
265.82,-1.95,-1.16,-1.95,-1.16,1.16,1.07,0.94,-0.79,-0.79,-0.79
268.48,-1.94,-1.18,-1.94,-1.17,1.17,1.08,0.95,-0.77,-0.76,-0.77
271.16,-1.92,-1.19,-1.91,-1.18,1.18,1.10,0.96,-0.75,-0.74,-0.73
273.87,-1.90,-1.19,-1.89,-1.17,1.17,1.11,0.97,-0.73,-0.71,-0.71
276.61,-1.87,-1.20,-1.85,-1.17,1.17,1.12,0.98,-0.71,-0.68,-0.68
279.38,-1.83,-1.17,-1.81,-1.16,1.16,1.13,0.99,-0.68,-0.66,-0.66
282.17,-1.80,-1.17,-1.77,-1.14,1.14,1.14,1.00,-0.66,-0.63,-0.63
284.99,-1.75,-1.15,-1.73,-1.12,1.12,1.15,1.01,-0.63,-0.60,-0.60
287.84,-1.69,-1.12,-1.68,-1.11,1.11,1.16,1.02,-0.59,-0.57,-0.58
290.72,-1.63,-1.09,-1.63,-1.09,1.09,1.17,1.03,-0.54,-0.54,-0.54
293.63,-1.58,-1.06,-1.59,-1.07,1.07,1.19,1.04,-0.51,-0.51,-0.52
296.57,-1.52,-1.04,-1.55,-1.06,1.06,1.20,1.05,-0.46,-0.48,-0.49
299.53,-1.48,-1.03,-1.51,-1.06,1.06,1.21,1.06,-0.42,-0.45,-0.46
302.53,-1.44,-1.01,-1.48,-1.06,1.06,1.22,1.07,-0.38,-0.42,-0.43
305.55,-1.42,-1.04,-1.46,-1.07,1.07,1.24,1.09,-0.35,-0.39,-0.38
308.61,-1.41,-1.06,-1.44,-1.09,1.09,1.25,1.10,-0.33,-0.35,-0.35
311.69,-1.40,-1.09,-1.43,-1.11,1.11,1.26,1.11,-0.29,-0.32,-0.32
314.81,-1.41,-1.14,-1.43,-1.14,1.14,1.28,1.13,-0.27,-0.29,-0.28
317.96,-1.43,-1.18,-1.43,-1.18,1.18,1.29,1.14,-0.25,-0.25,-0.25
321.14,-1.44,-1.22,-1.45,-1.22,1.22,1.30,1.16,-0.22,-0.22,-0.22
324.35,-1.47,-1.28,-1.46,-1.27,1.27,1.32,1.18,-0.20,-0.19,-0.19
327.59,-1.49,-1.34,-1.48,-1.32,1.32,1.33,1.20,-0.17,-0.16,-0.16
330.87,-1.51,-1.39,-1.50,-1.37,1.37,1.35,1.22,-0.14,-0.13,-0.13
334.18,-1.54,-1.43,-1.53,-1.42,1.42,1.36,1.24,-0.12,-0.10,-0.11
337.52,-1.55,-1.47,-1.55,-1.47,1.47,1.37,1.26,-0.08,-0.08,-0.08
340.90,-1.57,-1.52,-1.57,-1.51,1.51,1.39,1.28,-0.06,-0.06,-0.05
344.30,-1.59,-1.56,-1.59,-1.56,1.56,1.40,1.30,-0.04,-0.03,-0.03
347.75,-1.61,-1.61,-1.61,-1.60,1.60,1.42,1.33,-0.02,-0.01,-0.00
351.23,-1.62,-1.64,-1.62,-1.63,1.63,1.43,1.35,0.01,0.01,0.01
354.74,-1.63,-1.67,-1.63,-1.67,1.67,1.45,1.38,0.03,0.03,0.03
358.28,-1.65,-1.71,-1.65,-1.70,1.70,1.46,1.41,0.05,0.05,0.05
361.87,-1.65,-1.72,-1.66,-1.73,1.73,1.48,1.44,0.08,0.07,0.07
365.49,-1.66,-1.76,-1.66,-1.76,1.76,1.49,1.47,0.09,0.09,0.10
369.14,-1.67,-1.78,-1.67,-1.78,1.78,1.51,1.50,0.11,0.11,0.11
372.83,-1.67,-1.80,-1.67,-1.81,1.81,1.53,1.53,0.14,0.13,0.13
376.56,-1.67,-1.82,-1.68,-1.83,1.83,1.54,1.56,0.16,0.15,0.15
380.33,-1.68,-1.86,-1.68,-1.85,1.85,1.56,1.60,0.17,0.17,0.18
384.13,-1.67,-1.87,-1.68,-1.87,1.87,1.57,1.63,0.20,0.19,0.20
387.97,-1.68,-1.90,-1.68,-1.89,1.89,1.59,1.66,0.21,0.22,0.21
391.85,-1.67,-1.91,-1.67,-1.91,1.91,1.60,1.70,0.24,0.24,0.23
395.77,-1.67,-1.94,-1.67,-1.93,1.93,1.62,1.74,0.25,0.26,0.26
399.73,-1.66,-1.95,-1.66,-1.94,1.94,1.64,1.77,0.28,0.28,0.28
403.72,-1.65,-1.95,-1.66,-1.96,1.96,1.65,1.81,0.31,0.30,0.30
407.76,-1.65,-1.97,-1.65,-1.97,1.97,1.67,1.85,0.32,0.32,0.32
411.84,-1.64,-1.99,-1.64,-1.98,1.98,1.69,1.89,0.34,0.35,0.35
415.96,-1.62,-1.99,-1.63,-2.00,2.00,1.70,1.93,0.37,0.37,0.37
420.12,-1.61,-2.00,-1.62,-2.01,2.01,1.72,1.97,0.39,0.39,0.39
424.32,-1.60,-2.02,-1.60,-2.02,2.02,1.73,2.01,0.41,0.41,0.42
428.56,-1.59,-2.03,-1.59,-2.03,2.03,1.75,2.04,0.44,0.44,0.44
432.85,-1.58,-2.04,-1.58,-2.04,2.04,1.77,2.08,0.46,0.46,0.46
437.18,-1.56,-2.05,-1.57,-2.05,2.05,1.78,2.12,0.49,0.49,0.49
441.55,-1.54,-2.06,-1.55,-2.06,2.06,1.80,2.16,0.52,0.51,0.52
445.96,-1.53,-2.07,-1.54,-2.08,2.08,1.82,2.19,0.55,0.54,0.54
450.42,-1.52,-2.08,-1.53,-2.09,2.09,1.83,2.23,0.57,0.56,0.56
454.93,-1.51,-2.11,-1.52,-2.11,2.11,1.85,2.26,0.59,0.59,0.59
459.48,-1.50,-2.12,-1.50,-2.12,2.12,1.87,2.29,0.62,0.62,0.61
464.07,-1.49,-2.14,-1.49,-2.14,2.14,1.88,2.32,0.65,0.65,0.64
468.71,-1.48,-2.17,-1.48,-2.16,2.16,1.90,2.35,0.67,0.68,0.68
473.40,-1.47,-2.18,-1.47,-2.17,2.17,1.92,2.37,0.70,0.70,0.70
478.13,-1.45,-2.19,-1.46,-2.19,2.19,1.93,2.40,0.74,0.73,0.73
482.91,-1.45,-2.22,-1.44,-2.21,2.21,1.95,2.42,0.75,0.76,0.76
487.74,-1.43,-2.23,-1.43,-2.22,2.22,1.96,2.44,0.79,0.79,0.79
