frequency,raw,error,smoothed,error_smoothed,equalization,equalized_raw,equalized_smoothed,target
20,-2.051282051282051,-2.0677612136762398,-2.1206510834686725,-2.137115869993133,2.1371158699931327,0.08583381871108164,0.016464786524460262,0.016479162394188673
21,-1.8233618233618287,-1.8410079098311267,-1.7369597816353475,-1.754607499251565,1.7546074992515646,-0.06875432411026416,0.017647717616217085,0.017646086469297995
22,-1.3675213675213698,-1.386283938513941,-1.3767133086290473,-1.3954869366294622,1.395486936629462,0.027965569108092225,0.01877362800041471,0.01876257099257117
23,-1.09139652263256,-1.1112237323677019,-1.0399116644497712,-1.0597541821268246,1.0597541821268248,-0.03164234050573511,0.019842517677053584,0.01982720973514196
24,-0.6837606837606885,-0.7045990273084751,-0.7265548490975184,-0.747409235743651,0.7474092357436507,0.06364855198296215,0.02085438664613226,0.020838343547786575
25,-0.45584045584045907,-0.47763448475517445,-0.4383795730999014,-0.46019087315174356,0.4601908731517436,0.004350417311284549,0.02181130005184223,0.02179402891471538
26,-0.14276680114077864,-0.1654588053507556,-0.17348770898075633,-0.19619907987396085,0.19619907987396087,0.05343227873318224,0.022711370893204547,0.022692004209976968
27,0.16708696138920692,0.1435528138422037,0.07006185664000035,0.04650944982873531,-0.046509449828735325,0.1205775115604716,0.023552406811265025,0.023534147547003226
28,0.22792022792022243,0.20360675295228964,0.29518783362999934,0.27085726279190725,-0.27085726279190714,-0.04293703487168471,0.024330570838092203,0.02431347496793279
29,0.4558404558404519,0.43081573649567734,0.5054937562531607,0.4804535462170243,-0.4804535462170244,-0.0246130903765725,0.025040210036136323,0.02502471934477457
30,0.6837606837606813,0.6580994302897181,0.7041669259363816,0.6784923819360179,-0.678492381936018,0.005268301824663313,0.02567454400036362,0.025661253470963263
31,0.9116809116809108,0.8854658521207379,0.89377365136007,0.867548222457798,-0.8675482224577976,0.0441326892231132,0.02622542890227242,0.026215059560172893
32,1.1396011396011403,1.112924330659005,1.0757075101794413,1.0490237999861638,-1.0490237999861636,0.09057733961497672,0.026683710193277754,0.0266768089421352
33,1.1396011396011403,1.1125650742275028,1.250039827426471,1.2230003485997165,-1.2230003485997165,-0.08339920899857622,0.027039478826754504,0.027036065373637452
34,1.3675213675213627,1.3402389815291595,1.4157737941885131,1.3884915195690397,-1.3884915195690397,-0.02097015204767705,0.027282274619473412,0.027282385992203118
35,1.595441595441592,1.5680368031469551,1.5713031447475305,1.5439017435454558,-1.5439017435454558,0.05153985189613608,0.027401401202074682,0.02740479229463677
36,1.8151562391309342,1.7877639118170392,1.715070805956127,1.6876846261892835,-1.6876846261892835,0.12747161294165066,0.027386179766843544,0.02739232731389496
37,1.823361823361822,1.796127471756022,1.8461620087272201,1.818935809950003,-1.8189358099500028,0.004426013411819252,0.027226198777217325,0.02723435160580001
38,2.051282051282051,2.024361273467048,1.9646581073364149,1.937746573834188,-1.9377465738341884,0.11353547744786274,0.026911533502226526,0.026920777815003127
39,2.0512820512820515,2.0248398331528903,2.071672480354364,2.045239580037102,-2.0452395800371015,0.006042471244950054,0.02643290031726231,0.026442218129161255
40,2.0819293503462024,2.056139320752,2.169082609575835,2.143300862367494,-2.1433008623674934,-0.061371512021290986,0.0257817472083417,0.0257900295942024
41,2.2792022792022735,2.254245891195059,2.25909517498192,2.234144913589966,-2.2341449135899656,0.04505736561230789,0.02495026139195433,0.024956388007214336
42,2.279202279202274,2.2552680936384126,2.3438143011855197,2.319883012161827,-2.319883012161829,-0.04068073295955488,0.023931289023690905,0.023934185563861288
43,2.507122507122503,2.4844056496012885,2.42494745929052,2.4022292916771875,-2.4022292916771875,0.10489321544531549,0.02271816761333234,0.02271685752121444
44,2.507122507122503,2.4858243820704917,2.5036971479887926,2.48239267494065,-2.4823926749406495,0.02472983218185343,0.02130447304814309,0.02129812505201123
45,2.507122507122503,2.487450845412342,2.5807909898402395,2.5611072998299664,-2.561107299829966,-0.053984792707463036,0.01968369001027348,0.019671661710161104
46,2.735042735042733,2.7172120432161826,2.6565549487998923,2.6387061314850917,-2.6387061314850917,0.09633660355764118,0.01784881731480059,0.017830691826550282
47,2.735042735042733,2.7192752054265403,2.7309517004138617,2.71515977751993,-2.7151597775199305,0.019882957522802336,0.015791922893931165,0.015767529616192544
48,2.7350427350427324,2.721569643656494,2.8035706220514323,2.790066955971195,-2.7900669559711955,-0.05502422092846304,0.013503666080236787,0.013473091386238423
49,2.866481918047703,2.855545525869063,2.8736237483816174,2.8626509420337736,-2.862650942033773,0.0038309760139298987,0.010972806347844255,0.010936392178639842
50,2.962962962962962,2.95481891405805,2.940028323439339,2.931842604779913,-2.9318426047799124,0.03112035818304948,0.008185718659426744,0.008144048904911827
51,2.962962962962962,2.957883152089258,3.001620630955337,2.9964946954925966,-2.996494695492597,-0.03353173252963515,0.005125935462739761,0.005079810873704016
52,3.063440039274502,3.061715901558019,3.057466963109399,3.0556932288336136,-3.055693228833613,0.007746810440888652,0.0017737342757859764,0.001724137716482943
53,3.1908831908831923,3.192829348517607,3.1071645778382946,3.109058789964882,-3.109058789964883,0.08182440091830934,-0.0018942121265883571,-0.0019461576344146359
54,3.1908831908831923,3.196841378140793,3.1510058922478215,3.1569110008845467,-3.156911000884547,0.03397218999864515,-0.0059051086367256644,-0.005958187257600667
55,3.1908831908831923,3.201226366807716,3.1899299203190665,3.200220143180192,-3.200220143180193,-0.0093369522970006,-0.010290222861126352,-0.010343175924523607
56,3.1908831908831923,3.2060197417816805,3.225280339673721,3.2403653146780758,-3.2403653146780766,-0.04948212379488437,-0.015084975004355794,-0.015136550898488199
57,3.190883190883192,3.2112611214876443,3.2584776000441664,3.2788065292606294,-3.2788065292606285,-0.08792333837743671,-0.02032892921646212,-0.020377930604452477
58,3.1908831908831923,3.216994203863286,3.290743888921175,3.3168095758545824,-3.316809575854583,-0.12592638497139053,-0.02606568693340794,-0.026111012980093662
59,3.418803418803414,3.451186786894055,3.322975926403516,3.3553186128418706,-3.355318612841871,0.06348480596154316,-0.03234268643835492,-0.03238336809064091
60,3.418803418803414,3.458049561754373,3.3557679696796066,3.394978885860682,-3.394978885860682,0.023824532942732013,-0.03921091618107564,-0.03924614295095896
61,3.4188034188034138,3.4655571082655126,3.389501181896656,3.4362257340535827,-3.436225734053583,-0.01742231525016935,-0.04672455215692706,-0.04675368946209879
62,3.4188034188034138,3.473766547245729,3.4243861519419614,3.4793266836906938,-3.4793266836906938,-0.06052326488727999,-0.05494053174873237,-0.05496312844231532
63,3.4188034188034138,3.4827372829036376,3.4603891198021453,3.52430719760297,-3.5243071976029707,-0.10550377879955697,-0.06391807780082548,-0.06393386410022384
64,3.4188034188034138,3.4925304826627888,3.497062052992848,3.570780240251313,-3.570780240251314,-0.15197682144790026,-0.07371818725846602,-0.073727063859375
65,3.4682016633417856,3.5526067815662836,3.5333797664105306,3.6177828651275945,-3.6177828651275927,-0.14958120178580714,-0.08440309871706209,-0.08440511822449803
66,3.6467236467236432,3.742754741158776,3.5677155103473437,3.6637512624053814,-3.6637512624053827,-0.017027615681739494,-0.09603575205803905,-0.09603109443513258
67,3.6467236467236432,3.755391842805179,3.598042256254835,3.7067215080968303,-3.7067215080968294,-0.05999786137318619,-0.10867925184199434,-0.10866819608153566
68,3.6467236467236432,3.769102885544038,3.6223530071322236,3.744749352143117,-3.7447493521431174,-0.0980257054194742,-0.1223963450108938,-0.12237923882039459
69,3.6467236467236432,3.783949796682819,3.639196432335296,3.776445353946124,-3.776445353946124,-0.12972170722248055,-0.1372489216108277,-0.1372261499591758
70,3.646723646723644,3.79999314387281,3.6481679946502794,3.8014655379646225,-3.801465537964623,-0.1547418912409788,-0.15329754331434353,-0.1532694971491657
71,3.646723646723644,3.817291695625853,3.6502012593447235,3.820802259038598,-3.820802259038599,-0.17407861231495492,-0.17060099969387554,-0.17056804890220878
72,3.6467236467236437,3.835902014001419,3.6475599993163454,3.8367758895761246,-3.836775889576125,-0.19005224285248135,-0.18921589025977958,-0.18917836727777537
73,3.6467236467236432,3.855878077729343,3.6435128300974045,3.8527090650441664,-3.8527090650441664,-0.2059854183205232,-0.20919623494676198,-0.20915443100569986
74,3.6467236467236437,3.877270932340399,3.6417507350889933,3.872343854285284,-3.8723438542852846,-0.22562020756164092,-0.23059311919629133,-0.2305472856167552
75,3.6467236467236432,3.900128362643369,3.6456666679704917,3.8991210503389926,-3.8991210503389926,-0.25239740361534935,-0.25345438236850093,-0.2534047159197259
76,3.6467236467236437,3.9244945821483883,3.657650188706491,3.935474538533944,-3.935474538533944,-0.2887508918103001,-0.27782434982745263,-0.2777709354247446
77,3.6467236467236432,3.9504099337935807,3.678556535989417,3.982300109410163,-3.982300109410163,-0.33557646268651986,-0.3037435734207463,-0.3036862870699375
78,3.6467236467236432,3.977910596556976,3.7074846004425615,4.038733093871198,-4.038733093871197,-0.3920094471475535,-0.33124849342863527,-0.33118694983333263
79,3.646723646723644,4.0070282931741525,3.741937925664084,4.102308853271003,-4.102308853271004,-0.4555852065473598,-0.3603709276069198,-0.3603046464505084
80,3.8746438746438727,4.265710223082543,3.778351861191924,4.169489263461695,-4.169489263461695,-0.29484538881782196,-0.3911374022697709,-0.3910663484386703
81,3.8746438746438727,4.298137850509748,3.8128685656450187,4.236437137392944,-4.2364371373929455,-0.36179326274907275,-0.4235685717479267,-0.4234939758658749
82,3.8746438746438727,4.332247965356844,3.8421625539013506,4.299841741805153,-4.299841741805153,-0.4251978671612804,-0.45767918790380246,-0.4576040907129708
83,3.8746438746438727,4.368051458814765,3.8640962752756582,4.3575753581612595,-4.35757535816126,-0.4829314835173877,-0.49347908288560216,-0.49340758417089203
84,3.8746438746438727,4.405553234365058,3.8780345638492792,4.409009724502717,-4.4090097245027176,-0.5343658498588448,-0.5309751606534383,-0.530909359721186
85,3.8746438746438727,4.444751889942819,3.884755206869209,4.454928584909983,-4.454928584909983,-0.5802847102661106,-0.5701733780407743,-0.5701080152989464
86,3.8746438746438727,4.485639403828497,3.8860213060620747,4.497099835381087,-4.497099835381087,-0.6224559607372147,-0.6110785293190126,-0.6109955291846236
87,3.8746438746438727,4.528200830122675,3.8839814265786154,4.537670671971891,-4.537670671971891,-0.6630267973280182,-0.6536892453932754,-0.6535569554788019
88,3.8746438746438727,4.572414010702582,3.8805997418120355,4.57858671437565,-4.57858671437565,-0.7039428397317771,-0.6979869725636143,-0.6977701360587099
89,3.8746438746438727,4.618249311427772,3.877281320250019,4.6212024523629935,-4.621202452362994,-0.7465585777191217,-0.7439211321129755,-0.7436054367838993
90,3.8746438746438727,4.665669391048083,3.874767225050064,4.6661644449502075,-4.666164444950208,-0.7915205703063357,-0.7913972199001442,-0.7910255164042104
91,3.8746438746438727,4.7146290117651315,3.873268858878565,4.71354693928261,-4.71354693928261,-0.8389030646387372,-0.8402780804040448,-0.8399851371212583
92,3.8746438746438727,4.765074900703429,3.872730689256456,4.763138687714988,-4.763138687714987,-0.8884948130711141,-0.8904079984585307,-0.8904310260595567
93,3.8746438746438727,4.816945671648819,3.8730794967318785,4.814742035668998,-4.814742035668998,-0.9400981610251256,-0.9416625389371198,-0.9423017970049461
94,3.8746438746438727,4.870171816294548,3.87434192280959,4.868356897814833,-4.868356897814832,-0.993713023170959,-0.9940149750052418,-0.9955279416506757
95,3.8746438746438727,4.9246757738770075,3.8765780059196135,4.924175002926347,-4.924175002926345,-1.0495311282824726,-1.0475969970067318,-1.0500318992331348
96,3.8746438746438727,4.980372087457317,3.8796621649713092,4.982385910720648,-4.982385910720648,-1.1077420360767753,-1.1027237457493388,-1.1057282128134447
97,3.8746438746438727,5.037167654182432,3.8830155816621597,5.042872549866727,-5.042872549866727,-1.1682286752228546,-1.1598569682045676,-1.1625237795385592
98,3.8746438746438727,5.0949620756128775,3.885429334204324,5.104926590754748,-5.104926590754748,-1.2302827161108754,-1.219497256550424,-1.2203182009690048
99,3.8746438746438727,5.153648112612936,3.885100781699264,5.167123755245878,-5.167123755245879,-1.2924798806020066,-1.2820229735466153,-1.2790042379690636
100,3.8746438746438727,5.213112247353361,3.8799372315006924,5.227456992049415,-5.227456992049417,-1.3528131174055442,-1.3475197605487246,-1.338468372709488
101,3.8746438746438727,5.273235352683522,3.8680794109606635,5.283738027521467,-5.2837380275214665,-1.4090941528775938,-1.415658616560803,-1.3985914780396493
102,3.8746438746438727,5.333893466517025,3.848498584230856,5.334172624718518,-5.3341726247185175,-1.4595287500746448,-1.4856740404876616,-1.459249591873152
104,3.8746438746438727,5.456923291155261,3.821466266551159,5.377932483303704,-5.377932483303704,-1.5032886086598314,-1.5564662167525452,-1.5822794165113887
105,3.8746438746438727,5.518345538492014,3.7887128723025025,5.415523928163768,-5.415523928163768,-1.5408800535198957,-1.6268110558612658,-1.6437016638481405
106,3.7131892427674984,5.418333978768503,3.7531827735409156,5.448806232836439,-5.4488062328364375,-1.735616990068939,-1.695623459295522,-1.7051447360010048
107,3.6467236467236432,5.413201203431417,3.718428805153636,5.48062619021384,-5.48062619021384,-1.833902543490197,-1.7621973850602042,-1.7664775567077742
108,3.646723646723643,5.474293857963602,3.6878187831016596,5.514169160208043,-5.514169160208043,-1.8674455134844004,-1.8263503771063836,-1.8275702112399594
109,3.6467236467236432,5.535018707549828,3.6637982283870203,5.552227572180828,-5.552227572180828,-1.905503925457185,-1.888429343793808,-1.888295060826184
110,3.6467236467236432,5.595251500110247,3.647436223149123,5.596614306895561,-5.596614306895559,-1.9498906601719161,-1.9491780837464363,-1.9485278533866035
111,3.6467236467236432,5.65487245550611,3.6383808436816185,5.647890544742921,-5.647890544742922,-2.001166898019279,-2.0095097010613037,-2.008148808782467
112,3.6467236467236432,5.713767302699115,3.635206117340712,5.705460136782387,-5.705460136782387,-2.0587364900587435,-2.0702540194416748,-2.067043655975472
113,3.6467236467236432,5.771828246162002,3.635999354157488,5.767952165493915,-5.767952165493914,-2.1212285187702706,-2.1319528113364257,-2.125104599438359
114,3.6467236467236432,5.828954839655463,3.638964989541438,5.833719530878859,-5.833719530878859,-2.186995884155216,-2.194754541337421,-2.1822311929318197
115,3.6467236467236432,5.885054747119468,3.6428329394447374,5.9012573557607535,-5.901257355760755,-2.254533709037112,-2.258424416316018,-2.2383311003958246
117,3.6467236467236437,5.994757089019524,3.646947934569252,5.969396494473166,-5.969396494473164,-2.3226728477495207,-2.322448559903912,-2.3480334422958804
118,3.6467236467236432,6.0474374532986275,3.6510455357876213,6.0372314567736725,-6.037231456773671,-2.3905078100500274,-2.3861859209860494,-2.400713806574984
119,3.646723646723643,6.098821565061539,3.654841613504514,6.10385688401628,-6.1038568840162775,-2.4571332372926347,-2.4490152705117634,-2.452097918337896
120,3.6467236467236432,6.148861259756853,3.6576320173427908,6.1680690221035235,-6.168069022103523,-2.5213453753798793,-2.510437004760732,-2.5021376130332094
121,3.6467236467236432,6.19751788712259,3.6580942522767526,6.228207794996383,-6.228207794996383,-2.5814841482727395,-2.57011354271963,-2.5507942403989463
123,3.6467236467236437,6.292160493691603,3.6544055514292695,6.282262615576381,-6.282262615576381,-2.6355389688527375,-2.6278570641471117,-2.6454368469679594
124,3.646723646723643,6.336665632627058,3.644669438373323,6.328258697759505,-6.3282586977595034,-2.6815350510358607,-2.6835892593861805,-2.689941985903416
125,3.6467236467236437,6.379716886921866,3.627520049577681,6.36481989584182,-6.364819895841819,-2.7180962491181755,-2.737299846264138,-2.7329932401982227
126,3.6467236467236432,6.4213153832212875,3.6026960521733304,6.391716784741691,-6.39171678474169,-2.744993138018047,-2.7890207325683596,-2.774591736497644
128,3.6467236467236432,6.502292757132144,3.5713734014685397,6.410191230761216,-6.410191230761217,-2.763467584037574,-2.838817829292678,-2.8555691104085015
129,3.557384913016146,6.450371726247825,3.536119841665675,6.422910338676575,-6.4229103386765765,-2.8655254256604303,-2.8867904970109013,-2.8929868132316785
130,3.4188034188034138,6.347808988136665,3.5004567246514338,6.433521742704745,-6.4335217427047455,-3.0147183239013318,-2.9330650180533118,-2.9290055693332513
131,3.4188034188034138,6.382455813339356,3.4681395004294346,6.445913744570486,-6.445913744570487,-3.0271103257670733,-2.9777742441410524,-2.9636523945359423
133,3.418803418803414,6.450212932187686,3.4423513354102377,6.463377702995642,-6.4633777029956425,-3.0445742841922283,-3.0210263675854048,-3.031409513384272
134,3.4188034188034133,6.480994773778894,3.425018856301956,6.48789371925989,-6.4878937192598904,-3.069090300456477,-3.0628748629579343,-3.062191354975481
135,3.418803418803414,6.510527518665353,3.416408916569706,6.519712692707197,-6.519712692707199,-3.100909273903785,-3.1033037761374933,-3.091724099861939
137,3.4188034188034138,6.568597884141315,3.415078849617127,6.557315522701991,-6.557315522701992,-3.138512103898578,-3.1422366730848648,-3.149794465337902
138,3.4188034188034138,6.5946385564231695,3.4181656205684963,6.597732719432791,-6.597732719432792,-3.1789293006293784,-3.179567098864296,-3.1758351376197558
140,3.4188034188034138,6.646092388863406,3.4219374692428746,6.6371359886947925,-6.637135988694793,-3.2183325698913796,-3.215198519451919,-3.227288970059992
141,3.4188034188034138,6.668941355235704,3.422501389719728,6.67157888735332,-6.67157888735332,-3.252775468549906,-3.249077497633592,-3.2501379364322904
142,3.4188034188034138,6.690788478157113,3.416550432158892,6.697757881458075,-6.6977578814580765,-3.2789544626546627,-3.2812074492991843,-3.2719850593537
144,3.418803418803414,6.734312277094076,3.4020313047660693,6.713670976414387,-6.713670976414387,-3.294867557610973,-3.311639671648318,-3.3155088582906616
145,3.418803418803414,6.7533680734138954,3.3786102232049515,6.71905877354558,-6.719058773545579,-3.300255354742165,-3.3404485503406276,-3.3345646546104812
147,3.4188034188034138,6.791612320176393,3.3478230932667077,6.715527120264291,-6.715527120264291,-3.296723701460877,-3.367704026997583,-3.3728089013729794
148,3.3587715669528535,6.7481243627466485,3.3128314077406467,6.706285503210777,-6.706285503210776,-3.347513936257923,-3.3934540954701298,-3.389352795793795
150,3.190883190883192,6.613738118017489,3.277777971928134,6.695502109064352,-6.695502109064354,-3.5046189181811624,-3.4177241371362204,-3.4228549271342974
151,3.1908831908831923,6.62802751591595,3.2468393200472905,6.687370585392773,-6.687370585392773,-3.4964873945095807,-3.4405312653454825,-3.437144325032758
153,3.190883190883192,6.657286581067879,3.2231758919725326,6.685080744873811,-6.68508074487381,-3.494197553990618,-3.4619048529012773,-3.466403390184687
154,3.190883190883192,6.669554411042052,3.2080465074195463,6.68994872064296,-6.689948720642959,-3.499065529759767,-3.4819022132234125,-3.47867122015886
156,3.190883190883192,6.695026216605573,3.2003460324945476,6.700957554800355,-6.700957554800356,-3.510074363917164,-3.500611522305808,-3.504143025722381
157,3.190883190883192,6.705480679674611,3.196733142676705,6.7148736407599205,-6.7148736407599205,-3.5239904498767287,-3.5181404980832154,-3.5145974887914195
