frequency,raw
20.00,-3.43
20.20,-3.39
20.40,-3.36
20.61,-3.33
20.81,-3.30
21.02,-3.27
21.23,-3.23
21.44,-3.19
21.66,-3.15
21.87,-3.11
22.09,-3.05
22.31,-2.99
22.54,-2.94
22.76,-2.89
22.99,-2.84
23.22,-2.80
23.45,-2.76
23.69,-2.72
23.92,-2.68
24.16,-2.64
24.40,-2.61
24.65,-2.57
24.89,-2.52
25.14,-2.47
25.39,-2.42
25.65,-2.37
25.91,-2.31
26.16,-2.26
26.43,-2.20
26.69,-2.15
26.96,-2.09
27.23,-2.04
27.50,-1.99
27.77,-1.93
28.05,-1.87
28.33,-1.82
28.62,-1.75
28.90,-1.70
29.19,-1.64
29.48,-1.57
29.78,-1.52
30.08,-1.46
30.38,-1.42
30.68,-1.36
30.99,-1.31
31.30,-1.27
31.61,-1.21
31.93,-1.16
32.24,-1.11
32.57,-1.05
32.89,-0.99
33.22,-0.92
33.55,-0.86
33.89,-0.80
34.23,-0.74
34.57,-0.67
34.92,-0.62
35.27,-0.56
35.62,-0.50
35.97,-0.45
36.33,-0.39
36.70,-0.34
37.06,-0.29
37.43,-0.24
37.81,-0.20
38.19,-0.15
38.57,-0.11
38.95,-0.06
39.34,-0.01
39.74,0.04
40.14,0.09
40.54,0.13
40.94,0.18
41.35,0.22
41.76,0.27
42.18,0.31
42.60,0.34
43.03,0.38
43.46,0.41
43.90,0.46
44.33,0.49
44.78,0.52
45.23,0.56
45.68,0.59
46.13,0.63
46.60,0.67
47.06,0.70
47.53,0.74
48.01,0.77
48.49,0.80
48.97,0.82
49.46,0.84
49.96,0.86
50.46,0.89
50.96,0.90
51.47,0.91
51.99,0.93
52.51,0.94
53.03,0.96
53.56,0.97
54.10,1.00
54.64,1.00
55.18,1.02
55.74,1.03
56.29,1.04
56.86,1.06
57.42,1.07
58.00,1.08
58.58,1.09
59.16,1.11
59.76,1.11
60.35,1.12
60.96,1.12
61.57,1.13
62.18,1.14
62.80,1.14
63.43,1.14
64.07,1.13
64.71,1.13
65.35,1.13
66.01,1.12
66.67,1.13
67.33,1.13
68.01,1.12
68.69,1.13
69.37,1.13
70.07,1.13
70.77,1.13
71.48,1.14
72.19,1.14
72.91,1.15
73.64,1.15
74.38,1.15
75.12,1.15
75.87,1.15
76.63,1.15
77.40,1.15
78.17,1.15
78.95,1.15
79.74,1.15
80.54,1.15
81.35,1.16
82.16,1.16
82.98,1.16
83.81,1.16
84.65,1.15
85.50,1.16
86.35,1.16
87.22,1.15
88.09,1.16
88.97,1.15
89.86,1.15
90.76,1.15
91.66,1.15
92.58,1.15
93.51,1.15
94.44,1.16
95.39,1.15
96.34,1.15
97.30,1.15
98.28,1.16
99.26,1.16
100.25,1.16
101.25,1.16
102.27,1.16
103.29,1.16
104.32,1.16
105.37,1.16
106.42,1.15
107.48,1.16
108.56,1.16
109.64,1.16
110.74,1.16
111.85,1.16
112.97,1.16
114.10,1.15
115.24,1.16
116.39,1.16
117.55,1.15
118.73,1.15
119.92,1.15
121.12,1.14
122.33,1.14
123.55,1.14
124.79,1.14
126.03,1.13
127.29,1.13
128.57,1.13
129.85,1.13
131.15,1.12
132.46,1.12
133.79,1.12
135.12,1.11
136.48,1.10
137.84,1.10
139.22,1.10
140.61,1.10
142.02,1.10
143.44,1.09
144.87,1.09
146.32,1.09
147.78,1.08
149.26,1.08
150.75,1.07
152.26,1.07
153.78,1.06
155.32,1.06
156.88,1.05
158.44,1.03
160.03,1.03
161.63,1.01
163.24,1.00
164.88,0.99
166.53,0.98
168.19,0.96
169.87,0.93
171.57,0.92
173.29,0.89
175.02,0.88
176.77,0.85
178.54,0.83
180.32,0.80
182.13,0.77
183.95,0.74
185.79,0.72
187.65,0.70
189.52,0.66
191.42,0.64
193.33,0.61
195.27,0.58
197.22,0.54
199.19,0.52
201.18,0.49
203.19,0.44
205.23,0.41
207.28,0.38
209.35,0.34
211.44,0.31
213.56,0.27
215.69,0.23
217.85,0.19
220.03,0.16
222.23,0.12
224.45,0.09
226.70,0.05
228.96,0.01
231.25,-0.03
233.57,-0.07
235.90,-0.10
238.26,-0.14
240.64,-0.18
243.05,-0.21
245.48,-0.26
247.93,-0.30
250.41,-0.34
252.92,-0.38
255.45,-0.43
258.00,-0.47
260.58,-0.52
263.19,-0.57
265.82,-0.61
268.48,-0.67
271.16,-0.71
273.87,-0.77
276.61,-0.82
279.38,-0.86
282.17,-0.91
284.99,-0.95
287.84,-0.98
290.72,-0.99
293.63,-1.00
296.57,-0.98
299.53,-0.96
302.53,-0.93
305.55,-0.89
308.61,-0.85
311.69,-0.81
314.81,-0.78
317.96,-0.76
321.14,-0.74
324.35,-0.74
327.59,-0.75
330.87,-0.76
334.18,-0.77
337.52,-0.79
340.90,-0.83
344.30,-0.87
347.75,-0.93
351.23,-0.99
354.74,-1.07
358.28,-1.16
361.87,-1.25
365.49,-1.35
369.14,-1.44
372.83,-1.54
376.56,-1.62
380.33,-1.71
384.13,-1.79
387.97,-1.88
391.85,-1.96
395.77,-2.04
399.73,-2.11
403.72,-2.19
407.76,-2.26
411.84,-2.33
415.96,-2.39
420.12,-2.45
424.32,-2.51
428.56,-2.56
432.85,-2.60
437.18,-2.63
441.55,-2.65
445.96,-2.68
450.42,-2.69
454.93,-2.71
459.48,-2.72
464.07,-2.74
468.71,-2.76
473.40,-2.78
478.13,-2.79
482.91,-2.82
487.74,-2.83
492.62,-2.84
497.55,-2.86
502.52,-2.88
507.55,-2.89
512.62,-2.90
517.75,-2.90
522.93,-2.91
528.16,-2.91
533.44,-2.91
538.77,-2.91
544.16,-2.91
549.60,-2.90
555.10,-2.90
560.65,-2.89
566.25,-2.89
571.92,-2.87
577.64,-2.88
583.41,-2.87
589.25,-2.86
595.14,-2.86
601.09,-2.86
607.10,-2.86
613.17,-2.86
619.30,-2.86
625.50,-2.86
631.75,-2.87
638.07,-2.86
644.45,-2.86
650.89,-2.86
657.40,-2.85
663.98,-2.85
670.62,-2.84
677.32,-2.82
684.10,-2.81
690.94,-2.79
697.85,-2.77
704.83,-2.74
711.87,-2.71
718.99,-2.68
726.18,-2.65
733.44,-2.61
740.78,-2.57
748.19,-2.53
755.67,-2.47
763.23,-2.43
770.86,-2.38
778.57,-2.33
786.35,-2.28
794.22,-2.22
802.16,-2.17
810.18,-2.11
818.28,-2.05
826.46,-1.99
834.73,-1.92
843.08,-1.85
851.51,-1.77
860.02,-1.70
868.62,-1.60
877.31,-1.51
886.08,-1.41
894.94,-1.31
903.89,-1.20
912.93,-1.09
922.06,-0.97
931.28,-0.86
940.59,-0.74
950.00,-0.61
959.50,-0.50
969.09,-0.38
978.78,-0.25
988.57,-0.13
998.46,-0.02
1008.44,0.09
1018.53,0.21
1028.71,0.32
1039.00,0.43
1049.39,0.54
1059.88,0.65
1070.48,0.75
1081.19,0.86
1092.00,0.97
1102.92,1.07
1113.95,1.16
1125.09,1.26
1136.34,1.35
1147.70,1.44
1159.18,1.52
1170.77,1.61
1182.48,1.69
1194.30,1.77
1206.25,1.85
1218.31,1.92
1230.49,1.98
1242.80,2.04
1255.22,2.11
1267.78,2.17
1280.45,2.22
1293.26,2.27
1306.19,2.32
1319.25,2.36
1332.45,2.42
1345.77,2.46
1359.23,2.51
1372.82,2.57
1386.55,2.62
1400.41,2.69
1414.42,2.75
1428.56,2.83
1442.85,2.91
1457.28,2.99
1471.85,3.08
1486.57,3.17
1501.43,3.26
1516.45,3.34
1531.61,3.43
1546.93,3.52
1562.40,3.60
1578.02,3.67
1593.80,3.74
1609.74,3.79
1625.84,3.83
1642.10,3.84
1658.52,3.83
1675.10,3.80
1691.85,3.77
1708.77,3.74
1725.86,3.71
1743.12,3.69
1760.55,3.69
1778.15,3.71
1795.94,3.77
1813.90,3.85
1832.03,3.94
1850.36,4.06
1868.86,4.18
1887.55,4.31
1906.42,4.44
1925.49,4.57
1944.74,4.70
1964.19,4.83
1983.83,4.95
2003.67,5.07
2023.71,5.19
2043.94,5.30
2064.38,5.41
2085.03,5.51
2105.88,5.61
2126.94,5.73
2148.20,5.84
2169.69,5.96
2191.38,6.09
2213.30,6.22
2235.43,6.35
2257.78,6.49
2280.36,6.62
2303.17,6.75
2326.20,6.89
2349.46,7.01
2372.95,7.15
2396.68,7.29
2420.65,7.43
2444.86,7.57
2469.31,7.71
2494.00,7.87
2518.94,8.01
2544.13,8.18
2569.57,8.34
2595.27,8.51
2621.22,8.68
2647.43,8.85
2673.90,9.02
2700.64,9.20
2727.65,9.36
2754.93,9.52
2782.48,9.68
2810.30,9.83
2838.40,9.97
2866.79,10.12
2895.46,10.25
2924.41,10.37
2953.65,10.50
2983.19,10.61
3013.02,10.71
3043.15,10.81
3073.58,10.88
3104.32,10.93
3135.36,10.97
3166.72,10.96
3198.38,10.93
3230.37,10.88
3262.67,10.77
3295.30,10.61
3328.25,10.43
3361.53,10.21
3395.15,9.96
3429.10,9.69
3463.39,9.40
3498.03,9.08
3533.01,8.75
3568.34,8.41
3604.02,8.06
3640.06,7.71
3676.46,7.34
3713.22,6.98
3750.36,6.61
3787.86,6.25
3825.74,5.90
3864.00,5.57
3902.64,5.25
3941.66,4.93
3981.08,4.63
4020.89,4.33
4061.10,4.04
4101.71,3.73
4142.73,3.43
4184.15,3.10
4226.00,2.74
4268.26,2.37
4310.94,1.98
4354.05,1.57
4397.59,1.15
4441.56,0.74
4485.98,0.33
4530.84,-0.07
4576.15,-0.44
4621.91,-0.78
4668.13,-1.09
4714.81,-1.35
4761.96,-1.59
4809.58,-1.75
4857.67,-1.85
4906.25,-1.93
4955.31,-1.92
5004.87,-1.85
5054.91,-1.77
5105.46,-1.63
5156.52,-1.49
5208.08,-1.34
5260.16,-1.21
5312.77,-1.08
5365.89,-0.96
5419.55,-0.85
5473.75,-0.72
5528.49,-0.58
5583.77,-0.42
5639.61,-0.23
5696.00,-0.02
5752.96,0.20
5810.49,0.43
5868.60,0.65
5927.28,0.87
5986.56,1.08
6046.42,1.27
6106.89,1.47
6167.96,1.66
6229.64,1.86
6291.93,2.08
6354.85,2.32
6418.40,2.60
6482.58,2.93
6547.41,3.29
6612.88,3.73
6679.01,4.23
6745.80,4.77
6813.26,5.39
6881.39,6.04
6950.21,6.71
7019.71,7.40
7089.91,8.07
7160.81,8.70
7232.41,9.28
7304.74,9.73
7377.79,10.08
7451.56,10.33
7526.08,10.38
7601.34,10.32
7677.35,10.15
7754.13,9.84
7831.67,9.44
7909.98,9.00
7989.08,8.52
8068.98,8.06
8149.67,7.61
8231.16,7.22
8313.47,6.93
8396.61,6.71
8480.57,6.60
8565.38,6.63
8651.03,6.78
8737.54,7.02
8824.92,7.40
8913.17,7.79
9002.30,8.16
9092.32,8.41
9183.25,8.44
9275.08,8.29
9367.83,7.83
9461.51,7.07
9556.12,6.10
9651.68,4.92
9748.20,3.59
9845.68,2.24
9944.14,0.87
10043.58,-0.37
10144.02,-1.51
10245.46,-2.56
10347.91,-3.43
10451.39,-4.20
10555.91,-4.87
10661.46,-5.42
10768.08,-5.90
10875.76,-6.35
10984.52,-6.76
11094.36,-7.22
11205.31,-7.73
11317.36,-8.32
11430.53,-9.10
11544.84,-9.96
11660.29,-10.91
11776.89,-11.82
11894.66,-12.63
12013.60,-13.35
12133.74,-13.81
12255.08,-14.06
12377.63,-14.14
12501.41,-14.03
12626.42,-13.85
12752.68,-13.64
12880.21,-13.45
13009.01,-13.42
13139.10,-13.53
13270.49,-13.80
13403.20,-14.18
13537.23,-14.55
13672.60,-14.90
13809.33,-15.07
13947.42,-15.10
14086.90,-15.00
14227.77,-14.71
14370.04,-14.32
14513.74,-13.86
14658.88,-13.35
14805.47,-12.81
14953.52,-12.31
15103.06,-11.89
15254.09,-11.58
15406.63,-11.32
15560.70,-11.10
15716.30,-10.86
15873.47,-10.58
16032.20,-10.28
16192.52,-9.93
16354.45,-9.55
16517.99,-9.16
16683.17,-8.71
16850.01,-8.23
17018.51,-7.72
17188.69,-7.19
17360.58,-6.77
17534.18,-6.49
17709.53,-6.42
17886.62,-6.63
18065.49,-6.98
18246.14,-7.44
18428.60,-8.02
18612.89,-8.59
18799.02,-9.13
18987.01,-9.54
19176.88,-9.80
19368.65,-9.94
19562.33,-9.93
19757.96,-9.85
19955.54,-9.76
