frequency,raw,error,smoothed,error_smoothed,equalization,parametric_eq,equalized_raw,equalized_smoothed,target
20.00,5.52,-1.11,5.51,-1.11,1.11,0.24,6.62,6.62,6.62
20.20,5.52,-1.11,5.52,-1.10,1.10,0.24,6.62,6.62,6.62
20.40,5.53,-1.09,5.53,-1.09,1.09,0.25,6.62,6.62,6.62
20.61,5.54,-1.08,5.53,-1.09,1.09,0.26,6.62,6.62,6.62
20.81,5.54,-1.08,5.54,-1.08,1.08,0.27,6.62,6.62,6.62
21.02,5.55,-1.07,5.54,-1.07,1.07,0.28,6.62,6.62,6.62
21.23,5.55,-1.07,5.55,-1.06,1.06,0.29,6.61,6.62,6.62
21.44,5.56,-1.06,5.56,-1.05,1.05,0.30,6.61,6.61,6.61
21.66,5.57,-1.05,5.57,-1.04,1.04,0.31,6.61,6.61,6.61
21.87,5.58,-1.03,5.58,-1.03,1.03,0.32,6.61,6.61,6.61
22.09,5.59,-1.02,5.59,-1.02,1.02,0.33,6.61,6.61,6.61
22.31,5.60,-1.01,5.60,-1.01,1.01,0.34,6.61,6.61,6.61
22.54,5.61,-1.00,5.61,-1.00,1.00,0.35,6.61,6.61,6.61
22.76,5.62,-0.99,5.62,-0.99,0.99,0.36,6.60,6.60,6.60
22.99,5.63,-0.98,5.63,-0.97,0.97,0.37,6.60,6.60,6.60
23.22,5.64,-0.96,5.64,-0.96,0.96,0.38,6.60,6.60,6.60
23.45,5.65,-0.95,5.65,-0.95,0.95,0.39,6.59,6.60,6.60
23.69,5.67,-0.93,5.66,-0.93,0.93,0.40,6.60,6.60,6.60
23.92,5.68,-0.92,5.68,-0.92,0.92,0.42,6.60,6.59,6.59
24.16,5.69,-0.91,5.69,-0.90,0.90,0.43,6.59,6.59,6.59
24.40,5.70,-0.89,5.70,-0.89,0.89,0.44,6.58,6.59,6.59
24.65,5.72,-0.87,5.72,-0.87,0.87,0.45,6.59,6.59,6.59
24.89,5.73,-0.86,5.73,-0.86,0.86,0.47,6.58,6.59,6.59
25.14,5.75,-0.84,5.74,-0.84,0.84,0.48,6.59,6.58,6.58
25.39,5.76,-0.82,5.76,-0.82,0.82,0.49,6.58,6.58,6.58
25.65,5.78,-0.80,5.77,-0.81,0.81,0.50,6.58,6.58,6.58
25.91,5.79,-0.79,5.79,-0.79,0.79,0.51,6.58,6.58,6.58
26.16,5.81,-0.77,5.80,-0.77,0.77,0.52,6.58,6.57,6.57
26.43,5.82,-0.75,5.81,-0.76,0.76,0.54,6.57,6.57,6.57
26.69,5.83,-0.74,5.83,-0.74,0.74,0.55,6.57,6.57,6.57
26.96,5.85,-0.72,5.84,-0.72,0.72,0.56,6.57,6.57,6.57
27.23,5.86,-0.71,5.86,-0.70,0.70,0.57,6.56,6.56,6.56
27.50,5.87,-0.69,5.87,-0.69,0.69,0.57,6.55,6.56,6.56
27.77,5.89,-0.67,5.89,-0.67,0.67,0.58,6.56,6.56,6.56
28.05,5.91,-0.65,5.90,-0.65,0.65,0.59,6.56,6.55,6.55
28.33,5.92,-0.63,5.92,-0.63,0.63,0.60,6.55,6.55,6.55
28.62,5.94,-0.61,5.94,-0.61,0.61,0.60,6.55,6.55,6.55
28.90,5.95,-0.60,5.95,-0.59,0.59,0.60,6.54,6.54,6.54
29.19,5.98,-0.56,5.97,-0.57,0.57,0.61,6.55,6.54,6.54
29.48,5.99,-0.55,5.99,-0.55,0.55,0.61,6.54,6.54,6.54
29.78,6.01,-0.53,6.01,-0.53,0.53,0.61,6.53,6.53,6.53
30.08,6.03,-0.50,6.03,-0.50,0.50,0.61,6.53,6.53,6.53
30.38,6.05,-0.48,6.05,-0.48,0.48,0.60,6.52,6.53,6.53
30.68,6.07,-0.46,6.07,-0.45,0.45,0.60,6.52,6.52,6.52
30.99,6.09,-0.43,6.09,-0.43,0.43,0.59,6.51,6.52,6.52
31.30,6.11,-0.41,6.11,-0.40,0.40,0.58,6.51,6.51,6.51
31.61,6.14,-0.37,6.14,-0.37,0.37,0.57,6.51,6.51,6.51
31.93,6.16,-0.35,6.16,-0.34,0.34,0.56,6.50,6.50,6.50
32.24,6.19,-0.31,6.18,-0.32,0.32,0.55,6.50,6.50,6.50
32.57,6.21,-0.29,6.21,-0.29,0.29,0.53,6.49,6.50,6.50
32.89,6.24,-0.25,6.24,-0.26,0.26,0.51,6.49,6.49,6.49
33.22,6.27,-0.22,6.26,-0.23,0.23,0.50,6.49,6.49,6.49
33.55,6.28,-0.20,6.29,-0.19,0.19,0.48,6.47,6.48,6.48
33.89,6.32,-0.16,6.31,-0.16,0.16,0.46,6.48,6.47,6.48
34.23,6.34,-0.13,6.34,-0.13,0.13,0.43,6.47,6.47,6.47
34.57,6.37,-0.10,6.36,-0.10,0.10,0.41,6.47,6.46,6.46
34.92,6.39,-0.07,6.39,-0.07,0.07,0.38,6.46,6.46,6.46
35.27,6.42,-0.04,6.41,-0.04,0.04,0.36,6.46,6.45,6.45
35.62,6.44,-0.01,6.44,-0.01,0.01,0.33,6.45,6.45,6.45
35.97,6.46,0.02,6.46,0.02,-0.02,0.30,6.44,6.44,6.44
36.33,6.48,0.04,6.49,0.05,-0.05,0.27,6.43,6.43,6.43
36.70,6.51,0.08,6.51,0.08,-0.08,0.24,6.42,6.43,6.43
37.06,6.54,0.12,6.53,0.11,-0.11,0.21,6.42,6.42,6.42
37.43,6.56,0.14,6.56,0.14,-0.14,0.18,6.41,6.41,6.41
37.81,6.59,0.18,6.58,0.17,-0.17,0.15,6.41,6.41,6.41
38.19,6.60,0.20,6.60,0.21,-0.21,0.12,6.39,6.40,6.40
38.57,6.63,0.24,6.63,0.24,-0.24,0.08,6.39,6.39,6.39
38.95,6.66,0.27,6.65,0.27,-0.27,0.05,6.39,6.38,6.38
39.34,6.68,0.30,6.67,0.30,-0.30,0.01,6.38,6.37,6.38
39.74,6.70,0.33,6.70,0.33,-0.33,-0.02,6.37,6.37,6.37
40.14,6.72,0.36,6.72,0.36,-0.36,-0.06,6.35,6.36,6.36
40.54,6.74,0.39,6.74,0.39,-0.39,-0.09,6.34,6.35,6.35
40.94,6.77,0.43,6.76,0.42,-0.42,-0.13,6.34,6.34,6.34
41.35,6.79,0.46,6.78,0.45,-0.45,-0.16,6.33,6.33,6.33
41.76,6.81,0.49,6.81,0.48,-0.48,-0.20,6.32,6.32,6.32
42.18,6.83,0.51,6.83,0.51,-0.51,-0.24,6.31,6.31,6.31
42.60,6.84,0.54,6.85,0.54,-0.54,-0.28,6.29,6.30,6.30
43.03,6.87,0.58,6.86,0.57,-0.57,-0.31,6.29,6.29,6.29
43.46,6.89,0.61,6.88,0.60,-0.60,-0.35,6.28,6.28,6.28
43.90,6.91,0.64,6.90,0.63,-0.63,-0.39,6.28,6.27,6.27
44.33,6.92,0.66,6.92,0.66,-0.66,-0.43,6.26,6.26,6.26
44.78,6.93,0.68,6.93,0.69,-0.69,-0.47,6.24,6.25,6.25
45.23,6.95,0.71,6.95,0.71,-0.71,-0.51,6.23,6.23,6.23
45.68,6.96,0.73,6.96,0.74,-0.74,-0.55,6.22,6.22,6.22
46.13,6.98,0.77,6.98,0.77,-0.77,-0.59,6.21,6.21,6.21
46.60,6.99,0.79,6.99,0.79,-0.79,-0.63,6.19,6.20,6.20
47.06,7.01,0.82,7.00,0.82,-0.82,-0.67,6.19,6.18,6.18
47.53,7.02,0.85,7.01,0.84,-0.84,-0.71,6.17,6.17,6.17
48.01,7.03,0.87,7.02,0.87,-0.87,-0.75,6.16,6.15,6.16
48.49,7.03,0.89,7.03,0.89,-0.89,-0.79,6.14,6.14,6.14
48.97,7.04,0.91,7.04,0.91,-0.91,-0.83,6.12,6.12,6.13
49.46,7.05,0.94,7.05,0.94,-0.94,-0.87,6.11,6.11,6.11
49.96,7.06,0.96,7.06,0.96,-0.96,-0.92,6.10,6.09,6.09
50.46,7.06,0.98,7.06,0.98,-0.98,-0.96,6.07,6.08,6.08
50.96,7.07,1.01,7.07,1.01,-1.01,-1.00,6.06,6.06,6.06
51.47,7.07,1.02,7.07,1.03,-1.03,-1.04,6.04,6.04,6.04
51.99,7.08,1.05,7.07,1.05,-1.05,-1.08,6.03,6.02,6.03
52.51,7.09,1.08,7.08,1.07,-1.07,-1.12,6.01,6.01,6.01
53.03,7.09,1.10,7.08,1.09,-1.09,-1.16,5.99,5.99,5.99
53.56,7.08,1.11,7.09,1.12,-1.12,-1.20,5.96,5.97,5.97
54.10,7.10,1.14,7.09,1.14,-1.14,-1.24,5.96,5.95,5.95
54.64,7.09,1.16,7.09,1.16,-1.16,-1.28,5.92,5.93,5.93
55.18,7.10,1.19,7.10,1.19,-1.19,-1.32,5.91,5.91,5.91
55.74,7.09,1.20,7.10,1.21,-1.21,-1.36,5.88,5.89,5.89
56.29,7.10,1.23,7.10,1.23,-1.23,-1.39,5.86,5.87,5.87
56.86,7.10,1.25,7.10,1.26,-1.26,-1.43,5.84,5.85,5.85
57.42,7.11,1.28,7.10,1.28,-1.28,-1.46,5.83,5.82,5.82
58.00,7.11,1.31,7.10,1.30,-1.30,-1.49,5.81,5.80,5.80
58.58,7.11,1.33,7.10,1.32,-1.32,-1.52,5.78,5.78,5.78
59.16,7.10,1.34,7.09,1.34,-1.34,-1.55,5.75,5.75,5.75
59.76,7.10,1.37,7.09,1.36,-1.36,-1.57,5.73,5.73,5.73
60.35,7.09,1.38,7.08,1.38,-1.38,-1.60,5.70,5.70,5.70
60.96,7.08,1.40,7.08,1.40,-1.40,-1.62,5.68,5.68,5.68
61.57,7.07,1.42,7.07,1.42,-1.42,-1.64,5.65,5.65,5.65
62.18,7.06,1.43,7.06,1.43,-1.43,-1.66,5.62,5.62,5.62
62.80,7.05,1.45,7.05,1.45,-1.45,-1.68,5.60,5.59,5.59
63.43,7.03,1.46,7.03,1.47,-1.47,-1.69,5.56,5.57,5.57
64.07,7.02,1.48,7.02,1.48,-1.48,-1.70,5.53,5.54,5.54
64.71,7.01,1.50,7.00,1.50,-1.50,-1.71,5.51,5.51,5.51
65.35,6.99,1.51,6.99,1.51,-1.51,-1.72,5.47,5.48,5.48
66.01,6.98,1.53,6.97,1.53,-1.53,-1.73,5.45,5.45,5.45
66.67,6.96,1.54,6.96,1.54,-1.54,-1.74,5.41,5.41,5.41
67.33,6.94,1.55,6.94,1.56,-1.56,-1.74,5.38,5.38,5.38
68.01,6.92,1.57,6.92,1.57,-1.57,-1.74,5.34,5.35,5.35
68.69,6.91,1.59,6.91,1.59,-1.59,-1.74,5.32,5.32,5.32
69.37,6.89,1.60,6.89,1.61,-1.61,-1.74,5.28,5.28,5.28
70.07,6.87,1.62,6.87,1.62,-1.62,-1.74,5.24,5.25,5.25
70.77,6.86,1.65,6.85,1.64,-1.64,-1.74,5.22,5.21,5.21
71.48,6.84,1.66,6.83,1.66,-1.66,-1.74,5.18,5.17,5.18
72.19,6.81,1.67,6.81,1.68,-1.68,-1.74,5.13,5.14,5.14
72.91,6.80,1.69,6.79,1.69,-1.69,-1.74,5.10,5.10,5.10
73.64,6.78,1.71,6.77,1.71,-1.71,-1.73,5.07,5.06,5.06
74.38,6.75,1.72,6.76,1.73,-1.73,-1.73,5.02,5.03,5.03
75.12,6.74,1.75,6.73,1.75,-1.75,-1.73,4.99,4.99,4.99
75.87,6.72,1.77,6.71,1.76,-1.76,-1.73,4.95,4.95,4.95
76.63,6.69,1.78,6.69,1.78,-1.78,-1.73,4.90,4.91,4.91
77.40,6.67,1.80,6.67,1.80,-1.80,-1.72,4.87,4.87,4.87
78.17,6.65,1.82,6.64,1.82,-1.82,-1.72,4.83,4.82,4.83
78.95,6.62,1.83,6.62,1.83,-1.83,-1.73,4.78,4.78,4.78
79.74,6.60,1.86,6.59,1.85,-1.85,-1.73,4.74,4.74,4.74
80.54,6.57,1.87,6.57,1.87,-1.87,-1.73,4.70,4.70,4.70
81.35,6.55,1.89,6.54,1.89,-1.89,-1.73,4.66,4.65,4.66
82.16,6.51,1.90,6.51,1.90,-1.90,-1.74,4.60,4.61,4.61
82.98,6.48,1.91,6.49,1.92,-1.92,-1.75,4.56,4.57,4.57
83.81,6.46,1.93,6.46,1.94,-1.94,-1.75,4.52,4.52,4.52
84.65,6.44,1.96,6.43,1.95,-1.95,-1.76,4.48,4.48,4.48
85.50,6.40,1.97,6.40,1.97,-1.97,-1.77,4.43,4.43,4.43
86.35,6.38,1.99,6.37,1.99,-1.99,-1.78,4.39,4.39,4.39
87.22,6.34,2.00,6.34,2.00,-2.00,-1.80,4.33,4.34,4.34
88.09,6.32,2.02,6.31,2.02,-2.02,-1.81,4.30,4.29,4.29
88.97,6.28,2.03,6.28,2.04,-2.04,-1.83,4.24,4.24,4.25
89.86,6.26,2.06,6.25,2.05,-2.05,-1.84,4.20,4.20,4.20
90.76,6.22,2.07,6.22,2.07,-2.07,-1.86,4.15,4.15,4.15
91.66,6.19,2.08,6.19,2.08,-2.08,-1.88,4.10,4.10,4.10
92.58,6.16,2.10,6.15,2.10,-2.10,-1.90,4.06,4.06,4.05
93.51,6.12,2.11,6.12,2.12,-2.12,-1.93,4.00,4.01,4.01
94.44,6.09,2.13,6.09,2.13,-2.13,-1.95,3.96,3.96,3.96
95.39,6.06,2.15,6.05,2.15,-2.15,-1.97,3.91,3.91,3.91
96.34,6.02,2.16,6.02,2.16,-2.16,-2.00,3.86,3.86,3.86
97.30,5.99,2.17,5.99,2.18,-2.18,-2.03,3.81,3.81,3.81
98.28,5.96,2.19,5.95,2.19,-2.19,-2.06,3.77,3.76,3.76
99.26,5.92,2.20,5.92,2.20,-2.20,-2.09,3.71,3.71,3.71
100.25,5.89,2.22,5.88,2.22,-2.22,-2.12,3.67,3.66,3.67
101.25,5.85,2.23,5.85,2.23,-2.23,-2.15,3.62,3.62,3.62
102.27,5.81,2.24,5.81,2.24,-2.24,-2.18,3.56,3.57,3.57
103.29,5.78,2.26,5.78,2.26,-2.26,-2.21,3.52,3.52,3.52
104.32,5.74,2.27,5.74,2.27,-2.27,-2.24,3.47,3.47,3.47
105.37,5.71,2.29,5.70,2.28,-2.28,-2.28,3.43,3.42,3.42
106.42,5.67,2.29,5.66,2.29,-2.29,-2.31,3.37,3.37,3.37
107.48,5.63,2.30,5.63,2.30,-2.30,-2.34,3.32,3.32,3.32
108.56,5.59,2.31,5.59,2.31,-2.31,-2.37,3.27,3.28,3.28
109.64,5.55,2.32,5.55,2.32,-2.32,-2.40,3.22,3.23,3.23
110.74,5.51,2.33,5.51,2.33,-2.33,-2.43,3.17,3.18,3.18
111.85,5.48,2.34,5.47,2.34,-2.34,-2.46,3.14,3.13,3.13
112.97,5.44,2.35,5.43,2.35,-2.35,-2.48,3.09,3.09,3.09
114.10,5.40,2.36,5.40,2.36,-2.36,-2.51,3.04,3.04,3.04
115.24,5.35,2.35,5.36,2.36,-2.36,-2.53,2.98,2.99,2.99
116.39,5.32,2.37,5.32,2.37,-2.37,-2.55,2.95,2.95,2.95
117.55,5.28,2.38,5.27,2.38,-2.38,-2.57,2.90,2.90,2.90
118.73,5.24,2.38,5.24,2.38,-2.38,-2.59,2.86,2.86,2.86
119.92,5.20,2.39,5.19,2.38,-2.38,-2.60,2.81,2.81,2.81
121.12,5.16,2.39,5.15,2.39,-2.39,-2.61,2.77,2.77,2.77
122.33,5.11,2.39,5.11,2.39,-2.39,-2.62,2.72,2.72,2.72
123.55,5.07,2.39,5.07,2.39,-2.39,-2.62,2.68,2.68,2.68
124.79,5.03,2.39,5.02,2.39,-2.39,-2.62,2.64,2.63,2.64
126.03,4.98,2.38,4.98,2.39,-2.39,-2.62,2.59,2.59,2.59
127.29,4.94,2.39,4.94,2.39,-2.39,-2.61,2.55,2.55,2.55
128.57,4.90,2.39,4.89,2.38,-2.38,-2.60,2.51,2.51,2.51
129.85,4.85,2.38,4.85,2.38,-2.38,-2.59,2.47,2.47,2.47
131.15,4.81,2.38,4.80,2.37,-2.37,-2.57,2.43,2.43,2.43
132.46,4.75,2.36,4.76,2.37,-2.37,-2.56,2.38,2.39,2.39
133.79,4.71,2.36,4.71,2.36,-2.36,-2.54,2.34,2.35,2.35
135.12,4.67,2.36,4.67,2.36,-2.36,-2.51,2.31,2.31,2.31
136.48,4.62,2.35,4.62,2.35,-2.35,-2.49,2.27,2.27,2.27
137.84,4.58,2.34,4.57,2.34,-2.34,-2.46,2.24,2.23,2.23
139.22,4.53,2.33,4.53,2.33,-2.33,-2.43,2.20,2.20,2.20
140.61,4.48,2.32,4.48,2.32,-2.32,-2.40,2.16,2.16,2.16
142.02,4.44,2.31,4.44,2.31,-2.31,-2.37,2.13,2.13,2.13
143.44,4.40,2.31,4.39,2.30,-2.30,-2.33,2.10,2.09,2.09
144.87,4.34,2.28,4.34,2.29,-2.29,-2.30,2.05,2.06,2.06
146.32,4.30,2.27,4.30,2.27,-2.27,-2.26,2.02,2.02,2.02
147.78,4.25,2.26,4.25,2.26,-2.26,-2.23,1.99,1.99,1.99
149.26,4.21,2.25,4.20,2.24,-2.24,-2.19,1.96,1.96,1.96
150.75,4.15,2.22,4.15,2.23,-2.23,-2.16,1.92,1.92,1.92
152.26,4.11,2.21,4.10,2.21,-2.21,-2.12,1.90,1.89,1.89
153.78,4.06,2.19,4.06,2.19,-2.19,-2.08,1.86,1.86,1.86
155.32,4.01,2.17,4.01,2.17,-2.17,-2.05,1.83,1.83,1.83
156.88,3.96,2.15,3.96,2.16,-2.16,-2.01,1.80,1.80,1.80
158.44,3.91,2.13,3.91,2.14,-2.14,-1.98,1.77,1.77,1.77
160.03,3.87,2.12,3.86,2.11,-2.11,-1.95,1.75,1.75,1.75
161.63,3.81,2.09,3.81,2.09,-2.09,-1.91,1.72,1.72,1.72
163.24,3.76,2.06,3.76,2.07,-2.07,-1.88,1.69,1.69,1.69
164.88,3.71,2.04,3.71,2.04,-2.04,-1.85,1.66,1.67,1.67
166.53,3.67,2.03,3.66,2.02,-2.02,-1.82,1.65,1.64,1.64
168.19,3.61,1.99,3.60,1.99,-1.99,-1.80,1.62,1.61,1.61
169.87,3.56,1.97,3.55,1.96,-1.96,-1.77,1.59,1.59,1.59
171.57,3.50,1.93,3.50,1.93,-1.93,-1.74,1.56,1.57,1.57
173.29,3.46,1.91,3.45,1.90,-1.90,-1.72,1.55,1.54,1.54
175.02,3.40,1.88,3.39,1.88,-1.88,-1.70,1.52,1.52,1.52
176.77,3.34,1.84,3.34,1.85,-1.85,-1.67,1.49,1.50,1.50
178.54,3.29,1.81,3.29,1.82,-1.82,-1.65,1.47,1.47,1.48
180.32,3.24,1.78,3.24,1.79,-1.79,-1.63,1.45,1.45,1.45
182.13,3.19,1.75,3.19,1.76,-1.76,-1.62,1.43,1.43,1.43
183.95,3.14,1.72,3.14,1.73,-1.73,-1.60,1.41,1.41,1.41
185.79,3.10,1.70,3.09,1.70,-1.70,-1.59,1.40,1.39,1.39
187.65,3.05,1.67,3.05,1.68,-1.68,-1.57,1.37,1.37,1.37
189.52,3.00,1.64,3.00,1.65,-1.65,-1.56,1.35,1.35,1.36
191.42,2.97,1.63,2.96,1.63,-1.63,-1.55,1.34,1.34,1.34
193.33,2.93,1.61,2.92,1.60,-1.60,-1.54,1.32,1.32,1.32
195.27,2.88,1.57,2.88,1.58,-1.58,-1.53,1.29,1.30,1.30
197.22,2.85,1.56,2.85,1.56,-1.56,-1.52,1.28,1.28,1.29
199.19,2.81,1.54,2.81,1.55,-1.55,-1.51,1.26,1.27,1.27
201.18,2.78,1.52,2.78,1.53,-1.53,-1.51,1.25,1.25,1.25
203.19,2.75,1.51,2.75,1.51,-1.51,-1.50,1.23,1.24,1.24
205.23,2.72,1.49,2.72,1.50,-1.50,-1.50,1.22,1.22,1.22
207.28,2.70,1.49,2.69,1.48,-1.48,-1.49,1.21,1.21,1.21
209.35,2.66,1.46,2.66,1.47,-1.47,-1.49,1.19,1.19,1.19
211.44,2.64,1.46,2.64,1.46,-1.46,-1.48,1.18,1.18,1.18
213.56,2.62,1.45,2.61,1.45,-1.45,-1.48,1.17,1.16,1.17
215.69,2.59,1.43,2.59,1.43,-1.43,-1.48,1.15,1.15,1.15
217.85,2.57,1.43,2.56,1.42,-1.42,-1.47,1.15,1.14,1.14
220.03,2.54,1.41,2.54,1.41,-1.41,-1.47,1.13,1.13,1.13
222.23,2.52,1.40,2.51,1.40,-1.40,-1.47,1.12,1.11,1.11
224.45,2.49,1.38,2.49,1.38,-1.38,-1.46,1.10,1.10,1.10
226.70,2.46,1.37,2.46,1.37,-1.37,-1.46,1.08,1.09,1.09
228.96,2.44,1.36,2.44,1.36,-1.36,-1.46,1.08,1.08,1.08
231.25,2.42,1.35,2.42,1.35,-1.35,-1.45,1.07,1.07,1.07
233.57,2.39,1.33,2.39,1.33,-1.33,-1.44,1.05,1.06,1.06
235.90,2.37,1.32,2.37,1.32,-1.32,-1.44,1.05,1.05,1.05
238.26,2.35,1.31,2.34,1.31,-1.31,-1.43,1.04,1.04,1.04
240.64,2.32,1.29,2.32,1.29,-1.29,-1.42,1.02,1.03,1.03
243.05,2.31,1.29,2.30,1.28,-1.28,-1.41,1.03,1.02,1.02
245.48,2.28,1.27,2.28,1.27,-1.27,-1.40,1.01,1.01,1.01
247.93,2.25,1.25,2.25,1.25,-1.25,-1.38,1.00,1.00,1.00
250.41,2.24,1.24,2.23,1.24,-1.24,-1.37,1.00,0.99,0.99
252.92,2.21,1.22,2.20,1.22,-1.22,-1.35,0.99,0.98,0.98
255.45,2.18,1.20,2.18,1.20,-1.20,-1.34,0.97,0.98,0.98
258.00,2.16,1.19,2.16,1.19,-1.19,-1.32,0.97,0.97,0.97
260.58,2.13,1.17,2.13,1.17,-1.17,-1.30,0.96,0.96,0.96
263.19,2.11,1.15,2.11,1.15,-1.15,-1.28,0.95,0.95,0.95
265.82,2.08,1.13,2.08,1.14,-1.14,-1.26,0.94,0.94,0.95
268.48,2.06,1.12,2.06,1.12,-1.12,-1.23,0.94,0.94,0.94
271.16,2.04,1.11,2.03,1.10,-1.10,-1.21,0.94,0.93,0.93
273.87,2.00,1.07,2.00,1.08,-1.08,-1.18,0.92,0.92,0.92
276.61,1.98,1.06,1.98,1.06,-1.06,-1.15,0.92,0.92,0.92
279.38,1.95,1.04,1.95,1.04,-1.04,-1.13,0.91,0.91,0.91
282.17,1.93,1.02,1.92,1.02,-1.02,-1.10,0.91,0.90,0.91
284.99,1.90,1.00,1.89,1.00,-1.00,-1.07,0.90,0.90,0.90
287.84,1.87,0.97,1.87,0.97,-0.97,-1.04,0.89,0.89,0.89
290.72,1.85,0.96,1.84,0.95,-0.95,-1.01,0.89,0.89,0.89
293.63,1.82,0.93,1.81,0.93,-0.93,-0.98,0.89,0.88,0.88
296.57,1.79,0.91,1.78,0.91,-0.91,-0.95,0.88,0.88,0.88
299.53,1.75,0.87,1.76,0.89,-0.89,-0.92,0.86,0.87,0.87
302.53,1.72,0.85,1.73,0.86,-0.86,-0.89,0.85,0.87,0.87
305.55,1.70,0.83,1.70,0.84,-0.84,-0.86,0.86,0.86,0.86
308.61,1.67,0.81,1.67,0.82,-0.82,-0.82,0.85,0.86,0.86
311.69,1.65,0.79,1.65,0.80,-0.80,-0.79,0.85,0.85,0.85
314.81,1.63,0.78,1.62,0.77,-0.77,-0.76,0.85,0.85,0.85
317.96,1.60,0.75,1.59,0.75,-0.75,-0.73,0.85,0.84,0.84
321.14,1.58,0.74,1.57,0.73,-0.73,-0.70,0.85,0.84,0.84
324.35,1.55,0.71,1.54,0.71,-0.71,-0.67,0.84,0.83,0.84
327.59,1.52,0.69,1.52,0.69,-0.69,-0.64,0.83,0.83,0.83
330.87,1.49,0.66,1.49,0.67,-0.67,-0.61,0.82,0.83,0.83
334.18,1.48,0.65,1.47,0.64,-0.64,-0.58,0.83,0.82,0.82
337.52,1.44,0.62,1.44,0.62,-0.62,-0.55,0.81,0.82,0.82
340.90,1.42,0.60,1.42,0.60,-0.60,-0.52,0.81,0.82,0.82
344.30,1.39,0.57,1.39,0.58,-0.58,-0.49,0.80,0.81,0.81
347.75,1.37,0.56,1.37,0.56,-0.56,-0.46,0.80,0.81,0.81
351.23,1.35,0.54,1.35,0.54,-0.54,-0.44,0.80,0.80,0.81
354.74,1.33,0.52,1.33,0.52,-0.52,-0.41,0.80,0.80,0.80
358.28,1.30,0.50,1.31,0.51,-0.51,-0.38,0.79,0.80,0.80
361.87,1.29,0.49,1.28,0.49,-0.49,-0.35,0.80,0.80,0.80
365.49,1.27,0.47,1.26,0.47,-0.47,-0.33,0.80,0.79,0.79
369.14,1.25,0.46,1.24,0.45,-0.45,-0.30,0.79,0.79,0.79
372.83,1.23,0.44,1.22,0.44,-0.44,-0.27,0.79,0.79,0.79
376.56,1.21,0.42,1.21,0.42,-0.42,-0.25,0.79,0.79,0.79
380.33,1.19,0.40,1.19,0.40,-0.40,-0.22,0.78,0.78,0.78
384.13,1.18,0.40,1.17,0.39,-0.39,-0.20,0.79,0.78,0.78
387.97,1.15,0.37,1.15,0.37,-0.37,-0.17,0.78,0.78,0.78
391.85,1.13,0.35,1.13,0.35,-0.35,-0.15,0.77,0.77,0.78
395.77,1.11,0.33,1.11,0.34,-0.34,-0.12,0.77,0.77,0.77
399.73,1.09,0.32,1.09,0.32,-0.32,-0.10,0.77,0.77,0.77
403.72,1.07,0.30,1.07,0.30,-0.30,-0.07,0.76,0.77,0.77
407.76,1.05,0.28,1.05,0.29,-0.29,-0.05,0.76,0.76,0.77
411.84,1.04,0.27,1.03,0.27,-0.27,-0.02,0.76,0.76,0.76
415.96,1.02,0.26,1.02,0.26,-0.26,-0.00,0.76,0.76,0.76
420.12,1.00,0.24,1.00,0.24,-0.24,0.02,0.75,0.76,0.76
424.32,0.98,0.22,0.98,0.23,-0.23,0.05,0.75,0.75,0.76
428.56,0.97,0.21,0.96,0.21,-0.21,0.07,0.76,0.75,0.75
432.85,0.95,0.20,0.95,0.20,-0.20,0.09,0.75,0.75,0.75
437.18,0.93,0.18,0.93,0.18,-0.18,0.12,0.75,0.75,0.75
441.55,0.92,0.17,0.92,0.16,-0.16,0.14,0.75,0.75,0.75
445.96,0.90,0.14,0.90,0.15,-0.15,0.16,0.75,0.75,0.75
450.42,0.89,0.13,0.88,0.13,-0.13,0.18,0.76,0.76,0.75
454.93,0.87,0.11,0.87,0.11,-0.11,0.21,0.76,0.76,0.76
459.48,0.85,0.08,0.85,0.09,-0.09,0.23,0.76,0.76,0.76
464.07,0.84,0.07,0.83,0.06,-0.06,0.25,0.77,0.77,0.77
468.71,0.82,0.04,0.82,0.04,-0.04,0.27,0.78,0.78,0.78
473.40,0.81,0.02,0.80,0.02,-0.02,0.29,0.79,0.79,0.78
478.13,0.79,-0.01,0.79,-0.01,0.01,0.32,0.80,0.79,0.80
482.91,0.78,-0.03,0.77,-0.04,0.04,0.34,0.81,0.80,0.81
487.74,0.76,-0.06,0.75,-0.06,0.06,0.36,0.82,0.82,0.82
492.62,0.73,-0.10,0.73,-0.09,0.09,0.38,0.82,0.83,0.83
497.55,0.72,-0.13,0.72,-0.12,0.12,0.40,0.84,0.84,0.84
502.52,0.70,-0.16,0.70,-0.16,0.16,0.42,0.85,0.86,0.86
507.55,0.68,-0.20,0.68,-0.19,0.19,0.44,0.86,0.87,0.88
512.62,0.67,-0.22,0.67,-0.22,0.22,0.47,0.89,0.89,0.89
517.75,0.65,-0.26,0.65,-0.26,0.26,0.49,0.90,0.90,0.91
522.93,0.62,-0.31,0.63,-0.29,0.29,0.51,0.91,0.92,0.92
528.16,0.62,-0.32,0.61,-0.33,0.33,0.53,0.95,0.94,0.94
533.44,0.60,-0.36,0.59,-0.37,0.37,0.55,0.97,0.96,0.96
538.77,0.58,-0.40,0.57,-0.41,0.41,0.57,0.99,0.98,0.98
544.16,0.55,-0.45,0.55,-0.46,0.46,0.60,1.00,1.00,1.00
549.60,0.53,-0.50,0.53,-0.50,0.50,0.62,1.03,1.03,1.03
555.10,0.51,-0.54,0.50,-0.55,0.55,0.64,1.06,1.05,1.05
560.65,0.49,-0.59,0.48,-0.60,0.60,0.66,1.09,1.08,1.08
566.25,0.46,-0.65,0.45,-0.65,0.65,0.69,1.11,1.10,1.10
571.92,0.43,-0.70,0.43,-0.70,0.70,0.71,1.13,1.13,1.13
577.64,0.40,-0.76,0.40,-0.76,0.76,0.74,1.15,1.16,1.16
583.41,0.37,-0.82,0.37,-0.81,0.81,0.76,1.18,1.18,1.19
589.25,0.35,-0.87,0.35,-0.86,0.86,0.79,1.21,1.21,1.22
595.14,0.32,-0.93,0.32,-0.92,0.92,0.81,1.24,1.24,1.25
601.09,0.30,-0.98,0.30,-0.98,0.98,0.84,1.27,1.27,1.28
607.10,0.27,-1.04,0.27,-1.03,1.03,0.87,1.30,1.30,1.31
613.17,0.24,-1.10,0.25,-1.09,1.09,0.90,1.33,1.34,1.34
619.30,0.22,-1.15,0.22,-1.15,1.15,0.93,1.36,1.37,1.37
625.50,0.20,-1.20,0.19,-1.20,1.20,0.96,1.40,1.40,1.40
631.75,0.18,-1.26,0.17,-1.26,1.26,0.99,1.44,1.43,1.43
638.07,0.15,-1.32,0.14,-1.32,1.32,1.02,1.47,1.46,1.47
644.45,0.12,-1.38,0.12,-1.38,1.38,1.05,1.50,1.50,1.50
650.89,0.10,-1.43,0.09,-1.44,1.44,1.09,1.54,1.53,1.53
657.40,0.06,-1.51,0.06,-1.50,1.50,1.12,1.56,1.57,1.56
663.98,0.04,-1.56,0.03,-1.57,1.57,1.16,1.60,1.60,1.60
670.62,0.01,-1.62,0.00,-1.63,1.63,1.20,1.64,1.63,1.63
677.32,-0.03,-1.70,-0.03,-1.70,1.70,1.23,1.66,1.67,1.67
684.10,-0.05,-1.76,-0.06,-1.76,1.76,1.27,1.71,1.71,1.70
690.94,-0.08,-1.82,-0.09,-1.83,1.83,1.32,1.75,1.74,1.74
697.85,-0.12,-1.90,-0.12,-1.90,1.90,1.36,1.78,1.78,1.78
704.83,-0.15,-1.97,-0.15,-1.97,1.97,1.40,1.81,1.82,1.82
711.87,-0.17,-2.03,-0.18,-2.04,2.04,1.45,1.86,1.86,1.86
718.99,-0.21,-2.11,-0.21,-2.11,2.11,1.49,1.89,1.90,1.89
726.18,-0.24,-2.18,-0.24,-2.18,2.18,1.54,1.93,1.93,1.93
733.44,-0.27,-2.25,-0.27,-2.25,2.25,1.59,1.97,1.97,1.97
740.78,-0.30,-2.31,-0.31,-2.32,2.32,1.64,2.01,2.01,2.01
748.19,-0.33,-2.38,-0.34,-2.39,2.39,1.69,2.05,2.05,2.05
755.67,-0.36,-2.45,-0.37,-2.45,2.45,1.74,2.09,2.09,2.09
763.23,-0.40,-2.53,-0.40,-2.52,2.52,1.79,2.12,2.12,2.13
770.86,-0.42,-2.59,-0.43,-2.59,2.59,1.84,2.16,2.16,2.16
778.57,-0.45,-2.65,-0.45,-2.65,2.65,1.89,2.20,2.20,2.20
786.35,-0.48,-2.72,-0.48,-2.71,2.71,1.95,2.23,2.23,2.23
794.22,-0.50,-2.77,-0.51,-2.78,2.78,2.00,2.27,2.27,2.27
