frequency,raw,smoothed,error,error_smoothed,equalization,parametric_eq,fixed_band_eq,equalized_raw,equalized_smoothed,target
20.00,-8.22,-8.22,-7.68,-7.68,6.00,4.77,1.84,-2.22,-2.22,-0.54
20.20,-8.10,-8.11,-7.61,-7.62,6.00,4.74,1.89,-2.10,-2.11,-0.49
20.40,-7.98,-7.99,-7.54,-7.55,6.00,4.72,1.95,-1.98,-1.99,-0.44
20.61,-7.88,-7.87,-7.46,-7.47,6.00,4.69,2.01,-1.88,-1.87,-0.41
20.81,-7.75,-7.75,-7.39,-7.39,6.00,4.67,2.07,-1.75,-1.75,-0.36
21.02,-7.63,-7.62,-7.31,-7.29,6.00,4.64,2.13,-1.63,-1.62,-0.32
21.23,-7.47,-7.48,-7.17,-7.18,6.00,4.61,2.19,-1.47,-1.48,-0.30
21.44,-7.32,-7.32,-7.04,-7.04,6.00,4.59,2.26,-1.32,-1.32,-0.28
21.66,-7.18,-7.17,-6.91,-6.90,6.00,4.56,2.32,-1.18,-1.17,-0.26
21.87,-7.02,-7.03,-6.77,-6.78,6.00,4.53,2.39,-1.02,-1.03,-0.25
22.09,-6.90,-6.91,-6.67,-6.68,6.00,4.51,2.46,-0.90,-0.91,-0.24
22.31,-6.82,-6.82,-6.60,-6.59,6.01,4.48,2.54,-0.81,-0.81,-0.23
22.54,-6.74,-6.74,-6.52,-6.52,6.02,4.45,2.61,-0.73,-0.73,-0.23
22.76,-6.66,-6.67,-6.44,-6.44,6.02,4.42,2.69,-0.64,-0.65,-0.23
22.99,-6.58,-6.57,-6.35,-6.34,6.01,4.40,2.77,-0.57,-0.56,-0.24
23.22,-6.46,-6.46,-6.22,-6.22,5.99,4.37,2.85,-0.47,-0.47,-0.24
23.45,-6.33,-6.34,-6.09,-6.10,5.96,4.34,2.93,-0.37,-0.38,-0.24
23.69,-6.22,-6.21,-5.98,-5.97,5.92,4.31,3.01,-0.29,-0.29,-0.23
23.92,-6.08,-6.09,-5.85,-5.87,5.87,4.28,3.10,-0.22,-0.23,-0.23
24.16,-5.99,-5.99,-5.77,-5.77,5.80,4.25,3.18,-0.20,-0.20,-0.22
24.40,-5.91,-5.91,-5.70,-5.69,5.71,4.22,3.27,-0.20,-0.20,-0.21
24.65,-5.82,-5.83,-5.60,-5.61,5.61,4.19,3.36,-0.22,-0.22,-0.22
24.89,-5.74,-5.73,-5.52,-5.51,5.50,4.16,3.45,-0.25,-0.24,-0.22
25.14,-5.63,-5.62,-5.41,-5.40,5.38,4.13,3.54,-0.25,-0.25,-0.23
25.39,-5.49,-5.50,-5.27,-5.28,5.26,4.10,3.63,-0.23,-0.24,-0.22
25.65,-5.36,-5.36,-5.15,-5.14,5.15,4.07,3.72,-0.21,-0.21,-0.22
25.91,-5.23,-5.23,-5.00,-5.01,5.04,4.04,3.82,-0.19,-0.20,-0.23
26.16,-5.12,-5.13,-4.89,-4.90,4.93,4.01,3.91,-0.19,-0.20,-0.23
26.43,-5.04,-5.04,-4.81,-4.80,4.83,3.98,4.00,-0.22,-0.21,-0.23
26.69,-4.95,-4.96,-4.72,-4.73,4.73,3.94,4.09,-0.23,-0.23,-0.23
26.96,-4.87,-4.87,-4.65,-4.65,4.63,3.91,4.17,-0.24,-0.24,-0.22
27.23,-4.78,-4.78,-4.56,-4.56,4.54,3.88,4.26,-0.24,-0.24,-0.22
27.50,-4.69,-4.70,-4.47,-4.47,4.45,3.85,4.34,-0.24,-0.24,-0.23
27.77,-4.60,-4.60,-4.36,-4.37,4.36,3.81,4.42,-0.24,-0.24,-0.24
28.05,-4.51,-4.51,-4.27,-4.27,4.26,3.78,4.50,-0.25,-0.25,-0.24
28.33,-4.41,-4.41,-4.16,-4.16,4.16,3.75,4.57,-0.25,-0.25,-0.25
28.62,-4.30,-4.31,-4.05,-4.06,4.05,3.71,4.63,-0.25,-0.25,-0.25
28.90,-4.20,-4.20,-3.96,-3.95,3.95,3.68,4.69,-0.25,-0.25,-0.24
29.19,-4.09,-4.09,-3.84,-3.85,3.85,3.64,4.75,-0.24,-0.25,-0.26
29.48,-3.99,-3.99,-3.76,-3.75,3.75,3.61,4.80,-0.24,-0.24,-0.24
29.78,-3.89,-3.89,-3.65,-3.65,3.66,3.57,4.84,-0.23,-0.23,-0.25
30.08,-3.80,-3.81,-3.56,-3.57,3.58,3.53,4.87,-0.23,-0.23,-0.24
30.38,-3.74,-3.74,-3.49,-3.49,3.50,3.50,4.90,-0.25,-0.25,-0.25
30.68,-3.68,-3.68,-3.43,-3.43,3.42,3.46,4.92,-0.26,-0.26,-0.25
30.99,-3.62,-3.62,-3.37,-3.36,3.36,3.42,4.93,-0.27,-0.27,-0.26
31.30,-3.55,-3.56,-3.30,-3.30,3.29,3.39,4.93,-0.26,-0.26,-0.26
31.61,-3.49,-3.49,-3.23,-3.23,3.23,3.35,4.92,-0.26,-0.26,-0.26
31.93,-3.42,-3.43,-3.16,-3.16,3.17,3.31,4.91,-0.25,-0.26,-0.26
32.24,-3.37,-3.38,-3.10,-3.11,3.11,3.27,4.89,-0.26,-0.27,-0.28
32.57,-3.33,-3.33,-3.07,-3.06,3.04,3.23,4.86,-0.29,-0.29,-0.27
32.89,-3.28,-3.28,-3.01,-3.00,2.98,3.19,4.82,-0.30,-0.30,-0.27
33.22,-3.21,-3.21,-2.93,-2.93,2.92,3.15,4.77,-0.30,-0.29,-0.28
33.55,-3.13,-3.13,-2.85,-2.84,2.86,3.10,4.72,-0.28,-0.28,-0.29
33.89,-3.05,-3.06,-2.75,-2.77,2.80,3.06,4.66,-0.25,-0.26,-0.30
34.23,-3.00,-3.01,-2.71,-2.71,2.74,3.02,4.60,-0.26,-0.27,-0.29
34.57,-2.97,-2.98,-2.67,-2.67,2.68,2.97,4.53,-0.29,-0.30,-0.31
34.92,-2.95,-2.94,-2.64,-2.63,2.61,2.93,4.46,-0.34,-0.33,-0.31
35.27,-2.89,-2.89,-2.58,-2.58,2.54,2.88,4.38,-0.35,-0.35,-0.31
35.62,-2.82,-2.83,-2.51,-2.51,2.48,2.83,4.30,-0.35,-0.35,-0.32
35.97,-2.75,-2.75,-2.43,-2.43,2.41,2.79,4.21,-0.34,-0.34,-0.32
36.33,-2.66,-2.66,-2.35,-2.34,2.35,2.74,4.12,-0.32,-0.31,-0.31
36.70,-2.57,-2.58,-2.25,-2.26,2.29,2.69,4.03,-0.29,-0.29,-0.33
37.06,-2.50,-2.52,-2.17,-2.19,2.23,2.63,3.94,-0.27,-0.28,-0.33
37.43,-2.48,-2.48,-2.17,-2.16,2.19,2.58,3.85,-0.29,-0.29,-0.32
37.81,-2.46,-2.46,-2.14,-2.14,2.15,2.53,3.76,-0.31,-0.31,-0.32
38.19,-2.45,-2.46,-2.13,-2.14,2.13,2.47,3.66,-0.33,-0.33,-0.32
38.57,-2.44,-2.44,-2.12,-2.12,2.10,2.42,3.57,-0.34,-0.34,-0.32
38.95,-2.43,-2.42,-2.12,-2.11,2.08,2.36,3.48,-0.35,-0.34,-0.31
39.34,-2.39,-2.39,-2.07,-2.08,2.06,2.31,3.39,-0.33,-0.34,-0.32
39.74,-2.35,-2.36,-2.03,-2.04,2.03,2.25,3.30,-0.33,-0.33,-0.32
40.14,-2.31,-2.31,-1.99,-1.99,1.99,2.19,3.20,-0.33,-0.33,-0.32
40.54,-2.27,-2.27,-1.95,-1.95,1.94,2.13,3.12,-0.33,-0.33,-0.32
40.94,-2.23,-2.23,-1.90,-1.90,1.90,2.07,3.03,-0.33,-0.33,-0.33
41.35,-2.18,-2.18,-1.85,-1.85,1.86,2.02,2.94,-0.32,-0.32,-0.34
41.76,-2.14,-2.15,-1.80,-1.81,1.83,1.96,2.86,-0.32,-0.32,-0.34
42.18,-2.12,-2.13,-1.78,-1.78,1.80,1.90,2.77,-0.32,-0.33,-0.34
42.60,-2.12,-2.12,-1.77,-1.77,1.78,1.85,2.69,-0.35,-0.34,-0.36
43.03,-2.12,-2.12,-1.76,-1.76,1.76,1.80,2.61,-0.37,-0.36,-0.36
43.46,-2.12,-2.12,-1.75,-1.75,1.74,1.75,2.54,-0.39,-0.39,-0.37
43.90,-2.12,-2.13,-1.73,-1.73,1.72,1.70,2.46,-0.41,-0.41,-0.40
44.33,-2.12,-2.13,-1.71,-1.71,1.69,1.66,2.39,-0.43,-0.43,-0.42
44.78,-2.12,-2.12,-1.69,-1.69,1.67,1.62,2.31,-0.46,-0.45,-0.43
45.23,-2.10,-2.09,-1.66,-1.64,1.64,1.58,2.24,-0.46,-0.45,-0.44
45.68,-2.05,-2.06,-1.59,-1.60,1.61,1.55,2.18,-0.44,-0.45,-0.46
46.13,-2.02,-2.03,-1.54,-1.56,1.59,1.52,2.11,-0.43,-0.44,-0.48
46.60,-2.02,-2.02,-1.54,-1.53,1.57,1.50,2.05,-0.46,-0.45,-0.48
47.06,-2.02,-2.02,-1.52,-1.53,1.54,1.47,1.98,-0.48,-0.48,-0.50
47.53,-2.02,-2.02,-1.51,-1.52,1.51,1.46,1.92,-0.51,-0.52,-0.51
48.01,-2.02,-2.03,-1.51,-1.51,1.47,1.44,1.86,-0.55,-0.55,-0.51
48.49,-2.01,-2.01,-1.48,-1.48,1.43,1.43,1.81,-0.58,-0.58,-0.53
48.97,-1.99,-1.97,-1.44,-1.42,1.39,1.42,1.75,-0.60,-0.58,-0.55
49.46,-1.91,-1.91,-1.34,-1.34,1.35,1.41,1.70,-0.57,-0.57,-0.57
49.96,-1.83,-1.86,-1.24,-1.27,1.30,1.40,1.64,-0.53,-0.56,-0.59
50.46,-1.82,-1.82,-1.23,-1.22,1.26,1.39,1.59,-0.57,-0.56,-0.60
50.96,-1.82,-1.82,-1.21,-1.20,1.22,1.38,1.54,-0.60,-0.59,-0.61
51.47,-1.82,-1.82,-1.19,-1.19,1.20,1.38,1.49,-0.62,-0.62,-0.63
51.99,-1.82,-1.82,-1.18,-1.18,1.19,1.37,1.44,-0.63,-0.63,-0.64
52.51,-1.83,-1.83,-1.18,-1.18,1.19,1.36,1.40,-0.64,-0.64,-0.65
53.03,-1.84,-1.86,-1.19,-1.20,1.20,1.35,1.35,-0.65,-0.66,-0.65
53.56,-1.89,-1.89,-1.23,-1.22,1.21,1.34,1.31,-0.69,-0.68,-0.67
54.10,-1.92,-1.91,-1.24,-1.23,1.21,1.33,1.27,-0.71,-0.70,-0.68
54.64,-1.92,-1.93,-1.22,-1.23,1.21,1.32,1.22,-0.71,-0.71,-0.70
55.18,-1.92,-1.93,-1.22,-1.22,1.21,1.31,1.18,-0.72,-0.72,-0.71
55.74,-1.92,-1.92,-1.20,-1.20,1.20,1.29,1.14,-0.72,-0.72,-0.72
56.29,-1.92,-1.92,-1.19,-1.19,1.19,1.28,1.10,-0.74,-0.74,-0.73
56.86,-1.92,-1.92,-1.17,-1.17,1.18,1.26,1.06,-0.75,-0.75,-0.75
57.42,-1.92,-1.92,-1.15,-1.15,1.17,1.24,1.03,-0.76,-0.75,-0.78
58.00,-1.92,-1.92,-1.14,-1.13,1.16,1.22,0.99,-0.77,-0.76,-0.79
58.58,-1.92,-1.93,-1.13,-1.13,1.15,1.20,0.95,-0.77,-0.78,-0.80
59.16,-1.94,-1.96,-1.13,-1.14,1.14,1.18,0.91,-0.80,-0.82,-0.82
59.76,-2.00,-1.99,-1.16,-1.15,1.13,1.15,0.88,-0.87,-0.86,-0.84
60.35,-2.02,-2.02,-1.14,-1.14,1.11,1.13,0.84,-0.91,-0.90,-0.88
60.96,-2.02,-2.03,-1.11,-1.11,1.09,1.10,0.80,-0.93,-0.94,-0.91
61.57,-2.02,-2.03,-1.07,-1.07,1.06,1.08,0.77,-0.96,-0.96,-0.96
62.18,-2.02,-2.02,-1.02,-1.02,1.03,1.05,0.73,-0.99,-0.99,-1.00
62.80,-2.02,-2.02,-0.98,-0.98,0.99,1.02,0.70,-1.03,-1.03,-1.04
63.43,-2.02,-2.02,-0.93,-0.93,0.94,0.99,0.66,-1.08,-1.08,-1.09
64.07,-2.02,-2.02,-0.89,-0.89,0.89,0.95,0.63,-1.13,-1.13,-1.13
64.71,-2.02,-2.02,-0.84,-0.84,0.85,0.92,0.59,-1.18,-1.18,-1.18
65.35,-2.02,-2.02,-0.80,-0.80,0.80,0.89,0.56,-1.22,-1.22,-1.22
66.01,-2.02,-2.02,-0.76,-0.75,0.75,0.85,0.52,-1.27,-1.27,-1.27
66.67,-2.02,-2.02,-0.71,-0.71,0.71,0.82,0.48,-1.32,-1.32,-1.32
67.33,-2.02,-2.02,-0.66,-0.66,0.66,0.78,0.45,-1.37,-1.37,-1.37
68.01,-2.02,-2.02,-0.62,-0.61,0.61,0.74,0.41,-1.41,-1.41,-1.41
68.69,-2.02,-2.02,-0.57,-0.56,0.56,0.70,0.38,-1.46,-1.46,-1.46
69.37,-2.02,-2.02,-0.51,-0.52,0.51,0.66,0.34,-1.51,-1.51,-1.51
70.07,-2.02,-2.02,-0.46,-0.46,0.47,0.62,0.31,-1.55,-1.55,-1.56
70.77,-2.02,-2.02,-0.42,-0.41,0.43,0.58,0.27,-1.60,-1.59,-1.61
71.48,-2.02,-2.04,-0.36,-0.37,0.38,0.54,0.23,-1.64,-1.65,-1.66
72.19,-2.05,-2.06,-0.33,-0.34,0.34,0.49,0.20,-1.71,-1.72,-1.73
72.91,-2.11,-2.10,-0.33,-0.31,0.30,0.45,0.16,-1.82,-1.80,-1.78
73.64,-2.12,-2.12,-0.28,-0.28,0.26,0.40,0.12,-1.87,-1.86,-1.84
74.38,-2.12,-2.12,-0.23,-0.23,0.22,0.36,0.09,-1.90,-1.90,-1.90
75.12,-2.12,-2.12,-0.17,-0.17,0.18,0.31,0.05,-1.94,-1.94,-1.95
75.87,-2.12,-2.15,-0.11,-0.13,0.15,0.26,0.01,-1.97,-2.00,-2.01
76.63,-2.18,-2.18,-0.12,-0.11,0.12,0.21,-0.02,-2.06,-2.06,-2.06
77.40,-2.22,-2.20,-0.11,-0.08,0.09,0.16,-0.06,-2.13,-2.11,-2.12
78.17,-2.22,-2.23,-0.05,-0.06,0.06,0.11,-0.10,-2.16,-2.16,-2.18
78.95,-2.22,-2.25,-0.01,-0.04,0.04,0.06,-0.14,-2.19,-2.21,-2.21
79.74,-2.29,-2.28,-0.03,-0.02,0.01,0.01,-0.18,-2.28,-2.27,-2.26
80.54,-2.32,-2.31,-0.02,-0.00,-0.01,-0.04,-0.22,-2.34,-2.32,-2.31
81.35,-2.32,-2.33,0.04,0.03,-0.05,-0.09,-0.25,-2.37,-2.38,-2.36
82.16,-2.32,-2.33,0.08,0.08,-0.08,-0.15,-0.29,-2.41,-2.41,-2.41
82.98,-2.32,-2.32,0.12,0.13,-0.12,-0.20,-0.33,-2.45,-2.45,-2.44
83.81,-2.32,-2.32,0.18,0.17,-0.17,-0.25,-0.37,-2.49,-2.49,-2.50
84.65,-2.32,-2.32,0.23,0.22,-0.22,-0.31,-0.42,-2.54,-2.54,-2.55
85.50,-2.32,-2.32,0.26,0.27,-0.27,-0.37,-0.46,-2.59,-2.59,-2.59
86.35,-2.32,-2.32,0.31,0.31,-0.32,-0.42,-0.50,-2.65,-2.65,-2.64
87.22,-2.32,-2.32,0.36,0.36,-0.37,-0.48,-0.54,-2.69,-2.69,-2.69
88.09,-2.32,-2.32,0.41,0.42,-0.41,-0.54,-0.58,-2.74,-2.73,-2.74
88.97,-2.32,-2.32,0.46,0.47,-0.45,-0.59,-0.62,-2.78,-2.77,-2.79
89.86,-2.32,-2.34,0.52,0.50,-0.49,-0.65,-0.67,-2.81,-2.82,-2.84
90.76,-2.36,-2.36,0.53,0.53,-0.51,-0.71,-0.71,-2.88,-2.87,-2.89
91.66,-2.40,-2.39,0.53,0.55,-0.54,-0.77,-0.76,-2.94,-2.93,-2.93
92.58,-2.42,-2.44,0.57,0.56,-0.56,-0.83,-0.80,-2.98,-3.00,-3.00
93.51,-2.47,-2.47,0.57,0.57,-0.58,-0.89,-0.85,-3.06,-3.06,-3.04
94.44,-2.51,-2.50,0.57,0.58,-0.61,-0.95,-0.89,-3.12,-3.11,-3.08
95.39,-2.52,-2.52,0.61,0.61,-0.63,-1.01,-0.94,-3.15,-3.15,-3.13
96.34,-2.52,-2.53,0.66,0.66,-0.66,-1.07,-0.99,-3.18,-3.18,-3.18
97.30,-2.52,-2.53,0.71,0.70,-0.69,-1.13,-1.03,-3.21,-3.22,-3.23
98.28,-2.53,-2.54,0.74,0.74,-0.72,-1.19,-1.08,-3.26,-3.26,-3.27
99.26,-2.55,-2.55,0.77,0.77,-0.76,-1.25,-1.13,-3.31,-3.31,-3.32
100.25,-2.57,-2.57,0.79,0.79,-0.80,-1.31,-1.17,-3.37,-3.37,-3.37
101.25,-2.59,-2.59,0.82,0.82,-0.83,-1.37,-1.22,-3.42,-3.42,-3.41
102.27,-2.60,-2.60,0.85,0.86,-0.86,-1.43,-1.27,-3.46,-3.46,-3.46
103.29,-2.61,-2.62,0.90,0.89,-0.89,-1.49,-1.32,-3.50,-3.50,-3.51
104.32,-2.63,-2.63,0.92,0.92,-0.91,-1.55,-1.37,-3.55,-3.55,-3.55
105.37,-2.65,-2.65,0.94,0.94,-0.94,-1.61,-1.42,-3.59,-3.59,-3.60
106.42,-2.68,-2.68,0.96,0.97,-0.97,-1.67,-1.46,-3.65,-3.65,-3.64
107.48,-2.70,-2.71,1.00,0.99,-0.99,-1.72,-1.51,-3.70,-3.70,-3.70
108.56,-2.73,-2.73,1.02,1.02,-1.02,-1.78,-1.56,-3.75,-3.75,-3.76
109.64,-2.75,-2.75,1.05,1.05,-1.04,-1.84,-1.60,-3.80,-3.79,-3.80
110.74,-2.76,-2.77,1.09,1.09,-1.08,-1.90,-1.65,-3.84,-3.84,-3.86
111.85,-2.78,-2.78,1.11,1.12,-1.12,-1.96,-1.69,-3.90,-3.90,-3.89
112.97,-2.79,-2.80,1.17,1.16,-1.17,-2.01,-1.74,-3.96,-3.97,-3.96
114.10,-2.80,-2.81,1.20,1.20,-1.23,-2.07,-1.78,-4.04,-4.04,-4.00
115.24,-2.79,-2.78,1.26,1.27,-1.30,-2.12,-1.82,-4.10,-4.08,-4.05
116.39,-2.74,-2.73,1.36,1.37,-1.38,-2.18,-1.86,-4.12,-4.10,-4.10
117.55,-2.64,-2.67,1.49,1.47,-1.46,-2.23,-1.90,-4.10,-4.13,-4.14
118.73,-2.59,-2.60,1.59,1.57,-1.54,-2.29,-1.93,-4.14,-4.15,-4.18
119.92,-2.58,-2.55,1.62,1.66,-1.63,-2.34,-1.97,-4.21,-4.18,-4.20
121.12,-2.49,-2.52,1.75,1.72,-1.72,-2.39,-2.00,-4.22,-4.24,-4.25
122.33,-2.48,-2.49,1.80,1.79,-1.81,-2.44,-2.03,-4.29,-4.30,-4.28
123.55,-2.46,-2.44,1.84,1.87,-1.89,-2.49,-2.06,-4.35,-4.32,-4.30
124.79,-2.38,-2.38,1.95,1.95,-1.96,-2.54,-2.08,-4.34,-4.35,-4.33
126.03,-2.30,-2.32,2.06,2.04,-2.03,-2.59,-2.11,-4.33,-4.35,-4.36
127.29,-2.26,-2.26,2.12,2.13,-2.10,-2.64,-2.13,-4.36,-4.36,-4.38
128.57,-2.23,-2.24,2.19,2.18,-2.17,-2.68,-2.15,-4.40,-4.40,-4.42
129.85,-2.22,-2.23,2.23,2.22,-2.23,-2.73,-2.17,-4.45,-4.46,-4.45
131.15,-2.22,-2.21,2.26,2.27,-2.29,-2.77,-2.19,-4.51,-4.49,-4.48
132.46,-2.18,-2.18,2.32,2.33,-2.34,-2.82,-2.21,-4.52,-4.51,-4.51
133.79,-2.12,-2.14,2.41,2.39,-2.39,-2.86,-2.22,-4.51,-4.53,-4.53
135.12,-2.11,-2.11,2.46,2.45,-2.44,-2.90,-2.23,-4.55,-4.55,-4.57
136.48,-2.10,-2.11,2.48,2.48,-2.49,-2.94,-2.25,-4.59,-4.59,-4.58
137.84,-2.10,-2.10,2.52,2.52,-2.54,-2.98,-2.26,-4.64,-4.64,-4.62
139.22,-2.08,-2.07,2.57,2.58,-2.59,-3.02,-2.27,-4.67,-4.66,-4.65
140.61,-2.03,-2.04,2.65,2.64,-2.64,-3.06,-2.28,-4.67,-4.68,-4.68
142.02,-1.99,-2.01,2.70,2.70,-2.68,-3.09,-2.29,-4.68,-4.69,-4.70
143.44,-1.99,-1.99,2.73,2.74,-2.73,-3.13,-2.30,-4.72,-4.72,-4.73
144.87,-1.99,-1.99,2.78,2.77,-2.77,-3.16,-2.31,-4.76,-4.76,-4.77
146.32,-1.99,-1.99,2.81,2.81,-2.81,-3.20,-2.32,-4.80,-4.80,-4.81
147.78,-2.00,-2.00,2.83,2.84,-2.85,-3.23,-2.33,-4.85,-4.84,-4.84
149.26,-2.00,-2.02,2.88,2.87,-2.88,-3.26,-2.34,-4.89,-4.90,-4.88
150.75,-2.04,-2.04,2.91,2.90,-2.92,-3.29,-2.35,-4.96,-4.97,-4.95
152.26,-2.08,-2.07,2.94,2.95,-2.96,-3.32,-2.36,-5.04,-5.03,-5.02
153.78,-2.10,-2.10,2.98,2.99,-2.99,-3.34,-2.37,-5.10,-5.09,-5.08
155.32,-2.11,-2.13,3.05,3.03,-3.03,-3.37,-2.39,-5.14,-5.15,-5.16
156.88,-2.16,-2.17,3.07,3.07,-3.05,-3.39,-2.40,-5.22,-5.22,-5.23
158.44,-2.23,-2.23,3.08,3.09,-3.07,-3.42,-2.42,-5.31,-5.30,-5.32
160.03,-2.29,-2.29,3.10,3.10,-3.09,-3.44,-2.44,-5.38,-5.38,-5.40
161.63,-2.36,-2.36,3.11,3.10,-3.09,-3.46,-2.46,-5.45,-5.46,-5.47
163.24,-2.42,-2.42,3.11,3.10,-3.09,-3.48,-2.48,-5.51,-5.51,-5.53
164.88,-2.49,-2.48,3.09,3.10,-3.09,-3.50,-2.51,-5.58,-5.57,-5.58
166.53,-2.52,-2.54,3.11,3.08,-3.10,-3.52,-2.53,-5.62,-5.64,-5.63
168.19,-2.58,-2.58,3.08,3.09,-3.11,-3.54,-2.56,-5.69,-5.69,-5.67
169.87,-2.62,-2.59,3.08,3.11,-3.14,-3.55,-2.59,-5.77,-5.73,-5.70
171.57,-2.55,-2.58,3.17,3.14,-3.19,-3.57,-2.62,-5.74,-5.77,-5.72
173.29,-2.52,-2.52,3.21,3.21,-3.24,-3.58,-2.65,-5.76,-5.76,-5.74
175.02,-2.47,-2.44,3.27,3.31,-3.30,-3.59,-2.69,-5.78,-5.74,-5.74
176.77,-2.33,-2.36,3.42,3.40,-3.37,-3.61,-2.73,-5.71,-5.73,-5.76
178.54,-2.26,-2.28,3.50,3.47,-3.44,-3.62,-2.77,-5.71,-5.73,-5.76
180.32,-2.24,-2.22,3.51,3.54,-3.51,-3.63,-2.81,-5.75,-5.73,-5.76
182.13,-2.18,-2.18,3.56,3.57,-3.57,-3.64,-2.85,-5.75,-5.75,-5.75
183.95,-2.12,-2.14,3.64,3.62,-3.62,-3.64,-2.90,-5.74,-5.76,-5.76
185.79,-2.11,-2.11,3.65,3.66,-3.66,-3.65,-2.95,-5.77,-5.76,-5.76
187.65,-2.09,-2.09,3.69,3.69,-3.69,-3.66,-3.00,-5.78,-5.78,-5.78
189.52,-2.08,-2.08,3.71,3.71,-3.72,-3.66,-3.05,-5.80,-5.80,-5.79
191.42,-2.07,-2.07,3.74,3.74,-3.75,-3.67,-3.11,-5.82,-5.82,-5.81
193.33,-2.05,-2.06,3.78,3.77,-3.78,-3.67,-3.16,-5.83,-5.84,-5.83
195.27,-2.04,-2.04,3.81,3.81,-3.81,-3.67,-3.22,-5.86,-5.85,-5.85
197.22,-2.02,-2.02,3.84,3.85,-3.84,-3.68,-3.28,-5.87,-5.87,-5.87
199.19,-2.01,-2.01,3.88,3.88,-3.87,-3.68,-3.34,-5.88,-5.88,-5.89
201.18,-2.00,-2.01,3.91,3.91,-3.90,-3.68,-3.40,-5.90,-5.90,-5.91
203.19,-2.00,-2.00,3.92,3.93,-3.92,-3.68,-3.46,-5.93,-5.93,-5.93
205.23,-2.00,-2.00,3.95,3.94,-3.95,-3.68,-3.52,-5.95,-5.95,-5.95
207.28,-2.00,-2.00,3.95,3.96,-3.97,-3.68,-3.59,-5.97,-5.97,-5.96
209.35,-2.00,-2.00,3.98,3.98,-3.99,-3.67,-3.65,-5.99,-5.99,-5.98
211.44,-2.00,-2.01,4.01,4.00,-4.00,-3.67,-3.71,-6.00,-6.01,-6.02
213.56,-2.01,-2.01,4.01,4.02,-4.01,-3.67,-3.78,-6.02,-6.01,-6.02
215.69,-2.01,-2.01,4.02,4.02,-4.01,-3.66,-3.84,-6.02,-6.02,-6.03
217.85,-2.01,-2.03,4.03,4.02,-4.00,-3.66,-3.90,-6.02,-6.03,-6.05
220.03,-2.05,-2.06,4.00,4.00,-4.00,-3.65,-3.96,-6.05,-6.06,-6.06
222.23,-2.10,-2.09,3.98,3.98,-3.99,-3.64,-4.01,-6.10,-6.08,-6.08
224.45,-2.12,-2.12,3.95,3.96,-3.98,-3.64,-4.07,-6.11,-6.10,-6.07
226.70,-2.12,-2.13,3.95,3.94,-3.97,-3.63,-4.12,-6.09,-6.10,-6.07
228.96,-2.12,-2.12,3.94,3.94,-3.95,-3.62,-4.17,-6.07,-6.07,-6.06
231.25,-2.11,-2.11,3.94,3.94,-3.92,-3.61,-4.21,-6.04,-6.03,-6.05
233.57,-2.10,-2.11,3.94,3.93,-3.90,-3.61,-4.25,-6.00,-6.01,-6.04
235.90,-2.12,-2.14,3.91,3.90,-3.87,-3.60,-4.29,-5.99,-6.00,-6.03
238.26,-2.17,-2.18,3.85,3.84,-3.84,-3.59,-4.32,-6.01,-6.01,-6.02
240.64,-2.23,-2.22,3.77,3.78,-3.81,-3.58,-4.35,-6.04,-6.02,-6.00
243.05,-2.23,-2.23,3.74,3.74,-3.78,-3.56,-4.37,-6.01,-6.01,-5.97
245.48,-2.22,-2.22,3.73,3.72,-3.75,-3.55,-4.39,-5.98,-5.97,-5.95
247.93,-2.19,-2.20,3.72,3.72,-3.73,-3.54,-4.40,-5.92,-5.93,-5.92
250.41,-2.17,-2.18,3.73,3.72,-3.71,-3.53,-4.40,-5.89,-5.89,-5.90
252.92,-2.16,-2.16,3.71,3.71,-3.70,-3.52,-4.40,-5.87,-5.87,-5.87
255.45,-2.15,-2.15,3.70,3.70,-3.70,-3.50,-4.39,-5.85,-5.85,-5.85
258.00,-2.14,-2.14,3.68,3.68,-3.69,-3.49,-4.38,-5.83,-5.83,-5.83
260.58,-2.13,-2.14,3.68,3.67,-3.67,-3.48,-4.36,-5.80,-5.81,-5.81
263.19,-2.13,-2.13,3.65,3.66,-3.64,-3.46,-4.34,-5.78,-5.77,-5.78
265.82,-2.13,-2.13,3.63,3.64,-3.61,-3.45,-4.31,-5.74,-5.74,-5.77
268.48,-2.13,-2.15,3.61,3.59,-3.57,-3.44,-4.28,-5.70,-5.72,-5.74
271.16,-2.17,-2.18,3.53,3.53,-3.53,-3.42,-4.24,-5.70,-5.71,-5.71
273.87,-2.24,-2.22,3.45,3.47,-3.48,-3.41,-4.20,-5.73,-5.70,-5.69
276.61,-2.24,-2.24,3.42,3.42,-3.44,-3.39,-4.16,-5.69,-5.69,-5.66
279.38,-2.24,-2.25,3.39,3.38,-3.41,-3.38,-4.11,-5.65,-5.66,-5.63
282.17,-2.24,-2.24,3.37,3.36,-3.37,-3.36,-4.06,-5.62,-5.62,-5.61
284.99,-2.24,-2.24,3.33,3.34,-3.35,-3.35,-4.01,-5.59,-5.59,-5.57
287.84,-2.23,-2.23,3.33,3.32,-3.32,-3.33,-3.96,-5.56,-5.56,-5.56
290.72,-2.22,-2.22,3.30,3.30,-3.30,-3.31,-3.90,-5.52,-5.52,-5.52
293.63,-2.20,-2.20,3.30,3.30,-3.27,-3.30,-3.84,-5.48,-5.47,-5.50
296.57,-2.19,-2.19,3.27,3.27,-3.25,-3.28,-3.79,-5.44,-5.44,-5.46
299.53,-2.18,-2.21,3.25,3.23,-3.22,-3.27,-3.73,-5.40,-5.42,-5.44
302.53,-2.24,-2.23,3.18,3.18,-3.19,-3.25,-3.67,-5.43,-5.42,-5.42
305.55,-2.26,-2.25,3.11,3.14,-3.16,-3.23,-3.61,-5.42,-5.41,-5.37
308.61,-2.25,-2.26,3.10,3.10,-3.13,-3.22,-3.56,-5.38,-5.39,-5.36
311.69,-2.24,-2.25,3.09,3.08,-3.10,-3.20,-3.50,-5.34,-5.35,-5.33
314.81,-2.24,-2.24,3.06,3.07,-3.06,-3.19,-3.44,-5.31,-5.30,-5.31
317.96,-2.24,-2.24,3.05,3.05,-3.03,-3.17,-3.39,-5.27,-5.26,-5.29
321.14,-2.24,-2.25,3.04,3.02,-2.99,-3.15,-3.34,-5.23,-5.24,-5.28
324.35,-2.28,-2.29,2.98,2.98,-2.95,-3.14,-3.29,-5.23,-5.23,-5.26
327.59,-2.33,-2.34,2.91,2.91,-2.91,-3.12,-3.24,-5.24,-5.25,-5.25
330.87,-2.41,-2.40,2.83,2.84,-2.87,-3.10,-3.19,-5.28,-5.26,-5.24
334.18,-2.44,-2.43,2.78,2.79,-2.83,-3.09,-3.14,-5.27,-5.26,-5.22
337.52,-2.44,-2.45,2.77,2.76,-2.79,-3.07,-3.10,-5.23,-5.24,-5.22
340.90,-2.45,-2.45,2.75,2.75,-2.75,-3.06,-3.06,-5.21,-5.20,-5.20
344.30,-2.45,-2.45,2.74,2.75,-2.72,-3.04,-3.02,-5.18,-5.17,-5.19
347.75,-2.45,-2.46,2.74,2.73,-2.70,-3.02,-2.98,-5.16,-5.16,-5.19
351.23,-2.46,-2.49,2.72,2.70,-2.69,-3.01,-2.95,-5.15,-5.18,-5.19
354.74,-2.53,-2.52,2.65,2.67,-2.68,-2.99,-2.91,-5.21,-5.20,-5.19
358.28,-2.55,-2.54,2.63,2.64,-2.67,-2.98,-2.88,-5.22,-5.21,-5.18
361.87,-2.54,-2.55,2.64,2.63,-2.65,-2.96,-2.85,-5.19,-5.20,-5.18
365.49,-2.53,-2.53,2.64,2.65,-2.63,-2.95,-2.83,-5.16,-5.16,-5.17
369.14,-2.52,-2.52,2.66,2.66,-2.61,-2.93,-2.80,-5.14,-5.14,-5.19
372.83,-2.51,-2.55,2.67,2.63,-2.61,-2.92,-2.78,-5.12,-5.16,-5.19
376.56,-2.60,-2.58,2.59,2.60,-2.61,-2.91,-2.76,-5.21,-5.19,-5.19
380.33,-2.63,-2.62,2.55,2.57,-2.62,-2.89,-2.74,-5.25,-5.24,-5.18
384.13,-2.60,-2.62,2.58,2.57,-2.63,-2.88,-2.73,-5.24,-5.25,-5.18
387.97,-2.59,-2.57,2.60,2.63,-2.65,-2.87,-2.71,-5.24,-5.22,-5.19
391.85,-2.50,-2.51,2.70,2.69,-2.67,-2.85,-2.70,-5.17,-5.18,-5.21
395.77,-2.44,-2.47,2.75,2.73,-2.69,-2.84,-2.69,-5.13,-5.16,-5.20
399.73,-2.46,-2.46,2.74,2.75,-2.71,-2.83,-2.68,-5.17,-5.16,-5.21
403.72,-2.48,-2.47,2.73,2.74,-2.72,-2.82,-2.68,-5.20,-5.19,-5.21
407.76,-2.49,-2.49,2.73,2.73,-2.73,-2.81,-2.67,-5.22,-5.22,-5.22
411.84,-2.49,-2.49,2.73,2.73,-2.73,-2.80,-2.67,-5.22,-5.22,-5.22
415.96,-2.49,-2.49,2.73,2.73,-2.73,-2.79,-2.67,-5.22,-5.22,-5.22
420.12,-2.49,-2.51,2.73,2.72,-2.73,-2.78,-2.67,-5.23,-5.24,-5.22
424.32,-2.50,-2.51,2.72,2.71,-2.74,-2.77,-2.67,-5.25,-5.26,-5.23
428.56,-2.52,-2.49,2.69,2.73,-2.76,-2.76,-2.67,-5.28,-5.25,-5.22
432.85,-2.44,-2.44,2.76,2.77,-2.78,-2.75,-2.67,-5.22,-5.22,-5.21
