frequency,raw,error,smoothed,error_smoothed,equalization,parametric_eq,equalized_raw,equalized_smoothed,target
20,11.11,4.94,11.16,5.02,-5.02,-1.78,6.09,6.14,6.17
21,11.00,4.84,11.03,4.89,-4.89,-2.03,6.11,6.14,6.16
22,10.92,4.77,10.90,4.77,-4.77,-2.32,6.15,6.13,6.15
23,10.80,4.66,10.78,4.65,-4.65,-2.62,6.15,6.13,6.14
24,10.70,4.57,10.65,4.54,-4.54,-2.94,6.16,6.12,6.13
25,10.57,4.45,10.54,4.43,-4.43,-3.27,6.14,6.11,6.12
26,10.46,4.35,10.42,4.32,-4.32,-3.60,6.13,6.10,6.10
27,10.34,4.25,10.31,4.22,-4.22,-3.91,6.11,6.08,6.09
28,10.22,4.14,10.20,4.13,-4.13,-4.18,6.09,6.07,6.07
29,10.10,4.04,10.10,4.04,-4.04,-4.40,6.05,6.06,6.06
30,9.99,3.95,10.00,3.96,-3.96,-4.56,6.03,6.04,6.04
31,9.88,3.86,9.89,3.87,-3.87,-4.65,6.00,6.02,6.02
32,9.79,3.79,9.79,3.80,-3.80,-4.67,5.99,5.99,6.00
33,9.69,3.71,9.70,3.72,-3.72,-4.63,5.96,5.97,5.98
34,9.60,3.64,9.61,3.66,-3.66,-4.55,5.94,5.95,5.96
35,9.53,3.59,9.53,3.60,-3.60,-4.44,5.93,5.93,5.93
36,9.44,3.53,9.45,3.55,-3.55,-4.31,5.89,5.90,5.91
37,9.40,3.51,9.39,3.51,-3.51,-4.18,5.89,5.88,5.88
38,9.31,3.45,9.32,3.47,-3.47,-4.04,5.83,5.85,5.86
39,9.27,3.44,9.27,3.44,-3.44,-3.92,5.82,5.83,5.83
40,9.23,3.43,9.22,3.42,-3.42,-3.81,5.80,5.80,5.80
41,9.18,3.41,9.18,3.41,-3.41,-3.71,5.77,5.77,5.77
42,9.14,3.40,9.13,3.40,-3.40,-3.63,5.74,5.74,5.74
43,9.10,3.39,9.10,3.40,-3.40,-3.57,5.70,5.70,5.70
44,9.05,3.38,9.07,3.40,-3.40,-3.52,5.65,5.67,5.67
45,9.05,3.41,9.03,3.40,-3.40,-3.49,5.65,5.64,5.64
46,9.01,3.41,9.00,3.40,-3.40,-3.47,5.60,5.60,5.60
47,8.97,3.41,8.97,3.41,-3.41,-3.47,5.55,5.56,5.56
48,8.97,3.44,8.95,3.42,-3.42,-3.48,5.54,5.52,5.52
49,8.92,3.43,8.92,3.43,-3.43,-3.49,5.48,5.48,5.48
50,8.88,3.43,8.89,3.45,-3.45,-3.52,5.43,5.44,5.44
51,8.88,3.48,8.86,3.46,-3.46,-3.55,5.42,5.40,5.40
52,8.84,3.48,8.83,3.47,-3.47,-3.59,5.37,5.36,5.36
53,8.79,3.47,8.80,3.48,-3.48,-3.63,5.31,5.32,5.31
54,8.76,3.49,8.76,3.49,-3.49,-3.67,5.26,5.27,5.27
55,8.73,3.50,8.73,3.50,-3.50,-3.71,5.22,5.22,5.22
56,8.71,3.53,8.69,3.51,-3.51,-3.75,5.19,5.18,5.18
57,8.66,3.53,8.65,3.52,-3.52,-3.79,5.13,5.13,5.13
58,8.62,3.53,8.62,3.53,-3.53,-3.82,5.08,5.08,5.08
59,8.58,3.54,8.58,3.54,-3.54,-3.85,5.03,5.03,5.03
60,8.53,3.54,8.54,3.55,-3.55,-3.86,4.97,4.98,4.99
61,8.50,3.56,8.50,3.56,-3.56,-3.88,4.93,4.93,4.94
62,8.46,3.57,8.46,3.57,-3.57,-3.88,4.88,4.88,4.88
63,8.42,3.58,8.42,3.59,-3.59,-3.88,4.83,4.83,4.83
64,8.38,3.60,8.38,3.60,-3.60,-3.87,4.78,4.78,4.78
65,8.34,3.61,8.33,3.61,-3.61,-3.85,4.73,4.73,4.73
66,8.29,3.61,8.29,3.62,-3.62,-3.83,4.67,4.67,4.68
67,8.25,3.62,8.25,3.63,-3.63,-3.80,4.62,4.62,4.62
68,8.22,3.65,8.21,3.64,-3.64,-3.77,4.58,4.57,4.57
69,8.17,3.65,8.17,3.65,-3.65,-3.73,4.52,4.52,4.52
70,8.13,3.66,8.12,3.66,-3.66,-3.70,4.47,4.46,4.46
71,8.08,3.67,8.08,3.67,-3.67,-3.66,4.41,4.41,4.41
72,8.03,3.67,8.03,3.68,-3.68,-3.62,4.35,4.35,4.36
73,7.99,3.69,7.99,3.69,-3.69,-3.58,4.30,4.30,4.30
74,7.95,3.70,7.95,3.70,-3.70,-3.55,4.25,4.25,4.25
75,7.91,3.71,7.90,3.71,-3.71,-3.51,4.20,4.19,4.19
76,7.86,3.72,7.86,3.72,-3.72,-3.48,4.14,4.14,4.14
77,7.81,3.72,7.81,3.73,-3.73,-3.45,4.08,4.08,4.08
78,7.77,3.74,7.77,3.74,-3.74,-3.42,4.03,4.03,4.03
79,7.72,3.74,7.72,3.75,-3.75,-3.40,3.97,3.98,3.98
80,7.68,3.75,7.68,3.76,-3.76,-3.38,3.92,3.92,3.92
81,7.64,3.77,7.63,3.76,-3.76,-3.36,3.87,3.87,3.87
82,7.60,3.78,7.59,3.77,-3.77,-3.34,3.82,3.81,3.82
83,7.55,3.79,7.54,3.78,-3.78,-3.33,3.76,3.76,3.76
84,7.49,3.78,7.50,3.79,-3.79,-3.33,3.70,3.71,3.71
85,7.45,3.79,7.45,3.80,-3.80,-3.32,3.65,3.66,3.66
86,7.41,3.80,7.41,3.81,-3.81,-3.32,3.60,3.60,3.60
87,7.38,3.82,7.37,3.81,-3.81,-3.33,3.56,3.55,3.55
88,7.32,3.82,7.32,3.82,-3.82,-3.33,3.50,3.50,3.50
89,7.28,3.83,7.28,3.83,-3.83,-3.34,3.45,3.45,3.45
90,7.24,3.84,7.23,3.83,-3.83,-3.36,3.40,3.40,3.40
91,7.19,3.84,7.19,3.84,-3.84,-3.37,3.35,3.35,3.35
92,7.15,3.85,7.14,3.84,-3.84,-3.39,3.30,3.30,3.30
93,7.09,3.84,7.10,3.85,-3.85,-3.41,3.24,3.25,3.25
94,7.06,3.86,7.06,3.85,-3.85,-3.44,3.20,3.21,3.20
95,7.01,3.85,7.01,3.86,-3.86,-3.46,3.15,3.16,3.15
96,6.97,3.86,6.97,3.86,-3.86,-3.49,3.11,3.11,3.11
97,6.92,3.86,6.92,3.86,-3.86,-3.52,3.05,3.06,3.06
98,6.89,3.87,6.87,3.87,-3.87,-3.55,3.02,3.01,3.01
99,6.84,3.87,6.83,3.87,-3.87,-3.59,2.97,2.96,2.97
100,6.79,3.87,6.78,3.87,-3.87,-3.62,2.92,2.91,2.92
101,6.75,3.87,6.73,3.87,-3.87,-3.66,2.88,2.86,2.88
102,6.70,3.86,6.68,3.87,-3.87,-3.70,2.83,2.81,2.83
104,6.62,3.87,6.64,3.87,-3.87,-3.77,2.75,2.77,2.75
105,6.57,3.86,6.59,3.87,-3.87,-3.81,2.70,2.72,2.70
106,6.53,3.86,6.55,3.87,-3.87,-3.85,2.66,2.67,2.66
107,6.50,3.88,6.50,3.87,-3.87,-3.88,2.63,2.63,2.62
108,6.45,3.87,6.46,3.87,-3.87,-3.92,2.58,2.59,2.58
109,6.42,3.88,6.41,3.87,-3.87,-3.96,2.55,2.54,2.54
110,6.37,3.87,6.37,3.87,-3.87,-3.99,2.50,2.50,2.50
111,6.33,3.86,6.32,3.86,-3.86,-4.02,2.46,2.46,2.46
112,6.28,3.85,6.28,3.86,-3.86,-4.05,2.42,2.42,2.42
113,6.26,3.87,6.24,3.86,-3.86,-4.08,2.40,2.38,2.39
114,6.21,3.86,6.19,3.85,-3.85,-4.11,2.35,2.34,2.35
115,6.17,3.85,6.15,3.85,-3.85,-4.13,2.32,2.30,2.31
117,6.08,3.83,6.10,3.84,-3.84,-4.17,2.24,2.26,2.24
118,6.04,3.83,6.05,3.83,-3.83,-4.19,2.20,2.22,2.21
119,6.00,3.82,6.00,3.82,-3.82,-4.20,2.17,2.18,2.18
120,5.96,3.81,5.95,3.82,-3.82,-4.21,2.14,2.14,2.14
121,5.91,3.80,5.90,3.81,-3.81,-4.22,2.10,2.10,2.11
123,5.84,3.79,5.85,3.80,-3.80,-4.22,2.04,2.06,2.05
124,5.80,3.78,5.80,3.78,-3.78,-4.22,2.01,2.02,2.02
125,5.76,3.77,5.75,3.77,-3.77,-4.21,1.98,1.98,1.98
126,5.72,3.76,5.70,3.76,-3.76,-4.21,1.96,1.94,1.95
128,5.65,3.75,5.65,3.75,-3.75,-4.18,1.90,1.91,1.90
129,5.61,3.74,5.61,3.73,-3.73,-4.16,1.87,1.87,1.87
130,5.57,3.73,5.56,3.72,-3.72,-4.14,1.85,1.83,1.84
131,5.52,3.70,5.51,3.71,-3.71,-4.12,1.81,1.80,1.81
133,5.44,3.68,5.46,3.69,-3.69,-4.06,1.75,1.77,1.76
134,5.40,3.66,5.41,3.67,-3.67,-4.03,1.72,1.73,1.73
135,5.37,3.66,5.36,3.66,-3.66,-4.00,1.71,1.70,1.71
137,5.30,3.64,5.30,3.64,-3.64,-3.93,1.66,1.66,1.66
138,5.26,3.62,5.25,3.62,-3.62,-3.90,1.64,1.63,1.64
140,5.19,3.60,5.20,3.60,-3.60,-3.82,1.58,1.60,1.59
141,5.16,3.59,5.15,3.58,-3.58,-3.78,1.57,1.57,1.57
142,5.12,3.57,5.10,3.56,-3.56,-3.74,1.55,1.53,1.54
144,5.05,3.55,5.04,3.54,-3.54,-3.66,1.51,1.50,1.50
145,5.00,3.52,4.99,3.52,-3.52,-3.62,1.48,1.47,1.48
147,4.92,3.48,4.94,3.50,-3.50,-3.54,1.42,1.44,1.44
148,4.89,3.47,4.89,3.47,-3.47,-3.50,1.41,1.41,1.42
150,4.83,3.45,4.83,3.45,-3.45,-3.41,1.38,1.38,1.38
151,4.79,3.42,4.78,3.42,-3.42,-3.37,1.36,1.36,1.36
153,4.72,3.39,4.73,3.40,-3.40,-3.29,1.32,1.33,1.33
154,4.70,3.39,4.68,3.37,-3.37,-3.25,1.32,1.30,1.31
156,4.61,3.33,4.63,3.35,-3.35,-3.18,1.26,1.28,1.27
157,4.58,3.32,4.57,3.32,-3.32,-3.14,1.26,1.25,1.26
159,4.53,3.30,4.52,3.29,-3.29,-3.07,1.23,1.23,1.23
160,4.48,3.27,4.47,3.27,-3.27,-3.03,1.21,1.20,1.21
162,4.43,3.25,4.42,3.24,-3.24,-2.96,1.19,1.18,1.18
164,4.35,3.20,4.36,3.21,-3.21,-2.90,1.14,1.15,1.15
165,4.33,3.19,4.31,3.18,-3.18,-2.86,1.15,1.13,1.14
167,4.26,3.15,4.26,3.15,-3.15,-2.80,1.11,1.11,1.11
169,4.18,3.10,4.20,3.12,-3.12,-2.75,1.06,1.08,1.08
170,4.15,3.08,4.15,3.09,-3.09,-2.72,1.06,1.06,1.07
172,4.09,3.05,4.09,3.05,-3.05,-2.67,1.03,1.04,1.04
174,4.04,3.02,4.04,3.02,-3.02,-2.62,1.02,1.02,1.02
175,4.01,3.00,3.98,2.99,-2.99,-2.60,1.02,1.00,1.01
177,3.95,2.96,3.93,2.95,-2.95,-2.55,1.00,0.98,0.98
179,3.88,2.92,3.88,2.92,-2.92,-2.51,0.96,0.96,0.96
181,3.80,2.86,3.82,2.88,-2.88,-2.47,0.92,0.94,0.94
183,3.75,2.83,3.77,2.84,-2.84,-2.44,0.90,0.92,0.92
184,3.72,2.81,3.71,2.81,-2.81,-2.42,0.91,0.90,0.91
186,3.66,2.77,3.65,2.77,-2.77,-2.39,0.89,0.89,0.89
188,3.62,2.75,3.60,2.73,-2.73,-2.36,0.89,0.87,0.87
190,3.54,2.69,3.54,2.69,-2.69,-2.33,0.85,0.85,0.85
192,3.49,2.65,3.48,2.65,-2.65,-2.31,0.84,0.83,0.83
194,3.43,2.61,3.42,2.61,-2.61,-2.29,0.82,0.81,0.82
196,3.37,2.57,3.37,2.57,-2.57,-2.26,0.80,0.80,0.80
198,3.31,2.52,3.31,2.53,-2.53,-2.25,0.78,0.78,0.78
200,3.26,2.49,3.26,2.49,-2.49,-2.23,0.77,0.77,0.77
202,3.19,2.43,3.20,2.45,-2.45,-2.21,0.74,0.75,0.75
204,3.14,2.40,3.14,2.40,-2.40,-2.20,0.73,0.74,0.74
206,3.10,2.37,3.08,2.36,-2.36,-2.18,0.74,0.72,0.73
208,3.03,2.31,3.02,2.31,-2.31,-2.17,0.71,0.71,0.71
210,2.97,2.27,2.97,2.27,-2.27,-2.16,0.70,0.70,0.70
212,2.92,2.23,2.91,2.23,-2.23,-2.15,0.69,0.69,0.69
214,2.86,2.18,2.85,2.18,-2.18,-2.14,0.68,0.67,0.68
216,2.79,2.12,2.80,2.13,-2.13,-2.13,0.65,0.66,0.66
218,2.75,2.09,2.74,2.08,-2.08,-2.12,0.66,0.65,0.65
221,2.67,2.03,2.68,2.04,-2.04,-2.10,0.63,0.64,0.64
223,2.61,1.98,2.62,1.99,-1.99,-2.09,0.62,0.63,0.63
225,2.56,1.94,2.55,1.94,-1.94,-2.08,0.62,0.62,0.62
227,2.50,1.89,2.49,1.89,-1.89,-2.07,0.61,0.60,0.61
229,2.45,1.85,2.43,1.83,-1.83,-2.06,0.61,0.59,0.60
232,2.36,1.77,2.37,1.78,-1.78,-2.04,0.57,0.58,0.58
234,2.31,1.73,2.30,1.73,-1.73,-2.03,0.58,0.57,0.57
236,2.25,1.68,2.24,1.68,-1.68,-2.02,0.57,0.56,0.57
239,2.18,1.62,2.18,1.63,-1.63,-2.00,0.55,0.56,0.55
241,2.12,1.57,2.12,1.57,-1.57,-1.98,0.54,0.55,0.55
244,2.05,1.51,2.06,1.52,-1.52,-1.96,0.52,0.54,0.54
246,2.01,1.48,2.00,1.47,-1.47,-1.94,0.53,0.53,0.53
248,1.97,1.45,1.94,1.43,-1.43,-1.92,0.54,0.52,0.52
251,1.91,1.40,1.89,1.38,-1.38,-1.89,0.52,0.50,0.51
253,1.87,1.36,1.83,1.34,-1.34,-1.87,0.52,0.49,0.50
256,1.80,1.30,1.79,1.31,-1.31,-1.83,0.49,0.48,0.49
259,1.75,1.26,1.75,1.28,-1.28,-1.79,0.46,0.47,0.49
261,1.71,1.23,1.72,1.26,-1.26,-1.77,0.44,0.46,0.48
264,1.67,1.20,1.71,1.25,-1.25,-1.73,0.41,0.45,0.47
266,1.64,1.17,1.70,1.25,-1.25,-1.70,0.38,0.44,0.47
269,1.64,1.18,1.70,1.26,-1.26,-1.66,0.38,0.44,0.46
272,1.67,1.22,1.70,1.27,-1.27,-1.62,0.40,0.43,0.45
274,1.69,1.24,1.71,1.29,-1.29,-1.59,0.40,0.43,0.45
277,1.74,1.30,1.73,1.30,-1.30,-1.54,0.43,0.42,0.44
280,1.77,1.33,1.74,1.33,-1.33,-1.49,0.44,0.42,0.43
283,1.81,1.38,1.76,1.34,-1.34,-1.45,0.46,0.42,0.43
286,1.82,1.40,1.78,1.36,-1.36,-1.40,0.46,0.42,0.42
288,1.82,1.40,1.79,1.37,-1.37,-1.36,0.45,0.42,0.42
291,1.82,1.41,1.79,1.37,-1.37,-1.32,0.44,0.42,0.41
294,1.80,1.39,1.78,1.37,-1.37,-1.27,0.43,0.41,0.40
297,1.77,1.37,1.76,1.36,-1.36,-1.22,0.41,0.41,0.40
300,1.74,1.34,1.74,1.34,-1.34,-1.17,0.40,0.40,0.39
303,1.71,1.32,1.70,1.31,-1.31,-1.12,0.40,0.39,0.39
306,1.66,1.27,1.65,1.27,-1.27,-1.07,0.38,0.38,0.38
309,1.61,1.23,1.61,1.23,-1.23,-1.03,0.37,0.38,0.38
312,1.56,1.18,1.56,1.19,-1.19,-0.98,0.37,0.37,0.38
316,1.50,1.13,1.51,1.14,-1.14,-0.92,0.36,0.37,0.37
319,1.44,1.07,1.45,1.09,-1.09,-0.87,0.35,0.36,0.37
322,1.39,1.02,1.39,1.04,-1.04,-0.82,0.35,0.36,0.36
325,1.33,0.97,1.34,0.99,-0.99,-0.78,0.34,0.35,0.36
328,1.28,0.92,1.29,0.93,-0.93,-0.73,0.34,0.35,0.36
332,1.23,0.88,1.23,0.88,-0.88,-0.67,0.34,0.35,0.35
335,1.19,0.84,1.18,0.83,-0.83,-0.63,0.35,0.34,0.35
338,1.14,0.79,1.12,0.78,-0.78,-0.59,0.35,0.34,0.34
342,1.07,0.73,1.07,0.74,-0.74,-0.53,0.33,0.34,0.34
345,1.02,0.68,1.02,0.69,-0.69,-0.49,0.33,0.33,0.34
349,0.97,0.63,0.97,0.64,-0.64,-0.44,0.33,0.33,0.33
352,0.93,0.60,0.93,0.60,-0.60,-0.40,0.33,0.33,0.33
356,0.88,0.55,0.88,0.55,-0.55,-0.34,0.33,0.33,0.33
359,0.83,0.50,0.83,0.51,-0.51,-0.30,0.32,0.32,0.32
363,0.78,0.46,0.78,0.46,-0.46,-0.25,0.31,0.32,0.32
366,0.75,0.43,0.74,0.42,-0.42,-0.21,0.33,0.32,0.32
370,0.70,0.38,0.69,0.38,-0.38,-0.17,0.32,0.31,0.32
374,0.64,0.32,0.65,0.34,-0.34,-0.12,0.30,0.31,0.31
377,0.62,0.31,0.60,0.29,-0.29,-0.08,0.32,0.31,0.31
381,0.57,0.26,0.56,0.25,-0.25,-0.03,0.31,0.31,0.31
385,0.51,0.20,0.52,0.21,-0.21,0.01,0.29,0.30,0.31
389,0.48,0.17,0.48,0.17,-0.17,0.06,0.30,0.30,0.30
393,0.43,0.13,0.43,0.13,-0.13,0.10,0.29,0.30,0.30
397,0.40,0.10,0.39,0.10,-0.10,0.15,0.30,0.30,0.30
401,0.35,0.05,0.35,0.06,-0.06,0.19,0.29,0.30,0.30
405,0.32,0.02,0.31,0.02,-0.02,0.23,0.30,0.29,0.29
409,0.28,-0.01,0.28,-0.02,0.02,0.28,0.29,0.29,0.29
413,0.24,-0.05,0.24,-0.05,0.05,0.32,0.29,0.29,0.29
417,0.21,-0.08,0.20,-0.09,0.09,0.36,0.29,0.28,0.29
421,0.17,-0.12,0.16,-0.12,0.12,0.40,0.29,0.28,0.29
425,0.13,-0.16,0.13,-0.15,0.15,0.43,0.28,0.28,0.28
430,0.09,-0.20,0.09,-0.19,0.19,0.48,0.28,0.28,0.28
434,0.06,-0.22,0.06,-0.22,0.22,0.51,0.28,0.28,0.28
438,0.02,-0.26,0.02,-0.25,0.25,0.55,0.27,0.28,0.28
443,-0.02,-0.30,-0.01,-0.29,0.29,0.59,0.26,0.28,0.28
447,-0.04,-0.32,-0.05,-0.32,0.32,0.62,0.28,0.27,0.27
451,-0.07,-0.35,-0.08,-0.35,0.35,0.65,0.28,0.27,0.27
456,-0.11,-0.38,-0.11,-0.38,0.38,0.69,0.27,0.27,0.27
460,-0.13,-0.40,-0.15,-0.42,0.42,0.72,0.28,0.27,0.27
465,-0.18,-0.45,-0.18,-0.45,0.45,0.75,0.27,0.27,0.27
470,-0.22,-0.49,-0.21,-0.48,0.48,0.78,0.26,0.27,0.27
474,-0.24,-0.52,-0.24,-0.52,0.52,0.80,0.27,0.27,0.27
479,-0.26,-0.54,-0.27,-0.55,0.55,0.83,0.29,0.28,0.28
484,-0.30,-0.58,-0.30,-0.58,0.58,0.85,0.28,0.28,0.28
489,-0.34,-0.63,-0.33,-0.62,0.62,0.88,0.27,0.28,0.28
494,-0.35,-0.64,-0.36,-0.65,0.65,0.90,0.30,0.29,0.29
499,-0.39,-0.68,-0.39,-0.68,0.68,0.91,0.29,0.29,0.29
504,-0.43,-0.73,-0.42,-0.72,0.72,0.93,0.28,0.30,0.30
509,-0.44,-0.75,-0.45,-0.75,0.75,0.95,0.31,0.30,0.30
514,-0.48,-0.79,-0.47,-0.78,0.78,0.96,0.30,0.31,0.31
519,-0.49,-0.81,-0.50,-0.81,0.81,0.97,0.32,0.31,0.31
524,-0.52,-0.84,-0.53,-0.85,0.85,0.98,0.32,0.32,0.32
529,-0.55,-0.88,-0.55,-0.88,0.88,0.99,0.32,0.32,0.33
535,-0.57,-0.90,-0.58,-0.91,0.91,0.99,0.33,0.33,0.33
540,-0.61,-0.95,-0.60,-0.94,0.94,1.00,0.32,0.34,0.34
545,-0.61,-0.96,-0.62,-0.97,0.97,1.00,0.35,0.34,0.34
551,-0.65,-1.00,-0.64,-0.99,0.99,1.00,0.34,0.35,0.35
556,-0.65,-1.01,-0.67,-1.02,1.02,1.01,0.37,0.36,0.36
562,-0.69,-1.06,-0.69,-1.05,1.05,1.01,0.36,0.36,0.36
568,-0.70,-1.07,-0.71,-1.08,1.08,1.01,0.37,0.37,0.37
573,-0.74,-1.12,-0.73,-1.10,1.10,1.01,0.36,0.37,0.38
579,-0.74,-1.13,-0.75,-1.13,1.13,1.01,0.39,0.38,0.38
585,-0.77,-1.16,-0.77,-1.15,1.15,1.00,0.38,0.39,0.39
591,-0.78,-1.18,-0.78,-1.18,1.18,1.00,0.39,0.39,0.40
596,-0.78,-1.19,-0.80,-1.20,1.20,1.00,0.42,0.40,0.40
602,-0.83,-1.24,-0.82,-1.22,1.22,1.00,0.39,0.41,0.41
608,-0.83,-1.25,-0.83,-1.25,1.25,1.00,0.41,0.42,0.42
615,-0.83,-1.26,-0.85,-1.27,1.27,1.00,0.44,0.42,0.42
621,-0.87,-1.30,-0.86,-1.29,1.29,0.99,0.42,0.43,0.43
627,-0.87,-1.31,-0.87,-1.32,1.32,0.99,0.44,0.44,0.44
633,-0.87,-1.32,-0.89,-1.34,1.34,0.99,0.47,0.45,0.45
639,-0.91,-1.38,-0.90,-1.37,1.37,0.99,0.45,0.46,0.46
646,-0.91,-1.39,-0.91,-1.39,1.39,0.99,0.48,0.48,0.48
652,-0.91,-1.41,-0.92,-1.42,1.42,0.99,0.50,0.49,0.49
659,-0.91,-1.42,-0.93,-1.44,1.44,0.99,0.53,0.51,0.51
665,-0.95,-1.48,-0.94,-1.47,1.47,1.00,0.52,0.53,0.53
672,-0.96,-1.51,-0.95,-1.50,1.50,1.00,0.54,0.55,0.55
679,-0.96,-1.54,-0.95,-1.53,1.53,1.00,0.56,0.57,0.57
686,-0.96,-1.56,-0.96,-1.56,1.56,1.01,0.59,0.60,0.60
692,-0.96,-1.58,-0.96,-1.58,1.58,1.01,0.62,0.62,0.62
699,-0.96,-1.61,-0.97,-1.61,1.61,1.02,0.65,0.64,0.65
706,-0.96,-1.64,-0.97,-1.64,1.64,1.02,0.68,0.67,0.67
713,-0.96,-1.66,-0.97,-1.67,1.67,1.03,0.70,0.70,0.70
721,-0.96,-1.69,-0.97,-1.69,1.69,1.04,0.73,0.72,0.73
728,-0.96,-1.71,-0.97,-1.72,1.72,1.05,0.75,0.75,0.75
735,-0.96,-1.74,-0.96,-1.74,1.74,1.06,0.78,0.78,0.78
742,-0.96,-1.77,-0.96,-1.76,1.76,1.07,0.80,0.80,0.80
750,-0.96,-1.79,-0.95,-1.78,1.78,1.08,0.82,0.83,0.83
757,-0.96,-1.82,-0.95,-1.80,1.80,1.09,0.84,0.86,0.86
765,-0.96,-1.85,-0.94,-1.82,1.82,1.11,0.86,0.88,0.88
773,-0.91,-1.82,-0.93,-1.84,1.84,1.12,0.93,0.91,0.91
780,-0.91,-1.85,-0.92,-1.86,1.86,1.13,0.94,0.94,0.94
788,-0.91,-1.88,-0.91,-1.87,1.87,1.15,0.96,0.96,0.97
796,-0.87,-1.87,-0.89,-1.88,1.88,1.17,1.01,0.99,0.99
804,-0.87,-1.89,-0.87,-1.89,1.89,1.18,1.02,1.02,1.02
812,-0.85,-1.90,-0.85,-1.90,1.90,1.20,1.05,1.05,1.05
820,-0.83,-1.91,-0.83,-1.91,1.91,1.21,1.08,1.08,1.08
828,-0.82,-1.93,-0.81,-1.92,1.92,1.23,1.09,1.11,1.11
837,-0.78,-1.92,-0.79,-1.92,1.92,1.25,1.14,1.13,1.13
845,-0.76,-1.92,-0.76,-1.92,1.92,1.27,1.16,1.16,1.16
853,-0.74,-1.93,-0.74,-1.92,1.92,1.28,1.18,1.19,1.19
862,-0.70,-1.92,-0.71,-1.92,1.92,1.30,1.22,1.21,1.22
871,-0.66,-1.91,-0.67,-1.92,1.92,1.32,1.25,1.24,1.24
879,-0.64,-1.91,-0.64,-1.91,1.91,1.34,1.27,1.27,1.27
888,-0.61,-1.91,-0.60,-1.90,1.90,1.36,1.29,1.30,1.30
897,-0.56,-1.89,-0.56,-1.89,1.89,1.37,1.32,1.32,1.32
906,-0.53,-1.88,-0.52,-1.87,1.87,1.39,1.34,1.35,1.35
915,-0.47,-1.85,-0.48,-1.86,1.86,1.40,1.38,1.38,1.38
924,-0.43,-1.84,-0.44,-1.84,1.84,1.42,1.40,1.40,1.40
933,-0.38,-1.81,-0.39,-1.82,1.82,1.43,1.43,1.43,1.43
943,-0.34,-1.80,-0.34,-1.79,1.79,1.45,1.45,1.45,1.46
952,-0.29,-1.77,-0.29,-1.77,1.77,1.46,1.47,1.48,1.48
962,-0.23,-1.74,-0.23,-1.74,1.74,1.47,1.51,1.51,1.51
971,-0.18,-1.72,-0.18,-1.71,1.71,1.48,1.53,1.53,1.53
981,-0.12,-1.68,-0.12,-1.68,1.68,1.49,1.56,1.56,1.56
991,-0.06,-1.65,-0.06,-1.65,1.65,1.49,1.59,1.58,1.59
1001,0.01,-1.60,-0.00,-1.61,1.61,1.50,1.62,1.61,1.61
1011,0.06,-1.58,0.06,-1.58,1.58,1.51,1.64,1.64,1.64
1021,0.13,-1.54,0.12,-1.54,1.54,1.51,1.67,1.66,1.66
1031,0.18,-1.51,0.18,-1.51,1.51,1.51,1.68,1.69,1.69
1041,0.24,-1.48,0.25,-1.47,1.47,1.51,1.70,1.71,1.72
1052,0.31,-1.44,0.31,-1.43,1.43,1.51,1.73,1.74,1.74
1062,0.38,-1.39,0.38,-1.39,1.39,1.51,1.76,1.77,1.77
1073,0.46,-1.34,0.45,-1.35,1.35,1.51,1.80,1.80,1.80
1084,0.53,-1.30,0.52,-1.30,1.30,1.51,1.83,1.82,1.82
1094,0.58,-1.27,0.59,-1.26,1.26,1.50,1.84,1.85,1.85
1105,0.66,-1.22,0.66,-1.22,1.22,1.50,1.88,1.88,1.88
1116,0.73,-1.18,0.73,-1.18,1.18,1.49,1.90,1.90,1.91
1128,0.81,-1.13,0.80,-1.14,1.14,1.49,1.94,1.93,1.93
1139,0.87,-1.09,0.87,-1.09,1.09,1.48,1.96,1.96,1.96
1150,0.95,-1.04,0.94,-1.05,1.05,1.48,2.00,1.99,1.99
1162,1.00,-1.02,1.01,-1.02,1.02,1.47,2.01,2.02,2.02
1173,1.07,-0.98,1.07,-0.98,0.98,1.46,2.04,2.05,2.05
1185,1.15,-0.93,1.14,-0.94,0.94,1.46,2.09,2.08,2.08
1197,1.21,-0.91,1.21,-0.90,0.90,1.45,2.11,2.11,2.11
1209,1.27,-0.88,1.28,-0.87,0.87,1.45,2.14,2.15,2.15
1221,1.35,-0.83,1.34,-0.84,0.84,1.44,2.18,2.18,2.18
1233,1.42,-0.80,1.41,-0.80,0.80,1.44,2.22,2.21,2.22
1246,1.49,-0.77,1.48,-0.77,0.77,1.43,2.26,2.25,2.25
1258,1.55,-0.74,1.54,-0.74,0.74,1.43,2.29,2.28,2.29
1271,1.62,-0.71,1.61,-0.71,0.71,1.43,2.33,2.32,2.33
1283,1.67,-0.70,1.68,-0.68,0.68,1.43,2.35,2.36,2.36
1296,1.74,-0.66,1.74,-0.65,0.65,1.43,2.39,2.39,2.40
1309,1.80,-0.64,1.81,-0.63,0.63,1.43,2.43,2.43,2.44
1322,1.87,-0.61,1.87,-0.61,0.61,1.43,2.47,2.48,2.47
1335,1.94,-0.58,1.93,-0.58,0.58,1.43,2.52,2.52,2.51
1349,2.01,-0.55,2.00,-0.56,0.56,1.43,2.57,2.56,2.56
1362,2.06,-0.55,2.06,-0.55,0.55,1.43,2.60,2.61,2.60
1376,2.13,-0.53,2.13,-0.53,0.53,1.44,2.66,2.66,2.65
1390,2.19,-0.52,2.19,-0.52,0.52,1.45,2.71,2.71,2.71
1404,2.26,-0.51,2.26,-0.51,0.51,1.45,2.77,2.77,2.77
1418,2.32,-0.51,2.33,-0.50,0.50,1.46,2.82,2.83,2.83
1432,2.39,-0.51,2.39,-0.50,0.50,1.47,2.89,2.89,2.89
1446,2.44,-0.52,2.45,-0.50,0.50,1.48,2.94,2.96,2.96
1461,2.51,-0.52,2.52,-0.51,0.51,1.49,3.01,3.02,3.03
1475,2.58,-0.53,2.58,-0.52,0.52,1.50,3.09,3.10,3.10
1490,2.64,-0.54,2.64,-0.53,0.53,1.52,3.17,3.17,3.17
1505,2.71,-0.54,2.69,-0.55,0.55,1.53,3.26,3.24,3.25
1520,2.75,-0.57,2.74,-0.58,0.58,1.55,3.33,3.32,3.32
1535,2.79,-0.61,2.78,-0.62,0.62,1.56,3.41,3.40,3.39
1550,2.84,-0.63,2.81,-0.67,0.67,1.58,3.51,3.48,3.47
1566,2.86,-0.69,2.84,-0.72,0.72,1.60,3.58,3.56,3.55
1582,2.90,-0.74,2.86,-0.79,0.79,1.62,3.68,3.65,3.63
1597,2.90,-0.83,2.88,-0.85,0.85,1.64,3.75,3.74,3.72
1613,2.90,-0.92,2.90,-0.93,0.93,1.66,3.83,3.83,3.81
1629,2.90,-1.02,2.91,-1.01,1.01,1.69,3.90,3.92,3.91
1646,2.90,-1.12,2.93,-1.09,1.09,1.71,3.99,4.02,4.02
1662,2.94,-1.19,2.94,-1.18,1.18,1.73,4.11,4.12,4.12
1679,2.94,-1.30,2.96,-1.26,1.26,1.76,4.20,4.23,4.23
1696,2.98,-1.37,2.99,-1.35,1.35,1.78,4.32,4.33,4.35
1713,3.01,-1.46,3.02,-1.43,1.43,1.81,4.44,4.45,4.47
1730,3.04,-1.55,3.05,-1.51,1.51,1.84,4.55,4.56,4.59
1747,3.09,-1.63,3.09,-1.59,1.59,1.86,4.67,4.67,4.71
1764,3.14,-1.70,3.13,-1.66,1.66,1.89,4.80,4.79,4.84
1782,3.18,-1.78,3.18,-1.73,1.73,1.92,4.91,4.91,4.96
1800,3.23,-1.85,3.23,-1.80,1.80,1.94,5.02,5.02,5.07
1818,3.29,-1.90,3.28,-1.86,1.86,1.97,5.15,5.14,5.19
1836,3.35,-1.95,3.33,-1.92,1.92,2.00,5.27,5.25,5.30
1854,3.40,-2.01,3.39,-1.98,1.98,2.02,5.37,5.37,5.41
1873,3.44,-2.08,3.44,-2.03,2.03,2.05,5.47,5.48,5.52
1892,3.49,-2.14,3.50,-2.09,2.09,2.08,5.57,5.59,5.63
1911,3.56,-2.17,3.55,-2.14,2.14,2.10,5.70,5.70,5.73
1930,3.61,-2.23,3.61,-2.19,2.19,2.13,5.80,5.80,5.83
1949,3.66,-2.28,3.66,-2.25,2.25,2.15,5.90,5.91,5.93
1969,3.72,-2.32,3.71,-2.30,2.30,2.18,6.01,6.01,6.03
1988,3.78,-2.36,3.76,-2.35,2.35,2.20,6.13,6.11,6.13
2008,3.83,-2.41,3.82,-2.40,2.40,2.22,6.23,6.22,6.23
2028,3.87,-2.46,3.87,-2.45,2.45,2.24,6.32,6.32,6.33
2048,3.92,-2.51,3.92,-2.50,2.50,2.27,6.42,6.42,6.43
2069,3.96,-2.57,3.96,-2.55,2.55,2.29,6.51,6.52,6.52
2090,4.01,-2.61,4.01,-2.60,2.60,2.31,6.61,6.61,6.62
