frequency,raw
20,-9.551207181311169
21,-8.845286385446899
22,-8.253353993449922
23,-7.99817838285799
24,-7.326295104061676
25,-6.530458932905634
26,-6.144763457612973
27,-5.669897451055447
28,-5.173529156041402
29,-4.5964124280240855
30,-4.318408652705106
31,-3.8158278488789166
32,-3.379878056303031
33,-3.0571556799770425
34,-2.6415756237314
35,-2.507470427158489
36,-1.9641643245868068
37,-1.4668769084410078
38,-1.1271136552816579
39,-0.8057734550086036
40,-0.4950903317947718
41,-0.19459434470868786
42,0.31869104074387844
43,0.6155064671064426
44,0.6706904923868279
45,1.1032496010245172
46,1.365396243708917
47,1.6284154960800357
48,1.9330081631653688
49,2.1350817932523007
50,2.3134095988856624
51,2.7602018616380644
52,3.024138769579113
53,3.202773455159542
54,3.3480211459848954
55,3.647664003990859
56,3.7784491012765073
57,3.9282168801252606
58,4.076571548391204
59,4.22677690059925
60,4.490407201249043
61,4.504675966469601
62,4.553212825261635
63,4.6838133123613765
64,4.733909041196582
65,4.834483447456176
66,4.834482842810678
67,4.834481957959397
68,4.9249342830408
69,4.935055125244307
70,4.8673977213542985
71,4.7811978859939686
72,4.646622624732239
73,4.532773730473372
74,4.53278487092333
75,4.454998467847338
76,4.432226597036769
77,4.432219766844363
78,4.432191996251899
79,4.482422776068739
80,4.532620679333632
81,4.697111338085843
82,4.846286757639214
83,4.984843149732359
84,4.721681130130834
85,4.58290935769646
86,4.619812601891493
87,4.781891996517564
88,4.949734535267502
89,5.038027432182246
90,5.061259259560006
91,5.242103077805229
92,5.2434719821102025
93,5.244360286890903
94,5.344921888656362
95,5.44410354085338
96,5.440832679293221
97,5.43521434562868
98,5.426858450039134
99,5.415503574030899
100,5.401057468884407
101,5.358563944146805
102,5.262935279039015
104,5.135083808078171
105,5.0192035564828315
106,4.940891091308921
107,4.78875085798332
108,4.641709933850642
109,4.565638763453138
110,4.458744215950135
111,4.327394182482098
112,4.2428807050215385
113,4.112241879983788
114,4.022159121822806
115,3.9531321050728705
117,3.8718282748997237
118,3.7933944019035595
119,3.7617971162430277
120,3.7684755427631247
121,3.775940426783764
123,3.783732323947479
124,3.791493786926548
125,3.7989784099712387
126,3.806043972191859
128,3.720583324223371
129,3.7181673748661233
130,3.7238217833155183
131,3.729043574889375
133,3.7338355215173586
134,3.7381727964768987
135,3.690779479655301
137,3.602826667916269
138,3.5467702205335803
140,3.548760309327302
141,3.550099408686585
142,3.481267026201266
144,3.450501644908934
145,3.3807589122577566
147,3.2488985177405225
148,3.248537804173558
150,3.129700319963307
151,3.047133035420017
153,2.948419818265223
154,2.8862647934039622
156,2.74689981320655
157,2.6563765500156555
159,2.5302595977783855
160,2.469739232212457
162,2.399429454943193
164,2.329461179105111
165,2.26749404594288
167,2.233382602739327
169,2.227477312260368
170,2.2208011423647758
172,2.2139049055962694
174,2.1783719860298483
175,2.1180737065044832
177,2.098638932979031
179,2.098228800579304
181,1.9940886806840985
183,1.9448018265464022
184,1.9154783820462984
186,1.927811969961037
188,1.922890310159298
190,1.7866227298330881
192,1.7229403571527866
194,1.6882417435286035
196,1.6339629256400654
198,1.6138835478716194
200,1.6234679681985462
202,1.630413128194186
204,1.5723940945243737
206,1.516127347368623
208,1.5440394355478864
210,1.553392876623173
212,1.508479509060951
214,1.369015542629782
216,1.2756760000544516
218,1.2192325991573083
221,1.0483912947871628
223,0.9593591026682777
225,0.9109979150641481
227,0.8618629651380119
229,0.815257996984494
232,0.8218896984214665
234,0.8317242005434318
236,0.8447822677051773
239,0.8924197499661309
241,0.9798172305341238
244,1.1004230754042101
246,1.1210255963729754
248,1.1410714444422607
251,1.15944623982409
253,1.1751733239406759
256,1.1875257737074736
259,1.1961108500309903
261,1.2009152294715064
264,1.1846707919428359
266,1.1107236897609423
269,1.0500052152454689
272,0.9929716951184612
274,0.9896242002440995
277,0.9876857176089785
280,0.9879280656624498
283,0.9908312877383704
286,0.9965461108439002
288,0.9546052056272721
291,0.9148503375641426
294,0.8290467659954176
297,0.8390546226685658
300,0.8517006380356189
303,0.8635021114815278
306,0.8738564732710821
309,0.8085631300217638
312,0.7723039098338783
316,0.691967425796505
319,0.6943848271495335
322,0.6951533931671285
325,0.694625726604268
328,0.6486599993197508
332,0.5906498684660252
335,0.588528266905457
338,0.5230133743425697
342,0.48454323791168363
345,0.37777748793430577
349,0.28293479548269673
352,0.19404373257799545
356,0.08591703950809237
359,0.0899633259388728
363,0.09530088535556203
366,0.10177779443323576
370,0.10913101281834392
374,0.06678878637124919
377,0.024337519874509606
381,0.03180871130426266
385,0.03831874975003813
389,0.04339945968258574
393,-0.05191042019782455
397,-0.15315312364150258
401,-0.15378360113400324
405,-0.1560173332194731
409,-0.15919120173335866
413,-0.26071338341099126
417,-0.26461916459979307
421,-0.26344329520108656
425,-0.2576962741797988
430,-0.33111570821946545
434,-0.35048494489849624
438,-0.3996115550013303
443,-0.44791181821620196
447,-0.43829327305789323
451,-0.3693174967392835
456,-0.3085315473780561
460,-0.2474057037961387
465,-0.23402435140056765
470,-0.2654384360854315
474,-0.186369566057473
479,-0.11543013277341335
484,-0.06871783957748528
489,-0.18899057258849433
494,-0.15431309061175452
499,-0.06497545608016558
504,-0.04144595711460644
509,-0.023435825184250747
514,-0.011398406804645989
519,-0.006172505384993615
524,-0.0088308252965284
529,-0.02041391018257993
535,-0.041604290974692815
540,-0.07241406640625213
545,-0.11196160311496889
551,-0.13276935236596143
556,-0.027978859649333332
562,-0.07948127296969604
568,-0.3103476585921153
573,-0.4531434943591707
579,-0.5567055600049393
585,-0.7327009586819322
591,-0.9430726098867659
596,-0.8177109777657287
602,-0.6958677291258617
608,-0.8281463306195607
615,-0.9489891751127559
621,-1.0591940810137757
627,-1.19281888357229
633,-1.281338667261629
639,-1.223326403631184
646,-1.1598836559050134
652,-1.0995133421040746
659,-0.969002939818504
665,-0.9183673578273164
672,-0.8665786246028029
679,-0.7604969930422942
686,-0.6666040418670272
692,-0.5450393611259507
699,-0.5044261186612047
706,-0.4886745539972708
713,-0.4851729555900566
721,-0.4931523855978659
728,-0.43810300938800273
735,-0.4346930619258945
742,-0.463007476615807
750,-0.4919552237825333
757,-0.51873553908116
765,-0.5412082254037638
773,-0.5117467395940172
780,-0.46833899202666823
788,-0.47354560234155035
796,-0.4206749623037027
804,-0.37095543819775134
812,-0.36671223960685334
820,-0.36231472927959835
828,-0.3589844250417292
837,-0.35756956335720547
845,-0.3101157408824479
853,-0.26124102528460735
862,-0.1774539007718211
871,-0.17303027324286618
879,-0.18090220642958568
888,-0.18900414825035977
897,-0.19670593431985606
906,-0.2034749541360773
915,-0.2088950994096304
924,-0.21266039611538654
933,-0.21455091884574468
943,-0.1179783272627459
952,-0.11148719624602063
962,-0.10681023589269603
971,-0.09962169253350167
981,-0.08972249219143798
991,-0.07689129491090375
1001,0.008500723981451075
1011,0.060655540895974774
1021,0.08210754321400626
1031,0.10897711635011195
1041,0.13988385365622738
1052,0.17500702754108358
1062,0.2145129578086413
1073,0.2585596441308441
1084,0.3073020573258275
1094,0.36089777987666927
1105,0.5200875347882582
1116,0.5839019038543297
1128,0.6531139099122368
1139,0.723277545817873
1150,0.7114713350379899
1162,0.7948082442423406
1173,0.8878844021428147
1185,0.8699225474932996
1197,0.8924768075541392
1209,0.9295566204726993
1221,1.0040560911112473
1233,1.048791474299631
1246,1.115950765946675
1258,1.2103923687955083
1271,1.2561080779290499
1283,1.3568590123926985
1296,1.447777687896592
1309,1.511477598437129
1322,1.6515063430982404
1335,1.7999123258512402
1349,1.8538305100946064
1362,1.9009729528661872
1376,2.0497104440503593
1390,2.1352624531754336
1404,2.237093633137415
1418,2.4747900709434063
1432,2.6059319823279847
1446,2.7301385731281558
1461,2.84663892372416
1475,2.9524580274638277
1490,3.1547744870748335
1505,3.3477229259854164
1520,3.4821178906233463
1535,3.669462101768479
1550,3.882670748462014
1566,4.001025661959952
1582,4.163271557610003
1597,4.455810678159742
1613,4.609371585319896
1629,4.811933966939188
1646,4.9481032445377595
1662,5.12793933035306
1679,5.325958071513901
1696,5.496357430445487
1713,5.779721518230216
1730,5.95174083745227
1747,6.180473984401595
1764,6.367343066074167
1782,6.615106346989276
1800,6.868103477559872
1818,7.126224027351867
1836,7.361394039742458
1854,7.589785443957263
1873,7.780282081088561
1892,7.956769252385271
1911,8.178678935594242
1930,8.360954511042591
1949,8.542331764021094
1969,8.67329486565152
1988,8.800802367988386
2008,8.924544025688984
2028,9.051097625677814
2048,9.198479523024137
2069,9.374487193450504
2090,9.603209960811078
2111,9.778084490209507
2132,9.922028362055997
2153,10.074776461061482
2175,10.23772647666219
2196,10.41188418129759
2218,10.485407042106363
2240,10.44226244135131
2263,10.404989543583223
2285,10.51981609193976
2308,10.74810235195757
2331,10.983527382506185
2355,11.17370344897282
2378,11.369348698454042
2402,11.472641444467333
2426,11.611768675301867
2450,11.704011149830556
2475,11.766881037202243
2500,12.014808300118254
2525,12.134586844631958
2550,12.24703425795118
2575,12.340115410076145
2601,12.393463838275407
2627,12.428119642948776
2653,12.471675675025864
2680,12.517826811554762
2707,12.52739426479693
2734,12.591846344547372
2761,12.665509300502238
2789,12.714048525837772
2817,12.709726495074603
2845,12.825504598321395
2873,12.954090300489481
2902,13.042184711947474
2931,13.072515569383302
2960,13.093427107320759
2990,13.131980482878511
3020,13.245997608142556
3050,13.324305947110947
3080,13.340426423149252
3111,13.41061451367038
3142,13.451604448255516
3174,13.393582198561202
3206,13.374880491909588
3238,13.347749371452664
3270,13.309502315538372
3303,13.225159889937025
3336,13.084169909036738
3369,13.07482875631582
3403,13.004187258021751
3437,12.852166950301521
3471,12.630521747904911
3506,12.494600861245466
3541,12.409085406293428
3576,12.26875905525269
3612,11.92940761073678
3648,11.773781522712458
3685,11.514979919497208
3721,11.038282989248883
3759,10.756658082619797
3796,10.45575036892221
3834,10.121224904619353
3873,9.853286767184152
3911,9.676748284012422
3950,9.51135980622124
3990,9.337913613095616
4030,9.014253767861963
4070,8.714823397915488
4111,8.563327225234836
4152,8.238005761749282
4193,7.8855453536337965
4235,7.642205875165392
4278,7.299482304241854
4321,7.045153675040145
4364,6.702863389382347
4407,6.315161446534028
4451,6.166405468481693
4496,5.934926053410652
4541,5.630176795744306
4586,5.454029041204984
4632,5.4012267904970335
4679,5.2522642798989425
4725,5.140826993713069
4773,4.963227986547502
4820,5.140503679938516
4868,5.217648508711066
4917,5.040180177894794
4966,4.4524977244037505
5016,3.980899932895099
5066,4.106922148406248
5117,4.635830464339056
5168,5.4283586921456335
5220,6.445487857439205
5272,7.506733344588061
5325,9.463544369468075
5378,11.67283279743304
5432,13.290518030808059
5486,15.275435497988324
5541,16.45325835269429
5596,16.73238444607015
5652,16.04240211235776
5709,15.321162640259901
5766,14.317251091008409
5823,13.69717787032663
5882,12.911928781165003
5940,12.361044287909547
6000,11.756666362035231
6060,11.238881470806005
6120,10.562497451496986
6182,10.047283377105122
6244,9.64634161915263
6306,9.083527907771241
6369,8.67900749631197
6433,8.211832840741085
6497,7.836298469554128
6562,7.460880044371795
6628,7.1993806127785405
6694,6.941230105924403
6761,6.8345812545752995
6828,6.6196613943831695
6897,6.419839159109499
6966,6.252039326203025
7035,6.40036059052973
7106,6.352645240913483
7177,6.591530712498901
7249,6.857041369042523
7321,7.037528012588651
7394,7.034271941269445
7468,7.813465635225834
7543,8.208011242816411
7618,8.405640346993087
7694,8.848093058168743
7771,9.103393450164944
7849,9.090167709821
7928,9.27479245403021
8007,9.496071604042328
8087,9.49846091696624
8168,9.515879159305854
8250,9.599792241641012
8332,10.07957166114605
8415,10.650827365297479
8499,11.077935294521065
8584,11.683670697397893
8670,11.915143529340675
8757,12.180000192602478
8845,12.786060043625437
8933,12.746492457416826
9022,12.656076093836251
9113,13.25069557340482
9204,13.420489286823535
9296,13.157128915228668
9389,12.333062672299086
9483,11.629926764677792
9577,10.785283761670893
9673,9.908066690940338
9770,8.981472925479068
9868,8.243106915624217
9966,7.758090271554683
10066,7.263365755047991
10167,6.970953676074091
10268,6.753187702289288
10371,6.412835503951676
10475,6.465827965520526
10579,6.352488353989751
10685,6.305278496211361
10792,6.1279085152367205
10900,6.0503894862216505
11009,5.739325634842147
11119,5.462971014614558
11230,5.312170994307861
11343,5.393448863593167
11456,5.268541382544708
11571,5.3537376753553625
11686,5.759821232314275
11803,6.176288871363616
11921,6.32159173685845
12040,5.934895238236504
12161,5.45554409421804
12282,4.817872259010074
12405,4.0479027093964115
12529,3.290777979744428
12655,2.192323312264758
12781,1.1374680568873607
12909,0.3603695214382654
13038,0.24286341620210372
13168,-0.6584863382890447
13300,-0.9338638869272033
13433,-0.42364112034524215
13567,-0.8079269231391084
13703,-0.9415097688665472
13840,-0.7899459722489253
13978,0.45134971524981626
14118,0.9059182729625643
14259,1.247124237389683
14402,1.2514389263250298
14546,1.044360727673951
14692,0.6067951427492382
14838,0.45445143202262583
14987,0.7023607851318561
15137,0.969704105690214
15288,1.2876975359944058
15441,1.4293076185155744
15595,1.02432824083108
15751,0.20228698679743395
15909,-0.13979077758590375
16068,0.49250490014015824
16229,0.41811170656388175
16391,-0.7741499135973573
16555,-1.8757030620733008
16720,-0.5928630513825706
16888,0.8549169310905738
17056,0.9859881568479096
17227,-0.44337670507449367
17399,-1.1675238320045844
17573,-1.8870900532490253
17749,-3.1510558521649132
17926,-4.410210200223136
18106,-5.393316087080946
18287,-6.178820416644351
18470,-6.046617789478015
18654,-5.222950708002781
18841,-3.8448637826844294
19029,-2.401472943830276
19220,-2.8171939942840982
19412,-4.125720793798033
19606,-5.260566660155954
19802,-6.244981649993109
20000,-6.186400693920991
