frequency,raw
20.00,-8.75
20.20,-8.57
20.40,-8.39
20.61,-8.21
20.81,-8.03
21.02,-7.86
21.23,-7.68
21.44,-7.52
21.66,-7.35
21.87,-7.18
22.09,-7.02
22.31,-6.85
22.54,-6.68
22.76,-6.51
22.99,-6.34
23.22,-6.17
23.45,-5.99
23.69,-5.82
23.92,-5.64
24.16,-5.47
24.40,-5.29
24.65,-5.11
24.89,-4.94
25.14,-4.76
25.39,-4.58
25.65,-4.41
25.91,-4.23
26.16,-4.06
26.43,-3.88
26.69,-3.70
26.96,-3.53
27.23,-3.35
27.50,-3.17
27.77,-2.99
28.05,-2.82
28.33,-2.64
28.62,-2.46
28.90,-2.29
29.19,-2.11
29.48,-1.93
29.78,-1.75
30.08,-1.57
30.38,-1.40
30.68,-1.22
30.99,-1.04
31.30,-0.86
31.61,-0.68
31.93,-0.51
32.24,-0.33
32.57,-0.15
32.89,0.03
33.22,0.20
33.55,0.38
33.89,0.56
34.23,0.74
34.57,0.92
34.92,1.09
35.27,1.27
35.62,1.44
35.97,1.62
36.33,1.79
36.70,1.97
37.06,2.14
37.43,2.31
37.81,2.48
38.19,2.66
38.57,2.83
38.95,3.00
39.34,3.17
39.74,3.34
40.14,3.51
40.54,3.68
40.94,3.84
41.35,4.01
41.76,4.18
42.18,4.34
42.60,4.51
43.03,4.67
43.46,4.83
43.90,5.00
44.33,5.16
44.78,5.31
45.23,5.47
45.68,5.63
46.13,5.78
46.60,5.94
47.06,6.09
47.53,6.24
48.01,6.39
48.49,6.54
48.97,6.69
49.46,6.83
49.96,6.98
50.46,7.12
50.96,7.26
51.47,7.40
51.99,7.54
52.51,7.68
53.03,7.81
53.56,7.95
54.10,8.08
54.64,8.20
55.18,8.33
55.74,8.45
56.29,8.57
56.86,8.69
57.42,8.81
58.00,8.93
58.58,9.04
59.16,9.15
59.76,9.26
60.35,9.37
60.96,9.47
61.57,9.57
62.18,9.67
62.80,9.76
63.43,9.85
64.07,9.94
64.71,10.03
65.35,10.12
66.01,10.20
66.67,10.28
67.33,10.35
68.01,10.42
68.69,10.49
69.37,10.56
70.07,10.62
70.77,10.68
71.48,10.74
72.19,10.79
72.91,10.84
73.64,10.89
74.38,10.93
75.12,10.97
75.87,11.01
76.63,11.04
77.40,11.07
78.17,11.09
78.95,11.12
79.74,11.14
80.54,11.15
81.35,11.16
82.16,11.17
82.98,11.17
83.81,11.18
84.65,11.17
85.50,11.17
86.35,11.16
87.22,11.15
88.09,11.13
88.97,11.11
89.86,11.08
90.76,11.06
91.66,11.02
92.58,10.99
93.51,10.95
94.44,10.91
95.39,10.87
96.34,10.82
97.30,10.77
98.28,10.72
99.26,10.67
100.25,10.61
101.25,10.55
102.27,10.49
103.29,10.42
104.32,10.35
105.37,10.28
106.42,10.21
107.48,10.13
108.56,10.05
109.64,9.97
110.74,9.89
111.85,9.80
112.97,9.71
114.10,9.62
115.24,9.53
116.39,9.44
117.55,9.34
118.73,9.24
119.92,9.14
121.12,9.04
122.33,8.93
123.55,8.83
124.79,8.72
126.03,8.61
127.29,8.50
128.57,8.39
129.85,8.28
131.15,8.17
132.46,8.05
133.79,7.94
135.12,7.83
136.48,7.72
137.84,7.61
139.22,7.50
140.61,7.39
142.02,7.29
143.44,7.18
144.87,7.07
146.32,6.97
147.78,6.87
149.26,6.77
150.75,6.67
152.26,6.57
153.78,6.48
155.32,6.39
156.88,6.30
158.44,6.21
160.03,6.13
161.63,6.05
163.24,5.97
164.88,5.90
166.53,5.83
168.19,5.77
169.87,5.70
171.57,5.64
173.29,5.59
175.02,5.53
176.77,5.48
178.54,5.44
180.32,5.39
182.13,5.35
183.95,5.31
185.79,5.28
187.65,5.24
189.52,5.21
191.42,5.18
193.33,5.15
195.27,5.13
197.22,5.11
199.19,5.09
201.18,5.07
203.19,5.05
205.23,5.03
207.28,5.01
209.35,5.00
211.44,4.98
213.56,4.97
215.69,4.96
217.85,4.94
220.03,4.93
222.23,4.92
224.45,4.91
226.70,4.90
228.96,4.88
231.25,4.87
233.57,4.85
235.90,4.84
238.26,4.82
240.64,4.80
243.05,4.78
245.48,4.76
247.93,4.73
250.41,4.71
252.92,4.68
255.45,4.65
258.00,4.62
260.58,4.58
263.19,4.55
265.82,4.51
268.48,4.47
271.16,4.43
273.87,4.39
276.61,4.35
279.38,4.30
282.17,4.26
284.99,4.21
287.84,4.16
290.72,4.11
293.63,4.06
296.57,4.01
299.53,3.96
302.53,3.90
305.55,3.85
308.61,3.79
311.69,3.74
314.81,3.68
317.96,3.62
321.14,3.56
324.35,3.50
327.59,3.44
330.87,3.38
334.18,3.31
337.52,3.25
340.90,3.18
344.30,3.11
347.75,3.04
351.23,2.97
354.74,2.90
358.28,2.84
361.87,2.77
365.49,2.70
369.14,2.64
372.83,2.57
376.56,2.51
380.33,2.45
384.13,2.39
387.97,2.33
391.85,2.26
395.77,2.20
399.73,2.14
403.72,2.07
407.76,2.01
411.84,1.94
415.96,1.88
420.12,1.81
424.32,1.75
428.56,1.68
432.85,1.62
437.18,1.55
441.55,1.49
445.96,1.43
450.42,1.37
454.93,1.31
459.48,1.25
464.07,1.20
468.71,1.14
473.40,1.08
478.13,1.03
482.91,0.97
487.74,0.91
492.62,0.86
497.55,0.81
502.52,0.76
507.55,0.71
512.62,0.66
517.75,0.61
522.93,0.56
528.16,0.51
533.44,0.47
538.77,0.43
544.16,0.39
549.60,0.35
555.10,0.32
560.65,0.29
566.25,0.26
571.92,0.24
577.64,0.22
583.41,0.19
589.25,0.17
595.14,0.15
601.09,0.13
607.10,0.12
613.17,0.10
619.30,0.09
625.50,0.07
631.75,0.06
638.07,0.05
644.45,0.04
650.89,0.04
657.40,0.03
663.98,0.02
670.62,0.02
677.32,0.02
684.10,0.02
690.94,0.02
697.85,0.02
704.83,0.02
711.87,0.03
718.99,0.03
726.18,0.04
733.44,0.04
740.78,0.05
748.19,0.05
755.67,0.05
763.23,0.06
770.86,0.06
778.57,0.06
786.35,0.05
794.22,0.05
802.16,0.04
810.18,0.03
818.28,0.02
826.46,0.01
834.73,-0.01
843.08,-0.02
851.51,-0.04
860.02,-0.05
868.62,-0.07
877.31,-0.08
886.08,-0.09
894.94,-0.10
903.89,-0.11
912.93,-0.11
922.06,-0.12
931.28,-0.11
940.59,-0.11
950.00,-0.10
959.50,-0.09
969.09,-0.07
978.78,-0.06
988.57,-0.03
998.46,-0.01
1008.44,0.03
1018.53,0.07
1028.71,0.11
1039.00,0.17
1049.39,0.22
1059.88,0.29
1070.48,0.36
1081.19,0.43
1092.00,0.51
1102.92,0.59
1113.95,0.68
1125.09,0.77
1136.34,0.86
1147.70,0.96
1159.18,1.06
1170.77,1.16
1182.48,1.26
1194.30,1.37
1206.25,1.47
1218.31,1.58
1230.49,1.69
1242.80,1.80
1255.22,1.91
1267.78,2.02
1280.45,2.13
1293.26,2.25
1306.19,2.36
1319.25,2.47
1332.45,2.58
1345.77,2.69
1359.23,2.80
1372.82,2.91
1386.55,3.01
1400.41,3.12
1414.42,3.23
1428.56,3.34
1442.85,3.44
1457.28,3.55
1471.85,3.66
1486.57,3.77
1501.43,3.87
1516.45,3.98
1531.61,4.09
1546.93,4.19
1562.40,4.30
1578.02,4.41
1593.80,4.51
1609.74,4.62
1625.84,4.72
1642.10,4.83
1658.52,4.93
1675.10,5.03
1691.85,5.13
1708.77,5.23
1725.86,5.32
1743.12,5.41
1760.55,5.49
1778.15,5.58
1795.94,5.65
1813.90,5.73
1832.03,5.79
1850.36,5.86
1868.86,5.92
1887.55,5.97
1906.42,6.02
1925.49,6.07
1944.74,6.11
1964.19,6.14
1983.83,6.16
2003.67,6.18
2023.71,6.19
2043.94,6.19
2064.38,6.19
2085.03,6.18
2105.88,6.16
2126.94,6.13
2148.20,6.11
2169.69,6.08
2191.38,6.06
2213.30,6.03
2235.43,6.01
2257.78,5.99
2280.36,5.97
2303.17,5.96
2326.20,5.95
2349.46,5.96
2372.95,5.97
2396.68,5.99
2420.65,6.02
2444.86,6.06
2469.31,6.13
2494.00,6.20
2518.94,6.29
2544.13,6.40
2569.57,6.53
2595.27,6.67
2621.22,6.84
2647.43,7.03
2673.90,7.23
2700.64,7.46
2727.65,7.70
2754.93,7.95
2782.48,8.23
2810.30,8.52
2838.40,8.82
2866.79,9.16
2895.46,9.51
2924.41,9.87
2953.65,10.25
2983.19,10.62
3013.02,11.00
3043.15,11.37
3073.58,11.73
3104.32,12.07
3135.36,12.40
3166.72,12.72
3198.38,13.02
3230.37,13.30
3262.67,13.56
3295.30,13.80
3328.25,14.02
3361.53,14.21
3395.15,14.38
3429.10,14.53
3463.39,14.66
3498.03,14.76
3533.01,14.85
3568.34,14.92
3604.02,14.96
3640.06,15.00
3676.46,15.03
3713.22,15.04
3750.36,15.06
3787.86,15.07
3825.74,15.08
3864.00,15.10
3902.64,15.12
3941.66,15.14
3981.08,15.18
4020.89,15.22
4061.10,15.27
4101.71,15.33
4142.73,15.41
4184.15,15.49
4226.00,15.59
4268.26,15.71
4310.94,15.83
4354.05,15.98
4397.59,16.14
4441.56,16.30
4485.98,16.48
4530.84,16.67
4576.15,16.87
4621.91,17.08
4668.13,17.30
4714.81,17.52
4761.96,17.74
4809.58,17.95
4857.67,18.15
4906.25,18.35
4955.31,18.52
5004.87,18.67
5054.91,18.81
5105.46,18.90
5156.52,18.96
5208.08,18.98
5260.16,18.95
5312.77,18.87
5365.89,18.75
5419.55,18.59
5473.75,18.39
5528.49,18.16
5583.77,17.90
5639.61,17.61
5696.00,17.30
5752.96,16.98
5810.49,16.65
5868.60,16.31
5927.28,15.98
5986.56,15.64
6046.42,15.31
6106.89,14.99
6167.96,14.67
6229.64,14.37
6291.93,14.07
6354.85,13.79
6418.40,13.53
6482.58,13.28
6547.41,13.04
6612.88,12.83
6679.01,12.63
6745.80,12.44
6813.26,12.28
6881.39,12.13
6950.21,12.00
7019.71,11.88
7089.91,11.78
7160.81,11.69
7232.41,11.63
7304.74,11.58
7377.79,11.54
7451.56,11.52
7526.08,11.52
7601.34,11.53
7677.35,11.55
7754.13,11.59
7831.67,11.64
7909.98,11.71
7989.08,11.80
8068.98,11.91
8149.67,12.03
8231.16,12.18
8313.47,12.35
8396.61,12.53
8480.57,12.73
8565.38,12.95
8651.03,13.17
8737.54,13.40
8824.92,13.61
8913.17,13.80
9002.30,13.96
9092.32,14.05
9183.25,14.07
9275.08,14.03
9367.83,13.89
9461.51,13.67
9556.12,13.40
9651.68,13.07
9748.20,12.69
9845.68,12.30
9944.14,11.90
10043.58,11.50
10144.02,11.11
10245.46,10.74
10347.91,10.38
10451.39,10.04
10555.91,9.71
10661.46,9.41
10768.08,9.12
10875.76,8.86
10984.52,8.64
11094.36,8.46
11205.31,8.31
11317.36,8.20
11430.53,8.14
11544.84,8.11
11660.29,8.09
11776.89,8.11
11894.66,8.12
12013.60,8.14
12133.74,8.16
12255.08,8.18
12377.63,8.18
12501.41,8.16
12626.42,8.09
12752.68,7.96
12880.21,7.73
13009.01,7.33
13139.10,6.81
13270.49,6.15
13403.20,5.29
13537.23,4.37
13672.60,3.39
13809.33,2.41
13947.42,1.47
14086.90,0.60
14227.77,-0.16
14370.04,-0.82
14513.74,-1.40
14658.88,-1.85
14805.47,-2.19
14953.52,-2.45
15103.06,-2.60
15254.09,-2.61
15406.63,-2.56
15560.70,-2.45
15716.30,-2.26
15873.47,-2.03
16032.20,-1.78
16192.52,-1.46
16354.45,-1.11
16517.99,-0.74
16683.17,-0.37
16850.01,-0.08
17018.51,0.12
17188.69,0.14
17360.58,-0.13
17534.18,-0.60
17709.53,-1.34
17886.62,-2.37
18065.49,-3.54
18246.14,-4.83
18428.60,-6.22
18612.89,-7.62
18799.02,-9.01
18987.01,-10.32
19176.88,-11.50
19368.65,-12.55
19562.33,-13.33
19757.96,-13.84
19955.54,-14.19
