frequency,raw
20.00,-5.15
20.20,-5.07
20.40,-5.00
20.61,-4.91
20.81,-4.81
21.02,-4.72
21.23,-4.62
21.44,-4.53
21.66,-4.43
21.87,-4.34
22.09,-4.23
22.31,-4.13
22.54,-4.02
22.76,-3.90
22.99,-3.78
23.22,-3.67
23.45,-3.55
23.69,-3.46
23.92,-3.36
24.16,-3.26
24.40,-3.18
24.65,-3.10
24.89,-3.00
25.14,-2.91
25.39,-2.81
25.65,-2.71
25.91,-2.61
26.16,-2.51
26.43,-2.41
26.69,-2.32
26.96,-2.22
27.23,-2.13
27.50,-2.05
27.77,-1.95
28.05,-1.84
28.33,-1.75
28.62,-1.64
28.90,-1.55
29.19,-1.46
29.48,-1.36
29.78,-1.27
30.08,-1.18
30.38,-1.10
30.68,-1.00
30.99,-0.90
31.30,-0.81
31.61,-0.70
31.93,-0.60
32.24,-0.50
32.57,-0.39
32.89,-0.29
33.22,-0.19
33.55,-0.10
33.89,-0.00
34.23,0.09
34.57,0.19
34.92,0.28
35.27,0.37
35.62,0.47
35.97,0.56
36.33,0.65
36.70,0.74
37.06,0.84
37.43,0.93
37.81,1.02
38.19,1.12
38.57,1.21
38.95,1.30
39.34,1.40
39.74,1.49
40.14,1.59
40.54,1.68
40.94,1.78
41.35,1.87
41.76,1.97
42.18,2.05
42.60,2.13
43.03,2.21
43.46,2.29
43.90,2.37
44.33,2.45
44.78,2.53
45.23,2.62
45.68,2.71
46.13,2.81
46.60,2.90
47.06,3.00
47.53,3.09
48.01,3.18
48.49,3.27
48.97,3.36
49.46,3.45
49.96,3.53
50.46,3.62
50.96,3.70
51.47,3.77
51.99,3.85
52.51,3.92
53.03,4.00
53.56,4.07
54.10,4.16
54.64,4.23
55.18,4.31
55.74,4.40
56.29,4.49
56.86,4.58
57.42,4.68
58.00,4.77
58.58,4.86
59.16,4.95
59.76,5.03
60.35,5.10
60.96,5.16
61.57,5.23
62.18,5.28
62.80,5.34
63.43,5.38
64.07,5.41
64.71,5.46
65.35,5.51
66.01,5.57
66.67,5.63
67.33,5.69
68.01,5.74
68.69,5.81
69.37,5.87
70.07,5.93
70.77,5.99
71.48,6.05
72.19,6.09
72.91,6.15
73.64,6.20
74.38,6.25
75.12,6.31
75.87,6.36
76.63,6.41
77.40,6.45
78.17,6.50
78.95,6.55
79.74,6.60
80.54,6.65
81.35,6.70
82.16,6.75
82.98,6.80
83.81,6.85
84.65,6.89
85.50,6.94
86.35,6.98
87.22,7.01
88.09,7.05
88.97,7.08
89.86,7.11
90.76,7.14
91.66,7.17
92.58,7.20
93.51,7.23
94.44,7.26
95.39,7.29
96.34,7.32
97.30,7.34
98.28,7.37
99.26,7.40
100.25,7.42
101.25,7.44
102.27,7.47
103.29,7.49
104.32,7.51
105.37,7.53
106.42,7.54
107.48,7.56
108.56,7.58
109.64,7.59
110.74,7.60
111.85,7.61
112.97,7.61
114.10,7.62
115.24,7.63
116.39,7.63
117.55,7.63
118.73,7.63
119.92,7.63
121.12,7.64
122.33,7.64
123.55,7.64
124.79,7.64
126.03,7.64
127.29,7.65
128.57,7.65
129.85,7.66
131.15,7.65
132.46,7.66
133.79,7.66
135.12,7.65
136.48,7.65
137.84,7.65
139.22,7.66
140.61,7.66
142.02,7.66
143.44,7.66
144.87,7.66
146.32,7.67
147.78,7.66
149.26,7.67
150.75,7.66
152.26,7.66
153.78,7.65
155.32,7.65
156.88,7.64
158.44,7.63
160.03,7.63
161.63,7.62
163.24,7.62
164.88,7.61
166.53,7.60
168.19,7.59
169.87,7.58
171.57,7.59
173.29,7.58
175.02,7.58
176.77,7.57
178.54,7.56
180.32,7.55
182.13,7.53
183.95,7.51
185.79,7.50
187.65,7.48
189.52,7.45
191.42,7.44
193.33,7.42
195.27,7.40
197.22,7.38
199.19,7.37
201.18,7.35
203.19,7.33
205.23,7.31
207.28,7.30
209.35,7.28
211.44,7.26
213.56,7.24
215.69,7.22
217.85,7.20
220.03,7.19
222.23,7.18
224.45,7.16
226.70,7.14
228.96,7.13
231.25,7.11
233.57,7.09
235.90,7.07
238.26,7.06
240.64,7.04
243.05,7.03
245.48,7.00
247.93,6.99
250.41,6.97
252.92,6.95
255.45,6.92
258.00,6.91
260.58,6.89
263.19,6.86
265.82,6.84
268.48,6.82
271.16,6.80
273.87,6.77
276.61,6.75
279.38,6.73
282.17,6.70
284.99,6.67
287.84,6.65
290.72,6.63
293.63,6.60
296.57,6.57
299.53,6.54
302.53,6.51
305.55,6.47
308.61,6.45
311.69,6.42
314.81,6.39
317.96,6.36
321.14,6.33
324.35,6.30
327.59,6.27
330.87,6.24
334.18,6.21
337.52,6.19
340.90,6.16
344.30,6.13
347.75,6.09
351.23,6.07
354.74,6.03
358.28,5.99
361.87,5.96
365.49,5.93
369.14,5.89
372.83,5.86
376.56,5.83
380.33,5.79
384.13,5.77
387.97,5.73
391.85,5.70
395.77,5.67
399.73,5.65
403.72,5.61
407.76,5.58
411.84,5.54
415.96,5.52
420.12,5.48
424.32,5.44
428.56,5.40
432.85,5.36
437.18,5.32
441.55,5.28
445.96,5.23
450.42,5.19
454.93,5.15
459.48,5.12
464.07,5.08
468.71,5.05
473.40,5.03
478.13,5.01
482.91,4.99
487.74,4.98
492.62,4.98
497.55,4.98
502.52,4.97
507.55,4.97
512.62,4.96
517.75,4.95
522.93,4.93
528.16,4.91
533.44,4.89
538.77,4.85
544.16,4.82
549.60,4.78
555.10,4.75
560.65,4.71
566.25,4.68
571.92,4.65
577.64,4.61
583.41,4.57
589.25,4.55
595.14,4.50
601.09,4.47
607.10,4.43
613.17,4.38
619.30,4.34
625.50,4.30
631.75,4.24
638.07,4.18
644.45,4.12
650.89,4.06
657.40,4.00
663.98,3.93
670.62,3.86
677.32,3.79
684.10,3.70
690.94,3.62
697.85,3.54
704.83,3.46
711.87,3.36
718.99,3.27
726.18,3.16
733.44,3.06
740.78,2.95
748.19,2.84
755.67,2.74
763.23,2.61
770.86,2.49
778.57,2.36
786.35,2.23
794.22,2.10
802.16,1.97
810.18,1.82
818.28,1.69
826.46,1.55
834.73,1.42
843.08,1.28
851.51,1.16
860.02,1.03
868.62,0.91
877.31,0.79
886.08,0.69
894.94,0.59
903.89,0.50
912.93,0.42
922.06,0.35
931.28,0.28
940.59,0.22
950.00,0.17
959.50,0.12
969.09,0.08
978.78,0.06
988.57,0.03
998.46,0.00
1008.44,-0.02
1018.53,-0.03
1028.71,-0.04
1039.00,-0.05
1049.39,-0.05
1059.88,-0.06
1070.48,-0.06
1081.19,-0.06
1092.00,-0.06
1102.92,-0.06
1113.95,-0.06
1125.09,-0.06
1136.34,-0.07
1147.70,-0.07
1159.18,-0.08
1170.77,-0.09
1182.48,-0.10
1194.30,-0.11
1206.25,-0.13
1218.31,-0.15
1230.49,-0.18
1242.80,-0.20
1255.22,-0.23
1267.78,-0.26
1280.45,-0.30
1293.26,-0.34
1306.19,-0.38
1319.25,-0.42
1332.45,-0.46
1345.77,-0.52
1359.23,-0.56
1372.82,-0.61
1386.55,-0.67
1400.41,-0.71
1414.42,-0.77
1428.56,-0.82
1442.85,-0.88
1457.28,-0.93
1471.85,-0.98
1486.57,-1.03
1501.43,-1.07
1516.45,-1.11
1531.61,-1.14
1546.93,-1.17
1562.40,-1.19
1578.02,-1.21
1593.80,-1.21
1609.74,-1.20
1625.84,-1.18
1642.10,-1.15
1658.52,-1.11
1675.10,-1.05
1691.85,-0.99
1708.77,-0.90
1725.86,-0.80
1743.12,-0.69
1760.55,-0.57
1778.15,-0.44
1795.94,-0.29
1813.90,-0.14
1832.03,0.02
1850.36,0.20
1868.86,0.38
1887.55,0.56
1906.42,0.75
1925.49,0.95
1944.74,1.15
1964.19,1.35
1983.83,1.55
2003.67,1.77
2023.71,1.98
2043.94,2.20
2064.38,2.41
2085.03,2.63
2105.88,2.85
2126.94,3.07
2148.20,3.29
2169.69,3.51
2191.38,3.74
2213.30,3.97
2235.43,4.21
2257.78,4.46
2280.36,4.70
2303.17,4.96
2326.20,5.23
2349.46,5.50
2372.95,5.78
2396.68,6.06
2420.65,6.34
2444.86,6.63
2469.31,6.91
2494.00,7.20
2518.94,7.47
2544.13,7.76
2569.57,8.02
2595.27,8.29
2621.22,8.54
2647.43,8.77
2673.90,8.99
2700.64,9.18
2727.65,9.35
2754.93,9.51
2782.48,9.62
2810.30,9.71
2838.40,9.78
2866.79,9.82
2895.46,9.82
2924.41,9.80
2953.65,9.76
2983.19,9.70
3013.02,9.62
3043.15,9.55
3073.58,9.46
3104.32,9.38
3135.36,9.29
3166.72,9.20
3198.38,9.11
3230.37,9.02
3262.67,8.92
3295.30,8.82
3328.25,8.71
3361.53,8.60
3395.15,8.50
3429.10,8.41
3463.39,8.32
3498.03,8.24
3533.01,8.16
3568.34,8.09
3604.02,8.04
3640.06,8.00
3676.46,7.96
3713.22,7.93
3750.36,7.92
3787.86,7.91
3825.74,7.90
3864.00,7.92
3902.64,7.94
3941.66,7.95
3981.08,7.96
4020.89,7.95
4061.10,7.94
4101.71,7.90
4142.73,7.86
4184.15,7.82
4226.00,7.79
4268.26,7.80
4310.94,7.82
4354.05,7.90
4397.59,8.00
4441.56,8.13
4485.98,8.29
4530.84,8.43
4576.15,8.56
4621.91,8.67
4668.13,8.72
4714.81,8.73
4761.96,8.71
4809.58,8.62
4857.67,8.51
4906.25,8.35
4955.31,8.16
5004.87,7.95
5054.91,7.71
5105.46,7.45
5156.52,7.18
5208.08,6.88
5260.16,6.58
5312.77,6.28
5365.89,5.98
5419.55,5.68
5473.75,5.43
5528.49,5.19
5583.77,4.97
5639.61,4.81
5696.00,4.68
5752.96,4.56
5810.49,4.49
5868.60,4.43
5927.28,4.37
5986.56,4.32
6046.42,4.27
6106.89,4.23
6167.96,4.19
6229.64,4.15
6291.93,4.13
6354.85,4.12
6418.40,4.13
6482.58,4.16
6547.41,4.20
6612.88,4.25
6679.01,4.32
6745.80,4.40
6813.26,4.50
6881.39,4.61
6950.21,4.72
7019.71,4.86
7089.91,5.01
7160.81,5.16
7232.41,5.34
7304.74,5.52
7377.79,5.71
7451.56,5.92
7526.08,6.13
7601.34,6.34
7677.35,6.52
7754.13,6.68
7831.67,6.78
7909.98,6.82
7989.08,6.74
8068.98,6.53
8149.67,6.18
8231.16,5.68
8313.47,4.98
8396.61,4.18
8480.57,3.26
8565.38,2.21
8651.03,1.16
8737.54,0.09
8824.92,-0.89
8913.17,-1.77
9002.30,-2.54
9092.32,-3.12
9183.25,-3.57
9275.08,-3.89
9367.83,-4.06
9461.51,-4.13
9556.12,-4.13
9651.68,-4.07
9748.20,-3.97
9845.68,-3.84
9944.14,-3.72
10043.58,-3.58
10144.02,-3.43
10245.46,-3.29
10347.91,-3.14
10451.39,-2.98
10555.91,-2.81
10661.46,-2.63
10768.08,-2.44
10875.76,-2.25
10984.52,-2.05
11094.36,-1.88
11205.31,-1.71
11317.36,-1.55
11430.53,-1.45
11544.84,-1.37
11660.29,-1.32
11776.89,-1.31
11894.66,-1.30
12013.60,-1.32
12133.74,-1.35
12255.08,-1.38
12377.63,-1.42
12501.41,-1.47
12626.42,-1.54
12752.68,-1.65
12880.21,-1.79
13009.01,-2.00
13139.10,-2.26
13270.49,-2.59
13403.20,-3.01
13537.23,-3.48
13672.60,-4.01
13809.33,-4.56
13947.42,-5.09
14086.90,-5.59
14227.77,-6.00
14370.04,-6.29
14513.74,-6.48
14658.88,-6.52
14805.47,-6.41
14953.52,-6.22
15103.06,-5.95
15254.09,-5.68
15406.63,-5.46
15560.70,-5.34
15716.30,-5.51
15873.47,-5.84
16032.20,-6.31
16192.52,-6.95
16354.45,-7.59
16517.99,-8.23
16683.17,-8.75
16850.01,-9.12
17018.51,-9.36
17188.69,-9.43
17360.58,-9.36
17534.18,-9.28
17709.53,-9.17
17886.62,-9.18
18065.49,-9.27
18246.14,-9.42
18428.60,-9.65
18612.89,-9.86
18799.02,-10.06
18987.01,-10.20
19176.88,-10.29
19368.65,-10.33
19562.33,-10.31
19757.96,-10.24
19955.54,-10.14
