frequency,raw,error,smoothed,error_smoothed,equalization,parametric_eq,equalized_raw,equalized_smoothed,target
20,4.87,3.37,4.88,3.38,-3.38,-2.04,1.49,1.50,1.50
21,5.02,3.52,5.06,3.56,-3.56,-2.34,1.46,1.50,1.50
22,5.20,3.70,5.22,3.73,-3.73,-2.67,1.47,1.50,1.50
23,5.40,3.91,5.37,3.88,-3.88,-3.02,1.52,1.49,1.49
24,5.56,4.07,5.52,4.03,-4.03,-3.40,1.53,1.49,1.49
25,5.71,4.22,5.65,4.16,-4.16,-3.78,1.55,1.49,1.49
26,5.84,4.36,5.77,4.28,-4.28,-4.15,1.56,1.48,1.48
27,5.92,4.44,5.88,4.40,-4.40,-4.51,1.52,1.48,1.48
28,5.99,4.51,5.98,4.50,-4.50,-4.82,1.49,1.48,1.48
29,6.08,4.61,6.07,4.59,-4.59,-5.07,1.49,1.47,1.47
30,6.09,4.62,6.15,4.68,-4.68,-5.25,1.41,1.47,1.47
31,6.10,4.64,6.22,4.75,-4.75,-5.34,1.35,1.46,1.46
32,6.13,4.67,6.28,4.82,-4.82,-5.36,1.31,1.46,1.46
33,6.25,4.80,6.33,4.88,-4.88,-5.30,1.37,1.45,1.45
34,6.30,4.86,6.37,4.92,-4.92,-5.18,1.38,1.44,1.44
35,6.39,4.95,6.39,4.95,-4.95,-5.03,1.44,1.44,1.44
36,6.44,5.01,6.39,4.96,-4.96,-4.85,1.48,1.43,1.43
37,6.44,5.02,6.37,4.95,-4.95,-4.66,1.49,1.42,1.42
38,6.37,4.96,6.32,4.91,-4.91,-4.47,1.46,1.41,1.41
39,6.29,4.89,6.23,4.83,-4.83,-4.28,1.46,1.40,1.40
40,6.20,4.81,6.12,4.73,-4.73,-4.11,1.47,1.39,1.39
41,6.09,4.71,5.97,4.59,-4.59,-3.96,1.50,1.38,1.38
42,5.95,4.59,5.78,4.42,-4.42,-3.81,1.53,1.36,1.36
43,5.77,4.42,5.57,4.22,-4.22,-3.69,1.55,1.35,1.35
44,5.54,4.20,5.34,4.01,-4.01,-3.58,1.53,1.34,1.34
45,5.29,3.97,5.11,3.78,-3.78,-3.48,1.51,1.32,1.32
46,4.98,3.67,4.87,3.57,-3.57,-3.41,1.41,1.31,1.31
47,4.63,3.34,4.66,3.37,-3.37,-3.34,1.26,1.29,1.29
48,4.35,3.08,4.47,3.20,-3.20,-3.29,1.15,1.27,1.27
49,4.10,2.84,4.33,3.07,-3.07,-3.24,1.03,1.26,1.26
50,3.88,2.64,4.23,2.99,-2.99,-3.21,0.89,1.24,1.24
51,3.70,2.48,4.19,2.97,-2.97,-3.19,0.73,1.22,1.22
52,3.68,2.48,4.20,3.01,-3.01,-3.18,0.67,1.20,1.20
53,3.81,2.63,4.26,3.09,-3.09,-3.17,0.72,1.18,1.18
54,4.07,2.92,4.35,3.20,-3.20,-3.18,0.87,1.15,1.15
55,4.37,3.24,4.47,3.34,-3.34,-3.18,1.03,1.13,1.13
56,4.69,3.58,4.58,3.47,-3.47,-3.20,1.22,1.11,1.11
57,4.97,3.89,4.67,3.59,-3.59,-3.21,1.38,1.08,1.08
58,5.16,4.11,4.73,3.67,-3.67,-3.23,1.49,1.05,1.05
59,5.24,4.21,4.73,3.70,-3.70,-3.26,1.54,1.03,1.03
60,5.19,4.19,4.67,3.67,-3.67,-3.29,1.52,1.00,1.00
61,5.02,4.05,4.55,3.58,-3.58,-3.32,1.44,0.97,0.97
62,4.76,3.82,4.36,3.42,-3.42,-3.35,1.34,0.94,0.94
63,4.43,3.52,4.13,3.22,-3.22,-3.38,1.21,0.91,0.91
64,4.04,3.16,3.86,2.98,-2.98,-3.42,1.06,0.88,0.88
65,3.60,2.75,3.57,2.72,-2.72,-3.46,0.88,0.85,0.85
66,3.16,2.35,3.29,2.47,-2.47,-3.50,0.69,0.81,0.81
67,2.75,1.97,3.04,2.26,-2.26,-3.55,0.49,0.78,0.78
68,2.41,1.67,2.84,2.09,-2.09,-3.59,0.32,0.74,0.74
69,2.19,1.48,2.70,1.99,-1.99,-3.64,0.20,0.71,0.71
70,2.10,1.43,2.65,1.98,-1.98,-3.69,0.12,0.67,0.67
71,2.24,1.60,2.68,2.05,-2.05,-3.75,0.19,0.64,0.64
72,2.47,1.87,2.80,2.20,-2.20,-3.81,0.27,0.60,0.60
73,2.80,2.24,3.00,2.44,-2.44,-3.87,0.36,0.56,0.56
74,3.23,2.71,3.27,2.75,-2.75,-3.94,0.48,0.52,0.52
75,3.65,3.17,3.59,3.10,-3.10,-4.01,0.55,0.48,0.48
76,4.13,3.69,3.94,3.50,-3.50,-4.08,0.63,0.44,0.44
77,4.56,4.15,4.32,3.91,-3.91,-4.16,0.65,0.41,0.41
78,4.98,4.61,4.70,4.33,-4.33,-4.24,0.65,0.37,0.37
79,5.30,4.98,5.07,4.74,-4.74,-4.32,0.56,0.32,0.32
80,5.60,5.32,5.41,5.13,-5.13,-4.41,0.47,0.28,0.28
81,5.87,5.63,5.73,5.49,-5.49,-4.50,0.38,0.24,0.24
82,6.08,5.88,6.01,5.81,-5.81,-4.60,0.27,0.20,0.20
83,6.28,6.12,6.26,6.10,-6.10,-4.70,0.18,0.16,0.16
84,6.46,6.34,6.47,6.35,-6.35,-4.80,0.11,0.12,0.12
85,6.64,6.56,6.65,6.57,-6.57,-4.91,0.07,0.08,0.08
86,6.77,6.73,6.80,6.76,-6.76,-5.02,0.01,0.04,0.04
87,6.91,6.92,6.92,6.92,-6.92,-5.14,-0.01,-0.01,-0.01
88,7.02,7.07,7.02,7.06,-7.06,-5.26,-0.04,-0.05,-0.05
89,7.11,7.20,7.10,7.18,-7.18,-5.38,-0.07,-0.09,-0.09
90,7.15,7.28,7.16,7.29,-7.29,-5.51,-0.14,-0.13,-0.13
91,7.19,7.36,7.21,7.38,-7.38,-5.64,-0.19,-0.17,-0.17
92,7.23,7.44,7.25,7.46,-7.46,-5.77,-0.23,-0.21,-0.21
93,7.25,7.50,7.28,7.53,-7.53,-5.91,-0.28,-0.25,-0.25
94,7.28,7.57,7.30,7.59,-7.59,-6.05,-0.31,-0.29,-0.29
95,7.28,7.61,7.31,7.65,-7.65,-6.19,-0.37,-0.33,-0.33
96,7.32,7.69,7.32,7.69,-7.69,-6.33,-0.37,-0.37,-0.37
97,7.35,7.76,7.32,7.74,-7.74,-6.48,-0.39,-0.42,-0.41
98,7.37,7.82,7.32,7.78,-7.78,-6.63,-0.41,-0.46,-0.45
99,7.34,7.83,7.32,7.81,-7.81,-6.78,-0.47,-0.50,-0.49
100,7.29,7.82,7.31,7.85,-7.85,-6.93,-0.56,-0.54,-0.53
101,7.28,7.85,7.30,7.88,-7.88,-7.08,-0.60,-0.58,-0.57
102,7.25,7.86,7.29,7.92,-7.92,-7.24,-0.67,-0.62,-0.61
104,7.25,7.93,7.29,7.95,-7.95,-7.54,-0.70,-0.66,-0.68
105,7.25,7.97,7.28,7.99,-7.99,-7.69,-0.74,-0.70,-0.72
106,7.25,8.00,7.28,8.02,-8.02,-7.84,-0.77,-0.74,-0.75
107,7.25,8.04,7.27,8.05,-8.05,-7.99,-0.80,-0.78,-0.79
108,7.25,8.07,7.27,8.09,-8.09,-8.14,-0.84,-0.82,-0.82
109,7.25,8.11,7.26,8.12,-8.12,-8.28,-0.87,-0.86,-0.86
110,7.27,8.16,7.25,8.14,-8.14,-8.41,-0.87,-0.89,-0.89
111,7.28,8.21,7.24,8.16,-8.16,-8.55,-0.88,-0.93,-0.93
112,7.23,8.19,7.22,8.18,-8.18,-8.67,-0.95,-0.96,-0.96
113,7.23,8.22,7.19,8.19,-8.19,-8.80,-0.96,-1.00,-0.99
114,7.23,8.25,7.16,8.19,-8.19,-8.91,-0.96,-1.03,-1.02
115,7.19,8.24,7.13,8.19,-8.19,-9.02,-1.00,-1.07,-1.05
117,7.07,8.18,7.09,8.19,-8.19,-9.20,-1.12,-1.10,-1.11
118,7.01,8.15,7.04,8.18,-8.18,-9.28,-1.17,-1.14,-1.14
119,6.97,8.14,6.99,8.16,-8.16,-9.35,-1.19,-1.17,-1.17
120,6.94,8.14,6.95,8.15,-8.15,-9.41,-1.21,-1.20,-1.20
121,6.90,8.13,6.90,8.13,-8.13,-9.45,-1.23,-1.24,-1.23
123,6.79,8.07,6.85,8.12,-8.12,-9.52,-1.33,-1.27,-1.28
124,6.76,8.07,6.80,8.10,-8.10,-9.53,-1.34,-1.30,-1.31
125,6.72,8.05,6.75,8.09,-8.09,-9.53,-1.37,-1.34,-1.33
126,6.70,8.06,6.71,8.08,-8.08,-9.52,-1.38,-1.37,-1.36
128,6.67,8.08,6.66,8.06,-8.06,-9.47,-1.39,-1.40,-1.41
129,6.62,8.05,6.62,8.05,-8.05,-9.44,-1.43,-1.43,-1.43
130,6.62,8.07,6.58,8.03,-8.03,-9.39,-1.41,-1.46,-1.45
131,6.58,8.06,6.53,8.02,-8.02,-9.33,-1.44,-1.49,-1.48
133,6.49,8.01,6.48,8.00,-8.00,-9.19,-1.51,-1.51,-1.52
134,6.45,7.99,6.44,7.98,-7.98,-9.11,-1.53,-1.54,-1.54
135,6.39,7.95,6.39,7.96,-7.96,-9.03,-1.57,-1.57,-1.56
137,6.30,7.90,6.34,7.93,-7.93,-8.84,-1.63,-1.60,-1.60
138,6.27,7.89,6.28,7.91,-7.91,-8.75,-1.64,-1.62,-1.62
140,6.19,7.85,6.23,7.88,-7.88,-8.54,-1.69,-1.65,-1.66
141,6.18,7.86,6.17,7.85,-7.85,-8.43,-1.67,-1.68,-1.68
142,6.13,7.82,6.12,7.82,-7.82,-8.32,-1.69,-1.70,-1.69
144,6.04,7.77,6.06,7.78,-7.78,-8.10,-1.74,-1.72,-1.73
145,6.01,7.75,5.99,7.74,-7.74,-7.98,-1.73,-1.75,-1.74
147,5.95,7.73,5.93,7.70,-7.70,-7.76,-1.75,-1.77,-1.78
148,5.89,7.68,5.86,7.66,-7.66,-7.65,-1.77,-1.79,-1.79
150,5.79,7.61,5.79,7.61,-7.61,-7.42,-1.82,-1.82,-1.82
151,5.73,7.56,5.72,7.56,-7.56,-7.31,-1.83,-1.84,-1.83
153,5.63,7.49,5.64,7.50,-7.50,-7.09,-1.87,-1.86,-1.86
154,5.56,7.43,5.56,7.44,-7.44,-6.99,-1.88,-1.88,-1.87
156,5.46,7.36,5.48,7.38,-7.38,-6.78,-1.92,-1.90,-1.90
157,5.40,7.31,5.39,7.31,-7.31,-6.67,-1.91,-1.92,-1.91
159,5.29,7.23,5.30,7.24,-7.24,-6.47,-1.95,-1.93,-1.94
160,5.24,7.19,5.21,7.17,-7.17,-6.38,-1.93,-1.95,-1.95
162,5.12,7.09,5.12,7.09,-7.09,-6.19,-1.97,-1.97,-1.97
164,5.00,6.99,5.02,7.01,-7.01,-6.01,-2.01,-1.99,-1.99
165,4.95,6.95,4.93,6.93,-6.93,-5.92,-1.98,-2.00,-2.00
167,4.81,6.83,4.83,6.85,-6.85,-5.75,-2.04,-2.02,-2.02
169,4.70,6.74,4.72,6.76,-6.76,-5.58,-2.06,-2.04,-2.04
170,4.64,6.69,4.62,6.67,-6.67,-5.50,-2.03,-2.05,-2.05
172,4.51,6.58,4.51,6.58,-6.58,-5.35,-2.07,-2.07,-2.07
174,4.39,6.47,4.40,6.48,-6.48,-5.20,-2.09,-2.08,-2.08
175,4.32,6.41,4.29,6.38,-6.38,-5.13,-2.06,-2.09,-2.09
177,4.18,6.29,4.18,6.28,-6.28,-4.99,-2.10,-2.11,-2.11
179,4.03,6.15,4.06,6.18,-6.18,-4.86,-2.15,-2.12,-2.12
181,3.91,6.05,3.93,6.07,-6.07,-4.74,-2.16,-2.13,-2.14
183,3.79,5.94,3.81,5.95,-5.95,-4.62,-2.16,-2.15,-2.15
184,3.73,5.89,3.68,5.84,-5.84,-4.56,-2.11,-2.16,-2.16
186,3.59,5.76,3.54,5.71,-5.71,-4.45,-2.12,-2.17,-2.17
188,3.43,5.61,3.41,5.59,-5.59,-4.34,-2.16,-2.18,-2.18
190,3.28,5.47,3.27,5.46,-5.46,-4.24,-2.18,-2.19,-2.19
192,3.13,5.34,3.13,5.33,-5.33,-4.15,-2.20,-2.21,-2.21
194,2.99,5.21,2.99,5.20,-5.20,-4.05,-2.21,-2.22,-2.22
196,2.82,5.05,2.85,5.07,-5.07,-3.97,-2.25,-2.23,-2.23
198,2.67,4.91,2.71,4.94,-4.94,-3.88,-2.27,-2.24,-2.24
200,2.54,4.79,2.57,4.82,-4.82,-3.80,-2.28,-2.25,-2.25
202,2.40,4.66,2.43,4.69,-4.69,-3.72,-2.29,-2.26,-2.26
204,2.30,4.57,2.30,4.56,-4.56,-3.65,-2.26,-2.27,-2.27
206,2.14,4.41,2.16,4.44,-4.44,-3.58,-2.30,-2.27,-2.27
208,2.03,4.31,2.03,4.31,-4.31,-3.51,-2.28,-2.28,-2.28
210,1.91,4.20,1.90,4.19,-4.19,-3.45,-2.28,-2.29,-2.29
212,1.79,4.08,1.77,4.06,-4.06,-3.38,-2.27,-2.30,-2.29
214,1.68,3.98,1.64,3.94,-3.94,-3.32,-2.26,-2.30,-2.30
216,1.53,3.84,1.51,3.81,-3.81,-3.27,-2.28,-2.31,-2.31
218,1.40,3.71,1.38,3.69,-3.69,-3.21,-2.29,-2.31,-2.31
221,1.22,3.54,1.25,3.56,-3.56,-3.13,-2.34,-2.31,-2.32
223,1.10,3.42,1.12,3.44,-3.44,-3.08,-2.34,-2.32,-2.32
225,0.99,3.31,0.99,3.31,-3.31,-3.03,-2.32,-2.32,-2.32
227,0.87,3.19,0.86,3.18,-3.18,-2.98,-2.31,-2.32,-2.32
229,0.75,3.07,0.74,3.06,-3.06,-2.93,-2.31,-2.32,-2.32
232,0.59,2.91,0.61,2.93,-2.93,-2.87,-2.34,-2.32,-2.32
234,0.49,2.81,0.49,2.81,-2.81,-2.82,-2.32,-2.32,-2.32
236,0.40,2.71,0.38,2.69,-2.69,-2.78,-2.29,-2.31,-2.31
239,0.26,2.57,0.26,2.57,-2.57,-2.72,-2.31,-2.31,-2.31
241,0.17,2.47,0.16,2.46,-2.46,-2.67,-2.29,-2.30,-2.30
244,0.03,2.33,0.05,2.35,-2.35,-2.61,-2.32,-2.30,-2.30
246,-0.06,2.23,-0.04,2.25,-2.25,-2.57,-2.31,-2.29,-2.29
248,-0.13,2.15,-0.14,2.15,-2.15,-2.54,-2.28,-2.28,-2.28
251,-0.25,2.02,-0.22,2.05,-2.05,-2.48,-2.30,-2.27,-2.27
253,-0.31,1.95,-0.30,1.96,-1.96,-2.44,-2.27,-2.26,-2.26
256,-0.40,1.85,-0.38,1.87,-1.87,-2.39,-2.27,-2.25,-2.25
259,-0.46,1.78,-0.45,1.79,-1.79,-2.33,-2.25,-2.24,-2.24
261,-0.50,1.73,-0.51,1.72,-1.72,-2.30,-2.22,-2.23,-2.23
264,-0.55,1.67,-0.57,1.64,-1.64,-2.24,-2.19,-2.22,-2.22
266,-0.61,1.59,-0.63,1.57,-1.57,-2.21,-2.18,-2.20,-2.20
269,-0.67,1.52,-0.68,1.51,-1.51,-2.16,-2.18,-2.19,-2.19
272,-0.73,1.44,-0.73,1.45,-1.45,-2.11,-2.18,-2.17,-2.17
274,-0.77,1.39,-0.77,1.39,-1.39,-2.07,-2.16,-2.16,-2.16
277,-0.81,1.33,-0.81,1.34,-1.34,-2.02,-2.15,-2.14,-2.14
280,-0.84,1.29,-0.84,1.28,-1.28,-1.97,-2.12,-2.13,-2.13
283,-0.88,1.23,-0.87,1.24,-1.24,-1.93,-2.12,-2.11,-2.11
286,-0.93,1.16,-0.90,1.19,-1.19,-1.88,-2.12,-2.09,-2.09
288,-0.93,1.14,-0.92,1.15,-1.15,-1.85,-2.08,-2.07,-2.07
291,-0.93,1.12,-0.94,1.12,-1.12,-1.81,-2.05,-2.05,-2.05
294,-0.93,1.11,-0.95,1.08,-1.08,-1.76,-2.01,-2.04,-2.04
297,-0.96,1.06,-0.96,1.05,-1.05,-1.72,-2.01,-2.02,-2.02
300,-0.98,1.02,-0.97,1.03,-1.03,-1.68,-2.01,-2.00,-2.00
303,-0.98,1.00,-0.98,1.00,-1.00,-1.64,-1.98,-1.98,-1.98
306,-0.98,0.98,-0.98,0.98,-0.98,-1.60,-1.96,-1.96,-1.96
309,-0.98,0.96,-0.98,0.95,-0.95,-1.56,-1.93,-1.94,-1.94
312,-0.98,0.94,-0.98,0.93,-0.93,-1.52,-1.91,-1.92,-1.92
316,-0.98,0.92,-0.98,0.91,-0.91,-1.47,-1.89,-1.90,-1.90
319,-0.98,0.89,-0.98,0.89,-0.89,-1.44,-1.87,-1.87,-1.87
322,-0.98,0.87,-0.98,0.87,-0.87,-1.41,-1.85,-1.85,-1.85
325,-0.98,0.85,-0.98,0.85,-0.85,-1.37,-1.83,-1.83,-1.83
328,-0.98,0.83,-0.98,0.83,-0.83,-1.34,-1.81,-1.81,-1.81
332,-0.98,0.81,-0.98,0.81,-0.81,-1.30,-1.79,-1.79,-1.79
335,-0.98,0.79,-0.98,0.79,-0.79,-1.27,-1.77,-1.77,-1.77
338,-0.98,0.77,-0.98,0.77,-0.77,-1.24,-1.75,-1.75,-1.75
342,-0.98,0.75,-0.98,0.75,-0.75,-1.20,-1.73,-1.73,-1.73
345,-0.98,0.73,-0.98,0.73,-0.73,-1.17,-1.71,-1.71,-1.71
349,-0.98,0.71,-0.98,0.71,-0.71,-1.14,-1.69,-1.69,-1.69
352,-0.98,0.69,-0.99,0.69,-0.69,-1.11,-1.67,-1.68,-1.67
356,-0.98,0.68,-0.99,0.67,-0.67,-1.08,-1.65,-1.66,-1.66
359,-0.98,0.66,-0.99,0.65,-0.65,-1.06,-1.63,-1.64,-1.64
363,-0.98,0.64,-0.99,0.64,-0.64,-1.03,-1.62,-1.62,-1.62
366,-0.98,0.63,-0.98,0.63,-0.63,-1.00,-1.61,-1.61,-1.61
370,-0.98,0.61,-0.98,0.62,-0.62,-0.97,-1.60,-1.59,-1.59
374,-0.98,0.60,-0.97,0.61,-0.61,-0.95,-1.59,-1.58,-1.58
377,-0.98,0.59,-0.96,0.61,-0.61,-0.93,-1.59,-1.57,-1.57
381,-0.98,0.58,-0.95,0.61,-0.61,-0.90,-1.59,-1.56,-1.56
385,-0.93,0.61,-0.93,0.61,-0.61,-0.88,-1.54,-1.54,-1.54
389,-0.93,0.60,-0.92,0.62,-0.62,-0.85,-1.55,-1.53,-1.53
393,-0.89,0.63,-0.89,0.63,-0.63,-0.83,-1.52,-1.52,-1.52
397,-0.89,0.62,-0.87,0.64,-0.64,-0.81,-1.53,-1.51,-1.51
401,-0.85,0.66,-0.85,0.66,-0.66,-0.79,-1.51,-1.51,-1.51
405,-0.82,0.68,-0.82,0.67,-0.67,-0.76,-1.49,-1.50,-1.50
409,-0.79,0.70,-0.80,0.69,-0.69,-0.75,-1.48,-1.49,-1.49
413,-0.75,0.73,-0.78,0.71,-0.71,-0.73,-1.46,-1.48,-1.48
417,-0.75,0.72,-0.75,0.72,-0.72,-0.71,-1.47,-1.47,-1.47
421,-0.73,0.74,-0.73,0.74,-0.74,-0.69,-1.47,-1.47,-1.47
425,-0.70,0.76,-0.71,0.75,-0.75,-0.67,-1.45,-1.46,-1.46
430,-0.68,0.77,-0.69,0.76,-0.76,-0.65,-1.44,-1.45,-1.45
434,-0.65,0.80,-0.68,0.77,-0.77,-0.64,-1.42,-1.45,-1.45
438,-0.65,0.79,-0.66,0.77,-0.77,-0.62,-1.42,-1.44,-1.44
443,-0.65,0.78,-0.65,0.78,-0.78,-0.60,-1.43,-1.43,-1.43
447,-0.65,0.77,-0.63,0.79,-0.79,-0.59,-1.44,-1.42,-1.42
451,-0.65,0.76,-0.62,0.79,-0.79,-0.58,-1.44,-1.41,-1.41
456,-0.65,0.75,-0.61,0.79,-0.79,-0.56,-1.44,-1.40,-1.40
460,-0.63,0.76,-0.59,0.80,-0.80,-0.55,-1.43,-1.39,-1.39
465,-0.58,0.80,-0.58,0.80,-0.80,-0.54,-1.38,-1.38,-1.38
470,-0.56,0.81,-0.57,0.80,-0.80,-0.53,-1.36,-1.37,-1.37
474,-0.52,0.83,-0.56,0.80,-0.80,-0.52,-1.32,-1.35,-1.35
479,-0.51,0.83,-0.55,0.79,-0.79,-0.50,-1.30,-1.34,-1.34
484,-0.51,0.82,-0.54,0.79,-0.79,-0.49,-1.30,-1.33,-1.33
489,-0.51,0.80,-0.53,0.78,-0.78,-0.48,-1.29,-1.31,-1.31
494,-0.51,0.79,-0.52,0.78,-0.78,-0.48,-1.29,-1.30,-1.30
499,-0.51,0.77,-0.51,0.77,-0.77,-0.47,-1.28,-1.28,-1.28
504,-0.51,0.75,-0.50,0.76,-0.76,-0.46,-1.27,-1.26,-1.26
509,-0.51,0.73,-0.49,0.75,-0.75,-0.45,-1.26,-1.24,-1.24
514,-0.51,0.72,-0.48,0.74,-0.74,-0.45,-1.25,-1.23,-1.23
519,-0.51,0.70,-0.47,0.74,-0.74,-0.44,-1.25,-1.21,-1.21
524,-0.49,0.70,-0.46,0.73,-0.73,-0.44,-1.22,-1.19,-1.19
529,-0.47,0.70,-0.44,0.73,-0.73,-0.43,-1.20,-1.17,-1.17
535,-0.44,0.71,-0.43,0.72,-0.72,-0.43,-1.16,-1.15,-1.15
540,-0.41,0.72,-0.41,0.72,-0.72,-0.43,-1.13,-1.13,-1.13
545,-0.37,0.74,-0.39,0.72,-0.72,-0.42,-1.09,-1.11,-1.11
551,-0.33,0.76,-0.38,0.71,-0.71,-0.42,-1.04,-1.09,-1.09
556,-0.33,0.74,-0.36,0.71,-0.71,-0.42,-1.04,-1.07,-1.07
562,-0.33,0.72,-0.35,0.70,-0.70,-0.42,-1.03,-1.05,-1.05
568,-0.33,0.70,-0.34,0.69,-0.69,-0.42,-1.02,-1.03,-1.03
573,-0.33,0.68,-0.33,0.68,-0.68,-0.42,-1.01,-1.01,-1.01
579,-0.33,0.66,-0.33,0.66,-0.66,-0.42,-0.99,-0.99,-0.99
585,-0.33,0.64,-0.32,0.65,-0.65,-0.42,-0.98,-0.97,-0.97
591,-0.33,0.62,-0.32,0.63,-0.63,-0.43,-0.96,-0.95,-0.95
596,-0.33,0.60,-0.32,0.61,-0.61,-0.43,-0.94,-0.93,-0.93
602,-0.33,0.58,-0.32,0.59,-0.59,-0.43,-0.92,-0.91,-0.91
608,-0.33,0.57,-0.33,0.57,-0.57,-0.44,-0.90,-0.90,-0.90
615,-0.33,0.55,-0.33,0.55,-0.55,-0.44,-0.88,-0.88,-0.88
621,-0.33,0.53,-0.33,0.54,-0.54,-0.44,-0.87,-0.87,-0.86
627,-0.33,0.52,-0.33,0.52,-0.52,-0.45,-0.85,-0.85,-0.85
633,-0.33,0.50,-0.33,0.51,-0.51,-0.46,-0.84,-0.84,-0.83
639,-0.33,0.49,-0.33,0.49,-0.49,-0.46,-0.82,-0.82,-0.82
646,-0.33,0.48,-0.33,0.48,-0.48,-0.47,-0.81,-0.81,-0.81
652,-0.33,0.46,-0.33,0.46,-0.46,-0.48,-0.79,-0.79,-0.79
659,-0.33,0.45,-0.33,0.45,-0.45,-0.48,-0.78,-0.78,-0.78
665,-0.33,0.44,-0.33,0.44,-0.44,-0.49,-0.77,-0.77,-0.77
672,-0.33,0.43,-0.33,0.43,-0.43,-0.50,-0.76,-0.76,-0.76
679,-0.33,0.42,-0.33,0.42,-0.42,-0.51,-0.75,-0.75,-0.75
686,-0.33,0.41,-0.33,0.41,-0.41,-0.52,-0.74,-0.74,-0.74
692,-0.33,0.40,-0.33,0.39,-0.39,-0.53,-0.72,-0.73,-0.73
699,-0.33,0.39,-0.33,0.38,-0.38,-0.54,-0.71,-0.72,-0.72
706,-0.33,0.38,-0.33,0.37,-0.37,-0.55,-0.70,-0.71,-0.71
713,-0.33,0.37,-0.33,0.37,-0.37,-0.56,-0.70,-0.70,-0.70
721,-0.33,0.36,-0.33,0.36,-0.36,-0.58,-0.69,-0.69,-0.69
728,-0.33,0.35,-0.33,0.35,-0.35,-0.59,-0.68,-0.68,-0.68
735,-0.33,0.35,-0.33,0.35,-0.35,-0.60,-0.68,-0.68,-0.68
742,-0.33,0.34,-0.32,0.35,-0.35,-0.62,-0.68,-0.67,-0.67
750,-0.33,0.33,-0.31,0.35,-0.35,-0.63,-0.68,-0.66,-0.66
757,-0.33,0.33,-0.30,0.35,-0.35,-0.64,-0.68,-0.66,-0.66
765,-0.28,0.37,-0.29,0.36,-0.36,-0.66,-0.64,-0.65,-0.65
773,-0.28,0.36,-0.28,0.37,-0.37,-0.67,-0.65,-0.65,-0.64
780,-0.28,0.36,-0.26,0.38,-0.38,-0.69,-0.66,-0.64,-0.64
788,-0.23,0.40,-0.24,0.39,-0.39,-0.70,-0.62,-0.64,-0.63
796,-0.23,0.40,-0.22,0.41,-0.41,-0.72,-0.64,-0.63,-0.63
804,-0.23,0.40,-0.20,0.43,-0.43,-0.73,-0.66,-0.63,-0.63
812,-0.19,0.43,-0.18,0.44,-0.44,-0.75,-0.63,-0.62,-0.62
820,-0.16,0.46,-0.16,0.46,-0.46,-0.76,-0.62,-0.62,-0.62
828,-0.10,0.52,-0.14,0.47,-0.47,-0.77,-0.57,-0.62,-0.62
837,-0.09,0.52,-0.13,0.48,-0.48,-0.79,-0.57,-0.61,-0.61
845,-0.09,0.52,-0.12,0.49,-0.49,-0.80,-0.58,-0.61,-0.61
853,-0.09,0.52,-0.10,0.50,-0.50,-0.81,-0.59,-0.61,-0.61
862,-0.09,0.51,-0.09,0.51,-0.51,-0.82,-0.60,-0.60,-0.60
871,-0.09,0.51,-0.08,0.52,-0.52,-0.83,-0.61,-0.60,-0.60
879,-0.09,0.51,-0.08,0.52,-0.52,-0.83,-0.61,-0.60,-0.60
888,-0.09,0.50,-0.07,0.52,-0.52,-0.84,-0.61,-0.59,-0.59
897,-0.09,0.50,-0.06,0.53,-0.53,-0.84,-0.62,-0.59,-0.59
906,-0.08,0.50,-0.06,0.53,-0.53,-0.84,-0.61,-0.58,-0.58
915,-0.05,0.53,-0.05,0.53,-0.53,-0.84,-0.58,-0.58,-0.58
924,-0.05,0.52,-0.04,0.53,-0.53,-0.84,-0.58,-0.57,-0.57
933,-0.03,0.53,-0.03,0.53,-0.53,-0.83,-0.56,-0.56,-0.56
943,0.00,0.55,-0.02,0.53,-0.53,-0.82,-0.53,-0.55,-0.55
952,0.00,0.54,-0.02,0.52,-0.52,-0.81,-0.52,-0.54,-0.54
962,0.00,0.53,-0.01,0.52,-0.52,-0.79,-0.52,-0.53,-0.53
971,0.00,0.52,-0.01,0.51,-0.51,-0.78,-0.51,-0.51,-0.52
981,0.00,0.50,-0.00,0.50,-0.50,-0.75,-0.50,-0.50,-0.50
991,0.00,0.48,0.00,0.49,-0.49,-0.73,-0.49,-0.48,-0.48
1001,0.00,0.47,0.01,0.47,-0.47,-0.70,-0.47,-0.47,-0.47
1011,0.00,0.45,0.01,0.45,-0.45,-0.66,-0.45,-0.45,-0.45
1021,0.00,0.43,0.01,0.44,-0.44,-0.62,-0.44,-0.43,-0.43
1031,0.00,0.40,0.01,0.41,-0.41,-0.58,-0.41,-0.40,-0.40
1041,0.00,0.38,0.01,0.39,-0.39,-0.54,-0.39,-0.38,-0.38
1052,0.00,0.36,0.00,0.36,-0.36,-0.49,-0.36,-0.36,-0.36
1062,0.00,0.33,0.00,0.33,-0.33,-0.44,-0.33,-0.33,-0.33
1073,0.00,0.30,-0.01,0.30,-0.30,-0.39,-0.30,-0.30,-0.30
1084,0.00,0.27,-0.01,0.26,-0.26,-0.33,-0.26,-0.27,-0.27
1094,0.00,0.24,-0.03,0.22,-0.22,-0.27,-0.22,-0.24,-0.24
1105,-0.05,0.16,-0.04,0.17,-0.17,-0.20,-0.22,-0.21,-0.21
1116,-0.05,0.13,-0.05,0.12,-0.12,-0.14,-0.17,-0.18,-0.18
1128,-0.05,0.09,-0.07,0.07,-0.07,-0.06,-0.12,-0.14,-0.14
1139,-0.09,0.01,-0.09,0.01,-0.01,0.01,-0.10,-0.10,-0.10
1150,-0.09,-0.02,-0.11,-0.04,0.04,0.08,-0.05,-0.07,-0.07
1162,-0.10,-0.07,-0.13,-0.11,0.11,0.16,0.01,-0.03,-0.03
1173,-0.15,-0.17,-0.15,-0.17,0.17,0.24,0.02,0.02,0.02
1185,-0.20,-0.26,-0.17,-0.23,0.23,0.32,0.03,0.06,0.06
1197,-0.23,-0.33,-0.19,-0.29,0.29,0.41,0.06,0.10,0.10
1209,-0.23,-0.38,-0.20,-0.35,0.35,0.50,0.12,0.15,0.15
1221,-0.23,-0.43,-0.21,-0.41,0.41,0.58,0.18,0.20,0.20
1233,-0.23,-0.48,-0.22,-0.47,0.47,0.67,0.24,0.25,0.25
1246,-0.23,-0.53,-0.23,-0.53,0.53,0.77,0.30,0.30,0.30
1258,-0.23,-0.58,-0.23,-0.59,0.59,0.86,0.36,0.35,0.35
1271,-0.23,-0.64,-0.23,-0.64,0.64,0.96,0.41,0.41,0.41
1283,-0.23,-0.70,-0.23,-0.70,0.70,1.05,0.47,0.47,0.47
1296,-0.23,-0.75,-0.23,-0.75,0.75,1.15,0.52,0.53,0.52
1309,-0.23,-0.82,-0.23,-0.81,0.81,1.25,0.58,0.59,0.59
1322,-0.23,-0.88,-0.23,-0.87,0.87,1.35,0.64,0.65,0.65
1335,-0.23,-0.94,-0.23,-0.94,0.94,1.45,0.71,0.71,0.71
1349,-0.23,-1.00,-0.23,-1.00,1.00,1.56,0.77,0.77,0.77
1362,-0.23,-1.07,-0.24,-1.08,1.08,1.66,0.85,0.84,0.84
1376,-0.23,-1.14,-0.25,-1.15,1.15,1.77,0.92,0.91,0.91
1390,-0.23,-1.21,-0.26,-1.24,1.24,1.88,1.01,0.97,0.98
1404,-0.28,-1.33,-0.28,-1.32,1.32,1.99,1.04,1.04,1.05
1418,-0.30,-1.42,-0.30,-1.42,1.42,2.10,1.12,1.11,1.12
1432,-0.33,-1.52,-0.33,-1.52,1.52,2.22,1.19,1.19,1.19
1446,-0.35,-1.61,-0.36,-1.62,1.62,2.33,1.27,1.26,1.26
1461,-0.37,-1.70,-0.40,-1.73,1.73,2.45,1.36,1.33,1.33
1475,-0.42,-1.83,-0.43,-1.84,1.84,2.56,1.42,1.41,1.41
1490,-0.48,-1.97,-0.48,-1.96,1.96,2.69,1.48,1.49,1.49
1505,-0.54,-2.11,-0.52,-2.09,2.09,2.81,1.55,1.57,1.57
1520,-0.59,-2.24,-0.57,-2.21,2.21,2.93,1.62,1.65,1.65
1535,-0.64,-2.37,-0.62,-2.34,2.34,3.05,1.70,1.73,1.73
1550,-0.69,-2.50,-0.67,-2.48,2.48,3.18,1.79,1.81,1.81
1566,-0.70,-2.60,-0.72,-2.62,2.62,3.31,1.92,1.90,1.90
1582,-0.76,-2.75,-0.78,-2.76,2.76,3.44,2.00,1.99,1.99
1597,-0.80,-2.88,-0.83,-2.91,2.91,3.56,2.11,2.08,2.08
1613,-0.86,-3.03,-0.89,-3.06,3.06,3.69,2.20,2.17,2.17
1629,-0.93,-3.19,-0.94,-3.21,3.21,3.82,2.28,2.27,2.26
1646,-0.98,-3.34,-1.00,-3.36,3.36,3.95,2.38,2.36,2.36
1662,-1.03,-3.49,-1.05,-3.51,3.51,4.08,2.48,2.47,2.46
1679,-1.07,-3.64,-1.10,-3.66,3.66,4.21,2.59,2.57,2.57
1696,-1.14,-3.81,-1.14,-3.81,3.81,4.34,2.67,2.67,2.67
1713,-1.19,-3.97,-1.17,-3.95,3.95,4.46,2.76,2.78,2.78
1730,-1.22,-4.11,-1.19,-4.08,4.08,4.59,2.86,2.89,2.89
