frequency,raw
20.00,-11.36
20.20,-11.24
20.40,-11.12
20.61,-11.01
20.81,-10.89
21.02,-10.77
21.23,-10.65
21.44,-10.53
21.66,-10.42
21.87,-10.30
22.09,-10.18
22.31,-10.06
22.54,-9.94
22.76,-9.82
22.99,-9.70
23.22,-9.57
23.45,-9.45
23.69,-9.33
23.92,-9.21
24.16,-9.09
24.40,-8.97
24.65,-8.85
24.89,-8.73
25.14,-8.61
25.39,-8.49
25.65,-8.37
25.91,-8.25
26.16,-8.13
26.43,-8.02
26.69,-7.90
26.96,-7.78
27.23,-7.66
27.50,-7.54
27.77,-7.43
28.05,-7.31
28.33,-7.20
28.62,-7.08
28.90,-6.97
29.19,-6.86
29.48,-6.75
29.78,-6.63
30.08,-6.52
30.38,-6.42
30.68,-6.31
30.99,-6.20
31.30,-6.11
31.61,-6.01
31.93,-5.91
32.24,-5.81
32.57,-5.71
32.89,-5.61
33.22,-5.51
33.55,-5.42
33.89,-5.32
34.23,-5.23
34.57,-5.13
34.92,-5.03
35.27,-4.94
35.62,-4.85
35.97,-4.76
36.33,-4.67
36.70,-4.57
37.06,-4.49
37.43,-4.40
37.81,-4.32
38.19,-4.24
38.57,-4.16
38.95,-4.08
39.34,-4.00
39.74,-3.93
40.14,-3.86
40.54,-3.78
40.94,-3.71
41.35,-3.64
41.76,-3.58
42.18,-3.51
42.60,-3.44
43.03,-3.37
43.46,-3.30
43.90,-3.23
44.33,-3.15
44.78,-3.08
45.23,-3.00
45.68,-2.92
46.13,-2.85
46.60,-2.77
47.06,-2.70
47.53,-2.62
48.01,-2.55
48.49,-2.47
48.97,-2.39
49.46,-2.32
49.96,-2.24
50.46,-2.15
50.96,-2.07
51.47,-1.99
51.99,-1.91
52.51,-1.83
53.03,-1.76
53.56,-1.68
54.10,-1.61
54.64,-1.53
55.18,-1.46
55.74,-1.39
56.29,-1.33
56.86,-1.27
57.42,-1.21
58.00,-1.16
58.58,-1.11
59.16,-1.07
59.76,-1.03
60.35,-0.99
60.96,-0.96
61.57,-0.94
62.18,-0.92
62.80,-0.91
63.43,-0.90
64.07,-0.90
64.71,-0.89
65.35,-0.89
66.01,-0.90
66.67,-0.90
67.33,-0.90
68.01,-0.91
68.69,-0.92
69.37,-0.92
70.07,-0.93
70.77,-0.94
71.48,-0.94
72.19,-0.95
72.91,-0.95
73.64,-0.94
74.38,-0.93
75.12,-0.92
75.87,-0.90
76.63,-0.89
77.40,-0.87
78.17,-0.84
78.95,-0.82
79.74,-0.79
80.54,-0.76
81.35,-0.74
82.16,-0.72
82.98,-0.69
83.81,-0.67
84.65,-0.66
85.50,-0.64
86.35,-0.61
87.22,-0.59
88.09,-0.58
88.97,-0.56
89.86,-0.55
90.76,-0.53
91.66,-0.49
92.58,-0.46
93.51,-0.41
94.44,-0.36
95.39,-0.30
96.34,-0.23
97.30,-0.16
98.28,-0.08
99.26,-0.00
100.25,0.07
101.25,0.12
102.27,0.17
103.29,0.20
104.32,0.24
105.37,0.30
106.42,0.37
107.48,0.42
108.56,0.47
109.64,0.51
110.74,0.55
111.85,0.59
112.97,0.62
114.10,0.66
115.24,0.71
116.39,0.73
117.55,0.77
118.73,0.82
119.92,0.87
121.12,0.89
122.33,0.90
123.55,0.92
124.79,0.95
126.03,0.98
127.29,1.00
128.57,1.03
129.85,1.07
131.15,1.09
132.46,1.10
133.79,1.13
135.12,1.16
136.48,1.19
137.84,1.23
139.22,1.25
140.61,1.28
142.02,1.32
143.44,1.33
144.87,1.36
146.32,1.36
147.78,1.35
149.26,1.34
150.75,1.33
152.26,1.34
153.78,1.35
155.32,1.36
156.88,1.40
158.44,1.42
160.03,1.46
161.63,1.48
163.24,1.51
164.88,1.56
166.53,1.58
168.19,1.61
169.87,1.65
171.57,1.67
173.29,1.68
175.02,1.69
176.77,1.69
178.54,1.68
180.32,1.67
182.13,1.67
183.95,1.67
185.79,1.67
187.65,1.67
189.52,1.67
191.42,1.67
193.33,1.67
195.27,1.67
197.22,1.67
199.19,1.67
201.18,1.67
203.19,1.67
205.23,1.67
207.28,1.67
209.35,1.67
211.44,1.67
213.56,1.67
215.69,1.67
217.85,1.67
220.03,1.67
222.23,1.67
224.45,1.67
226.70,1.67
228.96,1.67
231.25,1.67
233.57,1.67
235.90,1.67
238.26,1.67
240.64,1.67
243.05,1.67
245.48,1.67
247.93,1.67
250.41,1.67
252.92,1.67
255.45,1.67
258.00,1.67
260.58,1.67
263.19,1.67
265.82,1.67
268.48,1.68
271.16,1.69
273.87,1.69
276.61,1.69
279.38,1.68
282.17,1.67
284.99,1.65
287.84,1.61
290.72,1.58
293.63,1.55
296.57,1.52
299.53,1.48
302.53,1.45
305.55,1.42
308.61,1.39
311.69,1.38
314.81,1.37
317.96,1.35
321.14,1.34
324.35,1.32
327.59,1.31
330.87,1.30
334.18,1.28
337.52,1.24
340.90,1.21
344.30,1.18
347.75,1.14
351.23,1.11
354.74,1.08
358.28,1.05
361.87,1.03
365.49,1.01
369.14,1.01
372.83,1.01
376.56,1.02
380.33,1.03
384.13,1.03
387.97,1.02
391.85,1.01
395.77,0.98
399.73,0.95
403.72,0.92
407.76,0.89
411.84,0.85
415.96,0.82
420.12,0.79
424.32,0.76
428.56,0.75
432.85,0.73
437.18,0.71
441.55,0.70
445.96,0.68
450.42,0.66
454.93,0.64
459.48,0.61
464.07,0.59
468.71,0.56
473.40,0.52
478.13,0.50
482.91,0.47
487.74,0.45
492.62,0.42
497.55,0.39
502.52,0.35
507.55,0.32
512.62,0.30
517.75,0.28
522.93,0.26
528.16,0.23
533.44,0.19
538.77,0.14
544.16,0.10
549.60,0.05
555.10,0.01
560.65,-0.04
566.25,-0.09
571.92,-0.16
577.64,-0.23
583.41,-0.29
589.25,-0.35
595.14,-0.44
601.09,-0.54
607.10,-0.63
613.17,-0.70
619.30,-0.78
625.50,-0.88
631.75,-0.96
638.07,-1.06
644.45,-1.13
650.89,-1.21
657.40,-1.27
663.98,-1.35
670.62,-1.42
677.32,-1.49
684.10,-1.56
690.94,-1.64
697.85,-1.70
704.83,-1.74
711.87,-1.78
718.99,-1.82
726.18,-1.86
733.44,-1.89
740.78,-1.90
748.19,-1.92
755.67,-1.94
763.23,-1.94
770.86,-1.93
778.57,-1.91
786.35,-1.89
794.22,-1.88
802.16,-1.86
810.18,-1.82
818.28,-1.78
826.46,-1.74
834.73,-1.69
843.08,-1.62
851.51,-1.56
860.02,-1.49
868.62,-1.42
877.31,-1.34
886.08,-1.25
894.94,-1.17
903.89,-1.08
912.93,-0.98
922.06,-0.88
931.28,-0.77
940.59,-0.67
950.00,-0.55
959.50,-0.45
969.09,-0.34
978.78,-0.23
988.57,-0.12
998.46,-0.02
1008.44,0.08
1018.53,0.18
1028.71,0.26
1039.00,0.35
1049.39,0.44
1059.88,0.52
1070.48,0.60
1081.19,0.67
1092.00,0.74
1102.92,0.81
1113.95,0.86
1125.09,0.91
1136.34,0.95
1147.70,0.98
1159.18,1.01
1170.77,1.02
1182.48,1.03
1194.30,1.04
1206.25,1.04
1218.31,1.04
1230.49,1.03
1242.80,1.02
1255.22,1.02
1267.78,1.02
1280.45,1.02
1293.26,1.02
1306.19,1.02
1319.25,1.02
1332.45,1.02
1345.77,1.02
1359.23,1.02
1372.82,1.02
1386.55,1.02
1400.41,1.02
1414.42,1.02
1428.56,1.02
1442.85,1.01
1457.28,1.00
1471.85,1.00
1486.57,1.00
1501.43,1.01
1516.45,1.03
1531.61,1.05
1546.93,1.08
1562.40,1.11
1578.02,1.13
1593.80,1.15
1609.74,1.18
1625.84,1.22
1642.10,1.26
1658.52,1.30
1675.10,1.35
1691.85,1.41
1708.77,1.47
1725.86,1.53
1743.12,1.61
1760.55,1.69
1778.15,1.78
1795.94,1.89
1813.90,2.00
1832.03,2.11
1850.36,2.23
1868.86,2.36
1887.55,2.48
1906.42,2.60
1925.49,2.74
1944.74,2.88
1964.19,3.01
1983.83,3.13
2003.67,3.26
2023.71,3.38
2043.94,3.51
2064.38,3.63
2085.03,3.74
2105.88,3.85
2126.94,3.95
2148.20,4.03
2169.69,4.10
2191.38,4.16
2213.30,4.19
2235.43,4.22
2257.78,4.25
2280.36,4.28
2303.17,4.30
2326.20,4.31
2349.46,4.30
2372.95,4.30
2396.68,4.28
2420.65,4.25
2444.86,4.22
2469.31,4.19
2494.00,4.14
2518.94,4.09
2544.13,4.03
2569.57,3.95
2595.27,3.86
2621.22,3.77
2647.43,3.66
2673.90,3.56
2700.64,3.45
2727.65,3.34
2754.93,3.23
2782.48,3.12
2810.30,3.00
2838.40,2.88
2866.79,2.76
2895.46,2.64
2924.41,2.52
2953.65,2.40
2983.19,2.28
3013.02,2.17
3043.15,2.06
3073.58,1.96
3104.32,1.87
3135.36,1.79
3166.72,1.73
3198.38,1.68
3230.37,1.66
3262.67,1.66
3295.30,1.67
3328.25,1.69
3361.53,1.75
3395.15,1.82
3429.10,1.92
3463.39,2.04
3498.03,2.16
3533.01,2.29
3568.34,2.43
3604.02,2.58
3640.06,2.74
3676.46,2.92
3713.22,3.10
3750.36,3.27
3787.86,3.45
3825.74,3.63
3864.00,3.81
3902.64,4.00
3941.66,4.19
3981.08,4.35
4020.89,4.52
4061.10,4.69
4101.71,4.86
4142.73,5.03
4184.15,5.21
4226.00,5.38
4268.26,5.54
4310.94,5.71
4354.05,5.90
4397.59,6.09
4441.56,6.30
4485.98,6.50
4530.84,6.71
4576.15,6.94
4621.91,7.18
4668.13,7.42
4714.81,7.70
4761.96,7.98
4809.58,8.28
4857.67,8.59
4906.25,8.92
4955.31,9.26
5004.87,9.60
5054.91,9.95
5105.46,10.31
5156.52,10.66
5208.08,10.99
5260.16,11.32
5312.77,11.61
5365.89,11.87
5419.55,12.10
5473.75,12.30
5528.49,12.46
5583.77,12.59
5639.61,12.68
5696.00,12.73
5752.96,12.76
5810.49,12.77
5868.60,12.76
5927.28,12.72
5986.56,12.65
6046.42,12.55
6106.89,12.41
6167.96,12.26
6229.64,12.06
6291.93,11.82
6354.85,11.53
6418.40,11.21
6482.58,10.85
6547.41,10.45
6612.88,10.00
6679.01,9.52
6745.80,8.99
6813.26,8.43
6881.39,7.88
6950.21,7.31
7019.71,6.74
7089.91,6.19
7160.81,5.65
7232.41,5.14
7304.74,4.64
7377.79,4.17
7451.56,3.73
7526.08,3.32
7601.34,2.94
7677.35,2.59
7754.13,2.27
7831.67,1.97
7909.98,1.69
7989.08,1.41
8068.98,1.14
8149.67,0.87
8231.16,0.62
8313.47,0.37
8396.61,0.14
8480.57,-0.08
8565.38,-0.29
8651.03,-0.49
8737.54,-0.66
8824.92,-0.81
8913.17,-0.93
9002.30,-1.04
9092.32,-1.11
9183.25,-1.17
9275.08,-1.19
9367.83,-1.17
9461.51,-1.12
9556.12,-1.04
9651.68,-0.93
9748.20,-0.79
9845.68,-0.64
9944.14,-0.44
10043.58,-0.24
10144.02,-0.02
10245.46,0.19
10347.91,0.40
10451.39,0.60
10555.91,0.80
10661.46,0.96
10768.08,1.10
10875.76,1.20
10984.52,1.27
11094.36,1.32
11205.31,1.34
11317.36,1.32
11430.53,1.29
11544.84,1.23
11660.29,1.14
11776.89,1.02
11894.66,0.89
12013.60,0.73
12133.74,0.53
12255.08,0.32
12377.63,0.08
12501.41,-0.17
12626.42,-0.45
12752.68,-0.73
12880.21,-1.02
13009.01,-1.32
13139.10,-1.63
13270.49,-1.93
13403.20,-2.21
13537.23,-2.47
13672.60,-2.72
13809.33,-2.94
13947.42,-3.15
14086.90,-3.35
14227.77,-3.54
14370.04,-3.72
14513.74,-3.91
14658.88,-4.11
14805.47,-4.32
14953.52,-4.54
15103.06,-4.74
15254.09,-4.94
15406.63,-5.12
15560.70,-5.29
15716.30,-5.43
15873.47,-5.54
16032.20,-5.61
16192.52,-5.62
16354.45,-5.60
16517.99,-5.55
16683.17,-5.48
16850.01,-5.38
17018.51,-5.27
17188.69,-5.16
17360.58,-5.05
17534.18,-4.96
17709.53,-4.88
17886.62,-4.81
18065.49,-4.75
18246.14,-4.73
18428.60,-4.74
18612.89,-4.76
18799.02,-4.78
18987.01,-4.83
19176.88,-4.89
19368.65,-4.97
19562.33,-5.07
19757.96,-5.18
19955.54,-5.31
