frequency,raw,error,smoothed,error_smoothed,equalization,parametric_eq,fixed_band_eq,equalized_raw,equalized_smoothed,target
20.00,-19.14,-19.83,-19.14,-19.83,6.00,6.30,2.80,-13.14,-13.14,0.69
20.20,-18.97,-19.70,-18.97,-19.69,6.00,6.30,2.88,-12.97,-12.97,0.73
20.40,-18.80,-19.55,-18.80,-19.56,6.00,6.30,2.96,-12.80,-12.80,0.76
20.61,-18.63,-19.42,-18.63,-19.42,6.00,6.29,3.04,-12.63,-12.63,0.78
20.81,-18.45,-19.27,-18.45,-19.28,6.00,6.29,3.13,-12.45,-12.45,0.83
21.02,-18.28,-19.14,-18.28,-19.14,6.00,6.29,3.22,-12.28,-12.28,0.86
21.23,-18.12,-18.99,-18.11,-18.99,6.00,6.29,3.31,-12.12,-12.11,0.87
21.44,-17.95,-18.84,-17.95,-18.85,6.00,6.28,3.40,-11.95,-11.95,0.89
21.66,-17.79,-18.70,-17.79,-18.70,6.00,6.28,3.50,-11.79,-11.79,0.91
21.87,-17.63,-18.55,-17.62,-18.55,6.00,6.28,3.60,-11.63,-11.62,0.92
22.09,-17.46,-18.40,-17.46,-18.40,6.00,6.28,3.70,-11.46,-11.46,0.94
22.31,-17.30,-18.24,-17.30,-18.25,6.00,6.27,3.81,-11.30,-11.30,0.94
22.54,-17.15,-18.10,-17.14,-18.10,6.00,6.27,3.91,-11.15,-11.14,0.95
22.76,-16.99,-17.95,-16.99,-17.94,6.00,6.27,4.03,-10.99,-10.99,0.96
22.99,-16.83,-17.79,-16.83,-17.80,6.00,6.27,4.14,-10.83,-10.83,0.96
23.22,-16.68,-17.65,-16.68,-17.65,6.00,6.26,4.26,-10.68,-10.68,0.97
23.45,-16.53,-17.51,-16.53,-17.51,6.00,6.26,4.37,-10.53,-10.53,0.98
23.69,-16.38,-17.37,-16.38,-17.37,6.00,6.26,4.50,-10.38,-10.38,0.99
23.92,-16.23,-17.22,-16.23,-17.22,6.00,6.25,4.62,-10.23,-10.23,1.00
24.16,-16.07,-17.07,-16.07,-17.08,6.00,6.25,4.75,-10.07,-10.07,1.01
24.40,-15.91,-16.92,-15.91,-16.92,6.00,6.25,4.87,-9.91,-9.91,1.01
24.65,-15.76,-16.76,-15.76,-16.76,6.00,6.24,5.00,-9.76,-9.76,1.00
24.89,-15.60,-16.60,-15.60,-16.60,6.00,6.24,5.14,-9.60,-9.60,1.00
25.14,-15.45,-16.45,-15.45,-16.45,6.00,6.24,5.27,-9.45,-9.45,1.00
25.39,-15.30,-16.30,-15.30,-16.30,6.00,6.23,5.40,-9.30,-9.30,1.00
25.65,-15.16,-16.16,-15.15,-16.15,6.00,6.23,5.54,-9.16,-9.15,1.00
25.91,-15.01,-16.00,-15.02,-16.02,6.00,6.22,5.68,-9.01,-9.02,0.99
26.16,-14.90,-15.90,-14.90,-15.90,6.00,6.22,5.81,-8.90,-8.90,1.00
26.43,-14.80,-15.80,-14.80,-15.79,6.00,6.22,5.95,-8.80,-8.80,1.00
26.69,-14.70,-15.70,-14.70,-15.70,6.00,6.21,6.08,-8.70,-8.70,1.00
26.96,-14.61,-15.60,-14.60,-15.60,6.00,6.21,6.22,-8.61,-8.60,0.99
27.23,-14.49,-15.48,-14.49,-15.49,6.00,6.20,6.35,-8.49,-8.49,0.99
27.50,-14.37,-15.36,-14.38,-15.37,6.00,6.20,6.47,-8.37,-8.38,0.99
27.77,-14.25,-15.23,-14.25,-15.23,6.00,6.19,6.60,-8.25,-8.25,0.98
28.05,-14.11,-15.09,-14.09,-15.07,6.00,6.19,6.72,-8.11,-8.09,0.98
28.33,-13.91,-14.88,-13.91,-14.89,6.00,6.18,6.83,-7.91,-7.91,0.97
28.62,-13.72,-14.70,-13.72,-14.69,6.00,6.18,6.94,-7.72,-7.72,0.98
28.90,-13.52,-14.49,-13.53,-14.50,6.00,6.17,7.04,-7.52,-7.53,0.97
29.19,-13.36,-14.32,-13.37,-14.34,6.00,6.17,7.13,-7.36,-7.37,0.96
29.48,-13.23,-14.20,-13.22,-14.19,6.00,6.16,7.21,-7.23,-7.22,0.97
29.78,-13.09,-14.06,-13.09,-14.06,6.00,6.16,7.29,-7.09,-7.09,0.97
30.08,-12.96,-13.93,-12.96,-13.92,6.00,6.15,7.35,-6.96,-6.96,0.97
30.38,-12.82,-13.78,-12.82,-13.78,6.00,6.14,7.41,-6.82,-6.82,0.95
30.68,-12.68,-13.63,-12.69,-13.64,6.00,6.14,7.45,-6.68,-6.69,0.95
30.99,-12.55,-13.49,-12.55,-13.49,6.00,6.13,7.48,-6.55,-6.55,0.94
31.30,-12.40,-13.34,-12.40,-13.34,6.00,6.12,7.50,-6.40,-6.40,0.94
31.61,-12.26,-13.20,-12.26,-13.19,6.00,6.12,7.51,-6.26,-6.26,0.94
31.93,-12.11,-13.04,-12.11,-13.04,6.00,6.11,7.50,-6.11,-6.11,0.92
32.24,-11.97,-12.88,-11.98,-12.89,6.00,6.10,7.49,-5.97,-5.98,0.91
32.57,-11.83,-12.74,-11.83,-12.74,6.00,6.09,7.46,-5.83,-5.83,0.91
32.89,-11.69,-12.59,-11.67,-12.57,6.00,6.09,7.43,-5.69,-5.67,0.91
33.22,-11.48,-12.38,-11.47,-12.37,6.00,6.08,7.38,-5.48,-5.47,0.90
33.55,-11.25,-12.15,-11.25,-12.15,6.00,6.07,7.33,-5.25,-5.25,0.90
33.89,-11.02,-11.92,-11.04,-11.94,6.00,6.06,7.26,-5.02,-5.04,0.90
34.23,-10.85,-11.75,-10.86,-11.75,6.00,6.05,7.19,-4.85,-4.86,0.89
34.57,-10.72,-11.60,-10.71,-11.59,6.00,6.04,7.11,-4.72,-4.71,0.88
34.92,-10.58,-11.46,-10.59,-11.46,6.00,6.03,7.03,-4.58,-4.59,0.88
35.27,-10.47,-11.35,-10.47,-11.34,6.00,6.02,6.94,-4.47,-4.47,0.88
35.62,-10.37,-11.23,-10.37,-11.23,6.00,6.01,6.85,-4.37,-4.37,0.86
35.97,-10.27,-11.13,-10.27,-11.13,6.00,6.00,6.76,-4.27,-4.27,0.86
36.33,-10.17,-11.02,-10.18,-11.03,6.00,5.99,6.66,-4.17,-4.18,0.85
36.70,-10.08,-10.93,-10.08,-10.92,6.00,5.98,6.56,-4.08,-4.08,0.85
37.06,-9.97,-10.80,-9.95,-10.79,6.00,5.97,6.46,-3.97,-3.95,0.84
37.43,-9.79,-10.62,-9.79,-10.62,6.00,5.96,6.36,-3.79,-3.79,0.83
37.81,-9.61,-10.44,-9.62,-10.44,6.00,5.95,6.26,-3.61,-3.62,0.83
38.19,-9.44,-10.25,-9.44,-10.26,6.00,5.93,6.16,-3.44,-3.44,0.81
38.57,-9.29,-10.10,-9.29,-10.09,6.00,5.92,6.07,-3.29,-3.29,0.81
38.95,-9.14,-9.94,-9.15,-9.95,6.00,5.91,5.97,-3.14,-3.15,0.80
39.34,-9.03,-9.82,-9.04,-9.82,6.00,5.89,5.88,-3.03,-3.04,0.79
39.74,-8.93,-9.70,-8.92,-9.70,6.00,5.88,5.79,-2.93,-2.92,0.77
40.14,-8.80,-9.58,-8.79,-9.57,6.00,5.86,5.70,-2.80,-2.79,0.78
40.54,-8.63,-9.40,-8.63,-9.41,6.00,5.85,5.61,-2.63,-2.63,0.77
40.94,-8.46,-9.23,-8.46,-9.22,6.00,5.83,5.53,-2.46,-2.46,0.77
41.35,-8.29,-9.04,-8.28,-9.03,6.00,5.82,5.45,-2.29,-2.28,0.75
41.76,-8.13,-8.86,-8.14,-8.87,6.00,5.80,5.37,-2.13,-2.14,0.73
42.18,-8.02,-8.74,-8.06,-8.77,6.00,5.78,5.30,-2.02,-2.06,0.72
42.60,-8.00,-8.69,-8.00,-8.69,6.00,5.77,5.23,-2.00,-2.00,0.69
43.03,-7.97,-8.64,-7.90,-8.57,6.00,5.75,5.17,-1.97,-1.90,0.67
43.46,-7.77,-8.42,-7.77,-8.41,6.00,5.73,5.11,-1.77,-1.77,0.65
43.90,-7.57,-8.17,-7.63,-8.23,6.00,5.71,5.05,-1.57,-1.63,0.60
44.33,-7.52,-8.09,-7.53,-8.10,6.00,5.69,5.00,-1.52,-1.53,0.57
44.78,-7.52,-8.05,-7.50,-8.04,6.00,5.67,4.95,-1.52,-1.50,0.53
45.23,-7.51,-8.02,-7.50,-8.01,6.00,5.65,4.90,-1.51,-1.50,0.51
45.68,-7.48,-7.96,-7.48,-7.96,6.00,5.62,4.86,-1.48,-1.48,0.48
46.13,-7.44,-7.90,-7.43,-7.89,6.00,5.60,4.82,-1.44,-1.43,0.46
46.60,-7.36,-7.81,-7.36,-7.81,6.00,5.58,4.79,-1.36,-1.36,0.45
47.06,-7.29,-7.72,-7.32,-7.76,6.00,5.55,4.75,-1.29,-1.32,0.43
47.53,-7.27,-7.69,-7.28,-7.70,6.00,5.53,4.73,-1.27,-1.28,0.42
48.01,-7.25,-7.67,-7.18,-7.59,6.00,5.50,4.70,-1.25,-1.18,0.42
48.49,-7.05,-7.46,-7.05,-7.46,6.00,5.47,4.68,-1.05,-1.05,0.41
48.97,-6.85,-7.25,-6.93,-7.33,6.00,5.45,4.66,-0.85,-0.93,0.40
49.46,-6.84,-7.23,-6.84,-7.23,6.00,5.42,4.65,-0.84,-0.84,0.39
49.96,-6.84,-7.22,-6.79,-7.18,6.00,5.39,4.63,-0.84,-0.79,0.38
50.46,-6.71,-7.10,-6.72,-7.11,6.00,5.36,4.62,-0.71,-0.72,0.39
50.96,-6.57,-6.97,-6.56,-6.95,6.00,5.32,4.62,-0.57,-0.56,0.40
51.47,-6.37,-6.76,-6.37,-6.75,6.01,5.29,4.61,-0.36,-0.35,0.39
51.99,-6.16,-6.53,-6.18,-6.56,6.03,5.26,4.60,-0.13,-0.15,0.37
52.51,-6.04,-6.40,-6.04,-6.39,6.04,5.22,4.60,-0.00,-0.00,0.36
53.03,-5.93,-6.26,-5.96,-6.30,6.03,5.19,4.60,0.10,0.06,0.33
53.56,-5.93,-6.23,-5.92,-6.22,6.00,5.15,4.60,0.07,0.07,0.30
54.10,-5.91,-6.16,-5.87,-6.13,5.94,5.11,4.60,0.03,0.07,0.25
54.64,-5.78,-5.99,-5.79,-6.00,5.87,5.07,4.59,0.09,0.08,0.21
55.18,-5.66,-5.82,-5.67,-5.83,5.77,5.03,4.59,0.11,0.10,0.16
55.74,-5.53,-5.64,-5.52,-5.63,5.66,4.98,4.59,0.12,0.14,0.10
56.29,-5.40,-5.46,-5.39,-5.45,5.52,4.94,4.59,0.12,0.13,0.06
56.86,-5.27,-5.27,-5.31,-5.30,5.37,4.90,4.58,0.09,0.06,-0.00
57.42,-5.24,-5.17,-5.25,-5.18,5.20,4.85,4.58,-0.04,-0.05,-0.07
58.00,-5.24,-5.11,-5.19,-5.06,5.04,4.80,4.57,-0.20,-0.16,-0.13
58.58,-5.11,-4.92,-5.10,-4.92,4.88,4.75,4.56,-0.24,-0.23,-0.19
59.16,-4.97,-4.73,-4.98,-4.73,4.73,4.70,4.54,-0.24,-0.25,-0.24
59.76,-4.84,-4.54,-4.87,-4.57,4.59,4.64,4.53,-0.25,-0.29,-0.30
60.35,-4.79,-4.42,-4.80,-4.44,4.45,4.59,4.51,-0.34,-0.35,-0.37
60.96,-4.79,-4.36,-4.73,-4.30,4.31,4.53,4.48,-0.48,-0.42,-0.43
61.57,-4.66,-4.16,-4.67,-4.17,4.17,4.47,4.45,-0.49,-0.50,-0.50
62.18,-4.56,-4.00,-4.60,-4.05,4.04,4.41,4.42,-0.52,-0.57,-0.56
62.80,-4.56,-3.95,-4.54,-3.93,3.92,4.35,4.39,-0.64,-0.63,-0.61
63.43,-4.52,-3.86,-4.50,-3.84,3.82,4.29,4.35,-0.70,-0.68,-0.66
64.07,-4.45,-3.74,-4.45,-3.74,3.74,4.22,4.30,-0.71,-0.71,-0.71
64.71,-4.37,-3.62,-4.37,-3.61,3.68,4.15,4.25,-0.69,-0.69,-0.75
65.35,-4.33,-3.53,-4.34,-3.54,3.63,4.08,4.20,-0.70,-0.72,-0.80
66.01,-4.33,-3.49,-4.38,-3.54,3.58,4.01,4.15,-0.75,-0.80,-0.84
66.67,-4.48,-3.60,-4.45,-3.57,3.54,3.94,4.09,-0.93,-0.90,-0.88
67.33,-4.53,-3.62,-4.48,-3.57,3.51,3.86,4.02,-1.02,-0.98,-0.91
68.01,-4.46,-3.52,-4.47,-3.53,3.46,3.79,3.96,-1.00,-1.01,-0.94
68.69,-4.37,-3.40,-4.41,-3.44,3.40,3.71,3.89,-0.97,-1.01,-0.97
69.37,-4.33,-3.33,-4.33,-3.33,3.34,3.62,3.82,-0.99,-1.00,-1.00
70.07,-4.31,-3.28,-4.26,-3.23,3.25,3.54,3.75,-1.06,-1.01,-1.04
70.77,-4.15,-3.10,-4.20,-3.14,3.14,3.46,3.67,-1.01,-1.05,-1.05
71.48,-4.10,-3.02,-4.10,-3.02,3.03,3.37,3.59,-1.07,-1.07,-1.08
72.19,-4.06,-2.95,-4.01,-2.90,2.92,3.28,3.52,-1.14,-1.09,-1.11
72.91,-3.89,-2.75,-3.95,-2.80,2.80,3.19,3.44,-1.09,-1.15,-1.14
73.64,-3.87,-2.70,-3.86,-2.69,2.68,3.10,3.36,-1.19,-1.17,-1.17
74.38,-3.81,-2.61,-3.78,-2.58,2.57,3.00,3.28,-1.24,-1.21,-1.20
75.12,-3.69,-2.45,-3.72,-2.49,2.46,2.91,3.20,-1.23,-1.26,-1.24
75.87,-3.66,-2.39,-3.63,-2.36,2.37,2.81,3.11,-1.29,-1.26,-1.27
76.63,-3.54,-2.24,-3.54,-2.24,2.27,2.71,3.03,-1.27,-1.26,-1.30
77.40,-3.45,-2.13,-3.47,-2.15,2.19,2.61,2.95,-1.26,-1.28,-1.32
78.17,-3.42,-2.07,-3.43,-2.09,2.11,2.51,2.87,-1.31,-1.32,-1.35
78.95,-3.42,-2.06,-3.42,-2.06,2.04,2.41,2.80,-1.38,-1.38,-1.36
79.74,-3.42,-2.04,-3.39,-2.01,1.98,2.31,2.72,-1.44,-1.41,-1.38
80.54,-3.34,-1.94,-3.33,-1.93,1.92,2.21,2.64,-1.42,-1.41,-1.40
81.35,-3.24,-1.83,-3.26,-1.85,1.86,2.11,2.56,-1.38,-1.40,-1.41
82.16,-3.19,-1.77,-3.22,-1.80,1.80,2.01,2.49,-1.39,-1.42,-1.42
82.98,-3.19,-1.77,-3.18,-1.76,1.74,1.91,2.41,-1.45,-1.44,-1.42
83.81,-3.19,-1.77,-3.13,-1.71,1.69,1.81,2.34,-1.50,-1.44,-1.42
84.65,-3.04,-1.61,-3.06,-1.64,1.64,1.71,2.27,-1.40,-1.42,-1.43
85.50,-2.96,-1.54,-2.99,-1.57,1.61,1.62,2.20,-1.35,-1.38,-1.42
86.35,-2.96,-1.54,-2.95,-1.53,1.59,1.52,2.13,-1.37,-1.36,-1.42
87.22,-2.96,-1.54,-2.95,-1.54,1.56,1.43,2.07,-1.40,-1.39,-1.42
88.09,-2.96,-1.54,-2.96,-1.55,1.54,1.34,2.00,-1.42,-1.42,-1.42
88.97,-2.96,-1.56,-2.97,-1.56,1.51,1.26,1.94,-1.45,-1.46,-1.40
89.86,-2.96,-1.56,-2.95,-1.55,1.48,1.18,1.87,-1.48,-1.47,-1.40
90.76,-2.94,-1.53,-2.90,-1.49,1.46,1.10,1.81,-1.48,-1.44,-1.41
91.66,-2.81,-1.40,-2.83,-1.42,1.43,1.03,1.75,-1.38,-1.41,-1.41
92.58,-2.74,-1.31,-2.77,-1.35,1.39,0.96,1.69,-1.35,-1.38,-1.43
93.51,-2.74,-1.32,-2.73,-1.30,1.35,0.89,1.64,-1.39,-1.38,-1.42
94.44,-2.74,-1.30,-2.73,-1.29,1.32,0.83,1.58,-1.42,-1.41,-1.44
95.39,-2.74,-1.29,-2.74,-1.28,1.29,0.78,1.52,-1.45,-1.45,-1.45
96.34,-2.74,-1.25,-2.74,-1.26,1.26,0.73,1.47,-1.48,-1.48,-1.49
97.30,-2.74,-1.24,-2.74,-1.24,1.23,0.68,1.42,-1.51,-1.51,-1.50
98.28,-2.74,-1.21,-2.75,-1.22,1.19,0.64,1.37,-1.55,-1.56,-1.53
99.26,-2.74,-1.19,-2.75,-1.20,1.14,0.61,1.32,-1.60,-1.61,-1.55
100.25,-2.73,-1.15,-2.70,-1.12,1.08,0.58,1.27,-1.65,-1.62,-1.58
101.25,-2.66,-1.04,-2.63,-1.02,1.02,0.55,1.23,-1.64,-1.62,-1.61
102.27,-2.51,-0.86,-2.56,-0.91,0.94,0.53,1.18,-1.57,-1.62,-1.65
103.29,-2.51,-0.81,-2.51,-0.82,0.87,0.51,1.14,-1.64,-1.64,-1.70
104.32,-2.51,-0.78,-2.50,-0.76,0.80,0.50,1.10,-1.71,-1.70,-1.73
105.37,-2.51,-0.73,-2.51,-0.73,0.72,0.49,1.06,-1.79,-1.79,-1.78
106.42,-2.51,-0.67,-2.51,-0.67,0.65,0.49,1.02,-1.86,-1.86,-1.84
107.48,-2.51,-0.61,-2.51,-0.61,0.59,0.49,0.98,-1.92,-1.92,-1.90
108.56,-2.51,-0.53,-2.51,-0.54,0.53,0.49,0.94,-1.98,-1.98,-1.98
109.64,-2.51,-0.47,-2.51,-0.47,0.46,0.49,0.91,-2.05,-2.05,-2.04
110.74,-2.51,-0.40,-2.51,-0.40,0.39,0.50,0.87,-2.12,-2.12,-2.11
111.85,-2.51,-0.33,-2.51,-0.33,0.31,0.51,0.84,-2.20,-2.20,-2.18
112.97,-2.51,-0.25,-2.51,-0.26,0.24,0.52,0.81,-2.27,-2.27,-2.26
114.10,-2.51,-0.18,-2.51,-0.18,0.18,0.54,0.78,-2.33,-2.33,-2.33
115.24,-2.51,-0.11,-2.50,-0.09,0.14,0.55,0.76,-2.37,-2.36,-2.40
116.39,-2.51,-0.03,-2.52,-0.04,0.09,0.57,0.73,-2.42,-2.42,-2.48
117.55,-2.52,0.02,-2.57,-0.03,0.05,0.59,0.71,-2.47,-2.52,-2.54
118.73,-2.68,-0.08,-2.65,-0.05,0.02,0.61,0.69,-2.66,-2.63,-2.60
119.92,-2.74,-0.09,-2.71,-0.06,-0.01,0.63,0.67,-2.75,-2.72,-2.65
121.12,-2.74,-0.04,-2.75,-0.05,-0.02,0.66,0.65,-2.76,-2.77,-2.70
122.33,-2.74,0.00,-2.73,0.00,-0.02,0.68,0.64,-2.76,-2.75,-2.74
123.55,-2.74,0.02,-2.74,0.04,0.00,0.71,0.63,-2.74,-2.73,-2.76
124.79,-2.74,0.07,-2.78,0.02,0.03,0.73,0.62,-2.71,-2.74,-2.81
126.03,-2.89,-0.05,-2.87,-0.03,0.08,0.76,0.61,-2.81,-2.79,-2.84
127.29,-3.01,-0.14,-3.02,-0.15,0.16,0.79,0.60,-2.85,-2.86,-2.87
128.57,-3.19,-0.28,-3.19,-0.29,0.27,0.82,0.59,-2.92,-2.92,-2.91
129.85,-3.40,-0.47,-3.35,-0.42,0.42,0.85,0.59,-2.98,-2.93,-2.93
131.15,-3.49,-0.53,-3.54,-0.58,0.61,0.89,0.59,-2.88,-2.93,-2.96
132.46,-3.75,-0.75,-3.75,-0.76,0.81,0.92,0.59,-2.94,-2.94,-3.00
133.79,-4.01,-0.98,-4.00,-0.97,1.02,0.96,0.59,-2.99,-2.98,-3.03
135.12,-4.27,-1.20,-4.28,-1.22,1.21,1.00,0.60,-3.06,-3.07,-3.07
136.48,-4.54,-1.44,-4.54,-1.44,1.38,1.03,0.60,-3.16,-3.16,-3.10
137.84,-4.77,-1.64,-4.76,-1.61,1.52,1.07,0.61,-3.25,-3.24,-3.13
139.22,-4.91,-1.73,-4.91,-1.73,1.63,1.11,0.62,-3.28,-3.28,-3.18
140.61,-5.00,-1.77,-4.99,-1.77,1.71,1.16,0.63,-3.29,-3.28,-3.23
142.02,-5.01,-1.76,-5.00,-1.75,1.77,1.20,0.64,-3.24,-3.24,-3.25
143.44,-5.01,-1.72,-5.02,-1.73,1.79,1.25,0.65,-3.22,-3.23,-3.29
144.87,-5.01,-1.68,-5.06,-1.73,1.79,1.29,0.67,-3.22,-3.27,-3.33
146.32,-5.16,-1.78,-5.13,-1.75,1.78,1.34,0.68,-3.38,-3.34,-3.38
147.78,-5.24,-1.82,-5.20,-1.77,1.77,1.38,0.70,-3.47,-3.43,-3.42
149.26,-5.24,-1.75,-5.28,-1.79,1.77,1.43,0.72,-3.47,-3.51,-3.49
150.75,-5.34,-1.78,-5.34,-1.79,1.78,1.48,0.74,-3.56,-3.56,-3.56
152.26,-5.43,-1.80,-5.40,-1.76,1.78,1.52,0.76,-3.65,-3.61,-3.63
153.78,-5.47,-1.76,-5.48,-1.77,1.78,1.56,0.78,-3.69,-3.70,-3.71
155.32,-5.52,-1.72,-5.56,-1.77,1.76,1.60,0.80,-3.76,-3.80,-3.80
156.88,-5.68,-1.80,-5.63,-1.76,1.74,1.64,0.83,-3.94,-3.89,-3.88
158.44,-5.70,-1.75,-5.69,-1.74,1.71,1.68,0.85,-3.99,-3.98,-3.95
160.03,-5.70,-1.68,-5.71,-1.70,1.66,1.71,0.88,-4.04,-4.05,-4.02
161.63,-5.70,-1.62,-5.70,-1.62,1.62,1.74,0.90,-4.08,-4.08,-4.08
163.24,-5.70,-1.57,-5.70,-1.57,1.57,1.76,0.93,-4.13,-4.13,-4.13
164.88,-5.70,-1.53,-5.70,-1.52,1.53,1.78,0.96,-4.17,-4.17,-4.17
166.53,-5.70,-1.49,-5.70,-1.49,1.50,1.79,0.99,-4.20,-4.20,-4.21
168.19,-5.70,-1.46,-5.69,-1.45,1.50,1.80,1.02,-4.20,-4.19,-4.24
169.87,-5.70,-1.44,-5.70,-1.44,1.51,1.81,1.05,-4.19,-4.19,-4.26
171.57,-5.70,-1.44,-5.75,-1.49,1.53,1.81,1.08,-4.17,-4.22,-4.26
173.29,-5.84,-1.58,-5.82,-1.56,1.56,1.81,1.12,-4.28,-4.27,-4.26
175.02,-5.93,-1.68,-5.89,-1.64,1.59,1.80,1.15,-4.34,-4.31,-4.25
176.77,-5.93,-1.68,-5.94,-1.69,1.62,1.80,1.19,-4.31,-4.32,-4.25
178.54,-5.93,-1.69,-5.94,-1.70,1.66,1.79,1.22,-4.27,-4.28,-4.24
180.32,-5.93,-1.69,-5.93,-1.69,1.69,1.78,1.26,-4.24,-4.24,-4.24
182.13,-5.93,-1.70,-5.91,-1.68,1.72,1.77,1.30,-4.21,-4.20,-4.23
183.95,-5.93,-1.70,-5.93,-1.70,1.74,1.77,1.34,-4.19,-4.19,-4.23
185.79,-5.93,-1.69,-5.99,-1.74,1.76,1.76,1.38,-4.17,-4.23,-4.24
187.65,-6.09,-1.82,-6.06,-1.79,1.78,1.76,1.42,-4.31,-4.27,-4.26
189.52,-6.15,-1.87,-6.11,-1.83,1.81,1.76,1.46,-4.34,-4.30,-4.28
191.42,-6.15,-1.85,-6.16,-1.85,1.85,1.77,1.50,-4.30,-4.31,-4.30
193.33,-6.15,-1.83,-6.20,-1.88,1.88,1.78,1.54,-4.27,-4.31,-4.32
195.27,-6.26,-1.93,-6.26,-1.92,1.92,1.79,1.58,-4.34,-4.34,-4.33
197.22,-6.36,-2.01,-6.32,-1.97,1.96,1.81,1.62,-4.40,-4.37,-4.35
199.19,-6.38,-1.99,-6.37,-2.00,1.99,1.83,1.67,-4.39,-4.38,-4.39
201.18,-6.38,-1.99,-6.41,-2.01,2.02,1.86,1.71,-4.36,-4.39,-4.39
203.19,-6.43,-2.02,-6.46,-2.04,2.05,1.89,1.75,-4.38,-4.41,-4.41
205.23,-6.55,-2.12,-6.53,-2.10,2.09,1.93,1.80,-4.46,-4.44,-4.43
207.28,-6.61,-2.17,-6.57,-2.13,2.12,1.97,1.84,-4.49,-4.45,-4.44
209.35,-6.61,-2.15,-6.62,-2.15,2.16,2.02,1.88,-4.45,-4.46,-4.46
211.44,-6.61,-2.12,-6.67,-2.19,2.21,2.07,1.92,-4.40,-4.46,-4.49
213.56,-6.77,-2.28,-6.73,-2.24,2.26,2.13,1.96,-4.51,-4.47,-4.49
215.69,-6.84,-2.34,-6.80,-2.30,2.31,2.19,2.00,-4.53,-4.49,-4.50
217.85,-6.84,-2.32,-6.88,-2.37,2.36,2.25,2.04,-4.48,-4.52,-4.52
220.03,-6.93,-2.40,-6.94,-2.41,2.41,2.31,2.08,-4.52,-4.54,-4.53
222.23,-7.03,-2.48,-7.01,-2.46,2.45,2.38,2.11,-4.58,-4.56,-4.55
224.45,-7.07,-2.52,-7.06,-2.51,2.48,2.44,2.14,-4.59,-4.59,-4.55
226.70,-7.07,-2.52,-7.08,-2.52,2.49,2.49,2.17,-4.58,-4.59,-4.55
228.96,-7.07,-2.50,-7.07,-2.51,2.49,2.55,2.20,-4.58,-4.58,-4.57
231.25,-7.07,-2.50,-7.07,-2.50,2.49,2.59,2.22,-4.58,-4.58,-4.57
233.57,-7.07,-2.49,-7.07,-2.49,2.50,2.63,2.24,-4.57,-4.57,-4.58
235.90,-7.07,-2.48,-7.07,-2.49,2.51,2.65,2.26,-4.56,-4.56,-4.59
238.26,-7.07,-2.48,-7.05,-2.47,2.53,2.66,2.27,-4.54,-4.52,-4.59
240.64,-7.07,-2.49,-7.07,-2.49,2.56,2.66,2.28,-4.51,-4.51,-4.58
243.05,-7.07,-2.50,-7.13,-2.55,2.58,2.65,2.29,-4.49,-4.54,-4.57
245.48,-7.23,-2.66,-7.20,-2.63,2.61,2.61,2.29,-4.62,-4.60,-4.57
247.93,-7.29,-2.73,-7.27,-2.71,2.62,2.57,2.29,-4.67,-4.66,-4.56
250.41,-7.29,-2.72,-7.28,-2.72,2.63,2.51,2.28,-4.66,-4.66,-4.57
252.92,-7.25,-2.70,-7.22,-2.67,2.63,2.45,2.27,-4.62,-4.59,-4.55
255.45,-7.10,-2.57,-7.14,-2.60,2.63,2.36,2.25,-4.47,-4.51,-4.53
258.00,-7.07,-2.54,-7.08,-2.55,2.63,2.28,2.23,-4.44,-4.45,-4.53
260.58,-7.07,-2.54,-7.06,-2.53,2.62,2.18,2.21,-4.45,-4.44,-4.53
263.19,-7.07,-2.56,-7.07,-2.55,2.60,2.07,2.18,-4.47,-4.47,-4.51
265.82,-7.07,-2.56,-7.08,-2.58,2.58,1.97,2.14,-4.49,-4.50,-4.51
268.48,-7.07,-2.58,-7.09,-2.60,2.56,1.86,2.11,-4.51,-4.53,-4.49
271.16,-7.07,-2.60,-7.04,-2.57,2.53,1.75,2.07,-4.54,-4.51,-4.47
273.87,-6.98,-2.52,-6.94,-2.49,2.47,1.63,2.03,-4.51,-4.47,-4.46
276.61,-6.73,-2.31,-6.80,-2.37,2.37,1.52,1.98,-4.36,-4.43,-4.42
279.38,-6.63,-2.22,-6.62,-2.22,2.21,1.42,1.93,-4.42,-4.41,-4.41
282.17,-6.44,-2.06,-6.44,-2.05,2.00,1.31,1.88,-4.44,-4.43,-4.38
284.99,-6.22,-1.86,-6.20,-1.84,1.75,1.21,1.83,-4.47,-4.45,-4.36
287.84,-5.89,-1.56,-5.86,-1.53,1.47,1.11,1.77,-4.42,-4.39,-4.33
290.72,-5.46,-1.16,-5.47,-1.17,1.17,1.01,1.71,-4.29,-4.30,-4.30
293.63,-5.05,-0.78,-5.07,-0.80,0.86,0.92,1.65,-4.19,-4.21,-4.27
296.57,-4.70,-0.45,-4.71,-0.46,0.55,0.83,1.59,-4.15,-4.16,-4.25
299.53,-4.41,-0.19,-4.41,-0.19,0.23,0.75,1.53,-4.18,-4.18,-4.22
302.53,-4.14,0.06,-4.14,0.06,-0.08,0.67,1.47,-4.22,-4.21,-4.20
305.55,-3.88,0.29,-3.87,0.30,-0.36,0.59,1.40,-4.24,-4.23,-4.17
308.61,-3.61,0.54,-3.60,0.55,-0.60,0.52,1.34,-4.21,-4.19,-4.15
311.69,-3.35,0.78,-3.33,0.80,-0.79,0.45,1.28,-4.14,-4.12,-4.13
314.81,-3.09,1.02,-3.12,1.00,-0.94,0.38,1.21,-4.03,-4.06,-4.11
317.96,-2.97,1.14,-2.99,1.12,-1.04,0.32,1.15,-4.01,-4.03,-4.11
321.14,-2.96,1.15,-2.93,1.18,-1.09,0.25,1.08,-4.05,-4.03,-4.11
324.35,-2.96,1.15,-2.96,1.14,-1.10,0.20,1.02,-4.06,-4.07,-4.11
327.59,-3.00,1.10,-3.02,1.08,-1.07,0.14,0.95,-4.07,-4.09,-4.10
330.87,-3.14,0.95,-3.11,0.99,-1.00,0.09,0.89,-4.14,-4.11,-4.09
334.18,-3.19,0.90,-3.22,0.87,-0.92,0.04,0.83,-4.11,-4.14,-4.09
337.52,-3.32,0.76,-3.32,0.76,-0.83,-0.01,0.76,-4.15,-4.14,-4.08
340.90,-3.40,0.65,-3.38,0.68,-0.73,-0.06,0.70,-4.13,-4.11,-4.05
344.30,-3.42,0.62,-3.41,0.63,-0.64,-0.11,0.63,-4.06,-4.06,-4.04
347.75,-3.42,0.61,-3.42,0.60,-0.57,-0.15,0.57,-3.99,-3.99,-4.03
351.23,-3.42,0.58,-3.46,0.54,-0.50,-0.19,0.51,-3.92,-3.96,-4.00
354.74,-3.52,0.46,-3.52,0.45,-0.44,-0.23,0.45,-3.96,-3.97,-3.98
358.28,-3.63,0.32,-3.60,0.36,-0.39,-0.27,0.39,-4.02,-3.99,-3.95
361.87,-3.65,0.28,-3.65,0.28,-0.33,-0.31,0.32,-3.98,-3.98,-3.93
365.49,-3.65,0.26,-3.65,0.25,-0.27,-0.35,0.26,-3.92,-3.92,-3.91
369.14,-3.65,0.24,-3.64,0.25,-0.20,-0.38,0.20,-3.85,-3.84,-3.89
372.83,-3.65,0.21,-3.67,0.19,-0.14,-0.42,0.14,-3.79,-3.81,-3.86
376.56,-3.70,0.14,-3.73,0.11,-0.08,-0.45,0.08,-3.78,-3.81,-3.84
380.33,-3.84,-0.03,-3.80,0.01,-0.03,-0.49,0.02,-3.87,-3.83,-3.81
384.13,-3.87,-0.07,-3.86,-0.06,0.01,-0.52,-0.04,-3.86,-3.85,-3.80
387.97,-3.87,-0.08,-3.88,-0.10,0.06,-0.55,-0.10,-3.81,-3.83,-3.79
391.85,-3.87,-0.09,-3.87,-0.10,0.10,-0.58,-0.15,-3.77,-3.78,-3.78
395.77,-3.87,-0.10,-3.87,-0.10,0.13,-0.61,-0.21,-3.74,-3.74,-3.77
399.73,-3.87,-0.11,-3.87,-0.11,0.14,-0.64,-0.27,-3.73,-3.73,-3.76
403.72,-3.87,-0.12,-3.87,-0.12,0.13,-0.67,-0.32,-3.74,-3.74,-3.75
407.76,-3.87,-0.13,-3.89,-0.14,0.11,-0.70,-0.38,-3.76,-3.77,-3.74
411.84,-3.87,-0.14,-3.87,-0.13,0.09,-0.73,-0.44,-3.78,-3.78,-3.73
415.96,-3.87,-0.14,-3.81,-0.08,0.06,-0.75,-0.49,-3.81,-3.75,-3.73
420.12,-3.70,0.03,-3.74,-0.01,0.02,-0.78,-0.55,-3.68,-3.72,-3.73
424.32,-3.65,0.08,-3.69,0.04,-0.03,-0.81,-0.60,-3.68,-3.71,-3.73
428.56,-3.65,0.08,-3.64,0.09,-0.08,-0.83,-0.65,-3.73,-3.72,-3.73
432.85,-3.65,0.08,-3.61,0.12,-0.12,-0.86,-0.70,-3.77,-3.73,-3.73
