frequency,raw
20.00,-2.52
20.20,-2.51
20.40,-2.46
20.61,-2.38
20.81,-2.33
21.02,-2.25
21.23,-2.17
21.44,-2.09
21.66,-2.04
21.87,-1.97
22.09,-1.91
22.31,-1.83
22.54,-1.78
22.76,-1.70
22.99,-1.63
23.22,-1.57
23.45,-1.49
23.69,-1.42
23.92,-1.36
24.16,-1.30
24.40,-1.24
24.65,-1.17
24.89,-1.11
25.14,-1.04
25.39,-0.98
25.65,-0.90
25.91,-0.84
26.16,-0.79
26.43,-0.72
26.69,-0.65
26.96,-0.60
27.23,-0.53
27.50,-0.46
27.77,-0.42
28.05,-0.37
28.33,-0.30
28.62,-0.23
28.90,-0.18
29.19,-0.12
29.48,-0.05
29.78,0.00
30.08,0.06
30.38,0.13
30.68,0.19
30.99,0.24
31.30,0.28
31.61,0.33
31.93,0.40
32.24,0.46
32.57,0.51
32.89,0.56
33.22,0.61
33.55,0.66
33.89,0.71
34.23,0.77
34.57,0.82
34.92,0.86
35.27,0.93
35.62,0.98
35.97,1.02
36.33,1.07
36.70,1.12
37.06,1.17
37.43,1.21
37.81,1.26
38.19,1.31
38.57,1.35
38.95,1.40
39.34,1.44
39.74,1.47
40.14,1.52
40.54,1.55
40.94,1.61
41.35,1.64
41.76,1.67
42.18,1.70
42.60,1.75
43.03,1.79
43.46,1.82
43.90,1.84
44.33,1.88
44.78,1.91
45.23,1.94
45.68,1.98
46.13,2.00
46.60,2.03
47.06,2.08
47.53,2.10
48.01,2.13
48.49,2.17
48.97,2.19
49.46,2.22
49.96,2.26
50.46,2.28
50.96,2.31
51.47,2.35
51.99,2.38
52.51,2.40
53.03,2.44
53.56,2.45
54.10,2.50
54.64,2.50
55.18,2.54
55.74,2.54
56.29,2.57
56.86,2.59
57.42,2.59
58.00,2.62
58.58,2.64
59.16,2.64
59.76,2.64
60.35,2.64
60.96,2.64
61.57,2.64
62.18,2.64
62.80,2.64
63.43,2.64
64.07,2.64
64.71,2.64
65.35,2.64
66.01,2.64
66.67,2.64
67.33,2.64
68.01,2.64
68.69,2.64
69.37,2.64
70.07,2.66
70.77,2.66
71.48,2.66
72.19,2.66
72.91,2.66
73.64,2.66
74.38,2.64
75.12,2.64
75.87,2.64
76.63,2.64
77.40,2.64
78.17,2.64
78.95,2.64
79.74,2.64
80.54,2.62
81.35,2.59
82.16,2.59
82.98,2.59
83.81,2.54
84.65,2.54
85.50,2.51
86.35,2.50
87.22,2.48
88.09,2.45
88.97,2.45
89.86,2.44
90.76,2.40
91.66,2.40
92.58,2.40
93.51,2.40
94.44,2.45
95.39,2.45
96.34,2.45
97.30,2.47
98.28,2.50
99.26,2.50
100.25,2.54
101.25,2.54
102.27,2.54
103.29,2.59
104.32,2.59
105.37,2.59
106.42,2.59
107.48,2.61
108.56,2.64
109.64,2.64
110.74,2.64
111.85,2.64
112.97,2.64
114.10,2.64
115.24,2.64
116.39,2.61
117.55,2.59
118.73,2.59
119.92,2.59
121.12,2.59
122.33,2.55
123.55,2.54
124.79,2.54
126.03,2.51
127.29,2.50
128.57,2.50
129.85,2.46
131.15,2.45
132.46,2.45
133.79,2.40
135.12,2.40
136.48,2.38
137.84,2.36
139.22,2.33
140.61,2.31
142.02,2.27
143.44,2.26
144.87,2.22
146.32,2.20
147.78,2.17
149.26,2.12
150.75,2.08
152.26,2.05
153.78,2.02
155.32,1.96
156.88,1.93
158.44,1.88
160.03,1.85
161.63,1.79
163.24,1.75
164.88,1.71
166.53,1.65
168.19,1.60
169.87,1.57
171.57,1.51
173.29,1.48
175.02,1.43
176.77,1.40
178.54,1.37
180.32,1.33
182.13,1.28
183.95,1.25
185.79,1.22
187.65,1.19
189.52,1.14
191.42,1.10
193.33,1.07
195.27,1.04
197.22,0.98
199.19,0.95
201.18,0.90
203.19,0.87
205.23,0.81
207.28,0.76
209.35,0.71
211.44,0.65
213.56,0.61
215.69,0.56
217.85,0.51
220.03,0.47
222.23,0.42
224.45,0.37
226.70,0.32
228.96,0.26
231.25,0.23
233.57,0.18
235.90,0.14
238.26,0.09
240.64,0.04
243.05,0.00
245.48,-0.05
247.93,-0.10
250.41,-0.14
252.92,-0.19
255.45,-0.24
258.00,-0.28
260.58,-0.33
263.19,-0.37
265.82,-0.42
268.48,-0.47
271.16,-0.51
273.87,-0.55
276.61,-0.61
279.38,-0.65
282.17,-0.70
284.99,-0.75
287.84,-0.79
290.72,-0.84
293.63,-0.89
296.57,-0.93
299.53,-0.97
302.53,-1.02
305.55,-1.06
308.61,-1.11
311.69,-1.15
314.81,-1.20
317.96,-1.23
321.14,-1.26
324.35,-1.32
327.59,-1.35
330.87,-1.40
334.18,-1.44
337.52,-1.49
340.90,-1.54
344.30,-1.58
347.75,-1.63
351.23,-1.68
354.74,-1.71
358.28,-1.77
361.87,-1.81
365.49,-1.85
369.14,-1.88
372.83,-1.93
376.56,-1.95
380.33,-1.98
384.13,-1.98
387.97,-1.98
391.85,-1.98
395.77,-1.98
399.73,-1.98
403.72,-1.93
407.76,-1.93
411.84,-1.93
415.96,-1.93
420.12,-1.90
424.32,-1.88
428.56,-1.88
432.85,-1.88
437.18,-1.88
441.55,-1.88
445.96,-1.88
450.42,-1.88
454.93,-1.93
459.48,-1.93
464.07,-1.97
468.71,-2.00
473.40,-2.03
478.13,-2.06
482.91,-2.10
487.74,-2.13
492.62,-2.16
497.55,-2.21
502.52,-2.24
507.55,-2.26
512.62,-2.30
517.75,-2.31
522.93,-2.35
528.16,-2.35
533.44,-2.40
538.77,-2.40
544.16,-2.40
549.60,-2.44
555.10,-2.44
560.65,-2.44
566.25,-2.44
571.92,-2.46
577.64,-2.47
583.41,-2.49
589.25,-2.49
595.14,-2.49
601.09,-2.49
607.10,-2.49
613.17,-2.49
619.30,-2.49
625.50,-2.49
631.75,-2.49
638.07,-2.49
644.45,-2.49
650.89,-2.51
657.40,-2.54
663.98,-2.54
670.62,-2.54
677.32,-2.50
684.10,-2.49
690.94,-2.49
697.85,-2.46
704.83,-2.44
711.87,-2.40
718.99,-2.36
726.18,-2.33
733.44,-2.28
740.78,-2.22
748.19,-2.17
755.67,-2.14
763.23,-2.07
770.86,-2.00
778.57,-1.95
786.35,-1.89
794.22,-1.82
802.16,-1.76
810.18,-1.69
818.28,-1.61
826.46,-1.53
834.73,-1.45
843.08,-1.38
851.51,-1.28
860.02,-1.21
868.62,-1.10
877.31,-1.04
886.08,-0.93
894.94,-0.86
903.89,-0.76
912.93,-0.70
922.06,-0.59
931.28,-0.53
940.59,-0.44
950.00,-0.35
959.50,-0.29
969.09,-0.22
978.78,-0.14
988.57,-0.08
998.46,-0.01
1008.44,0.05
1018.53,0.10
1028.71,0.17
1039.00,0.23
1049.39,0.29
1059.88,0.33
1070.48,0.38
1081.19,0.43
1092.00,0.48
1102.92,0.54
1113.95,0.59
1125.09,0.64
1136.34,0.70
1147.70,0.76
1159.18,0.82
1170.77,0.88
1182.48,0.94
1194.30,1.02
1206.25,1.09
1218.31,1.17
1230.49,1.23
1242.80,1.30
1255.22,1.36
1267.78,1.43
1280.45,1.49
1293.26,1.55
1306.19,1.61
1319.25,1.68
1332.45,1.73
1345.77,1.77
1359.23,1.82
1372.82,1.87
1386.55,1.91
1400.41,1.96
1414.42,2.01
1428.56,2.04
1442.85,2.10
1457.28,2.13
1471.85,2.18
1486.57,2.24
1501.43,2.29
1516.45,2.33
1531.61,2.38
1546.93,2.46
1562.40,2.53
1578.02,2.63
1593.80,2.69
1609.74,2.79
1625.84,2.87
1642.10,2.94
1658.52,3.04
1675.10,3.10
1691.85,3.20
1708.77,3.27
1725.86,3.38
1743.12,3.44
1760.55,3.55
1778.15,3.64
1795.94,3.74
1813.90,3.85
1832.03,3.96
1850.36,4.07
1868.86,4.18
1887.55,4.29
1906.42,4.40
1925.49,4.51
1944.74,4.61
1964.19,4.75
1983.83,4.87
2003.67,4.99
2023.71,5.10
2043.94,5.23
2064.38,5.36
2085.03,5.48
2105.88,5.60
2126.94,5.73
2148.20,5.87
2169.69,5.98
2191.38,6.11
2213.30,6.24
2235.43,6.39
2257.78,6.50
2280.36,6.66
2303.17,6.78
2326.20,6.92
2349.46,7.09
2372.95,7.23
2396.68,7.37
2420.65,7.53
2444.86,7.68
2469.31,7.83
2494.00,7.99
2518.94,8.14
2544.13,8.30
2569.57,8.43
2595.27,8.59
2621.22,8.70
2647.43,8.85
2673.90,8.98
2700.64,9.09
2727.65,9.20
2754.93,9.29
2782.48,9.39
2810.30,9.46
2838.40,9.54
2866.79,9.60
2895.46,9.63
2924.41,9.67
2953.65,9.67
2983.19,9.67
3013.02,9.67
3043.15,9.67
3073.58,9.62
3104.32,9.58
3135.36,9.55
3166.72,9.52
3198.38,9.49
3230.37,9.44
3262.67,9.41
3295.30,9.37
3328.25,9.35
3361.53,9.31
3395.15,9.28
3429.10,9.25
3463.39,9.22
3498.03,9.21
3533.01,9.21
3568.34,9.21
3604.02,9.22
3640.06,9.25
3676.46,9.30
3713.22,9.34
3750.36,9.37
3787.86,9.43
3825.74,9.48
3864.00,9.51
3902.64,9.57
3941.66,9.58
3981.08,9.62
4020.89,9.62
4061.10,9.59
4101.71,9.57
4142.73,9.53
4184.15,9.47
4226.00,9.41
4268.26,9.33
4310.94,9.26
4354.05,9.20
4397.59,9.11
4441.56,9.05
4485.98,9.00
4530.84,8.97
4576.15,8.93
4621.91,8.93
4668.13,8.93
4714.81,8.93
4761.96,8.93
4809.58,8.97
4857.67,9.02
4906.25,9.07
4955.31,9.14
5004.87,9.25
5054.91,9.35
5105.46,9.48
5156.52,9.64
5208.08,9.82
5260.16,10.01
5312.77,10.24
5365.89,10.49
5419.55,10.76
5473.75,11.03
5528.49,11.31
5583.77,11.60
5639.61,11.85
5696.00,12.11
5752.96,12.29
5810.49,12.44
5868.60,12.54
5927.28,12.52
5986.56,12.43
6046.42,12.26
6106.89,12.03
6167.96,11.74
6229.64,11.36
6291.93,10.98
6354.85,10.51
6418.40,10.04
6482.58,9.53
6547.41,9.02
6612.88,8.50
6679.01,7.98
6745.80,7.45
6813.26,6.96
6881.39,6.52
6950.21,6.08
7019.71,5.73
7089.91,5.43
7160.81,5.20
7232.41,5.05
7304.74,5.04
7377.79,5.17
7451.56,5.45
7526.08,5.82
7601.34,6.33
7677.35,6.88
7754.13,7.54
7831.67,8.23
7909.98,8.91
7989.08,9.53
8068.98,10.08
8149.67,10.48
8231.16,10.74
8313.47,10.79
8396.61,10.52
8480.57,10.07
8565.38,9.43
8651.03,8.57
8737.54,7.53
8824.92,6.38
8913.17,5.13
9002.30,3.89
9092.32,2.76
9183.25,1.80
9275.08,1.12
9367.83,0.70
9461.51,0.61
9556.12,0.92
9651.68,1.40
9748.20,1.97
9845.68,2.62
9944.14,3.17
10043.58,3.66
10144.02,3.99
10245.46,4.20
10347.91,4.26
10451.39,4.20
10555.91,4.13
10661.46,4.06
10768.08,3.99
10875.76,3.99
10984.52,3.99
11094.36,4.03
11205.31,4.13
11317.36,4.27
11430.53,4.49
11544.84,4.76
11660.29,5.14
11776.89,5.62
11894.66,6.19
12013.60,6.83
12133.74,7.47
12255.08,8.07
12377.63,8.54
12501.41,8.85
12626.42,8.85
12752.68,8.45
12880.21,7.85
13009.01,7.01
13139.10,5.97
13270.49,4.87
13403.20,3.72
13537.23,2.65
13672.60,1.65
13809.33,0.77
13947.42,-0.00
14086.90,-0.69
14227.77,-1.35
14370.04,-1.94
14513.74,-2.48
14658.88,-2.97
14805.47,-3.31
14953.52,-3.54
15103.06,-3.51
15254.09,-3.17
15406.63,-2.59
15560.70,-1.80
15716.30,-0.81
15873.47,0.26
16032.20,1.35
16192.52,2.30
16354.45,3.08
16517.99,3.65
16683.17,3.98
16850.01,4.03
17018.51,3.76
17188.69,3.40
17360.58,2.94
17534.18,2.35
17709.53,1.77
17886.62,1.13
18065.49,0.48
18246.14,-0.20
18428.60,-0.87
18612.89,-1.55
18799.02,-2.19
18987.01,-2.81
19176.88,-3.31
19368.65,-3.73
19562.33,-4.07
19757.96,-4.31
19955.54,-4.46
