frequency,raw,smoothed,error,error_smoothed,equalization,parametric_eq,fixed_band_eq,equalized_raw,equalized_smoothed,target
20.00,-8.85,-8.83,-13.10,-13.08,6.00,5.94,2.70,-2.85,-2.83,4.25
20.20,-8.82,-8.83,-13.10,-13.11,6.00,5.94,2.77,-2.82,-2.83,4.28
20.40,-8.79,-8.81,-13.10,-13.12,6.00,5.94,2.85,-2.79,-2.81,4.31
20.61,-8.76,-8.77,-13.09,-13.11,6.00,5.94,2.93,-2.76,-2.77,4.33
20.81,-8.73,-8.73,-13.09,-13.09,6.00,5.95,3.01,-2.73,-2.73,4.36
21.02,-8.68,-8.65,-13.07,-13.03,6.00,5.95,3.10,-2.68,-2.65,4.39
21.23,-8.51,-8.52,-12.91,-12.91,6.00,5.95,3.19,-2.51,-2.52,4.40
21.44,-8.34,-8.34,-12.74,-12.75,6.00,5.95,3.28,-2.34,-2.34,4.41
21.66,-8.16,-8.15,-12.58,-12.56,6.00,5.95,3.37,-2.16,-2.15,4.42
21.87,-7.99,-8.00,-12.40,-12.42,6.00,5.95,3.47,-1.99,-2.00,4.42
22.09,-7.87,-7.89,-12.29,-12.31,6.00,5.96,3.57,-1.87,-1.89,4.42
22.31,-7.84,-7.83,-12.26,-12.25,6.00,5.96,3.67,-1.84,-1.83,4.42
22.54,-7.80,-7.79,-12.22,-12.22,6.00,5.96,3.77,-1.80,-1.79,4.42
22.76,-7.77,-7.77,-12.19,-12.18,6.00,5.96,3.88,-1.77,-1.77,4.42
22.99,-7.73,-7.74,-12.14,-12.15,6.00,5.96,3.99,-1.73,-1.74,4.41
23.22,-7.72,-7.72,-12.13,-12.13,6.00,5.96,4.10,-1.72,-1.72,4.41
23.45,-7.71,-7.72,-12.12,-12.13,6.00,5.96,4.21,-1.71,-1.72,4.41
23.69,-7.70,-7.71,-12.11,-12.12,6.00,5.97,4.33,-1.70,-1.71,4.41
23.92,-7.68,-7.65,-12.09,-12.06,6.00,5.97,4.45,-1.68,-1.65,4.41
24.16,-7.55,-7.53,-11.97,-11.95,6.00,5.97,4.57,-1.55,-1.53,4.42
24.40,-7.35,-7.36,-11.76,-11.77,6.00,5.97,4.69,-1.35,-1.36,4.42
24.65,-7.16,-7.15,-11.57,-11.56,6.00,5.97,4.82,-1.16,-1.15,4.41
24.89,-6.96,-6.98,-11.36,-11.38,6.00,5.97,4.94,-0.96,-0.98,4.41
25.14,-6.84,-6.85,-11.24,-11.25,6.00,5.98,5.07,-0.84,-0.85,4.40
25.39,-6.76,-6.75,-11.16,-11.15,6.00,5.98,5.20,-0.76,-0.75,4.40
25.65,-6.69,-6.68,-11.09,-11.08,6.00,5.98,5.33,-0.69,-0.68,4.40
25.91,-6.62,-6.63,-11.01,-11.03,6.00,5.98,5.46,-0.62,-0.63,4.39
26.16,-6.61,-6.62,-11.00,-11.01,6.00,5.98,5.59,-0.61,-0.62,4.39
26.43,-6.65,-6.65,-11.04,-11.04,6.00,5.99,5.72,-0.65,-0.65,4.39
26.69,-6.68,-6.69,-11.07,-11.07,6.00,5.99,5.85,-0.68,-0.69,4.39
26.96,-6.71,-6.67,-11.10,-11.05,6.00,5.99,5.98,-0.71,-0.67,4.39
27.23,-6.58,-6.58,-10.97,-10.96,6.00,5.99,6.11,-0.58,-0.58,4.39
27.50,-6.42,-6.43,-10.80,-10.81,6.00,5.99,6.23,-0.42,-0.43,4.38
27.77,-6.26,-6.26,-10.63,-10.64,6.00,5.99,6.35,-0.26,-0.26,4.37
28.05,-6.12,-6.15,-10.49,-10.52,6.00,6.00,6.47,-0.12,-0.15,4.37
28.33,-6.08,-6.07,-10.44,-10.43,6.00,6.00,6.58,-0.08,-0.07,4.36
28.62,-6.04,-6.02,-10.40,-10.38,6.00,6.00,6.69,-0.04,-0.02,4.36
28.90,-5.99,-6.00,-10.35,-10.35,6.00,6.00,6.78,0.01,0.00,4.36
29.19,-5.97,-5.97,-10.31,-10.32,6.00,6.00,6.88,0.03,0.03,4.34
29.48,-5.96,-5.96,-10.31,-10.31,6.00,6.00,6.96,0.04,0.04,4.35
29.78,-5.94,-5.94,-10.28,-10.28,6.00,6.01,7.04,0.06,0.06,4.34
30.08,-5.90,-5.88,-10.24,-10.22,6.00,6.01,7.11,0.10,0.12,4.34
30.38,-5.79,-5.79,-10.12,-10.12,6.00,6.01,7.17,0.21,0.21,4.33
30.68,-5.68,-5.68,-10.00,-10.01,6.00,6.01,7.22,0.32,0.32,4.33
30.99,-5.57,-5.59,-9.88,-9.91,6.00,6.01,7.26,0.43,0.41,4.31
31.30,-5.54,-5.54,-9.85,-9.85,6.00,6.02,7.29,0.46,0.46,4.31
31.61,-5.51,-5.50,-9.82,-9.81,6.00,6.02,7.31,0.49,0.50,4.31
31.93,-5.48,-5.47,-9.78,-9.77,6.00,6.02,7.32,0.52,0.53,4.30
32.24,-5.43,-5.43,-9.71,-9.72,6.00,6.02,7.32,0.57,0.57,4.28
32.57,-5.37,-5.37,-9.65,-9.65,6.00,6.02,7.31,0.63,0.63,4.28
32.89,-5.32,-5.32,-9.60,-9.59,6.00,6.02,7.29,0.68,0.68,4.28
33.22,-5.27,-5.27,-9.54,-9.54,6.00,6.03,7.26,0.73,0.73,4.27
33.55,-5.23,-5.23,-9.49,-9.49,6.00,6.03,7.23,0.77,0.77,4.26
33.89,-5.19,-5.18,-9.44,-9.43,6.00,6.03,7.19,0.81,0.82,4.25
34.23,-5.11,-5.10,-9.36,-9.35,6.00,6.03,7.14,0.89,0.90,4.25
34.57,-5.00,-5.01,-9.23,-9.24,6.00,6.03,7.09,1.00,0.99,4.23
34.92,-4.90,-4.90,-9.12,-9.13,6.00,6.03,7.03,1.10,1.10,4.22
35.27,-4.81,-4.81,-9.03,-9.02,6.00,6.03,6.97,1.19,1.19,4.22
35.62,-4.72,-4.72,-8.92,-8.92,6.00,6.04,6.91,1.28,1.28,4.20
35.97,-4.64,-4.65,-8.83,-8.84,6.00,6.04,6.84,1.36,1.35,4.19
36.33,-4.59,-4.59,-8.78,-8.77,6.00,6.04,6.77,1.41,1.41,4.19
36.70,-4.55,-4.55,-8.72,-8.72,6.00,6.04,6.70,1.45,1.45,4.17
37.06,-4.51,-4.50,-8.67,-8.66,6.00,6.04,6.63,1.49,1.50,4.16
37.43,-4.45,-4.45,-8.60,-8.60,6.00,6.04,6.56,1.55,1.55,4.15
37.81,-4.40,-4.41,-8.54,-8.55,6.00,6.04,6.49,1.60,1.59,4.14
38.19,-4.38,-4.40,-8.51,-8.53,6.00,6.04,6.43,1.62,1.60,4.13
38.57,-4.40,-4.40,-8.52,-8.52,6.00,6.05,6.36,1.60,1.60,4.12
38.95,-4.42,-4.39,-8.52,-8.50,6.00,6.05,6.30,1.58,1.61,4.11
39.34,-4.36,-4.36,-8.45,-8.46,6.00,6.05,6.24,1.64,1.64,4.09
39.74,-4.29,-4.29,-8.37,-8.37,6.00,6.05,6.18,1.71,1.71,4.08
40.14,-4.20,-4.18,-8.27,-8.25,6.00,6.05,6.12,1.80,1.82,4.07
40.54,-4.08,-4.07,-8.14,-8.13,6.00,6.05,6.07,1.92,1.93,4.06
40.94,-3.96,-4.01,-8.01,-8.06,6.00,6.05,6.02,2.04,1.99,4.05
41.35,-4.00,-4.01,-8.03,-8.05,6.00,6.05,5.98,2.00,1.99,4.03
41.76,-4.06,-4.03,-8.09,-8.06,6.00,6.05,5.94,1.94,1.97,4.03
42.18,-4.07,-4.04,-8.09,-8.05,6.00,6.05,5.90,1.93,1.96,4.02
42.60,-3.99,-4.00,-7.99,-8.01,6.00,6.05,5.87,2.01,2.00,4.00
43.03,-3.92,-3.95,-7.92,-7.95,6.00,6.05,5.84,2.08,2.05,4.00
43.46,-3.93,-3.93,-7.91,-7.90,6.00,6.05,5.82,2.07,2.07,3.98
43.90,-3.94,-3.92,-7.89,-7.88,6.00,6.05,5.80,2.06,2.08,3.95
44.33,-3.91,-3.91,-7.84,-7.85,6.00,6.05,5.79,2.09,2.09,3.93
44.78,-3.87,-3.86,-7.79,-7.78,6.00,6.05,5.78,2.13,2.14,3.92
45.23,-3.79,-3.77,-7.69,-7.66,6.00,6.05,5.77,2.21,2.23,3.90
45.68,-3.66,-3.67,-7.54,-7.55,6.00,6.05,5.77,2.34,2.33,3.88
46.13,-3.57,-3.61,-7.43,-7.47,6.00,6.05,5.77,2.43,2.39,3.86
46.60,-3.58,-3.57,-7.43,-7.42,6.00,6.05,5.78,2.42,2.43,3.85
47.06,-3.58,-3.55,-7.41,-7.39,6.00,6.05,5.79,2.42,2.45,3.83
47.53,-3.54,-3.54,-7.35,-7.36,6.00,6.05,5.80,2.46,2.46,3.81
48.01,-3.51,-3.53,-7.31,-7.33,6.00,6.05,5.82,2.49,2.47,3.80
48.49,-3.52,-3.52,-7.29,-7.29,6.00,6.05,5.85,2.48,2.48,3.77
48.97,-3.53,-3.50,-7.27,-7.24,6.00,6.05,5.87,2.47,2.50,3.74
49.46,-3.47,-3.47,-7.18,-7.18,6.00,6.05,5.90,2.53,2.53,3.71
49.96,-3.42,-3.44,-7.10,-7.12,6.00,6.05,5.93,2.58,2.56,3.68
50.46,-3.41,-3.41,-7.07,-7.07,6.00,6.05,5.97,2.59,2.59,3.66
50.96,-3.41,-3.41,-7.05,-7.04,6.00,6.05,6.01,2.59,2.59,3.64
51.47,-3.40,-3.40,-7.01,-7.01,6.00,6.05,6.05,2.60,2.60,3.61
51.99,-3.39,-3.38,-6.97,-6.97,6.00,6.04,6.09,2.61,2.62,3.59
52.51,-3.35,-3.35,-6.92,-6.92,6.00,6.04,6.13,2.65,2.65,3.57
53.03,-3.31,-3.32,-6.86,-6.87,6.00,6.04,6.17,2.69,2.68,3.55
53.56,-3.31,-3.31,-6.83,-6.83,6.00,6.04,6.22,2.69,2.69,3.52
54.10,-3.31,-3.31,-6.81,-6.80,6.00,6.04,6.26,2.69,2.69,3.50
54.64,-3.31,-3.31,-6.78,-6.78,6.00,6.04,6.30,2.69,2.69,3.47
55.18,-3.31,-3.31,-6.75,-6.75,6.00,6.04,6.35,2.69,2.69,3.44
55.74,-3.31,-3.31,-6.73,-6.73,6.00,6.04,6.39,2.69,2.69,3.42
56.29,-3.31,-3.31,-6.71,-6.71,6.00,6.03,6.43,2.69,2.69,3.40
56.86,-3.31,-3.29,-6.68,-6.66,6.00,6.03,6.46,2.69,2.71,3.37
57.42,-3.27,-3.26,-6.61,-6.61,6.00,6.03,6.49,2.73,2.74,3.34
58.00,-3.21,-3.23,-6.53,-6.55,6.00,6.03,6.52,2.79,2.77,3.32
58.58,-3.21,-3.21,-6.51,-6.51,6.00,6.03,6.54,2.79,2.79,3.30
59.16,-3.21,-3.20,-6.49,-6.48,6.00,6.03,6.56,2.79,2.80,3.28
59.76,-3.21,-3.21,-6.47,-6.47,6.00,6.03,6.57,2.79,2.79,3.26
60.35,-3.23,-3.23,-6.46,-6.46,6.00,6.03,6.58,2.77,2.77,3.23
60.96,-3.26,-3.27,-6.47,-6.47,6.00,6.02,6.58,2.74,2.73,3.21
61.57,-3.32,-3.32,-6.48,-6.49,6.00,6.02,6.57,2.68,2.68,3.16
62.18,-3.38,-3.37,-6.51,-6.50,6.00,6.02,6.56,2.62,2.63,3.13
62.80,-3.40,-3.41,-6.51,-6.51,6.00,6.02,6.54,2.60,2.59,3.11
63.43,-3.43,-3.43,-6.50,-6.50,6.00,6.02,6.51,2.57,2.57,3.07
64.07,-3.45,-3.44,-6.49,-6.48,6.00,6.01,6.48,2.55,2.56,3.04
64.71,-3.43,-3.43,-6.45,-6.45,6.00,6.01,6.44,2.57,2.57,3.02
65.35,-3.42,-3.42,-6.41,-6.41,6.00,6.01,6.39,2.58,2.58,2.99
66.01,-3.41,-3.41,-6.37,-6.37,6.00,6.00,6.34,2.59,2.59,2.96
66.67,-3.41,-3.41,-6.34,-6.34,6.00,5.99,6.28,2.59,2.59,2.93
67.33,-3.41,-3.41,-6.31,-6.31,6.00,5.99,6.21,2.59,2.59,2.90
68.01,-3.41,-3.41,-6.28,-6.28,6.00,5.98,6.14,2.59,2.59,2.87
68.69,-3.41,-3.41,-6.25,-6.25,6.00,5.97,6.07,2.59,2.59,2.84
69.37,-3.41,-3.41,-6.22,-6.22,6.00,5.96,5.99,2.59,2.59,2.81
70.07,-3.41,-3.41,-6.19,-6.19,6.00,5.94,5.91,2.59,2.59,2.78
70.77,-3.41,-3.41,-6.16,-6.16,6.00,5.92,5.82,2.59,2.59,2.75
71.48,-3.41,-3.41,-6.13,-6.12,6.00,5.90,5.74,2.59,2.59,2.72
72.19,-3.41,-3.41,-6.09,-6.10,6.00,5.88,5.65,2.59,2.59,2.68
72.91,-3.43,-3.44,-6.08,-6.09,6.00,5.86,5.56,2.57,2.57,2.65
73.64,-3.48,-3.49,-6.09,-6.10,6.01,5.83,5.47,2.53,2.52,2.61
74.38,-3.55,-3.55,-6.13,-6.13,6.02,5.80,5.38,2.47,2.48,2.58
75.12,-3.61,-3.59,-6.15,-6.14,6.03,5.76,5.29,2.42,2.43,2.55
75.87,-3.61,-3.62,-6.13,-6.13,6.02,5.72,5.20,2.41,2.40,2.52
76.63,-3.61,-3.61,-6.09,-6.10,5.99,5.68,5.11,2.38,2.38,2.49
77.40,-3.59,-3.59,-6.04,-6.04,5.94,5.64,5.02,2.36,2.36,2.45
78.17,-3.54,-3.53,-5.95,-5.95,5.88,5.59,4.94,2.34,2.34,2.41
78.95,-3.45,-3.45,-5.84,-5.83,5.79,5.54,4.85,2.34,2.34,2.39
79.74,-3.34,-3.34,-5.70,-5.69,5.68,5.49,4.77,2.34,2.35,2.36
80.54,-3.22,-3.22,-5.54,-5.54,5.57,5.44,4.69,2.35,2.35,2.32
81.35,-3.11,-3.11,-5.40,-5.40,5.45,5.39,4.61,2.34,2.33,2.29
82.16,-3.02,-3.03,-5.27,-5.28,5.32,5.33,4.54,2.31,2.30,2.25
82.98,-2.96,-2.96,-5.19,-5.18,5.21,5.27,4.47,2.25,2.25,2.23
83.81,-2.92,-2.91,-5.10,-5.10,5.10,5.21,4.40,2.18,2.19,2.18
84.65,-2.88,-2.88,-5.02,-5.02,5.02,5.15,4.33,2.14,2.14,2.14
85.50,-2.84,-2.85,-4.95,-4.96,4.94,5.09,4.27,2.10,2.09,2.11
86.35,-2.81,-2.81,-4.88,-4.88,4.87,5.03,4.21,2.06,2.06,2.07
87.22,-2.79,-2.77,-4.82,-4.80,4.80,4.97,4.15,2.01,2.04,2.03
88.09,-2.71,-2.73,-4.70,-4.73,4.74,4.91,4.10,2.03,2.00,1.99
88.97,-2.71,-2.71,-4.67,-4.67,4.67,4.85,4.04,1.96,1.95,1.96
89.86,-2.70,-2.69,-4.62,-4.61,4.60,4.78,4.00,1.90,1.91,1.92
90.76,-2.70,-2.67,-4.57,-4.55,4.54,4.72,3.95,1.84,1.86,1.87
91.66,-2.63,-2.64,-4.46,-4.47,4.47,4.66,3.91,1.84,1.83,1.84
92.58,-2.60,-2.61,-4.38,-4.40,4.41,4.60,3.87,1.81,1.80,1.78
93.51,-2.60,-2.59,-4.35,-4.34,4.36,4.53,3.83,1.76,1.77,1.75
94.44,-2.60,-2.60,-4.30,-4.30,4.31,4.47,3.80,1.71,1.71,1.71
95.39,-2.60,-2.60,-4.26,-4.26,4.26,4.41,3.77,1.66,1.66,1.66
96.34,-2.61,-2.61,-4.22,-4.21,4.21,4.35,3.74,1.60,1.61,1.61
97.30,-2.61,-2.61,-4.17,-4.17,4.17,4.29,3.71,1.56,1.55,1.56
98.28,-2.62,-2.62,-4.13,-4.14,4.12,4.23,3.69,1.50,1.49,1.52
99.26,-2.63,-2.62,-4.10,-4.09,4.07,4.17,3.67,1.44,1.45,1.47
100.25,-2.62,-2.61,-4.04,-4.03,4.02,4.11,3.65,1.40,1.42,1.42
101.25,-2.57,-2.59,-3.95,-3.97,3.98,4.04,3.63,1.41,1.39,1.38
102.27,-2.58,-2.58,-3.91,-3.91,3.93,3.98,3.62,1.35,1.35,1.33
103.29,-2.59,-2.59,-3.86,-3.87,3.89,3.93,3.61,1.30,1.31,1.28
104.32,-2.61,-2.61,-3.85,-3.85,3.86,3.87,3.59,1.25,1.25,1.24
105.37,-2.64,-2.64,-3.83,-3.83,3.83,3.81,3.58,1.19,1.19,1.19
106.42,-2.66,-2.66,-3.81,-3.81,3.80,3.75,3.57,1.14,1.14,1.15
107.48,-2.69,-2.69,-3.79,-3.78,3.78,3.69,3.56,1.09,1.09,1.10
108.56,-2.71,-2.71,-3.75,-3.76,3.76,3.63,3.56,1.05,1.05,1.04
109.64,-2.73,-2.73,-3.73,-3.73,3.73,3.58,3.55,1.00,1.00,1.00
110.74,-2.75,-2.75,-3.70,-3.70,3.70,3.52,3.54,0.95,0.95,0.95
111.85,-2.77,-2.77,-3.68,-3.67,3.66,3.46,3.53,0.89,0.90,0.91
112.97,-2.78,-2.78,-3.62,-3.63,3.62,3.41,3.52,0.84,0.84,0.84
114.10,-2.78,-2.78,-3.58,-3.58,3.57,3.35,3.51,0.79,0.79,0.80
115.24,-2.79,-2.78,-3.53,-3.52,3.52,3.30,3.50,0.73,0.74,0.74
116.39,-2.78,-2.78,-3.47,-3.47,3.47,3.24,3.49,0.69,0.69,0.69
117.55,-2.78,-2.78,-3.41,-3.41,3.42,3.19,3.48,0.64,0.63,0.63
118.73,-2.78,-2.78,-3.36,-3.36,3.36,3.14,3.46,0.58,0.58,0.58
119.92,-2.77,-2.77,-3.30,-3.30,3.30,3.08,3.45,0.53,0.53,0.54
121.12,-2.76,-2.76,-3.24,-3.24,3.24,3.03,3.43,0.49,0.48,0.48
122.33,-2.75,-2.75,-3.18,-3.19,3.18,2.98,3.41,0.44,0.43,0.43
123.55,-2.75,-2.75,-3.14,-3.13,3.12,2.93,3.38,0.37,0.38,0.39
124.79,-2.74,-2.74,-3.08,-3.08,3.06,2.88,3.36,0.33,0.33,0.34
126.03,-2.73,-2.73,-3.02,-3.02,3.01,2.83,3.33,0.28,0.28,0.29
127.29,-2.72,-2.72,-2.96,-2.95,2.96,2.78,3.30,0.24,0.24,0.24
128.57,-2.72,-2.71,-2.90,-2.89,2.92,2.74,3.27,0.20,0.20,0.18
129.85,-2.71,-2.72,-2.84,-2.85,2.87,2.69,3.23,0.16,0.15,0.13
131.15,-2.73,-2.74,-2.81,-2.82,2.83,2.64,3.19,0.10,0.09,0.08
132.46,-2.78,-2.77,-2.81,-2.80,2.80,2.60,3.15,0.02,0.03,0.03
133.79,-2.80,-2.79,-2.80,-2.78,2.76,2.55,3.11,-0.04,-0.03,-0.00
135.12,-2.80,-2.80,-2.74,-2.75,2.72,2.51,3.07,-0.08,-0.08,-0.06
136.48,-2.79,-2.79,-2.70,-2.70,2.69,2.47,3.03,-0.10,-0.11,-0.09
137.84,-2.79,-2.79,-2.65,-2.64,2.65,2.43,2.98,-0.14,-0.14,-0.14
139.22,-2.79,-2.79,-2.60,-2.60,2.61,2.39,2.93,-0.18,-0.18,-0.19
140.61,-2.79,-2.79,-2.55,-2.56,2.57,2.35,2.88,-0.22,-0.22,-0.24
142.02,-2.79,-2.79,-2.53,-2.52,2.53,2.31,2.83,-0.26,-0.26,-0.26
143.44,-2.79,-2.79,-2.49,-2.49,2.49,2.27,2.78,-0.30,-0.30,-0.30
144.87,-2.79,-2.79,-2.45,-2.45,2.45,2.23,2.73,-0.34,-0.34,-0.34
146.32,-2.79,-2.79,-2.41,-2.42,2.41,2.19,2.68,-0.38,-0.38,-0.38
147.78,-2.79,-2.79,-2.38,-2.38,2.38,2.16,2.63,-0.41,-0.41,-0.41
149.26,-2.79,-2.79,-2.34,-2.34,2.34,2.12,2.57,-0.45,-0.45,-0.44
150.75,-2.79,-2.79,-2.30,-2.30,2.29,2.09,2.52,-0.50,-0.50,-0.49
152.26,-2.79,-2.79,-2.26,-2.26,2.25,2.06,2.47,-0.54,-0.54,-0.53
153.78,-2.79,-2.79,-2.23,-2.22,2.21,2.02,2.42,-0.58,-0.58,-0.56
155.32,-2.78,-2.78,-2.17,-2.17,2.18,1.99,2.37,-0.60,-0.60,-0.61
156.88,-2.78,-2.77,-2.14,-2.13,2.15,1.96,2.32,-0.63,-0.62,-0.64
158.44,-2.78,-2.79,-2.09,-2.10,2.13,1.93,2.27,-0.65,-0.66,-0.69
160.03,-2.81,-2.82,-2.08,-2.09,2.12,1.90,2.22,-0.69,-0.70,-0.73
161.63,-2.88,-2.86,-2.11,-2.09,2.11,1.87,2.18,-0.77,-0.75,-0.77
163.24,-2.90,-2.92,-2.09,-2.11,2.09,1.85,2.13,-0.81,-0.82,-0.81
164.88,-2.95,-2.95,-2.11,-2.11,2.07,1.82,2.09,-0.88,-0.88,-0.84
166.53,-2.99,-2.96,-2.11,-2.08,2.05,1.80,2.04,-0.94,-0.91,-0.88
168.19,-2.94,-2.95,-2.02,-2.04,2.01,1.77,2.00,-0.93,-0.94,-0.92
169.87,-2.91,-2.93,-1.95,-1.98,1.97,1.75,1.96,-0.94,-0.96,-0.96
171.57,-2.92,-2.89,-1.93,-1.90,1.91,1.72,1.92,-1.01,-0.98,-0.99
173.29,-2.87,-2.87,-1.84,-1.84,1.86,1.70,1.88,-1.01,-1.01,-1.03
175.02,-2.83,-2.85,-1.77,-1.78,1.80,1.68,1.84,-1.03,-1.05,-1.06
176.77,-2.83,-2.83,-1.72,-1.72,1.74,1.66,1.81,-1.09,-1.08,-1.11
178.54,-2.83,-2.83,-1.68,-1.68,1.69,1.64,1.77,-1.14,-1.13,-1.15
180.32,-2.83,-2.83,-1.64,-1.64,1.64,1.62,1.74,-1.19,-1.19,-1.19
182.13,-2.82,-2.82,-1.60,-1.60,1.59,1.60,1.71,-1.23,-1.23,-1.22
183.95,-2.81,-2.81,-1.55,-1.56,1.54,1.58,1.67,-1.27,-1.27,-1.26
185.79,-2.80,-2.80,-1.51,-1.51,1.48,1.57,1.64,-1.32,-1.32,-1.29
187.65,-2.78,-2.77,-1.45,-1.44,1.42,1.55,1.62,-1.35,-1.35,-1.33
189.52,-2.74,-2.73,-1.38,-1.37,1.36,1.53,1.59,-1.38,-1.37,-1.36
191.42,-2.67,-2.68,-1.28,-1.29,1.30,1.52,1.56,-1.37,-1.38,-1.39
193.33,-2.64,-2.65,-1.22,-1.23,1.24,1.50,1.54,-1.40,-1.40,-1.42
195.27,-2.63,-2.62,-1.18,-1.17,1.19,1.49,1.51,-1.44,-1.43,-1.45
197.22,-2.61,-2.61,-1.13,-1.13,1.14,1.48,1.49,-1.47,-1.47,-1.48
199.19,-2.60,-2.60,-1.09,-1.09,1.10,1.46,1.47,-1.50,-1.50,-1.51
201.18,-2.59,-2.59,-1.06,-1.06,1.06,1.45,1.45,-1.53,-1.53,-1.53
203.19,-2.59,-2.59,-1.04,-1.04,1.04,1.44,1.43,-1.55,-1.55,-1.55
205.23,-2.59,-2.59,-1.02,-1.02,1.02,1.43,1.41,-1.57,-1.57,-1.57
207.28,-2.59,-2.59,-1.01,-1.00,1.00,1.42,1.39,-1.59,-1.59,-1.58
209.35,-2.59,-2.59,-0.99,-0.98,0.99,1.41,1.38,-1.60,-1.60,-1.60
211.44,-2.59,-2.59,-0.96,-0.97,0.97,1.40,1.36,-1.61,-1.62,-1.63
213.56,-2.59,-2.59,-0.96,-0.96,0.97,1.40,1.35,-1.62,-1.63,-1.63
215.69,-2.60,-2.60,-0.97,-0.96,0.96,1.39,1.33,-1.64,-1.64,-1.63
217.85,-2.60,-2.60,-0.95,-0.96,0.95,1.38,1.32,-1.65,-1.65,-1.65
220.03,-2.61,-2.61,-0.95,-0.95,0.95,1.37,1.31,-1.66,-1.66,-1.66
222.23,-2.61,-2.61,-0.94,-0.95,0.94,1.37,1.29,-1.67,-1.67,-1.67
224.45,-2.61,-2.61,-0.95,-0.94,0.94,1.36,1.28,-1.67,-1.67,-1.66
226.70,-2.61,-2.61,-0.95,-0.94,0.94,1.36,1.27,-1.67,-1.66,-1.66
228.96,-2.60,-2.60,-0.94,-0.94,0.95,1.35,1.26,-1.65,-1.65,-1.66
231.25,-2.60,-2.60,-0.95,-0.94,0.95,1.35,1.25,-1.64,-1.64,-1.65
233.57,-2.59,-2.60,-0.94,-0.95,0.96,1.35,1.24,-1.63,-1.64,-1.65
235.90,-2.62,-2.62,-0.97,-0.97,0.96,1.34,1.23,-1.65,-1.66,-1.65
238.26,-2.65,-2.64,-1.00,-0.99,0.97,1.34,1.22,-1.68,-1.67,-1.65
240.64,-2.64,-2.64,-1.00,-1.00,0.97,1.34,1.21,-1.67,-1.67,-1.64
243.05,-2.63,-2.63,-1.00,-1.00,0.98,1.34,1.20,-1.65,-1.65,-1.63
245.48,-2.61,-2.60,-0.99,-0.98,0.99,1.34,1.20,-1.62,-1.61,-1.62
247.93,-2.58,-2.58,-0.97,-0.97,1.00,1.34,1.19,-1.58,-1.58,-1.61
250.41,-2.56,-2.58,-0.95,-0.99,1.01,1.34,1.18,-1.55,-1.57,-1.60
252.92,-2.61,-2.60,-1.03,-1.02,1.03,1.34,1.17,-1.58,-1.57,-1.58
255.45,-2.63,-2.62,-1.07,-1.05,1.04,1.34,1.17,-1.59,-1.58,-1.56
258.00,-2.63,-2.63,-1.08,-1.08,1.06,1.34,1.16,-1.57,-1.57,-1.55
260.58,-2.62,-2.62,-1.09,-1.09,1.08,1.35,1.15,-1.53,-1.54,-1.53
263.19,-2.62,-2.62,-1.11,-1.10,1.11,1.35,1.15,-1.51,-1.51,-1.51
265.82,-2.62,-2.62,-1.12,-1.13,1.13,1.35,1.14,-1.49,-1.49,-1.50
268.48,-2.62,-2.62,-1.15,-1.15,1.15,1.36,1.14,-1.47,-1.47,-1.47
271.16,-2.63,-2.63,-1.18,-1.17,1.17,1.36,1.13,-1.46,-1.46,-1.45
273.87,-2.63,-2.63,-1.20,-1.20,1.19,1.37,1.13,-1.44,-1.44,-1.43
276.61,-2.63,-2.63,-1.22,-1.22,1.21,1.37,1.12,-1.41,-1.41,-1.41
279.38,-2.63,-2.62,-1.23,-1.23,1.25,1.38,1.12,-1.38,-1.38,-1.39
282.17,-2.63,-2.64,-1.25,-1.26,1.28,1.38,1.11,-1.35,-1.36,-1.38
284.99,-2.65,-2.66,-1.29,-1.31,1.32,1.39,1.11,-1.33,-1.34,-1.35
287.84,-2.72,-2.69,-1.38,-1.35,1.36,1.40,1.11,-1.36,-1.33,-1.34
290.72,-2.71,-2.72,-1.40,-1.41,1.40,1.41,1.11,-1.31,-1.33,-1.31
293.63,-2.74,-2.75,-1.44,-1.45,1.43,1.41,1.11,-1.31,-1.31,-1.30
296.57,-2.77,-2.76,-1.50,-1.48,1.47,1.42,1.10,-1.30,-1.29,-1.27
299.53,-2.77,-2.77,-1.51,-1.51,1.49,1.43,1.10,-1.27,-1.27,-1.26
302.53,-2.76,-2.76,-1.52,-1.53,1.52,1.44,1.10,-1.24,-1.24,-1.24
305.55,-2.75,-2.75,-1.54,-1.54,1.54,1.45,1.11,-1.21,-1.21,-1.20
308.61,-2.74,-2.74,-1.55,-1.55,1.56,1.46,1.11,-1.18,-1.18,-1.19
311.69,-2.73,-2.73,-1.57,-1.57,1.59,1.47,1.11,-1.14,-1.14,-1.16
314.81,-2.73,-2.73,-1.60,-1.59,1.62,1.48,1.11,-1.11,-1.11,-1.13
317.96,-2.73,-2.74,-1.62,-1.63,1.65,1.49,1.12,-1.08,-1.09,-1.11
321.14,-2.77,-2.77,-1.68,-1.68,1.68,1.50,1.12,-1.09,-1.09,-1.09
324.35,-2.82,-2.80,-1.74,-1.73,1.72,1.51,1.13,-1.10,-1.08,-1.07
327.59,-2.83,-2.83,-1.78,-1.78,1.76,1.52,1.13,-1.07,-1.07,-1.05
330.87,-2.83,-2.83,-1.80,-1.80,1.79,1.53,1.14,-1.04,-1.04,-1.03
334.18,-2.83,-2.83,-1.82,-1.82,1.82,1.54,1.15,-1.01,-1.01,-1.01
337.52,-2.83,-2.83,-1.83,-1.84,1.84,1.55,1.16,-0.99,-0.99,-1.00
340.90,-2.83,-2.84,-1.86,-1.87,1.86,1.56,1.17,-0.97,-0.98,-0.97
344.30,-2.84,-2.83,-1.89,-1.87,1.86,1.57,1.18,-0.98,-0.96,-0.95
347.75,-2.81,-2.80,-1.88,-1.87,1.86,1.58,1.19,-0.95,-0.93,-0.93
351.23,-2.75,-2.77,-1.83,-1.85,1.86,1.59,1.21,-0.89,-0.91,-0.92
354.74,-2.73,-2.74,-1.83,-1.84,1.85,1.60,1.22,-0.88,-0.89,-0.90
358.28,-2.73,-2.73,-1.85,-1.85,1.84,1.61,1.23,-0.89,-0.88,-0.88
361.87,-2.72,-2.71,-1.86,-1.84,1.83,1.61,1.25,-0.89,-0.88,-0.86
365.49,-2.68,-2.67,-1.83,-1.82,1.82,1.62,1.27,-0.86,-0.86,-0.85
369.14,-2.62,-2.63,-1.77,-1.79,1.80,1.63,1.28,-0.82,-0.84,-0.85
372.83,-2.60,-2.61,-1.77,-1.78,1.78,1.63,1.30,-0.82,-0.83,-0.83
376.56,-2.59,-2.58,-1.77,-1.77,1.77,1.63,1.32,-0.82,-0.82,-0.82
380.33,-2.58,-2.55,-1.79,-1.76,1.75,1.64,1.34,-0.82,-0.80,-0.79
384.13,-2.50,-2.52,-1.72,-1.73,1.74,1.64,1.36,-0.76,-0.77,-0.78
387.97,-2.47,-2.48,-1.70,-1.71,1.73,1.64,1.38,-0.74,-0.75,-0.77
391.85,-2.47,-2.47,-1.70,-1.71,1.72,1.63,1.40,-0.75,-0.75,-0.77
395.77,-2.47,-2.46,-1.72,-1.71,1.70,1.63,1.42,-0.77,-0.76,-0.75
399.73,-2.46,-2.45,-1.72,-1.71,1.68,1.63,1.45,-0.78,-0.77,-0.74
403.72,-2.40,-2.41,-1.67,-1.69,1.65,1.62,1.47,-0.75,-0.76,-0.73
407.76,-2.37,-2.36,-1.65,-1.65,1.63,1.62,1.49,-0.74,-0.74,-0.72
411.84,-2.31,-2.30,-1.61,-1.59,1.60,1.61,1.52,-0.71,-0.70,-0.70
415.96,-2.24,-2.24,-1.55,-1.55,1.57,1.60,1.54,-0.67,-0.67,-0.69
420.12,-2.18,-2.19,-1.49,-1.51,1.55,1.59,1.56,-0.63,-0.65,-0.68
424.32,-2.17,-2.17,-1.49,-1.49,1.52,1.58,1.58,-0.65,-0.64,-0.68
428.56,-2.16,-2.16,-1.49,-1.49,1.50,1.57,1.61,-0.66,-0.65,-0.67
432.85,-2.15,-2.14,-1.49,-1.49,1.48,1.56,1.63,-0.67,-0.67,-0.66
437.18,-2.12,-2.12,-1.47,-1.47,1.45,1.55,1.65,-0.67,-0.67,-0.65
441.55,-2.08,-2.09,-1.45,-1.46,1.42,1.53,1.67,-0.66,-0.67,-0.63
445.96,-2.04,-2.04,-1.42,-1.42,1.38,1.52,1.69,-0.66,-0.66,-0.62
450.42,-1.99,-1.95,-1.38,-1.35,1.33,1.50,1.71,-0.66,-0.62,-0.61
454.93,-1.84,-1.86,-1.25,-1.26,1.27,1.49,1.72,-0.56,-0.59,-0.59
459.48,-1.75,-1.77,-1.17,-1.19,1.22,1.47,1.74,-0.53,-0.55,-0.58
464.07,-1.70,-1.69,-1.14,-1.13,1.16,1.46,1.75,-0.54,-0.54,-0.56
468.71,-1.65,-1.64,-1.10,-1.09,1.10,1.44,1.76,-0.55,-0.54,-0.54
473.40,-1.59,-1.59,-1.05,-1.06,1.05,1.42,1.77,-0.54,-0.54,-0.54
