frequency,raw,error,smoothed,error_smoothed,equalization,parametric_eq,fixed_band_eq,equalized_raw,equalized_smoothed,target
20.00,-5.47,-3.58,-5.40,-3.53,3.53,2.84,0.75,-1.94,-1.88,-1.89
20.20,-5.38,-3.53,-5.34,-3.49,3.49,2.87,0.77,-1.89,-1.85,-1.85
20.40,-5.28,-3.46,-5.27,-3.45,3.45,2.89,0.80,-1.83,-1.82,-1.82
20.61,-5.19,-3.40,-5.20,-3.41,3.41,2.91,0.82,-1.78,-1.79,-1.80
20.81,-5.09,-3.33,-5.14,-3.37,3.37,2.93,0.85,-1.72,-1.76,-1.75
21.02,-5.01,-3.29,-5.07,-3.33,3.33,2.94,0.88,-1.68,-1.74,-1.72
21.23,-4.96,-3.25,-5.01,-3.29,3.29,2.94,0.91,-1.67,-1.72,-1.71
21.44,-4.91,-3.22,-4.95,-3.25,3.25,2.93,0.94,-1.66,-1.70,-1.69
21.66,-4.86,-3.19,-4.88,-3.20,3.20,2.92,0.97,-1.66,-1.68,-1.67
21.87,-4.82,-3.16,-4.82,-3.16,3.16,2.91,1.00,-1.66,-1.66,-1.66
22.09,-4.76,-3.12,-4.76,-3.11,3.11,2.89,1.04,-1.65,-1.65,-1.64
22.31,-4.70,-3.06,-4.69,-3.06,3.06,2.86,1.07,-1.64,-1.63,-1.64
22.54,-4.64,-3.01,-4.64,-3.02,3.02,2.83,1.10,-1.62,-1.62,-1.63
22.76,-4.58,-2.96,-4.59,-2.98,2.98,2.79,1.14,-1.60,-1.61,-1.62
22.99,-4.51,-2.89,-4.53,-2.93,2.93,2.75,1.18,-1.58,-1.60,-1.62
23.22,-4.47,-2.86,-4.47,-2.87,2.87,2.70,1.21,-1.60,-1.60,-1.61
23.45,-4.43,-2.83,-4.41,-2.81,2.81,2.66,1.25,-1.62,-1.59,-1.60
23.69,-4.39,-2.80,-4.34,-2.75,2.75,2.60,1.29,-1.64,-1.59,-1.59
23.92,-4.34,-2.76,-4.27,-2.69,2.69,2.55,1.33,-1.65,-1.58,-1.58
24.16,-4.26,-2.69,-4.21,-2.63,2.63,2.49,1.37,-1.63,-1.58,-1.57
24.40,-4.16,-2.60,-4.14,-2.57,2.57,2.43,1.41,-1.59,-1.58,-1.56
24.65,-4.06,-2.49,-4.08,-2.51,2.51,2.36,1.45,-1.55,-1.57,-1.57
24.89,-3.95,-2.38,-4.03,-2.45,2.45,2.30,1.49,-1.49,-1.57,-1.57
25.14,-3.89,-2.32,-3.97,-2.40,2.40,2.24,1.54,-1.49,-1.57,-1.57
25.39,-3.86,-2.29,-3.91,-2.35,2.35,2.17,1.58,-1.51,-1.57,-1.57
25.65,-3.83,-2.26,-3.86,-2.29,2.29,2.10,1.62,-1.54,-1.57,-1.57
25.91,-3.80,-2.22,-3.81,-2.24,2.24,2.04,1.66,-1.56,-1.57,-1.58
26.16,-3.77,-2.20,-3.76,-2.18,2.18,1.97,1.70,-1.59,-1.57,-1.57
26.43,-3.73,-2.16,-3.71,-2.13,2.13,1.90,1.74,-1.60,-1.57,-1.57
26.69,-3.69,-2.12,-3.66,-2.08,2.08,1.84,1.78,-1.61,-1.58,-1.57
26.96,-3.66,-2.08,-3.61,-2.03,2.03,1.77,1.82,-1.63,-1.58,-1.58
27.23,-3.60,-2.02,-3.56,-1.98,1.98,1.71,1.85,-1.62,-1.58,-1.58
27.50,-3.53,-1.95,-3.51,-1.93,1.93,1.65,1.89,-1.60,-1.58,-1.58
27.77,-3.47,-1.88,-3.46,-1.87,1.87,1.58,1.92,-1.60,-1.58,-1.59
28.05,-3.41,-1.82,-3.40,-1.81,1.81,1.52,1.95,-1.60,-1.59,-1.59
28.33,-3.34,-1.74,-3.34,-1.75,1.75,1.46,1.98,-1.58,-1.59,-1.60
28.62,-3.28,-1.69,-3.29,-1.70,1.70,1.40,2.01,-1.58,-1.59,-1.59
28.90,-3.21,-1.62,-3.23,-1.64,1.64,1.34,2.03,-1.57,-1.59,-1.59
29.19,-3.15,-1.55,-3.17,-1.58,1.58,1.29,2.05,-1.57,-1.59,-1.60
29.48,-3.09,-1.50,-3.12,-1.52,1.52,1.23,2.06,-1.57,-1.60,-1.59
29.78,-3.03,-1.44,-3.07,-1.47,1.47,1.18,2.08,-1.56,-1.60,-1.59
30.08,-2.98,-1.39,-3.02,-1.42,1.42,1.12,2.08,-1.56,-1.60,-1.59
30.38,-2.97,-1.36,-2.98,-1.37,1.37,1.07,2.09,-1.60,-1.61,-1.61
30.68,-2.97,-1.36,-2.95,-1.33,1.33,1.02,2.09,-1.64,-1.61,-1.61
30.99,-2.96,-1.34,-2.91,-1.29,1.29,0.97,2.08,-1.67,-1.62,-1.62
31.30,-2.89,-1.27,-2.87,-1.26,1.26,0.92,2.07,-1.64,-1.62,-1.62
31.61,-2.83,-1.21,-2.84,-1.22,1.22,0.88,2.06,-1.61,-1.62,-1.62
31.93,-2.76,-1.13,-2.80,-1.17,1.17,0.83,2.04,-1.59,-1.63,-1.63
32.24,-2.74,-1.10,-2.76,-1.13,1.13,0.79,2.02,-1.61,-1.63,-1.64
32.57,-2.74,-1.10,-2.72,-1.08,1.08,0.74,1.99,-1.66,-1.64,-1.64
32.89,-2.74,-1.09,-2.68,-1.03,1.03,0.70,1.96,-1.71,-1.64,-1.65
33.22,-2.69,-1.04,-2.63,-0.98,0.98,0.66,1.92,-1.71,-1.65,-1.65
33.55,-2.61,-0.96,-2.59,-0.93,0.93,0.62,1.88,-1.68,-1.65,-1.65
33.89,-2.54,-0.89,-2.54,-0.89,0.89,0.58,1.84,-1.65,-1.66,-1.65
34.23,-2.47,-0.82,-2.50,-0.84,0.84,0.54,1.80,-1.63,-1.66,-1.65
34.57,-2.42,-0.76,-2.45,-0.79,0.79,0.50,1.75,-1.63,-1.66,-1.66
34.92,-2.36,-0.69,-2.41,-0.74,0.74,0.46,1.69,-1.62,-1.67,-1.67
35.27,-2.33,-0.66,-2.37,-0.70,0.70,0.43,1.64,-1.63,-1.67,-1.67
35.62,-2.31,-0.63,-2.34,-0.66,0.66,0.39,1.58,-1.65,-1.67,-1.68
35.97,-2.28,-0.60,-2.30,-0.62,0.62,0.36,1.52,-1.66,-1.68,-1.68
36.33,-2.27,-0.59,-2.25,-0.57,0.57,0.32,1.46,-1.70,-1.69,-1.68
36.70,-2.26,-0.57,-2.21,-0.52,0.52,0.29,1.40,-1.74,-1.69,-1.69
37.06,-2.24,-0.54,-2.18,-0.48,0.48,0.25,1.33,-1.76,-1.70,-1.70
37.43,-2.16,-0.46,-2.15,-0.44,0.44,0.22,1.27,-1.71,-1.70,-1.70
37.81,-2.09,-0.39,-2.11,-0.41,0.41,0.19,1.20,-1.68,-1.71,-1.70
38.19,-2.05,-0.33,-2.08,-0.37,0.37,0.16,1.13,-1.68,-1.71,-1.72
38.57,-2.05,-0.33,-2.04,-0.32,0.32,0.13,1.06,-1.73,-1.72,-1.72
38.95,-2.05,-0.33,-2.00,-0.28,0.28,0.10,0.99,-1.77,-1.72,-1.72
39.34,-1.97,-0.23,-1.95,-0.22,0.22,0.07,0.92,-1.74,-1.73,-1.74
39.74,-1.88,-0.13,-1.90,-0.17,0.17,0.04,0.85,-1.71,-1.73,-1.75
40.14,-1.82,-0.08,-1.86,-0.12,0.12,0.01,0.78,-1.70,-1.74,-1.74
40.54,-1.82,-0.08,-1.82,-0.07,0.07,-0.02,0.71,-1.75,-1.75,-1.74
40.94,-1.82,-0.07,-1.78,-0.02,0.02,-0.05,0.64,-1.79,-1.76,-1.75
41.35,-1.76,0.00,-1.75,0.02,-0.02,-0.07,0.57,-1.78,-1.77,-1.76
41.76,-1.69,0.09,-1.72,0.06,-0.06,-0.10,0.50,-1.75,-1.79,-1.78
42.18,-1.64,0.15,-1.69,0.11,-0.11,-0.13,0.43,-1.75,-1.81,-1.79
42.60,-1.62,0.19,-1.66,0.17,-0.17,-0.16,0.36,-1.79,-1.83,-1.81
43.03,-1.60,0.23,-1.62,0.22,-0.22,-0.18,0.28,-1.82,-1.85,-1.83
43.46,-1.60,0.25,-1.59,0.28,-0.28,-0.21,0.21,-1.88,-1.87,-1.85
43.90,-1.60,0.30,-1.57,0.33,-0.33,-0.24,0.14,-1.93,-1.89,-1.90
44.33,-1.60,0.32,-1.55,0.37,-0.37,-0.26,0.07,-1.97,-1.92,-1.92
44.78,-1.60,0.36,-1.53,0.42,-0.42,-0.29,0.00,-2.02,-1.94,-1.96
45.23,-1.55,0.43,-1.50,0.46,-0.46,-0.31,-0.07,-2.01,-1.97,-1.98
45.68,-1.44,0.57,-1.48,0.51,-0.51,-0.34,-0.14,-1.95,-1.99,-2.01
46.13,-1.37,0.65,-1.45,0.55,-0.55,-0.37,-0.21,-1.92,-2.01,-2.02
46.60,-1.37,0.66,-1.43,0.60,-0.60,-0.39,-0.28,-1.97,-2.02,-2.03
47.06,-1.37,0.67,-1.40,0.64,-0.64,-0.42,-0.35,-2.01,-2.03,-2.04
47.53,-1.37,0.68,-1.36,0.68,-0.68,-0.44,-0.42,-2.05,-2.04,-2.05
48.01,-1.37,0.68,-1.34,0.71,-0.71,-0.47,-0.49,-2.08,-2.05,-2.05
48.49,-1.37,0.68,-1.31,0.74,-0.74,-0.49,-0.55,-2.11,-2.05,-2.05
48.97,-1.37,0.69,-1.28,0.77,-0.77,-0.52,-0.62,-2.13,-2.05,-2.06
49.46,-1.26,0.81,-1.26,0.79,-0.79,-0.54,-0.69,-2.05,-2.05,-2.07
49.96,-1.15,0.91,-1.23,0.82,-0.82,-0.57,-0.76,-1.97,-2.05,-2.06
50.46,-1.14,0.91,-1.20,0.85,-0.85,-0.59,-0.83,-1.99,-2.05,-2.05
50.96,-1.14,0.90,-1.17,0.88,-0.88,-0.62,-0.89,-2.02,-2.05,-2.04
51.47,-1.14,0.91,-1.14,0.92,-0.92,-0.65,-0.96,-2.06,-2.06,-2.05
51.99,-1.14,0.92,-1.10,0.97,-0.97,-0.67,-1.02,-2.11,-2.07,-2.06
52.51,-1.14,0.93,-1.08,1.01,-1.01,-0.70,-1.09,-2.15,-2.09,-2.07
53.03,-1.13,0.95,-1.05,1.06,-1.06,-0.72,-1.15,-2.19,-2.11,-2.08
53.56,-1.01,1.10,-1.02,1.11,-1.11,-0.75,-1.22,-2.12,-2.13,-2.11
54.10,-0.91,1.24,-1.00,1.16,-1.16,-0.77,-1.28,-2.07,-2.16,-2.15
54.64,-0.91,1.28,-0.97,1.22,-1.22,-0.80,-1.34,-2.13,-2.20,-2.19
55.18,-0.91,1.32,-0.95,1.28,-1.28,-0.82,-1.40,-2.19,-2.23,-2.23
55.74,-0.91,1.37,-0.92,1.35,-1.35,-0.85,-1.45,-2.26,-2.28,-2.28
56.29,-0.91,1.42,-0.89,1.44,-1.44,-0.88,-1.51,-2.35,-2.33,-2.33
56.86,-0.91,1.47,-0.86,1.52,-1.52,-0.90,-1.56,-2.43,-2.38,-2.38
57.42,-0.91,1.53,-0.82,1.61,-1.61,-0.93,-1.62,-2.52,-2.43,-2.44
58.00,-0.91,1.58,-0.79,1.70,-1.70,-0.96,-1.66,-2.61,-2.49,-2.49
58.58,-0.78,1.76,-0.76,1.78,-1.78,-0.98,-1.71,-2.56,-2.54,-2.54
59.16,-0.68,1.91,-0.74,1.85,-1.85,-1.01,-1.76,-2.53,-2.60,-2.59
59.76,-0.68,1.96,-0.74,1.92,-1.92,-1.04,-1.80,-2.60,-2.65,-2.64
60.35,-0.68,2.03,-0.73,1.97,-1.97,-1.06,-1.84,-2.65,-2.70,-2.71
60.96,-0.68,2.07,-0.72,2.03,-2.03,-1.09,-1.88,-2.71,-2.76,-2.75
61.57,-0.68,2.13,-0.72,2.08,-2.08,-1.12,-1.91,-2.76,-2.81,-2.81
62.18,-0.68,2.19,-0.73,2.13,-2.13,-1.15,-1.94,-2.81,-2.86,-2.87
62.80,-0.68,2.23,-0.74,2.16,-2.16,-1.18,-1.97,-2.84,-2.90,-2.91
63.43,-0.72,2.23,-0.76,2.19,-2.19,-1.20,-2.00,-2.91,-2.95,-2.95
64.07,-0.79,2.20,-0.77,2.22,-2.22,-1.23,-2.02,-3.01,-2.99,-2.99
64.71,-0.87,2.16,-0.78,2.24,-2.24,-1.26,-2.04,-3.11,-3.02,-3.03
65.35,-0.91,2.16,-0.80,2.26,-2.26,-1.29,-2.06,-3.17,-3.06,-3.07
66.01,-0.91,2.18,-0.82,2.26,-2.26,-1.32,-2.08,-3.17,-3.09,-3.09
66.67,-0.91,2.21,-0.85,2.27,-2.27,-1.35,-2.09,-3.18,-3.12,-3.12
67.33,-0.91,2.23,-0.87,2.27,-2.27,-1.38,-2.10,-3.18,-3.14,-3.14
68.01,-0.91,2.25,-0.90,2.26,-2.26,-1.41,-2.11,-3.17,-3.16,-3.16
68.69,-0.91,2.27,-0.94,2.24,-2.24,-1.44,-2.12,-3.15,-3.18,-3.18
69.37,-0.91,2.29,-0.99,2.22,-2.22,-1.47,-2.13,-3.13,-3.20,-3.20
70.07,-0.91,2.32,-1.03,2.19,-2.19,-1.50,-2.14,-3.10,-3.22,-3.23
70.77,-0.91,2.32,-1.09,2.16,-2.16,-1.53,-2.14,-3.07,-3.24,-3.23
71.48,-1.02,2.23,-1.14,2.12,-2.12,-1.56,-2.15,-3.14,-3.26,-3.25
72.19,-1.19,2.08,-1.20,2.08,-2.08,-1.59,-2.15,-3.27,-3.28,-3.27
72.91,-1.35,1.94,-1.26,2.04,-2.04,-1.63,-2.15,-3.39,-3.29,-3.29
73.64,-1.37,1.93,-1.33,1.99,-1.99,-1.66,-2.16,-3.36,-3.31,-3.30
74.38,-1.43,1.89,-1.40,1.93,-1.93,-1.69,-2.16,-3.36,-3.33,-3.32
75.12,-1.55,1.80,-1.46,1.88,-1.88,-1.72,-2.16,-3.43,-3.35,-3.35
75.87,-1.59,1.77,-1.52,1.84,-1.84,-1.76,-2.17,-3.43,-3.36,-3.36
76.63,-1.60,1.78,-1.57,1.80,-1.80,-1.79,-2.17,-3.40,-3.37,-3.38
77.40,-1.60,1.79,-1.60,1.78,-1.78,-1.82,-2.18,-3.38,-3.39,-3.39
78.17,-1.60,1.81,-1.62,1.78,-1.78,-1.86,-2.18,-3.38,-3.40,-3.41
78.95,-1.60,1.80,-1.61,1.79,-1.79,-1.89,-2.19,-3.39,-3.40,-3.40
79.74,-1.60,1.80,-1.59,1.81,-1.81,-1.93,-2.20,-3.41,-3.41,-3.40
80.54,-1.60,1.81,-1.56,1.85,-1.85,-1.96,-2.21,-3.45,-3.41,-3.41
81.35,-1.59,1.83,-1.51,1.89,-1.89,-2.00,-2.22,-3.48,-3.40,-3.42
82.16,-1.55,1.86,-1.47,1.93,-1.93,-2.03,-2.23,-3.48,-3.40,-3.41
82.98,-1.37,2.02,-1.41,1.98,-1.98,-2.07,-2.25,-3.35,-3.39,-3.39
83.81,-1.37,2.01,-1.35,2.02,-2.02,-2.10,-2.26,-3.39,-3.38,-3.38
84.65,-1.22,2.15,-1.30,2.07,-2.07,-2.14,-2.28,-3.29,-3.36,-3.37
85.50,-1.14,2.21,-1.24,2.11,-2.11,-2.18,-2.30,-3.25,-3.35,-3.35
86.35,-1.14,2.19,-1.17,2.16,-2.16,-2.22,-2.32,-3.30,-3.33,-3.33
87.22,-1.13,2.19,-1.11,2.21,-2.21,-2.25,-2.34,-3.34,-3.31,-3.32
88.09,-1.07,2.23,-1.04,2.25,-2.25,-2.29,-2.37,-3.32,-3.29,-3.30
88.97,-0.92,2.35,-0.98,2.30,-2.30,-2.33,-2.39,-3.22,-3.28,-3.27
89.86,-0.91,2.34,-0.92,2.34,-2.34,-2.37,-2.42,-3.25,-3.26,-3.25
90.76,-0.91,2.34,-0.87,2.37,-2.37,-2.41,-2.45,-3.28,-3.25,-3.25
91.66,-0.91,2.31,-0.83,2.40,-2.40,-2.45,-2.48,-3.31,-3.24,-3.22
92.58,-0.83,2.40,-0.80,2.42,-2.42,-2.49,-2.51,-3.25,-3.23,-3.23
93.51,-0.73,2.48,-0.77,2.45,-2.45,-2.53,-2.55,-3.18,-3.22,-3.21
94.44,-0.68,2.53,-0.75,2.47,-2.47,-2.57,-2.59,-3.15,-3.21,-3.21
95.39,-0.68,2.52,-0.72,2.49,-2.49,-2.61,-2.63,-3.17,-3.21,-3.20
96.34,-0.68,2.54,-0.70,2.51,-2.51,-2.65,-2.67,-3.19,-3.21,-3.22
97.30,-0.68,2.54,-0.68,2.53,-2.53,-2.69,-2.71,-3.21,-3.21,-3.22
98.28,-0.68,2.55,-0.68,2.55,-2.55,-2.73,-2.75,-3.23,-3.22,-3.23
99.26,-0.68,2.56,-0.67,2.56,-2.56,-2.77,-2.80,-3.24,-3.23,-3.24
100.25,-0.68,2.57,-0.67,2.58,-2.58,-2.81,-2.84,-3.26,-3.25,-3.25
101.25,-0.68,2.59,-0.66,2.60,-2.60,-2.85,-2.89,-3.28,-3.27,-3.27
102.27,-0.68,2.61,-0.66,2.62,-2.62,-2.90,-2.94,-3.30,-3.29,-3.29
103.29,-0.68,2.63,-0.67,2.64,-2.64,-2.94,-2.98,-3.32,-3.31,-3.31
104.32,-0.68,2.65,-0.68,2.67,-2.67,-2.98,-3.03,-3.35,-3.35,-3.33
105.37,-0.68,2.68,-0.68,2.70,-2.70,-3.03,-3.08,-3.38,-3.38,-3.36
106.42,-0.68,2.72,-0.68,2.74,-2.74,-3.07,-3.13,-3.42,-3.42,-3.40
107.48,-0.68,2.77,-0.68,2.78,-2.78,-3.11,-3.18,-3.46,-3.46,-3.45
108.56,-0.68,2.83,-0.68,2.83,-2.83,-3.16,-3.23,-3.51,-3.51,-3.51
109.64,-0.68,2.88,-0.68,2.88,-2.88,-3.20,-3.28,-3.56,-3.56,-3.56
110.74,-0.68,2.93,-0.68,2.94,-2.94,-3.24,-3.33,-3.62,-3.62,-3.61
111.85,-0.68,2.98,-0.68,2.99,-2.99,-3.29,-3.38,-3.67,-3.67,-3.66
112.97,-0.68,3.05,-0.68,3.04,-3.04,-3.33,-3.43,-3.72,-3.72,-3.73
114.10,-0.68,3.10,-0.68,3.10,-3.10,-3.38,-3.47,-3.78,-3.78,-3.78
115.24,-0.68,3.15,-0.68,3.15,-3.15,-3.42,-3.52,-3.83,-3.83,-3.83
116.39,-0.68,3.21,-0.68,3.20,-3.20,-3.47,-3.56,-3.88,-3.88,-3.89
117.55,-0.68,3.26,-0.68,3.24,-3.24,-3.51,-3.60,-3.92,-3.92,-3.94
118.73,-0.68,3.31,-0.68,3.28,-3.28,-3.56,-3.63,-3.96,-3.96,-3.99
119.92,-0.68,3.33,-0.68,3.32,-3.32,-3.60,-3.67,-4.00,-4.00,-4.01
121.12,-0.68,3.37,-0.68,3.35,-3.35,-3.65,-3.70,-4.03,-4.03,-4.05
122.33,-0.68,3.40,-0.68,3.38,-3.38,-3.69,-3.73,-4.06,-4.06,-4.08
123.55,-0.68,3.40,-0.68,3.41,-3.41,-3.74,-3.75,-4.09,-4.09,-4.08
124.79,-0.68,3.43,-0.68,3.43,-3.43,-3.79,-3.78,-4.11,-4.11,-4.11
126.03,-0.68,3.44,-0.68,3.45,-3.45,-3.83,-3.80,-4.13,-4.13,-4.12
127.29,-0.68,3.46,-0.68,3.47,-3.47,-3.88,-3.82,-4.15,-4.15,-4.14
128.57,-0.68,3.48,-0.68,3.48,-3.48,-3.92,-3.83,-4.16,-4.16,-4.16
129.85,-0.68,3.50,-0.68,3.50,-3.50,-3.97,-3.84,-4.18,-4.18,-4.18
131.15,-0.68,3.51,-0.68,3.52,-3.52,-4.01,-3.85,-4.20,-4.20,-4.19
132.46,-0.68,3.53,-0.68,3.53,-3.53,-4.06,-3.86,-4.21,-4.21,-4.21
133.79,-0.68,3.54,-0.68,3.55,-3.55,-4.10,-3.86,-4.23,-4.23,-4.22
135.12,-0.68,3.57,-0.69,3.56,-3.56,-4.15,-3.86,-4.24,-4.25,-4.25
136.48,-0.68,3.59,-0.69,3.57,-3.57,-4.19,-3.87,-4.25,-4.27,-4.27
137.84,-0.68,3.61,-0.70,3.59,-3.59,-4.24,-3.86,-4.27,-4.29,-4.29
139.22,-0.68,3.65,-0.70,3.61,-3.61,-4.28,-3.86,-4.29,-4.31,-4.33
140.61,-0.68,3.67,-0.69,3.64,-3.64,-4.33,-3.86,-4.32,-4.33,-4.35
142.02,-0.68,3.68,-0.69,3.67,-3.67,-4.37,-3.86,-4.35,-4.36,-4.36
143.44,-0.68,3.71,-0.69,3.71,-3.71,-4.41,-3.85,-4.39,-4.39,-4.39
144.87,-0.68,3.74,-0.67,3.76,-3.76,-4.46,-3.85,-4.44,-4.43,-4.42
146.32,-0.68,3.78,-0.66,3.81,-3.81,-4.50,-3.85,-4.49,-4.47,-4.46
147.78,-0.68,3.80,-0.64,3.88,-3.88,-4.54,-3.85,-4.56,-4.52,-4.48
149.26,-0.68,3.86,-0.62,3.95,-3.95,-4.58,-3.84,-4.63,-4.57,-4.54
150.75,-0.58,4.02,-0.59,4.03,-4.03,-4.62,-3.84,-4.61,-4.62,-4.60
152.26,-0.49,4.17,-0.55,4.13,-4.13,-4.66,-3.84,-4.62,-4.68,-4.66
153.78,-0.46,4.26,-0.50,4.24,-4.24,-4.70,-3.85,-4.70,-4.74,-4.72
155.32,-0.46,4.34,-0.44,4.35,-4.35,-4.74,-3.85,-4.81,-4.80,-4.80
156.88,-0.44,4.43,-0.37,4.48,-4.48,-4.78,-3.86,-4.92,-4.86,-4.87
158.44,-0.29,4.64,-0.31,4.61,-4.61,-4.82,-3.87,-4.90,-4.92,-4.93
160.03,-0.23,4.76,-0.23,4.74,-4.74,-4.85,-3.88,-4.97,-4.97,-4.99
161.63,-0.23,4.81,-0.15,4.87,-4.87,-4.89,-3.89,-5.10,-5.02,-5.04
163.24,-0.09,4.99,-0.06,5.00,-5.00,-4.93,-3.91,-5.09,-5.06,-5.08
164.88,-0.00,5.11,0.03,5.13,-5.13,-4.96,-3.93,-5.13,-5.09,-5.11
166.53,0.18,5.32,0.12,5.24,-5.24,-4.99,-3.95,-5.06,-5.12,-5.14
168.19,0.23,5.39,0.21,5.34,-5.34,-5.03,-3.97,-5.11,-5.13,-5.16
169.87,0.28,5.45,0.29,5.43,-5.43,-5.06,-4.00,-5.15,-5.14,-5.17
171.57,0.42,5.58,0.37,5.52,-5.52,-5.09,-4.03,-5.10,-5.15,-5.16
173.29,0.46,5.61,0.45,5.59,-5.59,-5.12,-4.06,-5.13,-5.14,-5.15
175.02,0.46,5.59,0.52,5.65,-5.65,-5.15,-4.10,-5.19,-5.14,-5.13
176.77,0.65,5.77,0.57,5.71,-5.71,-5.17,-4.14,-5.06,-5.13,-5.12
178.54,0.68,5.79,0.63,5.75,-5.75,-5.20,-4.18,-5.07,-5.12,-5.11
180.32,0.68,5.77,0.66,5.77,-5.77,-5.22,-4.23,-5.09,-5.11,-5.09
182.13,0.68,5.76,0.68,5.78,-5.78,-5.25,-4.28,-5.10,-5.11,-5.08
183.95,0.68,5.75,0.68,5.79,-5.79,-5.27,-4.33,-5.11,-5.10,-5.07
185.79,0.68,5.76,0.68,5.78,-5.78,-5.29,-4.39,-5.10,-5.10,-5.08
187.65,0.68,5.77,0.67,5.77,-5.77,-5.31,-4.45,-5.09,-5.10,-5.09
189.52,0.68,5.78,0.66,5.76,-5.76,-5.32,-4.51,-5.08,-5.10,-5.10
191.42,0.68,5.80,0.63,5.74,-5.74,-5.34,-4.57,-5.06,-5.11,-5.12
193.33,0.68,5.81,0.61,5.73,-5.73,-5.35,-4.64,-5.05,-5.12,-5.13
195.27,0.58,5.71,0.59,5.72,-5.72,-5.37,-4.71,-5.14,-5.13,-5.13
197.22,0.48,5.62,0.55,5.70,-5.70,-5.38,-4.78,-5.22,-5.14,-5.14
199.19,0.46,5.63,0.53,5.69,-5.69,-5.39,-4.85,-5.23,-5.16,-5.17
201.18,0.46,5.63,0.51,5.68,-5.68,-5.39,-4.93,-5.22,-5.17,-5.17
203.19,0.46,5.64,0.49,5.68,-5.68,-5.40,-5.01,-5.22,-5.18,-5.18
205.23,0.46,5.66,0.48,5.67,-5.67,-5.40,-5.08,-5.21,-5.20,-5.20
207.28,0.46,5.66,0.46,5.67,-5.67,-5.40,-5.16,-5.21,-5.21,-5.20
209.35,0.46,5.68,0.45,5.67,-5.67,-5.40,-5.24,-5.21,-5.22,-5.22
211.44,0.46,5.70,0.46,5.69,-5.69,-5.40,-5.32,-5.23,-5.23,-5.24
213.56,0.46,5.70,0.46,5.70,-5.70,-5.40,-5.40,-5.24,-5.24,-5.24
215.69,0.46,5.70,0.46,5.71,-5.71,-5.39,-5.48,-5.25,-5.25,-5.24
217.85,0.46,5.72,0.47,5.72,-5.72,-5.39,-5.55,-5.26,-5.26,-5.26
220.03,0.46,5.72,0.46,5.73,-5.73,-5.38,-5.62,-5.27,-5.26,-5.26
222.23,0.46,5.74,0.45,5.72,-5.72,-5.36,-5.69,-5.26,-5.27,-5.28
224.45,0.46,5.74,0.45,5.72,-5.72,-5.35,-5.76,-5.26,-5.28,-5.28
226.70,0.46,5.73,0.43,5.71,-5.71,-5.33,-5.82,-5.25,-5.28,-5.27
228.96,0.46,5.74,0.42,5.70,-5.70,-5.32,-5.88,-5.24,-5.28,-5.28
231.25,0.46,5.74,0.39,5.67,-5.67,-5.30,-5.93,-5.21,-5.28,-5.28
233.57,0.42,5.70,0.36,5.64,-5.64,-5.28,-5.97,-5.22,-5.28,-5.28
235.90,0.24,5.53,0.33,5.61,-5.61,-5.25,-6.01,-5.37,-5.28,-5.29
238.26,0.23,5.52,0.29,5.57,-5.57,-5.23,-6.03,-5.34,-5.28,-5.29
240.64,0.23,5.51,0.25,5.53,-5.53,-5.20,-6.06,-5.30,-5.27,-5.28
243.05,0.23,5.50,0.22,5.49,-5.49,-5.17,-6.07,-5.26,-5.27,-5.27
245.48,0.23,5.49,0.19,5.45,-5.45,-5.14,-6.07,-5.22,-5.26,-5.26
247.93,0.23,5.48,0.16,5.41,-5.41,-5.10,-6.06,-5.18,-5.25,-5.25
250.41,0.04,5.29,0.13,5.37,-5.37,-5.07,-6.05,-5.33,-5.25,-5.25
252.92,0.00,5.24,0.10,5.34,-5.34,-5.03,-6.02,-5.34,-5.24,-5.24
255.45,0.00,5.21,0.07,5.30,-5.30,-4.99,-5.98,-5.30,-5.22,-5.21
258.00,0.00,5.20,0.04,5.26,-5.26,-4.95,-5.94,-5.26,-5.21,-5.20
260.58,0.00,5.20,0.01,5.21,-5.21,-4.91,-5.88,-5.21,-5.20,-5.20
263.19,0.00,5.18,-0.02,5.16,-5.16,-4.86,-5.82,-5.16,-5.18,-5.18
265.82,0.00,5.18,-0.08,5.09,-5.09,-4.82,-5.75,-5.09,-5.17,-5.18
268.48,-0.05,5.10,-0.14,5.01,-5.01,-4.77,-5.67,-5.06,-5.15,-5.15
271.16,-0.18,4.95,-0.20,4.92,-4.92,-4.72,-5.58,-5.10,-5.13,-5.13
273.87,-0.23,4.89,-0.29,4.82,-4.82,-4.67,-5.49,-5.05,-5.11,-5.12
276.61,-0.36,4.72,-0.39,4.70,-4.70,-4.61,-5.39,-5.06,-5.08,-5.08
279.38,-0.44,4.62,-0.49,4.57,-4.57,-4.56,-5.28,-5.01,-5.06,-5.06
282.17,-0.62,4.42,-0.62,4.41,-4.41,-4.50,-5.17,-5.03,-5.03,-5.04
284.99,-0.74,4.27,-0.77,4.23,-4.23,-4.44,-5.06,-4.97,-5.01,-5.01
287.84,-0.90,4.08,-0.93,4.04,-4.04,-4.39,-4.94,-4.94,-4.98,-4.98
290.72,-0.98,3.96,-1.09,3.85,-3.85,-4.33,-4.82,-4.83,-4.95,-4.94
293.63,-1.23,3.69,-1.24,3.67,-3.67,-4.26,-4.70,-4.90,-4.92,-4.92
296.57,-1.35,3.54,-1.38,3.51,-3.51,-4.20,-4.57,-4.86,-4.89,-4.89
299.53,-1.54,3.32,-1.51,3.35,-3.35,-4.14,-4.44,-4.89,-4.86,-4.86
302.53,-1.78,3.06,-1.63,3.21,-3.21,-4.07,-4.32,-4.99,-4.84,-4.84
305.55,-1.82,2.99,-1.73,3.09,-3.09,-4.01,-4.19,-4.91,-4.82,-4.81
308.61,-1.88,2.91,-1.80,3.00,-3.00,-3.94,-4.06,-4.88,-4.80,-4.79
311.69,-2.03,2.74,-1.86,2.93,-2.93,-3.87,-3.93,-4.96,-4.78,-4.77
314.81,-2.05,2.69,-1.89,2.88,-2.88,-3.80,-3.81,-4.93,-4.77,-4.74
317.96,-1.91,2.83,-1.90,2.86,-2.86,-3.73,-3.68,-4.77,-4.76,-4.74
321.14,-1.82,2.93,-1.89,2.86,-2.86,-3.66,-3.56,-4.68,-4.74,-4.75
324.35,-1.82,2.92,-1.86,2.87,-2.87,-3.59,-3.43,-4.69,-4.73,-4.74
327.59,-1.82,2.91,-1.82,2.90,-2.90,-3.52,-3.31,-4.72,-4.72,-4.73
330.87,-1.82,2.90,-1.78,2.93,-2.93,-3.44,-3.19,-4.75,-4.71,-4.72
334.18,-1.72,2.99,-1.74,2.96,-2.96,-3.37,-3.07,-4.68,-4.70,-4.71
337.52,-1.61,3.09,-1.69,3.00,-3.00,-3.29,-2.95,-4.61,-4.69,-4.70
340.90,-1.60,3.08,-1.66,3.02,-3.02,-3.22,-2.83,-4.62,-4.67,-4.68
344.30,-1.60,3.07,-1.64,3.02,-3.02,-3.14,-2.72,-4.62,-4.66,-4.67
347.75,-1.60,3.05,-1.63,3.01,-3.01,-3.07,-2.60,-4.61,-4.64,-4.65
351.23,-1.60,3.02,-1.64,2.98,-2.98,-2.99,-2.49,-4.58,-4.62,-4.62
354.74,-1.60,3.00,-1.68,2.92,-2.92,-2.91,-2.38,-4.52,-4.60,-4.60
358.28,-1.71,2.86,-1.73,2.84,-2.84,-2.84,-2.27,-4.55,-4.57,-4.57
361.87,-1.80,2.75,-1.79,2.76,-2.76,-2.76,-2.16,-4.56,-4.55,-4.55
365.49,-1.82,2.70,-1.85,2.67,-2.67,-2.68,-2.06,-4.49,-4.53,-4.52
369.14,-1.84,2.67,-1.93,2.57,-2.57,-2.60,-1.96,-4.41,-4.50,-4.51
372.83,-1.99,2.49,-2.02,2.46,-2.46,-2.53,-1.86,-4.45,-4.48,-4.48
376.56,-2.10,2.36,-2.11,2.35,-2.35,-2.45,-1.76,-4.45,-4.46,-4.46
380.33,-2.25,2.18,-2.19,2.25,-2.25,-2.37,-1.66,-4.50,-4.44,-4.43
384.13,-2.28,2.13,-2.26,2.16,-2.16,-2.29,-1.56,-4.44,-4.42,-4.41
387.97,-2.43,1.97,-2.32,2.08,-2.08,-2.22,-1.47,-4.51,-4.41,-4.40
391.85,-2.50,1.89,-2.38,2.02,-2.02,-2.14,-1.38,-4.52,-4.39,-4.39
395.77,-2.51,1.87,-2.42,1.96,-1.96,-2.06,-1.29,-4.47,-4.38,-4.38
399.73,-2.51,1.86,-2.45,1.92,-1.92,-1.98,-1.20,-4.43,-4.37,-4.37
403.72,-2.51,1.85,-2.48,1.88,-1.88,-1.91,-1.11,-4.39,-4.36,-4.36
407.76,-2.51,1.84,-2.51,1.84,-1.84,-1.83,-1.03,-4.35,-4.35,-4.35
411.84,-2.51,1.83,-2.54,1.81,-1.81,-1.76,-0.94,-4.32,-4.35,-4.34
415.96,-2.51,1.83,-2.56,1.79,-1.79,-1.68,-0.86,-4.30,-4.34,-4.34
420.12,-2.51,1.83,-2.57,1.77,-1.77,-1.60,-0.78,-4.28,-4.34,-4.34
424.32,-2.51,1.83,-2.60,1.74,-1.74,-1.53,-0.71,-4.25,-4.34,-4.34
428.56,-2.51,1.83,-2.63,1.71,-1.71,-1.46,-0.64,-4.22,-4.33,-4.34
432.85,-2.60,1.74,-2.67,1.66,-1.66,-1.38,-0.57,-4.26,-4.33,-4.34
