frequency,raw,error,smoothed,error_smoothed,equalization,parametric_eq,equalized_raw,equalized_smoothed,target
20,-13.67,-16.87,-13.59,-16.79,6.00,2.84,-7.67,-7.59,3.20
21,-13.06,-16.26,-13.06,-16.26,6.00,3.26,-7.06,-7.06,3.20
22,-12.52,-15.72,-12.54,-15.74,6.00,3.71,-6.52,-6.54,3.20
23,-11.80,-15.00,-12.03,-15.24,6.00,4.21,-5.80,-6.03,3.20
24,-11.62,-14.82,-11.54,-14.74,6.00,4.73,-5.62,-5.54,3.21
25,-10.97,-14.18,-11.05,-14.26,6.00,5.28,-4.97,-5.05,3.21
26,-10.63,-13.84,-10.58,-13.79,6.00,5.82,-4.63,-4.58,3.21
27,-10.20,-13.41,-10.12,-13.33,6.00,6.33,-4.20,-4.12,3.21
28,-9.80,-13.01,-9.67,-12.88,6.00,6.80,-3.80,-3.67,3.21
29,-9.23,-12.44,-9.23,-12.44,6.00,7.17,-3.23,-3.23,3.21
30,-8.64,-11.85,-8.80,-12.01,6.00,7.43,-2.64,-2.80,3.21
31,-8.50,-11.71,-8.38,-11.59,6.00,7.57,-2.50,-2.38,3.21
32,-7.89,-11.10,-7.99,-11.20,6.00,7.57,-1.89,-1.99,3.21
33,-7.54,-10.75,-7.62,-10.82,6.00,7.46,-1.54,-1.62,3.21
34,-7.29,-10.49,-7.26,-10.47,6.00,7.27,-1.29,-1.26,3.20
35,-6.90,-10.10,-6.93,-10.13,6.00,7.02,-0.90,-0.93,3.20
36,-6.61,-9.81,-6.61,-9.81,6.00,6.74,-0.61,-0.61,3.20
37,-6.35,-9.54,-6.30,-9.49,6.00,6.45,-0.35,-0.30,3.19
38,-6.10,-9.28,-5.99,-9.18,6.00,6.17,-0.10,0.01,3.19
39,-5.70,-8.88,-5.70,-8.88,6.00,5.90,0.30,0.30,3.18
40,-5.44,-8.61,-5.40,-8.58,6.00,5.65,0.56,0.60,3.17
41,-5.02,-8.18,-5.12,-8.28,6.00,5.42,0.98,0.88,3.16
42,-4.84,-7.99,-4.84,-7.99,6.00,5.22,1.16,1.16,3.15
43,-4.56,-7.70,-4.58,-7.72,6.00,5.04,1.44,1.42,3.14
44,-4.33,-7.46,-4.33,-7.45,6.00,4.88,1.67,1.67,3.13
45,-4.10,-7.21,-4.09,-7.20,6.00,4.75,1.90,1.91,3.11
46,-3.87,-6.97,-3.86,-6.96,6.00,4.64,2.13,2.14,3.10
47,-3.64,-6.72,-3.65,-6.73,6.00,4.55,2.36,2.35,3.08
48,-3.42,-6.48,-3.44,-6.50,6.00,4.47,2.58,2.56,3.06
49,-3.29,-6.33,-3.24,-6.28,5.96,4.41,2.67,2.72,3.04
50,-2.96,-5.98,-3.04,-6.06,5.87,4.36,2.91,2.83,3.02
51,-2.92,-5.92,-2.84,-5.85,5.74,4.32,2.82,2.89,3.00
52,-2.63,-5.61,-2.65,-5.63,5.57,4.29,2.95,2.93,2.98
53,-2.51,-5.47,-2.45,-5.41,5.39,4.27,2.89,2.94,2.96
54,-2.28,-5.21,-2.26,-5.20,5.20,4.24,2.92,2.93,2.93
55,-2.05,-4.96,-2.08,-4.98,4.98,4.22,2.94,2.91,2.91
56,-2.05,-4.93,-1.90,-4.78,4.78,4.20,2.73,2.88,2.88
57,-1.59,-4.44,-1.74,-4.59,4.59,4.18,3.01,2.86,2.86
58,-1.59,-4.42,-1.59,-4.42,4.42,4.15,2.84,2.83,2.83
59,-1.37,-4.17,-1.47,-4.28,4.28,4.12,2.91,2.80,2.80
60,-1.37,-4.14,-1.38,-4.15,4.15,4.08,2.78,2.77,2.77
61,-1.37,-4.11,-1.30,-4.05,4.05,4.04,2.68,2.75,2.75
62,-1.14,-3.86,-1.24,-3.96,3.96,3.98,2.82,2.72,2.72
63,-1.14,-3.83,-1.18,-3.87,3.87,3.92,2.73,2.69,2.69
64,-1.14,-3.80,-1.12,-3.78,3.78,3.85,2.65,2.66,2.66
65,-1.14,-3.77,-1.06,-3.69,3.69,3.77,2.55,2.63,2.63
66,-1.14,-3.74,-0.97,-3.57,3.57,3.69,2.43,2.60,2.60
67,-0.91,-3.48,-0.87,-3.44,3.44,3.60,2.53,2.57,2.57
68,-0.68,-3.22,-0.74,-3.28,3.28,3.51,2.61,2.54,2.54
69,-0.66,-3.17,-0.61,-3.12,3.12,3.41,2.46,2.51,2.51
70,-0.45,-2.93,-0.47,-2.95,2.95,3.31,2.50,2.48,2.48
71,-0.23,-2.68,-0.32,-2.78,2.78,3.20,2.55,2.45,2.45
72,-0.22,-2.64,-0.19,-2.61,2.61,3.10,2.40,2.42,2.42
73,0.00,-2.39,-0.07,-2.46,2.46,3.00,2.46,2.39,2.39
74,0.00,-2.36,0.04,-2.33,2.33,2.89,2.33,2.36,2.36
75,0.17,-2.16,0.13,-2.20,2.20,2.79,2.38,2.33,2.33
76,0.23,-2.07,0.21,-2.10,2.10,2.69,2.33,2.30,2.30
77,0.23,-2.04,0.28,-2.00,2.00,2.59,2.23,2.28,2.28
78,0.29,-1.95,0.34,-1.91,1.91,2.49,2.20,2.25,2.25
79,0.46,-1.75,0.39,-1.82,1.82,2.39,2.29,2.22,2.22
80,0.46,-1.73,0.45,-1.74,1.74,2.30,2.20,2.19,2.19
81,0.46,-1.70,0.51,-1.65,1.65,2.20,2.11,2.16,2.16
82,0.47,-1.66,0.57,-1.56,1.56,2.11,2.03,2.13,2.13
83,0.69,-1.41,0.63,-1.47,1.47,2.03,2.16,2.10,2.10
84,0.69,-1.38,0.69,-1.38,1.38,1.94,2.07,2.07,2.07
85,0.69,-1.35,0.75,-1.30,1.30,1.86,1.99,2.05,2.05
86,0.81,-1.21,0.80,-1.22,1.22,1.78,2.03,2.02,2.02
87,0.91,-1.08,0.84,-1.15,1.15,1.70,2.06,1.99,1.99
88,0.91,-1.05,0.87,-1.09,1.09,1.63,2.01,1.96,1.96
89,0.91,-1.03,0.89,-1.05,1.05,1.55,1.96,1.94,1.94
90,0.91,-1.00,0.91,-1.00,1.00,1.48,1.92,1.91,1.91
91,0.91,-0.97,0.92,-0.96,0.96,1.41,1.88,1.89,1.89
92,0.91,-0.95,0.94,-0.92,0.92,1.35,1.84,1.86,1.86
93,0.91,-0.93,0.96,-0.88,0.88,1.28,1.79,1.84,1.84
94,0.91,-0.90,0.98,-0.83,0.83,1.22,1.74,1.82,1.81
95,0.93,-0.86,1.02,-0.78,0.78,1.16,1.71,1.79,1.79
96,1.14,-0.63,1.05,-0.72,0.72,1.10,1.87,1.77,1.77
97,1.14,-0.61,1.08,-0.67,0.67,1.05,1.81,1.75,1.75
98,1.14,-0.59,1.11,-0.62,0.62,0.99,1.76,1.73,1.73
99,1.14,-0.57,1.13,-0.58,0.58,0.94,1.72,1.71,1.71
100,1.14,-0.55,1.15,-0.54,0.54,0.89,1.68,1.69,1.69
101,1.14,-0.53,1.15,-0.51,0.51,0.84,1.66,1.66,1.67
102,1.14,-0.52,1.15,-0.49,0.49,0.79,1.63,1.64,1.66
104,1.14,-0.46,1.15,-0.47,0.47,0.69,1.61,1.62,1.60
105,1.14,-0.45,1.15,-0.45,0.45,0.65,1.59,1.60,1.59
106,1.14,-0.43,1.15,-0.43,0.43,0.61,1.57,1.58,1.57
107,1.14,-0.41,1.15,-0.41,0.41,0.57,1.55,1.56,1.56
108,1.14,-0.40,1.15,-0.39,0.39,0.53,1.53,1.54,1.54
109,1.14,-0.38,1.15,-0.37,0.37,0.49,1.51,1.52,1.52
110,1.14,-0.37,1.15,-0.36,0.36,0.46,1.50,1.51,1.51
111,1.14,-0.35,1.14,-0.35,0.35,0.43,1.49,1.49,1.49
112,1.14,-0.33,1.13,-0.34,0.34,0.39,1.48,1.47,1.47
113,1.14,-0.32,1.11,-0.35,0.35,0.36,1.49,1.45,1.46
114,1.14,-0.30,1.08,-0.35,0.35,0.34,1.50,1.43,1.44
115,1.14,-0.28,1.05,-0.37,0.37,0.31,1.51,1.41,1.42
117,0.91,-0.46,1.01,-0.38,0.38,0.26,1.29,1.39,1.37
118,0.91,-0.44,0.98,-0.38,0.38,0.24,1.30,1.36,1.36
119,0.91,-0.42,0.95,-0.39,0.39,0.22,1.30,1.34,1.34
120,0.91,-0.41,0.93,-0.38,0.38,0.20,1.29,1.31,1.32
121,0.91,-0.39,0.92,-0.37,0.37,0.18,1.28,1.29,1.30
123,0.91,-0.34,0.91,-0.35,0.35,0.16,1.26,1.26,1.25
124,0.91,-0.32,0.90,-0.34,0.34,0.15,1.25,1.24,1.23
125,0.91,-0.30,0.89,-0.32,0.32,0.14,1.23,1.21,1.21
126,0.91,-0.28,0.87,-0.31,0.31,0.13,1.23,1.18,1.19
128,0.91,-0.24,0.85,-0.31,0.31,0.12,1.23,1.16,1.15
129,0.82,-0.31,0.82,-0.32,0.32,0.11,1.14,1.13,1.13
130,0.69,-0.42,0.78,-0.33,0.33,0.11,1.02,1.11,1.11
131,0.69,-0.40,0.74,-0.35,0.35,0.11,1.04,1.09,1.09
133,0.69,-0.36,0.70,-0.36,0.36,0.11,1.06,1.06,1.05
134,0.69,-0.35,0.66,-0.38,0.38,0.11,1.07,1.04,1.04
135,0.69,-0.33,0.62,-0.40,0.40,0.11,1.09,1.01,1.02
137,0.61,-0.37,0.58,-0.41,0.41,0.12,1.02,0.99,0.99
138,0.46,-0.51,0.55,-0.42,0.42,0.13,0.88,0.97,0.97
140,0.46,-0.48,0.52,-0.43,0.43,0.14,0.89,0.95,0.94
141,0.46,-0.46,0.49,-0.43,0.43,0.15,0.90,0.92,0.92
142,0.46,-0.45,0.47,-0.44,0.44,0.16,0.90,0.90,0.91
144,0.46,-0.42,0.44,-0.44,0.44,0.18,0.90,0.88,0.88
145,0.46,-0.41,0.42,-0.45,0.45,0.19,0.91,0.86,0.87
147,0.46,-0.38,0.39,-0.46,0.46,0.22,0.92,0.85,0.84
148,0.40,-0.43,0.36,-0.47,0.47,0.23,0.87,0.83,0.83
150,0.23,-0.58,0.32,-0.49,0.49,0.25,0.72,0.81,0.81
151,0.23,-0.57,0.29,-0.51,0.51,0.27,0.74,0.79,0.80
153,0.23,-0.54,0.25,-0.53,0.53,0.30,0.76,0.78,0.77
154,0.23,-0.53,0.21,-0.55,0.55,0.31,0.79,0.76,0.77
156,0.23,-0.51,0.17,-0.58,0.58,0.34,0.81,0.75,0.75
157,0.21,-0.53,0.13,-0.60,0.60,0.35,0.81,0.73,0.74
159,0.00,-0.72,0.09,-0.63,0.63,0.38,0.63,0.72,0.72
160,0.00,-0.71,0.06,-0.65,0.65,0.40,0.65,0.71,0.71
162,0.00,-0.69,0.02,-0.68,0.68,0.43,0.68,0.69,0.70
164,0.00,-0.68,-0.02,-0.70,0.70,0.46,0.71,0.68,0.68
165,0.00,-0.67,-0.06,-0.73,0.73,0.48,0.73,0.67,0.67
167,-0.05,-0.71,-0.10,-0.76,0.76,0.51,0.71,0.66,0.66
169,-0.23,-0.87,-0.14,-0.79,0.79,0.54,0.56,0.65,0.64
170,-0.23,-0.87,-0.18,-0.82,0.82,0.56,0.59,0.64,0.64
172,-0.23,-0.86,-0.23,-0.85,0.85,0.59,0.63,0.63,0.63
174,-0.23,-0.84,-0.27,-0.89,0.89,0.62,0.66,0.62,0.62
175,-0.23,-0.84,-0.32,-0.93,0.93,0.64,0.70,0.61,0.61
177,-0.44,-1.04,-0.37,-0.98,0.98,0.67,0.54,0.60,0.60
179,-0.45,-1.04,-0.43,-1.02,1.02,0.70,0.58,0.60,0.60
181,-0.45,-1.04,-0.48,-1.07,1.07,0.74,0.62,0.59,0.59
183,-0.45,-1.03,-0.53,-1.11,1.11,0.77,0.66,0.58,0.58
184,-0.55,-1.13,-0.56,-1.14,1.14,0.79,0.59,0.58,0.58
186,-0.68,-1.25,-0.59,-1.16,1.16,0.82,0.48,0.57,0.57
188,-0.68,-1.25,-0.60,-1.17,1.17,0.85,0.49,0.57,0.57
190,-0.68,-1.24,-0.59,-1.15,1.15,0.89,0.48,0.56,0.56
192,-0.61,-1.17,-0.57,-1.13,1.13,0.92,0.52,0.56,0.56
194,-0.45,-1.01,-0.54,-1.10,1.10,0.95,0.65,0.56,0.56
196,-0.45,-1.00,-0.51,-1.07,1.07,0.99,0.62,0.56,0.56
198,-0.45,-1.00,-0.48,-1.04,1.04,1.02,0.59,0.55,0.55
200,-0.45,-1.00,-0.46,-1.01,1.01,1.05,0.57,0.55,0.55
202,-0.45,-1.00,-0.45,-1.00,1.00,1.09,0.55,0.55,0.55
204,-0.45,-1.00,-0.44,-0.99,0.99,1.12,0.54,0.55,0.55
206,-0.45,-1.00,-0.44,-0.99,0.99,1.15,0.54,0.55,0.55
208,-0.45,-1.00,-0.44,-0.99,0.99,1.18,0.54,0.55,0.55
210,-0.45,-1.00,-0.44,-0.99,0.99,1.21,0.54,0.55,0.55
212,-0.45,-1.00,-0.44,-0.99,0.99,1.24,0.54,0.55,0.55
214,-0.45,-1.00,-0.44,-0.99,0.99,1.28,0.54,0.55,0.55
216,-0.45,-1.00,-0.44,-0.99,0.99,1.30,0.54,0.55,0.55
218,-0.45,-1.00,-0.44,-1.00,1.00,1.33,0.55,0.55,0.55
221,-0.45,-1.00,-0.46,-1.01,1.01,1.38,0.56,0.55,0.55
223,-0.45,-1.00,-0.48,-1.03,1.03,1.40,0.58,0.56,0.55
225,-0.45,-1.01,-0.50,-1.06,1.06,1.43,0.61,0.56,0.56
227,-0.45,-1.01,-0.53,-1.09,1.09,1.45,0.64,0.56,0.56
229,-0.61,-1.17,-0.56,-1.12,1.12,1.48,0.52,0.56,0.56
232,-0.68,-1.24,-0.60,-1.16,1.16,1.51,0.48,0.56,0.56
234,-0.68,-1.24,-0.63,-1.19,1.19,1.53,0.51,0.56,0.56
236,-0.68,-1.25,-0.65,-1.22,1.22,1.55,0.54,0.57,0.57
239,-0.68,-1.25,-0.67,-1.24,1.24,1.58,0.57,0.57,0.57
241,-0.68,-1.25,-0.70,-1.27,1.27,1.60,0.59,0.57,0.57
244,-0.68,-1.25,-0.72,-1.30,1.30,1.62,0.62,0.57,0.57
246,-0.68,-1.26,-0.75,-1.33,1.33,1.64,0.65,0.58,0.58
248,-0.68,-1.26,-0.78,-1.36,1.36,1.65,0.68,0.58,0.58
251,-0.91,-1.49,-0.81,-1.39,1.39,1.67,0.48,0.58,0.58
253,-0.91,-1.50,-0.84,-1.42,1.42,1.68,0.52,0.59,0.59
256,-0.91,-1.50,-0.86,-1.46,1.46,1.69,0.55,0.59,0.59
259,-0.91,-1.50,-0.89,-1.49,1.49,1.70,0.58,0.60,0.60
261,-0.91,-1.51,-0.92,-1.52,1.52,1.71,0.61,0.60,0.60
264,-0.91,-1.51,-0.95,-1.55,1.55,1.72,0.64,0.61,0.61
266,-0.91,-1.52,-0.98,-1.59,1.59,1.72,0.68,0.61,0.61
269,-0.97,-1.59,-1.02,-1.64,1.64,1.73,0.67,0.62,0.62
272,-1.14,-1.76,-1.07,-1.69,1.69,1.73,0.55,0.63,0.62
274,-1.14,-1.77,-1.12,-1.75,1.75,1.73,0.61,0.63,0.63
277,-1.14,-1.78,-1.17,-1.81,1.81,1.74,0.68,0.64,0.64
280,-1.14,-1.79,-1.23,-1.88,1.88,1.74,0.74,0.65,0.65
283,-1.37,-2.03,-1.27,-1.93,1.93,1.74,0.57,0.66,0.66
286,-1.37,-2.04,-1.32,-1.99,1.99,1.74,0.62,0.67,0.67
288,-1.37,-2.05,-1.35,-2.03,2.03,1.74,0.66,0.68,0.68
291,-1.37,-2.06,-1.37,-2.07,2.07,1.74,0.70,0.70,0.70
294,-1.37,-2.08,-1.39,-2.09,2.09,1.74,0.73,0.71,0.71
297,-1.37,-2.09,-1.39,-2.12,2.12,1.74,0.75,0.72,0.72
300,-1.37,-2.11,-1.39,-2.13,2.13,1.74,0.76,0.74,0.74
303,-1.37,-2.12,-1.39,-2.14,2.14,1.75,0.77,0.76,0.76
306,-1.37,-2.14,-1.37,-2.14,2.14,1.75,0.78,0.77,0.77
309,-1.37,-2.16,-1.35,-2.14,2.14,1.75,0.77,0.79,0.79
312,-1.37,-2.18,-1.31,-2.12,2.12,1.75,0.75,0.81,0.81
316,-1.37,-2.19,-1.27,-2.10,2.10,1.76,0.73,0.83,0.83
319,-1.14,-1.98,-1.22,-2.06,2.06,1.77,0.93,0.85,0.85
322,-1.14,-2.00,-1.16,-2.03,2.03,1.77,0.89,0.87,0.87
325,-1.14,-2.02,-1.10,-1.99,1.99,1.78,0.85,0.89,0.89
328,-1.09,-1.99,-1.04,-1.95,1.95,1.79,0.86,0.91,0.91
332,-0.91,-1.83,-0.99,-1.92,1.92,1.80,1.01,0.93,0.93
335,-0.91,-1.86,-0.95,-1.90,1.90,1.81,0.99,0.95,0.95
338,-0.91,-1.88,-0.93,-1.89,1.89,1.82,0.98,0.97,0.97
342,-0.91,-1.90,-0.91,-1.89,1.89,1.84,0.99,0.99,0.99
345,-0.91,-1.92,-0.89,-1.90,1.90,1.86,0.99,1.01,1.01
349,-0.91,-1.94,-0.89,-1.92,1.92,1.88,1.01,1.03,1.03
352,-0.91,-1.95,-0.89,-1.93,1.93,1.89,1.03,1.05,1.05
356,-0.91,-1.97,-0.89,-1.95,1.95,1.91,1.05,1.07,1.07
359,-0.91,-1.99,-0.90,-1.98,1.98,1.93,1.07,1.08,1.08
363,-0.91,-2.01,-0.91,-2.01,2.01,1.96,1.10,1.10,1.10
366,-0.91,-2.03,-0.92,-2.04,2.04,1.98,1.13,1.12,1.12
370,-0.91,-2.04,-0.95,-2.08,2.08,2.01,1.17,1.13,1.13
374,-0.91,-2.06,-0.98,-2.13,2.13,2.04,1.22,1.15,1.15
377,-0.97,-2.13,-1.01,-2.18,2.18,2.06,1.21,1.16,1.16
381,-1.14,-2.32,-1.05,-2.23,2.23,2.09,1.09,1.18,1.18
385,-1.14,-2.33,-1.08,-2.27,2.27,2.12,1.14,1.19,1.19
389,-1.14,-2.34,-1.11,-2.31,2.31,2.16,1.18,1.20,1.20
393,-1.14,-2.35,-1.13,-2.35,2.35,2.19,1.21,1.21,1.21
397,-1.14,-2.36,-1.14,-2.37,2.37,2.23,1.23,1.23,1.23
401,-1.14,-2.37,-1.15,-2.38,2.38,2.26,1.25,1.24,1.24
405,-1.14,-2.38,-1.15,-2.39,2.39,2.30,1.26,1.25,1.25
409,-1.14,-2.39,-1.15,-2.40,2.40,2.34,1.26,1.26,1.26
413,-1.14,-2.40,-1.14,-2.41,2.41,2.37,1.27,1.26,1.26
417,-1.14,-2.41,-1.14,-2.41,2.41,2.41,1.28,1.27,1.27
421,-1.14,-2.42,-1.14,-2.42,2.42,2.45,1.28,1.28,1.28
425,-1.14,-2.43,-1.14,-2.43,2.43,2.48,1.29,1.29,1.29
430,-1.14,-2.44,-1.14,-2.44,2.44,2.53,1.30,1.30,1.30
434,-1.14,-2.45,-1.14,-2.44,2.44,2.56,1.31,1.31,1.31
438,-1.14,-2.45,-1.14,-2.45,2.45,2.60,1.32,1.32,1.32
443,-1.14,-2.46,-1.14,-2.46,2.46,2.64,1.32,1.32,1.32
447,-1.14,-2.47,-1.14,-2.47,2.47,2.67,1.33,1.33,1.33
451,-1.14,-2.48,-1.14,-2.48,2.48,2.70,1.34,1.34,1.34
456,-1.14,-2.49,-1.14,-2.49,2.49,2.74,1.35,1.35,1.35
460,-1.14,-2.50,-1.14,-2.50,2.50,2.77,1.36,1.36,1.36
465,-1.14,-2.51,-1.14,-2.51,2.51,2.80,1.37,1.37,1.37
470,-1.14,-2.52,-1.14,-2.52,2.52,2.83,1.39,1.39,1.39
474,-1.14,-2.54,-1.14,-2.54,2.54,2.85,1.40,1.40,1.40
479,-1.14,-2.55,-1.14,-2.55,2.55,2.87,1.41,1.41,1.41
484,-1.14,-2.56,-1.14,-2.56,2.56,2.89,1.42,1.42,1.42
489,-1.14,-2.58,-1.14,-2.58,2.58,2.91,1.44,1.44,1.44
494,-1.14,-2.59,-1.14,-2.59,2.59,2.93,1.45,1.45,1.45
499,-1.14,-2.61,-1.14,-2.61,2.61,2.94,1.47,1.47,1.47
504,-1.14,-2.63,-1.14,-2.63,2.63,2.95,1.49,1.49,1.49
509,-1.14,-2.64,-1.14,-2.64,2.64,2.96,1.51,1.51,1.51
514,-1.14,-2.66,-1.14,-2.66,2.66,2.96,1.52,1.52,1.52
519,-1.14,-2.68,-1.14,-2.68,2.68,2.96,1.54,1.54,1.54
524,-1.14,-2.70,-1.14,-2.70,2.70,2.96,1.56,1.56,1.56
529,-1.14,-2.72,-1.14,-2.72,2.72,2.96,1.59,1.59,1.59
535,-1.14,-2.75,-1.14,-2.75,2.75,2.95,1.61,1.61,1.61
540,-1.14,-2.77,-1.14,-2.77,2.77,2.94,1.63,1.63,1.63
545,-1.14,-2.79,-1.14,-2.79,2.79,2.93,1.65,1.65,1.65
551,-1.14,-2.82,-1.14,-2.82,2.82,2.92,1.68,1.68,1.68
556,-1.14,-2.84,-1.14,-2.84,2.84,2.91,1.70,1.70,1.70
562,-1.14,-2.86,-1.14,-2.86,2.86,2.90,1.73,1.73,1.73
568,-1.14,-2.89,-1.14,-2.89,2.89,2.88,1.75,1.75,1.75
573,-1.14,-2.91,-1.14,-2.91,2.91,2.87,1.78,1.78,1.78
579,-1.14,-2.94,-1.14,-2.94,2.94,2.85,1.80,1.80,1.80
585,-1.14,-2.96,-1.14,-2.96,2.96,2.84,1.82,1.82,1.82
591,-1.14,-2.99,-1.14,-2.99,2.99,2.82,1.85,1.85,1.85
596,-1.14,-3.01,-1.14,-3.01,3.01,2.81,1.87,1.87,1.87
602,-1.14,-3.03,-1.14,-3.03,3.03,2.80,1.90,1.90,1.90
608,-1.14,-3.06,-1.14,-3.06,3.06,2.78,1.92,1.92,1.92
615,-1.14,-3.08,-1.14,-3.08,3.08,2.77,1.95,1.94,1.94
621,-1.14,-3.10,-1.14,-3.11,3.11,2.76,1.97,1.96,1.96
627,-1.14,-3.12,-1.15,-3.13,3.13,2.75,2.00,1.99,1.99
633,-1.14,-3.15,-1.15,-3.16,3.16,2.74,2.02,2.01,2.01
639,-1.14,-3.17,-1.15,-3.18,3.18,2.74,2.04,2.03,2.03
646,-1.14,-3.19,-1.14,-3.19,3.19,2.73,2.05,2.05,2.05
652,-1.14,-3.21,-1.13,-3.19,3.19,2.73,2.06,2.07,2.07
659,-1.14,-3.23,-1.10,-3.19,3.19,2.73,2.05,2.09,2.09
665,-1.14,-3.25,-1.07,-3.18,3.18,2.73,2.04,2.11,2.11
672,-1.13,-3.25,-1.04,-3.17,3.17,2.73,2.04,2.13,2.13
679,-0.91,-3.05,-1.01,-3.15,3.15,2.74,2.24,2.15,2.15
686,-0.91,-3.07,-0.97,-3.14,3.14,2.74,2.23,2.17,2.17
692,-0.91,-3.09,-0.95,-3.13,3.13,2.75,2.23,2.19,2.18
699,-0.91,-3.11,-0.93,-3.13,3.13,2.76,2.23,2.20,2.20
706,-0.91,-3.13,-0.91,-3.14,3.14,2.78,2.23,2.22,2.22
713,-0.91,-3.15,-0.90,-3.15,3.15,2.79,2.24,2.24,2.24
721,-0.91,-3.17,-0.89,-3.15,3.15,2.81,2.25,2.26,2.26
728,-0.91,-3.19,-0.87,-3.16,3.16,2.83,2.25,2.29,2.28
735,-0.91,-3.21,-0.85,-3.15,3.15,2.86,2.24,2.31,2.31
742,-0.91,-3.23,-0.82,-3.14,3.14,2.88,2.23,2.33,2.33
750,-0.74,-3.08,-0.78,-3.13,3.13,2.91,2.39,2.35,2.35
757,-0.68,-3.04,-0.75,-3.12,3.12,2.93,2.44,2.37,2.37
765,-0.68,-3.06,-0.73,-3.11,3.11,2.97,2.43,2.38,2.38
773,-0.68,-3.08,-0.70,-3.11,3.11,3.00,2.43,2.40,2.40
780,-0.68,-3.10,-0.69,-3.11,3.11,3.03,2.43,2.42,2.42
788,-0.68,-3.12,-0.68,-3.12,3.12,3.07,2.44,2.44,2.44
796,-0.68,-3.13,-0.67,-3.12,3.12,3.10,2.45,2.46,2.46
804,-0.68,-3.15,-0.65,-3.13,3.13,3.14,2.45,2.47,2.47
812,-0.68,-3.16,-0.63,-3.12,3.12,3.18,2.44,2.49,2.49
820,-0.68,-3.18,-0.61,-3.11,3.11,3.22,2.43,2.50,2.50
828,-0.65,-3.16,-0.57,-3.09,3.09,3.26,2.44,2.51,2.51
837,-0.45,-2.97,-0.54,-3.06,3.06,3.30,2.62,2.52,2.52
845,-0.45,-2.98,-0.51,-3.04,3.04,3.34,2.59,2.53,2.53
853,-0.45,-2.99,-0.48,-3.03,3.03,3.37,2.58,2.54,2.54
862,-0.45,-3.00,-0.47,-3.02,3.02,3.41,2.57,2.55,2.55
871,-0.45,-3.01,-0.45,-3.01,3.01,3.45,2.56,2.56,2.56
879,-0.45,-3.01,-0.45,-3.01,3.01,3.48,2.56,2.56,2.56
888,-0.45,-3.02,-0.44,-3.01,3.01,3.51,2.56,2.57,2.57
897,-0.45,-3.02,-0.43,-3.01,3.01,3.54,2.56,2.58,2.58
906,-0.45,-3.03,-0.42,-3.00,3.00,3.57,2.55,2.58,2.58
915,-0.45,-3.04,-0.40,-2.98,2.98,3.59,2.54,2.59,2.59
924,-0.45,-3.04,-0.37,-2.96,2.96,3.60,2.51,2.59,2.59
933,-0.24,-2.84,-0.33,-2.93,2.93,3.62,2.69,2.60,2.60
943,-0.23,-2.83,-0.29,-2.90,2.90,3.62,2.67,2.61,2.61
952,-0.23,-2.84,-0.25,-2.87,2.87,3.63,2.64,2.61,2.61
962,-0.23,-2.85,-0.21,-2.83,2.83,3.62,2.60,2.62,2.62
971,-0.23,-2.86,-0.17,-2.80,2.80,3.61,2.57,2.63,2.63
981,-0.23,-2.87,-0.13,-2.77,2.77,3.60,2.55,2.64,2.64
991,-0.02,-2.67,-0.10,-2.75,2.75,3.57,2.73,2.65,2.65
1001,0.00,-2.66,-0.06,-2.73,2.73,3.55,2.73,2.66,2.66
1011,0.00,-2.67,-0.03,-2.71,2.71,3.51,2.71,2.68,2.68
1021,0.00,-2.69,-0.00,-2.69,2.69,3.47,2.70,2.69,2.69
1031,0.00,-2.71,0.03,-2.68,2.68,3.42,2.68,2.71,2.71
1041,0.00,-2.72,0.06,-2.66,2.66,3.37,2.67,2.72,2.72
1052,0.00,-2.74,0.09,-2.65,2.65,3.30,2.65,2.74,2.74
1062,0.21,-2.55,0.13,-2.63,2.63,3.24,2.84,2.76,2.76
1073,0.23,-2.55,0.17,-2.61,2.61,3.16,2.84,2.78,2.78
1084,0.23,-2.57,0.21,-2.59,2.59,3.08,2.82,2.80,2.80
1094,0.23,-2.59,0.26,-2.57,2.57,3.01,2.80,2.83,2.83
1105,0.23,-2.62,0.31,-2.54,2.54,2.92,2.77,2.85,2.85
1116,0.37,-2.50,0.36,-2.52,2.52,2.82,2.89,2.87,2.87
1128,0.46,-2.43,0.41,-2.49,2.49,2.72,2.95,2.90,2.90
1139,0.46,-2.46,0.46,-2.46,2.46,2.62,2.92,2.92,2.92
1150,0.46,-2.48,0.51,-2.43,2.43,2.52,2.89,2.94,2.94
1162,0.53,-2.43,0.57,-2.40,2.40,2.41,2.93,2.96,2.96
1173,0.69,-2.29,0.62,-2.36,2.36,2.31,3.06,2.98,2.98
1185,0.69,-2.31,0.67,-2.33,2.33,2.20,3.02,3.00,3.00
1197,0.69,-2.33,0.72,-2.30,2.30,2.08,2.99,3.02,3.02
1209,0.69,-2.35,0.77,-2.27,2.27,1.97,2.96,3.04,3.04
1221,0.91,-2.14,0.81,-2.24,2.24,1.85,3.15,3.05,3.05
1233,0.91,-2.15,0.86,-2.21,2.21,1.74,3.12,3.06,3.06
1246,0.91,-2.16,0.90,-2.17,2.17,1.61,3.08,3.07,3.07
1258,0.91,-2.17,0.95,-2.13,2.13,1.50,3.04,3.08,3.08
1271,0.91,-2.17,1.00,-2.08,2.08,1.37,3.00,3.09,3.09
1283,1.08,-2.01,1.06,-2.03,2.03,1.26,3.11,3.09,3.09
1296,1.14,-1.95,1.13,-1.96,1.96,1.14,3.10,3.09,3.09
1309,1.15,-1.93,1.20,-1.88,1.88,1.02,3.03,3.08,3.08
1322,1.37,-1.71,1.29,-1.79,1.79,0.90,3.16,3.08,3.08
1335,1.37,-1.70,1.38,-1.69,1.69,0.78,3.06,3.07,3.07
1349,1.37,-1.69,1.47,-1.59,1.59,0.65,2.96,3.06,3.06
1362,1.52,-1.53,1.57,-1.48,1.48,0.54,3.01,3.05,3.05
1376,1.79,-1.25,1.66,-1.38,1.38,0.41,3.17,3.04,3.04
1390,1.83,-1.19,1.75,-1.27,1.27,0.29,3.10,3.03,3.03
1404,1.83,-1.18,1.85,-1.17,1.17,0.17,3.00,3.01,3.01
1418,1.89,-1.11,1.94,-1.06,1.06,0.05,2.95,3.00,3.00
1432,2.05,-0.93,2.03,-0.95,0.95,-0.07,3.01,2.98,2.98
1446,2.05,-0.92,2.13,-0.85,0.85,-0.19,2.90,2.97,2.97
1461,2.22,-0.74,2.23,-0.73,0.73,-0.31,2.96,2.96,2.96
1475,2.28,-0.67,2.33,-0.62,0.62,-0.43,2.90,2.95,2.95
1490,2.51,-0.43,2.44,-0.50,0.50,-0.55,3.02,2.94,2.94
1505,2.55,-0.39,2.55,-0.39,0.39,-0.67,2.94,2.94,2.94
1520,2.74,-0.20,2.66,-0.27,0.27,-0.79,3.02,2.94,2.94
1535,2.74,-0.20,2.78,-0.16,0.16,-0.91,2.90,2.94,2.94
1550,2.87,-0.08,2.90,-0.05,0.05,-1.03,2.92,2.95,2.95
1566,2.96,0.00,3.01,0.05,-0.05,-1.15,2.91,2.96,2.96
1582,3.18,0.21,3.13,0.16,-0.16,-1.27,3.03,2.98,2.98
1597,3.20,0.21,3.25,0.25,-0.25,-1.38,2.95,3.00,3.00
1613,3.42,0.40,3.37,0.35,-0.35,-1.50,3.07,3.02,3.02
1629,3.49,0.44,3.50,0.44,-0.44,-1.61,3.05,3.06,3.05
1646,3.65,0.56,3.62,0.53,-0.53,-1.74,3.12,3.09,3.09
1662,3.79,0.66,3.75,0.61,-0.61,-1.85,3.18,3.14,3.14
1679,3.88,0.70,3.88,0.69,-0.69,-1.96,3.19,3.19,3.18
1696,3.88,0.64,4.01,0.77,-0.77,-2.07,3.12,3.24,3.24
1713,4.13,0.83,4.14,0.84,-0.84,-2.18,3.29,3.30,3.30
1730,4.39,1.03,4.29,0.92,-0.92,-2.29,3.47,3.37,3.36
1747,4.56,1.13,4.45,1.01,-1.01,-2.39,3.55,3.44,3.44
1764,4.68,1.17,4.64,1.13,-1.13,-2.49,3.55,3.51,3.51
1782,4.95,1.36,4.87,1.28,-1.28,-2.58,3.67,3.59,3.59
1800,5.02,1.35,5.15,1.48,-1.48,-2.68,3.55,3.67,3.67
1818,5.24,1.48,5.48,1.72,-1.72,-2.77,3.52,3.76,3.76
1836,5.65,1.80,5.88,2.02,-2.02,-2.85,3.63,3.85,3.85
1854,6.19,2.25,6.32,2.37,-2.37,-2.92,3.82,3.95,3.95
1873,6.86,2.82,6.80,2.75,-2.75,-3.00,4.11,4.04,4.04
1892,7.46,3.32,7.30,3.15,-3.15,-3.07,4.31,4.14,4.14
1911,7.99,3.75,7.80,3.56,-3.56,-3.13,4.44,4.25,4.25
1930,8.30,3.95,8.29,3.94,-3.94,-3.18,4.36,4.35,4.35
1949,8.79,4.33,8.76,4.30,-4.30,-3.22,4.49,4.46,4.46
