frequency,raw,error,smoothed,error_smoothed,equalization,parametric_eq,equalized_raw,equalized_smoothed,target
20,-3.19,-4.84,-3.23,-4.88,4.88,3.99,1.69,1.65,1.65
21,-2.74,-4.38,-2.65,-4.29,4.29,4.49,1.56,1.65,1.65
22,-2.06,-3.70,-2.08,-3.73,3.73,4.42,1.67,1.65,1.65
23,-1.55,-3.20,-1.54,-3.18,3.18,3.82,1.63,1.65,1.65
24,-0.92,-2.57,-1.01,-2.66,2.66,2.98,1.74,1.65,1.65
25,-0.50,-2.15,-0.51,-2.15,2.15,2.12,1.65,1.65,1.65
26,-0.02,-1.66,-0.02,-1.67,1.67,1.36,1.65,1.65,1.65
27,0.38,-1.27,0.45,-1.20,1.20,0.71,1.58,1.65,1.65
28,0.88,-0.77,0.89,-0.75,0.75,0.16,1.63,1.65,1.65
29,1.35,-0.30,1.33,-0.32,0.32,-0.30,1.67,1.65,1.65
30,1.78,0.13,1.75,0.10,-0.10,-0.69,1.68,1.65,1.65
31,2.18,0.53,2.15,0.50,-0.50,-1.04,1.68,1.65,1.65
32,2.47,0.82,2.53,0.89,-0.89,-1.34,1.58,1.65,1.65
33,2.89,1.25,2.91,1.26,-1.26,-1.61,1.63,1.65,1.65
34,3.36,1.71,3.26,1.62,-1.62,-1.86,1.74,1.65,1.65
35,3.51,1.87,3.61,1.96,-1.96,-2.09,1.55,1.65,1.65
36,4.02,2.37,3.94,2.29,-2.29,-2.31,1.72,1.65,1.65
37,4.24,2.60,4.26,2.61,-2.61,-2.51,1.63,1.64,1.64
38,4.51,2.87,4.56,2.92,-2.92,-2.70,1.59,1.64,1.64
39,4.91,3.27,4.86,3.22,-3.22,-2.89,1.70,1.64,1.64
40,5.14,3.50,5.15,3.51,-3.51,-3.06,1.63,1.64,1.64
41,5.36,3.72,5.43,3.79,-3.79,-3.24,1.58,1.64,1.64
42,5.77,4.13,5.70,4.06,-4.06,-3.40,1.71,1.64,1.64
43,5.83,4.19,5.97,4.33,-4.33,-3.56,1.51,1.64,1.64
44,6.29,4.65,6.22,4.58,-4.58,-3.72,1.72,1.64,1.64
45,6.52,4.89,6.45,4.82,-4.82,-3.88,1.71,1.64,1.64
46,6.59,4.96,6.67,5.04,-5.04,-4.03,1.55,1.64,1.64
47,6.99,5.35,6.88,5.25,-5.25,-4.18,1.74,1.63,1.63
48,7.03,5.40,7.07,5.44,-5.44,-4.33,1.60,1.63,1.63
49,7.22,5.59,7.24,5.61,-5.61,-4.47,1.60,1.63,1.63
50,7.45,5.82,7.40,5.78,-5.78,-4.61,1.67,1.63,1.63
51,7.49,5.87,7.55,5.93,-5.93,-4.76,1.56,1.62,1.62
52,7.68,6.06,7.69,6.07,-6.07,-4.90,1.60,1.62,1.62
53,7.90,6.29,7.82,6.21,-6.21,-5.03,1.70,1.62,1.62
54,7.90,6.29,7.95,6.33,-6.33,-5.17,1.57,1.61,1.61
55,8.13,6.52,8.07,6.46,-6.46,-5.30,1.67,1.61,1.61
56,8.13,6.52,8.18,6.58,-6.58,-5.44,1.54,1.60,1.60
57,8.35,6.76,8.30,6.71,-6.71,-5.57,1.65,1.60,1.60
58,8.35,6.76,8.43,6.84,-6.84,-5.70,1.52,1.59,1.59
59,8.58,7.00,8.55,6.97,-6.97,-5.83,1.61,1.58,1.58
60,8.58,7.01,8.69,7.11,-7.11,-5.95,1.47,1.58,1.58
61,8.81,7.24,8.82,7.25,-7.25,-6.08,1.56,1.57,1.57
62,9.04,7.48,8.95,7.39,-7.39,-6.21,1.64,1.56,1.56
63,9.04,7.49,9.08,7.54,-7.54,-6.33,1.50,1.55,1.55
64,9.27,7.73,9.21,7.67,-7.67,-6.45,1.60,1.54,1.54
65,9.32,7.79,9.33,7.80,-7.80,-6.57,1.52,1.53,1.53
66,9.50,7.99,9.44,7.92,-7.92,-6.69,1.58,1.51,1.51
67,9.50,8.00,9.53,8.03,-8.03,-6.81,1.47,1.50,1.50
68,9.60,8.11,9.62,8.14,-8.14,-6.93,1.46,1.49,1.49
69,9.72,8.25,9.71,8.24,-8.24,-7.05,1.48,1.47,1.47
70,9.71,8.26,9.78,8.33,-8.33,-7.16,1.38,1.45,1.45
71,9.92,8.49,9.85,8.42,-8.42,-7.27,1.51,1.44,1.44
72,9.91,8.49,9.91,8.50,-8.50,-7.39,1.41,1.42,1.42
73,9.89,8.50,9.97,8.57,-8.57,-7.50,1.32,1.40,1.40
74,10.11,8.73,10.01,8.64,-8.64,-7.61,1.47,1.37,1.37
75,10.10,8.75,10.05,8.71,-8.71,-7.72,1.39,1.35,1.35
76,10.09,8.77,10.09,8.77,-8.77,-7.83,1.32,1.32,1.32
77,10.09,8.79,10.12,8.83,-8.83,-7.93,1.26,1.30,1.30
78,10.08,8.81,10.15,8.89,-8.89,-8.04,1.20,1.27,1.27
79,10.08,8.84,10.18,8.94,-8.94,-8.14,1.13,1.24,1.24
80,10.30,9.09,10.20,9.00,-9.00,-8.25,1.30,1.21,1.21
81,10.28,9.11,10.22,9.05,-9.05,-8.35,1.24,1.17,1.17
82,10.26,9.13,10.23,9.09,-9.09,-8.45,1.17,1.14,1.14
83,10.24,9.14,10.23,9.13,-9.13,-8.55,1.11,1.10,1.10
84,10.22,9.16,10.23,9.16,-9.16,-8.65,1.06,1.06,1.06
85,10.20,9.18,10.21,9.19,-9.19,-8.74,1.01,1.02,1.02
86,10.18,9.20,10.20,9.22,-9.22,-8.84,0.96,0.98,0.98
87,10.17,9.23,10.18,9.24,-9.24,-8.93,0.93,0.94,0.94
88,10.16,9.27,10.16,9.27,-9.27,-9.02,0.89,0.89,0.89
89,10.15,9.31,10.14,9.30,-9.30,-9.11,0.85,0.84,0.84
90,10.14,9.35,10.13,9.34,-9.34,-9.20,0.81,0.79,0.80
91,10.14,9.39,10.13,9.38,-9.38,-9.29,0.75,0.74,0.74
92,10.12,9.43,10.13,9.44,-9.44,-9.38,0.69,0.69,0.69
93,10.11,9.47,10.14,9.50,-9.50,-9.47,0.61,0.64,0.64
94,10.10,9.51,10.15,9.57,-9.57,-9.55,0.53,0.59,0.58
95,10.09,9.56,10.17,9.64,-9.64,-9.63,0.45,0.53,0.53
96,10.28,9.81,10.19,9.72,-9.72,-9.71,0.57,0.47,0.47
97,10.26,9.85,10.20,9.79,-9.79,-9.79,0.47,0.41,0.41
98,10.24,9.89,10.21,9.86,-9.86,-9.87,0.38,0.35,0.35
99,10.22,9.93,10.22,9.93,-9.93,-9.95,0.29,0.29,0.29
100,10.20,9.97,10.21,9.99,-9.99,-10.02,0.22,0.22,0.23
101,10.18,10.01,10.19,10.04,-10.04,-10.10,0.14,0.15,0.17
102,10.17,10.06,10.17,10.09,-10.09,-10.17,0.07,0.08,0.11
104,10.15,10.16,10.15,10.14,-10.14,-10.31,0.01,0.01,-0.01
105,10.12,10.20,10.12,10.18,-10.18,-10.37,-0.06,-0.06,-0.08
106,10.10,10.24,10.10,10.22,-10.22,-10.44,-0.13,-0.13,-0.14
107,10.07,10.27,10.07,10.26,-10.26,-10.50,-0.19,-0.20,-0.20
108,10.04,10.30,10.04,10.30,-10.30,-10.57,-0.26,-0.26,-0.26
109,10.01,10.33,10.01,10.34,-10.34,-10.63,-0.32,-0.32,-0.32
110,9.99,10.37,9.99,10.37,-10.37,-10.69,-0.38,-0.38,-0.38
111,9.97,10.40,9.97,10.41,-10.41,-10.74,-0.44,-0.44,-0.44
112,9.95,10.44,9.95,10.45,-10.45,-10.80,-0.50,-0.50,-0.49
113,9.94,10.49,9.94,10.49,-10.49,-10.85,-0.56,-0.56,-0.55
114,9.93,10.53,9.93,10.55,-10.55,-10.91,-0.62,-0.61,-0.60
115,9.92,10.58,9.93,10.60,-10.60,-10.96,-0.68,-0.67,-0.65
117,9.92,10.68,9.93,10.66,-10.66,-11.06,-0.74,-0.73,-0.76
118,9.92,10.73,9.93,10.72,-10.72,-11.10,-0.81,-0.79,-0.81
119,9.92,10.78,9.93,10.78,-10.78,-11.15,-0.86,-0.85,-0.85
120,9.93,10.83,9.93,10.84,-10.84,-11.19,-0.91,-0.91,-0.90
121,9.93,10.88,9.93,10.89,-10.89,-11.23,-0.96,-0.96,-0.94
123,9.94,10.97,9.91,10.93,-10.93,-11.31,-0.99,-1.01,-1.03
124,9.95,11.02,9.89,10.96,-10.96,-11.34,-1.01,-1.06,-1.07
125,9.95,11.06,9.87,10.98,-10.98,-11.38,-1.03,-1.11,-1.11
126,9.80,10.95,9.84,10.99,-10.99,-11.41,-1.19,-1.16,-1.14
128,9.73,10.95,9.81,11.01,-11.01,-11.47,-1.27,-1.20,-1.22
129,9.74,10.99,9.78,11.02,-11.02,-11.50,-1.28,-1.24,-1.25
130,9.74,11.02,9.76,11.04,-11.04,-11.53,-1.30,-1.28,-1.28
131,9.74,11.05,9.74,11.07,-11.07,-11.55,-1.33,-1.32,-1.31
133,9.74,11.11,9.74,11.10,-11.10,-11.60,-1.36,-1.36,-1.37
134,9.74,11.14,9.74,11.14,-11.14,-11.62,-1.40,-1.40,-1.40
135,9.74,11.17,9.74,11.18,-11.18,-11.64,-1.44,-1.44,-1.42
137,9.74,11.22,9.74,11.21,-11.21,-11.67,-1.47,-1.47,-1.48
138,9.74,11.24,9.74,11.24,-11.24,-11.69,-1.50,-1.51,-1.50
140,9.74,11.29,9.73,11.26,-11.26,-11.71,-1.53,-1.54,-1.55
141,9.74,11.31,9.70,11.27,-11.27,-11.73,-1.54,-1.57,-1.57
142,9.74,11.33,9.68,11.28,-11.28,-11.74,-1.54,-1.60,-1.59
144,9.71,11.35,9.64,11.27,-11.27,-11.75,-1.56,-1.63,-1.63
145,9.53,11.18,9.60,11.26,-11.26,-11.76,-1.73,-1.66,-1.65
147,9.51,11.20,9.57,11.26,-11.26,-11.76,-1.75,-1.69,-1.69
148,9.51,11.22,9.54,11.25,-11.25,-11.77,-1.74,-1.71,-1.71
150,9.51,11.25,9.52,11.26,-11.26,-11.77,-1.75,-1.74,-1.74
151,9.51,11.26,9.51,11.27,-11.27,-11.77,-1.76,-1.76,-1.76
153,9.50,11.29,9.50,11.28,-11.28,-11.76,-1.78,-1.78,-1.79
154,9.50,11.30,9.50,11.31,-11.31,-11.76,-1.81,-1.81,-1.80
156,9.50,11.33,9.50,11.33,-11.33,-11.75,-1.83,-1.83,-1.83
157,9.49,11.34,9.50,11.34,-11.34,-11.74,-1.85,-1.85,-1.84
159,9.49,11.36,9.49,11.35,-11.35,-11.73,-1.86,-1.87,-1.87
160,9.48,11.36,9.47,11.35,-11.35,-11.72,-1.87,-1.88,-1.88
162,9.48,11.38,9.44,11.34,-11.34,-11.70,-1.87,-1.90,-1.90
164,9.47,11.39,9.41,11.32,-11.32,-11.67,-1.85,-1.92,-1.92
165,9.46,11.39,9.36,11.29,-11.29,-11.66,-1.84,-1.93,-1.93
167,9.22,11.17,9.32,11.26,-11.26,-11.63,-2.04,-1.94,-1.94
169,9.21,11.17,9.28,11.23,-11.23,-11.60,-2.02,-1.95,-1.96
170,9.21,11.17,9.24,11.21,-11.21,-11.59,-2.00,-1.96,-1.96
172,9.20,11.18,9.22,11.19,-11.19,-11.55,-1.98,-1.97,-1.97
174,9.20,11.18,9.20,11.18,-11.18,-11.52,-1.98,-1.98,-1.98
175,9.20,11.18,9.19,11.18,-11.18,-11.50,-1.98,-1.99,-1.98
177,9.20,11.19,9.19,11.18,-11.18,-11.46,-1.98,-1.99,-1.99
179,9.20,11.20,9.19,11.19,-11.19,-11.42,-1.99,-1.99,-1.99
181,9.21,11.20,9.20,11.20,-11.20,-11.38,-1.99,-2.00,-2.00
183,9.21,11.21,9.21,11.21,-11.21,-11.34,-2.00,-2.00,-2.00
184,9.22,11.21,9.22,11.22,-11.22,-11.32,-2.00,-2.00,-2.00
186,9.23,11.22,9.23,11.23,-11.23,-11.27,-2.00,-2.00,-2.00
188,9.24,11.23,9.24,11.24,-11.24,-11.23,-2.00,-1.99,-1.99
190,9.25,11.24,9.26,11.25,-11.25,-11.18,-2.00,-1.99,-1.99
192,9.25,11.24,9.26,11.25,-11.25,-11.14,-2.00,-1.99,-1.99
194,9.26,11.25,9.27,11.25,-11.25,-11.09,-1.99,-1.99,-1.99
196,9.27,11.25,9.26,11.24,-11.24,-11.05,-1.98,-1.98,-1.98
198,9.27,11.25,9.25,11.23,-11.23,-11.00,-1.96,-1.98,-1.98
200,9.27,11.24,9.22,11.20,-11.20,-10.95,-1.93,-1.98,-1.98
202,9.27,11.24,9.19,11.16,-11.16,-10.90,-1.90,-1.97,-1.97
204,9.19,11.16,9.16,11.12,-11.12,-10.86,-1.94,-1.97,-1.97
206,9.03,11.00,9.12,11.08,-11.08,-10.81,-2.05,-1.97,-1.97
208,9.03,10.99,9.08,11.04,-11.04,-10.76,-2.02,-1.96,-1.96
210,9.02,10.98,9.05,11.01,-11.01,-10.71,-1.99,-1.96,-1.96
212,9.02,10.98,9.03,10.98,-10.98,-10.67,-1.96,-1.95,-1.95
214,9.02,10.97,9.02,10.97,-10.97,-10.62,-1.95,-1.95,-1.95
216,9.02,10.96,9.01,10.96,-10.96,-10.57,-1.94,-1.95,-1.95
218,9.01,10.95,9.01,10.95,-10.95,-10.53,-1.94,-1.94,-1.94
221,9.00,10.94,9.00,10.94,-10.94,-10.46,-1.94,-1.94,-1.94
223,9.00,10.93,9.00,10.93,-10.93,-10.41,-1.94,-1.93,-1.93
225,8.99,10.92,8.99,10.92,-10.92,-10.37,-1.93,-1.93,-1.93
227,8.98,10.91,8.97,10.89,-10.89,-10.33,-1.91,-1.92,-1.92
229,8.98,10.90,8.94,10.86,-10.86,-10.28,-1.88,-1.92,-1.92
232,8.98,10.89,8.91,10.82,-10.82,-10.22,-1.85,-1.91,-1.91
234,8.94,10.84,8.88,10.78,-10.78,-10.18,-1.85,-1.90,-1.90
236,8.75,10.65,8.85,10.75,-10.75,-10.14,-1.99,-1.89,-1.89
239,8.76,10.64,8.83,10.71,-10.71,-10.08,-1.96,-1.88,-1.89
241,8.76,10.64,8.81,10.68,-10.68,-10.04,-1.92,-1.88,-1.88
244,8.78,10.64,8.79,10.66,-10.66,-9.98,-1.88,-1.87,-1.87
246,8.79,10.65,8.78,10.64,-10.64,-9.94,-1.85,-1.86,-1.86
248,8.81,10.65,8.77,10.62,-10.62,-9.91,-1.81,-1.85,-1.85
251,8.82,10.66,8.76,10.59,-10.59,-9.86,-1.77,-1.84,-1.84
253,8.79,10.62,8.73,10.56,-10.56,-9.82,-1.77,-1.83,-1.83
256,8.62,10.44,8.70,10.52,-10.52,-9.77,-1.90,-1.81,-1.81
259,8.63,10.43,8.66,10.46,-10.46,-9.73,-1.84,-1.80,-1.80
261,8.63,10.42,8.60,10.40,-10.40,-9.70,-1.77,-1.79,-1.79
264,8.59,10.38,8.54,10.32,-10.32,-9.65,-1.73,-1.78,-1.78
266,8.39,10.16,8.46,10.23,-10.23,-9.62,-1.85,-1.77,-1.77
269,8.38,10.14,8.37,10.14,-10.14,-9.58,-1.76,-1.76,-1.76
272,8.37,10.12,8.28,10.03,-10.03,-9.55,-1.66,-1.75,-1.75
274,8.27,10.02,8.17,9.92,-9.92,-9.52,-1.65,-1.75,-1.74
277,7.98,9.72,8.07,9.81,-9.81,-9.49,-1.83,-1.74,-1.74
280,7.90,9.63,7.97,9.70,-9.70,-9.46,-1.80,-1.73,-1.73
283,7.90,9.62,7.88,9.60,-9.60,-9.43,-1.70,-1.72,-1.72
286,7.81,9.52,7.80,9.51,-9.51,-9.40,-1.69,-1.71,-1.71
288,7.66,9.37,7.73,9.43,-9.43,-9.38,-1.77,-1.70,-1.70
291,7.66,9.35,7.68,9.37,-9.37,-9.36,-1.72,-1.69,-1.69
294,7.65,9.34,7.64,9.33,-9.33,-9.34,-1.68,-1.69,-1.69
297,7.65,9.33,7.62,9.30,-9.30,-9.32,-1.66,-1.68,-1.68
300,7.64,9.31,7.62,9.29,-9.29,-9.30,-1.65,-1.67,-1.67
303,7.63,9.30,7.62,9.29,-9.29,-9.28,-1.66,-1.66,-1.66
306,7.62,9.28,7.64,9.30,-9.30,-9.27,-1.68,-1.66,-1.66
309,7.61,9.26,7.66,9.31,-9.31,-9.26,-1.70,-1.65,-1.65
312,7.60,9.25,7.69,9.34,-9.34,-9.25,-1.73,-1.64,-1.64
316,7.79,9.43,7.72,9.36,-9.36,-9.24,-1.56,-1.64,-1.64
319,7.81,9.44,7.74,9.37,-9.37,-9.23,-1.57,-1.63,-1.63
322,7.79,9.42,7.76,9.38,-9.38,-9.23,-1.59,-1.62,-1.62
325,7.78,9.39,7.77,9.39,-9.39,-9.23,-1.61,-1.62,-1.62
328,7.75,9.37,7.76,9.37,-9.37,-9.23,-1.62,-1.61,-1.61
332,7.73,9.34,7.75,9.35,-9.35,-9.23,-1.62,-1.61,-1.61
335,7.70,9.30,7.72,9.32,-9.32,-9.24,-1.61,-1.60,-1.60
338,7.68,9.28,7.68,9.27,-9.27,-9.24,-1.59,-1.60,-1.60
342,7.66,9.25,7.63,9.22,-9.22,-9.25,-1.56,-1.59,-1.59
345,7.64,9.23,7.57,9.16,-9.16,-9.26,-1.52,-1.59,-1.59
349,7.54,9.13,7.52,9.10,-9.10,-9.27,-1.56,-1.58,-1.58
352,7.38,8.96,7.47,9.04,-9.04,-9.29,-1.66,-1.58,-1.58
356,7.37,8.95,7.42,8.99,-8.99,-9.30,-1.62,-1.58,-1.58
359,7.36,8.93,7.38,8.95,-8.95,-9.31,-1.59,-1.57,-1.57
363,7.35,8.92,7.35,8.92,-8.92,-9.33,-1.57,-1.57,-1.57
366,7.34,8.90,7.33,8.90,-8.90,-9.34,-1.56,-1.57,-1.57
370,7.33,8.89,7.32,8.89,-8.89,-9.36,-1.56,-1.57,-1.57
374,7.32,8.88,7.32,8.88,-8.88,-9.38,-1.56,-1.56,-1.56
377,7.32,8.88,7.32,8.88,-8.88,-9.39,-1.56,-1.56,-1.56
381,7.31,8.87,7.32,8.87,-8.87,-9.41,-1.56,-1.56,-1.56
385,7.31,8.86,7.32,8.87,-8.87,-9.42,-1.56,-1.55,-1.55
389,7.30,8.85,7.31,8.86,-8.86,-9.44,-1.55,-1.55,-1.55
393,7.30,8.84,7.30,8.84,-8.84,-9.45,-1.54,-1.54,-1.54
397,7.29,8.82,7.27,8.81,-8.81,-9.46,-1.52,-1.53,-1.53
401,7.28,8.80,7.24,8.76,-8.76,-9.46,-1.49,-1.52,-1.52
405,7.26,8.77,7.20,8.71,-8.71,-9.46,-1.45,-1.51,-1.51
409,7.25,8.75,7.16,8.66,-8.66,-9.46,-1.40,-1.49,-1.50
413,7.06,8.54,7.12,8.60,-8.60,-9.46,-1.54,-1.48,-1.48
417,7.01,8.46,7.08,8.54,-8.54,-9.45,-1.53,-1.46,-1.46
421,7.00,8.44,7.05,8.49,-8.49,-9.43,-1.49,-1.43,-1.44
425,7.00,8.41,7.03,8.44,-8.44,-9.42,-1.44,-1.41,-1.41
430,7.01,8.39,7.03,8.41,-8.41,-9.39,-1.40,-1.38,-1.38
434,7.03,8.38,7.03,8.38,-8.38,-9.36,-1.35,-1.35,-1.35
438,7.06,8.37,7.04,8.35,-8.35,-9.32,-1.30,-1.31,-1.32
443,7.09,8.37,7.05,8.33,-8.33,-9.28,-1.24,-1.28,-1.28
447,7.13,8.37,7.06,8.30,-8.30,-9.23,-1.17,-1.24,-1.24
451,7.17,8.37,7.07,8.27,-8.27,-9.18,-1.10,-1.20,-1.20
456,6.99,8.15,7.08,8.24,-8.24,-9.12,-1.25,-1.16,-1.16
460,7.04,8.16,7.10,8.22,-8.22,-9.06,-1.18,-1.12,-1.12
465,7.09,8.16,7.12,8.20,-8.20,-8.98,-1.11,-1.08,-1.08
470,7.14,8.17,7.15,8.18,-8.18,-8.90,-1.05,-1.04,-1.03
474,7.18,8.18,7.18,8.18,-8.18,-8.83,-0.99,-1.00,-1.00
479,7.23,8.19,7.22,8.18,-8.18,-8.74,-0.95,-0.96,-0.96
484,7.26,8.19,7.25,8.18,-8.18,-8.64,-0.91,-0.92,-0.92
489,7.29,8.19,7.29,8.18,-8.18,-8.54,-0.89,-0.89,-0.89
494,7.32,8.18,7.32,8.19,-8.19,-8.44,-0.87,-0.87,-0.86
499,7.33,8.17,7.34,8.18,-8.18,-8.34,-0.85,-0.84,-0.84
504,7.34,8.16,7.35,8.17,-8.17,-8.24,-0.83,-0.82,-0.82
509,7.34,8.15,7.34,8.15,-8.15,-8.13,-0.80,-0.81,-0.81
514,7.34,8.14,7.32,8.11,-8.11,-8.02,-0.77,-0.80,-0.80
519,7.33,8.12,7.28,8.07,-8.07,-7.92,-0.74,-0.79,-0.79
524,7.24,8.03,7.22,8.01,-8.01,-7.81,-0.77,-0.79,-0.79
529,7.05,7.84,7.15,7.94,-7.94,-7.70,-0.88,-0.79,-0.79
535,7.01,7.81,7.05,7.85,-7.85,-7.58,-0.83,-0.79,-0.79
540,6.96,7.76,6.95,7.75,-7.75,-7.47,-0.79,-0.80,-0.80
545,6.90,7.72,6.83,7.64,-7.64,-7.37,-0.73,-0.81,-0.81
551,6.82,7.64,6.69,7.51,-7.51,-7.24,-0.70,-0.82,-0.82
556,6.51,7.34,6.55,7.38,-7.38,-7.14,-0.87,-0.83,-0.83
562,6.25,7.10,6.40,7.24,-7.24,-7.02,-0.99,-0.84,-0.84
568,6.19,7.05,6.24,7.10,-7.10,-6.91,-0.90,-0.85,-0.85
573,6.14,7.00,6.08,6.94,-6.94,-6.81,-0.80,-0.86,-0.86
579,5.90,6.77,5.92,6.78,-6.78,-6.70,-0.88,-0.87,-0.87
585,5.82,6.69,5.75,6.61,-6.61,-6.59,-0.80,-0.87,-0.87
591,5.57,6.44,5.57,6.44,-6.44,-6.48,-0.87,-0.87,-0.87
596,5.50,6.37,5.40,6.26,-6.26,-6.39,-0.76,-0.87,-0.87
602,5.23,6.09,5.22,6.08,-6.08,-6.29,-0.85,-0.86,-0.86
608,5.07,5.92,5.06,5.91,-5.91,-6.19,-0.84,-0.85,-0.85
615,4.89,5.72,4.93,5.76,-5.76,-6.08,-0.87,-0.83,-0.83
621,4.85,5.66,4.82,5.63,-5.63,-5.98,-0.78,-0.81,-0.81
627,4.63,5.42,4.76,5.55,-5.55,-5.88,-0.91,-0.79,-0.79
633,4.65,5.41,4.74,5.51,-5.51,-5.79,-0.86,-0.76,-0.76
639,4.72,5.45,4.78,5.51,-5.51,-5.70,-0.80,-0.74,-0.74
646,4.92,5.63,4.86,5.57,-5.57,-5.60,-0.65,-0.71,-0.71
652,4.95,5.62,4.99,5.66,-5.66,-5.51,-0.71,-0.67,-0.67
659,4.99,5.63,5.14,5.78,-5.78,-5.41,-0.80,-0.64,-0.64
665,5.22,5.82,5.31,5.91,-5.91,-5.32,-0.69,-0.61,-0.60
672,5.54,6.11,5.47,6.04,-6.04,-5.22,-0.50,-0.57,-0.57
679,5.81,6.34,5.60,6.14,-6.14,-5.12,-0.33,-0.54,-0.54
686,5.85,6.35,5.70,6.21,-6.21,-5.03,-0.36,-0.50,-0.50
692,5.78,6.25,5.75,6.22,-6.22,-4.94,-0.44,-0.47,-0.47
699,5.67,6.11,5.75,6.19,-6.19,-4.84,-0.51,-0.44,-0.44
706,5.68,6.09,5.69,6.10,-6.10,-4.74,-0.42,-0.41,-0.41
713,5.68,6.06,5.57,5.96,-5.96,-4.64,-0.28,-0.39,-0.39
721,5.39,5.76,5.41,5.78,-5.78,-4.53,-0.38,-0.36,-0.36
728,5.18,5.52,5.22,5.56,-5.56,-4.42,-0.38,-0.34,-0.34
735,5.06,5.38,4.99,5.31,-5.31,-4.32,-0.25,-0.32,-0.32
742,4.77,5.07,4.75,5.05,-5.05,-4.21,-0.27,-0.30,-0.30
750,4.45,4.74,4.49,4.78,-4.78,-4.09,-0.32,-0.29,-0.28
757,4.18,4.45,4.23,4.50,-4.50,-3.97,-0.32,-0.27,-0.27
765,3.87,4.13,3.97,4.23,-4.23,-3.84,-0.36,-0.26,-0.26
773,3.62,3.87,3.72,3.96,-3.96,-3.70,-0.34,-0.25,-0.25
780,3.55,3.79,3.46,3.70,-3.70,-3.58,-0.15,-0.24,-0.24
788,3.28,3.50,3.22,3.45,-3.45,-3.43,-0.17,-0.23,-0.23
796,3.01,3.23,2.98,3.20,-3.20,-3.28,-0.19,-0.22,-0.22
804,2.75,2.96,2.74,2.95,-2.95,-3.12,-0.21,-0.21,-0.21
812,2.49,2.69,2.51,2.71,-2.71,-2.95,-0.22,-0.20,-0.20
820,2.24,2.43,2.28,2.47,-2.47,-2.78,-0.24,-0.20,-0.20
828,1.99,2.18,2.05,2.24,-2.24,-2.60,-0.25,-0.19,-0.19
837,1.80,1.98,1.83,2.01,-2.01,-2.39,-0.21,-0.18,-0.18
845,1.70,1.87,1.61,1.78,-1.78,-2.20,-0.09,-0.18,-0.18
853,1.46,1.63,1.39,1.56,-1.56,-2.00,-0.10,-0.17,-0.17
862,1.20,1.36,1.18,1.34,-1.34,-1.77,-0.14,-0.16,-0.16
871,0.93,1.09,0.96,1.12,-1.12,-1.53,-0.19,-0.15,-0.15
879,0.70,0.85,0.75,0.90,-0.90,-1.32,-0.20,-0.15,-0.15
888,0.49,0.63,0.55,0.69,-0.69,-1.08,-0.20,-0.14,-0.14
897,0.40,0.53,0.35,0.48,-0.48,-0.83,-0.08,-0.13,-0.13
906,0.26,0.38,0.17,0.29,-0.29,-0.59,-0.03,-0.12,-0.12
915,0.10,0.21,-0.01,0.11,-0.11,-0.36,-0.00,-0.11,-0.11
924,-0.16,-0.06,-0.16,-0.05,0.05,-0.14,-0.10,-0.10,-0.10
933,-0.42,-0.32,-0.28,-0.19,0.19,0.07,-0.23,-0.09,-0.09
943,-0.43,-0.35,-0.37,-0.29,0.29,0.28,-0.15,-0.08,-0.08
952,-0.43,-0.37,-0.42,-0.35,0.35,0.43,-0.09,-0.07,-0.07
962,-0.44,-0.38,-0.42,-0.37,0.37,0.57,-0.07,-0.05,-0.05
971,-0.44,-0.40,-0.39,-0.35,0.35,0.66,-0.08,-0.04,-0.04
981,-0.44,-0.41,-0.33,-0.31,0.31,0.72,-0.13,-0.02,-0.02
991,-0.23,-0.22,-0.24,-0.23,0.23,0.73,0.00,-0.01,-0.01
1001,0.03,0.01,-0.13,-0.14,0.14,0.69,0.17,0.01,0.01
1011,0.04,0.00,-0.02,-0.05,0.05,0.61,0.09,0.03,0.03
1021,0.05,-0.01,0.09,0.04,-0.04,0.49,0.01,0.06,0.05
1031,0.17,0.09,0.20,0.12,-0.12,0.34,0.05,0.08,0.08
1041,0.31,0.20,0.29,0.19,-0.19,0.16,0.12,0.10,0.10
1052,0.50,0.37,0.38,0.24,-0.24,-0.06,0.26,0.13,0.13
1062,0.55,0.39,0.46,0.30,-0.30,-0.28,0.26,0.16,0.16
1073,0.56,0.37,0.54,0.35,-0.35,-0.52,0.21,0.19,0.19
1084,0.57,0.35,0.64,0.42,-0.42,-0.77,0.16,0.22,0.22
1094,0.66,0.40,0.76,0.50,-0.50,-1.00,0.16,0.25,0.25
1105,0.82,0.54,0.90,0.62,-0.62,-1.25,0.21,0.29,0.29
1116,0.98,0.66,1.08,0.76,-0.76,-1.49,0.22,0.32,0.32
1128,1.28,0.93,1.29,0.94,-0.94,-1.74,0.35,0.36,0.36
1139,1.56,1.17,1.53,1.14,-1.14,-1.96,0.41,0.39,0.39
1150,1.83,1.40,1.79,1.37,-1.37,-2.17,0.46,0.42,0.42
1162,2.11,1.66,2.06,1.61,-1.61,-2.39,0.50,0.46,0.46
1173,2.37,1.88,2.34,1.85,-1.85,-2.59,0.51,0.49,0.49
1185,2.64,2.12,2.62,2.10,-2.10,-2.78,0.54,0.52,0.52
1197,2.82,2.27,2.89,2.34,-2.34,-2.97,0.48,0.55,0.55
1209,3.15,2.58,3.15,2.57,-2.57,-3.14,0.58,0.57,0.57
1221,3.43,2.83,3.40,2.80,-2.80,-3.31,0.63,0.60,0.60
1233,3.70,3.08,3.64,3.02,-3.02,-3.46,0.68,0.62,0.62
1246,3.90,3.26,3.87,3.23,-3.23,-3.62,0.67,0.64,0.64
1258,4.02,3.37,4.09,3.44,-3.44,-3.76,0.58,0.65,0.65
1271,4.30,3.63,4.31,3.64,-3.64,-3.90,0.66,0.67,0.67
1283,4.56,3.88,4.53,3.86,-3.86,-4.02,0.70,0.68,0.68
1296,4.83,4.15,4.76,4.08,-4.08,-4.15,0.76,0.68,0.68
1309,4.88,4.19,4.99,4.30,-4.30,-4.28,0.57,0.69,0.69
1322,5.15,4.46,5.23,4.54,-4.54,-4.39,0.61,0.69,0.69
1335,5.42,4.74,5.47,4.78,-4.78,-4.51,0.64,0.68,0.68
1349,5.65,4.97,5.70,5.02,-5.02,-4.62,0.62,0.68,0.68
1362,5.93,5.25,5.93,5.25,-5.25,-4.73,0.67,0.67,0.67
1376,6.25,5.58,6.14,5.47,-5.47,-4.84,0.77,0.67,0.67
1390,6.51,5.85,6.32,5.67,-5.67,-4.95,0.85,0.66,0.66
1404,6.51,5.86,6.48,5.83,-5.83,-5.05,0.68,0.65,0.65
1418,6.58,5.94,6.62,5.98,-5.98,-5.16,0.60,0.64,0.64
1432,6.74,6.10,6.73,6.10,-6.10,-5.26,0.64,0.63,0.63
1446,6.74,6.11,6.83,6.21,-6.21,-5.36,0.53,0.63,0.63
1461,6.91,6.29,6.92,6.30,-6.30,-5.47,0.61,0.62,0.62
1475,6.96,6.35,7.01,6.39,-6.39,-5.57,0.58,0.62,0.62
1490,7.19,6.58,7.09,6.48,-6.48,-5.67,0.72,0.62,0.61
1505,7.19,6.57,7.18,6.56,-6.56,-5.78,0.63,0.62,0.62
1520,7.19,6.57,7.27,6.65,-6.65,-5.88,0.54,0.62,0.62
1535,7.29,6.66,7.37,6.74,-6.74,-5.99,0.55,0.63,0.63
1550,7.55,6.91,7.48,6.83,-6.83,-6.10,0.72,0.65,0.65
1566,7.66,6.99,7.59,6.92,-6.92,-6.21,0.74,0.67,0.67
1582,7.68,6.99,7.70,7.01,-7.01,-6.32,0.67,0.69,0.69
1597,7.70,6.98,7.81,7.09,-7.09,-6.43,0.61,0.72,0.72
1613,7.95,7.19,7.93,7.17,-7.17,-6.54,0.77,0.76,0.75
1629,8.04,7.25,8.04,7.25,-7.25,-6.65,0.79,0.80,0.79
1646,8.21,7.37,8.15,7.31,-7.31,-6.76,0.90,0.84,0.84
1662,8.23,7.34,8.26,7.37,-7.37,-6.87,0.86,0.89,0.89
1679,8.43,7.48,8.36,7.41,-7.41,-6.99,1.01,0.95,0.95
1696,8.48,7.47,8.46,7.45,-7.45,-7.10,1.04,1.01,1.01
1713,8.50,7.42,8.54,7.47,-7.47,-7.21,1.03,1.08,1.08
1730,8.57,7.42,8.63,7.48,-7.48,-7.31,1.10,1.15,1.15
