frequency,raw,error,smoothed,error_smoothed,equalization,parametric_eq,equalized_raw,equalized_smoothed,target
20,2.49,-0.26,2.51,-0.24,0.24,-0.24,2.73,2.75,2.75
21,2.64,-0.10,2.64,-0.10,0.10,-0.29,2.73,2.74,2.74
22,2.78,0.05,2.77,0.04,-0.04,-0.35,2.74,2.73,2.73
23,2.90,0.18,2.88,0.17,-0.17,-0.41,2.73,2.72,2.72
24,3.01,0.30,2.99,0.28,-0.28,-0.48,2.73,2.71,2.71
25,3.10,0.40,3.09,0.39,-0.39,-0.55,2.71,2.70,2.69
26,3.18,0.50,3.17,0.49,-0.49,-0.62,2.69,2.68,2.68
27,3.26,0.59,3.25,0.58,-0.58,-0.69,2.68,2.67,2.67
28,3.32,0.67,3.31,0.66,-0.66,-0.75,2.66,2.65,2.65
29,3.37,0.73,3.37,0.73,-0.73,-0.81,2.64,2.64,2.64
30,3.42,0.80,3.41,0.80,-0.80,-0.86,2.62,2.62,2.62
31,3.45,0.85,3.45,0.85,-0.85,-0.89,2.60,2.60,2.60
32,3.48,0.90,3.48,0.90,-0.90,-0.92,2.58,2.58,2.58
33,3.50,0.94,3.50,0.94,-0.94,-0.93,2.56,2.56,2.56
34,3.51,0.97,3.52,0.98,-0.98,-0.94,2.53,2.54,2.54
35,3.52,1.01,3.52,1.01,-1.01,-0.94,2.51,2.51,2.51
36,3.53,1.04,3.53,1.04,-1.04,-0.94,2.49,2.49,2.49
37,3.52,1.06,3.52,1.06,-1.06,-0.93,2.46,2.46,2.46
38,3.52,1.08,3.52,1.08,-1.08,-0.93,2.44,2.44,2.44
39,3.50,1.09,3.50,1.10,-1.10,-0.93,2.40,2.41,2.41
40,3.49,1.11,3.49,1.11,-1.11,-0.92,2.38,2.38,2.38
41,3.47,1.12,3.47,1.12,-1.12,-0.93,2.35,2.35,2.35
42,3.44,1.12,3.44,1.13,-1.13,-0.93,2.31,2.32,2.32
43,3.42,1.13,3.42,1.14,-1.14,-0.94,2.28,2.28,2.28
44,3.38,1.13,3.39,1.14,-1.14,-0.95,2.24,2.25,2.25
45,3.35,1.13,3.35,1.14,-1.14,-0.97,2.21,2.21,2.21
46,3.31,1.13,3.32,1.14,-1.14,-0.99,2.17,2.18,2.18
47,3.28,1.14,3.28,1.14,-1.14,-1.01,2.14,2.14,2.14
48,3.23,1.13,3.23,1.13,-1.13,-1.03,2.10,2.10,2.10
49,3.20,1.14,3.19,1.12,-1.12,-1.05,2.07,2.06,2.06
50,3.18,1.16,3.14,1.12,-1.12,-1.08,2.06,2.02,2.02
51,3.14,1.16,3.08,1.10,-1.10,-1.11,2.03,1.98,1.98
52,3.04,1.10,3.03,1.09,-1.09,-1.14,1.95,1.94,1.94
53,2.92,1.02,2.97,1.08,-1.08,-1.16,1.84,1.89,1.89
54,2.87,1.02,2.91,1.07,-1.07,-1.19,1.80,1.85,1.85
55,2.85,1.04,2.85,1.05,-1.05,-1.21,1.80,1.80,1.80
56,2.82,1.06,2.80,1.04,-1.04,-1.23,1.78,1.76,1.76
57,2.75,1.04,2.74,1.03,-1.03,-1.25,1.72,1.71,1.71
58,2.66,1.00,2.68,1.01,-1.01,-1.26,1.64,1.66,1.66
59,2.58,0.96,2.62,1.00,-1.00,-1.27,1.57,1.61,1.61
60,2.55,0.98,2.56,0.99,-0.99,-1.28,1.55,1.56,1.56
61,2.51,0.99,2.50,0.99,-0.99,-1.28,1.52,1.51,1.51
62,2.46,0.99,2.44,0.98,-0.98,-1.27,1.48,1.46,1.46
63,2.40,0.99,2.38,0.97,-0.97,-1.26,1.43,1.41,1.41
64,2.34,0.98,2.32,0.96,-0.96,-1.25,1.38,1.36,1.36
65,2.27,0.96,2.26,0.95,-0.95,-1.23,1.31,1.31,1.31
66,2.20,0.94,2.20,0.95,-0.95,-1.21,1.25,1.26,1.26
67,2.13,0.93,2.14,0.94,-0.94,-1.18,1.19,1.20,1.20
68,2.07,0.92,2.08,0.93,-0.93,-1.16,1.14,1.15,1.15
69,2.00,0.90,2.01,0.92,-0.92,-1.13,1.08,1.10,1.10
70,1.95,0.91,1.95,0.91,-0.91,-1.09,1.04,1.04,1.04
71,1.88,0.89,1.88,0.89,-0.89,-1.06,0.98,0.99,0.99
72,1.83,0.89,1.81,0.88,-0.88,-1.03,0.95,0.93,0.93
73,1.78,0.90,1.74,0.87,-0.87,-0.99,0.91,0.88,0.88
74,1.71,0.88,1.68,0.85,-0.85,-0.95,0.86,0.83,0.83
75,1.62,0.85,1.61,0.83,-0.83,-0.92,0.78,0.77,0.77
76,1.53,0.81,1.54,0.82,-0.82,-0.88,0.71,0.72,0.72
77,1.44,0.78,1.47,0.80,-0.80,-0.85,0.63,0.66,0.66
78,1.37,0.76,1.40,0.79,-0.79,-0.81,0.58,0.61,0.61
79,1.30,0.74,1.33,0.77,-0.77,-0.78,0.53,0.55,0.55
80,1.25,0.75,1.26,0.76,-0.76,-0.74,0.49,0.50,0.50
81,1.20,0.75,1.19,0.74,-0.74,-0.71,0.45,0.45,0.45
82,1.14,0.74,1.13,0.73,-0.73,-0.68,0.41,0.39,0.39
83,1.07,0.73,1.06,0.72,-0.72,-0.65,0.35,0.34,0.34
84,1.01,0.72,0.99,0.71,-0.71,-0.62,0.30,0.29,0.29
85,0.95,0.71,0.93,0.70,-0.70,-0.59,0.25,0.23,0.24
86,0.87,0.69,0.87,0.68,-0.68,-0.56,0.18,0.18,0.18
87,0.80,0.67,0.80,0.67,-0.67,-0.53,0.13,0.13,0.13
88,0.73,0.65,0.74,0.66,-0.66,-0.50,0.07,0.08,0.08
89,0.66,0.63,0.68,0.65,-0.65,-0.47,0.01,0.03,0.03
90,0.60,0.62,0.61,0.63,-0.63,-0.45,-0.04,-0.02,-0.02
91,0.54,0.61,0.55,0.62,-0.62,-0.42,-0.08,-0.07,-0.07
92,0.49,0.61,0.48,0.60,-0.60,-0.40,-0.12,-0.12,-0.12
93,0.43,0.60,0.42,0.59,-0.59,-0.38,-0.16,-0.17,-0.17
94,0.36,0.58,0.35,0.57,-0.57,-0.35,-0.21,-0.22,-0.22
95,0.30,0.57,0.28,0.55,-0.55,-0.33,-0.25,-0.27,-0.27
96,0.24,0.55,0.21,0.53,-0.53,-0.31,-0.29,-0.32,-0.32
97,0.16,0.52,0.14,0.51,-0.51,-0.29,-0.35,-0.36,-0.36
98,0.08,0.49,0.07,0.49,-0.49,-0.27,-0.41,-0.41,-0.41
99,0.01,0.46,0.00,0.46,-0.46,-0.25,-0.45,-0.46,-0.45
100,-0.08,0.42,-0.07,0.44,-0.44,-0.23,-0.52,-0.51,-0.50
101,-0.15,0.39,-0.15,0.41,-0.41,-0.21,-0.57,-0.56,-0.54
102,-0.22,0.37,-0.22,0.39,-0.39,-0.19,-0.61,-0.61,-0.59
104,-0.32,0.35,-0.29,0.36,-0.36,-0.15,-0.69,-0.65,-0.68
105,-0.37,0.35,-0.36,0.34,-0.34,-0.14,-0.71,-0.70,-0.72
106,-0.43,0.33,-0.43,0.32,-0.32,-0.12,-0.75,-0.75,-0.76
107,-0.49,0.31,-0.50,0.29,-0.29,-0.10,-0.79,-0.79,-0.80
108,-0.55,0.29,-0.56,0.27,-0.27,-0.09,-0.82,-0.84,-0.84
109,-0.63,0.25,-0.63,0.25,-0.25,-0.07,-0.88,-0.88,-0.88
110,-0.70,0.22,-0.70,0.22,-0.22,-0.05,-0.93,-0.92,-0.92
111,-0.77,0.19,-0.76,0.20,-0.20,-0.04,-0.97,-0.96,-0.96
112,-0.83,0.16,-0.83,0.18,-0.18,-0.02,-1.01,-1.00,-1.00
113,-0.88,0.15,-0.89,0.15,-0.15,-0.01,-1.03,-1.04,-1.03
114,-0.94,0.13,-0.96,0.13,-0.13,0.01,-1.07,-1.08,-1.07
115,-0.99,0.11,-1.02,0.10,-0.10,0.03,-1.09,-1.12,-1.11
117,-1.10,0.08,-1.09,0.08,-0.08,0.06,-1.18,-1.16,-1.18
118,-1.15,0.06,-1.16,0.05,-0.05,0.07,-1.20,-1.20,-1.21
119,-1.22,0.02,-1.22,0.02,-0.02,0.09,-1.24,-1.24,-1.25
120,-1.27,0.01,-1.29,-0.01,0.01,0.10,-1.27,-1.28,-1.28
121,-1.34,-0.03,-1.36,-0.03,0.03,0.12,-1.31,-1.32,-1.31
123,-1.46,-0.09,-1.42,-0.06,0.06,0.15,-1.40,-1.36,-1.38
124,-1.51,-0.11,-1.49,-0.09,0.09,0.16,-1.42,-1.40,-1.41
125,-1.57,-0.14,-1.56,-0.12,0.12,0.17,-1.45,-1.44,-1.44
126,-1.62,-0.16,-1.63,-0.15,0.15,0.19,-1.47,-1.48,-1.47
128,-1.72,-0.20,-1.69,-0.18,0.18,0.22,-1.54,-1.51,-1.52
129,-1.76,-0.21,-1.76,-0.21,0.21,0.23,-1.55,-1.55,-1.55
130,-1.81,-0.23,-1.83,-0.25,0.25,0.25,-1.57,-1.58,-1.58
131,-1.86,-0.25,-1.90,-0.28,0.28,0.26,-1.58,-1.62,-1.61
133,-1.96,-0.30,-1.97,-0.32,0.32,0.29,-1.64,-1.65,-1.66
134,-2.02,-0.33,-2.05,-0.36,0.36,0.31,-1.67,-1.69,-1.69
135,-2.09,-0.38,-2.12,-0.40,0.40,0.32,-1.70,-1.72,-1.71
137,-2.21,-0.45,-2.19,-0.44,0.44,0.35,-1.78,-1.76,-1.76
138,-2.27,-0.49,-2.27,-0.48,0.48,0.37,-1.79,-1.79,-1.79
140,-2.37,-0.54,-2.34,-0.52,0.52,0.40,-1.85,-1.82,-1.83
141,-2.43,-0.58,-2.42,-0.56,0.56,0.41,-1.87,-1.85,-1.85
142,-2.48,-0.61,-2.49,-0.60,0.60,0.43,-1.88,-1.89,-1.88
144,-2.58,-0.66,-2.56,-0.64,0.64,0.46,-1.94,-1.92,-1.92
145,-2.62,-0.68,-2.63,-0.68,0.68,0.48,-1.94,-1.95,-1.94
147,-2.70,-0.72,-2.70,-0.72,0.72,0.51,-1.98,-1.98,-1.98
148,-2.76,-0.76,-2.77,-0.76,0.76,0.53,-2.00,-2.01,-2.00
150,-2.84,-0.80,-2.83,-0.80,0.80,0.56,-2.04,-2.03,-2.04
151,-2.89,-0.83,-2.90,-0.84,0.84,0.58,-2.05,-2.06,-2.06
153,-2.96,-0.87,-2.97,-0.88,0.88,0.61,-2.09,-2.09,-2.10
154,-3.01,-0.90,-3.03,-0.91,0.91,0.63,-2.10,-2.12,-2.11
156,-3.10,-0.95,-3.09,-0.95,0.95,0.67,-2.15,-2.14,-2.15
157,-3.14,-0.98,-3.15,-0.99,0.99,0.69,-2.16,-2.17,-2.16
159,-3.23,-1.04,-3.22,-1.02,1.02,0.72,-2.21,-2.19,-2.20
160,-3.26,-1.05,-3.28,-1.06,1.06,0.74,-2.20,-2.22,-2.21
162,-3.34,-1.10,-3.34,-1.09,1.09,0.78,-2.25,-2.24,-2.24
164,-3.41,-1.14,-3.39,-1.13,1.13,0.82,-2.28,-2.27,-2.27
165,-3.45,-1.17,-3.45,-1.16,1.16,0.84,-2.29,-2.29,-2.29
167,-3.52,-1.21,-3.51,-1.20,1.20,0.88,-2.33,-2.31,-2.31
169,-3.58,-1.24,-3.57,-1.23,1.23,0.92,-2.35,-2.34,-2.34
170,-3.61,-1.26,-3.62,-1.27,1.27,0.94,-2.35,-2.36,-2.35
172,-3.67,-1.29,-3.68,-1.30,1.30,0.99,-2.37,-2.38,-2.38
174,-3.73,-1.33,-3.74,-1.34,1.34,1.03,-2.40,-2.40,-2.40
175,-3.76,-1.35,-3.79,-1.37,1.37,1.05,-2.39,-2.42,-2.42
177,-3.82,-1.38,-3.85,-1.41,1.41,1.10,-2.42,-2.44,-2.44
179,-3.89,-1.43,-3.90,-1.44,1.44,1.14,-2.45,-2.46,-2.46
181,-3.95,-1.47,-3.96,-1.48,1.48,1.19,-2.48,-2.48,-2.48
183,-4.03,-1.53,-4.01,-1.51,1.51,1.23,-2.52,-2.50,-2.50
184,-4.07,-1.56,-4.06,-1.54,1.54,1.26,-2.53,-2.52,-2.51
186,-4.12,-1.59,-4.11,-1.57,1.57,1.30,-2.55,-2.54,-2.53
188,-4.17,-1.62,-4.16,-1.60,1.60,1.35,-2.57,-2.55,-2.55
190,-4.22,-1.65,-4.20,-1.63,1.63,1.40,-2.59,-2.57,-2.57
192,-4.24,-1.65,-4.24,-1.65,1.65,1.45,-2.59,-2.59,-2.59
194,-4.28,-1.68,-4.28,-1.67,1.67,1.49,-2.61,-2.60,-2.60
196,-4.30,-1.68,-4.31,-1.69,1.69,1.54,-2.61,-2.62,-2.62
198,-4.33,-1.69,-4.35,-1.71,1.71,1.59,-2.62,-2.64,-2.64
200,-4.37,-1.72,-4.38,-1.72,1.72,1.64,-2.65,-2.65,-2.65
202,-4.40,-1.73,-4.41,-1.74,1.74,1.69,-2.66,-2.67,-2.67
204,-4.44,-1.76,-4.43,-1.75,1.75,1.73,-2.69,-2.68,-2.68
206,-4.46,-1.77,-4.46,-1.77,1.77,1.78,-2.70,-2.69,-2.70
208,-4.49,-1.78,-4.49,-1.78,1.78,1.82,-2.71,-2.71,-2.71
210,-4.50,-1.78,-4.51,-1.79,1.79,1.86,-2.71,-2.72,-2.72
212,-4.52,-1.79,-4.54,-1.80,1.80,1.91,-2.72,-2.73,-2.73
214,-4.54,-1.80,-4.56,-1.82,1.82,1.95,-2.73,-2.75,-2.75
216,-4.56,-1.80,-4.58,-1.83,1.83,1.98,-2.74,-2.76,-2.76
218,-4.60,-1.83,-4.61,-1.84,1.84,2.02,-2.77,-2.77,-2.77
221,-4.63,-1.85,-4.62,-1.84,1.84,2.07,-2.79,-2.78,-2.78
223,-4.66,-1.87,-4.64,-1.85,1.85,2.10,-2.81,-2.79,-2.80
225,-4.68,-1.88,-4.65,-1.85,1.85,2.13,-2.83,-2.80,-2.81
227,-4.68,-1.87,-4.66,-1.85,1.85,2.15,-2.83,-2.82,-2.82
229,-4.68,-1.86,-4.67,-1.84,1.84,2.17,-2.84,-2.83,-2.82
232,-4.67,-1.83,-4.67,-1.84,1.84,2.20,-2.83,-2.84,-2.84
234,-4.67,-1.83,-4.67,-1.83,1.83,2.21,-2.84,-2.85,-2.85
236,-4.67,-1.82,-4.67,-1.81,1.81,2.22,-2.86,-2.86,-2.86
239,-4.65,-1.78,-4.66,-1.80,1.80,2.23,-2.85,-2.87,-2.87
241,-4.65,-1.78,-4.66,-1.78,1.78,2.23,-2.87,-2.88,-2.88
244,-4.64,-1.76,-4.64,-1.76,1.76,2.23,-2.88,-2.88,-2.89
246,-4.62,-1.73,-4.63,-1.74,1.74,2.22,-2.89,-2.89,-2.89
248,-4.62,-1.72,-4.61,-1.71,1.71,2.21,-2.91,-2.90,-2.90
251,-4.59,-1.68,-4.60,-1.69,1.69,2.18,-2.91,-2.91,-2.91
253,-4.58,-1.66,-4.58,-1.66,1.66,2.16,-2.92,-2.92,-2.92
256,-4.55,-1.63,-4.56,-1.63,1.63,2.12,-2.92,-2.93,-2.93
259,-4.53,-1.60,-4.54,-1.60,1.60,2.07,-2.93,-2.93,-2.94
261,-4.51,-1.57,-4.51,-1.57,1.57,2.04,-2.94,-2.94,-2.94
264,-4.48,-1.53,-4.49,-1.54,1.54,1.98,-2.95,-2.95,-2.95
266,-4.46,-1.51,-4.46,-1.50,1.50,1.94,-2.96,-2.96,-2.96
269,-4.43,-1.47,-4.43,-1.47,1.47,1.88,-2.97,-2.96,-2.96
272,-4.39,-1.42,-4.40,-1.43,1.43,1.80,-2.96,-2.97,-2.97
274,-4.37,-1.40,-4.36,-1.39,1.39,1.75,-2.98,-2.98,-2.98
277,-4.33,-1.35,-4.33,-1.35,1.35,1.67,-2.98,-2.98,-2.98
280,-4.29,-1.30,-4.29,-1.30,1.30,1.59,-2.99,-2.99,-2.99
283,-4.25,-1.26,-4.25,-1.26,1.26,1.50,-2.99,-2.99,-3.00
286,-4.20,-1.20,-4.21,-1.21,1.21,1.41,-2.99,-3.00,-3.00
288,-4.17,-1.17,-4.17,-1.16,1.16,1.35,-3.01,-3.01,-3.01
291,-4.12,-1.11,-4.12,-1.11,1.11,1.26,-3.01,-3.01,-3.01
294,-4.07,-1.06,-4.07,-1.06,1.06,1.16,-3.02,-3.02,-3.02
297,-4.02,-1.00,-4.02,-1.00,1.00,1.07,-3.02,-3.02,-3.02
300,-3.97,-0.95,-3.97,-0.94,0.94,0.97,-3.03,-3.03,-3.03
303,-3.91,-0.88,-3.91,-0.88,0.88,0.87,-3.03,-3.03,-3.03
306,-3.86,-0.83,-3.86,-0.82,0.82,0.77,-3.04,-3.04,-3.04
309,-3.80,-0.76,-3.80,-0.76,0.76,0.67,-3.05,-3.04,-3.04
312,-3.74,-0.70,-3.74,-0.69,0.69,0.57,-3.05,-3.05,-3.05
316,-3.66,-0.61,-3.67,-0.62,0.62,0.44,-3.04,-3.05,-3.05
319,-3.60,-0.55,-3.61,-0.55,0.55,0.34,-3.05,-3.05,-3.06
322,-3.53,-0.47,-3.54,-0.48,0.48,0.24,-3.05,-3.06,-3.06
325,-3.47,-0.41,-3.47,-0.41,0.41,0.14,-3.07,-3.06,-3.06
328,-3.40,-0.34,-3.40,-0.33,0.33,0.04,-3.07,-3.07,-3.07
332,-3.32,-0.25,-3.33,-0.26,0.26,-0.09,-3.07,-3.07,-3.07
335,-3.25,-0.18,-3.25,-0.18,0.18,-0.19,-3.08,-3.07,-3.07
338,-3.18,-0.10,-3.18,-0.10,0.10,-0.29,-3.08,-3.08,-3.08
342,-3.09,-0.01,-3.10,-0.02,0.02,-0.42,-3.08,-3.08,-3.08
345,-3.02,0.06,-3.02,0.07,-0.07,-0.52,-3.09,-3.08,-3.08
349,-2.93,0.16,-2.94,0.15,-0.15,-0.65,-3.08,-3.09,-3.09
352,-2.86,0.23,-2.86,0.24,-0.24,-0.75,-3.10,-3.09,-3.09
356,-2.76,0.33,-2.77,0.32,-0.32,-0.88,-3.08,-3.09,-3.09
359,-2.69,0.41,-2.69,0.41,-0.41,-0.97,-3.10,-3.10,-3.10
363,-2.59,0.51,-2.60,0.50,-0.50,-1.10,-3.09,-3.10,-3.10
366,-2.52,0.58,-2.51,0.59,-0.59,-1.19,-3.11,-3.10,-3.10
370,-2.42,0.68,-2.42,0.68,-0.68,-1.32,-3.11,-3.11,-3.11
374,-2.32,0.79,-2.33,0.78,-0.78,-1.45,-3.10,-3.11,-3.11
377,-2.25,0.86,-2.24,0.87,-0.87,-1.54,-3.13,-3.11,-3.11
381,-2.15,0.96,-2.14,0.97,-0.97,-1.66,-3.12,-3.12,-3.12
385,-2.05,1.07,-2.05,1.07,-1.07,-1.79,-3.12,-3.12,-3.12
389,-1.95,1.17,-1.95,1.17,-1.17,-1.91,-3.12,-3.12,-3.12
393,-1.85,1.27,-1.85,1.27,-1.27,-2.03,-3.12,-3.13,-3.13
397,-1.75,1.38,-1.76,1.37,-1.37,-2.15,-3.12,-3.13,-3.13
401,-1.65,1.48,-1.66,1.48,-1.48,-2.27,-3.13,-3.13,-3.13
405,-1.55,1.58,-1.56,1.58,-1.58,-2.38,-3.13,-3.13,-3.13
409,-1.45,1.68,-1.45,1.68,-1.68,-2.50,-3.13,-3.14,-3.14
413,-1.34,1.80,-1.35,1.79,-1.79,-2.61,-3.13,-3.14,-3.14
417,-1.24,1.90,-1.25,1.89,-1.89,-2.72,-3.13,-3.14,-3.14
421,-1.15,1.99,-1.15,2.00,-2.00,-2.83,-3.15,-3.14,-3.14
425,-1.05,2.09,-1.04,2.10,-2.10,-2.94,-3.15,-3.14,-3.14
430,-0.92,2.22,-0.93,2.21,-2.21,-3.06,-3.13,-3.14,-3.14
434,-0.82,2.32,-0.83,2.32,-2.32,-3.16,-3.14,-3.14,-3.14
438,-0.73,2.41,-0.72,2.42,-2.42,-3.26,-3.16,-3.14,-3.14
443,-0.60,2.54,-0.61,2.53,-2.53,-3.37,-3.14,-3.14,-3.14
447,-0.49,2.64,-0.49,2.64,-2.64,-3.46,-3.14,-3.14,-3.14
451,-0.39,2.74,-0.38,2.76,-2.76,-3.54,-3.15,-3.13,-3.13
456,-0.26,2.87,-0.26,2.87,-2.87,-3.64,-3.13,-3.13,-3.13
460,-0.16,2.96,-0.14,2.98,-2.98,-3.71,-3.15,-3.12,-3.12
465,-0.02,3.10,-0.02,3.10,-3.10,-3.79,-3.12,-3.12,-3.12
470,0.11,3.22,0.10,3.21,-3.21,-3.87,-3.10,-3.11,-3.11
474,0.21,3.31,0.22,3.32,-3.32,-3.92,-3.12,-3.10,-3.10
479,0.34,3.43,0.34,3.44,-3.44,-3.98,-3.10,-3.09,-3.09
484,0.46,3.54,0.46,3.54,-3.54,-4.04,-3.09,-3.08,-3.08
489,0.59,3.66,0.58,3.65,-3.65,-4.08,-3.06,-3.07,-3.07
494,0.71,3.77,0.69,3.75,-3.75,-4.11,-3.04,-3.06,-3.06
499,0.83,3.88,0.80,3.85,-3.85,-4.14,-3.02,-3.05,-3.05
504,0.93,3.96,0.91,3.94,-3.94,-4.16,-3.02,-3.03,-3.03
509,1.04,4.06,1.02,4.03,-4.03,-4.17,-3.00,-3.02,-3.02
514,1.13,4.13,1.12,4.12,-4.12,-4.17,-2.99,-3.00,-3.00
519,1.22,4.20,1.22,4.21,-4.21,-4.17,-2.99,-2.98,-2.98
524,1.30,4.26,1.32,4.29,-4.29,-4.16,-2.99,-2.96,-2.96
529,1.38,4.32,1.42,4.36,-4.36,-4.14,-2.98,-2.94,-2.94
535,1.50,4.42,1.51,4.44,-4.44,-4.11,-2.94,-2.92,-2.92
540,1.58,4.48,1.61,4.51,-4.51,-4.08,-2.93,-2.90,-2.90
545,1.68,4.56,1.70,4.57,-4.57,-4.05,-2.90,-2.88,-2.88
551,1.79,4.64,1.78,4.64,-4.64,-4.00,-2.85,-2.86,-2.86
556,1.87,4.70,1.86,4.69,-4.69,-3.96,-2.83,-2.83,-2.83
562,1.96,4.76,1.94,4.75,-4.75,-3.91,-2.79,-2.81,-2.81
568,2.03,4.81,2.01,4.79,-4.79,-3.85,-2.76,-2.78,-2.78
573,2.08,4.83,2.07,4.83,-4.83,-3.80,-2.75,-2.75,-2.75
579,2.13,4.85,2.13,4.85,-4.85,-3.74,-2.73,-2.73,-2.73
585,2.18,4.88,2.17,4.87,-4.87,-3.68,-2.69,-2.70,-2.70
591,2.22,4.89,2.21,4.88,-4.88,-3.61,-2.66,-2.67,-2.67
596,2.24,4.88,2.24,4.88,-4.88,-3.56,-2.64,-2.64,-2.64
602,2.27,4.88,2.25,4.86,-4.86,-3.50,-2.60,-2.61,-2.61
608,2.28,4.86,2.26,4.84,-4.84,-3.43,-2.56,-2.58,-2.58
615,2.29,4.83,2.26,4.81,-4.81,-3.36,-2.52,-2.55,-2.55
621,2.26,4.77,2.25,4.76,-4.76,-3.29,-2.50,-2.51,-2.51
627,2.23,4.71,2.23,4.71,-4.71,-3.23,-2.48,-2.48,-2.48
633,2.19,4.64,2.20,4.65,-4.65,-3.17,-2.46,-2.45,-2.45
639,2.14,4.55,2.16,4.58,-4.58,-3.11,-2.44,-2.42,-2.42
646,2.09,4.47,2.12,4.50,-4.50,-3.05,-2.41,-2.38,-2.38
652,2.05,4.39,2.06,4.41,-4.41,-2.99,-2.36,-2.35,-2.35
659,2.01,4.32,2.01,4.32,-4.32,-2.93,-2.31,-2.31,-2.31
665,1.96,4.23,1.94,4.22,-4.22,-2.88,-2.26,-2.28,-2.28
672,1.89,4.13,1.87,4.11,-4.11,-2.82,-2.22,-2.24,-2.24
679,1.81,4.01,1.79,3.99,-3.99,-2.77,-2.19,-2.20,-2.20
686,1.71,3.87,1.71,3.87,-3.87,-2.72,-2.17,-2.17,-2.17
692,1.62,3.75,1.62,3.75,-3.75,-2.68,-2.13,-2.13,-2.13
699,1.52,3.61,1.52,3.61,-3.61,-2.63,-2.10,-2.09,-2.09
706,1.41,3.46,1.42,3.48,-3.48,-2.59,-2.07,-2.05,-2.06
713,1.31,3.33,1.32,3.33,-3.33,-2.55,-2.03,-2.02,-2.02
721,1.20,3.18,1.21,3.19,-3.19,-2.50,-1.99,-1.98,-1.98
728,1.11,3.05,1.09,3.04,-3.04,-2.47,-1.93,-1.94,-1.94
735,1.00,2.90,0.98,2.88,-2.88,-2.43,-1.88,-1.90,-1.90
742,0.89,2.75,0.86,2.73,-2.73,-2.40,-1.84,-1.87,-1.87
750,0.76,2.59,0.74,2.57,-2.57,-2.37,-1.81,-1.83,-1.83
757,0.63,2.42,0.62,2.41,-2.41,-2.34,-1.78,-1.79,-1.79
765,0.49,2.24,0.50,2.25,-2.25,-2.31,-1.77,-1.76,-1.76
773,0.36,2.08,0.38,2.10,-2.10,-2.28,-1.74,-1.72,-1.72
780,0.25,1.93,0.26,1.95,-1.95,-2.26,-1.70,-1.68,-1.68
788,0.14,1.79,0.15,1.80,-1.80,-2.24,-1.66,-1.65,-1.65
796,0.03,1.64,0.04,1.65,-1.65,-2.22,-1.63,-1.61,-1.61
804,-0.06,1.52,-0.06,1.52,-1.52,-2.20,-1.58,-1.58,-1.58
812,-0.15,1.39,-0.16,1.39,-1.39,-2.18,-1.54,-1.55,-1.54
820,-0.24,1.27,-0.25,1.27,-1.27,-2.16,-1.51,-1.51,-1.51
828,-0.32,1.16,-0.33,1.15,-1.15,-2.15,-1.47,-1.48,-1.48
837,-0.40,1.05,-0.40,1.05,-1.05,-2.13,-1.45,-1.45,-1.45
845,-0.46,0.95,-0.47,0.95,-0.95,-2.12,-1.41,-1.42,-1.42
853,-0.52,0.86,-0.52,0.87,-0.87,-2.10,-1.39,-1.39,-1.39
862,-0.57,0.78,-0.56,0.79,-0.79,-2.09,-1.36,-1.36,-1.36
871,-0.60,0.72,-0.60,0.73,-0.73,-2.07,-1.33,-1.33,-1.33
879,-0.63,0.67,-0.62,0.68,-0.68,-2.06,-1.31,-1.30,-1.30
888,-0.64,0.63,-0.63,0.64,-0.64,-2.04,-1.29,-1.27,-1.27
897,-0.64,0.60,-0.62,0.62,-0.62,-2.02,-1.26,-1.24,-1.24
906,-0.62,0.59,-0.61,0.60,-0.60,-2.01,-1.23,-1.21,-1.21
915,-0.60,0.58,-0.58,0.60,-0.60,-1.99,-1.20,-1.19,-1.19
924,-0.56,0.60,-0.55,0.61,-0.61,-1.97,-1.17,-1.16,-1.16
933,-0.52,0.61,-0.50,0.63,-0.63,-1.95,-1.15,-1.13,-1.13
943,-0.46,0.64,-0.45,0.66,-0.66,-1.92,-1.12,-1.11,-1.11
952,-0.39,0.69,-0.39,0.69,-0.69,-1.90,-1.08,-1.08,-1.08
962,-0.30,0.75,-0.32,0.73,-0.73,-1.87,-1.03,-1.05,-1.05
971,-0.23,0.79,-0.25,0.78,-0.78,-1.84,-1.01,-1.03,-1.03
981,-0.14,0.86,-0.18,0.82,-0.82,-1.81,-0.96,-1.00,-1.00
991,-0.07,0.90,-0.10,0.87,-0.87,-1.78,-0.94,-0.97,-0.97
1001,0.01,0.95,-0.02,0.92,-0.92,-1.74,-0.92,-0.95,-0.95
1011,0.07,0.99,0.06,0.98,-0.98,-1.70,-0.91,-0.92,-0.92
1021,0.14,1.03,0.14,1.03,-1.03,-1.66,-0.89,-0.89,-0.89
1031,0.20,1.06,0.22,1.09,-1.09,-1.61,-0.89,-0.86,-0.86
1041,0.28,1.11,0.31,1.14,-1.14,-1.57,-0.86,-0.84,-0.84
1052,0.37,1.18,0.39,1.20,-1.20,-1.51,-0.83,-0.81,-0.81
1062,0.44,1.22,0.48,1.26,-1.26,-1.46,-0.82,-0.78,-0.78
1073,0.54,1.29,0.56,1.31,-1.31,-1.40,-0.77,-0.75,-0.75
1084,0.63,1.35,0.64,1.36,-1.36,-1.35,-0.74,-0.72,-0.72
1094,0.70,1.39,0.72,1.41,-1.41,-1.29,-0.72,-0.69,-0.69
1105,0.79,1.45,0.79,1.46,-1.46,-1.23,-0.67,-0.66,-0.66
1116,0.87,1.50,0.86,1.49,-1.49,-1.16,-0.63,-0.63,-0.63
1128,0.94,1.54,0.91,1.52,-1.52,-1.09,-0.58,-0.60,-0.60
1139,0.99,1.56,0.96,1.53,-1.53,-1.03,-0.54,-0.57,-0.57
1150,1.03,1.57,0.99,1.53,-1.53,-0.96,-0.50,-0.54,-0.54
1162,1.05,1.56,1.00,1.52,-1.52,-0.89,-0.47,-0.51,-0.51
1173,1.07,1.55,1.01,1.49,-1.49,-0.82,-0.42,-0.48,-0.48
1185,1.06,1.51,0.99,1.44,-1.44,-0.74,-0.38,-0.45,-0.45
1197,1.03,1.44,0.97,1.39,-1.39,-0.67,-0.36,-0.42,-0.42
1209,0.98,1.36,0.94,1.32,-1.32,-0.59,-0.34,-0.38,-0.38
1221,0.91,1.26,0.89,1.24,-1.24,-0.52,-0.33,-0.35,-0.35
1233,0.83,1.15,0.84,1.16,-1.16,-0.44,-0.33,-0.32,-0.32
1246,0.74,1.02,0.79,1.08,-1.08,-0.36,-0.34,-0.28,-0.28
1258,0.67,0.92,0.74,0.99,-0.99,-0.28,-0.32,-0.25,-0.25
1271,0.63,0.84,0.69,0.91,-0.91,-0.20,-0.28,-0.22,-0.22
1283,0.59,0.77,0.65,0.83,-0.83,-0.13,-0.24,-0.18,-0.18
1296,0.57,0.71,0.61,0.76,-0.76,-0.05,-0.19,-0.15,-0.15
1309,0.56,0.67,0.58,0.69,-0.69,0.03,-0.13,-0.11,-0.11
1322,0.55,0.62,0.55,0.63,-0.63,0.11,-0.08,-0.08,-0.08
1335,0.53,0.57,0.53,0.57,-0.57,0.20,-0.04,-0.04,-0.04
1349,0.51,0.51,0.51,0.51,-0.51,0.28,-0.00,-0.00,-0.00
1362,0.50,0.46,0.48,0.45,-0.45,0.36,0.05,0.03,0.03
1376,0.48,0.41,0.46,0.39,-0.39,0.45,0.09,0.07,0.07
1390,0.46,0.35,0.44,0.33,-0.33,0.53,0.13,0.11,0.11
1404,0.45,0.30,0.41,0.27,-0.27,0.62,0.18,0.15,0.15
1418,0.42,0.23,0.38,0.20,-0.20,0.70,0.22,0.19,0.19
1432,0.39,0.16,0.35,0.12,-0.12,0.79,0.26,0.22,0.22
1446,0.34,0.07,0.31,0.05,-0.05,0.87,0.29,0.26,0.26
1461,0.27,-0.03,0.27,-0.04,0.04,0.96,0.30,0.30,0.30
1475,0.21,-0.13,0.22,-0.12,0.12,1.04,0.33,0.34,0.34
1490,0.14,-0.24,0.17,-0.21,0.21,1.13,0.35,0.38,0.38
1505,0.09,-0.34,0.12,-0.30,0.30,1.22,0.39,0.42,0.42
1520,0.05,-0.42,0.07,-0.39,0.39,1.31,0.44,0.46,0.46
1535,0.01,-0.50,0.02,-0.48,0.48,1.40,0.49,0.51,0.51
1550,-0.02,-0.57,-0.03,-0.58,0.58,1.48,0.55,0.55,0.55
1566,-0.06,-0.65,-0.08,-0.67,0.67,1.58,0.61,0.59,0.59
1582,-0.11,-0.75,-0.13,-0.76,0.76,1.67,0.65,0.63,0.63
1597,-0.16,-0.84,-0.18,-0.86,0.86,1.76,0.69,0.68,0.68
1613,-0.22,-0.94,-0.23,-0.95,0.95,1.85,0.73,0.72,0.72
1629,-0.27,-1.04,-0.28,-1.04,1.04,1.94,0.77,0.76,0.76
1646,-0.32,-1.13,-0.33,-1.14,1.14,2.03,0.81,0.81,0.81
1662,-0.38,-1.24,-0.38,-1.23,1.23,2.12,0.85,0.85,0.85
1679,-0.43,-1.33,-0.42,-1.32,1.32,2.21,0.89,0.90,0.90
1696,-0.48,-1.43,-0.47,-1.41,1.41,2.30,0.93,0.94,0.95
1713,-0.52,-1.51,-0.51,-1.50,1.50,2.38,0.98,0.99,0.99
1730,-0.57,-1.61,-0.55,-1.59,1.59,2.47,1.02,1.04,1.04
