frequency,raw,error,smoothed,error_smoothed,equalization,parametric_eq,fixed_band_eq,equalized_raw,equalized_smoothed,target
20.00,-9.55,-14.53,-9.42,-14.43,6.00,5.85,2.95,-3.55,-3.42,4.98
20.20,-9.38,-14.41,-9.31,-14.36,6.00,5.85,3.04,-3.38,-3.31,5.03
20.40,-9.21,-14.29,-9.19,-14.28,6.00,5.84,3.12,-3.21,-3.19,5.08
20.61,-9.04,-14.16,-9.08,-14.20,6.00,5.83,3.21,-3.04,-3.08,5.11
20.81,-8.87,-14.03,-8.97,-14.12,6.00,5.82,3.31,-2.87,-2.97,5.16
21.02,-8.71,-13.91,-8.86,-14.03,6.00,5.81,3.40,-2.71,-2.86,5.20
21.23,-8.64,-13.86,-8.75,-13.95,6.00,5.80,3.50,-2.64,-2.75,5.22
21.44,-8.57,-13.81,-8.64,-13.86,6.00,5.79,3.60,-2.57,-2.64,5.24
21.66,-8.50,-13.76,-8.52,-13.77,6.00,5.78,3.70,-2.50,-2.52,5.26
21.87,-8.43,-13.70,-8.41,-13.67,6.00,5.77,3.81,-2.43,-2.41,5.27
22.09,-8.34,-13.63,-8.30,-13.58,6.00,5.76,3.92,-2.34,-2.30,5.29
22.31,-8.24,-13.54,-8.19,-13.48,6.00,5.75,4.03,-2.24,-2.19,5.30
22.54,-8.13,-13.43,-8.09,-13.39,6.00,5.74,4.15,-2.13,-2.09,5.30
22.76,-8.02,-13.32,-8.00,-13.30,6.00,5.73,4.26,-2.02,-2.00,5.30
22.99,-7.91,-13.20,-7.90,-13.20,6.00,5.72,4.38,-1.91,-1.90,5.29
23.22,-7.79,-13.08,-7.80,-13.10,6.00,5.70,4.51,-1.79,-1.80,5.29
23.45,-7.66,-12.95,-7.68,-12.98,6.00,5.69,4.63,-1.66,-1.68,5.29
23.69,-7.54,-12.84,-7.55,-12.85,6.00,5.68,4.76,-1.54,-1.55,5.30
23.92,-7.41,-12.71,-7.41,-12.72,6.00,5.67,4.89,-1.41,-1.41,5.30
24.16,-7.29,-12.60,-7.27,-12.58,6.00,5.65,5.03,-1.29,-1.27,5.31
24.40,-7.17,-12.49,-7.14,-12.44,6.00,5.64,5.16,-1.17,-1.14,5.32
24.65,-7.04,-12.35,-7.01,-12.32,6.00,5.63,5.30,-1.04,-1.01,5.31
24.89,-6.92,-12.22,-6.89,-12.19,6.00,5.61,5.44,-0.92,-0.89,5.31
25.14,-6.77,-12.07,-6.77,-12.07,6.00,5.60,5.58,-0.77,-0.77,5.30
25.39,-6.60,-11.91,-6.64,-11.95,6.00,5.58,5.73,-0.60,-0.64,5.31
25.65,-6.43,-11.75,-6.50,-11.81,6.00,5.57,5.87,-0.43,-0.50,5.31
25.91,-6.26,-11.57,-6.36,-11.67,6.00,5.55,6.01,-0.26,-0.36,5.30
26.16,-6.17,-11.47,-6.23,-11.54,6.00,5.53,6.16,-0.17,-0.23,5.30
26.43,-6.12,-11.42,-6.11,-11.41,6.00,5.52,6.30,-0.12,-0.11,5.30
26.69,-6.08,-11.38,-5.99,-11.29,6.00,5.50,6.44,-0.08,0.01,5.30
26.96,-6.03,-11.34,-5.87,-11.18,6.00,5.48,6.58,-0.03,0.13,5.31
27.23,-5.85,-11.16,-5.77,-11.07,6.00,5.47,6.72,0.15,0.23,5.31
27.50,-5.64,-10.95,-5.67,-10.97,6.00,5.45,6.85,0.36,0.33,5.31
27.77,-5.44,-10.74,-5.57,-10.87,6.00,5.43,6.98,0.56,0.43,5.30
28.05,-5.27,-10.57,-5.47,-10.77,6.00,5.41,7.10,0.73,0.53,5.30
28.33,-5.26,-10.55,-5.37,-10.67,6.00,5.39,7.22,0.74,0.63,5.29
28.62,-5.25,-10.54,-5.27,-10.56,6.00,5.37,7.33,0.75,0.73,5.29
28.90,-5.24,-10.54,-5.16,-10.45,6.00,5.35,7.43,0.76,0.84,5.30
29.19,-5.15,-10.44,-5.04,-10.33,6.00,5.33,7.52,0.85,0.96,5.28
29.48,-5.02,-10.32,-4.92,-10.21,6.00,5.31,7.60,0.98,1.08,5.30
29.78,-4.89,-10.19,-4.80,-10.09,6.00,5.29,7.67,1.11,1.20,5.29
30.08,-4.75,-10.06,-4.68,-9.97,6.00,5.27,7.73,1.25,1.32,5.30
30.38,-4.60,-9.89,-4.56,-9.86,6.00,5.24,7.77,1.40,1.44,5.29
30.68,-4.44,-9.73,-4.47,-9.76,6.00,5.22,7.80,1.56,1.53,5.29
30.99,-4.29,-9.58,-4.38,-9.67,6.00,5.20,7.82,1.71,1.62,5.29
31.30,-4.18,-9.47,-4.30,-9.59,6.00,5.17,7.82,1.82,1.70,5.29
31.61,-4.08,-9.37,-4.19,-9.47,6.00,5.15,7.81,1.92,1.81,5.29
31.93,-3.97,-9.26,-4.05,-9.34,6.00,5.12,7.78,2.03,1.95,5.28
32.24,-3.88,-9.15,-3.91,-9.19,6.00,5.10,7.74,2.12,2.09,5.27
32.57,-3.78,-9.06,-3.78,-9.06,6.00,5.07,7.69,2.22,2.22,5.28
32.89,-3.69,-8.97,-3.67,-8.94,6.00,5.05,7.62,2.31,2.33,5.28
33.22,-3.68,-8.95,-3.56,-8.83,6.00,5.02,7.54,2.32,2.44,5.27
33.55,-3.70,-8.97,-3.48,-8.74,6.00,4.99,7.45,2.30,2.52,5.27
33.89,-3.73,-8.99,-3.41,-8.67,6.00,4.96,7.35,2.27,2.59,5.26
34.23,-3.46,-8.73,-3.34,-8.59,6.00,4.94,7.24,2.54,2.66,5.26
34.57,-3.03,-8.28,-3.26,-8.51,6.00,4.91,7.12,2.97,2.74,5.25
34.92,-2.62,-7.87,-3.17,-8.42,6.00,4.88,7.00,3.38,2.83,5.25
35.27,-2.68,-7.93,-3.08,-8.33,6.00,4.85,6.87,3.32,2.92,5.25
35.62,-2.90,-8.15,-2.99,-8.24,6.00,4.82,6.73,3.10,3.01,5.25
35.97,-3.11,-8.36,-2.91,-8.16,6.00,4.78,6.59,2.89,3.09,5.24
36.33,-3.06,-8.31,-2.83,-8.08,6.00,4.75,6.45,2.94,3.17,5.25
36.70,-2.98,-8.22,-2.75,-8.00,6.00,4.72,6.30,3.02,3.25,5.24
37.06,-2.87,-8.11,-2.66,-7.90,6.00,4.68,6.15,3.13,3.34,5.24
37.43,-2.62,-7.87,-2.55,-7.80,6.00,4.65,6.00,3.38,3.45,5.25
37.81,-2.37,-7.62,-2.44,-7.69,6.00,4.61,5.85,3.63,3.56,5.25
38.19,-2.23,-7.48,-2.35,-7.61,6.00,4.58,5.70,3.77,3.65,5.25
38.57,-2.20,-7.46,-2.26,-7.51,6.00,4.54,5.55,3.80,3.74,5.26
38.95,-2.16,-7.42,-2.14,-7.40,6.00,4.51,5.40,3.84,3.86,5.26
39.34,-2.06,-7.32,-2.00,-7.26,6.00,4.47,5.25,3.94,4.00,5.26
39.74,-1.95,-7.21,-1.85,-7.12,6.00,4.43,5.11,4.05,4.15,5.26
40.14,-1.78,-7.05,-1.73,-6.99,6.00,4.39,4.96,4.22,4.27,5.26
40.54,-1.49,-6.76,-1.62,-6.88,6.00,4.35,4.82,4.51,4.38,5.26
40.94,-1.20,-6.46,-1.51,-6.77,6.00,4.31,4.68,4.80,4.49,5.26
41.35,-1.22,-6.48,-1.41,-6.67,6.00,4.27,4.54,4.78,4.59,5.25
41.76,-1.30,-6.55,-1.32,-6.57,6.00,4.22,4.40,4.70,4.68,5.25
42.18,-1.30,-6.56,-1.22,-6.47,6.00,4.18,4.27,4.70,4.78,5.26
42.60,-1.21,-6.45,-1.12,-6.36,5.99,4.13,4.14,4.78,4.87,5.24
43.03,-1.12,-6.36,-1.02,-6.25,5.96,4.09,4.01,4.84,4.94,5.24
43.46,-1.00,-6.24,-0.90,-6.12,5.92,4.04,3.88,4.92,5.02,5.23
43.90,-0.87,-6.08,-0.77,-5.98,5.86,4.00,3.76,4.99,5.10,5.21
44.33,-0.68,-5.87,-0.64,-5.84,5.79,3.95,3.64,5.11,5.15,5.19
44.78,-0.47,-5.65,-0.51,-5.70,5.68,3.90,3.52,5.21,5.17,5.18
45.23,-0.33,-5.51,-0.38,-5.55,5.55,3.85,3.41,5.22,5.18,5.17
45.68,-0.24,-5.40,-0.22,-5.39,5.39,3.80,3.30,5.15,5.17,5.16
46.13,-0.13,-5.27,-0.05,-5.21,5.21,3.74,3.19,5.08,5.16,5.14
46.60,0.05,-5.10,0.12,-5.02,5.02,3.69,3.08,5.07,5.15,5.15
47.06,0.25,-4.88,0.29,-4.84,4.84,3.63,2.98,5.09,5.13,5.13
47.53,0.57,-4.56,0.45,-4.67,4.67,3.58,2.87,5.24,5.12,5.13
48.01,0.88,-4.25,0.60,-4.51,4.51,3.52,2.77,5.38,5.11,5.13
48.49,0.86,-4.25,0.76,-4.35,4.35,3.46,2.68,5.20,5.10,5.11
48.97,0.83,-4.27,0.90,-4.19,4.19,3.40,2.58,5.02,5.09,5.10
49.46,0.99,-4.09,1.04,-4.04,4.04,3.34,2.49,5.03,5.08,5.08
49.96,1.16,-3.90,1.19,-3.89,3.89,3.28,2.40,5.05,5.07,5.06
50.46,1.28,-3.79,1.33,-3.74,3.74,3.22,2.31,5.02,5.07,5.06
50.96,1.40,-3.66,1.45,-3.60,3.60,3.15,2.22,5.00,5.06,5.06
51.47,1.54,-3.50,1.57,-3.48,3.48,3.08,2.13,5.02,5.05,5.04
51.99,1.68,-3.35,1.67,-3.37,3.37,3.02,2.05,5.05,5.04,5.03
52.51,1.81,-3.22,1.77,-3.26,3.26,2.95,1.97,5.07,5.03,5.03
53.03,1.95,-3.08,1.88,-3.14,3.14,2.87,1.89,5.09,5.02,5.03
53.56,2.06,-2.96,2.01,-3.01,3.01,2.80,1.81,5.07,5.02,5.02
54.10,2.17,-2.84,2.14,-2.87,2.87,2.73,1.73,5.04,5.01,5.01
54.64,2.31,-2.69,2.26,-2.74,2.74,2.65,1.66,5.05,5.01,5.00
55.18,2.39,-2.61,2.38,-2.62,2.62,2.57,1.58,5.01,5.00,5.00
55.74,2.35,-2.64,2.50,-2.50,2.50,2.49,1.51,4.85,5.00,4.99
56.29,2.46,-2.53,2.62,-2.37,2.37,2.41,1.44,4.83,4.99,4.99
56.86,2.71,-2.27,2.75,-2.23,2.23,2.32,1.36,4.93,4.98,4.98
57.42,2.94,-2.02,2.89,-2.08,2.08,2.23,1.29,5.02,4.97,4.96
58.00,3.17,-1.79,3.03,-1.93,1.93,2.14,1.23,5.09,4.96,4.95
58.58,3.20,-1.75,3.16,-1.78,1.78,2.05,1.16,4.98,4.94,4.95
59.16,3.25,-1.69,3.29,-1.64,1.64,1.96,1.09,4.89,4.92,4.94
59.76,3.31,-1.62,3.42,-1.48,1.48,1.86,1.02,4.79,4.90,4.92
60.35,3.50,-1.39,3.56,-1.32,1.32,1.76,0.96,4.82,4.88,4.89
60.96,3.77,-1.10,3.70,-1.16,1.16,1.66,0.89,4.92,4.86,4.87
61.57,3.91,-0.92,3.83,-0.99,0.99,1.55,0.83,4.90,4.83,4.83
62.18,4.04,-0.76,3.95,-0.84,0.84,1.44,0.77,4.88,4.80,4.80
62.80,4.17,-0.59,4.05,-0.72,0.72,1.33,0.70,4.88,4.76,4.76
63.43,4.17,-0.55,4.16,-0.57,0.57,1.21,0.64,4.74,4.73,4.72
64.07,4.14,-0.55,4.26,-0.44,0.44,1.09,0.58,4.57,4.70,4.69
64.71,4.28,-0.37,4.36,-0.30,0.30,0.97,0.52,4.58,4.66,4.65
65.35,4.47,-0.15,4.47,-0.15,0.15,0.84,0.45,4.62,4.62,4.62
66.01,4.70,0.12,4.58,0.00,-0.00,0.71,0.39,4.70,4.58,4.58
66.67,4.67,0.13,4.68,0.14,-0.14,0.57,0.33,4.53,4.55,4.54
67.33,4.69,0.19,4.76,0.25,-0.25,0.43,0.27,4.44,4.51,4.50
68.01,4.75,0.27,4.84,0.37,-0.37,0.29,0.21,4.38,4.47,4.47
68.69,4.85,0.42,4.93,0.50,-0.50,0.14,0.15,4.35,4.43,4.43
69.37,5.07,0.68,5.03,0.64,-0.64,-0.02,0.08,4.43,4.39,4.39
70.07,5.35,1.00,5.12,0.77,-0.77,-0.18,0.02,4.57,4.35,4.35
70.77,5.14,0.82,5.22,0.92,-0.92,-0.34,-0.04,4.22,4.31,4.32
71.48,5.30,1.02,5.31,1.05,-1.05,-0.51,-0.10,4.25,4.26,4.27
72.19,5.54,1.32,5.39,1.18,-1.18,-0.69,-0.17,4.36,4.22,4.22
72.91,5.50,1.32,5.48,1.31,-1.31,-0.86,-0.23,4.19,4.18,4.18
73.64,5.40,1.27,5.58,1.44,-1.44,-1.04,-0.29,3.95,4.13,4.13
74.38,5.53,1.44,5.67,1.58,-1.58,-1.23,-0.36,3.94,4.09,4.09
75.12,5.83,1.79,5.76,1.72,-1.72,-1.42,-0.42,4.11,4.05,4.04
75.87,5.92,1.92,5.85,1.85,-1.85,-1.61,-0.49,4.07,4.00,3.99
76.63,5.90,1.94,5.93,1.97,-1.97,-1.80,-0.56,3.93,3.96,3.96
77.40,5.96,2.04,6.00,2.08,-2.08,-1.99,-0.62,3.88,3.92,3.92
78.17,6.10,2.23,6.07,2.18,-2.18,-2.17,-0.69,3.92,3.88,3.87
78.95,6.14,2.29,6.15,2.31,-2.31,-2.36,-0.76,3.83,3.85,3.85
79.74,6.31,2.50,6.21,2.40,-2.40,-2.54,-0.83,3.91,3.81,3.81
80.54,6.37,2.59,6.26,2.48,-2.48,-2.71,-0.90,3.88,3.78,3.78
81.35,6.35,2.61,6.34,2.60,-2.60,-2.87,-0.97,3.75,3.74,3.74
82.16,6.35,2.64,6.42,2.70,-2.70,-3.02,-1.05,3.64,3.71,3.71
82.98,6.50,2.81,6.47,2.79,-2.79,-3.16,-1.12,3.71,3.68,3.69
83.81,6.53,2.88,6.52,2.88,-2.88,-3.28,-1.20,3.65,3.65,3.65
84.65,6.49,2.88,6.58,2.97,-2.97,-3.39,-1.28,3.52,3.62,3.61
85.50,6.52,2.93,6.64,3.05,-3.05,-3.48,-1.35,3.46,3.58,3.59
86.35,6.64,3.08,6.68,3.13,-3.13,-3.55,-1.43,3.51,3.55,3.56
87.22,6.73,3.21,6.73,3.21,-3.21,-3.61,-1.51,3.52,3.52,3.52
88.09,6.73,3.24,6.77,3.29,-3.29,-3.66,-1.60,3.44,3.48,3.49
88.97,6.92,3.47,6.81,3.36,-3.36,-3.69,-1.68,3.56,3.45,3.45
89.86,7.12,3.70,6.86,3.45,-3.45,-3.70,-1.77,3.67,3.42,3.42
90.76,6.90,3.52,6.92,3.54,-3.54,-3.71,-1.85,3.36,3.38,3.38
91.66,6.92,3.57,6.97,3.62,-3.62,-3.70,-1.94,3.30,3.35,3.35
92.58,6.96,3.65,7.00,3.68,-3.68,-3.69,-2.03,3.28,3.32,3.31
93.51,6.92,3.64,7.03,3.75,-3.75,-3.68,-2.12,3.17,3.28,3.28
94.44,6.97,3.72,7.06,3.81,-3.81,-3.66,-2.21,3.16,3.25,3.25
95.39,7.10,3.88,7.08,3.86,-3.86,-3.64,-2.31,3.24,3.22,3.22
96.34,7.11,3.92,7.09,3.90,-3.90,-3.61,-2.40,3.21,3.19,3.18
97.30,7.11,3.95,7.08,3.93,-3.93,-3.59,-2.50,3.18,3.16,3.16
98.28,7.13,4.00,7.07,3.95,-3.95,-3.57,-2.59,3.18,3.13,3.13
99.26,7.19,4.09,7.05,3.96,-3.96,-3.54,-2.69,3.23,3.10,3.10
100.25,7.07,4.00,7.04,3.97,-3.97,-3.52,-2.79,3.10,3.07,3.07
101.25,6.89,3.85,7.02,3.98,-3.98,-3.51,-2.88,2.91,3.04,3.04
102.27,6.99,3.98,6.99,3.98,-3.98,-3.49,-2.98,3.01,3.01,3.01
103.29,7.00,4.03,6.95,3.97,-3.97,-3.48,-3.08,3.02,2.98,2.97
104.32,6.96,4.01,6.91,3.96,-3.96,-3.47,-3.17,3.00,2.95,2.95
105.37,6.85,3.93,6.85,3.93,-3.93,-3.46,-3.27,2.91,2.91,2.92
106.42,6.75,3.86,6.79,3.91,-3.91,-3.45,-3.36,2.84,2.88,2.89
107.48,6.67,3.81,6.73,3.88,-3.88,-3.44,-3.45,2.79,2.85,2.85
108.56,6.63,3.81,6.66,3.85,-3.85,-3.44,-3.54,2.78,2.82,2.81
109.64,6.63,3.84,6.60,3.82,-3.82,-3.44,-3.63,2.81,2.78,2.79
110.74,6.53,3.78,6.54,3.79,-3.79,-3.43,-3.71,2.74,2.75,2.75
111.85,6.46,3.73,6.48,3.77,-3.77,-3.43,-3.79,2.69,2.72,2.73
112.97,6.48,3.80,6.42,3.74,-3.74,-3.43,-3.87,2.74,2.68,2.68
114.10,6.41,3.76,6.35,3.70,-3.70,-3.43,-3.94,2.71,2.65,2.65
115.24,6.23,3.61,6.29,3.67,-3.67,-3.43,-4.00,2.56,2.63,2.62
116.39,6.22,3.63,6.23,3.63,-3.63,-3.43,-4.06,2.58,2.60,2.58
117.55,6.17,3.60,6.18,3.60,-3.60,-3.43,-4.11,2.56,2.57,2.57
118.73,6.05,3.51,6.12,3.57,-3.57,-3.42,-4.15,2.48,2.55,2.54
119.92,6.07,3.54,6.05,3.52,-3.52,-3.42,-4.19,2.55,2.53,2.53
121.12,6.00,3.49,5.98,3.47,-3.47,-3.41,-4.22,2.53,2.51,2.51
122.33,5.92,3.43,5.90,3.41,-3.41,-3.40,-4.24,2.51,2.49,2.49
123.55,5.89,3.41,5.84,3.36,-3.36,-3.39,-4.25,2.53,2.48,2.48
124.79,5.80,3.33,5.76,3.30,-3.30,-3.38,-4.26,2.50,2.46,2.47
126.03,5.69,3.24,5.69,3.24,-3.24,-3.37,-4.25,2.45,2.45,2.45
127.29,5.62,3.17,5.62,3.19,-3.19,-3.35,-4.24,2.43,2.44,2.45
128.57,5.55,3.12,5.55,3.13,-3.13,-3.33,-4.22,2.42,2.42,2.42
129.85,5.47,3.06,5.48,3.06,-3.06,-3.31,-4.19,2.40,2.41,2.41
131.15,5.36,2.96,5.40,3.00,-3.00,-3.29,-4.15,2.35,2.40,2.40
132.46,5.28,2.89,5.33,2.94,-2.94,-3.26,-4.11,2.34,2.39,2.38
133.79,5.23,2.86,5.25,2.88,-2.88,-3.23,-4.06,2.35,2.37,2.37
135.12,5.20,2.85,5.18,2.81,-2.81,-3.20,-4.00,2.38,2.36,2.35
136.48,5.14,2.79,5.11,2.76,-2.76,-3.17,-3.93,2.38,2.35,2.35
137.84,5.05,2.72,5.04,2.70,-2.70,-3.13,-3.86,2.35,2.34,2.33
139.22,4.96,2.65,4.96,2.64,-2.64,-3.09,-3.78,2.32,2.32,2.31
140.61,4.90,2.61,4.88,2.57,-2.57,-3.05,-3.70,2.32,2.31,2.29
142.02,4.78,2.49,4.81,2.52,-2.52,-3.00,-3.62,2.26,2.29,2.29
143.44,4.75,2.47,4.74,2.47,-2.47,-2.96,-3.53,2.28,2.27,2.27
144.87,4.71,2.46,4.66,2.41,-2.41,-2.91,-3.44,2.29,2.24,2.25
146.32,4.56,2.34,4.58,2.37,-2.37,-2.85,-3.34,2.19,2.21,2.22
147.78,4.51,2.30,4.50,2.33,-2.33,-2.80,-3.24,2.18,2.18,2.20
149.26,4.45,2.28,4.42,2.29,-2.29,-2.74,-3.15,2.16,2.14,2.17
150.75,4.34,2.22,4.34,2.25,-2.25,-2.69,-3.05,2.09,2.09,2.11
152.26,4.21,2.15,4.26,2.22,-2.22,-2.63,-2.94,1.99,2.04,2.06
153.78,4.09,2.08,4.18,2.19,-2.19,-2.56,-2.84,1.90,1.99,2.01
155.32,4.13,2.19,4.10,2.17,-2.17,-2.50,-2.74,1.96,1.93,1.94
156.88,4.10,2.22,4.01,2.14,-2.14,-2.43,-2.64,1.96,1.87,1.88
158.44,3.91,2.10,3.93,2.12,-2.12,-2.37,-2.54,1.79,1.81,1.81
160.03,3.83,2.09,3.84,2.09,-2.09,-2.30,-2.44,1.74,1.75,1.74
161.63,3.80,2.12,3.76,2.06,-2.06,-2.23,-2.33,1.74,1.70,1.68
163.24,3.71,2.08,3.67,2.03,-2.03,-2.16,-2.23,1.68,1.65,1.63
164.88,3.56,1.97,3.58,1.98,-1.98,-2.09,-2.13,1.58,1.60,1.59
166.53,3.47,1.92,3.49,1.93,-1.93,-2.02,-2.04,1.54,1.57,1.55
168.19,3.42,1.90,3.40,1.87,-1.87,-1.94,-1.94,1.55,1.54,1.52
169.87,3.37,1.88,3.32,1.80,-1.80,-1.87,-1.84,1.56,1.51,1.49
171.57,3.23,1.75,3.23,1.73,-1.73,-1.79,-1.75,1.50,1.50,1.48
173.29,3.10,1.62,3.14,1.65,-1.65,-1.72,-1.65,1.45,1.49,1.47
175.02,3.07,1.59,3.06,1.58,-1.58,-1.64,-1.56,1.49,1.48,1.48
176.77,2.99,1.52,2.98,1.51,-1.51,-1.57,-1.47,1.48,1.48,1.47
178.54,2.86,1.38,2.90,1.42,-1.42,-1.49,-1.38,1.44,1.48,1.48
180.32,2.78,1.29,2.82,1.34,-1.34,-1.42,-1.29,1.44,1.48,1.49
182.13,2.73,1.22,2.75,1.27,-1.27,-1.34,-1.20,1.46,1.48,1.51
183.95,2.68,1.18,2.69,1.20,-1.20,-1.26,-1.11,1.48,1.49,1.50
185.79,2.64,1.13,2.63,1.14,-1.14,-1.19,-1.03,1.50,1.49,1.51
187.65,2.60,1.10,2.57,1.08,-1.08,-1.11,-0.94,1.52,1.48,1.50
189.52,2.54,1.05,2.50,1.02,-1.02,-1.03,-0.86,1.52,1.48,1.49
191.42,2.48,1.00,2.45,0.98,-0.98,-0.96,-0.78,1.50,1.48,1.48
193.33,2.40,0.93,2.40,0.93,-0.93,-0.88,-0.70,1.46,1.47,1.47
195.27,2.27,0.81,2.34,0.88,-0.88,-0.81,-0.62,1.39,1.46,1.46
197.22,2.24,0.79,2.29,0.84,-0.84,-0.73,-0.54,1.40,1.45,1.44
199.19,2.25,0.82,2.24,0.80,-0.80,-0.66,-0.46,1.44,1.43,1.42
201.18,2.21,0.79,2.18,0.76,-0.76,-0.58,-0.38,1.45,1.42,1.41
203.19,2.16,0.76,2.11,0.71,-0.71,-0.51,-0.31,1.45,1.40,1.40
205.23,2.11,0.73,2.04,0.66,-0.66,-0.44,-0.24,1.45,1.39,1.38
207.28,1.94,0.55,1.98,0.61,-0.61,-0.37,-0.16,1.33,1.37,1.38
209.35,1.89,0.52,1.92,0.56,-0.56,-0.30,-0.09,1.33,1.36,1.36
211.44,1.92,0.58,1.84,0.50,-0.50,-0.22,-0.02,1.42,1.35,1.34
213.56,1.75,0.41,1.77,0.43,-0.43,-0.15,0.05,1.32,1.34,1.34
215.69,1.66,0.33,1.70,0.37,-0.37,-0.09,0.11,1.29,1.33,1.33
217.85,1.73,0.41,1.63,0.31,-0.31,-0.02,0.18,1.42,1.32,1.32
220.03,1.55,0.24,1.55,0.24,-0.24,0.05,0.24,1.31,1.32,1.31
222.23,1.42,0.12,1.48,0.16,-0.16,0.12,0.31,1.25,1.31,1.30
224.45,1.39,0.08,1.41,0.09,-0.09,0.18,0.37,1.29,1.31,1.31
226.70,1.36,0.05,1.34,0.02,-0.02,0.25,0.43,1.33,1.32,1.31
228.96,1.33,0.00,1.29,-0.04,0.04,0.31,0.49,1.37,1.33,1.33
231.25,1.12,-0.22,1.23,-0.10,0.10,0.38,0.54,1.22,1.34,1.34
233.57,1.06,-0.29,1.17,-0.18,0.18,0.44,0.60,1.24,1.35,1.35
235.90,1.16,-0.21,1.12,-0.25,0.25,0.50,0.65,1.41,1.37,1.37
238.26,1.14,-0.24,1.07,-0.32,0.32,0.56,0.70,1.46,1.39,1.38
240.64,1.02,-0.39,1.02,-0.39,0.39,0.62,0.74,1.41,1.41,1.41
243.05,0.97,-0.47,0.95,-0.49,0.49,0.68,0.79,1.45,1.44,1.44
245.48,0.92,-0.55,0.90,-0.56,0.56,0.74,0.83,1.48,1.46,1.46
247.93,0.91,-0.59,0.85,-0.64,0.64,0.80,0.88,1.55,1.49,1.50
250.41,0.81,-0.71,0.78,-0.73,0.73,0.86,0.92,1.54,1.51,1.52
252.92,0.80,-0.75,0.72,-0.82,0.82,0.91,0.95,1.61,1.54,1.55
255.45,0.68,-0.90,0.68,-0.89,0.89,0.97,0.99,1.57,1.57,1.58
258.00,0.57,-1.03,0.64,-0.96,0.96,1.02,1.02,1.53,1.59,1.60
260.58,0.57,-1.05,0.57,-1.05,1.05,1.08,1.05,1.62,1.62,1.62
263.19,0.51,-1.15,0.51,-1.14,1.14,1.13,1.08,1.65,1.65,1.65
265.82,0.34,-1.33,0.46,-1.22,1.22,1.18,1.11,1.56,1.68,1.67
268.48,0.33,-1.37,0.41,-1.29,1.29,1.23,1.14,1.62,1.70,1.70
271.16,0.46,-1.27,0.37,-1.36,1.36,1.28,1.16,1.82,1.73,1.73
273.87,0.38,-1.37,0.33,-1.43,1.43,1.33,1.19,1.81,1.76,1.75
276.61,0.29,-1.50,0.31,-1.47,1.47,1.38,1.21,1.76,1.78,1.79
279.38,0.38,-1.43,0.30,-1.51,1.51,1.42,1.23,1.89,1.81,1.81
282.17,0.34,-1.50,0.28,-1.56,1.56,1.47,1.26,1.90,1.84,1.84
284.99,0.18,-1.70,0.27,-1.60,1.60,1.52,1.28,1.78,1.87,1.88
287.84,0.12,-1.78,0.27,-1.64,1.64,1.56,1.30,1.76,1.90,1.89
290.72,0.26,-1.67,0.26,-1.67,1.67,1.60,1.32,1.93,1.93,1.93
293.63,0.29,-1.67,0.27,-1.70,1.70,1.65,1.34,1.99,1.96,1.96
296.57,0.30,-1.70,0.27,-1.72,1.72,1.69,1.36,2.02,1.99,2.00
299.53,0.31,-1.72,0.27,-1.75,1.75,1.73,1.38,2.06,2.02,2.02
302.53,0.37,-1.67,0.28,-1.77,1.77,1.77,1.40,2.14,2.05,2.04
305.55,0.41,-1.68,0.30,-1.78,1.78,1.81,1.42,2.19,2.08,2.09
308.61,0.20,-1.91,0.32,-1.78,1.78,1.85,1.44,1.98,2.10,2.11
311.69,0.21,-1.93,0.34,-1.79,1.79,1.89,1.46,2.00,2.13,2.14
314.81,0.32,-1.85,0.37,-1.78,1.78,1.92,1.49,2.10,2.15,2.16
317.96,0.44,-1.74,0.40,-1.78,1.78,1.96,1.51,2.22,2.17,2.18
321.14,0.38,-1.81,0.40,-1.79,1.79,1.99,1.53,2.17,2.19,2.19
324.35,0.37,-1.84,0.40,-1.81,1.81,2.03,1.56,2.18,2.21,2.21
327.59,0.44,-1.79,0.40,-1.83,1.83,2.06,1.59,2.27,2.23,2.23
330.87,0.46,-1.78,0.39,-1.85,1.85,2.10,1.62,2.31,2.24,2.23
334.18,0.48,-1.77,0.38,-1.87,1.87,2.13,1.64,2.35,2.25,2.25
337.52,0.46,-1.80,0.37,-1.90,1.90,2.16,1.68,2.36,2.27,2.26
340.90,0.39,-1.89,0.35,-1.92,1.92,2.19,1.71,2.31,2.27,2.28
344.30,0.34,-1.95,0.34,-1.94,1.94,2.22,1.74,2.28,2.28,2.29
347.75,0.27,-2.02,0.30,-1.99,1.99,2.25,1.78,2.25,2.29,2.29
351.23,0.18,-2.12,0.26,-2.04,2.04,2.28,1.81,2.22,2.29,2.30
354.74,0.14,-2.16,0.21,-2.09,2.09,2.31,1.85,2.22,2.30,2.30
358.28,0.16,-2.15,0.18,-2.12,2.12,2.34,1.89,2.28,2.30,2.30
361.87,0.16,-2.14,0.14,-2.16,2.16,2.36,1.93,2.32,2.30,2.30
365.49,0.09,-2.22,0.10,-2.21,2.21,2.39,1.97,2.30,2.31,2.31
369.14,0.07,-2.23,0.06,-2.25,2.25,2.41,2.01,2.32,2.31,2.30
372.83,0.04,-2.26,0.02,-2.29,2.29,2.44,2.06,2.33,2.31,2.30
376.56,-0.00,-2.30,-0.02,-2.32,2.32,2.46,2.10,2.32,2.30,2.30
380.33,-0.07,-2.38,-0.04,-2.34,2.34,2.49,2.15,2.27,2.30,2.31
384.13,-0.10,-2.41,-0.07,-2.37,2.37,2.51,2.20,2.27,2.30,2.31
387.97,-0.10,-2.40,-0.10,-2.39,2.39,2.53,2.25,2.29,2.29,2.30
391.85,-0.09,-2.38,-0.13,-2.42,2.42,2.55,2.30,2.33,2.29,2.29
395.77,-0.10,-2.40,-0.17,-2.45,2.45,2.57,2.35,2.35,2.28,2.29
399.73,-0.21,-2.50,-0.21,-2.49,2.49,2.59,2.41,2.28,2.28,2.28
403.72,-0.29,-2.57,-0.26,-2.53,2.53,2.61,2.46,2.24,2.27,2.28
407.76,-0.30,-2.57,-0.30,-2.57,2.57,2.63,2.51,2.26,2.27,2.27
411.84,-0.30,-2.57,-0.34,-2.60,2.60,2.65,2.57,2.30,2.27,2.27
415.96,-0.30,-2.57,-0.37,-2.64,2.64,2.67,2.62,2.34,2.27,2.27
420.12,-0.35,-2.62,-0.40,-2.67,2.67,2.69,2.68,2.32,2.27,2.27
424.32,-0.45,-2.72,-0.42,-2.70,2.70,2.70,2.73,2.24,2.28,2.27
428.56,-0.48,-2.76,-0.43,-2.72,2.72,2.72,2.79,2.24,2.29,2.28
432.85,-0.49,-2.78,-0.44,-2.75,2.75,2.74,2.84,2.25,2.30,2.29
437.18,-0.53,-2.83,-0.44,-2.77,2.77,2.75,2.89,2.24,2.32,2.30
441.55,-0.51,-2.85,-0.43,-2.78,2.78,2.77,2.94,2.27,2.35,2.34
445.96,-0.47,-2.84,-0.42,-2.80,2.80,2.78,2.99,2.33,2.38,2.37
450.42,-0.41,-2.81,-0.40,-2.82,2.82,2.79,3.04,2.40,2.42,2.40
454.93,-0.36,-2.81,-0.38,-2.84,2.84,2.81,3.08,2.48,2.46,2.45
459.48,-0.30,-2.80,-0.35,-2.86,2.86,2.82,3.12,2.55,2.50,2.50
464.07,-0.23,-2.78,-0.32,-2.87,2.87,2.83,3.16,2.64,2.55,2.55
468.71,-0.21,-2.82,-0.28,-2.88,2.88,2.84,3.20,2.67,2.60,2.61
473.40,-0.21,-2.86,-0.24,-2.89,2.89,2.86,3.23,2.68,2.65,2.64
478.13,-0.22,-2.93,-0.21,-2.90,2.90,2.87,3.26,2.68,2.70,2.70
482.91,-0.21,-2.96,-0.17,-2.91,2.91,2.88,3.28,2.70,2.74,2.74
487.74,-0.18,-2.97,-0.14,-2.92,2.92,2.89,3.31,2.74,2.78,2.78
492.62,-0.14,-2.98,-0.11,-2.93,2.93,2.90,3.32,2.79,2.82,2.83
497.55,-0.11,-2.96,-0.09,-2.94,2.94,2.90,3.34,2.83,2.85,2.85
502.52,-0.09,-2.97,-0.08,-2.95,2.95,2.91,3.35,2.86,2.87,2.88
507.55,-0.07,-2.96,-0.07,-2.96,2.96,2.92,3.35,2.89,2.89,2.89
512.62,-0.05,-2.95,-0.07,-2.97,2.97,2.93,3.35,2.91,2.89,2.90
517.75,-0.04,-2.95,-0.08,-2.97,2.97,2.94,3.35,2.93,2.89,2.91
522.93,-0.05,-2.95,-0.10,-2.97,2.97,2.94,3.34,2.92,2.88,2.90
528.16,-0.06,-2.93,-0.12,-2.98,2.98,2.95,3.33,2.91,2.86,2.87
533.44,-0.07,-2.91,-0.14,-2.97,2.97,2.95,3.32,2.90,2.83,2.84
