frequency,raw,error,smoothed,error_smoothed,equalization,parametric_eq,equalized_raw,equalized_smoothed,target
20,-16.39,-12.41,-16.35,-12.37,6.00,5.15,-10.39,-10.35,-3.98
21,-15.72,-11.74,-15.73,-11.75,6.00,5.49,-9.72,-9.73,-3.98
22,-15.02,-11.04,-15.13,-11.15,6.00,5.79,-9.02,-9.13,-3.98
23,-14.54,-10.56,-14.56,-10.58,6.00,6.04,-8.54,-8.56,-3.98
24,-14.13,-10.15,-14.01,-10.03,6.00,6.24,-8.13,-8.01,-3.98
25,-13.45,-9.47,-13.49,-9.51,6.00,6.37,-7.45,-7.49,-3.98
26,-12.90,-8.93,-12.99,-9.01,6.00,6.44,-6.90,-6.99,-3.98
27,-12.53,-8.56,-12.51,-8.54,6.00,6.44,-6.53,-6.51,-3.98
28,-12.09,-8.12,-12.06,-8.08,6.00,6.39,-6.09,-6.06,-3.98
29,-11.62,-7.65,-11.62,-7.64,6.00,6.28,-5.62,-5.62,-3.97
30,-11.19,-7.21,-11.20,-7.22,6.00,6.12,-5.19,-5.20,-3.97
31,-10.78,-6.81,-10.79,-6.82,6.00,5.93,-4.78,-4.79,-3.97
32,-10.48,-6.51,-10.40,-6.43,5.93,5.71,-4.56,-4.48,-3.97
33,-10.05,-6.07,-10.03,-6.06,5.77,5.47,-4.27,-4.25,-3.97
34,-9.57,-5.60,-9.67,-5.70,5.55,5.21,-4.02,-4.12,-3.97
35,-9.41,-5.44,-9.33,-5.36,5.29,4.95,-4.12,-4.04,-3.97
36,-8.90,-4.92,-9.01,-5.04,5.01,4.68,-3.88,-3.99,-3.97
37,-8.66,-4.69,-8.70,-4.73,4.73,4.41,-3.93,-3.97,-3.97
38,-8.38,-4.41,-8.40,-4.43,4.43,4.15,-3.95,-3.97,-3.97
39,-8.20,-4.23,-8.11,-4.14,4.14,3.89,-4.06,-3.97,-3.97
40,-7.94,-3.98,-7.83,-3.86,3.86,3.63,-4.08,-3.97,-3.97
41,-7.52,-3.55,-7.56,-3.59,3.59,3.38,-3.93,-3.97,-3.97
42,-7.29,-3.32,-7.30,-3.33,3.33,3.14,-3.96,-3.97,-3.97
43,-7.06,-3.09,-7.04,-3.07,3.07,2.90,-3.99,-3.97,-3.97
44,-6.61,-2.64,-6.79,-2.82,2.82,2.67,-3.79,-3.97,-3.97
45,-6.61,-2.64,-6.54,-2.57,2.57,2.45,-4.03,-3.97,-3.97
46,-6.32,-2.35,-6.31,-2.34,2.34,2.24,-3.98,-3.97,-3.97
47,-6.15,-2.18,-6.08,-2.11,2.11,2.03,-4.04,-3.97,-3.97
48,-5.88,-1.91,-5.85,-1.88,1.88,1.83,-4.00,-3.97,-3.97
49,-5.56,-1.59,-5.64,-1.67,1.67,1.63,-3.90,-3.97,-3.97
50,-5.47,-1.50,-5.42,-1.45,1.45,1.44,-4.01,-3.97,-3.97
51,-5.20,-1.22,-5.22,-1.25,1.25,1.26,-3.95,-3.97,-3.97
52,-5.01,-1.04,-5.02,-1.05,1.05,1.09,-3.97,-3.97,-3.97
53,-4.78,-0.81,-4.82,-0.85,0.85,0.91,-3.93,-3.97,-3.97
54,-4.56,-0.59,-4.63,-0.66,0.66,0.75,-3.89,-3.97,-3.97
55,-4.56,-0.59,-4.45,-0.48,0.48,0.59,-4.08,-3.97,-3.97
56,-4.33,-0.36,-4.27,-0.30,0.30,0.43,-4.03,-3.97,-3.97
57,-4.10,-0.13,-4.09,-0.12,0.12,0.28,-3.98,-3.97,-3.97
58,-3.87,0.10,-3.91,0.06,-0.06,0.13,-3.93,-3.97,-3.97
59,-3.64,0.32,-3.74,0.23,-0.23,-0.01,-3.87,-3.97,-3.97
60,-3.64,0.32,-3.57,0.40,-0.40,-0.15,-4.04,-3.97,-3.97
61,-3.42,0.55,-3.40,0.56,-0.56,-0.29,-3.98,-3.97,-3.97
62,-3.19,0.78,-3.24,0.73,-0.73,-0.42,-3.92,-3.97,-3.97
63,-3.19,0.78,-3.08,0.88,-0.88,-0.55,-4.07,-3.97,-3.97
64,-2.86,1.10,-2.93,1.03,-1.03,-0.67,-3.90,-3.96,-3.96
65,-2.73,1.23,-2.78,1.18,-1.18,-0.80,-3.91,-3.96,-3.96
66,-2.73,1.23,-2.65,1.32,-1.32,-0.92,-4.05,-3.96,-3.96
67,-2.51,1.46,-2.52,1.44,-1.44,-1.03,-3.95,-3.96,-3.96
68,-2.41,1.55,-2.40,1.56,-1.56,-1.15,-3.97,-3.96,-3.96
69,-2.28,1.68,-2.30,1.66,-1.66,-1.26,-3.94,-3.96,-3.96
70,-2.28,1.68,-2.22,1.74,-1.74,-1.37,-4.02,-3.96,-3.96
71,-2.05,1.91,-2.15,1.80,-1.80,-1.48,-3.85,-3.96,-3.96
72,-2.05,1.91,-2.11,1.85,-1.85,-1.58,-3.90,-3.96,-3.96
73,-2.05,1.91,-2.08,1.88,-1.88,-1.68,-3.93,-3.96,-3.96
74,-2.05,1.91,-2.05,1.90,-1.90,-1.78,-3.95,-3.96,-3.96
75,-2.05,1.91,-2.03,1.92,-1.92,-1.88,-3.97,-3.95,-3.95
76,-2.05,1.90,-2.01,1.94,-1.94,-1.97,-3.99,-3.95,-3.95
77,-2.05,1.90,-1.98,1.98,-1.98,-2.07,-4.02,-3.95,-3.95
78,-1.99,1.97,-1.93,2.02,-2.02,-2.16,-4.01,-3.95,-3.95
79,-1.82,2.13,-1.86,2.09,-2.09,-2.25,-3.91,-3.95,-3.95
80,-1.82,2.13,-1.78,2.17,-2.17,-2.33,-3.99,-3.95,-3.95
81,-1.68,2.27,-1.69,2.26,-2.26,-2.42,-3.94,-3.95,-3.95
82,-1.59,2.35,-1.58,2.36,-2.36,-2.50,-3.96,-3.95,-3.95
83,-1.49,2.46,-1.47,2.47,-2.47,-2.58,-3.96,-3.95,-3.95
84,-1.37,2.58,-1.36,2.58,-2.58,-2.66,-3.95,-3.95,-3.95
85,-1.14,2.81,-1.25,2.69,-2.69,-2.74,-3.83,-3.94,-3.94
86,-1.14,2.81,-1.15,2.80,-2.80,-2.82,-3.93,-3.94,-3.94
87,-1.14,2.80,-1.05,2.90,-2.90,-2.89,-4.03,-3.94,-3.94
88,-0.91,3.03,-0.95,2.99,-2.99,-2.96,-3.90,-3.94,-3.94
89,-0.91,3.03,-0.86,3.08,-3.08,-3.03,-3.99,-3.94,-3.94
90,-0.73,3.21,-0.78,3.16,-3.16,-3.10,-3.88,-3.94,-3.94
91,-0.68,3.26,-0.70,3.23,-3.23,-3.17,-3.92,-3.94,-3.94
92,-0.68,3.25,-0.63,3.30,-3.30,-3.24,-3.99,-3.94,-3.94
93,-0.55,3.39,-0.57,3.37,-3.37,-3.30,-3.92,-3.93,-3.93
94,-0.45,3.48,-0.50,3.43,-3.43,-3.36,-3.88,-3.93,-3.93
95,-0.45,3.48,-0.45,3.48,-3.48,-3.42,-3.94,-3.93,-3.93
96,-0.45,3.48,-0.39,3.54,-3.54,-3.48,-3.99,-3.93,-3.93
97,-0.35,3.58,-0.34,3.59,-3.59,-3.54,-3.94,-3.93,-3.93
98,-0.23,3.70,-0.29,3.64,-3.64,-3.60,-3.86,-3.93,-3.93
99,-0.23,3.70,-0.23,3.69,-3.69,-3.65,-3.92,-3.93,-3.93
100,-0.23,3.70,-0.18,3.75,-3.75,-3.71,-3.98,-3.93,-3.93
101,-0.20,3.73,-0.12,3.81,-3.81,-3.76,-4.01,-3.93,-3.93
102,0.00,3.93,-0.05,3.87,-3.87,-3.81,-3.87,-3.92,-3.92
104,0.00,3.93,0.01,3.93,-3.93,-3.91,-3.93,-3.92,-3.92
105,0.00,3.93,0.06,3.99,-3.99,-3.95,-3.98,-3.92,-3.92
106,0.16,4.09,0.11,4.03,-4.03,-4.00,-3.87,-3.92,-3.92
107,0.23,4.15,0.16,4.08,-4.08,-4.04,-3.85,-3.92,-3.92
108,0.23,4.15,0.19,4.11,-4.11,-4.08,-3.88,-3.92,-3.92
109,0.23,4.15,0.22,4.14,-4.14,-4.12,-3.91,-3.92,-3.92
110,0.23,4.15,0.25,4.17,-4.17,-4.16,-3.94,-3.92,-3.92
111,0.23,4.15,0.28,4.20,-4.20,-4.20,-3.97,-3.92,-3.92
112,0.23,4.15,0.31,4.23,-4.23,-4.24,-4.00,-3.92,-3.92
113,0.25,4.17,0.33,4.25,-4.25,-4.27,-4.00,-3.92,-3.92
114,0.46,4.38,0.36,4.28,-4.28,-4.31,-3.82,-3.92,-3.92
115,0.46,4.38,0.39,4.31,-4.31,-4.34,-3.85,-3.92,-3.92
117,0.46,4.38,0.42,4.33,-4.33,-4.40,-3.88,-3.92,-3.92
118,0.46,4.37,0.44,4.36,-4.36,-4.43,-3.90,-3.92,-3.92
119,0.46,4.37,0.47,4.38,-4.38,-4.46,-3.93,-3.92,-3.92
120,0.46,4.37,0.50,4.41,-4.41,-4.48,-3.95,-3.91,-3.91
121,0.46,4.37,0.53,4.44,-4.44,-4.51,-3.98,-3.91,-3.91
123,0.46,4.37,0.56,4.47,-4.47,-4.56,-4.01,-3.91,-3.91
124,0.65,4.56,0.59,4.50,-4.50,-4.58,-3.85,-3.91,-3.91
125,0.69,4.59,0.62,4.53,-4.53,-4.60,-3.84,-3.91,-3.91
126,0.69,4.59,0.65,4.56,-4.56,-4.62,-3.87,-3.91,-3.91
128,0.69,4.59,0.67,4.58,-4.58,-4.65,-3.89,-3.90,-3.90
129,0.69,4.59,0.69,4.59,-4.59,-4.67,-3.90,-3.90,-3.90
130,0.69,4.59,0.69,4.59,-4.59,-4.69,-3.91,-3.90,-3.90
131,0.69,4.58,0.70,4.59,-4.59,-4.70,-3.91,-3.90,-3.90
133,0.69,4.58,0.69,4.59,-4.59,-4.73,-3.90,-3.90,-3.90
134,0.69,4.58,0.69,4.58,-4.58,-4.74,-3.89,-3.89,-3.89
135,0.69,4.58,0.68,4.57,-4.57,-4.75,-3.88,-3.89,-3.89
137,0.69,4.57,0.68,4.56,-4.56,-4.77,-3.88,-3.89,-3.89
138,0.69,4.57,0.68,4.56,-4.56,-4.78,-3.87,-3.89,-3.89
140,0.69,4.57,0.68,4.56,-4.56,-4.79,-3.88,-3.88,-3.88
141,0.69,4.57,0.69,4.57,-4.57,-4.80,-3.89,-3.88,-3.88
142,0.69,4.56,0.72,4.59,-4.59,-4.80,-3.91,-3.88,-3.88
144,0.69,4.56,0.75,4.62,-4.62,-4.81,-3.94,-3.87,-3.87
145,0.69,4.56,0.78,4.65,-4.65,-4.81,-3.97,-3.87,-3.87
147,0.91,4.78,0.82,4.69,-4.69,-4.81,-3.78,-3.87,-3.87
148,0.91,4.78,0.86,4.73,-4.73,-4.81,-3.81,-3.87,-3.87
150,0.91,4.78,0.89,4.75,-4.75,-4.81,-3.84,-3.86,-3.86
151,0.91,4.77,0.91,4.78,-4.78,-4.81,-3.86,-3.86,-3.86
153,0.91,4.77,0.93,4.78,-4.78,-4.81,-3.87,-3.86,-3.86
154,0.91,4.77,0.92,4.78,-4.78,-4.80,-3.86,-3.86,-3.86
156,0.91,4.77,0.91,4.76,-4.76,-4.79,-3.85,-3.85,-3.85
157,0.91,4.76,0.88,4.73,-4.73,-4.79,-3.82,-3.85,-3.85
159,0.91,4.76,0.85,4.70,-4.70,-4.78,-3.78,-3.85,-3.85
160,0.85,4.70,0.81,4.66,-4.66,-4.77,-3.80,-3.84,-3.84
162,0.69,4.53,0.78,4.62,-4.62,-4.76,-3.93,-3.84,-3.84
164,0.69,4.52,0.74,4.58,-4.58,-4.74,-3.90,-3.84,-3.84
165,0.69,4.52,0.72,4.56,-4.56,-4.73,-3.87,-3.84,-3.84
167,0.69,4.52,0.70,4.54,-4.54,-4.71,-3.85,-3.83,-3.83
169,0.69,4.51,0.69,4.52,-4.52,-4.69,-3.83,-3.83,-3.83
170,0.69,4.51,0.68,4.50,-4.50,-4.68,-3.82,-3.83,-3.83
172,0.69,4.51,0.66,4.49,-4.49,-4.66,-3.80,-3.82,-3.82
174,0.69,4.50,0.64,4.46,-4.46,-4.64,-3.78,-3.82,-3.82
175,0.69,4.50,0.62,4.43,-4.43,-4.62,-3.75,-3.82,-3.82
177,0.69,4.50,0.59,4.40,-4.40,-4.60,-3.71,-3.81,-3.81
179,0.46,4.27,0.55,4.36,-4.36,-4.57,-3.90,-3.81,-3.81
181,0.46,4.26,0.52,4.32,-4.32,-4.54,-3.87,-3.80,-3.80
183,0.46,4.26,0.49,4.29,-4.29,-4.52,-3.83,-3.80,-3.80
184,0.46,4.25,0.47,4.27,-4.27,-4.50,-3.81,-3.80,-3.80
186,0.46,4.25,0.45,4.25,-4.25,-4.47,-3.79,-3.79,-3.79
188,0.46,4.25,0.45,4.24,-4.24,-4.44,-3.78,-3.79,-3.79
190,0.46,4.24,0.45,4.23,-4.23,-4.41,-3.77,-3.78,-3.78
192,0.46,4.24,0.45,4.23,-4.23,-4.38,-3.77,-3.78,-3.78
194,0.46,4.23,0.45,4.22,-4.22,-4.35,-3.77,-3.77,-3.77
196,0.46,4.23,0.45,4.22,-4.22,-4.32,-3.76,-3.77,-3.77
198,0.46,4.22,0.46,4.22,-4.22,-4.29,-3.76,-3.76,-3.76
200,0.46,4.22,0.46,4.22,-4.22,-4.25,-3.76,-3.76,-3.76
202,0.46,4.21,0.46,4.22,-4.22,-4.22,-3.76,-3.75,-3.75
204,0.46,4.20,0.47,4.21,-4.21,-4.19,-3.75,-3.75,-3.75
206,0.46,4.20,0.47,4.21,-4.21,-4.15,-3.75,-3.74,-3.74
208,0.46,4.19,0.47,4.20,-4.20,-4.12,-3.74,-3.73,-3.73
210,0.46,4.19,0.46,4.19,-4.19,-4.08,-3.73,-3.73,-3.73
212,0.46,4.18,0.45,4.17,-4.17,-4.05,-3.72,-3.72,-3.72
214,0.46,4.17,0.43,4.15,-4.15,-4.02,-3.69,-3.71,-3.71
216,0.46,4.17,0.41,4.12,-4.12,-3.98,-3.66,-3.71,-3.71
218,0.46,4.16,0.38,4.08,-4.08,-3.95,-3.62,-3.70,-3.70
221,0.33,4.02,0.35,4.04,-4.04,-3.90,-3.72,-3.69,-3.69
223,0.23,3.92,0.32,4.00,-4.00,-3.86,-3.77,-3.69,-3.69
225,0.23,3.91,0.29,3.96,-3.96,-3.83,-3.73,-3.68,-3.68
227,0.23,3.90,0.26,3.93,-3.93,-3.79,-3.70,-3.67,-3.67
229,0.23,3.89,0.23,3.89,-3.89,-3.76,-3.66,-3.66,-3.66
232,0.23,3.88,0.20,3.85,-3.85,-3.71,-3.62,-3.65,-3.65
234,0.23,3.88,0.17,3.81,-3.81,-3.68,-3.58,-3.65,-3.65
236,0.23,3.87,0.14,3.77,-3.77,-3.64,-3.54,-3.64,-3.64
239,0.09,3.72,0.10,3.73,-3.73,-3.59,-3.65,-3.63,-3.63
241,0.00,3.62,0.07,3.69,-3.69,-3.56,-3.69,-3.62,-3.62
244,0.00,3.61,0.04,3.66,-3.66,-3.51,-3.65,-3.61,-3.61
246,0.00,3.60,0.02,3.62,-3.62,-3.48,-3.62,-3.60,-3.60
248,0.00,3.60,0.00,3.60,-3.60,-3.45,-3.60,-3.59,-3.59
251,0.00,3.59,-0.01,3.58,-3.58,-3.40,-3.58,-3.58,-3.58
253,0.00,3.58,-0.01,3.57,-3.57,-3.37,-3.56,-3.57,-3.57
256,0.00,3.57,-0.01,3.56,-3.56,-3.32,-3.55,-3.56,-3.56
259,0.00,3.56,-0.00,3.55,-3.55,-3.27,-3.55,-3.55,-3.55
261,0.00,3.55,0.00,3.55,-3.55,-3.24,-3.54,-3.54,-3.54
264,0.00,3.53,0.01,3.54,-3.54,-3.20,-3.54,-3.53,-3.53
266,0.00,3.52,0.01,3.53,-3.53,-3.16,-3.53,-3.52,-3.52
269,0.00,3.51,0.01,3.52,-3.52,-3.12,-3.52,-3.51,-3.51
272,0.00,3.50,0.01,3.51,-3.51,-3.08,-3.51,-3.50,-3.50
274,0.00,3.49,0.00,3.49,-3.49,-3.05,-3.49,-3.49,-3.49
277,0.00,3.48,-0.02,3.46,-3.46,-3.00,-3.46,-3.48,-3.48
280,0.00,3.46,-0.04,3.42,-3.42,-2.96,-3.42,-3.46,-3.46
283,0.00,3.45,-0.07,3.38,-3.38,-2.92,-3.38,-3.45,-3.45
286,-0.08,3.36,-0.11,3.33,-3.33,-2.88,-3.41,-3.44,-3.44
288,-0.23,3.20,-0.14,3.28,-3.28,-2.85,-3.51,-3.42,-3.42
291,-0.23,3.18,-0.17,3.24,-3.24,-2.81,-3.47,-3.41,-3.41
294,-0.23,3.17,-0.19,3.20,-3.20,-2.77,-3.43,-3.40,-3.40
297,-0.23,3.15,-0.21,3.17,-3.17,-2.73,-3.40,-3.38,-3.38
300,-0.23,3.14,-0.22,3.14,-3.14,-2.69,-3.37,-3.37,-3.37
303,-0.23,3.12,-0.23,3.12,-3.12,-2.65,-3.34,-3.35,-3.35
306,-0.23,3.11,-0.25,3.09,-3.09,-2.62,-3.31,-3.33,-3.33
309,-0.23,3.09,-0.27,3.05,-3.05,-2.58,-3.28,-3.32,-3.32
312,-0.23,3.08,-0.29,3.01,-3.01,-2.54,-3.24,-3.30,-3.30
316,-0.23,3.06,-0.32,2.96,-2.96,-2.49,-3.19,-3.28,-3.28
319,-0.45,2.82,-0.36,2.91,-2.91,-2.46,-3.36,-3.27,-3.27
322,-0.45,2.79,-0.39,2.86,-2.86,-2.42,-3.31,-3.25,-3.25
325,-0.45,2.78,-0.42,2.81,-2.81,-2.39,-3.26,-3.23,-3.23
328,-0.45,2.76,-0.44,2.77,-2.77,-2.36,-3.22,-3.21,-3.21
332,-0.45,2.74,-0.45,2.74,-2.74,-2.31,-3.19,-3.19,-3.19
335,-0.45,2.72,-0.46,2.71,-2.71,-2.28,-3.17,-3.17,-3.17
338,-0.45,2.70,-0.46,2.69,-2.69,-2.25,-3.15,-3.15,-3.15
342,-0.45,2.68,-0.45,2.68,-2.68,-2.21,-3.13,-3.13,-3.13
345,-0.45,2.65,-0.45,2.66,-2.66,-2.18,-3.11,-3.11,-3.11
349,-0.45,2.63,-0.45,2.63,-2.63,-2.13,-3.09,-3.09,-3.09
352,-0.45,2.61,-0.46,2.60,-2.60,-2.11,-3.05,-3.06,-3.06
356,-0.45,2.59,-0.48,2.56,-2.56,-2.07,-3.01,-3.04,-3.04
359,-0.45,2.56,-0.51,2.51,-2.51,-2.04,-2.96,-3.02,-3.02
363,-0.45,2.54,-0.54,2.45,-2.45,-2.00,-2.90,-2.99,-2.99
366,-0.65,2.32,-0.58,2.39,-2.39,-1.97,-3.04,-2.97,-2.97
370,-0.68,2.26,-0.61,2.33,-2.33,-1.93,-3.01,-2.94,-2.94
374,-0.68,2.24,-0.64,2.28,-2.28,-1.90,-2.96,-2.92,-2.92
377,-0.68,2.21,-0.66,2.23,-2.23,-1.87,-2.91,-2.89,-2.89
381,-0.68,2.18,-0.67,2.19,-2.19,-1.84,-2.87,-2.87,-2.87
385,-0.68,2.16,-0.68,2.16,-2.16,-1.80,-2.84,-2.84,-2.84
389,-0.68,2.13,-0.68,2.13,-2.13,-1.77,-2.81,-2.81,-2.81
393,-0.68,2.10,-0.69,2.10,-2.10,-1.74,-2.78,-2.78,-2.78
397,-0.68,2.07,-0.70,2.06,-2.06,-1.70,-2.74,-2.75,-2.75
401,-0.68,2.04,-0.71,2.01,-2.01,-1.67,-2.69,-2.73,-2.73
405,-0.68,2.01,-0.74,1.96,-1.96,-1.64,-2.64,-2.70,-2.70
409,-0.68,1.98,-0.77,1.89,-1.89,-1.61,-2.58,-2.67,-2.67
413,-0.87,1.77,-0.81,1.83,-1.83,-1.58,-2.69,-2.63,-2.63
417,-0.91,1.69,-0.84,1.76,-1.76,-1.55,-2.67,-2.60,-2.60
421,-0.91,1.66,-0.87,1.70,-1.70,-1.52,-2.61,-2.57,-2.57
425,-0.91,1.63,-0.90,1.64,-1.64,-1.49,-2.55,-2.54,-2.54
430,-0.91,1.59,-0.91,1.59,-1.59,-1.45,-2.50,-2.50,-2.50
434,-0.91,1.56,-0.92,1.55,-1.55,-1.43,-2.46,-2.47,-2.47
438,-0.91,1.53,-0.92,1.52,-1.52,-1.40,-2.42,-2.44,-2.44
443,-0.91,1.49,-0.92,1.48,-1.48,-1.36,-2.39,-2.40,-2.40
447,-0.91,1.46,-0.91,1.45,-1.45,-1.34,-2.36,-2.37,-2.37
451,-0.91,1.42,-0.91,1.42,-1.42,-1.31,-2.33,-2.33,-2.33
456,-0.91,1.38,-0.90,1.39,-1.39,-1.28,-2.30,-2.29,-2.29
460,-0.91,1.34,-0.90,1.36,-1.36,-1.25,-2.27,-2.25,-2.25
465,-0.91,1.31,-0.90,1.32,-1.32,-1.22,-2.23,-2.22,-2.22
470,-0.91,1.27,-0.91,1.27,-1.27,-1.19,-2.18,-2.18,-2.18
474,-0.91,1.23,-0.93,1.21,-1.21,-1.16,-2.12,-2.14,-2.14
479,-0.91,1.19,-0.95,1.15,-1.15,-1.13,-2.06,-2.10,-2.10
484,-0.91,1.15,-0.98,1.08,-1.08,-1.10,-1.99,-2.06,-2.06
489,-0.98,1.04,-1.02,1.00,-1.00,-1.07,-1.98,-2.02,-2.02
494,-1.14,0.84,-1.05,0.92,-0.92,-1.03,-2.06,-1.98,-1.98
499,-1.14,0.80,-1.08,0.85,-0.85,-1.00,-1.99,-1.94,-1.94
504,-1.14,0.76,-1.11,0.78,-0.78,-0.97,-1.92,-1.89,-1.89
509,-1.14,0.71,-1.13,0.72,-0.72,-0.94,-1.86,-1.85,-1.85
514,-1.14,0.67,-1.14,0.66,-0.66,-0.91,-1.80,-1.81,-1.81
519,-1.14,0.63,-1.15,0.61,-0.61,-0.88,-1.75,-1.77,-1.77
524,-1.14,0.58,-1.16,0.57,-0.57,-0.85,-1.70,-1.72,-1.72
529,-1.14,0.54,-1.16,0.52,-0.52,-0.82,-1.66,-1.68,-1.68
535,-1.14,0.50,-1.15,0.48,-0.48,-0.78,-1.62,-1.64,-1.64
540,-1.14,0.45,-1.15,0.45,-0.45,-0.75,-1.58,-1.59,-1.59
545,-1.14,0.41,-1.13,0.42,-0.42,-0.72,-1.55,-1.55,-1.55
551,-1.14,0.37,-1.11,0.39,-0.39,-0.68,-1.53,-1.51,-1.51
556,-1.14,0.32,-1.09,0.38,-0.38,-0.64,-1.51,-1.46,-1.46
562,-1.14,0.28,-1.05,0.36,-0.36,-0.60,-1.50,-1.42,-1.42
568,-1.00,0.38,-1.02,0.36,-0.36,-0.56,-1.35,-1.38,-1.38
573,-0.91,0.42,-0.98,0.35,-0.35,-0.53,-1.26,-1.33,-1.33
579,-0.91,0.38,-0.95,0.34,-0.34,-0.49,-1.25,-1.29,-1.29
585,-0.91,0.34,-0.93,0.32,-0.32,-0.45,-1.23,-1.25,-1.25
591,-0.91,0.29,-0.91,0.29,-0.29,-0.40,-1.20,-1.20,-1.20
596,-0.91,0.25,-0.90,0.26,-0.26,-0.37,-1.17,-1.16,-1.16
602,-0.91,0.21,-0.90,0.22,-0.22,-0.32,-1.13,-1.12,-1.12
608,-0.91,0.17,-0.90,0.18,-0.18,-0.28,-1.09,-1.08,-1.08
615,-0.91,0.13,-0.90,0.14,-0.14,-0.22,-1.05,-1.04,-1.04
621,-0.91,0.09,-0.91,0.09,-0.09,-0.18,-1.00,-1.00,-1.00
627,-0.91,0.05,-0.91,0.05,-0.05,-0.13,-0.96,-0.96,-0.96
633,-0.91,0.01,-0.91,0.01,-0.01,-0.08,-0.92,-0.92,-0.92
639,-0.91,-0.03,-0.91,-0.03,0.03,-0.03,-0.88,-0.88,-0.88
646,-0.91,-0.06,-0.91,-0.06,0.06,0.03,-0.85,-0.85,-0.85
652,-0.91,-0.10,-0.91,-0.10,0.10,0.07,-0.81,-0.81,-0.81
659,-0.91,-0.14,-0.91,-0.14,0.14,0.13,-0.77,-0.77,-0.77
665,-0.91,-0.17,-0.91,-0.17,0.17,0.18,-0.74,-0.74,-0.74
672,-0.91,-0.20,-0.91,-0.20,0.20,0.23,-0.71,-0.70,-0.70
679,-0.91,-0.24,-0.91,-0.24,0.24,0.29,-0.67,-0.67,-0.67
686,-0.91,-0.27,-0.91,-0.27,0.27,0.34,-0.64,-0.64,-0.64
692,-0.91,-0.30,-0.91,-0.30,0.30,0.38,-0.61,-0.61,-0.61
699,-0.91,-0.33,-0.91,-0.33,0.33,0.42,-0.58,-0.58,-0.58
706,-0.91,-0.36,-0.91,-0.36,0.36,0.46,-0.55,-0.55,-0.55
713,-0.91,-0.39,-0.91,-0.39,0.39,0.49,-0.52,-0.52,-0.52
721,-0.91,-0.41,-0.92,-0.42,0.42,0.52,-0.49,-0.50,-0.50
728,-0.91,-0.44,-0.92,-0.45,0.45,0.54,-0.46,-0.47,-0.47
735,-0.91,-0.46,-0.92,-0.48,0.48,0.56,-0.43,-0.45,-0.45
742,-0.91,-0.49,-0.92,-0.50,0.50,0.57,-0.41,-0.42,-0.42
750,-0.91,-0.51,-0.91,-0.51,0.51,0.57,-0.40,-0.40,-0.40
757,-0.91,-0.53,-0.89,-0.51,0.51,0.57,-0.40,-0.38,-0.38
765,-0.91,-0.55,-0.87,-0.51,0.51,0.56,-0.40,-0.36,-0.36
773,-0.91,-0.57,-0.84,-0.50,0.50,0.55,-0.41,-0.34,-0.34
780,-0.85,-0.53,-0.80,-0.48,0.48,0.53,-0.37,-0.32,-0.32
788,-0.68,-0.38,-0.77,-0.46,0.46,0.51,-0.22,-0.30,-0.30
796,-0.68,-0.39,-0.74,-0.45,0.45,0.48,-0.23,-0.29,-0.29
804,-0.68,-0.41,-0.71,-0.44,0.44,0.46,-0.24,-0.27,-0.27
812,-0.68,-0.42,-0.70,-0.44,0.44,0.43,-0.24,-0.26,-0.26
820,-0.68,-0.44,-0.69,-0.44,0.44,0.40,-0.24,-0.25,-0.25
828,-0.68,-0.45,-0.68,-0.45,0.45,0.37,-0.23,-0.23,-0.23
837,-0.68,-0.46,-0.67,-0.45,0.45,0.34,-0.23,-0.22,-0.22
845,-0.68,-0.47,-0.67,-0.46,0.46,0.31,-0.23,-0.21,-0.21
853,-0.68,-0.48,-0.65,-0.45,0.45,0.29,-0.23,-0.20,-0.20
862,-0.68,-0.49,-0.63,-0.44,0.44,0.26,-0.24,-0.19,-0.19
871,-0.68,-0.50,-0.60,-0.42,0.42,0.23,-0.26,-0.18,-0.18
879,-0.45,-0.29,-0.56,-0.39,0.39,0.21,-0.06,-0.17,-0.17
888,-0.45,-0.30,-0.52,-0.36,0.36,0.19,-0.09,-0.16,-0.16
897,-0.45,-0.31,-0.48,-0.33,0.33,0.17,-0.12,-0.15,-0.15
906,-0.45,-0.32,-0.44,-0.30,0.30,0.15,-0.15,-0.14,-0.14
915,-0.45,-0.33,-0.40,-0.27,0.27,0.13,-0.18,-0.13,-0.13
924,-0.45,-0.34,-0.36,-0.24,0.24,0.11,-0.21,-0.12,-0.12
933,-0.24,-0.13,-0.32,-0.22,0.22,0.10,-0.02,-0.11,-0.11
943,-0.23,-0.13,-0.29,-0.19,0.19,0.08,-0.03,-0.09,-0.09
952,-0.23,-0.14,-0.25,-0.17,0.17,0.07,-0.06,-0.08,-0.08
962,-0.23,-0.16,-0.22,-0.15,0.15,0.06,-0.08,-0.07,-0.07
971,-0.23,-0.17,-0.18,-0.12,0.12,0.05,-0.10,-0.05,-0.05
981,-0.23,-0.19,-0.14,-0.10,0.10,0.04,-0.13,-0.04,-0.04
991,-0.02,0.00,-0.10,-0.07,0.07,0.03,0.05,-0.02,-0.02
1001,0.00,0.01,-0.05,-0.04,0.04,0.02,0.04,-0.00,-0.00
1011,0.00,-0.01,0.01,-0.01,0.01,0.02,0.01,0.01,0.01
1021,0.00,-0.03,0.07,0.03,-0.03,0.01,-0.03,0.04,0.04
1031,0.11,0.05,0.14,0.08,-0.08,0.01,0.03,0.06,0.06
1041,0.23,0.15,0.21,0.13,-0.13,0.01,0.10,0.08,0.08
1052,0.23,0.12,0.29,0.18,-0.18,0.00,0.05,0.11,0.11
1062,0.44,0.30,0.36,0.22,-0.22,0.00,0.21,0.14,0.14
1073,0.46,0.29,0.44,0.27,-0.27,0.00,0.19,0.17,0.17
1084,0.46,0.25,0.51,0.30,-0.30,0.00,0.16,0.21,0.21
1094,0.53,0.29,0.56,0.32,-0.32,0.00,0.21,0.25,0.25
1105,0.69,0.40,0.61,0.32,-0.32,0.01,0.36,0.29,0.29
1116,0.69,0.36,0.64,0.32,-0.32,0.01,0.37,0.33,0.33
1128,0.69,0.31,0.67,0.29,-0.29,0.02,0.40,0.38,0.38
1139,0.69,0.26,0.68,0.25,-0.25,0.02,0.43,0.43,0.43
1150,0.69,0.20,0.69,0.21,-0.21,0.03,0.48,0.48,0.48
1162,0.69,0.15,0.69,0.15,-0.15,0.04,0.53,0.54,0.54
1173,0.69,0.09,0.70,0.10,-0.10,0.05,0.58,0.60,0.60
1185,0.69,0.02,0.72,0.05,-0.05,0.06,0.64,0.67,0.67
1197,0.69,-0.05,0.74,0.00,-0.00,0.07,0.68,0.74,0.74
1209,0.69,-0.12,0.77,-0.04,0.04,0.09,0.73,0.81,0.81
1221,0.91,0.03,0.80,-0.09,0.09,0.11,1.00,0.89,0.89
1233,0.91,-0.05,0.84,-0.13,0.13,0.13,1.04,0.97,0.97
1246,0.91,-0.14,0.89,-0.16,0.16,0.15,1.07,1.05,1.05
1258,0.91,-0.23,0.95,-0.19,0.19,0.18,1.11,1.14,1.14
1271,0.91,-0.32,1.02,-0.22,0.22,0.21,1.13,1.23,1.23
1283,1.08,-0.25,1.09,-0.24,0.24,0.25,1.32,1.33,1.33
1296,1.14,-0.28,1.17,-0.26,0.26,0.29,1.40,1.43,1.43
1309,1.15,-0.37,1.24,-0.29,0.29,0.34,1.44,1.53,1.53
1322,1.37,-0.26,1.30,-0.33,0.33,0.40,1.70,1.63,1.63
1335,1.37,-0.36,1.35,-0.38,0.38,0.47,1.75,1.73,1.73
1349,1.37,-0.46,1.36,-0.47,0.47,0.55,1.84,1.83,1.83
1362,1.52,-0.42,1.35,-0.59,0.59,0.64,2.10,1.94,1.94
1376,1.41,-0.63,1.31,-0.73,0.73,0.74,2.14,2.04,2.04
1390,1.37,-0.77,1.25,-0.89,0.89,0.86,2.26,2.14,2.14
1404,1.14,-1.10,1.18,-1.06,1.06,0.99,2.20,2.24,2.24
1418,1.07,-1.27,1.12,-1.22,1.22,1.12,2.30,2.34,2.34
1432,0.91,-1.52,1.08,-1.36,1.36,1.25,2.27,2.44,2.44
1446,0.91,-1.62,1.07,-1.46,1.46,1.37,2.38,2.53,2.53
1461,1.08,-1.54,1.10,-1.53,1.53,1.47,2.61,2.62,2.62
1475,1.14,-1.57,1.17,-1.54,1.54,1.53,2.68,2.71,2.71
1490,1.37,-1.42,1.28,-1.51,1.51,1.54,2.88,2.79,2.79
1505,1.41,-1.46,1.43,-1.44,1.44,1.50,2.85,2.87,2.87
1520,1.60,-1.35,1.60,-1.35,1.35,1.41,2.95,2.95,2.95
1535,1.70,-1.32,1.78,-1.24,1.24,1.29,2.94,3.02,3.02
1550,1.96,-1.13,1.97,-1.11,1.11,1.15,3.07,3.09,3.09
1566,2.23,-0.92,2.16,-0.98,0.98,0.98,3.21,3.15,3.15
1582,2.50,-0.72,2.35,-0.86,0.86,0.82,3.36,3.21,3.21
1597,2.52,-0.76,2.53,-0.74,0.74,0.68,3.26,3.27,3.27
1613,2.74,-0.59,2.70,-0.63,0.63,0.54,3.37,3.33,3.33
1629,2.81,-0.57,2.86,-0.53,0.53,0.41,3.34,3.38,3.38
1646,2.96,-0.47,3.01,-0.43,0.43,0.29,3.39,3.44,3.44
1662,3.11,-0.38,3.16,-0.33,0.33,0.19,3.44,3.49,3.49
