frequency,raw,error,smoothed,error_smoothed,equalization,parametric_eq,equalized_raw,equalized_smoothed,target
20,-5.45,-5.97,-5.43,-5.95,5.95,5.52,0.50,0.52,0.52
21,-4.99,-5.51,-5.05,-5.57,5.57,5.51,0.58,0.52,0.52
22,-4.75,-5.27,-4.69,-5.21,5.21,5.34,0.46,0.53,0.52
23,-4.31,-4.83,-4.34,-4.87,4.87,5.04,0.56,0.53,0.53
24,-4.08,-4.61,-4.02,-4.55,4.55,4.68,0.47,0.53,0.53
25,-3.66,-4.19,-3.72,-4.25,4.25,4.30,0.59,0.53,0.53
26,-3.40,-3.93,-3.43,-3.96,3.96,3.92,0.57,0.53,0.53
27,-3.17,-3.70,-3.17,-3.70,3.70,3.56,0.53,0.53,0.53
28,-2.94,-3.47,-2.92,-3.45,3.45,3.23,0.51,0.53,0.53
29,-2.71,-3.24,-2.68,-3.22,3.22,2.93,0.51,0.53,0.53
30,-2.48,-3.01,-2.46,-3.00,3.00,2.65,0.52,0.53,0.53
31,-2.26,-2.79,-2.25,-2.79,2.79,2.40,0.53,0.53,0.53
32,-2.03,-2.56,-2.05,-2.58,2.58,2.17,0.55,0.53,0.53
33,-1.82,-2.35,-1.85,-2.38,2.38,1.95,0.56,0.53,0.53
34,-1.57,-2.09,-1.66,-2.18,2.18,1.74,0.62,0.53,0.53
35,-1.57,-2.09,-1.46,-1.98,1.98,1.55,0.42,0.52,0.52
36,-1.34,-1.86,-1.26,-1.78,1.78,1.37,0.44,0.52,0.52
37,-1.12,-1.63,-1.06,-1.57,1.57,1.20,0.46,0.51,0.51
38,-0.84,-1.35,-0.86,-1.36,1.36,1.05,0.53,0.51,0.51
39,-0.66,-1.16,-0.65,-1.16,1.16,0.91,0.50,0.50,0.50
40,-0.43,-0.92,-0.46,-0.95,0.95,0.79,0.53,0.49,0.49
41,-0.21,-0.69,-0.27,-0.76,0.76,0.67,0.55,0.48,0.48
42,-0.03,-0.50,-0.09,-0.57,0.57,0.56,0.54,0.47,0.47
43,0.02,-0.44,0.07,-0.39,0.39,0.45,0.41,0.46,0.46
44,0.25,-0.20,0.22,-0.23,0.23,0.35,0.48,0.45,0.45
45,0.25,-0.18,0.37,-0.07,0.07,0.26,0.32,0.44,0.44
46,0.48,0.06,0.50,0.08,-0.08,0.17,0.40,0.42,0.42
47,0.71,0.31,0.62,0.22,-0.22,0.08,0.49,0.40,0.40
48,0.71,0.33,0.74,0.35,-0.35,-0.00,0.36,0.39,0.39
49,0.84,0.48,0.84,0.48,-0.48,-0.08,0.37,0.37,0.37
50,0.93,0.59,0.94,0.59,-0.59,-0.16,0.34,0.35,0.35
51,0.98,0.66,1.02,0.69,-0.69,-0.24,0.29,0.33,0.33
52,1.16,0.86,1.09,0.79,-0.79,-0.31,0.37,0.30,0.30
53,1.16,0.88,1.15,0.87,-0.87,-0.38,0.29,0.28,0.28
54,1.16,0.91,1.20,0.94,-0.94,-0.46,0.22,0.26,0.26
55,1.16,0.93,1.23,1.00,-1.00,-0.53,0.16,0.23,0.23
56,1.16,0.96,1.25,1.04,-1.04,-0.60,0.12,0.21,0.21
57,1.39,1.21,1.25,1.07,-1.07,-0.67,0.33,0.18,0.18
58,1.16,1.01,1.22,1.06,-1.06,-0.74,0.10,0.15,0.15
59,1.16,1.04,1.15,1.03,-1.03,-0.81,0.13,0.12,0.12
60,1.16,1.07,1.06,0.96,-0.96,-0.88,0.20,0.10,0.10
61,0.93,0.86,0.93,0.86,-0.86,-0.95,0.08,0.07,0.07
62,0.93,0.89,0.76,0.72,-0.72,-1.02,0.21,0.04,0.04
63,0.71,0.70,0.59,0.57,-0.57,-1.09,0.14,0.01,0.01
64,0.38,0.40,0.41,0.42,-0.42,-1.16,-0.04,-0.02,-0.02
65,0.20,0.25,0.25,0.30,-0.30,-1.23,-0.09,-0.05,-0.05
66,0.02,0.10,0.13,0.21,-0.21,-1.30,-0.19,-0.08,-0.08
67,0.02,0.13,0.08,0.18,-0.18,-1.38,-0.16,-0.11,-0.11
68,-0.11,0.03,0.10,0.23,-0.23,-1.45,-0.34,-0.14,-0.14
69,0.05,0.22,0.19,0.36,-0.36,-1.52,-0.31,-0.17,-0.17
70,0.25,0.45,0.36,0.56,-0.56,-1.60,-0.31,-0.20,-0.20
71,0.57,0.80,0.59,0.82,-0.82,-1.67,-0.25,-0.23,-0.23
72,0.94,1.20,0.87,1.12,-1.12,-1.74,-0.18,-0.26,-0.26
73,1.30,1.59,1.17,1.45,-1.45,-1.82,-0.15,-0.28,-0.29
74,1.62,1.94,1.47,1.79,-1.79,-1.90,-0.16,-0.31,-0.31
75,1.79,2.14,1.77,2.11,-2.11,-1.97,-0.32,-0.34,-0.34
76,1.91,2.29,2.05,2.42,-2.42,-2.05,-0.51,-0.37,-0.37
77,2.25,2.66,2.30,2.70,-2.70,-2.13,-0.45,-0.40,-0.40
78,2.59,3.02,2.51,2.94,-2.94,-2.21,-0.35,-0.43,-0.43
79,2.76,3.22,2.70,3.16,-3.16,-2.29,-0.39,-0.46,-0.46
80,2.99,3.48,2.85,3.34,-3.34,-2.37,-0.35,-0.49,-0.49
81,2.99,3.51,2.97,3.49,-3.49,-2.45,-0.50,-0.52,-0.52
82,2.99,3.54,3.08,3.62,-3.62,-2.54,-0.63,-0.55,-0.55
83,3.09,3.67,3.16,3.73,-3.73,-2.62,-0.64,-0.58,-0.58
84,3.21,3.82,3.23,3.83,-3.83,-2.71,-0.62,-0.60,-0.60
85,3.21,3.85,3.29,3.92,-3.92,-2.79,-0.71,-0.63,-0.63
86,3.34,4.00,3.33,4.00,-4.00,-2.88,-0.65,-0.66,-0.66
87,3.44,4.13,3.38,4.06,-4.06,-2.96,-0.62,-0.69,-0.69
88,3.44,4.16,3.41,4.12,-4.12,-3.05,-0.68,-0.71,-0.71
89,3.44,4.18,3.44,4.18,-4.18,-3.14,-0.73,-0.74,-0.74
90,3.44,4.21,3.45,4.22,-4.22,-3.23,-0.78,-0.77,-0.77
91,3.44,4.23,3.46,4.26,-4.26,-3.32,-0.81,-0.79,-0.79
92,3.44,4.26,3.47,4.28,-4.28,-3.41,-0.84,-0.82,-0.82
93,3.44,4.28,3.46,4.30,-4.30,-3.50,-0.86,-0.84,-0.84
94,3.44,4.31,3.45,4.31,-4.31,-3.59,-0.87,-0.86,-0.86
95,3.44,4.33,3.43,4.31,-4.31,-3.68,-0.87,-0.88,-0.89
96,3.44,4.35,3.40,4.30,-4.30,-3.77,-0.86,-0.91,-0.91
97,3.44,4.37,3.36,4.29,-4.29,-3.86,-0.85,-0.93,-0.93
98,3.44,4.39,3.33,4.28,-4.28,-3.95,-0.84,-0.95,-0.95
99,3.26,4.23,3.31,4.28,-4.28,-4.04,-1.02,-0.97,-0.97
100,3.21,4.20,3.31,4.30,-4.30,-4.14,-1.09,-0.99,-0.99
101,3.21,4.22,3.33,4.34,-4.34,-4.23,-1.13,-1.01,-1.00
102,3.21,4.23,3.37,4.40,-4.40,-4.32,-1.19,-1.04,-1.02
104,3.44,4.52,3.43,4.49,-4.49,-4.50,-1.04,-1.06,-1.07
105,3.58,4.67,3.51,4.59,-4.59,-4.59,-1.01,-1.08,-1.09
106,3.67,4.78,3.60,4.70,-4.70,-4.68,-1.03,-1.10,-1.11
107,3.67,4.80,3.70,4.82,-4.82,-4.77,-1.14,-1.12,-1.12
108,3.87,5.01,3.79,4.93,-4.93,-4.85,-1.05,-1.14,-1.14
109,3.90,5.06,3.87,5.03,-5.03,-4.94,-1.13,-1.15,-1.15
110,3.90,5.07,3.95,5.12,-5.12,-5.03,-1.21,-1.17,-1.17
111,3.90,5.09,4.01,5.19,-5.19,-5.11,-1.29,-1.19,-1.19
112,4.13,5.34,4.05,5.26,-5.26,-5.19,-1.13,-1.21,-1.20
113,4.13,5.35,4.09,5.32,-5.32,-5.27,-1.18,-1.22,-1.22
114,4.13,5.37,4.12,5.36,-5.36,-5.35,-1.23,-1.24,-1.24
115,4.13,5.39,4.13,5.40,-5.40,-5.43,-1.27,-1.27,-1.26
117,4.13,5.44,4.14,5.43,-5.43,-5.58,-1.30,-1.29,-1.30
118,4.13,5.46,4.14,5.46,-5.46,-5.65,-1.33,-1.31,-1.32
119,4.13,5.47,4.14,5.48,-5.48,-5.72,-1.35,-1.34,-1.34
120,4.13,5.49,4.14,5.51,-5.51,-5.78,-1.37,-1.37,-1.36
121,4.13,5.51,4.14,5.53,-5.53,-5.85,-1.40,-1.39,-1.38
123,4.13,5.56,4.13,5.55,-5.55,-5.96,-1.42,-1.42,-1.43
124,4.13,5.58,4.13,5.57,-5.57,-6.02,-1.44,-1.44,-1.45
125,4.13,5.60,4.13,5.60,-5.60,-6.07,-1.47,-1.47,-1.47
126,4.13,5.62,4.13,5.62,-5.62,-6.12,-1.49,-1.49,-1.48
128,4.13,5.66,4.13,5.65,-5.65,-6.20,-1.52,-1.52,-1.53
129,4.13,5.68,4.13,5.68,-5.68,-6.24,-1.54,-1.54,-1.55
130,4.13,5.70,4.14,5.71,-5.71,-6.28,-1.57,-1.57,-1.57
131,4.13,5.72,4.14,5.73,-5.73,-6.31,-1.60,-1.59,-1.58
133,4.13,5.76,4.14,5.76,-5.76,-6.36,-1.63,-1.62,-1.62
134,4.13,5.77,4.14,5.78,-5.78,-6.38,-1.65,-1.64,-1.64
135,4.13,5.79,4.14,5.80,-5.80,-6.40,-1.67,-1.66,-1.66
137,4.13,5.83,4.13,5.82,-5.82,-6.43,-1.68,-1.69,-1.69
138,4.13,5.84,4.11,5.82,-5.82,-6.43,-1.69,-1.71,-1.71
140,4.13,5.87,4.08,5.82,-5.82,-6.44,-1.68,-1.73,-1.74
141,4.13,5.89,4.05,5.81,-5.81,-6.44,-1.67,-1.75,-1.75
142,4.02,5.79,4.02,5.79,-5.79,-6.43,-1.77,-1.77,-1.77
144,3.90,5.70,3.98,5.78,-5.78,-6.42,-1.88,-1.79,-1.80
145,3.90,5.71,3.96,5.77,-5.77,-6.40,-1.87,-1.81,-1.81
147,3.90,5.74,3.93,5.77,-5.77,-6.37,-1.86,-1.83,-1.84
148,3.90,5.75,3.92,5.77,-5.77,-6.35,-1.87,-1.85,-1.85
150,3.90,5.77,3.91,5.78,-5.78,-6.31,-1.88,-1.87,-1.87
151,3.90,5.78,3.90,5.79,-5.79,-6.28,-1.88,-1.88,-1.88
153,3.90,5.81,3.89,5.79,-5.79,-6.22,-1.89,-1.90,-1.90
154,3.90,5.81,3.88,5.79,-5.79,-6.19,-1.89,-1.91,-1.91
156,3.90,5.84,3.85,5.78,-5.78,-6.13,-1.87,-1.93,-1.93
157,3.88,5.82,3.80,5.74,-5.74,-6.09,-1.86,-1.94,-1.94
159,3.67,5.63,3.74,5.70,-5.70,-6.02,-2.03,-1.96,-1.96
160,3.67,5.64,3.67,5.64,-5.64,-5.98,-1.97,-1.97,-1.97
162,3.67,5.66,3.59,5.57,-5.57,-5.91,-1.90,-1.98,-1.98
164,3.44,5.44,3.51,5.51,-5.51,-5.83,-2.06,-2.00,-2.00
165,3.44,5.45,3.43,5.44,-5.44,-5.79,-2.00,-2.01,-2.00
167,3.39,5.41,3.36,5.38,-5.38,-5.71,-1.99,-2.02,-2.02
169,3.21,5.25,3.30,5.33,-5.33,-5.64,-2.12,-2.03,-2.03
170,3.21,5.25,3.26,5.30,-5.30,-5.60,-2.09,-2.04,-2.04
172,3.21,5.26,3.23,5.28,-5.28,-5.52,-2.07,-2.05,-2.05
174,3.21,5.27,3.22,5.27,-5.27,-5.45,-2.06,-2.06,-2.06
175,3.21,5.28,3.21,5.28,-5.28,-5.42,-2.06,-2.07,-2.06
177,3.21,5.29,3.21,5.28,-5.28,-5.35,-2.07,-2.07,-2.07
179,3.21,5.30,3.20,5.29,-5.29,-5.28,-2.07,-2.08,-2.08
181,3.21,5.30,3.20,5.28,-5.28,-5.22,-2.07,-2.09,-2.09
183,3.21,5.31,3.18,5.27,-5.27,-5.17,-2.06,-2.09,-2.10
184,3.21,5.31,3.15,5.25,-5.25,-5.14,-2.04,-2.10,-2.10
186,3.21,5.32,3.12,5.23,-5.23,-5.10,-2.02,-2.10,-2.10
188,3.01,5.12,3.09,5.20,-5.20,-5.06,-2.19,-2.11,-2.11
190,2.99,5.11,3.06,5.17,-5.17,-5.02,-2.18,-2.11,-2.11
192,2.99,5.11,3.03,5.14,-5.14,-4.99,-2.15,-2.12,-2.12
194,2.99,5.11,3.00,5.12,-5.12,-4.97,-2.13,-2.12,-2.12
196,2.99,5.12,2.99,5.11,-5.11,-4.96,-2.12,-2.12,-2.12
198,2.99,5.12,2.98,5.11,-5.11,-4.95,-2.11,-2.12,-2.12
200,2.99,5.12,2.98,5.11,-5.11,-4.95,-2.12,-2.13,-2.13
202,2.99,5.12,2.99,5.11,-5.11,-4.95,-2.12,-2.13,-2.13
204,2.99,5.12,2.99,5.12,-5.12,-4.96,-2.13,-2.13,-2.13
206,2.99,5.12,3.00,5.13,-5.13,-4.97,-2.14,-2.13,-2.13
208,2.99,5.12,3.01,5.14,-5.14,-4.98,-2.15,-2.13,-2.13
210,2.99,5.12,3.02,5.14,-5.14,-4.99,-2.15,-2.13,-2.13
212,2.99,5.12,3.01,5.14,-5.14,-4.99,-2.15,-2.13,-2.13
214,2.99,5.12,3.00,5.12,-5.12,-4.99,-2.13,-2.13,-2.13
216,2.99,5.12,2.97,5.09,-5.09,-4.99,-2.10,-2.13,-2.12
218,2.99,5.12,2.92,5.04,-5.04,-4.97,-2.05,-2.12,-2.12
221,2.85,4.98,2.84,4.97,-4.97,-4.91,-2.12,-2.12,-2.12
223,2.76,4.89,2.75,4.87,-4.87,-4.86,-2.11,-2.12,-2.12
225,2.61,4.73,2.64,4.76,-4.76,-4.78,-2.14,-2.12,-2.12
227,2.53,4.65,2.50,4.62,-4.62,-4.70,-2.09,-2.12,-2.12
229,2.37,4.49,2.35,4.46,-4.46,-4.59,-2.09,-2.12,-2.12
232,2.07,4.19,2.18,4.29,-4.29,-4.42,-2.22,-2.12,-2.12
234,2.03,4.15,2.00,4.11,-4.11,-4.29,-2.08,-2.11,-2.11
236,1.85,3.96,1.81,3.92,-3.92,-4.15,-2.07,-2.11,-2.11
239,1.70,3.81,1.62,3.73,-3.73,-3.94,-2.03,-2.11,-2.11
241,1.48,3.59,1.43,3.54,-3.54,-3.80,-2.06,-2.11,-2.11
244,1.16,3.27,1.26,3.36,-3.36,-3.58,-2.20,-2.10,-2.10
246,0.94,3.04,1.09,3.19,-3.19,-3.44,-2.25,-2.10,-2.10
248,0.93,3.03,0.94,3.04,-3.04,-3.30,-2.11,-2.10,-2.10
251,0.71,2.81,0.81,2.90,-2.90,-3.10,-2.19,-2.09,-2.09
253,0.71,2.80,0.68,2.77,-2.77,-2.98,-2.05,-2.09,-2.09
256,0.71,2.80,0.55,2.64,-2.64,-2.79,-1.93,-2.09,-2.09
259,0.50,2.59,0.43,2.51,-2.51,-2.62,-2.01,-2.08,-2.08
261,0.30,2.38,0.31,2.38,-2.38,-2.51,-2.08,-2.08,-2.08
264,0.22,2.29,0.19,2.26,-2.26,-2.35,-2.04,-2.07,-2.07
266,0.03,2.10,0.08,2.14,-2.14,-2.25,-2.11,-2.07,-2.07
269,-0.04,2.02,-0.02,2.04,-2.04,-2.11,-2.08,-2.06,-2.06
272,-0.21,1.85,-0.10,1.95,-1.95,-1.98,-2.16,-2.05,-2.05
274,-0.21,1.84,-0.16,1.88,-1.88,-1.89,-2.09,-2.05,-2.04
277,-0.21,1.83,-0.20,1.83,-1.83,-1.77,-2.04,-2.04,-2.04
280,-0.21,1.82,-0.22,1.80,-1.80,-1.65,-2.01,-2.03,-2.03
283,-0.21,1.81,-0.23,1.79,-1.79,-1.54,-1.99,-2.02,-2.02
286,-0.21,1.80,-0.22,1.78,-1.78,-1.44,-1.99,-2.01,-2.01
288,-0.21,1.79,-0.21,1.78,-1.78,-1.37,-1.99,-1.99,-1.99
291,-0.21,1.78,-0.20,1.78,-1.78,-1.27,-1.99,-1.98,-1.98
294,-0.21,1.76,-0.19,1.78,-1.78,-1.18,-1.98,-1.97,-1.97
297,-0.21,1.75,-0.19,1.76,-1.76,-1.09,-1.97,-1.95,-1.95
300,-0.21,1.73,-0.20,1.74,-1.74,-1.00,-1.95,-1.94,-1.94
303,-0.21,1.72,-0.22,1.70,-1.70,-0.92,-1.91,-1.92,-1.92
306,-0.21,1.70,-0.26,1.64,-1.64,-0.84,-1.85,-1.91,-1.91
309,-0.27,1.62,-0.32,1.57,-1.57,-0.76,-1.83,-1.89,-1.89
312,-0.43,1.44,-0.40,1.47,-1.47,-0.68,-1.90,-1.87,-1.87
316,-0.43,1.42,-0.49,1.36,-1.36,-0.58,-1.79,-1.85,-1.85
319,-0.66,1.17,-0.60,1.24,-1.24,-0.51,-1.89,-1.83,-1.83
322,-0.67,1.14,-0.71,1.10,-1.10,-0.44,-1.77,-1.81,-1.81
325,-0.89,0.90,-0.83,0.96,-0.96,-0.37,-1.85,-1.79,-1.79
328,-0.93,0.84,-0.95,0.82,-0.82,-0.30,-1.75,-1.77,-1.77
332,-1.12,0.63,-1.08,0.68,-0.68,-0.22,-1.79,-1.75,-1.75
335,-1.26,0.47,-1.20,0.53,-0.53,-0.15,-1.79,-1.73,-1.73
338,-1.34,0.37,-1.32,0.39,-0.39,-0.09,-1.73,-1.71,-1.71
342,-1.35,0.34,-1.44,0.25,-0.25,-0.01,-1.59,-1.69,-1.69
345,-1.57,0.10,-1.57,0.10,-0.10,0.05,-1.67,-1.67,-1.67
349,-1.65,0.00,-1.69,-0.04,0.04,0.13,-1.60,-1.65,-1.65
352,-1.80,-0.17,-1.82,-0.19,0.19,0.19,-1.61,-1.63,-1.63
356,-1.95,-0.33,-1.94,-0.33,0.33,0.26,-1.62,-1.61,-1.61
359,-2.17,-0.57,-2.06,-0.47,0.47,0.32,-1.70,-1.59,-1.59
363,-2.26,-0.68,-2.17,-0.60,0.60,0.39,-1.66,-1.58,-1.58
366,-2.26,-0.70,-2.28,-0.72,0.72,0.44,-1.54,-1.56,-1.56
370,-2.28,-0.73,-2.38,-0.84,0.84,0.51,-1.44,-1.54,-1.54
374,-2.48,-0.95,-2.48,-0.95,0.95,0.58,-1.52,-1.53,-1.53
377,-2.55,-1.03,-2.58,-1.06,1.06,0.63,-1.49,-1.51,-1.51
381,-2.71,-1.21,-2.66,-1.16,1.16,0.70,-1.54,-1.50,-1.50
385,-2.71,-1.22,-2.75,-1.26,1.26,0.76,-1.45,-1.49,-1.49
389,-2.92,-1.44,-2.83,-1.35,1.35,0.82,-1.56,-1.48,-1.48
393,-2.94,-1.47,-2.90,-1.44,1.44,0.88,-1.50,-1.46,-1.46
397,-2.94,-1.48,-2.97,-1.52,1.52,0.94,-1.42,-1.45,-1.45
401,-2.94,-1.50,-3.03,-1.58,1.58,1.00,-1.35,-1.44,-1.44
405,-3.06,-1.63,-3.08,-1.65,1.65,1.06,-1.41,-1.43,-1.43
409,-3.17,-1.74,-3.12,-1.70,1.70,1.11,-1.47,-1.42,-1.42
413,-3.17,-1.75,-3.15,-1.73,1.73,1.16,-1.43,-1.41,-1.41
417,-3.17,-1.76,-3.16,-1.76,1.76,1.21,-1.41,-1.40,-1.40
421,-3.17,-1.77,-3.16,-1.77,1.77,1.26,-1.40,-1.40,-1.40
425,-3.17,-1.78,-3.15,-1.76,1.76,1.31,-1.40,-1.39,-1.39
430,-3.17,-1.79,-3.13,-1.75,1.75,1.36,-1.42,-1.38,-1.38
434,-3.17,-1.80,-3.09,-1.72,1.72,1.41,-1.45,-1.37,-1.37
438,-3.03,-1.67,-3.05,-1.69,1.69,1.45,-1.34,-1.36,-1.36
443,-2.94,-1.58,-3.02,-1.66,1.66,1.49,-1.27,-1.35,-1.35
447,-2.94,-1.59,-2.98,-1.64,1.64,1.53,-1.30,-1.34,-1.34
451,-2.94,-1.60,-2.96,-1.63,1.63,1.56,-1.31,-1.33,-1.33
456,-2.94,-1.61,-2.95,-1.62,1.62,1.60,-1.32,-1.32,-1.32
460,-2.94,-1.62,-2.94,-1.62,1.62,1.63,-1.31,-1.31,-1.31
465,-2.94,-1.63,-2.94,-1.63,1.63,1.66,-1.30,-1.30,-1.30
470,-2.94,-1.65,-2.93,-1.64,1.64,1.69,-1.30,-1.29,-1.29
474,-2.94,-1.66,-2.93,-1.65,1.65,1.71,-1.29,-1.28,-1.28
479,-2.94,-1.67,-2.91,-1.65,1.65,1.74,-1.29,-1.27,-1.27
484,-2.94,-1.68,-2.89,-1.64,1.64,1.76,-1.30,-1.25,-1.25
489,-2.94,-1.70,-2.86,-1.63,1.63,1.77,-1.31,-1.24,-1.24
494,-2.83,-1.60,-2.83,-1.61,1.61,1.79,-1.22,-1.22,-1.22
499,-2.71,-1.50,-2.80,-1.59,1.59,1.80,-1.12,-1.21,-1.21
504,-2.71,-1.52,-2.77,-1.58,1.58,1.81,-1.13,-1.19,-1.19
509,-2.71,-1.53,-2.73,-1.56,1.56,1.81,-1.15,-1.17,-1.17
514,-2.71,-1.55,-2.70,-1.55,1.55,1.81,-1.16,-1.15,-1.15
519,-2.71,-1.57,-2.67,-1.54,1.54,1.81,-1.17,-1.13,-1.13
524,-2.71,-1.59,-2.65,-1.53,1.53,1.81,-1.18,-1.11,-1.11
529,-2.71,-1.61,-2.62,-1.52,1.52,1.81,-1.18,-1.09,-1.09
535,-2.55,-1.48,-2.59,-1.51,1.51,1.80,-1.03,-1.07,-1.07
540,-2.48,-1.43,-2.56,-1.51,1.51,1.79,-0.97,-1.05,-1.05
545,-2.48,-1.45,-2.53,-1.50,1.50,1.78,-0.97,-1.02,-1.02
551,-2.48,-1.48,-2.50,-1.50,1.50,1.76,-0.98,-1.00,-1.00
556,-2.48,-1.50,-2.47,-1.50,1.50,1.74,-0.98,-0.98,-0.98
562,-2.48,-1.53,-2.45,-1.49,1.49,1.72,-0.98,-0.95,-0.95
568,-2.48,-1.55,-2.42,-1.49,1.49,1.70,-0.99,-0.93,-0.93
573,-2.48,-1.57,-2.39,-1.49,1.49,1.68,-0.99,-0.90,-0.90
579,-2.29,-1.41,-2.36,-1.48,1.48,1.66,-0.81,-0.88,-0.88
585,-2.26,-1.40,-2.32,-1.47,1.47,1.63,-0.79,-0.85,-0.85
591,-2.26,-1.43,-2.28,-1.46,1.46,1.60,-0.80,-0.83,-0.83
596,-2.26,-1.45,-2.25,-1.44,1.44,1.58,-0.82,-0.80,-0.80
602,-2.26,-1.48,-2.21,-1.43,1.43,1.55,-0.83,-0.78,-0.78
608,-2.26,-1.50,-2.17,-1.41,1.41,1.52,-0.85,-0.76,-0.76
615,-2.07,-1.33,-2.13,-1.39,1.39,1.48,-0.67,-0.74,-0.74
621,-2.03,-1.31,-2.09,-1.38,1.38,1.45,-0.65,-0.71,-0.71
627,-2.03,-1.34,-2.06,-1.36,1.36,1.42,-0.66,-0.69,-0.69
633,-2.03,-1.36,-2.02,-1.35,1.35,1.39,-0.68,-0.67,-0.67
639,-2.03,-1.38,-1.98,-1.33,1.33,1.36,-0.69,-0.65,-0.65
646,-2.03,-1.40,-1.95,-1.32,1.32,1.32,-0.71,-0.63,-0.63
652,-1.90,-1.29,-1.91,-1.30,1.30,1.29,-0.60,-0.61,-0.61
659,-1.80,-1.21,-1.88,-1.29,1.29,1.25,-0.51,-0.59,-0.59
665,-1.80,-1.23,-1.84,-1.27,1.27,1.22,-0.53,-0.57,-0.57
672,-1.80,-1.25,-1.80,-1.25,1.25,1.19,-0.55,-0.55,-0.55
679,-1.80,-1.27,-1.76,-1.23,1.23,1.15,-0.57,-0.53,-0.53
686,-1.80,-1.28,-1.72,-1.21,1.21,1.12,-0.59,-0.51,-0.51
692,-1.70,-1.20,-1.68,-1.18,1.18,1.09,-0.51,-0.49,-0.49
699,-1.57,-1.09,-1.63,-1.15,1.15,1.05,-0.41,-0.47,-0.47
706,-1.57,-1.11,-1.58,-1.12,1.12,1.02,-0.44,-0.45,-0.45
713,-1.57,-1.13,-1.53,-1.09,1.09,0.98,-0.47,-0.43,-0.43
721,-1.53,-1.11,-1.48,-1.06,1.06,0.94,-0.46,-0.41,-0.41
728,-1.34,-0.94,-1.43,-1.04,1.04,0.91,-0.30,-0.39,-0.39
735,-1.34,-0.96,-1.39,-1.02,1.02,0.88,-0.32,-0.37,-0.37
742,-1.34,-0.98,-1.35,-1.00,1.00,0.85,-0.34,-0.35,-0.35
750,-1.34,-1.00,-1.31,-0.98,0.98,0.81,-0.36,-0.33,-0.33
757,-1.34,-1.02,-1.28,-0.97,0.97,0.78,-0.37,-0.31,-0.31
765,-1.34,-1.04,-1.24,-0.95,0.95,0.75,-0.39,-0.29,-0.29
773,-1.12,-0.84,-1.21,-0.93,0.93,0.72,-0.18,-0.27,-0.27
780,-1.12,-0.86,-1.17,-0.92,0.92,0.69,-0.20,-0.26,-0.26
788,-1.12,-0.88,-1.13,-0.90,0.90,0.66,-0.22,-0.24,-0.24
796,-1.12,-0.90,-1.10,-0.87,0.87,0.62,-0.24,-0.22,-0.22
804,-1.12,-0.91,-1.06,-0.85,0.85,0.59,-0.27,-0.21,-0.21
812,-1.12,-0.93,-1.02,-0.83,0.83,0.56,-0.29,-0.19,-0.19
820,-0.89,-0.71,-0.98,-0.81,0.81,0.53,-0.08,-0.18,-0.18
828,-0.89,-0.72,-0.95,-0.78,0.78,0.50,-0.10,-0.17,-0.17
837,-0.89,-0.73,-0.92,-0.76,0.76,0.47,-0.12,-0.16,-0.16
845,-0.89,-0.74,-0.89,-0.74,0.74,0.44,-0.15,-0.15,-0.14
853,-0.89,-0.75,-0.86,-0.72,0.72,0.42,-0.17,-0.14,-0.14
862,-0.89,-0.76,-0.82,-0.70,0.70,0.39,-0.19,-0.13,-0.13
871,-0.89,-0.77,-0.79,-0.67,0.67,0.36,-0.22,-0.12,-0.12
879,-0.66,-0.54,-0.76,-0.64,0.64,0.33,-0.01,-0.11,-0.11
888,-0.66,-0.55,-0.72,-0.61,0.61,0.30,-0.04,-0.11,-0.11
897,-0.66,-0.56,-0.69,-0.58,0.58,0.27,-0.07,-0.10,-0.10
906,-0.66,-0.56,-0.65,-0.55,0.55,0.24,-0.10,-0.10,-0.10
915,-0.66,-0.57,-0.61,-0.52,0.52,0.22,-0.14,-0.09,-0.09
924,-0.66,-0.57,-0.57,-0.48,0.48,0.19,-0.17,-0.08,-0.08
933,-0.45,-0.37,-0.52,-0.45,0.45,0.16,-0.00,-0.08,-0.08
943,-0.43,-0.36,-0.48,-0.40,0.40,0.13,-0.02,-0.07,-0.07
952,-0.43,-0.36,-0.42,-0.36,0.36,0.11,-0.07,-0.06,-0.06
962,-0.43,-0.37,-0.36,-0.30,0.30,0.08,-0.12,-0.06,-0.06
971,-0.31,-0.26,-0.30,-0.25,0.25,0.05,-0.06,-0.05,-0.05
981,-0.21,-0.17,-0.23,-0.19,0.19,0.02,-0.02,-0.04,-0.04
991,-0.21,-0.18,-0.15,-0.13,0.13,-0.01,-0.08,-0.03,-0.03
1001,0.02,0.04,-0.08,-0.06,0.06,-0.04,0.09,-0.01,-0.01
1011,0.02,0.02,-0.00,0.00,-0.00,-0.06,0.02,-0.00,-0.00
1021,0.02,0.01,0.08,0.06,-0.06,-0.09,-0.04,0.01,0.01
1031,0.13,0.10,0.15,0.12,-0.12,-0.12,0.01,0.03,0.03
1041,0.25,0.21,0.23,0.18,-0.18,-0.15,0.07,0.05,0.05
1052,0.25,0.19,0.30,0.24,-0.24,-0.18,0.01,0.07,0.06
1062,0.46,0.38,0.38,0.30,-0.30,-0.21,0.17,0.08,0.08
1073,0.48,0.38,0.46,0.35,-0.35,-0.24,0.13,0.11,0.10
1084,0.48,0.36,0.53,0.40,-0.40,-0.27,0.08,0.13,0.13
1094,0.55,0.40,0.61,0.46,-0.46,-0.30,0.10,0.15,0.15
1105,0.71,0.54,0.68,0.51,-0.51,-0.34,0.20,0.17,0.17
1116,0.71,0.52,0.76,0.56,-0.56,-0.37,0.15,0.19,0.19
1128,0.90,0.69,0.83,0.61,-0.61,-0.40,0.29,0.22,0.22
1139,0.93,0.69,0.90,0.66,-0.66,-0.44,0.27,0.24,0.24
1150,0.93,0.67,0.97,0.71,-0.71,-0.47,0.22,0.26,0.26
1162,1.00,0.72,1.04,0.76,-0.76,-0.51,0.24,0.28,0.29
1173,1.16,0.86,1.11,0.80,-0.80,-0.54,0.36,0.31,0.31
1185,1.16,0.84,1.17,0.85,-0.85,-0.58,0.31,0.33,0.33
1197,1.16,0.82,1.23,0.89,-0.89,-0.62,0.27,0.34,0.34
1209,1.36,1.00,1.29,0.93,-0.93,-0.66,0.43,0.36,0.36
1221,1.39,1.02,1.35,0.97,-0.97,-0.71,0.42,0.37,0.37
1233,1.39,1.01,1.40,1.01,-1.01,-0.75,0.38,0.39,0.39
1246,1.39,1.00,1.45,1.05,-1.05,-0.80,0.34,0.40,0.40
1258,1.50,1.10,1.50,1.10,-1.10,-0.84,0.40,0.40,0.40
1271,1.62,1.21,1.56,1.15,-1.15,-0.89,0.47,0.41,0.41
1283,1.62,1.21,1.62,1.21,-1.21,-0.94,0.42,0.41,0.41
1296,1.62,1.21,1.68,1.27,-1.27,-0.99,0.35,0.41,0.41
1309,1.63,1.23,1.75,1.35,-1.35,-1.05,0.29,0.41,0.41
1322,1.85,1.45,1.83,1.43,-1.43,-1.10,0.43,0.40,0.40
1335,1.92,1.53,1.90,1.51,-1.51,-1.16,0.42,0.39,0.39
1349,2.07,1.69,1.97,1.59,-1.59,-1.23,0.48,0.38,0.38
1362,2.07,1.70,2.04,1.67,-1.67,-1.29,0.40,0.37,0.37
1376,2.07,1.71,2.11,1.74,-1.74,-1.36,0.33,0.36,0.36
1390,2.07,1.73,2.16,1.81,-1.81,-1.43,0.26,0.35,0.35
1404,2.30,1.97,2.21,1.88,-1.88,-1.51,0.43,0.33,0.33
1418,2.30,1.98,2.26,1.94,-1.94,-1.59,0.37,0.32,0.32
1432,2.30,2.00,2.30,1.99,-1.99,-1.67,0.31,0.31,0.31
1446,2.30,2.01,2.35,2.06,-2.06,-1.76,0.24,0.29,0.29
1461,2.47,2.19,2.42,2.14,-2.14,-1.85,0.34,0.28,0.28
1475,2.53,2.26,2.50,2.23,-2.23,-1.95,0.31,0.27,0.27
1490,2.53,2.27,2.61,2.34,-2.34,-2.05,0.19,0.27,0.27
1505,2.57,2.31,2.73,2.47,-2.47,-2.16,0.10,0.26,0.26
1520,2.79,2.53,2.88,2.62,-2.62,-2.27,0.18,0.26,0.26
1535,3.03,2.77,3.04,2.78,-2.78,-2.39,0.26,0.26,0.26
1550,3.35,3.08,3.21,2.94,-2.94,-2.52,0.41,0.27,0.27
1566,3.44,3.16,3.39,3.11,-3.11,-2.66,0.34,0.28,0.28
1582,3.66,3.37,3.56,3.26,-3.26,-2.80,0.40,0.30,0.30
1597,3.68,3.36,3.73,3.41,-3.41,-2.94,0.27,0.32,0.32
1613,3.90,3.56,3.89,3.54,-3.54,-3.10,0.36,0.35,0.34
1629,3.97,3.60,4.04,3.67,-3.67,-3.26,0.31,0.38,0.38
1646,4.13,3.72,4.19,3.77,-3.77,-3.43,0.36,0.42,0.41
1662,4.27,3.82,4.33,3.87,-3.87,-3.60,0.40,0.46,0.46
1679,4.54,4.04,4.46,3.95,-3.95,-3.78,0.59,0.51,0.51
1696,4.58,4.02,4.58,4.01,-4.01,-3.97,0.57,0.56,0.56
1713,4.81,4.19,4.68,4.06,-4.06,-4.15,0.75,0.62,0.62
1730,4.81,4.13,4.78,4.09,-4.09,-4.33,0.72,0.69,0.69
1747,4.81,4.06,4.87,4.11,-4.11,-4.51,0.70,0.76,0.76
