frequency,raw,smoothed,error,error_smoothed,equalization,parametric_eq,fixed_band_eq,equalized_raw,equalized_smoothed,target
20.00,-1.91,-1.92,-2.90,-2.90,2.93,0.94,0.37,1.02,1.01,0.99
20.20,-1.87,-1.86,-2.89,-2.88,2.89,0.94,0.39,1.01,1.02,1.02
20.40,-1.81,-1.80,-2.86,-2.85,2.84,0.93,0.40,1.03,1.04,1.05
20.61,-1.74,-1.74,-2.81,-2.81,2.79,0.93,0.41,1.05,1.06,1.07
20.81,-1.64,-1.66,-2.74,-2.75,2.74,0.93,0.42,1.10,1.08,1.10
21.02,-1.58,-1.57,-2.71,-2.69,2.68,0.93,0.43,1.10,1.11,1.13
21.23,-1.49,-1.49,-2.63,-2.63,2.62,0.93,0.45,1.13,1.13,1.13
21.44,-1.41,-1.41,-2.55,-2.56,2.56,0.92,0.46,1.15,1.15,1.14
21.66,-1.33,-1.33,-2.49,-2.48,2.48,0.92,0.48,1.15,1.16,1.15
21.87,-1.24,-1.25,-2.39,-2.40,2.41,0.92,0.49,1.17,1.16,1.15
22.09,-1.17,-1.17,-2.33,-2.33,2.33,0.92,0.50,1.16,1.16,1.16
22.31,-1.09,-1.09,-2.25,-2.25,2.25,0.91,0.52,1.16,1.16,1.16
22.54,-1.02,-1.02,-2.18,-2.18,2.17,0.91,0.54,1.15,1.15,1.16
22.76,-0.94,-0.94,-2.10,-2.10,2.10,0.91,0.55,1.16,1.16,1.16
22.99,-0.86,-0.86,-2.01,-2.02,2.02,0.91,0.57,1.16,1.16,1.15
23.22,-0.79,-0.79,-1.94,-1.94,1.95,0.90,0.59,1.16,1.16,1.15
23.45,-0.73,-0.73,-1.88,-1.88,1.89,0.90,0.60,1.15,1.16,1.15
23.69,-0.67,-0.67,-1.82,-1.82,1.82,0.90,0.62,1.15,1.15,1.15
23.92,-0.61,-0.61,-1.76,-1.76,1.76,0.89,0.64,1.15,1.15,1.15
24.16,-0.55,-0.56,-1.71,-1.71,1.71,0.89,0.66,1.16,1.15,1.16
24.40,-0.51,-0.51,-1.67,-1.66,1.65,0.89,0.67,1.14,1.15,1.16
24.65,-0.46,-0.46,-1.61,-1.61,1.60,0.88,0.69,1.14,1.14,1.14
24.89,-0.41,-0.41,-1.55,-1.55,1.55,0.88,0.71,1.14,1.14,1.14
25.14,-0.36,-0.36,-1.50,-1.50,1.50,0.88,0.73,1.14,1.14,1.14
25.39,-0.31,-0.31,-1.45,-1.45,1.45,0.87,0.75,1.14,1.14,1.14
25.65,-0.27,-0.27,-1.41,-1.41,1.40,0.87,0.77,1.13,1.14,1.14
25.91,-0.22,-0.22,-1.35,-1.36,1.36,0.87,0.79,1.13,1.13,1.13
26.16,-0.18,-0.18,-1.31,-1.31,1.31,0.86,0.81,1.13,1.13,1.13
26.43,-0.13,-0.13,-1.26,-1.26,1.26,0.86,0.83,1.13,1.13,1.13
26.69,-0.09,-0.09,-1.22,-1.22,1.22,0.85,0.84,1.12,1.13,1.13
26.96,-0.04,-0.05,-1.17,-1.17,1.17,0.85,0.86,1.13,1.12,1.12
27.23,-0.01,-0.00,-1.13,-1.13,1.13,0.84,0.88,1.11,1.12,1.12
27.50,0.04,0.04,-1.08,-1.08,1.08,0.84,0.90,1.12,1.12,1.12
27.77,0.08,0.07,-1.03,-1.04,1.04,0.83,0.91,1.12,1.11,1.11
28.05,0.11,0.11,-1.00,-1.00,1.00,0.83,0.93,1.11,1.11,1.11
28.33,0.14,0.14,-0.96,-0.96,0.96,0.82,0.94,1.10,1.10,1.10
28.62,0.18,0.18,-0.92,-0.91,0.92,0.81,0.96,1.09,1.10,1.10
28.90,0.22,0.22,-0.88,-0.88,0.88,0.81,0.97,1.10,1.09,1.09
29.19,0.26,0.25,-0.82,-0.84,0.84,0.80,0.98,1.10,1.09,1.08
29.48,0.27,0.28,-0.82,-0.80,0.81,0.80,0.99,1.07,1.09,1.09
29.78,0.32,0.31,-0.76,-0.77,0.77,0.79,1.00,1.09,1.08,1.08
30.08,0.33,0.33,-0.75,-0.74,0.74,0.78,1.01,1.07,1.07,1.08
30.38,0.36,0.36,-0.71,-0.71,0.71,0.77,1.01,1.07,1.07,1.07
30.68,0.39,0.38,-0.67,-0.68,0.68,0.76,1.02,1.07,1.06,1.06
30.99,0.41,0.41,-0.64,-0.64,0.65,0.76,1.02,1.06,1.06,1.05
31.30,0.43,0.43,-0.62,-0.62,0.62,0.75,1.02,1.05,1.05,1.05
31.61,0.46,0.45,-0.59,-0.59,0.59,0.74,1.02,1.05,1.04,1.05
31.93,0.47,0.47,-0.57,-0.56,0.56,0.73,1.02,1.03,1.03,1.03
32.24,0.50,0.49,-0.52,-0.53,0.53,0.72,1.02,1.03,1.03,1.02
32.57,0.50,0.52,-0.52,-0.50,0.51,0.71,1.01,1.01,1.02,1.02
32.89,0.55,0.53,-0.47,-0.48,0.48,0.70,1.01,1.03,1.01,1.02
33.22,0.55,0.55,-0.46,-0.46,0.46,0.68,1.00,1.01,1.01,1.00
33.55,0.55,0.57,-0.45,-0.43,0.43,0.67,0.99,0.98,1.00,1.00
33.89,0.59,0.57,-0.40,-0.42,0.41,0.66,0.98,1.00,0.99,0.99
34.23,0.59,0.59,-0.40,-0.40,0.39,0.64,0.97,0.98,0.98,0.99
34.57,0.59,0.60,-0.38,-0.37,0.37,0.63,0.96,0.96,0.97,0.97
34.92,0.61,0.61,-0.35,-0.36,0.36,0.62,0.94,0.97,0.96,0.96
35.27,0.62,0.62,-0.34,-0.34,0.34,0.60,0.93,0.96,0.96,0.96
35.62,0.62,0.62,-0.32,-0.32,0.33,0.58,0.92,0.95,0.95,0.94
35.97,0.62,0.61,-0.31,-0.32,0.32,0.57,0.90,0.94,0.94,0.93
36.33,0.60,0.60,-0.33,-0.32,0.32,0.55,0.88,0.92,0.92,0.93
36.70,0.59,0.59,-0.32,-0.32,0.31,0.53,0.87,0.90,0.90,0.91
37.06,0.59,0.59,-0.31,-0.31,0.30,0.51,0.85,0.89,0.89,0.90
37.43,0.59,0.59,-0.30,-0.30,0.30,0.49,0.84,0.89,0.89,0.89
37.81,0.59,0.59,-0.29,-0.29,0.29,0.47,0.82,0.88,0.88,0.88
38.19,0.59,0.59,-0.28,-0.28,0.28,0.45,0.80,0.87,0.87,0.86
38.57,0.59,0.59,-0.27,-0.27,0.27,0.43,0.79,0.86,0.86,0.86
38.95,0.59,0.59,-0.26,-0.25,0.26,0.41,0.77,0.84,0.84,0.84
39.34,0.59,0.59,-0.24,-0.24,0.24,0.38,0.75,0.83,0.83,0.83
39.74,0.59,0.59,-0.23,-0.23,0.23,0.36,0.74,0.82,0.82,0.81
40.14,0.59,0.59,-0.22,-0.22,0.22,0.34,0.72,0.81,0.81,0.81
40.54,0.59,0.59,-0.20,-0.21,0.21,0.32,0.71,0.79,0.79,0.79
40.94,0.59,0.59,-0.20,-0.20,0.20,0.30,0.69,0.78,0.78,0.79
41.35,0.59,0.59,-0.18,-0.19,0.19,0.28,0.68,0.78,0.78,0.77
41.76,0.59,0.59,-0.18,-0.17,0.18,0.26,0.66,0.77,0.77,0.77
42.18,0.59,0.59,-0.17,-0.17,0.17,0.24,0.65,0.76,0.76,0.76
42.60,0.59,0.58,-0.15,-0.17,0.16,0.22,0.64,0.75,0.74,0.74
43.03,0.56,0.57,-0.18,-0.17,0.16,0.21,0.62,0.72,0.72,0.74
43.46,0.55,0.56,-0.17,-0.16,0.15,0.20,0.61,0.70,0.71,0.72
43.90,0.55,0.54,-0.14,-0.15,0.15,0.19,0.60,0.70,0.69,0.69
44.33,0.55,0.53,-0.12,-0.14,0.14,0.18,0.59,0.69,0.68,0.67
44.78,0.50,0.52,-0.16,-0.14,0.14,0.17,0.58,0.64,0.66,0.65
45.23,0.50,0.49,-0.14,-0.14,0.14,0.17,0.56,0.64,0.64,0.64
45.68,0.48,0.48,-0.14,-0.14,0.14,0.17,0.55,0.62,0.62,0.62
46.13,0.46,0.46,-0.14,-0.14,0.14,0.17,0.55,0.60,0.61,0.60
46.60,0.45,0.44,-0.14,-0.14,0.15,0.18,0.54,0.60,0.59,0.59
47.06,0.41,0.42,-0.16,-0.15,0.15,0.18,0.53,0.56,0.57,0.57
47.53,0.41,0.40,-0.14,-0.16,0.15,0.19,0.52,0.56,0.55,0.55
48.01,0.36,0.37,-0.18,-0.16,0.15,0.20,0.51,0.51,0.52,0.54
48.49,0.36,0.35,-0.15,-0.16,0.15,0.21,0.50,0.51,0.50,0.51
48.97,0.32,0.32,-0.16,-0.15,0.15,0.21,0.50,0.47,0.48,0.48
49.46,0.31,0.30,-0.14,-0.14,0.15,0.22,0.49,0.46,0.45,0.45
49.96,0.27,0.27,-0.15,-0.15,0.15,0.23,0.48,0.42,0.43,0.41
50.46,0.25,0.25,-0.15,-0.15,0.15,0.24,0.48,0.40,0.40,0.40
50.96,0.22,0.22,-0.16,-0.16,0.16,0.25,0.47,0.38,0.38,0.38
51.47,0.19,0.19,-0.16,-0.16,0.17,0.26,0.47,0.36,0.36,0.35
51.99,0.15,0.15,-0.17,-0.17,0.18,0.27,0.46,0.33,0.33,0.32
52.51,0.12,0.12,-0.19,-0.19,0.19,0.28,0.45,0.31,0.30,0.31
53.03,0.08,0.08,-0.21,-0.21,0.20,0.28,0.45,0.28,0.28,0.28
53.56,0.04,0.05,-0.22,-0.22,0.21,0.29,0.44,0.25,0.26,0.26
54.10,0.01,0.01,-0.23,-0.22,0.22,0.29,0.44,0.23,0.23,0.23
54.64,-0.01,-0.02,-0.22,-0.23,0.23,0.30,0.43,0.22,0.21,0.21
55.18,-0.06,-0.05,-0.24,-0.23,0.24,0.30,0.43,0.18,0.18,0.18
55.74,-0.09,-0.09,-0.25,-0.24,0.24,0.30,0.42,0.15,0.16,0.16
56.29,-0.10,-0.11,-0.24,-0.25,0.25,0.30,0.41,0.15,0.13,0.14
56.86,-0.15,-0.14,-0.26,-0.25,0.25,0.30,0.41,0.10,0.11,0.11
57.42,-0.16,-0.17,-0.24,-0.25,0.26,0.30,0.40,0.10,0.09,0.08
58.00,-0.20,-0.20,-0.26,-0.26,0.26,0.30,0.39,0.06,0.06,0.06
58.58,-0.22,-0.22,-0.26,-0.26,0.26,0.30,0.38,0.04,0.04,0.04
59.16,-0.24,-0.25,-0.26,-0.27,0.26,0.30,0.37,0.02,0.02,0.02
59.76,-0.27,-0.27,-0.27,-0.26,0.26,0.29,0.36,-0.01,-0.01,-0.00
60.35,-0.29,-0.29,-0.26,-0.26,0.25,0.29,0.35,-0.04,-0.04,-0.03
60.96,-0.30,-0.31,-0.25,-0.25,0.24,0.28,0.34,-0.06,-0.07,-0.05
61.57,-0.34,-0.33,-0.24,-0.24,0.23,0.27,0.33,-0.11,-0.10,-0.10
62.18,-0.34,-0.35,-0.21,-0.22,0.22,0.27,0.32,-0.12,-0.13,-0.13
62.80,-0.37,-0.36,-0.22,-0.20,0.21,0.26,0.30,-0.16,-0.15,-0.16
63.43,-0.38,-0.38,-0.19,-0.19,0.20,0.25,0.29,-0.18,-0.18,-0.19
64.07,-0.38,-0.40,-0.16,-0.18,0.19,0.24,0.27,-0.19,-0.21,-0.22
64.71,-0.43,-0.42,-0.19,-0.17,0.18,0.23,0.26,-0.25,-0.24,-0.24
65.35,-0.43,-0.44,-0.16,-0.17,0.17,0.22,0.24,-0.26,-0.27,-0.27
66.01,-0.48,-0.47,-0.18,-0.17,0.16,0.21,0.22,-0.32,-0.31,-0.30
66.67,-0.48,-0.49,-0.15,-0.16,0.15,0.20,0.21,-0.33,-0.33,-0.33
67.33,-0.51,-0.51,-0.15,-0.15,0.15,0.18,0.19,-0.36,-0.36,-0.36
68.01,-0.52,-0.52,-0.13,-0.14,0.14,0.17,0.17,-0.38,-0.39,-0.39
68.69,-0.54,-0.54,-0.12,-0.12,0.13,0.16,0.15,-0.41,-0.41,-0.42
69.37,-0.57,-0.56,-0.12,-0.11,0.12,0.14,0.12,-0.45,-0.45,-0.45
70.07,-0.57,-0.59,-0.09,-0.11,0.10,0.13,0.10,-0.47,-0.48,-0.48
70.77,-0.62,-0.61,-0.11,-0.10,0.09,0.11,0.08,-0.53,-0.52,-0.51
71.48,-0.62,-0.63,-0.08,-0.08,0.08,0.09,0.06,-0.54,-0.55,-0.54
72.19,-0.64,-0.64,-0.06,-0.06,0.06,0.08,0.03,-0.58,-0.58,-0.58
72.91,-0.66,-0.66,-0.05,-0.04,0.05,0.06,0.01,-0.61,-0.61,-0.61
73.64,-0.66,-0.68,-0.01,-0.03,0.03,0.04,-0.02,-0.63,-0.65,-0.65
74.38,-0.71,-0.70,-0.03,-0.01,0.01,0.02,-0.04,-0.70,-0.69,-0.68
75.12,-0.71,-0.70,0.01,0.01,-0.01,0.00,-0.07,-0.72,-0.71,-0.72
75.87,-0.71,-0.72,0.04,0.03,-0.03,-0.02,-0.10,-0.74,-0.75,-0.75
76.63,-0.71,-0.73,0.07,0.05,-0.05,-0.04,-0.12,-0.76,-0.77,-0.78
77.40,-0.76,-0.74,0.05,0.07,-0.06,-0.06,-0.15,-0.82,-0.80,-0.81
78.17,-0.76,-0.76,0.09,0.08,-0.08,-0.08,-0.18,-0.84,-0.84,-0.85
78.95,-0.76,-0.78,0.11,0.10,-0.10,-0.11,-0.21,-0.86,-0.88,-0.87
79.74,-0.80,-0.78,0.10,0.12,-0.12,-0.13,-0.24,-0.92,-0.90,-0.90
80.54,-0.80,-0.80,0.14,0.14,-0.14,-0.15,-0.26,-0.94,-0.94,-0.94
81.35,-0.80,-0.82,0.17,0.15,-0.16,-0.18,-0.29,-0.96,-0.98,-0.97
82.16,-0.85,-0.83,0.16,0.17,-0.18,-0.20,-0.32,-1.03,-1.01,-1.01
82.98,-0.85,-0.85,0.18,0.20,-0.20,-0.23,-0.35,-1.05,-1.04,-1.04
83.81,-0.85,-0.86,0.23,0.22,-0.22,-0.26,-0.39,-1.07,-1.08,-1.08
84.65,-0.86,-0.87,0.26,0.25,-0.24,-0.28,-0.42,-1.10,-1.11,-1.12
85.50,-0.90,-0.89,0.25,0.27,-0.27,-0.31,-0.45,-1.17,-1.15,-1.15
86.35,-0.90,-0.90,0.29,0.29,-0.29,-0.34,-0.48,-1.19,-1.19,-1.19
87.22,-0.90,-0.91,0.33,0.32,-0.32,-0.37,-0.51,-1.22,-1.23,-1.23
88.09,-0.90,-0.91,0.37,0.35,-0.35,-0.40,-0.55,-1.25,-1.27,-1.27
88.97,-0.94,-0.93,0.36,0.38,-0.38,-0.43,-0.58,-1.32,-1.31,-1.30
89.86,-0.94,-0.93,0.40,0.41,-0.41,-0.46,-0.61,-1.35,-1.34,-1.34
90.76,-0.94,-0.95,0.45,0.44,-0.44,-0.49,-0.65,-1.38,-1.38,-1.39
91.66,-0.94,-0.96,0.48,0.48,-0.47,-0.52,-0.68,-1.41,-1.42,-1.43
92.58,-0.99,-0.97,0.49,0.50,-0.49,-0.56,-0.72,-1.48,-1.47,-1.48
93.51,-0.99,-1.00,0.52,0.52,-0.52,-0.59,-0.75,-1.51,-1.52,-1.51
94.44,-1.01,-1.02,0.55,0.54,-0.55,-0.62,-0.79,-1.56,-1.56,-1.56
95.39,-1.04,-1.03,0.56,0.57,-0.58,-0.66,-0.82,-1.62,-1.61,-1.60
96.34,-1.04,-1.05,0.61,0.60,-0.60,-0.69,-0.86,-1.64,-1.66,-1.66
97.30,-1.08,-1.07,0.62,0.63,-0.63,-0.73,-0.90,-1.71,-1.70,-1.70
98.28,-1.08,-1.08,0.67,0.67,-0.66,-0.76,-0.94,-1.74,-1.74,-1.75
99.26,-1.08,-1.10,0.71,0.69,-0.69,-0.80,-0.97,-1.77,-1.80,-1.79
100.25,-1.13,-1.11,0.71,0.72,-0.73,-0.83,-1.01,-1.86,-1.84,-1.84
101.25,-1.13,-1.12,0.75,0.76,-0.76,-0.87,-1.05,-1.89,-1.88,-1.88
102.27,-1.13,-1.14,0.80,0.79,-0.79,-0.91,-1.08,-1.92,-1.93,-1.93
103.29,-1.13,-1.15,0.86,0.83,-0.83,-0.95,-1.12,-1.96,-1.97,-1.99
104.32,-1.18,-1.16,0.84,0.86,-0.86,-0.98,-1.16,-2.04,-2.03,-2.02
105.37,-1.18,-1.18,0.89,0.89,-0.90,-1.02,-1.20,-2.08,-2.07,-2.07
106.42,-1.18,-1.19,0.93,0.93,-0.94,-1.06,-1.23,-2.12,-2.12,-2.12
107.48,-1.18,-1.19,0.98,0.97,-0.97,-1.10,-1.27,-2.15,-2.16,-2.16
108.56,-1.21,-1.20,1.01,1.01,-1.01,-1.14,-1.30,-2.22,-2.21,-2.22
109.64,-1.22,-1.21,1.04,1.05,-1.05,-1.18,-1.34,-2.27,-2.26,-2.26
110.74,-1.22,-1.23,1.09,1.09,-1.08,-1.22,-1.37,-2.31,-2.31,-2.31
111.85,-1.22,-1.24,1.13,1.13,-1.12,-1.26,-1.40,-2.34,-2.36,-2.36
112.97,-1.27,-1.25,1.15,1.16,-1.16,-1.30,-1.43,-2.43,-2.41,-2.42
114.10,-1.27,-1.28,1.20,1.19,-1.19,-1.34,-1.46,-2.46,-2.47,-2.47
115.24,-1.30,-1.30,1.22,1.22,-1.22,-1.38,-1.49,-2.52,-2.53,-2.52
116.39,-1.32,-1.32,1.25,1.25,-1.25,-1.41,-1.52,-2.57,-2.57,-2.58
117.55,-1.35,-1.35,1.28,1.28,-1.28,-1.45,-1.54,-2.63,-2.63,-2.63
118.73,-1.36,-1.37,1.32,1.31,-1.31,-1.49,-1.57,-2.67,-2.68,-2.68
119.92,-1.39,-1.39,1.34,1.34,-1.34,-1.53,-1.59,-2.73,-2.73,-2.73
121.12,-1.41,-1.41,1.37,1.37,-1.37,-1.57,-1.61,-2.78,-2.78,-2.78
122.33,-1.43,-1.43,1.40,1.40,-1.40,-1.61,-1.62,-2.83,-2.83,-2.83
123.55,-1.46,-1.45,1.41,1.42,-1.43,-1.64,-1.64,-2.89,-2.88,-2.87
124.79,-1.46,-1.47,1.46,1.45,-1.46,-1.68,-1.65,-2.92,-2.93,-2.92
126.03,-1.50,-1.49,1.47,1.48,-1.48,-1.71,-1.66,-2.98,-2.98,-2.98
127.29,-1.50,-1.51,1.52,1.52,-1.51,-1.75,-1.67,-3.01,-3.02,-3.03
128.57,-1.55,-1.54,1.53,1.54,-1.54,-1.78,-1.68,-3.09,-3.08,-3.08
129.85,-1.55,-1.56,1.58,1.57,-1.57,-1.82,-1.68,-3.12,-3.13,-3.13
131.15,-1.60,-1.59,1.58,1.59,-1.59,-1.85,-1.68,-3.19,-3.18,-3.18
132.46,-1.60,-1.61,1.63,1.62,-1.62,-1.88,-1.68,-3.22,-3.23,-3.23
133.79,-1.64,-1.63,1.62,1.64,-1.65,-1.91,-1.68,-3.29,-3.28,-3.27
135.12,-1.64,-1.64,1.68,1.67,-1.67,-1.94,-1.68,-3.31,-3.32,-3.32
136.48,-1.65,-1.66,1.71,1.70,-1.70,-1.97,-1.68,-3.35,-3.36,-3.36
137.84,-1.69,-1.68,1.71,1.73,-1.72,-1.99,-1.67,-3.41,-3.40,-3.40
139.22,-1.69,-1.70,1.76,1.75,-1.75,-2.02,-1.67,-3.44,-3.45,-3.45
140.61,-1.73,-1.72,1.77,1.77,-1.77,-2.04,-1.66,-3.50,-3.49,-3.50
142.02,-1.73,-1.73,1.79,1.79,-1.79,-2.06,-1.65,-3.52,-3.52,-3.52
143.44,-1.74,-1.75,1.82,1.81,-1.81,-2.08,-1.64,-3.55,-3.56,-3.56
144.87,-1.78,-1.77,1.82,1.83,-1.83,-2.10,-1.63,-3.61,-3.60,-3.60
146.32,-1.78,-1.80,1.86,1.84,-1.85,-2.11,-1.62,-3.63,-3.64,-3.64
147.78,-1.83,-1.81,1.84,1.86,-1.87,-2.13,-1.61,-3.70,-3.68,-3.67
149.26,-1.83,-1.83,1.88,1.88,-1.88,-2.14,-1.60,-3.72,-3.71,-3.71
150.75,-1.83,-1.84,1.92,1.90,-1.90,-2.16,-1.59,-3.73,-3.75,-3.75
152.26,-1.87,-1.86,1.92,1.93,-1.92,-2.16,-1.58,-3.79,-3.78,-3.79
153.78,-1.87,-1.88,1.95,1.95,-1.94,-2.17,-1.57,-3.81,-3.82,-3.83
155.32,-1.92,-1.91,1.95,1.96,-1.96,-2.18,-1.56,-3.88,-3.87,-3.87
156.88,-1.92,-1.93,1.98,1.98,-1.98,-2.18,-1.56,-3.90,-3.91,-3.90
158.44,-1.97,-1.96,1.98,1.99,-1.99,-2.18,-1.55,-3.97,-3.96,-3.95
160.03,-1.97,-1.98,2.02,2.01,-2.01,-2.19,-1.54,-3.98,-3.99,-3.99
161.63,-2.01,-2.00,2.02,2.03,-2.03,-2.18,-1.54,-4.04,-4.03,-4.03
163.24,-2.01,-2.02,2.06,2.05,-2.04,-2.18,-1.53,-4.06,-4.07,-4.07
164.88,-2.05,-2.04,2.05,2.06,-2.06,-2.18,-1.53,-4.11,-4.10,-4.10
166.53,-2.06,-2.06,2.08,2.08,-2.08,-2.17,-1.52,-4.14,-4.14,-4.14
168.19,-2.07,-2.08,2.11,2.10,-2.10,-2.16,-1.52,-4.17,-4.18,-4.18
169.87,-2.11,-2.10,2.11,2.12,-2.12,-2.15,-1.52,-4.23,-4.22,-4.22
171.57,-2.11,-2.12,2.14,2.13,-2.13,-2.14,-1.52,-4.24,-4.25,-4.25
173.29,-2.15,-2.14,2.14,2.15,-2.15,-2.13,-1.52,-4.30,-4.29,-4.29
175.02,-2.15,-2.16,2.17,2.17,-2.16,-2.12,-1.52,-4.31,-4.33,-4.33
176.77,-2.20,-2.19,2.17,2.18,-2.18,-2.10,-1.53,-4.38,-4.37,-4.37
178.54,-2.21,-2.22,2.20,2.19,-2.19,-2.08,-1.53,-4.40,-4.41,-4.41
180.32,-2.25,-2.25,2.20,2.20,-2.20,-2.07,-1.54,-4.45,-4.45,-4.45
182.13,-2.27,-2.27,2.21,2.21,-2.21,-2.05,-1.55,-4.49,-4.49,-4.48
183.95,-2.29,-2.30,2.23,2.22,-2.22,-2.03,-1.55,-4.52,-4.52,-4.52
185.79,-2.33,-2.32,2.22,2.23,-2.23,-2.01,-1.56,-4.56,-4.56,-4.55
187.65,-2.34,-2.35,2.25,2.24,-2.24,-1.99,-1.57,-4.58,-4.59,-4.59
189.52,-2.38,-2.37,2.24,2.25,-2.25,-1.97,-1.59,-4.63,-4.62,-4.62
191.42,-2.39,-2.40,2.26,2.26,-2.25,-1.94,-1.60,-4.64,-4.65,-4.65
193.33,-2.43,-2.43,2.25,2.26,-2.26,-1.92,-1.61,-4.69,-4.68,-4.68
195.27,-2.45,-2.45,2.26,2.26,-2.26,-1.90,-1.63,-4.71,-4.71,-4.71
197.22,-2.48,-2.48,2.26,2.26,-2.26,-1.87,-1.64,-4.74,-4.74,-4.74
199.19,-2.51,-2.51,2.26,2.26,-2.26,-1.85,-1.66,-4.77,-4.77,-4.78
201.18,-2.53,-2.53,2.26,2.26,-2.26,-1.82,-1.68,-4.79,-4.79,-4.79
203.19,-2.57,-2.56,2.24,2.25,-2.25,-1.80,-1.70,-4.82,-4.81,-4.81
205.23,-2.57,-2.59,2.26,2.24,-2.24,-1.77,-1.71,-4.81,-4.83,-4.83
207.28,-2.62,-2.61,2.22,2.23,-2.23,-1.74,-1.73,-4.85,-4.85,-4.84
209.35,-2.64,-2.64,2.22,2.22,-2.22,-1.72,-1.75,-4.86,-4.87,-4.86
211.44,-2.67,-2.67,2.22,2.21,-2.21,-1.69,-1.77,-4.88,-4.88,-4.89
213.56,-2.70,-2.69,2.19,2.20,-2.20,-1.67,-1.79,-4.90,-4.89,-4.89
215.69,-2.71,-2.72,2.18,2.18,-2.18,-1.64,-1.81,-4.90,-4.90,-4.89
217.85,-2.74,-2.74,2.17,2.17,-2.17,-1.61,-1.83,-4.91,-4.91,-4.91
220.03,-2.76,-2.76,2.16,2.15,-2.15,-1.59,-1.84,-4.91,-4.91,-4.92
222.23,-2.80,-2.79,2.13,2.13,-2.13,-1.56,-1.86,-4.93,-4.92,-4.93
224.45,-2.81,-2.82,2.11,2.11,-2.11,-1.53,-1.88,-4.92,-4.92,-4.92
226.70,-2.85,-2.84,2.07,2.09,-2.08,-1.51,-1.89,-4.93,-4.92,-4.92
228.96,-2.85,-2.87,2.07,2.05,-2.05,-1.48,-1.91,-4.91,-4.92,-4.92
231.25,-2.90,-2.90,2.01,2.02,-2.02,-1.46,-1.92,-4.92,-4.92,-4.92
233.57,-2.94,-2.93,1.97,1.99,-1.99,-1.43,-1.93,-4.93,-4.92,-4.92
235.90,-2.95,-2.96,1.96,1.95,-1.96,-1.40,-1.94,-4.91,-4.92,-4.91
238.26,-2.99,-2.99,1.92,1.92,-1.92,-1.38,-1.95,-4.91,-4.91,-4.91
240.64,-3.03,-3.02,1.87,1.88,-1.88,-1.35,-1.95,-4.91,-4.90,-4.90
243.05,-3.04,-3.05,1.85,1.84,-1.84,-1.33,-1.96,-4.88,-4.89,-4.89
245.48,-3.09,-3.09,1.79,1.80,-1.80,-1.30,-1.96,-4.89,-4.88,-4.88
247.93,-3.12,-3.12,1.75,1.76,-1.75,-1.28,-1.96,-4.87,-4.87,-4.87
250.41,-3.15,-3.15,1.72,1.71,-1.71,-1.25,-1.95,-4.86,-4.86,-4.87
252.92,-3.18,-3.18,1.66,1.66,-1.66,-1.23,-1.95,-4.84,-4.84,-4.84
255.45,-3.22,-3.22,1.60,1.61,-1.61,-1.20,-1.94,-4.83,-4.83,-4.82
258.00,-3.25,-3.25,1.56,1.56,-1.56,-1.18,-1.93,-4.81,-4.81,-4.81
260.58,-3.28,-3.29,1.51,1.51,-1.51,-1.16,-1.92,-4.79,-4.79,-4.80
263.19,-3.32,-3.32,1.45,1.46,-1.45,-1.13,-1.91,-4.77,-4.77,-4.77
265.82,-3.36,-3.36,1.40,1.40,-1.40,-1.11,-1.89,-4.76,-4.75,-4.76
268.48,-3.39,-3.39,1.34,1.34,-1.34,-1.08,-1.88,-4.73,-4.73,-4.73
271.16,-3.43,-3.43,1.28,1.28,-1.29,-1.06,-1.86,-4.72,-4.72,-4.71
273.87,-3.46,-3.47,1.23,1.23,-1.23,-1.03,-1.84,-4.69,-4.70,-4.70
276.61,-3.51,-3.50,1.16,1.18,-1.18,-1.01,-1.81,-4.69,-4.68,-4.67
279.38,-3.52,-3.53,1.14,1.13,-1.13,-0.99,-1.79,-4.65,-4.66,-4.66
282.17,-3.55,-3.56,1.09,1.08,-1.08,-0.96,-1.77,-4.63,-4.64,-4.64
284.99,-3.60,-3.59,1.02,1.03,-1.02,-0.93,-1.74,-4.63,-4.61,-4.62
287.84,-3.62,-3.62,0.98,0.98,-0.97,-0.91,-1.72,-4.59,-4.60,-4.60
290.72,-3.65,-3.66,0.92,0.92,-0.92,-0.88,-1.69,-4.57,-4.58,-4.58
293.63,-3.69,-3.69,0.87,0.87,-0.87,-0.85,-1.66,-4.56,-4.56,-4.56
296.57,-3.73,-3.72,0.80,0.82,-0.82,-0.83,-1.63,-4.55,-4.54,-4.53
299.53,-3.74,-3.76,0.78,0.76,-0.76,-0.80,-1.61,-4.50,-4.52,-4.52
302.53,-3.79,-3.78,0.71,0.71,-0.71,-0.77,-1.58,-4.50,-4.49,-4.50
305.55,-3.82,-3.81,0.65,0.66,-0.65,-0.74,-1.55,-4.47,-4.47,-4.47
308.61,-3.83,-3.85,0.62,0.60,-0.60,-0.70,-1.52,-4.43,-4.45,-4.45
311.69,-3.88,-3.87,0.54,0.54,-0.55,-0.67,-1.50,-4.43,-4.42,-4.42
314.81,-3.91,-3.91,0.48,0.49,-0.49,-0.64,-1.47,-4.40,-4.40,-4.39
317.96,-3.93,-3.94,0.44,0.44,-0.44,-0.60,-1.44,-4.37,-4.38,-4.37
321.14,-3.97,-3.96,0.38,0.39,-0.39,-0.56,-1.42,-4.36,-4.36,-4.35
324.35,-3.97,-3.98,0.37,0.35,-0.35,-0.52,-1.39,-4.32,-4.33,-4.34
327.59,-4.02,-4.01,0.29,0.30,-0.30,-0.48,-1.37,-4.32,-4.31,-4.31
330.87,-4.02,-4.03,0.27,0.27,-0.26,-0.43,-1.34,-4.28,-4.28,-4.29
334.18,-4.06,-4.05,0.21,0.22,-0.22,-0.39,-1.32,-4.28,-4.27,-4.27
337.52,-4.06,-4.08,0.20,0.18,-0.18,-0.34,-1.30,-4.24,-4.25,-4.26
340.90,-4.11,-4.10,0.12,0.14,-0.14,-0.30,-1.28,-4.26,-4.24,-4.23
344.30,-4.11,-4.11,0.10,0.10,-0.11,-0.25,-1.26,-4.22,-4.22,-4.21
347.75,-4.11,-4.12,0.08,0.08,-0.08,-0.20,-1.24,-4.19,-4.20,-4.19
351.23,-4.11,-4.11,0.07,0.07,-0.06,-0.16,-1.22,-4.17,-4.17,-4.18
354.74,-4.11,-4.11,0.05,0.05,-0.04,-0.12,-1.20,-4.15,-4.15,-4.16
358.28,-4.11,-4.11,0.03,0.03,-0.02,-0.08,-1.18,-4.14,-4.14,-4.14
361.87,-4.11,-4.12,0.01,0.01,-0.01,-0.05,-1.17,-4.12,-4.13,-4.12
365.49,-4.11,-4.11,-0.01,-0.00,-0.01,-0.02,-1.15,-4.12,-4.11,-4.11
369.14,-4.11,-4.10,-0.01,-0.00,-0.00,-0.01,-1.14,-4.11,-4.10,-4.10
372.83,-4.06,-4.08,0.02,0.00,-0.00,0.00,-1.13,-4.06,-4.08,-4.08
376.56,-4.06,-4.06,0.01,0.01,-0.00,0.00,-1.11,-4.06,-4.06,-4.07
380.33,-4.04,-4.04,0.00,0.01,-0.01,-0.01,-1.10,-4.05,-4.04,-4.04
384.13,-4.02,-4.02,0.01,0.02,-0.02,-0.03,-1.09,-4.04,-4.04,-4.03
387.97,-3.98,-3.99,0.04,0.03,-0.03,-0.06,-1.08,-4.02,-4.03,-4.03
391.85,-3.97,-3.96,0.05,0.05,-0.05,-0.10,-1.07,-4.02,-4.01,-4.02
395.77,-3.93,-3.93,0.07,0.07,-0.07,-0.14,-1.06,-4.00,-4.00,-4.00
399.73,-3.89,-3.90,0.10,0.10,-0.10,-0.18,-1.06,-3.99,-3.99,-3.99
403.72,-3.86,-3.85,0.12,0.13,-0.13,-0.23,-1.05,-3.99,-3.98,-3.98
407.76,-3.80,-3.81,0.17,0.16,-0.16,-0.29,-1.05,-3.96,-3.97,-3.97
411.84,-3.76,-3.76,0.19,0.19,-0.20,-0.34,-1.04,-3.96,-3.96,-3.95
415.96,-3.72,-3.72,0.22,0.23,-0.24,-0.39,-1.04,-3.96,-3.95,-3.95
420.12,-3.66,-3.66,0.28,0.27,-0.28,-0.44,-1.03,-3.94,-3.94,-3.94
424.32,-3.61,-3.60,0.32,0.33,-0.32,-0.50,-1.03,-3.93,-3.92,-3.93
428.56,-3.53,-3.54,0.39,0.38,-0.37,-0.55,-1.03,-3.90,-3.91,-3.92
432.85,-3.48,-3.49,0.43,0.42,-0.41,-0.59,-1.03,-3.89,-3.90,-3.91
437.18,-3.44,-3.44,0.46,0.46,-0.46,-0.64,-1.03,-3.90,-3.90,-3.90
441.55,-3.39,-3.38,0.49,0.51,-0.51,-0.69,-1.03,-3.90,-3.89,-3.88
445.96,-3.31,-3.31,0.56,0.56,-0.57,-0.73,-1.03,-3.88,-3.88,-3.87
450.42,-3.23,-3.24,0.63,0.62,-0.62,-0.77,-1.04,-3.85,-3.86,-3.86
454.93,-3.18,-3.17,0.66,0.68,-0.67,-0.81,-1.04,-3.85,-3.84,-3.84
459.48,-3.10,-3.10,0.73,0.73,-0.73,-0.85,-1.05,-3.83,-3.83,-3.84
464.07,-3.02,-3.03,0.80,0.79,-0.79,-0.89,-1.05,-3.81,-3.81,-3.82
