frequency,raw,error,smoothed,error_smoothed,equalization,parametric_eq,equalized_raw,equalized_smoothed,target
20,4.10,3.28,4.02,3.20,-3.20,-1.54,0.90,0.82,0.82
21,4.22,3.40,4.18,3.36,-3.36,-1.77,0.85,0.82,0.82
22,4.31,3.49,4.32,3.51,-3.51,-2.02,0.80,0.81,0.81
23,4.41,3.59,4.45,3.63,-3.63,-2.30,0.77,0.81,0.81
24,4.45,3.64,4.55,3.74,-3.74,-2.59,0.71,0.81,0.81
25,4.55,3.74,4.63,3.82,-3.82,-2.88,0.72,0.81,0.81
26,4.59,3.78,4.69,3.88,-3.88,-3.18,0.70,0.80,0.80
27,4.69,3.89,4.73,3.93,-3.93,-3.45,0.76,0.80,0.80
28,4.73,3.93,4.74,3.95,-3.95,-3.70,0.78,0.80,0.80
29,4.82,4.02,4.74,3.95,-3.95,-3.89,0.87,0.79,0.79
30,4.83,4.04,4.71,3.93,-3.93,-4.02,0.90,0.79,0.79
31,4.73,3.94,4.66,3.88,-3.88,-4.09,0.85,0.78,0.78
32,4.64,3.86,4.59,3.81,-3.81,-4.09,0.83,0.78,0.78
33,4.50,3.73,4.49,3.72,-3.72,-4.04,0.78,0.77,0.77
34,4.37,3.60,4.36,3.60,-3.60,-3.93,0.77,0.76,0.76
35,4.20,3.44,4.21,3.46,-3.46,-3.80,0.74,0.75,0.75
36,4.04,3.29,4.04,3.30,-3.30,-3.65,0.74,0.75,0.75
37,3.92,3.18,3.86,3.12,-3.12,-3.49,0.80,0.74,0.74
38,3.75,3.02,3.65,2.93,-2.93,-3.33,0.82,0.73,0.73
39,3.53,2.81,3.44,2.73,-2.73,-3.17,0.80,0.72,0.72
40,3.32,2.61,3.23,2.52,-2.52,-3.03,0.79,0.71,0.71
41,3.05,2.35,3.02,2.32,-2.32,-2.89,0.72,0.70,0.70
42,2.78,2.09,2.82,2.14,-2.14,-2.77,0.64,0.68,0.68
43,2.57,1.89,2.63,1.96,-1.96,-2.66,0.60,0.67,0.67
44,2.34,1.68,2.46,1.81,-1.81,-2.56,0.53,0.66,0.66
45,2.12,1.47,2.32,1.67,-1.67,-2.48,0.44,0.64,0.64
46,1.98,1.35,2.19,1.56,-1.56,-2.40,0.41,0.63,0.63
47,1.89,1.27,2.08,1.47,-1.47,-2.34,0.41,0.61,0.61
48,1.87,1.27,1.99,1.40,-1.40,-2.29,0.47,0.59,0.59
49,1.89,1.31,1.92,1.34,-1.34,-2.24,0.55,0.58,0.58
50,1.91,1.35,1.85,1.29,-1.29,-2.21,0.61,0.56,0.56
51,1.97,1.43,1.78,1.25,-1.25,-2.18,0.72,0.54,0.54
52,1.96,1.44,1.72,1.20,-1.20,-2.16,0.75,0.52,0.52
53,1.86,1.36,1.65,1.15,-1.15,-2.15,0.70,0.50,0.50
54,1.73,1.25,1.57,1.10,-1.10,-2.14,0.63,0.47,0.47
55,1.63,1.18,1.49,1.04,-1.04,-2.14,0.58,0.45,0.45
56,1.53,1.10,1.41,0.99,-0.99,-2.14,0.54,0.42,0.42
57,1.38,0.98,1.33,0.94,-0.94,-2.15,0.44,0.40,0.40
58,1.22,0.84,1.27,0.89,-0.89,-2.16,0.32,0.37,0.37
59,1.12,0.77,1.21,0.87,-0.87,-2.18,0.25,0.35,0.35
60,1.05,0.73,1.19,0.87,-0.87,-2.20,0.18,0.32,0.32
61,1.00,0.71,1.18,0.89,-0.89,-2.23,0.10,0.29,0.29
62,1.05,0.79,1.22,0.96,-0.96,-2.25,0.09,0.26,0.26
63,1.14,0.91,1.28,1.05,-1.05,-2.28,0.08,0.23,0.23
64,1.29,1.09,1.38,1.19,-1.19,-2.32,0.10,0.20,0.20
65,1.47,1.30,1.52,1.35,-1.35,-2.36,0.11,0.16,0.17
66,1.67,1.53,1.69,1.55,-1.55,-2.40,0.11,0.13,0.13
67,1.90,1.80,1.88,1.78,-1.78,-2.44,0.12,0.10,0.10
68,2.12,2.05,2.09,2.03,-2.03,-2.49,0.09,0.06,0.06
69,2.36,2.33,2.32,2.29,-2.29,-2.53,0.07,0.03,0.03
70,2.61,2.61,2.55,2.56,-2.56,-2.59,0.04,-0.01,-0.01
71,2.85,2.89,2.79,2.84,-2.84,-2.64,0.01,-0.04,-0.04
72,3.10,3.18,3.03,3.11,-3.11,-2.70,-0.01,-0.08,-0.08
73,3.30,3.42,3.25,3.37,-3.37,-2.76,-0.08,-0.12,-0.12
74,3.49,3.64,3.47,3.63,-3.63,-2.83,-0.14,-0.16,-0.16
75,3.68,3.87,3.67,3.87,-3.87,-2.90,-0.20,-0.20,-0.20
76,3.90,4.13,3.86,4.10,-4.10,-2.97,-0.20,-0.24,-0.24
77,4.09,4.36,4.04,4.32,-4.32,-3.04,-0.23,-0.28,-0.28
78,4.25,4.56,4.20,4.52,-4.52,-3.12,-0.27,-0.32,-0.32
79,4.39,4.74,4.35,4.70,-4.70,-3.20,-0.32,-0.36,-0.36
80,4.50,4.89,4.48,4.87,-4.87,-3.28,-0.38,-0.40,-0.40
81,4.59,5.02,4.60,5.03,-5.03,-3.37,-0.45,-0.44,-0.44
82,4.68,5.15,4.70,5.18,-5.18,-3.46,-0.50,-0.48,-0.48
83,4.77,5.29,4.80,5.32,-5.32,-3.55,-0.55,-0.52,-0.52
84,4.87,5.43,4.88,5.45,-5.45,-3.65,-0.58,-0.56,-0.56
85,4.98,5.58,4.96,5.57,-5.57,-3.74,-0.59,-0.60,-0.60
86,5.04,5.68,5.03,5.68,-5.68,-3.85,-0.64,-0.64,-0.64
87,5.12,5.80,5.10,5.79,-5.79,-3.95,-0.67,-0.69,-0.69
88,5.16,5.88,5.16,5.89,-5.89,-4.06,-0.73,-0.73,-0.73
89,5.22,5.99,5.22,5.99,-5.99,-4.17,-0.77,-0.77,-0.77
90,5.26,6.07,5.27,6.08,-6.08,-4.28,-0.82,-0.81,-0.81
91,5.30,6.15,5.32,6.17,-6.17,-4.40,-0.87,-0.85,-0.85
92,5.34,6.23,5.37,6.26,-6.26,-4.51,-0.92,-0.89,-0.89
93,5.39,6.32,5.41,6.34,-6.34,-4.63,-0.95,-0.93,-0.93
94,5.43,6.40,5.44,6.42,-6.42,-4.75,-0.99,-0.97,-0.97
95,5.47,6.48,5.48,6.49,-6.49,-4.88,-1.03,-1.01,-1.02
96,5.52,6.57,5.51,6.56,-6.56,-5.00,-1.04,-1.05,-1.06
97,5.56,6.65,5.53,6.62,-6.62,-5.13,-1.07,-1.10,-1.09
98,5.57,6.70,5.54,6.68,-6.68,-5.26,-1.11,-1.14,-1.13
99,5.57,6.74,5.55,6.73,-6.73,-5.39,-1.16,-1.18,-1.17
100,5.57,6.78,5.55,6.77,-6.77,-5.52,-1.21,-1.22,-1.21
101,5.57,6.82,5.55,6.81,-6.81,-5.64,-1.24,-1.26,-1.25
102,5.57,6.85,5.53,6.84,-6.84,-5.77,-1.27,-1.30,-1.29
104,5.53,6.89,5.52,6.86,-6.86,-6.03,-1.33,-1.34,-1.36
105,5.50,6.89,5.49,6.88,-6.88,-6.16,-1.38,-1.38,-1.40
106,5.45,6.88,5.46,6.89,-6.89,-6.28,-1.44,-1.42,-1.43
107,5.40,6.87,5.43,6.90,-6.90,-6.40,-1.50,-1.46,-1.47
108,5.38,6.88,5.40,6.90,-6.90,-6.52,-1.52,-1.50,-1.51
109,5.34,6.88,5.36,6.90,-6.90,-6.64,-1.57,-1.54,-1.54
110,5.30,6.87,5.33,6.90,-6.90,-6.75,-1.60,-1.57,-1.57
111,5.27,6.87,5.29,6.89,-6.89,-6.86,-1.63,-1.61,-1.61
112,5.25,6.89,5.24,6.89,-6.89,-6.96,-1.64,-1.64,-1.64
113,5.20,6.87,5.20,6.87,-6.87,-7.05,-1.68,-1.68,-1.67
114,5.18,6.88,5.15,6.86,-6.86,-7.14,-1.68,-1.71,-1.70
115,5.15,6.88,5.09,6.84,-6.84,-7.23,-1.70,-1.75,-1.73
117,5.04,6.83,5.03,6.82,-6.82,-7.37,-1.78,-1.78,-1.79
118,4.98,6.80,4.97,6.79,-6.79,-7.43,-1.81,-1.82,-1.82
119,4.91,6.76,4.90,6.75,-6.75,-7.48,-1.85,-1.85,-1.85
120,4.82,6.70,4.83,6.71,-6.71,-7.52,-1.90,-1.89,-1.88
121,4.77,6.68,4.75,6.67,-6.67,-7.55,-1.90,-1.92,-1.91
123,4.64,6.60,4.67,6.62,-6.62,-7.59,-1.98,-1.95,-1.96
124,4.57,6.56,4.58,6.56,-6.56,-7.59,-2.00,-1.98,-1.99
125,4.51,6.52,4.48,6.50,-6.50,-7.58,-1.99,-2.02,-2.01
126,4.44,6.48,4.39,6.43,-6.43,-7.57,-2.00,-2.05,-2.04
128,4.27,6.35,4.28,6.36,-6.36,-7.51,-2.10,-2.08,-2.09
129,4.19,6.30,4.18,6.29,-6.29,-7.47,-2.10,-2.11,-2.11
130,4.10,6.23,4.08,6.22,-6.22,-7.43,-2.12,-2.14,-2.13
131,4.02,6.17,3.97,6.14,-6.14,-7.37,-2.12,-2.17,-2.16
133,3.83,6.03,3.87,6.06,-6.06,-7.24,-2.24,-2.20,-2.20
134,3.75,5.97,3.76,5.99,-5.99,-7.17,-2.24,-2.22,-2.22
135,3.67,5.91,3.66,5.91,-5.91,-7.09,-2.25,-2.25,-2.24
137,3.49,5.77,3.56,5.84,-5.84,-6.91,-2.35,-2.28,-2.28
138,3.43,5.73,3.46,5.77,-5.77,-6.82,-2.34,-2.30,-2.30
140,3.33,5.66,3.37,5.70,-5.70,-6.63,-2.37,-2.33,-2.34
141,3.28,5.63,3.27,5.63,-5.63,-6.53,-2.35,-2.36,-2.36
142,3.21,5.58,3.18,5.56,-5.56,-6.42,-2.35,-2.38,-2.37
144,3.10,5.50,3.08,5.49,-5.49,-6.21,-2.39,-2.41,-2.41
145,3.04,5.46,2.99,5.42,-5.42,-6.11,-2.38,-2.43,-2.42
147,2.92,5.37,2.89,5.34,-5.34,-5.89,-2.43,-2.45,-2.46
148,2.82,5.29,2.79,5.27,-5.27,-5.78,-2.45,-2.47,-2.47
150,2.68,5.18,2.69,5.18,-5.18,-5.56,-2.51,-2.50,-2.50
151,2.60,5.11,2.58,5.10,-5.10,-5.46,-2.50,-2.52,-2.51
153,2.44,4.98,2.47,5.01,-5.01,-5.24,-2.57,-2.54,-2.54
154,2.37,4.92,2.36,4.91,-4.91,-5.14,-2.55,-2.56,-2.56
156,2.20,4.78,2.24,4.82,-4.82,-4.93,-2.62,-2.58,-2.58
157,2.13,4.72,2.12,4.71,-4.71,-4.82,-2.59,-2.60,-2.59
159,1.99,4.60,1.99,4.61,-4.61,-4.62,-2.62,-2.62,-2.62
160,1.91,4.53,1.86,4.50,-4.50,-4.52,-2.59,-2.63,-2.63
162,1.76,4.41,1.73,4.38,-4.38,-4.32,-2.63,-2.65,-2.65
164,1.58,4.25,1.60,4.26,-4.26,-4.13,-2.69,-2.67,-2.67
165,1.49,4.17,1.46,4.14,-4.14,-4.04,-2.66,-2.68,-2.68
167,1.32,4.02,1.32,4.02,-4.02,-3.86,-2.70,-2.70,-2.70
169,1.14,3.86,1.18,3.89,-3.89,-3.68,-2.76,-2.72,-2.72
170,1.05,3.77,1.03,3.76,-3.76,-3.59,-2.72,-2.73,-2.73
172,0.88,3.62,0.89,3.63,-3.63,-3.42,-2.76,-2.75,-2.75
174,0.70,3.46,0.74,3.50,-3.50,-3.25,-2.80,-2.76,-2.76
175,0.64,3.41,0.59,3.36,-3.36,-3.17,-2.73,-2.77,-2.77
177,0.46,3.24,0.44,3.23,-3.23,-3.02,-2.77,-2.79,-2.79
179,0.30,3.10,0.29,3.09,-3.09,-2.86,-2.79,-2.80,-2.80
181,0.12,2.93,0.13,2.95,-2.95,-2.71,-2.83,-2.81,-2.82
183,-0.06,2.77,-0.02,2.81,-2.81,-2.57,-2.87,-2.83,-2.83
184,-0.12,2.71,-0.18,2.66,-2.66,-2.50,-2.79,-2.84,-2.84
186,-0.29,2.56,-0.33,2.52,-2.52,-2.36,-2.81,-2.85,-2.85
188,-0.48,2.38,-0.49,2.38,-2.38,-2.22,-2.86,-2.86,-2.86
190,-0.63,2.24,-0.64,2.24,-2.24,-2.09,-2.87,-2.87,-2.87
192,-0.79,2.09,-0.79,2.10,-2.10,-1.96,-2.89,-2.89,-2.89
194,-0.93,1.96,-0.94,1.96,-1.96,-1.84,-2.90,-2.90,-2.90
196,-1.09,1.81,-1.08,1.83,-1.83,-1.72,-2.92,-2.91,-2.91
198,-1.23,1.68,-1.22,1.70,-1.70,-1.60,-2.93,-2.92,-2.92
200,-1.38,1.54,-1.35,1.58,-1.58,-1.49,-2.96,-2.93,-2.93
202,-1.51,1.42,-1.48,1.46,-1.46,-1.38,-2.97,-2.94,-2.94
204,-1.62,1.32,-1.60,1.35,-1.35,-1.27,-2.97,-2.95,-2.95
206,-1.73,1.22,-1.72,1.24,-1.24,-1.17,-2.97,-2.95,-2.95
208,-1.81,1.15,-1.83,1.13,-1.13,-1.06,-2.95,-2.96,-2.96
210,-1.92,1.05,-1.94,1.03,-1.03,-0.97,-2.95,-2.97,-2.97
212,-2.02,0.95,-2.04,0.93,-0.93,-0.87,-2.96,-2.98,-2.98
214,-2.12,0.86,-2.15,0.84,-0.84,-0.78,-2.96,-2.98,-2.98
216,-2.22,0.76,-2.24,0.74,-0.74,-0.69,-2.97,-2.99,-2.99
218,-2.33,0.66,-2.34,0.65,-0.65,-0.61,-2.98,-2.99,-2.99
221,-2.45,0.54,-2.44,0.56,-0.56,-0.48,-3.01,-2.99,-3.00
223,-2.53,0.46,-2.53,0.47,-0.47,-0.41,-3.00,-3.00,-3.00
225,-2.62,0.38,-2.62,0.38,-0.38,-0.33,-3.00,-3.00,-3.00
227,-2.70,0.30,-2.71,0.29,-0.29,-0.26,-2.99,-3.00,-3.00
229,-2.77,0.22,-2.80,0.20,-0.20,-0.19,-2.97,-3.00,-3.00
232,-2.89,0.11,-2.88,0.11,-0.11,-0.10,-3.01,-3.00,-3.00
234,-2.96,0.03,-2.96,0.03,-0.03,-0.04,-3.00,-3.00,-3.00
236,-3.01,-0.02,-3.04,-0.05,0.05,0.02,-2.97,-2.99,-2.99
239,-3.10,-0.11,-3.11,-0.12,0.12,0.10,-2.98,-2.99,-2.99
241,-3.17,-0.19,-3.17,-0.19,0.19,0.15,-2.98,-2.98,-2.98
244,-3.26,-0.29,-3.23,-0.25,0.25,0.21,-3.01,-2.98,-2.98
246,-3.30,-0.33,-3.28,-0.31,0.31,0.25,-3.00,-2.97,-2.97
248,-3.33,-0.37,-3.32,-0.36,0.36,0.29,-2.98,-2.96,-2.96
251,-3.38,-0.43,-3.35,-0.40,0.40,0.34,-2.98,-2.95,-2.95
253,-3.38,-0.44,-3.38,-0.43,0.43,0.38,-2.95,-2.94,-2.94
256,-3.43,-0.50,-3.40,-0.46,0.46,0.42,-2.97,-2.93,-2.93
259,-3.43,-0.51,-3.41,-0.49,0.49,0.45,-2.95,-2.92,-2.92
261,-3.43,-0.52,-3.42,-0.51,0.51,0.47,-2.93,-2.91,-2.91
264,-3.41,-0.52,-3.42,-0.53,0.53,0.50,-2.89,-2.90,-2.90
266,-3.38,-0.50,-3.42,-0.54,0.54,0.52,-2.84,-2.88,-2.88
269,-3.38,-0.51,-3.42,-0.55,0.55,0.54,-2.83,-2.87,-2.87
272,-3.38,-0.53,-3.42,-0.57,0.57,0.55,-2.82,-2.85,-2.86
274,-3.38,-0.55,-3.42,-0.58,0.58,0.56,-2.80,-2.84,-2.84
277,-3.38,-0.56,-3.42,-0.59,0.59,0.57,-2.79,-2.82,-2.82
280,-3.39,-0.59,-3.41,-0.61,0.61,0.58,-2.79,-2.81,-2.81
283,-3.43,-0.64,-3.41,-0.62,0.62,0.58,-2.82,-2.79,-2.79
286,-3.43,-0.66,-3.40,-0.63,0.63,0.59,-2.81,-2.77,-2.77
288,-3.43,-0.68,-3.39,-0.63,0.63,0.59,-2.80,-2.75,-2.75
291,-3.42,-0.69,-3.38,-0.64,0.64,0.59,-2.78,-2.74,-2.74
294,-3.38,-0.67,-3.36,-0.64,0.64,0.59,-2.74,-2.72,-2.72
297,-3.34,-0.65,-3.34,-0.65,0.65,0.58,-2.70,-2.70,-2.70
300,-3.30,-0.63,-3.32,-0.64,0.64,0.58,-2.66,-2.68,-2.68
303,-3.25,-0.60,-3.30,-0.64,0.64,0.57,-2.61,-2.66,-2.66
306,-3.24,-0.61,-3.27,-0.64,0.64,0.57,-2.61,-2.64,-2.64
309,-3.24,-0.63,-3.25,-0.63,0.63,0.56,-2.61,-2.62,-2.62
312,-3.23,-0.64,-3.22,-0.62,0.62,0.56,-2.61,-2.60,-2.60
316,-3.17,-0.60,-3.19,-0.62,0.62,0.55,-2.56,-2.58,-2.58
319,-3.15,-0.60,-3.16,-0.61,0.61,0.54,-2.55,-2.55,-2.56
322,-3.15,-0.62,-3.13,-0.60,0.60,0.54,-2.56,-2.53,-2.53
325,-3.10,-0.59,-3.10,-0.59,0.59,0.53,-2.52,-2.51,-2.51
328,-3.10,-0.61,-3.07,-0.58,0.58,0.53,-2.53,-2.49,-2.49
332,-3.05,-0.58,-3.04,-0.57,0.57,0.52,-2.49,-2.47,-2.47
335,-3.02,-0.57,-3.01,-0.56,0.56,0.51,-2.47,-2.45,-2.45
338,-2.97,-0.54,-2.98,-0.55,0.55,0.51,-2.43,-2.43,-2.43
342,-2.91,-0.50,-2.95,-0.54,0.54,0.50,-2.38,-2.41,-2.41
345,-2.87,-0.48,-2.92,-0.53,0.53,0.50,-2.35,-2.39,-2.39
349,-2.87,-0.50,-2.89,-0.52,0.52,0.50,-2.36,-2.37,-2.37
352,-2.87,-0.52,-2.86,-0.51,0.51,0.49,-2.37,-2.36,-2.36
356,-2.82,-0.49,-2.84,-0.50,0.50,0.49,-2.33,-2.34,-2.34
359,-2.82,-0.50,-2.81,-0.49,0.49,0.49,-2.33,-2.32,-2.32
363,-2.78,-0.48,-2.79,-0.48,0.48,0.49,-2.30,-2.31,-2.30
366,-2.78,-0.49,-2.76,-0.47,0.47,0.48,-2.31,-2.29,-2.29
370,-2.74,-0.47,-2.74,-0.46,0.46,0.48,-2.28,-2.28,-2.27
374,-2.73,-0.47,-2.71,-0.45,0.45,0.48,-2.28,-2.26,-2.26
377,-2.69,-0.45,-2.69,-0.44,0.44,0.48,-2.25,-2.25,-2.25
381,-2.67,-0.44,-2.67,-0.43,0.43,0.49,-2.24,-2.24,-2.24
385,-2.64,-0.42,-2.65,-0.42,0.42,0.49,-2.22,-2.23,-2.22
389,-2.59,-0.38,-2.63,-0.41,0.41,0.49,-2.18,-2.21,-2.21
393,-2.59,-0.39,-2.61,-0.40,0.40,0.49,-2.19,-2.20,-2.20
397,-2.59,-0.40,-2.59,-0.39,0.39,0.49,-2.20,-2.20,-2.20
401,-2.58,-0.40,-2.57,-0.38,0.38,0.50,-2.20,-2.19,-2.19
405,-2.54,-0.37,-2.55,-0.37,0.37,0.50,-2.17,-2.18,-2.18
409,-2.50,-0.33,-2.54,-0.37,0.37,0.50,-2.14,-2.17,-2.17
413,-2.50,-0.34,-2.52,-0.36,0.36,0.51,-2.15,-2.16,-2.16
417,-2.50,-0.35,-2.51,-0.35,0.35,0.51,-2.15,-2.16,-2.16
421,-2.50,-0.36,-2.49,-0.35,0.35,0.52,-2.16,-2.15,-2.15
425,-2.50,-0.36,-2.48,-0.34,0.34,0.52,-2.16,-2.14,-2.14
430,-2.50,-0.37,-2.47,-0.33,0.33,0.52,-2.17,-2.13,-2.13
434,-2.45,-0.33,-2.45,-0.33,0.33,0.53,-2.13,-2.13,-2.13
438,-2.44,-0.33,-2.44,-0.32,0.32,0.53,-2.12,-2.12,-2.12
443,-2.40,-0.29,-2.42,-0.31,0.31,0.53,-2.09,-2.11,-2.11
447,-2.40,-0.30,-2.40,-0.30,0.30,0.54,-2.10,-2.10,-2.10
451,-2.36,-0.27,-2.39,-0.29,0.29,0.54,-2.07,-2.09,-2.09
456,-2.36,-0.28,-2.37,-0.29,0.29,0.54,-2.08,-2.08,-2.08
460,-2.36,-0.29,-2.35,-0.28,0.28,0.54,-2.08,-2.07,-2.07
465,-2.35,-0.29,-2.33,-0.27,0.27,0.54,-2.08,-2.06,-2.06
470,-2.31,-0.27,-2.31,-0.27,0.27,0.54,-2.05,-2.05,-2.05
474,-2.28,-0.25,-2.30,-0.26,0.26,0.54,-2.02,-2.03,-2.03
479,-2.26,-0.24,-2.28,-0.26,0.26,0.54,-2.01,-2.02,-2.02
484,-2.26,-0.26,-2.26,-0.26,0.26,0.53,-2.01,-2.01,-2.01
489,-2.26,-0.27,-2.25,-0.26,0.26,0.53,-2.01,-1.99,-1.99
494,-2.22,-0.25,-2.23,-0.26,0.26,0.52,-1.97,-1.98,-1.98
499,-2.20,-0.24,-2.22,-0.26,0.26,0.52,-1.94,-1.96,-1.96
504,-2.17,-0.23,-2.21,-0.26,0.26,0.51,-1.91,-1.94,-1.94
509,-2.17,-0.25,-2.19,-0.27,0.27,0.50,-1.91,-1.92,-1.93
514,-2.17,-0.27,-2.18,-0.27,0.27,0.49,-1.91,-1.91,-1.91
519,-2.17,-0.29,-2.16,-0.27,0.27,0.48,-1.90,-1.89,-1.89
524,-2.17,-0.30,-2.14,-0.27,0.27,0.47,-1.90,-1.87,-1.87
529,-2.17,-0.32,-2.12,-0.27,0.27,0.45,-1.91,-1.85,-1.85
535,-2.14,-0.31,-2.10,-0.27,0.27,0.44,-1.88,-1.83,-1.83
540,-2.10,-0.29,-2.07,-0.26,0.26,0.42,-1.84,-1.81,-1.81
545,-2.04,-0.25,-2.05,-0.26,0.26,0.41,-1.78,-1.79,-1.79
551,-1.98,-0.22,-2.03,-0.26,0.26,0.39,-1.72,-1.77,-1.77
556,-1.98,-0.24,-2.01,-0.26,0.26,0.37,-1.72,-1.75,-1.75
562,-1.94,-0.22,-1.99,-0.26,0.26,0.35,-1.68,-1.73,-1.73
568,-1.94,-0.24,-1.97,-0.27,0.27,0.33,-1.68,-1.71,-1.71
573,-1.94,-0.26,-1.96,-0.27,0.27,0.31,-1.67,-1.69,-1.69
579,-1.94,-0.28,-1.95,-0.28,0.28,0.29,-1.66,-1.67,-1.67
585,-1.94,-0.29,-1.95,-0.30,0.30,0.27,-1.65,-1.65,-1.65
591,-1.94,-0.31,-1.94,-0.31,0.31,0.25,-1.63,-1.63,-1.63
596,-1.94,-0.33,-1.94,-0.33,0.33,0.23,-1.62,-1.61,-1.61
602,-1.94,-0.35,-1.94,-0.34,0.34,0.20,-1.60,-1.60,-1.59
608,-1.94,-0.37,-1.93,-0.35,0.35,0.18,-1.59,-1.58,-1.58
615,-1.94,-0.38,-1.93,-0.37,0.37,0.15,-1.58,-1.56,-1.56
621,-1.94,-0.40,-1.92,-0.38,0.38,0.13,-1.57,-1.55,-1.55
627,-1.94,-0.41,-1.92,-0.39,0.39,0.10,-1.56,-1.53,-1.53
633,-1.90,-0.39,-1.91,-0.39,0.39,0.08,-1.51,-1.52,-1.52
639,-1.89,-0.39,-1.89,-0.39,0.39,0.06,-1.50,-1.50,-1.50
646,-1.86,-0.38,-1.88,-0.39,0.39,0.03,-1.47,-1.49,-1.49
652,-1.84,-0.37,-1.86,-0.39,0.39,0.01,-1.45,-1.48,-1.47
659,-1.84,-0.38,-1.85,-0.38,0.38,-0.02,-1.46,-1.46,-1.46
665,-1.84,-0.39,-1.83,-0.38,0.38,-0.04,-1.47,-1.45,-1.45
672,-1.81,-0.37,-1.81,-0.37,0.37,-0.07,-1.44,-1.44,-1.44
679,-1.80,-0.38,-1.79,-0.36,0.36,-0.10,-1.44,-1.43,-1.43
686,-1.75,-0.34,-1.77,-0.35,0.35,-0.13,-1.40,-1.42,-1.42
692,-1.73,-0.33,-1.75,-0.34,0.34,-0.15,-1.39,-1.41,-1.41
699,-1.70,-0.30,-1.72,-0.33,0.33,-0.18,-1.38,-1.40,-1.40
706,-1.70,-0.31,-1.70,-0.31,0.31,-0.20,-1.39,-1.39,-1.39
713,-1.66,-0.28,-1.67,-0.29,0.29,-0.23,-1.37,-1.38,-1.38
721,-1.65,-0.28,-1.65,-0.27,0.27,-0.26,-1.38,-1.37,-1.37
728,-1.61,-0.25,-1.61,-0.25,0.25,-0.28,-1.36,-1.37,-1.37
735,-1.59,-0.24,-1.58,-0.22,0.22,-0.31,-1.37,-1.36,-1.36
742,-1.56,-0.21,-1.54,-0.19,0.19,-0.34,-1.37,-1.35,-1.35
750,-1.53,-0.19,-1.50,-0.16,0.16,-0.37,-1.37,-1.34,-1.34
757,-1.49,-0.16,-1.46,-0.13,0.13,-0.39,-1.37,-1.34,-1.34
765,-1.45,-0.12,-1.42,-0.09,0.09,-0.42,-1.36,-1.33,-1.33
773,-1.37,-0.05,-1.38,-0.05,0.05,-0.45,-1.32,-1.33,-1.33
780,-1.32,-0.00,-1.34,-0.02,0.02,-0.47,-1.31,-1.32,-1.32
788,-1.26,0.05,-1.30,0.02,-0.02,-0.50,-1.28,-1.32,-1.32
796,-1.23,0.08,-1.26,0.05,-0.05,-0.53,-1.29,-1.31,-1.31
804,-1.17,0.13,-1.22,0.09,-0.09,-0.56,-1.26,-1.31,-1.31
812,-1.14,0.16,-1.19,0.12,-0.12,-0.59,-1.26,-1.30,-1.30
820,-1.11,0.19,-1.16,0.14,-0.14,-0.61,-1.26,-1.30,-1.30
828,-1.10,0.19,-1.13,0.17,-0.17,-0.64,-1.27,-1.30,-1.30
837,-1.10,0.19,-1.10,0.20,-0.20,-0.67,-1.30,-1.29,-1.29
845,-1.09,0.20,-1.07,0.23,-0.23,-0.69,-1.32,-1.29,-1.29
853,-1.05,0.23,-1.03,0.26,-0.26,-0.72,-1.31,-1.29,-1.29
862,-1.00,0.28,-0.99,0.29,-0.29,-0.74,-1.29,-1.28,-1.28
871,-0.98,0.30,-0.95,0.33,-0.33,-0.77,-1.31,-1.28,-1.28
879,-0.94,0.33,-0.90,0.37,-0.37,-0.79,-1.32,-1.28,-1.28
888,-0.89,0.38,-0.85,0.43,-0.43,-0.81,-1.32,-1.27,-1.27
897,-0.81,0.45,-0.79,0.48,-0.48,-0.84,-1.30,-1.27,-1.27
906,-0.74,0.52,-0.72,0.54,-0.54,-0.86,-1.29,-1.26,-1.26
915,-0.63,0.62,-0.65,0.61,-0.61,-0.88,-1.24,-1.26,-1.26
924,-0.57,0.68,-0.57,0.68,-0.68,-0.90,-1.25,-1.25,-1.25
933,-0.48,0.76,-0.50,0.75,-0.75,-0.91,-1.23,-1.24,-1.24
943,-0.39,0.84,-0.42,0.81,-0.81,-0.93,-1.21,-1.23,-1.23
952,-0.32,0.90,-0.34,0.88,-0.88,-0.94,-1.20,-1.22,-1.22
962,-0.24,0.97,-0.26,0.94,-0.94,-0.96,-1.19,-1.21,-1.21
971,-0.16,1.03,-0.19,1.00,-1.00,-0.97,-1.17,-1.20,-1.20
981,-0.09,1.09,-0.12,1.06,-1.06,-0.98,-1.15,-1.18,-1.18
991,-0.05,1.11,-0.06,1.11,-1.11,-0.99,-1.16,-1.16,-1.17
1001,0.01,1.15,0.01,1.16,-1.16,-0.99,-1.15,-1.15,-1.15
1011,0.07,1.19,0.07,1.20,-1.20,-1.00,-1.13,-1.13,-1.13
1021,0.13,1.23,0.13,1.23,-1.23,-1.00,-1.11,-1.11,-1.11
1031,0.19,1.27,0.18,1.27,-1.27,-1.00,-1.08,-1.09,-1.09
1041,0.22,1.28,0.24,1.30,-1.30,-1.00,-1.08,-1.06,-1.06
1052,0.27,1.30,0.29,1.33,-1.33,-1.00,-1.06,-1.04,-1.04
1062,0.33,1.34,0.34,1.35,-1.35,-1.00,-1.02,-1.01,-1.01
1073,0.37,1.35,0.39,1.37,-1.37,-1.00,-1.00,-0.98,-0.98
1084,0.42,1.37,0.43,1.39,-1.39,-0.99,-0.97,-0.95,-0.95
1094,0.49,1.41,0.48,1.40,-1.40,-0.98,-0.91,-0.92,-0.92
1105,0.56,1.45,0.52,1.41,-1.41,-0.98,-0.85,-0.89,-0.89
1116,0.58,1.43,0.55,1.41,-1.41,-0.97,-0.83,-0.86,-0.86
1128,0.59,1.41,0.58,1.41,-1.41,-0.96,-0.82,-0.82,-0.82
1139,0.63,1.41,0.61,1.40,-1.40,-0.95,-0.77,-0.78,-0.78
1150,0.65,1.39,0.63,1.38,-1.38,-0.94,-0.73,-0.75,-0.75
1162,0.68,1.38,0.65,1.36,-1.36,-0.93,-0.68,-0.71,-0.71
1173,0.68,1.34,0.67,1.33,-1.33,-0.92,-0.66,-0.66,-0.67
1185,0.70,1.32,0.68,1.30,-1.30,-0.90,-0.61,-0.62,-0.62
1197,0.70,1.27,0.69,1.27,-1.27,-0.89,-0.58,-0.58,-0.58
1209,0.70,1.23,0.71,1.24,-1.24,-0.88,-0.54,-0.53,-0.53
1221,0.72,1.20,0.72,1.20,-1.20,-0.87,-0.48,-0.48,-0.48
1233,0.72,1.15,0.73,1.16,-1.16,-0.86,-0.45,-0.43,-0.43
1246,0.72,1.10,0.75,1.13,-1.13,-0.84,-0.41,-0.38,-0.38
1258,0.74,1.06,0.77,1.09,-1.09,-0.83,-0.36,-0.33,-0.33
1271,0.79,1.06,0.79,1.06,-1.06,-0.82,-0.27,-0.27,-0.27
1283,0.82,1.03,0.81,1.03,-1.03,-0.81,-0.21,-0.21,-0.21
1296,0.86,1.01,0.84,1.00,-1.00,-0.80,-0.14,-0.16,-0.16
1309,0.91,1.00,0.88,0.97,-0.97,-0.79,-0.07,-0.10,-0.10
1322,0.93,0.96,0.92,0.95,-0.95,-0.78,-0.03,-0.03,-0.03
1335,0.96,0.93,0.97,0.94,-0.94,-0.77,0.02,0.03,0.03
1349,1.01,0.91,1.02,0.92,-0.92,-0.76,0.08,0.09,0.09
1362,1.04,0.88,1.07,0.91,-0.91,-0.76,0.12,0.16,0.16
1376,1.11,0.88,1.13,0.91,-0.91,-0.75,0.20,0.23,0.23
1390,1.19,0.89,1.20,0.90,-0.90,-0.74,0.28,0.29,0.30
1404,1.26,0.89,1.26,0.90,-0.90,-0.74,0.36,0.36,0.36
1418,1.35,0.91,1.34,0.90,-0.90,-0.73,0.44,0.43,0.44
1432,1.43,0.92,1.41,0.90,-0.90,-0.73,0.52,0.51,0.51
1446,1.49,0.91,1.48,0.90,-0.90,-0.72,0.58,0.58,0.58
1461,1.56,0.90,1.56,0.91,-0.91,-0.72,0.65,0.65,0.65
1475,1.66,0.93,1.64,0.91,-0.91,-0.72,0.75,0.73,0.73
1490,1.74,0.93,1.71,0.91,-0.91,-0.71,0.83,0.81,0.81
1505,1.81,0.92,1.79,0.90,-0.90,-0.71,0.90,0.88,0.89
1520,1.89,0.92,1.86,0.90,-0.90,-0.71,0.99,0.97,0.97
1535,1.97,0.92,1.94,0.89,-0.89,-0.71,1.08,1.05,1.05
1550,2.04,0.90,2.01,0.88,-0.88,-0.71,1.15,1.13,1.13
1566,2.11,0.89,2.09,0.88,-0.88,-0.71,1.23,1.22,1.22
1582,2.18,0.87,2.18,0.87,-0.87,-0.71,1.30,1.31,1.31
1597,2.26,0.86,2.27,0.87,-0.87,-0.71,1.39,1.40,1.40
1613,2.36,0.87,2.36,0.87,-0.87,-0.71,1.48,1.49,1.49
1629,2.44,0.85,2.47,0.88,-0.88,-0.71,1.55,1.59,1.58
1646,2.58,0.89,2.58,0.90,-0.90,-0.72,1.68,1.68,1.68
1662,2.69,0.90,2.71,0.93,-0.93,-0.72,1.76,1.78,1.78
1679,2.83,0.94,2.85,0.97,-0.97,-0.72,1.86,1.89,1.89
1696,2.98,0.98,3.01,1.01,-1.01,-0.72,1.96,1.99,1.99
1713,3.14,1.04,3.18,1.07,-1.07,-0.72,2.06,2.10,2.10
