frequency,raw,smoothed,error,error_smoothed,equalization,parametric_eq,fixed_band_eq,equalized_raw,equalized_smoothed,target
20.00,-6.39,-6.39,-5.15,-5.15,5.16,5.15,1.39,-1.23,-1.23,-1.24
20.20,-6.32,-6.32,-5.11,-5.11,5.11,5.09,1.44,-1.21,-1.21,-1.21
20.40,-6.25,-6.25,-5.06,-5.06,5.06,5.03,1.48,-1.19,-1.19,-1.18
20.61,-6.18,-6.18,-5.02,-5.02,5.01,4.98,1.52,-1.17,-1.17,-1.16
20.81,-6.10,-6.10,-4.96,-4.97,4.95,4.92,1.57,-1.14,-1.15,-1.13
21.02,-6.03,-6.03,-4.92,-4.92,4.90,4.86,1.62,-1.13,-1.13,-1.11
21.23,-5.96,-5.95,-4.86,-4.86,4.85,4.81,1.67,-1.11,-1.11,-1.10
21.44,-5.88,-5.88,-4.79,-4.80,4.79,4.75,1.72,-1.09,-1.09,-1.09
21.66,-5.81,-5.80,-4.73,-4.72,4.73,4.69,1.77,-1.08,-1.07,-1.08
21.87,-5.73,-5.73,-4.65,-4.66,4.67,4.63,1.83,-1.05,-1.06,-1.08
22.09,-5.67,-5.67,-4.60,-4.60,4.62,4.58,1.88,-1.05,-1.06,-1.07
22.31,-5.63,-5.62,-4.56,-4.55,4.56,4.52,1.94,-1.07,-1.06,-1.07
22.54,-5.58,-5.58,-4.51,-4.51,4.51,4.46,2.00,-1.07,-1.07,-1.07
22.76,-5.54,-5.54,-4.47,-4.46,4.46,4.40,2.06,-1.08,-1.08,-1.07
22.99,-5.49,-5.49,-4.41,-4.41,4.41,4.35,2.12,-1.08,-1.08,-1.08
23.22,-5.44,-5.44,-4.36,-4.36,4.36,4.29,2.18,-1.08,-1.08,-1.08
23.45,-5.39,-5.39,-4.31,-4.31,4.31,4.23,2.24,-1.08,-1.08,-1.08
23.69,-5.34,-5.34,-4.26,-4.26,4.25,4.17,2.31,-1.09,-1.09,-1.08
23.92,-5.29,-5.28,-4.20,-4.20,4.19,4.11,2.38,-1.09,-1.09,-1.08
24.16,-5.22,-5.22,-4.14,-4.14,4.13,4.05,2.44,-1.09,-1.09,-1.07
24.40,-5.15,-5.15,-4.07,-4.07,4.06,3.99,2.51,-1.09,-1.08,-1.08
24.65,-5.07,-5.07,-3.98,-3.99,3.99,3.94,2.58,-1.08,-1.08,-1.09
24.89,-5.00,-5.00,-3.91,-3.91,3.92,3.88,2.65,-1.08,-1.08,-1.09
25.14,-4.93,-4.93,-3.84,-3.84,3.84,3.82,2.72,-1.09,-1.09,-1.09
25.39,-4.86,-4.86,-3.77,-3.77,3.76,3.76,2.79,-1.09,-1.09,-1.09
25.65,-4.79,-4.79,-3.70,-3.69,3.69,3.70,2.86,-1.10,-1.10,-1.09
25.91,-4.72,-4.72,-3.62,-3.62,3.62,3.64,2.93,-1.10,-1.10,-1.10
26.16,-4.65,-4.65,-3.55,-3.55,3.56,3.58,3.00,-1.09,-1.10,-1.10
26.43,-4.60,-4.59,-3.50,-3.49,3.50,3.53,3.07,-1.10,-1.09,-1.10
26.69,-4.54,-4.54,-3.43,-3.43,3.45,3.47,3.14,-1.09,-1.09,-1.10
26.96,-4.49,-4.50,-3.38,-3.39,3.40,3.41,3.21,-1.09,-1.09,-1.11
27.23,-4.46,-4.46,-3.35,-3.35,3.36,3.35,3.27,-1.10,-1.10,-1.11
27.50,-4.43,-4.43,-3.32,-3.32,3.31,3.29,3.33,-1.12,-1.12,-1.11
27.77,-4.40,-4.40,-3.28,-3.28,3.26,3.23,3.39,-1.14,-1.14,-1.12
28.05,-4.37,-4.36,-3.25,-3.23,3.21,3.17,3.45,-1.16,-1.15,-1.12
28.33,-4.30,-4.30,-3.17,-3.17,3.16,3.11,3.50,-1.14,-1.14,-1.13
28.62,-4.23,-4.23,-3.10,-3.10,3.10,3.06,3.54,-1.13,-1.13,-1.13
28.90,-4.16,-4.16,-3.02,-3.02,3.04,3.00,3.59,-1.11,-1.12,-1.14
29.19,-4.11,-4.11,-2.96,-2.97,2.98,2.94,3.63,-1.13,-1.13,-1.15
29.48,-4.06,-4.06,-2.92,-2.92,2.92,2.88,3.66,-1.14,-1.14,-1.14
29.78,-4.02,-4.01,-2.87,-2.86,2.85,2.82,3.68,-1.17,-1.16,-1.15
30.08,-3.96,-3.96,-2.81,-2.81,2.79,2.77,3.70,-1.17,-1.17,-1.15
30.38,-3.90,-3.90,-2.73,-2.74,2.73,2.71,3.72,-1.16,-1.16,-1.16
30.68,-3.84,-3.84,-2.67,-2.67,2.68,2.65,3.72,-1.16,-1.16,-1.17
30.99,-3.78,-3.78,-2.60,-2.61,2.62,2.59,3.73,-1.16,-1.16,-1.18
31.30,-3.74,-3.74,-2.56,-2.56,2.56,2.54,3.72,-1.18,-1.18,-1.18
31.61,-3.70,-3.70,-2.52,-2.51,2.51,2.48,3.71,-1.19,-1.19,-1.18
31.93,-3.66,-3.66,-2.46,-2.46,2.45,2.42,3.68,-1.21,-1.20,-1.20
32.24,-3.61,-3.60,-2.40,-2.40,2.40,2.36,3.66,-1.21,-1.21,-1.21
32.57,-3.55,-3.55,-2.34,-2.34,2.35,2.31,3.62,-1.20,-1.21,-1.21
32.89,-3.50,-3.50,-2.28,-2.28,2.29,2.25,3.58,-1.20,-1.21,-1.21
33.22,-3.46,-3.46,-2.23,-2.24,2.24,2.20,3.54,-1.22,-1.22,-1.23
33.55,-3.42,-3.42,-2.19,-2.19,2.18,2.14,3.49,-1.24,-1.24,-1.23
33.89,-3.38,-3.37,-2.14,-2.13,2.12,2.08,3.43,-1.26,-1.26,-1.24
34.23,-3.32,-3.32,-2.07,-2.07,2.05,2.03,3.36,-1.26,-1.26,-1.24
34.57,-3.26,-3.26,-2.00,-2.00,2.00,1.97,3.30,-1.26,-1.26,-1.26
34.92,-3.19,-3.19,-1.92,-1.93,1.94,1.92,3.23,-1.25,-1.25,-1.27
35.27,-3.14,-3.14,-1.86,-1.86,1.89,1.86,3.15,-1.25,-1.25,-1.27
35.62,-3.10,-3.10,-1.81,-1.81,1.83,1.81,3.07,-1.27,-1.27,-1.29
35.97,-3.06,-3.06,-1.76,-1.77,1.77,1.75,2.99,-1.29,-1.29,-1.30
36.33,-3.04,-3.04,-1.73,-1.73,1.71,1.70,2.90,-1.32,-1.33,-1.31
36.70,-3.02,-3.02,-1.70,-1.70,1.66,1.65,2.82,-1.36,-1.35,-1.32
37.06,-2.99,-2.97,-1.65,-1.64,1.61,1.59,2.73,-1.37,-1.35,-1.33
37.43,-2.90,-2.90,-1.56,-1.56,1.57,1.54,2.64,-1.33,-1.33,-1.34
37.81,-2.82,-2.83,-1.47,-1.48,1.52,1.49,2.55,-1.30,-1.31,-1.35
38.19,-2.78,-2.80,-1.41,-1.44,1.47,1.44,2.46,-1.31,-1.32,-1.37
38.57,-2.79,-2.79,-1.42,-1.42,1.42,1.38,2.37,-1.37,-1.37,-1.37
38.95,-2.81,-2.78,-1.42,-1.39,1.36,1.33,2.27,-1.45,-1.42,-1.39
39.34,-2.75,-2.75,-1.35,-1.35,1.30,1.28,2.18,-1.45,-1.45,-1.40
39.74,-2.68,-2.69,-1.26,-1.28,1.24,1.23,2.09,-1.44,-1.45,-1.42
40.14,-2.62,-2.61,-1.20,-1.19,1.19,1.18,1.99,-1.43,-1.42,-1.42
40.54,-2.55,-2.55,-1.11,-1.11,1.14,1.13,1.90,-1.41,-1.41,-1.44
40.94,-2.48,-2.49,-1.04,-1.05,1.09,1.08,1.81,-1.39,-1.41,-1.44
41.35,-2.46,-2.46,-1.00,-1.00,1.04,1.03,1.72,-1.42,-1.42,-1.46
41.76,-2.44,-2.44,-0.97,-0.97,0.99,0.98,1.63,-1.45,-1.45,-1.47
42.18,-2.43,-2.43,-0.96,-0.96,0.94,0.93,1.54,-1.49,-1.49,-1.47
42.60,-2.42,-2.42,-0.93,-0.94,0.90,0.88,1.45,-1.52,-1.53,-1.49
43.03,-2.41,-2.39,-0.91,-0.89,0.85,0.83,1.36,-1.56,-1.54,-1.50
43.46,-2.35,-2.35,-0.84,-0.83,0.80,0.79,1.28,-1.55,-1.55,-1.51
43.90,-2.28,-2.29,-0.74,-0.75,0.75,0.74,1.19,-1.53,-1.53,-1.54
44.33,-2.23,-2.22,-0.67,-0.66,0.70,0.69,1.11,-1.52,-1.52,-1.56
44.78,-2.17,-2.18,-0.59,-0.61,0.65,0.64,1.02,-1.52,-1.53,-1.58
45.23,-2.16,-2.18,-0.56,-0.58,0.60,0.60,0.94,-1.56,-1.58,-1.59
45.68,-2.19,-2.18,-0.58,-0.56,0.55,0.55,0.86,-1.63,-1.62,-1.61
46.13,-2.19,-2.16,-0.56,-0.53,0.51,0.51,0.78,-1.67,-1.65,-1.63
46.60,-2.13,-2.13,-0.49,-0.49,0.48,0.46,0.70,-1.65,-1.66,-1.64
47.06,-2.07,-2.10,-0.41,-0.44,0.43,0.42,0.62,-1.63,-1.66,-1.66
47.53,-2.07,-2.07,-0.39,-0.39,0.39,0.37,0.54,-1.68,-1.68,-1.68
48.01,-2.07,-2.05,-0.38,-0.35,0.33,0.33,0.46,-1.73,-1.71,-1.69
48.49,-2.02,-2.02,-0.30,-0.30,0.28,0.28,0.38,-1.74,-1.75,-1.72
48.97,-1.97,-1.97,-0.22,-0.22,0.22,0.24,0.31,-1.75,-1.75,-1.75
49.46,-1.92,-1.92,-0.13,-0.13,0.16,0.20,0.23,-1.76,-1.76,-1.78
49.96,-1.87,-1.89,-0.05,-0.08,0.10,0.15,0.16,-1.77,-1.78,-1.82
50.46,-1.87,-1.87,-0.04,-0.04,0.05,0.11,0.08,-1.82,-1.82,-1.83
50.96,-1.87,-1.85,-0.02,0.00,-0.01,0.07,0.01,-1.87,-1.86,-1.85
51.47,-1.84,-1.84,0.05,0.04,-0.06,0.03,-0.06,-1.90,-1.89,-1.88
51.99,-1.80,-1.81,0.11,0.09,-0.11,-0.01,-0.13,-1.91,-1.92,-1.91
52.51,-1.78,-1.78,0.14,0.15,-0.16,-0.06,-0.20,-1.93,-1.93,-1.92
53.03,-1.76,-1.75,0.19,0.20,-0.20,-0.10,-0.27,-1.96,-1.95,-1.95
53.56,-1.72,-1.72,0.25,0.25,-0.25,-0.14,-0.33,-1.96,-1.97,-1.97
54.10,-1.69,-1.69,0.31,0.30,-0.29,-0.18,-0.40,-1.98,-1.98,-2.00
54.64,-1.67,-1.67,0.35,0.35,-0.33,-0.22,-0.46,-2.00,-2.00,-2.02
55.18,-1.66,-1.66,0.39,0.39,-0.37,-0.26,-0.52,-2.03,-2.03,-2.05
55.74,-1.66,-1.66,0.42,0.41,-0.41,-0.30,-0.59,-2.07,-2.08,-2.08
56.29,-1.66,-1.66,0.43,0.44,-0.46,-0.34,-0.64,-2.12,-2.12,-2.09
56.86,-1.66,-1.64,0.46,0.48,-0.50,-0.38,-0.70,-2.16,-2.15,-2.12
57.42,-1.62,-1.61,0.53,0.53,-0.55,-0.42,-0.76,-2.17,-2.16,-2.15
58.00,-1.56,-1.58,0.61,0.59,-0.60,-0.46,-0.81,-2.15,-2.17,-2.17
58.58,-1.54,-1.53,0.65,0.66,-0.65,-0.50,-0.87,-2.18,-2.18,-2.19
59.16,-1.51,-1.50,0.70,0.71,-0.70,-0.54,-0.92,-2.20,-2.20,-2.21
59.76,-1.47,-1.48,0.76,0.75,-0.75,-0.58,-0.96,-2.22,-2.22,-2.23
60.35,-1.46,-1.46,0.80,0.80,-0.79,-0.62,-1.01,-2.25,-2.25,-2.26
60.96,-1.46,-1.46,0.83,0.84,-0.83,-0.65,-1.05,-2.29,-2.28,-2.28
61.57,-1.46,-1.46,0.87,0.87,-0.86,-0.69,-1.10,-2.32,-2.32,-2.33
62.18,-1.46,-1.46,0.90,0.90,-0.90,-0.73,-1.14,-2.35,-2.35,-2.36
62.80,-1.46,-1.46,0.93,0.93,-0.93,-0.77,-1.18,-2.39,-2.39,-2.39
63.43,-1.46,-1.46,0.96,0.96,-0.97,-0.81,-1.21,-2.43,-2.44,-2.42
64.07,-1.46,-1.46,0.99,0.98,-1.01,-0.85,-1.25,-2.47,-2.48,-2.45
64.71,-1.46,-1.43,1.02,1.04,-1.05,-0.89,-1.28,-2.51,-2.49,-2.47
65.35,-1.41,-1.39,1.09,1.11,-1.09,-0.93,-1.31,-2.50,-2.49,-2.50
66.01,-1.32,-1.36,1.21,1.17,-1.13,-0.97,-1.34,-2.45,-2.49,-2.53
66.67,-1.35,-1.35,1.21,1.21,-1.18,-1.01,-1.36,-2.53,-2.53,-2.56
67.33,-1.37,-1.36,1.22,1.23,-1.23,-1.05,-1.39,-2.60,-2.59,-2.59
68.01,-1.39,-1.38,1.23,1.24,-1.28,-1.09,-1.41,-2.67,-2.66,-2.62
68.69,-1.37,-1.36,1.28,1.29,-1.33,-1.13,-1.44,-2.70,-2.68,-2.65
69.37,-1.32,-1.32,1.36,1.36,-1.37,-1.17,-1.46,-2.69,-2.69,-2.68
70.07,-1.26,-1.28,1.46,1.43,-1.41,-1.21,-1.48,-2.67,-2.69,-2.71
70.77,-1.26,-1.26,1.48,1.49,-1.46,-1.25,-1.50,-2.72,-2.72,-2.74
71.48,-1.26,-1.25,1.51,1.52,-1.51,-1.29,-1.52,-2.76,-2.76,-2.77
72.19,-1.26,-1.26,1.55,1.55,-1.55,-1.33,-1.54,-2.81,-2.81,-2.81
72.91,-1.26,-1.26,1.59,1.59,-1.59,-1.37,-1.56,-2.85,-2.85,-2.84
73.64,-1.26,-1.26,1.62,1.62,-1.63,-1.41,-1.58,-2.88,-2.88,-2.88
74.38,-1.26,-1.26,1.65,1.65,-1.66,-1.45,-1.60,-2.91,-2.91,-2.91
75.12,-1.26,-1.26,1.69,1.69,-1.69,-1.49,-1.62,-2.95,-2.95,-2.95
75.87,-1.26,-1.26,1.72,1.72,-1.72,-1.53,-1.65,-2.98,-2.98,-2.98
76.63,-1.26,-1.26,1.75,1.75,-1.75,-1.58,-1.67,-3.01,-3.01,-3.01
77.40,-1.26,-1.26,1.78,1.78,-1.78,-1.62,-1.69,-3.04,-3.04,-3.04
78.17,-1.26,-1.26,1.82,1.81,-1.81,-1.66,-1.71,-3.07,-3.07,-3.08
78.95,-1.26,-1.26,1.84,1.85,-1.85,-1.70,-1.74,-3.10,-3.10,-3.10
79.74,-1.26,-1.26,1.88,1.88,-1.88,-1.75,-1.76,-3.14,-3.14,-3.14
80.54,-1.26,-1.26,1.91,1.91,-1.91,-1.79,-1.79,-3.17,-3.17,-3.17
81.35,-1.26,-1.26,1.95,1.94,-1.95,-1.83,-1.82,-3.20,-3.20,-3.20
82.16,-1.26,-1.26,1.98,1.98,-1.98,-1.87,-1.84,-3.24,-3.24,-3.24
82.98,-1.26,-1.26,2.01,2.02,-2.02,-1.92,-1.87,-3.27,-3.27,-3.27
83.81,-1.26,-1.26,2.05,2.05,-2.05,-1.96,-1.91,-3.31,-3.31,-3.31
84.65,-1.26,-1.26,2.09,2.09,-2.09,-2.01,-1.94,-3.35,-3.35,-3.35
85.50,-1.26,-1.26,2.12,2.13,-2.12,-2.05,-1.97,-3.38,-3.38,-3.38
86.35,-1.26,-1.26,2.16,2.16,-2.16,-2.09,-2.01,-3.42,-3.42,-3.42
87.22,-1.26,-1.26,2.20,2.20,-2.20,-2.14,-2.05,-3.46,-3.46,-3.46
88.09,-1.26,-1.26,2.24,2.24,-2.24,-2.18,-2.09,-3.50,-3.50,-3.50
88.97,-1.26,-1.26,2.27,2.28,-2.28,-2.23,-2.13,-3.54,-3.54,-3.53
89.86,-1.26,-1.26,2.31,2.32,-2.32,-2.27,-2.17,-3.58,-3.58,-3.57
90.76,-1.26,-1.26,2.37,2.36,-2.36,-2.32,-2.22,-3.62,-3.62,-3.62
91.66,-1.26,-1.26,2.40,2.40,-2.40,-2.36,-2.26,-3.66,-3.66,-3.66
92.58,-1.26,-1.26,2.45,2.45,-2.45,-2.41,-2.31,-3.71,-3.71,-3.71
93.51,-1.26,-1.26,2.48,2.49,-2.50,-2.45,-2.36,-3.76,-3.76,-3.74
94.44,-1.26,-1.26,2.53,2.53,-2.55,-2.49,-2.41,-3.80,-3.80,-3.79
95.39,-1.26,-1.26,2.57,2.58,-2.58,-2.54,-2.46,-3.84,-3.84,-3.83
96.34,-1.26,-1.26,2.63,2.63,-2.61,-2.58,-2.52,-3.87,-3.87,-3.89
97.30,-1.27,-1.26,2.66,2.67,-2.63,-2.63,-2.57,-3.90,-3.89,-3.93
98.28,-1.28,-1.29,2.70,2.69,-2.64,-2.67,-2.63,-3.92,-3.93,-3.98
99.26,-1.33,-1.35,2.69,2.67,-2.65,-2.72,-2.68,-3.98,-4.00,-4.02
100.25,-1.43,-1.43,2.64,2.64,-2.66,-2.76,-2.74,-4.09,-4.08,-4.07
101.25,-1.53,-1.50,2.59,2.62,-2.66,-2.80,-2.80,-4.19,-4.16,-4.11
102.27,-1.54,-1.54,2.62,2.62,-2.66,-2.84,-2.86,-4.20,-4.20,-4.16
103.29,-1.55,-1.56,2.67,2.65,-2.67,-2.89,-2.92,-4.21,-4.22,-4.22
104.32,-1.57,-1.57,2.68,2.69,-2.67,-2.93,-2.98,-4.24,-4.24,-4.25
105.37,-1.59,-1.59,2.71,2.71,-2.69,-2.97,-3.04,-4.28,-4.28,-4.30
106.42,-1.62,-1.62,2.73,2.73,-2.72,-3.01,-3.10,-4.34,-4.34,-4.35
107.48,-1.64,-1.64,2.75,2.75,-2.76,-3.05,-3.16,-4.40,-4.40,-4.39
108.56,-1.67,-1.67,2.78,2.78,-2.79,-3.09,-3.22,-4.46,-4.46,-4.45
109.64,-1.69,-1.69,2.81,2.80,-2.82,-3.13,-3.28,-4.51,-4.51,-4.49
110.74,-1.71,-1.70,2.83,2.84,-2.83,-3.17,-3.33,-4.54,-4.53,-4.54
111.85,-1.72,-1.70,2.87,2.89,-2.85,-3.21,-3.39,-4.57,-4.55,-4.59
112.97,-1.71,-1.74,2.94,2.90,-2.86,-3.25,-3.44,-4.57,-4.60,-4.65
114.10,-1.78,-1.80,2.92,2.89,-2.88,-3.29,-3.49,-4.66,-4.68,-4.70
115.24,-1.92,-1.88,2.83,2.88,-2.90,-3.32,-3.53,-4.82,-4.77,-4.75
116.39,-1.94,-1.93,2.87,2.87,-2.93,-3.36,-3.58,-4.87,-4.86,-4.81
117.55,-1.94,-1.95,2.92,2.91,-2.96,-3.39,-3.62,-4.90,-4.91,-4.86
118.73,-1.93,-1.93,2.99,2.98,-3.00,-3.43,-3.66,-4.93,-4.93,-4.91
119.92,-1.93,-1.93,3.03,3.03,-3.03,-3.46,-3.69,-4.96,-4.96,-4.96
121.12,-1.92,-1.91,3.09,3.10,-3.06,-3.49,-3.72,-4.98,-4.98,-5.01
122.33,-1.91,-1.89,3.15,3.16,-3.10,-3.52,-3.74,-5.01,-5.00,-5.06
123.55,-1.89,-1.92,3.22,3.18,-3.14,-3.55,-3.77,-5.03,-5.06,-5.10
124.79,-1.95,-1.98,3.21,3.18,-3.17,-3.58,-3.78,-5.12,-5.15,-5.16
126.03,-2.10,-2.04,3.11,3.16,-3.20,-3.61,-3.80,-5.30,-5.24,-5.21
127.29,-2.09,-2.09,3.17,3.17,-3.23,-3.64,-3.80,-5.31,-5.31,-5.26
128.57,-2.08,-2.09,3.24,3.22,-3.26,-3.67,-3.81,-5.34,-5.35,-5.32
129.85,-2.07,-2.07,3.30,3.29,-3.30,-3.69,-3.81,-5.36,-5.37,-5.36
131.15,-2.07,-2.07,3.34,3.35,-3.34,-3.72,-3.80,-5.41,-5.40,-5.41
132.46,-2.06,-2.06,3.40,3.40,-3.38,-3.74,-3.80,-5.44,-5.45,-5.46
133.79,-2.06,-2.05,3.44,3.45,-3.43,-3.76,-3.79,-5.49,-5.48,-5.50
135.12,-2.05,-2.05,3.50,3.50,-3.48,-3.78,-3.77,-5.52,-5.52,-5.55
136.48,-2.04,-2.06,3.55,3.53,-3.51,-3.80,-3.75,-5.55,-5.57,-5.59
137.84,-2.09,-2.09,3.54,3.55,-3.55,-3.82,-3.73,-5.63,-5.63,-5.63
139.22,-2.13,-2.12,3.56,3.56,-3.58,-3.84,-3.71,-5.70,-5.69,-5.68
140.61,-2.14,-2.14,3.59,3.58,-3.61,-3.86,-3.69,-5.74,-5.74,-5.73
142.02,-2.14,-2.14,3.61,3.62,-3.63,-3.87,-3.66,-5.77,-5.78,-5.75
143.44,-2.14,-2.14,3.65,3.65,-3.66,-3.89,-3.63,-5.80,-5.80,-5.79
144.87,-2.14,-2.14,3.69,3.69,-3.68,-3.90,-3.61,-5.82,-5.82,-5.83
146.32,-2.14,-2.13,3.73,3.73,-3.71,-3.91,-3.58,-5.85,-5.84,-5.87
147.78,-2.14,-2.14,3.76,3.76,-3.74,-3.92,-3.55,-5.88,-5.88,-5.90
149.26,-2.15,-2.17,3.79,3.77,-3.77,-3.93,-3.52,-5.92,-5.94,-5.94
150.75,-2.21,-2.20,3.78,3.78,-3.80,-3.94,-3.49,-6.01,-6.00,-5.98
152.26,-2.25,-2.23,3.77,3.79,-3.82,-3.95,-3.47,-6.07,-6.05,-6.02
153.78,-2.24,-2.23,3.82,3.83,-3.84,-3.95,-3.44,-6.07,-6.07,-6.06
155.32,-2.23,-2.23,3.87,3.87,-3.85,-3.96,-3.41,-6.07,-6.08,-6.10
156.88,-2.22,-2.25,3.92,3.89,-3.85,-3.96,-3.39,-6.07,-6.10,-6.13
158.44,-2.31,-2.30,3.87,3.87,-3.86,-3.96,-3.37,-6.17,-6.16,-6.18
160.03,-2.38,-2.36,3.84,3.86,-3.86,-3.96,-3.35,-6.24,-6.23,-6.22
161.63,-2.44,-2.42,3.82,3.84,-3.86,-3.96,-3.33,-6.30,-6.28,-6.26
163.24,-2.44,-2.46,3.86,3.84,-3.85,-3.96,-3.31,-6.29,-6.31,-6.30
164.88,-2.51,-2.50,3.82,3.84,-3.83,-3.96,-3.30,-6.34,-6.33,-6.33
166.53,-2.55,-2.54,3.82,3.83,-3.81,-3.96,-3.28,-6.36,-6.35,-6.37
168.19,-2.59,-2.60,3.82,3.81,-3.79,-3.95,-3.27,-6.38,-6.39,-6.41
169.87,-2.66,-2.66,3.79,3.79,-3.78,-3.95,-3.26,-6.44,-6.44,-6.45
171.57,-2.73,-2.72,3.76,3.76,-3.78,-3.94,-3.26,-6.51,-6.50,-6.48
173.29,-2.77,-2.77,3.75,3.75,-3.79,-3.93,-3.25,-6.56,-6.55,-6.52
175.02,-2.79,-2.79,3.77,3.77,-3.80,-3.93,-3.25,-6.59,-6.59,-6.56
176.77,-2.79,-2.79,3.81,3.81,-3.83,-3.92,-3.26,-6.61,-6.62,-6.60
178.54,-2.79,-2.79,3.86,3.85,-3.85,-3.91,-3.26,-6.64,-6.64,-6.64
180.32,-2.79,-2.78,3.89,3.90,-3.88,-3.89,-3.27,-6.67,-6.66,-6.68
182.13,-2.78,-2.78,3.93,3.94,-3.90,-3.88,-3.28,-6.68,-6.68,-6.71
183.95,-2.77,-2.79,3.98,3.96,-3.93,-3.87,-3.29,-6.70,-6.71,-6.75
185.79,-2.82,-2.82,3.97,3.97,-3.95,-3.85,-3.30,-6.77,-6.77,-6.78
187.65,-2.86,-2.86,3.97,3.96,-3.97,-3.84,-3.32,-6.83,-6.83,-6.82
189.52,-2.92,-2.90,3.94,3.95,-3.99,-3.82,-3.34,-6.90,-6.89,-6.85
191.42,-2.92,-2.91,3.97,3.97,-4.00,-3.81,-3.36,-6.92,-6.91,-6.88
193.33,-2.91,-2.91,4.00,4.01,-4.01,-3.79,-3.38,-6.92,-6.92,-6.91
195.27,-2.89,-2.90,4.05,4.04,-4.03,-3.77,-3.41,-6.91,-6.93,-6.94
197.22,-2.90,-2.92,4.07,4.05,-4.05,-3.75,-3.43,-6.94,-6.96,-6.97
199.19,-2.96,-2.94,4.05,4.05,-4.06,-3.73,-3.46,-7.02,-7.01,-7.01
201.18,-2.98,-2.96,4.04,4.07,-4.08,-3.71,-3.49,-7.05,-7.03,-7.02
203.19,-2.96,-2.96,4.08,4.08,-4.08,-3.69,-3.52,-7.04,-7.04,-7.04
205.23,-2.93,-2.97,4.14,4.09,-4.07,-3.67,-3.56,-7.00,-7.04,-7.06
207.28,-3.00,-2.98,4.07,4.09,-4.06,-3.65,-3.59,-7.06,-7.04,-7.07
209.35,-3.05,-3.03,4.05,4.06,-4.05,-3.62,-3.62,-7.09,-7.08,-7.09
211.44,-3.07,-3.10,4.05,4.01,-4.03,-3.60,-3.66,-7.10,-7.13,-7.12
213.56,-3.16,-3.14,3.96,3.98,-4.02,-3.58,-3.69,-7.18,-7.16,-7.12
215.69,-3.18,-3.17,3.95,3.96,-4.00,-3.55,-3.73,-7.18,-7.16,-7.13
217.85,-3.17,-3.17,3.97,3.96,-3.97,-3.53,-3.76,-7.14,-7.15,-7.14
220.03,-3.17,-3.17,3.98,3.98,-3.95,-3.50,-3.79,-7.12,-7.12,-7.15
222.23,-3.18,-3.19,3.98,3.97,-3.92,-3.48,-3.82,-7.10,-7.11,-7.16
224.45,-3.24,-3.24,3.91,3.92,-3.90,-3.45,-3.85,-7.14,-7.14,-7.15
226.70,-3.29,-3.30,3.87,3.86,-3.87,-3.43,-3.88,-7.16,-7.17,-7.15
228.96,-3.37,-3.34,3.79,3.81,-3.84,-3.40,-3.91,-7.21,-7.18,-7.16
231.25,-3.36,-3.36,3.79,3.79,-3.81,-3.37,-3.93,-7.17,-7.16,-7.15
233.57,-3.35,-3.37,3.80,3.78,-3.77,-3.34,-3.95,-7.12,-7.14,-7.15
235.90,-3.39,-3.39,3.76,3.75,-3.74,-3.32,-3.96,-7.13,-7.13,-7.15
238.26,-3.43,-3.43,3.72,3.71,-3.71,-3.29,-3.97,-7.14,-7.14,-7.15
240.64,-3.49,-3.47,3.65,3.66,-3.68,-3.26,-3.98,-7.17,-7.15,-7.13
243.05,-3.49,-3.48,3.63,3.64,-3.65,-3.23,-3.98,-7.14,-7.13,-7.12
245.48,-3.48,-3.48,3.63,3.63,-3.62,-3.20,-3.98,-7.10,-7.11,-7.11
247.93,-3.47,-3.49,3.63,3.61,-3.59,-3.18,-3.98,-7.06,-7.08,-7.10
250.41,-3.52,-3.52,3.58,3.57,-3.56,-3.15,-3.97,-7.08,-7.08,-7.10
252.92,-3.57,-3.56,3.51,3.52,-3.53,-3.12,-3.95,-7.09,-7.08,-7.07
255.45,-3.59,-3.58,3.46,3.47,-3.49,-3.09,-3.93,-7.08,-7.07,-7.05
258.00,-3.59,-3.58,3.45,3.46,-3.45,-3.06,-3.91,-7.04,-7.04,-7.04
260.58,-3.59,-3.60,3.44,3.42,-3.42,-3.03,-3.88,-7.00,-7.01,-7.03
263.19,-3.60,-3.63,3.40,3.37,-3.37,-3.00,-3.85,-6.97,-7.01,-7.00
265.82,-3.71,-3.68,3.28,3.31,-3.33,-2.97,-3.81,-7.03,-7.00,-6.99
268.48,-3.72,-3.69,3.25,3.27,-3.28,-2.95,-3.77,-7.00,-6.97,-6.96
271.16,-3.70,-3.70,3.24,3.24,-3.22,-2.92,-3.73,-6.92,-6.92,-6.94
273.87,-3.67,-3.73,3.26,3.20,-3.16,-2.89,-3.68,-6.83,-6.89,-6.93
276.61,-3.79,-3.79,3.11,3.12,-3.10,-2.86,-3.63,-6.89,-6.89,-6.90
279.38,-3.91,-3.85,2.98,3.03,-3.04,-2.83,-3.58,-6.95,-6.89,-6.89
282.17,-3.91,-3.90,2.96,2.96,-2.99,-2.80,-3.53,-6.90,-6.89,-6.87
284.99,-3.89,-3.94,2.96,2.91,-2.95,-2.77,-3.47,-6.83,-6.88,-6.85
287.84,-3.96,-3.96,2.87,2.87,-2.90,-2.74,-3.41,-6.86,-6.86,-6.83
290.72,-4.03,-3.98,2.78,2.82,-2.86,-2.72,-3.35,-6.89,-6.84,-6.81
293.63,-3.98,-3.97,2.81,2.82,-2.81,-2.69,-3.29,-6.79,-6.78,-6.79
296.57,-3.93,-3.94,2.84,2.83,-2.78,-2.66,-3.23,-6.70,-6.71,-6.77
299.53,-3.89,-3.95,2.86,2.79,-2.73,-2.63,-3.17,-6.62,-6.69,-6.75
302.53,-4.03,-4.03,2.70,2.70,-2.68,-2.60,-3.11,-6.71,-6.71,-6.73
305.55,-4.16,-4.09,2.54,2.61,-2.63,-2.58,-3.05,-6.79,-6.72,-6.70
308.61,-4.14,-4.13,2.54,2.54,-2.57,-2.55,-2.98,-6.71,-6.70,-6.68
311.69,-4.10,-4.15,2.56,2.50,-2.52,-2.52,-2.92,-6.62,-6.66,-6.65
314.81,-4.15,-4.16,2.47,2.46,-2.47,-2.50,-2.86,-6.62,-6.63,-6.62
317.96,-4.24,-4.20,2.36,2.40,-2.42,-2.47,-2.80,-6.66,-6.62,-6.60
321.14,-4.24,-4.23,2.35,2.35,-2.38,-2.45,-2.75,-6.62,-6.61,-6.58
324.35,-4.21,-4.22,2.36,2.34,-2.35,-2.42,-2.69,-6.55,-6.57,-6.57
327.59,-4.20,-4.19,2.34,2.35,-2.31,-2.39,-2.63,-6.51,-6.50,-6.54
330.87,-4.20,-4.19,2.32,2.33,-2.27,-2.37,-2.58,-6.47,-6.47,-6.52
334.18,-4.20,-4.24,2.31,2.26,-2.24,-2.35,-2.53,-6.44,-6.48,-6.51
337.52,-4.31,-4.30,2.18,2.18,-2.21,-2.32,-2.47,-6.52,-6.51,-6.49
340.90,-4.39,-4.35,2.07,2.12,-2.17,-2.30,-2.42,-6.56,-6.52,-6.46
344.30,-4.36,-4.36,2.08,2.08,-2.13,-2.27,-2.37,-6.49,-6.49,-6.44
347.75,-4.32,-4.32,2.11,2.10,-2.08,-2.25,-2.33,-6.40,-6.41,-6.43
351.23,-4.30,-4.30,2.11,2.11,-2.04,-2.23,-2.28,-6.34,-6.34,-6.41
354.74,-4.30,-4.34,2.09,2.05,-2.01,-2.21,-2.24,-6.31,-6.35,-6.39
358.28,-4.40,-4.39,1.97,1.98,-2.00,-2.19,-2.20,-6.40,-6.39,-6.37
361.87,-4.48,-4.43,1.88,1.93,-1.99,-2.16,-2.16,-6.47,-6.41,-6.35
365.49,-4.42,-4.43,1.93,1.91,-1.97,-2.14,-2.12,-6.39,-6.40,-6.35
369.14,-4.38,-4.40,1.96,1.94,-1.94,-2.12,-2.08,-6.32,-6.34,-6.34
372.83,-4.37,-4.36,1.95,1.96,-1.91,-2.10,-2.05,-6.28,-6.27,-6.32
376.56,-4.36,-4.35,1.95,1.96,-1.88,-2.08,-2.01,-6.24,-6.23,-6.31
380.33,-4.36,-4.39,1.92,1.90,-1.87,-2.07,-1.98,-6.23,-6.25,-6.28
384.13,-4.41,-4.44,1.87,1.84,-1.85,-2.05,-1.95,-6.26,-6.29,-6.27
387.97,-4.55,-4.48,1.72,1.78,-1.83,-2.03,-1.92,-6.38,-6.32,-6.27
391.85,-4.51,-4.50,1.75,1.75,-1.80,-2.01,-1.89,-6.31,-6.30,-6.26
395.77,-4.45,-4.48,1.79,1.76,-1.77,-2.00,-1.87,-6.22,-6.25,-6.24
399.73,-4.44,-4.44,1.79,1.79,-1.75,-1.98,-1.85,-6.19,-6.19,-6.23
403.72,-4.44,-4.44,1.78,1.78,-1.74,-1.97,-1.82,-6.18,-6.18,-6.22
407.76,-4.45,-4.44,1.76,1.77,-1.75,-1.95,-1.80,-6.20,-6.20,-6.21
411.84,-4.45,-4.46,1.75,1.74,-1.77,-1.94,-1.78,-6.22,-6.23,-6.19
415.96,-4.45,-4.46,1.74,1.73,-1.79,-1.93,-1.76,-6.24,-6.25,-6.19
420.12,-4.45,-4.41,1.73,1.77,-1.81,-1.91,-1.75,-6.26,-6.21,-6.18
424.32,-4.34,-4.33,1.83,1.84,-1.82,-1.90,-1.73,-6.16,-6.15,-6.17
428.56,-4.21,-4.26,1.95,1.90,-1.83,-1.89,-1.72,-6.04,-6.09,-6.16
