frequency,raw,error,smoothed,error_smoothed,equalization,parametric_eq,fixed_band_eq,equalized_raw,equalized_smoothed,target
20.00,16.00,8.26,16.00,8.26,-8.26,-8.37,-4.06,7.74,7.74,7.74
20.20,16.02,8.29,16.02,8.29,-8.29,-8.39,-4.17,7.73,7.73,7.73
20.40,16.04,8.32,16.04,8.32,-8.33,-8.40,-4.28,7.71,7.72,7.72
20.61,16.07,8.36,16.07,8.36,-8.36,-8.42,-4.40,7.71,7.71,7.71
20.81,16.09,8.40,16.09,8.40,-8.39,-8.44,-4.52,7.70,7.70,7.69
21.02,16.11,8.43,16.11,8.43,-8.42,-8.46,-4.64,7.69,7.69,7.68
21.23,16.13,8.46,16.13,8.46,-8.45,-8.47,-4.77,7.68,7.68,7.67
21.44,16.15,8.47,16.15,8.48,-8.48,-8.49,-4.90,7.67,7.67,7.68
21.66,16.17,8.51,16.17,8.51,-8.51,-8.51,-5.03,7.66,7.66,7.66
21.87,16.19,8.53,16.19,8.54,-8.54,-8.52,-5.17,7.65,7.65,7.66
22.09,16.21,8.57,16.21,8.57,-8.56,-8.54,-5.31,7.65,7.65,7.64
22.31,16.23,8.59,16.23,8.59,-8.59,-8.55,-5.46,7.64,7.64,7.64
22.54,16.24,8.61,16.24,8.61,-8.61,-8.57,-5.61,7.63,7.63,7.63
22.76,16.26,8.63,16.26,8.64,-8.64,-8.58,-5.76,7.62,7.62,7.63
22.99,16.28,8.66,16.28,8.66,-8.66,-8.60,-5.92,7.62,7.62,7.62
23.22,16.30,8.69,16.30,8.68,-8.68,-8.61,-6.08,7.62,7.61,7.61
23.45,16.31,8.70,16.31,8.71,-8.70,-8.63,-6.24,7.61,7.61,7.62
23.69,16.33,8.72,16.33,8.72,-8.72,-8.64,-6.41,7.61,7.61,7.60
23.92,16.34,8.75,16.34,8.74,-8.74,-8.65,-6.58,7.60,7.60,7.59
24.16,16.36,8.76,16.36,8.76,-8.76,-8.67,-6.76,7.60,7.60,7.60
24.40,16.37,8.77,16.37,8.77,-8.77,-8.68,-6.94,7.60,7.60,7.60
24.65,16.39,8.79,16.39,8.79,-8.79,-8.69,-7.12,7.60,7.60,7.60
24.89,16.40,8.80,16.40,8.81,-8.81,-8.70,-7.31,7.59,7.60,7.60
25.14,16.42,8.83,16.42,8.82,-8.82,-8.72,-7.50,7.60,7.59,7.59
25.39,16.43,8.84,16.43,8.84,-8.84,-8.73,-7.69,7.59,7.59,7.59
25.65,16.44,8.85,16.44,8.86,-8.85,-8.74,-7.88,7.59,7.59,7.59
25.91,16.46,8.87,16.46,8.87,-8.86,-8.75,-8.08,7.59,7.59,7.59
26.16,16.47,8.87,16.47,8.88,-8.88,-8.76,-8.28,7.59,7.59,7.60
26.43,16.48,8.88,16.48,8.89,-8.89,-8.77,-8.47,7.59,7.59,7.60
26.69,16.49,8.89,16.49,8.89,-8.90,-8.78,-8.67,7.59,7.59,7.60
26.96,16.50,8.91,16.50,8.90,-8.90,-8.79,-8.87,7.60,7.59,7.59
27.23,16.50,8.91,16.50,8.91,-8.91,-8.80,-9.07,7.59,7.60,7.59
27.50,16.51,8.92,16.51,8.92,-8.91,-8.81,-9.26,7.60,7.60,7.59
27.77,16.52,8.92,16.52,8.92,-8.92,-8.82,-9.45,7.60,7.60,7.60
28.05,16.52,8.92,16.52,8.92,-8.92,-8.83,-9.63,7.60,7.60,7.60
28.33,16.53,8.92,16.53,8.92,-8.92,-8.83,-9.81,7.61,7.60,7.61
28.62,16.53,8.92,16.53,8.92,-8.93,-8.84,-9.98,7.60,7.61,7.61
28.90,16.54,8.92,16.54,8.92,-8.93,-8.85,-10.14,7.61,7.61,7.62
29.19,16.54,8.93,16.54,8.93,-8.93,-8.86,-10.29,7.61,7.61,7.61
29.48,16.54,8.93,16.55,8.93,-8.93,-8.86,-10.43,7.61,7.62,7.61
29.78,16.55,8.94,16.55,8.94,-8.93,-8.87,-10.55,7.62,7.62,7.61
30.08,16.55,8.94,16.54,8.94,-8.93,-8.88,-10.66,7.62,7.61,7.61
30.38,16.53,8.93,16.53,8.93,-8.93,-8.88,-10.76,7.60,7.61,7.60
30.68,16.52,8.92,16.52,8.92,-8.93,-8.89,-10.84,7.59,7.59,7.60
30.99,16.51,8.92,16.51,8.91,-8.92,-8.90,-10.90,7.59,7.59,7.59
31.30,16.50,8.91,16.50,8.91,-8.92,-8.90,-10.94,7.58,7.58,7.59
31.61,16.50,8.91,16.50,8.91,-8.92,-8.91,-10.97,7.58,7.58,7.59
31.93,16.49,8.92,16.49,8.91,-8.91,-8.91,-10.98,7.58,7.58,7.57
32.24,16.48,8.90,16.48,8.91,-8.91,-8.92,-10.97,7.57,7.58,7.58
32.57,16.47,8.91,16.47,8.91,-8.90,-8.92,-10.95,7.57,7.57,7.56
32.89,16.46,8.90,16.46,8.90,-8.89,-8.93,-10.91,7.57,7.57,7.56
33.22,16.45,8.89,16.45,8.89,-8.89,-8.93,-10.85,7.56,7.56,7.56
33.55,16.43,8.87,16.43,8.88,-8.88,-8.93,-10.79,7.55,7.55,7.56
33.89,16.41,8.87,16.41,8.87,-8.87,-8.94,-10.71,7.54,7.54,7.54
34.23,16.39,8.86,16.39,8.86,-8.86,-8.94,-10.62,7.53,7.54,7.53
34.57,16.38,8.85,16.38,8.85,-8.85,-8.94,-10.53,7.53,7.53,7.53
34.92,16.36,8.84,16.36,8.84,-8.84,-8.95,-10.43,7.52,7.53,7.52
35.27,16.35,8.82,16.35,8.83,-8.83,-8.95,-10.32,7.52,7.52,7.53
35.62,16.33,8.82,16.33,8.81,-8.82,-8.95,-10.21,7.51,7.51,7.51
35.97,16.31,8.80,16.31,8.81,-8.82,-8.95,-10.10,7.49,7.50,7.51
36.33,16.30,8.81,16.30,8.81,-8.81,-8.95,-9.98,7.49,7.49,7.49
36.70,16.28,8.81,16.28,8.81,-8.81,-8.95,-9.87,7.47,7.48,7.47
37.06,16.27,8.81,16.27,8.81,-8.81,-8.96,-9.75,7.46,7.46,7.46
37.43,16.25,8.81,16.25,8.81,-8.80,-8.96,-9.64,7.45,7.44,7.44
37.81,16.23,8.80,16.23,8.81,-8.80,-8.96,-9.53,7.43,7.43,7.43
38.19,16.21,8.81,16.21,8.80,-8.80,-8.96,-9.42,7.41,7.41,7.40
38.57,16.19,8.80,16.19,8.80,-8.80,-8.96,-9.32,7.39,7.39,7.39
38.95,16.17,8.79,16.17,8.80,-8.80,-8.96,-9.21,7.37,7.37,7.37
39.34,16.15,8.80,16.15,8.80,-8.80,-8.96,-9.12,7.35,7.35,7.35
39.74,16.13,8.80,16.13,8.80,-8.79,-8.96,-9.03,7.34,7.33,7.33
40.14,16.10,8.79,16.10,8.79,-8.79,-8.95,-8.94,7.31,7.31,7.31
40.54,16.08,8.78,16.08,8.79,-8.79,-8.95,-8.86,7.29,7.29,7.30
40.94,16.05,8.78,16.05,8.78,-8.78,-8.95,-8.78,7.27,7.27,7.27
41.35,16.03,8.78,16.03,8.78,-8.78,-8.95,-8.71,7.25,7.25,7.25
41.76,16.01,8.78,16.01,8.78,-8.78,-8.95,-8.65,7.23,7.23,7.23
42.18,15.99,8.77,15.99,8.78,-8.78,-8.95,-8.59,7.21,7.21,7.22
42.60,15.98,8.78,15.98,8.78,-8.78,-8.94,-8.54,7.20,7.20,7.20
43.03,15.96,8.78,15.96,8.78,-8.78,-8.94,-8.49,7.18,7.18,7.18
43.46,15.94,8.79,15.94,8.79,-8.78,-8.94,-8.45,7.16,7.16,7.15
43.90,15.92,8.78,15.92,8.78,-8.78,-8.93,-8.42,7.14,7.14,7.14
44.33,15.89,8.78,15.89,8.78,-8.77,-8.93,-8.39,7.12,7.12,7.11
44.78,15.86,8.77,15.86,8.77,-8.77,-8.93,-8.37,7.09,7.09,7.09
45.23,15.83,8.76,15.83,8.76,-8.77,-8.92,-8.35,7.06,7.06,7.07
45.68,15.80,8.77,15.80,8.76,-8.77,-8.92,-8.34,7.03,7.03,7.03
46.13,15.77,8.76,15.77,8.76,-8.77,-8.91,-8.34,7.00,7.01,7.01
46.60,15.74,8.76,15.74,8.76,-8.77,-8.91,-8.34,6.97,6.98,6.98
47.06,15.72,8.77,15.71,8.77,-8.77,-8.90,-8.35,6.95,6.95,6.95
47.53,15.68,8.76,15.68,8.77,-8.77,-8.90,-8.37,6.91,6.91,6.92
48.01,15.65,8.78,15.65,8.78,-8.77,-8.89,-8.39,6.88,6.88,6.87
48.49,15.62,8.78,15.62,8.78,-8.78,-8.88,-8.41,6.84,6.84,6.84
48.97,15.58,8.78,15.58,8.78,-8.78,-8.88,-8.44,6.80,6.80,6.80
49.46,15.54,8.77,15.54,8.78,-8.78,-8.87,-8.48,6.76,6.76,6.77
49.96,15.50,8.78,15.51,8.78,-8.79,-8.86,-8.51,6.71,6.72,6.72
50.46,15.48,8.79,15.48,8.78,-8.79,-8.86,-8.56,6.69,6.69,6.69
50.96,15.45,8.79,15.45,8.79,-8.79,-8.85,-8.60,6.66,6.66,6.66
51.47,15.42,8.79,15.42,8.80,-8.79,-8.84,-8.66,6.63,6.63,6.63
51.99,15.39,8.80,15.39,8.80,-8.78,-8.83,-8.71,6.61,6.60,6.59
52.51,15.35,8.79,15.35,8.79,-8.78,-8.82,-8.76,6.57,6.57,6.56
53.03,15.31,8.77,15.31,8.77,-8.78,-8.82,-8.82,6.53,6.53,6.54
53.56,15.26,8.76,15.26,8.76,-8.77,-8.81,-8.88,6.49,6.49,6.50
54.10,15.22,8.76,15.22,8.76,-8.77,-8.80,-8.94,6.45,6.46,6.46
54.64,15.19,8.76,15.19,8.76,-8.76,-8.79,-9.00,6.43,6.43,6.43
55.18,15.15,8.75,15.15,8.76,-8.76,-8.78,-9.06,6.39,6.40,6.40
55.74,15.12,8.76,15.12,8.75,-8.75,-8.77,-9.12,6.37,6.37,6.36
56.29,15.08,8.74,15.08,8.74,-8.74,-8.76,-9.17,6.34,6.34,6.34
56.86,15.05,8.73,15.05,8.74,-8.73,-8.75,-9.22,6.32,6.32,6.32
57.42,15.01,8.73,15.01,8.72,-8.72,-8.74,-9.27,6.29,6.29,6.28
58.00,14.96,8.71,14.96,8.71,-8.70,-8.73,-9.31,6.26,6.26,6.25
58.58,14.91,8.68,14.91,8.69,-8.69,-8.71,-9.35,6.22,6.22,6.23
59.16,14.87,8.66,14.87,8.66,-8.68,-8.70,-9.38,6.19,6.19,6.21
59.76,14.83,8.65,14.83,8.65,-8.67,-8.69,-9.40,6.16,6.16,6.18
60.35,14.79,8.65,14.79,8.65,-8.66,-8.68,-9.42,6.13,6.13,6.14
60.96,14.75,8.66,14.75,8.66,-8.66,-8.66,-9.43,6.09,6.09,6.09
61.57,14.71,8.67,14.71,8.67,-8.66,-8.65,-9.43,6.05,6.05,6.04
62.18,14.67,8.67,14.67,8.67,-8.66,-8.64,-9.42,6.01,6.01,6.00
62.80,14.62,8.67,14.62,8.67,-8.66,-8.62,-9.40,5.96,5.96,5.95
63.43,14.57,8.66,14.57,8.66,-8.66,-8.61,-9.38,5.91,5.91,5.91
64.07,14.52,8.65,14.52,8.65,-8.65,-8.60,-9.34,5.87,5.87,5.87
64.71,14.48,8.64,14.48,8.65,-8.65,-8.58,-9.30,5.83,5.83,5.84
65.35,14.44,8.64,14.44,8.64,-8.64,-8.57,-9.25,5.80,5.80,5.80
66.01,14.39,8.63,14.39,8.63,-8.63,-8.55,-9.19,5.76,5.76,5.76
66.67,14.34,8.61,14.34,8.62,-8.61,-8.53,-9.12,5.73,5.73,5.73
67.33,14.29,8.61,14.29,8.60,-8.60,-8.52,-9.05,5.69,5.69,5.68
68.01,14.24,8.59,14.24,8.59,-8.59,-8.50,-8.97,5.65,5.64,5.65
68.69,14.18,8.57,14.19,8.58,-8.58,-8.49,-8.89,5.60,5.61,5.61
69.37,14.14,8.56,14.14,8.57,-8.57,-8.47,-8.80,5.57,5.57,5.58
70.07,14.10,8.57,14.10,8.56,-8.56,-8.45,-8.71,5.54,5.54,5.53
70.77,14.05,8.56,14.05,8.55,-8.55,-8.43,-8.62,5.50,5.50,5.49
71.48,13.99,8.53,13.99,8.54,-8.54,-8.42,-8.52,5.45,5.45,5.46
72.19,13.93,8.52,13.93,8.52,-8.53,-8.40,-8.42,5.40,5.41,5.41
72.91,13.88,8.52,13.88,8.51,-8.51,-8.38,-8.33,5.36,5.36,5.36
73.64,13.82,8.49,13.83,8.50,-8.50,-8.36,-8.23,5.32,5.32,5.33
74.38,13.78,8.49,13.78,8.49,-8.48,-8.34,-8.13,5.30,5.29,5.29
75.12,13.73,8.47,13.73,8.47,-8.47,-8.32,-8.04,5.26,5.26,5.26
75.87,13.68,8.45,13.68,8.45,-8.45,-8.30,-7.95,5.23,5.23,5.23
76.63,13.62,8.43,13.62,8.43,-8.43,-8.28,-7.86,5.19,5.19,5.19
77.40,13.56,8.39,13.56,8.40,-8.40,-8.26,-7.77,5.16,5.16,5.17
78.17,13.51,8.38,13.51,8.37,-8.38,-8.24,-7.68,5.13,5.13,5.12
78.95,13.45,8.34,13.46,8.35,-8.35,-8.22,-7.60,5.10,5.11,5.11
79.74,13.41,8.33,13.40,8.33,-8.32,-8.20,-7.53,5.09,5.08,5.08
80.54,13.35,8.30,13.35,8.29,-8.29,-8.17,-7.45,5.06,5.05,5.05
81.35,13.28,8.26,13.29,8.26,-8.26,-8.15,-7.39,5.02,5.02,5.02
82.16,13.22,8.22,13.22,8.23,-8.23,-8.13,-7.32,4.99,4.99,5.00
82.98,13.16,8.20,13.16,8.19,-8.20,-8.11,-7.26,4.96,4.96,4.96
83.81,13.10,8.16,13.10,8.17,-8.17,-8.08,-7.21,4.93,4.93,4.94
84.65,13.04,8.14,13.04,8.14,-8.14,-8.06,-7.16,4.90,4.90,4.90
85.50,12.98,8.11,12.98,8.11,-8.10,-8.03,-7.11,4.88,4.87,4.87
86.35,12.91,8.07,12.91,8.07,-8.07,-8.01,-7.07,4.84,4.84,4.84
87.22,12.84,8.03,12.84,8.04,-8.04,-7.99,-7.04,4.80,4.80,4.81
88.09,12.78,8.01,12.78,8.01,-8.01,-7.96,-7.01,4.77,4.77,4.77
88.97,12.73,7.99,12.73,7.98,-7.98,-7.93,-6.98,4.75,4.74,4.74
89.86,12.67,7.96,12.66,7.96,-7.95,-7.91,-6.97,4.72,4.71,4.71
90.76,12.60,7.92,12.60,7.93,-7.93,-7.88,-6.95,4.67,4.68,4.68
91.66,12.53,7.90,12.54,7.90,-7.90,-7.86,-6.94,4.63,4.64,4.63
92.58,12.48,7.87,12.48,7.87,-7.88,-7.83,-6.94,4.60,4.60,4.61
93.51,12.42,7.85,12.42,7.85,-7.85,-7.80,-6.94,4.57,4.57,4.57
94.44,12.37,7.83,12.37,7.83,-7.83,-7.77,-6.95,4.54,4.53,4.54
95.39,12.30,7.81,12.30,7.81,-7.81,-7.75,-6.96,4.49,4.49,4.49
96.34,12.24,7.78,12.24,7.78,-7.78,-7.72,-6.97,4.46,4.46,4.46
97.30,12.17,7.75,12.18,7.76,-7.76,-7.69,-6.99,4.41,4.42,4.42
98.28,12.12,7.75,12.12,7.74,-7.73,-7.66,-7.01,4.39,4.38,4.37
99.26,12.06,7.73,12.05,7.72,-7.71,-7.63,-7.04,4.35,4.34,4.33
100.25,11.98,7.68,11.98,7.68,-7.69,-7.60,-7.07,4.29,4.29,4.30
101.25,11.91,7.64,11.92,7.65,-7.67,-7.57,-7.10,4.24,4.25,4.27
102.27,11.86,7.62,11.87,7.63,-7.64,-7.54,-7.14,4.22,4.23,4.24
103.29,11.83,7.63,11.83,7.62,-7.61,-7.51,-7.18,4.22,4.21,4.20
104.32,11.79,7.61,11.78,7.60,-7.58,-7.48,-7.22,4.21,4.19,4.18
105.37,11.71,7.56,11.71,7.57,-7.55,-7.44,-7.26,4.16,4.16,4.15
106.42,11.63,7.51,11.64,7.52,-7.51,-7.41,-7.31,4.12,4.12,4.12
107.48,11.56,7.48,11.56,7.47,-7.47,-7.38,-7.35,4.08,4.09,4.08
108.56,11.49,7.43,11.49,7.43,-7.43,-7.35,-7.39,4.06,4.06,4.06
109.64,11.41,7.38,11.41,7.39,-7.38,-7.31,-7.44,4.03,4.03,4.03
110.74,11.33,7.34,11.33,7.34,-7.34,-7.28,-7.48,3.99,3.99,3.99
111.85,11.24,7.29,11.25,7.29,-7.29,-7.25,-7.52,3.95,3.95,3.95
112.97,11.17,7.24,11.16,7.24,-7.26,-7.21,-7.56,3.92,3.91,3.93
114.10,11.09,7.20,11.09,7.20,-7.22,-7.18,-7.59,3.87,3.87,3.89
115.24,11.01,7.17,11.02,7.17,-7.18,-7.14,-7.62,3.83,3.84,3.84
116.39,10.96,7.15,10.96,7.15,-7.14,-7.11,-7.65,3.82,3.81,3.81
117.55,10.90,7.13,10.90,7.13,-7.11,-7.07,-7.67,3.79,3.79,3.77
118.73,10.83,7.09,10.83,7.08,-7.07,-7.04,-7.68,3.76,3.75,3.74
119.92,10.75,7.04,10.75,7.04,-7.03,-7.00,-7.69,3.72,3.71,3.71
121.12,10.66,6.97,10.68,6.99,-7.00,-6.96,-7.69,3.67,3.68,3.69
122.33,10.61,6.96,10.61,6.95,-6.95,-6.93,-7.69,3.66,3.65,3.65
123.55,10.55,6.92,10.54,6.91,-6.91,-6.89,-7.67,3.64,3.63,3.63
124.79,10.47,6.87,10.47,6.87,-6.87,-6.85,-7.65,3.60,3.60,3.60
126.03,10.38,6.81,10.39,6.83,-6.83,-6.81,-7.62,3.55,3.56,3.57
127.29,10.33,6.79,10.33,6.79,-6.79,-6.78,-7.59,3.54,3.53,3.54
128.57,10.26,6.76,10.25,6.75,-6.76,-6.74,-7.54,3.50,3.50,3.50
129.85,10.19,6.72,10.19,6.72,-6.72,-6.70,-7.49,3.47,3.47,3.47
131.15,10.10,6.67,10.12,6.69,-6.69,-6.66,-7.43,3.41,3.43,3.43
132.46,10.06,6.66,10.05,6.65,-6.65,-6.62,-7.36,3.41,3.39,3.40
133.79,9.98,6.62,9.98,6.61,-6.62,-6.58,-7.29,3.36,3.36,3.36
135.12,9.90,6.57,9.91,6.58,-6.58,-6.54,-7.21,3.32,3.33,3.33
136.48,9.85,6.54,9.84,6.54,-6.54,-6.50,-7.13,3.31,3.30,3.31
137.84,9.77,6.50,9.78,6.50,-6.50,-6.46,-7.04,3.27,3.28,3.27
139.22,9.71,6.47,9.71,6.46,-6.46,-6.42,-6.95,3.25,3.25,3.24
140.61,9.64,6.42,9.63,6.42,-6.41,-6.37,-6.85,3.23,3.22,3.22
142.02,9.53,6.35,9.55,6.36,-6.36,-6.33,-6.75,3.17,3.19,3.18
143.44,9.48,6.32,9.47,6.31,-6.31,-6.29,-6.65,3.17,3.16,3.16
144.87,9.39,6.25,9.39,6.26,-6.26,-6.25,-6.55,3.13,3.13,3.14
146.32,9.33,6.22,9.32,6.21,-6.21,-6.20,-6.45,3.12,3.12,3.11
147.78,9.23,6.14,9.24,6.15,-6.15,-6.16,-6.34,3.08,3.09,3.09
149.26,9.16,6.10,9.16,6.10,-6.09,-6.12,-6.24,3.07,3.07,3.06
150.75,9.07,6.03,9.07,6.03,-6.03,-6.07,-6.14,3.04,3.04,3.04
152.26,8.99,5.97,8.99,5.97,-5.97,-6.03,-6.04,3.02,3.02,3.02
153.78,8.89,5.90,8.89,5.90,-5.91,-5.99,-5.94,2.98,2.99,2.99
155.32,8.81,5.84,8.81,5.84,-5.85,-5.94,-5.84,2.96,2.96,2.97
156.88,8.72,5.78,8.73,5.79,-5.79,-5.90,-5.74,2.93,2.93,2.94
158.44,8.66,5.75,8.65,5.73,-5.74,-5.85,-5.65,2.92,2.91,2.91
160.03,8.56,5.67,8.57,5.68,-5.69,-5.81,-5.56,2.87,2.88,2.89
161.63,8.49,5.63,8.50,5.64,-5.64,-5.76,-5.47,2.85,2.86,2.86
163.24,8.43,5.60,8.42,5.59,-5.59,-5.72,-5.38,2.84,2.82,2.83
164.88,8.34,5.54,8.35,5.55,-5.55,-5.67,-5.30,2.79,2.80,2.80
166.53,8.26,5.50,8.27,5.50,-5.50,-5.62,-5.22,2.76,2.77,2.76
168.19,8.20,5.46,8.18,5.45,-5.45,-5.58,-5.15,2.75,2.73,2.74
169.87,8.10,5.40,8.11,5.41,-5.41,-5.53,-5.07,2.69,2.70,2.70
171.57,8.03,5.37,8.03,5.36,-5.37,-5.48,-5.01,2.66,2.67,2.66
173.29,7.97,5.33,7.95,5.32,-5.32,-5.44,-4.94,2.65,2.63,2.64
175.02,7.86,5.26,7.87,5.27,-5.28,-5.39,-4.88,2.58,2.60,2.60
176.77,7.79,5.22,7.79,5.23,-5.23,-5.34,-4.82,2.56,2.57,2.57
178.54,7.72,5.19,7.72,5.19,-5.18,-5.29,-4.77,2.54,2.54,2.53
180.32,7.65,5.16,7.65,5.15,-5.14,-5.24,-4.72,2.51,2.51,2.49
182.13,7.57,5.10,7.56,5.09,-5.09,-5.20,-4.67,2.48,2.47,2.47
183.95,7.46,5.02,7.47,5.04,-5.04,-5.15,-4.63,2.42,2.43,2.44
185.79,7.38,4.98,7.38,4.98,-4.99,-5.10,-4.59,2.39,2.39,2.40
187.65,7.31,4.95,7.31,4.94,-4.95,-5.05,-4.55,2.36,2.36,2.37
189.52,7.24,4.90,7.24,4.90,-4.91,-5.00,-4.52,2.33,2.33,2.34
191.42,7.17,4.86,7.17,4.86,-4.86,-4.95,-4.49,2.31,2.30,2.31
193.33,7.09,4.81,7.09,4.82,-4.82,-4.90,-4.46,2.27,2.27,2.28
195.27,7.02,4.78,7.02,4.78,-4.78,-4.85,-4.43,2.24,2.24,2.24
197.22,6.95,4.75,6.95,4.74,-4.74,-4.80,-4.41,2.21,2.21,2.20
199.19,6.88,4.69,6.88,4.71,-4.70,-4.75,-4.39,2.18,2.19,2.19
201.18,6.82,4.67,6.81,4.66,-4.65,-4.70,-4.38,2.17,2.16,2.15
203.19,6.74,4.61,6.74,4.61,-4.61,-4.65,-4.36,2.13,2.13,2.13
205.23,6.67,4.55,6.67,4.56,-4.56,-4.60,-4.35,2.11,2.11,2.12
207.28,6.60,4.51,6.60,4.51,-4.51,-4.55,-4.34,2.09,2.09,2.09
209.35,6.54,4.47,6.53,4.46,-4.46,-4.50,-4.33,2.08,2.07,2.07
211.44,6.46,4.41,6.46,4.41,-4.41,-4.45,-4.32,2.05,2.05,2.05
213.56,6.39,4.36,6.39,4.36,-4.37,-4.39,-4.31,2.02,2.02,2.03
215.69,6.32,4.31,6.32,4.31,-4.32,-4.34,-4.30,2.00,2.00,2.01
217.85,6.25,4.26,6.26,4.27,-4.27,-4.29,-4.29,1.98,1.99,1.99
220.03,6.20,4.23,6.20,4.23,-4.22,-4.24,-4.28,1.98,1.97,1.97
222.23,6.14,4.20,6.13,4.19,-4.17,-4.19,-4.27,1.97,1.96,1.94
224.45,6.06,4.13,6.06,4.13,-4.13,-4.14,-4.26,1.93,1.93,1.93
226.70,5.98,4.07,5.99,4.07,-4.08,-4.08,-4.25,1.90,1.91,1.91
228.96,5.92,4.01,5.92,4.02,-4.03,-4.03,-4.24,1.89,1.90,1.91
231.25,5.87,3.98,5.86,3.97,-3.97,-3.98,-4.22,1.90,1.89,1.89
233.57,5.81,3.93,5.80,3.92,-3.92,-3.93,-4.21,1.89,1.89,1.88
235.90,5.73,3.86,5.74,3.87,-3.86,-3.87,-4.19,1.87,1.88,1.87
238.26,5.68,3.83,5.67,3.81,-3.81,-3.82,-4.16,1.87,1.87,1.85
240.64,5.61,3.74,5.62,3.76,-3.76,-3.77,-4.14,1.85,1.86,1.87
243.05,5.56,3.70,5.55,3.70,-3.70,-3.71,-4.11,1.86,1.85,1.86
245.48,5.50,3.65,5.50,3.64,-3.65,-3.66,-4.07,1.85,1.85,1.85
247.93,5.43,3.59,5.44,3.59,-3.60,-3.61,-4.04,1.83,1.84,1.84
250.41,5.40,3.55,5.39,3.54,-3.55,-3.55,-4.00,1.85,1.85,1.85
252.92,5.35,3.49,5.35,3.50,-3.50,-3.50,-3.95,1.85,1.85,1.86
255.45,5.31,3.46,5.31,3.45,-3.45,-3.44,-3.90,1.86,1.86,1.85
258.00,5.26,3.41,5.26,3.41,-3.40,-3.39,-3.85,1.86,1.86,1.85
260.58,5.21,3.35,5.21,3.36,-3.36,-3.34,-3.79,1.85,1.86,1.86
263.19,5.17,3.31,5.17,3.31,-3.31,-3.28,-3.73,1.86,1.85,1.86
265.82,5.12,3.27,5.13,3.27,-3.27,-3.23,-3.66,1.85,1.85,1.85
268.48,5.09,3.23,5.09,3.23,-3.24,-3.17,-3.60,1.85,1.85,1.86
271.16,5.06,3.20,5.05,3.19,-3.20,-3.12,-3.53,1.86,1.85,1.86
273.87,5.01,3.15,5.02,3.16,-3.16,-3.06,-3.45,1.85,1.86,1.86
276.61,4.98,3.12,4.98,3.13,-3.12,-3.01,-3.37,1.86,1.86,1.86
279.38,4.95,3.10,4.95,3.09,-3.08,-2.95,-3.29,1.87,1.87,1.85
282.17,4.91,3.06,4.91,3.05,-3.04,-2.90,-3.21,1.87,1.87,1.85
284.99,4.87,3.00,4.86,3.00,-2.99,-2.84,-3.13,1.88,1.87,1.87
287.84,4.81,2.94,4.81,2.94,-2.95,-2.79,-3.05,1.86,1.87,1.87
290.72,4.76,2.89,4.76,2.89,-2.90,-2.73,-2.96,1.86,1.87,1.87
293.63,4.72,2.83,4.72,2.83,-2.84,-2.67,-2.87,1.88,1.87,1.89
296.57,4.67,2.78,4.67,2.78,-2.78,-2.62,-2.78,1.89,1.89,1.89
299.53,4.63,2.73,4.63,2.73,-2.72,-2.56,-2.69,1.91,1.91,1.90
302.53,4.59,2.67,4.58,2.67,-2.66,-2.51,-2.61,1.93,1.92,1.92
305.55,4.53,2.62,4.53,2.61,-2.60,-2.45,-2.52,1.93,1.93,1.91
308.61,4.46,2.53,4.46,2.54,-2.54,-2.39,-2.43,1.92,1.93,1.93
311.69,4.39,2.45,4.40,2.46,-2.47,-2.34,-2.34,1.92,1.93,1.94
314.81,4.34,2.40,4.34,2.39,-2.40,-2.28,-2.25,1.94,1.94,1.94
317.96,4.28,2.33,4.28,2.33,-2.33,-2.22,-2.16,1.95,1.95,1.95
321.14,4.22,2.25,4.22,2.26,-2.25,-2.16,-2.07,1.97,1.96,1.97
324.35,4.15,2.19,4.15,2.18,-2.18,-2.11,-1.99,1.97,1.97,1.96
327.59,4.09,2.10,4.09,2.11,-2.11,-2.05,-1.90,1.98,1.98,1.99
330.87,4.03,2.04,4.03,2.04,-2.04,-1.99,-1.81,1.99,1.99,1.99
334.18,3.97,1.97,3.97,1.97,-1.97,-1.93,-1.73,2.00,2.00,2.00
337.52,3.90,1.90,3.90,1.90,-1.90,-1.88,-1.64,2.00,2.00,2.00
340.90,3.85,1.83,3.85,1.83,-1.84,-1.82,-1.56,2.01,2.01,2.02
344.30,3.79,1.76,3.79,1.77,-1.77,-1.76,-1.48,2.02,2.02,2.03
347.75,3.75,1.71,3.75,1.71,-1.71,-1.70,-1.40,2.04,2.04,2.04
351.23,3.69,1.65,3.69,1.65,-1.64,-1.64,-1.31,2.05,2.05,2.04
354.74,3.64,1.58,3.64,1.58,-1.58,-1.58,-1.23,2.06,2.06,2.06
358.28,3.57,1.51,3.58,1.51,-1.51,-1.52,-1.16,2.06,2.06,2.06
361.87,3.52,1.45,3.52,1.44,-1.45,-1.46,-1.08,2.07,2.07,2.07
365.49,3.46,1.38,3.46,1.38,-1.38,-1.40,-1.00,2.08,2.08,2.08
369.14,3.40,1.30,3.40,1.31,-1.31,-1.34,-0.92,2.09,2.09,2.10
372.83,3.35,1.24,3.34,1.24,-1.24,-1.28,-0.85,2.11,2.10,2.11
376.56,3.27,1.17,3.28,1.17,-1.17,-1.22,-0.77,2.10,2.11,2.10
380.33,3.21,1.10,3.21,1.10,-1.10,-1.16,-0.70,2.11,2.12,2.11
384.13,3.15,1.02,3.15,1.02,-1.02,-1.10,-0.63,2.13,2.13,2.13
387.97,3.09,0.95,3.09,0.95,-0.95,-1.03,-0.55,2.14,2.14,2.14
391.85,3.02,0.87,3.02,0.88,-0.87,-0.97,-0.48,2.15,2.15,2.15
395.77,2.96,0.80,2.96,0.80,-0.80,-0.91,-0.41,2.16,2.16,2.16
399.73,2.89,0.72,2.89,0.72,-0.72,-0.85,-0.34,2.17,2.17,2.17
403.72,2.83,0.63,2.83,0.65,-0.65,-0.78,-0.27,2.18,2.18,2.19
407.76,2.77,0.58,2.77,0.57,-0.57,-0.72,-0.21,2.20,2.20,2.19
411.84,2.71,0.51,2.71,0.50,-0.50,-0.66,-0.14,2.21,2.21,2.20
415.96,2.65,0.43,2.65,0.43,-0.43,-0.59,-0.07,2.22,2.21,2.22
420.12,2.58,0.36,2.59,0.36,-0.36,-0.53,-0.01,2.22,2.22,2.22
424.32,2.53,0.30,2.53,0.30,-0.30,-0.46,0.06,2.23,2.23,2.23
428.56,2.48,0.23,2.48,0.23,-0.23,-0.40,0.12,2.25,2.24,2.25
432.85,2.43,0.17,2.42,0.17,-0.17,-0.33,0.18,2.26,2.25,2.26
437.18,2.36,0.10,2.37,0.10,-0.11,-0.27,0.24,2.25,2.26,2.26
441.55,2.31,0.04,2.31,0.04,-0.04,-0.20,0.30,2.27,2.27,2.27
445.96,2.26,-0.02,2.26,-0.02,0.02,-0.13,0.36,2.28,2.28,2.28
450.42,2.21,-0.08,2.21,-0.08,0.09,-0.07,0.42,2.30,2.29,2.29
454.93,2.15,-0.14,2.15,-0.15,0.15,-0.00,0.47,2.30,2.30,2.29
459.48,2.08,-0.22,2.09,-0.22,0.22,0.07,0.53,2.30,2.30,2.30
464.07,2.03,-0.29,2.03,-0.29,0.28,0.14,0.58,2.31,2.31,2.32
468.71,1.98,-0.35,1.98,-0.36,0.35,0.20,0.63,2.33,2.33,2.33
473.40,1.92,-0.42,1.92,-0.42,0.42,0.27,0.68,2.34,2.34,2.34
478.13,1.87,-0.48,1.87,-0.48,0.49,0.34,0.73,2.36,2.36,2.35
482.91,1.81,-0.55,1.81,-0.55,0.56,0.41,0.77,2.37,2.37,2.36
487.74,1.75,-0.62,1.75,-0.62,0.62,0.48,0.82,2.37,2.37,2.37
492.62,1.68,-0.70,1.68,-0.70,0.69,0.55,0.86,2.37,2.37,2.38
497.55,1.62,-0.77,1.63,-0.76,0.76,0.62,0.90,2.38,2.38,2.39
502.52,1.58,-0.82,1.58,-0.83,0.82,0.69,0.94,2.40,2.40,2.40
507.55,1.53,-0.89,1.53,-0.89,0.89,0.76,0.98,2.42,2.42,2.42
512.62,1.48,-0.95,1.48,-0.95,0.96,0.83,1.01,2.44,2.44,2.43
