frequency,raw,smoothed,error,error_smoothed,equalization,parametric_eq,fixed_band_eq,equalized_raw,equalized_smoothed,target
20.00,3.64,3.64,-2.66,-2.66,2.66,1.90,0.87,6.30,6.30,6.30
20.20,3.67,3.67,-2.63,-2.63,2.63,1.90,0.89,6.30,6.30,6.30
20.40,3.70,3.70,-2.60,-2.60,2.60,1.90,0.92,6.30,6.30,6.30
20.61,3.73,3.73,-2.57,-2.57,2.57,1.90,0.95,6.30,6.30,6.30
20.81,3.76,3.77,-2.54,-2.54,2.54,1.89,0.97,6.30,6.30,6.30
21.02,3.79,3.79,-2.51,-2.51,2.51,1.89,1.00,6.30,6.30,6.30
21.23,3.82,3.82,-2.47,-2.48,2.48,1.89,1.03,6.30,6.30,6.30
21.44,3.84,3.85,-2.45,-2.45,2.45,1.89,1.07,6.29,6.30,6.30
21.66,3.87,3.88,-2.42,-2.42,2.42,1.89,1.10,6.29,6.29,6.30
21.87,3.91,3.90,-2.39,-2.39,2.39,1.89,1.13,6.30,6.29,6.30
22.09,3.93,3.94,-2.36,-2.36,2.36,1.88,1.16,6.30,6.30,6.30
22.31,3.96,3.96,-2.33,-2.33,2.33,1.88,1.20,6.30,6.30,6.30
22.54,3.99,3.99,-2.30,-2.30,2.31,1.88,1.24,6.30,6.30,6.29
22.76,4.01,4.02,-2.28,-2.28,2.28,1.88,1.27,6.29,6.29,6.29
22.99,4.04,4.04,-2.25,-2.25,2.25,1.88,1.31,6.29,6.29,6.29
23.22,4.06,4.07,-2.23,-2.23,2.22,1.87,1.35,6.29,6.29,6.29
23.45,4.09,4.09,-2.20,-2.20,2.20,1.87,1.39,6.29,6.29,6.29
23.69,4.11,4.12,-2.18,-2.17,2.17,1.87,1.43,6.29,6.29,6.29
23.92,4.14,4.14,-2.14,-2.15,2.15,1.87,1.47,6.29,6.29,6.29
24.16,4.16,4.16,-2.12,-2.12,2.12,1.87,1.51,6.29,6.29,6.29
24.40,4.18,4.19,-2.10,-2.10,2.10,1.86,1.55,6.29,6.29,6.29
24.65,4.20,4.20,-2.08,-2.08,2.08,1.86,1.59,6.28,6.28,6.28
24.89,4.22,4.22,-2.06,-2.06,2.06,1.86,1.64,6.28,6.28,6.28
25.14,4.24,4.25,-2.04,-2.04,2.04,1.86,1.68,6.28,6.28,6.28
25.39,4.26,4.26,-2.02,-2.02,2.02,1.85,1.72,6.28,6.28,6.28
25.65,4.28,4.28,-1.99,-2.00,2.00,1.85,1.77,6.28,6.28,6.28
25.91,4.29,4.30,-1.98,-1.98,1.98,1.85,1.81,6.27,6.28,6.28
26.16,4.31,4.31,-1.96,-1.96,1.96,1.85,1.85,6.28,6.28,6.28
26.43,4.33,4.33,-1.94,-1.94,1.94,1.84,1.90,6.28,6.27,6.27
26.69,4.34,4.35,-1.93,-1.93,1.93,1.84,1.94,6.27,6.27,6.27
26.96,4.36,4.36,-1.91,-1.91,1.91,1.84,1.98,6.27,6.27,6.27
27.23,4.37,4.38,-1.89,-1.89,1.89,1.83,2.02,6.27,6.27,6.27
27.50,4.39,4.39,-1.87,-1.87,1.88,1.83,2.06,6.27,6.27,6.27
27.77,4.40,4.41,-1.86,-1.86,1.86,1.83,2.10,6.26,6.27,6.27
28.05,4.42,4.42,-1.84,-1.84,1.84,1.83,2.13,6.27,6.26,6.26
28.33,4.43,4.43,-1.83,-1.83,1.83,1.82,2.17,6.26,6.26,6.26
28.62,4.44,4.45,-1.81,-1.81,1.81,1.82,2.20,6.26,6.26,6.26
28.90,4.46,4.46,-1.79,-1.80,1.80,1.82,2.23,6.26,6.26,6.26
29.19,4.47,4.47,-1.78,-1.78,1.78,1.81,2.26,6.26,6.25,6.25
29.48,4.48,4.49,-1.77,-1.77,1.77,1.81,2.28,6.25,6.25,6.25
29.78,4.49,4.50,-1.76,-1.75,1.75,1.80,2.30,6.24,6.25,6.25
30.08,4.51,4.51,-1.73,-1.74,1.74,1.80,2.32,6.25,6.25,6.25
30.38,4.52,4.52,-1.72,-1.72,1.72,1.80,2.33,6.25,6.25,6.24
30.68,4.53,4.54,-1.71,-1.71,1.71,1.79,2.34,6.24,6.24,6.24
30.99,4.54,4.54,-1.69,-1.69,1.69,1.79,2.35,6.24,6.24,6.24
31.30,4.55,4.56,-1.68,-1.68,1.68,1.79,2.36,6.24,6.24,6.24
31.61,4.56,4.56,-1.67,-1.67,1.67,1.78,2.36,6.23,6.23,6.23
31.93,4.57,4.57,-1.65,-1.66,1.66,1.78,2.35,6.23,6.23,6.23
32.24,4.57,4.58,-1.65,-1.65,1.65,1.77,2.35,6.22,6.22,6.23
32.57,4.58,4.59,-1.64,-1.64,1.64,1.77,2.34,6.22,6.22,6.22
32.89,4.59,4.59,-1.62,-1.63,1.62,1.76,2.33,6.22,6.22,6.22
33.22,4.60,4.60,-1.61,-1.61,1.61,1.76,2.31,6.22,6.21,6.21
33.55,4.60,4.61,-1.61,-1.60,1.60,1.75,2.29,6.21,6.21,6.21
33.89,4.61,4.61,-1.59,-1.59,1.59,1.75,2.27,6.21,6.21,6.21
34.23,4.62,4.62,-1.58,-1.58,1.58,1.74,2.25,6.21,6.20,6.20
34.57,4.62,4.63,-1.57,-1.57,1.57,1.74,2.22,6.20,6.20,6.20
34.92,4.63,4.63,-1.56,-1.56,1.56,1.73,2.19,6.20,6.19,6.19
35.27,4.63,4.64,-1.55,-1.55,1.55,1.73,2.16,6.19,6.19,6.19
35.62,4.64,4.64,-1.54,-1.54,1.54,1.72,2.13,6.19,6.18,6.18
35.97,4.64,4.65,-1.53,-1.53,1.53,1.72,2.10,6.18,6.18,6.18
36.33,4.65,4.65,-1.52,-1.52,1.52,1.71,2.07,6.18,6.17,6.17
36.70,4.65,4.65,-1.51,-1.51,1.51,1.71,2.03,6.17,6.17,6.17
37.06,4.65,4.66,-1.51,-1.50,1.50,1.70,2.00,6.16,6.16,6.16
37.43,4.66,4.66,-1.49,-1.50,1.49,1.69,1.96,6.16,6.15,6.16
37.81,4.66,4.66,-1.49,-1.49,1.49,1.69,1.92,6.15,6.15,6.15
38.19,4.66,4.67,-1.48,-1.48,1.48,1.68,1.89,6.14,6.14,6.14
38.57,4.67,4.67,-1.46,-1.47,1.47,1.68,1.85,6.14,6.14,6.14
38.95,4.67,4.67,-1.46,-1.46,1.46,1.67,1.82,6.13,6.13,6.13
39.34,4.67,4.68,-1.45,-1.45,1.45,1.66,1.78,6.12,6.13,6.12
39.74,4.67,4.67,-1.44,-1.44,1.44,1.65,1.75,6.12,6.12,6.12
40.14,4.67,4.68,-1.43,-1.43,1.43,1.65,1.71,6.11,6.11,6.11
40.54,4.67,4.67,-1.43,-1.43,1.43,1.64,1.68,6.10,6.10,6.10
40.94,4.67,4.67,-1.42,-1.42,1.42,1.63,1.65,6.10,6.09,6.09
41.35,4.66,4.67,-1.42,-1.42,1.42,1.62,1.62,6.08,6.08,6.08
41.76,4.66,4.66,-1.41,-1.41,1.41,1.62,1.59,6.07,6.07,6.08
42.18,4.66,4.66,-1.40,-1.40,1.40,1.61,1.56,6.07,6.07,6.07
42.60,4.66,4.66,-1.39,-1.39,1.39,1.60,1.53,6.06,6.06,6.06
43.03,4.66,4.66,-1.38,-1.39,1.39,1.59,1.50,6.05,6.05,6.05
43.46,4.65,4.66,-1.38,-1.38,1.38,1.58,1.48,6.03,6.04,6.04
43.90,4.65,4.65,-1.37,-1.37,1.37,1.57,1.45,6.02,6.02,6.03
44.33,4.65,4.65,-1.36,-1.36,1.36,1.56,1.43,6.02,6.02,6.02
44.78,4.65,4.65,-1.35,-1.35,1.35,1.55,1.41,6.01,6.01,6.01
45.23,4.65,4.65,-1.34,-1.34,1.34,1.54,1.39,6.00,6.00,5.99
45.68,4.64,4.65,-1.34,-1.33,1.34,1.53,1.37,5.98,5.98,5.98
46.13,4.64,4.64,-1.32,-1.33,1.33,1.52,1.35,5.97,5.97,5.97
46.60,4.63,4.64,-1.32,-1.32,1.32,1.51,1.33,5.95,5.95,5.96
47.06,4.63,4.63,-1.31,-1.31,1.31,1.50,1.31,5.94,5.94,5.94
47.53,4.62,4.63,-1.30,-1.30,1.30,1.49,1.30,5.93,5.93,5.93
48.01,4.62,4.62,-1.29,-1.29,1.29,1.48,1.28,5.92,5.91,5.91
48.49,4.61,4.62,-1.29,-1.28,1.28,1.47,1.27,5.90,5.90,5.90
48.97,4.61,4.61,-1.27,-1.27,1.27,1.46,1.25,5.89,5.88,5.88
49.46,4.60,4.61,-1.26,-1.26,1.26,1.44,1.24,5.87,5.87,5.87
49.96,4.60,4.60,-1.25,-1.25,1.25,1.43,1.23,5.86,5.85,5.85
50.46,4.59,4.59,-1.24,-1.24,1.24,1.42,1.22,5.84,5.84,5.84
50.96,4.58,4.59,-1.23,-1.23,1.23,1.41,1.21,5.82,5.82,5.82
51.47,4.57,4.57,-1.23,-1.23,1.22,1.39,1.20,5.80,5.80,5.80
51.99,4.56,4.56,-1.22,-1.22,1.21,1.38,1.19,5.78,5.78,5.78
52.51,4.55,4.55,-1.21,-1.21,1.21,1.36,1.18,5.76,5.76,5.76
53.03,4.54,4.54,-1.20,-1.20,1.20,1.35,1.17,5.74,5.74,5.74
53.56,4.53,4.54,-1.19,-1.19,1.19,1.33,1.17,5.72,5.72,5.72
54.10,4.52,4.52,-1.18,-1.18,1.18,1.32,1.16,5.70,5.70,5.70
54.64,4.51,4.51,-1.16,-1.17,1.17,1.30,1.15,5.68,5.68,5.68
55.18,4.49,4.50,-1.16,-1.16,1.16,1.29,1.14,5.65,5.65,5.66
55.74,4.48,4.49,-1.15,-1.15,1.15,1.27,1.13,5.63,5.63,5.63
56.29,4.47,4.47,-1.13,-1.13,1.13,1.25,1.12,5.61,5.61,5.61
56.86,4.46,4.46,-1.12,-1.12,1.12,1.24,1.11,5.59,5.58,5.58
57.42,4.44,4.45,-1.11,-1.11,1.11,1.22,1.10,5.55,5.56,5.56
58.00,4.43,4.43,-1.10,-1.10,1.10,1.20,1.09,5.53,5.53,5.53
58.58,4.42,4.42,-1.08,-1.08,1.08,1.18,1.08,5.51,5.50,5.50
59.16,4.40,4.41,-1.07,-1.07,1.07,1.16,1.07,5.47,5.48,5.48
59.76,4.39,4.39,-1.05,-1.05,1.05,1.14,1.05,5.45,5.45,5.45
60.35,4.37,4.38,-1.04,-1.04,1.04,1.13,1.04,5.41,5.42,5.42
60.96,4.36,4.36,-1.02,-1.02,1.02,1.10,1.02,5.39,5.39,5.39
61.57,4.34,4.35,-1.01,-1.01,1.01,1.08,1.00,5.35,5.35,5.36
62.18,4.33,4.33,-0.99,-0.99,0.99,1.06,0.98,5.32,5.32,5.32
62.80,4.31,4.32,-0.97,-0.97,0.97,1.04,0.96,5.29,5.29,5.29
63.43,4.30,4.30,-0.95,-0.95,0.95,1.02,0.94,5.26,5.26,5.26
64.07,4.28,4.29,-0.94,-0.93,0.93,1.00,0.92,5.22,5.22,5.22
64.71,4.27,4.27,-0.91,-0.91,0.91,0.97,0.89,5.19,5.18,5.18
65.35,4.25,4.25,-0.89,-0.89,0.89,0.95,0.87,5.15,5.15,5.15
66.01,4.23,4.24,-0.87,-0.87,0.87,0.92,0.84,5.11,5.11,5.11
66.67,4.22,4.22,-0.85,-0.85,0.85,0.90,0.81,5.07,5.07,5.07
67.33,4.20,4.20,-0.83,-0.83,0.83,0.87,0.78,5.03,5.03,5.03
68.01,4.18,4.18,-0.80,-0.80,0.80,0.85,0.75,4.99,4.99,4.99
68.69,4.16,4.16,-0.78,-0.78,0.78,0.82,0.72,4.94,4.94,4.95
69.37,4.14,4.15,-0.76,-0.76,0.75,0.79,0.69,4.90,4.90,4.90
70.07,4.13,4.13,-0.72,-0.73,0.73,0.76,0.65,4.86,4.86,4.86
70.77,4.11,4.11,-0.70,-0.70,0.70,0.74,0.62,4.82,4.82,4.81
71.48,4.09,4.10,-0.67,-0.67,0.67,0.71,0.58,4.77,4.77,4.77
72.19,4.07,4.07,-0.65,-0.65,0.65,0.68,0.55,4.72,4.72,4.72
72.91,4.05,4.05,-0.62,-0.62,0.62,0.65,0.51,4.67,4.67,4.67
73.64,4.03,4.03,-0.59,-0.59,0.59,0.62,0.47,4.62,4.62,4.62
74.38,4.01,4.01,-0.56,-0.56,0.56,0.58,0.43,4.57,4.57,4.57
75.12,3.99,4.00,-0.53,-0.53,0.53,0.55,0.39,4.52,4.52,4.52
75.87,3.97,3.97,-0.50,-0.50,0.50,0.52,0.35,4.47,4.47,4.47
76.63,3.95,3.95,-0.46,-0.47,0.47,0.49,0.31,4.42,4.42,4.42
77.40,3.92,3.93,-0.44,-0.43,0.43,0.45,0.27,4.36,4.36,4.36
78.17,3.90,3.90,-0.40,-0.40,0.40,0.42,0.23,4.30,4.30,4.31
78.95,3.88,3.88,-0.37,-0.37,0.37,0.38,0.19,4.25,4.25,4.25
79.74,3.86,3.86,-0.33,-0.33,0.33,0.35,0.15,4.19,4.19,4.19
80.54,3.84,3.84,-0.29,-0.29,0.29,0.31,0.11,4.14,4.14,4.13
81.35,3.81,3.82,-0.26,-0.26,0.26,0.27,0.07,4.07,4.08,4.08
82.16,3.79,3.79,-0.22,-0.22,0.22,0.24,0.02,4.02,4.02,4.02
82.98,3.77,3.77,-0.18,-0.18,0.18,0.20,-0.02,3.96,3.95,3.95
83.81,3.74,3.75,-0.15,-0.15,0.15,0.16,-0.06,3.89,3.89,3.89
84.65,3.72,3.72,-0.11,-0.11,0.11,0.12,-0.10,3.83,3.83,3.83
85.50,3.69,3.70,-0.07,-0.07,0.07,0.08,-0.15,3.76,3.77,3.77
86.35,3.67,3.67,-0.03,-0.03,0.03,0.04,-0.19,3.70,3.70,3.70
87.22,3.64,3.65,0.01,0.01,-0.01,-0.00,-0.23,3.63,3.64,3.64
88.09,3.62,3.62,0.05,0.05,-0.05,-0.04,-0.28,3.57,3.57,3.57
88.97,3.59,3.59,0.09,0.09,-0.09,-0.08,-0.32,3.50,3.50,3.50
89.86,3.56,3.57,0.13,0.13,-0.13,-0.13,-0.37,3.43,3.44,3.44
90.76,3.54,3.54,0.18,0.17,-0.17,-0.17,-0.41,3.37,3.37,3.37
91.66,3.51,3.51,0.21,0.21,-0.22,-0.21,-0.46,3.30,3.30,3.30
92.58,3.48,3.49,0.25,0.26,-0.26,-0.26,-0.50,3.23,3.23,3.23
93.51,3.46,3.46,0.30,0.30,-0.30,-0.30,-0.55,3.17,3.16,3.16
94.44,3.43,3.43,0.34,0.34,-0.34,-0.35,-0.59,3.09,3.09,3.09
95.39,3.40,3.41,0.38,0.39,-0.38,-0.39,-0.64,3.02,3.02,3.02
96.34,3.37,3.37,0.43,0.43,-0.43,-0.44,-0.68,2.95,2.95,2.95
97.30,3.34,3.34,0.47,0.47,-0.47,-0.48,-0.73,2.88,2.88,2.88
98.28,3.31,3.31,0.51,0.51,-0.51,-0.53,-0.78,2.80,2.80,2.81
99.26,3.28,3.28,0.55,0.55,-0.55,-0.57,-0.82,2.73,2.73,2.73
100.25,3.25,3.25,0.59,0.59,-0.60,-0.62,-0.87,2.66,2.66,2.66
101.25,3.22,3.23,0.64,0.64,-0.64,-0.66,-0.91,2.58,2.59,2.59
102.27,3.20,3.20,0.69,0.69,-0.69,-0.71,-0.96,2.52,2.52,2.52
103.29,3.17,3.17,0.73,0.73,-0.73,-0.76,-1.00,2.44,2.44,2.44
104.32,3.14,3.15,0.78,0.78,-0.77,-0.80,-1.05,2.37,2.37,2.37
105.37,3.11,3.12,0.82,0.82,-0.82,-0.85,-1.09,2.30,2.30,2.30
106.42,3.08,3.08,0.86,0.86,-0.86,-0.89,-1.14,2.23,2.22,2.22
107.48,3.05,3.05,0.90,0.90,-0.90,-0.94,-1.18,2.15,2.15,2.15
108.56,3.01,3.02,0.94,0.94,-0.94,-0.99,-1.22,2.07,2.07,2.08
109.64,2.98,2.98,0.98,0.98,-0.98,-1.03,-1.26,2.00,2.00,2.00
110.74,2.95,2.95,1.02,1.02,-1.02,-1.08,-1.30,1.93,1.93,1.93
111.85,2.92,2.93,1.06,1.07,-1.06,-1.12,-1.34,1.86,1.86,1.86
112.97,2.89,2.89,1.11,1.11,-1.10,-1.17,-1.38,1.79,1.79,1.79
114.10,2.86,2.86,1.15,1.15,-1.14,-1.21,-1.42,1.72,1.72,1.72
115.24,2.82,2.83,1.18,1.18,-1.18,-1.25,-1.45,1.64,1.64,1.64
116.39,2.79,2.79,1.22,1.22,-1.22,-1.29,-1.48,1.57,1.57,1.57
117.55,2.76,2.76,1.26,1.26,-1.26,-1.34,-1.51,1.50,1.50,1.50
118.73,2.73,2.73,1.30,1.30,-1.30,-1.38,-1.54,1.43,1.43,1.43
119.92,2.70,2.71,1.34,1.34,-1.34,-1.42,-1.57,1.37,1.37,1.36
121.12,2.67,2.68,1.38,1.38,-1.37,-1.46,-1.59,1.30,1.30,1.30
122.33,2.64,2.64,1.42,1.41,-1.41,-1.50,-1.61,1.24,1.23,1.23
123.55,2.60,2.61,1.45,1.45,-1.44,-1.54,-1.63,1.16,1.16,1.16
124.79,2.56,2.56,1.47,1.47,-1.47,-1.57,-1.65,1.09,1.09,1.09
126.03,2.52,2.52,1.50,1.50,-1.50,-1.61,-1.66,1.02,1.02,1.03
127.29,2.48,2.49,1.52,1.53,-1.53,-1.64,-1.67,0.95,0.95,0.96
128.57,2.45,2.45,1.56,1.56,-1.56,-1.68,-1.68,0.89,0.89,0.90
129.85,2.42,2.42,1.59,1.59,-1.59,-1.71,-1.69,0.83,0.83,0.83
131.15,2.39,2.39,1.62,1.62,-1.62,-1.74,-1.70,0.77,0.77,0.77
132.46,2.36,2.36,1.66,1.65,-1.65,-1.77,-1.70,0.71,0.71,0.71
133.79,2.32,2.33,1.68,1.68,-1.68,-1.80,-1.70,0.64,0.65,0.65
135.12,2.29,2.29,1.71,1.71,-1.71,-1.83,-1.70,0.59,0.59,0.59
136.48,2.26,2.26,1.74,1.73,-1.74,-1.85,-1.70,0.53,0.53,0.53
137.84,2.22,2.23,1.76,1.76,-1.76,-1.88,-1.69,0.46,0.47,0.47
139.22,2.19,2.19,1.78,1.78,-1.78,-1.90,-1.69,0.41,0.41,0.41
140.61,2.15,2.16,1.80,1.80,-1.80,-1.92,-1.68,0.35,0.35,0.35
142.02,2.12,2.13,1.83,1.83,-1.83,-1.94,-1.67,0.30,0.30,0.30
143.44,2.09,2.09,1.85,1.85,-1.85,-1.96,-1.66,0.25,0.24,0.24
144.87,2.05,2.05,1.86,1.86,-1.87,-1.98,-1.66,0.19,0.19,0.19
146.32,2.01,2.02,1.88,1.88,-1.88,-1.99,-1.65,0.13,0.13,0.14
147.78,1.98,1.99,1.90,1.90,-1.90,-2.01,-1.64,0.08,0.08,0.09
149.26,1.95,1.95,1.92,1.92,-1.92,-2.02,-1.63,0.04,0.04,0.03
150.75,1.92,1.92,1.94,1.93,-1.93,-2.03,-1.62,-0.00,-0.01,-0.01
152.26,1.87,1.88,1.94,1.94,-1.94,-2.04,-1.61,-0.06,-0.06,-0.06
153.78,1.83,1.84,1.95,1.95,-1.94,-2.05,-1.60,-0.11,-0.11,-0.11
155.32,1.79,1.79,1.95,1.95,-1.95,-2.06,-1.59,-0.16,-0.16,-0.16
156.88,1.75,1.75,1.96,1.96,-1.96,-2.06,-1.59,-0.20,-0.20,-0.20
158.44,1.71,1.71,1.96,1.96,-1.97,-2.07,-1.58,-0.25,-0.25,-0.25
160.03,1.67,1.67,1.96,1.97,-1.97,-2.07,-1.57,-0.30,-0.30,-0.29
161.63,1.63,1.64,1.98,1.98,-1.98,-2.07,-1.57,-0.35,-0.35,-0.34
163.24,1.60,1.60,1.99,1.99,-1.99,-2.07,-1.56,-0.39,-0.39,-0.38
164.88,1.57,1.57,2.00,2.00,-2.00,-2.07,-1.56,-0.42,-0.42,-0.42
166.53,1.54,1.54,2.01,2.01,-2.00,-2.07,-1.56,-0.46,-0.46,-0.46
168.19,1.51,1.51,2.02,2.01,-2.01,-2.06,-1.56,-0.49,-0.49,-0.50
169.87,1.47,1.48,2.01,2.01,-2.01,-2.06,-1.56,-0.53,-0.53,-0.54
171.57,1.43,1.43,2.01,2.01,-2.00,-2.05,-1.56,-0.57,-0.57,-0.58
173.29,1.38,1.38,2.00,1.99,-2.00,-2.04,-1.56,-0.61,-0.61,-0.61
175.02,1.33,1.34,1.98,1.98,-1.99,-2.04,-1.56,-0.66,-0.65,-0.65
176.77,1.29,1.30,1.97,1.98,-1.98,-2.03,-1.57,-0.69,-0.69,-0.68
178.54,1.26,1.26,1.98,1.97,-1.98,-2.02,-1.58,-0.71,-0.72,-0.71
180.32,1.22,1.23,1.97,1.97,-1.97,-2.01,-1.58,-0.75,-0.74,-0.74
182.13,1.19,1.19,1.97,1.97,-1.97,-1.99,-1.59,-0.77,-0.77,-0.77
183.95,1.15,1.16,1.96,1.96,-1.96,-1.98,-1.60,-0.81,-0.81,-0.80
185.79,1.12,1.13,1.96,1.96,-1.96,-1.97,-1.61,-0.83,-0.83,-0.83
187.65,1.09,1.09,1.96,1.96,-1.95,-1.95,-1.63,-0.86,-0.86,-0.86
189.52,1.06,1.06,1.95,1.95,-1.95,-1.94,-1.64,-0.88,-0.89,-0.89
191.42,1.02,1.03,1.94,1.94,-1.94,-1.93,-1.65,-0.92,-0.91,-0.92
193.33,0.98,0.99,1.93,1.93,-1.93,-1.91,-1.67,-0.94,-0.94,-0.94
195.27,0.95,0.95,1.92,1.92,-1.92,-1.90,-1.69,-0.96,-0.97,-0.97
197.22,0.91,0.91,1.91,1.91,-1.90,-1.88,-1.70,-0.99,-0.99,-0.99
199.19,0.87,0.87,1.89,1.89,-1.89,-1.86,-1.72,-1.02,-1.02,-1.02
201.18,0.83,0.83,1.87,1.87,-1.87,-1.85,-1.74,-1.04,-1.04,-1.04
203.19,0.79,0.80,1.85,1.86,-1.86,-1.83,-1.76,-1.06,-1.06,-1.06
205.23,0.76,0.76,1.85,1.84,-1.84,-1.81,-1.78,-1.08,-1.08,-1.08
207.28,0.72,0.72,1.83,1.83,-1.83,-1.80,-1.80,-1.10,-1.10,-1.10
209.35,0.68,0.69,1.81,1.81,-1.81,-1.78,-1.82,-1.13,-1.12,-1.12
211.44,0.65,0.65,1.80,1.79,-1.79,-1.76,-1.84,-1.14,-1.14,-1.14
213.56,0.61,0.62,1.78,1.78,-1.78,-1.75,-1.86,-1.16,-1.16,-1.16
215.69,0.58,0.58,1.76,1.76,-1.76,-1.73,-1.88,-1.18,-1.18,-1.18
217.85,0.54,0.55,1.74,1.74,-1.74,-1.71,-1.90,-1.20,-1.19,-1.20
220.03,0.51,0.51,1.73,1.73,-1.72,-1.70,-1.91,-1.21,-1.21,-1.21
222.23,0.47,0.47,1.71,1.70,-1.70,-1.68,-1.93,-1.23,-1.23,-1.23
224.45,0.43,0.43,1.68,1.68,-1.68,-1.66,-1.95,-1.25,-1.25,-1.25
226.70,0.39,0.40,1.66,1.66,-1.66,-1.64,-1.96,-1.27,-1.27,-1.26
228.96,0.36,0.36,1.64,1.64,-1.65,-1.63,-1.97,-1.28,-1.28,-1.28
231.25,0.33,0.33,1.63,1.62,-1.63,-1.61,-1.98,-1.29,-1.29,-1.29
233.57,0.30,0.30,1.61,1.61,-1.61,-1.59,-1.99,-1.30,-1.31,-1.31
235.90,0.26,0.27,1.59,1.59,-1.59,-1.57,-1.99,-1.32,-1.32,-1.33
238.26,0.23,0.23,1.58,1.57,-1.57,-1.56,-2.00,-1.34,-1.34,-1.34
240.64,0.19,0.20,1.55,1.55,-1.55,-1.54,-2.00,-1.36,-1.36,-1.35
243.05,0.16,0.17,1.53,1.53,-1.53,-1.52,-2.00,-1.37,-1.37,-1.37
245.48,0.13,0.13,1.51,1.51,-1.51,-1.50,-1.99,-1.38,-1.38,-1.38
247.93,0.10,0.10,1.49,1.49,-1.49,-1.48,-1.98,-1.39,-1.39,-1.39
250.41,0.06,0.07,1.46,1.47,-1.47,-1.46,-1.97,-1.40,-1.40,-1.40
252.92,0.03,0.03,1.45,1.45,-1.45,-1.44,-1.96,-1.41,-1.41,-1.41
255.45,0.00,0.00,1.43,1.42,-1.42,-1.42,-1.94,-1.42,-1.42,-1.42
258.00,-0.04,-0.03,1.40,1.40,-1.40,-1.39,-1.92,-1.44,-1.43,-1.43
260.58,-0.07,-0.07,1.38,1.37,-1.38,-1.37,-1.90,-1.44,-1.44,-1.44
263.19,-0.10,-0.10,1.35,1.35,-1.35,-1.35,-1.88,-1.45,-1.45,-1.45
265.82,-0.14,-0.13,1.32,1.33,-1.33,-1.32,-1.85,-1.47,-1.46,-1.46
268.48,-0.16,-0.16,1.31,1.31,-1.31,-1.30,-1.82,-1.46,-1.47,-1.47
271.16,-0.20,-0.19,1.28,1.28,-1.28,-1.27,-1.78,-1.48,-1.47,-1.48
273.87,-0.23,-0.22,1.26,1.26,-1.26,-1.24,-1.75,-1.48,-1.48,-1.48
276.61,-0.26,-0.26,1.24,1.23,-1.23,-1.22,-1.71,-1.49,-1.49,-1.49
279.38,-0.30,-0.29,1.20,1.21,-1.20,-1.19,-1.67,-1.50,-1.50,-1.50
282.17,-0.33,-0.33,1.18,1.18,-1.18,-1.16,-1.63,-1.50,-1.50,-1.51
284.99,-0.36,-0.36,1.15,1.15,-1.15,-1.13,-1.59,-1.50,-1.50,-1.50
287.84,-0.39,-0.39,1.11,1.12,-1.12,-1.10,-1.54,-1.50,-1.50,-1.50
290.72,-0.42,-0.42,1.09,1.09,-1.09,-1.07,-1.50,-1.51,-1.51,-1.51
293.63,-0.45,-0.45,1.07,1.06,-1.06,-1.04,-1.45,-1.51,-1.51,-1.51
296.57,-0.48,-0.48,1.03,1.03,-1.03,-1.01,-1.40,-1.51,-1.51,-1.51
299.53,-0.51,-0.51,1.00,1.00,-1.00,-0.98,-1.36,-1.51,-1.51,-1.50
302.53,-0.54,-0.54,0.97,0.97,-0.97,-0.95,-1.31,-1.51,-1.51,-1.51
305.55,-0.57,-0.56,0.94,0.94,-0.95,-0.92,-1.26,-1.51,-1.51,-1.50
308.61,-0.59,-0.59,0.92,0.92,-0.92,-0.89,-1.21,-1.50,-1.51,-1.51
311.69,-0.62,-0.62,0.89,0.89,-0.89,-0.87,-1.16,-1.50,-1.50,-1.50
314.81,-0.65,-0.65,0.86,0.86,-0.86,-0.84,-1.11,-1.51,-1.51,-1.51
317.96,-0.68,-0.68,0.83,0.83,-0.83,-0.81,-1.06,-1.51,-1.51,-1.50
321.14,-0.71,-0.70,0.80,0.80,-0.80,-0.78,-1.01,-1.51,-1.50,-1.51
324.35,-0.73,-0.73,0.78,0.77,-0.77,-0.75,-0.96,-1.50,-1.50,-1.50
327.59,-0.76,-0.76,0.74,0.74,-0.74,-0.72,-0.91,-1.50,-1.50,-1.50
330.87,-0.79,-0.78,0.71,0.71,-0.71,-0.70,-0.86,-1.50,-1.50,-1.50
334.18,-0.82,-0.81,0.68,0.68,-0.68,-0.67,-0.81,-1.50,-1.50,-1.49
337.52,-0.84,-0.84,0.66,0.66,-0.65,-0.64,-0.77,-1.49,-1.49,-1.50
340.90,-0.87,-0.87,0.63,0.62,-0.62,-0.61,-0.72,-1.49,-1.49,-1.49
344.30,-0.90,-0.89,0.59,0.60,-0.59,-0.59,-0.67,-1.49,-1.49,-1.48
347.75,-0.92,-0.92,0.56,0.56,-0.56,-0.56,-0.62,-1.48,-1.48,-1.48
351.23,-0.95,-0.94,0.54,0.53,-0.54,-0.54,-0.58,-1.48,-1.48,-1.48
354.74,-0.97,-0.96,0.50,0.51,-0.51,-0.51,-0.53,-1.47,-1.47,-1.46
358.28,-0.99,-0.99,0.48,0.48,-0.48,-0.49,-0.48,-1.46,-1.46,-1.47
361.87,-1.01,-1.01,0.45,0.45,-0.45,-0.46,-0.44,-1.45,-1.46,-1.46
365.49,-1.04,-1.03,0.42,0.42,-0.42,-0.44,-0.39,-1.46,-1.45,-1.45
369.14,-1.06,-1.06,0.40,0.39,-0.39,-0.41,-0.35,-1.45,-1.45,-1.46
372.83,-1.09,-1.08,0.35,0.36,-0.36,-0.39,-0.30,-1.45,-1.45,-1.44
376.56,-1.11,-1.10,0.34,0.34,-0.34,-0.37,-0.26,-1.44,-1.44,-1.44
380.33,-1.13,-1.13,0.31,0.31,-0.31,-0.34,-0.22,-1.43,-1.43,-1.43
384.13,-1.15,-1.15,0.29,0.28,-0.28,-0.32,-0.17,-1.42,-1.43,-1.44
387.97,-1.18,-1.17,0.25,0.25,-0.25,-0.30,-0.13,-1.43,-1.42,-1.43
391.85,-1.20,-1.20,0.21,0.22,-0.22,-0.27,-0.09,-1.42,-1.42,-1.41
395.77,-1.22,-1.22,0.20,0.19,-0.20,-0.25,-0.05,-1.41,-1.41,-1.41
399.73,-1.24,-1.24,0.17,0.17,-0.17,-0.23,-0.00,-1.41,-1.41,-1.40
403.72,-1.26,-1.26,0.14,0.14,-0.14,-0.20,0.04,-1.40,-1.40,-1.40
407.76,-1.28,-1.28,0.12,0.12,-0.12,-0.18,0.08,-1.39,-1.39,-1.40
411.84,-1.30,-1.30,0.09,0.09,-0.09,-0.16,0.11,-1.39,-1.39,-1.39
415.96,-1.32,-1.32,0.07,0.07,-0.07,-0.14,0.15,-1.38,-1.38,-1.38
420.12,-1.34,-1.34,0.05,0.04,-0.04,-0.11,0.19,-1.38,-1.38,-1.38
424.32,-1.36,-1.36,0.02,0.02,-0.02,-0.09,0.23,-1.38,-1.38,-1.37
428.56,-1.38,-1.37,-0.01,-0.01,0.00,-0.07,0.26,-1.37,-1.37,-1.37
432.85,-1.39,-1.39,-0.03,-0.03,0.03,-0.05,0.30,-1.36,-1.36,-1.36
437.18,-1.41,-1.41,-0.05,-0.05,0.05,-0.02,0.33,-1.35,-1.35,-1.36
441.55,-1.43,-1.42,-0.08,-0.07,0.08,-0.00,0.36,-1.35,-1.34,-1.35
445.96,-1.44,-1.44,-0.09,-0.10,0.10,0.02,0.40,-1.33,-1.34,-1.34
450.42,-1.46,-1.46,-0.13,-0.13,0.13,0.05,0.42,-1.33,-1.33,-1.32
454.93,-1.48,-1.47,-0.16,-0.16,0.15,0.07,0.45,-1.32,-1.32,-1.31
459.48,-1.49,-1.49,-0.18,-0.18,0.18,0.09,0.48,-1.31,-1.31,-1.30
464.07,-1.51,-1.50,-0.20,-0.20,0.20,0.11,0.50,-1.31,-1.30,-1.31
468.71,-1.52,-1.52,-0.22,-0.22,0.22,0.14,0.53,-1.29,-1.29,-1.30
473.40,-1.53,-1.53,-0.24,-0.24,0.24,0.16,0.55,-1.28,-1.29,-1.29
478.13,-1.55,-1.54,-0.27,-0.26,0.26,0.18,0.57,-1.28,-1.28,-1.28
482.91,-1.56,-1.55,-0.29,-0.28,0.28,0.21,0.59,-1.27,-1.27,-1.27
487.74,-1.57,-1.57,-0.30,-0.31,0.31,0.23,0.60,-1.26,-1.26,-1.26
492.62,-1.58,-1.58,-0.32,-0.33,0.33,0.26,0.61,-1.25,-1.25,-1.25
497.55,-1.60,-1.59,-0.35,-0.35,0.35,0.28,0.62,-1.24,-1.24,-1.24
502.52,-1.61,-1.60,-0.37,-0.37,0.38,0.30,0.63,-1.23,-1.23,-1.23
507.55,-1.62,-1.62,-0.40,-0.40,0.40,0.33,0.64,-1.22,-1.22,-1.21
512.62,-1.63,-1.63,-0.42,-0.42,0.42,0.35,0.65,-1.21,-1.21,-1.21
517.75,-1.65,-1.64,-0.45,-0.44,0.44,0.38,0.65,-1.21,-1.20,-1.20
