frequency,raw,error,smoothed,error_smoothed,equalization,parametric_eq,fixed_band_eq,equalized_raw,equalized_smoothed,target
20.00,0.49,-6.29,0.44,-6.34,6.00,5.96,1.88,6.49,6.44,6.78
20.20,0.52,-6.27,0.52,-6.27,6.00,5.95,1.94,6.52,6.52,6.79
20.40,0.56,-6.24,0.59,-6.21,6.00,5.93,2.00,6.56,6.59,6.80
20.61,0.63,-6.18,0.66,-6.15,5.99,5.91,2.06,6.63,6.65,6.81
20.81,0.71,-6.09,0.73,-6.09,5.98,5.89,2.12,6.69,6.70,6.81
21.02,0.77,-6.04,0.79,-6.03,5.95,5.87,2.18,6.73,6.75,6.82
21.23,0.84,-5.98,0.86,-5.97,5.92,5.84,2.25,6.76,6.78,6.83
21.44,0.92,-5.92,0.93,-5.91,5.88,5.81,2.32,6.80,6.81,6.85
21.66,0.99,-5.85,1.00,-5.85,5.83,5.78,2.39,6.83,6.83,6.85
21.87,1.07,-5.78,1.06,-5.79,5.78,5.75,2.46,6.86,6.85,6.86
22.09,1.13,-5.72,1.13,-5.73,5.73,5.72,2.53,6.86,6.86,6.86
22.31,1.20,-5.66,1.19,-5.67,5.67,5.69,2.61,6.88,6.86,6.87
22.54,1.26,-5.60,1.26,-5.61,5.61,5.65,2.69,6.87,6.87,6.87
22.76,1.31,-5.56,1.32,-5.55,5.55,5.61,2.77,6.86,6.87,6.87
22.99,1.38,-5.49,1.39,-5.49,5.49,5.57,2.85,6.87,6.88,6.87
23.22,1.44,-5.43,1.45,-5.43,5.43,5.53,2.93,6.88,6.88,6.87
23.45,1.50,-5.38,1.51,-5.37,5.37,5.49,3.02,6.88,6.88,6.88
23.69,1.56,-5.32,1.57,-5.32,5.32,5.44,3.10,6.88,6.89,6.88
23.92,1.63,-5.25,1.62,-5.27,5.27,5.40,3.19,6.90,6.89,6.88
24.16,1.69,-5.20,1.68,-5.21,5.21,5.35,3.28,6.91,6.89,6.89
24.40,1.73,-5.17,1.73,-5.16,5.16,5.30,3.37,6.90,6.89,6.90
24.65,1.78,-5.12,1.78,-5.11,5.11,5.25,3.46,6.89,6.90,6.90
24.89,1.83,-5.06,1.84,-5.06,5.06,5.19,3.56,6.90,6.90,6.90
25.14,1.89,-5.00,1.89,-5.01,5.01,5.14,3.65,6.91,6.90,6.90
25.39,1.94,-4.95,1.94,-4.96,4.96,5.09,3.74,6.91,6.90,6.90
25.65,1.99,-4.90,1.99,-4.91,4.91,5.03,3.84,6.91,6.90,6.90
25.91,2.03,-4.86,2.04,-4.86,4.86,4.97,3.93,6.89,6.90,6.90
26.16,2.09,-4.81,2.09,-4.81,4.81,4.91,4.02,6.90,6.90,6.91
26.43,2.13,-4.77,2.15,-4.75,4.75,4.85,4.12,6.89,6.90,6.90
26.69,2.20,-4.70,2.20,-4.70,4.70,4.79,4.20,6.90,6.90,6.90
26.96,2.24,-4.66,2.26,-4.64,4.64,4.73,4.29,6.88,6.90,6.90
27.23,2.30,-4.60,2.32,-4.58,4.58,4.67,4.38,6.88,6.90,6.90
27.50,2.37,-4.53,2.39,-4.52,4.52,4.61,4.46,6.89,6.91,6.90
27.77,2.45,-4.45,2.45,-4.46,4.46,4.54,4.54,6.91,6.91,6.91
28.05,2.53,-4.37,2.51,-4.39,4.39,4.48,4.61,6.93,6.91,6.91
28.33,2.58,-4.32,2.58,-4.33,4.33,4.41,4.68,6.91,6.91,6.91
28.62,2.65,-4.25,2.65,-4.26,4.26,4.34,4.74,6.91,6.91,6.90
28.90,2.72,-4.19,2.72,-4.19,4.19,4.27,4.80,6.91,6.91,6.91
29.19,2.79,-4.12,2.79,-4.12,4.12,4.21,4.84,6.92,6.91,6.91
29.48,2.85,-4.06,2.86,-4.05,4.05,4.14,4.89,6.91,6.91,6.91
29.78,2.92,-3.99,2.92,-3.98,3.98,4.07,4.92,6.91,6.91,6.91
30.08,2.99,-3.92,2.99,-3.92,3.92,4.00,4.94,6.91,6.91,6.92
30.38,3.06,-3.84,3.06,-3.85,3.85,3.93,4.96,6.91,6.91,6.91
30.68,3.13,-3.77,3.13,-3.78,3.78,3.85,4.97,6.91,6.91,6.90
30.99,3.19,-3.71,3.19,-3.71,3.71,3.78,4.96,6.90,6.90,6.90
31.30,3.26,-3.64,3.26,-3.64,3.64,3.71,4.95,6.91,6.90,6.90
31.61,3.32,-3.57,3.33,-3.57,3.57,3.64,4.93,6.90,6.90,6.90
31.93,3.39,-3.49,3.39,-3.50,3.50,3.56,4.90,6.89,6.89,6.89
32.24,3.45,-3.44,3.46,-3.43,3.43,3.49,4.86,6.88,6.89,6.89
32.57,3.51,-3.37,3.53,-3.36,3.36,3.42,4.81,6.87,6.89,6.88
32.89,3.58,-3.30,3.60,-3.28,3.28,3.34,4.75,6.87,6.88,6.88
33.22,3.66,-3.21,3.67,-3.21,3.21,3.27,4.68,6.88,6.88,6.88
33.55,3.72,-3.15,3.73,-3.14,3.14,3.19,4.61,6.86,6.87,6.88
33.89,3.79,-3.08,3.80,-3.07,3.07,3.12,4.53,6.86,6.87,6.87
34.23,3.87,-2.99,3.86,-3.00,3.00,3.04,4.44,6.87,6.86,6.86
34.57,3.93,-2.92,3.93,-2.93,2.93,2.97,4.34,6.86,6.86,6.86
34.92,4.00,-2.84,3.99,-2.86,2.86,2.89,4.24,6.86,6.85,6.84
35.27,4.06,-2.79,4.05,-2.79,2.79,2.82,4.14,6.86,6.84,6.85
35.62,4.12,-2.70,4.10,-2.73,2.73,2.74,4.02,6.85,6.83,6.83
35.97,4.17,-2.65,4.16,-2.66,2.66,2.66,3.91,6.84,6.82,6.82
36.33,4.22,-2.59,4.21,-2.60,2.60,2.59,3.79,6.82,6.81,6.81
36.70,4.25,-2.54,4.26,-2.54,2.54,2.51,3.67,6.79,6.80,6.80
37.06,4.31,-2.47,4.31,-2.47,2.47,2.43,3.55,6.78,6.79,6.78
37.43,4.34,-2.43,4.37,-2.40,2.40,2.36,3.43,6.75,6.77,6.77
37.81,4.40,-2.35,4.42,-2.34,2.34,2.28,3.30,6.74,6.76,6.76
38.19,4.46,-2.28,4.48,-2.27,2.27,2.20,3.17,6.73,6.74,6.74
38.57,4.52,-2.20,4.54,-2.19,2.19,2.13,3.05,6.72,6.73,6.73
38.95,4.58,-2.13,4.60,-2.12,2.12,2.05,2.92,6.70,6.71,6.71
39.34,4.64,-2.04,4.66,-2.04,2.04,1.98,2.79,6.68,6.69,6.69
39.74,4.71,-1.96,4.72,-1.96,1.96,1.90,2.66,6.67,6.68,6.67
40.14,4.77,-1.89,4.79,-1.87,1.87,1.82,2.53,6.65,6.66,6.66
40.54,4.85,-1.79,4.85,-1.79,1.79,1.75,2.41,6.64,6.64,6.64
40.94,4.92,-1.69,4.92,-1.70,1.70,1.67,2.28,6.63,6.62,6.62
41.35,5.00,-1.60,4.98,-1.62,1.62,1.59,2.15,6.62,6.60,6.60
41.76,5.04,-1.53,5.04,-1.54,1.54,1.52,2.03,6.58,6.58,6.58
42.18,5.13,-1.43,5.10,-1.46,1.46,1.44,1.90,6.59,6.56,6.56
42.60,5.16,-1.37,5.15,-1.38,1.38,1.36,1.78,6.54,6.53,6.53
43.03,5.22,-1.28,5.21,-1.30,1.30,1.29,1.66,6.52,6.51,6.51
43.46,5.25,-1.23,5.26,-1.23,1.23,1.21,1.53,6.48,6.48,6.48
43.90,5.30,-1.15,5.30,-1.15,1.15,1.14,1.41,6.46,6.46,6.45
44.33,5.34,-1.08,5.35,-1.08,1.08,1.06,1.29,6.43,6.43,6.43
44.78,5.39,-1.01,5.39,-1.01,1.01,0.99,1.17,6.41,6.40,6.40
45.23,5.42,-0.96,5.43,-0.94,0.94,0.91,1.06,6.37,6.37,6.38
45.68,5.45,-0.89,5.47,-0.87,0.87,0.84,0.94,6.33,6.34,6.34
46.13,5.51,-0.79,5.51,-0.80,0.80,0.76,0.82,6.32,6.31,6.30
46.60,5.54,-0.73,5.54,-0.73,0.73,0.69,0.71,6.27,6.28,6.28
47.06,5.58,-0.66,5.58,-0.66,0.66,0.61,0.60,6.24,6.24,6.25
47.53,5.62,-0.59,5.63,-0.58,0.58,0.54,0.48,6.20,6.21,6.22
48.01,5.65,-0.51,5.67,-0.50,0.50,0.46,0.37,6.16,6.17,6.17
48.49,5.71,-0.42,5.71,-0.42,0.42,0.39,0.26,6.14,6.14,6.14
48.97,5.74,-0.35,5.76,-0.34,0.34,0.31,0.15,6.09,6.10,6.10
49.46,5.79,-0.27,5.80,-0.26,0.26,0.24,0.04,6.05,6.06,6.06
49.96,5.85,-0.16,5.85,-0.18,0.18,0.16,-0.06,6.03,6.03,6.01
50.46,5.88,-0.10,5.90,-0.09,0.09,0.09,-0.17,5.97,5.99,5.98
50.96,5.94,-0.01,5.95,-0.00,0.00,0.02,-0.28,5.95,5.95,5.95
51.47,6.00,0.09,6.00,0.09,-0.09,-0.06,-0.38,5.92,5.91,5.92
51.99,6.04,0.17,6.05,0.17,-0.17,-0.13,-0.48,5.87,5.88,5.87
52.51,6.10,0.26,6.10,0.26,-0.26,-0.20,-0.58,5.84,5.84,5.84
53.03,6.14,0.33,6.15,0.35,-0.35,-0.27,-0.68,5.80,5.80,5.82
53.56,6.20,0.43,6.19,0.43,-0.43,-0.35,-0.78,5.77,5.76,5.77
54.10,6.24,0.52,6.24,0.51,-0.51,-0.42,-0.88,5.74,5.73,5.73
54.64,6.29,0.60,6.28,0.58,-0.58,-0.49,-0.97,5.71,5.69,5.69
55.18,6.32,0.68,6.31,0.65,-0.65,-0.56,-1.07,5.67,5.66,5.65
55.74,6.35,0.74,6.35,0.72,-0.72,-0.64,-1.16,5.63,5.62,5.61
56.29,6.39,0.81,6.38,0.79,-0.79,-0.71,-1.24,5.61,5.59,5.58
56.86,6.42,0.87,6.41,0.85,-0.85,-0.78,-1.33,5.57,5.56,5.55
57.42,6.43,0.93,6.44,0.92,-0.92,-0.85,-1.41,5.52,5.52,5.51
58.00,6.47,1.00,6.46,0.98,-0.98,-0.92,-1.49,5.49,5.48,5.48
58.58,6.47,1.02,6.49,1.05,-1.05,-0.99,-1.57,5.43,5.44,5.46
59.16,6.51,1.09,6.52,1.11,-1.11,-1.06,-1.65,5.40,5.41,5.43
59.76,6.53,1.14,6.55,1.18,-1.18,-1.13,-1.72,5.35,5.37,5.40
60.35,6.56,1.22,6.58,1.25,-1.25,-1.20,-1.79,5.31,5.33,5.34
60.96,6.59,1.29,6.62,1.33,-1.33,-1.27,-1.85,5.27,5.29,5.30
61.57,6.64,1.39,6.65,1.40,-1.40,-1.34,-1.92,5.24,5.25,5.25
62.18,6.67,1.48,6.69,1.48,-1.48,-1.41,-1.98,5.19,5.21,5.20
62.80,6.72,1.57,6.73,1.57,-1.57,-1.48,-2.03,5.16,5.17,5.15
63.43,6.77,1.67,6.78,1.65,-1.65,-1.55,-2.08,5.12,5.12,5.11
64.07,6.82,1.75,6.82,1.74,-1.74,-1.62,-2.13,5.09,5.08,5.07
64.71,6.87,1.84,6.87,1.83,-1.83,-1.69,-2.18,5.05,5.04,5.03
65.35,6.92,1.93,6.91,1.92,-1.92,-1.76,-2.23,5.01,5.00,5.00
66.01,6.96,2.01,6.96,2.00,-2.00,-1.82,-2.27,4.96,4.96,4.96
66.67,7.01,2.08,7.00,2.09,-2.09,-1.89,-2.31,4.93,4.92,4.93
67.33,7.04,2.16,7.04,2.17,-2.17,-1.96,-2.35,4.88,4.88,4.88
68.01,7.07,2.23,7.08,2.25,-2.25,-2.03,-2.38,4.83,4.84,4.84
68.69,7.12,2.33,7.12,2.32,-2.32,-2.09,-2.41,4.80,4.80,4.80
69.37,7.16,2.40,7.15,2.40,-2.40,-2.16,-2.45,4.77,4.76,4.77
70.07,7.19,2.47,7.18,2.47,-2.47,-2.23,-2.48,4.72,4.71,4.72
70.77,7.21,2.54,7.21,2.54,-2.54,-2.29,-2.51,4.67,4.67,4.68
71.48,7.25,2.62,7.24,2.61,-2.61,-2.36,-2.54,4.65,4.63,4.63
72.19,7.26,2.68,7.26,2.67,-2.67,-2.42,-2.57,4.59,4.59,4.59
72.91,7.27,2.73,7.28,2.74,-2.74,-2.49,-2.60,4.54,4.55,4.54
73.64,7.31,2.82,7.30,2.80,-2.80,-2.55,-2.62,4.51,4.50,4.49
74.38,7.31,2.86,7.33,2.86,-2.86,-2.62,-2.65,4.45,4.46,4.46
75.12,7.34,2.93,7.35,2.92,-2.92,-2.68,-2.68,4.42,4.43,4.42
75.87,7.35,2.97,7.37,2.98,-2.98,-2.75,-2.71,4.38,4.39,4.39
76.63,7.35,3.01,7.39,3.03,-3.03,-2.81,-2.75,4.32,4.35,4.35
77.40,7.40,3.09,7.40,3.09,-3.09,-2.88,-2.78,4.32,4.31,4.32
78.17,7.40,3.13,7.41,3.13,-3.13,-2.94,-2.81,4.27,4.28,4.27
78.95,7.44,3.19,7.43,3.18,-3.18,-3.00,-2.85,4.26,4.25,4.25
79.74,7.45,3.24,7.44,3.23,-3.23,-3.06,-2.89,4.23,4.21,4.22
80.54,7.48,3.30,7.45,3.27,-3.27,-3.13,-2.92,4.21,4.18,4.18
81.35,7.49,3.35,7.46,3.32,-3.32,-3.19,-2.97,4.18,4.14,4.14
82.16,7.49,3.38,7.48,3.36,-3.36,-3.25,-3.01,4.13,4.11,4.12
82.98,7.49,3.41,7.49,3.41,-3.41,-3.31,-3.05,4.08,4.08,4.08
83.81,7.49,3.45,7.51,3.47,-3.47,-3.37,-3.10,4.03,4.04,4.04
84.65,7.49,3.49,7.53,3.52,-3.52,-3.43,-3.15,3.98,4.01,4.00
85.50,7.49,3.53,7.54,3.57,-3.57,-3.49,-3.20,3.92,3.97,3.96
86.35,7.54,3.61,7.56,3.63,-3.63,-3.55,-3.26,3.92,3.94,3.93
87.22,7.56,3.66,7.59,3.69,-3.69,-3.61,-3.32,3.88,3.90,3.90
88.09,7.60,3.74,7.61,3.75,-3.75,-3.67,-3.38,3.86,3.86,3.86
88.97,7.63,3.80,7.64,3.81,-3.81,-3.73,-3.44,3.82,3.83,3.83
89.86,7.68,3.90,7.67,3.88,-3.88,-3.79,-3.50,3.81,3.79,3.79
90.76,7.72,3.97,7.70,3.94,-3.94,-3.85,-3.57,3.78,3.75,3.75
91.66,7.73,4.02,7.73,4.02,-4.02,-3.91,-3.64,3.72,3.71,3.71
92.58,7.77,4.10,7.76,4.09,-4.09,-3.96,-3.72,3.69,3.67,3.68
93.51,7.77,4.13,7.79,4.15,-4.15,-4.02,-3.79,3.62,3.63,3.64
94.44,7.82,4.22,7.82,4.22,-4.22,-4.08,-3.87,3.60,3.59,3.61
95.39,7.83,4.27,7.84,4.28,-4.28,-4.13,-3.95,3.55,3.55,3.56
96.34,7.87,4.36,7.86,4.34,-4.34,-4.19,-4.03,3.53,3.51,3.51
97.30,7.87,4.40,7.87,4.40,-4.40,-4.24,-4.12,3.48,3.47,3.48
98.28,7.87,4.44,7.89,4.45,-4.45,-4.30,-4.21,3.42,3.44,3.43
99.26,7.91,4.53,7.90,4.50,-4.50,-4.35,-4.30,3.41,3.40,3.38
100.25,7.91,4.57,7.91,4.55,-4.55,-4.40,-4.39,3.37,3.36,3.35
101.25,7.91,4.60,7.91,4.59,-4.59,-4.46,-4.48,3.32,3.32,3.32
102.27,7.91,4.63,7.91,4.63,-4.63,-4.51,-4.57,3.28,3.28,3.28
103.29,7.91,4.67,7.91,4.67,-4.67,-4.56,-4.67,3.25,3.25,3.24
104.32,7.91,4.70,7.91,4.70,-4.70,-4.61,-4.76,3.21,3.21,3.21
105.37,7.91,4.74,7.91,4.73,-4.73,-4.66,-4.86,3.18,3.18,3.18
106.42,7.91,4.77,7.91,4.77,-4.77,-4.71,-4.95,3.15,3.14,3.15
107.48,7.91,4.81,7.91,4.80,-4.80,-4.76,-5.05,3.11,3.11,3.10
108.56,7.91,4.84,7.91,4.84,-4.84,-4.81,-5.14,3.07,3.07,3.07
109.64,7.89,4.86,7.91,4.88,-4.88,-4.86,-5.23,3.02,3.03,3.04
110.74,7.87,4.88,7.91,4.91,-4.91,-4.91,-5.32,2.96,3.00,3.00
111.85,7.88,4.92,7.91,4.95,-4.95,-4.96,-5.41,2.93,2.96,2.96
112.97,7.89,4.97,7.91,4.99,-4.99,-5.01,-5.49,2.90,2.92,2.92
114.10,7.91,5.03,7.91,5.03,-5.03,-5.05,-5.57,2.88,2.88,2.89
115.24,7.91,5.07,7.91,5.07,-5.07,-5.10,-5.65,2.84,2.84,2.84
116.39,7.91,5.12,7.92,5.11,-5.11,-5.14,-5.72,2.80,2.80,2.80
117.55,7.96,5.20,7.92,5.15,-5.15,-5.19,-5.79,2.81,2.77,2.76
118.73,7.96,5.25,7.92,5.19,-5.19,-5.23,-5.85,2.77,2.73,2.71
119.92,7.91,5.23,7.92,5.23,-5.23,-5.28,-5.91,2.68,2.69,2.68
121.12,7.91,5.26,7.92,5.27,-5.27,-5.32,-5.95,2.64,2.65,2.66
122.33,7.91,5.30,7.93,5.31,-5.31,-5.36,-6.00,2.60,2.61,2.61
123.55,7.91,5.33,7.93,5.35,-5.35,-5.40,-6.03,2.56,2.57,2.58
124.79,7.91,5.37,7.92,5.39,-5.39,-5.44,-6.06,2.53,2.54,2.55
126.03,7.91,5.41,7.92,5.42,-5.42,-5.48,-6.08,2.49,2.50,2.51
127.29,7.91,5.45,7.91,5.45,-5.45,-5.52,-6.10,2.46,2.46,2.46
128.57,7.91,5.49,7.91,5.48,-5.48,-5.56,-6.11,2.43,2.42,2.42
129.85,7.91,5.53,7.90,5.52,-5.52,-5.60,-6.11,2.40,2.39,2.38
131.15,7.91,5.57,7.90,5.55,-5.55,-5.64,-6.11,2.36,2.35,2.35
132.46,7.89,5.59,7.90,5.59,-5.59,-5.67,-6.09,2.31,2.31,2.31
133.79,7.89,5.62,7.90,5.62,-5.62,-5.71,-6.08,2.27,2.27,2.27
135.12,7.87,5.64,7.89,5.65,-5.65,-5.74,-6.06,2.22,2.24,2.23
136.48,7.87,5.67,7.88,5.68,-5.68,-5.78,-6.03,2.19,2.20,2.21
137.84,7.87,5.70,7.88,5.71,-5.71,-5.81,-6.01,2.16,2.17,2.17
139.22,7.87,5.75,7.88,5.74,-5.74,-5.84,-5.97,2.13,2.14,2.13
140.61,7.87,5.77,7.87,5.76,-5.76,-5.87,-5.94,2.11,2.10,2.10
142.02,7.87,5.80,7.86,5.79,-5.79,-5.90,-5.90,2.09,2.07,2.07
143.44,7.87,5.83,7.86,5.81,-5.81,-5.93,-5.86,2.06,2.04,2.04
144.87,7.85,5.84,7.85,5.83,-5.83,-5.96,-5.82,2.02,2.02,2.02
146.32,7.82,5.84,7.84,5.85,-5.85,-5.99,-5.78,1.97,1.99,1.99
147.78,7.82,5.86,7.83,5.88,-5.88,-6.02,-5.74,1.95,1.96,1.96
149.26,7.82,5.89,7.83,5.90,-5.90,-6.05,-5.70,1.93,1.93,1.93
150.75,7.82,5.93,7.82,5.92,-5.92,-6.07,-5.66,1.91,1.90,1.89
152.26,7.82,5.95,7.80,5.93,-5.93,-6.10,-5.63,1.89,1.87,1.88
153.78,7.77,5.93,7.79,5.95,-5.95,-6.12,-5.59,1.82,1.84,1.84
155.32,7.77,5.96,7.78,5.97,-5.97,-6.14,-5.56,1.80,1.81,1.82
156.88,7.77,5.99,7.77,5.99,-5.99,-6.16,-5.53,1.78,1.78,1.78
158.44,7.77,6.03,7.75,6.01,-6.01,-6.19,-5.50,1.77,1.75,1.75
160.03,7.73,6.02,7.74,6.03,-6.03,-6.21,-5.47,1.70,1.71,1.72
161.63,7.73,6.05,7.73,6.05,-6.05,-6.22,-5.45,1.68,1.68,1.68
163.24,7.73,6.09,7.72,6.07,-6.07,-6.24,-5.43,1.66,1.65,1.64
164.88,7.68,6.07,7.71,6.10,-6.10,-6.26,-5.41,1.59,1.61,1.61
166.53,7.68,6.11,7.70,6.12,-6.12,-6.28,-5.40,1.57,1.58,1.57
168.19,7.68,6.14,7.68,6.14,-6.14,-6.29,-5.39,1.54,1.54,1.55
169.87,7.68,6.18,7.67,6.16,-6.16,-6.31,-5.39,1.52,1.51,1.51
171.57,7.63,6.16,7.66,6.19,-6.19,-6.32,-5.39,1.45,1.47,1.47
173.29,7.63,6.20,7.64,6.21,-6.21,-6.33,-5.39,1.43,1.44,1.44
175.02,7.63,6.23,7.62,6.22,-6.22,-6.34,-5.40,1.41,1.40,1.40
176.77,7.63,6.27,7.61,6.24,-6.24,-6.35,-5.41,1.39,1.37,1.37
178.54,7.59,6.26,7.59,6.26,-6.26,-6.36,-5.43,1.34,1.33,1.33
180.32,7.57,6.28,7.56,6.27,-6.27,-6.37,-5.45,1.30,1.29,1.29
182.13,7.54,6.29,7.54,6.29,-6.29,-6.38,-5.47,1.26,1.26,1.26
183.95,7.53,6.31,7.52,6.30,-6.30,-6.38,-5.50,1.23,1.22,1.22
185.79,7.49,6.31,7.50,6.31,-6.31,-6.39,-5.53,1.18,1.18,1.18
187.65,7.46,6.31,7.47,6.32,-6.32,-6.39,-5.57,1.14,1.15,1.15
189.52,7.45,6.34,7.44,6.33,-6.33,-6.39,-5.61,1.12,1.11,1.11
191.42,7.40,6.32,7.42,6.34,-6.34,-6.40,-5.65,1.06,1.08,1.08
193.33,7.37,6.33,7.39,6.35,-6.35,-6.40,-5.70,1.02,1.04,1.05
195.27,7.35,6.35,7.37,6.36,-6.36,-6.40,-5.75,1.00,1.01,1.01
197.22,7.33,6.36,7.34,6.37,-6.37,-6.40,-5.80,0.97,0.98,0.97
199.19,7.31,6.37,7.32,6.38,-6.38,-6.39,-5.86,0.94,0.95,0.94
201.18,7.31,6.41,7.30,6.38,-6.38,-6.39,-5.92,0.93,0.92,0.91
203.19,7.26,6.38,7.27,6.39,-6.39,-6.38,-5.98,0.87,0.88,0.88
205.23,7.26,6.41,7.25,6.39,-6.39,-6.38,-6.05,0.87,0.85,0.86
207.28,7.22,6.39,7.23,6.40,-6.40,-6.37,-6.11,0.83,0.83,0.83
209.35,7.21,6.42,7.20,6.40,-6.40,-6.36,-6.18,0.81,0.80,0.80
211.44,7.17,6.40,7.17,6.40,-6.40,-6.36,-6.24,0.78,0.77,0.77
213.56,7.15,6.40,7.14,6.40,-6.40,-6.35,-6.31,0.76,0.75,0.75
215.69,7.12,6.40,7.11,6.39,-6.39,-6.33,-6.38,0.73,0.72,0.73
217.85,7.07,6.37,7.08,6.38,-6.38,-6.32,-6.44,0.69,0.70,0.71
220.03,7.04,6.37,7.05,6.37,-6.37,-6.31,-6.51,0.67,0.68,0.67
222.23,7.01,6.36,7.01,6.36,-6.36,-6.29,-6.57,0.66,0.66,0.65
224.45,6.97,6.34,6.98,6.34,-6.34,-6.28,-6.63,0.63,0.63,0.63
226.70,6.93,6.32,6.94,6.33,-6.33,-6.26,-6.68,0.61,0.61,0.61
228.96,6.89,6.29,6.90,6.31,-6.31,-6.24,-6.73,0.59,0.60,0.60
231.25,6.86,6.28,6.87,6.29,-6.29,-6.22,-6.78,0.57,0.58,0.58
233.57,6.83,6.27,6.83,6.27,-6.27,-6.20,-6.82,0.57,0.56,0.56
235.90,6.79,6.25,6.79,6.25,-6.25,-6.18,-6.85,0.55,0.54,0.54
238.26,6.75,6.23,6.75,6.22,-6.22,-6.16,-6.88,0.53,0.53,0.52
240.64,6.71,6.19,6.71,6.20,-6.20,-6.14,-6.90,0.52,0.51,0.52
243.05,6.68,6.18,6.68,6.17,-6.17,-6.11,-6.91,0.51,0.50,0.51
245.48,6.63,6.15,6.64,6.15,-6.15,-6.09,-6.91,0.49,0.49,0.49
247.93,6.59,6.12,6.60,6.12,-6.12,-6.06,-6.91,0.48,0.48,0.47
250.41,6.56,6.09,6.56,6.09,-6.09,-6.04,-6.89,0.48,0.47,0.47
252.92,6.51,6.05,6.52,6.06,-6.06,-6.01,-6.87,0.45,0.46,0.46
255.45,6.48,6.04,6.48,6.03,-6.03,-5.98,-6.83,0.45,0.45,0.45
258.00,6.42,5.98,6.44,6.00,-6.00,-5.95,-6.79,0.42,0.44,0.44
260.58,6.39,5.96,6.40,5.97,-5.97,-5.92,-6.74,0.42,0.43,0.44
263.19,6.36,5.93,6.37,5.94,-5.94,-5.88,-6.69,0.43,0.43,0.43
265.82,6.33,5.91,6.33,5.91,-5.91,-5.85,-6.62,0.43,0.42,0.42
268.48,6.28,5.87,6.29,5.87,-5.87,-5.82,-6.55,0.41,0.41,0.42
271.16,6.24,5.83,6.25,5.84,-5.84,-5.78,-6.47,0.41,0.41,0.41
273.87,6.21,5.81,6.21,5.80,-5.80,-5.74,-6.38,0.41,0.41,0.41
276.61,6.16,5.76,6.17,5.76,-5.76,-5.71,-6.30,0.40,0.40,0.40
279.38,6.13,5.75,6.12,5.72,-5.72,-5.67,-6.20,0.41,0.40,0.39
282.17,6.09,5.70,6.08,5.68,-5.68,-5.63,-6.10,0.41,0.40,0.39
284.99,6.04,5.65,6.03,5.64,-5.64,-5.59,-6.00,0.41,0.40,0.40
287.84,6.00,5.60,5.99,5.60,-5.60,-5.55,-5.90,0.41,0.40,0.40
290.72,5.93,5.54,5.94,5.55,-5.55,-5.50,-5.79,0.38,0.40,0.39
293.63,5.88,5.49,5.90,5.50,-5.50,-5.46,-5.68,0.38,0.39,0.39
296.57,5.85,5.45,5.85,5.46,-5.46,-5.42,-5.58,0.40,0.40,0.40
299.53,5.79,5.40,5.80,5.41,-5.41,-5.37,-5.47,0.39,0.40,0.40
302.53,5.74,5.34,5.76,5.36,-5.36,-5.33,-5.36,0.38,0.40,0.40
305.55,5.71,5.31,5.71,5.31,-5.31,-5.28,-5.25,0.40,0.40,0.40
308.61,5.65,5.25,5.66,5.26,-5.26,-5.23,-5.15,0.39,0.40,0.41
311.69,5.62,5.22,5.62,5.21,-5.21,-5.18,-5.04,0.41,0.41,0.40
314.81,5.57,5.16,5.57,5.16,-5.16,-5.14,-4.94,0.41,0.41,0.41
317.96,5.53,5.13,5.53,5.11,-5.11,-5.09,-4.83,0.42,0.41,0.41
321.14,5.48,5.07,5.48,5.07,-5.07,-5.04,-4.73,0.42,0.41,0.41
324.35,5.43,5.02,5.43,5.02,-5.02,-4.98,-4.64,0.42,0.42,0.41
327.59,5.37,4.94,5.39,4.96,-4.96,-4.93,-4.54,0.41,0.42,0.43
330.87,5.34,4.92,5.34,4.91,-4.91,-4.88,-4.45,0.43,0.43,0.43
334.18,5.29,4.87,5.29,4.86,-4.86,-4.83,-4.36,0.44,0.43,0.42
337.52,5.23,4.80,5.24,4.80,-4.80,-4.77,-4.27,0.43,0.44,0.43
340.90,5.18,4.74,5.18,4.74,-4.74,-4.72,-4.19,0.44,0.44,0.44
344.30,5.14,4.70,5.13,4.69,-4.69,-4.66,-4.11,0.46,0.45,0.45
347.75,5.09,4.64,5.08,4.63,-4.63,-4.60,-4.03,0.47,0.45,0.46
351.23,5.03,4.58,5.03,4.57,-4.57,-4.55,-3.96,0.46,0.46,0.45
354.74,4.97,4.50,4.98,4.51,-4.51,-4.49,-3.88,0.46,0.47,0.47
358.28,4.91,4.44,4.93,4.46,-4.46,-4.43,-3.81,0.46,0.47,0.47
361.87,4.86,4.39,4.88,4.40,-4.40,-4.37,-3.75,0.47,0.48,0.48
365.49,4.81,4.33,4.82,4.34,-4.34,-4.31,-3.69,0.47,0.48,0.49
369.14,4.76,4.27,4.77,4.28,-4.28,-4.25,-3.63,0.48,0.49,0.50
372.83,4.71,4.21,4.72,4.22,-4.22,-4.19,-3.57,0.49,0.50,0.50
376.56,4.67,4.17,4.67,4.16,-4.16,-4.13,-3.51,0.51,0.51,0.50
380.33,4.62,4.11,4.62,4.10,-4.10,-4.07,-3.46,0.52,0.51,0.51
384.13,4.57,4.05,4.56,4.04,-4.04,-4.01,-3.41,0.53,0.52,0.52
387.97,4.53,4.01,4.51,3.98,-3.98,-3.95,-3.36,0.55,0.53,0.53
391.85,4.46,3.93,4.46,3.92,-3.92,-3.88,-3.32,0.54,0.53,0.54
395.77,4.39,3.86,4.41,3.86,-3.86,-3.82,-3.28,0.53,0.54,0.54
399.73,4.34,3.80,4.35,3.80,-3.80,-3.76,-3.24,0.54,0.55,0.54
403.72,4.30,3.74,4.30,3.74,-3.74,-3.69,-3.20,0.56,0.56,0.56
407.76,4.24,3.68,4.24,3.68,-3.68,-3.63,-3.16,0.57,0.56,0.56
411.84,4.17,3.60,4.19,3.62,-3.62,-3.56,-3.13,0.56,0.57,0.57
415.96,4.11,3.53,4.13,3.55,-3.55,-3.50,-3.09,0.56,0.58,0.58
420.12,4.06,3.48,4.07,3.49,-3.49,-3.43,-3.06,0.57,0.59,0.58
424.32,4.02,3.44,4.02,3.43,-3.43,-3.37,-3.03,0.60,0.59,0.59
428.56,3.97,3.37,3.97,3.36,-3.36,-3.30,-3.00,0.61,0.60,0.61
432.85,3.92,3.31,3.91,3.30,-3.30,-3.23,-2.97,0.62,0.61,0.62
437.18,3.85,3.24,3.86,3.24,-3.24,-3.17,-2.94,0.62,0.62,0.62
441.55,3.78,3.16,3.80,3.17,-3.17,-3.10,-2.91,0.61,0.63,0.62
445.96,3.74,3.11,3.75,3.11,-3.11,-3.03,-2.88,0.63,0.64,0.63
450.42,3.69,3.05,3.69,3.04,-3.04,-2.96,-2.85,0.65,0.65,0.64
454.93,3.64,2.99,3.63,2.98,-2.98,-2.90,-2.82,0.67,0.66,0.65
459.48,3.58,2.92,3.58,2.91,-2.91,-2.83,-2.79,0.67,0.67,0.66
464.07,3.52,2.84,3.52,2.84,-2.84,-2.76,-2.76,0.68,0.68,0.68
468.71,3.46,2.77,3.46,2.77,-2.77,-2.69,-2.73,0.69,0.69,0.69
473.40,3.39,2.69,3.40,2.70,-2.70,-2.62,-2.69,0.69,0.70,0.70
478.13,3.33,2.62,3.34,2.63,-2.63,-2.55,-2.66,0.70,0.71,0.71
482.91,3.27,2.55,3.28,2.56,-2.56,-2.49,-2.62,0.71,0.72,0.72
487.74,3.22,2.50,3.22,2.49,-2.49,-2.42,-2.58,0.73,0.73,0.73
492.62,3.16,2.43,3.16,2.42,-2.42,-2.35,-2.54,0.74,0.74,0.74
497.55,3.08,2.34,3.10,2.35,-2.35,-2.28,-2.49,0.74,0.75,0.75
502.52,3.04,2.29,3.04,2.28,-2.28,-2.21,-2.45,0.77,0.76,0.76
507.55,2.99,2.22,2.98,2.21,-2.21,-2.14,-2.40,0.79,0.78,0.78
512.62,2.90,2.12,2.92,2.14,-2.14,-2.07,-2.35,0.77,0.79,0.79
517.75,2.85,2.05,2.86,2.07,-2.07,-2.01,-2.30,0.79,0.80,0.81
522.93,2.80,1.99,2.81,1.99,-1.99,-1.94,-2.24,0.81,0.81,0.82
528.16,2.76,1.94,2.75,1.92,-1.92,-1.87,-2.19,0.84,0.83,0.83
533.44,2.69,1.86,2.69,1.85,-1.85,-1.80,-2.13,0.84,0.84,0.83
538.77,2.63,1.79,2.63,1.78,-1.78,-1.73,-2.07,0.85,0.85,0.84
544.16,2.57,1.71,2.57,1.71,-1.71,-1.66,-2.00,0.87,0.86,0.86
549.60,2.52,1.65,2.51,1.63,-1.63,-1.59,-1.94,0.89,0.87,0.87
555.10,2.44,1.55,2.45,1.56,-1.56,-1.53,-1.87,0.88,0.89,0.89
