frequency,raw,error,smoothed,error_smoothed,equalization,parametric_eq,equalized_raw,equalized_smoothed,target
20,-15.57,-18.54,-15.79,-18.76,6.00,2.85,-9.57,-9.79,2.97
21,-15.24,-18.21,-15.16,-18.13,6.00,3.27,-9.24,-9.16,2.97
22,-14.71,-17.68,-14.55,-17.52,6.00,3.72,-8.71,-8.55,2.97
23,-14.03,-17.00,-13.97,-16.93,6.00,4.20,-8.03,-7.97,2.97
24,-13.51,-16.48,-13.40,-16.36,6.00,4.72,-7.51,-7.40,2.97
25,-12.89,-15.86,-12.85,-15.81,6.00,5.24,-6.89,-6.85,2.97
26,-12.28,-15.25,-12.32,-15.29,6.00,5.77,-6.28,-6.32,2.97
27,-11.71,-14.68,-11.81,-14.78,6.00,6.27,-5.71,-5.81,2.97
28,-11.28,-14.25,-11.32,-14.29,6.00,6.72,-5.28,-5.32,2.97
29,-10.89,-13.86,-10.86,-13.82,6.00,7.08,-4.89,-4.86,2.97
30,-10.38,-13.35,-10.41,-13.37,6.00,7.34,-4.38,-4.41,2.97
31,-9.97,-12.94,-9.98,-12.94,6.00,7.47,-3.97,-3.98,2.97
32,-9.49,-12.46,-9.56,-12.53,6.00,7.47,-3.49,-3.56,2.97
33,-9.12,-12.09,-9.17,-12.13,6.00,7.38,-3.12,-3.17,2.97
34,-8.77,-11.74,-8.78,-11.75,6.00,7.20,-2.77,-2.78,2.97
35,-8.44,-11.41,-8.41,-11.38,6.00,6.97,-2.44,-2.41,2.97
36,-8.12,-11.09,-8.05,-11.02,6.00,6.71,-2.12,-2.05,2.97
37,-7.81,-10.78,-7.70,-10.66,6.00,6.44,-1.81,-1.70,2.97
38,-7.35,-10.32,-7.35,-10.32,6.00,6.18,-1.35,-1.35,2.97
39,-7.05,-10.02,-7.02,-9.98,6.00,5.93,-1.05,-1.02,2.97
40,-6.72,-9.69,-6.68,-9.65,6.00,5.71,-0.72,-0.68,2.97
41,-6.33,-9.30,-6.36,-9.32,6.00,5.50,-0.33,-0.36,2.97
42,-6.05,-9.02,-6.04,-9.00,6.00,5.33,-0.05,-0.04,2.97
43,-5.74,-8.71,-5.73,-8.69,6.00,5.17,0.26,0.27,2.97
44,-5.37,-8.34,-5.42,-8.39,6.00,5.04,0.63,0.58,2.97
45,-5.11,-8.08,-5.13,-8.09,6.00,4.94,0.89,0.87,2.97
46,-4.87,-7.84,-4.84,-7.81,6.00,4.85,1.13,1.16,2.97
47,-4.54,-7.51,-4.56,-7.53,6.00,4.78,1.46,1.44,2.97
48,-4.23,-7.20,-4.30,-7.26,6.00,4.73,1.77,1.70,2.97
49,-3.99,-6.96,-4.04,-7.01,6.00,4.69,2.01,1.96,2.97
50,-3.89,-6.86,-3.79,-6.76,6.00,4.67,2.11,2.21,2.97
51,-3.57,-6.54,-3.56,-6.52,6.00,4.66,2.43,2.44,2.97
52,-3.39,-6.36,-3.33,-6.29,5.96,4.65,2.57,2.63,2.97
53,-3.10,-6.07,-3.11,-6.08,5.88,4.65,2.78,2.77,2.97
54,-2.89,-5.86,-2.90,-5.87,5.76,4.66,2.87,2.86,2.97
55,-2.69,-5.66,-2.71,-5.67,5.62,4.66,2.93,2.91,2.97
56,-2.48,-5.45,-2.52,-5.48,5.47,4.67,2.99,2.95,2.97
57,-2.28,-5.25,-2.34,-5.30,5.30,4.67,3.02,2.97,2.97
58,-2.23,-5.20,-2.16,-5.13,5.13,4.66,2.90,2.97,2.97
59,-1.95,-4.92,-2.00,-4.97,4.97,4.65,3.02,2.97,2.97
60,-1.87,-4.84,-1.85,-4.81,4.81,4.64,2.94,2.97,2.97
61,-1.68,-4.65,-1.70,-4.66,4.66,4.61,2.98,2.97,2.97
62,-1.62,-4.59,-1.56,-4.52,4.52,4.58,2.90,2.97,2.97
63,-1.33,-4.30,-1.42,-4.39,4.39,4.53,3.06,2.97,2.97
64,-1.30,-4.27,-1.29,-4.26,4.26,4.48,2.96,2.97,2.97
65,-1.27,-4.24,-1.17,-4.13,4.13,4.43,2.86,2.97,2.97
66,-0.97,-3.94,-1.04,-4.01,4.01,4.36,3.04,2.97,2.97
67,-0.97,-3.94,-0.93,-3.89,3.89,4.29,2.92,2.97,2.97
68,-0.90,-3.87,-0.81,-3.78,3.78,4.22,2.88,2.97,2.97
69,-0.65,-3.62,-0.70,-3.66,3.66,4.14,3.01,2.97,2.97
70,-0.61,-3.58,-0.59,-3.55,3.55,4.06,2.94,2.97,2.97
71,-0.45,-3.42,-0.48,-3.45,3.45,3.97,3.00,2.97,2.97
72,-0.32,-3.29,-0.38,-3.34,3.34,3.89,3.02,2.97,2.97
73,-0.32,-3.29,-0.28,-3.25,3.25,3.81,2.93,2.97,2.97
74,-0.29,-3.26,-0.19,-3.16,3.16,3.72,2.87,2.97,2.97
75,0.00,-2.97,-0.10,-3.07,3.07,3.64,3.07,2.97,2.97
76,0.00,-2.97,-0.02,-2.99,2.99,3.56,2.99,2.97,2.97
77,0.00,-2.97,0.05,-2.91,2.91,3.49,2.91,2.97,2.97
78,0.12,-2.85,0.12,-2.84,2.84,3.41,2.96,2.97,2.97
79,0.27,-2.70,0.19,-2.78,2.78,3.34,3.05,2.97,2.97
80,0.32,-2.65,0.25,-2.72,2.72,3.27,3.04,2.97,2.97
81,0.32,-2.65,0.31,-2.66,2.66,3.21,2.98,2.97,2.97
82,0.32,-2.65,0.36,-2.61,2.61,3.15,2.93,2.97,2.97
83,0.32,-2.65,0.41,-2.56,2.56,3.09,2.88,2.97,2.97
84,0.32,-2.65,0.45,-2.51,2.51,3.04,2.83,2.97,2.97
85,0.45,-2.52,0.49,-2.47,2.47,2.99,2.92,2.97,2.97
86,0.58,-2.39,0.53,-2.43,2.43,2.94,3.01,2.97,2.97
87,0.65,-2.32,0.56,-2.40,2.40,2.90,3.05,2.97,2.97
88,0.65,-2.32,0.59,-2.37,2.37,2.86,3.02,2.97,2.97
89,0.65,-2.32,0.62,-2.35,2.35,2.82,3.00,2.97,2.97
90,0.65,-2.32,0.63,-2.33,2.33,2.79,2.98,2.97,2.97
91,0.65,-2.32,0.65,-2.32,2.32,2.75,2.97,2.97,2.97
92,0.65,-2.32,0.66,-2.31,2.31,2.73,2.96,2.97,2.97
93,0.65,-2.32,0.66,-2.30,2.30,2.70,2.95,2.97,2.97
94,0.65,-2.32,0.66,-2.30,2.30,2.68,2.95,2.97,2.97
95,0.65,-2.32,0.66,-2.30,2.30,2.66,2.95,2.97,2.97
96,0.65,-2.32,0.66,-2.30,2.30,2.64,2.95,2.97,2.97
97,0.65,-2.32,0.66,-2.31,2.31,2.62,2.96,2.97,2.97
98,0.65,-2.32,0.66,-2.31,2.31,2.61,2.96,2.97,2.97
99,0.65,-2.32,0.65,-2.31,2.31,2.60,2.96,2.97,2.97
100,0.65,-2.32,0.65,-2.31,2.31,2.59,2.96,2.97,2.97
101,0.65,-2.32,0.65,-2.32,2.32,2.58,2.97,2.97,2.97
102,0.65,-2.32,0.65,-2.32,2.32,2.57,2.97,2.97,2.97
104,0.65,-2.32,0.65,-2.32,2.32,2.56,2.97,2.97,2.97
105,0.65,-2.32,0.65,-2.32,2.32,2.56,2.97,2.97,2.97
106,0.65,-2.32,0.65,-2.32,2.32,2.55,2.97,2.97,2.97
107,0.65,-2.32,0.65,-2.31,2.31,2.55,2.96,2.97,2.97
108,0.65,-2.32,0.65,-2.31,2.31,2.55,2.96,2.97,2.97
109,0.65,-2.32,0.66,-2.31,2.31,2.55,2.96,2.97,2.97
110,0.65,-2.32,0.66,-2.31,2.31,2.55,2.96,2.97,2.97
111,0.65,-2.32,0.66,-2.30,2.30,2.55,2.95,2.97,2.97
112,0.65,-2.32,0.66,-2.30,2.30,2.55,2.95,2.97,2.97
113,0.65,-2.32,0.66,-2.30,2.30,2.55,2.95,2.97,2.97
114,0.65,-2.32,0.66,-2.30,2.30,2.55,2.95,2.97,2.97
115,0.65,-2.32,0.66,-2.31,2.31,2.55,2.96,2.97,2.97
117,0.65,-2.32,0.65,-2.32,2.32,2.55,2.97,2.97,2.97
118,0.65,-2.32,0.64,-2.33,2.33,2.55,2.98,2.97,2.97
119,0.65,-2.32,0.62,-2.35,2.35,2.55,3.00,2.97,2.97
120,0.65,-2.32,0.60,-2.37,2.37,2.55,3.02,2.97,2.97
121,0.65,-2.32,0.57,-2.40,2.40,2.55,3.05,2.97,2.97
123,0.57,-2.40,0.54,-2.43,2.43,2.55,3.00,2.97,2.97
124,0.49,-2.48,0.51,-2.46,2.46,2.55,2.95,2.97,2.97
125,0.49,-2.48,0.47,-2.49,2.49,2.54,2.98,2.97,2.97
126,0.46,-2.51,0.44,-2.52,2.52,2.54,2.98,2.97,2.97
128,0.32,-2.65,0.41,-2.55,2.55,2.53,2.87,2.97,2.97
129,0.32,-2.65,0.39,-2.58,2.58,2.53,2.90,2.97,2.97
130,0.32,-2.65,0.36,-2.60,2.60,2.52,2.92,2.97,2.97
131,0.32,-2.65,0.35,-2.62,2.62,2.52,2.94,2.97,2.97
133,0.32,-2.65,0.34,-2.63,2.63,2.51,2.95,2.97,2.97
134,0.32,-2.65,0.33,-2.64,2.64,2.50,2.96,2.97,2.97
135,0.32,-2.65,0.32,-2.64,2.64,2.49,2.96,2.97,2.97
137,0.32,-2.65,0.32,-2.64,2.64,2.48,2.96,2.97,2.97
138,0.32,-2.65,0.32,-2.65,2.65,2.48,2.97,2.97,2.97
140,0.32,-2.65,0.31,-2.65,2.65,2.46,2.97,2.97,2.97
141,0.32,-2.65,0.30,-2.66,2.66,2.46,2.98,2.97,2.97
142,0.32,-2.65,0.29,-2.68,2.68,2.45,3.00,2.97,2.97
144,0.32,-2.65,0.27,-2.70,2.70,2.44,3.02,2.97,2.97
145,0.32,-2.65,0.25,-2.72,2.72,2.44,3.04,2.97,2.97
147,0.32,-2.65,0.22,-2.75,2.75,2.43,3.07,2.97,2.97
148,0.26,-2.71,0.19,-2.78,2.78,2.42,3.04,2.97,2.97
150,0.11,-2.86,0.15,-2.81,2.81,2.42,2.92,2.97,2.97
151,0.04,-2.93,0.12,-2.85,2.85,2.41,2.89,2.97,2.97
153,0.00,-2.97,0.09,-2.88,2.88,2.41,2.88,2.97,2.97
154,0.00,-2.97,0.06,-2.90,2.90,2.41,2.90,2.97,2.97
156,0.00,-2.97,0.04,-2.92,2.92,2.41,2.92,2.97,2.97
157,0.00,-2.97,0.03,-2.94,2.94,2.41,2.94,2.97,2.97
159,0.00,-2.97,0.01,-2.95,2.95,2.41,2.95,2.97,2.97
160,0.00,-2.97,0.01,-2.96,2.96,2.41,2.96,2.97,2.97
162,0.00,-2.97,0.00,-2.96,2.96,2.42,2.96,2.97,2.97
164,0.00,-2.97,-0.00,-2.97,2.97,2.43,2.97,2.97,2.97
165,0.00,-2.97,-0.01,-2.97,2.97,2.44,2.97,2.97,2.97
167,0.00,-2.97,-0.01,-2.98,2.98,2.45,2.98,2.97,2.97
169,0.00,-2.97,-0.02,-2.99,2.99,2.46,2.99,2.97,2.97
170,0.00,-2.97,-0.04,-3.01,3.01,2.47,3.01,2.97,2.97
172,0.00,-2.97,-0.06,-3.03,3.03,2.49,3.03,2.97,2.97
174,0.00,-2.97,-0.09,-3.05,3.05,2.51,3.05,2.97,2.97
175,-0.01,-2.98,-0.12,-3.08,3.08,2.52,3.07,2.97,2.97
177,-0.13,-3.10,-0.15,-3.12,3.12,2.55,2.99,2.97,2.97
179,-0.26,-3.23,-0.18,-3.15,3.15,2.58,2.89,2.97,2.97
181,-0.32,-3.29,-0.22,-3.18,3.18,2.60,2.86,2.97,2.97
183,-0.32,-3.29,-0.25,-3.21,3.21,2.63,2.89,2.97,2.97
184,-0.32,-3.29,-0.27,-3.24,3.24,2.65,2.92,2.97,2.97
186,-0.32,-3.29,-0.30,-3.26,3.26,2.68,2.94,2.97,2.97
188,-0.32,-3.29,-0.31,-3.28,3.28,2.72,2.96,2.97,2.97
190,-0.32,-3.29,-0.32,-3.29,3.29,2.76,2.97,2.97,2.97
192,-0.32,-3.29,-0.33,-3.30,3.30,2.79,2.98,2.97,2.97
194,-0.32,-3.29,-0.33,-3.30,3.30,2.83,2.98,2.97,2.97
196,-0.32,-3.29,-0.34,-3.30,3.30,2.87,2.98,2.97,2.97
198,-0.32,-3.29,-0.33,-3.30,3.30,2.91,2.98,2.97,2.97
200,-0.32,-3.29,-0.33,-3.30,3.30,2.96,2.98,2.97,2.97
202,-0.32,-3.29,-0.33,-3.29,3.29,3.00,2.97,2.97,2.97
204,-0.32,-3.29,-0.32,-3.29,3.29,3.04,2.97,2.97,2.97
206,-0.32,-3.29,-0.32,-3.29,3.29,3.09,2.97,2.97,2.97
208,-0.32,-3.29,-0.32,-3.29,3.29,3.13,2.97,2.97,2.97
210,-0.32,-3.29,-0.32,-3.28,3.28,3.17,2.96,2.97,2.97
212,-0.32,-3.29,-0.32,-3.28,3.28,3.21,2.96,2.97,2.97
214,-0.32,-3.29,-0.32,-3.28,3.28,3.26,2.96,2.97,2.97
216,-0.32,-3.29,-0.32,-3.28,3.28,3.30,2.96,2.97,2.97
218,-0.32,-3.29,-0.32,-3.28,3.28,3.34,2.96,2.97,2.97
221,-0.32,-3.29,-0.32,-3.28,3.28,3.40,2.96,2.97,2.97
223,-0.32,-3.29,-0.32,-3.28,3.28,3.43,2.96,2.97,2.97
225,-0.32,-3.29,-0.32,-3.29,3.29,3.47,2.97,2.97,2.97
227,-0.32,-3.29,-0.32,-3.29,3.29,3.50,2.97,2.97,2.97
229,-0.32,-3.29,-0.32,-3.29,3.29,3.53,2.97,2.97,2.97
232,-0.32,-3.29,-0.32,-3.29,3.29,3.58,2.97,2.97,2.97
234,-0.32,-3.29,-0.32,-3.29,3.29,3.60,2.97,2.97,2.97
236,-0.32,-3.29,-0.32,-3.29,3.29,3.63,2.97,2.97,2.97
239,-0.32,-3.29,-0.32,-3.29,3.29,3.66,2.97,2.97,2.97
241,-0.32,-3.29,-0.32,-3.29,3.29,3.68,2.97,2.97,2.97
244,-0.32,-3.29,-0.32,-3.29,3.29,3.70,2.97,2.97,2.97
246,-0.32,-3.29,-0.32,-3.29,3.29,3.71,2.97,2.97,2.97
248,-0.32,-3.29,-0.32,-3.29,3.29,3.72,2.97,2.97,2.97
251,-0.32,-3.29,-0.32,-3.29,3.29,3.72,2.97,2.97,2.97
253,-0.32,-3.29,-0.32,-3.29,3.29,3.72,2.97,2.97,2.97
256,-0.32,-3.29,-0.32,-3.29,3.29,3.72,2.97,2.97,2.97
259,-0.32,-3.29,-0.32,-3.29,3.29,3.72,2.97,2.97,2.97
261,-0.32,-3.29,-0.32,-3.29,3.29,3.71,2.97,2.97,2.97
264,-0.32,-3.29,-0.32,-3.29,3.29,3.69,2.97,2.97,2.97
266,-0.32,-3.29,-0.32,-3.29,3.29,3.68,2.97,2.97,2.97
269,-0.32,-3.29,-0.32,-3.29,3.29,3.66,2.97,2.97,2.97
272,-0.32,-3.29,-0.32,-3.29,3.29,3.64,2.97,2.97,2.97
274,-0.32,-3.29,-0.32,-3.29,3.29,3.62,2.97,2.97,2.97
277,-0.32,-3.29,-0.32,-3.29,3.29,3.59,2.97,2.97,2.97
280,-0.32,-3.29,-0.32,-3.29,3.29,3.56,2.97,2.97,2.97
283,-0.32,-3.29,-0.32,-3.29,3.29,3.53,2.97,2.97,2.97
286,-0.32,-3.29,-0.32,-3.29,3.29,3.50,2.97,2.97,2.97
288,-0.32,-3.29,-0.32,-3.29,3.29,3.48,2.97,2.97,2.97
291,-0.32,-3.29,-0.32,-3.29,3.29,3.45,2.97,2.97,2.97
294,-0.32,-3.29,-0.32,-3.29,3.29,3.41,2.97,2.97,2.97
297,-0.32,-3.29,-0.32,-3.29,3.29,3.38,2.97,2.97,2.97
300,-0.32,-3.29,-0.32,-3.29,3.29,3.35,2.97,2.97,2.97
303,-0.32,-3.29,-0.32,-3.29,3.29,3.32,2.97,2.97,2.97
306,-0.32,-3.29,-0.32,-3.29,3.29,3.29,2.97,2.97,2.97
309,-0.32,-3.29,-0.32,-3.29,3.29,3.26,2.97,2.97,2.97
312,-0.32,-3.29,-0.32,-3.29,3.29,3.23,2.97,2.97,2.97
316,-0.32,-3.29,-0.32,-3.29,3.29,3.19,2.97,2.97,2.97
319,-0.32,-3.29,-0.32,-3.29,3.29,3.17,2.97,2.97,2.97
322,-0.32,-3.29,-0.32,-3.29,3.29,3.15,2.97,2.97,2.97
325,-0.32,-3.29,-0.32,-3.29,3.29,3.13,2.97,2.97,2.97
328,-0.32,-3.29,-0.32,-3.29,3.29,3.11,2.97,2.97,2.97
332,-0.32,-3.29,-0.32,-3.29,3.29,3.09,2.97,2.97,2.97
335,-0.32,-3.29,-0.32,-3.29,3.29,3.07,2.97,2.97,2.97
338,-0.32,-3.29,-0.32,-3.29,3.29,3.06,2.97,2.97,2.97
342,-0.32,-3.29,-0.32,-3.29,3.29,3.04,2.97,2.97,2.97
345,-0.32,-3.29,-0.32,-3.29,3.29,3.04,2.97,2.97,2.97
349,-0.32,-3.29,-0.32,-3.29,3.29,3.03,2.97,2.97,2.97
352,-0.32,-3.29,-0.32,-3.29,3.29,3.02,2.97,2.97,2.97
356,-0.32,-3.29,-0.32,-3.29,3.29,3.02,2.97,2.97,2.97
359,-0.32,-3.29,-0.32,-3.29,3.29,3.02,2.97,2.97,2.97
363,-0.32,-3.29,-0.32,-3.29,3.29,3.02,2.97,2.97,2.97
366,-0.32,-3.29,-0.32,-3.29,3.29,3.02,2.97,2.97,2.97
370,-0.32,-3.29,-0.32,-3.29,3.29,3.03,2.97,2.97,2.97
374,-0.32,-3.29,-0.32,-3.29,3.29,3.04,2.97,2.97,2.97
377,-0.32,-3.29,-0.32,-3.29,3.29,3.05,2.97,2.97,2.97
381,-0.32,-3.29,-0.32,-3.29,3.29,3.06,2.97,2.97,2.97
385,-0.32,-3.29,-0.32,-3.29,3.29,3.08,2.97,2.97,2.97
389,-0.32,-3.29,-0.32,-3.29,3.29,3.09,2.97,2.97,2.97
393,-0.32,-3.29,-0.32,-3.29,3.29,3.11,2.97,2.97,2.97
397,-0.32,-3.29,-0.32,-3.29,3.29,3.13,2.97,2.97,2.97
401,-0.32,-3.29,-0.32,-3.29,3.29,3.16,2.97,2.97,2.97
405,-0.32,-3.29,-0.32,-3.29,3.29,3.18,2.97,2.97,2.97
409,-0.32,-3.29,-0.32,-3.29,3.29,3.20,2.97,2.97,2.97
413,-0.32,-3.29,-0.32,-3.29,3.29,3.23,2.97,2.97,2.97
417,-0.32,-3.29,-0.32,-3.29,3.29,3.25,2.97,2.97,2.97
421,-0.32,-3.29,-0.32,-3.29,3.29,3.28,2.97,2.97,2.97
425,-0.32,-3.29,-0.32,-3.29,3.29,3.31,2.97,2.97,2.97
430,-0.32,-3.29,-0.32,-3.29,3.29,3.34,2.97,2.97,2.97
434,-0.32,-3.29,-0.32,-3.29,3.29,3.37,2.97,2.97,2.97
438,-0.32,-3.29,-0.32,-3.29,3.29,3.39,2.97,2.97,2.97
443,-0.32,-3.29,-0.32,-3.29,3.29,3.42,2.97,2.97,2.97
447,-0.32,-3.29,-0.32,-3.29,3.29,3.45,2.97,2.97,2.97
451,-0.32,-3.29,-0.32,-3.29,3.29,3.47,2.97,2.97,2.97
456,-0.32,-3.29,-0.32,-3.29,3.29,3.50,2.97,2.97,2.97
460,-0.32,-3.29,-0.32,-3.29,3.29,3.52,2.97,2.97,2.97
465,-0.32,-3.29,-0.32,-3.28,3.28,3.54,2.96,2.97,2.97
470,-0.32,-3.29,-0.32,-3.28,3.28,3.56,2.96,2.97,2.97
474,-0.32,-3.29,-0.32,-3.28,3.28,3.57,2.96,2.97,2.97
479,-0.32,-3.29,-0.31,-3.28,3.28,3.59,2.96,2.97,2.97
484,-0.32,-3.29,-0.31,-3.28,3.28,3.60,2.96,2.97,2.97
489,-0.32,-3.29,-0.31,-3.28,3.28,3.61,2.96,2.97,2.97
494,-0.32,-3.29,-0.31,-3.27,3.27,3.62,2.95,2.97,2.97
499,-0.32,-3.29,-0.31,-3.27,3.27,3.62,2.95,2.97,2.97
504,-0.32,-3.29,-0.31,-3.28,3.28,3.62,2.96,2.97,2.97
509,-0.32,-3.29,-0.31,-3.28,3.28,3.62,2.96,2.97,2.97
514,-0.32,-3.29,-0.32,-3.29,3.29,3.61,2.97,2.97,2.97
519,-0.32,-3.29,-0.33,-3.30,3.30,3.60,2.98,2.97,2.97
524,-0.32,-3.29,-0.35,-3.31,3.31,3.59,2.99,2.97,2.97
529,-0.32,-3.29,-0.37,-3.33,3.33,3.58,3.01,2.97,2.97
535,-0.32,-3.29,-0.39,-3.36,3.36,3.56,3.04,2.97,2.97
540,-0.40,-3.37,-0.42,-3.39,3.39,3.54,2.99,2.97,2.97
545,-0.49,-3.46,-0.45,-3.42,3.42,3.53,2.93,2.97,2.97
551,-0.49,-3.46,-0.48,-3.45,3.45,3.50,2.96,2.97,2.97
556,-0.49,-3.46,-0.51,-3.48,3.48,3.48,2.99,2.97,2.97
562,-0.53,-3.50,-0.54,-3.51,3.51,3.46,2.98,2.97,2.97
568,-0.65,-3.62,-0.57,-3.54,3.54,3.43,2.89,2.97,2.97
573,-0.65,-3.62,-0.60,-3.56,3.56,3.41,2.91,2.97,2.97
579,-0.65,-3.62,-0.62,-3.58,3.58,3.38,2.93,2.97,2.97
585,-0.65,-3.62,-0.64,-3.60,3.60,3.35,2.95,2.97,2.97
591,-0.65,-3.62,-0.65,-3.62,3.62,3.33,2.97,2.97,2.97
596,-0.65,-3.62,-0.66,-3.63,3.63,3.31,2.98,2.97,2.97
602,-0.65,-3.62,-0.67,-3.63,3.63,3.28,2.98,2.97,2.97
608,-0.65,-3.62,-0.67,-3.64,3.64,3.26,2.99,2.97,2.97
615,-0.65,-3.62,-0.67,-3.64,3.64,3.23,2.99,2.97,2.97
621,-0.65,-3.62,-0.67,-3.64,3.64,3.21,2.99,2.97,2.97
627,-0.65,-3.62,-0.67,-3.63,3.63,3.19,2.98,2.97,2.97
633,-0.65,-3.62,-0.66,-3.63,3.63,3.18,2.98,2.97,2.97
639,-0.65,-3.62,-0.65,-3.61,3.61,3.16,2.96,2.97,2.97
646,-0.65,-3.62,-0.63,-3.60,3.60,3.15,2.95,2.97,2.97
652,-0.65,-3.62,-0.61,-3.57,3.57,3.14,2.92,2.97,2.97
659,-0.65,-3.62,-0.58,-3.55,3.55,3.13,2.90,2.97,2.97
665,-0.65,-3.62,-0.56,-3.52,3.52,3.12,2.87,2.97,2.97
672,-0.53,-3.50,-0.52,-3.49,3.49,3.11,2.96,2.97,2.97
679,-0.49,-3.46,-0.49,-3.46,3.46,3.11,2.97,2.97,2.97
686,-0.46,-3.43,-0.46,-3.42,3.42,3.11,2.96,2.97,2.97
692,-0.36,-3.33,-0.43,-3.39,3.39,3.11,3.03,2.97,2.97
699,-0.32,-3.29,-0.40,-3.36,3.36,3.12,3.04,2.97,2.97
706,-0.32,-3.29,-0.37,-3.33,3.33,3.12,3.01,2.97,2.97
713,-0.32,-3.29,-0.35,-3.31,3.31,3.13,2.99,2.97,2.97
721,-0.32,-3.29,-0.33,-3.30,3.30,3.15,2.98,2.97,2.97
728,-0.32,-3.29,-0.32,-3.28,3.28,3.16,2.96,2.97,2.97
735,-0.32,-3.29,-0.31,-3.28,3.28,3.18,2.96,2.97,2.97
742,-0.32,-3.29,-0.31,-3.27,3.27,3.20,2.95,2.97,2.97
750,-0.32,-3.29,-0.31,-3.27,3.27,3.22,2.95,2.97,2.97
757,-0.32,-3.29,-0.31,-3.27,3.27,3.24,2.95,2.97,2.97
765,-0.32,-3.29,-0.31,-3.27,3.27,3.27,2.95,2.97,2.97
773,-0.32,-3.29,-0.31,-3.28,3.28,3.30,2.96,2.97,2.97
780,-0.32,-3.29,-0.32,-3.28,3.28,3.32,2.96,2.97,2.97
788,-0.32,-3.29,-0.32,-3.29,3.29,3.36,2.97,2.97,2.97
796,-0.32,-3.29,-0.33,-3.29,3.29,3.39,2.97,2.97,2.97
804,-0.32,-3.29,-0.33,-3.30,3.30,3.42,2.98,2.97,2.97
812,-0.32,-3.29,-0.34,-3.30,3.30,3.46,2.98,2.97,2.97
820,-0.32,-3.29,-0.34,-3.30,3.30,3.49,2.98,2.97,2.97
828,-0.32,-3.29,-0.33,-3.30,3.30,3.53,2.98,2.97,2.97
837,-0.32,-3.29,-0.33,-3.29,3.29,3.57,2.97,2.97,2.97
845,-0.32,-3.29,-0.32,-3.28,3.28,3.60,2.96,2.97,2.97
853,-0.32,-3.29,-0.30,-3.27,3.27,3.63,2.95,2.97,2.97
862,-0.32,-3.29,-0.29,-3.25,3.25,3.67,2.93,2.97,2.97
871,-0.32,-3.29,-0.26,-3.23,3.23,3.70,2.91,2.97,2.97
879,-0.32,-3.29,-0.23,-3.20,3.20,3.73,2.88,2.97,2.97
888,-0.30,-3.27,-0.20,-3.17,3.17,3.76,2.87,2.97,2.97
897,-0.19,-3.16,-0.17,-3.14,3.14,3.79,2.95,2.97,2.97
906,-0.08,-3.05,-0.14,-3.11,3.11,3.81,3.03,2.97,2.97
915,0.00,-2.97,-0.11,-3.08,3.08,3.83,3.08,2.97,2.97
924,0.00,-2.97,-0.08,-3.05,3.05,3.84,3.05,2.97,2.97
933,0.00,-2.97,-0.06,-3.02,3.02,3.85,3.02,2.97,2.97
943,0.00,-2.97,-0.04,-3.00,3.00,3.86,3.00,2.97,2.97
952,0.00,-2.97,-0.02,-2.99,2.99,3.85,2.99,2.97,2.97
962,0.00,-2.97,-0.01,-2.97,2.97,3.85,2.97,2.97,2.97
971,0.00,-2.97,0.01,-2.96,2.96,3.83,2.96,2.97,2.97
981,0.00,-2.97,0.02,-2.94,2.94,3.81,2.94,2.97,2.97
991,0.00,-2.97,0.04,-2.93,2.93,3.79,2.93,2.97,2.97
1001,0.00,-2.97,0.06,-2.91,2.91,3.75,2.91,2.97,2.97
1011,0.00,-2.97,0.08,-2.89,2.89,3.71,2.89,2.97,2.97
1021,0.00,-2.97,0.10,-2.86,2.86,3.66,2.86,2.97,2.97
1031,0.09,-2.88,0.13,-2.84,2.84,3.61,2.93,2.97,2.97
1041,0.19,-2.78,0.16,-2.81,2.81,3.55,3.00,2.97,2.97
1052,0.31,-2.66,0.19,-2.77,2.77,3.48,3.08,2.97,2.97
1062,0.32,-2.65,0.22,-2.74,2.74,3.41,3.06,2.97,2.97
1073,0.32,-2.65,0.26,-2.71,2.71,3.33,3.03,2.97,2.97
1084,0.32,-2.65,0.29,-2.67,2.67,3.24,2.99,2.97,2.97
1094,0.32,-2.65,0.33,-2.64,2.64,3.16,2.96,2.97,2.97
1105,0.32,-2.65,0.36,-2.61,2.61,3.06,2.93,2.97,2.97
1116,0.32,-2.65,0.39,-2.57,2.57,2.96,2.89,2.97,2.97
1128,0.32,-2.65,0.43,-2.54,2.54,2.85,2.86,2.97,2.97
1139,0.40,-2.57,0.46,-2.51,2.51,2.75,2.91,2.97,2.97
1150,0.51,-2.46,0.49,-2.47,2.47,2.64,2.98,2.97,2.97
1162,0.63,-2.34,0.53,-2.44,2.44,2.52,3.07,2.97,2.97
1173,0.65,-2.32,0.56,-2.41,2.41,2.41,3.06,2.97,2.97
1185,0.65,-2.32,0.60,-2.37,2.37,2.29,3.02,2.97,2.97
1197,0.65,-2.32,0.63,-2.33,2.33,2.17,2.98,2.97,2.97
1209,0.65,-2.32,0.67,-2.30,2.30,2.05,2.95,2.97,2.97
1221,0.65,-2.32,0.71,-2.26,2.26,1.92,2.91,2.97,2.97
1233,0.65,-2.32,0.75,-2.22,2.22,1.80,2.87,2.97,2.97
1246,0.76,-2.21,0.79,-2.17,2.17,1.67,2.93,2.97,2.97
1258,0.87,-2.10,0.84,-2.12,2.12,1.55,2.99,2.97,2.97
1271,0.97,-2.00,0.89,-2.07,2.07,1.42,3.04,2.97,2.97
1283,0.97,-2.00,0.94,-2.02,2.02,1.30,2.99,2.97,2.97
1296,0.97,-2.00,1.00,-1.96,1.96,1.17,2.93,2.97,2.97
1309,1.00,-1.97,1.06,-1.90,1.90,1.04,2.90,2.97,2.97
1322,1.11,-1.86,1.13,-1.83,1.83,0.92,2.94,2.97,2.97
1335,1.22,-1.75,1.20,-1.77,1.77,0.79,2.99,2.97,2.97
1349,1.30,-1.67,1.27,-1.69,1.69,0.66,2.99,2.97,2.97
1362,1.30,-1.67,1.34,-1.62,1.62,0.53,2.92,2.97,2.97
1376,1.40,-1.57,1.42,-1.55,1.55,0.40,2.95,2.97,2.97
1390,1.51,-1.46,1.49,-1.47,1.47,0.27,2.98,2.97,2.97
1404,1.62,-1.35,1.57,-1.40,1.40,0.14,3.02,2.97,2.97
1418,1.62,-1.35,1.64,-1.32,1.32,0.02,2.94,2.97,2.97
1432,1.69,-1.28,1.71,-1.25,1.25,-0.11,2.94,2.97,2.97
1446,1.80,-1.17,1.78,-1.18,1.18,-0.23,2.98,2.97,2.97
1461,1.91,-1.06,1.85,-1.12,1.12,-0.36,3.03,2.97,2.97
1475,1.95,-1.02,1.91,-1.06,1.06,-0.49,3.01,2.97,2.97
1490,1.95,-1.02,1.96,-1.00,1.00,-0.62,2.95,2.97,2.97
1505,1.95,-1.02,2.02,-0.95,0.95,-0.74,2.90,2.97,2.97
1520,2.13,-0.84,2.07,-0.90,0.90,-0.87,3.03,2.97,2.97
1535,2.27,-0.70,2.12,-0.84,0.84,-0.99,3.11,2.97,2.97
1550,2.27,-0.70,2.18,-0.79,0.79,-1.12,3.06,2.97,2.97
1566,2.27,-0.70,2.24,-0.73,0.73,-1.25,3.00,2.97,2.97
1582,2.27,-0.70,2.31,-0.66,0.66,-1.38,2.93,2.97,2.97
1597,2.27,-0.70,2.39,-0.57,0.57,-1.50,2.84,2.97,2.97
1613,2.49,-0.48,2.49,-0.47,0.47,-1.62,2.96,2.97,2.97
1629,2.59,-0.38,2.61,-0.35,0.35,-1.74,2.94,2.97,2.97
1646,2.63,-0.34,2.75,-0.21,0.21,-1.87,2.84,2.97,2.97
1662,2.85,-0.12,2.92,-0.05,0.05,-1.99,2.90,2.97,2.97
1679,3.08,0.11,3.11,0.14,-0.14,-2.12,2.94,2.97,2.97
1696,3.30,0.33,3.33,0.36,-0.36,-2.24,2.94,2.97,2.97
1713,3.53,0.56,3.57,0.60,-0.60,-2.36,2.93,2.97,2.97
1730,3.84,0.87,3.84,0.87,-0.87,-2.47,2.97,2.97,2.97
1747,4.13,1.16,4.12,1.16,-1.16,-2.58,2.97,2.97,2.97
1764,4.35,1.38,4.43,1.47,-1.47,-2.69,2.88,2.97,2.97
1782,4.69,1.72,4.75,1.79,-1.79,-2.80,2.90,2.97,2.97
1800,5.03,2.06,5.08,2.12,-2.12,-2.91,2.91,2.97,2.97
1818,5.37,2.40,5.42,2.45,-2.45,-3.01,2.92,2.97,2.97
1836,5.81,2.84,5.75,2.79,-2.79,-3.11,3.02,2.97,2.97
1854,6.13,3.16,6.09,3.12,-3.12,-3.20,3.01,2.97,2.97
1873,6.39,3.42,6.41,3.44,-3.44,-3.29,2.95,2.97,2.97
1892,6.84,3.87,6.72,3.75,-3.75,-3.38,3.09,2.97,2.97
1911,7.13,4.16,7.01,4.04,-4.04,-3.46,3.09,2.97,2.97
1930,7.36,4.39,7.28,4.32,-4.32,-3.53,3.04,2.97,2.97
