frequency,raw
20,-1.1397445011554008
21,-1.135849112209245
22,-1.1322128921873094
23,-1.1288358410895947
24,-1.125528552924284
25,-1.1227668931385744
26,-1.1207785857703492
27,-1.119398947700768
28,-1.1178137861750375
29,-1.1150068654678302
30,-1.1102602029691115
31,-1.1035311747574061
32,-1.0953460864081679
33,-1.086394953381928
34,-1.0771319918483
35,-1.06770319132578
36,-1.058212456687916
37,-1.0490815610488569
38,-1.0411806882401078
39,-1.03559098651897
40,-1.0331252542429208
41,-1.033907042799632
42,-1.037268333394782
43,-1.042023504269186
44,-1.0469558318892513
45,-1.051249009704763
46,-1.0546511328293402
47,-1.0573297690297145
48,-1.05955056406862
49,-1.0613949003270196
50,-1.062684800402515
51,-1.063139243236376
52,-1.0626343376025327
53,-1.0613768467692248
54,-1.0598606939166393
55,-1.0586236548857324
56,-1.0579595137176396
57,-1.0577764574635724
58,-1.0577024092778395
59,-1.0573795582497776
60,-1.0567611570107815
61,-1.0562125141256922
62,-1.056334632577497
63,-1.0575974158481354
64,-1.0599856401921781
65,-1.062852407125579
66,-1.0650494727889317
67,-1.0652557726505372
68,-1.062349607357834
69,-1.0556945478859212
70,-1.0452921386422347
71,-1.0318171137241285
72,-1.0165487086935805
73,-1.0011780029058308
74,-0.987465001745923
75,-0.97677079705901
76,-0.9695818541573565
77,-0.9652121349600918
78,-0.961855605419522
79,-0.9570554103545481
80,-0.9484877067034854
81,-0.9347950931016098
82,-0.916133351169712
83,-0.894173756934831
84,-0.8715237499322335
85,-0.8507984486300854
86,-0.8337473921066492
87,-0.8208040224285993
88,-0.8111915689756264
89,-0.8034278424954445
90,-0.7959052473982329
91,-0.7872732090333237
92,-0.7765566466913709
93,-0.7631389539661659
94,-0.7467790008488089
95,-0.7277111386698345
96,-0.7067189404715252
97,-0.6850202001519945
98,-0.663903823352251
99,-0.6442387770465398
100,-0.6260916950628694
101,-0.6086586498195855
102,-0.590564004674215
104,-0.57040299507382
105,-0.5473021338262178
106,-0.5212779496824718
107,-0.4932665899186579
108,-0.46482917036791926
109,-0.43766577269632245
110,-0.41314787101361194
111,-0.3920652178064686
112,-0.3746684564801401
113,-0.3609237729564089
114,-0.3507802794294679
115,-0.34426735986189205
117,-0.34138063037442035
118,-0.3418793910416915
119,-0.34517963978068067
120,-0.350441393067107
121,-0.3567924909013048
123,-0.3635323705744641
124,-0.3701916285413773
125,-0.37644902991184237
126,-0.3820147385123899
128,-0.3865937406613672
129,-0.3899573779229224
130,-0.39205353530251286
131,-0.39305305661759077
133,-0.3932795870092417
134,-0.39305688701311164
135,-0.39256908080182845
137,-0.3918283885752497
138,-0.39077943504374824
140,-0.3894727498698026
141,-0.38817472786583646
142,-0.38730246567620197
144,-0.38718518476132296
145,-0.38779590091935634
147,-0.3886566370482284
148,-0.38902784732947937
150,-0.38829497084926945
151,-0.38630554730860234
153,-0.38341805753788905
154,-0.3802118507470395
156,-0.37704410856857656
157,-0.37375151630989545
159,-0.3697017550442726
160,-0.3641714574085084
162,-0.3568176314184382
164,-0.34795708598311037
165,-0.3384938614587321
167,-0.32954808599506813
169,-0.32200814126424093
170,-0.3162556350421588
172,-0.31219111208725026
174,-0.30950497955766343
175,-0.30800424228450785
177,-0.307796613934202
179,-0.30924242374830424
181,-0.3127293564424135
183,-0.3184129775897293
184,-0.3260616402010636
186,-0.33506828245923714
188,-0.34460007854378927
190,-0.3537987496601798
192,-0.36193559137451825
194,-0.36846464453661576
196,-0.37299206585657924
198,-0.375246656469125
200,-0.37514027615668266
202,-0.3729228277115162
204,-0.3693065655966795
206,-0.365372446401669
208,-0.3621740463526603
210,-0.3601888466506171
212,-0.3589609302401679
214,-0.35724797953140097
216,-0.3536883085924857
218,-0.3476281016257134
221,-0.3395849870692953
223,-0.33102836040258865
225,-0.3236098457719221
227,-0.3183569603854726
229,-0.3153598274417888
232,-0.3141195035997779
234,-0.31425556537969496
236,-0.3160354896048151
239,-0.32034846313003307
241,-0.3281612412957605
244,-0.3398400874344444
246,-0.3547644874258795
248,-0.3714083419405685
251,-0.3877532594244497
253,-0.40176616293268314
256,-0.4117714385801797
259,-0.41671905702821554
261,-0.41640827981286266
264,-0.41162604595763597
266,-0.4040413507393199
269,-0.3957397694544722
272,-0.3885090331898985
274,-0.38321681333628227
277,-0.37963824106940136
280,-0.37683121381575013
283,-0.3738009774755584
286,-0.37001773571241947
288,-0.36549310735172397
291,-0.36046300938950016
294,-0.354998714238025
297,-0.3488697808702006
300,-0.341737498563995
303,-0.33347790058375193
306,-0.3243382609470189
309,-0.31477040970337006
312,-0.30503444240919225
316,-0.29483829501196507
319,-0.2832674213122033
322,-0.2690912406905865
325,-0.2513242020505787
328,-0.22977882160074423
332,-0.20533706901128726
335,-0.17978259431287272
338,-0.15523340822028503
342,-0.13340823632304497
345,-0.11505646691509508
349,-0.09981777523145827
352,-0.08657314439561523
356,-0.0741047087757063
359,-0.061731523169567405
363,-0.04961147773528737
366,-0.03857843677265968
370,-0.029616906917505573
374,-0.023249431971162107
377,-0.01914543923425191
381,-0.016145598478080808
385,-0.012687402004758454
389,-0.007415686112353903
393,0.00032975865874276236
397,0.010376128778510255
401,0.021942155045456053
405,0.03402229021037913
409,0.045653534611099306
413,0.05590827119796481
417,0.0636859332877322
421,0.06754067300534985
425,0.0657626164232108
430,0.05674649980556153
434,0.03947335468731836
438,0.013845413212380725
443,-0.01929996080365612
447,-0.05849127321868523
451,-0.10207309387350477
456,-0.1485816706808341
460,-0.19687773788086557
465,-0.24599969156443152
470,-0.2948491214565321
474,-0.34192575298563577
479,-0.3853243667824644
484,-0.42306903047466904
489,-0.4536463176837178
494,-0.4764372745296416
499,-0.49176079943628265
504,-0.5004493685796751
509,-0.5031584807629614
514,-0.49978221655898303
519,-0.48929634606986994
524,-0.47011450911058456
529,-0.4407764446602028
535,-0.4006458078114984
540,-0.3503342620200428
545,-0.2917311162560056
551,-0.2276926240282245
556,-0.16154747188024288
562,-0.09658690051284011
568,-0.03566004487106132
573,0.019066611307740233
579,0.06617538994605485
585,0.1049157474842389
591,0.13503602922482819
596,0.156615630579125
602,0.16997881166657697
608,0.17571024136447772
615,0.17469451904956634
621,0.16804019946346282
627,0.15679915457038787
633,0.14155358714507987
639,0.12211196422824663
646,0.09758101610650678
652,0.06690073427955734
659,0.02964494839395712
665,-0.01329672463006763
672,-0.05949196639576898
679,-0.10528619724035129
686,-0.14650290691803675
692,-0.17924371143559575
699,-0.20056001969432596
706,-0.2088804223072459
713,-0.20415502095449256
721,-0.18771729909893858
728,-0.16191844697876767
735,-0.12966832422483343
742,-0.0940511607951528
750,-0.058103178100647024
757,-0.02468335512825743
765,0.00372353049229517
773,0.025356258478582284
780,0.03956171648395376
788,0.046946843907497524
796,0.04909099915787314
804,0.04787031968557941
812,0.04471405501451167
820,0.040186474693495816
828,0.03410084851679049
837,0.02605064470547693
845,0.016008669398970537
853,0.004642418936153671
862,-0.006799342902273357
871,-0.01690933905020666
879,-0.024586101706318635
888,-0.029311734403878097
897,-0.031174376004448667
906,-0.030712963056615184
915,-0.02870232926929945
924,-0.025943245994098463
933,-0.023071428789148477
943,-0.020420030508650943
952,-0.01802436461125387
962,-0.015842720203547548
971,-0.014127211428363845
981,-0.013698925888587666
991,-0.0158459463632479
1001,-0.021770785745813898
1011,-0.031855066653341625
1021,-0.04522049643521264
1031,-0.059940602669602494
1041,-0.07385096720760007
1052,-0.0855130325522337
1062,-0.0947966501468521
1073,-0.1028109026547678
1084,-0.11131018715351214
1094,-0.12193850666201125
1105,-0.13563266351119863
1116,-0.15231203926804243
1128,-0.17084073837741776
1139,-0.18924645058701406
1150,-0.20522278861535653
1162,-0.2168798556685999
1173,-0.2235213712863384
1185,-0.22606973270555436
1197,-0.2268171844203023
1209,-0.22850463442464947
1221,-0.23314150767205946
1233,-0.2411939790281158
1246,-0.2516012870048323
1258,-0.262602861968362
1271,-0.27286313874640306
1283,-0.28220486141016854
1296,-0.29152607787924684
1309,-0.3020067134606927
1322,-0.31415061814972906
1335,-0.3272737691766675
1349,-0.3397174970430705
1362,-0.3496033930670688
1376,-0.35566420908763285
1390,-0.357728256950927
1404,-0.3566991141639979
1418,-0.35413639409776543
1432,-0.3516543792799126
1446,-0.3503472477905922
1461,-0.3504181677900427
1475,-0.35117639123882366
1490,-0.3514977521357538
1505,-0.35064605012164807
1520,-0.34907636923615587
1535,-0.34870168789204303
1550,-0.3522874571101836
1566,-0.3621343900332211
1582,-0.3787282638534011
1597,-0.40019914787699484
1613,-0.423042549090127
1629,-0.44379910495091895
1646,-0.4607366868150703
1662,-0.4745013172871139
1679,-0.48730376473806275
1696,-0.501133173733737
1713,-0.5161230676818829
1730,-0.5301032947953286
1747,-0.539603588697646
1764,-0.5416680896802195
1782,-0.5354003992134819
1800,-0.522440277351091
1818,-0.5062944404269768
1836,-0.4910600116259304
1854,-0.48021075022440307
1873,-0.4758331282328071
1892,-0.4783453512734607
1911,-0.4865933501741588
1930,-0.49826760875171705
1949,-0.5106091593843614
1969,-0.5212396744025615
1988,-0.528791921398802
2008,-0.5330530931132097
2028,-0.5346234361392741
2048,-0.5344139153651811
2069,-0.533371853896775
2090,-0.5325490518432089
2111,-0.5332583427167469
2132,-0.5369369529216188
2153,-0.5445799197189484
2175,-0.5560191900264053
2196,-0.5695593168188631
2218,-0.5823263615033061
2240,-0.5912544688586394
2263,-0.5942326627400673
2285,-0.5908336718902532
2308,-0.5822894388733172
2331,-0.5707957096200633
2355,-0.5585570977354496
2378,-0.5470631768186165
2402,-0.5369077210659762
2426,-0.5281558903987862
2450,-0.520996002663562
2475,-0.5163080824500572
2500,-0.515849031599572
2525,-0.5219365264061329
2550,-0.5367145482087543
2575,-0.5612346676887725
2601,-0.5946562687979182
2627,-0.6338473689957107
2653,-0.6735473169436469
2680,-0.707074717707175
2707,-0.7273990719499095
2734,-0.7283312738912453
2761,-0.7056478555439264
2789,-0.6580603169064525
2817,-0.5879368638110976
2845,-0.5015521999547948
2873,-0.40851075162223777
2902,-0.32009011704559387
2931,-0.24668377790991658
2960,-0.19509297159364658
2990,-0.16672521032699944
3020,-0.15750256434171905
3050,-0.15952130771387885
3080,-0.16368277914851875
3111,-0.1621472027014414
3142,-0.1497478500628645
3174,-0.12419625412512536
3206,-0.08553445833659856
3238,-0.035484171382114134
3270,0.02290387061758919
3303,0.08532813844790484
3336,0.146397757264831
3369,0.20029648871693956
3403,0.24214616607792802
3437,0.26984247459179855
3471,0.28567828037514176
3506,0.29684657225326316
3541,0.31418093068802094
3576,0.3492447392801403
3612,0.410741024497113
3648,0.5016295936462593
3685,0.6179978360422542
3721,0.7498789631168806
3759,0.8834641513971635
3796,1.0039474707476606
3834,1.0984532449758695
3873,1.1586436489791512
3911,1.1824165102227233
3950,1.1738975025461489
3990,1.1413071337750345
4030,1.093374496303228
4070,1.0360814539899272
4111,0.9716200544605195
4152,0.9001257404835498
4193,0.8228077132445253
4235,0.7440248769932611
4278,0.6705925470079387
4321,0.6086894274111585
4364,0.5606001282823923
4407,0.5237246643878662
4451,0.49265876270865
4496,0.462938286264923
4541,0.4338839573119373
4586,0.40867417425846886
4632,0.39174444141480064
4679,0.38541978199958027
4725,0.3881187641730516
4773,0.3953309892743497
4820,0.4027064180005381
4868,0.40923358785676317
4917,0.41843621037100376
4966,0.4367223439298559
5016,0.4697040328542255
5066,0.5184924975812164
5117,0.5780382947259112
5168,0.6385422926995384
5220,0.6893949936523728
5272,0.7238034810841409
5325,0.7418733720731683
5378,0.7506138031041576
5432,0.7607902154456845
5486,0.782064153430911
5541,0.8186957370714039
5596,0.8678086368480186
5652,0.920955245121557
5709,0.9681146958609502
5766,1.0021363758067017
5823,1.0215687698123532
5882,1.0307743003967569
5940,1.037639489438084
6000,1.050267732130992
6060,1.0742695949172103
6120,1.1116445992718222
6182,1.1612428573161377
6244,1.2200184891257484
6306,1.2841210818844528
6369,1.3492938863219202
6433,1.4106917004891173
6497,1.462650969491753
6562,1.4989043897475782
6628,1.5133514151070293
6694,1.501113321621933
6761,1.4595001992641263
6828,1.3886908819250983
6897,1.2921221868718238
6966,1.17656061940623
7035,1.0516269819692972
7106,0.9284593612229521
7177,0.817488545883527
7249,0.7258696348270997
7321,0.6555481334093085
7394,0.6028150130076582
7468,0.5594914505365784
7543,0.5150291544602501
7618,0.4584127367904001
7694,0.37910588213756335
7771,0.2671789591917123
7849,0.11356289497317709
7928,-0.08852045658806496
8007,-0.3406700840389319
8087,-0.6359316613262624
8168,-0.9568475799350806
8250,-1.2767049447779097
8332,-1.5644027631987818
8415,-1.7914585255852684
8499,-1.9383755890124277
8584,-1.9978203193691622
8670,-1.9737578886304905
8757,-1.8777680143211306
8845,-1.7248587599772776
8933,-1.5305951611408593
9022,-1.3098317428300348
9113,-1.0760838421198278
9204,-0.8405129385855177
9296,-0.6104644603390934
9389,-0.38850249093036393
9483,-0.17302432693516767
9577,0.03928015486546558
9673,0.24994323470879676
9770,0.4556027744725654
9868,0.646468355945383
9966,0.8069196237176106
10066,0.9180485227442977
10167,0.9613847159845637
10268,0.9227503338014278
10371,0.7952902667871387
10475,0.5812608160657048
10579,0.2928448408414321
10685,-0.04749225313960922
10792,-0.40715998819738364
10900,-0.7451486219942218
11009,-1.0166653212099124
11119,-1.1809776955674294
11230,-1.2105441148807659
11343,-1.097772350397382
11456,-0.8560626711601884
11571,-0.5143719030521776
11686,-0.10786355257154853
11803,0.33092593741619347
11921,0.7768147263880683
12040,1.2118939267034854
12161,1.6228124580506418
12282,1.998574123302606
12405,2.330611433658282
12529,2.614394674738759
12655,2.8501591769557835
12781,3.0407883511376084
12909,3.187153845085642
13038,3.2836087610308935
13168,3.316978132605408
13300,3.270577825653241
13433,3.131610471803015
13567,2.897966533526154
13703,2.580681731870554
13840,2.2009869387673393
13978,1.784178632904314
14118,1.3541553655303482
14259,0.9314388678619331
14402,0.5348215918224117
14546,0.18442083360248274
14692,-0.0966654608864678
14838,-0.2837515047236514
14987,-0.3549585072306083
15137,-0.297409581059114
15288,-0.113554185609704
15441,0.17429192412876687
15595,0.5233797790087109
15751,0.8758921625350718
15909,1.170621680668808
16068,1.3584499643566983
16229,1.4163360197704662
16391,1.3538823435261356
16555,1.2091425171626211
16720,1.035133513572453
16888,0.8827908620828303
17056,0.7872997216707058
17227,0.7622593449469721
17399,0.8017678585326203
17573,0.8870775069662491
17749,0.9938015164453737
17926,1.0973781471699273
18106,1.176815235931498
18287,1.2176324661041666
18470,1.2144655337833932
18654,1.1721982990680444
18841,1.105048033676728
19029,1.0321727816879394
19220,0.9734534515892185
19412,0.9423527634749591
19606,0.9474809239123118
19802,0.9830531508430849
20000,1.0490694442672779
