frequency,raw
20,-18.54
21,-18.02
22,-17.45
23,-17.06
24,-16.46
25,-15.74
26,-15.39
27,-14.98
28,-14.38
29,-14.15
30,-13.55
31,-13.12
32,-12.81
33,-12.37
34,-12.05
35,-11.61
36,-11.31
37,-11.03
38,-10.74
39,-10.56
40,-10.19
41,-9.80
42,-9.49
43,-9.42
44,-9.10
45,-8.81
46,-8.67
47,-8.38
48,-8.15
49,-7.93
50,-7.63
51,-7.55
52,-7.29
53,-7.08
54,-6.92
55,-6.67
56,-6.45
57,-6.28
58,-6.18
59,-6.00
60,-5.80
61,-5.63
62,-5.52
63,-5.36
64,-5.23
65,-5.08
66,-5.03
67,-4.93
68,-4.84
69,-4.75
70,-4.57
71,-4.57
72,-4.57
73,-4.51
74,-4.47
75,-4.42
76,-4.37
77,-4.37
78,-4.37
79,-4.37
80,-4.33
81,-4.26
82,-4.17
83,-4.17
84,-4.16
85,-4.02
86,-3.97
87,-3.82
88,-3.65
89,-3.55
90,-3.46
91,-3.38
92,-3.23
93,-3.17
94,-3.07
95,-2.96
96,-2.96
97,-2.97
98,-2.98
99,-2.99
100,-2.89
101,-2.82
102,-2.84
104,-2.76
105,-2.78
106,-2.81
107,-2.83
108,-2.86
109,-2.88
110,-2.90
111,-2.91
112,-2.93
113,-2.93
114,-2.94
115,-2.94
117,-2.84
118,-2.84
119,-2.83
120,-2.80
121,-2.72
123,-2.71
124,-2.70
125,-2.69
126,-2.64
128,-2.58
129,-2.57
130,-2.57
131,-2.56
133,-2.56
134,-2.55
135,-2.55
137,-2.55
138,-2.54
140,-2.54
141,-2.54
142,-2.54
144,-2.54
145,-2.54
147,-2.54
148,-2.54
150,-2.55
151,-2.61
153,-2.64
154,-2.64
156,-2.64
157,-2.64
159,-2.64
160,-2.64
162,-2.64
164,-2.65
165,-2.72
167,-2.75
169,-2.76
170,-2.76
172,-2.67
174,-2.68
175,-2.68
177,-2.68
179,-2.68
181,-2.68
183,-2.68
184,-2.67
186,-2.67
188,-2.74
190,-2.72
192,-2.71
194,-2.69
196,-2.68
198,-2.67
200,-2.66
202,-2.65
204,-2.64
206,-2.64
208,-2.64
210,-2.72
212,-2.75
214,-2.75
216,-2.75
218,-2.76
221,-2.86
223,-2.86
225,-2.87
227,-2.86
229,-2.86
232,-2.85
234,-2.84
236,-2.83
239,-2.82
241,-2.80
244,-2.78
246,-2.76
248,-2.74
251,-2.72
253,-2.70
256,-2.69
259,-2.68
261,-2.68
264,-2.67
266,-2.68
269,-2.68
272,-2.68
274,-2.69
277,-2.69
280,-2.69
283,-2.69
286,-2.68
288,-2.67
291,-2.66
294,-2.65
297,-2.64
300,-2.71
303,-2.71
306,-2.70
309,-2.69
312,-2.69
316,-2.68
319,-2.68
322,-2.68
325,-2.68
328,-2.68
332,-2.58
335,-2.58
338,-2.59
342,-2.68
345,-2.69
349,-2.69
352,-2.69
356,-2.68
359,-2.68
363,-2.68
366,-2.67
370,-2.66
374,-2.65
377,-2.72
381,-2.74
385,-2.76
389,-2.83
393,-2.82
397,-2.82
401,-2.82
405,-2.83
409,-2.82
413,-2.73
417,-2.73
421,-2.73
425,-2.73
430,-2.71
434,-2.70
438,-2.67
443,-2.63
447,-2.59
451,-2.53
456,-2.48
460,-2.41
465,-2.35
470,-2.29
474,-2.23
479,-2.18
484,-2.14
489,-2.09
494,-2.06
499,-2.03
504,-1.89
509,-1.87
514,-1.87
519,-1.87
524,-1.87
529,-1.89
535,-1.91
540,-1.94
545,-1.98
551,-2.02
556,-2.07
562,-2.06
568,-2.03
573,-2.11
579,-2.15
585,-2.18
591,-2.19
596,-2.20
602,-2.19
608,-2.18
615,-2.17
621,-2.14
627,-1.97
633,-1.94
639,-1.96
646,-1.92
652,-1.88
659,-1.83
665,-1.78
672,-1.73
679,-1.72
686,-1.65
692,-1.47
699,-1.54
706,-1.57
713,-1.57
721,-1.45
728,-1.35
735,-1.38
742,-1.42
750,-1.45
757,-1.48
765,-1.50
773,-1.39
780,-1.39
788,-1.45
796,-1.44
804,-1.33
812,-1.26
820,-1.21
828,-1.11
837,-1.00
845,-1.02
853,-0.95
862,-0.79
871,-0.74
879,-0.67
888,-0.62
897,-0.56
906,-0.39
915,-0.36
924,-0.37
933,-0.28
943,-0.27
952,-0.27
962,-0.26
971,-0.26
981,-0.14
991,-0.03
1001,0.00
1011,0.10
1021,0.18
1031,0.25
1041,0.29
1052,0.32
1062,0.36
1073,0.40
1084,0.45
1094,0.51
1105,0.57
1116,0.63
1128,0.70
1139,0.87
1150,0.95
1162,1.04
1173,1.13
1185,1.23
1197,1.32
1209,1.45
1221,1.52
1233,1.60
1246,1.65
1258,1.61
1271,1.60
1283,1.66
1296,1.66
1309,1.67
1322,1.76
1335,1.82
1349,1.75
1362,1.83
1376,1.87
1390,1.91
1404,1.89
1418,1.85
1432,1.79
1446,1.78
1461,1.79
1475,1.88
1490,1.79
1505,1.60
1520,1.44
1535,1.48
1550,1.62
1566,1.70
1582,1.60
1597,1.44
1613,1.27
1629,1.15
1646,1.12
1662,1.15
1679,1.19
1696,1.37
1713,1.58
1730,1.72
1747,1.90
1764,1.84
1782,1.72
1800,1.62
1818,1.55
1836,1.50
1854,1.60
1873,1.77
1892,1.97
1911,1.78
1930,1.77
1949,1.71
1969,1.70
1988,1.65
2008,1.65
2028,1.79
2048,1.81
2069,1.67
2090,1.71
2111,1.64
2132,1.75
2153,1.92
2175,2.04
2196,2.30
2218,2.34
2240,2.41
2263,2.48
2285,2.59
2308,2.76
2331,2.71
2355,2.70
2378,2.57
2402,2.38
2426,2.13
2450,2.28
2475,2.29
2500,2.31
2525,2.31
2550,2.46
2575,2.57
2601,2.65
2627,2.81
2653,2.79
2680,2.88
2707,2.95
2734,3.02
2761,3.23
2789,3.33
2817,3.23
2845,2.86
2873,2.22
2902,2.05
2931,1.47
2960,1.46
2990,1.51
3020,1.98
3050,2.36
3080,2.70
3111,3.16
3142,2.97
3174,2.82
3206,2.56
3238,2.53
3270,2.54
3303,2.67
3336,2.83
3369,2.66
3403,2.32
3437,2.22
3471,2.13
3506,1.97
3541,1.65
3576,2.26
3612,2.72
3648,2.94
3685,3.50
3721,3.64
3759,3.71
3796,3.86
3834,4.29
3873,4.59
3911,5.17
3950,5.09
3990,5.46
4030,5.53
4070,5.70
4111,5.68
4152,5.69
4193,5.62
4235,5.42
4278,5.04
4321,4.51
4364,3.91
4407,3.72
4451,3.40
4496,2.90
4541,2.75
4586,2.70
4632,2.92
4679,2.95
4725,2.74
4773,2.59
4820,2.07
4868,1.44
4917,1.09
4966,0.45
5016,0.51
5066,0.44
5117,0.04
5168,-0.73
5220,-1.37
5272,-1.79
5325,-2.00
5378,-1.82
5432,-2.06
5486,-2.25
5541,-3.26
5596,-4.49
5652,-6.22
5709,-7.55
5766,-8.92
5823,-9.76
5882,-9.67
5940,-9.75
6000,-9.39
6060,-8.54
6120,-7.50
6182,-7.52
6244,-7.12
6306,-6.72
6369,-8.13
6433,-9.37
6497,-8.66
6562,-8.46
6628,-8.81
6694,-8.71
6761,-8.10
6828,-7.63
6897,-7.42
6966,-7.35
7035,-7.86
7106,-7.74
7177,-6.45
7249,-6.01
7321,-6.13
7394,-5.60
7468,-5.09
7543,-4.88
7618,-4.68
7694,-4.92
7771,-4.81
7849,-4.40
7928,-3.77
8007,-3.01
8087,-2.18
8168,-1.42
8250,-0.45
8332,0.88
8415,1.74
8499,2.39
8584,2.61
8670,1.55
8757,1.17
8845,1.07
8933,1.30
9022,1.73
9113,2.68
9204,3.05
9296,4.01
9389,3.56
9483,3.38
9577,3.75
9673,4.05
9770,3.78
9868,3.14
9966,2.02
10066,-0.10
10167,-1.41
10268,-1.53
10371,-1.92
10475,-1.09
10579,-0.94
10685,-1.00
10792,-1.19
10900,-1.21
11009,-1.63
11119,-2.60
11230,-2.99
11343,-3.44
11456,-3.93
11571,-4.43
11686,-4.39
11803,-4.65
11921,-5.82
12040,-7.12
12161,-8.09
12282,-9.56
12405,-10.95
12529,-12.28
12655,-13.35
12781,-11.83
12909,-12.33
13038,-14.59
13168,-16.16
13300,-16.94
13433,-17.02
13567,-16.52
13703,-17.48
13840,-18.51
13978,-19.18
14118,-18.05
14259,-17.46
14402,-17.50
14546,-18.13
14692,-18.85
14838,-18.88
14987,-17.95
15137,-16.66
15288,-15.95
15441,-15.44
15595,-15.62
15751,-15.51
15909,-15.51
16068,-16.08
16229,-16.32
16391,-16.85
16555,-16.50
16720,-16.82
16888,-17.52
17056,-18.32
17227,-18.13
17399,-18.57
17573,-19.16
17749,-19.10
17926,-19.49
18106,-20.59
18287,-21.93
18470,-23.58
18654,-23.08
18841,-23.54
19029,-22.63
19220,-23.98
19412,-26.05
19606,-27.01
19802,-26.03
20000,-25.02
