frequency,raw
20.00,-2.80
20.20,-2.79
20.40,-2.75
20.61,-2.69
20.81,-2.63
21.02,-2.60
21.23,-2.54
21.44,-2.51
21.66,-2.47
21.87,-2.43
22.09,-2.40
22.31,-2.35
22.54,-2.30
22.76,-2.26
22.99,-2.19
23.22,-2.13
23.45,-2.07
23.69,-2.03
23.92,-1.98
24.16,-1.93
24.40,-1.89
24.65,-1.85
24.89,-1.79
25.14,-1.76
25.39,-1.73
25.65,-1.68
25.91,-1.64
26.16,-1.61
26.43,-1.56
26.69,-1.51
26.96,-1.47
27.23,-1.44
27.50,-1.40
27.77,-1.36
28.05,-1.32
28.33,-1.29
28.62,-1.26
28.90,-1.23
29.19,-1.20
29.48,-1.16
29.78,-1.12
30.08,-1.08
30.38,-1.05
30.68,-1.02
30.99,-0.99
31.30,-0.96
31.61,-0.93
31.93,-0.90
32.24,-0.88
32.57,-0.84
32.89,-0.80
33.22,-0.79
33.55,-0.74
33.89,-0.73
34.23,-0.70
34.57,-0.67
34.92,-0.65
35.27,-0.61
35.62,-0.58
35.97,-0.56
36.33,-0.52
36.70,-0.51
37.06,-0.48
37.43,-0.47
37.81,-0.42
38.19,-0.41
38.57,-0.37
38.95,-0.36
39.34,-0.33
39.74,-0.31
40.14,-0.28
40.54,-0.26
40.94,-0.23
41.35,-0.22
41.76,-0.19
42.18,-0.19
42.60,-0.14
43.03,-0.14
43.46,-0.10
43.90,-0.09
44.33,-0.09
44.78,-0.05
45.23,-0.05
45.68,-0.01
46.13,0.00
46.60,0.00
47.06,0.05
47.53,0.05
48.01,0.05
48.49,0.09
48.97,0.09
49.46,0.09
49.96,0.14
50.46,0.14
50.96,0.14
51.47,0.15
51.99,0.19
52.51,0.19
53.03,0.19
53.56,0.19
54.10,0.21
54.64,0.23
55.18,0.23
55.74,0.23
56.29,0.23
56.86,0.23
57.42,0.26
58.00,0.28
58.58,0.28
59.16,0.28
59.76,0.28
60.35,0.28
60.96,0.28
61.57,0.28
62.18,0.30
62.80,0.30
63.43,0.33
64.07,0.33
64.71,0.33
65.35,0.33
66.01,0.33
66.67,0.33
67.33,0.33
68.01,0.33
68.69,0.33
69.37,0.33
70.07,0.33
70.77,0.33
71.48,0.33
72.19,0.33
72.91,0.33
73.64,0.33
74.38,0.33
75.12,0.33
75.87,0.33
76.63,0.33
77.40,0.33
78.17,0.33
78.95,0.33
79.74,0.36
80.54,0.37
81.35,0.37
82.16,0.37
82.98,0.37
83.81,0.37
84.65,0.40
85.50,0.42
86.35,0.42
87.22,0.42
88.09,0.42
88.97,0.47
89.86,0.47
90.76,0.47
91.66,0.47
92.58,0.51
93.51,0.51
94.44,0.51
95.39,0.51
96.34,0.55
97.30,0.56
98.28,0.56
99.26,0.56
100.25,0.56
101.25,0.61
102.27,0.61
103.29,0.61
104.32,0.61
105.37,0.61
106.42,0.65
107.48,0.65
108.56,0.65
109.64,0.65
110.74,0.65
111.85,0.69
112.97,0.70
114.10,0.70
115.24,0.70
116.39,0.70
117.55,0.71
118.73,0.74
119.92,0.74
121.12,0.74
122.33,0.74
123.55,0.74
124.79,0.74
126.03,0.74
127.29,0.77
128.57,0.78
129.85,0.79
131.15,0.79
132.46,0.79
133.79,0.79
135.12,0.79
136.48,0.79
137.84,0.79
139.22,0.84
140.61,0.84
142.02,0.84
143.44,0.84
144.87,0.84
146.32,0.84
147.78,0.88
149.26,0.88
150.75,0.88
152.26,0.88
153.78,0.88
155.32,0.93
156.88,0.93
158.44,0.93
160.03,0.93
161.63,0.93
163.24,0.93
164.88,0.93
166.53,0.95
168.19,0.95
169.87,0.98
171.57,0.98
173.29,0.98
175.02,0.98
176.77,0.98
178.54,0.98
180.32,0.98
182.13,0.98
183.95,0.98
185.79,0.98
187.65,0.98
189.52,0.98
191.42,0.98
193.33,0.98
195.27,0.98
197.22,0.98
199.19,0.98
201.18,0.98
203.19,0.98
205.23,0.98
207.28,0.98
209.35,0.98
211.44,0.98
213.56,0.98
215.69,0.98
217.85,0.98
220.03,0.98
222.23,0.98
224.45,0.98
226.70,0.98
228.96,0.98
231.25,0.98
233.57,0.98
235.90,0.98
238.26,0.98
240.64,0.98
243.05,0.98
245.48,0.98
247.93,0.98
250.41,0.98
252.92,0.98
255.45,0.98
258.00,0.98
260.58,0.98
263.19,0.95
265.82,0.93
268.48,0.93
271.16,0.93
273.87,0.93
276.61,0.93
279.38,0.93
282.17,0.93
284.99,0.90
287.84,0.88
290.72,0.88
293.63,0.88
296.57,0.88
299.53,0.88
302.53,0.88
305.55,0.88
308.61,0.86
311.69,0.84
314.81,0.84
317.96,0.84
321.14,0.84
324.35,0.84
327.59,0.84
330.87,0.84
334.18,0.84
337.52,0.84
340.90,0.84
344.30,0.84
347.75,0.82
351.23,0.81
354.74,0.80
358.28,0.79
361.87,0.79
365.49,0.79
369.14,0.79
372.83,0.79
376.56,0.78
380.33,0.74
384.13,0.74
387.97,0.74
391.85,0.74
395.77,0.70
399.73,0.70
403.72,0.70
407.76,0.65
411.84,0.65
415.96,0.65
420.12,0.64
424.32,0.61
428.56,0.61
432.85,0.61
437.18,0.56
441.55,0.56
445.96,0.56
450.42,0.54
454.93,0.51
459.48,0.51
464.07,0.51
468.71,0.51
473.40,0.47
478.13,0.47
482.91,0.47
487.74,0.47
492.62,0.45
497.55,0.42
502.52,0.42
507.55,0.42
512.62,0.42
517.75,0.41
522.93,0.38
528.16,0.37
533.44,0.37
538.77,0.37
544.16,0.37
549.60,0.37
555.10,0.37
560.65,0.35
566.25,0.33
571.92,0.33
577.64,0.33
583.41,0.33
589.25,0.28
595.14,0.28
601.09,0.28
607.10,0.28
613.17,0.28
619.30,0.23
625.50,0.23
631.75,0.23
638.07,0.23
644.45,0.23
650.89,0.23
657.40,0.19
663.98,0.19
670.62,0.19
677.32,0.19
684.10,0.14
690.94,0.14
697.85,0.14
704.83,0.09
711.87,0.09
718.99,0.08
726.18,0.05
733.44,0.05
740.78,0.03
748.19,0.00
755.67,0.00
763.23,-0.02
770.86,-0.02
778.57,-0.02
786.35,0.00
794.22,0.00
802.16,0.05
810.18,0.06
818.28,0.09
826.46,0.09
834.73,0.14
843.08,0.14
851.51,0.14
860.02,0.14
868.62,0.14
877.31,0.14
886.08,0.13
894.94,0.09
903.89,0.09
912.93,0.09
922.06,0.09
931.28,0.07
940.59,0.05
950.00,0.05
959.50,0.05
969.09,0.05
978.78,0.03
988.57,0.00
998.46,0.00
1008.44,0.00
1018.53,-0.05
1028.71,-0.05
1039.00,-0.05
1049.39,-0.09
1059.88,-0.09
1070.48,-0.14
1081.19,-0.17
1092.00,-0.19
1102.92,-0.23
1113.95,-0.26
1125.09,-0.29
1136.34,-0.32
1147.70,-0.35
1159.18,-0.40
1170.77,-0.44
1182.48,-0.47
1194.30,-0.51
1206.25,-0.56
1218.31,-0.61
1230.49,-0.64
1242.80,-0.67
1255.22,-0.70
1267.78,-0.74
1280.45,-0.77
1293.26,-0.79
1306.19,-0.79
1319.25,-0.81
1332.45,-0.81
1345.77,-0.79
1359.23,-0.79
1372.82,-0.79
1386.55,-0.79
1400.41,-0.77
1414.42,-0.74
1428.56,-0.74
1442.85,-0.74
1457.28,-0.74
1471.85,-0.70
1486.57,-0.70
1501.43,-0.65
1516.45,-0.61
1531.61,-0.58
1546.93,-0.55
1562.40,-0.51
1578.02,-0.47
1593.80,-0.46
1609.74,-0.42
1625.84,-0.42
1642.10,-0.37
1658.52,-0.37
1675.10,-0.37
1691.85,-0.36
1708.77,-0.33
1725.86,-0.33
1743.12,-0.28
1760.55,-0.24
1778.15,-0.21
1795.94,-0.15
1813.90,-0.09
1832.03,-0.02
1850.36,0.05
1868.86,0.12
1887.55,0.19
1906.42,0.26
1925.49,0.36
1944.74,0.44
1964.19,0.55
1983.83,0.66
2003.67,0.79
2023.71,0.93
2043.94,1.09
2064.38,1.26
2085.03,1.44
2105.88,1.63
2126.94,1.84
2148.20,2.06
2169.69,2.25
2191.38,2.47
2213.30,2.69
2235.43,2.90
2257.78,3.10
2280.36,3.31
2303.17,3.49
2326.20,3.68
2349.46,3.85
2372.95,4.05
2396.68,4.24
2420.65,4.41
2444.86,4.60
2469.31,4.80
2494.00,4.97
2518.94,5.15
2544.13,5.31
2569.57,5.51
2595.27,5.70
2621.22,5.87
2647.43,6.04
2673.90,6.22
2700.64,6.36
2727.65,6.52
2754.93,6.68
2782.48,6.80
2810.30,6.93
2838.40,7.02
2866.79,7.10
2895.46,7.16
2924.41,7.21
2953.65,7.24
2983.19,7.26
3013.02,7.22
3043.15,7.19
3073.58,7.10
3104.32,6.99
3135.36,6.86
3166.72,6.70
3198.38,6.51
3230.37,6.28
3262.67,6.05
3295.30,5.82
3328.25,5.57
3361.53,5.30
3395.15,5.03
3429.10,4.78
3463.39,4.51
3498.03,4.26
3533.01,4.07
3568.34,3.88
3604.02,3.73
3640.06,3.60
3676.46,3.49
3713.22,3.45
3750.36,3.40
3787.86,3.41
3825.74,3.48
3864.00,3.59
3902.64,3.76
3941.66,3.98
3981.08,4.26
4020.89,4.62
4061.10,4.97
4101.71,5.38
4142.73,5.82
4184.15,6.21
4226.00,6.57
4268.26,6.90
4310.94,7.15
4354.05,7.34
4397.59,7.48
4441.56,7.56
4485.98,7.58
4530.84,7.53
4576.15,7.46
4621.91,7.37
4668.13,7.26
4714.81,7.15
4761.96,7.02
4809.58,6.91
4857.67,6.78
4906.25,6.65
4955.31,6.53
5004.87,6.41
5054.91,6.30
5105.46,6.21
5156.52,6.11
5208.08,6.00
5260.16,5.91
5312.77,5.80
5365.89,5.69
5419.55,5.56
5473.75,5.41
5528.49,5.22
5583.77,5.01
5639.61,4.74
5696.00,4.46
5752.96,4.10
5810.49,3.68
5868.60,3.21
5927.28,2.71
5986.56,2.19
6046.42,1.62
6106.89,1.08
6167.96,0.51
6229.64,0.02
6291.93,-0.45
6354.85,-0.85
6418.40,-1.15
6482.58,-1.35
6547.41,-1.44
6612.88,-1.39
6679.01,-1.29
6745.80,-1.15
6813.26,-0.99
6881.39,-0.87
6950.21,-0.77
7019.71,-0.70
7089.91,-0.76
7160.81,-0.81
7232.41,-0.86
7304.74,-0.90
7377.79,-0.93
7451.56,-0.90
7526.08,-0.82
7601.34,-0.70
7677.35,-0.54
7754.13,-0.34
7831.67,-0.14
7909.98,0.07
7989.08,0.25
8068.98,0.42
8149.67,0.50
8231.16,0.44
8313.47,0.24
8396.61,-0.15
8480.57,-0.70
8565.38,-1.43
8651.03,-2.35
8737.54,-3.45
8824.92,-4.69
8913.17,-6.01
9002.30,-7.35
9092.32,-8.65
9183.25,-9.80
9275.08,-10.75
9367.83,-11.47
9461.51,-11.92
9556.12,-12.11
9651.68,-11.87
9748.20,-11.45
9845.68,-10.89
9944.14,-10.22
10043.58,-9.51
10144.02,-8.83
10245.46,-8.22
10347.91,-7.72
10451.39,-7.35
10555.91,-7.10
10661.46,-7.02
10768.08,-7.20
10875.76,-7.52
10984.52,-8.00
11094.36,-8.60
11205.31,-9.25
11317.36,-9.94
11430.53,-10.50
11544.84,-10.92
11660.29,-11.22
11776.89,-11.16
11894.66,-10.84
12013.60,-10.42
12133.74,-9.90
12255.08,-9.28
12377.63,-8.67
12501.41,-8.02
12626.42,-7.41
12752.68,-6.84
12880.21,-6.30
13009.01,-5.81
13139.10,-5.43
13270.49,-5.09
13403.20,-4.84
13537.23,-4.68
13672.60,-4.63
13809.33,-4.58
13947.42,-4.50
14086.90,-4.37
14227.77,-4.23
14370.04,-4.07
14513.74,-3.92
14658.88,-3.84
14805.47,-3.95
14953.52,-4.14
15103.06,-4.39
15254.09,-4.76
15406.63,-5.17
15560.70,-5.60
15716.30,-6.07
15873.47,-6.54
16032.20,-6.95
16192.52,-7.38
16354.45,-7.80
16517.99,-8.24
16683.17,-8.69
16850.01,-9.25
17018.51,-9.85
17188.69,-10.55
17360.58,-11.35
17534.18,-12.17
17709.53,-13.04
17886.62,-13.85
18065.49,-14.55
18246.14,-15.04
18428.60,-15.37
18612.89,-15.42
18799.02,-15.25
18987.01,-14.99
19176.88,-14.72
19368.65,-14.42
19562.33,-14.18
19757.96,-14.00
19955.54,-13.87
