frequency,raw
20.00,-10.38
20.20,-10.32
20.40,-10.26
20.61,-10.15
20.81,-10.04
21.02,-9.93
21.23,-9.82
21.44,-9.71
21.66,-9.61
21.87,-9.50
22.09,-9.36
22.31,-9.25
22.54,-9.11
22.76,-8.99
22.99,-8.86
23.22,-8.73
23.45,-8.59
23.69,-8.49
23.92,-8.38
24.16,-8.27
24.40,-8.16
24.65,-8.05
24.89,-7.94
25.14,-7.81
25.39,-7.68
25.65,-7.55
25.91,-7.43
26.16,-7.29
26.43,-7.17
26.69,-7.04
26.96,-6.93
27.23,-6.82
27.50,-6.71
27.77,-6.60
28.05,-6.50
28.33,-6.39
28.62,-6.28
28.90,-6.17
29.19,-6.06
29.48,-5.95
29.78,-5.84
30.08,-5.74
30.38,-5.65
30.68,-5.54
30.99,-5.43
31.30,-5.34
31.61,-5.24
31.93,-5.13
32.24,-5.02
32.57,-4.93
32.89,-4.82
33.22,-4.76
33.55,-4.65
33.89,-4.58
34.23,-4.48
34.57,-4.42
34.92,-4.32
35.27,-4.25
35.62,-4.19
35.97,-4.09
36.33,-4.02
36.70,-3.93
37.06,-3.86
37.43,-3.78
37.81,-3.70
38.19,-3.62
38.57,-3.55
38.95,-3.47
39.34,-3.39
39.74,-3.31
40.14,-3.23
40.54,-3.16
40.94,-3.08
41.35,-3.00
41.76,-2.94
42.18,-2.87
42.60,-2.81
43.03,-2.75
43.46,-2.69
43.90,-2.63
44.33,-2.60
44.78,-2.54
45.23,-2.49
45.68,-2.46
46.13,-2.42
46.60,-2.38
47.06,-2.34
47.53,-2.31
48.01,-2.28
48.49,-2.24
48.97,-2.24
49.46,-2.19
49.96,-2.19
50.46,-2.17
50.96,-2.14
51.47,-2.14
51.99,-2.10
52.51,-2.10
53.03,-2.10
53.56,-2.10
54.10,-2.10
54.64,-2.10
55.18,-2.10
55.74,-2.10
56.29,-2.11
56.86,-2.14
57.42,-2.15
58.00,-2.20
58.58,-2.26
59.16,-2.31
59.76,-2.35
60.35,-2.42
60.96,-2.49
61.57,-2.54
62.18,-2.59
62.80,-2.64
63.43,-2.66
64.07,-2.66
64.71,-2.62
65.35,-2.53
66.01,-2.45
66.67,-2.32
67.33,-2.19
68.01,-2.05
68.69,-1.94
69.37,-1.84
70.07,-1.75
70.77,-1.69
71.48,-1.63
72.19,-1.63
72.91,-1.58
73.64,-1.58
74.38,-1.58
75.12,-1.53
75.87,-1.48
76.63,-1.42
77.40,-1.34
78.17,-1.23
78.95,-1.14
79.74,-1.03
80.54,-0.95
81.35,-0.84
82.16,-0.78
82.98,-0.72
83.81,-0.65
84.65,-0.62
85.50,-0.57
86.35,-0.54
87.22,-0.51
88.09,-0.51
88.97,-0.49
89.86,-0.50
90.76,-0.51
91.66,-0.51
92.58,-0.54
93.51,-0.56
94.44,-0.56
95.39,-0.61
96.34,-0.61
97.30,-0.61
98.28,-0.61
99.26,-0.61
100.25,-0.61
101.25,-0.61
102.27,-0.61
103.29,-0.61
104.32,-0.64
105.37,-0.65
106.42,-0.68
107.48,-0.70
108.56,-0.75
109.64,-0.77
110.74,-0.79
111.85,-0.83
112.97,-0.84
114.10,-0.89
115.24,-0.89
116.39,-0.93
117.55,-0.94
118.73,-0.98
119.92,-0.98
121.12,-1.03
122.33,-1.03
123.55,-1.03
124.79,-1.07
126.03,-1.07
127.29,-1.08
128.57,-1.12
129.85,-1.12
131.15,-1.12
132.46,-1.16
133.79,-1.16
135.12,-1.16
136.48,-1.21
137.84,-1.21
139.22,-1.21
140.61,-1.26
142.02,-1.26
143.44,-1.26
144.87,-1.30
146.32,-1.30
147.78,-1.31
149.26,-1.35
150.75,-1.35
152.26,-1.35
153.78,-1.40
155.32,-1.40
156.88,-1.40
158.44,-1.44
160.03,-1.44
161.63,-1.44
163.24,-1.49
164.88,-1.49
166.53,-1.49
168.19,-1.49
169.87,-1.51
171.57,-1.54
173.29,-1.54
175.02,-1.54
176.77,-1.54
178.54,-1.54
180.32,-1.54
182.13,-1.54
183.95,-1.58
185.79,-1.58
187.65,-1.58
189.52,-1.58
191.42,-1.58
193.33,-1.58
195.27,-1.58
197.22,-1.58
199.19,-1.58
201.18,-1.58
203.19,-1.58
205.23,-1.58
207.28,-1.58
209.35,-1.61
211.44,-1.63
213.56,-1.63
215.69,-1.63
217.85,-1.63
220.03,-1.63
222.23,-1.63
224.45,-1.63
226.70,-1.65
228.96,-1.67
231.25,-1.68
233.57,-1.68
235.90,-1.68
238.26,-1.68
240.64,-1.68
243.05,-1.68
245.48,-1.68
247.93,-1.68
250.41,-1.68
252.92,-1.68
255.45,-1.68
258.00,-1.68
260.58,-1.68
263.19,-1.68
265.82,-1.68
268.48,-1.68
271.16,-1.65
273.87,-1.65
276.61,-1.65
279.38,-1.65
282.17,-1.65
284.99,-1.65
287.84,-1.65
290.72,-1.65
293.63,-1.65
296.57,-1.64
299.53,-1.63
302.53,-1.63
305.55,-1.63
308.61,-1.63
311.69,-1.63
314.81,-1.62
317.96,-1.58
321.14,-1.58
324.35,-1.58
327.59,-1.58
330.87,-1.54
334.18,-1.54
337.52,-1.54
340.90,-1.54
344.30,-1.54
347.75,-1.52
351.23,-1.49
354.74,-1.49
358.28,-1.49
361.87,-1.49
365.49,-1.48
369.14,-1.47
372.83,-1.44
376.56,-1.44
380.33,-1.44
384.13,-1.44
387.97,-1.44
391.85,-1.44
395.77,-1.44
399.73,-1.44
403.72,-1.40
407.76,-1.40
411.84,-1.38
415.96,-1.35
420.12,-1.30
424.32,-1.27
428.56,-1.23
432.85,-1.19
437.18,-1.14
441.55,-1.09
445.96,-1.04
450.42,-0.99
454.93,-0.95
459.48,-0.89
464.07,-0.85
468.71,-0.79
473.40,-0.76
478.13,-0.71
482.91,-0.68
487.74,-0.62
492.62,-0.59
497.55,-0.56
502.52,-0.53
507.55,-0.51
512.62,-0.47
517.75,-0.43
522.93,-0.42
528.16,-0.37
533.44,-0.37
538.77,-0.33
544.16,-0.33
549.60,-0.31
555.10,-0.28
560.65,-0.28
566.25,-0.28
571.92,-0.33
577.64,-0.33
583.41,-0.34
589.25,-0.37
595.14,-0.37
601.09,-0.42
607.10,-0.42
613.17,-0.42
619.30,-0.42
625.50,-0.42
631.75,-0.42
638.07,-0.42
644.45,-0.42
650.89,-0.42
657.40,-0.42
663.98,-0.42
670.62,-0.42
677.32,-0.45
684.10,-0.47
690.94,-0.47
697.85,-0.49
704.83,-0.51
711.87,-0.51
718.99,-0.51
726.18,-0.51
733.44,-0.51
740.78,-0.47
748.19,-0.47
755.67,-0.42
763.23,-0.42
770.86,-0.38
778.57,-0.37
786.35,-0.34
794.22,-0.33
802.16,-0.32
810.18,-0.28
818.28,-0.28
826.46,-0.27
834.73,-0.23
843.08,-0.23
851.51,-0.23
860.02,-0.19
868.62,-0.19
877.31,-0.19
886.08,-0.19
894.94,-0.14
903.89,-0.14
912.93,-0.14
922.06,-0.14
931.28,-0.09
940.59,-0.09
950.00,-0.05
959.50,-0.05
969.09,-0.02
978.78,-0.00
988.57,-0.00
998.46,-0.00
1008.44,0.00
1018.53,-0.00
1028.71,-0.00
1039.00,-0.00
1049.39,-0.00
1059.88,-0.00
1070.48,0.00
1081.19,-0.00
1092.00,-0.00
1102.92,-0.00
1113.95,0.05
1125.09,0.05
1136.34,0.05
1147.70,0.05
1159.18,0.05
1170.77,0.03
1182.48,-0.01
1194.30,-0.04
1206.25,-0.07
1218.31,-0.10
1230.49,-0.15
1242.80,-0.18
1255.22,-0.24
1267.78,-0.28
1280.45,-0.32
1293.26,-0.33
1306.19,-0.33
1319.25,-0.37
1332.45,-0.40
1345.77,-0.43
1359.23,-0.47
1372.82,-0.47
1386.55,-0.47
1400.41,-0.49
1414.42,-0.51
1428.56,-0.51
1442.85,-0.51
1457.28,-0.46
1471.85,-0.43
1486.57,-0.37
1501.43,-0.34
1516.45,-0.30
1531.61,-0.28
1546.93,-0.25
1562.40,-0.21
1578.02,-0.16
1593.80,-0.14
1609.74,-0.14
1625.84,-0.14
1642.10,-0.06
1658.52,-0.02
1675.10,0.07
1691.85,0.09
1708.77,0.09
1725.86,0.12
1743.12,0.17
1760.55,0.23
1778.15,0.30
1795.94,0.36
1813.90,0.45
1832.03,0.53
1850.36,0.67
1868.86,0.81
1887.55,0.95
1906.42,1.06
1925.49,1.17
1944.74,1.28
1964.19,1.39
1983.83,1.52
2003.67,1.58
2023.71,1.69
2043.94,1.80
2064.38,1.89
2085.03,2.02
2105.88,2.16
2126.94,2.31
2148.20,2.45
2169.69,2.63
2191.38,2.82
2213.30,3.06
2235.43,3.29
2257.78,3.54
2280.36,3.78
2303.17,4.06
2326.20,4.31
2349.46,4.61
2372.95,4.88
2396.68,5.15
2420.65,5.45
2444.86,5.74
2469.31,6.04
2494.00,6.34
2518.94,6.65
2544.13,6.97
2569.57,7.28
2595.27,7.56
2621.22,7.86
2647.43,8.12
2673.90,8.38
2700.64,8.63
2727.65,8.84
2754.93,9.06
2782.48,9.30
2810.30,9.47
2838.40,9.67
2866.79,9.86
2895.46,10.05
2924.41,10.21
2953.65,10.37
2983.19,10.54
3013.02,10.66
3043.15,10.79
3073.58,10.89
3104.32,10.99
3135.36,11.07
3166.72,11.13
3198.38,11.20
3230.37,11.26
3262.67,11.32
3295.30,11.38
3328.25,11.42
3361.53,11.46
3395.15,11.46
3429.10,11.46
3463.39,11.46
3498.03,11.44
3533.01,11.39
3568.34,11.31
3604.02,11.24
3640.06,11.18
3676.46,11.07
3713.22,11.01
3750.36,10.90
3787.86,10.80
3825.74,10.70
3864.00,10.59
3902.64,10.46
3941.66,10.35
3981.08,10.20
4020.89,10.08
4061.10,9.93
4101.71,9.78
4142.73,9.64
4184.15,9.51
4226.00,9.36
4268.26,9.25
4310.94,9.10
4354.05,8.96
4397.59,8.77
4441.56,8.61
4485.98,8.37
4530.84,8.14
4576.15,7.85
4621.91,7.55
4668.13,7.22
4714.81,6.83
4761.96,6.42
4809.58,5.97
4857.67,5.50
4906.25,4.98
4955.31,4.47
5004.87,3.97
5054.91,3.48
5105.46,3.06
5156.52,2.66
5208.08,2.31
5260.16,2.06
5312.77,1.85
5365.89,1.69
5419.55,1.57
5473.75,1.52
5528.49,1.49
5583.77,1.49
5639.61,1.51
5696.00,1.54
5752.96,1.58
5810.49,1.60
5868.60,1.63
5927.28,1.63
5986.56,1.68
6046.42,1.71
6106.89,1.72
6167.96,1.72
6229.64,1.72
6291.93,1.68
6354.85,1.66
6418.40,1.60
6482.58,1.51
6547.41,1.44
6612.88,1.34
6679.01,1.27
6745.80,1.21
6813.26,1.16
6881.39,1.13
6950.21,1.12
7019.71,1.07
7089.91,1.07
7160.81,1.07
7232.41,1.07
7304.74,1.09
7377.79,1.12
7451.56,1.19
7526.08,1.27
7601.34,1.37
7677.35,1.47
7754.13,1.55
7831.67,1.63
7909.98,1.63
7989.08,1.58
8068.98,1.47
8149.67,1.24
8231.16,0.90
8313.47,0.47
8396.61,-0.08
8480.57,-0.81
8565.38,-1.73
8651.03,-2.89
8737.54,-4.23
8824.92,-5.71
8913.17,-7.21
9002.30,-8.65
9092.32,-9.89
9183.25,-10.84
9275.08,-11.47
9367.83,-11.79
9461.51,-11.43
9556.12,-10.88
9651.68,-10.14
9748.20,-9.29
9845.68,-8.38
9944.14,-7.50
10043.58,-6.72
10144.02,-5.99
10245.46,-5.38
10347.91,-4.88
10451.39,-4.50
10555.91,-4.22
10661.46,-4.04
10768.08,-3.92
10875.76,-3.98
10984.52,-4.05
11094.36,-4.17
11205.31,-4.29
11317.36,-4.40
11430.53,-4.47
11544.84,-4.42
11660.29,-4.28
11776.89,-4.07
11894.66,-3.82
12013.60,-3.54
12133.74,-3.25
12255.08,-3.00
12377.63,-2.82
12501.41,-2.77
12626.42,-2.92
12752.68,-3.18
12880.21,-3.58
13009.01,-4.14
13139.10,-4.81
13270.49,-5.59
13403.20,-6.50
13537.23,-7.49
13672.60,-8.56
13809.33,-9.73
13947.42,-10.87
14086.90,-11.94
14227.77,-12.86
14370.04,-13.52
14513.74,-13.90
14658.88,-13.93
14805.47,-13.61
14953.52,-13.11
15103.06,-12.49
15254.09,-11.82
15406.63,-11.24
15560.70,-10.73
15716.30,-10.40
15873.47,-10.16
16032.20,-10.01
16192.52,-9.89
16354.45,-9.81
16517.99,-9.79
16683.17,-9.88
16850.01,-10.07
17018.51,-10.39
17188.69,-10.83
17360.58,-11.40
17534.18,-12.13
17709.53,-12.95
17886.62,-13.81
18065.49,-14.65
18246.14,-15.37
18428.60,-15.98
18612.89,-16.40
18799.02,-16.68
18987.01,-16.78
19176.88,-16.65
19368.65,-16.48
19562.33,-16.28
19757.96,-16.11
19955.54,-15.98
