frequency,raw
20.00,-19.65
20.20,-19.57
20.40,-19.45
20.61,-19.29
20.81,-19.13
21.02,-18.96
21.23,-18.79
21.44,-18.64
21.66,-18.48
21.87,-18.33
22.09,-18.17
22.31,-18.01
22.54,-17.86
22.76,-17.70
22.99,-17.54
23.22,-17.39
23.45,-17.24
23.69,-17.10
23.92,-16.93
24.16,-16.77
24.40,-16.59
24.65,-16.42
24.89,-16.23
25.14,-16.06
25.39,-15.89
25.65,-15.72
25.91,-15.54
26.16,-15.39
26.43,-15.25
26.69,-15.10
26.96,-14.97
27.23,-14.83
27.50,-14.68
27.77,-14.57
28.05,-14.41
28.33,-14.30
28.62,-14.15
28.90,-14.04
29.19,-13.89
29.48,-13.74
29.78,-13.62
30.08,-13.47
30.38,-13.32
30.68,-13.20
30.99,-13.06
31.30,-12.94
31.61,-12.80
31.93,-12.67
32.24,-12.54
32.57,-12.43
32.89,-12.31
33.22,-12.17
33.55,-12.06
33.89,-11.95
34.23,-11.84
34.57,-11.73
34.92,-11.62
35.27,-11.51
35.62,-11.40
35.97,-11.29
36.33,-11.19
36.70,-11.08
37.06,-10.97
37.43,-10.84
37.81,-10.73
38.19,-10.62
38.57,-10.53
38.95,-10.42
39.34,-10.31
39.74,-10.21
40.14,-10.10
40.54,-10.00
40.94,-9.90
41.35,-9.79
41.76,-9.71
42.18,-9.60
42.60,-9.51
43.03,-9.40
43.46,-9.30
43.90,-9.23
44.33,-9.12
44.78,-9.06
45.23,-8.95
45.68,-8.87
46.13,-8.78
46.60,-8.70
47.06,-8.62
47.53,-8.55
48.01,-8.49
48.49,-8.41
48.97,-8.34
49.46,-8.28
49.96,-8.21
50.46,-8.15
50.96,-8.09
51.47,-8.03
51.99,-7.96
52.51,-7.88
53.03,-7.81
53.56,-7.71
54.10,-7.65
54.64,-7.54
55.18,-7.47
55.74,-7.36
56.29,-7.27
56.86,-7.17
57.42,-7.08
58.00,-6.98
58.58,-6.89
59.16,-6.80
59.76,-6.70
60.35,-6.59
60.96,-6.50
61.57,-6.39
62.18,-6.28
62.80,-6.17
63.43,-6.07
64.07,-5.96
64.71,-5.85
65.35,-5.74
66.01,-5.63
66.67,-5.52
67.33,-5.41
68.01,-5.33
68.69,-5.22
69.37,-5.14
70.07,-5.05
70.77,-4.97
71.48,-4.89
72.19,-4.81
72.91,-4.76
73.64,-4.69
74.38,-4.65
75.12,-4.59
75.87,-4.54
76.63,-4.48
77.40,-4.45
78.17,-4.40
78.95,-4.37
79.74,-4.32
80.54,-4.28
81.35,-4.23
82.16,-4.20
82.98,-4.14
83.81,-4.11
84.65,-4.06
85.50,-4.03
86.35,-3.97
87.22,-3.94
88.09,-3.91
88.97,-3.88
89.86,-3.83
90.76,-3.82
91.66,-3.78
92.58,-3.75
93.51,-3.74
94.44,-3.69
95.39,-3.69
96.34,-3.64
97.30,-3.64
98.28,-3.60
99.26,-3.60
100.25,-3.55
101.25,-3.55
102.27,-3.51
103.29,-3.50
104.32,-3.46
105.37,-3.46
106.42,-3.41
107.48,-3.40
108.56,-3.36
109.64,-3.34
110.74,-3.32
111.85,-3.30
112.97,-3.27
114.10,-3.26
115.24,-3.22
116.39,-3.22
117.55,-3.18
118.73,-3.16
119.92,-3.13
121.12,-3.10
122.33,-3.08
123.55,-3.04
124.79,-3.03
126.03,-2.99
127.29,-2.97
128.57,-2.94
129.85,-2.90
131.15,-2.90
132.46,-2.85
133.79,-2.85
135.12,-2.81
136.48,-2.81
137.84,-2.81
139.22,-2.76
140.61,-2.76
142.02,-2.76
143.44,-2.71
144.87,-2.71
146.32,-2.71
147.78,-2.67
149.26,-2.67
150.75,-2.67
152.26,-2.66
153.78,-2.62
155.32,-2.62
156.88,-2.62
158.44,-2.57
160.03,-2.57
161.63,-2.57
163.24,-2.55
164.88,-2.53
166.53,-2.53
168.19,-2.49
169.87,-2.48
171.57,-2.48
173.29,-2.43
175.02,-2.43
176.77,-2.41
178.54,-2.39
180.32,-2.39
182.13,-2.34
183.95,-2.34
185.79,-2.29
187.65,-2.29
189.52,-2.25
191.42,-2.25
193.33,-2.22
195.27,-2.20
197.22,-2.20
199.19,-2.15
201.18,-2.15
203.19,-2.13
205.23,-2.11
207.28,-2.11
209.35,-2.07
211.44,-2.06
213.56,-2.06
215.69,-2.01
217.85,-2.01
220.03,-1.98
222.23,-1.97
224.45,-1.94
226.70,-1.92
228.96,-1.92
231.25,-1.87
233.57,-1.87
235.90,-1.87
238.26,-1.83
240.64,-1.83
243.05,-1.83
245.48,-1.83
247.93,-1.83
250.41,-1.87
252.92,-1.87
255.45,-1.91
258.00,-1.94
260.58,-1.97
263.19,-2.00
265.82,-2.06
268.48,-2.09
271.16,-2.12
273.87,-2.15
276.61,-2.15
279.38,-2.20
282.17,-2.20
284.99,-2.15
287.84,-2.15
290.72,-2.13
293.63,-2.10
296.57,-2.07
299.53,-2.04
302.53,-1.98
305.55,-1.95
308.61,-1.92
311.69,-1.87
314.81,-1.83
317.96,-1.80
321.14,-1.77
324.35,-1.74
327.59,-1.71
330.87,-1.66
334.18,-1.62
337.52,-1.57
340.90,-1.52
344.30,-1.48
347.75,-1.41
351.23,-1.34
354.74,-1.27
358.28,-1.20
361.87,-1.15
365.49,-1.10
369.14,-1.06
372.83,-1.03
376.56,-1.03
380.33,-1.03
384.13,-1.03
387.97,-1.06
391.85,-1.10
395.77,-1.16
399.73,-1.23
403.72,-1.29
407.76,-1.34
411.84,-1.37
415.96,-1.41
420.12,-1.45
424.32,-1.45
428.56,-1.45
432.85,-1.50
437.18,-1.54
441.55,-1.57
445.96,-1.63
450.42,-1.69
454.93,-1.78
459.48,-1.87
464.07,-1.97
468.71,-2.08
473.40,-2.19
478.13,-2.30
482.91,-2.39
487.74,-2.47
492.62,-2.52
497.55,-2.57
502.52,-2.53
507.55,-2.51
512.62,-2.45
517.75,-2.37
522.93,-2.28
528.16,-2.17
533.44,-2.06
538.77,-1.96
544.16,-1.85
549.60,-1.74
555.10,-1.63
560.65,-1.52
566.25,-1.43
571.92,-1.33
577.64,-1.26
583.41,-1.18
589.25,-1.11
595.14,-1.08
601.09,-1.03
607.10,-1.03
613.17,-1.08
619.30,-1.11
625.50,-1.17
631.75,-1.27
638.07,-1.33
644.45,-1.42
650.89,-1.50
657.40,-1.56
663.98,-1.59
670.62,-1.61
677.32,-1.59
684.10,-1.57
690.94,-1.49
697.85,-1.39
704.83,-1.28
711.87,-1.12
718.99,-0.98
726.18,-0.83
733.44,-0.67
740.78,-0.55
748.19,-0.41
755.67,-0.28
763.23,-0.23
770.86,-0.19
778.57,-0.19
786.35,-0.21
794.22,-0.24
802.16,-0.27
810.18,-0.31
818.28,-0.35
826.46,-0.38
834.73,-0.35
843.08,-0.31
851.51,-0.26
860.02,-0.19
868.62,-0.11
877.31,0.02
886.08,0.13
894.94,0.24
903.89,0.35
912.93,0.46
922.06,0.50
931.28,0.48
940.59,0.44
950.00,0.37
959.50,0.31
969.09,0.20
978.78,0.13
988.57,0.06
998.46,0.00
1008.44,-0.03
1018.53,-0.05
1028.71,-0.09
1039.00,-0.10
1049.39,-0.10
1059.88,-0.10
1070.48,-0.08
1081.19,-0.02
1092.00,0.04
1102.92,0.13
1113.95,0.23
1125.09,0.30
1136.34,0.34
1147.70,0.41
1159.18,0.40
1170.77,0.32
1182.48,0.24
1194.30,0.13
1206.25,0.05
1218.31,-0.06
1230.49,-0.17
1242.80,-0.24
1255.22,-0.29
1267.78,-0.27
1280.45,-0.22
1293.26,-0.14
1306.19,-0.07
1319.25,0.04
1332.45,0.12
1345.77,0.23
1359.23,0.32
1372.82,0.37
1386.55,0.37
1400.41,0.32
1414.42,0.20
1428.56,0.07
1442.85,-0.14
1457.28,-0.36
1471.85,-0.60
1486.57,-0.82
1501.43,-1.00
1516.45,-1.14
1531.61,-1.24
1546.93,-1.26
1562.40,-1.23
1578.02,-1.15
1593.80,-1.09
1609.74,-1.03
1625.84,-1.03
1642.10,-1.07
1658.52,-1.13
1675.10,-1.22
1691.85,-1.32
1708.77,-1.38
1725.86,-1.36
1743.12,-1.27
1760.55,-1.11
1778.15,-0.90
1795.94,-0.68
1813.90,-0.41
1832.03,-0.15
1850.36,0.12
1868.86,0.34
1887.55,0.55
1906.42,0.70
1925.49,0.82
1944.74,0.88
1964.19,0.93
1983.83,0.93
2003.67,0.88
2023.71,0.85
2043.94,0.83
2064.38,0.79
2085.03,0.84
2105.88,0.87
2126.94,1.00
2148.20,1.14
2169.69,1.30
2191.38,1.51
2213.30,1.74
2235.43,2.00
2257.78,2.26
2280.36,2.54
2303.17,2.83
2326.20,3.12
2349.46,3.41
2372.95,3.67
2396.68,3.91
2420.65,4.11
2444.86,4.30
2469.31,4.47
2494.00,4.61
2518.94,4.69
2544.13,4.78
2569.57,4.80
2595.27,4.80
2621.22,4.80
2647.43,4.80
2673.90,4.80
2700.64,4.80
2727.65,4.87
2754.93,4.99
2782.48,5.18
2810.30,5.37
2838.40,5.57
2866.79,5.78
2895.46,6.00
2924.41,6.20
2953.65,6.39
2983.19,6.54
3013.02,6.67
3043.15,6.76
3073.58,6.84
3104.32,6.83
3135.36,6.78
3166.72,6.69
3198.38,6.60
3230.37,6.50
3262.67,6.41
3295.30,6.32
3328.25,6.26
3361.53,6.24
3395.15,6.24
3429.10,6.29
3463.39,6.32
3498.03,6.36
3533.01,6.41
3568.34,6.43
3604.02,6.43
3640.06,6.43
3676.46,6.39
3713.22,6.30
3750.36,6.21
3787.86,6.11
3825.74,6.00
3864.00,5.89
3902.64,5.78
3941.66,5.67
3981.08,5.56
4020.89,5.48
4061.10,5.39
4101.71,5.35
4142.73,5.31
4184.15,5.31
4226.00,5.31
4268.26,5.36
4310.94,5.40
4354.05,5.40
4397.59,5.39
4441.56,5.34
4485.98,5.23
4530.84,5.07
4576.15,4.90
4621.91,4.69
4668.13,4.51
4714.81,4.32
4761.96,4.21
4809.58,4.12
4857.67,4.18
4906.25,4.32
4955.31,4.51
5004.87,4.74
5054.91,4.98
5105.46,5.21
5156.52,5.35
5208.08,5.42
5260.16,5.25
5312.77,4.98
5365.89,4.55
5419.55,4.03
5473.75,3.39
5528.49,2.71
5583.77,2.02
5639.61,1.31
5696.00,0.71
5752.96,0.15
5810.49,-0.36
5868.60,-0.76
5927.28,-1.09
5986.56,-1.37
6046.42,-1.59
6106.89,-1.78
6167.96,-1.93
6229.64,-2.05
6291.93,-2.10
6354.85,-2.06
6418.40,-1.97
6482.58,-1.83
6547.41,-1.65
6612.88,-1.48
6679.01,-1.31
6745.80,-1.13
6813.26,-0.95
6881.39,-0.80
6950.21,-0.62
7019.71,-0.48
7089.91,-0.33
7160.81,-0.15
7232.41,0.02
7304.74,0.21
7377.79,0.41
7451.56,0.62
7526.08,0.87
7601.34,1.08
7677.35,1.35
7754.13,1.56
7831.67,1.74
7909.98,1.87
7989.08,1.87
8068.98,1.72
8149.67,1.47
8231.16,1.06
8313.47,0.49
8396.61,-0.27
8480.57,-1.13
8565.38,-2.14
8651.03,-3.23
8737.54,-4.33
8824.92,-5.45
8913.17,-6.43
9002.30,-7.31
9092.32,-7.88
9183.25,-8.24
9275.08,-8.26
9367.83,-7.98
9461.51,-7.51
9556.12,-6.95
9651.68,-6.28
9748.20,-5.52
9845.68,-4.90
9944.14,-4.41
10043.58,-3.90
10144.02,-3.67
10245.46,-3.48
10347.91,-3.76
10451.39,-4.11
10555.91,-4.56
10661.46,-5.04
10768.08,-5.47
10875.76,-5.84
10984.52,-6.06
11094.36,-6.19
11205.31,-6.00
11317.36,-5.80
11430.53,-5.53
11544.84,-5.27
11660.29,-4.99
11776.89,-4.67
11894.66,-4.29
12013.60,-3.81
12133.74,-3.31
12255.08,-2.77
12377.63,-2.25
12501.41,-1.84
12626.42,-1.55
12752.68,-1.87
12880.21,-2.46
13009.01,-3.37
13139.10,-4.52
13270.49,-5.92
13403.20,-7.51
13537.23,-9.08
13672.60,-10.55
13809.33,-11.98
13947.42,-13.01
14086.90,-13.84
14227.77,-14.43
14370.04,-14.78
14513.74,-14.80
14658.88,-14.62
14805.47,-14.34
14953.52,-13.98
15103.06,-13.51
15254.09,-13.01
15406.63,-12.49
15560.70,-11.95
15716.30,-11.40
15873.47,-10.92
16032.20,-10.41
16192.52,-10.01
16354.45,-9.73
16517.99,-9.52
16683.17,-9.66
16850.01,-9.92
17018.51,-10.31
17188.69,-10.83
17360.58,-11.50
17534.18,-12.24
17709.53,-12.98
17886.62,-13.87
18065.49,-14.64
18246.14,-15.37
18428.60,-16.08
18612.89,-16.68
18799.02,-17.13
18987.01,-17.45
19176.88,-17.67
19368.65,-17.79
19562.33,-17.73
19757.96,-17.63
19955.54,-17.56
