frequency,raw
20.00,2.16
20.20,2.17
20.40,2.22
20.61,2.26
20.81,2.32
21.02,2.38
21.23,2.43
21.44,2.48
21.66,2.52
21.87,2.57
22.09,2.65
22.31,2.69
22.54,2.75
22.76,2.81
22.99,2.87
23.22,2.93
23.45,2.99
23.69,3.05
23.92,3.11
24.16,3.17
24.40,3.22
24.65,3.29
24.89,3.35
25.14,3.41
25.39,3.47
25.65,3.53
25.91,3.60
26.16,3.67
26.43,3.74
26.69,3.81
26.96,3.87
27.23,3.95
27.50,4.01
27.77,4.09
28.05,4.16
28.33,4.23
28.62,4.31
28.90,4.38
29.19,4.45
29.48,4.52
29.78,4.58
30.08,4.65
30.38,4.73
30.68,4.78
30.99,4.85
31.30,4.90
31.61,4.97
31.93,5.03
32.24,5.08
32.57,5.14
32.89,5.20
33.22,5.25
33.55,5.29
33.89,5.34
34.23,5.38
34.57,5.42
34.92,5.47
35.27,5.50
35.62,5.53
35.97,5.58
36.33,5.61
36.70,5.64
37.06,5.67
37.43,5.71
37.81,5.73
38.19,5.76
38.57,5.79
38.95,5.84
39.34,5.86
39.74,5.88
40.14,5.92
40.54,5.96
40.94,5.97
41.35,6.01
41.76,6.05
42.18,6.08
42.60,6.10
43.03,6.14
43.46,6.17
43.90,6.18
44.33,6.23
44.78,6.24
45.23,6.27
45.68,6.30
46.13,6.31
46.60,6.31
47.06,6.34
47.53,6.36
48.01,6.36
48.49,6.36
48.97,6.36
49.46,6.36
49.96,6.31
50.46,6.31
50.96,6.29
51.47,6.27
51.99,6.24
52.51,6.21
53.03,6.18
53.56,6.15
54.10,6.12
54.64,6.09
55.18,6.05
55.74,6.01
56.29,5.98
56.86,5.97
57.42,5.92
58.00,5.91
58.58,5.88
59.16,5.88
59.76,5.84
60.35,5.84
60.96,5.84
61.57,5.84
62.18,5.79
62.80,5.79
63.43,5.79
64.07,5.78
64.71,5.75
65.35,5.73
66.01,5.68
66.67,5.65
67.33,5.59
68.01,5.51
68.69,5.43
69.37,5.32
70.07,5.19
70.77,5.03
71.48,4.87
72.19,4.68
72.91,4.46
73.64,4.22
74.38,3.94
75.12,3.65
75.87,3.36
76.63,3.01
77.40,2.70
78.17,2.37
78.95,2.04
79.74,1.73
80.54,1.40
81.35,1.13
82.16,0.88
82.98,0.67
83.81,0.50
84.65,0.38
85.50,0.28
86.35,0.25
87.22,0.25
88.09,0.28
88.97,0.37
89.86,0.49
90.76,0.67
91.66,0.87
92.58,1.10
93.51,1.36
94.44,1.64
95.39,1.93
96.34,2.26
97.30,2.57
98.28,2.88
99.26,3.21
100.25,3.49
101.25,3.77
102.27,4.00
103.29,4.25
104.32,4.46
105.37,4.66
106.42,4.85
107.48,5.01
108.56,5.15
109.64,5.31
110.74,5.43
111.85,5.53
112.97,5.64
114.10,5.73
115.24,5.82
116.39,5.90
117.55,5.96
118.73,6.02
119.92,6.08
121.12,6.13
122.33,6.16
123.55,6.19
124.79,6.23
126.03,6.23
127.29,6.27
128.57,6.27
129.85,6.27
131.15,6.27
132.46,6.23
133.79,6.23
135.12,6.19
136.48,6.18
137.84,6.14
139.22,6.10
140.61,6.05
142.02,6.00
143.44,5.94
144.87,5.90
146.32,5.86
147.78,5.79
149.26,5.73
150.75,5.66
152.26,5.59
153.78,5.52
155.32,5.47
156.88,5.41
158.44,5.34
160.03,5.29
161.63,5.22
163.24,5.16
164.88,5.11
166.53,5.03
168.19,4.99
169.87,4.93
171.57,4.87
173.29,4.81
175.02,4.75
176.77,4.69
178.54,4.64
180.32,4.57
182.13,4.51
183.95,4.44
185.79,4.37
187.65,4.31
189.52,4.22
191.42,4.14
193.33,4.06
195.27,3.98
197.22,3.88
199.19,3.81
201.18,3.72
203.19,3.61
205.23,3.52
207.28,3.43
209.35,3.30
211.44,3.18
213.56,3.07
215.69,2.95
217.85,2.85
220.03,2.70
222.23,2.60
224.45,2.45
226.70,2.32
228.96,2.18
231.25,2.05
233.57,1.89
235.90,1.74
238.26,1.61
240.64,1.46
243.05,1.30
245.48,1.15
247.93,1.01
250.41,0.83
252.92,0.68
255.45,0.50
258.00,0.34
260.58,0.18
263.19,-0.01
265.82,-0.21
268.48,-0.38
271.16,-0.58
273.87,-0.77
276.61,-0.95
279.38,-1.15
282.17,-1.33
284.99,-1.51
287.84,-1.67
290.72,-1.85
293.63,-2.02
296.57,-2.20
299.53,-2.36
302.53,-2.53
305.55,-2.69
308.61,-2.85
311.69,-3.01
314.81,-3.16
317.96,-3.30
321.14,-3.43
324.35,-3.55
327.59,-3.66
330.87,-3.76
334.18,-3.87
337.52,-3.99
340.90,-4.09
344.30,-4.17
347.75,-4.25
351.23,-4.35
354.74,-4.42
358.28,-4.50
361.87,-4.55
365.49,-4.60
369.14,-4.63
372.83,-4.67
376.56,-4.69
380.33,-4.69
384.13,-4.69
387.97,-4.69
391.85,-4.69
395.77,-4.65
399.73,-4.62
403.72,-4.58
407.76,-4.54
411.84,-4.47
415.96,-4.40
420.12,-4.32
424.32,-4.24
428.56,-4.14
432.85,-4.06
437.18,-3.95
441.55,-3.83
445.96,-3.70
450.42,-3.58
454.93,-3.47
459.48,-3.32
464.07,-3.19
468.71,-3.05
473.40,-2.89
478.13,-2.74
482.91,-2.59
487.74,-2.43
492.62,-2.28
497.55,-2.13
502.52,-1.95
507.55,-1.79
512.62,-1.64
517.75,-1.46
522.93,-1.31
528.16,-1.15
533.44,-1.00
538.77,-0.85
544.16,-0.69
549.60,-0.56
555.10,-0.42
560.65,-0.27
566.25,-0.15
571.92,-0.02
577.64,0.10
583.41,0.21
589.25,0.31
595.14,0.43
601.09,0.54
607.10,0.64
613.17,0.70
619.30,0.79
625.50,0.86
631.75,0.92
638.07,0.96
644.45,1.01
650.89,1.06
657.40,1.07
663.98,1.11
670.62,1.11
677.32,1.11
684.10,1.11
690.94,1.11
697.85,1.07
704.83,1.05
711.87,1.02
718.99,0.97
726.18,0.92
733.44,0.87
740.78,0.80
748.19,0.74
755.67,0.68
763.23,0.62
770.86,0.54
778.57,0.47
786.35,0.40
794.22,0.33
802.16,0.25
810.18,0.18
818.28,0.12
826.46,0.05
834.73,-0.00
843.08,-0.06
851.51,-0.12
860.02,-0.15
868.62,-0.19
877.31,-0.23
886.08,-0.24
894.94,-0.27
903.89,-0.27
912.93,-0.27
922.06,-0.27
931.28,-0.27
940.59,-0.27
950.00,-0.23
959.50,-0.20
969.09,-0.17
978.78,-0.12
988.57,-0.08
998.46,-0.01
1008.44,0.06
1018.53,0.13
1028.71,0.19
1039.00,0.27
1049.39,0.33
1059.88,0.43
1070.48,0.50
1081.19,0.59
1092.00,0.66
1102.92,0.76
1113.95,0.82
1125.09,0.93
1136.34,1.03
1147.70,1.11
1159.18,1.21
1170.77,1.32
1182.48,1.43
1194.30,1.54
1206.25,1.67
1218.31,1.77
1230.49,1.90
1242.80,2.02
1255.22,2.15
1267.78,2.28
1280.45,2.40
1293.26,2.54
1306.19,2.65
1319.25,2.79
1332.45,2.90
1345.77,3.02
1359.23,3.12
1372.82,3.23
1386.55,3.33
1400.41,3.43
1414.42,3.53
1428.56,3.62
1442.85,3.69
1457.28,3.77
1471.85,3.82
1486.57,3.88
1501.43,3.92
1516.45,3.97
1531.61,4.00
1546.93,4.02
1562.40,4.06
1578.02,4.06
1593.80,4.06
1609.74,4.06
1625.84,4.06
1642.10,4.06
1658.52,4.06
1675.10,4.06
1691.85,4.02
1708.77,4.02
1725.86,3.97
1743.12,3.96
1760.55,3.93
1778.15,3.90
1795.94,3.87
1813.90,3.84
1832.03,3.80
1850.36,3.76
1868.86,3.73
1887.55,3.71
1906.42,3.67
1925.49,3.67
1944.74,3.64
1964.19,3.63
1983.83,3.63
2003.67,3.63
2023.71,3.63
2043.94,3.67
2064.38,3.69
2085.03,3.73
2105.88,3.79
2126.94,3.84
2148.20,3.94
2169.69,4.03
2191.38,4.13
2213.30,4.23
2235.43,4.35
2257.78,4.47
2280.36,4.61
2303.17,4.75
2326.20,4.90
2349.46,5.06
2372.95,5.20
2396.68,5.35
2420.65,5.51
2444.86,5.67
2469.31,5.81
2494.00,5.95
2518.94,6.10
2544.13,6.24
2569.57,6.34
2595.27,6.47
2621.22,6.57
2647.43,6.63
2673.90,6.71
2700.64,6.77
2727.65,6.80
2754.93,6.83
2782.48,6.83
2810.30,6.83
2838.40,6.81
2866.79,6.77
2895.46,6.72
2924.41,6.65
2953.65,6.56
2983.19,6.47
3013.02,6.37
3043.15,6.24
3073.58,6.14
3104.32,5.99
3135.36,5.89
3166.72,5.76
3198.38,5.66
3230.37,5.56
3262.67,5.46
3295.30,5.37
3328.25,5.29
3361.53,5.23
3395.15,5.19
3429.10,5.16
3463.39,5.14
3498.03,5.14
3533.01,5.14
3568.34,5.16
3604.02,5.19
3640.06,5.22
3676.46,5.25
3713.22,5.27
3750.36,5.29
3787.86,5.27
3825.74,5.27
3864.00,5.25
3902.64,5.20
3941.66,5.12
3981.08,5.04
4020.89,4.91
4061.10,4.79
4101.71,4.62
4142.73,4.43
4184.15,4.25
4226.00,4.02
4268.26,3.79
4310.94,3.54
4354.05,3.27
4397.59,3.01
4441.56,2.71
4485.98,2.44
4530.84,2.17
4576.15,1.86
4621.91,1.60
4668.13,1.29
4714.81,1.02
4761.96,0.75
4809.58,0.47
4857.67,0.21
4906.25,-0.02
4955.31,-0.28
5004.87,-0.50
5054.91,-0.71
5105.46,-0.89
5156.52,-1.08
5208.08,-1.26
5260.16,-1.38
5312.77,-1.51
5365.89,-1.60
5419.55,-1.69
5473.75,-1.77
5528.49,-1.80
5583.77,-1.83
5639.61,-1.83
5696.00,-1.82
5752.96,-1.77
5810.49,-1.72
5868.60,-1.67
5927.28,-1.57
5986.56,-1.47
6046.42,-1.36
6106.89,-1.21
6167.96,-1.06
6229.64,-0.88
6291.93,-0.72
6354.85,-0.53
6418.40,-0.35
6482.58,-0.16
6547.41,0.02
6612.88,0.18
6679.01,0.33
6745.80,0.49
6813.26,0.64
6881.39,0.82
6950.21,1.04
7019.71,1.31
7089.91,1.56
7160.81,1.86
7232.41,2.16
7304.74,2.47
7377.79,2.79
7451.56,3.09
7526.08,3.39
7601.34,3.65
7677.35,3.91
7754.13,4.16
7831.67,4.36
7909.98,4.57
7989.08,4.75
8068.98,4.92
8149.67,5.12
8231.16,5.31
8313.47,5.47
8396.61,5.65
8480.57,5.80
8565.38,5.93
8651.03,6.03
8737.54,6.12
8824.92,6.17
8913.17,6.22
9002.30,6.27
9092.32,6.30
9183.25,6.29
9275.08,6.24
9367.83,6.16
9461.51,6.03
9556.12,5.88
9651.68,5.72
9748.20,5.54
9845.68,5.34
9944.14,5.13
10043.58,4.89
10144.02,4.64
10245.46,4.36
10347.91,4.07
10451.39,3.76
10555.91,3.45
10661.46,3.11
10768.08,2.77
10875.76,2.37
10984.52,1.95
11094.36,1.47
11205.31,0.99
11317.36,0.48
11430.53,-0.04
11544.84,-0.57
11660.29,-1.15
11776.89,-1.70
11894.66,-2.28
12013.60,-2.92
12133.74,-3.58
12255.08,-4.24
12377.63,-4.93
12501.41,-5.60
12626.42,-6.27
12752.68,-6.93
12880.21,-7.57
13009.01,-8.14
13139.10,-8.61
13270.49,-8.99
13403.20,-9.24
13537.23,-9.41
13672.60,-9.50
13809.33,-9.49
13947.42,-9.44
14086.90,-9.30
14227.77,-9.14
14370.04,-8.90
14513.74,-8.66
14658.88,-8.37
14805.47,-8.09
14953.52,-7.81
15103.06,-7.53
15254.09,-7.29
15406.63,-7.02
15560.70,-6.76
15716.30,-6.53
15873.47,-6.28
16032.20,-6.12
16192.52,-5.99
16354.45,-5.99
16517.99,-6.11
16683.17,-6.29
16850.01,-6.49
17018.51,-6.73
17188.69,-7.00
17360.58,-7.27
17534.18,-7.57
17709.53,-7.87
17886.62,-8.15
18065.49,-8.41
18246.14,-8.60
18428.60,-8.74
18612.89,-8.77
18799.02,-8.83
18987.01,-8.91
19176.88,-9.07
19368.65,-9.28
19562.33,-9.54
19757.96,-9.82
19955.54,-10.03
