frequency,raw
20.00,-9.90
20.20,-9.87
20.40,-9.78
20.61,-9.68
20.81,-9.58
21.02,-9.48
21.23,-9.35
21.44,-9.23
21.66,-9.12
21.87,-9.02
22.09,-8.92
22.31,-8.79
22.54,-8.67
22.76,-8.55
22.99,-8.44
23.22,-8.29
23.45,-8.15
23.69,-8.04
23.92,-7.92
24.16,-7.79
24.40,-7.67
24.65,-7.57
24.89,-7.46
25.14,-7.36
25.39,-7.26
25.65,-7.15
25.91,-7.03
26.16,-6.90
26.43,-6.80
26.69,-6.70
26.96,-6.59
27.23,-6.49
27.50,-6.39
27.77,-6.29
28.05,-6.18
28.33,-6.08
28.62,-5.98
28.90,-5.87
29.19,-5.77
29.48,-5.67
29.78,-5.56
30.08,-5.46
30.38,-5.36
30.68,-5.25
30.99,-5.15
31.30,-5.05
31.61,-4.94
31.93,-4.84
32.24,-4.74
32.57,-4.64
32.89,-4.53
33.22,-4.40
33.55,-4.28
33.89,-4.20
34.23,-4.10
34.57,-3.99
34.92,-3.91
35.27,-3.83
35.62,-3.73
35.97,-3.63
36.33,-3.54
36.70,-3.44
37.06,-3.34
37.43,-3.23
37.81,-3.13
38.19,-3.03
38.57,-2.94
38.95,-2.84
39.34,-2.77
39.74,-2.68
40.14,-2.61
40.54,-2.52
40.94,-2.46
41.35,-2.39
41.76,-2.30
42.18,-2.24
42.60,-2.17
43.03,-2.07
43.46,-1.98
43.90,-1.91
44.33,-1.81
44.78,-1.74
45.23,-1.64
45.68,-1.55
46.13,-1.48
46.60,-1.38
47.06,-1.28
47.53,-1.19
48.01,-1.11
48.49,-1.01
48.97,-0.93
49.46,-0.85
49.96,-0.74
50.46,-0.64
50.96,-0.56
51.47,-0.48
51.99,-0.37
52.51,-0.27
53.03,-0.19
53.56,-0.09
54.10,0.02
54.64,0.12
55.18,0.22
55.74,0.33
56.29,0.43
56.86,0.53
57.42,0.61
58.00,0.72
58.58,0.82
59.16,0.90
59.76,1.01
60.35,1.11
60.96,1.21
61.57,1.31
62.18,1.42
62.80,1.54
63.43,1.67
64.07,1.75
64.71,1.85
65.35,1.91
66.01,2.01
66.67,2.07
67.33,2.17
68.01,2.24
68.69,2.34
69.37,2.40
70.07,2.49
70.77,2.56
71.48,2.64
72.19,2.70
72.91,2.76
73.64,2.82
74.38,2.89
75.12,2.94
75.87,3.00
76.63,3.06
77.40,3.12
78.17,3.18
78.95,3.23
79.74,3.28
80.54,3.32
81.35,3.37
82.16,3.40
82.98,3.45
83.81,3.48
84.65,3.51
85.50,3.56
86.35,3.59
87.22,3.64
88.09,3.67
88.97,3.70
89.86,3.73
90.76,3.76
91.66,3.79
92.58,3.82
93.51,3.88
94.44,3.91
95.39,3.95
96.34,4.00
97.30,4.06
98.28,4.13
99.26,4.21
100.25,4.27
101.25,4.37
102.27,4.45
103.29,4.53
104.32,4.63
105.37,4.72
106.42,4.82
107.48,4.92
108.56,5.03
109.64,5.17
110.74,5.28
111.85,5.38
112.97,5.48
114.10,5.58
115.24,5.69
116.39,5.81
117.55,5.92
118.73,6.04
119.92,6.14
121.12,6.27
122.33,6.37
123.55,6.45
124.79,6.56
126.03,6.64
127.29,6.73
128.57,6.80
129.85,6.86
131.15,6.94
132.46,6.98
133.79,7.03
135.12,7.06
136.48,7.11
137.84,7.15
139.22,7.12
140.61,7.11
142.02,7.11
143.44,7.11
144.87,7.08
146.32,7.05
147.78,7.02
149.26,6.97
150.75,6.92
152.26,6.87
153.78,6.79
155.32,6.72
156.88,6.66
158.44,6.57
160.03,6.50
161.63,6.39
163.24,6.29
164.88,6.21
166.53,6.10
168.19,6.00
169.87,5.90
171.57,5.78
173.29,5.65
175.02,5.51
176.77,5.36
178.54,5.21
180.32,5.08
182.13,4.94
183.95,4.81
185.79,4.69
187.65,4.54
189.52,4.44
191.42,4.31
193.33,4.19
195.27,4.07
197.22,3.96
199.19,3.86
201.18,3.76
203.19,3.64
205.23,3.57
207.28,3.49
209.35,3.43
211.44,3.37
213.56,3.31
215.69,3.25
217.85,3.19
220.03,3.15
222.23,3.11
224.45,3.08
226.70,3.04
228.96,3.00
231.25,2.99
233.57,3.04
235.90,3.04
238.26,3.05
240.64,3.08
243.05,3.11
245.48,3.14
247.93,3.17
250.41,3.20
252.92,3.21
255.45,3.21
258.00,3.25
260.58,3.25
263.19,3.25
265.82,3.21
268.48,3.19
271.16,3.16
273.87,3.11
276.61,3.06
279.38,3.00
282.17,2.91
284.99,2.85
287.84,2.75
290.72,2.69
293.63,2.59
296.57,2.46
299.53,2.36
302.53,2.26
305.55,2.15
308.61,2.05
311.69,1.95
314.81,1.85
317.96,1.74
321.14,1.64
324.35,1.54
327.59,1.44
330.87,1.37
334.18,1.30
337.52,1.24
340.90,1.17
344.30,1.12
347.75,1.07
351.23,1.02
354.74,0.99
358.28,0.94
361.87,0.91
365.49,0.88
369.14,0.87
372.83,0.83
376.56,0.81
380.33,0.78
384.13,0.74
387.97,0.70
391.85,0.67
395.77,0.64
399.73,0.61
403.72,0.57
407.76,0.53
411.84,0.50
415.96,0.46
420.12,0.41
424.32,0.35
428.56,0.31
432.85,0.26
437.18,0.23
441.55,0.18
445.96,0.15
450.42,0.10
454.93,0.09
459.48,0.09
464.07,0.05
468.71,0.05
473.40,0.05
478.13,0.01
482.91,0.00
487.74,0.00
492.62,-0.04
497.55,-0.04
502.52,-0.04
507.55,-0.04
512.62,-0.05
517.75,-0.08
522.93,-0.08
528.16,-0.08
533.44,-0.08
538.77,-0.08
544.16,-0.08
549.60,-0.08
555.10,-0.08
560.65,-0.08
566.25,-0.08
571.92,-0.08
577.64,-0.08
583.41,-0.05
589.25,-0.04
595.14,-0.04
601.09,-0.04
607.10,-0.04
613.17,0.00
619.30,0.00
625.50,0.01
631.75,0.05
638.07,0.05
644.45,0.09
650.89,0.09
657.40,0.12
663.98,0.13
670.62,0.15
677.32,0.18
684.10,0.18
690.94,0.18
697.85,0.22
704.83,0.22
711.87,0.22
718.99,0.26
726.18,0.26
733.44,0.26
740.78,0.26
748.19,0.26
755.67,0.26
763.23,0.26
770.86,0.26
778.57,0.26
786.35,0.26
794.22,0.26
802.16,0.26
810.18,0.26
818.28,0.26
826.46,0.26
834.73,0.26
843.08,0.26
851.51,0.26
860.02,0.26
868.62,0.26
877.31,0.26
886.08,0.22
894.94,0.22
903.89,0.18
912.93,0.18
922.06,0.18
931.28,0.18
940.59,0.13
950.00,0.13
959.50,0.12
969.09,0.09
978.78,0.06
988.57,0.03
998.46,0.00
1008.44,-0.03
1018.53,-0.04
1028.71,-0.04
1039.00,-0.04
1049.39,-0.08
1059.88,-0.08
1070.48,-0.08
1081.19,-0.04
1092.00,-0.04
1102.92,-0.04
1113.95,-0.04
1125.09,-0.04
1136.34,-0.04
1147.70,-0.02
1159.18,-0.02
1170.77,-0.02
1182.48,0.00
1194.30,0.00
1206.25,0.00
1218.31,0.02
1230.49,0.05
1242.80,0.08
1255.22,0.11
1267.78,0.17
1280.45,0.23
1293.26,0.29
1306.19,0.34
1319.25,0.41
1332.45,0.46
1345.77,0.51
1359.23,0.59
1372.82,0.66
1386.55,0.71
1400.41,0.79
1414.42,0.85
1428.56,0.89
1442.85,0.98
1457.28,1.02
1471.85,1.07
1486.57,1.12
1501.43,1.20
1516.45,1.24
1531.61,1.31
1546.93,1.38
1562.40,1.44
1578.02,1.51
1593.80,1.59
1609.74,1.67
1625.84,1.73
1642.10,1.81
1658.52,1.87
1675.10,1.93
1691.85,1.99
1708.77,2.05
1725.86,2.08
1743.12,2.14
1760.55,2.17
1778.15,2.20
1795.94,2.24
1813.90,2.28
1832.03,2.32
1850.36,2.36
1868.86,2.41
1887.55,2.45
1906.42,2.50
1925.49,2.55
1944.74,2.61
1964.19,2.67
1983.83,2.73
2003.67,2.77
2023.71,2.82
2043.94,2.86
2064.38,2.92
2085.03,2.97
2105.88,3.02
2126.94,3.06
2148.20,3.13
2169.69,3.21
2191.38,3.28
2213.30,3.36
2235.43,3.45
2257.78,3.53
2280.36,3.63
2303.17,3.75
2326.20,3.86
2349.46,3.96
2372.95,4.06
2396.68,4.17
2420.65,4.27
2444.86,4.37
2469.31,4.49
2494.00,4.62
2518.94,4.76
2544.13,4.91
2569.57,5.06
2595.27,5.19
2621.22,5.33
2647.43,5.44
2673.90,5.56
2700.64,5.64
2727.65,5.74
2754.93,5.83
2782.48,5.91
2810.30,6.01
2838.40,6.07
2866.79,6.17
2895.46,6.23
2924.41,6.31
2953.65,6.37
2983.19,6.43
3013.02,6.48
3043.15,6.52
3073.58,6.55
3104.32,6.59
3135.36,6.61
3166.72,6.63
3198.38,6.68
3230.37,6.68
3262.67,6.68
3295.30,6.68
3328.25,6.68
3361.53,6.68
3395.15,6.68
3429.10,6.67
3463.39,6.63
3498.03,6.61
3533.01,6.56
3568.34,6.51
3604.02,6.46
3640.06,6.40
3676.46,6.35
3713.22,6.28
3750.36,6.23
3787.86,6.16
3825.74,6.08
3864.00,6.02
3902.64,5.94
3941.66,5.87
3981.08,5.79
4020.89,5.71
4061.10,5.64
4101.71,5.55
4142.73,5.45
4184.15,5.36
4226.00,5.21
4268.26,5.03
4310.94,4.82
4354.05,4.60
4397.59,4.38
4441.56,4.20
4485.98,4.04
4530.84,3.89
4576.15,3.74
4621.91,3.62
4668.13,3.49
4714.81,3.40
4761.96,3.32
4809.58,3.25
4857.67,3.25
4906.25,3.25
4955.31,3.28
5004.87,3.32
5054.91,3.39
5105.46,3.48
5156.52,3.55
5208.08,3.62
5260.16,3.64
5312.77,3.64
5365.89,3.64
5419.55,3.58
5473.75,3.51
5528.49,3.40
5583.77,3.24
5639.61,3.13
5696.00,2.98
5752.96,2.84
5810.49,2.72
5868.60,2.61
5927.28,2.61
5986.56,2.70
6046.42,2.84
6106.89,3.01
6167.96,3.21
6229.64,3.43
6291.93,3.65
6354.85,3.95
6418.40,4.22
6482.58,4.47
6547.41,4.72
6612.88,4.89
6679.01,4.96
6745.80,4.83
6813.26,4.66
6881.39,4.46
6950.21,4.26
7019.71,4.10
7089.91,3.93
7160.81,3.77
7232.41,3.62
7304.74,3.49
7377.79,3.34
7451.56,3.20
7526.08,3.04
7601.34,2.87
7677.35,2.69
7754.13,2.53
7831.67,2.34
7909.98,2.16
7989.08,2.00
8068.98,1.81
8149.67,1.63
8231.16,1.44
8313.47,1.24
8396.61,1.05
8480.57,0.82
8565.38,0.60
8651.03,0.36
8737.54,0.08
8824.92,-0.33
8913.17,-1.28
9002.30,-2.23
9092.32,-3.46
9183.25,-5.15
9275.08,-6.50
9367.83,-7.80
9461.51,-9.04
9556.12,-9.94
9651.68,-10.58
9748.20,-11.29
9845.68,-11.80
9944.14,-12.31
10043.58,-13.06
10144.02,-13.67
10245.46,-14.25
10347.91,-14.96
10451.39,-15.41
10555.91,-15.57
10661.46,-15.04
10768.08,-14.26
10875.76,-13.22
10984.52,-12.12
11094.36,-11.07
11205.31,-10.16
11317.36,-9.35
11430.53,-8.66
11544.84,-8.08
11660.29,-7.57
11776.89,-7.16
11894.66,-6.87
12013.60,-6.73
12133.74,-6.77
12255.08,-6.88
12377.63,-7.00
12501.41,-7.11
12626.42,-7.21
12752.68,-7.27
12880.21,-7.32
13009.01,-7.34
13139.10,-7.28
13270.49,-7.09
13403.20,-6.82
13537.23,-6.39
13672.60,-5.86
13809.33,-5.26
13947.42,-4.64
14086.90,-4.00
14227.77,-3.37
14370.04,-2.79
14513.74,-2.25
14658.88,-1.70
14805.47,-1.15
14953.52,-0.73
15103.06,-0.26
15254.09,0.11
15406.63,0.39
15560.70,0.67
15716.30,0.95
15873.47,1.15
16032.20,1.36
16192.52,1.51
16354.45,1.66
16517.99,1.79
16683.17,1.86
16850.01,1.65
17018.51,1.29
17188.69,0.78
17360.58,0.16
17534.18,-0.57
17709.53,-1.48
17886.62,-2.50
18065.49,-3.79
18246.14,-5.27
18428.60,-6.81
18612.89,-8.38
18799.02,-9.93
18987.01,-11.39
19176.88,-12.85
19368.65,-14.34
19562.33,-15.84
19757.96,-17.34
19955.54,-18.19
