frequency,raw
20.00,-18.29
20.20,-18.21
20.40,-18.10
20.61,-17.93
20.81,-17.78
21.02,-17.62
21.23,-17.47
21.44,-17.29
21.66,-17.14
21.87,-16.98
22.09,-16.81
22.31,-16.65
22.54,-16.50
22.76,-16.32
22.99,-16.17
23.22,-16.01
23.45,-15.84
23.69,-15.68
23.92,-15.53
24.16,-15.35
24.40,-15.20
24.65,-15.04
24.89,-14.87
25.14,-14.71
25.39,-14.56
25.65,-14.38
25.91,-14.22
26.16,-14.07
26.43,-13.89
26.69,-13.74
26.96,-13.58
27.23,-13.43
27.50,-13.28
27.77,-13.11
28.05,-12.95
28.33,-12.79
28.62,-12.64
28.90,-12.50
29.19,-12.34
29.48,-12.19
29.78,-12.04
30.08,-11.90
30.38,-11.73
30.68,-11.58
30.99,-11.43
31.30,-11.28
31.61,-11.14
31.93,-10.99
32.24,-10.84
32.57,-10.69
32.89,-10.55
33.22,-10.40
33.55,-10.25
33.89,-10.11
34.23,-9.96
34.57,-9.82
34.92,-9.67
35.27,-9.53
35.62,-9.38
35.97,-9.23
36.33,-9.10
36.70,-8.94
37.06,-8.81
37.43,-8.66
37.81,-8.52
38.19,-8.39
38.57,-8.23
38.95,-8.10
39.34,-7.97
39.74,-7.81
40.14,-7.69
40.54,-7.55
40.94,-7.41
41.35,-7.28
41.76,-7.14
42.18,-7.02
42.60,-6.90
43.03,-6.77
43.46,-6.67
43.90,-6.55
44.33,-6.44
44.78,-6.31
45.23,-6.19
45.68,-6.07
46.13,-5.96
46.60,-5.86
47.06,-5.76
47.53,-5.65
48.01,-5.57
48.49,-5.47
48.97,-5.39
49.46,-5.31
49.96,-5.20
50.46,-5.14
50.96,-5.04
51.47,-4.97
51.99,-4.88
52.51,-4.81
53.03,-4.71
53.56,-4.65
54.10,-4.57
54.64,-4.51
55.18,-4.44
55.74,-4.39
56.29,-4.33
56.86,-4.27
57.42,-4.21
58.00,-4.16
58.58,-4.11
59.16,-4.06
59.76,-4.02
60.35,-3.98
60.96,-3.93
61.57,-3.90
62.18,-3.87
62.80,-3.84
63.43,-3.80
64.07,-3.78
64.71,-3.76
65.35,-3.76
66.01,-3.72
66.67,-3.72
67.33,-3.72
68.01,-3.72
68.69,-3.72
69.37,-3.73
70.07,-3.76
70.77,-3.78
71.48,-3.81
72.19,-3.84
72.91,-3.90
73.64,-3.94
74.38,-4.00
75.12,-4.05
75.87,-4.12
76.63,-4.17
77.40,-4.23
78.17,-4.28
78.95,-4.33
79.74,-4.38
80.54,-4.41
81.35,-4.45
82.16,-4.49
82.98,-4.50
83.81,-4.54
84.65,-4.54
85.50,-4.58
86.35,-4.60
87.22,-4.63
88.09,-4.66
88.97,-4.69
89.86,-4.72
90.76,-4.76
91.66,-4.80
92.58,-4.83
93.51,-4.87
94.44,-4.91
95.39,-4.95
96.34,-4.99
97.30,-5.04
98.28,-5.07
99.26,-5.10
100.25,-5.15
101.25,-5.16
102.27,-5.19
103.29,-5.20
104.32,-5.23
105.37,-5.23
106.42,-5.23
107.48,-5.28
108.56,-5.28
109.64,-5.28
110.74,-5.28
111.85,-5.32
112.97,-5.32
114.10,-5.35
115.24,-5.36
116.39,-5.37
117.55,-5.41
118.73,-5.41
119.92,-5.45
121.12,-5.45
122.33,-5.49
123.55,-5.50
124.79,-5.54
126.03,-5.56
127.29,-5.58
128.57,-5.62
129.85,-5.65
131.15,-5.70
132.46,-5.73
133.79,-5.79
135.12,-5.86
136.48,-5.93
137.84,-5.99
139.22,-6.05
140.61,-6.13
142.02,-6.20
143.44,-6.27
144.87,-6.35
146.32,-6.42
147.78,-6.50
149.26,-6.57
150.75,-6.66
152.26,-6.71
153.78,-6.79
155.32,-6.86
156.88,-6.90
158.44,-6.95
160.03,-6.99
161.63,-7.02
163.24,-7.05
164.88,-7.08
166.53,-7.10
168.19,-7.14
169.87,-7.14
171.57,-7.18
173.29,-7.18
175.02,-7.18
176.77,-7.23
178.54,-7.23
180.32,-7.23
182.13,-7.27
183.95,-7.27
185.79,-7.27
187.65,-7.31
189.52,-7.31
191.42,-7.36
193.33,-7.39
195.27,-7.40
197.22,-7.44
199.19,-7.48
201.18,-7.51
203.19,-7.54
205.23,-7.57
207.28,-7.60
209.35,-7.63
211.44,-7.66
213.56,-7.70
215.69,-7.70
217.85,-7.75
220.03,-7.75
222.23,-7.75
224.45,-7.75
226.70,-7.78
228.96,-7.79
231.25,-7.79
233.57,-7.83
235.90,-7.83
238.26,-7.88
240.64,-7.89
243.05,-7.92
245.48,-7.96
247.93,-7.98
250.41,-8.01
252.92,-8.01
255.45,-8.01
258.00,-8.01
260.58,-8.01
263.19,-7.96
265.82,-7.96
268.48,-7.92
271.16,-7.91
273.87,-7.86
276.61,-7.83
279.38,-7.80
282.17,-7.75
284.99,-7.72
287.84,-7.67
290.72,-7.66
293.63,-7.62
296.57,-7.62
299.53,-7.62
302.53,-7.62
305.55,-7.66
308.61,-7.63
311.69,-7.57
314.81,-7.46
317.96,-7.23
321.14,-6.97
324.35,-6.61
327.59,-6.21
330.87,-5.79
334.18,-5.38
337.52,-4.98
340.90,-4.64
344.30,-4.38
347.75,-4.17
351.23,-4.01
354.74,-3.89
358.28,-3.76
361.87,-3.66
365.49,-3.57
369.14,-3.47
372.83,-3.37
376.56,-3.29
380.33,-3.19
384.13,-3.10
387.97,-3.02
391.85,-2.96
395.77,-2.94
399.73,-2.89
403.72,-2.89
407.76,-2.91
411.84,-2.94
415.96,-2.94
420.12,-2.98
424.32,-2.96
428.56,-2.94
432.85,-2.89
437.18,-2.84
441.55,-2.77
445.96,-2.68
450.42,-2.60
454.93,-2.50
459.48,-2.41
464.07,-2.32
468.71,-2.21
473.40,-2.11
478.13,-2.01
482.91,-1.90
487.74,-1.80
492.62,-1.72
497.55,-1.62
502.52,-1.53
507.55,-1.45
512.62,-1.35
517.75,-1.29
522.93,-1.20
528.16,-1.14
533.44,-1.09
538.77,-1.04
544.16,-0.99
549.60,-0.96
555.10,-0.89
560.65,-0.86
566.25,-0.78
571.92,-0.71
577.64,-0.66
583.41,-0.62
589.25,-0.58
595.14,-0.53
601.09,-0.47
607.10,-0.44
613.17,-0.40
619.30,-0.36
625.50,-0.33
631.75,-0.29
638.07,-0.25
644.45,-0.22
650.89,-0.19
657.40,-0.16
663.98,-0.12
670.62,-0.08
677.32,-0.06
684.10,-0.03
690.94,0.01
697.85,0.04
704.83,0.07
711.87,0.10
718.99,0.13
726.18,0.18
733.44,0.21
740.78,0.25
748.19,0.27
755.67,0.31
763.23,0.31
770.86,0.35
778.57,0.31
786.35,0.29
794.22,0.18
802.16,-0.01
810.18,-0.25
818.28,-0.60
826.46,-0.99
834.73,-1.40
843.08,-1.72
851.51,-1.99
860.02,-2.02
868.62,-1.85
877.31,-1.65
886.08,-1.38
894.94,-1.15
903.89,-0.92
912.93,-0.75
922.06,-0.57
931.28,-0.45
940.59,-0.34
950.00,-0.24
959.50,-0.17
969.09,-0.10
978.78,-0.04
988.57,0.02
998.46,0.01
1008.44,-0.05
1018.53,-0.02
1028.71,0.04
1039.00,0.10
1049.39,0.16
1059.88,0.21
1070.48,0.28
1081.19,0.33
1092.00,0.38
1102.92,0.42
1113.95,0.49
1125.09,0.55
1136.34,0.60
1147.70,0.67
1159.18,0.72
1170.77,0.79
1182.48,0.85
1194.30,0.92
1206.25,0.99
1218.31,1.04
1230.49,1.12
1242.80,1.18
1255.22,1.24
1267.78,1.30
1280.45,1.36
1293.26,1.42
1306.19,1.48
1319.25,1.54
1332.45,1.60
1345.77,1.65
1359.23,1.71
1372.82,1.76
1386.55,1.81
1400.41,1.85
1414.42,1.91
1428.56,1.97
1442.85,2.00
1457.28,2.06
1471.85,2.09
1486.57,2.14
1501.43,2.17
1516.45,2.20
1531.61,2.23
1546.93,2.26
1562.40,2.31
1578.02,2.34
1593.80,2.39
1609.74,2.39
1625.84,2.39
1642.10,2.35
1658.52,2.32
1675.10,2.26
1691.85,2.23
1708.77,2.17
1725.86,2.11
1743.12,2.06
1760.55,2.04
1778.15,2.04
1795.94,2.08
1813.90,2.11
1832.03,2.16
1850.36,2.20
1868.86,2.22
1887.55,2.26
1906.42,2.30
1925.49,2.31
1944.74,2.35
1964.19,2.39
1983.83,2.42
2003.67,2.45
2023.71,2.48
2043.94,2.53
2064.38,2.58
2085.03,2.61
2105.88,2.66
2126.94,2.72
2148.20,2.76
2169.69,2.84
2191.38,2.89
2213.30,2.95
2235.43,3.04
2257.78,3.10
2280.36,3.17
2303.17,3.26
2326.20,3.31
2349.46,3.38
2372.95,3.48
2396.68,3.60
2420.65,3.75
2444.86,3.88
2469.31,4.04
2494.00,4.22
2518.94,4.39
2544.13,4.56
2569.57,4.77
2595.27,4.98
2621.22,5.16
2647.43,5.37
2673.90,5.56
2700.64,5.73
2727.65,5.87
2754.93,5.94
2782.48,5.97
2810.30,6.02
2838.40,6.14
2866.79,6.27
2895.46,6.46
2924.41,6.62
2953.65,6.76
2983.19,6.89
3013.02,6.96
3043.15,7.02
3073.58,7.03
3104.32,6.97
3135.36,6.85
3166.72,6.69
3198.38,6.54
3230.37,6.38
3262.67,6.26
3295.30,6.20
3328.25,6.20
3361.53,6.20
3395.15,6.19
3429.10,6.09
3463.39,5.94
3498.03,5.69
3533.01,5.35
3568.34,4.95
3604.02,4.44
3640.06,3.87
3676.46,3.18
3713.22,2.49
3750.36,1.78
3787.86,1.24
3825.74,0.84
3864.00,0.87
3902.64,1.18
3941.66,1.62
3981.08,2.01
4020.89,2.36
4061.10,2.57
4101.71,2.67
4142.73,2.53
4184.15,2.24
4226.00,1.81
4268.26,1.27
4310.94,0.82
4354.05,0.50
4397.59,0.88
4441.56,1.74
4485.98,2.94
4530.84,4.46
4576.15,6.01
4621.91,7.36
4668.13,8.35
4714.81,8.96
4761.96,9.13
4809.58,8.85
4857.67,8.41
4906.25,7.88
4955.31,7.33
5004.87,6.81
5054.91,6.35
5105.46,5.92
5156.52,5.56
5208.08,5.30
5260.16,5.07
5312.77,4.89
5365.89,4.75
5419.55,4.60
5473.75,4.44
5528.49,4.28
5583.77,4.07
5639.61,3.82
5696.00,3.51
5752.96,3.15
5810.49,2.78
5868.60,2.35
5927.28,1.96
5986.56,1.61
6046.42,1.30
6106.89,1.09
6167.96,0.93
6229.64,0.81
6291.93,0.74
6354.85,0.66
6418.40,0.73
6482.58,0.85
6547.41,0.96
6612.88,0.99
6679.01,0.74
6745.80,0.41
6813.26,-0.07
6881.39,-0.61
6950.21,-1.18
7019.71,-1.67
7089.91,-2.00
7160.81,-2.06
7232.41,-1.59
7304.74,-1.02
7377.79,-0.22
7451.56,0.59
7526.08,1.33
7601.34,1.96
7677.35,2.50
7754.13,2.88
7831.67,3.17
7909.98,3.33
7989.08,3.33
8068.98,3.28
8149.67,3.11
8231.16,2.87
8313.47,2.56
8396.61,2.13
8480.57,1.61
8565.38,1.00
8651.03,0.28
8737.54,-0.53
8824.92,-1.43
8913.17,-2.40
9002.30,-3.40
9092.32,-4.37
9183.25,-5.22
9275.08,-5.88
9367.83,-6.30
9461.51,-6.55
9556.12,-6.48
9651.68,-6.38
9748.20,-6.29
9845.68,-6.31
9944.14,-6.40
10043.58,-6.53
10144.02,-6.68
10245.46,-6.82
10347.91,-6.97
10451.39,-7.09
10555.91,-7.09
10661.46,-6.87
10768.08,-6.55
10875.76,-6.24
10984.52,-5.95
11094.36,-6.06
11205.31,-6.32
11317.36,-6.60
11430.53,-6.42
11544.84,-5.96
11660.29,-5.29
11776.89,-4.62
11894.66,-4.00
12013.60,-3.51
12133.74,-3.21
12255.08,-3.05
12377.63,-3.27
12501.41,-3.68
12626.42,-4.32
12752.68,-5.25
12880.21,-6.46
13009.01,-7.97
13139.10,-9.74
13270.49,-11.75
13403.20,-13.93
13537.23,-16.11
13672.60,-18.08
13809.33,-19.72
13947.42,-20.82
14086.90,-21.03
14227.77,-20.10
14370.04,-18.71
14513.74,-17.04
14658.88,-15.44
14805.47,-14.12
14953.52,-13.01
15103.06,-12.29
15254.09,-11.83
15406.63,-11.82
15560.70,-12.59
15716.30,-13.81
15873.47,-15.34
16032.20,-16.88
16192.52,-18.04
16354.45,-18.84
16517.99,-18.37
16683.17,-17.76
16850.01,-17.08
17018.51,-16.56
17188.69,-16.62
17360.58,-17.12
17534.18,-17.84
17709.53,-18.61
17886.62,-19.31
18065.49,-19.79
18246.14,-19.61
18428.60,-19.07
18612.89,-18.35
18799.02,-17.66
18987.01,-17.14
19176.88,-17.21
19368.65,-17.71
19562.33,-18.37
19757.96,-19.08
19955.54,-19.61
