frequency,raw
20.00,0.88
20.20,0.89
20.40,0.92
20.61,0.98
20.81,1.01
21.02,1.06
21.23,1.12
21.44,1.15
21.66,1.20
21.87,1.24
22.09,1.29
22.31,1.34
22.54,1.40
22.76,1.43
22.99,1.48
23.22,1.54
23.45,1.57
23.69,1.62
23.92,1.68
24.16,1.71
24.40,1.76
24.65,1.82
24.89,1.85
25.14,1.90
25.39,1.94
25.65,1.99
25.91,2.03
26.16,2.07
26.43,2.12
26.69,2.16
26.96,2.19
27.23,2.24
27.50,2.27
27.77,2.30
28.05,2.34
28.33,2.38
28.62,2.42
28.90,2.45
29.19,2.47
29.48,2.51
29.78,2.55
30.08,2.58
30.38,2.61
30.68,2.64
30.99,2.66
31.30,2.70
31.61,2.73
31.93,2.75
32.24,2.79
32.57,2.80
32.89,2.85
33.22,2.86
33.55,2.89
33.89,2.91
34.23,2.94
34.57,2.95
34.92,2.99
35.27,2.99
35.62,3.03
35.97,3.03
36.33,3.07
36.70,3.08
37.06,3.10
37.43,3.13
37.81,3.13
38.19,3.15
38.57,3.17
38.95,3.17
39.34,3.17
39.74,3.22
40.14,3.22
40.54,3.22
40.94,3.22
41.35,3.22
41.76,3.22
42.18,3.22
42.60,3.22
43.03,3.22
43.46,3.22
43.90,3.22
44.33,3.22
44.78,3.22
45.23,3.22
45.68,3.22
46.13,3.22
46.60,3.17
47.06,3.17
47.53,3.15
48.01,3.13
48.49,3.11
48.97,3.08
49.46,3.05
49.96,3.03
50.46,2.99
50.96,2.96
51.47,2.93
51.99,2.89
52.51,2.84
53.03,2.81
53.56,2.76
54.10,2.70
54.64,2.66
55.18,2.59
55.74,2.54
56.29,2.50
56.86,2.45
57.42,2.39
58.00,2.33
58.58,2.27
59.16,2.21
59.76,2.17
60.35,2.12
60.96,2.07
61.57,2.00
62.18,1.94
62.80,1.91
63.43,1.85
64.07,1.80
64.71,1.75
65.35,1.71
66.01,1.66
66.67,1.61
67.33,1.57
68.01,1.52
68.69,1.46
69.37,1.40
70.07,1.34
70.77,1.29
71.48,1.24
72.19,1.17
72.91,1.10
73.64,1.04
74.38,0.96
75.12,0.91
75.87,0.87
76.63,0.82
77.40,0.76
78.17,0.70
78.95,0.66
79.74,0.61
80.54,0.57
81.35,0.54
82.16,0.52
82.98,0.50
83.81,0.47
84.65,0.47
85.50,0.47
86.35,0.42
87.22,0.42
88.09,0.42
88.97,0.42
89.86,0.38
90.76,0.38
91.66,0.38
92.58,0.38
93.51,0.33
94.44,0.33
95.39,0.33
96.34,0.29
97.30,0.28
98.28,0.24
99.26,0.22
100.25,0.19
101.25,0.16
102.27,0.13
103.29,0.08
104.32,0.04
105.37,-0.01
106.42,-0.06
107.48,-0.13
108.56,-0.19
109.64,-0.25
110.74,-0.30
111.85,-0.34
112.97,-0.39
114.10,-0.45
115.24,-0.48
116.39,-0.53
117.55,-0.58
118.73,-0.62
119.92,-0.65
121.12,-0.70
122.33,-0.75
123.55,-0.81
124.79,-0.86
126.03,-0.92
127.29,-1.00
128.57,-1.08
129.85,-1.15
131.15,-1.25
132.46,-1.34
133.79,-1.45
135.12,-1.58
136.48,-1.72
137.84,-1.87
139.22,-2.03
140.61,-2.19
142.02,-2.38
143.44,-2.56
144.87,-2.75
146.32,-2.93
147.78,-3.15
149.26,-3.35
150.75,-3.56
152.26,-3.80
153.78,-4.02
155.32,-4.28
156.88,-4.52
158.44,-4.77
160.03,-5.04
161.63,-5.32
163.24,-5.58
164.88,-5.86
166.53,-6.15
168.19,-6.44
169.87,-6.75
171.57,-7.07
173.29,-7.39
175.02,-7.70
176.77,-8.05
178.54,-8.36
180.32,-8.66
182.13,-8.93
183.95,-9.19
185.79,-9.41
187.65,-9.60
189.52,-9.78
191.42,-9.90
193.33,-10.03
195.27,-10.12
197.22,-10.21
199.19,-10.27
201.18,-10.32
203.19,-10.33
205.23,-10.33
207.28,-10.32
209.35,-10.26
211.44,-10.19
213.56,-10.12
215.69,-9.99
217.85,-9.88
220.03,-9.77
222.23,-9.64
224.45,-9.50
226.70,-9.35
228.96,-9.20
231.25,-9.06
233.57,-8.89
235.90,-8.76
238.26,-8.61
240.64,-8.45
243.05,-8.31
245.48,-8.14
247.93,-7.99
250.41,-7.84
252.92,-7.68
255.45,-7.52
258.00,-7.36
260.58,-7.22
263.19,-7.07
265.82,-6.91
268.48,-6.78
271.16,-6.62
273.87,-6.52
276.61,-6.36
279.38,-6.24
282.17,-6.12
284.99,-6.01
287.84,-5.90
290.72,-5.79
293.63,-5.69
296.57,-5.58
299.53,-5.47
302.53,-5.38
305.55,-5.27
308.61,-5.21
311.69,-5.11
314.81,-5.04
317.96,-4.96
321.14,-4.89
324.35,-4.82
327.59,-4.74
330.87,-4.67
334.18,-4.61
337.52,-4.54
340.90,-4.49
344.30,-4.44
347.75,-4.39
351.23,-4.33
354.74,-4.26
358.28,-4.21
361.87,-4.16
365.49,-4.11
369.14,-4.07
372.83,-4.01
376.56,-3.97
380.33,-3.93
384.13,-3.87
387.97,-3.82
391.85,-3.79
395.77,-3.73
399.73,-3.68
403.72,-3.65
407.76,-3.59
411.84,-3.54
415.96,-3.49
420.12,-3.45
424.32,-3.38
428.56,-3.32
432.85,-3.28
437.18,-3.23
441.55,-3.18
445.96,-3.13
450.42,-3.07
454.93,-3.04
459.48,-2.98
464.07,-2.93
468.71,-2.88
473.40,-2.85
478.13,-2.81
482.91,-2.79
487.74,-2.74
492.62,-2.74
497.55,-2.69
502.52,-2.69
507.55,-2.65
512.62,-2.65
517.75,-2.65
522.93,-2.63
528.16,-2.62
533.44,-2.65
538.77,-2.66
544.16,-2.72
549.60,-2.77
555.10,-2.85
560.65,-2.93
566.25,-3.01
571.92,-3.08
577.64,-3.11
583.41,-3.16
589.25,-3.16
595.14,-3.11
601.09,-3.06
607.10,-2.98
613.17,-2.88
619.30,-2.81
625.50,-2.71
631.75,-2.60
638.07,-2.52
644.45,-2.43
650.89,-2.32
657.40,-2.26
663.98,-2.15
670.62,-2.08
677.32,-1.98
684.10,-1.91
690.94,-1.81
697.85,-1.74
704.83,-1.68
711.87,-1.60
718.99,-1.52
726.18,-1.44
733.44,-1.39
740.78,-1.32
748.19,-1.24
755.67,-1.18
763.23,-1.13
770.86,-1.09
778.57,-1.04
786.35,-0.97
794.22,-0.93
802.16,-0.88
810.18,-0.82
818.28,-0.79
826.46,-0.74
834.73,-0.70
843.08,-0.65
851.51,-0.62
860.02,-0.58
868.62,-0.53
877.31,-0.50
886.08,-0.46
894.94,-0.42
903.89,-0.41
912.93,-0.37
922.06,-0.32
931.28,-0.29
940.59,-0.26
950.00,-0.23
959.50,-0.18
969.09,-0.15
978.78,-0.11
988.57,-0.06
998.46,-0.01
1008.44,0.03
1018.53,0.08
1028.71,0.13
1039.00,0.17
1049.39,0.22
1059.88,0.26
1070.48,0.31
1081.19,0.34
1092.00,0.39
1102.92,0.42
1113.95,0.45
1125.09,0.48
1136.34,0.52
1147.70,0.56
1159.18,0.60
1170.77,0.61
1182.48,0.66
1194.30,0.66
1206.25,0.70
1218.31,0.70
1230.49,0.75
1242.80,0.75
1255.22,0.80
1267.78,0.80
1280.45,0.82
1293.26,0.84
1306.19,0.84
1319.25,0.89
1332.45,0.89
1345.77,0.94
1359.23,0.94
1372.82,0.98
1386.55,1.02
1400.41,1.05
1414.42,1.11
1428.56,1.17
1442.85,1.24
1457.28,1.29
1471.85,1.36
1486.57,1.42
1501.43,1.48
1516.45,1.55
1531.61,1.61
1546.93,1.66
1562.40,1.71
1578.02,1.75
1593.80,1.78
1609.74,1.84
1625.84,1.87
1642.10,1.91
1658.52,1.95
1675.10,1.98
1691.85,2.03
1708.77,2.07
1725.86,2.12
1743.12,2.17
1760.55,2.22
1778.15,2.26
1795.94,2.32
1813.90,2.40
1832.03,2.47
1850.36,2.55
1868.86,2.64
1887.55,2.71
1906.42,2.81
1925.49,2.92
1944.74,3.01
1964.19,3.12
1983.83,3.24
2003.67,3.36
2023.71,3.49
2043.94,3.61
2064.38,3.73
2085.03,3.87
2105.88,3.99
2126.94,4.13
2148.20,4.26
2169.69,4.38
2191.38,4.50
2213.30,4.63
2235.43,4.78
2257.78,4.90
2280.36,5.05
2303.17,5.19
2326.20,5.31
2349.46,5.45
2372.95,5.56
2396.68,5.64
2420.65,5.74
2444.86,5.80
2469.31,5.83
2494.00,5.83
2518.94,5.79
2544.13,5.75
2569.57,5.69
2595.27,5.63
2621.22,5.57
2647.43,5.49
2673.90,5.42
2700.64,5.31
2727.65,5.25
2754.93,5.14
2782.48,5.05
2810.30,4.95
2838.40,4.84
2866.79,4.70
2895.46,4.59
2924.41,4.42
2953.65,4.26
2983.19,4.10
3013.02,3.93
3043.15,3.80
3073.58,3.72
3104.32,3.70
3135.36,3.76
3166.72,3.93
3198.38,4.13
3230.37,4.40
3262.67,4.70
3295.30,5.02
3328.25,5.35
3361.53,5.64
3395.15,5.94
3429.10,6.16
3463.39,6.39
3498.03,6.58
3533.01,6.72
3568.34,6.82
3604.02,6.91
3640.06,6.94
3676.46,6.94
3713.22,6.92
3750.36,6.87
3787.86,6.82
3825.74,6.76
3864.00,6.68
3902.64,6.60
3941.66,6.51
3981.08,6.38
4020.89,6.25
4061.10,6.07
4101.71,5.88
4142.73,5.65
4184.15,5.39
4226.00,5.13
4268.26,4.84
4310.94,4.55
4354.05,4.27
4397.59,3.96
4441.56,3.68
4485.98,3.38
4530.84,3.08
4576.15,2.75
4621.91,2.43
4668.13,2.08
4714.81,1.73
4761.96,1.37
4809.58,0.99
4857.67,0.59
4906.25,0.19
4955.31,-0.21
5004.87,-0.60
5054.91,-0.98
5105.46,-1.38
5156.52,-1.74
5208.08,-2.09
5260.16,-2.38
5312.77,-2.66
5365.89,-2.90
5419.55,-3.15
5473.75,-3.38
5528.49,-3.63
5583.77,-3.85
5639.61,-3.97
5696.00,-3.99
5752.96,-3.82
5810.49,-3.50
5868.60,-3.10
5927.28,-2.61
5986.56,-2.02
6046.42,-1.47
6106.89,-0.92
6167.96,-0.43
6229.64,-0.05
6291.93,0.26
6354.85,0.53
6418.40,0.77
6482.58,0.99
6547.41,1.19
6612.88,1.32
6679.01,1.42
6745.80,1.49
6813.26,1.46
6881.39,1.38
6950.21,1.27
7019.71,1.11
7089.91,0.91
7160.81,0.73
7232.41,0.52
7304.74,0.35
7377.79,0.22
7451.56,0.11
7526.08,0.06
7601.34,0.12
7677.35,0.22
7754.13,0.34
7831.67,0.49
7909.98,0.65
7989.08,0.80
8068.98,0.93
8149.67,0.98
8231.16,0.97
8313.47,0.91
8396.61,0.73
8480.57,0.51
8565.38,0.27
8651.03,-0.03
8737.54,-0.34
8824.92,-0.67
8913.17,-0.96
9002.30,-1.23
9092.32,-1.44
9183.25,-1.57
9275.08,-1.66
9367.83,-1.65
9461.51,-1.56
9556.12,-1.47
9651.68,-1.37
9748.20,-1.37
9845.68,-1.51
9944.14,-1.72
10043.58,-2.00
10144.02,-2.38
10245.46,-2.79
10347.91,-3.20
10451.39,-3.62
10555.91,-3.98
10661.46,-4.27
10768.08,-4.51
10875.76,-4.70
10984.52,-4.81
11094.36,-4.91
11205.31,-5.00
11317.36,-5.02
11430.53,-4.98
11544.84,-4.86
11660.29,-4.68
11776.89,-4.43
11894.66,-4.11
12013.60,-3.74
12133.74,-3.31
12255.08,-2.87
12377.63,-2.42
12501.41,-2.04
12626.42,-1.73
12752.68,-1.48
12880.21,-1.33
13009.01,-1.37
13139.10,-1.58
13270.49,-1.92
13403.20,-2.41
13537.23,-3.07
13672.60,-3.82
13809.33,-4.65
13947.42,-5.51
14086.90,-6.35
14227.77,-7.07
14370.04,-7.64
14513.74,-8.06
14658.88,-8.33
14805.47,-8.44
14953.52,-8.39
15103.06,-8.18
15254.09,-7.86
15406.63,-7.45
15560.70,-6.91
15716.30,-6.26
15873.47,-5.50
16032.20,-4.73
16192.52,-4.02
16354.45,-3.44
16517.99,-3.03
16683.17,-2.87
16850.01,-3.17
17018.51,-3.63
17188.69,-4.32
17360.58,-5.09
17534.18,-5.88
17709.53,-6.61
17886.62,-7.16
18065.49,-7.55
18246.14,-7.78
18428.60,-7.82
18612.89,-7.72
18799.02,-7.61
18987.01,-7.49
19176.88,-7.45
19368.65,-7.48
19562.33,-7.51
19757.96,-7.61
19955.54,-7.66
