frequency,raw
20.00,-24.60
20.20,-24.49
20.40,-24.38
20.61,-24.27
20.81,-24.16
21.02,-24.05
21.23,-23.94
21.44,-23.83
21.66,-23.72
21.87,-23.61
22.09,-23.51
22.31,-23.40
22.54,-23.31
22.76,-23.20
22.99,-23.06
23.22,-22.87
23.45,-22.69
23.69,-22.49
23.92,-22.31
24.16,-22.13
24.40,-21.93
24.65,-21.76
24.89,-21.59
25.14,-21.39
25.39,-21.20
25.65,-21.03
25.91,-20.86
26.16,-20.68
26.43,-20.52
26.69,-20.33
26.96,-20.16
27.23,-19.98
27.50,-19.80
27.77,-19.63
28.05,-19.47
28.33,-19.28
28.62,-19.12
28.90,-18.93
29.19,-18.77
29.48,-18.59
29.78,-18.41
30.08,-18.24
30.38,-18.06
30.68,-17.86
30.99,-17.68
31.30,-17.51
31.61,-17.34
31.93,-17.13
32.24,-16.95
32.57,-16.76
32.89,-16.57
33.22,-16.39
33.55,-16.20
33.89,-15.99
34.23,-15.80
34.57,-15.59
34.92,-15.41
35.27,-15.20
35.62,-14.98
35.97,-14.80
36.33,-14.59
36.70,-14.38
37.06,-14.17
37.43,-13.96
37.81,-13.75
38.19,-13.55
38.57,-13.33
38.95,-13.11
39.34,-12.90
39.74,-12.70
40.14,-12.48
40.54,-12.27
40.94,-12.05
41.35,-11.83
41.76,-11.61
42.18,-11.40
42.60,-11.18
43.03,-10.98
43.46,-10.77
43.90,-10.55
44.33,-10.35
44.78,-10.16
45.23,-9.94
45.68,-9.73
46.13,-9.55
46.60,-9.36
47.06,-9.16
47.53,-8.94
48.01,-8.75
48.49,-8.53
48.97,-8.31
49.46,-8.10
49.96,-7.88
50.46,-7.66
50.96,-7.42
51.47,-7.22
51.99,-7.01
52.51,-6.79
53.03,-6.56
53.56,-6.33
54.10,-6.11
54.64,-5.87
55.18,-5.65
55.74,-5.41
56.29,-5.19
56.86,-4.93
57.42,-4.71
58.00,-4.47
58.58,-4.23
59.16,-4.01
59.76,-3.78
60.35,-3.55
60.96,-3.33
61.57,-3.12
62.18,-2.90
62.80,-2.68
63.43,-2.46
64.07,-2.25
64.71,-2.05
65.35,-1.83
66.01,-1.64
66.67,-1.47
67.33,-1.29
68.01,-1.10
68.69,-0.94
69.37,-0.79
70.07,-0.66
70.77,-0.50
71.48,-0.38
72.19,-0.26
72.91,-0.15
73.64,-0.06
74.38,0.02
75.12,0.10
75.87,0.16
76.63,0.21
77.40,0.26
78.17,0.28
78.95,0.33
79.74,0.33
80.54,0.33
81.35,0.33
82.16,0.28
82.98,0.26
83.81,0.21
84.65,0.16
85.50,0.12
86.35,0.07
87.22,-0.01
88.09,-0.08
88.97,-0.14
89.86,-0.24
90.76,-0.31
91.66,-0.42
92.58,-0.48
93.51,-0.59
94.44,-0.68
95.39,-0.76
96.34,-0.87
97.30,-0.96
98.28,-1.04
99.26,-1.15
100.25,-1.24
101.25,-1.32
102.27,-1.43
103.29,-1.49
104.32,-1.58
105.37,-1.65
106.42,-1.70
107.48,-1.77
108.56,-1.83
109.64,-1.87
110.74,-1.91
111.85,-1.95
112.97,-1.96
114.10,-2.01
115.24,-2.01
116.39,-2.01
117.55,-2.01
118.73,-2.01
119.92,-2.01
121.12,-2.01
122.33,-2.01
123.55,-2.01
124.79,-2.02
126.03,-2.05
127.29,-2.10
128.57,-2.14
129.85,-2.20
131.15,-2.26
132.46,-2.33
133.79,-2.39
135.12,-2.45
136.48,-2.52
137.84,-2.58
139.22,-2.61
140.61,-2.67
142.02,-2.72
143.44,-2.75
144.87,-2.81
146.32,-2.86
147.78,-2.89
149.26,-2.94
150.75,-2.98
152.26,-3.01
153.78,-3.06
155.32,-3.10
156.88,-3.13
158.44,-3.16
160.03,-3.21
161.63,-3.24
163.24,-3.30
164.88,-3.34
166.53,-3.38
168.19,-3.43
169.87,-3.47
171.57,-3.50
173.29,-3.55
175.02,-3.59
176.77,-3.62
178.54,-3.64
180.32,-3.68
182.13,-3.71
183.95,-3.73
185.79,-3.77
187.65,-3.78
189.52,-3.82
191.42,-3.87
193.33,-3.88
195.27,-3.92
197.22,-3.92
199.19,-3.96
201.18,-3.98
203.19,-4.01
205.23,-4.04
207.28,-4.07
209.35,-4.10
211.44,-4.13
213.56,-4.15
215.69,-4.19
217.85,-4.20
220.03,-4.24
222.23,-4.24
224.45,-4.29
226.70,-4.29
228.96,-4.29
231.25,-4.34
233.57,-4.34
235.90,-4.38
238.26,-4.38
240.64,-4.38
243.05,-4.38
245.48,-4.41
247.93,-4.43
250.41,-4.43
252.92,-4.43
255.45,-4.43
258.00,-4.48
260.58,-4.48
263.19,-4.48
265.82,-4.52
268.48,-4.52
271.16,-4.52
273.87,-4.52
276.61,-4.57
279.38,-4.57
282.17,-4.57
284.99,-4.57
287.84,-4.59
290.72,-4.62
293.63,-4.62
296.57,-4.62
299.53,-4.62
302.53,-4.62
305.55,-4.62
308.61,-4.62
311.69,-4.62
314.81,-4.62
317.96,-4.62
321.14,-4.62
324.35,-4.60
327.59,-4.57
330.87,-4.56
334.18,-4.52
337.52,-4.52
340.90,-4.51
344.30,-4.48
347.75,-4.48
351.23,-4.48
354.74,-4.48
358.28,-4.48
361.87,-4.48
365.49,-4.48
369.14,-4.45
372.83,-4.45
376.56,-4.45
380.33,-4.43
384.13,-4.43
387.97,-4.43
391.85,-4.43
395.77,-4.43
399.73,-4.42
403.72,-4.38
407.76,-4.38
411.84,-4.38
415.96,-4.38
420.12,-4.37
424.32,-4.34
428.56,-4.34
432.85,-4.34
437.18,-4.34
441.55,-4.34
445.96,-4.29
450.42,-4.29
454.93,-4.29
459.48,-4.29
464.07,-4.29
468.71,-4.24
473.40,-4.24
478.13,-4.24
482.91,-4.20
487.74,-4.20
492.62,-4.17
497.55,-4.13
502.52,-4.07
507.55,-4.00
512.62,-3.92
517.75,-3.85
522.93,-3.77
528.16,-3.71
533.44,-3.68
538.77,-3.64
544.16,-3.59
549.60,-3.56
555.10,-3.53
560.65,-3.48
566.25,-3.44
571.92,-3.39
577.64,-3.36
583.41,-3.31
589.25,-3.27
595.14,-3.24
601.09,-3.21
607.10,-3.17
613.17,-3.13
619.30,-3.12
625.50,-3.06
631.75,-3.01
638.07,-2.96
644.45,-2.92
650.89,-2.84
657.40,-2.78
663.98,-2.73
670.62,-2.68
677.32,-2.60
684.10,-2.55
690.94,-2.52
697.85,-2.46
704.83,-2.41
711.87,-2.35
718.99,-2.27
726.18,-2.20
733.44,-2.09
740.78,-2.03
748.19,-1.92
755.67,-1.86
763.23,-1.80
770.86,-1.75
778.57,-1.70
786.35,-1.61
794.22,-1.54
802.16,-1.44
810.18,-1.33
818.28,-1.24
826.46,-1.16
834.73,-1.06
843.08,-1.00
851.51,-0.98
860.02,-0.98
868.62,-0.98
877.31,-0.93
886.08,-0.92
894.94,-0.89
903.89,-0.88
912.93,-0.84
922.06,-0.78
931.28,-0.69
940.59,-0.62
950.00,-0.52
959.50,-0.42
969.09,-0.35
978.78,-0.24
988.57,-0.15
998.46,-0.02
1008.44,0.13
1018.53,0.24
1028.71,0.40
1039.00,0.55
1049.39,0.72
1059.88,0.91
1070.48,1.09
1081.19,1.30
1092.00,1.50
1102.92,1.67
1113.95,1.85
1125.09,2.01
1136.34,2.18
1147.70,2.35
1159.18,2.51
1170.77,2.67
1182.48,2.83
1194.30,2.99
1206.25,3.16
1218.31,3.33
1230.49,3.49
1242.80,3.68
1255.22,3.77
1267.78,3.88
1280.45,3.94
1293.26,3.96
1306.19,3.92
1319.25,3.87
1332.45,3.84
1345.77,3.77
1359.23,3.71
1372.82,3.66
1386.55,3.56
1400.41,3.48
1414.42,3.37
1428.56,3.26
1442.85,3.17
1457.28,3.07
1471.85,2.96
1486.57,2.89
1501.43,2.84
1516.45,2.82
1531.61,2.78
1546.93,2.69
1562.40,2.62
1578.02,2.54
1593.80,2.49
1609.74,2.41
1625.84,2.29
1642.10,2.17
1658.52,2.04
1675.10,1.92
1691.85,1.84
1708.77,1.78
1725.86,1.70
1743.12,1.64
1760.55,1.59
1778.15,1.56
1795.94,1.51
1813.90,1.41
1832.03,1.31
1850.36,1.17
1868.86,1.07
1887.55,0.96
1906.42,0.85
1925.49,0.74
1944.74,0.61
1964.19,0.47
1983.83,0.37
2003.67,0.28
2023.71,0.25
2043.94,0.23
2064.38,0.23
2085.03,0.19
2105.88,0.19
2126.94,0.19
2148.20,0.23
2169.69,0.31
2191.38,0.42
2213.30,0.51
2235.43,0.64
2257.78,0.77
2280.36,0.88
2303.17,0.97
2326.20,1.05
2349.46,1.12
2372.95,1.06
2396.68,1.00
2420.65,0.92
2444.86,0.85
2469.31,0.77
2494.00,0.69
2518.94,0.64
2544.13,0.61
2569.57,0.65
2595.27,0.77
2621.22,0.94
2647.43,1.15
2673.90,1.39
2700.64,1.66
2727.65,1.93
2754.93,2.18
2782.48,2.38
2810.30,2.55
2838.40,2.67
2866.79,2.75
2895.46,2.88
2924.41,2.97
2953.65,3.13
2983.19,3.25
3013.02,3.35
3043.15,3.43
3073.58,3.45
3104.32,3.47
3135.36,3.40
3166.72,3.31
3198.38,3.23
3230.37,3.14
3262.67,3.09
3295.30,3.06
3328.25,3.01
3361.53,2.92
3395.15,2.79
3429.10,2.60
3463.39,2.38
3498.03,2.17
3533.01,1.92
3568.34,1.70
3604.02,1.47
3640.06,1.27
3676.46,1.10
3713.22,0.97
3750.36,0.86
3787.86,0.75
3825.74,0.66
3864.00,0.61
3902.64,0.64
3941.66,0.69
3981.08,0.67
4020.89,0.58
4061.10,0.52
4101.71,0.47
4142.73,0.50
4184.15,0.60
4226.00,0.76
4268.26,0.97
4310.94,1.19
4354.05,1.44
4397.59,1.72
4441.56,1.97
4485.98,2.18
4530.84,2.34
4576.15,2.46
4621.91,2.60
4668.13,2.73
4714.81,2.90
4761.96,3.06
4809.58,3.22
4857.67,3.39
4906.25,3.56
4955.31,3.73
5004.87,3.93
5054.91,4.13
5105.46,4.36
5156.52,4.60
5208.08,4.87
5260.16,5.12
5312.77,5.33
5365.89,5.51
5419.55,5.67
5473.75,5.78
5528.49,5.89
5583.77,5.98
5639.61,6.04
5696.00,6.09
5752.96,6.11
5810.49,6.05
5868.60,5.94
5927.28,5.81
5986.56,5.58
6046.42,5.30
6106.89,4.92
6167.96,4.50
6229.64,4.01
6291.93,3.58
6354.85,3.17
6418.40,2.84
6482.58,2.58
6547.41,2.36
6612.88,2.17
6679.01,1.97
6745.80,1.78
6813.26,1.64
6881.39,1.51
6950.21,1.42
7019.71,1.33
7089.91,1.21
7160.81,1.03
7232.41,0.80
7304.74,0.46
7377.79,0.01
7451.56,-0.58
7526.08,-1.27
7601.34,-2.08
7677.35,-2.86
7754.13,-3.55
7831.67,-4.03
7909.98,-3.91
7989.08,-3.41
8068.98,-2.58
8149.67,-1.65
8231.16,-0.71
8313.47,0.17
8396.61,0.94
8480.57,1.42
8565.38,1.72
8651.03,1.31
8737.54,0.61
8824.92,-0.43
8913.17,-1.80
9002.30,-3.39
9092.32,-5.14
9183.25,-7.00
9275.08,-9.06
9367.83,-11.20
9461.51,-13.40
9556.12,-15.31
9651.68,-16.74
9748.20,-17.04
9845.68,-15.67
9944.14,-13.67
10043.58,-11.09
10144.02,-8.60
10245.46,-6.39
10347.91,-4.58
10451.39,-3.28
10555.91,-2.40
10661.46,-1.90
10768.08,-1.80
10875.76,-1.96
10984.52,-2.16
11094.36,-2.33
11205.31,-2.50
11317.36,-2.67
11430.53,-2.90
11544.84,-3.27
11660.29,-3.76
11776.89,-4.24
11894.66,-4.60
12013.60,-4.74
12133.74,-4.25
12255.08,-3.48
12377.63,-2.58
12501.41,-1.71
12626.42,-1.09
12752.68,-0.86
12880.21,-1.36
13009.01,-1.98
13139.10,-2.70
13270.49,-3.29
13403.20,-3.74
13537.23,-3.96
13672.60,-4.31
13809.33,-4.97
13947.42,-6.06
14086.90,-7.61
14227.77,-9.55
14370.04,-11.40
14513.74,-12.93
14658.88,-14.69
14805.47,-15.71
14953.52,-16.41
15103.06,-17.08
15254.09,-16.84
15406.63,-15.87
15560.70,-14.95
15716.30,-13.63
15873.47,-11.96
16032.20,-10.67
16192.52,-9.26
16354.45,-7.93
16517.99,-6.94
16683.17,-6.31
16850.01,-5.88
17018.51,-5.65
17188.69,-5.41
17360.58,-5.17
17534.18,-4.90
17709.53,-4.63
17886.62,-4.45
18065.49,-4.38
18246.14,-4.81
18428.60,-5.87
18612.89,-7.21
18799.02,-8.63
18987.01,-10.00
19176.88,-10.93
19368.65,-10.84
19562.33,-10.48
19757.96,-9.88
19955.54,-9.38
