frequency,raw
20.00,-23.08
20.20,-23.02
20.40,-22.97
20.61,-22.91
20.81,-22.86
21.02,-22.80
21.23,-22.75
21.44,-22.69
21.66,-22.64
21.87,-22.55
22.09,-22.46
22.31,-22.34
22.54,-22.16
22.76,-21.95
22.99,-21.77
23.22,-21.56
23.45,-21.38
23.69,-21.18
23.92,-20.99
24.16,-20.78
24.40,-20.59
24.65,-20.39
24.89,-20.22
25.14,-20.01
25.39,-19.82
25.65,-19.61
25.91,-19.42
26.16,-19.24
26.43,-19.05
26.69,-18.84
26.96,-18.66
27.23,-18.44
27.50,-18.27
27.77,-18.05
28.05,-17.88
28.33,-17.66
28.62,-17.45
28.90,-17.28
29.19,-17.06
29.48,-16.84
29.78,-16.67
30.08,-16.45
30.38,-16.23
30.68,-16.06
30.99,-15.84
31.30,-15.63
31.61,-15.43
31.93,-15.24
32.24,-15.02
32.57,-14.83
32.89,-14.63
33.22,-14.41
33.55,-14.20
33.89,-14.02
34.23,-13.80
34.57,-13.59
34.92,-13.38
35.27,-13.20
35.62,-12.98
35.97,-12.76
36.33,-12.56
36.70,-12.35
37.06,-12.13
37.43,-11.94
37.81,-11.72
38.19,-11.48
38.57,-11.26
38.95,-11.04
39.34,-10.82
39.74,-10.59
40.14,-10.37
40.54,-10.11
40.94,-9.88
41.35,-9.62
41.76,-9.40
42.18,-9.14
42.60,-8.91
43.03,-8.67
43.46,-8.44
43.90,-8.19
44.33,-7.92
44.78,-7.65
45.23,-7.37
45.68,-7.10
46.13,-6.81
46.60,-6.54
47.06,-6.26
47.53,-5.99
48.01,-5.72
48.49,-5.46
48.97,-5.20
49.46,-4.92
49.96,-4.65
50.46,-4.40
50.96,-4.12
51.47,-3.86
51.99,-3.58
52.51,-3.31
53.03,-3.04
53.56,-2.77
54.10,-2.50
54.64,-2.25
55.18,-1.98
55.74,-1.71
56.29,-1.46
56.86,-1.18
57.42,-0.95
58.00,-0.67
58.58,-0.41
59.16,-0.16
59.76,0.12
60.35,0.36
60.96,0.63
61.57,0.87
62.18,1.11
62.80,1.33
63.43,1.54
64.07,1.76
64.71,1.98
65.35,2.17
66.01,2.39
66.67,2.59
67.33,2.78
68.01,2.98
68.69,3.15
69.37,3.34
70.07,3.54
70.77,3.70
71.48,3.86
72.19,4.03
72.91,4.16
73.64,4.29
74.38,4.40
75.12,4.49
75.87,4.57
76.63,4.64
77.40,4.66
78.17,4.68
78.95,4.68
79.74,4.66
80.54,4.65
81.35,4.61
82.16,4.56
82.98,4.49
83.81,4.43
84.65,4.32
85.50,4.22
86.35,4.10
87.22,3.96
88.09,3.82
88.97,3.68
89.86,3.53
90.76,3.36
91.66,3.21
92.58,3.07
93.51,2.89
94.44,2.75
95.39,2.58
96.34,2.44
97.30,2.28
98.28,2.14
99.26,2.02
100.25,1.86
101.25,1.74
102.27,1.60
103.29,1.49
104.32,1.35
105.37,1.25
106.42,1.14
107.48,1.00
108.56,0.87
109.64,0.76
110.74,0.65
111.85,0.55
112.97,0.46
114.10,0.35
115.24,0.24
116.39,0.16
117.55,0.07
118.73,-0.04
119.92,-0.10
121.12,-0.20
122.33,-0.27
123.55,-0.36
124.79,-0.43
126.03,-0.50
127.29,-0.57
128.57,-0.64
129.85,-0.72
131.15,-0.78
132.46,-0.85
133.79,-0.93
135.12,-1.01
136.48,-1.06
137.84,-1.14
139.22,-1.19
140.61,-1.25
142.02,-1.32
143.44,-1.38
144.87,-1.43
146.32,-1.47
147.78,-1.52
149.26,-1.59
150.75,-1.65
152.26,-1.71
153.78,-1.75
155.32,-1.79
156.88,-1.85
158.44,-1.88
160.03,-1.92
161.63,-1.96
163.24,-2.00
164.88,-2.03
166.53,-2.08
168.19,-2.11
169.87,-2.17
171.57,-2.20
173.29,-2.24
175.02,-2.27
176.77,-2.29
178.54,-2.34
180.32,-2.38
182.13,-2.39
183.95,-2.43
185.79,-2.47
187.65,-2.48
189.52,-2.52
191.42,-2.52
193.33,-2.57
195.27,-2.58
197.22,-2.62
199.19,-2.62
201.18,-2.66
203.19,-2.66
205.23,-2.71
207.28,-2.71
209.35,-2.75
211.44,-2.76
213.56,-2.76
215.69,-2.80
217.85,-2.80
220.03,-2.80
222.23,-2.85
224.45,-2.85
226.70,-2.85
228.96,-2.85
231.25,-2.86
233.57,-2.90
235.90,-2.90
238.26,-2.90
240.64,-2.90
243.05,-2.90
245.48,-2.94
247.93,-2.94
250.41,-2.94
252.92,-2.94
255.45,-2.94
258.00,-2.98
260.58,-2.99
263.19,-3.03
265.82,-3.06
268.48,-3.08
271.16,-3.08
273.87,-3.13
276.61,-3.13
279.38,-3.17
282.17,-3.18
284.99,-3.18
287.84,-3.20
290.72,-3.22
293.63,-3.22
296.57,-3.26
299.53,-3.27
302.53,-3.27
305.55,-3.28
308.61,-3.32
311.69,-3.32
314.81,-3.32
317.96,-3.32
321.14,-3.32
324.35,-3.32
327.59,-3.32
330.87,-3.32
334.18,-3.32
337.52,-3.32
340.90,-3.29
344.30,-3.27
347.75,-3.27
351.23,-3.27
354.74,-3.27
358.28,-3.27
361.87,-3.22
365.49,-3.22
369.14,-3.22
372.83,-3.22
376.56,-3.22
380.33,-3.18
384.13,-3.18
387.97,-3.18
391.85,-3.18
395.77,-3.18
399.73,-3.14
403.72,-3.13
407.76,-3.13
411.84,-3.13
415.96,-3.08
420.12,-3.08
424.32,-3.08
428.56,-3.08
432.85,-3.08
437.18,-3.04
441.55,-3.04
445.96,-3.04
450.42,-3.04
454.93,-3.04
459.48,-3.02
464.07,-2.99
468.71,-2.99
473.40,-2.94
478.13,-2.94
482.91,-2.94
487.74,-2.94
492.62,-2.90
497.55,-2.90
502.52,-2.89
507.55,-2.85
512.62,-2.80
517.75,-2.77
522.93,-2.74
528.16,-2.71
533.44,-2.71
538.77,-2.71
544.16,-2.66
549.60,-2.64
555.10,-2.62
560.65,-2.59
566.25,-2.56
571.92,-2.52
577.64,-2.50
583.41,-2.47
589.25,-2.43
595.14,-2.40
601.09,-2.38
607.10,-2.34
613.17,-2.34
619.30,-2.29
625.50,-2.29
631.75,-2.24
638.07,-2.21
644.45,-2.18
650.89,-2.15
657.40,-2.10
663.98,-2.08
670.62,-2.05
677.32,-2.00
684.10,-1.95
690.94,-1.91
697.85,-1.87
704.83,-1.83
711.87,-1.82
718.99,-1.79
726.18,-1.78
733.44,-1.73
740.78,-1.70
748.19,-1.66
755.67,-1.61
763.23,-1.54
770.86,-1.50
778.57,-1.45
786.35,-1.40
794.22,-1.36
802.16,-1.31
810.18,-1.28
818.28,-1.22
826.46,-1.19
834.73,-1.14
843.08,-1.10
851.51,-1.05
860.02,-1.02
868.62,-0.96
877.31,-0.91
886.08,-0.84
894.94,-0.78
903.89,-0.72
912.93,-0.65
922.06,-0.57
931.28,-0.51
940.59,-0.42
950.00,-0.36
959.50,-0.30
969.09,-0.24
978.78,-0.17
988.57,-0.09
998.46,-0.02
1008.44,0.08
1018.53,0.14
1028.71,0.25
1039.00,0.34
1049.39,0.45
1059.88,0.56
1070.48,0.67
1081.19,0.77
1092.00,0.88
1102.92,0.97
1113.95,1.08
1125.09,1.17
1136.34,1.27
1147.70,1.38
1159.18,1.49
1170.77,1.60
1182.48,1.69
1194.30,1.78
1206.25,1.86
1218.31,1.94
1230.49,2.00
1242.80,2.09
1255.22,2.15
1267.78,2.22
1280.45,2.32
1293.26,2.41
1306.19,2.52
1319.25,2.65
1332.45,2.76
1345.77,2.90
1359.23,3.02
1372.82,3.18
1386.55,3.33
1400.41,3.44
1414.42,3.60
1428.56,3.72
1442.85,3.86
1457.28,4.02
1471.85,4.16
1486.57,4.28
1501.43,4.44
1516.45,4.57
1531.61,4.70
1546.93,4.84
1562.40,4.95
1578.02,5.05
1593.80,5.19
1609.74,5.33
1625.84,5.45
1642.10,5.52
1658.52,5.56
1675.10,5.66
1691.85,5.77
1708.77,5.86
1725.86,5.94
1743.12,6.04
1760.55,6.10
1778.15,6.13
1795.94,6.21
1813.90,6.25
1832.03,6.32
1850.36,6.40
1868.86,6.51
1887.55,6.60
1906.42,6.68
1925.49,6.77
1944.74,6.88
1964.19,6.98
1983.83,7.07
2003.67,7.18
2023.71,7.24
2043.94,7.35
2064.38,7.46
2085.03,7.54
2105.88,7.63
2126.94,7.69
2148.20,7.72
2169.69,7.69
2191.38,7.69
2213.30,7.64
2235.43,7.61
2257.78,7.55
2280.36,7.52
2303.17,7.48
2326.20,7.44
2349.46,7.49
2372.95,7.58
2396.68,7.67
2420.65,7.79
2444.86,7.86
2469.31,7.90
2494.00,7.96
2518.94,8.01
2544.13,8.07
2569.57,8.10
2595.27,8.11
2621.22,8.07
2647.43,8.04
2673.90,8.00
2700.64,7.97
2727.65,7.92
2754.93,7.87
2782.48,7.83
2810.30,7.79
2838.40,7.79
2866.79,7.81
2895.46,7.86
2924.41,7.94
2953.65,8.00
2983.19,8.07
3013.02,8.15
3043.15,8.21
3073.58,8.28
3104.32,8.35
3135.36,8.35
3166.72,8.35
3198.38,8.40
3230.37,8.44
3262.67,8.44
3295.30,8.42
3328.25,8.34
3361.53,8.29
3395.15,8.25
3429.10,8.25
3463.39,8.23
3498.03,8.16
3533.01,8.07
3568.34,8.00
3604.02,7.89
3640.06,7.78
3676.46,7.68
3713.22,7.54
3750.36,7.36
3787.86,7.16
3825.74,6.92
3864.00,6.68
3902.64,6.46
3941.66,6.28
3981.08,6.12
4020.89,5.98
4061.10,5.82
4101.71,5.68
4142.73,5.50
4184.15,5.31
4226.00,5.11
4268.26,4.86
4310.94,4.59
4354.05,4.36
4397.59,4.09
4441.56,3.84
4485.98,3.60
4530.84,3.41
4576.15,3.25
4621.91,3.17
4668.13,3.20
4714.81,3.28
4761.96,3.34
4809.58,3.40
4857.67,3.38
4906.25,3.35
4955.31,3.35
5004.87,3.35
5054.91,3.40
5105.46,3.44
5156.52,3.49
5208.08,3.55
5260.16,3.66
5312.77,3.79
5365.89,4.00
5419.55,4.24
5473.75,4.55
5528.49,4.88
5583.77,5.19
5639.61,5.51
5696.00,5.76
5752.96,5.99
5810.49,6.17
5868.60,6.30
5927.28,6.37
5986.56,6.34
6046.42,6.28
6106.89,6.20
6167.96,6.06
6229.64,5.95
6291.93,5.80
6354.85,5.65
6418.40,5.50
6482.58,5.30
6547.41,5.07
6612.88,4.82
6679.01,4.53
6745.80,4.23
6813.26,3.90
6881.39,3.50
6950.21,3.09
7019.71,2.70
7089.91,2.26
7160.81,1.81
7232.41,1.33
7304.74,0.75
7377.79,0.06
7451.56,-0.81
7526.08,-1.81
7601.34,-2.96
7677.35,-4.21
7754.13,-5.39
7831.67,-6.33
7909.98,-6.96
7989.08,-7.12
8068.98,-6.64
8149.67,-5.94
8231.16,-5.10
8313.47,-4.28
8396.61,-3.64
8480.57,-3.20
8565.38,-3.10
8651.03,-3.56
8737.54,-4.21
8824.92,-5.03
8913.17,-5.86
9002.30,-6.54
9092.32,-6.97
9183.25,-6.92
9275.08,-6.64
9367.83,-6.14
9461.51,-5.39
9556.12,-4.43
9651.68,-3.20
9748.20,-1.80
9845.68,-0.32
9944.14,1.11
10043.58,2.41
10144.02,3.51
10245.46,4.38
10347.91,4.93
10451.39,5.20
10555.91,4.84
10661.46,4.28
10768.08,3.50
10875.76,2.56
10984.52,1.67
11094.36,0.92
11205.31,0.32
11317.36,-0.07
11430.53,-0.31
11544.84,-0.30
11660.29,-0.16
11776.89,0.05
11894.66,0.23
12013.60,0.45
12133.74,0.61
12255.08,0.72
12377.63,0.71
12501.41,0.58
12626.42,0.34
12752.68,-0.16
12880.21,-0.98
13009.01,-2.21
13139.10,-3.86
13270.49,-5.77
13403.20,-7.58
13537.23,-9.03
13672.60,-9.97
13809.33,-9.77
13947.42,-8.85
14086.90,-7.62
14227.77,-6.36
14370.04,-5.22
14513.74,-4.47
14658.88,-4.07
14805.47,-4.25
14953.52,-4.50
15103.06,-4.77
15254.09,-4.99
15406.63,-5.13
15560.70,-4.96
15716.30,-4.54
15873.47,-3.96
16032.20,-3.24
16192.52,-2.54
16354.45,-1.98
16517.99,-1.55
16683.17,-1.59
16850.01,-1.88
17018.51,-2.26
17188.69,-2.73
17360.58,-3.29
17534.18,-3.96
17709.53,-4.78
17886.62,-5.68
18065.49,-6.45
18246.14,-7.05
18428.60,-7.43
18612.89,-7.32
18799.02,-7.20
18987.01,-7.05
19176.88,-7.02
19368.65,-7.10
19562.33,-7.26
19757.96,-7.50
19955.54,-7.65
