frequency,raw
20.00,-0.85
20.20,-0.84
20.40,-0.76
20.61,-0.65
20.81,-0.57
21.02,-0.47
21.23,-0.39
21.44,-0.28
21.66,-0.18
21.87,-0.10
22.09,0.00
22.31,0.09
22.54,0.19
22.76,0.29
22.99,0.37
23.22,0.48
23.45,0.56
23.69,0.66
23.92,0.75
24.16,0.85
24.40,0.94
24.65,1.03
24.89,1.13
25.14,1.21
25.39,1.32
25.65,1.41
25.91,1.50
26.16,1.61
26.43,1.69
26.69,1.79
26.96,1.87
27.23,1.97
27.50,2.08
27.77,2.16
28.05,2.26
28.33,2.34
28.62,2.45
28.90,2.53
29.19,2.63
29.48,2.71
29.78,2.82
30.08,2.90
30.38,2.98
30.68,3.08
30.99,3.18
31.30,3.27
31.61,3.35
31.93,3.45
32.24,3.53
32.57,3.61
32.89,3.72
33.22,3.82
33.55,3.88
33.89,3.98
34.23,4.08
34.57,4.15
34.92,4.25
35.27,4.32
35.62,4.41
35.97,4.51
36.33,4.57
36.70,4.68
37.06,4.75
37.43,4.84
37.81,4.94
38.19,5.00
38.57,5.11
38.95,5.17
39.34,5.27
39.74,5.33
40.14,5.42
40.54,5.49
40.94,5.59
41.35,5.66
41.76,5.74
42.18,5.82
42.60,5.89
43.03,5.96
43.46,6.04
43.90,6.10
44.33,6.18
44.78,6.25
45.23,6.32
45.68,6.40
46.13,6.46
46.60,6.52
47.06,6.60
47.53,6.65
48.01,6.72
48.49,6.79
48.97,6.87
49.46,6.92
49.96,6.99
50.46,7.04
50.96,7.08
51.47,7.13
51.99,7.18
52.51,7.24
53.03,7.30
53.56,7.33
54.10,7.38
54.64,7.41
55.18,7.46
55.74,7.50
56.29,7.55
56.86,7.58
57.42,7.61
58.00,7.64
58.58,7.67
59.16,7.71
59.76,7.72
60.35,7.76
60.96,7.76
61.57,7.80
62.18,7.80
62.80,7.84
63.43,7.84
64.07,7.84
64.71,7.88
65.35,7.89
66.01,7.89
66.67,7.92
67.33,7.93
68.01,7.96
68.69,7.97
69.37,8.02
70.07,8.02
70.77,8.06
71.48,8.06
72.19,8.06
72.91,8.08
73.64,8.10
74.38,8.10
75.12,8.10
75.87,8.10
76.63,8.10
77.40,8.10
78.17,8.14
78.95,8.15
79.74,8.15
80.54,8.15
81.35,8.15
82.16,8.18
82.98,8.19
83.81,8.19
84.65,8.23
85.50,8.23
86.35,8.23
87.22,8.28
88.09,8.28
88.97,8.28
89.86,8.32
90.76,8.32
91.66,8.32
92.58,8.32
93.51,8.32
94.44,8.32
95.39,8.32
96.34,8.32
97.30,8.32
98.28,8.32
99.26,8.32
100.25,8.28
101.25,8.28
102.27,8.23
103.29,8.23
104.32,8.19
105.37,8.16
106.42,8.13
107.48,8.10
108.56,8.05
109.64,8.00
110.74,7.95
111.85,7.91
112.97,7.86
114.10,7.79
115.24,7.72
116.39,7.67
117.55,7.59
118.73,7.52
119.92,7.44
121.12,7.37
122.33,7.28
123.55,7.19
124.79,7.12
126.03,7.02
127.29,6.96
128.57,6.85
129.85,6.77
131.15,6.69
132.46,6.59
133.79,6.53
135.12,6.42
136.48,6.36
137.84,6.26
139.22,6.20
140.61,6.10
142.02,6.04
143.44,5.94
144.87,5.88
146.32,5.77
147.78,5.71
149.26,5.61
150.75,5.55
152.26,5.45
153.78,5.34
155.32,5.28
156.88,5.18
158.44,5.11
160.03,5.02
161.63,4.93
163.24,4.85
164.88,4.75
166.53,4.66
168.19,4.57
169.87,4.46
171.57,4.38
173.29,4.28
175.02,4.18
176.77,4.07
178.54,4.00
180.32,3.91
182.13,3.83
183.95,3.76
185.79,3.70
187.65,3.63
189.52,3.57
191.42,3.53
193.33,3.50
195.27,3.47
197.22,3.42
199.19,3.42
201.18,3.38
203.19,3.38
205.23,3.38
207.28,3.34
209.35,3.34
211.44,3.34
213.56,3.34
215.69,3.29
217.85,3.29
220.03,3.28
222.23,3.25
224.45,3.23
226.70,3.20
228.96,3.16
231.25,3.14
233.57,3.11
235.90,3.08
238.26,3.05
240.64,3.02
243.05,2.99
245.48,2.96
247.93,2.95
250.41,2.90
252.92,2.87
255.45,2.86
258.00,2.82
260.58,2.78
263.19,2.75
265.82,2.72
268.48,2.69
271.16,2.64
273.87,2.61
276.61,2.58
279.38,2.53
282.17,2.49
284.99,2.45
287.84,2.41
290.72,2.36
293.63,2.32
296.57,2.28
299.53,2.23
302.53,2.19
305.55,2.15
308.61,2.10
311.69,2.06
314.81,2.01
317.96,1.95
321.14,1.89
324.35,1.84
327.59,1.80
330.87,1.75
334.18,1.70
337.52,1.65
340.90,1.60
344.30,1.55
347.75,1.50
351.23,1.45
354.74,1.40
358.28,1.34
361.87,1.31
365.49,1.25
369.14,1.21
372.83,1.17
376.56,1.13
380.33,1.10
384.13,1.05
387.97,1.02
391.85,0.97
395.77,0.93
399.73,0.88
403.72,0.84
407.76,0.80
411.84,0.75
415.96,0.71
420.12,0.67
424.32,0.62
428.56,0.58
432.85,0.54
437.18,0.49
441.55,0.43
445.96,0.40
450.42,0.35
454.93,0.30
459.48,0.27
464.07,0.22
468.71,0.19
473.40,0.14
478.13,0.09
482.91,0.05
487.74,-0.01
492.62,-0.06
497.55,-0.11
502.52,-0.15
507.55,-0.21
512.62,-0.25
517.75,-0.30
522.93,-0.36
528.16,-0.39
533.44,-0.42
538.77,-0.43
544.16,-0.43
549.60,-0.45
555.10,-0.45
560.65,-0.43
566.25,-0.43
571.92,-0.43
577.64,-0.39
583.41,-0.39
589.25,-0.39
595.14,-0.39
601.09,-0.37
607.10,-0.35
613.17,-0.35
619.30,-0.35
625.50,-0.35
631.75,-0.35
638.07,-0.35
644.45,-0.32
650.89,-0.30
657.40,-0.30
663.98,-0.30
670.62,-0.30
677.32,-0.30
684.10,-0.30
690.94,-0.30
697.85,-0.30
704.83,-0.30
711.87,-0.30
718.99,-0.30
726.18,-0.30
733.44,-0.30
740.78,-0.30
748.19,-0.30
755.67,-0.29
763.23,-0.28
770.86,-0.28
778.57,-0.26
786.35,-0.26
794.22,-0.26
802.16,-0.26
810.18,-0.26
818.28,-0.26
826.46,-0.22
834.73,-0.22
843.08,-0.22
851.51,-0.17
860.02,-0.17
868.62,-0.17
877.31,-0.13
886.08,-0.13
894.94,-0.13
903.89,-0.12
912.93,-0.09
922.06,-0.09
931.28,-0.09
940.59,-0.07
950.00,-0.04
959.50,-0.04
969.09,-0.04
978.78,-0.04
988.57,0.00
998.46,0.00
1008.44,0.00
1018.53,0.04
1028.71,0.04
1039.00,0.04
1049.39,0.04
1059.88,0.04
1070.48,0.04
1081.19,0.04
1092.00,0.05
1102.92,0.09
1113.95,0.09
1125.09,0.10
1136.34,0.15
1147.70,0.18
1159.18,0.23
1170.77,0.29
1182.48,0.35
1194.30,0.41
1206.25,0.47
1218.31,0.53
1230.49,0.59
1242.80,0.65
1255.22,0.71
1267.78,0.76
1280.45,0.84
1293.26,0.91
1306.19,1.00
1319.25,1.09
1332.45,1.20
1345.77,1.30
1359.23,1.42
1372.82,1.53
1386.55,1.67
1400.41,1.80
1414.42,1.95
1428.56,2.11
1442.85,2.27
1457.28,2.44
1471.85,2.62
1486.57,2.82
1501.43,3.03
1516.45,3.23
1531.61,3.48
1546.93,3.71
1562.40,3.96
1578.02,4.23
1593.80,4.50
1609.74,4.78
1625.84,5.06
1642.10,5.34
1658.52,5.62
1675.10,5.90
1691.85,6.16
1708.77,6.43
1725.86,6.69
1743.12,6.95
1760.55,7.21
1778.15,7.47
1795.94,7.71
1813.90,7.96
1832.03,8.22
1850.36,8.48
1868.86,8.74
1887.55,9.00
1906.42,9.27
1925.49,9.53
1944.74,9.80
1964.19,10.07
1983.83,10.33
2003.67,10.58
2023.71,10.84
2043.94,11.10
2064.38,11.34
2085.03,11.59
2105.88,11.83
2126.94,12.07
2148.20,12.29
2169.69,12.52
2191.38,12.75
2213.30,12.95
2235.43,13.16
2257.78,13.37
2280.36,13.60
2303.17,13.82
2326.20,14.07
2349.46,14.32
2372.95,14.57
2396.68,14.82
2420.65,15.05
2444.86,15.28
2469.31,15.46
2494.00,15.65
2518.94,15.81
2544.13,15.94
2569.57,16.04
2595.27,16.14
2621.22,16.23
2647.43,16.28
2673.90,16.34
2700.64,16.38
2727.65,16.42
2754.93,16.42
2782.48,16.46
2810.30,16.46
2838.40,16.51
2866.79,16.55
2895.46,16.61
2924.41,16.66
2953.65,16.71
2983.19,16.79
3013.02,16.83
3043.15,16.88
3073.58,16.90
3104.32,16.90
3135.36,16.90
3166.72,16.90
3198.38,16.89
3230.37,16.85
3262.67,16.83
3295.30,16.79
3328.25,16.74
3361.53,16.70
3395.15,16.66
3429.10,16.59
3463.39,16.52
3498.03,16.46
3533.01,16.40
3568.34,16.36
3604.02,16.31
3640.06,16.29
3676.46,16.29
3713.22,16.29
3750.36,16.30
3787.86,16.33
3825.74,16.33
3864.00,16.33
3902.64,16.33
3941.66,16.27
3981.08,16.21
4020.89,16.13
4061.10,16.01
4101.71,15.88
4142.73,15.73
4184.15,15.57
4226.00,15.41
4268.26,15.24
4310.94,15.06
4354.05,14.88
4397.59,14.71
4441.56,14.53
4485.98,14.37
4530.84,14.20
4576.15,14.07
4621.91,13.93
4668.13,13.84
4714.81,13.73
4761.96,13.67
4809.58,13.65
4857.67,13.71
4906.25,13.90
4955.31,14.19
5004.87,14.66
5054.91,15.26
5105.46,16.06
5156.52,16.99
5208.08,18.04
5260.16,19.09
5312.77,20.12
5365.89,20.99
5419.55,21.70
5473.75,22.20
5528.49,22.50
5583.77,22.50
5639.61,22.26
5696.00,21.89
5752.96,21.41
5810.49,20.86
5868.60,20.24
5927.28,19.59
5986.56,18.89
6046.42,18.19
6106.89,17.49
6167.96,16.78
6229.64,16.09
6291.93,15.37
6354.85,14.69
6418.40,14.04
6482.58,13.43
6547.41,12.85
6612.88,12.38
6679.01,11.95
6745.80,11.65
6813.26,11.44
6881.39,11.31
6950.21,11.27
7019.71,11.33
7089.91,11.41
7160.81,11.52
7232.41,11.60
7304.74,11.66
7377.79,11.66
7451.56,11.59
7526.08,11.42
7601.34,11.23
7677.35,10.94
7754.13,10.59
7831.67,10.20
7909.98,9.83
7989.08,9.41
8068.98,9.05
8149.67,8.74
8231.16,8.46
8313.47,8.25
8396.61,8.04
8480.57,7.80
8565.38,7.54
8651.03,7.20
8737.54,6.77
8824.92,6.26
8913.17,5.67
9002.30,5.00
9092.32,4.27
9183.25,3.48
9275.08,2.65
9367.83,1.77
9461.51,0.92
9556.12,0.15
9651.68,-0.52
9748.20,-0.99
9845.68,-1.28
9944.14,-1.16
10043.58,-0.83
10144.02,-0.33
10245.46,0.26
10347.91,0.81
10451.39,1.26
10555.91,1.55
10661.46,1.57
10768.08,1.33
10875.76,1.01
10984.52,0.60
11094.36,0.21
11205.31,-0.09
11317.36,-0.31
11430.53,-0.10
11544.84,0.36
11660.29,1.05
11776.89,1.96
11894.66,2.97
12013.60,4.05
12133.74,5.03
12255.08,5.81
12377.63,6.39
12501.41,6.73
12626.42,6.54
12752.68,6.12
12880.21,5.53
13009.01,4.74
13139.10,3.90
13270.49,3.01
13403.20,2.14
13537.23,1.45
13672.60,0.95
13809.33,0.61
13947.42,0.64
14086.90,0.94
14227.77,1.32
14370.04,1.80
14513.74,2.29
14658.88,2.70
14805.47,3.00
14953.52,3.14
15103.06,3.10
15254.09,3.01
15406.63,3.01
15560.70,3.20
15716.30,3.59
15873.47,4.06
16032.20,4.62
16192.52,5.18
16354.45,5.55
16517.99,5.79
16683.17,5.49
16850.01,4.94
17018.51,4.14
17188.69,3.14
17360.58,2.08
17534.18,1.07
17709.53,0.22
17886.62,-0.42
18065.49,-0.85
18246.14,-1.13
18428.60,-1.24
18612.89,-1.40
18799.02,-1.63
18987.01,-2.02
19176.88,-2.48
19368.65,-2.87
19562.33,-3.38
19757.96,-3.87
19955.54,-4.06
