frequency,raw
20.00,-8.87
20.20,-8.82
20.40,-8.72
20.61,-8.61
20.81,-8.48
21.02,-8.36
21.23,-8.24
21.44,-8.11
21.66,-7.99
21.87,-7.88
22.09,-7.76
22.31,-7.63
22.54,-7.52
22.76,-7.41
22.99,-7.28
23.22,-7.17
23.45,-7.05
23.69,-6.93
23.92,-6.83
24.16,-6.70
24.40,-6.59
24.65,-6.47
24.89,-6.37
25.14,-6.27
25.39,-6.16
25.65,-6.06
25.91,-5.94
26.16,-5.83
26.43,-5.73
26.69,-5.63
26.96,-5.53
27.23,-5.44
27.50,-5.34
27.77,-5.24
28.05,-5.13
28.33,-5.03
28.62,-4.93
28.90,-4.82
29.19,-4.72
29.48,-4.62
29.78,-4.51
30.08,-4.41
30.38,-4.31
30.68,-4.20
30.99,-4.11
31.30,-4.02
31.61,-3.92
31.93,-3.83
32.24,-3.75
32.57,-3.65
32.89,-3.56
33.22,-3.49
33.55,-3.38
33.89,-3.32
34.23,-3.22
34.57,-3.16
34.92,-3.06
35.27,-3.00
35.62,-2.94
35.97,-2.84
36.33,-2.78
36.70,-2.72
37.06,-2.63
37.43,-2.57
37.81,-2.52
38.19,-2.44
38.57,-2.39
38.95,-2.34
39.34,-2.28
39.74,-2.22
40.14,-2.17
40.54,-2.13
40.94,-2.08
41.35,-2.02
41.76,-1.96
42.18,-1.91
42.60,-1.87
43.03,-1.78
43.46,-1.74
43.90,-1.70
44.33,-1.65
44.78,-1.59
45.23,-1.53
45.68,-1.48
46.13,-1.44
46.60,-1.39
47.06,-1.36
47.53,-1.31
48.01,-1.28
48.49,-1.25
48.97,-1.22
49.46,-1.19
49.96,-1.15
50.46,-1.11
50.96,-1.11
51.47,-1.09
51.99,-1.07
52.51,-1.07
53.03,-1.07
53.56,-1.09
54.10,-1.11
54.64,-1.16
55.18,-1.20
55.74,-1.26
56.29,-1.34
56.86,-1.41
57.42,-1.50
58.00,-1.58
58.58,-1.67
59.16,-1.73
59.76,-1.80
60.35,-1.87
60.96,-1.94
61.57,-2.00
62.18,-2.05
62.80,-2.06
63.43,-2.06
64.07,-2.04
64.71,-2.00
65.35,-1.96
66.01,-1.88
66.67,-1.83
67.33,-1.76
68.01,-1.71
68.69,-1.67
69.37,-1.67
70.07,-1.67
70.77,-1.72
71.48,-1.72
72.19,-1.72
72.91,-1.72
73.64,-1.72
74.38,-1.72
75.12,-1.72
75.87,-1.72
76.63,-1.72
77.40,-1.74
78.17,-1.76
78.95,-1.76
79.74,-1.76
80.54,-1.76
81.35,-1.78
82.16,-1.80
82.98,-1.81
83.81,-1.85
84.65,-1.87
85.50,-1.90
86.35,-1.93
87.22,-1.96
88.09,-1.98
88.97,-2.01
89.86,-2.02
90.76,-2.06
91.66,-2.06
92.58,-2.11
93.51,-2.12
94.44,-2.15
95.39,-2.19
96.34,-2.21
97.30,-2.24
98.28,-2.27
99.26,-2.30
100.25,-2.32
101.25,-2.36
102.27,-2.39
103.29,-2.42
104.32,-2.45
105.37,-2.48
106.42,-2.50
107.48,-2.54
108.56,-2.55
109.64,-2.58
110.74,-2.61
111.85,-2.63
112.97,-2.67
114.10,-2.68
115.24,-2.71
116.39,-2.74
117.55,-2.77
118.73,-2.80
119.92,-2.83
121.12,-2.88
122.33,-2.91
123.55,-2.96
124.79,-2.99
126.03,-3.02
127.29,-3.05
128.57,-3.06
129.85,-3.10
131.15,-3.12
132.46,-3.15
133.79,-3.16
135.12,-3.19
136.48,-3.19
137.84,-3.23
139.22,-3.23
140.61,-3.28
142.02,-3.31
143.44,-3.32
144.87,-3.36
146.32,-3.38
147.78,-3.41
149.26,-3.45
150.75,-3.45
152.26,-3.49
153.78,-3.51
155.32,-3.54
156.88,-3.56
158.44,-3.58
160.03,-3.61
161.63,-3.62
163.24,-3.67
164.88,-3.68
166.53,-3.71
168.19,-3.73
169.87,-3.78
171.57,-3.82
173.29,-3.86
175.02,-3.91
176.77,-3.95
178.54,-4.02
180.32,-4.07
182.13,-4.13
183.95,-4.19
185.79,-4.23
187.65,-4.24
189.52,-4.27
191.42,-4.27
193.33,-4.27
195.27,-4.27
197.22,-4.23
199.19,-4.23
201.18,-4.19
203.19,-4.16
205.23,-4.13
207.28,-4.10
209.35,-4.08
211.44,-4.06
213.56,-4.06
215.69,-4.10
217.85,-4.10
220.03,-4.12
222.23,-4.14
224.45,-4.14
226.70,-4.19
228.96,-4.19
231.25,-4.19
233.57,-4.19
235.90,-4.19
238.26,-4.23
240.64,-4.23
243.05,-4.23
245.48,-4.23
247.93,-4.23
250.41,-4.23
252.92,-4.25
255.45,-4.25
258.00,-4.25
260.58,-4.25
263.19,-4.25
265.82,-4.25
268.48,-4.25
271.16,-4.25
273.87,-4.27
276.61,-4.27
279.38,-4.27
282.17,-4.27
284.99,-4.27
287.84,-4.27
290.72,-4.27
293.63,-4.32
296.57,-4.32
299.53,-4.32
302.53,-4.32
305.55,-4.36
308.61,-4.36
311.69,-4.36
314.81,-4.36
317.96,-4.40
321.14,-4.40
324.35,-4.41
327.59,-4.45
330.87,-4.45
334.18,-4.48
337.52,-4.49
340.90,-4.51
344.30,-4.53
347.75,-4.55
351.23,-4.58
354.74,-4.59
358.28,-4.62
361.87,-4.63
365.49,-4.66
369.14,-4.67
372.83,-4.71
376.56,-4.73
380.33,-4.75
384.13,-4.79
387.97,-4.79
391.85,-4.84
395.77,-4.84
399.73,-4.88
403.72,-4.88
407.76,-4.88
411.84,-4.92
415.96,-4.92
420.12,-4.92
424.32,-4.92
428.56,-4.92
432.85,-4.92
437.18,-4.92
441.55,-4.92
445.96,-4.92
450.42,-4.92
454.93,-4.88
459.48,-4.88
464.07,-4.84
468.71,-4.81
473.40,-4.78
478.13,-4.75
482.91,-4.70
487.74,-4.67
492.62,-4.62
497.55,-4.59
502.52,-4.54
507.55,-4.51
512.62,-4.48
517.75,-4.45
522.93,-4.43
528.16,-4.40
533.44,-4.45
538.77,-4.45
544.16,-4.49
549.60,-4.47
555.10,-4.43
560.65,-4.36
566.25,-4.28
571.92,-4.23
577.64,-4.19
583.41,-4.23
589.25,-4.25
595.14,-4.27
601.09,-4.19
607.10,-4.12
613.17,-3.99
619.30,-3.87
625.50,-3.76
631.75,-3.64
638.07,-3.54
644.45,-3.48
650.89,-3.41
657.40,-3.34
663.98,-3.28
670.62,-3.22
677.32,-3.17
684.10,-3.13
690.94,-3.04
697.85,-3.00
704.83,-2.95
711.87,-2.88
718.99,-2.81
726.18,-2.76
733.44,-2.69
740.78,-2.60
748.19,-2.54
755.67,-2.43
763.23,-2.33
770.86,-2.25
778.57,-2.13
786.35,-2.00
794.22,-1.88
802.16,-1.77
810.18,-1.63
818.28,-1.51
826.46,-1.40
834.73,-1.30
843.08,-1.21
851.51,-1.11
860.02,-1.05
868.62,-0.95
877.31,-0.89
886.08,-0.78
894.94,-0.72
903.89,-0.62
912.93,-0.56
922.06,-0.48
931.28,-0.41
940.59,-0.34
950.00,-0.27
959.50,-0.22
969.09,-0.16
978.78,-0.11
988.57,-0.06
998.46,-0.01
1008.44,0.04
1018.53,0.08
1028.71,0.11
1039.00,0.14
1049.39,0.19
1059.88,0.22
1070.48,0.23
1081.19,0.27
1092.00,0.27
1102.92,0.32
1113.95,0.32
1125.09,0.32
1136.34,0.32
1147.70,0.27
1159.18,0.27
1170.77,0.25
1182.48,0.23
1194.30,0.21
1206.25,0.19
1218.31,0.19
1230.49,0.19
1242.80,0.21
1255.22,0.23
1267.78,0.26
1280.45,0.27
1293.26,0.32
1306.19,0.33
1319.25,0.36
1332.45,0.39
1345.77,0.43
1359.23,0.49
1372.82,0.56
1386.55,0.61
1400.41,0.71
1414.42,0.77
1428.56,0.84
1442.85,0.93
1457.28,1.02
1471.85,1.12
1486.57,1.22
1501.43,1.32
1516.45,1.43
1531.61,1.51
1546.93,1.59
1562.40,1.65
1578.02,1.72
1593.80,1.81
1609.74,1.91
1625.84,2.05
1642.10,2.23
1658.52,2.39
1675.10,2.58
1691.85,2.81
1708.77,3.03
1725.86,3.24
1743.12,3.48
1760.55,3.68
1778.15,3.91
1795.94,4.14
1813.90,4.38
1832.03,4.59
1850.36,4.83
1868.86,5.04
1887.55,5.22
1906.42,5.41
1925.49,5.58
1944.74,5.76
1964.19,5.97
1983.83,6.17
2003.67,6.34
2023.71,6.52
2043.94,6.72
2064.38,6.93
2085.03,7.12
2105.88,7.32
2126.94,7.51
2148.20,7.66
2169.69,7.78
2191.38,7.91
2213.30,8.03
2235.43,8.13
2257.78,8.22
2280.36,8.30
2303.17,8.36
2326.20,8.46
2349.46,8.58
2372.95,8.78
2396.68,8.99
2420.65,9.20
2444.86,9.37
2469.31,9.51
2494.00,9.57
2518.94,9.57
2544.13,9.55
2569.57,9.52
2595.27,9.49
2621.22,9.44
2647.43,9.36
2673.90,9.29
2700.64,9.20
2727.65,9.14
2754.93,9.10
2782.48,9.07
2810.30,9.06
2838.40,9.01
2866.79,8.95
2895.46,8.86
2924.41,8.81
2953.65,8.76
2983.19,8.72
3013.02,8.72
3043.15,8.71
3073.58,8.66
3104.32,8.63
3135.36,8.59
3166.72,8.59
3198.38,8.61
3230.37,8.64
3262.67,8.63
3295.30,8.56
3328.25,8.46
3361.53,8.30
3395.15,8.11
3429.10,7.92
3463.39,7.72
3498.03,7.51
3533.01,7.26
3568.34,6.98
3604.02,6.67
3640.06,6.34
3676.46,6.01
3713.22,5.68
3750.36,5.33
3787.86,5.00
3825.74,4.69
3864.00,4.36
3902.64,4.07
3941.66,3.79
3981.08,3.57
4020.89,3.40
4061.10,3.29
4101.71,3.36
4142.73,3.55
4184.15,3.86
4226.00,4.26
4268.26,4.77
4310.94,5.38
4354.05,6.08
4397.59,6.93
4441.56,7.90
4485.98,8.93
4530.84,10.02
4576.15,11.07
4621.91,12.04
4668.13,12.88
4714.81,13.53
4761.96,13.96
4809.58,14.18
4857.67,14.05
4906.25,13.78
4955.31,13.42
5004.87,12.99
5054.91,12.57
5105.46,12.22
5156.52,11.89
5208.08,11.59
5260.16,11.31
5312.77,11.03
5365.89,10.78
5419.55,10.51
5473.75,10.30
5528.49,10.10
5583.77,9.93
5639.61,9.72
5696.00,9.55
5752.96,9.35
5810.49,9.19
5868.60,9.03
5927.28,8.87
5986.56,8.70
6046.42,8.50
6106.89,8.27
6167.96,8.05
6229.64,7.79
6291.93,7.60
6354.85,7.40
6418.40,7.24
6482.58,7.12
6547.41,7.02
6612.88,6.94
6679.01,6.88
6745.80,6.86
6813.26,6.86
6881.39,6.86
6950.21,6.86
7019.71,6.89
7089.91,6.90
7160.81,6.91
7232.41,6.95
7304.74,6.97
7377.79,7.02
7451.56,7.07
7526.08,7.11
7601.34,7.19
7677.35,7.27
7754.13,7.40
7831.67,7.50
7909.98,7.58
7989.08,7.52
8068.98,7.37
8149.67,7.15
8231.16,6.81
8313.47,6.38
8396.61,5.79
8480.57,5.03
8565.38,4.07
8651.03,2.95
8737.54,1.72
8824.92,0.37
8913.17,-1.02
9002.30,-2.37
9092.32,-3.63
9183.25,-4.73
9275.08,-5.57
9367.83,-6.18
9461.51,-6.57
9556.12,-6.74
9651.68,-6.55
9748.20,-6.08
9845.68,-5.34
9944.14,-4.40
10043.58,-3.26
10144.02,-2.08
10245.46,-0.89
10347.91,0.16
10451.39,0.97
10555.91,1.49
10661.46,1.75
10768.08,1.52
10875.76,1.19
10984.52,0.73
11094.36,0.20
11205.31,-0.44
11317.36,-1.02
11430.53,-1.52
11544.84,-1.92
11660.29,-1.75
11776.89,-1.42
11894.66,-1.03
12013.60,-0.67
12133.74,-0.44
12255.08,-0.29
12377.63,-0.26
12501.41,-0.37
12626.42,-0.61
12752.68,-0.90
12880.21,-1.26
13009.01,-1.54
13139.10,-1.76
13270.49,-1.73
13403.20,-1.59
13537.23,-1.34
13672.60,-0.93
13809.33,-0.44
13947.42,0.18
14086.90,0.72
14227.77,1.16
14370.04,1.22
14513.74,0.58
14658.88,-0.32
14805.47,-1.50
14953.52,-2.78
15103.06,-3.86
15254.09,-4.63
15406.63,-4.93
15560.70,-4.56
15716.30,-4.15
15873.47,-3.64
16032.20,-3.60
16192.52,-3.92
16354.45,-4.38
16517.99,-4.91
16683.17,-5.49
16850.01,-5.99
17018.51,-6.41
17188.69,-6.76
17360.58,-7.02
17534.18,-7.24
17709.53,-7.43
17886.62,-7.54
18065.49,-7.47
18246.14,-7.37
18428.60,-7.63
18612.89,-8.25
18799.02,-8.97
18987.01,-9.84
19176.88,-10.56
19368.65,-11.33
19562.33,-11.86
19757.96,-12.50
19955.54,-12.90
