frequency,raw,error,smoothed,error_smoothed,equalization,parametric_eq,equalized_raw,equalized_smoothed,target
20.00,-1.61,-4.04,-1.62,-4.05,4.05,0.51,2.45,2.43,2.43
20.20,-1.47,-3.90,-1.48,-3.91,3.91,0.52,2.44,2.43,2.43
20.40,-1.34,-3.77,-1.33,-3.76,3.76,0.54,2.42,2.43,2.43
20.61,-1.20,-3.63,-1.19,-3.62,3.62,0.55,2.42,2.43,2.43
20.81,-1.06,-3.49,-1.05,-3.48,3.48,0.57,2.42,2.43,2.43
21.02,-0.93,-3.36,-0.92,-3.34,3.34,0.58,2.42,2.43,2.43
21.23,-0.79,-3.21,-0.79,-3.21,3.21,0.60,2.42,2.42,2.43
21.44,-0.67,-3.09,-0.66,-3.08,3.08,0.62,2.42,2.42,2.43
21.66,-0.54,-2.96,-0.53,-2.95,2.95,0.63,2.42,2.42,2.43
21.87,-0.41,-2.84,-0.41,-2.83,2.83,0.65,2.42,2.42,2.42
22.09,-0.29,-2.71,-0.29,-2.71,2.71,0.67,2.42,2.42,2.42
22.31,-0.18,-2.60,-0.17,-2.59,2.59,0.69,2.42,2.42,2.42
22.54,-0.06,-2.48,-0.05,-2.47,2.47,0.71,2.41,2.42,2.42
22.76,0.06,-2.36,0.06,-2.36,2.36,0.72,2.42,2.42,2.42
22.99,0.17,-2.25,0.17,-2.25,2.25,0.74,2.42,2.42,2.42
23.22,0.27,-2.15,0.27,-2.14,2.14,0.76,2.42,2.42,2.42
23.45,0.38,-2.03,0.38,-2.04,2.04,0.79,2.42,2.42,2.42
23.69,0.47,-1.94,0.48,-1.94,1.94,0.81,2.41,2.42,2.42
23.92,0.57,-1.84,0.57,-1.84,1.84,0.83,2.42,2.41,2.41
24.16,0.67,-1.74,0.66,-1.75,1.75,0.85,2.42,2.41,2.41
24.40,0.75,-1.66,0.75,-1.66,1.66,0.87,2.41,2.41,2.41
24.65,0.83,-1.58,0.84,-1.57,1.57,0.90,2.41,2.41,2.41
24.89,0.91,-1.49,0.92,-1.49,1.49,0.92,2.41,2.41,2.41
25.14,0.99,-1.41,0.99,-1.41,1.41,0.94,2.41,2.41,2.41
25.39,1.06,-1.34,1.07,-1.34,1.34,0.96,2.40,2.40,2.41
25.65,1.13,-1.27,1.14,-1.27,1.27,0.99,2.40,2.40,2.40
25.91,1.20,-1.20,1.20,-1.20,1.20,1.01,2.40,2.40,2.40
26.16,1.26,-1.14,1.26,-1.14,1.14,1.03,2.40,2.40,2.40
26.43,1.32,-1.08,1.32,-1.08,1.08,1.06,2.40,2.40,2.40
26.69,1.38,-1.01,1.38,-1.02,1.02,1.08,2.40,2.40,2.40
26.96,1.43,-0.96,1.43,-0.96,0.96,1.10,2.40,2.39,2.40
27.23,1.48,-0.91,1.48,-0.91,0.91,1.12,2.40,2.39,2.39
27.50,1.52,-0.87,1.53,-0.87,0.87,1.14,2.39,2.39,2.39
27.77,1.56,-0.83,1.57,-0.82,0.82,1.16,2.39,2.39,2.39
28.05,1.61,-0.77,1.61,-0.78,0.78,1.18,2.39,2.39,2.39
28.33,1.64,-0.74,1.64,-0.74,0.74,1.20,2.39,2.38,2.39
28.62,1.67,-0.71,1.67,-0.71,0.71,1.22,2.38,2.38,2.38
28.90,1.70,-0.68,1.70,-0.68,0.68,1.24,2.38,2.38,2.38
29.19,1.72,-0.66,1.73,-0.65,0.65,1.25,2.37,2.38,2.38
29.48,1.75,-0.62,1.75,-0.63,0.63,1.27,2.38,2.38,2.38
29.78,1.76,-0.61,1.77,-0.61,0.61,1.28,2.37,2.37,2.37
30.08,1.78,-0.59,1.78,-0.59,0.59,1.29,2.37,2.37,2.37
30.38,1.79,-0.58,1.80,-0.57,0.57,1.30,2.37,2.37,2.37
30.68,1.81,-0.55,1.80,-0.56,0.56,1.31,2.38,2.37,2.37
30.99,1.82,-0.54,1.81,-0.55,0.55,1.32,2.38,2.36,2.36
31.30,1.81,-0.55,1.81,-0.55,0.55,1.33,2.36,2.36,2.36
31.61,1.81,-0.55,1.81,-0.55,0.55,1.33,2.36,2.36,2.36
31.93,1.80,-0.55,1.81,-0.55,0.55,1.33,2.35,2.35,2.36
32.24,1.79,-0.56,1.80,-0.55,0.55,1.34,2.35,2.35,2.35
32.57,1.79,-0.56,1.79,-0.56,0.56,1.34,2.35,2.35,2.35
32.89,1.77,-0.57,1.78,-0.57,0.57,1.33,2.34,2.35,2.35
33.22,1.77,-0.57,1.77,-0.57,0.57,1.33,2.35,2.34,2.34
33.55,1.75,-0.59,1.75,-0.59,0.59,1.33,2.34,2.34,2.34
33.89,1.73,-0.60,1.74,-0.60,0.60,1.32,2.33,2.34,2.34
34.23,1.71,-0.62,1.72,-0.61,0.61,1.32,2.33,2.33,2.33
34.57,1.70,-0.63,1.70,-0.63,0.63,1.31,2.33,2.33,2.33
34.92,1.68,-0.64,1.68,-0.64,0.64,1.31,2.33,2.32,2.33
35.27,1.66,-0.66,1.66,-0.66,0.66,1.30,2.32,2.32,2.32
35.62,1.64,-0.67,1.64,-0.68,0.68,1.29,2.32,2.32,2.32
35.97,1.61,-0.70,1.62,-0.69,0.69,1.28,2.31,2.31,2.31
36.33,1.60,-0.71,1.60,-0.71,0.71,1.27,2.31,2.31,2.31
36.70,1.57,-0.73,1.58,-0.73,0.73,1.26,2.30,2.31,2.31
37.06,1.55,-0.75,1.55,-0.75,0.75,1.25,2.30,2.30,2.30
37.43,1.53,-0.76,1.53,-0.77,0.77,1.25,2.30,2.30,2.30
37.81,1.50,-0.79,1.51,-0.79,0.79,1.24,2.29,2.29,2.29
38.19,1.48,-0.80,1.48,-0.81,0.81,1.23,2.29,2.29,2.29
38.57,1.45,-0.83,1.46,-0.83,0.83,1.22,2.28,2.28,2.28
38.95,1.43,-0.84,1.43,-0.85,0.85,1.21,2.28,2.28,2.28
39.34,1.40,-0.87,1.41,-0.87,0.87,1.21,2.27,2.27,2.27
39.74,1.38,-0.88,1.38,-0.89,0.89,1.20,2.27,2.27,2.27
40.14,1.35,-0.91,1.35,-0.91,0.91,1.20,2.26,2.26,2.26
40.54,1.32,-0.93,1.33,-0.93,0.93,1.19,2.25,2.25,2.25
40.94,1.30,-0.95,1.30,-0.95,0.95,1.19,2.25,2.25,2.25
41.35,1.27,-0.97,1.27,-0.97,0.97,1.18,2.24,2.24,2.24
41.76,1.25,-0.98,1.25,-0.99,0.99,1.18,2.24,2.24,2.24
42.18,1.22,-1.01,1.22,-1.01,1.01,1.18,2.23,2.23,2.23
42.60,1.19,-1.03,1.19,-1.03,1.03,1.18,2.22,2.22,2.22
43.03,1.16,-1.05,1.17,-1.05,1.05,1.18,2.21,2.22,2.22
43.46,1.13,-1.08,1.14,-1.07,1.07,1.18,2.20,2.21,2.21
43.90,1.11,-1.09,1.11,-1.09,1.09,1.18,2.20,2.20,2.20
44.33,1.08,-1.11,1.08,-1.11,1.11,1.19,2.19,2.19,2.19
44.78,1.05,-1.13,1.06,-1.13,1.13,1.19,2.18,2.19,2.19
45.23,1.03,-1.15,1.03,-1.15,1.15,1.20,2.18,2.18,2.18
45.68,1.00,-1.17,1.01,-1.17,1.17,1.20,2.17,2.17,2.17
46.13,0.98,-1.18,0.98,-1.18,1.18,1.21,2.17,2.16,2.16
46.60,0.95,-1.20,0.95,-1.20,1.20,1.22,2.15,2.15,2.15
47.06,0.93,-1.21,0.93,-1.22,1.22,1.22,2.15,2.15,2.15
47.53,0.90,-1.23,0.90,-1.23,1.23,1.23,2.14,2.14,2.14
48.01,0.88,-1.24,0.88,-1.25,1.25,1.24,2.13,2.13,2.13
48.49,0.85,-1.26,0.85,-1.26,1.26,1.26,2.12,2.12,2.12
48.97,0.83,-1.28,0.83,-1.28,1.28,1.27,2.11,2.11,2.11
49.46,0.80,-1.30,0.81,-1.29,1.29,1.28,2.09,2.10,2.10
49.96,0.78,-1.30,0.78,-1.30,1.30,1.29,2.09,2.09,2.09
50.46,0.76,-1.31,0.76,-1.32,1.32,1.31,2.08,2.08,2.08
50.96,0.73,-1.33,0.74,-1.33,1.33,1.32,2.06,2.07,2.07
51.47,0.71,-1.34,0.71,-1.34,1.34,1.33,2.05,2.05,2.05
51.99,0.69,-1.35,0.69,-1.35,1.35,1.35,2.05,2.04,2.04
52.51,0.66,-1.37,0.67,-1.36,1.36,1.36,2.03,2.03,2.03
53.03,0.64,-1.38,0.65,-1.37,1.37,1.38,2.02,2.02,2.02
53.56,0.62,-1.38,0.63,-1.38,1.38,1.39,2.00,2.01,2.01
54.10,0.61,-1.38,0.60,-1.39,1.39,1.41,2.00,1.99,1.99
54.64,0.58,-1.40,0.58,-1.40,1.40,1.42,1.98,1.98,1.98
55.18,0.56,-1.40,0.56,-1.40,1.40,1.43,1.97,1.97,1.97
55.74,0.54,-1.41,0.54,-1.41,1.41,1.44,1.95,1.95,1.95
56.29,0.52,-1.42,0.52,-1.41,1.41,1.46,1.94,1.94,1.94
56.86,0.50,-1.42,0.51,-1.42,1.42,1.47,1.92,1.92,1.92
57.42,0.49,-1.42,0.49,-1.42,1.42,1.48,1.91,1.91,1.91
58.00,0.47,-1.42,0.47,-1.42,1.42,1.48,1.90,1.89,1.89
58.58,0.45,-1.43,0.45,-1.42,1.42,1.49,1.88,1.88,1.88
59.16,0.44,-1.42,0.44,-1.43,1.43,1.49,1.87,1.86,1.86
59.76,0.41,-1.43,0.42,-1.43,1.43,1.50,1.84,1.85,1.85
60.35,0.40,-1.43,0.40,-1.43,1.43,1.50,1.83,1.83,1.83
60.96,0.38,-1.43,0.39,-1.42,1.42,1.50,1.81,1.81,1.81
61.57,0.37,-1.42,0.37,-1.42,1.42,1.50,1.79,1.79,1.79
62.18,0.36,-1.41,0.36,-1.42,1.42,1.49,1.78,1.78,1.78
62.80,0.34,-1.42,0.34,-1.42,1.42,1.49,1.76,1.76,1.76
63.43,0.33,-1.41,0.33,-1.41,1.41,1.48,1.74,1.74,1.74
64.07,0.31,-1.41,0.31,-1.41,1.41,1.47,1.72,1.72,1.72
64.71,0.30,-1.40,0.30,-1.40,1.40,1.46,1.70,1.70,1.70
65.35,0.28,-1.40,0.29,-1.39,1.39,1.44,1.68,1.68,1.68
66.01,0.26,-1.40,0.27,-1.39,1.39,1.43,1.65,1.66,1.66
66.67,0.26,-1.38,0.26,-1.38,1.38,1.41,1.64,1.64,1.64
67.33,0.25,-1.36,0.25,-1.37,1.37,1.39,1.62,1.62,1.62
68.01,0.23,-1.36,0.24,-1.36,1.36,1.37,1.59,1.59,1.60
68.69,0.22,-1.35,0.22,-1.35,1.35,1.35,1.57,1.57,1.57
69.37,0.21,-1.34,0.21,-1.34,1.34,1.33,1.55,1.55,1.55
70.07,0.20,-1.32,0.20,-1.33,1.33,1.30,1.53,1.53,1.53
70.77,0.19,-1.31,0.19,-1.31,1.31,1.28,1.51,1.50,1.50
71.48,0.18,-1.30,0.18,-1.30,1.30,1.25,1.48,1.48,1.48
72.19,0.16,-1.29,0.17,-1.29,1.29,1.23,1.45,1.45,1.45
72.91,0.16,-1.27,0.16,-1.27,1.27,1.20,1.43,1.43,1.43
73.64,0.14,-1.26,0.15,-1.26,1.26,1.17,1.40,1.40,1.40
74.38,0.13,-1.25,0.14,-1.24,1.24,1.14,1.37,1.38,1.38
75.12,0.13,-1.22,0.13,-1.22,1.22,1.11,1.36,1.35,1.35
75.87,0.12,-1.20,0.12,-1.21,1.21,1.09,1.33,1.33,1.33
76.63,0.10,-1.20,0.11,-1.19,1.19,1.06,1.29,1.30,1.30
77.40,0.09,-1.18,0.10,-1.17,1.17,1.03,1.26,1.27,1.27
78.17,0.09,-1.15,0.09,-1.15,1.15,1.00,1.25,1.24,1.24
78.95,0.08,-1.13,0.08,-1.13,1.13,0.97,1.22,1.22,1.22
79.74,0.07,-1.11,0.07,-1.11,1.11,0.94,1.19,1.19,1.19
80.54,0.06,-1.10,0.07,-1.09,1.09,0.92,1.15,1.16,1.16
81.35,0.06,-1.07,0.06,-1.07,1.07,0.89,1.13,1.13,1.13
82.16,0.05,-1.05,0.05,-1.05,1.05,0.86,1.10,1.10,1.10
82.98,0.04,-1.03,0.04,-1.03,1.03,0.83,1.07,1.07,1.07
83.81,0.04,-1.00,0.04,-1.00,1.00,0.81,1.05,1.04,1.04
84.65,0.02,-0.99,0.03,-0.98,0.98,0.78,1.00,1.01,1.01
85.50,0.02,-0.96,0.02,-0.96,0.96,0.76,0.98,0.98,0.98
86.35,0.01,-0.93,0.01,-0.93,0.93,0.73,0.95,0.95,0.95
87.22,0.00,-0.91,0.00,-0.91,0.91,0.71,0.91,0.92,0.92
88.09,0.00,-0.88,-0.00,-0.89,0.89,0.68,0.89,0.88,0.89
88.97,-0.01,-0.86,-0.01,-0.86,0.86,0.66,0.86,0.85,0.85
89.86,-0.02,-0.84,-0.02,-0.84,0.84,0.64,0.82,0.82,0.82
90.76,-0.03,-0.82,-0.03,-0.81,0.81,0.62,0.79,0.79,0.79
91.66,-0.04,-0.79,-0.03,-0.79,0.79,0.59,0.75,0.76,0.76
92.58,-0.05,-0.77,-0.04,-0.76,0.76,0.57,0.72,0.72,0.72
93.51,-0.05,-0.74,-0.05,-0.74,0.74,0.55,0.69,0.69,0.69
94.44,-0.05,-0.71,-0.05,-0.71,0.71,0.53,0.66,0.66,0.66
95.39,-0.06,-0.68,-0.06,-0.68,0.68,0.51,0.63,0.63,0.63
96.34,-0.07,-0.66,-0.06,-0.66,0.66,0.49,0.59,0.59,0.59
97.30,-0.07,-0.63,-0.07,-0.63,0.63,0.47,0.56,0.56,0.56
98.28,-0.08,-0.60,-0.08,-0.60,0.60,0.46,0.52,0.53,0.53
99.26,-0.08,-0.57,-0.08,-0.57,0.57,0.44,0.50,0.49,0.49
100.25,-0.09,-0.55,-0.09,-0.55,0.55,0.42,0.46,0.46,0.46
101.25,-0.09,-0.51,-0.09,-0.52,0.52,0.40,0.43,0.43,0.43
102.27,-0.10,-0.49,-0.10,-0.49,0.49,0.39,0.39,0.39,0.39
103.29,-0.10,-0.46,-0.10,-0.46,0.46,0.37,0.37,0.36,0.36
104.32,-0.11,-0.43,-0.11,-0.43,0.43,0.35,0.33,0.33,0.33
105.37,-0.11,-0.40,-0.11,-0.41,0.41,0.34,0.30,0.29,0.29
106.42,-0.13,-0.39,-0.12,-0.38,0.38,0.32,0.25,0.26,0.26
107.48,-0.13,-0.36,-0.12,-0.35,0.35,0.31,0.22,0.23,0.23
108.56,-0.13,-0.32,-0.13,-0.32,0.32,0.29,0.20,0.20,0.20
109.64,-0.13,-0.29,-0.13,-0.30,0.30,0.28,0.17,0.16,0.16
110.74,-0.14,-0.27,-0.14,-0.27,0.27,0.26,0.13,0.13,0.13
111.85,-0.14,-0.24,-0.14,-0.24,0.24,0.25,0.10,0.10,0.10
112.97,-0.15,-0.21,-0.15,-0.21,0.21,0.23,0.07,0.07,0.07
114.10,-0.16,-0.19,-0.15,-0.19,0.19,0.22,0.03,0.04,0.04
115.24,-0.15,-0.15,-0.15,-0.16,0.16,0.20,0.01,0.00,0.00
116.39,-0.16,-0.13,-0.16,-0.13,0.13,0.19,-0.03,-0.03,-0.03
117.55,-0.16,-0.10,-0.16,-0.10,0.10,0.17,-0.05,-0.06,-0.06
118.73,-0.17,-0.08,-0.16,-0.08,0.08,0.16,-0.09,-0.09,-0.09
119.92,-0.17,-0.05,-0.17,-0.05,0.05,0.15,-0.12,-0.12,-0.12
121.12,-0.18,-0.03,-0.17,-0.02,0.02,0.13,-0.15,-0.15,-0.15
122.33,-0.18,0.00,-0.18,0.00,-0.00,0.12,-0.18,-0.18,-0.18
123.55,-0.18,0.03,-0.18,0.03,-0.03,0.10,-0.21,-0.21,-0.21
124.79,-0.19,0.05,-0.18,0.05,-0.05,0.09,-0.24,-0.24,-0.24
126.03,-0.19,0.08,-0.19,0.08,-0.08,0.07,-0.27,-0.26,-0.26
127.29,-0.19,0.11,-0.19,0.10,-0.10,0.06,-0.29,-0.29,-0.29
128.57,-0.20,0.12,-0.19,0.13,-0.13,0.04,-0.33,-0.32,-0.32
129.85,-0.19,0.16,-0.20,0.15,-0.15,0.03,-0.34,-0.35,-0.35
131.15,-0.20,0.18,-0.20,0.18,-0.18,0.01,-0.37,-0.38,-0.38
132.46,-0.20,0.21,-0.20,0.20,-0.20,-0.01,-0.40,-0.40,-0.40
133.79,-0.21,0.22,-0.21,0.22,-0.22,-0.02,-0.43,-0.43,-0.43
135.12,-0.21,0.25,-0.21,0.25,-0.25,-0.04,-0.45,-0.46,-0.45
136.48,-0.22,0.26,-0.21,0.27,-0.27,-0.06,-0.49,-0.48,-0.48
137.84,-0.22,0.29,-0.21,0.29,-0.29,-0.07,-0.51,-0.51,-0.51
139.22,-0.22,0.31,-0.22,0.31,-0.31,-0.09,-0.53,-0.53,-0.53
140.61,-0.23,0.33,-0.22,0.34,-0.34,-0.11,-0.56,-0.56,-0.55
142.02,-0.22,0.36,-0.22,0.36,-0.36,-0.13,-0.57,-0.58,-0.58
143.44,-0.23,0.37,-0.23,0.38,-0.38,-0.14,-0.60,-0.60,-0.60
144.87,-0.23,0.40,-0.23,0.40,-0.40,-0.16,-0.62,-0.63,-0.62
146.32,-0.23,0.42,-0.23,0.42,-0.42,-0.18,-0.64,-0.65,-0.65
147.78,-0.24,0.43,-0.24,0.43,-0.43,-0.20,-0.67,-0.67,-0.67
149.26,-0.24,0.45,-0.24,0.45,-0.45,-0.22,-0.69,-0.69,-0.69
150.75,-0.25,0.46,-0.24,0.47,-0.47,-0.24,-0.72,-0.71,-0.71
152.26,-0.25,0.49,-0.25,0.49,-0.49,-0.26,-0.73,-0.73,-0.73
153.78,-0.25,0.51,-0.25,0.50,-0.50,-0.28,-0.75,-0.75,-0.75
155.32,-0.26,0.52,-0.25,0.52,-0.52,-0.30,-0.78,-0.77,-0.77
156.88,-0.26,0.54,-0.26,0.53,-0.53,-0.33,-0.79,-0.79,-0.79
158.44,-0.27,0.54,-0.26,0.55,-0.55,-0.35,-0.81,-0.81,-0.81
160.03,-0.27,0.56,-0.27,0.56,-0.56,-0.37,-0.83,-0.83,-0.83
161.63,-0.28,0.57,-0.27,0.58,-0.58,-0.39,-0.85,-0.85,-0.85
163.24,-0.28,0.59,-0.28,0.59,-0.59,-0.42,-0.86,-0.87,-0.87
164.88,-0.29,0.60,-0.28,0.60,-0.60,-0.44,-0.89,-0.88,-0.88
166.53,-0.29,0.61,-0.29,0.61,-0.61,-0.47,-0.90,-0.90,-0.90
168.19,-0.30,0.62,-0.30,0.62,-0.62,-0.49,-0.92,-0.92,-0.92
169.87,-0.31,0.63,-0.30,0.63,-0.63,-0.52,-0.94,-0.93,-0.93
171.57,-0.31,0.64,-0.31,0.64,-0.64,-0.54,-0.95,-0.95,-0.95
173.29,-0.32,0.65,-0.32,0.65,-0.65,-0.57,-0.97,-0.97,-0.97
175.02,-0.32,0.66,-0.32,0.66,-0.66,-0.60,-0.97,-0.98,-0.98
176.77,-0.34,0.66,-0.33,0.66,-0.66,-0.63,-1.00,-0.99,-0.99
178.54,-0.34,0.67,-0.34,0.67,-0.67,-0.66,-1.01,-1.01,-1.01
180.32,-0.35,0.68,-0.35,0.67,-0.67,-0.68,-1.02,-1.02,-1.02
182.13,-0.36,0.68,-0.36,0.68,-0.68,-0.71,-1.03,-1.04,-1.04
183.95,-0.38,0.67,-0.37,0.68,-0.68,-0.74,-1.06,-1.05,-1.05
185.79,-0.38,0.69,-0.38,0.68,-0.68,-0.78,-1.06,-1.06,-1.06
187.65,-0.39,0.69,-0.39,0.69,-0.69,-0.81,-1.07,-1.08,-1.08
189.52,-0.41,0.68,-0.40,0.69,-0.69,-0.84,-1.09,-1.09,-1.09
191.42,-0.41,0.69,-0.41,0.69,-0.69,-0.87,-1.09,-1.10,-1.10
193.33,-0.43,0.68,-0.43,0.69,-0.69,-0.90,-1.11,-1.11,-1.11
195.27,-0.44,0.69,-0.44,0.69,-0.69,-0.93,-1.12,-1.12,-1.12
197.22,-0.46,0.68,-0.45,0.69,-0.69,-0.97,-1.14,-1.13,-1.13
199.19,-0.46,0.69,-0.46,0.68,-0.68,-1.00,-1.14,-1.15,-1.15
201.18,-0.47,0.69,-0.47,0.68,-0.68,-1.03,-1.15,-1.16,-1.16
203.19,-0.49,0.68,-0.48,0.68,-0.68,-1.07,-1.17,-1.17,-1.17
205.23,-0.50,0.68,-0.50,0.68,-0.68,-1.10,-1.18,-1.18,-1.18
207.28,-0.51,0.68,-0.51,0.68,-0.68,-1.13,-1.19,-1.19,-1.19
209.35,-0.52,0.68,-0.52,0.68,-0.68,-1.16,-1.20,-1.20,-1.20
211.44,-0.53,0.68,-0.53,0.68,-0.68,-1.19,-1.21,-1.20,-1.20
213.56,-0.54,0.68,-0.54,0.68,-0.68,-1.22,-1.21,-1.21,-1.21
215.69,-0.55,0.67,-0.54,0.68,-0.68,-1.25,-1.23,-1.22,-1.22
217.85,-0.56,0.67,-0.55,0.68,-0.68,-1.28,-1.24,-1.23,-1.23
220.03,-0.56,0.68,-0.56,0.68,-0.68,-1.30,-1.24,-1.24,-1.24
222.23,-0.56,0.69,-0.57,0.68,-0.68,-1.33,-1.24,-1.25,-1.25
224.45,-0.57,0.69,-0.57,0.68,-0.68,-1.35,-1.25,-1.26,-1.25
226.70,-0.58,0.68,-0.57,0.69,-0.69,-1.37,-1.26,-1.26,-1.26
228.96,-0.58,0.69,-0.58,0.69,-0.69,-1.38,-1.27,-1.27,-1.27
231.25,-0.59,0.69,-0.58,0.70,-0.70,-1.40,-1.28,-1.28,-1.28
233.57,-0.59,0.70,-0.58,0.70,-0.70,-1.41,-1.29,-1.28,-1.28
235.90,-0.59,0.70,-0.58,0.71,-0.71,-1.42,-1.30,-1.29,-1.29
238.26,-0.58,0.72,-0.58,0.72,-0.72,-1.43,-1.29,-1.30,-1.30
240.64,-0.58,0.73,-0.58,0.72,-0.72,-1.43,-1.30,-1.30,-1.30
243.05,-0.58,0.73,-0.58,0.73,-0.73,-1.43,-1.31,-1.31,-1.31
245.48,-0.58,0.74,-0.57,0.74,-0.74,-1.42,-1.32,-1.32,-1.31
247.93,-0.57,0.75,-0.57,0.75,-0.75,-1.42,-1.32,-1.32,-1.32
250.41,-0.56,0.77,-0.56,0.77,-0.77,-1.40,-1.32,-1.33,-1.33
252.92,-0.56,0.77,-0.56,0.78,-0.78,-1.39,-1.33,-1.33,-1.33
255.45,-0.56,0.78,-0.55,0.79,-0.79,-1.37,-1.35,-1.34,-1.34
258.00,-0.55,0.80,-0.54,0.80,-0.80,-1.35,-1.35,-1.34,-1.34
260.58,-0.53,0.82,-0.53,0.82,-0.82,-1.32,-1.34,-1.35,-1.35
263.19,-0.53,0.83,-0.52,0.83,-0.83,-1.29,-1.36,-1.35,-1.35
265.82,-0.52,0.84,-0.52,0.84,-0.84,-1.26,-1.36,-1.36,-1.36
268.48,-0.51,0.85,-0.51,0.85,-0.85,-1.22,-1.36,-1.36,-1.36
271.16,-0.50,0.87,-0.50,0.87,-0.87,-1.18,-1.36,-1.37,-1.37
273.87,-0.50,0.87,-0.49,0.88,-0.88,-1.14,-1.37,-1.37,-1.37
276.61,-0.49,0.89,-0.49,0.89,-0.89,-1.09,-1.37,-1.37,-1.37
279.38,-0.48,0.90,-0.48,0.89,-0.89,-1.04,-1.37,-1.38,-1.38
282.17,-0.48,0.91,-0.48,0.90,-0.90,-0.99,-1.38,-1.38,-1.38
284.99,-0.48,0.91,-0.48,0.91,-0.91,-0.94,-1.38,-1.38,-1.39
287.84,-0.48,0.91,-0.48,0.91,-0.91,-0.88,-1.39,-1.39,-1.39
290.72,-0.47,0.93,-0.48,0.91,-0.91,-0.83,-1.38,-1.39,-1.39
293.63,-0.48,0.92,-0.49,0.91,-0.91,-0.77,-1.39,-1.40,-1.40
296.57,-0.48,0.92,-0.49,0.91,-0.91,-0.71,-1.39,-1.40,-1.40
299.53,-0.49,0.92,-0.50,0.91,-0.91,-0.65,-1.40,-1.41,-1.40
302.53,-0.50,0.91,-0.50,0.91,-0.91,-0.58,-1.41,-1.42,-1.41
305.55,-0.52,0.89,-0.51,0.92,-0.92,-0.52,-1.43,-1.42,-1.41
308.61,-0.52,0.90,-0.51,0.92,-0.92,-0.45,-1.44,-1.43,-1.41
311.69,-0.53,0.89,-0.51,0.92,-0.92,-0.39,-1.45,-1.43,-1.42
314.81,-0.53,0.89,-0.51,0.93,-0.93,-0.32,-1.46,-1.44,-1.42
317.96,-0.54,0.89,-0.50,0.94,-0.94,-0.25,-1.48,-1.44,-1.42
321.14,-0.53,0.90,-0.50,0.95,-0.95,-0.19,-1.47,-1.44,-1.43
324.35,-0.52,0.91,-0.49,0.96,-0.96,-0.12,-1.47,-1.44,-1.43
327.59,-0.51,0.92,-0.48,0.96,-0.96,-0.05,-1.47,-1.44,-1.43
330.87,-0.50,0.94,-0.48,0.96,-0.96,0.02,-1.46,-1.44,-1.43
334.18,-0.49,0.95,-0.48,0.96,-0.96,0.09,-1.44,-1.44,-1.44
337.52,-0.47,0.97,-0.49,0.95,-0.95,0.16,-1.41,-1.44,-1.44
340.90,-0.48,0.96,-0.51,0.92,-0.92,0.23,-1.40,-1.44,-1.44
344.30,-0.50,0.95,-0.55,0.89,-0.89,0.31,-1.39,-1.44,-1.44
347.75,-0.53,0.92,-0.59,0.85,-0.85,0.38,-1.38,-1.44,-1.45
351.23,-0.56,0.89,-0.64,0.81,-0.81,0.45,-1.36,-1.45,-1.45
354.74,-0.62,0.83,-0.71,0.75,-0.75,0.52,-1.37,-1.46,-1.45
358.28,-0.75,0.70,-0.78,0.68,-0.68,0.60,-1.43,-1.46,-1.45
361.87,-0.87,0.59,-0.86,0.61,-0.61,0.67,-1.48,-1.47,-1.45
365.49,-0.98,0.48,-0.94,0.54,-0.54,0.74,-1.51,-1.48,-1.46
369.14,-1.08,0.38,-1.02,0.46,-0.46,0.82,-1.54,-1.48,-1.46
372.83,-1.17,0.29,-1.10,0.38,-0.38,0.89,-1.55,-1.49,-1.46
376.56,-1.25,0.21,-1.18,0.31,-0.31,0.97,-1.55,-1.49,-1.46
380.33,-1.32,0.15,-1.26,0.23,-0.23,1.04,-1.55,-1.49,-1.46
384.13,-1.37,0.10,-1.33,0.16,-0.16,1.12,-1.53,-1.49,-1.46
387.97,-1.43,0.04,-1.40,0.10,-0.10,1.20,-1.53,-1.50,-1.47
391.85,-1.47,0.00,-1.46,0.04,-0.04,1.27,-1.50,-1.49,-1.47
395.77,-1.51,-0.04,-1.51,-0.02,0.02,1.35,-1.49,-1.49,-1.47
399.73,-1.55,-0.08,-1.56,-0.08,0.08,1.42,-1.47,-1.48,-1.47
403.72,-1.60,-0.13,-1.62,-0.14,0.14,1.50,-1.46,-1.48,-1.47
407.76,-1.65,-0.17,-1.68,-0.20,0.20,1.57,-1.44,-1.47,-1.47
411.84,-1.72,-0.24,-1.74,-0.27,0.27,1.65,-1.45,-1.47,-1.48
415.96,-1.78,-0.30,-1.81,-0.34,0.34,1.72,-1.44,-1.47,-1.48
420.12,-1.86,-0.38,-1.89,-0.42,0.42,1.79,-1.44,-1.48,-1.48
424.32,-1.95,-0.47,-1.98,-0.50,0.50,1.86,-1.45,-1.48,-1.48
428.56,-2.05,-0.56,-2.07,-0.59,0.59,1.93,-1.46,-1.48,-1.48
432.85,-2.16,-0.67,-2.17,-0.68,0.68,2.00,-1.47,-1.48,-1.48
437.18,-2.28,-0.79,-2.27,-0.79,0.79,2.07,-1.49,-1.49,-1.48
441.55,-2.40,-0.91,-2.38,-0.89,0.89,2.13,-1.50,-1.49,-1.48
445.96,-2.53,-1.05,-2.49,-1.01,1.01,2.19,-1.52,-1.49,-1.48
450.42,-2.63,-1.15,-2.60,-1.12,1.12,2.25,-1.51,-1.48,-1.48
454.93,-2.74,-1.26,-2.72,-1.24,1.24,2.31,-1.50,-1.48,-1.47
459.48,-2.84,-1.37,-2.83,-1.36,1.36,2.36,-1.48,-1.47,-1.47
464.07,-2.95,-1.49,-2.95,-1.48,1.48,2.41,-1.46,-1.47,-1.46
468.71,-3.06,-1.60,-3.06,-1.61,1.61,2.46,-1.45,-1.46,-1.45
473.40,-3.17,-1.72,-3.18,-1.73,1.73,2.50,-1.44,-1.45,-1.45
478.13,-3.28,-1.84,-3.29,-1.85,1.85,2.53,-1.43,-1.44,-1.43
482.91,-3.40,-1.97,-3.40,-1.98,1.98,2.57,-1.42,-1.42,-1.42
487.74,-3.51,-2.10,-3.51,-2.10,2.10,2.59,-1.41,-1.41,-1.41
492.62,-3.61,-2.21,-3.62,-2.22,2.22,2.62,-1.39,-1.40,-1.40
497.55,-3.72,-2.33,-3.72,-2.34,2.34,2.64,-1.38,-1.38,-1.38
502.52,-3.83,-2.46,-3.83,-2.46,2.46,2.65,-1.37,-1.37,-1.37
507.55,-3.94,-2.59,-3.93,-2.58,2.58,2.66,-1.36,-1.35,-1.35
512.62,-4.04,-2.70,-4.03,-2.69,2.69,2.66,-1.35,-1.34,-1.34
517.75,-4.12,-2.80,-4.12,-2.80,2.80,2.66,-1.32,-1.32,-1.32
522.93,-4.22,-2.92,-4.21,-2.91,2.91,2.66,-1.31,-1.31,-1.30
528.16,-4.30,-3.01,-4.29,-3.01,3.01,2.65,-1.29,-1.29,-1.28
533.44,-4.37,-3.10,-4.37,-3.10,3.10,2.63,-1.26,-1.27,-1.27
538.77,-4.45,-3.20,-4.44,-3.19,3.19,2.62,-1.26,-1.25,-1.25
544.16,-4.51,-3.28,-4.50,-3.27,3.27,2.60,-1.23,-1.22,-1.22
549.60,-4.56,-3.36,-4.55,-3.35,3.35,2.57,-1.21,-1.20,-1.20
555.10,-4.60,-3.42,-4.60,-3.42,3.42,2.54,-1.18,-1.18,-1.17
560.65,-4.64,-3.49,-4.63,-3.48,3.48,2.51,-1.16,-1.15,-1.15
566.25,-4.67,-3.55,-4.66,-3.53,3.53,2.48,-1.13,-1.12,-1.12
571.92,-4.68,-3.59,-4.68,-3.58,3.58,2.45,-1.10,-1.10,-1.09
577.64,-4.70,-3.63,-4.69,-3.62,3.62,2.41,-1.08,-1.07,-1.06
583.41,-4.69,-3.65,-4.69,-3.65,3.65,2.38,-1.04,-1.04,-1.03
589.25,-4.68,-3.67,-4.68,-3.67,3.67,2.34,-1.01,-1.01,-1.00
595.14,-4.67,-3.69,-4.66,-3.68,3.68,2.30,-0.98,-0.98,-0.97
601.09,-4.65,-3.70,-4.64,-3.69,3.69,2.26,-0.96,-0.95,-0.94
607.10,-4.61,-3.69,-4.61,-3.69,3.69,2.22,-0.91,-0.92,-0.91
613.17,-4.58,-3.69,-4.57,-3.69,3.69,2.18,-0.89,-0.89,-0.88
619.30,-4.53,-3.68,-4.53,-3.68,3.68,2.14,-0.85,-0.85,-0.85
625.50,-4.48,-3.66,-4.48,-3.66,3.66,2.10,-0.82,-0.82,-0.82
631.75,-4.43,-3.64,-4.43,-3.64,3.64,2.06,-0.79,-0.79,-0.79
638.07,-4.37,-3.61,-4.37,-3.61,3.61,2.02,-0.76,-0.76,-0.75
644.45,-4.30,-3.57,-4.30,-3.58,3.58,1.99,-0.72,-0.72,-0.72
650.89,-4.23,-3.54,-4.23,-3.54,3.54,1.95,-0.68,-0.69,-0.69
657.40,-4.16,-3.50,-4.16,-3.50,3.50,1.92,-0.65,-0.65,-0.66
663.98,-4.09,-3.46,-4.08,-3.46,3.46,1.88,-0.62,-0.62,-0.62
