frequency,raw
20.00,-15.72
20.20,-15.61
20.40,-15.49
20.61,-15.38
20.81,-15.26
21.02,-15.15
21.23,-15.03
21.44,-14.92
21.66,-14.80
21.87,-14.69
22.09,-14.57
22.31,-14.45
22.54,-14.34
22.76,-14.22
22.99,-14.11
23.22,-13.99
23.45,-13.87
23.69,-13.75
23.92,-13.63
24.16,-13.51
24.40,-13.39
24.65,-13.28
24.89,-13.16
25.14,-13.04
25.39,-12.92
25.65,-12.80
25.91,-12.68
26.16,-12.57
26.43,-12.45
26.69,-12.33
26.96,-12.22
27.23,-12.10
27.50,-11.98
27.77,-11.87
28.05,-11.75
28.33,-11.63
28.62,-11.52
28.90,-11.40
29.19,-11.28
29.48,-11.17
29.78,-11.05
30.08,-10.93
30.38,-10.82
30.68,-10.70
30.99,-10.59
31.30,-10.48
31.61,-10.37
31.93,-10.27
32.24,-10.16
32.57,-10.05
32.89,-9.94
33.22,-9.84
33.55,-9.75
33.89,-9.65
34.23,-9.56
34.57,-9.46
34.92,-9.36
35.27,-9.26
35.62,-9.16
35.97,-9.06
36.33,-8.96
36.70,-8.85
37.06,-8.75
37.43,-8.65
37.81,-8.55
38.19,-8.45
38.57,-8.35
38.95,-8.25
39.34,-8.16
39.74,-8.06
40.14,-7.97
40.54,-7.87
40.94,-7.77
41.35,-7.69
41.76,-7.60
42.18,-7.51
42.60,-7.42
43.03,-7.33
43.46,-7.25
43.90,-7.17
44.33,-7.08
44.78,-6.99
45.23,-6.89
45.68,-6.80
46.13,-6.70
46.60,-6.61
47.06,-6.52
47.53,-6.43
48.01,-6.34
48.49,-6.24
48.97,-6.15
49.46,-6.06
49.96,-5.97
50.46,-5.88
50.96,-5.79
51.47,-5.69
51.99,-5.60
52.51,-5.50
53.03,-5.41
53.56,-5.32
54.10,-5.24
54.64,-5.15
55.18,-5.07
55.74,-4.97
56.29,-4.89
56.86,-4.81
57.42,-4.73
58.00,-4.64
58.58,-4.56
59.16,-4.48
59.76,-4.41
60.35,-4.34
60.96,-4.27
61.57,-4.23
62.18,-4.19
62.80,-4.15
63.43,-4.12
64.07,-4.10
64.71,-4.09
65.35,-4.08
66.01,-4.07
66.67,-4.08
67.33,-4.09
68.01,-4.11
68.69,-4.12
69.37,-4.14
70.07,-4.16
70.77,-4.17
71.48,-4.17
72.19,-4.17
72.91,-4.17
73.64,-4.17
74.38,-4.15
75.12,-4.12
75.87,-4.07
76.63,-4.01
77.40,-3.93
78.17,-3.84
78.95,-3.75
79.74,-3.66
80.54,-3.56
81.35,-3.45
82.16,-3.34
82.98,-3.21
83.81,-3.08
84.65,-2.95
85.50,-2.81
86.35,-2.68
87.22,-2.56
88.09,-2.42
88.97,-2.29
89.86,-2.16
90.76,-2.03
91.66,-1.92
92.58,-1.82
93.51,-1.73
94.44,-1.64
95.39,-1.55
96.34,-1.47
97.30,-1.40
98.28,-1.34
99.26,-1.28
100.25,-1.22
101.25,-1.15
102.27,-1.10
103.29,-1.06
104.32,-1.02
105.37,-0.96
106.42,-0.91
107.48,-0.86
108.56,-0.81
109.64,-0.74
110.74,-0.68
111.85,-0.63
112.97,-0.59
114.10,-0.56
115.24,-0.51
116.39,-0.48
117.55,-0.44
118.73,-0.38
119.92,-0.32
121.12,-0.26
122.33,-0.23
123.55,-0.18
124.79,-0.12
126.03,-0.08
127.29,-0.07
128.57,-0.05
129.85,-0.02
131.15,-0.01
132.46,0.00
133.79,0.01
135.12,0.00
136.48,0.00
137.84,-0.01
139.22,-0.01
140.61,-0.01
142.02,-0.01
143.44,-0.01
144.87,-0.01
146.32,-0.01
147.78,-0.01
149.26,-0.01
150.75,-0.01
152.26,-0.01
153.78,-0.01
155.32,-0.01
156.88,-0.01
158.44,0.00
160.03,0.01
161.63,0.01
163.24,-0.00
164.88,-0.01
166.53,-0.03
168.19,-0.05
169.87,-0.08
171.57,-0.11
173.29,-0.13
175.02,-0.16
176.77,-0.19
178.54,-0.22
180.32,-0.26
182.13,-0.30
183.95,-0.36
185.79,-0.39
187.65,-0.42
189.52,-0.46
191.42,-0.49
193.33,-0.53
195.27,-0.58
197.22,-0.61
199.19,-0.67
201.18,-0.72
203.19,-0.78
205.23,-0.84
207.28,-0.89
209.35,-0.94
211.44,-0.99
213.56,-1.05
215.69,-1.12
217.85,-1.19
220.03,-1.24
222.23,-1.29
224.45,-1.35
226.70,-1.41
228.96,-1.48
231.25,-1.53
233.57,-1.60
235.90,-1.67
238.26,-1.71
240.64,-1.76
243.05,-1.80
245.48,-1.85
247.93,-1.89
250.41,-1.91
252.92,-1.92
255.45,-1.93
258.00,-1.94
260.58,-1.96
263.19,-1.97
265.82,-1.98
268.48,-1.99
271.16,-2.00
273.87,-2.04
276.61,-2.07
279.38,-2.10
282.17,-2.13
284.99,-2.17
287.84,-2.21
290.72,-2.24
293.63,-2.26
296.57,-2.28
299.53,-2.30
302.53,-2.31
305.55,-2.31
308.61,-2.30
311.69,-2.29
314.81,-2.28
317.96,-2.28
321.14,-2.28
324.35,-2.28
327.59,-2.28
330.87,-2.28
334.18,-2.28
337.52,-2.28
340.90,-2.28
344.30,-2.28
347.75,-2.28
351.23,-2.28
354.74,-2.28
358.28,-2.28
361.87,-2.28
365.49,-2.28
369.14,-2.28
372.83,-2.28
376.56,-2.28
380.33,-2.28
384.13,-2.28
387.97,-2.28
391.85,-2.28
395.77,-2.28
399.73,-2.28
403.72,-2.28
407.76,-2.28
411.84,-2.28
415.96,-2.28
420.12,-2.28
424.32,-2.28
428.56,-2.29
432.85,-2.30
437.18,-2.31
441.55,-2.31
445.96,-2.30
450.42,-2.29
454.93,-2.27
459.48,-2.24
464.07,-2.22
468.71,-2.19
473.40,-2.15
478.13,-2.13
482.91,-2.11
487.74,-2.08
492.62,-2.04
497.55,-2.00
502.52,-1.96
507.55,-1.92
512.62,-1.88
517.75,-1.85
522.93,-1.82
528.16,-1.80
533.44,-1.79
538.77,-1.76
544.16,-1.71
549.60,-1.67
555.10,-1.62
560.65,-1.58
566.25,-1.54
571.92,-1.51
577.64,-1.49
583.41,-1.46
589.25,-1.43
595.14,-1.38
601.09,-1.33
607.10,-1.28
613.17,-1.24
619.30,-1.20
625.50,-1.16
631.75,-1.12
638.07,-1.08
644.45,-1.05
650.89,-1.00
657.40,-0.95
663.98,-0.90
670.62,-0.84
677.32,-0.79
684.10,-0.74
690.94,-0.70
697.85,-0.65
704.83,-0.59
711.87,-0.52
718.99,-0.46
726.18,-0.41
733.44,-0.35
740.78,-0.30
748.19,-0.24
755.67,-0.18
763.23,-0.12
770.86,-0.06
778.57,-0.01
786.35,0.03
794.22,0.09
802.16,0.15
810.18,0.21
818.28,0.27
826.46,0.32
834.73,0.37
843.08,0.42
851.51,0.47
860.02,0.51
868.62,0.56
877.31,0.60
886.08,0.63
894.94,0.65
903.89,0.67
912.93,0.67
922.06,0.66
931.28,0.64
940.59,0.59
950.00,0.52
959.50,0.44
969.09,0.36
978.78,0.25
988.57,0.14
998.46,0.02
1008.44,-0.11
1018.53,-0.25
1028.71,-0.39
1039.00,-0.54
1049.39,-0.68
1059.88,-0.81
1070.48,-0.94
1081.19,-1.07
1092.00,-1.18
1102.92,-1.29
1113.95,-1.39
1125.09,-1.46
1136.34,-1.53
1147.70,-1.58
1159.18,-1.61
1170.77,-1.63
1182.48,-1.62
1194.30,-1.60
1206.25,-1.56
1218.31,-1.51
1230.49,-1.47
1242.80,-1.42
1255.22,-1.39
1267.78,-1.38
1280.45,-1.39
1293.26,-1.41
1306.19,-1.44
1319.25,-1.51
1332.45,-1.59
1345.77,-1.69
1359.23,-1.82
1372.82,-1.97
1386.55,-2.12
1400.41,-2.30
1414.42,-2.50
1428.56,-2.71
1442.85,-2.93
1457.28,-3.15
1471.85,-3.40
1486.57,-3.66
1501.43,-3.92
1516.45,-4.19
1531.61,-4.48
1546.93,-4.77
1562.40,-5.04
1578.02,-5.30
1593.80,-5.60
1609.74,-5.88
1625.84,-6.16
1642.10,-6.44
1658.52,-6.71
1675.10,-6.98
1691.85,-7.25
1708.77,-7.52
1725.86,-7.78
1743.12,-8.03
1760.55,-8.30
1778.15,-8.55
1795.94,-8.81
1813.90,-9.06
1832.03,-9.32
1850.36,-9.59
1868.86,-9.84
1887.55,-10.09
1906.42,-10.35
1925.49,-10.62
1944.74,-10.91
1964.19,-11.19
1983.83,-11.49
2003.67,-11.80
2023.71,-12.09
2043.94,-12.38
2064.38,-12.66
2085.03,-12.93
2105.88,-13.21
2126.94,-13.50
2148.20,-13.80
2169.69,-14.10
2191.38,-14.39
2213.30,-14.66
2235.43,-14.94
2257.78,-15.21
2280.36,-15.47
2303.17,-15.69
2326.20,-15.90
2349.46,-16.08
2372.95,-16.23
2396.68,-16.34
2420.65,-16.40
2444.86,-16.42
2469.31,-16.37
2494.00,-16.28
2518.94,-16.16
2544.13,-16.02
2569.57,-15.86
2595.27,-15.68
2621.22,-15.48
2647.43,-15.27
2673.90,-15.06
2700.64,-14.86
2727.65,-14.66
2754.93,-14.46
2782.48,-14.28
2810.30,-14.12
2838.40,-13.97
2866.79,-13.83
2895.46,-13.71
2924.41,-13.59
2953.65,-13.49
2983.19,-13.42
3013.02,-13.35
3043.15,-13.32
3073.58,-13.30
3104.32,-13.31
3135.36,-13.33
3166.72,-13.36
3198.38,-13.39
3230.37,-13.44
3262.67,-13.50
3295.30,-13.56
3328.25,-13.63
3361.53,-13.72
3395.15,-13.82
3429.10,-13.92
3463.39,-14.02
3498.03,-14.13
3533.01,-14.23
3568.34,-14.35
3604.02,-14.49
3640.06,-14.64
3676.46,-14.80
3713.22,-14.98
3750.36,-15.16
3787.86,-15.36
3825.74,-15.57
3864.00,-15.80
3902.64,-16.05
3941.66,-16.31
3981.08,-16.60
4020.89,-16.89
4061.10,-17.20
4101.71,-17.53
4142.73,-17.82
4184.15,-18.10
4226.00,-18.36
4268.26,-18.56
4310.94,-18.73
4354.05,-18.86
4397.59,-18.94
4441.56,-18.99
4485.98,-18.99
4530.84,-18.97
4576.15,-18.92
4621.91,-18.85
4668.13,-18.77
4714.81,-18.69
4761.96,-18.62
4809.58,-18.56
4857.67,-18.53
4906.25,-18.53
4955.31,-18.53
5004.87,-18.53
5054.91,-18.54
5105.46,-18.54
5156.52,-18.54
5208.08,-18.52
5260.16,-18.46
5312.77,-18.37
5365.89,-18.19
5419.55,-17.91
5473.75,-17.52
5528.49,-17.02
5583.77,-16.39
5639.61,-15.66
5696.00,-14.85
5752.96,-13.96
5810.49,-13.00
5868.60,-12.02
5927.28,-11.01
5986.56,-10.01
6046.42,-9.04
6106.89,-8.12
6167.96,-7.29
6229.64,-6.53
6291.93,-5.85
6354.85,-5.26
6418.40,-4.74
6482.58,-4.28
6547.41,-3.86
6612.88,-3.51
6679.01,-3.19
6745.80,-2.92
6813.26,-2.70
6881.39,-2.54
6950.21,-2.42
7019.71,-2.35
7089.91,-2.34
7160.81,-2.38
7232.41,-2.47
7304.74,-2.60
7377.79,-2.78
7451.56,-2.99
7526.08,-3.23
7601.34,-3.51
7677.35,-3.81
7754.13,-4.15
7831.67,-4.52
7909.98,-4.95
7989.08,-5.45
8068.98,-6.04
8149.67,-6.71
8231.16,-7.44
8313.47,-8.25
8396.61,-9.11
8480.57,-10.00
8565.38,-10.92
8651.03,-11.83
8737.54,-12.71
8824.92,-13.52
8913.17,-14.27
9002.30,-14.95
9092.32,-15.50
9183.25,-15.94
9275.08,-16.27
9367.83,-16.48
9461.51,-16.58
9556.12,-16.60
9651.68,-16.55
9748.20,-16.45
9845.68,-16.30
9944.14,-16.13
10043.58,-15.97
10144.02,-15.82
10245.46,-15.73
10347.91,-15.70
10451.39,-15.76
10555.91,-15.91
10661.46,-16.13
10768.08,-16.42
10875.76,-16.77
10984.52,-17.14
11094.36,-17.50
11205.31,-17.85
11317.36,-18.19
11430.53,-18.47
11544.84,-18.68
11660.29,-18.84
11776.89,-18.91
11894.66,-18.90
12013.60,-18.83
12133.74,-18.71
12255.08,-18.56
12377.63,-18.41
12501.41,-18.29
12626.42,-18.23
12752.68,-18.24
12880.21,-18.29
13009.01,-18.42
13139.10,-18.60
13270.49,-18.83
13403.20,-19.10
13537.23,-19.41
13672.60,-19.77
13809.33,-20.14
13947.42,-20.52
14086.90,-20.92
14227.77,-21.31
14370.04,-21.69
14513.74,-22.05
14658.88,-22.37
14805.47,-22.66
14953.52,-22.91
15103.06,-23.15
15254.09,-23.35
15406.63,-23.52
15560.70,-23.67
15716.30,-23.79
15873.47,-23.90
16032.20,-24.00
16192.52,-24.10
16354.45,-24.21
16517.99,-24.32
16683.17,-24.47
16850.01,-24.67
17018.51,-24.94
17188.69,-25.29
17360.58,-25.71
17534.18,-26.23
17709.53,-26.85
17886.62,-27.54
18065.49,-28.30
18246.14,-29.00
18428.60,-29.73
18612.89,-30.49
18799.02,-31.28
18987.01,-32.12
19176.88,-33.00
19368.65,-33.91
19562.33,-34.87
19757.96,-35.87
19955.54,-36.90
