frequency,raw,smoothed,error,error_smoothed,equalization,parametric_eq,fixed_band_eq,equalized_raw,equalized_smoothed,target
20.00,-7.26,-7.26,-5.68,-5.68,5.66,3.88,2.01,-1.60,-1.60,-1.58
20.20,-7.20,-7.20,-5.65,-5.65,5.64,3.88,2.07,-1.56,-1.56,-1.55
20.40,-7.14,-7.14,-5.62,-5.61,5.62,3.88,2.13,-1.52,-1.52,-1.52
20.61,-7.08,-7.08,-5.58,-5.58,5.59,3.88,2.19,-1.49,-1.49,-1.50
20.81,-7.02,-7.02,-5.55,-5.55,5.56,3.88,2.26,-1.46,-1.46,-1.47
21.02,-6.97,-6.97,-5.53,-5.52,5.53,3.88,2.32,-1.44,-1.44,-1.45
21.23,-6.92,-6.92,-5.49,-5.49,5.49,3.88,2.39,-1.43,-1.43,-1.44
21.44,-6.88,-6.88,-5.45,-5.46,5.45,3.88,2.46,-1.43,-1.43,-1.43
21.66,-6.84,-6.84,-5.42,-5.42,5.41,3.88,2.53,-1.43,-1.43,-1.42
21.87,-6.79,-6.79,-5.37,-5.38,5.36,3.88,2.61,-1.43,-1.43,-1.42
22.09,-6.74,-6.74,-5.33,-5.33,5.31,3.88,2.68,-1.43,-1.43,-1.41
22.31,-6.67,-6.67,-5.26,-5.27,5.25,3.88,2.76,-1.42,-1.42,-1.41
22.54,-6.61,-6.61,-5.20,-5.20,5.20,3.88,2.84,-1.42,-1.41,-1.41
22.76,-6.54,-6.54,-5.13,-5.13,5.14,3.87,2.92,-1.40,-1.40,-1.41
22.99,-6.47,-6.48,-5.05,-5.06,5.08,3.87,3.01,-1.39,-1.40,-1.42
23.22,-6.43,-6.43,-5.01,-5.01,5.03,3.87,3.09,-1.40,-1.41,-1.42
23.45,-6.40,-6.39,-4.98,-4.97,4.98,3.87,3.18,-1.42,-1.41,-1.42
23.69,-6.36,-6.36,-4.94,-4.94,4.94,3.87,3.27,-1.43,-1.42,-1.42
23.92,-6.32,-6.32,-4.90,-4.91,4.90,3.87,3.36,-1.42,-1.43,-1.42
24.16,-6.29,-6.29,-4.88,-4.87,4.87,3.87,3.46,-1.42,-1.42,-1.41
24.40,-6.26,-6.26,-4.85,-4.84,4.84,3.87,3.55,-1.42,-1.42,-1.42
24.65,-6.23,-6.23,-4.81,-4.81,4.81,3.87,3.65,-1.42,-1.42,-1.43
24.89,-6.20,-6.20,-4.77,-4.78,4.79,3.87,3.74,-1.41,-1.42,-1.43
25.14,-6.18,-6.18,-4.75,-4.75,4.76,3.87,3.84,-1.42,-1.42,-1.43
25.39,-6.16,-6.16,-4.73,-4.73,4.73,3.86,3.94,-1.43,-1.43,-1.43
25.65,-6.14,-6.14,-4.71,-4.71,4.70,3.86,4.04,-1.45,-1.45,-1.43
25.91,-6.12,-6.12,-4.68,-4.68,4.66,3.86,4.14,-1.46,-1.46,-1.44
26.16,-6.08,-6.08,-4.64,-4.63,4.62,3.86,4.24,-1.46,-1.46,-1.44
26.43,-6.02,-6.03,-4.58,-4.58,4.58,3.86,4.34,-1.44,-1.45,-1.44
26.69,-5.97,-5.97,-4.53,-4.53,4.54,3.86,4.43,-1.43,-1.43,-1.44
26.96,-5.92,-5.93,-4.48,-4.48,4.49,3.86,4.53,-1.43,-1.43,-1.45
27.23,-5.89,-5.89,-4.44,-4.44,4.45,3.86,4.62,-1.44,-1.44,-1.45
27.50,-5.86,-5.86,-4.41,-4.41,4.41,3.85,4.71,-1.45,-1.45,-1.45
27.77,-5.83,-5.83,-4.37,-4.37,4.37,3.85,4.80,-1.46,-1.46,-1.46
28.05,-5.80,-5.80,-4.34,-4.34,4.34,3.85,4.89,-1.46,-1.47,-1.46
28.33,-5.78,-5.78,-4.31,-4.31,4.30,3.85,4.97,-1.48,-1.47,-1.47
28.62,-5.75,-5.75,-4.28,-4.28,4.27,3.85,5.04,-1.48,-1.48,-1.47
28.90,-5.72,-5.72,-4.24,-4.24,4.24,3.85,5.11,-1.48,-1.48,-1.48
29.19,-5.69,-5.69,-4.20,-4.21,4.21,3.85,5.18,-1.48,-1.48,-1.49
29.48,-5.66,-5.66,-4.18,-4.17,4.18,3.84,5.24,-1.48,-1.48,-1.48
29.78,-5.63,-5.63,-4.14,-4.14,4.15,3.84,5.29,-1.48,-1.48,-1.49
30.08,-5.61,-5.61,-4.12,-4.12,4.13,3.84,5.33,-1.49,-1.49,-1.49
30.38,-5.60,-5.60,-4.10,-4.10,4.10,3.84,5.37,-1.50,-1.50,-1.50
30.68,-5.59,-5.59,-4.08,-4.08,4.08,3.84,5.40,-1.52,-1.51,-1.51
30.99,-5.58,-5.58,-4.06,-4.06,4.05,3.84,5.42,-1.53,-1.52,-1.52
31.30,-5.56,-5.56,-4.04,-4.04,4.04,3.83,5.44,-1.53,-1.52,-1.52
31.61,-5.54,-5.54,-4.02,-4.01,4.02,3.83,5.44,-1.52,-1.52,-1.52
31.93,-5.52,-5.52,-3.99,-3.99,4.00,3.83,5.44,-1.52,-1.52,-1.54
32.24,-5.51,-5.52,-3.96,-3.97,3.98,3.83,5.43,-1.53,-1.54,-1.55
32.57,-5.51,-5.51,-3.96,-3.96,3.95,3.82,5.41,-1.56,-1.56,-1.55
32.89,-5.51,-5.50,-3.96,-3.95,3.93,3.82,5.39,-1.58,-1.57,-1.55
33.22,-5.49,-5.48,-3.92,-3.92,3.91,3.82,5.36,-1.59,-1.58,-1.57
33.55,-5.45,-5.45,-3.88,-3.88,3.88,3.82,5.32,-1.57,-1.57,-1.57
33.89,-5.42,-5.43,-3.84,-3.85,3.86,3.81,5.27,-1.56,-1.57,-1.58
34.23,-5.41,-5.41,-3.83,-3.82,3.84,3.81,5.22,-1.57,-1.57,-1.58
34.57,-5.41,-5.41,-3.81,-3.81,3.82,3.81,5.17,-1.59,-1.59,-1.60
34.92,-5.41,-5.41,-3.80,-3.80,3.80,3.81,5.11,-1.61,-1.61,-1.61
35.27,-5.41,-5.41,-3.80,-3.79,3.79,3.80,5.05,-1.63,-1.62,-1.61
35.62,-5.41,-5.41,-3.78,-3.78,3.78,3.80,4.98,-1.63,-1.63,-1.63
35.97,-5.41,-5.41,-3.77,-3.78,3.78,3.80,4.92,-1.63,-1.64,-1.64
36.33,-5.42,-5.42,-3.78,-3.77,3.78,3.79,4.85,-1.64,-1.64,-1.65
36.70,-5.42,-5.43,-3.76,-3.77,3.78,3.79,4.78,-1.64,-1.64,-1.66
37.06,-5.44,-5.45,-3.77,-3.78,3.79,3.79,4.70,-1.66,-1.66,-1.67
37.43,-5.47,-5.47,-3.79,-3.79,3.79,3.78,4.63,-1.69,-1.68,-1.68
37.81,-5.49,-5.49,-3.80,-3.80,3.78,3.78,4.56,-1.71,-1.71,-1.69
38.19,-5.50,-5.50,-3.79,-3.80,3.77,3.78,4.49,-1.73,-1.72,-1.71
38.57,-5.49,-5.49,-3.78,-3.78,3.76,3.77,4.41,-1.73,-1.73,-1.71
38.95,-5.48,-5.48,-3.75,-3.75,3.74,3.77,4.34,-1.74,-1.74,-1.73
39.34,-5.46,-5.46,-3.72,-3.72,3.72,3.76,4.27,-1.74,-1.74,-1.74
39.74,-5.43,-5.43,-3.68,-3.68,3.69,3.76,4.21,-1.74,-1.74,-1.76
40.14,-5.41,-5.42,-3.65,-3.65,3.67,3.75,4.14,-1.74,-1.75,-1.76
40.54,-5.41,-5.41,-3.63,-3.63,3.65,3.75,4.08,-1.76,-1.76,-1.78
40.94,-5.41,-5.41,-3.63,-3.62,3.63,3.74,4.02,-1.78,-1.78,-1.78
41.35,-5.41,-5.41,-3.61,-3.62,3.61,3.74,3.96,-1.80,-1.80,-1.80
41.76,-5.41,-5.41,-3.61,-3.61,3.59,3.73,3.90,-1.82,-1.82,-1.81
42.18,-5.41,-5.41,-3.60,-3.60,3.58,3.73,3.84,-1.83,-1.83,-1.81
42.60,-5.41,-5.41,-3.58,-3.59,3.57,3.72,3.79,-1.84,-1.84,-1.83
43.03,-5.41,-5.40,-3.58,-3.56,3.56,3.72,3.74,-1.85,-1.84,-1.84
43.46,-5.39,-5.39,-3.54,-3.53,3.56,3.71,3.70,-1.84,-1.83,-1.85
43.90,-5.37,-5.40,-3.49,-3.52,3.55,3.71,3.65,-1.82,-1.84,-1.88
44.33,-5.42,-5.43,-3.52,-3.53,3.55,3.70,3.61,-1.87,-1.88,-1.90
44.78,-5.48,-5.47,-3.56,-3.55,3.54,3.69,3.58,-1.94,-1.92,-1.92
45.23,-5.51,-5.50,-3.58,-3.57,3.54,3.69,3.54,-1.97,-1.96,-1.93
45.68,-5.51,-5.52,-3.56,-3.56,3.54,3.68,3.51,-1.97,-1.97,-1.95
46.13,-5.51,-5.51,-3.54,-3.55,3.54,3.67,3.48,-1.97,-1.98,-1.97
46.60,-5.51,-5.51,-3.53,-3.53,3.53,3.66,3.45,-1.98,-1.98,-1.98
47.06,-5.51,-5.51,-3.51,-3.51,3.52,3.66,3.43,-1.99,-1.99,-2.00
47.53,-5.51,-5.51,-3.49,-3.50,3.49,3.65,3.41,-2.02,-2.02,-2.02
48.01,-5.51,-5.51,-3.48,-3.47,3.47,3.64,3.39,-2.04,-2.04,-2.03
48.49,-5.51,-5.51,-3.45,-3.45,3.44,3.63,3.37,-2.07,-2.07,-2.06
48.97,-5.51,-5.51,-3.42,-3.42,3.41,3.62,3.36,-2.10,-2.10,-2.09
49.46,-5.51,-5.51,-3.39,-3.39,3.39,3.61,3.34,-2.12,-2.12,-2.12
49.96,-5.51,-5.51,-3.36,-3.36,3.38,3.61,3.33,-2.14,-2.13,-2.16
50.46,-5.51,-5.51,-3.34,-3.34,3.36,3.60,3.32,-2.15,-2.15,-2.17
50.96,-5.51,-5.53,-3.32,-3.33,3.35,3.59,3.32,-2.16,-2.18,-2.19
51.47,-5.56,-5.56,-3.34,-3.34,3.34,3.58,3.31,-2.22,-2.22,-2.22
51.99,-5.61,-5.59,-3.36,-3.35,3.33,3.57,3.31,-2.28,-2.26,-2.25
52.51,-5.61,-5.61,-3.35,-3.35,3.32,3.55,3.30,-2.29,-2.29,-2.26
53.03,-5.61,-5.62,-3.33,-3.33,3.31,3.54,3.30,-2.31,-2.31,-2.29
53.56,-5.61,-5.61,-3.30,-3.30,3.29,3.53,3.30,-2.32,-2.32,-2.31
54.10,-5.61,-5.61,-3.28,-3.27,3.27,3.52,3.30,-2.34,-2.33,-2.34
54.64,-5.60,-5.60,-3.24,-3.24,3.26,3.51,3.30,-2.34,-2.34,-2.36
55.18,-5.60,-5.60,-3.21,-3.21,3.24,3.49,3.30,-2.36,-2.36,-2.39
55.74,-5.61,-5.62,-3.20,-3.21,3.23,3.48,3.29,-2.38,-2.39,-2.42
56.29,-5.64,-5.65,-3.21,-3.21,3.22,3.47,3.29,-2.42,-2.43,-2.43
56.86,-5.70,-5.68,-3.24,-3.22,3.21,3.45,3.29,-2.49,-2.47,-2.46
57.42,-5.71,-5.71,-3.22,-3.22,3.20,3.44,3.28,-2.51,-2.51,-2.49
58.00,-5.71,-5.72,-3.20,-3.21,3.19,3.42,3.28,-2.52,-2.52,-2.51
58.58,-5.71,-5.71,-3.18,-3.18,3.18,3.41,3.27,-2.53,-2.53,-2.53
59.16,-5.71,-5.71,-3.16,-3.16,3.16,3.39,3.26,-2.55,-2.55,-2.55
59.76,-5.71,-5.71,-3.14,-3.14,3.14,3.38,3.25,-2.57,-2.57,-2.57
60.35,-5.71,-5.71,-3.11,-3.11,3.10,3.36,3.23,-2.61,-2.61,-2.60
60.96,-5.71,-5.71,-3.09,-3.08,3.07,3.34,3.22,-2.64,-2.64,-2.62
61.57,-5.71,-5.71,-3.04,-3.05,3.04,3.33,3.20,-2.67,-2.67,-2.67
62.18,-5.71,-5.71,-3.01,-3.01,3.01,3.31,3.18,-2.70,-2.69,-2.70
62.80,-5.70,-5.70,-2.97,-2.97,2.99,3.29,3.15,-2.71,-2.70,-2.73
63.43,-5.70,-5.71,-2.94,-2.95,2.98,3.27,3.12,-2.73,-2.73,-2.76
64.07,-5.71,-5.73,-2.92,-2.94,2.96,3.25,3.10,-2.75,-2.77,-2.79
64.71,-5.78,-5.77,-2.97,-2.95,2.95,3.23,3.06,-2.83,-2.82,-2.81
65.35,-5.81,-5.80,-2.97,-2.96,2.93,3.21,3.03,-2.88,-2.86,-2.84
66.01,-5.81,-5.82,-2.94,-2.95,2.92,3.19,2.99,-2.89,-2.90,-2.87
66.67,-5.81,-5.81,-2.91,-2.92,2.90,3.16,2.95,-2.91,-2.91,-2.90
67.33,-5.81,-5.81,-2.88,-2.88,2.88,3.14,2.91,-2.93,-2.93,-2.93
68.01,-5.81,-5.81,-2.85,-2.85,2.85,3.12,2.86,-2.96,-2.96,-2.96
68.69,-5.81,-5.81,-2.82,-2.82,2.82,3.09,2.81,-2.99,-2.99,-2.99
69.37,-5.81,-5.81,-2.79,-2.79,2.79,3.07,2.77,-3.02,-3.02,-3.02
70.07,-5.81,-5.81,-2.76,-2.76,2.77,3.04,2.72,-3.04,-3.04,-3.05
70.77,-5.81,-5.80,-2.73,-2.72,2.75,3.02,2.67,-3.07,-3.06,-3.08
71.48,-5.81,-5.82,-2.70,-2.71,2.73,2.99,2.61,-3.08,-3.09,-3.11
72.19,-5.83,-5.86,-2.68,-2.71,2.71,2.96,2.56,-3.12,-3.15,-3.15
72.91,-5.92,-5.89,-2.74,-2.71,2.69,2.94,2.51,-3.23,-3.20,-3.18
73.64,-5.92,-5.92,-2.70,-2.70,2.67,2.91,2.45,-3.25,-3.24,-3.22
74.38,-5.91,-5.92,-2.66,-2.67,2.65,2.88,2.40,-3.26,-3.27,-3.25
75.12,-5.91,-5.91,-2.62,-2.63,2.63,2.85,2.34,-3.28,-3.28,-3.29
75.87,-5.91,-5.91,-2.59,-2.60,2.60,2.82,2.29,-3.31,-3.31,-3.32
76.63,-5.91,-5.91,-2.56,-2.56,2.57,2.79,2.23,-3.34,-3.34,-3.35
77.40,-5.91,-5.91,-2.53,-2.53,2.54,2.76,2.18,-3.38,-3.38,-3.38
78.17,-5.91,-5.91,-2.49,-2.50,2.50,2.72,2.13,-3.41,-3.41,-3.42
78.95,-5.91,-5.91,-2.47,-2.47,2.47,2.69,2.08,-3.45,-3.45,-3.44
79.74,-5.91,-5.91,-2.44,-2.43,2.43,2.66,2.02,-3.48,-3.48,-3.48
80.54,-5.91,-5.91,-2.40,-2.40,2.40,2.62,1.97,-3.51,-3.51,-3.51
81.35,-5.91,-5.91,-2.37,-2.37,2.37,2.59,1.92,-3.54,-3.54,-3.54
82.16,-5.91,-5.91,-2.33,-2.33,2.33,2.55,1.87,-3.58,-3.58,-3.58
82.98,-5.91,-5.91,-2.30,-2.30,2.30,2.51,1.82,-3.61,-3.61,-3.61
83.81,-5.91,-5.91,-2.26,-2.26,2.26,2.48,1.78,-3.65,-3.65,-3.65
84.65,-5.91,-5.91,-2.22,-2.22,2.23,2.44,1.73,-3.69,-3.69,-3.69
85.50,-5.91,-5.91,-2.19,-2.19,2.19,2.40,1.69,-3.72,-3.72,-3.72
86.35,-5.91,-5.91,-2.15,-2.15,2.15,2.36,1.64,-3.76,-3.76,-3.76
87.22,-5.91,-5.91,-2.11,-2.11,2.11,2.32,1.60,-3.80,-3.80,-3.80
88.09,-5.91,-5.91,-2.07,-2.08,2.07,2.28,1.56,-3.84,-3.84,-3.84
88.97,-5.91,-5.91,-2.04,-2.04,2.03,2.24,1.52,-3.88,-3.88,-3.87
89.86,-5.91,-5.91,-2.00,-1.99,1.99,2.20,1.48,-3.92,-3.92,-3.91
90.76,-5.90,-5.90,-1.94,-1.95,1.95,2.16,1.44,-3.95,-3.96,-3.96
91.66,-5.90,-5.90,-1.90,-1.90,1.90,2.12,1.41,-4.00,-4.00,-4.00
92.58,-5.90,-5.90,-1.85,-1.86,1.86,2.07,1.37,-4.04,-4.04,-4.05
93.51,-5.90,-5.90,-1.82,-1.82,1.81,2.03,1.34,-4.09,-4.09,-4.08
94.44,-5.90,-5.90,-1.77,-1.77,1.77,1.99,1.30,-4.13,-4.13,-4.13
95.39,-5.90,-5.90,-1.73,-1.73,1.73,1.94,1.27,-4.17,-4.18,-4.17
96.34,-5.91,-5.91,-1.68,-1.68,1.68,1.90,1.24,-4.23,-4.22,-4.23
97.30,-5.91,-5.91,-1.64,-1.64,1.64,1.85,1.21,-4.27,-4.27,-4.27
98.28,-5.92,-5.92,-1.60,-1.61,1.61,1.81,1.18,-4.32,-4.32,-4.32
99.26,-5.94,-5.94,-1.58,-1.57,1.57,1.76,1.15,-4.37,-4.36,-4.36
100.25,-5.95,-5.95,-1.54,-1.54,1.55,1.71,1.12,-4.41,-4.41,-4.41
101.25,-5.97,-5.97,-1.52,-1.51,1.53,1.67,1.09,-4.45,-4.44,-4.45
102.27,-5.99,-5.99,-1.49,-1.49,1.51,1.62,1.07,-4.48,-4.48,-4.50
103.29,-6.03,-6.04,-1.47,-1.49,1.50,1.57,1.04,-4.53,-4.54,-4.56
104.32,-6.08,-6.08,-1.49,-1.49,1.49,1.52,1.02,-4.60,-4.60,-4.59
105.37,-6.14,-6.13,-1.50,-1.49,1.47,1.48,0.99,-4.67,-4.65,-4.64
106.42,-6.16,-6.17,-1.48,-1.48,1.46,1.43,0.97,-4.70,-4.70,-4.69
107.48,-6.19,-6.19,-1.46,-1.46,1.45,1.38,0.95,-4.74,-4.74,-4.73
108.56,-6.21,-6.21,-1.42,-1.43,1.43,1.33,0.92,-4.78,-4.78,-4.79
109.64,-6.23,-6.23,-1.40,-1.40,1.40,1.28,0.90,-4.83,-4.83,-4.83
110.74,-6.25,-6.25,-1.37,-1.37,1.37,1.23,0.88,-4.88,-4.88,-4.88
111.85,-6.27,-6.27,-1.35,-1.34,1.33,1.19,0.86,-4.94,-4.93,-4.93
112.97,-6.28,-6.28,-1.29,-1.30,1.29,1.14,0.84,-4.99,-4.99,-4.99
114.10,-6.29,-6.29,-1.25,-1.25,1.25,1.09,0.82,-5.05,-5.04,-5.04
115.24,-6.29,-6.29,-1.20,-1.20,1.20,1.04,0.80,-5.09,-5.09,-5.09
116.39,-6.29,-6.29,-1.15,-1.14,1.14,0.99,0.77,-5.15,-5.15,-5.15
117.55,-6.28,-6.29,-1.08,-1.09,1.09,0.94,0.75,-5.19,-5.20,-5.20
118.73,-6.28,-6.28,-1.03,-1.03,1.03,0.89,0.73,-5.25,-5.25,-5.25
119.92,-6.27,-6.27,-0.97,-0.97,0.97,0.85,0.71,-5.30,-5.30,-5.30
121.12,-6.26,-6.27,-0.91,-0.92,0.92,0.80,0.69,-5.35,-5.35,-5.35
122.33,-6.26,-6.26,-0.86,-0.86,0.85,0.75,0.67,-5.41,-5.40,-5.40
123.55,-6.25,-6.25,-0.81,-0.80,0.79,0.70,0.65,-5.46,-5.45,-5.44
124.79,-6.24,-6.24,-0.75,-0.75,0.74,0.65,0.63,-5.50,-5.50,-5.50
126.03,-6.23,-6.23,-0.69,-0.69,0.69,0.61,0.60,-5.54,-5.55,-5.55
127.29,-6.23,-6.22,-0.64,-0.62,0.64,0.56,0.58,-5.59,-5.58,-5.60
128.57,-6.22,-6.22,-0.57,-0.57,0.60,0.51,0.56,-5.63,-5.63,-5.66
129.85,-6.22,-6.24,-0.52,-0.54,0.55,0.47,0.54,-5.67,-5.69,-5.70
131.15,-6.27,-6.26,-0.52,-0.51,0.51,0.42,0.51,-5.76,-5.75,-5.75
132.46,-6.30,-6.29,-0.50,-0.49,0.48,0.37,0.49,-5.83,-5.81,-5.80
133.79,-6.30,-6.30,-0.47,-0.46,0.44,0.33,0.47,-5.86,-5.87,-5.84
135.12,-6.30,-6.30,-0.41,-0.42,0.40,0.28,0.44,-5.90,-5.90,-5.89
136.48,-6.29,-6.29,-0.36,-0.37,0.36,0.24,0.42,-5.93,-5.93,-5.93
137.84,-6.29,-6.29,-0.32,-0.31,0.32,0.19,0.39,-5.97,-5.97,-5.97
139.22,-6.29,-6.29,-0.27,-0.27,0.28,0.15,0.37,-6.01,-6.01,-6.02
140.61,-6.29,-6.29,-0.22,-0.23,0.24,0.11,0.34,-6.05,-6.05,-6.07
142.02,-6.29,-6.29,-0.20,-0.19,0.20,0.06,0.32,-6.09,-6.09,-6.09
143.44,-6.29,-6.29,-0.16,-0.16,0.16,0.02,0.29,-6.13,-6.13,-6.13
144.87,-6.29,-6.29,-0.12,-0.12,0.12,-0.02,0.27,-6.17,-6.17,-6.17
146.32,-6.29,-6.29,-0.08,-0.08,0.08,-0.06,0.24,-6.21,-6.21,-6.21
147.78,-6.29,-6.29,-0.05,-0.05,0.05,-0.10,0.21,-6.24,-6.24,-6.24
149.26,-6.29,-6.29,-0.01,-0.01,0.01,-0.14,0.19,-6.28,-6.28,-6.28
150.75,-6.29,-6.29,0.03,0.03,-0.03,-0.18,0.16,-6.32,-6.32,-6.32
152.26,-6.29,-6.29,0.07,0.07,-0.06,-0.21,0.13,-6.36,-6.36,-6.36
153.78,-6.29,-6.29,0.11,0.11,-0.10,-0.25,0.11,-6.39,-6.39,-6.40
155.32,-6.29,-6.29,0.15,0.15,-0.14,-0.29,0.08,-6.43,-6.43,-6.44
156.88,-6.29,-6.29,0.18,0.19,-0.19,-0.32,0.05,-6.48,-6.48,-6.47
158.44,-6.29,-6.29,0.23,0.23,-0.23,-0.36,0.02,-6.53,-6.53,-6.52
160.03,-6.29,-6.30,0.27,0.26,-0.28,-0.39,-0.00,-6.58,-6.58,-6.56
161.63,-6.29,-6.28,0.31,0.32,-0.34,-0.42,-0.03,-6.63,-6.62,-6.60
163.24,-6.27,-6.25,0.37,0.38,-0.39,-0.45,-0.06,-6.66,-6.64,-6.64
164.88,-6.20,-6.22,0.47,0.45,-0.44,-0.48,-0.09,-6.64,-6.66,-6.67
166.53,-6.20,-6.20,0.51,0.51,-0.49,-0.51,-0.12,-6.69,-6.69,-6.71
168.19,-6.20,-6.20,0.55,0.55,-0.53,-0.54,-0.15,-6.73,-6.73,-6.75
169.87,-6.21,-6.21,0.58,0.58,-0.57,-0.57,-0.18,-6.78,-6.78,-6.79
171.57,-6.22,-6.22,0.60,0.61,-0.60,-0.59,-0.21,-6.83,-6.82,-6.82
173.29,-6.22,-6.23,0.64,0.64,-0.64,-0.62,-0.24,-6.86,-6.87,-6.86
175.02,-6.23,-6.23,0.66,0.67,-0.68,-0.64,-0.27,-6.91,-6.91,-6.90
176.77,-6.23,-6.24,0.71,0.70,-0.73,-0.67,-0.30,-6.96,-6.96,-6.94
178.54,-6.23,-6.23,0.75,0.74,-0.78,-0.69,-0.33,-7.01,-7.01,-6.98
180.32,-6.23,-6.21,0.79,0.81,-0.83,-0.71,-0.36,-7.06,-7.04,-7.02
182.13,-6.17,-6.17,0.88,0.88,-0.88,-0.73,-0.39,-7.05,-7.05,-7.05
183.95,-6.11,-6.13,0.98,0.96,-0.93,-0.75,-0.42,-7.04,-7.06,-7.09
185.79,-6.10,-6.10,1.02,1.03,-0.99,-0.77,-0.46,-7.09,-7.09,-7.12
187.65,-6.09,-6.11,1.07,1.05,-1.05,-0.79,-0.49,-7.14,-7.16,-7.16
189.52,-6.13,-6.13,1.06,1.07,-1.11,-0.80,-0.52,-7.24,-7.24,-7.19
191.42,-6.15,-6.12,1.07,1.10,-1.16,-0.82,-0.55,-7.31,-7.28,-7.22
193.33,-6.10,-6.10,1.15,1.16,-1.19,-0.83,-0.59,-7.29,-7.29,-7.25
195.27,-6.04,-6.07,1.24,1.22,-1.20,-0.85,-0.62,-7.24,-7.27,-7.28
197.22,-6.06,-6.07,1.25,1.24,-1.18,-0.86,-0.65,-7.24,-7.25,-7.31
199.19,-6.13,-6.12,1.21,1.21,-1.13,-0.87,-0.68,-7.26,-7.26,-7.35
201.18,-6.24,-6.23,1.12,1.13,-1.06,-0.89,-0.72,-7.30,-7.29,-7.36
203.19,-6.35,-6.38,1.03,1.00,-0.97,-0.90,-0.75,-7.32,-7.35,-7.38
205.23,-6.55,-6.55,0.85,0.85,-0.85,-0.91,-0.78,-7.40,-7.40,-7.40
207.28,-6.76,-6.72,0.65,0.70,-0.72,-0.93,-0.82,-7.48,-7.43,-7.41
209.35,-6.85,-6.89,0.58,0.54,-0.58,-0.94,-0.85,-7.43,-7.47,-7.43
211.44,-7.00,-7.00,0.46,0.45,-0.47,-0.95,-0.88,-7.47,-7.46,-7.46
213.56,-7.13,-7.07,0.33,0.40,-0.40,-0.97,-0.91,-7.53,-7.46,-7.46
215.69,-7.05,-7.13,0.41,0.34,-0.38,-0.98,-0.94,-7.43,-7.51,-7.47
217.85,-7.14,-7.16,0.34,0.32,-0.42,-1.00,-0.97,-7.56,-7.58,-7.48
220.03,-7.15,-7.11,0.34,0.37,-0.49,-1.02,-1.00,-7.65,-7.61,-7.49
222.23,-7.06,-6.97,0.44,0.52,-0.60,-1.04,-1.02,-7.66,-7.57,-7.50
224.45,-6.70,-6.73,0.79,0.77,-0.72,-1.06,-1.05,-7.42,-7.45,-7.49
226.70,-6.43,-6.54,1.06,0.96,-0.85,-1.08,-1.08,-7.28,-7.38,-7.49
228.96,-6.38,-6.39,1.11,1.10,-0.98,-1.11,-1.10,-7.36,-7.37,-7.50
231.25,-6.45,-6.33,1.04,1.16,-1.11,-1.13,-1.12,-7.56,-7.43,-7.49
233.57,-6.23,-6.30,1.25,1.19,-1.22,-1.16,-1.14,-7.45,-7.51,-7.49
235.90,-6.18,-6.23,1.30,1.25,-1.30,-1.18,-1.16,-7.48,-7.54,-7.49
238.26,-6.22,-6.13,1.26,1.35,-1.36,-1.20,-1.18,-7.58,-7.49,-7.49
240.64,-6.07,-6.07,1.40,1.41,-1.41,-1.22,-1.19,-7.48,-7.47,-7.47
243.05,-5.93,-6.00,1.53,1.47,-1.47,-1.24,-1.20,-7.40,-7.46,-7.46
245.48,-5.92,-5.93,1.53,1.52,-1.55,-1.24,-1.21,-7.47,-7.48,-7.45
247.93,-5.94,-5.89,1.50,1.55,-1.64,-1.24,-1.22,-7.58,-7.53,-7.44
250.41,-5.84,-5.84,1.60,1.59,-1.71,-1.22,-1.22,-7.55,-7.55,-7.44
252.92,-5.74,-5.74,1.67,1.67,-1.73,-1.21,-1.23,-7.47,-7.47,-7.41
255.45,-5.64,-5.64,1.75,1.76,-1.68,-1.18,-1.23,-7.32,-7.32,-7.39
258.00,-5.60,-5.58,1.78,1.80,-1.57,-1.15,-1.23,-7.17,-7.15,-7.38
260.58,-5.66,-5.70,1.70,1.67,-1.40,-1.11,-1.22,-7.07,-7.10,-7.37
263.19,-5.85,-5.97,1.49,1.37,-1.21,-1.08,-1.22,-7.06,-7.18,-7.34
265.82,-6.46,-6.36,0.87,0.97,-0.99,-1.04,-1.21,-7.45,-7.34,-7.33
268.48,-6.77,-6.76,0.53,0.54,-0.75,-1.00,-1.20,-7.52,-7.51,-7.30
271.16,-7.03,-7.03,0.25,0.25,-0.50,-0.97,-1.19,-7.53,-7.53,-7.28
273.87,-7.18,-7.09,0.09,0.17,-0.28,-0.94,-1.18,-7.46,-7.37,-7.27
276.61,-7.05,-7.12,0.19,0.13,-0.11,-0.91,-1.17,-7.16,-7.23,-7.24
279.38,-7.05,-7.13,0.18,0.10,-0.02,-0.88,-1.15,-7.07,-7.15,-7.23
282.17,-7.20,-7.16,0.01,0.04,-0.00,-0.85,-1.13,-7.20,-7.17,-7.21
284.99,-7.23,-7.20,-0.04,-0.01,-0.05,-0.83,-1.12,-7.28,-7.24,-7.19
287.84,-7.15,-7.12,0.02,0.05,-0.13,-0.81,-1.10,-7.28,-7.25,-7.17
290.72,-6.94,-6.96,0.21,0.18,-0.23,-0.79,-1.08,-7.17,-7.19,-7.15
293.63,-6.74,-6.80,0.39,0.33,-0.33,-0.77,-1.06,-7.07,-7.13,-7.13
296.57,-6.67,-6.62,0.43,0.49,-0.43,-0.75,-1.04,-7.10,-7.05,-7.11
299.53,-6.50,-6.47,0.59,0.62,-0.54,-0.74,-1.02,-7.05,-7.01,-7.09
302.53,-6.28,-6.36,0.79,0.71,-0.66,-0.72,-0.99,-6.94,-7.02,-7.07
305.55,-6.25,-6.25,0.79,0.79,-0.76,-0.71,-0.97,-7.02,-7.02,-7.04
308.61,-6.25,-6.18,0.77,0.83,-0.85,-0.70,-0.95,-7.10,-7.03,-7.02
311.69,-6.09,-6.13,0.90,0.86,-0.91,-0.69,-0.93,-7.00,-7.04,-6.99
314.81,-6.03,-6.02,0.93,0.94,-0.96,-0.68,-0.91,-6.99,-6.98,-6.96
317.96,-5.95,-5.92,0.99,1.02,-0.99,-0.67,-0.88,-6.95,-6.91,-6.94
321.14,-5.82,-5.88,1.10,1.04,-1.02,-0.66,-0.86,-6.84,-6.90,-6.92
324.35,-5.83,-5.84,1.08,1.06,-1.05,-0.65,-0.84,-6.88,-6.89,-6.91
327.59,-5.87,-5.81,1.01,1.08,-1.07,-0.64,-0.82,-6.94,-6.88,-6.88
330.87,-5.77,-5.79,1.09,1.07,-1.09,-0.64,-0.80,-6.86,-6.89,-6.86
334.18,-5.73,-5.76,1.11,1.08,-1.11,-0.63,-0.78,-6.84,-6.87,-6.85
337.52,-5.75,-5.73,1.08,1.10,-1.12,-0.63,-0.76,-6.87,-6.84,-6.83
340.90,-5.71,-5.70,1.09,1.10,-1.12,-0.62,-0.74,-6.83,-6.82,-6.80
344.30,-5.65,-5.65,1.13,1.13,-1.13,-0.62,-0.72,-6.78,-6.78,-6.78
347.75,-5.60,-5.61,1.16,1.16,-1.13,-0.61,-0.70,-6.73,-6.73,-6.77
351.23,-5.58,-5.61,1.17,1.14,-1.12,-0.61,-0.68,-6.70,-6.73,-6.75
354.74,-5.63,-5.63,1.10,1.10,-1.09,-0.61,-0.66,-6.72,-6.72,-6.73
358.28,-5.70,-5.65,1.01,1.06,-1.05,-0.60,-0.65,-6.76,-6.70,-6.71
361.87,-5.65,-5.66,1.04,1.04,-1.01,-0.60,-0.63,-6.66,-6.67,-6.69
365.49,-5.65,-5.69,1.03,0.99,-0.98,-0.60,-0.61,-6.63,-6.67,-6.69
369.14,-5.73,-5.75,0.95,0.92,-0.94,-0.60,-0.60,-6.67,-6.69,-6.68
372.83,-5.86,-5.82,0.80,0.84,-0.90,-0.60,-0.58,-6.76,-6.72,-6.66
376.56,-5.87,-5.83,0.78,0.81,-0.87,-0.60,-0.57,-6.74,-6.70,-6.65
380.33,-5.77,-5.80,0.85,0.83,-0.84,-0.60,-0.55,-6.61,-6.64,-6.62
384.13,-5.72,-5.74,0.89,0.87,-0.81,-0.60,-0.54,-6.53,-6.56,-6.61
387.97,-5.74,-5.74,0.87,0.87,-0.80,-0.60,-0.53,-6.54,-6.53,-6.61
391.85,-5.76,-5.78,0.84,0.81,-0.79,-0.60,-0.51,-6.55,-6.58,-6.60
395.77,-5.83,-5.82,0.75,0.77,-0.80,-0.60,-0.50,-6.63,-6.62,-6.58
399.73,-5.85,-5.81,0.72,0.77,-0.82,-0.61,-0.49,-6.67,-6.63,-6.57
403.72,-5.73,-5.76,0.83,0.80,-0.85,-0.61,-0.48,-6.58,-6.61,-6.56
407.76,-5.67,-5.69,0.88,0.86,-0.88,-0.61,-0.47,-6.55,-6.57,-6.55
411.84,-5.61,-5.60,0.92,0.94,-0.93,-0.62,-0.46,-6.54,-6.53,-6.53
415.96,-5.55,-5.53,0.97,1.00,-0.98,-0.62,-0.45,-6.53,-6.51,-6.53
420.12,-5.42,-5.44,1.10,1.08,-1.04,-0.62,-0.45,-6.46,-6.48,-6.52
424.32,-5.36,-5.36,1.15,1.15,-1.11,-0.63,-0.44,-6.47,-6.47,-6.51
428.56,-5.29,-5.31,1.21,1.19,-1.17,-0.63,-0.44,-6.46,-6.48,-6.50
432.85,-5.28,-5.27,1.21,1.22,-1.23,-0.64,-0.43,-6.51,-6.50,-6.49
437.18,-5.26,-5.22,1.22,1.26,-1.29,-0.65,-0.43,-6.55,-6.50,-6.48
