frequency,raw,error,smoothed,error_smoothed,equalization,parametric_eq,equalized_raw,equalized_smoothed,target
20,5.50,1.43,5.53,1.47,-1.47,-1.68,4.03,4.05,4.07
21,5.77,1.70,5.83,1.78,-1.78,-1.93,3.99,4.05,4.07
22,6.10,2.04,6.12,2.07,-2.07,-2.21,4.03,4.05,4.06
23,6.44,2.38,6.39,2.35,-2.35,-2.51,4.09,4.05,4.06
24,6.68,2.63,6.66,2.61,-2.61,-2.82,4.07,4.04,4.05
25,6.89,2.84,6.91,2.87,-2.87,-3.15,4.02,4.04,4.05
26,7.21,3.17,7.15,3.11,-3.11,-3.48,4.10,4.03,4.04
27,7.41,3.38,7.37,3.34,-3.34,-3.79,4.07,4.03,4.04
28,7.61,3.58,7.59,3.56,-3.56,-4.09,4.05,4.02,4.03
29,7.81,3.79,7.79,3.77,-3.77,-4.34,4.04,4.02,4.02
30,7.99,3.98,7.97,3.96,-3.96,-4.54,4.03,4.01,4.01
31,8.15,4.15,8.14,4.14,-4.14,-4.68,4.01,4.00,4.00
32,8.26,4.27,8.30,4.31,-4.31,-4.76,3.95,3.99,4.00
33,8.42,4.44,8.44,4.46,-4.46,-4.80,3.96,3.98,3.99
34,8.62,4.65,8.57,4.61,-4.61,-4.80,4.02,3.97,3.98
35,8.62,4.66,8.70,4.74,-4.74,-4.77,3.88,3.96,3.96
36,8.79,4.84,8.81,4.87,-4.87,-4.74,3.93,3.94,3.95
37,8.92,4.98,8.92,4.98,-4.98,-4.69,3.94,3.94,3.94
38,9.02,5.09,9.02,5.10,-5.10,-4.65,3.93,3.93,3.93
39,9.12,5.20,9.11,5.20,-5.20,-4.63,3.92,3.91,3.92
40,9.22,5.32,9.19,5.29,-5.29,-4.61,3.93,3.90,3.90
41,9.29,5.40,9.27,5.38,-5.38,-4.62,3.91,3.88,3.89
42,9.32,5.45,9.34,5.46,-5.46,-4.64,3.86,3.87,3.87
43,9.32,5.46,9.39,5.54,-5.54,-4.68,3.78,3.86,3.86
44,9.52,5.68,9.44,5.60,-5.60,-4.74,3.92,3.84,3.84
45,9.52,5.70,9.49,5.66,-5.66,-4.82,3.86,3.83,3.82
46,9.52,5.72,9.52,5.72,-5.72,-4.91,3.80,3.80,3.81
47,9.52,5.73,9.55,5.77,-5.77,-5.02,3.75,3.78,3.79
48,9.52,5.75,9.57,5.81,-5.81,-5.14,3.71,3.76,3.77
49,9.62,5.87,9.59,5.85,-5.85,-5.27,3.77,3.74,3.75
50,9.62,5.89,9.60,5.89,-5.89,-5.41,3.73,3.71,3.73
51,9.62,5.92,9.62,5.92,-5.92,-5.55,3.70,3.70,3.71
52,9.62,5.94,9.64,5.96,-5.96,-5.70,3.66,3.68,3.68
53,9.62,5.96,9.64,5.99,-5.99,-5.84,3.64,3.66,3.66
54,9.62,5.98,9.64,6.01,-6.01,-5.99,3.61,3.63,3.64
55,9.62,6.01,9.64,6.03,-6.03,-6.12,3.59,3.61,3.61
56,9.62,6.03,9.63,6.05,-6.05,-6.25,3.57,3.58,3.59
57,9.62,6.06,9.62,6.06,-6.06,-6.36,3.56,3.56,3.56
58,9.62,6.09,9.60,6.07,-6.07,-6.46,3.55,3.53,3.53
59,9.62,6.11,9.57,6.08,-6.08,-6.54,3.54,3.50,3.51
60,9.62,6.14,9.54,6.08,-6.08,-6.60,3.54,3.47,3.48
61,9.52,6.07,9.51,6.07,-6.07,-6.64,3.45,3.44,3.45
62,9.42,6.00,9.47,6.06,-6.06,-6.66,3.36,3.41,3.42
63,9.42,6.03,9.44,6.05,-6.05,-6.65,3.37,3.39,3.39
64,9.34,5.98,9.39,6.03,-6.03,-6.63,3.31,3.36,3.36
65,9.32,5.99,9.33,6.01,-6.01,-6.59,3.31,3.32,3.33
66,9.29,5.99,9.27,5.98,-5.98,-6.53,3.31,3.29,3.30
67,9.20,5.93,9.21,5.96,-5.96,-6.45,3.25,3.26,3.27
68,9.12,5.89,9.15,5.92,-5.92,-6.37,3.20,3.23,3.24
69,9.12,5.92,9.09,5.89,-5.89,-6.27,3.23,3.19,3.20
70,9.08,5.91,9.02,5.86,-5.86,-6.17,3.23,3.16,3.17
71,8.92,5.79,8.95,5.82,-5.82,-6.06,3.11,3.14,3.14
72,8.91,5.81,8.88,5.77,-5.77,-5.95,3.14,3.11,3.10
73,8.73,5.66,8.79,5.72,-5.72,-5.84,3.01,3.07,3.07
74,8.72,5.69,8.71,5.67,-5.67,-5.73,3.05,3.03,3.03
75,8.62,5.62,8.61,5.62,-5.62,-5.62,3.00,2.99,3.00
76,8.59,5.63,8.52,5.56,-5.56,-5.52,3.03,2.96,2.96
77,8.42,5.49,8.43,5.51,-5.51,-5.41,2.91,2.92,2.93
78,8.31,5.42,8.33,5.45,-5.45,-5.31,2.86,2.89,2.89
79,8.22,5.37,8.24,5.39,-5.39,-5.22,2.83,2.84,2.85
80,8.19,5.37,8.14,5.34,-5.34,-5.13,2.85,2.80,2.82
81,7.98,5.20,8.06,5.28,-5.28,-5.04,2.70,2.78,2.78
82,7.91,5.16,7.97,5.23,-5.23,-4.96,2.68,2.74,2.75
83,7.89,5.18,7.88,5.18,-5.18,-4.89,2.71,2.70,2.71
84,7.81,5.14,7.79,5.13,-5.13,-4.82,2.68,2.66,2.67
85,7.71,5.07,7.71,5.08,-5.08,-4.76,2.63,2.63,2.64
86,7.64,5.04,7.63,5.03,-5.03,-4.70,2.61,2.59,2.60
87,7.54,4.98,7.54,4.99,-4.99,-4.65,2.55,2.56,2.56
88,7.47,4.94,7.47,4.94,-4.94,-4.60,2.53,2.52,2.53
89,7.41,4.92,7.39,4.90,-4.90,-4.56,2.51,2.49,2.49
90,7.37,4.91,7.31,4.86,-4.86,-4.53,2.51,2.45,2.46
91,7.20,4.78,7.24,4.82,-4.82,-4.49,2.38,2.42,2.42
92,7.15,4.77,7.17,4.79,-4.79,-4.47,2.36,2.39,2.38
93,7.10,4.75,7.10,4.75,-4.75,-4.44,2.35,2.35,2.35
94,7.02,4.71,7.03,4.72,-4.72,-4.42,2.30,2.31,2.31
95,6.92,4.64,6.96,4.70,-4.70,-4.41,2.23,2.27,2.28
96,6.88,4.64,6.90,4.67,-4.67,-4.40,2.21,2.23,2.24
97,6.91,4.70,6.86,4.65,-4.65,-4.39,2.26,2.20,2.21
98,6.79,4.62,6.81,4.64,-4.64,-4.38,2.15,2.17,2.18
99,6.73,4.59,6.76,4.62,-4.62,-4.38,2.11,2.14,2.14
100,6.77,4.66,6.71,4.61,-4.61,-4.38,2.16,2.10,2.11
101,6.65,4.58,6.67,4.61,-4.61,-4.38,2.04,2.06,2.08
102,6.55,4.51,6.62,4.60,-4.60,-4.39,1.95,2.02,2.04
104,6.61,4.63,6.58,4.59,-4.59,-4.40,2.02,1.98,1.98
105,6.59,4.64,6.55,4.59,-4.59,-4.41,2.00,1.95,1.95
106,6.56,4.65,6.50,4.59,-4.59,-4.42,1.97,1.91,1.91
107,6.54,4.66,6.47,4.60,-4.60,-4.43,1.95,1.87,1.88
108,6.33,4.48,6.43,4.60,-4.60,-4.43,1.73,1.84,1.85
109,6.29,4.47,6.41,4.60,-4.60,-4.44,1.69,1.82,1.82
110,6.32,4.53,6.38,4.60,-4.60,-4.45,1.72,1.78,1.79
111,6.36,4.60,6.34,4.60,-4.60,-4.46,1.77,1.75,1.76
112,6.34,4.61,6.32,4.59,-4.59,-4.47,1.75,1.73,1.73
113,6.34,4.63,6.28,4.59,-4.59,-4.47,1.76,1.69,1.71
114,6.30,4.62,6.22,4.58,-4.58,-4.48,1.72,1.64,1.68
115,6.11,4.45,6.18,4.57,-4.57,-4.48,1.54,1.61,1.66
117,6.32,4.71,6.15,4.56,-4.56,-4.48,1.76,1.58,1.61
118,6.15,4.56,6.13,4.56,-4.56,-4.48,1.60,1.57,1.59
119,6.08,4.51,6.11,4.55,-4.55,-4.47,1.53,1.56,1.57
120,5.92,4.37,6.07,4.54,-4.54,-4.47,1.38,1.53,1.55
121,5.96,4.43,6.03,4.53,-4.53,-4.46,1.43,1.50,1.53
123,5.95,4.46,6.00,4.52,-4.52,-4.43,1.43,1.48,1.50
124,5.83,4.35,5.97,4.50,-4.50,-4.41,1.33,1.46,1.48
125,5.89,4.42,5.93,4.49,-4.49,-4.39,1.41,1.45,1.47
126,6.09,4.64,5.88,4.47,-4.47,-4.37,1.62,1.41,1.46
128,5.96,4.54,5.84,4.45,-4.45,-4.32,1.51,1.39,1.42
129,5.89,4.48,5.79,4.43,-4.43,-4.29,1.46,1.36,1.41
130,5.72,4.32,5.77,4.40,-4.40,-4.25,1.32,1.38,1.40
131,5.66,4.28,5.73,4.36,-4.36,-4.22,1.30,1.37,1.38
133,5.73,4.38,5.67,4.32,-4.32,-4.15,1.41,1.35,1.35
134,5.56,4.22,5.60,4.28,-4.28,-4.11,1.29,1.32,1.34
135,5.44,4.12,5.52,4.22,-4.22,-4.07,1.22,1.30,1.32
137,5.36,4.07,5.44,4.16,-4.16,-3.98,1.20,1.28,1.29
138,5.25,3.97,5.35,4.10,-4.10,-3.94,1.15,1.24,1.28
140,5.48,4.23,5.25,4.04,-4.04,-3.85,1.44,1.21,1.25
141,5.29,4.06,5.17,3.97,-3.97,-3.80,1.32,1.20,1.23
142,5.15,3.93,5.09,3.90,-3.90,-3.75,1.25,1.19,1.22
144,4.76,3.57,5.01,3.83,-3.83,-3.66,0.93,1.18,1.19
145,4.77,3.60,4.90,3.74,-3.74,-3.61,1.03,1.16,1.17
147,4.77,3.62,4.78,3.64,-3.64,-3.51,1.13,1.14,1.15
148,4.69,3.56,4.66,3.52,-3.52,-3.46,1.17,1.14,1.13
150,4.53,3.42,4.51,3.39,-3.39,-3.37,1.14,1.12,1.11
151,4.45,3.36,4.34,3.24,-3.24,-3.32,1.21,1.10,1.10
153,4.25,3.18,4.16,3.08,-3.08,-3.23,1.17,1.07,1.07
154,4.17,3.11,3.94,2.92,-2.92,-3.19,1.25,1.03,1.06
156,3.81,2.77,3.75,2.74,-2.74,-3.10,1.07,1.01,1.04
157,3.64,2.61,3.55,2.56,-2.56,-3.05,1.08,0.99,1.03
159,3.27,2.26,3.36,2.39,-2.39,-2.97,0.88,0.97,1.01
160,3.18,2.18,3.15,2.23,-2.23,-2.93,0.95,0.92,1.00
162,2.90,1.93,2.97,2.09,-2.09,-2.85,0.81,0.88,0.97
164,2.66,1.71,2.84,1.97,-1.97,-2.77,0.69,0.87,0.95
165,2.60,1.66,2.73,1.88,-1.88,-2.73,0.72,0.85,0.94
167,2.46,1.54,2.65,1.82,-1.82,-2.66,0.64,0.83,0.92
169,2.44,1.55,2.61,1.79,-1.79,-2.59,0.65,0.81,0.90
170,2.51,1.63,2.59,1.79,-1.79,-2.56,0.72,0.80,0.88
172,2.57,1.71,2.61,1.81,-1.81,-2.49,0.76,0.80,0.86
174,2.67,1.83,2.64,1.84,-1.84,-2.43,0.83,0.79,0.84
175,2.79,1.96,2.68,1.89,-1.89,-2.40,0.90,0.80,0.84
177,2.91,2.09,2.73,1.93,-1.93,-2.35,0.98,0.80,0.82
179,2.99,2.18,2.78,1.97,-1.97,-2.29,1.02,0.82,0.81
181,2.78,1.98,2.82,1.99,-1.99,-2.24,0.79,0.83,0.80
183,2.83,2.04,2.84,2.01,-2.01,-2.19,0.82,0.83,0.79
184,2.88,2.08,2.83,2.02,-2.02,-2.17,0.87,0.82,0.80
186,2.83,2.03,2.81,2.00,-2.00,-2.13,0.83,0.80,0.80
188,2.78,1.98,2.77,1.97,-1.97,-2.08,0.81,0.79,0.80
190,2.71,1.90,2.72,1.93,-1.93,-2.04,0.78,0.79,0.81
192,2.70,1.89,2.66,1.88,-1.88,-2.01,0.82,0.79,0.81
194,2.64,1.82,2.61,1.82,-1.82,-1.97,0.82,0.79,0.82
196,2.46,1.64,2.55,1.76,-1.76,-1.94,0.70,0.79,0.82
198,2.45,1.63,2.50,1.70,-1.70,-1.91,0.75,0.80,0.83
200,2.33,1.50,2.46,1.65,-1.65,-1.88,0.68,0.81,0.83
202,2.33,1.50,2.40,1.60,-1.60,-1.85,0.73,0.80,0.83
204,2.40,1.58,2.34,1.55,-1.55,-1.82,0.85,0.80,0.83
206,2.37,1.55,2.30,1.50,-1.50,-1.79,0.87,0.80,0.82
208,2.30,1.49,2.24,1.45,-1.45,-1.77,0.85,0.79,0.81
210,2.25,1.44,2.20,1.41,-1.41,-1.75,0.84,0.78,0.81
212,2.19,1.39,2.15,1.38,-1.38,-1.72,0.82,0.78,0.80
214,2.10,1.31,2.12,1.34,-1.34,-1.70,0.76,0.78,0.79
216,2.05,1.27,2.08,1.31,-1.31,-1.68,0.75,0.77,0.78
218,1.99,1.22,2.04,1.28,-1.28,-1.66,0.72,0.76,0.77
221,1.98,1.23,2.00,1.25,-1.25,-1.63,0.73,0.75,0.75
223,1.98,1.23,1.97,1.23,-1.23,-1.62,0.75,0.74,0.75
225,1.88,1.14,1.94,1.21,-1.21,-1.60,0.67,0.73,0.74
227,1.89,1.15,1.93,1.19,-1.19,-1.58,0.70,0.74,0.74
229,1.98,1.24,1.92,1.18,-1.18,-1.56,0.81,0.74,0.74
232,1.88,1.14,1.91,1.17,-1.17,-1.54,0.71,0.74,0.74
234,1.88,1.13,1.91,1.16,-1.16,-1.52,0.72,0.75,0.75
236,1.91,1.15,1.92,1.15,-1.15,-1.50,0.76,0.76,0.76
239,1.93,1.16,1.93,1.15,-1.15,-1.48,0.78,0.78,0.77
241,1.95,1.17,1.92,1.14,-1.14,-1.46,0.81,0.78,0.78
244,1.97,1.18,1.92,1.14,-1.14,-1.44,0.83,0.78,0.79
246,1.99,1.18,1.93,1.13,-1.13,-1.42,0.86,0.80,0.81
248,1.92,1.10,1.95,1.13,-1.13,-1.40,0.79,0.82,0.82
251,1.89,1.06,1.95,1.12,-1.12,-1.37,0.77,0.83,0.83
253,1.94,1.09,1.95,1.11,-1.11,-1.36,0.83,0.84,0.85
256,1.95,1.10,1.94,1.09,-1.09,-1.33,0.86,0.84,0.86
259,1.96,1.10,1.93,1.08,-1.08,-1.30,0.88,0.85,0.86
261,1.89,1.03,1.92,1.07,-1.07,-1.28,0.83,0.86,0.87
264,1.84,0.97,1.91,1.05,-1.05,-1.26,0.79,0.86,0.87
266,2.03,1.16,1.90,1.05,-1.05,-1.24,0.98,0.86,0.87
269,2.04,1.18,1.89,1.04,-1.04,-1.21,1.00,0.85,0.87
272,1.87,1.01,1.88,1.04,-1.04,-1.18,0.83,0.85,0.86
274,1.76,0.90,1.89,1.04,-1.04,-1.16,0.72,0.85,0.86
277,1.82,0.96,1.90,1.05,-1.05,-1.13,0.77,0.85,0.86
280,1.86,1.00,1.91,1.07,-1.07,-1.10,0.80,0.85,0.86
283,2.05,1.19,1.94,1.09,-1.09,-1.08,0.96,0.85,0.86
286,1.95,1.09,1.98,1.12,-1.12,-1.05,0.83,0.86,0.87
288,1.92,1.05,2.02,1.15,-1.15,-1.03,0.77,0.87,0.87
291,1.98,1.10,2.06,1.19,-1.19,-1.00,0.79,0.87,0.88
294,2.04,1.15,2.09,1.23,-1.23,-0.97,0.81,0.86,0.89
297,2.19,1.29,2.15,1.27,-1.27,-0.95,0.92,0.88,0.90
300,2.32,1.41,2.22,1.32,-1.32,-0.92,1.00,0.90,0.91
303,2.33,1.41,2.28,1.36,-1.36,-0.89,0.97,0.92,0.92
306,2.34,1.41,2.32,1.40,-1.40,-0.87,0.94,0.92,0.93
309,2.41,1.48,2.36,1.44,-1.44,-0.84,0.97,0.92,0.94
312,2.43,1.49,2.39,1.47,-1.47,-0.82,0.96,0.92,0.94
316,2.33,1.38,2.44,1.50,-1.50,-0.78,0.84,0.94,0.95
319,2.37,1.42,2.47,1.52,-1.52,-0.76,0.85,0.95,0.95
322,2.51,1.56,2.49,1.53,-1.53,-0.74,0.98,0.95,0.95
325,2.59,1.64,2.49,1.54,-1.54,-0.71,1.05,0.95,0.95
328,2.48,1.53,2.48,1.54,-1.54,-0.69,0.94,0.94,0.95
332,2.46,1.51,2.46,1.53,-1.53,-0.66,0.93,0.94,0.95
335,2.46,1.51,2.45,1.52,-1.52,-0.64,0.94,0.93,0.95
338,2.46,1.51,2.43,1.51,-1.51,-0.62,0.95,0.93,0.95
342,2.46,1.51,2.43,1.49,-1.49,-0.60,0.97,0.94,0.95
345,2.44,1.49,2.42,1.47,-1.47,-0.58,0.97,0.95,0.95
349,2.36,1.41,2.40,1.44,-1.44,-0.55,0.92,0.96,0.95
352,2.29,1.34,2.37,1.42,-1.42,-0.53,0.87,0.95,0.95
356,2.26,1.30,2.33,1.39,-1.39,-0.51,0.87,0.94,0.96
359,2.26,1.30,2.30,1.35,-1.35,-0.49,0.91,0.95,0.96
363,2.27,1.30,2.28,1.32,-1.32,-0.47,0.95,0.96,0.97
366,2.28,1.31,2.26,1.29,-1.29,-0.45,0.99,0.96,0.98
370,2.40,1.42,2.23,1.26,-1.26,-0.43,1.14,0.97,0.98
374,2.32,1.33,2.20,1.23,-1.23,-0.41,1.10,0.98,0.99
377,2.04,1.04,2.18,1.19,-1.19,-0.40,0.85,0.99,1.00
381,2.01,1.01,2.15,1.16,-1.16,-0.38,0.86,0.99,1.01
385,2.11,1.10,2.11,1.12,-1.12,-0.36,0.99,0.99,1.01
389,2.12,1.11,2.08,1.08,-1.08,-0.34,1.04,1.00,1.01
393,2.08,1.06,2.06,1.04,-1.04,-0.32,1.04,1.01,1.02
397,2.02,1.00,2.01,1.00,-1.00,-0.30,1.02,1.01,1.02
401,1.99,0.97,1.96,0.95,-0.95,-0.29,1.04,1.01,1.02
405,1.92,0.91,1.90,0.90,-0.90,-0.27,1.02,1.00,1.02
409,1.86,0.85,1.85,0.85,-0.85,-0.25,1.01,1.00,1.01
413,1.81,0.80,1.81,0.80,-0.80,-0.23,1.01,1.01,1.02
417,1.72,0.70,1.77,0.75,-0.75,-0.22,0.97,1.02,1.02
421,1.75,0.73,1.72,0.70,-0.70,-0.20,1.05,1.02,1.02
425,1.84,0.81,1.68,0.65,-0.65,-0.18,1.19,1.03,1.04
430,1.60,0.55,1.64,0.60,-0.60,-0.16,1.01,1.05,1.05
434,1.43,0.35,1.62,0.54,-0.54,-0.15,0.89,1.07,1.08
438,1.51,0.40,1.60,0.49,-0.49,-0.13,1.02,1.11,1.11
443,1.59,0.45,1.59,0.44,-0.44,-0.11,1.15,1.15,1.15
447,1.55,0.36,1.57,0.39,-0.39,-0.10,1.16,1.18,1.19
451,1.57,0.33,1.56,0.33,-0.33,-0.08,1.24,1.23,1.24
456,1.56,0.27,1.57,0.28,-0.28,-0.06,1.28,1.29,1.29
460,1.72,0.37,1.56,0.23,-0.23,-0.04,1.49,1.34,1.35
465,1.60,0.19,1.56,0.17,-0.17,-0.02,1.43,1.39,1.41
470,1.53,0.06,1.57,0.11,-0.11,0.00,1.42,1.46,1.47
474,1.61,0.09,1.58,0.06,-0.06,0.02,1.56,1.53,1.53
479,1.56,-0.02,1.57,-0.00,0.00,0.04,1.56,1.58,1.58
484,1.45,-0.18,1.55,-0.06,0.06,0.06,1.51,1.62,1.63
489,1.44,-0.24,1.54,-0.12,0.12,0.08,1.56,1.66,1.68
494,1.66,-0.06,1.53,-0.18,0.18,0.11,1.84,1.71,1.72
499,1.58,-0.17,1.49,-0.24,0.24,0.13,1.82,1.73,1.75
504,1.31,-0.47,1.46,-0.29,0.29,0.16,1.60,1.75,1.78
509,1.51,-0.29,1.43,-0.35,0.35,0.18,1.86,1.78,1.80
514,1.48,-0.33,1.39,-0.40,0.40,0.20,1.88,1.79,1.81
519,1.18,-0.63,1.34,-0.45,0.45,0.23,1.63,1.80,1.81
524,1.26,-0.54,1.29,-0.51,0.51,0.26,1.77,1.79,1.80
529,1.37,-0.42,1.22,-0.56,0.56,0.28,1.93,1.78,1.79
535,1.19,-0.57,1.14,-0.62,0.62,0.31,1.81,1.76,1.76
540,1.06,-0.68,1.04,-0.68,0.68,0.34,1.74,1.71,1.74
545,0.84,-0.86,0.95,-0.74,0.74,0.37,1.58,1.69,1.70
551,0.97,-0.70,0.87,-0.81,0.81,0.40,1.78,1.68,1.67
556,0.89,-0.75,0.78,-0.87,0.87,0.43,1.76,1.65,1.64
562,0.49,-1.11,0.66,-0.94,0.94,0.47,1.43,1.60,1.60
568,0.60,-0.97,0.56,-1.01,1.01,0.50,1.61,1.57,1.58
573,0.45,-1.10,0.49,-1.08,1.08,0.53,1.53,1.57,1.55
579,0.27,-1.26,0.39,-1.15,1.15,0.57,1.42,1.54,1.53
585,0.25,-1.27,0.30,-1.21,1.21,0.61,1.46,1.52,1.52
591,0.34,-1.18,0.23,-1.27,1.27,0.65,1.62,1.51,1.52
596,0.34,-1.18,0.18,-1.34,1.34,0.68,1.68,1.51,1.52
602,0.01,-1.52,0.13,-1.40,1.40,0.72,1.41,1.53,1.53
608,-0.07,-1.61,0.09,-1.45,1.45,0.76,1.38,1.54,1.54
615,0.06,-1.51,0.07,-1.50,1.50,0.80,1.56,1.57,1.57
621,0.16,-1.43,0.05,-1.55,1.55,0.85,1.71,1.60,1.60
627,0.13,-1.50,0.02,-1.60,1.60,0.89,1.73,1.62,1.63
633,-0.15,-1.82,0.03,-1.65,1.65,0.93,1.50,1.67,1.67
639,-0.06,-1.77,0.03,-1.69,1.69,0.97,1.63,1.73,1.71
646,0.05,-1.71,0.02,-1.73,1.73,1.02,1.79,1.75,1.76
652,0.17,-1.64,0.01,-1.78,1.78,1.07,1.95,1.79,1.81
659,0.06,-1.80,0.03,-1.83,1.83,1.12,1.89,1.86,1.86
665,0.03,-1.88,0.05,-1.87,1.87,1.16,1.90,1.93,1.91
672,-0.12,-2.08,0.06,-1.92,1.92,1.22,1.80,1.98,1.97
679,0.00,-2.01,0.04,-1.96,1.96,1.27,1.96,2.01,2.01
686,0.22,-1.84,0.02,-2.01,2.01,1.32,2.23,2.03,2.06
692,0.17,-1.92,0.01,-2.05,2.05,1.37,2.23,2.06,2.09
699,-0.13,-2.25,-0.00,-2.10,2.10,1.43,1.97,2.10,2.13
706,-0.11,-2.26,-0.03,-2.15,2.15,1.48,2.04,2.12,2.15
713,0.08,-2.08,-0.06,-2.18,2.18,1.54,2.27,2.13,2.16
721,0.02,-2.15,-0.08,-2.22,2.22,1.61,2.24,2.14,2.17
728,-0.15,-2.32,-0.10,-2.26,2.26,1.67,2.11,2.16,2.17
735,-0.21,-2.38,-0.12,-2.29,2.29,1.72,2.09,2.17,2.17
742,-0.30,-2.47,-0.15,-2.32,2.32,1.78,2.03,2.18,2.17
750,-0.28,-2.45,-0.19,-2.35,2.35,1.85,2.07,2.17,2.17
757,-0.15,-2.32,-0.22,-2.38,2.38,1.91,2.23,2.16,2.17
765,-0.13,-2.31,-0.23,-2.40,2.40,1.98,2.27,2.17,2.18
773,-0.11,-2.29,-0.24,-2.43,2.43,2.05,2.32,2.19,2.18
780,-0.28,-2.47,-0.25,-2.45,2.45,2.11,2.17,2.20,2.19
788,-0.31,-2.51,-0.27,-2.47,2.47,2.18,2.16,2.20,2.20
796,-0.31,-2.53,-0.27,-2.49,2.49,2.25,2.18,2.22,2.22
804,-0.31,-2.54,-0.27,-2.52,2.52,2.32,2.21,2.24,2.23
812,-0.30,-2.55,-0.28,-2.54,2.54,2.39,2.24,2.26,2.25
820,-0.30,-2.57,-0.29,-2.56,2.56,2.46,2.26,2.27,2.27
828,-0.30,-2.58,-0.31,-2.58,2.58,2.52,2.28,2.27,2.28
837,-0.29,-2.59,-0.33,-2.60,2.60,2.60,2.32,2.27,2.30
845,-0.24,-2.55,-0.34,-2.63,2.63,2.66,2.39,2.28,2.31
853,-0.31,-2.63,-0.34,-2.64,2.64,2.72,2.34,2.30,2.32
862,-0.44,-2.77,-0.34,-2.66,2.66,2.79,2.22,2.32,2.33
871,-0.39,-2.73,-0.33,-2.67,2.67,2.85,2.28,2.34,2.34
879,-0.32,-2.66,-0.34,-2.68,2.68,2.91,2.36,2.34,2.34
888,-0.33,-2.68,-0.34,-2.68,2.68,2.97,2.36,2.35,2.35
897,-0.35,-2.70,-0.34,-2.69,2.69,3.02,2.34,2.35,2.35
906,-0.36,-2.72,-0.33,-2.68,2.68,3.07,2.32,2.35,2.36
915,-0.33,-2.69,-0.32,-2.68,2.68,3.12,2.35,2.36,2.36
924,-0.25,-2.62,-0.31,-2.66,2.66,3.16,2.41,2.36,2.37
933,-0.25,-2.63,-0.28,-2.65,2.65,3.20,2.40,2.36,2.38
943,-0.25,-2.63,-0.25,-2.63,2.63,3.24,2.38,2.38,2.39
952,-0.25,-2.64,-0.21,-2.61,2.61,3.26,2.36,2.40,2.39
962,-0.25,-2.65,-0.18,-2.58,2.58,3.29,2.33,2.40,2.40
971,-0.14,-2.56,-0.14,-2.55,2.55,3.30,2.41,2.41,2.42
981,-0.13,-2.56,-0.10,-2.52,2.52,3.32,2.39,2.43,2.43
991,-0.01,-2.45,-0.05,-2.49,2.49,3.32,2.48,2.44,2.45
1001,0.00,-2.46,0.00,-2.46,2.46,3.32,2.46,2.46,2.46
1011,0.02,-2.46,0.05,-2.43,2.43,3.31,2.45,2.48,2.48
1021,0.14,-2.37,0.10,-2.40,2.40,3.30,2.54,2.51,2.51
1031,0.17,-2.36,0.16,-2.38,2.38,3.28,2.55,2.54,2.53
1041,0.20,-2.36,0.20,-2.36,2.36,3.26,2.56,2.56,2.56
1052,0.24,-2.34,0.25,-2.35,2.35,3.22,2.59,2.59,2.59
1062,0.28,-2.33,0.28,-2.34,2.34,3.19,2.62,2.62,2.61
1073,0.32,-2.32,0.30,-2.34,2.34,3.15,2.66,2.65,2.64
1084,0.37,-2.30,0.33,-2.35,2.35,3.10,2.72,2.68,2.67
1094,0.35,-2.35,0.34,-2.37,2.37,3.05,2.72,2.71,2.70
1105,0.38,-2.35,0.35,-2.39,2.39,2.99,2.77,2.74,2.73
1116,0.38,-2.39,0.35,-2.42,2.42,2.94,2.80,2.77,2.77
1128,0.31,-2.49,0.36,-2.45,2.45,2.87,2.76,2.81,2.80
1139,0.32,-2.52,0.36,-2.49,2.49,2.80,2.81,2.84,2.84
1150,0.36,-2.51,0.36,-2.52,2.52,2.74,2.89,2.88,2.87
1162,0.35,-2.56,0.35,-2.56,2.56,2.66,2.91,2.91,2.91
1173,0.36,-2.58,0.34,-2.60,2.60,2.59,2.96,2.94,2.94
1185,0.31,-2.67,0.34,-2.63,2.63,2.52,2.94,2.97,2.98
1197,0.35,-2.67,0.35,-2.65,2.65,2.44,3.00,3.00,3.02
1209,0.38,-2.67,0.37,-2.67,2.67,2.36,3.05,3.04,3.05
1221,0.42,-2.67,0.39,-2.68,2.68,2.29,3.10,3.07,3.09
1233,0.41,-2.71,0.41,-2.69,2.69,2.21,3.10,3.10,3.12
1246,0.39,-2.76,0.44,-2.68,2.68,2.13,3.07,3.13,3.15
1258,0.44,-2.74,0.48,-2.67,2.67,2.05,3.11,3.15,3.18
1271,0.45,-2.75,0.52,-2.64,2.64,1.97,3.09,3.16,3.20
1283,0.56,-2.65,0.57,-2.61,2.61,1.90,3.17,3.18,3.21
1296,0.70,-2.51,0.62,-2.56,2.56,1.82,3.26,3.18,3.21
1309,0.71,-2.50,0.67,-2.51,2.51,1.74,3.22,3.18,3.21
1322,0.71,-2.49,0.72,-2.45,2.45,1.66,3.16,3.17,3.21
1335,0.76,-2.43,0.78,-2.38,2.38,1.59,3.14,3.16,3.19
1349,0.86,-2.32,0.84,-2.31,2.31,1.51,3.17,3.15,3.18
1362,0.91,-2.25,0.91,-2.23,2.23,1.44,3.14,3.15,3.16
1376,1.01,-2.13,0.99,-2.15,2.15,1.36,3.16,3.14,3.14
1390,1.03,-2.09,1.05,-2.07,2.07,1.29,3.10,3.12,3.12
1404,1.07,-2.03,1.12,-1.99,1.99,1.21,3.06,3.11,3.10
1418,1.13,-1.95,1.19,-1.90,1.90,1.14,3.03,3.09,3.08
1432,1.26,-1.81,1.26,-1.82,1.82,1.07,3.08,3.08,3.07
1446,1.38,-1.68,1.33,-1.73,1.73,1.00,3.11,3.07,3.06
1461,1.50,-1.56,1.41,-1.65,1.65,0.93,3.15,3.06,3.06
1475,1.51,-1.55,1.49,-1.57,1.57,0.87,3.08,3.05,3.06
1490,1.61,-1.45,1.56,-1.49,1.49,0.80,3.10,3.05,3.06
1505,1.62,-1.45,1.65,-1.40,1.40,0.73,3.02,3.05,3.07
1520,1.68,-1.40,1.74,-1.32,1.32,0.67,3.00,3.06,3.08
1535,1.86,-1.23,1.84,-1.23,1.23,0.61,3.09,3.07,3.09
1550,1.93,-1.17,1.95,-1.13,1.13,0.54,3.07,3.09,3.10
1566,2.00,-1.12,2.06,-1.04,1.04,0.48,3.04,3.10,3.12
1582,2.14,-1.00,2.18,-0.93,0.93,0.42,3.08,3.11,3.14
1597,2.33,-0.84,2.31,-0.83,0.83,0.36,3.16,3.14,3.17
1613,2.44,-0.76,2.46,-0.72,0.72,0.30,3.16,3.17,3.20
1629,2.60,-0.63,2.61,-0.60,0.60,0.24,3.21,3.22,3.23
1646,2.81,-0.46,2.78,-0.49,0.49,0.19,3.30,3.26,3.27
1662,2.94,-0.37,2.95,-0.37,0.37,0.13,3.31,3.32,3.32
1679,3.09,-0.28,3.12,-0.25,0.25,0.08,3.35,3.38,3.37
1696,3.31,-0.11,3.30,-0.14,0.14,0.02,3.45,3.44,3.42
1713,3.48,-0.01,3.48,-0.03,0.03,-0.03,3.51,3.51,3.49
1730,3.68,0.12,3.66,0.08,-0.08,-0.08,3.60,3.58,3.56
1747,3.90,0.25,3.85,0.19,-0.19,-0.12,3.72,3.66,3.65
1764,4.03,0.29,4.03,0.28,-0.28,-0.17,3.75,3.75,3.74
1782,4.18,0.35,4.22,0.37,-0.37,-0.21,3.81,3.84,3.83
1800,4.38,0.45,4.40,0.46,-0.46,-0.25,3.92,3.94,3.94
1818,4.60,0.56,4.57,0.54,-0.54,-0.29,4.06,4.04,4.04
1836,4.71,0.56,4.75,0.61,-0.61,-0.32,4.10,4.14,4.15
1854,4.94,0.68,4.93,0.67,-0.67,-0.36,4.27,4.25,4.26
1873,5.06,0.69,5.09,0.73,-0.73,-0.39,4.33,4.36,4.37
1892,5.23,0.75,5.26,0.78,-0.78,-0.42,4.46,4.48,4.48
1911,5.47,0.87,5.41,0.81,-0.81,-0.44,4.66,4.60,4.60
1930,5.58,0.87,5.56,0.84,-0.84,-0.46,4.74,4.71,4.71
1949,5.69,0.87,5.69,0.87,-0.87,-0.48,4.83,4.83,4.82
1969,5.82,0.89,5.81,0.88,-0.88,-0.50,4.94,4.93,4.93
1988,5.95,0.91,5.91,0.88,-0.88,-0.51,5.07,5.03,5.04
2008,6.07,0.93,6.01,0.88,-0.88,-0.52,5.19,5.13,5.14
2028,6.20,0.96,6.11,0.87,-0.87,-0.53,5.33,5.24,5.25
2048,6.24,0.89,6.20,0.86,-0.86,-0.53,5.38,5.34,5.35
2069,6.32,0.87,6.30,0.84,-0.84,-0.53,5.48,5.45,5.45
2090,6.31,0.75,6.39,0.83,-0.83,-0.53,5.48,5.56,5.56
2111,6.40,0.72,6.48,0.81,-0.81,-0.52,5.59,5.67,5.68
2132,6.46,0.66,6.58,0.79,-0.79,-0.51,5.67,5.79,5.80
