frequency,raw,error,smoothed,error_smoothed,equalization,parametric_eq,equalized_raw,equalized_smoothed,target
20,5.31,1.52,5.22,1.43,-1.43,-0.40,3.88,3.79,3.79
21,5.14,1.35,5.12,1.33,-1.33,-0.46,3.81,3.79,3.79
22,4.99,1.20,5.03,1.24,-1.24,-0.53,3.76,3.79,3.79
23,4.87,1.09,4.94,1.16,-1.16,-0.61,3.72,3.79,3.79
24,4.79,1.01,4.87,1.08,-1.08,-0.69,3.71,3.79,3.79
25,4.73,0.95,4.80,1.02,-1.02,-0.77,3.71,3.78,3.78
26,4.70,0.92,4.74,0.97,-0.97,-0.85,3.74,3.78,3.78
27,4.68,0.91,4.70,0.92,-0.92,-0.93,3.76,3.78,3.78
28,4.65,0.88,4.66,0.89,-0.89,-1.00,3.76,3.77,3.77
29,4.63,0.87,4.63,0.86,-0.86,-1.06,3.77,3.77,3.77
30,4.63,0.87,4.61,0.85,-0.85,-1.11,3.79,3.76,3.76
31,4.63,0.88,4.59,0.84,-0.84,-1.15,3.80,3.76,3.76
32,4.61,0.86,4.58,0.83,-0.83,-1.17,3.78,3.75,3.75
33,4.59,0.85,4.58,0.83,-0.83,-1.18,3.76,3.74,3.74
34,4.58,0.85,4.57,0.84,-0.84,-1.18,3.75,3.74,3.74
35,4.57,0.84,4.57,0.84,-0.84,-1.17,3.73,3.73,3.73
36,4.57,0.85,4.57,0.85,-0.85,-1.16,3.72,3.72,3.72
37,4.57,0.86,4.58,0.86,-0.86,-1.15,3.71,3.71,3.71
38,4.58,0.88,4.58,0.88,-0.88,-1.14,3.71,3.70,3.70
39,4.58,0.89,4.58,0.89,-0.89,-1.14,3.69,3.69,3.69
40,4.58,0.90,4.59,0.91,-0.91,-1.13,3.68,3.68,3.68
41,4.59,0.92,4.60,0.93,-0.93,-1.13,3.67,3.67,3.67
42,4.60,0.94,4.61,0.95,-0.95,-1.13,3.65,3.66,3.66
43,4.61,0.97,4.62,0.97,-0.97,-1.14,3.64,3.65,3.65
44,4.62,0.99,4.63,1.00,-1.00,-1.16,3.63,3.63,3.63
45,4.64,1.02,4.64,1.02,-1.02,-1.17,3.62,3.62,3.62
46,4.65,1.05,4.65,1.05,-1.05,-1.19,3.60,3.60,3.60
47,4.66,1.08,4.66,1.08,-1.08,-1.22,3.59,3.59,3.59
48,4.68,1.11,4.67,1.10,-1.10,-1.25,3.58,3.57,3.57
49,4.68,1.13,4.68,1.13,-1.13,-1.28,3.55,3.55,3.55
50,4.69,1.16,4.69,1.15,-1.15,-1.31,3.54,3.53,3.53
51,4.70,1.19,4.69,1.18,-1.18,-1.34,3.53,3.51,3.51
52,4.70,1.21,4.69,1.20,-1.20,-1.37,3.50,3.49,3.49
53,4.70,1.23,4.69,1.22,-1.22,-1.41,3.48,3.47,3.47
54,4.69,1.24,4.69,1.24,-1.24,-1.44,3.45,3.45,3.45
55,4.68,1.26,4.68,1.26,-1.26,-1.47,3.43,3.42,3.42
56,4.67,1.27,4.68,1.27,-1.27,-1.50,3.40,3.40,3.40
57,4.66,1.29,4.67,1.29,-1.29,-1.53,3.37,3.37,3.37
58,4.64,1.29,4.66,1.31,-1.31,-1.55,3.34,3.35,3.35
59,4.63,1.31,4.64,1.32,-1.32,-1.57,3.31,3.32,3.32
60,4.61,1.32,4.63,1.34,-1.34,-1.58,3.27,3.29,3.29
61,4.60,1.34,4.62,1.35,-1.35,-1.60,3.25,3.26,3.26
62,4.59,1.36,4.60,1.37,-1.37,-1.60,3.23,3.23,3.23
63,4.59,1.39,4.58,1.38,-1.38,-1.60,3.21,3.20,3.20
64,4.59,1.42,4.56,1.39,-1.39,-1.60,3.20,3.17,3.17
65,4.57,1.43,4.54,1.40,-1.40,-1.60,3.17,3.14,3.14
66,4.54,1.44,4.52,1.41,-1.41,-1.59,3.13,3.11,3.11
67,4.50,1.43,4.50,1.42,-1.42,-1.57,3.08,3.07,3.07
68,4.47,1.43,4.47,1.43,-1.43,-1.56,3.04,3.04,3.04
69,4.42,1.42,4.44,1.44,-1.44,-1.54,2.99,3.00,3.00
70,4.39,1.43,4.41,1.45,-1.45,-1.53,2.95,2.97,2.97
71,4.36,1.43,4.38,1.45,-1.45,-1.51,2.91,2.93,2.93
72,4.34,1.45,4.36,1.46,-1.46,-1.49,2.88,2.89,2.89
73,4.31,1.46,4.33,1.47,-1.47,-1.47,2.84,2.86,2.86
74,4.30,1.49,4.30,1.48,-1.48,-1.45,2.82,2.82,2.82
75,4.28,1.50,4.27,1.49,-1.49,-1.43,2.79,2.78,2.78
76,4.25,1.51,4.24,1.50,-1.50,-1.41,2.75,2.74,2.74
77,4.21,1.51,4.21,1.51,-1.51,-1.39,2.70,2.70,2.70
78,4.17,1.51,4.18,1.52,-1.52,-1.38,2.65,2.66,2.66
79,4.14,1.52,4.15,1.53,-1.53,-1.36,2.61,2.62,2.62
80,4.12,1.54,4.12,1.54,-1.54,-1.35,2.58,2.58,2.58
81,4.10,1.57,4.09,1.55,-1.55,-1.33,2.55,2.54,2.54
82,4.06,1.57,4.06,1.56,-1.56,-1.32,2.50,2.50,2.50
83,4.03,1.58,4.03,1.57,-1.57,-1.31,2.46,2.46,2.46
84,4.00,1.59,3.99,1.58,-1.58,-1.31,2.42,2.41,2.41
85,3.96,1.59,3.96,1.59,-1.59,-1.30,2.38,2.37,2.37
86,3.91,1.58,3.92,1.59,-1.59,-1.29,2.32,2.33,2.33
87,3.88,1.59,3.88,1.59,-1.59,-1.29,2.29,2.29,2.29
88,3.84,1.60,3.85,1.60,-1.60,-1.29,2.25,2.25,2.25
89,3.80,1.60,3.81,1.60,-1.60,-1.29,2.20,2.21,2.21
90,3.76,1.60,3.77,1.60,-1.60,-1.29,2.16,2.17,2.16
91,3.72,1.60,3.73,1.60,-1.60,-1.29,2.12,2.12,2.12
92,3.68,1.60,3.68,1.60,-1.60,-1.29,2.08,2.08,2.08
93,3.63,1.59,3.64,1.60,-1.60,-1.30,2.04,2.04,2.04
94,3.59,1.59,3.60,1.59,-1.59,-1.30,2.00,2.00,2.00
95,3.54,1.58,3.55,1.59,-1.59,-1.31,1.96,1.96,1.96
96,3.50,1.58,3.50,1.58,-1.58,-1.31,1.92,1.92,1.92
97,3.47,1.59,3.45,1.57,-1.57,-1.32,1.90,1.88,1.88
98,3.42,1.58,3.40,1.56,-1.56,-1.33,1.86,1.84,1.84
99,3.36,1.56,3.34,1.55,-1.55,-1.34,1.81,1.80,1.80
100,3.31,1.55,3.29,1.54,-1.54,-1.35,1.78,1.75,1.76
101,3.25,1.53,3.24,1.52,-1.52,-1.36,1.73,1.71,1.73
102,3.18,1.50,3.18,1.51,-1.51,-1.37,1.67,1.67,1.69
104,3.07,1.46,3.13,1.50,-1.50,-1.39,1.58,1.63,1.61
105,3.03,1.46,3.07,1.48,-1.48,-1.40,1.55,1.59,1.58
106,2.99,1.45,3.02,1.47,-1.47,-1.41,1.52,1.55,1.54
107,2.95,1.45,2.97,1.46,-1.46,-1.42,1.49,1.51,1.51
108,2.92,1.45,2.92,1.45,-1.45,-1.43,1.47,1.48,1.47
109,2.89,1.46,2.88,1.44,-1.44,-1.43,1.45,1.44,1.44
110,2.84,1.44,2.83,1.43,-1.43,-1.44,1.41,1.40,1.40
111,2.80,1.43,2.78,1.42,-1.42,-1.45,1.39,1.37,1.37
112,2.75,1.42,2.74,1.41,-1.41,-1.46,1.35,1.33,1.34
113,2.71,1.41,2.69,1.39,-1.39,-1.46,1.32,1.30,1.30
114,2.66,1.39,2.64,1.38,-1.38,-1.47,1.28,1.26,1.27
115,2.62,1.38,2.60,1.37,-1.37,-1.47,1.25,1.23,1.24
117,2.51,1.33,2.55,1.36,-1.36,-1.47,1.16,1.19,1.18
118,2.46,1.31,2.50,1.34,-1.34,-1.47,1.12,1.16,1.15
119,2.42,1.30,2.45,1.33,-1.33,-1.47,1.09,1.12,1.12
120,2.39,1.30,2.40,1.31,-1.31,-1.47,1.08,1.09,1.09
121,2.35,1.29,2.35,1.30,-1.30,-1.46,1.06,1.06,1.07
123,2.30,1.29,2.30,1.28,-1.28,-1.45,1.02,1.02,1.01
124,2.28,1.30,2.25,1.26,-1.26,-1.44,1.02,0.99,0.99
125,2.24,1.28,2.20,1.24,-1.24,-1.43,1.00,0.96,0.96
126,2.19,1.26,2.15,1.22,-1.22,-1.42,0.97,0.93,0.94
128,2.09,1.21,2.10,1.20,-1.20,-1.39,0.89,0.90,0.89
129,2.03,1.17,2.05,1.18,-1.18,-1.38,0.85,0.87,0.86
130,1.97,1.13,2.00,1.16,-1.16,-1.36,0.82,0.84,0.84
131,1.93,1.11,1.94,1.13,-1.13,-1.34,0.80,0.81,0.82
133,1.85,1.08,1.89,1.11,-1.11,-1.31,0.75,0.78,0.77
134,1.82,1.07,1.83,1.08,-1.08,-1.29,0.74,0.75,0.75
135,1.80,1.07,1.78,1.05,-1.05,-1.26,0.75,0.72,0.73
137,1.74,1.05,1.73,1.03,-1.03,-1.22,0.72,0.70,0.69
138,1.70,1.03,1.67,1.00,-1.00,-1.19,0.70,0.67,0.67
140,1.61,0.98,1.62,0.97,-0.97,-1.14,0.64,0.65,0.64
141,1.56,0.94,1.57,0.95,-0.95,-1.12,0.62,0.62,0.62
142,1.51,0.91,1.51,0.92,-0.92,-1.09,0.60,0.59,0.60
144,1.43,0.87,1.46,0.89,-0.89,-1.04,0.54,0.57,0.57
145,1.39,0.84,1.41,0.86,-0.86,-1.01,0.53,0.55,0.55
147,1.33,0.81,1.35,0.83,-0.83,-0.96,0.50,0.52,0.52
148,1.31,0.81,1.30,0.80,-0.80,-0.93,0.51,0.50,0.50
150,1.26,0.79,1.25,0.77,-0.77,-0.87,0.49,0.48,0.47
151,1.23,0.77,1.20,0.74,-0.74,-0.84,0.49,0.46,0.46
153,1.16,0.73,1.15,0.71,-0.71,-0.79,0.45,0.44,0.43
154,1.11,0.69,1.10,0.68,-0.68,-0.76,0.43,0.42,0.42
156,1.03,0.64,1.05,0.65,-0.65,-0.70,0.38,0.40,0.39
157,0.99,0.61,1.00,0.62,-0.62,-0.68,0.37,0.38,0.38
159,0.91,0.55,0.95,0.59,-0.59,-0.62,0.32,0.36,0.36
160,0.88,0.54,0.90,0.56,-0.56,-0.59,0.32,0.34,0.35
162,0.84,0.52,0.85,0.53,-0.53,-0.54,0.31,0.32,0.33
164,0.80,0.50,0.81,0.50,-0.50,-0.49,0.30,0.31,0.30
165,0.78,0.49,0.76,0.47,-0.47,-0.46,0.31,0.29,0.29
167,0.73,0.46,0.71,0.44,-0.44,-0.41,0.29,0.27,0.27
169,0.67,0.42,0.67,0.41,-0.41,-0.36,0.27,0.26,0.26
170,0.65,0.41,0.62,0.38,-0.38,-0.33,0.28,0.24,0.25
172,0.57,0.34,0.57,0.34,-0.34,-0.28,0.23,0.23,0.23
174,0.51,0.30,0.53,0.31,-0.31,-0.23,0.20,0.21,0.21
175,0.49,0.29,0.48,0.28,-0.28,-0.21,0.21,0.20,0.20
177,0.43,0.24,0.43,0.25,-0.25,-0.16,0.19,0.19,0.19
179,0.36,0.19,0.39,0.22,-0.22,-0.11,0.15,0.17,0.17
181,0.31,0.15,0.34,0.18,-0.18,-0.06,0.13,0.16,0.16
183,0.26,0.12,0.30,0.15,-0.15,-0.02,0.11,0.15,0.15
184,0.25,0.11,0.26,0.12,-0.12,0.01,0.13,0.14,0.14
186,0.22,0.10,0.21,0.09,-0.09,0.05,0.14,0.13,0.13
188,0.19,0.08,0.17,0.05,-0.05,0.10,0.14,0.11,0.11
190,0.15,0.05,0.12,0.02,-0.02,0.14,0.14,0.10,0.10
192,0.10,0.01,0.07,-0.02,0.02,0.18,0.12,0.09,0.09
194,0.05,-0.03,0.03,-0.05,0.05,0.23,0.11,0.08,0.08
196,-0.01,-0.08,-0.02,-0.09,0.09,0.27,0.08,0.07,0.07
198,-0.08,-0.14,-0.07,-0.13,0.13,0.31,0.05,0.06,0.06
200,-0.13,-0.18,-0.11,-0.17,0.17,0.35,0.04,0.05,0.05
202,-0.19,-0.23,-0.16,-0.20,0.20,0.39,0.02,0.04,0.04
204,-0.23,-0.26,-0.20,-0.24,0.24,0.43,0.01,0.04,0.04
206,-0.27,-0.29,-0.25,-0.28,0.28,0.47,0.01,0.03,0.03
208,-0.32,-0.34,-0.29,-0.31,0.31,0.51,-0.01,0.02,0.02
210,-0.34,-0.35,-0.33,-0.35,0.35,0.54,0.01,0.01,0.01
212,-0.38,-0.38,-0.38,-0.38,0.38,0.58,0.00,0.00,0.01
214,-0.41,-0.41,-0.42,-0.41,0.41,0.62,0.01,-0.00,-0.00
216,-0.44,-0.43,-0.46,-0.45,0.45,0.65,0.01,-0.01,-0.01
218,-0.47,-0.45,-0.50,-0.49,0.49,0.68,0.02,-0.02,-0.01
221,-0.52,-0.49,-0.55,-0.52,0.52,0.73,0.01,-0.02,-0.02
223,-0.58,-0.55,-0.59,-0.56,0.56,0.76,-0.01,-0.03,-0.03
225,-0.63,-0.59,-0.64,-0.60,0.60,0.79,-0.03,-0.03,-0.03
227,-0.68,-0.64,-0.68,-0.64,0.64,0.82,-0.04,-0.04,-0.04
229,-0.73,-0.68,-0.73,-0.68,0.68,0.85,-0.05,-0.05,-0.05
232,-0.80,-0.74,-0.77,-0.72,0.72,0.89,-0.08,-0.05,-0.05
234,-0.84,-0.78,-0.81,-0.76,0.76,0.91,-0.08,-0.06,-0.06
236,-0.87,-0.81,-0.85,-0.79,0.79,0.94,-0.07,-0.06,-0.06
239,-0.91,-0.84,-0.89,-0.83,0.83,0.97,-0.08,-0.07,-0.07
241,-0.93,-0.86,-0.93,-0.86,0.86,0.99,-0.07,-0.07,-0.07
244,-0.97,-0.89,-0.96,-0.88,0.88,1.02,-0.08,-0.08,-0.08
246,-0.99,-0.91,-0.99,-0.91,0.91,1.03,-0.08,-0.08,-0.08
248,-1.01,-0.92,-1.01,-0.93,0.93,1.05,-0.08,-0.08,-0.08
251,-1.04,-0.95,-1.03,-0.95,0.95,1.07,-0.09,-0.09,-0.09
253,-1.05,-0.95,-1.05,-0.96,0.96,1.09,-0.09,-0.09,-0.09
256,-1.07,-0.97,-1.07,-0.98,0.98,1.10,-0.09,-0.10,-0.10
259,-1.10,-1.00,-1.09,-0.99,0.99,1.12,-0.11,-0.10,-0.10
261,-1.11,-1.00,-1.10,-1.00,1.00,1.13,-0.11,-0.10,-0.10
264,-1.12,-1.01,-1.11,-1.01,1.01,1.14,-0.11,-0.11,-0.11
266,-1.13,-1.02,-1.12,-1.01,1.01,1.15,-0.11,-0.11,-0.11
269,-1.15,-1.03,-1.13,-1.02,1.02,1.16,-0.13,-0.11,-0.11
272,-1.16,-1.04,-1.15,-1.03,1.03,1.17,-0.13,-0.12,-0.12
274,-1.17,-1.05,-1.16,-1.04,1.04,1.17,-0.13,-0.12,-0.12
277,-1.18,-1.05,-1.17,-1.05,1.05,1.18,-0.13,-0.12,-0.12
280,-1.20,-1.07,-1.19,-1.07,1.07,1.19,-0.13,-0.13,-0.13
283,-1.21,-1.08,-1.21,-1.09,1.09,1.19,-0.12,-0.13,-0.13
286,-1.23,-1.10,-1.24,-1.11,1.11,1.19,-0.12,-0.13,-0.13
288,-1.25,-1.11,-1.28,-1.14,1.14,1.20,-0.11,-0.13,-0.13
291,-1.28,-1.14,-1.31,-1.18,1.18,1.20,-0.10,-0.14,-0.14
294,-1.32,-1.18,-1.36,-1.22,1.22,1.21,-0.10,-0.14,-0.14
297,-1.37,-1.23,-1.41,-1.27,1.27,1.21,-0.10,-0.14,-0.14
300,-1.43,-1.28,-1.46,-1.32,1.32,1.21,-0.11,-0.14,-0.14
303,-1.50,-1.35,-1.51,-1.37,1.37,1.22,-0.13,-0.14,-0.14
306,-1.57,-1.42,-1.57,-1.42,1.42,1.22,-0.15,-0.15,-0.15
309,-1.65,-1.50,-1.62,-1.47,1.47,1.23,-0.17,-0.15,-0.15
312,-1.71,-1.56,-1.67,-1.52,1.52,1.23,-0.19,-0.15,-0.15
316,-1.78,-1.62,-1.72,-1.57,1.57,1.24,-0.21,-0.15,-0.15
319,-1.82,-1.66,-1.76,-1.60,1.60,1.25,-0.21,-0.15,-0.15
322,-1.84,-1.68,-1.79,-1.64,1.64,1.25,-0.20,-0.16,-0.16
325,-1.85,-1.69,-1.82,-1.67,1.67,1.26,-0.18,-0.16,-0.16
328,-1.86,-1.70,-1.85,-1.69,1.69,1.27,-0.17,-0.16,-0.16
332,-1.87,-1.71,-1.87,-1.71,1.71,1.28,-0.16,-0.16,-0.16
335,-1.87,-1.71,-1.89,-1.73,1.73,1.29,-0.14,-0.16,-0.16
338,-1.88,-1.71,-1.90,-1.74,1.74,1.30,-0.14,-0.16,-0.16
342,-1.89,-1.72,-1.92,-1.75,1.75,1.32,-0.13,-0.16,-0.16
345,-1.91,-1.74,-1.93,-1.77,1.77,1.33,-0.14,-0.16,-0.16
349,-1.93,-1.76,-1.95,-1.79,1.79,1.35,-0.14,-0.17,-0.17
352,-1.95,-1.78,-1.97,-1.80,1.80,1.36,-0.14,-0.17,-0.17
356,-1.99,-1.82,-1.99,-1.82,1.82,1.38,-0.17,-0.17,-0.17
359,-2.01,-1.84,-2.01,-1.84,1.84,1.40,-0.17,-0.17,-0.17
363,-2.05,-1.88,-2.03,-1.86,1.86,1.42,-0.18,-0.17,-0.17
366,-2.07,-1.89,-2.06,-1.88,1.88,1.43,-0.18,-0.17,-0.17
370,-2.09,-1.91,-2.08,-1.91,1.91,1.46,-0.18,-0.17,-0.17
374,-2.12,-1.94,-2.10,-1.93,1.93,1.48,-0.19,-0.18,-0.18
377,-2.13,-1.95,-2.12,-1.95,1.95,1.50,-0.18,-0.18,-0.18
381,-2.15,-1.97,-2.14,-1.96,1.96,1.53,-0.18,-0.18,-0.18
385,-2.17,-1.99,-2.16,-1.98,1.98,1.55,-0.19,-0.18,-0.18
389,-2.18,-2.00,-2.17,-1.99,1.99,1.58,-0.19,-0.18,-0.18
393,-2.19,-2.00,-2.19,-2.00,2.00,1.61,-0.18,-0.18,-0.18
397,-2.20,-2.01,-2.20,-2.01,2.01,1.64,-0.18,-0.18,-0.18
401,-2.21,-2.02,-2.21,-2.02,2.02,1.67,-0.18,-0.19,-0.18
405,-2.22,-2.03,-2.22,-2.03,2.03,1.70,-0.18,-0.19,-0.19
409,-2.22,-2.03,-2.23,-2.04,2.04,1.72,-0.17,-0.19,-0.19
413,-2.23,-2.04,-2.24,-2.05,2.05,1.75,-0.18,-0.19,-0.19
417,-2.24,-2.05,-2.24,-2.06,2.06,1.78,-0.18,-0.19,-0.19
421,-2.24,-2.05,-2.25,-2.06,2.06,1.81,-0.17,-0.19,-0.19
425,-2.25,-2.06,-2.25,-2.07,2.07,1.84,-0.18,-0.19,-0.19
430,-2.25,-2.06,-2.26,-2.07,2.07,1.88,-0.18,-0.19,-0.19
434,-2.26,-2.07,-2.26,-2.07,2.07,1.90,-0.19,-0.19,-0.19
438,-2.26,-2.07,-2.25,-2.07,2.07,1.93,-0.19,-0.18,-0.18
443,-2.27,-2.09,-2.24,-2.06,2.06,1.96,-0.20,-0.18,-0.18
447,-2.28,-2.10,-2.23,-2.05,2.05,1.99,-0.22,-0.18,-0.18
451,-2.26,-2.08,-2.22,-2.04,2.04,2.01,-0.21,-0.17,-0.17
456,-2.23,-2.06,-2.20,-2.03,2.03,2.04,-0.20,-0.17,-0.17
460,-2.20,-2.04,-2.18,-2.02,2.02,2.06,-0.18,-0.16,-0.16
465,-2.14,-1.98,-2.16,-2.00,2.00,2.08,-0.13,-0.15,-0.15
470,-2.10,-1.95,-2.13,-1.99,1.99,2.10,-0.11,-0.15,-0.15
474,-2.07,-1.93,-2.11,-1.98,1.98,2.12,-0.09,-0.14,-0.14
479,-2.05,-1.92,-2.09,-1.96,1.96,2.14,-0.08,-0.13,-0.13
484,-2.04,-1.92,-2.07,-1.95,1.95,2.15,-0.08,-0.12,-0.12
489,-2.05,-1.94,-2.05,-1.95,1.95,2.17,-0.10,-0.10,-0.10
494,-2.05,-1.96,-2.03,-1.94,1.94,2.18,-0.11,-0.09,-0.09
499,-2.03,-1.95,-2.01,-1.94,1.94,2.18,-0.09,-0.08,-0.08
504,-2.02,-1.96,-1.99,-1.93,1.93,2.19,-0.08,-0.06,-0.06
509,-2.00,-1.95,-1.98,-1.93,1.93,2.19,-0.07,-0.05,-0.05
514,-1.97,-1.94,-1.96,-1.93,1.93,2.19,-0.04,-0.03,-0.03
519,-1.94,-1.93,-1.93,-1.93,1.93,2.19,-0.01,-0.01,-0.01
524,-1.91,-1.92,-1.91,-1.92,1.92,2.19,0.02,0.01,0.01
529,-1.89,-1.92,-1.89,-1.92,1.92,2.18,0.03,0.03,0.03
535,-1.86,-1.91,-1.86,-1.92,1.92,2.17,0.06,0.05,0.05
540,-1.83,-1.90,-1.84,-1.91,1.91,2.16,0.09,0.07,0.07
545,-1.81,-1.90,-1.81,-1.91,1.91,2.15,0.10,0.10,0.10
551,-1.79,-1.91,-1.78,-1.90,1.90,2.14,0.12,0.12,0.12
556,-1.76,-1.90,-1.75,-1.90,1.90,2.13,0.14,0.15,0.15
562,-1.73,-1.90,-1.72,-1.89,1.89,2.11,0.17,0.17,0.17
568,-1.69,-1.89,-1.69,-1.89,1.89,2.09,0.20,0.20,0.20
573,-1.66,-1.88,-1.66,-1.88,1.88,2.08,0.23,0.23,0.23
579,-1.63,-1.88,-1.62,-1.88,1.88,2.06,0.25,0.25,0.25
585,-1.59,-1.87,-1.59,-1.87,1.87,2.04,0.29,0.28,0.28
591,-1.56,-1.87,-1.56,-1.87,1.87,2.03,0.31,0.31,0.31
596,-1.53,-1.87,-1.52,-1.87,1.87,2.01,0.34,0.34,0.34
602,-1.50,-1.87,-1.49,-1.86,1.86,1.99,0.37,0.37,0.37
608,-1.46,-1.86,-1.46,-1.86,1.86,1.98,0.40,0.40,0.40
615,-1.42,-1.85,-1.42,-1.86,1.86,1.96,0.44,0.44,0.44
621,-1.39,-1.86,-1.39,-1.86,1.86,1.95,0.47,0.47,0.47
627,-1.35,-1.85,-1.36,-1.86,1.86,1.93,0.51,0.50,0.50
633,-1.33,-1.86,-1.32,-1.86,1.86,1.92,0.53,0.54,0.54
639,-1.29,-1.86,-1.29,-1.86,1.86,1.91,0.57,0.57,0.57
646,-1.26,-1.86,-1.26,-1.86,1.86,1.89,0.61,0.60,0.60
652,-1.23,-1.87,-1.23,-1.87,1.87,1.88,0.64,0.64,0.64
659,-1.19,-1.86,-1.20,-1.87,1.87,1.87,0.69,0.67,0.67
665,-1.17,-1.88,-1.17,-1.88,1.88,1.87,0.71,0.71,0.71
672,-1.14,-1.88,-1.14,-1.88,1.88,1.86,0.75,0.75,0.75
679,-1.10,-1.88,-1.10,-1.89,1.89,1.86,0.79,0.78,0.78
686,-1.07,-1.89,-1.07,-1.89,1.89,1.85,0.82,0.82,0.82
692,-1.04,-1.90,-1.04,-1.89,1.89,1.85,0.86,0.86,0.86
699,-1.01,-1.90,-1.00,-1.89,1.89,1.85,0.89,0.90,0.90
706,-0.97,-1.90,-0.96,-1.89,1.89,1.85,0.93,0.93,0.93
713,-0.94,-1.91,-0.92,-1.89,1.89,1.85,0.95,0.97,0.97
721,-0.91,-1.92,-0.87,-1.88,1.88,1.86,0.98,1.01,1.01
728,-0.86,-1.90,-0.83,-1.88,1.88,1.86,1.02,1.05,1.05
735,-0.81,-1.89,-0.78,-1.87,1.87,1.87,1.06,1.09,1.09
742,-0.74,-1.86,-0.74,-1.86,1.86,1.88,1.12,1.12,1.12
750,-0.68,-1.84,-0.69,-1.85,1.85,1.89,1.18,1.16,1.16
757,-0.63,-1.83,-0.65,-1.85,1.85,1.90,1.22,1.20,1.20
765,-0.59,-1.82,-0.61,-1.85,1.85,1.91,1.26,1.24,1.24
773,-0.54,-1.81,-0.58,-1.85,1.85,1.92,1.31,1.27,1.27
780,-0.52,-1.83,-0.54,-1.85,1.85,1.94,1.33,1.31,1.31
788,-0.49,-1.83,-0.51,-1.86,1.86,1.95,1.37,1.34,1.34
796,-0.48,-1.86,-0.49,-1.87,1.87,1.97,1.39,1.38,1.38
804,-0.47,-1.88,-0.46,-1.88,1.88,1.99,1.41,1.41,1.41
812,-0.45,-1.89,-0.44,-1.89,1.89,2.00,1.44,1.45,1.45
820,-0.44,-1.92,-0.42,-1.90,1.90,2.02,1.46,1.48,1.48
828,-0.44,-1.95,-0.40,-1.91,1.91,2.04,1.48,1.51,1.51
837,-0.41,-1.95,-0.38,-1.92,1.92,2.06,1.52,1.55,1.55
845,-0.39,-1.96,-0.36,-1.94,1.94,2.08,1.55,1.58,1.58
853,-0.36,-1.96,-0.34,-1.95,1.95,2.10,1.59,1.61,1.61
862,-0.32,-1.96,-0.32,-1.95,1.95,2.12,1.64,1.64,1.64
871,-0.28,-1.94,-0.30,-1.96,1.96,2.14,1.69,1.67,1.67
879,-0.25,-1.94,-0.28,-1.97,1.97,2.15,1.72,1.70,1.70
888,-0.23,-1.95,-0.26,-1.98,1.98,2.17,1.75,1.73,1.73
897,-0.22,-1.97,-0.24,-1.99,1.99,2.18,1.77,1.75,1.75
906,-0.20,-1.98,-0.22,-2.00,2.00,2.20,1.80,1.78,1.78
915,-0.19,-2.00,-0.20,-2.01,2.01,2.21,1.82,1.81,1.81
924,-0.19,-2.02,-0.18,-2.02,2.02,2.22,1.83,1.84,1.84
933,-0.18,-2.04,-0.16,-2.02,2.02,2.23,1.85,1.86,1.86
943,-0.17,-2.06,-0.14,-2.03,2.03,2.23,1.86,1.89,1.89
952,-0.15,-2.06,-0.12,-2.04,2.04,2.24,1.89,1.92,1.92
962,-0.13,-2.07,-0.10,-2.04,2.04,2.24,1.92,1.94,1.94
971,-0.10,-2.07,-0.08,-2.05,2.05,2.23,1.95,1.97,1.97
981,-0.06,-2.05,-0.06,-2.05,2.05,2.23,2.00,2.00,2.00
991,-0.03,-2.05,-0.03,-2.06,2.06,2.22,2.03,2.02,2.02
1001,0.00,-2.05,-0.01,-2.06,2.06,2.21,2.06,2.05,2.05
1011,0.04,-2.03,0.01,-2.06,2.06,2.19,2.11,2.08,2.08
1021,0.06,-2.04,0.03,-2.07,2.07,2.18,2.13,2.10,2.10
1031,0.07,-2.06,0.06,-2.08,2.08,2.16,2.15,2.13,2.13
1041,0.08,-2.08,0.08,-2.08,2.08,2.13,2.17,2.16,2.16
1052,0.10,-2.08,0.10,-2.09,2.09,2.11,2.19,2.19,2.19
1062,0.12,-2.09,0.12,-2.10,2.10,2.08,2.22,2.22,2.22
1073,0.15,-2.09,0.14,-2.10,2.10,2.04,2.26,2.24,2.24
1084,0.18,-2.09,0.17,-2.11,2.11,2.01,2.29,2.27,2.27
1094,0.20,-2.10,0.20,-2.11,2.11,1.97,2.31,2.30,2.30
1105,0.23,-2.10,0.23,-2.10,2.10,1.94,2.33,2.33,2.33
1116,0.27,-2.09,0.28,-2.09,2.09,1.90,2.36,2.36,2.36
1128,0.30,-2.09,0.33,-2.06,2.06,1.85,2.37,2.39,2.39
1139,0.35,-2.07,0.39,-2.03,2.03,1.81,2.38,2.42,2.42
1150,0.40,-2.05,0.46,-1.99,1.99,1.76,2.39,2.45,2.45
1162,0.48,-2.00,0.54,-1.94,1.94,1.71,2.42,2.49,2.49
1173,0.57,-1.94,0.63,-1.88,1.88,1.67,2.46,2.52,2.52
1185,0.69,-1.86,0.73,-1.82,1.82,1.62,2.51,2.55,2.55
1197,0.82,-1.76,0.83,-1.75,1.75,1.57,2.57,2.58,2.58
1209,0.96,-1.65,0.94,-1.68,1.68,1.52,2.64,2.61,2.61
1221,1.08,-1.56,1.04,-1.60,1.60,1.47,2.69,2.65,2.65
1233,1.20,-1.48,1.15,-1.53,1.53,1.42,2.74,2.68,2.68
1246,1.31,-1.40,1.25,-1.47,1.47,1.37,2.78,2.71,2.71
1258,1.39,-1.35,1.34,-1.40,1.40,1.32,2.80,2.75,2.75
1271,1.47,-1.31,1.43,-1.35,1.35,1.27,2.82,2.78,2.78
1283,1.54,-1.27,1.52,-1.30,1.30,1.22,2.84,2.82,2.82
1296,1.60,-1.25,1.60,-1.25,1.25,1.18,2.85,2.85,2.85
1309,1.66,-1.22,1.68,-1.21,1.21,1.13,2.87,2.89,2.89
1322,1.73,-1.19,1.76,-1.17,1.17,1.08,2.90,2.92,2.92
1335,1.79,-1.17,1.83,-1.13,1.13,1.03,2.92,2.96,2.96
1349,1.86,-1.13,1.90,-1.10,1.10,0.98,2.96,3.00,3.00
1362,1.91,-1.12,1.96,-1.07,1.07,0.94,2.98,3.03,3.03
1376,1.98,-1.09,2.02,-1.05,1.05,0.89,3.03,3.07,3.07
1390,2.05,-1.05,2.08,-1.03,1.03,0.85,3.08,3.11,3.11
1404,2.12,-1.02,2.13,-1.02,1.02,0.80,3.14,3.14,3.14
1418,2.20,-0.98,2.17,-1.01,1.01,0.76,3.22,3.18,3.18
1432,2.28,-0.94,2.21,-1.02,1.02,0.72,3.30,3.22,3.22
1446,2.34,-0.92,2.23,-1.03,1.03,0.68,3.37,3.26,3.26
1461,2.38,-0.92,2.26,-1.04,1.04,0.63,3.43,3.30,3.30
1475,2.41,-0.93,2.28,-1.06,1.06,0.59,3.47,3.34,3.34
1490,2.41,-0.97,2.31,-1.07,1.07,0.55,3.49,3.38,3.38
1505,2.39,-1.03,2.34,-1.08,1.08,0.51,3.48,3.42,3.42
1520,2.35,-1.11,2.38,-1.08,1.08,0.47,3.43,3.46,3.46
1535,2.32,-1.18,2.44,-1.06,1.06,0.44,3.38,3.50,3.50
1550,2.31,-1.23,2.53,-1.02,1.02,0.40,3.33,3.55,3.55
1566,2.35,-1.24,2.63,-0.96,0.96,0.36,3.31,3.59,3.59
1582,2.50,-1.13,2.75,-0.88,0.88,0.32,3.38,3.63,3.63
1597,2.69,-0.98,2.90,-0.78,0.78,0.29,3.47,3.67,3.68
1613,2.96,-0.76,3.06,-0.66,0.66,0.25,3.63,3.72,3.72
1629,3.26,-0.50,3.23,-0.54,0.54,0.22,3.80,3.76,3.76
1646,3.55,-0.25,3.40,-0.41,0.41,0.18,3.96,3.81,3.81
1662,3.78,-0.07,3.57,-0.28,0.28,0.15,4.06,3.85,3.85
1679,3.95,0.05,3.73,-0.16,0.16,0.11,4.12,3.90,3.90
1696,4.06,0.12,3.88,-0.06,0.06,0.08,4.12,3.94,3.94
1713,4.14,0.15,4.02,0.03,-0.03,0.04,4.11,3.99,3.99
1730,4.19,0.15,4.14,0.10,-0.10,0.01,4.09,4.04,4.04
1747,4.24,0.16,4.24,0.15,-0.15,-0.02,4.09,4.09,4.09
1764,4.30,0.17,4.33,0.19,-0.19,-0.05,4.11,4.14,4.14
1782,4.36,0.17,4.40,0.22,-0.22,-0.09,4.15,4.19,4.19
1800,4.43,0.19,4.47,0.23,-0.23,-0.12,4.20,4.24,4.24
1818,4.50,0.21,4.54,0.25,-0.25,-0.15,4.26,4.29,4.29
1836,4.56,0.21,4.61,0.26,-0.26,-0.18,4.30,4.35,4.35
1854,4.63,0.23,4.68,0.28,-0.28,-0.21,4.36,4.40,4.41
1873,4.72,0.26,4.76,0.30,-0.30,-0.24,4.43,4.47,4.47
1892,4.82,0.29,4.85,0.33,-0.33,-0.27,4.50,4.53,4.53
1911,4.92,0.33,4.96,0.36,-0.36,-0.30,4.56,4.60,4.60
1930,5.04,0.38,5.07,0.40,-0.40,-0.33,4.64,4.67,4.67
