frequency,raw,error,smoothed,error_smoothed,equalization,parametric_eq,fixed_band_eq,equalized_raw,equalized_smoothed,target
20.00,0.51,-2.66,0.51,-2.66,2.67,2.31,0.41,3.17,3.17,3.16
20.20,0.54,-2.64,0.54,-2.64,2.64,2.28,0.43,3.18,3.17,3.17
20.40,0.57,-2.62,0.57,-2.61,2.61,2.26,0.44,3.17,3.18,3.18
20.61,0.61,-2.59,0.61,-2.58,2.57,2.23,0.46,3.18,3.18,3.19
20.81,0.66,-2.53,0.66,-2.54,2.54,2.20,0.47,3.20,3.19,3.19
21.02,0.71,-2.49,0.70,-2.50,2.50,2.18,0.49,3.21,3.20,3.20
21.23,0.75,-2.46,0.75,-2.46,2.46,2.15,0.50,3.21,3.21,3.21
21.44,0.80,-2.43,0.80,-2.42,2.42,2.12,0.52,3.22,3.22,3.23
21.66,0.86,-2.37,0.85,-2.38,2.38,2.09,0.54,3.23,3.23,3.23
21.87,0.91,-2.33,0.91,-2.33,2.33,2.06,0.56,3.24,3.24,3.24
22.09,0.96,-2.28,0.96,-2.28,2.28,2.03,0.58,3.24,3.24,3.24
22.31,1.02,-2.23,1.01,-2.23,2.24,2.00,0.60,3.25,3.25,3.25
22.54,1.06,-2.19,1.06,-2.19,2.19,1.97,0.61,3.24,3.25,3.25
22.76,1.12,-2.14,1.12,-2.14,2.14,1.94,0.64,3.26,3.26,3.26
22.99,1.17,-2.09,1.16,-2.09,2.09,1.91,0.66,3.26,3.26,3.26
23.22,1.22,-2.04,1.22,-2.04,2.05,1.88,0.68,3.26,3.26,3.26
23.45,1.26,-2.01,1.27,-2.00,2.00,1.85,0.70,3.26,3.26,3.27
23.69,1.32,-1.95,1.31,-1.95,1.95,1.82,0.72,3.27,3.26,3.26
23.92,1.37,-1.90,1.36,-1.91,1.90,1.78,0.74,3.27,3.27,3.26
24.16,1.41,-1.86,1.42,-1.86,1.85,1.75,0.77,3.26,3.27,3.27
24.40,1.47,-1.81,1.47,-1.81,1.80,1.72,0.79,3.27,3.27,3.28
24.65,1.53,-1.75,1.53,-1.75,1.75,1.68,0.81,3.28,3.28,3.28
24.89,1.59,-1.69,1.58,-1.70,1.70,1.65,0.83,3.29,3.29,3.28
25.14,1.64,-1.64,1.63,-1.64,1.65,1.61,0.86,3.29,3.28,3.28
25.39,1.68,-1.60,1.68,-1.59,1.60,1.58,0.88,3.28,3.28,3.28
25.65,1.73,-1.55,1.73,-1.55,1.55,1.54,0.90,3.27,3.28,3.28
25.91,1.79,-1.49,1.78,-1.50,1.49,1.50,0.92,3.28,3.27,3.28
26.16,1.84,-1.45,1.84,-1.44,1.44,1.46,0.95,3.28,3.28,3.28
26.43,1.89,-1.40,1.89,-1.39,1.39,1.43,0.97,3.28,3.28,3.28
26.69,1.95,-1.33,1.95,-1.34,1.34,1.39,0.99,3.29,3.28,3.28
26.96,2.00,-1.28,2.00,-1.28,1.29,1.35,1.01,3.28,3.29,3.28
27.23,2.06,-1.22,2.05,-1.23,1.23,1.31,1.02,3.29,3.29,3.28
27.50,2.10,-1.18,2.10,-1.18,1.18,1.27,1.04,3.28,3.28,3.28
27.77,2.15,-1.14,2.15,-1.14,1.13,1.23,1.06,3.28,3.28,3.29
28.05,2.20,-1.09,2.20,-1.09,1.08,1.19,1.07,3.28,3.28,3.29
28.33,2.25,-1.04,2.25,-1.03,1.03,1.15,1.08,3.28,3.29,3.28
28.62,2.31,-0.98,2.30,-0.98,0.98,1.11,1.09,3.29,3.29,3.28
28.90,2.36,-0.93,2.35,-0.93,0.93,1.07,1.10,3.29,3.29,3.29
29.19,2.40,-0.89,2.41,-0.88,0.88,1.02,1.10,3.28,3.29,3.29
29.48,2.46,-0.83,2.46,-0.83,0.83,0.98,1.10,3.29,3.29,3.29
29.78,2.52,-0.77,2.51,-0.78,0.78,0.94,1.10,3.30,3.29,3.29
30.08,2.55,-0.75,2.56,-0.73,0.73,0.89,1.10,3.28,3.29,3.29
30.38,2.61,-0.68,2.61,-0.68,0.68,0.85,1.09,3.29,3.29,3.28
30.68,2.66,-0.62,2.65,-0.63,0.63,0.80,1.08,3.28,3.28,3.28
30.99,2.71,-0.57,2.70,-0.57,0.58,0.76,1.07,3.28,3.28,3.28
31.30,2.75,-0.53,2.75,-0.52,0.52,0.71,1.06,3.27,3.28,3.28
31.61,2.80,-0.48,2.80,-0.47,0.47,0.66,1.04,3.27,3.27,3.27
31.93,2.86,-0.40,2.85,-0.42,0.42,0.62,1.01,3.28,3.27,3.26
32.24,2.89,-0.38,2.89,-0.37,0.37,0.57,0.99,3.26,3.26,3.27
32.57,2.94,-0.32,2.94,-0.31,0.32,0.52,0.96,3.25,3.26,3.26
32.89,3.00,-0.26,2.99,-0.26,0.26,0.47,0.93,3.26,3.26,3.25
33.22,3.05,-0.20,3.04,-0.21,0.21,0.42,0.89,3.26,3.25,3.25
33.55,3.09,-0.16,3.09,-0.16,0.16,0.38,0.86,3.24,3.25,3.25
33.89,3.14,-0.11,3.14,-0.10,0.10,0.33,0.81,3.24,3.24,3.25
34.23,3.19,-0.05,3.19,-0.05,0.04,0.28,0.77,3.23,3.23,3.23
34.57,3.25,0.02,3.24,0.01,-0.01,0.22,0.73,3.23,3.23,3.23
34.92,3.29,0.07,3.29,0.07,-0.07,0.17,0.68,3.22,3.22,3.22
35.27,3.35,0.12,3.34,0.13,-0.13,0.12,0.63,3.22,3.21,3.22
35.62,3.39,0.19,3.39,0.19,-0.19,0.07,0.57,3.20,3.20,3.20
35.97,3.44,0.24,3.44,0.25,-0.25,0.02,0.52,3.19,3.19,3.20
36.33,3.49,0.31,3.48,0.30,-0.30,-0.04,0.46,3.19,3.18,3.18
36.70,3.53,0.36,3.53,0.36,-0.36,-0.09,0.41,3.17,3.17,3.17
37.06,3.57,0.41,3.57,0.42,-0.41,-0.14,0.35,3.16,3.16,3.15
37.43,3.61,0.47,3.60,0.46,-0.46,-0.20,0.29,3.14,3.14,3.14
37.81,3.64,0.51,3.64,0.51,-0.52,-0.25,0.22,3.12,3.12,3.13
38.19,3.67,0.56,3.67,0.56,-0.57,-0.31,0.16,3.10,3.11,3.11
38.57,3.71,0.61,3.71,0.61,-0.61,-0.36,0.10,3.09,3.09,3.10
38.95,3.75,0.67,3.74,0.66,-0.66,-0.42,0.03,3.09,3.08,3.08
39.34,3.77,0.71,3.77,0.71,-0.71,-0.47,-0.04,3.06,3.06,3.06
39.74,3.80,0.76,3.80,0.76,-0.75,-0.53,-0.10,3.04,3.04,3.04
40.14,3.83,0.80,3.83,0.80,-0.80,-0.59,-0.17,3.03,3.02,3.03
40.54,3.85,0.84,3.85,0.84,-0.85,-0.64,-0.24,3.00,3.01,3.01
40.94,3.89,0.90,3.88,0.89,-0.89,-0.70,-0.31,2.99,2.99,2.98
41.35,3.90,0.93,3.90,0.94,-0.94,-0.76,-0.38,2.96,2.96,2.97
41.76,3.94,1.00,3.93,0.99,-0.99,-0.82,-0.45,2.95,2.95,2.94
42.18,3.94,1.01,3.95,1.03,-1.03,-0.88,-0.52,2.91,2.92,2.93
42.60,3.99,1.09,3.98,1.08,-1.08,-0.93,-0.59,2.91,2.90,2.90
43.03,3.99,1.12,4.00,1.12,-1.12,-0.99,-0.66,2.86,2.87,2.87
43.46,4.03,1.18,4.02,1.17,-1.17,-1.05,-0.74,2.86,2.85,2.84
43.90,4.03,1.21,4.04,1.22,-1.22,-1.11,-0.81,2.81,2.82,2.82
44.33,4.06,1.27,4.05,1.26,-1.26,-1.17,-0.89,2.79,2.79,2.79
44.78,4.08,1.32,4.07,1.31,-1.31,-1.23,-0.96,2.77,2.76,2.76
45.23,4.08,1.33,4.09,1.36,-1.36,-1.29,-1.04,2.72,2.73,2.74
45.68,4.12,1.41,4.11,1.40,-1.40,-1.35,-1.11,2.71,2.70,2.70
46.13,4.13,1.46,4.12,1.45,-1.45,-1.41,-1.19,2.68,2.67,2.67
46.60,4.13,1.49,4.14,1.50,-1.49,-1.47,-1.27,2.63,2.64,2.64
47.06,4.15,1.54,4.15,1.54,-1.54,-1.53,-1.35,2.61,2.61,2.61
47.53,4.17,1.59,4.16,1.59,-1.59,-1.59,-1.43,2.58,2.57,2.58
48.01,4.17,1.64,4.16,1.63,-1.64,-1.65,-1.50,2.53,2.52,2.53
48.49,4.17,1.67,4.17,1.68,-1.69,-1.71,-1.58,2.48,2.48,2.50
48.97,4.17,1.71,4.18,1.73,-1.73,-1.77,-1.66,2.43,2.45,2.45
49.46,4.22,1.79,4.20,1.78,-1.78,-1.83,-1.74,2.44,2.42,2.42
49.96,4.22,1.85,4.22,1.84,-1.82,-1.88,-1.82,2.39,2.39,2.37
50.46,4.22,1.88,4.22,1.88,-1.87,-1.94,-1.90,2.35,2.36,2.34
50.96,4.22,1.91,4.22,1.91,-1.91,-2.00,-1.98,2.31,2.31,2.31
51.47,4.22,1.94,4.22,1.95,-1.95,-2.06,-2.06,2.27,2.27,2.27
51.99,4.22,1.99,4.22,1.98,-1.99,-2.12,-2.14,2.23,2.23,2.23
52.51,4.22,2.02,4.22,2.02,-2.03,-2.18,-2.22,2.18,2.19,2.20
53.03,4.24,2.07,4.23,2.07,-2.08,-2.24,-2.30,2.16,2.15,2.17
53.56,4.24,2.11,4.24,2.11,-2.12,-2.29,-2.37,2.12,2.12,2.13
54.10,4.25,2.17,4.25,2.17,-2.17,-2.35,-2.45,2.08,2.09,2.08
54.64,4.27,2.22,4.26,2.22,-2.21,-2.41,-2.52,2.06,2.05,2.05
55.18,4.27,2.27,4.27,2.27,-2.26,-2.46,-2.59,2.01,2.01,2.00
55.74,4.27,2.31,4.27,2.30,-2.30,-2.52,-2.66,1.97,1.97,1.96
56.29,4.27,2.33,4.27,2.34,-2.33,-2.57,-2.73,1.93,1.93,1.93
56.86,4.27,2.36,4.27,2.37,-2.37,-2.63,-2.80,1.90,1.90,1.91
57.42,4.27,2.41,4.27,2.40,-2.40,-2.68,-2.86,1.87,1.87,1.86
58.00,4.27,2.44,4.27,2.44,-2.43,-2.73,-2.92,1.84,1.84,1.83
58.58,4.27,2.46,4.27,2.46,-2.46,-2.78,-2.97,1.80,1.80,1.81
59.16,4.27,2.49,4.27,2.49,-2.50,-2.84,-3.02,1.77,1.77,1.78
59.76,4.27,2.52,4.27,2.53,-2.54,-2.89,-3.07,1.73,1.73,1.75
60.35,4.27,2.57,4.27,2.57,-2.58,-2.94,-3.11,1.69,1.69,1.69
60.96,4.27,2.62,4.27,2.62,-2.62,-2.99,-3.15,1.65,1.65,1.65
61.57,4.27,2.67,4.27,2.67,-2.67,-3.03,-3.19,1.60,1.60,1.60
62.18,4.27,2.72,4.27,2.72,-2.71,-3.08,-3.22,1.55,1.55,1.55
62.80,4.27,2.77,4.26,2.76,-2.76,-3.13,-3.25,1.50,1.50,1.50
63.43,4.27,2.81,4.27,2.81,-2.81,-3.17,-3.27,1.45,1.46,1.46
64.07,4.27,2.85,4.28,2.86,-2.86,-3.22,-3.29,1.41,1.42,1.42
64.71,4.30,2.91,4.29,2.91,-2.91,-3.26,-3.30,1.39,1.38,1.38
65.35,4.31,2.96,4.30,2.96,-2.95,-3.30,-3.31,1.36,1.35,1.35
66.01,4.31,3.00,4.31,3.00,-2.99,-3.34,-3.32,1.31,1.32,1.31
66.67,4.31,3.03,4.31,3.04,-3.03,-3.38,-3.32,1.27,1.28,1.28
67.33,4.31,3.08,4.31,3.08,-3.07,-3.42,-3.32,1.23,1.23,1.23
68.01,4.31,3.12,4.31,3.12,-3.12,-3.46,-3.32,1.19,1.19,1.19
68.69,4.31,3.16,4.31,3.16,-3.16,-3.49,-3.31,1.15,1.15,1.15
69.37,4.31,3.19,4.30,3.19,-3.21,-3.53,-3.30,1.10,1.10,1.12
70.07,4.31,3.24,4.31,3.24,-3.25,-3.56,-3.29,1.05,1.06,1.07
70.77,4.32,3.29,4.33,3.30,-3.30,-3.59,-3.28,1.01,1.02,1.03
71.48,4.36,3.37,4.34,3.36,-3.35,-3.62,-3.26,1.00,0.99,0.98
72.19,4.36,3.42,4.36,3.42,-3.40,-3.65,-3.25,0.95,0.95,0.94
72.91,4.36,3.46,4.36,3.47,-3.46,-3.68,-3.23,0.90,0.90,0.89
73.64,4.36,3.51,4.35,3.51,-3.51,-3.71,-3.22,0.85,0.84,0.85
74.38,4.36,3.55,4.36,3.55,-3.56,-3.73,-3.20,0.80,0.80,0.81
75.12,4.36,3.59,4.37,3.60,-3.61,-3.76,-3.19,0.75,0.76,0.77
75.87,4.40,3.66,4.39,3.65,-3.65,-3.78,-3.17,0.75,0.74,0.74
76.63,4.41,3.71,4.40,3.70,-3.69,-3.80,-3.16,0.71,0.71,0.70
77.40,4.41,3.74,4.41,3.74,-3.73,-3.82,-3.14,0.68,0.68,0.67
78.17,4.41,3.78,4.41,3.78,-3.77,-3.84,-3.13,0.64,0.64,0.63
78.95,4.41,3.80,4.41,3.81,-3.81,-3.86,-3.12,0.60,0.60,0.61
79.74,4.41,3.84,4.41,3.84,-3.84,-3.88,-3.11,0.56,0.56,0.57
80.54,4.41,3.87,4.41,3.87,-3.88,-3.89,-3.10,0.53,0.53,0.54
81.35,4.41,3.90,4.41,3.90,-3.91,-3.91,-3.09,0.50,0.50,0.50
82.16,4.41,3.93,4.41,3.93,-3.94,-3.92,-3.09,0.47,0.47,0.48
82.98,4.41,3.97,4.41,3.97,-3.97,-3.93,-3.09,0.44,0.44,0.44
83.81,4.41,4.00,4.41,4.00,-4.00,-3.94,-3.09,0.41,0.41,0.40
84.65,4.41,4.04,4.39,4.03,-4.02,-3.95,-3.09,0.39,0.37,0.37
85.50,4.36,4.03,4.38,4.05,-4.04,-3.96,-3.09,0.32,0.34,0.33
86.35,4.36,4.06,4.36,4.06,-4.06,-3.96,-3.10,0.30,0.30,0.30
87.22,4.35,4.08,4.33,4.07,-4.08,-3.97,-3.11,0.27,0.26,0.27
88.09,4.31,4.08,4.32,4.09,-4.09,-3.97,-3.12,0.22,0.23,0.23
88.97,4.29,4.09,4.29,4.09,-4.09,-3.98,-3.14,0.20,0.19,0.20
89.86,4.26,4.10,4.26,4.10,-4.10,-3.98,-3.15,0.16,0.16,0.16
90.76,4.22,4.09,4.22,4.10,-4.10,-3.98,-3.17,0.12,0.13,0.12
91.66,4.20,4.12,4.19,4.10,-4.10,-3.98,-3.19,0.10,0.09,0.08
92.58,4.14,4.09,4.14,4.09,-4.09,-3.98,-3.22,0.04,0.05,0.05
93.51,4.10,4.08,4.10,4.09,-4.09,-3.98,-3.24,0.01,0.01,0.01
94.44,4.06,4.08,4.06,4.08,-4.09,-3.98,-3.27,-0.03,-0.03,-0.02
95.39,4.03,4.09,4.02,4.09,-4.09,-3.97,-3.30,-0.06,-0.07,-0.06
96.34,3.99,4.10,3.98,4.09,-4.09,-3.97,-3.33,-0.11,-0.11,-0.11
97.30,3.94,4.08,3.95,4.09,-4.10,-3.96,-3.37,-0.16,-0.15,-0.14
98.28,3.91,4.10,3.91,4.10,-4.10,-3.96,-3.40,-0.20,-0.19,-0.19
99.26,3.89,4.12,3.88,4.11,-4.11,-3.95,-3.44,-0.22,-0.23,-0.24
100.25,3.85,4.12,3.85,4.12,-4.11,-3.94,-3.48,-0.27,-0.26,-0.27
101.25,3.82,4.11,3.82,4.12,-4.12,-3.93,-3.52,-0.30,-0.30,-0.30
102.27,3.80,4.13,3.79,4.12,-4.12,-3.92,-3.56,-0.32,-0.33,-0.33
103.29,3.75,4.12,3.76,4.12,-4.12,-3.91,-3.61,-0.37,-0.36,-0.37
104.32,3.72,4.11,3.72,4.12,-4.12,-3.90,-3.65,-0.40,-0.40,-0.40
105.37,3.69,4.12,3.68,4.11,-4.11,-3.89,-3.69,-0.43,-0.43,-0.43
106.42,3.64,4.10,3.65,4.11,-4.11,-3.88,-3.74,-0.47,-0.46,-0.46
107.48,3.61,4.11,3.60,4.10,-4.11,-3.87,-3.78,-0.50,-0.50,-0.50
108.56,3.57,4.10,3.56,4.10,-4.10,-3.85,-3.82,-0.53,-0.54,-0.53
109.64,3.52,4.08,3.52,4.09,-4.09,-3.84,-3.86,-0.58,-0.57,-0.57
110.74,3.49,4.09,3.48,4.09,-4.09,-3.82,-3.90,-0.60,-0.60,-0.60
111.85,3.44,4.08,3.44,4.08,-4.08,-3.81,-3.94,-0.64,-0.64,-0.64
112.97,3.40,4.07,3.39,4.07,-4.06,-3.79,-3.98,-0.67,-0.67,-0.67
114.10,3.34,4.05,3.34,4.05,-4.05,-3.78,-4.01,-0.71,-0.71,-0.71
115.24,3.28,4.03,3.28,4.03,-4.03,-3.76,-4.04,-0.75,-0.75,-0.75
116.39,3.22,4.02,3.21,4.01,-4.01,-3.74,-4.07,-0.79,-0.80,-0.80
117.55,3.15,3.98,3.15,3.99,-3.99,-3.72,-4.09,-0.84,-0.83,-0.83
118.73,3.09,3.96,3.09,3.96,-3.96,-3.70,-4.11,-0.87,-0.87,-0.88
119.92,3.03,3.94,3.02,3.93,-3.93,-3.69,-4.12,-0.90,-0.90,-0.91
121.12,2.95,3.88,2.96,3.90,-3.89,-3.67,-4.14,-0.95,-0.94,-0.93
122.33,2.90,3.87,2.89,3.86,-3.86,-3.65,-4.14,-0.96,-0.97,-0.98
123.55,2.82,3.82,2.82,3.82,-3.83,-3.63,-4.14,-1.01,-1.01,-1.01
124.79,2.74,3.78,2.74,3.79,-3.79,-3.60,-4.14,-1.05,-1.05,-1.04
126.03,2.67,3.75,2.67,3.75,-3.76,-3.58,-4.13,-1.09,-1.09,-1.08
127.29,2.61,3.73,2.60,3.72,-3.72,-3.56,-4.11,-1.11,-1.12,-1.12
128.57,2.53,3.69,2.53,3.69,-3.68,-3.54,-4.09,-1.16,-1.15,-1.16
129.85,2.46,3.65,2.45,3.65,-3.65,-3.52,-4.07,-1.19,-1.19,-1.20
131.15,2.38,3.61,2.38,3.61,-3.61,-3.49,-4.04,-1.23,-1.23,-1.23
132.46,2.29,3.56,2.29,3.57,-3.56,-3.47,-4.01,-1.28,-1.27,-1.27
133.79,2.22,3.53,2.21,3.52,-3.52,-3.45,-3.97,-1.30,-1.31,-1.31
135.12,2.12,3.46,2.13,3.47,-3.47,-3.42,-3.93,-1.35,-1.34,-1.34
136.48,2.06,3.43,2.05,3.42,-3.42,-3.40,-3.88,-1.36,-1.37,-1.37
137.84,1.95,3.35,1.96,3.37,-3.37,-3.37,-3.83,-1.42,-1.41,-1.40
139.22,1.89,3.34,1.88,3.32,-3.31,-3.35,-3.78,-1.42,-1.44,-1.45
140.61,1.78,3.25,1.78,3.26,-3.26,-3.32,-3.73,-1.48,-1.47,-1.47
142.02,1.71,3.21,1.70,3.21,-3.20,-3.30,-3.67,-1.50,-1.50,-1.50
143.44,1.61,3.14,1.62,3.15,-3.15,-3.27,-3.61,-1.54,-1.53,-1.53
144.87,1.55,3.10,1.54,3.10,-3.10,-3.24,-3.55,-1.55,-1.56,-1.55
146.32,1.46,3.04,1.46,3.04,-3.05,-3.22,-3.49,-1.59,-1.59,-1.58
147.78,1.38,2.99,1.38,3.00,-3.00,-3.19,-3.43,-1.62,-1.61,-1.61
149.26,1.31,2.95,1.31,2.95,-2.95,-3.16,-3.37,-1.64,-1.64,-1.64
150.75,1.25,2.92,1.24,2.91,-2.91,-3.14,-3.31,-1.66,-1.67,-1.68
152.26,1.17,2.86,1.17,2.87,-2.87,-3.11,-3.25,-1.70,-1.69,-1.69
153.78,1.10,2.83,1.10,2.83,-2.83,-3.08,-3.18,-1.73,-1.73,-1.73
155.32,1.04,2.79,1.03,2.79,-2.79,-3.05,-3.12,-1.75,-1.76,-1.75
156.88,0.96,2.75,0.96,2.75,-2.75,-3.02,-3.06,-1.79,-1.78,-1.79
158.44,0.90,2.72,0.89,2.71,-2.71,-3.00,-3.00,-1.82,-1.82,-1.82
160.03,0.83,2.68,0.82,2.68,-2.68,-2.97,-2.95,-1.85,-1.86,-1.85
161.63,0.75,2.63,0.76,2.65,-2.65,-2.94,-2.89,-1.90,-1.89,-1.88
163.24,0.70,2.62,0.69,2.62,-2.62,-2.91,-2.83,-1.92,-1.93,-1.93
164.88,0.64,2.59,0.63,2.59,-2.59,-2.88,-2.78,-1.96,-1.96,-1.96
166.53,0.57,2.56,0.57,2.57,-2.57,-2.85,-2.73,-2.00,-1.99,-1.99
168.19,0.52,2.54,0.52,2.55,-2.54,-2.82,-2.68,-2.03,-2.02,-2.02
169.87,0.47,2.53,0.46,2.53,-2.52,-2.80,-2.63,-2.05,-2.06,-2.06
171.57,0.42,2.51,0.41,2.50,-2.50,-2.77,-2.58,-2.08,-2.09,-2.10
173.29,0.34,2.47,0.35,2.48,-2.48,-2.74,-2.53,-2.14,-2.13,-2.13
175.02,0.29,2.46,0.29,2.45,-2.45,-2.71,-2.49,-2.17,-2.17,-2.17
176.77,0.23,2.43,0.22,2.43,-2.43,-2.68,-2.45,-2.21,-2.21,-2.20
178.54,0.17,2.41,0.17,2.41,-2.41,-2.65,-2.41,-2.25,-2.24,-2.24
180.32,0.11,2.39,0.11,2.39,-2.39,-2.62,-2.37,-2.29,-2.28,-2.28
182.13,0.07,2.38,0.06,2.38,-2.38,-2.59,-2.34,-2.31,-2.31,-2.31
183.95,0.02,2.36,0.01,2.36,-2.36,-2.57,-2.30,-2.34,-2.35,-2.35
185.79,-0.04,2.34,-0.04,2.35,-2.34,-2.54,-2.27,-2.39,-2.38,-2.39
187.65,-0.09,2.33,-0.09,2.33,-2.33,-2.51,-2.24,-2.42,-2.42,-2.42
189.52,-0.13,2.33,-0.14,2.32,-2.32,-2.48,-2.21,-2.45,-2.46,-2.46
191.42,-0.18,2.30,-0.18,2.31,-2.31,-2.45,-2.18,-2.49,-2.49,-2.49
193.33,-0.23,2.29,-0.23,2.30,-2.30,-2.42,-2.16,-2.53,-2.52,-2.53
195.27,-0.27,2.29,-0.28,2.29,-2.29,-2.39,-2.13,-2.56,-2.56,-2.56
197.22,-0.32,2.28,-0.32,2.28,-2.27,-2.37,-2.11,-2.60,-2.60,-2.60
199.19,-0.37,2.26,-0.36,2.27,-2.26,-2.34,-2.09,-2.64,-2.63,-2.63
201.18,-0.40,2.26,-0.41,2.26,-2.26,-2.31,-2.07,-2.66,-2.66,-2.67
203.19,-0.44,2.25,-0.45,2.24,-2.25,-2.28,-2.05,-2.69,-2.69,-2.69
205.23,-0.49,2.22,-0.49,2.23,-2.24,-2.26,-2.03,-2.73,-2.72,-2.72
207.28,-0.52,2.22,-0.52,2.22,-2.23,-2.23,-2.02,-2.75,-2.75,-2.74
209.35,-0.55,2.22,-0.55,2.22,-2.22,-2.20,-2.00,-2.77,-2.77,-2.78
211.44,-0.58,2.22,-0.59,2.21,-2.21,-2.18,-1.99,-2.79,-2.80,-2.80
213.56,-0.62,2.20,-0.62,2.20,-2.20,-2.15,-1.98,-2.83,-2.83,-2.82
215.69,-0.67,2.18,-0.65,2.19,-2.20,-2.12,-1.96,-2.87,-2.85,-2.85
217.85,-0.67,2.20,-0.69,2.19,-2.19,-2.10,-1.95,-2.86,-2.88,-2.87
220.03,-0.71,2.19,-0.72,2.18,-2.18,-2.07,-1.94,-2.89,-2.90,-2.90
222.23,-0.76,2.16,-0.75,2.18,-2.17,-2.05,-1.93,-2.93,-2.92,-2.92
224.45,-0.77,2.17,-0.78,2.16,-2.16,-2.02,-1.92,-2.94,-2.95,-2.95
226.70,-0.81,2.16,-0.81,2.15,-2.15,-2.00,-1.91,-2.97,-2.97,-2.97
228.96,-0.85,2.13,-0.84,2.14,-2.14,-1.97,-1.90,-3.00,-2.98,-2.98
231.25,-0.86,2.14,-0.88,2.12,-2.13,-1.95,-1.89,-2.99,-3.01,-3.00
233.57,-0.90,2.12,-0.90,2.12,-2.12,-1.92,-1.88,-3.02,-3.02,-3.02
235.90,-0.94,2.10,-0.93,2.11,-2.10,-1.90,-1.87,-3.04,-3.03,-3.04
238.26,-0.95,2.11,-0.96,2.09,-2.08,-1.87,-1.86,-3.04,-3.05,-3.06
240.64,-0.99,2.06,-1.00,2.07,-2.07,-1.85,-1.85,-3.06,-3.06,-3.06
243.05,-1.04,2.03,-1.03,2.05,-2.05,-1.83,-1.83,-3.09,-3.08,-3.08
245.48,-1.07,2.02,-1.07,2.02,-2.03,-1.81,-1.82,-3.10,-3.10,-3.09
247.93,-1.10,2.01,-1.10,2.00,-2.00,-1.78,-1.81,-3.11,-3.11,-3.11
250.41,-1.13,1.98,-1.13,1.98,-1.98,-1.76,-1.80,-3.11,-3.11,-3.11
252.92,-1.16,1.96,-1.16,1.96,-1.96,-1.74,-1.78,-3.12,-3.12,-3.12
255.45,-1.19,1.94,-1.20,1.94,-1.93,-1.72,-1.77,-3.12,-3.13,-3.13
258.00,-1.23,1.91,-1.23,1.91,-1.91,-1.70,-1.75,-3.14,-3.14,-3.14
260.58,-1.27,1.88,-1.27,1.88,-1.88,-1.68,-1.73,-3.15,-3.15,-3.15
263.19,-1.31,1.84,-1.31,1.85,-1.85,-1.66,-1.72,-3.16,-3.16,-3.16
265.82,-1.34,1.82,-1.34,1.82,-1.82,-1.64,-1.70,-3.16,-3.16,-3.16
268.48,-1.37,1.80,-1.38,1.79,-1.79,-1.62,-1.68,-3.16,-3.17,-3.17
271.16,-1.41,1.76,-1.42,1.76,-1.76,-1.60,-1.66,-3.17,-3.18,-3.17
273.87,-1.46,1.72,-1.45,1.73,-1.73,-1.58,-1.65,-3.19,-3.18,-3.18
276.61,-1.49,1.69,-1.49,1.70,-1.70,-1.56,-1.63,-3.19,-3.19,-3.18
279.38,-1.51,1.69,-1.52,1.67,-1.67,-1.54,-1.61,-3.18,-3.19,-3.20
282.17,-1.55,1.64,-1.55,1.64,-1.64,-1.52,-1.59,-3.19,-3.19,-3.20
284.99,-1.58,1.61,-1.58,1.61,-1.61,-1.50,-1.57,-3.19,-3.19,-3.19
287.84,-1.61,1.57,-1.62,1.57,-1.58,-1.49,-1.55,-3.19,-3.19,-3.18
290.72,-1.65,1.55,-1.65,1.54,-1.54,-1.47,-1.53,-3.20,-3.19,-3.20
293.63,-1.68,1.51,-1.68,1.51,-1.51,-1.45,-1.51,-3.19,-3.19,-3.19
296.57,-1.71,1.48,-1.72,1.48,-1.48,-1.44,-1.49,-3.19,-3.19,-3.19
299.53,-1.74,1.45,-1.75,1.44,-1.44,-1.42,-1.47,-3.19,-3.19,-3.19
302.53,-1.79,1.39,-1.78,1.41,-1.41,-1.41,-1.46,-3.20,-3.19,-3.19
305.55,-1.80,1.39,-1.81,1.38,-1.38,-1.39,-1.44,-3.18,-3.19,-3.19
308.61,-1.83,1.35,-1.84,1.35,-1.35,-1.38,-1.42,-3.18,-3.19,-3.18
311.69,-1.88,1.30,-1.87,1.32,-1.31,-1.36,-1.41,-3.20,-3.18,-3.19
314.81,-1.89,1.29,-1.90,1.28,-1.28,-1.35,-1.39,-3.18,-3.18,-3.18
317.96,-1.93,1.25,-1.93,1.26,-1.25,-1.33,-1.38,-3.18,-3.18,-3.18
321.14,-1.95,1.22,-1.95,1.22,-1.22,-1.32,-1.36,-3.17,-3.18,-3.18
324.35,-1.97,1.21,-1.98,1.19,-1.19,-1.31,-1.35,-3.17,-3.17,-3.18
327.59,-2.02,1.14,-2.01,1.16,-1.17,-1.30,-1.34,-3.19,-3.17,-3.16
330.87,-2.02,1.14,-2.03,1.13,-1.14,-1.28,-1.32,-3.16,-3.17,-3.17
334.18,-2.06,1.11,-2.06,1.11,-1.11,-1.27,-1.31,-3.17,-3.17,-3.17
337.52,-2.07,1.09,-2.07,1.09,-1.08,-1.26,-1.30,-3.16,-3.16,-3.16
340.90,-2.09,1.06,-2.09,1.06,-1.06,-1.25,-1.29,-3.15,-3.15,-3.15
344.30,-2.11,1.03,-2.11,1.04,-1.03,-1.24,-1.29,-3.15,-3.14,-3.15
347.75,-2.11,1.03,-2.13,1.01,-1.01,-1.23,-1.28,-3.12,-3.14,-3.14
351.23,-2.16,0.98,-2.15,0.98,-0.99,-1.22,-1.27,-3.15,-3.14,-3.14
354.74,-2.16,0.96,-2.17,0.96,-0.96,-1.21,-1.27,-3.12,-3.14,-3.12
358.28,-2.20,0.92,-2.19,0.93,-0.94,-1.20,-1.26,-3.14,-3.13,-3.12
361.87,-2.20,0.91,-2.20,0.92,-0.92,-1.19,-1.26,-3.12,-3.11,-3.12
365.49,-2.20,0.91,-2.21,0.90,-0.90,-1.19,-1.26,-3.10,-3.10,-3.11
369.14,-2.20,0.90,-2.22,0.88,-0.88,-1.18,-1.26,-3.08,-3.10,-3.10
372.83,-2.25,0.84,-2.24,0.86,-0.86,-1.17,-1.25,-3.11,-3.10,-3.09
376.56,-2.25,0.84,-2.25,0.84,-0.85,-1.16,-1.25,-3.10,-3.10,-3.09
380.33,-2.25,0.83,-2.26,0.83,-0.83,-1.16,-1.26,-3.09,-3.09,-3.09
384.13,-2.25,0.83,-2.25,0.83,-0.82,-1.15,-1.26,-3.07,-3.07,-3.08
387.97,-2.25,0.82,-2.25,0.82,-0.81,-1.15,-1.26,-3.06,-3.06,-3.07
391.85,-2.25,0.81,-2.26,0.80,-0.80,-1.14,-1.26,-3.05,-3.06,-3.06
395.77,-2.27,0.79,-2.26,0.79,-0.79,-1.14,-1.27,-3.07,-3.06,-3.06
399.73,-2.27,0.78,-2.26,0.79,-0.79,-1.13,-1.27,-3.06,-3.05,-3.05
403.72,-2.25,0.78,-2.26,0.78,-0.78,-1.13,-1.28,-3.03,-3.04,-3.03
407.76,-2.25,0.78,-2.25,0.78,-0.78,-1.12,-1.28,-3.03,-3.03,-3.04
411.84,-2.25,0.78,-2.25,0.77,-0.77,-1.12,-1.29,-3.03,-3.03,-3.03
415.96,-2.25,0.77,-2.25,0.77,-0.77,-1.12,-1.30,-3.03,-3.03,-3.02
420.12,-2.25,0.77,-2.24,0.77,-0.78,-1.12,-1.30,-3.03,-3.02,-3.02
424.32,-2.22,0.79,-2.23,0.78,-0.78,-1.12,-1.31,-3.00,-3.01,-3.01
428.56,-2.20,0.79,-2.21,0.79,-0.79,-1.11,-1.32,-2.99,-3.00,-2.99
432.85,-2.20,0.78,-2.19,0.80,-0.79,-1.11,-1.33,-3.00,-2.99,-2.98
437.18,-2.17,0.81,-2.18,0.80,-0.80,-1.11,-1.34,-2.97,-2.98,-2.98
441.55,-2.16,0.81,-2.16,0.81,-0.81,-1.11,-1.34,-2.98,-2.97,-2.97
445.96,-2.14,0.82,-2.14,0.83,-0.83,-1.12,-1.35,-2.97,-2.96,-2.97
450.42,-2.11,0.84,-2.12,0.84,-0.84,-1.12,-1.36,-2.95,-2.96,-2.96
454.93,-2.09,0.86,-2.09,0.85,-0.85,-1.12,-1.37,-2.95,-2.95,-2.95
459.48,-2.07,0.87,-2.07,0.87,-0.87,-1.12,-1.37,-2.94,-2.94,-2.94
464.07,-2.03,0.89,-2.04,0.89,-0.89,-1.12,-1.38,-2.92,-2.93,-2.92
468.71,-2.00,0.91,-2.00,0.91,-0.91,-1.13,-1.39,-2.91,-2.91,-2.91
473.40,-1.97,0.93,-1.97,0.93,-0.93,-1.13,-1.39,-2.90,-2.90,-2.90
478.13,-1.93,0.96,-1.94,0.95,-0.96,-1.13,-1.40,-2.89,-2.89,-2.89
482.91,-1.90,0.98,-1.90,0.98,-0.98,-1.14,-1.40,-2.88,-2.89,-2.88
487.74,-1.87,1.00,-1.87,1.01,-1.01,-1.14,-1.41,-2.88,-2.87,-2.87
492.62,-1.82,1.04,-1.83,1.04,-1.04,-1.15,-1.41,-2.86,-2.86,-2.86
