frequency,raw,error,smoothed,error_smoothed,equalization,parametric_eq,equalized_raw,equalized_smoothed,target
20.00,3.84,0.73,3.84,0.73,-0.73,-0.11,3.10,3.10,3.11
20.20,3.84,0.73,3.83,0.73,-0.73,-0.11,3.11,3.10,3.11
20.40,3.83,0.72,3.83,0.72,-0.72,-0.11,3.10,3.10,3.11
20.61,3.82,0.71,3.82,0.72,-0.72,-0.12,3.10,3.10,3.11
20.81,3.82,0.71,3.81,0.71,-0.71,-0.12,3.11,3.10,3.10
21.02,3.81,0.70,3.81,0.70,-0.70,-0.12,3.10,3.10,3.10
21.23,3.80,0.69,3.79,0.69,-0.69,-0.12,3.10,3.10,3.10
21.44,3.79,0.68,3.78,0.68,-0.68,-0.13,3.10,3.10,3.10
21.66,3.78,0.68,3.77,0.67,-0.67,-0.13,3.11,3.10,3.10
21.87,3.76,0.66,3.76,0.66,-0.66,-0.13,3.10,3.10,3.10
22.09,3.75,0.65,3.74,0.64,-0.64,-0.14,3.10,3.10,3.10
22.31,3.73,0.63,3.72,0.63,-0.63,-0.14,3.10,3.10,3.10
22.54,3.71,0.61,3.70,0.61,-0.61,-0.14,3.10,3.10,3.10
22.76,3.70,0.60,3.68,0.59,-0.59,-0.15,3.11,3.10,3.10
22.99,3.67,0.57,3.66,0.57,-0.57,-0.15,3.10,3.09,3.09
23.22,3.64,0.54,3.64,0.55,-0.55,-0.15,3.09,3.09,3.09
23.45,3.62,0.52,3.62,0.52,-0.52,-0.16,3.09,3.09,3.09
23.69,3.59,0.50,3.59,0.50,-0.50,-0.16,3.08,3.09,3.09
23.92,3.57,0.48,3.57,0.48,-0.48,-0.16,3.09,3.09,3.09
24.16,3.55,0.46,3.54,0.46,-0.46,-0.17,3.09,3.09,3.09
24.40,3.52,0.43,3.52,0.43,-0.43,-0.17,3.08,3.08,3.09
24.65,3.50,0.41,3.50,0.41,-0.41,-0.18,3.08,3.08,3.08
24.89,3.47,0.38,3.47,0.39,-0.39,-0.18,3.07,3.08,3.08
25.14,3.45,0.36,3.45,0.37,-0.37,-0.18,3.07,3.08,3.08
25.39,3.44,0.36,3.43,0.36,-0.36,-0.19,3.08,3.08,3.08
25.65,3.42,0.34,3.42,0.34,-0.34,-0.19,3.08,3.08,3.08
25.91,3.40,0.32,3.40,0.33,-0.33,-0.20,3.07,3.08,3.08
26.16,3.39,0.31,3.39,0.31,-0.31,-0.20,3.07,3.07,3.08
26.43,3.38,0.30,3.37,0.30,-0.30,-0.21,3.07,3.07,3.07
26.69,3.37,0.29,3.36,0.29,-0.29,-0.21,3.07,3.07,3.07
26.96,3.36,0.29,3.35,0.29,-0.29,-0.22,3.07,3.07,3.07
27.23,3.35,0.28,3.35,0.28,-0.28,-0.22,3.06,3.07,3.07
27.50,3.34,0.27,3.34,0.28,-0.28,-0.23,3.06,3.06,3.07
27.77,3.34,0.27,3.34,0.28,-0.28,-0.23,3.06,3.06,3.06
28.05,3.34,0.27,3.34,0.28,-0.28,-0.24,3.06,3.06,3.06
28.33,3.34,0.28,3.34,0.28,-0.28,-0.25,3.06,3.06,3.06
28.62,3.34,0.28,3.34,0.28,-0.28,-0.25,3.05,3.06,3.06
28.90,3.34,0.28,3.34,0.28,-0.28,-0.26,3.05,3.05,3.06
29.19,3.34,0.28,3.34,0.29,-0.29,-0.27,3.05,3.05,3.05
29.48,3.35,0.29,3.34,0.29,-0.29,-0.27,3.05,3.05,3.05
29.78,3.35,0.30,3.34,0.30,-0.30,-0.28,3.05,3.05,3.05
30.08,3.36,0.31,3.35,0.30,-0.30,-0.29,3.06,3.05,3.05
30.38,3.35,0.30,3.35,0.30,-0.30,-0.29,3.04,3.04,3.04
30.68,3.36,0.31,3.35,0.30,-0.30,-0.30,3.05,3.04,3.04
30.99,3.36,0.32,3.35,0.31,-0.31,-0.31,3.05,3.04,3.04
31.30,3.35,0.31,3.34,0.31,-0.31,-0.32,3.04,3.04,3.04
31.61,3.35,0.31,3.34,0.31,-0.31,-0.32,3.04,3.03,3.03
31.93,3.34,0.31,3.34,0.31,-0.31,-0.33,3.03,3.03,3.03
32.24,3.33,0.30,3.33,0.30,-0.30,-0.34,3.02,3.03,3.03
32.57,3.33,0.30,3.33,0.30,-0.30,-0.35,3.02,3.02,3.02
32.89,3.32,0.29,3.32,0.30,-0.30,-0.36,3.02,3.02,3.02
33.22,3.32,0.30,3.31,0.30,-0.30,-0.37,3.02,3.02,3.02
33.55,3.31,0.29,3.31,0.30,-0.30,-0.38,3.01,3.01,3.01
33.89,3.31,0.29,3.30,0.29,-0.29,-0.39,3.01,3.01,3.01
34.23,3.30,0.29,3.30,0.29,-0.29,-0.40,3.00,3.01,3.01
34.57,3.30,0.29,3.30,0.29,-0.29,-0.41,3.00,3.00,3.00
34.92,3.30,0.30,3.29,0.29,-0.29,-0.42,3.00,3.00,3.00
35.27,3.29,0.29,3.29,0.30,-0.30,-0.43,2.99,3.00,3.00
35.62,3.29,0.29,3.29,0.30,-0.30,-0.45,2.99,2.99,2.99
35.97,3.29,0.30,3.29,0.30,-0.30,-0.46,2.98,2.99,2.99
36.33,3.30,0.31,3.29,0.31,-0.31,-0.47,2.99,2.98,2.98
36.70,3.29,0.31,3.29,0.31,-0.31,-0.49,2.97,2.98,2.98
37.06,3.30,0.32,3.29,0.32,-0.32,-0.50,2.98,2.97,2.98
37.43,3.30,0.32,3.30,0.33,-0.33,-0.51,2.97,2.97,2.97
37.81,3.30,0.33,3.30,0.33,-0.33,-0.53,2.96,2.97,2.97
38.19,3.31,0.34,3.31,0.34,-0.34,-0.54,2.96,2.96,2.96
38.57,3.31,0.35,3.31,0.35,-0.35,-0.56,2.95,2.96,2.96
38.95,3.32,0.36,3.32,0.36,-0.36,-0.57,2.95,2.95,2.95
39.34,3.33,0.38,3.32,0.38,-0.38,-0.59,2.95,2.95,2.95
39.74,3.34,0.40,3.33,0.39,-0.39,-0.61,2.95,2.94,2.94
40.14,3.34,0.40,3.33,0.40,-0.40,-0.62,2.94,2.94,2.94
40.54,3.34,0.41,3.34,0.41,-0.41,-0.64,2.92,2.93,2.93
40.94,3.36,0.43,3.35,0.43,-0.43,-0.66,2.93,2.92,2.92
41.35,3.36,0.44,3.36,0.44,-0.44,-0.68,2.92,2.92,2.92
41.76,3.37,0.45,3.36,0.45,-0.45,-0.70,2.91,2.91,2.91
42.18,3.38,0.47,3.37,0.47,-0.47,-0.72,2.91,2.90,2.90
42.60,3.38,0.48,3.38,0.49,-0.49,-0.74,2.89,2.90,2.90
43.03,3.39,0.49,3.39,0.50,-0.50,-0.76,2.88,2.89,2.89
43.46,3.40,0.51,3.40,0.52,-0.52,-0.78,2.88,2.88,2.88
43.90,3.42,0.54,3.41,0.54,-0.54,-0.81,2.88,2.88,2.88
44.33,3.43,0.56,3.43,0.56,-0.56,-0.83,2.87,2.87,2.87
44.78,3.44,0.57,3.44,0.58,-0.58,-0.86,2.86,2.86,2.86
45.23,3.46,0.60,3.45,0.60,-0.60,-0.88,2.86,2.85,2.85
45.68,3.47,0.62,3.47,0.62,-0.62,-0.91,2.84,2.84,2.85
46.13,3.49,0.65,3.48,0.65,-0.65,-0.93,2.84,2.84,2.84
46.60,3.51,0.68,3.50,0.67,-0.67,-0.96,2.84,2.83,2.83
47.06,3.52,0.70,3.52,0.70,-0.70,-0.98,2.82,2.82,2.82
47.53,3.54,0.72,3.53,0.72,-0.72,-1.01,2.82,2.81,2.81
48.01,3.55,0.74,3.55,0.75,-0.75,-1.04,2.80,2.80,2.80
48.49,3.57,0.77,3.56,0.77,-0.77,-1.07,2.79,2.79,2.79
48.97,3.58,0.79,3.58,0.80,-0.80,-1.10,2.78,2.78,2.78
49.46,3.60,0.82,3.60,0.83,-0.83,-1.13,2.77,2.77,2.77
49.96,3.62,0.85,3.62,0.85,-0.85,-1.16,2.76,2.76,2.76
50.46,3.64,0.88,3.63,0.88,-0.88,-1.19,2.75,2.75,2.75
50.96,3.66,0.92,3.65,0.91,-0.91,-1.22,2.74,2.74,2.74
51.47,3.68,0.95,3.67,0.94,-0.94,-1.25,2.73,2.73,2.73
51.99,3.69,0.97,3.69,0.97,-0.97,-1.28,2.71,2.72,2.72
52.51,3.71,1.00,3.71,1.00,-1.00,-1.31,2.70,2.71,2.71
53.03,3.73,1.03,3.73,1.04,-1.04,-1.34,2.69,2.69,2.69
53.56,3.75,1.06,3.75,1.07,-1.07,-1.37,2.68,2.68,2.68
54.10,3.78,1.11,3.77,1.10,-1.10,-1.40,2.68,2.67,2.67
54.64,3.79,1.13,3.79,1.13,-1.13,-1.43,2.65,2.66,2.66
55.18,3.81,1.16,3.81,1.17,-1.17,-1.46,2.64,2.64,2.64
55.74,3.83,1.20,3.83,1.20,-1.20,-1.49,2.63,2.63,2.63
56.29,3.85,1.23,3.85,1.23,-1.23,-1.51,2.61,2.61,2.61
56.86,3.87,1.27,3.87,1.27,-1.27,-1.54,2.60,2.60,2.60
57.42,3.89,1.30,3.89,1.30,-1.30,-1.57,2.58,2.58,2.58
58.00,3.91,1.34,3.91,1.34,-1.34,-1.59,2.57,2.57,2.57
58.58,3.93,1.37,3.92,1.37,-1.37,-1.61,2.56,2.55,2.55
59.16,3.95,1.41,3.94,1.41,-1.41,-1.63,2.54,2.54,2.54
59.76,3.96,1.43,3.96,1.44,-1.44,-1.65,2.52,2.52,2.52
60.35,3.98,1.47,3.98,1.47,-1.47,-1.67,2.50,2.50,2.50
60.96,4.00,1.51,4.00,1.51,-1.51,-1.69,2.49,2.49,2.49
61.57,4.02,1.55,4.01,1.54,-1.54,-1.70,2.47,2.47,2.47
62.18,4.03,1.57,4.03,1.58,-1.58,-1.72,2.45,2.45,2.45
62.80,4.05,1.61,4.04,1.61,-1.61,-1.73,2.44,2.43,2.43
63.43,4.06,1.64,4.06,1.64,-1.64,-1.74,2.41,2.41,2.41
64.07,4.07,1.67,4.07,1.68,-1.68,-1.75,2.39,2.39,2.39
64.71,4.09,1.71,4.08,1.71,-1.71,-1.75,2.38,2.37,2.37
65.35,4.10,1.74,4.10,1.74,-1.74,-1.76,2.35,2.35,2.35
66.01,4.11,1.77,4.11,1.77,-1.77,-1.76,2.33,2.33,2.33
66.67,4.12,1.80,4.12,1.81,-1.81,-1.76,2.31,2.31,2.31
67.33,4.14,1.84,4.13,1.84,-1.84,-1.76,2.30,2.29,2.29
68.01,4.14,1.87,4.14,1.87,-1.87,-1.76,2.27,2.27,2.27
68.69,4.15,1.90,4.14,1.90,-1.90,-1.76,2.25,2.25,2.25
69.37,4.15,1.92,4.15,1.92,-1.92,-1.76,2.22,2.22,2.22
70.07,4.16,1.95,4.15,1.95,-1.95,-1.76,2.20,2.20,2.20
70.77,4.16,1.98,4.16,1.98,-1.98,-1.75,2.18,2.18,2.18
71.48,4.17,2.01,4.16,2.01,-2.01,-1.75,2.16,2.15,2.15
72.19,4.16,2.03,4.16,2.03,-2.03,-1.74,2.12,2.13,2.13
72.91,4.17,2.06,4.16,2.06,-2.06,-1.74,2.11,2.10,2.10
73.64,4.16,2.08,4.16,2.08,-2.08,-1.74,2.08,2.08,2.08
74.38,4.16,2.10,4.16,2.10,-2.10,-1.73,2.05,2.05,2.05
75.12,4.16,2.13,4.15,2.13,-2.13,-1.73,2.03,2.03,2.03
75.87,4.15,2.14,4.15,2.15,-2.15,-1.73,2.00,2.00,2.00
76.63,4.14,2.16,4.14,2.17,-2.17,-1.72,1.97,1.97,1.97
77.40,4.14,2.19,4.14,2.19,-2.19,-1.72,1.95,1.95,1.95
78.17,4.13,2.21,4.13,2.21,-2.21,-1.72,1.92,1.92,1.92
78.95,4.12,2.23,4.12,2.23,-2.23,-1.72,1.89,1.89,1.89
79.74,4.11,2.24,4.10,2.24,-2.24,-1.72,1.86,1.86,1.86
80.54,4.09,2.25,4.09,2.26,-2.26,-1.72,1.83,1.83,1.83
81.35,4.09,2.28,4.08,2.27,-2.27,-1.73,1.81,1.80,1.80
82.16,4.07,2.29,4.06,2.29,-2.29,-1.73,1.78,1.77,1.77
82.98,4.05,2.30,4.04,2.30,-2.30,-1.74,1.75,1.74,1.75
83.81,4.03,2.31,4.02,2.31,-2.31,-1.74,1.72,1.71,1.71
84.65,4.00,2.31,4.00,2.32,-2.32,-1.75,1.68,1.68,1.68
85.50,3.99,2.33,3.98,2.33,-2.33,-1.76,1.66,1.65,1.65
86.35,3.96,2.33,3.96,2.33,-2.33,-1.77,1.62,1.62,1.62
87.22,3.93,2.33,3.93,2.34,-2.34,-1.78,1.59,1.59,1.59
88.09,3.91,2.35,3.91,2.35,-2.35,-1.80,1.56,1.56,1.56
88.97,3.88,2.35,3.88,2.35,-2.35,-1.81,1.53,1.53,1.53
89.86,3.85,2.35,3.85,2.35,-2.35,-1.83,1.49,1.50,1.50
90.76,3.83,2.36,3.82,2.36,-2.36,-1.85,1.47,1.46,1.46
91.66,3.79,2.35,3.79,2.36,-2.36,-1.87,1.43,1.43,1.43
92.58,3.76,2.36,3.76,2.36,-2.36,-1.89,1.39,1.40,1.40
93.51,3.73,2.36,3.73,2.36,-2.36,-1.91,1.36,1.37,1.37
94.44,3.70,2.36,3.69,2.36,-2.36,-1.94,1.33,1.33,1.33
95.39,3.67,2.37,3.66,2.36,-2.36,-1.96,1.31,1.30,1.30
96.34,3.63,2.36,3.63,2.36,-2.36,-1.99,1.27,1.27,1.27
97.30,3.59,2.35,3.59,2.35,-2.35,-2.02,1.23,1.23,1.23
98.28,3.56,2.35,3.55,2.35,-2.35,-2.04,1.21,1.20,1.20
99.26,3.52,2.35,3.51,2.35,-2.35,-2.07,1.17,1.17,1.17
100.25,3.48,2.34,3.47,2.34,-2.34,-2.10,1.14,1.13,1.14
101.25,3.44,2.33,3.43,2.33,-2.33,-2.13,1.10,1.10,1.10
102.27,3.40,2.33,3.39,2.32,-2.32,-2.16,1.07,1.07,1.07
103.29,3.35,2.31,3.35,2.32,-2.32,-2.20,1.03,1.04,1.04
104.32,3.31,2.30,3.31,2.31,-2.31,-2.23,1.00,1.00,1.00
105.37,3.27,2.30,3.26,2.30,-2.30,-2.26,0.97,0.97,0.97
106.42,3.22,2.28,3.22,2.29,-2.29,-2.29,0.93,0.94,0.94
107.48,3.18,2.27,3.18,2.27,-2.27,-2.32,0.90,0.90,0.90
108.56,3.14,2.26,3.13,2.26,-2.26,-2.35,0.87,0.87,0.87
109.64,3.09,2.25,3.09,2.25,-2.25,-2.38,0.83,0.84,0.84
110.74,3.05,2.24,3.04,2.24,-2.24,-2.40,0.81,0.81,0.81
111.85,3.01,2.23,3.00,2.23,-2.23,-2.43,0.78,0.77,0.77
112.97,2.96,2.21,2.96,2.21,-2.21,-2.45,0.74,0.74,0.74
114.10,2.91,2.20,2.91,2.20,-2.20,-2.47,0.71,0.71,0.71
115.24,2.87,2.19,2.87,2.19,-2.19,-2.49,0.68,0.68,0.68
116.39,2.83,2.18,2.82,2.17,-2.17,-2.51,0.65,0.65,0.65
117.55,2.78,2.16,2.78,2.16,-2.16,-2.52,0.62,0.62,0.62
118.73,2.74,2.15,2.73,2.15,-2.15,-2.53,0.59,0.59,0.59
119.92,2.69,2.13,2.69,2.13,-2.13,-2.54,0.55,0.56,0.56
121.12,2.65,2.12,2.64,2.12,-2.12,-2.54,0.53,0.53,0.53
122.33,2.60,2.10,2.60,2.10,-2.10,-2.54,0.49,0.50,0.50
123.55,2.56,2.09,2.55,2.09,-2.09,-2.54,0.47,0.47,0.47
124.79,2.51,2.07,2.51,2.07,-2.07,-2.53,0.44,0.44,0.44
126.03,2.47,2.06,2.47,2.06,-2.06,-2.52,0.41,0.41,0.41
127.29,2.42,2.03,2.42,2.04,-2.04,-2.51,0.38,0.38,0.38
128.57,2.38,2.02,2.38,2.02,-2.02,-2.49,0.35,0.35,0.35
129.85,2.34,2.01,2.33,2.01,-2.01,-2.47,0.33,0.33,0.33
131.15,2.29,1.99,2.29,1.99,-1.99,-2.44,0.30,0.30,0.30
132.46,2.25,1.97,2.24,1.97,-1.97,-2.41,0.27,0.27,0.27
133.79,2.21,1.96,2.20,1.96,-1.96,-2.38,0.25,0.25,0.25
135.12,2.16,1.94,2.16,1.94,-1.94,-2.34,0.22,0.22,0.22
136.48,2.12,1.92,2.11,1.92,-1.92,-2.30,0.20,0.19,0.19
137.84,2.07,1.90,2.07,1.90,-1.90,-2.26,0.16,0.17,0.17
139.22,2.03,1.88,2.03,1.89,-1.89,-2.22,0.14,0.14,0.14
140.61,1.99,1.87,1.99,1.87,-1.87,-2.17,0.12,0.12,0.12
142.02,1.95,1.85,1.95,1.85,-1.85,-2.12,0.10,0.10,0.10
143.44,1.91,1.83,1.90,1.83,-1.83,-2.07,0.08,0.07,0.07
144.87,1.86,1.81,1.86,1.81,-1.81,-2.02,0.04,0.05,0.05
146.32,1.83,1.80,1.82,1.79,-1.79,-1.97,0.03,0.03,0.03
147.78,1.78,1.77,1.78,1.77,-1.77,-1.92,0.00,0.01,0.01
149.26,1.75,1.76,1.74,1.75,-1.75,-1.86,-0.01,-0.02,-0.02
150.75,1.70,1.73,1.70,1.73,-1.73,-1.81,-0.04,-0.04,-0.04
152.26,1.66,1.71,1.66,1.71,-1.71,-1.76,-0.06,-0.06,-0.06
153.78,1.62,1.69,1.62,1.69,-1.69,-1.70,-0.08,-0.08,-0.08
155.32,1.58,1.67,1.58,1.67,-1.67,-1.65,-0.10,-0.10,-0.10
156.88,1.54,1.65,1.53,1.65,-1.65,-1.59,-0.12,-0.12,-0.12
158.44,1.49,1.62,1.49,1.63,-1.63,-1.54,-0.15,-0.14,-0.14
160.03,1.46,1.61,1.45,1.61,-1.61,-1.48,-0.15,-0.16,-0.16
161.63,1.41,1.58,1.41,1.59,-1.59,-1.43,-0.18,-0.17,-0.17
163.24,1.38,1.57,1.37,1.57,-1.57,-1.38,-0.19,-0.19,-0.19
164.88,1.34,1.55,1.34,1.54,-1.54,-1.33,-0.21,-0.21,-0.21
166.53,1.30,1.52,1.30,1.52,-1.52,-1.27,-0.23,-0.23,-0.23
168.19,1.26,1.50,1.26,1.50,-1.50,-1.22,-0.24,-0.24,-0.24
169.87,1.22,1.47,1.22,1.48,-1.48,-1.17,-0.26,-0.26,-0.26
171.57,1.18,1.45,1.18,1.45,-1.45,-1.12,-0.28,-0.28,-0.27
173.29,1.14,1.43,1.14,1.43,-1.43,-1.08,-0.29,-0.29,-0.29
175.02,1.11,1.41,1.10,1.41,-1.41,-1.03,-0.30,-0.31,-0.31
176.77,1.06,1.38,1.06,1.38,-1.38,-0.98,-0.32,-0.32,-0.32
178.54,1.03,1.36,1.02,1.35,-1.35,-0.94,-0.33,-0.33,-0.33
180.32,0.98,1.32,0.98,1.33,-1.33,-0.89,-0.35,-0.35,-0.35
182.13,0.94,1.30,0.94,1.30,-1.30,-0.85,-0.36,-0.36,-0.36
183.95,0.89,1.26,0.89,1.27,-1.27,-0.80,-0.38,-0.38,-0.38
185.79,0.86,1.24,0.85,1.24,-1.24,-0.76,-0.38,-0.39,-0.39
187.65,0.81,1.21,0.81,1.21,-1.21,-0.72,-0.40,-0.40,-0.40
189.52,0.76,1.17,0.76,1.17,-1.17,-0.68,-0.42,-0.41,-0.41
191.42,0.72,1.14,0.71,1.14,-1.14,-0.64,-0.42,-0.43,-0.43
193.33,0.67,1.10,0.66,1.10,-1.10,-0.60,-0.43,-0.44,-0.44
195.27,0.62,1.06,0.61,1.06,-1.06,-0.56,-0.44,-0.45,-0.45
197.22,0.56,1.02,0.56,1.02,-1.02,-0.52,-0.46,-0.46,-0.46
199.19,0.51,0.98,0.50,0.97,-0.97,-0.48,-0.47,-0.47,-0.47
201.18,0.46,0.94,0.45,0.93,-0.93,-0.44,-0.47,-0.48,-0.48
203.19,0.39,0.88,0.39,0.88,-0.88,-0.41,-0.49,-0.49,-0.49
205.23,0.33,0.83,0.33,0.83,-0.83,-0.37,-0.50,-0.50,-0.50
207.28,0.28,0.79,0.27,0.78,-0.78,-0.33,-0.50,-0.51,-0.51
209.35,0.21,0.73,0.21,0.73,-0.73,-0.30,-0.52,-0.52,-0.52
211.44,0.15,0.68,0.15,0.68,-0.68,-0.26,-0.53,-0.53,-0.53
213.56,0.09,0.62,0.08,0.62,-0.62,-0.23,-0.54,-0.54,-0.54
215.69,0.02,0.56,0.02,0.57,-0.57,-0.19,-0.56,-0.55,-0.55
217.85,-0.04,0.51,-0.04,0.52,-0.52,-0.15,-0.56,-0.56,-0.56
220.03,-0.10,0.46,-0.10,0.47,-0.47,-0.12,-0.57,-0.57,-0.56
222.23,-0.15,0.42,-0.16,0.42,-0.42,-0.08,-0.57,-0.57,-0.57
224.45,-0.21,0.37,-0.21,0.37,-0.37,-0.05,-0.58,-0.58,-0.58
226.70,-0.27,0.31,-0.27,0.32,-0.32,-0.01,-0.59,-0.59,-0.59
228.96,-0.32,0.27,-0.32,0.27,-0.27,0.03,-0.60,-0.60,-0.59
231.25,-0.38,0.22,-0.38,0.23,-0.23,0.07,-0.61,-0.60,-0.60
233.57,-0.43,0.17,-0.43,0.18,-0.18,0.10,-0.61,-0.61,-0.61
235.90,-0.48,0.13,-0.48,0.14,-0.14,0.14,-0.62,-0.62,-0.61
238.26,-0.53,0.09,-0.53,0.09,-0.09,0.18,-0.62,-0.62,-0.62
240.64,-0.58,0.04,-0.58,0.05,-0.05,0.22,-0.63,-0.63,-0.63
243.05,-0.62,0.01,-0.63,0.00,-0.00,0.26,-0.63,-0.64,-0.63
245.48,-0.68,-0.04,-0.68,-0.04,0.04,0.30,-0.64,-0.64,-0.64
247.93,-0.73,-0.09,-0.73,-0.09,0.09,0.35,-0.65,-0.65,-0.65
250.41,-0.77,-0.12,-0.78,-0.13,0.13,0.39,-0.64,-0.65,-0.65
252.92,-0.83,-0.18,-0.83,-0.18,0.18,0.43,-0.66,-0.66,-0.66
255.45,-0.89,-0.23,-0.89,-0.22,0.22,0.48,-0.67,-0.66,-0.66
258.00,-0.94,-0.28,-0.94,-0.27,0.27,0.53,-0.67,-0.67,-0.67
260.58,-0.99,-0.32,-1.00,-0.32,0.32,0.57,-0.67,-0.67,-0.67
263.19,-1.05,-0.38,-1.05,-0.37,0.37,0.62,-0.68,-0.68,-0.68
265.82,-1.10,-0.42,-1.11,-0.43,0.43,0.67,-0.68,-0.68,-0.68
268.48,-1.17,-0.49,-1.17,-0.48,0.48,0.72,-0.69,-0.69,-0.69
271.16,-1.22,-0.53,-1.23,-0.54,0.54,0.78,-0.68,-0.69,-0.69
273.87,-1.30,-0.61,-1.30,-0.60,0.60,0.83,-0.70,-0.70,-0.70
276.61,-1.36,-0.66,-1.36,-0.66,0.66,0.88,-0.70,-0.70,-0.70
279.38,-1.43,-0.73,-1.43,-0.73,0.73,0.94,-0.71,-0.70,-0.70
282.17,-1.50,-0.80,-1.51,-0.80,0.80,1.00,-0.71,-0.71,-0.71
284.99,-1.58,-0.87,-1.58,-0.87,0.87,1.05,-0.71,-0.71,-0.71
287.84,-1.66,-0.95,-1.66,-0.95,0.95,1.11,-0.72,-0.72,-0.72
290.72,-1.74,-1.02,-1.75,-1.03,1.03,1.18,-0.72,-0.72,-0.72
293.63,-1.83,-1.11,-1.84,-1.11,1.11,1.24,-0.72,-0.72,-0.72
296.57,-1.92,-1.20,-1.93,-1.20,1.20,1.30,-0.72,-0.73,-0.73
299.53,-2.02,-1.29,-2.02,-1.30,1.30,1.37,-0.73,-0.73,-0.73
302.53,-2.12,-1.39,-2.13,-1.39,1.39,1.44,-0.73,-0.73,-0.73
305.55,-2.23,-1.50,-2.23,-1.50,1.50,1.50,-0.74,-0.74,-0.74
308.61,-2.34,-1.60,-2.34,-1.60,1.60,1.58,-0.74,-0.74,-0.74
311.69,-2.46,-1.72,-2.46,-1.72,1.72,1.65,-0.75,-0.74,-0.74
314.81,-2.58,-1.84,-2.58,-1.83,1.83,1.72,-0.75,-0.75,-0.75
317.96,-2.71,-1.97,-2.71,-1.96,1.96,1.80,-0.76,-0.76,-0.75
321.14,-2.84,-2.09,-2.84,-2.09,2.09,1.87,-0.76,-0.76,-0.75
324.35,-2.98,-2.23,-2.98,-2.22,2.22,1.95,-0.76,-0.76,-0.75
327.59,-3.13,-2.38,-3.12,-2.36,2.36,2.03,-0.77,-0.76,-0.76
330.87,-3.28,-2.53,-3.27,-2.51,2.51,2.12,-0.77,-0.76,-0.76
334.18,-3.44,-2.68,-3.43,-2.67,2.67,2.20,-0.78,-0.76,-0.76
337.52,-3.60,-2.84,-3.60,-2.83,2.83,2.29,-0.77,-0.76,-0.76
340.90,-3.77,-3.01,-3.78,-3.01,3.01,2.38,-0.76,-0.77,-0.77
344.30,-3.95,-3.19,-3.97,-3.20,3.20,2.47,-0.76,-0.77,-0.77
347.75,-4.14,-3.37,-4.17,-3.40,3.40,2.56,-0.75,-0.77,-0.77
351.23,-4.32,-3.55,-4.38,-3.61,3.61,2.65,-0.71,-0.77,-0.77
354.74,-4.53,-3.76,-4.60,-3.83,3.83,2.75,-0.70,-0.77,-0.77
358.28,-4.79,-4.02,-4.84,-4.06,4.06,2.85,-0.73,-0.77,-0.78
361.87,-5.05,-4.28,-5.08,-4.30,4.30,2.95,-0.75,-0.77,-0.78
365.49,-5.32,-4.54,-5.33,-4.55,4.55,3.06,-0.77,-0.78,-0.78
369.14,-5.58,-4.80,-5.58,-4.81,4.81,3.16,-0.78,-0.78,-0.78
372.83,-5.85,-5.07,-5.84,-5.06,5.06,3.27,-0.79,-0.78,-0.78
376.56,-6.10,-5.32,-6.11,-5.32,5.29,3.38,-0.81,-0.82,-0.79
380.33,-6.37,-5.59,-6.37,-5.58,5.48,3.49,-0.89,-0.88,-0.79
384.13,-6.62,-5.83,-6.62,-5.83,5.64,3.60,-0.98,-0.98,-0.79
387.97,-6.87,-6.08,-6.87,-6.07,5.77,3.72,-1.11,-1.10,-0.79
391.85,-7.11,-6.32,-7.10,-6.30,5.86,3.83,-1.25,-1.24,-0.79
395.77,-7.33,-6.54,-7.32,-6.51,5.93,3.95,-1.40,-1.39,-0.79
399.73,-7.52,-6.73,-7.52,-6.71,5.98,4.07,-1.54,-1.54,-0.80
403.72,-7.72,-6.93,-7.71,-6.89,6.00,4.19,-1.72,-1.71,-0.80
407.76,-7.88,-7.08,-7.87,-7.05,6.00,4.31,-1.88,-1.87,-0.80
411.84,-8.03,-7.23,-8.01,-7.19,6.00,4.43,-2.03,-2.01,-0.80
415.96,-8.14,-7.34,-8.13,-7.30,6.00,4.55,-2.14,-2.13,-0.80
420.12,-8.23,-7.43,-8.22,-7.39,6.00,4.67,-2.23,-2.22,-0.80
424.32,-8.29,-7.49,-8.28,-7.45,6.00,4.79,-2.29,-2.28,-0.81
428.56,-8.33,-7.53,-8.32,-7.48,6.00,4.90,-2.33,-2.32,-0.81
432.85,-8.35,-7.54,-8.32,-7.49,6.00,5.02,-2.35,-2.32,-0.81
437.18,-8.33,-7.52,-8.30,-7.47,6.00,5.13,-2.33,-2.30,-0.81
441.55,-8.30,-7.49,-8.26,-7.43,6.00,5.24,-2.30,-2.26,-0.81
445.96,-8.25,-7.45,-8.19,-7.36,6.00,5.34,-2.25,-2.19,-0.81
450.42,-8.12,-7.32,-8.09,-7.27,6.00,5.44,-2.12,-2.09,-0.80
454.93,-7.99,-7.19,-7.98,-7.17,6.00,5.53,-1.99,-1.98,-0.80
459.48,-7.84,-7.05,-7.85,-7.05,6.00,5.62,-1.84,-1.85,-0.79
464.07,-7.68,-6.90,-7.70,-6.91,6.00,5.70,-1.68,-1.70,-0.79
468.71,-7.52,-6.74,-7.55,-6.76,6.00,5.78,-1.52,-1.55,-0.78
473.40,-7.35,-6.58,-7.38,-6.60,6.00,5.84,-1.35,-1.38,-0.77
478.13,-7.17,-6.41,-7.20,-6.44,5.98,5.90,-1.19,-1.22,-0.76
482.91,-7.00,-6.26,-7.02,-6.28,5.94,5.94,-1.06,-1.08,-0.75
487.74,-6.82,-6.09,-6.84,-6.11,5.87,5.98,-0.95,-0.97,-0.74
492.62,-6.64,-5.92,-6.66,-5.94,5.79,6.01,-0.86,-0.87,-0.72
497.55,-6.46,-5.76,-6.48,-5.78,5.68,6.02,-0.78,-0.80,-0.71
502.52,-6.30,-5.61,-6.30,-5.62,5.57,6.03,-0.74,-0.74,-0.69
507.55,-6.13,-5.46,-6.13,-5.46,5.44,6.02,-0.69,-0.69,-0.68
512.62,-5.96,-5.30,-5.97,-5.31,5.31,6.01,-0.66,-0.66,-0.66
517.75,-5.79,-5.15,-5.81,-5.16,5.16,5.98,-0.63,-0.64,-0.64
522.93,-5.64,-5.02,-5.65,-5.02,5.02,5.95,-0.62,-0.62,-0.63
528.16,-5.49,-4.88,-5.50,-4.89,4.89,5.90,-0.60,-0.61,-0.61
533.44,-5.34,-4.75,-5.35,-4.77,4.77,5.85,-0.58,-0.59,-0.59
538.77,-5.20,-4.63,-5.21,-4.65,4.65,5.79,-0.55,-0.56,-0.57
544.16,-5.06,-4.52,-5.08,-4.54,4.54,5.72,-0.52,-0.54,-0.55
549.60,-4.94,-4.42,-4.96,-4.44,4.44,5.64,-0.51,-0.52,-0.52
555.10,-4.82,-4.33,-4.83,-4.34,4.34,5.56,-0.49,-0.50,-0.50
560.65,-4.71,-4.24,-4.72,-4.25,4.25,5.47,-0.47,-0.47,-0.47
566.25,-4.60,-4.16,-4.61,-4.16,4.16,5.38,-0.44,-0.45,-0.45
571.92,-4.49,-4.08,-4.50,-4.08,4.08,5.28,-0.42,-0.42,-0.42
577.64,-4.40,-4.02,-4.39,-4.00,4.00,5.18,-0.40,-0.39,-0.39
583.41,-4.30,-3.94,-4.29,-3.93,3.93,5.08,-0.38,-0.36,-0.36
589.25,-4.19,-3.86,-4.19,-3.86,3.86,4.98,-0.34,-0.34,-0.33
595.14,-4.10,-3.80,-4.09,-3.79,3.79,4.87,-0.32,-0.31,-0.30
601.09,-4.00,-3.73,-3.99,-3.72,3.72,4.77,-0.29,-0.28,-0.27
607.10,-3.89,-3.65,-3.89,-3.65,3.65,4.66,-0.25,-0.25,-0.24
613.17,-3.80,-3.60,-3.79,-3.58,3.58,4.56,-0.22,-0.21,-0.21
619.30,-3.69,-3.52,-3.69,-3.51,3.51,4.45,-0.18,-0.18,-0.18
625.50,-3.59,-3.45,-3.59,-3.45,3.45,4.35,-0.15,-0.15,-0.14
631.75,-3.49,-3.38,-3.49,-3.38,3.38,4.24,-0.12,-0.12,-0.11
638.07,-3.39,-3.31,-3.39,-3.31,3.31,4.14,-0.08,-0.08,-0.08
644.45,-3.29,-3.25,-3.29,-3.24,3.24,4.04,-0.05,-0.05,-0.05
650.89,-3.19,-3.18,-3.19,-3.17,3.17,3.94,-0.02,-0.02,-0.01
657.40,-3.09,-3.11,-3.09,-3.11,3.11,3.85,0.01,0.02,0.02
663.98,-2.99,-3.05,-2.99,-3.04,3.04,3.75,0.05,0.05,0.05
670.62,-2.89,-2.98,-2.89,-2.98,2.98,3.66,0.08,0.09,0.09
677.32,-2.79,-2.92,-2.79,-2.92,2.92,3.57,0.12,0.13,0.12
684.10,-2.70,-2.86,-2.69,-2.86,2.86,3.49,0.15,0.16,0.16
690.94,-2.60,-2.80,-2.60,-2.80,2.80,3.40,0.20,0.20,0.20
697.85,-2.50,-2.74,-2.51,-2.75,2.75,3.32,0.24,0.24,0.24
