frequency,raw,error,smoothed,error_smoothed,equalization,parametric_eq,fixed_band_eq,equalized_raw,equalized_smoothed,target
20.00,6.16,-5.14,6.15,-5.14,5.13,4.94,1.32,11.29,11.29,11.30
20.20,6.24,-5.04,6.24,-5.04,5.04,4.88,1.36,11.27,11.27,11.28
20.40,6.31,-4.95,6.32,-4.94,4.94,4.83,1.40,11.25,11.26,11.26
20.61,6.39,-4.86,6.39,-4.85,4.86,4.77,1.44,11.24,11.25,11.25
20.81,6.47,-4.76,6.46,-4.76,4.77,4.71,1.48,11.24,11.24,11.22
21.02,6.54,-4.68,6.53,-4.68,4.69,4.66,1.53,11.23,11.22,11.21
21.23,6.59,-4.60,6.59,-4.60,4.62,4.60,1.58,11.20,11.21,11.19
21.44,6.64,-4.54,6.64,-4.54,4.54,4.54,1.62,11.18,11.18,11.18
21.66,6.69,-4.48,6.69,-4.48,4.48,4.49,1.67,11.17,11.16,11.17
21.87,6.73,-4.42,6.73,-4.42,4.42,4.43,1.72,11.15,11.15,11.15
22.09,6.78,-4.36,6.78,-4.36,4.36,4.37,1.78,11.14,11.14,11.14
22.31,6.82,-4.31,6.82,-4.31,4.30,4.32,1.83,11.12,11.12,11.13
22.54,6.87,-4.25,6.86,-4.25,4.25,4.26,1.88,11.11,11.11,11.12
22.76,6.91,-4.20,6.91,-4.19,4.19,4.21,1.94,11.10,11.10,11.10
22.99,6.96,-4.14,6.96,-4.14,4.14,4.15,2.00,11.09,11.09,11.09
23.22,7.01,-4.07,7.01,-4.08,4.08,4.10,2.06,11.09,11.09,11.08
23.45,7.06,-4.02,7.06,-4.02,4.02,4.04,2.12,11.08,11.08,11.08
23.69,7.11,-3.96,7.10,-3.97,3.97,3.99,2.18,11.07,11.07,11.07
23.92,7.15,-3.92,7.15,-3.92,3.91,3.94,2.24,11.06,11.06,11.07
24.16,7.21,-3.86,7.20,-3.86,3.85,3.88,2.31,11.06,11.06,11.07
24.40,7.26,-3.81,7.26,-3.80,3.80,3.83,2.37,11.06,11.06,11.07
24.65,7.32,-3.75,7.32,-3.74,3.75,3.78,2.44,11.07,11.07,11.06
24.89,7.38,-3.68,7.37,-3.69,3.71,3.72,2.50,11.08,11.08,11.06
25.14,7.42,-3.64,7.42,-3.64,3.66,3.67,2.57,11.08,11.08,11.06
25.39,7.45,-3.61,7.45,-3.61,3.62,3.62,2.63,11.07,11.07,11.06
25.65,7.48,-3.58,7.48,-3.58,3.57,3.57,2.70,11.05,11.05,11.06
25.91,7.52,-3.55,7.52,-3.54,3.53,3.52,2.77,11.04,11.04,11.06
26.16,7.57,-3.49,7.57,-3.49,3.48,3.47,2.83,11.04,11.05,11.06
26.43,7.63,-3.43,7.63,-3.43,3.42,3.42,2.90,11.05,11.05,11.06
26.69,7.70,-3.36,7.69,-3.37,3.36,3.37,2.96,11.06,11.05,11.06
26.96,7.76,-3.30,7.76,-3.30,3.30,3.32,3.03,11.05,11.05,11.06
27.23,7.83,-3.23,7.83,-3.23,3.23,3.27,3.09,11.06,11.05,11.05
27.50,7.89,-3.16,7.89,-3.16,3.16,3.22,3.15,11.05,11.06,11.05
27.77,7.96,-3.09,7.96,-3.09,3.10,3.17,3.20,11.06,11.06,11.05
28.05,8.02,-3.03,8.01,-3.04,3.05,3.12,3.26,11.07,11.06,11.05
28.33,8.04,-3.00,8.04,-2.99,3.01,3.07,3.31,11.05,11.05,11.03
28.62,8.07,-2.96,8.07,-2.96,2.98,3.02,3.35,11.04,11.05,11.03
28.90,8.10,-2.93,8.09,-2.93,2.95,2.98,3.39,11.04,11.04,11.03
29.19,8.12,-2.91,8.11,-2.91,2.92,2.93,3.43,11.03,11.03,11.03
29.48,8.13,-2.90,8.13,-2.90,2.88,2.88,3.47,11.01,11.01,11.02
29.78,8.14,-2.88,8.14,-2.88,2.85,2.84,3.50,10.99,10.99,11.02
30.08,8.17,-2.85,8.17,-2.84,2.81,2.79,3.52,10.97,10.98,11.02
30.38,8.23,-2.79,8.23,-2.78,2.76,2.75,3.53,10.99,10.99,11.01
30.68,8.30,-2.70,8.30,-2.71,2.72,2.70,3.54,11.01,11.01,11.00
30.99,8.37,-2.63,8.35,-2.64,2.67,2.66,3.55,11.03,11.02,11.00
31.30,8.40,-2.59,8.40,-2.59,2.62,2.61,3.55,11.01,11.02,10.98
31.61,8.43,-2.55,8.43,-2.55,2.57,2.57,3.54,10.99,11.00,10.98
31.93,8.46,-2.52,8.46,-2.51,2.51,2.52,3.53,10.97,10.97,10.97
32.24,8.49,-2.47,8.48,-2.48,2.46,2.48,3.51,10.95,10.94,10.96
32.57,8.52,-2.44,8.51,-2.44,2.41,2.44,3.49,10.92,10.92,10.96
32.89,8.55,-2.40,8.56,-2.39,2.36,2.40,3.46,10.91,10.92,10.95
33.22,8.62,-2.33,8.62,-2.32,2.32,2.35,3.42,10.94,10.94,10.95
33.55,8.70,-2.24,8.70,-2.24,2.28,2.31,3.38,10.98,10.98,10.94
33.89,8.78,-2.17,8.76,-2.18,2.24,2.27,3.33,11.01,11.00,10.95
34.23,8.80,-2.14,8.78,-2.16,2.19,2.23,3.28,10.99,10.97,10.94
34.57,8.78,-2.16,8.78,-2.16,2.14,2.19,3.23,10.92,10.92,10.94
34.92,8.75,-2.19,8.78,-2.16,2.10,2.15,3.17,10.85,10.88,10.94
35.27,8.82,-2.12,8.83,-2.11,2.07,2.11,3.11,10.88,10.89,10.93
35.62,8.91,-2.03,8.90,-2.03,2.04,2.07,3.05,10.94,10.94,10.94
35.97,9.00,-1.93,8.97,-1.96,2.01,2.03,2.98,11.01,10.98,10.93
36.33,9.00,-1.93,9.00,-1.93,1.98,1.99,2.91,10.98,10.97,10.93
36.70,8.99,-1.93,8.99,-1.92,1.94,1.95,2.84,10.93,10.93,10.92
37.06,8.98,-1.93,8.99,-1.92,1.90,1.91,2.77,10.87,10.89,10.91
37.43,9.01,-1.89,9.00,-1.89,1.85,1.87,2.70,10.86,10.86,10.89
37.81,9.04,-1.85,9.03,-1.85,1.81,1.84,2.63,10.85,10.85,10.89
38.19,9.07,-1.80,9.08,-1.79,1.78,1.80,2.56,10.85,10.86,10.87
38.57,9.12,-1.73,9.12,-1.73,1.75,1.76,2.48,10.87,10.87,10.85
38.95,9.17,-1.66,9.16,-1.68,1.72,1.72,2.41,10.89,10.88,10.83
39.34,9.18,-1.64,9.18,-1.64,1.68,1.69,2.34,10.86,10.86,10.81
39.74,9.18,-1.63,9.18,-1.62,1.64,1.65,2.26,10.82,10.82,10.80
40.14,9.17,-1.62,9.16,-1.63,1.60,1.61,2.19,10.77,10.76,10.79
40.54,9.16,-1.61,9.15,-1.62,1.56,1.58,2.12,10.71,10.71,10.77
40.94,9.14,-1.62,9.18,-1.58,1.51,1.54,2.05,10.65,10.69,10.76
41.35,9.24,-1.51,9.25,-1.49,1.47,1.51,1.98,10.71,10.72,10.74
41.76,9.35,-1.38,9.33,-1.40,1.43,1.47,1.91,10.78,10.76,10.72
42.18,9.41,-1.31,9.39,-1.33,1.39,1.44,1.85,10.80,10.78,10.71
42.60,9.40,-1.31,9.40,-1.30,1.36,1.40,1.78,10.76,10.76,10.71
43.03,9.38,-1.32,9.39,-1.31,1.33,1.37,1.71,10.71,10.72,10.70
43.46,9.38,-1.31,9.38,-1.31,1.31,1.33,1.65,10.69,10.69,10.69
43.90,9.38,-1.31,9.37,-1.31,1.30,1.30,1.59,10.67,10.67,10.68
44.33,9.37,-1.30,9.36,-1.31,1.28,1.26,1.53,10.65,10.64,10.67
44.78,9.35,-1.31,9.36,-1.30,1.26,1.23,1.47,10.61,10.62,10.66
45.23,9.37,-1.28,9.38,-1.27,1.23,1.19,1.41,10.59,10.61,10.65
45.68,9.44,-1.20,9.43,-1.21,1.19,1.16,1.35,10.62,10.61,10.64
46.13,9.50,-1.12,9.50,-1.13,1.14,1.12,1.30,10.64,10.64,10.62
46.60,9.55,-1.06,9.55,-1.05,1.09,1.09,1.24,10.64,10.64,10.61
47.06,9.60,-0.99,9.58,-1.01,1.05,1.05,1.19,10.64,10.63,10.59
47.53,9.59,-0.99,9.59,-0.98,1.00,1.02,1.13,10.59,10.59,10.57
48.01,9.58,-0.98,9.59,-0.97,0.97,0.98,1.08,10.54,10.55,10.56
48.49,9.58,-0.95,9.58,-0.95,0.94,0.95,1.03,10.52,10.52,10.53
48.97,9.58,-0.93,9.58,-0.93,0.92,0.91,0.98,10.50,10.50,10.51
49.46,9.58,-0.91,9.58,-0.91,0.91,0.88,0.93,10.49,10.49,10.49
49.96,9.58,-0.88,9.58,-0.88,0.90,0.84,0.89,10.47,10.47,10.46
50.46,9.58,-0.86,9.58,-0.86,0.87,0.81,0.84,10.45,10.45,10.44
50.96,9.58,-0.84,9.57,-0.84,0.84,0.77,0.79,10.42,10.41,10.42
51.47,9.58,-0.82,9.57,-0.82,0.79,0.74,0.75,10.37,10.37,10.39
51.99,9.57,-0.80,9.59,-0.79,0.74,0.70,0.71,10.31,10.33,10.37
52.51,9.63,-0.72,9.62,-0.72,0.69,0.67,0.66,10.32,10.31,10.35
53.03,9.68,-0.65,9.69,-0.63,0.64,0.63,0.62,10.31,10.32,10.32
53.56,9.76,-0.54,9.75,-0.54,0.58,0.59,0.58,10.34,10.33,10.30
54.10,9.82,-0.45,9.79,-0.48,0.53,0.55,0.54,10.34,10.31,10.27
54.64,9.79,-0.46,9.80,-0.45,0.48,0.52,0.49,10.26,10.28,10.24
55.18,9.78,-0.44,9.79,-0.43,0.43,0.48,0.45,10.21,10.22,10.22
55.74,9.78,-0.41,9.78,-0.41,0.40,0.44,0.41,10.17,10.17,10.19
56.29,9.78,-0.38,9.78,-0.38,0.37,0.40,0.37,10.15,10.14,10.16
56.86,9.78,-0.35,9.78,-0.35,0.34,0.36,0.33,10.12,10.12,10.13
57.42,9.78,-0.32,9.78,-0.32,0.32,0.32,0.29,10.10,10.10,10.10
58.00,9.78,-0.30,9.78,-0.29,0.30,0.28,0.25,10.07,10.07,10.08
58.58,9.78,-0.27,9.78,-0.26,0.26,0.24,0.21,10.04,10.04,10.04
59.16,9.78,-0.23,9.78,-0.23,0.23,0.20,0.17,10.01,10.01,10.01
59.76,9.78,-0.20,9.78,-0.20,0.20,0.16,0.13,9.97,9.97,9.97
60.35,9.78,-0.16,9.78,-0.16,0.16,0.12,0.09,9.94,9.94,9.94
60.96,9.78,-0.12,9.78,-0.12,0.12,0.08,0.05,9.90,9.90,9.90
61.57,9.78,-0.08,9.78,-0.08,0.08,0.03,0.01,9.86,9.86,9.86
62.18,9.78,-0.05,9.78,-0.04,0.04,-0.01,-0.03,9.82,9.82,9.82
62.80,9.78,0.00,9.78,0.00,-0.00,-0.06,-0.07,9.78,9.78,9.77
63.43,9.78,0.05,9.78,0.05,-0.05,-0.10,-0.12,9.73,9.73,9.73
64.07,9.78,0.09,9.78,0.09,-0.09,-0.15,-0.16,9.69,9.69,9.69
64.71,9.78,0.14,9.78,0.14,-0.14,-0.19,-0.20,9.64,9.64,9.64
65.35,9.78,0.19,9.78,0.19,-0.19,-0.24,-0.24,9.59,9.59,9.59
66.01,9.78,0.24,9.78,0.24,-0.24,-0.29,-0.29,9.54,9.54,9.54
66.67,9.78,0.29,9.78,0.29,-0.29,-0.34,-0.33,9.49,9.49,9.49
67.33,9.78,0.35,9.78,0.34,-0.35,-0.39,-0.38,9.43,9.43,9.43
68.01,9.78,0.40,9.78,0.40,-0.41,-0.43,-0.42,9.37,9.37,9.38
68.69,9.78,0.46,9.78,0.45,-0.46,-0.49,-0.47,9.31,9.31,9.32
69.37,9.78,0.51,9.78,0.51,-0.52,-0.54,-0.51,9.26,9.26,9.27
70.07,9.78,0.57,9.79,0.58,-0.56,-0.59,-0.56,9.21,9.22,9.21
70.77,9.80,0.64,9.79,0.64,-0.61,-0.64,-0.61,9.19,9.18,9.15
71.48,9.79,0.69,9.77,0.68,-0.66,-0.69,-0.66,9.13,9.12,9.10
72.19,9.75,0.71,9.74,0.71,-0.70,-0.75,-0.71,9.05,9.04,9.03
72.91,9.69,0.71,9.71,0.73,-0.75,-0.80,-0.76,8.94,8.96,8.98
73.64,9.68,0.76,9.68,0.76,-0.79,-0.86,-0.81,8.89,8.89,8.92
74.38,9.68,0.82,9.67,0.82,-0.84,-0.91,-0.87,8.84,8.83,8.86
75.12,9.68,0.89,9.68,0.89,-0.89,-0.97,-0.92,8.79,8.79,8.79
75.87,9.68,0.95,9.68,0.95,-0.95,-1.02,-0.97,8.73,8.73,8.72
76.63,9.68,1.02,9.68,1.02,-1.01,-1.08,-1.03,8.67,8.67,8.66
77.40,9.68,1.08,9.68,1.08,-1.07,-1.14,-1.09,8.60,8.60,8.60
78.17,9.68,1.15,9.68,1.15,-1.14,-1.20,-1.14,8.53,8.53,8.53
78.95,9.68,1.21,9.68,1.21,-1.21,-1.26,-1.20,8.46,8.46,8.47
79.74,9.68,1.28,9.68,1.28,-1.28,-1.32,-1.26,8.39,8.39,8.40
80.54,9.68,1.35,9.68,1.35,-1.35,-1.38,-1.33,8.32,8.32,8.33
81.35,9.68,1.42,9.68,1.42,-1.43,-1.44,-1.39,8.25,8.25,8.26
82.16,9.68,1.49,9.68,1.49,-1.50,-1.50,-1.45,8.18,8.19,8.19
82.98,9.68,1.56,9.69,1.57,-1.56,-1.56,-1.52,8.12,8.13,8.12
83.81,9.70,1.65,9.69,1.64,-1.62,-1.62,-1.59,8.07,8.06,8.05
84.65,9.68,1.71,9.66,1.70,-1.68,-1.69,-1.65,8.00,7.99,7.97
85.50,9.63,1.74,9.63,1.74,-1.73,-1.75,-1.72,7.90,7.90,7.89
86.35,9.58,1.77,9.60,1.79,-1.78,-1.81,-1.79,7.80,7.83,7.81
87.22,9.58,1.84,9.56,1.83,-1.83,-1.87,-1.87,7.75,7.74,7.74
88.09,9.56,1.90,9.53,1.87,-1.88,-1.94,-1.94,7.68,7.65,7.66
88.97,9.46,1.88,9.49,1.92,-1.94,-2.00,-2.02,7.52,7.56,7.58
89.86,9.47,1.97,9.47,1.97,-2.01,-2.07,-2.09,7.46,7.46,7.49
90.76,9.48,2.06,9.47,2.05,-2.08,-2.13,-2.17,7.40,7.39,7.41
91.66,9.49,2.16,9.49,2.16,-2.16,-2.20,-2.25,7.33,7.33,7.32
92.58,9.49,2.24,9.50,2.25,-2.24,-2.26,-2.34,7.25,7.26,7.24
93.51,9.50,2.34,9.50,2.35,-2.32,-2.32,-2.42,7.18,7.18,7.15
94.44,9.50,2.44,9.48,2.42,-2.40,-2.39,-2.50,7.10,7.08,7.06
95.39,9.46,2.49,9.45,2.48,-2.47,-2.45,-2.59,6.99,6.98,6.97
96.34,9.39,2.51,9.41,2.54,-2.54,-2.52,-2.68,6.85,6.87,6.88
97.30,9.38,2.60,9.37,2.60,-2.60,-2.58,-2.77,6.77,6.77,6.77
98.28,9.35,2.67,9.33,2.65,-2.66,-2.65,-2.86,6.69,6.67,6.68
99.26,9.29,2.71,9.29,2.71,-2.72,-2.71,-2.95,6.57,6.57,6.58
100.25,9.22,2.75,9.25,2.77,-2.78,-2.77,-3.04,6.44,6.47,6.47
101.25,9.22,2.85,9.21,2.84,-2.84,-2.84,-3.13,6.38,6.37,6.37
102.27,9.20,2.93,9.17,2.91,-2.90,-2.90,-3.22,6.29,6.27,6.26
103.29,9.13,2.97,9.13,2.97,-2.98,-2.97,-3.31,6.15,6.16,6.16
104.32,9.07,3.01,9.08,3.03,-3.05,-3.03,-3.40,6.02,6.03,6.05
105.37,9.05,3.10,9.04,3.10,-3.12,-3.09,-3.50,5.93,5.92,5.95
106.42,9.02,3.18,9.02,3.18,-3.18,-3.15,-3.59,5.83,5.83,5.84
107.48,9.00,3.27,9.00,3.27,-3.24,-3.21,-3.68,5.76,5.76,5.73
108.56,8.97,3.33,8.98,3.34,-3.29,-3.27,-3.76,5.67,5.68,5.64
109.64,8.95,3.42,8.92,3.39,-3.35,-3.33,-3.85,5.60,5.57,5.53
110.74,8.85,3.42,8.84,3.41,-3.41,-3.39,-3.93,5.44,5.43,5.43
111.85,8.73,3.39,8.76,3.43,-3.47,-3.45,-4.02,5.26,5.29,5.33
112.97,8.70,3.46,8.70,3.46,-3.52,-3.51,-4.09,5.17,5.18,5.24
114.10,8.70,3.55,8.69,3.54,-3.58,-3.57,-4.17,5.12,5.11,5.15
115.24,8.70,3.64,8.70,3.64,-3.63,-3.63,-4.24,5.07,5.07,5.06
116.39,8.70,3.73,8.70,3.74,-3.69,-3.68,-4.31,5.01,5.01,4.96
117.55,8.70,3.82,8.68,3.80,-3.75,-3.74,-4.37,4.94,4.92,4.88
118.73,8.64,3.85,8.63,3.83,-3.82,-3.79,-4.42,4.82,4.81,4.79
119.92,8.55,3.84,8.57,3.86,-3.88,-3.84,-4.47,4.66,4.69,4.71
121.12,8.52,3.89,8.53,3.90,-3.95,-3.90,-4.52,4.57,4.59,4.63
122.33,8.53,3.98,8.53,3.98,-4.00,-3.95,-4.56,4.53,4.53,4.55
123.55,8.54,4.07,8.52,4.05,-4.05,-4.00,-4.60,4.49,4.48,4.47
124.79,8.53,4.13,8.51,4.12,-4.10,-4.05,-4.62,4.43,4.42,4.39
126.03,8.46,4.14,8.49,4.17,-4.14,-4.10,-4.65,4.31,4.34,4.32
127.29,8.46,4.22,8.45,4.21,-4.20,-4.14,-4.66,4.26,4.26,4.24
128.57,8.43,4.26,8.41,4.25,-4.25,-4.19,-4.67,4.18,4.16,4.16
129.85,8.37,4.28,8.37,4.28,-4.29,-4.23,-4.67,4.07,4.08,4.09
131.15,8.31,4.29,8.32,4.30,-4.33,-4.28,-4.67,3.98,3.99,4.02
132.46,8.29,4.34,8.29,4.35,-4.37,-4.32,-4.67,3.92,3.93,3.94
133.79,8.28,4.41,8.29,4.42,-4.40,-4.36,-4.66,3.88,3.89,3.87
135.12,8.29,4.49,8.27,4.47,-4.44,-4.40,-4.64,3.85,3.83,3.80
136.48,8.26,4.53,8.23,4.50,-4.48,-4.44,-4.62,3.78,3.75,3.73
137.84,8.15,4.49,8.17,4.51,-4.53,-4.47,-4.60,3.62,3.65,3.66
139.22,8.11,4.52,8.12,4.53,-4.57,-4.51,-4.57,3.54,3.55,3.58
140.61,8.09,4.57,8.09,4.58,-4.60,-4.54,-4.54,3.48,3.49,3.52
142.02,8.09,4.65,8.09,4.65,-4.63,-4.58,-4.51,3.45,3.46,3.44
143.44,8.09,4.72,8.06,4.70,-4.66,-4.61,-4.48,3.43,3.41,3.37
144.87,8.03,4.73,8.02,4.72,-4.69,-4.64,-4.44,3.34,3.33,3.29
146.32,7.93,4.70,7.95,4.73,-4.72,-4.67,-4.41,3.21,3.23,3.23
147.78,7.89,4.73,7.89,4.73,-4.75,-4.69,-4.37,3.13,3.13,3.16
149.26,7.85,4.76,7.84,4.75,-4.78,-4.72,-4.34,3.07,3.05,3.09
150.75,7.80,4.78,7.81,4.79,-4.81,-4.74,-4.30,2.99,3.01,3.02
152.26,7.79,4.83,7.79,4.83,-4.83,-4.76,-4.27,2.96,2.96,2.95
153.78,7.79,4.89,7.77,4.88,-4.86,-4.79,-4.23,2.93,2.91,2.90
155.32,7.74,4.91,7.74,4.90,-4.89,-4.80,-4.20,2.85,2.85,2.83
156.88,7.69,4.92,7.68,4.91,-4.91,-4.82,-4.17,2.77,2.77,2.77
158.44,7.62,4.91,7.63,4.93,-4.94,-4.84,-4.14,2.68,2.69,2.71
160.03,7.59,4.94,7.59,4.95,-4.96,-4.85,-4.11,2.63,2.64,2.64
161.63,7.56,4.99,7.54,4.97,-4.97,-4.87,-4.09,2.59,2.58,2.57
163.24,7.51,4.99,7.50,4.98,-4.97,-4.88,-4.07,2.53,2.52,2.51
164.88,7.42,4.96,7.44,4.99,-4.98,-4.89,-4.05,2.44,2.46,2.45
166.53,7.39,4.99,7.39,4.99,-4.98,-4.90,-4.03,2.40,2.40,2.40
168.19,7.34,5.00,7.33,4.98,-4.99,-4.90,-4.02,2.35,2.34,2.34
169.87,7.28,4.99,7.26,4.98,-4.99,-4.91,-4.01,2.29,2.27,2.29
171.57,7.18,4.94,7.20,4.97,-4.99,-4.91,-4.00,2.19,2.22,2.23
173.29,7.15,4.97,7.17,4.98,-4.98,-4.92,-3.99,2.16,2.18,2.18
175.02,7.15,5.01,7.12,4.99,-4.98,-4.92,-3.99,2.17,2.15,2.14
176.77,7.11,5.02,7.08,4.99,-4.97,-4.92,-3.99,2.14,2.11,2.09
178.54,6.98,4.94,7.02,4.97,-4.96,-4.91,-4.00,2.02,2.06,2.04
180.32,6.95,4.95,6.95,4.95,-4.96,-4.91,-4.01,1.99,2.00,2.00
182.13,6.92,4.95,6.90,4.94,-4.95,-4.90,-4.02,1.96,1.94,1.96
183.95,6.86,4.93,6.86,4.93,-4.96,-4.90,-4.03,1.90,1.91,1.93
185.79,6.82,4.93,6.82,4.93,-4.96,-4.89,-4.05,1.86,1.86,1.89
187.65,6.79,4.93,6.80,4.94,-4.96,-4.88,-4.07,1.83,1.84,1.86
189.52,6.80,4.97,6.79,4.97,-4.96,-4.87,-4.09,1.84,1.84,1.82
191.42,6.80,5.00,6.78,4.98,-4.96,-4.86,-4.12,1.84,1.82,1.80
193.33,6.75,4.98,6.76,4.99,-4.96,-4.84,-4.15,1.79,1.80,1.77
195.27,6.70,4.96,6.71,4.97,-4.95,-4.83,-4.17,1.75,1.76,1.74
197.22,6.66,4.95,6.64,4.93,-4.93,-4.81,-4.21,1.73,1.71,1.71
199.19,6.57,4.89,6.57,4.89,-4.90,-4.80,-4.24,1.66,1.67,1.68
201.18,6.49,4.84,6.52,4.87,-4.88,-4.78,-4.28,1.61,1.65,1.65
203.19,6.48,4.85,6.47,4.84,-4.85,-4.76,-4.32,1.63,1.62,1.63
205.23,6.46,4.86,6.41,4.81,-4.82,-4.74,-4.36,1.63,1.59,1.60
207.28,6.34,4.76,6.36,4.79,-4.80,-4.72,-4.40,1.54,1.56,1.57
209.35,6.28,4.73,6.30,4.76,-4.78,-4.69,-4.44,1.50,1.52,1.55
211.44,6.28,4.76,6.28,4.76,-4.76,-4.67,-4.48,1.52,1.52,1.52
213.56,6.27,4.78,6.25,4.76,-4.74,-4.64,-4.52,1.53,1.51,1.49
215.69,6.23,4.77,6.20,4.74,-4.71,-4.62,-4.56,1.52,1.49,1.46
217.85,6.09,4.65,6.14,4.70,-4.68,-4.59,-4.60,1.41,1.46,1.44
220.03,6.07,4.66,6.06,4.65,-4.65,-4.56,-4.64,1.42,1.41,1.41
222.23,6.02,4.63,5.98,4.60,-4.62,-4.53,-4.68,1.40,1.36,1.39
224.45,5.91,4.54,5.93,4.57,-4.58,-4.50,-4.71,1.32,1.35,1.37
226.70,5.86,4.51,5.88,4.53,-4.54,-4.47,-4.74,1.31,1.33,1.35
228.96,5.86,4.53,5.84,4.51,-4.50,-4.44,-4.77,1.35,1.34,1.33
231.25,5.81,4.49,5.80,4.49,-4.47,-4.40,-4.79,1.34,1.34,1.32
233.57,5.77,4.46,5.74,4.44,-4.43,-4.37,-4.81,1.33,1.31,1.30
235.90,5.66,4.37,5.68,4.39,-4.40,-4.33,-4.82,1.26,1.28,1.29
238.26,5.62,4.34,5.64,4.36,-4.37,-4.30,-4.83,1.25,1.27,1.28
240.64,5.62,4.34,5.60,4.32,-4.33,-4.26,-4.83,1.29,1.27,1.28
243.05,5.59,4.32,5.56,4.29,-4.29,-4.22,-4.83,1.30,1.27,1.27
245.48,5.50,4.23,5.53,4.27,-4.25,-4.19,-4.82,1.25,1.28,1.27
247.93,5.48,4.21,5.48,4.22,-4.21,-4.15,-4.81,1.26,1.27,1.26
250.41,5.47,4.21,5.43,4.17,-4.18,-4.11,-4.78,1.29,1.25,1.26
252.92,5.36,4.10,5.39,4.14,-4.14,-4.07,-4.76,1.22,1.25,1.26
255.45,5.34,4.09,5.34,4.09,-4.10,-4.03,-4.72,1.24,1.24,1.24
258.00,5.31,4.07,5.29,4.05,-4.06,-3.98,-4.68,1.25,1.23,1.24
260.58,5.25,4.02,5.26,4.03,-4.01,-3.94,-4.63,1.23,1.24,1.23
263.19,5.20,3.98,5.20,3.98,-3.97,-3.90,-4.58,1.23,1.23,1.22
265.82,5.14,3.94,5.13,3.93,-3.92,-3.86,-4.52,1.21,1.21,1.20
268.48,5.06,3.87,5.07,3.88,-3.88,-3.81,-4.45,1.18,1.19,1.19
271.16,5.00,3.83,4.99,3.82,-3.83,-3.77,-4.38,1.17,1.16,1.17
273.87,4.93,3.77,4.93,3.77,-3.78,-3.72,-4.30,1.14,1.14,1.16
276.61,4.86,3.72,4.86,3.73,-3.74,-3.68,-4.22,1.12,1.13,1.14
279.38,4.81,3.69,4.80,3.68,-3.68,-3.63,-4.14,1.12,1.12,1.12
282.17,4.75,3.64,4.74,3.64,-3.63,-3.59,-4.05,1.11,1.11,1.11
284.99,4.69,3.59,4.70,3.59,-3.58,-3.54,-3.96,1.11,1.12,1.10
287.84,4.64,3.53,4.64,3.54,-3.53,-3.49,-3.87,1.11,1.11,1.10
290.72,4.60,3.50,4.57,3.48,-3.48,-3.44,-3.78,1.12,1.10,1.09
293.63,4.49,3.40,4.51,3.42,-3.42,-3.40,-3.68,1.07,1.09,1.09
296.57,4.44,3.35,4.44,3.35,-3.36,-3.35,-3.58,1.08,1.08,1.09
299.53,4.40,3.31,4.38,3.29,-3.30,-3.30,-3.49,1.09,1.08,1.09
302.53,4.33,3.24,4.34,3.25,-3.25,-3.25,-3.39,1.08,1.09,1.09
305.55,4.29,3.20,4.28,3.20,-3.19,-3.20,-3.29,1.10,1.09,1.09
308.61,4.23,3.15,4.23,3.14,-3.14,-3.15,-3.19,1.08,1.08,1.08
311.69,4.17,3.09,4.16,3.08,-3.10,-3.10,-3.09,1.07,1.06,1.08
314.81,4.10,3.03,4.09,3.02,-3.05,-3.05,-2.99,1.05,1.04,1.07
317.96,4.03,2.96,4.06,2.99,-3.00,-3.00,-2.89,1.03,1.06,1.06
321.14,4.02,2.96,4.03,2.97,-2.95,-2.94,-2.80,1.07,1.08,1.06
324.35,4.04,2.97,3.98,2.92,-2.89,-2.89,-2.70,1.15,1.09,1.06
327.59,3.90,2.84,3.90,2.84,-2.83,-2.84,-2.61,1.07,1.07,1.06
330.87,3.78,2.72,3.82,2.76,-2.76,-2.79,-2.51,1.02,1.06,1.05
334.18,3.73,2.68,3.73,2.68,-2.69,-2.73,-2.42,1.04,1.04,1.05
337.52,3.70,2.65,3.66,2.62,-2.62,-2.68,-2.33,1.08,1.04,1.04
340.90,3.58,2.54,3.59,2.55,-2.54,-2.63,-2.24,1.03,1.05,1.04
344.30,3.50,2.45,3.51,2.46,-2.47,-2.57,-2.15,1.02,1.03,1.05
347.75,3.44,2.39,3.41,2.37,-2.41,-2.52,-2.06,1.03,1.01,1.05
351.23,3.35,2.31,3.36,2.32,-2.34,-2.47,-1.98,1.01,1.03,1.04
354.74,3.30,2.24,3.34,2.29,-2.27,-2.41,-1.89,1.03,1.07,1.05
358.28,3.34,2.29,3.30,2.25,-2.21,-2.35,-1.81,1.13,1.09,1.05
361.87,3.29,2.23,3.23,2.17,-2.15,-2.30,-1.73,1.14,1.08,1.06
365.49,3.09,2.02,3.15,2.09,-2.09,-2.24,-1.65,1.00,1.06,1.06
369.14,3.03,1.97,3.06,2.00,-2.04,-2.19,-1.57,0.99,1.03,1.06
372.83,3.06,1.98,3.01,1.94,-1.98,-2.13,-1.50,1.08,1.03,1.08
376.56,2.99,1.91,3.00,1.92,-1.91,-2.07,-1.42,1.08,1.09,1.07
380.33,2.95,1.88,2.95,1.88,-1.84,-2.02,-1.35,1.10,1.11,1.07
384.13,2.89,1.82,2.87,1.80,-1.78,-1.96,-1.28,1.11,1.09,1.07
387.97,2.79,1.72,2.80,1.73,-1.72,-1.90,-1.20,1.07,1.08,1.07
391.85,2.70,1.62,2.72,1.65,-1.66,-1.84,-1.13,1.04,1.06,1.07
395.77,2.67,1.61,2.62,1.55,-1.59,-1.78,-1.07,1.08,1.03,1.06
399.73,2.52,1.46,2.56,1.50,-1.51,-1.72,-1.00,1.01,1.05,1.06
403.72,2.46,1.40,2.51,1.46,-1.43,-1.67,-0.93,1.03,1.08,1.06
407.76,2.50,1.46,2.42,1.38,-1.36,-1.61,-0.87,1.14,1.06,1.03
411.84,2.36,1.33,2.31,1.28,-1.29,-1.54,-0.80,1.07,1.02,1.03
415.96,2.14,1.11,2.23,1.20,-1.23,-1.48,-0.74,0.91,1.00,1.03
420.12,2.10,1.08,2.15,1.13,-1.17,-1.42,-0.68,0.93,0.99,1.02
424.32,2.22,1.19,2.10,1.08,-1.11,-1.36,-0.62,1.11,1.00,1.02
428.56,2.10,1.06,2.09,1.06,-1.03,-1.30,-0.56,1.06,1.06,1.03
432.85,1.97,0.92,2.08,1.03,-0.96,-1.24,-0.50,1.00,1.11,1.05
437.18,2.06,1.00,2.00,0.93,-0.90,-1.17,-0.44,1.15,1.10,1.06
441.55,2.02,0.92,1.93,0.84,-0.85,-1.11,-0.39,1.17,1.09,1.10
445.96,1.81,0.67,1.90,0.76,-0.79,-1.04,-0.33,1.02,1.10,1.14
450.42,1.81,0.62,1.85,0.67,-0.73,-0.98,-0.28,1.08,1.12,1.18
454.93,1.93,0.69,1.86,0.63,-0.66,-0.91,-0.23,1.27,1.20,1.23
459.48,1.91,0.62,1.91,0.62,-0.59,-0.85,-0.18,1.32,1.32,1.29
464.07,1.91,0.57,1.92,0.58,-0.52,-0.78,-0.13,1.39,1.40,1.34
468.71,1.90,0.51,1.89,0.50,-0.47,-0.71,-0.08,1.43,1.42,1.39
473.40,1.87,0.42,1.85,0.40,-0.41,-0.64,-0.03,1.46,1.44,1.45
478.13,1.79,0.28,1.79,0.29,-0.34,-0.57,0.02,1.45,1.46,1.51
482.91,1.75,0.19,1.79,0.23,-0.27,-0.50,0.06,1.48,1.52,1.55
487.74,1.77,0.17,1.78,0.18,-0.18,-0.43,0.11,1.58,1.60,1.59
492.62,1.85,0.22,1.78,0.15,-0.10,-0.36,0.15,1.75,1.69,1.63
497.55,1.71,0.04,1.74,0.07,-0.02,-0.29,0.20,1.69,1.72,1.67
502.52,1.67,-0.02,1.63,-0.07,0.04,-0.22,0.24,1.71,1.67,1.69
507.55,1.53,-0.19,1.55,-0.16,0.10,-0.14,0.28,1.63,1.66,1.72
512.62,1.44,-0.29,1.53,-0.19,0.17,-0.07,0.32,1.61,1.70,1.73
517.75,1.58,-0.15,1.46,-0.27,0.24,0.01,0.36,1.82,1.70,1.73
522.93,1.46,-0.27,1.42,-0.30,0.32,0.09,0.40,1.77,1.74,1.73
528.16,1.24,-0.47,1.39,-0.31,0.39,0.16,0.43,1.63,1.78,1.71
