frequency,raw,error,smoothed,error_smoothed,equalization,parametric_eq,fixed_band_eq,equalized_raw,equalized_smoothed,target
20.00,-3.12,-5.34,-3.11,-5.36,5.36,4.89,1.71,2.23,2.24,2.22
20.20,-3.06,-5.33,-3.06,-5.34,5.34,4.87,1.77,2.28,2.28,2.26
20.40,-3.00,-5.32,-3.00,-5.32,5.32,4.86,1.82,2.32,2.32,2.31
20.61,-2.94,-5.29,-2.95,-5.30,5.30,4.84,1.88,2.36,2.35,2.34
20.81,-2.88,-5.28,-2.90,-5.28,5.28,4.83,1.93,2.40,2.38,2.39
21.02,-2.83,-5.27,-2.84,-5.25,5.25,4.81,1.99,2.42,2.41,2.43
21.23,-2.78,-5.24,-2.79,-5.22,5.22,4.79,2.06,2.44,2.43,2.45
21.44,-2.74,-5.22,-2.74,-5.19,5.19,4.78,2.12,2.45,2.46,2.47
21.66,-2.70,-5.20,-2.69,-5.16,5.16,4.76,2.18,2.46,2.48,2.49
21.87,-2.65,-5.15,-2.64,-5.13,5.13,4.75,2.25,2.48,2.49,2.50
22.09,-2.60,-5.12,-2.58,-5.09,5.09,4.73,2.32,2.49,2.51,2.52
22.31,-2.54,-5.07,-2.53,-5.05,5.05,4.71,2.39,2.51,2.52,2.53
22.54,-2.48,-5.02,-2.48,-5.01,5.01,4.69,2.46,2.53,2.53,2.53
22.76,-2.42,-4.95,-2.43,-4.96,4.96,4.68,2.54,2.54,2.53,2.53
22.99,-2.36,-4.88,-2.38,-4.91,4.91,4.66,2.61,2.55,2.53,2.52
23.22,-2.32,-4.84,-2.33,-4.87,4.87,4.64,2.69,2.54,2.54,2.52
23.45,-2.27,-4.79,-2.28,-4.81,4.81,4.62,2.77,2.54,2.54,2.52
23.69,-2.22,-4.75,-2.22,-4.76,4.76,4.60,2.85,2.54,2.54,2.53
23.92,-2.18,-4.71,-2.17,-4.71,4.71,4.58,2.94,2.52,2.54,2.53
24.16,-2.13,-4.67,-2.11,-4.65,4.65,4.56,3.02,2.52,2.54,2.54
24.40,-2.08,-4.63,-2.07,-4.60,4.60,4.54,3.10,2.52,2.54,2.55
24.65,-2.03,-4.57,-2.02,-4.56,4.56,4.52,3.19,2.53,2.54,2.54
24.89,-1.98,-4.52,-1.98,-4.52,4.52,4.50,3.28,2.54,2.54,2.54
25.14,-1.93,-4.47,-1.95,-4.48,4.48,4.48,3.37,2.55,2.54,2.54
25.39,-1.88,-4.43,-1.91,-4.45,4.45,4.46,3.46,2.57,2.54,2.55
25.65,-1.84,-4.39,-1.88,-4.42,4.42,4.44,3.54,2.58,2.54,2.55
25.91,-1.79,-4.33,-1.84,-4.39,4.39,4.42,3.63,2.59,2.54,2.54
26.16,-1.77,-4.31,-1.81,-4.35,4.35,4.40,3.72,2.58,2.54,2.54
26.43,-1.77,-4.31,-1.78,-4.32,4.32,4.38,3.81,2.54,2.54,2.53
26.69,-1.77,-4.31,-1.74,-4.28,4.28,4.36,3.90,2.51,2.54,2.53
26.96,-1.77,-4.32,-1.71,-4.24,4.24,4.33,3.98,2.47,2.54,2.54
27.23,-1.73,-4.28,-1.67,-4.21,4.21,4.31,4.07,2.47,2.53,2.54
27.50,-1.67,-4.21,-1.64,-4.17,4.17,4.29,4.15,2.50,2.53,2.54
27.77,-1.62,-4.15,-1.60,-4.13,4.13,4.26,4.22,2.51,2.53,2.53
28.05,-1.57,-4.10,-1.56,-4.10,4.10,4.24,4.30,2.52,2.53,2.53
28.33,-1.51,-4.03,-1.52,-4.05,4.05,4.22,4.37,2.54,2.53,2.52
28.62,-1.46,-3.98,-1.48,-4.01,4.01,4.19,4.44,2.55,2.53,2.52
28.90,-1.40,-3.93,-1.44,-3.97,3.97,4.17,4.50,2.57,2.53,2.53
29.19,-1.36,-3.88,-1.40,-3.92,3.92,4.14,4.55,2.56,2.53,2.52
29.48,-1.34,-3.88,-1.35,-3.88,3.88,4.12,4.60,2.54,2.53,2.54
29.78,-1.31,-3.84,-1.31,-3.84,3.84,4.09,4.65,2.52,2.53,2.53
30.08,-1.28,-3.82,-1.27,-3.80,3.80,4.07,4.69,2.51,2.52,2.53
30.38,-1.24,-3.77,-1.24,-3.76,3.76,4.04,4.72,2.52,2.52,2.52
30.68,-1.21,-3.73,-1.21,-3.73,3.73,4.02,4.74,2.52,2.52,2.52
30.99,-1.17,-3.69,-1.18,-3.70,3.70,3.99,4.76,2.53,2.52,2.52
31.30,-1.15,-3.67,-1.15,-3.67,3.67,3.97,4.77,2.52,2.52,2.52
31.61,-1.12,-3.64,-1.13,-3.64,3.64,3.94,4.77,2.52,2.52,2.52
31.93,-1.10,-3.62,-1.10,-3.61,3.61,3.91,4.77,2.51,2.52,2.52
32.24,-1.07,-3.58,-1.07,-3.58,3.58,3.89,4.75,2.51,2.51,2.51
32.57,-1.04,-3.56,-1.03,-3.54,3.54,3.86,4.74,2.50,2.51,2.51
32.89,-1.01,-3.52,-1.00,-3.51,3.51,3.83,4.71,2.49,2.50,2.51
33.22,-0.98,-3.48,-0.97,-3.47,3.47,3.80,4.68,2.49,2.50,2.50
33.55,-0.94,-3.44,-0.94,-3.44,3.44,3.78,4.64,2.49,2.50,2.50
33.89,-0.91,-3.40,-0.91,-3.40,3.40,3.75,4.60,2.49,2.49,2.49
34.23,-0.87,-3.37,-0.87,-3.36,3.36,3.72,4.55,2.49,2.49,2.50
34.57,-0.83,-3.32,-0.84,-3.32,3.32,3.69,4.49,2.49,2.49,2.48
34.92,-0.78,-3.27,-0.80,-3.28,3.28,3.66,4.44,2.50,2.48,2.48
35.27,-0.75,-3.23,-0.76,-3.25,3.25,3.63,4.37,2.49,2.48,2.48
35.62,-0.73,-3.21,-0.73,-3.21,3.21,3.60,4.31,2.48,2.48,2.48
35.97,-0.71,-3.19,-0.70,-3.18,3.18,3.57,4.24,2.46,2.48,2.48
36.33,-0.68,-3.17,-0.67,-3.15,3.15,3.54,4.17,2.47,2.48,2.48
36.70,-0.64,-3.11,-0.65,-3.13,3.13,3.51,4.10,2.48,2.48,2.47
37.06,-0.60,-3.07,-0.62,-3.10,3.10,3.48,4.03,2.50,2.48,2.47
37.43,-0.57,-3.06,-0.60,-3.08,3.08,3.45,3.96,2.51,2.48,2.49
37.81,-0.54,-3.03,-0.57,-3.06,3.06,3.42,3.89,2.51,2.48,2.48
38.19,-0.52,-3.00,-0.55,-3.03,3.03,3.39,3.81,2.51,2.49,2.48
38.57,-0.52,-3.01,-0.52,-3.01,3.01,3.36,3.74,2.49,2.49,2.49
38.95,-0.52,-3.02,-0.50,-2.99,2.99,3.33,3.67,2.47,2.49,2.50
39.34,-0.52,-3.02,-0.48,-2.98,2.98,3.30,3.60,2.45,2.49,2.49
39.74,-0.51,-3.00,-0.46,-2.96,2.96,3.27,3.53,2.44,2.49,2.49
40.14,-0.48,-2.98,-0.44,-2.93,2.93,3.23,3.46,2.45,2.49,2.50
40.54,-0.41,-2.91,-0.42,-2.91,2.91,3.20,3.39,2.50,2.49,2.49
40.94,-0.33,-2.82,-0.39,-2.88,2.88,3.17,3.32,2.55,2.49,2.49
41.35,-0.32,-2.81,-0.36,-2.85,2.85,3.14,3.26,2.53,2.49,2.49
41.76,-0.32,-2.81,-0.33,-2.82,2.82,3.11,3.20,2.50,2.48,2.48
42.18,-0.32,-2.81,-0.30,-2.78,2.78,3.07,3.14,2.46,2.48,2.49
42.60,-0.32,-2.80,-0.28,-2.75,2.75,3.04,3.08,2.42,2.47,2.48
43.03,-0.31,-2.78,-0.25,-2.71,2.71,3.01,3.02,2.40,2.46,2.47
43.46,-0.23,-2.70,-0.22,-2.67,2.67,2.97,2.97,2.44,2.45,2.47
43.90,-0.15,-2.60,-0.20,-2.64,2.64,2.94,2.91,2.49,2.44,2.44
44.33,-0.13,-2.56,-0.18,-2.61,2.61,2.91,2.86,2.48,2.43,2.43
44.78,-0.13,-2.54,-0.17,-2.59,2.59,2.87,2.82,2.46,2.42,2.41
45.23,-0.13,-2.54,-0.16,-2.57,2.57,2.84,2.77,2.44,2.41,2.41
45.68,-0.13,-2.52,-0.15,-2.55,2.55,2.81,2.73,2.42,2.40,2.39
46.13,-0.13,-2.51,-0.14,-2.53,2.53,2.77,2.68,2.40,2.39,2.38
46.60,-0.13,-2.51,-0.12,-2.50,2.50,2.74,2.65,2.37,2.38,2.38
47.06,-0.13,-2.50,-0.11,-2.48,2.48,2.70,2.61,2.35,2.37,2.37
47.53,-0.13,-2.49,-0.10,-2.46,2.46,2.67,2.57,2.33,2.36,2.36
48.01,-0.13,-2.49,-0.10,-2.44,2.44,2.64,2.54,2.31,2.34,2.36
48.49,-0.13,-2.48,-0.10,-2.43,2.43,2.60,2.51,2.30,2.33,2.35
48.97,-0.13,-2.46,-0.09,-2.42,2.42,2.57,2.48,2.28,2.33,2.33
49.46,-0.08,-2.39,-0.08,-2.40,2.40,2.53,2.45,2.32,2.32,2.31
49.96,-0.03,-2.33,-0.07,-2.38,2.38,2.50,2.42,2.35,2.31,2.29
50.46,-0.03,-2.33,-0.06,-2.36,2.36,2.46,2.40,2.33,2.30,2.30
50.96,-0.03,-2.32,-0.05,-2.34,2.34,2.43,2.37,2.31,2.29,2.29
51.47,-0.03,-2.30,-0.05,-2.33,2.33,2.39,2.35,2.30,2.28,2.27
51.99,-0.03,-2.29,-0.04,-2.32,2.32,2.36,2.33,2.28,2.27,2.26
52.51,-0.03,-2.30,-0.04,-2.30,2.30,2.32,2.31,2.27,2.26,2.26
53.03,-0.03,-2.30,-0.03,-2.29,2.29,2.28,2.29,2.26,2.26,2.26
53.56,-0.03,-2.29,-0.03,-2.28,2.28,2.25,2.27,2.25,2.25,2.26
54.10,-0.03,-2.28,-0.02,-2.27,2.27,2.21,2.25,2.24,2.25,2.25
54.64,-0.03,-2.27,-0.02,-2.26,2.26,2.18,2.24,2.23,2.24,2.24
55.18,-0.03,-2.27,-0.02,-2.25,2.25,2.14,2.22,2.22,2.24,2.23
55.74,-0.03,-2.26,-0.01,-2.24,2.24,2.11,2.20,2.21,2.23,2.22
56.29,-0.03,-2.26,-0.01,-2.23,2.23,2.07,2.18,2.19,2.22,2.22
56.86,-0.03,-2.24,0.01,-2.21,2.21,2.03,2.16,2.18,2.21,2.21
57.42,0.01,-2.18,0.02,-2.19,2.19,2.00,2.14,2.20,2.20,2.19
58.00,0.06,-2.13,0.03,-2.16,2.16,1.96,2.12,2.22,2.19,2.19
58.58,0.06,-2.13,0.04,-2.14,2.14,1.92,2.10,2.19,2.17,2.18
59.16,0.06,-2.11,0.05,-2.11,2.11,1.89,2.08,2.16,2.16,2.17
59.76,0.06,-2.10,0.06,-2.08,2.08,1.85,2.06,2.14,2.14,2.16
60.35,0.06,-2.07,0.06,-2.05,2.05,1.82,2.03,2.11,2.11,2.12
60.96,0.06,-2.04,0.06,-2.03,2.03,1.78,2.01,2.09,2.09,2.10
61.57,0.06,-2.01,0.05,-2.01,2.01,1.74,1.98,2.07,2.06,2.06
62.18,0.06,-1.97,0.04,-1.99,1.99,1.71,1.95,2.05,2.03,2.03
62.80,0.06,-1.93,0.02,-1.98,1.98,1.67,1.92,2.04,2.00,1.99
63.43,0.03,-1.93,-0.01,-1.97,1.97,1.63,1.89,2.00,1.96,1.96
64.07,-0.00,-1.92,-0.04,-1.97,1.97,1.60,1.85,1.96,1.93,1.92
64.71,-0.04,-1.92,-0.07,-1.96,1.96,1.56,1.82,1.92,1.89,1.88
65.35,-0.08,-1.94,-0.10,-1.96,1.96,1.52,1.78,1.87,1.85,1.85
66.01,-0.13,-1.95,-0.13,-1.95,1.95,1.49,1.74,1.82,1.82,1.82
66.67,-0.19,-1.97,-0.16,-1.94,1.94,1.45,1.70,1.75,1.78,1.78
67.33,-0.22,-1.96,-0.18,-1.92,1.92,1.41,1.66,1.70,1.74,1.74
68.01,-0.23,-1.94,-0.20,-1.90,1.90,1.37,1.62,1.67,1.70,1.71
68.69,-0.23,-1.90,-0.21,-1.87,1.87,1.34,1.57,1.64,1.66,1.67
69.37,-0.23,-1.86,-0.20,-1.83,1.83,1.30,1.53,1.59,1.62,1.62
70.07,-0.23,-1.81,-0.19,-1.77,1.77,1.26,1.48,1.54,1.58,1.58
70.77,-0.23,-1.78,-0.17,-1.71,1.71,1.23,1.43,1.48,1.54,1.55
71.48,-0.18,-1.69,-0.14,-1.64,1.64,1.19,1.38,1.46,1.50,1.51
72.19,-0.12,-1.58,-0.11,-1.56,1.56,1.15,1.34,1.44,1.45,1.45
72.91,-0.08,-1.49,-0.08,-1.48,1.48,1.12,1.29,1.40,1.41,1.41
73.64,0.01,-1.36,-0.03,-1.40,1.40,1.08,1.23,1.41,1.36,1.36
74.38,0.06,-1.26,0.01,-1.31,1.31,1.04,1.18,1.37,1.32,1.32
75.12,0.07,-1.20,0.05,-1.23,1.23,1.00,1.13,1.30,1.28,1.27
75.87,0.14,-1.09,0.09,-1.15,1.15,0.97,1.08,1.29,1.24,1.23
76.63,0.16,-1.03,0.12,-1.08,1.08,0.93,1.03,1.24,1.20,1.19
77.40,0.16,-0.99,0.14,-1.01,1.01,0.89,0.98,1.17,1.16,1.15
78.17,0.16,-0.95,0.16,-0.95,0.95,0.85,0.93,1.11,1.12,1.10
78.95,0.16,-0.93,0.18,-0.90,0.90,0.82,0.87,1.06,1.08,1.08
79.74,0.17,-0.88,0.19,-0.86,0.86,0.78,0.82,1.03,1.04,1.04
80.54,0.22,-0.80,0.19,-0.82,0.82,0.74,0.77,1.04,1.01,1.01
81.35,0.23,-0.75,0.19,-0.79,0.79,0.71,0.72,1.02,0.98,0.97
82.16,0.18,-0.76,0.18,-0.76,0.76,0.67,0.67,0.94,0.94,0.94
82.98,0.16,-0.76,0.17,-0.74,0.74,0.63,0.61,0.90,0.91,0.92
83.81,0.16,-0.72,0.16,-0.72,0.72,0.59,0.56,0.88,0.88,0.88
84.65,0.16,-0.69,0.15,-0.69,0.69,0.56,0.51,0.85,0.85,0.85
85.50,0.16,-0.66,0.15,-0.66,0.66,0.52,0.46,0.82,0.82,0.82
86.35,0.16,-0.63,0.15,-0.63,0.63,0.48,0.41,0.79,0.78,0.79
87.22,0.16,-0.60,0.16,-0.59,0.59,0.45,0.36,0.75,0.75,0.75
88.09,0.16,-0.56,0.16,-0.55,0.55,0.41,0.31,0.71,0.72,0.72
88.97,0.16,-0.53,0.18,-0.51,0.51,0.37,0.26,0.66,0.68,0.68
89.86,0.16,-0.49,0.20,-0.45,0.45,0.33,0.21,0.61,0.65,0.65
90.76,0.16,-0.45,0.23,-0.39,0.39,0.30,0.16,0.54,0.62,0.61
91.66,0.23,-0.36,0.27,-0.31,0.31,0.26,0.11,0.54,0.58,0.59
92.58,0.29,-0.25,0.31,-0.24,0.24,0.22,0.06,0.53,0.55,0.54
93.51,0.34,-0.17,0.35,-0.17,0.17,0.19,0.01,0.51,0.52,0.51
94.44,0.40,-0.09,0.38,-0.10,0.10,0.15,-0.04,0.50,0.48,0.48
95.39,0.44,-0.02,0.42,-0.03,0.03,0.11,-0.09,0.47,0.45,0.46
96.34,0.46,0.04,0.46,0.04,-0.04,0.07,-0.14,0.42,0.42,0.42
97.30,0.52,0.13,0.49,0.10,-0.10,0.04,-0.18,0.42,0.39,0.39
98.28,0.63,0.27,0.52,0.16,-0.16,-0.00,-0.23,0.47,0.36,0.36
99.26,0.61,0.28,0.55,0.21,-0.21,-0.04,-0.28,0.39,0.33,0.33
100.25,0.60,0.30,0.57,0.27,-0.27,-0.07,-0.33,0.33,0.30,0.30
101.25,0.58,0.30,0.58,0.31,-0.31,-0.11,-0.38,0.27,0.27,0.27
102.27,0.57,0.32,0.59,0.35,-0.35,-0.15,-0.42,0.22,0.24,0.24
103.29,0.55,0.34,0.59,0.38,-0.38,-0.18,-0.47,0.17,0.21,0.20
104.32,0.55,0.36,0.59,0.41,-0.41,-0.22,-0.52,0.14,0.18,0.18
105.37,0.58,0.42,0.58,0.43,-0.43,-0.26,-0.56,0.14,0.15,0.16
106.42,0.58,0.45,0.58,0.46,-0.46,-0.29,-0.61,0.12,0.12,0.13
107.48,0.56,0.47,0.57,0.49,-0.49,-0.33,-0.65,0.07,0.08,0.09
108.56,0.58,0.53,0.56,0.51,-0.51,-0.37,-0.69,0.06,0.05,0.05
109.64,0.61,0.59,0.56,0.54,-0.54,-0.40,-0.74,0.06,0.01,0.02
110.74,0.59,0.61,0.57,0.58,-0.58,-0.44,-0.78,0.00,-0.02,-0.02
111.85,0.57,0.61,0.57,0.63,-0.63,-0.48,-0.82,-0.06,-0.05,-0.04
112.97,0.56,0.65,0.59,0.67,-0.67,-0.51,-0.86,-0.11,-0.08,-0.09
114.10,0.56,0.67,0.60,0.72,-0.72,-0.55,-0.89,-0.16,-0.11,-0.12
115.24,0.57,0.71,0.62,0.76,-0.76,-0.58,-0.93,-0.19,-0.14,-0.15
116.39,0.62,0.80,0.64,0.81,-0.81,-0.62,-0.96,-0.19,-0.17,-0.18
117.55,0.66,0.86,0.66,0.85,-0.85,-0.66,-1.00,-0.20,-0.19,-0.20
118.73,0.66,0.89,0.68,0.90,-0.90,-0.69,-1.03,-0.24,-0.22,-0.23
119.92,0.70,0.93,0.71,0.94,-0.94,-0.73,-1.06,-0.25,-0.24,-0.24
121.12,0.77,1.03,0.72,0.98,-0.98,-0.76,-1.09,-0.21,-0.26,-0.26
122.33,0.78,1.06,0.74,1.01,-1.01,-0.80,-1.11,-0.24,-0.27,-0.28
123.55,0.79,1.07,0.76,1.05,-1.05,-0.83,-1.14,-0.26,-0.29,-0.28
124.79,0.80,1.10,0.77,1.08,-1.08,-0.87,-1.16,-0.28,-0.30,-0.30
126.03,0.80,1.11,0.78,1.10,-1.10,-0.90,-1.18,-0.30,-0.32,-0.31
127.29,0.81,1.13,0.79,1.12,-1.12,-0.94,-1.20,-0.31,-0.33,-0.32
128.57,0.82,1.16,0.79,1.13,-1.13,-0.97,-1.21,-0.31,-0.34,-0.34
129.85,0.81,1.16,0.78,1.14,-1.14,-1.00,-1.23,-0.33,-0.36,-0.36
131.15,0.74,1.11,0.78,1.15,-1.15,-1.04,-1.24,-0.41,-0.37,-0.37
132.46,0.73,1.11,0.77,1.15,-1.15,-1.07,-1.25,-0.43,-0.38,-0.38
133.79,0.74,1.13,0.76,1.16,-1.16,-1.10,-1.26,-0.42,-0.39,-0.39
135.12,0.74,1.15,0.76,1.16,-1.16,-1.14,-1.27,-0.42,-0.41,-0.42
136.48,0.75,1.16,0.75,1.17,-1.17,-1.17,-1.28,-0.42,-0.42,-0.42
137.84,0.75,1.18,0.75,1.18,-1.18,-1.20,-1.29,-0.43,-0.43,-0.44
139.22,0.75,1.20,0.74,1.19,-1.19,-1.23,-1.29,-0.44,-0.44,-0.46
140.61,0.75,1.22,0.74,1.20,-1.20,-1.27,-1.30,-0.45,-0.46,-0.48
142.02,0.75,1.22,0.74,1.22,-1.22,-1.30,-1.30,-0.47,-0.48,-0.47
143.44,0.75,1.24,0.74,1.24,-1.24,-1.33,-1.31,-0.49,-0.50,-0.49
144.87,0.75,1.27,0.75,1.27,-1.27,-1.36,-1.31,-0.52,-0.52,-0.52
146.32,0.75,1.29,0.76,1.31,-1.31,-1.39,-1.31,-0.56,-0.55,-0.55
147.78,0.75,1.31,0.76,1.35,-1.35,-1.42,-1.32,-0.61,-0.59,-0.56
149.26,0.75,1.35,0.76,1.39,-1.39,-1.45,-1.32,-0.65,-0.63,-0.60
150.75,0.75,1.40,0.76,1.43,-1.43,-1.48,-1.32,-0.69,-0.68,-0.65
152.26,0.75,1.46,0.75,1.47,-1.47,-1.51,-1.33,-0.72,-0.73,-0.71
153.78,0.75,1.51,0.73,1.51,-1.51,-1.53,-1.33,-0.76,-0.78,-0.76
155.32,0.75,1.57,0.71,1.55,-1.55,-1.56,-1.34,-0.80,-0.84,-0.82
156.88,0.75,1.63,0.70,1.59,-1.59,-1.59,-1.34,-0.85,-0.90,-0.89
158.44,0.75,1.71,0.68,1.64,-1.64,-1.62,-1.35,-0.89,-0.96,-0.96
160.03,0.75,1.78,0.67,1.68,-1.68,-1.64,-1.35,-0.93,-1.01,-1.03
161.63,0.66,1.75,0.66,1.73,-1.73,-1.67,-1.36,-1.07,-1.07,-1.09
163.24,0.59,1.73,0.65,1.77,-1.77,-1.69,-1.37,-1.18,-1.12,-1.14
164.88,0.55,1.73,0.64,1.80,-1.80,-1.72,-1.38,-1.26,-1.16,-1.18
166.53,0.55,1.77,0.64,1.84,-1.84,-1.74,-1.39,-1.29,-1.20,-1.22
168.19,0.56,1.81,0.63,1.86,-1.86,-1.76,-1.40,-1.31,-1.23,-1.25
169.87,0.60,1.88,0.63,1.89,-1.89,-1.79,-1.42,-1.29,-1.25,-1.28
171.57,0.65,1.93,0.63,1.91,-1.91,-1.81,-1.43,-1.26,-1.27,-1.29
173.29,0.70,1.99,0.64,1.92,-1.92,-1.83,-1.44,-1.22,-1.28,-1.29
175.02,0.71,2.00,0.65,1.94,-1.94,-1.85,-1.46,-1.23,-1.29,-1.29
176.77,0.71,2.00,0.66,1.95,-1.95,-1.87,-1.48,-1.25,-1.29,-1.30
178.54,0.71,2.00,0.68,1.97,-1.97,-1.89,-1.50,-1.26,-1.29,-1.29
180.32,0.71,1.98,0.71,1.99,-1.99,-1.91,-1.52,-1.28,-1.29,-1.28
182.13,0.72,1.98,0.73,2.01,-2.01,-1.92,-1.54,-1.29,-1.28,-1.26
183.95,0.73,1.99,0.74,2.02,-2.02,-1.94,-1.56,-1.30,-1.28,-1.26
185.79,0.74,2.00,0.76,2.04,-2.04,-1.96,-1.58,-1.30,-1.28,-1.26
187.65,0.75,2.02,0.77,2.05,-2.05,-1.97,-1.61,-1.30,-1.28,-1.27
189.52,0.77,2.04,0.78,2.06,-2.06,-1.99,-1.63,-1.29,-1.29,-1.27
191.42,0.78,2.06,0.78,2.08,-2.08,-2.00,-1.66,-1.30,-1.29,-1.29
193.33,0.80,2.10,0.79,2.09,-2.09,-2.01,-1.69,-1.30,-1.30,-1.30
195.27,0.81,2.12,0.81,2.12,-2.12,-2.03,-1.72,-1.31,-1.31,-1.31
197.22,0.83,2.15,0.82,2.14,-2.14,-2.04,-1.75,-1.31,-1.32,-1.32
199.19,0.84,2.18,0.83,2.16,-2.16,-2.05,-1.78,-1.32,-1.34,-1.34
201.18,0.84,2.19,0.83,2.18,-2.18,-2.06,-1.81,-1.35,-1.35,-1.35
203.19,0.85,2.21,0.84,2.20,-2.20,-2.07,-1.84,-1.36,-1.37,-1.36
205.23,0.85,2.23,0.84,2.22,-2.22,-2.08,-1.87,-1.38,-1.38,-1.38
207.28,0.85,2.23,0.84,2.24,-2.24,-2.08,-1.90,-1.39,-1.40,-1.38
209.35,0.85,2.25,0.84,2.25,-2.25,-2.09,-1.93,-1.41,-1.41,-1.40
211.44,0.85,2.28,0.84,2.26,-2.26,-2.09,-1.96,-1.42,-1.42,-1.43
213.56,0.84,2.27,0.84,2.27,-2.27,-2.10,-2.00,-1.43,-1.43,-1.43
215.69,0.84,2.28,0.84,2.28,-2.28,-2.10,-2.03,-1.44,-1.44,-1.44
217.85,0.83,2.27,0.83,2.28,-2.28,-2.11,-2.06,-1.45,-1.45,-1.45
220.03,0.83,2.28,0.83,2.28,-2.28,-2.11,-2.09,-1.45,-1.45,-1.45
222.23,0.83,2.30,0.83,2.28,-2.28,-2.11,-2.11,-1.46,-1.45,-1.47
224.45,0.83,2.29,0.83,2.28,-2.28,-2.11,-2.14,-1.45,-1.45,-1.46
226.70,0.83,2.28,0.83,2.28,-2.28,-2.11,-2.17,-1.45,-1.45,-1.46
228.96,0.83,2.27,0.84,2.28,-2.28,-2.11,-2.19,-1.45,-1.44,-1.44
231.25,0.84,2.27,0.85,2.28,-2.28,-2.11,-2.21,-1.44,-1.43,-1.43
233.57,0.85,2.26,0.86,2.27,-2.27,-2.11,-2.23,-1.42,-1.41,-1.41
235.90,0.86,2.26,0.87,2.27,-2.27,-2.10,-2.25,-1.41,-1.40,-1.40
238.26,0.88,2.26,0.89,2.27,-2.27,-2.10,-2.26,-1.39,-1.38,-1.39
240.64,0.90,2.26,0.91,2.26,-2.26,-2.10,-2.27,-1.36,-1.35,-1.36
243.05,0.91,2.24,0.92,2.25,-2.25,-2.09,-2.28,-1.35,-1.33,-1.33
245.48,0.93,2.23,0.94,2.24,-2.24,-2.08,-2.28,-1.31,-1.30,-1.30
247.93,0.96,2.23,0.95,2.23,-2.23,-2.08,-2.29,-1.27,-1.28,-1.27
250.41,0.98,2.23,0.96,2.21,-2.21,-2.07,-2.29,-1.23,-1.25,-1.25
252.92,0.99,2.20,0.97,2.19,-2.19,-2.06,-2.28,-1.21,-1.23,-1.22
255.45,1.00,2.19,0.97,2.17,-2.17,-2.05,-2.28,-1.18,-1.20,-1.19
258.00,1.01,2.17,0.98,2.15,-2.15,-2.04,-2.27,-1.14,-1.17,-1.17
260.58,1.02,2.17,0.97,2.12,-2.12,-2.03,-2.25,-1.10,-1.15,-1.15
263.19,0.98,2.09,0.96,2.08,-2.08,-2.02,-2.24,-1.10,-1.12,-1.11
265.82,0.92,2.02,0.95,2.04,-2.04,-2.01,-2.22,-1.12,-1.09,-1.10
268.48,0.92,1.99,0.94,2.00,-2.00,-2.00,-2.20,-1.08,-1.06,-1.07
271.16,0.91,1.94,0.92,1.96,-1.96,-1.99,-2.17,-1.05,-1.04,-1.03
273.87,0.91,1.93,0.91,1.92,-1.92,-1.97,-2.15,-1.01,-1.01,-1.02
276.61,0.91,1.89,0.89,1.87,-1.87,-1.96,-2.12,-0.97,-0.98,-0.98
279.38,0.91,1.86,0.88,1.84,-1.84,-1.95,-2.09,-0.93,-0.95,-0.95
282.17,0.84,1.76,0.87,1.80,-1.80,-1.93,-2.06,-0.96,-0.93,-0.93
284.99,0.82,1.71,0.87,1.76,-1.76,-1.92,-2.03,-0.94,-0.90,-0.89
287.84,0.83,1.70,0.86,1.73,-1.73,-1.90,-1.99,-0.90,-0.86,-0.87
290.72,0.84,1.67,0.86,1.69,-1.69,-1.89,-1.96,-0.85,-0.83,-0.84
293.63,0.85,1.66,0.86,1.66,-1.66,-1.87,-1.92,-0.81,-0.80,-0.81
296.57,0.87,1.64,0.86,1.63,-1.63,-1.85,-1.89,-0.76,-0.77,-0.77
299.53,0.88,1.62,0.86,1.60,-1.60,-1.84,-1.85,-0.72,-0.74,-0.74
302.53,0.89,1.61,0.85,1.57,-1.57,-1.82,-1.81,-0.68,-0.72,-0.73
305.55,0.90,1.58,0.85,1.54,-1.54,-1.80,-1.78,-0.64,-0.69,-0.68
308.61,0.91,1.57,0.85,1.51,-1.51,-1.78,-1.74,-0.61,-0.66,-0.66
311.69,0.84,1.47,0.85,1.49,-1.49,-1.76,-1.71,-0.65,-0.64,-0.63
314.81,0.82,1.42,0.85,1.47,-1.47,-1.75,-1.67,-0.65,-0.61,-0.60
317.96,0.83,1.41,0.85,1.45,-1.45,-1.73,-1.64,-0.62,-0.59,-0.59
321.14,0.83,1.41,0.85,1.43,-1.43,-1.71,-1.60,-0.60,-0.57,-0.58
324.35,0.83,1.39,0.85,1.40,-1.40,-1.69,-1.57,-0.58,-0.56,-0.56
327.59,0.82,1.36,0.84,1.38,-1.38,-1.67,-1.53,-0.56,-0.54,-0.54
330.87,0.82,1.35,0.83,1.35,-1.35,-1.65,-1.50,-0.54,-0.53,-0.53
334.18,0.82,1.33,0.81,1.33,-1.33,-1.63,-1.47,-0.51,-0.51,-0.51
337.52,0.82,1.32,0.80,1.30,-1.30,-1.61,-1.44,-0.48,-0.50,-0.51
340.90,0.82,1.30,0.78,1.28,-1.28,-1.59,-1.41,-0.46,-0.49,-0.49
344.30,0.82,1.30,0.77,1.26,-1.26,-1.57,-1.38,-0.44,-0.49,-0.48
347.75,0.82,1.30,0.76,1.24,-1.24,-1.55,-1.35,-0.42,-0.48,-0.48
351.23,0.82,1.29,0.75,1.22,-1.22,-1.53,-1.33,-0.40,-0.47,-0.47
354.74,0.69,1.16,0.73,1.20,-1.20,-1.51,-1.30,-0.51,-0.47,-0.47
358.28,0.63,1.09,0.71,1.18,-1.18,-1.49,-1.28,-0.55,-0.46,-0.46
361.87,0.64,1.10,0.69,1.16,-1.16,-1.46,-1.26,-0.52,-0.46,-0.46
365.49,0.64,1.09,0.67,1.14,-1.14,-1.44,-1.23,-0.50,-0.46,-0.46
369.14,0.65,1.11,0.66,1.12,-1.12,-1.42,-1.21,-0.47,-0.46,-0.47
372.83,0.66,1.13,0.65,1.11,-1.11,-1.40,-1.19,-0.45,-0.46,-0.47
376.56,0.67,1.14,0.63,1.10,-1.10,-1.38,-1.17,-0.43,-0.46,-0.47
380.33,0.65,1.11,0.62,1.09,-1.09,-1.36,-1.16,-0.44,-0.47,-0.46
384.13,0.60,1.06,0.61,1.08,-1.08,-1.34,-1.14,-0.48,-0.47,-0.46
387.97,0.59,1.06,0.59,1.07,-1.07,-1.32,-1.12,-0.48,-0.47,-0.47
391.85,0.59,1.07,0.59,1.06,-1.06,-1.30,-1.11,-0.47,-0.48,-0.48
395.77,0.59,1.06,0.58,1.06,-1.06,-1.27,-1.09,-0.47,-0.48,-0.47
399.73,0.59,1.07,0.57,1.06,-1.06,-1.25,-1.08,-0.47,-0.49,-0.48
403.72,0.59,1.07,0.56,1.05,-1.05,-1.23,-1.07,-0.46,-0.49,-0.48
407.76,0.59,1.08,0.54,1.04,-1.04,-1.21,-1.05,-0.45,-0.50,-0.49
411.84,0.52,1.01,0.53,1.03,-1.03,-1.19,-1.04,-0.51,-0.50,-0.50
415.96,0.49,0.98,0.52,1.02,-1.02,-1.17,-1.03,-0.53,-0.50,-0.50
420.12,0.49,0.98,0.52,1.01,-1.01,-1.15,-1.02,-0.53,-0.50,-0.50
424.32,0.49,0.98,0.51,1.00,-1.00,-1.13,-1.01,-0.52,-0.49,-0.50
428.56,0.50,0.99,0.51,0.99,-0.99,-1.11,-1.00,-0.50,-0.48,-0.49
432.85,0.52,1.00,0.52,0.98,-0.98,-1.08,-0.99,-0.47,-0.46,-0.48
437.18,0.54,1.01,0.53,0.97,-0.97,-1.06,-0.98,-0.43,-0.44,-0.47
441.55,0.57,1.00,0.54,0.96,-0.96,-1.04,-0.97,-0.39,-0.42,-0.43
445.96,0.55,0.95,0.56,0.95,-0.95,-1.02,-0.96,-0.40,-0.39,-0.40
450.42,0.58,0.95,0.58,0.93,-0.93,-1.00,-0.96,-0.35,-0.35,-0.37
454.93,0.58,0.90,0.61,0.92,-0.92,-0.98,-0.95,-0.34,-0.31,-0.32
459.48,0.61,0.88,0.65,0.91,-0.91,-0.96,-0.94,-0.30,-0.26,-0.27
464.07,0.66,0.88,0.68,0.90,-0.90,-0.94,-0.93,-0.24,-0.22,-0.22
468.71,0.72,0.88,0.71,0.88,-0.88,-0.92,-0.92,-0.17,-0.17,-0.16
473.40,0.78,0.90,0.74,0.86,-0.86,-0.90,-0.91,-0.09,-0.12,-0.12
478.13,0.80,0.86,0.77,0.84,-0.84,-0.88,-0.90,-0.05,-0.07,-0.06
482.91,0.80,0.82,0.80,0.83,-0.83,-0.86,-0.89,-0.03,-0.03,-0.02
487.74,0.83,0.81,0.83,0.81,-0.81,-0.84,-0.88,0.02,0.02,0.02
492.62,0.86,0.79,0.85,0.80,-0.80,-0.82,-0.87,0.06,0.05,0.07
497.55,0.89,0.80,0.87,0.79,-0.79,-0.80,-0.86,0.10,0.08,0.09
502.52,0.91,0.79,0.89,0.79,-0.79,-0.78,-0.84,0.12,0.11,0.12
