frequency,raw,smoothed,error,error_smoothed,equalization,parametric_eq,fixed_band_eq,equalized_raw,equalized_smoothed,target
20.00,-1.47,-1.47,-4.94,-4.94,4.96,4.63,1.63,3.48,3.49,3.47
20.20,-1.45,-1.46,-4.95,-4.95,4.96,4.60,1.68,3.51,3.51,3.50
20.40,-1.43,-1.44,-4.96,-4.96,4.96,4.58,1.73,3.53,3.52,3.53
20.61,-1.41,-1.41,-4.96,-4.96,4.95,4.56,1.78,3.54,3.54,3.54
20.81,-1.38,-1.38,-4.96,-4.96,4.94,4.53,1.84,3.56,3.55,3.57
21.02,-1.35,-1.35,-4.96,-4.95,4.92,4.51,1.89,3.57,3.57,3.60
21.23,-1.30,-1.30,-4.92,-4.92,4.89,4.49,1.95,3.59,3.59,3.61
21.44,-1.24,-1.24,-4.86,-4.87,4.86,4.46,2.01,3.62,3.62,3.62
21.66,-1.17,-1.18,-4.81,-4.81,4.81,4.44,2.07,3.64,3.63,3.63
21.87,-1.11,-1.11,-4.74,-4.75,4.76,4.41,2.13,3.64,3.64,3.63
22.09,-1.05,-1.05,-4.69,-4.69,4.70,4.39,2.19,3.65,3.65,3.64
22.31,-0.99,-0.99,-4.63,-4.63,4.64,4.36,2.26,3.65,3.65,3.64
22.54,-0.94,-0.94,-4.58,-4.58,4.58,4.34,2.33,3.64,3.64,3.64
22.76,-0.89,-0.89,-4.53,-4.53,4.53,4.31,2.39,3.64,3.64,3.64
22.99,-0.85,-0.85,-4.48,-4.48,4.48,4.29,2.46,3.63,3.63,3.63
23.22,-0.81,-0.81,-4.44,-4.44,4.44,4.26,2.54,3.63,3.63,3.63
23.45,-0.77,-0.78,-4.40,-4.40,4.41,4.24,2.61,3.64,3.63,3.63
23.69,-0.74,-0.74,-4.37,-4.37,4.38,4.21,2.69,3.64,3.64,3.63
23.92,-0.72,-0.72,-4.35,-4.35,4.35,4.19,2.76,3.63,3.64,3.63
24.16,-0.69,-0.70,-4.33,-4.33,4.33,4.16,2.84,3.64,3.63,3.63
24.40,-0.68,-0.68,-4.32,-4.31,4.31,4.13,2.92,3.62,3.63,3.63
24.65,-0.66,-0.66,-4.29,-4.29,4.28,4.11,3.00,3.62,3.62,3.62
24.89,-0.64,-0.64,-4.26,-4.26,4.25,4.08,3.08,3.61,3.61,3.62
25.14,-0.61,-0.61,-4.23,-4.23,4.22,4.05,3.16,3.61,3.61,3.62
25.39,-0.57,-0.57,-4.19,-4.19,4.19,4.03,3.24,3.62,3.61,3.62
25.65,-0.53,-0.53,-4.15,-4.15,4.15,4.00,3.32,3.62,3.62,3.62
25.91,-0.49,-0.49,-4.10,-4.10,4.11,3.97,3.40,3.61,3.62,3.61
26.16,-0.44,-0.45,-4.05,-4.05,4.06,3.95,3.48,3.62,3.61,3.61
26.43,-0.40,-0.40,-4.01,-4.01,4.01,3.92,3.57,3.61,3.61,3.61
26.69,-0.36,-0.36,-3.97,-3.96,3.96,3.89,3.64,3.60,3.60,3.60
26.96,-0.31,-0.31,-3.92,-3.92,3.91,3.87,3.72,3.60,3.60,3.60
27.23,-0.26,-0.26,-3.86,-3.87,3.86,3.84,3.80,3.60,3.60,3.60
27.50,-0.21,-0.21,-3.81,-3.81,3.81,3.81,3.87,3.60,3.60,3.60
27.77,-0.16,-0.16,-3.75,-3.75,3.76,3.78,3.94,3.60,3.60,3.59
28.05,-0.11,-0.12,-3.70,-3.70,3.71,3.75,4.01,3.60,3.59,3.59
28.33,-0.08,-0.08,-3.66,-3.66,3.66,3.73,4.07,3.58,3.59,3.58
28.62,-0.04,-0.04,-3.62,-3.62,3.62,3.70,4.13,3.57,3.58,3.57
28.90,-0.00,-0.01,-3.58,-3.58,3.57,3.67,4.18,3.57,3.57,3.57
29.19,0.03,0.03,-3.53,-3.54,3.53,3.64,4.23,3.56,3.57,3.56
29.48,0.07,0.07,-3.50,-3.50,3.50,3.61,4.28,3.57,3.56,3.57
29.78,0.10,0.10,-3.46,-3.46,3.46,3.59,4.31,3.56,3.56,3.56
30.08,0.13,0.13,-3.43,-3.43,3.43,3.56,4.34,3.55,3.56,3.56
30.38,0.16,0.15,-3.39,-3.39,3.39,3.53,4.37,3.55,3.55,3.54
30.68,0.18,0.18,-3.36,-3.36,3.36,3.50,4.38,3.54,3.54,3.54
30.99,0.20,0.20,-3.33,-3.33,3.33,3.47,4.40,3.53,3.53,3.53
31.30,0.23,0.23,-3.30,-3.30,3.30,3.44,4.40,3.53,3.53,3.53
31.61,0.25,0.25,-3.28,-3.27,3.28,3.41,4.39,3.53,3.53,3.53
31.93,0.27,0.27,-3.25,-3.25,3.26,3.39,4.38,3.53,3.53,3.51
32.24,0.28,0.27,-3.22,-3.23,3.24,3.36,4.36,3.52,3.52,3.50
32.57,0.28,0.28,-3.22,-3.22,3.23,3.33,4.33,3.50,3.50,3.50
32.89,0.28,0.28,-3.22,-3.21,3.21,3.30,4.30,3.49,3.49,3.50
33.22,0.29,0.29,-3.20,-3.20,3.19,3.27,4.26,3.47,3.47,3.48
33.55,0.30,0.30,-3.18,-3.18,3.16,3.24,4.22,3.46,3.46,3.48
33.89,0.32,0.32,-3.15,-3.15,3.13,3.21,4.17,3.45,3.45,3.47
34.23,0.35,0.35,-3.12,-3.11,3.10,3.18,4.11,3.45,3.46,3.46
34.57,0.39,0.39,-3.06,-3.06,3.07,3.15,4.05,3.46,3.46,3.45
34.92,0.43,0.42,-3.01,-3.02,3.04,3.12,3.99,3.46,3.46,3.44
35.27,0.45,0.45,-2.99,-2.98,3.00,3.09,3.92,3.45,3.45,3.43
35.62,0.47,0.47,-2.95,-2.96,2.96,3.06,3.85,3.43,3.43,3.42
35.97,0.48,0.48,-2.93,-2.93,2.93,3.03,3.77,3.40,3.41,3.41
36.33,0.50,0.50,-2.91,-2.90,2.89,3.00,3.70,3.39,3.39,3.40
36.70,0.53,0.53,-2.86,-2.86,2.85,2.97,3.62,3.38,3.37,3.39
37.06,0.56,0.56,-2.82,-2.82,2.81,2.95,3.54,3.36,3.37,3.38
37.43,0.60,0.60,-2.77,-2.77,2.76,2.92,3.46,3.36,3.36,3.37
37.81,0.65,0.65,-2.71,-2.71,2.72,2.89,3.38,3.37,3.36,3.36
38.19,0.69,0.68,-2.66,-2.66,2.67,2.86,3.30,3.36,3.36,3.34
38.57,0.72,0.72,-2.62,-2.62,2.63,2.83,3.21,3.35,3.35,3.34
38.95,0.74,0.74,-2.59,-2.58,2.59,2.80,3.13,3.33,3.33,3.32
39.34,0.76,0.76,-2.55,-2.55,2.56,2.77,3.05,3.31,3.31,3.31
39.74,0.77,0.77,-2.53,-2.53,2.52,2.73,2.97,3.29,3.29,3.29
40.14,0.78,0.78,-2.51,-2.50,2.50,2.70,2.89,3.27,3.28,3.29
40.54,0.80,0.79,-2.47,-2.48,2.47,2.67,2.81,3.27,3.27,3.27
40.94,0.81,0.81,-2.46,-2.45,2.45,2.64,2.74,3.26,3.26,3.27
41.35,0.83,0.83,-2.42,-2.42,2.43,2.61,2.66,3.26,3.26,3.25
41.76,0.85,0.84,-2.40,-2.40,2.42,2.58,2.59,3.26,3.26,3.24
42.18,0.85,0.85,-2.39,-2.39,2.40,2.55,2.52,3.24,3.24,3.24
42.60,0.85,0.85,-2.37,-2.38,2.37,2.52,2.45,3.22,3.22,3.22
43.03,0.85,0.85,-2.37,-2.36,2.35,2.49,2.38,3.20,3.20,3.21
43.46,0.86,0.86,-2.34,-2.34,2.32,2.46,2.31,3.18,3.18,3.20
43.90,0.87,0.87,-2.30,-2.30,2.29,2.43,2.24,3.16,3.16,3.17
44.33,0.90,0.90,-2.25,-2.25,2.25,2.40,2.18,3.15,3.15,3.15
44.78,0.93,0.93,-2.21,-2.21,2.21,2.36,2.12,3.14,3.14,3.13
45.23,0.96,0.95,-2.16,-2.16,2.17,2.33,2.06,3.13,3.13,3.11
45.68,0.98,0.98,-2.12,-2.12,2.13,2.30,2.00,3.11,3.11,3.10
46.13,1.00,1.00,-2.08,-2.08,2.08,2.27,1.94,3.08,3.09,3.08
46.60,1.03,1.03,-2.04,-2.04,2.04,2.24,1.89,3.07,3.06,3.07
47.06,1.06,1.05,-1.99,-2.00,1.99,2.21,1.84,3.05,3.04,3.05
47.53,1.08,1.08,-1.95,-1.95,1.94,2.17,1.78,3.02,3.02,3.03
48.01,1.11,1.11,-1.91,-1.90,1.89,2.14,1.73,3.00,3.00,3.02
48.49,1.14,1.14,-1.85,-1.85,1.84,2.11,1.68,2.98,2.98,2.99
48.97,1.18,1.18,-1.78,-1.78,1.79,2.07,1.64,2.97,2.96,2.96
49.46,1.21,1.21,-1.72,-1.72,1.74,2.04,1.59,2.94,2.94,2.93
49.96,1.24,1.23,-1.66,-1.67,1.68,2.01,1.55,2.92,2.91,2.89
50.46,1.24,1.24,-1.64,-1.64,1.63,1.97,1.50,2.87,2.87,2.88
50.96,1.25,1.25,-1.61,-1.60,1.59,1.94,1.46,2.84,2.84,2.86
51.47,1.27,1.27,-1.56,-1.56,1.55,1.91,1.42,2.82,2.82,2.83
51.99,1.31,1.30,-1.49,-1.51,1.51,1.87,1.38,2.82,2.81,2.80
52.51,1.32,1.31,-1.47,-1.47,1.48,1.84,1.34,2.80,2.79,2.79
53.03,1.32,1.32,-1.45,-1.44,1.45,1.80,1.30,2.76,2.77,2.76
53.56,1.32,1.32,-1.42,-1.42,1.42,1.77,1.27,2.73,2.73,2.74
54.10,1.32,1.32,-1.40,-1.39,1.39,1.73,1.23,2.70,2.71,2.71
54.64,1.33,1.33,-1.36,-1.36,1.36,1.70,1.19,2.69,2.69,2.69
55.18,1.34,1.33,-1.32,-1.33,1.33,1.66,1.16,2.67,2.67,2.66
55.74,1.34,1.33,-1.30,-1.30,1.31,1.62,1.12,2.64,2.64,2.63
56.29,1.33,1.33,-1.29,-1.28,1.28,1.59,1.09,2.61,2.61,2.62
56.86,1.32,1.32,-1.27,-1.26,1.25,1.55,1.05,2.57,2.58,2.59
57.42,1.33,1.33,-1.23,-1.23,1.23,1.51,1.02,2.56,2.56,2.56
58.00,1.35,1.34,-1.19,-1.19,1.20,1.47,0.99,2.55,2.55,2.54
58.58,1.36,1.35,-1.16,-1.17,1.18,1.44,0.95,2.54,2.53,2.52
59.16,1.36,1.35,-1.14,-1.15,1.15,1.40,0.92,2.51,2.50,2.50
59.76,1.34,1.35,-1.14,-1.13,1.12,1.36,0.88,2.46,2.47,2.48
60.35,1.34,1.35,-1.11,-1.10,1.09,1.32,0.85,2.43,2.44,2.45
60.96,1.36,1.35,-1.07,-1.07,1.06,1.28,0.81,2.42,2.41,2.42
61.57,1.36,1.36,-1.02,-1.03,1.03,1.24,0.78,2.39,2.39,2.38
62.18,1.36,1.36,-0.99,-0.99,1.01,1.20,0.74,2.37,2.36,2.35
62.80,1.35,1.35,-0.98,-0.97,0.98,1.16,0.71,2.33,2.33,2.32
63.43,1.34,1.34,-0.95,-0.95,0.95,1.11,0.67,2.29,2.29,2.29
64.07,1.33,1.33,-0.93,-0.93,0.93,1.07,0.64,2.26,2.26,2.26
64.71,1.33,1.33,-0.91,-0.91,0.90,1.03,0.60,2.23,2.23,2.24
65.35,1.33,1.33,-0.88,-0.88,0.88,0.98,0.56,2.20,2.21,2.21
66.01,1.34,1.33,-0.84,-0.85,0.85,0.94,0.52,2.19,2.18,2.18
66.67,1.33,1.33,-0.82,-0.82,0.82,0.90,0.48,2.15,2.15,2.15
67.33,1.33,1.33,-0.79,-0.79,0.78,0.85,0.44,2.11,2.12,2.12
68.01,1.34,1.34,-0.75,-0.75,0.75,0.80,0.40,2.08,2.09,2.09
68.69,1.36,1.35,-0.70,-0.71,0.70,0.76,0.36,2.06,2.06,2.06
69.37,1.37,1.37,-0.66,-0.66,0.66,0.71,0.32,2.03,2.03,2.03
70.07,1.38,1.38,-0.62,-0.62,0.62,0.66,0.28,1.99,2.00,1.99
70.77,1.40,1.40,-0.57,-0.57,0.57,0.62,0.24,1.97,1.97,1.97
71.48,1.42,1.41,-0.52,-0.52,0.52,0.57,0.20,1.94,1.94,1.94
72.19,1.43,1.43,-0.47,-0.47,0.48,0.52,0.15,1.91,1.91,1.90
72.91,1.44,1.44,-0.43,-0.43,0.44,0.47,0.11,1.87,1.87,1.87
73.64,1.44,1.44,-0.39,-0.39,0.39,0.42,0.07,1.83,1.83,1.83
74.38,1.45,1.45,-0.35,-0.35,0.35,0.37,0.02,1.79,1.79,1.80
75.12,1.46,1.46,-0.30,-0.31,0.30,0.32,-0.02,1.76,1.76,1.76
75.87,1.47,1.47,-0.26,-0.26,0.26,0.26,-0.07,1.73,1.73,1.73
76.63,1.49,1.49,-0.21,-0.21,0.21,0.21,-0.11,1.70,1.70,1.70
77.40,1.51,1.50,-0.16,-0.16,0.17,0.16,-0.16,1.67,1.67,1.67
78.17,1.52,1.52,-0.11,-0.12,0.12,0.10,-0.21,1.64,1.64,1.63
78.95,1.54,1.54,-0.07,-0.07,0.07,0.05,-0.25,1.61,1.61,1.61
79.74,1.55,1.55,-0.03,-0.02,0.02,-0.00,-0.30,1.57,1.57,1.57
80.54,1.57,1.56,0.03,0.03,-0.03,-0.06,-0.35,1.54,1.54,1.54
81.35,1.58,1.58,0.07,0.07,-0.08,-0.12,-0.40,1.50,1.50,1.50
82.16,1.60,1.60,0.13,0.13,-0.13,-0.17,-0.45,1.47,1.47,1.47
82.98,1.62,1.61,0.17,0.18,-0.18,-0.23,-0.50,1.44,1.44,1.44
83.81,1.63,1.63,0.23,0.23,-0.23,-0.29,-0.55,1.40,1.40,1.40
84.65,1.65,1.64,0.29,0.28,-0.28,-0.34,-0.60,1.37,1.36,1.36
85.50,1.66,1.66,0.33,0.33,-0.34,-0.40,-0.65,1.32,1.32,1.33
86.35,1.68,1.68,0.39,0.39,-0.39,-0.46,-0.70,1.29,1.29,1.29
87.22,1.70,1.70,0.45,0.44,-0.45,-0.52,-0.75,1.25,1.25,1.25
88.09,1.72,1.72,0.51,0.50,-0.51,-0.58,-0.81,1.21,1.21,1.21
88.97,1.74,1.74,0.56,0.56,-0.56,-0.64,-0.86,1.17,1.17,1.18
89.86,1.76,1.76,0.62,0.62,-0.62,-0.70,-0.92,1.13,1.14,1.14
90.76,1.78,1.78,0.69,0.69,-0.68,-0.76,-0.97,1.09,1.09,1.09
91.66,1.80,1.80,0.75,0.75,-0.74,-0.81,-1.03,1.06,1.05,1.05
92.58,1.81,1.81,0.81,0.81,-0.80,-0.87,-1.08,1.00,1.01,1.00
93.51,1.83,1.83,0.86,0.86,-0.86,-0.93,-1.14,0.96,0.96,0.97
94.44,1.84,1.84,0.92,0.92,-0.92,-0.99,-1.20,0.91,0.92,0.92
95.39,1.86,1.86,0.98,0.98,-0.98,-1.05,-1.26,0.87,0.87,0.88
96.34,1.87,1.87,1.04,1.04,-1.04,-1.11,-1.32,0.82,0.83,0.82
97.30,1.89,1.88,1.11,1.11,-1.10,-1.17,-1.37,0.78,0.78,0.78
98.28,1.90,1.90,1.17,1.17,-1.16,-1.23,-1.43,0.74,0.74,0.73
99.26,1.91,1.91,1.22,1.22,-1.22,-1.29,-1.49,0.68,0.69,0.69
100.25,1.93,1.92,1.29,1.28,-1.28,-1.35,-1.55,0.64,0.64,0.64
101.25,1.93,1.93,1.33,1.34,-1.34,-1.41,-1.61,0.59,0.59,0.59
102.27,1.95,1.95,1.40,1.40,-1.40,-1.47,-1.68,0.55,0.54,0.55
103.29,1.96,1.96,1.47,1.46,-1.46,-1.53,-1.74,0.50,0.50,0.49
104.32,1.98,1.98,1.52,1.52,-1.52,-1.59,-1.80,0.46,0.46,0.46
105.37,1.99,1.99,1.58,1.58,-1.58,-1.65,-1.86,0.41,0.41,0.41
106.42,2.00,2.00,1.63,1.63,-1.63,-1.70,-1.92,0.36,0.36,0.36
107.48,2.01,2.01,1.69,1.69,-1.69,-1.76,-1.98,0.31,0.31,0.32
108.56,2.02,2.02,1.76,1.75,-1.75,-1.82,-2.04,0.26,0.26,0.26
109.64,2.03,2.03,1.81,1.81,-1.81,-1.87,-2.09,0.21,0.21,0.21
110.74,2.04,2.04,1.87,1.87,-1.87,-1.93,-2.15,0.16,0.16,0.17
111.85,2.05,2.05,1.92,1.93,-1.94,-1.99,-2.21,0.11,0.11,0.12
112.97,2.06,2.06,2.00,2.00,-2.00,-2.04,-2.26,0.06,0.06,0.06
114.10,2.08,2.07,2.07,2.06,-2.06,-2.10,-2.31,0.02,0.01,0.01
115.24,2.09,2.08,2.13,2.13,-2.12,-2.15,-2.36,-0.04,-0.04,-0.04
116.39,2.09,2.09,2.18,2.19,-2.19,-2.20,-2.41,-0.10,-0.09,-0.10
117.55,2.10,2.10,2.25,2.25,-2.25,-2.26,-2.46,-0.15,-0.15,-0.15
118.73,2.11,2.11,2.31,2.31,-2.31,-2.31,-2.51,-0.20,-0.20,-0.20
119.92,2.12,2.12,2.37,2.37,-2.37,-2.36,-2.55,-0.25,-0.25,-0.25
121.12,2.13,2.13,2.43,2.43,-2.43,-2.41,-2.59,-0.30,-0.30,-0.30
122.33,2.14,2.14,2.49,2.48,-2.48,-2.47,-2.63,-0.34,-0.35,-0.35
123.55,2.14,2.14,2.53,2.54,-2.54,-2.52,-2.66,-0.40,-0.40,-0.39
124.79,2.15,2.15,2.59,2.59,-2.59,-2.57,-2.69,-0.44,-0.45,-0.45
126.03,2.15,2.15,2.64,2.64,-2.65,-2.62,-2.72,-0.50,-0.50,-0.50
127.29,2.15,2.15,2.69,2.70,-2.70,-2.67,-2.75,-0.55,-0.55,-0.55
128.57,2.15,2.15,2.75,2.75,-2.75,-2.73,-2.78,-0.60,-0.60,-0.61
129.85,2.15,2.15,2.80,2.80,-2.80,-2.78,-2.80,-0.65,-0.65,-0.65
131.15,2.15,2.15,2.85,2.85,-2.85,-2.83,-2.82,-0.70,-0.70,-0.70
132.46,2.16,2.15,2.91,2.90,-2.90,-2.88,-2.84,-0.75,-0.75,-0.75
133.79,2.16,2.16,2.94,2.95,-2.95,-2.93,-2.85,-0.79,-0.79,-0.79
135.12,2.16,2.16,3.00,3.00,-3.00,-2.98,-2.87,-0.84,-0.84,-0.84
136.48,2.17,2.16,3.05,3.04,-3.05,-3.04,-2.88,-0.88,-0.88,-0.88
137.84,2.17,2.17,3.09,3.10,-3.09,-3.09,-2.89,-0.92,-0.92,-0.92
139.22,2.17,2.17,3.14,3.14,-3.13,-3.14,-2.91,-0.97,-0.96,-0.98
140.61,2.17,2.16,3.19,3.17,-3.17,-3.19,-2.92,-1.01,-1.01,-1.02
142.02,2.16,2.16,3.20,3.21,-3.21,-3.24,-2.93,-1.05,-1.05,-1.04
143.44,2.16,2.16,3.24,3.25,-3.25,-3.29,-2.94,-1.09,-1.08,-1.08
144.87,2.17,2.16,3.29,3.28,-3.28,-3.34,-2.95,-1.11,-1.12,-1.12
146.32,2.16,2.16,3.32,3.31,-3.31,-3.39,-2.96,-1.15,-1.15,-1.16
147.78,2.15,2.15,3.34,3.34,-3.34,-3.44,-2.97,-1.19,-1.19,-1.19
149.26,2.14,2.14,3.37,3.37,-3.37,-3.48,-2.98,-1.23,-1.23,-1.23
150.75,2.13,2.13,3.40,3.40,-3.40,-3.53,-2.99,-1.27,-1.27,-1.28
152.26,2.12,2.12,3.43,3.43,-3.43,-3.58,-3.00,-1.31,-1.31,-1.31
153.78,2.11,2.11,3.45,3.46,-3.46,-3.62,-3.01,-1.35,-1.35,-1.35
155.32,2.11,2.10,3.50,3.49,-3.49,-3.66,-3.03,-1.38,-1.39,-1.39
156.88,2.09,2.09,3.51,3.52,-3.52,-3.71,-3.05,-1.43,-1.43,-1.43
158.44,2.08,2.08,3.55,3.55,-3.55,-3.75,-3.07,-1.47,-1.47,-1.47
160.03,2.08,2.07,3.59,3.58,-3.58,-3.79,-3.09,-1.51,-1.51,-1.51
161.63,2.07,2.07,3.62,3.62,-3.62,-3.83,-3.11,-1.55,-1.55,-1.55
163.24,2.06,2.06,3.65,3.65,-3.65,-3.87,-3.13,-1.59,-1.59,-1.59
164.88,2.07,2.06,3.69,3.69,-3.69,-3.90,-3.16,-1.62,-1.63,-1.62
166.53,2.06,2.06,3.72,3.72,-3.73,-3.94,-3.19,-1.67,-1.67,-1.66
168.19,2.06,2.06,3.76,3.76,-3.77,-3.97,-3.22,-1.71,-1.70,-1.70
169.87,2.08,2.07,3.82,3.81,-3.81,-4.01,-3.26,-1.73,-1.74,-1.74
171.57,2.08,2.08,3.85,3.85,-3.85,-4.04,-3.29,-1.77,-1.77,-1.78
173.29,2.09,2.09,3.90,3.90,-3.90,-4.07,-3.33,-1.81,-1.81,-1.81
175.02,2.09,2.09,3.93,3.94,-3.94,-4.10,-3.38,-1.86,-1.85,-1.85
176.77,2.10,2.10,3.99,3.99,-3.99,-4.13,-3.42,-1.90,-1.90,-1.89
178.54,2.11,2.11,4.04,4.04,-4.04,-4.15,-3.47,-1.94,-1.94,-1.94
180.32,2.12,2.12,4.09,4.09,-4.09,-4.18,-3.52,-1.98,-1.97,-1.97
182.13,2.15,2.14,4.15,4.14,-4.14,-4.21,-3.57,-2.00,-2.00,-2.00
183.95,2.16,2.16,4.20,4.20,-4.19,-4.23,-3.62,-2.04,-2.03,-2.04
185.79,2.17,2.17,4.24,4.25,-4.24,-4.25,-3.68,-2.08,-2.07,-2.07
187.65,2.19,2.18,4.30,4.29,-4.29,-4.28,-3.74,-2.10,-2.11,-2.12
189.52,2.19,2.19,4.33,4.33,-4.34,-4.30,-3.81,-2.15,-2.15,-2.15
191.42,2.20,2.20,4.37,4.38,-4.38,-4.32,-3.87,-2.19,-2.18,-2.17
193.33,2.22,2.22,4.42,4.42,-4.43,-4.34,-3.94,-2.21,-2.21,-2.20
195.27,2.24,2.23,4.47,4.47,-4.47,-4.35,-4.01,-2.23,-2.23,-2.23
197.22,2.25,2.25,4.51,4.51,-4.50,-4.37,-4.08,-2.26,-2.26,-2.26
199.19,2.26,2.25,4.55,4.54,-4.54,-4.39,-4.15,-2.28,-2.29,-2.30
201.18,2.26,2.26,4.57,4.58,-4.57,-4.40,-4.23,-2.32,-2.31,-2.31
203.19,2.27,2.27,4.60,4.61,-4.61,-4.42,-4.30,-2.34,-2.33,-2.33
205.23,2.29,2.28,4.64,4.63,-4.64,-4.43,-4.38,-2.35,-2.35,-2.36
207.28,2.30,2.29,4.66,4.66,-4.66,-4.44,-4.45,-2.37,-2.37,-2.36
209.35,2.30,2.30,4.68,4.69,-4.69,-4.45,-4.53,-2.39,-2.39,-2.38
211.44,2.31,2.31,4.72,4.71,-4.71,-4.47,-4.61,-2.40,-2.40,-2.41
213.56,2.32,2.32,4.73,4.73,-4.73,-4.48,-4.69,-2.41,-2.41,-2.41
215.69,2.33,2.33,4.74,4.75,-4.74,-4.48,-4.76,-2.42,-2.42,-2.42
217.85,2.34,2.33,4.77,4.76,-4.76,-4.49,-4.84,-2.42,-2.43,-2.43
220.03,2.33,2.33,4.77,4.77,-4.77,-4.50,-4.91,-2.44,-2.44,-2.44
222.23,2.33,2.33,4.78,4.78,-4.78,-4.51,-4.98,-2.45,-2.45,-2.45
224.45,2.34,2.34,4.78,4.79,-4.79,-4.51,-5.05,-2.45,-2.45,-2.44
226.70,2.35,2.35,4.79,4.79,-4.80,-4.52,-5.11,-2.45,-2.45,-2.45
228.96,2.36,2.36,4.80,4.80,-4.80,-4.52,-5.18,-2.45,-2.45,-2.45
231.25,2.37,2.37,4.80,4.81,-4.81,-4.53,-5.23,-2.44,-2.44,-2.44
233.57,2.38,2.38,4.81,4.82,-4.81,-4.53,-5.28,-2.43,-2.43,-2.44
235.90,2.39,2.38,4.82,4.82,-4.82,-4.54,-5.33,-2.43,-2.43,-2.44
238.26,2.39,2.39,4.82,4.82,-4.82,-4.54,-5.37,-2.43,-2.43,-2.44
240.64,2.39,2.39,4.81,4.82,-4.82,-4.54,-5.40,-2.43,-2.43,-2.42
243.05,2.40,2.40,4.81,4.81,-4.82,-4.54,-5.43,-2.42,-2.42,-2.41
245.48,2.41,2.41,4.81,4.81,-4.81,-4.54,-5.45,-2.41,-2.41,-2.40
247.93,2.42,2.42,4.81,4.81,-4.81,-4.54,-5.47,-2.39,-2.39,-2.39
250.41,2.43,2.43,4.82,4.81,-4.81,-4.54,-5.47,-2.38,-2.38,-2.39
252.92,2.44,2.44,4.80,4.80,-4.80,-4.54,-5.47,-2.36,-2.36,-2.37
255.45,2.45,2.44,4.79,4.79,-4.79,-4.54,-5.46,-2.35,-2.35,-2.34
258.00,2.45,2.45,4.78,4.78,-4.79,-4.53,-5.45,-2.34,-2.33,-2.33
260.58,2.47,2.47,4.78,4.78,-4.78,-4.53,-5.43,-2.31,-2.31,-2.32
263.19,2.48,2.48,4.77,4.77,-4.77,-4.53,-5.40,-2.29,-2.29,-2.29
265.82,2.49,2.48,4.77,4.76,-4.76,-4.52,-5.37,-2.27,-2.27,-2.28
268.48,2.49,2.49,4.74,4.75,-4.75,-4.52,-5.33,-2.26,-2.26,-2.26
271.16,2.50,2.50,4.73,4.74,-4.74,-4.51,-5.29,-2.24,-2.24,-2.23
273.87,2.52,2.51,4.73,4.73,-4.73,-4.51,-5.24,-2.21,-2.22,-2.22
276.61,2.53,2.52,4.72,4.72,-4.72,-4.50,-5.19,-2.19,-2.19,-2.19
279.38,2.53,2.53,4.71,4.71,-4.71,-4.49,-5.13,-2.18,-2.18,-2.18
282.17,2.54,2.54,4.70,4.70,-4.70,-4.48,-5.07,-2.16,-2.16,-2.16
284.99,2.55,2.55,4.69,4.69,-4.69,-4.48,-5.01,-2.14,-2.14,-2.14
287.84,2.56,2.56,4.68,4.68,-4.68,-4.47,-4.95,-2.12,-2.12,-2.12
290.72,2.58,2.57,4.67,4.67,-4.67,-4.46,-4.88,-2.10,-2.10,-2.10
293.63,2.59,2.59,4.67,4.67,-4.67,-4.45,-4.82,-2.08,-2.08,-2.08
296.57,2.60,2.60,4.65,4.66,-4.66,-4.44,-4.75,-2.06,-2.06,-2.06
299.53,2.61,2.61,4.65,4.65,-4.65,-4.43,-4.68,-2.04,-2.04,-2.04
302.53,2.63,2.63,4.65,4.64,-4.64,-4.42,-4.62,-2.01,-2.02,-2.02
305.55,2.65,2.64,4.64,4.64,-4.64,-4.41,-4.55,-1.99,-1.99,-1.99
308.61,2.66,2.66,4.63,4.63,-4.63,-4.40,-4.49,-1.97,-1.97,-1.97
311.69,2.68,2.68,4.62,4.62,-4.62,-4.38,-4.42,-1.94,-1.94,-1.94
314.81,2.70,2.70,4.61,4.61,-4.62,-4.37,-4.36,-1.92,-1.92,-1.91
317.96,2.72,2.71,4.61,4.61,-4.61,-4.36,-4.30,-1.89,-1.90,-1.89
321.14,2.73,2.73,4.60,4.60,-4.61,-4.34,-4.24,-1.88,-1.88,-1.87
324.35,2.75,2.75,4.61,4.60,-4.60,-4.33,-4.18,-1.86,-1.85,-1.86
327.59,2.77,2.77,4.60,4.60,-4.60,-4.31,-4.13,-1.83,-1.83,-1.83
330.87,2.79,2.79,4.60,4.60,-4.60,-4.30,-4.08,-1.81,-1.81,-1.81
334.18,2.80,2.80,4.59,4.60,-4.59,-4.28,-4.03,-1.80,-1.79,-1.80
337.52,2.82,2.82,4.60,4.59,-4.59,-4.27,-3.98,-1.77,-1.77,-1.78
340.90,2.83,2.83,4.58,4.58,-4.58,-4.25,-3.94,-1.76,-1.75,-1.75
344.30,2.85,2.84,4.58,4.58,-4.58,-4.23,-3.90,-1.73,-1.73,-1.73
347.75,2.85,2.85,4.56,4.57,-4.57,-4.22,-3.86,-1.72,-1.72,-1.72
351.23,2.86,2.86,4.56,4.56,-4.56,-4.20,-3.83,-1.70,-1.70,-1.70
354.74,2.87,2.87,4.55,4.55,-4.55,-4.18,-3.80,-1.68,-1.68,-1.68
358.28,2.88,2.88,4.54,4.54,-4.54,-4.16,-3.77,-1.67,-1.67,-1.66
361.87,2.89,2.89,4.53,4.53,-4.53,-4.14,-3.74,-1.65,-1.65,-1.64
365.49,2.89,2.89,4.51,4.52,-4.52,-4.12,-3.72,-1.64,-1.63,-1.63
369.14,2.90,2.90,4.52,4.51,-4.51,-4.10,-3.70,-1.61,-1.62,-1.62
372.83,2.90,2.89,4.50,4.50,-4.50,-4.08,-3.68,-1.60,-1.60,-1.60
376.56,2.89,2.89,4.48,4.48,-4.47,-4.06,-3.67,-1.59,-1.58,-1.59
380.33,2.88,2.88,4.44,4.45,-4.44,-4.04,-3.66,-1.57,-1.56,-1.56
384.13,2.87,2.86,4.42,4.42,-4.41,-4.02,-3.65,-1.54,-1.54,-1.56
387.97,2.84,2.84,4.38,4.38,-4.36,-4.00,-3.64,-1.52,-1.52,-1.55
391.85,2.80,2.80,4.34,4.33,-4.32,-3.97,-3.64,-1.52,-1.52,-1.54
395.77,2.76,2.75,4.28,4.28,-4.27,-3.95,-3.64,-1.52,-1.52,-1.52
399.73,2.71,2.71,4.22,4.22,-4.24,-3.93,-3.64,-1.53,-1.53,-1.51
403.72,2.67,2.67,4.17,4.17,-4.21,-3.90,-3.64,-1.54,-1.54,-1.50
407.76,2.66,2.66,4.15,4.16,-4.19,-3.88,-3.64,-1.54,-1.53,-1.49
411.84,2.68,2.68,4.15,4.16,-4.19,-3.85,-3.65,-1.51,-1.50,-1.48
415.96,2.73,2.72,4.19,4.19,-4.19,-3.83,-3.65,-1.46,-1.47,-1.47
420.12,2.76,2.75,4.22,4.21,-4.20,-3.80,-3.66,-1.44,-1.44,-1.46
424.32,2.78,2.78,4.23,4.23,-4.21,-3.77,-3.67,-1.43,-1.43,-1.45
428.56,2.79,2.79,4.23,4.23,-4.21,-3.75,-3.67,-1.42,-1.42,-1.44
432.85,2.79,2.79,4.22,4.22,-4.21,-3.72,-3.68,-1.42,-1.42,-1.43
437.18,2.79,2.78,4.21,4.20,-4.20,-3.69,-3.69,-1.41,-1.41,-1.42
441.55,2.77,2.77,4.17,4.18,-4.17,-3.66,-3.69,-1.40,-1.40,-1.40
445.96,2.75,2.74,4.14,4.14,-4.13,-3.63,-3.70,-1.38,-1.39,-1.39
450.42,2.71,2.71,4.09,4.09,-4.09,-3.60,-3.70,-1.38,-1.38,-1.38
454.93,2.66,2.67,4.02,4.04,-4.04,-3.57,-3.71,-1.38,-1.37,-1.37
459.48,2.63,2.62,3.98,3.98,-3.98,-3.54,-3.71,-1.36,-1.36,-1.36
464.07,2.59,2.58,3.93,3.92,-3.93,-3.51,-3.70,-1.34,-1.35,-1.34
468.71,2.54,2.54,3.86,3.87,-3.87,-3.48,-3.70,-1.33,-1.33,-1.32
473.40,2.51,2.51,3.82,3.81,-3.82,-3.45,-3.69,-1.31,-1.31,-1.31
478.13,2.47,2.47,3.76,3.76,-3.76,-3.42,-3.68,-1.29,-1.29,-1.29
482.91,2.44,2.44,3.72,3.71,-3.71,-3.38,-3.67,-1.27,-1.27,-1.28
487.74,2.40,2.40,3.66,3.66,-3.66,-3.35,-3.65,-1.26,-1.26,-1.26
492.62,2.36,2.36,3.60,3.60,-3.60,-3.32,-3.63,-1.25,-1.25,-1.24
497.55,2.32,2.32,3.55,3.55,-3.55,-3.28,-3.60,-1.23,-1.23,-1.23
502.52,2.28,2.28,3.49,3.49,-3.50,-3.25,-3.57,-1.22,-1.22,-1.21
507.55,2.24,2.24,3.44,3.44,-3.44,-3.21,-3.54,-1.20,-1.20,-1.20
512.62,2.21,2.20,3.39,3.38,-3.38,-3.17,-3.50,-1.17,-1.18,-1.18
