frequency,raw,error,smoothed,error_smoothed,equalization,parametric_eq,equalized_raw,equalized_smoothed,target
20,-9.54,-9.28,-9.54,-9.28,6.00,1.98,-3.54,-3.54,-0.26
21,-9.06,-8.80,-8.98,-8.72,6.00,2.28,-3.06,-2.98,-0.26
22,-8.36,-8.10,-8.45,-8.19,6.00,2.61,-2.36,-2.45,-0.26
23,-7.89,-7.63,-7.95,-7.68,6.00,2.97,-1.89,-1.95,-0.27
24,-7.46,-7.19,-7.46,-7.19,6.00,3.34,-1.46,-1.46,-0.27
25,-7.03,-6.76,-7.00,-6.73,5.93,3.73,-1.10,-1.07,-0.27
26,-6.55,-6.28,-6.57,-6.29,5.79,4.10,-0.76,-0.77,-0.27
27,-6.17,-5.89,-6.15,-5.87,5.59,4.45,-0.58,-0.56,-0.28
28,-5.74,-5.46,-5.76,-5.48,5.34,4.76,-0.40,-0.42,-0.28
29,-5.45,-5.17,-5.39,-5.10,5.06,4.99,-0.39,-0.33,-0.29
30,-4.97,-4.68,-5.04,-4.75,4.75,5.14,-0.23,-0.29,-0.29
31,-4.71,-4.42,-4.71,-4.41,4.41,5.19,-0.30,-0.30,-0.30
32,-4.41,-4.11,-4.40,-4.10,4.10,5.16,-0.32,-0.30,-0.30
33,-4.11,-3.80,-4.11,-3.80,3.80,5.04,-0.31,-0.31,-0.31
34,-3.84,-3.53,-3.84,-3.52,3.52,4.86,-0.32,-0.32,-0.32
35,-3.54,-3.22,-3.59,-3.27,3.27,4.63,-0.28,-0.32,-0.32
36,-3.37,-3.04,-3.35,-3.02,3.02,4.38,-0.35,-0.33,-0.33
37,-3.15,-2.81,-3.14,-2.80,2.80,4.11,-0.36,-0.34,-0.34
38,-2.94,-2.59,-2.93,-2.59,2.59,3.85,-0.36,-0.35,-0.35
39,-2.81,-2.45,-2.75,-2.39,2.39,3.59,-0.42,-0.36,-0.36
40,-2.63,-2.26,-2.59,-2.22,2.22,3.33,-0.41,-0.37,-0.37
41,-2.42,-2.04,-2.46,-2.08,2.08,3.10,-0.35,-0.38,-0.38
42,-2.33,-1.94,-2.35,-1.96,1.96,2.87,-0.37,-0.39,-0.39
43,-2.13,-1.73,-2.28,-1.87,1.87,2.67,-0.26,-0.41,-0.41
44,-2.13,-1.71,-2.22,-1.80,1.80,2.47,-0.33,-0.42,-0.42
45,-2.14,-1.71,-2.19,-1.76,1.76,2.29,-0.39,-0.44,-0.44
46,-2.23,-1.78,-2.17,-1.72,1.72,2.13,-0.52,-0.45,-0.45
47,-2.26,-1.80,-2.15,-1.68,1.68,1.97,-0.58,-0.47,-0.47
48,-2.22,-1.74,-2.12,-1.64,1.64,1.83,-0.59,-0.48,-0.48
49,-2.21,-1.71,-2.09,-1.58,1.58,1.69,-0.63,-0.50,-0.50
50,-2.06,-1.54,-2.05,-1.53,1.53,1.57,-0.54,-0.52,-0.52
51,-2.05,-1.51,-2.01,-1.47,1.47,1.45,-0.58,-0.54,-0.54
52,-1.82,-1.26,-1.99,-1.42,1.42,1.35,-0.40,-0.56,-0.56
53,-1.84,-1.26,-1.98,-1.40,1.40,1.25,-0.44,-0.58,-0.58
54,-2.00,-1.40,-2.01,-1.40,1.40,1.15,-0.60,-0.61,-0.61
55,-2.04,-1.41,-2.06,-1.43,1.43,1.06,-0.61,-0.63,-0.63
56,-2.02,-1.37,-2.14,-1.49,1.49,0.98,-0.53,-0.65,-0.65
57,-2.25,-1.57,-2.24,-1.56,1.56,0.90,-0.69,-0.68,-0.68
58,-2.33,-1.63,-2.34,-1.64,1.64,0.83,-0.70,-0.71,-0.71
59,-2.42,-1.69,-2.43,-1.70,1.70,0.76,-0.73,-0.73,-0.73
60,-2.65,-1.89,-2.49,-1.73,1.73,0.70,-0.93,-0.76,-0.76
61,-2.61,-1.82,-2.51,-1.72,1.72,0.64,-0.89,-0.79,-0.79
62,-2.51,-1.69,-2.49,-1.67,1.67,0.58,-0.84,-0.82,-0.82
63,-2.45,-1.60,-2.43,-1.58,1.58,0.52,-0.87,-0.85,-0.85
64,-2.38,-1.50,-2.33,-1.45,1.45,0.47,-0.93,-0.88,-0.88
65,-2.22,-1.31,-2.20,-1.28,1.28,0.42,-0.94,-0.91,-0.91
66,-2.00,-1.06,-2.05,-1.10,1.10,0.37,-0.90,-0.95,-0.95
67,-1.79,-0.81,-1.88,-0.90,0.90,0.33,-0.89,-0.98,-0.98
68,-1.68,-0.67,-1.72,-0.71,0.71,0.29,-0.98,-1.01,-1.01
69,-1.57,-0.52,-1.56,-0.51,0.51,0.24,-1.06,-1.05,-1.05
70,-1.44,-0.36,-1.42,-0.33,0.33,0.20,-1.11,-1.09,-1.09
71,-1.25,-0.13,-1.28,-0.16,0.16,0.16,-1.09,-1.12,-1.12
72,-1.13,0.03,-1.16,-0.00,0.00,0.13,-1.13,-1.16,-1.16
73,-1.08,0.11,-1.06,0.14,-0.14,0.09,-1.22,-1.20,-1.20
74,-1.00,0.23,-0.97,0.26,-0.26,0.05,-1.27,-1.24,-1.24
75,-0.82,0.45,-0.90,0.38,-0.38,0.02,-1.20,-1.27,-1.27
76,-0.82,0.49,-0.84,0.48,-0.48,-0.02,-1.30,-1.31,-1.31
77,-0.82,0.53,-0.79,0.57,-0.57,-0.06,-1.39,-1.35,-1.35
78,-0.72,0.67,-0.75,0.65,-0.65,-0.09,-1.37,-1.39,-1.39
79,-0.72,0.71,-0.71,0.72,-0.72,-0.13,-1.44,-1.43,-1.43
80,-0.72,0.75,-0.68,0.79,-0.79,-0.16,-1.51,-1.47,-1.47
81,-0.68,0.83,-0.66,0.86,-0.86,-0.20,-1.54,-1.52,-1.52
82,-0.62,0.93,-0.64,0.92,-0.92,-0.23,-1.54,-1.56,-1.56
83,-0.62,0.98,-0.62,0.98,-0.98,-0.27,-1.60,-1.60,-1.60
84,-0.62,1.02,-0.61,1.03,-1.03,-0.30,-1.65,-1.64,-1.64
85,-0.62,1.06,-0.61,1.07,-1.07,-0.34,-1.69,-1.68,-1.68
86,-0.62,1.10,-0.62,1.10,-1.10,-0.37,-1.72,-1.72,-1.72
87,-0.62,1.14,-0.65,1.12,-1.12,-0.41,-1.74,-1.76,-1.76
88,-0.62,1.18,-0.69,1.11,-1.11,-0.44,-1.74,-1.81,-1.81
89,-0.66,1.18,-0.75,1.10,-1.10,-0.48,-1.76,-1.85,-1.85
90,-0.82,1.07,-0.81,1.08,-1.08,-0.52,-1.90,-1.89,-1.89
91,-0.92,1.01,-0.88,1.05,-1.05,-0.55,-1.97,-1.93,-1.93
92,-0.98,0.99,-0.95,1.02,-1.02,-0.59,-2.01,-1.97,-1.97
93,-1.03,0.98,-1.01,1.00,-1.00,-0.62,-2.04,-2.01,-2.01
94,-1.12,0.93,-1.06,0.99,-0.99,-0.66,-2.12,-2.05,-2.05
95,-1.12,0.97,-1.10,1.00,-1.00,-0.70,-2.12,-2.09,-2.09
96,-1.12,1.01,-1.12,1.01,-1.01,-0.73,-2.13,-2.13,-2.14
97,-1.13,1.04,-1.14,1.03,-1.03,-0.77,-2.17,-2.17,-2.18
98,-1.14,1.07,-1.15,1.06,-1.06,-0.81,-2.21,-2.22,-2.22
99,-1.15,1.10,-1.17,1.09,-1.09,-0.84,-2.24,-2.26,-2.26
100,-1.16,1.13,-1.18,1.12,-1.12,-0.88,-2.28,-2.30,-2.29
101,-1.18,1.15,-1.21,1.14,-1.14,-0.91,-2.32,-2.34,-2.33
102,-1.20,1.17,-1.24,1.15,-1.15,-0.95,-2.35,-2.39,-2.37
104,-1.26,1.18,-1.27,1.16,-1.16,-1.02,-2.42,-2.43,-2.45
105,-1.35,1.13,-1.32,1.15,-1.15,-1.05,-2.51,-2.47,-2.48
106,-1.37,1.14,-1.36,1.15,-1.15,-1.08,-2.52,-2.51,-2.52
107,-1.40,1.15,-1.41,1.14,-1.14,-1.11,-2.54,-2.55,-2.55
108,-1.42,1.16,-1.46,1.13,-1.13,-1.14,-2.55,-2.59,-2.59
109,-1.53,1.09,-1.50,1.12,-1.12,-1.17,-2.65,-2.62,-2.62
110,-1.56,1.09,-1.53,1.12,-1.12,-1.20,-2.68,-2.65,-2.65
111,-1.58,1.10,-1.56,1.12,-1.12,-1.22,-2.70,-2.68,-2.68
112,-1.59,1.12,-1.59,1.13,-1.13,-1.25,-2.72,-2.71,-2.71
113,-1.60,1.14,-1.61,1.14,-1.14,-1.27,-2.74,-2.74,-2.74
114,-1.60,1.17,-1.63,1.15,-1.15,-1.29,-2.75,-2.78,-2.77
115,-1.61,1.18,-1.65,1.16,-1.16,-1.31,-2.77,-2.81,-2.80
117,-1.72,1.13,-1.67,1.17,-1.17,-1.34,-2.89,-2.84,-2.85
118,-1.69,1.18,-1.70,1.17,-1.17,-1.36,-2.86,-2.87,-2.87
119,-1.68,1.21,-1.72,1.17,-1.17,-1.37,-2.85,-2.90,-2.90
120,-1.73,1.19,-1.76,1.17,-1.17,-1.38,-2.90,-2.92,-2.92
121,-1.78,1.16,-1.79,1.16,-1.16,-1.38,-2.95,-2.95,-2.94
123,-1.83,1.15,-1.82,1.16,-1.16,-1.39,-2.99,-2.98,-2.99
124,-1.89,1.11,-1.85,1.15,-1.15,-1.39,-3.05,-3.00,-3.01
125,-1.88,1.14,-1.87,1.15,-1.15,-1.39,-3.04,-3.03,-3.02
126,-1.85,1.19,-1.90,1.15,-1.15,-1.39,-3.01,-3.05,-3.04
128,-1.99,1.09,-1.92,1.16,-1.16,-1.38,-3.15,-3.07,-3.08
129,-1.97,1.12,-1.94,1.16,-1.16,-1.37,-3.13,-3.09,-3.10
130,-1.90,1.21,-1.96,1.16,-1.16,-1.36,-3.06,-3.12,-3.11
131,-1.89,1.23,-1.98,1.16,-1.16,-1.35,-3.05,-3.14,-3.13
133,-2.03,1.13,-2.01,1.15,-1.15,-1.32,-3.19,-3.16,-3.16
134,-2.02,1.16,-2.04,1.14,-1.14,-1.30,-3.17,-3.18,-3.18
135,-2.05,1.14,-2.07,1.13,-1.13,-1.29,-3.18,-3.20,-3.19
137,-2.14,1.08,-2.11,1.11,-1.11,-1.25,-3.25,-3.22,-3.23
138,-2.21,1.03,-2.15,1.09,-1.09,-1.23,-3.30,-3.24,-3.24
140,-2.21,1.06,-2.19,1.07,-1.07,-1.18,-3.28,-3.26,-3.27
141,-2.19,1.09,-2.23,1.05,-1.05,-1.16,-3.24,-3.28,-3.28
142,-2.19,1.10,-2.28,1.02,-1.02,-1.13,-3.22,-3.30,-3.30
144,-2.37,0.95,-2.32,1.00,-1.00,-1.08,-3.37,-3.32,-3.33
145,-2.42,0.92,-2.37,0.97,-0.97,-1.06,-3.40,-3.34,-3.34
147,-2.39,0.98,-2.42,0.94,-0.94,-1.00,-3.33,-3.37,-3.37
148,-2.47,0.91,-2.48,0.91,-0.91,-0.98,-3.38,-3.39,-3.38
150,-2.55,0.86,-2.54,0.87,-0.87,-0.92,-3.42,-3.41,-3.41
151,-2.61,0.81,-2.60,0.82,-0.82,-0.90,-3.43,-3.43,-3.42
153,-2.69,0.76,-2.68,0.77,-0.77,-0.84,-3.46,-3.44,-3.45
154,-2.71,0.75,-2.76,0.70,-0.70,-0.81,-3.41,-3.46,-3.46
156,-2.85,0.63,-2.86,0.63,-0.63,-0.76,-3.48,-3.48,-3.49
157,-2.90,0.59,-2.96,0.54,-0.54,-0.73,-3.45,-3.50,-3.50
159,-3.01,0.51,-3.06,0.46,-0.46,-0.68,-3.47,-3.52,-3.52
160,-3.11,0.42,-3.16,0.37,-0.37,-0.65,-3.49,-3.54,-3.53
162,-3.24,0.31,-3.25,0.30,-0.30,-0.59,-3.54,-3.55,-3.55
164,-3.49,0.08,-3.32,0.25,-0.25,-0.54,-3.74,-3.57,-3.57
165,-3.54,0.04,-3.38,0.21,-0.21,-0.51,-3.75,-3.58,-3.58
167,-3.41,0.19,-3.41,0.19,-0.19,-0.46,-3.61,-3.60,-3.60
169,-3.42,0.19,-3.42,0.19,-0.19,-0.41,-3.62,-3.61,-3.62
170,-3.35,0.27,-3.42,0.20,-0.20,-0.38,-3.55,-3.62,-3.62
172,-3.34,0.29,-3.42,0.21,-0.21,-0.33,-3.56,-3.64,-3.64
174,-3.35,0.30,-3.42,0.22,-0.22,-0.28,-3.57,-3.65,-3.65
175,-3.39,0.26,-3.43,0.22,-0.22,-0.26,-3.62,-3.65,-3.65
177,-3.52,0.14,-3.44,0.22,-0.22,-0.21,-3.74,-3.66,-3.66
179,-3.47,0.20,-3.46,0.21,-0.21,-0.16,-3.68,-3.67,-3.67
181,-3.46,0.21,-3.49,0.19,-0.19,-0.11,-3.65,-3.67,-3.68
183,-3.54,0.14,-3.51,0.17,-0.17,-0.07,-3.71,-3.68,-3.68
184,-3.62,0.06,-3.54,0.14,-0.14,-0.04,-3.76,-3.68,-3.68
186,-3.58,0.10,-3.58,0.11,-0.11,0.00,-3.69,-3.69,-3.69
188,-3.52,0.17,-3.62,0.07,-0.07,0.05,-3.60,-3.69,-3.69
190,-3.60,0.09,-3.66,0.03,-0.03,0.09,-3.64,-3.69,-3.69
192,-3.60,0.09,-3.70,-0.01,0.01,0.13,-3.59,-3.69,-3.69
194,-3.79,-0.10,-3.75,-0.06,0.06,0.17,-3.74,-3.69,-3.69
196,-3.86,-0.17,-3.79,-0.10,0.10,0.22,-3.76,-3.70,-3.70
198,-3.99,-0.30,-3.83,-0.14,0.14,0.26,-3.85,-3.70,-3.70
200,-3.91,-0.22,-3.87,-0.17,0.17,0.30,-3.74,-3.70,-3.70
202,-3.83,-0.14,-3.90,-0.21,0.21,0.33,-3.63,-3.70,-3.70
204,-3.82,-0.12,-3.94,-0.24,0.24,0.37,-3.58,-3.70,-3.70
206,-3.95,-0.25,-3.97,-0.27,0.27,0.41,-3.68,-3.70,-3.70
208,-4.06,-0.36,-4.01,-0.31,0.31,0.45,-3.75,-3.70,-3.70
210,-4.05,-0.35,-4.06,-0.36,0.36,0.48,-3.70,-3.70,-3.70
212,-4.03,-0.33,-4.11,-0.40,0.40,0.51,-3.63,-3.70,-3.70
214,-4.13,-0.43,-4.15,-0.45,0.45,0.55,-3.68,-3.70,-3.70
216,-4.23,-0.53,-4.20,-0.50,0.50,0.58,-3.73,-3.70,-3.70
218,-4.40,-0.70,-4.24,-0.54,0.54,0.61,-3.86,-3.70,-3.70
221,-4.24,-0.54,-4.27,-0.57,0.57,0.65,-3.67,-3.70,-3.70
223,-4.24,-0.54,-4.30,-0.60,0.60,0.68,-3.64,-3.70,-3.70
225,-4.35,-0.65,-4.32,-0.63,0.63,0.70,-3.73,-3.70,-3.70
227,-4.34,-0.65,-4.35,-0.65,0.65,0.73,-3.69,-3.70,-3.70
229,-4.43,-0.74,-4.38,-0.68,0.68,0.75,-3.75,-3.69,-3.69
232,-4.40,-0.71,-4.41,-0.72,0.72,0.78,-3.68,-3.69,-3.69
234,-4.26,-0.58,-4.45,-0.77,0.77,0.79,-3.50,-3.69,-3.69
236,-4.33,-0.65,-4.50,-0.82,0.82,0.81,-3.52,-3.68,-3.68
239,-4.76,-1.09,-4.55,-0.87,0.87,0.83,-3.89,-3.68,-3.68
241,-4.69,-1.02,-4.59,-0.92,0.92,0.84,-3.77,-3.67,-3.67
244,-4.57,-0.91,-4.63,-0.97,0.97,0.86,-3.61,-3.66,-3.66
246,-4.77,-1.12,-4.67,-1.01,1.01,0.86,-3.76,-3.66,-3.66
248,-4.79,-1.14,-4.70,-1.05,1.05,0.87,-3.74,-3.65,-3.65
251,-4.60,-0.96,-4.73,-1.08,1.08,0.87,-3.52,-3.64,-3.64
253,-4.64,-1.01,-4.76,-1.12,1.12,0.88,-3.52,-3.64,-3.63
256,-4.69,-1.07,-4.78,-1.16,1.16,0.88,-3.54,-3.63,-3.63
259,-4.76,-1.14,-4.81,-1.19,1.19,0.87,-3.57,-3.62,-3.62
261,-4.92,-1.31,-4.84,-1.23,1.23,0.87,-3.69,-3.61,-3.61
264,-5.05,-1.45,-4.86,-1.26,1.26,0.86,-3.79,-3.60,-3.60
266,-4.91,-1.32,-4.88,-1.28,1.28,0.85,-3.63,-3.60,-3.60
269,-4.86,-1.27,-4.88,-1.29,1.29,0.84,-3.57,-3.59,-3.59
272,-4.87,-1.29,-4.88,-1.30,1.30,0.82,-3.58,-3.58,-3.58
274,-4.60,-1.03,-4.86,-1.29,1.29,0.81,-3.32,-3.58,-3.58
277,-4.87,-1.30,-4.84,-1.27,1.27,0.79,-3.60,-3.57,-3.57
280,-4.95,-1.39,-4.81,-1.25,1.25,0.77,-3.71,-3.56,-3.56
283,-4.87,-1.32,-4.77,-1.21,1.21,0.75,-3.66,-3.56,-3.56
286,-4.76,-1.21,-4.73,-1.17,1.17,0.72,-3.59,-3.55,-3.55
288,-4.52,-0.98,-4.68,-1.13,1.13,0.71,-3.39,-3.54,-3.54
291,-4.57,-1.03,-4.63,-1.09,1.09,0.68,-3.49,-3.54,-3.54
294,-4.73,-1.20,-4.57,-1.04,1.04,0.66,-3.69,-3.53,-3.53
297,-4.38,-0.86,-4.52,-1.00,1.00,0.63,-3.39,-3.53,-3.53
300,-4.40,-0.88,-4.48,-0.96,0.96,0.60,-3.45,-3.52,-3.52
303,-4.59,-1.08,-4.43,-0.92,0.92,0.58,-3.68,-3.52,-3.52
306,-4.37,-0.86,-4.39,-0.88,0.88,0.55,-3.49,-3.51,-3.51
309,-4.27,-0.77,-4.36,-0.85,0.85,0.52,-3.42,-3.50,-3.50
312,-4.39,-0.89,-4.32,-0.82,0.82,0.50,-3.57,-3.50,-3.50
316,-4.19,-0.70,-4.28,-0.79,0.79,0.46,-3.40,-3.49,-3.49
319,-4.26,-0.77,-4.24,-0.75,0.75,0.43,-3.51,-3.49,-3.49
322,-4.20,-0.72,-4.19,-0.71,0.71,0.40,-3.49,-3.48,-3.48
325,-4.11,-0.63,-4.13,-0.65,0.65,0.38,-3.46,-3.48,-3.48
328,-4.06,-0.59,-4.06,-0.59,0.59,0.35,-3.48,-3.47,-3.47
332,-4.16,-0.69,-3.98,-0.51,0.51,0.32,-3.66,-3.47,-3.47
335,-3.95,-0.49,-3.88,-0.42,0.42,0.29,-3.54,-3.47,-3.47
338,-3.72,-0.26,-3.78,-0.32,0.32,0.26,-3.40,-3.46,-3.46
342,-3.49,-0.03,-3.68,-0.22,0.22,0.23,-3.27,-3.46,-3.46
345,-3.50,-0.05,-3.58,-0.13,0.13,0.20,-3.38,-3.46,-3.46
349,-3.58,-0.13,-3.48,-0.03,0.03,0.17,-3.56,-3.45,-3.45
352,-3.32,0.13,-3.38,0.07,-0.07,0.15,-3.40,-3.45,-3.45
356,-3.24,0.20,-3.27,0.18,-0.18,0.12,-3.42,-3.45,-3.45
359,-3.15,0.29,-3.15,0.30,-0.30,0.09,-3.45,-3.45,-3.45
363,-3.17,0.27,-3.01,0.43,-0.43,0.06,-3.60,-3.44,-3.44
366,-3.02,0.42,-2.87,0.57,-0.57,0.04,-3.60,-3.44,-3.44
370,-2.68,0.76,-2.71,0.73,-0.73,0.01,-3.41,-3.44,-3.44
374,-2.50,0.94,-2.56,0.88,-0.88,-0.02,-3.39,-3.44,-3.44
377,-2.37,1.06,-2.40,1.04,-1.04,-0.04,-3.41,-3.44,-3.44
381,-2.03,1.40,-2.25,1.19,-1.19,-0.07,-3.22,-3.43,-3.43
385,-1.95,1.48,-2.11,1.32,-1.32,-0.10,-3.28,-3.43,-3.43
389,-2.22,1.20,-1.98,1.45,-1.45,-0.13,-3.67,-3.43,-3.43
393,-1.96,1.46,-1.86,1.56,-1.56,-0.16,-3.52,-3.42,-3.42
397,-1.70,1.71,-1.75,1.66,-1.66,-0.18,-3.36,-3.41,-3.41
401,-1.65,1.75,-1.65,1.75,-1.75,-0.21,-3.41,-3.40,-3.40
405,-1.64,1.75,-1.55,1.84,-1.84,-0.23,-3.48,-3.39,-3.39
409,-1.25,2.13,-1.46,1.92,-1.92,-0.26,-3.17,-3.38,-3.38
413,-1.21,2.15,-1.36,2.00,-2.00,-0.28,-3.21,-3.36,-3.36
417,-1.50,1.84,-1.27,2.07,-2.07,-0.31,-3.58,-3.34,-3.34
421,-1.26,2.06,-1.18,2.14,-2.14,-0.33,-3.41,-3.32,-3.32
425,-1.13,2.16,-1.09,2.21,-2.21,-0.36,-3.34,-3.29,-3.30
430,-0.88,2.38,-1.00,2.26,-2.26,-0.39,-3.15,-3.27,-3.27
434,-0.99,2.24,-0.93,2.31,-2.31,-0.41,-3.30,-3.23,-3.24
438,-1.00,2.20,-0.87,2.33,-2.33,-0.43,-3.34,-3.20,-3.20
443,-0.67,2.49,-0.83,2.34,-2.34,-0.46,-3.01,-3.16,-3.17
447,-0.73,2.39,-0.82,2.31,-2.31,-0.48,-3.04,-3.13,-3.13
451,-0.80,2.28,-0.84,2.24,-2.24,-0.50,-3.05,-3.09,-3.09
456,-0.92,2.12,-0.91,2.14,-2.14,-0.52,-3.06,-3.05,-3.05
460,-1.02,1.98,-1.02,1.99,-1.99,-0.54,-3.01,-3.01,-3.01
465,-1.19,1.77,-1.17,1.80,-1.80,-0.56,-2.99,-2.96,-2.97
470,-1.46,1.46,-1.36,1.56,-1.56,-0.59,-3.02,-2.92,-2.92
474,-1.51,1.37,-1.60,1.29,-1.29,-0.60,-2.80,-2.89,-2.89
479,-1.60,1.25,-1.85,1.00,-1.00,-0.62,-2.60,-2.85,-2.85
484,-1.88,0.93,-2.12,0.70,-0.70,-0.64,-2.58,-2.82,-2.81
489,-2.14,0.64,-2.36,0.42,-0.42,-0.66,-2.56,-2.78,-2.78
494,-2.81,-0.06,-2.58,0.18,-0.18,-0.68,-2.99,-2.76,-2.76
499,-3.36,-0.63,-2.75,-0.01,0.01,-0.70,-3.35,-2.73,-2.73
504,-3.43,-0.72,-2.86,-0.14,0.14,-0.71,-3.29,-2.72,-2.71
509,-2.86,-0.16,-2.91,-0.21,0.21,-0.73,-2.65,-2.70,-2.70
514,-2.29,0.40,-2.91,-0.22,0.22,-0.74,-2.07,-2.69,-2.69
519,-2.55,0.13,-2.87,-0.19,0.19,-0.76,-2.36,-2.68,-2.68
524,-2.85,-0.17,-2.80,-0.12,0.12,-0.77,-2.73,-2.68,-2.68
529,-2.70,-0.02,-2.71,-0.02,0.02,-0.78,-2.68,-2.68,-2.68
535,-2.96,-0.28,-2.59,0.09,-0.09,-0.80,-3.06,-2.69,-2.69
540,-2.79,-0.10,-2.48,0.22,-0.22,-0.81,-3.01,-2.70,-2.69
545,-2.26,0.44,-2.36,0.35,-0.35,-0.82,-2.61,-2.70,-2.70
551,-2.10,0.61,-2.25,0.46,-0.46,-0.83,-2.57,-2.72,-2.72
556,-2.03,0.69,-2.17,0.55,-0.55,-0.84,-2.59,-2.73,-2.73
562,-2.03,0.70,-2.13,0.60,-0.60,-0.86,-2.64,-2.74,-2.74
568,-2.12,0.62,-2.14,0.60,-0.60,-0.87,-2.73,-2.75,-2.75
573,-2.00,0.75,-2.21,0.55,-0.55,-0.88,-2.55,-2.76,-2.76
579,-2.28,0.48,-2.32,0.44,-0.44,-0.89,-2.72,-2.76,-2.76
585,-2.53,0.23,-2.47,0.29,-0.29,-0.91,-2.83,-2.76,-2.77
591,-2.55,0.21,-2.64,0.13,-0.13,-0.92,-2.68,-2.76,-2.77
596,-2.82,-0.06,-2.80,-0.04,0.04,-0.93,-2.78,-2.76,-2.76
602,-3.09,-0.34,-2.95,-0.19,0.19,-0.94,-2.90,-2.75,-2.75
608,-3.12,-0.38,-3.05,-0.31,0.31,-0.96,-2.81,-2.74,-2.74
615,-3.26,-0.53,-3.11,-0.38,0.38,-0.97,-2.88,-2.73,-2.73
621,-3.24,-0.53,-3.12,-0.41,0.41,-0.99,-2.83,-2.71,-2.71
627,-3.05,-0.37,-3.08,-0.39,0.39,-1.00,-2.66,-2.69,-2.69
633,-2.91,-0.25,-3.00,-0.34,0.34,-1.02,-2.57,-2.66,-2.66
639,-2.82,-0.19,-2.89,-0.25,0.25,-1.04,-2.57,-2.63,-2.63
646,-2.72,-0.12,-2.75,-0.15,0.15,-1.06,-2.57,-2.60,-2.60
652,-2.57,-0.00,-2.60,-0.03,0.03,-1.07,-2.54,-2.57,-2.57
659,-2.53,0.00,-2.44,0.10,-0.10,-1.09,-2.63,-2.54,-2.54
665,-2.35,0.15,-2.27,0.23,-0.23,-1.11,-2.58,-2.50,-2.50
672,-2.09,0.37,-2.12,0.35,-0.35,-1.14,-2.45,-2.47,-2.47
679,-2.00,0.43,-1.98,0.46,-0.46,-1.16,-2.46,-2.43,-2.43
686,-1.90,0.50,-1.87,0.53,-0.53,-1.18,-2.43,-2.40,-2.40
692,-1.73,0.63,-1.82,0.55,-0.55,-1.21,-2.29,-2.37,-2.37
699,-1.75,0.58,-1.81,0.53,-0.53,-1.23,-2.28,-2.34,-2.34
706,-1.69,0.62,-1.86,0.45,-0.45,-1.26,-2.14,-2.31,-2.31
713,-1.58,0.70,-1.96,0.33,-0.33,-1.28,-1.91,-2.28,-2.28
721,-1.82,0.44,-2.07,0.19,-0.19,-1.32,-2.01,-2.26,-2.26
728,-2.25,-0.02,-2.18,0.06,-0.06,-1.34,-2.31,-2.24,-2.24
735,-2.57,-0.36,-2.26,-0.04,0.04,-1.37,-2.53,-2.22,-2.22
742,-2.84,-0.64,-2.27,-0.08,0.08,-1.40,-2.77,-2.20,-2.20
750,-2.70,-0.52,-2.23,-0.04,0.04,-1.44,-2.66,-2.18,-2.18
757,-2.00,0.17,-2.11,0.05,-0.05,-1.47,-2.06,-2.17,-2.17
765,-1.69,0.46,-1.95,0.20,-0.20,-1.51,-1.89,-2.16,-2.16
773,-1.63,0.51,-1.77,0.38,-0.38,-1.54,-2.01,-2.15,-2.15
780,-1.28,0.85,-1.58,0.56,-0.56,-1.57,-1.84,-2.14,-2.14
788,-1.37,0.75,-1.41,0.72,-0.72,-1.61,-2.09,-2.13,-2.13
796,-1.28,0.83,-1.26,0.86,-0.86,-1.65,-2.14,-2.12,-2.12
804,-1.15,0.96,-1.15,0.96,-0.96,-1.68,-2.12,-2.11,-2.11
812,-1.12,0.98,-1.06,1.05,-1.05,-1.72,-2.17,-2.10,-2.10
820,-1.05,1.04,-0.98,1.11,-1.11,-1.76,-2.16,-2.10,-2.10
828,-0.92,1.17,-0.92,1.17,-1.17,-1.80,-2.09,-2.09,-2.09
837,-0.79,1.29,-0.86,1.22,-1.22,-1.84,-2.01,-2.08,-2.08
845,-0.79,1.28,-0.80,1.27,-1.27,-1.87,-2.07,-2.07,-2.07
853,-0.79,1.27,-0.74,1.33,-1.33,-1.91,-2.12,-2.07,-2.07
862,-0.71,1.35,-0.68,1.38,-1.38,-1.94,-2.09,-2.06,-2.06
871,-0.70,1.35,-0.62,1.43,-1.43,-1.98,-2.13,-2.05,-2.05
879,-0.43,1.61,-0.57,1.48,-1.48,-2.01,-1.91,-2.05,-2.05
888,-0.49,1.54,-0.51,1.52,-1.52,-2.04,-2.02,-2.04,-2.04
897,-0.44,1.59,-0.46,1.57,-1.57,-2.08,-2.01,-2.03,-2.03
906,-0.29,1.73,-0.41,1.61,-1.61,-2.10,-1.90,-2.02,-2.02
915,-0.61,1.40,-0.36,1.65,-1.65,-2.13,-2.26,-2.01,-2.01
924,-0.58,1.42,-0.32,1.68,-1.68,-2.16,-2.27,-2.00,-2.00
933,-0.00,1.99,-0.27,1.72,-1.72,-2.18,-1.72,-1.99,-1.99
943,-0.02,1.96,-0.24,1.74,-1.74,-2.20,-1.77,-1.98,-1.98
952,-0.24,1.72,-0.20,1.76,-1.76,-2.21,-2.01,-1.97,-1.97
962,-0.19,1.76,-0.17,1.78,-1.78,-2.23,-1.98,-1.95,-1.95
971,-0.13,1.81,-0.14,1.80,-1.80,-2.24,-1.93,-1.94,-1.94
981,-0.13,1.79,-0.11,1.82,-1.82,-2.25,-1.95,-1.92,-1.92
991,-0.24,1.66,-0.06,1.84,-1.84,-2.25,-2.09,-1.91,-1.91
1001,0.03,1.91,-0.01,1.88,-1.88,-2.25,-1.85,-1.89,-1.89
1011,0.13,1.99,0.06,1.92,-1.92,-2.25,-1.80,-1.87,-1.87
1021,0.20,2.04,0.14,1.98,-1.98,-2.24,-1.78,-1.84,-1.84
1031,0.18,2.00,0.22,2.04,-2.04,-2.23,-1.87,-1.82,-1.82
1041,0.07,1.86,0.31,2.10,-2.10,-2.22,-2.04,-1.79,-1.80
1052,0.42,2.18,0.39,2.16,-2.16,-2.20,-1.75,-1.77,-1.77
1062,0.59,2.33,0.47,2.21,-2.21,-2.18,-1.62,-1.74,-1.74
1073,0.80,2.51,0.54,2.24,-2.24,-2.16,-1.45,-1.71,-1.71
1084,0.73,2.40,0.59,2.26,-2.26,-2.14,-1.54,-1.68,-1.68
1094,0.36,2.00,0.62,2.27,-2.27,-2.11,-1.91,-1.64,-1.65
1105,0.40,2.01,0.64,2.25,-2.25,-2.08,-1.86,-1.61,-1.61
1116,0.66,2.23,0.65,2.23,-2.23,-2.05,-1.57,-1.58,-1.58
1128,0.91,2.45,0.64,2.19,-2.19,-2.01,-1.28,-1.54,-1.54
1139,0.77,2.28,0.63,2.14,-2.14,-1.98,-1.37,-1.51,-1.51
1150,0.45,1.92,0.61,2.09,-2.09,-1.94,-1.64,-1.48,-1.48
1162,0.67,2.11,0.60,2.04,-2.04,-1.91,-1.37,-1.44,-1.44
1173,0.67,2.08,0.59,2.00,-2.00,-1.87,-1.33,-1.41,-1.41
1185,0.54,1.92,0.59,1.97,-1.97,-1.83,-1.44,-1.38,-1.38
1197,0.33,1.68,0.62,1.97,-1.97,-1.79,-1.64,-1.35,-1.35
1209,0.56,1.88,0.66,1.98,-1.98,-1.75,-1.43,-1.33,-1.33
1221,0.74,2.04,0.71,2.02,-2.02,-1.71,-1.28,-1.30,-1.30
1233,1.02,2.30,0.78,2.06,-2.06,-1.67,-1.04,-1.28,-1.28
1246,0.94,2.20,0.85,2.11,-2.11,-1.63,-1.17,-1.26,-1.26
1258,0.77,2.01,0.92,2.16,-2.16,-1.59,-1.40,-1.25,-1.25
1271,1.09,2.32,0.98,2.21,-2.21,-1.55,-1.13,-1.23,-1.23
1283,1.13,2.35,1.04,2.26,-2.26,-1.51,-1.14,-1.22,-1.22
1296,0.92,2.13,1.09,2.31,-2.31,-1.47,-1.39,-1.22,-1.22
1309,1.18,2.39,1.14,2.35,-2.35,-1.43,-1.18,-1.21,-1.21
1322,1.30,2.51,1.19,2.41,-2.41,-1.40,-1.11,-1.21,-1.21
1335,1.11,2.32,1.25,2.47,-2.47,-1.36,-1.36,-1.22,-1.21
1349,1.28,2.50,1.32,2.53,-2.53,-1.32,-1.26,-1.22,-1.22
1362,1.47,2.69,1.39,2.61,-2.61,-1.29,-1.15,-1.23,-1.22
1376,1.50,2.73,1.47,2.70,-2.70,-1.26,-1.20,-1.23,-1.23
1390,1.52,2.76,1.55,2.79,-2.79,-1.22,-1.28,-1.24,-1.24
1404,1.51,2.76,1.64,2.89,-2.89,-1.19,-1.38,-1.25,-1.25
1418,1.76,3.02,1.72,2.98,-2.98,-1.16,-1.22,-1.26,-1.26
1432,1.92,3.18,1.80,3.06,-3.06,-1.13,-1.15,-1.27,-1.27
1446,1.88,3.15,1.87,3.14,-3.14,-1.10,-1.27,-1.27,-1.27
1461,2.06,3.34,1.94,3.22,-3.22,-1.07,-1.16,-1.28,-1.28
1475,1.95,3.23,2.00,3.29,-3.29,-1.04,-1.34,-1.28,-1.28
1490,2.02,3.30,2.07,3.36,-3.36,-1.02,-1.34,-1.28,-1.28
1505,2.07,3.35,2.14,3.42,-3.42,-0.99,-1.36,-1.28,-1.28
1520,2.08,3.35,2.22,3.49,-3.49,-0.97,-1.42,-1.28,-1.28
1535,2.34,3.60,2.29,3.56,-3.56,-0.94,-1.22,-1.27,-1.27
1550,2.55,3.80,2.37,3.62,-3.62,-0.92,-1.08,-1.25,-1.25
1566,2.49,3.72,2.45,3.68,-3.68,-0.90,-1.19,-1.23,-1.23
