frequency,raw,error,smoothed,error_smoothed,equalization,equalized_raw,equalized_smoothed,target
20,-4.5547302850259825,-6.20257404049533,-4.4838092441352835,-6.131637652937518,6.1858195782232706,1.631089293197288,1.702010334087987,1.647843755469347
21,-3.8748649902114494,-5.522689786229628,-3.862804082867199,-5.510631233036242,5.532299164591748,1.657434174380299,1.6694950817245493,1.6478247960181784
22,-3.1772455704222042,-4.825045568907546,-3.274564209074161,-4.922376521479553,4.927473105956095,1.7502275355338903,1.6529088968819337,1.6477999984853424
23,-2.6940725047613805,-4.341840461403354,-2.7190896227561696,-4.366873518267451,4.366215681882495,1.6721431771211144,1.6471260591263253,1.6477679566419732
24,-2.061823726134589,-3.7095507374734358,-2.1963803239132225,-3.8441222233999315,3.8441222233999315,1.7822984972653426,1.647741899486709,1.647727011338847
25,-1.6445001123209029,-3.2921753313810767,-1.7096955414381014,-3.3573833420875765,3.357383342087577,1.712883229766674,1.6476878006494755,1.647675219060174
26,-1.2976595827483919,-2.9452699009283894,-1.2550142316584485,-2.9026343761607682,2.902634376160768,1.604974793412376,1.6476201445023193,1.6476103181799977
27,-0.9283521917569646,-2.575881884957256,-0.8288871822690693,-2.476424544696876,2.476424544696876,1.5480723529399112,1.6475373624278065,1.647529693200291
28,-0.4891361792472593,-2.1365665147586164,-0.4268264583858492,-2.074263329164869,2.0742633291648693,1.58512714991761,1.6474368707790201,1.6474303355113573
29,-0.02106336230899175,-1.66837216523426,-0.04394838251899187,-1.691263432308698,1.6912634323086977,1.670200069999706,1.6473150497897058,1.6473088029252683
30,0.4080500477967697,-1.239111128304977,0.3231668207873952,-1.3240009993734905,1.3240009993734905,1.7320510471702601,1.6471678201608857,1.6471611761017466
31,0.5808395755554823,-1.0661434370426603,0.677174398174561,-0.9698160376402337,0.969816037640234,1.5506556131957163,1.646990435814795,1.6469830125981426
32,1.0988769982324866,-0.547892300183995,1.0199191541558723,-0.6268584880039851,0.6268584880039851,1.7257354862364718,1.6467776421598574,1.6467692984164817
33,1.2980370164089345,-0.34847738065125977,1.3529212996106355,-0.29360237515733456,0.2936023751573345,1.591639391566269,1.64652367476797,1.6465143970601943
34,1.7644235874333,0.11821159125886194,1.6779614491725612,0.03173929372802983,-0.03173929372802984,1.7326842937052702,1.6462221554445313,1.6462119961744381
35,1.9167969012528507,0.2709418495367717,1.9971302842598062,0.35126424147496815,-0.35126424147496815,1.5655326597778827,1.6458660427848382,1.645855051716079
36,2.4210591518027096,0.7756234219918161,2.312653234049762,0.6672057044610167,-0.6672057044610169,1.7538534473416927,1.645447529588745,1.6454357298108935
37,2.4495183931809184,0.8045730468307588,2.626386152053895,0.9814281939336746,-0.9814281939336746,1.4680901992472437,1.6449579581202203,1.6449453463501595
38,2.9158097799249587,1.2714354754824946,2.9392068349470204,1.294819084452541,-1.2948190844525413,1.6209906954724174,1.644387750494479,1.6443743044424641
39,3.31832417754557,1.674612147692288,3.250579116672972,1.6068527782477402,-1.6068527782477402,1.7114713992978297,1.6437263384252316,1.643712029853282
40,3.574425972253894,1.9314790676653066,3.558419705566407,1.9154576038753444,-1.915457603875344,1.65896836837855,1.642962101691063,1.6429469045885874
41,3.7724806896666827,2.1304144908571496,3.8593612049495816,2.2172789003571163,-2.2172789003571154,1.5552017893095673,1.6420823045924662,1.642066198809533
42,4.179339121529221,2.538283120242957,4.149354224805608,2.5082811956935425,-2.508281195693544,1.6710579258356772,1.6410730291120639,1.6410560012862638
43,4.4643578348969255,2.8244566862604117,4.42444908664754,2.784529980822687,-2.7845299808226875,1.679827854074238,1.6399191058248523,1.6399011486365138
44,4.697210390437213,3.0586252368046996,4.681551778397113,3.0429477365364193,-3.0429477365364184,1.654262653900795,1.6386040418606944,1.6385851536325138
45,4.929423796172953,3.292333663264846,4.918937488992296,3.28182754114909,-3.281827541149089,1.6475962550238643,1.6371099478432072,1.6370901329081073
46,5.16074614721776,3.525349412759557,5.13636506860539,3.500947603938983,-3.5009476039389824,1.6597985432787778,1.635417464666408,1.6353967344582032
47,5.391345011338365,3.7578609459400916,5.33474082835488,3.701235137690099,-3.701235137690099,1.6901098736482663,1.633505690664781,1.6334840653982736
48,5.43798790444652,3.8066582839001057,5.515410583303572,3.8840584734248225,-3.884058473424822,1.553929431021698,1.6313521098787498,1.6313296205464143
49,5.62333037055589,3.9944211580488864,5.679282532254037,4.050350010361283,-4.050350010361282,1.5729803601946077,1.6289325218927546,1.6289092125070037
50,5.852540498551617,4.226343594475799,5.826058822478114,4.199837848471982,-4.199837848471981,1.652702650079636,1.6262209740061326,1.626196904075818
51,5.898079750925779,4.274914806973152,5.953850373083618,4.330660676352858,-4.330660676352858,1.5674190745729213,1.6231896967307602,1.6231649439526268
52,6.080410263671863,4.460626556733723,6.059356942848874,4.439547899033478,-4.439547899033477,1.6408623646383855,1.6198090438153967,1.61978370693814
53,6.0791527728385555,4.463131132833924,6.1386326528534045,4.52258521460096,-4.522585214600962,1.5565675582375933,1.6160474382524423,1.616021640004631
54,6.3055568479062005,4.6937116320482035,6.188276572932535,4.576405247001706,-4.5764052470017065,1.729151600904494,1.6118713259308288,1.611845215857997
55,6.304319808875294,4.697100913030549,6.206746358495076,4.599501219672479,-4.59950121967248,1.704818589202814,1.607245138822596,1.6072188958447455
56,6.303371299980134,4.7012661956914155,6.195437495026727,4.593306225212588,-4.593306225212591,1.7100650747675434,1.6021312698141363,1.6021051042887193
57,6.075552383532902,4.479088166978157,6.159218206847061,4.562728145356772,-4.56272814535677,1.5128242381761323,1.5964900614902913,1.5964642165547454
58,6.07547833534717,4.485223772034292,6.106246315395952,4.515966504051579,-4.515966504051578,1.559511831295592,1.5902798113443737,1.5902545633128775
59,6.075155484319108,4.491723030720111,6.047075217677252,4.463618421685204,-4.463618421685205,1.6115370626339027,1.5834567959920465,1.5834324535989968
60,6.074537083080112,4.498584863763531,5.993228593058258,4.417253276063461,-4.417253276063462,1.6572838070166496,1.5759753169947954,1.575952219316581
61,5.846068212274794,4.278301928492164,5.955541978542237,4.387754207706946,-4.387754207706948,1.4583140045678462,1.567787770835289,1.5677662837826305
62,5.8461903307266,4.28736507395327,5.942610874365988,4.3837661289479515,-4.383766128947952,1.4624242017786475,1.5588447454180354,1.5588252567733307
63,5.847453113997237,4.298375055735489,5.959648194213512,4.410553049027998,-4.410553049028,1.4369000649692376,1.5490951451855128,1.5490780582617476
64,6.077761566261508,4.539289493604548,6.007954969788155,4.469468623210936,-4.469468623210938,1.6082929430505697,1.5384863465772174,1.5384720726569596
65,6.080628333194909,4.553674998339222,6.0850727193884335,4.558108334497737,-4.558108334497736,1.522519998697173,1.5269643848906975,1.5269533348556874
66,6.082825398858263,4.568358650041187,6.185545425165003,4.67107125183522,-4.6710712518352215,1.411754147023041,1.5144741733297815,1.514466748817075
67,6.310951926640098,4.809995587948221,6.302100733977344,4.801140979550887,-4.801140979550886,1.5098109470892123,1.5009597544264581,1.5009563386918772
68,6.535965989267624,5.049600457456022,6.426987346151389,4.940622763618572,-4.940622763618572,1.595343225649052,1.4863645825328167,1.486365531811602
69,6.555535163528319,5.084897691416087,6.553191540557464,5.082559705564233,-5.082559705564233,1.4729754579640861,1.470631834993231,1.4706374721122324
70,6.746828748472249,5.293113386593676,6.675303990551899,5.221599240054394,-5.2215992400543945,1.5252295084178549,1.4537047504975043,1.4537153618785736
71,6.733353723554143,5.297810894454177,6.789907307760787,5.354380312771997,-5.354380312771998,1.3789734107821445,1.4355269949887886,1.4355428290999663
72,6.946005546443822,5.529941229167356,6.8954799746941475,5.479436919931327,-5.479436919931327,1.4665686265124949,1.4160430547628202,1.4160643172764655
73,6.930634840656073,5.535409346404078,6.991930226262948,5.5967315767684145,-5.596731576768414,1.3339032638876596,1.3951986494945343,1.3952254942519944
74,7.144842067416396,5.771868390803732,7.079952738012161,5.707011585202808,-5.7070115852028085,1.4378304822135872,1.3729411528093527,1.3729736766126637
75,7.134147862729484,5.784889596334682,7.160419203137595,5.811199198702592,-5.811199198702591,1.3229486640268933,1.3492200044350042,1.349258266394802
76,7.190018925858634,5.865987728559569,7.23396893048584,5.909981824428785,-5.909981824428787,1.2800371014298468,1.3239871060570536,1.3240311972990644
77,7.350509428550791,6.053262040268659,7.300873138275767,6.003675909280979,-6.003675909280981,1.3468335192698104,1.2971972289947864,1.2972473882821323
78,7.347152899010221,6.0782876957614,7.361140503630576,6.092331989200411,-6.09233198920041,1.254820909809811,1.268808514430166,1.2688652032488212
79,7.34235270394525,6.103505787423062,7.414749432405053,6.175966276581111,-6.175966276581112,1.166386427364138,1.238783155823941,1.2388469165221871
80,7.561705228214408,6.354546043482801,7.461862825891381,6.254774580290173,-6.254774580290173,1.3069306479242355,1.2070882456012084,1.2071591847316068
81,7.548012614612534,6.374239087998626,7.502912200056181,6.329215661354068,-6.329215661354069,1.2187969532584653,1.1736965387021119,1.1737735266139078
82,7.529350872680635,6.3906840598374135,7.5385131897427105,6.399926517662884,-6.399926517662884,1.1294243550177514,1.1385866720798266,1.1386668128432222
83,7.507391278445753,6.405569510184706,7.5692590013447205,6.467516622056609,-6.467516622056609,1.0398746563891441,1.1017423792881118,1.101821768261047
84,7.4847412714431565,6.421513782797071,7.595496354618419,6.532345646566111,-6.532345646566113,0.9523956248770435,1.063150708052306,1.0632274886460862
85,7.691936198061238,6.669056224720906,7.617194909933286,6.594394645956937,-6.594394645956938,1.0975415521042997,1.0228002639763476,1.022879973340331
86,7.6748851415378025,6.694102467976295,7.633977050170321,6.653295380072413,-6.653295380072411,1.0215897614653917,0.9806816700979102,0.980782673561508
87,7.661941771859753,6.724994717806461,7.64530317662686,6.708510342800425,-6.708510342800425,0.9534314290593278,0.9367928338264351,0.9369470540532916
88,7.652329318406779,6.760936155529598,7.650742530292982,6.759592273092664,-6.759592273092663,0.8927370453141164,0.8911502572003194,0.891393162877181
89,7.644565591926598,6.80041539121015,7.650228813205137,6.806424625627779,-6.80642462562778,0.838140966298818,0.8438041875773576,0.8441502007164474
90,7.637042996829385,6.841785919640823,7.6442109677667585,6.849360122871342,-6.849360122871342,0.787682873958043,0.7948508448954161,0.7952570771885625
91,7.6284109584644755,6.883648020910018,7.633650620763895,6.889219137820364,-6.889219137820365,0.7391918206441108,0.7444314829435301,0.7447629375544573
92,7.617694396122524,6.924966756990866,7.619867548499046,6.927158918758037,-6.9271589187580345,0.6905354773644898,0.6927086297410119,0.6927276391316588
93,7.604276703397319,6.965054550429562,7.60427317913545,6.9644566174234175,-6.9644566174234175,0.6398200859739012,0.6398165617120322,0.6392221529677569
94,7.587916750279962,7.003587887039439,7.588053226204428,7.002258073149587,-7.002258073149587,0.5856586771303744,0.5857951530548409,0.5843288632405232
95,7.5688488881009865,7.040707153344021,7.571868025930674,7.041338637849998,-7.0413386378499965,0.5275102502509901,0.5305293880806774,0.5281417347569652
96,7.5478566899026776,7.077090371760269,7.555640135132572,7.081915663681355,-7.081915663681354,0.4659410262213237,0.4737244714512183,0.4707663181424082
97,7.526157949583147,7.113838386467773,7.538493681026278,7.123550963930823,-7.123550963930823,0.4026069856523238,0.41494271709545494,0.41231956311537354
98,7.505041572783404,7.1521121599453235,7.518889922770743,7.165178687585598,-7.165178687585598,0.33986288519780583,0.3537112351851448,0.3529294128380811
99,7.485376526477693,7.192642369651166,7.494959997099609,7.205277199619253,-7.205277199619252,0.28009932685844063,0.2896827974803564,0.29273415682652715
100,7.467229444494021,7.235347918196606,7.464972019672021,7.242166047179669,-7.242166047179669,0.22506339731435165,0.22280597249235168,0.23188152629741499
101,7.449796399250739,7.279268875254865,7.427806389612283,7.2743598540095835,-7.2743598540095835,0.1754365452411557,0.15344653560269972,0.17052752399587412
102,7.431701754105368,7.322866763873999,7.383283384116947,7.300874721715003,-7.300874721715003,0.13082703239036508,0.082408662401944,0.10883499023136878
104,7.411540744504973,7.426533452000324,7.332216561882999,7.321384628715352,-7.321384628715352,0.0901561157896209,0.010831933167646746,-0.014992707495351976
105,7.248618152151271,7.325554118681251,7.276155882953937,7.336175529941256,-7.336175529941256,-0.0875573777899854,-0.06001964698731932,-0.07693596652998025
106,7.134495471193396,7.273079159482188,7.21690547995891,7.345927437602688,-7.345927437602686,-0.21143196640929052,-0.12902195764377655,-0.1385836882887923
107,7.106484111429581,7.306251359646159,7.155999557282777,7.351431504535919,-7.351431504535919,-0.2449473931063375,-0.19543194725314184,-0.19976724821657754
108,7.078046691878842,7.338369007652554,7.094345747614959,7.353379065230586,-7.353379065230586,-0.2753323733517439,-0.25903331761562676,-0.2603223157737129
109,7.050883294207245,7.370974441128795,7.032178646024674,7.352322097636143,-7.352322097636144,-0.3014388034288986,-0.32014345161146984,-0.32009114692155016
110,7.026365392524535,7.405290216869608,6.969331916928066,7.3488139545755855,-7.348813954575585,-0.32244856205104977,-0.3794820376475183,-0.3789248243450736
111,6.997878569766969,7.434563946134646,6.905694546754641,7.343639034219716,-7.343639034219718,-0.34576046445274944,-0.4379444874650771,-0.43668537636767724
112,6.75996575007084,7.253213456626121,6.841630042548969,7.337980256106778,-7.337980256106779,-0.578014506035939,-0.49635021355781017,-0.4932477065552807
113,6.7462210665471085,7.294722336920636,6.778148504482531,7.333387047857753,-7.3333870478577525,-0.587165981310644,-0.5552385433752214,-0.5485012703735279
114,6.736077573020168,7.338429015899812,6.716727862245182,7.33149179958734,-7.331491799587339,-0.5954142265671711,-0.6147639373421576,-0.6023514428796437
115,6.729564653452592,7.3842851854694995,6.65883508315926,7.333541362752326,-7.333541362752328,-0.6039767092997357,-0.6747062795930683,-0.6547205320169067
117,6.498757696044894,7.25901881730268,6.605332266558426,7.339907312131174,-7.339907312131172,-0.8411496160862777,-0.734575045572746,-0.7602611212577859
118,6.499256456712165,7.307637274469984,6.556008857016444,7.349769810765549,-7.349769810765547,-0.8505133540533825,-0.7937609537491035,-0.8083808177578189
119,6.502556705451152,7.3574021145237545,6.509438398670007,7.361120863251218,-7.361120863251216,-0.858564157800064,-0.8516824645812093,-0.8548454090726025
120,6.50781845873758,7.40747255232665,6.4632365140946035,7.371123378580286,-7.371123378580287,-0.8633049198427072,-0.9078868644856835,-0.8996540935890698
121,6.514169556571777,7.4569914991389314,6.414646097085749,7.376735848721456,-7.376735848721456,-0.8625662921496788,-0.9620897516357072,-0.942821942567154
123,6.292989208324706,7.324766188871697,6.361256674025592,7.375418381102396,-7.375418381102397,-1.0824291727776902,-1.0141617070768048,-1.031776980546991
124,6.299648466291617,7.3701072439706685,6.301621246433842,7.365708110912751,-7.36570811091275,-1.0660596446211326,-1.0640868644789077,-1.0704587776790508
125,6.3059058676620845,7.4135225553714985,6.235577249741608,7.347497428477073,-7.347497428477074,-1.0415915608149895,-1.111920178735466,-1.1076166877094145
126,6.157875046151449,7.301194102515511,6.164187755759821,7.321948072223008,-7.321948072223009,-1.1640730260715602,-1.1577603164631878,-1.1433190563640632
128,6.08813035049138,7.306595255659918,6.089352244548595,7.291092459539316,-7.2910924595393185,-1.202962109047938,-1.201740214990724,-1.218464905168538
129,6.002155254045441,7.252337272720444,6.013245171684337,7.2572704995087225,-7.257270499508724,-1.2551152454632835,-1.244025327824387,-1.2501820186750034
130,5.865669917212303,7.146365191102477,5.937787642826404,7.2225936198637655,-7.222593619863766,-1.3569237026514633,-1.2848059770373625,-1.2806952738901747
131,5.866669438527381,7.176762080326355,5.8643283159441335,7.188604296669697,-7.1886042966696975,-1.321934858142316,-1.324275980725564,-1.3100926417989736
133,5.866895968919032,7.239809176464927,5.793618854347778,7.156219366585036,-7.156219366585037,-1.2893233976660055,-1.3626005122372593,-1.3729132075458956
134,5.687843182854218,7.086966569945318,5.726051592647471,7.125936829729256,-7.125936829729257,-1.4380936468750392,-1.3998852370817865,-1.3991233870910995
135,5.6382652347913895,7.062761036376957,5.662026795726491,7.098187690734843,-7.098187690734843,-1.4599224559434534,-1.436160895008352,-1.424495801585567
137,5.637524542564811,7.116382020802918,5.602272044370405,7.07366366816127,-7.073663668161268,-1.4361391255964575,-1.471391623790863,-1.4788574782381079
138,5.636475589033309,7.138150352267417,5.547963141773678,7.053467997493376,-7.053467997493376,-1.4169924084600671,-1.505504855719698,-1.5016747632341079
140,5.442719490453124,6.993136532349364,5.500582322958891,7.039013062242113,-7.0390130622421125,-1.5962935717889888,-1.5384307392832213,-1.5504170418962406
141,5.405950653935166,6.977035887772079,5.461559739002121,7.031694559111198,-7.031694559111198,-1.6257439051760318,-1.570134820109077,-1.5710852338369121
142,5.405078391745532,6.9963716598820245,5.431833419040101,7.032464735364334,-7.032464735364336,-1.627386343618804,-1.6006313163242343,-1.5912932681364933
144,5.404961110830653,7.0386831882307375,5.411496214110542,7.041469891736222,-7.041469891736222,-1.6365087809055687,-1.6299736776256797,-1.6337220774000842
145,5.405571826988686,7.05779228142943,5.399663135588259,7.0578924795043125,-7.057892479504313,-1.6523206525156278,-1.6582293439160543,-1.6522204544407448
147,5.406432563117558,7.0968615219818165,5.394606431525302,7.0800582374413175,-7.080058237441316,-1.673625674323758,-1.6854518059160135,-1.6904289588642585
148,5.40680377339881,7.114236937924936,5.394106593904176,7.1057693632233985,-7.105769363223397,-1.6989655898245868,-1.7116627693192203,-1.7074331645261265
150,5.406070896918599,7.147926942818736,5.395895395833932,7.132746672566855,-7.1327466725668565,-1.7266757756482578,-1.7368512767329243,-1.7418560459001373
151,5.404081473377932,7.161562396668924,5.398047931902543,7.1590359416227995,-7.1590359416228,-1.7549544682448683,-1.7609880097202577,-1.7574809232909923
153,5.401193983607219,7.189628493045269,5.399217009401679,7.183263010863891,-7.183263010863891,-1.7820690272566724,-1.7840460014622126,-1.78843450943805
154,5.397987776816369,7.200678408479329,5.3986749346001375,7.204691721581043,-7.204691721581043,-1.8067039447646742,-1.8060167869809058,-1.8026906316629603
156,5.394820034637906,7.225190415915841,5.3962021537410845,7.2231162823366075,-7.223116282336609,-1.8282962476987032,-1.8269141285955248,-1.8303703812779348
157,5.391527442379226,7.2346980289837965,5.391908641377538,7.238672513750405,-7.238672513750404,-1.8471450713711786,-1.8467638723728665,-1.8431705866045713
159,5.3874776811136025,7.255139498082151,5.386077560034412,7.251662544282333,-7.251662544282331,-1.8641848631687283,-1.8655849842479189,-1.8676618169685493
160,5.381947383477838,7.260787508491516,5.379085448272839,7.262456030027302,-7.262456030027302,-1.8805086465494636,-1.8833705817544626,-1.878840125013678
162,5.374593557487768,7.27473668789209,5.371397978373762,7.27147547698958,-7.271475476989581,-1.896881919501813,-1.9000774986158184,-1.900143130404322
164,5.36573301205244,7.285144052361044,5.363591079539145,7.27921997238604,-7.279219972386039,-1.913486960333599,-1.915628892846894,-1.9194110403086042
