frequency,raw,error,smoothed,error_smoothed,equalization,parametric_eq,fixed_band_eq,equalized_raw,equalized_smoothed,target
20.00,-2.53,-5.67,-2.54,-5.67,5.69,5.17,1.52,3.16,3.16,3.14
20.20,-2.50,-5.66,-2.49,-5.66,5.66,5.18,1.57,3.16,3.17,3.17
20.40,-2.45,-5.64,-2.44,-5.64,5.63,5.18,1.62,3.18,3.19,3.20
20.61,-2.39,-5.61,-2.39,-5.61,5.59,5.18,1.67,3.20,3.21,3.21
20.81,-2.31,-5.55,-2.32,-5.56,5.55,5.17,1.72,3.24,3.23,3.25
21.02,-2.25,-5.52,-2.24,-5.51,5.51,5.16,1.77,3.26,3.26,3.27
21.23,-2.18,-5.46,-2.18,-5.46,5.46,5.15,1.83,3.28,3.28,3.28
21.44,-2.10,-5.39,-2.11,-5.41,5.40,5.13,1.89,3.31,3.29,3.29
21.66,-2.05,-5.35,-2.04,-5.34,5.34,5.10,1.94,3.29,3.31,3.30
21.87,-1.97,-5.27,-1.97,-5.27,5.28,5.07,2.00,3.31,3.31,3.30
22.09,-1.89,-5.20,-1.90,-5.21,5.21,5.03,2.06,3.32,3.32,3.31
22.31,-1.83,-5.14,-1.83,-5.14,5.15,4.99,2.13,3.32,3.32,3.31
22.54,-1.77,-5.08,-1.77,-5.08,5.08,4.95,2.19,3.31,3.31,3.31
22.76,-1.71,-5.02,-1.70,-5.01,5.01,4.90,2.26,3.30,3.30,3.31
22.99,-1.63,-4.93,-1.64,-4.94,4.94,4.85,2.33,3.31,3.30,3.30
23.22,-1.57,-4.87,-1.57,-4.87,4.87,4.79,2.40,3.30,3.31,3.30
23.45,-1.50,-4.80,-1.50,-4.80,4.80,4.73,2.47,3.30,3.30,3.30
23.69,-1.43,-4.73,-1.43,-4.73,4.73,4.67,2.54,3.30,3.30,3.30
23.92,-1.37,-4.67,-1.36,-4.67,4.67,4.61,2.61,3.30,3.30,3.30
24.16,-1.29,-4.60,-1.29,-4.60,4.60,4.54,2.69,3.31,3.30,3.31
24.40,-1.23,-4.54,-1.23,-4.53,4.53,4.47,2.76,3.30,3.31,3.31
24.65,-1.16,-4.46,-1.16,-4.46,4.47,4.40,2.84,3.31,3.31,3.30
24.89,-1.10,-4.40,-1.10,-4.40,4.40,4.33,2.92,3.30,3.30,3.30
25.14,-1.04,-4.34,-1.04,-4.34,4.33,4.26,3.00,3.30,3.30,3.30
25.39,-0.98,-4.28,-0.98,-4.27,4.27,4.18,3.08,3.29,3.29,3.30
25.65,-0.91,-4.21,-0.91,-4.21,4.20,4.10,3.16,3.29,3.29,3.30
25.91,-0.85,-4.14,-0.85,-4.14,4.14,4.03,3.23,3.29,3.29,3.29
26.16,-0.78,-4.06,-0.79,-4.07,4.08,3.95,3.31,3.30,3.29,3.29
26.43,-0.73,-4.02,-0.73,-4.01,4.01,3.87,3.39,3.28,3.29,3.29
26.69,-0.67,-3.95,-0.66,-3.95,3.95,3.80,3.47,3.28,3.29,3.28
26.96,-0.60,-3.88,-0.60,-3.89,3.89,3.72,3.54,3.29,3.28,3.28
27.23,-0.54,-3.82,-0.54,-3.82,3.82,3.64,3.61,3.28,3.28,3.28
27.50,-0.48,-3.76,-0.48,-3.76,3.76,3.56,3.68,3.28,3.28,3.28
27.77,-0.42,-3.69,-0.42,-3.69,3.69,3.49,3.75,3.27,3.27,3.27
28.05,-0.36,-3.63,-0.36,-3.62,3.62,3.41,3.81,3.27,3.27,3.27
28.33,-0.29,-3.55,-0.29,-3.56,3.56,3.33,3.87,3.27,3.27,3.26
28.62,-0.23,-3.49,-0.23,-3.49,3.49,3.26,3.93,3.26,3.26,3.26
28.90,-0.17,-3.43,-0.17,-3.43,3.43,3.18,3.98,3.26,3.26,3.26
29.19,-0.12,-3.37,-0.11,-3.36,3.36,3.11,4.02,3.25,3.26,3.25
29.48,-0.04,-3.30,-0.05,-3.30,3.30,3.04,4.06,3.26,3.25,3.26
29.78,0.01,-3.24,0.01,-3.24,3.24,2.97,4.09,3.25,3.25,3.25
30.08,0.06,-3.19,0.06,-3.18,3.18,2.89,4.12,3.24,3.24,3.25
30.38,0.11,-3.12,0.11,-3.13,3.12,2.83,4.14,3.23,3.23,3.23
30.68,0.16,-3.07,0.16,-3.07,3.06,2.76,4.15,3.22,3.22,3.23
30.99,0.22,-3.00,0.22,-3.00,3.00,2.69,4.15,3.22,3.22,3.22
31.30,0.28,-2.94,0.28,-2.94,2.94,2.62,4.15,3.22,3.22,3.22
31.61,0.34,-2.88,0.34,-2.88,2.88,2.56,4.14,3.22,3.22,3.22
31.93,0.39,-2.82,0.39,-2.82,2.82,2.49,4.12,3.21,3.21,3.21
32.24,0.43,-2.77,0.43,-2.77,2.76,2.43,4.10,3.19,3.20,3.20
32.57,0.48,-2.71,0.49,-2.71,2.70,2.37,4.06,3.18,3.19,3.20
32.89,0.55,-2.64,0.55,-2.64,2.64,2.30,4.02,3.19,3.19,3.19
33.22,0.61,-2.57,0.61,-2.58,2.58,2.24,3.98,3.19,3.19,3.18
33.55,0.66,-2.52,0.66,-2.52,2.52,2.19,3.93,3.18,3.18,3.18
33.89,0.71,-2.46,0.71,-2.46,2.46,2.13,3.87,3.17,3.17,3.17
34.23,0.76,-2.41,0.76,-2.40,2.40,2.07,3.80,3.16,3.16,3.17
34.57,0.81,-2.34,0.81,-2.34,2.34,2.01,3.74,3.15,3.15,3.16
34.92,0.86,-2.28,0.86,-2.28,2.28,1.96,3.66,3.14,3.15,3.14
35.27,0.92,-2.22,0.91,-2.22,2.22,1.91,3.59,3.14,3.14,3.14
35.62,0.97,-2.16,0.97,-2.16,2.16,1.85,3.50,3.13,3.13,3.13
35.97,1.01,-2.11,1.02,-2.10,2.10,1.80,3.42,3.11,3.12,3.12
36.33,1.08,-2.03,1.07,-2.04,2.04,1.75,3.34,3.13,3.11,3.12
36.70,1.11,-1.99,1.12,-1.98,1.99,1.70,3.25,3.10,3.10,3.10
37.06,1.16,-1.93,1.17,-1.93,1.93,1.65,3.16,3.09,3.10,3.09
37.43,1.22,-1.87,1.21,-1.87,1.87,1.61,3.07,3.10,3.08,3.09
37.81,1.25,-1.83,1.26,-1.82,1.82,1.56,2.97,3.07,3.08,3.08
38.19,1.30,-1.76,1.30,-1.77,1.76,1.51,2.88,3.07,3.07,3.06
38.57,1.34,-1.72,1.34,-1.72,1.71,1.47,2.79,3.05,3.05,3.06
38.95,1.39,-1.66,1.39,-1.66,1.66,1.43,2.69,3.05,3.04,3.05
39.34,1.42,-1.61,1.43,-1.61,1.61,1.38,2.60,3.03,3.03,3.03
39.74,1.48,-1.54,1.47,-1.55,1.55,1.34,2.51,3.03,3.03,3.02
40.14,1.51,-1.51,1.52,-1.50,1.50,1.30,2.41,3.01,3.02,3.02
40.54,1.56,-1.44,1.55,-1.45,1.45,1.26,2.32,3.02,3.01,3.00
40.94,1.59,-1.41,1.59,-1.41,1.41,1.22,2.23,3.00,3.00,3.00
41.35,1.62,-1.37,1.63,-1.36,1.36,1.18,2.14,2.98,2.99,2.99
41.76,1.67,-1.31,1.67,-1.32,1.32,1.14,2.05,2.99,2.98,2.98
42.18,1.71,-1.27,1.71,-1.27,1.27,1.10,1.96,2.98,2.98,2.98
42.60,1.74,-1.23,1.74,-1.23,1.23,1.06,1.87,2.97,2.97,2.97
43.03,1.77,-1.19,1.77,-1.18,1.18,1.03,1.79,2.95,2.96,2.96
43.46,1.81,-1.14,1.80,-1.14,1.13,0.99,1.70,2.95,2.94,2.95
43.90,1.83,-1.09,1.83,-1.10,1.09,0.96,1.62,2.92,2.92,2.92
44.33,1.86,-1.05,1.87,-1.04,1.04,0.92,1.54,2.90,2.91,2.91
44.78,1.90,-0.99,1.90,-0.99,0.99,0.89,1.46,2.89,2.90,2.89
45.23,1.95,-0.93,1.94,-0.94,0.94,0.85,1.38,2.89,2.88,2.88
45.68,1.98,-0.88,1.97,-0.89,0.90,0.82,1.30,2.88,2.87,2.86
46.13,1.99,-0.86,2.01,-0.84,0.85,0.79,1.22,2.84,2.86,2.85
46.60,2.04,-0.80,2.03,-0.81,0.80,0.75,1.14,2.84,2.84,2.84
47.06,2.07,-0.76,2.06,-0.77,0.76,0.72,1.07,2.83,2.82,2.83
47.53,2.08,-0.73,2.10,-0.72,0.71,0.69,1.00,2.79,2.81,2.81
48.01,2.13,-0.67,2.13,-0.67,0.66,0.66,0.92,2.79,2.79,2.80
48.49,2.17,-0.61,2.16,-0.62,0.61,0.63,0.85,2.78,2.77,2.78
48.97,2.18,-0.57,2.19,-0.56,0.56,0.60,0.78,2.74,2.75,2.75
49.46,2.22,-0.50,2.22,-0.51,0.51,0.57,0.71,2.73,2.73,2.72
49.96,2.25,-0.45,2.25,-0.45,0.46,0.54,0.64,2.71,2.71,2.70
50.46,2.27,-0.42,2.28,-0.40,0.41,0.51,0.58,2.68,2.69,2.69
50.96,2.32,-0.35,2.31,-0.36,0.36,0.48,0.51,2.68,2.67,2.67
51.47,2.33,-0.31,2.34,-0.31,0.31,0.45,0.45,2.64,2.65,2.64
51.99,2.36,-0.26,2.36,-0.27,0.26,0.42,0.38,2.62,2.62,2.62
52.51,2.39,-0.22,2.39,-0.22,0.22,0.40,0.32,2.61,2.61,2.61
53.03,2.41,-0.18,2.42,-0.18,0.17,0.37,0.26,2.59,2.59,2.60
53.56,2.46,-0.12,2.45,-0.13,0.13,0.34,0.20,2.59,2.58,2.58
54.10,2.46,-0.10,2.47,-0.09,0.09,0.31,0.14,2.55,2.55,2.56
54.64,2.50,-0.04,2.49,-0.04,0.04,0.29,0.09,2.54,2.54,2.54
55.18,2.50,-0.01,2.51,-0.00,-0.00,0.26,0.03,2.50,2.51,2.52
55.74,2.55,0.06,2.54,0.04,-0.04,0.23,-0.02,2.51,2.50,2.49
56.29,2.55,0.07,2.56,0.08,-0.08,0.21,-0.07,2.47,2.48,2.48
56.86,2.59,0.13,2.59,0.12,-0.11,0.18,-0.12,2.48,2.47,2.46
57.42,2.60,0.16,2.59,0.15,-0.15,0.15,-0.17,2.45,2.45,2.44
58.00,2.60,0.17,2.61,0.18,-0.18,0.13,-0.22,2.42,2.43,2.43
58.58,2.60,0.19,2.62,0.20,-0.20,0.10,-0.27,2.40,2.41,2.42
59.16,2.64,0.24,2.63,0.23,-0.23,0.07,-0.31,2.41,2.40,2.40
59.76,2.64,0.25,2.64,0.25,-0.25,0.05,-0.35,2.39,2.38,2.39
60.35,2.64,0.28,2.64,0.28,-0.28,0.02,-0.39,2.36,2.37,2.36
60.96,2.64,0.29,2.64,0.30,-0.30,-0.00,-0.43,2.34,2.34,2.35
61.57,2.64,0.33,2.64,0.32,-0.32,-0.03,-0.47,2.32,2.32,2.31
62.18,2.64,0.35,2.64,0.35,-0.35,-0.06,-0.50,2.29,2.29,2.29
62.80,2.64,0.37,2.64,0.37,-0.37,-0.08,-0.53,2.27,2.27,2.27
63.43,2.64,0.39,2.64,0.39,-0.39,-0.11,-0.56,2.25,2.25,2.25
64.07,2.64,0.41,2.64,0.41,-0.41,-0.13,-0.59,2.23,2.23,2.23
64.71,2.64,0.43,2.64,0.43,-0.43,-0.16,-0.62,2.21,2.21,2.21
65.35,2.64,0.45,2.64,0.45,-0.45,-0.19,-0.64,2.19,2.19,2.19
66.01,2.64,0.46,2.64,0.46,-0.47,-0.21,-0.67,2.17,2.17,2.18
66.67,2.64,0.48,2.64,0.48,-0.49,-0.24,-0.69,2.16,2.16,2.16
67.33,2.64,0.50,2.64,0.50,-0.50,-0.27,-0.71,2.14,2.14,2.14
68.01,2.64,0.52,2.64,0.52,-0.52,-0.29,-0.73,2.12,2.12,2.12
68.69,2.64,0.54,2.64,0.55,-0.54,-0.32,-0.75,2.10,2.10,2.10
69.37,2.64,0.57,2.64,0.57,-0.56,-0.35,-0.77,2.08,2.08,2.08
70.07,2.64,0.59,2.64,0.58,-0.58,-0.37,-0.79,2.06,2.06,2.05
70.77,2.64,0.60,2.64,0.60,-0.61,-0.40,-0.80,2.04,2.04,2.04
71.48,2.64,0.62,2.64,0.62,-0.63,-0.43,-0.82,2.01,2.01,2.02
72.19,2.64,0.65,2.64,0.65,-0.65,-0.46,-0.83,1.99,1.99,1.99
72.91,2.64,0.67,2.64,0.67,-0.67,-0.48,-0.85,1.97,1.97,1.97
73.64,2.64,0.70,2.64,0.69,-0.69,-0.51,-0.86,1.95,1.95,1.95
74.38,2.64,0.71,2.64,0.71,-0.71,-0.54,-0.88,1.93,1.93,1.93
75.12,2.64,0.74,2.64,0.73,-0.73,-0.57,-0.89,1.91,1.91,1.90
75.87,2.64,0.75,2.64,0.75,-0.75,-0.59,-0.91,1.89,1.89,1.89
76.63,2.64,0.77,2.64,0.77,-0.77,-0.62,-0.92,1.87,1.87,1.87
77.40,2.64,0.79,2.64,0.79,-0.79,-0.65,-0.94,1.86,1.86,1.85
78.17,2.64,0.82,2.63,0.80,-0.80,-0.68,-0.95,1.84,1.83,1.82
78.95,2.62,0.81,2.62,0.81,-0.81,-0.71,-0.97,1.81,1.81,1.81
79.74,2.60,0.81,2.61,0.81,-0.82,-0.74,-0.98,1.78,1.79,1.80
80.54,2.60,0.83,2.60,0.83,-0.83,-0.77,-1.00,1.77,1.77,1.78
81.35,2.60,0.85,2.60,0.84,-0.84,-0.80,-1.02,1.76,1.76,1.75
82.16,2.60,0.87,2.58,0.85,-0.84,-0.83,-1.04,1.76,1.74,1.73
82.98,2.55,0.83,2.57,0.86,-0.85,-0.86,-1.06,1.70,1.72,1.72
83.81,2.55,0.86,2.55,0.86,-0.86,-0.89,-1.08,1.70,1.69,1.69
84.65,2.54,0.87,2.53,0.86,-0.86,-0.92,-1.10,1.68,1.67,1.67
85.50,2.50,0.85,2.51,0.86,-0.86,-0.95,-1.12,1.64,1.65,1.65
86.35,2.50,0.87,2.49,0.86,-0.86,-0.98,-1.14,1.64,1.62,1.63
87.22,2.46,0.86,2.48,0.87,-0.87,-1.02,-1.17,1.59,1.61,1.60
88.09,2.46,0.88,2.46,0.88,-0.87,-1.05,-1.19,1.59,1.59,1.58
88.97,2.46,0.90,2.44,0.88,-0.88,-1.08,-1.22,1.58,1.56,1.56
89.86,2.41,0.87,2.43,0.89,-0.89,-1.11,-1.25,1.52,1.54,1.54
90.76,2.41,0.91,2.41,0.90,-0.91,-1.15,-1.27,1.50,1.50,1.50
91.66,2.41,0.92,2.41,0.93,-0.93,-1.18,-1.30,1.48,1.48,1.49
92.58,2.41,0.96,2.41,0.95,-0.96,-1.21,-1.33,1.45,1.45,1.45
93.51,2.41,0.98,2.41,0.98,-0.99,-1.25,-1.37,1.42,1.42,1.43
94.44,2.41,1.01,2.43,1.03,-1.03,-1.28,-1.40,1.38,1.40,1.40
95.39,2.46,1.08,2.44,1.07,-1.07,-1.31,-1.43,1.39,1.37,1.38
96.34,2.46,1.12,2.46,1.12,-1.11,-1.35,-1.46,1.35,1.35,1.34
97.30,2.46,1.15,2.48,1.17,-1.16,-1.38,-1.50,1.30,1.32,1.31
98.28,2.49,1.21,2.48,1.20,-1.20,-1.42,-1.53,1.29,1.28,1.28
99.26,2.50,1.25,2.50,1.25,-1.25,-1.45,-1.57,1.25,1.25,1.25
100.25,2.50,1.28,2.52,1.30,-1.30,-1.48,-1.61,1.20,1.22,1.22
101.25,2.55,1.36,2.53,1.34,-1.34,-1.52,-1.64,1.21,1.19,1.19
102.27,2.55,1.39,2.55,1.39,-1.39,-1.55,-1.68,1.16,1.16,1.16
103.29,2.55,1.43,2.57,1.43,-1.43,-1.59,-1.72,1.12,1.14,1.13
104.32,2.58,1.47,2.58,1.47,-1.47,-1.62,-1.75,1.11,1.11,1.11
105.37,2.60,1.52,2.59,1.52,-1.51,-1.66,-1.79,1.09,1.08,1.08
106.42,2.60,1.55,2.60,1.55,-1.55,-1.69,-1.83,1.05,1.05,1.05
107.48,2.60,1.58,2.60,1.59,-1.59,-1.73,-1.86,1.01,1.01,1.02
108.56,2.60,1.62,2.61,1.63,-1.63,-1.76,-1.90,0.97,0.98,0.98
109.64,2.62,1.67,2.61,1.66,-1.66,-1.80,-1.93,0.96,0.95,0.95
110.74,2.62,1.70,2.62,1.70,-1.70,-1.83,-1.96,0.92,0.92,0.92
111.85,2.62,1.73,2.62,1.74,-1.73,-1.86,-1.99,0.89,0.89,0.89
112.97,2.62,1.78,2.62,1.77,-1.77,-1.90,-2.02,0.85,0.85,0.84
114.10,2.61,1.80,2.61,1.80,-1.80,-1.93,-2.05,0.81,0.81,0.81
115.24,2.60,1.83,2.60,1.83,-1.84,-1.96,-2.08,0.76,0.77,0.78
116.39,2.60,1.86,2.60,1.86,-1.87,-2.00,-2.10,0.73,0.73,0.74
117.55,2.60,1.90,2.60,1.90,-1.90,-2.03,-2.12,0.70,0.71,0.70
118.73,2.60,1.94,2.60,1.93,-1.92,-2.06,-2.14,0.68,0.68,0.66
119.92,2.60,1.97,2.58,1.95,-1.95,-2.09,-2.16,0.65,0.64,0.64
121.12,2.55,1.95,2.57,1.97,-1.97,-2.12,-2.17,0.58,0.60,0.60
122.33,2.55,1.99,2.56,1.99,-1.99,-2.15,-2.18,0.56,0.56,0.56
123.55,2.55,2.01,2.54,2.00,-2.01,-2.18,-2.19,0.54,0.53,0.54
124.79,2.53,2.03,2.53,2.03,-2.03,-2.20,-2.19,0.50,0.50,0.50
126.03,2.50,2.03,2.51,2.05,-2.05,-2.23,-2.19,0.45,0.46,0.47
127.29,2.50,2.07,2.49,2.06,-2.07,-2.26,-2.19,0.43,0.42,0.43
128.57,2.48,2.09,2.48,2.09,-2.09,-2.28,-2.18,0.39,0.39,0.39
129.85,2.46,2.11,2.47,2.11,-2.11,-2.30,-2.17,0.35,0.36,0.35
131.15,2.46,2.14,2.45,2.12,-2.12,-2.32,-2.16,0.34,0.32,0.32
132.46,2.42,2.13,2.43,2.14,-2.14,-2.34,-2.15,0.28,0.29,0.29
133.79,2.41,2.14,2.41,2.15,-2.15,-2.36,-2.13,0.26,0.26,0.27
135.12,2.41,2.19,2.39,2.16,-2.17,-2.38,-2.11,0.24,0.23,0.22
136.48,2.36,2.16,2.38,2.17,-2.18,-2.40,-2.09,0.18,0.20,0.20
137.84,2.36,2.19,2.35,2.19,-2.18,-2.41,-2.07,0.18,0.17,0.17
139.22,2.32,2.19,2.33,2.19,-2.19,-2.42,-2.04,0.14,0.14,0.13
140.61,2.31,2.21,2.30,2.19,-2.19,-2.43,-2.01,0.12,0.12,0.10
142.02,2.27,2.17,2.28,2.19,-2.19,-2.44,-1.98,0.09,0.09,0.10
143.44,2.25,2.18,2.25,2.18,-2.18,-2.45,-1.95,0.07,0.07,0.07
144.87,2.22,2.18,2.22,2.17,-2.18,-2.46,-1.92,0.04,0.04,0.04
146.32,2.18,2.17,2.19,2.17,-2.17,-2.46,-1.89,0.01,0.02,0.01
147.78,2.15,2.15,2.15,2.16,-2.16,-2.46,-1.86,-0.01,-0.01,-0.00
149.26,2.12,2.15,2.12,2.15,-2.15,-2.46,-1.82,-0.03,-0.03,-0.03
150.75,2.08,2.14,2.08,2.14,-2.14,-2.46,-1.79,-0.06,-0.06,-0.06
152.26,2.04,2.13,2.04,2.13,-2.13,-2.45,-1.76,-0.09,-0.09,-0.09
153.78,2.00,2.11,2.00,2.12,-2.12,-2.44,-1.72,-0.12,-0.11,-0.11
155.32,1.97,2.11,1.96,2.10,-2.11,-2.43,-1.69,-0.13,-0.14,-0.14
156.88,1.92,2.09,1.92,2.09,-2.09,-2.42,-1.66,-0.17,-0.17,-0.17
158.44,1.88,2.08,1.88,2.08,-2.08,-2.41,-1.62,-0.20,-0.20,-0.20
160.03,1.83,2.06,1.83,2.06,-2.06,-2.39,-1.59,-0.23,-0.23,-0.23
161.63,1.78,2.04,1.79,2.05,-2.04,-2.38,-1.56,-0.26,-0.26,-0.26
163.24,1.75,2.04,1.74,2.03,-2.02,-2.36,-1.53,-0.27,-0.28,-0.29
164.88,1.69,2.00,1.69,2.01,-2.00,-2.33,-1.50,-0.31,-0.31,-0.31
166.53,1.64,1.98,1.65,1.99,-1.99,-2.31,-1.48,-0.34,-0.34,-0.34
168.19,1.60,1.97,1.59,1.96,-1.97,-2.28,-1.45,-0.37,-0.37,-0.37
169.87,1.55,1.95,1.55,1.95,-1.95,-2.25,-1.42,-0.40,-0.40,-0.40
171.57,1.50,1.93,1.51,1.93,-1.94,-2.22,-1.40,-0.44,-0.43,-0.42
173.29,1.47,1.92,1.47,1.92,-1.92,-2.19,-1.37,-0.45,-0.46,-0.45
175.02,1.43,1.91,1.43,1.91,-1.91,-2.16,-1.35,-0.48,-0.49,-0.48
176.77,1.39,1.90,1.39,1.91,-1.90,-2.12,-1.33,-0.51,-0.51,-0.51
178.54,1.35,1.90,1.35,1.90,-1.90,-2.08,-1.31,-0.55,-0.54,-0.55
180.32,1.32,1.90,1.32,1.90,-1.89,-2.04,-1.29,-0.57,-0.57,-0.58
182.13,1.29,1.89,1.29,1.89,-1.89,-2.00,-1.27,-0.59,-0.60,-0.60
183.95,1.25,1.88,1.25,1.88,-1.88,-1.96,-1.25,-0.63,-0.63,-0.63
185.79,1.20,1.86,1.21,1.87,-1.87,-1.92,-1.24,-0.67,-0.67,-0.66
187.65,1.17,1.86,1.17,1.86,-1.86,-1.87,-1.22,-0.69,-0.69,-0.69
189.52,1.14,1.85,1.14,1.85,-1.86,-1.82,-1.21,-0.71,-0.71,-0.71
191.42,1.11,1.85,1.11,1.85,-1.84,-1.78,-1.20,-0.73,-0.73,-0.74
193.33,1.08,1.84,1.08,1.83,-1.83,-1.73,-1.18,-0.75,-0.75,-0.76
195.27,1.03,1.81,1.03,1.81,-1.81,-1.68,-1.17,-0.78,-0.78,-0.78
197.22,0.99,1.79,0.99,1.80,-1.79,-1.62,-1.16,-0.80,-0.80,-0.80
199.19,0.94,1.77,0.95,1.77,-1.77,-1.57,-1.15,-0.83,-0.82,-0.83
201.18,0.91,1.75,0.90,1.75,-1.74,-1.52,-1.14,-0.83,-0.84,-0.84
203.19,0.85,1.70,0.85,1.71,-1.71,-1.46,-1.13,-0.86,-0.86,-0.85
205.23,0.80,1.67,0.81,1.67,-1.68,-1.41,-1.12,-0.88,-0.87,-0.87
207.28,0.76,1.63,0.76,1.64,-1.64,-1.35,-1.11,-0.88,-0.89,-0.87
209.35,0.71,1.60,0.71,1.60,-1.61,-1.30,-1.11,-0.89,-0.89,-0.89
211.44,0.66,1.57,0.66,1.57,-1.57,-1.24,-1.10,-0.90,-0.90,-0.91
213.56,0.62,1.53,0.62,1.53,-1.52,-1.18,-1.09,-0.90,-0.90,-0.91
215.69,0.57,1.48,0.57,1.48,-1.48,-1.13,-1.08,-0.91,-0.91,-0.91
217.85,0.52,1.44,0.52,1.43,-1.43,-1.07,-1.07,-0.91,-0.92,-0.92
220.03,0.45,1.37,0.46,1.38,-1.38,-1.01,-1.06,-0.93,-0.92,-0.92
222.23,0.41,1.34,0.41,1.33,-1.33,-0.95,-1.05,-0.92,-0.92,-0.93
224.45,0.36,1.28,0.35,1.28,-1.28,-0.89,-1.04,-0.92,-0.92,-0.92
226.70,0.30,1.22,0.31,1.22,-1.22,-0.84,-1.03,-0.92,-0.92,-0.91
228.96,0.25,1.16,0.26,1.16,-1.17,-0.78,-1.02,-0.92,-0.92,-0.91
231.25,0.22,1.12,0.21,1.11,-1.12,-0.72,-1.00,-0.90,-0.91,-0.90
233.57,0.16,1.05,0.17,1.07,-1.07,-0.66,-0.99,-0.90,-0.90,-0.89
235.90,0.13,1.02,0.13,1.01,-1.01,-0.60,-0.97,-0.88,-0.89,-0.89
238.26,0.08,0.97,0.08,0.96,-0.96,-0.54,-0.95,-0.88,-0.88,-0.89
240.64,0.03,0.90,0.04,0.91,-0.90,-0.49,-0.93,-0.87,-0.87,-0.87
243.05,-0.01,0.85,-0.01,0.84,-0.84,-0.43,-0.91,-0.85,-0.86,-0.86
245.48,-0.06,0.78,-0.06,0.78,-0.78,-0.37,-0.89,-0.84,-0.84,-0.84
247.93,-0.11,0.72,-0.11,0.73,-0.72,-0.31,-0.86,-0.83,-0.83,-0.83
250.41,-0.15,0.67,-0.15,0.66,-0.66,-0.26,-0.83,-0.81,-0.81,-0.82
252.92,-0.20,0.60,-0.20,0.60,-0.60,-0.20,-0.80,-0.80,-0.80,-0.80
255.45,-0.25,0.52,-0.25,0.53,-0.53,-0.15,-0.77,-0.78,-0.78,-0.77
258.00,-0.29,0.47,-0.29,0.46,-0.47,-0.09,-0.74,-0.76,-0.76,-0.75
260.58,-0.34,0.40,-0.34,0.40,-0.40,-0.03,-0.70,-0.74,-0.74,-0.74
263.19,-0.37,0.34,-0.38,0.34,-0.34,0.02,-0.66,-0.70,-0.71,-0.71
265.82,-0.43,0.27,-0.42,0.27,-0.27,0.07,-0.62,-0.70,-0.69,-0.70
268.48,-0.46,0.21,-0.47,0.20,-0.20,0.13,-0.58,-0.66,-0.67,-0.67
271.16,-0.51,0.13,-0.51,0.13,-0.14,0.18,-0.54,-0.64,-0.65,-0.64
273.87,-0.57,0.06,-0.56,0.07,-0.07,0.23,-0.49,-0.64,-0.62,-0.63
276.61,-0.60,0.00,-0.61,-0.00,0.00,0.29,-0.44,-0.60,-0.61,-0.60
279.38,-0.65,-0.07,-0.65,-0.07,0.07,0.34,-0.39,-0.58,-0.58,-0.58
282.17,-0.71,-0.14,-0.70,-0.13,0.14,0.39,-0.34,-0.57,-0.56,-0.57
284.99,-0.74,-0.20,-0.75,-0.21,0.21,0.44,-0.29,-0.53,-0.54,-0.54
287.84,-0.79,-0.27,-0.79,-0.27,0.27,0.49,-0.23,-0.52,-0.52,-0.52
290.72,-0.85,-0.35,-0.84,-0.34,0.34,0.54,-0.18,-0.51,-0.49,-0.49
293.63,-0.88,-0.40,-0.89,-0.41,0.41,0.59,-0.12,-0.47,-0.48,-0.48
296.57,-0.93,-0.48,-0.93,-0.48,0.48,0.64,-0.06,-0.45,-0.46,-0.45
299.53,-0.99,-0.56,-0.98,-0.55,0.55,0.69,-0.01,-0.44,-0.43,-0.43
302.53,-1.02,-0.60,-1.02,-0.62,0.62,0.73,0.05,-0.40,-0.41,-0.41
305.55,-1.07,-0.69,-1.07,-0.68,0.68,0.78,0.12,-0.38,-0.38,-0.38
308.61,-1.10,-0.74,-1.10,-0.75,0.75,0.83,0.18,-0.35,-0.35,-0.36
311.69,-1.15,-0.82,-1.15,-0.82,0.82,0.87,0.24,-0.33,-0.33,-0.33
314.81,-1.19,-0.90,-1.19,-0.89,0.89,0.92,0.31,-0.30,-0.30,-0.29
317.96,-1.24,-0.96,-1.24,-0.96,0.95,0.96,0.37,-0.28,-0.28,-0.27
321.14,-1.27,-1.01,-1.28,-1.02,1.02,1.01,0.44,-0.25,-0.26,-0.26
324.35,-1.33,-1.09,-1.32,-1.09,1.09,1.05,0.50,-0.24,-0.24,-0.24
327.59,-1.36,-1.15,-1.36,-1.15,1.15,1.09,0.57,-0.21,-0.21,-0.21
330.87,-1.41,-1.22,-1.41,-1.21,1.21,1.14,0.64,-0.20,-0.19,-0.19
334.18,-1.44,-1.27,-1.45,-1.27,1.28,1.18,0.71,-0.16,-0.17,-0.17
337.52,-1.50,-1.34,-1.49,-1.34,1.34,1.22,0.78,-0.16,-0.15,-0.15
340.90,-1.53,-1.40,-1.53,-1.40,1.41,1.26,0.85,-0.12,-0.13,-0.13
344.30,-1.58,-1.47,-1.58,-1.47,1.47,1.30,0.92,-0.11,-0.11,-0.11
347.75,-1.62,-1.53,-1.62,-1.53,1.54,1.34,0.99,-0.08,-0.09,-0.09
351.23,-1.67,-1.60,-1.67,-1.60,1.60,1.38,1.07,-0.07,-0.07,-0.07
354.74,-1.72,-1.67,-1.72,-1.66,1.67,1.42,1.14,-0.05,-0.05,-0.05
358.28,-1.76,-1.73,-1.76,-1.73,1.73,1.46,1.22,-0.03,-0.03,-0.03
361.87,-1.81,-1.80,-1.81,-1.79,1.79,1.50,1.29,-0.02,-0.01,-0.01
365.49,-1.85,-1.85,-1.85,-1.85,1.85,1.54,1.37,0.00,0.00,0.01
369.14,-1.89,-1.90,-1.89,-1.91,1.91,1.57,1.45,0.02,0.02,0.01
372.83,-1.92,-1.95,-1.93,-1.96,1.95,1.61,1.53,0.03,0.03,0.03
376.56,-1.96,-2.00,-1.95,-2.00,1.99,1.65,1.61,0.04,0.04,0.04
380.33,-1.97,-2.04,-1.97,-2.03,2.03,1.69,1.69,0.06,0.06,0.07
384.13,-1.97,-2.05,-1.98,-2.06,2.05,1.72,1.77,0.08,0.07,0.08
387.97,-1.99,-2.08,-1.98,-2.07,2.07,1.76,1.85,0.08,0.09,0.09
391.85,-1.99,-2.09,-1.98,-2.08,2.08,1.79,1.93,0.09,0.10,0.10
395.77,-1.97,-2.09,-1.98,-2.10,2.09,1.83,2.01,0.12,0.11,0.12
399.73,-1.97,-2.10,-1.97,-2.09,2.09,1.86,2.10,0.13,0.13,0.13
403.72,-1.97,-2.11,-1.95,-2.09,2.10,1.90,2.18,0.13,0.15,0.14
407.76,-1.92,-2.07,-1.94,-2.09,2.10,1.93,2.26,0.18,0.16,0.15
411.84,-1.92,-2.08,-1.92,-2.08,2.09,1.97,2.34,0.17,0.17,0.17
415.96,-1.92,-2.09,-1.92,-2.09,2.09,2.00,2.42,0.17,0.17,0.17
420.12,-1.92,-2.10,-1.92,-2.10,2.09,2.04,2.50,0.17,0.17,0.18
424.32,-1.92,-2.11,-1.90,-2.10,2.08,2.07,2.58,0.17,0.18,0.19
428.56,-1.87,-2.07,-1.89,-2.09,2.09,2.11,2.66,0.22,0.20,0.20
432.85,-1.87,-2.08,-1.87,-2.08,2.09,2.14,2.74,0.22,0.22,0.21
437.18,-1.87,-2.09,-1.86,-2.09,2.10,2.18,2.81,0.23,0.24,0.22
441.55,-1.87,-2.11,-1.87,-2.11,2.12,2.21,2.89,0.25,0.25,0.24
445.96,-1.87,-2.12,-1.88,-2.13,2.14,2.24,2.95,0.27,0.25,0.25
450.42,-1.92,-2.18,-1.90,-2.17,2.16,2.28,3.02,0.25,0.26,0.26
454.93,-1.92,-2.20,-1.92,-2.20,2.20,2.31,3.08,0.28,0.28,0.28
459.48,-1.95,-2.24,-1.95,-2.24,2.24,2.35,3.14,0.29,0.29,0.29
464.07,-1.97,-2.28,-1.97,-2.28,2.28,2.38,3.20,0.31,0.31,0.31
468.71,-2.01,-2.34,-2.01,-2.33,2.33,2.42,3.25,0.32,0.33,0.33
473.40,-2.04,-2.38,-2.04,-2.38,2.38,2.45,3.29,0.34,0.34,0.34
478.13,-2.07,-2.43,-2.07,-2.43,2.43,2.49,3.33,0.36,0.35,0.36
482.91,-2.11,-2.48,-2.11,-2.48,2.48,2.52,3.37,0.37,0.37,0.37
487.74,-2.14,-2.53,-2.14,-2.53,2.52,2.56,3.40,0.38,0.39,0.39
492.62,-2.17,-2.58,-2.17,-2.58,2.57,2.59,3.42,0.40,0.40,0.41
497.55,-2.20,-2.62,-2.20,-2.62,2.62,2.63,3.44,0.42,0.42,0.42
502.52,-2.24,-2.68,-2.23,-2.67,2.67,2.66,3.45,0.43,0.44,0.44
507.55,-2.26,-2.71,-2.26,-2.71,2.71,2.70,3.46,0.45,0.45,0.45
512.62,-2.29,-2.76,-2.29,-2.76,2.76,2.73,3.46,0.47,0.47,0.47
517.75,-2.32,-2.81,-2.32,-2.80,2.80,2.77,3.46,0.48,0.48,0.49
