frequency,raw
20,5.43
21,5.59
22,5.73
23,5.87
24,6.01
25,6.14
26,6.26
27,6.38
28,6.49
29,6.59
30,6.69
31,6.78
32,6.85
33,6.94
34,7.01
35,7.08
36,7.14
37,7.19
38,7.25
39,7.29
40,7.32
41,7.34
42,7.36
43,7.38
44,7.41
45,7.44
46,7.48
47,7.51
48,7.53
49,7.55
50,7.58
51,7.61
52,7.65
53,7.68
54,7.71
55,7.73
56,7.75
57,7.76
58,7.77
59,7.77
60,7.76
61,7.74
62,7.74
63,7.74
64,7.74
65,7.74
66,7.74
67,7.74
68,7.74
69,7.74
70,7.74
71,7.74
72,7.74
73,7.74
74,7.74
75,7.74
76,7.74
77,7.74
78,7.74
79,7.74
80,7.74
81,7.74
82,7.74
83,7.74
84,7.74
85,7.74
86,7.74
87,7.74
88,7.74
89,7.74
90,7.74
91,7.74
92,7.74
93,7.74
94,7.74
95,7.74
96,7.74
97,7.74
98,7.75
99,7.75
100,7.76
101,7.77
102,7.77
104,7.76
105,7.74
106,7.72
107,7.69
108,7.66
109,7.63
110,7.60
111,7.56
112,7.53
113,7.50
114,7.47
115,7.44
117,7.42
118,7.41
119,7.40
120,7.40
121,7.41
123,7.41
124,7.42
125,7.42
126,7.42
128,7.42
129,7.42
130,7.42
131,7.43
133,7.44
134,7.44
135,7.44
137,7.42
138,7.41
140,7.38
141,7.35
142,7.32
144,7.29
145,7.25
147,7.22
148,7.19
150,7.16
151,7.13
153,7.10
154,7.09
156,7.08
157,7.09
159,7.10
160,7.11
162,7.11
164,7.09
165,7.07
167,7.04
169,7.01
170,6.98
172,6.94
174,6.91
175,6.87
177,6.84
179,6.81
181,6.79
183,6.77
184,6.75
186,6.75
188,6.75
190,6.76
192,6.77
194,6.77
196,6.78
198,6.79
200,6.79
202,6.79
204,6.79
206,6.77
208,6.75
210,6.72
212,6.69
214,6.66
216,6.63
218,6.59
221,6.56
223,6.52
225,6.50
227,6.48
229,6.47
232,6.46
234,6.44
236,6.43
239,6.42
241,6.40
244,6.38
246,6.35
248,6.32
251,6.28
253,6.26
256,6.23
259,6.21
261,6.18
264,6.15
266,6.11
269,6.08
272,6.05
274,6.02
277,6.00
280,5.98
283,5.95
286,5.93
288,5.90
291,5.86
294,5.82
297,5.78
300,5.74
303,5.70
306,5.68
309,5.66
312,5.64
316,5.61
319,5.56
322,5.51
325,5.47
328,5.42
332,5.37
335,5.34
338,5.31
342,5.29
345,5.26
349,5.22
352,5.17
356,5.12
359,5.08
363,5.04
366,5.01
370,4.98
374,4.95
377,4.91
381,4.86
385,4.81
389,4.76
393,4.72
397,4.69
401,4.65
405,4.61
409,4.58
413,4.53
417,4.49
421,4.45
425,4.41
430,4.36
434,4.31
438,4.27
443,4.23
447,4.19
451,4.14
456,4.08
460,4.02
465,3.96
470,3.91
474,3.86
479,3.82
484,3.78
489,3.73
494,3.67
499,3.62
504,3.57
509,3.53
514,3.49
519,3.45
524,3.40
529,3.36
535,3.31
540,3.27
545,3.22
551,3.18
556,3.14
562,3.09
568,3.04
573,3.00
579,2.95
585,2.91
591,2.87
596,2.83
602,2.78
608,2.73
615,2.68
621,2.63
627,2.60
633,2.55
639,2.50
646,2.44
652,2.37
659,2.32
665,2.27
672,2.23
679,2.17
686,2.11
692,2.05
699,1.99
706,1.93
713,1.87
721,1.82
728,1.75
735,1.68
742,1.62
750,1.57
757,1.52
765,1.46
773,1.40
780,1.33
788,1.27
796,1.22
804,1.18
812,1.15
820,1.10
828,1.05
837,1.01
845,0.97
853,0.93
862,0.90
871,0.85
879,0.79
888,0.74
897,0.70
906,0.67
915,0.62
924,0.56
933,0.49
943,0.43
952,0.36
962,0.28
971,0.22
981,0.16
991,0.08
1001,-0.01
1011,-0.10
1021,-0.19
1031,-0.26
1041,-0.34
1052,-0.42
1062,-0.49
1073,-0.55
1084,-0.60
1094,-0.63
1105,-0.66
1116,-0.68
1128,-0.70
1139,-0.72
1150,-0.73
1162,-0.73
1173,-0.72
1185,-0.69
1197,-0.67
1209,-0.65
1221,-0.63
1233,-0.60
1246,-0.55
1258,-0.50
1271,-0.44
1283,-0.39
1296,-0.34
1309,-0.29
1322,-0.23
1335,-0.17
1349,-0.12
1362,-0.07
1376,-0.03
1390,0.01
1404,0.06
1418,0.12
1432,0.17
1446,0.21
1461,0.25
1475,0.31
1490,0.37
1505,0.43
1520,0.50
1535,0.56
1550,0.63
1566,0.69
1582,0.75
1597,0.82
1613,0.91
1629,0.98
1646,1.05
1662,1.12
1679,1.19
1696,1.26
1713,1.34
1730,1.42
1747,1.49
1764,1.58
1782,1.67
1800,1.76
1818,1.86
1836,1.95
1854,2.05
1873,2.17
1892,2.27
1911,2.37
1930,2.47
1949,2.60
1969,2.72
1988,2.83
2008,2.94
2028,3.08
2048,3.21
2069,3.34
2090,3.48
2111,3.63
2132,3.77
2153,3.92
2175,4.06
2196,4.20
2218,4.35
2240,4.48
2263,4.61
2285,4.75
2308,4.87
2331,4.99
2355,5.10
2378,5.21
2402,5.32
2426,5.42
2450,5.52
2475,5.61
2500,5.70
2525,5.78
2550,5.87
2575,5.95
2601,6.03
2627,6.10
2653,6.17
2680,6.23
2707,6.30
2734,6.34
2761,6.38
2789,6.40
2817,6.42
2845,6.43
2873,6.41
2902,6.40
2931,6.38
2960,6.34
2990,6.28
3020,6.20
3050,6.12
3080,6.04
3111,5.94
3142,5.83
3174,5.70
3206,5.57
3238,5.44
3270,5.29
3303,5.14
3336,4.98
3369,4.81
3403,4.64
3437,4.47
3471,4.30
3506,4.14
3541,4.01
3576,3.89
3612,3.78
3648,3.69
3685,3.64
3721,3.63
3759,3.65
3796,3.69
3834,3.77
3873,3.89
3911,4.04
3950,4.22
3990,4.42
4030,4.64
4070,4.86
4111,5.07
4152,5.29
4193,5.51
4235,5.71
4278,5.93
4321,6.13
4364,6.32
4407,6.50
4451,6.66
4496,6.81
4541,6.96
4586,7.09
4632,7.19
4679,7.28
4725,7.36
4773,7.41
4820,7.43
4868,7.43
4917,7.39
4966,7.33
5016,7.24
5066,7.14
5117,7.01
5168,6.85
5220,6.68
5272,6.49
5325,6.29
5378,6.06
5432,5.82
5486,5.56
5541,5.28
5596,4.98
5652,4.66
5709,4.32
5766,3.95
5823,3.55
5882,3.15
5940,2.74
6000,2.30
6060,1.85
6120,1.39
6182,0.92
6244,0.44
6306,-0.04
6369,-0.51
6433,-0.97
6497,-1.42
6562,-1.88
6628,-2.34
6694,-2.80
6761,-3.26
6828,-3.72
6897,-4.17
6966,-4.63
7035,-5.06
7106,-5.46
7177,-5.85
7249,-6.22
7321,-6.58
7394,-6.93
7468,-7.26
7543,-7.56
7618,-7.83
7694,-8.07
7771,-8.29
7849,-8.49
7928,-8.68
8007,-8.85
8087,-9.00
8168,-9.13
8250,-9.23
8332,-9.31
8415,-9.35
8499,-9.36
8584,-9.33
8670,-9.26
8757,-9.15
8845,-9.00
8933,-8.82
9022,-8.61
9113,-8.35
9204,-8.05
9296,-7.73
9389,-7.39
9483,-7.04
9577,-6.67
9673,-6.29
9770,-5.92
9868,-5.56
9966,-5.23
10066,-4.93
10167,-4.65
10268,-4.42
10371,-4.24
10475,-4.09
10579,-3.98
10685,-3.90
10792,-3.88
10900,-3.89
11009,-3.92
11119,-3.98
11230,-4.08
11343,-4.21
11456,-4.38
11571,-4.58
11686,-4.81
11803,-5.08
11921,-5.39
12040,-5.71
12161,-6.04
12282,-6.37
12405,-6.69
12529,-7.01
12655,-7.31
12781,-7.57
12909,-7.81
13038,-8.02
13168,-8.19
13300,-8.35
13433,-8.49
13567,-8.61
13703,-8.72
13840,-8.83
13978,-8.93
14118,-9.06
14259,-9.19
14402,-9.35
14546,-9.51
14692,-9.67
14838,-9.86
14987,-10.08
15137,-10.35
15288,-10.71
15441,-11.17
15595,-11.75
15751,-12.47
15909,-13.33
16068,-14.34
16229,-15.48
16391,-16.73
16555,-18.05
16720,-19.44
16888,-20.85
17056,-22.26
17227,-23.63
17399,-24.93
17573,-26.12
17749,-27.19
17926,-28.12
18106,-28.91
18287,-29.64
18470,-30.28
18654,-30.82
18841,-31.26
19029,-31.61
19220,-31.86
19412,-32.02
19606,-32.09
19802,-32.06
20000,-31.93
