frequency,raw,error,smoothed,error_smoothed,equalization,parametric_eq,equalized_raw,equalized_smoothed,target
20.00,9.58,6.01,9.60,6.04,-6.04,-3.81,3.55,3.56,3.57
20.20,9.66,6.09,9.67,6.11,-6.11,-3.91,3.56,3.56,3.57
20.40,9.73,6.16,9.74,6.18,-6.18,-4.02,3.56,3.57,3.57
20.61,9.81,6.24,9.81,6.25,-6.25,-4.13,3.57,3.57,3.57
20.81,9.89,6.32,9.88,6.31,-6.31,-4.24,3.58,3.57,3.57
21.02,9.96,6.39,9.95,6.38,-6.38,-4.35,3.58,3.57,3.57
21.23,10.03,6.46,10.02,6.45,-6.45,-4.47,3.59,3.57,3.57
21.44,10.10,6.53,10.08,6.51,-6.51,-4.59,3.59,3.57,3.57
21.66,10.15,6.58,10.15,6.58,-6.58,-4.71,3.58,3.57,3.57
21.87,10.21,6.64,10.21,6.64,-6.64,-4.84,3.58,3.57,3.57
22.09,10.27,6.70,10.27,6.70,-6.70,-4.97,3.57,3.57,3.57
22.31,10.32,6.75,10.33,6.76,-6.76,-5.10,3.56,3.57,3.57
22.54,10.38,6.81,10.39,6.82,-6.82,-5.24,3.56,3.57,3.57
22.76,10.44,6.87,10.45,6.88,-6.88,-5.38,3.57,3.57,3.57
22.99,10.49,6.92,10.50,6.93,-6.93,-5.53,3.56,3.57,3.57
23.22,10.55,6.98,10.56,6.99,-6.99,-5.67,3.57,3.57,3.57
23.45,10.61,7.04,10.61,7.04,-7.04,-5.83,3.57,3.57,3.57
23.69,10.66,7.09,10.67,7.10,-7.10,-5.98,3.56,3.57,3.57
23.92,10.72,7.15,10.72,7.15,-7.15,-6.14,3.57,3.57,3.57
24.16,10.78,7.21,10.78,7.21,-7.21,-6.30,3.57,3.57,3.57
24.40,10.83,7.26,10.83,7.26,-7.26,-6.46,3.57,3.57,3.57
24.65,10.88,7.31,10.89,7.32,-7.32,-6.63,3.57,3.57,3.57
24.89,10.94,7.37,10.94,7.37,-7.37,-6.80,3.57,3.57,3.57
25.14,10.99,7.42,10.99,7.42,-7.42,-6.97,3.57,3.57,3.57
25.39,11.05,7.48,11.05,7.47,-7.47,-7.14,3.58,3.57,3.57
25.65,11.10,7.53,11.10,7.53,-7.53,-7.32,3.58,3.57,3.57
25.91,11.15,7.58,11.15,7.58,-7.58,-7.49,3.58,3.57,3.57
26.16,11.20,7.63,11.20,7.63,-7.63,-7.67,3.58,3.57,3.57
26.43,11.25,7.68,11.25,7.68,-7.68,-7.85,3.58,3.57,3.57
26.69,11.29,7.72,11.29,7.73,-7.73,-8.02,3.57,3.57,3.57
26.96,11.34,7.77,11.34,7.77,-7.77,-8.20,3.57,3.57,3.57
27.23,11.39,7.82,11.39,7.82,-7.82,-8.37,3.57,3.57,3.57
27.50,11.43,7.86,11.44,7.88,-7.88,-8.54,3.56,3.57,3.57
27.77,11.48,7.91,11.49,7.93,-7.93,-8.71,3.56,3.57,3.57
28.05,11.54,7.97,11.55,7.98,-7.98,-8.87,3.57,3.57,3.57
28.33,11.59,8.02,11.60,8.03,-8.03,-9.03,3.56,3.57,3.57
28.62,11.65,8.08,11.65,8.08,-8.08,-9.18,3.57,3.57,3.57
28.90,11.70,8.13,11.71,8.14,-8.14,-9.33,3.56,3.57,3.57
29.19,11.76,8.19,11.76,8.19,-8.19,-9.46,3.57,3.57,3.57
29.48,11.82,8.25,11.82,8.25,-8.25,-9.59,3.57,3.57,3.57
29.78,11.88,8.31,11.88,8.31,-8.31,-9.71,3.58,3.57,3.57
30.08,11.94,8.37,11.93,8.36,-8.36,-9.82,3.58,3.57,3.57
30.38,11.99,8.42,11.99,8.42,-8.42,-9.91,3.57,3.57,3.57
30.68,12.05,8.48,12.05,8.48,-8.48,-10.00,3.58,3.57,3.57
30.99,12.11,8.54,12.11,8.54,-8.54,-10.07,3.58,3.57,3.57
31.30,12.16,8.59,12.17,8.59,-8.59,-10.13,3.57,3.57,3.57
31.61,12.22,8.65,12.22,8.65,-8.65,-10.18,3.57,3.57,3.57
31.93,12.28,8.71,12.28,8.71,-8.71,-10.21,3.57,3.57,3.57
32.24,12.33,8.76,12.34,8.77,-8.77,-10.24,3.57,3.57,3.57
32.57,12.40,8.83,12.40,8.83,-8.83,-10.25,3.57,3.57,3.57
32.89,12.45,8.88,12.46,8.89,-8.89,-10.25,3.57,3.57,3.57
33.22,12.52,8.95,12.52,8.95,-8.95,-10.24,3.58,3.57,3.57
33.55,12.58,9.01,12.58,9.01,-9.01,-10.23,3.57,3.57,3.57
33.89,12.63,9.06,12.64,9.07,-9.07,-10.20,3.56,3.57,3.57
34.23,12.70,9.13,12.70,9.13,-9.13,-10.17,3.57,3.57,3.57
34.57,12.76,9.19,12.77,9.20,-9.20,-10.13,3.56,3.57,3.57
34.92,12.83,9.26,12.83,9.26,-9.26,-10.09,3.57,3.57,3.57
35.27,12.89,9.32,12.90,9.33,-9.33,-10.05,3.56,3.57,3.57
35.62,12.96,9.39,12.96,9.39,-9.39,-10.00,3.57,3.57,3.57
35.97,13.03,9.46,13.03,9.46,-9.46,-9.95,3.57,3.57,3.57
36.33,13.10,9.53,13.10,9.53,-9.53,-9.90,3.58,3.57,3.57
36.70,13.16,9.59,13.16,9.59,-9.59,-9.85,3.57,3.57,3.57
37.06,13.23,9.66,13.23,9.66,-9.66,-9.80,3.57,3.57,3.57
37.43,13.30,9.73,13.30,9.73,-9.73,-9.75,3.58,3.57,3.57
37.81,13.36,9.79,13.37,9.79,-9.79,-9.71,3.57,3.57,3.57
38.19,13.43,9.86,13.43,9.86,-9.86,-9.66,3.57,3.57,3.57
38.57,13.49,9.92,13.50,9.93,-9.93,-9.62,3.56,3.57,3.57
38.95,13.56,9.99,13.57,10.00,-10.00,-9.59,3.57,3.57,3.57
39.34,13.63,10.06,13.63,10.06,-10.06,-9.56,3.57,3.57,3.57
39.74,13.70,10.13,13.70,10.13,-10.13,-9.53,3.58,3.57,3.57
40.14,13.76,10.19,13.76,10.19,-10.19,-9.51,3.57,3.57,3.57
40.54,13.82,10.25,13.83,10.26,-10.26,-9.49,3.57,3.57,3.57
40.94,13.89,10.32,13.89,10.32,-10.32,-9.48,3.57,3.57,3.57
41.35,13.95,10.38,13.95,10.38,-10.38,-9.48,3.57,3.57,3.57
41.76,14.02,10.45,14.02,10.45,-10.45,-9.48,3.58,3.57,3.57
42.18,14.08,10.51,14.08,10.51,-10.51,-9.49,3.58,3.57,3.57
42.60,14.14,10.57,14.14,10.57,-10.57,-9.50,3.57,3.57,3.57
43.03,14.19,10.62,14.20,10.63,-10.63,-9.52,3.56,3.57,3.57
43.46,14.25,10.68,14.26,10.69,-10.69,-9.55,3.57,3.57,3.57
43.90,14.31,10.74,14.32,10.74,-10.74,-9.59,3.57,3.57,3.57
44.33,14.37,10.80,14.37,10.80,-10.80,-9.63,3.57,3.57,3.57
44.78,14.42,10.85,14.43,10.86,-10.86,-9.67,3.57,3.57,3.57
45.23,14.48,10.91,14.48,10.91,-10.91,-9.73,3.57,3.57,3.57
45.68,14.53,10.96,14.53,10.96,-10.96,-9.79,3.57,3.57,3.57
46.13,14.58,11.01,14.58,11.01,-11.01,-9.86,3.57,3.57,3.57
46.60,14.63,11.06,14.63,11.06,-11.06,-9.93,3.57,3.57,3.57
47.06,14.68,11.11,14.68,11.11,-11.11,-10.02,3.58,3.57,3.57
47.53,14.72,11.15,14.72,11.15,-11.15,-10.10,3.57,3.57,3.57
48.01,14.77,11.20,14.77,11.19,-11.19,-10.20,3.58,3.57,3.57
48.49,14.80,11.23,14.81,11.23,-11.23,-10.30,3.57,3.57,3.57
48.97,14.84,11.27,14.85,11.27,-11.27,-10.41,3.57,3.57,3.57
49.46,14.88,11.31,14.88,11.31,-11.31,-10.52,3.57,3.57,3.57
49.96,14.91,11.34,14.92,11.34,-11.34,-10.64,3.57,3.57,3.57
50.46,14.95,11.38,14.95,11.38,-11.38,-10.76,3.58,3.57,3.57
50.96,14.98,11.41,14.98,11.41,-11.41,-10.89,3.58,3.57,3.57
51.47,15.00,11.43,15.01,11.43,-11.43,-11.03,3.57,3.57,3.57
51.99,15.03,11.46,15.03,11.46,-11.46,-11.16,3.57,3.57,3.57
52.51,15.05,11.48,15.06,11.49,-11.49,-11.30,3.57,3.57,3.57
53.03,15.08,11.51,15.08,11.51,-11.51,-11.45,3.57,3.57,3.57
53.56,15.10,11.53,15.10,11.53,-11.53,-11.59,3.57,3.57,3.57
54.10,15.12,11.55,15.12,11.55,-11.55,-11.73,3.57,3.57,3.57
54.64,15.13,11.56,15.14,11.57,-11.57,-11.88,3.57,3.57,3.57
55.18,15.15,11.58,15.16,11.58,-11.58,-12.02,3.57,3.57,3.57
55.74,15.17,11.60,15.17,11.60,-11.60,-12.16,3.57,3.57,3.57
56.29,15.18,11.61,15.18,11.61,-11.61,-12.30,3.57,3.57,3.57
56.86,15.19,11.62,15.20,11.63,-11.63,-12.43,3.57,3.57,3.57
57.42,15.21,11.64,15.21,11.64,-11.64,-12.56,3.57,3.57,3.57
58.00,15.22,11.65,15.22,11.65,-11.65,-12.68,3.57,3.57,3.57
58.58,15.23,11.66,15.23,11.66,-11.66,-12.78,3.57,3.57,3.57
59.16,15.24,11.67,15.24,11.67,-11.67,-12.88,3.58,3.57,3.57
59.76,15.24,11.67,15.25,11.67,-11.67,-12.97,3.57,3.57,3.57
60.35,15.25,11.68,15.25,11.68,-11.68,-13.04,3.57,3.57,3.57
60.96,15.25,11.68,15.26,11.69,-11.69,-13.09,3.57,3.57,3.57
61.57,15.26,11.69,15.26,11.69,-11.69,-13.13,3.57,3.57,3.57
62.18,15.27,11.70,15.27,11.70,-11.70,-13.16,3.58,3.57,3.57
62.80,15.27,11.70,15.27,11.70,-11.70,-13.17,3.57,3.57,3.57
63.43,15.27,11.70,15.27,11.70,-11.70,-13.16,3.57,3.57,3.57
64.07,15.27,11.70,15.28,11.71,-11.71,-13.14,3.57,3.57,3.57
64.71,15.28,11.71,15.28,11.71,-11.71,-13.10,3.57,3.57,3.57
65.35,15.28,11.71,15.29,11.72,-11.72,-13.05,3.57,3.57,3.57
66.01,15.28,11.71,15.29,11.72,-11.72,-12.98,3.56,3.57,3.57
66.67,15.29,11.72,15.30,11.72,-11.72,-12.90,3.57,3.57,3.57
67.33,15.30,11.73,15.30,11.73,-11.73,-12.81,3.57,3.57,3.57
68.01,15.30,11.73,15.31,11.73,-11.73,-12.71,3.57,3.57,3.57
68.69,15.31,11.74,15.31,11.74,-11.74,-12.60,3.57,3.57,3.57
69.37,15.31,11.74,15.32,11.75,-11.75,-12.49,3.57,3.57,3.57
70.07,15.32,11.75,15.32,11.75,-11.75,-12.37,3.57,3.57,3.57
70.77,15.33,11.76,15.33,11.76,-11.76,-12.25,3.57,3.57,3.57
71.48,15.34,11.77,15.34,11.77,-11.77,-12.12,3.58,3.57,3.57
72.19,15.34,11.77,15.34,11.77,-11.77,-12.00,3.57,3.57,3.57
72.91,15.35,11.78,15.35,11.78,-11.78,-11.87,3.57,3.57,3.57
73.64,15.35,11.78,15.36,11.79,-11.79,-11.75,3.57,3.57,3.57
74.38,15.36,11.79,15.36,11.79,-11.79,-11.62,3.57,3.57,3.57
75.12,15.37,11.80,15.37,11.80,-11.80,-11.50,3.57,3.57,3.57
75.87,15.38,11.81,15.38,11.81,-11.81,-11.38,3.57,3.57,3.57
76.63,15.38,11.81,15.39,11.82,-11.82,-11.27,3.56,3.57,3.57
77.40,15.39,11.82,15.40,11.83,-11.83,-11.16,3.57,3.57,3.57
78.17,15.40,11.83,15.41,11.84,-11.84,-11.06,3.57,3.57,3.57
78.95,15.41,11.84,15.41,11.85,-11.85,-10.96,3.57,3.57,3.57
79.74,15.42,11.85,15.42,11.85,-11.85,-10.87,3.57,3.57,3.57
80.54,15.43,11.86,15.43,11.86,-11.86,-10.78,3.57,3.57,3.57
81.35,15.44,11.87,15.44,11.87,-11.87,-10.70,3.57,3.57,3.57
82.16,15.45,11.88,15.45,11.88,-11.88,-10.63,3.57,3.57,3.57
82.98,15.46,11.89,15.46,11.89,-11.89,-10.56,3.58,3.57,3.57
83.81,15.47,11.90,15.47,11.89,-11.89,-10.51,3.58,3.57,3.57
84.65,15.46,11.89,15.47,11.90,-11.90,-10.45,3.56,3.57,3.57
85.50,15.48,11.91,15.48,11.91,-11.91,-10.41,3.58,3.57,3.57
86.35,15.48,11.91,15.48,11.91,-11.91,-10.37,3.57,3.57,3.57
87.22,15.48,11.91,15.49,11.91,-11.91,-10.34,3.57,3.57,3.57
88.09,15.49,11.92,15.49,11.91,-11.91,-10.32,3.58,3.57,3.57
88.97,15.48,11.91,15.49,11.92,-11.92,-10.30,3.57,3.57,3.57
89.86,15.48,11.91,15.48,11.91,-11.91,-10.29,3.57,3.57,3.57
90.76,15.48,11.91,15.48,11.91,-11.91,-10.29,3.57,3.57,3.57
91.66,15.47,11.90,15.48,11.91,-11.91,-10.30,3.57,3.57,3.57
92.58,15.47,11.90,15.47,11.90,-11.90,-10.31,3.57,3.57,3.57
93.51,15.46,11.89,15.47,11.89,-11.89,-10.33,3.57,3.57,3.57
94.44,15.46,11.89,15.46,11.89,-11.89,-10.36,3.58,3.57,3.57
95.39,15.44,11.87,15.45,11.87,-11.87,-10.39,3.57,3.57,3.57
96.34,15.43,11.86,15.43,11.86,-11.86,-10.43,3.57,3.57,3.57
97.30,15.41,11.84,15.42,11.85,-11.85,-10.48,3.57,3.57,3.57
98.28,15.40,11.83,15.40,11.83,-11.83,-10.53,3.57,3.57,3.57
99.26,15.38,11.81,15.38,11.81,-11.81,-10.59,3.57,3.57,3.57
100.25,15.36,11.79,15.36,11.79,-11.79,-10.66,3.58,3.57,3.57
101.25,15.33,11.76,15.33,11.76,-11.76,-10.72,3.57,3.57,3.57
102.27,15.31,11.74,15.31,11.74,-11.74,-10.80,3.58,3.57,3.57
103.29,15.28,11.71,15.28,11.71,-11.71,-10.88,3.58,3.57,3.57
104.32,15.24,11.67,15.25,11.67,-11.67,-10.96,3.57,3.57,3.57
105.37,15.21,11.64,15.21,11.64,-11.64,-11.04,3.57,3.57,3.57
106.42,15.17,11.60,15.18,11.60,-11.60,-11.13,3.57,3.57,3.57
107.48,15.13,11.56,15.14,11.57,-11.57,-11.22,3.57,3.57,3.57
108.56,15.09,11.52,15.10,11.53,-11.53,-11.31,3.57,3.57,3.57
109.64,15.05,11.48,15.05,11.48,-11.48,-11.39,3.57,3.57,3.57
110.74,15.01,11.44,15.01,11.44,-11.44,-11.48,3.58,3.57,3.57
111.85,14.96,11.39,14.96,11.39,-11.39,-11.56,3.57,3.57,3.57
112.97,14.91,11.34,14.91,11.34,-11.34,-11.64,3.57,3.57,3.57
114.10,14.85,11.28,14.86,11.29,-11.29,-11.72,3.56,3.57,3.57
115.24,14.81,11.24,14.81,11.24,-11.24,-11.79,3.57,3.57,3.57
116.39,14.76,11.19,14.76,11.18,-11.18,-11.85,3.58,3.57,3.57
117.55,14.70,11.13,14.70,11.13,-11.13,-11.90,3.57,3.57,3.57
118.73,14.64,11.07,14.64,11.07,-11.07,-11.94,3.57,3.57,3.57
119.92,14.58,11.01,14.58,11.01,-11.01,-11.97,3.57,3.57,3.57
121.12,14.52,10.95,14.52,10.95,-10.95,-11.99,3.57,3.57,3.57
122.33,14.45,10.88,14.46,10.89,-10.89,-11.99,3.57,3.57,3.57
123.55,14.39,10.82,14.39,10.82,-10.82,-11.98,3.57,3.57,3.57
124.79,14.32,10.75,14.33,10.76,-10.76,-11.96,3.57,3.57,3.57
126.03,14.26,10.69,14.26,10.69,-10.69,-11.92,3.57,3.57,3.57
127.29,14.19,10.62,14.20,10.62,-10.62,-11.87,3.57,3.57,3.57
128.57,14.12,10.55,14.13,10.56,-10.56,-11.81,3.57,3.57,3.57
129.85,14.06,10.49,14.06,10.49,-10.49,-11.73,3.58,3.57,3.57
131.15,13.99,10.42,13.99,10.42,-10.42,-11.64,3.58,3.57,3.57
132.46,13.92,10.35,13.92,10.35,-10.35,-11.54,3.57,3.57,3.57
133.79,13.85,10.28,13.85,10.28,-10.28,-11.42,3.58,3.57,3.57
135.12,13.77,10.20,13.78,10.21,-10.21,-11.30,3.57,3.57,3.57
136.48,13.70,10.13,13.71,10.14,-10.14,-11.17,3.57,3.57,3.57
137.84,13.63,10.06,13.64,10.07,-10.07,-11.03,3.57,3.57,3.57
139.22,13.56,9.99,13.57,10.00,-10.00,-10.88,3.57,3.57,3.57
140.61,13.49,9.92,13.49,9.92,-9.92,-10.73,3.57,3.57,3.57
142.02,13.42,9.85,13.42,9.85,-9.85,-10.58,3.57,3.57,3.57
143.44,13.35,9.78,13.35,9.78,-9.78,-10.42,3.57,3.57,3.57
144.87,13.28,9.71,13.28,9.71,-9.71,-10.27,3.57,3.57,3.57
146.32,13.21,9.64,13.21,9.64,-9.64,-10.11,3.57,3.57,3.57
147.78,13.14,9.57,13.14,9.57,-9.57,-9.95,3.57,3.57,3.57
149.26,13.08,9.51,13.07,9.50,-9.50,-9.79,3.58,3.57,3.57
150.75,13.00,9.43,13.00,9.43,-9.43,-9.64,3.57,3.57,3.57
152.26,12.93,9.36,12.94,9.36,-9.36,-9.49,3.57,3.57,3.57
153.78,12.86,9.29,12.87,9.29,-9.29,-9.34,3.57,3.57,3.57
155.32,12.80,9.23,12.80,9.23,-9.23,-9.19,3.58,3.57,3.57
156.88,12.73,9.16,12.73,9.16,-9.16,-9.05,3.58,3.57,3.57
158.44,12.65,9.08,12.66,9.09,-9.09,-8.91,3.56,3.57,3.57
160.03,12.59,9.02,12.59,9.02,-9.02,-8.78,3.57,3.57,3.57
161.63,12.52,8.95,12.52,8.95,-8.95,-8.65,3.57,3.57,3.57
163.24,12.45,8.88,12.46,8.89,-8.89,-8.53,3.57,3.57,3.57
164.88,12.39,8.82,12.39,8.82,-8.82,-8.41,3.57,3.57,3.57
166.53,12.33,8.76,12.33,8.76,-8.76,-8.30,3.58,3.57,3.57
168.19,12.26,8.69,12.26,8.69,-8.69,-8.19,3.57,3.57,3.57
169.87,12.19,8.62,12.20,8.63,-8.63,-8.09,3.56,3.57,3.57
171.57,12.14,8.57,12.14,8.57,-8.57,-8.00,3.57,3.57,3.57
173.29,12.07,8.50,12.08,8.51,-8.51,-7.91,3.57,3.57,3.57
175.02,12.02,8.45,12.02,8.45,-8.45,-7.82,3.58,3.57,3.57
176.77,11.95,8.38,11.96,8.39,-8.39,-7.74,3.56,3.57,3.57
178.54,11.90,8.33,11.90,8.33,-8.33,-7.67,3.57,3.57,3.57
180.32,11.84,8.27,11.84,8.27,-8.27,-7.60,3.57,3.57,3.57
182.13,11.78,8.21,11.79,8.22,-8.22,-7.54,3.56,3.57,3.57
183.95,11.73,8.16,11.73,8.16,-8.16,-7.48,3.57,3.57,3.57
185.79,11.68,8.11,11.68,8.11,-8.11,-7.43,3.57,3.57,3.57
187.65,11.63,8.06,11.63,8.06,-8.06,-7.39,3.58,3.57,3.57
189.52,11.56,7.99,11.57,8.00,-8.00,-7.35,3.56,3.57,3.57
191.42,11.52,7.95,11.52,7.95,-7.95,-7.31,3.57,3.57,3.57
193.33,11.47,7.90,11.47,7.90,-7.90,-7.28,3.58,3.57,3.57
195.27,11.41,7.84,11.41,7.84,-7.84,-7.25,3.57,3.57,3.57
197.22,11.35,7.78,11.36,7.79,-7.79,-7.23,3.56,3.57,3.57
199.19,11.31,7.74,11.31,7.74,-7.74,-7.21,3.58,3.57,3.57
201.18,11.26,7.69,11.25,7.68,-7.68,-7.19,3.58,3.57,3.57
203.19,11.19,7.62,11.20,7.63,-7.63,-7.18,3.57,3.57,3.57
205.23,11.14,7.57,11.14,7.57,-7.57,-7.17,3.57,3.57,3.57
207.28,11.09,7.52,11.09,7.52,-7.52,-7.17,3.58,3.57,3.57
209.35,11.03,7.46,11.03,7.46,-7.46,-7.16,3.57,3.57,3.57
211.44,10.98,7.41,10.98,7.41,-7.41,-7.16,3.58,3.57,3.57
213.56,10.92,7.35,10.92,7.35,-7.35,-7.16,3.57,3.57,3.57
215.69,10.86,7.29,10.86,7.29,-7.29,-7.16,3.57,3.57,3.57
217.85,10.80,7.23,10.80,7.23,-7.23,-7.16,3.57,3.57,3.57
220.03,10.74,7.17,10.75,7.17,-7.17,-7.16,3.57,3.57,3.57
222.23,10.69,7.12,10.69,7.12,-7.12,-7.16,3.58,3.57,3.57
224.45,10.63,7.06,10.63,7.06,-7.06,-7.16,3.58,3.57,3.57
226.70,10.56,6.99,10.57,7.00,-7.00,-7.15,3.56,3.57,3.57
228.96,10.51,6.94,10.51,6.94,-6.94,-7.15,3.57,3.57,3.57
231.25,10.44,6.87,10.45,6.88,-6.88,-7.14,3.56,3.57,3.57
233.57,10.39,6.82,10.39,6.82,-6.82,-7.13,3.57,3.57,3.57
235.90,10.33,6.76,10.34,6.77,-6.77,-7.11,3.57,3.57,3.57
238.26,10.28,6.71,10.28,6.71,-6.71,-7.09,3.57,3.57,3.57
240.64,10.22,6.65,10.22,6.65,-6.65,-7.07,3.57,3.57,3.57
243.05,10.17,6.60,10.17,6.60,-6.60,-7.04,3.58,3.57,3.57
245.48,10.10,6.53,10.11,6.54,-6.54,-7.00,3.56,3.57,3.57
247.93,10.05,6.48,10.05,6.48,-6.48,-6.96,3.57,3.57,3.57
250.41,10.00,6.43,10.00,6.43,-6.43,-6.91,3.57,3.57,3.57
252.92,9.94,6.37,9.94,6.37,-6.37,-6.86,3.57,3.57,3.57
255.45,9.88,6.31,9.89,6.32,-6.32,-6.80,3.57,3.57,3.57
258.00,9.83,6.26,9.83,6.26,-6.26,-6.73,3.57,3.57,3.57
260.58,9.78,6.21,9.78,6.21,-6.21,-6.66,3.58,3.57,3.57
263.19,9.72,6.15,9.72,6.15,-6.15,-6.59,3.57,3.57,3.57
265.82,9.66,6.09,9.66,6.09,-6.09,-6.50,3.57,3.57,3.57
268.48,9.60,6.03,9.61,6.04,-6.04,-6.42,3.57,3.57,3.57
271.16,9.55,5.98,9.55,5.98,-5.98,-6.33,3.57,3.57,3.57
273.87,9.49,5.92,9.49,5.92,-5.92,-6.23,3.57,3.57,3.57
276.61,9.43,5.86,9.43,5.86,-5.86,-6.14,3.57,3.57,3.57
279.38,9.37,5.80,9.37,5.80,-5.80,-6.03,3.57,3.57,3.57
282.17,9.31,5.74,9.31,5.74,-5.74,-5.93,3.58,3.57,3.57
284.99,9.24,5.67,9.25,5.68,-5.68,-5.83,3.57,3.57,3.57
287.84,9.18,5.61,9.18,5.61,-5.61,-5.72,3.57,3.57,3.57
290.72,9.12,5.55,9.12,5.55,-5.55,-5.61,3.58,3.57,3.57
293.63,9.05,5.48,9.05,5.48,-5.48,-5.50,3.57,3.57,3.57
296.57,8.98,5.41,8.98,5.41,-5.41,-5.39,3.57,3.57,3.57
299.53,8.91,5.34,8.92,5.34,-5.34,-5.29,3.57,3.57,3.57
302.53,8.84,5.27,8.85,5.27,-5.27,-5.18,3.57,3.57,3.57
305.55,8.77,5.20,8.77,5.20,-5.20,-5.07,3.57,3.57,3.57
308.61,8.70,5.13,8.70,5.13,-5.13,-4.97,3.57,3.57,3.57
311.69,8.63,5.06,8.63,5.06,-5.06,-4.86,3.57,3.57,3.57
314.81,8.56,4.99,8.55,4.98,-4.98,-4.76,3.58,3.57,3.57
317.96,8.47,4.90,8.48,4.91,-4.91,-4.66,3.57,3.57,3.57
321.14,8.40,4.83,8.40,4.83,-4.83,-4.56,3.57,3.57,3.57
324.35,8.32,4.75,8.32,4.75,-4.75,-4.47,3.57,3.57,3.57
327.59,8.24,4.67,8.24,4.67,-4.67,-4.37,3.57,3.57,3.57
330.87,8.16,4.59,8.16,4.59,-4.59,-4.28,3.57,3.57,3.57
334.18,8.07,4.50,8.08,4.51,-4.51,-4.19,3.56,3.57,3.57
337.52,8.00,4.43,8.00,4.42,-4.42,-4.11,3.58,3.57,3.57
340.90,7.91,4.34,7.91,4.34,-4.34,-4.03,3.57,3.57,3.57
344.30,7.82,4.25,7.82,4.25,-4.25,-3.95,3.57,3.57,3.57
347.75,7.74,4.17,7.74,4.16,-4.16,-3.87,3.58,3.57,3.57
351.23,7.65,4.08,7.65,4.08,-4.08,-3.79,3.58,3.57,3.57
354.74,7.56,3.99,7.56,3.99,-3.99,-3.72,3.58,3.57,3.57
358.28,7.47,3.90,7.47,3.90,-3.90,-3.65,3.58,3.57,3.57
361.87,7.38,3.81,7.38,3.80,-3.80,-3.59,3.58,3.57,3.57
365.49,7.28,3.71,7.29,3.71,-3.71,-3.53,3.57,3.57,3.57
369.14,7.19,3.62,7.20,3.62,-3.62,-3.46,3.57,3.57,3.57
372.83,7.10,3.53,7.10,3.53,-3.53,-3.41,3.57,3.57,3.57
376.56,7.02,3.45,7.01,3.45,-3.45,-3.35,3.58,3.57,3.57
380.33,6.92,3.35,6.93,3.36,-3.36,-3.30,3.56,3.57,3.57
384.13,6.84,3.27,6.84,3.27,-3.27,-3.25,3.57,3.57,3.57
387.97,6.75,3.18,6.76,3.19,-3.19,-3.20,3.56,3.57,3.57
391.85,6.67,3.10,6.68,3.11,-3.11,-3.15,3.56,3.57,3.57
395.77,6.59,3.02,6.60,3.04,-3.04,-3.11,3.56,3.57,3.57
399.73,6.52,2.95,6.53,2.96,-2.96,-3.07,3.56,3.57,3.57
403.72,6.45,2.88,6.46,2.89,-2.89,-3.02,3.56,3.57,3.57
407.76,6.38,2.81,6.39,2.83,-2.83,-2.98,3.56,3.57,3.57
411.84,6.32,2.75,6.33,2.76,-2.76,-2.94,3.56,3.57,3.57
415.96,6.27,2.70,6.27,2.70,-2.70,-2.91,3.57,3.56,3.57
420.12,6.21,2.64,6.21,2.64,-2.64,-2.87,3.57,3.56,3.57
424.32,6.15,2.58,6.16,2.59,-2.59,-2.83,3.56,3.57,3.57
428.56,6.10,2.53,6.10,2.54,-2.54,-2.80,3.57,3.57,3.57
432.85,6.05,2.48,6.05,2.49,-2.49,-2.76,3.57,3.57,3.57
437.18,6.01,2.44,6.01,2.44,-2.44,-2.72,3.58,3.57,3.57
441.55,5.96,2.39,5.96,2.39,-2.39,-2.68,3.58,3.57,3.57
445.96,5.91,2.34,5.92,2.34,-2.34,-2.64,3.57,3.58,3.57
450.42,5.87,2.29,5.87,2.29,-2.29,-2.60,3.58,3.58,3.58
454.93,5.82,2.24,5.83,2.24,-2.24,-2.56,3.58,3.59,3.58
459.48,5.79,2.20,5.79,2.20,-2.20,-2.52,3.60,3.59,3.59
464.07,5.75,2.15,5.75,2.15,-2.15,-2.47,3.60,3.60,3.60
468.71,5.71,2.11,5.71,2.10,-2.10,-2.42,3.61,3.61,3.61
473.40,5.67,2.06,5.67,2.06,-2.06,-2.37,3.62,3.62,3.62
478.13,5.63,2.00,5.64,2.01,-2.01,-2.32,3.63,3.63,3.63
482.91,5.59,1.95,5.60,1.96,-1.96,-2.26,3.63,3.64,3.64
487.74,5.56,1.91,5.56,1.91,-1.91,-2.20,3.65,3.65,3.65
492.62,5.52,1.86,5.53,1.86,-1.86,-2.13,3.66,3.67,3.67
497.55,5.49,1.81,5.49,1.81,-1.81,-2.07,3.68,3.68,3.68
502.52,5.44,1.74,5.45,1.76,-1.76,-2.00,3.69,3.70,3.70
507.55,5.41,1.70,5.42,1.70,-1.70,-1.92,3.71,3.71,3.72
512.62,5.37,1.64,5.38,1.65,-1.65,-1.84,3.72,3.73,3.73
517.75,5.34,1.59,5.34,1.59,-1.59,-1.76,3.75,3.75,3.75
522.93,5.29,1.52,5.30,1.53,-1.53,-1.67,3.76,3.77,3.77
528.16,5.25,1.47,5.25,1.47,-1.47,-1.58,3.79,3.79,3.79
533.44,5.21,1.41,5.21,1.40,-1.40,-1.48,3.82,3.81,3.81
538.77,5.16,1.34,5.16,1.32,-1.32,-1.38,3.84,3.83,3.83
544.16,5.10,1.25,5.10,1.25,-1.25,-1.28,3.86,3.85,3.85
549.60,5.05,1.18,5.05,1.17,-1.17,-1.18,3.89,3.88,3.88
555.10,4.99,1.09,4.98,1.08,-1.08,-1.07,3.91,3.90,3.90
560.65,4.92,0.99,4.92,0.99,-0.99,-0.96,3.94,3.93,3.93
566.25,4.85,0.90,4.85,0.89,-0.89,-0.84,3.96,3.96,3.96
571.92,4.78,0.80,4.77,0.79,-0.79,-0.73,3.99,3.99,3.99
577.64,4.69,0.68,4.70,0.68,-0.68,-0.61,4.01,4.01,4.01
583.41,4.61,0.57,4.61,0.57,-0.57,-0.48,4.04,4.04,4.04
589.25,4.53,0.46,4.53,0.45,-0.45,-0.36,4.08,4.07,4.07
595.14,4.43,0.33,4.44,0.33,-0.33,-0.23,4.10,4.10,4.10
601.09,4.34,0.21,4.35,0.21,-0.21,-0.10,4.13,4.13,4.13
607.10,4.25,0.09,4.25,0.08,-0.08,0.03,4.17,4.17,4.17
613.17,4.15,-0.04,4.15,-0.04,0.04,0.16,4.20,4.20,4.20
619.30,4.05,-0.18,4.05,-0.18,0.18,0.29,4.23,4.23,4.23
625.50,3.95,-0.31,3.95,-0.31,0.31,0.43,4.26,4.26,4.26
631.75,3.84,-0.45,3.85,-0.45,0.45,0.56,4.29,4.29,4.30
638.07,3.74,-0.59,3.74,-0.59,0.59,0.70,4.33,4.33,4.33
644.45,3.63,-0.73,3.63,-0.72,0.72,0.84,4.36,4.36,4.36
650.89,3.52,-0.87,3.53,-0.87,0.87,0.99,4.39,4.39,4.39
657.40,3.42,-1.00,3.42,-1.01,1.01,1.13,4.43,4.43,4.43
