frequency,raw
10,-18.55368427691022
11,-17.55225984046626
12,-16.283267240434963
13,-14.965155125736512
14,-13.80133031864716
15,-12.407004012501769
16,-11.551565564084108
17,-10.690576056802012
18,-9.76319687081066
19,-8.89511879234931
20,-8.329848890770435
21,-7.388150483123794
22,-6.564002926942262
23,-5.815149031826536
24,-5.341798224148336
25,-4.595317055790121
26,-4.083264924517705
27,-3.756338666338755
28,-3.0047396428221576
29,-2.8753101223958324
30,-2.0378561428715956
31,-1.8526082662115582
32,-1.5715938727192609
33,-1.05946037017979
34,-0.8305860197911858
35,-0.5327848163571449
36,-0.3988263749279364
37,-0.17544893881905121
38,-0.10121923540644673
39,-0.011614228130534698
40,0.24981163368879056
41,0.44372066481142936
42,0.4598309305946606
43,0.47108758023603725
44,0.38877939076804946
45,0.4567047125630377
46,0.5990742539172245
47,0.8000081496880735
48,0.8444243327038619
49,0.8525971765961993
50,0.9664750550822179
51,0.8994175039697749
52,0.9055932937182289
53,0.9197123322174026
54,0.806035153634963
55,0.8256723931115415
56,0.81921799302736
57,0.7573447706444307
58,0.6357466782022558
59,0.5709687776831185
60,0.481046433828912
61,0.4770222805372395
62,0.479941572836045
63,0.414416315016473
64,0.3723530482702939
65,0.3709504262850527
66,0.3698333284617985
67,0.37019839896516027
68,0.37309192977980565
69,0.3786749513326715
70,0.38593283761520647
71,0.3930002381083395
72,0.3978880516913703
73,0.3803070163049602
74,0.29572915581849246
75,0.28889998949396123
76,0.27878216611564044
77,0.18680381084681708
78,0.1526617580037919
79,0.1407615894441201
80,0.13246114093707906
81,-0.03491734467135421
82,-0.06796547489166693
83,-0.059008692094681514
84,-0.04644813822526794
85,-0.08218301469351896
86,-0.20537122623278847
87,-0.25173457456154047
88,-0.29076022345351626
89,-0.2790230253900803
90,-0.2720430340630471
91,-0.37774766874121557
92,-0.4817318442530727
93,-0.49567369026505403
94,-0.5102475984383315
95,-0.5196058832912573
96,-0.5198901820402857
97,-0.6001763918002658
98,-0.5991930901054912
99,-0.6896420620110093
100,-0.6878598227065917
101,-0.6960442040665269
102,-0.7107656834448335
104,-0.8257458448905894
105,-0.832929067220193
106,-0.8292560882742794
107,-0.8159321591364117
108,-0.8645444055967539
109,-0.882935238462446
110,-0.8741669994895744
111,-0.8741751049262589
112,-0.8816377065127052
113,-0.942824476428695
114,-1.007278360901604
115,-1.0195239085270962
117,-1.0296071565137046
118,-1.0369560554824777
119,-1.0413807885062014
120,-1.0431258825474918
121,-1.0967959138992618
123,-1.2036311157135229
124,-1.2435838154898535
125,-1.2445651252861447
126,-1.2455799254172324
128,-1.244945524828509
129,-1.2413397735459069
130,-1.2349000270499069
131,-1.227516387142618
133,-1.2219919542181472
134,-1.220482430755522
135,-1.224092996257638
137,-1.3285045535412991
138,-1.332127649956687
140,-1.431373484468502
141,-1.4278317621095011
142,-1.4203373160171417
144,-1.4129993045441087
145,-1.4085700763853257
147,-1.4240655987875677
148,-1.4925213703089772
150,-1.516564211232431
151,-1.5192772932395497
153,-1.517357214839485
154,-1.5089032127099347
156,-1.4937852469908304
157,-1.4741312253318313
159,-1.4540784417179737
160,-1.4651026069516315
162,-1.5317908584178004
164,-1.6341834216376254
165,-1.6636683977118913
167,-1.7540063570544349
169,-1.762385250446679
170,-1.7659455053047766
172,-1.7649287580857664
174,-1.7906267762367944
175,-1.842426762191665
177,-1.861599768376705
179,-1.8562734756553736
181,-1.855994161639797
183,-1.8551806867462668
184,-1.8539011915053791
186,-1.9346263490560358
188,-1.9727262855713583
190,-1.9552673775678615
192,-1.9379699490756792
194,-1.957561240033162
196,-2.0477081531614494
198,-2.0719019964705097
200,-2.1395053549805394
202,-2.119108343829607
204,-2.085388459957411
206,-2.0724218935300414
208,-2.062782962573335
210,-2.09608839115433
212,-2.189000414900815
214,-2.1643251623221134
216,-2.133256370377041
218,-2.1260655129113477
221,-2.0811405027769854
223,-2.156730533541944
225,-2.3501056444239725
227,-2.368678336219
229,-2.3440032459969804
232,-2.352529344249839
234,-2.3563478025736457
236,-2.428505555162529
239,-2.4975471781013554
241,-2.397027431043992
244,-2.3736944630907524
246,-2.4855229334865063
248,-2.489070478600231
251,-2.4837606726829433
253,-2.4823792757331584
256,-2.5225261783273316
259,-2.647925092795577
261,-2.6248927169267824
264,-2.5838962828990906
266,-2.5468640475822837
269,-2.618602739300979
272,-2.712582787254663
274,-2.823175061444866
277,-2.84521710410177
280,-2.7865993939392655
283,-2.7763557583813765
286,-2.76740590352821
288,-2.8552228200361047
291,-2.9350782347649873
294,-2.8507855128156785
297,-2.8401533898595903
300,-2.831218644369083
303,-2.822656125001061
306,-2.8462442565644404
309,-2.9124996965932968
312,-2.9759253692983574
316,-3.0066903098103444
319,-3.0002249074254483
322,-3.0280207519294273
325,-3.1805068615748615
328,-3.1358581310908074
332,-3.063351432986892
335,-3.0606692592820797
338,-3.2000401843826327
342,-3.280238876065232
345,-3.2086792015223713
349,-3.145542696648414
352,-3.305427459425173
356,-3.3254956705396457
359,-3.106951757540543
363,-3.2363378871542996
366,-3.4945790638722896
370,-3.362986679061653
374,-3.345404361166557
377,-3.3338380561022176
381,-3.3237315134748937
385,-3.3911401221216795
389,-3.568215562946532
393,-3.447411774165141
397,-3.386996091466401
401,-3.3747943206014526
405,-3.3992681043436717
409,-3.638228248108778
413,-3.5636087165344135
417,-3.4598110195904033
421,-3.4666777174642074
425,-3.332827552147811
430,-3.6293617571258587
434,-3.820881513268716
438,-3.668079547284486
443,-3.659483272908827
447,-3.6504606612503605
451,-3.640730121969202
456,-3.6291900487887303
460,-3.6152717426252896
465,-3.599716923544474
470,-3.2823711489290264
474,-3.267693830993175
479,-3.454406109890338
484,-3.476981857751447
489,-3.635592781068026
494,-3.5207389777592377
499,-2.9983106369714476
504,-2.934370542606842
509,-3.171806790009433
514,-3.1070283657323206
519,-2.830163384327076
524,-2.616320337916357
529,-2.6230986146090083
535,-2.665455530023032
540,-2.504096110126462
545,-2.495438257246114
551,-2.4912595525021315
556,-2.3913174333755167
562,-2.154976693637515
568,-1.9208807698512835
573,-1.741246682410746
579,-1.566429980405529
585,-1.3912952732448978
591,-1.3216312434469355
596,-1.3023606626811852
602,-1.0896332429421163
608,-0.9303668253906099
615,-0.6847082251224152
621,-0.680083678913199
627,-0.5173303611393991
633,-0.36923735274526237
639,-0.21973660734530331
646,-0.1040006366184536
652,0.008135595262213524
659,0.15893781528213768
665,0.21446848226012882
672,0.3564338557123916
679,0.4944724058557415
686,0.6407200957105241
692,0.7732804277908607
699,0.8806806225834911
706,0.9715843684640557
713,1.1307135072050247
721,1.3150009804100313
728,1.4175164733232517
735,1.5620698687687415
742,1.6396087228806238
750,1.744271472083546
757,1.8954854663625995
765,2.0161154312165634
773,2.1109213092241195
780,2.1603819201686765
788,2.2459568061038335
796,2.369480611829494
804,2.4155407164982776
812,2.531957682702228
820,2.655538302231953
828,2.730840686048581
837,2.777762034707336
845,2.768596917144396
853,2.9054784554299595
862,2.8677008451246464
871,2.849742076265874
879,2.7498123558112013
888,2.721401346809135
897,2.7026092383238822
906,2.545615022806087
915,2.299730159591564
924,2.0219876742737997
933,1.6110755710770872
943,0.8656033285245404
952,0.5457215045628239
962,0.35869351038639974
971,-0.10467460517618132
981,-0.3316863793822109
991,-0.1589776672097436
1001,0.01757579020786393
1011,0.35559286787392286
1021,0.6097044412300541
1031,0.8632395735292564
1041,1.1228943370739473
1052,1.2722261990024335
1062,1.3541596625398569
1073,1.5996323736790994
1084,1.6348735751266739
1094,1.619460133815258
1105,1.6759156282854555
1116,1.7230470773638003
1128,1.6123613998639967
1139,1.5821982209889047
1150,1.5872224219924633
1162,1.499586500145739
1173,1.4197435327924735
1185,1.4014351279404795
1197,1.3791410854920318
1209,1.3612784518963452
1221,1.3338122327066517
1233,1.250634607634737
1246,1.1433321385537951
1258,1.1385242604996133
1271,1.0799027873445977
1283,1.0054533106688446
1296,1.0081018892199292
1309,0.9818020409301238
1322,0.8433228212810018
1335,0.7768054964601641
1349,0.7652227923893364
1362,0.7703039121990041
1376,0.7156619099598123
1390,0.6652818118008992
1404,0.6657304412179537
1418,0.6614300771428585
1432,0.5978316007423063
1446,0.47378996120756023
1461,0.45264143785149225
1475,0.4220232382711595
1490,0.36945977646264483
1505,0.33543258955591826
1520,0.35545408235119114
1535,0.3867677294947076
1550,0.3586765594219199
1566,0.3096506742576173
1582,0.20997528851632463
1597,0.12537161112737483
1613,0.11987138751873916
1629,0.08401851806779792
1646,0.02178492645349417
1662,0.04508792481677659
1679,0.09914897801351241
1696,0.07702758681390165
1713,0.011918040802989083
1730,0.06156524480802661
1747,0.16393287659674227
1764,0.18660457824772703
1782,0.1584192437080163
1800,0.08301857011977054
1818,0.08567123944000343
1836,0.15102295316576297
1854,0.22865384406971945
1873,0.2873505077442302
1892,0.24887998270300082
1911,0.2821687742857284
1930,0.30514308974637405
1949,0.2884075979168581
1969,0.3121680689779476
1988,0.33069064776685053
2008,0.35541281615589426
2028,0.4577643228974617
2048,0.582228779168589
2069,0.6409398610728765
2090,0.7194398063642042
2111,0.7599153599823492
2132,0.8428052929592971
2153,0.9397679761661166
2175,1.0927073123257367
2196,1.2506000722778285
2218,1.3283630606918795
2240,1.367230149272415
2263,1.4040489482203293
2285,1.4294488844261153
2308,1.4799604503334232
2331,1.6906737084098529
2355,1.9308743770935495
2378,2.1993006188902076
2402,2.6262941969372173
2426,3.0898599169256302
2450,3.4695795206222124
2475,3.8699953314840867
2500,4.054479526113081
2525,4.378715028192425
2550,4.641416448221122
2575,4.814425736093221
2601,5.089690529693368
2627,5.329492898323122
2653,5.52246869685524
2680,5.771294587719824
2707,6.058124683465817
2734,6.356506056652926
2761,6.628691349786668
2789,6.975726206944096
2817,7.327517485664537
2845,7.564208904294839
2873,7.983126220370881
2902,8.429385016483705
2931,8.795972000195302
2960,9.030817144171742
2990,9.270534963904739
3020,9.586618122753148
3050,9.823613647749672
3080,10.035328662371782
3111,10.163670058373585
3142,10.324608195566169
3174,10.538642083744
3206,10.711029308204193
3238,10.831463800284181
3270,10.95652611871703
3303,11.127591667933805
3336,11.22102446606022
3369,11.282397883387585
3403,11.292451086371884
3437,11.348093530095776
3471,11.438741902848374
3506,11.556750141651046
3541,11.486358640980932
3576,11.447012642543942
3612,11.21622492688744
3648,10.963392686759097
3685,10.509382788741345
3721,10.263924841743464
3759,10.151894118833013
3796,9.76011650523297
3834,9.485763829567075
3873,9.242054522169022
3911,9.040508106552029
3950,8.705559785092916
3990,8.397323508145465
4030,7.985007684420231
4070,7.527419387420003
4111,7.07895969493064
4152,6.613538740119534
4193,6.2216362603306825
4235,5.835444763122429
4278,5.425227609209702
4321,5.118073366752517
4364,4.693983861150682
4407,4.300777456312515
4451,4.058417359931688
4496,3.838761713627652
4541,3.532966637827556
4586,3.297445697833351
4632,3.0253074182170367
4679,2.5931003798556027
4725,2.348554173802821
4773,2.2155786242536735
4820,2.0376697682623357
4868,1.8546741204762913
4917,1.7695054127628334
4966,1.725840902772041
5016,1.6490329073603176
5066,1.5380165646934438
5117,1.3720166644585197
5168,1.2114229640668341
5220,1.0368134409350178
5272,1.0325373193609098
5325,1.1788440044980755
5378,1.1406703911548748
5432,1.2562880634591345
5486,1.713965429730532
5541,1.820072104078938
5596,1.8949167968779017
5652,2.14028543329417
5709,2.3409143097449983
5766,2.328987280226035
5823,2.392202195243633
5882,2.450782145197958
5940,2.556866249429407
6000,2.3365539924883336
6060,2.0971947862814133
6120,2.252984328932108
6182,2.130431576146842
6244,2.1840090457719823
6306,2.2223061539847526
6369,2.2018351663119446
6433,2.234572494101914
6497,2.3628492533937946
6562,2.2128347808297306
6628,2.0193102426342016
6694,1.8580693673019644
6761,1.737555254484997
6828,1.703568860610985
6897,1.559802123872415
6966,1.2713145384322768
7035,0.991676627382438
7106,0.678038543645612
7177,0.19397709484942505
7249,-0.655158809526601
7321,-0.9463600239828196
7394,-1.3600012305744467
7468,-2.1368785638779277
7543,-2.653621316452013
7618,-3.5891644711629085
7694,-4.905551853729626
7771,-6.492197153032165
7849,-8.243082765637713
7928,-9.757370118106277
8007,-9.838837757674096
8087,-8.69632957606598
8168,-7.161712534686446
8250,-4.312068371337746
8332,-5.812960379027964
8415,-6.659727406861438
8499,-7.774749442900061
8584,-6.864251936330334
8670,-5.390725774054723
8757,-2.297720498521537
8845,-0.5253725895019752
8933,0.9355019445219139
9022,2.4869819453474493
9113,3.393246516939174
9204,4.159665989007466
9296,4.704786117492558
9389,5.079491421299561
9483,5.289687745474795
9577,5.139086659551037
9673,4.945701919394469
9770,4.8505486239622035
9868,4.22077462179712
9966,3.8031480985517363
10066,3.335508805349736
10167,2.779774917406013
10268,2.1100646531712455
10371,1.3576976788239312
10475,0.6112159289671668
10579,0.13014792050951396
10685,-0.23482500370961779
10792,-0.36703713127812865
10900,-0.5139286136966108
11009,-0.7445357167612503
11119,-0.6240996325342634
11230,-0.2142501384081652
11343,0.40904256042398757
11456,0.8614177922384125
11571,1.7797315298226013
11686,2.859077657278528
11803,3.6862975646585814
11921,4.14038165103531
12040,4.519576230572072
12161,5.224034061788569
12282,5.316831501367545
12405,4.36714464621134
12529,3.7087909421908725
12655,2.9575223970155706
12781,1.5739869962666484
12909,0.8710021488880786
13038,0.4364986563671396
13168,-0.29703335972289846
13300,-0.7943924273407075
13433,-1.535613546846037
13567,-2.9757897815722103
13703,-3.947105318831057
13840,-5.017646551409036
13978,-6.103213705810945
14118,-7.9186883425321515
14259,-9.859010513118797
14402,-11.471903270470259
14546,-12.828229735205898
14692,-13.974328281767063
14838,-14.691812387815647
14987,-15.160569513900386
15137,-13.98759420794089
15288,-14.422148015556058
15441,-14.909159184238913
15595,-15.642299669141135
15751,-16.16741553036698
15909,-15.998457382847603
16068,-16.456905117238353
16229,-16.319806681625657
16391,-16.124451056280183
16555,-15.63026999986944
16720,-13.99500519821531
16888,-12.463097943586648
17056,-11.006279040267625
17227,-9.87166548092521
17399,-9.235046934757516
17573,-8.699724986527865
17749,-7.842905598703614
17926,-6.5198137416233175
18106,-5.588274046930749
18287,-4.627720984462985
18470,-4.266455035223422
18654,-4.021961007688146
18841,-3.859070301048929
19029,-3.4220908973598583
19220,-3.09811855512928
19412,-3.5146110225446794
19606,-3.8188812111629806
19802,-6.126648872429588
20000,-7.8064966448636826
20200,-9.376373712700364
20402,-10.069020959060708
20606,-11.018017100880977
20812,-12.609708082070597
21020,-12.241652511652042
21230,-11.944278677639934
21443,-11.42034388548024
21657,-10.61551214526947
21874,-10.377673326575257
22092,-9.96033169432296
22313,-8.633599129879173
22537,-6.764008401636173
22762,-5.632805628104804
22989,-4.649852366495442
23219,-5.243189460984133
23452,-6.046394747207779
23686,-6.185217225868455
23923,-7.296705917208567
24162,-7.685703197176392
24404,-8.09321432275647
24648,-8.500490785059817
24894,-8.90730852058076
25143,-9.315674031950763
25395,-9.725299037475516
25649,-10.133740353387976
25905,-10.540887746355823
26164,-10.948848727440387
26426,-11.357545606540446
26690,-11.764809511628409
26957,-12.172770298578962
27227,-12.581396809923685
27499,-12.988589083666334
27774,-13.39639020197549
28052,-13.804730063858678
28332,-14.211533086906012
28615,-14.618753312182703
28902,-15.028282807847333
29191,-15.436118535776913
29482,-15.84225703579514
29777,-16.25049582935394
