frequency,raw,error,smoothed,error_smoothed,equalization,parametric_eq,fixed_band_eq,equalized_raw,equalized_smoothed,target
20.00,-16.86,-15.75,-16.86,-15.78,6.00,5.02,2.71,-10.86,-10.86,-1.11
20.20,-16.73,-15.71,-16.73,-15.72,6.00,5.07,2.79,-10.73,-10.73,-1.02
20.40,-16.60,-15.66,-16.60,-15.67,6.00,5.12,2.87,-10.60,-10.60,-0.94
20.61,-16.47,-15.60,-16.47,-15.61,6.00,5.16,2.95,-10.47,-10.47,-0.87
20.81,-16.35,-15.57,-16.34,-15.55,6.00,5.21,3.04,-10.35,-10.34,-0.78
21.02,-16.22,-15.52,-16.21,-15.48,6.00,5.25,3.13,-10.22,-10.21,-0.70
21.23,-16.08,-15.44,-16.08,-15.42,6.00,5.30,3.22,-10.08,-10.08,-0.64
21.44,-15.95,-15.37,-15.95,-15.34,6.00,5.34,3.31,-9.95,-9.95,-0.58
21.66,-15.82,-15.29,-15.82,-15.27,6.00,5.39,3.41,-9.82,-9.82,-0.53
21.87,-15.69,-15.20,-15.69,-15.20,6.00,5.43,3.50,-9.69,-9.69,-0.48
22.09,-15.55,-15.12,-15.55,-15.12,6.00,5.47,3.60,-9.55,-9.55,-0.43
22.31,-15.42,-15.03,-15.42,-15.04,6.00,5.52,3.71,-9.42,-9.42,-0.38
22.54,-15.29,-14.95,-15.29,-14.95,6.00,5.56,3.81,-9.29,-9.29,-0.34
22.76,-15.16,-14.85,-15.16,-14.85,6.00,5.60,3.92,-9.16,-9.16,-0.30
22.99,-15.03,-14.76,-15.02,-14.76,6.00,5.64,4.03,-9.03,-9.02,-0.27
23.22,-14.89,-14.65,-14.89,-14.66,6.00,5.68,4.15,-8.89,-8.89,-0.23
23.45,-14.76,-14.56,-14.75,-14.57,6.00,5.72,4.26,-8.76,-8.75,-0.19
23.69,-14.62,-14.47,-14.62,-14.47,6.00,5.76,4.38,-8.62,-8.62,-0.16
23.92,-14.48,-14.36,-14.48,-14.37,6.00,5.80,4.50,-8.48,-8.48,-0.11
24.16,-14.35,-14.28,-14.35,-14.27,6.00,5.84,4.63,-8.35,-8.35,-0.07
24.40,-14.22,-14.18,-14.22,-14.17,6.00,5.88,4.75,-8.22,-8.22,-0.04
24.65,-14.08,-14.07,-14.08,-14.07,6.00,5.91,4.88,-8.08,-8.08,-0.01
24.89,-13.95,-13.97,-13.95,-13.97,6.00,5.95,5.01,-7.95,-7.95,0.02
25.14,-13.81,-13.87,-13.81,-13.87,6.00,5.98,5.14,-7.81,-7.81,0.06
25.39,-13.68,-13.77,-13.68,-13.77,6.00,6.02,5.27,-7.68,-7.68,0.09
25.65,-13.55,-13.68,-13.55,-13.67,6.00,6.05,5.41,-7.55,-7.55,0.13
25.91,-13.42,-13.57,-13.41,-13.57,6.00,6.08,5.54,-7.42,-7.41,0.15
26.16,-13.28,-13.46,-13.28,-13.47,6.00,6.12,5.67,-7.28,-7.28,0.18
26.43,-13.15,-13.37,-13.15,-13.37,6.00,6.15,5.80,-7.15,-7.15,0.22
26.69,-13.02,-13.27,-13.02,-13.26,6.00,6.18,5.94,-7.02,-7.02,0.25
26.96,-12.88,-13.16,-12.88,-13.16,6.00,6.21,6.07,-6.88,-6.88,0.28
27.23,-12.75,-13.07,-12.75,-13.06,6.00,6.23,6.19,-6.75,-6.75,0.32
27.50,-12.62,-12.97,-12.62,-12.96,6.00,6.26,6.32,-6.62,-6.62,0.35
27.77,-12.49,-12.85,-12.49,-12.86,6.00,6.29,6.44,-6.49,-6.49,0.37
28.05,-12.36,-12.76,-12.35,-12.76,6.00,6.31,6.56,-6.36,-6.35,0.41
28.33,-12.23,-12.65,-12.22,-12.65,6.00,6.34,6.67,-6.23,-6.22,0.43
28.62,-12.10,-12.55,-12.09,-12.56,6.00,6.36,6.78,-6.10,-6.09,0.45
28.90,-11.96,-12.45,-11.97,-12.46,6.00,6.38,6.88,-5.96,-5.97,0.49
29.19,-11.84,-12.35,-11.84,-12.36,6.00,6.40,6.97,-5.84,-5.84,0.51
29.48,-11.71,-12.27,-11.71,-12.26,6.00,6.42,7.06,-5.71,-5.71,0.56
29.78,-11.58,-12.16,-11.59,-12.17,6.00,6.44,7.13,-5.58,-5.59,0.58
30.08,-11.45,-12.06,-11.47,-12.07,6.00,6.45,7.20,-5.45,-5.47,0.61
30.38,-11.34,-11.98,-11.35,-11.98,6.00,6.47,7.26,-5.34,-5.35,0.64
30.68,-11.23,-11.90,-11.23,-11.89,6.00,6.48,7.31,-5.23,-5.23,0.67
30.99,-11.11,-11.80,-11.11,-11.80,6.00,6.50,7.34,-5.11,-5.11,0.69
31.30,-11.00,-11.71,-10.99,-11.70,6.00,6.51,7.37,-5.00,-4.99,0.71
31.61,-10.88,-11.62,-10.87,-11.61,6.00,6.52,7.39,-4.88,-4.87,0.74
31.93,-10.76,-11.52,-10.75,-11.52,6.00,6.53,7.39,-4.76,-4.75,0.76
32.24,-10.64,-11.42,-10.64,-11.43,6.00,6.53,7.39,-4.64,-4.64,0.78
32.57,-10.52,-11.33,-10.52,-11.33,6.00,6.54,7.37,-4.52,-4.52,0.81
32.89,-10.41,-11.25,-10.41,-11.24,6.00,6.55,7.35,-4.41,-4.41,0.84
33.22,-10.29,-11.14,-10.29,-11.14,6.00,6.55,7.32,-4.29,-4.29,0.86
33.55,-10.17,-11.04,-10.17,-11.04,6.00,6.55,7.28,-4.17,-4.17,0.87
33.89,-10.06,-10.94,-10.06,-10.94,6.00,6.55,7.23,-4.06,-4.06,0.88
34.23,-9.94,-10.85,-9.94,-10.84,6.00,6.55,7.18,-3.94,-3.94,0.91
34.57,-9.82,-10.74,-9.82,-10.74,6.00,6.55,7.12,-3.82,-3.82,0.92
34.92,-9.71,-10.64,-9.71,-10.64,6.00,6.55,7.05,-3.71,-3.71,0.93
35.27,-9.59,-10.54,-9.59,-10.53,6.00,6.54,6.98,-3.59,-3.59,0.95
35.62,-9.47,-10.41,-9.47,-10.42,6.00,6.54,6.91,-3.47,-3.47,0.94
35.97,-9.36,-10.31,-9.36,-10.31,6.00,6.53,6.83,-3.36,-3.36,0.95
36.33,-9.25,-10.22,-9.24,-10.20,6.00,6.52,6.76,-3.25,-3.24,0.97
36.70,-9.13,-10.10,-9.12,-10.09,6.00,6.51,6.68,-3.13,-3.12,0.97
37.06,-9.02,-9.98,-9.01,-9.98,6.00,6.50,6.60,-3.02,-3.01,0.97
37.43,-8.90,-9.87,-8.89,-9.86,6.00,6.49,6.52,-2.90,-2.89,0.97
37.81,-8.78,-9.75,-8.78,-9.75,6.00,6.48,6.44,-2.78,-2.78,0.97
38.19,-8.66,-9.63,-8.66,-9.63,6.00,6.46,6.37,-2.66,-2.66,0.97
38.57,-8.55,-9.52,-8.55,-9.52,6.00,6.45,6.29,-2.55,-2.55,0.97
38.95,-8.43,-9.40,-8.44,-9.41,6.00,6.43,6.22,-2.43,-2.44,0.97
39.34,-8.32,-9.28,-8.33,-9.29,6.00,6.41,6.15,-2.32,-2.33,0.96
39.74,-8.21,-9.16,-8.22,-9.18,6.00,6.39,6.08,-2.21,-2.22,0.96
40.14,-8.11,-9.06,-8.11,-9.07,6.00,6.37,6.01,-2.11,-2.11,0.95
40.54,-8.01,-8.96,-8.00,-8.95,6.00,6.35,5.95,-2.01,-2.00,0.95
40.94,-7.90,-8.84,-7.89,-8.84,6.00,6.33,5.89,-1.90,-1.89,0.95
41.35,-7.80,-8.74,-7.79,-8.73,6.00,6.30,5.83,-1.80,-1.79,0.94
41.76,-7.69,-8.63,-7.68,-8.62,6.00,6.28,5.78,-1.69,-1.68,0.94
42.18,-7.59,-8.52,-7.58,-8.51,6.00,6.25,5.73,-1.59,-1.58,0.93
42.60,-7.48,-8.40,-7.48,-8.40,6.00,6.22,5.69,-1.48,-1.48,0.92
43.03,-7.38,-8.30,-7.38,-8.29,6.00,6.19,5.65,-1.38,-1.38,0.93
43.46,-7.28,-8.19,-7.28,-8.18,6.00,6.16,5.61,-1.28,-1.28,0.91
43.90,-7.18,-8.08,-7.18,-8.08,6.00,6.13,5.58,-1.18,-1.18,0.90
44.33,-7.09,-7.97,-7.09,-7.97,6.00,6.10,5.55,-1.09,-1.09,0.88
44.78,-6.99,-7.87,-6.99,-7.87,6.00,6.07,5.53,-0.99,-0.99,0.88
45.23,-6.89,-7.75,-6.90,-7.77,6.00,6.04,5.51,-0.89,-0.90,0.86
45.68,-6.80,-7.66,-6.80,-7.67,6.00,6.00,5.50,-0.80,-0.80,0.86
46.13,-6.72,-7.57,-6.72,-7.57,6.00,5.97,5.48,-0.72,-0.72,0.85
46.60,-6.63,-7.49,-6.63,-7.48,6.00,5.93,5.48,-0.63,-0.63,0.86
47.06,-6.55,-7.40,-6.54,-7.39,6.00,5.90,5.47,-0.55,-0.54,0.85
47.53,-6.46,-7.30,-6.46,-7.30,6.00,5.86,5.47,-0.46,-0.46,0.84
48.01,-6.38,-7.23,-6.38,-7.22,6.00,5.82,5.48,-0.38,-0.38,0.85
48.49,-6.30,-7.14,-6.30,-7.13,6.00,5.78,5.49,-0.30,-0.30,0.84
48.97,-6.22,-7.05,-6.22,-7.05,6.00,5.74,5.50,-0.22,-0.22,0.83
49.46,-6.15,-6.97,-6.15,-6.98,6.00,5.70,5.51,-0.15,-0.15,0.82
49.96,-6.08,-6.89,-6.07,-6.90,6.00,5.66,5.53,-0.08,-0.07,0.81
50.46,-6.00,-6.82,-6.00,-6.83,6.00,5.62,5.55,0.00,0.00,0.82
50.96,-5.93,-6.76,-5.92,-6.75,6.00,5.58,5.57,0.07,0.08,0.83
51.47,-5.85,-6.67,-5.85,-6.68,6.00,5.53,5.59,0.15,0.15,0.83
51.99,-5.78,-6.61,-5.78,-6.61,6.00,5.49,5.62,0.22,0.22,0.83
52.51,-5.71,-6.55,-5.71,-6.54,6.00,5.45,5.64,0.29,0.29,0.84
53.03,-5.65,-6.49,-5.64,-6.47,6.00,5.40,5.67,0.35,0.36,0.84
53.56,-5.58,-6.42,-5.58,-6.41,6.00,5.36,5.70,0.42,0.42,0.84
54.10,-5.51,-6.35,-5.51,-6.34,6.00,5.31,5.73,0.49,0.49,0.84
54.64,-5.44,-6.27,-5.44,-6.27,6.00,5.27,5.75,0.56,0.56,0.83
55.18,-5.38,-6.21,-5.38,-6.21,6.00,5.22,5.78,0.62,0.62,0.83
55.74,-5.32,-6.14,-5.32,-6.14,5.99,5.18,5.80,0.67,0.67,0.82
56.29,-5.26,-6.08,-5.26,-6.08,5.97,5.13,5.83,0.71,0.71,0.82
56.86,-5.20,-6.01,-5.20,-6.01,5.94,5.08,5.85,0.74,0.74,0.81
57.42,-5.14,-5.93,-5.14,-5.94,5.89,5.04,5.86,0.76,0.75,0.79
58.00,-5.08,-5.87,-5.08,-5.87,5.84,4.99,5.88,0.76,0.76,0.79
58.58,-5.03,-5.81,-5.02,-5.80,5.79,4.94,5.89,0.76,0.76,0.78
59.16,-4.97,-5.74,-4.97,-5.73,5.73,4.89,5.89,0.76,0.76,0.78
59.76,-4.91,-5.67,-4.91,-5.66,5.66,4.85,5.89,0.75,0.75,0.76
60.35,-4.86,-5.60,-4.86,-5.59,5.59,4.80,5.89,0.73,0.73,0.74
60.96,-4.81,-5.54,-4.81,-5.52,5.52,4.75,5.87,0.72,0.72,0.73
61.57,-4.76,-5.46,-4.75,-5.46,5.46,4.70,5.86,0.70,0.70,0.70
62.18,-4.70,-5.37,-4.70,-5.39,5.39,4.65,5.84,0.69,0.69,0.67
62.80,-4.65,-5.32,-4.65,-5.32,5.32,4.60,5.81,0.67,0.67,0.67
63.43,-4.60,-5.24,-4.59,-5.25,5.25,4.55,5.77,0.65,0.66,0.64
64.07,-4.54,-5.17,-4.54,-5.19,5.19,4.51,5.73,0.65,0.65,0.63
64.71,-4.49,-5.12,-4.49,-5.12,5.12,4.46,5.68,0.63,0.64,0.63
65.35,-4.44,-5.06,-4.43,-5.06,5.06,4.41,5.63,0.62,0.63,0.62
66.01,-4.39,-5.01,-4.38,-5.00,5.00,4.36,5.57,0.61,0.62,0.62
66.67,-4.32,-4.94,-4.32,-4.94,4.94,4.31,5.51,0.62,0.62,0.62
67.33,-4.26,-4.88,-4.26,-4.88,4.88,4.26,5.44,0.63,0.62,0.62
68.01,-4.20,-4.82,-4.21,-4.83,4.83,4.21,5.36,0.63,0.62,0.62
68.69,-4.15,-4.77,-4.15,-4.78,4.78,4.16,5.29,0.63,0.62,0.62
69.37,-4.10,-4.73,-4.10,-4.72,4.72,4.11,5.20,0.62,0.63,0.63
70.07,-4.05,-4.68,-4.04,-4.67,4.67,4.06,5.12,0.62,0.63,0.63
70.77,-3.99,-4.63,-3.99,-4.62,4.62,4.02,5.03,0.63,0.63,0.64
71.48,-3.93,-4.57,-3.93,-4.56,4.56,3.97,4.94,0.64,0.63,0.64
72.19,-3.87,-4.51,-3.87,-4.51,4.51,3.92,4.85,0.64,0.64,0.64
72.91,-3.82,-4.46,-3.82,-4.46,4.46,3.87,4.76,0.64,0.64,0.64
73.64,-3.76,-4.40,-3.76,-4.40,4.40,3.82,4.67,0.64,0.64,0.64
74.38,-3.71,-4.35,-3.71,-4.35,4.35,3.77,4.57,0.64,0.64,0.64
75.12,-3.66,-4.30,-3.66,-4.30,4.30,3.73,4.48,0.64,0.64,0.64
75.87,-3.61,-4.25,-3.60,-4.24,4.24,3.68,4.39,0.64,0.64,0.64
76.63,-3.56,-4.20,-3.55,-4.19,4.19,3.63,4.29,0.63,0.64,0.64
77.40,-3.50,-4.13,-3.50,-4.14,4.14,3.58,4.20,0.64,0.64,0.64
78.17,-3.44,-4.07,-3.45,-4.09,4.09,3.54,4.11,0.65,0.64,0.63
78.95,-3.38,-4.03,-3.39,-4.04,4.04,3.49,4.02,0.66,0.65,0.65
79.74,-3.34,-3.99,-3.34,-3.99,3.99,3.44,3.93,0.65,0.65,0.65
80.54,-3.30,-3.95,-3.29,-3.95,3.95,3.39,3.84,0.65,0.66,0.65
81.35,-3.25,-3.91,-3.24,-3.90,3.90,3.35,3.76,0.65,0.67,0.66
82.16,-3.20,-3.87,-3.18,-3.86,3.86,3.30,3.68,0.66,0.68,0.67
82.98,-3.14,-3.82,-3.13,-3.82,3.82,3.26,3.59,0.68,0.69,0.69
83.81,-3.08,-3.77,-3.08,-3.78,3.78,3.21,3.52,0.70,0.70,0.69
84.65,-3.03,-3.73,-3.03,-3.74,3.74,3.16,3.44,0.71,0.71,0.70
85.50,-2.98,-3.71,-2.98,-3.71,3.71,3.12,3.36,0.73,0.73,0.73
86.35,-2.92,-3.66,-2.93,-3.67,3.67,3.07,3.29,0.75,0.74,0.74
87.22,-2.87,-3.62,-2.88,-3.63,3.63,3.03,3.22,0.76,0.75,0.75
88.09,-2.83,-3.59,-2.83,-3.59,3.59,2.98,3.15,0.76,0.76,0.76
88.97,-2.79,-3.57,-2.78,-3.55,3.55,2.94,3.09,0.76,0.77,0.78
89.86,-2.75,-3.53,-2.73,-3.51,3.51,2.89,3.03,0.76,0.77,0.78
90.76,-2.69,-3.47,-2.68,-3.46,3.46,2.85,2.97,0.77,0.78,0.78
91.66,-2.65,-3.43,-2.64,-3.41,3.41,2.81,2.91,0.76,0.77,0.78
92.58,-2.60,-3.36,-2.60,-3.36,3.36,2.76,2.85,0.76,0.77,0.76
93.51,-2.56,-3.32,-2.56,-3.31,3.31,2.72,2.80,0.75,0.75,0.77
94.44,-2.52,-3.27,-2.52,-3.26,3.26,2.68,2.75,0.74,0.74,0.75
95.39,-2.47,-3.20,-2.48,-3.20,3.20,2.63,2.70,0.73,0.72,0.73
96.34,-2.44,-3.14,-2.45,-3.14,3.14,2.59,2.65,0.70,0.69,0.70
97.30,-2.40,-3.06,-2.42,-3.08,3.08,2.55,2.60,0.69,0.66,0.66
98.28,-2.37,-3.00,-2.39,-3.02,3.02,2.51,2.56,0.65,0.63,0.64
99.26,-2.36,-2.95,-2.36,-2.96,2.96,2.47,2.52,0.60,0.60,0.60
100.25,-2.34,-2.90,-2.34,-2.90,2.90,2.42,2.48,0.56,0.56,0.56
101.25,-2.32,-2.84,-2.32,-2.84,2.84,2.38,2.44,0.52,0.52,0.52
102.27,-2.31,-2.79,-2.29,-2.77,2.77,2.34,2.40,0.47,0.48,0.48
103.29,-2.29,-2.72,-2.27,-2.71,2.71,2.30,2.37,0.42,0.44,0.43
104.32,-2.27,-2.67,-2.25,-2.65,2.65,2.26,2.33,0.38,0.40,0.40
105.37,-2.24,-2.59,-2.23,-2.58,2.58,2.22,2.30,0.35,0.35,0.35
106.42,-2.21,-2.52,-2.21,-2.52,2.52,2.18,2.27,0.31,0.31,0.31
107.48,-2.19,-2.46,-2.18,-2.46,2.46,2.14,2.23,0.27,0.27,0.27
108.56,-2.16,-2.39,-2.16,-2.39,2.39,2.10,2.20,0.24,0.23,0.23
109.64,-2.13,-2.32,-2.13,-2.33,2.33,2.06,2.17,0.20,0.20,0.19
110.74,-2.10,-2.26,-2.10,-2.26,2.26,2.03,2.14,0.16,0.16,0.16
111.85,-2.07,-2.20,-2.07,-2.20,2.20,1.99,2.12,0.13,0.13,0.14
112.97,-2.04,-2.13,-2.04,-2.14,2.14,1.95,2.09,0.10,0.09,0.09
114.10,-2.02,-2.09,-2.01,-2.08,2.08,1.91,2.06,0.06,0.06,0.07
115.24,-1.99,-2.02,-1.98,-2.02,2.02,1.87,2.03,0.03,0.04,0.03
116.39,-1.96,-1.96,-1.95,-1.97,1.97,1.83,2.00,0.01,0.01,0.00
117.55,-1.93,-1.91,-1.93,-1.92,1.92,1.80,1.97,-0.01,-0.01,-0.02
118.73,-1.90,-1.86,-1.90,-1.87,1.87,1.76,1.94,-0.03,-0.03,-0.04
119.92,-1.86,-1.81,-1.87,-1.82,1.82,1.72,1.91,-0.04,-0.05,-0.05
121.12,-1.83,-1.76,-1.84,-1.78,1.78,1.69,1.88,-0.05,-0.07,-0.07
122.33,-1.82,-1.74,-1.81,-1.73,1.73,1.65,1.85,-0.09,-0.08,-0.08
123.55,-1.79,-1.70,-1.79,-1.69,1.69,1.61,1.82,-0.10,-0.10,-0.09
124.79,-1.76,-1.65,-1.76,-1.65,1.65,1.58,1.79,-0.11,-0.11,-0.10
126.03,-1.72,-1.61,-1.73,-1.61,1.61,1.54,1.75,-0.11,-0.12,-0.11
127.29,-1.71,-1.58,-1.70,-1.57,1.57,1.50,1.72,-0.14,-0.13,-0.12
128.57,-1.69,-1.54,-1.68,-1.54,1.54,1.47,1.68,-0.15,-0.14,-0.15
129.85,-1.65,-1.50,-1.65,-1.50,1.50,1.43,1.65,-0.15,-0.15,-0.15
131.15,-1.62,-1.45,-1.62,-1.46,1.46,1.40,1.61,-0.16,-0.17,-0.16
132.46,-1.60,-1.41,-1.60,-1.42,1.42,1.36,1.57,-0.18,-0.18,-0.19
133.79,-1.57,-1.38,-1.57,-1.37,1.37,1.33,1.53,-0.20,-0.20,-0.19
135.12,-1.54,-1.33,-1.54,-1.33,1.33,1.29,1.49,-0.21,-0.21,-0.21
136.48,-1.53,-1.31,-1.51,-1.28,1.28,1.25,1.45,-0.25,-0.23,-0.22
137.84,-1.49,-1.25,-1.48,-1.23,1.23,1.22,1.41,-0.26,-0.25,-0.24
139.22,-1.47,-1.20,-1.45,-1.18,1.18,1.18,1.37,-0.28,-0.26,-0.27
140.61,-1.44,-1.15,-1.42,-1.14,1.14,1.15,1.33,-0.30,-0.28,-0.29
142.02,-1.39,-1.09,-1.39,-1.09,1.09,1.11,1.29,-0.30,-0.30,-0.30
143.44,-1.37,-1.05,-1.37,-1.05,1.05,1.08,1.24,-0.32,-0.32,-0.32
144.87,-1.33,-0.98,-1.35,-1.01,1.01,1.04,1.20,-0.32,-0.34,-0.34
146.32,-1.32,-0.95,-1.33,-0.97,0.97,1.01,1.16,-0.35,-0.37,-0.37
147.78,-1.29,-0.90,-1.32,-0.93,0.93,0.97,1.11,-0.36,-0.39,-0.39
149.26,-1.28,-0.87,-1.31,-0.89,0.89,0.94,1.07,-0.38,-0.42,-0.41
150.75,-1.27,-0.82,-1.30,-0.86,0.86,0.90,1.02,-0.41,-0.45,-0.45
152.26,-1.28,-0.81,-1.30,-0.83,0.83,0.87,0.98,-0.45,-0.47,-0.47
153.78,-1.30,-0.80,-1.30,-0.79,0.79,0.83,0.94,-0.51,-0.50,-0.50
155.32,-1.31,-0.78,-1.29,-0.76,0.76,0.80,0.89,-0.55,-0.53,-0.53
156.88,-1.32,-0.77,-1.29,-0.72,0.72,0.76,0.85,-0.59,-0.56,-0.55
158.44,-1.31,-0.71,-1.28,-0.69,0.69,0.73,0.81,-0.62,-0.60,-0.59
160.03,-1.30,-0.67,-1.27,-0.64,0.64,0.69,0.76,-0.65,-0.63,-0.63
161.63,-1.28,-0.61,-1.26,-0.60,0.60,0.66,0.72,-0.68,-0.66,-0.67
163.24,-1.27,-0.57,-1.24,-0.55,0.55,0.62,0.67,-0.72,-0.69,-0.70
164.88,-1.23,-0.50,-1.22,-0.50,0.50,0.59,0.63,-0.73,-0.72,-0.73
166.53,-1.21,-0.45,-1.19,-0.44,0.44,0.55,0.59,-0.77,-0.75,-0.76
168.19,-1.18,-0.39,-1.17,-0.38,0.38,0.51,0.55,-0.80,-0.78,-0.78
169.87,-1.13,-0.32,-1.14,-0.32,0.32,0.48,0.50,-0.81,-0.81,-0.81
171.57,-1.10,-0.26,-1.11,-0.27,0.27,0.44,0.46,-0.83,-0.84,-0.84
173.29,-1.07,-0.20,-1.08,-0.21,0.21,0.40,0.42,-0.86,-0.87,-0.87
175.02,-1.03,-0.13,-1.06,-0.16,0.16,0.37,0.38,-0.86,-0.89,-0.89
176.77,-1.00,-0.08,-1.04,-0.12,0.12,0.33,0.34,-0.88,-0.92,-0.92
178.54,-0.99,-0.04,-1.02,-0.08,0.08,0.29,0.29,-0.91,-0.94,-0.95
180.32,-0.98,-0.02,-1.00,-0.05,0.05,0.25,0.25,-0.93,-0.95,-0.96
182.13,-0.98,-0.00,-0.98,-0.01,0.01,0.22,0.21,-0.97,-0.97,-0.98
183.95,-0.97,0.02,-0.97,0.02,-0.02,0.18,0.17,-0.99,-0.99,-0.99
185.79,-0.97,0.03,-0.95,0.05,-0.05,0.14,0.13,-1.02,-1.00,-1.00
187.65,-0.96,0.06,-0.94,0.08,-0.08,0.10,0.09,-1.03,-1.01,-1.02
189.52,-0.95,0.07,-0.92,0.10,-0.10,0.06,0.05,-1.05,-1.02,-1.02
191.42,-0.93,0.10,-0.90,0.13,-0.13,0.03,0.01,-1.06,-1.03,-1.03
193.33,-0.90,0.14,-0.88,0.16,-0.16,-0.01,-0.03,-1.06,-1.04,-1.03
195.27,-0.87,0.17,-0.85,0.19,-0.19,-0.05,-0.07,-1.06,-1.05,-1.04
197.22,-0.84,0.21,-0.83,0.22,-0.22,-0.09,-0.11,-1.06,-1.05,-1.05
199.19,-0.81,0.26,-0.80,0.25,-0.25,-0.13,-0.15,-1.06,-1.06,-1.07
201.18,-0.77,0.30,-0.78,0.29,-0.29,-0.17,-0.19,-1.06,-1.07,-1.07
203.19,-0.74,0.33,-0.75,0.32,-0.32,-0.21,-0.23,-1.06,-1.07,-1.07
205.23,-0.71,0.37,-0.73,0.35,-0.35,-0.24,-0.27,-1.05,-1.08,-1.08
207.28,-0.68,0.40,-0.71,0.37,-0.37,-0.28,-0.31,-1.05,-1.09,-1.08
209.35,-0.66,0.43,-0.69,0.40,-0.40,-0.32,-0.34,-1.06,-1.09,-1.09
211.44,-0.65,0.46,-0.68,0.42,-0.42,-0.36,-0.38,-1.07,-1.10,-1.11
213.56,-0.65,0.46,-0.66,0.45,-0.45,-0.39,-0.42,-1.09,-1.10,-1.10
215.69,-0.65,0.45,-0.64,0.47,-0.47,-0.43,-0.45,-1.12,-1.11,-1.10
217.85,-0.65,0.47,-0.63,0.49,-0.49,-0.46,-0.49,-1.14,-1.12,-1.12
220.03,-0.64,0.49,-0.61,0.51,-0.51,-0.50,-0.52,-1.15,-1.13,-1.13
222.23,-0.63,0.52,-0.60,0.54,-0.54,-0.53,-0.55,-1.17,-1.14,-1.15
224.45,-0.61,0.54,-0.58,0.57,-0.57,-0.57,-0.58,-1.18,-1.15,-1.14
226.70,-0.57,0.58,-0.56,0.60,-0.60,-0.60,-0.61,-1.17,-1.16,-1.15
228.96,-0.54,0.62,-0.53,0.64,-0.64,-0.63,-0.64,-1.17,-1.17,-1.16
231.25,-0.52,0.65,-0.51,0.67,-0.67,-0.66,-0.67,-1.19,-1.18,-1.16
233.57,-0.48,0.70,-0.48,0.71,-0.71,-0.68,-0.69,-1.19,-1.19,-1.18
235.90,-0.44,0.76,-0.45,0.75,-0.75,-0.71,-0.71,-1.19,-1.20,-1.20
238.26,-0.42,0.79,-0.42,0.79,-0.79,-0.74,-0.74,-1.21,-1.21,-1.21
240.64,-0.39,0.84,-0.40,0.82,-0.82,-0.76,-0.75,-1.21,-1.22,-1.23
243.05,-0.36,0.87,-0.37,0.85,-0.85,-0.78,-0.77,-1.21,-1.23,-1.23
245.48,-0.34,0.90,-0.35,0.88,-0.88,-0.80,-0.79,-1.22,-1.23,-1.24
247.93,-0.31,0.93,-0.34,0.90,-0.90,-0.82,-0.80,-1.21,-1.24,-1.24
250.41,-0.30,0.96,-0.32,0.92,-0.92,-0.83,-0.81,-1.21,-1.24,-1.26
252.92,-0.30,0.94,-0.32,0.92,-0.92,-0.84,-0.82,-1.22,-1.24,-1.24
255.45,-0.31,0.93,-0.31,0.93,-0.93,-0.86,-0.83,-1.23,-1.23,-1.24
258.00,-0.32,0.91,-0.31,0.92,-0.92,-0.86,-0.84,-1.24,-1.23,-1.23
260.58,-0.32,0.91,-0.31,0.91,-0.91,-0.87,-0.84,-1.23,-1.22,-1.22
263.19,-0.32,0.89,-0.31,0.90,-0.90,-0.88,-0.85,-1.22,-1.21,-1.21
265.82,-0.32,0.88,-0.31,0.89,-0.89,-0.88,-0.85,-1.20,-1.19,-1.20
268.48,-0.32,0.86,-0.31,0.87,-0.87,-0.88,-0.85,-1.19,-1.18,-1.18
271.16,-0.32,0.84,-0.31,0.85,-0.85,-0.88,-0.84,-1.17,-1.16,-1.16
273.87,-0.32,0.82,-0.32,0.83,-0.83,-0.88,-0.84,-1.15,-1.15,-1.14
276.61,-0.32,0.80,-0.32,0.81,-0.81,-0.87,-0.84,-1.13,-1.13,-1.12
279.38,-0.32,0.79,-0.32,0.79,-0.79,-0.87,-0.83,-1.11,-1.11,-1.11
282.17,-0.32,0.77,-0.32,0.78,-0.78,-0.86,-0.82,-1.09,-1.09,-1.09
284.99,-0.32,0.76,-0.32,0.76,-0.76,-0.85,-0.81,-1.08,-1.08,-1.08
287.84,-0.32,0.74,-0.32,0.74,-0.74,-0.84,-0.81,-1.06,-1.06,-1.06
290.72,-0.32,0.71,-0.32,0.72,-0.72,-0.83,-0.80,-1.04,-1.04,-1.03
293.63,-0.32,0.70,-0.32,0.70,-0.70,-0.82,-0.79,-1.02,-1.02,-1.02
296.57,-0.32,0.68,-0.32,0.68,-0.68,-0.80,-0.78,-1.00,-1.00,-1.00
299.53,-0.32,0.66,-0.32,0.66,-0.66,-0.79,-0.77,-0.98,-0.98,-0.98
302.53,-0.32,0.65,-0.32,0.64,-0.64,-0.77,-0.75,-0.96,-0.95,-0.97
305.55,-0.32,0.61,-0.32,0.61,-0.61,-0.76,-0.74,-0.93,-0.93,-0.93
308.61,-0.32,0.60,-0.32,0.59,-0.59,-0.74,-0.73,-0.91,-0.91,-0.91
311.69,-0.32,0.57,-0.32,0.56,-0.56,-0.73,-0.72,-0.88,-0.89,-0.89
314.81,-0.32,0.53,-0.33,0.54,-0.54,-0.71,-0.71,-0.86,-0.86,-0.85
317.96,-0.32,0.51,-0.33,0.51,-0.51,-0.69,-0.70,-0.83,-0.84,-0.83
321.14,-0.32,0.49,-0.33,0.48,-0.48,-0.67,-0.69,-0.80,-0.82,-0.81
324.35,-0.32,0.48,-0.34,0.46,-0.46,-0.66,-0.68,-0.77,-0.79,-0.79
327.59,-0.33,0.44,-0.34,0.43,-0.43,-0.64,-0.67,-0.76,-0.77,-0.77
330.87,-0.34,0.41,-0.34,0.41,-0.41,-0.62,-0.66,-0.74,-0.74,-0.75
334.18,-0.35,0.37,-0.33,0.38,-0.38,-0.61,-0.65,-0.73,-0.72,-0.72
337.52,-0.35,0.35,-0.33,0.36,-0.36,-0.59,-0.64,-0.71,-0.69,-0.70
340.90,-0.34,0.33,-0.32,0.35,-0.35,-0.57,-0.63,-0.69,-0.67,-0.67
344.30,-0.32,0.32,-0.30,0.34,-0.34,-0.56,-0.62,-0.66,-0.65,-0.64
347.75,-0.31,0.32,-0.29,0.33,-0.33,-0.54,-0.62,-0.64,-0.62,-0.62
351.23,-0.28,0.32,-0.26,0.33,-0.33,-0.52,-0.61,-0.61,-0.60,-0.60
354.74,-0.25,0.32,-0.24,0.33,-0.33,-0.51,-0.60,-0.58,-0.57,-0.57
358.28,-0.22,0.33,-0.21,0.34,-0.34,-0.49,-0.60,-0.55,-0.55,-0.55
361.87,-0.18,0.34,-0.18,0.34,-0.34,-0.48,-0.59,-0.52,-0.52,-0.52
365.49,-0.15,0.34,-0.15,0.35,-0.35,-0.46,-0.59,-0.50,-0.50,-0.49
369.14,-0.12,0.36,-0.12,0.35,-0.35,-0.45,-0.58,-0.47,-0.47,-0.48
372.83,-0.08,0.37,-0.09,0.36,-0.36,-0.44,-0.58,-0.44,-0.45,-0.45
376.56,-0.04,0.39,-0.06,0.36,-0.36,-0.42,-0.58,-0.40,-0.43,-0.43
380.33,-0.02,0.38,-0.04,0.37,-0.37,-0.41,-0.57,-0.39,-0.41,-0.39
384.13,0.00,0.39,-0.02,0.37,-0.37,-0.40,-0.57,-0.36,-0.39,-0.39
387.97,0.01,0.38,-0.00,0.36,-0.36,-0.39,-0.57,-0.35,-0.37,-0.37
391.85,0.02,0.38,0.00,0.36,-0.36,-0.37,-0.57,-0.34,-0.35,-0.36
395.77,0.02,0.35,0.01,0.35,-0.35,-0.36,-0.57,-0.33,-0.34,-0.33
399.73,0.01,0.33,0.01,0.34,-0.34,-0.35,-0.57,-0.33,-0.33,-0.32
403.72,0.01,0.33,0.01,0.33,-0.33,-0.34,-0.56,-0.32,-0.32,-0.32
407.76,0.00,0.31,0.01,0.32,-0.32,-0.33,-0.56,-0.32,-0.31,-0.31
411.84,0.00,0.30,0.00,0.31,-0.31,-0.32,-0.56,-0.31,-0.31,-0.30
415.96,0.00,0.30,-0.00,0.30,-0.30,-0.31,-0.57,-0.30,-0.30,-0.30
420.12,-0.01,0.29,-0.01,0.30,-0.30,-0.30,-0.57,-0.30,-0.30,-0.30
424.32,-0.02,0.28,-0.01,0.30,-0.30,-0.29,-0.57,-0.32,-0.30,-0.30
428.56,-0.02,0.28,-0.00,0.30,-0.30,-0.28,-0.57,-0.32,-0.31,-0.30
432.85,-0.02,0.29,0.00,0.31,-0.31,-0.28,-0.57,-0.33,-0.31,-0.31
437.18,0.00,0.32,0.02,0.33,-0.33,-0.27,-0.57,-0.33,-0.31,-0.31
441.55,0.01,0.33,0.03,0.35,-0.35,-0.26,-0.57,-0.34,-0.32,-0.31
445.96,0.03,0.36,0.05,0.37,-0.37,-0.25,-0.57,-0.34,-0.32,-0.32
