frequency,raw
20.00,9.75
20.20,9.71
20.40,9.66
20.61,9.62
20.81,9.58
21.02,9.54
21.23,9.49
21.44,9.45
21.66,9.41
21.87,9.36
22.09,9.32
22.31,9.28
22.54,9.24
22.76,9.19
22.99,9.15
23.22,9.11
23.45,9.07
23.69,9.03
23.92,8.98
24.16,8.94
24.40,8.90
24.65,8.86
24.89,8.82
25.14,8.78
25.39,8.74
25.65,8.70
25.91,8.65
26.16,8.61
26.43,8.58
26.69,8.54
26.96,8.50
27.23,8.46
27.50,8.42
27.77,8.38
28.05,8.34
28.33,8.31
28.62,8.27
28.90,8.23
29.19,8.20
29.48,8.16
29.78,8.13
30.08,8.09
30.38,8.05
30.68,8.02
30.99,7.98
31.30,7.95
31.61,7.92
31.93,7.89
32.24,7.86
32.57,7.83
32.89,7.81
33.22,7.79
33.55,7.77
33.89,7.76
34.23,7.74
34.57,7.72
34.92,7.70
35.27,7.69
35.62,7.67
35.97,7.65
36.33,7.63
36.70,7.60
37.06,7.58
37.43,7.55
37.81,7.53
38.19,7.51
38.57,7.48
38.95,7.45
39.34,7.43
39.74,7.40
40.14,7.37
40.54,7.35
40.94,7.33
41.35,7.31
41.76,7.29
42.18,7.28
42.60,7.27
43.03,7.26
43.46,7.24
43.90,7.22
44.33,7.21
44.78,7.20
45.23,7.19
45.68,7.18
46.13,7.17
46.60,7.16
47.06,7.15
47.53,7.16
48.01,7.16
48.49,7.16
48.97,7.16
49.46,7.16
49.96,7.17
50.46,7.17
50.96,7.18
51.47,7.19
51.99,7.20
52.51,7.22
53.03,7.23
53.56,7.24
54.10,7.24
54.64,7.24
55.18,7.24
55.74,7.24
56.29,7.24
56.86,7.23
57.42,7.22
58.00,7.21
58.58,7.20
59.16,7.20
59.76,7.19
60.35,7.19
60.96,7.18
61.57,7.17
62.18,7.17
62.80,7.16
63.43,7.16
64.07,7.16
64.71,7.17
65.35,7.19
66.01,7.22
66.67,7.27
67.33,7.31
68.01,7.36
68.69,7.41
69.37,7.46
70.07,7.52
70.77,7.58
71.48,7.65
72.19,7.72
72.91,7.80
73.64,7.88
74.38,7.96
75.12,8.04
75.87,8.13
76.63,8.20
77.40,8.29
78.17,8.38
78.95,8.47
79.74,8.56
80.54,8.64
81.35,8.71
82.16,8.77
82.98,8.85
83.81,8.91
84.65,8.95
85.50,8.98
86.35,9.02
87.22,9.05
88.09,9.07
88.97,9.09
89.86,9.10
90.76,9.10
91.66,9.11
92.58,9.10
93.51,9.09
94.44,9.09
95.39,9.08
96.34,9.07
97.30,9.07
98.28,9.06
99.26,9.06
100.25,9.08
101.25,9.10
102.27,9.11
103.29,9.12
104.32,9.14
105.37,9.17
106.42,9.21
107.48,9.25
108.56,9.29
109.64,9.32
110.74,9.35
111.85,9.39
112.97,9.41
114.10,9.42
115.24,9.43
116.39,9.43
117.55,9.42
118.73,9.41
119.92,9.41
121.12,9.41
122.33,9.41
123.55,9.41
124.79,9.42
126.03,9.43
127.29,9.43
128.57,9.42
129.85,9.40
131.15,9.38
132.46,9.36
133.79,9.33
135.12,9.29
136.48,9.26
137.84,9.22
139.22,9.21
140.61,9.18
142.02,9.15
143.44,9.12
144.87,9.08
146.32,9.05
147.78,9.02
149.26,8.99
150.75,8.98
152.26,8.97
153.78,8.94
155.32,8.90
156.88,8.85
158.44,8.80
160.03,8.75
161.63,8.72
163.24,8.69
164.88,8.63
166.53,8.58
168.19,8.55
169.87,8.50
171.57,8.47
173.29,8.42
175.02,8.33
176.77,8.27
178.54,8.21
180.32,8.17
182.13,8.12
183.95,8.05
185.79,7.99
187.65,7.93
189.52,7.87
191.42,7.80
193.33,7.73
195.27,7.68
197.22,7.62
199.19,7.56
201.18,7.48
203.19,7.41
205.23,7.35
207.28,7.29
209.35,7.21
211.44,7.12
213.56,7.04
215.69,6.95
217.85,6.88
220.03,6.82
222.23,6.74
224.45,6.65
226.70,6.57
228.96,6.48
231.25,6.41
233.57,6.34
235.90,6.25
238.26,6.19
240.64,6.10
243.05,6.04
245.48,5.97
247.93,5.89
250.41,5.83
252.92,5.75
255.45,5.69
258.00,5.63
260.58,5.56
263.19,5.50
265.82,5.43
268.48,5.38
271.16,5.33
273.87,5.25
276.61,5.18
279.38,5.12
282.17,5.07
284.99,5.01
287.84,4.93
290.72,4.86
293.63,4.78
296.57,4.70
299.53,4.62
302.53,4.53
305.55,4.42
308.61,4.31
311.69,4.22
314.81,4.15
317.96,4.07
321.14,3.97
324.35,3.87
327.59,3.78
330.87,3.71
334.18,3.63
337.52,3.54
340.90,3.49
344.30,3.42
347.75,3.35
351.23,3.29
354.74,3.23
358.28,3.18
361.87,3.13
365.49,3.08
369.14,3.03
372.83,2.99
376.56,2.94
380.33,2.90
384.13,2.86
387.97,2.81
391.85,2.76
395.77,2.70
399.73,2.65
403.72,2.58
407.76,2.50
411.84,2.42
415.96,2.33
420.12,2.24
424.32,2.14
428.56,2.06
432.85,1.97
437.18,1.89
441.55,1.80
445.96,1.70
450.42,1.59
454.93,1.52
459.48,1.42
464.07,1.34
468.71,1.25
473.40,1.16
478.13,1.09
482.91,1.03
487.74,0.97
492.62,0.90
497.55,0.82
502.52,0.76
507.55,0.70
512.62,0.64
517.75,0.57
522.93,0.53
528.16,0.50
533.44,0.46
538.77,0.42
544.16,0.39
549.60,0.36
555.10,0.33
560.65,0.29
566.25,0.25
571.92,0.21
577.64,0.18
583.41,0.16
589.25,0.13
595.14,0.10
601.09,0.06
607.10,0.03
613.17,0.02
619.30,-0.00
625.50,-0.02
631.75,-0.02
638.07,-0.02
644.45,-0.01
650.89,0.00
657.40,0.00
663.98,0.00
670.62,0.00
677.32,0.00
684.10,0.00
690.94,0.00
697.85,0.00
704.83,0.00
711.87,0.00
718.99,0.00
726.18,0.00
733.44,0.00
740.78,0.00
748.19,0.00
755.67,0.00
763.23,0.00
770.86,0.00
778.57,0.00
786.35,0.00
794.22,0.00
802.16,0.00
810.18,0.00
818.28,0.00
826.46,0.00
834.73,0.00
843.08,0.00
851.51,0.00
860.02,0.00
868.62,0.00
877.31,0.00
886.08,0.00
894.94,0.00
903.89,0.00
912.93,0.00
922.06,0.00
931.28,0.00
940.59,0.00
950.00,0.00
959.50,0.00
969.09,0.00
978.78,0.00
988.57,0.00
998.46,0.00
1008.44,0.00
1018.53,0.00
1028.71,0.00
1039.00,0.00
1049.39,0.00
1059.88,0.00
1070.48,0.00
1081.19,0.00
1092.00,0.00
1102.92,0.00
1113.95,0.00
1125.09,0.00
1136.34,0.00
1147.70,0.00
1159.18,0.00
1170.77,0.00
1182.48,0.01
1194.30,0.02
1206.25,0.02
1218.31,0.02
1230.49,-0.00
1242.80,-0.02
1255.22,-0.04
1267.78,-0.06
1280.45,-0.09
1293.26,-0.13
1306.19,-0.16
1319.25,-0.20
1332.45,-0.24
1345.77,-0.28
1359.23,-0.31
1372.82,-0.33
1386.55,-0.33
1400.41,-0.32
1414.42,-0.30
1428.56,-0.27
1442.85,-0.24
1457.28,-0.21
1471.85,-0.17
1486.57,-0.13
1501.43,-0.09
1516.45,-0.05
1531.61,0.00
1546.93,0.05
1562.40,0.10
1578.02,0.16
1593.80,0.21
1609.74,0.27
1625.84,0.33
1642.10,0.41
1658.52,0.51
1675.10,0.61
1691.85,0.73
1708.77,0.85
1725.86,0.98
1743.12,1.11
1760.55,1.26
1778.15,1.42
1795.94,1.58
1813.90,1.74
1832.03,1.89
1850.36,2.07
1868.86,2.23
1887.55,2.40
1906.42,2.58
1925.49,2.76
1944.74,2.94
1964.19,3.12
1983.83,3.32
2003.67,3.52
2023.71,3.74
2043.94,3.95
2064.38,4.16
2085.03,4.38
2105.88,4.60
2126.94,4.83
2148.20,5.07
2169.69,5.29
2191.38,5.52
2213.30,5.75
2235.43,5.98
2257.78,6.22
2280.36,6.45
2303.17,6.67
2326.20,6.89
2349.46,7.08
2372.95,7.29
2396.68,7.49
2420.65,7.69
2444.86,7.89
2469.31,8.08
2494.00,8.27
2518.94,8.46
2544.13,8.66
2569.57,8.84
2595.27,9.02
2621.22,9.21
2647.43,9.39
2673.90,9.56
2700.64,9.73
2727.65,9.91
2754.93,10.07
2782.48,10.21
2810.30,10.35
2838.40,10.47
2866.79,10.59
2895.46,10.71
2924.41,10.83
2953.65,10.94
2983.19,11.06
3013.02,11.16
3043.15,11.24
3073.58,11.32
3104.32,11.41
3135.36,11.50
3166.72,11.57
3198.38,11.64
3230.37,11.71
3262.67,11.77
3295.30,11.82
3328.25,11.86
3361.53,11.90
3395.15,11.93
3429.10,11.96
3463.39,11.99
3498.03,12.01
3533.01,12.04
3568.34,12.04
3604.02,12.03
3640.06,12.01
3676.46,11.98
3713.22,11.95
3750.36,11.92
3787.86,11.88
3825.74,11.85
3864.00,11.82
3902.64,11.80
3941.66,11.77
3981.08,11.74
4020.89,11.70
4061.10,11.66
4101.71,11.62
4142.73,11.58
4184.15,11.55
4226.00,11.52
4268.26,11.49
4310.94,11.47
4354.05,11.45
4397.59,11.45
4441.56,11.45
4485.98,11.45
4530.84,11.47
4576.15,11.49
4621.91,11.52
4668.13,11.55
4714.81,11.59
4761.96,11.62
4809.58,11.65
4857.67,11.68
4906.25,11.69
4955.31,11.69
5004.87,11.67
5054.91,11.66
5105.46,11.66
5156.52,11.66
5208.08,11.67
5260.16,11.69
5312.77,11.71
5365.89,11.74
5419.55,11.79
5473.75,11.85
5528.49,11.91
5583.77,11.97
5639.61,12.03
5696.00,12.10
5752.96,12.16
5810.49,12.23
5868.60,12.29
5927.28,12.34
5986.56,12.37
6046.42,12.37
6106.89,12.35
6167.96,12.32
6229.64,12.26
6291.93,12.19
6354.85,12.09
6418.40,11.98
6482.58,11.87
6547.41,11.72
6612.88,11.52
6679.01,11.28
6745.80,11.01
6813.26,10.68
6881.39,10.32
6950.21,9.91
7019.71,9.48
7089.91,9.01
7160.81,8.51
7232.41,7.98
7304.74,7.43
7377.79,6.89
7451.56,6.36
7526.08,5.84
7601.34,5.35
7677.35,4.89
7754.13,4.48
7831.67,4.11
7909.98,3.77
7989.08,3.43
8068.98,3.12
8149.67,2.82
8231.16,2.53
8313.47,2.23
8396.61,1.92
8480.57,1.60
8565.38,1.26
8651.03,0.90
8737.54,0.52
8824.92,0.14
8913.17,-0.28
9002.30,-0.69
9092.32,-1.10
9183.25,-1.49
9275.08,-1.87
9367.83,-2.20
9461.51,-2.49
9556.12,-2.71
9651.68,-2.86
9748.20,-2.94
9845.68,-2.97
9944.14,-2.92
10043.58,-2.80
10144.02,-2.62
10245.46,-2.39
10347.91,-2.13
10451.39,-1.84
10555.91,-1.53
10661.46,-1.21
10768.08,-0.89
10875.76,-0.59
10984.52,-0.30
11094.36,-0.03
11205.31,0.23
11317.36,0.47
11430.53,0.68
11544.84,0.88
11660.29,1.06
11776.89,1.21
11894.66,1.33
12013.60,1.44
12133.74,1.53
12255.08,1.61
12377.63,1.67
12501.41,1.70
12626.42,1.70
12752.68,1.68
12880.21,1.63
13009.01,1.57
13139.10,1.49
13270.49,1.38
13403.20,1.24
13537.23,1.08
13672.60,0.88
13809.33,0.65
13947.42,0.38
14086.90,0.08
14227.77,-0.25
14370.04,-0.61
14513.74,-0.99
14658.88,-1.38
14805.47,-1.79
14953.52,-2.21
15103.06,-2.64
15254.09,-3.09
15406.63,-3.54
15560.70,-3.99
15716.30,-4.45
15873.47,-4.90
16032.20,-5.36
16192.52,-5.85
16354.45,-6.36
16517.99,-6.89
16683.17,-7.49
16850.01,-8.19
17018.51,-9.00
17188.69,-9.91
17360.58,-10.91
17534.18,-11.96
17709.53,-13.04
17886.62,-14.10
18065.49,-15.11
18246.14,-15.86
18428.60,-16.51
18612.89,-17.09
18799.02,-17.60
18987.01,-18.04
19176.88,-18.42
19368.65,-18.73
19562.33,-18.99
19757.96,-19.17
19955.54,-19.30
