frequency,raw,error,smoothed,error_smoothed,equalization,parametric_eq,equalized_raw,equalized_smoothed,target
20,-3.64,-6.85,-3.65,-6.84,6.92,1.06,3.29,3.28,3.22
21,-3.15,-6.36,-3.07,-6.26,6.31,1.23,3.16,3.24,3.21
22,-2.53,-5.74,-2.52,-5.71,5.73,1.41,3.21,3.22,3.21
23,-2.00,-5.20,-1.99,-5.18,5.19,1.60,3.20,3.20,3.20
24,-1.49,-4.68,-1.49,-4.68,4.68,1.81,3.19,3.19,3.20
25,-1.01,-4.20,-1.01,-4.20,4.20,2.01,3.19,3.19,3.19
26,-0.51,-3.69,-0.55,-3.74,3.74,2.21,3.23,3.18,3.19
27,-0.06,-3.24,-0.12,-3.30,3.30,2.39,3.25,3.18,3.18
28,0.32,-2.85,0.28,-2.89,2.89,2.54,3.21,3.17,3.17
29,0.70,-2.46,0.66,-2.50,2.50,2.65,3.21,3.17,3.17
30,1.03,-2.12,1.02,-2.14,2.14,2.70,3.17,3.16,3.16
31,1.35,-1.80,1.34,-1.81,1.81,2.69,3.16,3.15,3.15
32,1.64,-1.50,1.64,-1.50,1.50,2.62,3.14,3.13,3.14
33,1.91,-1.22,1.91,-1.21,1.21,2.50,3.13,3.12,3.13
34,2.16,-0.96,2.16,-0.95,0.95,2.34,3.11,3.11,3.12
35,2.37,-0.74,2.39,-0.70,0.70,2.15,3.08,3.10,3.11
36,2.57,-0.52,2.61,-0.48,0.48,1.94,3.05,3.09,3.10
37,2.78,-0.30,2.81,-0.26,0.26,1.71,3.05,3.07,3.09
38,2.98,-0.09,3.00,-0.06,0.06,1.48,3.05,3.06,3.07
39,3.16,0.10,3.18,0.12,-0.12,1.25,3.04,3.05,3.06
40,3.32,0.28,3.34,0.30,-0.30,1.02,3.02,3.04,3.05
41,3.49,0.46,3.49,0.46,-0.46,0.80,3.03,3.02,3.03
42,3.64,0.63,3.62,0.61,-0.61,0.58,3.03,3.01,3.02
43,3.77,0.77,3.75,0.75,-0.75,0.37,3.02,3.00,3.00
44,3.88,0.90,3.86,0.88,-0.88,0.16,3.00,2.98,2.99
45,3.97,1.01,3.96,1.00,-1.00,-0.04,2.98,2.96,2.97
46,4.06,1.11,4.05,1.11,-1.11,-0.23,2.96,2.95,2.95
47,4.12,1.19,4.13,1.21,-1.21,-0.43,2.92,2.93,2.93
48,4.19,1.28,4.20,1.30,-1.30,-0.61,2.90,2.91,2.91
49,4.23,1.34,4.27,1.38,-1.38,-0.79,2.85,2.89,2.89
50,4.31,1.44,4.32,1.46,-1.46,-0.97,2.86,2.87,2.87
51,4.36,1.51,4.37,1.53,-1.53,-1.13,2.84,2.84,2.85
52,4.40,1.58,4.41,1.59,-1.59,-1.30,2.81,2.82,2.83
53,4.42,1.62,4.45,1.65,-1.65,-1.45,2.78,2.80,2.81
54,4.47,1.69,4.48,1.70,-1.70,-1.60,2.77,2.78,2.78
55,4.53,1.78,4.51,1.75,-1.75,-1.73,2.78,2.75,2.76
56,4.53,1.80,4.53,1.80,-1.80,-1.86,2.74,2.73,2.73
57,4.53,1.83,4.54,1.83,-1.83,-1.97,2.70,2.71,2.71
58,4.55,1.87,4.55,1.87,-1.87,-2.07,2.69,2.68,2.68
59,4.55,1.90,4.55,1.89,-1.89,-2.16,2.66,2.66,2.65
60,4.53,1.91,4.54,1.91,-1.91,-2.24,2.62,2.63,2.62
61,4.53,1.94,4.52,1.93,-1.93,-2.30,2.61,2.60,2.60
62,4.53,1.97,4.51,1.94,-1.94,-2.35,2.59,2.57,2.57
63,4.49,1.96,4.48,1.95,-1.95,-2.39,2.55,2.53,2.54
64,4.45,1.95,4.45,1.95,-1.95,-2.41,2.50,2.50,2.51
65,4.41,1.94,4.42,1.95,-1.95,-2.43,2.46,2.47,2.48
66,4.37,1.93,4.39,1.95,-1.95,-2.43,2.42,2.43,2.44
67,4.34,1.93,4.36,1.95,-1.95,-2.43,2.39,2.40,2.41
68,4.30,1.92,4.33,1.95,-1.95,-2.42,2.35,2.37,2.38
69,4.27,1.93,4.30,1.96,-1.96,-2.40,2.32,2.34,2.35
70,4.23,1.92,4.26,1.96,-1.96,-2.38,2.28,2.31,2.31
71,4.23,1.95,4.23,1.96,-1.96,-2.35,2.27,2.27,2.28
72,4.19,1.95,4.20,1.97,-1.97,-2.32,2.23,2.24,2.25
73,4.19,1.98,4.18,1.97,-1.97,-2.29,2.22,2.20,2.21
74,4.19,2.02,4.15,1.98,-1.98,-2.25,2.21,2.17,2.18
75,4.14,2.00,4.13,1.99,-1.99,-2.22,2.15,2.14,2.14
76,4.10,2.00,4.10,2.00,-2.00,-2.19,2.11,2.10,2.11
77,4.06,1.99,4.08,2.01,-2.01,-2.15,2.06,2.07,2.07
78,4.01,1.98,4.05,2.02,-2.02,-2.12,2.00,2.03,2.04
79,4.01,2.01,4.02,2.02,-2.02,-2.09,1.99,2.00,2.00
80,3.97,2.01,3.99,2.03,-2.03,-2.06,1.94,1.96,1.96
81,3.97,2.05,3.96,2.04,-2.04,-2.03,1.93,1.92,1.93
82,3.93,2.04,3.93,2.04,-2.04,-2.01,1.89,1.89,1.89
83,3.92,2.07,3.90,2.05,-2.05,-1.98,1.87,1.85,1.85
84,3.88,2.07,3.87,2.05,-2.05,-1.96,1.83,1.81,1.82
85,3.84,2.06,3.84,2.06,-2.06,-1.94,1.79,1.78,1.78
86,3.80,2.06,3.80,2.06,-2.06,-1.92,1.74,1.74,1.75
87,3.76,2.05,3.77,2.06,-2.06,-1.91,1.70,1.71,1.71
88,3.73,2.06,3.74,2.06,-2.06,-1.90,1.67,1.67,1.67
89,3.69,2.06,3.70,2.07,-2.07,-1.89,1.63,1.63,1.64
90,3.65,2.05,3.67,2.07,-2.07,-1.88,1.59,1.60,1.60
91,3.62,2.06,3.63,2.07,-2.07,-1.87,1.56,1.56,1.57
92,3.58,2.05,3.60,2.07,-2.07,-1.87,1.51,1.53,1.53
93,3.55,2.06,3.56,2.07,-2.07,-1.86,1.48,1.49,1.49
94,3.54,2.08,3.53,2.07,-2.07,-1.86,1.47,1.46,1.46
95,3.49,2.07,3.50,2.07,-2.07,-1.86,1.42,1.43,1.42
96,3.45,2.06,3.47,2.08,-2.08,-1.87,1.38,1.39,1.39
97,3.44,2.09,3.43,2.08,-2.08,-1.87,1.37,1.35,1.36
98,3.41,2.09,3.39,2.08,-2.08,-1.87,1.34,1.32,1.32
99,3.36,2.08,3.36,2.07,-2.07,-1.88,1.29,1.28,1.29
100,3.32,2.07,3.32,2.07,-2.07,-1.89,1.25,1.24,1.25
101,3.29,2.07,3.28,2.07,-2.07,-1.90,1.23,1.21,1.22
102,3.25,2.07,3.24,2.06,-2.06,-1.90,1.19,1.17,1.19
104,3.16,2.04,3.19,2.06,-2.06,-1.92,1.10,1.14,1.12
105,3.14,2.05,3.15,2.05,-2.05,-1.93,1.09,1.10,1.09
106,3.09,2.03,3.12,2.05,-2.05,-1.94,1.05,1.07,1.06
107,3.06,2.03,3.08,2.04,-2.04,-1.95,1.02,1.03,1.03
108,3.03,2.04,3.04,2.04,-2.04,-1.96,1.00,1.00,1.00
109,2.99,2.03,3.00,2.03,-2.03,-1.98,0.96,0.97,0.97
110,2.96,2.03,2.96,2.03,-2.03,-1.99,0.94,0.93,0.94
111,2.93,2.02,2.92,2.02,-2.02,-2.00,0.91,0.90,0.91
112,2.89,2.01,2.89,2.01,-2.01,-2.00,0.88,0.87,0.88
113,2.86,2.01,2.85,2.01,-2.01,-2.01,0.86,0.84,0.85
114,2.82,2.00,2.82,2.00,-2.00,-2.02,0.82,0.82,0.82
115,2.80,2.01,2.78,1.99,-1.99,-2.03,0.81,0.79,0.80
117,2.73,1.99,2.74,1.99,-1.99,-2.04,0.75,0.76,0.74
118,2.68,1.97,2.70,1.98,-1.98,-2.04,0.71,0.72,0.72
119,2.65,1.96,2.66,1.97,-1.97,-2.05,0.68,0.69,0.69
120,2.62,1.96,2.62,1.96,-1.96,-2.05,0.66,0.66,0.66
121,2.60,1.96,2.58,1.95,-1.95,-2.05,0.65,0.63,0.64
123,2.53,1.94,2.54,1.94,-1.94,-2.05,0.59,0.60,0.59
124,2.49,1.93,2.50,1.93,-1.93,-2.04,0.56,0.57,0.57
125,2.47,1.93,2.46,1.93,-1.93,-2.04,0.55,0.54,0.54
126,2.43,1.91,2.43,1.92,-1.92,-2.03,0.52,0.51,0.52
128,2.37,1.90,2.39,1.91,-1.91,-2.02,0.46,0.48,0.48
129,2.34,1.89,2.36,1.90,-1.90,-2.01,0.44,0.46,0.45
130,2.32,1.89,2.33,1.90,-1.90,-2.00,0.43,0.43,0.43
131,2.29,1.88,2.29,1.89,-1.89,-1.99,0.41,0.40,0.41
133,2.24,1.87,2.26,1.88,-1.88,-1.96,0.36,0.37,0.37
134,2.24,1.89,2.22,1.87,-1.87,-1.95,0.37,0.35,0.35
135,2.20,1.87,2.19,1.87,-1.87,-1.94,0.34,0.32,0.33
137,2.15,1.86,2.16,1.86,-1.86,-1.91,0.29,0.30,0.30
138,2.13,1.86,2.13,1.85,-1.85,-1.89,0.28,0.27,0.28
140,2.08,1.84,2.09,1.84,-1.84,-1.86,0.24,0.25,0.24
141,2.04,1.82,2.06,1.83,-1.83,-1.84,0.21,0.23,0.22
142,2.03,1.83,2.02,1.82,-1.82,-1.82,0.21,0.20,0.21
144,1.98,1.81,1.99,1.81,-1.81,-1.79,0.17,0.18,0.17
145,1.96,1.81,1.95,1.80,-1.80,-1.77,0.17,0.15,0.16
147,1.91,1.79,1.92,1.78,-1.78,-1.74,0.13,0.13,0.13
148,1.88,1.77,1.88,1.77,-1.77,-1.72,0.11,0.11,0.11
150,1.83,1.75,1.84,1.76,-1.76,-1.68,0.08,0.09,0.08
151,1.80,1.73,1.81,1.74,-1.74,-1.67,0.06,0.07,0.07
153,1.76,1.72,1.77,1.73,-1.73,-1.63,0.04,0.05,0.04
154,1.74,1.71,1.74,1.71,-1.71,-1.62,0.03,0.03,0.03
156,1.69,1.69,1.70,1.70,-1.70,-1.59,-0.00,0.01,0.00
157,1.67,1.68,1.67,1.68,-1.68,-1.57,-0.01,-0.01,-0.01
159,1.63,1.67,1.64,1.67,-1.67,-1.54,-0.03,-0.03,-0.03
160,1.60,1.65,1.60,1.65,-1.65,-1.53,-0.05,-0.05,-0.04
162,1.56,1.63,1.57,1.64,-1.64,-1.50,-0.07,-0.07,-0.07
164,1.54,1.63,1.54,1.62,-1.62,-1.48,-0.08,-0.09,-0.09
165,1.51,1.61,1.50,1.61,-1.61,-1.46,-0.09,-0.10,-0.10
167,1.47,1.59,1.47,1.59,-1.59,-1.44,-0.12,-0.12,-0.12
169,1.43,1.57,1.44,1.57,-1.57,-1.42,-0.14,-0.14,-0.14
170,1.40,1.55,1.40,1.56,-1.56,-1.41,-0.15,-0.16,-0.15
172,1.36,1.53,1.37,1.54,-1.54,-1.39,-0.18,-0.17,-0.17
174,1.32,1.51,1.34,1.52,-1.52,-1.38,-0.20,-0.19,-0.19
175,1.29,1.49,1.30,1.50,-1.50,-1.37,-0.21,-0.20,-0.19
177,1.28,1.50,1.27,1.49,-1.49,-1.35,-0.20,-0.21,-0.21
179,1.24,1.47,1.24,1.47,-1.47,-1.34,-0.22,-0.23,-0.23
181,1.20,1.45,1.20,1.45,-1.45,-1.33,-0.24,-0.24,-0.24
183,1.15,1.41,1.17,1.42,-1.42,-1.32,-0.27,-0.26,-0.26
184,1.14,1.41,1.13,1.40,-1.40,-1.32,-0.26,-0.27,-0.27
186,1.11,1.39,1.10,1.38,-1.38,-1.31,-0.27,-0.28,-0.28
188,1.07,1.37,1.06,1.36,-1.36,-1.30,-0.28,-0.29,-0.29
190,1.02,1.33,1.03,1.33,-1.33,-1.30,-0.31,-0.31,-0.31
192,0.98,1.30,0.99,1.31,-1.31,-1.29,-0.33,-0.32,-0.32
194,0.95,1.28,0.95,1.29,-1.29,-1.29,-0.33,-0.33,-0.33
196,0.91,1.26,0.92,1.26,-1.26,-1.29,-0.35,-0.35,-0.34
198,0.87,1.23,0.88,1.24,-1.24,-1.29,-0.36,-0.36,-0.35
200,0.84,1.21,0.85,1.21,-1.21,-1.28,-0.37,-0.36,-0.36
202,0.81,1.19,0.81,1.19,-1.19,-1.28,-0.37,-0.38,-0.37
204,0.76,1.15,0.78,1.16,-1.16,-1.28,-0.40,-0.39,-0.38
206,0.73,1.13,0.74,1.14,-1.14,-1.28,-0.40,-0.40,-0.39
208,0.70,1.11,0.70,1.11,-1.11,-1.28,-0.41,-0.41,-0.40
210,0.67,1.09,0.66,1.08,-1.08,-1.28,-0.41,-0.42,-0.41
212,0.63,1.06,0.63,1.05,-1.05,-1.29,-0.41,-0.42,-0.42
214,0.60,1.04,0.59,1.01,-1.01,-1.29,-0.41,-0.42,-0.43
216,0.57,1.01,0.54,0.97,-0.97,-1.29,-0.39,-0.43,-0.44
218,0.52,0.97,0.50,0.93,-0.93,-1.29,-0.40,-0.43,-0.45
221,0.45,0.91,0.44,0.89,-0.89,-1.28,-0.44,-0.45,-0.46
223,0.43,0.90,0.40,0.86,-0.86,-1.28,-0.43,-0.46,-0.47
225,0.38,0.85,0.36,0.84,-0.84,-1.28,-0.46,-0.48,-0.47
227,0.37,0.85,0.33,0.83,-0.83,-1.28,-0.46,-0.51,-0.47
229,0.33,0.81,0.31,0.84,-0.84,-1.28,-0.51,-0.53,-0.47
232,0.31,0.79,0.32,0.87,-0.87,-1.27,-0.56,-0.55,-0.48
234,0.29,0.77,0.36,0.93,-0.93,-1.26,-0.63,-0.56,-0.47
236,0.31,0.78,0.44,1.01,-1.01,-1.26,-0.69,-0.56,-0.47
239,0.40,0.87,0.56,1.12,-1.12,-1.24,-0.72,-0.56,-0.47
241,0.49,0.95,0.71,1.25,-1.25,-1.23,-0.76,-0.54,-0.46
244,0.71,1.17,0.87,1.39,-1.39,-1.22,-0.68,-0.52,-0.45
246,0.90,1.35,1.03,1.53,-1.53,-1.20,-0.63,-0.50,-0.44
248,1.06,1.50,1.18,1.66,-1.66,-1.19,-0.60,-0.48,-0.43
251,1.40,1.83,1.31,1.78,-1.78,-1.17,-0.37,-0.47,-0.42
253,1.61,2.03,1.41,1.87,-1.87,-1.15,-0.25,-0.45,-0.41
256,1.81,2.22,1.49,1.93,-1.93,-1.12,-0.11,-0.44,-0.40
259,1.87,2.27,1.52,1.95,-1.95,-1.09,-0.07,-0.42,-0.40
261,1.81,2.20,1.52,1.93,-1.93,-1.07,-0.12,-0.41,-0.39
264,1.57,1.95,1.47,1.87,-1.87,-1.04,-0.30,-0.40,-0.38
266,1.40,1.77,1.39,1.78,-1.78,-1.02,-0.38,-0.40,-0.37
269,1.17,1.53,1.27,1.67,-1.67,-0.98,-0.49,-0.40,-0.36
272,0.91,1.26,1.13,1.53,-1.53,-0.94,-0.61,-0.39,-0.35
274,0.80,1.14,0.98,1.37,-1.37,-0.92,-0.57,-0.39,-0.34
277,0.68,1.01,0.81,1.20,-1.20,-0.87,-0.52,-0.39,-0.32
280,0.57,0.88,0.66,1.04,-1.04,-0.83,-0.47,-0.38,-0.31
283,0.48,0.78,0.52,0.88,-0.88,-0.79,-0.40,-0.36,-0.29
286,0.39,0.67,0.41,0.75,-0.75,-0.75,-0.35,-0.33,-0.27
288,0.36,0.62,0.32,0.63,-0.63,-0.72,-0.26,-0.30,-0.25
291,0.28,0.52,0.26,0.52,-0.52,-0.67,-0.24,-0.26,-0.23
294,0.22,0.44,0.20,0.43,-0.43,-0.62,-0.20,-0.23,-0.21
297,0.15,0.35,0.15,0.34,-0.34,-0.58,-0.19,-0.19,-0.19
300,0.10,0.28,0.10,0.26,-0.26,-0.53,-0.16,-0.16,-0.17
303,0.05,0.21,0.05,0.19,-0.19,-0.48,-0.14,-0.14,-0.15
306,0.00,0.14,0.00,0.13,-0.13,-0.44,-0.13,-0.13,-0.13
309,-0.03,0.09,-0.04,0.08,-0.08,-0.39,-0.10,-0.12,-0.12
312,-0.08,0.02,-0.08,0.02,-0.02,-0.34,-0.10,-0.10,-0.10
316,-0.13,-0.04,-0.12,-0.03,0.03,-0.28,-0.09,-0.08,-0.09
319,-0.17,-0.10,-0.16,-0.09,0.09,-0.23,-0.08,-0.07,-0.07
322,-0.21,-0.15,-0.19,-0.14,0.14,-0.19,-0.06,-0.05,-0.05
325,-0.23,-0.19,-0.22,-0.19,0.19,-0.14,-0.03,-0.03,-0.03
328,-0.27,-0.25,-0.25,-0.24,0.24,-0.09,-0.02,-0.01,-0.01
332,-0.29,-0.29,-0.29,-0.29,0.29,-0.03,0.01,0.01,0.00
335,-0.32,-0.34,-0.31,-0.34,0.34,0.01,0.03,0.03,0.03
338,-0.32,-0.36,-0.34,-0.39,0.39,0.06,0.08,0.05,0.05
342,-0.36,-0.43,-0.37,-0.44,0.44,0.12,0.09,0.07,0.07
345,-0.41,-0.50,-0.40,-0.49,0.49,0.16,0.08,0.09,0.09
349,-0.44,-0.55,-0.43,-0.54,0.54,0.22,0.10,0.11,0.11
352,-0.45,-0.58,-0.46,-0.59,0.59,0.27,0.14,0.13,0.13
356,-0.49,-0.64,-0.49,-0.64,0.64,0.33,0.15,0.15,0.15
359,-0.53,-0.69,-0.52,-0.68,0.68,0.37,0.16,0.16,0.17
363,-0.56,-0.74,-0.55,-0.73,0.73,0.43,0.17,0.18,0.18
366,-0.58,-0.77,-0.58,-0.77,0.77,0.48,0.20,0.19,0.20
370,-0.62,-0.83,-0.61,-0.82,0.82,0.54,0.20,0.21,0.21
374,-0.65,-0.87,-0.64,-0.86,0.86,0.59,0.21,0.22,0.22
377,-0.67,-0.90,-0.66,-0.89,0.89,0.64,0.23,0.23,0.23
381,-0.70,-0.94,-0.68,-0.93,0.93,0.69,0.23,0.25,0.25
385,-0.71,-0.96,-0.70,-0.96,0.96,0.75,0.26,0.26,0.26
389,-0.74,-1.00,-0.73,-0.99,0.99,0.81,0.26,0.26,0.27
393,-0.75,-1.02,-0.75,-1.02,1.02,0.86,0.27,0.27,0.28
397,-0.75,-1.03,-0.77,-1.05,1.05,0.92,0.30,0.28,0.29
401,-0.77,-1.06,-0.78,-1.07,1.07,0.97,0.31,0.29,0.29
405,-0.80,-1.09,-0.80,-1.09,1.09,1.02,0.30,0.29,0.30
409,-0.81,-1.11,-0.82,-1.11,1.11,1.08,0.31,0.30,0.30
413,-0.84,-1.14,-0.83,-1.13,1.13,1.13,0.30,0.30,0.31
417,-0.85,-1.16,-0.84,-1.15,1.15,1.18,0.30,0.31,0.31
421,-0.88,-1.19,-0.86,-1.17,1.17,1.23,0.29,0.31,0.31
425,-0.88,-1.19,-0.86,-1.18,1.18,1.28,0.30,0.31,0.32
430,-0.88,-1.20,-0.87,-1.19,1.19,1.33,0.31,0.32,0.32
434,-0.88,-1.20,-0.88,-1.20,1.20,1.38,0.32,0.32,0.32
438,-0.88,-1.21,-0.88,-1.21,1.21,1.42,0.33,0.33,0.33
443,-0.88,-1.21,-0.88,-1.22,1.22,1.47,0.34,0.34,0.34
447,-0.88,-1.22,-0.87,-1.22,1.22,1.51,0.35,0.35,0.35
451,-0.88,-1.24,-0.87,-1.23,1.23,1.55,0.36,0.36,0.36
456,-0.87,-1.24,-0.86,-1.24,1.24,1.60,0.37,0.38,0.37
460,-0.86,-1.24,-0.86,-1.24,1.24,1.63,0.39,0.39,0.39
465,-0.84,-1.24,-0.85,-1.25,1.25,1.67,0.42,0.40,0.40
470,-0.84,-1.25,-0.85,-1.26,1.26,1.70,0.42,0.41,0.41
474,-0.84,-1.26,-0.85,-1.27,1.27,1.73,0.43,0.42,0.43
479,-0.84,-1.28,-0.84,-1.27,1.27,1.75,0.44,0.43,0.44
484,-0.84,-1.29,-0.84,-1.28,1.28,1.78,0.45,0.45,0.45
489,-0.84,-1.30,-0.83,-1.29,1.29,1.80,0.46,0.46,0.47
494,-0.84,-1.32,-0.83,-1.30,1.30,1.82,0.46,0.48,0.48
499,-0.84,-1.33,-0.82,-1.31,1.31,1.83,0.48,0.49,0.49
504,-0.84,-1.34,-0.82,-1.32,1.32,1.84,0.49,0.50,0.50
509,-0.82,-1.33,-0.81,-1.33,1.33,1.85,0.52,0.52,0.52
514,-0.80,-1.33,-0.81,-1.35,1.35,1.85,0.55,0.53,0.53
519,-0.80,-1.35,-0.81,-1.36,1.36,1.85,0.56,0.55,0.55
524,-0.80,-1.37,-0.80,-1.38,1.38,1.85,0.58,0.57,0.57
529,-0.80,-1.39,-0.80,-1.39,1.39,1.85,0.60,0.59,0.59
535,-0.80,-1.41,-0.80,-1.41,1.41,1.84,0.61,0.61,0.61
540,-0.80,-1.43,-0.79,-1.43,1.43,1.83,0.63,0.64,0.64
545,-0.80,-1.45,-0.79,-1.45,1.45,1.81,0.65,0.66,0.66
551,-0.80,-1.48,-0.79,-1.47,1.47,1.80,0.68,0.68,0.68
556,-0.80,-1.50,-0.79,-1.49,1.49,1.78,0.70,0.70,0.71
562,-0.80,-1.53,-0.79,-1.52,1.52,1.76,0.72,0.72,0.73
568,-0.80,-1.55,-0.80,-1.54,1.54,1.74,0.75,0.74,0.75
573,-0.80,-1.57,-0.80,-1.56,1.56,1.72,0.77,0.77,0.77
579,-0.80,-1.59,-0.80,-1.59,1.59,1.70,0.79,0.79,0.79
585,-0.80,-1.61,-0.80,-1.61,1.61,1.67,0.81,0.81,0.81
591,-0.80,-1.62,-0.81,-1.63,1.63,1.65,0.84,0.82,0.83
596,-0.81,-1.65,-0.81,-1.65,1.65,1.63,0.85,0.84,0.84
602,-0.84,-1.69,-0.82,-1.68,1.68,1.60,0.84,0.86,0.86
608,-0.84,-1.71,-0.83,-1.70,1.70,1.57,0.86,0.87,0.87
615,-0.84,-1.72,-0.83,-1.72,1.72,1.54,0.88,0.89,0.88
621,-0.84,-1.73,-0.84,-1.74,1.74,1.52,0.91,0.90,0.90
627,-0.84,-1.75,-0.85,-1.76,1.76,1.49,0.93,0.91,0.91
633,-0.84,-1.76,-0.86,-1.78,1.78,1.47,0.95,0.92,0.92
639,-0.87,-1.80,-0.86,-1.80,1.80,1.45,0.93,0.94,0.94
646,-0.88,-1.83,-0.87,-1.82,1.82,1.42,0.94,0.95,0.95
652,-0.88,-1.84,-0.87,-1.83,1.83,1.40,0.96,0.96,0.97
659,-0.88,-1.86,-0.87,-1.84,1.84,1.37,0.97,0.98,0.98
665,-0.88,-1.87,-0.86,-1.85,1.85,1.35,0.98,0.99,1.00
672,-0.88,-1.89,-0.86,-1.86,1.86,1.33,0.98,1.00,1.01
679,-0.86,-1.88,-0.85,-1.86,1.86,1.31,1.01,1.01,1.02
686,-0.84,-1.87,-0.84,-1.87,1.87,1.29,1.03,1.02,1.03
692,-0.84,-1.88,-0.83,-1.87,1.87,1.28,1.03,1.03,1.04
699,-0.80,-1.85,-0.82,-1.86,1.86,1.26,1.07,1.04,1.05
706,-0.80,-1.85,-0.81,-1.86,1.86,1.24,1.06,1.05,1.06
713,-0.80,-1.86,-0.79,-1.85,1.85,1.23,1.06,1.06,1.06
721,-0.79,-1.85,-0.78,-1.84,1.84,1.21,1.06,1.06,1.06
728,-0.75,-1.81,-0.77,-1.84,1.84,1.20,1.09,1.07,1.07
735,-0.75,-1.82,-0.75,-1.83,1.83,1.19,1.08,1.08,1.07
742,-0.75,-1.82,-0.74,-1.82,1.82,1.18,1.07,1.08,1.08
750,-0.75,-1.83,-0.72,-1.81,1.81,1.16,1.07,1.09,1.08
757,-0.71,-1.80,-0.71,-1.80,1.80,1.16,1.10,1.09,1.09
765,-0.71,-1.80,-0.69,-1.80,1.80,1.15,1.09,1.10,1.10
773,-0.69,-1.79,-0.68,-1.79,1.79,1.14,1.10,1.11,1.11
780,-0.67,-1.78,-0.67,-1.78,1.78,1.13,1.12,1.12,1.12
788,-0.65,-1.77,-0.65,-1.78,1.78,1.13,1.13,1.13,1.12
796,-0.62,-1.75,-0.64,-1.77,1.77,1.12,1.15,1.13,1.13
804,-0.62,-1.76,-0.63,-1.76,1.76,1.12,1.15,1.14,1.14
812,-0.62,-1.77,-0.61,-1.76,1.76,1.12,1.14,1.15,1.15
820,-0.58,-1.73,-0.60,-1.75,1.75,1.11,1.17,1.15,1.16
828,-0.58,-1.74,-0.58,-1.74,1.74,1.11,1.16,1.16,1.16
837,-0.58,-1.74,-0.57,-1.73,1.73,1.11,1.15,1.16,1.17
845,-0.58,-1.74,-0.56,-1.72,1.72,1.11,1.14,1.16,1.17
853,-0.54,-1.70,-0.54,-1.70,1.70,1.11,1.16,1.16,1.17
862,-0.54,-1.70,-0.52,-1.68,1.68,1.11,1.15,1.16,1.17
871,-0.51,-1.67,-0.50,-1.66,1.66,1.11,1.16,1.16,1.16
879,-0.49,-1.65,-0.48,-1.64,1.64,1.11,1.15,1.16,1.16
888,-0.45,-1.61,-0.46,-1.61,1.61,1.11,1.17,1.16,1.16
897,-0.44,-1.60,-0.43,-1.59,1.59,1.11,1.15,1.16,1.16
906,-0.41,-1.57,-0.40,-1.56,1.56,1.11,1.15,1.16,1.16
915,-0.36,-1.52,-0.36,-1.53,1.53,1.11,1.17,1.17,1.17
924,-0.33,-1.50,-0.33,-1.50,1.50,1.11,1.18,1.17,1.17
933,-0.30,-1.47,-0.29,-1.47,1.47,1.11,1.17,1.18,1.18
943,-0.25,-1.43,-0.25,-1.44,1.44,1.11,1.19,1.19,1.18
952,-0.21,-1.40,-0.21,-1.41,1.41,1.11,1.21,1.20,1.19
962,-0.17,-1.37,-0.17,-1.38,1.38,1.10,1.22,1.21,1.21
971,-0.14,-1.36,-0.13,-1.35,1.35,1.10,1.22,1.22,1.22
981,-0.08,-1.31,-0.08,-1.32,1.32,1.10,1.25,1.24,1.24
991,-0.04,-1.29,-0.03,-1.30,1.30,1.10,1.26,1.26,1.26
1001,0.00,-1.28,0.01,-1.27,1.27,1.09,1.27,1.28,1.28
1011,0.05,-1.25,0.06,-1.24,1.24,1.09,1.30,1.30,1.30
1021,0.11,-1.22,0.11,-1.21,1.21,1.08,1.33,1.33,1.33
1031,0.17,-1.18,0.17,-1.18,1.18,1.08,1.36,1.35,1.36
1041,0.22,-1.16,0.22,-1.15,1.15,1.07,1.38,1.38,1.38
1052,0.29,-1.11,0.28,-1.12,1.12,1.07,1.42,1.40,1.41
1062,0.34,-1.09,0.34,-1.09,1.09,1.06,1.43,1.43,1.44
1073,0.40,-1.06,0.40,-1.06,1.06,1.05,1.46,1.46,1.46
1084,0.47,-1.02,0.47,-1.02,1.02,1.05,1.49,1.49,1.49
1094,0.52,-1.00,0.54,-0.98,0.98,1.04,1.51,1.52,1.52
1105,0.60,-0.95,0.61,-0.94,0.94,1.03,1.55,1.55,1.55
1116,0.66,-0.92,0.68,-0.90,0.90,1.02,1.56,1.58,1.58
1128,0.75,-0.86,0.75,-0.86,0.86,1.02,1.61,1.61,1.62
1139,0.83,-0.82,0.83,-0.81,0.81,1.01,1.65,1.65,1.65
1150,0.89,-0.79,0.91,-0.77,0.77,1.00,1.66,1.68,1.68
1162,1.00,-0.72,0.99,-0.73,0.73,0.99,1.73,1.72,1.72
1173,1.07,-0.69,1.08,-0.68,0.68,0.98,1.76,1.76,1.76
1185,1.16,-0.64,1.16,-0.64,0.64,0.98,1.81,1.81,1.80
1197,1.25,-0.59,1.25,-0.61,0.61,0.97,1.86,1.85,1.84
1209,1.32,-0.57,1.33,-0.57,0.57,0.96,1.90,1.90,1.89
1221,1.42,-0.51,1.41,-0.54,0.54,0.96,1.96,1.95,1.94
1233,1.48,-0.50,1.48,-0.51,0.51,0.95,1.99,1.99,1.99
1246,1.59,-0.45,1.56,-0.48,0.48,0.94,2.07,2.04,2.04
1258,1.65,-0.44,1.64,-0.45,0.45,0.94,2.11,2.09,2.09
1271,1.73,-0.42,1.72,-0.43,0.43,0.93,2.16,2.14,2.15
1283,1.80,-0.40,1.80,-0.40,0.40,0.93,2.21,2.20,2.21
1296,1.87,-0.39,1.88,-0.38,0.38,0.93,2.25,2.26,2.27
1309,1.93,-0.40,1.97,-0.35,0.35,0.93,2.28,2.32,2.33
1322,2.03,-0.36,2.06,-0.32,0.32,0.92,2.35,2.38,2.40
1335,2.12,-0.34,2.16,-0.29,0.29,0.92,2.41,2.45,2.46
1349,2.22,-0.31,2.26,-0.26,0.26,0.92,2.48,2.52,2.53
1362,2.36,-0.24,2.37,-0.22,0.22,0.92,2.58,2.59,2.60
1376,2.47,-0.20,2.47,-0.18,0.18,0.92,2.66,2.66,2.67
1390,2.59,-0.15,2.58,-0.14,0.14,0.93,2.74,2.73,2.74
1404,2.73,-0.08,2.70,-0.10,0.10,0.93,2.84,2.80,2.81
1418,2.84,-0.04,2.81,-0.06,0.06,0.93,2.90,2.87,2.88
1432,2.97,0.02,2.93,-0.02,0.02,0.94,2.99,2.95,2.95
1446,3.05,0.03,3.05,0.02,-0.02,0.94,3.03,3.03,3.03
1461,3.15,0.05,3.17,0.06,-0.06,0.95,3.09,3.10,3.10
1475,3.24,0.07,3.28,0.10,-0.10,0.96,3.14,3.18,3.17
1490,3.36,0.12,3.39,0.14,-0.14,0.96,3.22,3.25,3.25
1505,3.47,0.15,3.50,0.18,-0.18,0.97,3.30,3.32,3.32
1520,3.61,0.21,3.61,0.21,-0.21,0.98,3.40,3.40,3.40
1535,3.73,0.25,3.71,0.24,-0.24,0.99,3.50,3.48,3.48
1550,3.83,0.27,3.82,0.26,-0.26,1.00,3.57,3.56,3.56
1566,3.94,0.30,3.92,0.28,-0.28,1.01,3.67,3.64,3.65
1582,4.02,0.29,4.02,0.29,-0.29,1.02,3.73,3.73,3.73
1597,4.12,0.31,4.12,0.30,-0.30,1.03,3.83,3.83,3.82
1613,4.20,0.30,4.21,0.29,-0.29,1.05,3.91,3.92,3.91
1629,4.28,0.29,4.29,0.28,-0.28,1.06,4.00,4.01,4.00
1646,4.39,0.30,4.37,0.27,-0.27,1.07,4.13,4.10,4.09
1662,4.45,0.26,4.44,0.24,-0.24,1.08,4.21,4.20,4.19
1679,4.53,0.24,4.51,0.21,-0.21,1.09,4.32,4.30,4.29
1696,4.59,0.20,4.57,0.17,-0.17,1.10,4.42,4.40,4.39
1713,4.64,0.14,4.64,0.13,-0.13,1.11,4.51,4.51,4.50
1730,4.68,0.07,4.70,0.09,-0.09,1.12,4.60,4.62,4.61
1747,4.73,0.01,4.77,0.04,-0.04,1.13,4.70,4.73,4.73
1764,4.80,-0.04,4.84,-0.01,0.01,1.14,4.82,4.85,4.85
1782,4.88,-0.08,4.91,-0.06,0.06,1.15,4.95,4.97,4.97
1800,4.97,-0.12,4.98,-0.11,0.11,1.15,5.09,5.09,5.09
1818,5.04,-0.17,5.05,-0.16,0.16,1.16,5.21,5.21,5.22
1836,5.13,-0.21,5.13,-0.21,0.21,1.16,5.35,5.34,5.34
1854,5.19,-0.28,5.20,-0.26,0.26,1.16,5.45,5.46,5.47
1873,5.29,-0.31,5.28,-0.31,0.31,1.16,5.60,5.59,5.60
1892,5.36,-0.37,5.36,-0.35,0.35,1.16,5.72,5.72,5.74
1911,5.46,-0.40,5.44,-0.40,0.40,1.15,5.86,5.84,5.87
1930,5.52,-0.47,5.52,-0.44,0.44,1.14,5.97,5.96,5.99
1949,5.60,-0.52,5.60,-0.49,0.49,1.13,6.09,6.08,6.12
1969,5.68,-0.56,5.67,-0.53,0.53,1.12,6.22,6.20,6.24
1988,5.74,-0.63,5.74,-0.58,0.58,1.11,6.32,6.32,6.37
