frequency,raw,error,smoothed,error_smoothed,equalization,parametric_eq,fixed_band_eq,equalized_raw,equalized_smoothed,target
20.00,3.07,-4.18,3.07,-4.17,4.18,4.45,2.02,7.24,7.25,7.25
20.20,3.03,-4.22,3.02,-4.22,4.23,4.45,2.08,7.25,7.25,7.25
20.40,2.98,-4.27,2.98,-4.27,4.27,4.44,2.14,7.25,7.25,7.25
20.61,2.94,-4.31,2.94,-4.31,4.31,4.44,2.20,7.25,7.25,7.25
20.81,2.90,-4.35,2.90,-4.35,4.34,4.43,2.27,7.24,7.24,7.25
21.02,2.86,-4.39,2.86,-4.38,4.38,4.43,2.34,7.23,7.24,7.24
21.23,2.83,-4.40,2.82,-4.41,4.40,4.42,2.40,7.23,7.22,7.22
21.44,2.79,-4.43,2.79,-4.42,4.42,4.42,2.47,7.21,7.21,7.21
21.66,2.76,-4.44,2.76,-4.44,4.44,4.41,2.55,7.20,7.20,7.19
21.87,2.73,-4.45,2.73,-4.45,4.45,4.41,2.62,7.17,7.18,7.17
22.09,2.71,-4.46,2.70,-4.45,4.45,4.40,2.70,7.16,7.16,7.16
22.31,2.68,-4.46,2.68,-4.46,4.45,4.40,2.78,7.13,7.13,7.13
22.54,2.66,-4.46,2.66,-4.46,4.45,4.39,2.86,7.11,7.11,7.11
22.76,2.64,-4.45,2.64,-4.45,4.45,4.39,2.94,7.09,7.09,7.09
22.99,2.62,-4.44,2.61,-4.45,4.45,4.38,3.03,7.07,7.06,7.06
23.22,2.59,-4.44,2.59,-4.44,4.45,4.38,3.11,7.03,7.04,7.03
23.45,2.58,-4.43,2.57,-4.44,4.45,4.37,3.20,7.02,7.02,7.01
23.69,2.56,-4.44,2.56,-4.44,4.45,4.37,3.29,7.00,7.00,7.00
23.92,2.54,-4.44,2.54,-4.45,4.45,4.36,3.39,6.98,6.99,6.98
24.16,2.52,-4.45,2.51,-4.45,4.45,4.36,3.48,6.97,6.96,6.97
24.40,2.49,-4.46,2.49,-4.46,4.45,4.35,3.58,6.94,6.95,6.95
24.65,2.47,-4.46,2.47,-4.46,4.46,4.35,3.67,6.93,6.93,6.93
24.89,2.45,-4.46,2.45,-4.46,4.47,4.34,3.77,6.91,6.91,6.91
25.14,2.43,-4.47,2.43,-4.47,4.47,4.34,3.87,6.90,6.90,6.90
25.39,2.41,-4.47,2.40,-4.48,4.48,4.33,3.97,6.88,6.88,6.88
25.65,2.38,-4.49,2.38,-4.48,4.48,4.33,4.07,6.86,6.86,6.87
25.91,2.36,-4.48,2.36,-4.48,4.48,4.32,4.17,6.84,6.84,6.84
26.16,2.34,-4.49,2.34,-4.49,4.49,4.32,4.27,6.83,6.83,6.83
26.43,2.33,-4.49,2.32,-4.49,4.49,4.31,4.37,6.82,6.81,6.82
26.69,2.31,-4.49,2.31,-4.49,4.49,4.31,4.47,6.80,6.80,6.80
26.96,2.30,-4.49,2.30,-4.49,4.48,4.31,4.57,6.78,6.79,6.78
27.23,2.30,-4.48,2.29,-4.48,4.48,4.30,4.66,6.77,6.77,6.77
27.50,2.29,-4.48,2.29,-4.47,4.46,4.30,4.75,6.75,6.75,6.76
27.77,2.29,-4.45,2.29,-4.45,4.45,4.29,4.84,6.73,6.74,6.74
28.05,2.31,-4.42,2.30,-4.43,4.42,4.29,4.93,6.73,6.73,6.73
28.33,2.32,-4.39,2.32,-4.40,4.40,4.29,5.01,6.72,6.72,6.71
28.62,2.34,-4.36,2.33,-4.37,4.37,4.28,5.09,6.71,6.70,6.70
28.90,2.35,-4.34,2.35,-4.33,4.34,4.28,5.16,6.68,6.69,6.69
29.19,2.37,-4.30,2.37,-4.30,4.30,4.28,5.22,6.67,6.67,6.67
29.48,2.40,-4.27,2.39,-4.27,4.27,4.28,5.28,6.67,6.66,6.67
29.78,2.42,-4.24,2.42,-4.23,4.23,4.27,5.34,6.65,6.65,6.66
30.08,2.45,-4.20,2.44,-4.20,4.20,4.27,5.38,6.65,6.64,6.65
30.38,2.46,-4.17,2.46,-4.16,4.17,4.27,5.42,6.62,6.63,6.62
30.68,2.48,-4.14,2.48,-4.13,4.14,4.27,5.44,6.61,6.62,6.61
30.99,2.50,-4.09,2.49,-4.10,4.11,4.27,5.47,6.60,6.60,6.59
31.30,2.50,-4.08,2.50,-4.08,4.08,4.27,5.48,6.58,6.58,6.58
31.61,2.51,-4.06,2.51,-4.06,4.06,4.27,5.49,6.56,6.56,6.57
31.93,2.51,-4.04,2.50,-4.04,4.04,4.27,5.48,6.55,6.54,6.55
32.24,2.50,-4.02,2.50,-4.02,4.02,4.27,5.47,6.52,6.52,6.52
32.57,2.50,-4.01,2.50,-4.01,4.01,4.27,5.45,6.51,6.51,6.51
32.89,2.49,-4.01,2.49,-4.00,4.00,4.27,5.43,6.49,6.49,6.49
33.22,2.48,-3.98,2.47,-4.00,4.00,4.27,5.39,6.47,6.47,6.46
33.55,2.45,-4.00,2.45,-4.00,4.00,4.27,5.35,6.44,6.45,6.45
33.89,2.43,-4.00,2.43,-4.00,4.00,4.28,5.31,6.43,6.43,6.43
34.23,2.40,-4.01,2.40,-4.01,4.00,4.28,5.26,6.40,6.40,6.41
34.57,2.38,-4.01,2.37,-4.01,4.01,4.28,5.20,6.39,6.39,6.39
34.92,2.34,-4.03,2.34,-4.02,4.03,4.29,5.14,6.37,6.37,6.36
35.27,2.31,-4.04,2.31,-4.04,4.05,4.29,5.07,6.35,6.35,6.35
35.62,2.27,-4.06,2.27,-4.06,4.07,4.30,5.01,6.34,6.33,6.33
35.97,2.22,-4.09,2.22,-4.09,4.09,4.31,4.94,6.31,6.31,6.31
36.33,2.18,-4.12,2.17,-4.12,4.12,4.31,4.87,6.30,6.29,6.30
36.70,2.12,-4.16,2.12,-4.15,4.15,4.32,4.79,6.27,6.27,6.27
37.06,2.07,-4.18,2.07,-4.19,4.18,4.33,4.72,6.25,6.25,6.25
37.43,2.02,-4.22,2.02,-4.22,4.21,4.34,4.64,6.23,6.23,6.24
37.81,1.97,-4.25,1.97,-4.25,4.24,4.35,4.57,6.21,6.21,6.22
38.19,1.93,-4.27,1.92,-4.28,4.27,4.36,4.50,6.20,6.20,6.19
38.57,1.87,-4.31,1.87,-4.30,4.30,4.37,4.42,6.17,6.18,6.18
38.95,1.83,-4.33,1.83,-4.33,4.33,4.38,4.35,6.16,6.16,6.16
39.34,1.78,-4.36,1.78,-4.36,4.36,4.39,4.28,6.14,6.14,6.13
39.74,1.73,-4.38,1.73,-4.39,4.39,4.40,4.21,6.12,6.12,6.11
40.14,1.68,-4.43,1.68,-4.42,4.42,4.41,4.14,6.10,6.10,6.11
40.54,1.63,-4.46,1.63,-4.46,4.46,4.42,4.08,6.08,6.09,6.09
40.94,1.59,-4.48,1.58,-4.49,4.49,4.43,4.01,6.08,6.07,6.07
41.35,1.54,-4.51,1.54,-4.51,4.52,4.44,3.95,6.05,6.06,6.05
41.76,1.50,-4.55,1.50,-4.54,4.54,4.45,3.90,6.04,6.04,6.04
42.18,1.46,-4.57,1.46,-4.57,4.57,4.47,3.84,6.02,6.02,6.03
42.60,1.42,-4.59,1.42,-4.59,4.58,4.47,3.79,6.00,6.00,6.01
43.03,1.39,-4.61,1.39,-4.61,4.60,4.48,3.74,5.99,5.99,6.00
43.46,1.37,-4.61,1.37,-4.61,4.61,4.49,3.69,5.98,5.97,5.98
43.90,1.35,-4.61,1.35,-4.61,4.61,4.50,3.65,5.96,5.96,5.95
44.33,1.33,-4.61,1.33,-4.61,4.62,4.50,3.61,5.94,5.94,5.94
44.78,1.31,-4.62,1.31,-4.61,4.61,4.51,3.57,5.92,5.92,5.92
45.23,1.30,-4.60,1.29,-4.61,4.61,4.51,3.53,5.91,5.90,5.90
45.68,1.28,-4.61,1.28,-4.60,4.60,4.51,3.50,5.88,5.89,5.88
46.13,1.28,-4.59,1.28,-4.59,4.60,4.50,3.47,5.87,5.87,5.87
46.60,1.28,-4.58,1.27,-4.58,4.58,4.49,3.44,5.86,5.86,5.86
47.06,1.28,-4.57,1.28,-4.57,4.57,4.48,3.42,5.85,5.85,5.85
47.53,1.28,-4.55,1.28,-4.55,4.55,4.47,3.40,5.83,5.83,5.83
48.01,1.29,-4.54,1.29,-4.53,4.52,4.45,3.38,5.81,5.81,5.82
48.49,1.30,-4.50,1.30,-4.50,4.49,4.43,3.36,5.79,5.79,5.80
48.97,1.31,-4.46,1.31,-4.46,4.46,4.41,3.34,5.76,5.77,5.77
49.46,1.34,-4.41,1.33,-4.41,4.41,4.37,3.33,5.75,5.75,5.74
49.96,1.36,-4.36,1.36,-4.36,4.37,4.34,3.32,5.73,5.73,5.72
50.46,1.40,-4.32,1.40,-4.32,4.32,4.30,3.31,5.72,5.72,5.72
50.96,1.43,-4.27,1.43,-4.27,4.27,4.26,3.30,5.70,5.70,5.70
51.47,1.47,-4.20,1.46,-4.21,4.21,4.21,3.29,5.68,5.68,5.67
51.99,1.50,-4.16,1.50,-4.15,4.15,4.16,3.29,5.65,5.66,5.65
52.51,1.55,-4.10,1.55,-4.09,4.09,4.10,3.28,5.64,5.64,5.64
53.03,1.60,-4.03,1.60,-4.03,4.03,4.04,3.27,5.62,5.62,5.63
53.56,1.65,-3.96,1.65,-3.96,3.96,3.97,3.27,5.60,5.61,5.61
54.10,1.71,-3.88,1.71,-3.88,3.88,3.90,3.26,5.59,5.59,5.59
54.64,1.77,-3.80,1.77,-3.80,3.80,3.83,3.25,5.57,5.57,5.57
55.18,1.83,-3.72,1.83,-3.72,3.72,3.75,3.25,5.54,5.55,5.55
55.74,1.90,-3.63,1.90,-3.63,3.63,3.67,3.24,5.53,5.53,5.53
56.29,1.97,-3.55,1.97,-3.54,3.54,3.58,3.22,5.50,5.51,5.51
56.86,2.05,-3.45,2.05,-3.45,3.44,3.50,3.21,5.49,5.49,5.49
57.42,2.13,-3.34,2.13,-3.35,3.35,3.41,3.20,5.48,5.47,5.47
58.00,2.21,-3.25,2.21,-3.24,3.25,3.32,3.18,5.46,5.46,5.46
58.58,2.29,-3.15,2.29,-3.15,3.15,3.22,3.15,5.44,5.45,5.44
59.16,2.38,-3.04,2.37,-3.05,3.06,3.13,3.13,5.43,5.43,5.42
59.76,2.45,-2.96,2.45,-2.96,2.95,3.03,3.10,5.40,5.41,5.41
60.35,2.53,-2.86,2.53,-2.86,2.85,2.93,3.07,5.38,5.38,5.38
60.96,2.61,-2.77,2.61,-2.76,2.75,2.84,3.03,5.36,5.36,5.38
61.57,2.69,-2.66,2.69,-2.66,2.65,2.74,2.98,5.34,5.34,5.34
62.18,2.78,-2.54,2.78,-2.55,2.55,2.64,2.94,5.33,5.33,5.32
62.80,2.86,-2.44,2.86,-2.44,2.45,2.53,2.89,5.31,5.31,5.30
63.43,2.94,-2.34,2.94,-2.34,2.35,2.43,2.83,5.29,5.29,5.28
64.07,3.01,-2.25,3.01,-2.25,2.26,2.33,2.77,5.27,5.27,5.26
64.71,3.09,-2.16,3.08,-2.16,2.16,2.23,2.70,5.25,5.25,5.25
65.35,3.16,-2.08,3.16,-2.08,2.07,2.13,2.63,5.23,5.23,5.23
66.01,3.24,-1.99,3.24,-1.98,1.98,2.02,2.55,5.22,5.22,5.23
66.67,3.32,-1.89,3.32,-1.89,1.89,1.92,2.47,5.21,5.21,5.21
67.33,3.40,-1.80,3.39,-1.80,1.80,1.82,2.39,5.20,5.19,5.20
68.01,3.47,-1.71,3.47,-1.71,1.71,1.72,2.30,5.18,5.18,5.18
68.69,3.55,-1.62,3.55,-1.62,1.62,1.62,2.21,5.16,5.16,5.17
69.37,3.63,-1.52,3.62,-1.52,1.53,1.51,2.11,5.15,5.15,5.15
70.07,3.70,-1.44,3.70,-1.43,1.43,1.41,2.01,5.13,5.14,5.13
70.77,3.78,-1.34,3.77,-1.34,1.35,1.31,1.91,5.12,5.12,5.12
71.48,3.85,-1.25,3.85,-1.26,1.26,1.21,1.80,5.10,5.10,5.10
72.19,3.91,-1.18,3.92,-1.16,1.17,1.11,1.70,5.08,5.08,5.08
72.91,3.99,-1.07,3.98,-1.08,1.08,1.01,1.59,5.07,5.06,5.06
73.64,4.05,-0.99,4.05,-0.99,0.99,0.91,1.47,5.04,5.04,5.04
74.38,4.11,-0.91,4.12,-0.90,0.90,0.81,1.36,5.00,5.01,5.02
75.12,4.19,-0.80,4.18,-0.81,0.80,0.71,1.24,4.99,4.99,4.98
75.87,4.26,-0.71,4.26,-0.71,0.71,0.61,1.13,4.97,4.97,4.97
76.63,4.33,-0.62,4.33,-0.61,0.62,0.51,1.01,4.94,4.95,4.95
77.40,4.40,-0.52,4.40,-0.52,0.52,0.41,0.89,4.92,4.92,4.92
78.17,4.48,-0.41,4.47,-0.42,0.42,0.31,0.77,4.90,4.90,4.88
78.95,4.55,-0.33,4.55,-0.32,0.32,0.21,0.65,4.87,4.87,4.88
79.74,4.62,-0.23,4.62,-0.22,0.22,0.11,0.52,4.84,4.84,4.85
80.54,4.69,-0.13,4.69,-0.12,0.12,0.02,0.40,4.81,4.82,4.82
81.35,4.77,-0.02,4.76,-0.02,0.02,-0.08,0.27,4.79,4.79,4.78
82.16,4.84,0.08,4.83,0.08,-0.07,-0.18,0.15,4.76,4.76,4.75
82.98,4.90,0.17,4.90,0.18,-0.17,-0.28,0.02,4.72,4.73,4.73
83.81,4.97,0.28,4.97,0.27,-0.27,-0.38,-0.10,4.69,4.69,4.69
84.65,5.03,0.37,5.03,0.37,-0.38,-0.48,-0.23,4.65,4.66,4.66
85.50,5.11,0.47,5.10,0.48,-0.48,-0.57,-0.36,4.63,4.63,4.63
86.35,5.18,0.58,5.18,0.58,-0.58,-0.67,-0.48,4.60,4.59,4.60
87.22,5.25,0.68,5.25,0.69,-0.69,-0.77,-0.61,4.56,4.56,4.56
88.09,5.33,0.80,5.33,0.79,-0.79,-0.87,-0.74,4.53,4.53,4.53
88.97,5.41,0.90,5.40,0.90,-0.90,-0.96,-0.87,4.51,4.50,4.50
89.86,5.48,1.01,5.48,1.01,-1.01,-1.06,-1.00,4.47,4.47,4.47
90.76,5.55,1.12,5.55,1.12,-1.12,-1.16,-1.13,4.43,4.43,4.42
91.66,5.62,1.22,5.62,1.23,-1.22,-1.25,-1.26,4.40,4.39,4.40
92.58,5.69,1.34,5.69,1.33,-1.33,-1.35,-1.40,4.36,4.36,4.35
93.51,5.76,1.43,5.76,1.43,-1.43,-1.44,-1.53,4.32,4.32,4.33
94.44,5.83,1.53,5.83,1.54,-1.54,-1.54,-1.66,4.29,4.29,4.29
95.39,5.90,1.64,5.89,1.64,-1.64,-1.63,-1.79,4.25,4.25,4.26
96.34,5.96,1.75,5.96,1.75,-1.75,-1.73,-1.93,4.21,4.21,4.21
97.30,6.02,1.85,6.02,1.85,-1.85,-1.82,-2.06,4.17,4.17,4.17
98.28,6.09,1.96,6.09,1.96,-1.96,-1.92,-2.20,4.13,4.13,4.13
99.26,6.15,2.07,6.15,2.06,-2.06,-2.01,-2.33,4.09,4.09,4.08
100.25,6.21,2.16,6.21,2.16,-2.16,-2.10,-2.47,4.05,4.04,4.04
101.25,6.26,2.25,6.26,2.26,-2.26,-2.20,-2.60,4.00,4.00,4.00
102.27,6.32,2.36,6.32,2.36,-2.36,-2.29,-2.73,3.96,3.96,3.95
103.29,6.37,2.46,6.37,2.46,-2.46,-2.38,-2.87,3.91,3.91,3.91
104.32,6.42,2.55,6.42,2.55,-2.55,-2.47,-3.00,3.87,3.87,3.87
105.37,6.47,2.64,6.46,2.64,-2.64,-2.56,-3.13,3.83,3.82,3.83
106.42,6.50,2.72,6.50,2.73,-2.73,-2.65,-3.26,3.77,3.77,3.78
107.48,6.55,2.82,6.55,2.82,-2.82,-2.74,-3.39,3.73,3.73,3.73
108.56,6.59,2.91,6.59,2.91,-2.91,-2.83,-3.51,3.68,3.68,3.68
109.64,6.63,3.00,6.63,2.99,-2.99,-2.91,-3.63,3.64,3.63,3.63
110.74,6.66,3.07,6.66,3.08,-3.08,-3.00,-3.75,3.58,3.58,3.59
111.85,6.70,3.16,6.69,3.16,-3.16,-3.08,-3.87,3.54,3.53,3.54
112.97,6.73,3.26,6.73,3.24,-3.24,-3.17,-3.98,3.48,3.48,3.47
114.10,6.75,3.31,6.76,3.32,-3.32,-3.25,-4.08,3.43,3.43,3.43
115.24,6.79,3.40,6.78,3.40,-3.40,-3.33,-4.18,3.39,3.38,3.39
116.39,6.81,3.48,6.81,3.47,-3.47,-3.42,-4.28,3.33,3.33,3.33
117.55,6.83,3.55,6.83,3.55,-3.55,-3.49,-4.37,3.28,3.28,3.28
118.73,6.85,3.62,6.85,3.62,-3.61,-3.57,-4.46,3.23,3.24,3.23
119.92,6.88,3.68,6.87,3.68,-3.68,-3.65,-4.53,3.20,3.19,3.20
121.12,6.90,3.75,6.90,3.75,-3.75,-3.73,-4.60,3.15,3.15,3.15
122.33,6.92,3.82,6.92,3.81,-3.81,-3.80,-4.66,3.11,3.11,3.10
123.55,6.94,3.87,6.94,3.87,-3.88,-3.88,-4.72,3.06,3.06,3.07
124.79,6.96,3.94,6.96,3.94,-3.94,-3.95,-4.77,3.01,3.02,3.02
126.03,6.99,4.00,6.99,4.00,-4.01,-4.02,-4.81,2.98,2.97,2.99
127.29,7.02,4.08,7.01,4.08,-4.08,-4.09,-4.84,2.94,2.94,2.94
128.57,7.04,4.15,7.04,4.15,-4.15,-4.16,-4.87,2.89,2.90,2.89
129.85,7.08,4.22,7.07,4.22,-4.21,-4.23,-4.89,2.86,2.86,2.85
131.15,7.10,4.28,7.10,4.28,-4.28,-4.29,-4.90,2.82,2.82,2.82
132.46,7.13,4.35,7.13,4.35,-4.34,-4.36,-4.91,2.78,2.79,2.78
133.79,7.16,4.40,7.16,4.41,-4.41,-4.42,-4.91,2.75,2.75,2.76
135.12,7.19,4.47,7.18,4.46,-4.47,-4.48,-4.90,2.72,2.72,2.72
136.48,7.21,4.51,7.21,4.52,-4.52,-4.54,-4.90,2.69,2.69,2.69
137.84,7.24,4.56,7.24,4.58,-4.58,-4.60,-4.88,2.66,2.66,2.67
139.22,7.27,4.63,7.27,4.63,-4.63,-4.65,-4.87,2.64,2.64,2.63
140.61,7.30,4.69,7.30,4.68,-4.68,-4.71,-4.84,2.62,2.62,2.61
142.02,7.33,4.72,7.32,4.73,-4.72,-4.76,-4.82,2.61,2.60,2.61
143.44,7.35,4.76,7.35,4.77,-4.77,-4.81,-4.79,2.58,2.58,2.59
144.87,7.37,4.81,7.37,4.80,-4.81,-4.86,-4.77,2.56,2.57,2.56
146.32,7.40,4.85,7.39,4.84,-4.84,-4.91,-4.74,2.55,2.55,2.54
147.78,7.41,4.87,7.41,4.88,-4.88,-4.96,-4.71,2.53,2.53,2.54
149.26,7.43,4.91,7.43,4.91,-4.91,-5.00,-4.68,2.52,2.52,2.52
150.75,7.44,4.94,7.44,4.94,-4.94,-5.04,-4.65,2.50,2.50,2.50
152.26,7.46,4.97,7.46,4.97,-4.97,-5.08,-4.62,2.49,2.49,2.48
153.78,7.47,5.00,7.47,5.00,-4.99,-5.12,-4.59,2.47,2.47,2.47
155.32,7.48,5.02,7.48,5.02,-5.02,-5.16,-4.57,2.46,2.46,2.46
156.88,7.48,5.03,7.48,5.04,-5.04,-5.20,-4.54,2.44,2.44,2.44
158.44,7.48,5.06,7.48,5.06,-5.06,-5.23,-4.52,2.42,2.42,2.42
160.03,7.48,5.08,7.47,5.07,-5.07,-5.26,-4.50,2.41,2.40,2.40
161.63,7.47,5.09,7.47,5.09,-5.09,-5.29,-4.48,2.38,2.38,2.38
163.24,7.47,5.10,7.47,5.10,-5.10,-5.32,-4.47,2.37,2.37,2.37
164.88,7.47,5.11,7.47,5.11,-5.11,-5.35,-4.45,2.35,2.35,2.36
166.53,7.47,5.13,7.47,5.13,-5.13,-5.38,-4.44,2.34,2.34,2.34
168.19,7.47,5.16,7.46,5.15,-5.15,-5.40,-4.44,2.32,2.32,2.31
169.87,7.46,5.16,7.46,5.17,-5.17,-5.42,-4.44,2.29,2.29,2.29
171.57,7.47,5.19,7.46,5.19,-5.19,-5.44,-4.44,2.27,2.27,2.28
173.29,7.47,5.21,7.47,5.21,-5.22,-5.46,-4.44,2.25,2.25,2.26
175.02,7.48,5.25,7.48,5.25,-5.25,-5.48,-4.45,2.22,2.23,2.23
176.77,7.49,5.29,7.49,5.29,-5.29,-5.49,-4.46,2.20,2.20,2.20
178.54,7.50,5.33,7.50,5.33,-5.32,-5.50,-4.47,2.17,2.17,2.17
180.32,7.51,5.36,7.51,5.36,-5.36,-5.52,-4.49,2.15,2.15,2.15
182.13,7.52,5.40,7.52,5.40,-5.40,-5.53,-4.51,2.12,2.12,2.12
183.95,7.53,5.44,7.53,5.44,-5.44,-5.54,-4.54,2.09,2.09,2.09
185.79,7.54,5.48,7.54,5.48,-5.48,-5.54,-4.57,2.06,2.06,2.06
187.65,7.55,5.52,7.55,5.52,-5.51,-5.55,-4.60,2.04,2.03,2.03
189.52,7.55,5.54,7.55,5.55,-5.54,-5.55,-4.63,2.00,2.01,2.01
191.42,7.57,5.58,7.56,5.58,-5.57,-5.55,-4.67,1.99,1.99,1.98
193.33,7.57,5.60,7.57,5.60,-5.60,-5.55,-4.71,1.97,1.97,1.97
195.27,7.57,5.62,7.57,5.62,-5.62,-5.55,-4.76,1.94,1.95,1.95
197.22,7.57,5.64,7.57,5.64,-5.64,-5.55,-4.80,1.93,1.92,1.93
199.19,7.56,5.67,7.56,5.66,-5.66,-5.55,-4.85,1.90,1.90,1.89
201.18,7.56,5.68,7.55,5.68,-5.67,-5.54,-4.90,1.89,1.88,1.88
203.19,7.54,5.67,7.54,5.68,-5.68,-5.53,-4.96,1.86,1.86,1.87
205.23,7.53,5.68,7.53,5.67,-5.68,-5.52,-5.01,1.85,1.85,1.85
207.28,7.52,5.67,7.52,5.68,-5.68,-5.52,-5.07,1.83,1.83,1.85
209.35,7.50,5.68,7.50,5.68,-5.68,-5.50,-5.12,1.82,1.82,1.82
211.44,7.49,5.69,7.48,5.68,-5.67,-5.49,-5.18,1.81,1.81,1.80
213.56,7.46,5.67,7.46,5.67,-5.66,-5.48,-5.24,1.79,1.80,1.79
215.69,7.44,5.64,7.44,5.65,-5.65,-5.46,-5.29,1.79,1.79,1.79
217.85,7.41,5.62,7.41,5.63,-5.63,-5.44,-5.35,1.77,1.78,1.78
220.03,7.39,5.62,7.39,5.61,-5.61,-5.43,-5.40,1.77,1.77,1.77
222.23,7.36,5.60,7.36,5.59,-5.59,-5.41,-5.45,1.77,1.77,1.76
224.45,7.33,5.56,7.33,5.57,-5.56,-5.39,-5.50,1.77,1.77,1.77
226.70,7.30,5.53,7.30,5.53,-5.53,-5.36,-5.54,1.77,1.77,1.77
228.96,7.27,5.50,7.26,5.49,-5.49,-5.34,-5.59,1.78,1.77,1.77
231.25,7.23,5.45,7.23,5.45,-5.46,-5.31,-5.62,1.77,1.78,1.78
233.57,7.21,5.41,7.20,5.41,-5.42,-5.29,-5.66,1.79,1.79,1.80
235.90,7.18,5.38,7.18,5.38,-5.38,-5.26,-5.68,1.80,1.80,1.80
238.26,7.16,5.35,7.16,5.35,-5.35,-5.23,-5.70,1.81,1.81,1.80
240.64,7.14,5.31,7.14,5.31,-5.31,-5.20,-5.71,1.82,1.83,1.83
243.05,7.13,5.28,7.12,5.28,-5.28,-5.17,-5.72,1.85,1.84,1.84
245.48,7.11,5.24,7.11,5.25,-5.25,-5.14,-5.72,1.86,1.86,1.87
247.93,7.11,5.22,7.11,5.23,-5.22,-5.11,-5.71,1.88,1.88,1.88
250.41,7.11,5.21,7.11,5.20,-5.20,-5.08,-5.70,1.91,1.91,1.90
252.92,7.11,5.17,7.10,5.17,-5.18,-5.04,-5.68,1.93,1.93,1.93
255.45,7.10,5.14,7.10,5.14,-5.15,-5.00,-5.64,1.95,1.95,1.96
258.00,7.10,5.11,7.10,5.12,-5.13,-4.97,-5.61,1.97,1.97,1.99
260.58,7.11,5.11,7.10,5.10,-5.10,-4.93,-5.56,2.00,2.00,2.00
263.19,7.10,5.07,7.10,5.08,-5.07,-4.89,-5.51,2.02,2.03,2.03
265.82,7.10,5.04,7.10,5.04,-5.03,-4.85,-5.45,2.06,2.06,2.05
268.48,7.08,5.00,7.08,4.99,-4.98,-4.81,-5.39,2.09,2.09,2.08
271.16,7.05,4.93,7.05,4.94,-4.92,-4.77,-5.32,2.13,2.13,2.12
273.87,7.00,4.86,7.00,4.86,-4.84,-4.73,-5.24,2.15,2.15,2.13
276.61,6.94,4.77,6.93,4.77,-4.75,-4.68,-5.16,2.18,2.18,2.17
279.38,6.86,4.67,6.85,4.67,-4.65,-4.64,-5.08,2.21,2.20,2.19
282.17,6.76,4.54,6.76,4.55,-4.54,-4.59,-4.99,2.22,2.22,2.21
284.99,6.67,4.43,6.67,4.42,-4.43,-4.55,-4.90,2.24,2.24,2.24
287.84,6.57,4.30,6.57,4.30,-4.31,-4.50,-4.81,2.25,2.26,2.27
290.72,6.50,4.19,6.49,4.19,-4.21,-4.45,-4.71,2.29,2.28,2.31
293.63,6.42,4.10,6.42,4.10,-4.12,-4.41,-4.62,2.30,2.31,2.32
296.57,6.38,4.02,6.38,4.02,-4.04,-4.36,-4.52,2.34,2.34,2.36
299.53,6.35,3.96,6.35,3.96,-3.97,-4.31,-4.42,2.37,2.37,2.39
302.53,6.34,3.92,6.34,3.92,-3.93,-4.26,-4.32,2.41,2.41,2.42
305.55,6.34,3.87,6.34,3.89,-3.89,-4.21,-4.23,2.45,2.45,2.46
308.61,6.37,3.88,6.36,3.87,-3.87,-4.15,-4.13,2.50,2.50,2.49
311.69,6.38,3.85,6.38,3.85,-3.85,-4.10,-4.03,2.53,2.53,2.53
314.81,6.41,3.84,6.40,3.84,-3.83,-4.05,-3.94,2.58,2.57,2.57
317.96,6.41,3.81,6.41,3.82,-3.81,-3.99,-3.84,2.60,2.60,2.60
321.14,6.43,3.80,6.42,3.80,-3.79,-3.94,-3.75,2.64,2.64,2.62
324.35,6.42,3.77,6.42,3.76,-3.76,-3.88,-3.66,2.66,2.66,2.65
327.59,6.42,3.73,6.41,3.73,-3.73,-3.83,-3.57,2.69,2.69,2.69
330.87,6.40,3.68,6.40,3.68,-3.69,-3.77,-3.48,2.71,2.71,2.72
334.18,6.38,3.64,6.38,3.64,-3.64,-3.72,-3.40,2.73,2.74,2.74
337.52,6.37,3.60,6.36,3.60,-3.60,-3.66,-3.32,2.77,2.77,2.77
340.90,6.34,3.54,6.34,3.55,-3.55,-3.60,-3.24,2.79,2.79,2.79
344.30,6.31,3.49,6.31,3.49,-3.49,-3.54,-3.16,2.82,2.82,2.81
347.75,6.27,3.43,6.28,3.44,-3.44,-3.48,-3.08,2.83,2.84,2.84
351.23,6.25,3.39,6.24,3.38,-3.38,-3.42,-3.01,2.87,2.86,2.86
354.74,6.21,3.33,6.20,3.33,-3.32,-3.36,-2.94,2.88,2.88,2.88
358.28,6.16,3.26,6.17,3.27,-3.27,-3.30,-2.87,2.89,2.90,2.90
361.87,6.13,3.21,6.12,3.21,-3.21,-3.24,-2.81,2.92,2.92,2.92
365.49,6.09,3.14,6.09,3.15,-3.15,-3.18,-2.74,2.94,2.93,2.95
369.14,6.05,3.09,6.05,3.09,-3.09,-3.12,-2.68,2.96,2.96,2.95
372.83,6.01,3.03,6.01,3.03,-3.03,-3.05,-2.62,2.97,2.98,2.97
376.56,5.98,2.99,5.97,2.98,-2.98,-2.99,-2.57,3.00,3.00,2.99
380.33,5.93,2.91,5.93,2.92,-2.92,-2.93,-2.51,3.01,3.02,3.02
384.13,5.90,2.86,5.90,2.86,-2.86,-2.86,-2.46,3.04,3.04,3.04
387.97,5.86,2.80,5.86,2.79,-2.80,-2.80,-2.41,3.06,3.06,3.06
391.85,5.82,2.74,5.82,2.74,-2.73,-2.73,-2.36,3.08,3.08,3.08
395.77,5.78,2.67,5.78,2.67,-2.67,-2.67,-2.31,3.11,3.11,3.11
399.73,5.74,2.61,5.74,2.61,-2.61,-2.60,-2.26,3.13,3.13,3.13
403.72,5.70,2.55,5.69,2.55,-2.55,-2.54,-2.22,3.15,3.15,3.15
407.76,5.65,2.48,5.65,2.48,-2.48,-2.47,-2.17,3.16,3.17,3.17
411.84,5.61,2.41,5.61,2.42,-2.42,-2.40,-2.13,3.19,3.19,3.20
415.96,5.58,2.36,5.57,2.36,-2.36,-2.34,-2.09,3.22,3.21,3.21
420.12,5.53,2.29,5.53,2.29,-2.29,-2.27,-2.05,3.24,3.24,3.23
424.32,5.49,2.22,5.49,2.23,-2.23,-2.20,-2.01,3.26,3.26,3.26
428.56,5.45,2.16,5.45,2.16,-2.17,-2.13,-1.97,3.28,3.28,3.28
432.85,5.41,2.11,5.41,2.10,-2.10,-2.06,-1.93,3.30,3.31,3.30
437.18,5.37,2.04,5.37,2.04,-2.04,-1.99,-1.89,3.33,3.33,3.33
441.55,5.34,1.98,5.33,1.98,-1.98,-1.92,-1.85,3.36,3.36,3.36
445.96,5.30,1.92,5.30,1.91,-1.91,-1.85,-1.81,3.38,3.38,3.38
450.42,5.26,1.86,5.26,1.85,-1.85,-1.78,-1.77,3.41,3.41,3.40
454.93,5.22,1.78,5.22,1.79,-1.79,-1.71,-1.73,3.43,3.44,3.44
459.48,5.19,1.73,5.18,1.72,-1.72,-1.64,-1.69,3.47,3.46,3.46
464.07,5.15,1.66,5.15,1.65,-1.66,-1.57,-1.64,3.49,3.49,3.49
468.71,5.11,1.58,5.11,1.59,-1.59,-1.50,-1.60,3.52,3.52,3.53
473.40,5.08,1.53,5.07,1.52,-1.52,-1.42,-1.55,3.55,3.55,3.55
478.13,5.04,1.46,5.04,1.46,-1.46,-1.35,-1.50,3.58,3.58,3.58
482.91,5.00,1.39,5.00,1.39,-1.39,-1.28,-1.45,3.61,3.61,3.61
487.74,4.96,1.32,4.96,1.33,-1.32,-1.20,-1.40,3.63,3.64,3.64
492.62,4.93,1.26,4.92,1.26,-1.26,-1.13,-1.34,3.67,3.67,3.67
497.55,4.89,1.20,4.88,1.19,-1.19,-1.06,-1.29,3.70,3.69,3.69
502.52,4.84,1.11,4.84,1.12,-1.12,-0.98,-1.23,3.72,3.72,3.73
507.55,4.80,1.05,4.80,1.05,-1.05,-0.91,-1.17,3.74,3.75,3.75
512.62,4.76,0.98,4.76,0.98,-0.99,-0.83,-1.10,3.77,3.77,3.78
517.75,4.73,0.92,4.72,0.92,-0.92,-0.76,-1.04,3.81,3.80,3.81
522.93,4.68,0.84,4.68,0.85,-0.85,-0.68,-0.97,3.83,3.83,3.84
528.16,4.64,0.78,4.64,0.78,-0.78,-0.60,-0.89,3.86,3.86,3.86
533.44,4.60,0.71,4.60,0.71,-0.71,-0.53,-0.82,3.89,3.89,3.89
538.77,4.56,0.64,4.56,0.64,-0.64,-0.45,-0.75,3.92,3.92,3.91
544.16,4.51,0.56,4.51,0.57,-0.57,-0.37,-0.67,3.94,3.94,3.94
549.60,4.47,0.49,4.47,0.49,-0.50,-0.29,-0.59,3.97,3.97,3.97
555.10,4.42,0.42,4.42,0.42,-0.42,-0.22,-0.50,4.00,4.00,3.99
560.65,4.38,0.34,4.38,0.35,-0.35,-0.14,-0.42,4.03,4.03,4.03
