frequency,raw,error,smoothed,error_smoothed,equalization,parametric_eq,equalized_raw,equalized_smoothed,target
20,-6.36,-4.89,-6.45,-4.98,4.98,1.42,-1.38,-1.47,-1.47
21,-6.27,-4.79,-6.27,-4.79,4.79,1.66,-1.48,-1.48,-1.47
22,-6.13,-4.65,-6.09,-4.61,4.61,1.91,-1.52,-1.48,-1.48
23,-5.94,-4.46,-5.90,-4.43,4.43,2.19,-1.51,-1.48,-1.48
24,-5.80,-4.32,-5.72,-4.24,4.24,2.49,-1.56,-1.48,-1.48
25,-5.61,-4.12,-5.54,-4.06,4.06,2.79,-1.55,-1.48,-1.48
26,-5.40,-3.91,-5.37,-3.88,3.88,3.08,-1.52,-1.49,-1.49
27,-5.20,-3.71,-5.19,-3.69,3.69,3.36,-1.50,-1.49,-1.49
28,-5.00,-3.50,-5.01,-3.51,3.51,3.59,-1.49,-1.50,-1.50
29,-4.80,-3.30,-4.83,-3.33,3.33,3.77,-1.47,-1.50,-1.50
30,-4.61,-3.10,-4.65,-3.15,3.15,3.87,-1.46,-1.50,-1.50
31,-4.43,-2.92,-4.48,-2.97,2.97,3.89,-1.46,-1.51,-1.51
32,-4.29,-2.77,-4.31,-2.79,2.79,3.83,-1.50,-1.52,-1.52
33,-4.14,-2.62,-4.14,-2.61,2.61,3.70,-1.53,-1.52,-1.52
34,-3.98,-2.45,-3.97,-2.44,2.44,3.51,-1.54,-1.53,-1.53
35,-3.82,-2.28,-3.80,-2.26,2.26,3.29,-1.56,-1.54,-1.54
36,-3.66,-2.11,-3.63,-2.09,2.09,3.03,-1.57,-1.54,-1.54
37,-3.49,-1.94,-3.47,-1.91,1.91,2.76,-1.58,-1.55,-1.55
38,-3.32,-1.76,-3.30,-1.74,1.74,2.49,-1.58,-1.56,-1.56
39,-3.15,-1.58,-3.14,-1.57,1.57,2.21,-1.58,-1.57,-1.57
40,-2.98,-1.40,-2.98,-1.40,1.40,1.94,-1.58,-1.58,-1.58
41,-2.82,-1.22,-2.82,-1.23,1.23,1.68,-1.59,-1.60,-1.59
42,-2.66,-1.05,-2.66,-1.06,1.06,1.43,-1.60,-1.61,-1.61
43,-2.50,-0.88,-2.51,-0.89,0.89,1.19,-1.61,-1.62,-1.62
44,-2.35,-0.72,-2.36,-0.73,0.73,0.96,-1.62,-1.63,-1.63
45,-2.21,-0.56,-2.22,-0.57,0.57,0.73,-1.64,-1.65,-1.65
46,-2.08,-0.42,-2.08,-0.42,0.42,0.52,-1.66,-1.66,-1.66
47,-1.94,-0.26,-1.95,-0.27,0.27,0.32,-1.67,-1.68,-1.68
48,-1.82,-0.12,-1.82,-0.12,0.12,0.12,-1.70,-1.70,-1.70
49,-1.70,0.02,-1.70,0.02,-0.02,-0.07,-1.71,-1.72,-1.72
50,-1.58,0.16,-1.58,0.15,-0.15,-0.26,-1.73,-1.73,-1.73
51,-1.47,0.28,-1.47,0.28,-0.28,-0.43,-1.75,-1.75,-1.75
52,-1.36,0.42,-1.37,0.41,-0.41,-0.60,-1.76,-1.77,-1.77
53,-1.26,0.54,-1.27,0.53,-0.53,-0.76,-1.79,-1.80,-1.80
54,-1.17,0.65,-1.17,0.65,-0.65,-0.92,-1.82,-1.82,-1.82
55,-1.08,0.76,-1.08,0.76,-0.76,-1.06,-1.84,-1.84,-1.84
56,-1.00,0.87,-0.99,0.88,-0.88,-1.20,-1.88,-1.87,-1.87
57,-0.91,0.98,-0.90,0.99,-0.99,-1.33,-1.90,-1.89,-1.89
58,-0.83,1.09,-0.81,1.10,-1.10,-1.45,-1.93,-1.92,-1.92
59,-0.75,1.20,-0.73,1.22,-1.22,-1.57,-1.96,-1.95,-1.95
60,-0.67,1.30,-0.65,1.32,-1.32,-1.67,-1.99,-1.97,-1.97
61,-0.59,1.41,-0.57,1.43,-1.43,-1.77,-2.02,-2.00,-2.00
62,-0.50,1.53,-0.49,1.54,-1.54,-1.85,-2.04,-2.03,-2.03
63,-0.41,1.65,-0.42,1.64,-1.64,-1.93,-2.05,-2.06,-2.06
64,-0.32,1.77,-0.35,1.74,-1.74,-2.01,-2.06,-2.09,-2.09
65,-0.25,1.88,-0.29,1.84,-1.84,-2.07,-2.09,-2.13,-2.13
66,-0.20,1.96,-0.22,1.94,-1.94,-2.13,-2.14,-2.16,-2.16
67,-0.15,2.04,-0.16,2.03,-2.03,-2.19,-2.18,-2.19,-2.19
68,-0.11,2.12,-0.11,2.12,-2.12,-2.24,-2.23,-2.23,-2.23
69,-0.07,2.19,-0.06,2.21,-2.21,-2.29,-2.28,-2.26,-2.26
70,-0.02,2.28,-0.01,2.29,-2.29,-2.33,-2.31,-2.30,-2.30
71,0.02,2.36,0.04,2.38,-2.38,-2.37,-2.36,-2.34,-2.34
72,0.07,2.44,0.09,2.46,-2.46,-2.42,-2.39,-2.37,-2.37
73,0.12,2.53,0.13,2.54,-2.54,-2.46,-2.42,-2.41,-2.41
74,0.18,2.63,0.18,2.63,-2.63,-2.50,-2.45,-2.45,-2.45
75,0.23,2.72,0.22,2.71,-2.71,-2.54,-2.48,-2.49,-2.49
76,0.27,2.80,0.26,2.79,-2.79,-2.58,-2.52,-2.53,-2.53
77,0.30,2.87,0.30,2.87,-2.87,-2.63,-2.57,-2.57,-2.57
78,0.34,2.95,0.34,2.95,-2.95,-2.68,-2.61,-2.61,-2.61
79,0.37,3.02,0.38,3.03,-3.03,-2.72,-2.66,-2.65,-2.65
80,0.42,3.11,0.42,3.11,-3.11,-2.78,-2.68,-2.69,-2.69
81,0.46,3.19,0.45,3.18,-3.18,-2.83,-2.72,-2.73,-2.73
82,0.49,3.26,0.49,3.26,-3.26,-2.88,-2.76,-2.77,-2.77
83,0.52,3.33,0.52,3.33,-3.33,-2.94,-2.81,-2.81,-2.81
84,0.55,3.40,0.55,3.40,-3.40,-3.00,-2.85,-2.85,-2.85
85,0.58,3.48,0.57,3.47,-3.47,-3.07,-2.89,-2.89,-2.89
86,0.59,3.53,0.60,3.54,-3.54,-3.13,-2.95,-2.94,-2.94
87,0.62,3.60,0.62,3.60,-3.60,-3.20,-2.98,-2.98,-2.98
88,0.64,3.66,0.65,3.67,-3.67,-3.27,-3.03,-3.02,-3.02
89,0.67,3.73,0.67,3.73,-3.73,-3.35,-3.06,-3.06,-3.06
90,0.69,3.79,0.69,3.79,-3.79,-3.42,-3.10,-3.10,-3.10
91,0.70,3.84,0.71,3.85,-3.85,-3.50,-3.15,-3.14,-3.14
92,0.73,3.92,0.73,3.91,-3.91,-3.58,-3.18,-3.18,-3.18
93,0.74,3.97,0.75,3.97,-3.97,-3.67,-3.23,-3.22,-3.23
94,0.77,4.04,0.76,4.03,-4.03,-3.75,-3.26,-3.26,-3.27
95,0.78,4.09,0.78,4.08,-4.08,-3.84,-3.30,-3.31,-3.31
96,0.79,4.14,0.79,4.14,-4.14,-3.93,-3.35,-3.35,-3.35
97,0.82,4.21,0.80,4.19,-4.19,-4.01,-3.37,-3.39,-3.39
98,0.83,4.26,0.81,4.24,-4.24,-4.11,-3.41,-3.43,-3.43
99,0.83,4.30,0.82,4.29,-4.29,-4.20,-3.46,-3.47,-3.46
100,0.83,4.33,0.83,4.34,-4.34,-4.29,-3.51,-3.51,-3.50
101,0.83,4.37,0.83,4.39,-4.39,-4.38,-3.56,-3.55,-3.54
102,0.82,4.40,0.84,4.44,-4.44,-4.48,-3.61,-3.60,-3.58
104,0.82,4.47,0.85,4.48,-4.48,-4.66,-3.66,-3.64,-3.65
105,0.83,4.52,0.85,4.53,-4.53,-4.75,-3.70,-3.68,-3.69
106,0.84,4.57,0.86,4.57,-4.57,-4.84,-3.73,-3.72,-3.73
107,0.86,4.62,0.86,4.62,-4.62,-4.93,-3.76,-3.75,-3.76
108,0.87,4.67,0.87,4.66,-4.66,-5.02,-3.79,-3.79,-3.80
109,0.89,4.72,0.87,4.70,-4.70,-5.10,-3.81,-3.83,-3.83
110,0.89,4.76,0.88,4.74,-4.74,-5.18,-3.85,-3.86,-3.86
111,0.89,4.79,0.88,4.78,-4.78,-5.26,-3.89,-3.90,-3.90
112,0.89,4.82,0.88,4.81,-4.81,-5.33,-3.92,-3.94,-3.93
113,0.89,4.85,0.88,4.85,-4.85,-5.41,-3.96,-3.97,-3.96
114,0.88,4.88,0.88,4.88,-4.88,-5.47,-4.00,-4.01,-3.99
115,0.88,4.91,0.88,4.92,-4.92,-5.53,-4.04,-4.04,-4.03
117,0.86,4.95,0.87,4.95,-4.95,-5.65,-4.09,-4.07,-4.09
118,0.84,4.96,0.87,4.98,-4.98,-5.69,-4.14,-4.11,-4.12
119,0.84,4.99,0.87,5.01,-5.01,-5.73,-4.17,-4.14,-4.14
120,0.84,5.01,0.86,5.04,-5.04,-5.77,-4.20,-4.18,-4.17
121,0.85,5.05,0.86,5.07,-5.07,-5.80,-4.22,-4.21,-4.20
123,0.86,5.12,0.85,5.09,-5.09,-5.85,-4.23,-4.24,-4.25
124,0.87,5.15,0.84,5.12,-5.12,-5.86,-4.25,-4.28,-4.28
125,0.87,5.18,0.83,5.14,-5.14,-5.87,-4.27,-4.31,-4.31
126,0.86,5.19,0.82,5.16,-5.16,-5.87,-4.30,-4.34,-4.33
128,0.82,5.20,0.81,5.18,-5.18,-5.86,-4.36,-4.37,-4.38
129,0.78,5.18,0.80,5.20,-5.20,-5.85,-4.41,-4.40,-4.40
130,0.75,5.18,0.78,5.21,-5.21,-5.83,-4.46,-4.43,-4.43
131,0.74,5.19,0.76,5.22,-5.22,-5.81,-4.48,-4.46,-4.45
133,0.71,5.20,0.75,5.23,-5.23,-5.76,-4.52,-4.49,-4.49
134,0.72,5.23,0.73,5.24,-5.24,-5.73,-4.52,-4.51,-4.51
135,0.72,5.26,0.71,5.25,-5.25,-5.69,-4.53,-4.54,-4.53
137,0.71,5.28,0.69,5.25,-5.25,-5.61,-4.54,-4.57,-4.57
138,0.69,5.28,0.66,5.26,-5.26,-5.56,-4.57,-4.60,-4.59
140,0.64,5.27,0.64,5.26,-5.26,-5.47,-4.62,-4.62,-4.63
141,0.62,5.27,0.62,5.27,-5.27,-5.42,-4.65,-4.65,-4.65
142,0.59,5.26,0.60,5.27,-5.27,-5.37,-4.68,-4.67,-4.67
144,0.55,5.25,0.57,5.27,-5.27,-5.27,-4.72,-4.70,-4.70
145,0.53,5.25,0.55,5.27,-5.27,-5.22,-4.74,-4.72,-4.72
147,0.50,5.25,0.52,5.27,-5.27,-5.11,-4.76,-4.74,-4.75
148,0.50,5.26,0.50,5.26,-5.26,-5.06,-4.76,-4.77,-4.76
150,0.48,5.27,0.47,5.25,-5.25,-4.95,-4.77,-4.79,-4.79
151,0.47,5.28,0.44,5.25,-5.25,-4.90,-4.78,-4.81,-4.81
153,0.43,5.26,0.41,5.24,-5.24,-4.79,-4.81,-4.83,-4.83
154,0.39,5.24,0.38,5.23,-5.23,-4.74,-4.84,-4.85,-4.85
156,0.33,5.20,0.35,5.21,-5.21,-4.65,-4.88,-4.87,-4.87
157,0.30,5.19,0.31,5.20,-5.20,-4.60,-4.90,-4.89,-4.88
159,0.24,5.15,0.28,5.18,-5.18,-4.50,-4.94,-4.91,-4.91
160,0.22,5.14,0.24,5.17,-5.17,-4.46,-4.95,-4.92,-4.92
162,0.19,5.13,0.20,5.15,-5.15,-4.37,-4.96,-4.94,-4.94
164,0.17,5.13,0.17,5.13,-5.13,-4.29,-4.95,-4.96,-4.96
165,0.14,5.11,0.13,5.10,-5.10,-4.25,-4.96,-4.98,-4.97
167,0.11,5.10,0.08,5.07,-5.07,-4.18,-4.96,-4.99,-4.99
169,0.05,5.06,0.04,5.05,-5.05,-4.11,-4.99,-5.01,-5.01
170,0.02,5.04,-0.01,5.01,-5.01,-4.08,-4.99,-5.02,-5.02
172,-0.05,4.99,-0.06,4.98,-4.98,-4.01,-5.03,-5.04,-5.04
174,-0.12,4.94,-0.11,4.94,-4.94,-3.96,-5.06,-5.05,-5.05
175,-0.15,4.91,-0.16,4.91,-4.91,-3.93,-5.05,-5.07,-5.06
177,-0.22,4.86,-0.21,4.87,-4.87,-3.88,-5.08,-5.08,-5.08
179,-0.29,4.80,-0.27,4.83,-4.83,-3.83,-5.11,-5.09,-5.09
181,-0.36,4.75,-0.32,4.78,-4.78,-3.79,-5.14,-5.11,-5.11
183,-0.42,4.70,-0.38,4.74,-4.74,-3.75,-5.16,-5.12,-5.12
184,-0.44,4.69,-0.43,4.70,-4.70,-3.74,-5.14,-5.13,-5.13
186,-0.48,4.66,-0.49,4.65,-4.65,-3.70,-5.13,-5.14,-5.14
188,-0.52,4.63,-0.55,4.61,-4.61,-3.68,-5.12,-5.15,-5.15
190,-0.57,4.59,-0.61,4.56,-4.56,-3.65,-5.13,-5.16,-5.16
192,-0.64,4.54,-0.66,4.51,-4.51,-3.63,-5.15,-5.17,-5.17
194,-0.70,4.49,-0.72,4.46,-4.46,-3.61,-5.16,-5.18,-5.19
196,-0.78,4.42,-0.78,4.41,-4.41,-3.60,-5.19,-5.19,-5.20
198,-0.85,4.36,-0.84,4.36,-4.36,-3.58,-5.21,-5.20,-5.20
200,-0.92,4.30,-0.90,4.31,-4.31,-3.57,-5.23,-5.21,-5.21
202,-0.98,4.24,-0.96,4.26,-4.26,-3.56,-5.24,-5.22,-5.22
204,-1.04,4.19,-1.02,4.22,-4.22,-3.55,-5.26,-5.23,-5.23
206,-1.09,4.15,-1.07,4.17,-4.17,-3.55,-5.26,-5.24,-5.24
208,-1.14,4.11,-1.12,4.12,-4.12,-3.55,-5.26,-5.25,-5.25
210,-1.18,4.08,-1.17,4.08,-4.08,-3.54,-5.26,-5.25,-5.25
212,-1.23,4.03,-1.22,4.04,-4.04,-3.54,-5.27,-5.26,-5.26
214,-1.26,4.01,-1.27,4.00,-4.00,-3.54,-5.26,-5.27,-5.27
216,-1.30,3.98,-1.32,3.96,-3.96,-3.54,-5.26,-5.28,-5.28
218,-1.33,3.95,-1.36,3.92,-3.92,-3.54,-5.25,-5.28,-5.28
221,-1.39,3.90,-1.41,3.88,-3.88,-3.54,-5.27,-5.29,-5.29
223,-1.45,3.85,-1.45,3.85,-3.85,-3.54,-5.29,-5.30,-5.30
225,-1.50,3.80,-1.49,3.81,-3.81,-3.54,-5.31,-5.30,-5.30
227,-1.55,3.76,-1.53,3.78,-3.78,-3.54,-5.33,-5.31,-5.31
229,-1.59,3.72,-1.57,3.74,-3.74,-3.54,-5.33,-5.31,-5.31
232,-1.65,3.67,-1.61,3.71,-3.71,-3.53,-5.36,-5.32,-5.32
234,-1.69,3.63,-1.64,3.68,-3.68,-3.53,-5.37,-5.32,-5.32
236,-1.71,3.62,-1.68,3.65,-3.65,-3.52,-5.36,-5.33,-5.33
239,-1.74,3.60,-1.72,3.61,-3.61,-3.51,-5.35,-5.33,-5.33
241,-1.77,3.57,-1.77,3.57,-3.57,-3.50,-5.34,-5.34,-5.34
244,-1.81,3.53,-1.82,3.52,-3.52,-3.48,-5.33,-5.34,-5.34
246,-1.84,3.51,-1.88,3.47,-3.47,-3.47,-5.31,-5.35,-5.35
248,-1.88,3.47,-1.95,3.41,-3.41,-3.46,-5.28,-5.35,-5.35
251,-1.96,3.40,-2.02,3.33,-3.33,-3.43,-5.29,-5.36,-5.36
253,-2.02,3.34,-2.11,3.25,-3.25,-3.42,-5.27,-5.36,-5.36
256,-2.15,3.21,-2.20,3.16,-3.16,-3.39,-5.31,-5.36,-5.36
259,-2.30,3.07,-2.30,3.07,-3.07,-3.35,-5.37,-5.37,-5.37
261,-2.40,2.97,-2.41,2.96,-2.96,-3.33,-5.36,-5.37,-5.37
264,-2.55,2.83,-2.52,2.86,-2.86,-3.29,-5.41,-5.37,-5.37
266,-2.64,2.74,-2.62,2.75,-2.75,-3.27,-5.39,-5.38,-5.38
269,-2.76,2.62,-2.73,2.65,-2.65,-3.23,-5.41,-5.38,-5.38
272,-2.86,2.53,-2.83,2.55,-2.55,-3.18,-5.41,-5.38,-5.38
274,-2.93,2.46,-2.92,2.46,-2.46,-3.16,-5.39,-5.39,-5.39
277,-3.03,2.36,-3.01,2.38,-2.38,-3.11,-5.41,-5.39,-5.39
280,-3.12,2.27,-3.08,2.31,-2.31,-3.06,-5.43,-5.39,-5.39
283,-3.19,2.21,-3.14,2.25,-2.25,-3.02,-5.44,-5.40,-5.40
286,-3.25,2.15,-3.19,2.20,-2.20,-2.97,-5.45,-5.40,-5.40
288,-3.27,2.13,-3.23,2.17,-2.17,-2.94,-5.44,-5.40,-5.40
291,-3.29,2.11,-3.26,2.14,-2.14,-2.89,-5.43,-5.40,-5.40
294,-3.29,2.12,-3.28,2.12,-2.12,-2.85,-5.41,-5.41,-5.40
297,-3.29,2.12,-3.30,2.11,-2.11,-2.80,-5.40,-5.41,-5.41
300,-3.29,2.12,-3.31,2.10,-2.10,-2.75,-5.39,-5.41,-5.41
303,-3.29,2.12,-3.32,2.10,-2.10,-2.71,-5.39,-5.41,-5.41
306,-3.29,2.12,-3.32,2.09,-2.09,-2.67,-5.38,-5.41,-5.41
309,-3.30,2.12,-3.33,2.09,-2.09,-2.62,-5.39,-5.42,-5.42
312,-3.31,2.11,-3.33,2.08,-2.08,-2.58,-5.39,-5.42,-5.42
316,-3.33,2.09,-3.34,2.08,-2.08,-2.53,-5.41,-5.42,-5.42
319,-3.35,2.07,-3.35,2.07,-2.07,-2.49,-5.42,-5.42,-5.42
322,-3.36,2.06,-3.37,2.06,-2.06,-2.46,-5.41,-5.42,-5.42
325,-3.38,2.04,-3.38,2.04,-2.04,-2.42,-5.42,-5.42,-5.42
328,-3.40,2.03,-3.40,2.02,-2.02,-2.39,-5.42,-5.43,-5.42
332,-3.43,2.00,-3.42,2.00,-2.00,-2.35,-5.43,-5.43,-5.43
335,-3.45,1.98,-3.44,1.98,-1.98,-2.32,-5.43,-5.43,-5.43
338,-3.47,1.96,-3.47,1.96,-1.96,-2.29,-5.43,-5.43,-5.43
342,-3.49,1.94,-3.49,1.94,-1.94,-2.25,-5.43,-5.43,-5.43
345,-3.51,1.92,-3.51,1.92,-1.92,-2.23,-5.43,-5.43,-5.43
349,-3.54,1.89,-3.54,1.90,-1.90,-2.20,-5.44,-5.43,-5.43
352,-3.56,1.88,-3.56,1.88,-1.88,-2.18,-5.43,-5.43,-5.43
356,-3.59,1.85,-3.58,1.85,-1.85,-2.15,-5.44,-5.44,-5.44
359,-3.60,1.84,-3.60,1.83,-1.83,-2.13,-5.43,-5.44,-5.44
363,-3.63,1.81,-3.62,1.82,-1.82,-2.11,-5.45,-5.44,-5.44
366,-3.64,1.80,-3.64,1.80,-1.80,-2.10,-5.44,-5.44,-5.44
370,-3.66,1.78,-3.66,1.78,-1.78,-2.08,-5.44,-5.44,-5.44
374,-3.68,1.76,-3.68,1.77,-1.77,-2.06,-5.44,-5.44,-5.44
377,-3.69,1.75,-3.69,1.75,-1.75,-2.05,-5.44,-5.44,-5.44
381,-3.71,1.74,-3.71,1.74,-1.74,-2.04,-5.45,-5.45,-5.44
385,-3.72,1.73,-3.72,1.73,-1.73,-2.03,-5.44,-5.45,-5.45
389,-3.74,1.71,-3.73,1.71,-1.71,-2.02,-5.45,-5.45,-5.45
393,-3.75,1.70,-3.75,1.70,-1.70,-2.01,-5.45,-5.45,-5.45
397,-3.76,1.69,-3.76,1.69,-1.69,-2.00,-5.45,-5.45,-5.45
401,-3.77,1.68,-3.77,1.69,-1.69,-2.00,-5.45,-5.45,-5.45
405,-3.77,1.68,-3.78,1.68,-1.68,-1.99,-5.45,-5.45,-5.45
409,-3.78,1.67,-3.79,1.67,-1.67,-1.99,-5.45,-5.45,-5.45
413,-3.79,1.67,-3.79,1.66,-1.66,-1.99,-5.45,-5.45,-5.45
417,-3.79,1.67,-3.80,1.65,-1.65,-1.98,-5.44,-5.45,-5.45
421,-3.80,1.66,-3.81,1.65,-1.65,-1.98,-5.45,-5.45,-5.45
425,-3.80,1.66,-3.81,1.64,-1.64,-1.98,-5.44,-5.45,-5.45
430,-3.80,1.65,-3.81,1.64,-1.64,-1.98,-5.44,-5.45,-5.45
434,-3.81,1.64,-3.81,1.64,-1.64,-1.98,-5.45,-5.45,-5.45
438,-3.81,1.64,-3.81,1.64,-1.64,-1.98,-5.45,-5.45,-5.45
443,-3.82,1.63,-3.80,1.65,-1.65,-1.98,-5.47,-5.45,-5.45
447,-3.83,1.61,-3.79,1.66,-1.66,-1.98,-5.48,-5.44,-5.44
451,-3.82,1.62,-3.77,1.67,-1.67,-1.98,-5.48,-5.44,-5.44
456,-3.79,1.65,-3.76,1.68,-1.68,-1.98,-5.47,-5.43,-5.43
460,-3.75,1.68,-3.74,1.69,-1.69,-1.98,-5.44,-5.43,-5.43
465,-3.70,1.72,-3.71,1.71,-1.71,-1.97,-5.41,-5.42,-5.42
470,-3.65,1.76,-3.69,1.72,-1.72,-1.97,-5.37,-5.41,-5.41
474,-3.63,1.78,-3.67,1.74,-1.74,-1.97,-5.37,-5.40,-5.40
479,-3.60,1.80,-3.64,1.75,-1.75,-1.96,-5.35,-5.39,-5.39
484,-3.59,1.79,-3.62,1.77,-1.77,-1.95,-5.35,-5.38,-5.38
489,-3.59,1.78,-3.59,1.78,-1.78,-1.95,-5.37,-5.37,-5.37
494,-3.58,1.78,-3.57,1.79,-1.79,-1.94,-5.37,-5.36,-5.36
499,-3.56,1.78,-3.54,1.80,-1.80,-1.93,-5.36,-5.34,-5.34
504,-3.54,1.79,-3.51,1.82,-1.82,-1.91,-5.36,-5.33,-5.33
509,-3.50,1.81,-3.48,1.83,-1.83,-1.90,-5.33,-5.31,-5.31
514,-3.46,1.84,-3.45,1.85,-1.85,-1.89,-5.30,-5.29,-5.29
519,-3.41,1.87,-3.41,1.86,-1.86,-1.87,-5.27,-5.28,-5.28
524,-3.37,1.89,-3.38,1.88,-1.88,-1.85,-5.25,-5.26,-5.26
529,-3.34,1.90,-3.34,1.90,-1.90,-1.83,-5.24,-5.24,-5.24
535,-3.28,1.94,-3.29,1.92,-1.92,-1.81,-5.20,-5.21,-5.21
540,-3.24,1.95,-3.24,1.95,-1.95,-1.79,-5.19,-5.19,-5.19
545,-3.20,1.97,-3.20,1.97,-1.97,-1.77,-5.17,-5.17,-5.17
551,-3.15,2.00,-3.14,2.00,-2.00,-1.75,-5.15,-5.15,-5.15
556,-3.09,2.03,-3.09,2.03,-2.03,-1.72,-5.12,-5.12,-5.12
562,-3.03,2.07,-3.03,2.07,-2.07,-1.70,-5.09,-5.09,-5.09
568,-2.97,2.10,-2.97,2.10,-2.10,-1.67,-5.07,-5.07,-5.07
573,-2.91,2.13,-2.91,2.14,-2.14,-1.65,-5.04,-5.04,-5.04
579,-2.85,2.16,-2.84,2.17,-2.17,-1.62,-5.02,-5.01,-5.01
585,-2.77,2.21,-2.77,2.21,-2.21,-1.60,-4.98,-4.98,-4.98
591,-2.70,2.26,-2.70,2.25,-2.25,-1.57,-4.95,-4.95,-4.95
596,-2.64,2.29,-2.63,2.29,-2.29,-1.55,-4.93,-4.92,-4.92
602,-2.57,2.32,-2.56,2.34,-2.34,-1.53,-4.91,-4.89,-4.89
608,-2.49,2.37,-2.48,2.38,-2.38,-1.50,-4.87,-4.86,-4.86
615,-2.40,2.43,-2.41,2.42,-2.42,-1.47,-4.82,-4.83,-4.83
621,-2.33,2.47,-2.33,2.47,-2.47,-1.45,-4.80,-4.80,-4.80
627,-2.26,2.51,-2.25,2.51,-2.51,-1.43,-4.77,-4.77,-4.77
633,-2.19,2.54,-2.18,2.55,-2.55,-1.41,-4.74,-4.73,-4.73
639,-2.12,2.58,-2.10,2.59,-2.59,-1.39,-4.71,-4.70,-4.70
646,-2.04,2.62,-2.03,2.63,-2.63,-1.37,-4.67,-4.66,-4.66
652,-1.97,2.66,-1.96,2.67,-2.67,-1.35,-4.64,-4.63,-4.63
659,-1.90,2.69,-1.89,2.70,-2.70,-1.33,-4.60,-4.59,-4.59
665,-1.85,2.71,-1.83,2.73,-2.73,-1.31,-4.58,-4.56,-4.56
672,-1.79,2.73,-1.77,2.75,-2.75,-1.29,-4.54,-4.52,-4.52
679,-1.74,2.74,-1.72,2.77,-2.77,-1.28,-4.51,-4.48,-4.48
686,-1.70,2.75,-1.67,2.77,-2.77,-1.26,-4.47,-4.45,-4.45
692,-1.68,2.73,-1.65,2.76,-2.76,-1.25,-4.44,-4.41,-4.41
699,-1.67,2.70,-1.64,2.73,-2.73,-1.24,-4.40,-4.37,-4.37
706,-1.68,2.65,-1.65,2.68,-2.68,-1.23,-4.36,-4.33,-4.33
713,-1.71,2.59,-1.69,2.61,-2.61,-1.22,-4.31,-4.30,-4.30
721,-1.78,2.48,-1.76,2.50,-2.50,-1.21,-4.27,-4.26,-4.26
728,-1.84,2.38,-1.87,2.35,-2.35,-1.20,-4.19,-4.22,-4.22
735,-1.95,2.23,-2.02,2.16,-2.16,-1.19,-4.11,-4.18,-4.18
742,-2.08,2.06,-2.22,1.93,-1.93,-1.18,-4.01,-4.14,-4.14
750,-2.28,1.83,-2.45,1.65,-1.65,-1.18,-3.93,-4.11,-4.11
757,-2.52,1.55,-2.74,1.33,-1.33,-1.17,-3.85,-4.07,-4.07
765,-2.85,1.18,-3.06,0.97,-0.97,-1.17,-3.82,-4.03,-4.03
773,-3.23,0.77,-3.42,0.57,-0.57,-1.17,-3.80,-4.00,-3.99
780,-3.63,0.33,-3.80,0.16,-0.16,-1.16,-3.78,-3.96,-3.96
788,-4.09,-0.17,-4.20,-0.28,0.28,-1.16,-3.81,-3.92,-3.92
796,-4.58,-0.69,-4.60,-0.71,0.71,-1.16,-3.87,-3.89,-3.89
804,-5.07,-1.22,-4.98,-1.13,1.13,-1.16,-3.94,-3.85,-3.85
812,-5.48,-1.66,-5.34,-1.52,1.52,-1.16,-3.96,-3.82,-3.82
820,-5.85,-2.06,-5.66,-1.87,1.87,-1.15,-3.98,-3.79,-3.79
828,-6.12,-2.37,-5.92,-2.16,2.16,-1.15,-3.95,-3.75,-3.75
837,-6.29,-2.57,-6.11,-2.39,2.39,-1.15,-3.90,-3.72,-3.72
845,-6.37,-2.68,-6.23,-2.54,2.54,-1.15,-3.83,-3.69,-3.69
853,-6.36,-2.70,-6.26,-2.60,2.60,-1.14,-3.76,-3.66,-3.66
862,-6.28,-2.65,-6.20,-2.57,2.57,-1.14,-3.71,-3.63,-3.63
871,-6.14,-2.54,-6.05,-2.45,2.45,-1.14,-3.69,-3.60,-3.60
879,-5.99,-2.42,-5.82,-2.25,2.25,-1.13,-3.74,-3.57,-3.57
888,-5.70,-2.16,-5.50,-1.96,1.96,-1.12,-3.74,-3.54,-3.54
897,-5.33,-1.82,-5.11,-1.60,1.60,-1.11,-3.73,-3.51,-3.51
906,-4.88,-1.39,-4.66,-1.17,1.17,-1.10,-3.71,-3.49,-3.49
915,-4.32,-0.86,-4.16,-0.70,0.70,-1.09,-3.62,-3.46,-3.46
924,-3.72,-0.29,-3.63,-0.20,0.20,-1.07,-3.52,-3.43,-3.43
933,-3.10,0.31,-3.08,0.32,-0.32,-1.05,-3.42,-3.40,-3.40
943,-2.41,0.97,-2.54,0.84,-0.84,-1.03,-3.25,-3.38,-3.38
952,-1.85,1.50,-2.01,1.34,-1.34,-1.01,-3.18,-3.35,-3.35
962,-1.29,2.04,-1.53,1.79,-1.79,-0.98,-3.08,-3.32,-3.32
971,-0.85,2.45,-1.10,2.20,-2.20,-0.95,-3.05,-3.30,-3.30
981,-0.48,2.79,-0.73,2.54,-2.54,-0.91,-3.02,-3.27,-3.27
991,-0.19,3.06,-0.43,2.82,-2.82,-0.87,-3.01,-3.24,-3.24
1001,0.02,3.24,-0.20,3.02,-3.02,-0.83,-3.00,-3.22,-3.22
1011,0.12,3.31,-0.05,3.14,-3.14,-0.78,-3.02,-3.19,-3.19
1021,0.16,3.32,0.03,3.19,-3.19,-0.74,-3.03,-3.16,-3.16
1031,0.14,3.28,0.04,3.18,-3.18,-0.68,-3.04,-3.14,-3.14
1041,0.03,3.14,-0.00,3.10,-3.10,-0.63,-3.07,-3.11,-3.11
1052,-0.12,2.96,-0.10,2.98,-2.98,-0.57,-3.10,-3.08,-3.08
1062,-0.30,2.75,-0.23,2.82,-2.82,-0.50,-3.12,-3.05,-3.05
1073,-0.52,2.50,-0.39,2.64,-2.64,-0.43,-3.16,-3.02,-3.02
1084,-0.74,2.25,-0.56,2.43,-2.43,-0.36,-3.17,-2.99,-2.99
1094,-0.93,2.04,-0.76,2.21,-2.21,-0.29,-3.14,-2.96,-2.96
1105,-1.11,1.83,-0.95,1.98,-1.98,-0.22,-3.09,-2.93,-2.93
1116,-1.25,1.66,-1.15,1.75,-1.75,-0.14,-3.00,-2.90,-2.90
1128,-1.39,1.49,-1.36,1.52,-1.52,-0.05,-2.91,-2.87,-2.87
1139,-1.52,1.32,-1.56,1.28,-1.28,0.04,-2.80,-2.84,-2.84
1150,-1.69,1.12,-1.77,1.05,-1.05,0.12,-2.74,-2.81,-2.81
1162,-1.89,0.89,-1.97,0.81,-0.81,0.22,-2.70,-2.78,-2.78
1173,-2.11,0.64,-2.18,0.57,-0.57,0.31,-2.68,-2.75,-2.75
1185,-2.36,0.36,-2.39,0.33,-0.33,0.41,-2.69,-2.72,-2.72
1197,-2.60,0.09,-2.61,0.08,-0.08,0.50,-2.68,-2.69,-2.69
1209,-2.84,-0.19,-2.82,-0.17,0.17,0.60,-2.67,-2.65,-2.65
1221,-3.06,-0.44,-3.04,-0.42,0.42,0.71,-2.64,-2.62,-2.62
1233,-3.28,-0.69,-3.26,-0.67,0.67,0.81,-2.61,-2.59,-2.59
1246,-3.51,-0.96,-3.48,-0.92,0.92,0.92,-2.59,-2.55,-2.55
1258,-3.72,-1.20,-3.69,-1.17,1.17,1.02,-2.55,-2.52,-2.52
1271,-3.93,-1.44,-3.90,-1.41,1.41,1.14,-2.52,-2.49,-2.49
1283,-4.11,-1.66,-4.10,-1.65,1.65,1.24,-2.46,-2.45,-2.45
1296,-4.31,-1.89,-4.30,-1.88,1.88,1.36,-2.43,-2.42,-2.42
1309,-4.50,-2.12,-4.49,-2.11,2.11,1.47,-2.39,-2.38,-2.38
1322,-4.69,-2.34,-4.67,-2.33,2.33,1.59,-2.36,-2.34,-2.34
1335,-4.87,-2.56,-4.85,-2.55,2.55,1.70,-2.32,-2.31,-2.31
1349,-5.05,-2.78,-5.03,-2.76,2.76,1.83,-2.29,-2.27,-2.27
1362,-5.22,-2.98,-5.21,-2.98,2.98,1.95,-2.24,-2.23,-2.23
1376,-5.39,-3.19,-5.39,-3.19,3.19,2.07,-2.20,-2.20,-2.20
1390,-5.54,-3.38,-5.57,-3.41,3.41,2.20,-2.13,-2.16,-2.16
1404,-5.70,-3.58,-5.76,-3.63,3.63,2.33,-2.07,-2.12,-2.12
1418,-5.84,-3.76,-5.94,-3.86,3.86,2.46,-1.98,-2.08,-2.08
1432,-5.97,-3.92,-6.12,-4.07,4.07,2.59,-1.89,-2.04,-2.04
1446,-6.13,-4.12,-6.29,-4.29,4.29,2.72,-1.84,-2.01,-2.01
1461,-6.31,-4.34,-6.45,-4.48,4.48,2.86,-1.82,-1.97,-1.97
1475,-6.50,-4.57,-6.59,-4.66,4.66,2.99,-1.84,-1.93,-1.93
1490,-6.71,-4.82,-6.70,-4.81,4.81,3.13,-1.90,-1.89,-1.89
1505,-6.92,-5.07,-6.78,-4.93,4.93,3.27,-1.99,-1.84,-1.84
1520,-7.09,-5.29,-6.82,-5.01,5.01,3.41,-2.08,-1.80,-1.80
1535,-7.16,-5.40,-6.81,-5.05,5.05,3.56,-2.11,-1.76,-1.76
1550,-7.14,-5.42,-6.77,-5.05,5.05,3.70,-2.09,-1.72,-1.72
1566,-7.00,-5.32,-6.69,-5.01,5.01,3.85,-1.99,-1.68,-1.68
1582,-6.71,-5.07,-6.57,-4.94,4.94,4.00,-1.77,-1.64,-1.63
