frequency,raw
20.00,-8.79
20.20,-8.65
20.40,-8.52
20.61,-8.38
20.81,-8.24
21.02,-8.11
21.23,-7.97
21.44,-7.83
21.66,-7.70
21.87,-7.56
22.09,-7.42
22.31,-7.28
22.54,-7.14
22.76,-7.01
22.99,-6.87
23.22,-6.73
23.45,-6.60
23.69,-6.46
23.92,-6.32
24.16,-6.19
24.40,-6.05
24.65,-5.91
24.89,-5.78
25.14,-5.64
25.39,-5.51
25.65,-5.37
25.91,-5.24
26.16,-5.11
26.43,-4.97
26.69,-4.84
26.96,-4.71
27.23,-4.58
27.50,-4.45
27.77,-4.32
28.05,-4.20
28.33,-4.07
28.62,-3.95
28.90,-3.82
29.19,-3.70
29.48,-3.58
29.78,-3.45
30.08,-3.33
30.38,-3.23
30.68,-3.13
30.99,-3.02
31.30,-2.92
31.61,-2.81
31.93,-2.70
32.24,-2.60
32.57,-2.50
32.89,-2.40
33.22,-2.30
33.55,-2.21
33.89,-2.11
34.23,-2.02
34.57,-1.92
34.92,-1.82
35.27,-1.73
35.62,-1.64
35.97,-1.55
36.33,-1.46
36.70,-1.36
37.06,-1.27
37.43,-1.18
37.81,-1.10
38.19,-1.00
38.57,-0.91
38.95,-0.82
39.34,-0.73
39.74,-0.65
40.14,-0.56
40.54,-0.48
40.94,-0.39
41.35,-0.31
41.76,-0.23
42.18,-0.14
42.60,-0.05
43.03,0.04
43.46,0.12
43.90,0.21
44.33,0.30
44.78,0.39
45.23,0.47
45.68,0.54
46.13,0.61
46.60,0.69
47.06,0.76
47.53,0.83
48.01,0.90
48.49,0.96
48.97,1.03
49.46,1.07
49.96,1.12
50.46,1.15
50.96,1.19
51.47,1.22
51.99,1.25
52.51,1.26
53.03,1.27
53.56,1.28
54.10,1.28
54.64,1.27
55.18,1.26
55.74,1.23
56.29,1.20
56.86,1.17
57.42,1.13
58.00,1.08
58.58,1.05
59.16,1.01
59.76,0.96
60.35,0.92
60.96,0.89
61.57,0.87
62.18,0.84
62.80,0.83
63.43,0.82
64.07,0.81
64.71,0.82
65.35,0.84
66.01,0.86
66.67,0.91
67.33,0.95
68.01,1.00
68.69,1.06
69.37,1.12
70.07,1.20
70.77,1.28
71.48,1.37
72.19,1.47
72.91,1.56
73.64,1.64
74.38,1.73
75.12,1.81
75.87,1.89
76.63,1.96
77.40,2.04
78.17,2.12
78.95,2.19
79.74,2.26
80.54,2.33
81.35,2.41
82.16,2.47
82.98,2.53
83.81,2.59
84.65,2.64
85.50,2.69
86.35,2.74
87.22,2.79
88.09,2.85
88.97,2.91
89.86,2.96
90.76,3.02
91.66,3.06
92.58,3.09
93.51,3.12
94.44,3.14
95.39,3.17
96.34,3.20
97.30,3.22
98.28,3.26
99.26,3.30
100.25,3.34
101.25,3.37
102.27,3.39
103.29,3.40
104.32,3.42
105.37,3.45
106.42,3.49
107.48,3.52
108.56,3.54
109.64,3.56
110.74,3.57
111.85,3.58
112.97,3.59
114.10,3.60
115.24,3.61
116.39,3.62
117.55,3.65
118.73,3.69
119.92,3.73
121.12,3.76
122.33,3.79
123.55,3.82
124.79,3.85
126.03,3.88
127.29,3.89
128.57,3.91
129.85,3.93
131.15,3.93
132.46,3.92
133.79,3.91
135.12,3.90
136.48,3.90
137.84,3.92
139.22,3.93
140.61,3.93
142.02,3.92
143.44,3.91
144.87,3.89
146.32,3.88
147.78,3.86
149.26,3.84
150.75,3.81
152.26,3.77
153.78,3.72
155.32,3.68
156.88,3.61
158.44,3.55
160.03,3.46
161.63,3.39
163.24,3.33
164.88,3.22
166.53,3.14
168.19,3.07
169.87,2.94
171.57,2.84
173.29,2.73
175.02,2.53
176.77,2.40
178.54,2.27
180.32,2.13
182.13,1.98
183.95,1.76
185.79,1.59
187.65,1.42
189.52,1.25
191.42,1.07
193.33,0.86
195.27,0.66
197.22,0.47
199.19,0.28
201.18,0.09
203.19,-0.10
205.23,-0.30
207.28,-0.50
209.35,-0.70
211.44,-0.90
213.56,-1.10
215.69,-1.28
217.85,-1.44
220.03,-1.55
222.23,-1.70
224.45,-1.86
226.70,-2.01
228.96,-2.16
231.25,-2.27
233.57,-2.40
235.90,-2.54
238.26,-2.63
240.64,-2.74
243.05,-2.83
245.48,-2.93
247.93,-3.06
250.41,-3.14
252.92,-3.26
255.45,-3.33
258.00,-3.41
260.58,-3.50
263.19,-3.56
265.82,-3.64
268.48,-3.71
271.16,-3.76
273.87,-3.81
276.61,-3.84
279.38,-3.86
282.17,-3.88
284.99,-3.89
287.84,-3.90
290.72,-3.90
293.63,-3.90
296.57,-3.89
299.53,-3.88
302.53,-3.88
305.55,-3.88
308.61,-3.88
311.69,-3.88
314.81,-3.88
317.96,-3.88
321.14,-3.88
324.35,-3.88
327.59,-3.88
330.87,-3.88
334.18,-3.88
337.52,-3.88
340.90,-3.88
344.30,-3.88
347.75,-3.88
351.23,-3.88
354.74,-3.88
358.28,-3.88
361.87,-3.88
365.49,-3.89
369.14,-3.90
372.83,-3.91
376.56,-3.91
380.33,-3.91
384.13,-3.91
387.97,-3.90
391.85,-3.87
395.77,-3.83
399.73,-3.78
403.72,-3.71
407.76,-3.61
411.84,-3.50
415.96,-3.39
420.12,-3.26
424.32,-3.11
428.56,-2.98
432.85,-2.82
437.18,-2.64
441.55,-2.49
445.96,-2.31
450.42,-2.13
454.93,-1.98
459.48,-1.81
464.07,-1.66
468.71,-1.52
473.40,-1.35
478.13,-1.21
482.91,-1.08
487.74,-0.96
492.62,-0.84
497.55,-0.73
502.52,-0.65
507.55,-0.58
512.62,-0.52
517.75,-0.45
522.93,-0.38
528.16,-0.32
533.44,-0.27
538.77,-0.22
544.16,-0.18
549.60,-0.15
555.10,-0.11
560.65,-0.08
566.25,-0.06
571.92,-0.03
577.64,-0.01
583.41,0.01
589.25,0.03
595.14,0.04
601.09,0.03
607.10,0.02
613.17,0.02
619.30,0.01
625.50,0.01
631.75,0.01
638.07,0.01
644.45,0.01
650.89,0.01
657.40,0.01
663.98,0.01
670.62,0.01
677.32,0.01
684.10,0.01
690.94,0.01
697.85,0.01
704.83,0.01
711.87,0.01
718.99,0.01
726.18,0.01
733.44,0.01
740.78,0.01
748.19,0.01
755.67,0.00
763.23,-0.01
770.86,-0.01
778.57,-0.01
786.35,0.01
794.22,0.02
802.16,0.04
810.18,0.07
818.28,0.11
826.46,0.15
834.73,0.18
843.08,0.21
851.51,0.23
860.02,0.24
868.62,0.24
877.31,0.24
886.08,0.22
894.94,0.20
903.89,0.18
912.93,0.14
922.06,0.10
931.28,0.07
940.59,0.04
950.00,0.02
959.50,0.01
969.09,0.01
978.78,0.01
988.57,0.01
998.46,0.00
1008.44,-0.01
1018.53,-0.04
1028.71,-0.07
1039.00,-0.10
1049.39,-0.14
1059.88,-0.17
1070.48,-0.19
1081.19,-0.21
1092.00,-0.24
1102.92,-0.27
1113.95,-0.30
1125.09,-0.33
1136.34,-0.36
1147.70,-0.38
1159.18,-0.40
1170.77,-0.43
1182.48,-0.47
1194.30,-0.51
1206.25,-0.57
1218.31,-0.63
1230.49,-0.69
1242.80,-0.75
1255.22,-0.83
1267.78,-0.91
1280.45,-0.99
1293.26,-1.06
1306.19,-1.12
1319.25,-1.20
1332.45,-1.28
1345.77,-1.37
1359.23,-1.45
1372.82,-1.53
1386.55,-1.63
1400.41,-1.72
1414.42,-1.82
1428.56,-1.92
1442.85,-2.02
1457.28,-2.12
1471.85,-2.22
1486.57,-2.30
1501.43,-2.39
1516.45,-2.49
1531.61,-2.60
1546.93,-2.69
1562.40,-2.77
1578.02,-2.85
1593.80,-2.92
1609.74,-2.97
1625.84,-3.03
1642.10,-3.08
1658.52,-3.13
1675.10,-3.19
1691.85,-3.24
1708.77,-3.29
1725.86,-3.33
1743.12,-3.37
1760.55,-3.41
1778.15,-3.45
1795.94,-3.48
1813.90,-3.51
1832.03,-3.53
1850.36,-3.54
1868.86,-3.55
1887.55,-3.54
1906.42,-3.52
1925.49,-3.50
1944.74,-3.44
1964.19,-3.38
1983.83,-3.32
2003.67,-3.26
2023.71,-3.19
2043.94,-3.11
2064.38,-3.00
2085.03,-2.90
2105.88,-2.78
2126.94,-2.65
2148.20,-2.51
2169.69,-2.37
2191.38,-2.22
2213.30,-2.05
2235.43,-1.87
2257.78,-1.69
2280.36,-1.50
2303.17,-1.30
2326.20,-1.10
2349.46,-0.91
2372.95,-0.68
2396.68,-0.47
2420.65,-0.26
2444.86,-0.05
2469.31,0.15
2494.00,0.36
2518.94,0.57
2544.13,0.77
2569.57,0.98
2595.27,1.17
2621.22,1.33
2647.43,1.48
2673.90,1.63
2700.64,1.77
2727.65,1.90
2754.93,2.02
2782.48,2.13
2810.30,2.23
2838.40,2.31
2866.79,2.38
2895.46,2.44
2924.41,2.49
2953.65,2.52
2983.19,2.55
3013.02,2.59
3043.15,2.62
3073.58,2.65
3104.32,2.68
3135.36,2.72
3166.72,2.76
3198.38,2.80
3230.37,2.83
3262.67,2.89
3295.30,2.95
3328.25,3.01
3361.53,3.08
3395.15,3.15
3429.10,3.21
3463.39,3.27
3498.03,3.33
3533.01,3.39
3568.34,3.45
3604.02,3.52
3640.06,3.59
3676.46,3.65
3713.22,3.70
3750.36,3.75
3787.86,3.79
3825.74,3.83
3864.00,3.86
3902.64,3.88
3941.66,3.90
3981.08,3.91
4020.89,3.93
4061.10,3.93
4101.71,3.93
4142.73,3.91
4184.15,3.90
4226.00,3.90
4268.26,3.90
4310.94,3.90
4354.05,3.90
4397.59,3.90
4441.56,3.90
4485.98,3.90
4530.84,3.90
4576.15,3.90
4621.91,3.90
4668.13,3.90
4714.81,3.90
4761.96,3.90
4809.58,3.90
4857.67,3.90
4906.25,3.90
4955.31,3.90
5004.87,3.90
5054.91,3.90
5105.46,3.90
5156.52,3.90
5208.08,3.90
5260.16,3.89
5312.77,3.88
5365.89,3.88
5419.55,3.89
5473.75,3.90
5528.49,3.91
5583.77,3.92
5639.61,3.94
5696.00,3.97
5752.96,4.01
5810.49,4.05
5868.60,4.10
5927.28,4.16
5986.56,4.23
6046.42,4.29
6106.89,4.37
6167.96,4.46
6229.64,4.55
6291.93,4.65
6354.85,4.74
6418.40,4.81
6482.58,4.88
6547.41,4.93
6612.88,4.97
6679.01,5.00
6745.80,5.02
6813.26,5.02
6881.39,5.02
6950.21,5.03
7019.71,5.04
7089.91,5.05
7160.81,5.07
7232.41,5.11
7304.74,5.17
7377.79,5.26
7451.56,5.37
7526.08,5.50
7601.34,5.64
7677.35,5.80
7754.13,5.96
7831.67,6.11
7909.98,6.26
7989.08,6.40
8068.98,6.54
8149.67,6.67
8231.16,6.78
8313.47,6.87
8396.61,6.95
8480.57,7.02
8565.38,7.09
8651.03,7.13
8737.54,7.17
8824.92,7.21
8913.17,7.24
9002.30,7.24
9092.32,7.22
9183.25,7.19
9275.08,7.13
9367.83,7.04
9461.51,6.94
9556.12,6.83
9651.68,6.68
9748.20,6.52
9845.68,6.33
9944.14,6.12
10043.58,5.90
10144.02,5.66
10245.46,5.42
10347.91,5.18
10451.39,4.93
10555.91,4.68
10661.46,4.44
10768.08,4.21
10875.76,3.98
10984.52,3.77
11094.36,3.58
11205.31,3.41
11317.36,3.25
11430.53,3.12
11544.84,3.03
11660.29,2.96
11776.89,2.93
11894.66,2.92
12013.60,2.94
12133.74,2.97
12255.08,3.02
12377.63,3.07
12501.41,3.12
12626.42,3.16
12752.68,3.21
12880.21,3.25
13009.01,3.30
13139.10,3.35
13270.49,3.38
13403.20,3.38
13537.23,3.35
13672.60,3.28
13809.33,3.18
13947.42,3.04
14086.90,2.85
14227.77,2.58
14370.04,2.26
14513.74,1.89
14658.88,1.46
14805.47,1.01
14953.52,0.55
15103.06,0.10
15254.09,-0.33
15406.63,-0.73
15560.70,-1.08
15716.30,-1.39
15873.47,-1.64
16032.20,-1.86
16192.52,-2.03
16354.45,-2.16
16517.99,-2.26
16683.17,-2.33
16850.01,-2.40
17018.51,-2.47
17188.69,-2.57
17360.58,-2.68
17534.18,-2.80
17709.53,-2.95
17886.62,-3.10
18065.49,-3.25
18246.14,-3.42
18428.60,-3.60
18612.89,-3.80
18799.02,-4.01
18987.01,-4.23
19176.88,-4.46
19368.65,-4.70
19562.33,-4.95
19757.96,-5.22
19955.54,-5.50
