frequency,raw
20,-2.40
21,-2.33
22,-2.26
23,-2.19
24,-2.12
25,-2.06
26,-2.00
27,-1.95
28,-1.90
29,-1.85
30,-1.81
31,-1.79
32,-1.78
33,-1.78
34,-1.76
35,-1.74
36,-1.69
37,-1.63
38,-1.54
39,-1.44
40,-1.33
41,-1.20
42,-1.05
43,-0.89
44,-0.74
45,-0.59
46,-0.45
47,-0.32
48,-0.20
49,-0.08
50,0.03
51,0.12
52,0.21
53,0.26
54,0.31
55,0.35
56,0.40
57,0.43
58,0.48
59,0.52
60,0.55
61,0.59
62,0.63
63,0.67
64,0.69
65,0.72
66,0.74
67,0.77
68,0.80
69,0.82
70,0.83
71,0.83
72,0.83
73,0.82
74,0.81
75,0.81
76,0.81
77,0.81
78,0.81
79,0.81
80,0.81
81,0.81
82,0.81
83,0.81
84,0.81
85,0.81
86,0.81
87,0.80
88,0.79
89,0.79
90,0.79
91,0.80
92,0.82
93,0.84
94,0.87
95,0.90
96,0.93
97,0.97
98,1.00
99,1.04
100,1.07
101,1.10
102,1.12
104,1.14
105,1.15
106,1.16
107,1.15
108,1.14
109,1.14
110,1.13
111,1.13
112,1.13
113,1.13
114,1.13
115,1.13
117,1.13
118,1.13
119,1.13
120,1.13
121,1.13
123,1.13
124,1.13
125,1.13
126,1.13
128,1.13
129,1.13
130,1.13
131,1.13
133,1.13
134,1.13
135,1.13
137,1.13
138,1.13
140,1.13
141,1.13
142,1.13
144,1.13
145,1.13
147,1.13
148,1.13
150,1.13
151,1.13
153,1.13
154,1.13
156,1.13
157,1.13
159,1.13
160,1.13
162,1.13
164,1.13
165,1.13
167,1.14
169,1.15
170,1.16
172,1.16
174,1.15
175,1.13
177,1.11
179,1.09
181,1.06
183,1.02
184,1.00
186,0.97
188,0.94
190,0.91
192,0.87
194,0.83
196,0.79
198,0.75
200,0.71
202,0.67
204,0.65
206,0.62
208,0.59
210,0.56
212,0.53
214,0.51
216,0.49
218,0.47
221,0.46
223,0.46
225,0.47
227,0.48
229,0.48
232,0.48
234,0.48
236,0.48
239,0.48
241,0.48
244,0.48
246,0.48
248,0.48
251,0.48
253,0.48
256,0.48
259,0.48
261,0.48
264,0.48
266,0.48
269,0.48
272,0.48
274,0.48
277,0.48
280,0.48
283,0.48
286,0.48
288,0.48
291,0.48
294,0.49
297,0.49
300,0.50
303,0.51
306,0.51
309,0.50
312,0.48
316,0.46
319,0.44
322,0.41
325,0.39
328,0.35
332,0.31
335,0.26
338,0.20
342,0.15
345,0.09
349,0.04
352,-0.01
356,-0.05
359,-0.08
363,-0.10
366,-0.12
370,-0.15
374,-0.17
377,-0.20
381,-0.21
385,-0.21
389,-0.19
393,-0.16
397,-0.13
401,-0.11
405,-0.08
409,-0.04
413,-0.01
417,0.02
421,0.06
425,0.09
430,0.12
434,0.16
438,0.18
443,0.20
447,0.20
451,0.19
456,0.17
460,0.15
465,0.12
470,0.08
474,0.03
479,-0.01
484,-0.06
489,-0.12
494,-0.19
499,-0.26
504,-0.34
509,-0.42
514,-0.49
519,-0.55
524,-0.62
529,-0.68
535,-0.73
540,-0.77
545,-0.79
551,-0.79
556,-0.79
562,-0.79
568,-0.77
573,-0.74
579,-0.70
585,-0.64
591,-0.57
596,-0.51
602,-0.44
608,-0.36
615,-0.28
621,-0.18
627,-0.09
633,-0.01
639,0.07
646,0.14
652,0.21
659,0.28
665,0.35
672,0.41
679,0.46
686,0.50
692,0.55
699,0.59
706,0.63
713,0.67
721,0.70
728,0.73
735,0.75
742,0.79
750,0.81
757,0.82
765,0.82
773,0.81
780,0.78
788,0.74
796,0.70
804,0.66
812,0.63
820,0.59
828,0.56
837,0.53
845,0.51
853,0.49
862,0.49
871,0.49
879,0.49
888,0.48
897,0.47
906,0.46
915,0.45
924,0.42
933,0.39
943,0.34
952,0.30
962,0.25
971,0.20
981,0.14
991,0.07
1001,-0.01
1011,-0.09
1021,-0.17
1031,-0.24
1041,-0.32
1052,-0.40
1062,-0.49
1073,-0.58
1084,-0.68
1094,-0.77
1105,-0.84
1116,-0.93
1128,-1.02
1139,-1.11
1150,-1.19
1162,-1.28
1173,-1.38
1185,-1.47
1197,-1.55
1209,-1.65
1221,-1.75
1233,-1.85
1246,-1.93
1258,-2.02
1271,-2.10
1283,-2.16
1296,-2.22
1309,-2.28
1322,-2.34
1335,-2.38
1349,-2.42
1362,-2.46
1376,-2.50
1390,-2.55
1404,-2.61
1418,-2.65
1432,-2.71
1446,-2.77
1461,-2.84
1475,-2.92
1490,-3.00
1505,-3.09
1520,-3.19
1535,-3.31
1550,-3.43
1566,-3.57
1582,-3.71
1597,-3.86
1613,-4.02
1629,-4.18
1646,-4.36
1662,-4.56
1679,-4.75
1696,-4.95
1713,-5.13
1730,-5.30
1747,-5.46
1764,-5.61
1782,-5.74
1800,-5.84
1818,-5.92
1836,-5.99
1854,-6.04
1873,-6.06
1892,-6.06
1911,-6.02
1930,-5.96
1949,-5.89
1969,-5.81
1988,-5.71
2008,-5.61
2028,-5.51
2048,-5.40
2069,-5.29
2090,-5.18
2111,-5.06
2132,-4.95
2153,-4.86
2175,-4.79
2196,-4.71
2218,-4.64
2240,-4.58
2263,-4.53
2285,-4.48
2308,-4.44
2331,-4.38
2355,-4.30
2378,-4.23
2402,-4.14
2426,-4.04
2450,-3.93
2475,-3.82
2500,-3.68
2525,-3.53
2550,-3.36
2575,-3.16
2601,-2.96
2627,-2.74
2653,-2.51
2680,-2.26
2707,-2.01
2734,-1.77
2761,-1.54
2789,-1.29
2817,-1.05
2845,-0.82
2873,-0.59
2902,-0.38
2931,-0.19
2960,-0.01
2990,0.15
3020,0.29
3050,0.42
3080,0.52
3111,0.60
3142,0.68
3174,0.75
3206,0.80
3238,0.84
3270,0.86
3303,0.86
3336,0.85
3369,0.82
3403,0.79
3437,0.75
3471,0.69
3506,0.63
3541,0.57
3576,0.49
3612,0.41
3648,0.31
3685,0.20
3721,0.09
3759,-0.03
3796,-0.15
3834,-0.26
3873,-0.36
3911,-0.46
3950,-0.56
3990,-0.64
4030,-0.70
4070,-0.77
4111,-0.82
4152,-0.85
4193,-0.87
4235,-0.88
4278,-0.86
4321,-0.83
4364,-0.77
4407,-0.69
4451,-0.62
4496,-0.53
4541,-0.42
4586,-0.29
4632,-0.14
4679,0.02
4725,0.20
4773,0.38
4820,0.56
4868,0.74
4917,0.91
4966,1.09
5016,1.26
5066,1.41
5117,1.55
5168,1.68
5220,1.79
5272,1.89
5325,1.98
5378,2.05
5432,2.09
5486,2.13
5541,2.15
5596,2.16
5652,2.14
5709,2.09
5766,2.04
5823,1.97
5882,1.88
5940,1.77
6000,1.65
6060,1.51
6120,1.36
6182,1.20
6244,1.02
6306,0.85
6369,0.69
6433,0.53
6497,0.39
6562,0.25
6628,0.12
6694,-0.01
6761,-0.14
6828,-0.27
6897,-0.39
6966,-0.49
7035,-0.59
7106,-0.68
7177,-0.77
7249,-0.86
7321,-0.96
7394,-1.07
7468,-1.18
7543,-1.28
7618,-1.38
7694,-1.49
7771,-1.62
7849,-1.75
7928,-1.89
8007,-2.05
8087,-2.24
8168,-2.45
8250,-2.69
8332,-2.94
8415,-3.22
8499,-3.54
8584,-3.89
8670,-4.26
8757,-4.67
8845,-5.09
8933,-5.53
9022,-5.96
9113,-6.37
9204,-6.75
9296,-7.10
9389,-7.40
9483,-7.63
9577,-7.78
9673,-7.86
9770,-7.86
9868,-7.78
9966,-7.63
10066,-7.41
10167,-7.13
10268,-6.81
10371,-6.47
10475,-6.10
10579,-5.71
10685,-5.30
10792,-4.87
10900,-4.45
11009,-4.03
11119,-3.60
11230,-3.19
11343,-2.80
11456,-2.43
11571,-2.08
11686,-1.77
11803,-1.48
11921,-1.24
12040,-1.05
12161,-0.90
12282,-0.80
12405,-0.75
12529,-0.76
12655,-0.82
12781,-0.91
12909,-1.01
13038,-1.15
13168,-1.30
13300,-1.49
13433,-1.72
13567,-1.97
13703,-2.28
13840,-2.66
13978,-3.12
14118,-3.69
14259,-4.33
14402,-5.06
14546,-5.86
14692,-6.68
14838,-7.51
14987,-8.32
15137,-9.06
15288,-9.73
15441,-10.29
15595,-10.72
15751,-11.02
15909,-11.20
16068,-11.26
16229,-11.20
16391,-11.05
16555,-10.83
16720,-10.57
16888,-10.31
17056,-10.09
17227,-9.91
17399,-9.77
17573,-9.66
17749,-9.61
17926,-9.60
18106,-9.62
18287,-9.64
18470,-9.70
18654,-9.78
18841,-9.89
19029,-10.02
19220,-10.18
19412,-10.36
19606,-10.57
19802,-10.81
20000,-11.07
