frequency,raw
20.00,-34.01
20.20,-33.69
20.40,-33.37
20.61,-33.07
20.81,-32.74
21.02,-32.42
21.23,-32.09
21.44,-31.77
21.66,-31.44
21.87,-31.11
22.09,-30.79
22.31,-30.46
22.54,-30.13
22.76,-29.80
22.99,-29.47
23.22,-29.13
23.45,-28.80
23.69,-28.48
23.92,-28.14
24.16,-27.80
24.40,-27.46
24.65,-27.13
24.89,-26.78
25.14,-26.46
25.39,-26.11
25.65,-25.78
25.91,-25.45
26.16,-25.09
26.43,-24.77
26.69,-24.42
26.96,-24.08
27.23,-23.75
27.50,-23.41
27.77,-23.07
28.05,-22.73
28.33,-22.39
28.62,-22.06
28.90,-21.72
29.19,-21.38
29.48,-21.04
29.78,-20.70
30.08,-20.37
30.38,-20.00
30.68,-19.63
30.99,-19.27
31.30,-18.92
31.61,-18.58
31.93,-18.24
32.24,-17.90
32.57,-17.57
32.89,-17.24
33.22,-16.92
33.55,-16.61
33.89,-16.29
34.23,-15.99
34.57,-15.70
34.92,-15.41
35.27,-15.13
35.62,-14.84
35.97,-14.56
36.33,-14.29
36.70,-14.01
37.06,-13.74
37.43,-13.48
37.81,-13.21
38.19,-12.95
38.57,-12.69
38.95,-12.42
39.34,-12.15
39.74,-11.89
40.14,-11.62
40.54,-11.35
40.94,-11.09
41.35,-10.82
41.76,-10.54
42.18,-10.27
42.60,-9.99
43.03,-9.71
43.46,-9.43
43.90,-9.15
44.33,-8.86
44.78,-8.58
45.23,-8.29
45.68,-8.00
46.13,-7.70
46.60,-7.41
47.06,-7.12
47.53,-6.83
48.01,-6.54
48.49,-6.24
48.97,-5.94
49.46,-5.63
49.96,-5.33
50.46,-5.02
50.96,-4.70
51.47,-4.39
51.99,-4.08
52.51,-3.77
53.03,-3.46
53.56,-3.15
54.10,-2.84
54.64,-2.53
55.18,-2.22
55.74,-1.91
56.29,-1.59
56.86,-1.27
57.42,-0.95
58.00,-0.62
58.58,-0.29
59.16,0.03
59.76,0.37
60.35,0.71
60.96,1.06
61.57,1.40
62.18,1.74
62.80,2.09
63.43,2.43
64.07,2.77
64.71,3.11
65.35,3.43
66.01,3.75
66.67,4.08
67.33,4.39
68.01,4.70
68.69,5.01
69.37,5.30
70.07,5.59
70.77,5.85
71.48,6.09
72.19,6.33
72.91,6.55
73.64,6.76
74.38,6.96
75.12,7.14
75.87,7.29
76.63,7.44
77.40,7.57
78.17,7.70
78.95,7.81
79.74,7.91
80.54,7.98
81.35,8.04
82.16,8.07
82.98,8.10
83.81,8.11
84.65,8.10
85.50,8.09
86.35,8.07
87.22,8.05
88.09,8.01
88.97,7.96
89.86,7.89
90.76,7.83
91.66,7.76
92.58,7.68
93.51,7.59
94.44,7.50
95.39,7.39
96.34,7.28
97.30,7.14
98.28,7.00
99.26,6.85
100.25,6.69
101.25,6.52
102.27,6.37
103.29,6.28
104.32,6.17
105.37,5.99
106.42,5.81
107.48,5.63
108.56,5.44
109.64,5.25
110.74,5.06
111.85,4.87
112.97,4.69
114.10,4.50
115.24,4.33
116.39,4.23
117.55,4.09
118.73,3.87
119.92,3.67
121.12,3.50
122.33,3.42
123.55,3.29
124.79,3.12
126.03,2.95
127.29,2.87
128.57,2.75
129.85,2.58
131.15,2.44
132.46,2.36
133.79,2.23
135.12,2.08
136.48,2.01
137.84,1.90
139.22,1.81
140.61,1.70
142.02,1.56
143.44,1.50
144.87,1.39
146.32,1.33
147.78,1.25
149.26,1.18
150.75,1.09
152.26,1.03
153.78,0.97
155.32,0.92
156.88,0.85
158.44,0.80
160.03,0.73
161.63,0.68
163.24,0.64
164.88,0.58
166.53,0.54
168.19,0.50
169.87,0.43
171.57,0.37
173.29,0.33
175.02,0.26
176.77,0.22
178.54,0.19
180.32,0.15
182.13,0.11
183.95,0.06
185.79,0.02
187.65,-0.01
189.52,-0.06
191.42,-0.10
193.33,-0.14
195.27,-0.16
197.22,-0.19
199.19,-0.21
201.18,-0.24
203.19,-0.29
205.23,-0.34
207.28,-0.39
209.35,-0.43
211.44,-0.46
213.56,-0.49
215.69,-0.52
217.85,-0.56
220.03,-0.59
222.23,-0.63
224.45,-0.68
226.70,-0.73
228.96,-0.79
231.25,-0.81
233.57,-0.84
235.90,-0.86
238.26,-0.88
240.64,-0.91
243.05,-0.95
245.48,-0.99
247.93,-1.04
250.41,-1.07
252.92,-1.11
255.45,-1.13
258.00,-1.16
260.58,-1.19
263.19,-1.21
265.82,-1.25
268.48,-1.27
271.16,-1.29
273.87,-1.32
276.61,-1.33
279.38,-1.33
282.17,-1.32
284.99,-1.31
287.84,-1.31
290.72,-1.31
293.63,-1.31
296.57,-1.31
299.53,-1.31
302.53,-1.31
305.55,-1.31
308.61,-1.31
311.69,-1.31
314.81,-1.31
317.96,-1.31
321.14,-1.31
324.35,-1.31
327.59,-1.31
330.87,-1.31
334.18,-1.31
337.52,-1.31
340.90,-1.31
344.30,-1.31
347.75,-1.31
351.23,-1.31
354.74,-1.31
358.28,-1.31
361.87,-1.31
365.49,-1.31
369.14,-1.31
372.83,-1.31
376.56,-1.31
380.33,-1.31
384.13,-1.31
387.97,-1.31
391.85,-1.31
395.77,-1.31
399.73,-1.30
403.72,-1.29
407.76,-1.28
411.84,-1.29
415.96,-1.29
420.12,-1.31
424.32,-1.33
428.56,-1.35
432.85,-1.38
437.18,-1.41
441.55,-1.44
445.96,-1.48
450.42,-1.52
454.93,-1.54
459.48,-1.58
464.07,-1.60
468.71,-1.62
473.40,-1.65
478.13,-1.65
482.91,-1.65
487.74,-1.65
492.62,-1.64
497.55,-1.63
502.52,-1.64
507.55,-1.65
512.62,-1.65
517.75,-1.66
522.93,-1.65
528.16,-1.63
533.44,-1.62
538.77,-1.59
544.16,-1.57
549.60,-1.53
555.10,-1.50
560.65,-1.47
566.25,-1.43
571.92,-1.40
577.64,-1.37
583.41,-1.34
589.25,-1.32
595.14,-1.29
601.09,-1.29
607.10,-1.28
613.17,-1.29
619.30,-1.30
625.50,-1.31
631.75,-1.31
638.07,-1.31
644.45,-1.31
650.89,-1.31
657.40,-1.31
663.98,-1.31
670.62,-1.31
677.32,-1.31
684.10,-1.31
690.94,-1.31
697.85,-1.31
704.83,-1.32
711.87,-1.33
718.99,-1.33
726.18,-1.32
733.44,-1.31
740.78,-1.29
748.19,-1.27
755.67,-1.25
763.23,-1.23
770.86,-1.21
778.57,-1.17
786.35,-1.12
794.22,-1.07
802.16,-1.02
810.18,-0.98
818.28,-0.93
826.46,-0.88
834.73,-0.83
843.08,-0.78
851.51,-0.73
860.02,-0.68
868.62,-0.64
877.31,-0.60
886.08,-0.54
894.94,-0.49
903.89,-0.44
912.93,-0.39
922.06,-0.34
931.28,-0.30
940.59,-0.26
950.00,-0.22
959.50,-0.17
969.09,-0.13
978.78,-0.09
988.57,-0.05
998.46,-0.01
1008.44,0.04
1018.53,0.09
1028.71,0.12
1039.00,0.16
1049.39,0.19
1059.88,0.22
1070.48,0.25
1081.19,0.30
1092.00,0.35
1102.92,0.39
1113.95,0.42
1125.09,0.45
1136.34,0.48
1147.70,0.52
1159.18,0.55
1170.77,0.59
1182.48,0.64
1194.30,0.70
1206.25,0.75
1218.31,0.80
1230.49,0.86
1242.80,0.91
1255.22,0.96
1267.78,1.03
1280.45,1.12
1293.26,1.21
1306.19,1.30
1319.25,1.39
1332.45,1.47
1345.77,1.55
1359.23,1.64
1372.82,1.73
1386.55,1.82
1400.41,1.90
1414.42,1.97
1428.56,2.04
1442.85,2.09
1457.28,2.13
1471.85,2.17
1486.57,2.21
1501.43,2.25
1516.45,2.28
1531.61,2.32
1546.93,2.36
1562.40,2.40
1578.02,2.43
1593.80,2.45
1609.74,2.48
1625.84,2.51
1642.10,2.54
1658.52,2.57
1675.10,2.59
1691.85,2.60
1708.77,2.61
1725.86,2.61
1743.12,2.60
1760.55,2.59
1778.15,2.60
1795.94,2.61
1813.90,2.60
1832.03,2.59
1850.36,2.58
1868.86,2.56
1887.55,2.55
1906.42,2.53
1925.49,2.49
1944.74,2.46
1964.19,2.42
1983.83,2.36
2003.67,2.30
2023.71,2.23
2043.94,2.16
2064.38,2.09
2085.03,2.02
2105.88,1.95
2126.94,1.87
2148.20,1.80
2169.69,1.72
2191.38,1.62
2213.30,1.53
2235.43,1.44
2257.78,1.35
2280.36,1.26
2303.17,1.16
2326.20,1.05
2349.46,0.94
2372.95,0.81
2396.68,0.66
2420.65,0.50
2444.86,0.31
2469.31,0.13
2494.00,-0.05
2518.94,-0.24
2544.13,-0.44
2569.57,-0.64
2595.27,-0.85
2621.22,-1.06
2647.43,-1.26
2673.90,-1.46
2700.64,-1.64
2727.65,-1.82
2754.93,-1.99
2782.48,-2.17
2810.30,-2.33
2838.40,-2.49
2866.79,-2.65
2895.46,-2.81
2924.41,-2.97
2953.65,-3.13
2983.19,-3.27
3013.02,-3.40
3043.15,-3.51
3073.58,-3.62
3104.32,-3.72
3135.36,-3.80
3166.72,-3.87
3198.38,-3.91
3230.37,-3.92
3262.67,-3.91
3295.30,-3.89
3328.25,-3.83
3361.53,-3.73
3395.15,-3.62
3429.10,-3.46
3463.39,-3.26
3498.03,-3.04
3533.01,-2.80
3568.34,-2.53
3604.02,-2.24
3640.06,-1.93
3676.46,-1.63
3713.22,-1.32
3750.36,-1.02
3787.86,-0.72
3825.74,-0.44
3864.00,-0.17
3902.64,0.09
3941.66,0.35
3981.08,0.59
4020.89,0.82
4061.10,1.03
4101.71,1.23
4142.73,1.43
4184.15,1.63
4226.00,1.80
4268.26,1.97
4310.94,2.13
4354.05,2.29
4397.59,2.45
4441.56,2.59
4485.98,2.71
4530.84,2.82
4576.15,2.91
4621.91,2.98
4668.13,3.05
4714.81,3.12
4761.96,3.17
4809.58,3.21
4857.67,3.24
4906.25,3.26
4955.31,3.27
5004.87,3.25
5054.91,3.23
5105.46,3.22
5156.52,3.20
5208.08,3.20
5260.16,3.22
5312.77,3.24
5365.89,3.27
5419.55,3.31
5473.75,3.37
5528.49,3.43
5583.77,3.50
5639.61,3.58
5696.00,3.67
5752.96,3.76
5810.49,3.87
5868.60,3.97
5927.28,4.07
5986.56,4.18
6046.42,4.28
6106.89,4.37
6167.96,4.48
6229.64,4.58
6291.93,4.70
6354.85,4.83
6418.40,4.95
6482.58,5.06
6547.41,5.15
6612.88,5.24
6679.01,5.31
6745.80,5.34
6813.26,5.37
6881.39,5.37
6950.21,5.35
7019.71,5.30
7089.91,5.25
7160.81,5.18
7232.41,5.09
7304.74,5.00
7377.79,4.91
7451.56,4.81
7526.08,4.71
7601.34,4.61
7677.35,4.52
7754.13,4.42
7831.67,4.31
7909.98,4.20
7989.08,4.08
8068.98,3.94
8149.67,3.79
8231.16,3.62
8313.47,3.45
8396.61,3.27
8480.57,3.10
8565.38,2.93
8651.03,2.78
8737.54,2.62
8824.92,2.46
8913.17,2.30
9002.30,2.14
9092.32,1.98
9183.25,1.81
9275.08,1.65
9367.83,1.49
9461.51,1.32
9556.12,1.14
9651.68,0.94
9748.20,0.74
9845.68,0.51
9944.14,0.27
10043.58,0.03
10144.02,-0.24
10245.46,-0.50
10347.91,-0.76
10451.39,-1.05
10555.91,-1.36
10661.46,-1.69
10768.08,-2.05
10875.76,-2.42
10984.52,-2.80
11094.36,-3.22
11205.31,-3.67
11317.36,-4.14
11430.53,-4.65
11544.84,-5.17
11660.29,-5.74
11776.89,-6.34
11894.66,-6.96
12013.60,-7.62
12133.74,-8.30
12255.08,-8.99
12377.63,-9.68
12501.41,-10.37
12626.42,-11.03
12752.68,-11.66
12880.21,-12.24
13009.01,-12.75
13139.10,-13.18
13270.49,-13.52
13403.20,-13.79
13537.23,-14.00
13672.60,-14.13
13809.33,-14.20
13947.42,-14.23
14086.90,-14.22
14227.77,-14.20
14370.04,-14.15
14513.74,-14.10
14658.88,-14.05
14805.47,-14.00
14953.52,-13.94
15103.06,-13.88
15254.09,-13.81
15406.63,-13.72
15560.70,-13.61
15716.30,-13.49
15873.47,-13.34
16032.20,-13.14
16192.52,-12.92
16354.45,-12.68
16517.99,-12.43
16683.17,-12.17
16850.01,-11.91
17018.51,-11.65
17188.69,-11.41
17360.58,-11.19
17534.18,-11.00
17709.53,-10.83
17886.62,-10.68
18065.49,-10.56
18246.14,-10.46
18428.60,-10.38
18612.89,-10.32
18799.02,-10.29
18987.01,-10.27
19176.88,-10.28
19368.65,-10.30
19562.33,-10.36
19757.96,-10.43
19955.54,-10.53
