frequency,raw
20.00,8.85
20.20,8.87
20.40,8.89
20.61,8.90
20.81,8.92
21.02,8.94
21.23,8.95
21.44,8.96
21.66,8.98
21.87,8.99
22.09,9.01
22.31,9.02
22.54,9.03
22.76,9.05
22.99,9.06
23.22,9.08
23.45,9.09
23.69,9.10
23.92,9.11
24.16,9.12
24.40,9.13
24.65,9.14
24.89,9.15
25.14,9.16
25.39,9.17
25.65,9.18
25.91,9.19
26.16,9.20
26.43,9.21
26.69,9.22
26.96,9.22
27.23,9.23
27.50,9.24
27.77,9.24
28.05,9.25
28.33,9.26
28.62,9.26
28.90,9.28
29.19,9.28
29.48,9.29
29.78,9.29
30.08,9.29
30.38,9.29
30.68,9.29
30.99,9.28
31.30,9.29
31.61,9.29
31.93,9.31
32.24,9.31
32.57,9.32
32.89,9.32
33.22,9.32
33.55,9.31
33.89,9.30
34.23,9.29
34.57,9.29
34.92,9.29
35.27,9.28
35.62,9.29
35.97,9.29
36.33,9.29
36.70,9.29
37.06,9.30
37.43,9.29
37.81,9.29
38.19,9.28
38.57,9.27
38.95,9.28
39.34,9.29
39.74,9.29
40.14,9.28
40.54,9.27
40.94,9.26
41.35,9.25
41.76,9.25
42.18,9.24
42.60,9.23
43.03,9.21
43.46,9.20
43.90,9.19
44.33,9.19
44.78,9.19
45.23,9.18
45.68,9.17
46.13,9.15
46.60,9.14
47.06,9.13
47.53,9.13
48.01,9.12
48.49,9.11
48.97,9.10
49.46,9.08
49.96,9.07
50.46,9.06
50.96,9.05
51.47,9.04
51.99,9.02
52.51,9.01
53.03,8.99
53.56,8.98
54.10,8.97
54.64,8.96
55.18,8.94
55.74,8.93
56.29,8.91
56.86,8.89
57.42,8.88
58.00,8.86
58.58,8.84
59.16,8.82
59.76,8.79
60.35,8.79
60.96,8.79
61.57,8.79
62.18,8.76
62.80,8.73
63.43,8.71
64.07,8.70
64.71,8.68
65.35,8.66
66.01,8.64
66.67,8.62
67.33,8.59
68.01,8.57
68.69,8.55
69.37,8.54
70.07,8.52
70.77,8.50
71.48,8.47
72.19,8.45
72.91,8.42
73.64,8.40
74.38,8.38
75.12,8.35
75.87,8.33
76.63,8.30
77.40,8.27
78.17,8.25
78.95,8.23
79.74,8.20
80.54,8.18
81.35,8.15
82.16,8.12
82.98,8.10
83.81,8.07
84.65,8.05
85.50,8.02
86.35,7.99
87.22,7.96
88.09,7.93
88.97,7.90
89.86,7.87
90.76,7.84
91.66,7.81
92.58,7.78
93.51,7.75
94.44,7.71
95.39,7.68
96.34,7.65
97.30,7.63
98.28,7.59
99.26,7.56
100.25,7.52
101.25,7.48
102.27,7.45
103.29,7.42
104.32,7.38
105.37,7.34
106.42,7.31
107.48,7.28
108.56,7.24
109.64,7.20
110.74,7.17
111.85,7.13
112.97,7.09
114.10,7.06
115.24,7.02
116.39,6.98
117.55,6.93
118.73,6.90
119.92,6.87
121.12,6.83
122.33,6.77
123.55,6.73
124.79,6.70
126.03,6.66
127.29,6.63
128.57,6.59
129.85,6.55
131.15,6.51
132.46,6.46
133.79,6.41
135.12,6.37
136.48,6.32
137.84,6.27
139.22,6.24
140.61,6.20
142.02,6.16
143.44,6.11
144.87,6.06
146.32,6.02
147.78,5.98
149.26,5.94
150.75,5.89
152.26,5.83
153.78,5.79
155.32,5.74
156.88,5.69
158.44,5.65
160.03,5.61
161.63,5.57
163.24,5.54
164.88,5.51
166.53,5.44
168.19,5.37
169.87,5.31
171.57,5.28
173.29,5.24
175.02,5.19
176.77,5.14
178.54,5.08
180.32,5.03
182.13,5.01
183.95,4.95
185.79,4.89
187.65,4.84
189.52,4.77
191.42,4.73
193.33,4.70
195.27,4.65
197.22,4.60
199.19,4.55
201.18,4.51
203.19,4.46
205.23,4.40
207.28,4.35
209.35,4.30
211.44,4.25
213.56,4.20
215.69,4.15
217.85,4.10
220.03,4.06
222.23,4.00
224.45,3.95
226.70,3.91
228.96,3.85
231.25,3.80
233.57,3.75
235.90,3.71
238.26,3.66
240.64,3.61
243.05,3.56
245.48,3.51
247.93,3.46
250.41,3.41
252.92,3.37
255.45,3.32
258.00,3.27
260.58,3.22
263.19,3.17
265.82,3.12
268.48,3.07
271.16,3.02
273.87,2.97
276.61,2.92
279.38,2.88
282.17,2.84
284.99,2.79
287.84,2.75
290.72,2.70
293.63,2.65
296.57,2.60
299.53,2.55
302.53,2.51
305.55,2.47
308.61,2.43
311.69,2.39
314.81,2.33
317.96,2.29
321.14,2.24
324.35,2.19
327.59,2.15
330.87,2.10
334.18,2.05
337.52,2.00
340.90,1.96
344.30,1.92
347.75,1.87
351.23,1.83
354.74,1.79
358.28,1.75
361.87,1.70
365.49,1.65
369.14,1.61
372.83,1.57
376.56,1.52
380.33,1.48
384.13,1.44
387.97,1.40
391.85,1.35
395.77,1.31
399.73,1.27
403.72,1.23
407.76,1.19
411.84,1.15
415.96,1.10
420.12,1.06
424.32,1.03
428.56,0.99
432.85,0.95
437.18,0.90
441.55,0.87
445.96,0.83
450.42,0.78
454.93,0.75
459.48,0.70
464.07,0.67
468.71,0.64
473.40,0.61
478.13,0.57
482.91,0.52
487.74,0.48
492.62,0.45
497.55,0.41
502.52,0.37
507.55,0.35
512.62,0.32
517.75,0.28
522.93,0.25
528.16,0.22
533.44,0.18
538.77,0.15
544.16,0.12
549.60,0.08
555.10,0.06
560.65,0.03
566.25,-0.00
571.92,-0.03
577.64,-0.06
583.41,-0.09
589.25,-0.12
595.14,-0.13
601.09,-0.15
607.10,-0.19
613.17,-0.22
619.30,-0.24
625.50,-0.27
631.75,-0.29
638.07,-0.32
644.45,-0.34
650.89,-0.37
657.40,-0.38
663.98,-0.40
670.62,-0.41
677.32,-0.44
684.10,-0.46
690.94,-0.48
697.85,-0.46
704.83,-0.49
711.87,-0.53
718.99,-0.55
726.18,-0.56
733.44,-0.56
740.78,-0.57
748.19,-0.57
755.67,-0.58
763.23,-0.58
770.86,-0.58
778.57,-0.58
786.35,-0.59
794.22,-0.60
802.16,-0.61
810.18,-0.60
818.28,-0.59
826.46,-0.57
834.73,-0.56
843.08,-0.55
851.51,-0.54
860.02,-0.53
868.62,-0.51
877.31,-0.49
886.08,-0.47
894.94,-0.44
903.89,-0.41
912.93,-0.38
922.06,-0.36
931.28,-0.32
940.59,-0.27
950.00,-0.23
959.50,-0.18
969.09,-0.14
978.78,-0.09
988.57,-0.05
998.46,-0.01
1008.44,0.06
1018.53,0.13
1028.71,0.21
1039.00,0.28
1049.39,0.35
1059.88,0.41
1070.48,0.49
1081.19,0.57
1092.00,0.65
1102.92,0.74
1113.95,0.82
1125.09,0.90
1136.34,0.98
1147.70,1.07
1159.18,1.16
1170.77,1.24
1182.48,1.32
1194.30,1.40
1206.25,1.49
1218.31,1.58
1230.49,1.66
1242.80,1.73
1255.22,1.81
1267.78,1.88
1280.45,1.96
1293.26,2.04
1306.19,2.12
1319.25,2.20
1332.45,2.27
1345.77,2.35
1359.23,2.42
1372.82,2.50
1386.55,2.58
1400.41,2.66
1414.42,2.72
1428.56,2.79
1442.85,2.85
1457.28,2.91
1471.85,2.98
1486.57,3.05
1501.43,3.14
1516.45,3.18
1531.61,3.24
1546.93,3.32
1562.40,3.39
1578.02,3.45
1593.80,3.51
1609.74,3.58
1625.84,3.67
1642.10,3.74
1658.52,3.81
1675.10,3.88
1691.85,3.95
1708.77,4.03
1725.86,4.11
1743.12,4.19
1760.55,4.26
1778.15,4.34
1795.94,4.44
1813.90,4.50
1832.03,4.56
1850.36,4.63
1868.86,4.70
1887.55,4.76
1906.42,4.83
1925.49,4.91
1944.74,4.96
1964.19,5.02
1983.83,5.08
2003.67,5.14
2023.71,5.19
2043.94,5.25
2064.38,5.30
2085.03,5.35
2105.88,5.40
2126.94,5.45
2148.20,5.50
2169.69,5.56
2191.38,5.60
2213.30,5.64
2235.43,5.68
2257.78,5.72
2280.36,5.76
2303.17,5.80
2326.20,5.83
2349.46,5.86
2372.95,5.89
2396.68,5.92
2420.65,5.96
2444.86,5.99
2469.31,6.02
2494.00,6.02
2518.94,6.05
2544.13,6.09
2569.57,6.11
2595.27,6.13
2621.22,6.15
2647.43,6.16
2673.90,6.18
2700.64,6.19
2727.65,6.21
2754.93,6.21
2782.48,6.22
2810.30,6.23
2838.40,6.24
2866.79,6.26
2895.46,6.27
2924.41,6.28
2953.65,6.29
2983.19,6.29
3013.02,6.30
3043.15,6.30
3073.58,6.30
3104.32,6.31
3135.36,6.31
3166.72,6.33
3198.38,6.34
3230.37,6.34
3262.67,6.33
3295.30,6.32
3328.25,6.35
3361.53,6.37
3395.15,6.35
3429.10,6.37
3463.39,6.39
3498.03,6.40
3533.01,6.41
3568.34,6.42
3604.02,6.45
3640.06,6.44
3676.46,6.45
3713.22,6.47
3750.36,6.47
3787.86,6.48
3825.74,6.49
3864.00,6.50
3902.64,6.51
3941.66,6.52
3981.08,6.53
4020.89,6.53
4061.10,6.52
4101.71,6.53
4142.73,6.53
4184.15,6.53
4226.00,6.52
4268.26,6.52
4310.94,6.51
4354.05,6.49
4397.59,6.47
4441.56,6.45
4485.98,6.41
4530.84,6.37
4576.15,6.32
4621.91,6.28
4668.13,6.22
4714.81,6.16
4761.96,6.09
4809.58,6.01
4857.67,5.92
4906.25,5.82
4955.31,5.72
5004.87,5.60
5054.91,5.48
5105.46,5.36
5156.52,5.23
5208.08,5.08
5260.16,4.95
5312.77,4.82
5365.89,4.64
5419.55,4.47
5473.75,4.30
5528.49,4.13
5583.77,3.94
5639.61,3.77
5696.00,3.60
5752.96,3.43
5810.49,3.27
5868.60,3.14
5927.28,2.99
5986.56,2.81
6046.42,2.69
6106.89,2.57
6167.96,2.44
6229.64,2.30
6291.93,2.16
6354.85,2.06
6418.40,1.96
6482.58,1.87
6547.41,1.82
6612.88,1.79
6679.01,1.74
6745.80,1.69
6813.26,1.65
6881.39,1.62
6950.21,1.64
7019.71,1.68
7089.91,1.72
7160.81,1.77
7232.41,1.83
7304.74,1.92
7377.79,2.02
7451.56,2.15
7526.08,2.29
7601.34,2.46
7677.35,2.64
7754.13,2.82
7831.67,3.02
7909.98,3.22
7989.08,3.42
8068.98,3.61
8149.67,3.79
8231.16,3.94
8313.47,4.05
8396.61,4.14
8480.57,4.17
8565.38,4.12
8651.03,4.02
8737.54,3.86
8824.92,3.63
8913.17,3.32
9002.30,3.00
9092.32,2.60
9183.25,2.19
9275.08,1.77
9367.83,1.33
9461.51,0.89
9556.12,0.47
9651.68,0.06
9748.20,-0.33
9845.68,-0.70
9944.14,-1.04
10043.58,-1.36
10144.02,-1.64
10245.46,-1.90
10347.91,-2.13
10451.39,-2.33
10555.91,-2.51
10661.46,-2.66
10768.08,-2.77
10875.76,-2.83
10984.52,-2.82
11094.36,-2.76
11205.31,-2.64
11317.36,-2.39
11430.53,-2.06
11544.84,-1.51
11660.29,-0.75
11776.89,0.18
11894.66,1.62
12013.60,3.15
12133.74,4.80
12255.08,6.43
12377.63,7.95
12501.41,9.26
12626.42,10.07
12752.68,10.19
12880.21,9.48
13009.01,8.36
13139.10,7.25
13270.49,5.99
13403.20,4.76
13537.23,3.74
13672.60,2.85
13809.33,2.09
13947.42,1.52
14086.90,1.06
14227.77,0.68
14370.04,0.36
14513.74,0.11
14658.88,-0.16
14805.47,-0.49
14953.52,-0.93
15103.06,-1.63
15254.09,-2.46
15406.63,-3.57
15560.70,-4.71
15716.30,-5.92
15873.47,-7.07
16032.20,-8.22
16192.52,-9.41
16354.45,-10.46
16517.99,-11.43
16683.17,-12.35
16850.01,-13.17
17018.51,-13.89
17188.69,-14.45
17360.58,-14.99
17534.18,-15.47
17709.53,-15.77
17886.62,-15.96
18065.49,-16.29
18246.14,-16.91
18428.60,-17.72
18612.89,-18.85
18799.02,-20.28
18987.01,-21.93
19176.88,-23.75
19368.65,-25.73
19562.33,-27.89
19757.96,-30.24
19955.54,-32.60
