frequency,raw
20.00,16.21
20.20,16.23
20.40,16.26
20.61,16.29
20.81,16.31
21.02,16.33
21.23,16.36
21.44,16.38
21.66,16.40
21.87,16.42
22.09,16.44
22.31,16.46
22.54,16.47
22.76,16.49
22.99,16.51
23.22,16.52
23.45,16.53
23.69,16.54
23.92,16.55
24.16,16.56
24.40,16.57
24.65,16.58
24.89,16.59
25.14,16.59
25.39,16.60
25.65,16.60
25.91,16.60
26.16,16.61
26.43,16.61
26.69,16.61
26.96,16.61
27.23,16.61
27.50,16.60
27.77,16.60
28.05,16.59
28.33,16.59
28.62,16.58
28.90,16.58
29.19,16.57
29.48,16.56
29.78,16.55
30.08,16.54
30.38,16.53
30.68,16.52
30.99,16.50
31.30,16.49
31.61,16.47
31.93,16.46
32.24,16.44
32.57,16.42
32.89,16.40
33.22,16.38
33.55,16.36
33.89,16.34
34.23,16.32
34.57,16.30
34.92,16.27
35.27,16.25
35.62,16.22
35.97,16.20
36.33,16.17
36.70,16.14
37.06,16.12
37.43,16.09
37.81,16.05
38.19,16.02
38.57,15.99
38.95,15.96
39.34,15.92
39.74,15.89
40.14,15.85
40.54,15.82
40.94,15.78
41.35,15.74
41.76,15.70
42.18,15.66
42.60,15.62
43.03,15.58
43.46,15.54
43.90,15.50
44.33,15.45
44.78,15.41
45.23,15.36
45.68,15.32
46.13,15.27
46.60,15.22
47.06,15.17
47.53,15.12
48.01,15.07
48.49,15.02
48.97,14.97
49.46,14.92
49.96,14.86
50.46,14.81
50.96,14.76
51.47,14.70
51.99,14.64
52.51,14.59
53.03,14.53
53.56,14.47
54.10,14.41
54.64,14.36
55.18,14.30
55.74,14.24
56.29,14.18
56.86,14.12
57.42,14.06
58.00,13.99
58.58,13.93
59.16,13.86
59.76,13.80
60.35,13.73
60.96,13.66
61.57,13.59
62.18,13.53
62.80,13.46
63.43,13.39
64.07,13.33
64.71,13.26
65.35,13.19
66.01,13.12
66.67,13.05
67.33,12.98
68.01,12.91
68.69,12.84
69.37,12.77
70.07,12.69
70.77,12.62
71.48,12.55
72.19,12.47
72.91,12.40
73.64,12.32
74.38,12.25
75.12,12.17
75.87,12.10
76.63,12.02
77.40,11.94
78.17,11.87
78.95,11.79
79.74,11.71
80.54,11.63
81.35,11.55
82.16,11.47
82.98,11.39
83.81,11.32
84.65,11.24
85.50,11.16
86.35,11.08
87.22,11.00
88.09,10.91
88.97,10.83
89.86,10.75
90.76,10.67
91.66,10.59
92.58,10.51
93.51,10.43
94.44,10.35
95.39,10.26
96.34,10.18
97.30,10.10
98.28,10.02
99.26,9.94
100.25,9.86
101.25,9.78
102.27,9.69
103.29,9.61
104.32,9.52
105.37,9.44
106.42,9.35
107.48,9.27
108.56,9.19
109.64,9.11
110.74,9.02
111.85,8.95
112.97,8.87
114.10,8.79
115.24,8.70
116.39,8.62
117.55,8.54
118.73,8.46
119.92,8.38
121.12,8.30
122.33,8.22
123.55,8.14
124.79,8.06
126.03,7.98
127.29,7.89
128.57,7.80
129.85,7.72
131.15,7.64
132.46,7.56
133.79,7.48
135.12,7.40
136.48,7.31
137.84,7.23
139.22,7.15
140.61,7.07
142.02,6.99
143.44,6.92
144.87,6.84
146.32,6.76
147.78,6.68
149.26,6.60
150.75,6.52
152.26,6.44
153.78,6.36
155.32,6.29
156.88,6.21
158.44,6.14
160.03,6.06
161.63,5.99
163.24,5.91
164.88,5.84
166.53,5.76
168.19,5.69
169.87,5.61
171.57,5.53
173.29,5.46
175.02,5.38
176.77,5.31
178.54,5.23
180.32,5.15
182.13,5.07
183.95,5.00
185.79,4.93
187.65,4.86
189.52,4.79
191.42,4.72
193.33,4.65
195.27,4.57
197.22,4.50
199.19,4.43
201.18,4.36
203.19,4.29
205.23,4.22
207.28,4.16
209.35,4.09
211.44,4.03
213.56,3.96
215.69,3.89
217.85,3.82
220.03,3.75
222.23,3.68
224.45,3.60
226.70,3.53
228.96,3.47
231.25,3.41
233.57,3.35
235.90,3.28
238.26,3.21
240.64,3.14
243.05,3.07
245.48,2.99
247.93,2.92
250.41,2.86
252.92,2.81
255.45,2.75
258.00,2.69
260.58,2.63
263.19,2.57
265.82,2.50
268.48,2.44
271.16,2.38
273.87,2.32
276.61,2.26
279.38,2.20
282.17,2.14
284.99,2.08
287.84,2.02
290.72,1.96
293.63,1.90
296.57,1.84
299.53,1.78
302.53,1.72
305.55,1.66
308.61,1.60
311.69,1.55
314.81,1.49
317.96,1.44
321.14,1.38
324.35,1.32
327.59,1.27
330.87,1.21
334.18,1.16
337.52,1.11
340.90,1.05
344.30,0.99
347.75,0.94
351.23,0.89
354.74,0.84
358.28,0.79
361.87,0.74
365.49,0.68
369.14,0.63
372.83,0.59
376.56,0.54
380.33,0.49
384.13,0.44
387.97,0.39
391.85,0.34
395.77,0.29
399.73,0.24
403.72,0.19
407.76,0.14
411.84,0.09
415.96,0.05
420.12,0.01
424.32,-0.04
428.56,-0.09
432.85,-0.13
437.18,-0.17
441.55,-0.22
445.96,-0.26
450.42,-0.30
454.93,-0.35
459.48,-0.40
464.07,-0.45
468.71,-0.50
473.40,-0.53
478.13,-0.58
482.91,-0.63
487.74,-0.68
492.62,-0.71
497.55,-0.74
502.52,-0.78
507.55,-0.82
512.62,-0.87
517.75,-0.91
522.93,-0.96
528.16,-1.01
533.44,-1.05
538.77,-1.09
544.16,-1.13
549.60,-1.18
555.10,-1.22
560.65,-1.26
566.25,-1.29
571.92,-1.32
577.64,-1.36
583.41,-1.41
589.25,-1.46
595.14,-1.51
601.09,-1.56
607.10,-1.60
613.17,-1.65
619.30,-1.69
625.50,-1.73
631.75,-1.78
638.07,-1.83
644.45,-1.87
650.89,-1.92
657.40,-1.97
663.98,-2.02
670.62,-2.07
677.32,-2.13
684.10,-2.18
690.94,-2.24
697.85,-2.29
704.83,-2.35
711.87,-2.41
718.99,-2.48
726.18,-2.53
733.44,-2.59
740.78,-2.64
748.19,-2.70
755.67,-2.75
763.23,-2.79
770.86,-2.84
778.57,-2.88
786.35,-2.91
794.22,-2.93
802.16,-2.93
810.18,-2.93
818.28,-2.91
826.46,-2.88
834.73,-2.84
843.08,-2.77
851.51,-2.69
860.02,-2.58
868.62,-2.46
877.31,-2.33
886.08,-2.17
894.94,-2.00
903.89,-1.83
912.93,-1.65
922.06,-1.46
931.28,-1.27
940.59,-1.08
950.00,-0.88
959.50,-0.69
969.09,-0.52
978.78,-0.35
988.57,-0.19
998.46,-0.02
1008.44,0.12
1018.53,0.27
1028.71,0.41
1039.00,0.55
1049.39,0.68
1059.88,0.81
1070.48,0.94
1081.19,1.06
1092.00,1.17
1102.92,1.29
1113.95,1.39
1125.09,1.49
1136.34,1.59
1147.70,1.70
1159.18,1.80
1170.77,1.90
1182.48,1.99
1194.30,2.07
1206.25,2.16
1218.31,2.25
1230.49,2.34
1242.80,2.43
1255.22,2.51
1267.78,2.60
1280.45,2.68
1293.26,2.77
1306.19,2.85
1319.25,2.94
1332.45,3.01
1345.77,3.09
1359.23,3.17
1372.82,3.26
1386.55,3.34
1400.41,3.41
1414.42,3.49
1428.56,3.58
1442.85,3.66
1457.28,3.75
1471.85,3.84
1486.57,3.92
1501.43,4.00
1516.45,4.09
1531.61,4.18
1546.93,4.27
1562.40,4.37
1578.02,4.47
1593.80,4.56
1609.74,4.66
1625.84,4.77
1642.10,4.87
1658.52,4.98
1675.10,5.09
1691.85,5.21
1708.77,5.32
1725.86,5.44
1743.12,5.57
1760.55,5.70
1778.15,5.83
1795.94,5.96
1813.90,6.10
1832.03,6.24
1850.36,6.38
1868.86,6.54
1887.55,6.69
1906.42,6.85
1925.49,7.01
1944.74,7.18
1964.19,7.36
1983.83,7.52
2003.67,7.69
2023.71,7.88
2043.94,8.07
2064.38,8.24
2085.03,8.44
2105.88,8.64
2126.94,8.84
2148.20,9.05
2169.69,9.26
2191.38,9.47
2213.30,9.68
2235.43,9.91
2257.78,10.13
2280.36,10.34
2303.17,10.55
2326.20,10.78
2349.46,11.00
2372.95,11.22
2396.68,11.43
2420.65,11.64
2444.86,11.85
2469.31,12.05
2494.00,12.23
2518.94,12.41
2544.13,12.59
2569.57,12.73
2595.27,12.85
2621.22,12.95
2647.43,13.06
2673.90,13.13
2700.64,13.18
2727.65,13.18
2754.93,13.17
2782.48,13.14
2810.30,13.09
2838.40,12.99
2866.79,12.88
2895.46,12.76
2924.41,12.61
2953.65,12.45
2983.19,12.27
3013.02,12.08
3043.15,11.89
3073.58,11.69
3104.32,11.47
3135.36,11.26
3166.72,11.04
3198.38,10.84
3230.37,10.61
3262.67,10.38
3295.30,10.18
3328.25,9.97
3361.53,9.77
3395.15,9.56
3429.10,9.36
3463.39,9.18
3498.03,9.00
3533.01,8.80
3568.34,8.62
3604.02,8.46
3640.06,8.30
3676.46,8.13
3713.22,7.98
3750.36,7.84
3787.86,7.70
3825.74,7.56
3864.00,7.41
3902.64,7.29
3941.66,7.17
3981.08,7.06
4020.89,6.95
4061.10,6.84
4101.71,6.74
4142.73,6.65
4184.15,6.56
4226.00,6.48
4268.26,6.41
4310.94,6.36
4354.05,6.28
4397.59,6.23
4441.56,6.18
4485.98,6.16
4530.84,6.12
4576.15,6.10
4621.91,6.09
4668.13,6.09
4714.81,6.10
4761.96,6.13
4809.58,6.16
4857.67,6.19
4906.25,6.24
4955.31,6.30
5004.87,6.38
5054.91,6.48
5105.46,6.58
5156.52,6.70
5208.08,6.81
5260.16,6.97
5312.77,7.13
5365.89,7.32
5419.55,7.52
5473.75,7.74
5528.49,7.99
5583.77,8.25
5639.61,8.55
5696.00,8.89
5752.96,9.25
5810.49,9.63
5868.60,10.07
5927.28,10.54
5986.56,11.02
6046.42,11.55
6106.89,12.12
6167.96,12.74
6229.64,13.40
6291.93,14.07
6354.85,14.72
6418.40,15.35
6482.58,15.90
6547.41,16.29
6612.88,16.53
6679.01,16.47
6745.80,16.17
6813.26,15.72
6881.39,15.07
6950.21,14.30
7019.71,13.49
7089.91,12.70
7160.81,11.93
7232.41,11.20
7304.74,10.51
7377.79,9.87
7451.56,9.26
7526.08,8.69
7601.34,8.17
7677.35,7.68
7754.13,7.22
7831.67,6.82
7909.98,6.44
7989.08,6.09
8068.98,5.79
8149.67,5.53
8231.16,5.30
8313.47,5.11
8396.61,4.94
8480.57,4.81
8565.38,4.73
8651.03,4.68
8737.54,4.66
8824.92,4.70
8913.17,4.78
9002.30,4.87
9092.32,5.05
9183.25,5.28
9275.08,5.55
9367.83,5.90
9461.51,6.31
9556.12,6.80
9651.68,7.37
9748.20,8.03
9845.68,8.74
9944.14,9.48
10043.58,10.18
10144.02,10.82
10245.46,11.06
10347.91,11.02
10451.39,10.62
10555.91,9.69
10661.46,8.60
10768.08,7.41
10875.76,6.17
10984.52,4.97
11094.36,3.80
11205.31,2.72
11317.36,1.73
11430.53,0.78
11544.84,-0.09
11660.29,-0.89
11776.89,-1.67
11894.66,-2.36
12013.60,-3.04
12133.74,-3.68
12255.08,-4.27
12377.63,-4.84
12501.41,-5.36
12626.42,-5.84
12752.68,-6.30
12880.21,-6.71
13009.01,-7.10
13139.10,-7.49
13270.49,-7.80
13403.20,-8.10
13537.23,-8.37
13672.60,-8.61
13809.33,-8.82
13947.42,-8.97
14086.90,-9.11
14227.77,-9.23
14370.04,-9.30
14513.74,-9.32
14658.88,-9.29
14805.47,-9.22
14953.52,-9.07
15103.06,-8.87
15254.09,-8.64
15406.63,-8.29
15560.70,-7.90
15716.30,-7.45
15873.47,-6.88
16032.20,-6.26
16192.52,-5.52
16354.45,-4.75
16517.99,-3.95
16683.17,-3.18
16850.01,-2.66
17018.51,-2.36
17188.69,-2.60
17360.58,-3.21
17534.18,-4.07
17709.53,-5.19
17886.62,-6.33
18065.49,-7.43
18246.14,-8.45
18428.60,-9.36
18612.89,-10.19
18799.02,-10.95
18987.01,-11.60
19176.88,-12.16
19368.65,-12.65
19562.33,-13.06
19757.96,-13.40
19955.54,-13.68
