frequency,raw,error,smoothed,error_smoothed,equalization,equalized_raw,equalized_smoothed,target
20,-14.828190600053023,-18.948811350660936,-14.823801726945833,-18.944440722124117,5.999999999999999,-8.828190600053023,-8.823801726945835,4.120620750607913
21,-14.155987130004535,-18.308222274713867,-14.13035891974139,-18.28258344025502,6.0,-8.155987130004535,-8.13035891974139,4.152235144709332
22,-13.458367710215285,-17.63881619023878,-13.47127309154566,-17.651699509906795,6.0,-7.458367710215285,-7.47127309154566,4.180448480023496
23,-12.747274416634237,-16.952533766955774,-12.846544242358647,-17.051788931079436,5.999999999999999,-6.747274416634238,-6.846544242358648,4.205259350321538
24,-12.328396641659086,-16.55506273811332,-12.256172372180334,-16.482851703772923,5.999999999999998,-6.328396641659088,-6.256172372180336,4.2266660964542355
25,-11.697702024193754,-15.942368799099551,-11.700927466832326,-15.945666167566701,6.000000000000001,-5.697702024193753,-5.700927466832325,4.244666774905798
26,-11.208094693480474,-15.467353817530736,-11.179730118724084,-15.439148524965546,6.0,-5.208094693480474,-5.179730118724084,4.259259124050261
27,-10.58654691432038,-14.857056388030921,-10.691778246293397,-14.96248834402288,6.0,-4.58654691432038,-4.6917782462933975,4.270509473710542
28,-10.31441786319988,-14.592779503785827,-10.236257403175763,-14.51485170436472,6.0,-4.31441786319988,-4.236257403175763,4.278361640585948
29,-9.84634504626162,-14.129131737773331,-9.81261181631428,-14.09564783720565,6.000000000000001,-3.846345046261619,-3.8126118163142797,4.282786691511712
30,-9.41723163615585,-13.700969324816645,-9.421003334854422,-13.704986789492185,6.0,-3.417231636155851,-3.421003334854422,4.2837376886607945
31,-9.016521880476914,-13.297668747351793,-9.061881789689405,-13.343246816529325,5.999999999999999,-3.0165218804769145,-3.061881789689406,4.281146866874879
32,-8.72640468572014,-13.001328967246605,-8.735512779629797,-13.01060231259641,5.999999999999999,-2.7264046857201416,-2.735512779629798,4.274924281526465
33,-8.50743559082615,-12.772394211234344,-8.441198502630321,-12.706246471015358,6.0,-2.50743559082615,-2.4411985026303213,4.264958620408194
34,-8.060858096519327,-12.311990152454365,-8.176502146062111,-12.427619450430178,5.999999999999998,-2.060858096519329,-2.176502146062113,4.251132055935038
35,-7.908484782699777,-12.141799343957913,-7.936909852316685,-12.17007663212429,6.000000000000001,-1.9084847826997757,-1.9369098523166839,4.233314561258136
36,-7.623937175839253,-11.835312293342579,-7.716090866129646,-11.927157206305884,5.999999999999998,-1.623937175839255,-1.7160908661296475,4.211375117503325
37,-7.603683518691933,-11.788875723628756,-7.506881722660175,-11.691579075023224,6.0,-1.6036835186919332,-1.5068817226601752,4.185192204936822
38,-7.365312359868121,-11.519978811007565,-7.302805889889051,-11.456771362654813,6.000000000000001,-1.3653123598681205,-1.3028058898890498,4.154666451139444
39,-7.19071819016774,-11.310453280013505,-7.099697931733284,-11.21851332841764,6.0,-1.1907181901677397,-1.0996979317332842,4.119735089845765
40,-6.965263694523567,-11.04565145644303,-6.896907884161335,-10.97615501576026,5.999999999999999,-0.9652636945235678,-0.8969078841613358,4.0803877619194635
41,-6.739576404416633,-10.776261316457695,-6.69761212506037,-10.732945325289396,5.999999999999999,-0.739576404416634,-0.6976121250603713,4.036684912041063
42,-6.505280159531249,-10.494055587484835,-6.508014386168414,-10.495250388822928,6.000000000000003,-0.5052801595312459,-0.5080143861684112,3.9887754279535863
43,-6.272604760736613,-10.209518646115999,-6.335578402782518,-10.270802803267134,6.0,-0.27260476073661266,-0.3355784027825184,3.9369138853793864
44,-6.039752205196327,-9.921228308013685,-6.186769665460682,-10.066458122238629,6.0,-0.03975220519632661,-0.18676966546068208,3.881476102817359
45,-6.035459027380814,-9.858430867879886,-6.0649773086534875,-9.886128515281758,5.999999999999998,-0.03545902738081619,-0.06497730865348927,3.8229718404990702
46,-5.804136676336007,-9.566190111460376,-5.96925374832065,-9.729530087039922,6.0,0.19586332366399262,0.030746251679349967,3.762053435124368
47,-6.029378268055864,-9.728897456782871,-5.894259681109124,-9.592130428254574,6.0,-0.029378268055864076,0.10574031889087632,3.699519188727006
48,-5.799237245096727,-9.435547978400372,-5.831421727486032,-9.466302792298201,6.0,0.20076275490327333,0.16857827251396795,3.6363107333036453
49,-5.797392908838328,-9.370896450004954,-5.770934280430547,-9.34331779045478,5.999999999999999,0.20260709116167153,0.22906571956945232,3.573503541166627
50,-5.796103008762832,-9.308393163171912,-5.703997226642935,-9.215563887029742,5.999999999999999,0.2038969912371673,0.29600277335706426,3.5122901544090803
51,-5.75056375638867,-9.204519794992132,-5.6246529917231785,-9.07836009313046,5.999999999999999,0.24943624361132954,0.37534700827682066,3.453956038603463
52,-5.5682332436425845,-8.968081595121031,-5.530763245276537,-8.930901511038119,5.999999999999999,0.43176675635741457,0.46923675472346194,3.3998483514784477
53,-5.341570506555662,-8.692908822190969,-5.423968806439651,-8.776181970399936,6.000000000000002,0.6584294934443395,0.5760311935603504,3.351338315635306
54,-5.343086659408247,-8.652864927392319,-5.308790971468958,-8.62005305778046,6.0,0.6569133405917533,0.6912090285310422,3.309778267984073
55,-5.116403470518927,-8.392858317381513,-5.191253203969664,-8.469799910622775,6.0,0.883596529481073,0.8087467960303361,3.2764548468625856
56,-5.117067611687019,-8.369607698300547,-5.077469204872827,-8.332681522557333,6.000000000000002,0.8829323883129829,0.9225307951271748,3.2525400866135277
57,-4.8893304400208635,-8.128372873843816,-4.972561800478701,-8.21480195559312,5.999999999999999,1.1106695599791356,1.0274381995212982,3.239042433822953
58,-4.889404488206597,-8.126164338828925,-4.880102538186007,-8.120504443958414,6.0,1.1105955117934032,1.1198974618139932,3.2367598506223283
59,-4.889727339234659,-8.135964555013281,-4.802070841612322,-8.052289371960757,6.000000000000002,1.110272660765343,1.19792915838768,3.2462372157786232
60,-4.669082246257327,-7.936812411109367,-4.7391887969920905,-8.01111425406222,6.000000000000001,1.330917753742674,1.2608112030079104,3.26773016485204
61,-4.662974155438515,-7.96415147828938,-4.691426128116531,-7.996872145299902,6.000000000000002,1.337025844561487,1.3085738718834712,3.301177322850865
62,-4.66285203698671,-8.009034622683412,-4.6584863244571,-8.008861026392715,6.0,1.3371479630132903,1.3415136755428998,3.346182585696703
63,-4.661589253716072,-8.063597963599237,-4.6401491990528605,-8.04612063476884,6.0,1.3384107462839276,1.3598508009471395,3.4020087098831655
64,-4.659201029372029,-8.126784021537322,-4.636419485894205,-8.107587084817606,5.999999999999999,1.3407989706279704,1.3635805141057942,3.4675829921652936
65,-4.6563342624386275,-8.197849549177317,-4.647489041409403,-8.192073061034385,5.999999999999999,1.3436657375613716,1.352510958590596,3.541515286738689
66,-4.654137196775276,-8.276265240903392,-4.673551921746908,-8.29811253415735,6.000000000000002,1.3458628032247262,1.3264480782530939,3.6221280441281154
67,-4.6539308969136695,-8.361428391136878,-4.714522827463803,-8.423719631549965,5.999999999999999,1.3460691030863297,1.2854771725361962,3.707497494223208
68,-4.7545495540468306,-8.550054120181425,-4.769714413212501,-8.566115790837447,6.000000000000001,1.2454504459531703,1.2302855867874998,3.7955045661345936
69,-4.891412349598515,-8.7753060190248,-4.83753861311754,-8.72148853037194,5.999999999999999,1.1085876504014838,1.162461386882459,3.8838936694262842
70,-4.901814758842201,-8.872151839819873,-4.915312034387389,-8.884859709478416,6.0,1.0981852411577986,1.084687965612611,3.970337080977672
71,-4.915289783760308,-8.967792194348462,-4.999254453615651,-9.050149876091027,6.0,1.0847102162396922,1.0007455463843486,4.052502410588154
72,-5.158478416711079,-9.286598888279384,-5.084754817126381,-9.210510524937721,5.999999999999999,0.8415215832889205,0.9152451828736181,4.128120471568305
73,-5.173849122498828,-9.36889999039761,-5.166927724784522,-9.358944645980761,6.0,0.8261508775011723,0.8330722752154784,4.195050867898782
74,-5.187562123658736,-9.438904851017815,-5.241396208765547,-9.489148881415797,6.000000000000001,0.8124378763412645,0.7586037912344539,4.251342727359079
75,-5.368440990788847,-9.663729243714219,-5.305136890199261,-9.596411108312692,5.999999999999998,0.6315590092111512,0.6948631098007372,4.295288252925371
76,-5.433365499167531,-9.758832617345549,-5.357152179608889,-9.678326191629747,6.000000000000003,0.566634500832472,0.6428478203911139,4.325467118178018
77,-5.437735218364795,-9.778515394106446,-5.398731374524472,-9.735090298449506,6.000000000000001,0.5622647816352062,0.6012686254755293,4.340780175741651
78,-5.441091747905364,-9.781563203306364,-5.4331498868155705,-9.769222080800816,5.999999999999999,0.5589082520946347,0.5668501131844286,4.3404714554009995
79,-5.44589194297034,-9.770029914817634,-5.46482012353256,-9.784723854351402,6.000000000000002,0.5541080570296621,0.535179876467442,4.3241379718472945
80,-5.454459646621401,-9.746187057679556,-5.498096706220104,-9.78588548039017,6.0,0.5455403533785992,0.501903293779896,4.291727411058156
81,-5.468152260223277,-9.711676549938645,-5.536078894351949,-9.776074115151488,6.0,0.5318477397767234,0.4639211056480512,4.243524289715368
82,-5.4868140021551755,-9.66693965895427,-5.5797804393430965,-9.756880596531364,6.0,0.5131859978448245,0.42021956065690347,4.180125656799094
83,-5.6122893256923945,-9.714697133187315,-5.6279297181347765,-9.727886250823754,6.000000000000001,0.3877106743076064,0.3720702818652244,4.102407807494919
84,-5.759343831312885,-9.770829620283507,-5.677454142134057,-9.687105821758504,6.000000000000001,0.24065616868711626,0.3225458578659435,4.011485788970623
85,-5.780069132615032,-9.688736816313568,-5.7244694682668396,-9.631930077173372,6.000000000000001,0.21993086738496892,0.27553053173316133,3.908667683698537
86,-5.797120189138468,-9.592525942798684,-5.765428744181744,-9.560227024707089,5.999999999999999,0.20287981086153106,0.23457125581825533,3.795405753660216
87,-5.810063558816518,-9.483310078198643,-5.798053386796404,-9.471228839349727,6.0,0.18993644118348207,0.20194661320359586,3.673246519382126
88,-5.8196760122694915,-9.363457751124695,-5.821779024127727,-9.365940288189476,5.999999999999999,0.18032398773050762,0.17822097587227237,3.543781738855204
89,-5.827439738749674,-9.23604179458858,-5.837649715703984,-9.247001808099832,6.000000000000001,0.17256026125032697,0.16235028429601694,3.4086020558389056
90,-5.834962333846885,-9.104217155721708,-5.847799328019445,-9.118140748310374,6.000000000000001,0.16503766615311566,0.1522006719805562,3.2692548218748225
91,-5.843594372211794,-8.97080165361789,-5.85478467047857,-8.983466346613952,6.0,0.15640562778820577,0.14521532952143001,3.1272072814060956
92,-5.854310934553748,-8.838126900523383,-5.861036859124862,-8.846866134253649,5.999999999999999,0.14568906544625104,0.13896314087513684,2.9838159659696353
93,-5.867728627278952,-8.708031419961179,-5.868587588233931,-8.711658053762374,6.000000000000002,0.13227137272104983,0.1314124117660711,2.8403027926822273
94,-5.884088580396309,-8.581826604338053,-5.879067662798876,-8.580505009202156,6.0,0.115911419603691,0.12093233720112373,2.697738023941744
95,-5.903156442575283,-8.460186379172708,-5.893845378867061,-8.45548164902503,6.000000000000001,0.09684355742471773,0.10615462113293983,2.5570299365974236
96,-5.924148640773592,-8.34306942429753,-5.914129608261685,-8.338147837081074,5.999999999999998,0.07585135922640607,0.08587039173831279,2.4189207835239386
97,-5.945847381093123,-8.229835799318263,-5.940918892809024,-8.229535747882753,6.0,0.05415261890687706,0.059081107190976034,2.2839884182251398
98,-5.966963757892867,-8.119616557043011,-5.9747969699032595,-8.130059316768584,6.000000000000002,0.033036242107134406,0.025203030096742296,2.152652799150144
99,-5.9866288041985785,-8.011815300145095,-6.015690148033089,-8.039443027252894,5.999999999999999,0.013371195801420654,-0.01569014803308999,2.0251864959465165
100,-6.004775886182248,-7.9065041683341235,-6.062750203097717,-7.956788927836449,6.000000000000002,-0.004775886182246225,-0.06275020309771495,1.9017282821518755
101,-6.051149727582547,-7.833448639405887,-6.114481575718408,-7.880841788005787,6.000000000000001,-0.05114972758254588,-0.11448157571840678,1.7822989118233408
102,-6.268223804491132,-7.935042037325422,-6.169116159290973,-7.810403350614777,5.999999999999998,-0.26822380449113403,-0.1691161592909749,1.6668182328342898
104,-6.288384814091527,-7.781543065883272,-6.225110674357898,-7.744745929729754,6.0,-0.2883848140915273,-0.22511067435789833,1.493158251791745
105,-6.31148567533913,-7.696424045567652,-6.281565358716916,-7.683839601965181,5.999999999999999,-0.31148567533913063,-0.2815653587169171,1.3849383702285227
106,-6.337509859482875,-7.617629619089278,-6.338380169288653,-7.628263257281471,6.0,-0.33750985948287493,-0.3383801692886532,1.2801197596064027
107,-6.3655212192466895,-7.543910853899359,-6.3960718068799025,-7.578798796079031,6.000000000000001,-0.36552121924668857,-0.3960718068799016,1.1783896346526697
108,-6.393958638797428,-7.473375092110645,-6.455323162886902,-7.535852068964887,6.000000000000001,-0.393958638797427,-0.4553231628869012,1.0794164533132178
109,-6.421122036469024,-7.4039851984842,-6.5164580222180515,-7.4989363672850535,5.999999999999999,-0.4211220364690247,-0.5164580222180524,0.9828631620151764
110,-6.670623589413493,-7.559022420913493,-6.579073344109823,-7.466450131064819,5.999999999999999,-0.670623589413494,-0.5790733441098235,0.8883988315000004
111,-6.6946428192791085,-7.490351455881245,-6.642001360642944,-7.435877883821103,6.0,-0.6946428192791085,-0.6420013606429444,0.7957086366021369
112,-6.712039580605437,-7.416541761809756,-6.7036383005382945,-7.40438105600653,6.000000000000001,-0.7120395806054365,-0.7036383005382936,0.7045021812043191
113,-6.725784264129168,-7.340304465382812,-6.762522637975404,-7.369588781928048,6.0,-0.7257842641291683,-0.7625226379754038,0.6145202012536437
114,-6.761683730918861,-7.287223428237741,-6.817938409425853,-7.330312540426636,6.000000000000001,-0.7616837309188602,-0.8179384094258522,0.5255396973188802
115,-6.970360905143906,-7.4077384627283624,-6.8703008754046735,-7.286926166950784,6.000000000000001,-0.970360905143905,-0.8703008754046726,0.43737755758445696
117,-6.973247634631377,-7.268427655034024,-6.921157972012004,-7.241265919094999,5.9999999999999964,-0.973247634631381,-0.9211579720120078,0.2951800204026471
118,-6.972748873964107,-7.182147825073536,-6.972780891434013,-7.19607038988598,6.0,-0.9727488739641066,-0.972780891434013,0.20939895110942963
119,-6.969448625225117,-7.093636627152266,-7.027469046277785,-7.154138245430466,5.999999999999999,-0.9694486252251178,-1.027469046277786,0.12418800192714885
120,-6.972853787766859,-7.012378874848798,-7.086802917430637,-7.1174776591470845,5.999999999999998,-0.9728537877668604,-1.0868029174306386,0.0395250870819388
121,-7.184990731884698,-7.140416874450738,-7.151102384286206,-7.086721363481185,6.0,-1.1849907318846977,-1.1511023842862063,-0.04457385743395981
123,-7.179016122351566,-7.003559067280691,-7.219280224582363,-7.060988392945465,6.0,-1.179016122351566,-1.2192802245823628,-0.17545705507087472
124,-7.360542336183269,-7.103600628574008,-7.289146250005591,-7.038223473622521,6.0,-1.3605423361832694,-1.289146250005591,-0.2569417076092615
125,-7.394019690934415,-7.056400337306731,-7.358063165905211,-7.015888580563752,6.0,-1.3940196909344147,-1.358063165905211,-0.3376193536276837
126,-7.388453982333868,-6.971081154041804,-7.423733945972993,-6.991769791292656,5.999999999999999,-1.3884539823338686,-1.4237339459729936,-0.4173728282920637
128,-7.496248410086379,-6.959352367760582,-7.484855019665897,-6.964631967411613,6.0000000000000036,-1.496248410086375,-1.4848550196658934,-0.5368960423257965
129,-7.608431570843563,-6.995331364109809,-7.541418221623623,-6.934514487473857,6.000000000000001,-1.6084315708435621,-1.5414182216236219,-0.6131002067337539
130,-7.606335413463975,-6.918345374663421,-7.5945697680130895,-6.902590167145091,6.000000000000002,-1.606335413463973,-1.5945697680130877,-0.6879900388005535
131,-7.605335892148895,-6.8438988041121815,-7.646089844263084,-6.870659061301243,6.000000000000001,-1.6053358921488945,-1.6460898442630834,-0.7614370880367138
133,-7.605109361757246,-6.737335097792059,-7.6976861763532085,-6.840467815278022,6.000000000000001,-1.6051093617572452,-1.6976861763532076,-0.8677742639651878
134,-7.784162147822053,-6.847384628397109,-7.750353093545154,-6.8130942395837035,6.000000000000002,-1.7841621478220508,-1.7503530935451526,-0.9367775194249435
135,-7.833740095884881,-6.829691116498055,-7.804012658846285,-6.7885996784049585,6.000000000000002,-1.8337400958848793,-1.8040126588462835,-1.0040489793868261
137,-7.83448078811146,-6.735212712662479,-7.857542029427696,-6.766045139368935,6.0,-1.8344807881114598,-1.8575420294276963,-1.0992680754489812
138,-7.83552974164296,-6.673751709704939,-7.909148727997575,-6.743835070798904,6.0,-1.8355297416429597,-1.9091487279975752,-1.161778031938021
140,-8.029285840223144,-6.780336009742379,-7.956942695594485,-6.7202496730632735,6.0,-2.029285840223144,-1.9569426955944849,-1.2489498304807656
141,-8.066054676741103,-6.759344954895063,-7.99951280646699,-6.6939895935094205,6.0,-2.0660546767411034,-1.9995128064669903,-1.3067097218460408
142,-8.066926938930738,-6.704308284586059,-8.03635362729413,-6.664591295105741,6.000000000000002,-2.0669269389307363,-2.036353627294128,-1.3626186543446788
144,-8.067044219845616,-6.627720844818219,-8.068078214430559,-6.632651995860143,5.999999999999998,-2.0670442198456183,-2.0680782144305603,-1.4393233750273977
145,-8.066433503687584,-6.575779699097941,-8.096443240504978,-6.599883309426621,6.0,-2.066433503687584,-2.0964432405049784,-1.4906538045896425
147,-8.065572767558711,-6.505329613167862,-8.124253922011114,-6.569047688257021,5.999999999999999,-2.065572767558712,-2.124253922011115,-1.5602431543908493
148,-8.125233409128024,-6.518056044704546,-8.155190484339707,-6.5438063298118525,6.0,-2.1252334091280236,-2.155190484339707,-1.6071773644234773
150,-8.2938546616779,-6.623770724383373,-8.19353140522297,-6.528446668346389,6.000000000000001,-2.2938546616778988,-2.193531405222969,-1.6700839372945269
151,-8.295844085218567,-6.583092247676252,-8.243697356532072,-6.527414911788277,6.0,-2.295844085218567,-2.2436973565320724,-1.7127518375423154
153,-8.29873157498928,-6.529419369350451,-8.309555026025212,-6.544601377020296,5.999999999999999,-2.2987315749892803,-2.3095550260252127,-1.769312205638828
154,-8.30193778178013,-6.494197168923729,-8.393518226313867,-6.582426858116019,6.000000000000001,-2.3019377817801283,-2.3935182263138666,-1.8077406128564002
156,-8.383602217034145,-6.5254455197583345,-8.495631275250707,-6.640922788613453,6.000000000000001,-2.383602217034144,-2.495631275250706,-1.8581566972758106
157,-8.555123228047028,-6.662870130347454,-8.612940554375088,-6.717112528132386,5.999999999999999,-2.5551232280470293,-2.612940554375089,-1.8922530976995748
159,-8.768288333323355,-6.831693488646378,-8.739472653207681,-6.805007177267726,6.000000000000002,-2.768288333323353,-2.739472653207679,-1.9365948446769763
160,-8.835113229087453,-6.8689399260283555,-8.867001840617828,-6.896389952712743,6.000000000000001,-2.835113229087452,-2.867001840617827,-1.9661733030590969
162,-9.009092684869414,-7.004667585652909,-8.986536342683056,-6.982310225999049,6.0,-3.0090926848694135,-2.9865363426830562,-2.0044250992165047
164,-9.245873458224967,-7.206677045676834,-9.090176234879355,-7.0549357282065985,5.999999999999999,-3.2458734582249678,-3.0901762348793556,-2.039196412548133
165,-9.255336682749345,-7.1939212796725345,-9.1728138381138,-7.109235120120974,6.0,-3.255336682749345,-3.1728138381138002,-2.0614154030768104
167,-9.26428245821301,-7.174132042879994,-9.233149633282638,-7.1439698799664395,5.999999999999998,-3.264282458213012,-3.2331496332826397,-2.0901504153330164
