frequency,raw
20.00,-10.01
20.20,-9.95
20.40,-9.89
20.61,-9.83
20.81,-9.77
21.02,-9.72
21.23,-9.67
21.44,-9.63
21.66,-9.58
21.87,-9.54
22.09,-9.49
22.31,-9.46
22.54,-9.42
22.76,-9.38
22.99,-9.34
23.22,-9.30
23.45,-9.26
23.69,-9.22
23.92,-9.18
24.16,-9.14
24.40,-9.09
24.65,-9.04
24.89,-8.99
25.14,-8.94
25.39,-8.89
25.65,-8.85
25.91,-8.80
26.16,-8.75
26.43,-8.72
26.69,-8.68
26.96,-8.64
27.23,-8.59
27.50,-8.54
27.77,-8.50
28.05,-8.45
28.33,-8.41
28.62,-8.36
28.90,-8.32
29.19,-8.29
29.48,-8.28
29.78,-8.26
30.08,-8.24
30.38,-8.20
30.68,-8.16
30.99,-8.12
31.30,-8.11
31.61,-8.09
31.93,-8.07
32.24,-8.06
32.57,-8.04
32.89,-8.02
33.22,-7.99
33.55,-7.97
33.89,-7.94
34.23,-7.92
34.57,-7.90
34.92,-7.88
35.27,-7.88
35.62,-7.89
35.97,-7.89
36.33,-7.87
36.70,-7.85
37.06,-7.82
37.43,-7.79
37.81,-7.76
38.19,-7.73
38.57,-7.71
38.95,-7.69
39.34,-7.68
39.74,-7.66
40.14,-7.64
40.54,-7.61
40.94,-7.57
41.35,-7.53
41.76,-7.49
42.18,-7.45
42.60,-7.42
43.03,-7.40
43.46,-7.38
43.90,-7.36
44.33,-7.32
44.78,-7.27
45.23,-7.23
45.68,-7.18
46.13,-7.14
46.60,-7.10
47.06,-7.06
47.53,-7.02
48.01,-6.99
48.49,-6.96
48.97,-6.92
49.46,-6.87
49.96,-6.81
50.46,-6.80
50.96,-6.79
51.47,-6.79
51.99,-6.78
52.51,-6.77
53.03,-6.76
53.56,-6.70
54.10,-6.64
54.64,-6.55
55.18,-6.49
55.74,-6.45
56.29,-6.42
56.86,-6.39
57.42,-6.36
58.00,-6.34
58.58,-6.34
59.16,-6.34
59.76,-6.34
60.35,-6.36
60.96,-6.39
61.57,-6.40
62.18,-6.41
62.80,-6.42
63.43,-6.41
64.07,-6.39
64.71,-6.35
65.35,-6.31
66.01,-6.27
66.67,-6.18
67.33,-6.09
68.01,-6.02
68.69,-5.92
69.37,-5.83
70.07,-5.77
70.77,-5.72
71.48,-5.69
72.19,-5.66
72.91,-5.64
73.64,-5.61
74.38,-5.59
75.12,-5.59
75.87,-5.57
76.63,-5.54
77.40,-5.50
78.17,-5.46
78.95,-5.43
79.74,-5.38
80.54,-5.36
81.35,-5.36
82.16,-5.36
82.98,-5.36
83.81,-5.36
84.65,-5.36
85.50,-5.36
86.35,-5.35
87.22,-5.34
88.09,-5.40
88.97,-5.48
89.86,-5.53
90.76,-5.55
91.66,-5.53
92.58,-5.52
93.51,-5.54
94.44,-5.55
95.39,-5.55
96.34,-5.55
97.30,-5.55
98.28,-5.55
99.26,-5.55
100.25,-5.55
101.25,-5.55
102.27,-5.55
103.29,-5.55
104.32,-5.55
105.37,-5.55
106.42,-5.57
107.48,-5.61
108.56,-5.66
109.64,-5.70
110.74,-5.75
111.85,-5.78
112.97,-5.73
114.10,-5.73
115.24,-5.74
116.39,-5.76
117.55,-5.78
118.73,-5.78
119.92,-5.78
121.12,-5.78
122.33,-5.77
123.55,-5.76
124.79,-5.76
126.03,-5.77
127.29,-5.78
128.57,-5.78
129.85,-5.78
131.15,-5.78
132.46,-5.77
133.79,-5.74
135.12,-5.73
136.48,-5.75
137.84,-5.78
139.22,-5.78
140.61,-5.78
142.02,-5.78
143.44,-5.74
144.87,-5.73
146.32,-5.73
147.78,-5.73
149.26,-5.76
150.75,-5.78
152.26,-5.78
153.78,-5.76
155.32,-5.74
156.88,-5.73
158.44,-5.73
160.03,-5.75
161.63,-5.73
163.24,-5.71
164.88,-5.66
166.53,-5.63
168.19,-5.58
169.87,-5.55
171.57,-5.55
173.29,-5.55
175.02,-5.55
176.77,-5.55
178.54,-5.55
180.32,-5.55
182.13,-5.55
183.95,-5.55
185.79,-5.55
187.65,-5.55
189.52,-5.55
191.42,-5.55
193.33,-5.55
195.27,-5.55
197.22,-5.55
199.19,-5.55
201.18,-5.55
203.19,-5.55
205.23,-5.55
207.28,-5.55
209.35,-5.55
211.44,-5.55
213.56,-5.55
215.69,-5.55
217.85,-5.55
220.03,-5.55
222.23,-5.55
224.45,-5.54
226.70,-5.52
228.96,-5.52
231.25,-5.54
233.57,-5.55
235.90,-5.55
238.26,-5.55
240.64,-5.55
243.05,-5.55
245.48,-5.55
247.93,-5.55
250.41,-5.51
252.92,-5.48
255.45,-5.44
258.00,-5.39
260.58,-5.36
263.19,-5.36
265.82,-5.36
268.48,-5.36
271.16,-5.36
273.87,-5.36
276.61,-5.36
279.38,-5.34
282.17,-5.28
284.99,-5.23
287.84,-5.18
290.72,-5.17
293.63,-5.17
296.57,-5.17
299.53,-5.17
302.53,-5.17
305.55,-5.17
308.61,-5.14
311.69,-5.13
314.81,-5.09
317.96,-5.08
321.14,-5.08
324.35,-5.08
327.59,-5.07
330.87,-5.04
334.18,-5.01
337.52,-4.97
340.90,-4.95
344.30,-4.94
347.75,-4.91
351.23,-4.89
354.74,-4.89
358.28,-4.89
361.87,-4.89
365.49,-4.84
369.14,-4.79
372.83,-4.74
376.56,-4.71
380.33,-4.70
384.13,-4.65
387.97,-4.60
391.85,-4.55
395.77,-4.49
399.73,-4.47
403.72,-4.47
407.76,-4.47
411.84,-4.47
415.96,-4.43
420.12,-4.37
424.32,-4.32
428.56,-4.30
432.85,-4.28
437.18,-4.25
441.55,-4.21
445.96,-4.18
450.42,-4.15
454.93,-4.10
459.48,-4.06
464.07,-4.04
468.71,-3.99
473.40,-3.94
478.13,-3.88
482.91,-3.87
487.74,-3.83
492.62,-3.82
497.55,-3.81
502.52,-3.76
507.55,-3.72
512.62,-3.68
517.75,-3.65
522.93,-3.60
528.16,-3.57
533.44,-3.53
538.77,-3.47
544.16,-3.40
549.60,-3.33
555.10,-3.25
560.65,-3.21
566.25,-3.16
571.92,-3.11
577.64,-3.07
583.41,-3.02
589.25,-2.96
595.14,-2.89
601.09,-2.83
607.10,-2.76
613.17,-2.70
619.30,-2.67
625.50,-2.63
631.75,-2.56
638.07,-2.49
644.45,-2.39
650.89,-2.33
657.40,-2.27
663.98,-2.20
670.62,-2.13
677.32,-2.05
684.10,-1.99
690.94,-1.95
697.85,-1.92
704.83,-1.91
711.87,-1.91
718.99,-1.93
726.18,-1.95
733.44,-1.98
740.78,-2.01
748.19,-2.04
755.67,-2.07
763.23,-2.09
770.86,-2.10
778.57,-2.08
786.35,-2.05
794.22,-2.02
802.16,-1.94
810.18,-1.87
818.28,-1.77
826.46,-1.65
834.73,-1.52
843.08,-1.37
851.51,-1.19
860.02,-1.05
868.62,-0.93
877.31,-0.84
886.08,-0.78
894.94,-0.72
903.89,-0.67
912.93,-0.64
922.06,-0.56
931.28,-0.46
940.59,-0.39
950.00,-0.28
959.50,-0.21
969.09,-0.13
978.78,-0.07
988.57,-0.04
998.46,-0.01
1008.44,0.00
1018.53,0.00
1028.71,0.00
1039.00,0.00
1049.39,0.00
1059.88,-0.02
1070.48,-0.04
1081.19,-0.09
1092.00,-0.13
1102.92,-0.14
1113.95,-0.17
1125.09,-0.22
1136.34,-0.28
1147.70,-0.31
1159.18,-0.28
1170.77,-0.25
1182.48,-0.22
1194.30,-0.17
1206.25,-0.11
1218.31,-0.06
1230.49,0.03
1242.80,0.12
1255.22,0.22
1267.78,0.33
1280.45,0.44
1293.26,0.53
1306.19,0.60
1319.25,0.61
1332.45,0.64
1345.77,0.66
1359.23,0.66
1372.82,0.71
1386.55,0.74
1400.41,0.79
1414.42,0.80
1428.56,0.80
1442.85,0.82
1457.28,0.86
1471.85,0.92
1486.57,1.01
1501.43,1.08
1516.45,1.10
1531.61,1.06
1546.93,1.02
1562.40,0.99
1578.02,0.96
1593.80,0.94
1609.74,0.92
1625.84,0.88
1642.10,0.83
1658.52,0.78
1675.10,0.72
1691.85,0.70
1708.77,0.70
1725.86,0.70
1743.12,0.70
1760.55,0.70
1778.15,0.68
1795.94,0.65
1813.90,0.60
1832.03,0.55
1850.36,0.48
1868.86,0.42
1887.55,0.32
1906.42,0.17
1925.49,0.05
1944.74,-0.08
1964.19,-0.22
1983.83,-0.33
2003.67,-0.48
2023.71,-0.64
2043.94,-0.81
2064.38,-1.03
2085.03,-1.24
2105.88,-1.46
2126.94,-1.67
2148.20,-1.83
2169.69,-1.94
2191.38,-2.01
2213.30,-2.05
2235.43,-2.07
2257.78,-2.06
2280.36,-2.05
2303.17,-2.03
2326.20,-1.94
2349.46,-1.83
2372.95,-1.65
2396.68,-1.39
2420.65,-1.07
2444.86,-0.71
2469.31,-0.34
2494.00,0.02
2518.94,0.35
2544.13,0.64
2569.57,0.86
2595.27,1.05
2621.22,1.21
2647.43,1.37
2673.90,1.49
2700.64,1.63
2727.65,1.78
2754.93,1.94
2782.48,2.12
2810.30,2.29
2838.40,2.48
2866.79,2.65
2895.46,2.83
2924.41,2.98
2953.65,3.10
2983.19,3.18
3013.02,3.25
3043.15,3.30
3073.58,3.31
3104.32,3.31
3135.36,3.31
3166.72,3.31
3198.38,3.31
3230.37,3.31
3262.67,3.35
3295.30,3.37
3328.25,3.40
3361.53,3.46
3395.15,3.53
3429.10,3.60
3463.39,3.71
3498.03,3.80
3533.01,3.94
3568.34,4.13
3604.02,4.33
3640.06,4.57
3676.46,4.78
3713.22,4.92
3750.36,5.00
3787.86,5.04
3825.74,5.04
3864.00,5.02
3902.64,5.00
3941.66,4.97
3981.08,4.93
4020.89,4.89
4061.10,4.84
4101.71,4.81
4142.73,4.77
4184.15,4.76
4226.00,4.76
4268.26,4.76
4310.94,4.78
4354.05,4.82
4397.59,4.88
4441.56,4.95
4485.98,5.01
4530.84,5.11
4576.15,5.20
4621.91,5.31
4668.13,5.41
4714.81,5.50
4761.96,5.57
4809.58,5.64
4857.67,5.65
4906.25,5.65
4955.31,5.57
5004.87,5.45
5054.91,5.29
5105.46,5.05
5156.52,4.72
5208.08,4.32
5260.16,3.85
5312.77,3.31
5365.89,2.68
5419.55,2.04
5473.75,1.42
5528.49,0.76
5583.77,0.14
5639.61,-0.44
5696.00,-1.10
5752.96,-1.76
5810.49,-2.45
5868.60,-3.18
5927.28,-3.87
5986.56,-4.49
6046.42,-5.03
6106.89,-5.45
6167.96,-5.74
6229.64,-5.89
6291.93,-5.80
6354.85,-5.57
6418.40,-5.25
6482.58,-4.89
6547.41,-4.51
6612.88,-4.18
6679.01,-3.89
6745.80,-3.65
6813.26,-3.49
6881.39,-3.39
6950.21,-3.34
7019.71,-3.41
7089.91,-3.56
7160.81,-3.77
7232.41,-4.01
7304.74,-4.29
7377.79,-4.51
7451.56,-4.73
7526.08,-4.93
7601.34,-5.06
7677.35,-5.18
7754.13,-5.31
7831.67,-5.43
7909.98,-5.54
7989.08,-5.58
8068.98,-5.59
8149.67,-5.59
8231.16,-5.60
8313.47,-5.65
8396.61,-5.75
8480.57,-5.97
8565.38,-6.30
8651.03,-6.80
8737.54,-7.46
8824.92,-8.27
8913.17,-9.16
9002.30,-10.01
9092.32,-10.73
9183.25,-11.23
9275.08,-11.52
9367.83,-11.50
9461.51,-11.36
9556.12,-11.20
9651.68,-11.05
9748.20,-10.92
9845.68,-10.79
9944.14,-10.60
10043.58,-10.33
10144.02,-9.87
10245.46,-9.29
10347.91,-8.58
10451.39,-7.72
10555.91,-6.87
10661.46,-6.10
10768.08,-5.40
10875.76,-4.84
10984.52,-4.44
11094.36,-4.14
11205.31,-3.92
11317.36,-3.79
11430.53,-3.73
11544.84,-3.79
11660.29,-3.90
11776.89,-4.08
11894.66,-4.25
12013.60,-4.41
12133.74,-4.57
12255.08,-4.77
12377.63,-4.93
12501.41,-5.13
12626.42,-5.39
12752.68,-5.70
12880.21,-6.13
13009.01,-6.74
13139.10,-7.42
13270.49,-8.17
13403.20,-8.98
13537.23,-9.78
13672.60,-10.54
13809.33,-11.24
13947.42,-11.86
14086.90,-12.38
14227.77,-12.88
14370.04,-13.39
14513.74,-13.98
14658.88,-14.72
14805.47,-15.50
14953.52,-16.24
15103.06,-16.89
15254.09,-17.32
15406.63,-17.29
15560.70,-16.86
15716.30,-16.17
15873.47,-15.30
16032.20,-14.37
16192.52,-13.52
16354.45,-12.83
16517.99,-12.32
16683.17,-11.97
16850.01,-11.82
17018.51,-12.00
17188.69,-12.41
17360.58,-13.01
17534.18,-13.63
17709.53,-14.24
17886.62,-14.75
18065.49,-15.07
18246.14,-15.01
18428.60,-14.75
18612.89,-14.40
18799.02,-14.01
18987.01,-13.69
19176.88,-13.47
19368.65,-13.47
19562.33,-13.61
19757.96,-13.81
19955.54,-13.97
