frequency,raw,error,smoothed,error_smoothed,equalization,parametric_eq,equalized_raw,equalized_smoothed,target
20,-8.76,-15.93,-8.64,-15.81,6.00,2.89,-2.76,-2.64,7.17
21,-7.88,-15.05,-8.00,-15.17,6.00,3.32,-1.88,-2.00,7.17
22,-7.25,-14.42,-7.38,-14.54,6.00,3.78,-1.25,-1.38,7.17
23,-6.81,-13.98,-6.78,-13.95,6.00,4.27,-0.81,-0.78,7.17
24,-6.26,-13.43,-6.20,-13.37,6.00,4.80,-0.26,-0.20,7.17
25,-5.75,-12.92,-5.65,-12.81,6.00,5.33,0.25,0.35,7.17
26,-5.15,-12.32,-5.12,-12.28,6.00,5.87,0.85,0.88,7.17
27,-4.57,-11.74,-4.61,-11.77,6.00,6.38,1.43,1.39,7.17
28,-4.08,-11.25,-4.12,-11.29,6.00,6.82,1.92,1.88,7.17
29,-3.61,-10.78,-3.66,-10.82,6.00,7.18,2.39,2.34,7.17
30,-3.17,-10.34,-3.21,-10.38,6.00,7.42,2.83,2.79,7.17
31,-2.67,-9.84,-2.79,-9.95,6.00,7.52,3.33,3.21,7.17
32,-2.31,-9.48,-2.38,-9.55,6.00,7.50,3.69,3.62,7.17
33,-1.99,-9.16,-1.99,-9.15,6.00,7.36,4.01,4.01,7.17
34,-1.64,-8.81,-1.60,-8.77,6.00,7.13,4.36,4.40,7.17
35,-1.31,-8.48,-1.23,-8.40,6.00,6.84,4.69,4.77,7.17
36,-0.98,-8.15,-0.87,-8.03,6.00,6.51,5.02,5.13,7.17
37,-0.65,-7.82,-0.51,-7.67,6.00,6.17,5.35,5.49,7.17
38,-0.21,-7.38,-0.15,-7.32,6.00,5.83,5.79,5.85,7.17
39,0.16,-7.01,0.19,-6.97,6.00,5.50,6.16,6.19,7.17
40,0.53,-6.64,0.54,-6.63,5.95,5.19,6.48,6.49,7.17
41,0.97,-6.20,0.87,-6.30,5.86,4.90,6.83,6.73,7.17
42,1.19,-5.98,1.19,-5.97,5.72,4.63,6.91,6.91,7.17
43,1.51,-5.66,1.50,-5.66,5.54,4.38,7.05,7.04,7.17
44,1.91,-5.26,1.80,-5.37,5.33,4.15,7.24,7.13,7.17
45,2.10,-5.07,2.08,-5.08,5.08,3.94,7.18,7.17,7.17
46,2.27,-4.90,2.35,-4.82,4.82,3.75,7.09,7.17,7.17
47,2.67,-4.50,2.60,-4.57,4.57,3.58,7.24,7.17,7.17
48,2.91,-4.26,2.83,-4.33,4.33,3.42,7.24,7.17,7.17
49,3.05,-4.12,3.05,-4.12,4.12,3.28,7.17,7.17,7.17
50,3.24,-3.93,3.25,-3.92,3.92,3.15,7.16,7.17,7.17
51,3.43,-3.74,3.44,-3.73,3.73,3.04,7.16,7.17,7.17
52,3.57,-3.60,3.61,-3.55,3.55,2.93,7.12,7.17,7.17
53,3.85,-3.32,3.78,-3.39,3.39,2.84,7.24,7.17,7.17
54,3.89,-3.28,3.94,-3.23,3.23,2.75,7.12,7.17,7.17
55,4.03,-3.14,4.09,-3.08,3.08,2.68,7.11,7.17,7.17
56,4.22,-2.95,4.23,-2.94,2.94,2.61,7.16,7.17,7.17
57,4.37,-2.80,4.37,-2.80,2.80,2.55,7.17,7.17,7.17
58,4.54,-2.63,4.50,-2.67,2.67,2.49,7.21,7.17,7.17
59,4.54,-2.63,4.62,-2.54,2.54,2.44,7.08,7.17,7.17
60,4.70,-2.47,4.74,-2.42,2.42,2.40,7.12,7.17,7.17
61,4.86,-2.31,4.86,-2.31,2.31,2.36,7.17,7.17,7.17
62,4.86,-2.31,4.96,-2.20,2.20,2.32,7.06,7.17,7.17
63,5.16,-2.01,5.05,-2.11,2.11,2.29,7.27,7.17,7.17
64,5.19,-1.98,5.14,-2.03,2.03,2.26,7.22,7.17,7.17
65,5.19,-1.98,5.21,-1.96,1.96,2.24,7.15,7.17,7.17
66,5.21,-1.96,5.26,-1.90,1.90,2.22,7.11,7.17,7.17
67,5.35,-1.82,5.31,-1.86,1.86,2.20,7.21,7.17,7.17
68,5.39,-1.78,5.33,-1.83,1.83,2.19,7.22,7.17,7.17
69,5.51,-1.66,5.35,-1.82,1.82,2.18,7.33,7.17,7.17
70,5.48,-1.69,5.35,-1.82,1.82,2.17,7.30,7.17,7.17
71,5.32,-1.85,5.34,-1.83,1.83,2.17,7.15,7.17,7.17
72,5.19,-1.98,5.32,-1.85,1.85,2.17,7.04,7.17,7.17
73,5.19,-1.98,5.29,-1.87,1.87,2.17,7.06,7.17,7.17
74,5.19,-1.98,5.26,-1.91,1.91,2.18,7.10,7.17,7.17
75,5.19,-1.98,5.22,-1.95,1.95,2.19,7.14,7.17,7.17
76,5.19,-1.98,5.18,-1.99,1.99,2.20,7.18,7.17,7.17
77,5.19,-1.98,5.14,-2.03,2.03,2.21,7.22,7.17,7.17
78,5.19,-1.98,5.10,-2.07,2.07,2.22,7.26,7.17,7.17
79,5.08,-2.09,5.06,-2.11,2.11,2.24,7.19,7.17,7.17
80,5.03,-2.14,5.02,-2.14,2.14,2.26,7.17,7.17,7.17
81,4.96,-2.21,4.99,-2.18,2.18,2.28,7.14,7.17,7.17
82,4.86,-2.31,4.96,-2.21,2.21,2.31,7.07,7.17,7.17
83,4.86,-2.31,4.93,-2.23,2.23,2.34,7.09,7.17,7.17
84,4.86,-2.31,4.91,-2.26,2.26,2.37,7.12,7.17,7.17
85,4.86,-2.31,4.89,-2.28,2.28,2.40,7.14,7.17,7.17
86,4.86,-2.31,4.87,-2.30,2.30,2.43,7.16,7.17,7.17
87,4.86,-2.31,4.85,-2.31,2.31,2.47,7.17,7.17,7.17
88,4.86,-2.31,4.83,-2.33,2.33,2.50,7.19,7.17,7.17
89,4.86,-2.31,4.81,-2.35,2.35,2.54,7.21,7.17,7.17
90,4.86,-2.31,4.79,-2.38,2.38,2.58,7.24,7.17,7.17
91,4.86,-2.31,4.76,-2.40,2.40,2.63,7.26,7.17,7.17
92,4.82,-2.35,4.74,-2.43,2.43,2.67,7.25,7.17,7.17
93,4.70,-2.47,4.71,-2.46,2.46,2.72,7.16,7.17,7.17
94,4.58,-2.59,4.68,-2.49,2.49,2.76,7.07,7.17,7.17
95,4.54,-2.63,4.64,-2.52,2.52,2.81,7.06,7.17,7.17
96,4.54,-2.63,4.61,-2.56,2.56,2.86,7.10,7.17,7.17
97,4.54,-2.63,4.58,-2.59,2.59,2.91,7.13,7.17,7.17
98,4.54,-2.63,4.54,-2.62,2.62,2.96,7.16,7.17,7.17
99,4.54,-2.63,4.51,-2.66,2.66,3.02,7.20,7.17,7.17
100,4.54,-2.63,4.47,-2.70,2.70,3.07,7.24,7.17,7.17
101,4.54,-2.63,4.43,-2.73,2.73,3.12,7.27,7.17,7.17
102,4.47,-2.70,4.39,-2.77,2.77,3.18,7.24,7.17,7.17
104,4.25,-2.92,4.35,-2.81,2.81,3.29,7.06,7.17,7.17
105,4.22,-2.95,4.31,-2.85,2.85,3.34,7.07,7.17,7.17
106,4.22,-2.95,4.27,-2.90,2.90,3.39,7.12,7.17,7.17
107,4.22,-2.95,4.22,-2.94,2.94,3.45,7.16,7.17,7.17
108,4.22,-2.95,4.17,-2.99,2.99,3.50,7.21,7.17,7.17
109,4.21,-2.96,4.12,-3.04,3.04,3.55,7.25,7.17,7.17
110,4.10,-3.07,4.07,-3.09,3.09,3.60,7.19,7.17,7.17
111,4.00,-3.17,4.02,-3.15,3.15,3.65,7.15,7.17,7.17
112,3.90,-3.27,3.97,-3.20,3.20,3.70,7.10,7.17,7.17
113,3.89,-3.28,3.91,-3.25,3.25,3.74,7.14,7.17,7.17
114,3.89,-3.28,3.86,-3.31,3.31,3.78,7.20,7.17,7.17
115,3.89,-3.28,3.81,-3.36,3.36,3.83,7.25,7.17,7.17
117,3.73,-3.44,3.75,-3.41,3.41,3.91,7.14,7.17,7.17
118,3.63,-3.54,3.70,-3.47,3.47,3.94,7.10,7.17,7.17
119,3.57,-3.60,3.65,-3.52,3.52,3.97,7.09,7.17,7.17
120,3.57,-3.60,3.59,-3.57,3.57,4.01,7.14,7.17,7.17
121,3.57,-3.60,3.54,-3.62,3.62,4.04,7.19,7.17,7.17
123,3.57,-3.60,3.49,-3.68,3.68,4.09,7.25,7.17,7.17
124,3.55,-3.62,3.44,-3.73,3.73,4.11,7.28,7.17,7.17
125,3.37,-3.80,3.39,-3.78,3.78,4.13,7.15,7.17,7.17
126,3.24,-3.93,3.34,-3.83,3.83,4.14,7.07,7.17,7.17
128,3.24,-3.93,3.29,-3.88,3.88,4.17,7.12,7.17,7.17
129,3.24,-3.93,3.24,-3.93,3.93,4.18,7.17,7.17,7.17
130,3.24,-3.93,3.19,-3.97,3.97,4.19,7.21,7.17,7.17
131,3.24,-3.93,3.14,-4.02,4.02,4.20,7.26,7.17,7.17
133,3.09,-4.08,3.10,-4.06,4.06,4.21,7.15,7.17,7.17
134,3.01,-4.16,3.06,-4.11,4.11,4.22,7.12,7.17,7.17
135,2.92,-4.25,3.02,-4.15,4.15,4.22,7.07,7.17,7.17
137,2.92,-4.25,2.98,-4.19,4.19,4.22,7.11,7.17,7.17
138,2.92,-4.25,2.94,-4.23,4.23,4.22,7.15,7.17,7.17
140,2.92,-4.25,2.90,-4.26,4.26,4.21,7.18,7.17,7.17
141,2.92,-4.25,2.87,-4.30,4.30,4.21,7.22,7.17,7.17
142,2.92,-4.25,2.83,-4.34,4.34,4.21,7.26,7.17,7.17
144,2.84,-4.33,2.79,-4.38,4.38,4.20,7.22,7.17,7.17
145,2.77,-4.40,2.74,-4.42,4.42,4.20,7.19,7.17,7.17
147,2.61,-4.56,2.70,-4.46,4.46,4.19,7.07,7.17,7.17
148,2.59,-4.58,2.66,-4.51,4.51,4.19,7.10,7.17,7.17
150,2.59,-4.58,2.61,-4.56,4.56,4.19,7.15,7.17,7.17
151,2.59,-4.58,2.56,-4.61,4.61,4.19,7.20,7.17,7.17
153,2.59,-4.58,2.51,-4.66,4.66,4.19,7.25,7.17,7.17
154,2.55,-4.62,2.45,-4.71,4.71,4.19,7.26,7.17,7.17
156,2.27,-4.90,2.40,-4.77,4.77,4.20,7.04,7.17,7.17
157,2.27,-4.90,2.35,-4.82,4.82,4.20,7.09,7.17,7.17
159,2.27,-4.90,2.29,-4.88,4.88,4.21,7.15,7.17,7.17
160,2.27,-4.90,2.23,-4.93,4.93,4.22,7.20,7.17,7.17
162,2.27,-4.90,2.17,-4.99,4.99,4.23,7.26,7.17,7.17
164,2.10,-5.07,2.11,-5.05,5.05,4.25,7.15,7.17,7.17
165,1.97,-5.20,2.05,-5.11,5.11,4.27,7.08,7.17,7.17
167,1.95,-5.22,1.99,-5.18,5.18,4.29,7.13,7.17,7.17
169,1.95,-5.22,1.92,-5.24,5.24,4.32,7.19,7.17,7.17
170,1.94,-5.23,1.85,-5.31,5.31,4.34,7.25,7.17,7.17
172,1.81,-5.36,1.78,-5.38,5.38,4.38,7.19,7.17,7.17
174,1.68,-5.49,1.71,-5.46,5.46,4.42,7.14,7.17,7.17
175,1.62,-5.55,1.63,-5.54,5.54,4.44,7.16,7.17,7.17
177,1.62,-5.55,1.55,-5.62,5.62,4.48,7.24,7.17,7.17
179,1.42,-5.75,1.47,-5.70,5.70,4.54,7.12,7.17,7.17
181,1.30,-5.87,1.38,-5.78,5.78,4.59,7.08,7.17,7.17
183,1.30,-5.87,1.30,-5.87,5.85,4.65,7.15,7.15,7.17
184,1.30,-5.87,1.21,-5.95,5.88,4.68,7.18,7.10,7.17
186,1.21,-5.96,1.13,-6.04,5.93,4.74,7.14,7.06,7.17
188,0.97,-6.20,1.05,-6.12,5.97,4.80,6.94,7.02,7.17
190,0.97,-6.20,0.97,-6.20,5.99,4.87,6.96,6.96,7.17
192,0.89,-6.28,0.89,-6.27,6.00,4.94,6.89,6.89,7.17
194,0.78,-6.39,0.82,-6.35,6.00,5.02,6.78,6.82,7.17
196,0.66,-6.51,0.75,-6.42,6.00,5.09,6.66,6.75,7.17
198,0.65,-6.52,0.68,-6.48,6.00,5.17,6.65,6.68,7.17
200,0.65,-6.52,0.62,-6.55,6.00,5.25,6.65,6.62,7.17
202,0.64,-6.53,0.56,-6.60,6.00,5.33,6.64,6.56,7.17
204,0.53,-6.64,0.50,-6.66,6.00,5.41,6.53,6.50,7.17
206,0.42,-6.75,0.45,-6.72,6.00,5.49,6.42,6.45,7.17
208,0.32,-6.85,0.40,-6.77,6.00,5.57,6.32,6.40,7.17
210,0.32,-6.85,0.34,-6.82,6.00,5.65,6.32,6.34,7.17
212,0.32,-6.85,0.29,-6.87,6.00,5.73,6.32,6.29,7.17
214,0.32,-6.85,0.24,-6.93,6.00,5.81,6.32,6.24,7.17
216,0.21,-6.96,0.18,-6.98,6.00,5.89,6.21,6.18,7.17
218,0.11,-7.06,0.12,-7.04,6.00,5.96,6.11,6.12,7.17
221,0.00,-7.17,0.06,-7.10,6.00,6.08,6.00,6.06,7.17
223,0.00,-7.17,-0.00,-7.17,6.00,6.15,6.00,6.00,7.17
225,0.00,-7.17,-0.07,-7.23,6.00,6.21,6.00,5.93,7.17
227,-0.05,-7.22,-0.14,-7.30,6.00,6.28,5.95,5.86,7.17
229,-0.25,-7.42,-0.21,-7.37,6.00,6.34,5.75,5.79,7.17
232,-0.32,-7.49,-0.28,-7.45,6.00,6.42,5.68,5.72,7.17
234,-0.32,-7.49,-0.35,-7.52,6.00,6.47,5.68,5.65,7.17
236,-0.32,-7.49,-0.42,-7.58,6.00,6.52,5.68,5.58,7.17
239,-0.44,-7.61,-0.48,-7.65,6.00,6.58,5.56,5.52,7.17
241,-0.54,-7.71,-0.54,-7.70,6.00,6.61,5.46,5.46,7.17
244,-0.65,-7.82,-0.58,-7.75,6.00,6.65,5.35,5.42,7.17
246,-0.65,-7.82,-0.62,-7.78,6.00,6.68,5.35,5.38,7.17
248,-0.65,-7.82,-0.64,-7.80,6.00,6.69,5.35,5.36,7.17
251,-0.65,-7.82,-0.64,-7.81,6.00,6.71,5.35,5.36,7.17
253,-0.65,-7.82,-0.63,-7.79,6.00,6.71,5.35,5.37,7.17
256,-0.65,-7.82,-0.59,-7.76,6.00,6.71,5.35,5.41,7.17
259,-0.59,-7.76,-0.54,-7.71,6.00,6.69,5.41,5.46,7.17
261,-0.51,-7.68,-0.47,-7.63,6.00,6.68,5.49,5.53,7.17
264,-0.38,-7.55,-0.38,-7.54,6.00,6.65,5.62,5.62,7.17
266,-0.29,-7.46,-0.27,-7.43,6.00,6.63,5.71,5.73,7.17
269,-0.17,-7.34,-0.14,-7.31,6.00,6.59,5.83,5.86,7.17
272,-0.04,-7.21,-0.01,-7.17,6.00,6.54,5.96,5.99,7.17
274,0.08,-7.09,0.14,-7.02,6.00,6.51,6.08,6.14,7.17
277,0.33,-6.84,0.30,-6.87,6.00,6.46,6.33,6.30,7.17
280,0.45,-6.72,0.46,-6.71,6.00,6.40,6.45,6.46,7.17
283,0.65,-6.52,0.62,-6.55,6.00,6.34,6.65,6.62,7.17
286,0.85,-6.32,0.78,-6.39,6.00,6.28,6.85,6.78,7.17
288,0.93,-6.24,0.93,-6.23,5.99,6.24,6.92,6.92,7.17
291,1.12,-6.05,1.08,-6.09,5.94,6.17,7.06,7.02,7.17
294,1.30,-5.87,1.22,-5.95,5.87,6.11,7.17,7.09,7.17
297,1.30,-5.87,1.35,-5.81,5.78,6.05,7.08,7.13,7.17
300,1.48,-5.69,1.47,-5.69,5.68,5.99,7.16,7.15,7.17
303,1.62,-5.55,1.58,-5.59,5.59,5.93,7.21,7.17,7.17
306,1.62,-5.55,1.67,-5.49,5.49,5.87,7.11,7.17,7.17
309,1.72,-5.45,1.76,-5.41,5.41,5.82,7.13,7.17,7.17
312,1.83,-5.34,1.83,-5.34,5.34,5.76,7.17,7.17,7.17
316,1.95,-5.22,1.88,-5.29,5.29,5.70,7.24,7.17,7.17
319,1.95,-5.22,1.92,-5.24,5.24,5.65,7.19,7.17,7.17
322,1.95,-5.22,1.95,-5.22,5.22,5.61,7.17,7.17,7.17
325,1.95,-5.22,1.96,-5.21,5.21,5.57,7.16,7.17,7.17
328,1.95,-5.22,1.96,-5.21,5.21,5.53,7.16,7.17,7.17
332,1.95,-5.22,1.94,-5.22,5.22,5.49,7.17,7.17,7.17
335,1.95,-5.22,1.91,-5.25,5.25,5.46,7.20,7.17,7.17
338,1.95,-5.22,1.87,-5.30,5.30,5.44,7.25,7.17,7.17
342,1.83,-5.34,1.82,-5.35,5.35,5.41,7.18,7.17,7.17
345,1.74,-5.43,1.76,-5.41,5.41,5.39,7.15,7.17,7.17
349,1.62,-5.55,1.68,-5.48,5.48,5.37,7.10,7.17,7.17
352,1.62,-5.55,1.61,-5.56,5.56,5.36,7.18,7.17,7.17
356,1.54,-5.63,1.53,-5.64,5.64,5.35,7.18,7.17,7.17
359,1.45,-5.72,1.44,-5.72,5.72,5.35,7.17,7.17,7.17
363,1.32,-5.85,1.36,-5.81,5.81,5.35,7.13,7.17,7.17
366,1.30,-5.87,1.27,-5.89,5.86,5.35,7.16,7.13,7.17
370,1.24,-5.93,1.19,-5.97,5.91,5.36,7.15,7.10,7.17
374,1.00,-6.17,1.11,-6.05,5.95,5.37,6.95,7.07,7.17
377,0.97,-6.20,1.04,-6.13,5.97,5.38,6.94,7.01,7.17
381,0.97,-6.20,0.97,-6.20,5.99,5.40,6.96,6.96,7.17
385,0.97,-6.20,0.91,-6.26,6.00,5.43,6.97,6.91,7.17
389,0.87,-6.30,0.85,-6.32,6.00,5.45,6.87,6.85,7.17
393,0.75,-6.42,0.79,-6.38,6.00,5.48,6.75,6.79,7.17
397,0.65,-6.52,0.74,-6.43,6.00,5.52,6.65,6.74,7.17
401,0.65,-6.52,0.69,-6.48,6.00,5.55,6.65,6.69,7.17
405,0.65,-6.52,0.64,-6.52,6.00,5.59,6.65,6.64,7.17
409,0.65,-6.52,0.60,-6.57,6.00,5.63,6.65,6.60,7.17
413,0.65,-6.52,0.55,-6.61,6.00,5.67,6.65,6.55,7.17
417,0.57,-6.60,0.51,-6.66,6.00,5.71,6.57,6.51,7.17
421,0.46,-6.71,0.47,-6.70,6.00,5.76,6.46,6.47,7.17
425,0.35,-6.82,0.42,-6.74,6.00,5.80,6.35,6.42,7.17
430,0.32,-6.85,0.38,-6.79,6.00,5.86,6.32,6.38,7.17
434,0.32,-6.85,0.34,-6.83,6.00,5.90,6.32,6.34,7.17
438,0.32,-6.85,0.29,-6.87,6.00,5.94,6.32,6.29,7.17
443,0.32,-6.85,0.25,-6.92,6.00,6.00,6.32,6.25,7.17
447,0.27,-6.90,0.21,-6.96,6.00,6.04,6.27,6.21,7.17
451,0.17,-7.00,0.17,-7.00,6.00,6.08,6.17,6.17,7.17
456,0.05,-7.12,0.12,-7.04,6.00,6.12,6.05,6.12,7.17
460,0.00,-7.17,0.08,-7.08,6.00,6.16,6.00,6.08,7.17
465,0.00,-7.17,0.04,-7.12,6.00,6.20,6.00,6.04,7.17
470,0.00,-7.17,0.00,-7.17,6.00,6.23,6.00,6.00,7.17
474,0.00,-7.17,-0.04,-7.21,6.00,6.26,6.00,5.96,7.17
479,0.00,-7.17,-0.08,-7.24,6.00,6.29,6.00,5.92,7.17
484,0.00,-7.17,-0.12,-7.28,6.00,6.31,6.00,5.88,7.17
489,-0.10,-7.27,-0.15,-7.32,6.00,6.33,5.90,5.85,7.17
494,-0.21,-7.38,-0.18,-7.35,6.00,6.34,5.79,5.82,7.17
499,-0.32,-7.49,-0.21,-7.38,6.00,6.34,5.68,5.79,7.17
504,-0.32,-7.49,-0.24,-7.40,6.00,6.35,5.68,5.76,7.17
509,-0.32,-7.49,-0.26,-7.43,6.00,6.34,5.68,5.74,7.17
514,-0.32,-7.49,-0.28,-7.45,6.00,6.33,5.68,5.72,7.17
519,-0.32,-7.49,-0.30,-7.47,6.00,6.32,5.68,5.70,7.17
524,-0.32,-7.49,-0.32,-7.49,6.00,6.30,5.68,5.68,7.17
529,-0.32,-7.49,-0.34,-7.51,6.00,6.28,5.68,5.66,7.17
535,-0.32,-7.49,-0.36,-7.53,6.00,6.25,5.68,5.64,7.17
540,-0.32,-7.49,-0.38,-7.55,6.00,6.23,5.68,5.62,7.17
545,-0.32,-7.49,-0.41,-7.58,6.00,6.20,5.68,5.59,7.17
551,-0.32,-7.49,-0.44,-7.61,6.00,6.16,5.68,5.56,7.17
556,-0.41,-7.58,-0.47,-7.64,6.00,6.13,5.59,5.53,7.17
562,-0.53,-7.70,-0.50,-7.67,6.00,6.09,5.47,5.50,7.17
568,-0.65,-7.82,-0.54,-7.70,6.00,6.04,5.35,5.46,7.17
573,-0.65,-7.82,-0.57,-7.73,6.00,6.01,5.35,5.43,7.17
579,-0.65,-7.82,-0.59,-7.76,6.00,5.96,5.35,5.41,7.17
585,-0.65,-7.82,-0.62,-7.78,6.00,5.92,5.35,5.38,7.17
591,-0.65,-7.82,-0.64,-7.80,6.00,5.88,5.35,5.36,7.17
596,-0.65,-7.82,-0.65,-7.82,6.00,5.85,5.35,5.35,7.17
602,-0.65,-7.82,-0.66,-7.82,6.00,5.81,5.35,5.34,7.17
608,-0.65,-7.82,-0.66,-7.83,6.00,5.77,5.35,5.34,7.17
615,-0.65,-7.82,-0.67,-7.83,6.00,5.74,5.35,5.33,7.17
621,-0.65,-7.82,-0.66,-7.83,6.00,5.71,5.35,5.34,7.17
627,-0.65,-7.82,-0.66,-7.83,6.00,5.68,5.35,5.34,7.17
633,-0.65,-7.82,-0.66,-7.82,6.00,5.65,5.35,5.34,7.17
639,-0.65,-7.82,-0.66,-7.82,6.00,5.63,5.35,5.34,7.17
646,-0.65,-7.82,-0.65,-7.82,6.00,5.61,5.35,5.35,7.17
652,-0.65,-7.82,-0.65,-7.82,6.00,5.60,5.35,5.35,7.17
659,-0.65,-7.82,-0.65,-7.82,6.00,5.58,5.35,5.35,7.17
665,-0.65,-7.82,-0.65,-7.81,6.00,5.58,5.35,5.35,7.17
672,-0.65,-7.82,-0.65,-7.81,6.00,5.57,5.35,5.35,7.17
679,-0.65,-7.82,-0.65,-7.81,6.00,5.57,5.35,5.35,7.17
686,-0.65,-7.82,-0.65,-7.81,6.00,5.58,5.35,5.35,7.17
692,-0.65,-7.82,-0.65,-7.81,6.00,5.59,5.35,5.35,7.17
699,-0.65,-7.82,-0.65,-7.81,6.00,5.60,5.35,5.35,7.17
706,-0.65,-7.82,-0.65,-7.81,6.00,5.62,5.35,5.35,7.17
713,-0.65,-7.82,-0.65,-7.81,6.00,5.64,5.35,5.35,7.17
721,-0.65,-7.82,-0.65,-7.81,6.00,5.67,5.35,5.35,7.17
728,-0.65,-7.82,-0.65,-7.82,6.00,5.70,5.35,5.35,7.17
735,-0.65,-7.82,-0.65,-7.82,6.00,5.73,5.35,5.35,7.17
742,-0.65,-7.82,-0.65,-7.82,6.00,5.77,5.35,5.35,7.17
750,-0.65,-7.82,-0.65,-7.82,6.00,5.81,5.35,5.35,7.17
757,-0.65,-7.82,-0.66,-7.82,6.00,5.86,5.35,5.34,7.17
765,-0.65,-7.82,-0.66,-7.83,6.00,5.91,5.35,5.34,7.17
773,-0.65,-7.82,-0.66,-7.83,6.00,5.97,5.35,5.34,7.17
780,-0.65,-7.82,-0.66,-7.83,6.00,6.02,5.35,5.34,7.17
788,-0.65,-7.82,-0.66,-7.83,6.00,6.09,5.35,5.34,7.17
796,-0.65,-7.82,-0.66,-7.83,6.00,6.15,5.35,5.34,7.17
804,-0.65,-7.82,-0.65,-7.82,6.00,6.22,5.35,5.35,7.17
812,-0.65,-7.82,-0.64,-7.81,6.00,6.29,5.35,5.36,7.17
820,-0.65,-7.82,-0.63,-7.79,6.00,6.36,5.35,5.37,7.17
828,-0.65,-7.82,-0.61,-7.77,6.00,6.43,5.35,5.39,7.17
837,-0.65,-7.82,-0.58,-7.75,6.00,6.51,5.35,5.42,7.17
845,-0.65,-7.82,-0.56,-7.72,6.00,6.58,5.35,5.44,7.17
853,-0.60,-7.77,-0.53,-7.69,6.00,6.65,5.40,5.47,7.17
862,-0.48,-7.65,-0.49,-7.66,6.00,6.73,5.52,5.51,7.17
871,-0.36,-7.53,-0.46,-7.63,6.00,6.81,5.64,5.54,7.17
879,-0.32,-7.49,-0.43,-7.60,6.00,6.87,5.68,5.57,7.17
888,-0.32,-7.49,-0.40,-7.57,6.00,6.94,5.68,5.60,7.17
897,-0.32,-7.49,-0.37,-7.54,6.00,7.00,5.68,5.63,7.17
906,-0.32,-7.49,-0.35,-7.51,6.00,7.06,5.68,5.65,7.17
915,-0.32,-7.49,-0.32,-7.49,6.00,7.11,5.68,5.68,7.17
924,-0.32,-7.49,-0.30,-7.46,6.00,7.16,5.68,5.70,7.17
933,-0.32,-7.49,-0.27,-7.44,6.00,7.20,5.68,5.73,7.17
943,-0.32,-7.49,-0.24,-7.41,6.00,7.23,5.68,5.76,7.17
952,-0.32,-7.49,-0.21,-7.38,6.00,7.25,5.68,5.79,7.17
962,-0.21,-7.38,-0.18,-7.35,6.00,7.26,5.79,5.82,7.17
971,-0.11,-7.28,-0.14,-7.31,6.00,7.26,5.89,5.86,7.17
981,0.00,-7.17,-0.10,-7.26,6.00,7.25,6.00,5.90,7.17
991,0.00,-7.17,-0.05,-7.22,6.00,7.23,6.00,5.95,7.17
1001,0.00,-7.17,-0.00,-7.17,6.00,7.19,6.00,6.00,7.17
1011,0.00,-7.17,0.05,-7.12,6.00,7.15,6.00,6.05,7.17
1021,0.00,-7.17,0.11,-7.06,6.00,7.09,6.00,6.11,7.17
1031,0.17,-7.00,0.16,-7.00,6.00,7.02,6.17,6.16,7.17
1041,0.32,-6.85,0.22,-6.94,6.00,6.95,6.32,6.22,7.17
1052,0.32,-6.85,0.28,-6.88,6.00,6.85,6.32,6.28,7.17
1062,0.32,-6.85,0.35,-6.82,6.00,6.75,6.32,6.35,7.17
1073,0.37,-6.80,0.41,-6.76,6.00,6.64,6.37,6.41,7.17
1084,0.49,-6.68,0.47,-6.69,6.00,6.52,6.49,6.47,7.17
1094,0.59,-6.58,0.54,-6.63,6.00,6.40,6.59,6.54,7.17
1105,0.65,-6.52,0.61,-6.56,6.00,6.27,6.65,6.61,7.17
1116,0.65,-6.52,0.68,-6.49,6.00,6.13,6.65,6.68,7.17
1128,0.65,-6.52,0.75,-6.41,6.00,5.97,6.65,6.75,7.17
1139,0.80,-6.37,0.83,-6.34,6.00,5.83,6.80,6.83,7.17
1150,0.97,-6.20,0.91,-6.26,6.00,5.68,6.97,6.91,7.17
1162,0.97,-6.20,0.99,-6.18,6.00,5.52,6.97,6.99,7.17
1173,1.06,-6.11,1.07,-6.10,5.98,5.36,7.04,7.05,7.17
1185,1.17,-6.00,1.16,-6.01,5.94,5.20,7.11,7.10,7.17
1197,1.28,-5.89,1.24,-5.92,5.88,5.04,7.16,7.13,7.17
1209,1.30,-5.87,1.33,-5.83,5.81,4.87,7.11,7.14,7.17
1221,1.40,-5.77,1.42,-5.74,5.73,4.71,7.13,7.15,7.17
1233,1.62,-5.55,1.52,-5.65,5.65,4.55,7.27,7.17,7.17
1246,1.62,-5.55,1.61,-5.55,5.55,4.38,7.17,7.17,7.17
1258,1.68,-5.49,1.71,-5.45,5.45,4.23,7.13,7.17,7.17
1271,1.80,-5.37,1.81,-5.35,5.35,4.07,7.15,7.17,7.17
1283,1.91,-5.26,1.92,-5.25,5.25,3.92,7.16,7.17,7.17
1296,2.02,-5.15,2.03,-5.14,5.14,3.76,7.16,7.17,7.17
1309,2.13,-5.04,2.14,-5.03,5.03,3.61,7.16,7.17,7.17
1322,2.24,-4.93,2.25,-4.91,4.91,3.46,7.15,7.17,7.17
1335,2.35,-4.82,2.37,-4.79,4.79,3.31,7.14,7.17,7.17
1349,2.47,-4.70,2.50,-4.67,4.67,3.15,7.14,7.17,7.17
1362,2.58,-4.59,2.62,-4.54,4.54,3.01,7.12,7.17,7.17
1376,2.80,-4.37,2.75,-4.42,4.42,2.87,7.22,7.17,7.17
1390,2.92,-4.25,2.88,-4.29,4.29,2.73,7.21,7.17,7.17
1404,2.93,-4.24,3.01,-4.16,4.16,2.59,7.09,7.17,7.17
1418,3.15,-4.02,3.13,-4.03,4.03,2.45,7.18,7.17,7.17
1432,3.31,-3.86,3.26,-3.91,3.91,2.32,7.22,7.17,7.17
1446,3.42,-3.75,3.38,-3.78,3.78,2.19,7.20,7.17,7.17
1461,3.54,-3.63,3.50,-3.66,3.66,2.06,7.20,7.17,7.17
1475,3.64,-3.53,3.62,-3.54,3.54,1.94,7.18,7.17,7.17
1490,3.76,-3.41,3.74,-3.43,3.43,1.81,7.19,7.17,7.17
1505,3.87,-3.30,3.86,-3.31,3.31,1.69,7.18,7.17,7.17
1520,3.98,-3.19,3.97,-3.19,3.19,1.57,7.17,7.17,7.17
1535,4.09,-3.08,4.09,-3.07,3.07,1.45,7.16,7.17,7.17
1550,4.20,-2.97,4.21,-2.95,2.95,1.34,7.15,7.17,7.17
1566,4.32,-2.85,4.34,-2.82,2.82,1.22,7.14,7.17,7.17
1582,4.43,-2.74,4.47,-2.69,2.69,1.10,7.12,7.17,7.17
1597,4.54,-2.63,4.61,-2.55,2.55,1.00,7.09,7.17,7.17
1613,4.77,-2.40,4.76,-2.41,2.41,0.88,7.18,7.17,7.17
1629,4.93,-2.24,4.91,-2.25,2.25,0.78,7.18,7.17,7.17
1646,5.06,-2.11,5.07,-2.09,2.09,0.66,7.15,7.17,7.17
1662,5.28,-1.89,5.24,-1.92,1.92,0.56,7.20,7.17,7.17
1679,5.43,-1.74,5.42,-1.75,1.75,0.45,7.18,7.17,7.17
1696,5.57,-1.60,5.60,-1.56,1.56,0.34,7.13,7.17,7.17
1713,5.80,-1.37,5.79,-1.37,1.37,0.23,7.17,7.17,7.17
1730,6.02,-1.15,5.99,-1.17,1.17,0.13,7.19,7.17,7.17
1747,6.24,-0.93,6.20,-0.97,0.97,0.02,7.21,7.17,7.17
1764,6.46,-0.71,6.41,-0.75,0.75,-0.08,7.21,7.17,7.17
1782,6.59,-0.58,6.63,-0.53,0.53,-0.19,7.12,7.17,7.17
1800,6.76,-0.41,6.86,-0.30,0.30,-0.29,7.06,7.17,7.17
1818,6.98,-0.19,7.10,-0.07,0.07,-0.40,7.05,7.17,7.17
1836,7.32,0.15,7.34,0.17,-0.17,-0.50,7.15,7.17,7.17
1854,7.59,0.42,7.59,0.42,-0.42,-0.61,7.17,7.17,7.17
1873,7.83,0.66,7.84,0.67,-0.67,-0.72,7.16,7.17,7.17
1892,8.17,1.00,8.09,0.93,-0.93,-0.83,7.24,7.17,7.17
1911,8.43,1.26,8.35,1.18,-1.18,-0.94,7.25,7.17,7.17
1930,8.65,1.48,8.60,1.43,-1.43,-1.05,7.22,7.17,7.17
1949,8.88,1.71,8.85,1.69,-1.69,-1.16,7.19,7.17,7.17
1969,9.11,1.94,9.11,1.94,-1.94,-1.28,7.17,7.17,7.17
1988,9.32,2.15,9.36,2.19,-2.19,-1.39,7.13,7.17,7.17
2008,9.55,2.38,9.61,2.44,-2.44,-1.51,7.11,7.17,7.17
2028,9.77,2.60,9.85,2.68,-2.68,-1.63,7.09,7.17,7.17
2048,10.00,2.83,10.08,2.92,-2.92,-1.75,7.08,7.17,7.17
