frequency,raw,smoothed,error,error_smoothed,equalization,parametric_eq,fixed_band_eq,equalized_raw,equalized_smoothed,target
20.00,-23.07,-23.08,-21.39,-21.40,6.00,6.07,2.73,-17.07,-17.08,-1.67
20.20,-22.71,-22.68,-21.03,-21.01,6.00,6.07,2.81,-16.71,-16.68,-1.67
20.40,-22.35,-22.35,-20.68,-20.67,6.00,6.07,2.89,-16.35,-16.35,-1.67
20.61,-22.00,-22.06,-20.33,-20.39,6.00,6.07,2.97,-16.00,-16.06,-1.67
20.81,-21.86,-21.85,-20.18,-20.18,6.00,6.07,3.06,-15.86,-15.85,-1.67
21.02,-21.70,-21.68,-20.02,-20.00,6.00,6.07,3.14,-15.70,-15.68,-1.67
21.23,-21.53,-21.51,-19.85,-19.84,6.00,6.07,3.23,-15.53,-15.51,-1.67
21.44,-21.28,-21.30,-19.61,-19.62,6.00,6.07,3.33,-15.28,-15.30,-1.67
21.66,-21.04,-21.05,-19.37,-19.37,6.00,6.07,3.42,-15.04,-15.05,-1.67
21.87,-20.75,-20.73,-19.08,-19.06,6.00,6.07,3.52,-14.75,-14.73,-1.67
22.09,-20.38,-20.37,-18.71,-18.69,6.00,6.07,3.62,-14.38,-14.37,-1.67
22.31,-19.94,-19.94,-18.27,-18.26,6.00,6.07,3.72,-13.94,-13.94,-1.67
22.54,-19.50,-19.48,-17.83,-17.81,6.00,6.07,3.82,-13.50,-13.48,-1.67
22.76,-19.11,-19.12,-17.43,-17.44,6.00,6.07,3.93,-13.11,-13.12,-1.67
22.99,-18.88,-18.93,-17.20,-17.26,6.00,6.07,4.04,-12.88,-12.93,-1.67
23.22,-18.96,-18.97,-17.28,-17.29,6.00,6.07,4.16,-12.96,-12.97,-1.67
23.45,-19.23,-19.23,-17.56,-17.56,6.00,6.07,4.27,-13.23,-13.23,-1.67
23.69,-19.63,-19.66,-17.96,-17.98,6.00,6.07,4.39,-13.63,-13.66,-1.67
23.92,-20.13,-20.11,-18.46,-18.44,6.00,6.07,4.51,-14.13,-14.11,-1.67
24.16,-20.53,-20.50,-18.86,-18.82,6.00,6.07,4.63,-14.53,-14.50,-1.67
24.40,-20.76,-20.73,-19.08,-19.05,6.00,6.07,4.76,-14.76,-14.73,-1.67
24.65,-20.81,-20.80,-19.13,-19.12,6.00,6.07,4.89,-14.81,-14.80,-1.67
24.89,-20.75,-20.75,-19.07,-19.08,6.00,6.07,5.01,-14.75,-14.75,-1.67
25.14,-20.70,-20.71,-19.02,-19.04,6.00,6.07,5.14,-14.70,-14.71,-1.67
25.39,-20.70,-20.75,-19.03,-19.07,6.00,6.07,5.27,-14.70,-14.75,-1.67
25.65,-20.89,-20.88,-19.21,-19.20,6.00,6.07,5.41,-14.89,-14.88,-1.67
25.91,-21.08,-21.05,-19.41,-19.38,6.00,6.07,5.54,-15.08,-15.05,-1.67
26.16,-21.31,-21.25,-19.64,-19.57,6.00,6.06,5.67,-15.31,-15.25,-1.67
26.43,-21.51,-21.47,-19.84,-19.79,6.00,6.06,5.81,-15.51,-15.47,-1.67
26.69,-21.98,-22.25,-20.30,-20.58,6.00,6.06,5.94,-15.98,-16.25,-1.67
26.96,-22.89,-23.40,-21.21,-21.72,6.00,6.06,6.07,-16.89,-17.40,-1.67
27.23,-24.83,-24.25,-23.16,-22.57,6.00,6.06,6.19,-18.83,-18.25,-1.67
27.50,-24.59,-24.02,-22.91,-22.35,6.00,6.06,6.32,-18.59,-18.02,-1.67
27.77,-22.70,-22.73,-21.03,-21.06,6.00,6.06,6.44,-16.70,-16.73,-1.67
28.05,-20.26,-20.78,-18.59,-19.10,6.00,6.06,6.56,-14.26,-14.78,-1.67
28.33,-19.18,-19.21,-17.51,-17.53,6.00,6.06,6.67,-13.18,-13.21,-1.67
28.62,-18.45,-18.38,-16.77,-16.71,6.00,6.06,6.78,-12.45,-12.38,-1.67
28.90,-18.15,-18.20,-16.47,-16.53,6.00,6.06,6.88,-12.15,-12.20,-1.67
29.19,-18.30,-18.31,-16.62,-16.63,6.00,6.06,6.97,-12.30,-12.31,-1.67
29.48,-18.67,-18.70,-17.00,-17.03,6.00,6.05,7.06,-12.67,-12.70,-1.67
29.78,-19.16,-19.15,-17.49,-17.48,6.00,6.05,7.14,-13.16,-13.15,-1.67
30.08,-19.51,-19.39,-17.84,-17.72,6.00,6.05,7.20,-13.51,-13.39,-1.67
30.38,-19.39,-19.31,-17.71,-17.64,6.00,6.05,7.26,-13.39,-13.31,-1.67
30.68,-18.90,-18.93,-17.22,-17.26,6.00,6.05,7.31,-12.90,-12.93,-1.67
30.99,-18.37,-18.42,-16.70,-16.75,6.00,6.05,7.35,-12.37,-12.42,-1.67
31.30,-17.96,-18.00,-16.29,-16.32,6.00,6.05,7.38,-11.96,-12.00,-1.67
31.61,-17.71,-17.73,-16.03,-16.06,6.00,6.05,7.40,-11.71,-11.73,-1.67
31.93,-17.60,-17.60,-15.92,-15.92,6.00,6.04,7.40,-11.60,-11.60,-1.67
32.24,-17.51,-17.49,-15.83,-15.82,6.00,6.04,7.40,-11.51,-11.49,-1.67
32.57,-17.39,-17.34,-15.71,-15.67,6.00,6.04,7.39,-11.39,-11.34,-1.67
32.89,-17.11,-17.10,-15.43,-15.42,6.00,6.04,7.37,-11.11,-11.10,-1.67
33.22,-16.81,-16.80,-15.13,-15.13,6.00,6.04,7.34,-10.81,-10.80,-1.67
33.55,-16.51,-16.54,-14.83,-14.87,6.00,6.04,7.30,-10.51,-10.54,-1.67
33.89,-16.36,-16.39,-14.68,-14.71,6.00,6.03,7.25,-10.36,-10.39,-1.67
34.23,-16.33,-16.34,-14.65,-14.66,6.00,6.03,7.20,-10.33,-10.34,-1.67
34.57,-16.34,-16.32,-14.66,-14.65,6.00,6.03,7.14,-10.34,-10.32,-1.67
34.92,-16.29,-16.25,-14.61,-14.58,6.00,6.03,7.08,-10.29,-10.25,-1.67
35.27,-16.09,-16.08,-14.42,-14.40,6.00,6.03,7.02,-10.09,-10.08,-1.67
35.62,-15.83,-15.82,-14.15,-14.15,6.00,6.02,6.95,-9.83,-9.82,-1.67
35.97,-15.53,-15.56,-13.85,-13.88,6.00,6.02,6.87,-9.53,-9.56,-1.67
36.33,-15.34,-15.35,-13.66,-13.68,6.00,6.02,6.80,-9.34,-9.35,-1.67
36.70,-15.22,-15.23,-13.54,-13.55,6.00,6.02,6.73,-9.22,-9.23,-1.67
37.06,-15.17,-15.16,-13.49,-13.49,6.00,6.01,6.65,-9.17,-9.16,-1.67
37.43,-15.13,-15.11,-13.45,-13.44,6.00,6.01,6.58,-9.13,-9.11,-1.67
37.81,-15.05,-15.05,-13.37,-13.37,6.00,6.01,6.50,-9.05,-9.05,-1.67
38.19,-14.95,-14.95,-13.27,-13.27,6.00,6.01,6.43,-8.95,-8.95,-1.67
38.57,-14.82,-14.82,-13.14,-13.14,6.00,6.00,6.36,-8.82,-8.82,-1.67
38.95,-14.67,-14.67,-12.99,-13.00,6.00,6.00,6.29,-8.67,-8.67,-1.67
39.34,-14.52,-14.51,-12.84,-12.84,6.00,6.00,6.22,-8.52,-8.51,-1.67
39.74,-14.34,-14.33,-12.66,-12.65,6.00,5.99,6.16,-8.34,-8.33,-1.67
40.14,-14.14,-14.13,-12.47,-12.46,6.00,5.99,6.09,-8.14,-8.13,-1.67
40.54,-13.93,-13.94,-12.25,-12.26,6.00,5.99,6.04,-7.93,-7.94,-1.67
40.94,-13.77,-13.78,-12.09,-12.11,6.00,5.98,5.98,-7.77,-7.78,-1.67
41.35,-13.67,-13.68,-11.99,-12.00,6.00,5.98,5.93,-7.67,-7.68,-1.67
41.76,-13.62,-13.61,-11.94,-11.94,6.00,5.98,5.88,-7.62,-7.61,-1.67
42.18,-13.55,-13.54,-11.87,-11.87,6.00,5.97,5.84,-7.55,-7.54,-1.67
42.60,-13.45,-13.43,-11.77,-11.76,6.00,5.97,5.80,-7.45,-7.43,-1.67
43.03,-13.28,-13.27,-11.60,-11.60,6.00,5.96,5.77,-7.28,-7.27,-1.67
43.46,-13.08,-13.08,-11.40,-11.41,6.00,5.96,5.74,-7.08,-7.08,-1.67
43.90,-12.88,-12.88,-11.21,-11.21,6.00,5.96,5.71,-6.88,-6.88,-1.67
44.33,-12.70,-12.69,-11.02,-11.01,6.00,5.95,5.69,-6.70,-6.69,-1.67
44.78,-12.53,-12.52,-10.85,-10.85,6.00,5.95,5.67,-6.53,-6.52,-1.67
45.23,-12.40,-12.43,-10.72,-10.76,6.00,5.94,5.66,-6.40,-6.43,-1.67
45.68,-12.39,-12.43,-10.71,-10.76,6.00,5.94,5.65,-6.39,-6.43,-1.67
46.13,-12.49,-12.48,-10.81,-10.81,6.00,5.94,5.65,-6.49,-6.48,-1.67
46.60,-12.53,-12.48,-10.85,-10.80,6.00,5.93,5.65,-6.53,-6.48,-1.67
47.06,-12.37,-12.32,-10.69,-10.64,6.00,5.93,5.65,-6.37,-6.32,-1.67
47.53,-12.04,-12.00,-10.36,-10.33,6.00,5.92,5.66,-6.04,-6.00,-1.67
48.01,-11.62,-11.68,-9.95,-10.01,6.00,5.92,5.67,-5.62,-5.68,-1.67
48.49,-11.42,-11.52,-9.74,-9.84,6.00,5.91,5.68,-5.42,-5.52,-1.67
48.97,-11.51,-11.53,-9.83,-9.85,6.00,5.91,5.70,-5.51,-5.53,-1.67
49.46,-11.66,-11.57,-9.98,-9.89,6.00,5.91,5.72,-5.66,-5.57,-1.67
49.96,-11.57,-11.48,-9.89,-9.80,6.00,5.90,5.75,-5.57,-5.48,-1.67
50.46,-11.21,-11.24,-9.54,-9.56,6.00,5.90,5.78,-5.21,-5.24,-1.67
50.96,-10.91,-10.98,-9.23,-9.31,6.00,5.90,5.81,-4.91,-4.98,-1.67
51.47,-10.79,-10.83,-9.11,-9.16,6.00,5.90,5.84,-4.79,-4.83,-1.67
51.99,-10.84,-10.78,-9.16,-9.11,6.00,5.90,5.87,-4.84,-4.78,-1.67
52.51,-10.79,-10.74,-9.11,-9.07,6.00,5.90,5.91,-4.79,-4.74,-1.67
53.03,-10.66,-10.68,-8.98,-9.01,6.00,5.90,5.94,-4.66,-4.68,-1.67
53.56,-10.58,-10.62,-8.90,-8.95,6.00,5.90,5.98,-4.58,-4.62,-1.67
54.10,-10.57,-10.59,-8.89,-8.92,6.00,5.90,6.01,-4.57,-4.59,-1.67
54.64,-10.56,-10.49,-8.88,-8.82,6.00,5.90,6.05,-4.56,-4.49,-1.67
55.18,-10.33,-10.27,-8.66,-8.59,6.00,5.91,6.08,-4.33,-4.27,-1.67
55.74,-9.88,-9.89,-8.21,-8.21,6.00,5.91,6.12,-3.88,-3.89,-1.67
56.29,-9.50,-9.51,-7.82,-7.83,6.00,5.92,6.15,-3.50,-3.51,-1.67
56.86,-9.20,-9.36,-7.53,-7.68,6.00,5.93,6.18,-3.20,-3.36,-1.67
57.42,-9.33,-9.37,-7.66,-7.70,6.00,5.94,6.20,-3.33,-3.37,-1.67
58.00,-9.59,-9.40,-7.91,-7.73,6.00,5.95,6.22,-3.59,-3.40,-1.67
58.58,-9.29,-9.23,-7.61,-7.56,6.00,5.96,6.24,-3.29,-3.23,-1.67
59.16,-8.90,-8.85,-7.23,-7.18,6.00,5.97,6.25,-2.90,-2.85,-1.67
59.76,-8.33,-8.52,-6.66,-6.84,6.00,5.99,6.26,-2.33,-2.52,-1.67
60.35,-8.31,-8.44,-6.63,-6.76,6.00,6.00,6.26,-2.31,-2.44,-1.67
60.96,-8.61,-8.47,-6.93,-6.79,6.00,6.01,6.25,-2.61,-2.47,-1.67
61.57,-8.64,-8.50,-6.96,-6.83,6.00,6.01,6.24,-2.64,-2.50,-1.67
62.18,-8.31,-8.39,-6.63,-6.71,6.00,6.01,6.23,-2.31,-2.39,-1.67
62.80,-8.13,-8.18,-6.45,-6.51,6.00,6.01,6.20,-2.13,-2.18,-1.67
63.43,-8.01,-7.98,-6.33,-6.31,6.01,5.99,6.17,-2.00,-1.97,-1.67
64.07,-7.90,-7.83,-6.22,-6.16,6.02,5.97,6.13,-1.88,-1.81,-1.67
64.71,-7.67,-7.73,-5.99,-6.05,6.03,5.94,6.09,-1.64,-1.70,-1.67
65.35,-7.62,-7.68,-5.94,-6.01,6.02,5.89,6.04,-1.60,-1.66,-1.67
66.01,-7.73,-7.69,-6.05,-6.01,6.00,5.84,5.99,-1.73,-1.69,-1.67
66.67,-7.75,-7.71,-6.07,-6.04,5.96,5.79,5.93,-1.79,-1.75,-1.67
67.33,-7.68,-7.67,-6.00,-5.99,5.90,5.72,5.86,-1.77,-1.77,-1.67
68.01,-7.53,-7.56,-5.85,-5.88,5.83,5.65,5.79,-1.70,-1.73,-1.67
68.69,-7.43,-7.42,-5.75,-5.74,5.74,5.58,5.72,-1.69,-1.68,-1.67
69.37,-7.29,-7.28,-5.61,-5.60,5.64,5.51,5.64,-1.65,-1.64,-1.67
70.07,-7.14,-7.16,-5.46,-5.48,5.53,5.43,5.56,-1.61,-1.63,-1.67
70.77,-7.05,-7.06,-5.37,-5.38,5.43,5.35,5.47,-1.62,-1.63,-1.67
71.48,-6.99,-6.98,-5.31,-5.30,5.33,5.28,5.39,-1.66,-1.65,-1.67
72.19,-6.92,-6.90,-5.24,-5.22,5.23,5.20,5.30,-1.69,-1.67,-1.67
72.91,-6.81,-6.81,-5.13,-5.14,5.14,5.13,5.21,-1.67,-1.67,-1.67
73.64,-6.72,-6.75,-5.04,-5.07,5.05,5.05,5.12,-1.67,-1.70,-1.67
74.38,-6.68,-6.68,-5.00,-5.01,4.96,4.98,5.03,-1.72,-1.72,-1.67
75.12,-6.66,-6.60,-4.98,-4.93,4.88,4.91,4.94,-1.77,-1.72,-1.67
75.87,-6.48,-6.47,-4.80,-4.79,4.81,4.83,4.85,-1.67,-1.66,-1.67
76.63,-6.32,-6.33,-4.64,-4.65,4.73,4.76,4.76,-1.59,-1.60,-1.67
77.40,-6.18,-6.26,-4.50,-4.58,4.64,4.68,4.67,-1.53,-1.62,-1.67
78.17,-6.25,-6.23,-4.57,-4.56,4.56,4.61,4.58,-1.68,-1.67,-1.67
78.95,-6.30,-6.20,-4.62,-4.52,4.48,4.53,4.50,-1.81,-1.72,-1.67
79.74,-6.10,-6.15,-4.42,-4.47,4.41,4.46,4.42,-1.69,-1.74,-1.67
80.54,-6.01,-6.03,-4.33,-4.35,4.33,4.38,4.33,-1.68,-1.70,-1.67
81.35,-5.94,-5.90,-4.26,-4.23,4.26,4.30,4.25,-1.68,-1.64,-1.67
82.16,-5.81,-5.84,-4.13,-4.16,4.18,4.22,4.18,-1.63,-1.66,-1.67
82.98,-5.75,-5.77,-4.07,-4.09,4.09,4.14,4.10,-1.65,-1.67,-1.67
83.81,-5.74,-5.69,-4.06,-4.02,4.01,4.06,4.03,-1.73,-1.68,-1.67
84.65,-5.61,-5.61,-3.93,-3.94,3.92,3.98,3.96,-1.68,-1.69,-1.67
85.50,-5.51,-5.53,-3.83,-3.85,3.85,3.90,3.89,-1.65,-1.67,-1.67
86.35,-5.44,-5.45,-3.76,-3.77,3.80,3.82,3.83,-1.64,-1.65,-1.67
87.22,-5.42,-5.39,-3.74,-3.72,3.75,3.74,3.77,-1.67,-1.65,-1.67
88.09,-5.35,-5.35,-3.67,-3.68,3.69,3.67,3.71,-1.65,-1.66,-1.67
88.97,-5.30,-5.32,-3.62,-3.64,3.64,3.59,3.65,-1.65,-1.67,-1.67
89.86,-5.30,-5.28,-3.62,-3.61,3.59,3.52,3.60,-1.70,-1.69,-1.67
90.76,-5.25,-5.26,-3.57,-3.58,3.54,3.45,3.55,-1.70,-1.71,-1.67
91.66,-5.21,-5.20,-3.53,-3.52,3.49,3.39,3.50,-1.71,-1.71,-1.67
92.58,-5.15,-5.12,-3.47,-3.45,3.44,3.33,3.45,-1.71,-1.68,-1.67
93.51,-5.01,-5.05,-3.33,-3.38,3.38,3.28,3.41,-1.63,-1.67,-1.67
94.44,-4.98,-4.97,-3.30,-3.30,3.32,3.23,3.37,-1.66,-1.65,-1.67
95.39,-4.94,-4.91,-3.26,-3.24,3.26,3.18,3.33,-1.68,-1.65,-1.67
96.34,-4.84,-4.88,-3.16,-3.20,3.20,3.15,3.30,-1.64,-1.67,-1.67
97.30,-4.85,-4.82,-3.17,-3.15,3.15,3.11,3.26,-1.70,-1.67,-1.67
98.28,-4.79,-4.78,-3.11,-3.11,3.11,3.08,3.23,-1.68,-1.67,-1.67
99.26,-4.73,-4.75,-3.05,-3.07,3.07,3.05,3.20,-1.66,-1.68,-1.67
100.25,-4.71,-4.70,-3.03,-3.03,3.03,3.03,3.18,-1.67,-1.67,-1.67
101.25,-4.68,-4.67,-3.00,-2.99,3.00,3.01,3.15,-1.68,-1.67,-1.67
102.27,-4.64,-4.65,-2.96,-2.97,2.96,2.99,3.13,-1.67,-1.68,-1.67
103.29,-4.61,-4.61,-2.93,-2.94,2.93,2.97,3.11,-1.68,-1.69,-1.67
104.32,-4.60,-4.57,-2.92,-2.90,2.89,2.95,3.09,-1.71,-1.68,-1.67
105.37,-4.52,-4.53,-2.84,-2.86,2.85,2.93,3.07,-1.67,-1.68,-1.67
106.42,-4.47,-4.49,-2.79,-2.81,2.81,2.90,3.05,-1.66,-1.68,-1.67
107.48,-4.47,-4.44,-2.79,-2.77,2.78,2.88,3.03,-1.69,-1.67,-1.67
108.56,-4.41,-4.40,-2.73,-2.73,2.74,2.86,3.02,-1.66,-1.66,-1.67
109.64,-4.36,-4.38,-2.68,-2.70,2.71,2.84,3.01,-1.65,-1.67,-1.67
110.74,-4.34,-4.35,-2.66,-2.67,2.67,2.82,2.99,-1.67,-1.68,-1.67
111.85,-4.36,-4.33,-2.68,-2.66,2.64,2.79,2.98,-1.71,-1.69,-1.67
112.97,-4.32,-4.33,-2.64,-2.65,2.63,2.77,2.97,-1.69,-1.70,-1.67
114.10,-4.29,-4.31,-2.61,-2.64,2.62,2.74,2.96,-1.66,-1.69,-1.67
115.24,-4.31,-4.27,-2.63,-2.59,2.63,2.72,2.94,-1.67,-1.63,-1.67
116.39,-4.25,-4.23,-2.57,-2.56,2.64,2.69,2.93,-1.61,-1.59,-1.67
117.55,-4.20,-4.27,-2.52,-2.59,2.64,2.66,2.92,-1.56,-1.63,-1.67
118.73,-4.30,-4.35,-2.62,-2.68,2.63,2.64,2.91,-1.67,-1.72,-1.67
119.92,-4.50,-4.39,-2.82,-2.72,2.62,2.61,2.89,-1.87,-1.77,-1.67
121.12,-4.45,-4.37,-2.77,-2.69,2.61,2.58,2.88,-1.84,-1.76,-1.67
122.33,-4.17,-4.29,-2.49,-2.62,2.60,2.56,2.86,-1.57,-1.69,-1.67
123.55,-4.18,-4.19,-2.50,-2.52,2.58,2.53,2.85,-1.60,-1.61,-1.67
124.79,-4.21,-4.16,-2.53,-2.49,2.56,2.50,2.83,-1.65,-1.60,-1.67
126.03,-4.18,-4.19,-2.50,-2.52,2.53,2.48,2.82,-1.65,-1.67,-1.67
127.29,-4.19,-4.19,-2.51,-2.52,2.50,2.45,2.80,-1.69,-1.69,-1.67
128.57,-4.19,-4.17,-2.51,-2.50,2.49,2.43,2.78,-1.70,-1.68,-1.67
129.85,-4.16,-4.16,-2.48,-2.48,2.48,2.40,2.76,-1.67,-1.67,-1.67
131.15,-4.13,-4.15,-2.45,-2.47,2.49,2.38,2.74,-1.64,-1.66,-1.67
132.46,-4.16,-4.16,-2.48,-2.48,2.49,2.36,2.72,-1.66,-1.66,-1.67
133.79,-4.19,-4.18,-2.51,-2.51,2.49,2.33,2.70,-1.70,-1.69,-1.67
135.12,-4.20,-4.19,-2.52,-2.52,2.48,2.31,2.68,-1.71,-1.71,-1.67
136.48,-4.19,-4.18,-2.51,-2.50,2.48,2.29,2.65,-1.71,-1.69,-1.67
137.84,-4.14,-4.16,-2.46,-2.48,2.48,2.27,2.63,-1.65,-1.67,-1.67
139.22,-4.14,-4.14,-2.46,-2.46,2.49,2.26,2.61,-1.65,-1.65,-1.67
140.61,-4.14,-4.13,-2.46,-2.46,2.49,2.24,2.59,-1.65,-1.64,-1.67
142.02,-4.15,-4.16,-2.47,-2.49,2.49,2.22,2.56,-1.66,-1.67,-1.67
143.44,-4.18,-4.18,-2.50,-2.51,2.49,2.21,2.54,-1.68,-1.69,-1.67
144.87,-4.23,-4.19,-2.55,-2.52,2.50,2.20,2.52,-1.73,-1.69,-1.67
146.32,-4.19,-4.20,-2.51,-2.52,2.51,2.18,2.50,-1.67,-1.68,-1.67
147.78,-4.17,-4.20,-2.49,-2.53,2.53,2.17,2.48,-1.64,-1.67,-1.67
149.26,-4.22,-4.20,-2.54,-2.52,2.54,2.17,2.46,-1.68,-1.66,-1.67
150.75,-4.23,-4.21,-2.55,-2.54,2.55,2.16,2.44,-1.68,-1.67,-1.67
152.26,-4.21,-4.24,-2.53,-2.56,2.55,2.15,2.42,-1.66,-1.69,-1.67
153.78,-4.24,-4.24,-2.56,-2.56,2.55,2.15,2.40,-1.69,-1.69,-1.67
155.32,-4.27,-4.23,-2.59,-2.56,2.55,2.15,2.38,-1.71,-1.68,-1.67
156.88,-4.22,-4.24,-2.54,-2.57,2.56,2.14,2.37,-1.66,-1.68,-1.67
158.44,-4.22,-4.24,-2.54,-2.56,2.57,2.14,2.35,-1.65,-1.67,-1.67
160.03,-4.26,-4.23,-2.58,-2.56,2.57,2.15,2.34,-1.68,-1.66,-1.67
161.63,-4.25,-4.25,-2.56,-2.57,2.58,2.15,2.33,-1.67,-1.67,-1.68
163.24,-4.26,-4.27,-2.57,-2.59,2.59,2.16,2.32,-1.67,-1.68,-1.68
164.88,-4.29,-4.28,-2.60,-2.60,2.60,2.17,2.31,-1.69,-1.69,-1.68
166.53,-4.31,-4.30,-2.62,-2.62,2.60,2.17,2.30,-1.71,-1.70,-1.68
168.19,-4.31,-4.31,-2.62,-2.63,2.61,2.19,2.30,-1.70,-1.70,-1.68
169.87,-4.31,-4.31,-2.62,-2.63,2.61,2.20,2.29,-1.69,-1.70,-1.68
171.57,-4.31,-4.30,-2.62,-2.62,2.62,2.21,2.29,-1.69,-1.68,-1.68
173.29,-4.30,-4.30,-2.61,-2.61,2.63,2.23,2.29,-1.67,-1.67,-1.68
175.02,-4.29,-4.29,-2.60,-2.61,2.63,2.25,2.29,-1.66,-1.66,-1.68
176.77,-4.30,-4.31,-2.61,-2.62,2.64,2.27,2.29,-1.66,-1.67,-1.68
178.54,-4.33,-4.33,-2.64,-2.65,2.64,2.29,2.29,-1.69,-1.69,-1.68
180.32,-4.38,-4.35,-2.69,-2.67,2.65,2.32,2.30,-1.73,-1.70,-1.68
182.13,-4.36,-4.36,-2.67,-2.67,2.66,2.34,2.31,-1.70,-1.70,-1.68
183.95,-4.34,-4.35,-2.65,-2.67,2.67,2.37,2.31,-1.67,-1.68,-1.68
185.79,-4.34,-4.34,-2.65,-2.66,2.67,2.40,2.33,-1.66,-1.67,-1.68
187.65,-4.36,-4.35,-2.67,-2.67,2.68,2.43,2.34,-1.68,-1.68,-1.68
189.52,-4.37,-4.37,-2.68,-2.69,2.68,2.46,2.35,-1.69,-1.70,-1.68
191.42,-4.39,-4.37,-2.70,-2.68,2.68,2.50,2.37,-1.71,-1.69,-1.68
193.33,-4.38,-4.37,-2.69,-2.69,2.68,2.53,2.38,-1.70,-1.69,-1.68
195.27,-4.33,-4.37,-2.64,-2.69,2.69,2.57,2.40,-1.64,-1.69,-1.68
197.22,-4.41,-4.37,-2.72,-2.68,2.69,2.61,2.42,-1.72,-1.67,-1.68
199.19,-4.37,-4.37,-2.68,-2.69,2.70,2.65,2.44,-1.67,-1.68,-1.68
201.18,-4.37,-4.39,-2.68,-2.70,2.70,2.69,2.46,-1.66,-1.69,-1.68
203.19,-4.41,-4.39,-2.72,-2.70,2.71,2.73,2.48,-1.70,-1.68,-1.68
205.23,-4.41,-4.41,-2.72,-2.73,2.72,2.77,2.51,-1.69,-1.69,-1.68
207.28,-4.42,-4.43,-2.73,-2.74,2.73,2.82,2.53,-1.69,-1.70,-1.68
209.35,-4.44,-4.43,-2.75,-2.74,2.74,2.86,2.56,-1.70,-1.69,-1.68
211.44,-4.44,-4.44,-2.75,-2.75,2.75,2.90,2.58,-1.69,-1.69,-1.68
213.56,-4.44,-4.44,-2.75,-2.76,2.76,2.94,2.61,-1.68,-1.68,-1.68
215.69,-4.45,-4.45,-2.76,-2.77,2.77,2.99,2.63,-1.68,-1.68,-1.68
217.85,-4.47,-4.47,-2.78,-2.78,2.78,3.03,2.66,-1.68,-1.68,-1.68
220.03,-4.49,-4.48,-2.80,-2.80,2.79,3.07,2.69,-1.70,-1.70,-1.68
222.23,-4.50,-4.50,-2.81,-2.82,2.80,3.11,2.72,-1.70,-1.70,-1.68
224.45,-4.52,-4.52,-2.83,-2.84,2.82,3.15,2.74,-1.69,-1.70,-1.68
226.70,-4.55,-4.55,-2.86,-2.86,2.87,3.18,2.77,-1.68,-1.68,-1.68
228.96,-4.58,-4.58,-2.89,-2.90,2.92,3.21,2.80,-1.65,-1.66,-1.68
231.25,-4.62,-4.59,-2.93,-2.90,2.99,3.25,2.82,-1.63,-1.60,-1.68
233.57,-4.66,-4.66,-2.97,-2.97,3.04,3.28,2.85,-1.61,-1.62,-1.68
235.90,-4.70,-4.84,-3.00,-3.15,3.10,3.30,2.87,-1.60,-1.74,-1.69
238.26,-5.04,-4.95,-3.34,-3.26,3.16,3.33,2.89,-1.88,-1.79,-1.69
240.64,-5.20,-5.01,-3.50,-3.31,3.22,3.34,2.92,-1.97,-1.79,-1.69
243.05,-4.85,-5.02,-3.15,-3.33,3.29,3.36,2.94,-1.56,-1.73,-1.69
245.48,-4.95,-4.98,-3.25,-3.28,3.35,3.38,2.96,-1.60,-1.63,-1.69
247.93,-5.05,-5.00,-3.35,-3.30,3.41,3.39,2.98,-1.64,-1.59,-1.69
250.41,-5.12,-5.12,-3.42,-3.43,3.46,3.40,2.99,-1.66,-1.67,-1.69
252.92,-5.20,-5.20,-3.50,-3.51,3.50,3.41,3.01,-1.70,-1.70,-1.69
255.45,-5.28,-5.28,-3.58,-3.58,3.55,3.41,3.02,-1.73,-1.72,-1.69
258.00,-5.35,-5.34,-3.65,-3.64,3.61,3.41,3.04,-1.74,-1.72,-1.69
260.58,-5.38,-5.38,-3.68,-3.68,3.67,3.41,3.05,-1.71,-1.71,-1.69
263.19,-5.41,-5.42,-3.71,-3.73,3.73,3.41,3.06,-1.68,-1.69,-1.69
265.82,-5.45,-5.45,-3.75,-3.76,3.76,3.40,3.07,-1.69,-1.69,-1.69
268.48,-5.51,-5.48,-3.81,-3.79,3.78,3.39,3.09,-1.73,-1.70,-1.69
271.16,-5.49,-5.51,-3.79,-3.81,3.80,3.39,3.10,-1.69,-1.71,-1.69
273.87,-5.51,-5.51,-3.81,-3.82,3.81,3.38,3.11,-1.70,-1.70,-1.69
276.61,-5.53,-5.50,-3.83,-3.81,3.82,3.37,3.11,-1.71,-1.68,-1.69
279.38,-5.49,-5.50,-3.79,-3.81,3.83,3.36,3.12,-1.66,-1.67,-1.69
282.17,-5.49,-5.50,-3.79,-3.81,3.82,3.35,3.13,-1.66,-1.67,-1.69
284.99,-5.50,-5.50,-3.81,-3.82,3.82,3.34,3.14,-1.68,-1.69,-1.68
287.84,-5.52,-5.51,-3.84,-3.83,3.81,3.33,3.15,-1.71,-1.71,-1.67
290.72,-5.52,-5.50,-3.84,-3.83,3.80,3.32,3.17,-1.72,-1.71,-1.67
293.63,-5.47,-5.46,-3.79,-3.79,3.79,3.32,3.18,-1.68,-1.67,-1.67
296.57,-5.42,-5.42,-3.75,-3.75,3.78,3.31,3.19,-1.63,-1.63,-1.66
299.53,-5.36,-5.40,-3.70,-3.74,3.77,3.30,3.21,-1.58,-1.62,-1.65
302.53,-5.41,-5.40,-3.75,-3.74,3.76,3.30,3.22,-1.65,-1.64,-1.65
305.55,-5.43,-5.40,-3.78,-3.76,3.74,3.30,3.24,-1.68,-1.66,-1.64
308.61,-5.39,-5.40,-3.74,-3.75,3.73,3.30,3.26,-1.66,-1.67,-1.64
311.69,-5.36,-5.36,-3.72,-3.72,3.71,3.30,3.28,-1.65,-1.65,-1.63
314.81,-5.32,-5.32,-3.68,-3.69,3.69,3.30,3.30,-1.63,-1.63,-1.63
317.96,-5.29,-5.29,-3.66,-3.66,3.67,3.30,3.33,-1.62,-1.62,-1.62
321.14,-5.25,-5.25,-3.62,-3.63,3.63,3.31,3.36,-1.61,-1.61,-1.62
324.35,-5.21,-5.21,-3.59,-3.59,3.60,3.32,3.39,-1.61,-1.61,-1.61
327.59,-5.16,-5.16,-3.55,-3.55,3.55,3.33,3.42,-1.60,-1.61,-1.60
330.87,-5.11,-5.11,-3.50,-3.51,3.51,3.35,3.46,-1.60,-1.60,-1.60
334.18,-5.07,-5.05,-3.47,-3.46,3.46,3.36,3.50,-1.61,-1.59,-1.59
337.52,-4.99,-4.99,-3.39,-3.40,3.41,3.38,3.54,-1.58,-1.58,-1.59
340.90,-4.91,-4.92,-3.32,-3.34,3.35,3.40,3.58,-1.56,-1.57,-1.58
344.30,-4.85,-4.84,-3.27,-3.26,3.28,3.42,3.63,-1.57,-1.56,-1.57
347.75,-4.76,-4.76,-3.19,-3.19,3.19,3.45,3.68,-1.56,-1.56,-1.56
351.23,-4.65,-4.65,-3.08,-3.09,3.06,3.48,3.73,-1.59,-1.59,-1.56
354.74,-4.52,-4.52,-2.97,-2.97,2.88,3.51,3.78,-1.64,-1.64,-1.54
358.28,-4.36,-4.36,-2.81,-2.82,2.68,3.54,3.84,-1.68,-1.68,-1.54
361.87,-4.17,-4.16,-2.63,-2.63,2.48,3.57,3.90,-1.69,-1.68,-1.53
365.49,-3.94,-3.90,-2.41,-2.37,2.31,3.61,3.97,-1.63,-1.59,-1.52
369.14,-3.65,-3.62,-2.12,-2.10,2.18,3.65,4.03,-1.47,-1.44,-1.52
372.83,-3.40,-3.31,-1.89,-1.79,2.10,3.69,4.10,-1.29,-1.20,-1.50
376.56,-3.44,-3.34,-1.93,-1.84,2.10,3.74,4.17,-1.34,-1.24,-1.50
380.33,-3.87,-4.31,-2.37,-2.81,2.17,3.78,4.25,-1.70,-2.14,-1.49
384.13,-5.99,-6.31,-4.49,-4.82,2.31,3.83,4.32,-3.68,-4.01,-1.49
387.97,-9.27,-9.27,-7.78,-7.79,2.51,3.88,4.40,-6.75,-6.76,-1.48
391.85,-11.96,-11.74,-10.49,-10.26,2.78,3.93,4.48,-9.18,-8.96,-1.46
395.77,-13.77,-12.77,-12.30,-11.31,3.07,3.98,4.57,-10.70,-9.70,-1.46
399.73,-11.95,-12.35,-10.49,-10.90,3.37,4.04,4.65,-8.58,-8.98,-1.45
403.72,-10.78,-11.13,-9.33,-9.68,3.65,4.10,4.74,-7.13,-7.48,-1.44
407.76,-9.86,-9.84,-8.41,-8.40,3.90,4.16,4.83,-5.95,-5.94,-1.44
411.84,-9.22,-9.23,-7.78,-7.80,4.16,4.22,4.91,-5.06,-5.07,-1.43
