frequency,raw,error,smoothed,error_smoothed,equalization,parametric_eq,fixed_band_eq,equalized_raw,equalized_smoothed,target
20.00,10.98,5.46,10.98,5.46,-5.45,-5.18,-2.57,5.53,5.53,5.52
20.20,10.98,5.48,10.98,5.48,-5.48,-5.18,-2.64,5.50,5.50,5.50
20.40,10.98,5.50,10.98,5.50,-5.50,-5.19,-2.72,5.48,5.48,5.48
20.61,10.98,5.51,10.98,5.51,-5.52,-5.19,-2.79,5.46,5.46,5.47
20.81,10.98,5.53,10.98,5.53,-5.54,-5.19,-2.87,5.44,5.44,5.45
21.02,10.98,5.54,10.98,5.54,-5.55,-5.20,-2.96,5.42,5.42,5.43
21.23,10.98,5.56,10.98,5.56,-5.57,-5.20,-3.04,5.41,5.41,5.41
21.44,10.98,5.57,10.98,5.57,-5.58,-5.20,-3.13,5.40,5.40,5.40
21.66,10.98,5.58,10.98,5.59,-5.58,-5.21,-3.21,5.39,5.39,5.39
21.87,10.98,5.60,10.97,5.60,-5.59,-5.21,-3.31,5.39,5.39,5.37
22.09,10.97,5.60,10.96,5.60,-5.59,-5.21,-3.40,5.38,5.38,5.36
22.31,10.95,5.59,10.95,5.60,-5.59,-5.22,-3.50,5.36,5.36,5.35
22.54,10.93,5.59,10.92,5.58,-5.58,-5.22,-3.60,5.34,5.34,5.34
22.76,10.90,5.57,10.90,5.57,-5.58,-5.23,-3.70,5.32,5.32,5.33
22.99,10.88,5.56,10.88,5.56,-5.58,-5.23,-3.80,5.30,5.31,5.32
23.22,10.88,5.57,10.87,5.56,-5.57,-5.24,-3.91,5.30,5.30,5.31
23.45,10.88,5.57,10.87,5.57,-5.57,-5.24,-4.02,5.30,5.30,5.31
23.69,10.88,5.58,10.88,5.58,-5.57,-5.24,-4.13,5.30,5.30,5.30
23.92,10.88,5.58,10.88,5.58,-5.58,-5.25,-4.24,5.30,5.30,5.30
24.16,10.88,5.58,10.88,5.58,-5.57,-5.25,-4.36,5.30,5.30,5.30
24.40,10.88,5.58,10.88,5.58,-5.56,-5.26,-4.47,5.31,5.31,5.29
24.65,10.88,5.58,10.88,5.58,-5.54,-5.26,-4.59,5.34,5.34,5.29
24.89,10.88,5.58,10.88,5.58,-5.52,-5.27,-4.71,5.35,5.35,5.29
25.14,10.88,5.58,10.88,5.59,-5.54,-5.27,-4.84,5.34,5.34,5.29
25.39,10.88,5.59,10.85,5.56,-5.61,-5.28,-4.96,5.26,5.24,5.29
25.65,10.88,5.59,10.86,5.56,-5.74,-5.28,-5.08,5.14,5.12,5.29
25.91,10.88,5.58,10.93,5.64,-5.89,-5.29,-5.21,4.98,5.04,5.30
26.16,11.10,5.80,11.11,5.82,-6.04,-5.29,-5.33,5.06,5.08,5.30
26.43,11.41,6.11,11.45,6.15,-6.15,-5.30,-5.46,5.26,5.30,5.30
26.69,11.76,6.46,11.78,6.49,-6.21,-5.30,-5.58,5.54,5.57,5.30
26.96,12.09,6.80,11.93,6.63,-6.23,-5.31,-5.70,5.86,5.70,5.29
27.23,11.84,6.55,11.82,6.53,-6.20,-5.31,-5.82,5.64,5.62,5.29
27.50,11.46,6.17,11.49,6.20,-6.13,-5.32,-5.94,5.33,5.36,5.29
27.77,11.08,5.79,11.10,5.81,-6.00,-5.32,-6.05,5.08,5.10,5.29
28.05,10.78,5.49,10.86,5.57,-5.84,-5.33,-6.16,4.94,5.02,5.29
28.33,10.78,5.50,10.75,5.47,-5.65,-5.34,-6.26,5.13,5.11,5.28
28.62,10.78,5.50,10.75,5.47,-5.48,-5.34,-6.36,5.29,5.26,5.28
28.90,10.78,5.50,10.78,5.50,-5.41,-5.35,-6.45,5.37,5.37,5.27
29.19,10.78,5.50,10.77,5.49,-5.45,-5.35,-6.54,5.33,5.32,5.27
29.48,10.78,5.51,10.75,5.48,-5.59,-5.36,-6.62,5.19,5.16,5.27
29.78,10.78,5.51,10.79,5.52,-5.77,-5.37,-6.69,5.01,5.02,5.27
30.08,10.87,5.61,10.94,5.68,-5.92,-5.37,-6.75,4.96,5.02,5.27
30.38,11.23,5.97,11.29,6.03,-6.02,-5.38,-6.81,5.21,5.27,5.26
30.68,11.63,6.37,11.64,6.38,-6.08,-5.39,-6.85,5.55,5.56,5.25
30.99,12.00,6.75,11.79,6.54,-6.09,-5.39,-6.89,5.91,5.70,5.25
31.30,11.63,6.39,11.62,6.38,-6.06,-5.40,-6.91,5.57,5.56,5.24
31.61,11.20,5.96,11.25,6.02,-6.00,-5.40,-6.93,5.20,5.26,5.24
31.93,10.79,5.56,10.87,5.64,-5.88,-5.41,-6.93,4.91,4.99,5.23
32.24,10.68,5.45,10.69,5.47,-5.73,-5.42,-6.93,4.95,4.97,5.22
32.57,10.68,5.46,10.64,5.42,-5.57,-5.43,-6.91,5.10,5.07,5.22
32.89,10.68,5.46,10.67,5.45,-5.47,-5.43,-6.89,5.21,5.20,5.22
33.22,10.68,5.46,10.66,5.45,-5.45,-5.44,-6.86,5.23,5.22,5.21
33.55,10.68,5.46,10.66,5.45,-5.50,-5.45,-6.82,5.17,5.16,5.21
33.89,10.68,5.46,10.71,5.50,-5.60,-5.45,-6.78,5.07,5.11,5.22
34.23,10.82,5.60,10.86,5.64,-5.69,-5.46,-6.73,5.12,5.16,5.22
34.57,11.02,5.80,11.02,5.81,-5.75,-5.47,-6.67,5.27,5.28,5.21
34.92,11.21,6.00,11.13,5.91,-5.75,-5.48,-6.61,5.46,5.38,5.22
35.27,11.11,5.89,11.12,5.90,-5.67,-5.48,-6.55,5.44,5.45,5.22
35.62,10.90,5.68,10.94,5.72,-5.53,-5.49,-6.48,5.36,5.41,5.22
35.97,10.68,5.46,10.61,5.39,-5.36,-5.50,-6.41,5.32,5.25,5.22
36.33,10.22,5.01,10.18,4.96,-5.18,-5.50,-6.33,5.04,5.00,5.21
36.70,9.76,4.55,9.79,4.58,-5.02,-5.51,-6.26,4.74,4.77,5.21
37.06,9.40,4.19,9.54,4.33,-4.90,-5.52,-6.19,4.50,4.63,5.21
37.43,9.57,4.38,9.52,4.32,-4.85,-5.53,-6.11,4.72,4.67,5.19
37.81,9.74,4.55,9.71,4.52,-4.87,-5.54,-6.04,4.87,4.84,5.19
38.19,9.99,4.82,10.06,4.88,-4.94,-5.54,-5.96,5.05,5.11,5.17
38.57,10.36,5.20,10.36,5.20,-5.07,-5.55,-5.89,5.29,5.30,5.16
38.95,10.71,5.56,10.59,5.44,-5.23,-5.56,-5.82,5.48,5.36,5.14
39.34,10.69,5.56,10.68,5.55,-5.40,-5.57,-5.75,5.28,5.27,5.13
39.74,10.62,5.49,10.67,5.55,-5.56,-5.57,-5.69,5.06,5.11,5.12
40.14,10.61,5.50,10.65,5.55,-5.65,-5.58,-5.62,4.96,5.01,5.11
40.54,10.70,5.60,10.70,5.60,-5.62,-5.59,-5.56,5.08,5.08,5.09
40.94,10.79,5.70,10.74,5.66,-5.53,-5.60,-5.51,5.26,5.22,5.09
41.35,10.70,5.61,10.73,5.65,-5.42,-5.60,-5.45,5.28,5.31,5.08
41.76,10.57,5.51,10.54,5.47,-5.31,-5.61,-5.40,5.26,5.23,5.06
42.18,10.26,5.20,10.10,5.04,-5.26,-5.62,-5.36,5.01,4.85,5.06
42.60,9.71,4.65,9.72,4.66,-5.24,-5.63,-5.31,4.47,4.48,5.06
43.03,9.25,4.19,9.58,4.52,-5.25,-5.63,-5.27,4.00,4.33,5.05
43.46,9.80,4.75,9.76,4.70,-5.27,-5.64,-5.24,4.53,4.49,5.05
43.90,10.33,5.28,10.19,5.15,-5.30,-5.65,-5.21,5.03,4.89,5.05
44.33,10.63,5.59,10.65,5.61,-5.36,-5.65,-5.18,5.26,5.28,5.04
44.78,10.83,5.80,10.79,5.76,-5.46,-5.66,-5.15,5.37,5.33,5.03
45.23,10.81,5.77,10.73,5.70,-5.57,-5.66,-5.13,5.24,5.16,5.04
45.68,10.56,5.53,10.61,5.58,-5.65,-5.67,-5.12,4.91,4.96,5.03
46.13,10.42,5.40,10.53,5.51,-5.68,-5.68,-5.10,4.74,4.85,5.02
46.60,10.56,5.56,10.54,5.53,-5.65,-5.68,-5.10,4.92,4.89,5.01
47.06,10.69,5.69,10.62,5.62,-5.59,-5.69,-5.09,5.09,5.03,5.00
47.53,10.64,5.65,10.65,5.66,-5.52,-5.69,-5.09,5.12,5.13,4.99
48.01,10.58,5.60,10.55,5.58,-5.46,-5.69,-5.09,5.11,5.09,4.98
48.49,10.43,5.47,10.43,5.46,-5.45,-5.70,-5.10,4.98,4.98,4.96
48.97,10.29,5.34,10.33,5.38,-5.45,-5.70,-5.10,4.83,4.87,4.95
49.46,10.28,5.34,10.27,5.34,-5.46,-5.70,-5.12,4.82,4.81,4.94
49.96,10.28,5.36,10.25,5.34,-5.47,-5.70,-5.13,4.81,4.79,4.91
50.46,10.32,5.41,10.31,5.40,-5.49,-5.70,-5.15,4.83,4.82,4.90
50.96,10.37,5.48,10.48,5.59,-5.54,-5.70,-5.17,4.82,4.94,4.89
51.47,10.63,5.75,10.64,5.77,-5.63,-5.70,-5.19,4.99,5.01,4.88
51.99,10.89,6.03,10.61,5.74,-5.72,-5.69,-5.21,5.18,4.89,4.86
52.51,10.53,5.68,10.55,5.70,-5.75,-5.69,-5.24,4.78,4.80,4.85
53.03,10.20,5.36,10.61,5.77,-5.75,-5.68,-5.26,4.44,4.85,4.83
53.56,10.75,5.93,10.67,5.85,-5.75,-5.67,-5.29,5.00,4.92,4.82
54.10,11.08,6.28,10.69,5.89,-5.74,-5.66,-5.32,5.34,4.95,4.80
54.64,10.48,5.69,10.56,5.77,-5.72,-5.65,-5.35,4.76,4.84,4.79
55.18,10.07,5.29,10.23,5.46,-5.68,-5.64,-5.38,4.39,4.55,4.77
55.74,10.07,5.31,10.15,5.40,-5.64,-5.62,-5.41,4.43,4.51,4.75
56.29,10.31,5.57,10.37,5.64,-5.62,-5.60,-5.44,4.69,4.75,4.74
56.86,10.76,6.04,10.51,5.79,-5.62,-5.58,-5.47,5.14,4.89,4.72
57.42,10.54,5.84,10.46,5.75,-5.64,-5.56,-5.50,4.90,4.82,4.70
58.00,10.10,5.41,10.24,5.55,-5.66,-5.54,-5.52,4.44,4.58,4.69
58.58,10.05,5.38,10.14,5.47,-5.65,-5.52,-5.55,4.39,4.49,4.67
59.16,10.16,5.51,10.30,5.64,-5.62,-5.50,-5.57,4.54,4.68,4.65
59.76,10.65,6.02,10.45,5.82,-5.55,-5.48,-5.59,5.11,4.91,4.63
60.35,10.50,5.90,10.34,5.73,-5.47,-5.47,-5.61,5.03,4.87,4.61
60.96,9.91,5.32,9.90,5.31,-5.43,-5.46,-5.62,4.48,4.47,4.58
61.57,9.34,4.78,9.46,4.90,-5.42,-5.46,-5.63,3.92,4.04,4.56
62.18,9.12,4.58,9.37,4.83,-5.45,-5.46,-5.64,3.67,3.92,4.54
62.80,9.75,5.25,9.70,5.19,-5.48,-5.47,-5.64,4.27,4.21,4.50
63.43,10.17,5.69,10.03,5.55,-5.52,-5.49,-5.65,4.65,4.51,4.48
64.07,10.42,5.97,10.16,5.71,-5.54,-5.52,-5.65,4.88,4.62,4.45
64.71,9.91,5.49,10.19,5.77,-5.58,-5.55,-5.64,4.32,4.61,4.42
65.35,9.97,5.58,10.18,5.80,-5.64,-5.58,-5.63,4.33,4.54,4.39
66.01,10.49,6.14,10.15,5.79,-5.70,-5.62,-5.62,4.80,4.45,4.35
66.67,10.11,5.79,10.10,5.78,-5.72,-5.66,-5.61,4.38,4.38,4.32
67.33,9.79,5.51,9.86,5.57,-5.71,-5.70,-5.60,4.09,4.15,4.28
68.01,9.57,5.32,9.60,5.35,-5.68,-5.73,-5.58,3.89,3.92,4.25
68.69,9.60,5.39,9.79,5.58,-5.66,-5.77,-5.57,3.93,4.13,4.21
69.37,9.98,5.80,9.98,5.81,-5.66,-5.81,-5.55,4.32,4.32,4.18
70.07,10.49,6.36,10.02,5.88,-5.69,-5.84,-5.53,4.80,4.32,4.14
70.77,9.72,5.62,9.88,5.78,-5.75,-5.88,-5.51,3.97,4.13,4.10
71.48,9.53,5.46,9.85,5.78,-5.82,-5.91,-5.49,3.70,4.02,4.07
72.19,9.77,5.75,9.80,5.77,-5.92,-5.93,-5.47,3.84,3.88,4.02
72.91,10.38,6.40,9.88,5.89,-6.00,-5.96,-5.45,4.38,3.88,3.99
73.64,9.76,5.81,9.98,6.03,-6.04,-5.99,-5.44,3.72,3.94,3.95
74.38,9.74,5.82,10.10,6.19,-6.08,-6.01,-5.42,3.66,4.02,3.91
75.12,10.34,6.47,10.05,6.19,-6.11,-6.03,-5.40,4.22,3.94,3.86
75.87,10.33,6.51,10.03,6.21,-6.12,-6.05,-5.39,4.21,3.92,3.82
76.63,9.66,5.87,9.95,6.17,-6.09,-6.07,-5.38,3.57,3.86,3.78
77.40,9.57,5.82,9.79,6.05,-6.05,-6.08,-5.37,3.52,3.75,3.74
78.17,9.98,6.27,9.69,5.99,-6.00,-6.10,-5.37,3.98,3.70,3.70
78.95,9.74,6.09,9.62,5.96,-5.96,-6.11,-5.37,3.78,3.66,3.66
79.74,9.31,5.69,9.43,5.81,-5.95,-6.13,-5.36,3.35,3.47,3.61
80.54,9.17,5.60,9.29,5.72,-5.97,-6.14,-5.37,3.20,3.32,3.57
81.35,9.37,5.84,9.47,5.94,-6.00,-6.15,-5.38,3.36,3.46,3.53
82.16,9.77,6.29,9.57,6.09,-6.02,-6.16,-5.39,3.75,3.55,3.48
82.98,9.87,6.44,9.64,6.20,-6.03,-6.17,-5.40,3.84,3.60,3.43
83.81,9.22,5.83,9.66,6.27,-6.06,-6.18,-5.42,3.15,3.60,3.39
84.65,9.66,6.32,9.56,6.22,-6.12,-6.19,-5.44,3.54,3.44,3.34
85.50,9.67,6.39,9.41,6.13,-6.21,-6.20,-5.47,3.46,3.21,3.28
86.35,9.23,5.99,9.26,6.03,-6.26,-6.21,-5.50,2.96,2.99,3.23
87.22,8.97,5.79,9.14,5.95,-6.25,-6.22,-5.53,2.72,2.89,3.18
88.09,9.05,5.92,9.33,6.20,-6.20,-6.23,-5.57,2.84,3.12,3.13
88.97,9.82,6.74,9.54,6.46,-6.17,-6.23,-5.61,3.66,3.37,3.08
89.86,9.86,6.84,9.55,6.53,-6.14,-6.24,-5.66,3.71,3.40,3.02
90.76,9.07,6.10,9.31,6.34,-6.15,-6.25,-5.71,2.92,3.16,2.97
91.66,8.78,5.87,8.86,5.96,-6.18,-6.25,-5.76,2.60,2.69,2.90
92.58,8.71,5.86,8.63,5.78,-6.20,-6.26,-5.82,2.50,2.43,2.85
93.51,8.67,5.88,8.78,6.00,-6.22,-6.27,-5.88,2.45,2.57,2.79
94.44,8.94,6.21,8.99,6.27,-6.22,-6.27,-5.95,2.72,2.77,2.72
95.39,9.31,6.66,9.04,6.38,-6.25,-6.28,-6.02,3.07,2.79,2.66
96.34,9.10,6.50,9.09,6.50,-6.31,-6.29,-6.09,2.78,2.78,2.59
97.30,8.74,6.22,9.09,6.57,-6.43,-6.29,-6.17,2.31,2.67,2.52
98.28,9.17,6.72,8.92,6.47,-6.56,-6.30,-6.25,2.61,2.36,2.45
99.26,9.06,6.68,8.88,6.50,-6.65,-6.31,-6.34,2.41,2.23,2.38
100.25,8.55,6.25,8.94,6.64,-6.68,-6.31,-6.42,1.87,2.27,2.30
101.25,8.98,6.75,8.89,6.66,-6.69,-6.32,-6.51,2.29,2.20,2.23
102.27,9.13,6.98,8.89,6.74,-6.71,-6.33,-6.60,2.42,2.18,2.15
103.29,8.81,6.73,8.98,6.90,-6.72,-6.33,-6.70,2.09,2.26,2.07
104.32,8.73,6.73,8.81,6.81,-6.72,-6.34,-6.79,2.01,2.09,2.00
105.37,8.83,6.91,8.55,6.63,-6.72,-6.35,-6.88,2.11,1.83,1.92
106.42,8.30,6.46,8.38,6.54,-6.66,-6.36,-6.98,1.64,1.72,1.83
107.48,8.08,6.32,8.41,6.64,-6.59,-6.36,-7.07,1.49,1.81,1.76
108.56,8.43,6.73,8.33,6.64,-6.56,-6.37,-7.17,1.87,1.77,1.69
109.64,8.66,7.05,8.11,6.50,-6.52,-6.38,-7.26,2.14,1.59,1.62
110.74,7.69,6.15,8.01,6.47,-6.49,-6.39,-7.35,1.19,1.52,1.54
111.85,7.39,5.91,7.89,6.41,-6.51,-6.40,-7.44,0.87,1.38,1.47
112.97,8.36,6.95,7.79,6.38,-6.55,-6.41,-7.52,1.81,1.24,1.41
114.10,8.01,6.66,8.00,6.66,-6.59,-6.42,-7.60,1.42,1.41,1.34
115.24,7.76,6.48,8.09,6.81,-6.66,-6.43,-7.68,1.10,1.43,1.28
116.39,8.15,6.93,7.87,6.65,-6.75,-6.44,-7.75,1.40,1.12,1.21
117.55,7.96,6.80,7.96,6.80,-6.83,-6.45,-7.81,1.12,1.12,1.16
118.73,7.76,6.66,8.05,6.95,-6.92,-6.47,-7.86,0.84,1.13,1.10
119.92,8.28,7.24,8.01,6.97,-7.01,-6.48,-7.91,1.28,1.00,1.04
121.12,8.08,7.09,8.07,7.08,-7.06,-6.49,-7.95,1.01,1.00,0.99
122.33,7.93,6.99,8.13,7.19,-7.07,-6.50,-7.97,0.86,1.06,0.94
123.55,8.07,7.18,7.91,7.02,-7.05,-6.52,-8.00,1.02,0.86,0.89
124.79,7.98,7.14,7.82,6.99,-7.00,-6.53,-8.00,0.98,0.83,0.83
126.03,7.45,6.66,7.89,7.11,-6.92,-6.55,-8.01,0.53,0.97,0.78
127.29,7.90,7.16,7.76,7.02,-6.88,-6.56,-8.00,1.02,0.88,0.73
128.57,7.96,7.27,7.42,6.73,-6.85,-6.57,-7.98,1.11,0.57,0.68
129.85,6.91,6.27,7.24,6.60,-6.82,-6.59,-7.95,0.08,0.42,0.64
131.15,6.67,6.08,7.15,6.57,-6.82,-6.60,-7.92,-0.16,0.33,0.59
132.46,7.59,7.05,7.23,6.69,-6.85,-6.62,-7.88,0.74,0.39,0.54
133.79,7.82,7.32,7.60,7.10,-6.89,-6.64,-7.83,0.92,0.70,0.49
135.12,7.45,7.00,7.66,7.21,-6.97,-6.65,-7.77,0.48,0.69,0.45
136.48,7.62,7.21,7.45,7.05,-7.06,-6.67,-7.71,0.55,0.39,0.40
137.84,7.22,6.86,7.43,7.08,-7.14,-6.68,-7.64,0.07,0.29,0.36
139.22,7.44,7.13,7.46,7.15,-7.17,-6.70,-7.56,0.26,0.28,0.31
140.61,7.70,7.43,7.40,7.14,-7.14,-6.72,-7.49,0.55,0.26,0.26
142.02,7.25,7.04,7.52,7.31,-7.08,-6.73,-7.41,0.17,0.44,0.21
143.44,7.32,7.16,7.35,7.19,-7.02,-6.75,-7.32,0.29,0.33,0.16
144.87,7.46,7.35,7.01,6.90,-7.01,-6.76,-7.24,0.44,0.00,0.11
146.32,6.59,6.52,6.88,6.82,-7.03,-6.78,-7.16,-0.44,-0.15,0.07
147.78,6.52,6.50,6.81,6.79,-7.03,-6.80,-7.07,-0.52,-0.22,0.02
149.26,7.13,7.15,6.81,6.84,-7.02,-6.81,-6.99,0.11,-0.20,-0.03
150.75,7.13,7.20,7.06,7.14,-7.00,-6.83,-6.90,0.13,0.07,-0.07
152.26,6.95,7.07,7.17,7.29,-6.98,-6.84,-6.82,-0.03,0.20,-0.12
153.78,7.19,7.34,7.03,7.19,-6.99,-6.85,-6.74,0.20,0.04,-0.16
155.32,6.97,7.17,6.87,7.07,-7.01,-6.87,-6.66,-0.04,-0.14,-0.20
156.88,6.54,6.78,6.64,6.89,-7.00,-6.88,-6.58,-0.47,-0.36,-0.24
158.44,6.45,6.73,6.48,6.77,-7.00,-6.89,-6.51,-0.56,-0.52,-0.29
160.03,6.39,6.72,6.54,6.88,-7.01,-6.90,-6.44,-0.63,-0.47,-0.33
161.63,6.79,7.17,6.59,6.97,-7.01,-6.91,-6.38,-0.22,-0.42,-0.38
163.24,6.75,7.18,6.59,7.01,-7.01,-6.92,-6.31,-0.26,-0.42,-0.42
164.88,6.32,6.78,6.61,7.07,-7.01,-6.93,-6.26,-0.69,-0.40,-0.46
166.53,6.60,7.10,6.64,7.14,-6.99,-6.94,-6.20,-0.40,-0.35,-0.50
168.19,6.80,7.34,6.68,7.22,-6.98,-6.94,-6.15,-0.18,-0.30,-0.54
169.87,6.74,7.32,6.54,7.12,-6.95,-6.95,-6.10,-0.21,-0.41,-0.58
171.57,6.17,6.78,6.17,6.78,-6.91,-6.95,-6.06,-0.75,-0.75,-0.61
173.29,5.65,6.30,5.98,6.62,-6.88,-6.95,-6.03,-1.24,-0.91,-0.65
175.02,5.87,6.54,5.93,6.61,-6.86,-6.96,-5.99,-0.99,-0.93,-0.68
176.77,6.42,7.13,6.03,6.74,-6.82,-6.96,-5.96,-0.40,-0.79,-0.71
178.54,6.06,6.80,6.19,6.93,-6.78,-6.95,-5.94,-0.73,-0.59,-0.74
180.32,6.04,6.80,6.21,6.97,-6.76,-6.95,-5.92,-0.72,-0.55,-0.77
182.13,6.25,7.04,6.09,6.88,-6.76,-6.95,-5.91,-0.51,-0.67,-0.79
183.95,6.11,6.92,6.03,6.85,-6.79,-6.94,-5.90,-0.68,-0.75,-0.81
185.79,5.80,6.63,5.86,6.69,-6.80,-6.93,-5.89,-1.00,-0.94,-0.83
187.65,5.69,6.54,5.74,6.60,-6.79,-6.92,-5.89,-1.10,-1.04,-0.85
189.52,5.68,6.55,5.78,6.66,-6.75,-6.91,-5.89,-1.08,-0.97,-0.87
191.42,6.00,6.88,5.82,6.71,-6.71,-6.90,-5.90,-0.72,-0.89,-0.88
193.33,5.92,6.82,5.84,6.75,-6.66,-6.88,-5.91,-0.75,-0.82,-0.90
195.27,5.65,6.57,5.90,6.82,-6.62,-6.87,-5.92,-0.97,-0.72,-0.92
197.22,5.86,6.79,5.77,6.71,-6.60,-6.85,-5.94,-0.74,-0.83,-0.94
199.19,5.89,6.84,5.59,6.55,-6.60,-6.83,-5.96,-0.71,-1.00,-0.96
201.18,5.26,6.23,5.52,6.49,-6.59,-6.81,-5.98,-1.34,-1.07,-0.97
203.19,5.25,6.24,5.39,6.38,-6.57,-6.78,-6.00,-1.32,-1.18,-0.99
205.23,5.62,6.62,5.34,6.34,-6.53,-6.76,-6.03,-0.91,-1.19,-1.00
207.28,5.42,6.44,5.54,6.56,-6.48,-6.73,-6.06,-1.06,-0.94,-1.02
209.35,5.50,6.53,5.65,6.69,-6.44,-6.70,-6.09,-0.95,-0.79,-1.03
211.44,5.81,6.86,5.54,6.59,-6.44,-6.67,-6.13,-0.63,-0.90,-1.06
213.56,5.46,6.53,5.38,6.45,-6.43,-6.64,-6.16,-0.97,-1.05,-1.07
215.69,4.94,6.03,5.16,6.25,-6.38,-6.61,-6.19,-1.45,-1.23,-1.10
217.85,4.97,6.07,5.04,6.15,-6.33,-6.57,-6.22,-1.36,-1.28,-1.11
220.03,5.15,6.28,5.12,6.24,-6.26,-6.53,-6.25,-1.11,-1.14,-1.13
222.23,5.34,6.48,5.17,6.31,-6.18,-6.50,-6.28,-0.85,-1.01,-1.14
224.45,5.08,6.23,5.06,6.21,-6.12,-6.46,-6.31,-1.05,-1.06,-1.15
226.70,4.77,5.93,4.85,6.02,-6.07,-6.41,-6.34,-1.31,-1.22,-1.16
228.96,4.70,5.87,4.75,5.92,-6.03,-6.37,-6.36,-1.33,-1.28,-1.18
231.25,4.75,5.92,4.86,6.04,-5.99,-6.32,-6.38,-1.25,-1.14,-1.18
233.57,5.03,6.21,4.85,6.04,-5.97,-6.28,-6.39,-0.94,-1.12,-1.19
235.90,4.96,6.15,4.73,5.92,-5.93,-6.23,-6.40,-0.98,-1.21,-1.20
238.26,4.29,5.48,4.62,5.81,-5.90,-6.18,-6.40,-1.62,-1.29,-1.20
240.64,4.50,5.69,4.58,5.77,-5.87,-6.13,-6.40,-1.38,-1.29,-1.19
243.05,4.81,6.00,4.66,5.86,-5.84,-6.08,-6.39,-1.03,-1.18,-1.19
245.48,4.88,6.07,4.78,5.97,-5.80,-6.03,-6.38,-0.92,-1.01,-1.19
247.93,4.66,5.84,4.68,5.87,-5.74,-5.97,-6.36,-1.09,-1.06,-1.19
250.41,4.44,5.62,4.50,5.69,-5.70,-5.92,-6.33,-1.27,-1.20,-1.19
252.92,4.35,5.53,4.34,5.52,-5.67,-5.86,-6.29,-1.32,-1.33,-1.18
255.45,4.31,5.50,4.28,5.47,-5.61,-5.81,-6.25,-1.30,-1.33,-1.19
258.00,4.25,5.44,4.37,5.56,-5.54,-5.75,-6.20,-1.29,-1.17,-1.19
260.58,4.40,5.59,4.34,5.54,-5.45,-5.69,-6.14,-1.05,-1.11,-1.20
263.19,4.49,5.69,4.26,5.47,-5.36,-5.63,-6.08,-0.88,-1.10,-1.20
265.82,3.93,5.14,4.15,5.36,-5.30,-5.57,-6.01,-1.37,-1.15,-1.22
268.48,3.99,5.21,4.00,5.23,-5.26,-5.51,-5.94,-1.27,-1.26,-1.22
271.16,3.97,5.21,3.90,5.13,-5.23,-5.45,-5.86,-1.27,-1.34,-1.24
273.87,3.90,5.14,3.89,5.14,-5.20,-5.39,-5.78,-1.31,-1.31,-1.25
276.61,3.82,5.08,3.80,5.06,-5.16,-5.33,-5.69,-1.35,-1.36,-1.26
279.38,3.75,5.02,3.79,5.07,-5.14,-5.26,-5.60,-1.39,-1.35,-1.28
282.17,3.80,5.08,3.90,5.19,-5.12,-5.20,-5.50,-1.32,-1.21,-1.28
284.99,4.05,5.33,3.96,5.24,-5.09,-5.14,-5.40,-1.04,-1.13,-1.29
287.84,4.09,5.37,3.91,5.19,-5.05,-5.07,-5.31,-0.97,-1.14,-1.28
290.72,3.63,4.91,3.72,5.01,-5.00,-5.01,-5.20,-1.37,-1.27,-1.29
293.63,3.48,4.77,3.59,4.87,-4.93,-4.95,-5.10,-1.46,-1.35,-1.29
296.57,3.46,4.74,3.54,4.83,-4.88,-4.88,-5.00,-1.43,-1.34,-1.29
299.53,3.74,5.02,3.47,4.75,-4.83,-4.82,-4.90,-1.09,-1.36,-1.28
302.53,3.43,4.71,3.40,4.68,-4.76,-4.75,-4.79,-1.34,-1.36,-1.28
305.55,3.06,4.33,3.40,4.68,-4.71,-4.69,-4.69,-1.65,-1.31,-1.28
308.61,3.49,4.77,3.38,4.66,-4.65,-4.62,-4.59,-1.17,-1.27,-1.28
311.69,3.63,4.91,3.42,4.71,-4.60,-4.56,-4.49,-0.97,-1.18,-1.28
314.81,3.34,4.62,3.42,4.71,-4.55,-4.49,-4.39,-1.21,-1.13,-1.29
317.96,3.17,4.46,3.23,4.52,-4.50,-4.43,-4.29,-1.33,-1.26,-1.29
321.14,3.12,4.41,3.08,4.37,-4.44,-4.37,-4.20,-1.33,-1.36,-1.29
324.35,3.00,4.28,2.99,4.28,-4.37,-4.30,-4.10,-1.38,-1.39,-1.29
327.59,2.93,4.22,2.91,4.20,-4.29,-4.24,-4.01,-1.37,-1.39,-1.29
330.87,2.84,4.13,2.93,4.23,-4.22,-4.17,-3.92,-1.39,-1.29,-1.29
334.18,2.93,4.22,2.97,4.27,-4.17,-4.11,-3.83,-1.24,-1.20,-1.30
337.52,3.12,4.41,2.86,4.16,-4.13,-4.05,-3.75,-1.02,-1.27,-1.30
340.90,2.74,4.04,2.75,4.05,-4.10,-3.98,-3.67,-1.36,-1.35,-1.30
344.30,2.40,3.69,2.69,3.98,-4.04,-3.92,-3.59,-1.64,-1.35,-1.29
347.75,2.76,4.04,2.69,3.98,-3.96,-3.86,-3.51,-1.21,-1.27,-1.29
351.23,2.89,4.18,2.73,4.01,-3.89,-3.80,-3.43,-1.00,-1.16,-1.30
354.74,2.71,3.99,2.64,3.93,-3.82,-3.74,-3.36,-1.11,-1.17,-1.28
358.28,2.30,3.58,2.42,3.70,-3.74,-3.67,-3.29,-1.45,-1.32,-1.28
361.87,2.18,3.45,2.25,3.52,-3.68,-3.61,-3.22,-1.50,-1.43,-1.27
365.49,2.29,3.55,2.20,3.46,-3.61,-3.55,-3.16,-1.32,-1.41,-1.27
369.14,2.26,3.52,2.31,3.57,-3.53,-3.49,-3.09,-1.28,-1.22,-1.27
372.83,2.31,3.56,2.36,3.61,-3.47,-3.43,-3.03,-1.16,-1.11,-1.25
376.56,2.45,3.70,2.22,3.47,-3.42,-3.37,-2.98,-0.97,-1.20,-1.25
380.33,2.05,3.30,2.08,3.34,-3.38,-3.32,-2.92,-1.34,-1.30,-1.25
384.13,1.76,3.01,2.02,3.28,-3.35,-3.26,-2.87,-1.59,-1.32,-1.25
387.97,2.08,3.33,1.99,3.24,-3.29,-3.20,-2.82,-1.21,-1.30,-1.26
391.85,2.21,3.45,2.03,3.28,-3.21,-3.14,-2.77,-1.00,-1.18,-1.25
395.77,1.93,3.19,1.99,3.25,-3.13,-3.09,-2.72,-1.20,-1.13,-1.26
399.73,1.77,3.03,1.82,3.08,-3.06,-3.03,-2.67,-1.30,-1.24,-1.26
403.72,1.69,2.95,1.68,2.95,-3.02,-2.97,-2.63,-1.33,-1.34,-1.26
407.76,1.63,2.91,1.61,2.88,-2.97,-2.92,-2.59,-1.35,-1.37,-1.28
411.84,1.57,2.85,1.54,2.82,-2.92,-2.86,-2.55,-1.35,-1.38,-1.28
415.96,1.49,2.77,1.56,2.85,-2.85,-2.81,-2.51,-1.36,-1.29,-1.29
420.12,1.54,2.83,1.60,2.89,-2.79,-2.75,-2.47,-1.25,-1.19,-1.30
424.32,1.73,3.01,1.52,2.80,-2.74,-2.69,-2.43,-1.01,-1.22,-1.29
428.56,1.44,2.72,1.44,2.72,-2.69,-2.64,-2.40,-1.25,-1.25,-1.28
432.85,1.13,2.39,1.38,2.65,-2.62,-2.58,-2.36,-1.50,-1.24,-1.26
437.18,1.39,2.64,1.24,2.48,-2.55,-2.53,-2.33,-1.16,-1.31,-1.25
441.55,1.37,2.58,1.21,2.42,-2.47,-2.47,-2.29,-1.11,-1.26,-1.21
445.96,1.02,2.19,1.28,2.46,-2.40,-2.42,-2.26,-1.39,-1.12,-1.17
450.42,1.26,2.38,1.21,2.34,-2.36,-2.36,-2.23,-1.10,-1.14,-1.12
454.93,1.42,2.49,1.16,2.23,-2.32,-2.31,-2.19,-0.91,-1.17,-1.08
459.48,1.02,2.03,1.22,2.24,-2.29,-2.25,-2.16,-1.27,-1.07,-1.02
464.07,1.15,2.11,1.28,2.25,-2.25,-2.19,-2.13,-1.11,-0.97,-0.97
468.71,1.50,2.41,1.34,2.26,-2.21,-2.14,-2.09,-0.72,-0.87,-0.92
473.40,1.54,2.39,1.44,2.29,-2.16,-2.08,-2.06,-0.62,-0.72,-0.86
478.13,1.29,2.08,1.38,2.18,-2.09,-2.02,-2.02,-0.81,-0.71,-0.80
482.91,1.23,1.98,1.25,2.00,-2.03,-1.97,-1.99,-0.80,-0.78,-0.75
487.74,1.20,1.91,1.18,1.89,-1.96,-1.91,-1.95,-0.76,-0.78,-0.71
492.62,1.17,1.84,1.16,1.83,-1.88,-1.85,-1.91,-0.71,-0.72,-0.67
497.55,1.15,1.78,1.13,1.77,-1.80,-1.79,-1.88,-0.66,-0.67,-0.63
