frequency,raw,error,smoothed,error_smoothed,equalization,parametric_eq,equalized_raw,equalized_smoothed,target
20,13.05,12.66,13.23,12.84,-12.84,-4.74,0.21,0.39,0.39
21,13.01,12.62,12.97,12.59,-12.59,-5.37,0.42,0.39,0.39
22,12.72,12.33,12.72,12.33,-12.33,-6.05,0.38,0.39,0.39
23,12.57,12.18,12.46,12.08,-12.08,-6.78,0.49,0.38,0.38
24,12.38,12.00,12.20,11.82,-11.82,-7.57,0.56,0.38,0.38
25,12.04,11.66,11.94,11.56,-11.56,-8.39,0.48,0.38,0.38
26,11.81,11.43,11.67,11.30,-11.30,-9.23,0.51,0.38,0.37
27,11.40,11.03,11.40,11.03,-11.03,-10.06,0.36,0.37,0.37
28,11.15,10.78,11.13,10.76,-10.76,-10.83,0.38,0.37,0.37
29,10.86,10.49,10.86,10.49,-10.49,-11.48,0.36,0.36,0.36
30,10.56,10.20,10.58,10.23,-10.23,-11.94,0.33,0.36,0.36
31,10.26,9.90,10.31,9.96,-9.96,-12.17,0.30,0.35,0.35
32,10.01,9.66,10.05,9.70,-9.70,-12.16,0.31,0.35,0.35
33,9.72,9.38,9.79,9.45,-9.45,-11.93,0.27,0.34,0.34
34,9.47,9.13,9.54,9.21,-9.21,-11.55,0.26,0.33,0.33
35,9.29,8.96,9.30,8.98,-8.98,-11.08,0.31,0.33,0.33
36,9.14,8.82,9.07,8.76,-8.76,-10.57,0.38,0.32,0.32
37,8.88,8.57,8.86,8.55,-8.55,-10.06,0.33,0.31,0.31
38,8.57,8.27,8.65,8.35,-8.35,-9.58,0.21,0.30,0.30
39,8.46,8.17,8.46,8.17,-8.17,-9.12,0.29,0.29,0.29
40,8.32,8.04,8.27,7.99,-7.99,-8.71,0.32,0.28,0.28
41,8.13,7.86,8.09,7.83,-7.83,-8.33,0.30,0.27,0.27
42,7.97,7.71,7.93,7.67,-7.67,-8.00,0.30,0.26,0.26
43,7.74,7.49,7.76,7.52,-7.52,-7.70,0.22,0.24,0.24
44,7.51,7.28,7.61,7.38,-7.38,-7.44,0.13,0.23,0.23
45,7.49,7.27,7.46,7.24,-7.24,-7.21,0.25,0.21,0.21
46,7.37,7.17,7.31,7.11,-7.11,-7.01,0.26,0.20,0.20
47,7.11,6.92,7.17,6.99,-6.99,-6.84,0.12,0.18,0.18
48,7.03,6.86,7.03,6.87,-6.87,-6.69,0.16,0.17,0.17
49,6.97,6.82,6.90,6.75,-6.75,-6.56,0.21,0.15,0.15
50,6.71,6.58,6.77,6.64,-6.64,-6.45,0.07,0.13,0.13
51,6.69,6.58,6.64,6.53,-6.53,-6.36,0.15,0.11,0.11
52,6.54,6.45,6.52,6.43,-6.43,-6.28,0.11,0.09,0.09
53,6.37,6.30,6.39,6.32,-6.32,-6.21,0.04,0.07,0.07
54,6.29,6.24,6.27,6.22,-6.22,-6.15,0.06,0.04,0.04
55,6.14,6.12,6.14,6.12,-6.12,-6.09,0.01,0.02,0.02
56,5.96,5.96,6.02,6.02,-6.02,-6.04,-0.07,-0.00,-0.00
57,5.97,6.00,5.90,5.93,-5.93,-5.98,0.04,-0.03,-0.03
58,5.73,5.78,5.77,5.83,-5.83,-5.93,-0.10,-0.06,-0.06
59,5.76,5.84,5.65,5.73,-5.73,-5.86,0.03,-0.08,-0.08
60,5.52,5.63,5.52,5.64,-5.64,-5.80,-0.12,-0.11,-0.11
61,5.40,5.54,5.40,5.54,-5.54,-5.73,-0.14,-0.14,-0.14
62,5.24,5.41,5.28,5.45,-5.45,-5.65,-0.21,-0.17,-0.17
63,5.14,5.34,5.15,5.35,-5.35,-5.56,-0.22,-0.20,-0.20
64,5.01,5.24,5.03,5.26,-5.26,-5.47,-0.26,-0.23,-0.23
65,4.95,5.21,4.91,5.17,-5.17,-5.37,-0.23,-0.26,-0.26
66,4.81,5.10,4.79,5.09,-5.09,-5.26,-0.28,-0.30,-0.30
67,4.65,4.98,4.67,5.00,-5.00,-5.15,-0.35,-0.33,-0.33
68,4.56,4.92,4.55,4.92,-4.92,-5.04,-0.36,-0.37,-0.37
69,4.40,4.80,4.44,4.84,-4.84,-4.92,-0.44,-0.40,-0.40
70,4.32,4.75,4.32,4.76,-4.76,-4.81,-0.44,-0.44,-0.44
71,4.26,4.73,4.20,4.68,-4.68,-4.69,-0.42,-0.47,-0.47
72,4.10,4.61,4.09,4.60,-4.60,-4.57,-0.50,-0.51,-0.51
73,3.91,4.46,3.98,4.52,-4.52,-4.45,-0.62,-0.55,-0.55
74,3.96,4.54,3.86,4.45,-4.45,-4.34,-0.49,-0.59,-0.59
75,3.78,4.40,3.75,4.38,-4.38,-4.22,-0.60,-0.63,-0.63
76,3.59,4.25,3.64,4.30,-4.30,-4.11,-0.72,-0.66,-0.66
77,3.51,4.21,3.53,4.23,-4.23,-4.00,-0.73,-0.70,-0.70
78,3.40,4.14,3.42,4.17,-4.17,-3.90,-0.77,-0.74,-0.74
79,3.32,4.10,3.31,4.10,-4.10,-3.80,-0.78,-0.78,-0.78
80,3.31,4.13,3.21,4.03,-4.03,-3.70,-0.73,-0.83,-0.83
81,3.09,3.95,3.10,3.97,-3.97,-3.61,-0.88,-0.87,-0.87
82,2.92,3.82,3.00,3.91,-3.91,-3.52,-0.99,-0.91,-0.91
83,2.87,3.82,2.90,3.85,-3.85,-3.43,-0.98,-0.95,-0.95
84,2.81,3.80,2.80,3.79,-3.79,-3.35,-0.98,-0.99,-0.99
85,2.71,3.74,2.70,3.73,-3.73,-3.27,-1.03,-1.03,-1.03
86,2.64,3.71,2.60,3.68,-3.68,-3.20,-1.04,-1.07,-1.07
87,2.54,3.65,2.50,3.62,-3.62,-3.13,-1.08,-1.11,-1.11
88,2.45,3.60,2.41,3.56,-3.56,-3.06,-1.12,-1.16,-1.16
89,2.32,3.51,2.31,3.51,-3.51,-3.00,-1.19,-1.20,-1.20
90,2.17,3.41,2.21,3.45,-3.45,-2.94,-1.28,-1.24,-1.24
91,2.12,3.40,2.12,3.40,-3.40,-2.88,-1.28,-1.28,-1.28
92,2.01,3.33,2.02,3.34,-3.34,-2.83,-1.34,-1.32,-1.32
93,1.90,3.26,1.93,3.29,-3.29,-2.78,-1.39,-1.36,-1.36
94,1.82,3.22,1.83,3.24,-3.24,-2.73,-1.42,-1.40,-1.40
95,1.75,3.19,1.74,3.18,-3.18,-2.69,-1.44,-1.44,-1.45
96,1.64,3.12,1.64,3.13,-3.13,-2.64,-1.49,-1.49,-1.49
97,1.51,3.03,1.55,3.07,-3.07,-2.60,-1.57,-1.53,-1.53
98,1.45,3.01,1.45,3.02,-3.02,-2.57,-1.57,-1.57,-1.57
99,1.40,3.00,1.35,2.96,-2.96,-2.53,-1.56,-1.61,-1.61
100,1.32,2.96,1.25,2.90,-2.90,-2.50,-1.58,-1.65,-1.64
101,1.20,2.88,1.14,2.84,-2.84,-2.46,-1.64,-1.70,-1.68
102,1.09,2.81,1.03,2.77,-2.77,-2.43,-1.68,-1.74,-1.72
104,0.86,2.65,0.93,2.70,-2.70,-2.38,-1.85,-1.78,-1.80
105,0.78,2.61,0.82,2.63,-2.63,-2.35,-1.86,-1.82,-1.83
106,0.71,2.57,0.71,2.56,-2.56,-2.33,-1.86,-1.86,-1.87
107,0.65,2.55,0.60,2.49,-2.49,-2.30,-1.85,-1.89,-1.90
108,0.46,2.39,0.49,2.43,-2.43,-2.28,-1.97,-1.93,-1.94
109,0.39,2.36,0.39,2.36,-2.36,-2.26,-1.97,-1.97,-1.97
110,0.30,2.30,0.29,2.29,-2.29,-2.23,-2.00,-2.00,-2.00
111,0.13,2.16,0.20,2.23,-2.23,-2.21,-2.11,-2.03,-2.03
112,0.08,2.14,0.11,2.17,-2.17,-2.19,-2.10,-2.07,-2.06
113,0.03,2.12,0.02,2.12,-2.12,-2.17,-2.09,-2.10,-2.09
114,-0.03,2.09,-0.06,2.07,-2.07,-2.15,-2.10,-2.13,-2.12
115,-0.06,2.08,-0.14,2.02,-2.02,-2.13,-2.09,-2.16,-2.15
117,-0.30,1.90,-0.21,1.98,-1.98,-2.09,-2.28,-2.19,-2.20
118,-0.26,1.96,-0.28,1.94,-1.94,-2.06,-2.20,-2.22,-2.23
119,-0.28,1.96,-0.35,1.90,-1.90,-2.04,-2.18,-2.25,-2.25
120,-0.43,1.84,-0.41,1.86,-1.86,-2.02,-2.29,-2.27,-2.27
121,-0.54,1.75,-0.48,1.82,-1.82,-2.00,-2.36,-2.30,-2.29
123,-0.54,1.79,-0.54,1.78,-1.78,-1.95,-2.33,-2.33,-2.34
124,-0.61,1.74,-0.61,1.75,-1.75,-1.93,-2.36,-2.35,-2.36
125,-0.63,1.74,-0.67,1.71,-1.71,-1.91,-2.34,-2.38,-2.37
126,-0.61,1.78,-0.73,1.67,-1.67,-1.88,-2.28,-2.40,-2.39
128,-0.84,1.59,-0.79,1.63,-1.63,-1.84,-2.47,-2.42,-2.43
129,-0.90,1.55,-0.85,1.59,-1.59,-1.81,-2.50,-2.44,-2.45
130,-0.92,1.54,-0.91,1.55,-1.55,-1.78,-2.48,-2.47,-2.46
131,-0.89,1.59,-0.97,1.51,-1.51,-1.76,-2.41,-2.49,-2.48
133,-1.09,1.42,-1.03,1.47,-1.47,-1.71,-2.57,-2.51,-2.51
134,-1.11,1.42,-1.09,1.44,-1.44,-1.68,-2.55,-2.53,-2.53
135,-1.18,1.36,-1.15,1.40,-1.40,-1.65,-2.58,-2.55,-2.54
137,-1.17,1.40,-1.21,1.36,-1.36,-1.60,-2.53,-2.57,-2.58
138,-1.17,1.42,-1.27,1.32,-1.32,-1.57,-2.49,-2.59,-2.59
140,-1.39,1.23,-1.33,1.28,-1.28,-1.52,-2.68,-2.61,-2.62
141,-1.39,1.24,-1.38,1.25,-1.25,-1.49,-2.64,-2.63,-2.63
142,-1.37,1.27,-1.44,1.22,-1.22,-1.46,-2.59,-2.65,-2.65
144,-1.55,1.12,-1.49,1.18,-1.18,-1.40,-2.74,-2.68,-2.68
145,-1.60,1.09,-1.54,1.16,-1.16,-1.38,-2.76,-2.70,-2.69
147,-1.57,1.15,-1.59,1.13,-1.13,-1.32,-2.70,-2.72,-2.72
148,-1.64,1.09,-1.63,1.10,-1.10,-1.30,-2.75,-2.74,-2.73
150,-1.69,1.07,-1.68,1.08,-1.08,-1.24,-2.77,-2.76,-2.76
151,-1.69,1.08,-1.72,1.06,-1.06,-1.22,-2.75,-2.78,-2.77
153,-1.72,1.08,-1.76,1.04,-1.04,-1.16,-2.76,-2.80,-2.80
154,-1.78,1.03,-1.80,1.02,-1.02,-1.14,-2.80,-2.81,-2.81
156,-1.86,0.97,-1.83,1.00,-1.00,-1.09,-2.86,-2.83,-2.84
157,-1.89,0.96,-1.87,0.98,-0.98,-1.06,-2.87,-2.85,-2.85
159,-1.89,0.98,-1.91,0.96,-0.96,-1.01,-2.85,-2.87,-2.87
160,-1.88,1.00,-1.95,0.94,-0.94,-0.99,-2.82,-2.89,-2.88
162,-2.00,0.90,-1.99,0.91,-0.91,-0.94,-2.92,-2.90,-2.90
164,-2.10,0.82,-2.03,0.89,-0.89,-0.89,-2.99,-2.92,-2.92
165,-2.09,0.84,-2.07,0.86,-0.86,-0.87,-2.95,-2.93,-2.93
167,-2.10,0.85,-2.12,0.83,-0.83,-0.82,-2.94,-2.95,-2.95
169,-2.10,0.86,-2.16,0.80,-0.80,-0.78,-2.90,-2.96,-2.97
170,-2.15,0.82,-2.21,0.77,-0.77,-0.76,-2.92,-2.97,-2.97
172,-2.22,0.76,-2.25,0.73,-0.73,-0.72,-2.96,-2.99,-2.99
174,-2.33,0.67,-2.30,0.70,-0.70,-0.68,-3.03,-3.00,-3.00
175,-2.36,0.64,-2.35,0.66,-0.66,-0.65,-3.02,-3.00,-3.00
177,-2.45,0.56,-2.39,0.62,-0.62,-0.62,-3.07,-3.01,-3.01
179,-2.42,0.60,-2.44,0.58,-0.58,-0.58,-3.01,-3.02,-3.02
181,-2.52,0.50,-2.48,0.54,-0.54,-0.54,-3.07,-3.02,-3.03
183,-2.52,0.51,-2.52,0.51,-0.51,-0.50,-3.03,-3.03,-3.03
184,-2.52,0.51,-2.56,0.47,-0.47,-0.48,-2.99,-3.03,-3.03
186,-2.56,0.47,-2.60,0.43,-0.43,-0.45,-3.00,-3.04,-3.04
188,-2.69,0.35,-2.64,0.40,-0.40,-0.41,-3.09,-3.04,-3.04
190,-2.68,0.36,-2.68,0.36,-0.36,-0.38,-3.05,-3.04,-3.04
192,-2.66,0.38,-2.72,0.33,-0.33,-0.34,-2.99,-3.04,-3.04
194,-2.75,0.29,-2.75,0.29,-0.29,-0.31,-3.05,-3.05,-3.04
196,-2.83,0.21,-2.79,0.26,-0.26,-0.28,-3.09,-3.05,-3.05
198,-2.82,0.22,-2.82,0.23,-0.23,-0.25,-3.05,-3.05,-3.05
200,-2.86,0.18,-2.85,0.19,-0.19,-0.22,-3.06,-3.05,-3.05
202,-2.90,0.15,-2.89,0.16,-0.16,-0.19,-3.06,-3.05,-3.05
204,-2.90,0.15,-2.92,0.13,-0.13,-0.16,-3.03,-3.05,-3.05
206,-2.90,0.15,-2.96,0.10,-0.10,-0.13,-3.00,-3.05,-3.05
208,-2.97,0.08,-2.99,0.06,-0.06,-0.10,-3.04,-3.05,-3.05
210,-3.02,0.03,-3.02,0.03,-0.03,-0.07,-3.05,-3.05,-3.05
212,-3.10,-0.05,-3.06,-0.00,0.00,-0.04,-3.10,-3.05,-3.05
214,-3.11,-0.06,-3.09,-0.04,0.04,-0.02,-3.08,-3.05,-3.05
216,-3.11,-0.06,-3.12,-0.07,0.07,0.01,-3.04,-3.05,-3.05
218,-3.11,-0.06,-3.15,-0.10,0.10,0.04,-3.01,-3.05,-3.05
221,-3.12,-0.07,-3.18,-0.13,0.13,0.07,-2.99,-3.05,-3.05
223,-3.12,-0.07,-3.21,-0.16,0.16,0.10,-2.97,-3.05,-3.05
225,-3.30,-0.25,-3.23,-0.18,0.18,0.12,-3.12,-3.05,-3.05
227,-3.32,-0.28,-3.25,-0.20,0.20,0.15,-3.12,-3.05,-3.05
229,-3.32,-0.28,-3.26,-0.22,0.22,0.17,-3.10,-3.04,-3.04
232,-3.31,-0.27,-3.27,-0.23,0.23,0.20,-3.08,-3.04,-3.04
234,-3.30,-0.27,-3.28,-0.25,0.25,0.22,-3.06,-3.04,-3.04
236,-3.29,-0.26,-3.29,-0.26,0.26,0.24,-3.04,-3.03,-3.03
239,-3.27,-0.25,-3.29,-0.27,0.27,0.27,-3.01,-3.03,-3.03
241,-3.25,-0.23,-3.30,-0.28,0.28,0.29,-2.98,-3.02,-3.02
244,-3.24,-0.23,-3.30,-0.29,0.29,0.32,-2.96,-3.01,-3.02
246,-3.29,-0.29,-3.31,-0.30,0.30,0.34,-2.99,-3.01,-3.01
248,-3.29,-0.29,-3.31,-0.31,0.31,0.36,-2.98,-3.00,-3.00
251,-3.30,-0.31,-3.32,-0.33,0.33,0.38,-2.97,-2.99,-2.99
253,-3.36,-0.38,-3.33,-0.35,0.35,0.40,-3.01,-2.99,-2.98
256,-3.35,-0.38,-3.35,-0.37,0.37,0.43,-2.98,-2.98,-2.98
259,-3.34,-0.37,-3.36,-0.39,0.39,0.45,-2.95,-2.97,-2.97
261,-3.38,-0.42,-3.38,-0.42,0.42,0.46,-2.97,-2.96,-2.96
264,-3.43,-0.48,-3.39,-0.44,0.44,0.49,-2.99,-2.96,-2.96
266,-3.44,-0.50,-3.41,-0.46,0.46,0.50,-2.98,-2.95,-2.95
269,-3.44,-0.50,-3.43,-0.49,0.49,0.52,-2.95,-2.94,-2.94
272,-3.44,-0.51,-3.45,-0.52,0.52,0.54,-2.93,-2.93,-2.93
274,-3.44,-0.52,-3.47,-0.54,0.54,0.56,-2.90,-2.93,-2.93
277,-3.45,-0.53,-3.49,-0.57,0.57,0.58,-2.89,-2.92,-2.92
280,-3.47,-0.56,-3.51,-0.59,0.59,0.60,-2.88,-2.91,-2.91
283,-3.56,-0.66,-3.52,-0.62,0.62,0.62,-2.95,-2.91,-2.91
286,-3.52,-0.62,-3.54,-0.64,0.64,0.64,-2.88,-2.90,-2.90
288,-3.56,-0.67,-3.56,-0.67,0.67,0.65,-2.89,-2.89,-2.89
291,-3.62,-0.73,-3.58,-0.69,0.69,0.67,-2.93,-2.89,-2.89
294,-3.61,-0.73,-3.60,-0.72,0.72,0.69,-2.89,-2.88,-2.88
297,-3.59,-0.72,-3.62,-0.74,0.74,0.72,-2.85,-2.88,-2.88
300,-3.68,-0.81,-3.64,-0.77,0.77,0.74,-2.91,-2.87,-2.87
303,-3.69,-0.83,-3.66,-0.80,0.80,0.76,-2.90,-2.87,-2.87
306,-3.66,-0.80,-3.68,-0.82,0.82,0.78,-2.84,-2.86,-2.86
309,-3.65,-0.80,-3.70,-0.85,0.85,0.80,-2.80,-2.85,-2.85
312,-3.73,-0.88,-3.73,-0.88,0.88,0.82,-2.86,-2.85,-2.85
316,-3.77,-0.93,-3.75,-0.91,0.91,0.85,-2.86,-2.84,-2.84
319,-3.74,-0.90,-3.78,-0.94,0.94,0.88,-2.80,-2.84,-2.84
322,-3.77,-0.94,-3.81,-0.98,0.98,0.90,-2.80,-2.83,-2.83
325,-3.90,-1.07,-3.84,-1.01,1.01,0.93,-2.89,-2.83,-2.83
328,-3.90,-1.08,-3.88,-1.05,1.05,0.95,-2.85,-2.82,-2.82
332,-3.80,-0.98,-3.91,-1.09,1.09,0.99,-2.71,-2.82,-2.82
335,-3.85,-1.04,-3.95,-1.13,1.13,1.01,-2.72,-2.82,-2.82
338,-4.07,-1.26,-3.99,-1.17,1.17,1.04,-2.90,-2.81,-2.81
342,-4.06,-1.25,-4.02,-1.21,1.21,1.08,-2.85,-2.81,-2.81
345,-4.05,-1.25,-4.05,-1.25,1.25,1.11,-2.81,-2.81,-2.81
349,-4.05,-1.25,-4.08,-1.27,1.27,1.14,-2.78,-2.80,-2.80
352,-4.08,-1.28,-4.10,-1.30,1.30,1.17,-2.78,-2.80,-2.80
356,-4.23,-1.43,-4.12,-1.32,1.32,1.21,-2.92,-2.80,-2.80
359,-4.19,-1.40,-4.13,-1.33,1.33,1.25,-2.86,-2.80,-2.80
363,-4.14,-1.35,-4.13,-1.34,1.34,1.29,-2.81,-2.80,-2.79
366,-4.13,-1.34,-4.13,-1.34,1.34,1.32,-2.79,-2.79,-2.79
370,-4.12,-1.33,-4.13,-1.34,1.34,1.36,-2.79,-2.79,-2.79
374,-4.11,-1.32,-4.13,-1.33,1.33,1.41,-2.78,-2.79,-2.79
377,-4.11,-1.33,-4.12,-1.33,1.33,1.44,-2.78,-2.79,-2.79
381,-4.10,-1.32,-4.12,-1.33,1.33,1.48,-2.77,-2.79,-2.79
385,-4.09,-1.31,-4.11,-1.33,1.33,1.53,-2.76,-2.78,-2.78
389,-4.09,-1.32,-4.11,-1.34,1.34,1.57,-2.76,-2.78,-2.78
393,-4.08,-1.31,-4.12,-1.35,1.35,1.62,-2.74,-2.77,-2.77
397,-4.08,-1.32,-4.13,-1.36,1.36,1.67,-2.72,-2.76,-2.76
401,-4.08,-1.33,-4.14,-1.39,1.39,1.71,-2.70,-2.75,-2.75
405,-4.09,-1.35,-4.15,-1.41,1.41,1.76,-2.68,-2.74,-2.74
409,-4.20,-1.47,-4.17,-1.44,1.44,1.80,-2.76,-2.73,-2.73
413,-4.29,-1.58,-4.18,-1.47,1.47,1.85,-2.82,-2.71,-2.71
417,-4.21,-1.52,-4.20,-1.51,1.51,1.89,-2.71,-2.69,-2.69
421,-4.19,-1.52,-4.21,-1.54,1.54,1.93,-2.65,-2.67,-2.67
425,-4.19,-1.55,-4.21,-1.57,1.57,1.97,-2.62,-2.64,-2.65
430,-4.18,-1.57,-4.22,-1.60,1.60,2.02,-2.58,-2.61,-2.62
434,-4.20,-1.62,-4.21,-1.63,1.63,2.06,-2.57,-2.58,-2.59
438,-4.35,-1.80,-4.21,-1.66,1.66,2.10,-2.70,-2.55,-2.55
443,-4.24,-1.73,-4.19,-1.68,1.68,2.15,-2.56,-2.51,-2.52
447,-4.15,-1.67,-4.17,-1.70,1.70,2.18,-2.46,-2.47,-2.48
451,-4.10,-1.66,-4.15,-1.71,1.71,2.21,-2.39,-2.44,-2.44
456,-4.04,-1.65,-4.12,-1.72,1.72,2.24,-2.32,-2.40,-2.40
460,-4.17,-1.82,-4.08,-1.73,1.73,2.27,-2.44,-2.36,-2.36
465,-4.12,-1.81,-4.05,-1.73,1.73,2.30,-2.39,-2.32,-2.32
470,-3.95,-1.68,-4.01,-1.74,1.74,2.32,-2.22,-2.28,-2.28
474,-3.90,-1.67,-3.98,-1.74,1.74,2.34,-2.17,-2.24,-2.24
479,-3.84,-1.64,-3.94,-1.74,1.74,2.36,-2.11,-2.20,-2.20
484,-3.97,-1.81,-3.90,-1.73,1.73,2.37,-2.24,-2.17,-2.17
489,-4.00,-1.87,-3.87,-1.73,1.73,2.38,-2.27,-2.14,-2.13
494,-3.82,-1.72,-3.84,-1.72,1.72,2.38,-2.10,-2.11,-2.11
499,-3.79,-1.71,-3.81,-1.72,1.72,2.38,-2.07,-2.09,-2.08
504,-3.77,-1.71,-3.79,-1.72,1.72,2.37,-2.05,-2.07,-2.06
509,-3.75,-1.70,-3.77,-1.72,1.72,2.36,-2.04,-2.06,-2.05
514,-3.74,-1.70,-3.76,-1.72,1.72,2.35,-2.03,-2.05,-2.04
519,-3.74,-1.71,-3.76,-1.72,1.72,2.33,-2.02,-2.04,-2.03
524,-3.74,-1.71,-3.77,-1.73,1.73,2.31,-2.01,-2.04,-2.03
529,-3.75,-1.72,-3.78,-1.74,1.74,2.28,-2.01,-2.04,-2.03
535,-3.77,-1.74,-3.80,-1.76,1.76,2.25,-2.02,-2.04,-2.04
540,-3.80,-1.76,-3.82,-1.78,1.78,2.22,-2.03,-2.05,-2.05
545,-3.84,-1.79,-3.86,-1.80,1.80,2.18,-2.04,-2.06,-2.05
551,-3.89,-1.83,-3.89,-1.83,1.83,2.14,-2.07,-2.07,-2.07
556,-3.94,-1.87,-3.93,-1.86,1.86,2.10,-2.08,-2.08,-2.08
562,-3.99,-1.91,-3.98,-1.89,1.89,2.05,-2.10,-2.09,-2.09
568,-4.04,-1.95,-4.02,-1.93,1.93,2.00,-2.12,-2.09,-2.10
573,-4.08,-1.98,-4.06,-1.96,1.96,1.96,-2.12,-2.10,-2.11
579,-4.12,-2.01,-4.11,-2.00,2.00,1.91,-2.12,-2.11,-2.11
585,-4.14,-2.03,-4.15,-2.04,2.04,1.85,-2.11,-2.11,-2.12
591,-4.16,-2.05,-4.18,-2.07,2.07,1.80,-2.09,-2.11,-2.12
596,-4.16,-2.05,-4.21,-2.10,2.10,1.75,-2.06,-2.11,-2.11
602,-4.21,-2.11,-4.23,-2.14,2.14,1.70,-2.08,-2.10,-2.11
608,-4.25,-2.16,-4.25,-2.16,2.16,1.64,-2.09,-2.09,-2.09
615,-4.33,-2.25,-4.26,-2.19,2.19,1.58,-2.14,-2.07,-2.08
621,-4.31,-2.25,-4.26,-2.21,2.21,1.53,-2.10,-2.05,-2.06
627,-4.28,-2.25,-4.26,-2.22,2.22,1.47,-2.06,-2.03,-2.04
633,-4.26,-2.25,-4.24,-2.23,2.23,1.42,-2.03,-2.01,-2.01
639,-4.22,-2.24,-4.22,-2.24,2.24,1.37,-1.99,-1.98,-1.98
646,-4.18,-2.23,-4.18,-2.23,2.23,1.31,-1.95,-1.95,-1.95
652,-4.14,-2.22,-4.14,-2.22,2.22,1.26,-1.92,-1.92,-1.92
659,-4.05,-2.17,-4.10,-2.21,2.21,1.20,-1.84,-1.89,-1.89
665,-4.04,-2.19,-4.05,-2.20,2.20,1.16,-1.85,-1.85,-1.85
672,-4.13,-2.32,-4.00,-2.18,2.18,1.10,-1.96,-1.82,-1.82
679,-3.94,-2.16,-3.95,-2.16,2.16,1.05,-1.78,-1.79,-1.78
686,-3.88,-2.13,-3.89,-2.14,2.14,1.00,-1.74,-1.75,-1.75
692,-3.75,-2.03,-3.84,-2.12,2.12,0.95,-1.63,-1.72,-1.72
699,-3.77,-2.09,-3.80,-2.11,2.11,0.91,-1.67,-1.69,-1.69
706,-3.70,-2.04,-3.75,-2.09,2.09,0.86,-1.61,-1.66,-1.66
713,-3.61,-1.98,-3.71,-2.08,2.08,0.81,-1.54,-1.64,-1.63
721,-3.62,-2.01,-3.67,-2.06,2.06,0.76,-1.56,-1.61,-1.61
728,-3.53,-1.95,-3.63,-2.04,2.04,0.72,-1.49,-1.59,-1.59
735,-3.58,-2.02,-3.59,-2.02,2.02,0.68,-1.56,-1.57,-1.57
742,-3.67,-2.12,-3.54,-1.99,1.99,0.64,-1.68,-1.55,-1.55
750,-3.61,-2.08,-3.49,-1.96,1.96,0.59,-1.66,-1.53,-1.53
757,-3.44,-1.92,-3.43,-1.91,1.91,0.55,-1.54,-1.52,-1.52
765,-3.46,-1.96,-3.36,-1.85,1.85,0.51,-1.62,-1.51,-1.51
773,-3.29,-1.80,-3.27,-1.78,1.78,0.47,-1.52,-1.50,-1.50
780,-3.09,-1.61,-3.18,-1.69,1.69,0.43,-1.40,-1.49,-1.49
788,-3.09,-1.62,-3.07,-1.60,1.60,0.39,-1.50,-1.48,-1.48
796,-3.05,-1.58,-2.96,-1.49,1.49,0.35,-1.57,-1.47,-1.47
804,-2.84,-1.38,-2.83,-1.37,1.37,0.32,-1.47,-1.46,-1.46
812,-2.66,-1.21,-2.70,-1.25,1.25,0.28,-1.41,-1.45,-1.45
820,-2.48,-1.04,-2.57,-1.12,1.12,0.24,-1.36,-1.44,-1.45
828,-2.42,-0.98,-2.43,-0.99,0.99,0.20,-1.43,-1.44,-1.44
837,-2.35,-0.92,-2.29,-0.86,0.86,0.16,-1.49,-1.43,-1.43
845,-2.15,-0.73,-2.15,-0.73,0.73,0.12,-1.43,-1.42,-1.43
853,-1.94,-0.52,-2.02,-0.60,0.60,0.09,-1.34,-1.42,-1.42
862,-1.83,-0.42,-1.88,-0.47,0.47,0.05,-1.36,-1.41,-1.41
871,-1.80,-0.40,-1.75,-0.35,0.35,0.01,-1.45,-1.40,-1.40
879,-1.61,-0.22,-1.63,-0.23,0.23,-0.03,-1.38,-1.40,-1.40
888,-1.42,-0.04,-1.50,-0.12,0.12,-0.07,-1.31,-1.39,-1.39
897,-1.31,0.07,-1.38,-0.00,0.00,-0.12,-1.31,-1.38,-1.38
906,-1.20,0.17,-1.26,0.11,-0.11,-0.16,-1.32,-1.37,-1.37
915,-1.17,0.19,-1.14,0.23,-0.23,-0.20,-1.40,-1.36,-1.36
924,-1.20,0.15,-1.01,0.34,-0.34,-0.25,-1.54,-1.35,-1.35
933,-1.07,0.27,-0.89,0.45,-0.45,-0.29,-1.53,-1.34,-1.34
943,-0.79,0.54,-0.76,0.57,-0.57,-0.35,-1.36,-1.33,-1.33
952,-0.40,0.91,-0.63,0.68,-0.68,-0.40,-1.09,-1.32,-1.32
962,-0.40,0.90,-0.51,0.80,-0.80,-0.45,-1.20,-1.30,-1.30
971,-0.43,0.86,-0.38,0.91,-0.91,-0.50,-1.34,-1.29,-1.29
981,-0.39,0.88,-0.25,1.02,-1.02,-0.56,-1.41,-1.27,-1.27
991,-0.15,1.10,-0.13,1.13,-1.13,-0.62,-1.28,-1.25,-1.26
1001,0.02,1.25,-0.01,1.23,-1.23,-0.68,-1.21,-1.24,-1.24
1011,0.21,1.42,0.10,1.32,-1.32,-0.74,-1.11,-1.22,-1.22
1021,0.09,1.28,0.21,1.40,-1.40,-0.81,-1.32,-1.19,-1.19
1031,0.44,1.61,0.31,1.48,-1.48,-0.88,-1.04,-1.17,-1.17
1041,0.57,1.71,0.40,1.54,-1.54,-0.94,-0.98,-1.14,-1.15
1052,0.47,1.59,0.49,1.60,-1.60,-1.02,-1.14,-1.12,-1.12
1062,0.60,1.69,0.57,1.65,-1.65,-1.09,-1.06,-1.09,-1.09
1073,0.65,1.71,0.64,1.70,-1.70,-1.17,-1.06,-1.06,-1.06
1084,0.78,1.81,0.72,1.75,-1.75,-1.25,-0.97,-1.03,-1.03
1094,0.78,1.77,0.80,1.80,-1.80,-1.33,-1.02,-0.99,-1.00
1105,0.77,1.73,0.89,1.85,-1.85,-1.42,-1.08,-0.96,-0.96
1116,0.93,1.86,0.98,1.91,-1.91,-1.50,-0.98,-0.93,-0.93
1128,1.15,2.04,1.09,1.98,-1.98,-1.60,-0.83,-0.89,-0.89
1139,1.14,2.00,1.20,2.06,-2.06,-1.69,-0.92,-0.86,-0.86
1150,1.16,1.98,1.32,2.15,-2.15,-1.78,-0.99,-0.83,-0.83
1162,1.39,2.18,1.45,2.24,-2.24,-1.88,-0.86,-0.79,-0.79
1173,1.54,2.30,1.59,2.35,-2.35,-1.97,-0.81,-0.76,-0.76
1185,1.69,2.42,1.73,2.46,-2.46,-2.08,-0.78,-0.73,-0.73
1197,1.94,2.64,1.88,2.58,-2.58,-2.18,-0.64,-0.70,-0.70
1209,2.06,2.73,2.02,2.70,-2.70,-2.29,-0.64,-0.68,-0.68
1221,2.30,2.95,2.16,2.81,-2.81,-2.39,-0.52,-0.65,-0.65
1233,2.37,3.00,2.29,2.92,-2.92,-2.50,-0.56,-0.63,-0.63
1246,2.49,3.10,2.42,3.03,-3.03,-2.62,-0.54,-0.61,-0.61
1258,2.62,3.21,2.53,3.13,-3.13,-2.73,-0.52,-0.60,-0.60
1271,2.69,3.27,2.65,3.23,-3.23,-2.85,-0.55,-0.59,-0.58
1283,2.75,3.32,2.75,3.33,-3.33,-2.97,-0.58,-0.58,-0.57
1296,2.85,3.41,2.85,3.42,-3.42,-3.09,-0.58,-0.57,-0.57
1309,2.90,3.46,2.95,3.52,-3.52,-3.22,-0.62,-0.57,-0.56
1322,3.01,3.57,3.05,3.62,-3.62,-3.34,-0.61,-0.57,-0.56
1335,3.10,3.66,3.15,3.72,-3.72,-3.47,-0.63,-0.57,-0.56
1349,3.25,3.82,3.26,3.84,-3.84,-3.61,-0.59,-0.57,-0.57
1362,3.40,3.97,3.38,3.96,-3.96,-3.74,-0.56,-0.58,-0.58
1376,3.55,4.13,3.51,4.09,-4.09,-3.89,-0.55,-0.58,-0.58
1390,3.67,4.26,3.65,4.24,-4.24,-4.03,-0.57,-0.59,-0.59
1404,3.74,4.34,3.80,4.40,-4.40,-4.18,-0.66,-0.60,-0.60
1418,3.88,4.49,3.96,4.57,-4.57,-4.32,-0.69,-0.61,-0.61
1432,4.11,4.72,4.14,4.75,-4.75,-4.47,-0.65,-0.62,-0.62
1446,4.38,5.00,4.33,4.95,-4.95,-4.62,-0.57,-0.62,-0.62
1461,4.60,5.23,4.53,5.16,-5.16,-4.79,-0.56,-0.63,-0.63
1475,4.75,5.38,4.74,5.38,-5.38,-4.94,-0.63,-0.63,-0.63
1490,4.90,5.53,4.97,5.60,-5.60,-5.11,-0.71,-0.63,-0.63
1505,5.18,5.81,5.21,5.84,-5.84,-5.28,-0.66,-0.63,-0.63
1520,5.38,6.00,5.46,6.08,-6.08,-5.45,-0.71,-0.62,-0.63
1535,5.67,6.28,5.72,6.33,-6.33,-5.62,-0.67,-0.61,-0.62
1550,6.00,6.60,5.99,6.59,-6.59,-5.79,-0.59,-0.60,-0.60
1566,6.34,6.92,6.26,6.84,-6.84,-5.98,-0.50,-0.58,-0.58
1582,6.72,7.28,6.54,7.10,-7.10,-6.16,-0.38,-0.56,-0.56
1597,6.77,7.30,6.83,7.36,-7.36,-6.34,-0.59,-0.53,-0.53
1613,6.97,7.46,7.12,7.61,-7.61,-6.53,-0.64,-0.49,-0.50
1629,7.39,7.84,7.41,7.86,-7.86,-6.71,-0.47,-0.45,-0.46
