frequency,raw,error,smoothed,error_smoothed,equalization,parametric_eq,equalized_raw,equalized_smoothed,target
20.00,-4.50,-5.38,-4.50,-5.38,5.38,1.90,0.88,0.88,0.88
20.20,-4.47,-5.35,-4.46,-5.34,5.34,1.96,0.87,0.88,0.88
20.40,-4.43,-5.30,-4.43,-5.30,5.30,2.01,0.88,0.88,0.88
20.61,-4.39,-5.26,-4.39,-5.27,5.27,2.07,0.88,0.88,0.88
20.81,-4.36,-5.23,-4.36,-5.23,5.23,2.13,0.87,0.87,0.87
21.02,-4.32,-5.19,-4.32,-5.19,5.19,2.19,0.88,0.87,0.87
21.23,-4.29,-5.16,-4.29,-5.16,5.16,2.26,0.87,0.87,0.87
21.44,-4.26,-5.13,-4.25,-5.13,5.13,2.32,0.87,0.87,0.87
21.66,-4.23,-5.10,-4.22,-5.09,5.09,2.39,0.86,0.87,0.87
21.87,-4.19,-5.05,-4.19,-5.06,5.06,2.46,0.87,0.87,0.87
22.09,-4.16,-5.02,-4.16,-5.02,5.02,2.53,0.87,0.87,0.87
22.31,-4.13,-4.99,-4.13,-4.99,4.99,2.61,0.87,0.86,0.86
22.54,-4.10,-4.96,-4.10,-4.96,4.96,2.68,0.86,0.86,0.86
22.76,-4.07,-4.93,-4.07,-4.93,4.93,2.76,0.86,0.86,0.86
22.99,-4.04,-4.90,-4.04,-4.90,4.90,2.84,0.86,0.86,0.86
23.22,-4.02,-4.87,-4.01,-4.87,4.87,2.92,0.85,0.86,0.86
23.45,-3.99,-4.84,-3.98,-4.84,4.84,3.00,0.85,0.85,0.86
23.69,-3.96,-4.81,-3.96,-4.81,4.81,3.09,0.85,0.85,0.85
23.92,-3.93,-4.78,-3.93,-4.78,4.78,3.17,0.85,0.85,0.85
24.16,-3.90,-4.75,-3.90,-4.75,4.75,3.26,0.85,0.85,0.85
24.40,-3.88,-4.72,-3.87,-4.72,4.72,3.35,0.84,0.85,0.85
24.65,-3.85,-4.69,-3.84,-4.69,4.69,3.44,0.84,0.84,0.84
24.89,-3.82,-4.66,-3.81,-4.65,4.65,3.53,0.84,0.84,0.84
25.14,-3.79,-4.63,-3.78,-4.62,4.62,3.62,0.84,0.84,0.84
25.39,-3.76,-4.59,-3.75,-4.59,4.59,3.71,0.84,0.84,0.84
25.65,-3.73,-4.56,-3.73,-4.56,4.56,3.80,0.83,0.83,0.84
25.91,-3.70,-4.53,-3.70,-4.53,4.53,3.89,0.83,0.83,0.83
26.16,-3.67,-4.50,-3.67,-4.50,4.50,3.98,0.83,0.83,0.83
26.43,-3.64,-4.46,-3.64,-4.46,4.46,4.07,0.83,0.83,0.83
26.69,-3.61,-4.43,-3.61,-4.43,4.43,4.16,0.83,0.82,0.83
26.96,-3.58,-4.40,-3.58,-4.40,4.40,4.25,0.83,0.82,0.82
27.23,-3.55,-4.37,-3.55,-4.37,4.37,4.33,0.82,0.82,0.82
27.50,-3.53,-4.34,-3.52,-4.34,4.34,4.42,0.81,0.82,0.82
27.77,-3.50,-4.31,-3.50,-4.31,4.31,4.50,0.81,0.81,0.81
28.05,-3.47,-4.28,-3.47,-4.28,4.28,4.57,0.81,0.81,0.81
28.33,-3.45,-4.25,-3.44,-4.25,4.25,4.64,0.81,0.81,0.81
28.62,-3.42,-4.22,-3.42,-4.22,4.22,4.71,0.81,0.80,0.80
28.90,-3.40,-4.20,-3.39,-4.19,4.19,4.77,0.80,0.80,0.80
29.19,-3.37,-4.16,-3.37,-4.17,4.17,4.83,0.80,0.80,0.80
29.48,-3.35,-4.14,-3.34,-4.14,4.14,4.88,0.79,0.79,0.79
29.78,-3.32,-4.11,-3.32,-4.11,4.11,4.92,0.79,0.79,0.79
30.08,-3.30,-4.08,-3.29,-4.08,4.08,4.96,0.78,0.79,0.79
30.38,-3.27,-4.05,-3.27,-4.05,4.05,4.99,0.79,0.78,0.78
30.68,-3.25,-4.03,-3.25,-4.02,4.02,5.01,0.78,0.78,0.78
30.99,-3.23,-4.00,-3.22,-4.00,4.00,5.02,0.77,0.77,0.77
31.30,-3.20,-3.97,-3.20,-3.97,3.97,5.03,0.77,0.77,0.77
31.61,-3.18,-3.94,-3.17,-3.94,3.94,5.03,0.76,0.77,0.77
31.93,-3.15,-3.91,-3.15,-3.91,3.91,5.02,0.76,0.76,0.76
32.24,-3.13,-3.88,-3.12,-3.88,3.88,5.00,0.76,0.76,0.76
32.57,-3.10,-3.85,-3.10,-3.85,3.85,4.98,0.76,0.75,0.75
32.89,-3.08,-3.82,-3.08,-3.82,3.82,4.95,0.75,0.75,0.75
33.22,-3.06,-3.80,-3.05,-3.80,3.80,4.91,0.74,0.74,0.74
33.55,-3.04,-3.77,-3.03,-3.77,3.77,4.87,0.73,0.74,0.74
33.89,-3.01,-3.74,-3.01,-3.74,3.74,4.82,0.73,0.73,0.73
34.23,-2.99,-3.71,-2.98,-3.71,3.71,4.77,0.72,0.73,0.73
34.57,-2.96,-3.68,-2.96,-3.68,3.68,4.71,0.73,0.72,0.72
34.92,-2.94,-3.65,-2.94,-3.66,3.66,4.64,0.72,0.72,0.72
35.27,-2.92,-3.63,-2.92,-3.63,3.63,4.58,0.71,0.71,0.71
35.62,-2.90,-3.60,-2.90,-3.60,3.60,4.51,0.70,0.70,0.70
35.97,-2.88,-3.57,-2.88,-3.57,3.57,4.44,0.70,0.70,0.70
36.33,-2.86,-3.55,-2.86,-3.55,3.55,4.36,0.69,0.69,0.69
36.70,-2.84,-3.52,-2.84,-3.52,3.52,4.29,0.68,0.68,0.68
37.06,-2.82,-3.49,-2.81,-3.49,3.49,4.21,0.68,0.68,0.68
37.43,-2.80,-3.47,-2.80,-3.46,3.46,4.13,0.67,0.67,0.67
37.81,-2.78,-3.44,-2.78,-3.44,3.44,4.05,0.66,0.66,0.66
38.19,-2.76,-3.41,-2.76,-3.41,3.41,3.98,0.65,0.66,0.66
38.57,-2.74,-3.38,-2.74,-3.38,3.38,3.90,0.65,0.65,0.65
38.95,-2.72,-3.36,-2.72,-3.36,3.36,3.82,0.64,0.64,0.64
39.34,-2.70,-3.33,-2.70,-3.33,3.33,3.74,0.63,0.63,0.63
39.74,-2.68,-3.30,-2.68,-3.30,3.30,3.67,0.62,0.62,0.62
40.14,-2.66,-3.27,-2.66,-3.27,3.27,3.60,0.62,0.62,0.62
40.54,-2.65,-3.25,-2.64,-3.24,3.24,3.52,0.60,0.61,0.61
40.94,-2.62,-3.21,-2.62,-3.22,3.22,3.45,0.60,0.60,0.60
41.35,-2.60,-3.18,-2.60,-3.19,3.19,3.38,0.59,0.59,0.59
41.76,-2.58,-3.15,-2.58,-3.16,3.16,3.32,0.58,0.58,0.58
42.18,-2.57,-3.13,-2.56,-3.13,3.13,3.25,0.57,0.57,0.57
42.60,-2.55,-3.10,-2.54,-3.10,3.10,3.19,0.56,0.56,0.56
43.03,-2.53,-3.07,-2.53,-3.07,3.07,3.13,0.55,0.55,0.55
43.46,-2.51,-3.04,-2.51,-3.05,3.05,3.07,0.54,0.54,0.54
43.90,-2.49,-3.01,-2.49,-3.02,3.02,3.02,0.53,0.53,0.53
44.33,-2.48,-2.99,-2.48,-2.99,2.99,2.96,0.51,0.51,0.51
44.78,-2.47,-2.97,-2.46,-2.96,2.96,2.91,0.50,0.50,0.50
45.23,-2.45,-2.94,-2.44,-2.93,2.93,2.86,0.49,0.49,0.49
45.68,-2.43,-2.91,-2.43,-2.90,2.90,2.82,0.48,0.48,0.48
46.13,-2.41,-2.87,-2.41,-2.88,2.88,2.77,0.47,0.47,0.47
46.60,-2.40,-2.85,-2.39,-2.85,2.85,2.73,0.45,0.45,0.45
47.06,-2.38,-2.82,-2.38,-2.82,2.82,2.69,0.44,0.44,0.44
47.53,-2.37,-2.79,-2.36,-2.79,2.79,2.65,0.42,0.43,0.43
48.01,-2.35,-2.76,-2.35,-2.76,2.76,2.61,0.41,0.41,0.41
48.49,-2.34,-2.73,-2.33,-2.73,2.73,2.58,0.39,0.40,0.40
48.97,-2.32,-2.70,-2.32,-2.70,2.70,2.55,0.39,0.38,0.38
49.46,-2.31,-2.67,-2.31,-2.67,2.67,2.52,0.37,0.37,0.37
49.96,-2.29,-2.64,-2.29,-2.64,2.64,2.49,0.36,0.35,0.35
50.46,-2.29,-2.62,-2.28,-2.61,2.61,2.46,0.33,0.33,0.33
50.96,-2.27,-2.58,-2.27,-2.58,2.58,2.43,0.32,0.32,0.32
51.47,-2.26,-2.56,-2.25,-2.55,2.55,2.41,0.30,0.30,0.30
51.99,-2.24,-2.52,-2.24,-2.52,2.52,2.39,0.29,0.28,0.28
52.51,-2.23,-2.49,-2.23,-2.49,2.49,2.36,0.27,0.26,0.27
53.03,-2.22,-2.46,-2.22,-2.46,2.46,2.34,0.25,0.25,0.25
53.56,-2.21,-2.43,-2.20,-2.43,2.43,2.32,0.22,0.23,0.23
54.10,-2.19,-2.39,-2.19,-2.40,2.40,2.30,0.21,0.21,0.21
54.64,-2.19,-2.37,-2.18,-2.37,2.37,2.28,0.18,0.19,0.19
55.18,-2.17,-2.33,-2.17,-2.34,2.34,2.26,0.17,0.17,0.17
55.74,-2.16,-2.30,-2.16,-2.30,2.30,2.24,0.15,0.15,0.15
56.29,-2.15,-2.27,-2.15,-2.27,2.27,2.22,0.12,0.13,0.13
56.86,-2.14,-2.24,-2.13,-2.24,2.24,2.20,0.10,0.10,0.10
57.42,-2.13,-2.21,-2.12,-2.20,2.20,2.18,0.08,0.08,0.08
58.00,-2.11,-2.16,-2.11,-2.17,2.17,2.16,0.06,0.06,0.06
58.58,-2.10,-2.13,-2.10,-2.14,2.14,2.13,0.04,0.03,0.03
59.16,-2.10,-2.11,-2.09,-2.10,2.10,2.11,0.00,0.01,0.01
59.76,-2.09,-2.07,-2.08,-2.07,2.07,2.09,-0.02,-0.02,-0.02
60.35,-2.08,-2.04,-2.07,-2.03,2.03,2.06,-0.05,-0.04,-0.04
60.96,-2.06,-1.99,-2.06,-1.99,1.99,2.03,-0.06,-0.07,-0.07
61.57,-2.05,-1.95,-2.05,-1.96,1.96,2.00,-0.09,-0.09,-0.09
62.18,-2.05,-1.93,-2.04,-1.92,1.92,1.97,-0.13,-0.12,-0.12
62.80,-2.03,-1.88,-2.03,-1.88,1.88,1.94,-0.14,-0.15,-0.15
63.43,-2.03,-1.85,-2.02,-1.85,1.85,1.91,-0.18,-0.18,-0.18
64.07,-2.02,-1.81,-2.02,-1.81,1.81,1.87,-0.21,-0.21,-0.21
64.71,-2.01,-1.77,-2.01,-1.77,1.77,1.84,-0.24,-0.24,-0.24
65.35,-2.01,-1.74,-2.00,-1.73,1.73,1.80,-0.28,-0.27,-0.27
66.01,-1.99,-1.69,-1.99,-1.69,1.69,1.76,-0.29,-0.30,-0.30
66.67,-1.98,-1.65,-1.98,-1.65,1.65,1.72,-0.32,-0.33,-0.33
67.33,-1.98,-1.62,-1.97,-1.61,1.61,1.67,-0.36,-0.36,-0.36
68.01,-1.97,-1.57,-1.97,-1.57,1.57,1.63,-0.39,-0.39,-0.39
68.69,-1.96,-1.53,-1.96,-1.53,1.53,1.59,-0.43,-0.43,-0.43
69.37,-1.96,-1.49,-1.95,-1.49,1.49,1.54,-0.47,-0.46,-0.46
70.07,-1.95,-1.45,-1.95,-1.45,1.45,1.49,-0.50,-0.50,-0.50
70.77,-1.94,-1.40,-1.94,-1.41,1.41,1.44,-0.53,-0.53,-0.53
71.48,-1.93,-1.36,-1.93,-1.36,1.36,1.39,-0.56,-0.57,-0.57
72.19,-1.93,-1.32,-1.93,-1.32,1.32,1.34,-0.60,-0.60,-0.60
72.91,-1.92,-1.28,-1.92,-1.28,1.28,1.29,-0.64,-0.64,-0.64
73.64,-1.92,-1.24,-1.92,-1.23,1.23,1.24,-0.68,-0.68,-0.68
74.38,-1.92,-1.20,-1.91,-1.19,1.19,1.19,-0.73,-0.72,-0.72
75.12,-1.91,-1.15,-1.90,-1.15,1.15,1.14,-0.76,-0.76,-0.76
75.87,-1.90,-1.10,-1.90,-1.10,1.10,1.08,-0.79,-0.80,-0.80
76.63,-1.90,-1.06,-1.89,-1.06,1.06,1.03,-0.84,-0.84,-0.84
77.40,-1.89,-1.01,-1.89,-1.01,1.01,0.98,-0.87,-0.88,-0.88
78.17,-1.89,-0.97,-1.89,-0.97,0.97,0.93,-0.92,-0.92,-0.92
78.95,-1.89,-0.93,-1.88,-0.92,0.92,0.87,-0.96,-0.96,-0.96
79.74,-1.88,-0.87,-1.88,-0.88,0.88,0.82,-1.00,-1.00,-1.00
80.54,-1.88,-0.83,-1.88,-0.83,0.83,0.77,-1.05,-1.05,-1.04
81.35,-1.87,-0.78,-1.87,-0.78,0.78,0.72,-1.08,-1.09,-1.09
82.16,-1.87,-0.73,-1.87,-0.74,0.74,0.66,-1.13,-1.13,-1.13
82.98,-1.88,-0.70,-1.87,-0.69,0.69,0.61,-1.18,-1.18,-1.18
83.81,-1.87,-0.65,-1.87,-0.65,0.65,0.56,-1.22,-1.22,-1.22
84.65,-1.87,-0.60,-1.87,-0.60,0.60,0.51,-1.27,-1.27,-1.27
85.50,-1.87,-0.55,-1.86,-0.55,0.55,0.46,-1.31,-1.31,-1.31
86.35,-1.86,-0.50,-1.86,-0.50,0.50,0.40,-1.35,-1.36,-1.36
87.22,-1.87,-0.46,-1.86,-0.46,0.46,0.35,-1.41,-1.40,-1.40
88.09,-1.86,-0.41,-1.86,-0.41,0.41,0.30,-1.45,-1.45,-1.45
88.97,-1.87,-0.37,-1.86,-0.36,0.36,0.25,-1.51,-1.50,-1.50
89.86,-1.86,-0.31,-1.86,-0.31,0.31,0.20,-1.54,-1.55,-1.54
90.76,-1.86,-0.26,-1.86,-0.26,0.26,0.15,-1.59,-1.59,-1.59
91.66,-1.86,-0.22,-1.86,-0.22,0.22,0.10,-1.64,-1.64,-1.64
92.58,-1.86,-0.17,-1.86,-0.17,0.17,0.05,-1.69,-1.69,-1.69
93.51,-1.86,-0.12,-1.86,-0.12,0.12,-0.00,-1.74,-1.74,-1.74
94.44,-1.86,-0.07,-1.86,-0.07,0.07,-0.05,-1.79,-1.79,-1.79
95.39,-1.86,-0.02,-1.86,-0.02,0.02,-0.10,-1.83,-1.83,-1.83
96.34,-1.86,0.03,-1.86,0.03,-0.03,-0.15,-1.88,-1.88,-1.88
97.30,-1.86,0.07,-1.86,0.07,-0.07,-0.20,-1.93,-1.93,-1.93
98.28,-1.86,0.12,-1.86,0.12,-0.12,-0.25,-1.98,-1.98,-1.98
99.26,-1.87,0.16,-1.86,0.17,-0.17,-0.30,-2.04,-2.03,-2.03
100.25,-1.86,0.22,-1.86,0.22,-0.22,-0.34,-2.07,-2.08,-2.08
101.25,-1.87,0.26,-1.86,0.26,-0.26,-0.39,-2.13,-2.13,-2.13
102.27,-1.87,0.31,-1.86,0.31,-0.31,-0.44,-2.18,-2.18,-2.18
103.29,-1.87,0.36,-1.87,0.36,-0.36,-0.49,-2.23,-2.22,-2.22
104.32,-1.87,0.41,-1.87,0.41,-0.41,-0.53,-2.27,-2.27,-2.27
105.37,-1.87,0.46,-1.87,0.45,-0.45,-0.58,-2.32,-2.32,-2.32
106.42,-1.87,0.50,-1.87,0.50,-0.50,-0.63,-2.37,-2.37,-2.37
107.48,-1.88,0.54,-1.87,0.55,-0.55,-0.67,-2.42,-2.42,-2.42
108.56,-1.88,0.59,-1.87,0.59,-0.59,-0.71,-2.47,-2.47,-2.47
109.64,-1.88,0.64,-1.88,0.64,-0.64,-0.76,-2.51,-2.52,-2.52
110.74,-1.89,0.68,-1.88,0.68,-0.68,-0.80,-2.57,-2.56,-2.56
111.85,-1.88,0.73,-1.88,0.73,-0.73,-0.84,-2.60,-2.61,-2.61
112.97,-1.88,0.78,-1.88,0.77,-0.77,-0.88,-2.65,-2.66,-2.66
114.10,-1.89,0.82,-1.89,0.82,-0.82,-0.92,-2.70,-2.70,-2.70
115.24,-1.90,0.85,-1.89,0.86,-0.86,-0.96,-2.76,-2.75,-2.75
116.39,-1.90,0.90,-1.89,0.90,-0.90,-1.00,-2.80,-2.80,-2.80
117.55,-1.90,0.95,-1.90,0.95,-0.95,-1.03,-2.84,-2.84,-2.84
118.73,-1.90,0.99,-1.90,0.99,-0.99,-1.06,-2.88,-2.89,-2.89
119.92,-1.91,1.03,-1.90,1.03,-1.03,-1.10,-2.94,-2.93,-2.93
121.12,-1.91,1.07,-1.91,1.07,-1.07,-1.13,-2.98,-2.98,-2.98
122.33,-1.91,1.12,-1.91,1.11,-1.11,-1.16,-3.02,-3.02,-3.02
123.55,-1.92,1.15,-1.91,1.15,-1.15,-1.18,-3.07,-3.07,-3.06
124.79,-1.92,1.19,-1.92,1.19,-1.19,-1.21,-3.11,-3.11,-3.11
126.03,-1.93,1.22,-1.92,1.23,-1.23,-1.23,-3.16,-3.15,-3.15
127.29,-1.93,1.27,-1.93,1.27,-1.27,-1.26,-3.19,-3.19,-3.19
128.57,-1.93,1.31,-1.93,1.31,-1.31,-1.28,-3.23,-3.23,-3.23
129.85,-1.94,1.34,-1.93,1.34,-1.34,-1.29,-3.28,-3.28,-3.28
131.15,-1.94,1.38,-1.94,1.38,-1.38,-1.31,-3.31,-3.32,-3.32
132.46,-1.95,1.41,-1.94,1.41,-1.41,-1.33,-3.36,-3.36,-3.36
133.79,-1.95,1.45,-1.95,1.45,-1.45,-1.34,-3.39,-3.39,-3.39
135.12,-1.96,1.48,-1.95,1.48,-1.48,-1.36,-3.44,-3.43,-3.43
136.48,-1.96,1.52,-1.96,1.51,-1.51,-1.37,-3.47,-3.47,-3.47
137.84,-1.96,1.55,-1.97,1.54,-1.54,-1.38,-3.50,-3.51,-3.51
139.22,-1.97,1.58,-1.97,1.57,-1.57,-1.40,-3.54,-3.55,-3.55
140.61,-1.99,1.60,-1.98,1.60,-1.60,-1.41,-3.59,-3.58,-3.58
142.02,-1.99,1.63,-1.99,1.63,-1.63,-1.42,-3.62,-3.62,-3.62
143.44,-1.99,1.67,-1.99,1.66,-1.66,-1.43,-3.65,-3.65,-3.65
144.87,-2.01,1.68,-2.00,1.69,-1.69,-1.44,-3.69,-3.69,-3.69
146.32,-2.01,1.71,-2.01,1.71,-1.71,-1.45,-3.72,-3.72,-3.72
147.78,-2.02,1.74,-2.01,1.74,-1.74,-1.46,-3.76,-3.75,-3.75
149.26,-2.03,1.76,-2.02,1.77,-1.77,-1.47,-3.79,-3.79,-3.79
150.75,-2.04,1.78,-2.03,1.79,-1.79,-1.48,-3.83,-3.82,-3.82
152.26,-2.04,1.81,-2.04,1.81,-1.81,-1.49,-3.85,-3.85,-3.85
153.78,-2.05,1.83,-2.04,1.84,-1.84,-1.50,-3.88,-3.88,-3.88
155.32,-2.05,1.86,-2.05,1.86,-1.86,-1.51,-3.91,-3.91,-3.91
156.88,-2.06,1.88,-2.06,1.88,-1.88,-1.53,-3.94,-3.94,-3.94
158.44,-2.06,1.91,-2.06,1.91,-1.91,-1.54,-3.96,-3.97,-3.97
160.03,-2.07,1.93,-2.07,1.93,-1.93,-1.56,-3.99,-4.00,-4.00
161.63,-2.08,1.95,-2.08,1.95,-1.95,-1.57,-4.02,-4.03,-4.02
163.24,-2.09,1.96,-2.08,1.97,-1.97,-1.59,-4.05,-4.05,-4.05
164.88,-2.09,1.99,-2.09,1.99,-1.99,-1.61,-4.07,-4.08,-4.08
166.53,-2.10,2.01,-2.10,2.01,-2.01,-1.63,-4.10,-4.10,-4.10
168.19,-2.11,2.02,-2.10,2.02,-2.02,-1.65,-4.13,-4.13,-4.13
169.87,-2.12,2.04,-2.11,2.04,-2.04,-1.67,-4.16,-4.15,-4.15
171.57,-2.13,2.05,-2.12,2.06,-2.06,-1.69,-4.18,-4.18,-4.18
173.29,-2.13,2.07,-2.13,2.07,-2.07,-1.72,-4.20,-4.20,-4.20
175.02,-2.14,2.09,-2.14,2.09,-2.09,-1.75,-4.23,-4.22,-4.22
176.77,-2.14,2.11,-2.14,2.10,-2.10,-1.77,-4.24,-4.25,-4.25
178.54,-2.15,2.12,-2.15,2.12,-2.12,-1.80,-4.26,-4.27,-4.27
180.32,-2.16,2.13,-2.16,2.13,-2.13,-1.83,-4.29,-4.29,-4.29
182.13,-2.18,2.13,-2.17,2.14,-2.14,-1.87,-4.32,-4.31,-4.31
183.95,-2.18,2.15,-2.18,2.15,-2.15,-1.90,-4.33,-4.33,-4.33
185.79,-2.19,2.16,-2.19,2.16,-2.16,-1.93,-4.35,-4.35,-4.35
187.65,-2.20,2.17,-2.20,2.17,-2.17,-1.97,-4.37,-4.37,-4.37
189.52,-2.21,2.18,-2.21,2.18,-2.18,-2.01,-4.39,-4.39,-4.39
191.42,-2.22,2.19,-2.22,2.19,-2.19,-2.05,-4.41,-4.41,-4.41
193.33,-2.23,2.20,-2.23,2.20,-2.20,-2.09,-4.42,-4.42,-4.42
195.27,-2.24,2.20,-2.24,2.21,-2.21,-2.13,-4.44,-4.44,-4.44
197.22,-2.25,2.21,-2.25,2.21,-2.21,-2.17,-4.46,-4.46,-4.46
199.19,-2.26,2.22,-2.25,2.22,-2.22,-2.21,-4.48,-4.48,-4.47
201.18,-2.27,2.22,-2.26,2.23,-2.23,-2.25,-4.49,-4.49,-4.49
203.19,-2.27,2.24,-2.27,2.23,-2.23,-2.30,-4.50,-4.51,-4.51
205.23,-2.29,2.23,-2.28,2.24,-2.24,-2.34,-4.53,-4.52,-4.52
207.28,-2.29,2.25,-2.29,2.24,-2.24,-2.38,-4.53,-4.54,-4.54
209.35,-2.31,2.24,-2.30,2.25,-2.25,-2.43,-4.56,-4.55,-4.55
211.44,-2.31,2.26,-2.31,2.25,-2.25,-2.47,-4.56,-4.56,-4.56
213.56,-2.32,2.26,-2.32,2.26,-2.26,-2.52,-4.58,-4.58,-4.58
215.69,-2.33,2.26,-2.33,2.26,-2.26,-2.56,-4.59,-4.59,-4.59
217.85,-2.34,2.27,-2.34,2.27,-2.27,-2.60,-4.60,-4.60,-4.60
220.03,-2.35,2.27,-2.35,2.27,-2.27,-2.64,-4.62,-4.62,-4.62
222.23,-2.35,2.28,-2.35,2.27,-2.27,-2.68,-4.62,-4.63,-4.63
224.45,-2.36,2.28,-2.36,2.28,-2.28,-2.72,-4.64,-4.64,-4.64
226.70,-2.38,2.28,-2.37,2.28,-2.28,-2.76,-4.66,-4.65,-4.65
228.96,-2.38,2.29,-2.38,2.29,-2.29,-2.79,-4.66,-4.66,-4.66
231.25,-2.38,2.30,-2.38,2.29,-2.29,-2.82,-4.67,-4.68,-4.67
233.57,-2.39,2.30,-2.39,2.30,-2.30,-2.85,-4.69,-4.69,-4.68
235.90,-2.39,2.31,-2.39,2.31,-2.31,-2.87,-4.70,-4.70,-4.70
238.26,-2.40,2.31,-2.39,2.32,-2.32,-2.90,-4.72,-4.71,-4.71
240.64,-2.40,2.32,-2.39,2.33,-2.33,-2.91,-4.73,-4.72,-4.71
243.05,-2.39,2.34,-2.38,2.34,-2.34,-2.93,-4.73,-4.73,-4.72
245.48,-2.39,2.35,-2.38,2.36,-2.36,-2.94,-4.74,-4.74,-4.73
247.93,-2.38,2.37,-2.37,2.37,-2.37,-2.95,-4.75,-4.75,-4.74
250.41,-2.37,2.38,-2.36,2.39,-2.39,-2.95,-4.76,-4.75,-4.75
252.92,-2.36,2.40,-2.35,2.41,-2.41,-2.95,-4.77,-4.76,-4.76
255.45,-2.35,2.42,-2.34,2.43,-2.43,-2.95,-4.78,-4.77,-4.77
258.00,-2.33,2.45,-2.33,2.45,-2.45,-2.94,-4.78,-4.78,-4.78
260.58,-2.31,2.48,-2.31,2.47,-2.47,-2.93,-4.78,-4.78,-4.78
263.19,-2.30,2.49,-2.30,2.50,-2.50,-2.91,-4.79,-4.79,-4.79
265.82,-2.28,2.52,-2.28,2.52,-2.52,-2.89,-4.79,-4.80,-4.80
268.48,-2.27,2.54,-2.27,2.54,-2.54,-2.87,-4.81,-4.81,-4.81
271.16,-2.25,2.57,-2.25,2.56,-2.56,-2.85,-4.81,-4.81,-4.81
273.87,-2.24,2.58,-2.24,2.58,-2.58,-2.82,-4.82,-4.82,-4.82
276.61,-2.22,2.61,-2.22,2.60,-2.60,-2.79,-4.82,-4.82,-4.83
279.38,-2.22,2.62,-2.21,2.62,-2.62,-2.76,-4.83,-4.83,-4.83
282.17,-2.20,2.64,-2.20,2.63,-2.63,-2.72,-4.83,-4.84,-4.84
284.99,-2.20,2.65,-2.20,2.65,-2.65,-2.69,-4.84,-4.84,-4.84
287.84,-2.20,2.65,-2.19,2.66,-2.66,-2.65,-4.86,-4.85,-4.85
290.72,-2.18,2.68,-2.19,2.67,-2.67,-2.61,-4.85,-4.86,-4.86
293.63,-2.18,2.68,-2.18,2.68,-2.68,-2.57,-4.85,-4.86,-4.86
296.57,-2.18,2.69,-2.18,2.68,-2.68,-2.53,-4.86,-4.87,-4.87
299.53,-2.19,2.69,-2.18,2.69,-2.69,-2.49,-4.88,-4.87,-4.87
302.53,-2.19,2.69,-2.18,2.69,-2.69,-2.45,-4.88,-4.88,-4.88
305.55,-2.19,2.69,-2.19,2.69,-2.69,-2.41,-4.88,-4.88,-4.88
308.61,-2.20,2.69,-2.19,2.69,-2.69,-2.37,-4.89,-4.89,-4.89
311.69,-2.20,2.69,-2.20,2.69,-2.69,-2.33,-4.89,-4.89,-4.89
314.81,-2.21,2.69,-2.21,2.69,-2.69,-2.30,-4.90,-4.90,-4.90
317.96,-2.22,2.68,-2.21,2.69,-2.69,-2.26,-4.90,-4.90,-4.90
321.14,-2.22,2.69,-2.22,2.68,-2.68,-2.22,-4.90,-4.90,-4.90
324.35,-2.24,2.67,-2.23,2.68,-2.68,-2.18,-4.91,-4.91,-4.91
327.59,-2.25,2.67,-2.24,2.67,-2.67,-2.15,-4.92,-4.91,-4.91
330.87,-2.26,2.66,-2.25,2.66,-2.66,-2.12,-4.92,-4.92,-4.92
334.18,-2.26,2.66,-2.26,2.66,-2.66,-2.08,-4.91,-4.92,-4.92
337.52,-2.28,2.65,-2.27,2.65,-2.65,-2.05,-4.93,-4.92,-4.92
340.90,-2.29,2.64,-2.28,2.64,-2.64,-2.02,-4.93,-4.93,-4.93
344.30,-2.30,2.63,-2.30,2.64,-2.64,-1.99,-4.93,-4.93,-4.93
347.75,-2.31,2.63,-2.31,2.63,-2.63,-1.97,-4.93,-4.93,-4.93
351.23,-2.32,2.62,-2.32,2.62,-2.62,-1.94,-4.94,-4.94,-4.94
354.74,-2.33,2.61,-2.33,2.61,-2.61,-1.92,-4.94,-4.94,-4.94
358.28,-2.35,2.60,-2.34,2.60,-2.60,-1.89,-4.95,-4.94,-4.94
361.87,-2.36,2.59,-2.35,2.59,-2.59,-1.87,-4.95,-4.95,-4.95
365.49,-2.37,2.58,-2.37,2.58,-2.58,-1.85,-4.95,-4.95,-4.95
369.14,-2.39,2.57,-2.38,2.57,-2.57,-1.83,-4.96,-4.95,-4.95
372.83,-2.39,2.57,-2.39,2.56,-2.56,-1.82,-4.95,-4.96,-4.96
376.56,-2.41,2.55,-2.41,2.55,-2.55,-1.80,-4.96,-4.96,-4.96
380.33,-2.42,2.54,-2.42,2.54,-2.54,-1.79,-4.96,-4.96,-4.96
384.13,-2.44,2.53,-2.43,2.53,-2.53,-1.77,-4.97,-4.96,-4.96
387.97,-2.45,2.52,-2.45,2.52,-2.52,-1.76,-4.96,-4.97,-4.97
391.85,-2.47,2.50,-2.46,2.51,-2.51,-1.75,-4.97,-4.97,-4.97
395.77,-2.48,2.49,-2.48,2.50,-2.50,-1.74,-4.97,-4.97,-4.97
399.73,-2.50,2.48,-2.49,2.48,-2.48,-1.73,-4.98,-4.97,-4.97
403.72,-2.51,2.47,-2.51,2.47,-2.47,-1.73,-4.98,-4.98,-4.97
407.76,-2.52,2.46,-2.52,2.46,-2.46,-1.72,-4.98,-4.98,-4.98
411.84,-2.54,2.44,-2.53,2.45,-2.45,-1.72,-4.99,-4.98,-4.98
415.96,-2.55,2.44,-2.55,2.44,-2.44,-1.72,-4.98,-4.99,-4.98
420.12,-2.57,2.42,-2.56,2.43,-2.43,-1.71,-4.99,-4.99,-4.99
424.32,-2.58,2.41,-2.58,2.41,-2.41,-1.71,-4.99,-4.99,-4.99
428.56,-2.59,2.40,-2.59,2.40,-2.40,-1.71,-4.99,-4.99,-4.99
432.85,-2.60,2.40,-2.60,2.39,-2.39,-1.71,-4.99,-4.99,-4.99
437.18,-2.62,2.38,-2.62,2.37,-2.37,-1.71,-4.99,-4.99,-4.99
441.55,-2.63,2.37,-2.63,2.36,-2.36,-1.72,-4.99,-4.99,-4.99
445.96,-2.65,2.34,-2.64,2.35,-2.35,-1.72,-4.99,-4.99,-4.99
450.42,-2.66,2.33,-2.66,2.33,-2.33,-1.72,-4.99,-4.99,-4.99
454.93,-2.68,2.31,-2.67,2.31,-2.31,-1.73,-4.99,-4.98,-4.98
459.48,-2.69,2.29,-2.68,2.29,-2.29,-1.73,-4.98,-4.98,-4.98
464.07,-2.71,2.27,-2.70,2.28,-2.28,-1.73,-4.98,-4.97,-4.97
468.71,-2.72,2.25,-2.71,2.26,-2.26,-1.74,-4.97,-4.97,-4.97
473.40,-2.72,2.24,-2.72,2.24,-2.24,-1.74,-4.95,-4.96,-4.96
478.13,-2.74,2.21,-2.74,2.21,-2.21,-1.75,-4.95,-4.95,-4.95
482.91,-2.74,2.20,-2.75,2.19,-2.19,-1.75,-4.93,-4.94,-4.94
487.74,-2.76,2.17,-2.76,2.17,-2.17,-1.76,-4.93,-4.93,-4.93
492.62,-2.77,2.15,-2.77,2.15,-2.15,-1.76,-4.91,-4.91,-4.91
497.55,-2.78,2.12,-2.78,2.12,-2.12,-1.77,-4.90,-4.90,-4.90
502.52,-2.79,2.10,-2.79,2.10,-2.10,-1.78,-4.89,-4.89,-4.88
507.55,-2.81,2.06,-2.80,2.07,-2.07,-1.78,-4.88,-4.87,-4.87
512.62,-2.81,2.05,-2.81,2.05,-2.05,-1.79,-4.85,-4.85,-4.85
517.75,-2.82,2.02,-2.82,2.02,-2.02,-1.79,-4.84,-4.84,-4.84
522.93,-2.83,1.99,-2.82,2.00,-2.00,-1.80,-4.82,-4.82,-4.82
528.16,-2.83,1.98,-2.83,1.97,-1.97,-1.81,-4.80,-4.80,-4.80
533.44,-2.84,1.95,-2.84,1.94,-1.94,-1.81,-4.78,-4.78,-4.78
538.77,-2.85,1.92,-2.85,1.91,-1.91,-1.82,-4.76,-4.76,-4.76
544.16,-2.86,1.89,-2.85,1.89,-1.89,-1.83,-4.74,-4.74,-4.74
549.60,-2.87,1.85,-2.86,1.86,-1.86,-1.84,-4.72,-4.72,-4.72
555.10,-2.86,1.84,-2.86,1.83,-1.83,-1.85,-4.68,-4.69,-4.69
560.65,-2.87,1.80,-2.87,1.80,-1.80,-1.85,-4.66,-4.67,-4.67
566.25,-2.88,1.76,-2.87,1.77,-1.77,-1.86,-4.65,-4.64,-4.64
571.92,-2.88,1.74,-2.87,1.74,-1.74,-1.88,-4.62,-4.61,-4.61
577.64,-2.88,1.71,-2.88,1.71,-1.71,-1.89,-4.59,-4.59,-4.58
583.41,-2.88,1.68,-2.88,1.68,-1.68,-1.90,-4.56,-4.56,-4.56
589.25,-2.88,1.65,-2.88,1.65,-1.65,-1.91,-4.53,-4.53,-4.53
595.14,-2.88,1.62,-2.88,1.62,-1.62,-1.93,-4.50,-4.50,-4.50
601.09,-2.87,1.60,-2.87,1.60,-1.60,-1.94,-4.46,-4.47,-4.47
607.10,-2.87,1.57,-2.87,1.57,-1.57,-1.96,-4.43,-4.44,-4.44
613.17,-2.87,1.54,-2.86,1.54,-1.54,-1.98,-4.41,-4.41,-4.41
