frequency,raw,error,smoothed,error_smoothed,equalization,parametric_eq,equalized_raw,equalized_smoothed,target
20,-4.51,-5.41,-4.49,-5.38,5.38,1.84,0.86,0.89,0.89
21,-4.33,-5.22,-4.34,-5.22,5.22,2.13,0.89,0.88,0.88
22,-4.17,-5.05,-4.20,-5.07,5.07,2.43,0.90,0.87,0.87
23,-4.05,-4.92,-4.06,-4.93,4.93,2.77,0.87,0.86,0.86
24,-3.92,-4.78,-3.93,-4.79,4.79,3.12,0.86,0.85,0.85
25,-3.80,-4.64,-3.81,-4.65,4.65,3.48,0.85,0.84,0.84
26,-3.68,-4.51,-3.70,-4.52,4.52,3.84,0.84,0.83,0.83
27,-3.58,-4.40,-3.59,-4.40,4.40,4.18,0.82,0.81,0.81
28,-3.48,-4.28,-3.49,-4.29,4.29,4.47,0.80,0.80,0.80
29,-3.39,-4.17,-3.39,-4.17,4.17,4.71,0.78,0.78,0.78
30,-3.30,-4.07,-3.31,-4.07,4.07,4.87,0.76,0.76,0.76
31,-3.22,-3.97,-3.22,-3.97,3.97,4.95,0.74,0.74,0.74
32,-3.15,-3.88,-3.15,-3.87,3.87,4.94,0.72,0.72,0.72
33,-3.07,-3.78,-3.07,-3.78,3.78,4.86,0.70,0.70,0.70
34,-3.01,-3.69,-3.01,-3.69,3.69,4.72,0.67,0.68,0.68
35,-2.94,-3.60,-2.94,-3.60,3.60,4.54,0.66,0.66,0.66
36,-2.88,-3.52,-2.88,-3.52,3.52,4.34,0.63,0.63,0.63
37,-2.82,-3.43,-2.83,-3.43,3.43,4.12,0.61,0.61,0.61
38,-2.77,-3.35,-2.77,-3.35,3.35,3.91,0.58,0.58,0.58
39,-2.72,-3.28,-2.72,-3.27,3.27,3.70,0.55,0.55,0.55
40,-2.67,-3.20,-2.67,-3.19,3.19,3.50,0.52,0.52,0.52
41,-2.62,-3.12,-2.62,-3.12,3.12,3.32,0.49,0.49,0.49
42,-2.58,-3.04,-2.58,-3.04,3.04,3.15,0.46,0.46,0.46
43,-2.54,-2.97,-2.54,-2.96,2.96,3.00,0.42,0.43,0.43
44,-2.50,-2.90,-2.50,-2.89,2.89,2.86,0.39,0.39,0.39
45,-2.46,-2.82,-2.46,-2.82,2.82,2.74,0.35,0.36,0.36
46,-2.43,-2.76,-2.42,-2.74,2.74,2.63,0.31,0.32,0.32
47,-2.39,-2.68,-2.39,-2.67,2.67,2.53,0.28,0.28,0.28
48,-2.35,-2.60,-2.36,-2.61,2.61,2.44,0.25,0.25,0.25
49,-2.31,-2.52,-2.33,-2.54,2.54,2.37,0.23,0.21,0.21
50,-2.26,-2.43,-2.31,-2.48,2.48,2.30,0.21,0.17,0.17
51,-2.23,-2.36,-2.29,-2.41,2.41,2.24,0.18,0.12,0.12
52,-2.26,-2.35,-2.27,-2.35,2.35,2.18,0.09,0.08,0.08
53,-2.30,-2.34,-2.25,-2.29,2.29,2.13,-0.02,0.04,0.04
54,-2.28,-2.28,-2.23,-2.23,2.23,2.09,-0.06,-0.01,-0.01
55,-2.22,-2.17,-2.22,-2.17,2.17,2.04,-0.06,-0.05,-0.05
56,-2.17,-2.08,-2.20,-2.10,2.10,2.00,-0.07,-0.10,-0.10
57,-2.17,-2.03,-2.18,-2.04,2.04,1.96,-0.13,-0.15,-0.15
58,-2.18,-1.99,-2.17,-1.97,1.97,1.92,-0.21,-0.19,-0.19
59,-2.19,-1.95,-2.15,-1.91,1.91,1.87,-0.29,-0.24,-0.24
60,-2.14,-1.85,-2.13,-1.84,1.84,1.83,-0.30,-0.29,-0.29
61,-2.11,-1.77,-2.11,-1.77,1.77,1.78,-0.34,-0.34,-0.34
62,-2.07,-1.68,-2.09,-1.70,1.70,1.73,-0.37,-0.39,-0.39
63,-2.05,-1.61,-2.08,-1.63,1.63,1.68,-0.42,-0.44,-0.44
64,-2.04,-1.55,-2.06,-1.56,1.56,1.62,-0.48,-0.49,-0.49
65,-2.03,-1.49,-2.04,-1.49,1.49,1.56,-0.54,-0.55,-0.55
66,-2.02,-1.42,-2.02,-1.42,1.42,1.50,-0.60,-0.60,-0.60
67,-2.01,-1.36,-2.01,-1.36,1.36,1.44,-0.66,-0.65,-0.65
68,-2.00,-1.30,-1.99,-1.29,1.29,1.37,-0.72,-0.71,-0.71
69,-1.99,-1.23,-1.98,-1.22,1.22,1.31,-0.77,-0.76,-0.76
70,-1.97,-1.16,-1.97,-1.16,1.16,1.24,-0.81,-0.81,-0.81
71,-1.96,-1.10,-1.96,-1.10,1.10,1.18,-0.87,-0.87,-0.87
72,-1.94,-1.02,-1.96,-1.04,1.04,1.11,-0.91,-0.92,-0.92
73,-1.92,-0.95,-1.95,-0.98,0.98,1.04,-0.95,-0.98,-0.98
74,-1.91,-0.88,-1.95,-0.92,0.92,0.97,-1.00,-1.03,-1.03
75,-1.93,-0.85,-1.94,-0.86,0.86,0.90,-1.08,-1.08,-1.08
76,-1.94,-0.81,-1.94,-0.80,0.80,0.84,-1.14,-1.14,-1.14
77,-1.96,-0.77,-1.94,-0.74,0.74,0.77,-1.22,-1.19,-1.19
78,-1.96,-0.72,-1.93,-0.69,0.69,0.70,-1.28,-1.25,-1.25
79,-1.95,-0.65,-1.93,-0.63,0.63,0.64,-1.33,-1.30,-1.30
80,-1.93,-0.58,-1.93,-0.57,0.57,0.57,-1.36,-1.35,-1.35
81,-1.91,-0.51,-1.92,-0.51,0.51,0.51,-1.40,-1.41,-1.41
82,-1.90,-0.44,-1.92,-0.46,0.46,0.45,-1.45,-1.46,-1.46
83,-1.90,-0.39,-1.91,-0.40,0.40,0.39,-1.51,-1.51,-1.51
84,-1.89,-0.33,-1.91,-0.34,0.34,0.32,-1.55,-1.57,-1.57
85,-1.88,-0.26,-1.90,-0.28,0.28,0.26,-1.60,-1.62,-1.62
86,-1.89,-0.22,-1.90,-0.23,0.23,0.20,-1.67,-1.67,-1.67
87,-1.90,-0.18,-1.89,-0.17,0.17,0.14,-1.73,-1.72,-1.72
88,-1.90,-0.13,-1.89,-0.11,0.11,0.09,-1.79,-1.78,-1.78
89,-1.90,-0.08,-1.89,-0.06,0.06,0.03,-1.84,-1.83,-1.83
90,-1.89,-0.02,-1.88,-0.01,0.01,-0.03,-1.89,-1.88,-1.88
91,-1.88,0.04,-1.88,0.05,-0.05,-0.08,-1.93,-1.93,-1.93
92,-1.87,0.10,-1.88,0.10,-0.10,-0.14,-1.97,-1.97,-1.98
93,-1.86,0.16,-1.88,0.15,-0.15,-0.19,-2.01,-2.02,-2.03
94,-1.86,0.21,-1.88,0.19,-0.19,-0.25,-2.06,-2.07,-2.07
95,-1.86,0.26,-1.88,0.24,-0.24,-0.30,-2.11,-2.12,-2.12
96,-1.86,0.31,-1.88,0.29,-0.29,-0.36,-2.15,-2.17,-2.17
97,-1.87,0.34,-1.88,0.33,-0.33,-0.41,-2.21,-2.22,-2.22
98,-1.88,0.38,-1.89,0.38,-0.38,-0.46,-2.26,-2.27,-2.26
99,-1.89,0.42,-1.89,0.42,-0.42,-0.51,-2.32,-2.32,-2.31
100,-1.91,0.44,-1.90,0.47,-0.47,-0.56,-2.38,-2.37,-2.36
101,-1.93,0.47,-1.90,0.51,-0.51,-0.61,-2.45,-2.41,-2.40
102,-1.93,0.51,-1.90,0.56,-0.56,-0.66,-2.49,-2.46,-2.44
104,-1.90,0.63,-1.91,0.60,-0.60,-0.76,-2.51,-2.51,-2.53
105,-1.89,0.68,-1.91,0.65,-0.65,-0.80,-2.54,-2.56,-2.57
106,-1.89,0.72,-1.91,0.69,-0.69,-0.85,-2.59,-2.60,-2.61
107,-1.89,0.76,-1.91,0.74,-0.74,-0.89,-2.63,-2.65,-2.66
108,-1.89,0.80,-1.91,0.78,-0.78,-0.94,-2.67,-2.69,-2.70
109,-1.91,0.82,-1.91,0.82,-0.82,-0.98,-2.73,-2.73,-2.74
110,-1.92,0.85,-1.91,0.86,-0.86,-1.02,-2.78,-2.78,-2.77
111,-1.92,0.89,-1.92,0.90,-0.90,-1.06,-2.82,-2.82,-2.81
112,-1.93,0.92,-1.92,0.94,-0.94,-1.10,-2.87,-2.86,-2.85
113,-1.92,0.96,-1.92,0.98,-0.98,-1.13,-2.90,-2.90,-2.89
114,-1.92,1.00,-1.92,1.02,-1.02,-1.17,-2.94,-2.94,-2.93
115,-1.91,1.05,-1.92,1.06,-1.06,-1.21,-2.97,-2.98,-2.96
117,-1.91,1.12,-1.92,1.10,-1.10,-1.27,-3.01,-3.02,-3.03
118,-1.90,1.16,-1.92,1.14,-1.14,-1.30,-3.04,-3.06,-3.07
119,-1.91,1.19,-1.92,1.18,-1.18,-1.33,-3.09,-3.10,-3.10
120,-1.91,1.22,-1.92,1.22,-1.22,-1.35,-3.13,-3.14,-3.13
121,-1.92,1.24,-1.92,1.26,-1.26,-1.38,-3.18,-3.18,-3.17
123,-1.93,1.30,-1.92,1.29,-1.29,-1.43,-3.23,-3.22,-3.23
124,-1.93,1.33,-1.92,1.33,-1.33,-1.45,-3.27,-3.26,-3.26
125,-1.93,1.36,-1.92,1.37,-1.37,-1.47,-3.30,-3.29,-3.29
126,-1.94,1.38,-1.93,1.41,-1.41,-1.48,-3.35,-3.33,-3.32
128,-1.93,1.45,-1.93,1.44,-1.44,-1.51,-3.37,-3.37,-3.38
129,-1.92,1.48,-1.93,1.47,-1.47,-1.53,-3.40,-3.40,-3.41
130,-1.92,1.51,-1.93,1.50,-1.50,-1.54,-3.43,-3.44,-3.44
131,-1.92,1.54,-1.94,1.53,-1.53,-1.55,-3.46,-3.47,-3.46
133,-1.92,1.59,-1.95,1.56,-1.56,-1.57,-3.49,-3.51,-3.52
134,-1.93,1.61,-1.96,1.59,-1.59,-1.58,-3.52,-3.54,-3.54
135,-1.95,1.61,-1.97,1.61,-1.61,-1.59,-3.57,-3.58,-3.57
137,-1.98,1.63,-1.98,1.64,-1.64,-1.60,-3.62,-3.61,-3.62
138,-1.99,1.65,-1.99,1.66,-1.66,-1.61,-3.65,-3.64,-3.64
140,-2.00,1.68,-2.00,1.68,-1.68,-1.62,-3.68,-3.68,-3.69
141,-2.02,1.69,-2.01,1.70,-1.70,-1.62,-3.72,-3.71,-3.71
142,-2.03,1.70,-2.02,1.72,-1.72,-1.63,-3.75,-3.74,-3.73
144,-2.04,1.73,-2.03,1.74,-1.74,-1.63,-3.79,-3.77,-3.78
145,-2.04,1.75,-2.04,1.76,-1.76,-1.64,-3.81,-3.80,-3.80
147,-2.04,1.79,-2.05,1.78,-1.78,-1.64,-3.83,-3.83,-3.84
148,-2.05,1.80,-2.06,1.81,-1.81,-1.65,-3.86,-3.86,-3.86
150,-2.06,1.83,-2.06,1.83,-1.83,-1.65,-3.89,-3.89,-3.90
151,-2.06,1.85,-2.07,1.85,-1.85,-1.66,-3.91,-3.92,-3.91
153,-2.06,1.89,-2.08,1.87,-1.87,-1.67,-3.93,-3.94,-3.95
154,-2.07,1.89,-2.08,1.89,-1.89,-1.67,-3.96,-3.97,-3.97
156,-2.08,1.92,-2.09,1.91,-1.91,-1.68,-3.99,-4.00,-4.00
157,-2.09,1.92,-2.09,1.93,-1.93,-1.68,-4.03,-4.02,-4.02
159,-2.10,1.95,-2.10,1.95,-1.95,-1.70,-4.05,-4.05,-4.05
160,-2.10,1.96,-2.10,1.97,-1.97,-1.70,-4.07,-4.07,-4.07
162,-2.11,1.98,-2.11,1.99,-1.99,-1.72,-4.10,-4.10,-4.10
164,-2.12,2.00,-2.11,2.01,-2.01,-1.73,-4.13,-4.12,-4.13
165,-2.12,2.02,-2.12,2.02,-2.02,-1.74,-4.15,-4.15,-4.14
167,-2.13,2.04,-2.13,2.04,-2.04,-1.76,-4.18,-4.17,-4.17
169,-2.13,2.06,-2.13,2.06,-2.06,-1.78,-4.19,-4.19,-4.20
170,-2.14,2.07,-2.14,2.07,-2.07,-1.79,-4.22,-4.21,-4.21
172,-2.14,2.09,-2.15,2.09,-2.09,-1.81,-4.23,-4.23,-4.23
174,-2.14,2.12,-2.16,2.10,-2.10,-1.83,-4.24,-4.26,-4.26
175,-2.15,2.12,-2.17,2.11,-2.11,-1.85,-4.26,-4.28,-4.27
177,-2.15,2.14,-2.18,2.12,-2.12,-1.87,-4.27,-4.30,-4.29
179,-2.17,2.14,-2.19,2.12,-2.12,-1.90,-4.30,-4.32,-4.32
181,-2.19,2.14,-2.20,2.13,-2.13,-1.93,-4.32,-4.34,-4.34
183,-2.23,2.12,-2.22,2.14,-2.14,-1.96,-4.37,-4.35,-4.36
184,-2.24,2.12,-2.23,2.14,-2.14,-1.98,-4.39,-4.37,-4.37
186,-2.26,2.12,-2.24,2.15,-2.15,-2.01,-4.42,-4.39,-4.39
188,-2.27,2.13,-2.25,2.16,-2.16,-2.04,-4.43,-4.41,-4.41
190,-2.27,2.15,-2.26,2.17,-2.17,-2.08,-4.44,-4.43,-4.43
192,-2.26,2.18,-2.26,2.18,-2.18,-2.12,-4.44,-4.44,-4.44
194,-2.26,2.20,-2.27,2.19,-2.19,-2.15,-4.46,-4.46,-4.46
196,-2.26,2.21,-2.27,2.20,-2.20,-2.19,-4.47,-4.48,-4.48
198,-2.26,2.23,-2.28,2.21,-2.21,-2.23,-4.48,-4.49,-4.49
200,-2.27,2.23,-2.28,2.22,-2.22,-2.27,-4.50,-4.51,-4.51
202,-2.28,2.24,-2.29,2.23,-2.23,-2.31,-4.52,-4.52,-4.52
204,-2.29,2.24,-2.29,2.24,-2.24,-2.35,-4.54,-4.54,-4.54
206,-2.30,2.25,-2.30,2.25,-2.25,-2.39,-4.55,-4.55,-4.55
208,-2.31,2.25,-2.31,2.25,-2.25,-2.43,-4.57,-4.56,-4.56
210,-2.31,2.26,-2.32,2.26,-2.26,-2.47,-4.57,-4.58,-4.58
212,-2.31,2.27,-2.33,2.26,-2.26,-2.50,-4.57,-4.59,-4.59
214,-2.32,2.28,-2.34,2.26,-2.26,-2.54,-4.58,-4.60,-4.60
216,-2.33,2.28,-2.36,2.26,-2.26,-2.58,-4.59,-4.61,-4.61
218,-2.36,2.26,-2.37,2.25,-2.25,-2.62,-4.62,-4.63,-4.62
221,-2.39,2.25,-2.39,2.25,-2.25,-2.67,-4.65,-4.64,-4.64
223,-2.41,2.24,-2.40,2.25,-2.25,-2.70,-4.66,-4.65,-4.65
225,-2.43,2.23,-2.41,2.25,-2.25,-2.73,-4.68,-4.66,-4.66
227,-2.44,2.23,-2.42,2.25,-2.25,-2.76,-4.69,-4.67,-4.67
229,-2.43,2.25,-2.43,2.25,-2.25,-2.79,-4.69,-4.68,-4.68
232,-2.43,2.26,-2.43,2.26,-2.26,-2.82,-4.69,-4.69,-4.69
234,-2.43,2.27,-2.43,2.27,-2.27,-2.84,-4.70,-4.70,-4.70
236,-2.43,2.28,-2.43,2.28,-2.28,-2.86,-4.71,-4.71,-4.71
239,-2.42,2.30,-2.43,2.29,-2.29,-2.89,-4.71,-4.72,-4.72
241,-2.42,2.31,-2.42,2.31,-2.31,-2.90,-4.73,-4.73,-4.73
244,-2.41,2.33,-2.42,2.32,-2.32,-2.92,-4.74,-4.74,-4.74
246,-2.40,2.34,-2.41,2.34,-2.34,-2.92,-4.75,-4.75,-4.75
248,-2.40,2.35,-2.39,2.36,-2.36,-2.93,-4.77,-4.76,-4.76
251,-2.38,2.38,-2.38,2.38,-2.38,-2.93,-4.77,-4.77,-4.77
253,-2.37,2.40,-2.37,2.41,-2.41,-2.93,-4.78,-4.77,-4.77
256,-2.35,2.43,-2.35,2.43,-2.43,-2.92,-4.78,-4.78,-4.78
259,-2.33,2.46,-2.34,2.45,-2.45,-2.91,-4.79,-4.79,-4.79
261,-2.31,2.48,-2.32,2.48,-2.48,-2.90,-4.79,-4.80,-4.80
264,-2.30,2.50,-2.30,2.50,-2.50,-2.88,-4.81,-4.80,-4.80
266,-2.28,2.53,-2.29,2.53,-2.53,-2.87,-4.81,-4.81,-4.81
269,-2.26,2.55,-2.27,2.55,-2.55,-2.84,-4.81,-4.82,-4.82
272,-2.25,2.57,-2.26,2.57,-2.57,-2.81,-4.82,-4.82,-4.83
274,-2.24,2.59,-2.24,2.59,-2.59,-2.79,-4.83,-4.83,-4.83
277,-2.22,2.61,-2.23,2.61,-2.61,-2.76,-4.83,-4.84,-4.84
280,-2.21,2.63,-2.22,2.63,-2.63,-2.72,-4.84,-4.84,-4.84
283,-2.20,2.65,-2.21,2.64,-2.64,-2.69,-4.85,-4.85,-4.85
286,-2.19,2.66,-2.20,2.65,-2.65,-2.65,-4.85,-4.86,-4.86
288,-2.19,2.67,-2.19,2.67,-2.67,-2.62,-4.86,-4.86,-4.86
291,-2.19,2.67,-2.19,2.68,-2.68,-2.58,-4.87,-4.87,-4.87
294,-2.18,2.69,-2.19,2.68,-2.68,-2.54,-4.87,-4.87,-4.87
297,-2.18,2.69,-2.19,2.69,-2.69,-2.50,-4.87,-4.88,-4.88
300,-2.18,2.70,-2.19,2.69,-2.69,-2.47,-4.88,-4.88,-4.88
303,-2.19,2.69,-2.19,2.70,-2.70,-2.43,-4.89,-4.89,-4.89
306,-2.19,2.70,-2.19,2.70,-2.70,-2.39,-4.89,-4.89,-4.89
309,-2.19,2.70,-2.20,2.70,-2.70,-2.35,-4.89,-4.90,-4.90
312,-2.20,2.70,-2.20,2.70,-2.70,-2.31,-4.90,-4.90,-4.90
316,-2.20,2.70,-2.21,2.70,-2.70,-2.26,-4.90,-4.91,-4.91
319,-2.21,2.70,-2.21,2.70,-2.70,-2.23,-4.91,-4.91,-4.91
322,-2.22,2.69,-2.22,2.69,-2.69,-2.20,-4.92,-4.91,-4.91
325,-2.22,2.69,-2.23,2.69,-2.69,-2.16,-4.91,-4.92,-4.92
328,-2.23,2.69,-2.24,2.69,-2.69,-2.13,-4.92,-4.92,-4.92
332,-2.24,2.68,-2.24,2.68,-2.68,-2.09,-4.93,-4.93,-4.93
335,-2.25,2.68,-2.25,2.68,-2.68,-2.06,-4.93,-4.93,-4.93
338,-2.26,2.67,-2.26,2.67,-2.67,-2.04,-4.93,-4.93,-4.93
342,-2.27,2.66,-2.27,2.66,-2.66,-2.00,-4.94,-4.94,-4.94
345,-2.28,2.66,-2.28,2.66,-2.66,-1.98,-4.94,-4.94,-4.94
349,-2.29,2.65,-2.29,2.65,-2.65,-1.95,-4.94,-4.94,-4.94
352,-2.30,2.64,-2.30,2.64,-2.64,-1.93,-4.95,-4.95,-4.95
356,-2.31,2.64,-2.32,2.63,-2.63,-1.90,-4.95,-4.95,-4.95
359,-2.32,2.63,-2.33,2.63,-2.63,-1.88,-4.95,-4.95,-4.95
363,-2.34,2.61,-2.34,2.62,-2.62,-1.86,-4.96,-4.96,-4.96
366,-2.35,2.60,-2.35,2.61,-2.61,-1.84,-4.96,-4.96,-4.96
370,-2.36,2.60,-2.36,2.60,-2.60,-1.83,-4.96,-4.96,-4.96
374,-2.37,2.59,-2.38,2.59,-2.59,-1.81,-4.96,-4.97,-4.97
377,-2.38,2.58,-2.39,2.58,-2.58,-1.80,-4.96,-4.97,-4.97
381,-2.40,2.57,-2.40,2.57,-2.57,-1.78,-4.97,-4.97,-4.97
385,-2.41,2.56,-2.42,2.56,-2.56,-1.77,-4.97,-4.97,-4.97
389,-2.43,2.54,-2.43,2.55,-2.55,-1.76,-4.98,-4.98,-4.98
393,-2.44,2.54,-2.45,2.54,-2.54,-1.75,-4.98,-4.98,-4.98
397,-2.46,2.52,-2.46,2.52,-2.52,-1.74,-4.99,-4.98,-4.98
401,-2.47,2.51,-2.48,2.51,-2.51,-1.74,-4.98,-4.99,-4.99
405,-2.49,2.49,-2.49,2.50,-2.50,-1.73,-4.99,-4.99,-4.99
409,-2.50,2.49,-2.51,2.48,-2.48,-1.73,-4.99,-4.99,-4.99
413,-2.52,2.47,-2.53,2.47,-2.47,-1.72,-4.99,-4.99,-4.99
417,-2.53,2.46,-2.54,2.45,-2.45,-1.72,-4.99,-4.99,-4.99
421,-2.55,2.44,-2.56,2.44,-2.44,-1.72,-4.99,-5.00,-5.00
425,-2.57,2.42,-2.58,2.42,-2.42,-1.72,-4.99,-5.00,-5.00
430,-2.59,2.40,-2.59,2.40,-2.40,-1.72,-5.00,-5.00,-5.00
434,-2.61,2.38,-2.61,2.39,-2.39,-1.72,-5.00,-5.00,-5.00
438,-2.63,2.36,-2.62,2.37,-2.37,-1.72,-5.01,-5.00,-5.00
443,-2.64,2.35,-2.64,2.36,-2.36,-1.73,-5.00,-4.99,-4.99
447,-2.65,2.34,-2.65,2.34,-2.34,-1.73,-5.00,-4.99,-4.99
451,-2.66,2.32,-2.66,2.33,-2.33,-1.73,-4.99,-4.99,-4.99
456,-2.67,2.31,-2.67,2.32,-2.32,-1.74,-4.99,-4.98,-4.98
460,-2.68,2.30,-2.68,2.30,-2.30,-1.74,-4.99,-4.98,-4.98
465,-2.68,2.29,-2.68,2.29,-2.29,-1.75,-4.97,-4.97,-4.97
470,-2.69,2.27,-2.69,2.27,-2.27,-1.75,-4.97,-4.97,-4.97
474,-2.70,2.25,-2.70,2.26,-2.26,-1.76,-4.96,-4.96,-4.96
479,-2.70,2.25,-2.71,2.24,-2.24,-1.76,-4.94,-4.95,-4.95
484,-2.71,2.23,-2.72,2.22,-2.22,-1.77,-4.93,-4.94,-4.94
489,-2.72,2.20,-2.73,2.20,-2.20,-1.77,-4.92,-4.93,-4.93
494,-2.72,2.19,-2.74,2.17,-2.17,-1.78,-4.90,-4.92,-4.92
499,-2.73,2.17,-2.76,2.15,-2.15,-1.79,-4.88,-4.90,-4.90
504,-2.75,2.13,-2.77,2.12,-2.12,-1.79,-4.87,-4.89,-4.89
509,-2.77,2.10,-2.79,2.08,-2.08,-1.80,-4.86,-4.87,-4.87
514,-2.79,2.06,-2.80,2.05,-2.05,-1.80,-4.85,-4.86,-4.86
519,-2.82,2.01,-2.82,2.02,-2.02,-1.81,-4.84,-4.84,-4.84
524,-2.85,1.96,-2.83,1.99,-1.99,-1.82,-4.84,-4.82,-4.82
529,-2.87,1.93,-2.84,1.96,-1.96,-1.82,-4.83,-4.80,-4.80
535,-2.87,1.90,-2.85,1.93,-1.93,-1.83,-4.80,-4.78,-4.78
540,-2.88,1.87,-2.86,1.90,-1.90,-1.84,-4.78,-4.76,-4.76
545,-2.87,1.86,-2.87,1.87,-1.87,-1.84,-4.74,-4.73,-4.73
551,-2.86,1.85,-2.87,1.84,-1.84,-1.85,-4.71,-4.71,-4.71
556,-2.86,1.82,-2.87,1.82,-1.82,-1.86,-4.68,-4.69,-4.69
562,-2.85,1.81,-2.87,1.79,-1.79,-1.87,-4.64,-4.66,-4.66
568,-2.86,1.77,-2.87,1.77,-1.77,-1.88,-4.63,-4.64,-4.64
573,-2.86,1.74,-2.87,1.74,-1.74,-1.89,-4.61,-4.61,-4.61
579,-2.86,1.72,-2.86,1.72,-1.72,-1.90,-4.58,-4.58,-4.58
585,-2.86,1.69,-2.86,1.69,-1.69,-1.91,-4.55,-4.55,-4.55
591,-2.86,1.66,-2.86,1.66,-1.66,-1.93,-4.53,-4.52,-4.52
596,-2.85,1.64,-2.86,1.63,-1.63,-1.94,-4.49,-4.49,-4.49
602,-2.85,1.61,-2.86,1.61,-1.61,-1.96,-4.46,-4.46,-4.46
608,-2.84,1.59,-2.86,1.58,-1.58,-1.97,-4.42,-4.43,-4.43
615,-2.83,1.57,-2.86,1.54,-1.54,-1.99,-4.38,-4.40,-4.40
621,-2.84,1.53,-2.86,1.51,-1.51,-2.01,-4.36,-4.37,-4.37
627,-2.85,1.48,-2.85,1.48,-1.48,-2.03,-4.34,-4.34,-4.34
633,-2.86,1.44,-2.85,1.45,-1.45,-2.05,-4.32,-4.30,-4.30
639,-2.87,1.40,-2.85,1.42,-1.42,-2.08,-4.30,-4.27,-4.27
646,-2.86,1.37,-2.84,1.40,-1.40,-2.10,-4.26,-4.24,-4.24
652,-2.85,1.35,-2.83,1.37,-1.37,-2.13,-4.22,-4.20,-4.20
659,-2.82,1.34,-2.82,1.34,-1.34,-2.16,-4.17,-4.17,-4.17
665,-2.79,1.34,-2.81,1.32,-1.32,-2.19,-4.12,-4.13,-4.13
672,-2.77,1.32,-2.80,1.30,-1.30,-2.22,-4.07,-4.09,-4.10
679,-2.76,1.29,-2.78,1.28,-1.28,-2.26,-4.04,-4.06,-4.06
686,-2.75,1.27,-2.76,1.26,-1.26,-2.29,-4.02,-4.02,-4.02
692,-2.74,1.24,-2.74,1.24,-1.24,-2.33,-3.99,-3.98,-3.99
699,-2.73,1.21,-2.72,1.23,-1.23,-2.37,-3.96,-3.95,-3.95
706,-2.71,1.20,-2.70,1.21,-1.21,-2.41,-3.93,-3.91,-3.91
713,-2.69,1.18,-2.67,1.20,-1.20,-2.45,-3.89,-3.87,-3.87
721,-2.64,1.19,-2.65,1.18,-1.18,-2.50,-3.83,-3.83,-3.83
728,-2.60,1.19,-2.62,1.17,-1.17,-2.55,-3.78,-3.80,-3.80
735,-2.57,1.19,-2.60,1.16,-1.16,-2.59,-3.74,-3.76,-3.76
742,-2.54,1.18,-2.57,1.15,-1.15,-2.64,-3.70,-3.72,-3.72
750,-2.52,1.16,-2.54,1.15,-1.15,-2.70,-3.67,-3.68,-3.68
757,-2.50,1.14,-2.50,1.14,-1.14,-2.75,-3.65,-3.65,-3.65
765,-2.48,1.13,-2.47,1.14,-1.14,-2.81,-3.63,-3.61,-3.61
773,-2.44,1.13,-2.43,1.15,-1.15,-2.87,-3.59,-3.57,-3.57
780,-2.40,1.13,-2.39,1.15,-1.15,-2.92,-3.56,-3.54,-3.54
788,-2.35,1.15,-2.34,1.16,-1.16,-2.98,-3.52,-3.50,-3.50
796,-2.30,1.16,-2.29,1.18,-1.18,-3.04,-3.48,-3.47,-3.47
804,-2.23,1.20,-2.23,1.20,-1.20,-3.11,-3.43,-3.43,-3.43
812,-2.17,1.23,-2.18,1.22,-1.22,-3.17,-3.40,-3.40,-3.40
820,-2.10,1.26,-2.12,1.25,-1.25,-3.23,-3.36,-3.37,-3.37
828,-2.04,1.29,-2.05,1.28,-1.28,-3.29,-3.33,-3.33,-3.33
837,-1.97,1.33,-1.98,1.32,-1.32,-3.36,-3.29,-3.30,-3.30
845,-1.90,1.37,-1.91,1.36,-1.36,-3.42,-3.26,-3.27,-3.27
853,-1.83,1.41,-1.84,1.40,-1.40,-3.48,-3.24,-3.24,-3.24
862,-1.75,1.46,-1.76,1.45,-1.45,-3.55,-3.20,-3.21,-3.21
871,-1.67,1.51,-1.68,1.50,-1.50,-3.61,-3.17,-3.18,-3.18
879,-1.60,1.55,-1.60,1.55,-1.55,-3.67,-3.16,-3.15,-3.15
888,-1.50,1.62,-1.51,1.61,-1.61,-3.73,-3.12,-3.12,-3.12
897,-1.41,1.68,-1.42,1.68,-1.68,-3.78,-3.09,-3.10,-3.10
906,-1.31,1.75,-1.32,1.75,-1.75,-3.84,-3.06,-3.07,-3.07
915,-1.22,1.82,-1.22,1.83,-1.83,-3.89,-3.05,-3.04,-3.04
924,-1.11,1.90,-1.11,1.91,-1.91,-3.93,-3.02,-3.01,-3.01
933,-1.01,1.97,-0.99,2.00,-2.00,-3.97,-3.01,-2.99,-2.99
943,-0.88,2.08,-0.87,2.09,-2.09,-4.02,-2.98,-2.96,-2.96
952,-0.75,2.18,-0.74,2.19,-2.19,-4.05,-2.95,-2.93,-2.93
962,-0.59,2.31,-0.61,2.30,-2.30,-4.08,-2.90,-2.91,-2.91
971,-0.46,2.42,-0.46,2.42,-2.42,-4.11,-2.88,-2.88,-2.88
981,-0.30,2.55,-0.32,2.54,-2.54,-4.13,-2.84,-2.85,-2.85
991,-0.14,2.68,-0.16,2.67,-2.67,-4.15,-2.81,-2.83,-2.83
1001,0.02,2.82,0.00,2.80,-2.80,-4.16,-2.79,-2.80,-2.80
1011,0.17,2.94,0.17,2.95,-2.95,-4.16,-2.78,-2.77,-2.77
1021,0.34,3.08,0.35,3.09,-3.09,-4.16,-2.76,-2.75,-2.75
1031,0.50,3.22,0.53,3.25,-3.25,-4.16,-2.75,-2.72,-2.72
1041,0.69,3.38,0.72,3.41,-3.41,-4.15,-2.72,-2.69,-2.69
1052,0.90,3.56,0.91,3.58,-3.58,-4.14,-2.68,-2.66,-2.66
1062,1.08,3.71,1.11,3.74,-3.74,-4.12,-2.67,-2.64,-2.64
1073,1.30,3.90,1.31,3.92,-3.92,-4.10,-2.62,-2.61,-2.61
1084,1.52,4.09,1.51,4.09,-4.09,-4.07,-2.57,-2.58,-2.58
1094,1.71,4.26,1.71,4.26,-4.26,-4.05,-2.55,-2.55,-2.55
1105,1.92,4.44,1.91,4.43,-4.43,-4.02,-2.51,-2.52,-2.52
1116,2.13,4.62,2.10,4.59,-4.59,-3.98,-2.47,-2.49,-2.49
1128,2.34,4.80,2.29,4.75,-4.75,-3.94,-2.41,-2.46,-2.46
1139,2.52,4.94,2.48,4.90,-4.90,-3.91,-2.39,-2.43,-2.43
1150,2.69,5.08,2.65,5.05,-5.05,-3.87,-2.36,-2.40,-2.40
1162,2.85,5.21,2.82,5.19,-5.19,-3.83,-2.34,-2.37,-2.37
1173,3.00,5.33,2.99,5.32,-5.32,-3.79,-2.33,-2.34,-2.34
1185,3.15,5.45,3.14,5.45,-5.45,-3.74,-2.30,-2.30,-2.30
1197,3.29,5.56,3.30,5.57,-5.57,-3.70,-2.28,-2.27,-2.27
1209,3.43,5.66,3.44,5.68,-5.68,-3.66,-2.25,-2.24,-2.24
1221,3.56,5.76,3.58,5.79,-5.79,-3.62,-2.23,-2.21,-2.21
1233,3.69,5.86,3.72,5.89,-5.89,-3.58,-2.21,-2.17,-2.17
1246,3.84,5.97,3.85,5.99,-5.99,-3.54,-2.16,-2.14,-2.14
1258,3.97,6.07,3.99,6.09,-6.09,-3.51,-2.12,-2.11,-2.11
1271,4.12,6.19,4.11,6.18,-6.18,-3.47,-2.07,-2.07,-2.07
1283,4.25,6.28,4.23,6.27,-6.27,-3.44,-2.02,-2.04,-2.04
1296,4.39,6.39,4.35,6.35,-6.35,-3.41,-1.97,-2.00,-2.00
1309,4.50,6.46,4.47,6.43,-6.43,-3.38,-1.94,-1.97,-1.97
1322,4.60,6.53,4.58,6.51,-6.51,-3.35,-1.91,-1.93,-1.93
1335,4.69,6.58,4.68,6.58,-6.58,-3.33,-1.89,-1.89,-1.89
1349,4.77,6.62,4.78,6.64,-6.64,-3.31,-1.88,-1.86,-1.86
1362,4.85,6.67,4.88,6.70,-6.70,-3.29,-1.85,-1.82,-1.82
1376,4.95,6.73,4.97,6.75,-6.75,-3.27,-1.81,-1.78,-1.78
1390,5.04,6.78,5.05,6.80,-6.80,-3.26,-1.76,-1.75,-1.75
1404,5.14,6.84,5.13,6.84,-6.84,-3.24,-1.70,-1.71,-1.71
1418,5.23,6.90,5.20,6.87,-6.87,-3.24,-1.65,-1.67,-1.67
1432,5.31,6.94,5.27,6.90,-6.90,-3.23,-1.60,-1.63,-1.63
1446,5.36,6.95,5.34,6.93,-6.93,-3.23,-1.57,-1.59,-1.59
1461,5.41,6.96,5.39,6.95,-6.95,-3.22,-1.54,-1.55,-1.55
1475,5.44,6.95,5.45,6.96,-6.96,-3.23,-1.52,-1.51,-1.51
1490,5.47,6.94,5.49,6.97,-6.97,-3.23,-1.50,-1.47,-1.47
1505,5.51,6.94,5.54,6.97,-6.97,-3.24,-1.46,-1.43,-1.43
1520,5.55,6.94,5.57,6.96,-6.96,-3.25,-1.42,-1.39,-1.39
1535,5.60,6.94,5.60,6.95,-6.95,-3.26,-1.35,-1.35,-1.35
1550,5.63,6.93,5.63,6.93,-6.93,-3.27,-1.31,-1.31,-1.31
1566,5.66,6.92,5.64,6.91,-6.91,-3.29,-1.25,-1.26,-1.26
1582,5.67,6.89,5.65,6.87,-6.87,-3.30,-1.21,-1.22,-1.22
1597,5.68,6.85,5.66,6.83,-6.83,-3.32,-1.16,-1.18,-1.18
