frequency,raw,smoothed,error,error_smoothed,equalization,parametric_eq,fixed_band_eq,equalized_raw,equalized_smoothed,target
20.00,-6.84,-6.84,-8.95,-8.95,6.00,6.71,2.14,-0.84,-0.84,2.11
20.20,-6.73,-6.73,-8.87,-8.87,6.00,6.66,2.21,-0.73,-0.73,2.14
20.40,-6.62,-6.62,-8.79,-8.79,6.00,6.61,2.27,-0.62,-0.62,2.17
20.61,-6.51,-6.51,-8.70,-8.71,6.00,6.56,2.34,-0.51,-0.51,2.19
20.81,-6.40,-6.40,-8.62,-8.62,6.00,6.51,2.41,-0.40,-0.40,2.22
21.02,-6.29,-6.29,-8.54,-8.53,6.00,6.46,2.48,-0.29,-0.29,2.25
21.23,-6.17,-6.17,-8.43,-8.43,6.00,6.41,2.56,-0.17,-0.17,2.26
21.44,-6.06,-6.06,-8.33,-8.33,6.00,6.36,2.63,-0.06,-0.06,2.27
21.66,-5.94,-5.94,-8.22,-8.22,6.00,6.31,2.71,0.06,0.06,2.28
21.87,-5.83,-5.83,-8.11,-8.11,6.00,6.26,2.79,0.17,0.17,2.28
22.09,-5.72,-5.73,-8.01,-8.01,6.00,6.21,2.88,0.28,0.27,2.29
22.31,-5.64,-5.64,-7.93,-7.92,6.00,6.16,2.96,0.36,0.36,2.28
22.54,-5.55,-5.55,-7.84,-7.84,6.00,6.11,3.05,0.45,0.45,2.28
22.76,-5.46,-5.46,-7.74,-7.74,6.00,6.06,3.14,0.54,0.54,2.28
22.99,-5.37,-5.36,-7.65,-7.64,6.00,6.00,3.23,0.63,0.64,2.27
23.22,-5.25,-5.25,-7.52,-7.53,6.00,5.95,3.32,0.75,0.75,2.27
23.45,-5.13,-5.13,-7.40,-7.40,6.00,5.90,3.42,0.87,0.87,2.27
23.69,-5.00,-5.00,-7.27,-7.27,6.00,5.84,3.52,1.00,1.00,2.27
23.92,-4.88,-4.89,-7.15,-7.16,6.00,5.79,3.62,1.12,1.11,2.27
24.16,-4.77,-4.78,-7.05,-7.05,6.00,5.73,3.72,1.23,1.22,2.28
24.40,-4.68,-4.68,-6.96,-6.95,6.00,5.68,3.82,1.32,1.32,2.28
24.65,-4.58,-4.58,-6.85,-6.85,6.00,5.62,3.93,1.42,1.42,2.27
24.89,-4.48,-4.48,-6.75,-6.75,6.00,5.57,4.03,1.52,1.52,2.27
25.14,-4.38,-4.38,-6.65,-6.65,6.00,5.51,4.14,1.62,1.62,2.27
25.39,-4.28,-4.28,-6.54,-6.54,6.01,5.45,4.24,1.73,1.73,2.26
25.65,-4.17,-4.17,-6.44,-6.43,6.02,5.39,4.35,1.84,1.84,2.26
25.91,-4.07,-4.07,-6.33,-6.33,6.02,5.33,4.46,1.94,1.94,2.25
26.16,-3.97,-3.98,-6.22,-6.23,6.01,5.28,4.57,2.04,2.03,2.25
26.43,-3.88,-3.88,-6.13,-6.13,5.99,5.22,4.67,2.11,2.11,2.25
26.69,-3.79,-3.79,-6.04,-6.04,5.96,5.16,4.77,2.16,2.17,2.25
26.96,-3.69,-3.70,-5.94,-5.94,5.91,5.10,4.88,2.21,2.21,2.25
27.23,-3.60,-3.60,-5.85,-5.85,5.84,5.04,4.97,2.23,2.23,2.25
27.50,-3.50,-3.51,-5.75,-5.75,5.75,4.98,5.07,2.25,2.24,2.24
27.77,-3.41,-3.41,-5.64,-5.65,5.65,4.91,5.16,2.23,2.23,2.23
28.05,-3.31,-3.30,-5.54,-5.53,5.53,4.85,5.25,2.22,2.23,2.23
28.33,-3.19,-3.19,-5.41,-5.41,5.42,4.79,5.32,2.23,2.23,2.22
28.62,-3.06,-3.06,-5.28,-5.28,5.31,4.72,5.40,2.24,2.24,2.22
28.90,-2.94,-2.95,-5.16,-5.17,5.20,4.66,5.46,2.26,2.25,2.22
29.19,-2.85,-2.86,-5.06,-5.07,5.09,4.60,5.53,2.24,2.24,2.21
29.48,-2.78,-2.78,-5.00,-4.99,4.98,4.53,5.57,2.20,2.20,2.21
29.78,-2.70,-2.70,-4.91,-4.91,4.87,4.47,5.61,2.17,2.17,2.20
30.08,-2.62,-2.61,-4.82,-4.81,4.77,4.40,5.64,2.15,2.16,2.20
30.38,-2.49,-2.49,-4.68,-4.68,4.67,4.33,5.66,2.17,2.18,2.19
30.68,-2.36,-2.37,-4.55,-4.55,4.57,4.26,5.67,2.20,2.20,2.19
30.99,-2.23,-2.25,-4.41,-4.43,4.46,4.20,5.67,2.23,2.22,2.17
31.30,-2.16,-2.16,-4.34,-4.34,4.36,4.13,5.65,2.20,2.20,2.17
31.61,-2.09,-2.09,-4.26,-4.26,4.26,4.06,5.63,2.17,2.17,2.17
31.93,-2.03,-2.02,-4.19,-4.18,4.16,3.99,5.59,2.13,2.14,2.16
32.24,-1.93,-1.93,-4.08,-4.08,4.06,3.92,5.54,2.13,2.13,2.14
32.57,-1.83,-1.83,-3.98,-3.98,3.97,3.85,5.48,2.14,2.14,2.14
32.89,-1.73,-1.73,-3.87,-3.87,3.88,3.77,5.42,2.15,2.15,2.14
33.22,-1.64,-1.65,-3.77,-3.78,3.79,3.70,5.33,2.14,2.14,2.13
33.55,-1.56,-1.56,-3.69,-3.68,3.68,3.63,5.25,2.12,2.12,2.12
33.89,-1.48,-1.47,-3.59,-3.59,3.57,3.55,5.15,2.09,2.10,2.11
34.23,-1.37,-1.37,-3.48,-3.48,3.46,3.48,5.04,2.09,2.09,2.11
34.57,-1.26,-1.27,-3.36,-3.36,3.35,3.40,4.93,2.09,2.08,2.10
34.92,-1.15,-1.15,-3.24,-3.24,3.24,3.33,4.81,2.08,2.08,2.08
35.27,-1.04,-1.04,-3.12,-3.11,3.13,3.25,4.68,2.09,2.09,2.08
35.62,-0.93,-0.93,-3.00,-3.00,3.02,3.17,4.55,2.09,2.09,2.07
35.97,-0.82,-0.84,-2.87,-2.89,2.91,3.09,4.41,2.09,2.08,2.05
36.33,-0.76,-0.76,-2.81,-2.81,2.81,3.01,4.27,2.05,2.05,2.05
36.70,-0.70,-0.70,-2.74,-2.73,2.71,2.93,4.13,2.01,2.02,2.03
37.06,-0.63,-0.62,-2.65,-2.64,2.62,2.85,3.98,1.99,2.00,2.02
37.43,-0.52,-0.52,-2.54,-2.53,2.53,2.76,3.84,2.01,2.01,2.02
37.81,-0.41,-0.42,-2.41,-2.42,2.44,2.68,3.69,2.03,2.02,2.00
38.19,-0.33,-0.34,-2.32,-2.34,2.35,2.60,3.54,2.02,2.01,1.99
38.57,-0.28,-0.28,-2.26,-2.26,2.26,2.51,3.38,1.98,1.98,1.98
38.95,-0.23,-0.21,-2.20,-2.18,2.16,2.42,3.23,1.93,1.95,1.97
39.34,-0.13,-0.13,-2.08,-2.08,2.06,2.34,3.08,1.93,1.93,1.95
39.74,-0.02,-0.03,-1.96,-1.97,1.96,2.25,2.93,1.94,1.93,1.94
40.14,0.08,0.08,-1.86,-1.85,1.86,2.16,2.78,1.94,1.94,1.93
40.54,0.18,0.18,-1.74,-1.74,1.75,2.07,2.63,1.93,1.93,1.92
40.94,0.28,0.27,-1.63,-1.64,1.65,1.98,2.47,1.92,1.92,1.91
41.35,0.36,0.36,-1.54,-1.54,1.54,1.88,2.33,1.89,1.90,1.89
41.76,0.44,0.45,-1.45,-1.44,1.43,1.79,2.18,1.87,1.88,1.89
42.18,0.54,0.54,-1.34,-1.34,1.33,1.70,2.03,1.87,1.87,1.88
42.60,0.64,0.64,-1.23,-1.23,1.23,1.60,1.88,1.87,1.87,1.86
43.03,0.74,0.73,-1.12,-1.13,1.14,1.50,1.73,1.88,1.87,1.86
43.46,0.80,0.80,-1.04,-1.04,1.06,1.41,1.59,1.86,1.86,1.84
43.90,0.86,0.86,-0.96,-0.96,0.97,1.31,1.45,1.83,1.83,1.81
44.33,0.91,0.91,-0.89,-0.89,0.88,1.21,1.30,1.79,1.79,1.80
44.78,0.97,0.97,-0.81,-0.81,0.79,1.11,1.16,1.76,1.76,1.78
45.23,1.03,1.03,-0.73,-0.73,0.70,1.01,1.02,1.73,1.73,1.76
45.68,1.10,1.10,-0.64,-0.64,0.61,0.91,0.88,1.71,1.71,1.74
46.13,1.18,1.19,-0.54,-0.53,0.53,0.81,0.74,1.71,1.72,1.72
46.60,1.30,1.29,-0.42,-0.41,0.44,0.70,0.60,1.73,1.73,1.71
47.06,1.41,1.38,-0.28,-0.31,0.34,0.60,0.47,1.75,1.73,1.69
47.53,1.45,1.45,-0.22,-0.22,0.25,0.50,0.33,1.69,1.70,1.67
48.01,1.50,1.50,-0.16,-0.16,0.15,0.39,0.20,1.65,1.65,1.66
48.49,1.55,1.54,-0.08,-0.09,0.05,0.28,0.06,1.60,1.60,1.63
48.97,1.60,1.61,-0.00,0.01,-0.04,0.18,-0.07,1.56,1.58,1.60
49.46,1.69,1.69,0.12,0.12,-0.12,0.07,-0.20,1.56,1.57,1.57
49.96,1.79,1.77,0.25,0.23,-0.21,-0.03,-0.33,1.57,1.56,1.54
50.46,1.85,1.85,0.32,0.32,-0.30,-0.14,-0.46,1.54,1.54,1.53
50.96,1.90,1.90,0.40,0.41,-0.40,-0.25,-0.59,1.50,1.51,1.50
51.47,1.96,1.96,0.49,0.48,-0.49,-0.35,-0.71,1.47,1.47,1.47
51.99,2.02,2.02,0.57,0.57,-0.59,-0.46,-0.84,1.43,1.43,1.45
52.51,2.09,2.09,0.66,0.66,-0.68,-0.56,-0.96,1.41,1.41,1.43
53.03,2.16,2.16,0.75,0.75,-0.76,-0.67,-1.08,1.40,1.40,1.41
53.56,2.23,2.23,0.85,0.85,-0.84,-0.77,-1.20,1.39,1.39,1.38
54.10,2.30,2.30,0.94,0.94,-0.92,-0.88,-1.31,1.38,1.38,1.36
54.64,2.36,2.35,1.03,1.02,-0.99,-0.98,-1.43,1.36,1.36,1.33
55.18,2.40,2.38,1.09,1.08,-1.06,-1.08,-1.54,1.33,1.32,1.30
55.74,2.40,2.41,1.12,1.13,-1.13,-1.18,-1.65,1.26,1.28,1.28
56.29,2.43,2.44,1.17,1.18,-1.20,-1.28,-1.75,1.23,1.24,1.26
56.86,2.49,2.48,1.26,1.25,-1.27,-1.38,-1.85,1.22,1.21,1.23
57.42,2.54,2.54,1.33,1.33,-1.34,-1.48,-1.95,1.19,1.19,1.20
58.00,2.60,2.60,1.41,1.42,-1.42,-1.57,-2.05,1.18,1.18,1.18
58.58,2.66,2.66,1.49,1.50,-1.50,-1.66,-2.14,1.16,1.16,1.16
59.16,2.73,2.72,1.58,1.58,-1.58,-1.75,-2.22,1.15,1.15,1.14
59.76,2.79,2.79,1.66,1.67,-1.66,-1.84,-2.30,1.13,1.13,1.12
60.35,2.85,2.85,1.76,1.76,-1.74,-1.92,-2.38,1.11,1.11,1.09
60.96,2.91,2.89,1.84,1.82,-1.82,-2.01,-2.45,1.09,1.07,1.07
61.57,2.91,2.91,1.88,1.89,-1.89,-2.09,-2.52,1.01,1.02,1.03
62.18,2.93,2.94,1.94,1.95,-1.97,-2.16,-2.58,0.96,0.98,0.99
62.80,2.99,2.99,2.02,2.03,-2.04,-2.24,-2.64,0.95,0.95,0.97
63.43,3.05,3.04,2.12,2.11,-2.11,-2.31,-2.69,0.94,0.94,0.93
64.07,3.11,3.09,2.20,2.18,-2.17,-2.38,-2.74,0.94,0.92,0.91
64.71,3.11,3.13,2.23,2.25,-2.23,-2.45,-2.79,0.87,0.89,0.88
65.35,3.15,3.16,2.30,2.31,-2.30,-2.51,-2.83,0.85,0.86,0.85
66.01,3.21,3.18,2.38,2.36,-2.37,-2.57,-2.86,0.84,0.81,0.82
66.67,3.21,3.22,2.41,2.43,-2.43,-2.63,-2.90,0.78,0.79,0.79
67.33,3.24,3.25,2.47,2.49,-2.49,-2.68,-2.92,0.74,0.76,0.77
68.01,3.30,3.28,2.56,2.54,-2.55,-2.73,-2.95,0.74,0.72,0.73
68.69,3.31,3.32,2.60,2.62,-2.61,-2.78,-2.97,0.70,0.71,0.70
69.37,3.35,3.36,2.68,2.69,-2.67,-2.83,-2.99,0.68,0.69,0.67
70.07,3.41,3.39,2.77,2.74,-2.73,-2.88,-3.01,0.68,0.65,0.64
70.77,3.41,3.40,2.79,2.79,-2.79,-2.92,-3.03,0.62,0.61,0.61
71.48,3.41,3.42,2.83,2.84,-2.85,-2.96,-3.04,0.56,0.57,0.58
72.19,3.42,3.43,2.87,2.89,-2.90,-3.00,-3.06,0.52,0.53,0.55
72.91,3.47,3.46,2.96,2.95,-2.95,-3.03,-3.07,0.52,0.51,0.51
73.64,3.50,3.49,3.03,3.02,-3.00,-3.07,-3.09,0.49,0.49,0.47
74.38,3.51,3.50,3.06,3.06,-3.06,-3.10,-3.10,0.45,0.45,0.44
75.12,3.51,3.51,3.10,3.10,-3.11,-3.14,-3.11,0.40,0.40,0.41
75.87,3.51,3.53,3.13,3.15,-3.16,-3.17,-3.12,0.35,0.37,0.38
76.63,3.57,3.56,3.22,3.22,-3.22,-3.20,-3.14,0.35,0.34,0.35
77.40,3.61,3.59,3.29,3.28,-3.27,-3.23,-3.15,0.33,0.31,0.32
78.17,3.61,3.61,3.33,3.33,-3.33,-3.25,-3.17,0.28,0.28,0.27
78.95,3.61,3.63,3.36,3.38,-3.38,-3.28,-3.19,0.22,0.24,0.25
79.74,3.65,3.65,3.43,3.43,-3.44,-3.31,-3.21,0.21,0.21,0.22
80.54,3.69,3.68,3.50,3.50,-3.49,-3.34,-3.23,0.20,0.19,0.18
81.35,3.71,3.70,3.56,3.55,-3.54,-3.36,-3.25,0.17,0.16,0.15
82.16,3.71,3.71,3.59,3.59,-3.58,-3.39,-3.28,0.12,0.13,0.11
82.98,3.71,3.71,3.62,3.63,-3.63,-3.42,-3.31,0.08,0.08,0.09
83.81,3.71,3.71,3.67,3.66,-3.67,-3.45,-3.34,0.04,0.04,0.04
84.65,3.71,3.71,3.71,3.70,-3.71,-3.47,-3.37,0.00,0.00,0.00
85.50,3.71,3.71,3.73,3.74,-3.74,-3.50,-3.40,-0.03,-0.03,-0.03
86.35,3.71,3.71,3.77,3.77,-3.78,-3.53,-3.44,-0.07,-0.07,-0.07
87.22,3.71,3.71,3.81,3.81,-3.81,-3.56,-3.48,-0.11,-0.11,-0.11
88.09,3.71,3.71,3.85,3.85,-3.85,-3.59,-3.53,-0.15,-0.15,-0.15
88.97,3.71,3.71,3.88,3.89,-3.89,-3.62,-3.57,-0.19,-0.18,-0.18
89.86,3.72,3.71,3.94,3.94,-3.94,-3.65,-3.62,-0.22,-0.22,-0.22
90.76,3.72,3.72,3.99,3.98,-3.98,-3.68,-3.67,-0.26,-0.26,-0.27
91.66,3.72,3.72,4.02,4.03,-4.02,-3.72,-3.73,-0.31,-0.30,-0.30
92.58,3.72,3.72,4.07,4.07,-4.07,-3.75,-3.79,-0.35,-0.35,-0.36
93.51,3.72,3.72,4.11,4.11,-4.11,-3.78,-3.84,-0.40,-0.40,-0.39
94.44,3.72,3.72,4.15,4.15,-4.16,-3.82,-3.91,-0.44,-0.44,-0.43
95.39,3.72,3.72,4.20,4.20,-4.21,-3.85,-3.97,-0.49,-0.49,-0.48
96.34,3.71,3.71,4.24,4.24,-4.25,-3.89,-4.04,-0.54,-0.53,-0.53
97.30,3.71,3.71,4.29,4.28,-4.28,-3.93,-4.11,-0.57,-0.58,-0.58
98.28,3.70,3.70,4.32,4.32,-4.31,-3.96,-4.18,-0.61,-0.61,-0.62
99.26,3.68,3.68,4.35,4.35,-4.33,-4.00,-4.26,-0.65,-0.65,-0.67
100.25,3.66,3.65,4.37,4.36,-4.34,-4.04,-4.33,-0.69,-0.70,-0.72
101.25,3.61,3.60,4.37,4.36,-4.35,-4.08,-4.41,-0.74,-0.75,-0.76
102.27,3.53,3.54,4.34,4.35,-4.35,-4.12,-4.49,-0.82,-0.81,-0.81
103.29,3.49,3.48,4.35,4.34,-4.35,-4.16,-4.57,-0.86,-0.87,-0.86
104.32,3.44,3.43,4.34,4.33,-4.35,-4.20,-4.65,-0.91,-0.92,-0.90
105.37,3.38,3.39,4.32,4.34,-4.35,-4.25,-4.73,-0.97,-0.96,-0.95
106.42,3.36,3.35,4.35,4.35,-4.36,-4.29,-4.81,-1.00,-1.00,-0.99
107.48,3.33,3.33,4.37,4.37,-4.37,-4.33,-4.89,-1.04,-1.04,-1.04
108.56,3.31,3.31,4.40,4.40,-4.39,-4.37,-4.97,-1.08,-1.08,-1.10
109.64,3.29,3.29,4.43,4.42,-4.42,-4.42,-5.04,-1.13,-1.13,-1.14
110.74,3.27,3.27,4.45,4.46,-4.45,-4.46,-5.12,-1.18,-1.19,-1.19
111.85,3.25,3.25,4.48,4.49,-4.49,-4.50,-5.19,-1.24,-1.24,-1.23
112.97,3.24,3.24,4.54,4.53,-4.53,-4.55,-5.26,-1.30,-1.30,-1.30
114.10,3.23,3.23,4.57,4.57,-4.58,-4.59,-5.33,-1.35,-1.35,-1.34
115.24,3.23,3.23,4.63,4.63,-4.63,-4.63,-5.39,-1.41,-1.41,-1.40
116.39,3.23,3.23,4.68,4.68,-4.69,-4.68,-5.45,-1.46,-1.46,-1.45
117.55,3.24,3.23,4.74,4.74,-4.74,-4.72,-5.50,-1.51,-1.51,-1.51
118.73,3.24,3.24,4.80,4.80,-4.80,-4.77,-5.55,-1.56,-1.56,-1.56
119.92,3.25,3.25,4.85,4.86,-4.85,-4.81,-5.59,-1.60,-1.60,-1.60
121.12,3.26,3.25,4.91,4.91,-4.90,-4.85,-5.63,-1.64,-1.65,-1.66
122.33,3.25,3.24,4.96,4.94,-4.93,-4.89,-5.66,-1.69,-1.70,-1.71
123.55,3.21,3.22,4.96,4.97,-4.96,-4.93,-5.69,-1.76,-1.74,-1.75
124.79,3.18,3.20,4.98,5.00,-4.98,-4.98,-5.70,-1.81,-1.79,-1.80
126.03,3.19,3.16,5.04,5.02,-5.00,-5.02,-5.71,-1.81,-1.84,-1.85
127.29,3.13,3.12,5.03,5.02,-5.02,-5.06,-5.72,-1.89,-1.90,-1.90
128.57,3.06,3.07,5.02,5.02,-5.04,-5.10,-5.72,-1.98,-1.97,-1.96
129.85,3.00,3.02,5.01,5.03,-5.06,-5.14,-5.71,-2.06,-2.04,-2.01
131.15,3.01,3.00,5.07,5.06,-5.09,-5.17,-5.69,-2.08,-2.08,-2.06
132.46,3.01,3.00,5.11,5.11,-5.12,-5.21,-5.67,-2.11,-2.12,-2.11
133.79,3.02,3.01,5.16,5.16,-5.16,-5.25,-5.65,-2.15,-2.15,-2.14
135.12,3.02,3.02,5.22,5.21,-5.21,-5.28,-5.61,-2.19,-2.19,-2.20
136.48,3.02,3.02,5.25,5.26,-5.25,-5.32,-5.58,-2.24,-2.23,-2.23
137.84,3.03,3.03,5.31,5.31,-5.29,-5.35,-5.54,-2.27,-2.27,-2.28
139.22,3.03,3.03,5.36,5.36,-5.33,-5.39,-5.50,-2.30,-2.30,-2.33
140.61,3.03,3.02,5.40,5.39,-5.36,-5.42,-5.45,-2.33,-2.34,-2.37
142.02,3.00,2.99,5.39,5.39,-5.39,-5.45,-5.41,-2.39,-2.40,-2.40
143.44,2.95,2.96,5.39,5.40,-5.42,-5.48,-5.36,-2.47,-2.46,-2.44
144.87,2.93,2.93,5.41,5.41,-5.44,-5.51,-5.31,-2.52,-2.51,-2.48
146.32,2.93,2.92,5.45,5.44,-5.46,-5.54,-5.26,-2.54,-2.54,-2.52
147.78,2.93,2.93,5.47,5.48,-5.48,-5.57,-5.20,-2.55,-2.55,-2.55
149.26,2.93,2.93,5.51,5.52,-5.49,-5.59,-5.15,-2.56,-2.56,-2.58
150.75,2.93,2.91,5.56,5.54,-5.50,-5.62,-5.10,-2.57,-2.59,-2.63
152.26,2.87,2.87,5.54,5.54,-5.51,-5.64,-5.05,-2.64,-2.64,-2.67
153.78,2.82,2.82,5.52,5.52,-5.53,-5.66,-5.00,-2.71,-2.71,-2.70
155.32,2.76,2.76,5.51,5.51,-5.55,-5.68,-4.96,-2.79,-2.78,-2.75
156.88,2.73,2.74,5.51,5.52,-5.57,-5.70,-4.91,-2.84,-2.83,-2.78
158.44,2.73,2.72,5.55,5.55,-5.59,-5.72,-4.87,-2.86,-2.86,-2.82
160.03,2.73,2.73,5.59,5.59,-5.60,-5.74,-4.83,-2.87,-2.87,-2.87
161.63,2.73,2.73,5.64,5.64,-5.61,-5.75,-4.79,-2.88,-2.88,-2.91
163.24,2.73,2.73,5.68,5.67,-5.62,-5.77,-4.75,-2.89,-2.89,-2.95
164.88,2.70,2.69,5.68,5.67,-5.62,-5.78,-4.72,-2.92,-2.93,-2.98
166.53,2.64,2.62,5.66,5.64,-5.61,-5.79,-4.69,-2.97,-3.00,-3.02
168.19,2.52,2.52,5.57,5.58,-5.60,-5.80,-4.67,-3.08,-3.07,-3.06
169.87,2.42,2.45,5.51,5.54,-5.58,-5.82,-4.64,-3.16,-3.13,-3.09
171.57,2.40,2.40,5.53,5.53,-5.56,-5.82,-4.63,-3.17,-3.16,-3.13
173.29,2.39,2.37,5.55,5.53,-5.55,-5.83,-4.61,-3.16,-3.18,-3.17
175.02,2.35,2.34,5.55,5.54,-5.55,-5.84,-4.60,-3.20,-3.21,-3.20
176.77,2.29,2.31,5.54,5.55,-5.55,-5.84,-4.59,-3.26,-3.24,-3.25
178.54,2.28,2.29,5.57,5.57,-5.57,-5.84,-4.58,-3.29,-3.28,-3.29
180.32,2.29,2.28,5.61,5.60,-5.59,-5.85,-4.58,-3.30,-3.31,-3.32
182.13,2.28,2.26,5.64,5.62,-5.61,-5.85,-4.58,-3.34,-3.35,-3.36
183.95,2.24,2.24,5.64,5.64,-5.64,-5.85,-4.59,-3.41,-3.40,-3.40
185.79,2.21,2.22,5.64,5.66,-5.68,-5.85,-4.60,-3.47,-3.45,-3.43
187.65,2.23,2.22,5.70,5.69,-5.72,-5.85,-4.61,-3.49,-3.50,-3.47
189.52,2.24,2.23,5.74,5.73,-5.75,-5.84,-4.63,-3.51,-3.52,-3.50
191.42,2.25,2.25,5.78,5.79,-5.78,-5.84,-4.64,-3.53,-3.52,-3.53
193.33,2.27,2.27,5.83,5.83,-5.80,-5.83,-4.67,-3.53,-3.52,-3.56
195.27,2.28,2.27,5.87,5.86,-5.82,-5.82,-4.69,-3.54,-3.55,-3.59
197.22,2.27,2.24,5.88,5.86,-5.83,-5.81,-4.72,-3.57,-3.60,-3.62
199.19,2.17,2.19,5.82,5.83,-5.84,-5.81,-4.75,-3.68,-3.66,-3.65
201.18,2.12,2.14,5.79,5.81,-5.85,-5.79,-4.78,-3.73,-3.71,-3.67
203.19,2.12,2.11,5.80,5.80,-5.84,-5.78,-4.81,-3.72,-3.73,-3.69
205.23,2.12,2.12,5.83,5.82,-5.82,-5.77,-4.85,-3.71,-3.71,-3.71
207.28,2.12,2.11,5.83,5.84,-5.81,-5.76,-4.88,-3.69,-3.69,-3.72
209.35,2.10,2.09,5.84,5.83,-5.79,-5.74,-4.92,-3.69,-3.70,-3.74
211.44,2.04,2.03,5.80,5.79,-5.78,-5.73,-4.96,-3.74,-3.74,-3.76
213.56,1.97,1.98,5.74,5.74,-5.76,-5.71,-5.00,-3.79,-3.79,-3.77
215.69,1.92,1.93,5.69,5.70,-5.74,-5.69,-5.04,-3.82,-3.81,-3.77
217.85,1.91,1.91,5.69,5.70,-5.72,-5.67,-5.08,-3.81,-3.81,-3.78
220.03,1.90,1.90,5.69,5.69,-5.69,-5.65,-5.12,-3.79,-3.79,-3.80
222.23,1.90,1.87,5.71,5.68,-5.66,-5.63,-5.15,-3.76,-3.79,-3.81
224.45,1.83,1.85,5.63,5.65,-5.63,-5.61,-5.19,-3.80,-3.78,-3.80
226.70,1.80,1.81,5.60,5.61,-5.60,-5.59,-5.22,-3.80,-3.79,-3.80
228.96,1.80,1.77,5.60,5.57,-5.57,-5.56,-5.25,-3.77,-3.80,-3.80
231.25,1.73,1.73,5.52,5.53,-5.54,-5.54,-5.28,-3.81,-3.81,-3.79
233.57,1.69,1.69,5.48,5.48,-5.50,-5.51,-5.30,-3.81,-3.81,-3.79
235.90,1.63,1.65,5.42,5.44,-5.46,-5.49,-5.32,-3.83,-3.81,-3.79
238.26,1.65,1.64,5.44,5.43,-5.42,-5.46,-5.34,-3.78,-3.79,-3.79
240.64,1.63,1.61,5.41,5.39,-5.39,-5.43,-5.34,-3.76,-3.78,-3.78
243.05,1.59,1.59,5.36,5.36,-5.35,-5.40,-5.35,-3.76,-3.77,-3.77
245.48,1.53,1.55,5.29,5.31,-5.31,-5.37,-5.35,-3.78,-3.76,-3.76
247.93,1.53,1.52,5.27,5.27,-5.27,-5.34,-5.35,-3.74,-3.74,-3.75
250.41,1.51,1.49,5.25,5.23,-5.22,-5.31,-5.34,-3.71,-3.73,-3.74
252.92,1.46,1.46,5.18,5.19,-5.17,-5.27,-5.32,-3.72,-3.71,-3.72
255.45,1.41,1.41,5.11,5.11,-5.12,-5.24,-5.30,-3.71,-3.71,-3.70
258.00,1.37,1.35,5.05,5.04,-5.05,-5.20,-5.27,-3.69,-3.70,-3.69
260.58,1.29,1.32,4.96,4.99,-4.98,-5.17,-5.24,-3.70,-3.67,-3.67
263.19,1.28,1.29,4.93,4.94,-4.92,-5.13,-5.21,-3.64,-3.63,-3.65
265.82,1.28,1.25,4.91,4.88,-4.85,-5.09,-5.17,-3.57,-3.61,-3.64
268.48,1.20,1.18,4.81,4.79,-4.79,-5.05,-5.12,-3.59,-3.61,-3.61
271.16,1.09,1.10,4.68,4.69,-4.73,-5.01,-5.07,-3.64,-3.63,-3.59
273.87,1.01,1.06,4.58,4.63,-4.67,-4.96,-5.02,-3.67,-3.62,-3.57
276.61,1.08,1.06,4.63,4.61,-4.62,-4.92,-4.96,-3.54,-3.56,-3.55
279.38,1.09,1.07,4.62,4.61,-4.58,-4.87,-4.90,-3.49,-3.50,-3.53
282.17,1.08,1.06,4.60,4.57,-4.54,-4.82,-4.84,-3.46,-3.48,-3.52
284.99,1.00,0.99,4.49,4.49,-4.51,-4.77,-4.78,-3.51,-3.51,-3.49
287.84,0.93,0.96,4.41,4.44,-4.48,-4.72,-4.72,-3.55,-3.52,-3.48
290.72,0.94,0.98,4.39,4.43,-4.45,-4.66,-4.65,-3.51,-3.47,-3.45
293.63,1.04,0.98,4.48,4.41,-4.41,-4.60,-4.58,-3.37,-3.43,-3.44
296.57,1.02,0.97,4.43,4.39,-4.36,-4.54,-4.52,-3.34,-3.39,-3.41
299.53,0.85,0.93,4.24,4.33,-4.29,-4.47,-4.45,-3.45,-3.36,-3.40
302.53,0.88,0.87,4.26,4.24,-4.23,-4.40,-4.39,-3.35,-3.36,-3.38
305.55,0.84,0.79,4.18,4.14,-4.15,-4.32,-4.32,-3.31,-3.35,-3.34
308.61,0.72,0.73,4.05,4.06,-4.05,-4.24,-4.26,-3.33,-3.32,-3.33
311.69,0.61,0.64,3.91,3.93,-3.94,-4.16,-4.19,-3.33,-3.30,-3.30
314.81,0.56,0.54,3.82,3.82,-3.82,-4.06,-4.13,-3.27,-3.28,-3.26
317.96,0.48,0.47,3.73,3.72,-3.72,-3.96,-4.07,-3.24,-3.24,-3.25
321.14,0.37,0.37,3.60,3.60,-3.61,-3.85,-4.02,-3.24,-3.24,-3.23
324.35,0.28,0.24,3.49,3.45,-3.51,-3.72,-3.96,-3.23,-3.26,-3.21
327.59,0.11,0.16,3.29,3.35,-3.39,-3.59,-3.91,-3.28,-3.23,-3.19
330.87,0.08,0.11,3.25,3.29,-3.27,-3.44,-3.86,-3.19,-3.16,-3.17
334.18,0.12,0.05,3.27,3.20,-3.14,-3.28,-3.81,-3.02,-3.09,-3.15
337.52,-0.02,-0.06,3.11,3.07,-3.00,-3.10,-3.76,-3.03,-3.06,-3.13
340.90,-0.24,-0.21,2.87,2.90,-2.86,-2.91,-3.72,-3.11,-3.07,-3.11
344.30,-0.43,-0.38,2.66,2.71,-2.73,-2.70,-3.68,-3.16,-3.11,-3.09
347.75,-0.49,-0.54,2.58,2.53,-2.59,-2.49,-3.64,-3.08,-3.13,-3.07
351.23,-0.65,-0.67,2.40,2.39,-2.45,-2.28,-3.61,-3.11,-3.12,-3.05
354.74,-0.82,-0.77,2.21,2.27,-2.30,-2.08,-3.57,-3.13,-3.07,-3.04
358.28,-0.86,-0.87,2.16,2.15,-2.14,-1.90,-3.55,-3.01,-3.01,-3.02
361.87,-0.92,-0.94,2.08,2.06,-1.97,-1.76,-3.52,-2.89,-2.91,-3.00
365.49,-1.04,-1.04,1.95,1.95,-1.80,-1.67,-3.49,-2.84,-2.85,-2.99
369.14,-1.18,-1.20,1.80,1.78,-1.65,-1.64,-3.47,-2.84,-2.85,-2.98
372.83,-1.40,-1.41,1.56,1.56,-1.55,-1.67,-3.45,-2.96,-2.96,-2.97
376.56,-1.57,-1.60,1.39,1.35,-1.50,-1.74,-3.44,-3.07,-3.10,-2.96
380.33,-1.76,-1.69,1.17,1.25,-1.49,-1.86,-3.42,-3.25,-3.18,-2.93
384.13,-1.65,-1.65,1.27,1.27,-1.50,-1.99,-3.41,-3.15,-3.15,-2.92
387.97,-1.43,-1.43,1.48,1.48,-1.52,-2.14,-3.40,-2.95,-2.95,-2.91
391.85,-1.17,-1.10,1.73,1.80,-1.58,-2.28,-3.40,-2.75,-2.68,-2.90
395.77,-0.75,-0.86,2.13,2.03,-1.69,-2.41,-3.39,-2.45,-2.56,-2.89
399.73,-0.70,-0.81,2.18,2.07,-1.88,-2.53,-3.39,-2.59,-2.69,-2.88
403.72,-0.83,-0.81,2.04,2.06,-2.14,-2.64,-3.39,-2.97,-2.95,-2.87
407.76,-0.95,-0.78,1.91,2.07,-2.44,-2.73,-3.39,-3.39,-3.22,-2.86
411.84,-0.46,-0.51,2.38,2.33,-2.75,-2.80,-3.39,-3.21,-3.26,-2.84
415.96,-0.03,0.03,2.80,2.86,-3.05,-2.87,-3.39,-3.08,-3.02,-2.83
420.12,0.66,0.66,3.48,3.48,-3.34,-2.92,-3.40,-2.68,-2.68,-2.82
424.32,1.25,1.12,4.06,3.93,-3.62,-2.96,-3.40,-2.37,-2.50,-2.81
428.56,1.42,1.41,4.22,4.21,-3.87,-3.00,-3.41,-2.45,-2.46,-2.81
432.85,1.43,1.47,4.22,4.27,-4.06,-3.02,-3.41,-2.63,-2.59,-2.80
437.18,1.40,1.40,4.19,4.19,-4.18,-3.04,-3.42,-2.78,-2.77,-2.79
441.55,1.35,1.33,4.12,4.11,-4.20,-3.06,-3.42,-2.86,-2.87,-2.77
445.96,1.25,1.28,4.01,4.04,-4.16,-3.06,-3.43,-2.91,-2.88,-2.76
450.42,1.23,1.23,3.98,3.98,-4.08,-3.07,-3.43,-2.85,-2.85,-2.75
454.93,1.23,1.20,3.96,3.94,-4.01,-3.07,-3.44,-2.78,-2.80,-2.73
459.48,1.20,1.21,3.92,3.93,-3.95,-3.07,-3.44,-2.75,-2.73,-2.72
464.07,1.20,1.22,3.90,3.93,-3.91,-3.06,-3.44,-2.71,-2.69,-2.70
468.71,1.26,1.23,3.94,3.92,-3.89,-3.05,-3.44,-2.63,-2.66,-2.68
473.40,1.24,1.23,3.91,3.90,-3.87,-3.04,-3.44,-2.64,-2.65,-2.67
478.13,1.19,1.19,3.84,3.85,-3.86,-3.03,-3.43,-2.67,-2.66,-2.66
482.91,1.16,1.16,3.80,3.80,-3.83,-3.02,-3.42,-2.67,-2.67,-2.65
487.74,1.12,1.17,3.74,3.79,-3.80,-3.01,-3.41,-2.68,-2.63,-2.63
492.62,1.20,1.16,3.81,3.77,-3.76,-2.99,-3.40,-2.56,-2.60,-2.61
