frequency,raw,error,smoothed,error_smoothed,equalization,parametric_eq,equalized_raw,equalized_smoothed,target
20,-6.12,-8.74,-6.12,-8.74,6.00,2.53,-0.12,-0.12,2.62
21,-5.88,-8.50,-5.86,-8.48,6.00,2.91,0.12,0.14,2.62
22,-5.62,-8.24,-5.61,-8.23,6.00,3.33,0.38,0.39,2.62
23,-5.37,-7.99,-5.38,-8.00,6.00,3.79,0.63,0.62,2.62
24,-5.15,-7.76,-5.16,-7.77,6.00,4.26,0.85,0.84,2.62
25,-4.94,-7.55,-4.95,-7.56,6.00,4.76,1.06,1.05,2.61
26,-4.73,-7.34,-4.75,-7.36,6.00,5.25,1.27,1.25,2.61
27,-4.55,-7.15,-4.56,-7.17,6.00,5.72,1.45,1.44,2.61
28,-4.38,-6.98,-4.38,-6.99,6.00,6.14,1.62,1.62,2.60
29,-4.21,-6.80,-4.22,-6.82,6.00,6.49,1.79,1.78,2.60
30,-4.07,-6.66,-4.06,-6.66,6.00,6.75,1.93,1.94,2.59
31,-3.92,-6.50,-3.92,-6.51,6.00,6.90,2.08,2.08,2.59
32,-3.78,-6.36,-3.78,-6.36,6.00,6.95,2.22,2.22,2.58
33,-3.66,-6.23,-3.65,-6.23,5.98,6.90,2.32,2.33,2.58
34,-3.55,-6.12,-3.53,-6.10,5.94,6.78,2.40,2.41,2.57
35,-3.44,-6.00,-3.42,-5.98,5.89,6.62,2.45,2.47,2.56
36,-3.33,-5.88,-3.31,-5.86,5.82,6.43,2.49,2.51,2.55
37,-3.24,-5.78,-3.20,-5.75,5.73,6.23,2.50,2.53,2.54
38,-3.13,-5.66,-3.10,-5.64,5.64,6.03,2.51,2.53,2.53
39,-3.04,-5.56,-3.01,-5.54,5.54,5.85,2.50,2.52,2.52
40,-2.97,-5.48,-2.93,-5.45,5.45,5.68,2.48,2.51,2.51
41,-2.88,-5.38,-2.86,-5.36,5.36,5.54,2.48,2.50,2.50
42,-2.81,-5.30,-2.80,-5.29,5.29,5.42,2.48,2.49,2.49
43,-2.76,-5.23,-2.75,-5.23,5.23,5.32,2.48,2.48,2.48
44,-2.71,-5.17,-2.73,-5.19,5.19,5.25,2.48,2.46,2.46
45,-2.68,-5.13,-2.72,-5.17,5.17,5.20,2.49,2.45,2.45
46,-2.65,-5.08,-2.73,-5.16,5.16,5.16,2.51,2.43,2.43
47,-2.68,-5.09,-2.76,-5.18,5.18,5.15,2.50,2.42,2.42
48,-2.72,-5.12,-2.81,-5.21,5.21,5.15,2.49,2.40,2.40
49,-2.78,-5.16,-2.88,-5.26,5.26,5.17,2.48,2.38,2.38
50,-2.87,-5.23,-2.96,-5.32,5.32,5.20,2.45,2.36,2.36
51,-3.02,-5.36,-3.05,-5.39,5.39,5.23,2.38,2.34,2.34
52,-3.15,-5.47,-3.15,-5.47,5.47,5.28,2.33,2.32,2.32
53,-3.28,-5.58,-3.25,-5.55,5.55,5.32,2.27,2.30,2.30
54,-3.41,-5.69,-3.35,-5.62,5.62,5.37,2.22,2.28,2.28
55,-3.51,-5.76,-3.43,-5.68,5.68,5.41,2.18,2.25,2.26
56,-3.59,-5.82,-3.50,-5.73,5.73,5.45,2.14,2.23,2.23
57,-3.63,-5.83,-3.55,-5.75,5.75,5.48,2.13,2.21,2.21
58,-3.63,-5.81,-3.58,-5.75,5.75,5.51,2.13,2.18,2.18
59,-3.63,-5.78,-3.58,-5.73,5.73,5.51,2.10,2.15,2.15
60,-3.62,-5.74,-3.55,-5.68,5.68,5.51,2.06,2.12,2.12
61,-3.58,-5.67,-3.51,-5.60,5.60,5.49,2.03,2.09,2.10
62,-3.50,-5.56,-3.44,-5.50,5.50,5.45,2.01,2.07,2.07
63,-3.41,-5.44,-3.35,-5.38,5.38,5.40,1.98,2.03,2.03
64,-3.28,-5.28,-3.25,-5.25,5.25,5.34,1.97,2.00,2.00
65,-3.14,-5.11,-3.13,-5.10,5.10,5.26,1.97,1.97,1.97
66,-3.01,-4.94,-3.01,-4.95,4.95,5.17,1.94,1.94,1.94
67,-2.85,-4.75,-2.89,-4.80,4.80,5.07,1.95,1.90,1.90
68,-2.72,-4.59,-2.78,-4.65,4.65,4.96,1.93,1.87,1.87
69,-2.59,-4.42,-2.67,-4.50,4.50,4.84,1.92,1.83,1.83
70,-2.49,-4.29,-2.57,-4.37,4.37,4.72,1.88,1.80,1.80
71,-2.40,-4.16,-2.48,-4.25,4.25,4.60,1.85,1.76,1.76
72,-2.33,-4.05,-2.41,-4.13,4.13,4.47,1.81,1.72,1.72
73,-2.29,-3.97,-2.35,-4.03,4.03,4.34,1.75,1.69,1.69
74,-2.29,-3.94,-2.30,-3.94,3.94,4.21,1.66,1.65,1.65
75,-2.27,-3.88,-2.25,-3.86,3.86,4.08,1.60,1.61,1.61
76,-2.24,-3.81,-2.22,-3.79,3.79,3.95,1.55,1.57,1.57
77,-2.24,-3.77,-2.18,-3.71,3.71,3.82,1.48,1.53,1.53
78,-2.21,-3.70,-2.15,-3.64,3.64,3.70,1.44,1.49,1.49
79,-2.19,-3.64,-2.12,-3.57,3.57,3.58,1.38,1.45,1.45
80,-2.13,-3.54,-2.09,-3.50,3.50,3.46,1.37,1.41,1.41
81,-2.08,-3.45,-2.05,-3.42,3.42,3.35,1.34,1.37,1.37
82,-2.02,-3.34,-2.01,-3.34,3.34,3.24,1.32,1.33,1.33
83,-1.98,-3.26,-1.97,-3.26,3.26,3.13,1.28,1.29,1.29
84,-1.92,-3.16,-1.93,-3.17,3.17,3.03,1.26,1.24,1.24
85,-1.88,-3.08,-1.89,-3.09,3.09,2.94,1.21,1.20,1.20
86,-1.83,-2.99,-1.84,-3.01,3.01,2.84,1.18,1.16,1.16
87,-1.79,-2.91,-1.80,-2.92,2.92,2.75,1.14,1.12,1.12
88,-1.76,-2.83,-1.77,-2.84,2.84,2.66,1.09,1.08,1.08
89,-1.72,-2.75,-1.73,-2.77,2.77,2.58,1.05,1.04,1.04
90,-1.68,-2.67,-1.70,-2.69,2.69,2.50,1.02,1.00,1.00
91,-1.67,-2.62,-1.67,-2.62,2.62,2.42,0.96,0.96,0.95
92,-1.64,-2.55,-1.64,-2.56,2.56,2.35,0.92,0.91,0.91
93,-1.63,-2.50,-1.62,-2.50,2.50,2.28,0.87,0.87,0.87
94,-1.59,-2.42,-1.60,-2.44,2.44,2.21,0.85,0.83,0.83
95,-1.59,-2.38,-1.59,-2.38,2.38,2.15,0.79,0.79,0.79
96,-1.59,-2.34,-1.57,-2.32,2.32,2.09,0.73,0.75,0.75
97,-1.55,-2.26,-1.55,-2.26,2.26,2.03,0.72,0.71,0.71
98,-1.55,-2.22,-1.54,-2.21,2.21,1.97,0.66,0.67,0.67
99,-1.55,-2.18,-1.52,-2.15,2.15,1.91,0.60,0.63,0.63
100,-1.51,-2.10,-1.51,-2.09,2.09,1.86,0.58,0.59,0.59
101,-1.51,-2.06,-1.49,-2.03,2.03,1.81,0.52,0.54,0.56
102,-1.49,-2.00,-1.47,-1.97,1.97,1.76,0.48,0.50,0.52
104,-1.46,-1.90,-1.45,-1.91,1.91,1.67,0.46,0.46,0.44
105,-1.42,-1.82,-1.43,-1.85,1.85,1.63,0.44,0.42,0.41
106,-1.42,-1.79,-1.42,-1.80,1.80,1.58,0.38,0.38,0.37
107,-1.38,-1.71,-1.40,-1.74,1.74,1.54,0.37,0.34,0.34
108,-1.38,-1.68,-1.38,-1.69,1.69,1.51,0.31,0.31,0.30
109,-1.38,-1.64,-1.37,-1.64,1.64,1.47,0.26,0.27,0.27
110,-1.33,-1.56,-1.36,-1.59,1.59,1.43,0.26,0.23,0.23
111,-1.33,-1.53,-1.34,-1.54,1.54,1.40,0.21,0.20,0.20
112,-1.33,-1.49,-1.33,-1.49,1.49,1.36,0.17,0.16,0.17
113,-1.33,-1.46,-1.32,-1.45,1.45,1.33,0.12,0.13,0.13
114,-1.33,-1.43,-1.31,-1.41,1.41,1.30,0.08,0.09,0.10
115,-1.33,-1.40,-1.30,-1.36,1.36,1.27,0.03,0.06,0.07
117,-1.29,-1.30,-1.29,-1.32,1.32,1.21,0.03,0.02,0.01
118,-1.29,-1.27,-1.28,-1.27,1.27,1.18,-0.01,-0.01,-0.02
119,-1.29,-1.24,-1.27,-1.23,1.23,1.15,-0.06,-0.05,-0.05
120,-1.27,-1.19,-1.26,-1.18,1.18,1.13,-0.08,-0.08,-0.08
121,-1.25,-1.14,-1.25,-1.14,1.14,1.10,-0.11,-0.11,-0.10
123,-1.25,-1.09,-1.24,-1.09,1.09,1.05,-0.16,-0.15,-0.16
124,-1.22,-1.03,-1.22,-1.05,1.05,1.03,-0.17,-0.18,-0.18
125,-1.20,-0.99,-1.21,-1.00,1.00,1.00,-0.20,-0.21,-0.21
126,-1.20,-0.96,-1.20,-0.96,0.96,0.98,-0.24,-0.24,-0.23
128,-1.20,-0.91,-1.18,-0.91,0.91,0.93,-0.28,-0.27,-0.28
129,-1.16,-0.85,-1.17,-0.87,0.87,0.91,-0.29,-0.30,-0.31
130,-1.16,-0.83,-1.16,-0.83,0.83,0.89,-0.33,-0.33,-0.33
131,-1.16,-0.81,-1.15,-0.79,0.79,0.87,-0.37,-0.36,-0.35
133,-1.16,-0.76,-1.14,-0.75,0.75,0.83,-0.40,-0.39,-0.40
134,-1.14,-0.72,-1.14,-0.72,0.72,0.81,-0.42,-0.42,-0.42
135,-1.12,-0.68,-1.13,-0.68,0.68,0.79,-0.43,-0.44,-0.44
137,-1.12,-0.64,-1.12,-0.65,0.65,0.75,-0.46,-0.47,-0.48
138,-1.12,-0.62,-1.12,-0.62,0.62,0.74,-0.49,-0.50,-0.50
140,-1.12,-0.58,-1.12,-0.60,0.60,0.70,-0.52,-0.52,-0.53
141,-1.12,-0.57,-1.12,-0.57,0.57,0.68,-0.55,-0.55,-0.55
142,-1.12,-0.55,-1.12,-0.55,0.55,0.67,-0.57,-0.57,-0.57
144,-1.12,-0.51,-1.12,-0.52,0.52,0.63,-0.60,-0.60,-0.60
145,-1.12,-0.50,-1.12,-0.50,0.50,0.62,-0.62,-0.62,-0.62
147,-1.12,-0.47,-1.12,-0.48,0.48,0.58,-0.64,-0.65,-0.65
148,-1.12,-0.45,-1.12,-0.46,0.46,0.57,-0.66,-0.67,-0.67
150,-1.12,-0.42,-1.12,-0.43,0.43,0.54,-0.68,-0.69,-0.69
151,-1.14,-0.43,-1.12,-0.41,0.41,0.52,-0.73,-0.71,-0.71
153,-1.14,-0.40,-1.12,-0.38,0.38,0.49,-0.75,-0.73,-0.74
154,-1.14,-0.39,-1.11,-0.36,0.36,0.48,-0.78,-0.75,-0.75
156,-1.12,-0.34,-1.10,-0.33,0.33,0.45,-0.79,-0.77,-0.78
157,-1.12,-0.33,-1.09,-0.30,0.30,0.44,-0.82,-0.79,-0.79
159,-1.08,-0.27,-1.08,-0.27,0.27,0.41,-0.81,-0.81,-0.81
160,-1.07,-0.24,-1.07,-0.24,0.24,0.39,-0.83,-0.83,-0.82
162,-1.05,-0.20,-1.05,-0.21,0.21,0.37,-0.84,-0.84,-0.84
164,-1.03,-0.16,-1.04,-0.18,0.18,0.34,-0.85,-0.86,-0.87
165,-1.03,-0.15,-1.03,-0.15,0.15,0.33,-0.88,-0.88,-0.88
167,-0.99,-0.09,-1.02,-0.12,0.12,0.30,-0.86,-0.89,-0.90
169,-0.99,-0.07,-1.01,-0.10,0.10,0.28,-0.89,-0.91,-0.91
170,-0.99,-0.06,-1.00,-0.07,0.07,0.27,-0.91,-0.93,-0.92
172,-0.99,-0.05,-0.99,-0.05,0.05,0.24,-0.93,-0.94,-0.94
174,-0.99,-0.03,-0.99,-0.03,0.03,0.22,-0.95,-0.95,-0.96
175,-0.99,-0.02,-0.99,-0.02,0.02,0.20,-0.97,-0.97,-0.96
177,-0.99,-0.01,-0.98,-0.00,0.00,0.18,-0.99,-0.98,-0.98
179,-0.99,0.01,-0.98,0.01,-0.01,0.16,-1.00,-1.00,-1.00
181,-0.99,0.02,-0.98,0.03,-0.03,0.13,-1.02,-1.01,-1.01
183,-0.99,0.04,-0.98,0.05,-0.05,0.11,-1.03,-1.02,-1.02
184,-0.99,0.04,-0.97,0.06,-0.06,0.10,-1.05,-1.03,-1.03
186,-0.99,0.06,-0.97,0.08,-0.08,0.08,-1.06,-1.05,-1.04
188,-0.97,0.09,-0.96,0.09,-0.09,0.05,-1.06,-1.06,-1.06
190,-0.96,0.11,-0.96,0.11,-0.11,0.03,-1.07,-1.07,-1.07
192,-0.94,0.14,-0.96,0.12,-0.12,0.01,-1.06,-1.08,-1.08
194,-0.94,0.15,-0.95,0.14,-0.14,-0.01,-1.08,-1.09,-1.09
196,-0.94,0.16,-0.95,0.16,-0.16,-0.03,-1.09,-1.10,-1.10
198,-0.94,0.18,-0.94,0.17,-0.17,-0.05,-1.11,-1.11,-1.11
200,-0.94,0.18,-0.94,0.18,-0.18,-0.07,-1.12,-1.12,-1.12
202,-0.94,0.19,-0.93,0.20,-0.20,-0.09,-1.13,-1.13,-1.13
204,-0.94,0.20,-0.93,0.21,-0.21,-0.11,-1.15,-1.14,-1.14
206,-0.94,0.21,-0.93,0.22,-0.22,-0.13,-1.16,-1.15,-1.15
208,-0.94,0.22,-0.93,0.23,-0.23,-0.15,-1.17,-1.16,-1.16
210,-0.92,0.25,-0.92,0.24,-0.24,-0.17,-1.16,-1.16,-1.16
212,-0.92,0.25,-0.92,0.25,-0.25,-0.18,-1.16,-1.17,-1.17
214,-0.92,0.26,-0.92,0.25,-0.25,-0.20,-1.17,-1.18,-1.18
216,-0.92,0.26,-0.92,0.26,-0.26,-0.21,-1.18,-1.18,-1.18
218,-0.92,0.27,-0.92,0.27,-0.27,-0.23,-1.18,-1.19,-1.18
221,-0.92,0.27,-0.92,0.27,-0.27,-0.25,-1.19,-1.19,-1.19
223,-0.92,0.28,-0.92,0.27,-0.27,-0.26,-1.19,-1.19,-1.19
225,-0.92,0.28,-0.91,0.28,-0.28,-0.28,-1.20,-1.19,-1.19
227,-0.92,0.28,-0.91,0.28,-0.28,-0.29,-1.20,-1.19,-1.19
229,-0.92,0.28,-0.91,0.28,-0.28,-0.30,-1.20,-1.19,-1.19
232,-0.92,0.28,-0.91,0.28,-0.28,-0.31,-1.20,-1.19,-1.19
234,-0.92,0.27,-0.91,0.28,-0.28,-0.32,-1.20,-1.19,-1.19
236,-0.90,0.29,-0.91,0.28,-0.28,-0.32,-1.18,-1.19,-1.19
239,-0.90,0.29,-0.90,0.28,-0.28,-0.33,-1.18,-1.18,-1.18
241,-0.90,0.28,-0.90,0.28,-0.28,-0.33,-1.17,-1.18,-1.18
244,-0.90,0.28,-0.90,0.27,-0.27,-0.34,-1.17,-1.17,-1.17
246,-0.90,0.27,-0.90,0.26,-0.26,-0.34,-1.16,-1.16,-1.17
248,-0.90,0.26,-0.90,0.26,-0.26,-0.34,-1.15,-1.16,-1.16
251,-0.90,0.25,-0.90,0.25,-0.25,-0.34,-1.15,-1.15,-1.15
253,-0.90,0.24,-0.90,0.24,-0.24,-0.33,-1.14,-1.14,-1.14
256,-0.90,0.23,-0.90,0.23,-0.23,-0.33,-1.13,-1.13,-1.13
259,-0.90,0.22,-0.90,0.22,-0.22,-0.32,-1.12,-1.12,-1.12
261,-0.90,0.21,-0.89,0.21,-0.21,-0.31,-1.11,-1.10,-1.10
264,-0.90,0.19,-0.89,0.20,-0.20,-0.30,-1.10,-1.09,-1.09
266,-0.90,0.18,-0.89,0.19,-0.19,-0.30,-1.09,-1.08,-1.08
269,-0.90,0.17,-0.88,0.18,-0.18,-0.28,-1.08,-1.06,-1.06
272,-0.90,0.15,-0.88,0.17,-0.17,-0.27,-1.07,-1.05,-1.05
274,-0.90,0.14,-0.87,0.16,-0.16,-0.25,-1.06,-1.03,-1.03
277,-0.87,0.15,-0.87,0.15,-0.15,-0.24,-1.01,-1.02,-1.02
280,-0.86,0.14,-0.87,0.13,-0.13,-0.22,-0.99,-1.00,-1.00
283,-0.86,0.13,-0.87,0.11,-0.11,-0.20,-0.97,-0.98,-0.98
286,-0.86,0.11,-0.87,0.09,-0.09,-0.18,-0.95,-0.97,-0.97
288,-0.86,0.09,-0.88,0.07,-0.07,-0.16,-0.93,-0.95,-0.95
291,-0.86,0.07,-0.89,0.04,-0.04,-0.14,-0.90,-0.93,-0.93
294,-0.90,0.01,-0.90,0.01,-0.01,-0.12,-0.90,-0.91,-0.91
297,-0.90,-0.01,-0.92,-0.03,0.03,-0.09,-0.87,-0.89,-0.89
300,-0.93,-0.06,-0.94,-0.07,0.07,-0.07,-0.86,-0.87,-0.87
303,-0.94,-0.09,-0.96,-0.11,0.11,-0.05,-0.83,-0.85,-0.85
306,-0.99,-0.16,-0.98,-0.15,0.15,-0.02,-0.84,-0.83,-0.83
309,-1.02,-0.21,-1.00,-0.19,0.19,0.00,-0.83,-0.81,-0.81
312,-1.05,-0.26,-1.02,-0.23,0.23,0.03,-0.82,-0.79,-0.79
316,-1.07,-0.30,-1.03,-0.26,0.26,0.06,-0.80,-0.77,-0.77
319,-1.07,-0.32,-1.04,-0.30,0.30,0.09,-0.77,-0.75,-0.75
322,-1.07,-0.34,-1.05,-0.32,0.32,0.11,-0.74,-0.73,-0.73
325,-1.07,-0.36,-1.06,-0.35,0.35,0.14,-0.72,-0.71,-0.71
328,-1.07,-0.38,-1.06,-0.37,0.37,0.16,-0.70,-0.69,-0.69
332,-1.07,-0.40,-1.05,-0.39,0.39,0.20,-0.68,-0.67,-0.67
335,-1.03,-0.38,-1.05,-0.40,0.40,0.22,-0.63,-0.65,-0.65
338,-1.03,-0.40,-1.04,-0.41,0.41,0.25,-0.61,-0.63,-0.63
342,-1.03,-0.42,-1.03,-0.42,0.42,0.28,-0.60,-0.61,-0.61
345,-1.03,-0.44,-1.02,-0.43,0.43,0.31,-0.59,-0.59,-0.59
349,-0.99,-0.42,-1.01,-0.44,0.44,0.34,-0.54,-0.57,-0.57
352,-0.99,-0.44,-1.00,-0.45,0.45,0.37,-0.53,-0.55,-0.55
356,-0.99,-0.46,-1.00,-0.46,0.46,0.40,-0.52,-0.53,-0.53
359,-0.99,-0.47,-0.99,-0.48,0.48,0.43,-0.51,-0.52,-0.51
363,-0.99,-0.49,-0.99,-0.49,0.49,0.46,-0.50,-0.50,-0.50
366,-0.99,-0.50,-0.98,-0.50,0.50,0.49,-0.49,-0.48,-0.48
370,-0.99,-0.52,-0.98,-0.51,0.51,0.52,-0.47,-0.47,-0.47
374,-0.99,-0.53,-0.98,-0.53,0.53,0.56,-0.46,-0.46,-0.46
377,-0.99,-0.54,-0.98,-0.54,0.54,0.58,-0.45,-0.44,-0.44
381,-0.99,-0.56,-0.99,-0.55,0.55,0.61,-0.43,-0.43,-0.43
385,-0.99,-0.57,-0.99,-0.57,0.57,0.65,-0.42,-0.42,-0.42
389,-0.99,-0.58,-0.99,-0.58,0.58,0.68,-0.40,-0.41,-0.41
393,-0.99,-0.59,-1.00,-0.60,0.60,0.71,-0.39,-0.40,-0.40
397,-1.00,-0.61,-1.00,-0.61,0.61,0.75,-0.39,-0.39,-0.39
401,-1.01,-0.63,-1.00,-0.62,0.62,0.78,-0.38,-0.38,-0.38
405,-1.03,-0.65,-1.01,-0.64,0.64,0.81,-0.39,-0.37,-0.37
409,-1.03,-0.66,-1.02,-0.65,0.65,0.84,-0.38,-0.36,-0.36
413,-1.03,-0.67,-1.02,-0.67,0.67,0.87,-0.36,-0.36,-0.36
417,-1.03,-0.68,-1.03,-0.68,0.68,0.90,-0.34,-0.35,-0.35
421,-1.03,-0.68,-1.04,-0.70,0.70,0.93,-0.33,-0.34,-0.34
425,-1.05,-0.71,-1.05,-0.72,0.72,0.96,-0.33,-0.33,-0.34
430,-1.06,-0.73,-1.06,-0.73,0.73,1.00,-0.32,-0.33,-0.33
434,-1.07,-0.75,-1.07,-0.75,0.75,1.03,-0.31,-0.32,-0.32
438,-1.07,-0.75,-1.09,-0.77,0.77,1.05,-0.29,-0.31,-0.31
443,-1.11,-0.80,-1.10,-0.80,0.80,1.09,-0.31,-0.30,-0.30
447,-1.12,-0.82,-1.11,-0.82,0.82,1.11,-0.30,-0.29,-0.30
451,-1.12,-0.83,-1.13,-0.84,0.84,1.13,-0.28,-0.29,-0.29
456,-1.16,-0.88,-1.14,-0.86,0.86,1.16,-0.29,-0.28,-0.28
460,-1.16,-0.89,-1.15,-0.89,0.89,1.18,-0.27,-0.26,-0.27
465,-1.16,-0.90,-1.16,-0.91,0.91,1.21,-0.25,-0.25,-0.25
470,-1.16,-0.92,-1.17,-0.93,0.93,1.23,-0.23,-0.24,-0.24
474,-1.20,-0.97,-1.18,-0.95,0.95,1.24,-0.25,-0.23,-0.23
479,-1.20,-0.98,-1.19,-0.97,0.97,1.26,-0.23,-0.22,-0.22
484,-1.20,-1.00,-1.19,-0.99,0.99,1.28,-0.21,-0.20,-0.20
489,-1.20,-1.01,-1.20,-1.01,1.01,1.29,-0.19,-0.19,-0.19
494,-1.20,-1.03,-1.20,-1.03,1.03,1.30,-0.17,-0.17,-0.17
499,-1.20,-1.04,-1.20,-1.05,1.05,1.31,-0.15,-0.15,-0.15
504,-1.20,-1.06,-1.20,-1.06,1.06,1.32,-0.13,-0.14,-0.14
509,-1.20,-1.08,-1.20,-1.08,1.08,1.33,-0.12,-0.12,-0.12
514,-1.20,-1.10,-1.20,-1.10,1.10,1.33,-0.10,-0.10,-0.10
519,-1.20,-1.11,-1.20,-1.12,1.12,1.34,-0.08,-0.08,-0.08
524,-1.20,-1.13,-1.20,-1.13,1.13,1.34,-0.06,-0.06,-0.06
529,-1.20,-1.15,-1.20,-1.15,1.15,1.34,-0.05,-0.04,-0.04
535,-1.20,-1.17,-1.19,-1.17,1.17,1.34,-0.03,-0.02,-0.02
540,-1.20,-1.19,-1.19,-1.19,1.19,1.33,-0.01,-0.00,-0.00
545,-1.20,-1.21,-1.19,-1.21,1.21,1.33,0.01,0.02,0.02
551,-1.20,-1.23,-1.19,-1.23,1.23,1.32,0.03,0.04,0.04
556,-1.20,-1.25,-1.19,-1.25,1.25,1.32,0.05,0.06,0.06
562,-1.20,-1.27,-1.19,-1.27,1.27,1.31,0.08,0.08,0.08
568,-1.20,-1.29,-1.20,-1.30,1.30,1.30,0.10,0.10,0.10
573,-1.20,-1.31,-1.20,-1.32,1.32,1.29,0.13,0.12,0.12
579,-1.20,-1.33,-1.21,-1.35,1.35,1.28,0.15,0.14,0.14
585,-1.20,-1.35,-1.22,-1.38,1.38,1.27,0.18,0.16,0.16
591,-1.25,-1.42,-1.24,-1.41,1.41,1.26,0.17,0.17,0.18
596,-1.25,-1.44,-1.25,-1.45,1.45,1.25,0.20,0.19,0.19
602,-1.27,-1.48,-1.27,-1.48,1.48,1.24,0.22,0.21,0.21
608,-1.29,-1.52,-1.29,-1.52,1.52,1.23,0.23,0.23,0.23
615,-1.33,-1.57,-1.32,-1.56,1.56,1.22,0.23,0.24,0.24
621,-1.34,-1.60,-1.34,-1.60,1.60,1.21,0.26,0.26,0.26
627,-1.38,-1.65,-1.37,-1.64,1.64,1.21,0.26,0.28,0.28
633,-1.38,-1.67,-1.39,-1.68,1.68,1.20,0.30,0.29,0.29
639,-1.42,-1.72,-1.42,-1.72,1.72,1.19,0.30,0.30,0.30
646,-1.46,-1.78,-1.44,-1.76,1.76,1.18,0.30,0.32,0.32
652,-1.46,-1.79,-1.47,-1.80,1.80,1.18,0.34,0.33,0.33
659,-1.51,-1.85,-1.49,-1.83,1.83,1.17,0.33,0.34,0.34
665,-1.51,-1.86,-1.51,-1.87,1.87,1.17,0.36,0.36,0.36
672,-1.52,-1.88,-1.54,-1.90,1.90,1.16,0.39,0.37,0.37
679,-1.55,-1.92,-1.56,-1.93,1.93,1.16,0.39,0.38,0.38
686,-1.55,-1.93,-1.57,-1.96,1.96,1.16,0.41,0.39,0.39
692,-1.55,-1.94,-1.58,-1.98,1.98,1.16,0.43,0.40,0.40
699,-1.59,-1.99,-1.59,-1.99,1.99,1.16,0.41,0.41,0.41
706,-1.59,-2.00,-1.58,-2.00,2.00,1.16,0.41,0.42,0.42
713,-1.56,-1.98,-1.57,-2.00,2.00,1.16,0.44,0.42,0.42
721,-1.55,-1.98,-1.55,-1.98,1.98,1.17,0.43,0.43,0.43
728,-1.55,-1.99,-1.51,-1.95,1.95,1.17,0.40,0.44,0.44
735,-1.51,-1.96,-1.46,-1.91,1.91,1.17,0.40,0.45,0.45
742,-1.48,-1.93,-1.40,-1.85,1.85,1.18,0.37,0.46,0.46
750,-1.39,-1.85,-1.32,-1.78,1.78,1.19,0.39,0.46,0.46
757,-1.32,-1.79,-1.23,-1.70,1.70,1.19,0.38,0.47,0.47
765,-1.19,-1.66,-1.13,-1.60,1.60,1.20,0.42,0.47,0.47
773,-1.06,-1.54,-1.02,-1.50,1.50,1.21,0.45,0.48,0.48
780,-0.92,-1.40,-0.92,-1.40,1.40,1.22,0.48,0.49,0.49
788,-0.76,-1.25,-0.81,-1.30,1.30,1.23,0.54,0.49,0.49
796,-0.64,-1.13,-0.70,-1.20,1.20,1.24,0.56,0.49,0.50
804,-0.52,-1.02,-0.61,-1.11,1.11,1.25,0.59,0.50,0.50
812,-0.44,-0.94,-0.52,-1.02,1.02,1.27,0.58,0.50,0.50
820,-0.36,-0.86,-0.44,-0.95,0.95,1.28,0.59,0.51,0.51
828,-0.34,-0.85,-0.38,-0.89,0.89,1.29,0.55,0.51,0.51
837,-0.29,-0.80,-0.33,-0.84,0.84,1.30,0.55,0.51,0.51
845,-0.29,-0.80,-0.29,-0.80,0.80,1.31,0.51,0.52,0.52
853,-0.28,-0.80,-0.25,-0.77,0.77,1.32,0.50,0.52,0.52
862,-0.25,-0.77,-0.23,-0.75,0.75,1.33,0.51,0.52,0.52
871,-0.25,-0.77,-0.21,-0.74,0.74,1.34,0.49,0.52,0.52
879,-0.25,-0.78,-0.20,-0.73,0.73,1.35,0.48,0.53,0.53
888,-0.21,-0.74,-0.19,-0.72,0.72,1.35,0.52,0.53,0.53
897,-0.21,-0.74,-0.18,-0.72,0.72,1.36,0.51,0.54,0.54
906,-0.17,-0.71,-0.17,-0.72,0.72,1.36,0.55,0.54,0.54
915,-0.16,-0.71,-0.16,-0.71,0.71,1.37,0.55,0.55,0.55
924,-0.16,-0.71,-0.15,-0.71,0.71,1.37,0.55,0.56,0.56
933,-0.12,-0.68,-0.14,-0.70,0.70,1.36,0.58,0.56,0.56
943,-0.12,-0.69,-0.12,-0.69,0.69,1.36,0.58,0.57,0.57
952,-0.12,-0.70,-0.10,-0.69,0.69,1.35,0.57,0.58,0.58
962,-0.08,-0.67,-0.08,-0.68,0.68,1.34,0.60,0.60,0.60
971,-0.08,-0.69,-0.06,-0.67,0.67,1.33,0.59,0.61,0.61
981,-0.06,-0.68,-0.03,-0.66,0.66,1.32,0.60,0.63,0.62
991,-0.03,-0.67,-0.01,-0.65,0.65,1.30,0.62,0.64,0.64
1001,0.00,-0.66,0.02,-0.64,0.64,1.28,0.65,0.66,0.66
1011,0.03,-0.64,0.04,-0.64,0.64,1.25,0.67,0.68,0.68
1021,0.06,-0.64,0.07,-0.63,0.63,1.22,0.69,0.70,0.70
1031,0.10,-0.62,0.09,-0.63,0.63,1.19,0.73,0.72,0.72
1041,0.14,-0.60,0.11,-0.63,0.63,1.16,0.78,0.74,0.74
1052,0.14,-0.63,0.13,-0.64,0.64,1.12,0.78,0.77,0.77
1062,0.18,-0.61,0.14,-0.65,0.65,1.09,0.83,0.80,0.80
1073,0.18,-0.64,0.16,-0.67,0.67,1.04,0.85,0.82,0.82
1084,0.18,-0.67,0.17,-0.69,0.69,1.00,0.87,0.85,0.85
1094,0.20,-0.68,0.18,-0.71,0.71,0.95,0.91,0.88,0.88
1105,0.23,-0.68,0.18,-0.73,0.73,0.90,0.96,0.92,0.92
1116,0.18,-0.77,0.19,-0.76,0.76,0.85,0.94,0.95,0.95
1128,0.18,-0.80,0.21,-0.78,0.78,0.79,0.96,0.98,0.98
1139,0.18,-0.84,0.22,-0.80,0.80,0.74,0.98,1.02,1.02
1150,0.18,-0.88,0.25,-0.81,0.81,0.68,1.00,1.06,1.06
1162,0.23,-0.87,0.27,-0.83,0.83,0.62,1.06,1.10,1.10
1173,0.28,-0.86,0.31,-0.83,0.83,0.56,1.12,1.14,1.14
1185,0.36,-0.82,0.35,-0.83,0.83,0.50,1.20,1.18,1.18
1197,0.41,-0.82,0.40,-0.83,0.83,0.43,1.24,1.23,1.23
1209,0.48,-0.79,0.46,-0.82,0.82,0.36,1.30,1.28,1.28
1221,0.53,-0.79,0.52,-0.80,0.80,0.30,1.33,1.32,1.32
1233,0.61,-0.76,0.59,-0.78,0.78,0.23,1.39,1.37,1.37
1246,0.68,-0.74,0.67,-0.75,0.75,0.16,1.43,1.43,1.43
1258,0.76,-0.72,0.76,-0.72,0.72,0.09,1.48,1.48,1.48
1271,0.85,-0.68,0.86,-0.68,0.68,0.02,1.53,1.54,1.53
1283,0.94,-0.65,0.96,-0.63,0.63,-0.05,1.58,1.59,1.59
1296,1.06,-0.59,1.07,-0.58,0.58,-0.12,1.65,1.65,1.65
1309,1.17,-0.54,1.18,-0.53,0.53,-0.19,1.70,1.71,1.71
1322,1.30,-0.47,1.31,-0.46,0.46,-0.27,1.76,1.77,1.77
1335,1.42,-0.41,1.45,-0.39,0.39,-0.34,1.81,1.84,1.84
1349,1.57,-0.33,1.59,-0.31,0.31,-0.42,1.88,1.90,1.90
1362,1.72,-0.24,1.74,-0.23,0.23,-0.49,1.95,1.97,1.97
1376,1.90,-0.13,1.90,-0.14,0.14,-0.57,2.04,2.03,2.03
1390,2.07,-0.03,2.06,-0.04,0.04,-0.65,2.11,2.10,2.10
1404,2.23,0.06,2.23,0.06,-0.06,-0.73,2.17,2.17,2.17
1418,2.42,0.18,2.41,0.17,-0.17,-0.80,2.25,2.24,2.24
1432,2.59,0.28,2.59,0.28,-0.28,-0.88,2.31,2.31,2.31
1446,2.78,0.40,2.78,0.39,-0.39,-0.96,2.39,2.38,2.39
1461,2.97,0.51,2.97,0.51,-0.51,-1.04,2.46,2.46,2.46
1475,3.15,0.62,3.16,0.63,-0.63,-1.12,2.53,2.53,2.54
1490,3.36,0.75,3.36,0.74,-0.74,-1.20,2.62,2.61,2.61
1505,3.54,0.85,3.55,0.86,-0.86,-1.28,2.68,2.69,2.69
1520,3.74,0.97,3.75,0.98,-0.98,-1.37,2.76,2.77,2.77
1535,3.95,1.10,3.95,1.10,-1.10,-1.45,2.85,2.85,2.85
1550,4.15,1.22,4.15,1.21,-1.21,-1.53,2.94,2.94,2.94
1566,4.36,1.34,4.35,1.33,-1.33,-1.61,3.03,3.02,3.02
1582,4.58,1.47,4.55,1.44,-1.44,-1.70,3.14,3.11,3.11
1597,4.76,1.56,4.75,1.55,-1.55,-1.78,3.21,3.20,3.20
1613,4.96,1.67,4.96,1.66,-1.66,-1.86,3.30,3.30,3.29
1629,5.16,1.77,5.16,1.77,-1.77,-1.94,3.39,3.39,3.39
1646,5.36,1.88,5.36,1.87,-1.87,-2.03,3.49,3.49,3.49
1662,5.53,1.94,5.57,1.97,-1.97,-2.11,3.56,3.59,3.59
1679,5.74,2.05,5.77,2.07,-2.07,-2.19,3.67,3.69,3.69
1696,5.93,2.13,5.97,2.17,-2.17,-2.27,3.76,3.80,3.80
1713,6.14,2.24,6.17,2.26,-2.26,-2.35,3.88,3.91,3.91
1730,6.34,2.33,6.37,2.35,-2.35,-2.42,4.00,4.02,4.02
1747,6.54,2.41,6.56,2.42,-2.42,-2.50,4.12,4.13,4.13
1764,6.77,2.53,6.74,2.50,-2.50,-2.57,4.28,4.25,4.25
