frequency,raw,error,smoothed,error_smoothed,equalization,parametric_eq,equalized_raw,equalized_smoothed,target
20,-2.74,-4.93,-2.76,-4.94,4.94,5.04,2.20,2.19,2.19
21,-2.42,-4.56,-2.41,-4.56,4.56,4.73,2.14,2.15,2.15
22,-2.09,-4.20,-2.08,-4.19,4.19,4.36,2.10,2.11,2.11
23,-1.78,-3.85,-1.75,-3.81,3.81,3.96,2.04,2.07,2.07
24,-1.42,-3.45,-1.42,-3.45,3.45,3.56,2.03,2.03,2.03
25,-1.08,-3.07,-1.09,-3.08,3.08,3.16,2.00,1.99,1.99
26,-0.80,-2.75,-0.77,-2.72,2.72,2.78,1.93,1.95,1.95
27,-0.46,-2.37,-0.46,-2.37,2.37,2.41,1.91,1.91,1.91
28,-0.18,-2.06,-0.15,-2.03,2.03,2.06,1.85,1.88,1.88
29,0.16,-1.68,0.14,-1.70,1.70,1.74,1.86,1.84,1.84
30,0.42,-1.38,0.43,-1.38,1.38,1.43,1.80,1.80,1.80
31,0.73,-1.03,0.69,-1.08,1.08,1.13,1.81,1.77,1.77
32,0.95,-0.78,0.94,-0.80,0.80,0.86,1.75,1.73,1.73
33,1.19,-0.50,1.16,-0.53,0.53,0.60,1.72,1.69,1.69
34,1.38,-0.28,1.37,-0.29,0.29,0.35,1.67,1.66,1.66
35,1.55,-0.07,1.57,-0.06,0.06,0.11,1.61,1.62,1.62
36,1.72,0.13,1.75,0.16,-0.16,-0.11,1.56,1.59,1.59
37,1.91,0.36,1.92,0.37,-0.37,-0.33,1.55,1.55,1.55
38,2.08,0.56,2.08,0.56,-0.56,-0.54,1.52,1.52,1.52
39,2.23,0.75,2.24,0.75,-0.75,-0.73,1.48,1.48,1.48
40,2.38,0.93,2.39,0.93,-0.93,-0.92,1.45,1.45,1.45
41,2.52,1.10,2.53,1.11,-1.11,-1.10,1.41,1.42,1.42
42,2.66,1.28,2.67,1.28,-1.28,-1.28,1.38,1.38,1.38
43,2.80,1.45,2.80,1.45,-1.45,-1.44,1.36,1.35,1.35
44,2.94,1.62,2.92,1.60,-1.60,-1.60,1.34,1.32,1.32
45,3.06,1.77,3.04,1.75,-1.75,-1.75,1.31,1.29,1.29
46,3.13,1.87,3.16,1.89,-1.89,-1.90,1.24,1.26,1.26
47,3.24,2.01,3.26,2.03,-2.03,-2.04,1.21,1.23,1.23
48,3.37,2.17,3.36,2.16,-2.16,-2.17,1.22,1.20,1.20
49,3.47,2.30,3.45,2.28,-2.28,-2.30,1.19,1.18,1.18
50,3.51,2.36,3.54,2.39,-2.39,-2.42,1.12,1.15,1.15
51,3.65,2.53,3.62,2.50,-2.50,-2.53,1.15,1.13,1.13
52,3.69,2.59,3.70,2.60,-2.60,-2.63,1.09,1.10,1.10
53,3.79,2.71,3.77,2.69,-2.69,-2.74,1.10,1.08,1.08
54,3.83,2.77,3.84,2.78,-2.78,-2.83,1.05,1.06,1.06
55,3.90,2.86,3.91,2.87,-2.87,-2.92,1.03,1.04,1.04
56,3.97,2.95,3.97,2.95,-2.95,-3.01,1.02,1.02,1.02
57,4.01,3.01,4.03,3.03,-3.03,-3.08,0.98,1.00,1.00
58,4.11,3.12,4.09,3.10,-3.10,-3.16,1.01,0.99,0.99
59,4.15,3.18,4.15,3.18,-3.18,-3.23,0.98,0.97,0.97
60,4.20,3.24,4.21,3.25,-3.25,-3.30,0.95,0.96,0.96
61,4.27,3.32,4.27,3.32,-3.32,-3.36,0.95,0.95,0.95
62,4.29,3.36,4.32,3.39,-3.39,-3.42,0.90,0.94,0.94
63,4.38,3.46,4.38,3.45,-3.45,-3.47,0.93,0.92,0.92
64,4.42,3.51,4.43,3.51,-3.51,-3.53,0.91,0.91,0.91
65,4.49,3.59,4.48,3.57,-3.57,-3.58,0.92,0.91,0.91
66,4.54,3.65,4.52,3.62,-3.62,-3.63,0.92,0.90,0.90
67,4.54,3.65,4.56,3.67,-3.67,-3.67,0.87,0.89,0.89
68,4.63,3.75,4.59,3.71,-3.71,-3.72,0.92,0.88,0.88
69,4.61,3.74,4.62,3.75,-3.75,-3.76,0.86,0.87,0.87
70,4.62,3.76,4.64,3.78,-3.78,-3.80,0.84,0.86,0.86
71,4.68,3.83,4.66,3.81,-3.81,-3.84,0.87,0.85,0.85
72,4.65,3.81,4.68,3.84,-3.84,-3.87,0.81,0.84,0.84
73,4.70,3.87,4.70,3.87,-3.87,-3.91,0.84,0.84,0.84
74,4.73,3.91,4.72,3.89,-3.89,-3.95,0.84,0.82,0.83
75,4.70,3.89,4.73,3.92,-3.92,-3.98,0.78,0.81,0.81
76,4.78,3.98,4.75,3.95,-3.95,-4.01,0.83,0.80,0.80
77,4.76,3.97,4.76,3.98,-3.98,-4.05,0.79,0.79,0.79
78,4.75,3.98,4.78,4.00,-4.00,-4.08,0.75,0.77,0.78
79,4.83,4.07,4.79,4.03,-4.03,-4.11,0.80,0.76,0.76
80,4.79,4.05,4.80,4.06,-4.06,-4.14,0.73,0.74,0.74
81,4.78,4.06,4.81,4.08,-4.08,-4.17,0.70,0.73,0.73
82,4.85,4.15,4.82,4.11,-4.11,-4.20,0.74,0.71,0.71
83,4.82,4.14,4.83,4.14,-4.14,-4.23,0.68,0.69,0.69
84,4.80,4.14,4.83,4.17,-4.17,-4.26,0.63,0.66,0.66
85,4.84,4.20,4.84,4.20,-4.20,-4.29,0.64,0.64,0.64
86,4.86,4.24,4.85,4.23,-4.23,-4.32,0.63,0.62,0.62
87,4.83,4.24,4.85,4.26,-4.26,-4.35,0.57,0.59,0.59
88,4.86,4.30,4.86,4.29,-4.29,-4.38,0.57,0.56,0.56
89,4.88,4.35,4.86,4.32,-4.32,-4.41,0.56,0.54,0.54
90,4.86,4.35,4.86,4.35,-4.35,-4.44,0.51,0.51,0.51
91,4.83,4.35,4.86,4.38,-4.38,-4.46,0.45,0.48,0.48
92,4.86,4.42,4.85,4.41,-4.41,-4.49,0.46,0.45,0.45
93,4.86,4.45,4.85,4.43,-4.43,-4.52,0.43,0.42,0.42
94,4.84,4.46,4.84,4.46,-4.46,-4.54,0.38,0.38,0.38
95,4.82,4.47,4.83,4.48,-4.48,-4.57,0.34,0.35,0.35
96,4.82,4.51,4.83,4.51,-4.51,-4.60,0.31,0.32,0.32
97,4.82,4.54,4.82,4.53,-4.53,-4.62,0.29,0.28,0.28
98,4.83,4.58,4.81,4.56,-4.56,-4.65,0.27,0.25,0.25
99,4.79,4.58,4.80,4.59,-4.59,-4.67,0.20,0.21,0.21
100,4.79,4.61,4.80,4.62,-4.62,-4.70,0.17,0.17,0.18
101,4.78,4.64,4.79,4.66,-4.66,-4.72,0.12,0.14,0.15
102,4.77,4.66,4.79,4.69,-4.69,-4.75,0.08,0.10,0.11
104,4.80,4.76,4.78,4.73,-4.73,-4.79,0.08,0.06,0.04
105,4.79,4.78,4.78,4.76,-4.76,-4.81,0.03,0.02,0.01
106,4.78,4.81,4.77,4.79,-4.79,-4.84,-0.01,-0.02,-0.02
107,4.76,4.82,4.76,4.82,-4.82,-4.86,-0.06,-0.05,-0.06
108,4.75,4.84,4.76,4.85,-4.85,-4.88,-0.09,-0.09,-0.09
109,4.72,4.84,4.75,4.87,-4.87,-4.90,-0.15,-0.12,-0.12
110,4.74,4.89,4.74,4.89,-4.89,-4.92,-0.15,-0.15,-0.15
111,4.76,4.94,4.73,4.91,-4.91,-4.94,-0.15,-0.18,-0.18
112,4.73,4.94,4.72,4.93,-4.93,-4.96,-0.20,-0.21,-0.21
113,4.70,4.94,4.71,4.96,-4.96,-4.98,-0.25,-0.24,-0.24
114,4.66,4.93,4.70,4.98,-4.98,-4.99,-0.32,-0.28,-0.27
115,4.67,4.97,4.69,5.00,-5.00,-5.01,-0.33,-0.31,-0.30
117,4.73,5.09,4.68,5.03,-5.03,-5.04,-0.29,-0.34,-0.36
118,4.70,5.09,4.67,5.05,-5.05,-5.06,-0.35,-0.38,-0.38
119,4.66,5.07,4.67,5.07,-5.07,-5.07,-0.41,-0.41,-0.41
120,4.62,5.06,4.65,5.10,-5.10,-5.09,-0.47,-0.44,-0.44
121,4.60,5.07,4.64,5.12,-5.12,-5.10,-0.52,-0.47,-0.46
123,4.66,5.18,4.63,5.14,-5.14,-5.13,-0.48,-0.51,-0.52
124,4.65,5.19,4.62,5.15,-5.15,-5.14,-0.50,-0.54,-0.54
125,4.61,5.18,4.60,5.17,-5.17,-5.15,-0.56,-0.57,-0.57
126,4.57,5.16,4.59,5.19,-5.19,-5.16,-0.61,-0.60,-0.59
128,4.56,5.20,4.57,5.20,-5.20,-5.18,-0.64,-0.63,-0.64
129,4.55,5.21,4.55,5.21,-5.21,-5.19,-0.66,-0.66,-0.66
130,4.53,5.21,4.54,5.22,-5.22,-5.20,-0.69,-0.68,-0.68
131,4.50,5.20,4.52,5.23,-5.23,-5.20,-0.73,-0.71,-0.70
133,4.52,5.27,4.50,5.24,-5.24,-5.22,-0.72,-0.74,-0.74
134,4.49,5.26,4.48,5.25,-5.25,-5.22,-0.75,-0.76,-0.76
135,4.46,5.24,4.46,5.25,-5.25,-5.23,-0.79,-0.79,-0.78
137,4.44,5.26,4.44,5.25,-5.25,-5.23,-0.81,-0.81,-0.82
138,4.42,5.26,4.41,5.25,-5.25,-5.24,-0.83,-0.84,-0.83
140,4.40,5.27,4.39,5.25,-5.25,-5.24,-0.85,-0.86,-0.87
141,4.36,5.24,4.37,5.25,-5.25,-5.24,-0.89,-0.88,-0.88
142,4.32,5.22,4.35,5.25,-5.25,-5.24,-0.93,-0.90,-0.89
144,4.31,5.23,4.33,5.25,-5.25,-5.24,-0.94,-0.92,-0.92
145,4.27,5.20,4.31,5.25,-5.25,-5.24,-0.98,-0.94,-0.93
147,4.32,5.28,4.29,5.25,-5.25,-5.24,-0.92,-0.95,-0.96
148,4.31,5.28,4.27,5.24,-5.24,-5.24,-0.93,-0.97,-0.97
150,4.27,5.26,4.25,5.24,-5.24,-5.23,-0.96,-0.98,-0.99
151,4.23,5.23,4.23,5.22,-5.22,-5.23,-0.99,-1.00,-0.99
153,4.19,5.21,4.20,5.21,-5.21,-5.22,-1.02,-1.01,-1.02
154,4.16,5.18,4.17,5.19,-5.19,-5.21,-1.03,-1.02,-1.02
156,4.12,5.16,4.13,5.17,-5.17,-5.20,-1.05,-1.04,-1.04
157,4.08,5.13,4.10,5.15,-5.15,-5.19,-1.07,-1.05,-1.05
159,4.07,5.14,4.07,5.13,-5.13,-5.18,-1.06,-1.06,-1.07
160,4.04,5.11,4.04,5.11,-5.11,-5.17,-1.07,-1.08,-1.07
162,4.00,5.09,4.00,5.10,-5.10,-5.15,-1.09,-1.09,-1.09
164,3.96,5.07,3.97,5.08,-5.08,-5.13,-1.12,-1.10,-1.11
165,3.95,5.07,3.94,5.06,-5.06,-5.12,-1.11,-1.12,-1.12
167,3.92,5.06,3.91,5.05,-5.05,-5.10,-1.13,-1.14,-1.14
169,3.88,5.04,3.88,5.03,-5.03,-5.08,-1.15,-1.15,-1.15
170,3.85,5.02,3.85,5.02,-5.02,-5.06,-1.16,-1.17,-1.16
172,3.81,5.00,3.81,5.00,-5.00,-5.04,-1.19,-1.18,-1.18
174,3.77,4.98,3.78,4.98,-4.98,-5.01,-1.21,-1.20,-1.20
175,3.74,4.96,3.74,4.96,-4.96,-5.00,-1.22,-1.22,-1.22
177,3.70,4.94,3.70,4.94,-4.94,-4.97,-1.24,-1.24,-1.24
179,3.67,4.93,3.66,4.92,-4.92,-4.94,-1.25,-1.26,-1.26
181,3.61,4.89,3.62,4.89,-4.89,-4.92,-1.28,-1.28,-1.28
183,3.57,4.87,3.58,4.87,-4.87,-4.89,-1.30,-1.29,-1.30
184,3.54,4.85,3.53,4.84,-4.84,-4.87,-1.30,-1.31,-1.31
186,3.49,4.82,3.48,4.82,-4.82,-4.84,-1.33,-1.33,-1.33
188,3.43,4.78,3.44,4.79,-4.79,-4.81,-1.36,-1.35,-1.35
190,3.36,4.73,3.39,4.76,-4.76,-4.77,-1.40,-1.37,-1.37
192,3.33,4.72,3.34,4.73,-4.73,-4.74,-1.40,-1.39,-1.39
194,3.30,4.71,3.29,4.70,-4.70,-4.71,-1.40,-1.41,-1.41
196,3.27,4.70,3.24,4.67,-4.67,-4.67,-1.40,-1.43,-1.43
198,3.22,4.67,3.19,4.63,-4.63,-4.64,-1.41,-1.45,-1.45
200,3.11,4.58,3.13,4.60,-4.60,-4.60,-1.49,-1.46,-1.46
202,3.04,4.52,3.08,4.56,-4.56,-4.57,-1.52,-1.48,-1.48
204,3.01,4.51,3.02,4.52,-4.52,-4.53,-1.51,-1.50,-1.50
206,2.99,4.50,2.97,4.48,-4.48,-4.50,-1.49,-1.51,-1.51
208,2.94,4.47,2.92,4.45,-4.45,-4.46,-1.51,-1.53,-1.53
210,2.86,4.40,2.87,4.41,-4.41,-4.42,-1.55,-1.54,-1.54
212,2.80,4.36,2.83,4.38,-4.38,-4.39,-1.58,-1.55,-1.55
214,2.76,4.33,2.78,4.35,-4.35,-4.35,-1.58,-1.57,-1.56
216,2.75,4.33,2.74,4.31,-4.31,-4.31,-1.56,-1.58,-1.58
218,2.71,4.30,2.69,4.28,-4.28,-4.28,-1.56,-1.59,-1.58
221,2.65,4.25,2.65,4.24,-4.24,-4.22,-1.59,-1.59,-1.60
223,2.61,4.21,2.60,4.20,-4.20,-4.19,-1.59,-1.60,-1.60
225,2.55,4.16,2.56,4.16,-4.16,-4.15,-1.61,-1.61,-1.61
227,2.48,4.09,2.51,4.12,-4.12,-4.11,-1.64,-1.61,-1.61
229,2.46,4.07,2.47,4.08,-4.08,-4.08,-1.62,-1.61,-1.61
232,2.44,4.06,2.42,4.03,-4.03,-4.02,-1.59,-1.62,-1.62
234,2.41,4.03,2.37,3.99,-3.99,-3.98,-1.58,-1.62,-1.62
236,2.30,3.92,2.33,3.94,-3.94,-3.95,-1.64,-1.61,-1.61
239,2.26,3.87,2.29,3.90,-3.90,-3.89,-1.64,-1.61,-1.61
241,2.25,3.86,2.25,3.86,-3.86,-3.86,-1.60,-1.61,-1.61
244,2.22,3.83,2.21,3.81,-3.81,-3.81,-1.59,-1.60,-1.60
246,2.18,3.78,2.18,3.77,-3.77,-3.77,-1.59,-1.60,-1.60
248,2.14,3.73,2.14,3.73,-3.73,-3.73,-1.59,-1.59,-1.59
251,2.09,3.67,2.11,3.70,-3.70,-3.68,-1.60,-1.58,-1.58
253,2.07,3.64,2.08,3.66,-3.66,-3.65,-1.59,-1.57,-1.57
256,2.06,3.63,2.06,3.62,-3.62,-3.60,-1.56,-1.56,-1.56
259,2.06,3.62,2.03,3.58,-3.58,-3.55,-1.52,-1.55,-1.55
261,2.03,3.57,2.00,3.55,-3.55,-3.51,-1.51,-1.54,-1.54
264,1.95,3.48,1.98,3.51,-3.51,-3.46,-1.56,-1.53,-1.53
266,1.92,3.44,1.95,3.47,-3.47,-3.43,-1.55,-1.52,-1.52
269,1.91,3.42,1.93,3.44,-3.44,-3.38,-1.52,-1.51,-1.51
272,1.91,3.41,1.90,3.40,-3.40,-3.33,-1.49,-1.50,-1.50
274,1.91,3.39,1.88,3.36,-3.36,-3.30,-1.45,-1.48,-1.48
277,1.89,3.36,1.85,3.32,-3.32,-3.25,-1.43,-1.47,-1.47
280,1.79,3.25,1.83,3.29,-3.29,-3.21,-1.50,-1.46,-1.46
283,1.77,3.22,1.81,3.25,-3.25,-3.16,-1.48,-1.45,-1.45
286,1.77,3.21,1.78,3.21,-3.21,-3.12,-1.44,-1.43,-1.43
288,1.77,3.19,1.76,3.18,-3.18,-3.09,-1.41,-1.42,-1.42
291,1.76,3.17,1.73,3.14,-3.14,-3.04,-1.38,-1.41,-1.41
294,1.72,3.12,1.71,3.10,-3.10,-3.00,-1.38,-1.40,-1.40
297,1.67,3.06,1.68,3.07,-3.07,-2.96,-1.39,-1.38,-1.38
300,1.63,3.01,1.66,3.03,-3.03,-2.92,-1.40,-1.37,-1.37
303,1.62,2.98,1.63,3.00,-3.00,-2.87,-1.37,-1.36,-1.36
306,1.60,2.95,1.61,2.96,-2.96,-2.83,-1.36,-1.35,-1.35
309,1.59,2.93,1.58,2.92,-2.92,-2.79,-1.33,-1.34,-1.34
312,1.58,2.91,1.56,2.89,-2.89,-2.75,-1.31,-1.33,-1.33
316,1.55,2.87,1.53,2.85,-2.85,-2.70,-1.30,-1.32,-1.32
319,1.50,2.81,1.51,2.82,-2.82,-2.66,-1.32,-1.31,-1.31
322,1.46,2.76,1.48,2.78,-2.78,-2.63,-1.32,-1.30,-1.30
325,1.44,2.73,1.45,2.74,-2.74,-2.59,-1.30,-1.29,-1.29
328,1.43,2.71,1.42,2.71,-2.71,-2.55,-1.27,-1.28,-1.28
332,1.40,2.68,1.40,2.67,-2.67,-2.51,-1.27,-1.27,-1.27
335,1.38,2.65,1.37,2.63,-2.63,-2.47,-1.25,-1.26,-1.26
338,1.33,2.59,1.34,2.60,-2.60,-2.44,-1.26,-1.26,-1.26
342,1.29,2.54,1.31,2.56,-2.56,-2.39,-1.27,-1.25,-1.25
345,1.28,2.52,1.28,2.52,-2.52,-2.36,-1.24,-1.24,-1.24
349,1.26,2.50,1.25,2.49,-2.49,-2.31,-1.23,-1.23,-1.23
352,1.25,2.48,1.22,2.45,-2.45,-2.28,-1.20,-1.23,-1.23
356,1.19,2.41,1.19,2.42,-2.42,-2.24,-1.22,-1.22,-1.22
359,1.14,2.36,1.17,2.38,-2.38,-2.21,-1.24,-1.22,-1.22
363,1.12,2.33,1.14,2.35,-2.35,-2.17,-1.23,-1.21,-1.21
366,1.11,2.32,1.11,2.31,-2.31,-2.14,-1.20,-1.21,-1.20
370,1.09,2.29,1.08,2.28,-2.28,-2.10,-1.19,-1.20,-1.20
374,1.07,2.27,1.05,2.25,-2.25,-2.06,-1.18,-1.20,-1.20
377,1.02,2.21,1.03,2.22,-2.22,-2.03,-1.20,-1.19,-1.19
381,0.98,2.17,1.00,2.19,-2.19,-2.00,-1.21,-1.19,-1.19
385,0.96,2.15,0.97,2.16,-2.16,-1.96,-1.20,-1.19,-1.19
389,0.95,2.14,0.94,2.13,-2.13,-1.92,-1.17,-1.18,-1.18
393,0.93,2.11,0.91,2.09,-2.09,-1.89,-1.16,-1.18,-1.18
397,0.87,2.05,0.88,2.06,-2.06,-1.86,-1.19,-1.18,-1.18
401,0.83,2.01,0.85,2.03,-2.03,-1.82,-1.19,-1.18,-1.18
405,0.81,1.99,0.81,1.99,-1.99,-1.79,-1.18,-1.18,-1.18
409,0.80,1.97,0.78,1.95,-1.95,-1.76,-1.15,-1.17,-1.17
413,0.75,1.92,0.75,1.92,-1.92,-1.73,-1.16,-1.17,-1.17
417,0.69,1.86,0.71,1.88,-1.88,-1.70,-1.18,-1.16,-1.16
421,0.67,1.83,0.68,1.84,-1.84,-1.67,-1.16,-1.16,-1.16
425,0.66,1.81,0.64,1.79,-1.79,-1.64,-1.13,-1.15,-1.15
430,0.60,1.75,0.61,1.75,-1.75,-1.60,-1.15,-1.14,-1.14
434,0.56,1.70,0.57,1.71,-1.71,-1.57,-1.15,-1.14,-1.14
438,0.54,1.67,0.54,1.66,-1.66,-1.54,-1.12,-1.12,-1.13
443,0.52,1.64,0.51,1.62,-1.62,-1.51,-1.10,-1.11,-1.11
447,0.48,1.58,0.47,1.57,-1.57,-1.48,-1.09,-1.10,-1.10
451,0.42,1.51,0.44,1.53,-1.53,-1.46,-1.11,-1.09,-1.09
456,0.41,1.48,0.42,1.49,-1.49,-1.42,-1.07,-1.07,-1.07
460,0.40,1.46,0.39,1.44,-1.44,-1.40,-1.04,-1.05,-1.05
465,0.37,1.41,0.37,1.41,-1.41,-1.37,-1.03,-1.04,-1.04
470,0.32,1.34,0.35,1.37,-1.37,-1.34,-1.05,-1.02,-1.02
474,0.32,1.32,0.34,1.33,-1.33,-1.31,-1.01,-1.00,-1.00
479,0.32,1.30,0.32,1.30,-1.30,-1.29,-0.98,-0.98,-0.98
484,0.32,1.28,0.30,1.27,-1.27,-1.26,-0.95,-0.96,-0.96
489,0.32,1.27,0.29,1.23,-1.23,-1.23,-0.91,-0.95,-0.94
494,0.27,1.20,0.27,1.20,-1.20,-1.20,-0.93,-0.93,-0.93
499,0.24,1.15,0.25,1.16,-1.16,-1.18,-0.92,-0.91,-0.91
504,0.24,1.14,0.23,1.13,-1.13,-1.15,-0.89,-0.89,-0.89
509,0.21,1.09,0.21,1.09,-1.09,-1.12,-0.88,-0.88,-0.88
514,0.17,1.03,0.19,1.06,-1.06,-1.10,-0.89,-0.86,-0.86
519,0.17,1.02,0.18,1.03,-1.03,-1.07,-0.85,-0.85,-0.85
524,0.17,1.01,0.16,0.99,-0.99,-1.05,-0.82,-0.84,-0.84
529,0.15,0.97,0.14,0.97,-0.97,-1.03,-0.81,-0.82,-0.82
535,0.10,0.91,0.13,0.94,-0.94,-1.00,-0.84,-0.81,-0.81
540,0.12,0.92,0.11,0.91,-0.91,-0.97,-0.79,-0.80,-0.80
545,0.12,0.91,0.10,0.89,-0.89,-0.95,-0.76,-0.78,-0.78
551,0.09,0.86,0.09,0.86,-0.86,-0.93,-0.77,-0.77,-0.77
556,0.06,0.82,0.08,0.84,-0.84,-0.90,-0.77,-0.76,-0.76
562,0.06,0.80,0.07,0.81,-0.81,-0.88,-0.75,-0.74,-0.74
568,0.06,0.79,0.06,0.79,-0.79,-0.85,-0.73,-0.73,-0.73
573,0.08,0.79,0.06,0.77,-0.77,-0.83,-0.68,-0.71,-0.71
579,0.03,0.72,0.05,0.74,-0.74,-0.81,-0.71,-0.69,-0.69
585,0.04,0.71,0.05,0.72,-0.72,-0.79,-0.68,-0.67,-0.67
591,0.05,0.70,0.05,0.69,-0.69,-0.76,-0.64,-0.65,-0.65
596,0.06,0.69,0.04,0.66,-0.66,-0.74,-0.60,-0.62,-0.62
602,0.01,0.61,0.03,0.63,-0.63,-0.72,-0.62,-0.60,-0.60
608,0.03,0.61,0.03,0.60,-0.60,-0.70,-0.57,-0.57,-0.57
615,0.03,0.58,0.02,0.56,-0.56,-0.67,-0.53,-0.55,-0.55
621,0.01,0.53,0.00,0.52,-0.52,-0.65,-0.51,-0.52,-0.52
627,-0.02,0.47,-0.01,0.48,-0.48,-0.63,-0.50,-0.49,-0.49
633,-0.02,0.44,-0.02,0.44,-0.44,-0.61,-0.46,-0.46,-0.46
639,-0.05,0.39,-0.03,0.40,-0.40,-0.59,-0.45,-0.43,-0.43
646,-0.06,0.35,-0.04,0.36,-0.36,-0.57,-0.42,-0.41,-0.41
652,-0.04,0.34,-0.05,0.33,-0.33,-0.55,-0.37,-0.38,-0.38
659,-0.07,0.29,-0.06,0.30,-0.30,-0.53,-0.36,-0.36,-0.36
665,-0.08,0.25,-0.07,0.27,-0.27,-0.51,-0.35,-0.33,-0.33
672,-0.05,0.26,-0.07,0.24,-0.24,-0.49,-0.29,-0.31,-0.31
679,-0.06,0.23,-0.07,0.22,-0.22,-0.47,-0.28,-0.29,-0.29
686,-0.12,0.16,-0.08,0.20,-0.20,-0.44,-0.32,-0.28,-0.28
692,-0.08,0.18,-0.08,0.18,-0.18,-0.43,-0.26,-0.26,-0.26
699,-0.05,0.20,-0.08,0.17,-0.17,-0.41,-0.22,-0.25,-0.25
706,-0.08,0.16,-0.09,0.16,-0.16,-0.39,-0.23,-0.24,-0.24
713,-0.12,0.12,-0.09,0.14,-0.14,-0.37,-0.26,-0.24,-0.24
721,-0.08,0.15,-0.10,0.13,-0.13,-0.34,-0.21,-0.23,-0.23
728,-0.10,0.13,-0.10,0.13,-0.13,-0.33,-0.22,-0.23,-0.23
735,-0.13,0.10,-0.11,0.12,-0.12,-0.31,-0.25,-0.23,-0.23
742,-0.10,0.13,-0.11,0.12,-0.12,-0.29,-0.22,-0.23,-0.23
750,-0.14,0.09,-0.11,0.12,-0.12,-0.27,-0.26,-0.23,-0.23
757,-0.13,0.11,-0.11,0.12,-0.12,-0.25,-0.25,-0.23,-0.23
765,-0.09,0.15,-0.11,0.13,-0.13,-0.23,-0.21,-0.24,-0.24
773,-0.08,0.16,-0.11,0.13,-0.13,-0.21,-0.21,-0.24,-0.24
780,-0.15,0.10,-0.11,0.14,-0.14,-0.19,-0.28,-0.25,-0.25
788,-0.12,0.13,-0.11,0.14,-0.14,-0.18,-0.26,-0.25,-0.25
796,-0.08,0.18,-0.11,0.14,-0.14,-0.16,-0.22,-0.25,-0.25
804,-0.11,0.15,-0.12,0.14,-0.14,-0.14,-0.25,-0.26,-0.26
812,-0.16,0.10,-0.12,0.14,-0.14,-0.12,-0.30,-0.26,-0.26
820,-0.13,0.13,-0.12,0.14,-0.14,-0.10,-0.26,-0.26,-0.26
828,-0.10,0.16,-0.13,0.13,-0.13,-0.09,-0.23,-0.26,-0.26
837,-0.13,0.13,-0.13,0.13,-0.13,-0.07,-0.25,-0.26,-0.26
845,-0.17,0.09,-0.14,0.12,-0.12,-0.05,-0.29,-0.26,-0.26
853,-0.16,0.10,-0.14,0.12,-0.12,-0.03,-0.27,-0.25,-0.25
862,-0.12,0.13,-0.14,0.11,-0.11,-0.02,-0.23,-0.25,-0.25
871,-0.11,0.13,-0.14,0.10,-0.10,-0.00,-0.21,-0.24,-0.24
879,-0.14,0.10,-0.14,0.09,-0.09,0.01,-0.23,-0.23,-0.23
888,-0.16,0.07,-0.14,0.09,-0.09,0.03,-0.24,-0.23,-0.22
897,-0.14,0.08,-0.13,0.08,-0.08,0.05,-0.22,-0.21,-0.21
906,-0.15,0.05,-0.13,0.07,-0.07,0.06,-0.22,-0.20,-0.20
915,-0.13,0.06,-0.12,0.07,-0.07,0.08,-0.19,-0.19,-0.19
924,-0.11,0.06,-0.11,0.06,-0.06,0.09,-0.17,-0.17,-0.17
933,-0.08,0.08,-0.10,0.05,-0.05,0.10,-0.13,-0.16,-0.16
943,-0.09,0.05,-0.09,0.05,-0.05,0.12,-0.13,-0.14,-0.14
952,-0.08,0.04,-0.08,0.04,-0.04,0.13,-0.12,-0.12,-0.12
962,-0.08,0.02,-0.06,0.03,-0.03,0.14,-0.11,-0.09,-0.09
971,-0.05,0.02,-0.05,0.02,-0.02,0.15,-0.07,-0.07,-0.07
981,-0.04,0.00,-0.04,0.01,-0.01,0.16,-0.04,-0.04,-0.04
991,-0.02,-0.00,-0.02,-0.01,0.01,0.17,-0.01,-0.01,-0.01
1001,0.00,-0.01,-0.00,-0.02,0.02,0.18,0.02,0.02,0.02
1011,0.02,-0.03,0.01,-0.04,0.04,0.19,0.06,0.05,0.05
1021,0.02,-0.06,0.03,-0.05,0.05,0.20,0.07,0.08,0.08
1031,0.05,-0.07,0.05,-0.07,0.07,0.20,0.12,0.12,0.12
1041,0.07,-0.09,0.08,-0.08,0.08,0.21,0.16,0.16,0.16
1052,0.10,-0.10,0.10,-0.10,0.10,0.21,0.20,0.20,0.20
1062,0.13,-0.11,0.13,-0.12,0.12,0.21,0.25,0.24,0.24
1073,0.15,-0.13,0.16,-0.13,0.13,0.22,0.28,0.29,0.29
1084,0.18,-0.15,0.19,-0.15,0.15,0.22,0.33,0.33,0.33
1094,0.21,-0.17,0.22,-0.16,0.16,0.21,0.37,0.38,0.38
1105,0.25,-0.17,0.25,-0.18,0.18,0.21,0.43,0.42,0.42
1116,0.28,-0.19,0.28,-0.19,0.19,0.21,0.47,0.47,0.47
1128,0.31,-0.21,0.31,-0.21,0.21,0.20,0.52,0.52,0.52
1139,0.35,-0.21,0.34,-0.22,0.22,0.19,0.58,0.57,0.57
1150,0.38,-0.23,0.37,-0.24,0.24,0.18,0.62,0.61,0.61
1162,0.41,-0.25,0.40,-0.25,0.25,0.17,0.67,0.66,0.66
1173,0.44,-0.26,0.44,-0.27,0.27,0.15,0.71,0.70,0.70
1185,0.47,-0.27,0.47,-0.27,0.27,0.13,0.75,0.75,0.75
1197,0.50,-0.28,0.51,-0.28,0.28,0.11,0.78,0.79,0.79
1209,0.53,-0.29,0.55,-0.27,0.27,0.09,0.80,0.82,0.82
1221,0.59,-0.27,0.60,-0.26,0.26,0.07,0.85,0.86,0.86
1233,0.65,-0.24,0.66,-0.23,0.23,0.04,0.89,0.89,0.89
1246,0.74,-0.18,0.72,-0.20,0.20,0.01,0.94,0.92,0.92
1258,0.79,-0.15,0.78,-0.16,0.16,-0.02,0.96,0.95,0.95
1271,0.84,-0.13,0.85,-0.12,0.12,-0.06,0.96,0.97,0.97
1283,0.89,-0.10,0.92,-0.06,0.06,-0.10,0.96,0.99,0.99
1296,1.03,0.03,1.00,-0.00,0.00,-0.14,1.04,1.00,1.00
1309,1.09,0.08,1.08,0.06,-0.06,-0.18,1.03,1.01,1.02
1322,1.13,0.11,1.15,0.13,-0.13,-0.23,1.00,1.02,1.02
1335,1.22,0.19,1.24,0.21,-0.21,-0.28,1.02,1.03,1.03
1349,1.34,0.31,1.32,0.29,-0.29,-0.34,1.06,1.03,1.03
1362,1.38,0.35,1.40,0.37,-0.37,-0.40,1.01,1.03,1.03
1376,1.49,0.46,1.49,0.46,-0.46,-0.46,1.04,1.03,1.03
1390,1.59,0.56,1.58,0.54,-0.54,-0.52,1.05,1.03,1.03
1404,1.67,0.64,1.66,0.63,-0.63,-0.59,1.04,1.03,1.03
1418,1.71,0.69,1.75,0.73,-0.73,-0.66,0.99,1.03,1.03
1432,1.88,0.86,1.84,0.82,-0.82,-0.74,1.06,1.02,1.02
1446,1.93,0.91,1.93,0.91,-0.91,-0.81,1.02,1.02,1.02
1461,1.98,0.96,2.02,1.00,-1.00,-0.89,0.98,1.02,1.02
1475,2.16,1.14,2.12,1.09,-1.09,-0.97,1.07,1.03,1.03
1490,2.20,1.17,2.21,1.18,-1.18,-1.06,1.02,1.03,1.03
1505,2.30,1.26,2.31,1.27,-1.27,-1.15,1.03,1.04,1.04
1520,2.43,1.38,2.42,1.36,-1.36,-1.24,1.07,1.05,1.05
1535,2.51,1.44,2.52,1.45,-1.45,-1.33,1.06,1.07,1.07
1550,2.61,1.52,2.63,1.53,-1.53,-1.42,1.08,1.09,1.09
1566,2.74,1.62,2.74,1.62,-1.62,-1.51,1.12,1.12,1.12
1582,2.87,1.72,2.85,1.70,-1.70,-1.61,1.17,1.16,1.15
1597,2.97,1.78,2.97,1.78,-1.78,-1.69,1.20,1.19,1.19
1613,3.08,1.84,3.09,1.85,-1.85,-1.79,1.23,1.24,1.24
1629,3.21,1.92,3.22,1.92,-1.92,-1.88,1.29,1.29,1.29
1646,3.34,1.99,3.34,1.99,-1.99,-1.97,1.35,1.35,1.35
1662,3.46,2.05,3.47,2.06,-2.06,-2.05,1.40,1.41,1.41
1679,3.61,2.13,3.61,2.12,-2.12,-2.13,1.49,1.48,1.48
1696,3.74,2.18,3.74,2.18,-2.18,-2.21,1.56,1.56,1.56
1713,3.89,2.25,3.88,2.24,-2.24,-2.28,1.65,1.64,1.64
1730,3.99,2.27,4.02,2.29,-2.29,-2.35,1.70,1.73,1.73
1747,4.15,2.33,4.15,2.34,-2.34,-2.40,1.82,1.82,1.82
1764,4.29,2.38,4.28,2.37,-2.37,-2.45,1.92,1.91,1.91
1782,4.41,2.40,4.41,2.40,-2.40,-2.49,2.01,2.01,2.01
1800,4.57,2.46,4.53,2.42,-2.42,-2.52,2.15,2.11,2.11
1818,4.64,2.42,4.64,2.43,-2.43,-2.54,2.21,2.22,2.22
1836,4.75,2.43,4.75,2.43,-2.43,-2.55,2.32,2.32,2.32
1854,4.85,2.42,4.85,2.42,-2.42,-2.55,2.43,2.43,2.43
