frequency,raw,error,smoothed,error_smoothed,equalization,parametric_eq,equalized_raw,equalized_smoothed,target
20,7.16,2.50,7.26,2.63,-2.63,-1.48,4.53,4.63,4.66
21,7.33,2.67,7.37,2.74,-2.74,-1.71,4.59,4.63,4.66
22,7.49,2.84,7.47,2.84,-2.84,-1.97,4.65,4.63,4.65
23,7.63,2.99,7.56,2.93,-2.93,-2.24,4.69,4.62,4.64
24,7.72,3.08,7.64,3.02,-3.02,-2.53,4.69,4.62,4.63
25,7.79,3.16,7.72,3.11,-3.11,-2.82,4.68,4.61,4.62
26,7.84,3.22,7.79,3.19,-3.19,-3.12,4.65,4.61,4.61
27,7.86,3.25,7.86,3.26,-3.26,-3.40,4.60,4.60,4.60
28,7.88,3.28,7.91,3.32,-3.32,-3.65,4.55,4.59,4.59
29,7.93,3.35,7.96,3.39,-3.39,-3.86,4.54,4.58,4.58
30,7.98,3.41,8.01,3.44,-3.44,-4.01,4.54,4.57,4.57
31,8.02,3.46,8.04,3.49,-3.49,-4.11,4.53,4.55,4.56
32,8.07,3.52,8.06,3.53,-3.53,-4.15,4.54,4.53,4.54
33,8.08,3.55,8.07,3.56,-3.56,-4.14,4.52,4.51,4.53
34,8.12,3.60,8.09,3.59,-3.59,-4.09,4.53,4.50,4.51
35,8.12,3.62,8.11,3.62,-3.62,-4.02,4.50,4.49,4.50
36,8.12,3.64,8.12,3.65,-3.65,-3.92,4.47,4.48,4.48
37,8.12,3.66,8.13,3.67,-3.67,-3.83,4.45,4.46,4.46
38,8.12,3.68,8.13,3.68,-3.68,-3.73,4.44,4.45,4.44
39,8.12,3.70,8.11,3.69,-3.69,-3.64,4.43,4.43,4.42
40,8.12,3.72,8.09,3.69,-3.69,-3.56,4.42,4.40,4.40
41,8.07,3.69,8.07,3.70,-3.70,-3.50,4.37,4.37,4.38
42,8.07,3.71,8.04,3.69,-3.69,-3.45,4.37,4.35,4.36
43,8.06,3.73,8.01,3.69,-3.69,-3.41,4.37,4.32,4.33
44,7.98,3.67,7.98,3.68,-3.68,-3.39,4.30,4.29,4.31
45,7.93,3.65,7.94,3.68,-3.68,-3.38,4.25,4.27,4.28
46,7.88,3.63,7.91,3.67,-3.67,-3.38,4.21,4.24,4.25
47,7.83,3.60,7.88,3.66,-3.66,-3.40,4.16,4.21,4.22
48,7.79,3.59,7.84,3.66,-3.66,-3.43,4.13,4.18,4.19
49,7.79,3.62,7.81,3.65,-3.65,-3.46,4.13,4.15,4.16
50,7.79,3.66,7.77,3.65,-3.65,-3.51,4.14,4.12,4.13
51,7.74,3.64,7.74,3.65,-3.65,-3.56,4.09,4.09,4.10
52,7.74,3.67,7.70,3.65,-3.65,-3.61,4.09,4.06,4.07
53,7.70,3.67,7.67,3.64,-3.64,-3.67,4.05,4.02,4.03
54,7.65,3.65,7.64,3.64,-3.64,-3.73,4.00,3.99,3.99
55,7.60,3.64,7.60,3.64,-3.64,-3.78,3.96,3.96,3.96
56,7.57,3.65,7.56,3.64,-3.64,-3.83,3.93,3.92,3.92
57,7.52,3.64,7.52,3.63,-3.63,-3.88,3.88,3.88,3.88
58,7.47,3.63,7.47,3.63,-3.63,-3.93,3.84,3.84,3.84
59,7.43,3.63,7.42,3.63,-3.63,-3.96,3.80,3.79,3.80
60,7.37,3.61,7.37,3.63,-3.63,-3.99,3.74,3.75,3.76
61,7.33,3.61,7.33,3.62,-3.62,-4.01,3.70,3.71,3.71
62,7.28,3.61,7.29,3.63,-3.63,-4.02,3.65,3.66,3.67
63,7.23,3.60,7.25,3.63,-3.63,-4.02,3.60,3.62,3.63
64,7.19,3.61,7.21,3.64,-3.64,-4.02,3.55,3.57,3.58
65,7.15,3.61,7.17,3.64,-3.64,-4.01,3.50,3.53,3.53
66,7.14,3.65,7.13,3.65,-3.65,-3.99,3.49,3.48,3.49
67,7.09,3.65,7.10,3.66,-3.66,-3.96,3.43,3.43,3.44
68,7.09,3.70,7.06,3.67,-3.67,-3.94,3.41,3.38,3.39
69,7.04,3.70,7.02,3.68,-3.68,-3.90,3.35,3.34,3.34
70,7.00,3.71,6.98,3.70,-3.70,-3.87,3.30,3.29,3.29
71,6.95,3.71,6.94,3.71,-3.71,-3.83,3.24,3.24,3.24
72,6.91,3.72,6.90,3.72,-3.72,-3.79,3.19,3.19,3.19
73,6.86,3.72,6.86,3.73,-3.73,-3.76,3.13,3.14,3.14
74,6.81,3.72,6.82,3.73,-3.73,-3.72,3.07,3.08,3.09
75,6.77,3.74,6.77,3.74,-3.74,-3.69,3.02,3.03,3.03
76,6.72,3.74,6.73,3.75,-3.75,-3.65,2.97,2.97,2.98
77,6.67,3.74,6.68,3.76,-3.76,-3.62,2.91,2.92,2.93
78,6.63,3.75,6.64,3.77,-3.77,-3.60,2.86,2.87,2.87
79,6.60,3.78,6.59,3.78,-3.78,-3.57,2.82,2.82,2.82
80,6.55,3.78,6.55,3.78,-3.78,-3.55,2.76,2.76,2.77
81,6.51,3.79,6.50,3.79,-3.79,-3.54,2.72,2.71,2.71
82,6.47,3.81,6.45,3.80,-3.80,-3.52,2.67,2.66,2.66
83,6.42,3.81,6.41,3.80,-3.80,-3.51,2.61,2.60,2.61
84,6.37,3.82,6.36,3.81,-3.81,-3.51,2.56,2.55,2.55
85,6.32,3.82,6.31,3.81,-3.81,-3.50,2.50,2.50,2.50
86,6.27,3.82,6.26,3.82,-3.82,-3.51,2.45,2.44,2.44
87,6.21,3.82,6.21,3.83,-3.83,-3.51,2.38,2.39,2.39
88,6.15,3.81,6.17,3.83,-3.83,-3.52,2.32,2.33,2.34
89,6.11,3.82,6.12,3.84,-3.84,-3.53,2.27,2.28,2.28
90,6.07,3.84,6.07,3.84,-3.84,-3.55,2.23,2.23,2.23
91,6.02,3.84,6.02,3.85,-3.85,-3.56,2.17,2.17,2.18
92,5.98,3.85,5.98,3.86,-3.86,-3.58,2.12,2.12,2.12
93,5.94,3.87,5.94,3.87,-3.87,-3.61,2.07,2.07,2.07
94,5.90,3.88,5.90,3.88,-3.88,-3.63,2.02,2.02,2.02
95,5.87,3.90,5.86,3.90,-3.90,-3.66,1.97,1.97,1.97
96,5.83,3.91,5.83,3.91,-3.91,-3.70,1.92,1.92,1.92
97,5.79,3.92,5.79,3.93,-3.93,-3.73,1.86,1.87,1.87
98,5.75,3.93,5.76,3.94,-3.94,-3.76,1.80,1.81,1.82
99,5.74,3.97,5.72,3.96,-3.96,-3.80,1.78,1.76,1.77
100,5.69,3.97,5.68,3.98,-3.98,-3.84,1.71,1.71,1.72
101,5.65,3.98,5.64,3.99,-3.99,-3.88,1.66,1.65,1.67
102,5.62,4.00,5.60,4.01,-4.01,-3.92,1.61,1.60,1.62
104,5.56,4.03,5.57,4.02,-4.02,-4.00,1.54,1.55,1.52
105,5.53,4.05,5.52,4.03,-4.03,-4.04,1.50,1.49,1.48
106,5.48,4.05,5.49,4.04,-4.04,-4.08,1.44,1.44,1.43
107,5.45,4.06,5.45,4.05,-4.05,-4.13,1.40,1.39,1.39
108,5.40,4.06,5.40,4.06,-4.06,-4.17,1.34,1.34,1.34
109,5.36,4.06,5.36,4.07,-4.07,-4.21,1.29,1.30,1.30
110,5.32,4.07,5.32,4.07,-4.07,-4.24,1.25,1.25,1.25
111,5.27,4.06,5.28,4.08,-4.08,-4.28,1.19,1.20,1.21
112,5.25,4.08,5.24,4.08,-4.08,-4.32,1.17,1.16,1.17
113,5.20,4.07,5.20,4.08,-4.08,-4.35,1.12,1.11,1.12
114,5.16,4.08,5.15,4.09,-4.09,-4.38,1.07,1.07,1.08
115,5.13,4.09,5.11,4.09,-4.09,-4.41,1.04,1.02,1.04
117,5.06,4.10,5.07,4.09,-4.09,-4.46,0.97,0.98,0.96
118,5.01,4.09,5.02,4.09,-4.09,-4.48,0.91,0.93,0.92
119,4.99,4.10,4.98,4.10,-4.10,-4.49,0.89,0.89,0.88
120,4.94,4.09,4.94,4.10,-4.10,-4.51,0.84,0.84,0.85
121,4.92,4.11,4.90,4.10,-4.10,-4.52,0.82,0.80,0.81
123,4.83,4.09,4.85,4.10,-4.10,-4.53,0.73,0.75,0.74
124,4.81,4.11,4.81,4.10,-4.10,-4.53,0.71,0.71,0.70
125,4.76,4.09,4.76,4.10,-4.10,-4.53,0.66,0.66,0.67
126,4.74,4.10,4.72,4.10,-4.10,-4.53,0.64,0.62,0.63
128,4.66,4.09,4.68,4.10,-4.10,-4.51,0.56,0.58,0.57
129,4.64,4.10,4.63,4.09,-4.09,-4.49,0.54,0.54,0.53
130,4.60,4.09,4.59,4.09,-4.09,-4.48,0.51,0.50,0.50
131,4.55,4.08,4.54,4.09,-4.09,-4.46,0.46,0.46,0.47
133,4.49,4.08,4.50,4.08,-4.08,-4.41,0.41,0.42,0.41
134,4.46,4.08,4.45,4.07,-4.07,-4.39,0.38,0.38,0.38
135,4.42,4.06,4.41,4.07,-4.07,-4.36,0.35,0.34,0.35
137,4.36,4.06,4.36,4.06,-4.06,-4.30,0.30,0.30,0.30
138,4.32,4.05,4.32,4.05,-4.05,-4.27,0.27,0.27,0.27
140,4.26,4.04,4.27,4.04,-4.04,-4.20,0.22,0.23,0.22
141,4.22,4.03,4.22,4.03,-4.03,-4.17,0.19,0.19,0.19
142,4.19,4.02,4.18,4.02,-4.02,-4.13,0.17,0.16,0.17
144,4.13,4.01,4.13,4.01,-4.01,-4.06,0.12,0.12,0.12
145,4.09,4.00,4.08,4.00,-4.00,-4.03,0.09,0.09,0.09
147,4.04,3.99,4.03,3.98,-3.98,-3.95,0.06,0.05,0.05
148,3.99,3.96,3.99,3.97,-3.97,-3.92,0.02,0.02,0.02
150,3.93,3.95,3.94,3.95,-3.95,-3.85,-0.02,-0.02,-0.02
151,3.90,3.94,3.89,3.94,-3.94,-3.81,-0.04,-0.05,-0.04
153,3.84,3.92,3.85,3.92,-3.92,-3.74,-0.08,-0.08,-0.08
154,3.80,3.90,3.80,3.91,-3.91,-3.71,-0.11,-0.11,-0.10
156,3.74,3.88,3.75,3.89,-3.89,-3.64,-0.15,-0.14,-0.14
157,3.71,3.87,3.71,3.87,-3.87,-3.61,-0.16,-0.17,-0.16
159,3.66,3.85,3.66,3.86,-3.86,-3.55,-0.20,-0.19,-0.20
160,3.62,3.83,3.62,3.84,-3.84,-3.52,-0.22,-0.22,-0.21
162,3.58,3.83,3.57,3.82,-3.82,-3.47,-0.24,-0.25,-0.25
164,3.52,3.80,3.52,3.80,-3.80,-3.42,-0.28,-0.28,-0.28
165,3.50,3.79,3.48,3.78,-3.78,-3.39,-0.28,-0.30,-0.30
167,3.44,3.77,3.43,3.76,-3.76,-3.35,-0.32,-0.33,-0.33
169,3.38,3.74,3.39,3.74,-3.74,-3.30,-0.36,-0.35,-0.36
170,3.36,3.73,3.34,3.72,-3.72,-3.28,-0.36,-0.38,-0.37
172,3.30,3.70,3.30,3.70,-3.70,-3.25,-0.40,-0.40,-0.40
174,3.24,3.67,3.25,3.68,-3.68,-3.22,-0.44,-0.43,-0.43
175,3.21,3.65,3.21,3.66,-3.66,-3.20,-0.45,-0.45,-0.44
177,3.16,3.62,3.17,3.64,-3.64,-3.17,-0.48,-0.47,-0.47
179,3.13,3.62,3.12,3.62,-3.62,-3.15,-0.49,-0.49,-0.49
181,3.08,3.59,3.08,3.59,-3.59,-3.13,-0.52,-0.51,-0.51
183,3.03,3.56,3.04,3.57,-3.57,-3.11,-0.55,-0.53,-0.54
184,3.01,3.56,3.00,3.55,-3.55,-3.10,-0.54,-0.55,-0.55
186,2.96,3.53,2.96,3.53,-3.53,-3.09,-0.57,-0.57,-0.57
188,2.93,3.52,2.92,3.51,-3.51,-3.08,-0.58,-0.59,-0.59
190,2.89,3.50,2.88,3.49,-3.49,-3.07,-0.60,-0.61,-0.61
192,2.83,3.46,2.84,3.46,-3.46,-3.07,-0.64,-0.63,-0.63
194,2.80,3.44,2.79,3.44,-3.44,-3.07,-0.64,-0.65,-0.65
196,2.75,3.41,2.75,3.42,-3.42,-3.06,-0.67,-0.66,-0.66
198,2.71,3.39,2.71,3.39,-3.39,-3.07,-0.68,-0.68,-0.68
200,2.68,3.38,2.67,3.37,-3.37,-3.07,-0.69,-0.70,-0.70
202,2.63,3.34,2.63,3.34,-3.34,-3.07,-0.71,-0.71,-0.71
204,2.59,3.32,2.58,3.31,-3.31,-3.08,-0.72,-0.73,-0.73
206,2.54,3.28,2.54,3.28,-3.28,-3.08,-0.75,-0.75,-0.74
208,2.49,3.25,2.50,3.26,-3.26,-3.09,-0.77,-0.76,-0.76
210,2.46,3.23,2.45,3.23,-3.23,-3.10,-0.77,-0.77,-0.77
212,2.41,3.19,2.41,3.20,-3.20,-3.11,-0.79,-0.79,-0.79
214,2.38,3.18,2.37,3.17,-3.17,-3.12,-0.79,-0.80,-0.80
216,2.33,3.14,2.33,3.14,-3.14,-3.12,-0.82,-0.81,-0.81
218,2.30,3.12,2.29,3.12,-3.12,-3.13,-0.82,-0.83,-0.82
221,2.24,3.08,2.25,3.09,-3.09,-3.14,-0.85,-0.84,-0.84
223,2.20,3.05,2.21,3.06,-3.06,-3.15,-0.86,-0.85,-0.85
225,2.18,3.04,2.17,3.03,-3.03,-3.16,-0.86,-0.86,-0.86
227,2.15,3.02,2.14,3.01,-3.01,-3.16,-0.86,-0.87,-0.87
229,2.10,2.98,2.10,2.98,-2.98,-3.16,-0.88,-0.88,-0.88
232,2.06,2.95,2.06,2.95,-2.95,-3.17,-0.90,-0.89,-0.89
234,2.03,2.93,2.02,2.93,-2.93,-3.17,-0.90,-0.90,-0.90
236,1.99,2.90,1.98,2.90,-2.90,-3.16,-0.91,-0.92,-0.91
239,1.94,2.86,1.95,2.87,-2.87,-3.16,-0.93,-0.92,-0.93
241,1.92,2.85,1.91,2.84,-2.84,-3.15,-0.93,-0.93,-0.93
244,1.87,2.81,1.87,2.82,-2.82,-3.14,-0.95,-0.94,-0.95
246,1.83,2.78,1.84,2.79,-2.79,-3.13,-0.96,-0.95,-0.95
248,1.81,2.77,1.80,2.76,-2.76,-3.11,-0.95,-0.96,-0.96
251,1.76,2.73,1.76,2.73,-2.73,-3.09,-0.97,-0.97,-0.97
253,1.73,2.70,1.72,2.70,-2.70,-3.07,-0.97,-0.98,-0.98
256,1.68,2.66,1.68,2.67,-2.67,-3.04,-0.99,-0.99,-0.99
259,1.64,2.63,1.64,2.64,-2.64,-3.00,-1.00,-0.99,-1.00
261,1.62,2.62,1.61,2.61,-2.61,-2.98,-0.99,-1.00,-1.00
264,1.56,2.57,1.57,2.58,-2.58,-2.94,-1.02,-1.01,-1.01
266,1.54,2.55,1.53,2.55,-2.55,-2.91,-1.01,-1.02,-1.02
269,1.49,2.51,1.49,2.52,-2.52,-2.86,-1.03,-1.02,-1.02
272,1.45,2.48,1.46,2.49,-2.49,-2.81,-1.04,-1.03,-1.03
274,1.42,2.45,1.42,2.46,-2.46,-2.78,-1.04,-1.04,-1.04
277,1.39,2.43,1.38,2.43,-2.43,-2.73,-1.04,-1.05,-1.04
280,1.35,2.40,1.35,2.40,-2.40,-2.68,-1.05,-1.05,-1.05
283,1.31,2.36,1.31,2.37,-2.37,-2.62,-1.06,-1.06,-1.06
286,1.26,2.32,1.27,2.34,-2.34,-2.56,-1.08,-1.06,-1.06
288,1.25,2.32,1.24,2.30,-2.30,-2.53,-1.06,-1.07,-1.07
291,1.21,2.28,1.20,2.27,-2.27,-2.47,-1.07,-1.07,-1.07
294,1.17,2.25,1.16,2.24,-2.24,-2.41,-1.08,-1.08,-1.08
297,1.12,2.20,1.13,2.21,-2.21,-2.36,-1.09,-1.09,-1.08
300,1.09,2.18,1.09,2.18,-2.18,-2.30,-1.09,-1.09,-1.09
303,1.06,2.15,1.05,2.15,-2.15,-2.24,-1.09,-1.10,-1.10
306,1.03,2.13,1.02,2.12,-2.12,-2.19,-1.09,-1.10,-1.10
309,0.98,2.08,0.98,2.09,-2.09,-2.13,-1.11,-1.11,-1.11
312,0.95,2.06,0.95,2.06,-2.06,-2.08,-1.11,-1.11,-1.11
316,0.90,2.01,0.91,2.03,-2.03,-2.01,-1.13,-1.11,-1.11
319,0.87,1.99,0.88,2.00,-2.00,-1.96,-1.13,-1.12,-1.12
322,0.84,1.96,0.85,1.97,-1.97,-1.91,-1.13,-1.12,-1.12
325,0.82,1.94,0.82,1.94,-1.94,-1.86,-1.12,-1.12,-1.12
328,0.80,1.92,0.79,1.91,-1.91,-1.81,-1.11,-1.12,-1.12
332,0.75,1.87,0.76,1.88,-1.88,-1.75,-1.13,-1.12,-1.12
335,0.74,1.86,0.72,1.85,-1.85,-1.70,-1.11,-1.12,-1.12
338,0.70,1.82,0.69,1.82,-1.82,-1.66,-1.12,-1.12,-1.12
342,0.66,1.78,0.66,1.79,-1.79,-1.60,-1.13,-1.12,-1.12
345,0.65,1.77,0.63,1.75,-1.75,-1.56,-1.11,-1.12,-1.12
349,0.61,1.73,0.60,1.72,-1.72,-1.51,-1.11,-1.12,-1.12
352,0.57,1.68,0.57,1.69,-1.69,-1.47,-1.12,-1.12,-1.12
356,0.54,1.65,0.54,1.66,-1.66,-1.42,-1.12,-1.12,-1.11
359,0.52,1.63,0.51,1.62,-1.62,-1.38,-1.11,-1.11,-1.11
363,0.47,1.58,0.48,1.59,-1.59,-1.34,-1.12,-1.11,-1.11
366,0.45,1.55,0.45,1.56,-1.56,-1.30,-1.11,-1.11,-1.11
370,0.42,1.52,0.42,1.53,-1.53,-1.26,-1.11,-1.11,-1.10
374,0.38,1.48,0.39,1.49,-1.49,-1.22,-1.12,-1.10,-1.10
377,0.38,1.47,0.36,1.46,-1.46,-1.19,-1.08,-1.10,-1.10
381,0.33,1.42,0.33,1.43,-1.43,-1.15,-1.10,-1.10,-1.09
385,0.31,1.40,0.31,1.40,-1.40,-1.11,-1.09,-1.09,-1.09
389,0.28,1.36,0.28,1.37,-1.37,-1.08,-1.09,-1.09,-1.08
393,0.27,1.35,0.26,1.34,-1.34,-1.04,-1.07,-1.08,-1.08
397,0.24,1.31,0.23,1.30,-1.30,-1.01,-1.07,-1.07,-1.08
401,0.20,1.27,0.21,1.27,-1.27,-0.98,-1.07,-1.07,-1.07
405,0.19,1.25,0.18,1.24,-1.24,-0.95,-1.05,-1.06,-1.06
409,0.14,1.19,0.15,1.21,-1.21,-0.92,-1.07,-1.05,-1.06
413,0.13,1.18,0.13,1.18,-1.18,-0.89,-1.05,-1.05,-1.05
417,0.10,1.14,0.10,1.14,-1.14,-0.86,-1.05,-1.04,-1.04
421,0.10,1.13,0.08,1.11,-1.11,-0.83,-1.01,-1.03,-1.03
425,0.05,1.07,0.05,1.08,-1.08,-0.81,-1.03,-1.03,-1.02
430,0.03,1.04,0.03,1.05,-1.05,-0.78,-1.02,-1.02,-1.02
434,-0.00,1.01,0.00,1.01,-1.01,-0.75,-1.02,-1.01,-1.01
438,-0.02,0.98,-0.02,0.98,-0.98,-0.73,-1.01,-1.01,-1.00
443,-0.04,0.95,-0.04,0.95,-0.95,-0.70,-1.00,-1.00,-0.99
447,-0.06,0.93,-0.07,0.92,-0.92,-0.68,-0.99,-0.99,-0.99
451,-0.09,0.89,-0.09,0.89,-0.89,-0.66,-0.99,-0.98,-0.98
456,-0.13,0.84,-0.11,0.86,-0.86,-0.64,-1.00,-0.98,-0.98
460,-0.14,0.83,-0.14,0.83,-0.83,-0.62,-0.98,-0.97,-0.97
465,-0.14,0.82,-0.16,0.81,-0.81,-0.60,-0.95,-0.96,-0.96
470,-0.18,0.77,-0.18,0.78,-0.78,-0.58,-0.96,-0.95,-0.96
474,-0.18,0.77,-0.20,0.75,-0.75,-0.56,-0.93,-0.95,-0.95
479,-0.23,0.71,-0.22,0.72,-0.72,-0.54,-0.95,-0.94,-0.94
484,-0.23,0.70,-0.24,0.69,-0.69,-0.52,-0.92,-0.93,-0.93
489,-0.28,0.64,-0.26,0.66,-0.66,-0.50,-0.94,-0.92,-0.92
494,-0.28,0.63,-0.28,0.63,-0.63,-0.49,-0.91,-0.91,-0.91
499,-0.29,0.60,-0.30,0.60,-0.60,-0.47,-0.89,-0.90,-0.90
504,-0.32,0.56,-0.32,0.57,-0.57,-0.45,-0.89,-0.88,-0.88
509,-0.32,0.55,-0.34,0.54,-0.54,-0.44,-0.86,-0.87,-0.87
514,-0.37,0.48,-0.35,0.51,-0.51,-0.42,-0.88,-0.86,-0.85
519,-0.37,0.47,-0.37,0.48,-0.48,-0.41,-0.85,-0.85,-0.84
524,-0.37,0.46,-0.38,0.45,-0.45,-0.39,-0.82,-0.84,-0.83
529,-0.39,0.42,-0.39,0.43,-0.43,-0.38,-0.82,-0.82,-0.82
535,-0.42,0.38,-0.41,0.40,-0.40,-0.37,-0.82,-0.81,-0.80
540,-0.42,0.37,-0.42,0.37,-0.37,-0.35,-0.79,-0.79,-0.79
545,-0.42,0.36,-0.44,0.34,-0.34,-0.34,-0.76,-0.78,-0.78
551,-0.46,0.30,-0.45,0.31,-0.31,-0.33,-0.77,-0.76,-0.77
556,-0.46,0.29,-0.47,0.28,-0.28,-0.32,-0.74,-0.75,-0.75
562,-0.46,0.27,-0.48,0.25,-0.25,-0.31,-0.71,-0.73,-0.74
568,-0.51,0.21,-0.50,0.22,-0.22,-0.29,-0.73,-0.71,-0.72
573,-0.51,0.19,-0.51,0.18,-0.18,-0.28,-0.70,-0.70,-0.70
579,-0.51,0.17,-0.53,0.15,-0.15,-0.27,-0.66,-0.68,-0.68
585,-0.56,0.10,-0.54,0.12,-0.12,-0.26,-0.68,-0.66,-0.66
591,-0.56,0.08,-0.56,0.09,-0.09,-0.25,-0.65,-0.64,-0.64
596,-0.56,0.06,-0.57,0.06,-0.06,-0.24,-0.62,-0.63,-0.62
602,-0.59,0.01,-0.59,0.03,-0.03,-0.23,-0.62,-0.61,-0.60
608,-0.60,-0.01,-0.60,-0.00,0.00,-0.22,-0.60,-0.60,-0.59
615,-0.60,-0.03,-0.61,-0.03,0.03,-0.21,-0.58,-0.58,-0.57
621,-0.60,-0.04,-0.62,-0.05,0.05,-0.20,-0.55,-0.57,-0.56
627,-0.63,-0.09,-0.62,-0.07,0.07,-0.19,-0.56,-0.55,-0.55
633,-0.64,-0.11,-0.63,-0.09,0.09,-0.19,-0.55,-0.54,-0.54
639,-0.65,-0.12,-0.64,-0.11,0.11,-0.18,-0.55,-0.53,-0.53
646,-0.65,-0.13,-0.64,-0.12,0.12,-0.17,-0.53,-0.52,-0.52
652,-0.65,-0.14,-0.65,-0.14,0.14,-0.16,-0.51,-0.51,-0.51
659,-0.65,-0.15,-0.66,-0.15,0.15,-0.15,-0.50,-0.51,-0.51
665,-0.65,-0.15,-0.66,-0.17,0.17,-0.14,-0.48,-0.50,-0.50
672,-0.65,-0.16,-0.67,-0.18,0.18,-0.13,-0.47,-0.49,-0.49
679,-0.65,-0.17,-0.68,-0.20,0.20,-0.12,-0.45,-0.48,-0.48
686,-0.70,-0.23,-0.68,-0.22,0.22,-0.11,-0.48,-0.46,-0.47
692,-0.70,-0.25,-0.69,-0.24,0.24,-0.10,-0.47,-0.45,-0.45
699,-0.70,-0.26,-0.69,-0.26,0.26,-0.10,-0.45,-0.44,-0.44
706,-0.70,-0.28,-0.70,-0.28,0.28,-0.09,-0.43,-0.42,-0.42
713,-0.70,-0.30,-0.70,-0.29,0.29,-0.08,-0.41,-0.41,-0.41
721,-0.70,-0.31,-0.71,-0.31,0.31,-0.07,-0.39,-0.39,-0.39
728,-0.70,-0.33,-0.71,-0.34,0.34,-0.06,-0.37,-0.38,-0.37
735,-0.71,-0.36,-0.71,-0.36,0.36,-0.05,-0.36,-0.36,-0.36
742,-0.72,-0.38,-0.71,-0.38,0.38,-0.04,-0.35,-0.34,-0.34
750,-0.72,-0.40,-0.72,-0.40,0.40,-0.03,-0.33,-0.32,-0.32
757,-0.72,-0.42,-0.71,-0.41,0.41,-0.03,-0.31,-0.30,-0.30
765,-0.70,-0.42,-0.71,-0.43,0.43,-0.02,-0.27,-0.28,-0.28
773,-0.70,-0.44,-0.71,-0.45,0.45,-0.01,-0.25,-0.26,-0.26
780,-0.70,-0.46,-0.71,-0.47,0.47,0.00,-0.23,-0.24,-0.24
788,-0.70,-0.48,-0.71,-0.49,0.49,0.01,-0.21,-0.22,-0.22
796,-0.70,-0.51,-0.70,-0.50,0.50,0.02,-0.20,-0.20,-0.20
804,-0.70,-0.53,-0.69,-0.52,0.52,0.03,-0.18,-0.17,-0.17
812,-0.70,-0.55,-0.68,-0.53,0.53,0.03,-0.17,-0.15,-0.15
820,-0.69,-0.57,-0.67,-0.55,0.55,0.04,-0.15,-0.13,-0.12
828,-0.65,-0.55,-0.66,-0.56,0.56,0.05,-0.09,-0.10,-0.10
837,-0.65,-0.58,-0.65,-0.57,0.57,0.06,-0.08,-0.08,-0.08
845,-0.62,-0.57,-0.63,-0.58,0.58,0.06,-0.04,-0.05,-0.05
853,-0.60,-0.58,-0.61,-0.59,0.59,0.07,-0.02,-0.03,-0.02
862,-0.58,-0.58,-0.59,-0.59,0.59,0.08,0.01,-0.00,0.00
871,-0.56,-0.59,-0.57,-0.60,0.60,0.08,0.03,0.02,0.03
879,-0.56,-0.61,-0.55,-0.60,0.60,0.09,0.04,0.05,0.05
888,-0.51,-0.59,-0.52,-0.60,0.60,0.10,0.09,0.08,0.08
897,-0.50,-0.61,-0.50,-0.60,0.60,0.10,0.10,0.11,0.10
906,-0.46,-0.59,-0.47,-0.60,0.60,0.10,0.14,0.14,0.13
915,-0.44,-0.60,-0.44,-0.60,0.60,0.11,0.16,0.16,0.16
924,-0.41,-0.60,-0.41,-0.60,0.60,0.11,0.19,0.19,0.19
933,-0.38,-0.60,-0.37,-0.59,0.59,0.11,0.21,0.22,0.22
943,-0.32,-0.57,-0.33,-0.58,0.58,0.11,0.26,0.25,0.25
952,-0.29,-0.58,-0.28,-0.56,0.56,0.11,0.27,0.28,0.28
962,-0.22,-0.54,-0.24,-0.54,0.54,0.11,0.32,0.31,0.32
971,-0.16,-0.51,-0.18,-0.52,0.52,0.11,0.36,0.34,0.35
981,-0.11,-0.49,-0.12,-0.49,0.49,0.11,0.38,0.37,0.38
991,-0.07,-0.49,-0.05,-0.46,0.46,0.11,0.38,0.40,0.42
1001,0.01,-0.44,0.02,-0.42,0.42,0.10,0.42,0.44,0.45
1011,0.08,-0.40,0.10,-0.37,0.37,0.10,0.45,0.47,0.48
1021,0.18,-0.34,0.19,-0.32,0.32,0.09,0.50,0.51,0.51
1031,0.26,-0.29,0.28,-0.26,0.26,0.09,0.52,0.54,0.55
1041,0.37,-0.21,0.37,-0.20,0.20,0.08,0.57,0.58,0.58
1052,0.48,-0.14,0.47,-0.14,0.14,0.07,0.62,0.61,0.62
1062,0.59,-0.06,0.57,-0.08,0.08,0.06,0.66,0.65,0.65
1073,0.70,0.01,0.68,-0.01,0.01,0.05,0.71,0.69,0.69
1084,0.81,0.08,0.79,0.06,-0.06,0.04,0.75,0.73,0.73
1094,0.91,0.14,0.90,0.13,-0.13,0.03,0.78,0.77,0.77
1105,1.02,0.21,1.02,0.20,-0.20,0.01,0.82,0.81,0.81
1116,1.13,0.27,1.13,0.27,-0.27,0.00,0.86,0.86,0.86
1128,1.25,0.34,1.25,0.34,-0.34,-0.02,0.91,0.91,0.91
1139,1.35,0.39,1.37,0.41,-0.41,-0.03,0.94,0.96,0.96
1150,1.48,0.47,1.49,0.48,-0.48,-0.05,1.00,1.01,1.01
1162,1.62,0.55,1.61,0.54,-0.54,-0.06,1.07,1.07,1.07
1173,1.73,0.60,1.74,0.61,-0.61,-0.08,1.12,1.13,1.13
1185,1.85,0.66,1.86,0.67,-0.67,-0.10,1.18,1.19,1.19
1197,1.99,0.74,1.98,0.73,-0.73,-0.12,1.26,1.25,1.25
1209,2.12,0.80,2.10,0.78,-0.78,-0.13,1.34,1.32,1.32
1221,2.25,0.86,2.22,0.83,-0.83,-0.15,1.41,1.39,1.39
1233,2.36,0.90,2.34,0.89,-0.89,-0.17,1.47,1.46,1.46
1246,2.47,0.94,2.46,0.93,-0.93,-0.20,1.53,1.53,1.53
1258,2.58,0.98,2.58,0.98,-0.98,-0.22,1.60,1.60,1.60
1271,2.69,1.01,2.70,1.02,-1.02,-0.24,1.67,1.68,1.68
1283,2.79,1.03,2.82,1.06,-1.06,-0.26,1.72,1.75,1.75
1296,2.92,1.09,2.93,1.10,-1.10,-0.28,1.81,1.83,1.83
1309,3.06,1.15,3.05,1.14,-1.14,-0.30,1.92,1.91,1.91
1322,3.17,1.18,3.16,1.18,-1.18,-0.33,1.99,1.98,1.99
1335,3.28,1.21,3.27,1.21,-1.21,-0.35,2.07,2.06,2.07
1349,3.39,1.24,3.38,1.25,-1.25,-0.38,2.14,2.14,2.14
1362,3.50,1.28,3.49,1.28,-1.28,-0.40,2.22,2.21,2.22
1376,3.61,1.31,3.60,1.31,-1.31,-0.43,2.30,2.29,2.29
1390,3.72,1.35,3.70,1.34,-1.34,-0.45,2.38,2.37,2.37
1404,3.80,1.35,3.81,1.36,-1.36,-0.48,2.43,2.44,2.44
1418,3.91,1.39,3.91,1.39,-1.39,-0.51,2.52,2.52,2.52
1432,4.00,1.40,4.00,1.41,-1.41,-0.53,2.59,2.59,2.59
1446,4.09,1.42,4.10,1.43,-1.43,-0.56,2.66,2.67,2.67
1461,4.19,1.44,4.19,1.44,-1.44,-0.59,2.74,2.75,2.74
1475,4.30,1.48,4.28,1.46,-1.46,-0.62,2.84,2.83,2.82
1490,4.36,1.46,4.37,1.47,-1.47,-0.64,2.89,2.90,2.90
1505,4.47,1.49,4.46,1.47,-1.47,-0.67,2.99,2.99,2.98
1520,4.57,1.50,4.55,1.48,-1.48,-0.70,3.09,3.07,3.07
1535,4.64,1.48,4.64,1.48,-1.48,-0.73,3.16,3.16,3.15
1550,4.73,1.48,4.73,1.48,-1.48,-0.76,3.25,3.25,3.25
1566,4.81,1.47,4.82,1.47,-1.47,-0.79,3.33,3.34,3.34
1582,4.90,1.46,4.91,1.47,-1.47,-0.82,3.43,3.44,3.44
1597,4.98,1.44,4.99,1.46,-1.46,-0.85,3.52,3.54,3.54
1613,5.09,1.45,5.08,1.45,-1.45,-0.88,3.64,3.64,3.64
1629,5.15,1.41,5.17,1.43,-1.43,-0.91,3.71,3.74,3.74
1646,5.27,1.42,5.26,1.42,-1.42,-0.94,3.85,3.84,3.84
1662,5.37,1.42,5.35,1.40,-1.40,-0.97,3.97,3.95,3.95
1679,5.44,1.38,5.44,1.38,-1.38,-1.00,4.06,4.06,4.06
1696,5.55,1.38,5.53,1.36,-1.36,-1.02,4.19,4.17,4.17
1713,5.61,1.33,5.62,1.34,-1.34,-1.05,4.27,4.28,4.28
1730,5.72,1.32,5.71,1.31,-1.31,-1.07,4.41,4.39,4.39
1747,5.79,1.28,5.79,1.28,-1.28,-1.10,4.50,4.51,4.51
1764,5.88,1.25,5.88,1.25,-1.25,-1.12,4.62,4.63,4.63
1782,5.96,1.21,5.97,1.22,-1.22,-1.14,4.74,4.75,4.75
1800,6.06,1.19,6.06,1.19,-1.19,-1.16,4.87,4.87,4.87
1818,6.16,1.17,6.15,1.15,-1.15,-1.17,5.00,5.00,4.99
1836,6.23,1.11,6.24,1.12,-1.12,-1.19,5.11,5.12,5.12
1854,6.33,1.08,6.33,1.08,-1.08,-1.20,5.25,5.25,5.25
1873,6.40,1.02,6.42,1.04,-1.04,-1.21,5.36,5.38,5.38
1892,6.51,1.00,6.50,1.00,-1.00,-1.21,5.51,5.51,5.51
