frequency,raw,error,smoothed,error_smoothed,equalization,parametric_eq,fixed_band_eq,equalized_raw,equalized_smoothed,target
20.00,9.33,2.90,9.33,2.90,-2.90,-0.85,-0.85,6.43,6.43,6.43
20.20,9.30,2.88,9.30,2.88,-2.88,-0.85,-0.87,6.42,6.42,6.42
20.40,9.27,2.86,9.27,2.86,-2.86,-0.85,-0.90,6.41,6.41,6.41
20.61,9.24,2.84,9.24,2.84,-2.84,-0.85,-0.93,6.40,6.40,6.40
20.81,9.21,2.82,9.21,2.82,-2.82,-0.85,-0.96,6.39,6.39,6.39
21.02,9.18,2.80,9.18,2.80,-2.80,-0.85,-0.99,6.38,6.38,6.38
21.23,9.14,2.78,9.14,2.78,-2.78,-0.85,-1.02,6.37,6.37,6.37
21.44,9.10,2.75,9.11,2.75,-2.75,-0.85,-1.05,6.35,6.35,6.36
21.66,9.07,2.73,9.07,2.73,-2.73,-0.84,-1.08,6.34,6.34,6.35
21.87,9.04,2.71,9.04,2.71,-2.71,-0.84,-1.11,6.33,6.33,6.33
22.09,9.01,2.69,9.01,2.69,-2.68,-0.84,-1.15,6.33,6.32,6.32
22.31,8.97,2.66,8.98,2.67,-2.66,-0.84,-1.18,6.31,6.31,6.31
22.54,8.94,2.64,8.94,2.64,-2.64,-0.84,-1.22,6.30,6.30,6.30
22.76,8.91,2.62,8.91,2.62,-2.61,-0.84,-1.25,6.30,6.29,6.29
22.99,8.87,2.58,8.87,2.59,-2.59,-0.84,-1.29,6.28,6.28,6.29
23.22,8.84,2.56,8.84,2.56,-2.57,-0.84,-1.33,6.27,6.27,6.28
23.45,8.80,2.54,8.80,2.54,-2.54,-0.83,-1.37,6.26,6.26,6.27
23.69,8.77,2.52,8.77,2.52,-2.52,-0.83,-1.41,6.26,6.26,6.25
23.92,8.73,2.49,8.73,2.49,-2.49,-0.83,-1.45,6.24,6.25,6.24
24.16,8.70,2.47,8.70,2.47,-2.46,-0.83,-1.49,6.24,6.24,6.23
24.40,8.65,2.43,8.66,2.43,-2.43,-0.83,-1.53,6.22,6.23,6.22
24.65,8.62,2.40,8.62,2.40,-2.40,-0.83,-1.57,6.22,6.22,6.22
24.89,8.58,2.36,8.58,2.37,-2.37,-0.82,-1.62,6.21,6.21,6.22
25.14,8.55,2.34,8.55,2.34,-2.34,-0.82,-1.66,6.21,6.21,6.22
25.39,8.51,2.31,8.51,2.31,-2.31,-0.82,-1.70,6.20,6.21,6.20
25.65,8.48,2.28,8.48,2.28,-2.28,-0.82,-1.75,6.21,6.20,6.20
25.91,8.44,2.24,8.45,2.25,-2.24,-0.82,-1.79,6.20,6.20,6.20
26.16,8.41,2.21,8.41,2.21,-2.21,-0.81,-1.83,6.20,6.20,6.20
26.43,8.37,2.18,8.37,2.18,-2.18,-0.81,-1.87,6.20,6.20,6.20
26.69,8.33,2.14,8.34,2.14,-2.14,-0.81,-1.91,6.19,6.19,6.19
26.96,8.30,2.11,8.30,2.11,-2.11,-0.81,-1.95,6.20,6.19,6.19
27.23,8.26,2.07,8.26,2.07,-2.07,-0.81,-1.99,6.19,6.19,6.19
27.50,8.22,2.04,8.22,2.04,-2.04,-0.80,-2.03,6.18,6.19,6.19
27.77,8.18,2.00,8.18,2.00,-2.00,-0.80,-2.06,6.18,6.18,6.18
28.05,8.15,1.98,8.15,1.97,-1.97,-0.80,-2.09,6.18,6.17,6.17
28.33,8.10,1.93,8.11,1.94,-1.94,-0.80,-2.12,6.16,6.17,6.17
28.62,8.07,1.92,8.07,1.91,-1.91,-0.79,-2.15,6.16,6.16,6.16
28.90,8.02,1.87,8.03,1.88,-1.88,-0.79,-2.18,6.14,6.15,6.15
29.19,7.99,1.85,7.99,1.85,-1.85,-0.79,-2.20,6.15,6.14,6.14
29.48,7.94,1.81,7.94,1.81,-1.81,-0.78,-2.22,6.13,6.13,6.13
29.78,7.90,1.78,7.90,1.78,-1.78,-0.78,-2.23,6.12,6.12,6.12
30.08,7.86,1.75,7.86,1.74,-1.74,-0.78,-2.24,6.12,6.11,6.11
30.38,7.81,1.70,7.82,1.71,-1.71,-0.77,-2.25,6.11,6.11,6.11
30.68,7.77,1.67,7.77,1.67,-1.67,-0.77,-2.25,6.10,6.10,6.10
30.99,7.73,1.63,7.73,1.63,-1.63,-0.77,-2.25,6.10,6.10,6.10
31.30,7.69,1.60,7.69,1.59,-1.59,-0.76,-2.25,6.10,6.10,6.10
31.61,7.64,1.55,7.65,1.55,-1.55,-0.76,-2.24,6.09,6.10,6.09
31.93,7.60,1.50,7.60,1.51,-1.51,-0.76,-2.22,6.10,6.10,6.10
32.24,7.56,1.47,7.56,1.47,-1.47,-0.75,-2.21,6.10,6.10,6.10
32.57,7.52,1.43,7.52,1.43,-1.43,-0.75,-2.18,6.10,6.10,6.09
32.89,7.48,1.39,7.48,1.38,-1.38,-0.74,-2.16,6.10,6.09,6.10
33.22,7.43,1.34,7.43,1.34,-1.35,-0.74,-2.13,6.09,6.09,6.09
33.55,7.38,1.30,7.39,1.30,-1.31,-0.73,-2.10,6.07,6.08,6.09
33.89,7.35,1.28,7.35,1.27,-1.27,-0.73,-2.06,6.08,6.07,6.07
34.23,7.30,1.24,7.30,1.24,-1.24,-0.73,-2.02,6.07,6.07,6.07
34.57,7.26,1.20,7.26,1.20,-1.20,-0.72,-1.98,6.06,6.06,6.06
34.92,7.21,1.17,7.22,1.17,-1.17,-0.71,-1.93,6.04,6.05,6.05
35.27,7.17,1.14,7.17,1.14,-1.14,-0.71,-1.88,6.03,6.03,6.03
35.62,7.12,1.11,7.12,1.11,-1.11,-0.70,-1.83,6.01,6.01,6.01
35.97,7.07,1.07,7.08,1.08,-1.08,-0.70,-1.78,5.99,5.99,6.00
36.33,7.03,1.05,7.03,1.05,-1.05,-0.69,-1.73,5.98,5.97,5.98
36.70,6.98,1.03,6.98,1.03,-1.03,-0.69,-1.67,5.95,5.95,5.95
37.06,6.94,1.01,6.94,1.01,-1.01,-0.68,-1.62,5.94,5.93,5.94
37.43,6.89,0.98,6.89,0.98,-0.98,-0.67,-1.56,5.91,5.91,5.91
37.81,6.85,0.96,6.85,0.96,-0.96,-0.67,-1.50,5.89,5.89,5.89
38.19,6.80,0.94,6.80,0.94,-0.93,-0.66,-1.44,5.87,5.87,5.86
38.57,6.75,0.91,6.76,0.91,-0.91,-0.65,-1.38,5.84,5.85,5.85
38.95,6.71,0.88,6.71,0.88,-0.88,-0.64,-1.32,5.83,5.82,5.83
39.34,6.66,0.85,6.66,0.86,-0.85,-0.63,-1.26,5.81,5.81,5.81
39.74,6.61,0.82,6.62,0.83,-0.82,-0.63,-1.20,5.79,5.79,5.79
40.14,6.57,0.80,6.57,0.79,-0.79,-0.62,-1.14,5.78,5.77,5.77
40.54,6.51,0.75,6.52,0.76,-0.76,-0.61,-1.08,5.75,5.76,5.76
40.94,6.47,0.72,6.47,0.73,-0.72,-0.60,-1.02,5.75,5.75,5.75
41.35,6.42,0.69,6.42,0.69,-0.69,-0.59,-0.96,5.73,5.73,5.73
41.76,6.37,0.65,6.37,0.65,-0.65,-0.58,-0.90,5.72,5.72,5.72
42.18,6.32,0.60,6.32,0.61,-0.61,-0.57,-0.84,5.71,5.71,5.72
42.60,6.27,0.57,6.28,0.57,-0.57,-0.56,-0.78,5.70,5.71,5.71
43.03,6.23,0.54,6.23,0.53,-0.53,-0.55,-0.73,5.70,5.70,5.69
43.46,6.18,0.49,6.18,0.49,-0.48,-0.53,-0.67,5.70,5.70,5.69
43.90,6.13,0.44,6.13,0.45,-0.44,-0.52,-0.61,5.69,5.69,5.69
44.33,6.07,0.40,6.07,0.40,-0.40,-0.51,-0.55,5.67,5.67,5.68
44.78,6.02,0.35,6.02,0.35,-0.36,-0.50,-0.49,5.66,5.67,5.67
45.23,5.97,0.31,5.98,0.31,-0.32,-0.48,-0.44,5.66,5.66,5.67
45.68,5.93,0.28,5.93,0.27,-0.28,-0.47,-0.38,5.66,5.65,5.65
46.13,5.88,0.24,5.88,0.24,-0.24,-0.45,-0.33,5.65,5.64,5.64
46.60,5.82,0.19,5.83,0.20,-0.20,-0.44,-0.27,5.62,5.63,5.63
47.06,5.78,0.17,5.78,0.16,-0.16,-0.42,-0.22,5.62,5.61,5.61
47.53,5.72,0.12,5.72,0.13,-0.13,-0.40,-0.16,5.59,5.60,5.60
48.01,5.67,0.09,5.67,0.09,-0.09,-0.39,-0.11,5.58,5.58,5.58
48.49,5.62,0.06,5.62,0.06,-0.06,-0.37,-0.06,5.56,5.56,5.56
48.97,5.57,0.03,5.57,0.03,-0.03,-0.35,-0.00,5.54,5.54,5.54
49.46,5.52,-0.00,5.52,0.00,-0.00,-0.33,0.05,5.52,5.52,5.52
49.96,5.47,-0.02,5.47,-0.03,0.03,-0.31,0.10,5.50,5.50,5.49
50.46,5.41,-0.06,5.42,-0.05,0.05,-0.29,0.15,5.47,5.47,5.47
50.96,5.36,-0.08,5.36,-0.08,0.08,-0.27,0.20,5.44,5.44,5.44
51.47,5.31,-0.11,5.31,-0.11,0.11,-0.24,0.25,5.42,5.42,5.42
51.99,5.26,-0.13,5.26,-0.13,0.14,-0.22,0.30,5.40,5.40,5.40
52.51,5.21,-0.16,5.21,-0.16,0.16,-0.19,0.34,5.38,5.37,5.37
53.03,5.15,-0.20,5.16,-0.19,0.19,-0.17,0.39,5.34,5.35,5.35
53.56,5.10,-0.22,5.10,-0.22,0.22,-0.14,0.43,5.32,5.32,5.32
54.10,5.05,-0.24,5.05,-0.25,0.25,-0.11,0.48,5.30,5.29,5.30
54.64,4.99,-0.28,5.00,-0.27,0.27,-0.09,0.52,5.26,5.27,5.27
55.18,4.95,-0.29,4.95,-0.30,0.30,-0.06,0.56,5.25,5.24,5.24
55.74,4.89,-0.32,4.89,-0.32,0.32,-0.03,0.60,5.21,5.21,5.21
56.29,4.84,-0.34,4.84,-0.34,0.34,0.01,0.63,5.18,5.18,5.18
56.86,4.79,-0.36,4.79,-0.36,0.36,0.04,0.67,5.15,5.15,5.15
57.42,4.74,-0.38,4.74,-0.38,0.38,0.07,0.70,5.12,5.12,5.12
58.00,4.69,-0.40,4.69,-0.40,0.40,0.10,0.73,5.09,5.09,5.09
58.58,4.64,-0.42,4.64,-0.42,0.42,0.14,0.76,5.06,5.06,5.06
59.16,4.58,-0.44,4.58,-0.44,0.44,0.17,0.78,5.02,5.02,5.02
59.76,4.53,-0.46,4.53,-0.46,0.46,0.21,0.80,4.99,4.99,4.99
60.35,4.47,-0.48,4.48,-0.48,0.47,0.25,0.82,4.94,4.95,4.95
60.96,4.42,-0.49,4.42,-0.49,0.49,0.28,0.84,4.91,4.91,4.92
61.57,4.37,-0.49,4.37,-0.50,0.50,0.32,0.85,4.87,4.87,4.87
62.18,4.31,-0.52,4.31,-0.51,0.51,0.36,0.87,4.83,4.83,4.83
62.80,4.26,-0.53,4.26,-0.52,0.53,0.39,0.87,4.79,4.79,4.79
63.43,4.20,-0.53,4.20,-0.53,0.54,0.43,0.88,4.74,4.74,4.74
64.07,4.15,-0.54,4.15,-0.55,0.55,0.47,0.88,4.70,4.70,4.69
64.71,4.09,-0.56,4.09,-0.56,0.56,0.50,0.88,4.65,4.65,4.65
65.35,4.03,-0.57,4.04,-0.57,0.57,0.54,0.88,4.60,4.60,4.61
66.01,3.98,-0.58,3.98,-0.58,0.58,0.57,0.87,4.56,4.56,4.56
66.67,3.93,-0.58,3.93,-0.59,0.58,0.60,0.87,4.52,4.51,4.51
67.33,3.87,-0.59,3.88,-0.59,0.59,0.63,0.86,4.46,4.47,4.47
68.01,3.82,-0.59,3.82,-0.59,0.60,0.66,0.84,4.42,4.42,4.42
68.69,3.77,-0.59,3.77,-0.60,0.60,0.69,0.83,4.37,4.37,4.37
69.37,3.71,-0.60,3.71,-0.60,0.60,0.71,0.81,4.32,4.32,4.31
70.07,3.66,-0.61,3.66,-0.61,0.61,0.73,0.79,4.27,4.27,4.27
70.77,3.60,-0.62,3.60,-0.61,0.61,0.75,0.77,4.21,4.22,4.22
71.48,3.55,-0.61,3.55,-0.61,0.61,0.76,0.75,4.17,4.17,4.16
72.19,3.49,-0.62,3.49,-0.62,0.62,0.78,0.73,4.11,4.11,4.11
72.91,3.44,-0.62,3.44,-0.62,0.62,0.78,0.71,4.06,4.06,4.06
73.64,3.38,-0.62,3.38,-0.62,0.62,0.79,0.68,4.00,4.00,4.00
74.38,3.32,-0.62,3.33,-0.62,0.62,0.79,0.65,3.94,3.94,3.94
75.12,3.27,-0.61,3.27,-0.61,0.61,0.79,0.63,3.88,3.88,3.88
75.87,3.22,-0.61,3.22,-0.61,0.61,0.78,0.60,3.83,3.82,3.83
76.63,3.16,-0.60,3.17,-0.60,0.60,0.77,0.57,3.76,3.77,3.77
77.40,3.11,-0.59,3.11,-0.59,0.59,0.75,0.54,3.70,3.70,3.70
78.17,3.06,-0.57,3.06,-0.58,0.58,0.74,0.51,3.65,3.64,3.64
78.95,3.00,-0.58,3.00,-0.57,0.57,0.72,0.49,3.58,3.58,3.58
79.74,2.95,-0.56,2.95,-0.56,0.56,0.70,0.46,3.52,3.51,3.51
80.54,2.89,-0.55,2.89,-0.55,0.55,0.67,0.43,3.44,3.45,3.44
81.35,2.84,-0.54,2.84,-0.54,0.54,0.65,0.40,3.38,3.38,3.38
82.16,2.78,-0.53,2.78,-0.53,0.53,0.62,0.37,3.31,3.31,3.31
82.98,2.72,-0.52,2.73,-0.52,0.52,0.59,0.34,3.24,3.25,3.24
83.81,2.68,-0.50,2.67,-0.50,0.51,0.55,0.31,3.19,3.18,3.18
84.65,2.62,-0.48,2.62,-0.49,0.49,0.52,0.28,3.11,3.11,3.11
85.50,2.56,-0.48,2.57,-0.48,0.48,0.49,0.25,3.04,3.04,3.04
86.35,2.51,-0.47,2.51,-0.46,0.46,0.45,0.22,2.97,2.97,2.98
87.22,2.45,-0.45,2.45,-0.45,0.45,0.42,0.19,2.90,2.90,2.90
88.09,2.40,-0.43,2.40,-0.43,0.43,0.38,0.16,2.83,2.83,2.83
88.97,2.34,-0.41,2.35,-0.41,0.41,0.35,0.13,2.76,2.76,2.76
89.86,2.29,-0.40,2.29,-0.39,0.39,0.31,0.10,2.69,2.69,2.69
90.76,2.24,-0.37,2.24,-0.37,0.37,0.28,0.08,2.62,2.61,2.61
91.66,2.18,-0.36,2.18,-0.35,0.35,0.24,0.05,2.53,2.54,2.54
92.58,2.13,-0.33,2.13,-0.33,0.33,0.21,0.02,2.46,2.46,2.46
93.51,2.07,-0.31,2.07,-0.30,0.30,0.17,-0.01,2.38,2.38,2.38
94.44,2.02,-0.27,2.02,-0.28,0.28,0.14,-0.04,2.30,2.30,2.30
95.39,1.96,-0.25,1.96,-0.25,0.25,0.11,-0.06,2.21,2.21,2.21
96.34,1.91,-0.22,1.91,-0.22,0.22,0.07,-0.09,2.13,2.13,2.13
97.30,1.85,-0.20,1.85,-0.19,0.19,0.04,-0.12,2.04,2.04,2.05
98.28,1.80,-0.15,1.80,-0.16,0.16,0.01,-0.14,1.96,1.96,1.95
99.26,1.74,-0.13,1.75,-0.12,0.12,-0.02,-0.17,1.87,1.87,1.87
100.25,1.70,-0.09,1.69,-0.09,0.09,-0.05,-0.20,1.79,1.78,1.79
101.25,1.63,-0.06,1.64,-0.06,0.06,-0.08,-0.22,1.69,1.70,1.69
102.27,1.58,-0.03,1.58,-0.03,0.03,-0.11,-0.25,1.61,1.61,1.61
103.29,1.53,0.01,1.53,0.00,-0.00,-0.13,-0.28,1.53,1.52,1.52
104.32,1.47,0.03,1.48,0.04,-0.03,-0.16,-0.30,1.44,1.44,1.44
105.37,1.42,0.07,1.42,0.07,-0.06,-0.19,-0.33,1.36,1.36,1.35
106.42,1.36,0.09,1.36,0.09,-0.09,-0.21,-0.35,1.27,1.27,1.27
107.48,1.31,0.13,1.31,0.12,-0.12,-0.24,-0.38,1.19,1.19,1.19
108.56,1.25,0.15,1.25,0.15,-0.15,-0.27,-0.40,1.10,1.10,1.10
109.64,1.20,0.17,1.20,0.18,-0.18,-0.29,-0.42,1.02,1.02,1.03
110.74,1.14,0.20,1.15,0.21,-0.21,-0.31,-0.44,0.93,0.94,0.94
111.85,1.10,0.24,1.10,0.24,-0.24,-0.34,-0.47,0.86,0.86,0.86
112.97,1.05,0.28,1.05,0.27,-0.27,-0.36,-0.49,0.78,0.78,0.78
114.10,0.99,0.30,0.99,0.30,-0.30,-0.39,-0.51,0.69,0.69,0.69
115.24,0.93,0.32,0.94,0.33,-0.33,-0.41,-0.53,0.60,0.61,0.61
116.39,0.88,0.36,0.88,0.36,-0.36,-0.43,-0.55,0.52,0.52,0.52
117.55,0.83,0.40,0.83,0.40,-0.40,-0.45,-0.57,0.43,0.43,0.44
118.73,0.78,0.44,0.78,0.43,-0.43,-0.48,-0.58,0.35,0.34,0.34
119.92,0.72,0.47,0.73,0.47,-0.47,-0.50,-0.60,0.25,0.26,0.25
121.12,0.67,0.51,0.67,0.51,-0.51,-0.52,-0.62,0.17,0.17,0.16
122.33,0.62,0.55,0.62,0.55,-0.55,-0.55,-0.63,0.08,0.07,0.07
123.55,0.57,0.59,0.57,0.59,-0.59,-0.57,-0.65,-0.01,-0.01,-0.01
124.79,0.52,0.62,0.52,0.62,-0.63,-0.59,-0.66,-0.11,-0.11,-0.10
126.03,0.47,0.66,0.47,0.67,-0.67,-0.61,-0.67,-0.20,-0.20,-0.19
127.29,0.42,0.71,0.42,0.71,-0.71,-0.64,-0.68,-0.29,-0.28,-0.29
128.57,0.38,0.75,0.38,0.75,-0.75,-0.66,-0.70,-0.36,-0.37,-0.37
129.85,0.33,0.79,0.33,0.79,-0.79,-0.68,-0.70,-0.45,-0.45,-0.46
131.15,0.29,0.83,0.29,0.82,-0.82,-0.71,-0.71,-0.53,-0.54,-0.54
132.46,0.23,0.85,0.24,0.86,-0.86,-0.73,-0.72,-0.63,-0.62,-0.62
133.79,0.19,0.89,0.19,0.89,-0.89,-0.75,-0.73,-0.70,-0.70,-0.69
135.12,0.15,0.93,0.15,0.92,-0.92,-0.78,-0.74,-0.77,-0.77,-0.77
136.48,0.11,0.96,0.11,0.96,-0.95,-0.80,-0.74,-0.84,-0.84,-0.84
137.84,0.07,0.99,0.07,0.99,-0.98,-0.83,-0.75,-0.91,-0.91,-0.91
139.22,0.03,1.01,0.03,1.01,-1.01,-0.85,-0.76,-0.98,-0.98,-0.98
140.61,-0.02,1.03,-0.01,1.03,-1.03,-0.87,-0.76,-1.05,-1.05,-1.05
142.02,-0.06,1.06,-0.06,1.06,-1.06,-0.90,-0.77,-1.12,-1.12,-1.11
143.44,-0.10,1.08,-0.10,1.08,-1.08,-0.92,-0.77,-1.18,-1.18,-1.18
144.87,-0.14,1.10,-0.14,1.10,-1.10,-0.95,-0.78,-1.24,-1.24,-1.24
146.32,-0.18,1.13,-0.18,1.13,-1.13,-0.97,-0.78,-1.30,-1.30,-1.30
147.78,-0.22,1.15,-0.22,1.15,-1.15,-1.00,-0.79,-1.36,-1.37,-1.36
149.26,-0.26,1.17,-0.26,1.17,-1.17,-1.03,-0.80,-1.43,-1.42,-1.42
150.75,-0.30,1.19,-0.30,1.19,-1.19,-1.05,-0.80,-1.48,-1.48,-1.48
152.26,-0.33,1.21,-0.33,1.21,-1.21,-1.08,-0.81,-1.53,-1.54,-1.54
153.78,-0.38,1.22,-0.37,1.22,-1.22,-1.10,-0.81,-1.60,-1.60,-1.60
155.32,-0.41,1.25,-0.41,1.24,-1.24,-1.13,-0.82,-1.65,-1.65,-1.65
156.88,-0.46,1.25,-0.45,1.26,-1.26,-1.15,-0.83,-1.72,-1.71,-1.71
158.44,-0.49,1.27,-0.49,1.27,-1.28,-1.18,-0.84,-1.76,-1.76,-1.76
160.03,-0.52,1.29,-0.53,1.29,-1.29,-1.20,-0.84,-1.81,-1.82,-1.81
161.63,-0.57,1.30,-0.56,1.31,-1.31,-1.22,-0.85,-1.88,-1.87,-1.87
163.24,-0.61,1.32,-0.60,1.33,-1.32,-1.25,-0.86,-1.93,-1.93,-1.93
164.88,-0.64,1.34,-0.64,1.34,-1.34,-1.27,-0.87,-1.97,-1.98,-1.98
166.53,-0.68,1.35,-0.68,1.35,-1.35,-1.29,-0.88,-2.03,-2.03,-2.03
168.19,-0.72,1.36,-0.72,1.36,-1.36,-1.31,-0.89,-2.08,-2.08,-2.07
169.87,-0.76,1.36,-0.76,1.37,-1.37,-1.33,-0.91,-2.12,-2.12,-2.12
171.57,-0.80,1.37,-0.80,1.37,-1.37,-1.35,-0.92,-2.17,-2.17,-2.17
173.29,-0.83,1.39,-0.83,1.38,-1.38,-1.37,-0.93,-2.20,-2.21,-2.22
175.02,-0.88,1.38,-0.88,1.38,-1.38,-1.38,-0.95,-2.26,-2.26,-2.26
176.77,-0.92,1.38,-0.92,1.38,-1.38,-1.40,-0.96,-2.30,-2.30,-2.30
178.54,-0.96,1.38,-0.96,1.38,-1.38,-1.41,-0.98,-2.34,-2.34,-2.34
180.32,-0.99,1.39,-0.99,1.38,-1.38,-1.43,-1.00,-2.37,-2.38,-2.38
182.13,-1.03,1.38,-1.03,1.38,-1.38,-1.44,-1.01,-2.41,-2.41,-2.41
183.95,-1.07,1.38,-1.06,1.39,-1.39,-1.45,-1.03,-2.45,-2.45,-2.45
185.79,-1.10,1.39,-1.10,1.38,-1.39,-1.45,-1.05,-2.49,-2.49,-2.48
187.65,-1.13,1.39,-1.13,1.39,-1.39,-1.46,-1.07,-2.52,-2.52,-2.52
189.52,-1.17,1.38,-1.16,1.39,-1.39,-1.46,-1.09,-2.56,-2.55,-2.55
191.42,-1.20,1.40,-1.20,1.39,-1.39,-1.47,-1.11,-2.59,-2.59,-2.59
193.33,-1.23,1.40,-1.23,1.39,-1.39,-1.47,-1.13,-2.62,-2.62,-2.63
195.27,-1.27,1.39,-1.26,1.40,-1.39,-1.47,-1.15,-2.66,-2.65,-2.66
197.22,-1.29,1.40,-1.29,1.39,-1.39,-1.46,-1.18,-2.68,-2.69,-2.69
199.19,-1.33,1.39,-1.33,1.39,-1.39,-1.46,-1.20,-2.72,-2.72,-2.71
201.18,-1.36,1.38,-1.36,1.39,-1.39,-1.45,-1.22,-2.74,-2.74,-2.74
203.19,-1.39,1.38,-1.39,1.38,-1.38,-1.45,-1.25,-2.77,-2.77,-2.77
205.23,-1.42,1.38,-1.42,1.38,-1.38,-1.43,-1.27,-2.79,-2.79,-2.80
207.28,-1.45,1.37,-1.45,1.37,-1.37,-1.42,-1.29,-2.82,-2.82,-2.82
209.35,-1.49,1.36,-1.48,1.36,-1.37,-1.41,-1.32,-2.85,-2.85,-2.85
211.44,-1.52,1.35,-1.52,1.36,-1.36,-1.40,-1.34,-2.88,-2.88,-2.87
213.56,-1.55,1.36,-1.55,1.35,-1.35,-1.38,-1.36,-2.90,-2.90,-2.90
215.69,-1.58,1.35,-1.58,1.35,-1.34,-1.36,-1.38,-2.92,-2.92,-2.93
217.85,-1.61,1.34,-1.61,1.34,-1.34,-1.35,-1.40,-2.94,-2.94,-2.95
220.03,-1.64,1.33,-1.64,1.33,-1.33,-1.33,-1.42,-2.96,-2.96,-2.97
222.23,-1.67,1.32,-1.67,1.32,-1.31,-1.31,-1.44,-2.98,-2.99,-2.99
224.45,-1.71,1.30,-1.71,1.30,-1.30,-1.29,-1.46,-3.01,-3.01,-3.01
226.70,-1.75,1.28,-1.74,1.29,-1.29,-1.26,-1.47,-3.04,-3.03,-3.03
228.96,-1.77,1.28,-1.77,1.27,-1.28,-1.24,-1.49,-3.05,-3.05,-3.05
231.25,-1.80,1.27,-1.80,1.26,-1.27,-1.22,-1.50,-3.06,-3.07,-3.06
233.57,-1.84,1.24,-1.83,1.25,-1.25,-1.19,-1.51,-3.09,-3.09,-3.08
235.90,-1.87,1.25,-1.87,1.24,-1.24,-1.17,-1.52,-3.11,-3.11,-3.12
238.26,-1.91,1.23,-1.90,1.23,-1.22,-1.15,-1.52,-3.13,-3.13,-3.13
240.64,-1.94,1.21,-1.94,1.21,-1.21,-1.12,-1.53,-3.15,-3.15,-3.15
243.05,-1.97,1.20,-1.97,1.19,-1.19,-1.10,-1.53,-3.16,-3.16,-3.16
245.48,-2.01,1.17,-2.00,1.17,-1.17,-1.07,-1.53,-3.18,-3.18,-3.18
247.93,-2.04,1.15,-2.04,1.15,-1.15,-1.05,-1.52,-3.19,-3.19,-3.19
250.41,-2.07,1.14,-2.07,1.13,-1.13,-1.02,-1.51,-3.20,-3.20,-3.21
252.92,-2.11,1.11,-2.11,1.11,-1.11,-1.00,-1.51,-3.22,-3.22,-3.22
255.45,-2.14,1.09,-2.14,1.09,-1.09,-0.97,-1.49,-3.23,-3.23,-3.23
258.00,-2.18,1.07,-2.18,1.07,-1.07,-0.95,-1.48,-3.25,-3.25,-3.24
260.58,-2.21,1.05,-2.21,1.05,-1.05,-0.92,-1.46,-3.26,-3.26,-3.26
263.19,-2.24,1.04,-2.24,1.03,-1.04,-0.90,-1.44,-3.27,-3.27,-3.28
265.82,-2.27,1.02,-2.27,1.02,-1.02,-0.88,-1.41,-3.29,-3.29,-3.29
268.48,-2.30,1.00,-2.30,1.00,-1.00,-0.85,-1.39,-3.30,-3.30,-3.30
271.16,-2.33,0.99,-2.33,0.99,-0.98,-0.83,-1.36,-3.31,-3.31,-3.32
273.87,-2.37,0.96,-2.36,0.97,-0.97,-0.81,-1.33,-3.34,-3.33,-3.33
276.61,-2.39,0.96,-2.39,0.95,-0.95,-0.79,-1.30,-3.34,-3.35,-3.35
279.38,-2.43,0.93,-2.42,0.94,-0.94,-0.76,-1.26,-3.36,-3.36,-3.36
282.17,-2.45,0.93,-2.45,0.92,-0.92,-0.74,-1.23,-3.37,-3.37,-3.38
284.99,-2.48,0.90,-2.48,0.90,-0.90,-0.72,-1.19,-3.38,-3.38,-3.37
287.84,-2.51,0.87,-2.50,0.88,-0.88,-0.70,-1.15,-3.39,-3.39,-3.38
290.72,-2.53,0.87,-2.53,0.87,-0.86,-0.68,-1.11,-3.39,-3.40,-3.40
293.63,-2.56,0.85,-2.56,0.85,-0.84,-0.66,-1.07,-3.40,-3.40,-3.41
296.57,-2.59,0.83,-2.59,0.83,-0.82,-0.64,-1.03,-3.41,-3.41,-3.42
299.53,-2.62,0.79,-2.62,0.80,-0.80,-0.62,-0.99,-3.42,-3.42,-3.41
302.53,-2.65,0.78,-2.65,0.78,-0.78,-0.60,-0.95,-3.43,-3.43,-3.43
305.55,-2.68,0.75,-2.68,0.75,-0.76,-0.58,-0.90,-3.43,-3.44,-3.43
308.61,-2.71,0.73,-2.71,0.73,-0.73,-0.57,-0.86,-3.44,-3.44,-3.44
311.69,-2.74,0.70,-2.73,0.71,-0.71,-0.55,-0.81,-3.45,-3.44,-3.44
314.81,-2.76,0.70,-2.76,0.69,-0.68,-0.53,-0.77,-3.44,-3.45,-3.45
317.96,-2.79,0.66,-2.79,0.66,-0.66,-0.51,-0.72,-3.45,-3.45,-3.45
321.14,-2.82,0.64,-2.82,0.64,-0.64,-0.50,-0.68,-3.45,-3.45,-3.46
324.35,-2.85,0.61,-2.85,0.61,-0.61,-0.48,-0.63,-3.46,-3.46,-3.46
327.59,-2.88,0.58,-2.88,0.58,-0.59,-0.46,-0.59,-3.47,-3.46,-3.46
330.87,-2.91,0.55,-2.91,0.56,-0.56,-0.45,-0.54,-3.47,-3.47,-3.46
334.18,-2.93,0.54,-2.93,0.54,-0.54,-0.43,-0.50,-3.46,-3.47,-3.47
337.52,-2.96,0.51,-2.96,0.52,-0.51,-0.42,-0.45,-3.47,-3.47,-3.47
340.90,-2.98,0.50,-2.98,0.49,-0.49,-0.40,-0.41,-3.46,-3.47,-3.48
344.30,-3.01,0.46,-3.01,0.46,-0.46,-0.39,-0.36,-3.47,-3.47,-3.47
347.75,-3.04,0.43,-3.03,0.44,-0.44,-0.38,-0.32,-3.47,-3.47,-3.46
351.23,-3.06,0.42,-3.06,0.41,-0.41,-0.36,-0.27,-3.47,-3.47,-3.48
354.74,-3.09,0.37,-3.09,0.38,-0.38,-0.35,-0.23,-3.47,-3.47,-3.46
358.28,-3.12,0.36,-3.11,0.36,-0.36,-0.33,-0.19,-3.47,-3.47,-3.47
361.87,-3.14,0.33,-3.14,0.33,-0.33,-0.32,-0.14,-3.47,-3.47,-3.47
365.49,-3.17,0.30,-3.17,0.30,-0.30,-0.31,-0.10,-3.47,-3.47,-3.47
369.14,-3.20,0.28,-3.19,0.28,-0.28,-0.29,-0.06,-3.48,-3.47,-3.48
372.83,-3.22,0.25,-3.22,0.25,-0.25,-0.28,-0.01,-3.47,-3.47,-3.47
376.56,-3.25,0.22,-3.25,0.23,-0.23,-0.27,0.03,-3.47,-3.47,-3.47
380.33,-3.28,0.20,-3.27,0.20,-0.20,-0.26,0.07,-3.48,-3.47,-3.47
384.13,-3.30,0.19,-3.30,0.18,-0.17,-0.24,0.12,-3.47,-3.48,-3.49
387.97,-3.33,0.15,-3.33,0.15,-0.15,-0.23,0.16,-3.48,-3.48,-3.48
391.85,-3.36,0.11,-3.35,0.12,-0.12,-0.22,0.20,-3.48,-3.48,-3.47
395.77,-3.38,0.10,-3.38,0.09,-0.10,-0.21,0.24,-3.48,-3.48,-3.48
399.73,-3.41,0.07,-3.41,0.07,-0.07,-0.19,0.28,-3.48,-3.48,-3.48
403.72,-3.43,0.05,-3.43,0.05,-0.05,-0.18,0.33,-3.48,-3.48,-3.48
407.76,-3.46,0.02,-3.45,0.03,-0.02,-0.17,0.37,-3.48,-3.48,-3.48
411.84,-3.48,0.01,-3.48,0.00,-0.00,-0.16,0.40,-3.48,-3.48,-3.48
415.96,-3.50,-0.02,-3.50,-0.02,0.02,-0.14,0.44,-3.48,-3.48,-3.48
420.12,-3.53,-0.04,-3.52,-0.04,0.04,-0.13,0.48,-3.49,-3.49,-3.49
424.32,-3.55,-0.06,-3.55,-0.06,0.05,-0.12,0.52,-3.49,-3.49,-3.49
428.56,-3.57,-0.08,-3.57,-0.08,0.07,-0.10,0.55,-3.49,-3.50,-3.49
432.85,-3.59,-0.09,-3.59,-0.09,0.09,-0.09,0.59,-3.49,-3.50,-3.49
437.18,-3.62,-0.11,-3.61,-0.11,0.11,-0.08,0.62,-3.50,-3.50,-3.51
441.55,-3.63,-0.12,-3.63,-0.13,0.13,-0.06,0.66,-3.49,-3.50,-3.51
445.96,-3.66,-0.15,-3.66,-0.15,0.15,-0.05,0.69,-3.50,-3.50,-3.51
450.42,-3.68,-0.18,-3.68,-0.18,0.17,-0.04,0.72,-3.50,-3.51,-3.50
454.93,-3.71,-0.21,-3.71,-0.20,0.19,-0.02,0.74,-3.51,-3.51,-3.50
459.48,-3.73,-0.22,-3.73,-0.22,0.21,-0.01,0.77,-3.51,-3.51,-3.50
464.07,-3.75,-0.23,-3.75,-0.24,0.23,0.01,0.79,-3.52,-3.51,-3.52
468.71,-3.77,-0.25,-3.77,-0.25,0.25,0.02,0.81,-3.52,-3.51,-3.52
473.40,-3.78,-0.26,-3.78,-0.26,0.27,0.04,0.83,-3.51,-3.51,-3.52
478.13,-3.81,-0.29,-3.80,-0.28,0.29,0.05,0.85,-3.52,-3.51,-3.52
482.91,-3.82,-0.30,-3.82,-0.30,0.30,0.07,0.87,-3.51,-3.52,-3.52
487.74,-3.84,-0.33,-3.84,-0.32,0.32,0.09,0.88,-3.51,-3.52,-3.51
492.62,-3.86,-0.35,-3.86,-0.34,0.34,0.11,0.89,-3.51,-3.51,-3.51
