frequency,raw,smoothed,error,error_smoothed,equalization,parametric_eq,fixed_band_eq,equalized_raw,equalized_smoothed,target
20.00,-20.38,-20.31,-13.12,-13.05,6.00,6.19,2.83,-14.38,-14.31,-7.26
20.20,-20.30,-20.34,-13.04,-13.08,6.00,6.18,2.91,-14.30,-14.34,-7.26
20.40,-20.23,-20.30,-12.97,-13.04,6.00,6.17,2.99,-14.23,-14.30,-7.26
20.61,-20.15,-20.19,-12.89,-12.93,6.00,6.16,3.08,-14.15,-14.19,-7.26
20.81,-20.08,-20.08,-12.82,-12.82,6.00,6.14,3.17,-14.08,-14.08,-7.26
21.02,-19.95,-19.82,-12.69,-12.56,6.00,6.13,3.26,-13.95,-13.82,-7.26
21.23,-19.38,-19.40,-12.12,-12.14,6.00,6.12,3.35,-13.38,-13.40,-7.26
21.44,-18.79,-18.82,-11.53,-11.56,6.00,6.11,3.45,-12.79,-12.82,-7.26
21.66,-18.22,-18.18,-10.97,-10.92,6.00,6.10,3.55,-12.22,-12.18,-7.26
21.87,-17.63,-17.67,-10.37,-10.41,6.00,6.09,3.65,-11.63,-11.67,-7.26
22.09,-17.24,-17.30,-9.98,-10.04,6.00,6.08,3.75,-11.24,-11.30,-7.26
22.31,-17.08,-17.05,-9.83,-9.80,6.00,6.07,3.86,-11.08,-11.05,-7.26
22.54,-16.94,-16.88,-9.68,-9.62,6.00,6.05,3.97,-10.94,-10.88,-7.26
22.76,-16.78,-16.76,-9.52,-9.51,6.00,6.04,4.09,-10.78,-10.76,-7.26
22.99,-16.63,-16.72,-9.37,-9.46,6.00,6.03,4.20,-10.63,-10.72,-7.26
23.22,-16.79,-16.77,-9.53,-9.51,6.00,6.02,4.32,-10.79,-10.77,-7.26
23.45,-16.96,-16.94,-9.70,-9.69,6.00,6.01,4.44,-10.96,-10.94,-7.26
23.69,-17.12,-17.14,-9.86,-9.88,6.00,6.00,4.57,-11.12,-11.14,-7.26
23.92,-17.30,-17.25,-10.04,-9.99,6.00,5.99,4.69,-11.30,-11.25,-7.26
24.16,-17.28,-17.26,-10.02,-10.00,6.00,5.98,4.82,-11.28,-11.26,-7.26
24.40,-17.15,-17.17,-9.90,-9.91,6.00,5.97,4.95,-11.15,-11.17,-7.26
24.65,-17.03,-17.04,-9.77,-9.78,6.00,5.96,5.08,-11.03,-11.04,-7.26
24.89,-16.91,-16.91,-9.65,-9.65,6.00,5.95,5.22,-10.91,-10.91,-7.26
25.14,-16.81,-16.81,-9.55,-9.55,6.00,5.94,5.36,-10.81,-10.81,-7.26
25.39,-16.72,-16.69,-9.46,-9.43,6.00,5.94,5.49,-10.72,-10.69,-7.26
25.65,-16.63,-16.60,-9.37,-9.34,6.00,5.93,5.63,-10.63,-10.60,-7.26
25.91,-16.54,-16.60,-9.28,-9.34,6.00,5.92,5.77,-10.54,-10.60,-7.26
26.16,-16.67,-16.69,-9.41,-9.43,6.00,5.91,5.91,-10.67,-10.69,-7.26
26.43,-16.92,-16.93,-9.66,-9.67,6.00,5.91,6.05,-10.92,-10.93,-7.26
26.69,-17.18,-17.19,-9.92,-9.93,6.00,5.90,6.18,-11.18,-11.19,-7.26
26.96,-17.43,-17.35,-10.17,-10.09,6.00,5.90,6.32,-11.43,-11.35,-7.26
27.23,-17.38,-17.38,-10.12,-10.12,6.00,5.90,6.45,-11.38,-11.38,-7.26
27.50,-17.27,-17.30,-10.01,-10.04,6.00,5.89,6.58,-11.27,-11.30,-7.26
27.77,-17.15,-17.15,-9.89,-9.89,6.00,5.89,6.70,-11.15,-11.15,-7.26
28.05,-17.03,-17.02,-9.77,-9.76,6.00,5.89,6.82,-11.03,-11.02,-7.26
28.33,-16.87,-16.88,-9.61,-9.62,6.00,5.89,6.93,-10.87,-10.88,-7.26
28.62,-16.70,-16.72,-9.44,-9.46,6.00,5.89,7.04,-10.70,-10.72,-7.26
28.90,-16.53,-16.49,-9.28,-9.23,6.00,5.90,7.14,-10.53,-10.49,-7.26
29.19,-16.19,-16.16,-8.93,-8.90,6.00,5.90,7.23,-10.19,-10.16,-7.26
29.48,-15.74,-15.74,-8.48,-8.48,6.00,5.91,7.30,-9.74,-9.74,-7.26
29.78,-15.32,-15.34,-8.06,-8.08,6.00,5.92,7.37,-9.32,-9.34,-7.26
30.08,-14.97,-15.04,-7.71,-7.78,6.00,5.92,7.42,-8.97,-9.04,-7.26
30.38,-14.89,-14.83,-7.63,-7.58,6.00,5.93,7.47,-8.89,-8.83,-7.26
30.68,-14.81,-14.76,-7.55,-7.50,6.00,5.94,7.49,-8.81,-8.76,-7.26
30.99,-14.72,-14.82,-7.46,-7.56,6.00,5.96,7.51,-8.72,-8.82,-7.26
31.30,-14.99,-15.04,-7.73,-7.78,6.00,5.97,7.51,-8.99,-9.04,-7.26
31.61,-15.30,-15.30,-8.04,-8.04,6.00,5.98,7.50,-9.30,-9.30,-7.26
31.93,-15.59,-15.44,-8.33,-8.18,6.00,5.99,7.47,-9.59,-9.44,-7.26
32.24,-15.33,-15.28,-8.07,-8.02,6.00,6.01,7.44,-9.33,-9.28,-7.26
32.57,-14.90,-14.93,-7.64,-7.67,6.00,6.02,7.38,-8.90,-8.93,-7.26
32.89,-14.46,-14.55,-7.20,-7.29,6.00,6.03,7.32,-8.46,-8.55,-7.26
33.22,-14.30,-14.33,-7.04,-7.07,6.00,6.04,7.24,-8.30,-8.33,-7.26
33.55,-14.28,-14.25,-7.02,-6.99,6.00,6.05,7.16,-8.28,-8.25,-7.26
33.89,-14.25,-14.21,-6.99,-6.95,6.00,6.05,7.06,-8.25,-8.21,-7.26
34.23,-14.13,-14.09,-6.87,-6.83,6.03,6.05,6.95,-8.10,-8.06,-7.26
34.57,-13.98,-13.96,-6.72,-6.70,6.06,6.04,6.84,-7.91,-7.89,-7.26
34.92,-13.82,-13.91,-6.56,-6.65,6.04,6.03,6.72,-7.78,-7.87,-7.26
35.27,-13.98,-14.11,-6.73,-6.85,5.96,6.01,6.59,-8.03,-8.15,-7.26
35.62,-14.26,-14.28,-7.00,-7.02,5.86,5.98,6.46,-8.39,-8.42,-7.26
35.97,-14.53,-14.17,-7.27,-6.91,5.80,5.95,6.32,-8.72,-8.36,-7.26
36.33,-13.65,-13.54,-6.39,-6.28,5.77,5.90,6.18,-7.88,-7.77,-7.26
36.70,-12.68,-12.81,-5.42,-5.55,5.74,5.85,6.04,-6.95,-7.07,-7.26
37.06,-11.99,-12.42,-4.73,-5.16,5.70,5.80,5.90,-6.29,-6.72,-7.26
37.43,-12.64,-12.62,-5.38,-5.36,5.65,5.73,5.75,-6.98,-6.97,-7.26
37.81,-13.28,-13.03,-6.02,-5.77,5.61,5.66,5.61,-7.66,-7.41,-7.26
38.19,-13.41,-13.24,-6.15,-5.98,5.59,5.58,5.46,-7.82,-7.66,-7.26
38.57,-13.02,-13.07,-5.76,-5.81,5.57,5.49,5.32,-7.45,-7.50,-7.26
38.95,-12.63,-12.79,-5.37,-5.53,5.56,5.40,5.17,-7.07,-7.23,-7.26
39.34,-12.64,-12.64,-5.38,-5.38,5.56,5.31,5.03,-7.08,-7.09,-7.26
39.74,-12.69,-12.64,-5.43,-5.38,5.50,5.21,4.89,-7.18,-7.14,-7.26
40.14,-12.69,-12.65,-5.43,-5.39,5.39,5.11,4.75,-7.30,-7.26,-7.26
40.54,-12.56,-12.57,-5.30,-5.31,5.26,5.01,4.61,-7.30,-7.31,-7.26
40.94,-12.43,-12.43,-5.17,-5.17,5.14,4.91,4.48,-7.28,-7.29,-7.26
41.35,-12.29,-12.28,-5.03,-5.02,5.04,4.80,4.35,-7.25,-7.24,-7.26
41.76,-12.15,-12.15,-4.89,-4.90,4.91,4.70,4.21,-7.23,-7.24,-7.26
42.18,-12.04,-12.08,-4.78,-4.82,4.76,4.59,4.09,-7.27,-7.32,-7.26
42.60,-11.98,-11.98,-4.72,-4.72,4.63,4.49,3.96,-7.35,-7.35,-7.26
43.03,-11.90,-11.76,-4.64,-4.50,4.52,4.39,3.84,-7.37,-7.23,-7.26
43.46,-11.51,-11.49,-4.25,-4.23,4.42,4.28,3.72,-7.09,-7.07,-7.26
43.90,-11.11,-11.30,-3.85,-4.04,4.24,4.18,3.60,-6.87,-7.06,-7.26
44.33,-11.20,-11.26,-3.94,-4.00,4.01,4.08,3.49,-7.19,-7.25,-7.26
44.78,-11.43,-11.30,-4.17,-4.04,3.76,3.98,3.38,-7.67,-7.54,-7.26
45.23,-11.32,-11.25,-4.06,-3.99,3.51,3.88,3.27,-7.81,-7.74,-7.26
45.68,-10.88,-10.89,-3.62,-3.63,3.30,3.78,3.17,-7.57,-7.58,-7.26
46.13,-10.36,-10.18,-3.10,-2.92,3.18,3.68,3.06,-7.18,-7.00,-7.26
46.60,-9.67,-9.68,-2.41,-2.42,3.10,3.58,2.96,-6.58,-6.59,-7.26
47.06,-9.22,-9.86,-1.96,-2.60,3.03,3.48,2.86,-6.19,-6.83,-7.26
47.53,-10.42,-10.39,-3.16,-3.13,2.97,3.38,2.77,-7.45,-7.42,-7.26
48.01,-11.58,-10.91,-4.32,-3.65,2.93,3.28,2.67,-8.65,-7.98,-7.26
48.49,-11.07,-11.12,-3.81,-3.86,2.96,3.19,2.58,-8.11,-8.16,-7.26
48.97,-10.54,-10.83,-3.28,-3.57,3.06,3.09,2.49,-7.48,-7.77,-7.26
49.46,-10.44,-10.43,-3.18,-3.17,3.16,2.99,2.41,-7.28,-7.28,-7.26
49.96,-10.37,-10.24,-3.11,-2.98,3.19,2.89,2.32,-7.18,-7.05,-7.26
50.46,-10.17,-10.14,-2.91,-2.88,3.12,2.79,2.24,-7.04,-7.01,-7.26
50.96,-9.96,-10.23,-2.70,-2.98,3.05,2.69,2.16,-6.91,-7.18,-7.26
51.47,-10.30,-10.34,-3.04,-3.08,2.99,2.60,2.08,-7.30,-7.34,-7.26
51.99,-10.68,-10.17,-3.42,-2.92,2.88,2.50,2.00,-7.80,-7.29,-7.26
52.51,-9.92,-9.94,-2.66,-2.69,2.70,2.40,1.92,-7.23,-7.25,-7.26
53.03,-9.19,-9.81,-1.93,-2.55,2.46,2.30,1.85,-6.73,-7.35,-7.26
53.56,-9.77,-9.68,-2.51,-2.42,2.18,2.19,1.78,-7.59,-7.50,-7.26
54.10,-10.06,-9.58,-2.81,-2.32,1.87,2.09,1.70,-8.20,-7.71,-7.26
54.64,-9.09,-9.07,-1.83,-1.81,1.60,1.99,1.63,-7.50,-7.47,-7.26
55.18,-8.16,-8.15,-0.90,-0.89,1.37,1.89,1.56,-6.79,-6.78,-7.26
55.74,-7.36,-7.80,-0.10,-0.54,1.22,1.78,1.49,-6.14,-6.58,-7.26
56.29,-7.80,-8.18,-0.55,-0.92,1.13,1.68,1.42,-6.67,-7.05,-7.26
56.86,-9.36,-8.74,-2.11,-1.48,1.11,1.57,1.35,-8.25,-7.63,-7.26
57.42,-9.36,-9.14,-2.10,-1.89,1.15,1.47,1.29,-8.21,-7.99,-7.26
58.00,-8.82,-9.04,-1.56,-1.78,1.23,1.36,1.22,-7.59,-7.81,-7.26
58.58,-8.62,-8.72,-1.36,-1.46,1.35,1.26,1.15,-7.27,-7.37,-7.26
59.16,-8.57,-8.70,-1.31,-1.45,1.44,1.15,1.08,-7.13,-7.26,-7.26
59.76,-8.94,-8.78,-1.68,-1.53,1.41,1.04,1.02,-7.54,-7.38,-7.26
60.35,-8.82,-8.69,-1.56,-1.43,1.26,0.93,0.95,-7.57,-7.43,-7.26
60.96,-8.38,-8.37,-1.12,-1.12,1.06,0.82,0.88,-7.32,-7.32,-7.26
61.57,-7.92,-8.07,-0.66,-0.81,0.85,0.72,0.81,-7.07,-7.22,-7.26
62.18,-7.69,-7.89,-0.43,-0.63,0.67,0.61,0.75,-7.02,-7.23,-7.26
62.80,-8.00,-7.59,-0.74,-0.33,0.53,0.50,0.68,-7.48,-7.06,-7.26
63.43,-7.49,-7.41,-0.24,-0.15,0.39,0.39,0.61,-7.11,-7.02,-7.26
64.07,-6.79,-7.38,0.47,-0.12,0.23,0.28,0.54,-6.56,-7.15,-7.26
64.71,-7.59,-7.43,-0.33,-0.17,0.14,0.17,0.47,-7.45,-7.29,-7.26
65.35,-7.85,-7.57,-0.59,-0.31,0.11,0.07,0.40,-7.74,-7.46,-7.26
66.01,-7.62,-7.57,-0.36,-0.31,0.10,-0.04,0.33,-7.52,-7.48,-7.26
66.67,-7.14,-7.31,0.12,-0.05,0.09,-0.14,0.26,-7.05,-7.22,-7.26
67.33,-7.00,-7.09,0.26,0.17,0.06,-0.25,0.18,-6.94,-7.03,-7.26
68.01,-7.19,-7.03,0.07,0.23,-0.05,-0.35,0.11,-7.23,-7.08,-7.26
68.69,-7.07,-7.28,0.19,-0.02,-0.19,-0.45,0.04,-7.26,-7.47,-7.26
69.37,-7.24,-7.22,0.02,0.04,-0.34,-0.55,-0.04,-7.58,-7.57,-7.26
70.07,-7.47,-6.90,-0.21,0.36,-0.51,-0.65,-0.11,-7.97,-7.41,-7.26
70.77,-6.15,-6.63,1.11,0.63,-0.65,-0.75,-0.19,-6.79,-7.27,-7.26
71.48,-6.11,-6.28,1.15,0.97,-0.74,-0.84,-0.27,-6.85,-7.02,-7.26
72.19,-6.45,-6.10,0.81,1.16,-0.80,-0.93,-0.34,-7.25,-6.90,-7.26
72.91,-6.12,-6.28,1.14,0.98,-0.85,-1.03,-0.42,-6.97,-7.13,-7.26
73.64,-6.31,-6.33,0.95,0.93,-0.91,-1.12,-0.50,-7.22,-7.25,-7.26
74.38,-6.40,-6.27,0.86,0.99,-0.98,-1.20,-0.58,-7.38,-7.25,-7.26
75.12,-6.34,-6.37,0.92,0.89,-1.07,-1.29,-0.66,-7.41,-7.43,-7.26
75.87,-6.19,-6.44,1.07,0.82,-1.19,-1.38,-0.75,-7.38,-7.63,-7.26
76.63,-6.53,-6.33,0.73,0.93,-1.31,-1.46,-0.83,-7.83,-7.64,-7.26
77.40,-6.23,-5.91,1.03,1.35,-1.42,-1.54,-0.91,-7.64,-7.33,-7.26
78.17,-5.30,-5.41,1.96,1.85,-1.54,-1.62,-1.00,-6.84,-6.94,-7.26
78.95,-4.66,-5.07,2.60,2.19,-1.64,-1.70,-1.09,-6.30,-6.72,-7.26
79.74,-5.12,-5.17,2.14,2.09,-1.74,-1.78,-1.18,-6.86,-6.91,-7.26
80.54,-5.75,-5.35,1.51,1.91,-1.88,-1.86,-1.26,-7.62,-7.23,-7.26
81.35,-5.75,-5.71,1.51,1.55,-1.98,-1.93,-1.36,-7.73,-7.69,-7.26
82.16,-5.17,-5.66,2.09,1.60,-2.03,-2.01,-1.45,-7.20,-7.69,-7.26
82.98,-5.99,-5.36,1.27,1.90,-2.03,-2.09,-1.54,-8.02,-7.40,-7.26
83.81,-4.91,-5.11,2.35,2.15,-2.02,-2.16,-1.64,-6.92,-7.12,-7.26
84.65,-4.72,-4.94,2.54,2.32,-2.04,-2.23,-1.73,-6.75,-6.97,-7.26
85.50,-4.83,-4.70,2.43,2.56,-2.15,-2.31,-1.83,-6.98,-6.85,-7.26
86.35,-4.92,-5.03,2.34,2.23,-2.31,-2.38,-1.93,-7.23,-7.34,-7.26
87.22,-5.06,-5.07,2.20,2.19,-2.48,-2.46,-2.03,-7.54,-7.55,-7.26
88.09,-5.41,-4.93,1.85,2.33,-2.61,-2.53,-2.13,-8.02,-7.55,-7.26
88.97,-4.31,-4.78,2.95,2.48,-2.70,-2.61,-2.24,-7.01,-7.48,-7.26
89.86,-4.42,-4.40,2.84,2.86,-2.77,-2.68,-2.34,-7.18,-7.17,-7.26
90.76,-4.39,-3.97,2.87,3.28,-2.86,-2.76,-2.45,-7.24,-6.83,-7.26
91.66,-3.64,-4.02,3.62,3.23,-2.99,-2.83,-2.56,-6.62,-7.01,-7.26
92.58,-3.85,-4.12,3.41,3.14,-3.14,-2.91,-2.67,-6.99,-7.26,-7.26
93.51,-4.61,-4.18,2.65,3.08,-3.25,-2.99,-2.78,-7.86,-7.43,-7.26
94.44,-4.42,-4.25,2.84,3.01,-3.31,-3.06,-2.89,-7.72,-7.56,-7.26
95.39,-3.76,-4.06,3.50,3.20,-3.32,-3.14,-3.01,-7.08,-7.38,-7.26
96.34,-3.76,-3.71,3.50,3.55,-3.32,-3.22,-3.12,-7.08,-7.04,-7.26
97.30,-3.68,-3.62,3.58,3.64,-3.38,-3.30,-3.24,-7.06,-7.01,-7.26
98.28,-3.62,-3.80,3.64,3.46,-3.50,-3.37,-3.36,-7.12,-7.30,-7.26
99.26,-3.90,-3.79,3.36,3.47,-3.61,-3.45,-3.48,-7.50,-7.39,-7.26
100.25,-4.01,-3.81,3.25,3.45,-3.67,-3.53,-3.60,-7.68,-7.48,-7.26
101.25,-3.39,-3.67,3.87,3.59,-3.70,-3.61,-3.72,-7.09,-7.37,-7.26
102.27,-3.60,-3.29,3.66,3.97,-3.72,-3.69,-3.85,-7.32,-7.01,-7.26
103.29,-3.04,-3.14,4.22,4.12,-3.74,-3.77,-3.97,-6.78,-6.88,-7.26
104.32,-2.94,-3.42,4.32,3.84,-3.80,-3.85,-4.09,-6.74,-7.22,-7.26
105.37,-3.84,-3.61,3.42,3.65,-3.88,-3.93,-4.21,-7.73,-7.50,-7.26
106.42,-4.14,-3.61,3.12,3.65,-3.96,-4.01,-4.33,-8.09,-7.56,-7.26
107.48,-3.21,-3.32,4.04,3.94,-4.05,-4.09,-4.45,-7.27,-7.37,-7.26
108.56,-2.53,-3.09,4.73,4.16,-4.11,-4.17,-4.57,-6.64,-7.21,-7.26
109.64,-2.96,-3.01,4.30,4.25,-4.12,-4.25,-4.69,-7.07,-7.13,-7.26
110.74,-3.70,-2.97,3.56,4.29,-4.14,-4.33,-4.81,-7.84,-7.11,-7.26
111.85,-2.78,-2.89,4.48,4.37,-4.22,-4.41,-4.92,-7.00,-7.11,-7.26
112.97,-2.25,-2.85,5.01,4.41,-4.29,-4.49,-5.03,-6.54,-7.14,-7.26
114.10,-2.95,-2.85,4.30,4.41,-4.34,-4.57,-5.14,-7.29,-7.19,-7.26
115.24,-3.56,-3.19,3.70,4.07,-4.37,-4.64,-5.24,-7.93,-7.56,-7.26
116.39,-3.10,-3.24,4.16,4.01,-4.42,-4.72,-5.34,-7.52,-7.66,-7.26
117.55,-2.97,-2.70,4.28,4.56,-4.52,-4.80,-5.43,-7.49,-7.22,-7.26
118.73,-2.19,-2.41,5.07,4.85,-4.64,-4.87,-5.52,-6.83,-7.05,-7.26
119.92,-1.83,-2.43,5.43,4.83,-4.78,-4.94,-5.60,-6.60,-7.20,-7.26
121.12,-3.04,-2.33,4.22,4.93,-4.94,-5.02,-5.68,-7.98,-7.27,-7.26
122.33,-2.39,-2.17,4.87,5.09,-5.14,-5.09,-5.74,-7.53,-7.31,-7.26
123.55,-1.56,-2.01,5.70,5.25,-5.32,-5.16,-5.81,-6.88,-7.33,-7.26
124.79,-1.50,-1.76,5.76,5.50,-5.41,-5.23,-5.87,-6.91,-7.17,-7.26
126.03,-2.18,-1.81,5.08,5.45,-5.42,-5.30,-5.92,-7.60,-7.24,-7.26
127.29,-1.98,-1.72,5.28,5.54,-5.43,-5.37,-5.97,-7.40,-7.15,-7.26
128.57,-1.48,-1.64,5.78,5.62,-5.42,-5.44,-6.01,-6.90,-7.06,-7.26
129.85,-1.16,-1.65,6.10,5.61,-5.42,-5.50,-6.04,-6.58,-7.07,-7.26
131.15,-2.24,-2.03,5.02,5.23,-5.42,-5.57,-6.07,-7.66,-7.46,-7.26
132.46,-2.44,-2.09,4.82,5.16,-5.43,-5.63,-6.10,-7.87,-7.53,-7.26
133.79,-2.29,-1.99,4.97,5.27,-5.47,-5.69,-6.12,-7.76,-7.46,-7.26
135.12,-0.94,-1.82,6.32,5.44,-5.56,-5.75,-6.13,-6.50,-7.38,-7.26
136.48,-1.77,-1.62,5.49,5.64,-5.64,-5.81,-6.14,-7.41,-7.25,-7.26
137.84,-2.08,-1.27,5.18,5.99,-5.72,-5.87,-6.15,-7.80,-6.99,-7.26
139.22,-0.87,-1.34,6.39,5.92,-5.83,-5.92,-6.16,-6.69,-7.16,-7.26
140.61,-0.57,-1.24,6.69,6.02,-5.95,-5.98,-6.16,-6.51,-7.19,-7.26
142.02,-1.85,-1.11,5.41,6.15,-6.03,-6.03,-6.16,-7.88,-7.14,-7.26
143.44,-1.45,-1.18,5.81,6.08,-6.10,-6.09,-6.16,-7.55,-7.28,-7.26
144.87,-0.65,-1.35,6.61,5.91,-6.15,-6.14,-6.16,-6.80,-7.50,-7.26
146.32,-1.12,-1.20,6.14,6.06,-6.16,-6.19,-6.16,-7.28,-7.35,-7.26
147.78,-1.81,-1.02,5.44,6.23,-6.18,-6.25,-6.16,-7.99,-7.20,-7.25
149.26,-0.75,-0.94,6.50,6.31,-6.27,-6.30,-6.17,-7.02,-7.21,-7.25
150.75,-0.18,-0.83,7.07,6.41,-6.34,-6.35,-6.17,-6.52,-7.18,-7.25
152.26,-1.01,-0.75,6.24,6.50,-6.41,-6.40,-6.17,-7.41,-7.16,-7.25
153.78,-1.30,-0.88,5.95,6.37,-6.49,-6.45,-6.18,-7.79,-7.38,-7.25
155.32,-0.67,-0.84,6.58,6.41,-6.59,-6.50,-6.19,-7.25,-7.42,-7.25
156.88,-0.34,-0.42,6.91,6.83,-6.68,-6.56,-6.20,-7.02,-7.10,-7.25
158.44,-0.31,-0.33,6.94,6.92,-6.78,-6.61,-6.22,-7.09,-7.11,-7.25
160.03,-0.25,-0.58,7.00,6.67,-6.85,-6.67,-6.23,-7.09,-7.43,-7.25
161.63,-0.97,-0.46,6.29,6.79,-6.90,-6.72,-6.26,-7.87,-7.36,-7.26
163.24,-0.56,-0.20,6.70,7.06,-6.97,-6.78,-6.28,-7.53,-7.16,-7.26
164.88,0.73,-0.08,7.99,7.18,-7.02,-6.84,-6.31,-6.29,-7.10,-7.26
166.53,0.00,-0.04,7.26,7.22,-7.04,-6.90,-6.35,-7.03,-7.08,-7.26
168.19,-0.68,-0.22,6.58,7.04,-7.06,-6.96,-6.39,-7.74,-7.28,-7.26
169.87,-0.50,-0.42,6.76,6.84,-7.12,-7.02,-6.43,-7.62,-7.54,-7.26
171.57,0.01,-0.10,7.27,7.16,-7.22,-7.08,-6.48,-7.21,-7.33,-7.26
173.29,0.18,0.00,7.44,7.26,-7.29,-7.15,-6.53,-7.11,-7.29,-7.26
175.02,0.21,-0.01,7.47,7.24,-7.32,-7.22,-6.59,-7.11,-7.33,-7.26
176.77,-0.52,0.17,6.74,7.43,-7.36,-7.28,-6.65,-7.88,-7.19,-7.26
178.54,0.45,0.40,7.71,7.66,-7.44,-7.35,-6.72,-6.98,-7.03,-7.26
180.32,1.09,0.39,8.35,7.65,-7.54,-7.42,-6.79,-6.44,-7.15,-7.26
182.13,0.28,0.43,7.54,7.69,-7.63,-7.50,-6.86,-7.34,-7.20,-7.26
183.95,-0.34,0.24,6.92,7.50,-7.68,-7.57,-6.94,-8.01,-7.44,-7.26
185.79,0.46,0.20,7.72,7.46,-7.74,-7.64,-7.03,-7.28,-7.54,-7.26
187.65,0.62,0.50,7.88,7.75,-7.81,-7.72,-7.12,-7.19,-7.32,-7.26
189.52,0.69,0.76,7.95,8.02,-7.87,-7.79,-7.22,-7.17,-7.10,-7.26
191.42,0.77,0.79,8.03,8.05,-7.90,-7.86,-7.32,-7.13,-7.11,-7.26
193.33,0.81,0.78,8.07,8.04,-7.95,-7.94,-7.43,-7.14,-7.17,-7.26
195.27,0.83,0.75,8.09,8.01,-8.02,-8.01,-7.53,-7.18,-7.27,-7.26
197.22,0.65,0.85,7.91,8.11,-8.11,-8.08,-7.65,-7.46,-7.26,-7.26
199.19,0.84,0.87,8.10,8.13,-8.20,-8.15,-7.76,-7.35,-7.33,-7.26
201.18,1.19,0.81,8.45,8.07,-8.27,-8.23,-7.89,-7.07,-7.45,-7.26
203.19,0.64,0.85,7.90,8.10,-8.30,-8.30,-8.01,-7.66,-7.46,-7.26
205.23,0.76,1.10,8.02,8.36,-8.31,-8.37,-8.14,-7.54,-7.21,-7.26
207.28,1.39,1.33,8.65,8.59,-8.30,-8.43,-8.27,-6.91,-6.97,-7.26
209.35,1.94,1.36,9.20,8.62,-8.29,-8.50,-8.40,-6.35,-6.93,-7.26
211.44,1.10,1.27,8.36,8.53,-8.32,-8.57,-8.53,-7.22,-7.05,-7.26
213.56,0.46,1.00,7.72,8.25,-8.39,-8.63,-8.66,-7.93,-7.40,-7.26
215.69,1.17,0.66,8.43,7.92,-8.45,-8.69,-8.80,-7.28,-7.79,-7.26
217.85,0.79,0.80,8.05,8.06,-8.45,-8.76,-8.93,-7.66,-7.65,-7.26
220.03,0.70,1.24,7.96,8.50,-8.45,-8.82,-9.06,-7.75,-7.21,-7.26
222.23,1.73,1.54,8.99,8.80,-8.50,-8.87,-9.19,-6.76,-6.95,-7.26
224.45,2.19,1.77,9.45,9.03,-8.61,-8.93,-9.31,-6.41,-6.83,-7.26
226.70,1.63,1.63,8.89,8.89,-8.75,-8.99,-9.43,-7.11,-7.12,-7.26
228.96,1.04,1.24,8.30,8.50,-8.87,-9.04,-9.55,-7.82,-7.62,-7.26
231.25,0.99,1.33,8.25,8.59,-8.94,-9.09,-9.66,-7.94,-7.61,-7.26
233.57,1.72,1.77,8.98,9.04,-8.95,-9.15,-9.77,-7.23,-7.18,-7.26
235.90,2.60,1.98,9.87,9.25,-8.95,-9.20,-9.86,-6.35,-6.97,-7.27
238.26,2.00,1.93,9.27,9.20,-8.97,-9.24,-9.95,-6.97,-7.04,-7.27
240.64,1.12,1.71,8.39,8.98,-9.02,-9.29,-10.02,-7.90,-7.31,-7.27
243.05,1.63,1.55,8.90,8.82,-9.11,-9.34,-10.09,-7.48,-7.57,-7.27
245.48,1.95,1.75,9.22,9.02,-9.23,-9.38,-10.15,-7.28,-7.48,-7.27
247.93,1.98,2.03,9.25,9.30,-9.29,-9.42,-10.20,-7.30,-7.26,-7.27
250.41,2.08,2.09,9.35,9.36,-9.28,-9.46,-10.23,-7.20,-7.19,-7.27
252.92,2.11,2.13,9.38,9.40,-9.28,-9.50,-10.26,-7.17,-7.15,-7.27
255.45,2.21,2.20,9.47,9.46,-9.30,-9.54,-10.27,-7.08,-7.10,-7.26
258.00,2.23,2.29,9.49,9.54,-9.35,-9.58,-10.28,-7.12,-7.07,-7.26
260.58,2.24,2.24,9.50,9.50,-9.43,-9.62,-10.27,-7.19,-7.19,-7.26
263.19,2.24,1.91,9.50,9.17,-9.47,-9.65,-10.25,-7.23,-7.56,-7.26
265.82,1.64,1.81,8.90,9.07,-9.47,-9.68,-10.23,-7.83,-7.67,-7.26
268.48,1.44,2.05,8.70,9.31,-9.44,-9.72,-10.19,-8.00,-7.40,-7.26
271.16,2.75,2.42,10.01,9.68,-9.43,-9.75,-10.15,-6.67,-7.01,-7.26
273.87,3.10,2.68,10.36,9.94,-9.46,-9.78,-10.11,-6.36,-6.78,-7.26
276.61,2.51,2.56,9.77,9.82,-9.55,-9.81,-10.05,-7.03,-6.99,-7.26
279.38,1.88,2.14,9.14,9.40,-9.65,-9.83,-10.00,-7.77,-7.51,-7.26
282.17,1.84,1.96,9.10,9.21,-9.75,-9.86,-9.94,-7.90,-7.79,-7.26
284.99,2.32,2.16,9.57,9.41,-9.76,-9.89,-9.88,-7.43,-7.59,-7.25
287.84,2.55,2.75,9.79,9.99,-9.73,-9.91,-9.81,-7.18,-6.99,-7.24
290.72,3.01,3.00,10.25,10.24,-9.74,-9.94,-9.75,-6.73,-6.74,-7.24
293.63,3.44,2.78,10.68,10.02,-9.78,-9.96,-9.69,-6.34,-7.00,-7.24
296.57,2.14,2.54,9.37,9.77,-9.82,-9.98,-9.62,-7.68,-7.29,-7.23
299.53,1.88,2.34,9.10,9.56,-9.86,-10.00,-9.56,-7.97,-7.52,-7.22
302.53,2.66,2.35,9.88,9.56,-9.84,-10.02,-9.51,-7.17,-7.49,-7.22
305.55,2.82,2.76,10.03,9.98,-9.80,-10.04,-9.45,-6.97,-7.03,-7.21
308.61,2.83,2.88,10.04,10.08,-9.80,-10.06,-9.40,-6.97,-6.93,-7.21
311.69,2.83,2.54,10.03,9.75,-9.88,-10.07,-9.35,-7.05,-7.34,-7.20
314.81,2.27,2.49,9.47,9.68,-10.00,-10.09,-9.31,-7.73,-7.51,-7.20
317.96,2.21,2.71,9.40,9.90,-10.09,-10.10,-9.27,-7.88,-7.38,-7.19
321.14,3.41,2.99,10.60,10.17,-10.12,-10.12,-9.23,-6.71,-7.14,-7.19
324.35,3.53,3.28,10.71,10.46,-10.09,-10.13,-9.21,-6.55,-6.81,-7.18
327.59,3.09,3.38,10.25,10.55,-10.04,-10.15,-9.18,-6.95,-6.66,-7.16
330.87,3.04,3.06,10.20,10.21,-10.08,-10.16,-9.17,-7.04,-7.03,-7.16
334.18,3.03,2.77,10.18,9.92,-10.18,-10.17,-9.15,-7.15,-7.41,-7.15
337.52,2.47,2.64,9.62,9.79,-10.26,-10.18,-9.15,-7.79,-7.62,-7.15
340.90,2.53,2.69,9.67,9.83,-10.31,-10.19,-9.15,-7.78,-7.62,-7.14
344.30,3.01,3.04,10.14,10.17,-10.32,-10.20,-9.16,-7.30,-7.28,-7.13
347.75,3.60,3.55,10.72,10.67,-10.32,-10.20,-9.17,-6.72,-6.77,-7.12
351.23,3.98,3.82,11.10,10.94,-10.35,-10.21,-9.20,-6.36,-6.52,-7.12
354.74,3.73,3.67,10.83,10.78,-10.42,-10.22,-9.22,-6.69,-6.75,-7.10
358.28,3.22,3.17,10.32,10.26,-10.51,-10.22,-9.26,-7.29,-7.34,-7.10
361.87,2.63,2.79,9.72,9.87,-10.59,-10.23,-9.30,-7.96,-7.81,-7.09
365.49,2.45,2.72,9.53,9.80,-10.64,-10.23,-9.35,-8.18,-7.92,-7.08
369.14,3.17,2.91,10.25,9.98,-10.61,-10.23,-9.40,-7.44,-7.70,-7.08
372.83,3.37,3.39,10.43,10.46,-10.54,-10.24,-9.46,-7.17,-7.15,-7.06
376.56,3.60,3.81,10.66,10.86,-10.47,-10.24,-9.53,-6.87,-6.67,-7.06
380.33,4.18,3.91,11.23,10.96,-10.44,-10.24,-9.60,-6.26,-6.53,-7.05
384.13,3.83,3.74,10.88,10.78,-10.45,-10.24,-9.68,-6.62,-6.71,-7.05
387.97,3.37,3.39,10.40,10.42,-10.54,-10.24,-9.77,-7.17,-7.15,-7.03
391.85,2.85,3.09,9.86,10.11,-10.67,-10.24,-9.86,-7.81,-7.58,-7.01
395.77,3.12,3.17,10.13,10.17,-10.78,-10.24,-9.96,-7.66,-7.61,-7.01
399.73,3.61,3.47,10.61,10.46,-10.88,-10.23,-10.07,-7.27,-7.41,-7.00
403.72,4.00,3.99,10.99,10.98,-10.95,-10.23,-10.17,-6.94,-6.96,-6.99
407.76,4.29,4.58,11.28,11.57,-11.01,-10.22,-10.29,-6.71,-6.42,-6.99
411.84,4.97,4.83,11.95,11.81,-11.08,-10.22,-10.40,-6.11,-6.25,-6.98
415.96,5.12,4.53,12.09,11.50,-11.12,-10.21,-10.52,-6.00,-6.59,-6.97
