frequency,raw,smoothed,error,error_smoothed,equalization,parametric_eq,fixed_band_eq,equalized_raw,equalized_smoothed,target
20.00,8.72,8.72,2.29,2.29,-2.29,-2.35,-0.78,6.43,6.43,6.43
20.20,8.71,8.71,2.28,2.28,-2.28,-2.34,-0.81,6.43,6.43,6.43
20.40,8.69,8.69,2.26,2.26,-2.26,-2.32,-0.83,6.42,6.43,6.43
20.61,8.68,8.68,2.25,2.25,-2.25,-2.31,-0.86,6.43,6.43,6.43
20.81,8.66,8.66,2.23,2.23,-2.24,-2.29,-0.88,6.42,6.42,6.43
21.02,8.64,8.64,2.21,2.22,-2.22,-2.28,-0.91,6.42,6.42,6.42
21.23,8.63,8.62,2.21,2.20,-2.20,-2.26,-0.94,6.43,6.42,6.42
21.44,8.61,8.61,2.19,2.19,-2.19,-2.25,-0.97,6.42,6.42,6.42
21.66,8.59,8.59,2.17,2.17,-2.17,-2.23,-1.00,6.42,6.42,6.42
21.87,8.58,8.58,2.16,2.15,-2.15,-2.21,-1.03,6.42,6.42,6.42
22.09,8.56,8.56,2.14,2.14,-2.14,-2.20,-1.06,6.42,6.42,6.42
22.31,8.54,8.54,2.12,2.12,-2.12,-2.18,-1.09,6.42,6.42,6.42
22.54,8.52,8.52,2.10,2.10,-2.10,-2.16,-1.12,6.42,6.42,6.42
22.76,8.50,8.50,2.08,2.08,-2.08,-2.14,-1.16,6.42,6.42,6.42
22.99,8.47,8.47,2.05,2.06,-2.06,-2.13,-1.19,6.41,6.42,6.42
23.22,8.45,8.45,2.03,2.03,-2.04,-2.11,-1.22,6.41,6.41,6.42
23.45,8.43,8.43,2.01,2.01,-2.02,-2.09,-1.26,6.41,6.41,6.41
23.69,8.41,8.41,2.00,2.00,-2.00,-2.07,-1.30,6.41,6.41,6.41
23.92,8.39,8.39,1.98,1.98,-1.98,-2.05,-1.33,6.41,6.41,6.41
24.16,8.37,8.37,1.96,1.96,-1.96,-2.03,-1.37,6.41,6.41,6.41
24.40,8.35,8.35,1.94,1.94,-1.94,-2.01,-1.41,6.41,6.41,6.41
24.65,8.33,8.33,1.92,1.92,-1.92,-2.00,-1.45,6.41,6.41,6.41
24.89,8.31,8.31,1.90,1.90,-1.90,-1.98,-1.49,6.41,6.41,6.41
25.14,8.29,8.29,1.88,1.88,-1.88,-1.96,-1.53,6.41,6.41,6.41
25.39,8.27,8.27,1.86,1.86,-1.86,-1.94,-1.57,6.40,6.40,6.40
25.65,8.25,8.25,1.85,1.84,-1.85,-1.91,-1.61,6.40,6.40,6.40
25.91,8.23,8.23,1.83,1.83,-1.83,-1.89,-1.65,6.40,6.40,6.40
26.16,8.21,8.21,1.81,1.81,-1.81,-1.87,-1.68,6.40,6.40,6.40
26.43,8.20,8.20,1.80,1.80,-1.80,-1.85,-1.72,6.40,6.40,6.40
26.69,8.18,8.18,1.78,1.78,-1.78,-1.83,-1.76,6.40,6.40,6.40
26.96,8.16,8.16,1.76,1.76,-1.76,-1.81,-1.80,6.40,6.40,6.40
27.23,8.14,8.14,1.75,1.75,-1.74,-1.79,-1.83,6.39,6.39,6.39
27.50,8.12,8.12,1.73,1.73,-1.73,-1.76,-1.87,6.39,6.39,6.39
27.77,8.10,8.10,1.71,1.71,-1.71,-1.74,-1.90,6.39,6.39,6.39
28.05,8.08,8.08,1.69,1.69,-1.69,-1.72,-1.93,6.39,6.39,6.39
28.33,8.05,8.05,1.66,1.67,-1.67,-1.70,-1.96,6.38,6.38,6.39
28.62,8.03,8.03,1.65,1.65,-1.65,-1.67,-1.98,6.38,6.38,6.38
28.90,8.01,8.01,1.63,1.63,-1.63,-1.65,-2.01,6.38,6.38,6.38
29.19,7.99,7.99,1.61,1.61,-1.61,-1.63,-2.03,6.38,6.38,6.38
29.48,7.97,7.97,1.59,1.59,-1.59,-1.60,-2.05,6.38,6.38,6.38
29.78,7.94,7.94,1.57,1.57,-1.57,-1.58,-2.06,6.37,6.38,6.37
30.08,7.92,7.92,1.55,1.55,-1.55,-1.55,-2.07,6.37,6.37,6.37
30.38,7.89,7.89,1.52,1.52,-1.52,-1.53,-2.08,6.37,6.37,6.37
30.68,7.87,7.87,1.50,1.50,-1.50,-1.51,-2.09,6.37,6.37,6.37
30.99,7.84,7.84,1.48,1.48,-1.48,-1.48,-2.09,6.36,6.36,6.36
31.30,7.81,7.81,1.45,1.45,-1.45,-1.46,-2.09,6.36,6.36,6.36
31.61,7.79,7.79,1.43,1.43,-1.43,-1.43,-2.08,6.36,6.36,6.36
31.93,7.76,7.76,1.41,1.40,-1.40,-1.41,-2.07,6.35,6.35,6.35
32.24,7.73,7.73,1.38,1.38,-1.38,-1.38,-2.06,6.35,6.35,6.35
32.57,7.70,7.70,1.35,1.36,-1.36,-1.35,-2.04,6.34,6.35,6.35
32.89,7.68,7.68,1.34,1.33,-1.33,-1.33,-2.02,6.35,6.34,6.34
33.22,7.65,7.65,1.31,1.31,-1.31,-1.30,-2.00,6.34,6.34,6.34
33.55,7.62,7.62,1.28,1.29,-1.29,-1.28,-1.97,6.33,6.34,6.34
33.89,7.59,7.59,1.26,1.26,-1.26,-1.25,-1.94,6.33,6.33,6.33
34.23,7.57,7.57,1.24,1.24,-1.24,-1.22,-1.91,6.33,6.33,6.33
34.57,7.54,7.54,1.22,1.22,-1.22,-1.20,-1.88,6.32,6.32,6.32
34.92,7.51,7.51,1.19,1.19,-1.19,-1.17,-1.84,6.32,6.32,6.32
35.27,7.48,7.48,1.17,1.17,-1.17,-1.15,-1.80,6.31,6.31,6.31
35.62,7.46,7.46,1.15,1.15,-1.15,-1.12,-1.76,6.31,6.31,6.31
35.97,7.43,7.43,1.13,1.13,-1.12,-1.09,-1.72,6.31,6.30,6.30
36.33,7.40,7.40,1.10,1.10,-1.10,-1.07,-1.67,6.30,6.30,6.30
36.70,7.37,7.37,1.08,1.08,-1.08,-1.04,-1.63,6.29,6.29,6.29
37.06,7.34,7.34,1.05,1.05,-1.05,-1.01,-1.58,6.29,6.29,6.29
37.43,7.31,7.31,1.03,1.03,-1.03,-0.99,-1.54,6.28,6.28,6.28
37.81,7.28,7.28,1.00,1.00,-1.00,-0.96,-1.49,6.27,6.27,6.27
38.19,7.25,7.25,0.98,0.98,-0.98,-0.93,-1.44,6.27,6.27,6.27
38.57,7.22,7.22,0.96,0.96,-0.96,-0.91,-1.39,6.26,6.26,6.26
38.95,7.19,7.19,0.93,0.93,-0.93,-0.88,-1.34,6.25,6.25,6.26
39.34,7.16,7.16,0.91,0.91,-0.91,-0.85,-1.29,6.25,6.25,6.25
39.74,7.13,7.13,0.89,0.89,-0.89,-0.83,-1.25,6.24,6.24,6.24
40.14,7.10,7.10,0.87,0.87,-0.86,-0.80,-1.20,6.24,6.24,6.23
40.54,7.07,7.07,0.84,0.84,-0.84,-0.78,-1.15,6.23,6.23,6.23
40.94,7.03,7.03,0.81,0.82,-0.82,-0.75,-1.10,6.21,6.22,6.22
41.35,7.00,7.00,0.79,0.79,-0.79,-0.73,-1.05,6.21,6.21,6.21
41.76,6.97,6.96,0.77,0.76,-0.77,-0.70,-1.01,6.20,6.20,6.20
42.18,6.93,6.93,0.74,0.74,-0.74,-0.68,-0.96,6.19,6.19,6.19
42.60,6.90,6.90,0.72,0.72,-0.72,-0.65,-0.91,6.18,6.18,6.18
43.03,6.87,6.87,0.70,0.69,-0.69,-0.63,-0.87,6.18,6.17,6.17
43.46,6.83,6.83,0.67,0.67,-0.67,-0.60,-0.82,6.16,6.16,6.16
43.90,6.80,6.80,0.65,0.64,-0.65,-0.58,-0.78,6.15,6.15,6.15
44.33,6.76,6.76,0.62,0.62,-0.62,-0.55,-0.73,6.14,6.14,6.14
44.78,6.73,6.73,0.60,0.60,-0.60,-0.53,-0.69,6.13,6.13,6.13
45.23,6.70,6.70,0.58,0.58,-0.58,-0.51,-0.65,6.12,6.12,6.12
45.68,6.66,6.66,0.55,0.56,-0.56,-0.49,-0.60,6.10,6.11,6.11
46.13,6.63,6.63,0.54,0.53,-0.53,-0.46,-0.56,6.10,6.09,6.09
46.60,6.59,6.59,0.51,0.51,-0.51,-0.44,-0.52,6.08,6.08,6.08
47.06,6.56,6.56,0.49,0.49,-0.49,-0.42,-0.48,6.07,6.07,6.07
47.53,6.52,6.52,0.47,0.47,-0.47,-0.40,-0.44,6.05,6.05,6.05
48.01,6.48,6.48,0.44,0.44,-0.45,-0.38,-0.40,6.03,6.04,6.04
48.49,6.45,6.45,0.43,0.42,-0.42,-0.36,-0.36,6.03,6.02,6.02
48.97,6.41,6.41,0.40,0.40,-0.40,-0.34,-0.32,6.01,6.01,6.01
49.46,6.38,6.38,0.39,0.38,-0.38,-0.32,-0.29,6.00,5.99,5.99
49.96,6.34,6.34,0.36,0.36,-0.36,-0.30,-0.25,5.98,5.98,5.98
50.46,6.30,6.30,0.34,0.34,-0.34,-0.29,-0.21,5.96,5.96,5.96
50.96,6.27,6.27,0.33,0.32,-0.32,-0.27,-0.18,5.95,5.94,5.94
51.47,6.23,6.23,0.30,0.30,-0.30,-0.25,-0.14,5.93,5.93,5.92
51.99,6.19,6.19,0.28,0.28,-0.28,-0.24,-0.11,5.91,5.91,5.91
52.51,6.15,6.15,0.26,0.26,-0.26,-0.22,-0.08,5.88,5.88,5.89
53.03,6.11,6.11,0.24,0.24,-0.25,-0.21,-0.05,5.86,5.86,5.87
53.56,6.07,6.07,0.22,0.23,-0.23,-0.19,-0.02,5.84,5.84,5.85
54.10,6.04,6.04,0.22,0.21,-0.21,-0.18,0.01,5.83,5.82,5.82
54.64,6.00,6.00,0.20,0.20,-0.19,-0.17,0.04,5.81,5.80,5.80
55.18,5.96,5.96,0.18,0.18,-0.18,-0.16,0.07,5.78,5.78,5.78
55.74,5.92,5.92,0.16,0.16,-0.16,-0.14,0.10,5.76,5.76,5.76
56.29,5.88,5.88,0.15,0.15,-0.15,-0.13,0.12,5.73,5.73,5.73
56.86,5.84,5.84,0.13,0.13,-0.13,-0.13,0.14,5.71,5.71,5.71
57.42,5.80,5.80,0.12,0.12,-0.12,-0.12,0.16,5.68,5.68,5.68
58.00,5.76,5.76,0.10,0.10,-0.10,-0.11,0.18,5.66,5.66,5.66
58.58,5.72,5.72,0.09,0.09,-0.09,-0.10,0.20,5.63,5.63,5.63
59.16,5.68,5.68,0.08,0.08,-0.08,-0.09,0.22,5.60,5.60,5.60
59.76,5.64,5.64,0.07,0.07,-0.07,-0.09,0.23,5.57,5.57,5.57
60.35,5.60,5.60,0.06,0.06,-0.06,-0.08,0.24,5.54,5.54,5.54
60.96,5.56,5.56,0.05,0.05,-0.05,-0.08,0.25,5.51,5.51,5.51
61.57,5.52,5.52,0.04,0.04,-0.04,-0.08,0.26,5.48,5.48,5.48
62.18,5.48,5.48,0.03,0.03,-0.03,-0.07,0.27,5.45,5.45,5.45
62.80,5.44,5.44,0.03,0.03,-0.03,-0.07,0.27,5.41,5.41,5.41
63.43,5.40,5.40,0.02,0.02,-0.02,-0.07,0.28,5.38,5.38,5.38
64.07,5.36,5.36,0.02,0.01,-0.01,-0.07,0.28,5.35,5.35,5.34
64.71,5.32,5.32,0.01,0.01,-0.01,-0.07,0.27,5.31,5.31,5.31
65.35,5.27,5.27,-0.00,0.00,-0.00,-0.07,0.27,5.27,5.27,5.27
66.01,5.23,5.23,-0.00,-0.00,0.00,-0.07,0.27,5.23,5.23,5.23
66.67,5.19,5.19,-0.00,-0.00,0.00,-0.07,0.26,5.19,5.19,5.19
67.33,5.15,5.15,-0.01,-0.01,0.01,-0.07,0.25,5.16,5.16,5.15
68.01,5.11,5.11,-0.00,-0.01,0.01,-0.08,0.24,5.12,5.11,5.11
68.69,5.06,5.06,-0.01,-0.01,0.01,-0.08,0.23,5.07,5.07,5.07
69.37,5.02,5.02,-0.01,-0.01,0.01,-0.09,0.21,5.03,5.03,5.03
70.07,4.98,4.98,-0.00,-0.01,0.01,-0.09,0.20,4.98,4.98,4.98
70.77,4.94,4.94,0.00,-0.00,0.00,-0.10,0.18,4.94,4.94,4.94
71.48,4.89,4.89,-0.00,0.00,-0.00,-0.10,0.16,4.89,4.89,4.89
72.19,4.85,4.85,0.00,0.01,-0.01,-0.11,0.15,4.84,4.85,4.85
72.91,4.81,4.81,0.01,0.01,-0.01,-0.12,0.13,4.80,4.80,4.80
73.64,4.77,4.77,0.02,0.02,-0.02,-0.13,0.11,4.75,4.75,4.75
74.38,4.72,4.72,0.02,0.03,-0.02,-0.14,0.08,4.69,4.70,4.70
75.12,4.68,4.68,0.03,0.03,-0.03,-0.14,0.06,4.65,4.65,4.65
75.87,4.64,4.64,0.04,0.04,-0.04,-0.15,0.04,4.60,4.59,4.59
76.63,4.59,4.59,0.05,0.05,-0.05,-0.16,0.02,4.54,4.54,4.54
77.40,4.55,4.55,0.06,0.06,-0.06,-0.17,-0.01,4.49,4.49,4.49
78.17,4.50,4.50,0.07,0.07,-0.07,-0.19,-0.03,4.43,4.43,4.43
78.95,4.46,4.46,0.08,0.08,-0.08,-0.20,-0.06,4.37,4.37,4.37
79.74,4.42,4.41,0.10,0.10,-0.10,-0.21,-0.08,4.32,4.32,4.32
80.54,4.37,4.37,0.11,0.11,-0.11,-0.22,-0.11,4.26,4.26,4.26
81.35,4.33,4.33,0.13,0.13,-0.13,-0.23,-0.14,4.20,4.20,4.20
82.16,4.29,4.28,0.15,0.14,-0.15,-0.25,-0.16,4.14,4.14,4.14
82.98,4.24,4.24,0.16,0.16,-0.16,-0.26,-0.19,4.08,4.08,4.08
83.81,4.20,4.20,0.18,0.18,-0.18,-0.28,-0.22,4.02,4.02,4.02
84.65,4.16,4.16,0.20,0.20,-0.20,-0.29,-0.25,3.96,3.96,3.95
85.50,4.11,4.11,0.22,0.22,-0.22,-0.30,-0.27,3.89,3.89,3.89
86.35,4.07,4.07,0.24,0.24,-0.24,-0.32,-0.30,3.83,3.83,3.83
87.22,4.02,4.02,0.26,0.26,-0.26,-0.34,-0.33,3.76,3.76,3.76
88.09,3.98,3.98,0.28,0.28,-0.28,-0.35,-0.36,3.70,3.69,3.70
88.97,3.93,3.93,0.30,0.30,-0.31,-0.37,-0.39,3.62,3.63,3.63
89.86,3.89,3.89,0.33,0.33,-0.33,-0.38,-0.42,3.56,3.56,3.56
90.76,3.85,3.85,0.36,0.35,-0.35,-0.40,-0.45,3.50,3.49,3.49
91.66,3.80,3.80,0.37,0.38,-0.38,-0.42,-0.48,3.42,3.43,3.42
92.58,3.76,3.76,0.40,0.40,-0.40,-0.44,-0.51,3.36,3.35,3.36
93.51,3.71,3.71,0.42,0.43,-0.43,-0.45,-0.54,3.28,3.28,3.29
94.44,3.67,3.67,0.45,0.45,-0.45,-0.47,-0.57,3.21,3.22,3.22
95.39,3.63,3.63,0.48,0.48,-0.48,-0.49,-0.60,3.15,3.15,3.14
96.34,3.58,3.58,0.51,0.51,-0.51,-0.51,-0.63,3.07,3.07,3.07
97.30,3.54,3.54,0.54,0.53,-0.54,-0.53,-0.66,3.00,3.00,3.00
98.28,3.49,3.49,0.56,0.56,-0.56,-0.55,-0.69,2.93,2.93,2.93
99.26,3.45,3.45,0.59,0.59,-0.59,-0.57,-0.72,2.86,2.86,2.86
100.25,3.41,3.41,0.62,0.62,-0.62,-0.59,-0.75,2.79,2.79,2.79
101.25,3.36,3.36,0.65,0.65,-0.65,-0.61,-0.78,2.71,2.71,2.71
102.27,3.32,3.32,0.68,0.68,-0.68,-0.63,-0.82,2.64,2.64,2.64
103.29,3.27,3.27,0.70,0.70,-0.70,-0.65,-0.85,2.56,2.57,2.57
104.32,3.23,3.23,0.74,0.73,-0.73,-0.68,-0.88,2.50,2.49,2.49
105.37,3.18,3.18,0.76,0.76,-0.76,-0.70,-0.91,2.42,2.42,2.42
106.42,3.14,3.14,0.79,0.79,-0.79,-0.72,-0.94,2.35,2.35,2.35
107.48,3.09,3.09,0.81,0.82,-0.82,-0.74,-0.96,2.27,2.27,2.27
108.56,3.05,3.05,0.85,0.85,-0.85,-0.77,-0.99,2.20,2.20,2.20
109.64,3.01,3.00,0.88,0.88,-0.88,-0.79,-1.02,2.13,2.13,2.13
110.74,2.96,2.96,0.90,0.91,-0.91,-0.82,-1.05,2.05,2.06,2.06
111.85,2.92,2.92,0.94,0.94,-0.93,-0.84,-1.07,1.98,1.98,1.98
112.97,2.88,2.88,0.97,0.96,-0.96,-0.87,-1.10,1.92,1.91,1.91
114.10,2.83,2.83,0.99,0.99,-0.99,-0.89,-1.12,1.84,1.84,1.84
115.24,2.79,2.79,1.02,1.02,-1.02,-0.92,-1.14,1.77,1.77,1.77
116.39,2.74,2.74,1.04,1.04,-1.05,-0.94,-1.17,1.69,1.70,1.70
117.55,2.70,2.70,1.07,1.07,-1.07,-0.97,-1.19,1.63,1.63,1.63
118.73,2.66,2.65,1.10,1.10,-1.10,-1.00,-1.20,1.56,1.56,1.56
119.92,2.61,2.61,1.12,1.12,-1.12,-1.02,-1.22,1.48,1.49,1.49
121.12,2.57,2.57,1.15,1.15,-1.15,-1.05,-1.24,1.42,1.42,1.42
122.33,2.53,2.53,1.18,1.18,-1.18,-1.08,-1.25,1.35,1.35,1.35
123.55,2.49,2.49,1.21,1.20,-1.20,-1.11,-1.26,1.29,1.29,1.28
124.79,2.44,2.44,1.22,1.23,-1.22,-1.13,-1.27,1.21,1.22,1.22
126.03,2.40,2.40,1.25,1.25,-1.25,-1.16,-1.28,1.15,1.15,1.15
127.29,2.36,2.35,1.27,1.27,-1.27,-1.19,-1.28,1.09,1.08,1.09
128.57,2.31,2.31,1.29,1.29,-1.29,-1.22,-1.29,1.02,1.02,1.02
129.85,2.27,2.27,1.31,1.31,-1.31,-1.25,-1.29,0.96,0.96,0.96
131.15,2.23,2.23,1.34,1.33,-1.33,-1.27,-1.29,0.90,0.89,0.89
132.46,2.19,2.19,1.36,1.35,-1.35,-1.30,-1.29,0.84,0.83,0.83
133.79,2.14,2.14,1.37,1.37,-1.37,-1.33,-1.29,0.77,0.77,0.77
135.12,2.10,2.10,1.39,1.39,-1.39,-1.35,-1.29,0.71,0.71,0.71
136.48,2.06,2.06,1.41,1.41,-1.41,-1.38,-1.28,0.65,0.65,0.65
137.84,2.02,2.02,1.43,1.43,-1.42,-1.41,-1.28,0.59,0.59,0.59
139.22,1.98,1.98,1.44,1.44,-1.44,-1.43,-1.27,0.54,0.54,0.53
140.61,1.93,1.93,1.45,1.45,-1.46,-1.46,-1.26,0.47,0.48,0.48
142.02,1.89,1.89,1.47,1.47,-1.47,-1.48,-1.25,0.42,0.42,0.42
143.44,1.85,1.85,1.48,1.48,-1.48,-1.51,-1.25,0.37,0.36,0.37
144.87,1.81,1.81,1.50,1.50,-1.50,-1.53,-1.24,0.31,0.31,0.31
146.32,1.77,1.77,1.51,1.51,-1.51,-1.55,-1.23,0.26,0.26,0.26
147.78,1.73,1.73,1.52,1.52,-1.52,-1.57,-1.22,0.21,0.21,0.21
149.26,1.69,1.69,1.53,1.53,-1.53,-1.59,-1.21,0.16,0.16,0.16
150.75,1.65,1.65,1.54,1.54,-1.53,-1.61,-1.20,0.12,0.11,0.11
152.26,1.60,1.60,1.54,1.54,-1.54,-1.63,-1.19,0.06,0.06,0.06
153.78,1.56,1.56,1.55,1.55,-1.55,-1.64,-1.18,0.01,0.01,0.01
155.32,1.52,1.52,1.55,1.55,-1.55,-1.66,-1.17,-0.04,-0.04,-0.03
156.88,1.48,1.48,1.56,1.56,-1.56,-1.67,-1.16,-0.08,-0.08,-0.08
158.44,1.44,1.44,1.56,1.56,-1.57,-1.69,-1.15,-0.13,-0.13,-0.12
160.03,1.40,1.40,1.57,1.57,-1.57,-1.70,-1.15,-0.17,-0.17,-0.17
161.63,1.37,1.37,1.59,1.58,-1.58,-1.71,-1.14,-0.21,-0.21,-0.22
163.24,1.33,1.33,1.59,1.59,-1.58,-1.71,-1.13,-0.25,-0.25,-0.26
164.88,1.29,1.29,1.59,1.59,-1.59,-1.72,-1.13,-0.30,-0.30,-0.30
166.53,1.25,1.25,1.59,1.59,-1.59,-1.72,-1.12,-0.34,-0.34,-0.34
168.19,1.21,1.21,1.59,1.59,-1.59,-1.73,-1.12,-0.38,-0.38,-0.38
169.87,1.17,1.17,1.58,1.59,-1.59,-1.73,-1.11,-0.42,-0.42,-0.42
171.57,1.14,1.14,1.59,1.59,-1.59,-1.73,-1.11,-0.45,-0.45,-0.45
173.29,1.10,1.10,1.59,1.59,-1.58,-1.73,-1.11,-0.48,-0.49,-0.49
175.02,1.06,1.06,1.58,1.58,-1.58,-1.72,-1.11,-0.52,-0.52,-0.52
176.77,1.02,1.02,1.57,1.57,-1.58,-1.72,-1.11,-0.56,-0.56,-0.56
178.54,0.98,0.98,1.57,1.57,-1.57,-1.71,-1.11,-0.59,-0.59,-0.59
180.32,0.95,0.94,1.57,1.56,-1.57,-1.71,-1.11,-0.62,-0.62,-0.62
182.13,0.91,0.91,1.56,1.56,-1.56,-1.70,-1.12,-0.65,-0.65,-0.65
183.95,0.87,0.87,1.55,1.55,-1.55,-1.69,-1.12,-0.68,-0.68,-0.68
185.79,0.84,0.84,1.55,1.55,-1.55,-1.68,-1.12,-0.71,-0.71,-0.71
187.65,0.80,0.80,1.54,1.54,-1.54,-1.66,-1.13,-0.74,-0.74,-0.74
189.52,0.77,0.77,1.53,1.53,-1.53,-1.65,-1.14,-0.76,-0.76,-0.77
191.42,0.73,0.73,1.52,1.52,-1.52,-1.64,-1.14,-0.79,-0.79,-0.79
193.33,0.70,0.70,1.52,1.52,-1.51,-1.62,-1.15,-0.81,-0.82,-0.82
195.27,0.66,0.66,1.50,1.50,-1.50,-1.60,-1.16,-0.84,-0.84,-0.84
197.22,0.63,0.63,1.50,1.49,-1.49,-1.59,-1.17,-0.86,-0.87,-0.87
199.19,0.59,0.59,1.48,1.48,-1.48,-1.57,-1.18,-0.89,-0.89,-0.89
201.18,0.56,0.56,1.47,1.47,-1.47,-1.55,-1.19,-0.91,-0.91,-0.91
203.19,0.52,0.52,1.46,1.46,-1.46,-1.53,-1.20,-0.94,-0.94,-0.94
205.23,0.49,0.49,1.45,1.45,-1.45,-1.51,-1.21,-0.96,-0.96,-0.96
207.28,0.46,0.45,1.44,1.43,-1.43,-1.49,-1.22,-0.97,-0.98,-0.98
209.35,0.42,0.42,1.42,1.42,-1.42,-1.47,-1.23,-1.00,-1.00,-1.00
211.44,0.39,0.39,1.41,1.41,-1.41,-1.45,-1.24,-1.02,-1.02,-1.02
213.56,0.36,0.35,1.40,1.39,-1.39,-1.43,-1.25,-1.03,-1.04,-1.04
215.69,0.32,0.32,1.37,1.38,-1.38,-1.41,-1.26,-1.06,-1.06,-1.05
217.85,0.29,0.29,1.36,1.36,-1.36,-1.39,-1.27,-1.07,-1.07,-1.07
220.03,0.26,0.26,1.35,1.35,-1.35,-1.37,-1.28,-1.09,-1.09,-1.09
222.23,0.23,0.23,1.34,1.34,-1.33,-1.35,-1.29,-1.11,-1.11,-1.11
224.45,0.20,0.20,1.32,1.32,-1.32,-1.33,-1.30,-1.12,-1.12,-1.12
226.70,0.17,0.17,1.31,1.31,-1.31,-1.31,-1.30,-1.14,-1.14,-1.14
228.96,0.14,0.14,1.29,1.29,-1.29,-1.29,-1.31,-1.15,-1.15,-1.15
231.25,0.11,0.11,1.28,1.28,-1.28,-1.27,-1.31,-1.17,-1.17,-1.17
233.57,0.08,0.08,1.26,1.26,-1.26,-1.25,-1.32,-1.18,-1.18,-1.18
235.90,0.05,0.05,1.25,1.25,-1.25,-1.23,-1.32,-1.20,-1.20,-1.20
238.26,0.02,0.02,1.24,1.24,-1.23,-1.21,-1.32,-1.22,-1.22,-1.22
240.64,-0.01,-0.01,1.22,1.22,-1.22,-1.19,-1.32,-1.23,-1.23,-1.23
243.05,-0.04,-0.04,1.20,1.20,-1.21,-1.18,-1.32,-1.25,-1.24,-1.24
245.48,-0.06,-0.07,1.19,1.19,-1.19,-1.16,-1.32,-1.25,-1.26,-1.25
247.93,-0.09,-0.09,1.17,1.17,-1.17,-1.14,-1.31,-1.27,-1.27,-1.27
250.41,-0.12,-0.12,1.16,1.16,-1.16,-1.13,-1.30,-1.28,-1.27,-1.28
252.92,-0.14,-0.15,1.15,1.14,-1.14,-1.11,-1.29,-1.28,-1.29,-1.29
255.45,-0.17,-0.17,1.13,1.13,-1.13,-1.09,-1.28,-1.30,-1.30,-1.30
258.00,-0.20,-0.20,1.11,1.11,-1.11,-1.08,-1.27,-1.31,-1.31,-1.31
260.58,-0.22,-0.23,1.10,1.09,-1.09,-1.06,-1.25,-1.31,-1.32,-1.32
263.19,-0.25,-0.25,1.07,1.07,-1.08,-1.05,-1.24,-1.33,-1.33,-1.33
265.82,-0.28,-0.28,1.05,1.06,-1.06,-1.03,-1.22,-1.34,-1.34,-1.33
268.48,-0.30,-0.30,1.04,1.04,-1.04,-1.02,-1.20,-1.34,-1.35,-1.34
271.16,-0.32,-0.33,1.03,1.03,-1.03,-1.00,-1.18,-1.35,-1.35,-1.35
273.87,-0.35,-0.35,1.01,1.01,-1.01,-0.99,-1.16,-1.36,-1.36,-1.36
276.61,-0.37,-0.37,1.00,1.00,-0.99,-0.97,-1.13,-1.36,-1.36,-1.37
279.38,-0.39,-0.40,0.98,0.98,-0.98,-0.96,-1.11,-1.37,-1.37,-1.37
282.17,-0.42,-0.42,0.96,0.96,-0.96,-0.94,-1.08,-1.38,-1.38,-1.38
284.99,-0.44,-0.44,0.94,0.94,-0.94,-0.92,-1.06,-1.38,-1.38,-1.38
287.84,-0.46,-0.46,0.91,0.92,-0.92,-0.91,-1.03,-1.38,-1.38,-1.37
290.72,-0.48,-0.48,0.90,0.90,-0.90,-0.89,-1.00,-1.38,-1.38,-1.38
293.63,-0.51,-0.51,0.88,0.87,-0.88,-0.87,-0.97,-1.39,-1.38,-1.39
296.57,-0.53,-0.53,0.85,0.85,-0.85,-0.85,-0.94,-1.38,-1.38,-1.38
299.53,-0.55,-0.55,0.83,0.83,-0.83,-0.83,-0.91,-1.38,-1.38,-1.38
302.53,-0.57,-0.57,0.81,0.81,-0.81,-0.81,-0.88,-1.38,-1.38,-1.38
305.55,-0.59,-0.59,0.79,0.79,-0.79,-0.79,-0.85,-1.38,-1.38,-1.38
308.61,-0.61,-0.61,0.77,0.77,-0.77,-0.77,-0.82,-1.38,-1.38,-1.38
311.69,-0.63,-0.63,0.75,0.75,-0.75,-0.75,-0.79,-1.38,-1.38,-1.38
314.81,-0.65,-0.65,0.73,0.73,-0.73,-0.73,-0.76,-1.38,-1.38,-1.38
317.96,-0.67,-0.67,0.71,0.71,-0.71,-0.70,-0.73,-1.38,-1.38,-1.38
321.14,-0.69,-0.69,0.69,0.69,-0.69,-0.68,-0.70,-1.38,-1.38,-1.38
324.35,-0.70,-0.70,0.68,0.67,-0.67,-0.66,-0.67,-1.37,-1.38,-1.38
327.59,-0.72,-0.72,0.65,0.65,-0.65,-0.64,-0.64,-1.37,-1.38,-1.37
330.87,-0.74,-0.74,0.64,0.63,-0.63,-0.61,-0.61,-1.38,-1.37,-1.38
334.18,-0.76,-0.76,0.61,0.62,-0.61,-0.59,-0.58,-1.38,-1.37,-1.37
337.52,-0.77,-0.78,0.60,0.60,-0.59,-0.57,-0.55,-1.37,-1.37,-1.37
340.90,-0.79,-0.79,0.58,0.57,-0.57,-0.55,-0.52,-1.37,-1.37,-1.37
344.30,-0.81,-0.81,0.55,0.56,-0.55,-0.53,-0.49,-1.36,-1.36,-1.36
347.75,-0.82,-0.82,0.53,0.53,-0.53,-0.51,-0.46,-1.35,-1.36,-1.35
351.23,-0.84,-0.84,0.52,0.51,-0.51,-0.49,-0.43,-1.35,-1.35,-1.36
354.74,-0.85,-0.85,0.49,0.49,-0.49,-0.47,-0.40,-1.34,-1.35,-1.34
358.28,-0.87,-0.87,0.47,0.47,-0.47,-0.45,-0.38,-1.34,-1.34,-1.34
361.87,-0.88,-0.88,0.46,0.45,-0.45,-0.43,-0.35,-1.33,-1.34,-1.34
365.49,-0.90,-0.90,0.43,0.43,-0.43,-0.41,-0.32,-1.33,-1.33,-1.33
369.14,-0.91,-0.91,0.42,0.41,-0.41,-0.39,-0.29,-1.33,-1.33,-1.33
372.83,-0.92,-0.92,0.39,0.39,-0.40,-0.37,-0.27,-1.32,-1.32,-1.31
376.56,-0.94,-0.94,0.38,0.38,-0.38,-0.36,-0.24,-1.32,-1.31,-1.32
380.33,-0.95,-0.95,0.36,0.36,-0.36,-0.34,-0.22,-1.31,-1.31,-1.31
384.13,-0.97,-0.97,0.34,0.34,-0.34,-0.32,-0.19,-1.31,-1.30,-1.31
387.97,-0.98,-0.98,0.32,0.32,-0.32,-0.31,-0.16,-1.30,-1.30,-1.30
391.85,-0.99,-1.00,0.29,0.30,-0.30,-0.29,-0.14,-1.29,-1.29,-1.29
395.77,-1.01,-1.01,0.28,0.28,-0.28,-0.28,-0.12,-1.29,-1.29,-1.29
399.73,-1.02,-1.02,0.26,0.26,-0.26,-0.26,-0.09,-1.28,-1.28,-1.28
403.72,-1.03,-1.03,0.24,0.24,-0.24,-0.24,-0.07,-1.27,-1.27,-1.27
407.76,-1.04,-1.04,0.23,0.23,-0.23,-0.23,-0.04,-1.27,-1.27,-1.27
411.84,-1.05,-1.05,0.21,0.21,-0.21,-0.21,-0.02,-1.26,-1.26,-1.26
415.96,-1.07,-1.07,0.19,0.19,-0.19,-0.20,0.00,-1.26,-1.26,-1.26
420.12,-1.08,-1.08,0.18,0.17,-0.18,-0.19,0.02,-1.26,-1.26,-1.26
424.32,-1.09,-1.09,0.16,0.16,-0.16,-0.17,0.04,-1.25,-1.25,-1.25
428.56,-1.10,-1.10,0.14,0.14,-0.14,-0.16,0.07,-1.24,-1.24,-1.24
432.85,-1.11,-1.11,0.12,0.13,-0.12,-0.14,0.09,-1.24,-1.24,-1.23
437.18,-1.12,-1.12,0.11,0.11,-0.11,-0.13,0.11,-1.23,-1.23,-1.23
441.55,-1.13,-1.13,0.09,0.09,-0.09,-0.11,0.12,-1.22,-1.22,-1.23
445.96,-1.14,-1.14,0.08,0.07,-0.07,-0.10,0.14,-1.21,-1.21,-1.22
450.42,-1.15,-1.15,0.05,0.05,-0.05,-0.09,0.16,-1.20,-1.20,-1.20
454.93,-1.16,-1.16,0.03,0.03,-0.03,-0.07,0.18,-1.20,-1.20,-1.19
459.48,-1.17,-1.17,0.01,0.01,-0.02,-0.06,0.19,-1.19,-1.19,-1.18
464.07,-1.18,-1.18,0.00,-0.00,0.00,-0.04,0.21,-1.18,-1.18,-1.18
468.71,-1.19,-1.19,-0.02,-0.02,0.02,-0.03,0.22,-1.17,-1.17,-1.17
473.40,-1.20,-1.20,-0.04,-0.04,0.04,-0.02,0.23,-1.16,-1.16,-1.16
478.13,-1.21,-1.21,-0.06,-0.06,0.06,-0.00,0.25,-1.16,-1.16,-1.15
482.91,-1.22,-1.22,-0.08,-0.07,0.07,0.01,0.26,-1.15,-1.15,-1.15
487.74,-1.23,-1.23,-0.09,-0.09,0.09,0.03,0.27,-1.14,-1.14,-1.14
492.62,-1.23,-1.23,-0.10,-0.11,0.11,0.04,0.28,-1.12,-1.13,-1.13
497.55,-1.24,-1.24,-0.12,-0.12,0.13,0.06,0.28,-1.11,-1.11,-1.12
502.52,-1.25,-1.25,-0.14,-0.14,0.15,0.07,0.29,-1.10,-1.10,-1.11
507.55,-1.26,-1.26,-0.17,-0.17,0.16,0.09,0.30,-1.10,-1.10,-1.09
