frequency,raw,error,smoothed,error_smoothed,equalization,parametric_eq,equalized_raw,equalized_smoothed,target
20,-1.57,-3.27,-1.54,-3.21,3.21,-0.37,1.64,1.67,1.71
21,-1.06,-2.76,-0.98,-2.65,2.65,-0.43,1.59,1.67,1.70
22,-0.46,-2.15,-0.44,-2.11,2.11,-0.50,1.66,1.67,1.70
23,0.06,-1.63,0.06,-1.62,1.62,-0.57,1.68,1.67,1.69
24,0.55,-1.13,0.53,-1.15,1.15,-0.64,1.70,1.67,1.69
25,1.01,-0.67,0.96,-0.71,0.71,-0.72,1.72,1.67,1.68
26,1.42,-0.25,1.36,-0.31,0.31,-0.79,1.73,1.67,1.67
27,1.79,0.13,1.73,0.07,-0.07,-0.87,1.73,1.67,1.67
28,2.12,0.46,2.07,0.41,-0.41,-0.94,1.71,1.66,1.66
29,2.40,0.75,2.37,0.72,-0.72,-1.00,1.68,1.66,1.65
30,2.65,1.01,2.65,1.00,-1.00,-1.05,1.66,1.65,1.65
31,2.87,1.24,2.87,1.23,-1.23,-1.08,1.64,1.64,1.64
32,3.05,1.43,3.06,1.43,-1.43,-1.11,1.62,1.63,1.63
33,3.22,1.60,3.22,1.60,-1.60,-1.12,1.62,1.62,1.62
34,3.35,1.74,3.35,1.74,-1.74,-1.13,1.61,1.61,1.61
35,3.45,1.86,3.46,1.86,-1.86,-1.14,1.59,1.60,1.60
36,3.54,1.96,3.54,1.95,-1.95,-1.14,1.59,1.58,1.59
37,3.58,2.01,3.60,2.03,-2.03,-1.14,1.56,1.57,1.57
38,3.63,2.07,3.64,2.08,-2.08,-1.14,1.55,1.56,1.56
39,3.67,2.12,3.67,2.12,-2.12,-1.14,1.55,1.55,1.55
40,3.67,2.14,3.68,2.14,-2.14,-1.15,1.53,1.53,1.54
41,3.67,2.15,3.67,2.15,-2.15,-1.16,1.52,1.52,1.52
42,3.64,2.14,3.66,2.15,-2.15,-1.17,1.49,1.50,1.51
43,3.63,2.14,3.63,2.14,-2.14,-1.19,1.49,1.48,1.49
44,3.58,2.11,3.60,2.13,-2.13,-1.22,1.46,1.47,1.47
45,3.54,2.09,3.55,2.10,-2.10,-1.25,1.44,1.45,1.46
46,3.50,2.06,3.51,2.07,-2.07,-1.28,1.43,1.43,1.44
47,3.45,2.03,3.46,2.04,-2.04,-1.31,1.41,1.41,1.42
48,3.41,2.01,3.40,2.01,-2.01,-1.35,1.41,1.39,1.40
49,3.32,1.94,3.34,1.97,-1.97,-1.39,1.35,1.37,1.38
50,3.28,1.92,3.29,1.93,-1.93,-1.44,1.35,1.35,1.36
51,3.22,1.89,3.23,1.89,-1.89,-1.48,1.33,1.33,1.34
52,3.16,1.85,3.17,1.86,-1.86,-1.52,1.31,1.31,1.32
53,3.11,1.82,3.11,1.82,-1.82,-1.57,1.29,1.29,1.29
54,3.03,1.76,3.05,1.78,-1.78,-1.61,1.25,1.27,1.27
55,2.98,1.74,2.99,1.75,-1.75,-1.65,1.23,1.24,1.24
56,2.93,1.71,2.93,1.72,-1.72,-1.69,1.22,1.22,1.22
57,2.88,1.69,2.88,1.69,-1.69,-1.73,1.20,1.19,1.19
58,2.82,1.66,2.82,1.66,-1.66,-1.76,1.17,1.16,1.17
59,2.76,1.62,2.77,1.63,-1.63,-1.78,1.13,1.14,1.14
60,2.72,1.61,2.71,1.60,-1.60,-1.81,1.12,1.11,1.11
61,2.66,1.58,2.66,1.58,-1.58,-1.82,1.08,1.08,1.08
62,2.61,1.56,2.61,1.56,-1.56,-1.84,1.05,1.05,1.05
63,2.56,1.54,2.56,1.54,-1.54,-1.84,1.03,1.02,1.02
64,2.50,1.51,2.51,1.52,-1.52,-1.85,0.98,1.00,0.99
65,2.46,1.50,2.46,1.50,-1.50,-1.85,0.96,0.96,0.96
66,2.41,1.48,2.42,1.49,-1.49,-1.84,0.93,0.93,0.93
67,2.37,1.47,2.37,1.47,-1.47,-1.83,0.90,0.90,0.90
68,2.33,1.46,2.33,1.46,-1.46,-1.82,0.87,0.87,0.87
69,2.28,1.45,2.28,1.45,-1.45,-1.81,0.84,0.83,0.84
70,2.24,1.44,2.24,1.44,-1.44,-1.79,0.80,0.80,0.80
71,2.20,1.43,2.20,1.43,-1.43,-1.78,0.77,0.77,0.77
72,2.15,1.42,2.16,1.43,-1.43,-1.76,0.73,0.73,0.73
73,2.11,1.41,2.12,1.42,-1.42,-1.74,0.69,0.70,0.70
74,2.07,1.41,2.08,1.42,-1.42,-1.73,0.65,0.66,0.66
75,2.05,1.42,2.05,1.42,-1.42,-1.71,0.63,0.63,0.63
76,2.02,1.43,2.02,1.42,-1.42,-1.70,0.60,0.59,0.59
77,1.98,1.42,1.99,1.43,-1.43,-1.68,0.55,0.56,0.56
78,1.95,1.43,1.95,1.43,-1.43,-1.67,0.52,0.52,0.52
79,1.93,1.45,1.93,1.44,-1.44,-1.66,0.49,0.49,0.49
80,1.89,1.44,1.90,1.45,-1.45,-1.65,0.44,0.45,0.45
81,1.87,1.46,1.87,1.46,-1.46,-1.64,0.41,0.41,0.42
82,1.85,1.47,1.85,1.47,-1.47,-1.63,0.38,0.38,0.38
83,1.81,1.47,1.82,1.48,-1.48,-1.63,0.33,0.34,0.34
84,1.81,1.51,1.80,1.49,-1.49,-1.63,0.32,0.31,0.31
85,1.76,1.49,1.77,1.50,-1.50,-1.62,0.26,0.27,0.27
86,1.75,1.52,1.75,1.52,-1.52,-1.62,0.24,0.23,0.23
87,1.72,1.53,1.72,1.53,-1.53,-1.63,0.20,0.20,0.20
88,1.70,1.54,1.70,1.54,-1.54,-1.63,0.17,0.16,0.16
89,1.68,1.56,1.67,1.55,-1.55,-1.63,0.14,0.12,0.12
90,1.63,1.54,1.64,1.56,-1.56,-1.64,0.08,0.09,0.09
91,1.63,1.58,1.62,1.56,-1.56,-1.65,0.07,0.05,0.05
92,1.59,1.58,1.59,1.57,-1.57,-1.66,0.02,0.02,0.02
93,1.55,1.57,1.56,1.58,-1.58,-1.67,-0.03,-0.02,-0.02
94,1.53,1.59,1.53,1.59,-1.59,-1.68,-0.05,-0.05,-0.05
95,1.50,1.59,1.51,1.59,-1.59,-1.69,-0.09,-0.09,-0.09
96,1.46,1.59,1.48,1.60,-1.60,-1.71,-0.14,-0.12,-0.12
97,1.45,1.61,1.45,1.61,-1.61,-1.72,-0.15,-0.16,-0.16
98,1.42,1.61,1.42,1.61,-1.61,-1.74,-0.19,-0.19,-0.19
99,1.39,1.62,1.39,1.62,-1.62,-1.76,-0.23,-0.23,-0.23
100,1.37,1.63,1.36,1.63,-1.63,-1.78,-0.26,-0.27,-0.26
101,1.33,1.62,1.34,1.64,-1.64,-1.79,-0.31,-0.30,-0.29
102,1.32,1.65,1.31,1.65,-1.65,-1.81,-0.33,-0.34,-0.32
104,1.28,1.67,1.29,1.66,-1.66,-1.85,-0.38,-0.37,-0.39
105,1.24,1.66,1.26,1.67,-1.67,-1.87,-0.43,-0.41,-0.42
106,1.23,1.69,1.24,1.68,-1.68,-1.89,-0.45,-0.44,-0.45
107,1.20,1.69,1.22,1.69,-1.69,-1.91,-0.49,-0.48,-0.48
108,1.20,1.72,1.19,1.70,-1.70,-1.93,-0.50,-0.51,-0.51
109,1.16,1.71,1.17,1.72,-1.72,-1.94,-0.55,-0.54,-0.54
110,1.16,1.74,1.15,1.73,-1.73,-1.96,-0.57,-0.58,-0.57
111,1.13,1.74,1.13,1.74,-1.74,-1.98,-0.61,-0.61,-0.60
112,1.11,1.74,1.12,1.75,-1.75,-1.99,-0.64,-0.64,-0.63
113,1.11,1.77,1.10,1.77,-1.77,-2.01,-0.65,-0.67,-0.66
114,1.07,1.76,1.08,1.78,-1.78,-2.02,-0.70,-0.70,-0.69
115,1.07,1.79,1.06,1.79,-1.79,-2.03,-0.72,-0.73,-0.72
117,1.03,1.80,1.05,1.80,-1.80,-2.06,-0.77,-0.76,-0.77
118,1.03,1.83,1.03,1.82,-1.82,-2.07,-0.78,-0.79,-0.80
119,1.00,1.83,1.01,1.83,-1.83,-2.07,-0.83,-0.82,-0.82
120,0.98,1.83,0.99,1.84,-1.84,-2.08,-0.86,-0.85,-0.85
121,0.98,1.86,0.97,1.85,-1.85,-2.08,-0.87,-0.88,-0.87
123,0.94,1.86,0.95,1.87,-1.87,-2.09,-0.92,-0.91,-0.92
124,0.94,1.89,0.94,1.88,-1.88,-2.09,-0.94,-0.94,-0.95
125,0.92,1.89,0.92,1.89,-1.89,-2.09,-0.97,-0.97,-0.97
126,0.90,1.89,0.90,1.90,-1.90,-2.08,-1.00,-1.00,-0.99
128,0.88,1.92,0.89,1.91,-1.91,-2.08,-1.03,-1.03,-1.04
129,0.85,1.91,0.87,1.92,-1.92,-2.07,-1.07,-1.05,-1.06
130,0.85,1.93,0.85,1.93,-1.93,-2.06,-1.08,-1.08,-1.08
131,0.84,1.94,0.83,1.94,-1.94,-2.05,-1.10,-1.11,-1.10
133,0.81,1.95,0.81,1.95,-1.95,-2.03,-1.14,-1.14,-1.14
134,0.79,1.95,0.79,1.96,-1.96,-2.02,-1.16,-1.16,-1.16
135,0.77,1.95,0.77,1.96,-1.96,-2.01,-1.19,-1.19,-1.18
137,0.77,1.99,0.75,1.97,-1.97,-1.98,-1.19,-1.21,-1.22
138,0.72,1.96,0.73,1.97,-1.97,-1.96,-1.25,-1.24,-1.24
140,0.70,1.97,0.71,1.98,-1.98,-1.93,-1.27,-1.26,-1.27
141,0.68,1.97,0.69,1.98,-1.98,-1.91,-1.30,-1.29,-1.29
142,0.68,1.99,0.67,1.98,-1.98,-1.90,-1.30,-1.31,-1.31
144,0.64,1.98,0.65,1.99,-1.99,-1.86,-1.34,-1.34,-1.34
145,0.64,2.00,0.63,1.99,-1.99,-1.85,-1.34,-1.36,-1.35
147,0.59,1.98,0.61,1.99,-1.99,-1.81,-1.39,-1.38,-1.38
148,0.59,1.99,0.58,1.99,-1.99,-1.80,-1.39,-1.40,-1.40
150,0.55,1.98,0.56,1.98,-1.98,-1.76,-1.43,-1.42,-1.43
151,0.54,1.99,0.54,1.98,-1.98,-1.74,-1.44,-1.45,-1.44
153,0.51,1.98,0.51,1.98,-1.98,-1.71,-1.47,-1.46,-1.47
154,0.49,1.98,0.49,1.97,-1.97,-1.70,-1.48,-1.49,-1.48
156,0.46,1.97,0.46,1.97,-1.97,-1.66,-1.51,-1.51,-1.51
157,0.43,1.95,0.44,1.96,-1.96,-1.65,-1.53,-1.53,-1.52
159,0.41,1.96,0.41,1.96,-1.96,-1.62,-1.54,-1.54,-1.55
160,0.38,1.94,0.38,1.95,-1.95,-1.61,-1.56,-1.56,-1.56
162,0.35,1.93,0.36,1.94,-1.94,-1.58,-1.59,-1.58,-1.58
164,0.33,1.93,0.33,1.93,-1.93,-1.55,-1.60,-1.60,-1.60
165,0.30,1.92,0.31,1.92,-1.92,-1.54,-1.62,-1.62,-1.61
167,0.28,1.92,0.28,1.92,-1.92,-1.52,-1.63,-1.63,-1.63
169,0.25,1.91,0.26,1.91,-1.91,-1.50,-1.66,-1.65,-1.65
170,0.25,1.92,0.23,1.90,-1.90,-1.49,-1.65,-1.67,-1.66
172,0.20,1.88,0.21,1.89,-1.89,-1.47,-1.69,-1.68,-1.68
174,0.18,1.88,0.19,1.88,-1.88,-1.46,-1.70,-1.70,-1.70
175,0.16,1.87,0.17,1.88,-1.88,-1.45,-1.71,-1.71,-1.71
177,0.15,1.88,0.14,1.87,-1.87,-1.43,-1.72,-1.73,-1.72
179,0.12,1.86,0.12,1.86,-1.86,-1.42,-1.74,-1.74,-1.74
181,0.08,1.84,0.10,1.85,-1.85,-1.41,-1.77,-1.75,-1.76
183,0.07,1.84,0.08,1.84,-1.84,-1.40,-1.77,-1.77,-1.77
184,0.06,1.84,0.05,1.83,-1.83,-1.40,-1.77,-1.78,-1.78
186,0.03,1.83,0.03,1.82,-1.82,-1.39,-1.79,-1.79,-1.79
188,0.00,1.81,0.01,1.81,-1.81,-1.38,-1.81,-1.81,-1.81
190,-0.01,1.81,-0.01,1.80,-1.80,-1.38,-1.81,-1.82,-1.82
192,-0.05,1.78,-0.04,1.79,-1.79,-1.38,-1.84,-1.83,-1.83
194,-0.06,1.79,-0.06,1.78,-1.78,-1.37,-1.84,-1.84,-1.84
196,-0.10,1.76,-0.09,1.77,-1.77,-1.37,-1.87,-1.86,-1.85
198,-0.10,1.77,-0.11,1.76,-1.76,-1.37,-1.86,-1.87,-1.87
200,-0.14,1.74,-0.13,1.75,-1.75,-1.37,-1.88,-1.88,-1.88
202,-0.16,1.73,-0.16,1.73,-1.73,-1.37,-1.89,-1.89,-1.89
204,-0.19,1.71,-0.18,1.72,-1.72,-1.37,-1.90,-1.90,-1.90
206,-0.22,1.69,-0.21,1.70,-1.70,-1.37,-1.92,-1.91,-1.91
208,-0.23,1.69,-0.24,1.68,-1.68,-1.37,-1.91,-1.92,-1.92
210,-0.27,1.66,-0.27,1.66,-1.66,-1.38,-1.92,-1.93,-1.93
212,-0.30,1.64,-0.31,1.63,-1.63,-1.38,-1.93,-1.94,-1.94
214,-0.33,1.62,-0.34,1.61,-1.61,-1.38,-1.93,-1.95,-1.94
216,-0.36,1.60,-0.38,1.58,-1.58,-1.38,-1.94,-1.96,-1.95
218,-0.41,1.55,-0.42,1.55,-1.55,-1.38,-1.96,-1.97,-1.96
221,-0.47,1.51,-0.45,1.52,-1.52,-1.38,-1.98,-1.97,-1.97
223,-0.50,1.48,-0.49,1.48,-1.48,-1.38,-1.98,-1.98,-1.98
225,-0.55,1.44,-0.53,1.45,-1.45,-1.38,-2.00,-1.98,-1.98
227,-0.57,1.42,-0.57,1.42,-1.42,-1.38,-1.98,-1.99,-1.98
229,-0.62,1.37,-0.61,1.38,-1.38,-1.38,-2.00,-1.99,-1.99
232,-0.66,1.33,-0.64,1.35,-1.35,-1.38,-2.01,-1.99,-1.99
234,-0.66,1.33,-0.67,1.32,-1.32,-1.37,-1.97,-1.99,-1.99
236,-0.71,1.28,-0.70,1.29,-1.29,-1.37,-1.99,-1.98,-1.98
239,-0.73,1.25,-0.73,1.25,-1.25,-1.36,-1.98,-1.98,-1.98
241,-0.75,1.22,-0.75,1.22,-1.22,-1.35,-1.97,-1.97,-1.97
244,-0.79,1.18,-0.77,1.20,-1.20,-1.33,-1.98,-1.96,-1.97
246,-0.79,1.17,-0.79,1.17,-1.17,-1.32,-1.95,-1.96,-1.96
248,-0.79,1.16,-0.81,1.14,-1.14,-1.31,-1.92,-1.95,-1.95
251,-0.84,1.10,-0.83,1.11,-1.11,-1.29,-1.95,-1.94,-1.94
253,-0.84,1.09,-0.85,1.08,-1.08,-1.28,-1.92,-1.93,-1.93
256,-0.88,1.04,-0.87,1.05,-1.05,-1.25,-1.93,-1.92,-1.92
259,-0.89,1.02,-0.89,1.02,-1.02,-1.23,-1.91,-1.91,-1.91
261,-0.92,0.98,-0.91,0.99,-0.99,-1.21,-1.91,-1.90,-1.90
264,-0.92,0.97,-0.93,0.96,-0.96,-1.18,-1.88,-1.89,-1.89
266,-0.96,0.92,-0.95,0.93,-0.93,-1.15,-1.89,-1.88,-1.88
269,-0.97,0.91,-0.97,0.90,-0.90,-1.12,-1.87,-1.87,-1.87
272,-1.01,0.86,-0.99,0.87,-0.87,-1.09,-1.87,-1.86,-1.86
274,-1.01,0.84,-1.02,0.83,-0.83,-1.06,-1.84,-1.85,-1.85
277,-1.05,0.79,-1.04,0.80,-0.80,-1.02,-1.84,-1.83,-1.84
280,-1.05,0.78,-1.06,0.76,-0.76,-0.99,-1.81,-1.82,-1.82
283,-1.10,0.71,-1.08,0.72,-0.72,-0.95,-1.82,-1.80,-1.81
286,-1.10,0.69,-1.11,0.68,-0.68,-0.91,-1.78,-1.79,-1.79
288,-1.13,0.64,-1.13,0.64,-0.64,-0.88,-1.77,-1.77,-1.77
291,-1.14,0.61,-1.15,0.60,-0.60,-0.84,-1.73,-1.75,-1.75
294,-1.18,0.55,-1.18,0.55,-0.55,-0.79,-1.73,-1.73,-1.72
297,-1.21,0.50,-1.20,0.51,-0.51,-0.75,-1.72,-1.71,-1.70
300,-1.23,0.46,-1.23,0.47,-0.47,-0.71,-1.69,-1.69,-1.69
303,-1.27,0.40,-1.25,0.42,-0.42,-0.67,-1.69,-1.67,-1.67
306,-1.27,0.38,-1.28,0.38,-0.38,-0.62,-1.64,-1.65,-1.65
309,-1.31,0.32,-1.30,0.33,-0.33,-0.58,-1.64,-1.64,-1.63
312,-1.31,0.31,-1.33,0.29,-0.29,-0.54,-1.59,-1.62,-1.61
316,-1.36,0.24,-1.36,0.24,-0.24,-0.48,-1.60,-1.60,-1.60
319,-1.40,0.18,-1.38,0.20,-0.20,-0.44,-1.59,-1.58,-1.58
322,-1.41,0.16,-1.41,0.15,-0.15,-0.40,-1.56,-1.56,-1.56
325,-1.44,0.11,-1.43,0.11,-0.11,-0.36,-1.54,-1.54,-1.55
328,-1.46,0.07,-1.46,0.06,-0.06,-0.31,-1.52,-1.52,-1.53
332,-1.49,0.02,-1.49,0.02,-0.02,-0.26,-1.50,-1.50,-1.51
335,-1.53,-0.04,-1.51,-0.03,0.03,-0.22,-1.50,-1.48,-1.49
338,-1.53,-0.06,-1.54,-0.08,0.08,-0.18,-1.45,-1.46,-1.46
342,-1.57,-0.12,-1.57,-0.12,0.12,-0.12,-1.45,-1.44,-1.44
345,-1.59,-0.17,-1.59,-0.17,0.17,-0.08,-1.42,-1.43,-1.42
349,-1.62,-0.22,-1.62,-0.21,0.21,-0.03,-1.41,-1.40,-1.40
352,-1.65,-0.27,-1.64,-0.25,0.25,0.01,-1.39,-1.39,-1.38
356,-1.66,-0.29,-1.67,-0.30,0.30,0.06,-1.36,-1.37,-1.36
359,-1.69,-0.34,-1.69,-0.34,0.34,0.10,-1.35,-1.35,-1.35
363,-1.70,-0.37,-1.71,-0.38,0.38,0.15,-1.32,-1.33,-1.33
366,-1.75,-0.43,-1.73,-0.41,0.41,0.19,-1.33,-1.32,-1.32
370,-1.75,-0.44,-1.75,-0.45,0.45,0.24,-1.30,-1.30,-1.30
374,-1.79,-0.50,-1.77,-0.48,0.48,0.29,-1.31,-1.29,-1.29
377,-1.79,-0.51,-1.79,-0.51,0.51,0.33,-1.28,-1.28,-1.28
381,-1.79,-0.52,-1.80,-0.54,0.54,0.38,-1.25,-1.27,-1.27
385,-1.83,-0.57,-1.82,-0.56,0.56,0.42,-1.27,-1.26,-1.26
389,-1.83,-0.58,-1.83,-0.58,0.58,0.47,-1.24,-1.25,-1.24
393,-1.83,-0.59,-1.84,-0.61,0.61,0.52,-1.22,-1.24,-1.23
397,-1.88,-0.65,-1.86,-0.62,0.62,0.56,-1.25,-1.23,-1.23
401,-1.88,-0.66,-1.87,-0.64,0.64,0.61,-1.24,-1.22,-1.22
405,-1.88,-0.66,-1.88,-0.66,0.66,0.65,-1.22,-1.22,-1.21
409,-1.88,-0.67,-1.88,-0.67,0.67,0.70,-1.21,-1.21,-1.21
413,-1.88,-0.67,-1.89,-0.68,0.68,0.74,-1.19,-1.21,-1.21
417,-1.90,-0.69,-1.90,-0.69,0.69,0.78,-1.20,-1.21,-1.20
421,-1.91,-0.71,-1.90,-0.70,0.70,0.82,-1.20,-1.20,-1.20
425,-1.92,-0.72,-1.91,-0.71,0.71,0.86,-1.20,-1.19,-1.20
430,-1.92,-0.72,-1.91,-0.72,0.72,0.91,-1.19,-1.19,-1.19
434,-1.92,-0.73,-1.91,-0.73,0.73,0.94,-1.18,-1.18,-1.19
438,-1.92,-0.74,-1.92,-0.74,0.74,0.98,-1.17,-1.17,-1.18
443,-1.92,-0.74,-1.92,-0.75,0.75,1.02,-1.16,-1.17,-1.17
447,-1.92,-0.75,-1.92,-0.76,0.76,1.05,-1.16,-1.16,-1.16
451,-1.92,-0.76,-1.93,-0.77,0.77,1.08,-1.15,-1.15,-1.15
456,-1.92,-0.78,-1.92,-0.78,0.78,1.11,-1.14,-1.14,-1.14
460,-1.92,-0.79,-1.92,-0.79,0.79,1.13,-1.13,-1.13,-1.13
465,-1.92,-0.80,-1.92,-0.79,0.79,1.16,-1.12,-1.12,-1.11
470,-1.92,-0.82,-1.91,-0.80,0.80,1.19,-1.12,-1.11,-1.10
474,-1.92,-0.83,-1.90,-0.80,0.80,1.20,-1.11,-1.10,-1.08
479,-1.92,-0.85,-1.89,-0.81,0.81,1.22,-1.11,-1.08,-1.07
484,-1.88,-0.82,-1.88,-0.81,0.81,1.23,-1.07,-1.07,-1.06
489,-1.88,-0.83,-1.86,-0.81,0.81,1.24,-1.07,-1.05,-1.05
494,-1.84,-0.80,-1.85,-0.81,0.81,1.25,-1.02,-1.04,-1.03
499,-1.83,-0.81,-1.84,-0.81,0.81,1.25,-1.01,-1.02,-1.02
504,-1.82,-0.81,-1.83,-0.82,0.82,1.25,-1.00,-1.01,-1.01
509,-1.79,-0.79,-1.82,-0.82,0.82,1.25,-0.96,-0.99,-0.99
514,-1.79,-0.81,-1.81,-0.83,0.83,1.24,-0.96,-0.98,-0.98
519,-1.79,-0.83,-1.80,-0.84,0.84,1.24,-0.95,-0.96,-0.96
524,-1.79,-0.85,-1.79,-0.85,0.85,1.22,-0.94,-0.94,-0.94
529,-1.79,-0.87,-1.78,-0.86,0.86,1.21,-0.93,-0.92,-0.92
535,-1.79,-0.89,-1.77,-0.87,0.87,1.19,-0.92,-0.90,-0.90
540,-1.79,-0.91,-1.76,-0.88,0.88,1.17,-0.90,-0.88,-0.88
545,-1.78,-0.92,-1.75,-0.89,0.89,1.15,-0.88,-0.86,-0.85
551,-1.75,-0.92,-1.74,-0.90,0.90,1.12,-0.84,-0.84,-0.83
556,-1.75,-0.94,-1.73,-0.91,0.91,1.09,-0.83,-0.82,-0.81
562,-1.70,-0.91,-1.72,-0.92,0.92,1.06,-0.78,-0.80,-0.78
568,-1.70,-0.94,-1.70,-0.93,0.93,1.03,-0.77,-0.77,-0.76
573,-1.67,-0.93,-1.67,-0.93,0.93,1.00,-0.74,-0.74,-0.74
579,-1.66,-0.94,-1.65,-0.94,0.94,0.96,-0.72,-0.72,-0.72
585,-1.65,-0.95,-1.64,-0.94,0.94,0.92,-0.70,-0.69,-0.70
591,-1.62,-0.93,-1.63,-0.95,0.95,0.88,-0.67,-0.68,-0.68
596,-1.62,-0.95,-1.63,-0.96,0.96,0.85,-0.66,-0.67,-0.67
602,-1.61,-0.95,-1.62,-0.97,0.97,0.81,-0.64,-0.66,-0.65
608,-1.57,-0.93,-1.62,-0.97,0.97,0.77,-0.59,-0.65,-0.64
615,-1.57,-0.94,-1.62,-0.98,0.98,0.72,-0.59,-0.64,-0.63
621,-1.57,-0.95,-1.61,-0.98,0.98,0.68,-0.59,-0.63,-0.62
627,-1.61,-1.00,-1.60,-0.98,0.98,0.64,-0.63,-0.62,-0.60
633,-1.62,-1.03,-1.58,-0.97,0.97,0.60,-0.65,-0.61,-0.59
639,-1.66,-1.08,-1.55,-0.95,0.95,0.56,-0.70,-0.59,-0.57
646,-1.60,-1.04,-1.51,-0.93,0.93,0.51,-0.67,-0.58,-0.56
652,-1.54,-0.99,-1.47,-0.90,0.90,0.47,-0.64,-0.57,-0.55
659,-1.43,-0.90,-1.42,-0.86,0.86,0.42,-0.56,-0.55,-0.53
665,-1.36,-0.84,-1.36,-0.82,0.82,0.38,-0.54,-0.54,-0.52
672,-1.25,-0.74,-1.30,-0.77,0.77,0.34,-0.47,-0.52,-0.50
679,-1.18,-0.69,-1.23,-0.72,0.72,0.29,-0.46,-0.51,-0.49
686,-1.11,-0.63,-1.16,-0.66,0.66,0.25,-0.44,-0.49,-0.48
692,-1.06,-0.59,-1.08,-0.61,0.61,0.21,-0.45,-0.47,-0.47
699,-1.00,-0.53,-1.01,-0.55,0.55,0.17,-0.44,-0.46,-0.46
706,-0.94,-0.48,-0.94,-0.50,0.50,0.13,-0.44,-0.45,-0.46
713,-0.90,-0.44,-0.89,-0.44,0.44,0.08,-0.45,-0.44,-0.45
721,-0.85,-0.40,-0.83,-0.39,0.39,0.04,-0.45,-0.44,-0.45
728,-0.79,-0.34,-0.78,-0.34,0.34,-0.01,-0.44,-0.44,-0.44
735,-0.73,-0.29,-0.73,-0.29,0.29,-0.05,-0.43,-0.44,-0.44
742,-0.68,-0.24,-0.68,-0.25,0.25,-0.09,-0.43,-0.44,-0.44
750,-0.64,-0.21,-0.63,-0.20,0.20,-0.13,-0.44,-0.43,-0.43
757,-0.60,-0.17,-0.58,-0.15,0.15,-0.17,-0.44,-0.42,-0.42
765,-0.54,-0.12,-0.52,-0.11,0.11,-0.21,-0.43,-0.42,-0.42
773,-0.47,-0.06,-0.47,-0.06,0.06,-0.26,-0.41,-0.41,-0.41
780,-0.42,-0.02,-0.41,-0.01,0.01,-0.29,-0.41,-0.40,-0.40
788,-0.36,0.03,-0.35,0.05,-0.05,-0.34,-0.40,-0.39,-0.39
796,-0.30,0.08,-0.29,0.10,-0.10,-0.38,-0.39,-0.38,-0.38
804,-0.24,0.13,-0.23,0.15,-0.15,-0.42,-0.39,-0.38,-0.37
812,-0.17,0.19,-0.17,0.20,-0.20,-0.46,-0.37,-0.37,-0.36
820,-0.12,0.24,-0.11,0.25,-0.25,-0.50,-0.37,-0.36,-0.35
828,-0.06,0.29,-0.06,0.30,-0.30,-0.53,-0.36,-0.35,-0.35
837,0.01,0.36,-0.01,0.34,-0.34,-0.58,-0.33,-0.35,-0.35
845,0.04,0.39,0.03,0.38,-0.38,-0.61,-0.34,-0.35,-0.34
853,0.07,0.42,0.06,0.41,-0.41,-0.65,-0.34,-0.34,-0.34
862,0.12,0.47,0.09,0.43,-0.43,-0.68,-0.31,-0.34,-0.35
871,0.12,0.47,0.11,0.45,-0.45,-0.72,-0.32,-0.34,-0.35
879,0.12,0.47,0.11,0.45,-0.45,-0.75,-0.33,-0.34,-0.35
888,0.12,0.48,0.11,0.45,-0.45,-0.79,-0.33,-0.34,-0.35
897,0.12,0.47,0.10,0.44,-0.44,-0.82,-0.32,-0.34,-0.35
906,0.08,0.43,0.09,0.43,-0.43,-0.85,-0.34,-0.34,-0.35
915,0.07,0.42,0.07,0.41,-0.41,-0.88,-0.33,-0.34,-0.35
924,0.04,0.39,0.04,0.38,-0.38,-0.91,-0.34,-0.34,-0.34
933,0.03,0.37,0.02,0.35,-0.35,-0.93,-0.32,-0.33,-0.34
943,-0.01,0.32,-0.00,0.32,-0.32,-0.96,-0.33,-0.33,-0.33
952,-0.01,0.31,-0.03,0.30,-0.30,-0.98,-0.31,-0.32,-0.32
962,-0.06,0.25,-0.04,0.28,-0.28,-1.01,-0.34,-0.32,-0.31
971,-0.06,0.23,-0.04,0.27,-0.27,-1.03,-0.32,-0.31,-0.29
981,-0.06,0.22,-0.03,0.26,-0.26,-1.04,-0.32,-0.30,-0.27
991,-0.03,0.23,-0.01,0.27,-0.27,-1.06,-0.29,-0.28,-0.25
1001,0.00,0.24,0.02,0.28,-0.28,-1.07,-0.28,-0.26,-0.23
1011,0.05,0.26,0.07,0.31,-0.31,-1.09,-0.26,-0.24,-0.21
1021,0.11,0.30,0.14,0.35,-0.35,-1.10,-0.24,-0.21,-0.18
1031,0.19,0.35,0.22,0.41,-0.41,-1.11,-0.21,-0.19,-0.16
1041,0.27,0.40,0.32,0.47,-0.47,-1.11,-0.20,-0.15,-0.13
1052,0.40,0.51,0.42,0.54,-0.54,-1.12,-0.14,-0.12,-0.10
1062,0.52,0.60,0.53,0.62,-0.62,-1.12,-0.10,-0.08,-0.08
1073,0.67,0.72,0.65,0.70,-0.70,-1.12,-0.03,-0.05,-0.05
1084,0.82,0.84,0.77,0.79,-0.79,-1.13,0.03,-0.02,-0.02
1094,0.94,0.93,0.90,0.89,-0.89,-1.13,0.06,0.01,0.01
1105,1.07,1.03,1.02,0.98,-0.98,-1.12,0.09,0.04,0.04
1116,1.18,1.11,1.15,1.08,-1.08,-1.12,0.10,0.07,0.07
1128,1.30,1.20,1.29,1.19,-1.19,-1.12,0.12,0.10,0.10
1139,1.42,1.29,1.42,1.29,-1.29,-1.11,0.13,0.13,0.14
1150,1.52,1.35,1.56,1.40,-1.40,-1.11,0.12,0.16,0.17
1162,1.66,1.45,1.71,1.52,-1.52,-1.10,0.15,0.19,0.21
1173,1.81,1.57,1.86,1.63,-1.63,-1.10,0.18,0.23,0.25
1185,1.98,1.69,2.02,1.75,-1.75,-1.09,0.23,0.26,0.29
1197,2.15,1.82,2.18,1.88,-1.88,-1.09,0.28,0.31,0.33
1209,2.32,1.95,2.36,2.00,-2.00,-1.08,0.32,0.36,0.38
1221,2.50,2.08,2.53,2.12,-2.12,-1.08,0.38,0.41,0.43
1233,2.69,2.22,2.71,2.23,-2.23,-1.07,0.46,0.47,0.48
1246,2.87,2.35,2.87,2.34,-2.34,-1.07,0.54,0.54,0.53
1258,3.04,2.46,3.03,2.42,-2.42,-1.06,0.62,0.60,0.58
1271,3.20,2.57,3.17,2.49,-2.49,-1.06,0.71,0.67,0.64
1283,3.33,2.64,3.28,2.55,-2.55,-1.05,0.79,0.73,0.70
1296,3.44,2.69,3.37,2.58,-2.58,-1.05,0.86,0.79,0.76
1309,3.52,2.70,3.43,2.59,-2.59,-1.05,0.93,0.84,0.82
1322,3.57,2.69,3.48,2.58,-2.58,-1.04,0.99,0.90,0.88
1335,3.58,2.63,3.51,2.56,-2.56,-1.04,1.03,0.95,0.95
1349,3.54,2.52,3.52,2.51,-2.51,-1.04,1.03,1.01,1.02
1362,3.51,2.42,3.53,2.45,-2.45,-1.04,1.06,1.08,1.09
1376,3.46,2.31,3.53,2.38,-2.38,-1.04,1.08,1.15,1.16
1390,3.41,2.19,3.53,2.30,-2.30,-1.05,1.11,1.23,1.23
1404,3.41,2.11,3.52,2.22,-2.22,-1.05,1.19,1.30,1.30
1418,3.41,2.04,3.50,2.13,-2.13,-1.05,1.28,1.37,1.37
1432,3.44,2.00,3.48,2.05,-2.05,-1.06,1.40,1.43,1.44
1446,3.49,1.98,3.46,1.97,-1.97,-1.06,1.53,1.50,1.51
1461,3.54,1.96,3.45,1.89,-1.89,-1.07,1.66,1.56,1.59
1475,3.58,1.92,3.44,1.81,-1.81,-1.08,1.77,1.63,1.66
1490,3.57,1.84,3.44,1.75,-1.75,-1.09,1.83,1.70,1.74
1505,3.51,1.70,3.45,1.68,-1.68,-1.09,1.83,1.77,1.81
1520,3.44,1.56,3.47,1.63,-1.63,-1.10,1.82,1.85,1.89
1535,3.39,1.43,3.50,1.58,-1.58,-1.11,1.82,1.92,1.97
1550,3.39,1.34,3.53,1.53,-1.53,-1.13,1.86,2.00,2.05
1566,3.45,1.32,3.57,1.50,-1.50,-1.14,1.95,2.07,2.13
1582,3.57,1.35,3.63,1.48,-1.48,-1.15,2.10,2.15,2.22
1597,3.67,1.37,3.69,1.46,-1.46,-1.16,2.21,2.23,2.31
1613,3.77,1.38,3.77,1.45,-1.45,-1.18,2.33,2.32,2.39
1629,3.90,1.42,3.86,1.44,-1.44,-1.19,2.46,2.42,2.49
1646,4.02,1.44,3.96,1.44,-1.44,-1.20,2.58,2.53,2.58
1662,4.12,1.45,4.08,1.44,-1.44,-1.22,2.69,2.64,2.68
1679,4.23,1.45,4.20,1.44,-1.44,-1.23,2.79,2.76,2.78
1696,4.33,1.45,4.32,1.44,-1.44,-1.25,2.89,2.88,2.88
1713,4.44,1.45,4.43,1.44,-1.44,-1.26,3.00,2.99,2.99
1730,4.54,1.44,4.54,1.44,-1.44,-1.27,3.11,3.10,3.10
1747,4.64,1.43,4.65,1.43,-1.43,-1.29,3.21,3.21,3.22
1764,4.74,1.41,4.75,1.43,-1.43,-1.30,3.31,3.32,3.33
