frequency,raw
20,-28.12
21,-27.57
22,-26.94
23,-26.54
24,-25.95
25,-25.52
26,-24.99
27,-24.55
28,-24.00
29,-23.60
30,-23.18
31,-22.76
32,-22.37
33,-22.00
34,-21.64
35,-21.16
36,-20.83
37,-20.39
38,-20.06
39,-19.61
40,-19.28
41,-18.88
42,-18.61
43,-18.29
44,-18.07
45,-17.67
46,-17.42
47,-17.09
48,-16.78
49,-16.54
50,-16.18
51,-15.93
52,-15.71
53,-15.35
54,-15.09
55,-14.75
56,-14.55
57,-14.20
58,-13.99
59,-13.74
60,-13.44
61,-13.26
62,-12.95
63,-12.73
64,-12.55
65,-12.22
66,-12.04
67,-11.84
68,-11.54
69,-11.38
70,-11.18
71,-10.89
72,-10.74
73,-10.56
74,-10.25
75,-9.96
76,-9.96
77,-9.68
78,-9.38
79,-9.20
80,-9.06
81,-8.86
82,-8.62
83,-8.48
84,-8.35
85,-8.09
86,-7.92
87,-7.79
88,-7.63
89,-7.38
90,-7.13
91,-6.96
92,-6.83
93,-6.71
94,-6.47
95,-6.31
96,-6.19
97,-6.07
98,-5.85
99,-5.68
100,-5.57
101,-5.46
102,-5.27
104,-4.96
105,-4.78
106,-4.59
107,-4.48
108,-4.37
109,-4.26
110,-4.05
111,-3.90
112,-3.80
113,-3.61
114,-3.47
115,-3.47
117,-3.15
118,-3.05
119,-2.95
120,-2.86
121,-2.71
123,-2.42
124,-2.33
125,-2.24
126,-2.15
128,-1.97
129,-1.88
130,-1.74
131,-1.57
133,-1.52
134,-1.38
135,-1.21
137,-1.04
138,-0.96
140,-0.88
141,-0.88
142,-0.72
144,-0.55
145,-0.55
147,-0.41
148,-0.33
150,-0.18
151,-0.10
153,0.05
154,0.10
156,0.11
157,0.25
159,0.42
160,0.42
162,0.42
164,0.50
165,0.57
167,0.71
169,0.75
170,0.75
172,0.88
174,1.01
175,1.07
177,1.07
179,1.07
181,1.07
183,1.09
184,1.16
186,1.28
188,1.39
190,1.39
192,1.39
194,1.39
196,1.39
198,1.39
200,1.39
202,1.39
204,1.39
206,1.39
208,1.39
210,1.39
212,1.39
214,1.39
216,1.39
218,1.39
221,1.39
223,1.39
225,1.39
227,1.39
229,1.39
232,1.39
234,1.39
236,1.39
239,1.39
241,1.39
244,1.39
246,1.39
248,1.39
251,1.39
253,1.39
256,1.39
259,1.39
261,1.39
264,1.39
266,1.39
269,1.39
272,1.39
274,1.39
277,1.39
280,1.39
283,1.39
286,1.36
288,1.28
291,1.16
294,1.07
297,1.07
300,1.07
303,1.07
306,1.07
309,1.07
312,1.07
316,1.07
319,1.07
322,1.07
325,1.07
328,1.07
332,1.07
335,1.07
338,1.07
342,1.07
345,1.07
349,1.07
352,1.07
356,0.99
359,0.90
363,0.77
366,0.75
370,0.75
374,0.75
377,0.75
381,0.75
385,0.75
389,0.75
393,0.75
397,0.75
401,0.75
405,0.75
409,0.75
413,0.75
417,0.75
421,0.75
425,0.75
430,0.75
434,0.75
438,0.75
443,0.75
447,0.75
451,0.75
456,0.63
460,0.53
465,0.42
470,0.42
474,0.42
479,0.42
484,0.42
489,0.42
494,0.42
499,0.42
504,0.20
509,0.10
514,0.10
519,0.10
524,0.10
529,0.09
535,-0.04
540,-0.15
545,-0.23
551,-0.23
556,-0.23
562,-0.27
568,-0.39
573,-0.49
579,-0.55
585,-0.56
591,-0.68
596,-0.77
602,-0.88
608,-0.88
615,-0.88
621,-0.95
627,-1.17
633,-1.20
639,-1.20
646,-1.20
652,-1.20
659,-1.26
665,-1.36
672,-1.48
679,-1.52
686,-1.52
692,-1.52
699,-1.52
706,-1.52
713,-1.52
721,-1.52
728,-1.52
735,-1.52
742,-1.52
750,-1.52
757,-1.52
765,-1.52
773,-1.52
780,-1.52
788,-1.52
796,-1.44
804,-1.33
812,-1.22
820,-1.20
828,-1.20
837,-1.20
845,-1.09
853,-0.98
862,-0.88
871,-0.88
879,-0.88
888,-0.85
897,-0.74
906,-0.63
915,-0.55
924,-0.55
933,-0.46
943,-0.34
952,-0.23
962,-0.23
971,-0.23
981,-0.22
991,-0.10
1001,0.01
1011,0.10
1021,0.10
1031,0.18
1041,0.29
1052,0.41
1062,0.42
1073,0.47
1084,0.59
1094,0.69
1105,0.75
1116,0.75
1128,0.87
1139,0.98
1150,1.07
1162,1.07
1173,1.07
1185,1.14
1197,1.37
1209,1.39
1221,1.39
1233,1.39
1246,1.39
1258,1.39
1271,1.39
1283,1.39
1296,1.47
1309,1.56
1322,1.56
1335,1.56
1349,1.52
1362,1.41
1376,1.39
1390,1.39
1404,1.39
1418,1.39
1432,1.26
1446,1.07
1461,1.07
1475,0.92
1490,0.72
1505,0.61
1520,0.49
1535,0.34
1550,0.12
1566,-0.01
1582,-0.18
1597,-0.39
1613,-0.61
1629,-0.84
1646,-1.07
1662,-1.29
1679,-1.52
1696,-1.75
1713,-1.97
1730,-2.10
1747,-2.25
1764,-2.47
1782,-2.70
1800,-2.93
1818,-3.15
1836,-3.38
1854,-3.53
1873,-3.66
1892,-3.89
1911,-4.04
1930,-4.15
1949,-4.26
1969,-4.38
1988,-4.44
2008,-4.44
2028,-4.44
2048,-4.44
2069,-4.44
2090,-4.44
2111,-4.44
2132,-4.41
2153,-4.18
2175,-4.12
2196,-4.06
2218,-3.84
2240,-3.70
2263,-3.55
2285,-3.33
2308,-3.10
2331,-2.88
2355,-2.65
2378,-2.43
2402,-2.13
2426,-1.81
2450,-1.59
2475,-1.36
2500,-1.10
2525,-0.76
2550,-0.52
2575,-0.35
2601,-0.23
2627,-0.01
2653,0.21
2680,0.43
2707,0.54
2734,0.65
2761,0.77
2789,0.88
2817,0.99
2845,1.07
2873,1.07
2902,1.07
2931,1.07
2960,1.07
2990,1.07
3020,1.07
3050,1.06
3080,0.95
3111,0.84
3142,0.73
3174,0.61
3206,0.50
3238,0.35
3270,0.13
3303,-0.00
3336,-0.11
3369,-0.22
3403,-0.45
3437,-0.67
3471,-0.89
3506,-1.12
3541,-1.27
3576,-1.40
3612,-1.63
3648,-1.85
3685,-2.05
3721,-2.16
3759,-2.37
3796,-2.59
3834,-2.82
3873,-2.93
3911,-3.04
3950,-3.16
3990,-3.27
4030,-3.38
4070,-3.47
4111,-3.47
4152,-3.64
4193,-3.79
4235,-3.79
4278,-3.79
4321,-3.79
4364,-3.79
4407,-3.79
4451,-3.79
4496,-3.78
4541,-3.67
4586,-3.56
4632,-3.42
4679,-3.20
4725,-3.06
4773,-2.91
4820,-2.69
4868,-2.46
4917,-2.14
4966,-1.69
5016,-1.46
5066,-1.11
5117,-0.66
5168,-0.21
5220,0.09
5272,0.36
5325,0.81
5378,1.08
5432,1.39
5486,1.83
5541,2.08
5596,2.31
5652,2.53
5709,2.87
5766,3.14
5823,3.35
5882,3.47
5940,3.58
6000,3.66
6060,3.66
6120,3.49
6182,3.30
6244,3.19
6306,3.08
6369,2.86
6433,2.52
6497,2.19
6562,1.85
6628,1.48
6694,0.92
6761,0.43
6828,-0.01
6897,-0.47
6966,-1.10
7035,-1.84
7106,-2.75
7177,-3.75
7249,-4.66
7321,-5.44
7394,-6.34
7468,-7.17
7543,-7.96
7618,-8.75
7694,-9.45
7771,-10.07
7849,-10.52
7928,-10.97
8007,-11.42
8087,-11.87
8168,-12.22
8250,-12.55
8332,-12.89
8415,-13.11
8499,-13.33
8584,-13.52
8670,-13.52
8757,-13.60
8845,-13.72
8933,-13.83
9022,-13.85
9113,-13.85
9204,-13.85
9296,-13.85
9389,-13.85
9483,-13.85
9577,-13.85
9673,-13.92
9770,-14.03
9868,-14.14
9966,-14.33
10066,-14.53
10167,-14.64
10268,-14.85
10371,-15.07
10475,-15.30
10579,-15.52
10685,-15.75
10792,-15.98
10900,-16.43
11009,-16.81
11119,-17.17
11230,-17.62
11343,-18.24
11456,-18.84
11571,-19.29
11686,-19.84
11803,-20.40
11921,-20.96
12040,-21.41
12161,-21.81
12282,-22.15
12405,-22.60
12529,-22.91
12655,-23.16
12781,-23.49
12909,-23.83
13038,-24.13
13168,-24.36
13300,-24.77
13433,-25.18
13567,-25.51
13703,-25.96
13840,-26.41
13978,-26.86
14118,-27.31
14259,-27.76
14402,-28.23
14546,-28.79
14692,-29.18
14838,-29.62
14987,-30.30
15137,-30.78
15288,-31.23
15441,-31.68
15595,-32.35
15751,-32.84
15909,-33.19
16068,-33.64
16229,-34.09
16391,-34.49
16555,-34.71
16720,-35.02
16888,-35.33
17056,-35.55
17227,-35.78
17399,-35.90
17573,-35.90
17749,-35.90
17926,-35.90
18106,-35.88
18287,-35.65
18470,-35.58
18654,-35.55
18841,-35.44
19029,-35.33
19220,-35.25
19412,-35.25
19606,-35.25
19802,-35.25
20000,-35.25
