frequency,raw
20,-41.29
21,-40.18
22,-39.13
23,-37.97
24,-37.12
25,-36.25
26,-35.36
27,-34.51
28,-33.85
29,-33.20
30,-32.62
31,-32.04
32,-31.60
33,-31.23
34,-30.75
35,-30.43
36,-29.96
37,-29.66
38,-29.50
39,-29.12
40,-28.92
41,-28.64
42,-28.31
43,-27.99
44,-27.70
45,-27.43
46,-27.18
47,-26.94
48,-26.70
49,-26.47
50,-26.24
51,-26.04
52,-25.96
53,-25.74
54,-25.69
55,-25.49
56,-25.39
57,-25.39
58,-25.39
59,-25.39
60,-25.39
61,-25.39
62,-25.39
63,-25.25
64,-25.07
65,-25.07
66,-25.07
67,-25.07
68,-25.07
69,-25.11
70,-25.19
71,-25.11
72,-25.23
73,-25.23
74,-25.25
75,-25.39
76,-25.39
77,-25.39
78,-25.39
79,-25.39
80,-25.39
81,-25.39
82,-25.43
83,-25.57
84,-25.71
85,-25.72
86,-25.81
87,-25.94
88,-26.04
89,-26.04
90,-26.16
91,-26.29
92,-26.37
93,-26.37
94,-26.49
95,-26.61
96,-26.73
97,-26.85
98,-26.96
99,-27.08
100,-27.19
101,-27.30
102,-27.41
104,-27.63
105,-27.74
106,-27.85
107,-27.95
108,-28.06
109,-28.16
110,-28.27
111,-28.37
112,-28.47
113,-28.57
114,-28.67
115,-28.77
117,-28.96
118,-28.96
119,-28.99
120,-29.09
121,-29.18
123,-29.29
124,-29.29
125,-29.29
126,-29.29
128,-29.29
129,-29.29
130,-29.29
131,-29.29
133,-29.29
134,-29.29
135,-29.29
137,-29.13
138,-29.04
140,-28.88
141,-28.80
142,-28.72
144,-28.49
145,-28.33
147,-28.17
148,-28.03
150,-27.73
151,-27.58
153,-27.17
154,-26.95
156,-26.52
157,-26.37
159,-25.97
160,-25.69
162,-25.34
164,-24.98
165,-24.78
167,-24.37
169,-23.87
170,-23.61
172,-23.34
174,-22.87
175,-22.62
177,-22.24
179,-21.85
181,-21.42
183,-20.92
184,-20.67
186,-20.23
188,-19.86
190,-19.39
192,-18.99
194,-18.61
196,-18.14
198,-17.69
200,-17.23
202,-16.78
204,-16.34
206,-15.90
208,-15.45
210,-14.91
212,-14.44
214,-14.01
216,-13.59
218,-13.23
221,-12.77
223,-12.46
225,-12.25
227,-12.05
229,-11.85
232,-11.66
234,-11.57
236,-11.47
239,-11.33
241,-11.23
244,-11.07
246,-10.88
248,-10.70
251,-10.40
253,-10.13
256,-9.82
259,-9.56
261,-9.38
264,-8.91
266,-8.63
269,-8.38
272,-7.88
274,-7.64
277,-7.39
280,-6.90
283,-6.50
286,-6.10
288,-5.79
291,-5.39
294,-5.05
297,-4.70
300,-4.36
303,-4.02
306,-3.69
309,-3.36
312,-3.08
316,-2.79
319,-2.58
322,-2.21
325,-1.84
328,-1.63
332,-1.15
335,-0.79
338,-0.48
342,-0.09
345,0.16
349,0.42
352,0.62
356,0.79
359,0.88
363,0.88
366,0.94
370,1.04
374,1.04
377,1.12
381,1.17
385,1.05
389,1.04
393,0.98
397,0.88
401,0.88
405,0.88
409,0.83
413,0.61
417,0.55
421,0.50
425,0.29
430,0.23
434,0.14
438,-0.07
443,-0.10
447,-0.21
451,-0.41
456,-0.42
460,-0.42
465,-0.42
470,-0.42
474,-0.42
479,-0.42
484,-0.42
489,-0.42
494,-0.42
499,-0.42
504,-0.42
509,-0.54
514,-0.76
519,-0.86
524,-0.97
529,-1.09
535,-1.34
540,-1.47
545,-1.58
551,-1.70
556,-1.72
562,-1.76
568,-1.88
573,-1.98
579,-2.04
585,-2.04
591,-2.04
596,-2.04
602,-2.05
608,-2.17
615,-2.29
621,-2.37
627,-2.37
633,-2.37
639,-2.44
646,-2.68
652,-2.69
659,-2.75
665,-2.85
672,-2.97
679,-3.02
686,-3.02
692,-3.02
699,-3.09
706,-3.18
713,-3.18
721,-3.08
728,-3.02
735,-3.02
742,-3.02
750,-2.96
757,-2.85
765,-2.73
773,-2.61
780,-2.51
788,-2.40
796,-2.20
804,-2.01
812,-1.90
820,-1.79
828,-1.63
837,-1.39
845,-1.39
853,-1.29
862,-1.06
871,-0.94
879,-0.84
888,-0.72
897,-0.61
906,-0.50
915,-0.35
924,-0.13
933,-0.00
943,0.12
952,0.22
962,0.23
971,0.23
981,0.22
991,0.10
1001,-0.01
1011,-0.10
1021,-0.10
1031,-0.27
1041,-0.42
1052,-0.42
1062,-0.61
1073,-0.85
1084,-1.08
1094,-1.28
1105,-1.57
1116,-1.90
1128,-2.26
1139,-2.67
1150,-3.08
1162,-3.43
1173,-3.83
1185,-4.19
1197,-4.30
1209,-4.31
1221,-4.26
1233,-4.15
1246,-3.69
1258,-3.38
1271,-3.11
1283,-2.69
1296,-2.38
1309,-2.16
1322,-1.93
1335,-1.80
1349,-1.72
1362,-1.72
1376,-1.62
1390,-1.50
1404,-1.39
1418,-1.39
1432,-1.39
1446,-1.39
1461,-1.39
1475,-1.47
1490,-1.61
1505,-1.84
1520,-2.06
1535,-2.36
1550,-2.80
1566,-3.26
1582,-3.78
1597,-4.31
1613,-4.76
1629,-5.21
1646,-5.64
1662,-5.86
1679,-6.09
1696,-6.26
1713,-6.26
1730,-6.07
1747,-5.89
1764,-5.79
1782,-5.67
1800,-5.50
1818,-5.29
1836,-5.29
1854,-5.16
1873,-4.96
1892,-4.96
1911,-4.96
1930,-4.90
1949,-4.68
1969,-4.64
1988,-4.68
2008,-4.79
2028,-4.90
2048,-5.01
2069,-5.13
2090,-5.36
2111,-5.66
2132,-5.99
2153,-6.32
2175,-6.75
2196,-7.16
2218,-7.49
2240,-7.83
2263,-8.22
2285,-8.65
2308,-8.90
2331,-9.18
2355,-9.52
2378,-9.74
2402,-9.96
2426,-10.19
2450,-10.41
2475,-10.64
2500,-10.83
2525,-10.95
2550,-11.06
2575,-11.12
2601,-11.12
2627,-10.91
2653,-10.63
2680,-10.28
2707,-9.83
2734,-9.38
2761,-8.98
2789,-8.75
2817,-8.36
2845,-7.94
2873,-7.61
2902,-6.89
2931,-6.15
2960,-5.48
2990,-4.80
3020,-4.18
3050,-3.64
3080,-3.31
3111,-3.04
3142,-2.81
3174,-2.59
3206,-2.44
3238,-2.37
3270,-2.37
3303,-2.37
3336,-2.37
3369,-2.37
3403,-2.48
3437,-2.59
3471,-2.70
3506,-2.81
3541,-3.00
3576,-3.22
3612,-3.45
3648,-3.84
3685,-4.37
3721,-5.02
3759,-5.91
3796,-6.89
3834,-8.01
3873,-9.15
3911,-10.32
3950,-11.55
3990,-12.80
4030,-13.89
4070,-14.87
4111,-15.78
4152,-16.50
4193,-17.17
4235,-17.84
4278,-18.43
4321,-18.99
4364,-19.55
4407,-20.11
4451,-20.67
4496,-21.22
4541,-21.67
4586,-22.19
4632,-22.76
4679,-23.33
4725,-23.79
4773,-24.21
4820,-24.54
4868,-24.98
4917,-25.33
4966,-25.55
5016,-25.78
5066,-26.00
5117,-26.23
5168,-26.46
5220,-26.68
5272,-26.96
5325,-27.41
5378,-27.77
5432,-28.07
5486,-28.29
5541,-28.52
5596,-28.69
5652,-28.80
5709,-29.03
5766,-29.38
5823,-29.82
5882,-30.28
5940,-30.50
6000,-30.58
6060,-30.58
6120,-30.23
6182,-29.78
6244,-29.32
6306,-28.88
6369,-28.33
6433,-27.65
6497,-27.09
6562,-26.46
6628,-25.79
6694,-25.12
6761,-24.44
6828,-23.77
6897,-23.09
6966,-22.33
7035,-21.71
7106,-21.37
7177,-20.93
7249,-20.48
7321,-20.03
7394,-19.58
7468,-19.26
7543,-19.04
7618,-18.81
7694,-18.67
7771,-18.53
7849,-18.30
7928,-18.26
8007,-18.18
8087,-17.95
8168,-17.93
8250,-17.93
8332,-17.93
8415,-17.93
8499,-18.07
8584,-18.28
8670,-18.39
8757,-18.50
8845,-18.64
8933,-18.87
9022,-18.91
9113,-18.91
9204,-18.91
9296,-18.70
9389,-18.47
9483,-18.25
9577,-18.02
9673,-17.80
9770,-17.59
9868,-17.48
9966,-17.37
10066,-17.29
10167,-17.29
10268,-17.38
10371,-17.49
10475,-17.61
10579,-17.50
10685,-17.39
10792,-17.27
10900,-16.93
11009,-16.66
11119,-16.44
11230,-16.21
11343,-16.07
11456,-15.99
11571,-15.99
11686,-16.08
11803,-16.20
11921,-16.31
12040,-16.53
12161,-16.64
12282,-16.64
12405,-16.64
12529,-16.50
12655,-16.31
12781,-16.31
12909,-16.31
13038,-16.31
13168,-16.31
13300,-16.41
13433,-16.61
13567,-16.95
13703,-17.51
13840,-18.24
13978,-19.16
14118,-20.28
14259,-21.55
14402,-22.92
14546,-24.38
14692,-25.76
14838,-27.10
14987,-28.46
15137,-29.71
15288,-30.80
15441,-31.70
15595,-32.60
15751,-33.38
15909,-34.05
16068,-34.73
16229,-35.33
16391,-35.91
16555,-36.59
16720,-37.00
16888,-37.38
17056,-37.82
17227,-38.08
17399,-38.30
17573,-38.53
17749,-38.75
17926,-38.98
18106,-39.21
18287,-39.55
18470,-39.74
18654,-39.85
18841,-39.96
19029,-39.99
19220,-39.99
19412,-39.99
19606,-39.99
19802,-39.99
20000,-39.99
