frequency,raw,error,smoothed,error_smoothed,equalization,parametric_eq,fixed_band_eq,equalized_raw,equalized_smoothed,target
20.00,6.23,-0.08,6.23,-0.07,0.09,-0.40,-0.76,6.32,6.32,6.30
20.20,6.29,-0.01,6.28,-0.01,0.02,-0.43,-0.78,6.30,6.30,6.29
20.40,6.34,0.05,6.34,0.05,-0.06,-0.47,-0.80,6.28,6.28,6.28
20.61,6.40,0.11,6.39,0.12,-0.13,-0.50,-0.82,6.27,6.26,6.28
20.81,6.45,0.19,6.45,0.18,-0.20,-0.54,-0.84,6.25,6.25,6.26
21.02,6.51,0.25,6.51,0.25,-0.27,-0.58,-0.86,6.24,6.24,6.26
21.23,6.58,0.33,6.58,0.32,-0.34,-0.61,-0.89,6.24,6.24,6.25
21.44,6.66,0.40,6.65,0.40,-0.41,-0.65,-0.91,6.25,6.25,6.26
21.66,6.73,0.48,6.73,0.48,-0.48,-0.69,-0.93,6.25,6.25,6.25
21.87,6.81,0.57,6.80,0.56,-0.55,-0.72,-0.96,6.26,6.25,6.24
22.09,6.87,0.64,6.86,0.63,-0.62,-0.76,-0.98,6.25,6.24,6.23
22.31,6.91,0.68,6.91,0.69,-0.68,-0.80,-1.01,6.23,6.23,6.23
22.54,6.96,0.74,6.96,0.74,-0.73,-0.84,-1.04,6.22,6.22,6.22
22.76,7.00,0.78,7.00,0.79,-0.78,-0.87,-1.06,6.21,6.22,6.22
22.99,7.05,0.84,7.04,0.83,-0.82,-0.91,-1.09,6.22,6.22,6.21
23.22,7.08,0.88,7.07,0.87,-0.86,-0.95,-1.12,6.22,6.21,6.20
23.45,7.10,0.89,7.10,0.90,-0.90,-0.99,-1.15,6.20,6.20,6.21
23.69,7.13,0.93,7.12,0.93,-0.94,-1.03,-1.18,6.19,6.18,6.20
23.92,7.16,0.96,7.16,0.96,-0.99,-1.07,-1.21,6.17,6.18,6.19
24.16,7.22,1.01,7.22,1.02,-1.04,-1.11,-1.24,6.18,6.18,6.20
24.40,7.29,1.07,7.28,1.08,-1.09,-1.15,-1.27,6.20,6.20,6.21
24.65,7.36,1.14,7.36,1.14,-1.14,-1.19,-1.31,6.21,6.22,6.21
24.89,7.43,1.22,7.43,1.21,-1.20,-1.23,-1.34,6.23,6.23,6.21
25.14,7.49,1.28,7.48,1.27,-1.26,-1.27,-1.37,6.23,6.23,6.21
25.39,7.54,1.33,7.53,1.32,-1.31,-1.31,-1.41,6.22,6.22,6.21
25.65,7.58,1.37,7.58,1.37,-1.37,-1.35,-1.44,6.21,6.21,6.21
25.91,7.63,1.41,7.63,1.41,-1.42,-1.39,-1.48,6.20,6.21,6.22
26.16,7.69,1.46,7.68,1.46,-1.47,-1.44,-1.51,6.21,6.21,6.23
26.43,7.74,1.51,7.74,1.51,-1.52,-1.48,-1.55,6.22,6.22,6.23
26.69,7.80,1.57,7.79,1.57,-1.56,-1.52,-1.58,6.24,6.23,6.23
26.96,7.85,1.62,7.84,1.62,-1.60,-1.56,-1.62,6.24,6.24,6.22
27.23,7.88,1.65,7.88,1.65,-1.64,-1.60,-1.65,6.23,6.24,6.22
27.50,7.91,1.68,7.91,1.68,-1.68,-1.65,-1.69,6.23,6.23,6.22
27.77,7.94,1.71,7.94,1.71,-1.72,-1.69,-1.72,6.22,6.22,6.23
28.05,7.97,1.74,7.97,1.74,-1.75,-1.73,-1.76,6.21,6.22,6.23
28.33,8.01,1.79,8.01,1.78,-1.79,-1.78,-1.79,6.22,6.22,6.22
28.62,8.05,1.83,8.04,1.82,-1.83,-1.82,-1.83,6.22,6.22,6.22
28.90,8.09,1.86,8.09,1.86,-1.87,-1.86,-1.86,6.22,6.22,6.23
29.19,8.13,1.90,8.13,1.91,-1.91,-1.91,-1.90,6.22,6.22,6.22
29.48,8.18,1.95,8.18,1.95,-1.95,-1.95,-1.93,6.22,6.22,6.22
29.78,8.23,2.00,8.23,2.00,-2.00,-1.99,-1.96,6.23,6.23,6.22
30.08,8.28,2.05,8.27,2.05,-2.04,-2.04,-1.99,6.24,6.23,6.23
30.38,8.31,2.09,8.31,2.09,-2.08,-2.08,-2.03,6.22,6.22,6.22
30.68,8.34,2.13,8.34,2.13,-2.12,-2.13,-2.06,6.21,6.22,6.21
30.99,8.37,2.16,8.37,2.16,-2.16,-2.17,-2.09,6.20,6.20,6.20
31.30,8.40,2.20,8.39,2.20,-2.21,-2.22,-2.11,6.19,6.19,6.19
31.61,8.43,2.24,8.43,2.24,-2.25,-2.26,-2.14,6.18,6.18,6.19
31.93,8.46,2.28,8.46,2.28,-2.28,-2.31,-2.17,6.17,6.18,6.18
32.24,8.50,2.32,8.50,2.32,-2.32,-2.35,-2.20,6.18,6.18,6.18
32.57,8.54,2.37,8.54,2.37,-2.36,-2.40,-2.22,6.18,6.18,6.16
32.89,8.58,2.41,8.57,2.41,-2.40,-2.44,-2.25,6.18,6.18,6.16
33.22,8.61,2.45,8.60,2.44,-2.44,-2.49,-2.27,6.16,6.16,6.16
33.55,8.63,2.47,8.63,2.47,-2.49,-2.53,-2.30,6.14,6.14,6.16
33.89,8.66,2.49,8.66,2.51,-2.53,-2.58,-2.32,6.12,6.13,6.16
34.23,8.72,2.56,8.72,2.56,-2.57,-2.63,-2.35,6.14,6.14,6.15
34.57,8.78,2.63,8.78,2.63,-2.61,-2.67,-2.37,6.16,6.17,6.15
34.92,8.85,2.70,8.83,2.68,-2.65,-2.72,-2.40,6.20,6.18,6.15
35.27,8.87,2.71,8.86,2.71,-2.68,-2.76,-2.43,6.18,6.18,6.15
35.62,8.88,2.74,8.88,2.73,-2.72,-2.81,-2.45,6.15,6.15,6.14
35.97,8.88,2.74,8.89,2.75,-2.77,-2.86,-2.48,6.11,6.12,6.14
36.33,8.91,2.78,8.90,2.78,-2.81,-2.90,-2.51,6.09,6.09,6.12
36.70,8.94,2.83,8.93,2.82,-2.86,-2.95,-2.53,6.08,6.08,6.11
37.06,8.98,2.88,8.98,2.89,-2.91,-3.00,-2.56,6.07,6.08,6.10
37.43,9.04,2.96,9.04,2.97,-2.96,-3.04,-2.59,6.08,6.08,6.07
37.81,9.11,3.05,9.10,3.04,-3.02,-3.09,-2.63,6.09,6.08,6.06
38.19,9.15,3.11,9.14,3.10,-3.07,-3.13,-2.66,6.07,6.06,6.03
38.57,9.16,3.15,9.16,3.15,-3.13,-3.18,-2.69,6.03,6.03,6.01
38.95,9.17,3.18,9.17,3.19,-3.18,-3.23,-2.73,5.98,5.99,5.99
39.34,9.18,3.23,9.17,3.22,-3.23,-3.27,-2.77,5.95,5.95,5.95
39.74,9.19,3.25,9.19,3.26,-3.27,-3.32,-2.81,5.92,5.92,5.94
40.14,9.21,3.29,9.21,3.30,-3.30,-3.37,-2.85,5.90,5.91,5.91
40.54,9.24,3.35,9.24,3.35,-3.35,-3.41,-2.90,5.89,5.89,5.89
40.94,9.27,3.41,9.26,3.39,-3.39,-3.46,-2.94,5.87,5.86,5.86
41.35,9.28,3.43,9.27,3.44,-3.45,-3.51,-2.99,5.83,5.82,5.84
41.76,9.29,3.48,9.30,3.48,-3.51,-3.55,-3.04,5.78,5.79,5.81
42.18,9.33,3.53,9.34,3.55,-3.56,-3.60,-3.09,5.77,5.78,5.79
42.60,9.40,3.62,9.40,3.62,-3.61,-3.64,-3.15,5.79,5.79,5.78
43.03,9.47,3.72,9.44,3.69,-3.66,-3.69,-3.21,5.81,5.78,5.75
43.46,9.47,3.74,9.47,3.74,-3.71,-3.74,-3.27,5.76,5.76,5.72
43.90,9.47,3.76,9.47,3.77,-3.76,-3.78,-3.33,5.71,5.71,5.71
44.33,9.47,3.79,9.46,3.78,-3.81,-3.83,-3.39,5.66,5.66,5.68
44.78,9.47,3.81,9.47,3.82,-3.85,-3.88,-3.46,5.62,5.62,5.65
45.23,9.50,3.85,9.51,3.87,-3.89,-3.92,-3.53,5.61,5.62,5.64
45.68,9.55,3.94,9.54,3.94,-3.92,-3.97,-3.60,5.62,5.62,5.61
46.13,9.59,4.02,9.57,4.00,-3.97,-4.01,-3.68,5.62,5.60,5.57
46.60,9.58,4.04,9.58,4.04,-4.02,-4.06,-3.76,5.56,5.56,5.54
47.06,9.57,4.06,9.57,4.06,-4.08,-4.11,-3.84,5.49,5.49,5.51
47.53,9.57,4.09,9.56,4.09,-4.13,-4.15,-3.92,5.43,5.43,5.48
48.01,9.57,4.14,9.59,4.16,-4.19,-4.20,-4.00,5.38,5.41,5.43
48.49,9.64,4.25,9.64,4.24,-4.24,-4.24,-4.09,5.40,5.40,5.39
48.97,9.71,4.36,9.67,4.32,-4.29,-4.29,-4.18,5.42,5.38,5.35
49.46,9.69,4.37,9.69,4.38,-4.34,-4.33,-4.27,5.35,5.35,5.32
49.96,9.67,4.41,9.68,4.41,-4.39,-4.38,-4.36,5.27,5.29,5.26
50.46,9.67,4.44,9.66,4.44,-4.45,-4.42,-4.45,5.22,5.22,5.22
50.96,9.67,4.47,9.67,4.48,-4.50,-4.47,-4.54,5.16,5.17,5.19
51.47,9.69,4.53,9.69,4.53,-4.56,-4.52,-4.64,5.13,5.13,5.16
51.99,9.72,4.60,9.72,4.59,-4.62,-4.56,-4.74,5.10,5.10,5.12
52.51,9.76,4.67,9.75,4.66,-4.68,-4.61,-4.83,5.08,5.07,5.08
53.03,9.79,4.73,9.80,4.74,-4.74,-4.65,-4.93,5.05,5.06,5.06
53.56,9.84,4.82,9.84,4.82,-4.80,-4.70,-5.02,5.03,5.03,5.01
54.10,9.88,4.91,9.86,4.89,-4.86,-4.74,-5.12,5.01,5.00,4.97
54.64,9.88,4.94,9.88,4.95,-4.92,-4.78,-5.21,4.95,4.96,4.93
55.18,9.88,4.99,9.88,4.99,-4.98,-4.83,-5.30,4.89,4.90,4.89
55.74,9.88,5.03,9.87,5.01,-5.04,-4.87,-5.39,4.84,4.83,4.85
56.29,9.88,5.05,9.87,5.05,-5.09,-4.92,-5.48,4.78,4.78,4.82
56.86,9.88,5.08,9.91,5.12,-5.14,-4.96,-5.57,4.73,4.76,4.80
57.42,9.95,5.20,9.95,5.20,-5.19,-5.01,-5.65,4.76,4.77,4.75
58.00,10.04,5.31,10.00,5.27,-5.23,-5.05,-5.72,4.81,4.77,4.73
58.58,10.02,5.31,10.02,5.31,-5.27,-5.10,-5.80,4.74,4.75,4.71
59.16,10.00,5.32,10.01,5.33,-5.32,-5.14,-5.87,4.68,4.69,4.68
59.76,9.98,5.33,9.98,5.34,-5.36,-5.18,-5.93,4.62,4.62,4.65
60.35,9.98,5.38,9.98,5.37,-5.40,-5.23,-5.99,4.57,4.57,4.60
60.96,9.98,5.42,9.97,5.42,-5.44,-5.27,-6.04,4.54,4.53,4.55
61.57,9.98,5.47,9.98,5.48,-5.48,-5.31,-6.08,4.50,4.50,4.50
62.18,9.98,5.53,9.98,5.53,-5.52,-5.36,-6.12,4.46,4.46,4.45
62.80,9.98,5.58,9.98,5.58,-5.57,-5.40,-6.16,4.41,4.41,4.39
63.43,9.98,5.63,9.98,5.63,-5.62,-5.44,-6.18,4.35,4.35,4.35
64.07,9.98,5.66,9.98,5.67,-5.68,-5.49,-6.21,4.30,4.30,4.31
64.71,9.98,5.71,9.97,5.70,-5.73,-5.53,-6.22,4.25,4.24,4.27
65.35,9.98,5.75,9.98,5.76,-5.77,-5.57,-6.23,4.21,4.22,4.23
66.01,9.98,5.80,10.03,5.84,-5.81,-5.62,-6.24,4.17,4.22,4.18
66.67,10.09,5.93,10.03,5.88,-5.85,-5.66,-6.24,4.24,4.18,4.15
67.33,10.06,5.96,10.00,5.91,-5.89,-5.70,-6.23,4.16,4.11,4.09
68.01,9.89,5.84,9.98,5.92,-5.93,-5.74,-6.23,3.95,4.04,4.05
68.69,9.95,5.95,9.94,5.94,-5.97,-5.79,-6.21,3.97,3.97,4.00
69.37,9.98,6.01,9.95,5.99,-6.02,-5.83,-6.20,3.96,3.93,3.97
70.07,9.98,6.06,9.98,6.06,-6.06,-5.87,-6.18,3.92,3.92,3.91
70.77,9.98,6.11,9.98,6.11,-6.10,-5.91,-6.16,3.88,3.88,3.87
71.48,9.98,6.15,9.98,6.15,-6.15,-5.96,-6.14,3.83,3.83,3.83
72.19,9.98,6.21,9.98,6.20,-6.20,-6.00,-6.12,3.78,3.78,3.77
72.91,9.98,6.25,9.98,6.25,-6.25,-6.04,-6.10,3.73,3.73,3.72
73.64,9.98,6.30,9.98,6.30,-6.30,-6.08,-6.08,3.68,3.68,3.68
74.38,9.98,6.34,9.98,6.34,-6.34,-6.13,-6.06,3.64,3.64,3.64
75.12,9.98,6.39,9.98,6.38,-6.38,-6.17,-6.04,3.60,3.60,3.59
75.87,9.98,6.42,9.98,6.42,-6.42,-6.21,-6.03,3.56,3.56,3.56
76.63,9.98,6.46,9.98,6.46,-6.46,-6.25,-6.01,3.52,3.52,3.52
77.40,9.98,6.49,9.98,6.49,-6.49,-6.29,-6.00,3.48,3.48,3.49
78.17,9.98,6.53,9.98,6.53,-6.53,-6.33,-5.99,3.44,3.44,3.45
78.95,9.98,6.55,9.98,6.56,-6.57,-6.37,-5.98,3.41,3.41,3.42
79.74,9.98,6.59,9.98,6.59,-6.60,-6.42,-5.97,3.38,3.38,3.39
80.54,9.98,6.62,9.98,6.62,-6.62,-6.46,-5.97,3.36,3.36,3.35
81.35,9.98,6.66,9.99,6.67,-6.63,-6.50,-5.98,3.34,3.36,3.32
82.16,9.98,6.69,9.98,6.69,-6.65,-6.54,-5.98,3.33,3.33,3.29
82.98,9.98,6.72,9.93,6.68,-6.67,-6.58,-5.99,3.31,3.26,3.25
83.81,9.86,6.64,9.87,6.66,-6.68,-6.62,-6.01,3.17,3.19,3.22
84.65,9.80,6.62,9.83,6.66,-6.70,-6.66,-6.02,3.09,3.13,3.18
85.50,9.83,6.70,9.82,6.69,-6.73,-6.70,-6.05,3.10,3.10,3.13
86.35,9.88,6.78,9.85,6.76,-6.76,-6.74,-6.07,3.12,3.09,3.10
87.22,9.88,6.81,9.88,6.81,-6.79,-6.78,-6.11,3.08,3.08,3.07
88.09,9.88,6.85,9.88,6.85,-6.83,-6.82,-6.14,3.04,3.05,3.02
88.97,9.88,6.88,9.88,6.89,-6.88,-6.86,-6.18,2.99,2.99,2.99
89.86,9.88,6.94,9.88,6.93,-6.94,-6.90,-6.23,2.94,2.94,2.94
90.76,9.88,6.97,9.88,6.97,-6.99,-6.94,-6.28,2.89,2.89,2.91
91.66,9.88,7.02,9.88,7.02,-7.03,-6.97,-6.33,2.85,2.85,2.85
92.58,9.88,7.06,9.88,7.06,-7.07,-7.01,-6.39,2.81,2.81,2.82
93.51,9.88,7.10,9.88,7.11,-7.09,-7.05,-6.45,2.78,2.79,2.77
94.44,9.88,7.15,9.89,7.16,-7.12,-7.09,-6.52,2.75,2.76,2.73
95.39,9.88,7.20,9.86,7.19,-7.15,-7.13,-6.59,2.72,2.71,2.67
96.34,9.84,7.22,9.80,7.18,-7.18,-7.16,-6.67,2.65,2.62,2.62
97.30,9.72,7.16,9.74,7.18,-7.21,-7.20,-6.75,2.50,2.52,2.56
98.28,9.65,7.14,9.70,7.20,-7.25,-7.24,-6.84,2.40,2.45,2.50
99.26,9.73,7.29,9.69,7.25,-7.29,-7.27,-6.92,2.44,2.40,2.44
100.25,9.73,7.35,9.71,7.33,-7.33,-7.31,-7.01,2.40,2.38,2.38
101.25,9.71,7.38,9.72,7.39,-7.37,-7.34,-7.11,2.33,2.34,2.33
102.27,9.70,7.42,9.70,7.43,-7.42,-7.38,-7.20,2.28,2.28,2.27
103.29,9.69,7.47,9.68,7.46,-7.45,-7.41,-7.30,2.24,2.23,2.21
104.32,9.67,7.50,9.67,7.51,-7.47,-7.45,-7.40,2.20,2.20,2.17
105.37,9.64,7.53,9.65,7.54,-7.48,-7.48,-7.50,2.15,2.17,2.11
106.42,9.62,7.57,9.57,7.52,-7.50,-7.51,-7.60,2.11,2.07,2.05
107.48,9.51,7.52,9.48,7.49,-7.53,-7.55,-7.71,1.98,1.95,1.98
108.56,9.34,7.39,9.41,7.47,-7.56,-7.58,-7.81,1.77,1.85,1.95
109.64,9.38,7.49,9.36,7.48,-7.59,-7.61,-7.91,1.79,1.78,1.89
110.74,9.42,7.59,9.41,7.57,-7.60,-7.64,-8.01,1.81,1.80,1.83
111.85,9.44,7.65,9.48,7.70,-7.61,-7.67,-8.10,1.83,1.88,1.78
112.97,9.56,7.82,9.49,7.75,-7.61,-7.70,-8.19,1.94,1.88,1.74
114.10,9.46,7.77,9.42,7.74,-7.63,-7.73,-8.28,1.83,1.79,1.69
115.24,9.27,7.63,9.28,7.65,-7.65,-7.76,-8.36,1.61,1.63,1.63
116.39,9.12,7.54,9.14,7.56,-7.68,-7.79,-8.44,1.44,1.46,1.58
117.55,9.04,7.49,9.09,7.56,-7.69,-7.82,-8.51,1.35,1.40,1.54
118.73,9.15,7.66,9.12,7.63,-7.69,-7.84,-8.58,1.46,1.43,1.49
119.92,9.21,7.75,9.18,7.72,-7.69,-7.87,-8.63,1.52,1.49,1.45
121.12,9.22,7.79,9.24,7.82,-7.70,-7.90,-8.68,1.51,1.54,1.43
122.33,9.23,7.84,9.23,7.84,-7.75,-7.92,-8.71,1.48,1.49,1.38
123.55,9.23,7.87,9.16,7.81,-7.81,-7.95,-8.75,1.42,1.35,1.35
124.79,9.09,7.77,9.09,7.77,-7.87,-7.97,-8.76,1.22,1.22,1.32
126.03,8.97,7.69,9.05,7.77,-7.90,-7.99,-8.78,1.06,1.15,1.28
127.29,9.09,7.85,9.11,7.87,-7.92,-8.01,-8.77,1.17,1.19,1.24
128.57,9.23,8.03,9.21,8.01,-7.92,-8.04,-8.77,1.31,1.29,1.20
129.85,9.34,8.18,9.25,8.09,-7.92,-8.06,-8.74,1.42,1.33,1.16
131.15,9.16,8.04,9.15,8.03,-7.93,-8.08,-8.72,1.23,1.22,1.12
132.46,8.97,7.89,9.00,7.92,-7.95,-8.10,-8.68,1.02,1.05,1.08
133.79,8.82,7.77,8.88,7.84,-7.97,-8.11,-8.64,0.84,0.91,1.04
135.12,8.89,7.88,8.88,7.87,-8.00,-8.13,-8.59,0.89,0.88,1.01
136.48,8.96,7.98,8.93,7.95,-8.01,-8.15,-8.54,0.94,0.91,0.98
137.84,8.99,8.04,8.97,8.03,-8.02,-8.16,-8.48,0.96,0.94,0.94
139.22,8.99,8.10,9.01,8.11,-8.04,-8.18,-8.42,0.94,0.97,0.89
140.61,8.99,8.12,9.04,8.18,-8.08,-8.19,-8.35,0.91,0.96,0.87
142.02,9.12,8.29,9.01,8.19,-8.11,-8.21,-8.28,1.00,0.90,0.82
143.44,8.95,8.16,8.94,8.15,-8.14,-8.22,-8.20,0.81,0.80,0.78
144.87,8.77,8.02,8.85,8.10,-8.15,-8.23,-8.13,0.62,0.70,0.75
146.32,8.78,8.06,8.77,8.05,-8.14,-8.24,-8.06,0.63,0.63,0.72
147.78,8.79,8.10,8.77,8.09,-8.14,-8.25,-7.98,0.65,0.63,0.68
149.26,8.79,8.14,8.79,8.15,-8.13,-8.26,-7.91,0.66,0.66,0.64
150.75,8.79,8.19,8.77,8.17,-8.12,-8.27,-7.84,0.66,0.65,0.60
152.26,8.73,8.16,8.73,8.16,-8.12,-8.28,-7.77,0.60,0.60,0.57
153.78,8.68,8.14,8.67,8.14,-8.13,-8.29,-7.70,0.54,0.54,0.53
155.32,8.62,8.12,8.63,8.13,-8.15,-8.29,-7.64,0.47,0.48,0.50
156.88,8.59,8.13,8.60,8.15,-8.17,-8.30,-7.58,0.42,0.43,0.45
158.44,8.59,8.18,8.54,8.12,-8.17,-8.30,-7.52,0.41,0.37,0.41
160.03,8.51,8.14,8.51,8.14,-8.16,-8.31,-7.47,0.34,0.34,0.37
161.63,8.41,8.08,8.50,8.18,-8.16,-8.31,-7.42,0.25,0.34,0.33
163.24,8.56,8.28,8.49,8.21,-8.15,-8.31,-7.37,0.40,0.34,0.28
164.88,8.50,8.26,8.48,8.24,-8.17,-8.31,-7.34,0.33,0.31,0.24
166.53,8.40,8.21,8.39,8.20,-8.19,-8.31,-7.30,0.21,0.20,0.19
168.19,8.28,8.13,8.24,8.09,-8.20,-8.31,-7.27,0.08,0.04,0.15
169.87,8.09,7.99,8.19,8.09,-8.20,-8.31,-7.24,-0.11,-0.01,0.10
171.57,8.20,8.14,8.23,8.18,-8.19,-8.31,-7.23,0.01,0.04,0.05
173.29,8.38,8.37,8.30,8.29,-8.19,-8.31,-7.21,0.19,0.11,0.01
175.02,8.36,8.38,8.29,8.32,-8.19,-8.30,-7.20,0.16,0.10,-0.03
176.77,8.17,8.24,8.15,8.22,-8.20,-8.30,-7.20,-0.03,-0.05,-0.07
178.54,7.91,8.02,7.99,8.10,-8.21,-8.29,-7.20,-0.30,-0.22,-0.12
180.32,7.91,8.07,7.96,8.11,-8.21,-8.29,-7.21,-0.31,-0.25,-0.16
182.13,8.02,8.21,8.03,8.22,-8.22,-8.28,-7.22,-0.21,-0.19,-0.19
183.95,8.19,8.41,8.05,8.28,-8.23,-8.27,-7.24,-0.04,-0.17,-0.22
185.79,8.04,8.30,7.99,8.25,-8.23,-8.27,-7.26,-0.20,-0.24,-0.26
187.65,7.77,8.06,7.91,8.21,-8.24,-8.26,-7.29,-0.47,-0.33,-0.29
189.52,7.86,8.19,7.91,8.24,-8.25,-8.25,-7.32,-0.40,-0.35,-0.33
191.42,8.02,8.37,7.96,8.32,-8.27,-8.24,-7.36,-0.25,-0.31,-0.35
193.33,8.08,8.47,7.95,8.34,-8.26,-8.22,-7.40,-0.19,-0.32,-0.39
195.27,7.80,8.23,7.84,8.26,-8.25,-8.21,-7.45,-0.46,-0.42,-0.43
197.22,7.61,8.07,7.73,8.19,-8.26,-8.20,-7.50,-0.65,-0.53,-0.47
199.19,7.70,8.19,7.68,8.18,-8.27,-8.18,-7.55,-0.57,-0.59,-0.49
201.18,7.78,8.31,7.72,8.25,-8.27,-8.17,-7.61,-0.50,-0.55,-0.53
203.19,7.75,8.30,7.74,8.30,-8.26,-8.15,-7.67,-0.51,-0.52,-0.56
205.23,7.70,8.28,7.69,8.27,-8.24,-8.14,-7.74,-0.54,-0.55,-0.58
207.28,7.63,8.23,7.68,8.29,-8.23,-8.12,-7.81,-0.61,-0.55,-0.61
209.35,7.63,8.27,7.65,8.29,-8.23,-8.10,-7.87,-0.61,-0.59,-0.64
211.44,7.70,8.37,7.55,8.22,-8.23,-8.08,-7.94,-0.54,-0.68,-0.67
213.56,7.40,8.09,7.44,8.14,-8.21,-8.06,-8.02,-0.82,-0.78,-0.70
215.69,7.26,7.99,7.37,8.10,-8.18,-8.04,-8.09,-0.92,-0.81,-0.73
217.85,7.36,8.11,7.38,8.14,-8.13,-8.02,-8.16,-0.78,-0.75,-0.75
220.03,7.50,8.29,7.41,8.20,-8.10,-8.00,-8.23,-0.60,-0.69,-0.79
222.23,7.46,8.27,7.33,8.15,-8.07,-7.98,-8.29,-0.62,-0.74,-0.82
224.45,7.10,7.93,7.21,8.05,-8.06,-7.96,-8.36,-0.96,-0.85,-0.84
226.70,7.00,7.85,7.10,7.95,-8.05,-7.93,-8.41,-1.05,-0.95,-0.86
228.96,7.16,8.02,7.05,7.92,-8.02,-7.91,-8.47,-0.87,-0.97,-0.87
231.25,7.11,7.98,7.09,7.97,-7.98,-7.88,-8.52,-0.88,-0.89,-0.88
233.57,7.07,7.96,7.14,8.03,-7.94,-7.85,-8.56,-0.87,-0.80,-0.90
235.90,7.10,8.00,7.10,8.01,-7.90,-7.83,-8.60,-0.80,-0.80,-0.91
238.26,7.15,8.06,7.01,7.92,-7.88,-7.80,-8.63,-0.73,-0.87,-0.92
240.64,6.86,7.76,6.90,7.81,-7.86,-7.77,-8.64,-1.01,-0.97,-0.90
243.05,6.71,7.62,6.81,7.72,-7.84,-7.74,-8.65,-1.13,-1.03,-0.91
245.48,6.80,7.72,6.82,7.74,-7.79,-7.71,-8.65,-1.00,-0.97,-0.92
247.93,6.93,7.85,6.86,7.78,-7.74,-7.68,-8.64,-0.82,-0.88,-0.93
250.41,6.99,7.90,6.85,7.77,-7.70,-7.65,-8.62,-0.71,-0.85,-0.92
252.92,6.65,7.56,6.82,7.74,-7.67,-7.61,-8.59,-1.03,-0.86,-0.91
255.45,6.71,7.64,6.73,7.65,-7.66,-7.58,-8.55,-0.95,-0.93,-0.93
258.00,6.79,7.71,6.62,7.55,-7.64,-7.55,-8.50,-0.85,-1.01,-0.93
260.58,6.55,7.48,6.63,7.56,-7.60,-7.51,-8.43,-1.06,-0.97,-0.93
263.19,6.50,7.43,6.61,7.55,-7.56,-7.47,-8.36,-1.06,-0.94,-0.94
265.82,6.71,7.66,6.61,7.56,-7.51,-7.44,-8.28,-0.80,-0.90,-0.95
268.48,6.63,7.59,6.57,7.53,-7.47,-7.40,-8.20,-0.84,-0.90,-0.96
271.16,6.48,7.45,6.46,7.43,-7.42,-7.36,-8.10,-0.94,-0.96,-0.98
273.87,6.22,7.20,6.37,7.36,-7.37,-7.32,-8.00,-1.16,-1.00,-0.98
276.61,6.32,7.31,6.31,7.31,-7.33,-7.28,-7.89,-1.01,-1.02,-1.00
279.38,6.43,7.45,6.24,7.25,-7.28,-7.24,-7.78,-0.85,-1.04,-1.02
282.17,6.11,7.12,6.22,7.24,-7.23,-7.20,-7.66,-1.13,-1.01,-1.02
284.99,6.08,7.10,6.14,7.16,-7.19,-7.16,-7.54,-1.12,-1.05,-1.02
287.84,6.19,7.20,6.07,7.09,-7.16,-7.11,-7.42,-0.97,-1.08,-1.01
290.72,6.07,7.09,6.12,7.14,-7.12,-7.07,-7.30,-1.05,-1.00,-1.03
293.63,6.07,7.09,6.11,7.13,-7.08,-7.03,-7.17,-1.01,-0.97,-1.02
296.57,6.16,7.17,6.05,7.07,-7.03,-6.98,-7.05,-0.87,-0.98,-1.02
299.53,5.96,6.98,5.99,7.01,-6.98,-6.93,-6.92,-1.02,-0.98,-1.02
302.53,5.88,6.89,5.90,6.92,-6.92,-6.89,-6.80,-1.04,-1.02,-1.01
305.55,5.82,6.83,5.80,6.82,-6.87,-6.84,-6.67,-1.05,-1.06,-1.02
308.61,5.76,6.77,5.75,6.77,-6.81,-6.79,-6.55,-1.05,-1.05,-1.01
311.69,5.71,6.73,5.70,6.72,-6.74,-6.74,-6.43,-1.04,-1.05,-1.02
314.81,5.65,6.66,5.67,6.69,-6.69,-6.69,-6.32,-1.04,-1.02,-1.02
317.96,5.62,6.65,5.61,6.64,-6.63,-6.64,-6.20,-1.02,-1.02,-1.03
321.14,5.61,6.63,5.57,6.59,-6.58,-6.59,-6.09,-0.97,-1.01,-1.02
324.35,5.47,6.49,5.53,6.55,-6.52,-6.53,-5.98,-1.05,-0.99,-1.03
327.59,5.50,6.51,5.46,6.48,-6.46,-6.48,-5.88,-0.96,-1.00,-1.02
330.87,5.40,6.42,5.37,6.39,-6.39,-6.43,-5.77,-0.99,-1.02,-1.02
334.18,5.26,6.29,5.28,6.31,-6.31,-6.37,-5.68,-1.05,-1.03,-1.03
337.52,5.17,6.19,5.19,6.22,-6.23,-6.31,-5.58,-1.06,-1.04,-1.03
340.90,5.13,6.15,5.11,6.14,-6.16,-6.26,-5.49,-1.03,-1.04,-1.03
344.30,5.08,6.10,5.05,6.07,-6.09,-6.20,-5.41,-1.01,-1.04,-1.02
347.75,4.97,5.98,4.99,6.01,-6.02,-6.14,-5.32,-1.05,-1.03,-1.01
351.23,4.91,5.93,4.93,5.95,-5.96,-6.08,-5.24,-1.05,-1.02,-1.02
354.74,4.91,5.91,4.87,5.88,-5.89,-6.02,-5.17,-0.98,-1.02,-1.01
358.28,4.85,5.85,4.85,5.85,-5.82,-5.96,-5.10,-0.97,-0.97,-1.01
361.87,4.75,5.75,4.80,5.79,-5.75,-5.90,-5.03,-1.00,-0.95,-1.00
365.49,4.79,5.78,4.71,5.70,-5.68,-5.84,-4.97,-0.89,-0.97,-0.99
369.14,4.60,5.58,4.62,5.60,-5.61,-5.77,-4.91,-1.01,-0.99,-0.98
372.83,4.51,5.48,4.54,5.51,-5.54,-5.71,-4.85,-1.03,-1.00,-0.97
376.56,4.47,5.44,4.44,5.42,-5.47,-5.64,-4.80,-1.01,-1.03,-0.98
380.33,4.40,5.37,4.40,5.37,-5.40,-5.58,-4.75,-1.01,-1.01,-0.98
384.13,4.36,5.32,4.36,5.33,-5.33,-5.51,-4.71,-0.98,-0.97,-0.97
387.97,4.32,5.29,4.34,5.31,-5.26,-5.44,-4.66,-0.95,-0.92,-0.97
391.85,4.31,5.28,4.28,5.26,-5.21,-5.38,-4.62,-0.90,-0.92,-0.97
395.77,4.25,5.23,4.17,5.15,-5.15,-5.31,-4.59,-0.90,-0.98,-0.98
399.73,4.02,5.00,4.09,5.07,-5.09,-5.24,-4.55,-1.07,-0.99,-0.98
403.72,3.94,4.91,4.01,5.00,-5.02,-5.17,-4.52,-1.08,-1.01,-0.97
407.76,4.06,5.05,3.92,4.91,-4.94,-5.10,-4.49,-0.89,-1.02,-1.00
411.84,3.87,4.86,3.90,4.89,-4.87,-5.02,-4.47,-1.00,-0.97,-1.00
415.96,3.76,4.75,3.84,4.84,-4.80,-4.95,-4.44,-1.05,-0.97,-1.00
420.12,3.82,4.82,3.73,4.73,-4.74,-4.88,-4.42,-0.93,-1.02,-1.01
424.32,3.67,4.67,3.66,4.65,-4.68,-4.80,-4.39,-1.02,-1.03,-1.00
428.56,3.55,4.53,3.61,4.60,-4.61,-4.73,-4.37,-1.07,-1.00,-0.98
432.85,3.56,4.52,3.58,4.54,-4.55,-4.65,-4.35,-0.99,-0.97,-0.96
437.18,3.64,4.59,3.57,4.51,-4.48,-4.58,-4.33,-0.84,-0.91,-0.95
441.55,3.55,4.46,3.53,4.45,-4.41,-4.50,-4.31,-0.86,-0.88,-0.91
445.96,3.43,4.30,3.46,4.34,-4.34,-4.42,-4.28,-0.91,-0.88,-0.87
450.42,3.38,4.21,3.39,4.22,-4.26,-4.35,-4.26,-0.89,-0.88,-0.83
454.93,3.38,4.16,3.38,4.17,-4.19,-4.27,-4.24,-0.81,-0.80,-0.79
459.48,3.41,4.13,3.41,4.14,-4.11,-4.19,-4.21,-0.70,-0.70,-0.73
464.07,3.44,4.09,3.39,4.06,-4.04,-4.11,-4.18,-0.60,-0.64,-0.66
468.71,3.38,3.98,3.34,3.95,-3.96,-4.03,-4.15,-0.58,-0.62,-0.61
473.40,3.25,3.79,3.33,3.88,-3.89,-3.95,-4.12,-0.64,-0.56,-0.55
478.13,3.29,3.77,3.31,3.81,-3.82,-3.86,-4.08,-0.54,-0.51,-0.49
482.91,3.43,3.86,3.30,3.74,-3.75,-3.78,-4.05,-0.33,-0.45,-0.44
487.74,3.26,3.66,3.31,3.71,-3.68,-3.70,-4.00,-0.42,-0.36,-0.40
492.62,3.23,3.59,3.27,3.63,-3.60,-3.62,-3.96,-0.38,-0.33,-0.36
497.55,3.27,3.59,3.19,3.52,-3.53,-3.53,-3.91,-0.27,-0.34,-0.32
502.52,3.14,3.44,3.16,3.46,-3.46,-3.45,-3.86,-0.32,-0.30,-0.30
507.55,3.07,3.34,3.10,3.38,-3.39,-3.37,-3.80,-0.32,-0.28,-0.27
512.62,3.07,3.33,3.03,3.29,-3.31,-3.28,-3.74,-0.24,-0.28,-0.26
517.75,2.98,3.23,3.00,3.25,-3.23,-3.20,-3.67,-0.25,-0.23,-0.25
