frequency,raw,error,smoothed,error_smoothed,equalization,parametric_eq,equalized_raw,equalized_smoothed,target
20,-15.71,-18.92,-15.71,-18.92,6.00,2.75,-9.71,-9.71,3.21
21,-15.04,-18.25,-15.01,-18.23,6.00,3.16,-9.04,-9.01,3.21
22,-14.34,-17.55,-14.35,-17.56,6.00,3.60,-8.34,-8.35,3.21
23,-13.63,-16.85,-13.72,-16.93,6.00,4.08,-7.63,-7.72,3.22
24,-13.22,-16.44,-13.12,-16.34,6.00,4.58,-7.22,-7.12,3.22
25,-12.54,-15.76,-12.55,-15.77,6.00,5.11,-6.54,-6.55,3.22
26,-11.85,-15.07,-12.02,-15.24,6.00,5.63,-5.85,-6.02,3.22
27,-11.62,-14.84,-11.52,-14.74,6.00,6.12,-5.62,-5.52,3.22
28,-10.96,-14.18,-11.05,-14.27,6.00,6.57,-4.96,-5.05,3.22
29,-10.71,-13.93,-10.59,-13.81,6.00,6.93,-4.71,-4.59,3.22
30,-10.05,-13.27,-10.15,-13.37,6.00,7.19,-4.05,-4.15,3.22
31,-9.87,-13.09,-9.72,-12.94,6.00,7.34,-3.87,-3.72,3.22
32,-9.34,-12.56,-9.30,-12.52,6.00,7.36,-3.34,-3.30,3.22
33,-8.91,-12.13,-8.89,-12.11,6.00,7.29,-2.91,-2.89,3.22
34,-8.43,-11.65,-8.49,-11.71,6.00,7.13,-2.43,-2.49,3.22
35,-8.04,-11.25,-8.11,-11.33,6.00,6.93,-2.04,-2.11,3.21
36,-7.76,-10.97,-7.75,-10.96,6.00,6.69,-1.76,-1.75,3.21
37,-7.49,-10.69,-7.41,-10.62,6.00,6.45,-1.49,-1.41,3.20
38,-7.02,-10.22,-7.10,-10.30,6.00,6.21,-1.02,-1.10,3.20
39,-6.84,-10.03,-6.81,-10.00,6.00,5.99,-0.84,-0.81,3.19
40,-6.58,-9.76,-6.55,-9.73,6.00,5.79,-0.58,-0.55,3.18
41,-6.16,-9.33,-6.30,-9.47,6.00,5.61,-0.16,-0.30,3.17
42,-5.98,-9.14,-6.07,-9.23,6.00,5.46,0.02,-0.07,3.16
43,-5.93,-9.08,-5.85,-9.00,6.00,5.33,0.07,0.15,3.15
44,-5.70,-8.84,-5.63,-8.77,6.00,5.22,0.30,0.37,3.14
45,-5.47,-8.59,-5.40,-8.53,6.00,5.14,0.53,0.60,3.12
46,-5.18,-8.29,-5.18,-8.29,6.00,5.08,0.82,0.82,3.11
47,-5.01,-8.10,-4.94,-8.04,6.00,5.04,0.99,1.06,3.09
48,-4.74,-7.81,-4.71,-7.78,6.00,5.01,1.26,1.29,3.07
49,-4.43,-7.49,-4.47,-7.53,6.00,5.00,1.57,1.53,3.06
50,-4.10,-7.14,-4.24,-7.28,6.00,5.00,1.90,1.76,3.04
51,-4.06,-7.07,-4.02,-7.03,6.00,5.01,1.94,1.98,3.01
52,-3.77,-6.76,-3.81,-6.80,6.00,5.03,2.23,2.19,2.99
53,-3.65,-6.62,-3.61,-6.58,6.00,5.06,2.35,2.39,2.97
54,-3.42,-6.37,-3.42,-6.37,5.97,5.08,2.55,2.55,2.95
55,-3.19,-6.11,-3.24,-6.17,5.92,5.11,2.73,2.67,2.92
56,-3.19,-6.08,-3.08,-5.98,5.83,5.13,2.64,2.75,2.89
57,-2.96,-5.83,-2.93,-5.80,5.73,5.15,2.77,2.80,2.87
58,-2.74,-5.58,-2.78,-5.63,5.61,5.16,2.87,2.82,2.84
59,-2.51,-5.32,-2.65,-5.47,5.47,5.16,2.96,2.81,2.81
60,-2.51,-5.30,-2.53,-5.31,5.31,5.15,2.80,2.79,2.79
61,-2.51,-5.27,-2.41,-5.17,5.17,5.13,2.66,2.76,2.76
62,-2.28,-5.01,-2.30,-5.03,5.03,5.09,2.75,2.73,2.73
63,-2.28,-4.98,-2.19,-4.89,4.89,5.05,2.61,2.70,2.70
64,-2.05,-4.72,-2.08,-4.75,4.75,4.99,2.70,2.67,2.67
65,-2.00,-4.64,-1.98,-4.62,4.62,4.93,2.62,2.64,2.64
66,-1.82,-4.43,-1.88,-4.49,4.49,4.85,2.67,2.61,2.61
67,-1.82,-4.40,-1.78,-4.36,4.36,4.77,2.54,2.58,2.58
68,-1.60,-4.15,-1.69,-4.24,4.24,4.68,2.64,2.55,2.55
69,-1.60,-4.12,-1.60,-4.12,4.12,4.58,2.52,2.52,2.52
70,-1.60,-4.09,-1.51,-4.01,4.01,4.48,2.41,2.49,2.49
71,-1.37,-3.83,-1.43,-3.90,3.90,4.38,2.53,2.46,2.46
72,-1.37,-3.80,-1.36,-3.79,3.79,4.27,2.42,2.43,2.43
73,-1.37,-3.77,-1.28,-3.69,3.69,4.17,2.32,2.40,2.40
74,-1.14,-3.51,-1.21,-3.58,3.58,4.06,2.44,2.37,2.37
75,-1.14,-3.49,-1.14,-3.49,3.49,3.96,2.35,2.35,2.35
76,-1.14,-3.46,-1.08,-3.40,3.40,3.86,2.26,2.32,2.32
77,-0.96,-3.25,-1.02,-3.31,3.31,3.76,2.35,2.29,2.29
78,-0.91,-3.17,-0.97,-3.23,3.23,3.66,2.32,2.26,2.26
79,-0.91,-3.14,-0.92,-3.15,3.15,3.57,2.24,2.23,2.23
80,-0.91,-3.11,-0.88,-3.08,3.08,3.48,2.17,2.20,2.20
81,-0.91,-3.08,-0.84,-3.01,3.01,3.39,2.10,2.17,2.17
82,-0.90,-3.04,-0.80,-2.94,2.94,3.31,2.04,2.14,2.14
83,-0.68,-2.79,-0.77,-2.88,2.88,3.23,2.20,2.11,2.11
84,-0.68,-2.77,-0.74,-2.83,2.83,3.15,2.15,2.09,2.09
85,-0.68,-2.74,-0.72,-2.77,2.77,3.08,2.09,2.06,2.06
86,-0.68,-2.71,-0.70,-2.73,2.73,3.01,2.05,2.03,2.03
87,-0.68,-2.68,-0.68,-2.68,2.68,2.95,2.00,2.00,2.00
88,-0.68,-2.66,-0.66,-2.63,2.63,2.88,1.95,1.97,1.98
89,-0.68,-2.63,-0.64,-2.58,2.58,2.83,1.90,1.95,1.95
90,-0.68,-2.60,-0.61,-2.53,2.53,2.77,1.85,1.92,1.92
91,-0.66,-2.56,-0.58,-2.48,2.48,2.72,1.82,1.90,1.90
92,-0.46,-2.33,-0.55,-2.42,2.42,2.67,1.96,1.87,1.87
93,-0.46,-2.31,-0.52,-2.37,2.37,2.62,1.91,1.85,1.85
94,-0.46,-2.29,-0.49,-2.32,2.32,2.58,1.86,1.83,1.83
95,-0.46,-2.26,-0.47,-2.28,2.28,2.54,1.82,1.81,1.80
96,-0.46,-2.24,-0.46,-2.24,2.24,2.50,1.78,1.78,1.78
97,-0.46,-2.22,-0.45,-2.21,2.21,2.47,1.75,1.76,1.76
98,-0.46,-2.20,-0.45,-2.19,2.19,2.44,1.73,1.74,1.74
99,-0.46,-2.18,-0.45,-2.17,2.17,2.40,1.71,1.72,1.72
100,-0.46,-2.16,-0.45,-2.15,2.15,2.38,1.69,1.70,1.70
101,-0.46,-2.15,-0.45,-2.13,2.13,2.35,1.67,1.68,1.69
102,-0.46,-2.13,-0.45,-2.11,2.11,2.32,1.65,1.65,1.67
104,-0.46,-2.07,-0.45,-2.08,2.08,2.28,1.62,1.63,1.61
105,-0.46,-2.06,-0.45,-2.06,2.06,2.26,1.60,1.61,1.60
106,-0.46,-2.04,-0.45,-2.04,2.04,2.24,1.58,1.59,1.58
107,-0.46,-2.03,-0.46,-2.03,2.03,2.22,1.57,1.57,1.57
108,-0.46,-2.01,-0.47,-2.02,2.02,2.20,1.56,1.55,1.55
109,-0.46,-2.00,-0.49,-2.03,2.03,2.19,1.57,1.53,1.54
110,-0.46,-1.98,-0.52,-2.04,2.04,2.17,1.58,1.52,1.52
111,-0.46,-1.96,-0.55,-2.05,2.05,2.16,1.59,1.50,1.50
112,-0.68,-2.17,-0.59,-2.07,2.07,2.14,1.39,1.48,1.49
113,-0.68,-2.15,-0.62,-2.08,2.08,2.13,1.40,1.47,1.47
114,-0.68,-2.13,-0.64,-2.08,2.08,2.12,1.40,1.44,1.45
115,-0.68,-2.11,-0.66,-2.08,2.08,2.11,1.40,1.42,1.43
117,-0.68,-2.07,-0.67,-2.07,2.07,2.09,1.39,1.40,1.39
118,-0.68,-2.05,-0.69,-2.06,2.06,2.07,1.38,1.37,1.37
119,-0.68,-2.03,-0.70,-2.05,2.05,2.06,1.37,1.35,1.35
120,-0.68,-2.01,-0.72,-2.04,2.04,2.05,1.36,1.32,1.33
121,-0.68,-1.99,-0.74,-2.04,2.04,2.04,1.36,1.30,1.31
123,-0.68,-1.94,-0.77,-2.05,2.05,2.02,1.37,1.27,1.26
124,-0.87,-2.11,-0.81,-2.05,2.05,2.01,1.18,1.25,1.24
125,-0.91,-2.13,-0.84,-2.06,2.06,2.00,1.15,1.22,1.22
126,-0.91,-2.11,-0.86,-2.06,2.06,1.99,1.15,1.20,1.20
128,-0.91,-2.07,-0.88,-2.06,2.06,1.97,1.15,1.17,1.16
129,-0.91,-2.05,-0.90,-2.05,2.05,1.97,1.14,1.15,1.14
130,-0.91,-2.03,-0.91,-2.03,2.03,1.96,1.12,1.12,1.12
131,-0.91,-2.02,-0.92,-2.02,2.02,1.95,1.11,1.10,1.11
133,-0.91,-1.98,-0.94,-2.01,2.01,1.93,1.10,1.07,1.07
134,-0.91,-1.96,-0.96,-2.01,2.01,1.92,1.10,1.05,1.05
135,-0.91,-1.94,-0.99,-2.01,2.01,1.91,1.10,1.03,1.03
137,-0.99,-1.99,-1.02,-2.02,2.02,1.89,1.03,1.00,1.00
138,-1.14,-2.12,-1.06,-2.04,2.04,1.89,0.90,0.98,0.98
140,-1.14,-2.09,-1.09,-2.04,2.04,1.87,0.90,0.96,0.95
141,-1.14,-2.08,-1.11,-2.05,2.05,1.86,0.91,0.94,0.94
142,-1.14,-2.06,-1.13,-2.05,2.05,1.85,0.91,0.92,0.92
144,-1.14,-2.03,-1.14,-2.03,2.03,1.84,0.89,0.90,0.89
145,-1.14,-2.02,-1.14,-2.02,2.02,1.83,0.88,0.88,0.88
147,-1.14,-1.99,-1.14,-2.00,2.00,1.82,0.86,0.86,0.85
148,-1.14,-1.98,-1.14,-1.98,1.98,1.82,0.84,0.84,0.84
150,-1.14,-1.96,-1.15,-1.97,1.97,1.81,0.83,0.82,0.82
151,-1.14,-1.95,-1.16,-1.97,1.97,1.80,0.83,0.81,0.81
153,-1.14,-1.93,-1.18,-1.97,1.97,1.80,0.83,0.79,0.79
154,-1.14,-1.92,-1.21,-1.99,1.99,1.80,0.85,0.78,0.78
156,-1.22,-1.98,-1.24,-2.01,2.01,1.79,0.79,0.76,0.76
157,-1.37,-2.12,-1.28,-2.02,2.02,1.79,0.65,0.75,0.75
159,-1.37,-2.10,-1.31,-2.04,2.04,1.79,0.67,0.73,0.73
160,-1.37,-2.09,-1.33,-2.05,2.05,1.79,0.68,0.72,0.72
162,-1.37,-2.08,-1.36,-2.06,2.06,1.79,0.69,0.71,0.71
164,-1.37,-2.06,-1.38,-2.07,2.07,1.79,0.70,0.69,0.69
165,-1.37,-2.05,-1.40,-2.08,2.08,1.80,0.71,0.68,0.68
167,-1.37,-2.04,-1.42,-2.09,2.09,1.80,0.72,0.67,0.67
169,-1.37,-2.03,-1.45,-2.11,2.11,1.81,0.74,0.66,0.66
170,-1.43,-2.08,-1.48,-2.13,2.13,1.82,0.70,0.65,0.65
172,-1.60,-2.24,-1.51,-2.15,2.15,1.83,0.55,0.64,0.64
174,-1.60,-2.23,-1.55,-2.18,2.18,1.84,0.58,0.63,0.63
175,-1.60,-2.23,-1.57,-2.19,2.19,1.84,0.59,0.62,0.63
177,-1.60,-2.22,-1.59,-2.21,2.21,1.86,0.61,0.61,0.62
179,-1.60,-2.21,-1.60,-2.21,2.21,1.88,0.61,0.61,0.61
181,-1.60,-2.20,-1.61,-2.21,2.21,1.89,0.61,0.60,0.60
183,-1.60,-2.19,-1.61,-2.21,2.21,1.91,0.61,0.59,0.59
184,-1.60,-2.19,-1.61,-2.20,2.20,1.92,0.60,0.59,0.59
186,-1.60,-2.19,-1.61,-2.19,2.19,1.94,0.59,0.58,0.59
188,-1.60,-2.18,-1.60,-2.18,2.18,1.97,0.58,0.58,0.58
190,-1.60,-2.18,-1.60,-2.18,2.18,1.99,0.58,0.58,0.58
192,-1.60,-2.17,-1.60,-2.17,2.17,2.01,0.57,0.57,0.57
194,-1.60,-2.17,-1.60,-2.17,2.17,2.04,0.57,0.57,0.57
196,-1.60,-2.17,-1.60,-2.17,2.17,2.07,0.57,0.57,0.57
198,-1.60,-2.16,-1.60,-2.16,2.16,2.09,0.56,0.57,0.56
200,-1.60,-2.16,-1.60,-2.16,2.16,2.12,0.56,0.56,0.56
202,-1.60,-2.16,-1.60,-2.16,2.16,2.15,0.56,0.56,0.56
204,-1.60,-2.16,-1.60,-2.16,2.16,2.18,0.56,0.56,0.56
206,-1.60,-2.16,-1.60,-2.16,2.16,2.20,0.56,0.56,0.56
208,-1.60,-2.16,-1.60,-2.16,2.16,2.23,0.56,0.56,0.56
210,-1.60,-2.16,-1.60,-2.16,2.16,2.26,0.56,0.56,0.56
212,-1.60,-2.16,-1.59,-2.16,2.16,2.29,0.56,0.56,0.56
214,-1.60,-2.16,-1.59,-2.15,2.15,2.32,0.55,0.56,0.56
216,-1.60,-2.16,-1.59,-2.15,2.15,2.35,0.55,0.56,0.56
218,-1.60,-2.17,-1.59,-2.16,2.16,2.37,0.56,0.56,0.57
221,-1.60,-2.16,-1.60,-2.16,2.16,2.41,0.56,0.57,0.56
223,-1.60,-2.17,-1.61,-2.18,2.18,2.44,0.58,0.57,0.57
225,-1.60,-2.17,-1.63,-2.20,2.20,2.46,0.60,0.57,0.57
227,-1.60,-2.17,-1.66,-2.23,2.23,2.49,0.63,0.57,0.57
229,-1.60,-2.17,-1.69,-2.26,2.26,2.51,0.66,0.57,0.57
232,-1.82,-2.39,-1.73,-2.30,2.30,2.54,0.48,0.57,0.57
234,-1.82,-2.40,-1.76,-2.34,2.34,2.56,0.52,0.58,0.58
236,-1.82,-2.40,-1.79,-2.37,2.37,2.58,0.55,0.58,0.58
239,-1.82,-2.40,-1.81,-2.39,2.39,2.60,0.57,0.58,0.58
241,-1.82,-2.40,-1.82,-2.41,2.41,2.62,0.59,0.58,0.58
244,-1.82,-2.41,-1.83,-2.42,2.42,2.63,0.60,0.59,0.59
246,-1.82,-2.41,-1.83,-2.42,2.42,2.64,0.60,0.59,0.59
248,-1.82,-2.41,-1.83,-2.42,2.42,2.65,0.60,0.59,0.59
251,-1.82,-2.42,-1.83,-2.42,2.42,2.66,0.60,0.60,0.60
253,-1.82,-2.42,-1.82,-2.42,2.42,2.67,0.60,0.60,0.60
256,-1.82,-2.42,-1.82,-2.42,2.42,2.67,0.60,0.60,0.60
259,-1.82,-2.43,-1.82,-2.43,2.43,2.67,0.61,0.61,0.61
261,-1.82,-2.43,-1.82,-2.43,2.43,2.67,0.61,0.61,0.61
264,-1.82,-2.44,-1.82,-2.44,2.44,2.67,0.62,0.62,0.62
266,-1.82,-2.44,-1.82,-2.44,2.44,2.67,0.62,0.62,0.62
269,-1.82,-2.45,-1.82,-2.45,2.45,2.66,0.63,0.63,0.63
272,-1.82,-2.46,-1.82,-2.46,2.46,2.65,0.64,0.64,0.64
274,-1.82,-2.46,-1.82,-2.46,2.46,2.65,0.64,0.64,0.64
277,-1.82,-2.47,-1.82,-2.47,2.47,2.63,0.65,0.65,0.65
280,-1.82,-2.48,-1.82,-2.48,2.48,2.62,0.66,0.66,0.66
283,-1.82,-2.49,-1.82,-2.49,2.49,2.61,0.67,0.67,0.67
286,-1.82,-2.50,-1.82,-2.50,2.50,2.60,0.68,0.68,0.68
288,-1.82,-2.51,-1.82,-2.51,2.51,2.59,0.69,0.69,0.69
291,-1.82,-2.53,-1.82,-2.53,2.53,2.58,0.71,0.71,0.71
294,-1.82,-2.54,-1.82,-2.54,2.54,2.57,0.72,0.72,0.72
297,-1.82,-2.56,-1.82,-2.56,2.56,2.55,0.74,0.74,0.74
300,-1.82,-2.57,-1.82,-2.57,2.57,2.54,0.75,0.75,0.75
303,-1.82,-2.59,-1.82,-2.59,2.59,2.53,0.77,0.77,0.77
306,-1.82,-2.60,-1.82,-2.60,2.60,2.52,0.78,0.78,0.78
309,-1.82,-2.62,-1.82,-2.62,2.62,2.51,0.80,0.80,0.80
312,-1.82,-2.64,-1.82,-2.64,2.64,2.51,0.82,0.82,0.82
316,-1.82,-2.66,-1.82,-2.66,2.66,2.50,0.84,0.84,0.84
319,-1.82,-2.68,-1.82,-2.68,2.68,2.49,0.86,0.86,0.86
322,-1.82,-2.70,-1.82,-2.70,2.70,2.49,0.88,0.88,0.88
325,-1.82,-2.72,-1.82,-2.72,2.72,2.49,0.90,0.90,0.90
328,-1.82,-2.74,-1.82,-2.74,2.74,2.49,0.92,0.92,0.92
332,-1.82,-2.76,-1.82,-2.76,2.76,2.49,0.94,0.94,0.94
335,-1.82,-2.78,-1.82,-2.78,2.78,2.49,0.96,0.96,0.96
338,-1.82,-2.80,-1.82,-2.80,2.80,2.50,0.98,0.98,0.98
342,-1.82,-2.82,-1.82,-2.82,2.82,2.50,1.00,1.00,1.00
345,-1.82,-2.84,-1.82,-2.84,2.84,2.51,1.02,1.02,1.02
349,-1.82,-2.86,-1.82,-2.86,2.86,2.52,1.04,1.04,1.04
352,-1.82,-2.88,-1.82,-2.88,2.88,2.53,1.06,1.06,1.06
356,-1.82,-2.90,-1.82,-2.90,2.90,2.55,1.08,1.08,1.08
359,-1.82,-2.91,-1.82,-2.91,2.91,2.56,1.09,1.09,1.09
363,-1.82,-2.93,-1.82,-2.93,2.93,2.58,1.11,1.11,1.11
366,-1.82,-2.95,-1.82,-2.95,2.95,2.60,1.13,1.13,1.13
370,-1.82,-2.96,-1.82,-2.96,2.96,2.62,1.14,1.14,1.14
374,-1.82,-2.98,-1.82,-2.98,2.98,2.65,1.16,1.16,1.16
377,-1.82,-2.99,-1.82,-2.99,2.99,2.67,1.17,1.17,1.17
381,-1.82,-3.01,-1.82,-3.01,3.01,2.70,1.19,1.19,1.19
385,-1.82,-3.02,-1.82,-3.02,3.02,2.73,1.20,1.20,1.20
389,-1.82,-3.03,-1.82,-3.03,3.03,2.76,1.21,1.21,1.21
393,-1.82,-3.05,-1.82,-3.05,3.05,2.79,1.23,1.23,1.23
397,-1.82,-3.06,-1.82,-3.06,3.06,2.83,1.24,1.24,1.24
401,-1.82,-3.07,-1.82,-3.07,3.07,2.86,1.25,1.25,1.25
405,-1.82,-3.08,-1.82,-3.08,3.08,2.90,1.26,1.26,1.26
409,-1.82,-3.09,-1.82,-3.09,3.09,2.94,1.27,1.27,1.27
413,-1.82,-3.10,-1.82,-3.10,3.10,2.97,1.28,1.28,1.28
417,-1.82,-3.11,-1.82,-3.10,3.10,3.01,1.28,1.28,1.29
421,-1.82,-3.11,-1.82,-3.12,3.12,3.05,1.30,1.29,1.29
425,-1.82,-3.12,-1.82,-3.13,3.13,3.08,1.31,1.30,1.30
430,-1.82,-3.13,-1.83,-3.14,3.14,3.13,1.32,1.31,1.31
434,-1.82,-3.14,-1.83,-3.15,3.15,3.16,1.33,1.32,1.32
438,-1.82,-3.15,-1.83,-3.16,3.16,3.20,1.34,1.33,1.33
443,-1.82,-3.16,-1.83,-3.16,3.16,3.24,1.34,1.34,1.34
447,-1.82,-3.17,-1.82,-3.16,3.16,3.27,1.34,1.35,1.35
451,-1.82,-3.17,-1.80,-3.15,3.15,3.30,1.33,1.35,1.35
456,-1.82,-3.18,-1.77,-3.14,3.14,3.34,1.32,1.36,1.36
460,-1.82,-3.20,-1.74,-3.12,3.12,3.36,1.30,1.38,1.38
465,-1.71,-3.10,-1.71,-3.10,3.10,3.39,1.39,1.39,1.39
470,-1.60,-3.00,-1.68,-3.07,3.07,3.42,1.47,1.40,1.40
474,-1.60,-3.01,-1.65,-3.06,3.06,3.44,1.46,1.41,1.41
479,-1.60,-3.02,-1.62,-3.04,3.04,3.46,1.44,1.42,1.42
484,-1.60,-3.04,-1.60,-3.04,3.04,3.48,1.44,1.44,1.44
489,-1.60,-3.05,-1.59,-3.04,3.04,3.49,1.44,1.45,1.45
494,-1.60,-3.07,-1.59,-3.06,3.06,3.50,1.46,1.47,1.47
499,-1.60,-3.08,-1.59,-3.07,3.07,3.51,1.47,1.48,1.48
504,-1.60,-3.10,-1.60,-3.10,3.10,3.51,1.50,1.50,1.50
509,-1.60,-3.12,-1.60,-3.12,3.12,3.51,1.52,1.52,1.52
514,-1.60,-3.14,-1.61,-3.14,3.14,3.51,1.54,1.54,1.54
519,-1.60,-3.16,-1.61,-3.17,3.17,3.50,1.57,1.56,1.56
524,-1.60,-3.18,-1.61,-3.19,3.19,3.49,1.59,1.58,1.58
529,-1.60,-3.20,-1.60,-3.20,3.20,3.48,1.60,1.60,1.60
535,-1.60,-3.22,-1.59,-3.21,3.21,3.46,1.61,1.62,1.62
540,-1.60,-3.24,-1.56,-3.21,3.21,3.44,1.61,1.64,1.64
545,-1.60,-3.27,-1.53,-3.20,3.20,3.42,1.60,1.67,1.67
551,-1.57,-3.26,-1.50,-3.19,3.19,3.40,1.62,1.69,1.69
556,-1.37,-3.08,-1.46,-3.17,3.17,3.38,1.80,1.71,1.71
562,-1.37,-3.11,-1.43,-3.17,3.17,3.35,1.80,1.74,1.74
568,-1.37,-3.13,-1.40,-3.16,3.16,3.32,1.79,1.76,1.76
573,-1.37,-3.16,-1.38,-3.17,3.17,3.29,1.80,1.79,1.79
579,-1.37,-3.18,-1.37,-3.18,3.18,3.26,1.81,1.81,1.81
585,-1.37,-3.21,-1.36,-3.20,3.20,3.23,1.83,1.84,1.84
591,-1.37,-3.23,-1.37,-3.23,3.23,3.20,1.86,1.86,1.86
596,-1.37,-3.25,-1.37,-3.26,3.26,3.18,1.89,1.88,1.88
602,-1.37,-3.28,-1.38,-3.28,3.28,3.15,1.91,1.91,1.91
608,-1.37,-3.30,-1.38,-3.31,3.31,3.12,1.94,1.93,1.93
615,-1.37,-3.32,-1.37,-3.32,3.32,3.09,1.95,1.95,1.95
621,-1.37,-3.35,-1.36,-3.33,3.33,3.07,1.96,1.98,1.98
627,-1.37,-3.37,-1.33,-3.33,3.33,3.04,1.96,2.00,2.00
633,-1.37,-3.39,-1.30,-3.32,3.32,3.02,1.95,2.02,2.02
639,-1.32,-3.36,-1.26,-3.30,3.30,3.00,1.98,2.04,2.04
646,-1.14,-3.20,-1.23,-3.29,3.29,2.98,2.15,2.06,2.06
652,-1.14,-3.22,-1.20,-3.28,3.28,2.96,2.14,2.08,2.08
659,-1.14,-3.24,-1.17,-3.27,3.27,2.95,2.13,2.10,2.10
665,-1.14,-3.26,-1.15,-3.27,3.27,2.93,2.13,2.12,2.12
672,-1.14,-3.28,-1.14,-3.28,3.28,2.92,2.14,2.14,2.14
679,-1.14,-3.30,-1.14,-3.30,3.30,2.91,2.16,2.16,2.16
686,-1.14,-3.32,-1.14,-3.31,3.31,2.90,2.17,2.18,2.18
692,-1.14,-3.34,-1.13,-3.33,3.33,2.90,2.19,2.20,2.20
699,-1.14,-3.36,-1.12,-3.34,3.34,2.90,2.20,2.22,2.22
706,-1.14,-3.38,-1.10,-3.34,3.34,2.90,2.20,2.24,2.24
713,-1.14,-3.40,-1.08,-3.33,3.33,2.90,2.19,2.26,2.26
721,-1.10,-3.38,-1.04,-3.32,3.32,2.90,2.22,2.28,2.28
728,-0.91,-3.21,-1.01,-3.31,3.31,2.91,2.40,2.30,2.30
735,-0.91,-3.23,-0.98,-3.30,3.30,2.92,2.39,2.32,2.32
742,-0.91,-3.25,-0.95,-3.28,3.28,2.93,2.37,2.34,2.34
750,-0.91,-3.27,-0.92,-3.27,3.27,2.94,2.36,2.36,2.36
757,-0.91,-3.29,-0.89,-3.27,3.27,2.96,2.36,2.38,2.38
765,-0.91,-3.31,-0.86,-3.26,3.26,2.98,2.35,2.40,2.40
773,-0.91,-3.33,-0.83,-3.25,3.25,3.00,2.34,2.42,2.42
780,-0.85,-3.28,-0.80,-3.24,3.24,3.02,2.39,2.43,2.43
788,-0.68,-3.13,-0.77,-3.22,3.22,3.04,2.54,2.45,2.45
796,-0.68,-3.15,-0.74,-3.21,3.21,3.06,2.53,2.47,2.47
804,-0.68,-3.16,-0.71,-3.20,3.20,3.09,2.52,2.48,2.48
812,-0.68,-3.18,-0.68,-3.18,3.18,3.11,2.50,2.50,2.50
820,-0.68,-3.19,-0.65,-3.16,3.16,3.14,2.48,2.51,2.51
828,-0.68,-3.20,-0.62,-3.15,3.15,3.16,2.47,2.52,2.52
837,-0.68,-3.21,-0.59,-3.13,3.13,3.19,2.45,2.53,2.53
845,-0.57,-3.11,-0.56,-3.11,3.11,3.22,2.54,2.54,2.54
853,-0.46,-3.01,-0.54,-3.09,3.09,3.24,2.63,2.55,2.55
862,-0.46,-3.02,-0.51,-3.07,3.07,3.27,2.61,2.56,2.56
871,-0.46,-3.03,-0.49,-3.06,3.06,3.30,2.60,2.57,2.57
879,-0.46,-3.04,-0.48,-3.05,3.05,3.32,2.59,2.58,2.58
888,-0.46,-3.04,-0.46,-3.04,3.04,3.34,2.58,2.58,2.58
897,-0.46,-3.05,-0.45,-3.04,3.04,3.36,2.58,2.59,2.59
906,-0.46,-3.05,-0.43,-3.02,3.02,3.37,2.56,2.59,2.59
915,-0.46,-3.06,-0.40,-3.00,3.00,3.38,2.54,2.60,2.60
924,-0.46,-3.06,-0.37,-2.98,2.98,3.39,2.52,2.61,2.60
933,-0.24,-2.85,-0.33,-2.94,2.94,3.40,2.70,2.61,2.61
943,-0.23,-2.85,-0.28,-2.90,2.90,3.39,2.67,2.62,2.62
952,-0.23,-2.85,-0.23,-2.85,2.85,3.39,2.62,2.63,2.62
962,-0.23,-2.86,-0.17,-2.80,2.80,3.38,2.57,2.63,2.63
971,-0.10,-2.74,-0.11,-2.75,2.75,3.36,2.65,2.64,2.64
981,0.00,-2.65,-0.05,-2.71,2.71,3.34,2.71,2.65,2.65
991,0.00,-2.66,-0.00,-2.66,2.66,3.32,2.66,2.66,2.66
1001,0.00,-2.68,0.05,-2.63,2.63,3.28,2.63,2.68,2.68
1011,0.05,-2.64,0.10,-2.59,2.59,3.24,2.64,2.69,2.69
1021,0.23,-2.47,0.14,-2.57,2.57,3.20,2.80,2.70,2.70
1031,0.23,-2.49,0.18,-2.54,2.54,3.15,2.77,2.72,2.72
1041,0.23,-2.51,0.21,-2.52,2.52,3.10,2.75,2.74,2.74
1052,0.23,-2.52,0.25,-2.50,2.50,3.03,2.73,2.75,2.75
1062,0.23,-2.54,0.30,-2.48,2.48,2.97,2.71,2.77,2.77
1073,0.25,-2.54,0.34,-2.45,2.45,2.89,2.70,2.79,2.79
1084,0.46,-2.36,0.39,-2.43,2.43,2.81,2.89,2.82,2.82
1094,0.46,-2.38,0.44,-2.39,2.39,2.74,2.85,2.84,2.84
1105,0.46,-2.40,0.50,-2.36,2.36,2.65,2.82,2.86,2.86
1116,0.60,-2.28,0.56,-2.33,2.33,2.56,2.93,2.88,2.88
1128,0.68,-2.23,0.62,-2.29,2.29,2.46,2.97,2.91,2.91
1139,0.68,-2.25,0.67,-2.26,2.26,2.36,2.94,2.93,2.93
1150,0.68,-2.27,0.73,-2.22,2.22,2.27,2.90,2.95,2.95
1162,0.75,-2.22,0.79,-2.18,2.18,2.16,2.93,2.97,2.97
1173,0.91,-2.09,0.85,-2.14,2.14,2.06,3.05,3.00,3.00
1185,0.91,-2.11,0.92,-2.10,2.10,1.95,3.01,3.01,3.02
1197,0.91,-2.12,0.99,-2.05,2.05,1.84,2.96,3.03,3.03
1209,1.11,-1.94,1.06,-1.99,1.99,1.73,3.10,3.05,3.05
1221,1.14,-1.92,1.13,-1.93,1.93,1.61,3.07,3.06,3.06
1233,1.17,-1.91,1.21,-1.87,1.87,1.50,3.04,3.08,3.08
1246,1.37,-1.72,1.28,-1.80,1.80,1.38,3.17,3.09,3.09
1258,1.37,-1.72,1.36,-1.73,1.73,1.27,3.10,3.09,3.09
1271,1.37,-1.73,1.44,-1.66,1.66,1.15,3.03,3.10,3.10
1283,1.54,-1.56,1.52,-1.58,1.58,1.04,3.12,3.10,3.10
1296,1.60,-1.50,1.61,-1.49,1.49,0.93,3.09,3.10,3.10
1309,1.61,-1.49,1.70,-1.40,1.40,0.81,3.01,3.10,3.10
1322,1.82,-1.27,1.79,-1.30,1.30,0.69,3.12,3.09,3.09
1335,1.90,-1.18,1.89,-1.20,1.20,0.58,3.10,3.08,3.08
1349,2.05,-1.02,1.98,-1.10,1.10,0.45,3.15,3.07,3.07
1362,2.05,-1.01,2.07,-0.99,0.99,0.34,3.04,3.06,3.06
1376,2.24,-0.81,2.16,-0.89,0.89,0.22,3.13,3.05,3.05
1390,2.28,-0.76,2.25,-0.79,0.79,0.10,3.07,3.04,3.04
1404,2.28,-0.74,2.35,-0.67,0.67,-0.02,2.95,3.02,3.02
1418,2.35,-0.66,2.45,-0.56,0.56,-0.14,2.91,3.01,3.01
1432,2.51,-0.49,2.57,-0.43,0.43,-0.25,2.94,3.00,3.00
1446,2.63,-0.35,2.68,-0.30,0.30,-0.37,2.93,2.98,2.98
1461,2.91,-0.06,2.80,-0.17,0.17,-0.49,3.08,2.97,2.97
1475,2.96,-0.00,2.93,-0.04,0.04,-0.60,3.00,2.96,2.96
1490,3.19,0.23,3.05,0.09,-0.09,-0.72,3.10,2.96,2.96
1505,3.19,0.24,3.17,0.22,-0.22,-0.84,2.97,2.95,2.95
1520,3.19,0.24,3.29,0.34,-0.34,-0.96,2.85,2.95,2.95
1535,3.29,0.34,3.41,0.45,-0.45,-1.08,2.84,2.95,2.95
1550,3.55,0.59,3.53,0.57,-0.57,-1.19,2.98,2.96,2.96
1566,3.65,0.68,3.65,0.68,-0.68,-1.32,2.97,2.97,2.97
1582,3.86,0.87,3.78,0.80,-0.80,-1.44,3.06,2.99,2.99
1597,3.88,0.87,3.92,0.91,-0.91,-1.55,2.97,3.01,3.01
1613,4.10,1.07,4.06,1.02,-1.02,-1.66,3.08,3.04,3.03
1629,4.18,1.11,4.20,1.14,-1.14,-1.78,3.04,3.07,3.07
1646,4.33,1.23,4.35,1.24,-1.24,-1.90,3.09,3.10,3.10
1662,4.48,1.33,4.49,1.34,-1.34,-2.01,3.14,3.15,3.15
1679,4.74,1.54,4.64,1.44,-1.44,-2.12,3.30,3.20,3.20
1696,4.79,1.54,4.79,1.54,-1.54,-2.24,3.25,3.25,3.25
1713,5.01,1.70,4.96,1.65,-1.65,-2.35,3.36,3.31,3.31
1730,5.08,1.70,5.14,1.76,-1.76,-2.45,3.32,3.38,3.38
1747,5.33,1.88,5.34,1.89,-1.89,-2.55,3.44,3.45,3.45
1764,5.59,2.07,5.57,2.05,-2.05,-2.65,3.54,3.52,3.52
1782,5.86,2.26,5.85,2.24,-2.24,-2.75,3.62,3.60,3.60
1800,6.12,2.43,6.16,2.48,-2.48,-2.84,3.64,3.69,3.69
1818,6.38,2.61,6.52,2.75,-2.75,-2.93,3.63,3.77,3.77
1836,6.77,2.91,6.91,3.05,-3.05,-3.02,3.72,3.86,3.86
1854,7.22,3.26,7.34,3.38,-3.38,-3.09,3.84,3.96,3.96
1873,7.84,3.78,7.78,3.72,-3.72,-3.17,4.12,4.05,4.06
