frequency,raw,smoothed,error,error_smoothed,equalization,parametric_eq,fixed_band_eq,equalized_raw,equalized_smoothed,target
20.00,7.81,7.81,1.70,1.70,-1.70,-0.52,-0.31,6.11,6.11,6.11
20.20,7.78,7.78,1.67,1.67,-1.67,-0.52,-0.32,6.11,6.11,6.11
20.40,7.75,7.75,1.64,1.64,-1.64,-0.52,-0.33,6.11,6.11,6.11
20.61,7.71,7.71,1.60,1.61,-1.60,-0.51,-0.34,6.11,6.11,6.11
20.81,7.68,7.68,1.57,1.57,-1.57,-0.51,-0.35,6.11,6.11,6.11
21.02,7.65,7.64,1.54,1.54,-1.54,-0.51,-0.36,6.11,6.11,6.11
21.23,7.61,7.61,1.50,1.51,-1.51,-0.51,-0.38,6.10,6.11,6.11
21.44,7.58,7.58,1.47,1.47,-1.47,-0.51,-0.39,6.10,6.10,6.10
21.66,7.55,7.54,1.45,1.44,-1.44,-0.51,-0.40,6.11,6.10,6.10
21.87,7.51,7.51,1.41,1.41,-1.41,-0.51,-0.41,6.10,6.10,6.10
22.09,7.48,7.48,1.38,1.38,-1.38,-0.51,-0.42,6.10,6.10,6.10
22.31,7.45,7.45,1.35,1.35,-1.35,-0.51,-0.44,6.10,6.10,6.10
22.54,7.42,7.42,1.32,1.32,-1.32,-0.51,-0.45,6.10,6.10,6.10
22.76,7.39,7.39,1.29,1.29,-1.28,-0.51,-0.46,6.10,6.10,6.10
22.99,7.35,7.35,1.25,1.25,-1.25,-0.51,-0.48,6.09,6.10,6.10
23.22,7.32,7.32,1.22,1.22,-1.22,-0.51,-0.49,6.10,6.10,6.10
23.45,7.29,7.29,1.19,1.19,-1.19,-0.51,-0.50,6.10,6.10,6.10
23.69,7.26,7.26,1.16,1.16,-1.16,-0.51,-0.52,6.10,6.10,6.10
23.92,7.23,7.22,1.13,1.13,-1.13,-0.51,-0.53,6.10,6.10,6.09
24.16,7.19,7.19,1.10,1.10,-1.10,-0.51,-0.55,6.09,6.09,6.09
24.40,7.16,7.16,1.07,1.07,-1.07,-0.51,-0.56,6.09,6.09,6.09
24.65,7.13,7.13,1.04,1.04,-1.04,-0.50,-0.58,6.09,6.09,6.09
24.89,7.10,7.10,1.01,1.01,-1.01,-0.50,-0.59,6.09,6.09,6.09
25.14,7.07,7.07,0.98,0.98,-0.98,-0.50,-0.61,6.09,6.09,6.09
25.39,7.04,7.04,0.95,0.96,-0.96,-0.50,-0.62,6.08,6.09,6.09
25.65,7.02,7.01,0.93,0.93,-0.93,-0.50,-0.64,6.09,6.08,6.08
25.91,6.99,6.99,0.91,0.91,-0.90,-0.50,-0.65,6.09,6.08,6.08
26.16,6.96,6.96,0.88,0.88,-0.88,-0.50,-0.67,6.08,6.08,6.08
26.43,6.94,6.93,0.86,0.85,-0.85,-0.50,-0.69,6.08,6.08,6.08
26.69,6.91,6.91,0.83,0.83,-0.83,-0.50,-0.70,6.08,6.08,6.08
26.96,6.88,6.88,0.80,0.81,-0.81,-0.50,-0.72,6.07,6.08,6.08
27.23,6.86,6.85,0.78,0.78,-0.78,-0.49,-0.73,6.08,6.07,6.07
27.50,6.83,6.83,0.76,0.76,-0.76,-0.49,-0.74,6.07,6.07,6.07
27.77,6.81,6.81,0.74,0.74,-0.74,-0.49,-0.76,6.07,6.07,6.07
28.05,6.79,6.78,0.72,0.71,-0.72,-0.49,-0.77,6.07,6.07,6.07
28.33,6.76,6.76,0.69,0.69,-0.69,-0.49,-0.78,6.06,6.07,6.07
28.62,6.74,6.74,0.67,0.67,-0.68,-0.49,-0.79,6.06,6.06,6.06
28.90,6.72,6.72,0.66,0.65,-0.66,-0.49,-0.80,6.06,6.06,6.06
29.19,6.70,6.70,0.64,0.64,-0.64,-0.48,-0.81,6.06,6.06,6.06
29.48,6.68,6.68,0.62,0.62,-0.62,-0.48,-0.82,6.06,6.06,6.06
29.78,6.66,6.66,0.60,0.60,-0.60,-0.48,-0.83,6.06,6.06,6.06
30.08,6.64,6.64,0.59,0.59,-0.59,-0.48,-0.83,6.05,6.05,6.05
30.38,6.62,6.62,0.57,0.57,-0.57,-0.48,-0.84,6.05,6.05,6.05
30.68,6.60,6.60,0.55,0.55,-0.55,-0.48,-0.84,6.05,6.05,6.05
30.99,6.58,6.58,0.53,0.53,-0.53,-0.47,-0.84,6.04,6.04,6.04
31.30,6.56,6.56,0.52,0.52,-0.52,-0.47,-0.84,6.04,6.04,6.04
31.61,6.54,6.54,0.50,0.50,-0.50,-0.47,-0.84,6.04,6.04,6.04
31.93,6.52,6.52,0.48,0.48,-0.48,-0.47,-0.84,6.04,6.04,6.03
32.24,6.50,6.50,0.47,0.47,-0.47,-0.46,-0.84,6.03,6.03,6.03
32.57,6.48,6.48,0.45,0.45,-0.45,-0.46,-0.84,6.03,6.03,6.03
32.89,6.46,6.46,0.43,0.43,-0.43,-0.46,-0.83,6.02,6.02,6.02
33.22,6.44,6.44,0.42,0.42,-0.42,-0.45,-0.82,6.02,6.02,6.02
33.55,6.42,6.42,0.40,0.41,-0.41,-0.45,-0.82,6.01,6.02,6.02
33.89,6.41,6.40,0.40,0.39,-0.39,-0.45,-0.81,6.02,6.01,6.01
34.23,6.39,6.39,0.38,0.38,-0.38,-0.44,-0.80,6.01,6.01,6.01
34.57,6.37,6.37,0.36,0.37,-0.37,-0.44,-0.79,6.00,6.00,6.00
34.92,6.36,6.36,0.36,0.36,-0.36,-0.44,-0.78,6.00,6.00,6.00
35.27,6.35,6.35,0.35,0.35,-0.35,-0.43,-0.77,6.00,6.00,5.99
35.62,6.33,6.33,0.34,0.34,-0.34,-0.43,-0.75,5.99,5.99,5.99
35.97,6.32,6.32,0.33,0.33,-0.33,-0.42,-0.74,5.99,5.98,5.98
36.33,6.30,6.30,0.32,0.32,-0.32,-0.42,-0.73,5.98,5.98,5.98
36.70,6.29,6.29,0.31,0.31,-0.31,-0.42,-0.72,5.97,5.97,5.97
37.06,6.28,6.27,0.31,0.31,-0.31,-0.41,-0.70,5.97,5.97,5.97
37.43,6.26,6.26,0.30,0.30,-0.30,-0.41,-0.69,5.96,5.96,5.96
37.81,6.25,6.25,0.29,0.29,-0.29,-0.40,-0.67,5.96,5.96,5.96
38.19,6.23,6.23,0.28,0.28,-0.28,-0.39,-0.66,5.95,5.95,5.95
38.57,6.22,6.22,0.28,0.27,-0.28,-0.39,-0.64,5.94,5.94,5.94
38.95,6.21,6.20,0.27,0.27,-0.27,-0.38,-0.63,5.94,5.93,5.94
39.34,6.19,6.19,0.26,0.26,-0.26,-0.38,-0.62,5.93,5.93,5.93
39.74,6.18,6.18,0.26,0.26,-0.26,-0.37,-0.60,5.92,5.92,5.92
40.14,6.17,6.17,0.25,0.25,-0.25,-0.36,-0.59,5.92,5.92,5.91
40.54,6.16,6.16,0.25,0.25,-0.25,-0.35,-0.57,5.91,5.91,5.91
40.94,6.15,6.14,0.25,0.25,-0.25,-0.35,-0.56,5.90,5.90,5.90
41.35,6.13,6.13,0.24,0.24,-0.24,-0.34,-0.55,5.89,5.89,5.89
41.76,6.12,6.12,0.24,0.24,-0.24,-0.33,-0.53,5.88,5.88,5.88
42.18,6.11,6.11,0.24,0.23,-0.24,-0.32,-0.52,5.87,5.87,5.87
42.60,6.10,6.10,0.24,0.24,-0.23,-0.32,-0.51,5.86,5.86,5.86
43.03,6.09,6.09,0.24,0.23,-0.23,-0.31,-0.50,5.86,5.86,5.85
43.46,6.08,6.07,0.24,0.23,-0.23,-0.30,-0.48,5.85,5.84,5.84
43.90,6.06,6.06,0.23,0.23,-0.23,-0.29,-0.47,5.83,5.83,5.83
44.33,6.05,6.05,0.23,0.23,-0.23,-0.28,-0.46,5.82,5.82,5.82
44.78,6.04,6.03,0.23,0.22,-0.23,-0.28,-0.45,5.81,5.81,5.81
45.23,6.02,6.02,0.22,0.22,-0.22,-0.27,-0.44,5.79,5.80,5.80
45.68,6.01,6.01,0.22,0.22,-0.22,-0.26,-0.43,5.79,5.79,5.79
46.13,6.00,5.99,0.22,0.22,-0.22,-0.26,-0.42,5.78,5.77,5.77
46.60,5.98,5.98,0.22,0.22,-0.22,-0.25,-0.41,5.76,5.76,5.76
47.06,5.97,5.97,0.22,0.22,-0.22,-0.24,-0.40,5.75,5.75,5.75
47.53,5.95,5.95,0.21,0.21,-0.21,-0.24,-0.39,5.74,5.74,5.73
48.01,5.93,5.93,0.21,0.21,-0.21,-0.23,-0.39,5.72,5.72,5.72
48.49,5.91,5.91,0.20,0.20,-0.21,-0.23,-0.38,5.70,5.70,5.71
48.97,5.89,5.89,0.20,0.20,-0.20,-0.23,-0.37,5.69,5.69,5.69
49.46,5.88,5.87,0.20,0.20,-0.20,-0.22,-0.36,5.68,5.67,5.67
49.96,5.85,5.85,0.19,0.19,-0.19,-0.22,-0.36,5.66,5.66,5.66
50.46,5.83,5.83,0.19,0.19,-0.19,-0.22,-0.35,5.64,5.64,5.64
50.96,5.81,5.81,0.18,0.18,-0.18,-0.22,-0.34,5.62,5.62,5.62
51.47,5.79,5.79,0.18,0.18,-0.18,-0.22,-0.34,5.61,5.60,5.61
51.99,5.76,5.76,0.17,0.18,-0.18,-0.23,-0.33,5.58,5.59,5.59
52.51,5.74,5.74,0.17,0.17,-0.17,-0.23,-0.33,5.57,5.57,5.57
53.03,5.72,5.72,0.17,0.17,-0.17,-0.24,-0.32,5.55,5.55,5.55
53.56,5.69,5.69,0.16,0.16,-0.16,-0.24,-0.32,5.53,5.53,5.53
54.10,5.67,5.67,0.16,0.16,-0.16,-0.25,-0.32,5.51,5.51,5.51
54.64,5.64,5.64,0.15,0.16,-0.16,-0.26,-0.31,5.48,5.48,5.48
55.18,5.62,5.62,0.16,0.15,-0.16,-0.26,-0.31,5.46,5.46,5.46
55.74,5.59,5.59,0.15,0.15,-0.15,-0.27,-0.31,5.43,5.44,5.44
56.29,5.57,5.57,0.15,0.16,-0.16,-0.28,-0.31,5.41,5.41,5.41
56.86,5.55,5.55,0.16,0.16,-0.16,-0.29,-0.30,5.39,5.39,5.39
57.42,5.53,5.53,0.17,0.17,-0.16,-0.30,-0.30,5.37,5.37,5.36
58.00,5.51,5.51,0.17,0.17,-0.17,-0.31,-0.30,5.34,5.34,5.34
58.58,5.49,5.49,0.18,0.18,-0.18,-0.32,-0.30,5.31,5.31,5.31
59.16,5.47,5.47,0.19,0.19,-0.19,-0.33,-0.30,5.28,5.28,5.28
59.76,5.46,5.46,0.21,0.21,-0.21,-0.34,-0.30,5.25,5.25,5.25
60.35,5.45,5.45,0.23,0.23,-0.23,-0.36,-0.31,5.22,5.22,5.22
60.96,5.45,5.44,0.26,0.25,-0.25,-0.37,-0.31,5.19,5.19,5.19
61.57,5.44,5.44,0.28,0.28,-0.28,-0.38,-0.31,5.16,5.16,5.16
62.18,5.44,5.44,0.31,0.31,-0.31,-0.39,-0.31,5.13,5.13,5.13
62.80,5.44,5.44,0.34,0.34,-0.34,-0.40,-0.32,5.09,5.09,5.09
63.43,5.44,5.44,0.38,0.38,-0.38,-0.41,-0.32,5.06,5.06,5.06
64.07,5.44,5.44,0.41,0.41,-0.41,-0.42,-0.33,5.02,5.03,5.03
64.71,5.44,5.44,0.45,0.45,-0.45,-0.43,-0.33,4.99,4.99,4.99
65.35,5.44,5.44,0.49,0.48,-0.48,-0.44,-0.34,4.96,4.95,4.95
66.01,5.43,5.43,0.51,0.52,-0.51,-0.45,-0.34,4.91,4.92,4.91
66.67,5.42,5.42,0.54,0.55,-0.54,-0.46,-0.35,4.88,4.88,4.88
67.33,5.41,5.41,0.57,0.57,-0.57,-0.47,-0.36,4.84,4.84,4.84
68.01,5.39,5.39,0.59,0.59,-0.59,-0.48,-0.37,4.80,4.80,4.79
68.69,5.36,5.36,0.61,0.61,-0.61,-0.49,-0.38,4.75,4.75,4.75
69.37,5.34,5.33,0.63,0.62,-0.62,-0.50,-0.39,4.71,4.71,4.71
70.07,5.30,5.30,0.63,0.64,-0.64,-0.51,-0.40,4.66,4.66,4.67
70.77,5.27,5.27,0.65,0.65,-0.65,-0.52,-0.41,4.62,4.62,4.62
71.48,5.23,5.23,0.65,0.65,-0.66,-0.53,-0.42,4.57,4.57,4.57
72.19,5.19,5.19,0.66,0.66,-0.66,-0.54,-0.43,4.52,4.53,4.53
72.91,5.15,5.15,0.67,0.67,-0.67,-0.55,-0.44,4.48,4.48,4.48
73.64,5.11,5.11,0.68,0.68,-0.67,-0.56,-0.45,4.43,4.43,4.43
74.38,5.06,5.06,0.68,0.68,-0.68,-0.57,-0.47,4.38,4.38,4.38
75.12,5.01,5.01,0.68,0.68,-0.68,-0.58,-0.48,4.33,4.33,4.33
75.87,4.96,4.96,0.68,0.68,-0.68,-0.59,-0.50,4.27,4.27,4.28
76.63,4.91,4.91,0.69,0.69,-0.69,-0.60,-0.51,4.22,4.22,4.22
77.40,4.86,4.86,0.69,0.69,-0.69,-0.61,-0.53,4.17,4.16,4.17
78.17,4.81,4.81,0.70,0.70,-0.70,-0.62,-0.54,4.11,4.11,4.11
78.95,4.76,4.76,0.70,0.71,-0.71,-0.63,-0.56,4.05,4.06,4.06
79.74,4.72,4.71,0.72,0.72,-0.71,-0.64,-0.58,4.00,4.00,4.00
80.54,4.67,4.67,0.73,0.73,-0.72,-0.65,-0.59,3.94,3.94,3.94
81.35,4.62,4.62,0.74,0.74,-0.74,-0.66,-0.61,3.88,3.88,3.88
82.16,4.57,4.57,0.75,0.75,-0.75,-0.67,-0.63,3.82,3.82,3.82
82.98,4.52,4.52,0.76,0.76,-0.76,-0.68,-0.65,3.76,3.76,3.76
83.81,4.48,4.47,0.78,0.78,-0.78,-0.70,-0.67,3.70,3.70,3.70
84.65,4.43,4.43,0.79,0.79,-0.79,-0.71,-0.69,3.64,3.63,3.64
85.50,4.38,4.38,0.81,0.81,-0.81,-0.72,-0.71,3.57,3.57,3.57
86.35,4.33,4.33,0.82,0.82,-0.82,-0.73,-0.74,3.50,3.51,3.51
87.22,4.29,4.29,0.85,0.84,-0.84,-0.75,-0.76,3.45,3.44,3.44
88.09,4.24,4.24,0.86,0.86,-0.86,-0.76,-0.78,3.38,3.38,3.38
88.97,4.19,4.19,0.88,0.88,-0.88,-0.78,-0.81,3.31,3.31,3.31
89.86,4.14,4.14,0.90,0.90,-0.90,-0.79,-0.83,3.24,3.24,3.24
90.76,4.09,4.09,0.91,0.91,-0.91,-0.81,-0.86,3.17,3.17,3.17
91.66,4.04,4.04,0.93,0.93,-0.93,-0.82,-0.88,3.10,3.10,3.11
92.58,3.99,3.99,0.95,0.95,-0.95,-0.84,-0.91,3.03,3.03,3.04
93.51,3.94,3.94,0.97,0.97,-0.97,-0.86,-0.94,2.96,2.96,2.97
94.44,3.89,3.89,0.99,1.00,-1.00,-0.87,-0.96,2.89,2.90,2.90
95.39,3.85,3.84,1.02,1.02,-1.02,-0.89,-0.99,2.83,2.83,2.83
96.34,3.80,3.80,1.04,1.04,-1.04,-0.91,-1.02,2.76,2.76,2.75
97.30,3.75,3.75,1.07,1.07,-1.06,-0.93,-1.05,2.68,2.69,2.68
98.28,3.70,3.70,1.09,1.09,-1.09,-0.95,-1.08,2.61,2.61,2.61
99.26,3.65,3.65,1.11,1.11,-1.11,-0.98,-1.11,2.54,2.54,2.54
100.25,3.60,3.60,1.13,1.13,-1.14,-1.00,-1.14,2.46,2.46,2.47
101.25,3.55,3.55,1.15,1.16,-1.16,-1.02,-1.17,2.39,2.39,2.39
102.27,3.51,3.50,1.19,1.18,-1.18,-1.05,-1.20,2.32,2.32,2.32
103.29,3.46,3.46,1.21,1.21,-1.21,-1.07,-1.23,2.25,2.25,2.25
104.32,3.41,3.41,1.23,1.23,-1.23,-1.10,-1.26,2.18,2.18,2.17
105.37,3.36,3.36,1.26,1.26,-1.26,-1.12,-1.29,2.10,2.10,2.10
106.42,3.31,3.31,1.28,1.28,-1.28,-1.15,-1.31,2.03,2.03,2.03
107.48,3.26,3.25,1.30,1.30,-1.30,-1.18,-1.34,1.96,1.96,1.96
108.56,3.20,3.20,1.32,1.32,-1.32,-1.20,-1.37,1.88,1.88,1.88
109.64,3.15,3.15,1.34,1.34,-1.34,-1.23,-1.40,1.81,1.81,1.81
110.74,3.10,3.10,1.36,1.36,-1.36,-1.26,-1.42,1.74,1.74,1.74
111.85,3.05,3.05,1.38,1.38,-1.38,-1.29,-1.45,1.67,1.67,1.67
112.97,3.00,3.00,1.41,1.40,-1.40,-1.32,-1.47,1.60,1.59,1.59
114.10,2.94,2.94,1.42,1.42,-1.42,-1.35,-1.49,1.52,1.52,1.52
115.24,2.89,2.89,1.44,1.44,-1.44,-1.38,-1.51,1.45,1.45,1.45
116.39,2.84,2.83,1.46,1.45,-1.45,-1.40,-1.53,1.38,1.38,1.38
117.55,2.78,2.78,1.47,1.47,-1.47,-1.43,-1.55,1.31,1.31,1.31
118.73,2.72,2.72,1.48,1.48,-1.48,-1.46,-1.56,1.23,1.24,1.24
119.92,2.67,2.67,1.50,1.50,-1.50,-1.48,-1.57,1.17,1.17,1.17
121.12,2.61,2.61,1.51,1.51,-1.51,-1.51,-1.58,1.10,1.10,1.10
122.33,2.55,2.55,1.52,1.52,-1.52,-1.53,-1.59,1.03,1.03,1.03
123.55,2.49,2.49,1.52,1.53,-1.53,-1.55,-1.59,0.96,0.97,0.97
124.79,2.44,2.43,1.54,1.54,-1.54,-1.56,-1.60,0.90,0.90,0.90
126.03,2.38,2.37,1.55,1.54,-1.54,-1.58,-1.60,0.84,0.83,0.83
127.29,2.31,2.31,1.54,1.55,-1.55,-1.59,-1.59,0.76,0.77,0.77
128.57,2.25,2.25,1.55,1.55,-1.55,-1.60,-1.59,0.70,0.70,0.70
129.85,2.19,2.18,1.55,1.55,-1.55,-1.60,-1.58,0.64,0.64,0.64
131.15,2.12,2.12,1.54,1.55,-1.55,-1.61,-1.57,0.57,0.58,0.58
132.46,2.06,2.06,1.55,1.54,-1.54,-1.61,-1.56,0.52,0.51,0.51
133.79,1.99,1.99,1.54,1.54,-1.54,-1.60,-1.55,0.45,0.45,0.45
135.12,1.92,1.92,1.53,1.53,-1.53,-1.59,-1.53,0.39,0.39,0.39
136.48,1.85,1.85,1.52,1.52,-1.52,-1.59,-1.51,0.33,0.33,0.33
137.84,1.78,1.78,1.51,1.51,-1.51,-1.57,-1.49,0.27,0.27,0.27
139.22,1.71,1.71,1.49,1.49,-1.50,-1.55,-1.47,0.21,0.21,0.22
140.61,1.64,1.64,1.48,1.48,-1.48,-1.53,-1.45,0.16,0.16,0.16
142.02,1.57,1.57,1.47,1.47,-1.47,-1.51,-1.43,0.10,0.10,0.10
143.44,1.50,1.50,1.45,1.45,-1.45,-1.48,-1.40,0.05,0.05,0.05
144.87,1.43,1.43,1.43,1.43,-1.43,-1.46,-1.38,0.00,0.00,-0.00
146.32,1.35,1.35,1.41,1.41,-1.40,-1.43,-1.35,-0.05,-0.05,-0.06
147.78,1.28,1.28,1.38,1.38,-1.38,-1.39,-1.32,-0.10,-0.10,-0.10
149.26,1.20,1.20,1.35,1.35,-1.35,-1.36,-1.29,-0.15,-0.15,-0.15
150.75,1.12,1.12,1.32,1.32,-1.32,-1.33,-1.27,-0.20,-0.20,-0.20
152.26,1.04,1.04,1.29,1.29,-1.29,-1.29,-1.24,-0.25,-0.25,-0.25
153.78,0.96,0.96,1.25,1.26,-1.26,-1.25,-1.21,-0.30,-0.30,-0.30
155.32,0.89,0.88,1.23,1.23,-1.23,-1.21,-1.19,-0.34,-0.34,-0.34
156.88,0.81,0.81,1.20,1.19,-1.19,-1.18,-1.16,-0.39,-0.39,-0.39
158.44,0.73,0.73,1.16,1.16,-1.16,-1.14,-1.13,-0.43,-0.43,-0.43
160.03,0.65,0.65,1.12,1.13,-1.13,-1.10,-1.10,-0.48,-0.48,-0.47
161.63,0.57,0.57,1.10,1.09,-1.09,-1.06,-1.08,-0.52,-0.52,-0.53
163.24,0.49,0.49,1.06,1.06,-1.05,-1.03,-1.05,-0.57,-0.57,-0.57
164.88,0.41,0.41,1.02,1.02,-1.02,-0.99,-1.03,-0.61,-0.61,-0.61
166.53,0.33,0.33,0.98,0.98,-0.98,-0.95,-1.00,-0.65,-0.65,-0.65
168.19,0.25,0.25,0.93,0.94,-0.94,-0.92,-0.98,-0.69,-0.69,-0.69
169.87,0.18,0.17,0.90,0.90,-0.90,-0.88,-0.96,-0.72,-0.72,-0.72
171.57,0.10,0.10,0.86,0.86,-0.86,-0.85,-0.93,-0.76,-0.76,-0.76
173.29,0.02,0.02,0.81,0.82,-0.82,-0.81,-0.91,-0.80,-0.80,-0.80
175.02,-0.05,-0.05,0.78,0.78,-0.78,-0.78,-0.89,-0.83,-0.83,-0.83
176.77,-0.12,-0.12,0.74,0.74,-0.74,-0.75,-0.87,-0.86,-0.86,-0.86
178.54,-0.19,-0.20,0.70,0.70,-0.70,-0.72,-0.85,-0.89,-0.90,-0.90
180.32,-0.27,-0.27,0.66,0.66,-0.66,-0.69,-0.83,-0.93,-0.93,-0.93
182.13,-0.34,-0.34,0.62,0.62,-0.62,-0.66,-0.81,-0.96,-0.96,-0.96
183.95,-0.40,-0.41,0.59,0.58,-0.58,-0.63,-0.79,-0.98,-0.99,-0.99
185.79,-0.47,-0.47,0.55,0.55,-0.55,-0.60,-0.78,-1.02,-1.02,-1.02
187.65,-0.54,-0.54,0.51,0.51,-0.51,-0.57,-0.76,-1.05,-1.05,-1.05
189.52,-0.60,-0.60,0.47,0.47,-0.47,-0.55,-0.75,-1.07,-1.07,-1.07
191.42,-0.66,-0.66,0.44,0.44,-0.44,-0.52,-0.73,-1.10,-1.10,-1.10
193.33,-0.72,-0.72,0.40,0.40,-0.40,-0.50,-0.72,-1.13,-1.13,-1.13
195.27,-0.78,-0.78,0.37,0.37,-0.37,-0.47,-0.70,-1.16,-1.15,-1.15
197.22,-0.83,-0.83,0.34,0.34,-0.34,-0.45,-0.69,-1.18,-1.18,-1.18
199.19,-0.88,-0.88,0.32,0.32,-0.32,-0.43,-0.68,-1.20,-1.20,-1.20
201.18,-0.93,-0.93,0.29,0.29,-0.29,-0.40,-0.66,-1.22,-1.22,-1.22
203.19,-0.97,-0.98,0.27,0.27,-0.27,-0.38,-0.65,-1.24,-1.25,-1.24
205.23,-1.02,-1.02,0.24,0.25,-0.25,-0.36,-0.64,-1.27,-1.27,-1.27
207.28,-1.06,-1.06,0.23,0.23,-0.23,-0.34,-0.63,-1.29,-1.29,-1.29
209.35,-1.09,-1.10,0.22,0.21,-0.21,-0.32,-0.61,-1.30,-1.31,-1.31
211.44,-1.13,-1.13,0.19,0.20,-0.20,-0.30,-0.60,-1.33,-1.33,-1.33
213.56,-1.16,-1.16,0.18,0.18,-0.18,-0.28,-0.59,-1.34,-1.34,-1.35
215.69,-1.19,-1.19,0.17,0.17,-0.17,-0.26,-0.58,-1.36,-1.36,-1.36
217.85,-1.22,-1.22,0.16,0.16,-0.16,-0.25,-0.57,-1.38,-1.38,-1.38
220.03,-1.25,-1.25,0.15,0.15,-0.15,-0.23,-0.56,-1.40,-1.40,-1.40
222.23,-1.27,-1.27,0.14,0.14,-0.14,-0.21,-0.54,-1.41,-1.41,-1.41
224.45,-1.30,-1.30,0.13,0.13,-0.13,-0.19,-0.53,-1.43,-1.43,-1.43
226.70,-1.32,-1.32,0.12,0.12,-0.12,-0.18,-0.52,-1.44,-1.45,-1.45
228.96,-1.35,-1.35,0.11,0.11,-0.12,-0.16,-0.50,-1.47,-1.46,-1.46
231.25,-1.36,-1.37,0.11,0.11,-0.11,-0.14,-0.49,-1.48,-1.48,-1.48
233.57,-1.38,-1.38,0.11,0.11,-0.11,-0.13,-0.47,-1.49,-1.49,-1.49
235.90,-1.40,-1.40,0.11,0.11,-0.11,-0.11,-0.45,-1.51,-1.51,-1.51
238.26,-1.41,-1.42,0.11,0.11,-0.11,-0.10,-0.44,-1.52,-1.52,-1.53
240.64,-1.43,-1.43,0.11,0.11,-0.11,-0.08,-0.42,-1.54,-1.54,-1.54
243.05,-1.44,-1.44,0.11,0.11,-0.11,-0.06,-0.40,-1.55,-1.55,-1.55
245.48,-1.45,-1.45,0.11,0.11,-0.11,-0.05,-0.38,-1.56,-1.56,-1.56
247.93,-1.46,-1.46,0.11,0.11,-0.11,-0.03,-0.36,-1.57,-1.57,-1.57
250.41,-1.47,-1.47,0.11,0.11,-0.11,-0.02,-0.33,-1.58,-1.58,-1.58
252.92,-1.48,-1.48,0.11,0.11,-0.11,-0.00,-0.31,-1.59,-1.59,-1.60
255.45,-1.49,-1.49,0.10,0.11,-0.11,0.01,-0.28,-1.60,-1.60,-1.60
258.00,-1.50,-1.50,0.10,0.11,-0.11,0.03,-0.26,-1.61,-1.61,-1.61
260.58,-1.50,-1.51,0.11,0.11,-0.11,0.04,-0.23,-1.61,-1.62,-1.62
263.19,-1.51,-1.51,0.11,0.11,-0.11,0.06,-0.20,-1.62,-1.62,-1.62
265.82,-1.52,-1.52,0.11,0.11,-0.11,0.07,-0.17,-1.63,-1.63,-1.63
268.48,-1.53,-1.53,0.11,0.11,-0.11,0.09,-0.14,-1.65,-1.64,-1.64
271.16,-1.53,-1.54,0.12,0.11,-0.12,0.11,-0.11,-1.65,-1.65,-1.65
273.87,-1.54,-1.54,0.12,0.12,-0.12,0.12,-0.07,-1.66,-1.66,-1.66
276.61,-1.55,-1.55,0.11,0.12,-0.12,0.14,-0.04,-1.67,-1.66,-1.67
279.38,-1.55,-1.56,0.12,0.12,-0.11,0.16,-0.00,-1.67,-1.67,-1.67
282.17,-1.56,-1.56,0.12,0.11,-0.11,0.17,0.04,-1.67,-1.68,-1.68
284.99,-1.57,-1.57,0.11,0.11,-0.11,0.19,0.07,-1.68,-1.68,-1.68
287.84,-1.58,-1.58,0.09,0.10,-0.10,0.21,0.11,-1.68,-1.68,-1.67
290.72,-1.58,-1.59,0.10,0.09,-0.10,0.23,0.15,-1.68,-1.68,-1.68
293.63,-1.59,-1.59,0.09,0.09,-0.09,0.25,0.20,-1.68,-1.68,-1.69
296.57,-1.60,-1.60,0.08,0.08,-0.08,0.27,0.24,-1.68,-1.68,-1.68
299.53,-1.61,-1.62,0.07,0.07,-0.07,0.29,0.28,-1.68,-1.68,-1.68
302.53,-1.63,-1.63,0.05,0.05,-0.06,0.31,0.32,-1.69,-1.68,-1.68
305.55,-1.64,-1.64,0.04,0.04,-0.04,0.33,0.37,-1.68,-1.68,-1.68
308.61,-1.65,-1.66,0.03,0.03,-0.03,0.35,0.42,-1.68,-1.68,-1.68
311.69,-1.67,-1.67,0.01,0.01,-0.01,0.37,0.46,-1.68,-1.68,-1.68
314.81,-1.68,-1.68,0.00,-0.00,0.00,0.40,0.51,-1.68,-1.68,-1.68
317.96,-1.70,-1.70,-0.02,-0.02,0.02,0.42,0.56,-1.68,-1.68,-1.68
321.14,-1.72,-1.72,-0.04,-0.04,0.04,0.44,0.61,-1.68,-1.68,-1.68
324.35,-1.74,-1.74,-0.07,-0.07,0.07,0.47,0.66,-1.67,-1.67,-1.68
327.59,-1.76,-1.76,-0.10,-0.10,0.09,0.50,0.71,-1.67,-1.67,-1.66
330.87,-1.79,-1.79,-0.13,-0.12,0.12,0.53,0.76,-1.67,-1.66,-1.66
334.18,-1.81,-1.81,-0.15,-0.15,0.15,0.56,0.81,-1.66,-1.66,-1.66
337.52,-1.84,-1.84,-0.18,-0.18,0.19,0.59,0.87,-1.65,-1.66,-1.66
340.90,-1.88,-1.88,-0.23,-0.22,0.22,0.62,0.92,-1.66,-1.65,-1.66
344.30,-1.91,-1.91,-0.26,-0.26,0.26,0.65,0.98,-1.65,-1.65,-1.65
347.75,-1.95,-1.95,-0.31,-0.31,0.30,0.69,1.03,-1.65,-1.65,-1.64
351.23,-1.99,-1.99,-0.35,-0.35,0.35,0.72,1.09,-1.64,-1.64,-1.65
354.74,-2.03,-2.03,-0.40,-0.40,0.40,0.76,1.15,-1.64,-1.64,-1.63
358.28,-2.07,-2.08,-0.44,-0.45,0.45,0.80,1.21,-1.62,-1.63,-1.63
361.87,-2.13,-2.13,-0.51,-0.50,0.50,0.84,1.27,-1.63,-1.62,-1.62
365.49,-2.18,-2.18,-0.56,-0.56,0.56,0.89,1.33,-1.62,-1.62,-1.62
369.14,-2.24,-2.25,-0.62,-0.63,0.63,0.94,1.39,-1.61,-1.62,-1.62
372.83,-2.31,-2.31,-0.71,-0.70,0.70,0.98,1.46,-1.61,-1.61,-1.60
376.56,-2.38,-2.38,-0.78,-0.78,0.78,1.04,1.52,-1.60,-1.60,-1.60
380.33,-2.45,-2.46,-0.85,-0.86,0.86,1.09,1.58,-1.59,-1.59,-1.60
384.13,-2.54,-2.54,-0.94,-0.94,0.95,1.15,1.65,-1.59,-1.59,-1.60
387.97,-2.62,-2.62,-1.04,-1.04,1.04,1.21,1.71,-1.58,-1.58,-1.58
391.85,-2.71,-2.72,-1.15,-1.14,1.14,1.27,1.78,-1.57,-1.58,-1.56
395.77,-2.81,-2.81,-1.25,-1.25,1.24,1.33,1.85,-1.57,-1.57,-1.57
399.73,-2.91,-2.91,-1.35,-1.35,1.34,1.40,1.91,-1.57,-1.56,-1.56
403.72,-3.00,-3.01,-1.45,-1.45,1.45,1.47,1.98,-1.55,-1.56,-1.55
407.76,-3.10,-3.10,-1.55,-1.56,1.56,1.55,2.04,-1.55,-1.55,-1.55
411.84,-3.21,-3.21,-1.67,-1.66,1.67,1.63,2.11,-1.55,-1.54,-1.54
415.96,-3.31,-3.31,-1.78,-1.77,1.78,1.71,2.18,-1.53,-1.54,-1.54
420.12,-3.42,-3.42,-1.88,-1.89,1.89,1.79,2.24,-1.53,-1.53,-1.54
424.32,-3.53,-3.53,-2.00,-2.01,2.01,1.88,2.30,-1.52,-1.52,-1.53
428.56,-3.65,-3.65,-2.13,-2.13,2.13,1.97,2.37,-1.52,-1.52,-1.52
432.85,-3.76,-3.76,-2.25,-2.25,2.26,2.07,2.43,-1.50,-1.51,-1.51
437.18,-3.88,-3.88,-2.38,-2.38,2.39,2.16,2.48,-1.50,-1.50,-1.50
441.55,-4.00,-4.00,-2.51,-2.51,2.51,2.26,2.54,-1.49,-1.49,-1.49
445.96,-4.12,-4.12,-2.64,-2.64,2.64,2.36,2.59,-1.48,-1.48,-1.49
450.42,-4.23,-4.23,-2.77,-2.76,2.76,2.45,2.64,-1.47,-1.47,-1.47
454.93,-4.34,-4.34,-2.88,-2.88,2.88,2.55,2.69,-1.47,-1.47,-1.46
459.48,-4.44,-4.44,-2.99,-2.99,2.98,2.65,2.73,-1.46,-1.46,-1.45
464.07,-4.53,-4.53,-3.08,-3.08,3.08,2.74,2.77,-1.45,-1.45,-1.45
468.71,-4.60,-4.60,-3.16,-3.16,3.16,2.83,2.81,-1.44,-1.44,-1.44
473.40,-4.66,-4.66,-3.23,-3.23,3.23,2.91,2.84,-1.43,-1.43,-1.43
478.13,-4.71,-4.71,-3.29,-3.29,3.29,2.99,2.86,-1.43,-1.42,-1.42
482.91,-4.73,-4.73,-3.33,-3.33,3.32,3.06,2.88,-1.41,-1.41,-1.40
487.74,-4.74,-4.74,-3.35,-3.35,3.34,3.11,2.90,-1.40,-1.40,-1.40
492.62,-4.74,-4.74,-3.36,-3.35,3.35,3.16,2.91,-1.40,-1.39,-1.39
497.55,-4.71,-4.71,-3.33,-3.34,3.33,3.20,2.91,-1.38,-1.38,-1.38
502.52,-4.67,-4.67,-3.30,-3.31,3.30,3.22,2.91,-1.37,-1.37,-1.37
