frequency,raw,error,smoothed,error_smoothed,equalization,parametric_eq,equalized_raw,equalized_smoothed,target
20,6.57,1.59,6.57,1.59,-1.59,-0.71,4.98,4.98,4.98
21,6.57,1.60,6.57,1.60,-1.60,-0.81,4.97,4.97,4.98
22,6.57,1.60,6.57,1.61,-1.61,-0.93,4.97,4.97,4.97
23,6.57,1.62,6.57,1.61,-1.61,-1.06,4.96,4.96,4.96
24,6.57,1.63,6.57,1.62,-1.62,-1.19,4.95,4.94,4.94
25,6.56,1.63,6.56,1.63,-1.63,-1.33,4.93,4.93,4.93
26,6.55,1.63,6.56,1.64,-1.64,-1.47,4.92,4.92,4.92
27,6.55,1.65,6.55,1.64,-1.64,-1.59,4.91,4.90,4.90
28,6.54,1.65,6.54,1.65,-1.65,-1.71,4.89,4.89,4.89
29,6.53,1.66,6.53,1.66,-1.66,-1.80,4.87,4.87,4.87
30,6.52,1.67,6.52,1.67,-1.67,-1.88,4.85,4.85,4.85
31,6.51,1.67,6.51,1.68,-1.68,-1.92,4.84,4.84,4.84
32,6.50,1.68,6.50,1.68,-1.68,-1.95,4.82,4.82,4.82
33,6.49,1.70,6.49,1.69,-1.69,-1.95,4.80,4.79,4.80
34,6.47,1.70,6.47,1.70,-1.70,-1.94,4.77,4.77,4.77
35,6.46,1.71,6.46,1.71,-1.71,-1.91,4.75,4.75,4.75
36,6.44,1.72,6.44,1.72,-1.72,-1.88,4.72,4.73,4.73
37,6.42,1.72,6.43,1.73,-1.73,-1.85,4.69,4.70,4.70
38,6.41,1.74,6.41,1.74,-1.74,-1.82,4.67,4.67,4.67
39,6.39,1.75,6.39,1.75,-1.75,-1.79,4.64,4.64,4.64
40,6.37,1.76,6.37,1.76,-1.76,-1.77,4.61,4.61,4.62
41,6.36,1.78,6.35,1.78,-1.78,-1.76,4.59,4.58,4.58
42,6.34,1.79,6.34,1.79,-1.79,-1.75,4.55,4.55,4.55
43,6.32,1.80,6.32,1.81,-1.81,-1.75,4.52,4.52,4.52
44,6.30,1.81,6.31,1.82,-1.82,-1.75,4.48,4.49,4.49
45,6.27,1.82,6.28,1.83,-1.83,-1.77,4.44,4.45,4.45
46,6.25,1.84,6.26,1.85,-1.85,-1.79,4.40,4.41,4.41
47,6.23,1.85,6.23,1.86,-1.86,-1.81,4.37,4.37,4.38
48,6.21,1.87,6.21,1.88,-1.88,-1.84,4.34,4.33,4.34
49,6.19,1.89,6.19,1.89,-1.89,-1.88,4.30,4.30,4.30
50,6.20,1.94,6.16,1.90,-1.90,-1.92,4.30,4.26,4.26
51,6.17,1.95,6.12,1.91,-1.91,-1.96,4.26,4.21,4.22
52,6.10,1.93,6.09,1.92,-1.92,-2.00,4.18,4.17,4.17
53,6.01,1.88,6.06,1.93,-1.93,-2.05,4.08,4.12,4.13
54,5.98,1.90,6.03,1.95,-1.95,-2.09,4.04,4.08,4.09
55,5.99,1.95,5.99,1.96,-1.96,-2.14,4.03,4.04,4.04
56,5.99,2.00,5.96,1.97,-1.97,-2.18,4.02,3.99,3.99
57,5.95,2.00,5.93,1.99,-1.99,-2.22,3.96,3.94,3.95
58,5.89,1.99,5.90,2.01,-2.01,-2.25,3.88,3.89,3.90
59,5.83,1.98,5.88,2.03,-2.03,-2.28,3.80,3.84,3.85
60,5.83,2.03,5.85,2.05,-2.05,-2.31,3.78,3.79,3.80
61,5.82,2.07,5.82,2.08,-2.08,-2.33,3.74,3.74,3.75
62,5.82,2.12,5.80,2.11,-2.11,-2.35,3.72,3.70,3.70
63,5.80,2.15,5.78,2.13,-2.13,-2.36,3.67,3.65,3.65
64,5.77,2.17,5.75,2.16,-2.16,-2.36,3.61,3.59,3.60
65,5.74,2.20,5.73,2.19,-2.19,-2.37,3.55,3.54,3.55
66,5.70,2.21,5.70,2.22,-2.22,-2.37,3.48,3.49,3.49
67,5.67,2.23,5.68,2.24,-2.24,-2.36,3.43,3.44,3.44
68,5.64,2.25,5.66,2.27,-2.27,-2.36,3.37,3.39,3.39
69,5.61,2.28,5.63,2.30,-2.30,-2.35,3.31,3.33,3.33
70,5.59,2.31,5.60,2.32,-2.32,-2.34,3.27,3.28,3.28
71,5.56,2.34,5.56,2.34,-2.34,-2.33,3.22,3.22,3.23
72,5.54,2.37,5.53,2.37,-2.37,-2.32,3.18,3.16,3.17
73,5.53,2.41,5.49,2.39,-2.39,-2.31,3.14,3.11,3.12
74,5.49,2.43,5.46,2.41,-2.41,-2.30,3.08,3.05,3.06
75,5.44,2.43,5.43,2.43,-2.43,-2.29,3.01,3.00,3.01
76,5.39,2.44,5.40,2.45,-2.45,-2.28,2.94,2.95,2.95
77,5.34,2.44,5.37,2.47,-2.47,-2.27,2.87,2.89,2.90
78,5.30,2.46,5.33,2.49,-2.49,-2.27,2.81,2.84,2.85
79,5.27,2.48,5.30,2.51,-2.51,-2.27,2.76,2.79,2.79
80,5.26,2.52,5.27,2.54,-2.54,-2.27,2.72,2.73,2.74
81,5.24,2.56,5.24,2.56,-2.56,-2.27,2.68,2.68,2.68
82,5.21,2.58,5.20,2.58,-2.58,-2.27,2.63,2.62,2.63
83,5.19,2.61,5.17,2.60,-2.60,-2.28,2.59,2.57,2.58
84,5.16,2.64,5.14,2.62,-2.62,-2.29,2.54,2.52,2.52
85,5.13,2.66,5.11,2.65,-2.65,-2.30,2.48,2.46,2.47
86,5.08,2.66,5.08,2.67,-2.67,-2.31,2.41,2.41,2.42
87,5.05,2.68,5.05,2.69,-2.69,-2.33,2.36,2.36,2.37
88,5.01,2.69,5.03,2.71,-2.71,-2.35,2.30,2.31,2.32
89,4.97,2.71,5.00,2.73,-2.73,-2.37,2.24,2.26,2.27
90,4.95,2.74,4.96,2.75,-2.75,-2.39,2.20,2.21,2.22
91,4.92,2.76,4.93,2.77,-2.77,-2.42,2.15,2.16,2.16
92,4.90,2.79,4.90,2.79,-2.79,-2.44,2.11,2.11,2.12
93,4.88,2.81,4.87,2.80,-2.80,-2.47,2.08,2.06,2.07
94,4.84,2.82,4.83,2.82,-2.82,-2.50,2.02,2.01,2.02
95,4.82,2.85,4.80,2.83,-2.83,-2.53,1.99,1.96,1.97
96,4.78,2.86,4.76,2.85,-2.85,-2.56,1.94,1.92,1.92
97,4.74,2.87,4.72,2.86,-2.86,-2.60,1.88,1.87,1.87
98,4.69,2.86,4.69,2.87,-2.87,-2.63,1.82,1.82,1.83
99,4.65,2.87,4.65,2.88,-2.88,-2.67,1.77,1.77,1.78
100,4.59,2.85,4.61,2.89,-2.89,-2.70,1.70,1.72,1.74
101,4.55,2.86,4.57,2.90,-2.90,-2.74,1.65,1.67,1.69
102,4.51,2.86,4.54,2.91,-2.91,-2.78,1.60,1.62,1.65
104,4.48,2.92,4.50,2.92,-2.92,-2.85,1.56,1.57,1.56
105,4.46,2.94,4.46,2.93,-2.93,-2.89,1.53,1.53,1.52
106,4.44,2.96,4.42,2.94,-2.94,-2.93,1.50,1.48,1.48
107,4.41,2.97,4.39,2.95,-2.95,-2.97,1.46,1.44,1.44
108,4.37,2.97,4.36,2.97,-2.97,-3.00,1.41,1.39,1.40
109,4.33,2.97,4.33,2.98,-2.98,-3.04,1.36,1.35,1.36
110,4.29,2.97,4.30,2.99,-2.99,-3.07,1.31,1.31,1.32
111,4.25,2.97,4.27,2.99,-2.99,-3.10,1.26,1.27,1.28
112,4.22,2.98,4.24,3.00,-3.00,-3.13,1.22,1.23,1.24
113,4.19,2.99,4.20,3.01,-3.01,-3.16,1.18,1.19,1.20
114,4.17,3.00,4.17,3.02,-3.02,-3.19,1.15,1.15,1.17
115,4.14,3.01,4.13,3.02,-3.02,-3.22,1.12,1.11,1.13
117,4.09,3.03,4.09,3.02,-3.02,-3.26,1.07,1.07,1.06
118,4.07,3.05,4.06,3.03,-3.03,-3.28,1.04,1.03,1.03
119,4.03,3.04,4.02,3.03,-3.03,-3.29,1.00,0.99,0.99
120,4.00,3.04,3.98,3.03,-3.03,-3.31,0.97,0.95,0.96
121,3.96,3.04,3.94,3.04,-3.04,-3.32,0.92,0.91,0.93
123,3.88,3.02,3.91,3.04,-3.04,-3.33,0.84,0.87,0.86
124,3.85,3.02,3.87,3.04,-3.04,-3.34,0.81,0.83,0.83
125,3.81,3.01,3.83,3.04,-3.04,-3.34,0.77,0.79,0.80
126,3.78,3.01,3.79,3.04,-3.04,-3.34,0.74,0.76,0.77
128,3.73,3.02,3.75,3.03,-3.03,-3.33,0.70,0.72,0.71
129,3.71,3.03,3.71,3.03,-3.03,-3.32,0.68,0.68,0.68
130,3.68,3.02,3.67,3.02,-3.02,-3.31,0.66,0.65,0.66
131,3.66,3.03,3.63,3.01,-3.01,-3.30,0.65,0.61,0.63
133,3.60,3.03,3.58,3.01,-3.01,-3.26,0.60,0.58,0.58
134,3.56,3.01,3.54,2.99,-2.99,-3.25,0.57,0.54,0.55
135,3.51,2.99,3.50,2.98,-2.98,-3.23,0.53,0.51,0.52
137,3.43,2.96,3.45,2.97,-2.97,-3.19,0.46,0.48,0.48
138,3.39,2.94,3.40,2.96,-2.96,-3.16,0.44,0.45,0.45
140,3.33,2.93,3.35,2.94,-2.94,-3.11,0.39,0.41,0.40
141,3.29,2.91,3.31,2.93,-2.93,-3.09,0.36,0.38,0.38
142,3.26,2.90,3.26,2.91,-2.91,-3.06,0.35,0.35,0.36
144,3.20,2.88,3.21,2.90,-2.90,-3.01,0.30,0.32,0.32
145,3.18,2.88,3.17,2.88,-2.88,-2.98,0.30,0.28,0.30
147,3.13,2.88,3.13,2.87,-2.87,-2.93,0.26,0.26,0.26
148,3.09,2.86,3.09,2.86,-2.86,-2.90,0.23,0.23,0.24
150,3.05,2.85,3.05,2.85,-2.85,-2.85,0.20,0.20,0.20
151,3.02,2.84,3.02,2.84,-2.84,-2.82,0.18,0.18,0.18
153,2.98,2.84,2.98,2.84,-2.84,-2.77,0.15,0.15,0.14
154,2.96,2.84,2.95,2.83,-2.83,-2.75,0.13,0.12,0.12
156,2.91,2.82,2.92,2.82,-2.82,-2.70,0.09,0.09,0.09
157,2.88,2.81,2.88,2.82,-2.82,-2.68,0.06,0.07,0.07
159,2.84,2.80,2.85,2.81,-2.81,-2.63,0.03,0.04,0.04
160,2.83,2.81,2.82,2.81,-2.81,-2.61,0.02,0.01,0.03
162,2.79,2.80,2.80,2.81,-2.81,-2.57,-0.02,-0.01,-0.01
164,2.76,2.80,2.77,2.81,-2.81,-2.53,-0.04,-0.03,-0.04
165,2.75,2.80,2.75,2.80,-2.80,-2.51,-0.05,-0.06,-0.05
167,2.71,2.79,2.72,2.80,-2.80,-2.48,-0.09,-0.08,-0.08
169,2.69,2.79,2.70,2.80,-2.80,-2.45,-0.11,-0.10,-0.10
170,2.67,2.79,2.67,2.79,-2.79,-2.43,-0.12,-0.12,-0.12
172,2.65,2.79,2.64,2.78,-2.78,-2.41,-0.13,-0.14,-0.14
174,2.62,2.79,2.61,2.78,-2.78,-2.38,-0.15,-0.17,-0.17
175,2.60,2.78,2.58,2.76,-2.76,-2.37,-0.16,-0.19,-0.18
177,2.56,2.76,2.54,2.75,-2.75,-2.35,-0.19,-0.21,-0.20
179,2.52,2.75,2.51,2.73,-2.73,-2.33,-0.21,-0.23,-0.22
181,2.47,2.72,2.47,2.72,-2.72,-2.32,-0.24,-0.25,-0.25
183,2.41,2.68,2.43,2.70,-2.70,-2.31,-0.29,-0.27,-0.27
184,2.38,2.66,2.39,2.68,-2.68,-2.30,-0.29,-0.28,-0.28
186,2.33,2.63,2.35,2.65,-2.65,-2.29,-0.32,-0.30,-0.30
188,2.29,2.61,2.31,2.63,-2.63,-2.28,-0.34,-0.32,-0.31
190,2.25,2.58,2.27,2.61,-2.61,-2.28,-0.36,-0.34,-0.33
192,2.23,2.58,2.22,2.58,-2.58,-2.28,-0.35,-0.36,-0.35
194,2.19,2.56,2.18,2.56,-2.56,-2.27,-0.37,-0.37,-0.37
196,2.16,2.55,2.14,2.53,-2.53,-2.27,-0.37,-0.39,-0.38
198,2.11,2.51,2.10,2.51,-2.51,-2.28,-0.40,-0.41,-0.40
200,2.07,2.49,2.07,2.48,-2.48,-2.28,-0.41,-0.42,-0.42
202,2.02,2.45,2.03,2.45,-2.45,-2.28,-0.43,-0.43,-0.43
204,1.97,2.42,1.98,2.43,-2.43,-2.28,-0.45,-0.44,-0.44
206,1.93,2.39,1.94,2.40,-2.40,-2.29,-0.46,-0.46,-0.46
208,1.88,2.35,1.89,2.36,-2.36,-2.29,-0.48,-0.47,-0.47
210,1.85,2.34,1.84,2.33,-2.33,-2.30,-0.48,-0.49,-0.48
212,1.81,2.31,1.79,2.30,-2.30,-2.30,-0.48,-0.50,-0.50
214,1.76,2.27,1.74,2.26,-2.26,-2.31,-0.50,-0.52,-0.51
216,1.72,2.24,1.69,2.22,-2.22,-2.31,-0.50,-0.53,-0.52
218,1.66,2.19,1.65,2.19,-2.19,-2.32,-0.53,-0.54,-0.53
221,1.58,2.13,1.60,2.15,-2.15,-2.32,-0.57,-0.55,-0.55
223,1.53,2.09,1.55,2.12,-2.12,-2.33,-0.58,-0.56,-0.56
225,1.48,2.05,1.51,2.08,-2.08,-2.33,-0.60,-0.57,-0.57
227,1.45,2.03,1.46,2.05,-2.05,-2.33,-0.60,-0.58,-0.58
229,1.42,2.01,1.42,2.02,-2.02,-2.33,-0.60,-0.60,-0.59
232,1.38,1.98,1.38,1.99,-1.99,-2.32,-0.61,-0.61,-0.60
234,1.35,1.96,1.35,1.96,-1.96,-2.32,-0.61,-0.62,-0.61
236,1.32,1.94,1.31,1.94,-1.94,-2.31,-0.61,-0.63,-0.62
239,1.28,1.91,1.28,1.91,-1.91,-2.29,-0.63,-0.63,-0.63
241,1.25,1.89,1.25,1.89,-1.89,-2.28,-0.64,-0.64,-0.64
244,1.21,1.86,1.22,1.87,-1.87,-2.26,-0.66,-0.65,-0.65
246,1.19,1.85,1.19,1.85,-1.85,-2.24,-0.66,-0.65,-0.66
248,1.16,1.82,1.16,1.83,-1.83,-2.22,-0.67,-0.66,-0.66
251,1.13,1.80,1.13,1.80,-1.80,-2.19,-0.67,-0.67,-0.67
253,1.10,1.78,1.10,1.78,-1.78,-2.17,-0.68,-0.68,-0.68
256,1.07,1.76,1.07,1.76,-1.76,-2.13,-0.69,-0.69,-0.69
259,1.03,1.73,1.04,1.73,-1.73,-2.09,-0.70,-0.70,-0.70
261,1.01,1.72,1.00,1.71,-1.71,-2.06,-0.70,-0.71,-0.70
264,0.97,1.68,0.97,1.68,-1.68,-2.01,-0.71,-0.71,-0.71
266,0.94,1.66,0.93,1.65,-1.65,-1.97,-0.71,-0.72,-0.72
269,0.89,1.62,0.89,1.62,-1.62,-1.92,-0.72,-0.73,-0.73
272,0.84,1.57,0.85,1.58,-1.58,-1.86,-0.74,-0.73,-0.73
274,0.81,1.55,0.80,1.54,-1.54,-1.82,-0.73,-0.74,-0.74
277,0.76,1.51,0.76,1.51,-1.51,-1.76,-0.75,-0.75,-0.74
280,0.71,1.46,0.71,1.47,-1.47,-1.69,-0.76,-0.75,-0.75
283,0.66,1.42,0.67,1.42,-1.42,-1.63,-0.76,-0.76,-0.76
286,0.61,1.38,0.62,1.38,-1.38,-1.56,-0.77,-0.76,-0.76
288,0.57,1.34,0.57,1.34,-1.34,-1.52,-0.77,-0.77,-0.77
291,0.52,1.29,0.52,1.29,-1.29,-1.45,-0.77,-0.78,-0.77
294,0.47,1.25,0.46,1.25,-1.25,-1.38,-0.77,-0.78,-0.78
297,0.41,1.20,0.41,1.20,-1.20,-1.31,-0.79,-0.79,-0.78
300,0.36,1.15,0.36,1.15,-1.15,-1.24,-0.79,-0.79,-0.79
303,0.31,1.11,0.31,1.10,-1.10,-1.17,-0.79,-0.80,-0.79
306,0.25,1.05,0.25,1.06,-1.06,-1.10,-0.80,-0.80,-0.80
309,0.20,1.01,0.20,1.01,-1.01,-1.03,-0.81,-0.81,-0.80
312,0.15,0.96,0.15,0.96,-0.96,-0.96,-0.81,-0.81,-0.81
316,0.08,0.90,0.09,0.91,-0.91,-0.87,-0.83,-0.81,-0.81
319,0.03,0.85,0.04,0.86,-0.86,-0.80,-0.83,-0.82,-0.82
322,-0.01,0.81,-0.01,0.81,-0.81,-0.73,-0.82,-0.82,-0.82
325,-0.06,0.77,-0.06,0.76,-0.76,-0.66,-0.82,-0.83,-0.83
328,-0.11,0.72,-0.12,0.71,-0.71,-0.60,-0.82,-0.83,-0.83
332,-0.17,0.66,-0.17,0.67,-0.67,-0.51,-0.84,-0.83,-0.83
335,-0.22,0.62,-0.22,0.62,-0.62,-0.44,-0.84,-0.84,-0.84
338,-0.27,0.57,-0.27,0.57,-0.57,-0.38,-0.84,-0.84,-0.84
342,-0.33,0.52,-0.32,0.52,-0.52,-0.29,-0.85,-0.85,-0.84
345,-0.37,0.48,-0.38,0.47,-0.47,-0.23,-0.84,-0.85,-0.85
349,-0.43,0.42,-0.43,0.42,-0.42,-0.14,-0.85,-0.85,-0.85
352,-0.48,0.38,-0.48,0.38,-0.38,-0.08,-0.86,-0.85,-0.85
356,-0.54,0.32,-0.53,0.33,-0.33,0.01,-0.87,-0.86,-0.86
359,-0.58,0.28,-0.58,0.28,-0.28,0.07,-0.86,-0.86,-0.86
363,-0.64,0.22,-0.63,0.23,-0.23,0.15,-0.87,-0.86,-0.86
366,-0.68,0.19,-0.68,0.18,-0.18,0.21,-0.86,-0.87,-0.87
370,-0.73,0.14,-0.73,0.14,-0.14,0.29,-0.87,-0.87,-0.87
374,-0.79,0.08,-0.78,0.09,-0.09,0.37,-0.88,-0.87,-0.87
377,-0.83,0.04,-0.84,0.04,-0.04,0.43,-0.87,-0.88,-0.87
381,-0.88,-0.00,-0.89,-0.01,0.01,0.50,-0.87,-0.88,-0.88
385,-0.94,-0.06,-0.94,-0.06,0.06,0.58,-0.88,-0.88,-0.88
389,-0.99,-0.11,-0.99,-0.11,0.11,0.66,-0.88,-0.88,-0.88
393,-1.04,-0.16,-1.04,-0.16,0.16,0.73,-0.88,-0.88,-0.88
397,-1.10,-0.21,-1.09,-0.21,0.21,0.80,-0.89,-0.89,-0.89
401,-1.15,-0.26,-1.14,-0.25,0.25,0.88,-0.89,-0.89,-0.89
405,-1.20,-0.31,-1.20,-0.30,0.30,0.95,-0.89,-0.89,-0.89
409,-1.25,-0.36,-1.25,-0.35,0.35,1.02,-0.89,-0.90,-0.89
413,-1.30,-0.40,-1.30,-0.40,0.40,1.08,-0.89,-0.90,-0.89
417,-1.35,-0.45,-1.36,-0.46,0.46,1.15,-0.89,-0.90,-0.90
421,-1.40,-0.50,-1.41,-0.51,0.51,1.22,-0.89,-0.90,-0.90
425,-1.45,-0.55,-1.46,-0.56,0.56,1.28,-0.89,-0.91,-0.90
430,-1.52,-0.61,-1.51,-0.61,0.61,1.36,-0.91,-0.91,-0.90
434,-1.57,-0.66,-1.56,-0.66,0.66,1.42,-0.91,-0.91,-0.91
438,-1.62,-0.71,-1.61,-0.71,0.71,1.47,-0.91,-0.91,-0.91
443,-1.68,-0.77,-1.66,-0.76,0.76,1.54,-0.92,-0.91,-0.91
447,-1.72,-0.81,-1.71,-0.81,0.81,1.60,-0.91,-0.91,-0.91
451,-1.76,-0.86,-1.76,-0.86,0.86,1.65,-0.90,-0.91,-0.90
456,-1.81,-0.91,-1.81,-0.91,0.91,1.71,-0.90,-0.90,-0.90
460,-1.85,-0.95,-1.85,-0.96,0.96,1.75,-0.89,-0.90,-0.89
465,-1.90,-1.01,-1.90,-1.01,1.01,1.80,-0.89,-0.89,-0.89
470,-1.94,-1.06,-1.94,-1.06,1.06,1.85,-0.88,-0.88,-0.88
474,-1.99,-1.12,-1.98,-1.12,1.12,1.89,-0.87,-0.87,-0.87
479,-2.03,-1.17,-2.03,-1.17,1.17,1.93,-0.86,-0.86,-0.86
484,-2.08,-1.23,-2.08,-1.23,1.23,1.96,-0.85,-0.84,-0.85
489,-2.12,-1.28,-2.13,-1.29,1.29,1.99,-0.83,-0.83,-0.84
494,-2.17,-1.35,-2.18,-1.36,1.36,2.02,-0.81,-0.82,-0.82
499,-2.21,-1.40,-2.23,-1.42,1.42,2.05,-0.79,-0.81,-0.81
504,-2.27,-1.48,-2.29,-1.49,1.49,2.07,-0.78,-0.80,-0.79
509,-2.33,-1.55,-2.34,-1.56,1.56,2.08,-0.77,-0.79,-0.78
514,-2.38,-1.62,-2.39,-1.62,1.62,2.09,-0.76,-0.77,-0.76
519,-2.45,-1.70,-2.44,-1.69,1.69,2.10,-0.76,-0.75,-0.74
524,-2.51,-1.78,-2.49,-1.76,1.76,2.11,-0.75,-0.73,-0.73
529,-2.57,-1.86,-2.54,-1.82,1.82,2.11,-0.74,-0.71,-0.71
535,-2.61,-1.92,-2.58,-1.89,1.89,2.11,-0.72,-0.70,-0.69
540,-2.65,-1.98,-2.63,-1.95,1.95,2.10,-0.70,-0.67,-0.67
545,-2.67,-2.02,-2.66,-2.01,2.01,2.09,-0.66,-0.65,-0.65
551,-2.69,-2.07,-2.70,-2.07,2.07,2.08,-0.62,-0.63,-0.62
556,-2.72,-2.12,-2.73,-2.13,2.13,2.07,-0.59,-0.60,-0.60
562,-2.74,-2.17,-2.76,-2.18,2.18,2.06,-0.56,-0.58,-0.57
568,-2.78,-2.23,-2.78,-2.23,2.23,2.04,-0.55,-0.55,-0.54
573,-2.80,-2.28,-2.80,-2.28,2.28,2.03,-0.51,-0.52,-0.52
579,-2.83,-2.34,-2.82,-2.34,2.34,2.01,-0.49,-0.48,-0.49
585,-2.86,-2.40,-2.84,-2.39,2.39,1.99,-0.47,-0.45,-0.46
591,-2.87,-2.44,-2.87,-2.44,2.44,1.97,-0.43,-0.43,-0.43
596,-2.89,-2.49,-2.89,-2.49,2.49,1.95,-0.40,-0.40,-0.40
602,-2.91,-2.54,-2.92,-2.55,2.55,1.93,-0.36,-0.37,-0.37
608,-2.92,-2.58,-2.94,-2.60,2.60,1.91,-0.32,-0.34,-0.34
615,-2.94,-2.63,-2.97,-2.65,2.65,1.89,-0.28,-0.31,-0.31
621,-2.98,-2.71,-2.99,-2.71,2.71,1.87,-0.27,-0.28,-0.27
627,-3.01,-2.77,-3.01,-2.76,2.76,1.85,-0.25,-0.25,-0.24
633,-3.04,-2.83,-3.03,-2.81,2.81,1.83,-0.23,-0.21,-0.21
639,-3.07,-2.89,-3.04,-2.87,2.87,1.81,-0.20,-0.18,-0.18
646,-3.09,-2.94,-3.06,-2.92,2.92,1.80,-0.17,-0.15,-0.15
652,-3.10,-2.99,-3.08,-2.97,2.97,1.78,-0.13,-0.11,-0.11
659,-3.09,-3.01,-3.10,-3.01,3.01,1.76,-0.08,-0.08,-0.08
665,-3.09,-3.04,-3.11,-3.06,3.06,1.75,-0.03,-0.05,-0.04
672,-3.09,-3.08,-3.12,-3.10,3.10,1.74,0.01,-0.02,-0.01
679,-3.10,-3.13,-3.12,-3.14,3.14,1.72,0.04,0.02,0.03
686,-3.11,-3.17,-3.12,-3.18,3.18,1.71,0.07,0.06,0.06
692,-3.12,-3.22,-3.11,-3.21,3.21,1.71,0.09,0.10,0.10
699,-3.13,-3.27,-3.11,-3.25,3.25,1.70,0.12,0.14,0.14
706,-3.12,-3.30,-3.09,-3.27,3.27,1.69,0.15,0.18,0.18
713,-3.10,-3.32,-3.08,-3.30,3.30,1.69,0.20,0.22,0.22
721,-3.07,-3.32,-3.06,-3.31,3.31,1.68,0.24,0.25,0.25
728,-3.03,-3.32,-3.04,-3.33,3.33,1.68,0.30,0.29,0.29
735,-2.99,-3.32,-3.01,-3.33,3.33,1.68,0.35,0.32,0.33
742,-2.95,-3.32,-2.97,-3.34,3.34,1.68,0.39,0.36,0.37
750,-2.92,-3.33,-2.93,-3.33,3.33,1.68,0.41,0.40,0.41
757,-2.88,-3.33,-2.88,-3.32,3.32,1.69,0.44,0.44,0.45
765,-2.84,-3.33,-2.82,-3.30,3.30,1.69,0.46,0.48,0.49
773,-2.78,-3.30,-2.75,-3.27,3.27,1.70,0.49,0.52,0.53
780,-2.71,-3.27,-2.68,-3.24,3.24,1.70,0.53,0.55,0.56
788,-2.63,-3.23,-2.61,-3.20,3.20,1.71,0.57,0.59,0.60
796,-2.54,-3.17,-2.53,-3.15,3.15,1.72,0.61,0.62,0.63
804,-2.44,-3.10,-2.44,-3.10,3.10,1.73,0.66,0.66,0.66
812,-2.34,-3.04,-2.35,-3.04,3.04,1.74,0.70,0.69,0.70
820,-2.24,-2.97,-2.26,-2.98,2.98,1.75,0.74,0.73,0.73
828,-2.15,-2.91,-2.16,-2.92,2.92,1.76,0.77,0.76,0.76
837,-2.04,-2.83,-2.05,-2.85,2.85,1.77,0.81,0.80,0.79
845,-1.94,-2.76,-1.95,-2.78,2.78,1.78,0.84,0.83,0.82
853,-1.85,-2.70,-1.84,-2.70,2.70,1.79,0.85,0.86,0.85
862,-1.74,-2.62,-1.74,-2.62,2.62,1.80,0.88,0.89,0.88
871,-1.62,-2.53,-1.63,-2.54,2.54,1.81,0.93,0.91,0.91
879,-1.53,-2.47,-1.52,-2.46,2.46,1.82,0.93,0.94,0.94
888,-1.41,-2.38,-1.41,-2.38,2.38,1.83,0.97,0.97,0.97
897,-1.30,-2.30,-1.30,-2.29,2.29,1.84,0.99,0.99,1.00
906,-1.19,-2.21,-1.19,-2.21,2.21,1.85,1.02,1.02,1.03
915,-1.08,-2.13,-1.07,-2.12,2.12,1.85,1.04,1.05,1.05
924,-0.96,-2.04,-0.95,-2.02,2.02,1.86,1.07,1.07,1.08
933,-0.85,-1.95,-0.83,-1.93,1.93,1.86,1.08,1.10,1.11
943,-0.72,-1.85,-0.71,-1.84,1.84,1.86,1.12,1.13,1.13
952,-0.60,-1.76,-0.59,-1.75,1.75,1.86,1.15,1.16,1.16
962,-0.46,-1.64,-0.47,-1.65,1.65,1.85,1.19,1.18,1.18
971,-0.34,-1.55,-0.35,-1.56,1.56,1.85,1.22,1.21,1.21
981,-0.21,-1.44,-0.24,-1.47,1.47,1.84,1.26,1.23,1.24
991,-0.10,-1.36,-0.12,-1.38,1.38,1.83,1.28,1.26,1.26
1001,0.01,-1.28,-0.01,-1.30,1.30,1.81,1.31,1.29,1.29
1011,0.11,-1.20,0.10,-1.21,1.21,1.80,1.32,1.31,1.32
1021,0.21,-1.13,0.22,-1.12,1.12,1.78,1.34,1.34,1.34
1031,0.30,-1.07,0.33,-1.04,1.04,1.75,1.34,1.37,1.37
1041,0.41,-0.99,0.43,-0.96,0.96,1.73,1.37,1.39,1.40
1052,0.53,-0.89,0.54,-0.88,0.88,1.70,1.41,1.42,1.42
1062,0.63,-0.82,0.65,-0.80,0.80,1.67,1.43,1.45,1.45
1073,0.75,-0.73,0.76,-0.72,0.72,1.64,1.47,1.48,1.48
1084,0.87,-0.64,0.86,-0.64,0.64,1.60,1.51,1.51,1.51
1094,0.96,-0.58,0.97,-0.57,0.57,1.57,1.53,1.54,1.54
1105,1.08,-0.49,1.07,-0.50,0.50,1.53,1.58,1.57,1.57
1116,1.18,-0.42,1.17,-0.44,0.44,1.49,1.62,1.61,1.60
1128,1.29,-0.34,1.27,-0.37,0.37,1.45,1.66,1.64,1.63
1139,1.38,-0.28,1.36,-0.32,0.32,1.41,1.70,1.67,1.67
1150,1.45,-0.25,1.44,-0.26,0.26,1.36,1.72,1.70,1.70
1162,1.53,-0.20,1.51,-0.22,0.22,1.31,1.75,1.73,1.73
1173,1.59,-0.17,1.59,-0.17,0.17,1.27,1.76,1.76,1.76
1185,1.66,-0.13,1.66,-0.13,0.13,1.22,1.79,1.78,1.79
1197,1.72,-0.10,1.73,-0.09,0.09,1.17,1.81,1.81,1.82
1209,1.78,-0.08,1.80,-0.05,0.05,1.12,1.83,1.85,1.86
1221,1.84,-0.05,1.87,-0.01,0.01,1.08,1.85,1.88,1.89
1233,1.90,-0.02,1.93,0.03,-0.03,1.03,1.88,1.91,1.92
1246,1.97,0.02,2.00,0.06,-0.06,0.97,1.91,1.94,1.95
1258,2.04,0.06,2.07,0.09,-0.09,0.93,1.95,1.98,1.98
1271,2.13,0.11,2.14,0.12,-0.12,0.87,2.01,2.02,2.02
1283,2.21,0.16,2.21,0.14,-0.14,0.83,2.07,2.06,2.05
1296,2.29,0.20,2.26,0.16,-0.16,0.77,2.13,2.10,2.09
1309,2.35,0.23,2.31,0.17,-0.17,0.72,2.18,2.14,2.12
1322,2.40,0.24,2.35,0.18,-0.18,0.67,2.22,2.18,2.16
1335,2.43,0.23,2.39,0.18,-0.18,0.63,2.25,2.21,2.20
1349,2.45,0.22,2.41,0.17,-0.17,0.57,2.28,2.24,2.23
1362,2.47,0.20,2.43,0.16,-0.16,0.52,2.31,2.27,2.27
1376,2.48,0.17,2.45,0.15,-0.15,0.47,2.33,2.30,2.31
1390,2.46,0.11,2.47,0.14,-0.14,0.42,2.32,2.32,2.35
1404,2.46,0.08,2.49,0.13,-0.13,0.37,2.33,2.35,2.39
1418,2.45,0.03,2.52,0.13,-0.13,0.33,2.32,2.39,2.42
1432,2.48,0.02,2.55,0.13,-0.13,0.28,2.35,2.42,2.46
1446,2.53,0.03,2.60,0.14,-0.14,0.23,2.40,2.46,2.50
1461,2.60,0.06,2.65,0.15,-0.15,0.18,2.45,2.50,2.54
1475,2.69,0.11,2.72,0.17,-0.17,0.13,2.52,2.55,2.58
1490,2.78,0.16,2.79,0.19,-0.19,0.09,2.59,2.59,2.62
1505,2.88,0.22,2.86,0.22,-0.22,0.04,2.66,2.64,2.66
1520,2.98,0.28,2.95,0.26,-0.26,-0.01,2.72,2.69,2.70
1535,3.07,0.33,3.03,0.29,-0.29,-0.05,2.78,2.74,2.74
1550,3.15,0.37,3.11,0.32,-0.32,-0.10,2.83,2.79,2.78
1566,3.22,0.39,3.19,0.35,-0.35,-0.15,2.87,2.84,2.83
1582,3.28,0.41,3.27,0.38,-0.38,-0.19,2.90,2.89,2.87
1597,3.34,0.42,3.33,0.40,-0.40,-0.24,2.94,2.93,2.92
1613,3.39,0.43,3.39,0.42,-0.42,-0.28,2.97,2.97,2.96
1629,3.45,0.44,3.45,0.44,-0.44,-0.32,3.01,3.01,3.01
1646,3.50,0.45,3.50,0.45,-0.45,-0.37,3.05,3.05,3.05
1662,3.54,0.44,3.55,0.46,-0.46,-0.41,3.09,3.10,3.10
1679,3.60,0.45,3.60,0.46,-0.46,-0.45,3.14,3.14,3.15
1696,3.64,0.45,3.65,0.46,-0.46,-0.49,3.18,3.19,3.19
1713,3.69,0.45,3.70,0.46,-0.46,-0.53,3.23,3.24,3.24
1730,3.73,0.44,3.74,0.46,-0.46,-0.57,3.27,3.29,3.29
1747,3.79,0.45,3.79,0.45,-0.45,-0.60,3.34,3.34,3.34
1764,3.84,0.45,3.84,0.45,-0.45,-0.63,3.39,3.39,3.39
1782,3.89,0.45,3.88,0.44,-0.44,-0.67,3.45,3.44,3.44
1800,3.94,0.45,3.93,0.44,-0.44,-0.70,3.50,3.49,3.49
1818,3.99,0.45,3.98,0.43,-0.43,-0.72,3.56,3.55,3.54
1836,4.03,0.43,4.02,0.42,-0.42,-0.75,3.61,3.60,3.60
1854,4.07,0.41,4.07,0.42,-0.42,-0.77,3.66,3.66,3.66
1873,4.12,0.40,4.12,0.41,-0.41,-0.79,3.71,3.72,3.72
1892,4.17,0.38,4.18,0.40,-0.40,-0.81,3.77,3.78,3.79
1911,4.23,0.38,4.23,0.39,-0.39,-0.82,3.84,3.84,3.86
