frequency,raw,error,smoothed,error_smoothed,equalization,parametric_eq,equalized_raw,equalized_smoothed,target
20,-2.83,-4.47,-2.78,-4.42,4.42,4.13,1.59,1.64,1.64
21,-2.20,-3.83,-2.29,-3.92,3.92,3.91,1.73,1.64,1.64
22,-1.80,-3.43,-1.81,-3.45,3.45,3.55,1.65,1.64,1.64
23,-1.47,-3.10,-1.36,-2.99,2.99,3.12,1.53,1.63,1.63
24,-0.88,-2.51,-0.92,-2.55,2.55,2.65,1.68,1.63,1.63
25,-0.48,-2.10,-0.50,-2.13,2.13,2.17,1.65,1.63,1.63
26,-0.11,-1.73,-0.10,-1.72,1.72,1.71,1.62,1.62,1.62
27,0.27,-1.35,0.28,-1.34,1.34,1.28,1.61,1.62,1.62
28,0.69,-0.92,0.65,-0.97,0.97,0.87,1.66,1.62,1.62
29,0.93,-0.68,1.00,-0.61,0.61,0.49,1.55,1.61,1.61
30,1.43,-0.17,1.34,-0.27,0.27,0.14,1.71,1.61,1.61
31,1.62,0.02,1.66,0.06,-0.06,-0.18,1.57,1.60,1.60
32,1.92,0.33,1.97,0.37,-0.37,-0.48,1.55,1.60,1.60
33,2.26,0.67,2.26,0.67,-0.67,-0.77,1.59,1.59,1.59
34,2.48,0.90,2.55,0.96,-0.96,-1.03,1.52,1.58,1.58
35,2.84,1.27,2.82,1.24,-1.24,-1.28,1.60,1.58,1.58
36,3.18,1.62,3.08,1.51,-1.51,-1.51,1.67,1.57,1.57
37,3.27,1.71,3.32,1.76,-1.76,-1.73,1.51,1.56,1.56
38,3.56,2.01,3.55,2.00,-2.00,-1.94,1.56,1.55,1.55
39,3.74,2.20,3.77,2.23,-2.23,-2.14,1.51,1.54,1.54
40,3.96,2.43,3.97,2.45,-2.45,-2.34,1.52,1.53,1.53
41,4.26,2.75,4.17,2.65,-2.65,-2.52,1.62,1.52,1.52
42,4.26,2.76,4.34,2.84,-2.84,-2.70,1.42,1.51,1.51
43,4.49,3.00,4.51,3.02,-3.02,-2.87,1.47,1.49,1.49
44,4.67,3.20,4.67,3.19,-3.19,-3.03,1.48,1.48,1.48
45,4.84,3.38,4.82,3.36,-3.36,-3.19,1.49,1.46,1.46
46,4.95,3.51,4.96,3.51,-3.51,-3.35,1.44,1.45,1.45
47,5.11,3.68,5.09,3.66,-3.66,-3.50,1.46,1.43,1.43
48,5.15,3.74,5.21,3.79,-3.79,-3.64,1.36,1.42,1.42
49,5.35,3.96,5.32,3.92,-3.92,-3.78,1.44,1.40,1.40
50,5.45,4.08,5.41,4.04,-4.04,-3.91,1.42,1.38,1.38
51,5.45,4.10,5.50,4.15,-4.15,-4.04,1.31,1.36,1.36
52,5.58,4.25,5.58,4.25,-4.25,-4.17,1.34,1.34,1.34
53,5.65,4.34,5.66,4.34,-4.34,-4.28,1.31,1.32,1.32
54,5.65,4.36,5.72,4.42,-4.42,-4.40,1.23,1.29,1.29
55,5.85,4.58,5.77,4.50,-4.50,-4.50,1.35,1.27,1.27
56,5.85,4.61,5.82,4.57,-4.57,-4.60,1.28,1.25,1.25
57,5.85,4.63,5.85,4.63,-4.63,-4.70,1.22,1.22,1.22
58,5.85,4.66,5.88,4.69,-4.69,-4.78,1.16,1.19,1.19
59,5.85,4.69,5.91,4.74,-4.74,-4.86,1.11,1.17,1.17
60,5.95,4.81,5.93,4.79,-4.79,-4.94,1.17,1.14,1.14
61,5.95,4.84,5.94,4.83,-4.83,-5.01,1.12,1.11,1.11
62,5.95,4.87,5.95,4.87,-4.87,-5.07,1.08,1.08,1.08
63,5.95,4.90,5.96,4.91,-4.91,-5.12,1.05,1.05,1.05
64,5.95,4.94,5.96,4.94,-4.94,-5.17,1.01,1.02,1.02
65,5.95,4.97,5.96,4.98,-4.98,-5.21,0.98,0.99,0.99
66,5.95,5.00,5.96,5.01,-5.01,-5.25,0.95,0.95,0.95
67,5.95,5.03,5.96,5.04,-5.04,-5.28,0.92,0.92,0.92
68,5.95,5.07,5.95,5.06,-5.06,-5.30,0.89,0.88,0.88
69,5.95,5.10,5.94,5.09,-5.09,-5.32,0.87,0.85,0.85
70,5.95,5.14,5.93,5.11,-5.11,-5.33,0.84,0.81,0.81
71,5.90,5.13,5.91,5.13,-5.13,-5.34,0.77,0.78,0.78
72,5.85,5.11,5.89,5.15,-5.15,-5.34,0.70,0.74,0.74
73,5.85,5.15,5.88,5.18,-5.18,-5.34,0.68,0.70,0.70
74,5.85,5.19,5.86,5.20,-5.20,-5.34,0.66,0.66,0.66
75,5.85,5.23,5.84,5.21,-5.21,-5.33,0.64,0.62,0.62
76,5.85,5.27,5.81,5.23,-5.23,-5.31,0.62,0.59,0.59
77,5.77,5.23,5.79,5.24,-5.24,-5.30,0.53,0.55,0.55
78,5.75,5.25,5.76,5.25,-5.25,-5.28,0.50,0.51,0.51
79,5.75,5.29,5.73,5.26,-5.26,-5.25,0.49,0.47,0.47
80,5.66,5.24,5.69,5.26,-5.26,-5.23,0.40,0.42,0.42
81,5.65,5.27,5.65,5.27,-5.27,-5.20,0.39,0.38,0.38
82,5.57,5.23,5.61,5.26,-5.26,-5.18,0.31,0.34,0.34
83,5.55,5.25,5.56,5.26,-5.26,-5.15,0.29,0.30,0.30
84,5.55,5.29,5.51,5.25,-5.25,-5.12,0.30,0.26,0.26
85,5.50,5.29,5.46,5.24,-5.24,-5.08,0.26,0.22,0.22
86,5.36,5.19,5.41,5.23,-5.23,-5.05,0.13,0.18,0.18
87,5.35,5.22,5.36,5.22,-5.22,-5.02,0.13,0.14,0.14
88,5.30,5.21,5.30,5.21,-5.21,-4.99,0.09,0.09,0.09
89,5.24,5.19,5.25,5.20,-5.20,-4.95,0.05,0.05,0.05
90,5.15,5.14,5.19,5.18,-5.18,-4.92,-0.03,0.01,0.01
91,5.16,5.20,5.13,5.16,-5.16,-4.88,-0.00,-0.03,-0.03
92,5.12,5.20,5.08,5.15,-5.15,-4.85,-0.02,-0.07,-0.07
93,4.97,5.09,5.02,5.13,-5.13,-4.81,-0.16,-0.11,-0.11
94,4.96,5.12,4.96,5.11,-5.11,-4.78,-0.15,-0.15,-0.15
95,4.92,5.12,4.90,5.09,-5.09,-4.74,-0.17,-0.19,-0.20
96,4.76,5.00,4.84,5.07,-5.07,-4.71,-0.31,-0.23,-0.24
97,4.75,5.03,4.77,5.05,-5.05,-4.68,-0.29,-0.27,-0.28
98,4.74,5.06,4.71,5.02,-5.02,-4.64,-0.28,-0.32,-0.32
99,4.62,4.98,4.63,4.99,-4.99,-4.61,-0.36,-0.36,-0.36
100,4.61,5.01,4.55,4.95,-4.95,-4.58,-0.34,-0.40,-0.39
101,4.47,4.91,4.46,4.90,-4.90,-4.54,-0.43,-0.44,-0.43
102,4.37,4.85,4.36,4.85,-4.85,-4.51,-0.47,-0.49,-0.47
104,4.24,4.79,4.26,4.79,-4.79,-4.45,-0.54,-0.53,-0.55
105,4.13,4.72,4.15,4.73,-4.73,-4.42,-0.59,-0.57,-0.58
106,4.05,4.67,4.05,4.66,-4.66,-4.39,-0.61,-0.61,-0.62
107,3.95,4.61,3.95,4.60,-4.60,-4.36,-0.64,-0.65,-0.65
108,3.78,4.47,3.85,4.54,-4.54,-4.33,-0.75,-0.69,-0.69
109,3.73,4.45,3.76,4.48,-4.48,-4.31,-0.75,-0.72,-0.72
110,3.71,4.47,3.68,4.43,-4.43,-4.28,-0.71,-0.75,-0.75
111,3.59,4.38,3.59,4.38,-4.38,-4.25,-0.78,-0.78,-0.78
112,3.48,4.30,3.51,4.32,-4.32,-4.23,-0.84,-0.81,-0.81
113,3.47,4.32,3.43,4.27,-4.27,-4.20,-0.80,-0.84,-0.84
114,3.38,4.25,3.34,4.22,-4.22,-4.17,-0.83,-0.88,-0.87
115,3.26,4.16,3.25,4.16,-4.16,-4.15,-0.90,-0.91,-0.90
117,3.15,4.11,3.17,4.10,-4.10,-4.10,-0.95,-0.94,-0.95
118,3.05,4.03,3.08,4.05,-4.05,-4.08,-0.99,-0.97,-0.98
119,2.98,3.98,3.00,4.00,-4.00,-4.06,-1.01,-1.00,-1.00
120,2.88,3.90,2.92,3.95,-3.95,-4.03,-1.06,-1.02,-1.02
121,2.88,3.93,2.85,3.90,-3.90,-4.01,-1.02,-1.05,-1.04
123,2.77,3.86,2.78,3.86,-3.86,-3.97,-1.09,-1.08,-1.09
124,2.70,3.81,2.72,3.82,-3.82,-3.95,-1.12,-1.10,-1.11
125,2.69,3.82,2.66,3.79,-3.79,-3.93,-1.10,-1.13,-1.12
126,2.62,3.77,2.61,3.76,-3.76,-3.91,-1.14,-1.15,-1.14
128,2.53,3.72,2.56,3.73,-3.73,-3.87,-1.20,-1.17,-1.18
129,2.51,3.71,2.51,3.70,-3.70,-3.86,-1.19,-1.19,-1.20
130,2.44,3.66,2.46,3.67,-3.67,-3.84,-1.23,-1.22,-1.21
131,2.42,3.65,2.41,3.65,-3.65,-3.82,-1.22,-1.24,-1.23
133,2.34,3.61,2.36,3.62,-3.62,-3.79,-1.28,-1.26,-1.26
134,2.34,3.62,2.32,3.60,-3.60,-3.77,-1.25,-1.28,-1.28
135,2.30,3.60,2.28,3.58,-3.58,-3.76,-1.27,-1.30,-1.29
137,2.21,3.54,2.24,3.56,-3.56,-3.72,-1.35,-1.32,-1.33
138,2.15,3.49,2.20,3.54,-3.54,-3.71,-1.39,-1.34,-1.34
140,2.15,3.53,2.17,3.53,-3.53,-3.68,-1.38,-1.36,-1.37
141,2.16,3.55,2.13,3.52,-3.52,-3.67,-1.35,-1.38,-1.38
142,2.12,3.52,2.10,3.50,-3.50,-3.65,-1.38,-1.40,-1.40
144,2.06,3.49,2.06,3.49,-3.49,-3.63,-1.42,-1.42,-1.43
145,2.06,3.50,2.03,3.47,-3.47,-3.61,-1.41,-1.45,-1.44
147,1.96,3.43,1.99,3.46,-3.46,-3.59,-1.50,-1.47,-1.47
148,1.96,3.45,1.96,3.45,-3.45,-3.58,-1.48,-1.49,-1.48
150,1.90,3.41,1.93,3.43,-3.43,-3.55,-1.53,-1.51,-1.51
151,1.85,3.38,1.89,3.42,-3.42,-3.54,-1.57,-1.53,-1.52
153,1.85,3.40,1.86,3.41,-3.41,-3.52,-1.56,-1.55,-1.55
154,1.86,3.43,1.83,3.40,-3.40,-3.51,-1.53,-1.56,-1.56
156,1.77,3.36,1.80,3.38,-3.38,-3.49,-1.60,-1.58,-1.59
157,1.76,3.36,1.75,3.35,-3.35,-3.47,-1.59,-1.60,-1.60
159,1.74,3.37,1.70,3.32,-3.32,-3.45,-1.58,-1.62,-1.62
160,1.65,3.29,1.64,3.28,-3.28,-3.44,-1.62,-1.64,-1.63
162,1.55,3.21,1.56,3.22,-3.22,-3.43,-1.66,-1.65,-1.65
164,1.49,3.17,1.48,3.15,-3.15,-3.41,-1.65,-1.67,-1.67
165,1.41,3.10,1.39,3.07,-3.07,-3.40,-1.66,-1.69,-1.68
167,1.31,3.01,1.29,2.99,-2.99,-3.38,-1.67,-1.70,-1.70
169,1.19,2.91,1.19,2.90,-2.90,-3.36,-1.71,-1.71,-1.72
170,1.07,2.80,1.10,2.83,-2.83,-3.35,-1.75,-1.73,-1.72
172,0.95,2.69,1.02,2.75,-2.75,-3.34,-1.80,-1.74,-1.74
174,0.91,2.66,0.95,2.69,-2.69,-3.32,-1.78,-1.75,-1.75
175,0.91,2.67,0.89,2.65,-2.65,-3.31,-1.73,-1.76,-1.75
177,0.86,2.63,0.85,2.62,-2.62,-3.30,-1.75,-1.76,-1.76
179,0.80,2.57,0.83,2.60,-2.60,-3.28,-1.79,-1.77,-1.77
181,0.81,2.59,0.81,2.59,-2.59,-3.27,-1.77,-1.78,-1.78
183,0.81,2.60,0.81,2.59,-2.59,-3.26,-1.78,-1.78,-1.78
184,0.82,2.61,0.82,2.60,-2.60,-3.25,-1.78,-1.78,-1.78
186,0.84,2.63,0.83,2.62,-2.62,-3.24,-1.77,-1.79,-1.79
188,0.85,2.64,0.85,2.64,-2.64,-3.22,-1.79,-1.79,-1.79
190,0.87,2.67,0.87,2.67,-2.67,-3.21,-1.79,-1.79,-1.79
192,0.88,2.68,0.90,2.70,-2.70,-3.20,-1.81,-1.79,-1.79
194,0.97,2.77,0.94,2.73,-2.73,-3.19,-1.76,-1.79,-1.79
196,1.01,2.81,0.97,2.77,-2.77,-3.17,-1.76,-1.80,-1.80
198,1.02,2.82,1.02,2.82,-2.82,-3.16,-1.79,-1.80,-1.80
200,1.03,2.83,1.08,2.87,-2.87,-3.15,-1.84,-1.80,-1.80
202,1.10,2.90,1.15,2.94,-2.94,-3.14,-1.84,-1.80,-1.80
204,1.25,3.05,1.23,3.03,-3.03,-3.13,-1.77,-1.80,-1.80
206,1.29,3.09,1.33,3.13,-3.13,-3.12,-1.83,-1.80,-1.80
208,1.39,3.19,1.44,3.24,-3.24,-3.11,-1.84,-1.80,-1.80
210,1.55,3.35,1.56,3.36,-3.36,-3.10,-1.80,-1.80,-1.80
212,1.68,3.48,1.68,3.48,-3.48,-3.09,-1.80,-1.80,-1.80
214,1.81,3.61,1.81,3.61,-3.61,-3.08,-1.80,-1.80,-1.80
216,1.94,3.74,1.93,3.74,-3.74,-3.07,-1.79,-1.80,-1.80
218,2.04,3.84,2.05,3.85,-3.85,-3.06,-1.80,-1.80,-1.80
221,2.12,3.93,2.14,3.94,-3.94,-3.05,-1.82,-1.80,-1.80
223,2.24,4.04,2.21,4.01,-4.01,-3.04,-1.77,-1.80,-1.80
225,2.33,4.13,2.25,4.05,-4.05,-3.03,-1.72,-1.80,-1.80
227,2.26,4.06,2.27,4.07,-4.07,-3.02,-1.80,-1.80,-1.80
229,2.24,4.04,2.25,4.05,-4.05,-3.01,-1.80,-1.79,-1.79
232,2.24,4.04,2.21,4.00,-4.00,-3.00,-1.76,-1.79,-1.79
234,2.19,3.98,2.14,3.93,-3.93,-2.99,-1.74,-1.79,-1.79
236,2.12,3.91,2.06,3.84,-3.84,-2.98,-1.72,-1.78,-1.78
239,1.92,3.70,1.97,3.75,-3.75,-2.97,-1.82,-1.78,-1.78
241,1.81,3.58,1.87,3.64,-3.64,-2.96,-1.83,-1.77,-1.77
244,1.70,3.47,1.78,3.55,-3.55,-2.95,-1.84,-1.76,-1.77
246,1.65,3.41,1.69,3.45,-3.45,-2.94,-1.80,-1.76,-1.76
248,1.64,3.39,1.62,3.37,-3.37,-2.93,-1.72,-1.75,-1.75
251,1.54,3.29,1.55,3.29,-3.29,-2.92,-1.75,-1.74,-1.74
253,1.53,3.27,1.49,3.22,-3.22,-2.92,-1.69,-1.74,-1.73
256,1.43,3.16,1.43,3.16,-3.16,-2.91,-1.72,-1.73,-1.73
259,1.38,3.10,1.38,3.10,-3.10,-2.89,-1.72,-1.72,-1.72
261,1.32,3.04,1.33,3.05,-3.05,-2.89,-1.72,-1.71,-1.71
264,1.25,2.96,1.29,2.99,-2.99,-2.88,-1.74,-1.71,-1.71
266,1.21,2.91,1.25,2.94,-2.94,-2.87,-1.73,-1.70,-1.70
269,1.21,2.90,1.21,2.90,-2.90,-2.86,-1.68,-1.69,-1.69
272,1.21,2.90,1.17,2.85,-2.85,-2.85,-1.64,-1.68,-1.68
274,1.20,2.88,1.13,2.81,-2.81,-2.84,-1.61,-1.68,-1.68
277,1.10,2.77,1.10,2.77,-2.77,-2.83,-1.67,-1.67,-1.67
280,1.00,2.67,1.07,2.74,-2.74,-2.82,-1.73,-1.66,-1.66
283,1.00,2.66,1.05,2.70,-2.70,-2.81,-1.70,-1.66,-1.66
286,1.01,2.67,1.02,2.67,-2.67,-2.81,-1.66,-1.65,-1.65
288,1.02,2.67,1.00,2.65,-2.65,-2.80,-1.62,-1.64,-1.64
291,1.03,2.67,0.99,2.63,-2.63,-2.79,-1.59,-1.64,-1.64
294,0.94,2.58,0.97,2.61,-2.61,-2.78,-1.66,-1.63,-1.63
297,0.95,2.58,0.96,2.59,-2.59,-2.77,-1.63,-1.63,-1.63
300,0.97,2.60,0.95,2.57,-2.57,-2.76,-1.60,-1.62,-1.62
303,0.94,2.56,0.94,2.55,-2.55,-2.75,-1.61,-1.62,-1.62
306,0.89,2.50,0.93,2.54,-2.54,-2.75,-1.64,-1.61,-1.61
309,0.90,2.51,0.91,2.52,-2.52,-2.74,-1.61,-1.60,-1.60
312,0.90,2.50,0.90,2.50,-2.50,-2.73,-1.60,-1.60,-1.60
316,0.91,2.51,0.89,2.48,-2.48,-2.72,-1.57,-1.59,-1.59
319,0.91,2.50,0.87,2.46,-2.46,-2.71,-1.55,-1.59,-1.59
322,0.84,2.43,0.86,2.44,-2.44,-2.70,-1.60,-1.58,-1.58
325,0.81,2.39,0.84,2.42,-2.42,-2.69,-1.61,-1.58,-1.58
328,0.81,2.39,0.83,2.41,-2.41,-2.68,-1.59,-1.57,-1.57
332,0.81,2.38,0.82,2.39,-2.39,-2.67,-1.58,-1.57,-1.57
335,0.80,2.37,0.81,2.38,-2.38,-2.66,-1.57,-1.57,-1.57
338,0.80,2.37,0.80,2.36,-2.36,-2.66,-1.56,-1.56,-1.56
342,0.80,2.36,0.79,2.35,-2.35,-2.64,-1.54,-1.56,-1.56
345,0.80,2.36,0.78,2.33,-2.33,-2.64,-1.53,-1.56,-1.56
349,0.80,2.36,0.76,2.32,-2.32,-2.63,-1.51,-1.55,-1.55
352,0.73,2.28,0.75,2.30,-2.30,-2.62,-1.57,-1.55,-1.55
356,0.70,2.25,0.74,2.29,-2.29,-2.61,-1.58,-1.55,-1.55
359,0.71,2.26,0.73,2.27,-2.27,-2.60,-1.56,-1.55,-1.55
363,0.71,2.26,0.72,2.27,-2.27,-2.59,-1.55,-1.55,-1.54
366,0.72,2.27,0.72,2.26,-2.26,-2.58,-1.54,-1.54,-1.54
370,0.73,2.28,0.72,2.26,-2.26,-2.57,-1.53,-1.54,-1.54
374,0.68,2.22,0.73,2.27,-2.27,-2.56,-1.59,-1.54,-1.54
377,0.74,2.28,0.74,2.28,-2.28,-2.55,-1.53,-1.54,-1.54
381,0.75,2.29,0.75,2.28,-2.28,-2.54,-1.53,-1.54,-1.54
385,0.76,2.30,0.75,2.29,-2.29,-2.53,-1.52,-1.53,-1.53
389,0.76,2.29,0.76,2.28,-2.28,-2.52,-1.52,-1.53,-1.53
393,0.76,2.29,0.75,2.28,-2.28,-2.51,-1.51,-1.52,-1.52
397,0.77,2.29,0.75,2.26,-2.26,-2.51,-1.48,-1.51,-1.51
401,0.77,2.28,0.73,2.24,-2.24,-2.50,-1.46,-1.50,-1.50
405,0.70,2.20,0.71,2.21,-2.21,-2.49,-1.50,-1.49,-1.49
409,0.66,2.14,0.70,2.17,-2.17,-2.48,-1.51,-1.48,-1.48
413,0.66,2.13,0.68,2.14,-2.14,-2.47,-1.48,-1.46,-1.46
417,0.65,2.10,0.67,2.11,-2.11,-2.46,-1.45,-1.44,-1.44
421,0.66,2.08,0.66,2.08,-2.08,-2.45,-1.42,-1.42,-1.42
425,0.66,2.06,0.66,2.06,-2.06,-2.44,-1.39,-1.39,-1.40
430,0.67,2.04,0.67,2.04,-2.04,-2.43,-1.36,-1.37,-1.37
434,0.69,2.03,0.69,2.03,-2.03,-2.42,-1.33,-1.34,-1.34
438,0.72,2.03,0.72,2.03,-2.03,-2.41,-1.30,-1.30,-1.30
443,0.76,2.03,0.77,2.03,-2.03,-2.40,-1.27,-1.27,-1.27
447,0.80,2.03,0.82,2.05,-2.05,-2.39,-1.24,-1.23,-1.23
451,0.85,2.04,0.88,2.07,-2.07,-2.38,-1.21,-1.19,-1.19
456,0.91,2.06,0.95,2.10,-2.10,-2.37,-1.18,-1.15,-1.15
460,1.00,2.11,1.02,2.13,-2.13,-2.36,-1.12,-1.11,-1.11
465,1.14,2.21,1.09,2.16,-2.16,-2.35,-1.02,-1.07,-1.07
470,1.20,2.23,1.17,2.19,-2.19,-2.34,-0.99,-1.03,-1.03
474,1.25,2.24,1.24,2.22,-2.22,-2.33,-0.97,-0.99,-0.99
479,1.31,2.26,1.30,2.25,-2.25,-2.32,-0.94,-0.95,-0.95
484,1.35,2.27,1.36,2.28,-2.28,-2.31,-0.93,-0.92,-0.92
489,1.39,2.28,1.42,2.30,-2.30,-2.29,-0.91,-0.89,-0.88
494,1.43,2.29,1.47,2.33,-2.33,-2.28,-0.89,-0.86,-0.86
499,1.46,2.30,1.51,2.35,-2.35,-2.27,-0.88,-0.84,-0.83
504,1.58,2.40,1.55,2.36,-2.36,-2.26,-0.78,-0.82,-0.81
509,1.60,2.40,1.57,2.37,-2.37,-2.25,-0.77,-0.80,-0.80
514,1.61,2.40,1.58,2.37,-2.37,-2.24,-0.76,-0.79,-0.79
519,1.62,2.41,1.58,2.36,-2.36,-2.23,-0.74,-0.78,-0.78
524,1.54,2.33,1.56,2.34,-2.34,-2.22,-0.80,-0.78,-0.78
529,1.50,2.29,1.53,2.31,-2.31,-2.21,-0.81,-0.78,-0.78
535,1.48,2.27,1.49,2.28,-2.28,-2.20,-0.80,-0.79,-0.79
540,1.45,2.25,1.45,2.24,-2.24,-2.19,-0.79,-0.80,-0.80
545,1.41,2.22,1.40,2.21,-2.21,-2.18,-0.79,-0.81,-0.80
551,1.36,2.18,1.36,2.17,-2.17,-2.16,-0.81,-0.82,-0.82
556,1.31,2.14,1.32,2.15,-2.15,-2.15,-0.83,-0.83,-0.83
562,1.26,2.10,1.29,2.13,-2.13,-2.14,-0.86,-0.84,-0.84
568,1.21,2.06,1.27,2.11,-2.11,-2.13,-0.90,-0.85,-0.85
573,1.25,2.11,1.25,2.11,-2.11,-2.12,-0.86,-0.86,-0.86
579,1.24,2.11,1.25,2.11,-2.11,-2.10,-0.87,-0.86,-0.86
585,1.24,2.11,1.26,2.12,-2.12,-2.09,-0.88,-0.86,-0.87
591,1.30,2.17,1.27,2.13,-2.13,-2.08,-0.83,-0.86,-0.87
596,1.30,2.17,1.28,2.14,-2.14,-2.07,-0.84,-0.86,-0.86
602,1.30,2.16,1.30,2.15,-2.15,-2.06,-0.84,-0.85,-0.86
608,1.31,2.16,1.31,2.15,-2.15,-2.04,-0.84,-0.84,-0.84
615,1.32,2.15,1.33,2.16,-2.16,-2.03,-0.83,-0.83,-0.83
621,1.34,2.15,1.35,2.16,-2.16,-2.02,-0.81,-0.81,-0.81
627,1.37,2.16,1.37,2.16,-2.16,-2.00,-0.78,-0.79,-0.79
633,1.40,2.17,1.40,2.16,-2.16,-1.99,-0.76,-0.76,-0.76
639,1.43,2.17,1.44,2.17,-2.17,-1.98,-0.74,-0.73,-0.73
646,1.47,2.18,1.49,2.19,-2.19,-1.96,-0.72,-0.70,-0.70
652,1.51,2.18,1.54,2.21,-2.21,-1.95,-0.70,-0.67,-0.67
659,1.56,2.20,1.60,2.24,-2.24,-1.94,-0.68,-0.64,-0.64
665,1.62,2.23,1.66,2.27,-2.27,-1.92,-0.64,-0.60,-0.60
672,1.76,2.33,1.72,2.29,-2.29,-1.91,-0.53,-0.57,-0.57
679,1.81,2.35,1.78,2.31,-2.31,-1.89,-0.50,-0.53,-0.53
686,1.86,2.36,1.82,2.32,-2.32,-1.87,-0.46,-0.50,-0.50
692,1.90,2.37,1.85,2.32,-2.32,-1.86,-0.41,-0.47,-0.47
699,1.84,2.28,1.86,2.30,-2.30,-1.84,-0.46,-0.44,-0.44
706,1.84,2.25,1.87,2.28,-2.28,-1.83,-0.43,-0.41,-0.41
713,1.84,2.23,1.86,2.24,-2.24,-1.81,-0.40,-0.38,-0.38
721,1.83,2.19,1.84,2.20,-2.20,-1.79,-0.37,-0.36,-0.36
728,1.82,2.16,1.82,2.16,-2.16,-1.77,-0.33,-0.34,-0.34
735,1.79,2.11,1.79,2.11,-2.11,-1.75,-0.31,-0.32,-0.32
742,1.76,2.06,1.75,2.05,-2.05,-1.73,-0.29,-0.30,-0.30
750,1.73,2.02,1.72,2.00,-2.00,-1.71,-0.27,-0.28,-0.28
757,1.71,1.98,1.68,1.95,-1.95,-1.69,-0.24,-0.27,-0.27
765,1.64,1.90,1.65,1.91,-1.91,-1.66,-0.26,-0.26,-0.26
773,1.57,1.82,1.62,1.87,-1.87,-1.64,-0.29,-0.25,-0.25
780,1.56,1.80,1.60,1.83,-1.83,-1.62,-0.27,-0.24,-0.24
788,1.55,1.78,1.58,1.81,-1.81,-1.59,-0.26,-0.23,-0.23
796,1.55,1.77,1.58,1.79,-1.79,-1.56,-0.24,-0.22,-0.22
804,1.55,1.76,1.57,1.78,-1.78,-1.53,-0.22,-0.21,-0.21
812,1.56,1.77,1.56,1.76,-1.76,-1.50,-0.20,-0.20,-0.20
820,1.56,1.76,1.54,1.74,-1.74,-1.47,-0.17,-0.20,-0.20
828,1.57,1.76,1.52,1.70,-1.70,-1.44,-0.13,-0.19,-0.19
837,1.51,1.70,1.47,1.65,-1.65,-1.40,-0.14,-0.18,-0.18
845,1.42,1.60,1.41,1.59,-1.59,-1.37,-0.16,-0.18,-0.18
853,1.28,1.45,1.33,1.50,-1.50,-1.33,-0.21,-0.17,-0.17
862,1.22,1.39,1.23,1.39,-1.39,-1.28,-0.17,-0.16,-0.16
871,1.11,1.27,1.12,1.27,-1.27,-1.24,-0.16,-0.15,-0.15
879,1.06,1.21,0.99,1.14,-1.14,-1.19,-0.07,-0.15,-0.15
888,0.94,1.08,0.86,1.00,-1.00,-1.14,-0.05,-0.14,-0.14
897,0.73,0.86,0.73,0.86,-0.86,-1.09,-0.13,-0.13,-0.13
906,0.58,0.70,0.61,0.73,-0.73,-1.03,-0.15,-0.12,-0.12
915,0.40,0.52,0.51,0.62,-0.62,-0.97,-0.22,-0.11,-0.11
924,0.35,0.46,0.43,0.53,-0.53,-0.91,-0.18,-0.10,-0.10
933,0.21,0.30,0.37,0.46,-0.46,-0.84,-0.24,-0.09,-0.09
943,0.35,0.43,0.32,0.40,-0.40,-0.77,-0.05,-0.08,-0.08
952,0.32,0.39,0.29,0.35,-0.35,-0.69,-0.03,-0.07,-0.07
962,0.31,0.37,0.25,0.31,-0.31,-0.61,0.01,-0.05,-0.05
971,0.32,0.36,0.21,0.25,-0.25,-0.53,0.07,-0.04,-0.04
981,0.25,0.28,0.17,0.19,-0.19,-0.43,0.07,-0.02,-0.02
991,0.14,0.15,0.11,0.12,-0.12,-0.34,0.03,-0.01,-0.01
1001,-0.02,-0.03,0.05,0.04,-0.04,-0.24,-0.05,0.01,0.01
1011,-0.13,-0.16,-0.01,-0.05,0.05,-0.13,-0.08,0.03,0.03
1021,-0.11,-0.16,-0.07,-0.12,0.12,-0.02,0.02,0.06,0.06
1031,-0.08,-0.15,-0.12,-0.20,0.20,0.09,0.12,0.08,0.08
1041,-0.19,-0.29,-0.16,-0.26,0.26,0.21,0.08,0.10,0.10
1052,-0.26,-0.39,-0.19,-0.33,0.33,0.34,0.07,0.13,0.13
1062,-0.26,-0.42,-0.23,-0.39,0.39,0.46,0.14,0.16,0.16
1073,-0.23,-0.42,-0.28,-0.47,0.47,0.59,0.24,0.19,0.19
1084,-0.24,-0.46,-0.33,-0.55,0.55,0.72,0.32,0.22,0.22
1094,-0.32,-0.57,-0.40,-0.66,0.66,0.84,0.34,0.25,0.25
1105,-0.45,-0.73,-0.48,-0.77,0.77,0.97,0.33,0.29,0.29
1116,-0.59,-0.91,-0.58,-0.90,0.90,1.09,0.31,0.32,0.32
1128,-0.71,-1.06,-0.67,-1.03,1.03,1.21,0.32,0.36,0.36
1139,-0.78,-1.17,-0.76,-1.15,1.15,1.31,0.37,0.39,0.39
1150,-0.88,-1.30,-0.83,-1.26,1.26,1.39,0.38,0.42,0.42
1162,-0.94,-1.39,-0.89,-1.35,1.35,1.46,0.41,0.46,0.46
1173,-0.94,-1.42,-0.92,-1.41,1.41,1.51,0.48,0.49,0.49
1185,-0.94,-1.46,-0.93,-1.45,1.45,1.54,0.51,0.52,0.52
1197,-0.90,-1.44,-0.91,-1.46,1.46,1.55,0.56,0.55,0.55
1209,-0.84,-1.41,-0.86,-1.44,1.44,1.52,0.60,0.57,0.57
1221,-0.84,-1.43,-0.80,-1.39,1.39,1.48,0.56,0.60,0.60
1233,-0.75,-1.37,-0.71,-1.32,1.32,1.40,0.58,0.62,0.62
1246,-0.62,-1.25,-0.60,-1.24,1.24,1.30,0.62,0.64,0.64
1258,-0.48,-1.13,-0.48,-1.13,1.13,1.18,0.66,0.65,0.65
1271,-0.34,-1.00,-0.35,-1.02,1.02,1.03,0.68,0.67,0.67
1283,-0.19,-0.86,-0.22,-0.90,0.90,0.88,0.71,0.68,0.68
1296,-0.05,-0.73,-0.09,-0.77,0.77,0.70,0.72,0.68,0.68
1309,0.10,-0.58,0.05,-0.64,0.64,0.51,0.74,0.69,0.69
1322,0.22,-0.46,0.19,-0.50,0.50,0.32,0.72,0.69,0.69
1335,0.31,-0.37,0.34,-0.35,0.35,0.12,0.66,0.68,0.68
1349,0.38,-0.30,0.49,-0.19,0.19,-0.09,0.57,0.68,0.68
1362,0.62,-0.05,0.66,-0.01,0.01,-0.29,0.64,0.67,0.67
1376,0.86,0.20,0.85,0.18,-0.18,-0.49,0.68,0.67,0.67
1390,1.06,0.41,1.05,0.39,-0.39,-0.69,0.68,0.66,0.66
1404,1.25,0.60,1.26,0.61,-0.61,-0.88,0.65,0.65,0.65
1418,1.43,0.79,1.48,0.84,-0.84,-1.06,0.60,0.64,0.64
1432,1.71,1.08,1.70,1.07,-1.07,-1.22,0.64,0.63,0.63
1446,1.93,1.31,1.93,1.30,-1.30,-1.38,0.63,0.63,0.63
1461,2.16,1.54,2.15,1.53,-1.53,-1.54,0.64,0.62,0.62
1475,2.39,1.78,2.36,1.74,-1.74,-1.68,0.65,0.62,0.62
1490,2.57,1.96,2.56,1.94,-1.94,-1.81,0.63,0.62,0.62
1505,2.70,2.09,2.74,2.12,-2.12,-1.93,0.58,0.62,0.62
1520,2.89,2.27,2.91,2.28,-2.28,-2.04,0.61,0.62,0.62
1535,3.03,2.40,3.05,2.42,-2.42,-2.14,0.62,0.63,0.63
1550,3.19,2.55,3.17,2.52,-2.52,-2.23,0.67,0.65,0.65
1566,3.31,2.65,3.27,2.60,-2.60,-2.31,0.71,0.67,0.67
1582,3.42,2.73,3.35,2.65,-2.65,-2.39,0.77,0.69,0.69
1597,3.50,2.78,3.40,2.68,-2.68,-2.44,0.82,0.72,0.72
1613,3.42,2.67,3.45,2.70,-2.70,-2.50,0.73,0.76,0.75
1629,3.41,2.62,3.50,2.70,-2.70,-2.54,0.71,0.80,0.79
1646,3.47,2.63,3.54,2.70,-2.70,-2.58,0.77,0.84,0.84
1662,3.54,2.65,3.60,2.70,-2.70,-2.60,0.84,0.89,0.89
1679,3.59,2.65,3.66,2.71,-2.71,-2.62,0.88,0.95,0.95
1696,3.67,2.66,3.73,2.72,-2.72,-2.63,0.96,1.01,1.01
1713,3.86,2.79,3.80,2.72,-2.72,-2.64,1.14,1.08,1.08
1730,3.94,2.80,3.87,2.72,-2.72,-2.64,1.23,1.15,1.15
1747,3.94,2.72,3.92,2.70,-2.70,-2.63,1.25,1.23,1.23
1764,3.99,2.69,3.96,2.66,-2.66,-2.62,1.34,1.31,1.31
1782,4.03,2.64,3.99,2.60,-2.60,-2.60,1.44,1.39,1.39
1800,4.00,2.53,4.00,2.52,-2.52,-2.58,1.49,1.48,1.48
1818,3.97,2.40,3.99,2.42,-2.42,-2.55,1.55,1.57,1.57
1836,3.96,2.30,3.99,2.32,-2.32,-2.52,1.64,1.66,1.66
1854,3.97,2.21,3.98,2.22,-2.22,-2.49,1.76,1.76,1.76
