frequency,raw,error,smoothed,error_smoothed,equalization,parametric_eq,fixed_band_eq,equalized_raw,equalized_smoothed,target
20.00,12.70,8.98,12.70,8.98,-8.99,-9.24,-4.60,3.71,3.71,3.72
20.20,12.72,9.00,12.72,9.01,-9.01,-9.25,-4.72,3.72,3.72,3.72
20.40,12.74,9.02,12.75,9.03,-9.02,-9.26,-4.84,3.72,3.72,3.72
20.61,12.76,9.04,12.76,9.05,-9.04,-9.27,-4.97,3.72,3.72,3.72
20.81,12.78,9.08,12.78,9.07,-9.06,-9.28,-5.10,3.72,3.72,3.71
21.02,12.80,9.10,12.80,9.09,-9.08,-9.29,-5.24,3.72,3.71,3.71
21.23,12.80,9.10,12.81,9.10,-9.10,-9.30,-5.38,3.70,3.71,3.71
21.44,12.82,9.11,12.82,9.11,-9.12,-9.31,-5.52,3.70,3.70,3.72
21.66,12.84,9.14,12.84,9.13,-9.14,-9.32,-5.67,3.70,3.70,3.71
21.87,12.86,9.16,12.86,9.16,-9.16,-9.33,-5.82,3.70,3.70,3.71
22.09,12.88,9.19,12.88,9.19,-9.18,-9.34,-5.97,3.70,3.70,3.70
22.31,12.90,9.21,12.90,9.21,-9.21,-9.35,-6.13,3.70,3.70,3.69
22.54,12.92,9.24,12.92,9.23,-9.23,-9.36,-6.29,3.69,3.69,3.68
22.76,12.94,9.26,12.94,9.26,-9.26,-9.38,-6.46,3.69,3.68,3.68
22.99,12.95,9.27,12.96,9.28,-9.28,-9.39,-6.63,3.67,3.68,3.68
23.22,12.97,9.30,12.97,9.30,-9.30,-9.40,-6.81,3.67,3.67,3.67
23.45,12.99,9.32,12.99,9.32,-9.33,-9.41,-6.98,3.67,3.67,3.67
23.69,13.01,9.35,13.01,9.35,-9.35,-9.42,-7.17,3.67,3.67,3.66
23.92,13.03,9.38,13.03,9.37,-9.37,-9.43,-7.36,3.67,3.66,3.65
24.16,13.04,9.39,13.04,9.39,-9.39,-9.45,-7.55,3.65,3.65,3.65
24.40,13.05,9.40,13.06,9.41,-9.41,-9.46,-7.75,3.64,3.65,3.65
24.65,13.07,9.42,13.07,9.42,-9.43,-9.47,-7.95,3.64,3.64,3.65
24.89,13.09,9.45,13.09,9.44,-9.45,-9.48,-8.15,3.64,3.64,3.65
25.14,13.11,9.47,13.11,9.47,-9.47,-9.50,-8.36,3.65,3.64,3.65
25.39,13.12,9.49,13.13,9.49,-9.49,-9.51,-8.57,3.64,3.64,3.64
25.65,13.14,9.51,13.14,9.51,-9.50,-9.52,-8.78,3.64,3.64,3.64
25.91,13.16,9.53,13.16,9.52,-9.52,-9.53,-8.99,3.64,3.64,3.63
26.16,13.18,9.54,13.18,9.54,-9.54,-9.55,-9.21,3.64,3.64,3.64
26.43,13.19,9.55,13.20,9.55,-9.56,-9.56,-9.43,3.64,3.64,3.64
26.69,13.21,9.57,13.21,9.57,-9.57,-9.57,-9.64,3.64,3.64,3.64
26.96,13.23,9.59,13.23,9.59,-9.59,-9.58,-9.86,3.65,3.64,3.64
27.23,13.24,9.60,13.24,9.60,-9.60,-9.60,-10.08,3.64,3.64,3.64
27.50,13.25,9.61,13.26,9.62,-9.62,-9.61,-10.29,3.64,3.64,3.64
27.77,13.27,9.63,13.27,9.63,-9.63,-9.62,-10.50,3.64,3.64,3.65
28.05,13.29,9.66,13.29,9.65,-9.65,-9.64,-10.70,3.64,3.64,3.64
28.33,13.30,9.67,13.31,9.67,-9.67,-9.65,-10.90,3.63,3.63,3.64
28.62,13.32,9.70,13.32,9.69,-9.69,-9.67,-11.09,3.63,3.63,3.62
28.90,13.33,9.70,13.33,9.71,-9.71,-9.68,-11.27,3.62,3.62,3.63
29.19,13.35,9.73,13.35,9.73,-9.73,-9.69,-11.44,3.62,3.62,3.62
29.48,13.36,9.75,13.37,9.75,-9.75,-9.71,-11.59,3.61,3.62,3.61
29.78,13.38,9.77,13.38,9.77,-9.77,-9.72,-11.73,3.62,3.61,3.61
30.08,13.38,9.78,13.39,9.78,-9.78,-9.73,-11.85,3.60,3.60,3.61
30.38,13.39,9.80,13.39,9.80,-9.80,-9.75,-11.96,3.60,3.60,3.59
30.68,13.40,9.81,13.40,9.81,-9.81,-9.76,-12.05,3.59,3.59,3.59
30.99,13.41,9.82,13.41,9.82,-9.82,-9.78,-12.12,3.59,3.59,3.59
31.30,13.42,9.83,13.42,9.83,-9.83,-9.79,-12.17,3.59,3.59,3.59
31.61,13.43,9.85,13.43,9.84,-9.84,-9.80,-12.21,3.59,3.59,3.59
31.93,13.44,9.86,13.44,9.86,-9.85,-9.82,-12.22,3.59,3.59,3.59
32.24,13.45,9.86,13.45,9.87,-9.86,-9.83,-12.22,3.59,3.59,3.59
32.57,13.46,9.88,13.46,9.88,-9.87,-9.84,-12.19,3.59,3.59,3.58
32.89,13.47,9.88,13.47,9.88,-9.89,-9.86,-12.15,3.59,3.59,3.59
33.22,13.48,9.90,13.48,9.89,-9.90,-9.87,-12.10,3.59,3.58,3.59
33.55,13.48,9.90,13.49,9.91,-9.91,-9.89,-12.03,3.57,3.58,3.58
33.89,13.49,9.92,13.49,9.92,-9.92,-9.90,-11.95,3.57,3.57,3.57
34.23,13.50,9.94,13.50,9.94,-9.94,-9.91,-11.86,3.56,3.56,3.56
34.57,13.51,9.96,13.51,9.96,-9.95,-9.93,-11.76,3.56,3.55,3.56
34.92,13.51,9.98,13.51,9.98,-9.97,-9.94,-11.66,3.54,3.54,3.53
35.27,13.51,9.98,13.52,9.99,-9.99,-9.95,-11.55,3.52,3.52,3.53
35.62,13.52,10.03,13.52,10.01,-10.02,-9.97,-11.44,3.51,3.50,3.50
35.97,13.51,10.03,13.52,10.04,-10.04,-9.98,-11.32,3.47,3.48,3.48
36.33,13.52,10.06,13.52,10.06,-10.07,-10.00,-11.20,3.46,3.45,3.46
36.70,13.52,10.10,13.52,10.09,-10.09,-10.01,-11.09,3.43,3.43,3.43
37.06,13.52,10.12,13.52,10.12,-10.12,-10.02,-10.97,3.40,3.40,3.40
37.43,13.52,10.15,13.52,10.15,-10.15,-10.03,-10.85,3.37,3.37,3.37
37.81,13.52,10.18,13.52,10.18,-10.18,-10.05,-10.74,3.35,3.34,3.35
38.19,13.51,10.20,13.52,10.20,-10.20,-10.06,-10.63,3.31,3.31,3.31
38.57,13.51,10.23,13.51,10.23,-10.23,-10.07,-10.53,3.28,3.28,3.29
38.95,13.51,10.25,13.51,10.25,-10.25,-10.08,-10.43,3.26,3.26,3.26
39.34,13.51,10.29,13.51,10.28,-10.28,-10.10,-10.34,3.24,3.23,3.23
39.74,13.50,10.30,13.50,10.30,-10.30,-10.11,-10.25,3.21,3.21,3.20
40.14,13.49,10.32,13.49,10.31,-10.31,-10.12,-10.16,3.18,3.18,3.18
40.54,13.48,10.32,13.49,10.33,-10.33,-10.13,-10.09,3.15,3.16,3.16
40.94,13.48,10.35,13.48,10.34,-10.35,-10.14,-10.01,3.14,3.13,3.14
41.35,13.47,10.36,13.47,10.36,-10.36,-10.15,-9.95,3.11,3.12,3.11
41.76,13.46,10.38,13.46,10.37,-10.37,-10.16,-9.89,3.09,3.09,3.09
42.18,13.45,10.37,13.45,10.38,-10.38,-10.17,-9.84,3.08,3.07,3.08
42.60,13.43,10.38,13.44,10.38,-10.38,-10.18,-9.79,3.05,3.05,3.05
43.03,13.42,10.40,13.42,10.39,-10.39,-10.19,-9.76,3.03,3.03,3.03
43.46,13.40,10.39,13.41,10.40,-10.39,-10.20,-9.73,3.01,3.01,3.01
43.90,13.39,10.40,13.39,10.40,-10.40,-10.21,-9.70,3.00,2.99,2.99
44.33,13.37,10.41,13.37,10.40,-10.40,-10.22,-9.68,2.97,2.97,2.97
44.78,13.35,10.41,13.35,10.40,-10.41,-10.23,-9.67,2.95,2.95,2.95
45.23,13.33,10.39,13.33,10.41,-10.41,-10.24,-9.67,2.92,2.92,2.94
45.68,13.31,10.41,13.31,10.41,-10.41,-10.24,-9.67,2.90,2.90,2.90
46.13,13.29,10.43,13.29,10.42,-10.42,-10.25,-9.68,2.87,2.87,2.86
46.60,13.27,10.43,13.27,10.43,-10.43,-10.26,-9.70,2.85,2.85,2.84
47.06,13.25,10.44,13.25,10.44,-10.44,-10.26,-9.73,2.82,2.81,2.82
47.53,13.22,10.44,13.22,10.44,-10.45,-10.27,-9.76,2.78,2.78,2.79
48.01,13.19,10.46,13.20,10.46,-10.46,-10.27,-9.79,2.74,2.74,2.74
48.49,13.17,10.47,13.17,10.46,-10.47,-10.28,-9.83,2.71,2.70,2.71
48.97,13.14,10.48,13.14,10.48,-10.48,-10.28,-9.88,2.66,2.67,2.66
49.46,13.11,10.48,13.11,10.49,-10.49,-10.28,-9.94,2.63,2.63,2.63
49.96,13.08,10.51,13.08,10.50,-10.50,-10.29,-9.99,2.59,2.58,2.57
50.46,13.04,10.50,13.05,10.51,-10.50,-10.29,-10.06,2.54,2.54,2.54
50.96,13.01,10.51,13.01,10.51,-10.51,-10.29,-10.12,2.50,2.50,2.50
51.47,12.97,10.51,12.98,10.52,-10.51,-10.29,-10.20,2.46,2.47,2.47
51.99,12.94,10.52,12.94,10.52,-10.51,-10.29,-10.27,2.43,2.43,2.42
52.51,12.91,10.52,12.91,10.51,-10.51,-10.29,-10.35,2.40,2.39,2.39
53.03,12.86,10.50,12.87,10.51,-10.51,-10.29,-10.43,2.35,2.36,2.37
53.56,12.82,10.50,12.82,10.50,-10.51,-10.28,-10.51,2.31,2.31,2.32
54.10,12.78,10.51,12.78,10.50,-10.51,-10.28,-10.59,2.28,2.27,2.28
54.64,12.73,10.49,12.74,10.50,-10.50,-10.28,-10.67,2.23,2.24,2.24
55.18,12.69,10.50,12.69,10.50,-10.49,-10.27,-10.75,2.20,2.20,2.19
55.74,12.65,10.50,12.65,10.49,-10.48,-10.27,-10.83,2.17,2.17,2.16
56.29,12.60,10.47,12.60,10.48,-10.47,-10.26,-10.91,2.13,2.13,2.13
56.86,12.55,10.45,12.55,10.46,-10.46,-10.25,-10.98,2.10,2.10,2.10
57.42,12.50,10.45,12.50,10.44,-10.44,-10.24,-11.04,2.07,2.07,2.05
58.00,12.45,10.43,12.45,10.42,-10.42,-10.23,-11.10,2.04,2.03,2.03
58.58,12.40,10.40,12.40,10.40,-10.40,-10.22,-11.15,2.01,2.00,2.01
59.16,12.34,10.37,12.35,10.37,-10.38,-10.21,-11.19,1.96,1.97,1.98
59.76,12.29,10.35,12.29,10.35,-10.36,-10.20,-11.22,1.93,1.93,1.94
60.35,12.23,10.34,12.24,10.34,-10.35,-10.18,-11.24,1.88,1.89,1.89
60.96,12.18,10.33,12.18,10.33,-10.34,-10.17,-11.25,1.84,1.84,1.85
61.57,12.12,10.34,12.12,10.33,-10.33,-10.15,-11.25,1.80,1.79,1.79
62.18,12.05,10.32,12.06,10.32,-10.32,-10.13,-11.23,1.74,1.74,1.73
62.80,12.00,10.31,12.00,10.31,-10.30,-10.12,-11.20,1.70,1.69,1.69
63.43,11.93,10.30,11.94,10.30,-10.29,-10.10,-11.16,1.65,1.65,1.63
64.07,11.87,10.27,11.87,10.27,-10.27,-10.08,-11.11,1.61,1.60,1.60
64.71,11.80,10.24,11.80,10.24,-10.24,-10.05,-11.04,1.56,1.56,1.56
65.35,11.73,10.21,11.74,10.21,-10.22,-10.03,-10.97,1.52,1.52,1.52
66.01,11.67,10.19,11.67,10.18,-10.19,-10.01,-10.88,1.49,1.48,1.49
66.67,11.60,10.15,11.60,10.15,-10.15,-9.98,-10.78,1.45,1.45,1.46
67.33,11.52,10.11,11.53,10.12,-10.12,-9.95,-10.67,1.41,1.41,1.41
68.01,11.45,10.09,11.45,10.09,-10.08,-9.92,-10.55,1.37,1.37,1.37
68.69,11.38,10.06,11.38,10.05,-10.05,-9.89,-10.43,1.34,1.33,1.33
69.37,11.30,10.01,11.30,10.01,-10.01,-9.86,-10.30,1.29,1.29,1.29
70.07,11.22,9.96,11.22,9.97,-9.97,-9.83,-10.17,1.25,1.25,1.26
70.77,11.14,9.93,11.14,9.93,-9.93,-9.80,-10.03,1.21,1.21,1.22
71.48,11.06,9.89,11.06,9.89,-9.89,-9.76,-9.89,1.17,1.17,1.17
72.19,10.98,9.86,10.98,9.85,-9.85,-9.72,-9.74,1.13,1.13,1.13
72.91,10.90,9.81,10.90,9.81,-9.81,-9.68,-9.60,1.09,1.09,1.09
73.64,10.81,9.77,10.81,9.77,-9.76,-9.65,-9.46,1.05,1.05,1.04
74.38,10.72,9.72,10.72,9.72,-9.72,-9.60,-9.31,1.01,1.01,1.01
75.12,10.63,9.67,10.64,9.67,-9.67,-9.56,-9.17,0.97,0.97,0.97
75.87,10.55,9.61,10.55,9.61,-9.61,-9.52,-9.03,0.94,0.94,0.95
76.63,10.46,9.56,10.46,9.55,-9.55,-9.47,-8.89,0.91,0.91,0.91
77.40,10.36,9.49,10.37,9.49,-9.49,-9.42,-8.76,0.87,0.87,0.87
78.17,10.27,9.44,10.27,9.43,-9.43,-9.37,-8.63,0.84,0.84,0.83
78.95,10.17,9.35,10.17,9.36,-9.36,-9.32,-8.50,0.81,0.81,0.82
79.74,10.08,9.30,10.08,9.30,-9.30,-9.27,-8.38,0.78,0.78,0.78
80.54,9.98,9.23,9.99,9.23,-9.23,-9.22,-8.26,0.75,0.75,0.75
81.35,9.89,9.17,9.89,9.16,-9.17,-9.16,-8.15,0.73,0.72,0.72
82.16,9.78,9.09,9.79,9.09,-9.10,-9.10,-8.04,0.69,0.69,0.70
82.98,9.68,9.02,9.69,9.02,-9.03,-9.05,-7.93,0.66,0.66,0.66
83.81,9.59,8.96,9.58,8.96,-8.95,-8.99,-7.84,0.64,0.63,0.63
84.65,9.48,8.89,9.48,8.89,-8.88,-8.92,-7.74,0.60,0.60,0.59
85.50,9.37,8.81,9.38,8.81,-8.81,-8.86,-7.65,0.57,0.57,0.56
86.35,9.27,8.73,9.27,8.73,-8.73,-8.80,-7.57,0.54,0.54,0.54
87.22,9.16,8.65,9.16,8.65,-8.66,-8.73,-7.49,0.51,0.51,0.51
88.09,9.06,8.58,9.06,8.58,-8.58,-8.66,-7.42,0.48,0.48,0.48
88.97,8.94,8.49,8.95,8.50,-8.50,-8.59,-7.36,0.44,0.45,0.45
89.86,8.84,8.43,8.84,8.42,-8.42,-8.52,-7.29,0.42,0.42,0.42
90.76,8.73,8.35,8.73,8.35,-8.34,-8.45,-7.24,0.39,0.38,0.38
91.66,8.61,8.26,8.62,8.27,-8.27,-8.37,-7.19,0.35,0.35,0.35
92.58,8.50,8.19,8.50,8.19,-8.19,-8.30,-7.14,0.31,0.31,0.31
93.51,8.39,8.11,8.39,8.11,-8.12,-8.22,-7.10,0.28,0.28,0.28
94.44,8.28,8.04,8.28,8.04,-8.04,-8.14,-7.06,0.24,0.24,0.24
95.39,8.16,7.97,8.17,7.97,-7.97,-8.06,-7.03,0.19,0.20,0.20
96.34,8.05,7.90,8.05,7.90,-7.90,-7.98,-7.00,0.15,0.15,0.15
97.30,7.93,7.82,7.93,7.83,-7.83,-7.90,-6.98,0.10,0.11,0.12
98.28,7.82,7.76,7.82,7.76,-7.76,-7.82,-6.96,0.07,0.06,0.06
99.26,7.70,7.69,7.70,7.69,-7.68,-7.74,-6.95,0.02,0.02,0.01
100.25,7.59,7.62,7.59,7.62,-7.61,-7.65,-6.94,-0.02,-0.02,-0.03
101.25,7.47,7.54,7.47,7.54,-7.54,-7.57,-6.93,-0.06,-0.06,-0.06
102.27,7.36,7.46,7.36,7.46,-7.46,-7.49,-6.93,-0.10,-0.10,-0.10
103.29,7.24,7.38,7.25,7.38,-7.38,-7.41,-6.92,-0.14,-0.14,-0.14
104.32,7.13,7.30,7.13,7.30,-7.30,-7.32,-6.93,-0.17,-0.17,-0.17
105.37,7.02,7.23,7.02,7.22,-7.22,-7.24,-6.93,-0.20,-0.20,-0.20
106.42,6.90,7.14,6.91,7.15,-7.14,-7.17,-6.93,-0.24,-0.24,-0.23
107.48,6.79,7.07,6.79,7.07,-7.06,-7.09,-6.94,-0.27,-0.27,-0.28
108.56,6.68,6.99,6.68,6.98,-6.98,-7.01,-6.95,-0.30,-0.31,-0.31
109.64,6.56,6.90,6.57,6.91,-6.91,-6.94,-6.95,-0.34,-0.34,-0.34
110.74,6.45,6.83,6.46,6.83,-6.83,-6.87,-6.96,-0.38,-0.38,-0.37
111.85,6.35,6.76,6.35,6.76,-6.76,-6.80,-6.96,-0.41,-0.41,-0.41
112.97,6.24,6.69,6.24,6.69,-6.69,-6.74,-6.97,-0.45,-0.45,-0.45
114.10,6.13,6.62,6.13,6.62,-6.62,-6.68,-6.97,-0.49,-0.49,-0.48
115.24,6.02,6.55,6.03,6.56,-6.56,-6.62,-6.97,-0.54,-0.53,-0.53
116.39,5.92,6.51,5.92,6.50,-6.50,-6.56,-6.97,-0.58,-0.58,-0.59
117.55,5.82,6.44,5.82,6.45,-6.44,-6.50,-6.96,-0.62,-0.62,-0.62
118.73,5.71,6.39,5.72,6.39,-6.39,-6.45,-6.95,-0.67,-0.67,-0.68
119.92,5.61,6.33,5.61,6.33,-6.33,-6.39,-6.94,-0.72,-0.72,-0.72
121.12,5.51,6.27,5.52,6.28,-6.28,-6.34,-6.92,-0.77,-0.76,-0.76
122.33,5.42,6.23,5.42,6.23,-6.23,-6.29,-6.90,-0.81,-0.81,-0.81
123.55,5.33,6.18,5.33,6.18,-6.18,-6.24,-6.87,-0.85,-0.85,-0.85
124.79,5.24,6.14,5.24,6.14,-6.14,-6.19,-6.84,-0.90,-0.90,-0.89
126.03,5.14,6.09,5.15,6.09,-6.10,-6.14,-6.80,-0.95,-0.95,-0.95
127.29,5.05,6.06,5.05,6.05,-6.06,-6.09,-6.76,-1.00,-1.01,-1.01
128.57,4.96,6.02,4.96,6.02,-6.02,-6.05,-6.71,-1.06,-1.06,-1.06
129.85,4.87,5.98,4.88,5.98,-5.98,-6.00,-6.65,-1.11,-1.11,-1.11
131.15,4.79,5.95,4.79,5.94,-5.94,-5.95,-6.60,-1.15,-1.15,-1.16
132.46,4.70,5.91,4.71,5.91,-5.90,-5.90,-6.53,-1.20,-1.20,-1.20
133.79,4.62,5.86,4.62,5.87,-5.86,-5.86,-6.47,-1.24,-1.24,-1.24
135.12,4.54,5.83,4.54,5.82,-5.82,-5.81,-6.40,-1.28,-1.28,-1.29
136.48,4.46,5.78,4.46,5.78,-5.78,-5.76,-6.32,-1.32,-1.32,-1.31
137.84,4.38,5.73,4.38,5.74,-5.74,-5.71,-6.25,-1.35,-1.35,-1.35
139.22,4.30,5.70,4.30,5.69,-5.69,-5.67,-6.17,-1.39,-1.39,-1.39
140.61,4.22,5.64,4.23,5.65,-5.65,-5.62,-6.08,-1.42,-1.42,-1.42
142.02,4.15,5.60,4.15,5.60,-5.60,-5.57,-6.00,-1.45,-1.45,-1.45
143.44,4.08,5.56,4.08,5.56,-5.56,-5.53,-5.92,-1.47,-1.48,-1.48
144.87,4.00,5.51,4.01,5.51,-5.51,-5.48,-5.83,-1.51,-1.51,-1.50
146.32,3.93,5.47,3.93,5.47,-5.47,-5.44,-5.75,-1.54,-1.53,-1.53
147.78,3.86,5.42,3.86,5.42,-5.42,-5.39,-5.66,-1.56,-1.56,-1.56
149.26,3.79,5.38,3.79,5.38,-5.38,-5.35,-5.58,-1.59,-1.59,-1.59
150.75,3.71,5.34,3.72,5.34,-5.34,-5.30,-5.49,-1.63,-1.62,-1.63
152.26,3.65,5.30,3.65,5.30,-5.30,-5.26,-5.41,-1.64,-1.65,-1.64
153.78,3.57,5.25,3.57,5.25,-5.25,-5.22,-5.33,-1.68,-1.68,-1.68
155.32,3.50,5.21,3.50,5.21,-5.21,-5.17,-5.25,-1.71,-1.71,-1.71
156.88,3.43,5.17,3.43,5.17,-5.17,-5.13,-5.17,-1.74,-1.74,-1.74
158.44,3.36,5.14,3.36,5.13,-5.14,-5.09,-5.09,-1.77,-1.77,-1.77
160.03,3.29,5.10,3.29,5.10,-5.10,-5.05,-5.02,-1.80,-1.81,-1.81
161.63,3.21,5.05,3.22,5.06,-5.06,-5.01,-4.95,-1.85,-1.84,-1.84
163.24,3.14,5.03,3.14,5.03,-5.02,-4.97,-4.88,-1.88,-1.88,-1.89
164.88,3.07,4.99,3.07,4.99,-4.99,-4.93,-4.82,-1.91,-1.92,-1.92
166.53,3.00,4.96,3.00,4.95,-4.95,-4.89,-4.75,-1.95,-1.95,-1.96
168.19,2.92,4.91,2.93,4.91,-4.91,-4.85,-4.69,-1.99,-1.99,-1.99
169.87,2.85,4.88,2.85,4.88,-4.88,-4.81,-4.64,-2.03,-2.03,-2.02
171.57,2.77,4.84,2.77,4.84,-4.84,-4.78,-4.59,-2.07,-2.07,-2.07
173.29,2.70,4.81,2.70,4.81,-4.80,-4.74,-4.54,-2.10,-2.10,-2.11
175.02,2.62,4.76,2.63,4.77,-4.77,-4.70,-4.49,-2.14,-2.14,-2.14
176.77,2.55,4.73,2.55,4.73,-4.73,-4.67,-4.45,-2.18,-2.18,-2.18
178.54,2.48,4.69,2.48,4.69,-4.69,-4.63,-4.41,-2.21,-2.21,-2.21
180.32,2.41,4.67,2.41,4.66,-4.66,-4.60,-4.37,-2.24,-2.25,-2.25
182.13,2.33,4.62,2.34,4.62,-4.62,-4.57,-4.34,-2.29,-2.28,-2.28
183.95,2.26,4.58,2.26,4.58,-4.58,-4.53,-4.31,-2.32,-2.32,-2.32
185.79,2.19,4.55,2.19,4.55,-4.55,-4.50,-4.28,-2.36,-2.36,-2.36
187.65,2.12,4.51,2.12,4.51,-4.52,-4.47,-4.25,-2.39,-2.39,-2.39
189.52,2.05,4.48,2.05,4.48,-4.49,-4.44,-4.23,-2.43,-2.43,-2.43
191.42,1.98,4.45,1.99,4.45,-4.46,-4.41,-4.21,-2.47,-2.47,-2.47
193.33,1.92,4.43,1.92,4.43,-4.43,-4.38,-4.20,-2.51,-2.51,-2.51
195.27,1.86,4.41,1.86,4.40,-4.40,-4.35,-4.19,-2.54,-2.54,-2.54
197.22,1.80,4.38,1.80,4.38,-4.38,-4.32,-4.18,-2.57,-2.58,-2.58
199.19,1.74,4.35,1.74,4.35,-4.35,-4.30,-4.17,-2.61,-2.61,-2.61
201.18,1.68,4.33,1.69,4.33,-4.33,-4.27,-4.16,-2.64,-2.64,-2.64
203.19,1.63,4.30,1.63,4.30,-4.30,-4.24,-4.16,-2.67,-2.67,-2.67
205.23,1.57,4.27,1.57,4.27,-4.27,-4.22,-4.16,-2.70,-2.70,-2.69
207.28,1.52,4.24,1.52,4.24,-4.24,-4.19,-4.15,-2.72,-2.72,-2.72
209.35,1.45,4.21,1.46,4.21,-4.21,-4.17,-4.15,-2.76,-2.75,-2.75
211.44,1.40,4.18,1.40,4.18,-4.18,-4.14,-4.16,-2.78,-2.78,-2.78
213.56,1.34,4.15,1.34,4.15,-4.15,-4.12,-4.16,-2.81,-2.81,-2.81
215.69,1.28,4.12,1.28,4.12,-4.12,-4.09,-4.16,-2.83,-2.83,-2.83
217.85,1.22,4.08,1.23,4.09,-4.08,-4.07,-4.16,-2.86,-2.86,-2.86
220.03,1.17,4.06,1.17,4.05,-4.05,-4.05,-4.17,-2.88,-2.88,-2.89
222.23,1.11,4.02,1.11,4.02,-4.02,-4.02,-4.17,-2.90,-2.91,-2.91
224.45,1.05,3.98,1.05,3.98,-3.98,-4.00,-4.17,-2.93,-2.93,-2.93
226.70,0.99,3.94,1.00,3.95,-3.95,-3.98,-4.17,-2.96,-2.95,-2.95
228.96,0.95,3.91,0.95,3.91,-3.92,-3.96,-4.17,-2.97,-2.97,-2.96
231.25,0.91,3.89,0.90,3.89,-3.89,-3.93,-4.17,-2.98,-2.99,-2.98
233.57,0.85,3.85,0.86,3.86,-3.86,-3.91,-4.16,-3.01,-3.00,-3.00
235.90,0.81,3.84,0.81,3.84,-3.84,-3.89,-4.16,-3.02,-3.02,-3.03
238.26,0.77,3.82,0.77,3.81,-3.81,-3.87,-4.15,-3.04,-3.04,-3.05
240.64,0.73,3.78,0.74,3.79,-3.79,-3.85,-4.14,-3.06,-3.05,-3.05
243.05,0.70,3.77,0.70,3.77,-3.77,-3.83,-4.12,-3.06,-3.07,-3.07
245.48,0.66,3.75,0.66,3.75,-3.74,-3.81,-4.10,-3.08,-3.08,-3.08
247.93,0.62,3.72,0.63,3.72,-3.72,-3.79,-4.08,-3.10,-3.09,-3.10
250.41,0.60,3.70,0.60,3.70,-3.70,-3.77,-4.06,-3.10,-3.10,-3.10
252.92,0.56,3.67,0.56,3.68,-3.68,-3.75,-4.03,-3.11,-3.11,-3.11
255.45,0.53,3.66,0.53,3.65,-3.66,-3.73,-4.00,-3.12,-3.12,-3.12
258.00,0.50,3.63,0.50,3.63,-3.63,-3.71,-3.97,-3.13,-3.13,-3.13
260.58,0.47,3.61,0.47,3.61,-3.61,-3.69,-3.93,-3.14,-3.14,-3.14
263.19,0.44,3.60,0.44,3.59,-3.59,-3.67,-3.89,-3.15,-3.15,-3.15
265.82,0.42,3.58,0.42,3.58,-3.57,-3.65,-3.85,-3.15,-3.16,-3.16
268.48,0.38,3.55,0.39,3.55,-3.56,-3.63,-3.81,-3.17,-3.17,-3.16
271.16,0.36,3.54,0.36,3.53,-3.54,-3.61,-3.76,-3.17,-3.18,-3.18
273.87,0.32,3.51,0.33,3.52,-3.52,-3.59,-3.71,-3.19,-3.19,-3.18
276.61,0.30,3.50,0.30,3.50,-3.50,-3.57,-3.66,-3.19,-3.20,-3.20
279.38,0.27,3.49,0.27,3.48,-3.48,-3.55,-3.60,-3.20,-3.21,-3.21
282.17,0.24,3.46,0.24,3.46,-3.46,-3.53,-3.55,-3.21,-3.21,-3.22
284.99,0.21,3.43,0.21,3.43,-3.44,-3.51,-3.49,-3.22,-3.22,-3.21
287.84,0.18,3.40,0.19,3.41,-3.41,-3.49,-3.44,-3.23,-3.23,-3.22
290.72,0.16,3.41,0.16,3.39,-3.39,-3.47,-3.38,-3.23,-3.23,-3.24
293.63,0.13,3.37,0.14,3.37,-3.37,-3.44,-3.32,-3.24,-3.23,-3.24
296.57,0.11,3.35,0.11,3.35,-3.35,-3.42,-3.26,-3.23,-3.24,-3.24
299.53,0.08,3.33,0.08,3.33,-3.33,-3.40,-3.21,-3.24,-3.24,-3.24
302.53,0.05,3.30,0.06,3.30,-3.31,-3.38,-3.15,-3.25,-3.25,-3.25
305.55,0.03,3.28,0.03,3.28,-3.28,-3.35,-3.09,-3.25,-3.26,-3.25
308.61,0.00,3.26,0.01,3.26,-3.26,-3.33,-3.03,-3.26,-3.26,-3.25
311.69,-0.02,3.24,-0.02,3.24,-3.24,-3.31,-2.98,-3.26,-3.26,-3.26
314.81,-0.04,3.22,-0.04,3.22,-3.22,-3.28,-2.92,-3.26,-3.26,-3.26
317.96,-0.06,3.21,-0.06,3.20,-3.20,-3.26,-2.87,-3.26,-3.26,-3.26
321.14,-0.08,3.18,-0.08,3.18,-3.18,-3.23,-2.82,-3.26,-3.26,-3.26
324.35,-0.11,3.16,-0.10,3.15,-3.16,-3.21,-2.77,-3.26,-3.26,-3.27
327.59,-0.13,3.12,-0.13,3.13,-3.14,-3.18,-2.72,-3.26,-3.26,-3.25
330.87,-0.15,3.11,-0.15,3.11,-3.11,-3.16,-2.67,-3.26,-3.26,-3.25
334.18,-0.17,3.10,-0.17,3.09,-3.09,-3.13,-2.63,-3.26,-3.26,-3.27
337.52,-0.19,3.07,-0.19,3.07,-3.07,-3.10,-2.58,-3.26,-3.26,-3.26
340.90,-0.21,3.05,-0.21,3.05,-3.05,-3.08,-2.54,-3.25,-3.26,-3.26
344.30,-0.24,3.02,-0.23,3.02,-3.02,-3.05,-2.50,-3.26,-3.26,-3.25
347.75,-0.26,2.99,-0.25,3.00,-3.00,-3.02,-2.46,-3.26,-3.25,-3.25
351.23,-0.27,2.99,-0.27,2.98,-2.98,-2.99,-2.42,-3.25,-3.25,-3.26
354.74,-0.29,2.95,-0.29,2.96,-2.96,-2.96,-2.38,-3.24,-3.24,-3.24
358.28,-0.32,2.93,-0.31,2.94,-2.93,-2.93,-2.35,-3.25,-3.24,-3.25
361.87,-0.33,2.92,-0.33,2.91,-2.91,-2.90,-2.32,-3.24,-3.24,-3.24
365.49,-0.36,2.89,-0.36,2.89,-2.89,-2.87,-2.29,-3.24,-3.24,-3.24
369.14,-0.39,2.85,-0.38,2.86,-2.86,-2.84,-2.26,-3.25,-3.24,-3.24
372.83,-0.40,2.84,-0.40,2.83,-2.84,-2.81,-2.23,-3.23,-3.24,-3.24
376.56,-0.43,2.81,-0.42,2.81,-2.81,-2.78,-2.21,-3.24,-3.24,-3.24
380.33,-0.45,2.79,-0.45,2.79,-2.79,-2.75,-2.18,-3.23,-3.23,-3.24
384.13,-0.48,2.76,-0.48,2.76,-2.76,-2.72,-2.16,-3.24,-3.24,-3.24
387.97,-0.51,2.73,-0.51,2.73,-2.73,-2.69,-2.14,-3.24,-3.24,-3.23
391.85,-0.54,2.70,-0.53,2.70,-2.70,-2.66,-2.12,-3.24,-3.24,-3.23
395.77,-0.56,2.68,-0.56,2.67,-2.68,-2.63,-2.10,-3.23,-3.24,-3.24
399.73,-0.59,2.65,-0.59,2.65,-2.64,-2.59,-2.08,-3.23,-3.23,-3.24
403.72,-0.62,2.61,-0.62,2.62,-2.61,-2.56,-2.07,-3.23,-3.23,-3.23
407.76,-0.65,2.58,-0.65,2.58,-2.58,-2.53,-2.05,-3.23,-3.23,-3.23
411.84,-0.68,2.55,-0.68,2.55,-2.55,-2.49,-2.04,-3.23,-3.23,-3.23
415.96,-0.71,2.51,-0.71,2.52,-2.52,-2.46,-2.03,-3.23,-3.23,-3.22
420.12,-0.75,2.49,-0.74,2.49,-2.49,-2.43,-2.02,-3.23,-3.23,-3.23
424.32,-0.78,2.46,-0.78,2.45,-2.45,-2.40,-2.00,-3.23,-3.23,-3.23
428.56,-0.81,2.42,-0.81,2.42,-2.42,-2.36,-1.99,-3.23,-3.23,-3.22
432.85,-0.84,2.39,-0.84,2.39,-2.39,-2.33,-1.98,-3.23,-3.23,-3.22
437.18,-0.88,2.36,-0.87,2.36,-2.36,-2.29,-1.97,-3.23,-3.23,-3.24
441.55,-0.91,2.33,-0.91,2.33,-2.32,-2.26,-1.96,-3.23,-3.23,-3.24
445.96,-0.95,2.29,-0.95,2.29,-2.29,-2.23,-1.95,-3.23,-3.24,-3.24
450.42,-0.99,2.25,-0.99,2.25,-2.25,-2.19,-1.94,-3.24,-3.24,-3.24
