frequency,raw,error,smoothed,error_smoothed,equalization,parametric_eq,fixed_band_eq,equalized_raw,equalized_smoothed,target
20.00,7.38,1.97,7.38,1.97,-1.97,-2.35,-1.41,5.41,5.41,5.41
20.20,7.40,1.99,7.40,1.99,-1.99,-2.37,-1.45,5.41,5.41,5.41
20.40,7.42,2.01,7.42,2.01,-2.01,-2.39,-1.49,5.41,5.41,5.41
20.61,7.44,2.03,7.44,2.03,-2.04,-2.41,-1.53,5.40,5.40,5.41
20.81,7.47,2.06,7.47,2.06,-2.07,-2.42,-1.57,5.40,5.40,5.41
21.02,7.49,2.08,7.49,2.09,-2.10,-2.44,-1.62,5.39,5.40,5.41
21.23,7.52,2.13,7.52,2.13,-2.13,-2.46,-1.66,5.39,5.39,5.39
21.44,7.54,2.16,7.54,2.16,-2.16,-2.48,-1.71,5.38,5.37,5.38
21.66,7.56,2.20,7.56,2.20,-2.20,-2.50,-1.76,5.36,5.36,5.36
21.87,7.58,2.24,7.58,2.24,-2.24,-2.52,-1.81,5.34,5.34,5.34
22.09,7.61,2.28,7.61,2.29,-2.29,-2.54,-1.86,5.32,5.32,5.33
22.31,7.63,2.33,7.63,2.33,-2.33,-2.56,-1.91,5.30,5.30,5.30
22.54,7.65,2.37,7.65,2.37,-2.38,-2.58,-1.96,5.27,5.28,5.28
22.76,7.67,2.41,7.67,2.42,-2.42,-2.60,-2.02,5.25,5.25,5.25
22.99,7.69,2.46,7.69,2.46,-2.46,-2.62,-2.07,5.23,5.23,5.22
23.22,7.70,2.50,7.71,2.51,-2.50,-2.65,-2.13,5.20,5.20,5.19
23.45,7.73,2.56,7.72,2.55,-2.54,-2.67,-2.19,5.19,5.18,5.17
23.69,7.74,2.58,7.74,2.58,-2.58,-2.69,-2.25,5.16,5.16,5.16
23.92,7.76,2.62,7.76,2.61,-2.61,-2.71,-2.31,5.15,5.15,5.14
24.16,7.78,2.65,7.77,2.64,-2.65,-2.74,-2.37,5.13,5.13,5.13
24.40,7.78,2.67,7.79,2.68,-2.68,-2.76,-2.43,5.10,5.11,5.11
24.65,7.80,2.71,7.80,2.70,-2.71,-2.78,-2.49,5.09,5.09,5.09
24.89,7.81,2.74,7.81,2.74,-2.74,-2.81,-2.56,5.07,5.07,5.07
25.14,7.83,2.77,7.83,2.77,-2.77,-2.83,-2.62,5.06,5.06,5.06
25.39,7.84,2.80,7.84,2.80,-2.80,-2.86,-2.69,5.04,5.04,5.04
25.65,7.86,2.83,7.86,2.84,-2.84,-2.88,-2.76,5.02,5.02,5.03
25.91,7.88,2.88,7.88,2.87,-2.87,-2.91,-2.82,5.01,5.01,5.00
26.16,7.90,2.91,7.89,2.91,-2.90,-2.93,-2.89,4.99,4.99,4.99
26.43,7.91,2.93,7.91,2.94,-2.94,-2.96,-2.96,4.97,4.97,4.98
26.69,7.93,2.97,7.93,2.97,-2.97,-2.99,-3.02,4.96,4.96,4.96
26.96,7.96,3.01,7.95,3.01,-3.01,-3.01,-3.09,4.95,4.95,4.95
27.23,7.98,3.04,7.97,3.04,-3.04,-3.04,-3.16,4.94,4.93,4.94
27.50,7.99,3.06,7.99,3.07,-3.07,-3.07,-3.22,4.91,4.92,4.93
27.77,8.01,3.11,8.01,3.10,-3.11,-3.10,-3.28,4.90,4.90,4.90
28.05,8.04,3.15,8.03,3.14,-3.14,-3.12,-3.35,4.90,4.89,4.89
28.33,8.05,3.18,8.06,3.18,-3.18,-3.15,-3.41,4.87,4.88,4.87
28.62,8.08,3.22,8.08,3.21,-3.21,-3.18,-3.47,4.87,4.87,4.86
28.90,8.10,3.25,8.09,3.25,-3.24,-3.21,-3.52,4.86,4.85,4.85
29.19,8.11,3.28,8.12,3.28,-3.28,-3.24,-3.58,4.83,4.84,4.83
29.48,8.14,3.31,8.14,3.31,-3.31,-3.27,-3.63,4.83,4.83,4.83
29.78,8.16,3.34,8.16,3.34,-3.34,-3.30,-3.68,4.82,4.81,4.82
30.08,8.18,3.37,8.18,3.37,-3.38,-3.34,-3.73,4.80,4.80,4.81
30.38,8.20,3.41,8.20,3.41,-3.41,-3.37,-3.77,4.79,4.79,4.79
30.68,8.22,3.44,8.22,3.45,-3.45,-3.40,-3.81,4.77,4.77,4.78
30.99,8.25,3.49,8.24,3.49,-3.49,-3.43,-3.85,4.76,4.76,4.75
31.30,8.27,3.53,8.27,3.52,-3.53,-3.46,-3.88,4.74,4.74,4.74
31.61,8.29,3.56,8.29,3.57,-3.57,-3.50,-3.91,4.72,4.73,4.73
31.93,8.32,3.61,8.32,3.61,-3.61,-3.53,-3.94,4.71,4.70,4.71
32.24,8.34,3.66,8.34,3.65,-3.66,-3.57,-3.97,4.68,4.69,4.68
32.57,8.37,3.70,8.37,3.70,-3.70,-3.60,-3.99,4.67,4.67,4.67
32.89,8.40,3.74,8.40,3.75,-3.75,-3.64,-4.01,4.65,4.65,4.66
33.22,8.43,3.80,8.43,3.80,-3.80,-3.67,-4.02,4.63,4.63,4.62
33.55,8.46,3.85,8.46,3.85,-3.85,-3.71,-4.04,4.61,4.61,4.61
33.89,8.49,3.90,8.49,3.90,-3.90,-3.74,-4.05,4.59,4.59,4.59
34.23,8.52,3.95,8.52,3.95,-3.95,-3.78,-4.06,4.57,4.57,4.57
34.57,8.55,4.00,8.55,4.00,-4.00,-3.82,-4.07,4.55,4.55,4.55
34.92,8.58,4.05,8.58,4.05,-4.05,-3.86,-4.08,4.53,4.53,4.53
35.27,8.61,4.09,8.61,4.10,-4.10,-3.89,-4.09,4.51,4.51,4.51
35.62,8.64,4.15,8.64,4.15,-4.15,-3.93,-4.09,4.49,4.49,4.49
35.97,8.68,4.21,8.68,4.20,-4.20,-3.97,-4.10,4.47,4.47,4.47
36.33,8.72,4.26,8.71,4.26,-4.26,-4.01,-4.11,4.46,4.46,4.46
36.70,8.74,4.30,8.75,4.31,-4.31,-4.05,-4.11,4.43,4.44,4.44
37.06,8.79,4.38,8.78,4.37,-4.37,-4.09,-4.12,4.42,4.41,4.41
37.43,8.82,4.42,8.82,4.42,-4.43,-4.13,-4.13,4.39,4.39,4.40
37.81,8.86,4.48,8.86,4.48,-4.48,-4.17,-4.14,4.37,4.38,4.38
38.19,8.90,4.54,8.90,4.54,-4.54,-4.21,-4.15,4.36,4.36,4.36
38.57,8.94,4.60,8.94,4.60,-4.60,-4.25,-4.17,4.34,4.34,4.34
38.95,8.98,4.66,8.98,4.66,-4.66,-4.30,-4.18,4.32,4.32,4.32
39.34,9.02,4.72,9.02,4.72,-4.71,-4.34,-4.20,4.31,4.30,4.30
39.74,9.05,4.78,9.05,4.77,-4.77,-4.38,-4.22,4.28,4.28,4.27
40.14,9.09,4.82,9.09,4.82,-4.82,-4.43,-4.24,4.27,4.26,4.27
40.54,9.12,4.87,9.12,4.87,-4.88,-4.47,-4.26,4.24,4.25,4.25
40.94,9.16,4.93,9.16,4.93,-4.93,-4.51,-4.29,4.23,4.23,4.23
41.35,9.19,4.98,9.19,4.98,-4.97,-4.56,-4.32,4.22,4.22,4.21
41.76,9.23,5.02,9.23,5.03,-5.02,-4.60,-4.36,4.21,4.20,4.21
42.18,9.26,5.07,9.26,5.07,-5.07,-4.65,-4.39,4.19,4.19,4.19
42.60,9.29,5.12,9.29,5.11,-5.12,-4.70,-4.43,4.17,4.17,4.17
43.03,9.32,5.16,9.32,5.16,-5.17,-4.74,-4.47,4.15,4.15,4.16
43.46,9.35,5.21,9.35,5.21,-5.21,-4.79,-4.52,4.14,4.14,4.14
43.90,9.38,5.26,9.38,5.26,-5.26,-4.84,-4.57,4.12,4.12,4.12
44.33,9.41,5.31,9.41,5.31,-5.31,-4.88,-4.62,4.10,4.10,4.10
44.78,9.43,5.34,9.43,5.35,-5.35,-4.93,-4.68,4.08,4.08,4.09
45.23,9.46,5.40,9.46,5.39,-5.39,-4.98,-4.74,4.07,4.06,4.06
45.68,9.48,5.43,9.48,5.44,-5.43,-5.03,-4.80,4.05,4.05,4.05
46.13,9.51,5.48,9.51,5.47,-5.47,-5.08,-4.87,4.04,4.04,4.03
46.60,9.53,5.50,9.53,5.51,-5.51,-5.13,-4.94,4.02,4.02,4.02
47.06,9.55,5.54,9.55,5.54,-5.54,-5.17,-5.01,4.01,4.01,4.01
47.53,9.57,5.58,9.57,5.57,-5.58,-5.22,-5.09,3.99,3.99,3.99
48.01,9.58,5.59,9.58,5.60,-5.61,-5.27,-5.17,3.97,3.97,3.99
48.49,9.60,5.64,9.60,5.64,-5.64,-5.33,-5.25,3.95,3.95,3.96
48.97,9.61,5.68,9.61,5.68,-5.68,-5.38,-5.34,3.93,3.93,3.93
49.46,9.63,5.72,9.63,5.72,-5.71,-5.43,-5.42,3.92,3.91,3.91
49.96,9.64,5.76,9.64,5.75,-5.75,-5.48,-5.51,3.89,3.89,3.88
50.46,9.66,5.78,9.66,5.78,-5.78,-5.53,-5.61,3.88,3.88,3.88
50.96,9.67,5.81,9.67,5.81,-5.82,-5.58,-5.70,3.85,3.85,3.86
51.47,9.69,5.86,9.69,5.85,-5.85,-5.63,-5.80,3.84,3.84,3.83
51.99,9.70,5.88,9.70,5.88,-5.88,-5.69,-5.89,3.81,3.82,3.82
52.51,9.72,5.91,9.72,5.92,-5.92,-5.74,-5.99,3.80,3.80,3.81
53.03,9.74,5.95,9.74,5.95,-5.95,-5.79,-6.09,3.79,3.79,3.79
53.56,9.76,5.99,9.76,5.99,-5.99,-5.85,-6.19,3.77,3.77,3.77
54.10,9.78,6.03,9.78,6.03,-6.03,-5.90,-6.29,3.75,3.75,3.75
54.64,9.79,6.06,9.79,6.06,-6.06,-5.95,-6.38,3.73,3.73,3.73
55.18,9.81,6.10,9.81,6.10,-6.10,-6.01,-6.48,3.71,3.71,3.71
55.74,9.83,6.14,9.83,6.14,-6.14,-6.06,-6.57,3.69,3.69,3.69
56.29,9.85,6.17,9.85,6.18,-6.18,-6.11,-6.66,3.67,3.67,3.68
56.86,9.87,6.21,9.87,6.21,-6.21,-6.17,-6.75,3.65,3.65,3.65
57.42,9.89,6.26,9.89,6.25,-6.25,-6.22,-6.84,3.64,3.64,3.63
58.00,9.91,6.29,9.91,6.29,-6.29,-6.28,-6.92,3.62,3.62,3.62
58.58,9.93,6.33,9.93,6.33,-6.32,-6.33,-6.99,3.60,3.60,3.60
59.16,9.95,6.37,9.95,6.37,-6.36,-6.39,-7.06,3.59,3.59,3.58
59.76,9.97,6.40,9.97,6.40,-6.40,-6.44,-7.13,3.57,3.56,3.57
60.35,9.99,6.44,9.99,6.44,-6.45,-6.49,-7.18,3.54,3.54,3.55
60.96,10.01,6.47,10.01,6.48,-6.49,-6.55,-7.24,3.52,3.52,3.54
61.57,10.04,6.53,10.04,6.53,-6.53,-6.60,-7.28,3.51,3.50,3.51
62.18,10.07,6.59,10.07,6.58,-6.58,-6.66,-7.32,3.49,3.49,3.48
62.80,10.09,6.62,10.09,6.63,-6.62,-6.71,-7.35,3.47,3.47,3.47
63.43,10.12,6.68,10.12,6.68,-6.67,-6.77,-7.38,3.45,3.45,3.44
64.07,10.14,6.72,10.14,6.72,-6.71,-6.82,-7.39,3.43,3.43,3.42
64.71,10.17,6.75,10.16,6.75,-6.75,-6.88,-7.40,3.41,3.41,3.41
65.35,10.19,6.79,10.19,6.79,-6.80,-6.93,-7.41,3.39,3.39,3.40
66.01,10.21,6.82,10.22,6.83,-6.84,-6.98,-7.41,3.37,3.38,3.39
66.67,10.25,6.88,10.24,6.87,-6.88,-7.04,-7.40,3.37,3.37,3.37
67.33,10.28,6.92,10.28,6.92,-6.92,-7.09,-7.39,3.36,3.36,3.36
68.01,10.30,6.96,10.30,6.96,-6.96,-7.15,-7.38,3.34,3.35,3.34
68.69,10.33,7.00,10.33,7.00,-7.00,-7.20,-7.36,3.33,3.33,3.33
69.37,10.35,7.04,10.35,7.04,-7.04,-7.25,-7.33,3.31,3.31,3.31
70.07,10.38,7.08,10.38,7.08,-7.08,-7.30,-7.31,3.30,3.30,3.30
70.77,10.40,7.12,10.40,7.12,-7.12,-7.36,-7.28,3.27,3.28,3.28
71.48,10.43,7.17,10.43,7.16,-7.17,-7.41,-7.25,3.26,3.26,3.26
72.19,10.45,7.20,10.45,7.21,-7.21,-7.46,-7.22,3.24,3.24,3.25
72.91,10.48,7.26,10.48,7.25,-7.26,-7.51,-7.19,3.22,3.22,3.22
73.64,10.50,7.30,10.50,7.30,-7.30,-7.56,-7.16,3.20,3.20,3.20
74.38,10.52,7.34,10.52,7.35,-7.35,-7.61,-7.14,3.17,3.18,3.18
75.12,10.55,7.40,10.55,7.39,-7.39,-7.66,-7.11,3.16,3.16,3.15
75.87,10.57,7.44,10.57,7.44,-7.43,-7.71,-7.09,3.13,3.13,3.13
76.63,10.59,7.48,10.59,7.48,-7.48,-7.76,-7.06,3.11,3.11,3.11
77.40,10.60,7.51,10.60,7.52,-7.52,-7.81,-7.04,3.08,3.08,3.08
78.17,10.62,7.57,10.62,7.56,-7.57,-7.85,-7.03,3.05,3.06,3.05
78.95,10.64,7.60,10.64,7.61,-7.61,-7.90,-7.01,3.03,3.03,3.04
79.74,10.66,7.65,10.66,7.65,-7.65,-7.95,-7.00,3.01,3.00,3.01
80.54,10.67,7.69,10.67,7.70,-7.70,-7.99,-7.00,2.97,2.98,2.98
81.35,10.69,7.74,10.69,7.74,-7.74,-8.04,-7.00,2.95,2.95,2.95
82.16,10.71,7.79,10.71,7.79,-7.79,-8.08,-7.00,2.92,2.92,2.92
82.98,10.72,7.83,10.72,7.83,-7.83,-8.12,-7.01,2.89,2.89,2.89
83.81,10.73,7.88,10.73,7.88,-7.87,-8.16,-7.02,2.86,2.86,2.85
84.65,10.74,7.92,10.74,7.92,-7.92,-8.21,-7.04,2.82,2.82,2.82
85.50,10.75,7.95,10.75,7.96,-7.96,-8.25,-7.06,2.79,2.79,2.80
86.35,10.76,8.00,10.76,8.00,-8.00,-8.28,-7.09,2.76,2.76,2.76
87.22,10.76,8.03,10.77,8.04,-8.04,-8.32,-7.12,2.72,2.73,2.73
88.09,10.78,8.09,10.77,8.08,-8.08,-8.36,-7.16,2.70,2.69,2.69
88.97,10.78,8.11,10.78,8.12,-8.12,-8.40,-7.20,2.66,2.66,2.67
89.86,10.78,8.15,10.78,8.16,-8.16,-8.43,-7.25,2.62,2.63,2.63
90.76,10.79,8.20,10.79,8.20,-8.19,-8.47,-7.30,2.60,2.59,2.58
91.66,10.79,8.23,10.79,8.23,-8.23,-8.50,-7.36,2.56,2.56,2.56
92.58,10.79,8.28,10.79,8.27,-8.27,-8.53,-7.43,2.52,2.52,2.51
93.51,10.79,8.30,10.79,8.30,-8.30,-8.56,-7.49,2.48,2.49,2.49
94.44,10.80,8.34,10.79,8.34,-8.34,-8.59,-7.57,2.46,2.45,2.46
95.39,10.79,8.37,10.79,8.37,-8.38,-8.62,-7.65,2.41,2.41,2.42
96.34,10.78,8.41,10.78,8.41,-8.41,-8.65,-7.73,2.37,2.37,2.37
97.30,10.78,8.45,10.78,8.45,-8.45,-8.67,-7.82,2.33,2.33,2.33
98.28,10.78,8.49,10.78,8.49,-8.48,-8.70,-7.92,2.30,2.29,2.29
99.26,10.77,8.52,10.77,8.52,-8.52,-8.72,-8.01,2.25,2.25,2.24
100.25,10.76,8.55,10.76,8.55,-8.55,-8.74,-8.12,2.20,2.21,2.21
101.25,10.75,8.58,10.75,8.59,-8.59,-8.76,-8.22,2.16,2.16,2.17
102.27,10.74,8.62,10.74,8.62,-8.62,-8.78,-8.33,2.12,2.12,2.12
103.29,10.73,8.66,10.73,8.65,-8.65,-8.80,-8.44,2.08,2.07,2.07
104.32,10.71,8.68,10.71,8.68,-8.68,-8.81,-8.55,2.03,2.03,2.03
105.37,10.70,8.71,10.70,8.71,-8.71,-8.83,-8.67,1.99,1.98,1.99
106.42,10.68,8.74,10.68,8.74,-8.74,-8.84,-8.78,1.94,1.94,1.94
107.48,10.66,8.77,10.66,8.77,-8.77,-8.85,-8.90,1.89,1.89,1.89
108.56,10.64,8.80,10.64,8.80,-8.80,-8.86,-9.01,1.84,1.84,1.84
109.64,10.62,8.83,10.62,8.82,-8.82,-8.87,-9.13,1.79,1.79,1.79
110.74,10.60,8.85,10.60,8.85,-8.85,-8.88,-9.24,1.75,1.75,1.75
111.85,10.57,8.87,10.57,8.87,-8.88,-8.89,-9.35,1.69,1.70,1.70
112.97,10.55,8.91,10.54,8.90,-8.90,-8.89,-9.45,1.65,1.64,1.63
114.10,10.51,8.91,10.52,8.92,-8.92,-8.89,-9.55,1.59,1.59,1.60
115.24,10.49,8.94,10.49,8.94,-8.94,-8.90,-9.64,1.55,1.54,1.55
116.39,10.46,8.97,10.46,8.96,-8.96,-8.90,-9.73,1.50,1.49,1.49
117.55,10.42,8.98,10.42,8.98,-8.98,-8.90,-9.80,1.44,1.45,1.44
118.73,10.39,8.99,10.39,8.99,-8.99,-8.89,-9.87,1.40,1.40,1.39
119.92,10.35,8.99,10.35,9.00,-8.99,-8.89,-9.93,1.36,1.36,1.36
121.12,10.31,9.00,10.31,9.00,-9.00,-8.89,-9.98,1.31,1.31,1.31
122.33,10.27,9.00,10.27,9.00,-9.00,-8.88,-10.00,1.27,1.27,1.26
123.55,10.22,8.99,10.22,9.00,-9.00,-8.87,-10.03,1.22,1.22,1.23
124.79,10.18,9.00,10.18,8.99,-9.00,-8.86,-10.03,1.18,1.18,1.18
126.03,10.13,8.98,10.13,8.99,-8.99,-8.86,-10.04,1.14,1.14,1.15
127.29,10.09,8.99,10.09,8.99,-8.99,-8.84,-10.01,1.10,1.10,1.10
128.57,10.04,8.99,10.04,8.98,-8.98,-8.83,-9.99,1.06,1.06,1.05
129.85,10.00,8.98,10.00,8.98,-8.97,-8.82,-9.94,1.03,1.02,1.02
131.15,9.95,8.97,9.95,8.97,-8.96,-8.81,-9.90,0.98,0.98,0.98
132.46,9.90,8.96,9.90,8.96,-8.95,-8.79,-9.83,0.94,0.95,0.94
133.79,9.86,8.94,9.86,8.94,-8.94,-8.78,-9.76,0.91,0.91,0.92
135.12,9.81,8.93,9.81,8.93,-8.93,-8.76,-9.67,0.88,0.88,0.88
136.48,9.77,8.91,9.77,8.91,-8.92,-8.74,-9.59,0.85,0.85,0.86
137.84,9.73,8.89,9.73,8.90,-8.91,-8.73,-9.49,0.82,0.82,0.84
139.22,9.70,8.90,9.70,8.90,-8.89,-8.71,-9.39,0.81,0.80,0.80
140.61,9.66,8.89,9.66,8.89,-8.88,-8.69,-9.28,0.78,0.78,0.77
142.02,9.64,8.87,9.63,8.87,-8.87,-8.67,-9.17,0.77,0.76,0.77
143.44,9.60,8.85,9.60,8.86,-8.86,-8.65,-9.06,0.74,0.74,0.75
144.87,9.57,8.85,9.57,8.84,-8.85,-8.63,-8.95,0.72,0.73,0.72
146.32,9.55,8.84,9.55,8.83,-8.83,-8.61,-8.83,0.71,0.71,0.71
147.78,9.52,8.82,9.52,8.82,-8.82,-8.58,-8.72,0.70,0.70,0.70
149.26,9.49,8.80,9.49,8.81,-8.80,-8.56,-8.60,0.69,0.68,0.68
150.75,9.45,8.79,9.45,8.79,-8.78,-8.54,-8.49,0.66,0.67,0.66
152.26,9.41,8.76,9.41,8.77,-8.77,-8.52,-8.38,0.64,0.65,0.65
153.78,9.38,8.75,9.38,8.74,-8.74,-8.50,-8.27,0.63,0.63,0.63
155.32,9.34,8.72,9.34,8.72,-8.72,-8.48,-8.16,0.62,0.62,0.62
156.88,9.30,8.69,9.30,8.70,-8.70,-8.45,-8.06,0.60,0.60,0.61
158.44,9.25,8.67,9.25,8.67,-8.67,-8.43,-7.96,0.58,0.58,0.58
160.03,9.22,8.66,9.21,8.65,-8.65,-8.41,-7.87,0.57,0.56,0.56
161.63,9.16,8.62,9.17,8.62,-8.62,-8.39,-7.78,0.54,0.55,0.54
163.24,9.12,8.59,9.12,8.59,-8.59,-8.37,-7.69,0.53,0.53,0.53
164.88,9.08,8.56,9.08,8.56,-8.56,-8.35,-7.62,0.52,0.52,0.52
166.53,9.03,8.53,9.03,8.53,-8.53,-8.33,-7.54,0.50,0.50,0.50
168.19,8.98,8.51,8.98,8.50,-8.50,-8.30,-7.47,0.48,0.48,0.47
169.87,8.92,8.46,8.92,8.47,-8.46,-8.28,-7.40,0.45,0.46,0.46
171.57,8.87,8.43,8.87,8.43,-8.43,-8.27,-7.35,0.44,0.43,0.44
173.29,8.81,8.39,8.81,8.39,-8.40,-8.25,-7.29,0.41,0.41,0.42
175.02,8.76,8.37,8.76,8.37,-8.37,-8.23,-7.24,0.39,0.39,0.39
176.77,8.70,8.34,8.70,8.34,-8.34,-8.21,-7.20,0.36,0.36,0.36
178.54,8.65,8.32,8.65,8.31,-8.31,-8.19,-7.16,0.34,0.34,0.33
180.32,8.59,8.28,8.58,8.28,-8.28,-8.17,-7.13,0.31,0.31,0.31
182.13,8.52,8.24,8.52,8.24,-8.24,-8.15,-7.10,0.28,0.28,0.28
183.95,8.45,8.20,8.46,8.21,-8.21,-8.13,-7.08,0.24,0.25,0.25
185.79,8.40,8.17,8.39,8.17,-8.17,-8.12,-7.06,0.23,0.22,0.22
187.65,8.33,8.14,8.32,8.13,-8.13,-8.10,-7.05,0.20,0.20,0.19
189.52,8.25,8.08,8.26,8.09,-8.08,-8.08,-7.04,0.16,0.17,0.17
191.42,8.19,8.04,8.19,8.04,-8.04,-8.06,-7.04,0.15,0.15,0.15
193.33,8.13,8.00,8.12,7.99,-8.00,-8.04,-7.04,0.13,0.12,0.13
195.27,8.06,7.95,8.06,7.95,-7.96,-8.02,-7.05,0.10,0.10,0.11
197.22,7.99,7.90,7.99,7.91,-7.91,-8.00,-7.06,0.08,0.08,0.09
199.19,7.93,7.88,7.93,7.87,-7.87,-7.98,-7.07,0.06,0.06,0.05
201.18,7.88,7.84,7.87,7.83,-7.83,-7.95,-7.09,0.05,0.04,0.04
203.19,7.81,7.78,7.81,7.79,-7.79,-7.92,-7.11,0.02,0.03,0.03
205.23,7.75,7.74,7.75,7.74,-7.74,-7.89,-7.13,0.01,0.01,0.01
207.28,7.70,7.69,7.69,7.70,-7.70,-7.86,-7.15,-0.00,-0.00,0.01
209.35,7.64,7.66,7.64,7.66,-7.65,-7.83,-7.18,-0.01,-0.01,-0.02
211.44,7.58,7.62,7.58,7.61,-7.61,-7.79,-7.21,-0.03,-0.03,-0.04
213.56,7.52,7.57,7.52,7.56,-7.56,-7.75,-7.24,-0.04,-0.04,-0.05
215.69,7.45,7.49,7.45,7.50,-7.51,-7.71,-7.27,-0.06,-0.05,-0.05
217.85,7.39,7.44,7.39,7.45,-7.45,-7.66,-7.29,-0.06,-0.06,-0.05
220.03,7.33,7.40,7.33,7.39,-7.40,-7.61,-7.32,-0.07,-0.07,-0.07
222.23,7.27,7.35,7.27,7.34,-7.33,-7.55,-7.34,-0.06,-0.07,-0.08
224.45,7.20,7.26,7.20,7.28,-7.27,-7.49,-7.37,-0.07,-0.07,-0.07
226.70,7.13,7.20,7.13,7.20,-7.20,-7.43,-7.38,-0.07,-0.07,-0.07
228.96,7.07,7.14,7.06,7.13,-7.13,-7.36,-7.40,-0.06,-0.06,-0.07
231.25,6.99,7.04,6.99,7.05,-7.05,-7.28,-7.40,-0.06,-0.06,-0.06
233.57,6.92,6.96,6.92,6.97,-6.97,-7.21,-7.41,-0.05,-0.05,-0.04
235.90,6.85,6.89,6.85,6.89,-6.89,-7.12,-7.40,-0.04,-0.04,-0.04
238.26,6.79,6.82,6.78,6.81,-6.81,-7.04,-7.39,-0.02,-0.02,-0.03
240.64,6.71,6.72,6.71,6.73,-6.72,-6.94,-7.37,-0.01,-0.01,-0.01
243.05,6.65,6.64,6.64,6.64,-6.64,-6.85,-7.35,0.01,0.01,0.01
245.48,6.57,6.54,6.57,6.55,-6.55,-6.75,-7.31,0.02,0.02,0.03
247.93,6.51,6.46,6.51,6.46,-6.46,-6.64,-7.26,0.05,0.05,0.05
250.41,6.44,6.38,6.44,6.37,-6.37,-6.54,-7.21,0.07,0.07,0.06
252.92,6.38,6.28,6.37,6.28,-6.28,-6.43,-7.15,0.10,0.09,0.10
255.45,6.30,6.18,6.31,6.19,-6.19,-6.31,-7.07,0.11,0.12,0.12
258.00,6.24,6.09,6.24,6.10,-6.10,-6.20,-6.99,0.14,0.14,0.15
260.58,6.18,6.02,6.17,6.01,-6.01,-6.08,-6.90,0.17,0.17,0.16
263.19,6.11,5.92,6.11,5.92,-5.92,-5.96,-6.80,0.19,0.19,0.19
265.82,6.04,5.82,6.04,5.83,-5.82,-5.84,-6.69,0.22,0.22,0.22
268.48,5.98,5.74,5.98,5.73,-5.73,-5.72,-6.57,0.25,0.25,0.24
271.16,5.91,5.63,5.91,5.63,-5.64,-5.59,-6.45,0.27,0.27,0.28
273.87,5.84,5.54,5.84,5.54,-5.54,-5.47,-6.32,0.30,0.30,0.30
276.61,5.77,5.44,5.77,5.45,-5.45,-5.35,-6.19,0.32,0.32,0.33
279.38,5.71,5.36,5.70,5.35,-5.35,-5.22,-6.05,0.36,0.35,0.35
282.17,5.63,5.25,5.63,5.26,-5.25,-5.10,-5.90,0.38,0.38,0.38
284.99,5.56,5.16,5.56,5.16,-5.16,-4.97,-5.75,0.40,0.40,0.40
287.84,5.49,5.06,5.49,5.06,-5.06,-4.85,-5.60,0.43,0.43,0.43
290.72,5.42,4.95,5.42,4.96,-4.96,-4.72,-5.44,0.46,0.46,0.47
293.63,5.35,4.86,5.35,4.86,-4.86,-4.60,-5.29,0.49,0.49,0.48
296.57,5.28,4.76,5.28,4.76,-4.76,-4.48,-5.13,0.52,0.52,0.52
299.53,5.21,4.66,5.21,4.66,-4.66,-4.35,-4.97,0.55,0.55,0.55
302.53,5.14,4.56,5.14,4.55,-4.55,-4.23,-4.81,0.58,0.58,0.58
305.55,5.07,4.44,5.07,4.45,-4.45,-4.11,-4.65,0.61,0.62,0.63
308.61,5.01,4.36,5.01,4.35,-4.36,-3.99,-4.49,0.65,0.65,0.65
311.69,4.95,4.26,4.94,4.25,-4.26,-3.87,-4.33,0.69,0.69,0.69
314.81,4.88,4.15,4.88,4.16,-4.16,-3.76,-4.17,0.72,0.72,0.73
317.96,4.82,4.06,4.82,4.06,-4.06,-3.64,-4.01,0.76,0.76,0.76
321.14,4.76,3.97,4.76,3.97,-3.97,-3.53,-3.85,0.79,0.79,0.79
324.35,4.69,3.88,4.69,3.87,-3.87,-3.41,-3.69,0.82,0.82,0.81
327.59,4.63,3.78,4.63,3.78,-3.78,-3.30,-3.54,0.85,0.85,0.85
330.87,4.56,3.68,4.56,3.68,-3.69,-3.19,-3.38,0.87,0.87,0.88
334.18,4.49,3.59,4.49,3.59,-3.60,-3.08,-3.23,0.89,0.90,0.90
337.52,4.43,3.50,4.43,3.50,-3.50,-2.97,-3.08,0.93,0.92,0.93
340.90,4.36,3.40,4.35,3.40,-3.41,-2.86,-2.93,0.95,0.94,0.96
344.30,4.28,3.30,4.28,3.30,-3.31,-2.75,-2.78,0.97,0.97,0.97
347.75,4.20,3.20,4.21,3.21,-3.20,-2.64,-2.64,1.00,1.01,1.00
351.23,4.14,3.12,4.13,3.11,-3.09,-2.54,-2.50,1.05,1.04,1.02
354.74,4.04,3.00,4.03,2.99,-2.97,-2.43,-2.35,1.07,1.06,1.04
358.28,3.91,2.85,3.91,2.85,-2.84,-2.32,-2.21,1.07,1.08,1.06
361.87,3.78,2.70,3.78,2.70,-2.70,-2.22,-2.07,1.08,1.08,1.08
365.49,3.65,2.54,3.65,2.55,-2.56,-2.12,-1.94,1.09,1.09,1.11
369.14,3.52,2.40,3.52,2.40,-2.42,-2.01,-1.80,1.10,1.11,1.12
372.83,3.40,2.26,3.40,2.26,-2.27,-1.91,-1.67,1.13,1.13,1.14
376.56,3.28,2.12,3.28,2.12,-2.12,-1.81,-1.54,1.16,1.16,1.15
380.33,3.15,1.97,3.15,1.97,-1.97,-1.71,-1.41,1.18,1.18,1.18
384.13,3.03,1.83,3.03,1.82,-1.82,-1.60,-1.28,1.21,1.20,1.20
387.97,2.90,1.68,2.90,1.68,-1.68,-1.50,-1.15,1.22,1.22,1.22
391.85,2.78,1.54,2.78,1.54,-1.54,-1.40,-1.02,1.24,1.24,1.24
395.77,2.66,1.39,2.66,1.39,-1.40,-1.30,-0.90,1.26,1.26,1.27
399.73,2.55,1.26,2.55,1.26,-1.26,-1.20,-0.78,1.29,1.29,1.29
403.72,2.43,1.12,2.43,1.12,-1.12,-1.10,-0.66,1.31,1.31,1.31
407.76,2.32,0.99,2.32,0.99,-0.98,-0.99,-0.54,1.33,1.33,1.33
411.84,2.20,0.84,2.20,0.85,-0.85,-0.89,-0.42,1.35,1.35,1.36
415.96,2.10,0.72,2.10,0.72,-0.72,-0.79,-0.31,1.38,1.38,1.38
420.12,1.99,0.59,1.99,0.59,-0.58,-0.68,-0.19,1.40,1.40,1.40
424.32,1.88,0.45,1.88,0.46,-0.45,-0.58,-0.08,1.43,1.43,1.43
428.56,1.77,0.32,1.77,0.33,-0.32,-0.47,0.03,1.45,1.45,1.45
432.85,1.67,0.20,1.67,0.20,-0.19,-0.37,0.13,1.47,1.47,1.46
437.18,1.57,0.08,1.56,0.07,-0.07,-0.26,0.24,1.50,1.49,1.49
441.55,1.47,-0.05,1.46,-0.05,0.04,-0.15,0.34,1.51,1.51,1.52
445.96,1.36,-0.18,1.37,-0.17,0.16,-0.04,0.44,1.52,1.53,1.54
450.42,1.30,-0.26,1.30,-0.27,0.26,0.07,0.53,1.56,1.56,1.56
454.93,1.23,-0.37,1.23,-0.36,0.36,0.18,0.62,1.59,1.59,1.60
459.48,1.18,-0.44,1.17,-0.45,0.46,0.29,0.71,1.64,1.63,1.62
464.07,1.11,-0.54,1.11,-0.54,0.55,0.40,0.80,1.66,1.66,1.65
468.71,1.05,-0.64,1.05,-0.63,0.64,0.51,0.88,1.69,1.69,1.69
473.40,0.99,-0.72,0.99,-0.73,0.73,0.62,0.96,1.72,1.71,1.71
478.13,0.93,-0.81,0.93,-0.81,0.81,0.72,1.03,1.74,1.74,1.74
482.91,0.87,-0.90,0.87,-0.90,0.90,0.83,1.11,1.76,1.77,1.77
487.74,0.82,-0.98,0.82,-0.98,0.98,0.93,1.17,1.80,1.80,1.80
492.62,0.77,-1.06,0.77,-1.06,1.06,1.03,1.24,1.83,1.83,1.83
497.55,0.73,-1.12,0.72,-1.13,1.13,1.12,1.30,1.86,1.86,1.85
502.52,0.68,-1.21,0.68,-1.20,1.21,1.20,1.35,1.88,1.88,1.89
507.55,0.63,-1.28,0.64,-1.27,1.27,1.28,1.40,1.90,1.91,1.91
512.62,0.60,-1.34,0.60,-1.34,1.34,1.35,1.45,1.94,1.94,1.94
517.75,0.57,-1.40,0.56,-1.40,1.40,1.42,1.49,1.97,1.96,1.97
522.93,0.53,-1.47,0.54,-1.46,1.46,1.48,1.53,1.99,2.00,2.00
528.16,0.51,-1.51,0.51,-1.51,1.51,1.53,1.57,2.02,2.02,2.02
