frequency,raw,error,smoothed,error_smoothed,equalization,equalized_raw,equalized_smoothed,target
20,-20.28287772274995,-20.29935688514414,-20.315656925749472,-20.332121712273878,5.999999999999999,-14.282877722749951,-14.315656925749472,0.016479162394188673
21,-19.599117038989267,-19.616763125458565,-19.593958813043383,-19.611606530659557,6.0,-13.599117038989267,-13.593958813043383,0.017646086469297995
22,-18.915356355228585,-18.934118926221156,-18.899713623699007,-18.91848725169939,6.0,-12.915356355228585,-12.899713623699007,0.01876257099257117
23,-18.297351168459436,-18.317178378194576,-18.23292135771635,-18.252763875393374,5.999999999999999,-12.297351168459436,-12.23292135771635,0.01982720973514196
24,-17.547834987707212,-17.568673331255,-17.593582015095375,-17.614436401741493,5.999999999999998,-11.547834987707214,-11.593582015095377,0.020838343547786575
25,-17.127749714107818,-17.149543743022534,-16.98224414563537,-17.0040554456872,6.000000000000001,-11.127749714107818,-10.98224414563537,0.02179402891471538
26,-16.32308042132663,-16.345772425536605,-16.398584120587138,-16.421295491480336,6.0,-10.32308042132663,-10.398584120587138,0.022692004209976968
27,-15.724473164345392,-15.748007311892396,-15.841759617094649,-15.865312023905911,6.0,-9.724473164345392,-9.841759617094649,0.023534147547003226
28,-15.268632708504938,-15.292946183472871,-15.310041044252992,-15.334371615091083,6.0,-9.268632708504938,-9.310041044252992,0.02431347496793279
29,-14.812792252664483,-14.837816972009257,-14.80102309388727,-14.826063303923405,6.000000000000001,-8.812792252664483,-8.80102309388727,0.02502471934477457
30,-14.584872024744248,-14.610533278215211,-14.312509725792584,-14.338184269792949,6.0,-8.584872024744248,-8.312509725792584,0.025661253470963263
31,-13.673191113063343,-13.699406172623515,-13.843984408289614,-13.870209837191886,5.999999999999999,-7.673191113063344,-7.843984408289615,0.026215059560172893
32,-13.445270885143106,-13.471947694085241,-13.398154685477689,-13.424838395670964,5.999999999999999,-7.445270885143107,-7.39815468547769,0.0266768089421352
33,-13.009239506020199,-13.036275571393837,-12.98192464047055,-13.008964119297307,6.0,-7.009239506020199,-6.981924640470551,0.027036065373637452
34,-12.76151020138243,-12.788792587374633,-12.606080678765913,-12.63336295338539,5.999999999999998,-6.761510201382432,-6.606080678765915,0.027282385992203118
35,-12.371787859120134,-12.399192651414772,-12.28327750680105,-12.31067890800313,6.000000000000001,-6.371787859120134,-6.283277506801048,0.02740479229463677
36,-11.858034873932406,-11.885427201246301,-12.024601920768815,-12.051988100535661,5.999999999999998,-5.858034873932407,-6.024601920768816,0.02739232731389496
37,-11.62190906178129,-11.64914341338709,-11.835567373193896,-11.862793571971118,6.0,-5.62190906178129,-5.835567373193896,0.02723435160580001
38,-11.393988833861059,-11.420909611676063,-11.712845564168624,-11.739757097670854,6.000000000000001,-5.393988833861058,-5.7128455641686235,0.026920777815003127
39,-11.39398883386106,-11.42043105199022,-11.643004725559168,-11.66943762587643,6.0,-5.39398883386106,-5.643004725559168,0.026442218129161255
40,-11.591261762717137,-11.61705179231134,-11.603949154516663,-11.629730901725004,5.999999999999999,-5.591261762717138,-5.6039491545166635,0.0257900295942024
41,-11.84681456333151,-11.871770951338725,-11.568870734521468,-11.593820995913422,5.999999999999999,-5.8468145633315105,-5.568870734521469,0.024956388007214336
42,-11.84982928970152,-11.873763475265381,-11.511618966730229,-11.535550255753918,6.000000000000003,-5.849829289701517,-5.511618966730226,0.023934185563861288
43,-11.621909061781288,-11.644625919302502,-11.411876562563698,-11.434594730177029,6.0,-5.621909061781288,-5.411876562563698,0.02271685752121444
44,-11.36117022827846,-11.382468353330472,-11.258627416583742,-11.279931889631882,6.0,-5.361170228278461,-5.258627416583742,0.02129812505201123
45,-11.166068605940836,-11.185740267650997,-11.051084622555083,-11.070768312565352,5.999999999999998,-5.166068605940838,-5.051084622555084,0.019671661710161104
46,-10.646699883599714,-10.664530575426264,-10.797217451145631,-10.815066268460427,6.0,-4.646699883599714,-4.797217451145631,0.017830691826550282
47,-10.254387694259918,-10.270155223876111,-10.510842101771743,-10.526634024665672,6.0,-4.254387694259918,-4.510842101771743,0.015767529616192544
48,-10.209965596190667,-10.223438687576905,-10.208563525320926,-10.22206719140116,6.0,-4.209965596190667,-4.208563525320926,0.013473091386238423
49,-10.0264674663397,-10.037403858518338,-9.907563518034056,-9.918536324381897,5.999999999999999,-4.0264674663397,-3.907563518034057,0.010936392178639842
50,-9.591058543208222,-9.599202592113134,-9.624511176850316,-9.632696895509742,5.999999999999999,-3.5910585432082227,-3.6245111768503167,0.008144048904911827
51,-9.525542200958935,-9.530622011832639,-9.37512427278848,-9.380250208251221,5.999999999999999,-3.5255422009589354,-3.3751242727884803,0.005079810873704016
52,-9.242229706267473,-9.243953843983956,-9.17353848761925,-9.17531222189504,5.999999999999999,-3.242229706267474,-3.1735384876192514,0.001724137716482943
53,-8.886866326738557,-8.884920169104143,-9.030842206921513,-9.028947994794926,6.000000000000002,-2.8868663267385557,-3.030842206921511,-0.0019461576344146359
54,-8.886866326738557,-8.880908139480956,-8.952790262332375,-8.94688515369565,6.0,-2.8868663267385575,-2.9527902623323747,-0.005958187257600667
55,-8.658946098818328,-8.648602922893804,-8.937456110203348,-8.927165887342223,6.0,-2.658946098818328,-2.937456110203348,-0.010343175924523607
56,-8.43116805476163,-8.416031503863142,-8.973994316393117,-8.958909341388765,6.000000000000002,-2.4311680547616277,-2.9739943163931155,-0.015136550898488199
57,-9.12521887838944,-9.104840947784988,-9.043502597215774,-9.023173667999309,5.999999999999999,-3.1252188783894406,-3.0435025972157748,-0.020377930604452477
58,-9.34270678257901,-9.316595769598916,-9.122236062971599,-9.096170376038192,6.0,-3.3427067825790093,-3.1222360629715986,-0.026111012980093662
59,-9.570627010499237,-9.538243642408595,-9.186464362540688,-9.154121676102335,6.000000000000002,-3.5706270104992353,-3.1864643625406863,-0.03238336809064091
60,-9.570627010499237,-9.531380867548279,-9.217528223183312,-9.178317307002239,6.000000000000001,-3.570627010499236,-3.2175282231833107,-0.03924614295095896
61,-9.342706782579011,-9.295953093116912,-9.205493859807898,-9.158769307650974,6.000000000000002,-3.3427067825790093,-3.2054938598078966,-0.04675368946209879
62,-8.941924732392252,-8.886961603949937,-9.150294107950364,-9.095353576201635,6.0,-2.941924732392252,-3.150294107950364,-0.05496312844231532
63,-8.886866326738556,-8.822932462638331,-9.060162107479727,-8.996244029678904,6.0,-2.8868663267385557,-3.0601621074797265,-0.06393386410022384
64,-8.886866326738556,-8.813139262879181,-8.9481047002091,-8.87438651295064,5.999999999999999,-2.8868663267385566,-2.948104700209101,-0.073727063859375
65,-8.837468082200184,-8.753062963975687,-8.827743540970632,-8.743340442253572,5.999999999999999,-2.8374680822001848,-2.8277435409706326,-0.08440511822449803
66,-8.658946098818326,-8.562915004383193,-8.709878111619968,-8.613842359561934,6.000000000000002,-2.6589460988183244,-2.7098781116199664,-0.09603109443513258
67,-8.658946098818326,-8.550277902736791,-8.6006594698781,-8.491980218036105,5.999999999999999,-2.658946098818327,-2.6006594698781003,-0.10866819608153566
68,-8.431025870898097,-8.308646632077702,-8.501566377041465,-8.379170032030572,6.000000000000001,-2.431025870898096,-2.5015663770414642,-0.12237923882039459
69,-8.431025870898097,-8.293799720938921,-8.410754382824834,-8.273505461214006,5.999999999999999,-2.4310258708980976,-2.410754382824835,-0.1372261499591758
70,-8.431025870898099,-8.277756373748932,-8.325015156212254,-8.171717612897911,6.0,-2.4310258708980985,-2.3250151562122543,-0.1532694971491657
71,-8.108372116641098,-7.937804067738889,-8.241589727758058,-8.070988728064183,6.0,-2.108372116641098,-2.2415897277580576,-0.17056804890220878
72,-8.203105642977867,-8.013927275700091,-8.15932914698044,-7.97011325672066,5.999999999999999,-2.203105642977868,-2.1593291469804408,-0.18917836727777537
73,-8.203105642977867,-7.993951211972167,-8.079027104153232,-7.869830869206471,6.0,-2.2031056429778673,-2.0790271041532318,-0.20915443100569986
74,-7.930477212739181,-7.699929927122426,-8.003024398433588,-7.772431279237297,6.000000000000001,-1.9304772127391798,-2.0030243984335874,-0.2305472856167552
75,-7.917449849580615,-7.664045133660889,-7.934343447813733,-7.680889065445234,5.999999999999998,-1.917449849580617,-1.9343434478137347,-0.2534047159197259
76,-7.912125409026841,-7.634354473602096,-7.87566265388314,-7.597838304055687,6.000000000000003,-1.9121254090268387,-1.8756626538831371,-0.2777709354247446
77,-7.7472651871374145,-7.443578900067477,-7.828422756911744,-7.524679183490998,6.000000000000001,-1.7472651871374136,-1.8284227569117428,-0.3036862870699375
78,-7.747265187137415,-7.416078237304083,-7.792297154797783,-7.461048661369148,5.999999999999999,-1.7472651871374163,-1.792297154797784,-0.33118694983333263
79,-7.747265187137416,-7.386960540686908,-7.7651646307066216,-7.404793703099703,6.000000000000002,-1.7472651871374145,-1.7651646307066198,-0.3603046464505084
80,-7.747265187137415,-7.356198838698745,-7.743595091892035,-7.352457689622265,6.0,-1.7472651871374154,-1.7435950918920353,-0.3910663484386703
81,-7.747265187137416,-7.323771211271541,-7.723711008835161,-7.300142437087237,6.0,-1.7472651871374163,-1.7237110088351608,-0.4234939758658749
82,-7.747265187137415,-7.289661096424444,-7.702162802237238,-7.244483614333436,6.0,-1.7472651871374154,-1.702162802237238,-0.4576040907129708
83,-7.747265187137416,-7.253857602966525,-7.676911128045708,-7.183432045160108,6.000000000000001,-1.7472651871374154,-1.676911128045707,-0.49340758417089203
84,-7.747265187137416,-7.21635582741623,-7.647577218781049,-7.116602058127613,6.000000000000001,-1.7472651871374154,-1.6475772187810485,-0.530909359721186
85,-7.519344959217188,-6.949236943918241,-7.615287205644979,-7.045113827604207,6.000000000000001,-1.5193449592171868,-1.6152872056449779,-0.5701080152989464
86,-7.519344959217189,-6.908349430032565,-7.582130958676098,-6.971052429357087,5.999999999999999,-1.5193449592171895,-1.5821309586760988,-0.6109955291846236
87,-7.519344959217189,-6.865788003738387,-7.550494247023019,-6.896805001629747,6.0,-1.5193449592171886,-1.5504942470230194,-0.6535569554788019
88,-7.519344959217187,-6.8215748231584765,-7.522539082204903,-6.824552109641292,6.0,-1.5193449592171868,-1.5225390822049034,-0.6977701360587099
89,-7.519344959217189,-6.775739522433289,-7.499993650545087,-6.756072518432115,6.0,-1.5193449592171886,-1.499993650545087,-0.7436054367838993
90,-7.519344959217188,-6.728319442812977,-7.484231283222551,-6.692834063322409,6.000000000000001,-1.5193449592171868,-1.4842312832225497,-0.7910255164042104
91,-7.519344959217188,-6.679359822095929,-7.476462700974299,-6.636184620570257,6.0,-1.5193449592171877,-1.4764627009742988,-0.8399851371212583
92,-7.519344959217189,-6.628913933157632,-7.477817080782178,-6.587409082323649,5.999999999999999,-1.5193449592171895,-1.477817080782179,-0.8904310260595567
93,-7.383787169718713,-6.441485372713767,-7.489168054549943,-6.547505515612824,6.000000000000002,-1.383787169718711,-1.4891680545499408,-0.9423017970049461
94,-7.4806442064846035,-6.485116264833928,-7.5107261975930015,-6.516711222587761,6.000000000000001,-1.4806442064846026,-1.5107261975930006,-0.9955279416506757
95,-7.519344959217188,-6.469313059984053,-7.541581309387118,-6.493984312380385,6.0,-1.5193449592171877,-1.5415813093871176,-1.0500318992331348
96,-7.519344959217188,-6.4136167464037435,-7.5794482438081925,-6.476724498058857,5.999999999999998,-1.5193449592171895,-1.5794482438081943,-1.1057282128134447
97,-7.623998391444062,-6.461474611905503,-7.620809758100547,-6.460952789895981,5.999999999999999,-1.6239983914440632,-1.620809758100548,-1.1625237795385592
98,-7.747265187137416,-6.5269469861684115,-7.661488379201188,-6.441991122650766,6.000000000000002,-1.7472651871374145,-1.6614883792011863,-1.2203182009690048
99,-7.747265187137416,-6.468260949168353,-7.697494106648158,-6.415471133101546,5.999999999999999,-1.7472651871374172,-1.6974941066481586,-1.2790042379690636
100,-7.747265187137416,-6.408796814427928,-7.725871916180034,-6.378352155631312,6.000000000000001,-1.7472651871374154,-1.7258719161800329,-1.338468372709488
101,-7.747265187137416,-6.348673709097767,-7.745266208368431,-6.329607591807628,6.000000000000002,-1.7472651871374145,-1.7452662083684292,-1.3985914780396493
102,-7.747265187137415,-6.288015595264263,-7.756026949474515,-6.270352908986853,6.0,-1.7472651871374154,-1.7560269494745153,-1.459249591873152
104,-7.747265187137416,-6.164985770626028,-7.759852085112629,-6.203385868360084,6.0,-1.7472651871374163,-1.7598520851126294,-1.5822794165113887
105,-7.7472651871374145,-6.103563523289274,-7.759119254194922,-6.132308198333656,5.9884263904816635,-1.758838796655751,-1.7706928637132586,-1.6437016638481405
106,-7.747265187137415,-6.042120451136411,-7.756147754480091,-6.060524295184569,5.967484166221647,-1.7797810209157685,-1.7886635882584443,-1.7051447360010048
107,-7.747265187137416,-5.980787630429642,-7.752627522083154,-5.990430137022949,5.937437671126004,-1.8098275160114126,-1.8151898509571502,-1.7664775567077742
108,-7.747265187137415,-5.919694975897456,-7.749370847172379,-5.923020470065994,5.8984341868905625,-1.8488310002468529,-1.8509366602818167,-1.8275702112399594
109,-7.747265187137415,-5.858970126311231,-7.746423210569757,-5.857993866775949,5.850632500702085,-1.8966326864353302,-1.895790709867672,-1.888295060826184
110,-7.747265187137415,-5.798737333750812,-7.743454649144651,-5.794276565398211,5.794276565398212,-1.9529886217392036,-1.949178083746439,-1.9485278533866035
111,-7.747265187137415,-5.739116378354948,-7.740273617447608,-5.730763916386304,5.7307639163863024,-2.016501270751113,-2.0095097010613054,-2.008148808782467
112,-7.747265187137415,-5.680221531161943,-7.737276157391568,-5.667022137949893,5.667022137949894,-2.080243049187521,-2.0702540194416734,-2.067043655975472
113,-7.7472651871374145,-5.622160587699056,-7.735665793747158,-5.603712982410732,5.603712982410732,-2.1435522047266824,-2.1319528113364257,-2.125104599438359
114,-7.747265187137415,-5.565033994205596,-7.737346891330327,-5.542592349992907,5.542592349992906,-2.2046728371445097,-2.1947545413374216,-2.1822311929318197
115,-7.747265187137415,-5.508934086741591,-7.744492541855223,-5.486068125539209,5.486068125539209,-2.2611970615982067,-2.2584244163160143,-2.2383311003958246
117,-7.747265187137415,-5.399231744841535,-7.758895273181695,-5.43644671327778,5.43644671327778,-2.3108184738596353,-2.322448559903915,-2.3480334422958804
118,-7.747265187137416,-5.346551380562433,-7.781294580803942,-5.395108659817891,5.395108659817892,-2.352156527319524,-2.3861859209860494,-2.400713806574984
119,-7.7472651871374145,-5.295167268799519,-7.810908492133452,-5.361893221621684,5.361893221621682,-2.3853719655157324,-2.4490152705117696,-2.452097918337896
120,-7.755932102965583,-5.253794489932374,-7.8453570863406945,-5.334920081579961,5.334920081579961,-2.4210120213856223,-2.5104370047607336,-2.5021376130332094
121,-7.974420144917618,-5.423625904518671,-7.881057059939188,-5.310943517219556,5.310943517219557,-2.663476627698061,-2.570113542719631,-2.5507942403989463
123,-7.975185415057646,-5.329748568089686,-7.914017398120231,-5.286160333973119,5.286160333973119,-2.6890250810845266,-2.627857064147112,-2.6454368469679594
124,-7.975185415057644,-5.285243429154228,-7.940826163775347,-5.257236904389163,5.257236904389163,-2.7179485106684806,-2.683589259386183,-2.689941985903416
125,-7.975185415057646,-5.242192174859423,-7.9595396965201,-5.22223985025596,5.22223985025596,-2.752945564801686,-2.73729984626414,-2.7329932401982227
126,-7.975185415057645,-5.200593678560001,-7.9702020814542704,-5.181181348885909,5.181181348885908,-2.7940040661717367,-2.7890207325683622,-2.774591736497644
128,-7.975185415057645,-5.119616304649144,-7.974833066050363,-5.136015236757684,5.136015236757685,-2.83917017829996,-2.838817829292678,-2.8555691104085015
129,-7.975185415057644,-5.082198601825965,-7.976890012311431,-5.09009951530053,5.090099515300532,-2.8850858997571116,-2.8867904970108986,-2.8929868132316785
130,-7.975185415057646,-5.046179845724394,-7.98037493385089,-5.0473099157975785,5.047309915797579,-2.9278754992600664,-2.933065018053311,-2.9290055693332513
131,-7.975185415057645,-5.011533020521703,-7.988862446690708,-5.011088202549656,5.011088202549656,-2.9640972125079887,-2.9777742441410515,-2.9636523945359423
133,-7.975185415057646,-4.943775901673374,-8.004731513790322,-4.983705146204917,4.983705146204918,-2.9914802688527278,-3.021026367585404,-3.031409513384272
134,-7.975185415057645,-4.912994060082164,-8.028794050491491,-4.965919187533557,4.965919187533557,-3.009266227524088,-3.0628748629579343,-3.062191354975481
135,-7.975185415057646,-4.8834613151957065,-8.06036560182762,-4.957061825690129,4.95706182569013,-3.018123589367516,-3.1033037761374898,-3.091724099861939
137,-8.203105642977867,-5.053311177639966,-8.09767752152294,-4.955440848438075,4.955440848438073,-3.2476647945397943,-3.1422366730848665,-3.149794465337902
138,-8.203105642977865,-5.02727050535811,-8.138441259782883,-4.958874160918585,4.958874160918586,-3.2442314820592797,-3.1795670988642977,-3.1758351376197558
140,-8.203105642977867,-4.975816672917875,-8.180372326532138,-4.965173807080219,4.965173807080218,-3.2379318358976494,-3.2151985194519206,-3.227288970059992
141,-8.203105642977867,-4.952967706545577,-8.22155479743435,-4.972477299800759,4.972477299800759,-3.2306283431771083,-3.249077497633592,-3.2501379364322904
142,-8.203105642977867,-4.931120583624168,-8.26063467491107,-4.979427225611888,4.979427225611889,-3.223678417365978,-3.281207449299181,-3.2719850593537
144,-8.225547357811147,-4.9100384995204855,-8.296915865494192,-4.985276193845875,4.985276193845873,-3.2402711639652733,-3.3116396716483187,-3.3155088582906616
145,-8.407746409929148,-5.073181755318666,-8.3304543880177,-4.990005837677067,4.990005837677067,-3.4177405722520806,-3.340448550340632,-3.3345646546104812
147,-8.431025870898097,-5.058216969525118,-8.36219712489096,-4.9944930978933755,4.994493097893374,-3.436532773004723,-3.367704026997586,-3.3728089013729794
148,-8.431025870898097,-5.041673075104302,-8.394120771929163,-5.000666676459033,5.000666676459031,-3.430359194439066,-3.3934540954701324,-3.389352795793795
150,-8.431025870898097,-5.008170943763799,-8.42924658427799,-5.011522447141773,5.011522447141774,-3.419503423756323,-3.417724137136217,-3.4228549271342974
151,-8.431025870898097,-4.993881545865339,-8.47138719449198,-5.030855929146497,5.030855929146498,-3.4001699417515985,-3.4405312653454816,-3.437144325032758
153,-8.454130297202443,-4.987726907017756,-8.524546232350112,-5.0626413794488325,5.0626413794488325,-3.3914889177536107,-3.461904852901279,-3.466403390184687
154,-8.625646590822779,-5.1469753706639185,-8.592023400703951,-5.110121187480537,5.110121187480537,-3.5155254033422416,-3.481902213223414,-3.47867122015886
156,-8.658946098818326,-5.154803073095945,-8.67542536126013,-5.1748138389543215,5.1748138389543215,-3.4841322598640048,-3.5006115223058085,-3.504143025722381
157,-8.677750982727854,-5.163153493936434,-8.773881293610803,-5.255740795527583,5.255740795527581,-3.4220101872002733,-3.5181404980832216,-3.5145974887914195
159,-8.886866326738556,-5.3501730855444105,-8.883760209773964,-5.349164346157144,5.349164346157143,-3.5377019805814127,-3.534595863616821,-3.5366932411941447
160,-8.94816092486689,-5.402642259109566,-8.99907096109551,-5.44900855163576,5.449008551635759,-3.499152373231131,-3.550062409459751,-3.545518665757324
162,-9.114786554658785,-5.55018091121573,-9.112526043273096,-5.547935826036758,5.547935826036759,-3.5668507286220263,-3.5645902172363373,-3.564605643443055
