frequency,raw,error,smoothed,error_smoothed,equalization,parametric_eq,fixed_band_eq,equalized_raw,equalized_smoothed,target
20.00,11.52,3.16,11.52,3.16,-3.16,-3.32,-3.00,8.36,8.36,8.36
20.20,11.57,3.22,11.57,3.22,-3.22,-3.37,-3.09,8.35,8.35,8.35
20.40,11.63,3.29,11.63,3.29,-3.29,-3.43,-3.17,8.34,8.34,8.34
20.61,11.69,3.36,11.69,3.36,-3.36,-3.49,-3.26,8.33,8.33,8.33
20.81,11.75,3.43,11.75,3.43,-3.43,-3.54,-3.35,8.32,8.31,8.32
21.02,11.81,3.50,11.81,3.50,-3.51,-3.60,-3.45,8.30,8.30,8.30
21.23,11.87,3.57,11.87,3.58,-3.58,-3.66,-3.54,8.29,8.29,8.29
21.44,11.94,3.66,11.94,3.66,-3.66,-3.73,-3.65,8.28,8.28,8.28
21.66,12.01,3.74,12.01,3.74,-3.74,-3.79,-3.75,8.27,8.27,8.27
21.87,12.08,3.82,12.08,3.82,-3.82,-3.86,-3.86,8.26,8.26,8.26
22.09,12.15,3.90,12.15,3.90,-3.90,-3.92,-3.96,8.25,8.25,8.25
22.31,12.22,3.98,12.22,3.98,-3.98,-3.99,-4.08,8.24,8.24,8.24
22.54,12.30,4.07,12.29,4.07,-4.07,-4.06,-4.19,8.23,8.23,8.23
22.76,12.37,4.15,12.37,4.15,-4.15,-4.13,-4.31,8.22,8.22,8.22
22.99,12.45,4.23,12.45,4.24,-4.24,-4.21,-4.43,8.21,8.21,8.22
23.22,12.53,4.32,12.52,4.32,-4.32,-4.28,-4.55,8.20,8.20,8.20
23.45,12.60,4.41,12.60,4.41,-4.41,-4.36,-4.68,8.19,8.19,8.19
23.69,12.68,4.50,12.68,4.50,-4.50,-4.43,-4.81,8.18,8.18,8.18
23.92,12.76,4.59,12.76,4.59,-4.59,-4.51,-4.94,8.17,8.17,8.17
24.16,12.84,4.68,12.84,4.68,-4.67,-4.59,-5.08,8.17,8.16,8.16
24.40,12.91,4.76,12.92,4.77,-4.76,-4.68,-5.21,8.15,8.15,8.15
24.65,13.00,4.85,13.00,4.85,-4.85,-4.76,-5.35,8.15,8.15,8.15
24.89,13.08,4.94,13.08,4.94,-4.94,-4.85,-5.49,8.14,8.14,8.14
25.14,13.16,5.02,13.16,5.02,-5.03,-4.93,-5.63,8.13,8.14,8.14
25.39,13.25,5.12,13.25,5.11,-5.11,-5.02,-5.78,8.14,8.13,8.13
25.65,13.33,5.20,13.33,5.20,-5.20,-5.11,-5.92,8.12,8.13,8.13
25.91,13.42,5.29,13.42,5.29,-5.29,-5.20,-6.07,8.12,8.13,8.13
26.16,13.51,5.39,13.51,5.38,-5.38,-5.30,-6.21,8.13,8.13,8.12
26.43,13.60,5.47,13.60,5.47,-5.47,-5.39,-6.36,8.12,8.12,8.12
26.69,13.69,5.57,13.69,5.57,-5.56,-5.49,-6.50,8.13,8.12,8.12
26.96,13.77,5.65,13.77,5.66,-5.65,-5.58,-6.64,8.11,8.12,8.12
27.23,13.87,5.75,13.86,5.74,-5.75,-5.68,-6.78,8.12,8.11,8.12
27.50,13.95,5.83,13.95,5.84,-5.84,-5.78,-6.92,8.11,8.11,8.11
27.77,14.04,5.93,14.04,5.93,-5.94,-5.88,-7.05,8.10,8.11,8.11
28.05,14.14,6.04,14.13,6.03,-6.03,-5.98,-7.18,8.11,8.10,8.10
28.33,14.22,6.12,14.22,6.13,-6.13,-6.08,-7.30,8.09,8.09,8.10
28.62,14.32,6.23,14.31,6.23,-6.23,-6.18,-7.42,8.09,8.09,8.08
28.90,14.40,6.32,14.40,6.32,-6.33,-6.28,-7.52,8.07,8.07,8.08
29.19,14.50,6.43,14.49,6.43,-6.43,-6.39,-7.63,8.07,8.07,8.07
29.48,14.58,6.52,14.58,6.53,-6.52,-6.49,-7.71,8.05,8.06,8.05
29.78,14.68,6.63,14.67,6.63,-6.62,-6.59,-7.79,8.06,8.05,8.05
30.08,14.76,6.72,14.76,6.72,-6.72,-6.69,-7.86,8.04,8.04,8.04
30.38,14.85,6.81,14.84,6.81,-6.81,-6.79,-7.92,8.04,8.04,8.03
30.68,14.93,6.90,14.93,6.90,-6.90,-6.89,-7.96,8.03,8.03,8.03
30.99,15.01,6.98,15.01,6.99,-6.99,-6.99,-7.99,8.02,8.03,8.03
31.30,15.10,7.07,15.09,7.07,-7.07,-7.08,-8.01,8.03,8.02,8.02
31.61,15.18,7.16,15.17,7.15,-7.15,-7.18,-8.01,8.03,8.02,8.02
31.93,15.25,7.22,15.25,7.23,-7.23,-7.27,-8.00,8.02,8.02,8.03
32.24,15.33,7.31,15.33,7.30,-7.31,-7.36,-7.99,8.02,8.02,8.02
32.57,15.40,7.38,15.40,7.38,-7.38,-7.44,-7.95,8.02,8.02,8.02
32.89,15.47,7.45,15.47,7.45,-7.45,-7.53,-7.91,8.02,8.02,8.02
33.22,15.54,7.52,15.53,7.52,-7.52,-7.60,-7.85,8.02,8.01,8.02
33.55,15.59,7.58,15.59,7.58,-7.58,-7.68,-7.79,8.01,8.01,8.01
33.89,15.65,7.65,15.65,7.65,-7.65,-7.75,-7.71,8.00,8.00,8.00
34.23,15.70,7.71,15.70,7.70,-7.70,-7.81,-7.63,7.99,8.00,7.99
34.57,15.75,7.76,15.74,7.76,-7.76,-7.87,-7.54,7.99,7.99,7.99
34.92,15.78,7.81,15.78,7.81,-7.81,-7.92,-7.45,7.97,7.97,7.97
35.27,15.81,7.85,15.81,7.85,-7.85,-7.96,-7.35,7.95,7.96,7.96
35.62,15.84,7.90,15.83,7.89,-7.89,-8.00,-7.24,7.94,7.94,7.94
35.97,15.85,7.93,15.85,7.93,-7.93,-8.03,-7.13,7.92,7.92,7.92
36.33,15.87,7.96,15.87,7.96,-7.96,-8.06,-7.02,7.90,7.90,7.91
36.70,15.87,7.99,15.87,7.99,-7.99,-8.07,-6.91,7.88,7.88,7.88
37.06,15.88,8.02,15.88,8.01,-8.01,-8.08,-6.80,7.87,7.86,7.86
37.43,15.87,8.03,15.87,8.03,-8.03,-8.08,-6.68,7.84,7.84,7.84
37.81,15.86,8.04,15.86,8.04,-8.04,-8.08,-6.57,7.82,7.82,7.82
38.19,15.83,8.04,15.83,8.04,-8.04,-8.06,-6.45,7.79,7.79,7.79
38.57,15.81,8.04,15.80,8.03,-8.03,-8.04,-6.34,7.78,7.77,7.77
38.95,15.77,8.01,15.77,8.02,-8.02,-8.01,-6.23,7.75,7.75,7.75
39.34,15.73,7.99,15.73,7.99,-7.99,-7.98,-6.12,7.74,7.74,7.74
39.74,15.68,7.96,15.68,7.96,-7.96,-7.93,-6.02,7.72,7.72,7.72
40.14,15.62,7.92,15.62,7.92,-7.92,-7.88,-5.92,7.70,7.70,7.70
40.54,15.55,7.86,15.55,7.87,-7.87,-7.83,-5.82,7.68,7.68,7.69
40.94,15.49,7.81,15.49,7.82,-7.82,-7.76,-5.72,7.67,7.67,7.68
41.35,15.42,7.76,15.42,7.76,-7.75,-7.69,-5.63,7.67,7.66,7.66
41.76,15.34,7.69,15.34,7.69,-7.68,-7.62,-5.54,7.65,7.65,7.65
42.18,15.25,7.60,15.25,7.61,-7.61,-7.54,-5.45,7.64,7.64,7.64
42.60,15.15,7.51,15.15,7.52,-7.52,-7.45,-5.37,7.62,7.63,7.63
43.03,15.06,7.44,15.06,7.43,-7.43,-7.36,-5.29,7.62,7.62,7.62
43.46,14.96,7.34,14.96,7.34,-7.34,-7.27,-5.22,7.62,7.62,7.62
43.90,14.86,7.24,14.85,7.24,-7.24,-7.17,-5.15,7.62,7.61,7.62
44.33,14.74,7.14,14.74,7.14,-7.14,-7.07,-5.08,7.60,7.61,7.60
44.78,14.63,7.03,14.63,7.03,-7.03,-6.97,-5.01,7.60,7.60,7.60
45.23,14.51,6.92,14.51,6.92,-6.92,-6.87,-4.96,7.59,7.59,7.59
45.68,14.39,6.81,14.39,6.81,-6.81,-6.76,-4.90,7.58,7.58,7.58
46.13,14.27,6.70,14.27,6.70,-6.70,-6.65,-4.85,7.57,7.57,7.56
46.60,14.14,6.58,14.14,6.59,-6.59,-6.54,-4.80,7.55,7.56,7.56
47.06,14.02,6.48,14.02,6.47,-6.47,-6.43,-4.75,7.54,7.54,7.54
47.53,13.89,6.36,13.88,6.36,-6.36,-6.32,-4.71,7.53,7.52,7.52
48.01,13.75,6.24,13.75,6.25,-6.25,-6.20,-4.67,7.50,7.51,7.51
48.49,13.62,6.13,13.62,6.13,-6.13,-6.09,-4.64,7.49,7.49,7.49
48.97,13.49,6.02,13.49,6.02,-6.02,-5.98,-4.61,7.47,7.47,7.47
49.46,13.35,5.90,13.35,5.90,-5.90,-5.86,-4.58,7.44,7.45,7.45
49.96,13.22,5.80,13.21,5.79,-5.79,-5.75,-4.55,7.43,7.42,7.42
50.46,13.07,5.67,13.07,5.68,-5.68,-5.64,-4.53,7.39,7.40,7.40
50.96,12.93,5.56,12.93,5.56,-5.56,-5.53,-4.51,7.37,7.37,7.37
51.47,12.80,5.45,12.79,5.45,-5.45,-5.41,-4.49,7.35,7.35,7.35
51.99,12.66,5.34,12.66,5.34,-5.33,-5.30,-4.47,7.33,7.32,7.32
52.51,12.52,5.22,12.52,5.22,-5.22,-5.19,-4.45,7.30,7.30,7.30
53.03,12.38,5.10,12.38,5.11,-5.11,-5.08,-4.44,7.27,7.27,7.27
53.56,12.24,4.99,12.24,4.99,-4.99,-4.98,-4.42,7.25,7.25,7.25
54.10,12.11,4.89,12.10,4.88,-4.88,-4.87,-4.41,7.23,7.22,7.22
54.64,11.96,4.76,11.96,4.77,-4.77,-4.76,-4.40,7.19,7.20,7.20
55.18,11.83,4.66,11.83,4.66,-4.66,-4.66,-4.39,7.17,7.17,7.17
55.74,11.69,4.55,11.69,4.55,-4.55,-4.55,-4.37,7.14,7.14,7.14
56.29,11.55,4.44,11.55,4.44,-4.44,-4.45,-4.36,7.11,7.11,7.11
56.86,11.41,4.33,11.41,4.33,-4.33,-4.35,-4.35,7.08,7.08,7.08
57.42,11.28,4.23,11.28,4.23,-4.23,-4.25,-4.33,7.05,7.05,7.05
58.00,11.14,4.12,11.14,4.12,-4.12,-4.15,-4.31,7.02,7.02,7.02
58.58,11.01,4.02,11.01,4.02,-4.02,-4.05,-4.30,6.99,6.99,6.98
59.16,10.87,3.92,10.87,3.92,-3.92,-3.95,-4.28,6.95,6.95,6.95
59.76,10.74,3.82,10.74,3.82,-3.82,-3.86,-4.25,6.92,6.91,6.91
60.35,10.60,3.72,10.60,3.72,-3.73,-3.77,-4.23,6.87,6.88,6.88
60.96,10.47,3.63,10.47,3.63,-3.63,-3.67,-4.20,6.84,6.84,6.84
61.57,10.34,3.55,10.34,3.54,-3.54,-3.58,-4.17,6.80,6.80,6.79
62.18,10.21,3.45,10.21,3.45,-3.45,-3.49,-4.13,6.75,6.75,6.75
62.80,10.08,3.36,10.08,3.37,-3.37,-3.40,-4.10,6.71,6.71,6.71
63.43,9.95,3.28,9.95,3.28,-3.28,-3.31,-4.06,6.67,6.67,6.66
64.07,9.83,3.21,9.83,3.20,-3.20,-3.23,-4.01,6.63,6.63,6.62
64.71,9.70,3.12,9.70,3.12,-3.12,-3.14,-3.97,6.58,6.58,6.58
65.35,9.57,3.03,9.57,3.04,-3.04,-3.06,-3.92,6.53,6.53,6.53
66.01,9.44,2.95,9.44,2.95,-2.96,-2.98,-3.87,6.48,6.48,6.49
66.67,9.32,2.88,9.31,2.87,-2.88,-2.89,-3.81,6.44,6.44,6.44
67.33,9.19,2.80,9.19,2.80,-2.80,-2.81,-3.75,6.39,6.39,6.39
68.01,9.07,2.73,9.07,2.73,-2.72,-2.74,-3.70,6.34,6.34,6.34
68.69,8.95,2.66,8.94,2.65,-2.65,-2.66,-3.63,6.30,6.29,6.29
69.37,8.82,2.58,8.82,2.58,-2.57,-2.58,-3.57,6.24,6.25,6.24
70.07,8.70,2.50,8.70,2.50,-2.50,-2.51,-3.50,6.20,6.20,6.20
70.77,8.58,2.43,8.57,2.43,-2.43,-2.43,-3.44,6.15,6.14,6.14
71.48,8.45,2.36,8.45,2.36,-2.36,-2.36,-3.37,6.09,6.09,6.09
72.19,8.32,2.28,8.32,2.29,-2.29,-2.29,-3.30,6.03,6.04,6.03
72.91,8.21,2.22,8.20,2.22,-2.22,-2.22,-3.23,5.99,5.98,5.99
73.64,8.08,2.15,8.08,2.15,-2.15,-2.15,-3.16,5.92,5.93,5.93
74.38,7.96,2.09,7.96,2.09,-2.09,-2.08,-3.09,5.87,5.87,5.87
75.12,7.84,2.03,7.84,2.03,-2.03,-2.01,-3.02,5.81,5.81,5.81
75.87,7.72,1.96,7.72,1.97,-1.96,-1.95,-2.95,5.75,5.75,5.76
76.63,7.60,1.91,7.60,1.91,-1.91,-1.89,-2.88,5.69,5.69,5.69
77.40,7.48,1.85,7.48,1.85,-1.85,-1.83,-2.81,5.63,5.63,5.63
78.17,7.36,1.79,7.36,1.79,-1.79,-1.77,-2.74,5.56,5.57,5.56
78.95,7.24,1.73,7.24,1.74,-1.74,-1.71,-2.67,5.50,5.50,5.51
79.74,7.13,1.69,7.12,1.69,-1.69,-1.65,-2.60,5.44,5.44,5.44
80.54,7.01,1.64,7.01,1.64,-1.64,-1.60,-2.54,5.37,5.38,5.37
81.35,6.90,1.59,6.89,1.59,-1.59,-1.54,-2.47,5.31,5.31,5.31
82.16,6.78,1.54,6.78,1.54,-1.54,-1.49,-2.41,5.24,5.24,5.24
82.98,6.66,1.49,6.66,1.49,-1.49,-1.44,-2.34,5.17,5.18,5.17
83.81,6.55,1.44,6.54,1.44,-1.44,-1.40,-2.28,5.11,5.11,5.11
84.65,6.43,1.39,6.43,1.39,-1.39,-1.35,-2.22,5.04,5.04,5.03
85.50,6.31,1.34,6.31,1.34,-1.34,-1.31,-2.16,4.97,4.97,4.97
86.35,6.20,1.29,6.19,1.29,-1.30,-1.27,-2.10,4.90,4.90,4.90
87.22,6.08,1.25,6.08,1.25,-1.25,-1.23,-2.04,4.83,4.83,4.83
88.09,5.97,1.21,5.97,1.21,-1.21,-1.19,-1.98,4.76,4.76,4.76
88.97,5.86,1.18,5.86,1.18,-1.17,-1.16,-1.93,4.69,4.69,4.68
89.86,5.76,1.14,5.75,1.14,-1.14,-1.13,-1.88,4.62,4.61,4.61
90.76,5.64,1.10,5.64,1.10,-1.10,-1.10,-1.82,4.54,4.54,4.54
91.66,5.53,1.06,5.53,1.07,-1.07,-1.07,-1.77,4.46,4.46,4.47
92.58,5.43,1.04,5.42,1.04,-1.04,-1.05,-1.72,4.39,4.38,4.39
93.51,5.32,1.01,5.32,1.02,-1.02,-1.03,-1.68,4.30,4.31,4.30
94.44,5.22,1.00,5.22,1.00,-0.99,-1.01,-1.63,4.23,4.23,4.22
95.39,5.12,0.98,5.11,0.97,-0.97,-0.99,-1.58,4.15,4.14,4.14
96.34,5.01,0.95,5.01,0.95,-0.96,-0.98,-1.54,4.05,4.06,4.06
97.30,4.91,0.93,4.91,0.94,-0.94,-0.97,-1.50,3.97,3.97,3.97
98.28,4.82,0.94,4.81,0.93,-0.93,-0.96,-1.46,3.89,3.88,3.88
99.26,4.72,0.92,4.72,0.92,-0.92,-0.96,-1.41,3.79,3.80,3.80
100.25,4.63,0.91,4.63,0.92,-0.92,-0.95,-1.38,3.71,3.71,3.71
101.25,4.54,0.92,4.54,0.91,-0.91,-0.95,-1.34,3.63,3.62,3.62
102.27,4.45,0.91,4.45,0.91,-0.91,-0.95,-1.30,3.54,3.54,3.54
103.29,4.36,0.91,4.36,0.91,-0.91,-0.96,-1.27,3.45,3.45,3.45
104.32,4.27,0.90,4.27,0.90,-0.90,-0.96,-1.24,3.37,3.37,3.37
105.37,4.18,0.90,4.18,0.90,-0.90,-0.97,-1.21,3.28,3.28,3.28
106.42,4.10,0.90,4.10,0.90,-0.90,-0.98,-1.18,3.20,3.20,3.20
107.48,4.01,0.90,4.01,0.90,-0.89,-0.99,-1.15,3.12,3.12,3.11
108.56,3.93,0.90,3.92,0.89,-0.89,-1.01,-1.13,3.04,3.03,3.03
109.64,3.84,0.88,3.84,0.89,-0.89,-1.03,-1.10,2.95,2.95,2.95
110.74,3.76,0.89,3.76,0.89,-0.89,-1.05,-1.08,2.86,2.87,2.87
111.85,3.69,0.90,3.68,0.90,-0.90,-1.07,-1.06,2.79,2.78,2.79
112.97,3.61,0.91,3.61,0.91,-0.91,-1.09,-1.05,2.70,2.70,2.70
114.10,3.55,0.93,3.55,0.93,-0.93,-1.11,-1.03,2.62,2.62,2.62
115.24,3.48,0.94,3.48,0.94,-0.95,-1.14,-1.02,2.53,2.53,2.54
116.39,3.42,0.97,3.42,0.97,-0.97,-1.17,-1.01,2.44,2.45,2.44
117.55,3.36,1.00,3.36,1.00,-1.00,-1.19,-1.01,2.36,2.36,2.36
118.73,3.31,1.04,3.31,1.03,-1.03,-1.22,-1.00,2.28,2.27,2.27
119.92,3.25,1.07,3.25,1.07,-1.06,-1.26,-1.00,2.19,2.19,2.18
121.12,3.19,1.10,3.19,1.10,-1.09,-1.29,-1.00,2.10,2.10,2.09
122.33,3.13,1.13,3.13,1.13,-1.13,-1.32,-1.01,2.00,2.01,2.00
123.55,3.08,1.17,3.07,1.16,-1.16,-1.36,-1.01,1.92,1.91,1.91
124.79,3.02,1.19,3.02,1.19,-1.19,-1.40,-1.02,1.82,1.82,1.82
126.03,2.96,1.22,2.96,1.23,-1.23,-1.43,-1.04,1.73,1.73,1.74
127.29,2.91,1.27,2.91,1.26,-1.27,-1.47,-1.05,1.64,1.64,1.64
128.57,2.87,1.31,2.86,1.31,-1.31,-1.51,-1.07,1.56,1.55,1.56
129.85,2.82,1.35,2.82,1.35,-1.35,-1.55,-1.10,1.46,1.47,1.47
131.15,2.79,1.40,2.79,1.40,-1.40,-1.60,-1.12,1.39,1.39,1.39
132.46,2.76,1.45,2.76,1.45,-1.45,-1.64,-1.15,1.31,1.31,1.30
133.79,2.73,1.50,2.73,1.50,-1.50,-1.68,-1.18,1.23,1.23,1.23
135.12,2.71,1.56,2.71,1.55,-1.55,-1.73,-1.22,1.16,1.16,1.15
136.48,2.69,1.61,2.69,1.61,-1.61,-1.77,-1.25,1.08,1.09,1.08
137.84,2.68,1.67,2.67,1.66,-1.66,-1.82,-1.29,1.02,1.02,1.01
139.22,2.66,1.71,2.66,1.71,-1.71,-1.87,-1.33,0.95,0.95,0.95
140.61,2.64,1.76,2.65,1.77,-1.77,-1.91,-1.38,0.87,0.88,0.88
142.02,2.64,1.83,2.63,1.82,-1.82,-1.96,-1.43,0.82,0.81,0.81
143.44,2.63,1.88,2.63,1.88,-1.88,-2.01,-1.48,0.75,0.75,0.75
144.87,2.62,1.93,2.62,1.94,-1.94,-2.06,-1.53,0.68,0.68,0.69
146.32,2.62,2.00,2.62,2.00,-2.00,-2.11,-1.58,0.62,0.62,0.62
147.78,2.63,2.07,2.62,2.06,-2.06,-2.16,-1.64,0.57,0.56,0.56
149.26,2.63,2.13,2.63,2.13,-2.12,-2.22,-1.70,0.51,0.50,0.50
150.75,2.63,2.19,2.63,2.19,-2.19,-2.27,-1.76,0.44,0.44,0.44
152.26,2.64,2.25,2.64,2.25,-2.25,-2.32,-1.82,0.39,0.39,0.39
153.78,2.65,2.32,2.65,2.32,-2.32,-2.38,-1.89,0.33,0.33,0.33
155.32,2.67,2.39,2.66,2.39,-2.39,-2.43,-1.96,0.28,0.27,0.27
156.88,2.68,2.46,2.68,2.46,-2.46,-2.49,-2.03,0.21,0.22,0.22
158.44,2.70,2.53,2.70,2.53,-2.54,-2.55,-2.10,0.16,0.16,0.17
160.03,2.73,2.61,2.72,2.61,-2.62,-2.60,-2.17,0.11,0.11,0.11
161.63,2.75,2.69,2.75,2.70,-2.70,-2.66,-2.25,0.05,0.06,0.05
163.24,2.78,2.78,2.78,2.78,-2.78,-2.72,-2.33,0.00,0.00,-0.01
164.88,2.81,2.86,2.81,2.86,-2.86,-2.78,-2.41,-0.05,-0.05,-0.05
166.53,2.84,2.94,2.84,2.94,-2.94,-2.84,-2.49,-0.10,-0.10,-0.10
168.19,2.87,3.02,2.87,3.02,-3.02,-2.90,-2.58,-0.15,-0.15,-0.15
169.87,2.91,3.10,2.90,3.10,-3.10,-2.96,-2.66,-0.19,-0.20,-0.19
171.57,2.94,3.18,2.94,3.18,-3.18,-3.02,-2.75,-0.24,-0.24,-0.25
173.29,2.98,3.27,2.98,3.27,-3.26,-3.08,-2.84,-0.29,-0.29,-0.29
175.02,3.02,3.35,3.02,3.35,-3.35,-3.15,-2.94,-0.33,-0.33,-0.33
176.77,3.06,3.43,3.06,3.43,-3.43,-3.21,-3.03,-0.37,-0.37,-0.37
178.54,3.11,3.52,3.11,3.52,-3.52,-3.27,-3.13,-0.41,-0.41,-0.41
180.32,3.17,3.62,3.16,3.61,-3.61,-3.34,-3.23,-0.44,-0.45,-0.45
182.13,3.21,3.69,3.21,3.70,-3.70,-3.40,-3.33,-0.49,-0.49,-0.49
183.95,3.27,3.79,3.27,3.79,-3.80,-3.47,-3.44,-0.53,-0.52,-0.52
185.79,3.34,3.90,3.33,3.89,-3.89,-3.53,-3.54,-0.56,-0.56,-0.56
187.65,3.40,3.99,3.40,3.99,-3.99,-3.60,-3.65,-0.60,-0.60,-0.59
189.52,3.46,4.08,3.46,4.09,-4.09,-3.67,-3.76,-0.64,-0.63,-0.63
191.42,3.53,4.20,3.53,4.20,-4.20,-3.74,-3.87,-0.67,-0.66,-0.67
193.33,3.61,4.31,3.60,4.30,-4.30,-3.80,-3.99,-0.69,-0.70,-0.70
195.27,3.67,4.40,3.67,4.40,-4.40,-3.87,-4.10,-0.73,-0.73,-0.73
197.22,3.74,4.50,3.74,4.50,-4.49,-3.94,-4.22,-0.76,-0.76,-0.76
199.19,3.80,4.59,3.80,4.59,-4.59,-4.01,-4.34,-0.79,-0.79,-0.79
201.18,3.87,4.68,3.87,4.68,-4.68,-4.08,-4.46,-0.81,-0.81,-0.82
203.19,3.93,4.77,3.93,4.77,-4.77,-4.15,-4.58,-0.84,-0.84,-0.84
205.23,3.98,4.85,3.98,4.85,-4.85,-4.22,-4.70,-0.87,-0.87,-0.87
207.28,4.04,4.93,4.03,4.93,-4.93,-4.29,-4.82,-0.89,-0.90,-0.89
209.35,4.08,5.00,4.08,5.00,-5.01,-4.36,-4.94,-0.93,-0.92,-0.92
211.44,4.13,5.07,4.13,5.08,-5.08,-4.42,-5.06,-0.95,-0.95,-0.94
213.56,4.18,5.15,4.17,5.14,-5.14,-4.49,-5.18,-0.96,-0.97,-0.98
215.69,4.21,5.21,4.21,5.21,-5.20,-4.56,-5.30,-0.99,-0.99,-1.00
217.85,4.24,5.26,4.24,5.26,-5.26,-4.63,-5.41,-1.02,-1.02,-1.02
220.03,4.27,5.31,4.27,5.31,-5.31,-4.70,-5.52,-1.04,-1.04,-1.04
222.23,4.29,5.35,4.29,5.35,-5.35,-4.77,-5.63,-1.06,-1.06,-1.06
224.45,4.31,5.39,4.31,5.39,-5.39,-4.83,-5.74,-1.08,-1.08,-1.08
226.70,4.32,5.42,4.32,5.42,-5.43,-4.90,-5.84,-1.11,-1.10,-1.10
228.96,4.34,5.46,4.34,5.45,-5.46,-4.96,-5.93,-1.12,-1.12,-1.12
231.25,4.35,5.49,4.35,5.49,-5.49,-5.03,-6.02,-1.14,-1.14,-1.14
233.57,4.36,5.51,4.36,5.52,-5.52,-5.09,-6.11,-1.16,-1.16,-1.15
235.90,4.36,5.55,4.36,5.54,-5.54,-5.15,-6.18,-1.18,-1.18,-1.19
238.26,4.36,5.57,4.36,5.57,-5.56,-5.21,-6.25,-1.21,-1.20,-1.21
240.64,4.36,5.58,4.36,5.59,-5.58,-5.27,-6.31,-1.22,-1.22,-1.22
243.05,4.37,5.61,4.36,5.60,-5.60,-5.33,-6.36,-1.23,-1.24,-1.24
245.48,4.36,5.61,4.36,5.61,-5.61,-5.39,-6.40,-1.25,-1.25,-1.25
247.93,4.36,5.62,4.36,5.63,-5.62,-5.44,-6.44,-1.27,-1.26,-1.27
250.41,4.36,5.64,4.35,5.63,-5.63,-5.49,-6.46,-1.28,-1.28,-1.28
252.92,4.35,5.64,4.35,5.64,-5.64,-5.54,-6.48,-1.29,-1.29,-1.29
255.45,4.34,5.64,4.34,5.64,-5.65,-5.58,-6.48,-1.31,-1.31,-1.30
258.00,4.33,5.65,4.33,5.65,-5.65,-5.63,-6.48,-1.32,-1.32,-1.32
260.58,4.33,5.66,4.33,5.66,-5.66,-5.67,-6.47,-1.33,-1.33,-1.33
263.19,4.32,5.67,4.32,5.66,-5.66,-5.71,-6.45,-1.34,-1.34,-1.35
265.82,4.31,5.67,4.31,5.67,-5.67,-5.74,-6.43,-1.36,-1.36,-1.36
268.48,4.29,5.66,4.29,5.67,-5.67,-5.77,-6.39,-1.38,-1.38,-1.37
271.16,4.28,5.67,4.28,5.67,-5.67,-5.79,-6.35,-1.39,-1.39,-1.39
273.87,4.27,5.67,4.27,5.67,-5.67,-5.82,-6.31,-1.40,-1.40,-1.40
276.61,4.26,5.68,4.26,5.68,-5.67,-5.84,-6.25,-1.41,-1.42,-1.42
279.38,4.24,5.67,4.24,5.67,-5.67,-5.85,-6.20,-1.43,-1.43,-1.43
282.17,4.23,5.68,4.22,5.67,-5.67,-5.86,-6.14,-1.44,-1.44,-1.45
284.99,4.21,5.66,4.21,5.66,-5.66,-5.87,-6.08,-1.46,-1.46,-1.45
287.84,4.19,5.64,4.19,5.66,-5.66,-5.87,-6.01,-1.47,-1.46,-1.46
290.72,4.19,5.66,4.18,5.65,-5.65,-5.86,-5.95,-1.46,-1.47,-1.47
293.63,4.17,5.65,4.17,5.65,-5.65,-5.86,-5.88,-1.48,-1.47,-1.48
296.57,4.16,5.65,4.16,5.64,-5.64,-5.85,-5.81,-1.48,-1.48,-1.49
299.53,4.14,5.62,4.14,5.63,-5.63,-5.83,-5.74,-1.49,-1.49,-1.49
302.53,4.12,5.62,4.12,5.62,-5.63,-5.81,-5.67,-1.51,-1.50,-1.50
305.55,4.11,5.61,4.11,5.61,-5.62,-5.79,-5.61,-1.51,-1.51,-1.50
308.61,4.10,5.61,4.10,5.61,-5.61,-5.77,-5.54,-1.51,-1.51,-1.52
311.69,4.09,5.60,4.09,5.60,-5.60,-5.74,-5.48,-1.51,-1.51,-1.51
314.81,4.08,5.61,4.08,5.60,-5.59,-5.72,-5.41,-1.51,-1.52,-1.53
317.96,4.06,5.58,4.06,5.59,-5.58,-5.69,-5.35,-1.52,-1.52,-1.52
321.14,4.05,5.58,4.05,5.58,-5.58,-5.67,-5.30,-1.53,-1.53,-1.53
324.35,4.03,5.56,4.03,5.56,-5.57,-5.64,-5.24,-1.54,-1.54,-1.53
327.59,4.02,5.55,4.02,5.55,-5.56,-5.62,-5.19,-1.54,-1.54,-1.53
330.87,4.01,5.54,4.01,5.54,-5.55,-5.60,-5.15,-1.54,-1.54,-1.53
334.18,4.01,5.55,4.00,5.54,-5.54,-5.59,-5.10,-1.53,-1.54,-1.54
337.52,3.99,5.53,3.99,5.54,-5.53,-5.58,-5.06,-1.55,-1.54,-1.54
340.90,3.99,5.54,3.99,5.53,-5.53,-5.57,-5.02,-1.54,-1.54,-1.55
344.30,3.98,5.52,3.98,5.52,-5.52,-5.56,-4.99,-1.54,-1.54,-1.54
347.75,3.97,5.51,3.97,5.51,-5.51,-5.55,-4.96,-1.55,-1.54,-1.54
351.23,3.97,5.52,3.96,5.51,-5.51,-5.55,-4.93,-1.54,-1.54,-1.55
354.74,3.96,5.49,3.96,5.50,-5.50,-5.55,-4.91,-1.54,-1.54,-1.53
358.28,3.95,5.50,3.95,5.50,-5.50,-5.55,-4.89,-1.55,-1.54,-1.55
361.87,3.95,5.49,3.94,5.49,-5.49,-5.54,-4.88,-1.54,-1.55,-1.54
365.49,3.94,5.48,3.94,5.49,-5.49,-5.54,-4.87,-1.55,-1.55,-1.55
369.14,3.94,5.49,3.94,5.48,-5.48,-5.54,-4.86,-1.55,-1.55,-1.55
372.83,3.94,5.48,3.93,5.48,-5.48,-5.53,-4.86,-1.54,-1.55,-1.54
376.56,3.93,5.47,3.93,5.48,-5.48,-5.53,-4.86,-1.55,-1.55,-1.54
380.33,3.93,5.48,3.93,5.48,-5.48,-5.52,-4.86,-1.55,-1.55,-1.55
384.13,3.93,5.49,3.92,5.48,-5.47,-5.51,-4.87,-1.55,-1.55,-1.56
387.97,3.92,5.47,3.92,5.47,-5.47,-5.50,-4.88,-1.55,-1.55,-1.55
391.85,3.92,5.46,3.92,5.47,-5.47,-5.48,-4.89,-1.55,-1.55,-1.55
395.77,3.91,5.46,3.91,5.46,-5.47,-5.47,-4.90,-1.56,-1.55,-1.55
399.73,3.91,5.46,3.91,5.46,-5.46,-5.46,-4.92,-1.55,-1.55,-1.55
403.72,3.91,5.46,3.90,5.46,-5.46,-5.44,-4.94,-1.55,-1.55,-1.55
407.76,3.90,5.45,3.90,5.46,-5.45,-5.42,-4.96,-1.55,-1.55,-1.56
411.84,3.90,5.46,3.89,5.45,-5.45,-5.41,-4.99,-1.55,-1.55,-1.56
415.96,3.89,5.44,3.88,5.44,-5.44,-5.39,-5.01,-1.56,-1.56,-1.55
420.12,3.87,5.43,3.88,5.43,-5.44,-5.37,-5.04,-1.57,-1.56,-1.56
424.32,3.87,5.43,3.87,5.43,-5.43,-5.36,-5.06,-1.56,-1.56,-1.56
428.56,3.86,5.42,3.86,5.42,-5.42,-5.34,-5.09,-1.57,-1.57,-1.57
432.85,3.85,5.42,3.84,5.41,-5.41,-5.33,-5.11,-1.56,-1.57,-1.57
437.18,3.82,5.40,3.83,5.40,-5.40,-5.31,-5.14,-1.58,-1.57,-1.58
441.55,3.81,5.39,3.81,5.39,-5.38,-5.30,-5.16,-1.57,-1.58,-1.58
445.96,3.79,5.37,3.79,5.37,-5.36,-5.28,-5.18,-1.58,-1.58,-1.58
450.42,3.77,5.34,3.77,5.34,-5.34,-5.27,-5.20,-1.58,-1.58,-1.57
454.93,3.74,5.31,3.74,5.32,-5.32,-5.25,-5.21,-1.58,-1.58,-1.58
459.48,3.71,5.29,3.71,5.29,-5.30,-5.24,-5.23,-1.59,-1.59,-1.58
464.07,3.68,5.27,3.68,5.26,-5.27,-5.22,-5.23,-1.59,-1.59,-1.59
468.71,3.65,5.24,3.65,5.24,-5.24,-5.21,-5.24,-1.59,-1.59,-1.59
473.40,3.62,5.21,3.62,5.21,-5.20,-5.19,-5.24,-1.59,-1.59,-1.59
478.13,3.58,5.17,3.58,5.17,-5.17,-5.17,-5.23,-1.59,-1.59,-1.59
482.91,3.54,5.13,3.54,5.13,-5.13,-5.14,-5.22,-1.59,-1.59,-1.59
487.74,3.50,5.08,3.50,5.08,-5.08,-5.12,-5.20,-1.59,-1.59,-1.59
492.62,3.45,5.03,3.45,5.04,-5.04,-5.09,-5.17,-1.59,-1.59,-1.59
497.55,3.40,4.99,3.40,4.98,-4.98,-5.05,-5.14,-1.58,-1.59,-1.59
