frequency,raw
20,16.19
21,16.24
22,16.30
23,16.34
24,16.38
25,16.42
26,16.45
27,16.48
28,16.51
29,16.53
30,16.55
31,16.55
32,16.56
33,16.55
34,16.53
35,16.53
36,16.53
37,16.53
38,16.53
39,16.53
40,16.53
41,16.53
42,16.53
43,16.53
44,16.53
45,16.54
46,16.55
47,16.55
48,16.55
49,16.53
50,16.51
51,16.49
52,16.46
53,16.43
54,16.40
55,16.37
56,16.35
57,16.31
58,16.27
59,16.23
60,16.19
61,16.14
62,16.10
63,16.07
64,16.04
65,16.02
66,16.00
67,15.97
68,15.95
69,15.93
70,15.90
71,15.87
72,15.84
73,15.81
74,15.79
75,15.77
76,15.74
77,15.71
78,15.67
79,15.64
80,15.61
81,15.59
82,15.57
83,15.57
84,15.56
85,15.55
86,15.54
87,15.53
88,15.51
89,15.48
90,15.45
91,15.42
92,15.38
93,15.35
94,15.31
95,15.28
96,15.25
97,15.22
98,15.20
99,15.19
100,15.20
101,15.22
102,15.25
104,15.29
105,15.32
106,15.35
107,15.38
108,15.42
109,15.45
110,15.48
111,15.51
112,15.54
113,15.56
114,15.57
115,15.58
117,15.59
118,15.59
119,15.58
120,15.58
121,15.57
123,15.55
124,15.53
125,15.50
126,15.48
128,15.45
129,15.42
130,15.39
131,15.36
133,15.31
134,15.27
135,15.23
137,15.19
138,15.15
140,15.10
141,15.05
142,15.01
144,14.96
145,14.92
147,14.87
148,14.81
150,14.75
151,14.69
153,14.64
154,14.59
156,14.54
157,14.48
159,14.42
160,14.37
162,14.31
164,14.26
165,14.21
167,14.15
169,14.08
170,14.00
172,13.93
174,13.86
175,13.79
177,13.73
179,13.64
181,13.55
183,13.46
184,13.37
186,13.27
188,13.17
190,13.06
192,12.96
194,12.86
196,12.78
198,12.68
200,12.58
202,12.48
204,12.38
206,12.28
208,12.18
210,12.10
212,12.01
214,11.91
216,11.81
218,11.71
221,11.62
223,11.53
225,11.43
227,11.33
229,11.25
232,11.18
234,11.09
236,11.01
239,10.94
241,10.86
244,10.79
246,10.72
248,10.65
251,10.59
253,10.52
256,10.45
259,10.37
261,10.30
264,10.22
266,10.15
269,10.09
272,10.01
274,9.92
277,9.85
280,9.77
283,9.67
286,9.58
288,9.48
291,9.39
294,9.29
297,9.18
300,9.07
303,8.95
306,8.83
309,8.70
312,8.56
316,8.44
319,8.32
322,8.19
325,8.05
328,7.92
332,7.78
335,7.64
338,7.52
342,7.38
345,7.26
349,7.13
352,6.99
356,6.86
359,6.73
363,6.59
366,6.45
370,6.31
374,6.17
377,6.02
381,5.87
385,5.73
389,5.59
393,5.44
397,5.29
401,5.14
405,4.97
409,4.81
413,4.67
417,4.51
421,4.34
425,4.18
430,4.03
434,3.87
438,3.71
443,3.54
447,3.39
451,3.24
456,3.08
460,2.92
465,2.76
470,2.63
474,2.48
479,2.33
484,2.18
489,2.02
494,1.87
499,1.72
504,1.57
509,1.42
514,1.27
519,1.12
524,0.98
529,0.84
535,0.69
540,0.56
545,0.43
551,0.31
556,0.19
562,0.08
568,-0.03
573,-0.13
579,-0.23
585,-0.32
591,-0.39
596,-0.46
602,-0.51
608,-0.56
615,-0.59
621,-0.62
627,-0.65
633,-0.66
639,-0.67
646,-0.68
652,-0.69
659,-0.69
665,-0.69
672,-0.68
679,-0.67
686,-0.66
692,-0.64
699,-0.61
706,-0.58
713,-0.56
721,-0.53
728,-0.51
735,-0.47
742,-0.43
750,-0.38
757,-0.33
765,-0.28
773,-0.24
780,-0.20
788,-0.17
796,-0.15
804,-0.13
812,-0.10
820,-0.07
828,-0.02
837,0.02
845,0.06
853,0.11
862,0.15
871,0.17
879,0.19
888,0.21
897,0.22
906,0.22
915,0.22
924,0.21
933,0.19
943,0.16
952,0.12
962,0.08
971,0.05
981,0.02
991,0.01
1001,-0.00
1011,-0.01
1021,-0.03
1031,-0.04
1041,-0.05
1052,-0.07
1062,-0.10
1073,-0.13
1084,-0.15
1094,-0.18
1105,-0.22
1116,-0.27
1128,-0.32
1139,-0.37
1150,-0.41
1162,-0.46
1173,-0.50
1185,-0.53
1197,-0.55
1209,-0.58
1221,-0.61
1233,-0.63
1246,-0.65
1258,-0.67
1271,-0.69
1283,-0.70
1296,-0.69
1309,-0.69
1322,-0.67
1335,-0.66
1349,-0.64
1362,-0.61
1376,-0.59
1390,-0.56
1404,-0.53
1418,-0.50
1432,-0.48
1446,-0.44
1461,-0.40
1475,-0.35
1490,-0.31
1505,-0.27
1520,-0.24
1535,-0.21
1550,-0.18
1566,-0.14
1582,-0.10
1597,-0.06
1613,-0.01
1629,0.04
1646,0.09
1662,0.15
1679,0.21
1696,0.26
1713,0.30
1730,0.34
1747,0.39
1764,0.46
1782,0.51
1800,0.56
1818,0.61
1836,0.67
1854,0.72
1873,0.78
1892,0.84
1911,0.91
1930,0.98
1949,1.04
1969,1.11
1988,1.19
2008,1.28
2028,1.36
2048,1.44
2069,1.51
2090,1.58
2111,1.65
2132,1.72
2153,1.79
2175,1.85
2196,1.91
2218,1.98
2240,2.05
2263,2.12
2285,2.20
2308,2.30
2331,2.41
2355,2.53
2378,2.66
2402,2.82
2426,3.00
2450,3.19
2475,3.38
2500,3.59
2525,3.82
2550,4.06
2575,4.29
2601,4.52
2627,4.76
2653,4.99
2680,5.21
2707,5.42
2734,5.62
2761,5.80
2789,5.96
2817,6.10
2845,6.21
2873,6.31
2902,6.39
2931,6.44
2960,6.49
2990,6.52
3020,6.53
3050,6.53
3080,6.53
3111,6.51
3142,6.48
3174,6.44
3206,6.40
3238,6.35
3270,6.31
3303,6.26
3336,6.20
3369,6.12
3403,6.05
3437,5.97
3471,5.89
3506,5.81
3541,5.74
3576,5.68
3612,5.62
3648,5.57
3685,5.53
3721,5.51
3759,5.50
3796,5.49
3834,5.50
3873,5.52
3911,5.55
3950,5.61
3990,5.68
4030,5.75
4070,5.83
4111,5.92
4152,6.01
4193,6.10
4235,6.20
4278,6.30
4321,6.40
4364,6.49
4407,6.59
4451,6.69
4496,6.80
4541,6.90
4586,6.98
4632,7.05
4679,7.13
4725,7.19
4773,7.25
4820,7.33
4868,7.39
4917,7.45
4966,7.52
5016,7.60
5066,7.67
5117,7.74
5168,7.84
5220,7.93
5272,8.03
5325,8.14
5378,8.25
5432,8.36
5486,8.45
5541,8.54
5596,8.60
5652,8.67
5709,8.73
5766,8.76
5823,8.78
5882,8.80
5940,8.80
6000,8.78
6060,8.75
6120,8.69
6182,8.60
6244,8.49
6306,8.35
6369,8.19
6433,8.00
6497,7.78
6562,7.52
6628,7.21
6694,6.84
6761,6.43
6828,5.98
6897,5.48
6966,4.93
7035,4.34
7106,3.72
7177,3.07
7249,2.40
7321,1.71
7394,1.00
7468,0.28
7543,-0.45
7618,-1.17
7694,-1.87
7771,-2.55
7849,-3.19
7928,-3.79
8007,-4.36
8087,-4.88
8168,-5.32
8250,-5.70
8332,-6.00
8415,-6.23
8499,-6.37
8584,-6.43
8670,-6.43
8757,-6.36
8845,-6.24
8933,-6.07
9022,-5.88
9113,-5.66
9204,-5.43
9296,-5.20
9389,-4.97
9483,-4.74
9577,-4.50
9673,-4.27
9770,-4.03
9868,-3.79
9966,-3.55
10066,-3.31
10167,-3.06
10268,-2.82
10371,-2.58
10475,-2.32
10579,-2.07
10685,-1.83
10792,-1.60
10900,-1.37
11009,-1.15
11119,-0.94
11230,-0.74
11343,-0.56
11456,-0.39
11571,-0.23
11686,-0.09
11803,0.04
11921,0.15
12040,0.23
12161,0.29
12282,0.31
12405,0.31
12529,0.28
12655,0.22
12781,0.14
12909,0.02
13038,-0.12
13168,-0.29
13300,-0.49
13433,-0.72
13567,-0.96
13703,-1.21
13840,-1.48
13978,-1.74
14118,-2.02
14259,-2.31
14402,-2.59
14546,-2.86
14692,-3.11
14838,-3.35
14987,-3.58
15137,-3.77
15288,-3.93
15441,-4.05
15595,-4.14
15751,-4.19
15909,-4.21
16068,-4.20
16229,-4.17
16391,-4.13
16555,-4.06
16720,-3.98
16888,-3.88
17056,-3.79
17227,-3.70
17399,-3.62
17573,-3.54
17749,-3.46
17926,-3.38
18106,-3.32
18287,-3.30
18470,-3.29
18654,-3.29
18841,-3.31
19029,-3.34
19220,-3.38
19412,-3.44
19606,-3.50
19802,-3.58
20000,-3.68
