frequency,raw
20.00,16.19
20.20,16.20
20.40,16.21
20.61,16.22
20.81,16.23
21.02,16.24
21.23,16.25
21.44,16.27
21.66,16.28
21.87,16.29
22.09,16.30
22.31,16.31
22.54,16.32
22.76,16.33
22.99,16.34
23.22,16.35
23.45,16.36
23.69,16.37
23.92,16.38
24.16,16.39
24.40,16.40
24.65,16.41
24.89,16.42
25.14,16.42
25.39,16.43
25.65,16.44
25.91,16.45
26.16,16.46
26.43,16.46
26.69,16.47
26.96,16.48
27.23,16.49
27.50,16.50
27.77,16.50
28.05,16.51
28.33,16.52
28.62,16.52
28.90,16.53
29.19,16.53
29.48,16.54
29.78,16.55
30.08,16.55
30.38,16.55
30.68,16.55
30.99,16.55
31.30,16.55
31.61,16.56
31.93,16.56
32.24,16.56
32.57,16.55
32.89,16.55
33.22,16.55
33.55,16.54
33.89,16.53
34.23,16.53
34.57,16.53
34.92,16.53
35.27,16.53
35.62,16.53
35.97,16.53
36.33,16.53
36.70,16.53
37.06,16.53
37.43,16.53
37.81,16.53
38.19,16.53
38.57,16.53
38.95,16.53
39.34,16.53
39.74,16.53
40.14,16.53
40.54,16.53
40.94,16.53
41.35,16.53
41.76,16.53
42.18,16.53
42.60,16.53
43.03,16.53
43.46,16.53
43.90,16.53
44.33,16.53
44.78,16.54
45.23,16.54
45.68,16.55
46.13,16.55
46.60,16.55
47.06,16.55
47.53,16.55
48.01,16.55
48.49,16.54
48.97,16.53
49.46,16.52
49.96,16.51
50.46,16.50
50.96,16.49
51.47,16.48
51.99,16.46
52.51,16.44
53.03,16.43
53.56,16.41
54.10,16.40
54.64,16.38
55.18,16.37
55.74,16.36
56.29,16.34
56.86,16.32
57.42,16.29
58.00,16.27
58.58,16.25
59.16,16.22
59.76,16.20
60.35,16.17
60.96,16.14
61.57,16.12
62.18,16.09
62.80,16.08
63.43,16.06
64.07,16.04
64.71,16.03
65.35,16.01
66.01,16.00
66.67,15.98
67.33,15.96
68.01,15.95
68.69,15.94
69.37,15.92
70.07,15.90
70.77,15.88
71.48,15.86
72.19,15.83
72.91,15.81
73.64,15.80
74.38,15.78
75.12,15.77
75.87,15.74
76.63,15.72
77.40,15.69
78.17,15.66
78.95,15.64
79.74,15.62
80.54,15.60
81.35,15.58
82.16,15.57
82.98,15.57
83.81,15.56
84.65,15.55
85.50,15.55
86.35,15.54
87.22,15.53
88.09,15.51
88.97,15.48
89.86,15.45
90.76,15.43
91.66,15.39
92.58,15.36
93.51,15.33
94.44,15.30
95.39,15.27
96.34,15.24
97.30,15.21
98.28,15.20
99.26,15.19
100.25,15.21
101.25,15.23
102.27,15.26
103.29,15.28
104.32,15.30
105.37,15.33
106.42,15.36
107.48,15.40
108.56,15.44
109.64,15.47
110.74,15.50
111.85,15.54
112.97,15.56
114.10,15.57
115.24,15.58
116.39,15.59
117.55,15.59
118.73,15.58
119.92,15.58
121.12,15.57
122.33,15.56
123.55,15.54
124.79,15.51
126.03,15.48
127.29,15.46
128.57,15.43
129.85,15.39
131.15,15.36
132.46,15.32
133.79,15.28
135.12,15.23
136.48,15.20
137.84,15.16
139.22,15.12
140.61,15.07
142.02,15.01
143.44,14.97
144.87,14.93
146.32,14.89
147.78,14.82
149.26,14.77
150.75,14.70
152.26,14.66
153.78,14.60
155.32,14.56
156.88,14.49
158.44,14.44
160.03,14.37
161.63,14.32
163.24,14.28
164.88,14.22
166.53,14.16
168.19,14.11
169.87,14.01
171.57,13.94
173.29,13.88
175.02,13.79
176.77,13.74
178.54,13.66
180.32,13.58
182.13,13.50
183.95,13.37
185.79,13.28
187.65,13.19
189.52,13.09
191.42,12.99
193.33,12.89
195.27,12.81
197.22,12.72
199.19,12.62
201.18,12.52
203.19,12.42
205.23,12.32
207.28,12.22
209.35,12.13
211.44,12.03
213.56,11.93
215.69,11.83
217.85,11.72
220.03,11.65
222.23,11.56
224.45,11.46
226.70,11.35
228.96,11.25
231.25,11.20
233.57,11.11
235.90,11.01
238.26,10.96
240.64,10.87
243.05,10.81
245.48,10.74
247.93,10.65
250.41,10.60
252.92,10.52
255.45,10.46
258.00,10.40
260.58,10.31
263.19,10.24
265.82,10.16
268.48,10.10
271.16,10.03
273.87,9.93
276.61,9.86
279.38,9.79
282.17,9.70
284.99,9.61
287.84,9.49
290.72,9.40
293.63,9.30
296.57,9.20
299.53,9.09
302.53,8.97
305.55,8.85
308.61,8.72
311.69,8.57
314.81,8.48
317.96,8.36
321.14,8.23
324.35,8.08
327.59,7.94
330.87,7.82
334.18,7.68
337.52,7.54
340.90,7.42
344.30,7.29
347.75,7.17
351.23,7.03
354.74,6.90
358.28,6.76
361.87,6.63
365.49,6.47
369.14,6.34
372.83,6.21
376.56,6.04
380.33,5.90
384.13,5.76
387.97,5.63
391.85,5.48
395.77,5.34
399.73,5.19
403.72,5.02
407.76,4.86
411.84,4.71
415.96,4.55
420.12,4.38
424.32,4.21
428.56,4.07
432.85,3.92
437.18,3.74
441.55,3.59
445.96,3.43
450.42,3.26
454.93,3.11
459.48,2.94
464.07,2.79
468.71,2.66
473.40,2.50
478.13,2.36
482.91,2.21
487.74,2.06
492.62,1.91
497.55,1.76
502.52,1.61
507.55,1.46
512.62,1.31
517.75,1.16
522.93,1.01
528.16,0.86
533.44,0.73
538.77,0.59
544.16,0.45
549.60,0.34
555.10,0.21
560.65,0.10
566.25,-0.00
571.92,-0.11
577.64,-0.21
583.41,-0.30
589.25,-0.37
595.14,-0.45
601.09,-0.50
607.10,-0.55
613.17,-0.58
619.30,-0.61
625.50,-0.64
631.75,-0.66
638.07,-0.67
644.45,-0.68
650.89,-0.69
657.40,-0.69
663.98,-0.69
670.62,-0.68
677.32,-0.67
684.10,-0.66
690.94,-0.64
697.85,-0.61
704.83,-0.59
711.87,-0.56
718.99,-0.54
726.18,-0.52
733.44,-0.48
740.78,-0.44
748.19,-0.39
755.67,-0.34
763.23,-0.29
770.86,-0.25
778.57,-0.21
786.35,-0.18
794.22,-0.15
802.16,-0.13
810.18,-0.11
818.28,-0.08
826.46,-0.03
834.73,0.01
843.08,0.05
851.51,0.10
860.02,0.14
868.62,0.16
877.31,0.19
886.08,0.21
894.94,0.22
903.89,0.22
912.93,0.22
922.06,0.21
931.28,0.19
940.59,0.17
950.00,0.13
959.50,0.09
969.09,0.06
978.78,0.03
988.57,0.01
998.46,0.00
1008.44,-0.01
1018.53,-0.03
1028.71,-0.04
1039.00,-0.05
1049.39,-0.07
1059.88,-0.09
1070.48,-0.12
1081.19,-0.14
1092.00,-0.17
1102.92,-0.21
1113.95,-0.26
1125.09,-0.31
1136.34,-0.36
1147.70,-0.40
1159.18,-0.45
1170.77,-0.49
1182.48,-0.52
1194.30,-0.55
1206.25,-0.57
1218.31,-0.60
1230.49,-0.63
1242.80,-0.65
1255.22,-0.67
1267.78,-0.69
1280.45,-0.70
1293.26,-0.69
1306.19,-0.69
1319.25,-0.67
1332.45,-0.66
1345.77,-0.64
1359.23,-0.62
1372.82,-0.59
1386.55,-0.57
1400.41,-0.54
1414.42,-0.51
1428.56,-0.48
1442.85,-0.45
1457.28,-0.41
1471.85,-0.36
1486.57,-0.32
1501.43,-0.28
1516.45,-0.25
1531.61,-0.22
1546.93,-0.19
1562.40,-0.15
1578.02,-0.11
1593.80,-0.07
1609.74,-0.02
1625.84,0.03
1642.10,0.08
1658.52,0.14
1675.10,0.20
1691.85,0.25
1708.77,0.29
1725.86,0.33
1743.12,0.38
1760.55,0.45
1778.15,0.50
1795.94,0.55
1813.90,0.60
1832.03,0.66
1850.36,0.71
1868.86,0.77
1887.55,0.83
1906.42,0.89
1925.49,0.96
1944.74,1.03
1964.19,1.09
1983.83,1.17
2003.67,1.26
2023.71,1.34
2043.94,1.42
2064.38,1.49
2085.03,1.56
2105.88,1.63
2126.94,1.70
2148.20,1.77
2169.69,1.84
2191.38,1.90
2213.30,1.97
2235.43,2.04
2257.78,2.10
2280.36,2.18
2303.17,2.28
2326.20,2.39
2349.46,2.50
2372.95,2.63
2396.68,2.78
2420.65,2.96
2444.86,3.15
2469.31,3.34
2494.00,3.54
2518.94,3.76
2544.13,4.00
2569.57,4.24
2595.27,4.47
2621.22,4.71
2647.43,4.94
2673.90,5.16
2700.64,5.37
2727.65,5.57
2754.93,5.76
2782.48,5.92
2810.30,6.07
2838.40,6.18
2866.79,6.29
2895.46,6.37
2924.41,6.43
2953.65,6.48
2983.19,6.51
3013.02,6.53
3043.15,6.53
3073.58,6.53
3104.32,6.51
3135.36,6.49
3166.72,6.45
3198.38,6.41
3230.37,6.36
3262.67,6.32
3295.30,6.27
3328.25,6.21
3361.53,6.14
3395.15,6.07
3429.10,5.99
3463.39,5.91
3498.03,5.83
3533.01,5.76
3568.34,5.69
3604.02,5.63
3640.06,5.58
3676.46,5.54
3713.22,5.51
3750.36,5.50
3787.86,5.49
3825.74,5.50
3864.00,5.52
3902.64,5.54
3941.66,5.60
3981.08,5.66
4020.89,5.73
4061.10,5.81
4101.71,5.90
4142.73,5.99
4184.15,6.08
4226.00,6.18
4268.26,6.28
4310.94,6.38
4354.05,6.47
4397.59,6.57
4441.56,6.67
4485.98,6.78
4530.84,6.88
4576.15,6.96
4621.91,7.03
4668.13,7.11
4714.81,7.18
4761.96,7.24
4809.58,7.31
4857.67,7.38
4906.25,7.44
4955.31,7.50
5004.87,7.58
5054.91,7.65
5105.46,7.72
5156.52,7.82
5208.08,7.91
5260.16,8.01
5312.77,8.11
5365.89,8.22
5419.55,8.33
5473.75,8.43
5528.49,8.52
5583.77,8.59
5639.61,8.65
5696.00,8.72
5752.96,8.75
5810.49,8.78
5868.60,8.80
5927.28,8.80
5986.56,8.78
6046.42,8.76
6106.89,8.70
6167.96,8.62
6229.64,8.52
6291.93,8.38
6354.85,8.23
6418.40,8.04
6482.58,7.83
6547.41,7.58
6612.88,7.28
6679.01,6.92
6745.80,6.52
6813.26,6.08
6881.39,5.59
6950.21,5.06
7019.71,4.47
7089.91,3.86
7160.81,3.22
7232.41,2.55
7304.74,1.87
7377.79,1.16
7451.56,0.44
7526.08,-0.29
7601.34,-1.01
7677.35,-1.72
7754.13,-2.40
7831.67,-3.05
7909.98,-3.65
7989.08,-4.23
8068.98,-4.76
8149.67,-5.22
8231.16,-5.61
8313.47,-5.93
8396.61,-6.18
8480.57,-6.34
8565.38,-6.42
8651.03,-6.43
8737.54,-6.38
8824.92,-6.27
8913.17,-6.11
9002.30,-5.92
9092.32,-5.71
9183.25,-5.48
9275.08,-5.25
9367.83,-5.02
9461.51,-4.79
9556.12,-4.55
9651.68,-4.32
9748.20,-4.08
9845.68,-3.84
9944.14,-3.60
10043.58,-3.36
10144.02,-3.12
10245.46,-2.87
10347.91,-2.63
10451.39,-2.38
10555.91,-2.13
10661.46,-1.88
10768.08,-1.65
10875.76,-1.42
10984.52,-1.20
11094.36,-0.99
11205.31,-0.78
11317.36,-0.60
11430.53,-0.43
11544.84,-0.27
11660.29,-0.12
11776.89,0.01
11894.66,0.13
12013.60,0.21
12133.74,0.28
12255.08,0.31
12377.63,0.31
12501.41,0.29
12626.42,0.23
12752.68,0.16
12880.21,0.05
13009.01,-0.09
13139.10,-0.25
13270.49,-0.45
13403.20,-0.67
13537.23,-0.91
13672.60,-1.15
13809.33,-1.42
13947.42,-1.68
14086.90,-1.96
14227.77,-2.25
14370.04,-2.53
14513.74,-2.80
14658.88,-3.05
14805.47,-3.30
14953.52,-3.53
15103.06,-3.73
15254.09,-3.89
15406.63,-4.02
15560.70,-4.12
15716.30,-4.18
15873.47,-4.21
16032.20,-4.20
16192.52,-4.18
16354.45,-4.14
16517.99,-4.08
16683.17,-4.00
16850.01,-3.90
17018.51,-3.81
17188.69,-3.72
17360.58,-3.64
17534.18,-3.56
17709.53,-3.48
17886.62,-3.40
18065.49,-3.33
18246.14,-3.30
18428.60,-3.29
18612.89,-3.29
18799.02,-3.31
18987.01,-3.33
19176.88,-3.37
19368.65,-3.43
19562.33,-3.49
19757.96,-3.56
19955.54,-3.66
