frequency,raw,error,smoothed,error_smoothed,equalization,parametric_eq,fixed_band_eq,equalized_raw,equalized_smoothed,target
20.00,-21.87,-19.59,-21.69,-19.42,6.00,5.14,2.80,-15.87,-15.69,-2.28
20.20,-21.67,-19.43,-21.55,-19.32,6.00,5.19,2.88,-15.67,-15.55,-2.24
20.40,-21.47,-19.26,-21.41,-19.21,6.00,5.24,2.96,-15.47,-15.41,-2.21
20.61,-21.28,-19.10,-21.28,-19.10,6.00,5.29,3.04,-15.28,-15.28,-2.18
20.81,-21.08,-18.94,-21.13,-18.98,6.00,5.34,3.13,-15.08,-15.13,-2.14
21.02,-20.88,-18.78,-20.99,-18.86,6.00,5.39,3.22,-14.88,-14.99,-2.10
21.23,-20.70,-18.61,-20.84,-18.74,6.00,5.44,3.31,-14.70,-14.84,-2.09
21.44,-20.51,-18.43,-20.69,-18.61,6.00,5.49,3.40,-14.51,-14.69,-2.07
21.66,-20.33,-18.28,-20.54,-18.48,6.00,5.53,3.50,-14.33,-14.54,-2.05
21.87,-20.15,-18.10,-20.39,-18.34,6.00,5.58,3.60,-14.15,-14.39,-2.04
22.09,-20.04,-18.01,-20.23,-18.20,6.00,5.63,3.70,-14.04,-14.23,-2.02
22.31,-20.03,-18.00,-20.07,-18.05,6.00,5.67,3.81,-14.03,-14.07,-2.03
22.54,-20.02,-18.00,-19.93,-17.92,6.00,5.72,3.92,-14.02,-13.93,-2.02
22.76,-20.02,-18.01,-19.77,-17.77,6.00,5.76,4.03,-14.02,-13.77,-2.01
22.99,-20.01,-18.00,-19.61,-17.62,6.00,5.80,4.14,-14.01,-13.61,-2.01
23.22,-19.72,-17.72,-19.45,-17.46,6.00,5.85,4.26,-13.72,-13.45,-2.00
23.45,-19.41,-17.42,-19.28,-17.30,6.00,5.89,4.37,-13.41,-13.28,-1.99
23.69,-19.11,-17.13,-19.12,-17.14,6.00,5.93,4.49,-13.11,-13.12,-1.98
23.92,-18.79,-16.82,-18.95,-16.98,6.00,5.97,4.62,-12.79,-12.95,-1.97
24.16,-18.58,-16.62,-18.78,-16.81,6.00,6.00,4.74,-12.58,-12.78,-1.96
24.40,-18.42,-16.47,-18.60,-16.64,6.00,6.04,4.87,-12.42,-12.60,-1.95
24.65,-18.27,-16.31,-18.42,-16.45,6.00,6.08,5.00,-12.27,-12.42,-1.96
24.89,-18.11,-16.15,-18.23,-16.27,6.00,6.11,5.13,-12.11,-12.23,-1.96
25.14,-17.99,-16.03,-18.04,-16.08,6.00,6.14,5.27,-11.99,-12.04,-1.96
25.39,-17.90,-15.94,-17.87,-15.91,6.00,6.18,5.40,-11.90,-11.87,-1.96
25.65,-17.81,-15.85,-17.71,-15.76,6.00,6.21,5.54,-11.81,-11.71,-1.96
25.91,-17.72,-15.75,-17.58,-15.62,6.00,6.24,5.67,-11.72,-11.58,-1.97
26.16,-17.56,-15.59,-17.45,-15.49,6.00,6.26,5.81,-11.56,-11.45,-1.96
26.43,-17.36,-15.40,-17.31,-15.35,6.00,6.29,5.94,-11.36,-11.31,-1.96
26.69,-17.16,-15.20,-17.17,-15.20,6.00,6.32,6.07,-11.16,-11.17,-1.96
26.96,-16.96,-15.00,-17.01,-15.04,6.00,6.34,6.21,-10.96,-11.01,-1.96
27.23,-16.82,-14.86,-16.85,-14.88,6.00,6.36,6.34,-10.82,-10.85,-1.96
27.50,-16.68,-14.72,-16.68,-14.71,6.00,6.38,6.46,-10.68,-10.68,-1.97
27.77,-16.54,-14.56,-16.51,-14.54,6.00,6.40,6.59,-10.54,-10.51,-1.98
28.05,-16.39,-14.41,-16.35,-14.38,6.00,6.42,6.70,-10.39,-10.35,-1.98
28.33,-16.19,-14.20,-16.19,-14.21,6.00,6.43,6.82,-10.19,-10.19,-1.99
28.62,-16.00,-14.02,-16.03,-14.05,6.00,6.45,6.92,-10.00,-10.03,-1.98
28.90,-15.80,-13.82,-15.88,-13.90,6.00,6.46,7.02,-9.80,-9.88,-1.98
29.19,-15.65,-13.66,-15.72,-13.74,6.00,6.47,7.11,-9.65,-9.72,-1.99
29.48,-15.52,-13.54,-15.57,-13.58,6.00,6.48,7.20,-9.52,-9.57,-1.98
29.78,-15.39,-13.41,-15.41,-13.42,6.00,6.49,7.27,-9.39,-9.41,-1.98
30.08,-15.26,-13.28,-15.24,-13.25,6.00,6.49,7.33,-9.26,-9.24,-1.98
30.38,-15.14,-13.15,-15.07,-13.08,6.00,6.50,7.39,-9.14,-9.07,-1.99
30.68,-15.02,-13.02,-14.91,-12.91,6.00,6.50,7.43,-9.02,-8.91,-2.00
30.99,-14.90,-12.89,-14.75,-12.75,6.00,6.50,7.46,-8.90,-8.75,-2.01
31.30,-14.66,-12.66,-14.60,-12.59,6.00,6.50,7.48,-8.66,-8.60,-2.01
31.61,-14.42,-12.41,-14.45,-12.44,6.00,6.49,7.48,-8.42,-8.45,-2.01
31.93,-14.19,-12.17,-14.30,-12.29,6.00,6.49,7.48,-8.19,-8.30,-2.02
32.24,-14.02,-11.99,-14.15,-12.13,6.00,6.48,7.46,-8.02,-8.15,-2.03
32.57,-13.88,-11.85,-13.99,-11.96,6.00,6.47,7.44,-7.88,-7.99,-2.03
32.89,-13.75,-11.71,-13.82,-11.79,6.00,6.46,7.40,-7.75,-7.82,-2.03
33.22,-13.64,-11.60,-13.66,-11.62,6.00,6.45,7.35,-7.64,-7.66,-2.04
33.55,-13.56,-11.52,-13.49,-11.45,6.00,6.44,7.30,-7.56,-7.49,-2.04
33.89,-13.48,-11.44,-13.33,-11.29,6.00,6.42,7.23,-7.48,-7.33,-2.04
34.23,-13.31,-11.27,-13.18,-11.13,6.00,6.40,7.16,-7.31,-7.18,-2.04
34.57,-13.09,-11.04,-13.03,-10.98,6.00,6.38,7.09,-7.09,-7.03,-2.05
34.92,-12.88,-10.83,-12.89,-10.83,6.00,6.36,7.00,-6.88,-6.89,-2.05
35.27,-12.69,-10.64,-12.74,-10.68,6.00,6.34,6.92,-6.69,-6.74,-2.06
35.62,-12.51,-10.44,-12.59,-10.52,6.00,6.32,6.82,-6.51,-6.59,-2.07
35.97,-12.33,-10.26,-12.43,-10.36,6.00,6.29,6.73,-6.33,-6.43,-2.07
36.33,-12.23,-10.16,-12.27,-10.20,6.00,6.26,6.63,-6.23,-6.27,-2.07
36.70,-12.13,-10.06,-12.11,-10.03,6.00,6.24,6.53,-6.13,-6.11,-2.08
37.06,-12.02,-9.93,-11.96,-9.87,6.00,6.21,6.43,-6.02,-5.96,-2.09
37.43,-11.84,-9.75,-11.80,-9.71,6.00,6.18,6.33,-5.84,-5.80,-2.09
37.81,-11.67,-9.58,-11.65,-9.56,6.00,6.14,6.23,-5.67,-5.65,-2.09
38.19,-11.50,-9.40,-11.51,-9.41,6.00,6.11,6.14,-5.50,-5.51,-2.11
38.57,-11.35,-9.24,-11.36,-9.25,6.00,6.07,6.04,-5.35,-5.36,-2.11
38.95,-11.19,-9.08,-11.22,-9.11,6.00,6.04,5.94,-5.19,-5.22,-2.11
39.34,-11.08,-8.95,-11.08,-8.97,6.00,6.00,5.85,-5.08,-5.08,-2.12
39.74,-10.98,-8.84,-10.95,-8.83,6.00,5.96,5.76,-4.98,-4.95,-2.14
40.14,-10.85,-8.72,-10.81,-8.68,6.00,5.92,5.67,-4.85,-4.81,-2.13
40.54,-10.68,-8.55,-10.66,-8.53,6.00,5.88,5.58,-4.68,-4.66,-2.13
40.94,-10.51,-8.37,-10.52,-8.37,6.00,5.84,5.50,-4.51,-4.52,-2.14
41.35,-10.34,-8.19,-10.38,-8.22,6.00,5.80,5.42,-4.34,-4.38,-2.15
41.76,-10.18,-8.01,-10.26,-8.08,6.00,5.75,5.34,-4.18,-4.26,-2.16
42.18,-10.07,-7.89,-10.14,-7.94,6.00,5.71,5.27,-4.07,-4.14,-2.18
42.60,-10.05,-7.85,-10.01,-7.80,6.00,5.66,5.20,-4.05,-4.01,-2.20
43.03,-10.02,-7.80,-9.89,-7.66,6.00,5.62,5.14,-4.02,-3.89,-2.22
43.46,-9.82,-7.58,-9.78,-7.52,6.00,5.57,5.08,-3.82,-3.78,-2.24
43.90,-9.62,-7.34,-9.67,-7.39,6.00,5.52,5.02,-3.62,-3.67,-2.29
44.33,-9.49,-7.18,-9.56,-7.26,6.00,5.47,4.97,-3.49,-3.56,-2.31
44.78,-9.39,-7.05,-9.46,-7.13,6.00,5.42,4.92,-3.39,-3.46,-2.34
45.23,-9.33,-6.96,-9.36,-7.01,6.00,5.38,4.87,-3.33,-3.36,-2.37
45.68,-9.30,-6.90,-9.27,-6.89,6.00,5.32,4.83,-3.30,-3.27,-2.40
46.13,-9.23,-6.82,-9.17,-6.77,6.00,5.27,4.79,-3.23,-3.17,-2.41
46.60,-9.05,-6.64,-9.06,-6.65,6.00,5.22,4.75,-3.05,-3.06,-2.42
47.06,-8.89,-6.46,-8.95,-6.53,6.00,5.17,4.72,-2.89,-2.95,-2.43
47.53,-8.86,-6.42,-8.83,-6.40,6.00,5.12,4.69,-2.86,-2.83,-2.44
48.01,-8.84,-6.41,-8.71,-6.28,5.98,5.07,4.67,-2.86,-2.73,-2.43
48.49,-8.64,-6.20,-8.60,-6.16,5.94,5.01,4.65,-2.70,-2.66,-2.44
48.97,-8.44,-5.99,-8.47,-6.03,5.87,4.96,4.63,-2.57,-2.60,-2.45
49.46,-8.33,-5.87,-8.33,-5.89,5.78,4.91,4.61,-2.55,-2.55,-2.46
49.96,-8.22,-5.77,-8.18,-5.75,5.67,4.85,4.60,-2.55,-2.51,-2.45
50.46,-8.08,-5.64,-8.03,-5.59,5.56,4.80,4.59,-2.52,-2.47,-2.44
50.96,-7.94,-5.51,-7.88,-5.44,5.43,4.74,4.58,-2.51,-2.45,-2.43
51.47,-7.74,-5.30,-7.73,-5.29,5.29,4.69,4.57,-2.45,-2.45,-2.44
51.99,-7.53,-5.09,-7.59,-5.13,5.13,4.64,4.57,-2.40,-2.46,-2.45
52.51,-7.40,-4.95,-7.44,-4.97,4.97,4.58,4.56,-2.43,-2.47,-2.45
53.03,-7.28,-4.81,-7.29,-4.80,4.80,4.53,4.56,-2.48,-2.50,-2.47
53.56,-7.17,-4.67,-7.15,-4.63,4.63,4.47,4.56,-2.54,-2.52,-2.50
54.10,-7.05,-4.51,-7.03,-4.48,4.48,4.42,4.56,-2.57,-2.55,-2.54
54.64,-6.92,-4.34,-6.93,-4.35,4.35,4.36,4.56,-2.57,-2.58,-2.58
55.18,-6.84,-4.22,-6.84,-4.22,4.22,4.31,4.55,-2.62,-2.62,-2.62
55.74,-6.84,-4.17,-6.78,-4.11,4.11,4.25,4.55,-2.73,-2.67,-2.67
56.29,-6.77,-4.05,-6.75,-4.03,4.03,4.20,4.55,-2.74,-2.72,-2.71
56.86,-6.64,-3.88,-6.75,-3.98,3.98,4.14,4.54,-2.66,-2.77,-2.77
57.42,-6.61,-3.78,-6.78,-3.96,3.96,4.09,4.54,-2.65,-2.82,-2.83
58.00,-6.61,-3.73,-6.83,-3.95,3.95,4.03,4.53,-2.66,-2.87,-2.88
58.58,-6.74,-3.81,-6.88,-3.95,3.95,3.98,4.51,-2.79,-2.93,-2.93
59.16,-6.88,-3.90,-6.95,-3.97,3.97,3.93,4.50,-2.92,-2.98,-2.98
59.76,-7.01,-3.98,-7.02,-3.98,3.98,3.87,4.48,-3.03,-3.04,-3.03
60.35,-7.14,-4.05,-7.10,-4.00,4.00,3.82,4.46,-3.14,-3.09,-3.09
60.96,-7.28,-4.14,-7.18,-4.03,4.03,3.76,4.44,-3.25,-3.15,-3.14
61.57,-7.42,-4.22,-7.25,-4.05,4.05,3.71,4.41,-3.37,-3.20,-3.20
62.18,-7.52,-4.26,-7.30,-4.06,4.06,3.66,4.37,-3.46,-3.24,-3.26
62.80,-7.52,-4.22,-7.35,-4.06,4.06,3.60,4.34,-3.46,-3.29,-3.30
63.43,-7.48,-4.14,-7.39,-4.06,4.06,3.55,4.29,-3.42,-3.33,-3.34
64.07,-7.41,-4.03,-7.41,-4.03,4.03,3.50,4.25,-3.38,-3.37,-3.38
64.71,-7.33,-3.91,-7.40,-3.99,3.99,3.45,4.20,-3.34,-3.41,-3.42
65.35,-7.29,-3.84,-7.38,-3.93,3.93,3.40,4.15,-3.36,-3.45,-3.45
66.01,-7.29,-3.81,-7.35,-3.87,3.87,3.34,4.09,-3.42,-3.48,-3.48
66.67,-7.29,-3.78,-7.30,-3.80,3.80,3.29,4.03,-3.49,-3.51,-3.51
67.33,-7.22,-3.69,-7.24,-3.71,3.71,3.24,3.96,-3.51,-3.53,-3.53
68.01,-7.07,-3.52,-7.16,-3.61,3.61,3.19,3.89,-3.46,-3.55,-3.55
68.69,-7.07,-3.50,-7.10,-3.52,3.52,3.14,3.82,-3.55,-3.57,-3.57
69.37,-7.07,-3.48,-7.03,-3.44,3.44,3.09,3.75,-3.63,-3.59,-3.59
70.07,-7.05,-3.43,-6.96,-3.35,3.35,3.04,3.68,-3.70,-3.61,-3.62
70.77,-6.89,-3.27,-6.88,-3.25,3.25,2.99,3.60,-3.64,-3.63,-3.62
71.48,-6.84,-3.20,-6.80,-3.15,3.15,2.94,3.52,-3.69,-3.65,-3.64
72.19,-6.79,-3.14,-6.71,-3.04,3.04,2.89,3.44,-3.75,-3.67,-3.65
72.91,-6.63,-2.95,-6.62,-2.94,2.94,2.84,3.36,-3.69,-3.68,-3.68
73.64,-6.46,-2.77,-6.52,-2.82,2.82,2.80,3.27,-3.64,-3.70,-3.69
74.38,-6.38,-2.67,-6.43,-2.71,2.71,2.75,3.19,-3.67,-3.72,-3.71
75.12,-6.37,-2.64,-6.34,-2.60,2.60,2.70,3.11,-3.77,-3.73,-3.73
75.87,-6.33,-2.58,-6.25,-2.51,2.51,2.65,3.02,-3.82,-3.75,-3.75
76.63,-6.10,-2.33,-6.17,-2.41,2.41,2.61,2.94,-3.69,-3.76,-3.77
77.40,-5.95,-2.17,-6.08,-2.31,2.31,2.56,2.86,-3.64,-3.77,-3.78
78.17,-5.93,-2.14,-6.00,-2.22,2.22,2.51,2.78,-3.71,-3.78,-3.79
78.95,-5.93,-2.14,-5.93,-2.14,2.14,2.47,2.69,-3.79,-3.79,-3.79
79.74,-5.93,-2.14,-5.86,-2.07,2.07,2.42,2.61,-3.86,-3.79,-3.79
80.54,-5.85,-2.05,-5.80,-2.01,2.01,2.38,2.53,-3.84,-3.80,-3.80
81.35,-5.75,-1.95,-5.75,-1.96,1.96,2.33,2.46,-3.79,-3.79,-3.80
82.16,-5.70,-1.91,-5.71,-1.92,1.92,2.29,2.38,-3.78,-3.79,-3.79
82.98,-5.70,-1.92,-5.67,-1.89,1.89,2.25,2.30,-3.81,-3.78,-3.78
83.81,-5.70,-1.93,-5.63,-1.86,1.86,2.20,2.23,-3.84,-3.77,-3.77
84.65,-5.55,-1.79,-5.59,-1.84,1.84,2.16,2.15,-3.71,-3.75,-3.76
85.50,-5.47,-1.73,-5.56,-1.83,1.83,2.12,2.08,-3.64,-3.74,-3.74
86.35,-5.47,-1.75,-5.53,-1.81,1.81,2.07,2.01,-3.66,-3.72,-3.72
87.22,-5.47,-1.77,-5.49,-1.79,1.79,2.03,1.94,-3.68,-3.70,-3.70
88.09,-5.47,-1.78,-5.46,-1.78,1.78,1.99,1.87,-3.69,-3.68,-3.69
88.97,-5.47,-1.82,-5.43,-1.76,1.76,1.95,1.80,-3.71,-3.67,-3.65
89.86,-5.47,-1.83,-5.40,-1.75,1.75,1.91,1.74,-3.72,-3.65,-3.64
90.76,-5.45,-1.81,-5.36,-1.73,1.73,1.87,1.67,-3.72,-3.64,-3.64
91.66,-5.31,-1.70,-5.33,-1.70,1.70,1.83,1.61,-3.61,-3.62,-3.61
92.58,-5.24,-1.62,-5.29,-1.68,1.68,1.79,1.55,-3.56,-3.61,-3.62
93.51,-5.24,-1.64,-5.26,-1.65,1.65,1.75,1.49,-3.59,-3.61,-3.60
94.44,-5.24,-1.65,-5.23,-1.62,1.62,1.71,1.43,-3.62,-3.60,-3.59
95.39,-5.24,-1.65,-5.19,-1.59,1.59,1.67,1.37,-3.65,-3.60,-3.59
96.34,-5.21,-1.60,-5.16,-1.56,1.56,1.63,1.31,-3.65,-3.60,-3.61
97.30,-5.10,-1.49,-5.13,-1.53,1.53,1.59,1.26,-3.57,-3.60,-3.61
98.28,-5.01,-1.39,-5.10,-1.49,1.49,1.55,1.20,-3.52,-3.61,-3.62
99.26,-5.01,-1.38,-5.07,-1.45,1.45,1.52,1.15,-3.56,-3.62,-3.63
100.25,-5.01,-1.37,-5.05,-1.41,1.41,1.48,1.10,-3.60,-3.64,-3.64
101.25,-5.01,-1.36,-5.03,-1.37,1.37,1.44,1.05,-3.64,-3.65,-3.65
102.27,-5.01,-1.34,-5.01,-1.33,1.33,1.41,1.00,-3.68,-3.68,-3.67
103.29,-5.01,-1.31,-4.98,-1.28,1.28,1.37,0.95,-3.73,-3.70,-3.70
104.32,-5.01,-1.29,-4.95,-1.22,1.22,1.33,0.90,-3.79,-3.73,-3.72
105.37,-5.01,-1.26,-4.93,-1.16,1.16,1.30,0.85,-3.85,-3.77,-3.75
106.42,-5.01,-1.22,-4.91,-1.10,1.10,1.26,0.81,-3.91,-3.81,-3.79
107.48,-4.92,-1.08,-4.89,-1.04,1.04,1.23,0.76,-3.88,-3.85,-3.84
108.56,-4.80,-0.90,-4.88,-0.98,0.98,1.19,0.72,-3.82,-3.90,-3.90
109.64,-4.79,-0.84,-4.86,-0.91,0.91,1.16,0.68,-3.88,-3.95,-3.95
110.74,-4.79,-0.79,-4.84,-0.84,0.84,1.12,0.64,-3.95,-4.00,-4.00
111.85,-4.79,-0.74,-4.82,-0.76,0.76,1.09,0.59,-4.03,-4.06,-4.05
112.97,-4.79,-0.67,-4.81,-0.69,0.69,1.06,0.56,-4.10,-4.11,-4.12
114.10,-4.79,-0.63,-4.79,-0.63,0.63,1.02,0.52,-4.16,-4.17,-4.16
115.24,-4.79,-0.57,-4.78,-0.56,0.56,0.99,0.48,-4.23,-4.22,-4.22
116.39,-4.79,-0.51,-4.78,-0.51,0.51,0.96,0.44,-4.28,-4.27,-4.28
117.55,-4.79,-0.46,-4.77,-0.46,0.46,0.93,0.41,-4.33,-4.31,-4.33
118.73,-4.79,-0.41,-4.78,-0.42,0.42,0.89,0.37,-4.37,-4.35,-4.38
119.92,-4.79,-0.39,-4.79,-0.40,0.40,0.86,0.34,-4.39,-4.39,-4.40
121.12,-4.79,-0.35,-4.81,-0.38,0.38,0.83,0.31,-4.41,-4.42,-4.44
122.33,-4.79,-0.32,-4.81,-0.36,0.36,0.80,0.28,-4.43,-4.45,-4.47
123.55,-4.79,-0.32,-4.81,-0.33,0.33,0.77,0.25,-4.46,-4.48,-4.47
124.79,-4.79,-0.29,-4.80,-0.30,0.30,0.74,0.22,-4.49,-4.50,-4.50
126.03,-4.79,-0.28,-4.79,-0.27,0.27,0.70,0.19,-4.52,-4.52,-4.51
127.29,-4.79,-0.26,-4.77,-0.24,0.24,0.67,0.16,-4.55,-4.54,-4.53
128.57,-4.79,-0.24,-4.76,-0.20,0.20,0.64,0.13,-4.59,-4.55,-4.55
129.85,-4.79,-0.23,-4.74,-0.17,0.17,0.61,0.11,-4.62,-4.57,-4.56
131.15,-4.79,-0.21,-4.72,-0.13,0.13,0.58,0.08,-4.66,-4.59,-4.58
132.46,-4.79,-0.19,-4.70,-0.09,0.09,0.55,0.06,-4.70,-4.60,-4.60
133.79,-4.65,-0.04,-4.67,-0.05,0.05,0.52,0.03,-4.60,-4.62,-4.61
135.12,-4.56,0.08,-4.65,-0.01,0.01,0.49,0.01,-4.55,-4.64,-4.64
136.48,-4.56,0.09,-4.63,0.03,-0.03,0.47,-0.01,-4.59,-4.66,-4.65
137.84,-4.56,0.11,-4.61,0.07,-0.07,0.44,-0.03,-4.63,-4.68,-4.67
139.22,-4.56,0.15,-4.59,0.11,-0.11,0.41,-0.05,-4.67,-4.70,-4.71
140.61,-4.56,0.18,-4.57,0.15,-0.15,0.38,-0.08,-4.71,-4.72,-4.74
142.02,-4.56,0.19,-4.55,0.20,-0.20,0.35,-0.10,-4.76,-4.75,-4.75
143.44,-4.56,0.22,-4.53,0.25,-0.25,0.32,-0.12,-4.81,-4.78,-4.78
144.87,-4.56,0.25,-4.51,0.31,-0.31,0.29,-0.14,-4.87,-4.82,-4.81
146.32,-4.56,0.28,-4.51,0.35,-0.35,0.27,-0.16,-4.91,-4.86,-4.84
147.78,-4.56,0.31,-4.52,0.38,-0.38,0.24,-0.18,-4.94,-4.91,-4.87
149.26,-4.56,0.37,-4.55,0.41,-0.41,0.21,-0.20,-4.97,-4.96,-4.93
150.75,-4.56,0.43,-4.58,0.43,-0.43,0.18,-0.22,-4.99,-5.01,-4.99
152.26,-4.56,0.49,-4.62,0.45,-0.45,0.16,-0.24,-5.01,-5.07,-5.05
153.78,-4.56,0.55,-4.66,0.47,-0.47,0.13,-0.26,-5.03,-5.13,-5.11
155.32,-4.56,0.63,-4.69,0.49,-0.49,0.10,-0.28,-5.05,-5.19,-5.19
156.88,-4.58,0.67,-4.73,0.52,-0.52,0.08,-0.30,-5.10,-5.25,-5.25
158.44,-4.73,0.59,-4.76,0.55,-0.55,0.05,-0.32,-5.28,-5.30,-5.32
160.03,-4.85,0.53,-4.79,0.57,-0.57,0.02,-0.34,-5.42,-5.36,-5.38
161.63,-4.98,0.45,-4.81,0.59,-0.59,-0.00,-0.36,-5.57,-5.41,-5.43
163.24,-5.01,0.46,-4.84,0.61,-0.61,-0.03,-0.38,-5.62,-5.45,-5.47
164.88,-5.01,0.49,-4.86,0.63,-0.63,-0.06,-0.40,-5.64,-5.48,-5.50
166.53,-4.98,0.55,-4.87,0.64,-0.64,-0.08,-0.43,-5.62,-5.51,-5.53
168.19,-4.86,0.69,-4.88,0.65,-0.65,-0.11,-0.45,-5.51,-5.52,-5.55
169.87,-4.79,0.77,-4.88,0.65,-0.65,-0.13,-0.47,-5.44,-5.53,-5.56
171.57,-4.79,0.76,-4.87,0.66,-0.66,-0.16,-0.49,-5.45,-5.53,-5.55
173.29,-4.79,0.75,-4.86,0.67,-0.67,-0.18,-0.52,-5.46,-5.53,-5.54
175.02,-4.79,0.73,-4.84,0.68,-0.68,-0.21,-0.54,-5.47,-5.53,-5.52
176.77,-4.79,0.72,-4.82,0.70,-0.70,-0.23,-0.57,-5.49,-5.52,-5.51
178.54,-4.79,0.71,-4.80,0.71,-0.71,-0.26,-0.59,-5.50,-5.51,-5.50
180.32,-4.79,0.69,-4.78,0.72,-0.72,-0.28,-0.62,-5.51,-5.50,-5.48
182.13,-4.79,0.68,-4.78,0.72,-0.72,-0.31,-0.65,-5.51,-5.50,-5.47
183.95,-4.79,0.67,-4.78,0.71,-0.71,-0.33,-0.67,-5.50,-5.49,-5.46
185.79,-4.79,0.68,-4.79,0.69,-0.69,-0.36,-0.70,-5.48,-5.49,-5.47
187.65,-4.79,0.69,-4.80,0.68,-0.68,-0.38,-0.73,-5.47,-5.49,-5.48
189.52,-4.79,0.70,-4.80,0.69,-0.69,-0.41,-0.76,-5.48,-5.49,-5.49
191.42,-4.79,0.71,-4.80,0.70,-0.70,-0.43,-0.78,-5.49,-5.50,-5.50
193.33,-4.79,0.73,-4.78,0.73,-0.73,-0.45,-0.81,-5.52,-5.51,-5.52
195.27,-4.79,0.73,-4.78,0.74,-0.74,-0.48,-0.84,-5.53,-5.52,-5.52
197.22,-4.79,0.74,-4.77,0.76,-0.76,-0.50,-0.87,-5.55,-5.53,-5.53
199.19,-4.79,0.77,-4.75,0.80,-0.80,-0.53,-0.90,-5.59,-5.55,-5.56
201.18,-4.79,0.77,-4.72,0.84,-0.84,-0.55,-0.93,-5.63,-5.56,-5.56
203.19,-4.74,0.83,-4.69,0.88,-0.88,-0.57,-0.96,-5.62,-5.57,-5.57
205.23,-4.62,0.97,-4.66,0.93,-0.93,-0.60,-0.99,-5.55,-5.59,-5.59
207.28,-4.56,1.03,-4.62,0.98,-0.98,-0.62,-1.03,-5.54,-5.60,-5.59
209.35,-4.56,1.05,-4.58,1.02,-1.02,-0.64,-1.06,-5.58,-5.61,-5.61
211.44,-4.56,1.07,-4.56,1.06,-1.06,-0.67,-1.09,-5.62,-5.62,-5.63
213.56,-4.56,1.07,-4.52,1.11,-1.11,-0.69,-1.12,-5.67,-5.63,-5.63
215.69,-4.56,1.07,-4.48,1.15,-1.15,-0.71,-1.15,-5.71,-5.64,-5.63
217.85,-4.35,1.29,-4.44,1.20,-1.20,-0.73,-1.17,-5.55,-5.65,-5.64
220.03,-4.33,1.32,-4.40,1.25,-1.25,-0.76,-1.20,-5.58,-5.65,-5.65
222.23,-4.33,1.34,-4.37,1.29,-1.29,-0.78,-1.23,-5.62,-5.66,-5.67
224.45,-4.33,1.34,-4.33,1.33,-1.33,-0.80,-1.26,-5.66,-5.66,-5.67
226.70,-4.33,1.33,-4.30,1.36,-1.36,-0.82,-1.28,-5.69,-5.67,-5.66
228.96,-4.33,1.34,-4.28,1.39,-1.39,-0.84,-1.31,-5.72,-5.67,-5.67
231.25,-4.33,1.34,-4.26,1.41,-1.41,-0.87,-1.33,-5.74,-5.67,-5.67
233.57,-4.30,1.37,-4.23,1.44,-1.44,-0.89,-1.35,-5.74,-5.67,-5.67
235.90,-4.11,1.57,-4.20,1.47,-1.47,-0.91,-1.37,-5.58,-5.67,-5.68
238.26,-4.10,1.57,-4.17,1.50,-1.50,-0.93,-1.39,-5.60,-5.67,-5.67
240.64,-4.10,1.57,-4.14,1.53,-1.53,-0.95,-1.41,-5.63,-5.66,-5.67
243.05,-4.10,1.55,-4.11,1.54,-1.54,-0.97,-1.43,-5.64,-5.66,-5.65
245.48,-4.10,1.55,-4.08,1.57,-1.57,-0.99,-1.44,-5.67,-5.65,-5.65
247.93,-4.10,1.53,-4.04,1.60,-1.60,-1.01,-1.45,-5.70,-5.64,-5.63
250.41,-4.10,1.54,-4.01,1.62,-1.62,-1.04,-1.46,-5.72,-5.63,-5.64
252.92,-4.06,1.56,-3.98,1.64,-1.64,-1.06,-1.47,-5.70,-5.62,-5.62
255.45,-3.90,1.70,-3.95,1.66,-1.66,-1.08,-1.48,-5.56,-5.61,-5.60
258.00,-3.87,1.72,-3.93,1.67,-1.67,-1.10,-1.48,-5.54,-5.60,-5.59
260.58,-3.87,1.72,-3.92,1.67,-1.67,-1.12,-1.49,-5.54,-5.59,-5.59
263.19,-3.87,1.70,-3.91,1.66,-1.66,-1.14,-1.49,-5.53,-5.57,-5.57
265.82,-3.87,1.69,-3.89,1.66,-1.66,-1.15,-1.49,-5.53,-5.55,-5.56
268.48,-3.87,1.67,-3.88,1.66,-1.66,-1.17,-1.49,-5.53,-5.54,-5.54
271.16,-3.87,1.65,-3.86,1.65,-1.65,-1.19,-1.48,-5.52,-5.52,-5.52
273.87,-3.87,1.64,-3.86,1.64,-1.64,-1.21,-1.48,-5.51,-5.49,-5.51
276.61,-3.87,1.60,-3.85,1.62,-1.62,-1.23,-1.48,-5.49,-5.47,-5.47
279.38,-3.87,1.58,-3.85,1.59,-1.59,-1.25,-1.47,-5.46,-5.45,-5.45
282.17,-3.87,1.55,-3.86,1.56,-1.56,-1.26,-1.46,-5.43,-5.42,-5.42
284.99,-3.87,1.53,-3.87,1.53,-1.53,-1.28,-1.46,-5.40,-5.39,-5.40
287.84,-3.87,1.50,-3.87,1.49,-1.49,-1.30,-1.45,-5.36,-5.36,-5.37
290.72,-3.87,1.46,-3.87,1.46,-1.46,-1.32,-1.44,-5.33,-5.33,-5.33
293.63,-3.87,1.44,-3.87,1.44,-1.44,-1.33,-1.43,-5.31,-5.31,-5.31
296.57,-3.87,1.41,-3.87,1.41,-1.41,-1.35,-1.42,-5.28,-5.28,-5.28
299.53,-3.87,1.38,-3.87,1.38,-1.38,-1.36,-1.41,-5.25,-5.25,-5.25
302.53,-3.87,1.36,-3.87,1.36,-1.36,-1.38,-1.41,-5.23,-5.23,-5.23
305.55,-3.87,1.33,-3.87,1.34,-1.34,-1.39,-1.40,-5.21,-5.21,-5.20
308.61,-3.87,1.31,-3.87,1.32,-1.32,-1.41,-1.39,-5.19,-5.19,-5.18
311.69,-3.87,1.29,-3.87,1.30,-1.30,-1.42,-1.38,-5.17,-5.17,-5.16
314.81,-3.87,1.26,-3.87,1.29,-1.29,-1.43,-1.37,-5.16,-5.16,-5.13
317.96,-3.87,1.26,-3.87,1.27,-1.27,-1.44,-1.37,-5.14,-5.14,-5.13
321.14,-3.87,1.26,-3.87,1.26,-1.26,-1.45,-1.36,-5.13,-5.13,-5.13
324.35,-3.87,1.26,-3.87,1.25,-1.25,-1.46,-1.36,-5.12,-5.12,-5.13
327.59,-3.87,1.25,-3.87,1.24,-1.24,-1.47,-1.35,-5.11,-5.11,-5.12
330.87,-3.87,1.24,-3.87,1.23,-1.23,-1.48,-1.35,-5.10,-5.10,-5.11
334.18,-3.87,1.23,-3.88,1.21,-1.21,-1.49,-1.35,-5.08,-5.09,-5.10
337.52,-3.87,1.22,-3.89,1.19,-1.19,-1.50,-1.35,-5.06,-5.08,-5.09
340.90,-3.87,1.19,-3.89,1.18,-1.18,-1.50,-1.35,-5.05,-5.06,-5.06
344.30,-3.87,1.19,-3.88,1.16,-1.16,-1.50,-1.35,-5.03,-5.05,-5.06
347.75,-3.87,1.17,-3.88,1.15,-1.15,-1.51,-1.35,-5.02,-5.03,-5.04
351.23,-3.87,1.14,-3.87,1.14,-1.14,-1.51,-1.35,-5.01,-5.01,-5.01
354.74,-3.87,1.12,-3.85,1.13,-1.13,-1.50,-1.35,-5.00,-4.99,-4.99
358.28,-3.87,1.09,-3.83,1.13,-1.13,-1.50,-1.36,-5.00,-4.96,-4.96
361.87,-3.87,1.07,-3.82,1.12,-1.12,-1.49,-1.36,-4.99,-4.94,-4.94
365.49,-3.87,1.04,-3.80,1.12,-1.12,-1.49,-1.37,-4.99,-4.91,-4.91
369.14,-3.85,1.04,-3.77,1.12,-1.12,-1.47,-1.38,-4.97,-4.89,-4.89
372.83,-3.71,1.15,-3.75,1.12,-1.12,-1.46,-1.39,-4.83,-4.87,-4.86
376.56,-3.65,1.20,-3.73,1.12,-1.12,-1.44,-1.40,-4.77,-4.85,-4.85
380.33,-3.65,1.17,-3.71,1.12,-1.12,-1.42,-1.41,-4.77,-4.83,-4.82
384.13,-3.65,1.15,-3.69,1.12,-1.12,-1.40,-1.42,-4.77,-4.81,-4.80
387.97,-3.65,1.14,-3.67,1.12,-1.12,-1.37,-1.43,-4.77,-4.79,-4.79
391.85,-3.65,1.13,-3.66,1.12,-1.12,-1.34,-1.44,-4.77,-4.78,-4.78
395.77,-3.65,1.12,-3.65,1.12,-1.12,-1.30,-1.46,-4.77,-4.77,-4.77
399.73,-3.65,1.11,-3.64,1.12,-1.12,-1.26,-1.47,-4.77,-4.76,-4.76
403.72,-3.65,1.10,-3.63,1.12,-1.12,-1.22,-1.49,-4.77,-4.75,-4.75
407.76,-3.65,1.09,-3.63,1.11,-1.11,-1.17,-1.51,-4.76,-4.74,-4.74
411.84,-3.65,1.08,-3.64,1.10,-1.10,-1.12,-1.52,-4.75,-4.74,-4.73
415.96,-3.65,1.07,-3.66,1.07,-1.07,-1.07,-1.54,-4.72,-4.73,-4.72
