frequency,raw,smoothed,error,error_smoothed,equalization,parametric_eq,fixed_band_eq,equalized_raw,equalized_smoothed,target
20.00,10.18,10.18,1.85,1.85,-1.85,-1.87,-1.03,8.33,8.33,8.33
20.20,10.19,10.19,1.86,1.86,-1.86,-1.87,-1.06,8.33,8.33,8.33
20.40,10.20,10.20,1.87,1.87,-1.87,-1.88,-1.09,8.33,8.33,8.33
20.61,10.21,10.21,1.88,1.88,-1.88,-1.88,-1.12,8.32,8.32,8.33
20.81,10.22,10.22,1.89,1.89,-1.89,-1.89,-1.15,8.32,8.32,8.33
21.02,10.23,10.23,1.90,1.90,-1.90,-1.89,-1.19,8.32,8.32,8.32
21.23,10.24,10.24,1.91,1.91,-1.92,-1.90,-1.22,8.32,8.32,8.32
21.44,10.25,10.25,1.92,1.92,-1.93,-1.90,-1.26,8.32,8.32,8.32
21.66,10.26,10.26,1.93,1.94,-1.94,-1.90,-1.29,8.32,8.32,8.32
21.87,10.28,10.27,1.95,1.95,-1.95,-1.91,-1.33,8.33,8.32,8.32
22.09,10.29,10.29,1.97,1.96,-1.96,-1.91,-1.37,8.33,8.33,8.32
22.31,10.30,10.29,1.98,1.97,-1.97,-1.92,-1.41,8.33,8.32,8.32
22.54,10.30,10.30,1.98,1.98,-1.98,-1.92,-1.45,8.31,8.32,8.32
22.76,10.31,10.31,1.99,1.99,-1.99,-1.93,-1.49,8.31,8.32,8.32
22.99,10.32,10.32,2.00,2.00,-2.00,-1.94,-1.53,8.31,8.31,8.32
23.22,10.33,10.33,2.01,2.01,-2.01,-1.94,-1.58,8.31,8.31,8.32
23.45,10.34,10.34,2.02,2.02,-2.02,-1.95,-1.62,8.31,8.31,8.31
23.69,10.35,10.35,2.03,2.03,-2.03,-1.95,-1.66,8.31,8.31,8.31
23.92,10.36,10.36,2.04,2.04,-2.04,-1.96,-1.71,8.31,8.31,8.31
24.16,10.37,10.37,2.05,2.06,-2.05,-1.96,-1.76,8.31,8.31,8.31
24.40,10.38,10.38,2.07,2.07,-2.06,-1.97,-1.80,8.31,8.31,8.31
24.65,10.39,10.38,2.08,2.07,-2.07,-1.98,-1.85,8.31,8.31,8.31
24.89,10.39,10.39,2.08,2.08,-2.08,-1.98,-1.90,8.30,8.31,8.31
25.14,10.40,10.40,2.09,2.09,-2.09,-1.99,-1.95,8.30,8.30,8.31
25.39,10.41,10.41,2.10,2.10,-2.10,-1.99,-2.00,8.30,8.30,8.30
25.65,10.42,10.42,2.11,2.11,-2.11,-2.00,-2.05,8.31,8.30,8.30
25.91,10.43,10.42,2.12,2.12,-2.12,-2.01,-2.10,8.31,8.30,8.30
26.16,10.43,10.43,2.13,2.13,-2.13,-2.01,-2.15,8.30,8.30,8.30
26.43,10.44,10.44,2.14,2.14,-2.14,-2.02,-2.20,8.30,8.30,8.30
26.69,10.45,10.44,2.15,2.15,-2.15,-2.03,-2.25,8.30,8.30,8.30
26.96,10.46,10.45,2.16,2.16,-2.16,-2.04,-2.30,8.30,8.30,8.30
27.23,10.46,10.46,2.16,2.17,-2.17,-2.04,-2.34,8.29,8.29,8.29
27.50,10.47,10.47,2.17,2.17,-2.17,-2.05,-2.39,8.29,8.29,8.29
27.77,10.48,10.47,2.19,2.18,-2.18,-2.06,-2.44,8.29,8.29,8.29
28.05,10.48,10.48,2.19,2.19,-2.19,-2.07,-2.48,8.28,8.29,8.29
28.33,10.49,10.49,2.20,2.20,-2.20,-2.07,-2.52,8.29,8.29,8.29
28.62,10.50,10.49,2.21,2.21,-2.21,-2.08,-2.56,8.29,8.28,8.28
28.90,10.50,10.50,2.21,2.22,-2.22,-2.09,-2.60,8.28,8.28,8.28
29.19,10.51,10.51,2.23,2.23,-2.23,-2.10,-2.63,8.28,8.28,8.28
29.48,10.52,10.51,2.24,2.24,-2.24,-2.11,-2.67,8.28,8.28,8.28
29.78,10.52,10.52,2.24,2.24,-2.24,-2.11,-2.70,8.27,8.27,8.27
30.08,10.53,10.52,2.25,2.25,-2.25,-2.12,-2.72,8.27,8.27,8.27
30.38,10.53,10.53,2.26,2.26,-2.26,-2.13,-2.75,8.27,8.27,8.27
30.68,10.54,10.53,2.27,2.27,-2.27,-2.14,-2.77,8.27,8.27,8.27
30.99,10.54,10.54,2.27,2.28,-2.28,-2.15,-2.79,8.26,8.26,8.26
31.30,10.55,10.54,2.29,2.28,-2.28,-2.16,-2.80,8.26,8.26,8.26
31.61,10.55,10.55,2.29,2.29,-2.29,-2.17,-2.82,8.25,8.26,8.26
31.93,10.56,10.55,2.30,2.30,-2.30,-2.18,-2.82,8.26,8.25,8.25
32.24,10.56,10.56,2.31,2.31,-2.31,-2.19,-2.83,8.25,8.25,8.25
32.57,10.56,10.56,2.31,2.31,-2.31,-2.20,-2.83,8.24,8.25,8.25
32.89,10.57,10.56,2.32,2.32,-2.32,-2.21,-2.83,8.24,8.24,8.24
33.22,10.57,10.57,2.33,2.33,-2.33,-2.22,-2.83,8.24,8.24,8.24
33.55,10.58,10.57,2.34,2.34,-2.34,-2.23,-2.82,8.24,8.24,8.24
33.89,10.58,10.58,2.35,2.35,-2.34,-2.24,-2.81,8.23,8.23,8.23
34.23,10.58,10.58,2.35,2.35,-2.35,-2.25,-2.80,8.22,8.23,8.23
34.57,10.59,10.58,2.36,2.36,-2.36,-2.26,-2.79,8.23,8.22,8.22
34.92,10.59,10.59,2.37,2.37,-2.37,-2.27,-2.78,8.22,8.22,8.22
35.27,10.59,10.59,2.37,2.38,-2.38,-2.28,-2.76,8.21,8.21,8.21
35.62,10.60,10.59,2.39,2.38,-2.38,-2.29,-2.75,8.21,8.21,8.21
35.97,10.60,10.60,2.39,2.39,-2.39,-2.31,-2.73,8.20,8.20,8.20
36.33,10.60,10.60,2.40,2.40,-2.40,-2.32,-2.71,8.20,8.20,8.20
36.70,10.60,10.60,2.40,2.40,-2.41,-2.33,-2.70,8.19,8.19,8.19
37.06,10.60,10.60,2.41,2.41,-2.41,-2.34,-2.68,8.18,8.19,8.19
37.43,10.61,10.60,2.43,2.42,-2.42,-2.35,-2.66,8.18,8.18,8.18
37.81,10.61,10.61,2.43,2.43,-2.43,-2.37,-2.64,8.18,8.18,8.17
38.19,10.61,10.61,2.44,2.44,-2.44,-2.38,-2.62,8.17,8.17,8.17
38.57,10.61,10.61,2.44,2.44,-2.44,-2.39,-2.61,8.16,8.16,8.16
38.95,10.61,10.61,2.45,2.45,-2.45,-2.41,-2.59,8.15,8.15,8.16
39.34,10.61,10.61,2.46,2.46,-2.46,-2.42,-2.58,8.15,8.15,8.15
39.74,10.61,10.61,2.47,2.47,-2.47,-2.43,-2.56,8.14,8.14,8.14
40.14,10.61,10.61,2.47,2.47,-2.47,-2.45,-2.55,8.13,8.13,8.13
40.54,10.61,10.61,2.48,2.48,-2.48,-2.46,-2.54,8.13,8.13,8.13
40.94,10.61,10.61,2.49,2.49,-2.49,-2.47,-2.53,8.12,8.12,8.12
41.35,10.61,10.61,2.50,2.50,-2.50,-2.49,-2.52,8.11,8.11,8.11
41.76,10.61,10.61,2.51,2.51,-2.51,-2.50,-2.52,8.10,8.10,8.10
42.18,10.61,10.61,2.52,2.52,-2.51,-2.52,-2.51,8.09,8.09,8.09
42.60,10.61,10.61,2.52,2.53,-2.52,-2.53,-2.51,8.08,8.08,8.08
43.03,10.61,10.61,2.53,2.53,-2.53,-2.55,-2.51,8.07,8.07,8.07
43.46,10.61,10.60,2.54,2.54,-2.54,-2.56,-2.51,8.07,8.06,8.06
43.90,10.60,10.60,2.54,2.55,-2.55,-2.58,-2.51,8.05,8.05,8.05
44.33,10.60,10.60,2.56,2.56,-2.56,-2.60,-2.51,8.04,8.04,8.04
44.78,10.60,10.60,2.57,2.57,-2.57,-2.61,-2.52,8.03,8.03,8.03
45.23,10.60,10.60,2.58,2.58,-2.58,-2.63,-2.53,8.02,8.02,8.02
45.68,10.60,10.59,2.59,2.59,-2.59,-2.65,-2.54,8.01,8.01,8.01
46.13,10.59,10.59,2.59,2.60,-2.60,-2.66,-2.55,7.99,7.99,7.99
46.60,10.59,10.59,2.61,2.61,-2.61,-2.68,-2.56,7.98,7.98,7.98
47.06,10.59,10.58,2.62,2.62,-2.62,-2.70,-2.58,7.97,7.97,7.97
47.53,10.58,10.58,2.62,2.63,-2.63,-2.71,-2.60,7.95,7.95,7.95
48.01,10.58,10.57,2.64,2.63,-2.64,-2.73,-2.62,7.94,7.94,7.94
48.49,10.57,10.57,2.64,2.65,-2.65,-2.75,-2.64,7.92,7.92,7.92
48.97,10.57,10.57,2.66,2.66,-2.66,-2.77,-2.66,7.91,7.91,7.91
49.46,10.57,10.56,2.67,2.67,-2.67,-2.79,-2.68,7.90,7.89,7.89
49.96,10.56,10.56,2.68,2.68,-2.68,-2.80,-2.71,7.87,7.88,7.88
50.46,10.56,10.55,2.70,2.69,-2.69,-2.82,-2.73,7.86,7.86,7.86
50.96,10.55,10.55,2.70,2.71,-2.71,-2.84,-2.76,7.84,7.84,7.84
51.47,10.55,10.54,2.72,2.72,-2.72,-2.86,-2.79,7.83,7.82,7.82
51.99,10.54,10.54,2.73,2.73,-2.73,-2.88,-2.82,7.80,7.80,7.81
52.51,10.53,10.53,2.74,2.74,-2.74,-2.90,-2.85,7.78,7.78,7.79
53.03,10.53,10.52,2.76,2.76,-2.76,-2.92,-2.88,7.77,7.76,7.77
53.56,10.52,10.52,2.77,2.77,-2.77,-2.94,-2.91,7.74,7.75,7.75
54.10,10.52,10.51,2.79,2.79,-2.79,-2.96,-2.95,7.73,7.73,7.72
54.64,10.51,10.50,2.80,2.80,-2.80,-2.98,-2.98,7.70,7.70,7.70
55.18,10.50,10.50,2.82,2.82,-2.82,-3.00,-3.01,7.68,7.68,7.68
55.74,10.49,10.49,2.83,2.83,-2.83,-3.02,-3.04,7.65,7.65,7.66
56.29,10.49,10.48,2.85,2.85,-2.85,-3.05,-3.08,7.63,7.63,7.63
56.86,10.48,10.48,2.87,2.87,-2.87,-3.07,-3.11,7.61,7.61,7.61
57.42,10.47,10.47,2.88,2.89,-2.89,-3.09,-3.14,7.58,7.58,7.58
58.00,10.47,10.46,2.91,2.91,-2.91,-3.11,-3.17,7.56,7.56,7.56
58.58,10.46,10.46,2.93,2.93,-2.93,-3.13,-3.19,7.53,7.53,7.53
59.16,10.45,10.45,2.95,2.95,-2.95,-3.16,-3.22,7.50,7.50,7.50
59.76,10.44,10.44,2.96,2.96,-2.97,-3.18,-3.25,7.47,7.47,7.47
60.35,10.43,10.43,2.98,2.98,-2.99,-3.20,-3.27,7.44,7.44,7.44
60.96,10.42,10.42,3.01,3.01,-3.01,-3.23,-3.30,7.41,7.41,7.41
61.57,10.41,10.41,3.03,3.03,-3.03,-3.25,-3.32,7.38,7.38,7.38
62.18,10.40,10.40,3.05,3.05,-3.05,-3.27,-3.34,7.35,7.35,7.35
62.80,10.39,10.38,3.07,3.07,-3.07,-3.30,-3.35,7.32,7.31,7.31
63.43,10.37,10.37,3.09,3.09,-3.09,-3.32,-3.37,7.27,7.28,7.28
64.07,10.36,10.36,3.11,3.11,-3.11,-3.34,-3.39,7.24,7.24,7.24
64.71,10.35,10.35,3.14,3.14,-3.14,-3.37,-3.40,7.21,7.21,7.21
65.35,10.34,10.34,3.16,3.16,-3.16,-3.39,-3.41,7.17,7.17,7.17
66.01,10.33,10.32,3.19,3.19,-3.19,-3.42,-3.42,7.14,7.13,7.13
66.67,10.31,10.31,3.21,3.22,-3.22,-3.44,-3.43,7.09,7.10,7.09
67.33,10.30,10.30,3.24,3.24,-3.24,-3.47,-3.44,7.05,7.05,7.05
68.01,10.29,10.28,3.27,3.27,-3.27,-3.49,-3.45,7.02,7.01,7.01
68.69,10.27,10.27,3.30,3.30,-3.30,-3.52,-3.45,6.97,6.97,6.97
69.37,10.26,10.26,3.33,3.33,-3.33,-3.55,-3.46,6.93,6.93,6.93
70.07,10.25,10.24,3.36,3.36,-3.36,-3.57,-3.47,6.89,6.88,6.88
70.77,10.23,10.23,3.39,3.39,-3.39,-3.60,-3.47,6.84,6.84,6.84
71.48,10.22,10.21,3.42,3.42,-3.42,-3.62,-3.48,6.79,6.79,6.79
72.19,10.20,10.20,3.45,3.45,-3.45,-3.65,-3.49,6.74,6.74,6.75
72.91,10.19,10.18,3.49,3.49,-3.49,-3.68,-3.50,6.70,6.70,6.70
73.64,10.17,10.17,3.52,3.52,-3.52,-3.70,-3.50,6.65,6.65,6.65
74.38,10.16,10.15,3.56,3.56,-3.55,-3.73,-3.51,6.60,6.60,6.60
75.12,10.14,10.14,3.59,3.59,-3.59,-3.76,-3.52,6.55,6.55,6.55
75.87,10.12,10.12,3.62,3.63,-3.63,-3.79,-3.54,6.49,6.49,6.49
76.63,10.11,10.10,3.67,3.66,-3.66,-3.81,-3.55,6.44,6.44,6.44
77.40,10.09,10.08,3.70,3.70,-3.70,-3.84,-3.57,6.39,6.39,6.39
78.17,10.07,10.07,3.73,3.74,-3.74,-3.87,-3.59,6.33,6.33,6.33
78.95,10.05,10.05,3.77,3.77,-3.78,-3.90,-3.61,6.27,6.27,6.27
79.74,10.04,10.03,3.82,3.82,-3.82,-3.93,-3.63,6.22,6.22,6.22
80.54,10.02,10.02,3.86,3.86,-3.85,-3.96,-3.65,6.16,6.16,6.16
81.35,10.00,10.00,3.90,3.90,-3.90,-3.99,-3.68,6.10,6.10,6.10
82.16,9.98,9.98,3.94,3.94,-3.94,-4.01,-3.71,6.04,6.04,6.04
82.98,9.96,9.96,3.98,3.98,-3.98,-4.04,-3.74,5.98,5.98,5.98
83.81,9.94,9.94,4.02,4.02,-4.02,-4.07,-3.78,5.92,5.92,5.92
84.65,9.92,9.92,4.06,4.06,-4.06,-4.10,-3.81,5.85,5.85,5.85
85.50,9.90,9.90,4.11,4.11,-4.11,-4.13,-3.86,5.79,5.79,5.79
86.35,9.88,9.88,4.15,4.15,-4.15,-4.16,-3.90,5.73,5.73,5.73
87.22,9.86,9.86,4.20,4.19,-4.19,-4.19,-3.95,5.66,5.66,5.66
88.09,9.84,9.83,4.24,4.24,-4.24,-4.22,-4.00,5.60,5.59,5.59
88.97,9.81,9.81,4.28,4.28,-4.28,-4.25,-4.05,5.52,5.53,5.53
89.86,9.79,9.79,4.33,4.33,-4.33,-4.29,-4.10,5.46,5.46,5.46
90.76,9.77,9.76,4.37,4.37,-4.37,-4.32,-4.16,5.39,5.39,5.39
91.66,9.75,9.74,4.42,4.42,-4.42,-4.35,-4.23,5.33,5.33,5.32
92.58,9.72,9.72,4.46,4.46,-4.46,-4.38,-4.29,5.25,5.26,5.26
93.51,9.70,9.69,4.51,4.51,-4.51,-4.41,-4.36,5.19,5.19,5.19
94.44,9.67,9.67,4.55,4.55,-4.55,-4.44,-4.43,5.11,5.11,5.12
95.39,9.65,9.64,4.60,4.60,-4.60,-4.47,-4.50,5.05,5.04,5.04
96.34,9.62,9.62,4.64,4.65,-4.65,-4.51,-4.58,4.97,4.97,4.97
97.30,9.60,9.59,4.69,4.69,-4.69,-4.54,-4.66,4.91,4.90,4.90
98.28,9.57,9.57,4.74,4.74,-4.74,-4.57,-4.74,4.83,4.83,4.83
99.26,9.54,9.54,4.78,4.78,-4.78,-4.60,-4.82,4.75,4.76,4.76
100.25,9.52,9.51,4.83,4.83,-4.83,-4.64,-4.91,4.69,4.68,4.68
101.25,9.49,9.49,4.87,4.87,-4.87,-4.67,-4.99,4.61,4.61,4.61
102.27,9.46,9.46,4.92,4.92,-4.92,-4.70,-5.08,4.54,4.54,4.54
103.29,9.44,9.43,4.97,4.97,-4.97,-4.74,-5.17,4.47,4.47,4.47
104.32,9.41,9.41,5.01,5.01,-5.01,-4.77,-5.26,4.40,4.40,4.39
105.37,9.38,9.38,5.06,5.06,-5.05,-4.80,-5.35,4.32,4.32,4.32
106.42,9.35,9.35,5.10,5.10,-5.10,-4.84,-5.44,4.25,4.25,4.25
107.48,9.32,9.32,5.14,5.14,-5.14,-4.87,-5.52,4.17,4.17,4.17
108.56,9.29,9.29,5.18,5.18,-5.19,-4.91,-5.61,4.10,4.10,4.10
109.64,9.26,9.26,5.23,5.23,-5.23,-4.94,-5.70,4.03,4.03,4.03
110.74,9.23,9.23,5.27,5.27,-5.27,-4.98,-5.78,3.96,3.96,3.96
111.85,9.20,9.20,5.31,5.31,-5.31,-5.01,-5.86,3.88,3.89,3.88
112.97,9.17,9.17,5.35,5.35,-5.35,-5.05,-5.94,3.81,3.81,3.81
114.10,9.14,9.13,5.40,5.39,-5.39,-5.08,-6.02,3.74,3.74,3.74
115.24,9.10,9.10,5.43,5.43,-5.43,-5.12,-6.08,3.67,3.67,3.67
116.39,9.07,9.07,5.47,5.47,-5.47,-5.15,-6.15,3.60,3.60,3.60
117.55,9.04,9.03,5.51,5.50,-5.51,-5.19,-6.21,3.53,3.53,3.53
118.73,9.00,9.00,5.54,5.54,-5.54,-5.22,-6.26,3.45,3.46,3.46
119.92,8.97,8.97,5.58,5.58,-5.58,-5.26,-6.31,3.39,3.39,3.39
121.12,8.94,8.93,5.62,5.61,-5.61,-5.29,-6.35,3.32,3.32,3.32
122.33,8.90,8.90,5.64,5.65,-5.65,-5.33,-6.38,3.25,3.25,3.25
123.55,8.87,8.86,5.68,5.68,-5.68,-5.36,-6.41,3.19,3.18,3.18
124.79,8.83,8.83,5.71,5.71,-5.71,-5.40,-6.42,3.12,3.12,3.12
126.03,8.79,8.79,5.74,5.74,-5.74,-5.43,-6.44,3.05,3.05,3.05
127.29,8.76,8.75,5.77,5.77,-5.77,-5.46,-6.44,2.99,2.98,2.99
128.57,8.72,8.71,5.80,5.79,-5.80,-5.50,-6.43,2.92,2.92,2.92
129.85,8.68,8.68,5.82,5.82,-5.82,-5.53,-6.42,2.85,2.86,2.86
131.15,8.64,8.64,5.84,5.85,-5.85,-5.57,-6.40,2.79,2.79,2.79
132.46,8.61,8.60,5.87,5.87,-5.87,-5.60,-6.38,2.73,2.73,2.73
133.79,8.57,8.57,5.90,5.90,-5.89,-5.63,-6.35,2.67,2.67,2.67
135.12,8.53,8.53,5.92,5.92,-5.92,-5.67,-6.31,2.61,2.61,2.61
136.48,8.49,8.49,5.94,5.94,-5.94,-5.70,-6.27,2.55,2.55,2.55
137.84,8.45,8.45,5.95,5.96,-5.95,-5.73,-6.22,2.49,2.49,2.49
139.22,8.41,8.41,5.97,5.97,-5.97,-5.76,-6.17,2.43,2.43,2.43
140.61,8.37,8.36,5.99,5.99,-5.99,-5.79,-6.12,2.38,2.38,2.38
142.02,8.32,8.32,5.99,6.00,-6.00,-5.82,-6.06,2.32,2.32,2.32
143.44,8.28,8.28,6.01,6.01,-6.01,-5.85,-6.00,2.27,2.27,2.27
144.87,8.24,8.23,6.02,6.02,-6.02,-5.88,-5.94,2.22,2.22,2.21
146.32,8.20,8.19,6.03,6.03,-6.03,-5.91,-5.88,2.17,2.17,2.16
147.78,8.15,8.15,6.03,6.03,-6.03,-5.93,-5.82,2.11,2.12,2.12
149.26,8.11,8.10,6.04,6.04,-6.04,-5.96,-5.76,2.07,2.07,2.07
150.75,8.06,8.06,6.04,6.04,-6.04,-5.99,-5.70,2.02,2.02,2.02
152.26,8.02,8.01,6.05,6.04,-6.04,-6.01,-5.65,1.97,1.97,1.97
153.78,7.97,7.97,6.04,6.05,-6.04,-6.03,-5.59,1.92,1.92,1.92
155.32,7.93,7.92,6.05,6.05,-6.05,-6.05,-5.53,1.88,1.88,1.88
156.88,7.88,7.88,6.04,6.04,-6.05,-6.08,-5.48,1.83,1.83,1.83
158.44,7.83,7.83,6.04,6.04,-6.05,-6.09,-5.43,1.78,1.79,1.79
160.03,7.79,7.78,6.04,6.04,-6.04,-6.11,-5.38,1.74,1.74,1.74
161.63,7.74,7.74,6.04,6.04,-6.04,-6.13,-5.34,1.70,1.70,1.69
163.24,7.69,7.69,6.04,6.04,-6.03,-6.15,-5.30,1.65,1.65,1.65
164.88,7.64,7.64,6.03,6.03,-6.03,-6.16,-5.26,1.61,1.61,1.61
166.53,7.59,7.59,6.02,6.02,-6.02,-6.17,-5.22,1.57,1.57,1.57
168.19,7.54,7.54,6.00,6.00,-6.01,-6.18,-5.19,1.53,1.53,1.53
169.87,7.49,7.49,5.99,5.99,-5.99,-6.19,-5.16,1.49,1.49,1.49
171.57,7.44,7.44,5.98,5.98,-5.98,-6.20,-5.14,1.46,1.46,1.46
173.29,7.39,7.39,5.96,5.96,-5.96,-6.21,-5.12,1.42,1.42,1.42
175.02,7.34,7.33,5.95,5.94,-5.94,-6.21,-5.11,1.39,1.39,1.39
176.77,7.28,7.28,5.92,5.93,-5.93,-6.21,-5.09,1.35,1.35,1.35
178.54,7.23,7.23,5.90,5.90,-5.90,-6.21,-5.09,1.32,1.32,1.32
180.32,7.18,7.17,5.89,5.88,-5.88,-6.21,-5.08,1.29,1.29,1.29
182.13,7.12,7.12,5.86,5.86,-5.86,-6.21,-5.08,1.26,1.26,1.26
183.95,7.07,7.06,5.84,5.83,-5.83,-6.21,-5.08,1.23,1.23,1.23
185.79,7.01,7.01,5.81,5.81,-5.81,-6.20,-5.09,1.20,1.20,1.20
187.65,6.95,6.95,5.77,5.78,-5.78,-6.19,-5.10,1.17,1.17,1.17
189.52,6.90,6.89,5.75,5.75,-5.75,-6.18,-5.12,1.15,1.14,1.14
191.42,6.84,6.84,5.72,5.72,-5.72,-6.17,-5.13,1.12,1.12,1.12
193.33,6.78,6.78,5.68,5.69,-5.69,-6.15,-5.16,1.09,1.09,1.09
195.27,6.73,6.72,5.66,5.65,-5.66,-6.14,-5.18,1.07,1.07,1.07
197.22,6.67,6.67,5.62,5.62,-5.62,-6.12,-5.21,1.04,1.04,1.04
199.19,6.61,6.61,5.59,5.59,-5.59,-6.10,-5.24,1.02,1.02,1.02
201.18,6.56,6.55,5.56,5.56,-5.56,-6.08,-5.27,1.00,1.00,1.00
203.19,6.50,6.50,5.52,5.52,-5.52,-6.05,-5.30,0.97,0.97,0.97
205.23,6.44,6.44,5.48,5.49,-5.49,-6.03,-5.34,0.95,0.95,0.95
207.28,6.39,6.39,5.45,5.45,-5.45,-6.00,-5.38,0.93,0.93,0.93
209.35,6.34,6.33,5.42,5.42,-5.42,-5.97,-5.41,0.92,0.91,0.91
211.44,6.28,6.28,5.38,5.39,-5.39,-5.94,-5.45,0.89,0.89,0.89
213.56,6.23,6.23,5.35,5.35,-5.35,-5.90,-5.49,0.87,0.87,0.87
215.69,6.18,6.17,5.32,5.32,-5.32,-5.87,-5.53,0.86,0.85,0.85
217.85,6.13,6.13,5.29,5.29,-5.29,-5.83,-5.57,0.84,0.84,0.84
220.03,6.08,6.08,5.26,5.26,-5.26,-5.79,-5.60,0.82,0.82,0.82
222.23,6.04,6.03,5.23,5.23,-5.23,-5.75,-5.64,0.81,0.80,0.80
224.45,5.99,5.99,5.20,5.20,-5.20,-5.71,-5.67,0.79,0.79,0.79
226.70,5.95,5.95,5.17,5.17,-5.18,-5.66,-5.70,0.77,0.77,0.77
228.96,5.91,5.91,5.15,5.15,-5.15,-5.62,-5.72,0.75,0.75,0.76
231.25,5.88,5.87,5.13,5.13,-5.13,-5.57,-5.74,0.74,0.74,0.74
233.57,5.84,5.84,5.11,5.11,-5.11,-5.52,-5.76,0.72,0.72,0.73
235.90,5.81,5.81,5.10,5.10,-5.10,-5.47,-5.77,0.71,0.71,0.71
238.26,5.78,5.78,5.08,5.08,-5.08,-5.42,-5.77,0.70,0.69,0.69
240.64,5.75,5.75,5.07,5.07,-5.06,-5.37,-5.77,0.68,0.68,0.68
243.05,5.72,5.72,5.05,5.05,-5.05,-5.32,-5.76,0.67,0.67,0.67
245.48,5.69,5.69,5.03,5.03,-5.03,-5.26,-5.74,0.66,0.66,0.66
247.93,5.66,5.66,5.01,5.01,-5.01,-5.21,-5.72,0.64,0.64,0.64
250.41,5.63,5.63,4.99,4.99,-4.99,-5.15,-5.69,0.64,0.64,0.63
252.92,5.60,5.60,4.97,4.97,-4.97,-5.09,-5.65,0.63,0.63,0.62
255.45,5.57,5.56,4.94,4.94,-4.94,-5.03,-5.61,0.62,0.62,0.62
258.00,5.53,5.53,4.91,4.92,-4.92,-4.97,-5.55,0.61,0.61,0.61
260.58,5.50,5.49,4.89,4.89,-4.89,-4.91,-5.49,0.60,0.60,0.60
263.19,5.46,5.46,4.86,4.86,-4.86,-4.85,-5.43,0.59,0.59,0.59
265.82,5.42,5.42,4.83,4.83,-4.83,-4.79,-5.35,0.58,0.59,0.59
268.48,5.38,5.38,4.80,4.80,-4.80,-4.73,-5.27,0.58,0.58,0.58
271.16,5.34,5.33,4.77,4.76,-4.76,-4.67,-5.19,0.57,0.57,0.57
273.87,5.29,5.29,4.73,4.73,-4.73,-4.61,-5.10,0.56,0.56,0.56
276.61,5.24,5.24,4.68,4.69,-4.68,-4.54,-5.00,0.55,0.56,0.55
279.38,5.19,5.19,4.64,4.64,-4.64,-4.48,-4.90,0.55,0.55,0.55
282.17,5.14,5.13,4.60,4.59,-4.59,-4.42,-4.80,0.55,0.55,0.54
284.99,5.08,5.08,4.53,4.53,-4.53,-4.35,-4.69,0.54,0.54,0.54
287.84,5.02,5.02,4.47,4.48,-4.48,-4.29,-4.58,0.54,0.54,0.55
290.72,4.96,4.96,4.42,4.42,-4.42,-4.22,-4.47,0.54,0.54,0.54
293.63,4.90,4.90,4.36,4.36,-4.36,-4.16,-4.36,0.54,0.54,0.53
296.57,4.84,4.83,4.30,4.30,-4.30,-4.10,-4.24,0.54,0.54,0.54
299.53,4.77,4.77,4.23,4.23,-4.23,-4.03,-4.13,0.53,0.54,0.54
302.53,4.71,4.70,4.17,4.17,-4.17,-3.97,-4.01,0.54,0.54,0.54
305.55,4.64,4.64,4.10,4.10,-4.10,-3.91,-3.89,0.54,0.54,0.54
308.61,4.57,4.57,4.03,4.03,-4.03,-3.84,-3.78,0.54,0.54,0.54
311.69,4.50,4.50,3.96,3.96,-3.96,-3.78,-3.66,0.54,0.54,0.54
314.81,4.43,4.43,3.89,3.89,-3.89,-3.71,-3.55,0.54,0.54,0.54
317.96,4.36,4.36,3.82,3.82,-3.82,-3.65,-3.43,0.54,0.54,0.54
321.14,4.29,4.29,3.75,3.75,-3.74,-3.59,-3.32,0.54,0.54,0.54
324.35,4.22,4.22,3.67,3.67,-3.67,-3.52,-3.21,0.54,0.54,0.54
327.59,4.15,4.15,3.59,3.59,-3.60,-3.46,-3.10,0.55,0.55,0.56
330.87,4.08,4.08,3.52,3.52,-3.52,-3.39,-2.99,0.55,0.55,0.55
334.18,4.01,4.01,3.45,3.45,-3.45,-3.33,-2.88,0.56,0.56,0.56
337.52,3.94,3.93,3.38,3.37,-3.37,-3.26,-2.77,0.56,0.56,0.56
340.90,3.86,3.86,3.29,3.30,-3.30,-3.20,-2.67,0.56,0.56,0.56
344.30,3.79,3.79,3.22,3.22,-3.22,-3.13,-2.56,0.57,0.57,0.57
347.75,3.72,3.71,3.14,3.14,-3.14,-3.06,-2.46,0.57,0.57,0.58
351.23,3.65,3.64,3.07,3.06,-3.06,-2.99,-2.36,0.58,0.58,0.57
354.74,3.57,3.57,2.98,2.99,-2.99,-2.92,-2.27,0.58,0.58,0.59
358.28,3.50,3.50,2.91,2.91,-2.91,-2.85,-2.17,0.59,0.59,0.59
361.87,3.43,3.42,2.83,2.83,-2.83,-2.78,-2.08,0.60,0.59,0.59
365.49,3.35,3.35,2.74,2.75,-2.75,-2.71,-1.98,0.60,0.60,0.60
369.14,3.28,3.28,2.68,2.67,-2.67,-2.64,-1.89,0.60,0.60,0.60
372.83,3.21,3.20,2.59,2.59,-2.59,-2.56,-1.80,0.61,0.61,0.62
376.56,3.13,3.13,2.51,2.52,-2.51,-2.48,-1.72,0.61,0.62,0.61
380.33,3.06,3.06,2.43,2.44,-2.43,-2.41,-1.63,0.62,0.62,0.62
384.13,2.99,2.98,2.37,2.36,-2.35,-2.33,-1.54,0.63,0.63,0.62
387.97,2.91,2.91,2.27,2.27,-2.27,-2.25,-1.46,0.63,0.64,0.64
391.85,2.84,2.84,2.18,2.19,-2.19,-2.17,-1.38,0.64,0.64,0.65
395.77,2.77,2.76,2.11,2.10,-2.11,-2.09,-1.30,0.65,0.65,0.65
399.73,2.69,2.69,2.03,2.03,-2.03,-2.00,-1.22,0.65,0.66,0.66
403.72,2.62,2.62,1.95,1.95,-1.95,-1.92,-1.15,0.66,0.67,0.67
407.76,2.55,2.54,1.88,1.87,-1.87,-1.84,-1.07,0.67,0.67,0.67
411.84,2.47,2.47,1.79,1.79,-1.79,-1.75,-1.00,0.67,0.68,0.68
415.96,2.40,2.39,1.71,1.71,-1.71,-1.67,-0.92,0.68,0.68,0.68
420.12,2.32,2.32,1.63,1.63,-1.63,-1.58,-0.85,0.68,0.68,0.68
424.32,2.25,2.24,1.56,1.55,-1.55,-1.50,-0.78,0.69,0.69,0.69
428.56,2.17,2.17,1.47,1.47,-1.47,-1.41,-0.72,0.70,0.70,0.70
432.85,2.10,2.09,1.39,1.39,-1.39,-1.33,-0.65,0.71,0.71,0.71
437.18,2.02,2.02,1.30,1.30,-1.30,-1.24,-0.58,0.72,0.72,0.72
441.55,1.95,1.94,1.22,1.22,-1.22,-1.16,-0.52,0.73,0.73,0.72
445.96,1.87,1.87,1.13,1.13,-1.13,-1.08,-0.46,0.73,0.74,0.73
450.42,1.80,1.79,1.04,1.04,-1.05,-0.99,-0.40,0.75,0.75,0.75
454.93,1.72,1.72,0.96,0.96,-0.96,-0.91,-0.34,0.75,0.75,0.76
459.48,1.65,1.64,0.88,0.88,-0.88,-0.83,-0.28,0.77,0.76,0.77
464.07,1.57,1.57,0.80,0.80,-0.80,-0.74,-0.23,0.77,0.77,0.77
468.71,1.50,1.50,0.72,0.72,-0.71,-0.66,-0.17,0.78,0.78,0.78
473.40,1.43,1.42,0.64,0.64,-0.63,-0.58,-0.12,0.79,0.79,0.79
478.13,1.35,1.35,0.55,0.55,-0.55,-0.50,-0.07,0.80,0.80,0.80
482.91,1.28,1.27,0.46,0.46,-0.46,-0.42,-0.02,0.81,0.81,0.81
487.74,1.20,1.20,0.37,0.38,-0.38,-0.34,0.02,0.82,0.82,0.82
492.62,1.13,1.12,0.29,0.29,-0.29,-0.26,0.07,0.83,0.83,0.83
497.55,1.05,1.05,0.20,0.21,-0.20,-0.18,0.11,0.84,0.84,0.84
502.52,0.98,0.97,0.13,0.12,-0.12,-0.10,0.15,0.86,0.86,0.85
507.55,0.90,0.90,0.03,0.03,-0.03,-0.02,0.19,0.87,0.87,0.87
512.62,0.82,0.82,-0.06,-0.06,0.06,0.06,0.23,0.88,0.88,0.88
517.75,0.75,0.74,-0.14,-0.15,0.15,0.14,0.27,0.89,0.89,0.89
522.93,0.67,0.67,-0.24,-0.24,0.23,0.21,0.31,0.90,0.90,0.91
