frequency,raw,error,smoothed,error_smoothed,equalization,parametric_eq,fixed_band_eq,equalized_raw,equalized_smoothed,target
20.00,-25.52,-26.18,-25.52,-26.18,6.00,6.46,2.74,-19.52,-19.52,0.66
20.20,-25.35,-26.06,-25.35,-26.06,6.00,6.45,2.82,-19.35,-19.35,0.71
20.40,-25.19,-25.95,-25.18,-25.94,6.00,6.45,2.90,-19.19,-19.18,0.76
20.61,-25.02,-25.81,-25.02,-25.81,6.00,6.45,2.98,-19.02,-19.02,0.79
20.81,-24.85,-25.68,-24.85,-25.69,6.00,6.45,3.07,-18.85,-18.85,0.84
21.02,-24.69,-25.56,-24.69,-25.56,6.00,6.45,3.15,-18.69,-18.69,0.88
21.23,-24.54,-25.43,-24.54,-25.44,6.00,6.44,3.24,-18.54,-18.54,0.90
21.44,-24.40,-25.31,-24.40,-25.31,6.00,6.44,3.34,-18.40,-18.40,0.91
21.66,-24.26,-25.19,-24.26,-25.19,6.00,6.44,3.43,-18.26,-18.26,0.93
21.87,-24.11,-25.05,-24.11,-25.06,6.00,6.44,3.53,-18.11,-18.11,0.94
22.09,-23.96,-24.92,-23.96,-24.92,6.00,6.44,3.63,-17.96,-17.96,0.96
22.31,-23.80,-24.77,-23.80,-24.77,6.00,6.43,3.73,-17.80,-17.80,0.97
22.54,-23.64,-24.61,-23.64,-24.61,6.00,6.43,3.84,-17.64,-17.64,0.97
22.76,-23.48,-24.45,-23.48,-24.45,6.00,6.43,3.95,-17.48,-17.48,0.97
22.99,-23.32,-24.28,-23.33,-24.29,6.00,6.43,4.06,-17.32,-17.33,0.96
23.22,-23.18,-24.14,-23.18,-24.14,6.00,6.42,4.17,-17.18,-17.18,0.96
23.45,-23.05,-24.01,-23.04,-24.00,6.00,6.42,4.29,-17.05,-17.04,0.96
23.69,-22.91,-23.88,-22.91,-23.87,6.00,6.42,4.41,-16.91,-16.91,0.97
23.92,-22.77,-23.73,-22.77,-23.74,6.00,6.42,4.53,-16.77,-16.77,0.97
24.16,-22.63,-23.60,-22.63,-23.60,6.00,6.41,4.65,-16.63,-16.63,0.98
24.40,-22.48,-23.46,-22.48,-23.46,6.00,6.41,4.78,-16.48,-16.48,0.99
24.65,-22.34,-23.32,-22.34,-23.32,6.00,6.41,4.91,-16.34,-16.34,0.97
24.89,-22.19,-23.16,-22.18,-23.16,6.00,6.40,5.04,-16.19,-16.18,0.97
25.14,-22.02,-22.99,-22.01,-22.99,6.00,6.40,5.17,-16.02,-16.01,0.97
25.39,-21.83,-22.81,-21.83,-22.81,6.00,6.40,5.30,-15.83,-15.83,0.98
25.65,-21.65,-22.63,-21.65,-22.62,6.00,6.40,5.43,-15.65,-15.65,0.98
25.91,-21.46,-22.43,-21.47,-22.44,6.00,6.39,5.57,-15.46,-15.47,0.97
26.16,-21.30,-22.27,-21.30,-22.27,6.00,6.39,5.70,-15.30,-15.30,0.97
26.43,-21.15,-22.12,-21.15,-22.12,6.00,6.39,5.83,-15.15,-15.15,0.97
26.69,-21.01,-21.98,-21.01,-21.98,6.00,6.38,5.97,-15.01,-15.01,0.97
26.96,-20.86,-21.84,-20.86,-21.83,6.00,6.38,6.10,-14.86,-14.86,0.97
27.23,-20.70,-21.68,-20.70,-21.67,6.00,6.37,6.22,-14.70,-14.70,0.97
27.50,-20.54,-21.51,-20.54,-21.51,6.00,6.37,6.35,-14.54,-14.54,0.97
27.77,-20.38,-21.34,-20.38,-21.34,6.00,6.37,6.47,-14.38,-14.38,0.96
28.05,-20.23,-21.19,-20.24,-21.20,6.00,6.36,6.59,-14.23,-14.24,0.96
28.33,-20.12,-21.07,-20.12,-21.08,6.00,6.36,6.70,-14.12,-14.12,0.95
28.62,-20.01,-20.96,-20.01,-20.96,6.00,6.35,6.81,-14.01,-14.01,0.95
28.90,-19.90,-20.85,-19.88,-20.83,6.00,6.35,6.91,-13.90,-13.88,0.95
29.19,-19.71,-20.65,-19.70,-20.65,6.00,6.34,7.01,-13.71,-13.70,0.94
29.48,-19.48,-20.44,-19.48,-20.44,6.00,6.34,7.09,-13.48,-13.48,0.96
29.78,-19.25,-20.20,-19.26,-20.21,6.00,6.33,7.17,-13.25,-13.26,0.95
30.08,-19.04,-20.00,-19.06,-20.01,6.00,6.33,7.23,-13.04,-13.06,0.96
30.38,-18.89,-19.84,-18.89,-19.84,6.00,6.32,7.29,-12.89,-12.89,0.95
30.68,-18.74,-19.68,-18.74,-19.68,6.00,6.32,7.34,-12.74,-12.74,0.94
30.99,-18.59,-19.53,-18.59,-19.53,6.00,6.31,7.37,-12.59,-12.59,0.94
31.30,-18.43,-19.37,-18.43,-19.37,6.00,6.31,7.40,-12.43,-12.43,0.94
31.61,-18.27,-19.21,-18.27,-19.21,6.00,6.30,7.41,-12.27,-12.27,0.94
31.93,-18.11,-19.05,-18.11,-19.04,6.00,6.30,7.42,-12.11,-12.11,0.94
32.24,-17.95,-18.87,-17.95,-18.88,6.00,6.29,7.41,-11.95,-11.95,0.92
32.57,-17.79,-18.72,-17.79,-18.72,6.00,6.29,7.39,-11.79,-11.79,0.93
32.89,-17.63,-18.56,-17.63,-18.55,6.00,6.28,7.37,-11.63,-11.63,0.93
33.22,-17.47,-18.38,-17.47,-18.39,6.00,6.27,7.33,-11.47,-11.47,0.91
33.55,-17.31,-18.22,-17.31,-18.22,6.00,6.27,7.29,-11.31,-11.31,0.91
33.89,-17.15,-18.05,-17.15,-18.05,6.00,6.26,7.24,-11.15,-11.15,0.90
34.23,-16.99,-17.90,-16.99,-17.89,6.00,6.25,7.18,-10.99,-10.99,0.91
34.57,-16.84,-17.73,-16.84,-17.73,6.00,6.25,7.12,-10.84,-10.84,0.89
34.92,-16.68,-17.57,-16.68,-17.57,6.00,6.24,7.05,-10.68,-10.68,0.89
35.27,-16.51,-17.40,-16.51,-17.39,6.00,6.23,6.98,-10.51,-10.51,0.89
35.62,-16.33,-17.21,-16.33,-17.21,6.00,6.22,6.90,-10.33,-10.33,0.88
35.97,-16.15,-17.03,-16.16,-17.04,6.00,6.21,6.82,-10.15,-10.16,0.88
36.33,-16.00,-16.88,-16.00,-16.88,6.00,6.21,6.74,-10.00,-10.00,0.89
36.70,-15.85,-16.72,-15.84,-16.72,6.00,6.20,6.66,-9.85,-9.84,0.87
37.06,-15.69,-16.56,-15.69,-16.56,6.00,6.19,6.58,-9.69,-9.69,0.87
37.43,-15.52,-16.40,-15.52,-16.40,6.00,6.18,6.50,-9.52,-9.52,0.88
37.81,-15.35,-16.23,-15.35,-16.22,6.00,6.17,6.41,-9.35,-9.35,0.88
38.19,-15.17,-16.05,-15.16,-16.04,6.00,6.16,6.33,-9.17,-9.16,0.87
38.57,-14.97,-15.85,-14.97,-15.85,6.00,6.15,6.25,-8.97,-8.97,0.88
38.95,-14.78,-15.66,-14.79,-15.67,6.00,6.15,6.18,-8.78,-8.79,0.89
39.34,-14.62,-15.50,-14.62,-15.50,6.00,6.14,6.10,-8.62,-8.62,0.88
39.74,-14.46,-15.33,-14.46,-15.34,6.00,6.13,6.03,-8.46,-8.46,0.87
40.14,-14.30,-15.18,-14.30,-15.17,6.00,6.12,5.96,-8.30,-8.30,0.88
40.54,-14.13,-15.00,-14.13,-15.01,6.00,6.11,5.90,-8.13,-8.13,0.87
40.94,-13.97,-14.84,-13.97,-14.84,6.00,6.10,5.83,-7.97,-7.97,0.87
41.35,-13.80,-14.66,-13.80,-14.66,6.00,6.08,5.78,-7.80,-7.80,0.86
41.76,-13.63,-14.48,-13.63,-14.48,6.00,6.07,5.72,-7.63,-7.63,0.86
42.18,-13.45,-14.31,-13.45,-14.30,6.00,6.06,5.67,-7.45,-7.45,0.86
42.60,-13.26,-14.10,-13.26,-14.11,6.00,6.05,5.62,-7.26,-7.26,0.84
43.03,-13.07,-13.90,-13.07,-13.90,6.00,6.04,5.58,-7.07,-7.07,0.84
43.46,-12.87,-13.70,-12.87,-13.69,6.00,6.03,5.54,-6.87,-6.87,0.83
43.90,-12.68,-13.48,-12.67,-13.48,6.00,6.02,5.51,-6.68,-6.67,0.80
44.33,-12.48,-13.26,-12.47,-13.26,6.00,6.01,5.48,-6.48,-6.47,0.78
44.78,-12.28,-13.05,-12.29,-13.06,6.00,6.00,5.45,-6.28,-6.29,0.76
45.23,-12.12,-12.88,-12.14,-12.89,6.00,5.99,5.43,-6.12,-6.14,0.76
45.68,-12.00,-12.74,-11.99,-12.72,6.00,5.97,5.41,-6.00,-5.99,0.74
46.13,-11.84,-12.56,-11.81,-12.54,6.00,5.96,5.40,-5.84,-5.81,0.72
46.60,-11.61,-12.33,-11.61,-12.33,6.00,5.95,5.39,-5.61,-5.61,0.72
47.06,-11.39,-12.09,-11.42,-12.12,6.00,5.94,5.39,-5.39,-5.42,0.70
47.53,-11.24,-11.93,-11.24,-11.93,6.00,5.93,5.38,-5.24,-5.24,0.69
48.01,-11.10,-11.79,-11.09,-11.77,6.00,5.92,5.39,-5.10,-5.09,0.69
48.49,-10.93,-11.60,-10.93,-11.60,6.00,5.91,5.39,-4.93,-4.93,0.67
48.97,-10.77,-11.42,-10.76,-11.41,6.00,5.91,5.40,-4.77,-4.76,0.65
49.46,-10.58,-11.21,-10.58,-11.21,6.00,5.90,5.41,-4.58,-4.58,0.63
49.96,-10.39,-11.00,-10.38,-10.99,6.00,5.89,5.42,-4.39,-4.38,0.61
50.46,-10.19,-10.79,-10.19,-10.78,6.00,5.89,5.44,-4.19,-4.19,0.60
50.96,-9.99,-10.58,-10.02,-10.61,6.00,5.89,5.46,-3.99,-4.02,0.59
51.47,-9.86,-10.43,-9.87,-10.44,6.00,5.88,5.48,-3.86,-3.87,0.57
51.99,-9.74,-10.29,-9.69,-10.25,6.00,5.88,5.50,-3.74,-3.69,0.55
52.51,-9.50,-10.05,-9.50,-10.05,6.00,5.89,5.52,-3.50,-3.50,0.55
53.03,-9.26,-9.80,-9.30,-9.84,6.00,5.89,5.55,-3.26,-3.30,0.55
53.56,-9.10,-9.63,-9.09,-9.62,6.00,5.90,5.57,-3.10,-3.09,0.53
54.10,-8.93,-9.45,-8.92,-9.43,6.00,5.91,5.60,-2.93,-2.92,0.51
54.64,-8.74,-9.24,-8.74,-9.24,6.00,5.93,5.62,-2.74,-2.74,0.50
55.18,-8.55,-9.04,-8.55,-9.04,6.00,5.95,5.64,-2.55,-2.55,0.49
55.74,-8.37,-8.85,-8.38,-8.86,6.00,5.97,5.66,-2.37,-2.38,0.48
56.29,-8.21,-8.68,-8.21,-8.68,6.00,5.99,5.67,-2.21,-2.21,0.47
56.86,-8.05,-8.50,-8.02,-8.46,6.00,6.01,5.69,-2.05,-2.02,0.45
57.42,-7.83,-8.25,-7.82,-8.25,6.00,6.04,5.70,-1.83,-1.82,0.42
58.00,-7.58,-7.99,-7.64,-8.05,6.00,6.06,5.70,-1.58,-1.64,0.41
58.58,-7.49,-7.89,-7.49,-7.88,6.00,6.08,5.70,-1.49,-1.49,0.40
59.16,-7.39,-7.77,-7.36,-7.75,6.00,6.09,5.70,-1.39,-1.36,0.38
59.76,-7.24,-7.60,-7.24,-7.59,6.00,6.09,5.69,-1.24,-1.24,0.36
60.35,-7.07,-7.39,-7.07,-7.39,6.00,6.08,5.67,-1.06,-1.06,0.32
60.96,-6.87,-7.16,-6.87,-7.15,6.02,6.05,5.64,-0.85,-0.85,0.29
61.57,-6.66,-6.90,-6.66,-6.90,6.04,6.00,5.61,-0.62,-0.62,0.24
62.18,-6.46,-6.66,-6.47,-6.67,6.04,5.94,5.58,-0.42,-0.43,0.20
62.80,-6.31,-6.46,-6.32,-6.47,6.02,5.85,5.53,-0.29,-0.30,0.15
63.43,-6.20,-6.31,-6.19,-6.30,5.98,5.75,5.48,-0.22,-0.22,0.11
64.07,-6.08,-6.14,-6.07,-6.14,5.91,5.64,5.42,-0.17,-0.17,0.06
64.71,-5.94,-5.96,-5.92,-5.94,5.81,5.52,5.35,-0.13,-0.11,0.02
65.35,-5.76,-5.74,-5.75,-5.72,5.69,5.39,5.28,-0.07,-0.06,-0.02
66.01,-5.55,-5.48,-5.57,-5.50,5.54,5.26,5.20,-0.01,-0.03,-0.07
66.67,-5.41,-5.29,-5.42,-5.31,5.38,5.12,5.11,-0.03,-0.05,-0.12
67.33,-5.30,-5.13,-5.30,-5.14,5.19,4.99,5.02,-0.10,-0.11,-0.17
68.01,-5.22,-5.01,-5.20,-4.99,5.00,4.85,4.92,-0.22,-0.19,-0.21
68.69,-5.08,-4.82,-5.08,-4.82,4.81,4.72,4.81,-0.27,-0.27,-0.26
69.37,-4.95,-4.64,-4.96,-4.65,4.63,4.60,4.71,-0.32,-0.33,-0.31
70.07,-4.83,-4.47,-4.82,-4.46,4.46,4.47,4.59,-0.37,-0.36,-0.36
70.77,-4.69,-4.28,-4.70,-4.29,4.29,4.35,4.48,-0.40,-0.41,-0.41
71.48,-4.58,-4.12,-4.58,-4.11,4.11,4.22,4.36,-0.47,-0.47,-0.46
72.19,-4.46,-3.93,-4.45,-3.92,3.92,4.10,4.24,-0.54,-0.52,-0.53
72.91,-4.31,-3.73,-4.32,-3.73,3.73,3.98,4.11,-0.58,-0.59,-0.58
73.64,-4.18,-3.54,-4.19,-3.55,3.53,3.86,3.99,-0.65,-0.66,-0.64
74.38,-4.06,-3.36,-4.06,-3.36,3.34,3.75,3.86,-0.72,-0.72,-0.70
75.12,-3.94,-3.18,-3.92,-3.16,3.15,3.63,3.73,-0.78,-0.76,-0.76
75.87,-3.78,-2.96,-3.75,-2.94,2.98,3.51,3.60,-0.80,-0.77,-0.82
76.63,-3.58,-2.71,-3.61,-2.75,2.81,3.39,3.47,-0.77,-0.80,-0.87
77.40,-3.48,-2.56,-3.52,-2.60,2.64,3.27,3.34,-0.84,-0.88,-0.92
78.17,-3.48,-2.50,-3.46,-2.49,2.46,3.16,3.21,-1.02,-0.99,-0.98
78.95,-3.42,-2.41,-3.39,-2.37,2.30,3.04,3.08,-1.12,-1.09,-1.01
79.74,-3.29,-2.22,-3.27,-2.20,2.15,2.92,2.95,-1.14,-1.12,-1.06
80.54,-3.09,-1.98,-3.14,-2.03,2.01,2.79,2.82,-1.08,-1.13,-1.11
81.35,-2.97,-1.81,-2.97,-1.81,1.87,2.67,2.69,-1.10,-1.10,-1.16
82.16,-2.94,-1.73,-2.84,-1.64,1.73,2.55,2.56,-1.21,-1.12,-1.21
82.98,-2.65,-1.40,-2.82,-1.56,1.58,2.42,2.44,-1.07,-1.23,-1.25
83.81,-2.82,-1.52,-2.80,-1.50,1.45,2.29,2.31,-1.37,-1.35,-1.30
84.65,-2.86,-1.51,-2.72,-1.38,1.33,2.17,2.19,-1.53,-1.39,-1.35
85.50,-2.63,-1.24,-2.63,-1.23,1.21,2.04,2.06,-1.42,-1.42,-1.39
86.35,-2.38,-0.94,-2.47,-1.03,1.07,1.91,1.94,-1.31,-1.39,-1.44
87.22,-2.36,-0.87,-2.44,-0.95,0.95,1.78,1.82,-1.41,-1.49,-1.49
88.09,-2.46,-0.92,-2.42,-0.88,0.83,1.65,1.70,-1.63,-1.59,-1.54
88.97,-2.56,-0.97,-2.35,-0.76,0.72,1.52,1.58,-1.84,-1.63,-1.59
89.86,-2.07,-0.43,-2.20,-0.56,0.61,1.38,1.46,-1.46,-1.59,-1.64
90.76,-1.99,-0.30,-2.07,-0.38,0.50,1.25,1.35,-1.49,-1.57,-1.69
91.66,-2.05,-0.31,-2.08,-0.34,0.41,1.12,1.23,-1.64,-1.67,-1.74
92.58,-2.24,-0.44,-2.20,-0.41,0.32,0.99,1.12,-1.92,-1.88,-1.80
93.51,-2.32,-0.48,-2.18,-0.34,0.23,0.86,1.01,-2.09,-1.96,-1.84
94.44,-2.06,-0.17,-2.07,-0.18,0.13,0.73,0.89,-1.93,-1.94,-1.89
95.39,-1.81,0.12,-1.96,-0.02,0.05,0.60,0.78,-1.76,-1.91,-1.93
96.34,-1.91,0.08,-1.91,0.07,-0.02,0.47,0.67,-1.93,-1.93,-1.99
97.30,-2.01,0.02,-1.92,0.11,-0.09,0.35,0.57,-2.10,-2.02,-2.03
98.28,-1.96,0.12,-1.90,0.17,-0.17,0.23,0.46,-2.13,-2.07,-2.08
99.26,-1.79,0.33,-1.86,0.26,-0.23,0.11,0.35,-2.02,-2.10,-2.12
100.25,-1.78,0.39,-1.85,0.31,-0.27,-0.01,0.25,-2.05,-2.13,-2.17
101.25,-1.98,0.23,-1.90,0.32,-0.29,-0.12,0.15,-2.27,-2.19,-2.21
102.27,-1.99,0.27,-1.98,0.28,-0.31,-0.23,0.05,-2.30,-2.29,-2.26
103.29,-2.00,0.32,-2.02,0.29,-0.34,-0.33,-0.05,-2.33,-2.35,-2.32
104.32,-2.02,0.33,-2.02,0.33,-0.36,-0.43,-0.15,-2.38,-2.38,-2.35
105.37,-2.04,0.36,-2.04,0.36,-0.38,-0.52,-0.25,-2.42,-2.42,-2.40
106.42,-2.07,0.38,-2.07,0.38,-0.39,-0.61,-0.34,-2.46,-2.45,-2.44
107.48,-2.09,0.41,-2.09,0.41,-0.39,-0.69,-0.43,-2.48,-2.48,-2.50
108.56,-2.12,0.44,-2.10,0.45,-0.39,-0.77,-0.52,-2.51,-2.49,-2.56
109.64,-2.14,0.46,-2.12,0.48,-0.40,-0.84,-0.60,-2.54,-2.52,-2.60
110.74,-2.15,0.51,-2.23,0.43,-0.41,-0.90,-0.69,-2.56,-2.64,-2.66
111.85,-2.32,0.38,-2.34,0.37,-0.43,-0.96,-0.77,-2.75,-2.76,-2.70
112.97,-2.53,0.23,-2.40,0.35,-0.45,-1.01,-0.84,-2.98,-2.85,-2.76
114.10,-2.39,0.42,-2.41,0.40,-0.48,-1.06,-0.92,-2.87,-2.89,-2.81
115.24,-2.29,0.56,-2.35,0.51,-0.52,-1.09,-0.98,-2.81,-2.87,-2.85
116.39,-2.29,0.62,-2.28,0.62,-0.56,-1.13,-1.05,-2.85,-2.84,-2.91
117.55,-2.28,0.66,-2.27,0.67,-0.61,-1.16,-1.11,-2.89,-2.88,-2.94
118.73,-2.28,0.70,-2.26,0.72,-0.67,-1.18,-1.17,-2.95,-2.93,-2.98
119.92,-2.27,0.74,-2.29,0.72,-0.73,-1.20,-1.22,-3.00,-3.02,-3.01
121.12,-2.28,0.77,-2.33,0.72,-0.77,-1.22,-1.27,-3.05,-3.10,-3.05
122.33,-2.43,0.65,-2.31,0.76,-0.78,-1.22,-1.31,-3.21,-3.09,-3.08
123.55,-2.32,0.78,-2.33,0.78,-0.77,-1.23,-1.35,-3.09,-3.09,-3.10
124.79,-2.21,0.92,-2.34,0.79,-0.75,-1.23,-1.38,-2.96,-3.09,-3.13
126.03,-2.44,0.73,-2.33,0.83,-0.74,-1.23,-1.42,-3.18,-3.08,-3.16
127.29,-2.43,0.76,-2.41,0.78,-0.75,-1.23,-1.44,-3.18,-3.16,-3.18
128.57,-2.42,0.80,-2.57,0.66,-0.76,-1.23,-1.46,-3.18,-3.33,-3.22
129.85,-2.66,0.59,-2.60,0.65,-0.77,-1.22,-1.47,-3.43,-3.37,-3.25
131.15,-2.76,0.52,-2.55,0.73,-0.77,-1.21,-1.49,-3.53,-3.33,-3.28
132.46,-2.38,0.93,-2.51,0.80,-0.78,-1.20,-1.49,-3.16,-3.29,-3.31
133.79,-2.30,1.04,-2.45,0.88,-0.79,-1.19,-1.50,-3.09,-3.25,-3.33
135.12,-2.60,0.77,-2.46,0.90,-0.80,-1.17,-1.49,-3.40,-3.26,-3.37
136.48,-2.60,0.79,-2.58,0.82,-0.81,-1.16,-1.49,-3.41,-3.38,-3.39
137.84,-2.60,0.82,-2.64,0.78,-0.81,-1.15,-1.48,-3.41,-3.45,-3.42
139.22,-2.65,0.80,-2.65,0.80,-0.80,-1.14,-1.47,-3.45,-3.44,-3.45
140.61,-2.69,0.80,-2.70,0.78,-0.79,-1.12,-1.46,-3.48,-3.49,-3.49
142.02,-2.76,0.74,-2.75,0.76,-0.80,-1.11,-1.44,-3.56,-3.54,-3.50
143.44,-2.78,0.75,-2.78,0.76,-0.82,-1.10,-1.42,-3.59,-3.59,-3.53
144.87,-2.79,0.78,-2.80,0.76,-0.84,-1.09,-1.41,-3.63,-3.64,-3.57
146.32,-2.79,0.82,-2.77,0.84,-0.85,-1.08,-1.38,-3.64,-3.62,-3.61
147.78,-2.76,0.88,-2.70,0.94,-0.86,-1.06,-1.36,-3.62,-3.56,-3.64
149.26,-2.61,1.08,-2.67,1.03,-0.87,-1.06,-1.34,-3.48,-3.54,-3.69
150.75,-2.67,1.08,-2.75,1.00,-0.90,-1.05,-1.31,-3.57,-3.65,-3.75
152.26,-2.91,0.91,-2.92,0.90,-0.93,-1.04,-1.29,-3.84,-3.85,-3.82
153.78,-3.19,0.70,-3.07,0.82,-0.97,-1.03,-1.26,-4.16,-4.04,-3.89
155.32,-3.14,0.82,-3.13,0.82,-1.00,-1.03,-1.24,-4.14,-4.14,-3.96
156.88,-3.00,1.03,-3.04,1.00,-1.04,-1.02,-1.21,-4.04,-4.08,-4.03
158.44,-2.99,1.13,-2.93,1.19,-1.09,-1.02,-1.18,-4.08,-4.02,-4.12
160.03,-2.82,1.38,-2.97,1.22,-1.15,-1.02,-1.16,-3.97,-4.12,-4.20
161.63,-3.07,1.20,-3.06,1.21,-1.20,-1.02,-1.13,-4.27,-4.25,-4.27
163.24,-3.27,1.06,-3.09,1.24,-1.23,-1.02,-1.11,-4.50,-4.32,-4.33
164.88,-3.08,1.30,-3.12,1.26,-1.23,-1.02,-1.08,-4.31,-4.35,-4.38
166.53,-3.02,1.41,-3.12,1.31,-1.22,-1.03,-1.06,-4.23,-4.34,-4.43
168.19,-3.19,1.28,-3.23,1.24,-1.17,-1.03,-1.03,-4.36,-4.40,-4.47
169.87,-3.46,1.05,-3.42,1.09,-1.13,-1.04,-1.01,-4.59,-4.55,-4.51
171.57,-3.64,0.88,-3.54,0.98,-1.10,-1.05,-0.99,-4.74,-4.64,-4.52
173.29,-3.52,1.02,-3.55,0.99,-1.09,-1.06,-0.96,-4.61,-4.64,-4.54
175.02,-3.44,1.11,-3.49,1.06,-1.09,-1.07,-0.94,-4.53,-4.58,-4.54
176.77,-3.44,1.12,-3.44,1.12,-1.10,-1.08,-0.92,-4.54,-4.54,-4.56
178.54,-3.44,1.12,-3.45,1.11,-1.12,-1.09,-0.90,-4.56,-4.57,-4.56
180.32,-3.44,1.12,-3.39,1.17,-1.15,-1.10,-0.88,-4.59,-4.54,-4.56
182.13,-3.36,1.19,-3.31,1.24,-1.18,-1.12,-0.87,-4.54,-4.49,-4.55
183.95,-3.17,1.39,-3.29,1.27,-1.19,-1.13,-0.85,-4.36,-4.48,-4.56
185.79,-3.31,1.25,-3.32,1.25,-1.20,-1.15,-0.83,-4.51,-4.52,-4.56
187.65,-3.47,1.11,-3.40,1.18,-1.19,-1.16,-0.82,-4.66,-4.58,-4.58
189.52,-3.48,1.11,-3.48,1.12,-1.18,-1.18,-0.80,-4.66,-4.66,-4.59
191.42,-3.47,1.14,-3.48,1.13,-1.19,-1.19,-0.79,-4.66,-4.67,-4.61
193.33,-3.45,1.18,-3.45,1.18,-1.20,-1.20,-0.78,-4.65,-4.66,-4.63
195.27,-3.44,1.21,-3.44,1.22,-1.23,-1.21,-0.76,-4.67,-4.66,-4.65
197.22,-3.42,1.25,-3.43,1.24,-1.26,-1.22,-0.75,-4.68,-4.70,-4.67
199.19,-3.41,1.29,-3.41,1.28,-1.30,-1.23,-0.74,-4.71,-4.71,-4.70
201.18,-3.41,1.30,-3.34,1.37,-1.34,-1.24,-0.73,-4.75,-4.69,-4.71
203.19,-3.27,1.46,-3.30,1.43,-1.37,-1.24,-0.72,-4.64,-4.67,-4.73
205.23,-3.23,1.52,-3.31,1.43,-1.38,-1.24,-0.71,-4.61,-4.69,-4.75
207.28,-3.41,1.35,-3.37,1.40,-1.36,-1.24,-0.70,-4.77,-4.73,-4.76
209.35,-3.50,1.28,-3.45,1.34,-1.33,-1.23,-0.70,-4.83,-4.78,-4.78
211.44,-3.50,1.32,-3.50,1.31,-1.30,-1.22,-0.69,-4.80,-4.80,-4.82
213.56,-3.51,1.31,-3.58,1.25,-1.26,-1.21,-0.68,-4.77,-4.83,-4.82
215.69,-3.62,1.21,-3.66,1.18,-1.22,-1.20,-0.67,-4.84,-4.88,-4.83
217.85,-3.84,1.01,-3.71,1.14,-1.20,-1.18,-0.67,-5.04,-4.92,-4.85
220.03,-3.70,1.16,-3.72,1.14,-1.21,-1.16,-0.66,-4.91,-4.93,-4.86
222.23,-3.62,1.26,-3.67,1.20,-1.24,-1.13,-0.65,-4.86,-4.91,-4.88
224.45,-3.62,1.25,-3.63,1.25,-1.25,-1.11,-0.64,-4.87,-4.88,-4.87
226.70,-3.62,1.25,-3.60,1.28,-1.26,-1.08,-0.64,-4.87,-4.85,-4.87
228.96,-3.62,1.25,-3.54,1.32,-1.24,-1.05,-0.63,-4.86,-4.79,-4.86
231.25,-3.43,1.43,-3.50,1.36,-1.22,-1.02,-0.62,-4.65,-4.72,-4.85
233.57,-3.50,1.35,-3.56,1.29,-1.19,-0.98,-0.61,-4.69,-4.75,-4.84
235.90,-3.68,1.16,-3.70,1.14,-1.16,-0.95,-0.61,-4.84,-4.86,-4.83
238.26,-3.93,0.89,-3.85,0.97,-1.12,-0.92,-0.60,-5.05,-4.96,-4.82
240.64,-3.94,0.86,-3.88,0.92,-1.05,-0.88,-0.59,-4.99,-4.94,-4.80
243.05,-3.79,0.98,-3.84,0.94,-0.99,-0.85,-0.58,-4.78,-4.82,-4.77
245.48,-3.72,1.03,-3.76,0.99,-0.92,-0.82,-0.57,-4.64,-4.68,-4.75
247.93,-3.75,0.97,-3.73,1.00,-0.87,-0.78,-0.56,-4.61,-4.59,-4.72
250.41,-3.79,0.92,-3.79,0.91,-0.83,-0.75,-0.55,-4.62,-4.63,-4.71
252.92,-3.86,0.81,-3.93,0.75,-0.80,-0.72,-0.54,-4.66,-4.73,-4.67
255.45,-4.05,0.60,-4.01,0.64,-0.75,-0.68,-0.52,-4.80,-4.76,-4.65
258.00,-4.13,0.50,-3.97,0.66,-0.69,-0.65,-0.51,-4.82,-4.66,-4.63
260.58,-3.87,0.75,-3.96,0.65,-0.62,-0.62,-0.50,-4.48,-4.57,-4.61
263.19,-3.77,0.81,-3.96,0.63,-0.54,-0.59,-0.49,-4.31,-4.50,-4.58
265.82,-4.19,0.38,-4.02,0.54,-0.49,-0.56,-0.47,-4.68,-4.51,-4.57
268.48,-4.16,0.38,-4.17,0.37,-0.44,-0.53,-0.46,-4.60,-4.61,-4.54
271.16,-4.20,0.31,-4.21,0.31,-0.40,-0.50,-0.44,-4.60,-4.61,-4.51
273.87,-4.21,0.29,-4.15,0.34,-0.36,-0.47,-0.42,-4.56,-4.50,-4.50
276.61,-4.04,0.42,-4.17,0.30,-0.29,-0.44,-0.41,-4.33,-4.46,-4.46
279.38,-4.20,0.24,-4.17,0.27,-0.22,-0.41,-0.39,-4.42,-4.39,-4.44
282.17,-4.27,0.14,-4.18,0.23,-0.16,-0.38,-0.37,-4.43,-4.34,-4.41
284.99,-4.17,0.21,-4.24,0.14,-0.11,-0.35,-0.36,-4.28,-4.35,-4.38
287.84,-4.23,0.13,-4.28,0.08,-0.07,-0.33,-0.34,-4.30,-4.35,-4.36
290.72,-4.40,-0.07,-4.33,-0.01,-0.03,-0.30,-0.32,-4.43,-4.36,-4.33
293.63,-4.41,-0.11,-4.41,-0.12,0.02,-0.27,-0.30,-4.39,-4.39,-4.30
296.57,-4.40,-0.14,-4.41,-0.14,0.07,-0.24,-0.28,-4.33,-4.34,-4.26
299.53,-4.39,-0.15,-4.33,-0.09,0.12,-0.20,-0.26,-4.27,-4.21,-4.24
302.53,-4.24,-0.02,-4.29,-0.08,0.16,-0.17,-0.24,-4.08,-4.13,-4.22
305.55,-4.23,-0.05,-4.30,-0.12,0.19,-0.14,-0.22,-4.04,-4.11,-4.18
308.61,-4.42,-0.26,-4.35,-0.19,0.23,-0.11,-0.20,-4.19,-4.12,-4.16
311.69,-4.45,-0.32,-4.43,-0.30,0.26,-0.07,-0.18,-4.19,-4.16,-4.13
314.81,-4.44,-0.33,-4.46,-0.35,0.29,-0.04,-0.16,-4.15,-4.17,-4.11
317.96,-4.44,-0.35,-4.44,-0.35,0.32,0.00,-0.14,-4.12,-4.12,-4.09
321.14,-4.44,-0.36,-4.44,-0.36,0.35,0.04,-0.12,-4.09,-4.09,-4.08
324.35,-4.44,-0.37,-4.45,-0.38,0.36,0.08,-0.10,-4.08,-4.08,-4.07
327.59,-4.44,-0.39,-4.45,-0.39,0.38,0.12,-0.08,-4.06,-4.07,-4.05
330.87,-4.44,-0.40,-4.40,-0.36,0.38,0.17,-0.06,-4.06,-4.02,-4.04
334.18,-4.38,-0.35,-4.37,-0.34,0.39,0.22,-0.03,-3.99,-3.98,-4.02
337.52,-4.28,-0.26,-4.38,-0.36,0.41,0.27,-0.01,-3.87,-3.97,-4.02
340.90,-4.45,-0.45,-4.42,-0.42,0.43,0.32,0.01,-4.01,-3.99,-4.00
344.30,-4.54,-0.55,-4.50,-0.50,0.47,0.37,0.03,-4.07,-4.03,-3.99
347.75,-4.55,-0.55,-4.53,-0.54,0.52,0.43,0.05,-4.03,-4.01,-3.99
351.23,-4.53,-0.54,-4.53,-0.54,0.56,0.49,0.08,-3.97,-3.97,-3.99
354.74,-4.47,-0.48,-4.59,-0.60,0.60,0.55,0.10,-3.87,-3.98,-3.99
358.28,-4.70,-0.72,-4.64,-0.66,0.64,0.62,0.12,-4.06,-4.00,-3.98
361.87,-4.79,-0.81,-4.68,-0.70,0.67,0.68,0.14,-4.12,-4.01,-3.98
365.49,-4.63,-0.65,-4.72,-0.74,0.69,0.75,0.17,-3.94,-4.03,-3.98
369.14,-4.65,-0.66,-4.70,-0.72,0.71,0.82,0.19,-3.94,-3.99,-3.99
372.83,-4.78,-0.79,-4.69,-0.70,0.74,0.89,0.21,-4.04,-3.95,-3.99
376.56,-4.72,-0.73,-4.74,-0.75,0.76,0.95,0.24,-3.96,-3.98,-3.99
380.33,-4.71,-0.73,-4.77,-0.79,0.79,1.02,0.26,-3.92,-3.98,-3.98
384.13,-4.86,-0.88,-4.78,-0.79,0.83,1.08,0.28,-4.03,-3.95,-3.98
387.97,-4.83,-0.83,-4.85,-0.86,0.87,1.14,0.30,-3.96,-3.98,-4.00
391.85,-4.87,-0.86,-4.93,-0.93,0.92,1.19,0.33,-3.95,-4.01,-4.01
395.77,-5.05,-1.05,-4.98,-0.98,0.98,1.23,0.35,-4.07,-4.01,-4.00
399.73,-5.07,-1.06,-5.06,-1.05,1.04,1.27,0.37,-4.03,-4.02,-4.01
403.72,-5.08,-1.07,-5.12,-1.11,1.10,1.29,0.39,-3.98,-4.03,-4.01
407.76,-5.16,-1.14,-5.15,-1.13,1.16,1.30,0.41,-4.00,-3.99,-4.02
411.84,-5.23,-1.21,-5.20,-1.18,1.21,1.30,0.43,-4.02,-3.99,-4.02
