frequency,raw
20,-27.37
21,-26.69
22,-26.22
23,-25.50
24,-25.09
25,-24.45
26,-24.10
27,-23.56
28,-23.27
29,-22.81
30,-22.15
31,-21.90
32,-21.45
33,-21.01
34,-20.54
35,-20.15
36,-19.86
37,-19.59
38,-19.12
39,-18.71
40,-18.45
41,-18.26
42,-17.85
43,-17.57
44,-17.12
45,-16.89
46,-16.60
47,-16.21
48,-15.98
49,-15.85
50,-15.52
51,-15.25
52,-14.96
53,-14.61
54,-14.38
55,-14.15
56,-13.93
57,-13.70
58,-13.47
59,-13.24
60,-13.02
61,-12.79
62,-12.56
63,-12.56
64,-12.23
65,-12.05
66,-11.87
67,-11.65
68,-11.42
69,-11.39
70,-11.19
71,-10.96
72,-10.73
73,-10.51
74,-10.51
75,-10.34
76,-10.22
77,-9.87
78,-9.82
79,-9.82
80,-9.60
81,-9.45
82,-9.36
83,-9.14
84,-9.14
85,-8.91
86,-8.78
87,-8.68
88,-8.64
89,-8.46
90,-8.27
91,-8.23
92,-8.23
93,-8.09
94,-8.00
95,-7.99
96,-7.77
97,-7.67
98,-7.54
99,-7.54
100,-7.32
101,-7.32
102,-7.32
104,-7.09
105,-7.09
106,-6.93
107,-6.86
108,-6.86
109,-6.86
110,-6.64
111,-6.63
112,-6.63
113,-6.61
114,-6.40
115,-6.40
117,-6.18
118,-6.18
119,-6.18
120,-6.17
121,-5.95
123,-5.95
124,-5.76
125,-5.72
126,-5.72
128,-5.72
129,-5.63
130,-5.49
131,-5.49
133,-5.49
134,-5.49
135,-5.49
137,-5.26
138,-5.26
140,-5.26
141,-5.26
142,-5.15
144,-5.04
145,-5.04
147,-5.04
148,-5.04
150,-5.04
151,-4.90
153,-4.81
154,-4.81
156,-4.81
157,-4.81
159,-4.81
160,-4.75
162,-4.58
164,-4.58
165,-4.58
167,-4.58
169,-4.58
170,-4.52
172,-4.35
174,-4.35
175,-4.35
177,-4.35
179,-4.35
181,-4.35
183,-4.35
184,-4.35
186,-4.35
188,-4.15
190,-4.13
192,-4.13
194,-4.13
196,-4.13
198,-4.13
200,-4.13
202,-4.13
204,-4.13
206,-4.13
208,-4.13
210,-4.13
212,-3.95
214,-3.90
216,-3.90
218,-3.90
221,-3.90
223,-3.90
225,-3.90
227,-3.90
229,-3.90
232,-3.90
234,-3.90
236,-3.90
239,-3.90
241,-3.90
244,-3.67
246,-3.67
248,-3.67
251,-3.67
253,-3.67
256,-3.67
259,-3.67
261,-3.67
264,-3.67
266,-3.67
269,-3.67
272,-3.67
274,-3.67
277,-3.67
280,-3.67
283,-3.44
286,-3.44
288,-3.44
291,-3.44
294,-3.44
297,-3.44
300,-3.44
303,-3.44
306,-3.44
309,-3.44
312,-3.44
316,-3.24
319,-3.21
322,-3.21
325,-3.21
328,-3.21
332,-3.21
335,-3.21
338,-3.36
342,-3.45
345,-3.67
349,-3.59
352,-3.44
356,-3.44
359,-3.30
363,-3.21
366,-3.21
370,-3.21
374,-3.21
377,-3.21
381,-3.10
385,-2.99
389,-2.99
393,-2.99
397,-2.99
401,-2.99
405,-2.86
409,-2.76
413,-2.76
417,-2.76
421,-2.76
425,-2.76
430,-2.76
434,-2.64
438,-2.53
443,-2.53
447,-2.53
451,-2.53
456,-2.30
460,-2.30
465,-2.30
470,-2.30
474,-2.30
479,-2.30
484,-2.07
489,-2.07
494,-2.07
499,-2.07
504,-1.89
509,-1.85
514,-1.85
519,-1.85
524,-1.78
529,-1.62
535,-1.62
540,-1.62
545,-1.43
551,-1.39
556,-1.36
562,-1.16
568,-1.16
573,-1.16
579,-1.16
585,-1.16
591,-0.93
596,-0.93
602,-0.86
608,-0.71
615,-0.71
621,-0.71
627,-0.48
633,-0.48
639,-0.43
646,-0.25
652,-0.25
659,-0.25
665,-0.06
672,-0.02
679,-0.02
686,-0.02
692,0.07
699,0.21
706,0.21
713,0.21
721,0.24
728,0.43
735,0.43
742,0.43
750,0.43
757,0.43
765,0.43
773,0.43
780,0.49
788,0.66
796,0.66
804,0.66
812,0.66
820,0.66
828,0.66
837,0.66
845,0.66
853,0.66
862,0.66
871,0.66
879,0.66
888,0.66
897,0.66
906,0.66
915,0.66
924,0.66
933,0.45
943,0.43
952,0.43
962,0.43
971,0.31
981,0.21
991,0.21
1001,-0.02
1011,-0.02
1021,-0.02
1031,-0.13
1041,-0.25
1052,-0.44
1062,-0.68
1073,-0.73
1084,-1.00
1094,-1.24
1105,-1.50
1116,-1.76
1128,-2.04
1139,-2.30
1150,-2.68
1162,-3.09
1173,-3.37
1185,-3.57
1197,-3.83
1209,-4.10
1221,-4.35
1233,-4.32
1246,-4.13
1258,-3.97
1271,-3.63
1283,-3.30
1296,-3.01
1309,-2.97
1322,-2.71
1335,-2.53
1349,-2.53
1362,-2.53
1376,-2.53
1390,-2.53
1404,-2.76
1418,-2.76
1432,-2.76
1446,-2.76
1461,-2.93
1475,-2.99
1490,-3.21
1505,-3.21
1520,-3.21
1535,-3.32
1550,-3.57
1566,-3.67
1582,-3.88
1597,-4.13
1613,-4.35
1629,-4.43
1646,-4.58
1662,-4.58
1679,-4.77
1696,-4.81
1713,-5.04
1730,-5.10
1747,-5.26
1764,-5.38
1782,-5.65
1800,-5.72
1818,-5.95
1836,-5.98
1854,-6.18
1873,-6.28
1892,-6.40
1911,-6.40
1930,-6.61
1949,-6.64
1969,-6.86
1988,-6.86
2008,-6.86
2028,-6.86
2048,-6.86
2069,-6.86
2090,-6.86
2111,-6.86
2132,-6.86
2153,-6.86
2175,-6.86
2196,-6.86
2218,-6.64
2240,-6.61
2263,-6.40
2285,-6.31
2308,-6.05
2331,-5.95
2355,-5.74
2378,-5.72
2402,-5.45
2426,-5.19
2450,-4.93
2475,-4.66
2500,-4.40
2525,-4.14
2550,-4.13
2575,-4.08
2601,-3.81
2627,-3.55
2653,-3.29
2680,-3.02
2707,-2.76
2734,-2.73
2761,-2.47
2789,-2.30
2817,-2.30
2845,-2.30
2873,-2.30
2902,-2.30
2931,-2.11
2960,-2.30
2990,-2.30
3020,-2.30
3050,-2.30
3080,-2.30
3111,-2.31
3142,-2.53
3174,-2.53
3206,-2.53
3238,-2.68
3270,-2.76
3303,-2.76
3336,-2.79
3369,-3.04
3403,-3.21
3437,-3.21
3471,-3.21
3506,-3.41
3541,-3.44
3576,-3.44
3612,-3.44
3648,-3.44
3685,-3.44
3721,-3.27
3759,-3.21
3796,-2.99
3834,-2.99
3873,-2.90
3911,-2.65
3950,-2.38
3990,-2.30
4030,-2.08
4070,-1.82
4111,-1.56
4152,-1.30
4193,-1.04
4235,-0.86
4278,-0.53
4321,-0.25
4364,0.01
4407,0.21
4451,0.30
4496,0.57
4541,0.66
4586,0.66
4632,0.65
4679,0.39
4725,0.09
4773,-0.31
4820,-0.77
4868,-1.38
4917,-1.93
4966,-2.68
5016,-3.23
5066,-3.84
5117,-4.43
5168,-5.08
5220,-5.74
5272,-6.40
5325,-6.92
5378,-7.45
5432,-7.97
5486,-8.56
5541,-9.13
5596,-9.65
5652,-9.83
5709,-10.23
5766,-10.62
5823,-11.06
5882,-11.52
5940,-11.91
6000,-12.09
6060,-12.35
6120,-12.61
6182,-12.87
6244,-13.20
6306,-13.59
6369,-13.88
6433,-14.15
6497,-14.41
6562,-14.61
6628,-14.71
6694,-14.97
6761,-15.23
6828,-15.49
6897,-15.75
6966,-15.98
7035,-16.05
7106,-16.21
7177,-16.21
7249,-16.21
7321,-16.21
7394,-16.21
7468,-16.25
7543,-16.43
7618,-16.32
7694,-16.21
7771,-16.21
7849,-15.99
7928,-15.95
8007,-15.75
8087,-15.66
8168,-15.39
8250,-15.13
8332,-14.87
8415,-14.50
8499,-14.22
8584,-13.86
8670,-13.85
8757,-14.18
8845,-14.87
8933,-15.68
9022,-16.82
9113,-18.08
9204,-19.61
9296,-20.93
9389,-22.04
9483,-22.54
9577,-22.80
9673,-23.01
9770,-22.59
9868,-22.02
9966,-21.24
10066,-20.40
10167,-19.62
10268,-18.61
10371,-17.43
10475,-16.21
10579,-15.01
10685,-14.03
10792,-13.28
10900,-12.62
11009,-12.21
11119,-12.05
11230,-12.44
11343,-12.90
11456,-13.27
11571,-13.45
11686,-13.68
11803,-13.94
11921,-14.15
12040,-14.15
12161,-14.03
12282,-13.93
12405,-13.74
12529,-13.48
12655,-13.42
12781,-14.03
12909,-15.05
13038,-16.29
13168,-17.68
13300,-19.32
13433,-21.15
13567,-23.07
13703,-24.77
13840,-26.26
13978,-27.51
14118,-28.64
14259,-30.00
14402,-31.33
14546,-32.61
14692,-33.71
14838,-34.56
14987,-35.28
15137,-36.02
15288,-36.70
15441,-37.11
15595,-37.61
15751,-38.05
15909,-38.57
16068,-39.26
16229,-40.14
16391,-41.18
16555,-42.30
16720,-43.08
16888,-43.61
17056,-43.46
17227,-42.81
17399,-41.71
17573,-40.17
17749,-38.44
17926,-36.65
18106,-34.94
18287,-33.16
18470,-30.96
18654,-28.83
18841,-26.65
19029,-25.09
19220,-24.18
19412,-23.84
19606,-24.24
19802,-25.19
20000,-26.23
