frequency,raw,smoothed,error,error_smoothed,equalization,parametric_eq,fixed_band_eq,equalized_raw,equalized_smoothed,target
20.00,12.53,12.53,3.10,3.09,-3.13,-2.88,-1.06,9.40,9.40,9.44
20.20,12.53,12.54,3.12,3.12,-3.13,-2.87,-1.09,9.40,9.41,9.42
20.40,12.53,12.54,3.13,3.14,-3.13,-2.86,-1.12,9.40,9.41,9.41
20.61,12.53,12.54,3.14,3.15,-3.12,-2.85,-1.16,9.41,9.41,9.40
20.81,12.53,12.54,3.16,3.16,-3.12,-2.84,-1.19,9.42,9.42,9.37
21.02,12.53,12.52,3.17,3.15,-3.11,-2.83,-1.23,9.42,9.41,9.36
21.23,12.48,12.49,3.13,3.13,-3.10,-2.82,-1.27,9.38,9.39,9.35
21.44,12.43,12.44,3.09,3.09,-3.09,-2.81,-1.30,9.35,9.35,9.34
21.66,12.38,12.38,3.05,3.05,-3.07,-2.80,-1.34,9.32,9.31,9.33
21.87,12.33,12.34,3.00,3.01,-3.05,-2.79,-1.38,9.29,9.29,9.33
22.09,12.30,12.31,2.98,2.99,-3.03,-2.78,-1.42,9.28,9.28,9.32
22.31,12.30,12.30,2.99,2.99,-3.01,-2.77,-1.47,9.30,9.29,9.32
22.54,12.30,12.31,3.00,3.00,-2.99,-2.76,-1.51,9.32,9.32,9.31
22.76,12.30,12.31,3.00,3.00,-2.97,-2.75,-1.56,9.34,9.34,9.31
22.99,12.30,12.29,3.00,2.99,-2.94,-2.74,-1.60,9.36,9.35,9.30
23.22,12.25,12.25,2.95,2.95,-2.92,-2.73,-1.65,9.33,9.33,9.30
23.45,12.19,12.20,2.89,2.90,-2.89,-2.72,-1.70,9.30,9.30,9.30
23.69,12.14,12.14,2.84,2.84,-2.87,-2.71,-1.74,9.28,9.27,9.30
23.92,12.09,12.10,2.79,2.80,-2.84,-2.70,-1.79,9.25,9.26,9.30
24.16,12.07,12.08,2.78,2.78,-2.82,-2.68,-1.84,9.26,9.26,9.30
24.40,12.07,12.07,2.78,2.78,-2.79,-2.67,-1.90,9.29,9.29,9.30
24.65,12.07,12.08,2.78,2.78,-2.76,-2.66,-1.95,9.32,9.32,9.29
24.89,12.07,12.07,2.78,2.77,-2.73,-2.65,-2.00,9.34,9.34,9.29
25.14,12.04,12.04,2.75,2.74,-2.70,-2.63,-2.05,9.34,9.33,9.29
25.39,11.98,11.98,2.68,2.69,-2.68,-2.62,-2.10,9.30,9.31,9.30
25.65,11.92,11.92,2.63,2.63,-2.65,-2.61,-2.16,9.27,9.27,9.30
25.91,11.86,11.87,2.58,2.58,-2.63,-2.59,-2.21,9.24,9.25,9.29
26.16,11.84,11.85,2.56,2.56,-2.60,-2.58,-2.26,9.24,9.25,9.28
26.43,11.84,11.84,2.56,2.56,-2.57,-2.56,-2.31,9.27,9.27,9.28
26.69,11.84,11.85,2.56,2.57,-2.54,-2.55,-2.36,9.30,9.30,9.28
26.96,11.84,11.83,2.58,2.56,-2.52,-2.53,-2.41,9.33,9.31,9.27
27.23,11.79,11.79,2.53,2.53,-2.49,-2.52,-2.46,9.30,9.30,9.27
27.50,11.73,11.74,2.47,2.48,-2.48,-2.50,-2.51,9.26,9.26,9.26
27.77,11.68,11.68,2.42,2.42,-2.46,-2.49,-2.55,9.23,9.23,9.26
28.05,11.63,11.64,2.39,2.39,-2.43,-2.47,-2.59,9.20,9.21,9.25
28.33,11.62,11.63,2.38,2.38,-2.40,-2.45,-2.63,9.22,9.23,9.25
28.62,11.62,11.62,2.39,2.38,-2.37,-2.43,-2.67,9.25,9.25,9.23
28.90,11.61,11.61,2.38,2.38,-2.34,-2.42,-2.70,9.27,9.26,9.23
29.19,11.57,11.57,2.36,2.35,-2.32,-2.40,-2.73,9.25,9.24,9.22
29.48,11.51,11.51,2.31,2.31,-2.31,-2.38,-2.76,9.20,9.21,9.20
29.78,11.45,11.46,2.25,2.26,-2.29,-2.36,-2.78,9.16,9.17,9.20
30.08,11.41,11.42,2.23,2.23,-2.27,-2.34,-2.80,9.15,9.15,9.19
30.38,11.40,11.41,2.23,2.23,-2.24,-2.32,-2.81,9.16,9.17,9.17
30.68,11.40,11.40,2.23,2.23,-2.21,-2.30,-2.82,9.20,9.19,9.17
30.99,11.39,11.38,2.24,2.22,-2.18,-2.28,-2.83,9.22,9.20,9.16
31.30,11.32,11.32,2.18,2.18,-2.15,-2.26,-2.83,9.18,9.18,9.14
31.61,11.25,11.26,2.11,2.12,-2.12,-2.24,-2.83,9.13,9.13,9.14
31.93,11.18,11.20,2.06,2.07,-2.11,-2.22,-2.82,9.08,9.09,9.13
32.24,11.16,11.17,2.04,2.05,-2.09,-2.20,-2.80,9.07,9.08,9.12
32.57,11.16,11.16,2.05,2.04,-2.08,-2.18,-2.78,9.09,9.08,9.12
32.89,11.16,11.16,2.05,2.05,-2.06,-2.15,-2.76,9.11,9.10,9.11
33.22,11.16,11.17,2.06,2.06,-2.04,-2.13,-2.74,9.13,9.13,9.11
33.55,11.16,11.17,2.06,2.06,-2.02,-2.11,-2.71,9.14,9.15,9.10
33.89,11.16,11.15,2.06,2.05,-2.00,-2.08,-2.67,9.16,9.15,9.11
34.23,11.11,11.10,2.01,2.00,-1.98,-2.06,-2.64,9.14,9.12,9.10
34.57,11.03,11.04,1.93,1.93,-1.95,-2.03,-2.60,9.08,9.09,9.11
34.92,10.95,10.97,1.84,1.87,-1.91,-2.01,-2.55,9.05,9.06,9.11
35.27,10.93,10.94,1.83,1.84,-1.86,-1.98,-2.51,9.07,9.08,9.11
35.62,10.93,10.93,1.83,1.83,-1.82,-1.96,-2.46,9.11,9.11,9.10
35.97,10.93,10.91,1.84,1.81,-1.78,-1.93,-2.41,9.15,9.13,9.09
36.33,10.85,10.85,1.76,1.76,-1.75,-1.91,-2.36,9.11,9.10,9.10
36.70,10.77,10.78,1.69,1.70,-1.71,-1.88,-2.31,9.06,9.07,9.08
37.06,10.70,10.73,1.63,1.65,-1.68,-1.85,-2.25,9.02,9.05,9.07
37.43,10.70,10.71,1.64,1.64,-1.64,-1.82,-2.20,9.06,9.06,9.07
37.81,10.70,10.69,1.66,1.64,-1.61,-1.80,-2.14,9.10,9.08,9.05
38.19,10.66,10.64,1.62,1.61,-1.58,-1.77,-2.09,9.09,9.07,9.04
38.57,10.57,10.58,1.55,1.55,-1.56,-1.74,-2.03,9.01,9.02,9.02
38.95,10.48,10.51,1.48,1.51,-1.55,-1.71,-1.97,8.93,8.96,9.00
39.34,10.47,10.47,1.50,1.49,-1.55,-1.68,-1.92,8.93,8.93,8.97
39.74,10.47,10.47,1.52,1.51,-1.54,-1.65,-1.86,8.94,8.93,8.96
40.14,10.47,10.48,1.54,1.55,-1.52,-1.62,-1.81,8.95,8.96,8.94
40.54,10.47,10.48,1.56,1.56,-1.51,-1.59,-1.75,8.96,8.96,8.92
40.94,10.47,10.45,1.58,1.55,-1.51,-1.56,-1.70,8.97,8.94,8.90
41.35,10.39,10.39,1.51,1.50,-1.49,-1.53,-1.64,8.90,8.90,8.89
41.76,10.30,10.32,1.43,1.45,-1.47,-1.50,-1.59,8.84,8.85,8.88
42.18,10.25,10.28,1.39,1.41,-1.43,-1.47,-1.54,8.82,8.84,8.86
42.60,10.25,10.25,1.40,1.40,-1.39,-1.44,-1.49,8.86,8.86,8.85
43.03,10.24,10.21,1.40,1.37,-1.35,-1.41,-1.44,8.90,8.86,8.84
43.46,10.14,10.14,1.32,1.31,-1.31,-1.38,-1.39,8.83,8.83,8.83
43.90,10.04,10.08,1.22,1.26,-1.28,-1.35,-1.34,8.77,8.80,8.82
44.33,10.02,10.03,1.21,1.22,-1.25,-1.32,-1.29,8.77,8.78,8.81
44.78,10.02,10.01,1.23,1.21,-1.22,-1.29,-1.25,8.80,8.79,8.80
45.23,10.00,10.00,1.21,1.21,-1.19,-1.26,-1.20,8.81,8.81,8.79
45.68,9.97,9.97,1.20,1.20,-1.17,-1.23,-1.15,8.81,8.81,8.78
46.13,9.93,9.92,1.17,1.15,-1.14,-1.20,-1.11,8.79,8.77,8.76
46.60,9.85,9.86,1.11,1.11,-1.12,-1.17,-1.07,8.73,8.74,8.75
47.06,9.79,9.82,1.05,1.08,-1.10,-1.14,-1.03,8.69,8.72,8.74
47.53,9.79,9.79,1.07,1.07,-1.08,-1.11,-0.99,8.72,8.71,8.72
48.01,9.79,9.77,1.09,1.06,-1.05,-1.08,-0.95,8.74,8.72,8.71
48.49,9.73,9.73,1.05,1.04,-1.03,-1.05,-0.91,8.71,8.71,8.69
48.97,9.66,9.67,0.99,1.00,-1.00,-1.02,-0.87,8.66,8.67,8.67
49.46,9.61,9.61,0.96,0.96,-0.97,-1.00,-0.83,8.64,8.64,8.65
49.96,9.56,9.58,0.93,0.95,-0.94,-0.97,-0.80,8.62,8.64,8.63
50.46,9.54,9.55,0.94,0.93,-0.91,-0.95,-0.76,8.63,8.63,8.61
50.96,9.52,9.49,0.93,0.90,-0.89,-0.92,-0.73,8.63,8.60,8.60
51.47,9.43,9.43,0.86,0.86,-0.87,-0.90,-0.70,8.56,8.56,8.57
51.99,9.33,9.37,0.78,0.82,-0.85,-0.87,-0.67,8.48,8.52,8.55
52.51,9.33,9.33,0.81,0.80,-0.84,-0.85,-0.64,8.50,8.50,8.53
53.03,9.33,9.33,0.83,0.83,-0.82,-0.83,-0.61,8.51,8.51,8.50
53.56,9.33,9.33,0.86,0.86,-0.81,-0.81,-0.58,8.52,8.52,8.47
54.10,9.31,9.28,0.87,0.83,-0.81,-0.79,-0.56,8.51,8.47,8.44
54.64,9.19,9.21,0.78,0.79,-0.80,-0.78,-0.53,8.39,8.41,8.42
55.18,9.11,9.14,0.73,0.76,-0.79,-0.76,-0.51,8.32,8.35,8.39
55.74,9.11,9.12,0.75,0.76,-0.78,-0.75,-0.49,8.34,8.34,8.36
56.29,9.11,9.11,0.79,0.79,-0.76,-0.73,-0.47,8.35,8.35,8.32
56.86,9.11,9.07,0.81,0.78,-0.75,-0.72,-0.45,8.37,8.33,8.30
57.42,9.01,9.00,0.74,0.74,-0.73,-0.71,-0.44,8.28,8.27,8.27
58.00,8.88,8.93,0.65,0.69,-0.72,-0.70,-0.42,8.16,8.21,8.24
58.58,8.88,8.89,0.68,0.68,-0.71,-0.70,-0.41,8.18,8.18,8.20
59.16,8.88,8.88,0.70,0.71,-0.69,-0.69,-0.40,8.19,8.19,8.18
59.76,8.88,8.85,0.75,0.71,-0.68,-0.69,-0.39,8.20,8.17,8.13
60.35,8.80,8.78,0.70,0.68,-0.68,-0.69,-0.39,8.13,8.11,8.10
60.96,8.66,8.71,0.60,0.65,-0.67,-0.69,-0.38,7.99,8.04,8.06
61.57,8.65,8.66,0.63,0.64,-0.67,-0.69,-0.38,7.98,7.99,8.02
62.18,8.65,8.65,0.67,0.66,-0.67,-0.69,-0.38,7.99,7.98,7.98
62.80,8.65,8.64,0.71,0.70,-0.67,-0.70,-0.39,7.99,7.98,7.94
63.43,8.61,8.60,0.71,0.70,-0.67,-0.70,-0.39,7.94,7.93,7.90
64.07,8.54,8.54,0.68,0.68,-0.68,-0.71,-0.40,7.86,7.86,7.86
64.71,8.46,8.48,0.65,0.66,-0.70,-0.72,-0.41,7.77,7.78,7.82
65.35,8.42,8.44,0.66,0.68,-0.71,-0.73,-0.42,7.71,7.73,7.76
66.01,8.42,8.42,0.72,0.72,-0.72,-0.75,-0.43,7.70,7.70,7.71
66.67,8.42,8.42,0.77,0.76,-0.74,-0.76,-0.45,7.69,7.68,7.65
67.33,8.39,8.38,0.79,0.78,-0.75,-0.78,-0.47,7.64,7.63,7.60
68.01,8.33,8.32,0.78,0.77,-0.77,-0.80,-0.49,7.56,7.55,7.55
68.69,8.24,8.26,0.75,0.77,-0.78,-0.82,-0.51,7.46,7.48,7.49
69.37,8.20,8.23,0.76,0.79,-0.79,-0.84,-0.53,7.41,7.43,7.44
70.07,8.20,8.20,0.83,0.82,-0.80,-0.86,-0.56,7.40,7.40,7.38
70.77,8.20,8.16,0.88,0.84,-0.81,-0.88,-0.58,7.39,7.34,7.32
71.48,8.09,8.09,0.83,0.83,-0.83,-0.91,-0.61,7.26,7.26,7.26
72.19,7.97,8.02,0.77,0.82,-0.85,-0.93,-0.64,7.12,7.17,7.20
72.91,7.97,7.97,0.83,0.83,-0.88,-0.96,-0.67,7.10,7.09,7.15
73.64,7.97,7.97,0.90,0.89,-0.90,-0.99,-0.71,7.08,7.07,7.08
74.38,7.97,7.98,0.96,0.96,-0.92,-1.02,-0.74,7.06,7.06,7.02
75.12,7.96,7.95,1.01,0.99,-0.94,-1.05,-0.78,7.02,7.01,6.96
75.87,7.91,7.89,1.01,0.99,-0.97,-1.08,-0.81,6.94,6.92,6.91
76.63,7.80,7.82,0.96,0.98,-1.00,-1.11,-0.85,6.80,6.82,6.84
77.40,7.74,7.76,0.97,0.98,-1.03,-1.14,-0.89,6.72,6.74,6.78
78.17,7.74,7.74,1.02,1.03,-1.05,-1.18,-0.93,6.70,6.70,6.72
78.95,7.74,7.74,1.09,1.09,-1.06,-1.21,-0.97,6.68,6.68,6.66
79.74,7.74,7.72,1.15,1.12,-1.08,-1.24,-1.02,6.66,6.64,6.59
80.54,7.66,7.65,1.13,1.13,-1.11,-1.28,-1.06,6.55,6.54,6.53
81.35,7.56,7.58,1.10,1.12,-1.14,-1.31,-1.11,6.42,6.44,6.46
82.16,7.51,7.53,1.11,1.13,-1.18,-1.35,-1.16,6.34,6.35,6.40
82.98,7.51,7.51,1.18,1.18,-1.21,-1.39,-1.20,6.30,6.30,6.33
83.81,7.51,7.52,1.26,1.26,-1.24,-1.42,-1.25,6.27,6.27,6.26
84.65,7.51,7.49,1.33,1.31,-1.28,-1.46,-1.30,6.24,6.22,6.18
85.50,7.45,7.43,1.36,1.33,-1.31,-1.50,-1.35,6.14,6.12,6.10
86.35,7.34,7.36,1.32,1.34,-1.35,-1.53,-1.41,6.00,6.02,6.02
87.22,7.28,7.32,1.35,1.38,-1.38,-1.57,-1.46,5.91,5.94,5.94
88.09,7.28,7.27,1.42,1.42,-1.41,-1.61,-1.51,5.87,5.86,5.86
88.97,7.28,7.23,1.51,1.45,-1.45,-1.65,-1.57,5.84,5.78,5.77
89.86,7.13,7.16,1.44,1.47,-1.48,-1.68,-1.63,5.65,5.68,5.69
90.76,7.07,7.10,1.47,1.49,-1.53,-1.72,-1.69,5.55,5.57,5.61
91.66,7.06,7.06,1.54,1.53,-1.57,-1.76,-1.74,5.49,5.49,5.53
92.58,7.06,7.07,1.62,1.63,-1.61,-1.79,-1.80,5.45,5.45,5.44
93.51,7.06,7.07,1.71,1.71,-1.66,-1.83,-1.87,5.40,5.41,5.35
94.44,7.05,7.02,1.78,1.75,-1.71,-1.87,-1.93,5.34,5.31,5.27
95.39,6.96,6.95,1.78,1.77,-1.77,-1.91,-1.99,5.19,5.18,5.18
96.34,6.83,6.88,1.75,1.79,-1.83,-1.94,-2.06,5.01,5.05,5.09
97.30,6.83,6.83,1.83,1.83,-1.88,-1.98,-2.12,4.95,4.95,5.00
98.28,6.83,6.83,1.92,1.91,-1.92,-2.02,-2.19,4.91,4.91,4.91
99.26,6.83,6.84,2.01,2.01,-1.96,-2.05,-2.25,4.87,4.88,4.83
100.25,6.82,6.80,2.08,2.06,-2.01,-2.09,-2.32,4.81,4.78,4.74
101.25,6.75,6.73,2.10,2.08,-2.07,-2.12,-2.39,4.68,4.66,4.65
102.27,6.60,6.66,2.04,2.09,-2.13,-2.16,-2.45,4.48,4.53,4.56
103.29,6.60,6.60,2.12,2.13,-2.17,-2.20,-2.52,4.43,4.43,4.48
104.32,6.60,6.60,2.21,2.20,-2.21,-2.23,-2.59,4.39,4.39,4.40
105.37,6.60,6.61,2.29,2.30,-2.25,-2.27,-2.65,4.35,4.36,4.31
106.42,6.60,6.57,2.38,2.34,-2.29,-2.30,-2.72,4.31,4.27,4.23
107.48,6.50,6.50,2.36,2.35,-2.34,-2.34,-2.78,4.16,4.15,4.14
108.56,6.38,6.43,2.32,2.36,-2.40,-2.37,-2.85,3.99,4.03,4.07
109.64,6.37,6.37,2.39,2.39,-2.44,-2.41,-2.91,3.93,3.93,3.98
110.74,6.37,6.37,2.46,2.46,-2.48,-2.45,-2.97,3.90,3.89,3.91
111.85,6.37,6.39,2.55,2.56,-2.51,-2.48,-3.03,3.86,3.88,3.83
112.97,6.37,6.35,2.62,2.60,-2.55,-2.52,-3.09,3.82,3.80,3.75
114.10,6.33,6.28,2.67,2.62,-2.60,-2.55,-3.14,3.74,3.69,3.67
115.24,6.14,6.21,2.56,2.62,-2.65,-2.59,-3.19,3.49,3.56,3.59
116.39,6.14,6.15,2.64,2.64,-2.70,-2.62,-3.24,3.44,3.44,3.50
117.55,6.14,6.13,2.72,2.71,-2.75,-2.66,-3.29,3.40,3.38,3.42
118.73,6.14,6.16,2.80,2.82,-2.79,-2.69,-3.33,3.36,3.37,3.34
119.92,6.14,6.14,2.89,2.89,-2.83,-2.73,-3.37,3.31,3.31,3.25
121.12,6.13,6.09,2.96,2.92,-2.89,-2.76,-3.40,3.25,3.20,3.17
122.33,5.99,6.02,2.91,2.94,-2.94,-2.79,-3.43,3.05,3.07,3.08
123.55,5.92,5.95,2.92,2.95,-2.99,-2.83,-3.46,2.93,2.96,3.00
124.79,5.92,5.92,3.01,3.00,-3.03,-2.86,-3.48,2.89,2.88,2.91
126.03,5.92,5.93,3.09,3.09,-3.07,-2.90,-3.50,2.85,2.86,2.84
127.29,5.92,5.90,3.17,3.15,-3.11,-2.93,-3.51,2.82,2.80,2.75
128.57,5.87,5.84,3.20,3.16,-3.15,-2.97,-3.52,2.72,2.69,2.68
129.85,5.71,5.76,3.12,3.17,-3.20,-3.00,-3.53,2.52,2.57,2.59
131.15,5.69,5.70,3.18,3.19,-3.24,-3.04,-3.53,2.46,2.47,2.52
132.46,5.69,5.68,3.26,3.25,-3.27,-3.07,-3.53,2.42,2.41,2.43
133.79,5.69,5.70,3.33,3.34,-3.30,-3.10,-3.52,2.39,2.40,2.36
135.12,5.68,5.67,3.40,3.38,-3.33,-3.14,-3.52,2.35,2.33,2.28
136.48,5.63,5.60,3.42,3.39,-3.37,-3.17,-3.51,2.26,2.23,2.21
137.84,5.48,5.53,3.34,3.39,-3.42,-3.21,-3.49,2.07,2.11,2.14
139.22,5.46,5.47,3.39,3.40,-3.46,-3.24,-3.48,2.01,2.02,2.07
140.61,5.46,5.45,3.47,3.45,-3.49,-3.27,-3.46,1.98,1.96,2.00
142.02,5.46,5.48,3.53,3.54,-3.51,-3.31,-3.44,1.95,1.97,1.93
143.44,5.46,5.46,3.60,3.60,-3.53,-3.34,-3.42,1.93,1.93,1.87
144.87,5.46,5.41,3.66,3.61,-3.57,-3.37,-3.40,1.89,1.84,1.80
146.32,5.31,5.34,3.57,3.60,-3.61,-3.41,-3.38,1.71,1.73,1.74
147.78,5.23,5.27,3.56,3.59,-3.64,-3.44,-3.36,1.59,1.62,1.67
149.26,5.23,5.22,3.62,3.61,-3.67,-3.47,-3.34,1.56,1.55,1.61
150.75,5.23,5.23,3.68,3.68,-3.69,-3.50,-3.32,1.55,1.55,1.55
152.26,5.23,5.25,3.74,3.75,-3.70,-3.53,-3.30,1.54,1.55,1.49
153.78,5.23,5.21,3.80,3.77,-3.71,-3.56,-3.28,1.52,1.50,1.44
155.32,5.18,5.15,3.80,3.76,-3.74,-3.59,-3.26,1.44,1.41,1.38
156.88,5.02,5.07,3.70,3.74,-3.77,-3.62,-3.24,1.25,1.30,1.33
158.44,5.00,5.01,3.73,3.74,-3.80,-3.65,-3.23,1.20,1.21,1.28
160.03,5.00,4.99,3.78,3.77,-3.82,-3.68,-3.21,1.18,1.16,1.22
161.63,5.00,5.00,3.84,3.84,-3.84,-3.71,-3.20,1.17,1.17,1.16
163.24,5.00,5.01,3.89,3.90,-3.85,-3.73,-3.19,1.16,1.17,1.11
164.88,5.00,4.99,3.94,3.93,-3.87,-3.76,-3.19,1.14,1.13,1.07
166.53,4.97,4.94,3.96,3.92,-3.89,-3.78,-3.18,1.08,1.05,1.02
168.19,4.85,4.87,3.87,3.89,-3.91,-3.81,-3.18,0.94,0.96,0.98
169.87,4.78,4.81,3.85,3.87,-3.93,-3.83,-3.17,0.86,0.88,0.94
171.57,4.78,4.78,3.89,3.88,-3.93,-3.85,-3.18,0.86,0.85,0.89
173.29,4.78,4.79,3.93,3.94,-3.92,-3.88,-3.18,0.86,0.87,0.85
175.02,4.78,4.78,3.97,3.97,-3.92,-3.90,-3.19,0.86,0.86,0.81
176.77,4.78,4.72,4.02,3.96,-3.93,-3.92,-3.19,0.85,0.79,0.76
178.54,4.60,4.65,3.88,3.93,-3.94,-3.93,-3.21,0.66,0.71,0.72
180.32,4.55,4.58,3.87,3.90,-3.95,-3.95,-3.22,0.60,0.63,0.68
182.13,4.55,4.54,3.92,3.90,-3.95,-3.97,-3.24,0.60,0.59,0.63
183.95,4.55,4.57,3.96,3.97,-3.94,-3.98,-3.25,0.61,0.62,0.60
185.79,4.55,4.55,4.00,4.00,-3.94,-4.00,-3.28,0.62,0.61,0.55
187.65,4.55,4.49,4.04,3.97,-3.94,-4.01,-3.30,0.61,0.55,0.52
189.52,4.37,4.42,3.89,3.93,-3.95,-4.02,-3.33,0.43,0.47,0.48
191.42,4.32,4.35,3.87,3.90,-3.95,-4.03,-3.35,0.38,0.40,0.45
193.33,4.32,4.31,3.90,3.89,-3.94,-4.03,-3.38,0.38,0.37,0.42
195.27,4.32,4.33,3.93,3.94,-3.93,-4.04,-3.42,0.40,0.41,0.39
197.22,4.32,4.32,3.96,3.96,-3.91,-4.05,-3.45,0.41,0.41,0.36
199.19,4.31,4.27,3.98,3.94,-3.90,-4.05,-3.48,0.41,0.37,0.33
201.18,4.18,4.20,3.88,3.89,-3.90,-4.05,-3.52,0.29,0.30,0.30
203.19,4.09,4.13,3.82,3.85,-3.89,-4.05,-3.56,0.20,0.24,0.28
205.23,4.09,4.09,3.83,3.83,-3.88,-4.05,-3.60,0.22,0.21,0.26
207.28,4.09,4.10,3.86,3.87,-3.86,-4.05,-3.64,0.24,0.24,0.23
209.35,4.09,4.09,3.88,3.88,-3.84,-4.04,-3.68,0.26,0.26,0.21
211.44,4.09,4.04,3.91,3.86,-3.82,-4.03,-3.72,0.27,0.22,0.19
213.56,3.94,3.97,3.78,3.81,-3.81,-4.03,-3.76,0.13,0.16,0.16
215.69,3.87,3.90,3.73,3.76,-3.79,-4.02,-3.79,0.08,0.11,0.14
217.85,3.86,3.87,3.74,3.75,-3.77,-4.00,-3.83,0.09,0.10,0.12
220.03,3.86,3.86,3.77,3.77,-3.75,-3.99,-3.87,0.12,0.12,0.10
222.23,3.86,3.83,3.80,3.75,-3.72,-3.98,-3.90,0.14,0.10,0.07
224.45,3.76,3.76,3.72,3.71,-3.71,-3.96,-3.94,0.05,0.05,0.05
226.70,3.65,3.69,3.63,3.67,-3.70,-3.94,-3.97,-0.04,-0.01,0.03
228.96,3.64,3.64,3.64,3.64,-3.68,-3.92,-3.99,-0.04,-0.04,0.00
231.25,3.64,3.64,3.66,3.66,-3.66,-3.90,-4.02,-0.02,-0.02,-0.02
233.57,3.64,3.65,3.68,3.69,-3.64,-3.88,-4.04,0.00,0.01,-0.03
235.90,3.64,3.60,3.70,3.66,-3.62,-3.85,-4.05,0.02,-0.02,-0.06
238.26,3.53,3.53,3.62,3.62,-3.61,-3.82,-4.06,-0.08,-0.08,-0.09
240.64,3.42,3.46,3.53,3.57,-3.60,-3.80,-4.07,-0.18,-0.14,-0.10
243.05,3.41,3.41,3.53,3.53,-3.58,-3.77,-4.07,-0.17,-0.17,-0.12
245.48,3.41,3.41,3.55,3.54,-3.56,-3.74,-4.07,-0.14,-0.15,-0.13
247.93,3.41,3.42,3.56,3.57,-3.53,-3.70,-4.06,-0.12,-0.10,-0.15
250.41,3.41,3.39,3.57,3.56,-3.51,-3.67,-4.04,-0.09,-0.11,-0.16
252.92,3.36,3.33,3.55,3.51,-3.49,-3.63,-4.02,-0.13,-0.16,-0.18
255.45,3.21,3.26,3.41,3.45,-3.48,-3.60,-4.00,-0.26,-0.22,-0.20
258.00,3.18,3.20,3.39,3.40,-3.46,-3.56,-3.97,-0.27,-0.26,-0.21
260.58,3.18,3.18,3.40,3.39,-3.43,-3.52,-3.93,-0.25,-0.25,-0.22
263.19,3.18,3.19,3.41,3.42,-3.40,-3.48,-3.89,-0.21,-0.21,-0.23
265.82,3.18,3.17,3.43,3.41,-3.37,-3.44,-3.84,-0.18,-0.20,-0.24
268.48,3.13,3.10,3.39,3.35,-3.33,-3.39,-3.79,-0.20,-0.23,-0.25
271.16,3.00,3.03,3.26,3.29,-3.29,-3.35,-3.74,-0.29,-0.26,-0.25
273.87,2.95,2.99,3.22,3.25,-3.25,-3.30,-3.68,-0.30,-0.27,-0.26
276.61,2.95,2.94,3.23,3.21,-3.21,-3.26,-3.62,-0.26,-0.27,-0.27
279.38,2.95,2.89,3.23,3.17,-3.17,-3.21,-3.55,-0.22,-0.28,-0.28
282.17,2.79,2.83,3.08,3.11,-3.13,-3.16,-3.48,-0.33,-0.30,-0.29
284.99,2.73,2.76,3.02,3.05,-3.09,-3.11,-3.41,-0.35,-0.32,-0.29
287.84,2.73,2.72,3.02,3.01,-3.05,-3.06,-3.34,-0.31,-0.32,-0.29
290.72,2.73,2.75,3.02,3.03,-3.01,-3.01,-3.26,-0.27,-0.26,-0.28
293.63,2.73,2.73,3.03,3.02,-2.97,-2.96,-3.19,-0.24,-0.24,-0.29
296.57,2.73,2.67,3.02,2.96,-2.93,-2.91,-3.11,-0.20,-0.26,-0.29
299.53,2.55,2.60,2.84,2.88,-2.89,-2.86,-3.03,-0.34,-0.30,-0.29
302.53,2.50,2.53,2.79,2.81,-2.85,-2.80,-2.95,-0.35,-0.32,-0.28
305.55,2.50,2.50,2.78,2.78,-2.80,-2.75,-2.87,-0.30,-0.30,-0.28
308.61,2.50,2.50,2.79,2.78,-2.76,-2.69,-2.79,-0.25,-0.26,-0.29
311.69,2.50,2.45,2.79,2.74,-2.71,-2.64,-2.72,-0.21,-0.26,-0.28
314.81,2.36,2.38,2.65,2.67,-2.67,-2.58,-2.64,-0.31,-0.29,-0.29
317.96,2.28,2.31,2.57,2.60,-2.64,-2.53,-2.56,-0.35,-0.32,-0.28
321.14,2.27,2.27,2.56,2.55,-2.60,-2.47,-2.48,-0.33,-0.33,-0.29
324.35,2.27,2.28,2.56,2.56,-2.56,-2.42,-2.41,-0.29,-0.29,-0.29
327.59,2.27,2.28,2.54,2.56,-2.52,-2.36,-2.33,-0.25,-0.24,-0.27
330.87,2.27,2.24,2.55,2.51,-2.47,-2.30,-2.26,-0.20,-0.24,-0.28
334.18,2.17,2.17,2.44,2.44,-2.43,-2.25,-2.19,-0.25,-0.26,-0.27
337.52,2.05,2.10,2.33,2.37,-2.37,-2.19,-2.11,-0.32,-0.27,-0.27
340.90,2.04,2.05,2.30,2.31,-2.32,-2.13,-2.04,-0.27,-0.26,-0.26
344.30,2.04,2.01,2.30,2.27,-2.26,-2.07,-1.98,-0.22,-0.25,-0.25
347.75,1.98,1.96,2.23,2.21,-2.20,-2.02,-1.91,-0.22,-0.25,-0.25
351.23,1.85,1.89,2.11,2.13,-2.15,-1.96,-1.84,-0.30,-0.27,-0.25
354.74,1.81,1.83,2.04,2.06,-2.11,-1.90,-1.78,-0.29,-0.28,-0.23
358.28,1.81,1.81,2.04,2.03,-2.06,-1.84,-1.72,-0.24,-0.25,-0.23
361.87,1.81,1.82,2.04,2.04,-2.01,-1.78,-1.65,-0.20,-0.19,-0.22
365.49,1.81,1.81,2.03,2.02,-1.97,-1.73,-1.59,-0.16,-0.17,-0.22
369.14,1.79,1.75,2.01,1.96,-1.94,-1.67,-1.53,-0.14,-0.19,-0.22
372.83,1.65,1.68,1.86,1.89,-1.90,-1.61,-1.48,-0.25,-0.22,-0.20
376.56,1.59,1.62,1.80,1.82,-1.87,-1.56,-1.42,-0.28,-0.25,-0.21
380.33,1.59,1.58,1.79,1.79,-1.83,-1.50,-1.37,-0.24,-0.25,-0.20
384.13,1.59,1.60,1.79,1.80,-1.79,-1.44,-1.31,-0.20,-0.19,-0.20
387.97,1.59,1.59,1.80,1.79,-1.74,-1.39,-1.26,-0.15,-0.16,-0.20
391.85,1.58,1.53,1.77,1.73,-1.70,-1.33,-1.21,-0.11,-0.17,-0.19
395.77,1.42,1.46,1.62,1.65,-1.65,-1.27,-1.16,-0.22,-0.19,-0.20
399.73,1.36,1.40,1.56,1.59,-1.59,-1.22,-1.11,-0.23,-0.19,-0.19
403.72,1.36,1.35,1.55,1.54,-1.54,-1.16,-1.06,-0.18,-0.19,-0.18
407.76,1.36,1.31,1.55,1.49,-1.48,-1.11,-1.01,-0.12,-0.17,-0.19
411.84,1.22,1.24,1.39,1.42,-1.43,-1.05,-0.97,-0.20,-0.18,-0.17
415.96,1.14,1.17,1.30,1.34,-1.38,-1.00,-0.92,-0.23,-0.20,-0.16
420.12,1.13,1.13,1.30,1.28,-1.33,-0.94,-0.88,-0.19,-0.20,-0.16
424.32,1.13,1.14,1.28,1.28,-1.28,-0.89,-0.84,-0.14,-0.14,-0.14
428.56,1.13,1.14,1.27,1.27,-1.23,-0.84,-0.79,-0.10,-0.09,-0.14
432.85,1.13,1.10,1.26,1.22,-1.19,-0.78,-0.75,-0.05,-0.09,-0.13
437.18,1.02,1.03,1.14,1.15,-1.14,-0.73,-0.71,-0.12,-0.11,-0.12
441.55,0.93,0.96,1.05,1.07,-1.09,-0.68,-0.67,-0.16,-0.13,-0.11
445.96,0.90,0.91,1.00,1.01,-1.03,-0.63,-0.64,-0.13,-0.12,-0.09
450.42,0.90,0.91,0.98,0.98,-0.97,-0.57,-0.60,-0.07,-0.07,-0.07
454.93,0.90,0.88,0.96,0.94,-0.91,-0.52,-0.56,-0.01,-0.03,-0.06
459.48,0.85,0.82,0.90,0.87,-0.86,-0.47,-0.52,-0.01,-0.04,-0.05
464.07,0.70,0.75,0.75,0.79,-0.81,-0.42,-0.49,-0.11,-0.06,-0.05
468.71,0.67,0.69,0.70,0.72,-0.76,-0.37,-0.45,-0.09,-0.08,-0.03
473.40,0.67,0.67,0.70,0.69,-0.71,-0.32,-0.42,-0.03,-0.04,-0.02
478.13,0.67,0.68,0.68,0.69,-0.65,-0.27,-0.38,0.02,0.03,-0.00
482.91,0.67,0.65,0.67,0.65,-0.60,-0.23,-0.35,0.07,0.05,0.01
487.74,0.62,0.60,0.60,0.57,-0.55,-0.18,-0.32,0.07,0.04,0.02
492.62,0.49,0.53,0.45,0.49,-0.51,-0.13,-0.29,-0.01,0.02,0.04
497.55,0.45,0.47,0.40,0.41,-0.46,-0.08,-0.25,-0.00,0.01,0.05
502.52,0.45,0.45,0.38,0.37,-0.40,-0.04,-0.22,0.06,0.05,0.07
507.55,0.45,0.46,0.35,0.37,-0.33,0.01,-0.19,0.12,0.13,0.10
512.62,0.45,0.44,0.33,0.32,-0.27,0.06,-0.16,0.18,0.16,0.12
