frequency,raw,error,smoothed,error_smoothed,equalization,parametric_eq,fixed_band_eq,equalized_raw,equalized_smoothed,target
20.00,-6.10,-7.12,-6.10,-7.15,6.00,5.00,2.98,-0.10,-0.10,1.02
20.20,-6.10,-7.17,-6.10,-7.19,6.00,5.03,3.07,-0.10,-0.10,1.07
20.40,-6.10,-7.22,-6.10,-7.22,6.00,5.06,3.15,-0.10,-0.10,1.12
20.61,-6.10,-7.25,-6.10,-7.26,6.00,5.09,3.24,-0.10,-0.10,1.15
20.81,-6.10,-7.30,-6.10,-7.29,6.00,5.12,3.33,-0.10,-0.10,1.20
21.02,-6.10,-7.34,-6.10,-7.31,6.00,5.15,3.43,-0.10,-0.10,1.24
21.23,-6.10,-7.36,-6.10,-7.34,6.00,5.19,3.53,-0.10,-0.10,1.26
21.44,-6.10,-7.38,-6.10,-7.36,6.00,5.22,3.63,-0.10,-0.10,1.28
21.66,-6.10,-7.40,-6.10,-7.38,6.00,5.25,3.73,-0.10,-0.10,1.30
21.87,-6.10,-7.41,-6.10,-7.40,6.00,5.29,3.84,-0.10,-0.10,1.31
22.09,-6.10,-7.43,-6.10,-7.42,6.00,5.32,3.95,-0.10,-0.10,1.33
22.31,-6.10,-7.44,-6.10,-7.43,6.00,5.35,4.06,-0.10,-0.10,1.34
22.54,-6.10,-7.44,-6.10,-7.43,6.00,5.39,4.18,-0.10,-0.10,1.34
22.76,-6.10,-7.44,-6.10,-7.44,6.00,5.43,4.29,-0.10,-0.10,1.34
22.99,-6.10,-7.43,-6.10,-7.44,6.00,5.46,4.41,-0.10,-0.10,1.33
23.22,-6.10,-7.43,-6.10,-7.44,6.00,5.50,4.54,-0.10,-0.10,1.33
23.45,-6.10,-7.43,-6.10,-7.44,6.00,5.53,4.67,-0.10,-0.10,1.33
23.69,-6.10,-7.44,-6.10,-7.44,6.00,5.57,4.80,-0.10,-0.10,1.34
23.92,-6.10,-7.44,-6.09,-7.44,6.00,5.61,4.93,-0.10,-0.09,1.34
24.16,-6.10,-7.45,-6.09,-7.44,6.00,5.65,5.06,-0.10,-0.09,1.35
24.40,-6.10,-7.45,-6.09,-7.44,6.00,5.69,5.20,-0.10,-0.09,1.36
24.65,-6.10,-7.44,-6.09,-7.44,6.00,5.73,5.34,-0.10,-0.09,1.35
24.89,-6.10,-7.44,-6.09,-7.44,6.00,5.77,5.48,-0.10,-0.09,1.35
25.14,-6.10,-7.44,-6.10,-7.44,6.00,5.81,5.62,-0.10,-0.10,1.34
25.39,-6.10,-7.45,-6.10,-7.45,6.00,5.85,5.77,-0.10,-0.10,1.35
25.65,-6.10,-7.45,-6.11,-7.46,6.00,5.89,5.91,-0.10,-0.11,1.35
25.91,-6.10,-7.44,-6.12,-7.47,6.00,5.93,6.06,-0.10,-0.12,1.34
26.16,-6.12,-7.46,-6.14,-7.49,6.00,5.97,6.21,-0.12,-0.14,1.34
26.43,-6.14,-7.48,-6.16,-7.50,6.00,6.01,6.35,-0.14,-0.16,1.34
26.69,-6.17,-7.51,-6.18,-7.52,6.00,6.05,6.50,-0.17,-0.18,1.34
26.96,-6.20,-7.55,-6.20,-7.54,6.00,6.10,6.64,-0.20,-0.20,1.35
27.23,-6.22,-7.57,-6.22,-7.56,6.00,6.14,6.78,-0.22,-0.22,1.35
27.50,-6.25,-7.60,-6.24,-7.58,6.00,6.18,6.92,-0.25,-0.24,1.35
27.77,-6.28,-7.62,-6.26,-7.60,6.00,6.22,7.05,-0.28,-0.26,1.34
28.05,-6.30,-7.64,-6.29,-7.62,6.00,6.27,7.18,-0.30,-0.29,1.34
28.33,-6.33,-7.66,-6.31,-7.65,6.00,6.31,7.30,-0.33,-0.31,1.33
28.62,-6.35,-7.67,-6.33,-7.67,6.00,6.35,7.41,-0.35,-0.33,1.33
28.90,-6.37,-7.70,-6.35,-7.69,6.00,6.39,7.52,-0.37,-0.35,1.34
29.19,-6.38,-7.70,-6.37,-7.70,6.00,6.44,7.61,-0.38,-0.37,1.32
29.48,-6.39,-7.73,-6.39,-7.72,6.00,6.48,7.70,-0.39,-0.39,1.34
29.78,-6.40,-7.73,-6.40,-7.74,6.00,6.52,7.77,-0.40,-0.40,1.33
30.08,-6.41,-7.75,-6.42,-7.76,6.00,6.56,7.84,-0.41,-0.42,1.34
30.38,-6.44,-7.77,-6.45,-7.78,6.00,6.60,7.89,-0.44,-0.45,1.33
30.68,-6.47,-7.80,-6.47,-7.80,6.00,6.64,7.92,-0.47,-0.47,1.33
30.99,-6.50,-7.83,-6.51,-7.83,6.00,6.68,7.95,-0.50,-0.51,1.33
31.30,-6.53,-7.86,-6.54,-7.87,6.00,6.72,7.96,-0.53,-0.54,1.33
31.61,-6.56,-7.88,-6.58,-7.90,6.00,6.76,7.95,-0.56,-0.58,1.33
31.93,-6.59,-7.91,-6.62,-7.94,6.00,6.80,7.93,-0.59,-0.62,1.32
32.24,-6.65,-7.96,-6.67,-7.99,6.00,6.83,7.90,-0.65,-0.67,1.31
32.57,-6.71,-8.03,-6.72,-8.04,6.00,6.87,7.86,-0.71,-0.72,1.32
32.89,-6.78,-8.10,-6.78,-8.09,6.00,6.90,7.80,-0.78,-0.78,1.32
33.22,-6.84,-8.15,-6.84,-8.15,6.00,6.93,7.73,-0.84,-0.84,1.31
33.55,-6.89,-8.20,-6.89,-8.20,6.00,6.96,7.65,-0.89,-0.89,1.31
33.89,-6.94,-8.23,-6.93,-8.24,6.00,6.99,7.56,-0.94,-0.93,1.30
34.23,-6.99,-8.29,-6.97,-8.27,6.00,7.02,7.47,-0.99,-0.97,1.30
34.57,-7.03,-8.32,-7.00,-8.30,6.00,7.04,7.36,-1.03,-1.00,1.29
34.92,-7.08,-8.37,-7.03,-8.32,6.00,7.07,7.25,-1.08,-1.03,1.29
35.27,-7.12,-8.41,-7.04,-8.33,6.00,7.09,7.13,-1.12,-1.04,1.29
35.62,-7.16,-8.44,-7.06,-8.35,6.00,7.10,7.01,-1.16,-1.06,1.29
35.97,-7.20,-8.48,-7.07,-8.36,6.00,7.12,6.88,-1.20,-1.07,1.28
36.33,-7.14,-8.43,-7.10,-8.38,6.00,7.13,6.75,-1.14,-1.10,1.29
36.70,-7.07,-8.35,-7.12,-8.41,6.00,7.14,6.62,-1.07,-1.12,1.28
37.06,-7.03,-8.31,-7.16,-8.45,6.00,7.15,6.49,-1.03,-1.16,1.28
37.43,-7.10,-8.39,-7.21,-8.50,6.00,7.15,6.36,-1.10,-1.21,1.29
37.81,-7.17,-8.46,-7.27,-8.56,6.00,7.15,6.22,-1.17,-1.27,1.29
38.19,-7.25,-8.54,-7.34,-8.63,6.00,7.15,6.09,-1.25,-1.34,1.29
38.57,-7.36,-8.66,-7.42,-8.71,6.00,7.14,5.96,-1.36,-1.42,1.30
38.95,-7.47,-8.77,-7.51,-8.81,6.00,7.13,5.83,-1.47,-1.51,1.30
39.34,-7.63,-8.93,-7.61,-8.91,6.00,7.12,5.70,-1.63,-1.61,1.30
39.74,-7.81,-9.11,-7.73,-9.03,6.00,7.10,5.58,-1.81,-1.73,1.30
40.14,-7.96,-9.26,-7.87,-9.17,6.00,7.08,5.45,-1.96,-1.87,1.30
40.54,-8.08,-9.38,-8.02,-9.32,6.00,7.05,5.33,-2.08,-2.02,1.30
40.94,-8.19,-9.49,-8.17,-9.47,6.00,7.02,5.21,-2.19,-2.17,1.30
41.35,-8.32,-9.61,-8.33,-9.62,6.00,6.98,5.10,-2.32,-2.33,1.29
41.76,-8.45,-9.74,-8.48,-9.77,6.00,6.95,4.99,-2.45,-2.48,1.29
42.18,-8.58,-9.88,-8.63,-9.91,6.00,6.90,4.88,-2.58,-2.63,1.30
42.60,-8.73,-10.01,-8.78,-10.06,6.00,6.86,4.78,-2.73,-2.78,1.28
43.03,-8.88,-10.16,-8.93,-10.20,6.00,6.81,4.67,-2.88,-2.93,1.28
43.46,-9.06,-10.33,-9.07,-10.33,6.00,6.75,4.58,-3.06,-3.07,1.27
43.90,-9.25,-10.50,-9.20,-10.45,6.00,6.70,4.48,-3.25,-3.20,1.25
44.33,-9.38,-10.61,-9.33,-10.57,6.00,6.64,4.39,-3.38,-3.33,1.23
44.78,-9.51,-10.73,-9.45,-10.68,6.00,6.57,4.30,-3.51,-3.45,1.22
45.23,-9.62,-10.83,-9.57,-10.79,6.00,6.51,4.22,-3.62,-3.57,1.21
45.68,-9.71,-10.91,-9.68,-10.89,6.00,6.44,4.14,-3.71,-3.68,1.20
46.13,-9.80,-10.98,-9.78,-10.98,6.00,6.36,4.06,-3.80,-3.78,1.18
46.60,-9.92,-11.11,-9.86,-11.05,6.00,6.29,3.98,-3.92,-3.86,1.19
47.06,-10.02,-11.19,-9.93,-11.11,6.00,6.21,3.91,-4.02,-3.93,1.17
47.53,-10.03,-11.19,-10.00,-11.16,6.00,6.14,3.84,-4.03,-4.00,1.17
48.01,-10.03,-11.20,-10.05,-11.20,6.00,6.06,3.78,-4.03,-4.05,1.17
48.49,-10.15,-11.30,-10.11,-11.25,6.00,5.98,3.71,-4.15,-4.11,1.15
48.97,-10.26,-11.40,-10.19,-11.32,6.00,5.90,3.65,-4.26,-4.19,1.14
49.46,-10.33,-11.45,-10.29,-11.42,6.00,5.82,3.60,-4.33,-4.29,1.12
49.96,-10.39,-11.49,-10.41,-11.53,6.00,5.75,3.54,-4.39,-4.41,1.10
50.46,-10.47,-11.57,-10.56,-11.66,6.00,5.67,3.49,-4.47,-4.56,1.10
50.96,-10.55,-11.65,-10.74,-11.84,6.00,5.60,3.43,-4.55,-4.74,1.10
51.47,-10.75,-11.83,-10.95,-12.04,6.00,5.53,3.38,-4.75,-4.95,1.08
51.99,-10.96,-12.03,-11.19,-12.27,6.00,5.47,3.34,-4.96,-5.19,1.07
52.51,-11.27,-12.34,-11.46,-12.54,6.00,5.41,3.29,-5.27,-5.46,1.07
53.03,-11.59,-12.66,-11.78,-12.84,6.00,5.36,3.24,-5.59,-5.78,1.07
53.56,-12.06,-13.12,-12.12,-13.18,6.00,5.32,3.20,-6.06,-6.12,1.06
54.10,-12.48,-13.53,-12.47,-13.52,6.00,5.29,3.15,-6.48,-6.47,1.05
54.64,-12.66,-13.70,-12.79,-13.83,6.00,5.26,3.11,-6.66,-6.79,1.04
55.18,-12.93,-13.97,-13.08,-14.13,6.00,5.25,3.06,-6.93,-7.08,1.04
55.74,-13.38,-14.41,-13.33,-14.37,6.00,5.25,3.02,-7.38,-7.33,1.03
56.29,-13.64,-14.67,-13.51,-14.54,6.00,5.26,2.97,-7.64,-7.51,1.03
56.86,-13.74,-14.76,-13.62,-14.64,6.00,5.29,2.92,-7.74,-7.62,1.02
57.42,-13.87,-14.87,-13.63,-14.65,6.00,5.34,2.88,-7.87,-7.63,1.00
58.00,-14.01,-15.00,-13.54,-14.54,6.00,5.40,2.83,-8.01,-7.54,0.99
58.58,-13.82,-14.81,-13.34,-14.32,6.00,5.47,2.78,-7.82,-7.34,0.99
59.16,-13.44,-14.42,-13.05,-14.01,6.00,5.55,2.72,-7.44,-7.05,0.98
59.76,-12.65,-13.62,-12.63,-13.58,6.00,5.63,2.67,-6.65,-6.63,0.96
60.35,-12.04,-12.97,-12.13,-13.05,6.00,5.72,2.61,-6.04,-6.13,0.93
60.96,-11.55,-12.46,-11.56,-12.46,6.00,5.78,2.55,-5.55,-5.56,0.91
61.57,-10.79,-11.66,-10.89,-11.76,6.00,5.81,2.49,-4.79,-4.89,0.87
62.18,-10.03,-10.86,-10.13,-10.97,6.00,5.80,2.42,-4.03,-4.13,0.84
62.80,-9.33,-10.13,-9.33,-10.13,6.00,5.71,2.35,-3.33,-3.33,0.80
63.43,-8.40,-9.16,-8.49,-9.26,6.00,5.54,2.28,-2.40,-2.49,0.76
64.07,-7.38,-8.11,-7.59,-8.33,5.88,5.28,2.21,-1.51,-1.72,0.73
64.71,-6.71,-7.40,-6.66,-7.36,5.61,4.91,2.13,-1.10,-1.06,0.69
65.35,-5.78,-6.44,-5.74,-6.40,5.19,4.46,2.05,-0.59,-0.55,0.66
66.01,-4.65,-5.27,-4.81,-5.43,4.64,3.92,1.97,-0.02,-0.17,0.62
66.67,-4.01,-4.59,-3.86,-4.45,3.96,3.31,1.88,-0.05,0.10,0.58
67.33,-3.07,-3.61,-2.90,-3.45,3.20,2.65,1.79,0.13,0.30,0.54
68.01,-1.87,-2.39,-1.93,-2.43,2.36,1.95,1.70,0.48,0.43,0.51
68.69,-1.03,-1.50,-0.96,-1.43,1.43,1.22,1.61,0.39,0.47,0.47
69.37,-0.11,-0.54,0.01,-0.42,0.42,0.46,1.51,0.31,0.43,0.43
70.07,0.84,0.45,0.95,0.56,-0.56,-0.33,1.41,0.28,0.39,0.39
70.77,1.99,1.63,1.85,1.51,-1.51,-1.15,1.31,0.48,0.35,0.36
71.48,2.78,2.46,2.74,2.43,-2.43,-2.00,1.21,0.34,0.30,0.31
72.19,3.49,3.23,3.59,3.33,-3.33,-2.87,1.10,0.16,0.26,0.26
72.91,4.46,4.25,4.38,4.17,-4.17,-3.78,0.99,0.30,0.22,0.22
73.64,5.11,4.94,5.10,4.93,-4.93,-4.71,0.89,0.18,0.17,0.17
74.38,5.78,5.65,5.76,5.64,-5.64,-5.65,0.78,0.14,0.13,0.13
75.12,6.46,6.38,6.32,6.23,-6.23,-6.55,0.66,0.23,0.09,0.08
75.87,6.91,6.88,6.77,6.73,-6.73,-7.38,0.55,0.19,0.04,0.03
76.63,7.22,7.23,7.14,7.13,-7.13,-8.04,0.44,0.09,0.00,-0.00
77.40,7.51,7.55,7.39,7.43,-7.43,-8.48,0.32,0.08,-0.04,-0.04
78.17,7.77,7.86,7.54,7.61,-7.61,-8.65,0.20,0.16,-0.08,-0.09
78.95,7.87,7.98,7.57,7.69,-7.69,-8.56,0.09,0.18,-0.11,-0.11
79.74,7.75,7.90,7.54,7.69,-7.69,-8.27,-0.03,0.06,-0.15,-0.15
80.54,7.54,7.72,7.42,7.60,-7.60,-7.86,-0.15,-0.06,-0.18,-0.18
81.35,7.27,7.49,7.21,7.43,-7.43,-7.40,-0.27,-0.16,-0.22,-0.22
82.16,6.95,7.20,6.96,7.21,-7.21,-6.93,-0.40,-0.26,-0.25,-0.25
82.98,6.55,6.82,6.65,6.93,-6.93,-6.49,-0.52,-0.38,-0.28,-0.27
83.81,6.17,6.48,6.30,6.61,-6.61,-6.09,-0.64,-0.44,-0.31,-0.31
84.65,5.80,6.15,5.92,6.26,-6.26,-5.74,-0.77,-0.46,-0.34,-0.35
85.50,5.38,5.75,5.53,5.90,-5.90,-5.43,-0.89,-0.52,-0.38,-0.37
86.35,4.97,5.38,5.13,5.54,-5.54,-5.17,-1.02,-0.57,-0.41,-0.40
87.22,4.67,5.11,4.75,5.19,-5.19,-4.95,-1.15,-0.52,-0.44,-0.44
88.09,4.45,4.93,4.38,4.86,-4.86,-4.76,-1.28,-0.41,-0.48,-0.47
88.97,4.06,4.57,4.04,4.55,-4.55,-4.60,-1.41,-0.49,-0.51,-0.51
89.86,3.76,4.31,3.73,4.27,-4.27,-4.47,-1.54,-0.51,-0.54,-0.54
90.76,3.48,4.06,3.45,4.03,-4.03,-4.37,-1.67,-0.55,-0.58,-0.58
91.66,3.15,3.76,3.22,3.83,-3.83,-4.28,-1.81,-0.68,-0.61,-0.61
92.58,2.93,3.59,3.03,3.67,-3.67,-4.21,-1.94,-0.74,-0.64,-0.65
93.51,2.80,3.48,2.89,3.56,-3.56,-4.16,-2.08,-0.76,-0.68,-0.68
94.44,2.73,3.44,2.80,3.51,-3.51,-4.12,-2.22,-0.78,-0.71,-0.71
95.39,2.68,3.42,2.76,3.50,-3.50,-4.09,-2.35,-0.82,-0.74,-0.74
96.34,2.59,3.37,2.77,3.54,-3.54,-4.07,-2.49,-0.95,-0.77,-0.78
97.30,2.56,3.37,2.81,3.61,-3.61,-4.06,-2.63,-1.05,-0.80,-0.80
98.28,2.65,3.48,2.88,3.71,-3.71,-4.06,-2.77,-1.06,-0.83,-0.83
99.26,2.84,3.70,2.98,3.84,-3.84,-4.06,-2.91,-1.00,-0.86,-0.86
100.25,3.07,3.96,3.08,3.97,-3.97,-4.07,-3.05,-0.90,-0.89,-0.89
101.25,3.29,4.21,3.19,4.11,-4.11,-4.08,-3.19,-0.82,-0.92,-0.92
102.27,3.49,4.44,3.29,4.24,-4.24,-4.09,-3.33,-0.75,-0.95,-0.95
103.29,3.63,4.62,3.37,4.35,-4.35,-4.11,-3.47,-0.72,-0.98,-0.99
104.32,3.73,4.74,3.43,4.44,-4.44,-4.12,-3.61,-0.71,-1.01,-1.01
105.37,3.74,4.78,3.48,4.52,-4.52,-4.14,-3.75,-0.78,-1.04,-1.04
106.42,3.70,4.77,3.50,4.58,-4.58,-4.17,-3.88,-0.88,-1.08,-1.07
107.48,3.53,4.64,3.51,4.62,-4.62,-4.19,-4.02,-1.09,-1.11,-1.11
108.56,3.40,4.55,3.48,4.63,-4.63,-4.21,-4.15,-1.22,-1.14,-1.15
109.64,3.31,4.49,3.42,4.60,-4.60,-4.24,-4.27,-1.29,-1.18,-1.17
110.74,3.18,4.39,3.33,4.54,-4.54,-4.26,-4.39,-1.36,-1.21,-1.21
111.85,3.09,4.32,3.23,4.47,-4.47,-4.28,-4.51,-1.38,-1.24,-1.23
112.97,3.04,4.32,3.13,4.40,-4.40,-4.31,-4.62,-1.36,-1.28,-1.28
114.10,2.98,4.29,3.03,4.33,-4.33,-4.33,-4.73,-1.35,-1.31,-1.31
115.24,2.96,4.30,2.92,4.26,-4.26,-4.35,-4.83,-1.30,-1.33,-1.34
116.39,2.89,4.27,2.82,4.18,-4.18,-4.37,-4.92,-1.29,-1.36,-1.38
117.55,2.78,4.17,2.73,4.11,-4.11,-4.39,-5.00,-1.33,-1.39,-1.39
118.73,2.66,4.08,2.64,4.05,-4.05,-4.41,-5.08,-1.39,-1.41,-1.42
119.92,2.53,3.96,2.56,3.99,-3.99,-4.43,-5.15,-1.46,-1.43,-1.43
121.12,2.41,3.87,2.48,3.93,-3.93,-4.45,-5.20,-1.51,-1.45,-1.45
122.33,2.39,3.86,2.39,3.85,-3.85,-4.47,-5.25,-1.46,-1.47,-1.47
123.55,2.37,3.85,2.29,3.78,-3.78,-4.48,-5.29,-1.41,-1.48,-1.48
124.79,2.26,3.75,2.20,3.70,-3.70,-4.50,-5.31,-1.44,-1.50,-1.49
126.03,2.09,3.60,2.11,3.62,-3.62,-4.51,-5.33,-1.53,-1.51,-1.51
127.29,1.95,3.46,2.03,3.55,-3.55,-4.52,-5.33,-1.60,-1.52,-1.51
128.57,1.86,3.40,1.94,3.48,-3.48,-4.53,-5.33,-1.62,-1.54,-1.54
129.85,1.86,3.41,1.86,3.41,-3.41,-4.54,-5.31,-1.55,-1.55,-1.55
131.15,1.81,3.37,1.78,3.35,-3.35,-4.55,-5.29,-1.53,-1.56,-1.56
132.46,1.71,3.29,1.71,3.29,-3.29,-4.56,-5.25,-1.58,-1.57,-1.58
133.79,1.60,3.19,1.64,3.23,-3.23,-4.56,-5.21,-1.62,-1.59,-1.59
135.12,1.51,3.12,1.56,3.16,-3.16,-4.56,-5.16,-1.65,-1.60,-1.61
136.48,1.50,3.11,1.48,3.09,-3.09,-4.56,-5.10,-1.59,-1.61,-1.61
137.84,1.49,3.12,1.40,3.02,-3.02,-4.57,-5.04,-1.53,-1.62,-1.63
139.22,1.36,3.01,1.32,2.96,-2.96,-4.56,-4.97,-1.60,-1.64,-1.65
140.61,1.25,2.92,1.25,2.90,-2.90,-4.56,-4.89,-1.65,-1.65,-1.67
142.02,1.11,2.78,1.16,2.83,-2.83,-4.56,-4.81,-1.72,-1.67,-1.67
143.44,1.08,2.77,1.07,2.76,-2.76,-4.55,-4.73,-1.68,-1.69,-1.69
144.87,1.01,2.72,0.98,2.69,-2.69,-4.54,-4.64,-1.68,-1.72,-1.71
146.32,0.89,2.63,0.88,2.62,-2.62,-4.53,-4.55,-1.73,-1.75,-1.74
147.78,0.74,2.50,0.76,2.54,-2.54,-4.52,-4.46,-1.80,-1.78,-1.76
149.26,0.63,2.42,0.62,2.44,-2.44,-4.51,-4.37,-1.81,-1.82,-1.79
150.75,0.57,2.42,0.47,2.34,-2.34,-4.50,-4.28,-1.77,-1.87,-1.85
152.26,0.47,2.37,0.33,2.25,-2.25,-4.48,-4.18,-1.78,-1.92,-1.90
153.78,0.33,2.29,0.20,2.17,-2.17,-4.46,-4.09,-1.84,-1.97,-1.95
155.32,0.21,2.23,0.09,2.12,-2.12,-4.45,-4.00,-1.91,-2.03,-2.02
156.88,0.10,2.18,0.03,2.12,-2.12,-4.43,-3.90,-2.01,-2.09,-2.08
158.44,-0.04,2.11,-0.00,2.15,-2.15,-4.40,-3.81,-2.18,-2.15,-2.15
160.03,-0.21,2.01,-0.00,2.20,-2.20,-4.38,-3.72,-2.41,-2.21,-2.22
161.63,-0.36,1.93,0.03,2.29,-2.29,-4.36,-3.63,-2.64,-2.26,-2.28
163.24,-0.37,1.97,0.08,2.39,-2.39,-4.33,-3.55,-2.76,-2.31,-2.33
164.88,-0.26,2.12,0.16,2.52,-2.52,-4.30,-3.46,-2.78,-2.36,-2.37
166.53,0.06,2.47,0.25,2.64,-2.64,-4.27,-3.38,-2.58,-2.39,-2.41
168.19,0.36,2.80,0.34,2.76,-2.76,-4.24,-3.30,-2.40,-2.42,-2.44
169.87,0.60,3.07,0.44,2.89,-2.89,-4.21,-3.22,-2.28,-2.45,-2.47
171.57,0.92,3.40,0.53,3.00,-3.00,-4.18,-3.14,-2.08,-2.46,-2.48
173.29,1.06,3.55,0.62,3.10,-3.10,-4.14,-3.07,-2.04,-2.47,-2.49
175.02,1.04,3.52,0.70,3.18,-3.18,-4.10,-3.00,-2.13,-2.48,-2.48
176.77,0.94,3.43,0.75,3.23,-3.23,-4.07,-2.93,-2.29,-2.48,-2.49
178.54,0.85,3.33,0.79,3.27,-3.27,-4.03,-2.86,-2.42,-2.48,-2.48
180.32,0.79,3.26,0.79,3.27,-3.27,-3.99,-2.80,-2.47,-2.48,-2.47
182.13,0.67,3.12,0.75,3.23,-3.23,-3.94,-2.74,-2.55,-2.48,-2.45
183.95,0.52,2.98,0.68,3.15,-3.15,-3.90,-2.68,-2.63,-2.47,-2.46
185.79,0.48,2.93,0.59,3.07,-3.07,-3.85,-2.62,-2.59,-2.47,-2.45
187.65,0.41,2.88,0.50,2.97,-2.97,-3.81,-2.56,-2.56,-2.48,-2.46
189.52,0.31,2.78,0.40,2.88,-2.88,-3.76,-2.51,-2.57,-2.48,-2.47
191.42,0.26,2.74,0.32,2.80,-2.80,-3.71,-2.46,-2.54,-2.48,-2.48
193.33,0.22,2.71,0.25,2.74,-2.74,-3.66,-2.41,-2.52,-2.49,-2.49
195.27,0.18,2.69,0.19,2.69,-2.69,-3.61,-2.36,-2.51,-2.50,-2.50
197.22,0.14,2.66,0.14,2.66,-2.66,-3.55,-2.32,-2.52,-2.51,-2.51
199.19,0.08,2.62,0.10,2.63,-2.63,-3.50,-2.27,-2.55,-2.53,-2.54
201.18,0.05,2.60,0.06,2.60,-2.60,-3.44,-2.23,-2.55,-2.54,-2.55
203.19,0.06,2.62,0.01,2.57,-2.57,-3.38,-2.19,-2.51,-2.56,-2.56
205.23,0.04,2.62,-0.03,2.54,-2.54,-3.32,-2.15,-2.50,-2.57,-2.58
207.28,-0.09,2.49,-0.09,2.50,-2.50,-3.26,-2.11,-2.59,-2.59,-2.58
209.35,-0.14,2.46,-0.14,2.46,-2.46,-3.20,-2.07,-2.60,-2.60,-2.60
211.44,-0.15,2.48,-0.20,2.41,-2.41,-3.14,-2.03,-2.56,-2.61,-2.62
213.56,-0.28,2.34,-0.27,2.35,-2.35,-3.07,-2.00,-2.63,-2.62,-2.62
215.69,-0.35,2.28,-0.34,2.29,-2.29,-3.01,-1.96,-2.64,-2.63,-2.63
217.85,-0.34,2.30,-0.41,2.23,-2.23,-2.94,-1.92,-2.57,-2.64,-2.64
220.03,-0.47,2.18,-0.48,2.17,-2.17,-2.87,-1.89,-2.64,-2.64,-2.65
222.23,-0.59,2.08,-0.55,2.10,-2.10,-2.80,-1.85,-2.69,-2.65,-2.66
224.45,-0.66,1.99,-0.62,2.03,-2.03,-2.73,-1.81,-2.68,-2.65,-2.65
226.70,-0.73,1.92,-0.69,1.96,-1.96,-2.66,-1.78,-2.68,-2.64,-2.65
228.96,-0.77,1.87,-0.75,1.89,-1.89,-2.58,-1.74,-2.66,-2.63,-2.63
231.25,-0.84,1.78,-0.80,1.82,-1.82,-2.51,-1.70,-2.66,-2.62,-2.62
233.57,-0.87,1.74,-0.86,1.75,-1.75,-2.43,-1.66,-2.62,-2.61,-2.61
235.90,-0.93,1.66,-0.91,1.67,-1.67,-2.35,-1.61,-2.60,-2.59,-2.59
238.26,-0.95,1.63,-0.96,1.61,-1.61,-2.27,-1.57,-2.56,-2.57,-2.58
240.64,-0.99,1.57,-1.01,1.54,-1.54,-2.19,-1.52,-2.52,-2.55,-2.55
243.05,-1.04,1.48,-1.07,1.46,-1.46,-2.11,-1.48,-2.50,-2.52,-2.52
245.48,-1.13,1.37,-1.11,1.39,-1.39,-2.03,-1.43,-2.52,-2.50,-2.50
247.93,-1.14,1.32,-1.16,1.31,-1.31,-1.94,-1.37,-2.45,-2.47,-2.46
250.41,-1.16,1.29,-1.22,1.23,-1.23,-1.86,-1.32,-2.39,-2.45,-2.44
252.92,-1.28,1.13,-1.28,1.14,-1.14,-1.77,-1.26,-2.42,-2.42,-2.41
255.45,-1.35,1.04,-1.34,1.05,-1.05,-1.68,-1.20,-2.40,-2.39,-2.38
258.00,-1.40,0.96,-1.40,0.96,-0.96,-1.59,-1.14,-2.36,-2.37,-2.36
260.58,-1.44,0.90,-1.47,0.87,-0.87,-1.50,-1.08,-2.30,-2.34,-2.34
263.19,-1.53,0.78,-1.54,0.77,-0.77,-1.41,-1.01,-2.30,-2.31,-2.31
265.82,-1.66,0.63,-1.61,0.67,-0.67,-1.32,-0.94,-2.33,-2.28,-2.29
268.48,-1.69,0.57,-1.68,0.58,-0.58,-1.22,-0.87,-2.27,-2.26,-2.26
271.16,-1.73,0.50,-1.74,0.49,-0.49,-1.13,-0.80,-2.22,-2.23,-2.23
273.87,-1.86,0.35,-1.81,0.39,-0.39,-1.03,-0.72,-2.25,-2.20,-2.21
276.61,-1.90,0.28,-1.89,0.29,-0.29,-0.93,-0.65,-2.19,-2.18,-2.17
279.38,-1.92,0.23,-1.96,0.19,-0.19,-0.83,-0.57,-2.11,-2.15,-2.15
282.17,-2.04,0.08,-2.02,0.09,-0.09,-0.73,-0.48,-2.13,-2.12,-2.12
284.99,-2.09,-0.01,-2.09,-0.00,0.00,-0.63,-0.40,-2.09,-2.09,-2.08
287.84,-2.13,-0.06,-2.15,-0.09,0.09,-0.53,-0.32,-2.03,-2.06,-2.07
290.72,-2.17,-0.14,-2.21,-0.19,0.19,-0.42,-0.23,-1.98,-2.03,-2.03
293.63,-2.25,-0.25,-2.27,-0.27,0.27,-0.32,-0.14,-1.97,-2.00,-2.00
296.57,-2.33,-0.37,-2.32,-0.36,0.36,-0.21,-0.05,-1.97,-1.97,-1.96
299.53,-2.42,-0.48,-2.38,-0.44,0.44,-0.10,0.04,-1.98,-1.94,-1.94
302.53,-2.50,-0.58,-2.43,-0.52,0.52,0.01,0.14,-1.98,-1.91,-1.92
305.55,-2.51,-0.64,-2.47,-0.59,0.59,0.12,0.23,-1.92,-1.88,-1.87
308.61,-2.51,-0.66,-2.51,-0.66,0.66,0.23,0.33,-1.85,-1.86,-1.85
311.69,-2.52,-0.69,-2.55,-0.72,0.72,0.34,0.42,-1.80,-1.83,-1.82
314.81,-2.58,-0.78,-2.59,-0.78,0.78,0.45,0.52,-1.80,-1.81,-1.80
317.96,-2.65,-0.87,-2.63,-0.84,0.84,0.57,0.62,-1.81,-1.79,-1.78
321.14,-2.68,-0.91,-2.67,-0.90,0.90,0.68,0.72,-1.78,-1.77,-1.77
324.35,-2.69,-0.94,-2.70,-0.95,0.95,0.80,0.83,-1.73,-1.75,-1.75
327.59,-2.70,-0.97,-2.73,-1.00,1.00,0.91,0.93,-1.70,-1.73,-1.73
330.87,-2.74,-1.01,-2.76,-1.04,1.04,1.03,1.04,-1.70,-1.72,-1.73
334.18,-2.79,-1.08,-2.79,-1.08,1.08,1.15,1.14,-1.70,-1.71,-1.71
337.52,-2.80,-1.10,-2.82,-1.13,1.13,1.27,1.25,-1.67,-1.69,-1.70
340.90,-2.87,-1.19,-2.86,-1.17,1.17,1.39,1.36,-1.70,-1.69,-1.68
344.30,-2.92,-1.25,-2.90,-1.22,1.22,1.51,1.47,-1.70,-1.68,-1.67
347.75,-2.98,-1.31,-2.93,-1.26,1.26,1.63,1.58,-1.72,-1.67,-1.67
351.23,-3.00,-1.34,-2.96,-1.30,1.30,1.75,1.70,-1.70,-1.67,-1.66
354.74,-3.00,-1.33,-3.00,-1.34,1.34,1.87,1.81,-1.66,-1.66,-1.66
358.28,-3.00,-1.34,-3.04,-1.39,1.39,1.99,1.93,-1.61,-1.66,-1.66
361.87,-3.05,-1.39,-3.09,-1.43,1.43,2.12,2.04,-1.62,-1.66,-1.66
365.49,-3.16,-1.51,-3.14,-1.48,1.48,2.24,2.16,-1.68,-1.65,-1.65
369.14,-3.18,-1.52,-3.19,-1.53,1.53,2.36,2.28,-1.64,-1.65,-1.66
372.83,-3.21,-1.55,-3.24,-1.59,1.59,2.48,2.41,-1.62,-1.65,-1.66
376.56,-3.32,-1.66,-3.30,-1.64,1.64,2.61,2.53,-1.67,-1.66,-1.66
380.33,-3.36,-1.71,-3.36,-1.70,1.70,2.73,2.65,-1.66,-1.66,-1.65
384.13,-3.39,-1.74,-3.42,-1.76,1.76,2.85,2.78,-1.63,-1.66,-1.65
387.97,-3.49,-1.83,-3.49,-1.83,1.83,2.97,2.90,-1.66,-1.67,-1.66
391.85,-3.59,-1.91,-3.58,-1.91,1.91,3.09,3.03,-1.68,-1.67,-1.67
395.77,-3.65,-1.98,-3.66,-1.98,1.98,3.21,3.16,-1.67,-1.68,-1.67
399.73,-3.73,-2.05,-3.74,-2.06,2.06,3.32,3.29,-1.67,-1.68,-1.68
403.72,-3.84,-2.16,-3.82,-2.13,2.13,3.44,3.42,-1.71,-1.69,-1.68
407.76,-3.93,-2.24,-3.90,-2.21,2.21,3.55,3.54,-1.72,-1.69,-1.69
411.84,-3.95,-2.26,-3.99,-2.29,2.29,3.67,3.67,-1.65,-1.69,-1.69
415.96,-4.02,-2.33,-4.07,-2.38,2.38,3.78,3.80,-1.64,-1.69,-1.69
420.12,-4.14,-2.45,-4.14,-2.45,2.45,3.88,3.92,-1.68,-1.69,-1.69
424.32,-4.24,-2.55,-4.22,-2.53,2.53,3.99,4.05,-1.70,-1.68,-1.69
428.56,-4.33,-2.65,-4.28,-2.61,2.61,4.09,4.17,-1.72,-1.67,-1.68
432.85,-4.40,-2.73,-4.34,-2.69,2.69,4.19,4.29,-1.71,-1.66,-1.67
437.18,-4.40,-2.74,-4.40,-2.77,2.77,4.28,4.41,-1.63,-1.64,-1.66
441.55,-4.45,-2.83,-4.45,-2.84,2.84,4.37,4.52,-1.61,-1.61,-1.62
445.96,-4.55,-2.96,-4.50,-2.92,2.92,4.46,4.62,-1.63,-1.58,-1.59
450.42,-4.63,-3.07,-4.55,-3.00,3.00,4.54,4.73,-1.63,-1.54,-1.56
