frequency,raw
20,-4.778551451419626
21,-4.459936515740721
22,-4.06259107623023
23,-3.7543044654983135
24,-3.452580327567274
25,-3.1342552344151873
26,-2.756859026702549
27,-2.5920188457170883
28,-2.2441444944530287
29,-1.9208326732604366
30,-1.6422354999810502
31,-1.4163854752090779
32,-1.2332756477900264
33,-1.0159409025142283
34,-0.737063086187946
35,-0.5000432054999667
36,-0.32954732099207074
37,-0.13361481032587708
38,0.039845409826820055
39,0.18921643436975788
40,0.44023369036092797
41,0.6891360952909199
42,0.687630769235504
43,0.8520173735836479
44,1.0810134903141906
45,1.258836717983018
46,1.2743077943261012
47,1.4419420388230773
48,1.4554656493405438
49,1.6767300171890924
50,1.8911928554415032
51,1.877879443271059
52,2.0019399657229675
53,2.0618914063159792
54,2.2812145012100498
55,2.2801782881670176
56,2.26006333879878
57,2.5013280038236285
58,2.461212759723622
59,2.6364962105276533
60,2.6850075009353453
61,2.6824772656721563
62,2.7830520589928853
63,2.8836268108829692
64,2.8836267269947116
65,2.883626420610627
66,2.9842005286088056
67,3.0811431782095173
68,3.084773392127147
69,3.0646578685137036
70,3.1853480720340523
71,3.1853506844212527
72,3.290401514130633
73,3.296413214407422
74,3.2859508325835307
75,3.2749577199146724
76,3.265852328811912
77,3.386535153791918
78,3.386507383199453
79,3.386450806694455
80,3.38636135363751
81,3.3847153355235777
82,3.386111043393899
83,3.530887583351078
84,3.5883979995637763
85,3.587183527478724
86,3.587467046014132
87,3.5880165754135893
88,3.588875455180145
89,3.590043968555092
90,3.591457926090638
91,3.6935449015343957
92,3.694913805839369
93,3.69580211062007
94,3.6957889997418487
95,3.6943959392951897
96,3.6911250777350313
97,3.685506744070489
98,3.6771508484809443
99,3.66579597247271
100,3.651349867326217
101,3.6339159861104866
102,3.613802390124501
104,3.591511581519118
105,3.5677121268555627
106,3.5431949840036028
107,3.491629463321681
108,3.3948758955108422
109,3.3188047251133375
110,3.2537361568678347
111,3.237799118908889
112,3.2253106480647906
113,3.2164346409204008
114,3.2111310201659986
115,3.209171629951461
117,3.027293087134638
118,3.0124809031592337
119,3.0178366411216175
120,2.950031139045967
121,2.9279292293993544
123,2.8386224235387143
124,2.846383886517783
125,2.774177051325465
126,2.6689846327957962
128,2.666373171170967
129,2.6724827618136784
130,2.6781371702630734
131,2.6198245580757265
133,2.587576195821236
134,2.5919134707807756
135,2.5445201539591777
137,2.4565673422201497
138,2.400510894837457
140,2.40250098363118
141,2.4038400829904623
142,2.404579356219694
144,2.3042423192128116
145,2.3041160990081906
147,2.3195501515112116
148,2.3844260935797874
150,2.4749167705325474
151,2.5244369281146977
153,2.644372843846315
154,2.6757256212194815
156,2.7538642503873447
157,2.8305399505361963
159,2.8365177650714504
160,2.8428221129954387
162,2.732476884112039
164,2.5282205301131624
165,2.407758567273288
167,2.171119924506837
169,1.928371740117382
170,1.7952850918226266
172,1.7539802813727867
174,1.765251884762815
175,1.7600962767731045
177,1.9063290305290355
179,1.7245689439730068
181,1.715395049742526
183,1.777016267198882
184,1.8334481917492722
186,1.7144788874315635
188,1.4480984286808916
190,1.4153729958882661
192,1.5492271006307836
194,1.6104828244816811
196,1.320876518613975
198,1.3566158123183854
200,1.374672619775659
202,1.099053279362056
204,0.8908234574972895
206,0.8396033126803044
208,0.7641024931086458
210,0.8595702787267732
212,0.8697373762836316
214,0.7846067764954858
216,0.7328649502203965
218,0.6764215493232537
221,0.6731200176949619
223,0.6707764285593734
225,0.6699110031611291
227,0.5764498838375023
229,0.5361794662998287
232,0.6813774991621249
234,0.7717273580402277
236,0.8602698351650806
239,0.9477879422802945
241,0.9475142973268332
244,0.9912425786799776
246,1.0207432821711082
248,0.9444719466054738
251,0.9298976267792952
253,0.9528766237249895
256,0.8550326717047613
259,0.7190807207841592
261,0.6919161879450494
264,0.5236509299920544
266,0.4570193180646528
269,0.30604474012405847
272,0.24901121999705278
274,0.24566372512269108
277,0.11557068514335278
280,-0.038127424337075944
283,-0.15542803795775184
286,-0.28381221911238486
288,-0.39280823784566177
291,-0.5817095811267137
294,-0.7167730849703545
297,-0.7988319364961984
300,-0.9293146621906729
303,-1.0587173596062855
306,-1.1373931656514962
309,-1.2663677265006883
312,-1.395597426931909
316,-1.4979388158753015
319,-1.5361547647276228
322,-1.575168484573541
325,-1.6649305141325548
328,-1.7102557935995435
332,-1.8230949512518153
335,-1.8652023231584813
338,-1.9174344184905592
342,-2.0638907295034814
345,-1.9923130805592066
349,-1.9696463692938835
352,-2.0385246302938427
356,-2.0692190336299845
359,-2.062043126194034
363,-2.1351101591849666
366,-2.17091831287208
370,-2.1286714115893735
374,-2.115473020422788
377,-2.199178237664812
381,-2.2177182142232676
385,-2.2142624150265418
389,-2.2857603316534862
393,-2.3064669765753187
397,-2.326183398198289
401,-2.3899069662786045
405,-2.532869696333942
409,-2.6129217917972953
413,-2.6160343972758184
417,-2.7094389253145303
421,-2.7171738852650247
425,-2.7114268642437374
430,-2.7848462982834015
434,-2.7046426580885194
438,-2.632829501578302
443,-2.615565412532381
447,-2.5705742762618136
451,-2.518320925394966
456,-2.319733401809816
460,-2.258607558227897
465,-2.236762958462076
470,-2.0151460376436177
474,-1.9705144215630535
479,-2.0260572745614946
484,-1.8742982900518754
489,-1.7777786339168005
494,-1.7431011519400605
499,-1.71410834499468
504,-1.6905788460291185
509,-1.6725687140987628
514,-1.6605312957191585
519,-1.7925574321449025
524,-1.8076797208620137
529,-1.7701215117407698
535,-1.7913118925328826
540,-1.8221216679644419
545,-1.8616692046731587
551,-1.908105537843177
556,-1.9587209439661455
562,-2.0463610586969314
568,-2.119486373825581
573,-2.0324604822833297
579,-1.9963058389848403
585,-2.0212885265569094
591,-2.1767447217154086
596,-2.1815619416052083
602,-2.1777516040264997
608,-2.1668569298530853
615,-2.009559646127425
621,-1.9885762215236367
627,-1.9984883182459288
633,-1.9750117860612
639,-1.9418157232929263
646,-1.9388894293012238
652,-1.8774948705615968
659,-1.7129634149399129
665,-1.679509108122841
672,-1.62303811481571
679,-1.4485639014759453
686,-1.3137131400346997
692,-1.2759432110370137
699,-1.1478118811389384
706,-1.1320603164750045
713,-1.1311333638754706
721,-1.1365381480755996
728,-1.081488771865733
735,-1.064216194487632
742,-1.005818526449858
750,-0.9773677909005718
757,-0.9609718762715337
765,-0.983444562594137
773,-0.9539830767843922
780,-0.9105753292170433
788,-0.9157819395319244
796,-0.8896424949470332
804,-0.813191775388125
812,-0.7415831830415567
820,-0.765104749870152
828,-0.7938445074207187
837,-0.6992311879039027
845,-0.70016339742652
853,-0.7034773624749828
862,-0.6083040411412118
871,-0.6152666104332394
879,-0.5225638309762816
888,-0.5306657727970552
897,-0.5187892393174198
906,-0.44456186603909587
915,-0.3900865611374323
924,-0.35317259537472556
933,-0.35506311810508234
943,-0.23920617622646542
952,-0.23188445297662327
962,-0.2619012705587088
971,-0.22722504539935523
981,-0.037510570869892026
991,0.002322796798258628
1001,-0.00025679700764358326
1011,0.013468829763084916
1021,0.022055114069608917
1031,0.052594270270883564
1041,0.20052107968424374
1052,0.23564425356909904
1062,0.275150183836657
1073,0.3191968701588602
1084,0.32968414567845794
1094,0.3008453507322717
1105,0.37266541643021067
1116,0.4635046471237235
1128,0.4589961315533927
1139,0.48219063391485395
1150,0.47038442313497086
1162,0.5075492909629583
1173,0.4596769778878298
1185,0.46130839314666183
1197,0.4502404703637659
1209,0.5127292257835605
1221,0.5115323975990362
1233,0.5059804244655763
1246,0.522852359790783
1258,0.5167192499959408
1271,0.5083934604383289
1283,0.4748329919449428
1296,0.47231030017732456
1309,0.4802928271739333
1322,0.4915602977980922
1335,0.4550129664867848
1349,0.4561344027892873
1362,0.40676711201413607
1376,0.3238177637529418
1390,0.3251986669918616
1404,0.2684608333785312
1418,0.17027179496589095
1432,0.11234105867207012
1446,0.049314514671876974
1461,-0.08307837856097189
1475,-0.13028489182254122
1490,-0.17801998908568795
1505,-0.2832493534429066
1520,-0.3448583449222484
1535,-0.3619853911494513
1550,-0.37659880624177866
1566,-0.16182829360280593
1582,0.050058208925374714
1597,0.38100231779254656
1613,1.0162544560738604
1629,1.3806144389223194
1646,1.7722171487987772
1662,2.1713351770707305
1679,2.4196412745534097
1696,2.5260527010642733
1713,2.603775299357917
1730,2.682779556206821
1747,2.676582629485188
1764,2.727374424023014
1782,2.7665438693521187
1800,2.7890516356558033
1818,2.8053933019425887
1836,2.8006710775329147
1854,2.8731238194105666
1873,2.8993156450887314
1892,2.978683783631462
1911,3.0038701618760166
1930,3.0404774433807873
1949,3.0774861702359297
1969,3.201382600021958
1988,3.2292556859704256
2008,3.3268616330550547
2028,3.3073939673824064
2048,3.389683946307496
2069,3.3537232460819597
2090,3.3912342179760344
2111,3.4855457779815184
2132,3.6486832924563863
2153,3.7072051100872416
2175,3.761007380851124
2196,3.7916104086659654
2218,3.8607831789039473
2240,4.01704003376722
2263,4.102301141974609
2285,4.178272017996898
2308,4.271383256146503
2331,4.399909268474609
2355,4.546062728891647
2378,4.704904394340494
2402,4.838373531027589
2426,4.945495178630763
2450,4.993300341163382
2475,5.079384976427791
2500,5.262455850423089
2525,5.4779801585284815
2550,5.685230012086915
2575,6.05329613575001
2601,6.435035381566969
2627,6.769770511180628
2653,7.045109590685028
2680,7.242700759581355
2707,7.430227761308405
2734,7.620506252610191
2761,7.737533678783253
2789,7.886882842617272
2817,8.006347978724271
2845,8.176977982679908
2873,8.294193144136468
2902,8.473841693502782
2931,8.552301079602781
2960,8.662114041226411
2990,8.856175686108406
3020,8.981922190492412
3050,9.268268101438577
3080,9.378075143430145
3111,9.448263233951272
3142,9.52771530476081
3174,9.71191849471215
3206,9.882220524282115
3238,9.988846367595624
3270,9.905564583095117
3303,9.902772251063789
3336,9.912293278986128
3369,9.917075177746135
3403,9.846433679452064
3437,9.809026457698037
3471,9.739792245654803
3506,9.70041307314915
3541,9.65363067829846
3576,9.513934509122306
3612,9.224240239063642
3648,9.110196652368698
3685,8.986610232264137
3721,8.751322065621578
3759,8.441706975287708
3796,8.191651074382229
3834,8.024657273698148
3873,8.163552106340102
3911,8.197717055119321
3950,8.140503387708309
3990,7.901688772862011
4030,7.898440527741304
4070,8.01296258476168
4111,7.832026759521785
4152,7.63202584576109
4193,7.608760620027573
4235,7.41898948192061
4278,7.092271775192511
4321,6.8697467446139715
4364,6.6710741415538575
4407,6.6259290630884315
4451,6.755227458290873
4496,6.7077574078096625
4541,6.755016687057964
4586,6.625478048842195
4632,6.406268210352399
4679,5.937248687822359
4725,5.684542570556358
4773,5.455838705618245
4820,5.0764763434736935
4868,4.778459473161634
4917,4.55253920599036
4966,4.260275075552139
5016,3.891335323601771
5066,3.6243533776754493
5117,3.385351277898849
5168,2.832833976499236
5220,2.5131656102036875
5272,2.4065097483235345
5325,2.2825372143794933
5378,2.23226452863069
5432,2.0645509617871074
5486,1.8187473988776564
5541,1.6183700616614018
5596,1.3045159249717297
5652,0.9638674545541974
5709,0.6552188786612998
5766,0.17529187150576853
5823,0.2654632634653318
5882,0.3253387438324733
5940,-0.1699468314267154
6000,-0.40931300147595984
6060,-0.6830148248201109
6120,-0.6603357985311593
6182,-1.1574083547351002
6244,-1.6961212846093154
6306,-2.0223554954917464
6369,-1.941548660430767
6433,-1.9125645756280818
6497,-2.281225223958087
6562,-2.569678723559612
6628,-2.921020815445466
6694,-3.454479476405119
6761,-3.394159547848836
6828,-3.3487654275631025
6897,-3.424397730722479
6966,-3.612485024277767
7035,-3.965409123105183
7106,-4.328560238055123
7177,-4.320224577711722
7249,-4.471645280058808
7321,-4.647711361337696
7394,-4.607896160113815
7468,-4.22110201051632
7543,-3.509992911274664
7618,-3.17040300401686
7694,-2.927892397059816
7771,-2.6218545472559702
7849,-2.3382685325209023
7928,-1.6860754610988327
8007,-0.5719746931023479
8087,0.6285377767736744
8168,1.7213583592568966
8250,2.8876360833018424
8332,4.040795388074091
8415,4.453249758997945
8499,5.0444168369529025
8584,4.286874545112681
8670,3.671234538116013
8757,2.203922484018233
8845,3.6397533972156024
8933,3.8561932078509074
9022,3.1859543276544233
9113,2.971303544611418
9204,3.0015597247371053
9296,3.5747786312901546
9389,3.1819108883681144
9483,3.168735246203976
9577,3.8370737706955795
9673,4.271512944862007
9770,3.4373505617180333
9868,1.9686230287740853
9966,1.27499178006443
10066,0.7611122096509968
10167,-0.032427723085773685
10268,-0.6759693682876051
10371,-1.4636924915487963
10475,-2.727720797616298
10579,-3.247928184626508
10685,-3.617537549609903
10792,-4.929270781780809
10900,-5.310559959451455
11009,-5.467490968566436
11119,-5.69122230046462
11230,-5.90243416305648
11343,-6.6425929950804665
11456,-6.928013165746135
11571,-9.508569014781925
11686,-11.058337323763189
11803,-13.301277654072239
11921,-14.49880553156131
12040,-13.487149316717629
12161,-13.087652118776706
12282,-13.757720523917095
12405,-15.110324794398428
12529,-15.412145099839512
12655,-13.982633723239232
12781,-12.045934086399143
12909,-11.524583816340702
13038,-11.374277607392708
13168,-11.560724952207995
13300,-11.680904321407912
13433,-11.640474597680594
13567,-12.52499543085635
13703,-11.845396460678558
13840,-11.56538940139384
13978,-10.121898138961924
14118,-9.980585876680202
14259,-9.434624896922879
14402,-10.623221660347749
14546,-12.438140250181826
14692,-14.2390677971668
14838,-16.04610899169119
14987,-18.36712217336246
15137,-19.154827947925234
15288,-18.047126837292318
15441,-12.707623441315398
15595,-13.525480118538116
15751,-13.596009620963905
15909,-13.209804083914564
16068,-13.421602992619633
16229,-13.333232722296044
16391,-13.389002727271965
16555,-12.177013670620104
16720,-11.447726337903074
16888,-11.092368809070866
17056,-10.36985395668217
17227,-9.610730107003658
17399,-9.12704980972238
17573,-8.17423622892643
17749,-7.272535925276819
17926,-6.690395670321281
18106,-6.505706273800044
18287,-7.001086592160593
18470,-8.408118135373586
18654,-9.090429321332735
18841,-9.616774416028425
19029,-8.529368474856698
19220,-9.263776879472308
19412,-9.800235372274829
19606,-9.537604447418788
19802,-11.13441787107642
20000,-11.343352770939024
