frequency,raw,error,smoothed,error_smoothed,equalization,parametric_eq,equalized_raw,equalized_smoothed,target
20,-30.32,-28.94,-30.33,-28.92,6.00,2.66,-24.32,-24.33,-1.38
21,-29.63,-28.25,-29.59,-28.18,6.00,3.04,-23.63,-23.59,-1.38
22,-28.93,-27.55,-28.87,-27.47,6.00,3.47,-22.93,-22.87,-1.38
23,-28.22,-26.83,-28.17,-26.77,6.00,3.92,-22.22,-22.17,-1.39
24,-27.35,-25.96,-27.49,-26.10,6.00,4.40,-21.35,-21.49,-1.39
25,-26.70,-25.31,-26.83,-25.44,6.00,4.90,-20.70,-20.83,-1.39
26,-26.13,-24.73,-26.19,-24.81,6.00,5.40,-20.13,-20.19,-1.40
27,-25.59,-24.19,-25.58,-24.19,6.00,5.88,-19.59,-19.58,-1.40
28,-25.09,-23.69,-24.99,-23.60,6.00,6.31,-19.09,-18.99,-1.40
29,-24.62,-23.22,-24.42,-23.02,6.00,6.67,-18.62,-18.42,-1.41
30,-23.73,-22.32,-23.87,-22.47,6.00,6.94,-17.73,-17.87,-1.41
31,-23.32,-21.91,-23.36,-21.94,6.00,7.10,-17.32,-17.36,-1.41
32,-22.79,-21.38,-22.87,-21.44,6.00,7.16,-16.79,-16.87,-1.41
33,-22.36,-20.95,-22.39,-20.95,6.00,7.12,-16.36,-16.39,-1.41
34,-21.88,-20.47,-21.94,-20.48,6.00,7.02,-15.88,-15.94,-1.42
35,-21.49,-20.07,-21.48,-20.02,6.00,6.88,-15.49,-15.48,-1.42
36,-20.98,-19.56,-21.03,-19.58,6.00,6.71,-14.98,-15.03,-1.42
37,-20.71,-19.28,-20.60,-19.14,6.00,6.54,-14.71,-14.60,-1.43
38,-20.24,-18.81,-20.17,-18.72,6.00,6.37,-14.24,-14.17,-1.44
39,-19.83,-18.39,-19.77,-18.30,6.00,6.22,-13.83,-13.77,-1.44
40,-19.57,-18.12,-19.40,-17.89,6.00,6.09,-13.57,-13.40,-1.46
41,-18.92,-17.45,-18.99,-17.50,6.00,5.99,-12.92,-12.99,-1.47
42,-18.52,-17.04,-18.61,-17.11,6.00,5.91,-12.52,-12.61,-1.48
43,-18.24,-16.74,-18.25,-16.73,6.00,5.86,-12.24,-12.25,-1.50
44,-17.78,-16.26,-17.89,-16.36,6.00,5.84,-11.78,-11.89,-1.52
45,-17.55,-16.01,-17.55,-16.01,6.00,5.83,-11.55,-11.55,-1.54
46,-17.26,-15.70,-17.22,-15.67,6.00,5.86,-11.26,-11.22,-1.56
47,-16.87,-15.29,-16.91,-15.34,6.00,5.90,-10.87,-10.91,-1.58
48,-16.60,-15.00,-16.62,-15.01,6.00,5.95,-10.60,-10.62,-1.60
49,-16.28,-14.66,-16.34,-14.70,6.00,6.03,-10.28,-10.34,-1.63
50,-15.96,-14.31,-16.06,-14.40,6.00,6.12,-9.96,-10.06,-1.65
51,-15.91,-14.24,-15.80,-14.11,6.00,6.21,-9.91,-9.80,-1.67
52,-15.63,-13.94,-15.54,-13.81,6.00,6.31,-9.63,-9.54,-1.69
53,-15.27,-13.56,-15.27,-13.53,6.00,6.42,-9.27,-9.27,-1.72
54,-15.04,-13.30,-15.01,-13.24,6.00,6.53,-9.04,-9.01,-1.74
55,-14.82,-13.06,-14.73,-12.96,6.00,6.63,-8.82,-8.73,-1.76
56,-14.59,-12.80,-14.47,-12.67,6.00,6.72,-8.59,-8.47,-1.79
57,-14.13,-12.32,-14.22,-12.39,6.00,6.81,-8.13,-8.22,-1.81
58,-13.91,-12.07,-13.98,-12.10,6.00,6.88,-7.91,-7.98,-1.84
59,-13.68,-11.81,-13.73,-11.82,6.00,6.93,-7.68,-7.73,-1.87
60,-13.46,-11.57,-13.48,-11.55,6.00,6.97,-7.46,-7.48,-1.90
61,-13.22,-11.30,-13.22,-11.28,6.00,6.99,-7.22,-7.22,-1.93
62,-12.99,-11.04,-13.00,-11.02,6.00,6.98,-6.99,-7.00,-1.96
63,-12.77,-10.78,-12.77,-10.76,6.00,6.96,-6.77,-6.77,-1.99
64,-12.54,-10.52,-12.55,-10.51,6.00,6.92,-6.54,-6.55,-2.02
65,-12.49,-10.44,-12.35,-10.28,6.00,6.87,-6.49,-6.35,-2.05
66,-12.31,-10.23,-12.16,-10.06,6.00,6.80,-6.31,-6.16,-2.08
67,-12.08,-9.98,-12.00,-9.87,6.00,6.71,-6.08,-6.00,-2.10
68,-11.76,-9.63,-11.86,-9.71,6.00,6.62,-5.76,-5.86,-2.13
69,-11.63,-9.47,-11.74,-9.59,6.00,6.51,-5.63,-5.74,-2.16
70,-11.63,-9.45,-11.67,-9.50,6.00,6.40,-5.63,-5.67,-2.18
71,-11.63,-9.42,-11.65,-9.46,6.00,6.29,-5.63,-5.65,-2.21
72,-11.41,-9.18,-11.66,-9.45,6.00,6.17,-5.41,-5.66,-2.23
73,-11.63,-9.37,-11.73,-9.48,6.00,6.05,-5.63,-5.73,-2.26
74,-11.63,-9.35,-11.84,-9.53,6.00,5.94,-5.63,-5.84,-2.29
75,-11.80,-9.49,-11.96,-9.60,6.00,5.82,-5.80,-5.96,-2.31
76,-11.92,-9.59,-12.11,-9.69,6.00,5.71,-5.92,-6.11,-2.33
77,-12.26,-9.90,-12.24,-9.78,6.00,5.60,-6.26,-6.24,-2.36
78,-12.37,-9.99,-12.36,-9.84,6.00,5.50,-6.37,-6.36,-2.38
79,-12.71,-10.31,-12.44,-9.88,6.00,5.40,-6.71,-6.44,-2.41
80,-12.77,-10.34,-12.46,-9.89,6.00,5.30,-6.77,-6.46,-2.43
81,-12.77,-10.32,-12.44,-9.85,6.00,5.22,-6.77,-6.44,-2.45
82,-12.75,-10.28,-12.38,-9.76,6.00,5.13,-6.75,-6.38,-2.48
83,-12.43,-9.93,-12.26,-9.63,6.00,5.06,-6.43,-6.26,-2.50
84,-12.12,-9.60,-12.11,-9.46,6.00,4.99,-6.12,-6.11,-2.52
85,-11.81,-9.27,-11.90,-9.25,6.00,4.92,-5.81,-5.90,-2.54
86,-11.50,-8.94,-11.67,-9.01,6.00,4.86,-5.50,-5.67,-2.57
87,-11.30,-8.71,-11.41,-8.76,6.00,4.81,-5.30,-5.41,-2.59
88,-10.89,-8.28,-11.14,-8.50,6.00,4.76,-4.89,-5.14,-2.61
89,-10.71,-8.08,-10.87,-8.24,6.00,4.72,-4.71,-4.87,-2.63
90,-10.53,-7.88,-10.63,-8.00,6.00,4.68,-4.53,-4.63,-2.65
91,-10.47,-7.80,-10.41,-7.76,6.00,4.65,-4.47,-4.41,-2.68
92,-10.26,-7.56,-10.21,-7.53,6.00,4.62,-4.26,-4.21,-2.70
93,-10.12,-7.40,-10.04,-7.33,6.00,4.59,-4.12,-4.04,-2.72
94,-9.84,-7.10,-9.89,-7.14,6.00,4.57,-3.84,-3.89,-2.74
95,-9.79,-7.03,-9.75,-6.98,6.00,4.56,-3.79,-3.75,-2.76
96,-9.57,-6.79,-9.62,-6.83,6.00,4.54,-3.57,-3.62,-2.78
97,-9.47,-6.67,-9.50,-6.69,6.00,4.54,-3.47,-3.50,-2.80
98,-9.35,-6.54,-9.38,-6.55,6.00,4.53,-3.35,-3.38,-2.81
99,-9.35,-6.53,-9.26,-6.42,6.00,4.53,-3.35,-3.26,-2.83
100,-9.12,-6.28,-9.14,-6.30,6.00,4.53,-3.12,-3.14,-2.84
101,-9.09,-6.24,-9.04,-6.18,5.99,4.53,-3.10,-3.05,-2.85
102,-8.89,-6.03,-8.95,-6.07,5.97,4.53,-2.93,-2.98,-2.86
104,-8.89,-5.99,-8.85,-5.97,5.89,4.55,-3.00,-2.97,-2.90
105,-8.75,-5.84,-8.77,-5.87,5.83,4.55,-2.92,-2.94,-2.91
106,-8.66,-5.75,-8.69,-5.78,5.77,4.56,-2.90,-2.92,-2.91
107,-8.66,-5.74,-8.62,-5.69,5.69,4.57,-2.97,-2.93,-2.92
108,-8.47,-5.54,-8.54,-5.61,5.61,4.58,-2.86,-2.93,-2.93
109,-8.44,-5.51,-8.47,-5.53,5.53,4.59,-2.91,-2.93,-2.94
110,-8.44,-5.50,-8.39,-5.46,5.46,4.60,-2.98,-2.94,-2.94
111,-8.43,-5.48,-8.35,-5.39,5.39,4.61,-3.05,-2.96,-2.95
112,-8.21,-5.25,-8.30,-5.32,5.32,4.62,-2.90,-2.98,-2.97
113,-8.21,-5.23,-8.25,-5.25,5.25,4.63,-2.97,-3.01,-2.98
114,-8.21,-5.22,-8.19,-5.17,5.17,4.63,-3.04,-3.02,-2.99
115,-8.21,-5.20,-8.14,-5.10,5.10,4.64,-3.11,-3.04,-3.01
117,-7.98,-4.93,-8.08,-5.02,5.02,4.64,-2.96,-3.07,-3.05
118,-7.98,-4.91,-8.02,-4.93,4.93,4.64,-3.05,-3.09,-3.07
119,-7.98,-4.89,-7.95,-4.84,4.84,4.63,-3.14,-3.11,-3.09
120,-7.98,-4.87,-7.89,-4.75,4.75,4.63,-3.23,-3.14,-3.12
121,-7.98,-4.85,-7.81,-4.65,4.65,4.62,-3.33,-3.16,-3.14
123,-7.75,-4.57,-7.74,-4.56,4.56,4.59,-3.20,-3.18,-3.18
124,-7.56,-4.36,-7.67,-4.45,4.45,4.58,-3.11,-3.21,-3.20
125,-7.52,-4.30,-7.59,-4.36,4.36,4.56,-3.17,-3.24,-3.22
126,-7.52,-4.28,-7.51,-4.26,4.26,4.54,-3.26,-3.25,-3.24
128,-7.41,-4.13,-7.43,-4.16,4.16,4.49,-3.25,-3.27,-3.28
129,-7.30,-4.01,-7.36,-4.06,4.06,4.46,-3.24,-3.30,-3.29
130,-7.30,-3.99,-7.28,-3.97,3.97,4.43,-3.33,-3.31,-3.31
131,-7.26,-3.94,-7.21,-3.88,3.88,4.40,-3.38,-3.33,-3.32
133,-7.07,-3.71,-7.14,-3.79,3.79,4.33,-3.28,-3.35,-3.36
134,-7.07,-3.70,-7.08,-3.71,3.71,4.30,-3.36,-3.37,-3.37
135,-7.07,-3.69,-7.03,-3.63,3.63,4.26,-3.45,-3.40,-3.39
137,-6.99,-3.58,-6.97,-3.54,3.54,4.18,-3.45,-3.43,-3.42
138,-6.84,-3.41,-6.90,-3.46,3.46,4.14,-3.38,-3.45,-3.43
140,-6.84,-3.38,-6.83,-3.37,3.37,4.05,-3.47,-3.46,-3.46
141,-6.84,-3.37,-6.77,-3.28,3.28,4.01,-3.56,-3.48,-3.47
142,-6.73,-3.24,-6.70,-3.19,3.19,3.97,-3.54,-3.51,-3.49
144,-6.61,-3.10,-6.63,-3.09,3.09,3.88,-3.52,-3.54,-3.52
145,-6.61,-3.08,-6.55,-2.99,2.99,3.83,-3.62,-3.56,-3.53
147,-6.38,-2.82,-6.46,-2.89,2.89,3.74,-3.49,-3.57,-3.56
148,-6.38,-2.81,-6.38,-2.80,2.80,3.70,-3.58,-3.58,-3.57
150,-6.38,-2.79,-6.30,-2.71,2.71,3.61,-3.67,-3.59,-3.60
151,-6.25,-2.65,-6.23,-2.63,2.63,3.57,-3.62,-3.60,-3.61
153,-6.16,-2.53,-6.18,-2.57,2.57,3.49,-3.60,-3.62,-3.63
154,-6.16,-2.53,-6.14,-2.51,2.51,3.45,-3.65,-3.63,-3.64
156,-6.08,-2.43,-6.12,-2.46,2.46,3.37,-3.62,-3.66,-3.65
157,-5.93,-2.27,-6.11,-2.42,2.42,3.33,-3.51,-3.69,-3.66
159,-5.93,-2.26,-6.10,-2.40,2.40,3.25,-3.53,-3.70,-3.68
160,-5.99,-2.31,-6.10,-2.38,2.38,3.22,-3.61,-3.72,-3.68
162,-6.16,-2.47,-6.11,-2.36,2.36,3.15,-3.80,-3.75,-3.70
164,-6.16,-2.45,-6.10,-2.34,2.34,3.08,-3.82,-3.75,-3.71
165,-6.16,-2.45,-6.08,-2.33,2.33,3.05,-3.84,-3.76,-3.72
167,-6.33,-2.60,-6.08,-2.31,2.31,2.99,-4.03,-3.77,-3.73
169,-6.16,-2.42,-6.07,-2.28,2.28,2.93,-3.89,-3.79,-3.75
170,-6.09,-2.34,-6.04,-2.24,2.24,2.91,-3.85,-3.80,-3.75
172,-5.93,-2.16,-6.02,-2.20,2.20,2.86,-3.73,-3.83,-3.77
174,-5.93,-2.15,-5.98,-2.14,2.14,2.81,-3.79,-3.84,-3.79
175,-5.93,-2.14,-5.92,-2.08,2.08,2.78,-3.86,-3.84,-3.79
177,-5.72,-1.91,-5.84,-2.00,2.00,2.74,-3.72,-3.84,-3.81
179,-5.70,-1.88,-5.76,-1.92,1.92,2.70,-3.78,-3.84,-3.82
181,-5.70,-1.87,-5.68,-1.84,1.84,2.66,-3.86,-3.84,-3.84
183,-5.70,-1.85,-5.60,-1.77,1.77,2.63,-3.94,-3.83,-3.85
184,-5.61,-1.76,-5.52,-1.69,1.69,2.61,-3.92,-3.83,-3.85
186,-5.47,-1.62,-5.47,-1.62,1.62,2.59,-3.85,-3.85,-3.85
188,-5.47,-1.61,-5.43,-1.56,1.56,2.56,-3.91,-3.87,-3.86
190,-5.24,-1.38,-5.39,-1.51,1.51,2.53,-3.74,-3.88,-3.86
192,-5.24,-1.38,-5.35,-1.46,1.46,2.51,-3.78,-3.88,-3.86
194,-5.24,-1.38,-5.31,-1.42,1.42,2.49,-3.82,-3.88,-3.86
196,-5.24,-1.38,-5.27,-1.38,1.38,2.47,-3.86,-3.89,-3.86
198,-5.24,-1.38,-5.23,-1.35,1.35,2.45,-3.89,-3.89,-3.86
200,-5.24,-1.38,-5.20,-1.32,1.32,2.44,-3.92,-3.88,-3.86
202,-5.24,-1.38,-5.17,-1.29,1.29,2.42,-3.95,-3.88,-3.86
204,-5.24,-1.38,-5.15,-1.27,1.27,2.41,-3.97,-3.88,-3.86
206,-5.24,-1.38,-5.13,-1.24,1.24,2.40,-4.00,-3.89,-3.86
208,-5.11,-1.24,-5.12,-1.22,1.22,2.39,-3.89,-3.90,-3.87
210,-5.02,-1.15,-5.11,-1.20,1.20,2.37,-3.83,-3.91,-3.87
212,-5.02,-1.15,-5.08,-1.17,1.17,2.36,-3.85,-3.91,-3.88
214,-5.02,-1.14,-5.05,-1.15,1.15,2.35,-3.87,-3.90,-3.88
216,-5.02,-1.14,-5.03,-1.13,1.13,2.34,-3.90,-3.90,-3.89
218,-5.02,-1.13,-5.01,-1.10,1.10,2.33,-3.92,-3.91,-3.89
221,-5.02,-1.12,-4.99,-1.09,1.09,2.31,-3.93,-3.90,-3.90
223,-5.02,-1.12,-4.98,-1.08,1.08,2.30,-3.94,-3.90,-3.90
225,-5.02,-1.13,-4.97,-1.08,1.08,2.28,-3.94,-3.89,-3.90
227,-5.02,-1.13,-4.98,-1.09,1.09,2.27,-3.93,-3.89,-3.89
229,-5.02,-1.13,-5.02,-1.13,1.13,2.25,-3.90,-3.90,-3.89
232,-5.02,-1.13,-5.07,-1.18,1.18,2.22,-3.85,-3.90,-3.89
234,-5.06,-1.18,-5.13,-1.25,1.25,2.20,-3.81,-3.88,-3.88
236,-5.24,-1.36,-5.22,-1.34,1.34,2.18,-3.90,-3.88,-3.88
239,-5.24,-1.36,-5.32,-1.45,1.45,2.14,-3.80,-3.88,-3.88
241,-5.24,-1.37,-5.45,-1.57,1.57,2.12,-3.67,-3.88,-3.87
244,-5.48,-1.61,-5.59,-1.71,1.71,2.07,-3.77,-3.88,-3.87
246,-5.69,-1.82,-5.74,-1.85,1.85,2.04,-3.84,-3.88,-3.87
248,-5.90,-2.04,-5.89,-2.00,2.00,2.01,-3.90,-3.89,-3.86
251,-6.16,-2.30,-6.06,-2.15,2.15,1.95,-4.01,-3.91,-3.86
253,-6.20,-2.34,-6.21,-2.29,2.29,1.91,-3.91,-3.92,-3.86
256,-6.38,-2.52,-6.33,-2.41,2.41,1.85,-3.97,-3.92,-3.86
259,-6.59,-2.73,-6.43,-2.52,2.52,1.79,-4.07,-3.91,-3.86
261,-6.61,-2.76,-6.51,-2.60,2.60,1.74,-4.02,-3.91,-3.86
264,-6.61,-2.75,-6.56,-2.64,2.64,1.67,-3.97,-3.92,-3.86
266,-6.61,-2.76,-6.59,-2.66,2.66,1.62,-3.95,-3.92,-3.86
269,-6.61,-2.76,-6.56,-2.66,2.66,1.54,-3.96,-3.91,-3.85
272,-6.61,-2.76,-6.51,-2.62,2.62,1.46,-3.99,-3.89,-3.85
274,-6.52,-2.68,-6.44,-2.57,2.57,1.40,-3.95,-3.86,-3.85
277,-6.23,-2.39,-6.36,-2.51,2.51,1.32,-3.73,-3.86,-3.84
280,-6.16,-2.33,-6.27,-2.43,2.43,1.23,-3.73,-3.84,-3.84
283,-6.16,-2.33,-6.17,-2.35,2.35,1.14,-3.81,-3.82,-3.83
286,-6.07,-2.25,-6.08,-2.27,2.27,1.05,-3.80,-3.81,-3.82
288,-5.93,-2.12,-6.00,-2.19,2.19,0.99,-3.74,-3.81,-3.81
291,-5.85,-2.06,-5.91,-2.11,2.11,0.90,-3.74,-3.80,-3.80
294,-5.70,-1.92,-5.82,-2.03,2.03,0.80,-3.67,-3.78,-3.78
297,-5.70,-1.94,-5.72,-1.97,1.97,0.71,-3.74,-3.76,-3.77
300,-5.70,-1.95,-5.65,-1.91,1.91,0.61,-3.80,-3.74,-3.75
303,-5.69,-1.96,-5.58,-1.85,1.85,0.52,-3.84,-3.73,-3.73
306,-5.47,-1.76,-5.52,-1.80,1.80,0.42,-3.68,-3.73,-3.72
309,-5.47,-1.77,-5.46,-1.74,1.74,0.33,-3.73,-3.71,-3.70
312,-5.47,-1.79,-5.38,-1.69,1.69,0.23,-3.78,-3.69,-3.68
316,-5.27,-1.61,-5.30,-1.62,1.62,0.10,-3.65,-3.68,-3.66
319,-5.02,-1.38,-5.21,-1.55,1.55,0.00,-3.47,-3.66,-3.64
322,-5.02,-1.40,-5.12,-1.46,1.46,-0.09,-3.56,-3.66,-3.62
325,-5.02,-1.42,-5.00,-1.36,1.36,-0.19,-3.66,-3.64,-3.61
328,-4.97,-1.39,-4.86,-1.24,1.24,-0.29,-3.73,-3.62,-3.59
332,-4.79,-1.22,-4.70,-1.11,1.11,-0.41,-3.68,-3.59,-3.57
335,-4.65,-1.10,-4.53,-0.96,0.96,-0.51,-3.70,-3.58,-3.55
338,-4.41,-0.88,-4.35,-0.78,0.78,-0.61,-3.63,-3.56,-3.53
342,-4.10,-0.59,-4.13,-0.59,0.59,-0.73,-3.51,-3.53,-3.51
345,-3.88,-0.39,-3.91,-0.39,0.39,-0.83,-3.49,-3.52,-3.49
349,-3.75,-0.28,-3.67,-0.17,0.17,-0.96,-3.58,-3.50,-3.47
352,-3.46,-0.01,-3.42,0.06,-0.06,-1.05,-3.52,-3.48,-3.45
356,-3.08,0.35,-3.13,0.30,-0.30,-1.18,-3.38,-3.43,-3.43
359,-2.82,0.59,-2.86,0.55,-0.55,-1.27,-3.37,-3.41,-3.41
363,-2.53,0.87,-2.60,0.80,-0.80,-1.40,-3.33,-3.39,-3.40
366,-2.32,1.06,-2.35,1.04,-1.04,-1.49,-3.36,-3.39,-3.38
370,-2.03,1.34,-2.10,1.28,-1.28,-1.62,-3.32,-3.38,-3.37
374,-1.79,1.56,-1.85,1.53,-1.53,-1.74,-3.32,-3.37,-3.35
377,-1.62,1.72,-1.60,1.77,-1.77,-1.84,-3.39,-3.36,-3.34
381,-1.26,2.06,-1.35,2.00,-2.00,-1.96,-3.26,-3.35,-3.32
385,-1.14,2.17,-1.10,2.23,-2.23,-2.08,-3.37,-3.33,-3.31
389,-0.94,2.36,-0.87,2.45,-2.45,-2.21,-3.39,-3.31,-3.30
393,-0.89,2.40,-0.65,2.66,-2.66,-2.33,-3.55,-3.31,-3.29
397,-0.52,2.76,-0.44,2.86,-2.86,-2.45,-3.39,-3.31,-3.28
401,-0.21,3.06,-0.25,3.06,-3.06,-2.57,-3.27,-3.30,-3.27
405,0.12,3.38,-0.06,3.24,-3.24,-2.69,-3.12,-3.29,-3.26
409,0.23,3.48,0.13,3.41,-3.41,-2.80,-3.18,-3.29,-3.25
413,0.41,3.65,0.30,3.58,-3.58,-2.92,-3.17,-3.28,-3.24
417,0.45,3.69,0.46,3.72,-3.72,-3.03,-3.28,-3.26,-3.24
421,0.68,3.91,0.61,3.85,-3.85,-3.14,-3.18,-3.24,-3.23
425,0.68,3.91,0.75,3.96,-3.96,-3.25,-3.29,-3.21,-3.23
430,0.68,3.90,0.85,4.06,-4.06,-3.38,-3.38,-3.21,-3.22
434,0.80,4.01,0.92,4.13,-4.13,-3.48,-3.33,-3.21,-3.22
438,1.05,4.26,0.96,4.19,-4.19,-3.58,-3.14,-3.23,-3.21
443,1.14,4.34,0.99,4.22,-4.22,-3.69,-3.09,-3.23,-3.20
447,1.14,4.33,1.02,4.25,-4.25,-3.78,-3.11,-3.22,-3.19
451,1.14,4.32,1.05,4.26,-4.26,-3.86,-3.12,-3.20,-3.18
456,1.14,4.31,1.06,4.26,-4.26,-3.96,-3.12,-3.20,-3.17
460,1.08,4.24,1.07,4.26,-4.26,-4.04,-3.18,-3.19,-3.16
465,0.91,4.06,1.08,4.25,-4.25,-4.12,-3.34,-3.17,-3.15
470,0.91,4.05,1.09,4.24,-4.24,-4.20,-3.33,-3.15,-3.14
474,1.07,4.19,1.10,4.24,-4.24,-4.25,-3.17,-3.14,-3.13
479,1.14,4.25,1.10,4.24,-4.24,-4.31,-3.10,-3.14,-3.11
484,1.14,4.24,1.10,4.24,-4.24,-4.36,-3.10,-3.14,-3.10
489,1.14,4.22,1.12,4.25,-4.25,-4.41,-3.11,-3.13,-3.08
494,1.14,4.21,1.16,4.27,-4.27,-4.44,-3.14,-3.11,-3.07
499,1.14,4.19,1.22,4.31,-4.31,-4.46,-3.17,-3.09,-3.05
504,1.32,4.36,1.28,4.35,-4.35,-4.48,-3.03,-3.07,-3.04
509,1.37,4.39,1.36,4.40,-4.40,-4.49,-3.03,-3.04,-3.02
514,1.37,4.37,1.44,4.45,-4.45,-4.49,-3.08,-3.01,-3.01
519,1.41,4.40,1.51,4.50,-4.50,-4.48,-3.09,-2.99,-2.99
524,1.59,4.56,1.57,4.55,-4.55,-4.46,-2.96,-2.98,-2.97
529,1.59,4.54,1.62,4.59,-4.59,-4.44,-3.01,-2.97,-2.95
535,1.75,4.68,1.69,4.63,-4.63,-4.40,-2.88,-2.94,-2.93
540,1.82,4.73,1.73,4.65,-4.65,-4.37,-2.83,-2.92,-2.91
545,1.82,4.71,1.77,4.66,-4.66,-4.33,-2.84,-2.89,-2.89
551,1.82,4.69,1.79,4.65,-4.65,-4.28,-2.83,-2.86,-2.87
556,1.82,4.66,1.79,4.62,-4.62,-4.23,-2.80,-2.83,-2.84
562,1.82,4.64,1.77,4.57,-4.57,-4.17,-2.75,-2.81,-2.82
568,1.68,4.47,1.73,4.50,-4.50,-4.10,-2.82,-2.77,-2.79
573,1.59,4.35,1.66,4.41,-4.41,-4.04,-2.82,-2.75,-2.76
579,1.59,4.32,1.57,4.30,-4.30,-3.97,-2.71,-2.73,-2.73
585,1.59,4.29,1.48,4.17,-4.17,-3.90,-2.58,-2.69,-2.71
591,1.37,4.05,1.35,4.03,-4.03,-3.83,-2.66,-2.67,-2.68
596,1.33,3.98,1.22,3.87,-3.87,-3.76,-2.54,-2.65,-2.65
602,1.06,3.68,1.08,3.70,-3.70,-3.69,-2.64,-2.62,-2.62
608,0.91,3.51,0.94,3.53,-3.53,-3.61,-2.63,-2.59,-2.60
615,0.73,3.30,0.78,3.36,-3.36,-3.53,-2.64,-2.59,-2.57
621,0.68,3.23,0.62,3.20,-3.20,-3.45,-2.52,-2.57,-2.55
627,0.45,2.98,0.48,3.04,-3.04,-3.38,-2.59,-2.56,-2.53
633,0.42,2.92,0.35,2.89,-2.89,-3.31,-2.47,-2.54,-2.51
639,0.18,2.67,0.22,2.75,-2.75,-3.24,-2.57,-2.53,-2.49
646,-0.00,2.47,0.12,2.63,-2.63,-3.16,-2.64,-2.51,-2.47
652,-0.00,2.45,0.05,2.54,-2.54,-3.10,-2.54,-2.49,-2.46
659,-0.00,2.44,-0.02,2.45,-2.45,-3.02,-2.46,-2.48,-2.44
665,-0.19,2.24,-0.06,2.39,-2.39,-2.96,-2.58,-2.45,-2.43
672,-0.22,2.19,-0.08,2.35,-2.35,-2.89,-2.57,-2.43,-2.41
679,-0.00,2.40,-0.10,2.32,-2.32,-2.82,-2.32,-2.42,-2.40
686,-0.00,2.38,-0.10,2.31,-2.31,-2.76,-2.31,-2.41,-2.39
692,-0.00,2.37,-0.08,2.31,-2.31,-2.70,-2.31,-2.39,-2.37
699,-0.00,2.36,-0.05,2.32,-2.32,-2.64,-2.32,-2.37,-2.36
706,-0.00,2.34,-0.00,2.34,-2.34,-2.59,-2.34,-2.34,-2.34
713,-0.00,2.32,0.05,2.37,-2.37,-2.53,-2.37,-2.32,-2.33
721,0.04,2.35,0.10,2.41,-2.41,-2.47,-2.37,-2.31,-2.31
728,0.23,2.52,0.16,2.45,-2.45,-2.42,-2.22,-2.29,-2.29
735,0.23,2.50,0.25,2.50,-2.50,-2.37,-2.28,-2.26,-2.27
742,0.23,2.47,0.31,2.56,-2.56,-2.33,-2.34,-2.25,-2.24
750,0.39,2.60,0.39,2.63,-2.63,-2.28,-2.24,-2.24,-2.22
757,0.45,2.63,0.49,2.70,-2.70,-2.24,-2.26,-2.22,-2.19
765,0.68,2.83,0.60,2.78,-2.78,-2.19,-2.10,-2.18,-2.16
773,0.68,2.81,0.72,2.86,-2.86,-2.15,-2.18,-2.14,-2.13
780,0.74,2.84,0.83,2.94,-2.94,-2.12,-2.20,-2.10,-2.10
788,0.91,2.98,0.93,3.01,-3.01,-2.08,-2.10,-2.08,-2.08
796,1.05,3.10,1.02,3.08,-3.08,-2.05,-2.03,-2.06,-2.05
804,1.14,3.17,1.10,3.14,-3.14,-2.01,-2.00,-2.04,-2.03
812,1.14,3.16,1.17,3.19,-3.19,-1.98,-2.05,-2.02,-2.02
820,1.37,3.37,1.22,3.23,-3.23,-1.96,-1.86,-2.01,-2.01
828,1.37,3.37,1.25,3.25,-3.25,-1.93,-1.88,-2.00,-2.00
837,1.37,3.36,1.26,3.26,-3.26,-1.90,-1.89,-2.00,-1.99
845,1.25,3.24,1.26,3.24,-3.24,-1.88,-2.00,-1.99,-1.99
853,1.14,3.12,1.24,3.22,-3.22,-1.86,-2.08,-1.98,-1.99
862,1.14,3.12,1.20,3.18,-3.18,-1.84,-2.04,-1.98,-1.99
871,1.14,3.13,1.14,3.13,-3.13,-1.83,-1.99,-1.98,-1.99
879,1.12,3.11,1.07,3.06,-3.06,-1.82,-1.94,-1.99,-1.99
888,0.91,2.90,0.99,2.98,-2.98,-1.80,-2.08,-2.00,-1.99
897,0.91,2.90,0.91,2.90,-2.90,-1.79,-1.99,-1.99,-1.99
906,0.91,2.89,0.81,2.81,-2.81,-1.79,-1.90,-2.00,-1.99
915,0.75,2.73,0.73,2.72,-2.72,-1.78,-1.97,-1.99,-1.98
924,0.68,2.65,0.65,2.62,-2.62,-1.78,-1.94,-1.97,-1.97
933,0.47,2.43,0.57,2.52,-2.52,-1.78,-2.05,-1.95,-1.96
943,0.45,2.40,0.48,2.42,-2.42,-1.78,-1.97,-1.94,-1.95
952,0.39,2.33,0.38,2.32,-2.32,-1.78,-1.93,-1.94,-1.94
962,0.23,2.16,0.29,2.22,-2.22,-1.79,-1.99,-1.93,-1.93
971,0.23,2.15,0.20,2.12,-2.12,-1.80,-1.90,-1.93,-1.92
981,0.23,2.14,0.12,2.03,-2.03,-1.81,-1.80,-1.91,-1.91
991,0.02,1.91,0.04,1.95,-1.95,-1.83,-1.93,-1.91,-1.90
1001,-0.00,1.88,-0.04,1.87,-1.87,-1.84,-1.87,-1.91,-1.88
1011,-0.05,1.82,-0.10,1.80,-1.80,-1.86,-1.85,-1.90,-1.87
1021,-0.23,1.62,-0.14,1.74,-1.74,-1.88,-1.97,-1.88,-1.85
1031,-0.23,1.61,-0.17,1.69,-1.69,-1.91,-1.93,-1.86,-1.84
1041,-0.23,1.59,-0.19,1.66,-1.66,-1.93,-1.89,-1.85,-1.82
1052,-0.23,1.57,-0.20,1.63,-1.63,-1.96,-1.87,-1.84,-1.81
1062,-0.23,1.56,-0.20,1.62,-1.62,-1.99,-1.85,-1.82,-1.79
1073,-0.23,1.55,-0.19,1.61,-1.61,-2.03,-1.84,-1.80,-1.78
1084,-0.23,1.53,-0.17,1.61,-1.61,-2.07,-1.84,-1.78,-1.76
1094,-0.15,1.60,-0.14,1.61,-1.61,-2.10,-1.76,-1.75,-1.75
1105,-0.00,1.73,-0.11,1.61,-1.61,-2.15,-1.61,-1.72,-1.73
1116,-0.00,1.71,-0.08,1.61,-1.61,-2.19,-1.61,-1.69,-1.71
1128,-0.00,1.68,-0.05,1.61,-1.61,-2.24,-1.61,-1.66,-1.68
1139,-0.00,1.66,-0.03,1.60,-1.60,-2.29,-1.61,-1.64,-1.66
1150,-0.00,1.63,-0.03,1.59,-1.59,-2.34,-1.60,-1.62,-1.64
1162,-0.00,1.61,-0.02,1.58,-1.58,-2.40,-1.58,-1.60,-1.61
1173,-0.00,1.58,-0.01,1.56,-1.56,-2.45,-1.56,-1.58,-1.58
1185,-0.00,1.55,-0.01,1.54,-1.54,-2.51,-1.54,-1.55,-1.56
1197,-0.00,1.53,0.00,1.52,-1.52,-2.58,-1.52,-1.52,-1.53
1209,-0.00,1.50,0.01,1.50,-1.50,-2.64,-1.50,-1.49,-1.50
1221,-0.00,1.47,0.02,1.49,-1.49,-2.71,-1.49,-1.47,-1.47
1233,-0.00,1.44,0.03,1.50,-1.50,-2.78,-1.50,-1.46,-1.44
1246,-0.00,1.42,0.05,1.52,-1.52,-2.85,-1.52,-1.47,-1.42
1258,0.10,1.50,0.07,1.56,-1.56,-2.93,-1.46,-1.48,-1.40
1271,0.23,1.62,0.12,1.62,-1.62,-3.01,-1.39,-1.50,-1.39
1283,0.23,1.62,0.20,1.71,-1.71,-3.08,-1.48,-1.51,-1.39
1296,0.43,1.83,0.30,1.82,-1.82,-3.17,-1.40,-1.52,-1.40
1309,0.45,1.86,0.44,1.96,-1.96,-3.25,-1.52,-1.52,-1.41
1322,0.45,1.87,0.61,2.13,-2.13,-3.34,-1.68,-1.52,-1.43
1335,0.53,1.98,0.81,2.32,-2.32,-3.43,-1.79,-1.51,-1.45
1349,0.74,2.21,1.01,2.52,-2.52,-3.53,-1.79,-1.51,-1.47
1362,1.09,2.58,1.22,2.75,-2.75,-3.62,-1.66,-1.53,-1.50
1376,1.44,2.96,1.43,2.98,-2.98,-3.72,-1.54,-1.55,-1.52
1390,1.82,3.37,1.65,3.21,-3.21,-3.83,-1.39,-1.56,-1.55
1404,2.08,3.65,1.87,3.44,-3.44,-3.94,-1.36,-1.57,-1.57
1418,2.35,3.94,2.09,3.67,-3.67,-4.05,-1.32,-1.58,-1.59
1432,2.51,4.11,2.30,3.88,-3.88,-4.16,-1.38,-1.58,-1.60
1446,2.63,4.24,2.53,4.09,-4.09,-4.27,-1.46,-1.56,-1.61
1461,2.73,4.34,2.74,4.29,-4.29,-4.39,-1.56,-1.55,-1.61
1475,2.73,4.34,2.93,4.48,-4.48,-4.51,-1.76,-1.55,-1.61
1490,2.97,4.57,3.10,4.68,-4.68,-4.64,-1.71,-1.58,-1.60
1505,3.23,4.83,3.26,4.88,-4.88,-4.76,-1.65,-1.62,-1.60
