frequency,raw,error,smoothed,error_smoothed,equalization,parametric_eq,equalized_raw,equalized_smoothed,target
20,-12.32,-11.01,-12.23,-10.88,6.00,2.17,-6.32,-6.23,-1.31
21,-11.61,-10.30,-11.56,-10.22,6.00,2.50,-5.61,-5.56,-1.31
22,-10.92,-9.61,-10.92,-9.58,6.00,2.86,-4.92,-4.92,-1.31
23,-10.26,-8.95,-10.30,-8.97,6.00,3.25,-4.26,-4.30,-1.31
24,-9.62,-8.31,-9.71,-8.38,6.00,3.66,-3.62,-3.71,-1.31
25,-9.16,-7.85,-9.14,-7.82,6.00,4.08,-3.16,-3.14,-1.31
26,-8.55,-7.24,-8.60,-7.28,6.00,4.50,-2.55,-2.60,-1.31
27,-7.96,-6.65,-8.08,-6.77,5.92,4.90,-2.04,-2.16,-1.31
28,-7.55,-6.24,-7.59,-6.28,5.76,5.24,-1.79,-1.83,-1.31
29,-7.14,-5.83,-7.12,-5.81,5.52,5.50,-1.62,-1.60,-1.31
30,-6.74,-5.43,-6.67,-5.37,5.23,5.65,-1.51,-1.44,-1.31
31,-6.24,-4.93,-6.27,-4.96,4.92,5.70,-1.32,-1.35,-1.31
32,-5.88,-4.57,-5.89,-4.57,4.57,5.63,-1.31,-1.32,-1.31
33,-5.53,-4.22,-5.53,-4.21,4.21,5.47,-1.32,-1.31,-1.31
34,-5.20,-3.89,-5.19,-3.87,3.87,5.23,-1.33,-1.31,-1.31
35,-4.87,-3.56,-4.86,-3.55,3.55,4.93,-1.32,-1.31,-1.31
36,-4.55,-3.24,-4.56,-3.25,3.25,4.60,-1.30,-1.32,-1.31
37,-4.27,-2.96,-4.28,-2.96,2.96,4.26,-1.31,-1.32,-1.31
38,-3.99,-2.68,-4.00,-2.68,2.68,3.91,-1.31,-1.31,-1.31
39,-3.73,-2.42,-3.74,-2.43,2.43,3.56,-1.30,-1.31,-1.31
40,-3.52,-2.21,-3.49,-2.18,2.18,3.23,-1.34,-1.31,-1.31
41,-3.25,-1.94,-3.26,-1.95,1.95,2.91,-1.30,-1.31,-1.31
42,-3.03,-1.72,-3.04,-1.73,1.73,2.61,-1.30,-1.31,-1.31
43,-2.87,-1.56,-2.84,-1.51,1.51,2.32,-1.36,-1.32,-1.31
44,-2.61,-1.30,-2.63,-1.31,1.31,2.05,-1.30,-1.32,-1.31
45,-2.44,-1.13,-2.43,-1.11,1.11,1.79,-1.33,-1.32,-1.31
46,-2.27,-0.96,-2.24,-0.92,0.92,1.54,-1.35,-1.32,-1.31
47,-2.03,-0.72,-2.07,-0.74,0.74,1.31,-1.29,-1.32,-1.31
48,-1.95,-0.64,-1.89,-0.57,0.57,1.09,-1.38,-1.33,-1.31
49,-1.72,-0.41,-1.72,-0.40,0.40,0.88,-1.32,-1.32,-1.31
50,-1.62,-0.31,-1.56,-0.24,0.24,0.68,-1.38,-1.32,-1.31
51,-1.43,-0.12,-1.41,-0.09,0.09,0.49,-1.34,-1.32,-1.31
52,-1.30,0.01,-1.26,0.05,-0.05,0.31,-1.35,-1.32,-1.31
53,-1.02,0.29,-1.13,0.18,-0.18,0.14,-1.20,-1.31,-1.31
54,-0.97,0.34,-1.02,0.29,-0.29,-0.01,-1.26,-1.31,-1.31
55,-0.97,0.34,-0.92,0.39,-0.39,-0.16,-1.36,-1.31,-1.31
56,-0.86,0.45,-0.83,0.48,-0.48,-0.29,-1.34,-1.31,-1.31
57,-0.66,0.65,-0.77,0.55,-0.55,-0.41,-1.21,-1.31,-1.31
58,-0.65,0.66,-0.71,0.60,-0.60,-0.52,-1.25,-1.31,-1.31
59,-0.65,0.66,-0.67,0.65,-0.65,-0.62,-1.30,-1.32,-1.31
60,-0.65,0.66,-0.64,0.68,-0.68,-0.70,-1.33,-1.32,-1.31
61,-0.65,0.66,-0.63,0.70,-0.70,-0.78,-1.35,-1.33,-1.31
62,-0.65,0.66,-0.62,0.71,-0.71,-0.84,-1.36,-1.33,-1.31
63,-0.65,0.66,-0.62,0.72,-0.72,-0.89,-1.37,-1.34,-1.31
64,-0.65,0.66,-0.61,0.72,-0.72,-0.92,-1.37,-1.33,-1.31
65,-0.65,0.66,-0.61,0.71,-0.71,-0.95,-1.36,-1.32,-1.31
66,-0.65,0.66,-0.62,0.70,-0.70,-0.97,-1.35,-1.32,-1.31
67,-0.65,0.66,-0.64,0.68,-0.68,-0.98,-1.33,-1.32,-1.31
68,-0.65,0.66,-0.66,0.66,-0.66,-0.98,-1.31,-1.32,-1.31
69,-0.65,0.66,-0.68,0.64,-0.64,-0.98,-1.29,-1.32,-1.31
70,-0.65,0.66,-0.72,0.61,-0.61,-0.97,-1.26,-1.33,-1.31
71,-0.65,0.66,-0.76,0.59,-0.59,-0.96,-1.24,-1.34,-1.31
72,-0.68,0.63,-0.79,0.56,-0.56,-0.94,-1.24,-1.35,-1.31
73,-0.81,0.50,-0.81,0.54,-0.54,-0.92,-1.35,-1.35,-1.31
74,-0.83,0.48,-0.83,0.52,-0.52,-0.90,-1.35,-1.35,-1.31
75,-0.97,0.34,-0.84,0.51,-0.51,-0.88,-1.48,-1.35,-1.31
76,-0.97,0.34,-0.85,0.51,-0.51,-0.86,-1.48,-1.35,-1.31
77,-0.97,0.34,-0.84,0.51,-0.51,-0.83,-1.48,-1.36,-1.31
78,-0.97,0.34,-0.84,0.52,-0.52,-0.81,-1.49,-1.35,-1.31
79,-0.87,0.44,-0.81,0.53,-0.53,-0.78,-1.40,-1.35,-1.31
80,-0.72,0.59,-0.80,0.55,-0.55,-0.76,-1.27,-1.35,-1.31
81,-0.65,0.66,-0.78,0.58,-0.58,-0.73,-1.23,-1.35,-1.31
82,-0.65,0.66,-0.75,0.60,-0.60,-0.71,-1.25,-1.35,-1.31
83,-0.65,0.66,-0.71,0.63,-0.63,-0.69,-1.28,-1.33,-1.31
84,-0.65,0.66,-0.68,0.65,-0.65,-0.66,-1.30,-1.32,-1.31
85,-0.65,0.66,-0.65,0.66,-0.66,-0.64,-1.31,-1.31,-1.31
86,-0.65,0.66,-0.64,0.67,-0.67,-0.62,-1.32,-1.30,-1.31
87,-0.65,0.66,-0.64,0.66,-0.66,-0.60,-1.31,-1.30,-1.31
88,-0.68,0.63,-0.65,0.66,-0.66,-0.59,-1.34,-1.31,-1.31
89,-0.80,0.51,-0.68,0.64,-0.64,-0.57,-1.44,-1.32,-1.31
90,-0.69,0.62,-0.72,0.61,-0.61,-0.55,-1.30,-1.33,-1.31
91,-0.65,0.66,-0.75,0.58,-0.58,-0.54,-1.23,-1.33,-1.31
92,-0.69,0.62,-0.78,0.55,-0.55,-0.52,-1.24,-1.33,-1.31
93,-0.81,0.50,-0.81,0.52,-0.52,-0.51,-1.33,-1.33,-1.31
94,-0.81,0.50,-0.84,0.49,-0.49,-0.50,-1.30,-1.33,-1.31
95,-0.89,0.42,-0.87,0.46,-0.46,-0.49,-1.35,-1.33,-1.31
96,-0.97,0.34,-0.89,0.43,-0.43,-0.47,-1.40,-1.33,-1.31
97,-0.97,0.34,-0.92,0.41,-0.41,-0.46,-1.38,-1.32,-1.31
98,-0.97,0.34,-0.94,0.39,-0.39,-0.45,-1.36,-1.32,-1.31
99,-0.97,0.34,-0.95,0.37,-0.37,-0.44,-1.34,-1.32,-1.31
100,-0.97,0.34,-0.98,0.35,-0.35,-0.43,-1.32,-1.33,-1.31
101,-0.97,0.34,-0.99,0.34,-0.34,-0.42,-1.31,-1.33,-1.31
102,-0.97,0.34,-0.99,0.34,-0.34,-0.42,-1.31,-1.33,-1.31
104,-0.97,0.34,-0.98,0.34,-0.34,-0.40,-1.31,-1.32,-1.31
105,-0.97,0.34,-0.98,0.34,-0.34,-0.39,-1.31,-1.32,-1.31
106,-0.97,0.34,-0.97,0.34,-0.34,-0.38,-1.31,-1.32,-1.31
107,-0.97,0.34,-0.96,0.35,-0.35,-0.37,-1.32,-1.31,-1.31
108,-0.97,0.34,-0.96,0.35,-0.35,-0.36,-1.32,-1.31,-1.31
109,-0.97,0.34,-0.96,0.36,-0.36,-0.36,-1.33,-1.31,-1.31
110,-0.97,0.34,-0.96,0.36,-0.36,-0.35,-1.33,-1.31,-1.31
111,-0.97,0.34,-0.96,0.35,-0.35,-0.34,-1.32,-1.31,-1.31
112,-0.97,0.34,-0.96,0.34,-0.34,-0.33,-1.31,-1.31,-1.31
113,-0.97,0.34,-0.98,0.33,-0.33,-0.32,-1.30,-1.31,-1.31
114,-0.97,0.34,-1.00,0.32,-0.32,-0.31,-1.29,-1.32,-1.31
115,-0.97,0.34,-1.02,0.30,-0.30,-0.29,-1.27,-1.32,-1.31
117,-0.97,0.34,-1.05,0.27,-0.27,-0.27,-1.24,-1.33,-1.31
118,-1.07,0.24,-1.08,0.25,-0.25,-0.26,-1.32,-1.33,-1.31
119,-1.14,0.17,-1.12,0.22,-0.22,-0.24,-1.36,-1.34,-1.31
120,-1.14,0.17,-1.14,0.19,-0.19,-0.23,-1.33,-1.33,-1.31
121,-1.19,0.12,-1.17,0.16,-0.16,-0.21,-1.35,-1.33,-1.31
123,-1.30,0.01,-1.19,0.13,-0.13,-0.18,-1.43,-1.32,-1.31
124,-1.30,0.01,-1.23,0.10,-0.10,-0.16,-1.40,-1.32,-1.31
125,-1.30,0.01,-1.26,0.07,-0.07,-0.14,-1.37,-1.33,-1.31
126,-1.30,0.01,-1.30,0.04,-0.04,-0.12,-1.34,-1.33,-1.31
128,-1.30,0.01,-1.33,0.01,-0.01,-0.08,-1.31,-1.34,-1.31
129,-1.30,0.01,-1.37,-0.03,0.03,-0.06,-1.27,-1.34,-1.31
130,-1.30,0.01,-1.39,-0.05,0.05,-0.03,-1.25,-1.34,-1.31
131,-1.30,0.01,-1.42,-0.08,0.08,-0.01,-1.22,-1.34,-1.31
133,-1.45,-0.14,-1.44,-0.11,0.11,0.04,-1.34,-1.33,-1.31
134,-1.53,-0.22,-1.47,-0.15,0.15,0.07,-1.38,-1.32,-1.31
135,-1.62,-0.31,-1.50,-0.18,0.18,0.09,-1.44,-1.32,-1.31
137,-1.62,-0.31,-1.54,-0.22,0.22,0.15,-1.40,-1.32,-1.31
138,-1.62,-0.31,-1.59,-0.26,0.26,0.18,-1.36,-1.33,-1.31
140,-1.62,-0.31,-1.64,-0.30,0.30,0.23,-1.32,-1.34,-1.31
141,-1.62,-0.31,-1.68,-0.35,0.35,0.26,-1.27,-1.34,-1.31
142,-1.62,-0.31,-1.72,-0.39,0.39,0.29,-1.23,-1.33,-1.31
144,-1.70,-0.39,-1.75,-0.43,0.43,0.36,-1.27,-1.33,-1.31
145,-1.77,-0.46,-1.79,-0.47,0.47,0.39,-1.30,-1.32,-1.31
147,-1.93,-0.62,-1.83,-0.51,0.51,0.45,-1.42,-1.31,-1.31
148,-1.95,-0.64,-1.87,-0.56,0.56,0.48,-1.39,-1.31,-1.31
150,-1.95,-0.64,-1.92,-0.60,0.60,0.55,-1.35,-1.32,-1.31
151,-1.95,-0.64,-1.97,-0.65,0.65,0.58,-1.30,-1.32,-1.31
153,-1.95,-0.64,-2.01,-0.69,0.69,0.65,-1.26,-1.32,-1.31
154,-1.97,-0.66,-2.05,-0.74,0.74,0.69,-1.23,-1.32,-1.31
156,-2.11,-0.80,-2.10,-0.78,0.78,0.76,-1.33,-1.32,-1.31
157,-2.19,-0.88,-2.15,-0.83,0.83,0.79,-1.36,-1.32,-1.31
159,-2.27,-0.96,-2.19,-0.87,0.87,0.86,-1.40,-1.32,-1.31
160,-2.27,-0.96,-2.23,-0.92,0.92,0.90,-1.35,-1.31,-1.31
162,-2.27,-0.96,-2.27,-0.96,0.96,0.97,-1.31,-1.31,-1.31
164,-2.27,-0.96,-2.32,-1.01,1.01,1.04,-1.26,-1.31,-1.31
165,-2.27,-0.96,-2.37,-1.06,1.06,1.08,-1.21,-1.31,-1.31
167,-2.40,-1.09,-2.42,-1.11,1.11,1.15,-1.29,-1.32,-1.31
169,-2.53,-1.22,-2.48,-1.16,1.16,1.23,-1.37,-1.32,-1.31
170,-2.59,-1.28,-2.53,-1.20,1.20,1.27,-1.39,-1.32,-1.31
172,-2.59,-1.28,-2.57,-1.25,1.25,1.34,-1.34,-1.32,-1.31
174,-2.59,-1.28,-2.61,-1.30,1.30,1.42,-1.29,-1.31,-1.31
175,-2.60,-1.29,-2.65,-1.35,1.35,1.46,-1.25,-1.30,-1.31
177,-2.73,-1.42,-2.71,-1.40,1.40,1.54,-1.33,-1.31,-1.31
179,-2.76,-1.45,-2.77,-1.45,1.45,1.62,-1.31,-1.32,-1.31
181,-2.82,-1.51,-2.82,-1.50,1.50,1.70,-1.32,-1.32,-1.31
183,-2.92,-1.61,-2.86,-1.55,1.55,1.78,-1.37,-1.32,-1.31
184,-2.92,-1.61,-2.90,-1.59,1.59,1.82,-1.33,-1.31,-1.31
186,-2.92,-1.61,-2.95,-1.65,1.65,1.90,-1.27,-1.30,-1.31
188,-2.92,-1.61,-3.00,-1.70,1.70,1.98,-1.22,-1.31,-1.31
190,-3.04,-1.73,-3.07,-1.75,1.75,2.06,-1.29,-1.32,-1.31
192,-3.16,-1.85,-3.13,-1.81,1.81,2.14,-1.35,-1.32,-1.31
194,-3.24,-1.93,-3.18,-1.86,1.86,2.22,-1.38,-1.32,-1.31
196,-3.24,-1.93,-3.23,-1.92,1.92,2.30,-1.32,-1.31,-1.31
198,-3.24,-1.93,-3.28,-1.97,1.97,2.39,-1.27,-1.31,-1.31
200,-3.30,-1.99,-3.34,-2.03,2.03,2.47,-1.27,-1.31,-1.31
202,-3.41,-2.10,-3.40,-2.09,2.09,2.55,-1.32,-1.31,-1.31
204,-3.52,-2.21,-3.47,-2.15,2.15,2.62,-1.37,-1.33,-1.31
206,-3.57,-2.26,-3.53,-2.20,2.20,2.70,-1.37,-1.33,-1.31
208,-3.57,-2.26,-3.58,-2.25,2.25,2.78,-1.32,-1.32,-1.31
210,-3.57,-2.26,-3.62,-2.31,2.31,2.85,-1.26,-1.31,-1.31
212,-3.63,-2.32,-3.67,-2.36,2.36,2.93,-1.27,-1.31,-1.31
214,-3.74,-2.43,-3.72,-2.41,2.41,3.00,-1.33,-1.31,-1.31
216,-3.84,-2.53,-3.78,-2.46,2.46,3.07,-1.38,-1.32,-1.31
218,-3.89,-2.58,-3.84,-2.51,2.51,3.13,-1.38,-1.32,-1.31
221,-3.89,-2.58,-3.88,-2.57,2.57,3.23,-1.32,-1.32,-1.31
223,-3.89,-2.58,-3.92,-2.62,2.62,3.29,-1.27,-1.31,-1.31
225,-3.89,-2.58,-3.97,-2.67,2.67,3.34,-1.22,-1.30,-1.31
227,-3.94,-2.63,-4.02,-2.72,2.72,3.39,-1.22,-1.30,-1.31
229,-4.14,-2.83,-4.08,-2.77,2.77,3.44,-1.37,-1.31,-1.31
232,-4.22,-2.91,-4.14,-2.83,2.83,3.50,-1.39,-1.31,-1.31
234,-4.22,-2.91,-4.19,-2.88,2.88,3.54,-1.34,-1.32,-1.31
236,-4.22,-2.91,-4.24,-2.93,2.93,3.57,-1.29,-1.32,-1.31
239,-4.22,-2.91,-4.30,-2.98,2.98,3.61,-1.24,-1.32,-1.31
241,-4.27,-2.96,-4.35,-3.02,3.02,3.63,-1.25,-1.33,-1.31
244,-4.41,-3.10,-4.39,-3.06,3.06,3.66,-1.35,-1.33,-1.31
246,-4.50,-3.19,-4.43,-3.10,3.10,3.67,-1.40,-1.33,-1.31
248,-4.54,-3.23,-4.46,-3.13,3.13,3.67,-1.41,-1.33,-1.31
251,-4.54,-3.23,-4.48,-3.16,3.16,3.67,-1.38,-1.32,-1.31
253,-4.54,-3.23,-4.50,-3.19,3.19,3.66,-1.35,-1.31,-1.31
256,-4.54,-3.23,-4.53,-3.22,3.22,3.64,-1.32,-1.32,-1.31
259,-4.54,-3.23,-4.57,-3.25,3.25,3.61,-1.29,-1.32,-1.31
261,-4.54,-3.23,-4.60,-3.28,3.28,3.59,-1.26,-1.33,-1.31
264,-4.54,-3.23,-4.63,-3.31,3.31,3.55,-1.23,-1.33,-1.31
266,-4.57,-3.26,-4.66,-3.34,3.34,3.52,-1.23,-1.32,-1.31
269,-4.70,-3.39,-4.69,-3.37,3.37,3.46,-1.33,-1.32,-1.31
272,-4.70,-3.39,-4.72,-3.40,3.40,3.40,-1.30,-1.32,-1.31
274,-4.74,-3.43,-4.75,-3.43,3.43,3.36,-1.31,-1.32,-1.31
277,-4.86,-3.55,-4.79,-3.46,3.46,3.29,-1.40,-1.33,-1.31
280,-4.86,-3.55,-4.81,-3.48,3.48,3.21,-1.38,-1.33,-1.31
283,-4.86,-3.55,-4.83,-3.50,3.50,3.14,-1.36,-1.33,-1.31
286,-4.86,-3.55,-4.83,-3.50,3.50,3.06,-1.36,-1.33,-1.31
288,-4.86,-3.55,-4.83,-3.50,3.50,3.00,-1.36,-1.33,-1.31
291,-4.86,-3.55,-4.82,-3.49,3.49,2.92,-1.37,-1.33,-1.31
294,-4.84,-3.53,-4.80,-3.47,3.47,2.84,-1.37,-1.33,-1.31
297,-4.72,-3.41,-4.76,-3.44,3.44,2.75,-1.28,-1.32,-1.31
300,-4.70,-3.39,-4.72,-3.41,3.41,2.66,-1.29,-1.32,-1.31
303,-4.66,-3.35,-4.68,-3.36,3.36,2.58,-1.30,-1.31,-1.31
306,-4.55,-3.24,-4.62,-3.31,3.31,2.49,-1.24,-1.31,-1.31
309,-4.54,-3.23,-4.57,-3.26,3.26,2.40,-1.28,-1.31,-1.31
312,-4.54,-3.23,-4.52,-3.20,3.20,2.32,-1.34,-1.32,-1.31
316,-4.51,-3.20,-4.46,-3.14,3.14,2.21,-1.37,-1.32,-1.31
319,-4.40,-3.09,-4.39,-3.07,3.07,2.12,-1.33,-1.31,-1.31
322,-4.30,-2.99,-4.32,-3.00,3.00,2.04,-1.30,-1.31,-1.31
325,-4.22,-2.91,-4.25,-2.93,2.93,1.96,-1.29,-1.32,-1.31
328,-4.22,-2.91,-4.17,-2.85,2.85,1.88,-1.37,-1.32,-1.31
332,-4.12,-2.81,-4.09,-2.77,2.77,1.78,-1.35,-1.32,-1.31
335,-4.01,-2.70,-4.00,-2.68,2.68,1.70,-1.33,-1.32,-1.31
338,-3.91,-2.60,-3.91,-2.59,2.59,1.62,-1.32,-1.32,-1.31
342,-3.78,-2.47,-3.81,-2.49,2.49,1.52,-1.29,-1.31,-1.31
345,-3.68,-2.37,-3.70,-2.40,2.40,1.45,-1.28,-1.31,-1.31
349,-3.57,-2.26,-3.60,-2.30,2.30,1.36,-1.27,-1.31,-1.31
352,-3.57,-2.26,-3.51,-2.20,2.20,1.29,-1.37,-1.31,-1.31
356,-3.41,-2.10,-3.41,-2.10,2.10,1.20,-1.31,-1.31,-1.31
359,-3.24,-1.93,-3.31,-1.99,1.99,1.13,-1.25,-1.31,-1.31
363,-3.24,-1.93,-3.20,-1.89,1.89,1.05,-1.35,-1.31,-1.31
366,-3.11,-1.80,-3.10,-1.79,1.79,0.98,-1.32,-1.32,-1.31
370,-2.92,-1.61,-3.00,-1.68,1.68,0.90,-1.24,-1.32,-1.31
374,-2.92,-1.61,-2.90,-1.58,1.58,0.82,-1.34,-1.32,-1.31
377,-2.84,-1.53,-2.79,-1.47,1.47,0.76,-1.37,-1.32,-1.31
381,-2.72,-1.41,-2.68,-1.37,1.37,0.68,-1.35,-1.32,-1.31
385,-2.60,-1.29,-2.58,-1.26,1.26,0.61,-1.34,-1.32,-1.31
389,-2.49,-1.18,-2.47,-1.16,1.16,0.54,-1.33,-1.31,-1.31
393,-2.37,-1.06,-2.38,-1.06,1.06,0.46,-1.31,-1.32,-1.31
397,-2.26,-0.95,-2.28,-0.96,0.96,0.39,-1.30,-1.32,-1.31
401,-2.15,-0.84,-2.18,-0.87,0.87,0.33,-1.28,-1.32,-1.31
405,-2.03,-0.72,-2.09,-0.77,0.77,0.26,-1.26,-1.32,-1.31
409,-1.95,-0.64,-2.00,-0.69,0.69,0.20,-1.26,-1.32,-1.31
413,-1.95,-0.64,-1.91,-0.60,0.60,0.13,-1.35,-1.31,-1.31
417,-1.87,-0.56,-1.83,-0.52,0.52,0.07,-1.35,-1.31,-1.31
421,-1.76,-0.45,-1.76,-0.44,0.44,0.02,-1.32,-1.32,-1.31
425,-1.65,-0.34,-1.68,-0.36,0.36,-0.04,-1.29,-1.32,-1.31
430,-1.62,-0.31,-1.60,-0.29,0.29,-0.11,-1.33,-1.31,-1.31
434,-1.58,-0.27,-1.53,-0.21,0.21,-0.16,-1.37,-1.31,-1.31
438,-1.47,-0.16,-1.46,-0.14,0.14,-0.21,-1.33,-1.32,-1.31
443,-1.34,-0.03,-1.40,-0.07,0.07,-0.28,-1.27,-1.33,-1.31
447,-1.30,0.01,-1.32,0.00,-0.00,-0.32,-1.30,-1.32,-1.31
451,-1.30,0.01,-1.24,0.07,-0.07,-0.37,-1.37,-1.32,-1.31
456,-1.18,0.13,-1.16,0.14,-0.14,-0.42,-1.32,-1.31,-1.31
460,-1.08,0.23,-1.09,0.21,-0.21,-0.46,-1.29,-1.31,-1.31
465,-0.97,0.34,-1.03,0.28,-0.28,-0.51,-1.25,-1.31,-1.31
470,-0.97,0.34,-0.97,0.35,-0.35,-0.56,-1.32,-1.32,-1.31
474,-0.97,0.34,-0.91,0.41,-0.41,-0.59,-1.38,-1.32,-1.31
479,-0.92,0.39,-0.85,0.47,-0.47,-0.63,-1.39,-1.32,-1.31
484,-0.69,0.62,-0.79,0.53,-0.53,-0.67,-1.22,-1.32,-1.31
489,-0.65,0.66,-0.73,0.59,-0.59,-0.70,-1.24,-1.31,-1.31
494,-0.65,0.66,-0.67,0.64,-0.64,-0.73,-1.29,-1.30,-1.31
499,-0.65,0.66,-0.62,0.69,-0.69,-0.76,-1.34,-1.30,-1.31
504,-0.65,0.66,-0.58,0.74,-0.74,-0.78,-1.39,-1.31,-1.31
509,-0.59,0.72,-0.53,0.79,-0.79,-0.81,-1.38,-1.32,-1.31
514,-0.48,0.83,-0.49,0.84,-0.84,-0.83,-1.32,-1.32,-1.31
519,-0.37,0.94,-0.43,0.88,-0.88,-0.84,-1.25,-1.32,-1.31
524,-0.32,0.99,-0.38,0.93,-0.93,-0.86,-1.25,-1.31,-1.31
529,-0.32,0.99,-0.34,0.98,-0.98,-0.87,-1.30,-1.31,-1.31
535,-0.32,0.99,-0.30,1.02,-1.02,-0.89,-1.34,-1.32,-1.31
540,-0.32,0.99,-0.25,1.06,-1.06,-0.90,-1.38,-1.31,-1.31
545,-0.30,1.01,-0.21,1.11,-1.11,-0.90,-1.41,-1.31,-1.31
551,-0.18,1.13,-0.16,1.15,-1.15,-0.91,-1.33,-1.31,-1.31
556,-0.08,1.23,-0.13,1.19,-1.19,-0.92,-1.27,-1.32,-1.31
562,0.00,1.31,-0.10,1.23,-1.23,-0.92,-1.23,-1.33,-1.31
568,0.00,1.31,-0.07,1.26,-1.26,-0.93,-1.26,-1.33,-1.31
573,0.00,1.31,-0.03,1.30,-1.30,-0.93,-1.30,-1.34,-1.31
579,0.00,1.31,0.01,1.34,-1.34,-0.93,-1.34,-1.33,-1.31
585,0.00,1.31,0.05,1.38,-1.38,-0.93,-1.38,-1.33,-1.31
591,0.00,1.31,0.09,1.41,-1.41,-0.93,-1.41,-1.32,-1.31
596,0.06,1.37,0.13,1.45,-1.45,-0.93,-1.39,-1.32,-1.31
602,0.16,1.47,0.16,1.48,-1.48,-0.93,-1.32,-1.32,-1.31
608,0.16,1.47,0.19,1.51,-1.51,-0.93,-1.35,-1.32,-1.31
615,0.25,1.56,0.21,1.54,-1.54,-0.93,-1.29,-1.32,-1.31
621,0.32,1.63,0.24,1.56,-1.56,-0.92,-1.24,-1.32,-1.31
627,0.32,1.63,0.27,1.58,-1.58,-0.92,-1.26,-1.31,-1.31
633,0.32,1.63,0.29,1.60,-1.60,-0.92,-1.28,-1.31,-1.31
639,0.32,1.63,0.30,1.61,-1.61,-0.92,-1.29,-1.31,-1.31
646,0.32,1.63,0.31,1.62,-1.62,-0.92,-1.30,-1.31,-1.31
652,0.32,1.63,0.33,1.63,-1.63,-0.92,-1.31,-1.31,-1.31
659,0.32,1.63,0.33,1.64,-1.64,-0.92,-1.32,-1.31,-1.31
665,0.32,1.63,0.33,1.65,-1.65,-0.92,-1.33,-1.32,-1.31
672,0.32,1.63,0.34,1.66,-1.66,-0.93,-1.34,-1.33,-1.31
679,0.32,1.63,0.34,1.68,-1.68,-0.93,-1.36,-1.33,-1.31
686,0.32,1.63,0.36,1.69,-1.69,-0.93,-1.37,-1.33,-1.31
692,0.32,1.63,0.39,1.72,-1.72,-0.94,-1.40,-1.33,-1.31
699,0.40,1.71,0.42,1.74,-1.74,-0.94,-1.34,-1.32,-1.31
706,0.49,1.80,0.45,1.77,-1.77,-0.95,-1.28,-1.32,-1.31
713,0.49,1.80,0.48,1.80,-1.80,-0.95,-1.31,-1.32,-1.31
721,0.49,1.80,0.51,1.83,-1.83,-0.96,-1.34,-1.31,-1.31
728,0.53,1.84,0.55,1.86,-1.86,-0.97,-1.33,-1.31,-1.31
735,0.64,1.95,0.58,1.88,-1.88,-0.98,-1.24,-1.31,-1.31
742,0.65,1.96,0.60,1.91,-1.91,-0.99,-1.26,-1.31,-1.31
750,0.65,1.96,0.63,1.93,-1.93,-1.00,-1.28,-1.31,-1.31
757,0.65,1.96,0.64,1.95,-1.95,-1.01,-1.30,-1.31,-1.31
765,0.65,1.96,0.65,1.96,-1.96,-1.02,-1.31,-1.31,-1.31
773,0.65,1.96,0.66,1.98,-1.98,-1.03,-1.33,-1.32,-1.31
780,0.65,1.96,0.66,1.98,-1.98,-1.04,-1.33,-1.32,-1.31
788,0.65,1.96,0.67,1.99,-1.99,-1.06,-1.34,-1.32,-1.31
796,0.65,1.96,0.67,1.99,-1.99,-1.07,-1.34,-1.31,-1.31
804,0.65,1.96,0.67,1.99,-1.99,-1.09,-1.34,-1.32,-1.31
812,0.65,1.96,0.67,1.98,-1.98,-1.10,-1.33,-1.31,-1.31
820,0.65,1.96,0.66,1.97,-1.97,-1.12,-1.32,-1.31,-1.31
828,0.65,1.96,0.65,1.96,-1.96,-1.14,-1.31,-1.31,-1.31
837,0.65,1.96,0.64,1.95,-1.95,-1.15,-1.30,-1.31,-1.31
845,0.65,1.96,0.61,1.93,-1.93,-1.17,-1.28,-1.32,-1.31
853,0.65,1.96,0.59,1.91,-1.91,-1.19,-1.26,-1.32,-1.31
862,0.64,1.95,0.56,1.88,-1.88,-1.21,-1.24,-1.33,-1.31
871,0.52,1.83,0.53,1.85,-1.85,-1.23,-1.33,-1.32,-1.31
879,0.49,1.80,0.50,1.82,-1.82,-1.24,-1.33,-1.32,-1.31
888,0.47,1.78,0.48,1.79,-1.79,-1.26,-1.32,-1.31,-1.31
897,0.35,1.66,0.44,1.75,-1.75,-1.28,-1.40,-1.31,-1.31
906,0.32,1.63,0.40,1.72,-1.72,-1.30,-1.40,-1.31,-1.31
915,0.32,1.63,0.36,1.68,-1.68,-1.32,-1.36,-1.32,-1.31
924,0.32,1.63,0.32,1.64,-1.64,-1.34,-1.32,-1.33,-1.31
933,0.32,1.63,0.27,1.61,-1.61,-1.36,-1.29,-1.34,-1.31
943,0.32,1.63,0.23,1.57,-1.57,-1.37,-1.25,-1.34,-1.31
952,0.32,1.63,0.20,1.54,-1.54,-1.39,-1.22,-1.33,-1.31
962,0.21,1.52,0.18,1.50,-1.50,-1.41,-1.29,-1.32,-1.31
971,0.11,1.42,0.15,1.46,-1.46,-1.43,-1.35,-1.31,-1.31
981,0.00,1.31,0.12,1.42,-1.42,-1.44,-1.42,-1.30,-1.31
991,0.00,1.31,0.08,1.39,-1.39,-1.46,-1.39,-1.30,-1.31
1001,0.00,1.31,0.04,1.35,-1.35,-1.47,-1.35,-1.31,-1.31
1011,0.00,1.31,-0.01,1.31,-1.31,-1.49,-1.31,-1.32,-1.31
1021,0.00,1.31,-0.06,1.27,-1.27,-1.50,-1.27,-1.33,-1.31
1031,0.00,1.31,-0.10,1.23,-1.23,-1.52,-1.23,-1.33,-1.31
1041,-0.03,1.28,-0.14,1.18,-1.18,-1.53,-1.21,-1.33,-1.31
1052,-0.15,1.16,-0.18,1.14,-1.14,-1.55,-1.29,-1.32,-1.31
1062,-0.26,1.05,-0.20,1.11,-1.11,-1.56,-1.37,-1.31,-1.31
1073,-0.32,0.99,-0.23,1.07,-1.07,-1.57,-1.39,-1.31,-1.31
1084,-0.32,0.99,-0.26,1.05,-1.05,-1.59,-1.37,-1.31,-1.31
1094,-0.32,0.99,-0.30,1.02,-1.02,-1.60,-1.34,-1.32,-1.31
1105,-0.32,0.99,-0.33,1.01,-1.01,-1.61,-1.33,-1.34,-1.31
1116,-0.32,0.99,-0.34,1.00,-1.00,-1.62,-1.32,-1.34,-1.31
1128,-0.32,0.99,-0.35,1.00,-1.00,-1.64,-1.32,-1.34,-1.31
1139,-0.32,0.99,-0.33,1.01,-1.01,-1.65,-1.33,-1.34,-1.31
1150,-0.32,0.99,-0.31,1.02,-1.02,-1.67,-1.34,-1.33,-1.31
1162,-0.32,0.99,-0.27,1.04,-1.04,-1.68,-1.36,-1.31,-1.31
1173,-0.32,0.99,-0.24,1.07,-1.07,-1.70,-1.39,-1.30,-1.31
1185,-0.29,1.02,-0.21,1.10,-1.10,-1.72,-1.39,-1.31,-1.31
1197,-0.17,1.14,-0.19,1.13,-1.13,-1.74,-1.30,-1.32,-1.31
1209,-0.06,1.25,-0.15,1.17,-1.17,-1.75,-1.23,-1.33,-1.31
1221,0.00,1.31,-0.11,1.22,-1.22,-1.77,-1.22,-1.33,-1.31
1233,0.00,1.31,-0.07,1.26,-1.26,-1.80,-1.26,-1.33,-1.31
1246,0.00,1.31,-0.02,1.30,-1.30,-1.82,-1.30,-1.32,-1.31
1258,0.00,1.31,0.03,1.34,-1.34,-1.84,-1.34,-1.31,-1.31
1271,0.00,1.31,0.07,1.38,-1.38,-1.87,-1.38,-1.30,-1.31
1283,0.00,1.31,0.12,1.41,-1.41,-1.89,-1.41,-1.30,-1.31
1296,0.07,1.38,0.15,1.45,-1.45,-1.92,-1.38,-1.30,-1.31
1309,0.19,1.50,0.18,1.49,-1.49,-1.95,-1.30,-1.31,-1.31
1322,0.30,1.61,0.20,1.52,-1.52,-1.98,-1.22,-1.32,-1.31
1335,0.32,1.63,0.22,1.55,-1.55,-2.02,-1.23,-1.33,-1.31
1349,0.32,1.63,0.25,1.58,-1.58,-2.05,-1.26,-1.33,-1.31
1362,0.32,1.63,0.28,1.61,-1.61,-2.09,-1.29,-1.33,-1.31
1376,0.32,1.63,0.32,1.64,-1.64,-2.13,-1.32,-1.32,-1.31
1390,0.32,1.63,0.36,1.67,-1.67,-2.17,-1.35,-1.31,-1.31
1404,0.32,1.63,0.39,1.70,-1.70,-2.21,-1.38,-1.30,-1.31
1418,0.32,1.63,0.42,1.73,-1.73,-2.25,-1.41,-1.30,-1.31
1432,0.39,1.70,0.45,1.75,-1.75,-2.30,-1.36,-1.30,-1.31
1446,0.49,1.80,0.47,1.78,-1.78,-2.35,-1.29,-1.31,-1.31
1461,0.49,1.80,0.50,1.81,-1.81,-2.40,-1.32,-1.32,-1.31
1475,0.56,1.87,0.52,1.84,-1.84,-2.45,-1.28,-1.32,-1.31
1490,0.65,1.96,0.54,1.87,-1.87,-2.50,-1.22,-1.33,-1.31
1505,0.65,1.96,0.57,1.90,-1.90,-2.56,-1.25,-1.33,-1.31
1520,0.65,1.96,0.61,1.93,-1.93,-2.61,-1.28,-1.32,-1.31
1535,0.65,1.96,0.64,1.96,-1.96,-2.67,-1.31,-1.32,-1.31
1550,0.65,1.96,0.68,1.99,-1.99,-2.73,-1.34,-1.31,-1.31
1566,0.65,1.96,0.71,2.02,-2.02,-2.79,-1.37,-1.30,-1.31
1582,0.65,1.96,0.74,2.05,-2.05,-2.85,-1.40,-1.31,-1.31
