frequency,raw,error,smoothed,error_smoothed,equalization,parametric_eq,equalized_raw,equalized_smoothed,target
20,-5.41,-6.34,-5.50,-6.42,6.65,1.58,1.24,1.16,0.93
21,-5.07,-5.99,-5.08,-6.00,6.14,1.83,1.07,1.06,0.93
22,-4.73,-5.65,-4.69,-5.61,5.68,2.10,0.96,0.99,0.92
23,-4.39,-5.31,-4.33,-5.25,5.28,2.39,0.89,0.95,0.92
24,-4.09,-5.01,-4.00,-4.92,4.93,2.71,0.84,0.93,0.92
25,-3.77,-4.68,-3.69,-4.61,4.61,3.03,0.84,0.92,0.92
26,-3.43,-4.34,-3.42,-4.33,4.33,3.35,0.90,0.91,0.91
27,-3.07,-3.98,-3.17,-4.08,4.08,3.65,1.01,0.91,0.91
28,-2.74,-3.64,-2.96,-3.86,3.86,3.91,1.12,0.91,0.90
29,-2.58,-3.48,-2.77,-3.67,3.67,4.12,1.09,0.90,0.90
30,-2.51,-3.40,-2.61,-3.50,3.50,4.26,0.99,0.90,0.90
31,-2.51,-3.40,-2.46,-3.35,3.35,4.32,0.84,0.89,0.89
32,-2.47,-3.35,-2.33,-3.21,3.21,4.32,0.75,0.88,0.88
33,-2.35,-3.23,-2.21,-3.09,3.09,4.24,0.74,0.88,0.88
34,-2.21,-3.08,-2.10,-2.97,2.97,4.12,0.76,0.87,0.87
35,-2.07,-2.93,-1.99,-2.86,2.86,3.95,0.79,0.86,0.86
36,-1.93,-2.78,-1.89,-2.74,2.74,3.77,0.81,0.86,0.86
37,-1.81,-2.66,-1.78,-2.63,2.63,3.57,0.82,0.85,0.85
38,-1.69,-2.53,-1.68,-2.52,2.52,3.37,0.83,0.84,0.84
39,-1.57,-2.40,-1.57,-2.40,2.40,3.17,0.83,0.83,0.83
40,-1.46,-2.28,-1.47,-2.29,2.29,2.98,0.83,0.82,0.82
41,-1.37,-2.17,-1.37,-2.18,2.18,2.81,0.81,0.81,0.81
42,-1.26,-2.05,-1.28,-2.07,2.07,2.64,0.81,0.79,0.79
43,-1.18,-1.96,-1.19,-1.97,1.97,2.49,0.79,0.78,0.78
44,-1.10,-1.87,-1.11,-1.87,1.87,2.36,0.77,0.77,0.77
45,-1.00,-1.75,-1.04,-1.79,1.79,2.23,0.79,0.75,0.75
46,-0.93,-1.67,-0.97,-1.71,1.71,2.12,0.78,0.74,0.74
47,-0.88,-1.60,-0.92,-1.64,1.64,2.02,0.76,0.72,0.72
48,-0.88,-1.58,-0.87,-1.57,1.57,1.93,0.70,0.70,0.70
49,-0.83,-1.51,-0.83,-1.52,1.52,1.84,0.69,0.69,0.69
50,-0.79,-1.46,-0.80,-1.46,1.46,1.77,0.67,0.67,0.67
51,-0.74,-1.39,-0.77,-1.41,1.41,1.70,0.67,0.65,0.65
52,-0.74,-1.36,-0.74,-1.36,1.36,1.63,0.63,0.63,0.63
53,-0.74,-1.34,-0.71,-1.32,1.32,1.57,0.58,0.60,0.60
54,-0.74,-1.32,-0.68,-1.27,1.27,1.52,0.53,0.58,0.58
55,-0.74,-1.30,-0.66,-1.22,1.22,1.46,0.48,0.56,0.56
56,-0.74,-1.27,-0.63,-1.17,1.17,1.41,0.43,0.53,0.53
57,-0.69,-1.20,-0.61,-1.12,1.12,1.36,0.43,0.51,0.51
58,-0.65,-1.13,-0.60,-1.08,1.08,1.31,0.43,0.48,0.48
59,-0.60,-1.05,-0.60,-1.05,1.05,1.25,0.45,0.46,0.46
60,-0.55,-0.98,-0.61,-1.03,1.03,1.20,0.48,0.43,0.43
61,-0.55,-0.95,-0.63,-1.03,1.03,1.15,0.48,0.40,0.40
62,-0.51,-0.88,-0.68,-1.04,1.04,1.09,0.54,0.37,0.37
63,-0.58,-0.92,-0.74,-1.07,1.07,1.03,0.50,0.34,0.34
64,-0.64,-0.95,-0.81,-1.12,1.12,0.98,0.48,0.31,0.31
65,-0.72,-0.99,-0.90,-1.17,1.17,0.92,0.45,0.27,0.27
66,-0.85,-1.09,-0.99,-1.23,1.23,0.85,0.38,0.24,0.24
67,-1.02,-1.23,-1.07,-1.28,1.28,0.79,0.26,0.21,0.21
68,-1.18,-1.35,-1.15,-1.32,1.32,0.72,0.14,0.17,0.17
69,-1.36,-1.50,-1.21,-1.34,1.34,0.66,-0.02,0.14,0.14
70,-1.48,-1.58,-1.24,-1.34,1.34,0.59,-0.14,0.10,0.10
71,-1.54,-1.60,-1.24,-1.30,1.30,0.52,-0.23,0.06,0.06
72,-1.53,-1.56,-1.21,-1.24,1.24,0.45,-0.29,0.03,0.03
73,-1.39,-1.38,-1.15,-1.13,1.13,0.38,-0.25,-0.01,-0.01
74,-1.18,-1.13,-1.05,-1.00,1.00,0.32,-0.18,-0.05,-0.05
75,-0.91,-0.82,-0.93,-0.84,0.84,0.25,-0.06,-0.09,-0.09
76,-0.69,-0.56,-0.79,-0.67,0.67,0.18,-0.02,-0.13,-0.13
77,-0.50,-0.33,-0.64,-0.48,0.48,0.11,-0.02,-0.17,-0.17
78,-0.34,-0.13,-0.49,-0.28,0.28,0.04,-0.06,-0.21,-0.21
79,-0.20,0.05,-0.34,-0.09,0.09,-0.03,-0.11,-0.25,-0.25
80,-0.08,0.21,-0.20,0.09,-0.09,-0.10,-0.17,-0.29,-0.29
81,0.03,0.36,-0.07,0.26,-0.26,-0.17,-0.23,-0.33,-0.33
82,0.08,0.45,0.04,0.41,-0.41,-0.24,-0.33,-0.37,-0.37
83,0.16,0.57,0.13,0.54,-0.54,-0.31,-0.38,-0.41,-0.41
84,0.20,0.65,0.21,0.66,-0.66,-0.38,-0.46,-0.45,-0.45
85,0.25,0.75,0.27,0.76,-0.76,-0.45,-0.51,-0.49,-0.49
86,0.29,0.83,0.31,0.85,-0.85,-0.52,-0.56,-0.54,-0.54
87,0.33,0.91,0.34,0.92,-0.92,-0.59,-0.59,-0.58,-0.58
88,0.34,0.96,0.37,0.98,-0.98,-0.66,-0.64,-0.62,-0.62
89,0.38,1.04,0.38,1.04,-1.04,-0.72,-0.66,-0.66,-0.66
90,0.38,1.08,0.39,1.09,-1.09,-0.79,-0.71,-0.70,-0.70
91,0.38,1.12,0.40,1.14,-1.14,-0.86,-0.76,-0.74,-0.74
92,0.38,1.17,0.40,1.19,-1.19,-0.93,-0.81,-0.78,-0.78
93,0.40,1.23,0.41,1.23,-1.23,-1.00,-0.83,-0.82,-0.83
94,0.42,1.29,0.41,1.27,-1.27,-1.07,-0.85,-0.86,-0.87
95,0.43,1.34,0.41,1.32,-1.32,-1.14,-0.88,-0.90,-0.91
96,0.40,1.35,0.41,1.36,-1.36,-1.20,-0.96,-0.95,-0.95
97,0.40,1.39,0.41,1.40,-1.40,-1.27,-1.00,-0.99,-0.99
98,0.40,1.43,0.41,1.44,-1.44,-1.34,-1.04,-1.03,-1.03
99,0.40,1.47,0.41,1.48,-1.48,-1.41,-1.08,-1.07,-1.06
100,0.40,1.50,0.41,1.52,-1.52,-1.47,-1.12,-1.11,-1.10
101,0.40,1.54,0.41,1.56,-1.56,-1.54,-1.16,-1.15,-1.14
102,0.40,1.58,0.40,1.60,-1.60,-1.60,-1.20,-1.19,-1.18
104,0.40,1.65,0.40,1.64,-1.64,-1.73,-1.24,-1.24,-1.25
105,0.40,1.69,0.40,1.68,-1.68,-1.79,-1.27,-1.28,-1.29
106,0.40,1.73,0.40,1.71,-1.71,-1.85,-1.31,-1.32,-1.33
107,0.40,1.76,0.39,1.75,-1.75,-1.91,-1.35,-1.35,-1.36
108,0.43,1.83,0.39,1.78,-1.78,-1.97,-1.35,-1.39,-1.40
109,0.43,1.86,0.39,1.81,-1.81,-2.02,-1.38,-1.43,-1.43
110,0.36,1.83,0.38,1.85,-1.85,-2.08,-1.49,-1.46,-1.46
111,0.33,1.83,0.38,1.88,-1.88,-2.13,-1.55,-1.50,-1.50
112,0.33,1.86,0.38,1.91,-1.91,-2.18,-1.58,-1.54,-1.53
113,0.36,1.92,0.37,1.94,-1.94,-2.23,-1.58,-1.57,-1.56
114,0.38,1.98,0.37,1.98,-1.98,-2.28,-1.60,-1.60,-1.59
115,0.38,2.01,0.37,2.01,-2.01,-2.32,-1.63,-1.64,-1.63
117,0.38,2.07,0.37,2.05,-2.05,-2.40,-1.67,-1.67,-1.69
118,0.38,2.10,0.37,2.08,-2.08,-2.43,-1.70,-1.71,-1.72
119,0.38,2.13,0.38,2.12,-2.12,-2.47,-1.74,-1.74,-1.74
120,0.38,2.15,0.38,2.15,-2.15,-2.50,-1.77,-1.78,-1.77
121,0.38,2.18,0.38,2.19,-2.19,-2.53,-1.81,-1.81,-1.80
123,0.38,2.24,0.38,2.22,-2.22,-2.57,-1.84,-1.84,-1.85
124,0.38,2.26,0.38,2.26,-2.26,-2.59,-1.87,-1.88,-1.88
125,0.38,2.29,0.38,2.29,-2.29,-2.61,-1.91,-1.91,-1.91
126,0.38,2.31,0.38,2.32,-2.32,-2.62,-1.94,-1.94,-1.93
128,0.38,2.36,0.38,2.35,-2.35,-2.65,-1.97,-1.97,-1.98
129,0.38,2.38,0.38,2.38,-2.38,-2.65,-2.00,-2.00,-2.00
130,0.38,2.41,0.38,2.41,-2.41,-2.66,-2.03,-2.03,-2.03
131,0.38,2.43,0.38,2.44,-2.44,-2.66,-2.06,-2.06,-2.05
133,0.38,2.47,0.38,2.47,-2.47,-2.66,-2.09,-2.09,-2.09
134,0.38,2.49,0.38,2.50,-2.50,-2.66,-2.12,-2.11,-2.11
135,0.38,2.51,0.38,2.53,-2.53,-2.66,-2.15,-2.14,-2.13
137,0.38,2.55,0.39,2.55,-2.55,-2.64,-2.17,-2.17,-2.17
138,0.38,2.57,0.39,2.58,-2.58,-2.64,-2.20,-2.20,-2.19
140,0.38,2.61,0.39,2.61,-2.61,-2.62,-2.23,-2.22,-2.23
141,0.38,2.63,0.39,2.64,-2.64,-2.61,-2.25,-2.25,-2.25
142,0.38,2.65,0.39,2.66,-2.66,-2.60,-2.28,-2.27,-2.27
144,0.38,2.68,0.39,2.68,-2.68,-2.57,-2.30,-2.30,-2.30
145,0.38,2.70,0.38,2.70,-2.70,-2.56,-2.32,-2.32,-2.32
147,0.38,2.73,0.37,2.72,-2.72,-2.54,-2.34,-2.34,-2.35
148,0.38,2.74,0.36,2.73,-2.73,-2.52,-2.35,-2.37,-2.36
150,0.38,2.77,0.35,2.74,-2.74,-2.50,-2.36,-2.39,-2.39
151,0.33,2.74,0.33,2.74,-2.74,-2.49,-2.41,-2.41,-2.41
153,0.33,2.76,0.31,2.74,-2.74,-2.46,-2.41,-2.43,-2.43
154,0.29,2.74,0.28,2.73,-2.73,-2.45,-2.44,-2.45,-2.45
156,0.27,2.74,0.25,2.72,-2.72,-2.43,-2.45,-2.47,-2.47
157,0.24,2.73,0.22,2.71,-2.71,-2.42,-2.47,-2.49,-2.48
159,0.20,2.71,0.19,2.70,-2.70,-2.40,-2.49,-2.51,-2.51
160,0.17,2.69,0.16,2.68,-2.68,-2.39,-2.51,-2.52,-2.52
162,0.11,2.65,0.12,2.67,-2.67,-2.37,-2.56,-2.54,-2.54
164,0.05,2.61,0.09,2.65,-2.65,-2.36,-2.60,-2.56,-2.56
165,0.03,2.60,0.07,2.64,-2.64,-2.35,-2.61,-2.58,-2.57
167,0.01,2.60,0.04,2.63,-2.63,-2.34,-2.62,-2.59,-2.59
169,0.01,2.62,0.02,2.63,-2.63,-2.34,-2.62,-2.61,-2.61
170,0.01,2.63,0.01,2.63,-2.63,-2.33,-2.62,-2.62,-2.62
172,0.01,2.65,-0.00,2.63,-2.63,-2.33,-2.62,-2.64,-2.64
174,-0.02,2.63,-0.01,2.64,-2.64,-2.33,-2.66,-2.65,-2.65
175,-0.02,2.64,-0.02,2.65,-2.65,-2.33,-2.67,-2.67,-2.66
177,-0.02,2.66,-0.02,2.66,-2.66,-2.33,-2.68,-2.68,-2.68
179,-0.02,2.67,-0.02,2.67,-2.67,-2.34,-2.69,-2.69,-2.69
181,-0.04,2.67,-0.02,2.69,-2.69,-2.35,-2.72,-2.71,-2.71
183,-0.02,2.70,-0.02,2.70,-2.70,-2.36,-2.72,-2.72,-2.72
184,-0.02,2.71,-0.02,2.71,-2.71,-2.36,-2.73,-2.73,-2.73
186,-0.02,2.72,-0.02,2.72,-2.72,-2.37,-2.74,-2.74,-2.74
188,0.01,2.76,-0.02,2.74,-2.74,-2.39,-2.72,-2.75,-2.75
190,0.01,2.78,-0.02,2.74,-2.74,-2.40,-2.73,-2.77,-2.77
192,0.01,2.79,-0.02,2.75,-2.75,-2.42,-2.74,-2.78,-2.78
194,-0.04,2.75,-0.03,2.76,-2.76,-2.44,-2.80,-2.79,-2.79
196,-0.04,2.76,-0.03,2.76,-2.76,-2.46,-2.80,-2.80,-2.80
198,-0.04,2.77,-0.04,2.77,-2.77,-2.48,-2.81,-2.81,-2.81
200,-0.09,2.73,-0.05,2.77,-2.77,-2.51,-2.86,-2.82,-2.82
202,-0.09,2.74,-0.06,2.77,-2.77,-2.53,-2.86,-2.83,-2.83
204,-0.09,2.75,-0.07,2.77,-2.77,-2.55,-2.86,-2.84,-2.84
206,-0.09,2.76,-0.08,2.77,-2.77,-2.58,-2.85,-2.85,-2.85
208,-0.09,2.76,-0.09,2.76,-2.76,-2.60,-2.85,-2.85,-2.85
210,-0.06,2.80,-0.11,2.75,-2.75,-2.63,-2.81,-2.86,-2.86
212,-0.09,2.78,-0.12,2.75,-2.75,-2.65,-2.83,-2.87,-2.87
214,-0.09,2.78,-0.14,2.74,-2.74,-2.68,-2.83,-2.87,-2.87
216,-0.13,2.75,-0.15,2.73,-2.73,-2.70,-2.85,-2.88,-2.88
218,-0.17,2.71,-0.17,2.71,-2.71,-2.72,-2.88,-2.88,-2.88
221,-0.22,2.67,-0.18,2.70,-2.70,-2.75,-2.92,-2.89,-2.89
223,-0.23,2.66,-0.20,2.69,-2.69,-2.77,-2.92,-2.89,-2.89
225,-0.25,2.64,-0.21,2.68,-2.68,-2.79,-2.93,-2.89,-2.89
227,-0.25,2.64,-0.22,2.67,-2.67,-2.81,-2.92,-2.89,-2.89
229,-0.25,2.64,-0.23,2.66,-2.66,-2.83,-2.91,-2.89,-2.89
232,-0.25,2.64,-0.24,2.65,-2.65,-2.85,-2.90,-2.89,-2.89
234,-0.25,2.64,-0.25,2.64,-2.64,-2.86,-2.89,-2.89,-2.89
236,-0.25,2.63,-0.26,2.63,-2.63,-2.87,-2.88,-2.88,-2.88
239,-0.25,2.63,-0.26,2.62,-2.62,-2.88,-2.87,-2.88,-2.88
241,-0.25,2.63,-0.27,2.60,-2.60,-2.88,-2.85,-2.87,-2.88
244,-0.25,2.62,-0.28,2.59,-2.59,-2.88,-2.84,-2.87,-2.87
246,-0.27,2.59,-0.29,2.57,-2.57,-2.88,-2.84,-2.86,-2.86
248,-0.27,2.58,-0.30,2.56,-2.56,-2.87,-2.82,-2.85,-2.85
251,-0.31,2.54,-0.31,2.54,-2.54,-2.86,-2.85,-2.85,-2.85
253,-0.32,2.52,-0.32,2.52,-2.52,-2.85,-2.83,-2.84,-2.83
256,-0.37,2.46,-0.33,2.49,-2.49,-2.83,-2.86,-2.82,-2.82
259,-0.37,2.45,-0.34,2.47,-2.47,-2.80,-2.84,-2.81,-2.81
261,-0.37,2.43,-0.35,2.45,-2.45,-2.79,-2.82,-2.80,-2.80
264,-0.37,2.42,-0.36,2.43,-2.43,-2.75,-2.80,-2.79,-2.79
266,-0.37,2.41,-0.37,2.41,-2.41,-2.73,-2.78,-2.77,-2.77
269,-0.37,2.39,-0.37,2.39,-2.39,-2.69,-2.76,-2.76,-2.76
272,-0.37,2.38,-0.38,2.37,-2.37,-2.65,-2.74,-2.75,-2.75
274,-0.37,2.36,-0.38,2.35,-2.35,-2.63,-2.72,-2.73,-2.73
277,-0.37,2.35,-0.38,2.33,-2.33,-2.58,-2.70,-2.71,-2.71
280,-0.37,2.33,-0.38,2.31,-2.31,-2.53,-2.68,-2.70,-2.70
283,-0.39,2.29,-0.39,2.29,-2.29,-2.49,-2.68,-2.68,-2.68
286,-0.41,2.25,-0.39,2.27,-2.27,-2.44,-2.68,-2.66,-2.66
288,-0.41,2.24,-0.39,2.25,-2.25,-2.40,-2.66,-2.64,-2.64
291,-0.41,2.22,-0.40,2.23,-2.23,-2.35,-2.64,-2.63,-2.63
294,-0.41,2.20,-0.40,2.20,-2.20,-2.30,-2.61,-2.61,-2.61
297,-0.41,2.18,-0.41,2.18,-2.18,-2.25,-2.59,-2.59,-2.59
300,-0.41,2.16,-0.42,2.15,-2.15,-2.20,-2.56,-2.57,-2.57
303,-0.41,2.14,-0.43,2.12,-2.12,-2.15,-2.53,-2.55,-2.55
306,-0.41,2.12,-0.45,2.08,-2.08,-2.10,-2.49,-2.53,-2.53
309,-0.46,2.05,-0.46,2.05,-2.05,-2.05,-2.51,-2.51,-2.51
312,-0.46,2.03,-0.48,2.01,-2.01,-2.00,-2.47,-2.49,-2.49
316,-0.51,1.96,-0.50,1.97,-1.97,-1.94,-2.48,-2.47,-2.47
319,-0.51,1.94,-0.51,1.93,-1.93,-1.89,-2.44,-2.45,-2.45
322,-0.55,1.88,-0.53,1.89,-1.89,-1.84,-2.44,-2.42,-2.43
325,-0.55,1.86,-0.55,1.85,-1.85,-1.80,-2.40,-2.40,-2.40
328,-0.58,1.80,-0.57,1.81,-1.81,-1.76,-2.39,-2.38,-2.38
332,-0.60,1.76,-0.59,1.78,-1.78,-1.70,-2.37,-2.36,-2.36
335,-0.60,1.74,-0.60,1.74,-1.74,-1.66,-2.34,-2.34,-2.34
338,-0.65,1.67,-0.62,1.71,-1.71,-1.62,-2.36,-2.32,-2.32
342,-0.65,1.65,-0.63,1.68,-1.68,-1.57,-2.32,-2.30,-2.30
345,-0.65,1.63,-0.64,1.65,-1.65,-1.53,-2.29,-2.28,-2.28
349,-0.65,1.62,-0.65,1.62,-1.62,-1.48,-2.27,-2.26,-2.26
352,-0.65,1.60,-0.66,1.59,-1.59,-1.45,-2.24,-2.25,-2.25
356,-0.65,1.58,-0.67,1.56,-1.56,-1.40,-2.21,-2.23,-2.23
359,-0.65,1.56,-0.67,1.54,-1.54,-1.37,-2.19,-2.21,-2.21
363,-0.67,1.53,-0.68,1.51,-1.51,-1.33,-2.18,-2.20,-2.20
366,-0.69,1.49,-0.69,1.49,-1.49,-1.30,-2.18,-2.18,-2.18
370,-0.69,1.48,-0.70,1.46,-1.46,-1.26,-2.15,-2.17,-2.17
374,-0.70,1.45,-0.72,1.44,-1.44,-1.22,-2.14,-2.15,-2.15
377,-0.74,1.40,-0.73,1.41,-1.41,-1.20,-2.15,-2.14,-2.14
381,-0.75,1.38,-0.74,1.39,-1.39,-1.17,-2.14,-2.13,-2.13
385,-0.79,1.33,-0.75,1.36,-1.36,-1.13,-2.15,-2.12,-2.12
389,-0.79,1.32,-0.76,1.34,-1.34,-1.10,-2.13,-2.11,-2.11
393,-0.79,1.31,-0.78,1.32,-1.32,-1.07,-2.11,-2.10,-2.10
397,-0.79,1.30,-0.79,1.29,-1.29,-1.05,-2.08,-2.09,-2.09
401,-0.79,1.29,-0.81,1.27,-1.27,-1.02,-2.06,-2.08,-2.08
405,-0.79,1.28,-0.82,1.25,-1.25,-0.99,-2.04,-2.07,-2.07
409,-0.81,1.25,-0.84,1.23,-1.23,-0.97,-2.04,-2.06,-2.06
413,-0.83,1.22,-0.85,1.20,-1.20,-0.95,-2.03,-2.05,-2.05
417,-0.86,1.19,-0.87,1.18,-1.18,-0.92,-2.04,-2.05,-2.05
421,-0.88,1.16,-0.88,1.16,-1.16,-0.90,-2.04,-2.04,-2.04
425,-0.93,1.10,-0.90,1.13,-1.13,-0.88,-2.06,-2.03,-2.03
430,-0.93,1.10,-0.91,1.11,-1.11,-0.86,-2.04,-2.02,-2.02
434,-0.93,1.09,-0.92,1.09,-1.09,-0.84,-2.02,-2.02,-2.02
438,-0.93,1.08,-0.93,1.07,-1.07,-0.83,-2.00,-2.01,-2.01
443,-0.95,1.05,-0.94,1.06,-1.06,-0.81,-2.01,-2.00,-2.00
447,-0.97,1.02,-0.95,1.04,-1.04,-0.79,-2.01,-1.99,-1.99
451,-0.97,1.01,-0.95,1.03,-1.03,-0.78,-2.00,-1.98,-1.98
456,-0.97,1.00,-0.95,1.02,-1.02,-0.76,-1.99,-1.97,-1.97
460,-0.95,1.01,-0.95,1.01,-1.01,-0.75,-1.96,-1.96,-1.96
465,-0.95,1.00,-0.95,1.00,-1.00,-0.73,-1.95,-1.95,-1.95
470,-0.93,1.01,-0.95,0.99,-0.99,-0.72,-1.92,-1.94,-1.94
474,-0.93,1.00,-0.94,0.98,-0.98,-0.71,-1.91,-1.93,-1.93
479,-0.93,0.98,-0.94,0.97,-0.97,-0.70,-1.90,-1.91,-1.91
484,-0.93,0.97,-0.93,0.96,-0.96,-0.69,-1.89,-1.90,-1.90
489,-0.93,0.95,-0.93,0.95,-0.95,-0.68,-1.88,-1.88,-1.88
494,-0.93,0.94,-0.93,0.94,-0.94,-0.67,-1.87,-1.87,-1.87
499,-0.93,0.92,-0.92,0.93,-0.93,-0.66,-1.86,-1.85,-1.85
504,-0.93,0.91,-0.92,0.91,-0.91,-0.66,-1.84,-1.83,-1.83
509,-0.93,0.89,-0.92,0.89,-0.89,-0.65,-1.82,-1.82,-1.82
514,-0.93,0.87,-0.93,0.87,-0.87,-0.65,-1.80,-1.80,-1.80
519,-0.93,0.85,-0.93,0.85,-0.85,-0.64,-1.78,-1.78,-1.78
524,-0.93,0.83,-0.94,0.82,-0.82,-0.64,-1.75,-1.76,-1.76
529,-0.94,0.80,-0.95,0.79,-0.79,-0.64,-1.73,-1.74,-1.74
535,-0.95,0.77,-0.96,0.76,-0.76,-0.64,-1.71,-1.72,-1.72
540,-0.97,0.73,-0.97,0.73,-0.73,-0.63,-1.70,-1.70,-1.70
545,-0.97,0.71,-0.99,0.69,-0.69,-0.63,-1.66,-1.68,-1.68
551,-0.97,0.69,-1.00,0.66,-0.66,-0.64,-1.63,-1.66,-1.66
556,-1.02,0.62,-1.02,0.62,-0.62,-0.64,-1.64,-1.64,-1.64
562,-1.02,0.60,-1.04,0.58,-0.58,-0.64,-1.60,-1.62,-1.62
568,-1.07,0.53,-1.05,0.54,-0.54,-0.64,-1.61,-1.60,-1.60
573,-1.07,0.51,-1.07,0.51,-0.51,-0.64,-1.58,-1.58,-1.58
579,-1.10,0.46,-1.08,0.48,-0.48,-0.65,-1.58,-1.56,-1.56
585,-1.11,0.43,-1.09,0.45,-0.45,-0.65,-1.56,-1.54,-1.54
591,-1.11,0.41,-1.10,0.43,-0.43,-0.66,-1.53,-1.52,-1.52
596,-1.11,0.39,-1.10,0.41,-0.41,-0.66,-1.52,-1.50,-1.50
602,-1.11,0.38,-1.09,0.39,-0.39,-0.67,-1.50,-1.49,-1.49
608,-1.11,0.36,-1.08,0.39,-0.39,-0.68,-1.50,-1.47,-1.47
615,-1.07,0.38,-1.07,0.39,-0.39,-0.69,-1.46,-1.45,-1.45
621,-1.07,0.37,-1.05,0.39,-0.39,-0.70,-1.46,-1.44,-1.44
627,-1.02,0.40,-1.02,0.40,-0.40,-0.71,-1.42,-1.42,-1.42
633,-0.98,0.43,-0.99,0.41,-0.41,-0.72,-1.39,-1.41,-1.41
639,-0.97,0.42,-0.96,0.43,-0.43,-0.73,-1.40,-1.39,-1.39
646,-0.93,0.45,-0.93,0.45,-0.45,-0.74,-1.38,-1.38,-1.38
652,-0.89,0.48,-0.90,0.47,-0.47,-0.75,-1.36,-1.37,-1.37
659,-0.86,0.49,-0.86,0.49,-0.49,-0.77,-1.35,-1.35,-1.35
665,-0.83,0.51,-0.83,0.51,-0.51,-0.78,-1.34,-1.34,-1.34
672,-0.79,0.54,-0.80,0.53,-0.53,-0.79,-1.32,-1.33,-1.33
679,-0.79,0.53,-0.78,0.54,-0.54,-0.81,-1.33,-1.32,-1.32
686,-0.74,0.57,-0.75,0.55,-0.55,-0.83,-1.29,-1.31,-1.31
692,-0.73,0.57,-0.74,0.56,-0.56,-0.84,-1.29,-1.30,-1.30
699,-0.69,0.60,-0.72,0.57,-0.57,-0.86,-1.26,-1.29,-1.29
706,-0.69,0.59,-0.71,0.57,-0.57,-0.88,-1.26,-1.28,-1.28
713,-0.69,0.58,-0.70,0.58,-0.58,-0.90,-1.27,-1.27,-1.27
721,-0.69,0.58,-0.69,0.57,-0.57,-0.92,-1.26,-1.26,-1.26
728,-0.69,0.57,-0.68,0.57,-0.57,-0.94,-1.26,-1.26,-1.26
735,-0.69,0.56,-0.68,0.57,-0.57,-0.96,-1.26,-1.25,-1.25
742,-0.67,0.57,-0.68,0.56,-0.56,-0.98,-1.23,-1.24,-1.24
750,-0.69,0.55,-0.68,0.56,-0.56,-1.00,-1.25,-1.23,-1.23
757,-0.69,0.54,-0.67,0.56,-0.56,-1.03,-1.24,-1.23,-1.23
765,-0.69,0.53,-0.67,0.55,-0.55,-1.05,-1.24,-1.22,-1.22
773,-0.69,0.53,-0.67,0.55,-0.55,-1.07,-1.24,-1.22,-1.22
780,-0.69,0.52,-0.66,0.55,-0.55,-1.10,-1.24,-1.21,-1.21
788,-0.67,0.54,-0.66,0.54,-0.54,-1.12,-1.21,-1.21,-1.21
796,-0.65,0.55,-0.66,0.54,-0.54,-1.15,-1.19,-1.20,-1.20
804,-0.65,0.55,-0.66,0.54,-0.54,-1.17,-1.19,-1.20,-1.20
812,-0.65,0.54,-0.66,0.53,-0.53,-1.20,-1.18,-1.19,-1.19
820,-0.65,0.54,-0.67,0.52,-0.52,-1.22,-1.17,-1.19,-1.19
828,-0.65,0.54,-0.68,0.51,-0.51,-1.24,-1.16,-1.19,-1.19
837,-0.69,0.50,-0.69,0.49,-0.49,-1.27,-1.18,-1.18,-1.18
845,-0.69,0.49,-0.71,0.47,-0.47,-1.29,-1.16,-1.18,-1.18
853,-0.69,0.49,-0.72,0.45,-0.45,-1.31,-1.14,-1.18,-1.18
862,-0.72,0.46,-0.74,0.43,-0.43,-1.34,-1.15,-1.18,-1.18
871,-0.74,0.43,-0.76,0.41,-0.41,-1.36,-1.15,-1.17,-1.17
879,-0.75,0.42,-0.77,0.40,-0.40,-1.37,-1.15,-1.17,-1.17
888,-0.79,0.38,-0.78,0.38,-0.38,-1.39,-1.17,-1.16,-1.16
897,-0.79,0.37,-0.78,0.38,-0.38,-1.41,-1.17,-1.16,-1.16
906,-0.79,0.37,-0.77,0.38,-0.38,-1.42,-1.17,-1.15,-1.15
915,-0.79,0.36,-0.75,0.39,-0.39,-1.44,-1.18,-1.15,-1.15
924,-0.76,0.38,-0.72,0.42,-0.42,-1.45,-1.18,-1.14,-1.14
933,-0.74,0.39,-0.67,0.46,-0.46,-1.45,-1.20,-1.13,-1.13
943,-0.69,0.43,-0.61,0.51,-0.51,-1.46,-1.20,-1.12,-1.12
952,-0.61,0.50,-0.54,0.57,-0.57,-1.46,-1.18,-1.11,-1.11
962,-0.52,0.58,-0.45,0.65,-0.65,-1.46,-1.16,-1.10,-1.10
971,-0.37,0.72,-0.36,0.73,-0.73,-1.46,-1.10,-1.09,-1.09
981,-0.22,0.85,-0.26,0.82,-0.82,-1.45,-1.03,-1.07,-1.07
991,-0.10,0.96,-0.15,0.91,-0.91,-1.44,-1.01,-1.06,-1.06
1001,0.01,1.05,-0.04,1.00,-1.00,-1.43,-0.99,-1.04,-1.04
1011,0.12,1.14,0.07,1.09,-1.09,-1.41,-0.97,-1.02,-1.02
1021,0.23,1.23,0.18,1.18,-1.18,-1.39,-0.95,-1.00,-1.00
1031,0.29,1.27,0.29,1.27,-1.27,-1.37,-0.97,-0.98,-0.98
1041,0.39,1.34,0.39,1.34,-1.34,-1.34,-0.95,-0.95,-0.95
1052,0.47,1.40,0.48,1.41,-1.41,-1.31,-0.94,-0.93,-0.93
1062,0.57,1.47,0.57,1.47,-1.47,-1.28,-0.90,-0.90,-0.90
1073,0.63,1.50,0.65,1.53,-1.53,-1.25,-0.89,-0.87,-0.87
1084,0.72,1.56,0.72,1.57,-1.57,-1.21,-0.85,-0.84,-0.84
1094,0.80,1.61,0.79,1.60,-1.60,-1.17,-0.80,-0.81,-0.81
1105,0.87,1.65,0.84,1.62,-1.62,-1.12,-0.75,-0.78,-0.78
1116,0.91,1.66,0.89,1.64,-1.64,-1.08,-0.73,-0.75,-0.75
1128,0.94,1.65,0.93,1.64,-1.64,-1.03,-0.70,-0.71,-0.71
1139,0.99,1.67,0.96,1.64,-1.64,-0.98,-0.65,-0.68,-0.68
1150,1.02,1.66,0.99,1.63,-1.63,-0.93,-0.61,-0.64,-0.64
1162,1.03,1.63,1.01,1.61,-1.61,-0.87,-0.58,-0.60,-0.60
1173,1.03,1.59,1.03,1.58,-1.58,-0.82,-0.55,-0.56,-0.56
1185,1.03,1.54,1.04,1.55,-1.55,-0.76,-0.52,-0.51,-0.51
1197,1.03,1.50,1.05,1.52,-1.52,-0.71,-0.49,-0.47,-0.47
1209,1.03,1.45,1.06,1.48,-1.48,-0.65,-0.45,-0.42,-0.42
1221,1.03,1.40,1.07,1.44,-1.44,-0.59,-0.41,-0.37,-0.37
1233,1.03,1.35,1.08,1.41,-1.41,-0.53,-0.38,-0.32,-0.32
1246,1.08,1.35,1.10,1.37,-1.37,-0.46,-0.29,-0.27,-0.27
1258,1.10,1.32,1.11,1.33,-1.33,-0.40,-0.23,-0.22,-0.22
1271,1.13,1.29,1.13,1.29,-1.29,-0.34,-0.16,-0.16,-0.16
1283,1.16,1.27,1.14,1.25,-1.25,-0.28,-0.09,-0.10,-0.11
1296,1.17,1.22,1.16,1.20,-1.20,-0.22,-0.03,-0.05,-0.05
1309,1.17,1.16,1.17,1.16,-1.16,-0.15,0.01,0.01,0.01
1322,1.17,1.10,1.18,1.11,-1.11,-0.09,0.06,0.08,0.08
1335,1.22,1.08,1.19,1.05,-1.05,-0.02,0.17,0.14,0.14
1349,1.22,1.02,1.20,1.00,-1.00,0.04,0.22,0.20,0.20
1362,1.22,0.95,1.20,0.93,-0.93,0.11,0.29,0.27,0.27
1376,1.22,0.89,1.20,0.87,-0.87,0.17,0.35,0.34,0.34
1390,1.21,0.81,1.20,0.80,-0.80,0.24,0.41,0.40,0.40
1404,1.20,0.73,1.20,0.73,-0.73,0.31,0.47,0.47,0.47
1418,1.17,0.63,1.19,0.65,-0.65,0.37,0.52,0.54,0.54
1432,1.17,0.55,1.19,0.57,-0.57,0.44,0.60,0.61,0.62
1446,1.17,0.48,1.18,0.49,-0.49,0.51,0.68,0.69,0.69
1461,1.17,0.41,1.18,0.41,-0.41,0.58,0.76,0.76,0.76
1475,1.17,0.33,1.17,0.33,-0.33,0.64,0.84,0.84,0.84
1490,1.17,0.26,1.17,0.25,-0.25,0.71,0.92,0.91,0.92
1505,1.17,0.18,1.16,0.17,-0.17,0.78,1.00,0.99,0.99
1520,1.17,0.10,1.16,0.09,-0.09,0.85,1.08,1.07,1.07
1535,1.17,0.01,1.16,0.00,-0.00,0.92,1.17,1.16,1.16
1550,1.17,-0.07,1.16,-0.08,0.08,0.98,1.25,1.24,1.24
1566,1.17,-0.16,1.17,-0.16,0.16,1.05,1.33,1.33,1.33
1582,1.17,-0.24,1.18,-0.24,0.24,1.12,1.41,1.41,1.41
1597,1.17,-0.33,1.19,-0.31,0.31,1.19,1.48,1.51,1.50
1613,1.20,-0.40,1.21,-0.39,0.39,1.26,1.59,1.60,1.60
1629,1.20,-0.49,1.23,-0.46,0.46,1.32,1.66,1.69,1.69
1646,1.22,-0.57,1.26,-0.54,0.54,1.39,1.76,1.79,1.79
1662,1.24,-0.65,1.28,-0.61,0.61,1.46,1.85,1.89,1.89
1679,1.30,-0.69,1.31,-0.69,0.69,1.53,1.99,2.00,2.00
