frequency,raw,smoothed,error,error_smoothed,equalization,parametric_eq,fixed_band_eq,equalized_raw,equalized_smoothed,target
20.00,8.57,8.57,0.05,0.05,-0.04,-0.56,-0.31,8.53,8.52,8.52
20.20,8.57,8.57,0.05,0.05,-0.05,-0.56,-0.32,8.52,8.52,8.52
20.40,8.58,8.57,0.06,0.05,-0.06,-0.56,-0.33,8.52,8.52,8.52
20.61,8.58,8.58,0.06,0.06,-0.07,-0.57,-0.34,8.51,8.52,8.52
20.81,8.60,8.59,0.08,0.08,-0.08,-0.57,-0.35,8.52,8.52,8.52
21.02,8.61,8.61,0.09,0.09,-0.09,-0.57,-0.36,8.51,8.52,8.52
21.23,8.63,8.63,0.11,0.11,-0.11,-0.57,-0.37,8.52,8.52,8.52
21.44,8.65,8.65,0.13,0.13,-0.13,-0.58,-0.38,8.52,8.52,8.52
21.66,8.67,8.67,0.15,0.15,-0.15,-0.58,-0.39,8.51,8.51,8.52
21.87,8.69,8.69,0.17,0.18,-0.18,-0.58,-0.40,8.51,8.51,8.52
22.09,8.72,8.72,0.20,0.20,-0.21,-0.59,-0.41,8.51,8.51,8.51
22.31,8.75,8.75,0.23,0.23,-0.23,-0.59,-0.42,8.51,8.51,8.51
22.54,8.78,8.78,0.26,0.27,-0.26,-0.59,-0.44,8.51,8.51,8.51
22.76,8.81,8.81,0.30,0.30,-0.29,-0.59,-0.45,8.51,8.52,8.51
22.99,8.84,8.84,0.33,0.33,-0.32,-0.60,-0.46,8.51,8.51,8.51
23.22,8.87,8.86,0.36,0.35,-0.35,-0.60,-0.47,8.51,8.51,8.51
23.45,8.89,8.89,0.38,0.38,-0.39,-0.60,-0.49,8.50,8.51,8.51
23.69,8.92,8.92,0.41,0.41,-0.42,-0.61,-0.50,8.50,8.50,8.51
23.92,8.95,8.95,0.44,0.44,-0.45,-0.61,-0.51,8.50,8.50,8.51
24.16,8.98,8.98,0.47,0.47,-0.47,-0.62,-0.53,8.50,8.50,8.51
24.40,9.01,9.01,0.50,0.50,-0.50,-0.62,-0.54,8.51,8.50,8.50
24.65,9.03,9.03,0.52,0.53,-0.52,-0.62,-0.56,8.50,8.51,8.50
24.89,9.05,9.05,0.55,0.55,-0.54,-0.63,-0.57,8.51,8.51,8.50
25.14,9.07,9.07,0.57,0.57,-0.56,-0.63,-0.58,8.51,8.51,8.50
25.39,9.08,9.08,0.58,0.58,-0.57,-0.64,-0.60,8.51,8.51,8.50
25.65,9.08,9.08,0.58,0.58,-0.58,-0.64,-0.61,8.50,8.50,8.50
25.91,9.08,9.08,0.58,0.58,-0.58,-0.64,-0.63,8.50,8.50,8.50
26.16,9.08,9.08,0.58,0.58,-0.59,-0.65,-0.64,8.49,8.49,8.49
26.43,9.08,9.08,0.59,0.59,-0.60,-0.65,-0.66,8.48,8.48,8.49
26.69,9.09,9.09,0.60,0.60,-0.60,-0.66,-0.67,8.48,8.48,8.49
26.96,9.10,9.10,0.61,0.61,-0.62,-0.66,-0.69,8.48,8.48,8.49
27.23,9.12,9.12,0.63,0.63,-0.63,-0.67,-0.70,8.48,8.48,8.49
27.50,9.14,9.14,0.65,0.65,-0.65,-0.67,-0.72,8.49,8.48,8.49
27.77,9.16,9.16,0.67,0.67,-0.67,-0.68,-0.73,8.49,8.49,8.48
28.05,9.18,9.18,0.70,0.70,-0.69,-0.69,-0.74,8.48,8.48,8.48
28.33,9.20,9.20,0.72,0.72,-0.71,-0.69,-0.76,8.48,8.48,8.48
28.62,9.22,9.21,0.74,0.74,-0.73,-0.70,-0.77,8.48,8.48,8.48
28.90,9.23,9.23,0.75,0.75,-0.75,-0.70,-0.78,8.48,8.48,8.47
29.19,9.24,9.24,0.77,0.77,-0.77,-0.71,-0.79,8.47,8.47,8.47
29.48,9.25,9.25,0.78,0.78,-0.78,-0.72,-0.80,8.47,8.47,8.47
29.78,9.26,9.26,0.79,0.79,-0.79,-0.72,-0.81,8.47,8.47,8.47
30.08,9.27,9.27,0.80,0.80,-0.80,-0.73,-0.82,8.47,8.47,8.46
30.38,9.27,9.27,0.81,0.81,-0.81,-0.74,-0.83,8.46,8.46,8.46
30.68,9.28,9.28,0.82,0.82,-0.82,-0.75,-0.84,8.46,8.46,8.46
30.99,9.28,9.28,0.82,0.82,-0.82,-0.75,-0.84,8.45,8.45,8.46
31.30,9.29,9.29,0.83,0.83,-0.83,-0.76,-0.85,8.46,8.45,8.45
31.61,9.29,9.29,0.84,0.84,-0.84,-0.77,-0.86,8.45,8.45,8.45
31.93,9.30,9.30,0.85,0.85,-0.85,-0.78,-0.86,8.45,8.45,8.45
32.24,9.30,9.30,0.85,0.86,-0.86,-0.79,-0.86,8.44,8.44,8.44
32.57,9.31,9.31,0.87,0.87,-0.87,-0.80,-0.87,8.44,8.44,8.44
32.89,9.31,9.31,0.87,0.87,-0.87,-0.81,-0.87,8.43,8.43,8.44
33.22,9.32,9.32,0.88,0.88,-0.88,-0.81,-0.87,8.43,8.43,8.43
33.55,9.32,9.32,0.89,0.89,-0.89,-0.82,-0.87,8.43,8.43,8.43
33.89,9.33,9.33,0.90,0.90,-0.90,-0.83,-0.87,8.43,8.43,8.42
34.23,9.33,9.33,0.91,0.91,-0.91,-0.84,-0.87,8.42,8.42,8.42
34.57,9.33,9.33,0.91,0.91,-0.91,-0.85,-0.87,8.42,8.42,8.42
34.92,9.33,9.33,0.92,0.92,-0.92,-0.86,-0.87,8.41,8.41,8.41
35.27,9.33,9.33,0.92,0.92,-0.92,-0.87,-0.87,8.41,8.41,8.41
35.62,9.33,9.32,0.93,0.92,-0.92,-0.88,-0.87,8.41,8.40,8.40
35.97,9.32,9.32,0.92,0.93,-0.92,-0.88,-0.87,8.39,8.40,8.40
36.33,9.32,9.32,0.93,0.93,-0.93,-0.89,-0.87,8.39,8.39,8.39
36.70,9.32,9.31,0.93,0.93,-0.93,-0.90,-0.86,8.39,8.38,8.39
37.06,9.31,9.31,0.93,0.93,-0.93,-0.91,-0.86,8.38,8.38,8.38
37.43,9.31,9.31,0.93,0.93,-0.93,-0.91,-0.86,8.38,8.38,8.37
37.81,9.31,9.30,0.94,0.93,-0.94,-0.92,-0.86,8.37,8.37,8.37
38.19,9.30,9.30,0.94,0.94,-0.94,-0.92,-0.86,8.36,8.36,8.36
38.57,9.30,9.30,0.94,0.94,-0.94,-0.93,-0.86,8.35,8.35,8.36
38.95,9.30,9.30,0.95,0.95,-0.95,-0.94,-0.86,8.35,8.35,8.35
39.34,9.30,9.30,0.96,0.96,-0.96,-0.94,-0.86,8.34,8.34,8.34
39.74,9.30,9.30,0.96,0.96,-0.96,-0.94,-0.86,8.33,8.33,8.33
40.14,9.30,9.30,0.97,0.97,-0.97,-0.95,-0.86,8.33,8.33,8.33
40.54,9.30,9.30,0.98,0.98,-0.98,-0.95,-0.86,8.32,8.32,8.32
40.94,9.30,9.30,0.99,0.98,-0.98,-0.96,-0.86,8.31,8.31,8.31
41.35,9.29,9.29,0.99,0.99,-0.99,-0.96,-0.86,8.30,8.30,8.30
41.76,9.29,9.29,0.99,0.99,-0.99,-0.97,-0.87,8.29,8.29,8.29
42.18,9.28,9.28,0.99,1.00,-1.00,-0.97,-0.87,8.28,8.28,8.28
42.60,9.28,9.28,1.00,1.00,-1.00,-0.97,-0.87,8.28,8.28,8.28
43.03,9.27,9.27,1.00,1.00,-1.00,-0.98,-0.88,8.27,8.27,8.27
43.46,9.26,9.26,1.00,1.00,-1.00,-0.98,-0.88,8.26,8.26,8.26
43.90,9.25,9.25,1.00,1.00,-1.00,-0.99,-0.89,8.24,8.24,8.24
44.33,9.24,9.24,1.00,1.00,-1.01,-0.99,-0.90,8.23,8.23,8.23
44.78,9.23,9.23,1.00,1.00,-1.01,-1.00,-0.90,8.22,8.22,8.22
45.23,9.22,9.22,1.01,1.01,-1.01,-1.00,-0.91,8.21,8.21,8.21
45.68,9.21,9.21,1.01,1.01,-1.01,-1.01,-0.92,8.20,8.20,8.20
46.13,9.20,9.20,1.01,1.01,-1.01,-1.01,-0.93,8.19,8.19,8.19
46.60,9.19,9.19,1.01,1.01,-1.01,-1.02,-0.94,8.18,8.18,8.17
47.06,9.18,9.17,1.02,1.01,-1.01,-1.03,-0.95,8.16,8.16,8.16
47.53,9.16,9.16,1.01,1.01,-1.01,-1.03,-0.96,8.14,8.15,8.15
48.01,9.15,9.15,1.02,1.02,-1.02,-1.04,-0.97,8.13,8.13,8.13
48.49,9.14,9.14,1.02,1.02,-1.02,-1.05,-0.99,8.12,8.12,8.12
48.97,9.13,9.12,1.03,1.02,-1.02,-1.06,-1.00,8.11,8.10,8.10
49.46,9.11,9.11,1.02,1.02,-1.03,-1.07,-1.01,8.08,8.08,8.09
49.96,9.10,9.10,1.03,1.03,-1.03,-1.07,-1.03,8.06,8.06,8.07
50.46,9.09,9.09,1.03,1.04,-1.04,-1.08,-1.04,8.04,8.05,8.05
50.96,9.09,9.09,1.05,1.05,-1.05,-1.09,-1.06,8.03,8.03,8.04
51.47,9.09,9.08,1.07,1.07,-1.06,-1.10,-1.07,8.02,8.02,8.02
51.99,9.08,9.08,1.08,1.08,-1.07,-1.11,-1.09,8.00,8.00,8.00
52.51,9.07,9.07,1.09,1.09,-1.08,-1.12,-1.10,7.98,7.99,7.98
53.03,9.06,9.06,1.10,1.10,-1.09,-1.13,-1.12,7.96,7.96,7.96
53.56,9.05,9.05,1.11,1.11,-1.10,-1.14,-1.14,7.94,7.94,7.94
54.10,9.03,9.03,1.11,1.11,-1.11,-1.15,-1.15,7.91,7.92,7.92
54.64,9.02,9.02,1.12,1.12,-1.12,-1.17,-1.17,7.89,7.89,7.90
55.18,9.00,9.00,1.12,1.13,-1.13,-1.18,-1.19,7.86,7.87,7.87
55.74,9.00,8.99,1.15,1.14,-1.15,-1.19,-1.20,7.85,7.85,7.85
56.29,8.99,8.99,1.16,1.16,-1.16,-1.20,-1.22,7.83,7.82,7.83
56.86,8.98,8.98,1.18,1.18,-1.18,-1.21,-1.24,7.80,7.80,7.80
57.42,8.97,8.97,1.19,1.20,-1.19,-1.23,-1.25,7.77,7.78,7.78
58.00,8.97,8.96,1.22,1.22,-1.21,-1.24,-1.27,7.75,7.75,7.75
58.58,8.96,8.96,1.24,1.23,-1.24,-1.25,-1.29,7.72,7.72,7.72
59.16,8.95,8.95,1.25,1.25,-1.26,-1.27,-1.30,7.69,7.69,7.69
59.76,8.94,8.94,1.27,1.28,-1.28,-1.28,-1.32,7.66,7.66,7.66
60.35,8.94,8.94,1.30,1.30,-1.30,-1.29,-1.33,7.64,7.64,7.64
60.96,8.94,8.93,1.33,1.33,-1.32,-1.31,-1.35,7.61,7.61,7.60
61.57,8.93,8.92,1.35,1.35,-1.35,-1.32,-1.36,7.58,7.57,7.57
62.18,8.90,8.90,1.36,1.36,-1.37,-1.34,-1.37,7.53,7.54,7.54
62.80,8.89,8.90,1.38,1.39,-1.39,-1.35,-1.39,7.50,7.51,7.51
63.43,8.89,8.89,1.41,1.41,-1.41,-1.37,-1.40,7.48,7.48,7.47
64.07,8.89,8.87,1.45,1.44,-1.43,-1.39,-1.41,7.46,7.44,7.44
64.71,8.85,8.85,1.45,1.45,-1.45,-1.40,-1.42,7.40,7.40,7.40
65.35,8.82,8.83,1.45,1.46,-1.46,-1.42,-1.43,7.36,7.37,7.36
66.01,8.80,8.81,1.47,1.48,-1.48,-1.44,-1.45,7.32,7.33,7.33
66.67,8.80,8.79,1.51,1.50,-1.49,-1.45,-1.46,7.30,7.29,7.29
67.33,8.77,8.76,1.52,1.51,-1.51,-1.47,-1.47,7.25,7.25,7.25
68.01,8.72,8.72,1.51,1.52,-1.53,-1.49,-1.48,7.19,7.19,7.21
68.69,8.69,8.70,1.52,1.53,-1.55,-1.51,-1.49,7.14,7.15,7.16
69.37,8.68,8.69,1.56,1.57,-1.57,-1.53,-1.50,7.11,7.13,7.12
70.07,8.71,8.69,1.63,1.61,-1.59,-1.54,-1.51,7.12,7.10,7.08
70.77,8.68,8.66,1.65,1.63,-1.62,-1.56,-1.52,7.06,7.04,7.03
71.48,8.62,8.62,1.63,1.64,-1.65,-1.58,-1.53,6.97,6.97,6.99
72.19,8.57,8.59,1.63,1.65,-1.68,-1.60,-1.54,6.89,6.91,6.94
72.91,8.57,8.58,1.68,1.69,-1.70,-1.62,-1.56,6.86,6.88,6.89
73.64,8.61,8.60,1.77,1.75,-1.73,-1.64,-1.57,6.88,6.86,6.84
74.38,8.61,8.58,1.82,1.79,-1.76,-1.66,-1.58,6.85,6.82,6.79
75.12,8.55,8.54,1.81,1.80,-1.79,-1.69,-1.60,6.75,6.75,6.74
75.87,8.46,8.48,1.77,1.79,-1.82,-1.71,-1.61,6.63,6.66,6.69
76.63,8.43,8.44,1.79,1.81,-1.84,-1.73,-1.63,6.58,6.60,6.63
77.40,8.44,8.44,1.86,1.86,-1.85,-1.75,-1.64,6.58,6.59,6.58
78.17,8.45,8.44,1.92,1.91,-1.86,-1.77,-1.66,6.59,6.58,6.52
78.95,8.43,8.39,1.96,1.92,-1.87,-1.80,-1.68,6.55,6.52,6.47
79.74,8.30,8.30,1.89,1.89,-1.89,-1.82,-1.70,6.41,6.41,6.41
80.54,8.19,8.21,1.83,1.85,-1.91,-1.84,-1.72,6.28,6.30,6.35
81.35,8.12,8.14,1.82,1.85,-1.92,-1.87,-1.75,6.20,6.22,6.29
82.16,8.15,8.15,1.91,1.91,-1.93,-1.89,-1.77,6.22,6.22,6.23
82.98,8.16,8.15,1.99,1.98,-1.93,-1.91,-1.80,6.23,6.22,6.17
83.81,8.16,8.12,2.05,2.01,-1.94,-1.94,-1.82,6.22,6.18,6.11
84.65,8.04,8.04,1.99,1.99,-1.96,-1.96,-1.85,6.07,6.07,6.05
85.50,7.93,7.94,1.94,1.95,-2.00,-1.99,-1.88,5.93,5.94,5.98
86.35,7.84,7.87,1.92,1.95,-2.02,-2.02,-1.91,5.81,5.84,5.92
87.22,7.85,7.85,1.99,2.00,-2.04,-2.04,-1.95,5.81,5.81,5.85
88.09,7.88,7.86,2.09,2.07,-2.04,-2.07,-1.98,5.83,5.82,5.79
88.97,7.87,7.86,2.15,2.14,-2.05,-2.10,-2.02,5.82,5.81,5.72
89.86,7.82,7.80,2.16,2.15,-2.08,-2.12,-2.05,5.74,5.73,5.65
90.76,7.71,7.71,2.12,2.12,-2.12,-2.15,-2.09,5.59,5.59,5.59
91.66,7.61,7.62,2.09,2.10,-2.18,-2.18,-2.13,5.42,5.44,5.52
92.58,7.56,7.58,2.11,2.13,-2.25,-2.21,-2.18,5.30,5.33,5.45
93.51,7.60,7.60,2.22,2.22,-2.32,-2.23,-2.22,5.28,5.28,5.38
94.44,7.67,7.67,2.36,2.36,-2.38,-2.26,-2.26,5.28,5.28,5.31
95.39,7.74,7.73,2.50,2.49,-2.43,-2.29,-2.31,5.30,5.30,5.24
96.34,7.76,7.74,2.59,2.58,-2.46,-2.32,-2.36,5.30,5.28,5.17
97.30,7.69,7.68,2.59,2.58,-2.46,-2.35,-2.41,5.23,5.22,5.10
98.28,7.54,7.54,2.51,2.51,-2.42,-2.38,-2.46,5.12,5.12,5.02
99.26,7.34,7.34,2.39,2.38,-2.34,-2.41,-2.51,5.00,5.00,4.95
100.25,7.11,7.11,2.23,2.23,-2.23,-2.44,-2.56,4.88,4.88,4.88
101.25,6.88,6.88,2.07,2.08,-2.11,-2.47,-2.61,4.77,4.77,4.81
102.27,6.68,6.68,1.95,1.94,-2.01,-2.50,-2.66,4.67,4.67,4.73
103.29,6.52,6.52,1.86,1.86,-1.94,-2.53,-2.72,4.58,4.58,4.66
104.32,6.42,6.43,1.83,1.84,-1.92,-2.56,-2.77,4.50,4.51,4.59
105.37,6.41,6.41,1.89,1.89,-1.96,-2.59,-2.82,4.45,4.44,4.51
106.42,6.45,6.45,2.01,2.01,-2.06,-2.62,-2.88,4.39,4.39,4.44
107.48,6.54,6.54,2.17,2.17,-2.20,-2.65,-2.93,4.34,4.35,4.37
108.56,6.67,6.66,2.37,2.37,-2.37,-2.68,-2.98,4.30,4.30,4.30
109.64,6.80,6.80,2.58,2.58,-2.56,-2.71,-3.03,4.24,4.24,4.22
110.74,6.93,6.92,2.78,2.77,-2.74,-2.74,-3.08,4.18,4.18,4.15
111.85,7.03,7.02,2.95,2.95,-2.91,-2.77,-3.12,4.12,4.11,4.08
112.97,7.09,7.09,3.08,3.09,-3.05,-2.80,-3.17,4.04,4.04,4.01
114.10,7.12,7.11,3.18,3.18,-3.15,-2.83,-3.21,3.96,3.96,3.93
115.24,7.10,7.09,3.24,3.23,-3.21,-2.86,-3.25,3.89,3.89,3.86
116.39,7.02,7.02,3.23,3.23,-3.21,-2.89,-3.29,3.81,3.81,3.79
117.55,6.92,6.91,3.20,3.19,-3.14,-2.92,-3.32,3.78,3.77,3.72
118.73,6.75,6.75,3.10,3.10,-3.01,-2.95,-3.35,3.74,3.74,3.65
119.92,6.56,6.56,2.98,2.98,-2.87,-2.98,-3.38,3.69,3.70,3.58
121.12,6.34,6.33,2.83,2.81,-2.73,-3.01,-3.40,3.61,3.60,3.51
122.33,6.07,6.05,2.62,2.61,-2.61,-3.04,-3.42,3.45,3.44,3.44
123.55,5.78,5.76,2.40,2.39,-2.54,-3.06,-3.43,3.23,3.22,3.38
124.79,5.51,5.52,2.20,2.21,-2.54,-3.09,-3.44,2.97,2.98,3.31
126.03,5.38,5.40,2.13,2.16,-2.62,-3.12,-3.45,2.76,2.78,3.24
127.29,5.44,5.47,2.26,2.29,-2.78,-3.14,-3.45,2.66,2.69,3.18
128.57,5.71,5.73,2.59,2.62,-2.98,-3.17,-3.45,2.72,2.75,3.11
129.85,6.11,6.10,3.06,3.05,-3.21,-3.19,-3.44,2.90,2.89,3.05
131.15,6.51,6.48,3.52,3.49,-3.43,-3.21,-3.43,3.07,3.05,2.99
132.46,6.76,6.74,3.83,3.82,-3.62,-3.24,-3.42,3.14,3.13,2.93
133.79,6.87,6.84,4.00,3.97,-3.74,-3.26,-3.40,3.13,3.09,2.86
135.12,6.76,6.75,3.95,3.94,-3.79,-3.28,-3.38,2.97,2.95,2.80
136.48,6.56,6.55,3.81,3.81,-3.80,-3.30,-3.36,2.76,2.75,2.74
137.84,6.30,6.34,3.61,3.65,-3.78,-3.32,-3.33,2.52,2.56,2.69
139.22,6.17,6.19,3.54,3.56,-3.73,-3.34,-3.30,2.44,2.46,2.63
140.61,6.11,6.12,3.54,3.55,-3.66,-3.35,-3.27,2.45,2.46,2.57
142.02,6.12,6.10,3.60,3.58,-3.59,-3.37,-3.24,2.53,2.51,2.52
143.44,6.09,6.06,3.63,3.60,-3.55,-3.38,-3.20,2.54,2.51,2.46
144.87,5.99,5.99,3.58,3.58,-3.54,-3.40,-3.17,2.45,2.45,2.41
146.32,5.90,5.91,3.54,3.55,-3.54,-3.41,-3.13,2.36,2.37,2.35
147.78,5.82,5.83,3.51,3.53,-3.54,-3.42,-3.10,2.28,2.29,2.30
149.26,5.79,5.78,3.53,3.52,-3.54,-3.43,-3.06,2.25,2.24,2.25
150.75,5.73,5.72,3.52,3.52,-3.52,-3.43,-3.03,2.21,2.20,2.20
152.26,5.66,5.66,3.50,3.51,-3.50,-3.44,-2.99,2.16,2.17,2.15
153.78,5.60,5.60,3.49,3.49,-3.48,-3.45,-2.96,2.12,2.12,2.11
155.32,5.53,5.53,3.47,3.47,-3.47,-3.45,-2.93,2.06,2.06,2.06
156.88,5.47,5.46,3.45,3.45,-3.45,-3.45,-2.89,2.01,2.01,2.02
158.44,5.40,5.40,3.43,3.43,-3.44,-3.45,-2.86,1.96,1.96,1.97
160.03,5.34,5.34,3.41,3.42,-3.43,-3.45,-2.83,1.91,1.91,1.93
161.63,5.29,5.29,3.41,3.41,-3.41,-3.44,-2.80,1.87,1.87,1.88
163.24,5.24,5.24,3.40,3.41,-3.40,-3.44,-2.77,1.84,1.84,1.83
164.88,5.20,5.19,3.40,3.40,-3.39,-3.43,-2.75,1.81,1.80,1.79
166.53,5.14,5.14,3.38,3.39,-3.38,-3.43,-2.73,1.76,1.76,1.75
168.19,5.09,5.09,3.37,3.37,-3.36,-3.42,-2.71,1.72,1.72,1.72
169.87,5.03,5.03,3.35,3.35,-3.35,-3.41,-2.68,1.68,1.68,1.68
171.57,4.97,4.97,3.33,3.33,-3.33,-3.39,-2.67,1.63,1.64,1.64
173.29,4.92,4.92,3.31,3.31,-3.31,-3.38,-2.65,1.60,1.60,1.61
175.02,4.87,4.86,3.30,3.29,-3.29,-3.36,-2.64,1.57,1.57,1.57
176.77,4.81,4.81,3.27,3.27,-3.27,-3.35,-2.63,1.53,1.54,1.54
178.54,4.76,4.76,3.25,3.25,-3.25,-3.33,-2.62,1.50,1.51,1.51
180.32,4.71,4.71,3.23,3.23,-3.23,-3.31,-2.61,1.48,1.48,1.47
182.13,4.66,4.66,3.21,3.21,-3.21,-3.29,-2.61,1.45,1.45,1.44
183.95,4.61,4.60,3.19,3.19,-3.19,-3.26,-2.60,1.42,1.41,1.41
185.79,4.55,4.55,3.16,3.17,-3.17,-3.24,-2.60,1.38,1.38,1.38
187.65,4.50,4.50,3.14,3.14,-3.14,-3.21,-2.60,1.35,1.35,1.36
189.52,4.45,4.45,3.12,3.12,-3.12,-3.19,-2.60,1.33,1.33,1.33
191.42,4.40,4.40,3.10,3.10,-3.10,-3.16,-2.61,1.30,1.30,1.30
193.33,4.35,4.35,3.07,3.07,-3.07,-3.13,-2.61,1.28,1.28,1.28
195.27,4.30,4.30,3.05,3.05,-3.05,-3.10,-2.62,1.25,1.25,1.25
197.22,4.25,4.25,3.02,3.02,-3.02,-3.07,-2.63,1.23,1.23,1.23
199.19,4.20,4.20,2.99,2.99,-2.99,-3.04,-2.64,1.20,1.20,1.20
201.18,4.15,4.15,2.97,2.97,-2.97,-3.00,-2.65,1.18,1.18,1.18
203.19,4.10,4.10,2.94,2.94,-2.94,-2.97,-2.66,1.16,1.16,1.16
205.23,4.05,4.05,2.91,2.91,-2.92,-2.93,-2.68,1.13,1.14,1.14
207.28,4.01,4.00,2.89,2.89,-2.89,-2.90,-2.69,1.12,1.12,1.12
209.35,3.96,3.96,2.86,2.86,-2.86,-2.86,-2.71,1.10,1.10,1.10
211.44,3.91,3.91,2.83,2.83,-2.83,-2.82,-2.72,1.08,1.08,1.08
213.56,3.86,3.86,2.80,2.80,-2.80,-2.78,-2.73,1.05,1.06,1.06
215.69,3.82,3.81,2.78,2.78,-2.78,-2.74,-2.75,1.04,1.04,1.04
217.85,3.77,3.77,2.75,2.75,-2.75,-2.70,-2.76,1.02,1.02,1.02
220.03,3.72,3.72,2.71,2.72,-2.72,-2.66,-2.77,1.00,1.00,1.00
222.23,3.67,3.67,2.68,2.68,-2.68,-2.62,-2.78,0.98,0.99,0.99
224.45,3.63,3.62,2.66,2.65,-2.65,-2.58,-2.79,0.98,0.97,0.97
226.70,3.58,3.58,2.62,2.62,-2.62,-2.54,-2.80,0.96,0.96,0.96
228.96,3.53,3.53,2.59,2.59,-2.59,-2.50,-2.81,0.94,0.94,0.94
231.25,3.48,3.48,2.55,2.55,-2.55,-2.45,-2.81,0.92,0.92,0.93
233.57,3.43,3.43,2.52,2.52,-2.52,-2.41,-2.81,0.91,0.91,0.91
235.90,3.38,3.38,2.49,2.49,-2.49,-2.37,-2.81,0.89,0.89,0.89
238.26,3.33,3.33,2.45,2.45,-2.45,-2.32,-2.80,0.88,0.88,0.88
240.64,3.28,3.28,2.41,2.41,-2.41,-2.28,-2.79,0.87,0.87,0.86
243.05,3.23,3.22,2.38,2.37,-2.37,-2.24,-2.78,0.86,0.85,0.85
245.48,3.17,3.17,2.33,2.33,-2.33,-2.19,-2.76,0.84,0.84,0.84
247.93,3.12,3.12,2.29,2.29,-2.29,-2.15,-2.74,0.83,0.83,0.83
250.41,3.07,3.06,2.25,2.25,-2.25,-2.10,-2.72,0.82,0.82,0.82
252.92,3.01,3.01,2.20,2.20,-2.20,-2.06,-2.69,0.80,0.81,0.81
255.45,2.96,2.96,2.16,2.16,-2.16,-2.01,-2.66,0.80,0.80,0.80
258.00,2.90,2.90,2.11,2.11,-2.11,-1.97,-2.62,0.78,0.79,0.79
260.58,2.85,2.84,2.07,2.07,-2.07,-1.92,-2.58,0.78,0.78,0.78
263.19,2.79,2.79,2.02,2.02,-2.02,-1.88,-2.54,0.76,0.77,0.77
265.82,2.74,2.74,1.98,1.98,-1.98,-1.83,-2.49,0.76,0.76,0.76
268.48,2.69,2.68,1.94,1.93,-1.93,-1.79,-2.44,0.75,0.75,0.75
271.16,2.63,2.63,1.89,1.89,-1.89,-1.74,-2.39,0.74,0.74,0.74
273.87,2.58,2.57,1.84,1.84,-1.84,-1.70,-2.33,0.74,0.73,0.73
276.61,2.52,2.52,1.79,1.79,-1.79,-1.65,-2.27,0.72,0.73,0.73
279.38,2.47,2.47,1.75,1.75,-1.75,-1.61,-2.21,0.72,0.72,0.72
282.17,2.42,2.41,1.71,1.70,-1.70,-1.56,-2.15,0.72,0.72,0.71
284.99,2.36,2.36,1.64,1.65,-1.65,-1.52,-2.08,0.71,0.71,0.72
287.84,2.31,2.31,1.59,1.59,-1.60,-1.47,-2.01,0.71,0.71,0.72
290.72,2.26,2.26,1.55,1.55,-1.55,-1.43,-1.94,0.71,0.71,0.71
293.63,2.21,2.21,1.50,1.50,-1.49,-1.38,-1.87,0.71,0.71,0.71
296.57,2.16,2.15,1.45,1.44,-1.44,-1.33,-1.80,0.72,0.71,0.71
299.53,2.10,2.10,1.38,1.39,-1.39,-1.29,-1.72,0.71,0.71,0.71
302.53,2.05,2.05,1.34,1.34,-1.34,-1.24,-1.65,0.71,0.71,0.71
305.55,2.00,2.00,1.28,1.28,-1.29,-1.20,-1.57,0.71,0.71,0.71
308.61,1.95,1.95,1.24,1.24,-1.24,-1.15,-1.50,0.71,0.71,0.71
311.69,1.90,1.90,1.18,1.19,-1.18,-1.11,-1.42,0.71,0.71,0.71
314.81,1.85,1.84,1.14,1.13,-1.13,-1.06,-1.35,0.72,0.71,0.71
317.96,1.79,1.79,1.07,1.08,-1.08,-1.02,-1.27,0.71,0.71,0.71
321.14,1.74,1.74,1.03,1.02,-1.03,-0.97,-1.20,0.71,0.71,0.71
324.35,1.69,1.69,0.97,0.97,-0.97,-0.92,-1.12,0.71,0.71,0.72
327.59,1.64,1.64,0.92,0.92,-0.92,-0.88,-1.04,0.72,0.72,0.72
330.87,1.59,1.59,0.87,0.87,-0.87,-0.83,-0.97,0.72,0.72,0.72
334.18,1.54,1.54,0.81,0.82,-0.82,-0.79,-0.89,0.72,0.72,0.72
337.52,1.49,1.49,0.77,0.77,-0.76,-0.74,-0.82,0.73,0.73,0.72
340.90,1.44,1.44,0.71,0.71,-0.71,-0.69,-0.74,0.73,0.73,0.73
344.30,1.39,1.39,0.65,0.66,-0.65,-0.65,-0.67,0.73,0.73,0.73
347.75,1.34,1.34,0.60,0.60,-0.60,-0.60,-0.59,0.74,0.74,0.74
351.23,1.29,1.29,0.55,0.54,-0.55,-0.55,-0.52,0.74,0.74,0.74
354.74,1.24,1.24,0.48,0.49,-0.49,-0.50,-0.44,0.74,0.75,0.75
358.28,1.19,1.19,0.44,0.44,-0.44,-0.45,-0.37,0.75,0.75,0.75
361.87,1.15,1.14,0.39,0.39,-0.38,-0.41,-0.30,0.76,0.76,0.76
365.49,1.10,1.10,0.33,0.34,-0.33,-0.36,-0.23,0.77,0.77,0.76
369.14,1.05,1.05,0.29,0.28,-0.28,-0.31,-0.15,0.77,0.77,0.76
372.83,1.00,1.00,0.22,0.22,-0.23,-0.26,-0.08,0.77,0.77,0.78
376.56,0.95,0.95,0.17,0.17,-0.17,-0.21,-0.01,0.77,0.78,0.78
380.33,0.91,0.90,0.12,0.12,-0.12,-0.16,0.06,0.79,0.78,0.78
384.13,0.86,0.86,0.07,0.07,-0.07,-0.10,0.13,0.79,0.79,0.78
387.97,0.81,0.81,0.02,0.02,-0.01,-0.05,0.20,0.79,0.80,0.79
391.85,0.76,0.76,-0.05,-0.04,0.04,-0.00,0.27,0.80,0.80,0.81
395.77,0.72,0.71,-0.09,-0.10,0.09,0.05,0.34,0.81,0.81,0.81
399.73,0.67,0.67,-0.15,-0.15,0.14,0.10,0.41,0.81,0.81,0.81
403.72,0.62,0.62,-0.20,-0.20,0.20,0.15,0.48,0.81,0.82,0.82
407.76,0.58,0.57,-0.24,-0.25,0.25,0.21,0.55,0.83,0.82,0.82
411.84,0.53,0.53,-0.30,-0.30,0.30,0.26,0.61,0.83,0.83,0.83
415.96,0.49,0.49,-0.35,-0.35,0.35,0.31,0.68,0.84,0.84,0.84
420.12,0.44,0.44,-0.40,-0.40,0.40,0.36,0.74,0.84,0.84,0.84
424.32,0.40,0.40,-0.45,-0.45,0.45,0.41,0.81,0.85,0.85,0.84
428.56,0.35,0.35,-0.50,-0.50,0.50,0.46,0.87,0.85,0.85,0.85
432.85,0.31,0.30,-0.55,-0.55,0.55,0.51,0.93,0.86,0.86,0.86
437.18,0.26,0.26,-0.60,-0.60,0.60,0.56,0.99,0.86,0.86,0.86
441.55,0.22,0.22,-0.65,-0.65,0.65,0.61,1.05,0.87,0.87,0.87
445.96,0.18,0.18,-0.70,-0.70,0.71,0.65,1.11,0.88,0.88,0.88
450.42,0.14,0.14,-0.76,-0.76,0.76,0.70,1.16,0.89,0.89,0.90
454.93,0.10,0.09,-0.81,-0.81,0.81,0.75,1.21,0.90,0.90,0.90
459.48,0.05,0.05,-0.87,-0.86,0.86,0.79,1.26,0.90,0.91,0.91
464.07,0.01,0.01,-0.90,-0.91,0.90,0.84,1.31,0.91,0.91,0.91
468.71,-0.03,-0.03,-0.95,-0.95,0.95,0.89,1.36,0.92,0.92,0.92
473.40,-0.07,-0.07,-1.00,-1.00,1.00,0.94,1.40,0.93,0.93,0.93
478.13,-0.10,-0.11,-1.04,-1.04,1.05,0.98,1.44,0.94,0.94,0.94
482.91,-0.14,-0.14,-1.09,-1.09,1.09,1.03,1.48,0.95,0.95,0.95
487.74,-0.18,-0.18,-1.14,-1.14,1.14,1.08,1.52,0.96,0.96,0.96
492.62,-0.22,-0.22,-1.19,-1.19,1.19,1.13,1.55,0.97,0.97,0.97
497.55,-0.26,-0.26,-1.24,-1.24,1.24,1.18,1.58,0.98,0.98,0.98
502.52,-0.30,-0.30,-1.29,-1.29,1.29,1.23,1.60,0.98,0.99,0.98
507.55,-0.33,-0.34,-1.34,-1.34,1.34,1.28,1.63,1.00,1.00,1.00
512.62,-0.37,-0.37,-1.39,-1.38,1.38,1.33,1.65,1.01,1.01,1.01
517.75,-0.41,-0.41,-1.43,-1.43,1.43,1.38,1.67,1.02,1.02,1.02
522.93,-0.44,-0.45,-1.47,-1.48,1.47,1.44,1.68,1.03,1.03,1.03
528.16,-0.48,-0.48,-1.52,-1.52,1.52,1.49,1.69,1.04,1.04,1.04
533.44,-0.51,-0.52,-1.56,-1.56,1.56,1.54,1.70,1.05,1.05,1.05
538.77,-0.55,-0.55,-1.60,-1.60,1.61,1.60,1.71,1.06,1.06,1.05
544.16,-0.58,-0.58,-1.65,-1.65,1.65,1.66,1.72,1.07,1.07,1.07
549.60,-0.61,-0.61,-1.69,-1.69,1.70,1.71,1.72,1.08,1.08,1.08
