frequency,raw,error,smoothed,error_smoothed,equalization,parametric_eq,equalized_raw,equalized_smoothed,target
20,-3.46,-5.48,-3.48,-5.49,5.49,1.84,2.03,2.02,2.02
21,-3.32,-5.34,-3.33,-5.34,5.34,2.12,2.02,2.01,2.02
22,-3.20,-5.22,-3.18,-5.19,5.19,2.43,1.99,2.01,2.02
23,-3.06,-5.08,-3.04,-5.05,5.05,2.76,1.99,2.01,2.02
24,-2.91,-4.92,-2.90,-4.91,4.91,3.11,2.00,2.01,2.02
25,-2.78,-4.79,-2.77,-4.78,4.78,3.47,2.00,2.01,2.01
26,-2.65,-4.66,-2.64,-4.65,4.65,3.83,2.00,2.01,2.01
27,-2.52,-4.52,-2.52,-4.52,4.52,4.17,2.00,2.00,2.01
28,-2.40,-4.40,-2.41,-4.40,4.40,4.46,2.00,2.00,2.00
29,-2.27,-4.27,-2.30,-4.29,4.29,4.70,2.02,1.99,2.00
30,-2.15,-4.14,-2.19,-4.18,4.18,4.86,2.03,1.99,1.99
31,-2.06,-4.05,-2.09,-4.08,4.08,4.95,2.02,1.98,1.99
32,-1.99,-3.97,-2.00,-3.98,3.98,4.95,1.99,1.98,1.98
33,-1.92,-3.89,-1.92,-3.88,3.88,4.87,1.97,1.97,1.97
34,-1.85,-3.82,-1.84,-3.80,3.80,4.75,1.95,1.96,1.97
35,-1.78,-3.74,-1.76,-3.71,3.71,4.58,1.93,1.95,1.96
36,-1.71,-3.66,-1.68,-3.63,3.63,4.39,1.92,1.94,1.95
37,-1.63,-3.57,-1.61,-3.54,3.54,4.19,1.91,1.93,1.94
38,-1.56,-3.49,-1.54,-3.46,3.46,3.99,1.90,1.92,1.93
39,-1.48,-3.40,-1.47,-3.38,3.38,3.79,1.91,1.91,1.92
40,-1.41,-3.32,-1.40,-3.31,3.31,3.61,1.90,1.90,1.91
41,-1.33,-3.23,-1.34,-3.23,3.23,3.44,1.90,1.90,1.90
42,-1.26,-3.15,-1.27,-3.16,3.16,3.29,1.90,1.89,1.89
43,-1.20,-3.08,-1.21,-3.08,3.08,3.16,1.89,1.87,1.88
44,-1.14,-3.00,-1.15,-3.02,3.02,3.04,1.88,1.86,1.86
45,-1.09,-2.94,-1.10,-2.95,2.95,2.94,1.86,1.85,1.85
46,-1.04,-2.87,-1.05,-2.89,2.89,2.85,1.85,1.83,1.83
47,-1.01,-2.83,-1.01,-2.83,2.83,2.77,1.82,1.82,1.82
48,-0.97,-2.77,-0.97,-2.77,2.77,2.71,1.81,1.80,1.80
49,-0.95,-2.73,-0.94,-2.72,2.72,2.65,1.77,1.78,1.78
50,-0.92,-2.68,-0.91,-2.67,2.67,2.60,1.75,1.76,1.76
51,-0.89,-2.63,-0.88,-2.62,2.62,2.56,1.74,1.74,1.74
52,-0.86,-2.58,-0.86,-2.58,2.58,2.53,1.72,1.72,1.72
53,-0.84,-2.54,-0.83,-2.53,2.53,2.50,1.69,1.70,1.70
54,-0.81,-2.49,-0.81,-2.48,2.48,2.48,1.67,1.67,1.68
55,-0.79,-2.44,-0.79,-2.43,2.43,2.46,1.65,1.65,1.65
56,-0.76,-2.39,-0.76,-2.38,2.38,2.43,1.63,1.62,1.63
57,-0.74,-2.34,-0.73,-2.33,2.33,2.41,1.59,1.60,1.61
58,-0.72,-2.30,-0.71,-2.28,2.28,2.39,1.56,1.57,1.58
59,-0.70,-2.25,-0.68,-2.23,2.23,2.36,1.53,1.55,1.55
60,-0.67,-2.19,-0.66,-2.18,2.18,2.33,1.51,1.52,1.52
61,-0.65,-2.14,-0.63,-2.13,2.13,2.30,1.48,1.49,1.49
62,-0.62,-2.08,-0.62,-2.08,2.08,2.26,1.46,1.46,1.47
63,-0.59,-2.02,-0.60,-2.03,2.03,2.22,1.44,1.43,1.43
64,-0.56,-1.96,-0.59,-1.99,1.99,2.18,1.43,1.40,1.40
65,-0.55,-1.92,-0.58,-1.95,1.95,2.14,1.40,1.36,1.37
66,-0.55,-1.89,-0.58,-1.91,1.91,2.09,1.36,1.33,1.34
67,-0.56,-1.86,-0.58,-1.87,1.87,2.03,1.32,1.30,1.30
68,-0.58,-1.85,-0.58,-1.84,1.84,1.98,1.26,1.27,1.27
69,-0.60,-1.83,-0.58,-1.81,1.81,1.93,1.21,1.23,1.23
70,-0.61,-1.81,-0.59,-1.78,1.78,1.87,1.18,1.19,1.20
71,-0.63,-1.79,-0.60,-1.76,1.76,1.81,1.13,1.16,1.16
72,-0.63,-1.75,-0.62,-1.73,1.73,1.75,1.10,1.12,1.12
73,-0.64,-1.73,-0.63,-1.71,1.71,1.70,1.07,1.08,1.09
74,-0.63,-1.68,-0.64,-1.68,1.68,1.64,1.05,1.04,1.05
75,-0.64,-1.65,-0.65,-1.66,1.66,1.58,1.02,1.00,1.01
76,-0.65,-1.62,-0.66,-1.63,1.63,1.53,0.98,0.97,0.97
77,-0.68,-1.61,-0.67,-1.60,1.60,1.47,0.92,0.93,0.93
78,-0.69,-1.58,-0.68,-1.57,1.57,1.42,0.88,0.89,0.89
79,-0.70,-1.55,-0.69,-1.54,1.54,1.37,0.84,0.85,0.85
80,-0.71,-1.52,-0.70,-1.51,1.51,1.31,0.81,0.81,0.81
81,-0.71,-1.48,-0.72,-1.49,1.49,1.26,0.78,0.77,0.77
82,-0.73,-1.46,-0.73,-1.46,1.46,1.22,0.73,0.73,0.73
83,-0.74,-1.42,-0.75,-1.43,1.43,1.17,0.69,0.68,0.69
84,-0.76,-1.40,-0.76,-1.40,1.40,1.13,0.65,0.64,0.64
85,-0.77,-1.37,-0.78,-1.38,1.38,1.08,0.61,0.60,0.60
86,-0.80,-1.36,-0.79,-1.35,1.35,1.04,0.55,0.56,0.56
87,-0.81,-1.33,-0.80,-1.32,1.32,1.00,0.51,0.52,0.52
88,-0.83,-1.31,-0.82,-1.29,1.29,0.96,0.46,0.48,0.48
89,-0.83,-1.27,-0.83,-1.27,1.27,0.92,0.44,0.43,0.44
90,-0.85,-1.24,-0.84,-1.24,1.24,0.88,0.39,0.39,0.39
91,-0.86,-1.21,-0.86,-1.21,1.21,0.85,0.35,0.35,0.35
92,-0.87,-1.18,-0.87,-1.18,1.18,0.82,0.31,0.31,0.31
93,-0.88,-1.15,-0.88,-1.15,1.15,0.78,0.27,0.27,0.27
94,-0.89,-1.12,-0.89,-1.12,1.12,0.75,0.23,0.23,0.23
95,-0.90,-1.09,-0.90,-1.09,1.09,0.72,0.19,0.19,0.19
96,-0.91,-1.06,-0.91,-1.06,1.06,0.69,0.15,0.15,0.15
97,-0.91,-1.02,-0.92,-1.03,1.03,0.66,0.12,0.11,0.11
98,-0.92,-0.99,-0.94,-1.00,1.00,0.63,0.08,0.07,0.07
99,-0.94,-0.97,-0.95,-0.97,0.97,0.61,0.04,0.02,0.03
100,-0.95,-0.94,-0.97,-0.95,0.95,0.58,-0.00,-0.02,-0.01
101,-0.98,-0.93,-0.98,-0.92,0.92,0.55,-0.06,-0.06,-0.04
102,-1.00,-0.92,-0.99,-0.89,0.89,0.53,-0.11,-0.10,-0.08
104,-1.03,-0.87,-1.00,-0.85,0.85,0.48,-0.17,-0.15,-0.16
105,-1.03,-0.84,-1.01,-0.82,0.82,0.46,-0.21,-0.18,-0.19
106,-1.04,-0.81,-1.02,-0.79,0.79,0.44,-0.25,-0.22,-0.23
107,-1.03,-0.76,-1.02,-0.76,0.76,0.42,-0.27,-0.26,-0.26
108,-1.03,-0.73,-1.03,-0.73,0.73,0.40,-0.30,-0.30,-0.30
109,-1.02,-0.69,-1.03,-0.70,0.70,0.38,-0.32,-0.33,-0.33
110,-1.02,-0.65,-1.04,-0.67,0.67,0.36,-0.35,-0.37,-0.37
111,-1.03,-0.63,-1.05,-0.64,0.64,0.34,-0.39,-0.41,-0.40
112,-1.04,-0.61,-1.05,-0.61,0.61,0.33,-0.43,-0.44,-0.43
113,-1.04,-0.57,-1.05,-0.58,0.58,0.31,-0.46,-0.48,-0.47
114,-1.05,-0.55,-1.06,-0.54,0.54,0.29,-0.51,-0.51,-0.50
115,-1.06,-0.53,-1.06,-0.51,0.51,0.28,-0.55,-0.55,-0.53
117,-1.08,-0.49,-1.06,-0.48,0.48,0.25,-0.60,-0.58,-0.59
118,-1.09,-0.47,-1.06,-0.44,0.44,0.23,-0.64,-0.62,-0.62
119,-1.09,-0.44,-1.06,-0.41,0.41,0.22,-0.68,-0.65,-0.65
120,-1.09,-0.41,-1.06,-0.38,0.38,0.21,-0.71,-0.68,-0.68
121,-1.08,-0.38,-1.07,-0.35,0.35,0.19,-0.73,-0.72,-0.70
123,-1.05,-0.29,-1.07,-0.31,0.31,0.17,-0.74,-0.76,-0.76
124,-1.03,-0.25,-1.07,-0.28,0.28,0.16,-0.75,-0.79,-0.78
125,-1.04,-0.23,-1.07,-0.25,0.25,0.15,-0.79,-0.82,-0.81
126,-1.04,-0.20,-1.07,-0.22,0.22,0.14,-0.82,-0.85,-0.83
128,-1.06,-0.18,-1.07,-0.19,0.19,0.12,-0.87,-0.88,-0.88
129,-1.08,-0.17,-1.07,-0.16,0.16,0.11,-0.92,-0.91,-0.91
130,-1.11,-0.18,-1.07,-0.13,0.13,0.10,-0.97,-0.94,-0.93
131,-1.11,-0.16,-1.07,-0.11,0.11,0.09,-1.00,-0.97,-0.95
133,-1.11,-0.11,-1.08,-0.08,0.08,0.07,-1.03,-1.00,-1.00
134,-1.09,-0.07,-1.08,-0.06,0.06,0.07,-1.03,-1.03,-1.02
135,-1.07,-0.03,-1.09,-0.03,0.03,0.06,-1.04,-1.06,-1.04
137,-1.06,0.02,-1.09,-0.01,0.01,0.04,-1.05,-1.09,-1.08
138,-1.06,0.04,-1.09,0.02,-0.02,0.04,-1.08,-1.11,-1.10
140,-1.07,0.06,-1.09,0.05,-0.05,0.02,-1.12,-1.14,-1.13
141,-1.08,0.07,-1.08,0.08,-0.08,0.02,-1.16,-1.16,-1.15
142,-1.09,0.08,-1.07,0.11,-0.11,0.01,-1.20,-1.18,-1.17
144,-1.09,0.11,-1.06,0.14,-0.14,-0.00,-1.23,-1.20,-1.20
145,-1.09,0.13,-1.05,0.17,-0.17,-0.01,-1.26,-1.22,-1.22
147,-1.07,0.18,-1.05,0.20,-0.20,-0.02,-1.27,-1.25,-1.25
148,-1.05,0.22,-1.05,0.23,-0.23,-0.02,-1.28,-1.28,-1.27
150,-1.01,0.29,-1.04,0.26,-0.26,-0.03,-1.27,-1.30,-1.29
151,-1.00,0.31,-1.03,0.29,-0.29,-0.04,-1.29,-1.32,-1.31
153,-0.99,0.35,-1.02,0.32,-0.32,-0.05,-1.31,-1.34,-1.34
154,-1.00,0.35,-1.01,0.36,-0.36,-0.05,-1.35,-1.36,-1.35
156,-1.00,0.38,-0.99,0.39,-0.39,-0.06,-1.39,-1.38,-1.38
157,-1.00,0.39,-0.98,0.42,-0.42,-0.07,-1.42,-1.40,-1.39
159,-1.00,0.41,-0.96,0.45,-0.45,-0.08,-1.45,-1.42,-1.41
160,-0.99,0.43,-0.95,0.48,-0.48,-0.08,-1.47,-1.43,-1.42
162,-0.95,0.50,-0.94,0.51,-0.51,-0.09,-1.46,-1.45,-1.44
164,-0.92,0.55,-0.93,0.54,-0.54,-0.10,-1.46,-1.47,-1.47
165,-0.91,0.57,-0.92,0.56,-0.56,-0.11,-1.47,-1.49,-1.48
167,-0.89,0.61,-0.91,0.59,-0.59,-0.12,-1.48,-1.50,-1.50
169,-0.89,0.63,-0.91,0.61,-0.61,-0.13,-1.50,-1.52,-1.51
170,-0.88,0.64,-0.90,0.63,-0.63,-0.13,-1.51,-1.53,-1.52
172,-0.90,0.64,-0.90,0.65,-0.65,-0.14,-1.54,-1.55,-1.54
174,-0.90,0.66,-0.90,0.66,-0.66,-0.15,-1.56,-1.56,-1.56
175,-0.90,0.67,-0.90,0.67,-0.67,-0.16,-1.57,-1.57,-1.57
177,-0.91,0.67,-0.90,0.69,-0.69,-0.17,-1.59,-1.59,-1.58
179,-0.93,0.67,-0.91,0.70,-0.70,-0.18,-1.62,-1.60,-1.60
181,-0.94,0.67,-0.91,0.70,-0.70,-0.19,-1.64,-1.62,-1.61
183,-0.94,0.68,-0.92,0.71,-0.71,-0.20,-1.65,-1.63,-1.62
184,-0.94,0.69,-0.93,0.71,-0.71,-0.21,-1.65,-1.64,-1.63
186,-0.93,0.71,-0.94,0.71,-0.71,-0.22,-1.64,-1.65,-1.64
188,-0.93,0.73,-0.95,0.71,-0.71,-0.23,-1.64,-1.66,-1.65
190,-0.93,0.74,-0.96,0.71,-0.71,-0.24,-1.64,-1.67,-1.67
192,-0.95,0.73,-0.98,0.70,-0.70,-0.25,-1.65,-1.68,-1.68
194,-0.97,0.72,-1.00,0.70,-0.70,-0.26,-1.67,-1.69,-1.69
196,-1.01,0.69,-1.01,0.69,-0.69,-0.27,-1.70,-1.70,-1.70
198,-1.04,0.67,-1.03,0.69,-0.69,-0.28,-1.73,-1.71,-1.71
200,-1.06,0.66,-1.04,0.68,-0.68,-0.30,-1.74,-1.72,-1.72
202,-1.08,0.65,-1.06,0.68,-0.68,-0.31,-1.76,-1.74,-1.73
204,-1.09,0.65,-1.07,0.68,-0.68,-0.32,-1.77,-1.75,-1.73
206,-1.09,0.65,-1.07,0.68,-0.68,-0.33,-1.77,-1.75,-1.74
208,-1.10,0.65,-1.08,0.69,-0.69,-0.34,-1.79,-1.76,-1.75
210,-1.08,0.68,-1.07,0.69,-0.69,-0.35,-1.77,-1.77,-1.76
212,-1.08,0.69,-1.07,0.71,-0.71,-0.36,-1.79,-1.77,-1.76
214,-1.06,0.71,-1.06,0.72,-0.72,-0.37,-1.78,-1.78,-1.77
216,-1.05,0.73,-1.05,0.74,-0.74,-0.38,-1.78,-1.78,-1.78
218,-1.03,0.76,-1.04,0.75,-0.75,-0.39,-1.78,-1.79,-1.78
221,-1.01,0.78,-1.03,0.76,-0.76,-0.41,-1.77,-1.79,-1.79
223,-1.01,0.79,-1.02,0.78,-0.78,-0.42,-1.79,-1.80,-1.80
225,-1.01,0.80,-1.02,0.79,-0.79,-0.43,-1.79,-1.80,-1.80
227,-1.01,0.80,-1.02,0.79,-0.79,-0.44,-1.80,-1.81,-1.81
229,-1.02,0.80,-1.02,0.79,-0.79,-0.45,-1.81,-1.81,-1.81
232,-1.03,0.79,-1.03,0.79,-0.79,-0.46,-1.82,-1.82,-1.82
234,-1.04,0.79,-1.04,0.78,-0.78,-0.47,-1.82,-1.82,-1.83
236,-1.04,0.79,-1.06,0.77,-0.77,-0.48,-1.81,-1.83,-1.83
239,-1.07,0.77,-1.08,0.76,-0.76,-0.49,-1.83,-1.84,-1.84
241,-1.09,0.75,-1.10,0.74,-0.74,-0.50,-1.83,-1.84,-1.84
244,-1.13,0.72,-1.13,0.72,-0.72,-0.51,-1.85,-1.85,-1.85
246,-1.16,0.69,-1.16,0.70,-0.70,-0.52,-1.86,-1.85,-1.85
248,-1.18,0.68,-1.18,0.68,-0.68,-0.52,-1.86,-1.86,-1.85
251,-1.22,0.64,-1.21,0.66,-0.66,-0.53,-1.88,-1.87,-1.86
253,-1.24,0.62,-1.23,0.65,-0.65,-0.54,-1.88,-1.87,-1.86
256,-1.26,0.61,-1.25,0.63,-0.63,-0.55,-1.89,-1.88,-1.87
259,-1.28,0.59,-1.26,0.62,-0.62,-0.55,-1.90,-1.89,-1.87
261,-1.28,0.59,-1.27,0.62,-0.62,-0.56,-1.90,-1.89,-1.87
264,-1.29,0.59,-1.27,0.62,-0.62,-0.56,-1.91,-1.90,-1.88
266,-1.29,0.59,-1.27,0.63,-0.63,-0.57,-1.91,-1.90,-1.88
269,-1.29,0.59,-1.27,0.63,-0.63,-0.58,-1.92,-1.90,-1.88
272,-1.28,0.61,-1.26,0.64,-0.64,-0.58,-1.92,-1.90,-1.89
274,-1.28,0.61,-1.25,0.65,-0.65,-0.59,-1.93,-1.90,-1.89
277,-1.26,0.63,-1.25,0.65,-0.65,-0.59,-1.91,-1.90,-1.89
280,-1.25,0.65,-1.25,0.65,-0.65,-0.60,-1.89,-1.90,-1.90
283,-1.25,0.65,-1.27,0.63,-0.63,-0.60,-1.88,-1.90,-1.90
286,-1.26,0.64,-1.29,0.60,-0.60,-0.61,-1.86,-1.89,-1.90
288,-1.28,0.62,-1.34,0.56,-0.56,-0.61,-1.84,-1.90,-1.90
291,-1.33,0.58,-1.40,0.50,-0.50,-0.62,-1.83,-1.90,-1.91
294,-1.40,0.51,-1.47,0.44,-0.44,-0.62,-1.83,-1.91,-1.91
297,-1.50,0.41,-1.56,0.36,-0.36,-0.63,-1.86,-1.92,-1.91
300,-1.62,0.29,-1.65,0.27,-0.27,-0.63,-1.89,-1.92,-1.91
303,-1.75,0.17,-1.76,0.17,-0.17,-0.64,-1.92,-1.93,-1.91
306,-1.89,0.03,-1.86,0.08,-0.08,-0.65,-1.97,-1.94,-1.92
309,-2.01,-0.09,-1.96,-0.02,0.02,-0.66,-1.99,-1.94,-1.92
312,-2.11,-0.19,-2.06,-0.11,0.11,-0.66,-2.00,-1.95,-1.92
316,-2.22,-0.30,-2.15,-0.20,0.20,-0.67,-2.02,-1.95,-1.92
319,-2.28,-0.36,-2.22,-0.27,0.27,-0.68,-2.01,-1.95,-1.92
322,-2.32,-0.39,-2.28,-0.33,0.33,-0.69,-1.99,-1.95,-1.93
325,-2.34,-0.41,-2.33,-0.38,0.38,-0.70,-1.96,-1.95,-1.93
328,-2.35,-0.42,-2.36,-0.41,0.41,-0.71,-1.94,-1.95,-1.93
332,-2.36,-0.43,-2.37,-0.42,0.42,-0.72,-1.93,-1.95,-1.93
335,-2.35,-0.42,-2.37,-0.42,0.42,-0.73,-1.92,-1.95,-1.93
338,-2.34,-0.41,-2.36,-0.41,0.41,-0.75,-1.93,-1.94,-1.93
342,-2.32,-0.39,-2.33,-0.39,0.39,-0.76,-1.93,-1.94,-1.93
345,-2.30,-0.36,-2.29,-0.35,0.35,-0.77,-1.95,-1.94,-1.94
349,-2.26,-0.32,-2.24,-0.30,0.30,-0.79,-1.96,-1.94,-1.94
352,-2.21,-0.27,-2.18,-0.24,0.24,-0.80,-1.96,-1.94,-1.94
356,-2.14,-0.20,-2.12,-0.18,0.18,-0.82,-1.96,-1.94,-1.94
359,-2.07,-0.13,-2.05,-0.11,0.11,-0.83,-1.96,-1.95,-1.94
363,-1.97,-0.03,-1.98,-0.03,0.03,-0.85,-1.94,-1.95,-1.94
366,-1.90,0.04,-1.89,0.05,-0.05,-0.87,-1.95,-1.95,-1.94
370,-1.80,0.14,-1.81,0.14,-0.14,-0.89,-1.94,-1.95,-1.94
374,-1.70,0.24,-1.72,0.22,-0.22,-0.91,-1.92,-1.95,-1.94
377,-1.63,0.32,-1.63,0.31,-0.31,-0.93,-1.94,-1.95,-1.94
381,-1.54,0.41,-1.55,0.40,-0.40,-0.95,-1.94,-1.94,-1.95
385,-1.45,0.50,-1.46,0.48,-0.48,-0.97,-1.93,-1.94,-1.95
389,-1.38,0.57,-1.38,0.56,-0.56,-0.99,-1.94,-1.94,-1.95
393,-1.30,0.65,-1.30,0.64,-0.64,-1.01,-1.94,-1.94,-1.95
397,-1.23,0.72,-1.23,0.72,-0.72,-1.03,-1.94,-1.95,-1.95
401,-1.16,0.79,-1.16,0.79,-0.79,-1.06,-1.94,-1.95,-1.95
405,-1.10,0.85,-1.10,0.85,-0.85,-1.08,-1.95,-1.95,-1.95
409,-1.04,0.91,-1.04,0.91,-0.91,-1.10,-1.95,-1.95,-1.95
413,-0.98,0.97,-0.98,0.97,-0.97,-1.12,-1.95,-1.95,-1.95
417,-0.93,1.02,-0.93,1.02,-1.02,-1.14,-1.95,-1.95,-1.95
421,-0.88,1.07,-0.89,1.07,-1.07,-1.16,-1.95,-1.96,-1.95
425,-0.84,1.12,-0.84,1.12,-1.12,-1.18,-1.96,-1.96,-1.95
430,-0.79,1.17,-0.80,1.16,-1.16,-1.21,-1.95,-1.96,-1.96
434,-0.76,1.20,-0.76,1.20,-1.20,-1.23,-1.96,-1.96,-1.96
438,-0.72,1.24,-0.72,1.24,-1.24,-1.24,-1.96,-1.96,-1.96
443,-0.69,1.27,-0.68,1.28,-1.28,-1.26,-1.96,-1.96,-1.96
447,-0.67,1.28,-0.65,1.31,-1.31,-1.28,-1.98,-1.95,-1.95
451,-0.65,1.30,-0.61,1.33,-1.33,-1.29,-1.98,-1.95,-1.95
456,-0.61,1.34,-0.59,1.35,-1.35,-1.30,-1.96,-1.94,-1.94
460,-0.57,1.37,-0.57,1.37,-1.37,-1.31,-1.94,-1.94,-1.94
465,-0.51,1.42,-0.55,1.39,-1.39,-1.32,-1.90,-1.94,-1.93
470,-0.48,1.44,-0.53,1.40,-1.40,-1.33,-1.88,-1.93,-1.92
474,-0.47,1.44,-0.51,1.41,-1.41,-1.34,-1.88,-1.93,-1.91
479,-0.46,1.44,-0.50,1.42,-1.42,-1.34,-1.88,-1.92,-1.90
484,-0.47,1.42,-0.48,1.43,-1.43,-1.34,-1.90,-1.90,-1.89
489,-0.49,1.39,-0.46,1.43,-1.43,-1.33,-1.92,-1.89,-1.87
494,-0.49,1.37,-0.43,1.44,-1.44,-1.33,-1.93,-1.87,-1.86
499,-0.47,1.38,-0.41,1.44,-1.44,-1.32,-1.91,-1.85,-1.85
504,-0.44,1.39,-0.39,1.45,-1.45,-1.31,-1.89,-1.84,-1.83
509,-0.39,1.42,-0.37,1.45,-1.45,-1.29,-1.84,-1.82,-1.81
514,-0.33,1.47,-0.35,1.46,-1.46,-1.28,-1.79,-1.81,-1.80
519,-0.28,1.50,-0.33,1.47,-1.47,-1.26,-1.75,-1.79,-1.78
524,-0.25,1.51,-0.30,1.48,-1.48,-1.24,-1.73,-1.78,-1.76
529,-0.22,1.52,-0.27,1.50,-1.50,-1.21,-1.72,-1.76,-1.74
535,-0.20,1.52,-0.23,1.52,-1.52,-1.18,-1.71,-1.75,-1.72
540,-0.19,1.51,-0.19,1.54,-1.54,-1.15,-1.73,-1.73,-1.70
545,-0.18,1.50,-0.14,1.57,-1.57,-1.12,-1.74,-1.71,-1.68
551,-0.16,1.49,-0.09,1.60,-1.60,-1.09,-1.76,-1.69,-1.65
556,-0.12,1.51,-0.03,1.63,-1.63,-1.05,-1.75,-1.66,-1.63
562,-0.06,1.54,0.03,1.66,-1.66,-1.01,-1.72,-1.63,-1.60
568,0.02,1.59,0.09,1.69,-1.69,-0.97,-1.67,-1.59,-1.57
573,0.09,1.63,0.15,1.70,-1.70,-0.93,-1.61,-1.55,-1.54
579,0.17,1.68,0.19,1.70,-1.70,-0.89,-1.53,-1.51,-1.51
585,0.25,1.73,0.20,1.68,-1.68,-0.84,-1.43,-1.48,-1.48
591,0.30,1.75,0.19,1.65,-1.65,-0.80,-1.35,-1.46,-1.45
596,0.33,1.75,0.16,1.60,-1.60,-0.76,-1.27,-1.44,-1.42
602,0.30,1.69,0.10,1.52,-1.52,-0.71,-1.22,-1.41,-1.39
608,0.21,1.57,0.03,1.42,-1.42,-0.66,-1.21,-1.39,-1.36
615,0.03,1.36,-0.05,1.31,-1.31,-0.61,-1.28,-1.36,-1.33
621,-0.18,1.12,-0.15,1.18,-1.18,-0.56,-1.36,-1.33,-1.30
627,-0.39,0.88,-0.26,1.04,-1.04,-0.51,-1.43,-1.30,-1.26
633,-0.58,0.65,-0.38,0.88,-0.88,-0.46,-1.46,-1.26,-1.23
639,-0.72,0.48,-0.51,0.72,-0.72,-0.41,-1.44,-1.23,-1.20
646,-0.80,0.37,-0.66,0.55,-0.55,-0.36,-1.35,-1.20,-1.17
652,-0.82,0.32,-0.80,0.38,-0.38,-0.31,-1.20,-1.18,-1.13
659,-0.84,0.26,-0.94,0.21,-0.21,-0.26,-1.05,-1.15,-1.10
665,-0.90,0.17,-1.07,0.05,-0.05,-0.21,-0.95,-1.12,-1.07
672,-1.01,0.02,-1.19,-0.11,0.11,-0.16,-0.90,-1.07,-1.03
679,-1.17,-0.18,-1.29,-0.26,0.26,-0.10,-0.90,-1.02,-0.99
686,-1.37,-0.41,-1.38,-0.41,0.41,-0.05,-0.96,-0.97,-0.96
692,-1.52,-0.60,-1.47,-0.55,0.55,-0.00,-0.97,-0.92,-0.92
699,-1.69,-0.81,-1.56,-0.68,0.68,0.05,-1.01,-0.88,-0.88
706,-1.76,-0.92,-1.64,-0.80,0.80,0.10,-0.96,-0.85,-0.84
713,-1.80,-1.00,-1.72,-0.90,0.90,0.15,-0.90,-0.83,-0.80
721,-1.81,-1.05,-1.79,-0.98,0.98,0.21,-0.83,-0.81,-0.76
728,-1.79,-1.07,-1.82,-1.05,1.05,0.26,-0.74,-0.78,-0.72
735,-1.80,-1.11,-1.83,-1.10,1.10,0.31,-0.70,-0.74,-0.68
742,-1.79,-1.14,-1.81,-1.12,1.12,0.36,-0.67,-0.69,-0.65
750,-1.80,-1.19,-1.77,-1.13,1.13,0.42,-0.67,-0.64,-0.61
757,-1.76,-1.19,-1.70,-1.12,1.12,0.47,-0.64,-0.58,-0.57
765,-1.70,-1.17,-1.63,-1.10,1.10,0.52,-0.60,-0.53,-0.53
773,-1.60,-1.11,-1.55,-1.07,1.07,0.58,-0.53,-0.48,-0.49
780,-1.48,-1.02,-1.47,-1.02,1.02,0.62,-0.46,-0.45,-0.45
788,-1.34,-0.92,-1.39,-0.97,0.97,0.68,-0.37,-0.42,-0.42
796,-1.21,-0.82,-1.31,-0.92,0.92,0.73,-0.29,-0.39,-0.38
804,-1.12,-0.77,-1.22,-0.86,0.86,0.78,-0.26,-0.36,-0.35
812,-1.05,-0.73,-1.13,-0.80,0.80,0.83,-0.25,-0.33,-0.32
820,-1.00,-0.71,-1.03,-0.74,0.74,0.88,-0.26,-0.29,-0.28
828,-0.96,-0.71,-0.94,-0.68,0.68,0.93,-0.28,-0.26,-0.25
837,-0.89,-0.67,-0.84,-0.61,0.61,0.98,-0.28,-0.23,-0.22
845,-0.81,-0.62,-0.75,-0.54,0.54,1.03,-0.27,-0.21,-0.19
853,-0.72,-0.56,-0.65,-0.46,0.46,1.08,-0.26,-0.19,-0.16
862,-0.59,-0.46,-0.54,-0.38,0.38,1.13,-0.21,-0.16,-0.13
871,-0.45,-0.35,-0.43,-0.29,0.29,1.17,-0.16,-0.14,-0.10
879,-0.33,-0.26,-0.30,-0.19,0.19,1.22,-0.14,-0.11,-0.07
888,-0.20,-0.16,-0.17,-0.10,0.10,1.26,-0.10,-0.07,-0.04
897,-0.07,-0.05,-0.03,-0.00,0.00,1.30,-0.07,-0.03,-0.01
906,0.07,0.06,0.10,0.08,-0.08,1.34,-0.01,0.02,0.01
915,0.20,0.16,0.21,0.16,-0.16,1.38,0.04,0.06,0.04
924,0.31,0.24,0.31,0.21,-0.21,1.41,0.10,0.09,0.07
933,0.42,0.33,0.37,0.25,-0.25,1.45,0.17,0.12,0.09
943,0.50,0.38,0.41,0.27,-0.27,1.48,0.23,0.13,0.12
952,0.53,0.39,0.41,0.26,-0.26,1.51,0.27,0.15,0.14
962,0.52,0.35,0.39,0.23,-0.23,1.54,0.29,0.16,0.17
971,0.46,0.26,0.36,0.17,-0.17,1.56,0.29,0.19,0.20
981,0.33,0.11,0.30,0.08,-0.08,1.58,0.25,0.22,0.22
991,0.17,-0.08,0.22,-0.04,0.04,1.60,0.21,0.26,0.25
1001,-0.02,-0.30,0.11,-0.19,0.19,1.61,0.17,0.31,0.28
1011,-0.17,-0.47,-0.03,-0.37,0.37,1.62,0.20,0.34,0.30
1021,-0.30,-0.63,-0.20,-0.56,0.56,1.63,0.26,0.36,0.33
1031,-0.40,-0.76,-0.39,-0.77,0.77,1.64,0.37,0.37,0.36
1041,-0.49,-0.87,-0.61,-0.98,0.98,1.64,0.49,0.37,0.39
1052,-0.62,-1.03,-0.83,-1.20,1.20,1.64,0.58,0.38,0.41
1062,-0.78,-1.22,-1.04,-1.42,1.42,1.64,0.64,0.39,0.44
1073,-1.07,-1.54,-1.24,-1.64,1.64,1.64,0.57,0.40,0.47
1084,-1.41,-1.91,-1.42,-1.84,1.84,1.63,0.44,0.43,0.50
1094,-1.71,-2.24,-1.58,-2.03,2.03,1.63,0.32,0.45,0.53
1105,-1.97,-2.53,-1.72,-2.20,2.20,1.62,0.23,0.49,0.56
1116,-2.10,-2.69,-1.83,-2.34,2.34,1.61,0.24,0.51,0.59
1128,-2.15,-2.77,-1.92,-2.46,2.46,1.59,0.31,0.54,0.62
1139,-2.11,-2.76,-1.98,-2.55,2.55,1.58,0.44,0.57,0.66
1150,-2.03,-2.72,-2.00,-2.61,2.61,1.57,0.58,0.60,0.69
1162,-1.94,-2.66,-2.00,-2.64,2.64,1.55,0.70,0.64,0.72
1173,-1.86,-2.61,-1.96,-2.64,2.64,1.54,0.78,0.68,0.75
1185,-1.78,-2.56,-1.89,-2.63,2.63,1.52,0.85,0.73,0.78
1197,-1.70,-2.51,-1.81,-2.60,2.60,1.50,0.90,0.79,0.81
1209,-1.62,-2.47,-1.71,-2.55,2.55,1.49,0.94,0.85,0.85
1221,-1.57,-2.45,-1.61,-2.50,2.50,1.47,0.93,0.89,0.88
1233,-1.52,-2.43,-1.51,-2.44,2.44,1.45,0.92,0.93,0.91
1246,-1.47,-2.41,-1.42,-2.37,2.37,1.44,0.90,0.95,0.94
1258,-1.40,-2.37,-1.32,-2.30,2.30,1.42,0.90,0.98,0.98
1271,-1.30,-2.31,-1.23,-2.23,2.23,1.41,0.93,1.00,1.01
1283,-1.19,-2.23,-1.13,-2.16,2.16,1.39,0.97,1.03,1.04
1296,-1.07,-2.15,-1.03,-2.10,2.10,1.38,1.03,1.07,1.08
1309,-0.94,-2.05,-0.94,-2.05,2.05,1.37,1.11,1.11,1.12
1322,-0.82,-1.97,-0.85,-2.00,2.00,1.35,1.18,1.15,1.15
1335,-0.71,-1.90,-0.77,-1.96,1.96,1.34,1.25,1.18,1.19
1349,-0.63,-1.85,-0.70,-1.93,1.93,1.33,1.30,1.22,1.23
1362,-0.58,-1.84,-0.65,-1.91,1.91,1.32,1.33,1.26,1.26
1376,-0.54,-1.84,-0.60,-1.90,1.90,1.31,1.36,1.30,1.30
1390,-0.54,-1.88,-0.56,-1.91,1.91,1.31,1.37,1.34,1.34
1404,-0.57,-1.95,-0.54,-1.94,1.94,1.30,1.37,1.39,1.38
1418,-0.60,-2.01,-0.54,-1.99,1.99,1.30,1.39,1.45,1.42
1432,-0.64,-2.09,-0.56,-2.06,2.06,1.29,1.42,1.50,1.45
1446,-0.67,-2.16,-0.61,-2.15,2.15,1.29,1.48,1.54,1.49
1461,-0.70,-2.23,-0.68,-2.25,2.25,1.29,1.56,1.57,1.53
1475,-0.71,-2.28,-0.78,-2.37,2.37,1.29,1.67,1.60,1.57
1490,-0.74,-2.35,-0.89,-2.50,2.50,1.29,1.76,1.62,1.61
1505,-0.81,-2.46,-1.00,-2.64,2.64,1.29,1.83,1.64,1.65
1520,-0.93,-2.62,-1.12,-2.77,2.77,1.29,1.85,1.66,1.69
1535,-1.13,-2.86,-1.23,-2.91,2.91,1.29,1.78,1.68,1.73
1550,-1.34,-3.12,-1.33,-3.03,3.03,1.30,1.69,1.70,1.78
1566,-1.57,-3.39,-1.42,-3.13,3.13,1.30,1.57,1.72,1.82
1582,-1.70,-3.56,-1.49,-3.22,3.22,1.31,1.52,1.73,1.86
1597,-1.74,-3.65,-1.53,-3.29,3.29,1.31,1.55,1.76,1.91
1613,-1.70,-3.65,-1.54,-3.33,3.33,1.32,1.63,1.79,1.95
1629,-1.59,-3.59,-1.51,-3.34,3.34,1.33,1.75,1.83,2.00
1646,-1.47,-3.52,-1.45,-3.32,3.32,1.34,1.86,1.88,2.05
1662,-1.36,-3.45,-1.35,-3.29,3.29,1.34,1.93,1.94,2.09
