frequency,raw,error,smoothed,error_smoothed,equalization,parametric_eq,fixed_band_eq,equalized_raw,equalized_smoothed,target
20.00,-23.48,-24.20,-23.47,-24.20,6.00,5.99,2.71,-17.48,-17.47,0.73
20.20,-23.34,-24.10,-23.34,-24.10,6.00,5.99,2.79,-17.34,-17.34,0.77
20.40,-23.19,-23.99,-23.20,-24.00,6.00,5.99,2.87,-17.19,-17.20,0.80
20.61,-23.06,-23.88,-23.06,-23.89,6.00,5.99,2.95,-17.06,-17.06,0.83
20.81,-22.92,-23.79,-22.92,-23.79,6.00,5.99,3.03,-16.92,-16.92,0.87
21.02,-22.79,-23.69,-22.78,-23.68,6.00,5.99,3.12,-16.79,-16.78,0.90
21.23,-22.64,-23.55,-22.64,-23.56,6.00,5.99,3.21,-16.64,-16.64,0.91
21.44,-22.48,-23.42,-22.49,-23.42,6.00,5.99,3.30,-16.48,-16.49,0.93
21.66,-22.34,-23.29,-22.34,-23.29,6.00,5.99,3.39,-16.34,-16.34,0.95
21.87,-22.18,-23.15,-22.18,-23.15,6.00,5.99,3.49,-16.18,-16.18,0.96
22.09,-22.02,-23.01,-22.03,-23.00,6.00,5.99,3.59,-16.02,-16.03,0.98
22.31,-21.86,-22.85,-21.87,-22.85,6.00,6.00,3.69,-15.86,-15.87,0.98
22.54,-21.72,-22.71,-21.71,-22.70,6.00,6.00,3.79,-15.72,-15.71,0.99
22.76,-21.55,-22.56,-21.56,-22.55,6.00,6.00,3.90,-15.55,-15.56,1.00
22.99,-21.40,-22.40,-21.40,-22.40,6.00,6.00,4.01,-15.40,-15.40,1.00
23.22,-21.24,-22.25,-21.24,-22.25,6.00,6.00,4.12,-15.24,-15.24,1.01
23.45,-21.08,-22.09,-21.08,-22.10,6.00,6.00,4.23,-15.08,-15.08,1.02
23.69,-20.93,-21.96,-20.92,-21.95,6.00,6.00,4.35,-14.93,-14.92,1.03
23.92,-20.76,-21.80,-20.77,-21.81,6.00,6.00,4.47,-14.76,-14.77,1.04
24.16,-20.61,-21.66,-20.62,-21.66,6.00,6.00,4.59,-14.61,-14.62,1.05
24.40,-20.46,-21.52,-20.46,-21.51,6.00,6.00,4.71,-14.46,-14.46,1.05
24.65,-20.32,-21.36,-20.31,-21.36,6.00,6.00,4.84,-14.32,-14.31,1.04
24.89,-20.15,-21.20,-20.16,-21.20,6.00,6.00,4.97,-14.15,-14.16,1.04
25.14,-20.01,-21.06,-20.01,-21.05,6.00,6.00,5.10,-14.01,-14.01,1.04
25.39,-19.86,-20.90,-19.87,-20.91,6.00,6.00,5.22,-13.86,-13.87,1.04
25.65,-19.73,-20.77,-19.73,-20.76,6.00,6.01,5.36,-13.73,-13.73,1.04
25.91,-19.58,-20.61,-19.57,-20.60,6.00,6.01,5.49,-13.58,-13.57,1.03
26.16,-19.39,-20.43,-19.39,-20.43,6.00,6.01,5.62,-13.39,-13.39,1.04
26.43,-19.20,-20.24,-19.20,-20.23,6.00,6.01,5.75,-13.20,-13.20,1.04
26.69,-19.00,-20.03,-18.99,-20.03,6.00,6.01,5.88,-13.00,-12.99,1.04
26.96,-18.79,-19.82,-18.81,-19.84,6.00,6.01,6.01,-12.79,-12.81,1.03
27.23,-18.64,-19.67,-18.64,-19.67,6.00,6.01,6.13,-12.64,-12.64,1.03
27.50,-18.50,-19.53,-18.49,-19.52,6.00,6.01,6.26,-12.50,-12.49,1.03
27.77,-18.35,-19.37,-18.35,-19.38,6.00,6.01,6.38,-12.35,-12.35,1.02
28.05,-18.22,-19.23,-18.22,-19.23,6.00,6.01,6.49,-12.22,-12.22,1.02
28.33,-18.09,-19.09,-18.09,-19.10,6.00,6.01,6.60,-12.09,-12.09,1.01
28.62,-17.96,-18.97,-17.96,-18.97,6.00,6.01,6.71,-11.96,-11.96,1.02
28.90,-17.83,-18.84,-17.82,-18.83,6.00,6.01,6.81,-11.83,-11.82,1.01
29.19,-17.66,-18.66,-17.65,-18.66,6.00,6.01,6.90,-11.66,-11.65,1.00
29.48,-17.46,-18.48,-17.47,-18.47,6.00,6.02,6.99,-11.46,-11.47,1.01
29.78,-17.28,-18.29,-17.28,-18.29,6.00,6.02,7.06,-11.28,-11.28,1.01
30.08,-17.10,-18.11,-17.11,-18.12,6.00,6.02,7.13,-11.10,-11.11,1.01
30.38,-16.97,-17.96,-16.97,-17.97,6.00,6.02,7.19,-10.97,-10.97,1.00
30.68,-16.85,-17.84,-16.85,-17.84,6.00,6.02,7.24,-10.85,-10.85,0.99
30.99,-16.73,-17.71,-16.71,-17.69,6.00,6.02,7.28,-10.73,-10.71,0.98
31.30,-16.54,-17.52,-16.54,-17.52,6.00,6.02,7.30,-10.54,-10.54,0.98
31.61,-16.35,-17.32,-16.35,-17.32,6.00,6.02,7.33,-10.35,-10.35,0.98
31.93,-16.15,-17.11,-16.15,-17.12,6.00,6.02,7.33,-10.15,-10.15,0.96
32.24,-15.96,-16.92,-15.96,-16.92,6.00,6.02,7.33,-9.96,-9.96,0.95
32.57,-15.78,-16.73,-15.77,-16.72,6.00,6.02,7.32,-9.78,-9.77,0.95
32.89,-15.58,-16.53,-15.59,-16.54,6.00,6.02,7.30,-9.58,-9.59,0.95
33.22,-15.42,-16.36,-15.42,-16.36,6.00,6.02,7.27,-9.42,-9.42,0.94
33.55,-15.25,-16.20,-15.25,-16.19,6.00,6.02,7.24,-9.25,-9.25,0.94
33.89,-15.10,-16.03,-15.10,-16.04,6.00,6.02,7.19,-9.10,-9.10,0.94
34.23,-14.96,-15.89,-14.96,-15.89,6.00,6.02,7.14,-8.96,-8.96,0.94
34.57,-14.83,-15.75,-14.82,-15.75,6.00,6.02,7.09,-8.83,-8.82,0.92
34.92,-14.69,-15.61,-14.68,-15.60,6.00,6.03,7.03,-8.69,-8.68,0.92
35.27,-14.52,-15.43,-14.52,-15.43,6.00,6.03,6.96,-8.52,-8.52,0.92
35.62,-14.34,-15.24,-14.34,-15.24,6.00,6.03,6.90,-8.34,-8.34,0.90
35.97,-14.15,-15.05,-14.16,-15.06,6.00,6.03,6.83,-8.15,-8.16,0.90
36.33,-13.98,-14.88,-13.99,-14.88,6.00,6.03,6.76,-7.98,-7.99,0.89
36.70,-13.83,-14.72,-13.82,-14.71,6.00,6.03,6.68,-7.83,-7.82,0.89
37.06,-13.65,-14.53,-13.65,-14.53,6.00,6.03,6.61,-7.65,-7.65,0.88
37.43,-13.46,-14.34,-13.46,-14.34,6.00,6.03,6.54,-7.46,-7.46,0.87
37.81,-13.28,-14.14,-13.28,-14.14,6.00,6.03,6.47,-7.28,-7.28,0.87
38.19,-13.10,-13.95,-13.10,-13.96,6.00,6.03,6.40,-7.10,-7.10,0.85
38.57,-12.95,-13.80,-12.94,-13.79,6.00,6.03,6.33,-6.95,-6.94,0.85
38.95,-12.78,-13.63,-12.80,-13.64,6.00,6.03,6.26,-6.78,-6.80,0.84
39.34,-12.69,-13.51,-12.70,-13.53,6.00,6.03,6.19,-6.69,-6.70,0.83
39.74,-12.61,-13.42,-12.59,-13.41,6.00,6.03,6.13,-6.61,-6.59,0.81
40.14,-12.49,-13.31,-12.46,-13.28,6.00,6.03,6.07,-6.49,-6.46,0.82
40.54,-12.30,-13.11,-12.30,-13.11,6.00,6.03,6.02,-6.30,-6.30,0.81
40.94,-12.12,-12.92,-12.14,-12.95,6.00,6.03,5.96,-6.12,-6.14,0.81
41.35,-12.01,-12.80,-12.00,-12.80,6.00,6.03,5.92,-6.01,-6.00,0.79
41.76,-11.91,-12.68,-11.90,-12.68,6.00,6.03,5.87,-5.91,-5.90,0.77
42.18,-11.82,-12.57,-11.82,-12.58,6.00,6.03,5.83,-5.82,-5.82,0.76
42.60,-11.72,-12.45,-11.72,-12.46,6.00,6.02,5.79,-5.72,-5.72,0.73
43.03,-11.62,-12.33,-11.58,-12.29,6.00,6.02,5.76,-5.62,-5.58,0.71
43.46,-11.42,-12.10,-11.42,-12.10,6.00,6.02,5.73,-5.42,-5.42,0.69
43.90,-11.23,-11.87,-11.25,-11.90,6.00,6.02,5.71,-5.23,-5.25,0.64
44.33,-11.10,-11.71,-11.10,-11.71,6.00,6.02,5.69,-5.10,-5.10,0.61
44.78,-11.00,-11.57,-10.99,-11.56,6.00,6.02,5.67,-5.00,-4.99,0.57
45.23,-10.90,-11.44,-10.88,-11.43,6.00,6.02,5.66,-4.90,-4.88,0.55
45.68,-10.79,-11.30,-10.80,-11.32,6.00,6.02,5.65,-4.79,-4.80,0.52
46.13,-10.72,-11.21,-10.75,-11.25,6.00,6.02,5.65,-4.72,-4.75,0.50
46.60,-10.72,-11.21,-10.71,-11.19,6.00,6.02,5.65,-4.72,-4.71,0.49
47.06,-10.70,-11.16,-10.67,-11.14,6.00,6.01,5.65,-4.70,-4.67,0.47
47.53,-10.58,-11.03,-10.58,-11.05,6.00,6.01,5.66,-4.58,-4.58,0.46
48.01,-10.45,-10.91,-10.44,-10.89,6.00,6.01,5.68,-4.45,-4.44,0.46
48.49,-10.25,-10.70,-10.25,-10.70,6.00,6.01,5.69,-4.25,-4.25,0.45
48.97,-10.05,-10.48,-10.03,-10.47,6.00,6.01,5.71,-4.05,-4.03,0.44
49.46,-9.84,-10.26,-9.82,-10.25,6.00,6.01,5.74,-3.84,-3.82,0.43
49.96,-9.62,-10.04,-9.67,-10.10,6.00,6.00,5.76,-3.62,-3.67,0.42
50.46,-9.59,-10.02,-9.59,-10.02,6.00,6.00,5.79,-3.59,-3.59,0.43
50.96,-9.58,-10.02,-9.54,-9.97,6.00,6.00,5.82,-3.58,-3.54,0.44
51.47,-9.53,-9.95,-9.52,-9.95,6.00,6.00,5.86,-3.53,-3.52,0.43
51.99,-9.48,-9.89,-9.52,-9.94,6.00,5.99,5.89,-3.48,-3.52,0.41
52.51,-9.53,-9.92,-9.52,-9.92,6.00,5.99,5.93,-3.53,-3.52,0.40
53.03,-9.57,-9.94,-9.50,-9.87,6.00,5.99,5.97,-3.57,-3.50,0.37
53.56,-9.45,-9.79,-9.45,-9.79,6.00,5.98,6.01,-3.45,-3.45,0.34
54.10,-9.35,-9.64,-9.38,-9.68,6.00,5.98,6.05,-3.35,-3.38,0.29
54.64,-9.35,-9.59,-9.35,-9.60,6.00,5.98,6.09,-3.35,-3.35,0.25
55.18,-9.39,-9.59,-9.41,-9.61,6.00,5.97,6.13,-3.39,-3.41,0.20
55.74,-9.52,-9.66,-9.50,-9.65,6.00,5.97,6.17,-3.52,-3.50,0.14
56.29,-9.58,-9.67,-9.56,-9.66,6.00,5.97,6.21,-3.58,-3.56,0.10
56.86,-9.58,-9.62,-9.55,-9.58,6.00,5.96,6.25,-3.58,-3.55,0.04
57.42,-9.48,-9.45,-9.48,-9.45,6.00,5.96,6.28,-3.48,-3.48,-0.03
58.00,-9.35,-9.26,-9.40,-9.32,6.00,5.95,6.31,-3.35,-3.40,-0.09
58.58,-9.35,-9.20,-9.34,-9.19,6.00,5.95,6.34,-3.35,-3.34,-0.15
59.16,-9.31,-9.11,-9.27,-9.07,6.00,5.95,6.37,-3.31,-3.27,-0.20
59.76,-9.18,-8.92,-9.17,-8.91,6.00,5.94,6.39,-3.18,-3.17,-0.26
60.35,-9.05,-8.71,-9.05,-8.72,6.00,5.94,6.41,-3.05,-3.05,-0.33
60.96,-8.91,-8.52,-8.96,-8.56,6.00,5.93,6.42,-2.91,-2.96,-0.38
61.57,-8.90,-8.44,-8.88,-8.42,6.00,5.93,6.43,-2.90,-2.88,-0.46
62.18,-8.86,-8.33,-8.81,-8.29,6.00,5.92,6.43,-2.86,-2.81,-0.52
62.80,-8.71,-8.14,-8.73,-8.16,6.00,5.92,6.43,-2.71,-2.73,-0.57
63.43,-8.63,-8.00,-8.63,-8.01,6.00,5.91,6.43,-2.63,-2.63,-0.62
64.07,-8.56,-7.89,-8.54,-7.87,6.00,5.91,6.42,-2.56,-2.54,-0.67
64.71,-8.48,-7.76,-8.49,-7.77,6.00,5.90,6.40,-2.48,-2.49,-0.71
65.35,-8.44,-7.67,-8.45,-7.69,6.00,5.90,6.39,-2.44,-2.45,-0.76
66.01,-8.44,-7.64,-8.44,-7.64,6.00,5.89,6.36,-2.44,-2.44,-0.80
66.67,-8.44,-7.60,-8.40,-7.57,6.00,5.89,6.34,-2.44,-2.40,-0.84
67.33,-8.37,-7.50,-8.34,-7.47,6.00,5.88,6.30,-2.37,-2.34,-0.87
68.01,-8.22,-7.32,-8.27,-7.37,6.00,5.88,6.27,-2.22,-2.27,-0.90
68.69,-8.22,-7.29,-8.22,-7.28,6.00,5.87,6.24,-2.22,-2.22,-0.93
69.37,-8.22,-7.25,-8.20,-7.24,6.00,5.87,6.20,-2.22,-2.20,-0.96
70.07,-8.22,-7.22,-8.22,-7.23,6.00,5.86,6.16,-2.22,-2.22,-0.99
70.77,-8.22,-7.21,-8.22,-7.20,6.00,5.86,6.12,-2.22,-2.22,-1.01
71.48,-8.22,-7.17,-8.22,-7.17,6.00,5.85,6.08,-2.22,-2.22,-1.04
72.19,-8.22,-7.15,-8.22,-7.15,6.00,5.85,6.03,-2.22,-2.22,-1.07
72.91,-8.22,-7.11,-8.22,-7.12,6.00,5.84,5.99,-2.22,-2.22,-1.10
73.64,-8.22,-7.09,-8.22,-7.09,6.00,5.84,5.95,-2.22,-2.22,-1.13
74.38,-8.22,-7.06,-8.22,-7.05,6.00,5.83,5.91,-2.22,-2.22,-1.16
75.12,-8.22,-7.02,-8.22,-7.02,6.00,5.83,5.87,-2.22,-2.22,-1.20
75.87,-8.22,-6.99,-8.22,-6.99,6.00,5.83,5.83,-2.22,-2.22,-1.23
76.63,-8.22,-6.96,-8.22,-6.96,6.00,5.83,5.80,-2.22,-2.22,-1.26
77.40,-8.22,-6.94,-8.22,-6.93,6.00,5.82,5.76,-2.22,-2.22,-1.28
78.17,-8.22,-6.91,-8.22,-6.91,6.00,5.82,5.73,-2.22,-2.22,-1.31
78.95,-8.22,-6.89,-8.22,-6.89,6.00,5.82,5.70,-2.22,-2.22,-1.32
79.74,-8.22,-6.88,-8.22,-6.87,6.00,5.82,5.68,-2.22,-2.22,-1.34
80.54,-8.22,-6.86,-8.22,-6.86,6.00,5.82,5.66,-2.22,-2.22,-1.36
81.35,-8.22,-6.84,-8.22,-6.85,6.00,5.82,5.64,-2.22,-2.22,-1.37
82.16,-8.22,-6.84,-8.20,-6.82,6.00,5.82,5.63,-2.22,-2.20,-1.38
82.98,-8.22,-6.84,-8.22,-6.83,6.00,5.82,5.61,-2.22,-2.22,-1.38
83.81,-8.22,-6.83,-8.27,-6.88,6.00,5.83,5.61,-2.22,-2.27,-1.38
84.65,-8.36,-6.97,-8.34,-6.95,6.00,5.83,5.60,-2.36,-2.34,-1.39
85.50,-8.44,-7.06,-8.40,-7.02,6.00,5.83,5.61,-2.44,-2.40,-1.38
86.35,-8.44,-7.06,-8.45,-7.06,6.00,5.84,5.61,-2.44,-2.45,-1.38
87.22,-8.44,-7.06,-8.43,-7.05,6.00,5.85,5.62,-2.44,-2.43,-1.38
88.09,-8.44,-7.06,-8.44,-7.07,6.00,5.85,5.63,-2.44,-2.44,-1.38
88.97,-8.44,-7.08,-8.49,-7.12,6.00,5.86,5.65,-2.44,-2.49,-1.36
89.86,-8.60,-7.23,-8.56,-7.20,6.00,5.87,5.67,-2.60,-2.56,-1.36
90.76,-8.66,-7.28,-8.63,-7.26,6.00,5.88,5.70,-2.66,-2.63,-1.37
91.66,-8.67,-7.30,-8.68,-7.30,6.00,5.89,5.73,-2.67,-2.68,-1.37
92.58,-8.67,-7.28,-8.67,-7.29,6.00,5.90,5.77,-2.67,-2.67,-1.39
93.51,-8.67,-7.28,-8.67,-7.28,6.00,5.92,5.81,-2.67,-2.67,-1.38
94.44,-8.67,-7.27,-8.67,-7.27,6.00,5.93,5.85,-2.67,-2.67,-1.40
95.39,-8.67,-7.25,-8.67,-7.25,6.00,5.94,5.90,-2.67,-2.67,-1.41
96.34,-8.67,-7.22,-8.66,-7.22,6.00,5.96,5.95,-2.67,-2.66,-1.45
97.30,-8.67,-7.20,-8.65,-7.19,6.00,5.97,6.00,-2.67,-2.65,-1.46
98.28,-8.67,-7.18,-8.69,-7.21,6.00,5.99,6.06,-2.67,-2.69,-1.49
99.26,-8.73,-7.21,-8.76,-7.25,6.00,6.00,6.12,-2.73,-2.76,-1.51
100.25,-8.89,-7.35,-8.83,-7.29,6.00,6.02,6.18,-2.89,-2.83,-1.54
101.25,-8.90,-7.32,-8.89,-7.32,6.00,6.04,6.24,-2.90,-2.89,-1.57
102.27,-8.90,-7.29,-8.91,-7.30,6.00,6.05,6.31,-2.90,-2.91,-1.61
103.29,-8.90,-7.24,-8.90,-7.25,6.00,6.07,6.38,-2.90,-2.90,-1.66
104.32,-8.90,-7.20,-8.89,-7.19,6.00,6.08,6.45,-2.90,-2.89,-1.69
105.37,-8.90,-7.16,-8.89,-7.15,6.00,6.10,6.52,-2.90,-2.89,-1.74
106.42,-8.90,-7.10,-8.93,-7.14,6.00,6.11,6.59,-2.90,-2.93,-1.80
107.48,-9.00,-7.13,-9.00,-7.14,6.00,6.12,6.66,-3.00,-3.00,-1.86
108.56,-9.12,-7.18,-9.07,-7.14,6.00,6.13,6.73,-3.12,-3.07,-1.94
109.64,-9.13,-7.12,-9.13,-7.12,6.00,6.14,6.80,-3.13,-3.13,-2.00
110.74,-9.13,-7.06,-9.13,-7.06,6.00,6.14,6.87,-3.13,-3.13,-2.07
111.85,-9.13,-6.99,-9.11,-6.97,6.00,6.15,6.93,-3.13,-3.11,-2.14
112.97,-9.13,-6.90,-9.15,-6.93,6.00,6.15,6.99,-3.13,-3.15,-2.22
114.10,-9.17,-6.88,-9.21,-6.92,6.00,6.15,7.05,-3.17,-3.21,-2.29
115.24,-9.35,-6.98,-9.28,-6.92,6.00,6.15,7.10,-3.35,-3.28,-2.36
116.39,-9.35,-6.91,-9.34,-6.91,6.00,6.15,7.14,-3.35,-3.34,-2.44
117.55,-9.35,-6.85,-9.34,-6.84,6.00,6.14,7.18,-3.35,-3.34,-2.50
118.73,-9.35,-6.78,-9.36,-6.80,6.00,6.13,7.21,-3.35,-3.36,-2.56
119.92,-9.36,-6.75,-9.43,-6.81,6.00,6.11,7.23,-3.36,-3.43,-2.61
121.12,-9.58,-6.92,-9.50,-6.84,6.00,6.10,7.24,-3.58,-3.50,-2.66
122.33,-9.58,-6.87,-9.55,-6.86,6.00,6.08,7.25,-3.58,-3.55,-2.70
123.55,-9.58,-6.85,-9.60,-6.87,6.00,6.07,7.25,-3.58,-3.60,-2.72
124.79,-9.58,-6.81,-9.63,-6.87,6.00,6.05,7.23,-3.58,-3.63,-2.77
126.03,-9.74,-6.94,-9.70,-6.91,6.00,6.02,7.21,-3.74,-3.70,-2.80
127.29,-9.79,-6.96,-9.76,-6.93,6.00,6.00,7.17,-3.79,-3.76,-2.83
128.57,-9.81,-6.94,-9.80,-6.94,6.00,5.98,7.13,-3.81,-3.80,-2.87
129.85,-9.81,-6.91,-9.83,-6.93,6.00,5.95,7.08,-3.81,-3.83,-2.89
131.15,-9.86,-6.93,-9.89,-6.96,6.00,5.93,7.02,-3.86,-3.89,-2.92
132.46,-9.99,-7.03,-9.94,-6.99,6.00,5.91,6.95,-3.99,-3.94,-2.96
133.79,-10.04,-7.05,-10.02,-7.03,6.00,5.88,6.88,-4.04,-4.02,-2.99
135.12,-10.05,-7.02,-10.11,-7.09,6.00,5.86,6.79,-4.05,-4.11,-3.03
136.48,-10.21,-7.15,-10.18,-7.12,6.00,5.84,6.71,-4.21,-4.18,-3.06
137.84,-10.27,-7.18,-10.24,-7.14,6.00,5.82,6.61,-4.27,-4.24,-3.09
139.22,-10.27,-7.12,-10.28,-7.14,6.00,5.80,6.51,-4.27,-4.28,-3.14
140.61,-10.27,-7.08,-10.27,-7.09,6.00,5.78,6.40,-4.27,-4.27,-3.19
142.02,-10.27,-7.06,-10.25,-7.04,6.00,5.77,6.30,-4.27,-4.25,-3.21
143.44,-10.27,-7.02,-10.27,-7.01,6.00,5.76,6.19,-4.27,-4.27,-3.25
144.87,-10.27,-6.98,-10.32,-7.03,6.00,5.75,6.07,-4.27,-4.32,-3.29
146.32,-10.42,-7.08,-10.39,-7.05,6.00,5.75,5.96,-4.42,-4.39,-3.34
147.78,-10.49,-7.11,-10.46,-7.07,6.00,5.74,5.84,-4.49,-4.46,-3.38
149.26,-10.49,-7.04,-10.50,-7.05,6.00,5.74,5.72,-4.49,-4.50,-3.45
150.75,-10.49,-6.96,-10.49,-6.97,6.00,5.75,5.61,-4.49,-4.49,-3.52
152.26,-10.49,-6.90,-10.47,-6.88,6.00,5.75,5.49,-4.49,-4.47,-3.59
153.78,-10.49,-6.82,-10.51,-6.84,6.00,5.76,5.38,-4.49,-4.51,-3.67
155.32,-10.54,-6.78,-10.57,-6.81,6.00,5.78,5.26,-4.54,-4.57,-3.76
156.88,-10.70,-6.86,-10.64,-6.80,6.00,5.79,5.15,-4.70,-4.64,-3.83
158.44,-10.72,-6.81,-10.72,-6.81,6.00,5.81,5.04,-4.72,-4.72,-3.91
160.03,-10.78,-6.80,-10.82,-6.84,6.00,5.84,4.93,-4.78,-4.82,-3.98
161.63,-10.92,-6.87,-10.91,-6.87,6.00,5.86,4.82,-4.92,-4.91,-4.04
163.24,-11.09,-6.99,-11.06,-6.97,6.00,5.89,4.72,-5.09,-5.06,-4.09
164.88,-11.18,-7.04,-11.21,-7.07,6.00,5.92,4.62,-5.18,-5.21,-4.13
166.53,-11.36,-7.18,-11.31,-7.14,6.00,5.95,4.51,-5.36,-5.31,-4.17
168.19,-11.41,-7.21,-11.41,-7.21,6.00,5.99,4.42,-5.41,-5.41,-4.20
169.87,-11.46,-7.24,-11.50,-7.29,6.00,6.03,4.33,-5.46,-5.50,-4.22
171.57,-11.60,-7.37,-11.56,-7.34,6.00,6.06,4.24,-5.60,-5.56,-4.22
173.29,-11.63,-7.41,-11.61,-7.40,6.00,6.10,4.15,-5.63,-5.61,-4.22
175.02,-11.63,-7.42,-11.64,-7.42,6.00,6.14,4.06,-5.63,-5.64,-4.21
176.77,-11.63,-7.42,-11.63,-7.42,6.00,6.18,3.98,-5.63,-5.63,-4.21
178.54,-11.63,-7.42,-11.63,-7.42,6.00,6.22,3.90,-5.63,-5.63,-4.20
180.32,-11.63,-7.43,-11.63,-7.43,6.00,6.25,3.83,-5.63,-5.63,-4.20
182.13,-11.63,-7.44,-11.63,-7.43,6.00,6.29,3.76,-5.63,-5.63,-4.19
183.95,-11.63,-7.43,-11.63,-7.43,6.00,6.32,3.69,-5.63,-5.63,-4.19
185.79,-11.63,-7.42,-11.63,-7.42,6.00,6.34,3.62,-5.63,-5.63,-4.20
187.65,-11.63,-7.40,-11.63,-7.40,6.00,6.37,3.56,-5.63,-5.63,-4.22
189.52,-11.63,-7.38,-11.63,-7.38,6.00,6.38,3.50,-5.63,-5.63,-4.24
191.42,-11.63,-7.36,-11.63,-7.36,6.00,6.40,3.44,-5.63,-5.63,-4.26
193.33,-11.63,-7.34,-11.63,-7.35,6.00,6.40,3.38,-5.63,-5.63,-4.28
195.27,-11.63,-7.34,-11.63,-7.33,6.00,6.39,3.33,-5.63,-5.63,-4.29
197.22,-11.63,-7.32,-11.63,-7.31,6.00,6.38,3.28,-5.63,-5.63,-4.31
199.19,-11.63,-7.28,-11.63,-7.29,6.00,6.36,3.23,-5.63,-5.63,-4.35
201.18,-11.63,-7.27,-11.63,-7.27,6.00,6.32,3.18,-5.63,-5.63,-4.35
203.19,-11.63,-7.26,-11.63,-7.25,6.00,6.28,3.13,-5.63,-5.63,-4.37
205.23,-11.63,-7.23,-11.63,-7.24,6.00,6.22,3.09,-5.63,-5.63,-4.39
207.28,-11.63,-7.23,-11.63,-7.22,6.00,6.16,3.05,-5.63,-5.63,-4.40
209.35,-11.63,-7.20,-11.63,-7.20,6.00,6.07,3.01,-5.63,-5.63,-4.42
211.44,-11.63,-7.18,-11.65,-7.21,6.01,5.99,2.97,-5.62,-5.64,-4.45
213.56,-11.63,-7.17,-11.63,-7.17,6.04,5.88,2.93,-5.59,-5.59,-4.45
215.69,-11.63,-7.17,-11.57,-7.11,6.06,5.76,2.89,-5.56,-5.51,-4.45
217.85,-11.43,-6.95,-11.48,-7.00,6.07,5.63,2.85,-5.36,-5.41,-4.48
220.03,-11.32,-6.83,-11.32,-6.83,6.04,5.49,2.82,-5.28,-5.28,-4.49
222.23,-11.13,-6.61,-11.09,-6.58,5.97,5.33,2.78,-5.16,-5.12,-4.51
224.45,-10.81,-6.29,-10.80,-6.29,5.85,5.16,2.74,-4.95,-4.95,-4.51
226.70,-10.43,-5.91,-10.43,-5.91,5.69,4.98,2.70,-4.73,-4.74,-4.51
228.96,-10.04,-5.51,-10.04,-5.52,5.48,4.80,2.67,-4.55,-4.55,-4.53
231.25,-9.66,-5.13,-9.68,-5.15,5.22,4.59,2.63,-4.43,-4.46,-4.53
233.57,-9.36,-4.82,-9.37,-4.83,4.91,4.39,2.59,-4.44,-4.46,-4.54
235.90,-9.10,-4.55,-9.08,-4.54,4.57,4.17,2.54,-4.53,-4.51,-4.55
238.26,-8.79,-4.24,-8.77,-4.22,4.21,3.95,2.50,-4.58,-4.56,-4.54
240.64,-8.42,-3.87,-8.41,-3.86,3.85,3.71,2.46,-4.57,-4.56,-4.54
243.05,-8.02,-3.48,-8.02,-3.48,3.50,3.47,2.41,-4.51,-4.52,-4.53
245.48,-7.63,-3.10,-7.66,-3.13,3.18,3.23,2.36,-4.45,-4.48,-4.53
247.93,-7.34,-2.82,-7.34,-2.82,2.85,2.98,2.31,-4.48,-4.49,-4.52
250.41,-7.07,-2.54,-7.06,-2.54,2.53,2.72,2.26,-4.53,-4.52,-4.53
252.92,-6.79,-2.27,-6.76,-2.25,2.22,2.46,2.21,-4.56,-4.54,-4.51
255.45,-6.45,-1.95,-6.44,-1.94,1.93,2.20,2.15,-4.52,-4.52,-4.49
258.00,-6.11,-1.62,-6.12,-1.63,1.64,1.94,2.09,-4.47,-4.48,-4.49
260.58,-5.80,-1.31,-5.81,-1.33,1.35,1.67,2.03,-4.44,-4.46,-4.49
263.19,-5.53,-1.05,-5.53,-1.06,1.06,1.40,1.97,-4.47,-4.47,-4.47
265.82,-5.28,-0.81,-5.26,-0.80,0.76,1.13,1.90,-4.51,-4.50,-4.47
268.48,-4.99,-0.54,-4.97,-0.53,0.47,0.86,1.84,-4.51,-4.50,-4.44
271.16,-4.66,-0.23,-4.65,-0.22,0.19,0.59,1.77,-4.46,-4.46,-4.43
273.87,-4.33,0.09,-4.32,0.09,-0.07,0.33,1.70,-4.39,-4.39,-4.42
276.61,-4.00,0.39,-4.00,0.39,-0.32,0.06,1.62,-4.32,-4.33,-4.38
279.38,-3.74,0.63,-3.74,0.62,-0.57,-0.20,1.55,-4.30,-4.31,-4.37
282.17,-3.50,0.85,-3.53,0.81,-0.80,-0.46,1.47,-4.29,-4.33,-4.34
284.99,-3.38,0.94,-3.34,0.97,-1.00,-0.71,1.40,-4.38,-4.35,-4.32
287.84,-3.17,1.13,-3.13,1.16,-1.19,-0.96,1.32,-4.35,-4.32,-4.29
290.72,-2.91,1.35,-2.92,1.34,-1.35,-1.20,1.24,-4.26,-4.27,-4.26
293.63,-2.65,1.58,-2.68,1.55,-1.50,-1.43,1.16,-4.15,-4.19,-4.23
296.57,-2.53,1.68,-2.51,1.69,-1.66,-1.66,1.08,-4.18,-4.17,-4.21
299.53,-2.35,1.83,-2.38,1.80,-1.81,-1.87,0.99,-4.16,-4.20,-4.18
302.53,-2.29,1.88,-2.23,1.93,-1.98,-2.07,0.91,-4.26,-4.21,-4.16
305.55,-2.06,2.07,-2.04,2.09,-2.14,-2.26,0.83,-4.20,-4.18,-4.13
308.61,-1.80,2.31,-1.84,2.26,-2.30,-2.44,0.74,-4.10,-4.15,-4.11
311.69,-1.63,2.47,-1.61,2.47,-2.46,-2.60,0.66,-4.09,-4.08,-4.09
314.81,-1.46,2.61,-1.44,2.64,-2.62,-2.75,0.57,-4.08,-4.06,-4.07
317.96,-1.24,2.83,-1.27,2.80,-2.78,-2.88,0.49,-4.02,-4.05,-4.07
321.14,-1.15,2.93,-1.12,2.95,-2.94,-2.99,0.40,-4.08,-4.06,-4.07
324.35,-0.97,3.10,-0.98,3.09,-3.08,-3.09,0.31,-4.05,-4.06,-4.07
327.59,-0.89,3.17,-0.87,3.19,-3.20,-3.18,0.23,-4.09,-4.08,-4.06
330.87,-0.74,3.32,-0.76,3.30,-3.30,-3.25,0.14,-4.04,-4.06,-4.05
334.18,-0.69,3.36,-0.66,3.39,-3.38,-3.30,0.05,-4.06,-4.03,-4.05
337.52,-0.56,3.48,-0.56,3.47,-3.44,-3.34,-0.04,-3.99,-4.00,-4.04
340.90,-0.49,3.52,-0.50,3.51,-3.49,-3.37,-0.13,-3.97,-3.99,-4.01
344.30,-0.47,3.54,-0.46,3.54,-3.52,-3.39,-0.22,-3.99,-3.99,-4.00
347.75,-0.47,3.52,-0.47,3.51,-3.55,-3.40,-0.31,-4.01,-4.02,-3.99
351.23,-0.47,3.49,-0.47,3.49,-3.55,-3.39,-0.40,-4.02,-4.02,-3.96
354.74,-0.47,3.47,-0.41,3.53,-3.54,-3.38,-0.49,-4.01,-3.95,-3.94
358.28,-0.36,3.56,-0.36,3.55,-3.52,-3.36,-0.58,-3.88,-3.88,-3.91
361.87,-0.26,3.64,-0.34,3.55,-3.49,-3.33,-0.67,-3.75,-3.84,-3.89
365.49,-0.40,3.47,-0.36,3.50,-3.47,-3.30,-0.77,-3.86,-3.83,-3.87
369.14,-0.46,3.39,-0.42,3.42,-3.44,-3.27,-0.86,-3.90,-3.86,-3.85
372.83,-0.47,3.35,-0.47,3.35,-3.41,-3.23,-0.95,-3.88,-3.88,-3.82
376.56,-0.47,3.34,-0.47,3.33,-3.37,-3.19,-1.04,-3.84,-3.84,-3.80
380.33,-0.47,3.31,-0.47,3.31,-3.32,-3.15,-1.14,-3.79,-3.79,-3.77
384.13,-0.47,3.29,-0.45,3.31,-3.28,-3.10,-1.23,-3.74,-3.73,-3.75
387.97,-0.47,3.28,-0.47,3.27,-3.23,-3.06,-1.33,-3.70,-3.70,-3.75
391.85,-0.48,3.26,-0.53,3.21,-3.19,-3.01,-1.42,-3.66,-3.71,-3.74
395.77,-0.63,3.10,-0.60,3.13,-3.14,-2.97,-1.51,-3.76,-3.73,-3.73
399.73,-0.69,3.03,-0.65,3.07,-3.08,-2.92,-1.61,-3.76,-3.72,-3.72
403.72,-0.69,3.03,-0.70,3.02,-3.01,-2.88,-1.70,-3.70,-3.71,-3.71
407.76,-0.69,3.02,-0.74,2.96,-2.96,-2.84,-1.80,-3.64,-3.70,-3.70
411.84,-0.83,2.87,-0.81,2.89,-2.90,-2.80,-1.89,-3.73,-3.71,-3.69
