frequency,raw,error,smoothed,error_smoothed,equalization,parametric_eq,fixed_band_eq,equalized_raw,equalized_smoothed,target
20.00,-9.08,-10.54,-9.10,-10.56,6.00,3.71,2.14,-3.08,-3.10,1.46
20.20,-9.02,-10.51,-9.01,-10.50,6.00,3.85,2.20,-3.02,-3.01,1.49
20.40,-8.92,-10.44,-8.90,-10.42,6.00,4.00,2.27,-2.92,-2.90,1.52
20.61,-8.78,-10.32,-8.78,-10.33,6.00,4.15,2.34,-2.78,-2.78,1.54
20.81,-8.62,-10.19,-8.63,-10.20,6.00,4.30,2.41,-2.62,-2.63,1.57
21.02,-8.47,-10.07,-8.47,-10.07,6.00,4.46,2.48,-2.47,-2.47,1.60
21.23,-8.33,-9.94,-8.33,-9.94,6.00,4.62,2.56,-2.33,-2.33,1.61
21.44,-8.18,-9.80,-8.18,-9.80,6.00,4.78,2.64,-2.18,-2.18,1.62
21.66,-8.04,-9.67,-8.04,-9.66,6.00,4.94,2.72,-2.04,-2.04,1.63
21.87,-7.89,-9.52,-7.89,-9.53,6.00,5.10,2.80,-1.89,-1.89,1.63
22.09,-7.75,-9.39,-7.75,-9.39,6.00,5.26,2.88,-1.75,-1.75,1.64
22.31,-7.61,-9.25,-7.61,-9.25,6.00,5.42,2.97,-1.61,-1.61,1.64
22.54,-7.46,-9.10,-7.46,-9.10,6.00,5.57,3.06,-1.46,-1.46,1.64
22.76,-7.32,-8.96,-7.32,-8.95,6.00,5.71,3.15,-1.32,-1.32,1.64
22.99,-7.17,-8.80,-7.17,-8.81,6.00,5.84,3.25,-1.17,-1.17,1.63
23.22,-7.03,-8.66,-7.03,-8.66,6.00,5.97,3.34,-1.03,-1.03,1.63
23.45,-6.90,-8.53,-6.89,-8.52,6.00,6.08,3.44,-0.90,-0.89,1.63
23.69,-6.75,-8.38,-6.75,-8.38,6.00,6.17,3.54,-0.75,-0.75,1.63
23.92,-6.61,-8.24,-6.61,-8.25,6.00,6.25,3.65,-0.61,-0.61,1.63
24.16,-6.48,-8.12,-6.48,-8.11,6.00,6.31,3.75,-0.48,-0.48,1.64
24.40,-6.35,-7.98,-6.35,-7.98,6.00,6.35,3.86,-0.35,-0.35,1.64
24.65,-6.21,-7.84,-6.21,-7.84,6.00,6.36,3.96,-0.21,-0.21,1.63
24.89,-6.08,-7.70,-6.07,-7.70,6.00,6.36,4.07,-0.08,-0.07,1.63
25.14,-5.94,-7.56,-5.94,-7.56,6.00,6.33,4.18,0.06,0.06,1.62
25.39,-5.79,-7.41,-5.80,-7.42,6.00,6.29,4.29,0.21,0.20,1.62
25.65,-5.66,-7.28,-5.65,-7.27,6.00,6.22,4.40,0.34,0.35,1.62
25.91,-5.51,-7.13,-5.51,-7.13,6.00,6.13,4.51,0.49,0.49,1.61
26.16,-5.37,-6.98,-5.37,-6.99,6.00,6.03,4.62,0.63,0.63,1.61
26.43,-5.24,-6.85,-5.23,-6.84,6.01,5.91,4.73,0.77,0.78,1.61
26.69,-5.08,-6.69,-5.09,-6.70,6.02,5.78,4.84,0.94,0.93,1.61
26.96,-4.95,-6.56,-4.95,-6.56,6.03,5.64,4.95,1.07,1.08,1.61
27.23,-4.81,-6.42,-4.81,-6.42,6.02,5.48,5.05,1.21,1.21,1.61
27.50,-4.66,-6.27,-4.67,-6.28,6.00,5.33,5.15,1.34,1.33,1.61
27.77,-4.53,-6.13,-4.52,-6.12,5.96,5.16,5.24,1.43,1.43,1.60
28.05,-4.39,-5.99,-4.39,-5.98,5.89,4.99,5.33,1.51,1.51,1.60
28.33,-4.24,-5.83,-4.25,-5.84,5.81,4.82,5.42,1.58,1.56,1.59
28.62,-4.13,-5.72,-4.12,-5.70,5.71,4.65,5.49,1.58,1.60,1.59
28.90,-3.99,-5.57,-3.99,-5.57,5.60,4.48,5.56,1.61,1.61,1.59
29.19,-3.85,-5.42,-3.86,-5.44,5.47,4.31,5.62,1.62,1.60,1.57
29.48,-3.74,-5.32,-3.73,-5.30,5.32,4.15,5.68,1.59,1.60,1.58
29.78,-3.60,-5.17,-3.60,-5.17,5.18,3.98,5.72,1.58,1.58,1.57
30.08,-3.45,-5.02,-3.47,-5.04,5.04,3.82,5.75,1.58,1.57,1.57
30.38,-3.35,-4.91,-3.34,-4.90,4.90,3.67,5.77,1.55,1.57,1.56
30.68,-3.20,-4.76,-3.21,-4.77,4.76,3.52,5.78,1.56,1.55,1.56
30.99,-3.08,-4.63,-3.08,-4.63,4.63,3.37,5.78,1.55,1.55,1.55
31.30,-2.95,-4.50,-2.94,-4.49,4.49,3.23,5.77,1.54,1.55,1.55
31.61,-2.80,-4.35,-2.82,-4.36,4.35,3.09,5.74,1.55,1.54,1.55
31.93,-2.69,-4.23,-2.68,-4.22,4.22,2.95,5.71,1.53,1.54,1.53
32.24,-2.56,-4.08,-2.55,-4.08,4.09,2.83,5.66,1.53,1.53,1.52
32.57,-2.42,-3.94,-2.43,-3.95,3.96,2.70,5.60,1.53,1.53,1.52
32.89,-2.31,-3.83,-2.30,-3.82,3.83,2.58,5.53,1.52,1.52,1.52
33.22,-2.18,-3.69,-2.18,-3.70,3.70,2.46,5.45,1.52,1.51,1.51
33.55,-2.07,-3.58,-2.07,-3.57,3.57,2.35,5.36,1.50,1.50,1.51
33.89,-1.95,-3.45,-1.95,-3.45,3.44,2.25,5.26,1.49,1.49,1.50
34.23,-1.83,-3.32,-1.83,-3.32,3.31,2.14,5.15,1.48,1.48,1.49
34.57,-1.70,-3.18,-1.70,-3.18,3.18,2.04,5.04,1.48,1.48,1.48
34.92,-1.58,-3.05,-1.58,-3.05,3.05,1.95,4.92,1.47,1.47,1.47
35.27,-1.45,-2.92,-1.46,-2.92,2.92,1.85,4.79,1.47,1.46,1.47
35.62,-1.35,-2.81,-1.34,-2.80,2.79,1.77,4.66,1.44,1.45,1.46
35.97,-1.22,-2.66,-1.22,-2.67,2.67,1.68,4.53,1.45,1.45,1.44
36.33,-1.10,-2.54,-1.10,-2.54,2.54,1.60,4.39,1.44,1.44,1.44
36.70,-0.98,-2.41,-0.98,-2.41,2.42,1.52,4.25,1.44,1.44,1.43
37.06,-0.87,-2.29,-0.87,-2.29,2.30,1.44,4.10,1.43,1.43,1.42
37.43,-0.77,-2.18,-0.77,-2.18,2.18,1.37,3.96,1.41,1.41,1.41
37.81,-0.67,-2.07,-0.67,-2.07,2.07,1.30,3.81,1.40,1.40,1.40
38.19,-0.56,-1.95,-0.56,-1.96,1.95,1.23,3.66,1.39,1.39,1.39
38.57,-0.46,-1.85,-0.46,-1.84,1.84,1.16,3.51,1.38,1.38,1.39
38.95,-0.36,-1.73,-0.36,-1.73,1.73,1.09,3.36,1.37,1.37,1.37
39.34,-0.25,-1.61,-0.25,-1.62,1.62,1.03,3.21,1.37,1.36,1.36
39.74,-0.15,-1.50,-0.15,-1.50,1.50,0.97,3.06,1.35,1.35,1.35
40.14,-0.05,-1.40,-0.05,-1.39,1.39,0.91,2.92,1.34,1.34,1.34
40.54,0.05,-1.28,0.05,-1.28,1.28,0.85,2.77,1.33,1.33,1.33
40.94,0.16,-1.17,0.16,-1.17,1.17,0.80,2.62,1.33,1.32,1.33
41.35,0.26,-1.05,0.26,-1.06,1.06,0.75,2.48,1.32,1.32,1.31
41.76,0.36,-0.95,0.36,-0.95,0.95,0.69,2.33,1.31,1.31,1.31
42.18,0.47,-0.84,0.46,-0.84,0.84,0.64,2.19,1.31,1.31,1.31
42.60,0.55,-0.74,0.56,-0.74,0.74,0.59,2.04,1.29,1.30,1.29
43.03,0.65,-0.64,0.65,-0.64,0.63,0.54,1.90,1.28,1.28,1.29
43.46,0.74,-0.53,0.73,-0.54,0.53,0.49,1.76,1.27,1.27,1.27
43.90,0.81,-0.44,0.82,-0.43,0.43,0.45,1.62,1.24,1.25,1.25
44.33,0.91,-0.32,0.90,-0.33,0.33,0.40,1.49,1.25,1.24,1.23
44.78,0.98,-0.24,0.98,-0.24,0.24,0.36,1.35,1.22,1.22,1.22
45.23,1.06,-0.15,1.06,-0.14,0.15,0.31,1.21,1.21,1.21,1.20
45.68,1.13,-0.06,1.13,-0.06,0.06,0.27,1.08,1.19,1.19,1.19
46.13,1.20,0.03,1.20,0.02,-0.02,0.23,0.95,1.18,1.18,1.17
46.60,1.26,0.09,1.26,0.10,-0.10,0.18,0.82,1.16,1.16,1.17
47.06,1.32,0.17,1.32,0.17,-0.18,0.14,0.69,1.14,1.15,1.15
47.53,1.38,0.24,1.38,0.24,-0.25,0.10,0.56,1.13,1.13,1.14
48.01,1.45,0.32,1.44,0.32,-0.32,0.06,0.43,1.13,1.12,1.13
48.49,1.49,0.39,1.49,0.39,-0.39,0.02,0.30,1.10,1.11,1.10
48.97,1.54,0.46,1.54,0.46,-0.45,-0.02,0.18,1.09,1.08,1.08
49.46,1.57,0.52,1.57,0.52,-0.52,-0.06,0.05,1.05,1.05,1.05
49.96,1.60,0.58,1.60,0.57,-0.57,-0.10,-0.07,1.03,1.03,1.02
50.46,1.63,0.62,1.63,0.62,-0.62,-0.13,-0.19,1.01,1.01,1.01
50.96,1.66,0.66,1.66,0.67,-0.67,-0.17,-0.31,0.99,0.99,1.00
51.47,1.69,0.72,1.69,0.71,-0.71,-0.21,-0.43,0.98,0.98,0.97
51.99,1.70,0.75,1.71,0.75,-0.74,-0.25,-0.54,0.96,0.96,0.95
52.51,1.73,0.79,1.72,0.79,-0.78,-0.28,-0.66,0.95,0.94,0.94
53.03,1.73,0.81,1.73,0.81,-0.81,-0.32,-0.77,0.92,0.92,0.92
53.56,1.73,0.83,1.73,0.83,-0.84,-0.36,-0.87,0.89,0.89,0.90
54.10,1.73,0.85,1.74,0.86,-0.87,-0.40,-0.98,0.86,0.87,0.88
54.64,1.76,0.90,1.76,0.89,-0.90,-0.43,-1.08,0.86,0.86,0.86
55.18,1.78,0.94,1.77,0.93,-0.92,-0.47,-1.18,0.86,0.85,0.84
55.74,1.78,0.96,1.78,0.96,-0.95,-0.51,-1.28,0.83,0.84,0.82
56.29,1.78,0.97,1.78,0.97,-0.97,-0.54,-1.37,0.81,0.81,0.81
56.86,1.78,0.99,1.78,0.99,-1.00,-0.58,-1.46,0.78,0.78,0.79
57.42,1.78,1.01,1.79,1.02,-1.02,-0.62,-1.54,0.76,0.77,0.77
58.00,1.80,1.05,1.80,1.04,-1.04,-0.65,-1.62,0.76,0.75,0.75
58.58,1.82,1.08,1.81,1.07,-1.07,-0.69,-1.70,0.75,0.74,0.74
59.16,1.82,1.09,1.83,1.10,-1.10,-0.72,-1.76,0.72,0.72,0.73
59.76,1.84,1.13,1.84,1.13,-1.14,-0.76,-1.83,0.70,0.70,0.71
60.35,1.86,1.17,1.86,1.17,-1.17,-0.80,-1.89,0.69,0.69,0.69
60.96,1.88,1.20,1.88,1.21,-1.21,-0.83,-1.94,0.66,0.67,0.68
61.57,1.91,1.27,1.90,1.26,-1.26,-0.87,-1.99,0.65,0.65,0.64
62.18,1.91,1.29,1.92,1.30,-1.30,-0.91,-2.03,0.61,0.63,0.62
62.80,1.95,1.35,1.94,1.34,-1.34,-0.94,-2.06,0.61,0.60,0.60
63.43,1.95,1.38,1.95,1.38,-1.37,-0.98,-2.09,0.58,0.58,0.57
64.07,1.96,1.40,1.97,1.41,-1.41,-1.01,-2.12,0.55,0.56,0.56
64.71,1.99,1.45,1.98,1.44,-1.44,-1.05,-2.13,0.55,0.54,0.54
65.35,1.99,1.47,1.99,1.47,-1.47,-1.08,-2.15,0.52,0.52,0.52
66.01,1.99,1.49,1.99,1.49,-1.50,-1.12,-2.16,0.49,0.50,0.50
66.67,1.99,1.51,2.00,1.51,-1.52,-1.15,-2.16,0.47,0.48,0.48
67.33,2.01,1.55,2.00,1.54,-1.54,-1.19,-2.16,0.47,0.46,0.46
68.01,2.01,1.57,2.01,1.57,-1.56,-1.22,-2.15,0.45,0.45,0.44
68.69,2.01,1.59,2.01,1.59,-1.58,-1.26,-2.14,0.43,0.43,0.42
69.37,2.01,1.61,2.01,1.60,-1.60,-1.29,-2.13,0.41,0.40,0.40
70.07,2.00,1.62,2.00,1.62,-1.62,-1.32,-2.11,0.38,0.38,0.38
70.77,1.99,1.62,2.00,1.63,-1.63,-1.35,-2.09,0.36,0.36,0.37
71.48,1.99,1.65,1.99,1.64,-1.65,-1.39,-2.07,0.34,0.34,0.34
72.19,1.99,1.67,1.98,1.66,-1.66,-1.42,-2.04,0.33,0.32,0.32
72.91,1.95,1.65,1.96,1.67,-1.67,-1.45,-2.01,0.28,0.30,0.30
73.64,1.95,1.68,1.95,1.67,-1.67,-1.48,-1.99,0.28,0.28,0.27
74.38,1.93,1.67,1.93,1.68,-1.67,-1.50,-1.96,0.26,0.25,0.26
75.12,1.91,1.68,1.91,1.68,-1.67,-1.53,-1.93,0.24,0.24,0.23
75.87,1.89,1.68,1.89,1.67,-1.67,-1.56,-1.89,0.22,0.22,0.21
76.63,1.86,1.66,1.86,1.66,-1.66,-1.58,-1.86,0.20,0.19,0.20
77.40,1.82,1.64,1.83,1.65,-1.65,-1.61,-1.83,0.17,0.17,0.18
78.17,1.80,1.65,1.80,1.64,-1.64,-1.63,-1.80,0.15,0.15,0.15
78.95,1.78,1.64,1.77,1.63,-1.63,-1.65,-1.76,0.15,0.14,0.14
79.74,1.74,1.62,1.75,1.62,-1.62,-1.67,-1.73,0.12,0.12,0.12
80.54,1.71,1.61,1.71,1.61,-1.61,-1.69,-1.70,0.10,0.10,0.10
81.35,1.69,1.61,1.68,1.60,-1.60,-1.71,-1.67,0.09,0.08,0.08
82.16,1.65,1.59,1.65,1.59,-1.59,-1.72,-1.64,0.06,0.06,0.06
82.98,1.62,1.57,1.62,1.58,-1.58,-1.74,-1.61,0.04,0.04,0.05
83.81,1.60,1.58,1.59,1.57,-1.57,-1.75,-1.58,0.03,0.02,0.02
84.65,1.56,1.57,1.56,1.57,-1.56,-1.76,-1.56,-0.00,-0.00,-0.01
85.50,1.53,1.55,1.53,1.56,-1.55,-1.77,-1.53,-0.02,-0.02,-0.02
86.35,1.50,1.54,1.50,1.54,-1.55,-1.78,-1.50,-0.05,-0.05,-0.04
87.22,1.47,1.54,1.47,1.54,-1.54,-1.78,-1.48,-0.07,-0.07,-0.07
88.09,1.43,1.52,1.44,1.53,-1.53,-1.79,-1.46,-0.10,-0.09,-0.09
88.97,1.41,1.52,1.40,1.51,-1.52,-1.79,-1.44,-0.11,-0.12,-0.11
89.86,1.36,1.49,1.37,1.50,-1.50,-1.79,-1.42,-0.14,-0.14,-0.13
90.76,1.33,1.50,1.33,1.50,-1.49,-1.79,-1.40,-0.16,-0.16,-0.17
91.66,1.30,1.49,1.29,1.49,-1.48,-1.79,-1.38,-0.18,-0.19,-0.19
92.58,1.25,1.47,1.26,1.47,-1.47,-1.78,-1.36,-0.22,-0.22,-0.22
93.51,1.22,1.46,1.22,1.46,-1.46,-1.78,-1.35,-0.24,-0.25,-0.24
94.44,1.17,1.44,1.18,1.45,-1.45,-1.77,-1.33,-0.28,-0.28,-0.27
95.39,1.14,1.44,1.14,1.44,-1.44,-1.76,-1.32,-0.30,-0.30,-0.30
96.34,1.10,1.44,1.10,1.43,-1.43,-1.75,-1.31,-0.33,-0.33,-0.34
97.30,1.06,1.42,1.06,1.43,-1.42,-1.74,-1.30,-0.36,-0.36,-0.36
98.28,1.02,1.41,1.02,1.41,-1.41,-1.73,-1.29,-0.39,-0.39,-0.39
99.26,0.98,1.40,0.98,1.40,-1.40,-1.71,-1.28,-0.42,-0.42,-0.42
100.25,0.93,1.38,0.93,1.38,-1.39,-1.70,-1.27,-0.46,-0.45,-0.45
101.25,0.89,1.37,0.89,1.37,-1.38,-1.68,-1.27,-0.49,-0.48,-0.48
102.27,0.86,1.37,0.85,1.36,-1.37,-1.66,-1.26,-0.51,-0.51,-0.51
103.29,0.81,1.36,0.82,1.36,-1.36,-1.65,-1.26,-0.55,-0.54,-0.55
104.32,0.78,1.35,0.78,1.35,-1.35,-1.63,-1.25,-0.57,-0.57,-0.57
105.37,0.74,1.34,0.74,1.34,-1.34,-1.61,-1.25,-0.60,-0.60,-0.60
106.42,0.70,1.33,0.70,1.33,-1.33,-1.59,-1.25,-0.63,-0.63,-0.63
107.48,0.67,1.33,0.67,1.32,-1.33,-1.57,-1.24,-0.66,-0.66,-0.66
108.56,0.63,1.33,0.63,1.32,-1.32,-1.55,-1.24,-0.69,-0.69,-0.70
109.64,0.59,1.31,0.59,1.32,-1.32,-1.53,-1.24,-0.73,-0.72,-0.72
110.74,0.56,1.31,0.56,1.31,-1.31,-1.50,-1.24,-0.75,-0.76,-0.75
111.85,0.52,1.30,0.52,1.31,-1.31,-1.48,-1.24,-0.79,-0.79,-0.78
112.97,0.48,1.31,0.48,1.31,-1.31,-1.46,-1.24,-0.83,-0.83,-0.83
114.10,0.45,1.31,0.45,1.31,-1.31,-1.44,-1.24,-0.86,-0.86,-0.86
115.24,0.41,1.31,0.41,1.31,-1.31,-1.41,-1.24,-0.90,-0.90,-0.90
116.39,0.37,1.31,0.37,1.31,-1.31,-1.39,-1.24,-0.94,-0.93,-0.94
117.55,0.34,1.31,0.33,1.31,-1.31,-1.37,-1.24,-0.97,-0.97,-0.97
118.73,0.29,1.30,0.30,1.30,-1.30,-1.35,-1.24,-1.01,-1.01,-1.01
119.92,0.26,1.30,0.26,1.30,-1.30,-1.32,-1.24,-1.04,-1.04,-1.04
121.12,0.23,1.30,0.23,1.30,-1.30,-1.30,-1.23,-1.07,-1.07,-1.07
122.33,0.19,1.30,0.19,1.30,-1.30,-1.28,-1.23,-1.11,-1.11,-1.11
123.55,0.15,1.29,0.15,1.29,-1.29,-1.26,-1.23,-1.14,-1.14,-1.14
124.79,0.11,1.28,0.12,1.29,-1.29,-1.23,-1.23,-1.18,-1.18,-1.17
126.03,0.08,1.29,0.08,1.29,-1.29,-1.21,-1.23,-1.21,-1.21,-1.21
127.29,0.06,1.30,0.05,1.29,-1.29,-1.19,-1.22,-1.23,-1.24,-1.24
128.57,0.00,1.29,0.01,1.29,-1.29,-1.17,-1.22,-1.29,-1.28,-1.29
129.85,-0.03,1.29,-0.03,1.29,-1.29,-1.15,-1.22,-1.32,-1.32,-1.32
131.15,-0.06,1.29,-0.06,1.29,-1.29,-1.13,-1.21,-1.35,-1.35,-1.35
132.46,-0.09,1.30,-0.09,1.29,-1.29,-1.11,-1.21,-1.38,-1.38,-1.39
133.79,-0.12,1.29,-0.12,1.29,-1.29,-1.09,-1.21,-1.41,-1.41,-1.41
135.12,-0.15,1.30,-0.15,1.29,-1.29,-1.07,-1.20,-1.44,-1.44,-1.45
136.48,-0.18,1.29,-0.18,1.29,-1.29,-1.05,-1.20,-1.47,-1.47,-1.47
137.84,-0.22,1.28,-0.22,1.28,-1.28,-1.04,-1.19,-1.50,-1.51,-1.50
139.22,-0.26,1.28,-0.25,1.28,-1.28,-1.02,-1.19,-1.54,-1.53,-1.54
140.61,-0.29,1.28,-0.28,1.28,-1.27,-1.00,-1.18,-1.56,-1.56,-1.57
142.02,-0.30,1.28,-0.31,1.27,-1.27,-0.99,-1.18,-1.57,-1.58,-1.58
143.44,-0.35,1.26,-0.35,1.26,-1.26,-0.97,-1.17,-1.61,-1.61,-1.60
144.87,-0.38,1.25,-0.38,1.25,-1.26,-0.95,-1.17,-1.64,-1.63,-1.63
146.32,-0.41,1.25,-0.41,1.25,-1.25,-0.94,-1.17,-1.66,-1.66,-1.66
147.78,-0.43,1.25,-0.44,1.24,-1.24,-0.93,-1.16,-1.67,-1.68,-1.68
149.26,-0.47,1.23,-0.47,1.24,-1.24,-0.91,-1.16,-1.71,-1.70,-1.70
150.75,-0.50,1.24,-0.50,1.23,-1.23,-0.90,-1.16,-1.73,-1.73,-1.74
152.26,-0.53,1.23,-0.53,1.23,-1.23,-0.89,-1.16,-1.76,-1.76,-1.76
153.78,-0.56,1.22,-0.57,1.22,-1.22,-0.88,-1.16,-1.78,-1.79,-1.78
155.32,-0.61,1.21,-0.60,1.22,-1.22,-0.87,-1.16,-1.83,-1.82,-1.82
156.88,-0.62,1.22,-0.63,1.22,-1.22,-0.86,-1.16,-1.84,-1.84,-1.84
158.44,-0.65,1.22,-0.66,1.21,-1.22,-0.85,-1.16,-1.87,-1.87,-1.87
160.03,-0.69,1.21,-0.69,1.22,-1.21,-0.84,-1.16,-1.90,-1.90,-1.90
161.63,-0.73,1.20,-0.72,1.21,-1.21,-0.83,-1.16,-1.94,-1.93,-1.93
163.24,-0.74,1.22,-0.75,1.21,-1.21,-0.82,-1.17,-1.95,-1.96,-1.96
164.88,-0.78,1.20,-0.78,1.21,-1.21,-0.82,-1.17,-1.99,-1.99,-1.98
166.53,-0.82,1.19,-0.81,1.20,-1.20,-0.81,-1.18,-2.02,-2.01,-2.01
168.19,-0.84,1.20,-0.85,1.19,-1.20,-0.80,-1.18,-2.04,-2.05,-2.04
169.87,-0.87,1.20,-0.87,1.20,-1.20,-0.80,-1.19,-2.07,-2.07,-2.07
171.57,-0.91,1.19,-0.89,1.20,-1.20,-0.80,-1.20,-2.11,-2.09,-2.10
173.29,-0.91,1.21,-0.93,1.20,-1.20,-0.80,-1.21,-2.11,-2.13,-2.12
175.02,-0.95,1.20,-0.95,1.20,-1.20,-0.79,-1.22,-2.15,-2.15,-2.15
176.77,-1.00,1.19,-0.98,1.21,-1.20,-0.79,-1.23,-2.20,-2.18,-2.19
178.54,-1.00,1.22,-1.02,1.20,-1.21,-0.79,-1.24,-2.21,-2.22,-2.22
180.32,-1.04,1.21,-1.04,1.21,-1.21,-0.80,-1.25,-2.25,-2.25,-2.25
182.13,-1.08,1.19,-1.07,1.21,-1.21,-0.80,-1.27,-2.29,-2.28,-2.27
183.95,-1.09,1.22,-1.10,1.20,-1.21,-0.80,-1.28,-2.30,-2.31,-2.31
185.79,-1.13,1.20,-1.13,1.21,-1.21,-0.81,-1.30,-2.34,-2.33,-2.33
187.65,-1.15,1.21,-1.15,1.21,-1.20,-0.82,-1.32,-2.35,-2.35,-2.36
189.52,-1.18,1.21,-1.18,1.21,-1.20,-0.82,-1.33,-2.38,-2.38,-2.39
191.42,-1.21,1.20,-1.22,1.19,-1.19,-0.83,-1.35,-2.40,-2.40,-2.41
193.33,-1.26,1.17,-1.26,1.17,-1.18,-0.85,-1.37,-2.44,-2.44,-2.43
195.27,-1.30,1.15,-1.29,1.16,-1.17,-0.86,-1.39,-2.47,-2.46,-2.45
197.22,-1.33,1.14,-1.33,1.15,-1.16,-0.87,-1.41,-2.49,-2.49,-2.47
199.19,-1.34,1.17,-1.35,1.15,-1.15,-0.89,-1.43,-2.49,-2.50,-2.51
201.18,-1.39,1.13,-1.38,1.14,-1.14,-0.91,-1.46,-2.53,-2.51,-2.52
203.19,-1.39,1.14,-1.40,1.13,-1.13,-0.93,-1.48,-2.52,-2.53,-2.53
205.23,-1.43,1.12,-1.42,1.12,-1.12,-0.96,-1.50,-2.55,-2.54,-2.55
207.28,-1.43,1.12,-1.44,1.11,-1.11,-0.99,-1.52,-2.54,-2.55,-2.55
209.35,-1.47,1.10,-1.46,1.11,-1.10,-1.02,-1.54,-2.57,-2.56,-2.57
211.44,-1.47,1.11,-1.47,1.11,-1.10,-1.05,-1.56,-2.57,-2.57,-2.58
213.56,-1.48,1.10,-1.49,1.09,-1.09,-1.09,-1.59,-2.57,-2.58,-2.58
215.69,-1.49,1.09,-1.50,1.09,-1.09,-1.13,-1.61,-2.58,-2.59,-2.58
217.85,-1.52,1.07,-1.50,1.09,-1.09,-1.17,-1.63,-2.61,-2.59,-2.59
220.03,-1.49,1.11,-1.50,1.10,-1.10,-1.22,-1.65,-2.59,-2.60,-2.60
222.23,-1.47,1.13,-1.48,1.11,-1.11,-1.27,-1.67,-2.58,-2.59,-2.60
224.45,-1.47,1.12,-1.45,1.14,-1.13,-1.33,-1.68,-2.60,-2.58,-2.59
226.70,-1.42,1.17,-1.42,1.16,-1.17,-1.39,-1.70,-2.59,-2.59,-2.59
228.96,-1.37,1.21,-1.38,1.20,-1.22,-1.45,-1.71,-2.59,-2.60,-2.58
231.25,-1.32,1.25,-1.31,1.26,-1.28,-1.52,-1.72,-2.60,-2.60,-2.57
233.57,-1.23,1.34,-1.23,1.34,-1.37,-1.60,-1.74,-2.60,-2.60,-2.57
235.90,-1.13,1.43,-1.12,1.44,-1.47,-1.67,-1.74,-2.60,-2.59,-2.56
238.26,-0.98,1.58,-0.99,1.57,-1.57,-1.75,-1.75,-2.55,-2.56,-2.56
240.64,-0.85,1.69,-0.85,1.70,-1.69,-1.83,-1.75,-2.54,-2.54,-2.54
243.05,-0.71,1.82,-0.71,1.82,-1.81,-1.92,-1.76,-2.52,-2.52,-2.53
245.48,-0.58,1.94,-0.58,1.94,-1.92,-2.00,-1.75,-2.50,-2.50,-2.52
247.93,-0.46,2.04,-0.46,2.04,-2.02,-2.07,-1.75,-2.48,-2.49,-2.50
250.41,-0.36,2.13,-0.36,2.13,-2.12,-2.14,-1.74,-2.48,-2.47,-2.49
252.92,-0.27,2.20,-0.27,2.20,-2.19,-2.20,-1.74,-2.46,-2.46,-2.47
255.45,-0.19,2.25,-0.19,2.26,-2.26,-2.26,-1.72,-2.45,-2.45,-2.44
258.00,-0.13,2.30,-0.13,2.29,-2.30,-2.29,-1.71,-2.43,-2.44,-2.43
260.58,-0.09,2.32,-0.08,2.33,-2.33,-2.32,-1.69,-2.42,-2.42,-2.41
263.19,-0.04,2.35,-0.04,2.35,-2.35,-2.32,-1.67,-2.39,-2.39,-2.39
265.82,-0.01,2.36,-0.01,2.35,-2.35,-2.31,-1.65,-2.36,-2.36,-2.37
268.48,-0.00,2.34,0.00,2.35,-2.33,-2.29,-1.63,-2.33,-2.33,-2.34
271.16,-0.01,2.31,-0.01,2.31,-2.29,-2.24,-1.60,-2.30,-2.31,-2.32
273.87,-0.04,2.26,-0.05,2.25,-2.24,-2.19,-1.57,-2.28,-2.29,-2.30
276.61,-0.11,2.16,-0.09,2.18,-2.18,-2.12,-1.54,-2.29,-2.27,-2.27
279.38,-0.15,2.11,-0.15,2.10,-2.11,-2.04,-1.51,-2.26,-2.26,-2.26
282.17,-0.21,2.03,-0.22,2.02,-2.02,-1.96,-1.48,-2.23,-2.24,-2.24
284.99,-0.29,1.92,-0.28,1.93,-1.94,-1.87,-1.44,-2.23,-2.22,-2.21
287.84,-0.36,1.84,-0.35,1.84,-1.85,-1.78,-1.41,-2.21,-2.20,-2.20
290.72,-0.41,1.76,-0.42,1.75,-1.76,-1.69,-1.37,-2.17,-2.18,-2.17
293.63,-0.48,1.67,-0.48,1.67,-1.67,-1.60,-1.33,-2.15,-2.15,-2.15
296.57,-0.54,1.58,-0.54,1.59,-1.59,-1.51,-1.30,-2.13,-2.12,-2.12
299.53,-0.59,1.52,-0.60,1.51,-1.51,-1.43,-1.26,-2.10,-2.10,-2.11
302.53,-0.65,1.44,-0.65,1.43,-1.43,-1.34,-1.22,-2.08,-2.08,-2.09
305.55,-0.71,1.34,-0.71,1.35,-1.35,-1.27,-1.18,-2.06,-2.06,-2.05
308.61,-0.76,1.27,-0.75,1.27,-1.28,-1.19,-1.14,-2.04,-2.03,-2.03
311.69,-0.79,1.21,-0.80,1.20,-1.21,-1.13,-1.10,-2.00,-2.01,-2.00
314.81,-0.84,1.13,-0.84,1.14,-1.14,-1.06,-1.06,-1.98,-1.98,-1.97
317.96,-0.88,1.07,-0.88,1.07,-1.08,-1.00,-1.02,-1.96,-1.95,-1.95
321.14,-0.91,1.02,-0.92,1.01,-1.02,-0.95,-0.98,-1.93,-1.93,-1.93
324.35,-0.95,0.96,-0.95,0.96,-0.96,-0.89,-0.94,-1.91,-1.91,-1.91
327.59,-0.99,0.89,-0.99,0.90,-0.90,-0.85,-0.90,-1.89,-1.89,-1.88
330.87,-1.02,0.85,-1.02,0.84,-0.84,-0.80,-0.86,-1.86,-1.86,-1.87
334.18,-1.06,0.79,-1.06,0.78,-0.78,-0.76,-0.82,-1.84,-1.84,-1.85
337.52,-1.10,0.73,-1.10,0.72,-0.72,-0.72,-0.78,-1.82,-1.82,-1.83
340.90,-1.15,0.65,-1.15,0.66,-0.65,-0.68,-0.75,-1.80,-1.80,-1.80
344.30,-1.19,0.59,-1.19,0.59,-0.58,-0.65,-0.71,-1.77,-1.78,-1.78
347.75,-1.25,0.51,-1.25,0.51,-0.51,-0.62,-0.67,-1.76,-1.76,-1.76
351.23,-1.30,0.44,-1.31,0.44,-0.43,-0.59,-0.63,-1.73,-1.74,-1.74
354.74,-1.38,0.34,-1.37,0.35,-0.35,-0.56,-0.60,-1.73,-1.72,-1.72
358.28,-1.43,0.28,-1.44,0.27,-0.26,-0.53,-0.56,-1.70,-1.70,-1.71
361.87,-1.50,0.19,-1.50,0.19,-0.18,-0.51,-0.53,-1.68,-1.69,-1.69
365.49,-1.57,0.10,-1.56,0.11,-0.11,-0.48,-0.49,-1.68,-1.67,-1.67
369.14,-1.62,0.04,-1.63,0.03,-0.04,-0.46,-0.46,-1.66,-1.66,-1.66
372.83,-1.68,-0.04,-1.68,-0.03,0.02,-0.44,-0.43,-1.66,-1.65,-1.64
376.56,-1.71,-0.08,-1.71,-0.08,0.07,-0.42,-0.39,-1.64,-1.64,-1.63
380.33,-1.73,-0.13,-1.73,-0.12,0.11,-0.41,-0.36,-1.62,-1.62,-1.60
384.13,-1.73,-0.14,-1.74,-0.14,0.13,-0.39,-0.33,-1.60,-1.60,-1.59
387.97,-1.73,-0.15,-1.73,-0.15,0.15,-0.37,-0.30,-1.58,-1.58,-1.58
391.85,-1.73,-0.16,-1.72,-0.15,0.15,-0.36,-0.27,-1.58,-1.57,-1.57
395.77,-1.69,-0.13,-1.71,-0.15,0.14,-0.34,-0.23,-1.55,-1.56,-1.56
399.73,-1.69,-0.14,-1.68,-0.13,0.13,-0.33,-0.20,-1.56,-1.55,-1.55
403.72,-1.65,-0.11,-1.65,-0.11,0.11,-0.32,-0.18,-1.54,-1.53,-1.54
407.76,-1.61,-0.08,-1.62,-0.09,0.10,-0.31,-0.15,-1.51,-1.52,-1.53
411.84,-1.58,-0.07,-1.58,-0.07,0.08,-0.29,-0.12,-1.50,-1.50,-1.51
415.96,-1.56,-0.06,-1.55,-0.06,0.06,-0.28,-0.09,-1.50,-1.50,-1.50
420.12,-1.52,-0.03,-1.53,-0.04,0.04,-0.27,-0.06,-1.48,-1.49,-1.49
424.32,-1.51,-0.03,-1.50,-0.02,0.02,-0.26,-0.04,-1.49,-1.48,-1.48
428.56,-1.47,0.00,-1.48,-0.01,0.01,-0.25,-0.01,-1.46,-1.47,-1.47
432.85,-1.47,-0.01,-1.46,0.00,0.00,-0.24,0.01,-1.47,-1.46,-1.46
437.18,-1.43,0.02,-1.44,0.01,-0.00,-0.23,0.04,-1.43,-1.45,-1.45
441.55,-1.43,0.00,-1.43,0.01,-0.01,-0.23,0.06,-1.44,-1.44,-1.43
445.96,-1.42,0.00,-1.41,0.01,-0.01,-0.22,0.08,-1.43,-1.43,-1.42
450.42,-1.39,0.02,-1.40,0.01,-0.02,-0.21,0.10,-1.41,-1.42,-1.41
454.93,-1.39,0.00,-1.38,0.02,-0.02,-0.20,0.12,-1.41,-1.39,-1.39
459.48,-1.35,0.03,-1.36,0.02,-0.02,-0.20,0.14,-1.37,-1.38,-1.38
464.07,-1.34,0.02,-1.34,0.02,-0.02,-0.19,0.16,-1.36,-1.36,-1.36
468.71,-1.34,0.00,-1.33,0.02,-0.02,-0.18,0.17,-1.36,-1.35,-1.34
473.40,-1.30,0.03,-1.31,0.02,-0.02,-0.18,0.19,-1.32,-1.33,-1.33
