frequency,raw
20.00,11.25
20.20,11.20
20.40,11.15
20.61,11.10
20.81,11.06
21.02,11.02
21.23,10.99
21.44,10.96
21.66,10.94
21.87,10.93
22.09,10.92
22.31,10.92
22.54,10.92
22.76,10.93
22.99,10.94
23.22,10.95
23.45,10.96
23.69,10.98
23.92,10.99
24.16,11.01
24.40,11.03
24.65,11.05
24.89,11.07
25.14,11.09
25.39,11.11
25.65,11.14
25.91,11.16
26.16,11.19
26.43,11.21
26.69,11.24
26.96,11.26
27.23,11.28
27.50,11.30
27.77,11.32
28.05,11.34
28.33,11.36
28.62,11.38
28.90,11.40
29.19,11.42
29.48,11.43
29.78,11.45
30.08,11.46
30.38,11.48
30.68,11.49
30.99,11.50
31.30,11.51
31.61,11.52
31.93,11.53
32.24,11.54
32.57,11.54
32.89,11.55
33.22,11.56
33.55,11.56
33.89,11.56
34.23,11.57
34.57,11.57
34.92,11.57
35.27,11.57
35.62,11.57
35.97,11.56
36.33,11.56
36.70,11.56
37.06,11.55
37.43,11.55
37.81,11.55
38.19,11.54
38.57,11.53
38.95,11.53
39.34,11.52
39.74,11.51
40.14,11.50
40.54,11.49
40.94,11.47
41.35,11.46
41.76,11.45
42.18,11.44
42.60,11.42
43.03,11.41
43.46,11.39
43.90,11.38
44.33,11.36
44.78,11.35
45.23,11.33
45.68,11.31
46.13,11.29
46.60,11.27
47.06,11.25
47.53,11.23
48.01,11.21
48.49,11.19
48.97,11.16
49.46,11.14
49.96,11.11
50.46,11.08
50.96,11.05
51.47,11.02
51.99,10.99
52.51,10.95
53.03,10.91
53.56,10.87
54.10,10.83
54.64,10.78
55.18,10.74
55.74,10.69
56.29,10.63
56.86,10.58
57.42,10.52
58.00,10.47
58.58,10.41
59.16,10.34
59.76,10.28
60.35,10.21
60.96,10.14
61.57,10.07
62.18,10.00
62.80,9.92
63.43,9.84
64.07,9.76
64.71,9.67
65.35,9.57
66.01,9.46
66.67,9.34
67.33,9.22
68.01,9.07
68.69,8.91
69.37,8.74
70.07,8.56
70.77,8.35
71.48,8.13
72.19,7.90
72.91,7.65
73.64,7.40
74.38,7.13
75.12,6.85
75.87,6.57
76.63,6.28
77.40,5.99
78.17,5.70
78.95,5.42
79.74,5.13
80.54,4.86
81.35,4.59
82.16,4.33
82.98,4.08
83.81,3.84
84.65,3.62
85.50,3.41
86.35,3.22
87.22,3.04
88.09,2.89
88.97,2.76
89.86,2.64
90.76,2.54
91.66,2.47
92.58,2.41
93.51,2.37
94.44,2.35
95.39,2.34
96.34,2.34
97.30,2.36
98.28,2.39
99.26,2.43
100.25,2.48
101.25,2.53
102.27,2.59
103.29,2.65
104.32,2.71
105.37,2.78
106.42,2.84
107.48,2.90
108.56,2.97
109.64,3.02
110.74,3.08
111.85,3.13
112.97,3.18
114.10,3.23
115.24,3.27
116.39,3.31
117.55,3.34
118.73,3.37
119.92,3.40
121.12,3.42
122.33,3.44
123.55,3.46
124.79,3.47
126.03,3.49
127.29,3.50
128.57,3.51
129.85,3.51
131.15,3.52
132.46,3.52
133.79,3.53
135.12,3.53
136.48,3.53
137.84,3.53
139.22,3.53
140.61,3.53
142.02,3.53
143.44,3.53
144.87,3.53
146.32,3.53
147.78,3.53
149.26,3.54
150.75,3.54
152.26,3.54
153.78,3.54
155.32,3.54
156.88,3.54
158.44,3.55
160.03,3.55
161.63,3.56
163.24,3.56
164.88,3.57
166.53,3.58
168.19,3.58
169.87,3.59
171.57,3.60
173.29,3.61
175.02,3.62
176.77,3.62
178.54,3.63
180.32,3.64
182.13,3.65
183.95,3.66
185.79,3.66
187.65,3.67
189.52,3.68
191.42,3.68
193.33,3.69
195.27,3.69
197.22,3.69
199.19,3.69
201.18,3.69
203.19,3.69
205.23,3.69
207.28,3.69
209.35,3.69
211.44,3.68
213.56,3.68
215.69,3.67
217.85,3.67
220.03,3.66
222.23,3.65
224.45,3.65
226.70,3.64
228.96,3.63
231.25,3.61
233.57,3.60
235.90,3.59
238.26,3.58
240.64,3.56
243.05,3.55
245.48,3.53
247.93,3.51
250.41,3.50
252.92,3.48
255.45,3.46
258.00,3.44
260.58,3.42
263.19,3.40
265.82,3.38
268.48,3.36
271.16,3.34
273.87,3.31
276.61,3.29
279.38,3.27
282.17,3.24
284.99,3.22
287.84,3.20
290.72,3.17
293.63,3.14
296.57,3.12
299.53,3.09
302.53,3.06
305.55,3.03
308.61,3.00
311.69,2.97
314.81,2.94
317.96,2.90
321.14,2.87
324.35,2.83
327.59,2.80
330.87,2.76
334.18,2.72
337.52,2.68
340.90,2.63
344.30,2.59
347.75,2.55
351.23,2.51
354.74,2.46
358.28,2.41
361.87,2.35
365.49,2.30
369.14,2.24
372.83,2.19
376.56,2.14
380.33,2.09
384.13,2.04
387.97,1.99
391.85,1.94
395.77,1.90
399.73,1.85
403.72,1.81
407.76,1.76
411.84,1.72
415.96,1.68
420.12,1.64
424.32,1.60
428.56,1.56
432.85,1.52
437.18,1.48
441.55,1.44
445.96,1.41
450.42,1.37
454.93,1.34
459.48,1.30
464.07,1.27
468.71,1.24
473.40,1.20
478.13,1.17
482.91,1.14
487.74,1.11
492.62,1.08
497.55,1.06
502.52,1.03
507.55,1.01
512.62,0.99
517.75,0.98
522.93,0.96
528.16,0.95
533.44,0.94
538.77,0.93
544.16,0.92
549.60,0.91
555.10,0.91
560.65,0.90
566.25,0.89
571.92,0.87
577.64,0.86
583.41,0.85
589.25,0.83
595.14,0.81
601.09,0.79
607.10,0.77
613.17,0.75
619.30,0.72
625.50,0.69
631.75,0.65
638.07,0.61
644.45,0.56
650.89,0.51
657.40,0.45
663.98,0.38
670.62,0.31
677.32,0.24
684.10,0.16
690.94,0.08
697.85,-0.01
704.83,-0.10
711.87,-0.20
718.99,-0.30
726.18,-0.40
733.44,-0.50
740.78,-0.60
748.19,-0.70
755.67,-0.79
763.23,-0.89
770.86,-0.97
778.57,-1.05
786.35,-1.12
794.22,-1.18
802.16,-1.23
810.18,-1.27
818.28,-1.31
826.46,-1.33
834.73,-1.34
843.08,-1.34
851.51,-1.32
860.02,-1.30
868.62,-1.27
877.31,-1.22
886.08,-1.17
894.94,-1.10
903.89,-1.03
912.93,-0.95
922.06,-0.87
931.28,-0.77
940.59,-0.67
950.00,-0.57
959.50,-0.47
969.09,-0.36
978.78,-0.25
988.57,-0.14
998.46,-0.02
1008.44,0.10
1018.53,0.23
1028.71,0.35
1039.00,0.48
1049.39,0.60
1059.88,0.73
1070.48,0.85
1081.19,0.97
1092.00,1.09
1102.92,1.21
1113.95,1.33
1125.09,1.45
1136.34,1.57
1147.70,1.68
1159.18,1.78
1170.77,1.88
1182.48,1.97
1194.30,2.05
1206.25,2.12
1218.31,2.17
1230.49,2.22
1242.80,2.24
1255.22,2.25
1267.78,2.24
1280.45,2.22
1293.26,2.19
1306.19,2.16
1319.25,2.13
1332.45,2.12
1345.77,2.12
1359.23,2.12
1372.82,2.15
1386.55,2.18
1400.41,2.21
1414.42,2.25
1428.56,2.28
1442.85,2.30
1457.28,2.32
1471.85,2.32
1486.57,2.33
1501.43,2.33
1516.45,2.33
1531.61,2.32
1546.93,2.32
1562.40,2.32
1578.02,2.32
1593.80,2.33
1609.74,2.34
1625.84,2.37
1642.10,2.40
1658.52,2.45
1675.10,2.52
1691.85,2.60
1708.77,2.70
1725.86,2.82
1743.12,2.97
1760.55,3.14
1778.15,3.34
1795.94,3.56
1813.90,3.80
1832.03,4.06
1850.36,4.34
1868.86,4.62
1887.55,4.90
1906.42,5.18
1925.49,5.46
1944.74,5.72
1964.19,5.97
1983.83,6.21
2003.67,6.43
2023.71,6.62
2043.94,6.79
2064.38,6.95
2085.03,7.09
2105.88,7.21
2126.94,7.32
2148.20,7.42
2169.69,7.51
2191.38,7.59
2213.30,7.66
2235.43,7.73
2257.78,7.80
2280.36,7.86
2303.17,7.92
2326.20,7.97
2349.46,8.02
2372.95,8.06
2396.68,8.09
2420.65,8.11
2444.86,8.13
2469.31,8.15
2494.00,8.16
2518.94,8.18
2544.13,8.21
2569.57,8.24
2595.27,8.29
2621.22,8.37
2647.43,8.45
2673.90,8.54
2700.64,8.65
2727.65,8.75
2754.93,8.85
2782.48,8.95
2810.30,9.02
2838.40,9.09
2866.79,9.13
2895.46,9.16
2924.41,9.18
2953.65,9.20
2983.19,9.20
3013.02,9.20
3043.15,9.20
3073.58,9.19
3104.32,9.18
3135.36,9.16
3166.72,9.14
3198.38,9.10
3230.37,9.05
3262.67,8.99
3295.30,8.92
3328.25,8.83
3361.53,8.73
3395.15,8.61
3429.10,8.48
3463.39,8.34
3498.03,8.17
3533.01,7.98
3568.34,7.77
3604.02,7.52
3640.06,7.24
3676.46,6.94
3713.22,6.59
3750.36,6.21
3787.86,5.80
3825.74,5.36
3864.00,4.89
3902.64,4.39
3941.66,3.88
3981.08,3.35
4020.89,2.81
4061.10,2.28
4101.71,1.77
4142.73,1.28
4184.15,0.84
4226.00,0.49
4268.26,0.23
4310.94,0.05
4354.05,0.01
4397.59,0.09
4441.56,0.25
4485.98,0.52
4530.84,0.87
4576.15,1.25
4621.91,1.67
4668.13,2.07
4714.81,2.45
4761.96,2.79
4809.58,3.04
4857.67,3.23
4906.25,3.35
4955.31,3.35
5004.87,3.26
5054.91,3.10
5105.46,2.82
5156.52,2.44
5208.08,2.00
5260.16,1.47
5312.77,0.91
5365.89,0.35
5419.55,-0.18
5473.75,-0.58
5528.49,-0.87
5583.77,-1.05
5639.61,-1.00
5696.00,-0.83
5752.96,-0.55
5810.49,-0.12
5868.60,0.36
5927.28,0.88
5986.56,1.42
6046.42,1.94
6106.89,2.45
6167.96,2.95
6229.64,3.42
6291.93,3.88
6354.85,4.33
6418.40,4.76
6482.58,5.18
6547.41,5.60
6612.88,6.01
6679.01,6.42
6745.80,6.83
6813.26,7.19
6881.39,7.50
6950.21,7.72
7019.71,7.83
7089.91,7.77
7160.81,7.61
7232.41,7.32
7304.74,6.94
7377.79,6.56
7451.56,6.19
7526.08,5.97
7601.34,5.89
7677.35,5.94
7754.13,6.26
7831.67,6.72
7909.98,7.31
7989.08,8.06
8068.98,8.89
8149.67,9.77
8231.16,10.68
8313.47,11.54
8396.61,12.34
8480.57,13.03
8565.38,13.44
8651.03,13.64
8737.54,13.61
8824.92,13.13
8913.17,12.41
9002.30,11.46
9092.32,10.25
9183.25,8.95
9275.08,7.61
9367.83,6.31
9461.51,5.13
9556.12,4.06
9651.68,3.14
9748.20,2.39
9845.68,1.73
9944.14,1.17
10043.58,0.68
10144.02,0.21
10245.46,-0.24
10347.91,-0.64
10451.39,-0.98
10555.91,-1.26
10661.46,-1.42
10768.08,-1.36
10875.76,-1.10
10984.52,-0.56
11094.36,0.20
11205.31,1.03
11317.36,1.89
11430.53,2.50
11544.84,2.86
11660.29,2.94
11776.89,2.62
11894.66,2.22
12013.60,1.75
12133.74,1.28
12255.08,0.98
12377.63,0.84
12501.41,0.98
12626.42,1.30
12752.68,1.68
12880.21,2.09
13009.01,2.39
13139.10,2.57
13270.49,2.61
13403.20,2.49
13537.23,2.35
13672.60,2.20
13809.33,1.98
13947.42,1.66
14086.90,1.23
14227.77,0.59
14370.04,-0.21
14513.74,-1.12
14658.88,-2.18
14805.47,-3.42
14953.52,-4.68
15103.06,-5.87
15254.09,-6.83
15406.63,-7.57
15560.70,-8.05
15716.30,-8.07
15873.47,-7.87
16032.20,-7.48
16192.52,-6.89
16354.45,-6.29
16517.99,-5.70
16683.17,-5.09
16850.01,-4.61
17018.51,-4.20
17188.69,-3.80
17360.58,-3.25
17534.18,-2.56
17709.53,-1.67
17886.62,-0.54
18065.49,0.64
18246.14,1.86
18428.60,3.00
18612.89,3.95
18799.02,4.71
18987.01,5.17
19176.88,5.46
19368.65,5.59
19562.33,5.47
19757.96,5.10
19955.54,4.56
