frequency,raw
20.00,-4.63
20.20,-4.63
20.40,-4.62
20.61,-4.61
20.81,-4.61
21.02,-4.60
21.23,-4.59
21.44,-4.58
21.66,-4.56
21.87,-4.55
22.09,-4.53
22.31,-4.52
22.54,-4.50
22.76,-4.49
22.99,-4.47
23.22,-4.46
23.45,-4.44
23.69,-4.42
23.92,-4.41
24.16,-4.39
24.40,-4.37
24.65,-4.34
24.89,-4.32
25.14,-4.30
25.39,-4.28
25.65,-4.25
25.91,-4.23
26.16,-4.21
26.43,-4.18
26.69,-4.16
26.96,-4.14
27.23,-4.11
27.50,-4.09
27.77,-4.06
28.05,-4.04
28.33,-4.01
28.62,-3.99
28.90,-3.97
29.19,-3.94
29.48,-3.92
29.78,-3.89
30.08,-3.87
30.38,-3.85
30.68,-3.82
30.99,-3.80
31.30,-3.79
31.61,-3.77
31.93,-3.76
32.24,-3.75
32.57,-3.73
32.89,-3.72
33.22,-3.71
33.55,-3.70
33.89,-3.68
34.23,-3.67
34.57,-3.66
34.92,-3.65
35.27,-3.63
35.62,-3.62
35.97,-3.61
36.33,-3.60
36.70,-3.59
37.06,-3.58
37.43,-3.56
37.81,-3.55
38.19,-3.54
38.57,-3.53
38.95,-3.52
39.34,-3.51
39.74,-3.50
40.14,-3.49
40.54,-3.48
40.94,-3.47
41.35,-3.46
41.76,-3.45
42.18,-3.44
42.60,-3.43
43.03,-3.42
43.46,-3.40
43.90,-3.39
44.33,-3.38
44.78,-3.38
45.23,-3.37
45.68,-3.36
46.13,-3.35
46.60,-3.34
47.06,-3.34
47.53,-3.33
48.01,-3.33
48.49,-3.32
48.97,-3.32
49.46,-3.31
49.96,-3.31
50.46,-3.31
50.96,-3.30
51.47,-3.30
51.99,-3.30
52.51,-3.29
53.03,-3.29
53.56,-3.29
54.10,-3.29
54.64,-3.28
55.18,-3.28
55.74,-3.28
56.29,-3.28
56.86,-3.28
57.42,-3.27
58.00,-3.27
58.58,-3.27
59.16,-3.26
59.76,-3.26
60.35,-3.25
60.96,-3.24
61.57,-3.24
62.18,-3.23
62.80,-3.22
63.43,-3.21
64.07,-3.20
64.71,-3.19
65.35,-3.18
66.01,-3.16
66.67,-3.15
67.33,-3.14
68.01,-3.13
68.69,-3.11
69.37,-3.09
70.07,-3.08
70.77,-3.06
71.48,-3.05
72.19,-3.03
72.91,-3.01
73.64,-2.99
74.38,-2.98
75.12,-2.96
75.87,-2.94
76.63,-2.92
77.40,-2.90
78.17,-2.88
78.95,-2.87
79.74,-2.85
80.54,-2.83
81.35,-2.81
82.16,-2.80
82.98,-2.78
83.81,-2.76
84.65,-2.74
85.50,-2.73
86.35,-2.71
87.22,-2.70
88.09,-2.68
88.97,-2.67
89.86,-2.65
90.76,-2.64
91.66,-2.62
92.58,-2.61
93.51,-2.59
94.44,-2.58
95.39,-2.56
96.34,-2.55
97.30,-2.54
98.28,-2.52
99.26,-2.51
100.25,-2.49
101.25,-2.48
102.27,-2.47
103.29,-2.45
104.32,-2.44
105.37,-2.43
106.42,-2.42
107.48,-2.40
108.56,-2.39
109.64,-2.38
110.74,-2.36
111.85,-2.35
112.97,-2.34
114.10,-2.33
115.24,-2.31
116.39,-2.30
117.55,-2.29
118.73,-2.28
119.92,-2.26
121.12,-2.25
122.33,-2.24
123.55,-2.23
124.79,-2.22
126.03,-2.21
127.29,-2.20
128.57,-2.19
129.85,-2.18
131.15,-2.17
132.46,-2.16
133.79,-2.15
135.12,-2.14
136.48,-2.12
137.84,-2.11
139.22,-2.10
140.61,-2.09
142.02,-2.08
143.44,-2.07
144.87,-2.06
146.32,-2.05
147.78,-2.04
149.26,-2.03
150.75,-2.02
152.26,-2.01
153.78,-2.00
155.32,-1.99
156.88,-1.98
158.44,-1.97
160.03,-1.97
161.63,-1.96
163.24,-1.95
164.88,-1.94
166.53,-1.93
168.19,-1.93
169.87,-1.92
171.57,-1.92
173.29,-1.91
175.02,-1.91
176.77,-1.91
178.54,-1.91
180.32,-1.91
182.13,-1.90
183.95,-1.90
185.79,-1.91
187.65,-1.90
189.52,-1.91
191.42,-1.91
193.33,-1.91
195.27,-1.91
197.22,-1.91
199.19,-1.92
201.18,-1.92
203.19,-1.93
205.23,-1.93
207.28,-1.94
209.35,-1.94
211.44,-1.95
213.56,-1.96
215.69,-1.96
217.85,-1.97
220.03,-1.97
222.23,-1.98
224.45,-1.98
226.70,-1.99
228.96,-1.99
231.25,-1.99
233.57,-1.99
235.90,-1.99
238.26,-1.99
240.64,-1.99
243.05,-1.99
245.48,-1.99
247.93,-1.99
250.41,-1.99
252.92,-1.98
255.45,-1.98
258.00,-1.98
260.58,-1.97
263.19,-1.97
265.82,-1.97
268.48,-1.96
271.16,-1.96
273.87,-1.95
276.61,-1.95
279.38,-1.95
282.17,-1.94
284.99,-1.94
287.84,-1.94
290.72,-1.94
293.63,-1.93
296.57,-1.93
299.53,-1.93
302.53,-1.93
305.55,-1.93
308.61,-1.93
311.69,-1.93
314.81,-1.93
317.96,-1.93
321.14,-1.93
324.35,-1.93
327.59,-1.93
330.87,-1.94
334.18,-1.94
337.52,-1.94
340.90,-1.95
344.30,-1.95
347.75,-1.96
351.23,-1.96
354.74,-1.96
358.28,-1.95
361.87,-1.93
365.49,-1.91
369.14,-1.89
372.83,-1.87
376.56,-1.85
380.33,-1.83
384.13,-1.80
387.97,-1.78
391.85,-1.75
395.77,-1.72
399.73,-1.69
403.72,-1.67
407.76,-1.64
411.84,-1.61
415.96,-1.58
420.12,-1.55
424.32,-1.52
428.56,-1.49
432.85,-1.46
437.18,-1.42
441.55,-1.39
445.96,-1.36
450.42,-1.36
454.93,-1.37
459.48,-1.38
464.07,-1.40
468.71,-1.43
473.40,-1.46
478.13,-1.50
482.91,-1.53
487.74,-1.57
492.62,-1.60
497.55,-1.62
502.52,-1.63
507.55,-1.63
512.62,-1.62
517.75,-1.59
522.93,-1.56
528.16,-1.51
533.44,-1.47
538.77,-1.42
544.16,-1.38
549.60,-1.34
555.10,-1.30
560.65,-1.26
566.25,-1.23
571.92,-1.19
577.64,-1.16
583.41,-1.13
589.25,-1.09
595.14,-1.06
601.09,-1.02
607.10,-0.99
613.17,-0.96
619.30,-0.93
625.50,-0.90
631.75,-0.88
638.07,-0.85
644.45,-0.83
650.89,-0.81
657.40,-0.79
663.98,-0.77
670.62,-0.75
677.32,-0.73
684.10,-0.70
690.94,-0.68
697.85,-0.65
704.83,-0.62
711.87,-0.59
718.99,-0.55
726.18,-0.51
733.44,-0.47
740.78,-0.43
748.19,-0.39
755.67,-0.36
763.23,-0.32
770.86,-0.29
778.57,-0.26
786.35,-0.24
794.22,-0.21
802.16,-0.20
810.18,-0.18
818.28,-0.17
826.46,-0.16
834.73,-0.15
843.08,-0.14
851.51,-0.14
860.02,-0.13
868.62,-0.12
877.31,-0.12
886.08,-0.11
894.94,-0.10
903.89,-0.09
912.93,-0.07
922.06,-0.06
931.28,-0.05
940.59,-0.04
950.00,-0.03
959.50,-0.02
969.09,-0.01
978.78,-0.00
988.57,0.00
998.46,0.00
1008.44,-0.00
1018.53,-0.01
1028.71,-0.01
1039.00,-0.02
1049.39,-0.03
1059.88,-0.04
1070.48,-0.04
1081.19,-0.05
1092.00,-0.06
1102.92,-0.06
1113.95,-0.05
1125.09,-0.05
1136.34,-0.04
1147.70,-0.02
1159.18,-0.01
1170.77,0.02
1182.48,0.04
1194.30,0.07
1206.25,0.10
1218.31,0.14
1230.49,0.17
1242.80,0.21
1255.22,0.25
1267.78,0.28
1280.45,0.32
1293.26,0.35
1306.19,0.38
1319.25,0.41
1332.45,0.45
1345.77,0.49
1359.23,0.53
1372.82,0.57
1386.55,0.62
1400.41,0.67
1414.42,0.73
1428.56,0.79
1442.85,0.86
1457.28,0.93
1471.85,1.01
1486.57,1.09
1501.43,1.18
1516.45,1.28
1531.61,1.39
1546.93,1.50
1562.40,1.62
1578.02,1.74
1593.80,1.87
1609.74,2.00
1625.84,2.14
1642.10,2.29
1658.52,2.45
1675.10,2.61
1691.85,2.78
1708.77,2.95
1725.86,3.12
1743.12,3.30
1760.55,3.48
1778.15,3.66
1795.94,3.84
1813.90,4.02
1832.03,4.19
1850.36,4.36
1868.86,4.52
1887.55,4.68
1906.42,4.83
1925.49,4.97
1944.74,5.12
1964.19,5.25
1983.83,5.39
2003.67,5.53
2023.71,5.67
2043.94,5.82
2064.38,5.98
2085.03,6.14
2105.88,6.31
2126.94,6.48
2148.20,6.67
2169.69,6.86
2191.38,7.05
2213.30,7.23
2235.43,7.41
2257.78,7.58
2280.36,7.74
2303.17,7.89
2326.20,8.03
2349.46,8.16
2372.95,8.28
2396.68,8.41
2420.65,8.54
2444.86,8.68
2469.31,8.83
2494.00,8.98
2518.94,9.14
2544.13,9.30
2569.57,9.47
2595.27,9.63
2621.22,9.78
2647.43,9.92
2673.90,10.05
2700.64,10.16
2727.65,10.25
2754.93,10.33
2782.48,10.38
2810.30,10.41
2838.40,10.42
2866.79,10.41
2895.46,10.39
2924.41,10.36
2953.65,10.31
2983.19,10.25
3013.02,10.18
3043.15,10.10
3073.58,9.99
3104.32,9.87
3135.36,9.74
3166.72,9.57
3198.38,9.39
3230.37,9.20
3262.67,8.98
3295.30,8.76
3328.25,8.52
3361.53,8.28
3395.15,8.02
3429.10,7.77
3463.39,7.51
3498.03,7.24
3533.01,6.98
3568.34,6.72
3604.02,6.47
3640.06,6.22
3676.46,5.97
3713.22,5.74
3750.36,5.51
3787.86,5.29
3825.74,5.08
3864.00,4.88
3902.64,4.70
3941.66,4.52
3981.08,4.36
4020.89,4.21
4061.10,4.07
4101.71,3.94
4142.73,3.82
4184.15,3.71
4226.00,3.62
4268.26,3.54
4310.94,3.48
4354.05,3.43
4397.59,3.40
4441.56,3.38
4485.98,3.36
4530.84,3.34
4576.15,3.32
4621.91,3.29
4668.13,3.27
4714.81,3.24
4761.96,3.21
4809.58,3.20
4857.67,3.19
4906.25,3.20
4955.31,3.25
5004.87,3.33
5054.91,3.45
5105.46,3.61
5156.52,3.83
5208.08,4.08
5260.16,4.39
5312.77,4.75
5365.89,5.14
5419.55,5.57
5473.75,6.01
5528.49,6.45
5583.77,6.89
5639.61,7.30
5696.00,7.67
5752.96,8.00
5810.49,8.27
5868.60,8.48
5927.28,8.65
5986.56,8.74
6046.42,8.76
6106.89,8.74
6167.96,8.66
6229.64,8.51
6291.93,8.32
6354.85,8.08
6418.40,7.79
6482.58,7.47
6547.41,7.13
6612.88,6.79
6679.01,6.45
6745.80,6.13
6813.26,5.86
6881.39,5.65
6950.21,5.49
7019.71,5.43
7089.91,5.46
7160.81,5.57
7232.41,5.78
7304.74,6.10
7377.79,6.49
7451.56,6.94
7526.08,7.48
7601.34,8.05
7677.35,8.66
7754.13,9.29
7831.67,9.93
7909.98,10.57
7989.08,11.20
8068.98,11.81
8149.67,12.40
8231.16,12.95
8313.47,13.45
8396.61,13.89
8480.57,14.25
8565.38,14.46
8651.03,14.55
8737.54,14.52
8824.92,14.25
8913.17,13.84
9002.30,13.30
9092.32,12.58
9183.25,11.76
9275.08,10.87
9367.83,9.92
9461.51,8.98
9556.12,8.05
9651.68,7.17
9748.20,6.37
9845.68,5.64
9944.14,4.98
10043.58,4.47
10144.02,4.04
10245.46,3.70
10347.91,3.50
10451.39,3.37
10555.91,3.32
10661.46,3.36
10768.08,3.44
10875.76,3.56
10984.52,3.69
11094.36,3.82
11205.31,3.92
11317.36,3.99
11430.53,3.97
11544.84,3.88
11660.29,3.71
11776.89,3.38
11894.66,2.97
12013.60,2.50
12133.74,1.96
12255.08,1.42
12377.63,0.90
12501.41,0.46
12626.42,0.11
12752.68,-0.17
12880.21,-0.34
13009.01,-0.42
13139.10,-0.47
13270.49,-0.48
13403.20,-0.47
13537.23,-0.48
13672.60,-0.48
13809.33,-0.49
13947.42,-0.48
14086.90,-0.46
14227.77,-0.41
14370.04,-0.35
14513.74,-0.30
14658.88,-0.28
14805.47,-0.34
14953.52,-0.47
15103.06,-0.71
15254.09,-1.09
15406.63,-1.55
15560.70,-2.07
15716.30,-2.58
15873.47,-3.00
16032.20,-3.33
16192.52,-3.41
16354.45,-3.29
16517.99,-3.00
16683.17,-2.51
16850.01,-1.93
17018.51,-1.33
17188.69,-0.79
17360.58,-0.40
17534.18,-0.15
17709.53,-0.07
17886.62,-0.19
18065.49,-0.40
18246.14,-0.68
18428.60,-0.99
18612.89,-1.28
18799.02,-1.53
18987.01,-1.72
19176.88,-1.86
19368.65,-1.95
19562.33,-1.99
19757.96,-1.99
19955.54,-1.96
