frequency,raw
20.00,6.90
20.20,6.96
20.40,7.03
20.61,7.09
20.81,7.16
21.02,7.22
21.23,7.28
21.44,7.33
21.66,7.39
21.87,7.44
22.09,7.50
22.31,7.55
22.54,7.60
22.76,7.65
22.99,7.70
23.22,7.75
23.45,7.79
23.69,7.83
23.92,7.88
24.16,7.92
24.40,7.96
24.65,7.99
24.89,8.03
25.14,8.06
25.39,8.10
25.65,8.13
25.91,8.16
26.16,8.18
26.43,8.21
26.69,8.23
26.96,8.26
27.23,8.28
27.50,8.30
27.77,8.32
28.05,8.34
28.33,8.36
28.62,8.38
28.90,8.39
29.19,8.41
29.48,8.42
29.78,8.43
30.08,8.44
30.38,8.45
30.68,8.45
30.99,8.46
31.30,8.46
31.61,8.45
31.93,8.45
32.24,8.45
32.57,8.44
32.89,8.44
33.22,8.43
33.55,8.43
33.89,8.42
34.23,8.42
34.57,8.41
34.92,8.41
35.27,8.41
35.62,8.40
35.97,8.40
36.33,8.40
36.70,8.40
37.06,8.40
37.43,8.40
37.81,8.40
38.19,8.40
38.57,8.40
38.95,8.40
39.34,8.40
39.74,8.40
40.14,8.40
40.54,8.40
40.94,8.41
41.35,8.41
41.76,8.41
42.18,8.42
42.60,8.42
43.03,8.42
43.46,8.43
43.90,8.43
44.33,8.43
44.78,8.44
45.23,8.44
45.68,8.45
46.13,8.45
46.60,8.46
47.06,8.47
47.53,8.47
48.01,8.48
48.49,8.49
48.97,8.50
49.46,8.50
49.96,8.51
50.46,8.52
50.96,8.53
51.47,8.54
51.99,8.55
52.51,8.56
53.03,8.56
53.56,8.57
54.10,8.58
54.64,8.59
55.18,8.59
55.74,8.60
56.29,8.60
56.86,8.61
57.42,8.61
58.00,8.61
58.58,8.61
59.16,8.62
59.76,8.62
60.35,8.61
60.96,8.61
61.57,8.61
62.18,8.60
62.80,8.60
63.43,8.59
64.07,8.58
64.71,8.58
65.35,8.57
66.01,8.56
66.67,8.55
67.33,8.54
68.01,8.53
68.69,8.52
69.37,8.51
70.07,8.50
70.77,8.49
71.48,8.48
72.19,8.47
72.91,8.47
73.64,8.46
74.38,8.45
75.12,8.44
75.87,8.43
76.63,8.43
77.40,8.42
78.17,8.41
78.95,8.41
79.74,8.40
80.54,8.39
81.35,8.39
82.16,8.38
82.98,8.37
83.81,8.37
84.65,8.36
85.50,8.36
86.35,8.35
87.22,8.35
88.09,8.34
88.97,8.34
89.86,8.33
90.76,8.32
91.66,8.32
92.58,8.31
93.51,8.30
94.44,8.30
95.39,8.29
96.34,8.28
97.30,8.27
98.28,8.26
99.26,8.25
100.25,8.24
101.25,8.23
102.27,8.22
103.29,8.21
104.32,8.20
105.37,8.18
106.42,8.17
107.48,8.15
108.56,8.14
109.64,8.12
110.74,8.10
111.85,8.09
112.97,8.07
114.10,8.05
115.24,8.03
116.39,8.00
117.55,7.98
118.73,7.95
119.92,7.93
121.12,7.90
122.33,7.87
123.55,7.84
124.79,7.81
126.03,7.77
127.29,7.73
128.57,7.70
129.85,7.65
131.15,7.61
132.46,7.57
133.79,7.52
135.12,7.47
136.48,7.42
137.84,7.37
139.22,7.31
140.61,7.25
142.02,7.18
143.44,7.12
144.87,7.05
146.32,6.97
147.78,6.89
149.26,6.81
150.75,6.72
152.26,6.63
153.78,6.53
155.32,6.43
156.88,6.33
158.44,6.22
160.03,6.11
161.63,5.99
163.24,5.87
164.88,5.74
166.53,5.62
168.19,5.49
169.87,5.36
171.57,5.23
173.29,5.09
175.02,4.95
176.77,4.81
178.54,4.65
180.32,4.49
182.13,4.32
183.95,4.14
185.79,3.96
187.65,3.78
189.52,3.60
191.42,3.42
193.33,3.24
195.27,3.07
197.22,2.89
199.19,2.70
201.18,2.51
203.19,2.31
205.23,2.10
207.28,1.89
209.35,1.67
211.44,1.44
213.56,1.21
215.69,0.97
217.85,0.72
220.03,0.48
222.23,0.22
224.45,-0.04
226.70,-0.31
228.96,-0.58
231.25,-0.86
233.57,-1.15
235.90,-1.45
238.26,-1.76
240.64,-2.07
243.05,-2.39
245.48,-2.71
247.93,-3.01
250.41,-3.29
252.92,-3.50
255.45,-3.68
258.00,-3.81
260.58,-3.90
263.19,-4.00
265.82,-4.11
268.48,-4.27
271.16,-4.48
273.87,-4.72
276.61,-5.00
279.38,-5.28
282.17,-5.55
284.99,-5.80
287.84,-5.98
290.72,-6.12
293.63,-6.22
296.57,-6.27
299.53,-6.33
302.53,-6.40
305.55,-6.53
308.61,-6.73
311.69,-6.97
314.81,-7.26
317.96,-7.57
321.14,-7.90
324.35,-8.23
327.59,-8.55
330.87,-8.87
334.18,-9.18
337.52,-9.48
340.90,-9.77
344.30,-10.05
347.75,-10.31
351.23,-10.56
354.74,-10.81
358.28,-11.06
361.87,-11.31
365.49,-11.55
369.14,-11.80
372.83,-12.06
376.56,-12.31
380.33,-12.57
384.13,-12.83
387.97,-13.10
391.85,-13.38
395.77,-13.67
399.73,-13.98
403.72,-14.30
407.76,-14.64
411.84,-14.99
415.96,-15.34
420.12,-15.69
424.32,-16.00
428.56,-16.28
432.85,-16.51
437.18,-16.71
441.55,-16.89
445.96,-17.06
450.42,-17.25
454.93,-17.44
459.48,-17.63
464.07,-17.81
468.71,-17.95
473.40,-18.06
478.13,-18.13
482.91,-18.19
487.74,-18.25
492.62,-18.32
497.55,-18.40
502.52,-18.49
507.55,-18.58
512.62,-18.67
517.75,-18.75
522.93,-18.83
528.16,-18.89
533.44,-18.93
538.77,-18.97
544.16,-18.98
549.60,-18.99
555.10,-18.97
560.65,-18.94
566.25,-18.90
571.92,-18.83
577.64,-18.75
583.41,-18.65
589.25,-18.54
595.14,-18.41
601.09,-18.25
607.10,-18.08
613.17,-17.89
619.30,-17.69
625.50,-17.46
631.75,-17.23
638.07,-16.97
644.45,-16.71
650.89,-16.43
657.40,-16.13
663.98,-15.83
670.62,-15.51
677.32,-15.18
684.10,-14.85
690.94,-14.51
697.85,-14.16
704.83,-13.81
711.87,-13.45
718.99,-13.08
726.18,-12.71
733.44,-12.34
740.78,-11.97
748.19,-11.59
755.67,-11.22
763.23,-10.84
770.86,-10.46
778.57,-10.08
786.35,-9.70
794.22,-9.32
802.16,-8.93
810.18,-8.54
818.28,-8.15
826.46,-7.75
834.73,-7.35
843.08,-6.94
851.51,-6.53
860.02,-6.11
868.62,-5.69
877.31,-5.26
886.08,-4.83
894.94,-4.39
903.89,-3.95
912.93,-3.50
922.06,-3.06
931.28,-2.63
940.59,-2.20
950.00,-1.79
959.50,-1.39
969.09,-1.01
978.78,-0.66
988.57,-0.33
998.46,-0.04
1008.44,0.22
1018.53,0.45
1028.71,0.64
1039.00,0.79
1049.39,0.91
1059.88,1.00
1070.48,1.06
1081.19,1.11
1092.00,1.14
1102.92,1.15
1113.95,1.16
1125.09,1.16
1136.34,1.15
1147.70,1.13
1159.18,1.10
1170.77,1.05
1182.48,1.00
1194.30,0.95
1206.25,0.89
1218.31,0.84
1230.49,0.78
1242.80,0.72
1255.22,0.67
1267.78,0.62
1280.45,0.59
1293.26,0.56
1306.19,0.55
1319.25,0.55
1332.45,0.57
1345.77,0.61
1359.23,0.66
1372.82,0.73
1386.55,0.83
1400.41,0.93
1414.42,1.06
1428.56,1.21
1442.85,1.37
1457.28,1.54
1471.85,1.72
1486.57,1.92
1501.43,2.11
1516.45,2.31
1531.61,2.50
1546.93,2.69
1562.40,2.88
1578.02,3.04
1593.80,3.20
1609.74,3.34
1625.84,3.45
1642.10,3.56
1658.52,3.64
1675.10,3.70
1691.85,3.75
1708.77,3.79
1725.86,3.82
1743.12,3.84
1760.55,3.87
1778.15,3.91
1795.94,3.96
1813.90,4.02
1832.03,4.10
1850.36,4.20
1868.86,4.30
1887.55,4.41
1906.42,4.54
1925.49,4.68
1944.74,4.85
1964.19,5.07
1983.83,5.31
2003.67,5.58
2023.71,5.90
2043.94,6.22
2064.38,6.55
2085.03,6.90
2105.88,7.24
2126.94,7.58
2148.20,7.93
2169.69,8.27
2191.38,8.61
2213.30,8.95
2235.43,9.29
2257.78,9.62
2280.36,9.94
2303.17,10.25
2326.20,10.55
2349.46,10.85
2372.95,11.13
2396.68,11.42
2420.65,11.70
2444.86,11.97
2469.31,12.24
2494.00,12.49
2518.94,12.73
2544.13,12.95
2569.57,13.16
2595.27,13.35
2621.22,13.51
2647.43,13.66
2673.90,13.79
2700.64,13.89
2727.65,13.97
2754.93,14.03
2782.48,14.07
2810.30,14.09
2838.40,14.10
2866.79,14.11
2895.46,14.12
2924.41,14.14
2953.65,14.16
2983.19,14.18
3013.02,14.17
3043.15,14.14
3073.58,14.03
3104.32,13.88
3135.36,13.69
3166.72,13.44
3198.38,13.16
3230.37,12.88
3262.67,12.59
3295.30,12.30
3328.25,12.01
3361.53,11.71
3395.15,11.39
3429.10,11.06
3463.39,10.70
3498.03,10.33
3533.01,9.95
3568.34,9.55
3604.02,9.14
3640.06,8.73
3676.46,8.30
3713.22,7.85
3750.36,7.39
3787.86,6.91
3825.74,6.40
3864.00,5.88
3902.64,5.34
3941.66,4.79
3981.08,4.23
4020.89,3.65
4061.10,3.06
4101.71,2.45
4142.73,1.83
4184.15,1.20
4226.00,0.63
4268.26,0.17
4310.94,-0.20
4354.05,-0.34
4397.59,-0.29
4441.56,-0.12
4485.98,0.19
4530.84,0.54
4576.15,0.89
4621.91,1.21
4668.13,1.44
4714.81,1.63
4761.96,1.79
4809.58,1.96
4857.67,2.16
4906.25,2.39
4955.31,2.69
5004.87,3.02
5054.91,3.36
5105.46,3.72
5156.52,4.08
5208.08,4.43
5260.16,4.76
5312.77,5.03
5365.89,5.24
5419.55,5.36
5473.75,5.28
5528.49,5.09
5583.77,4.78
5639.61,4.34
5696.00,3.88
5752.96,3.42
5810.49,3.02
5868.60,2.70
5927.28,2.43
5986.56,2.23
6046.42,2.01
6106.89,1.75
6167.96,1.39
6229.64,0.86
6291.93,0.23
6354.85,-0.51
6418.40,-1.35
6482.58,-2.20
6547.41,-3.07
6612.88,-3.88
6679.01,-4.67
6745.80,-5.44
6813.26,-6.21
6881.39,-7.04
6950.21,-7.95
7019.71,-8.98
7089.91,-10.21
7160.81,-11.57
7232.41,-13.08
7304.74,-14.70
7377.79,-16.27
7451.56,-17.74
7526.08,-18.67
7601.34,-19.18
7677.35,-19.25
7754.13,-18.52
7831.67,-17.37
7909.98,-15.89
7989.08,-14.09
8068.98,-12.13
8149.67,-10.04
8231.16,-7.76
8313.47,-5.33
8396.61,-2.90
8480.57,-0.51
8565.38,1.58
8651.03,3.40
8737.54,4.95
8824.92,6.08
8913.17,7.06
9002.30,7.89
9092.32,8.55
9183.25,8.98
9275.08,9.19
9367.83,8.98
9461.51,8.28
9556.12,7.27
9651.68,5.92
9748.20,4.36
9845.68,2.78
9944.14,1.22
10043.58,-0.13
10144.02,-1.32
10245.46,-2.33
10347.91,-3.03
10451.39,-3.53
10555.91,-3.88
10661.46,-4.06
10768.08,-4.27
10875.76,-4.56
10984.52,-5.12
11094.36,-6.08
11205.31,-7.27
11317.36,-8.68
11430.53,-9.87
11544.84,-10.68
11660.29,-11.02
11776.89,-10.41
11894.66,-9.48
12013.60,-8.28
12133.74,-7.05
12255.08,-6.03
12377.63,-5.19
12501.41,-4.68
12626.42,-4.37
12752.68,-4.15
12880.21,-3.99
13009.01,-3.85
13139.10,-3.76
13270.49,-3.74
13403.20,-4.03
13537.23,-4.59
13672.60,-5.41
13809.33,-6.64
13947.42,-7.89
14086.90,-9.12
14227.77,-10.02
14370.04,-10.54
14513.74,-10.80
14658.88,-10.81
14805.47,-10.98
14953.52,-11.38
15103.06,-12.17
15254.09,-13.41
15406.63,-14.80
15560.70,-16.29
15716.30,-17.46
15873.47,-18.33
16032.20,-18.87
16192.52,-18.85
16354.45,-18.63
16517.99,-18.25
16683.17,-17.77
16850.01,-17.25
17018.51,-16.76
17188.69,-16.32
17360.58,-16.05
17534.18,-15.90
17709.53,-15.90
17886.62,-16.05
18065.49,-16.27
18246.14,-16.56
18428.60,-16.98
18612.89,-17.46
18799.02,-18.00
18987.01,-18.58
19176.88,-19.04
19368.65,-19.37
19562.33,-19.37
19757.96,-18.91
19955.54,-18.12
