frequency,raw
20.00,5.79
20.20,5.80
20.40,5.79
20.61,5.80
20.81,5.81
21.02,5.82
21.23,5.83
21.44,5.84
21.66,5.85
21.87,5.85
22.09,5.87
22.31,5.88
22.54,5.89
22.76,5.91
22.99,5.92
23.22,5.94
23.45,5.96
23.69,5.98
23.92,6.00
24.16,6.03
24.40,6.04
24.65,6.07
24.89,6.09
25.14,6.12
25.39,6.14
25.65,6.16
25.91,6.19
26.16,6.21
26.43,6.23
26.69,6.26
26.96,6.28
27.23,6.30
27.50,6.31
27.77,6.34
28.05,6.36
28.33,6.38
28.62,6.41
28.90,6.42
29.19,6.44
29.48,6.47
29.78,6.49
30.08,6.51
30.38,6.52
30.68,6.54
30.99,6.56
31.30,6.57
31.61,6.59
31.93,6.60
32.24,6.62
32.57,6.64
32.89,6.65
33.22,6.67
33.55,6.68
33.89,6.70
34.23,6.72
34.57,6.74
34.92,6.75
35.27,6.77
35.62,6.79
35.97,6.81
36.33,6.83
36.70,6.85
37.06,6.87
37.43,6.89
37.81,6.91
38.19,6.93
38.57,6.95
38.95,6.97
39.34,6.98
39.74,7.00
40.14,7.01
40.54,7.02
40.94,7.04
41.35,7.05
41.76,7.06
42.18,7.06
42.60,7.07
43.03,7.07
43.46,7.07
43.90,7.07
44.33,7.07
44.78,7.05
45.23,7.05
45.68,7.03
46.13,7.03
46.60,7.01
47.06,6.99
47.53,6.97
48.01,6.95
48.49,6.92
48.97,6.89
49.46,6.86
49.96,6.83
50.46,6.80
50.96,6.77
51.47,6.73
51.99,6.69
52.51,6.66
53.03,6.62
53.56,6.58
54.10,6.55
54.64,6.50
55.18,6.46
55.74,6.42
56.29,6.38
56.86,6.34
57.42,6.30
58.00,6.26
58.58,6.21
59.16,6.17
59.76,6.12
60.35,6.08
60.96,6.03
61.57,5.99
62.18,5.94
62.80,5.90
63.43,5.85
64.07,5.80
64.71,5.75
65.35,5.70
66.01,5.65
66.67,5.61
67.33,5.56
68.01,5.51
68.69,5.46
69.37,5.41
70.07,5.36
70.77,5.32
71.48,5.27
72.19,5.22
72.91,5.17
73.64,5.12
74.38,5.07
75.12,5.03
75.87,4.98
76.63,4.93
77.40,4.89
78.17,4.84
78.95,4.80
79.74,4.75
80.54,4.70
81.35,4.67
82.16,4.62
82.98,4.58
83.81,4.54
84.65,4.48
85.50,4.44
86.35,4.40
87.22,4.35
88.09,4.32
88.97,4.27
89.86,4.23
90.76,4.18
91.66,4.14
92.58,4.10
93.51,4.05
94.44,4.02
95.39,3.98
96.34,3.93
97.30,3.89
98.28,3.85
99.26,3.81
100.25,3.77
101.25,3.73
102.27,3.69
103.29,3.65
104.32,3.61
105.37,3.57
106.42,3.52
107.48,3.48
108.56,3.44
109.64,3.41
110.74,3.37
111.85,3.33
112.97,3.29
114.10,3.24
115.24,3.21
116.39,3.17
117.55,3.13
118.73,3.09
119.92,3.05
121.12,3.01
122.33,2.96
123.55,2.92
124.79,2.88
126.03,2.84
127.29,2.80
128.57,2.76
129.85,2.73
131.15,2.68
132.46,2.64
133.79,2.60
135.12,2.56
136.48,2.51
137.84,2.47
139.22,2.43
140.61,2.39
142.02,2.35
143.44,2.31
144.87,2.26
146.32,2.23
147.78,2.19
149.26,2.15
150.75,2.10
152.26,2.06
153.78,2.03
155.32,1.99
156.88,1.95
158.44,1.92
160.03,1.89
161.63,1.85
163.24,1.82
164.88,1.80
166.53,1.76
168.19,1.73
169.87,1.69
171.57,1.66
173.29,1.61
175.02,1.58
176.77,1.53
178.54,1.48
180.32,1.42
182.13,1.36
183.95,1.29
185.79,1.23
187.65,1.17
189.52,1.10
191.42,1.05
193.33,0.99
195.27,0.93
197.22,0.88
199.19,0.83
201.18,0.79
203.19,0.74
205.23,0.69
207.28,0.66
209.35,0.61
211.44,0.57
213.56,0.52
215.69,0.48
217.85,0.43
220.03,0.39
222.23,0.35
224.45,0.30
226.70,0.26
228.96,0.22
231.25,0.17
233.57,0.13
235.90,0.08
238.26,0.05
240.64,0.01
243.05,-0.02
245.48,-0.07
247.93,-0.09
250.41,-0.12
252.92,-0.15
255.45,-0.19
258.00,-0.21
260.58,-0.23
263.19,-0.27
265.82,-0.29
268.48,-0.32
271.16,-0.34
273.87,-0.37
276.61,-0.39
279.38,-0.41
282.17,-0.44
284.99,-0.46
287.84,-0.48
290.72,-0.50
293.63,-0.52
296.57,-0.54
299.53,-0.56
302.53,-0.57
305.55,-0.60
308.61,-0.61
311.69,-0.62
314.81,-0.64
317.96,-0.66
321.14,-0.67
324.35,-0.69
327.59,-0.71
330.87,-0.73
334.18,-0.75
337.52,-0.76
340.90,-0.78
344.30,-0.80
347.75,-0.82
351.23,-0.83
354.74,-0.85
358.28,-0.87
361.87,-0.89
365.49,-0.90
369.14,-0.91
372.83,-0.92
376.56,-0.92
380.33,-0.93
384.13,-0.93
387.97,-0.94
391.85,-0.94
395.77,-0.93
399.73,-0.92
403.72,-0.92
407.76,-0.91
411.84,-0.91
415.96,-0.89
420.12,-0.87
424.32,-0.86
428.56,-0.84
432.85,-0.83
437.18,-0.80
441.55,-0.78
445.96,-0.76
450.42,-0.74
454.93,-0.72
459.48,-0.70
464.07,-0.68
468.71,-0.66
473.40,-0.63
478.13,-0.61
482.91,-0.59
487.74,-0.57
492.62,-0.54
497.55,-0.52
502.52,-0.51
507.55,-0.48
512.62,-0.46
517.75,-0.43
522.93,-0.42
528.16,-0.39
533.44,-0.36
538.77,-0.34
544.16,-0.32
549.60,-0.29
555.10,-0.26
560.65,-0.24
566.25,-0.22
571.92,-0.18
577.64,-0.17
583.41,-0.14
589.25,-0.11
595.14,-0.09
601.09,-0.07
607.10,-0.04
613.17,-0.02
619.30,0.00
625.50,0.03
631.75,0.04
638.07,0.05
644.45,0.07
650.89,0.08
657.40,0.09
663.98,0.10
670.62,0.11
677.32,0.12
684.10,0.13
690.94,0.15
697.85,0.16
704.83,0.18
711.87,0.19
718.99,0.20
726.18,0.19
733.44,0.20
740.78,0.19
748.19,0.19
755.67,0.19
763.23,0.19
770.86,0.18
778.57,0.18
786.35,0.19
794.22,0.20
802.16,0.21
810.18,0.22
818.28,0.24
826.46,0.25
834.73,0.25
843.08,0.25
851.51,0.25
860.02,0.24
868.62,0.23
877.31,0.20
886.08,0.19
894.94,0.16
903.89,0.14
912.93,0.11
922.06,0.09
931.28,0.07
940.59,0.06
950.00,0.04
959.50,0.02
969.09,0.01
978.78,0.01
988.57,0.00
998.46,0.00
1008.44,-0.00
1018.53,-0.00
1028.71,0.00
1039.00,0.01
1049.39,0.02
1059.88,0.04
1070.48,0.06
1081.19,0.09
1092.00,0.13
1102.92,0.17
1113.95,0.22
1125.09,0.28
1136.34,0.34
1147.70,0.42
1159.18,0.49
1170.77,0.59
1182.48,0.68
1194.30,0.79
1206.25,0.90
1218.31,1.02
1230.49,1.13
1242.80,1.26
1255.22,1.40
1267.78,1.54
1280.45,1.67
1293.26,1.80
1306.19,1.94
1319.25,2.07
1332.45,2.21
1345.77,2.33
1359.23,2.47
1372.82,2.61
1386.55,2.75
1400.41,2.89
1414.42,3.03
1428.56,3.16
1442.85,3.28
1457.28,3.40
1471.85,3.50
1486.57,3.60
1501.43,3.69
1516.45,3.78
1531.61,3.87
1546.93,3.97
1562.40,4.09
1578.02,4.22
1593.80,4.37
1609.74,4.54
1625.84,4.71
1642.10,4.89
1658.52,5.07
1675.10,5.27
1691.85,5.47
1708.77,5.68
1725.86,5.89
1743.12,6.10
1760.55,6.32
1778.15,6.54
1795.94,6.77
1813.90,7.01
1832.03,7.24
1850.36,7.49
1868.86,7.73
1887.55,7.98
1906.42,8.21
1925.49,8.45
1944.74,8.67
1964.19,8.88
1983.83,9.07
2003.67,9.26
2023.71,9.43
2043.94,9.59
2064.38,9.74
2085.03,9.87
2105.88,10.01
2126.94,10.15
2148.20,10.29
2169.69,10.43
2191.38,10.58
2213.30,10.72
2235.43,10.87
2257.78,11.02
2280.36,11.15
2303.17,11.28
2326.20,11.41
2349.46,11.51
2372.95,11.62
2396.68,11.71
2420.65,11.80
2444.86,11.89
2469.31,11.97
2494.00,12.06
2518.94,12.14
2544.13,12.24
2569.57,12.32
2595.27,12.42
2621.22,12.51
2647.43,12.60
2673.90,12.69
2700.64,12.78
2727.65,12.87
2754.93,12.96
2782.48,13.04
2810.30,13.10
2838.40,13.14
2866.79,13.15
2895.46,13.11
2924.41,13.05
2953.65,12.96
2983.19,12.83
3013.02,12.68
3043.15,12.53
3073.58,12.38
3104.32,12.26
3135.36,12.15
3166.72,12.10
3198.38,12.11
3230.37,12.16
3262.67,12.29
3295.30,12.48
3328.25,12.72
3361.53,13.01
3395.15,13.34
3429.10,13.68
3463.39,14.02
3498.03,14.31
3533.01,14.55
3568.34,14.74
3604.02,14.79
3640.06,14.76
3676.46,14.65
3713.22,14.41
3750.36,14.10
3787.86,13.75
3825.74,13.33
3864.00,12.91
3902.64,12.49
3941.66,12.08
3981.08,11.71
4020.89,11.36
4061.10,11.05
4101.71,10.79
4142.73,10.57
4184.15,10.38
4226.00,10.23
4268.26,10.11
4310.94,10.02
4354.05,9.96
4397.59,9.93
4441.56,9.92
4485.98,9.94
4530.84,9.98
4576.15,10.04
4621.91,10.12
4668.13,10.21
4714.81,10.31
4761.96,10.42
4809.58,10.51
4857.67,10.60
4906.25,10.65
4955.31,10.67
5004.87,10.65
5054.91,10.58
5105.46,10.45
5156.52,10.27
5208.08,10.05
5260.16,9.79
5312.77,9.48
5365.89,9.16
5419.55,8.82
5473.75,8.46
5528.49,8.11
5583.77,7.75
5639.61,7.43
5696.00,7.17
5752.96,6.94
5810.49,6.83
5868.60,6.80
5927.28,6.86
5986.56,7.02
6046.42,7.25
6106.89,7.51
6167.96,7.79
6229.64,8.02
6291.93,8.19
6354.85,8.28
6418.40,8.20
6482.58,8.04
6547.41,7.78
6612.88,7.37
6679.01,6.89
6745.80,6.36
6813.26,5.76
6881.39,5.10
6950.21,4.39
7019.71,3.64
7089.91,2.85
7160.81,2.05
7232.41,1.27
7304.74,0.57
7377.79,-0.06
7451.56,-0.58
7526.08,-0.86
7601.34,-0.99
7677.35,-0.97
7754.13,-0.72
7831.67,-0.36
7909.98,0.08
7989.08,0.58
8068.98,1.12
8149.67,1.66
8231.16,2.25
8313.47,2.86
8396.61,3.48
8480.57,4.12
8565.38,4.64
8651.03,5.09
8737.54,5.42
8824.92,5.53
8913.17,5.47
9002.30,5.27
9092.32,4.88
9183.25,4.40
9275.08,3.88
9367.83,3.37
9461.51,2.94
9556.12,2.58
9651.68,2.35
9748.20,2.23
9845.68,2.23
9944.14,2.32
10043.58,2.58
10144.02,2.92
10245.46,3.31
10347.91,3.81
10451.39,4.37
10555.91,5.00
10661.46,5.67
10768.08,6.38
10875.76,7.11
10984.52,7.88
11094.36,8.65
11205.31,9.42
11317.36,10.21
11430.53,10.92
11544.84,11.55
11660.29,12.08
11776.89,12.37
11894.66,12.54
12013.60,12.56
12133.74,12.37
12255.08,12.09
12377.63,11.73
12501.41,11.31
12626.42,10.87
12752.68,10.40
12880.21,9.93
13009.01,9.40
13139.10,8.84
13270.49,8.22
13403.20,7.55
13537.23,6.90
13672.60,6.27
13809.33,5.77
13947.42,5.39
14086.90,5.14
14227.77,5.10
14370.04,5.20
14513.74,5.41
14658.88,5.71
14805.47,6.04
14953.52,6.32
15103.06,6.52
15254.09,6.54
15406.63,6.43
15560.70,6.20
15716.30,5.65
15873.47,4.95
16032.20,4.11
16192.52,3.19
16354.45,2.30
16517.99,1.44
16683.17,0.72
16850.01,0.10
17018.51,-0.46
17188.69,-0.99
17360.58,-1.50
17534.18,-2.00
17709.53,-2.46
17886.62,-2.94
18065.49,-3.41
18246.14,-3.84
18428.60,-4.14
18612.89,-4.35
18799.02,-4.52
18987.01,-4.86
19176.88,-5.67
19368.65,-6.96
19562.33,-9.19
19757.96,-12.41
19955.54,-16.28
