frequency,raw
20.00,-3.32
20.20,-3.27
20.40,-3.22
20.61,-3.18
20.81,-3.14
21.02,-3.09
21.23,-3.05
21.44,-3.00
21.66,-2.96
21.87,-2.91
22.09,-2.86
22.31,-2.81
22.54,-2.77
22.76,-2.72
22.99,-2.68
23.22,-2.63
23.45,-2.58
23.69,-2.54
23.92,-2.49
24.16,-2.45
24.40,-2.40
24.65,-2.36
24.89,-2.31
25.14,-2.27
25.39,-2.23
25.65,-2.18
25.91,-2.14
26.16,-2.10
26.43,-2.05
26.69,-2.01
26.96,-1.97
27.23,-1.93
27.50,-1.89
27.77,-1.84
28.05,-1.80
28.33,-1.76
28.62,-1.71
28.90,-1.67
29.19,-1.62
29.48,-1.57
29.78,-1.52
30.08,-1.47
30.38,-1.42
30.68,-1.37
30.99,-1.32
31.30,-1.27
31.61,-1.23
31.93,-1.18
32.24,-1.13
32.57,-1.09
32.89,-1.04
33.22,-0.99
33.55,-0.94
33.89,-0.89
34.23,-0.84
34.57,-0.79
34.92,-0.73
35.27,-0.68
35.62,-0.62
35.97,-0.57
36.33,-0.51
36.70,-0.46
37.06,-0.40
37.43,-0.34
37.81,-0.28
38.19,-0.22
38.57,-0.16
38.95,-0.09
39.34,-0.03
39.74,0.04
40.14,0.11
40.54,0.19
40.94,0.26
41.35,0.34
41.76,0.43
42.18,0.51
42.60,0.60
43.03,0.69
43.46,0.78
43.90,0.87
44.33,0.96
44.78,1.06
45.23,1.15
45.68,1.25
46.13,1.34
46.60,1.44
47.06,1.53
47.53,1.63
48.01,1.72
48.49,1.82
48.97,1.92
49.46,2.01
49.96,2.10
50.46,2.20
50.96,2.29
51.47,2.38
51.99,2.47
52.51,2.56
53.03,2.64
53.56,2.73
54.10,2.82
54.64,2.90
55.18,2.98
55.74,3.06
56.29,3.13
56.86,3.21
57.42,3.28
58.00,3.35
58.58,3.42
59.16,3.49
59.76,3.55
60.35,3.61
60.96,3.68
61.57,3.73
62.18,3.79
62.80,3.85
63.43,3.90
64.07,3.95
64.71,4.01
65.35,4.06
66.01,4.10
66.67,4.15
67.33,4.20
68.01,4.24
68.69,4.28
69.37,4.32
70.07,4.36
70.77,4.40
71.48,4.44
72.19,4.48
72.91,4.51
73.64,4.54
74.38,4.57
75.12,4.60
75.87,4.63
76.63,4.66
77.40,4.69
78.17,4.71
78.95,4.73
79.74,4.76
80.54,4.78
81.35,4.80
82.16,4.82
82.98,4.83
83.81,4.85
84.65,4.86
85.50,4.88
86.35,4.89
87.22,4.90
88.09,4.91
88.97,4.92
89.86,4.93
90.76,4.93
91.66,4.94
92.58,4.94
93.51,4.95
94.44,4.95
95.39,4.95
96.34,4.95
97.30,4.95
98.28,4.95
99.26,4.95
100.25,4.95
101.25,4.95
102.27,4.95
103.29,4.95
104.32,4.94
105.37,4.94
106.42,4.93
107.48,4.93
108.56,4.92
109.64,4.91
110.74,4.90
111.85,4.89
112.97,4.87
114.10,4.86
115.24,4.84
116.39,4.83
117.55,4.81
118.73,4.79
119.92,4.77
121.12,4.75
122.33,4.72
123.55,4.70
124.79,4.68
126.03,4.65
127.29,4.62
128.57,4.59
129.85,4.56
131.15,4.53
132.46,4.50
133.79,4.47
135.12,4.44
136.48,4.41
137.84,4.37
139.22,4.34
140.61,4.30
142.02,4.27
143.44,4.23
144.87,4.20
146.32,4.16
147.78,4.12
149.26,4.08
150.75,4.04
152.26,4.00
153.78,3.96
155.32,3.92
156.88,3.87
158.44,3.83
160.03,3.78
161.63,3.73
163.24,3.68
164.88,3.63
166.53,3.58
168.19,3.53
169.87,3.48
171.57,3.42
173.29,3.36
175.02,3.30
176.77,3.24
178.54,3.18
180.32,3.12
182.13,3.06
183.95,2.99
185.79,2.93
187.65,2.86
189.52,2.79
191.42,2.73
193.33,2.66
195.27,2.59
197.22,2.52
199.19,2.45
201.18,2.38
203.19,2.31
205.23,2.25
207.28,2.18
209.35,2.11
211.44,2.03
213.56,1.96
215.69,1.89
217.85,1.82
220.03,1.75
222.23,1.68
224.45,1.61
226.70,1.54
228.96,1.47
231.25,1.40
233.57,1.33
235.90,1.27
238.26,1.20
240.64,1.14
243.05,1.07
245.48,1.01
247.93,0.95
250.41,0.89
252.92,0.83
255.45,0.77
258.00,0.71
260.58,0.65
263.19,0.59
265.82,0.53
268.48,0.48
271.16,0.42
273.87,0.37
276.61,0.31
279.38,0.26
282.17,0.21
284.99,0.16
287.84,0.11
290.72,0.06
293.63,0.02
296.57,-0.03
299.53,-0.07
302.53,-0.11
305.55,-0.15
308.61,-0.19
311.69,-0.23
314.81,-0.27
317.96,-0.31
321.14,-0.35
324.35,-0.38
327.59,-0.42
330.87,-0.45
334.18,-0.49
337.52,-0.52
340.90,-0.56
344.30,-0.59
347.75,-0.62
351.23,-0.65
354.74,-0.68
358.28,-0.70
361.87,-0.73
365.49,-0.75
369.14,-0.76
372.83,-0.78
376.56,-0.79
380.33,-0.80
384.13,-0.81
387.97,-0.82
391.85,-0.82
395.77,-0.82
399.73,-0.82
403.72,-0.82
407.76,-0.82
411.84,-0.81
415.96,-0.80
420.12,-0.79
424.32,-0.77
428.56,-0.76
432.85,-0.74
437.18,-0.72
441.55,-0.69
445.96,-0.67
450.42,-0.65
454.93,-0.63
459.48,-0.61
464.07,-0.60
468.71,-0.58
473.40,-0.56
478.13,-0.54
482.91,-0.53
487.74,-0.51
492.62,-0.49
497.55,-0.48
502.52,-0.45
507.55,-0.43
512.62,-0.40
517.75,-0.37
522.93,-0.34
528.16,-0.32
533.44,-0.30
538.77,-0.30
544.16,-0.33
549.60,-0.39
555.10,-0.47
560.65,-0.57
566.25,-0.67
571.92,-0.76
577.64,-0.82
583.41,-0.85
589.25,-0.84
595.14,-0.79
601.09,-0.70
607.10,-0.60
613.17,-0.48
619.30,-0.37
625.50,-0.27
631.75,-0.18
638.07,-0.12
644.45,-0.07
650.89,-0.03
657.40,0.00
663.98,0.03
670.62,0.05
677.32,0.07
684.10,0.08
690.94,0.10
697.85,0.11
704.83,0.12
711.87,0.14
718.99,0.15
726.18,0.16
733.44,0.17
740.78,0.18
748.19,0.19
755.67,0.21
763.23,0.22
770.86,0.23
778.57,0.24
786.35,0.24
794.22,0.25
802.16,0.25
810.18,0.25
818.28,0.24
826.46,0.24
834.73,0.24
843.08,0.23
851.51,0.23
860.02,0.23
868.62,0.22
877.31,0.22
886.08,0.22
894.94,0.22
903.89,0.21
912.93,0.21
922.06,0.20
931.28,0.19
940.59,0.18
950.00,0.16
959.50,0.14
969.09,0.12
978.78,0.08
988.57,0.05
998.46,0.01
1008.44,-0.04
1018.53,-0.09
1028.71,-0.14
1039.00,-0.19
1049.39,-0.25
1059.88,-0.30
1070.48,-0.35
1081.19,-0.41
1092.00,-0.46
1102.92,-0.51
1113.95,-0.56
1125.09,-0.61
1136.34,-0.65
1147.70,-0.69
1159.18,-0.72
1170.77,-0.75
1182.48,-0.77
1194.30,-0.78
1206.25,-0.79
1218.31,-0.79
1230.49,-0.80
1242.80,-0.81
1255.22,-0.82
1267.78,-0.84
1280.45,-0.86
1293.26,-0.89
1306.19,-0.92
1319.25,-0.95
1332.45,-0.97
1345.77,-0.99
1359.23,-1.00
1372.82,-0.99
1386.55,-0.98
1400.41,-0.95
1414.42,-0.91
1428.56,-0.85
1442.85,-0.78
1457.28,-0.70
1471.85,-0.61
1486.57,-0.51
1501.43,-0.40
1516.45,-0.29
1531.61,-0.17
1546.93,-0.05
1562.40,0.07
1578.02,0.20
1593.80,0.33
1609.74,0.46
1625.84,0.60
1642.10,0.74
1658.52,0.89
1675.10,1.05
1691.85,1.21
1708.77,1.38
1725.86,1.56
1743.12,1.75
1760.55,1.95
1778.15,2.17
1795.94,2.39
1813.90,2.62
1832.03,2.87
1850.36,3.11
1868.86,3.36
1887.55,3.60
1906.42,3.83
1925.49,4.06
1944.74,4.28
1964.19,4.50
1983.83,4.71
2003.67,4.92
2023.71,5.13
2043.94,5.35
2064.38,5.57
2085.03,5.80
2105.88,6.03
2126.94,6.27
2148.20,6.51
2169.69,6.76
2191.38,7.00
2213.30,7.26
2235.43,7.51
2257.78,7.76
2280.36,8.00
2303.17,8.24
2326.20,8.47
2349.46,8.68
2372.95,8.87
2396.68,9.04
2420.65,9.20
2444.86,9.34
2469.31,9.46
2494.00,9.58
2518.94,9.68
2544.13,9.78
2569.57,9.87
2595.27,9.95
2621.22,10.03
2647.43,10.09
2673.90,10.15
2700.64,10.18
2727.65,10.20
2754.93,10.21
2782.48,10.19
2810.30,10.16
2838.40,10.12
2866.79,10.06
2895.46,10.00
2924.41,9.92
2953.65,9.84
2983.19,9.75
3013.02,9.65
3043.15,9.55
3073.58,9.42
3104.32,9.28
3135.36,9.13
3166.72,8.95
3198.38,8.74
3230.37,8.51
3262.67,8.25
3295.30,7.97
3328.25,7.65
3361.53,7.31
3395.15,6.94
3429.10,6.55
3463.39,6.13
3498.03,5.68
3533.01,5.21
3568.34,4.72
3604.02,4.21
3640.06,3.70
3676.46,3.18
3713.22,2.70
3750.36,2.25
3787.86,1.84
3825.74,1.51
3864.00,1.27
3902.64,1.08
3941.66,0.98
3981.08,0.94
4020.89,0.95
4061.10,0.99
4101.71,1.06
4142.73,1.15
4184.15,1.24
4226.00,1.32
4268.26,1.39
4310.94,1.44
4354.05,1.45
4397.59,1.45
4441.56,1.43
4485.98,1.42
4530.84,1.41
4576.15,1.44
4621.91,1.49
4668.13,1.58
4714.81,1.71
4761.96,1.85
4809.58,2.01
4857.67,2.16
4906.25,2.29
4955.31,2.37
5004.87,2.41
5054.91,2.41
5105.46,2.36
5156.52,2.26
5208.08,2.14
5260.16,1.99
5312.77,1.82
5365.89,1.64
5419.55,1.45
5473.75,1.27
5528.49,1.11
5583.77,0.97
5639.61,0.87
5696.00,0.79
5752.96,0.74
5810.49,0.72
5868.60,0.73
5927.28,0.77
5986.56,0.84
6046.42,0.94
6106.89,1.07
6167.96,1.22
6229.64,1.41
6291.93,1.62
6354.85,1.85
6418.40,2.12
6482.58,2.39
6547.41,2.67
6612.88,2.97
6679.01,3.26
6745.80,3.55
6813.26,3.82
6881.39,4.07
6950.21,4.30
7019.71,4.50
7089.91,4.67
7160.81,4.82
7232.41,4.96
7304.74,5.09
7377.79,5.23
7451.56,5.38
7526.08,5.57
7601.34,5.79
7677.35,6.03
7754.13,6.33
7831.67,6.65
7909.98,6.98
7989.08,7.32
8068.98,7.64
8149.67,7.94
8231.16,8.21
8313.47,8.42
8396.61,8.58
8480.57,8.70
8565.38,8.73
8651.03,8.69
8737.54,8.59
8824.92,8.35
8913.17,8.02
9002.30,7.60
9092.32,7.02
9183.25,6.32
9275.08,5.52
9367.83,4.60
9461.51,3.60
9556.12,2.58
9651.68,1.57
9748.20,0.71
9845.68,0.00
9944.14,-0.51
10043.58,-0.61
10144.02,-0.47
10245.46,-0.08
10347.91,0.67
10451.39,1.56
10555.91,2.54
10661.46,3.52
10768.08,4.38
10875.76,5.12
10984.52,5.64
11094.36,5.90
11205.31,5.99
11317.36,5.87
11430.53,5.45
11544.84,4.86
11660.29,4.11
11776.89,3.08
11894.66,1.95
12013.60,0.71
12133.74,-0.62
12255.08,-1.93
12377.63,-3.19
12501.41,-4.31
12626.42,-5.21
12752.68,-5.92
12880.21,-6.38
13009.01,-6.54
13139.10,-6.54
13270.49,-6.39
13403.20,-6.11
13537.23,-5.81
13672.60,-5.50
13809.33,-5.24
13947.42,-5.01
14086.90,-4.82
14227.77,-4.68
14370.04,-4.55
14513.74,-4.41
14658.88,-4.25
14805.47,-4.06
14953.52,-3.85
15103.06,-3.63
15254.09,-3.44
15406.63,-3.30
15560.70,-3.20
15716.30,-3.22
15873.47,-3.33
16032.20,-3.54
16192.52,-3.94
16354.45,-4.55
16517.99,-5.33
16683.17,-6.37
16850.01,-7.53
17018.51,-8.75
17188.69,-10.00
17360.58,-11.16
17534.18,-12.21
17709.53,-13.10
17886.62,-13.74
18065.49,-14.25
18246.14,-14.61
18428.60,-14.79
18612.89,-14.91
18799.02,-14.98
18987.01,-14.98
19176.88,-14.84
19368.65,-14.56
19562.33,-14.05
19757.96,-13.32
19955.54,-12.45
