frequency,raw
20.00,6.30
20.20,6.45
20.40,6.58
20.61,6.72
20.81,6.85
21.02,6.97
21.23,7.09
21.44,7.20
21.66,7.31
21.87,7.41
22.09,7.51
22.31,7.59
22.54,7.68
22.76,7.76
22.99,7.83
23.22,7.90
23.45,7.96
23.69,8.03
23.92,8.08
24.16,8.14
24.40,8.19
24.65,8.23
24.89,8.27
25.14,8.30
25.39,8.33
25.65,8.36
25.91,8.38
26.16,8.40
26.43,8.42
26.69,8.44
26.96,8.45
27.23,8.46
27.50,8.46
27.77,8.47
28.05,8.47
28.33,8.47
28.62,8.47
28.90,8.46
29.19,8.46
29.48,8.45
29.78,8.44
30.08,8.43
30.38,8.42
30.68,8.40
30.99,8.39
31.30,8.36
31.61,8.34
31.93,8.31
32.24,8.29
32.57,8.26
32.89,8.23
33.22,8.20
33.55,8.17
33.89,8.15
34.23,8.12
34.57,8.09
34.92,8.06
35.27,8.03
35.62,8.00
35.97,7.97
36.33,7.94
36.70,7.91
37.06,7.88
37.43,7.84
37.81,7.81
38.19,7.78
38.57,7.75
38.95,7.71
39.34,7.68
39.74,7.65
40.14,7.62
40.54,7.59
40.94,7.56
41.35,7.52
41.76,7.49
42.18,7.46
42.60,7.43
43.03,7.40
43.46,7.37
43.90,7.34
44.33,7.31
44.78,7.27
45.23,7.24
45.68,7.21
46.13,7.18
46.60,7.15
47.06,7.12
47.53,7.09
48.01,7.06
48.49,7.03
48.97,7.00
49.46,6.97
49.96,6.94
50.46,6.91
50.96,6.88
51.47,6.85
51.99,6.82
52.51,6.79
53.03,6.76
53.56,6.73
54.10,6.70
54.64,6.67
55.18,6.64
55.74,6.61
56.29,6.58
56.86,6.56
57.42,6.53
58.00,6.50
58.58,6.47
59.16,6.44
59.76,6.41
60.35,6.39
60.96,6.36
61.57,6.33
62.18,6.30
62.80,6.27
63.43,6.25
64.07,6.22
64.71,6.19
65.35,6.16
66.01,6.14
66.67,6.11
67.33,6.08
68.01,6.06
68.69,6.03
69.37,6.00
70.07,5.98
70.77,5.95
71.48,5.92
72.19,5.90
72.91,5.87
73.64,5.85
74.38,5.82
75.12,5.80
75.87,5.77
76.63,5.75
77.40,5.72
78.17,5.70
78.95,5.68
79.74,5.65
80.54,5.63
81.35,5.61
82.16,5.58
82.98,5.56
83.81,5.54
84.65,5.51
85.50,5.49
86.35,5.47
87.22,5.45
88.09,5.43
88.97,5.40
89.86,5.38
90.76,5.36
91.66,5.34
92.58,5.32
93.51,5.30
94.44,5.28
95.39,5.26
96.34,5.24
97.30,5.22
98.28,5.20
99.26,5.18
100.25,5.16
101.25,5.14
102.27,5.12
103.29,5.10
104.32,5.08
105.37,5.06
106.42,5.04
107.48,5.03
108.56,5.01
109.64,4.99
110.74,4.97
111.85,4.95
112.97,4.93
114.10,4.92
115.24,4.90
116.39,4.88
117.55,4.86
118.73,4.84
119.92,4.83
121.12,4.81
122.33,4.79
123.55,4.77
124.79,4.75
126.03,4.73
127.29,4.71
128.57,4.69
129.85,4.67
131.15,4.65
132.46,4.63
133.79,4.61
135.12,4.59
136.48,4.57
137.84,4.55
139.22,4.53
140.61,4.51
142.02,4.49
143.44,4.47
144.87,4.45
146.32,4.43
147.78,4.42
149.26,4.40
150.75,4.38
152.26,4.37
153.78,4.35
155.32,4.33
156.88,4.32
158.44,4.30
160.03,4.29
161.63,4.28
163.24,4.26
164.88,4.24
166.53,4.23
168.19,4.21
169.87,4.20
171.57,4.18
173.29,4.16
175.02,4.14
176.77,4.12
178.54,4.10
180.32,4.08
182.13,4.06
183.95,4.04
185.79,4.02
187.65,4.00
189.52,3.98
191.42,3.96
193.33,3.93
195.27,3.91
197.22,3.89
199.19,3.87
201.18,3.85
203.19,3.83
205.23,3.81
207.28,3.79
209.35,3.77
211.44,3.75
213.56,3.74
215.69,3.72
217.85,3.70
220.03,3.69
222.23,3.67
224.45,3.66
226.70,3.64
228.96,3.63
231.25,3.62
233.57,3.61
235.90,3.60
238.26,3.59
240.64,3.58
243.05,3.57
245.48,3.57
247.93,3.56
250.41,3.56
252.92,3.56
255.45,3.56
258.00,3.56
260.58,3.56
263.19,3.56
265.82,3.56
268.48,3.56
271.16,3.57
273.87,3.57
276.61,3.58
279.38,3.58
282.17,3.59
284.99,3.59
287.84,3.60
290.72,3.60
293.63,3.61
296.57,3.62
299.53,3.62
302.53,3.63
305.55,3.64
308.61,3.64
311.69,3.65
314.81,3.66
317.96,3.67
321.14,3.68
324.35,3.69
327.59,3.70
330.87,3.71
334.18,3.73
337.52,3.74
340.90,3.76
344.30,3.78
347.75,3.79
351.23,3.81
354.74,3.83
358.28,3.84
361.87,3.85
365.49,3.87
369.14,3.88
372.83,3.89
376.56,3.90
380.33,3.92
384.13,3.93
387.97,3.95
391.85,3.96
395.77,3.98
399.73,4.01
403.72,4.03
407.76,4.05
411.84,4.08
415.96,4.11
420.12,4.14
424.32,4.17
428.56,4.20
432.85,4.22
437.18,4.25
441.55,4.28
445.96,4.31
450.42,4.31
454.93,4.31
459.48,4.31
464.07,4.29
468.71,4.27
473.40,4.23
478.13,4.19
482.91,4.13
487.74,4.07
492.62,3.99
497.55,3.89
502.52,3.79
507.55,3.67
512.62,3.54
517.75,3.40
522.93,3.25
528.16,3.08
533.44,2.91
538.77,2.73
544.16,2.54
549.60,2.34
555.10,2.14
560.65,1.93
566.25,1.72
571.92,1.51
577.64,1.29
583.41,1.07
589.25,0.85
595.14,0.63
601.09,0.41
607.10,0.19
613.17,-0.03
619.30,-0.24
625.50,-0.44
631.75,-0.63
638.07,-0.81
644.45,-0.96
650.89,-1.11
657.40,-1.24
663.98,-1.35
670.62,-1.45
677.32,-1.54
684.10,-1.62
690.94,-1.69
697.85,-1.74
704.83,-1.78
711.87,-1.81
718.99,-1.83
726.18,-1.83
733.44,-1.81
740.78,-1.79
748.19,-1.76
755.67,-1.71
763.23,-1.65
770.86,-1.59
778.57,-1.51
786.35,-1.43
794.22,-1.35
802.16,-1.25
810.18,-1.16
818.28,-1.08
826.46,-1.00
834.73,-0.94
843.08,-0.89
851.51,-0.88
860.02,-0.89
868.62,-0.92
877.31,-0.98
886.08,-1.05
894.94,-1.12
903.89,-1.18
912.93,-1.20
922.06,-1.18
931.28,-1.14
940.59,-1.03
950.00,-0.90
959.50,-0.75
969.09,-0.57
978.78,-0.39
988.57,-0.21
998.46,-0.03
1008.44,0.14
1018.53,0.31
1028.71,0.46
1039.00,0.59
1049.39,0.71
1059.88,0.81
1070.48,0.89
1081.19,0.95
1092.00,1.00
1102.92,1.03
1113.95,1.04
1125.09,1.04
1136.34,1.03
1147.70,1.00
1159.18,0.97
1170.77,0.92
1182.48,0.87
1194.30,0.82
1206.25,0.77
1218.31,0.72
1230.49,0.67
1242.80,0.63
1255.22,0.60
1267.78,0.57
1280.45,0.54
1293.26,0.52
1306.19,0.50
1319.25,0.48
1332.45,0.46
1345.77,0.44
1359.23,0.41
1372.82,0.37
1386.55,0.32
1400.41,0.27
1414.42,0.22
1428.56,0.16
1442.85,0.10
1457.28,0.04
1471.85,-0.03
1486.57,-0.09
1501.43,-0.15
1516.45,-0.22
1531.61,-0.28
1546.93,-0.34
1562.40,-0.40
1578.02,-0.46
1593.80,-0.51
1609.74,-0.56
1625.84,-0.60
1642.10,-0.64
1658.52,-0.67
1675.10,-0.69
1691.85,-0.72
1708.77,-0.74
1725.86,-0.76
1743.12,-0.77
1760.55,-0.79
1778.15,-0.80
1795.94,-0.81
1813.90,-0.81
1832.03,-0.82
1850.36,-0.82
1868.86,-0.82
1887.55,-0.82
1906.42,-0.82
1925.49,-0.82
1944.74,-0.81
1964.19,-0.79
1983.83,-0.77
2003.67,-0.75
2023.71,-0.71
2043.94,-0.66
2064.38,-0.61
2085.03,-0.54
2105.88,-0.47
2126.94,-0.39
2148.20,-0.32
2169.69,-0.24
2191.38,-0.16
2213.30,-0.07
2235.43,0.01
2257.78,0.09
2280.36,0.18
2303.17,0.27
2326.20,0.36
2349.46,0.46
2372.95,0.55
2396.68,0.65
2420.65,0.75
2444.86,0.84
2469.31,0.94
2494.00,1.03
2518.94,1.13
2544.13,1.21
2569.57,1.30
2595.27,1.38
2621.22,1.45
2647.43,1.51
2673.90,1.55
2700.64,1.58
2727.65,1.60
2754.93,1.61
2782.48,1.61
2810.30,1.60
2838.40,1.58
2866.79,1.55
2895.46,1.51
2924.41,1.45
2953.65,1.39
2983.19,1.31
3013.02,1.24
3043.15,1.16
3073.58,1.08
3104.32,0.99
3135.36,0.90
3166.72,0.78
3198.38,0.65
3230.37,0.52
3262.67,0.36
3295.30,0.20
3328.25,0.04
3361.53,-0.13
3395.15,-0.29
3429.10,-0.46
3463.39,-0.62
3498.03,-0.77
3533.01,-0.92
3568.34,-1.06
3604.02,-1.20
3640.06,-1.34
3676.46,-1.49
3713.22,-1.63
3750.36,-1.78
3787.86,-1.94
3825.74,-2.11
3864.00,-2.30
3902.64,-2.50
3941.66,-2.73
3981.08,-2.97
4020.89,-3.21
4061.10,-3.45
4101.71,-3.65
4142.73,-3.82
4184.15,-3.96
4226.00,-4.01
4268.26,-4.01
4310.94,-3.96
4354.05,-3.80
4397.59,-3.57
4441.56,-3.27
4485.98,-2.91
4530.84,-2.51
4576.15,-2.10
4621.91,-1.67
4668.13,-1.22
4714.81,-0.77
4761.96,-0.32
4809.58,0.11
4857.67,0.52
4906.25,0.93
4955.31,1.32
5004.87,1.72
5054.91,2.12
5105.46,2.51
5156.52,2.90
5208.08,3.27
5260.16,3.62
5312.77,3.93
5365.89,4.23
5419.55,4.51
5473.75,4.73
5528.49,4.92
5583.77,5.05
5639.61,5.08
5696.00,5.04
5752.96,4.93
5810.49,4.71
5868.60,4.42
5927.28,4.09
5986.56,3.70
6046.42,3.29
6106.89,2.87
6167.96,2.43
6229.64,2.00
6291.93,1.58
6354.85,1.17
6418.40,0.79
6482.58,0.44
6547.41,0.11
6612.88,-0.18
6679.01,-0.43
6745.80,-0.65
6813.26,-0.82
6881.39,-0.93
6950.21,-1.01
7019.71,-1.02
7089.91,-0.98
7160.81,-0.90
7232.41,-0.76
7304.74,-0.57
7377.79,-0.35
7451.56,-0.11
7526.08,0.17
7601.34,0.46
7677.35,0.76
7754.13,1.05
7831.67,1.34
7909.98,1.61
7989.08,1.86
8068.98,2.08
8149.67,2.28
8231.16,2.43
8313.47,2.54
8396.61,2.60
8480.57,2.59
8565.38,2.44
8651.03,2.14
8737.54,1.68
8824.92,0.84
8913.17,-0.28
9002.30,-1.69
9092.32,-3.59
9183.25,-5.82
9275.08,-8.25
9367.83,-10.82
9461.51,-13.13
9556.12,-15.07
9651.68,-16.36
9748.20,-16.67
9845.68,-16.46
9944.14,-15.74
10043.58,-14.72
10144.02,-13.73
10245.46,-12.81
10347.91,-12.10
10451.39,-11.52
10555.91,-11.02
10661.46,-10.60
10768.08,-10.20
10875.76,-9.81
10984.52,-9.42
11094.36,-9.07
11205.31,-8.76
11317.36,-8.50
11430.53,-8.34
11544.84,-8.22
11660.29,-8.15
11776.89,-8.12
11894.66,-8.11
12013.60,-8.10
12133.74,-8.15
12255.08,-8.27
12377.63,-8.47
12501.41,-8.78
12626.42,-9.16
12752.68,-9.59
12880.21,-10.07
13009.01,-10.55
13139.10,-11.02
13270.49,-11.48
13403.20,-11.88
13537.23,-12.19
13672.60,-12.41
13809.33,-12.35
13947.42,-12.07
14086.90,-11.59
14227.77,-10.83
14370.04,-9.96
14513.74,-9.07
14658.88,-8.25
14805.47,-7.65
14953.52,-7.25
15103.06,-7.12
15254.09,-7.41
15406.63,-7.93
15560.70,-8.69
15716.30,-9.78
15873.47,-10.98
16032.20,-12.27
16192.52,-13.61
16354.45,-14.92
16517.99,-16.15
16683.17,-17.14
16850.01,-17.78
17018.51,-18.15
17188.69,-18.11
17360.58,-17.81
17534.18,-17.41
17709.53,-16.95
17886.62,-16.63
18065.49,-16.36
18246.14,-16.13
18428.60,-15.99
18612.89,-15.88
18799.02,-15.78
18987.01,-15.71
19176.88,-15.59
19368.65,-15.44
19562.33,-15.28
19757.96,-15.09
19955.54,-14.90
