frequency,raw
20.00,-13.65
20.20,-13.41
20.40,-13.17
20.61,-12.93
20.81,-12.69
21.02,-12.47
21.23,-12.24
21.44,-12.03
21.66,-11.81
21.87,-11.59
22.09,-11.37
22.31,-11.15
22.54,-10.93
22.76,-10.71
22.99,-10.49
23.22,-10.27
23.45,-10.05
23.69,-9.84
23.92,-9.62
24.16,-9.41
24.40,-9.20
24.65,-8.99
24.89,-8.77
25.14,-8.56
25.39,-8.36
25.65,-8.15
25.91,-7.94
26.16,-7.73
26.43,-7.52
26.69,-7.31
26.96,-7.09
27.23,-6.88
27.50,-6.68
27.77,-6.48
28.05,-6.28
28.33,-6.08
28.62,-5.87
28.90,-5.67
29.19,-5.47
29.48,-5.25
29.78,-5.06
30.08,-4.87
30.38,-4.69
30.68,-4.51
30.99,-4.33
31.30,-4.16
31.61,-3.98
31.93,-3.81
32.24,-3.65
32.57,-3.49
32.89,-3.37
33.22,-3.25
33.55,-3.15
33.89,-3.05
34.23,-2.95
34.57,-2.84
34.92,-2.76
35.27,-2.67
35.62,-2.59
35.97,-2.50
36.33,-2.41
36.70,-2.32
37.06,-2.19
37.43,-2.06
37.81,-1.92
38.19,-1.78
38.57,-1.66
38.95,-1.56
39.34,-1.48
39.74,-1.41
40.14,-1.33
40.54,-1.24
40.94,-1.13
41.35,-1.01
41.76,-0.86
42.18,-0.70
42.60,-0.53
43.03,-0.38
43.46,-0.25
43.90,-0.13
44.33,-0.02
44.78,0.13
45.23,0.31
45.68,0.50
46.13,0.69
46.60,0.85
47.06,1.00
47.53,1.16
48.01,1.36
48.49,1.57
48.97,1.77
49.46,1.93
49.96,2.09
50.46,2.26
50.96,2.42
51.47,2.54
51.99,2.61
52.51,2.71
53.03,2.83
53.56,2.89
54.10,2.90
54.64,2.95
55.18,3.18
55.74,3.39
56.29,3.35
56.86,3.32
57.42,3.74
58.00,4.53
58.58,4.95
59.16,4.45
59.76,3.49
60.35,2.98
60.96,3.10
61.57,3.17
62.18,2.94
62.80,2.73
63.43,2.66
64.07,2.54
64.71,2.35
65.35,2.21
66.01,2.15
66.67,2.15
67.33,2.21
68.01,2.34
68.69,2.51
69.37,2.73
70.07,3.01
70.77,3.32
71.48,3.63
72.19,3.93
72.91,4.26
73.64,4.59
74.38,4.91
75.12,5.24
75.87,5.55
76.63,5.84
77.40,6.11
78.17,6.37
78.95,6.61
79.74,6.83
80.54,7.04
81.35,7.23
82.16,7.40
82.98,7.56
83.81,7.70
84.65,7.84
85.50,7.98
86.35,8.09
87.22,8.19
88.09,8.27
88.97,8.32
89.86,8.36
90.76,8.38
91.66,8.41
92.58,8.46
93.51,8.51
94.44,8.57
95.39,8.62
96.34,8.65
97.30,8.68
98.28,8.70
99.26,8.73
100.25,8.75
101.25,8.78
102.27,8.79
103.29,8.80
104.32,8.80
105.37,8.80
106.42,8.78
107.48,8.76
108.56,8.75
109.64,8.73
110.74,8.70
111.85,8.67
112.97,8.64
114.10,8.62
115.24,8.61
116.39,8.59
117.55,8.56
118.73,8.53
119.92,8.51
121.12,8.47
122.33,8.42
123.55,8.37
124.79,8.31
126.03,8.25
127.29,8.18
128.57,8.11
129.85,8.04
131.15,7.97
132.46,7.90
133.79,7.83
135.12,7.76
136.48,7.69
137.84,7.64
139.22,7.59
140.61,7.54
142.02,7.51
143.44,7.47
144.87,7.43
146.32,7.40
147.78,7.36
149.26,7.33
150.75,7.29
152.26,7.27
153.78,7.25
155.32,7.23
156.88,7.21
158.44,7.19
160.03,7.17
161.63,7.13
163.24,7.10
164.88,7.06
166.53,7.02
168.19,6.97
169.87,6.92
171.57,6.87
173.29,6.80
175.02,6.75
176.77,6.68
178.54,6.63
180.32,6.57
182.13,6.49
183.95,6.41
185.79,6.34
187.65,6.26
189.52,6.18
191.42,6.12
193.33,6.06
195.27,6.01
197.22,5.96
199.19,5.92
201.18,5.89
203.19,5.84
205.23,5.81
207.28,5.78
209.35,5.73
211.44,5.69
213.56,5.63
215.69,5.58
217.85,5.53
220.03,5.49
222.23,5.44
224.45,5.39
226.70,5.35
228.96,5.31
231.25,5.26
233.57,5.22
235.90,5.18
238.26,5.16
240.64,5.13
243.05,5.11
245.48,5.07
247.93,5.04
250.41,5.00
252.92,4.95
255.45,4.89
258.00,4.84
260.58,4.79
263.19,4.74
265.82,4.70
268.48,4.67
271.16,4.64
273.87,4.60
276.61,4.57
279.38,4.54
282.17,4.49
284.99,4.45
287.84,4.41
290.72,4.37
293.63,4.32
296.57,4.28
299.53,4.24
302.53,4.19
305.55,4.15
308.61,4.11
311.69,4.07
314.81,4.03
317.96,3.99
321.14,3.95
324.35,3.90
327.59,3.87
330.87,3.84
334.18,3.80
337.52,3.78
340.90,3.75
344.30,3.72
347.75,3.70
351.23,3.68
354.74,3.66
358.28,3.64
361.87,3.63
365.49,3.63
369.14,3.63
372.83,3.63
376.56,3.64
380.33,3.65
384.13,3.66
387.97,3.67
391.85,3.70
395.77,3.72
399.73,3.76
403.72,3.79
407.76,3.82
411.84,3.86
415.96,3.91
420.12,3.95
424.32,3.98
428.56,4.02
432.85,4.06
437.18,4.11
441.55,4.16
445.96,4.20
450.42,4.25
454.93,4.30
459.48,4.36
464.07,4.42
468.71,4.47
473.40,4.54
478.13,4.60
482.91,4.66
487.74,4.73
492.62,4.81
497.55,4.89
502.52,4.96
507.55,5.05
512.62,5.14
517.75,5.25
522.93,5.35
528.16,5.47
533.44,5.58
538.77,5.69
544.16,5.82
549.60,5.94
555.10,6.07
560.65,6.20
566.25,6.33
571.92,6.48
577.64,6.61
583.41,6.75
589.25,6.91
595.14,7.07
601.09,7.25
607.10,7.40
613.17,7.54
619.30,7.65
625.50,7.78
631.75,7.90
638.07,8.03
644.45,8.14
650.89,8.23
657.40,8.30
663.98,8.34
670.62,8.36
677.32,8.37
684.10,8.35
690.94,8.31
697.85,8.27
704.83,8.21
711.87,8.12
718.99,8.03
726.18,7.89
733.44,7.76
740.78,7.60
748.19,7.42
755.67,7.23
763.23,7.02
770.86,6.80
778.57,6.57
786.35,6.35
794.22,6.12
802.16,5.89
810.18,5.64
818.28,5.38
826.46,5.09
834.73,4.77
843.08,4.42
851.51,4.05
860.02,3.66
868.62,3.28
877.31,2.91
886.08,2.57
894.94,2.25
903.89,1.95
912.93,1.68
922.06,1.45
931.28,1.23
940.59,1.04
950.00,0.85
959.50,0.65
969.09,0.46
978.78,0.28
988.57,0.12
998.46,0.01
1008.44,-0.04
1018.53,-0.00
1028.71,0.11
1039.00,0.29
1049.39,0.53
1059.88,0.81
1070.48,1.10
1081.19,1.40
1092.00,1.69
1102.92,1.97
1113.95,2.23
1125.09,2.47
1136.34,2.64
1147.70,2.71
1159.18,2.60
1170.77,2.36
1182.48,2.25
1194.30,2.52
1206.25,3.01
1218.31,3.41
1230.49,3.42
1242.80,3.03
1255.22,2.37
1267.78,1.76
1280.45,1.20
1293.26,0.59
1306.19,-0.01
1319.25,-0.44
1332.45,-0.52
1345.77,-0.12
1359.23,0.81
1372.82,1.73
1386.55,2.08
1400.41,1.74
1414.42,1.12
1428.56,0.56
1442.85,0.20
1457.28,0.06
1471.85,0.16
1486.57,0.46
1501.43,0.79
1516.45,0.91
1531.61,0.83
1546.93,0.67
1562.40,0.58
1578.02,0.62
1593.80,0.73
1609.74,0.74
1625.84,0.62
1642.10,0.40
1658.52,0.16
1675.10,-0.02
1691.85,-0.17
1708.77,-0.32
1725.86,-0.50
1743.12,-0.69
1760.55,-0.83
1778.15,-0.89
1795.94,-0.92
1813.90,-0.93
1832.03,-0.92
1850.36,-0.84
1868.86,-0.71
1887.55,-0.54
1906.42,-0.33
1925.49,-0.07
1944.74,0.24
1964.19,0.57
1983.83,0.86
2003.67,1.09
2023.71,1.23
2043.94,1.37
2064.38,1.56
2085.03,1.87
2105.88,2.26
2126.94,2.67
2148.20,3.04
2169.69,3.30
2191.38,3.46
2213.30,3.56
2235.43,3.68
2257.78,3.93
2280.36,4.26
2303.17,4.64
2326.20,4.98
2349.46,5.27
2372.95,5.57
2396.68,5.95
2420.65,6.37
2444.86,6.70
2469.31,6.85
2494.00,6.90
2518.94,6.90
2544.13,6.85
2569.57,6.69
2595.27,6.48
2621.22,6.27
2647.43,6.05
2673.90,5.83
2700.64,5.60
2727.65,5.33
2754.93,5.05
2782.48,4.73
2810.30,4.34
2838.40,3.86
2866.79,3.29
2895.46,2.66
2924.41,1.97
2953.65,1.24
2983.19,0.49
3013.02,-0.32
3043.15,-1.33
3073.58,-2.57
3104.32,-4.02
3135.36,-5.80
3166.72,-7.94
3198.38,-9.97
3230.37,-11.09
3262.67,-10.74
3295.30,-9.57
3328.25,-8.62
3361.53,-8.34
3395.15,-8.64
3429.10,-9.20
3463.39,-9.69
3498.03,-9.90
3533.01,-9.75
3568.34,-9.40
3604.02,-9.51
3640.06,-10.42
3676.46,-10.44
3713.22,-7.87
3750.36,-5.20
3787.86,-3.21
3825.74,-1.58
3864.00,-0.34
3902.64,0.40
3941.66,0.77
3981.08,0.88
4020.89,0.82
4061.10,0.69
4101.71,0.49
4142.73,0.28
4184.15,-0.01
4226.00,-0.40
4268.26,-0.93
4310.94,-1.70
4354.05,-2.71
4397.59,-3.75
4441.56,-4.48
4485.98,-4.65
4530.84,-4.26
4576.15,-3.45
4621.91,-2.50
4668.13,-1.52
4714.81,-0.50
4761.96,0.54
4809.58,1.60
4857.67,2.64
4906.25,3.63
4955.31,4.50
5004.87,5.22
5054.91,5.74
5105.46,6.10
5156.52,6.36
5208.08,6.53
5260.16,6.62
5312.77,6.68
5365.89,6.75
5419.55,6.75
5473.75,6.59
5528.49,6.33
5583.77,6.04
5639.61,5.75
5696.00,5.44
5752.96,5.14
5810.49,4.85
5868.60,4.61
5927.28,4.43
5986.56,4.27
6046.42,4.13
6106.89,4.08
6167.96,4.06
6229.64,4.15
6291.93,4.37
6354.85,4.64
6418.40,4.86
6482.58,4.93
6547.41,4.85
6612.88,4.80
6679.01,4.90
6745.80,5.17
6813.26,5.45
6881.39,5.56
6950.21,5.34
7019.71,4.86
7089.91,4.15
7160.81,3.29
7232.41,2.45
7304.74,1.76
7377.79,1.23
7451.56,0.81
7526.08,0.47
7601.34,0.16
7677.35,-0.11
7754.13,-0.32
7831.67,-0.55
7909.98,-0.84
7989.08,-1.25
8068.98,-1.90
8149.67,-2.85
8231.16,-3.74
8313.47,-3.73
8396.61,-2.03
8480.57,0.52
8565.38,2.88
8651.03,4.62
8737.54,5.83
8824.92,6.60
8913.17,7.10
9002.30,7.22
9092.32,6.86
9183.25,5.96
9275.08,4.44
9367.83,2.51
9461.51,0.41
9556.12,-1.57
9651.68,-3.33
9748.20,-4.75
9845.68,-5.77
9944.14,-6.57
10043.58,-7.29
10144.02,-8.00
10245.46,-8.62
10347.91,-8.96
10451.39,-9.05
10555.91,-8.90
10661.46,-8.48
10768.08,-7.77
10875.76,-6.83
10984.52,-5.88
11094.36,-5.02
11205.31,-4.14
11317.36,-3.06
11430.53,-2.08
11544.84,-1.50
11660.29,-1.28
11776.89,-0.56
11894.66,1.00
12013.60,2.62
12133.74,3.63
12255.08,4.22
12377.63,4.72
12501.41,5.03
12626.42,5.10
12752.68,5.07
12880.21,5.23
13009.01,5.47
13139.10,5.34
13270.49,4.86
13403.20,4.34
13537.23,4.04
13672.60,3.85
13809.33,3.48
13947.42,3.08
14086.90,2.96
14227.77,3.26
14370.04,3.77
14513.74,4.27
14658.88,4.67
14805.47,4.81
14953.52,4.75
15103.06,5.24
15254.09,6.38
15406.63,7.38
15560.70,7.67
15716.30,7.30
15873.47,6.82
16032.20,6.60
16192.52,6.77
16354.45,7.09
16517.99,7.21
16683.17,6.87
16850.01,6.18
17018.51,5.62
17188.69,5.40
17360.58,5.28
17534.18,5.21
17709.53,5.20
17886.62,5.25
18065.49,5.38
18246.14,5.78
18428.60,5.81
18612.89,5.23
18799.02,4.20
18987.01,2.63
19176.88,0.42
19368.65,-2.25
19562.33,-5.34
19757.96,-8.40
19955.54,-10.77
