frequency,raw
20.00,-9.60
20.20,-9.52
20.40,-9.44
20.61,-9.36
20.81,-9.27
21.02,-9.19
21.23,-9.09
21.44,-9.01
21.66,-8.93
21.87,-8.84
22.09,-8.75
22.31,-8.66
22.54,-8.58
22.76,-8.48
22.99,-8.39
23.22,-8.30
23.45,-8.21
23.69,-8.11
23.92,-8.02
24.16,-7.92
24.40,-7.83
24.65,-7.73
24.89,-7.63
25.14,-7.52
25.39,-7.42
25.65,-7.32
25.91,-7.22
26.16,-7.12
26.43,-7.02
26.69,-6.91
26.96,-6.81
27.23,-6.70
27.50,-6.61
27.77,-6.50
28.05,-6.39
28.33,-6.29
28.62,-6.18
28.90,-6.09
29.19,-5.99
29.48,-5.88
29.78,-5.78
30.08,-5.68
30.38,-5.58
30.68,-5.47
30.99,-5.37
31.30,-5.28
31.61,-5.18
31.93,-5.09
32.24,-5.00
32.57,-4.91
32.89,-4.82
33.22,-4.72
33.55,-4.63
33.89,-4.54
34.23,-4.45
34.57,-4.36
34.92,-4.27
35.27,-4.17
35.62,-4.08
35.97,-4.00
36.33,-3.90
36.70,-3.83
37.06,-3.73
37.43,-3.65
37.81,-3.57
38.19,-3.48
38.57,-3.40
38.95,-3.32
39.34,-3.24
39.74,-3.16
40.14,-3.08
40.54,-3.00
40.94,-2.92
41.35,-2.84
41.76,-2.76
42.18,-2.69
42.60,-2.62
43.03,-2.54
43.46,-2.47
43.90,-2.39
44.33,-2.32
44.78,-2.25
45.23,-2.18
45.68,-2.11
46.13,-2.03
46.60,-1.97
47.06,-1.90
47.53,-1.84
48.01,-1.77
48.49,-1.71
48.97,-1.65
49.46,-1.60
49.96,-1.54
50.46,-1.47
50.96,-1.42
51.47,-1.36
51.99,-1.31
52.51,-1.26
53.03,-1.20
53.56,-1.15
54.10,-1.09
54.64,-1.05
55.18,-1.00
55.74,-0.95
56.29,-0.91
56.86,-0.86
57.42,-0.81
58.00,-0.77
58.58,-0.73
59.16,-0.69
59.76,-0.66
60.35,-0.62
60.96,-0.59
61.57,-0.55
62.18,-0.51
62.80,-0.48
63.43,-0.46
64.07,-0.43
64.71,-0.40
65.35,-0.38
66.01,-0.36
66.67,-0.33
67.33,-0.30
68.01,-0.29
68.69,-0.26
69.37,-0.25
70.07,-0.23
70.77,-0.21
71.48,-0.20
72.19,-0.19
72.91,-0.17
73.64,-0.16
74.38,-0.15
75.12,-0.14
75.87,-0.13
76.63,-0.13
77.40,-0.12
78.17,-0.12
78.95,-0.11
79.74,-0.11
80.54,-0.11
81.35,-0.10
82.16,-0.10
82.98,-0.10
83.81,-0.10
84.65,-0.11
85.50,-0.11
86.35,-0.11
87.22,-0.12
88.09,-0.12
88.97,-0.13
89.86,-0.14
90.76,-0.15
91.66,-0.16
92.58,-0.17
93.51,-0.18
94.44,-0.18
95.39,-0.19
96.34,-0.21
97.30,-0.22
98.28,-0.23
99.26,-0.24
100.25,-0.25
101.25,-0.27
102.27,-0.28
103.29,-0.30
104.32,-0.31
105.37,-0.33
106.42,-0.35
107.48,-0.37
108.56,-0.38
109.64,-0.40
110.74,-0.41
111.85,-0.43
112.97,-0.45
114.10,-0.47
115.24,-0.48
116.39,-0.49
117.55,-0.51
118.73,-0.53
119.92,-0.55
121.12,-0.57
122.33,-0.59
123.55,-0.61
124.79,-0.63
126.03,-0.65
127.29,-0.67
128.57,-0.69
129.85,-0.70
131.15,-0.73
132.46,-0.74
133.79,-0.76
135.12,-0.78
136.48,-0.80
137.84,-0.82
139.22,-0.83
140.61,-0.85
142.02,-0.87
143.44,-0.89
144.87,-0.90
146.32,-0.91
147.78,-0.94
149.26,-0.95
150.75,-0.97
152.26,-0.99
153.78,-1.01
155.32,-1.02
156.88,-1.04
158.44,-1.06
160.03,-1.08
161.63,-1.10
163.24,-1.11
164.88,-1.13
166.53,-1.14
168.19,-1.16
169.87,-1.18
171.57,-1.19
173.29,-1.21
175.02,-1.21
176.77,-1.23
178.54,-1.24
180.32,-1.26
182.13,-1.27
183.95,-1.29
185.79,-1.30
187.65,-1.32
189.52,-1.36
191.42,-1.38
193.33,-1.41
195.27,-1.45
197.22,-1.49
199.19,-1.53
201.18,-1.56
203.19,-1.61
205.23,-1.65
207.28,-1.68
209.35,-1.72
211.44,-1.74
213.56,-1.77
215.69,-1.80
217.85,-1.83
220.03,-1.85
222.23,-1.87
224.45,-1.89
226.70,-1.91
228.96,-1.93
231.25,-1.95
233.57,-1.96
235.90,-1.97
238.26,-1.98
240.64,-1.99
243.05,-1.99
245.48,-1.99
247.93,-1.98
250.41,-1.96
252.92,-1.94
255.45,-1.91
258.00,-1.86
260.58,-1.79
263.19,-1.72
265.82,-1.64
268.48,-1.55
271.16,-1.45
273.87,-1.37
276.61,-1.29
279.38,-1.23
282.17,-1.19
284.99,-1.17
287.84,-1.18
290.72,-1.19
293.63,-1.23
296.57,-1.29
299.53,-1.34
302.53,-1.40
305.55,-1.46
308.61,-1.50
311.69,-1.54
314.81,-1.58
317.96,-1.61
321.14,-1.64
324.35,-1.67
327.59,-1.69
330.87,-1.71
334.18,-1.73
337.52,-1.74
340.90,-1.75
344.30,-1.77
347.75,-1.78
351.23,-1.79
354.74,-1.80
358.28,-1.81
361.87,-1.82
365.49,-1.82
369.14,-1.82
372.83,-1.82
376.56,-1.81
380.33,-1.81
384.13,-1.80
387.97,-1.80
391.85,-1.79
395.77,-1.78
399.73,-1.76
403.72,-1.76
407.76,-1.75
411.84,-1.73
415.96,-1.71
420.12,-1.70
424.32,-1.68
428.56,-1.66
432.85,-1.64
437.18,-1.62
441.55,-1.60
445.96,-1.58
450.42,-1.56
454.93,-1.56
459.48,-1.54
464.07,-1.53
468.71,-1.52
473.40,-1.50
478.13,-1.49
482.91,-1.48
487.74,-1.46
492.62,-1.44
497.55,-1.42
502.52,-1.42
507.55,-1.40
512.62,-1.38
517.75,-1.36
522.93,-1.35
528.16,-1.33
533.44,-1.31
538.77,-1.30
544.16,-1.28
549.60,-1.26
555.10,-1.24
560.65,-1.23
566.25,-1.21
571.92,-1.19
577.64,-1.18
583.41,-1.16
589.25,-1.13
595.14,-1.12
601.09,-1.11
607.10,-1.09
613.17,-1.07
619.30,-1.05
625.50,-1.03
631.75,-1.01
638.07,-0.99
644.45,-0.98
650.89,-0.96
657.40,-0.94
663.98,-0.92
670.62,-0.90
677.32,-0.88
684.10,-0.86
690.94,-0.84
697.85,-0.81
704.83,-0.79
711.87,-0.77
718.99,-0.75
726.18,-0.73
733.44,-0.71
740.78,-0.69
748.19,-0.67
755.67,-0.65
763.23,-0.63
770.86,-0.61
778.57,-0.59
786.35,-0.57
794.22,-0.55
802.16,-0.53
810.18,-0.52
818.28,-0.49
826.46,-0.48
834.73,-0.46
843.08,-0.44
851.51,-0.42
860.02,-0.40
868.62,-0.38
877.31,-0.36
886.08,-0.33
894.94,-0.31
903.89,-0.28
912.93,-0.26
922.06,-0.23
931.28,-0.21
940.59,-0.17
950.00,-0.15
959.50,-0.13
969.09,-0.10
978.78,-0.06
988.57,-0.03
998.46,-0.00
1008.44,0.02
1018.53,0.06
1028.71,0.09
1039.00,0.13
1049.39,0.17
1059.88,0.21
1070.48,0.24
1081.19,0.28
1092.00,0.32
1102.92,0.36
1113.95,0.40
1125.09,0.45
1136.34,0.49
1147.70,0.54
1159.18,0.59
1170.77,0.65
1182.48,0.71
1194.30,0.78
1206.25,0.85
1218.31,0.92
1230.49,0.99
1242.80,1.07
1255.22,1.15
1267.78,1.24
1280.45,1.32
1293.26,1.41
1306.19,1.49
1319.25,1.58
1332.45,1.68
1345.77,1.76
1359.23,1.86
1372.82,1.96
1386.55,2.06
1400.41,2.17
1414.42,2.27
1428.56,2.38
1442.85,2.50
1457.28,2.61
1471.85,2.73
1486.57,2.85
1501.43,2.97
1516.45,3.09
1531.61,3.22
1546.93,3.35
1562.40,3.49
1578.02,3.62
1593.80,3.76
1609.74,3.90
1625.84,4.05
1642.10,4.19
1658.52,4.34
1675.10,4.51
1691.85,4.71
1708.77,4.93
1725.86,5.22
1743.12,5.57
1760.55,5.97
1778.15,6.46
1795.94,7.01
1813.90,7.60
1832.03,8.22
1850.36,8.84
1868.86,9.44
1887.55,10.01
1906.42,10.51
1925.49,10.95
1944.74,11.33
1964.19,11.62
1983.83,11.87
2003.67,12.11
2023.71,12.31
2043.94,12.51
2064.38,12.69
2085.03,12.86
2105.88,13.02
2126.94,13.18
2148.20,13.33
2169.69,13.47
2191.38,13.61
2213.30,13.73
2235.43,13.84
2257.78,13.96
2280.36,14.04
2303.17,14.10
2326.20,14.14
2349.46,14.14
2372.95,14.11
2396.68,14.05
2420.65,13.96
2444.86,13.86
2469.31,13.76
2494.00,13.67
2518.94,13.57
2544.13,13.51
2569.57,13.45
2595.27,13.40
2621.22,13.36
2647.43,13.30
2673.90,13.25
2700.64,13.19
2727.65,13.11
2754.93,13.03
2782.48,12.91
2810.30,12.79
2838.40,12.65
2866.79,12.52
2895.46,12.37
2924.41,12.24
2953.65,12.11
2983.19,12.00
3013.02,11.90
3043.15,11.81
3073.58,11.73
3104.32,11.65
3135.36,11.56
3166.72,11.42
3198.38,11.27
3230.37,11.08
3262.67,10.85
3295.30,10.58
3328.25,10.31
3361.53,10.01
3395.15,9.71
3429.10,9.40
3463.39,9.09
3498.03,8.78
3533.01,8.45
3568.34,8.12
3604.02,7.76
3640.06,7.41
3676.46,7.04
3713.22,6.70
3750.36,6.39
3787.86,6.14
3825.74,5.96
3864.00,5.89
3902.64,5.89
3941.66,5.98
3981.08,6.19
4020.89,6.47
4061.10,6.84
4101.71,7.29
4142.73,7.80
4184.15,8.32
4226.00,8.84
4268.26,9.34
4310.94,9.80
4354.05,10.16
4397.59,10.43
4441.56,10.60
4485.98,10.64
4530.84,10.54
4576.15,10.36
4621.91,10.10
4668.13,9.75
4714.81,9.37
4761.96,8.97
4809.58,8.58
4857.67,8.23
4906.25,7.90
4955.31,7.68
5004.87,7.56
5054.91,7.50
5105.46,7.57
5156.52,7.70
5208.08,7.86
5260.16,8.07
5312.77,8.28
5365.89,8.49
5419.55,8.67
5473.75,8.81
5528.49,8.91
5583.77,8.97
5639.61,8.95
5696.00,8.89
5752.96,8.79
5810.49,8.64
5868.60,8.43
5927.28,8.18
5986.56,7.85
6046.42,7.47
6106.89,7.07
6167.96,6.65
6229.64,6.22
6291.93,5.80
6354.85,5.38
6418.40,5.00
6482.58,4.65
6547.41,4.31
6612.88,4.04
6679.01,3.82
6745.80,3.64
6813.26,3.53
6881.39,3.45
6950.21,3.42
7019.71,3.45
7089.91,3.53
7160.81,3.65
7232.41,3.80
7304.74,4.01
7377.79,4.27
7451.56,4.59
7526.08,5.04
7601.34,5.59
7677.35,6.22
7754.13,6.99
7831.67,7.78
7909.98,8.57
7989.08,9.31
8068.98,9.93
8149.67,10.44
8231.16,10.79
8313.47,10.94
8396.61,11.00
8480.57,10.95
8565.38,10.79
8651.03,10.63
8737.54,10.45
8824.92,10.30
8913.17,10.17
9002.30,10.08
9092.32,10.03
9183.25,10.03
9275.08,10.07
9367.83,10.16
9461.51,10.29
9556.12,10.43
9651.68,10.58
9748.20,10.67
9845.68,10.74
9944.14,10.74
10043.58,10.61
10144.02,10.42
10245.46,10.16
10347.91,9.80
10451.39,9.41
10555.91,9.00
10661.46,8.58
10768.08,8.19
10875.76,7.82
10984.52,7.53
11094.36,7.31
11205.31,7.16
11317.36,7.09
11430.53,7.09
11544.84,7.08
11660.29,7.08
11776.89,6.97
11894.66,6.75
12013.60,6.41
12133.74,5.85
12255.08,5.18
12377.63,4.46
12501.41,3.73
12626.42,3.08
12752.68,2.48
12880.21,1.99
13009.01,1.56
13139.10,1.16
13270.49,0.75
13403.20,0.26
13537.23,-0.28
13672.60,-0.88
13809.33,-1.52
13947.42,-2.14
14086.90,-2.74
14227.77,-3.29
14370.04,-3.80
14513.74,-4.31
14658.88,-4.86
14805.47,-5.50
14953.52,-6.23
15103.06,-7.04
15254.09,-7.89
15406.63,-8.71
15560.70,-9.48
15716.30,-10.03
15873.47,-10.41
16032.20,-10.63
16192.52,-10.60
16354.45,-10.42
16517.99,-10.17
16683.17,-9.89
16850.01,-9.81
17018.51,-9.87
17188.69,-10.14
17360.58,-10.59
17534.18,-11.18
17709.53,-11.91
17886.62,-12.80
18065.49,-13.79
18246.14,-14.85
18428.60,-16.04
18612.89,-17.23
18799.02,-18.42
18987.01,-19.55
19176.88,-20.57
19368.65,-21.47
19562.33,-22.10
19757.96,-22.43
19955.54,-22.50
