frequency,raw
20.00,-9.60
20.20,-9.52
20.40,-9.44
20.61,-9.35
20.81,-9.27
21.02,-9.18
21.23,-9.10
21.44,-9.01
21.66,-8.92
21.87,-8.83
22.09,-8.75
22.31,-8.66
22.54,-8.57
22.76,-8.48
22.99,-8.39
23.22,-8.30
23.45,-8.21
23.69,-8.11
23.92,-8.02
24.16,-7.92
24.40,-7.82
24.65,-7.72
24.89,-7.62
25.14,-7.52
25.39,-7.42
25.65,-7.32
25.91,-7.22
26.16,-7.12
26.43,-7.01
26.69,-6.91
26.96,-6.81
27.23,-6.70
27.50,-6.60
27.77,-6.49
28.05,-6.39
28.33,-6.29
28.62,-6.19
28.90,-6.08
29.19,-5.98
29.48,-5.88
29.78,-5.78
30.08,-5.68
30.38,-5.58
30.68,-5.47
30.99,-5.37
31.30,-5.27
31.61,-5.18
31.93,-5.09
32.24,-5.00
32.57,-4.91
32.89,-4.81
33.22,-4.72
33.55,-4.63
33.89,-4.54
34.23,-4.45
34.57,-4.36
34.92,-4.26
35.27,-4.17
35.62,-4.08
35.97,-3.99
36.33,-3.91
36.70,-3.82
37.06,-3.73
37.43,-3.65
37.81,-3.57
38.19,-3.48
38.57,-3.40
38.95,-3.32
39.34,-3.23
39.74,-3.15
40.14,-3.07
40.54,-2.99
40.94,-2.92
41.35,-2.84
41.76,-2.76
42.18,-2.69
42.60,-2.61
43.03,-2.54
43.46,-2.46
43.90,-2.39
44.33,-2.32
44.78,-2.25
45.23,-2.17
45.68,-2.10
46.13,-2.04
46.60,-1.97
47.06,-1.90
47.53,-1.84
48.01,-1.77
48.49,-1.71
48.97,-1.65
49.46,-1.59
49.96,-1.53
50.46,-1.47
50.96,-1.42
51.47,-1.36
51.99,-1.30
52.51,-1.25
53.03,-1.20
53.56,-1.15
54.10,-1.09
54.64,-1.04
55.18,-1.00
55.74,-0.95
56.29,-0.90
56.86,-0.86
57.42,-0.81
58.00,-0.77
58.58,-0.73
59.16,-0.69
59.76,-0.65
60.35,-0.61
60.96,-0.58
61.57,-0.55
62.18,-0.51
62.80,-0.48
63.43,-0.45
64.07,-0.43
64.71,-0.40
65.35,-0.37
66.01,-0.35
66.67,-0.33
67.33,-0.30
68.01,-0.28
68.69,-0.26
69.37,-0.24
70.07,-0.23
70.77,-0.21
71.48,-0.19
72.19,-0.18
72.91,-0.17
73.64,-0.16
74.38,-0.15
75.12,-0.14
75.87,-0.13
76.63,-0.12
77.40,-0.12
78.17,-0.11
78.95,-0.11
79.74,-0.10
80.54,-0.10
81.35,-0.10
82.16,-0.10
82.98,-0.10
83.81,-0.10
84.65,-0.10
85.50,-0.11
86.35,-0.11
87.22,-0.12
88.09,-0.12
88.97,-0.13
89.86,-0.13
90.76,-0.14
91.66,-0.15
92.58,-0.16
93.51,-0.17
94.44,-0.18
95.39,-0.19
96.34,-0.20
97.30,-0.21
98.28,-0.23
99.26,-0.24
100.25,-0.25
101.25,-0.27
102.27,-0.28
103.29,-0.30
104.32,-0.31
105.37,-0.33
106.42,-0.34
107.48,-0.36
108.56,-0.38
109.64,-0.40
110.74,-0.41
111.85,-0.43
112.97,-0.45
114.10,-0.46
115.24,-0.48
116.39,-0.50
117.55,-0.51
118.73,-0.53
119.92,-0.55
121.12,-0.57
122.33,-0.59
123.55,-0.61
124.79,-0.63
126.03,-0.65
127.29,-0.67
128.57,-0.69
129.85,-0.70
131.15,-0.72
132.46,-0.74
133.79,-0.76
135.12,-0.78
136.48,-0.80
137.84,-0.81
139.22,-0.83
140.61,-0.85
142.02,-0.87
143.44,-0.88
144.87,-0.90
146.32,-0.92
147.78,-0.93
149.26,-0.95
150.75,-0.97
152.26,-0.99
153.78,-1.01
155.32,-1.02
156.88,-1.04
158.44,-1.06
160.03,-1.08
161.63,-1.09
163.24,-1.11
164.88,-1.13
166.53,-1.14
168.19,-1.16
169.87,-1.18
171.57,-1.19
173.29,-1.20
175.02,-1.22
176.77,-1.23
178.54,-1.24
180.32,-1.26
182.13,-1.27
183.95,-1.28
185.79,-1.30
187.65,-1.32
189.52,-1.35
191.42,-1.37
193.33,-1.41
195.27,-1.44
197.22,-1.48
199.19,-1.53
201.18,-1.57
203.19,-1.61
205.23,-1.64
207.28,-1.68
209.35,-1.71
211.44,-1.74
213.56,-1.77
215.69,-1.80
217.85,-1.83
220.03,-1.85
222.23,-1.87
224.45,-1.89
226.70,-1.91
228.96,-1.93
231.25,-1.94
233.57,-1.96
235.90,-1.97
238.26,-1.98
240.64,-1.99
243.05,-1.99
245.48,-1.99
247.93,-1.99
250.41,-1.98
252.92,-1.95
255.45,-1.92
258.00,-1.88
260.58,-1.81
263.19,-1.74
265.82,-1.65
268.48,-1.55
271.16,-1.45
273.87,-1.35
276.61,-1.26
279.38,-1.20
282.17,-1.15
284.99,-1.13
287.84,-1.15
290.72,-1.18
293.63,-1.22
296.57,-1.28
299.53,-1.34
302.53,-1.40
305.55,-1.46
308.61,-1.50
311.69,-1.55
314.81,-1.58
317.96,-1.61
321.14,-1.64
324.35,-1.66
327.59,-1.68
330.87,-1.70
334.18,-1.72
337.52,-1.74
340.90,-1.75
344.30,-1.77
347.75,-1.78
351.23,-1.79
354.74,-1.80
358.28,-1.81
361.87,-1.81
365.49,-1.81
369.14,-1.81
372.83,-1.81
376.56,-1.81
380.33,-1.81
384.13,-1.80
387.97,-1.79
391.85,-1.79
395.77,-1.78
399.73,-1.77
403.72,-1.75
407.76,-1.74
411.84,-1.73
415.96,-1.71
420.12,-1.70
424.32,-1.68
428.56,-1.66
432.85,-1.64
437.18,-1.62
441.55,-1.60
445.96,-1.58
450.42,-1.57
454.93,-1.55
459.48,-1.54
464.07,-1.53
468.71,-1.52
473.40,-1.50
478.13,-1.49
482.91,-1.47
487.74,-1.46
492.62,-1.44
497.55,-1.43
502.52,-1.41
507.55,-1.39
512.62,-1.38
517.75,-1.36
522.93,-1.34
528.16,-1.33
533.44,-1.31
538.77,-1.29
544.16,-1.27
549.60,-1.26
555.10,-1.24
560.65,-1.22
566.25,-1.20
571.92,-1.19
577.64,-1.17
583.41,-1.15
589.25,-1.14
595.14,-1.12
601.09,-1.10
607.10,-1.08
613.17,-1.06
619.30,-1.05
625.50,-1.03
631.75,-1.01
638.07,-0.99
644.45,-0.97
650.89,-0.95
657.40,-0.93
663.98,-0.91
670.62,-0.89
677.32,-0.87
684.10,-0.85
690.94,-0.83
697.85,-0.81
704.83,-0.79
711.87,-0.77
718.99,-0.75
726.18,-0.73
733.44,-0.71
740.78,-0.69
748.19,-0.67
755.67,-0.65
763.23,-0.63
770.86,-0.61
778.57,-0.59
786.35,-0.57
794.22,-0.55
802.16,-0.53
810.18,-0.52
818.28,-0.50
826.46,-0.48
834.73,-0.46
843.08,-0.44
851.51,-0.42
860.02,-0.40
868.62,-0.38
877.31,-0.36
886.08,-0.33
894.94,-0.31
903.89,-0.28
912.93,-0.25
922.06,-0.23
931.28,-0.20
940.59,-0.18
950.00,-0.15
959.50,-0.12
969.09,-0.09
978.78,-0.07
988.57,-0.04
998.46,-0.01
1008.44,0.03
1018.53,0.06
1028.71,0.10
1039.00,0.13
1049.39,0.17
1059.88,0.21
1070.48,0.25
1081.19,0.28
1092.00,0.32
1102.92,0.36
1113.95,0.40
1125.09,0.45
1136.34,0.49
1147.70,0.54
1159.18,0.59
1170.77,0.65
1182.48,0.71
1194.30,0.78
1206.25,0.84
1218.31,0.92
1230.49,0.99
1242.80,1.07
1255.22,1.15
1267.78,1.24
1280.45,1.32
1293.26,1.41
1306.19,1.50
1319.25,1.59
1332.45,1.67
1345.77,1.77
1359.23,1.86
1372.82,1.96
1386.55,2.06
1400.41,2.16
1414.42,2.27
1428.56,2.38
1442.85,2.50
1457.28,2.61
1471.85,2.73
1486.57,2.85
1501.43,2.97
1516.45,3.10
1531.61,3.22
1546.93,3.35
1562.40,3.48
1578.02,3.62
1593.80,3.76
1609.74,3.90
1625.84,4.05
1642.10,4.19
1658.52,4.33
1675.10,4.49
1691.85,4.67
1708.77,4.87
1725.86,5.14
1743.12,5.47
1760.55,5.86
1778.15,6.35
1795.94,6.92
1813.90,7.54
1832.03,8.22
1850.36,8.89
1868.86,9.54
1887.55,10.13
1906.42,10.62
1925.49,11.04
1944.74,11.40
1964.19,11.68
1983.83,11.92
2003.67,12.13
2023.71,12.32
2043.94,12.50
2064.38,12.69
2085.03,12.87
2105.88,13.05
2126.94,13.21
2148.20,13.36
2169.69,13.49
2191.38,13.61
2213.30,13.72
2235.43,13.85
2257.78,13.96
2280.36,14.08
2303.17,14.15
2326.20,14.20
2349.46,14.21
2372.95,14.16
2396.68,14.08
2420.65,13.98
2444.86,13.86
2469.31,13.75
2494.00,13.64
2518.94,13.55
2544.13,13.49
2569.57,13.43
2595.27,13.40
2621.22,13.36
2647.43,13.32
2673.90,13.28
2700.64,13.21
2727.65,13.13
2754.93,13.04
2782.48,12.93
2810.30,12.82
2838.40,12.68
2866.79,12.53
2895.46,12.37
2924.41,12.22
2953.65,12.07
2983.19,11.96
3013.02,11.87
3043.15,11.80
3073.58,11.74
3104.32,11.68
3135.36,11.60
3166.72,11.48
3198.38,11.33
3230.37,11.14
3262.67,10.89
3295.30,10.62
3328.25,10.32
3361.53,10.00
3395.15,9.70
3429.10,9.39
3463.39,9.09
3498.03,8.79
3533.01,8.48
3568.34,8.16
3604.02,7.80
3640.06,7.43
3676.46,7.04
3713.22,6.66
3750.36,6.32
3787.86,6.02
3825.74,5.82
3864.00,5.74
3902.64,5.74
3941.66,5.86
3981.08,6.09
4020.89,6.39
4061.10,6.75
4101.71,7.21
4142.73,7.72
4184.15,8.27
4226.00,8.87
4268.26,9.43
4310.94,9.95
4354.05,10.34
4397.59,10.61
4441.56,10.76
4485.98,10.78
4530.84,10.66
4576.15,10.47
4621.91,10.19
4668.13,9.83
4714.81,9.42
4761.96,8.98
4809.58,8.54
4857.67,8.14
4906.25,7.78
4955.31,7.54
5004.87,7.41
5054.91,7.37
5105.46,7.46
5156.52,7.62
5208.08,7.83
5260.16,8.09
5312.77,8.33
5365.89,8.55
5419.55,8.74
5473.75,8.86
5528.49,8.96
5583.77,9.02
5639.61,9.02
5696.00,8.97
5752.96,8.87
5810.49,8.70
5868.60,8.49
5927.28,8.23
5986.56,7.91
6046.42,7.55
6106.89,7.14
6167.96,6.69
6229.64,6.21
6291.93,5.74
6354.85,5.30
6418.40,4.93
6482.58,4.60
6547.41,4.30
6612.88,4.03
6679.01,3.79
6745.80,3.57
6813.26,3.42
6881.39,3.35
6950.21,3.33
7019.71,3.40
7089.91,3.51
7160.81,3.64
7232.41,3.79
7304.74,3.97
7377.79,4.19
7451.56,4.46
7526.08,4.87
7601.34,5.39
7677.35,6.03
7754.13,6.85
7831.67,7.73
7909.98,8.65
7989.08,9.51
8068.98,10.20
8149.67,10.74
8231.16,11.05
8313.47,11.14
8396.61,11.11
8480.57,10.98
8565.38,10.80
8651.03,10.61
8737.54,10.42
8824.92,10.27
8913.17,10.14
9002.30,10.04
9092.32,9.98
9183.25,9.97
9275.08,9.99
9367.83,10.08
9461.51,10.23
9556.12,10.41
9651.68,10.61
9748.20,10.76
9845.68,10.86
9944.14,10.89
10043.58,10.76
10144.02,10.55
10245.46,10.25
10347.91,9.85
10451.39,9.43
10555.91,8.99
10661.46,8.55
10768.08,8.14
10875.76,7.77
10984.52,7.44
11094.36,7.20
11205.31,7.03
11317.36,6.95
11430.53,6.99
11544.84,7.06
11660.29,7.16
11776.89,7.16
11894.66,7.02
12013.60,6.73
12133.74,6.15
12255.08,5.39
12377.63,4.52
12501.41,3.59
12626.42,2.79
12752.68,2.14
12880.21,1.72
13009.01,1.49
13139.10,1.28
13270.49,1.04
13403.20,0.56
13537.23,-0.06
13672.60,-0.81
13809.33,-1.64
13947.42,-2.37
14086.90,-3.01
14227.77,-3.44
14370.04,-3.79
14513.74,-4.14
14658.88,-4.58
14805.47,-5.24
14953.52,-6.03
15103.06,-6.95
15254.09,-7.94
15406.63,-8.88
15560.70,-9.74
15716.30,-10.33
15873.47,-10.72
16032.20,-10.92
16192.52,-10.82
16354.45,-10.58
16517.99,-10.25
16683.17,-9.84
16850.01,-9.55
17018.51,-9.41
17188.69,-9.57
17360.58,-10.17
17534.18,-10.98
17709.53,-11.99
17886.62,-12.99
18065.49,-13.92
18246.14,-14.78
18428.60,-15.75
18612.89,-16.88
18799.02,-18.17
18987.01,-19.61
19176.88,-20.93
19368.65,-22.07
19562.33,-22.75
19757.96,-22.95
19955.54,-22.84
