frequency,raw
20.00,11.50
20.20,11.45
20.40,11.40
20.61,11.36
20.81,11.32
21.02,11.27
21.23,11.24
21.44,11.20
21.66,11.16
21.87,11.12
22.09,11.09
22.31,11.06
22.54,11.02
22.76,10.99
22.99,10.95
23.22,10.91
23.45,10.88
23.69,10.84
23.92,10.82
24.16,10.79
24.40,10.76
24.65,10.73
24.89,10.71
25.14,10.69
25.39,10.68
25.65,10.66
25.91,10.65
26.16,10.63
26.43,10.62
26.69,10.60
26.96,10.59
27.23,10.57
27.50,10.54
27.77,10.53
28.05,10.51
28.33,10.48
28.62,10.47
28.90,10.45
29.19,10.42
29.48,10.41
29.78,10.39
30.08,10.37
30.38,10.34
30.68,10.32
30.99,10.29
31.30,10.25
31.61,10.22
31.93,10.18
32.24,10.14
32.57,10.11
32.89,10.07
33.22,10.04
33.55,10.00
33.89,9.96
34.23,9.92
34.57,9.88
34.92,9.83
35.27,9.78
35.62,9.73
35.97,9.68
36.33,9.64
36.70,9.59
37.06,9.56
37.43,9.53
37.81,9.50
38.19,9.48
38.57,9.45
38.95,9.43
39.34,9.41
39.74,9.39
40.14,9.37
40.54,9.35
40.94,9.34
41.35,9.32
41.76,9.31
42.18,9.29
42.60,9.26
43.03,9.24
43.46,9.22
43.90,9.20
44.33,9.16
44.78,9.12
45.23,9.09
45.68,9.05
46.13,9.02
46.60,8.97
47.06,8.93
47.53,8.89
48.01,8.84
48.49,8.80
48.97,8.75
49.46,8.71
49.96,8.66
50.46,8.63
50.96,8.58
51.47,8.53
51.99,8.49
52.51,8.44
53.03,8.39
53.56,8.35
54.10,8.30
54.64,8.23
55.18,8.18
55.74,8.12
56.29,8.05
56.86,7.99
57.42,7.93
58.00,7.88
58.58,7.82
59.16,7.77
59.76,7.72
60.35,7.67
60.96,7.62
61.57,7.58
62.18,7.54
62.80,7.50
63.43,7.47
64.07,7.44
64.71,7.41
65.35,7.38
66.01,7.35
66.67,7.33
67.33,7.31
68.01,7.28
68.69,7.26
69.37,7.23
70.07,7.21
70.77,7.18
71.48,7.16
72.19,7.13
72.91,7.11
73.64,7.08
74.38,7.05
75.12,7.04
75.87,7.01
76.63,6.99
77.40,6.96
78.17,6.94
78.95,6.92
79.74,6.89
80.54,6.86
81.35,6.84
82.16,6.81
82.98,6.79
83.81,6.76
84.65,6.73
85.50,6.70
86.35,6.67
87.22,6.63
88.09,6.58
88.97,6.53
89.86,6.47
90.76,6.42
91.66,6.36
92.58,6.30
93.51,6.24
94.44,6.19
95.39,6.13
96.34,6.07
97.30,6.01
98.28,5.96
99.26,5.91
100.25,5.87
101.25,5.83
102.27,5.79
103.29,5.75
104.32,5.70
105.37,5.66
106.42,5.61
107.48,5.57
108.56,5.52
109.64,5.48
110.74,5.44
111.85,5.40
112.97,5.35
114.10,5.31
115.24,5.28
116.39,5.23
117.55,5.18
118.73,5.13
119.92,5.07
121.12,5.01
122.33,4.94
123.55,4.88
124.79,4.82
126.03,4.75
127.29,4.69
128.57,4.62
129.85,4.57
131.15,4.50
132.46,4.45
133.79,4.40
135.12,4.34
136.48,4.29
137.84,4.24
139.22,4.21
140.61,4.18
142.02,4.15
143.44,4.12
144.87,4.09
146.32,4.05
147.78,4.01
149.26,3.97
150.75,3.93
152.26,3.89
153.78,3.85
155.32,3.82
156.88,3.78
158.44,3.74
160.03,3.72
161.63,3.68
163.24,3.65
164.88,3.63
166.53,3.60
168.19,3.57
169.87,3.54
171.57,3.52
173.29,3.49
175.02,3.47
176.77,3.44
178.54,3.41
180.32,3.39
182.13,3.36
183.95,3.33
185.79,3.31
187.65,3.28
189.52,3.24
191.42,3.21
193.33,3.18
195.27,3.14
197.22,3.10
199.19,3.08
201.18,3.05
203.19,3.02
205.23,3.01
207.28,3.01
209.35,3.02
211.44,3.04
213.56,3.06
215.69,3.09
217.85,3.11
220.03,3.13
222.23,3.14
224.45,3.15
226.70,3.15
228.96,3.15
231.25,3.15
233.57,3.15
235.90,3.15
238.26,3.16
240.64,3.16
243.05,3.17
245.48,3.17
247.93,3.17
250.41,3.18
252.92,3.17
255.45,3.16
258.00,3.16
260.58,3.15
263.19,3.13
265.82,3.11
268.48,3.10
271.16,3.09
273.87,3.07
276.61,3.07
279.38,3.07
282.17,3.08
284.99,3.08
287.84,3.10
290.72,3.11
293.63,3.12
296.57,3.11
299.53,3.09
302.53,3.08
305.55,3.05
308.61,3.04
311.69,3.03
314.81,3.03
317.96,3.02
321.14,3.02
324.35,3.01
327.59,3.01
330.87,3.01
334.18,3.00
337.52,3.01
340.90,3.00
344.30,2.99
347.75,2.98
351.23,2.98
354.74,2.97
358.28,2.94
361.87,2.92
365.49,2.91
369.14,2.89
372.83,2.87
376.56,2.87
380.33,2.85
384.13,2.85
387.97,2.83
391.85,2.82
395.77,2.81
399.73,2.81
403.72,2.80
407.76,2.78
411.84,2.78
415.96,2.79
420.12,2.80
424.32,2.82
428.56,2.83
432.85,2.85
437.18,2.87
441.55,2.88
445.96,2.88
450.42,2.91
454.93,2.93
459.48,2.96
464.07,2.97
468.71,2.99
473.40,3.00
478.13,3.02
482.91,3.02
487.74,3.03
492.62,3.05
497.55,3.06
502.52,3.05
507.55,3.06
512.62,3.07
517.75,3.09
522.93,3.09
528.16,3.11
533.44,3.12
538.77,3.12
544.16,3.13
549.60,3.14
555.10,3.15
560.65,3.16
566.25,3.17
571.92,3.20
577.64,3.22
583.41,3.24
589.25,3.28
595.14,3.31
601.09,3.34
607.10,3.38
613.17,3.41
619.30,3.41
625.50,3.42
631.75,3.41
638.07,3.43
644.45,3.44
650.89,3.46
657.40,3.47
663.98,3.48
670.62,3.48
677.32,3.48
684.10,3.48
690.94,3.47
697.85,3.46
704.83,3.44
711.87,3.41
718.99,3.38
726.18,3.32
733.44,3.28
740.78,3.23
748.19,3.17
755.67,3.12
763.23,3.07
770.86,3.01
778.57,2.95
786.35,2.88
794.22,2.82
802.16,2.74
810.18,2.66
818.28,2.57
826.46,2.47
834.73,2.36
843.08,2.24
851.51,2.12
860.02,1.99
868.62,1.87
877.31,1.73
886.08,1.59
894.94,1.46
903.89,1.32
912.93,1.17
922.06,1.03
931.28,0.88
940.59,0.75
950.00,0.62
959.50,0.48
969.09,0.36
978.78,0.25
988.57,0.14
998.46,0.02
1008.44,-0.10
1018.53,-0.22
1028.71,-0.33
1039.00,-0.43
1049.39,-0.53
1059.88,-0.61
1070.48,-0.67
1081.19,-0.70
1092.00,-0.72
1102.92,-0.70
1113.95,-0.68
1125.09,-0.65
1136.34,-0.62
1147.70,-0.58
1159.18,-0.55
1170.77,-0.52
1182.48,-0.48
1194.30,-0.42
1206.25,-0.37
1218.31,-0.33
1230.49,-0.29
1242.80,-0.23
1255.22,-0.15
1267.78,-0.06
1280.45,0.05
1293.26,0.18
1306.19,0.33
1319.25,0.50
1332.45,0.70
1345.77,0.90
1359.23,1.12
1372.82,1.37
1386.55,1.63
1400.41,1.92
1414.42,2.20
1428.56,2.49
1442.85,2.77
1457.28,3.04
1471.85,3.29
1486.57,3.53
1501.43,3.76
1516.45,3.96
1531.61,4.16
1546.93,4.36
1562.40,4.56
1578.02,4.77
1593.80,4.99
1609.74,5.22
1625.84,5.46
1642.10,5.71
1658.52,5.97
1675.10,6.22
1691.85,6.46
1708.77,6.70
1725.86,6.91
1743.12,7.11
1760.55,7.31
1778.15,7.49
1795.94,7.67
1813.90,7.84
1832.03,7.97
1850.36,8.08
1868.86,8.17
1887.55,8.24
1906.42,8.29
1925.49,8.34
1944.74,8.37
1964.19,8.38
1983.83,8.38
2003.67,8.37
2023.71,8.36
2043.94,8.33
2064.38,8.30
2085.03,8.27
2105.88,8.25
2126.94,8.23
2148.20,8.22
2169.69,8.15
2191.38,8.06
2213.30,7.96
2235.43,7.91
2257.78,7.91
2280.36,7.92
2303.17,7.99
2326.20,8.07
2349.46,8.16
2372.95,8.25
2396.68,8.33
2420.65,8.38
2444.86,8.42
2469.31,8.45
2494.00,8.49
2518.94,8.53
2544.13,8.65
2569.57,8.78
2595.27,8.97
2621.22,9.21
2647.43,9.46
2673.90,9.74
2700.64,10.08
2727.65,10.45
2754.93,10.85
2782.48,11.31
2810.30,11.80
2838.40,12.33
2866.79,12.91
2895.46,13.51
2924.41,14.13
2953.65,14.75
2983.19,15.35
3013.02,15.91
3043.15,16.44
3073.58,16.88
3104.32,17.23
3135.36,17.50
3166.72,17.59
3198.38,17.55
3230.37,17.40
3262.67,17.07
3295.30,16.62
3328.25,16.09
3361.53,15.47
3395.15,14.83
3429.10,14.16
3463.39,13.50
3498.03,12.85
3533.01,12.21
3568.34,11.59
3604.02,10.99
3640.06,10.41
3676.46,9.85
3713.22,9.31
3750.36,8.79
3787.86,8.30
3825.74,7.83
3864.00,7.42
3902.64,7.04
3941.66,6.71
3981.08,6.46
4020.89,6.22
4061.10,6.00
4101.71,5.77
4142.73,5.55
4184.15,5.33
4226.00,5.09
4268.26,4.88
4310.94,4.67
4354.05,4.47
4397.59,4.31
4441.56,4.15
4485.98,4.04
4530.84,3.93
4576.15,3.84
4621.91,3.78
4668.13,3.72
4714.81,3.71
4761.96,3.73
4809.58,3.85
4857.67,4.04
4906.25,4.26
4955.31,4.53
5004.87,4.77
5054.91,4.97
5105.46,5.11
5156.52,5.17
5208.08,5.17
5260.16,5.10
5312.77,4.97
5365.89,4.81
5419.55,4.62
5473.75,4.38
5528.49,4.08
5583.77,3.73
5639.61,3.25
5696.00,2.75
5752.96,2.21
5810.49,1.74
5868.60,1.35
5927.28,1.04
5986.56,0.84
6046.42,0.70
6106.89,0.62
6167.96,0.56
6229.64,0.57
6291.93,0.63
6354.85,0.76
6418.40,0.98
6482.58,1.28
6547.41,1.64
6612.88,2.10
6679.01,2.61
6745.80,3.17
6813.26,3.79
6881.39,4.42
6950.21,5.04
7019.71,5.64
7089.91,6.13
7160.81,6.53
7232.41,6.80
7304.74,6.84
7377.79,6.74
7451.56,6.51
7526.08,6.12
7601.34,5.72
7677.35,5.30
7754.13,4.95
7831.67,4.67
7909.98,4.45
7989.08,4.37
8068.98,4.39
8149.67,4.45
8231.16,4.57
8313.47,4.72
8396.61,4.90
8480.57,5.14
8565.38,5.38
8651.03,5.64
8737.54,5.90
8824.92,6.20
8913.17,6.64
9002.30,7.17
9092.32,7.59
9183.25,7.81
9275.08,7.84
9367.83,7.57
9461.51,7.24
9556.12,6.92
9651.68,6.65
9748.20,6.41
9845.68,6.22
9944.14,6.01
10043.58,5.87
10144.02,5.78
10245.46,5.72
10347.91,5.60
10451.39,5.46
10555.91,5.34
10661.46,5.25
10768.08,5.15
10875.76,5.04
10984.52,4.98
11094.36,5.16
11205.31,5.51
11317.36,6.07
11430.53,6.60
11544.84,6.72
11660.29,6.33
11776.89,7.31
11894.66,8.22
12013.60,9.12
12133.74,10.57
12255.08,11.61
12377.63,12.35
12501.41,12.79
12626.42,12.90
12752.68,12.82
12880.21,12.52
13009.01,12.01
13139.10,11.40
13270.49,10.66
13403.20,9.79
13537.23,8.80
13672.60,7.69
13809.33,6.48
13947.42,5.46
14086.90,4.63
14227.77,4.18
14370.04,4.07
14513.74,4.21
14658.88,4.67
14805.47,5.40
14953.52,6.27
15103.06,7.23
15254.09,8.03
15406.63,8.64
15560.70,9.05
15716.30,9.08
15873.47,8.89
16032.20,8.47
16192.52,7.77
16354.45,7.02
16517.99,6.25
16683.17,5.65
16850.01,5.23
17018.51,4.90
17188.69,4.56
17360.58,4.10
17534.18,3.50
17709.53,2.73
17886.62,2.11
18065.49,1.53
18246.14,1.00
18428.60,0.34
18612.89,-0.55
18799.02,-1.65
18987.01,-3.04
19176.88,-4.72
19368.65,-6.70
19562.33,-9.26
19757.96,-11.98
19955.54,-14.00
