frequency,raw
20.00,1.23
20.20,1.26
20.40,1.30
20.61,1.34
20.81,1.37
21.02,1.41
21.23,1.45
21.44,1.49
21.66,1.52
21.87,1.56
22.09,1.60
22.31,1.64
22.54,1.68
22.76,1.72
22.99,1.77
23.22,1.81
23.45,1.85
23.69,1.89
23.92,1.94
24.16,1.98
24.40,2.02
24.65,2.07
24.89,2.12
25.14,2.16
25.39,2.21
25.65,2.25
25.91,2.30
26.16,2.34
26.43,2.38
26.69,2.42
26.96,2.46
27.23,2.50
27.50,2.54
27.77,2.58
28.05,2.62
28.33,2.66
28.62,2.71
28.90,2.75
29.19,2.79
29.48,2.83
29.78,2.86
30.08,2.90
30.38,2.93
30.68,2.96
30.99,2.99
31.30,3.02
31.61,3.04
31.93,3.07
32.24,3.09
32.57,3.11
32.89,3.12
33.22,3.14
33.55,3.15
33.89,3.17
34.23,3.18
34.57,3.20
34.92,3.21
35.27,3.22
35.62,3.23
35.97,3.24
36.33,3.25
36.70,3.26
37.06,3.26
37.43,3.27
37.81,3.28
38.19,3.28
38.57,3.29
38.95,3.29
39.34,3.30
39.74,3.30
40.14,3.30
40.54,3.31
40.94,3.31
41.35,3.31
41.76,3.31
42.18,3.31
42.60,3.31
43.03,3.31
43.46,3.31
43.90,3.31
44.33,3.30
44.78,3.30
45.23,3.30
45.68,3.30
46.13,3.30
46.60,3.30
47.06,3.30
47.53,3.30
48.01,3.30
48.49,3.30
48.97,3.30
49.46,3.30
49.96,3.30
50.46,3.30
50.96,3.30
51.47,3.30
51.99,3.30
52.51,3.30
53.03,3.31
53.56,3.31
54.10,3.31
54.64,3.31
55.18,3.32
55.74,3.32
56.29,3.32
56.86,3.32
57.42,3.33
58.00,3.33
58.58,3.34
59.16,3.34
59.76,3.35
60.35,3.35
60.96,3.36
61.57,3.36
62.18,3.36
62.80,3.36
63.43,3.37
64.07,3.37
64.71,3.37
65.35,3.37
66.01,3.37
66.67,3.37
67.33,3.36
68.01,3.36
68.69,3.36
69.37,3.35
70.07,3.35
70.77,3.34
71.48,3.34
72.19,3.33
72.91,3.32
73.64,3.31
74.38,3.30
75.12,3.29
75.87,3.28
76.63,3.27
77.40,3.25
78.17,3.24
78.95,3.23
79.74,3.22
80.54,3.20
81.35,3.19
82.16,3.17
82.98,3.16
83.81,3.14
84.65,3.13
85.50,3.11
86.35,3.10
87.22,3.08
88.09,3.06
88.97,3.05
89.86,3.04
90.76,3.02
91.66,3.01
92.58,2.99
93.51,2.97
94.44,2.96
95.39,2.94
96.34,2.92
97.30,2.91
98.28,2.89
99.26,2.87
100.25,2.85
101.25,2.83
102.27,2.81
103.29,2.79
104.32,2.77
105.37,2.75
106.42,2.72
107.48,2.70
108.56,2.67
109.64,2.64
110.74,2.62
111.85,2.59
112.97,2.56
114.10,2.54
115.24,2.51
116.39,2.48
117.55,2.45
118.73,2.43
119.92,2.40
121.12,2.37
122.33,2.34
123.55,2.31
124.79,2.28
126.03,2.25
127.29,2.22
128.57,2.19
129.85,2.16
131.15,2.13
132.46,2.10
133.79,2.07
135.12,2.04
136.48,2.02
137.84,1.99
139.22,1.96
140.61,1.93
142.02,1.91
143.44,1.88
144.87,1.86
146.32,1.83
147.78,1.81
149.26,1.79
150.75,1.76
152.26,1.74
153.78,1.72
155.32,1.70
156.88,1.68
158.44,1.65
160.03,1.63
161.63,1.61
163.24,1.59
164.88,1.57
166.53,1.55
168.19,1.53
169.87,1.52
171.57,1.50
173.29,1.48
175.02,1.46
176.77,1.45
178.54,1.43
180.32,1.42
182.13,1.41
183.95,1.40
185.79,1.39
187.65,1.38
189.52,1.36
191.42,1.35
193.33,1.34
195.27,1.33
197.22,1.32
199.19,1.31
201.18,1.30
203.19,1.29
205.23,1.28
207.28,1.27
209.35,1.26
211.44,1.25
213.56,1.24
215.69,1.23
217.85,1.22
220.03,1.21
222.23,1.20
224.45,1.19
226.70,1.17
228.96,1.16
231.25,1.15
233.57,1.14
235.90,1.12
238.26,1.11
240.64,1.09
243.05,1.08
245.48,1.06
247.93,1.04
250.41,1.03
252.92,1.01
255.45,1.00
258.00,0.99
260.58,0.97
263.19,0.96
265.82,0.95
268.48,0.94
271.16,0.93
273.87,0.91
276.61,0.89
279.38,0.87
282.17,0.84
284.99,0.81
287.84,0.77
290.72,0.72
293.63,0.68
296.57,0.63
299.53,0.57
302.53,0.52
305.55,0.46
308.61,0.40
311.69,0.34
314.81,0.27
317.96,0.20
321.14,0.13
324.35,0.06
327.59,-0.02
330.87,-0.09
334.18,-0.17
337.52,-0.26
340.90,-0.34
344.30,-0.43
347.75,-0.51
351.23,-0.60
354.74,-0.69
358.28,-0.77
361.87,-0.85
365.49,-0.92
369.14,-1.00
372.83,-1.08
376.56,-1.16
380.33,-1.24
384.13,-1.32
387.97,-1.40
391.85,-1.48
395.77,-1.57
399.73,-1.65
403.72,-1.74
407.76,-1.82
411.84,-1.91
415.96,-1.99
420.12,-2.08
424.32,-2.16
428.56,-2.24
432.85,-2.33
437.18,-2.40
441.55,-2.48
445.96,-2.56
450.42,-2.65
454.93,-2.75
459.48,-2.84
464.07,-2.94
468.71,-3.03
473.40,-3.12
478.13,-3.21
482.91,-3.30
487.74,-3.39
492.62,-3.47
497.55,-3.56
502.52,-3.64
507.55,-3.72
512.62,-3.79
517.75,-3.86
522.93,-3.93
528.16,-3.99
533.44,-4.05
538.77,-4.10
544.16,-4.14
549.60,-4.18
555.10,-4.21
560.65,-4.24
566.25,-4.26
571.92,-4.27
577.64,-4.28
583.41,-4.28
589.25,-4.27
595.14,-4.26
601.09,-4.24
607.10,-4.20
613.17,-4.16
619.30,-4.10
625.50,-4.04
631.75,-3.97
638.07,-3.88
644.45,-3.79
650.89,-3.69
657.40,-3.58
663.98,-3.46
670.62,-3.34
677.32,-3.22
684.10,-3.09
690.94,-2.96
697.85,-2.82
704.83,-2.69
711.87,-2.55
718.99,-2.42
726.18,-2.28
733.44,-2.15
740.78,-2.02
748.19,-1.89
755.67,-1.77
763.23,-1.65
770.86,-1.54
778.57,-1.43
786.35,-1.33
794.22,-1.23
802.16,-1.14
810.18,-1.06
818.28,-0.98
826.46,-0.91
834.73,-0.84
843.08,-0.78
851.51,-0.71
860.02,-0.65
868.62,-0.58
877.31,-0.52
886.08,-0.45
894.94,-0.39
903.89,-0.33
912.93,-0.28
922.06,-0.23
931.28,-0.18
940.59,-0.15
950.00,-0.11
959.50,-0.09
969.09,-0.06
978.78,-0.04
988.57,-0.02
998.46,-0.00
1008.44,0.01
1018.53,0.03
1028.71,0.05
1039.00,0.07
1049.39,0.09
1059.88,0.11
1070.48,0.14
1081.19,0.17
1092.00,0.20
1102.92,0.23
1113.95,0.27
1125.09,0.31
1136.34,0.36
1147.70,0.41
1159.18,0.47
1170.77,0.53
1182.48,0.60
1194.30,0.68
1206.25,0.77
1218.31,0.86
1230.49,0.95
1242.80,1.06
1255.22,1.16
1267.78,1.27
1280.45,1.39
1293.26,1.50
1306.19,1.62
1319.25,1.74
1332.45,1.86
1345.77,1.98
1359.23,2.10
1372.82,2.22
1386.55,2.34
1400.41,2.46
1414.42,2.57
1428.56,2.69
1442.85,2.79
1457.28,2.90
1471.85,3.00
1486.57,3.10
1501.43,3.19
1516.45,3.27
1531.61,3.36
1546.93,3.43
1562.40,3.51
1578.02,3.57
1593.80,3.63
1609.74,3.69
1625.84,3.74
1642.10,3.78
1658.52,3.82
1675.10,3.85
1691.85,3.88
1708.77,3.91
1725.86,3.93
1743.12,3.94
1760.55,3.96
1778.15,3.96
1795.94,3.96
1813.90,3.96
1832.03,3.95
1850.36,3.95
1868.86,3.95
1887.55,3.95
1906.42,3.96
1925.49,3.97
1944.74,3.97
1964.19,3.97
1983.83,3.97
2003.67,3.95
2023.71,3.93
2043.94,3.91
2064.38,3.89
2085.03,3.88
2105.88,3.89
2126.94,3.92
2148.20,3.96
2169.69,4.02
2191.38,4.08
2213.30,4.13
2235.43,4.18
2257.78,4.21
2280.36,4.23
2303.17,4.24
2326.20,4.25
2349.46,4.26
2372.95,4.26
2396.68,4.27
2420.65,4.29
2444.86,4.30
2469.31,4.32
2494.00,4.34
2518.94,4.35
2544.13,4.37
2569.57,4.39
2595.27,4.41
2621.22,4.43
2647.43,4.45
2673.90,4.47
2700.64,4.48
2727.65,4.50
2754.93,4.51
2782.48,4.52
2810.30,4.53
2838.40,4.53
2866.79,4.53
2895.46,4.51
2924.41,4.50
2953.65,4.47
2983.19,4.43
3013.02,4.38
3043.15,4.32
3073.58,4.23
3104.32,4.13
3135.36,4.02
3166.72,3.87
3198.38,3.71
3230.37,3.54
3262.67,3.34
3295.30,3.13
3328.25,2.90
3361.53,2.67
3395.15,2.43
3429.10,2.20
3463.39,1.97
3498.03,1.75
3533.01,1.53
3568.34,1.32
3604.02,1.11
3640.06,0.90
3676.46,0.69
3713.22,0.48
3750.36,0.27
3787.86,0.08
3825.74,-0.09
3864.00,-0.26
3902.64,-0.42
3941.66,-0.60
3981.08,-0.79
4020.89,-1.01
4061.10,-1.24
4101.71,-1.49
4142.73,-1.74
4184.15,-1.99
4226.00,-2.23
4268.26,-2.47
4310.94,-2.73
4354.05,-3.01
4397.59,-3.33
4441.56,-3.69
4485.98,-4.08
4530.84,-4.49
4576.15,-4.88
4621.91,-5.24
4668.13,-5.51
4714.81,-5.72
4761.96,-5.87
4809.58,-5.95
4857.67,-6.01
4906.25,-6.06
4955.31,-6.11
5004.87,-6.14
5054.91,-6.17
5105.46,-6.17
5156.52,-6.14
5208.08,-6.08
5260.16,-5.98
5312.77,-5.86
5365.89,-5.73
5419.55,-5.58
5473.75,-5.43
5528.49,-5.27
5583.77,-5.10
5639.61,-4.91
5696.00,-4.70
5752.96,-4.48
5810.49,-4.21
5868.60,-3.91
5927.28,-3.56
5986.56,-3.15
6046.42,-2.67
6106.89,-2.15
6167.96,-1.57
6229.64,-0.94
6291.93,-0.29
6354.85,0.38
6418.40,1.04
6482.58,1.67
6547.41,2.26
6612.88,2.72
6679.01,3.05
6745.80,3.27
6813.26,3.28
6881.39,3.14
6950.21,2.91
7019.71,2.56
7089.91,2.17
7160.81,1.78
7232.41,1.39
7304.74,1.06
7377.79,0.78
7451.56,0.54
7526.08,0.41
7601.34,0.32
7677.35,0.29
7754.13,0.35
7831.67,0.48
7909.98,0.67
7989.08,0.97
8068.98,1.38
8149.67,1.86
8231.16,2.43
8313.47,3.08
8396.61,3.77
8480.57,4.48
8565.38,5.16
8651.03,5.75
8737.54,6.24
8824.92,6.41
8913.17,6.31
9002.30,5.96
9092.32,5.19
9183.25,4.19
9275.08,3.04
9367.83,1.78
9461.51,0.57
9556.12,-0.57
9651.68,-1.58
9748.20,-2.40
9845.68,-3.13
9944.14,-3.75
10043.58,-4.25
10144.02,-4.69
10245.46,-5.08
10347.91,-5.37
10451.39,-5.64
10555.91,-5.88
10661.46,-6.11
10768.08,-6.36
10875.76,-6.59
10984.52,-6.79
11094.36,-6.87
11205.31,-6.82
11317.36,-6.59
11430.53,-6.09
11544.84,-5.48
11660.29,-4.76
11776.89,-4.11
11894.66,-3.62
12013.60,-3.31
12133.74,-3.41
12255.08,-3.74
12377.63,-4.24
12501.41,-4.87
12626.42,-5.42
12752.68,-5.87
12880.21,-6.13
13009.01,-6.15
13139.10,-6.02
13270.49,-5.75
13403.20,-5.34
13537.23,-4.87
13672.60,-4.35
13809.33,-3.78
13947.42,-3.18
14086.90,-2.55
14227.77,-1.86
14370.04,-1.13
14513.74,-0.41
14658.88,0.25
14805.47,0.66
14953.52,0.79
15103.06,0.49
15254.09,-0.47
15406.63,-1.79
15560.70,-3.46
15716.30,-5.34
15873.47,-7.11
16032.20,-8.72
16192.52,-9.80
16354.45,-10.46
16517.99,-10.78
16683.17,-10.65
16850.01,-10.42
17018.51,-10.23
17188.69,-10.28
17360.58,-10.81
17534.18,-11.63
17709.53,-12.77
17886.62,-13.97
18065.49,-14.97
18246.14,-15.75
18428.60,-15.90
18612.89,-15.76
18799.02,-15.36
18987.01,-14.69
19176.88,-14.01
19368.65,-13.37
19562.33,-12.94
19757.96,-12.87
19955.54,-13.10
