frequency,raw
20.00,8.17
20.20,8.14
20.40,8.11
20.61,8.08
20.81,8.06
21.02,8.02
21.23,8.00
21.44,7.97
21.66,7.94
21.87,7.91
22.09,7.89
22.31,7.86
22.54,7.83
22.76,7.81
22.99,7.79
23.22,7.76
23.45,7.74
23.69,7.71
23.92,7.69
24.16,7.67
24.40,7.63
24.65,7.60
24.89,7.58
25.14,7.55
25.39,7.53
25.65,7.50
25.91,7.48
26.16,7.45
26.43,7.43
26.69,7.41
26.96,7.38
27.23,7.36
27.50,7.32
27.77,7.30
28.05,7.28
28.33,7.25
28.62,7.24
28.90,7.21
29.19,7.18
29.48,7.17
29.78,7.14
30.08,7.12
30.38,7.09
30.68,7.06
30.99,7.04
31.30,7.00
31.61,6.98
31.93,6.94
32.24,6.91
32.57,6.88
32.89,6.85
33.22,6.82
33.55,6.79
33.89,6.76
34.23,6.72
34.57,6.70
34.92,6.66
35.27,6.63
35.62,6.60
35.97,6.56
36.33,6.54
36.70,6.50
37.06,6.47
37.43,6.44
37.81,6.40
38.19,6.37
38.57,6.33
38.95,6.30
39.34,6.26
39.74,6.23
40.14,6.19
40.54,6.15
40.94,6.12
41.35,6.08
41.76,6.05
42.18,6.01
42.60,5.97
43.03,5.93
43.46,5.89
43.90,5.86
44.33,5.82
44.78,5.78
45.23,5.75
45.68,5.71
46.13,5.69
46.60,5.65
47.06,5.62
47.53,5.59
48.01,5.56
48.49,5.52
48.97,5.49
49.46,5.46
49.96,5.43
50.46,5.41
50.96,5.38
51.47,5.35
51.99,5.32
52.51,5.30
53.03,5.27
53.56,5.24
54.10,5.22
54.64,5.18
55.18,5.16
55.74,5.13
56.29,5.09
56.86,5.07
57.42,5.04
58.00,5.00
58.58,4.97
59.16,4.94
59.76,4.89
60.35,4.86
60.96,4.82
61.57,4.78
62.18,4.74
62.80,4.70
63.43,4.65
64.07,4.60
64.71,4.56
65.35,4.51
66.01,4.46
66.67,4.41
67.33,4.36
68.01,4.30
68.69,4.25
69.37,4.19
70.07,4.14
70.77,4.08
71.48,4.03
72.19,3.96
72.91,3.91
73.64,3.85
74.38,3.78
75.12,3.73
75.87,3.67
76.63,3.61
77.40,3.55
78.17,3.50
78.95,3.44
79.74,3.39
80.54,3.33
81.35,3.29
82.16,3.24
82.98,3.20
83.81,3.16
84.65,3.11
85.50,3.08
86.35,3.05
87.22,3.02
88.09,3.00
88.97,2.98
89.86,2.96
90.76,2.95
91.66,2.94
92.58,2.93
93.51,2.93
94.44,2.94
95.39,2.94
96.34,2.95
97.30,2.95
98.28,2.97
99.26,2.98
100.25,2.99
101.25,3.00
102.27,3.01
103.29,3.02
104.32,3.03
105.37,3.04
106.42,3.03
107.48,3.04
108.56,3.04
109.64,3.04
110.74,3.04
111.85,3.03
112.97,3.02
114.10,3.00
115.24,2.99
116.39,2.97
117.55,2.94
118.73,2.91
119.92,2.88
121.12,2.84
122.33,2.80
123.55,2.75
124.79,2.70
126.03,2.65
127.29,2.60
128.57,2.54
129.85,2.48
131.15,2.42
132.46,2.35
133.79,2.28
135.12,2.21
136.48,2.13
137.84,2.05
139.22,1.98
140.61,1.89
142.02,1.81
143.44,1.73
144.87,1.64
146.32,1.56
147.78,1.47
149.26,1.38
150.75,1.28
152.26,1.19
153.78,1.10
155.32,1.00
156.88,0.90
158.44,0.80
160.03,0.71
161.63,0.61
163.24,0.51
164.88,0.42
166.53,0.32
168.19,0.21
169.87,0.11
171.57,0.01
173.29,-0.10
175.02,-0.20
176.77,-0.31
178.54,-0.41
180.32,-0.52
182.13,-0.63
183.95,-0.74
185.79,-0.84
187.65,-0.95
189.52,-1.07
191.42,-1.17
193.33,-1.27
195.27,-1.38
197.22,-1.50
199.19,-1.60
201.18,-1.70
203.19,-1.82
205.23,-1.92
207.28,-2.02
209.35,-2.13
211.44,-2.23
213.56,-2.33
215.69,-2.43
217.85,-2.53
220.03,-2.62
222.23,-2.71
224.45,-2.81
226.70,-2.90
228.96,-2.99
231.25,-3.09
233.57,-3.18
235.90,-3.27
238.26,-3.37
240.64,-3.47
243.05,-3.57
245.48,-3.68
247.93,-3.78
250.41,-3.88
252.92,-3.97
255.45,-4.07
258.00,-4.15
260.58,-4.22
263.19,-4.29
265.82,-4.34
268.48,-4.40
271.16,-4.44
273.87,-4.50
276.61,-4.54
279.38,-4.58
282.17,-4.62
284.99,-4.66
287.84,-4.69
290.72,-4.71
293.63,-4.74
296.57,-4.76
299.53,-4.78
302.53,-4.80
305.55,-4.81
308.61,-4.81
311.69,-4.82
314.81,-4.82
317.96,-4.82
321.14,-4.81
324.35,-4.80
327.59,-4.79
330.87,-4.78
334.18,-4.77
337.52,-4.75
340.90,-4.73
344.30,-4.72
347.75,-4.71
351.23,-4.69
354.74,-4.68
358.28,-4.68
361.87,-4.68
365.49,-4.68
369.14,-4.67
372.83,-4.65
376.56,-4.63
380.33,-4.62
384.13,-4.59
387.97,-4.57
391.85,-4.54
395.77,-4.51
399.73,-4.47
403.72,-4.45
407.76,-4.42
411.84,-4.39
415.96,-4.35
420.12,-4.32
424.32,-4.29
428.56,-4.26
432.85,-4.23
437.18,-4.20
441.55,-4.16
445.96,-4.14
450.42,-4.12
454.93,-4.12
459.48,-4.11
464.07,-4.11
468.71,-4.11
473.40,-4.11
478.13,-4.11
482.91,-4.12
487.74,-4.13
492.62,-4.13
497.55,-4.13
502.52,-4.15
507.55,-4.15
512.62,-4.15
517.75,-4.15
522.93,-4.15
528.16,-4.14
533.44,-4.13
538.77,-4.12
544.16,-4.10
549.60,-4.08
555.10,-4.06
560.65,-4.04
566.25,-4.02
571.92,-3.98
577.64,-3.97
583.41,-3.94
589.25,-3.91
595.14,-3.89
601.09,-3.87
607.10,-3.84
613.17,-3.82
619.30,-3.80
625.50,-3.77
631.75,-3.76
638.07,-3.73
644.45,-3.71
650.89,-3.69
657.40,-3.66
663.98,-3.62
670.62,-3.58
677.32,-3.53
684.10,-3.48
690.94,-3.41
697.85,-3.34
704.83,-3.26
711.87,-3.18
718.99,-3.10
726.18,-3.03
733.44,-2.95
740.78,-2.87
748.19,-2.79
755.67,-2.70
763.23,-2.62
770.86,-2.54
778.57,-2.46
786.35,-2.37
794.22,-2.28
802.16,-2.20
810.18,-2.12
818.28,-2.03
826.46,-1.94
834.73,-1.86
843.08,-1.77
851.51,-1.67
860.02,-1.59
868.62,-1.49
877.31,-1.40
886.08,-1.31
894.94,-1.21
903.89,-1.11
912.93,-1.01
922.06,-0.90
931.28,-0.80
940.59,-0.69
950.00,-0.58
959.50,-0.47
969.09,-0.36
978.78,-0.24
988.57,-0.13
998.46,-0.02
1008.44,0.09
1018.53,0.20
1028.71,0.30
1039.00,0.41
1049.39,0.51
1059.88,0.60
1070.48,0.68
1081.19,0.76
1092.00,0.83
1102.92,0.89
1113.95,0.93
1125.09,0.97
1136.34,0.99
1147.70,1.00
1159.18,1.00
1170.77,1.00
1182.48,0.98
1194.30,0.96
1206.25,0.92
1218.31,0.87
1230.49,0.81
1242.80,0.75
1255.22,0.69
1267.78,0.63
1280.45,0.57
1293.26,0.53
1306.19,0.50
1319.25,0.49
1332.45,0.53
1345.77,0.58
1359.23,0.66
1372.82,0.78
1386.55,0.92
1400.41,1.08
1414.42,1.23
1428.56,1.37
1442.85,1.50
1457.28,1.62
1471.85,1.69
1486.57,1.74
1501.43,1.76
1516.45,1.75
1531.61,1.72
1546.93,1.68
1562.40,1.61
1578.02,1.54
1593.80,1.46
1609.74,1.38
1625.84,1.30
1642.10,1.21
1658.52,1.12
1675.10,1.06
1691.85,0.99
1708.77,0.95
1725.86,0.91
1743.12,0.88
1760.55,0.86
1778.15,0.85
1795.94,0.85
1813.90,0.86
1832.03,0.86
1850.36,0.88
1868.86,0.88
1887.55,0.89
1906.42,0.90
1925.49,0.92
1944.74,0.93
1964.19,0.94
1983.83,0.95
2003.67,0.97
2023.71,1.00
2043.94,1.02
2064.38,1.04
2085.03,1.07
2105.88,1.10
2126.94,1.14
2148.20,1.18
2169.69,1.24
2191.38,1.31
2213.30,1.38
2235.43,1.46
2257.78,1.56
2280.36,1.64
2303.17,1.73
2326.20,1.84
2349.46,1.93
2372.95,2.04
2396.68,2.15
2420.65,2.26
2444.86,2.38
2469.31,2.52
2494.00,2.68
2518.94,2.84
2544.13,3.02
2569.57,3.17
2595.27,3.32
2621.22,3.42
2647.43,3.47
2673.90,3.49
2700.64,3.43
2727.65,3.33
2754.93,3.20
2782.48,3.02
2810.30,2.82
2838.40,2.63
2866.79,2.45
2895.46,2.30
2924.41,2.19
2953.65,2.14
2983.19,2.14
3013.02,2.20
3043.15,2.31
3073.58,2.53
3104.32,2.80
3135.36,3.13
3166.72,3.56
3198.38,4.05
3230.37,4.59
3262.67,5.20
3295.30,5.83
3328.25,6.47
3361.53,7.09
3395.15,7.66
3429.10,8.17
3463.39,8.58
3498.03,8.85
3533.01,9.02
3568.34,9.11
3604.02,9.04
3640.06,8.92
3676.46,8.73
3713.22,8.48
3750.36,8.21
3787.86,7.92
3825.74,7.62
3864.00,7.31
3902.64,6.99
3941.66,6.65
3981.08,6.30
4020.89,5.93
4061.10,5.57
4101.71,5.17
4142.73,4.78
4184.15,4.38
4226.00,3.96
4268.26,3.55
4310.94,3.14
4354.05,2.74
4397.59,2.36
4441.56,1.99
4485.98,1.63
4530.84,1.27
4576.15,0.93
4621.91,0.59
4668.13,0.25
4714.81,-0.09
4761.96,-0.42
4809.58,-0.75
4857.67,-1.04
4906.25,-1.33
4955.31,-1.53
5004.87,-1.62
5054.91,-1.65
5105.46,-1.49
5156.52,-1.20
5208.08,-0.82
5260.16,-0.32
5312.77,0.24
5365.89,0.81
5419.55,1.37
5473.75,1.85
5528.49,2.25
5583.77,2.58
5639.61,2.80
5696.00,2.99
5752.96,3.14
5810.49,3.30
5868.60,3.45
5927.28,3.61
5986.56,3.76
6046.42,3.88
6106.89,3.99
6167.96,4.05
6229.64,4.06
6291.93,4.04
6354.85,3.99
6418.40,3.94
6482.58,3.93
6547.41,3.93
6612.88,4.01
6679.01,4.15
6745.80,4.34
6813.26,4.61
6881.39,4.92
6950.21,5.26
7019.71,5.63
7089.91,6.00
7160.81,6.36
7232.41,6.70
7304.74,6.96
7377.79,7.14
7451.56,7.23
7526.08,7.12
7601.34,6.87
7677.35,6.49
7754.13,5.92
7831.67,5.24
7909.98,4.49
7989.08,3.70
8068.98,2.98
8149.67,2.30
8231.16,1.76
8313.47,1.38
8396.61,1.10
8480.57,0.95
8565.38,0.89
8651.03,0.89
8737.54,0.92
8824.92,0.94
8913.17,0.91
9002.30,0.84
9092.32,0.65
9183.25,0.34
9275.08,-0.07
9367.83,-0.61
9461.51,-1.28
9556.12,-2.04
9651.68,-2.90
9748.20,-3.84
9845.68,-4.78
9944.14,-5.76
10043.58,-6.67
10144.02,-7.52
10245.46,-8.31
10347.91,-8.95
10451.39,-9.48
10555.91,-9.87
10661.46,-10.04
10768.08,-9.99
10875.76,-9.80
10984.52,-9.42
11094.36,-8.95
11205.31,-8.46
11317.36,-7.96
11430.53,-7.54
11544.84,-7.17
11660.29,-6.84
11776.89,-6.55
11894.66,-6.29
12013.60,-6.04
12133.74,-5.79
12255.08,-5.52
12377.63,-5.25
12501.41,-4.98
12626.42,-4.79
12752.68,-4.68
12880.21,-4.67
13009.01,-4.79
13139.10,-4.97
13270.49,-5.21
13403.20,-5.47
13537.23,-5.74
13672.60,-6.02
13809.33,-6.32
13947.42,-6.59
14086.90,-6.84
14227.77,-7.01
14370.04,-7.08
14513.74,-7.06
14658.88,-6.95
14805.47,-6.84
14953.52,-6.80
15103.06,-6.89
15254.09,-7.34
15406.63,-8.05
15560.70,-9.07
15716.30,-10.53
15873.47,-12.19
16032.20,-14.02
16192.52,-15.93
16354.45,-17.69
16517.99,-19.29
16683.17,-20.47
16850.01,-21.31
17018.51,-21.90
17188.69,-22.21
17360.58,-22.29
17534.18,-22.25
17709.53,-22.06
17886.62,-21.73
18065.49,-21.35
18246.14,-20.93
18428.60,-20.53
18612.89,-20.14
18799.02,-19.76
18987.01,-19.39
19176.88,-19.00
19368.65,-18.59
19562.33,-18.20
19757.96,-17.79
19955.54,-17.39
