frequency,raw
20.00,5.27
20.20,5.23
20.40,5.20
20.61,5.17
20.81,5.15
21.02,5.14
21.23,5.12
21.44,5.11
21.66,5.10
21.87,5.10
22.09,5.09
22.31,5.09
22.54,5.08
22.76,5.08
22.99,5.07
23.22,5.05
23.45,5.03
23.69,5.00
23.92,4.97
24.16,4.93
24.40,4.88
24.65,4.85
24.89,4.82
25.14,4.80
25.39,4.79
25.65,4.78
25.91,4.78
26.16,4.78
26.43,4.78
26.69,4.77
26.96,4.75
27.23,4.73
27.50,4.71
27.77,4.69
28.05,4.66
28.33,4.64
28.62,4.61
28.90,4.59
29.19,4.55
29.48,4.52
29.78,4.47
30.08,4.43
30.38,4.38
30.68,4.34
30.99,4.29
31.30,4.25
31.61,4.22
31.93,4.18
32.24,4.14
32.57,4.10
32.89,4.06
33.22,4.01
33.55,3.96
33.89,3.91
34.23,3.86
34.57,3.81
34.92,3.76
35.27,3.71
35.62,3.67
35.97,3.62
36.33,3.57
36.70,3.53
37.06,3.48
37.43,3.44
37.81,3.39
38.19,3.35
38.57,3.31
38.95,3.27
39.34,3.23
39.74,3.19
40.14,3.15
40.54,3.11
40.94,3.07
41.35,3.03
41.76,2.99
42.18,2.96
42.60,2.94
43.03,2.92
43.46,2.91
43.90,2.90
44.33,2.89
44.78,2.88
45.23,2.87
45.68,2.85
46.13,2.84
46.60,2.84
47.06,2.83
47.53,2.84
48.01,2.84
48.49,2.84
48.97,2.84
49.46,2.84
49.96,2.85
50.46,2.85
50.96,2.85
51.47,2.86
51.99,2.86
52.51,2.86
53.03,2.87
53.56,2.87
54.10,2.87
54.64,2.87
55.18,2.87
55.74,2.87
56.29,2.86
56.86,2.86
57.42,2.86
58.00,2.85
58.58,2.84
59.16,2.84
59.76,2.83
60.35,2.81
60.96,2.80
61.57,2.78
62.18,2.75
62.80,2.73
63.43,2.70
64.07,2.68
64.71,2.65
65.35,2.62
66.01,2.58
66.67,2.55
67.33,2.52
68.01,2.48
68.69,2.44
69.37,2.40
70.07,2.36
70.77,2.32
71.48,2.27
72.19,2.23
72.91,2.18
73.64,2.13
74.38,2.07
75.12,2.02
75.87,1.97
76.63,1.91
77.40,1.85
78.17,1.79
78.95,1.74
79.74,1.67
80.54,1.61
81.35,1.55
82.16,1.48
82.98,1.42
83.81,1.35
84.65,1.28
85.50,1.22
86.35,1.15
87.22,1.08
88.09,1.00
88.97,0.93
89.86,0.86
90.76,0.78
91.66,0.70
92.58,0.62
93.51,0.54
94.44,0.45
95.39,0.37
96.34,0.28
97.30,0.19
98.28,0.10
99.26,0.01
100.25,-0.09
101.25,-0.18
102.27,-0.27
103.29,-0.37
104.32,-0.47
105.37,-0.57
106.42,-0.66
107.48,-0.76
108.56,-0.85
109.64,-0.95
110.74,-1.04
111.85,-1.13
112.97,-1.22
114.10,-1.30
115.24,-1.39
116.39,-1.47
117.55,-1.56
118.73,-1.64
119.92,-1.73
121.12,-1.82
122.33,-1.90
123.55,-1.99
124.79,-2.08
126.03,-2.17
127.29,-2.26
128.57,-2.34
129.85,-2.43
131.15,-2.52
132.46,-2.61
133.79,-2.70
135.12,-2.80
136.48,-2.89
137.84,-2.99
139.22,-3.08
140.61,-3.18
142.02,-3.29
143.44,-3.39
144.87,-3.50
146.32,-3.61
147.78,-3.72
149.26,-3.83
150.75,-3.95
152.26,-4.06
153.78,-4.17
155.32,-4.28
156.88,-4.38
158.44,-4.48
160.03,-4.58
161.63,-4.66
163.24,-4.74
164.88,-4.81
166.53,-4.87
168.19,-4.92
169.87,-4.97
171.57,-5.00
173.29,-5.01
175.02,-5.02
176.77,-5.02
178.54,-5.02
180.32,-5.02
182.13,-5.02
183.95,-5.05
185.79,-5.09
187.65,-5.14
189.52,-5.22
191.42,-5.31
193.33,-5.40
195.27,-5.50
197.22,-5.59
199.19,-5.68
201.18,-5.77
203.19,-5.85
205.23,-5.93
207.28,-6.02
209.35,-6.11
211.44,-6.22
213.56,-6.33
215.69,-6.45
217.85,-6.57
220.03,-6.69
222.23,-6.80
224.45,-6.90
226.70,-6.99
228.96,-7.07
231.25,-7.14
233.57,-7.22
235.90,-7.29
238.26,-7.37
240.64,-7.44
243.05,-7.52
245.48,-7.58
247.93,-7.64
250.41,-7.68
252.92,-7.70
255.45,-7.69
258.00,-7.68
260.58,-7.64
263.19,-7.60
265.82,-7.55
268.48,-7.51
271.16,-7.47
273.87,-7.43
276.61,-7.40
279.38,-7.36
282.17,-7.33
284.99,-7.29
287.84,-7.25
290.72,-7.21
293.63,-7.16
296.57,-7.11
299.53,-7.06
302.53,-7.00
305.55,-6.95
308.61,-6.90
311.69,-6.84
314.81,-6.79
317.96,-6.74
321.14,-6.69
324.35,-6.64
327.59,-6.58
330.87,-6.53
334.18,-6.48
337.52,-6.43
340.90,-6.38
344.30,-6.32
347.75,-6.27
351.23,-6.22
354.74,-6.16
358.28,-6.09
361.87,-6.02
365.49,-5.95
369.14,-5.87
372.83,-5.80
376.56,-5.72
380.33,-5.64
384.13,-5.57
387.97,-5.49
391.85,-5.41
395.77,-5.34
399.73,-5.26
403.72,-5.19
407.76,-5.12
411.84,-5.05
415.96,-4.99
420.12,-4.93
424.32,-4.87
428.56,-4.81
432.85,-4.76
437.18,-4.70
441.55,-4.63
445.96,-4.56
450.42,-4.49
454.93,-4.39
459.48,-4.28
464.07,-4.13
468.71,-3.96
473.40,-3.77
478.13,-3.56
482.91,-3.35
487.74,-3.14
492.62,-2.93
497.55,-2.74
502.52,-2.55
507.55,-2.38
512.62,-2.23
517.75,-2.09
522.93,-1.96
528.16,-1.86
533.44,-1.76
538.77,-1.67
544.16,-1.60
549.60,-1.53
555.10,-1.46
560.65,-1.40
566.25,-1.35
571.92,-1.29
577.64,-1.24
583.41,-1.19
589.25,-1.14
595.14,-1.09
601.09,-1.05
607.10,-1.00
613.17,-0.96
619.30,-0.92
625.50,-0.88
631.75,-0.84
638.07,-0.80
644.45,-0.76
650.89,-0.73
657.40,-0.69
663.98,-0.66
670.62,-0.63
677.32,-0.60
684.10,-0.57
690.94,-0.54
697.85,-0.51
704.83,-0.48
711.87,-0.46
718.99,-0.43
726.18,-0.41
733.44,-0.38
740.78,-0.36
748.19,-0.33
755.67,-0.31
763.23,-0.29
770.86,-0.26
778.57,-0.24
786.35,-0.21
794.22,-0.19
802.16,-0.17
810.18,-0.15
818.28,-0.13
826.46,-0.11
834.73,-0.09
843.08,-0.07
851.51,-0.05
860.02,-0.04
868.62,-0.02
877.31,-0.01
886.08,0.00
894.94,0.01
903.89,0.02
912.93,0.02
922.06,0.03
931.28,0.03
940.59,0.03
950.00,0.03
959.50,0.03
969.09,0.03
978.78,0.02
988.57,0.01
998.46,0.00
1008.44,-0.01
1018.53,-0.02
1028.71,-0.03
1039.00,-0.05
1049.39,-0.06
1059.88,-0.08
1070.48,-0.09
1081.19,-0.11
1092.00,-0.12
1102.92,-0.14
1113.95,-0.16
1125.09,-0.18
1136.34,-0.19
1147.70,-0.21
1159.18,-0.24
1170.77,-0.26
1182.48,-0.28
1194.30,-0.30
1206.25,-0.32
1218.31,-0.33
1230.49,-0.34
1242.80,-0.33
1255.22,-0.32
1267.78,-0.31
1280.45,-0.29
1293.26,-0.28
1306.19,-0.27
1319.25,-0.26
1332.45,-0.25
1345.77,-0.24
1359.23,-0.22
1372.82,-0.19
1386.55,-0.14
1400.41,-0.09
1414.42,-0.01
1428.56,0.08
1442.85,0.17
1457.28,0.28
1471.85,0.38
1486.57,0.47
1501.43,0.57
1516.45,0.64
1531.61,0.70
1546.93,0.75
1562.40,0.78
1578.02,0.80
1593.80,0.82
1609.74,0.83
1625.84,0.84
1642.10,0.84
1658.52,0.84
1675.10,0.85
1691.85,0.85
1708.77,0.86
1725.86,0.86
1743.12,0.87
1760.55,0.88
1778.15,0.89
1795.94,0.91
1813.90,0.92
1832.03,0.94
1850.36,0.96
1868.86,0.99
1887.55,1.01
1906.42,1.04
1925.49,1.06
1944.74,1.09
1964.19,1.11
1983.83,1.13
2003.67,1.16
2023.71,1.19
2043.94,1.23
2064.38,1.29
2085.03,1.38
2105.88,1.49
2126.94,1.60
2148.20,1.74
2169.69,1.88
2191.38,2.04
2213.30,2.19
2235.43,2.35
2257.78,2.52
2280.36,2.69
2303.17,2.86
2326.20,3.05
2349.46,3.23
2372.95,3.43
2396.68,3.63
2420.65,3.83
2444.86,4.04
2469.31,4.26
2494.00,4.48
2518.94,4.71
2544.13,4.95
2569.57,5.19
2595.27,5.43
2621.22,5.69
2647.43,5.95
2673.90,6.21
2700.64,6.48
2727.65,6.74
2754.93,7.00
2782.48,7.26
2810.30,7.51
2838.40,7.76
2866.79,7.99
2895.46,8.20
2924.41,8.40
2953.65,8.58
2983.19,8.73
3013.02,8.86
3043.15,8.98
3073.58,9.06
3104.32,9.11
3135.36,9.14
3166.72,9.11
3198.38,9.03
3230.37,8.91
3262.67,8.72
3295.30,8.50
3328.25,8.26
3361.53,8.02
3395.15,7.81
3429.10,7.60
3463.39,7.40
3498.03,7.18
3533.01,6.92
3568.34,6.62
3604.02,6.24
3640.06,5.82
3676.46,5.37
3713.22,4.90
3750.36,4.43
3787.86,3.96
3825.74,3.49
3864.00,3.00
3902.64,2.48
3941.66,1.94
3981.08,1.37
4020.89,0.79
4061.10,0.20
4101.71,-0.38
4142.73,-0.95
4184.15,-1.50
4226.00,-2.03
4268.26,-2.55
4310.94,-3.05
4354.05,-3.53
4397.59,-4.02
4441.56,-4.50
4485.98,-5.01
4530.84,-5.54
4576.15,-6.10
4621.91,-6.68
4668.13,-7.25
4714.81,-7.77
4761.96,-8.23
4809.58,-8.48
4857.67,-8.58
4906.25,-8.53
4955.31,-8.30
5004.87,-8.06
5054.91,-7.84
5105.46,-7.71
5156.52,-7.60
5208.08,-7.45
5260.16,-7.18
5312.77,-6.68
5365.89,-6.05
5419.55,-5.29
5473.75,-4.54
5528.49,-3.89
5583.77,-3.34
5639.61,-3.01
5696.00,-2.76
5752.96,-2.58
5810.49,-2.39
5868.60,-2.15
5927.28,-1.85
5986.56,-1.45
6046.42,-1.02
6106.89,-0.58
6167.96,-0.16
6229.64,0.20
6291.93,0.51
6354.85,0.77
6418.40,0.98
6482.58,1.20
6547.41,1.42
6612.88,1.66
6679.01,1.90
6745.80,2.14
6813.26,2.35
6881.39,2.47
6950.21,2.52
7019.71,2.44
7089.91,2.22
7160.81,1.91
7232.41,1.50
7304.74,1.06
7377.79,0.65
7451.56,0.27
7526.08,0.03
7601.34,-0.13
7677.35,-0.23
7754.13,-0.25
7831.67,-0.24
7909.98,-0.22
7989.08,-0.17
8068.98,-0.13
8149.67,-0.07
8231.16,-0.02
8313.47,0.03
8396.61,0.07
8480.57,0.12
8565.38,0.17
8651.03,0.21
8737.54,0.25
8824.92,0.28
8913.17,0.28
9002.30,0.26
9092.32,0.21
9183.25,0.15
9275.08,0.07
9367.83,-0.05
9461.51,-0.21
9556.12,-0.43
9651.68,-0.69
9748.20,-0.96
9845.68,-1.21
9944.14,-1.42
10043.58,-1.52
10144.02,-1.56
10245.46,-1.54
10347.91,-1.46
10451.39,-1.35
10555.91,-1.23
10661.46,-1.10
10768.08,-0.97
10875.76,-0.87
10984.52,-0.80
11094.36,-0.78
11205.31,-0.80
11317.36,-0.86
11430.53,-0.95
11544.84,-1.04
11660.29,-1.14
11776.89,-1.22
11894.66,-1.30
12013.60,-1.40
12133.74,-1.52
12255.08,-1.66
12377.63,-1.83
12501.41,-2.02
12626.42,-2.22
12752.68,-2.41
12880.21,-2.59
13009.01,-2.73
13139.10,-2.85
13270.49,-2.95
13403.20,-3.05
13537.23,-3.16
13672.60,-3.30
13809.33,-3.50
13947.42,-3.76
14086.90,-4.06
14227.77,-4.44
14370.04,-4.85
14513.74,-5.28
14658.88,-5.71
14805.47,-6.08
14953.52,-6.39
15103.06,-6.61
15254.09,-6.77
15406.63,-6.91
15560.70,-7.06
15716.30,-7.23
15873.47,-7.43
16032.20,-7.66
16192.52,-7.93
16354.45,-8.23
16517.99,-8.55
16683.17,-8.91
16850.01,-9.28
17018.51,-9.65
17188.69,-10.02
17360.58,-10.39
17534.18,-10.79
17709.53,-11.21
17886.62,-11.63
18065.49,-12.02
18246.14,-12.36
18428.60,-12.55
18612.89,-12.62
18799.02,-12.59
18987.01,-12.42
19176.88,-12.27
19368.65,-12.16
19562.33,-12.21
19757.96,-12.44
19955.54,-12.76
