frequency,raw
20.00,19.36
20.20,19.45
20.40,19.56
20.61,19.68
20.81,19.82
21.02,19.97
21.23,20.13
21.44,20.30
21.66,20.47
21.87,20.64
22.09,20.79
22.31,20.91
22.54,21.01
22.76,21.08
22.99,21.09
23.22,21.08
23.45,21.03
23.69,20.93
23.92,20.79
24.16,20.63
24.40,20.41
24.65,20.14
24.89,19.85
25.14,19.50
25.39,19.10
25.65,18.68
25.91,18.21
26.16,17.71
26.43,17.18
26.69,16.65
26.96,16.10
27.23,15.56
27.50,15.03
27.77,14.52
28.05,14.04
28.33,13.58
28.62,13.17
28.90,12.80
29.19,12.46
29.48,12.17
29.78,11.94
30.08,11.76
30.38,11.61
30.68,11.53
30.99,11.47
31.30,11.44
31.61,11.44
31.93,11.45
32.24,11.48
32.57,11.51
32.89,11.54
33.22,11.57
33.55,11.59
33.89,11.61
34.23,11.63
34.57,11.63
34.92,11.63
35.27,11.62
35.62,11.60
35.97,11.58
36.33,11.56
36.70,11.53
37.06,11.50
37.43,11.48
37.81,11.45
38.19,11.43
38.57,11.41
38.95,11.39
39.34,11.37
39.74,11.36
40.14,11.34
40.54,11.32
40.94,11.29
41.35,11.26
41.76,11.23
42.18,11.19
42.60,11.14
43.03,11.09
43.46,11.04
43.90,10.98
44.33,10.92
44.78,10.85
45.23,10.78
45.68,10.71
46.13,10.63
46.60,10.56
47.06,10.49
47.53,10.41
48.01,10.34
48.49,10.28
48.97,10.21
49.46,10.15
49.96,10.08
50.46,10.01
50.96,9.94
51.47,9.87
51.99,9.79
52.51,9.70
53.03,9.61
53.56,9.53
54.10,9.44
54.64,9.34
55.18,9.25
55.74,9.16
56.29,9.06
56.86,8.96
57.42,8.86
58.00,8.76
58.58,8.66
59.16,8.55
59.76,8.45
60.35,8.34
60.96,8.23
61.57,8.11
62.18,8.00
62.80,7.88
63.43,7.76
64.07,7.64
64.71,7.52
65.35,7.39
66.01,7.27
66.67,7.15
67.33,7.02
68.01,6.89
68.69,6.76
69.37,6.63
70.07,6.49
70.77,6.34
71.48,6.19
72.19,6.04
72.91,5.87
73.64,5.71
74.38,5.53
75.12,5.35
75.87,5.17
76.63,4.98
77.40,4.78
78.17,4.58
78.95,4.36
79.74,4.14
80.54,3.91
81.35,3.66
82.16,3.41
82.98,3.15
83.81,2.89
84.65,2.61
85.50,2.34
86.35,2.06
87.22,1.77
88.09,1.48
88.97,1.19
89.86,0.89
90.76,0.59
91.66,0.30
92.58,0.01
93.51,-0.26
94.44,-0.52
95.39,-0.76
96.34,-0.98
97.30,-1.17
98.28,-1.34
99.26,-1.48
100.25,-1.58
101.25,-1.66
102.27,-1.70
103.29,-1.71
104.32,-1.69
105.37,-1.65
106.42,-1.60
107.48,-1.52
108.56,-1.45
109.64,-1.36
110.74,-1.26
111.85,-1.17
112.97,-1.07
114.10,-0.98
115.24,-0.89
116.39,-0.80
117.55,-0.73
118.73,-0.66
119.92,-0.60
121.12,-0.56
122.33,-0.52
123.55,-0.49
124.79,-0.47
126.03,-0.46
127.29,-0.46
128.57,-0.47
129.85,-0.49
131.15,-0.52
132.46,-0.56
133.79,-0.61
135.12,-0.68
136.48,-0.74
137.84,-0.82
139.22,-0.90
140.61,-0.99
142.02,-1.09
143.44,-1.19
144.87,-1.30
146.32,-1.42
147.78,-1.55
149.26,-1.68
150.75,-1.82
152.26,-1.97
153.78,-2.13
155.32,-2.29
156.88,-2.45
158.44,-2.62
160.03,-2.79
161.63,-2.97
163.24,-3.15
164.88,-3.33
166.53,-3.51
168.19,-3.69
169.87,-3.86
171.57,-4.04
173.29,-4.21
175.02,-4.38
176.77,-4.54
178.54,-4.69
180.32,-4.83
182.13,-4.96
183.95,-5.07
185.79,-5.17
187.65,-5.25
189.52,-5.32
191.42,-5.37
193.33,-5.40
195.27,-5.42
197.22,-5.43
199.19,-5.42
201.18,-5.40
203.19,-5.37
205.23,-5.33
207.28,-5.28
209.35,-5.21
211.44,-5.15
213.56,-5.07
215.69,-5.00
217.85,-4.92
220.03,-4.83
222.23,-4.75
224.45,-4.67
226.70,-4.58
228.96,-4.50
231.25,-4.42
233.57,-4.34
235.90,-4.26
238.26,-4.18
240.64,-4.11
243.05,-4.04
245.48,-3.97
247.93,-3.91
250.41,-3.84
252.92,-3.78
255.45,-3.73
258.00,-3.67
260.58,-3.62
263.19,-3.57
265.82,-3.52
268.48,-3.47
271.16,-3.43
273.87,-3.39
276.61,-3.35
279.38,-3.31
282.17,-3.27
284.99,-3.24
287.84,-3.21
290.72,-3.19
293.63,-3.17
296.57,-3.16
299.53,-3.16
302.53,-3.16
305.55,-3.17
308.61,-3.18
311.69,-3.20
314.81,-3.22
317.96,-3.25
321.14,-3.28
324.35,-3.31
327.59,-3.34
330.87,-3.36
334.18,-3.39
337.52,-3.42
340.90,-3.44
344.30,-3.46
347.75,-3.48
351.23,-3.50
354.74,-3.51
358.28,-3.51
361.87,-3.51
365.49,-3.50
369.14,-3.50
372.83,-3.49
376.56,-3.49
380.33,-3.48
384.13,-3.48
387.97,-3.47
391.85,-3.46
395.77,-3.46
399.73,-3.47
403.72,-3.48
407.76,-3.50
411.84,-3.52
415.96,-3.55
420.12,-3.57
424.32,-3.59
428.56,-3.60
432.85,-3.60
437.18,-3.58
441.55,-3.57
445.96,-3.55
450.42,-3.57
454.93,-3.58
459.48,-3.59
464.07,-3.58
468.71,-3.55
473.40,-3.51
478.13,-3.45
482.91,-3.38
487.74,-3.30
492.62,-3.22
497.55,-3.14
502.52,-3.06
507.55,-2.99
512.62,-2.92
517.75,-2.85
522.93,-2.79
528.16,-2.73
533.44,-2.68
538.77,-2.62
544.16,-2.57
549.60,-2.52
555.10,-2.47
560.65,-2.42
566.25,-2.38
571.92,-2.33
577.64,-2.29
583.41,-2.25
589.25,-2.20
595.14,-2.16
601.09,-2.11
607.10,-2.07
613.17,-2.02
619.30,-1.97
625.50,-1.92
631.75,-1.87
638.07,-1.82
644.45,-1.76
650.89,-1.70
657.40,-1.65
663.98,-1.59
670.62,-1.52
677.32,-1.46
684.10,-1.39
690.94,-1.33
697.85,-1.27
704.83,-1.21
711.87,-1.15
718.99,-1.09
726.18,-1.03
733.44,-0.98
740.78,-0.92
748.19,-0.86
755.67,-0.81
763.23,-0.76
770.86,-0.71
778.57,-0.68
786.35,-0.66
794.22,-0.65
802.16,-0.66
810.18,-0.68
818.28,-0.70
826.46,-0.74
834.73,-0.77
843.08,-0.81
851.51,-0.83
860.02,-0.84
868.62,-0.84
877.31,-0.82
886.08,-0.78
894.94,-0.73
903.89,-0.67
912.93,-0.60
922.06,-0.53
931.28,-0.45
940.59,-0.38
950.00,-0.31
959.50,-0.24
969.09,-0.18
978.78,-0.12
988.57,-0.06
998.46,-0.01
1008.44,0.04
1018.53,0.09
1028.71,0.13
1039.00,0.17
1049.39,0.22
1059.88,0.26
1070.48,0.30
1081.19,0.34
1092.00,0.38
1102.92,0.41
1113.95,0.44
1125.09,0.47
1136.34,0.50
1147.70,0.53
1159.18,0.56
1170.77,0.59
1182.48,0.62
1194.30,0.65
1206.25,0.68
1218.31,0.71
1230.49,0.75
1242.80,0.78
1255.22,0.82
1267.78,0.86
1280.45,0.90
1293.26,0.94
1306.19,0.99
1319.25,1.04
1332.45,1.10
1345.77,1.17
1359.23,1.24
1372.82,1.32
1386.55,1.41
1400.41,1.50
1414.42,1.59
1428.56,1.67
1442.85,1.74
1457.28,1.80
1471.85,1.84
1486.57,1.86
1501.43,1.87
1516.45,1.85
1531.61,1.81
1546.93,1.75
1562.40,1.68
1578.02,1.60
1593.80,1.54
1609.74,1.50
1625.84,1.53
1642.10,1.60
1658.52,1.73
1675.10,1.93
1691.85,2.16
1708.77,2.42
1725.86,2.70
1743.12,2.98
1760.55,3.26
1778.15,3.53
1795.94,3.80
1813.90,4.05
1832.03,4.29
1850.36,4.53
1868.86,4.75
1887.55,4.97
1906.42,5.18
1925.49,5.38
1944.74,5.58
1964.19,5.77
1983.83,5.96
2003.67,6.15
2023.71,6.32
2043.94,6.49
2064.38,6.66
2085.03,6.81
2105.88,6.96
2126.94,7.10
2148.20,7.24
2169.69,7.37
2191.38,7.49
2213.30,7.62
2235.43,7.74
2257.78,7.87
2280.36,8.00
2303.17,8.13
2326.20,8.26
2349.46,8.40
2372.95,8.53
2396.68,8.66
2420.65,8.79
2444.86,8.93
2469.31,9.06
2494.00,9.19
2518.94,9.31
2544.13,9.44
2569.57,9.55
2595.27,9.66
2621.22,9.75
2647.43,9.83
2673.90,9.91
2700.64,9.97
2727.65,10.02
2754.93,10.06
2782.48,10.09
2810.30,10.10
2838.40,10.11
2866.79,10.10
2895.46,10.08
2924.41,10.05
2953.65,10.02
2983.19,9.97
3013.02,9.92
3043.15,9.86
3073.58,9.79
3104.32,9.71
3135.36,9.63
3166.72,9.55
3198.38,9.47
3230.37,9.39
3262.67,9.33
3295.30,9.28
3328.25,9.25
3361.53,9.24
3395.15,9.24
3429.10,9.27
3463.39,9.31
3498.03,9.38
3533.01,9.45
3568.34,9.54
3604.02,9.64
3640.06,9.75
3676.46,9.86
3713.22,10.00
3750.36,10.15
3787.86,10.30
3825.74,10.46
3864.00,10.60
3902.64,10.73
3941.66,10.82
3981.08,10.87
4020.89,10.90
4061.10,10.91
4101.71,10.89
4142.73,10.86
4184.15,10.82
4226.00,10.75
4268.26,10.66
4310.94,10.55
4354.05,10.41
4397.59,10.25
4441.56,10.06
4485.98,9.85
4530.84,9.62
4576.15,9.38
4621.91,9.13
4668.13,8.86
4714.81,8.60
4761.96,8.34
4809.58,8.08
4857.67,7.82
4906.25,7.57
4955.31,7.33
5004.87,7.09
5054.91,6.86
5105.46,6.62
5156.52,6.38
5208.08,6.14
5260.16,5.89
5312.77,5.63
5365.89,5.37
5419.55,5.10
5473.75,4.83
5528.49,4.56
5583.77,4.29
5639.61,4.03
5696.00,3.78
5752.96,3.55
5810.49,3.36
5868.60,3.22
5927.28,3.11
5986.56,3.08
6046.42,3.13
6106.89,3.24
6167.96,3.43
6229.64,3.67
6291.93,3.93
6354.85,4.18
6418.40,4.37
6482.58,4.51
6547.41,4.59
6612.88,4.58
6679.01,4.53
6745.80,4.48
6813.26,4.44
6881.39,4.47
6950.21,4.56
7019.71,4.77
7089.91,5.12
7160.81,5.55
7232.41,6.04
7304.74,6.54
7377.79,7.00
7451.56,7.40
7526.08,7.71
7601.34,8.00
7677.35,8.29
7754.13,8.62
7831.67,8.97
7909.98,9.35
7989.08,9.73
8068.98,10.07
8149.67,10.37
8231.16,10.58
8313.47,10.67
8396.61,10.67
8480.57,10.55
8565.38,10.26
8651.03,9.88
8737.54,9.41
8824.92,8.85
8913.17,8.25
9002.30,7.64
9092.32,7.03
9183.25,6.43
9275.08,5.84
9367.83,5.30
9461.51,4.81
9556.12,4.36
9651.68,3.99
9748.20,3.70
9845.68,3.47
9944.14,3.30
10043.58,3.21
10144.02,3.17
10245.46,3.17
10347.91,3.25
10451.39,3.39
10555.91,3.59
10661.46,3.85
10768.08,4.15
10875.76,4.46
10984.52,4.77
11094.36,5.03
11205.31,5.26
11317.36,5.44
11430.53,5.53
11544.84,5.57
11660.29,5.56
11776.89,5.44
11894.66,5.27
12013.60,5.07
12133.74,4.82
12255.08,4.59
12377.63,4.38
12501.41,4.24
12626.42,4.19
12752.68,4.20
12880.21,4.30
13009.01,4.51
13139.10,4.77
13270.49,5.07
13403.20,5.39
13537.23,5.70
13672.60,5.98
13809.33,6.17
13947.42,6.28
14086.90,6.33
14227.77,6.27
14370.04,6.15
14513.74,5.99
14658.88,5.79
14805.47,5.57
14953.52,5.34
15103.06,5.08
15254.09,4.70
15406.63,4.21
15560.70,3.61
15716.30,2.74
15873.47,1.73
16032.20,0.58
16192.52,-0.77
16354.45,-2.15
16517.99,-3.53
16683.17,-4.82
16850.01,-5.92
17018.51,-6.83
17188.69,-7.49
17360.58,-7.90
17534.18,-8.19
17709.53,-8.34
17886.62,-8.44
18065.49,-8.57
18246.14,-8.72
18428.60,-9.02
18612.89,-9.40
18799.02,-9.86
18987.01,-10.40
19176.88,-10.95
19368.65,-11.48
19562.33,-11.91
19757.96,-12.17
19955.54,-12.35
