frequency,raw
20.00,3.27
20.20,3.21
20.40,3.15
20.61,3.10
20.81,3.04
21.02,2.99
21.23,2.94
21.44,2.88
21.66,2.82
21.87,2.76
22.09,2.71
22.31,2.65
22.54,2.59
22.76,2.54
22.99,2.48
23.22,2.42
23.45,2.37
23.69,2.32
23.92,2.26
24.16,2.21
24.40,2.15
24.65,2.10
24.89,2.05
25.14,2.00
25.39,1.95
25.65,1.90
25.91,1.85
26.16,1.80
26.43,1.75
26.69,1.70
26.96,1.65
27.23,1.61
27.50,1.55
27.77,1.51
28.05,1.48
28.33,1.43
28.62,1.40
28.90,1.36
29.19,1.32
29.48,1.30
29.78,1.27
30.08,1.24
30.38,1.20
30.68,1.18
30.99,1.16
31.30,1.13
31.61,1.11
31.93,1.09
32.24,1.07
32.57,1.06
32.89,1.04
33.22,1.03
33.55,1.01
33.89,1.00
34.23,0.99
34.57,0.98
34.92,0.97
35.27,0.97
35.62,0.96
35.97,0.95
36.33,0.95
36.70,0.94
37.06,0.94
37.43,0.94
37.81,0.93
38.19,0.93
38.57,0.93
38.95,0.93
39.34,0.93
39.74,0.92
40.14,0.92
40.54,0.92
40.94,0.93
41.35,0.92
41.76,0.93
42.18,0.93
42.60,0.93
43.03,0.93
43.46,0.93
43.90,0.94
44.33,0.94
44.78,0.94
45.23,0.95
45.68,0.95
46.13,0.96
46.60,0.96
47.06,0.97
47.53,0.98
48.01,0.99
48.49,1.00
48.97,1.01
49.46,1.02
49.96,1.03
50.46,1.06
50.96,1.08
51.47,1.09
51.99,1.11
52.51,1.14
53.03,1.16
53.56,1.19
54.10,1.22
54.64,1.24
55.18,1.27
55.74,1.30
56.29,1.33
56.86,1.36
57.42,1.39
58.00,1.42
58.58,1.45
59.16,1.48
59.76,1.51
60.35,1.54
60.96,1.56
61.57,1.59
62.18,1.62
62.80,1.64
63.43,1.66
64.07,1.67
64.71,1.69
65.35,1.71
66.01,1.72
66.67,1.74
67.33,1.76
68.01,1.76
68.69,1.77
69.37,1.78
70.07,1.79
70.77,1.79
71.48,1.80
72.19,1.79
72.91,1.80
73.64,1.80
74.38,1.79
75.12,1.80
75.87,1.79
76.63,1.78
77.40,1.78
78.17,1.77
78.95,1.77
79.74,1.76
80.54,1.75
81.35,1.75
82.16,1.74
82.98,1.73
83.81,1.71
84.65,1.69
85.50,1.69
86.35,1.67
87.22,1.65
88.09,1.65
88.97,1.63
89.86,1.61
90.76,1.59
91.66,1.57
92.58,1.55
93.51,1.53
94.44,1.52
95.39,1.50
96.34,1.48
97.30,1.46
98.28,1.44
99.26,1.42
100.25,1.40
101.25,1.37
102.27,1.35
103.29,1.33
104.32,1.30
105.37,1.28
106.42,1.25
107.48,1.23
108.56,1.20
109.64,1.18
110.74,1.15
111.85,1.13
112.97,1.10
114.10,1.06
115.24,1.04
116.39,1.01
117.55,0.98
118.73,0.94
119.92,0.91
121.12,0.88
122.33,0.84
123.55,0.81
124.79,0.77
126.03,0.74
127.29,0.70
128.57,0.66
129.85,0.63
131.15,0.59
132.46,0.56
133.79,0.52
135.12,0.48
136.48,0.44
137.84,0.40
139.22,0.36
140.61,0.32
142.02,0.29
143.44,0.25
144.87,0.21
146.32,0.18
147.78,0.13
149.26,0.10
150.75,0.06
152.26,0.02
153.78,-0.02
155.32,-0.06
156.88,-0.10
158.44,-0.14
160.03,-0.17
161.63,-0.22
163.24,-0.26
164.88,-0.29
166.53,-0.33
168.19,-0.37
169.87,-0.42
171.57,-0.45
173.29,-0.49
175.02,-0.52
176.77,-0.56
178.54,-0.59
180.32,-0.63
182.13,-0.67
183.95,-0.70
185.79,-0.73
187.65,-0.76
189.52,-0.80
191.42,-0.82
193.33,-0.85
195.27,-0.88
197.22,-0.92
199.19,-0.94
201.18,-0.97
203.19,-1.01
205.23,-1.04
207.28,-1.06
209.35,-1.09
211.44,-1.11
213.56,-1.13
215.69,-1.16
217.85,-1.18
220.03,-1.19
222.23,-1.21
224.45,-1.22
226.70,-1.24
228.96,-1.25
231.25,-1.26
233.57,-1.27
235.90,-1.27
238.26,-1.27
240.64,-1.28
243.05,-1.27
245.48,-1.27
247.93,-1.26
250.41,-1.24
252.92,-1.22
255.45,-1.21
258.00,-1.18
260.58,-1.15
263.19,-1.12
265.82,-1.08
268.48,-1.03
271.16,-0.97
273.87,-0.92
276.61,-0.85
279.38,-0.76
282.17,-0.67
284.99,-0.58
287.84,-0.50
290.72,-0.44
293.63,-0.41
296.57,-0.45
299.53,-0.55
302.53,-0.70
305.55,-0.91
308.61,-1.14
311.69,-1.40
314.81,-1.65
317.96,-1.88
321.14,-2.06
324.35,-2.21
327.59,-2.29
330.87,-2.34
334.18,-2.36
337.52,-2.35
340.90,-2.33
344.30,-2.31
347.75,-2.29
351.23,-2.26
354.74,-2.25
358.28,-2.24
361.87,-2.22
365.49,-2.21
369.14,-2.20
372.83,-2.19
376.56,-2.17
380.33,-2.16
384.13,-2.14
387.97,-2.13
391.85,-2.12
395.77,-2.10
399.73,-2.08
403.72,-2.07
407.76,-2.05
411.84,-2.03
415.96,-2.00
420.12,-1.98
424.32,-1.96
428.56,-1.93
432.85,-1.91
437.18,-1.88
441.55,-1.84
445.96,-1.81
450.42,-1.79
454.93,-1.77
459.48,-1.74
464.07,-1.72
468.71,-1.70
473.40,-1.68
478.13,-1.66
482.91,-1.64
487.74,-1.62
492.62,-1.59
497.55,-1.57
502.52,-1.55
507.55,-1.53
512.62,-1.51
517.75,-1.48
522.93,-1.46
528.16,-1.43
533.44,-1.40
538.77,-1.39
544.16,-1.36
549.60,-1.33
555.10,-1.31
560.65,-1.28
566.25,-1.25
571.92,-1.22
577.64,-1.20
583.41,-1.17
589.25,-1.14
595.14,-1.12
601.09,-1.09
607.10,-1.06
613.17,-1.03
619.30,-1.00
625.50,-0.97
631.75,-0.94
638.07,-0.91
644.45,-0.88
650.89,-0.84
657.40,-0.81
663.98,-0.78
670.62,-0.75
677.32,-0.71
684.10,-0.68
690.94,-0.64
697.85,-0.61
704.83,-0.57
711.87,-0.53
718.99,-0.50
726.18,-0.47
733.44,-0.43
740.78,-0.40
748.19,-0.37
755.67,-0.32
763.23,-0.29
770.86,-0.26
778.57,-0.22
786.35,-0.19
794.22,-0.15
802.16,-0.12
810.18,-0.09
818.28,-0.04
826.46,-0.01
834.73,0.02
843.08,0.06
851.51,0.10
860.02,0.13
868.62,0.17
877.31,0.21
886.08,0.26
894.94,0.30
903.89,0.35
912.93,0.39
922.06,0.44
931.28,0.46
940.59,0.45
950.00,0.42
959.50,0.35
969.09,0.27
978.78,0.18
988.57,0.09
998.46,0.01
1008.44,-0.04
1018.53,-0.06
1028.71,-0.03
1039.00,0.04
1049.39,0.14
1059.88,0.27
1070.48,0.41
1081.19,0.55
1092.00,0.70
1102.92,0.84
1113.95,0.96
1125.09,1.07
1136.34,1.15
1147.70,1.23
1159.18,1.29
1170.77,1.35
1182.48,1.42
1194.30,1.49
1206.25,1.57
1218.31,1.68
1230.49,1.79
1242.80,1.92
1255.22,2.08
1267.78,2.24
1280.45,2.40
1293.26,2.54
1306.19,2.67
1319.25,2.79
1332.45,2.90
1345.77,2.97
1359.23,3.03
1372.82,3.09
1386.55,3.10
1400.41,3.12
1414.42,3.11
1428.56,3.09
1442.85,3.06
1457.28,3.03
1471.85,2.99
1486.57,2.95
1501.43,2.90
1516.45,2.85
1531.61,2.81
1546.93,2.76
1562.40,2.70
1578.02,2.64
1593.80,2.58
1609.74,2.50
1625.84,2.40
1642.10,2.26
1658.52,2.08
1675.10,1.81
1691.85,1.50
1708.77,1.17
1725.86,0.81
1743.12,0.46
1760.55,0.12
1778.15,-0.17
1795.94,-0.40
1813.90,-0.60
1832.03,-0.75
1850.36,-0.86
1868.86,-0.97
1887.55,-1.08
1906.42,-1.24
1925.49,-1.40
1944.74,-1.59
1964.19,-1.79
1983.83,-1.98
2003.67,-2.16
2023.71,-2.31
2043.94,-2.44
2064.38,-2.56
2085.03,-2.65
2105.88,-2.69
2126.94,-2.70
2148.20,-2.67
2169.69,-2.61
2191.38,-2.52
2213.30,-2.40
2235.43,-2.26
2257.78,-2.09
2280.36,-1.93
2303.17,-1.75
2326.20,-1.56
2349.46,-1.38
2372.95,-1.17
2396.68,-0.95
2420.65,-0.73
2444.86,-0.49
2469.31,-0.23
2494.00,0.05
2518.94,0.33
2544.13,0.64
2569.57,0.93
2595.27,1.23
2621.22,1.52
2647.43,1.80
2673.90,2.06
2700.64,2.31
2727.65,2.54
2754.93,2.76
2782.48,2.97
2810.30,3.17
2838.40,3.36
2866.79,3.57
2895.46,3.76
2924.41,3.95
2953.65,4.14
2983.19,4.31
3013.02,4.48
3043.15,4.64
3073.58,4.78
3104.32,4.91
3135.36,5.02
3166.72,5.13
3198.38,5.23
3230.37,5.32
3262.67,5.39
3295.30,5.44
3328.25,5.48
3361.53,5.50
3395.15,5.51
3429.10,5.50
3463.39,5.47
3498.03,5.42
3533.01,5.36
3568.34,5.28
3604.02,5.18
3640.06,5.06
3676.46,4.91
3713.22,4.72
3750.36,4.51
3787.86,4.27
3825.74,4.00
3864.00,3.71
3902.64,3.40
3941.66,3.05
3981.08,2.69
4020.89,2.30
4061.10,1.90
4101.71,1.48
4142.73,1.06
4184.15,0.63
4226.00,0.19
4268.26,-0.23
4310.94,-0.65
4354.05,-1.03
4397.59,-1.37
4441.56,-1.67
4485.98,-1.93
4530.84,-2.17
4576.15,-2.38
4621.91,-2.57
4668.13,-2.77
4714.81,-2.97
4761.96,-3.18
4809.58,-3.42
4857.67,-3.67
4906.25,-3.94
4955.31,-4.20
5004.87,-4.43
5054.91,-4.67
5105.46,-4.85
5156.52,-5.01
5208.08,-5.15
5260.16,-5.25
5312.77,-5.32
5365.89,-5.37
5419.55,-5.39
5473.75,-5.38
5528.49,-5.33
5583.77,-5.27
5639.61,-5.13
5696.00,-4.95
5752.96,-4.73
5810.49,-4.42
5868.60,-4.05
5927.28,-3.64
5986.56,-3.17
6046.42,-2.66
6106.89,-2.13
6167.96,-1.58
6229.64,-1.03
6291.93,-0.51
6354.85,-0.01
6418.40,0.39
6482.58,0.74
6547.41,1.02
6612.88,1.17
6679.01,1.25
6745.80,1.28
6813.26,1.24
6881.39,1.15
6950.21,1.03
7019.71,0.90
7089.91,0.76
7160.81,0.62
7232.41,0.46
7304.74,0.26
7377.79,0.03
7451.56,-0.21
7526.08,-0.47
7601.34,-0.74
7677.35,-1.03
7754.13,-1.29
7831.67,-1.53
7909.98,-1.76
7989.08,-1.96
8068.98,-2.10
8149.67,-2.22
8231.16,-2.27
8313.47,-2.25
8396.61,-2.16
8480.57,-1.98
8565.38,-1.72
8651.03,-1.43
8737.54,-1.14
8824.92,-0.97
8913.17,-0.92
9002.30,-1.01
9092.32,-1.36
9183.25,-1.91
9275.08,-2.59
9367.83,-3.43
9461.51,-4.33
9556.12,-5.22
9651.68,-6.07
9748.20,-6.81
9845.68,-7.45
9944.14,-8.01
10043.58,-8.46
10144.02,-8.84
10245.46,-9.18
10347.91,-9.46
10451.39,-9.70
10555.91,-9.90
10661.46,-10.04
10768.08,-10.11
10875.76,-10.13
10984.52,-10.06
11094.36,-9.92
11205.31,-9.70
11317.36,-9.40
11430.53,-9.02
11544.84,-8.61
11660.29,-8.17
11776.89,-7.72
11894.66,-7.32
12013.60,-6.98
12133.74,-6.83
12255.08,-6.85
12377.63,-7.02
12501.41,-7.42
12626.42,-8.00
12752.68,-8.68
12880.21,-9.45
13009.01,-10.26
13139.10,-11.09
13270.49,-11.97
13403.20,-12.77
13537.23,-13.48
13672.60,-14.08
13809.33,-14.45
13947.42,-14.69
14086.90,-14.80
14227.77,-14.78
14370.04,-14.73
14513.74,-14.70
14658.88,-14.78
14805.47,-15.03
14953.52,-15.43
15103.06,-16.05
15254.09,-16.87
15406.63,-17.73
15560.70,-18.62
15716.30,-19.41
15873.47,-20.11
16032.20,-20.70
16192.52,-21.17
16354.45,-21.58
16517.99,-21.93
16683.17,-22.16
16850.01,-22.37
17018.51,-22.53
17188.69,-22.62
17360.58,-22.65
17534.18,-22.65
17709.53,-22.59
17886.62,-22.48
18065.49,-22.33
18246.14,-22.11
18428.60,-21.86
18612.89,-21.53
18799.02,-21.13
18987.01,-20.56
19176.88,-19.93
19368.65,-19.28
19562.33,-18.68
19757.96,-18.16
19955.54,-17.73
