frequency,raw
20.00,-7.47
20.20,-7.37
20.40,-7.26
20.61,-7.15
20.81,-7.03
21.02,-6.92
21.23,-6.81
21.44,-6.70
21.66,-6.60
21.87,-6.50
22.09,-6.40
22.31,-6.30
22.54,-6.18
22.76,-6.06
22.99,-5.91
23.22,-5.75
23.45,-5.58
23.69,-5.40
23.92,-5.24
24.16,-5.08
24.40,-4.94
24.65,-4.82
24.89,-4.71
25.14,-4.61
25.39,-4.51
25.65,-4.41
25.91,-4.29
26.16,-4.17
26.43,-4.04
26.69,-3.91
26.96,-3.78
27.23,-3.66
27.50,-3.54
27.77,-3.43
28.05,-3.32
28.33,-3.22
28.62,-3.11
28.90,-3.00
29.19,-2.88
29.48,-2.76
29.78,-2.63
30.08,-2.51
30.38,-2.38
30.68,-2.25
30.99,-2.13
31.30,-2.01
31.61,-1.90
31.93,-1.78
32.24,-1.66
32.57,-1.54
32.89,-1.43
33.22,-1.32
33.55,-1.21
33.89,-1.10
34.23,-0.99
34.57,-0.88
34.92,-0.77
35.27,-0.66
35.62,-0.56
35.97,-0.45
36.33,-0.34
36.70,-0.23
37.06,-0.12
37.43,-0.01
37.81,0.11
38.19,0.23
38.57,0.35
38.95,0.48
39.34,0.60
39.74,0.73
40.14,0.86
40.54,0.98
40.94,1.11
41.35,1.24
41.76,1.37
42.18,1.50
42.60,1.64
43.03,1.77
43.46,1.91
43.90,2.05
44.33,2.19
44.78,2.32
45.23,2.46
45.68,2.59
46.13,2.73
46.60,2.86
47.06,3.00
47.53,3.14
48.01,3.28
48.49,3.42
48.97,3.55
49.46,3.69
49.96,3.83
50.46,3.97
50.96,4.11
51.47,4.24
51.99,4.38
52.51,4.51
53.03,4.64
53.56,4.78
54.10,4.91
54.64,5.04
55.18,5.17
55.74,5.29
56.29,5.42
56.86,5.54
57.42,5.67
58.00,5.79
58.58,5.90
59.16,6.02
59.76,6.13
60.35,6.24
60.96,6.35
61.57,6.45
62.18,6.56
62.80,6.66
63.43,6.76
64.07,6.86
64.71,6.95
65.35,7.05
66.01,7.14
66.67,7.23
67.33,7.31
68.01,7.40
68.69,7.48
69.37,7.56
70.07,7.64
70.77,7.71
71.48,7.79
72.19,7.86
72.91,7.93
73.64,7.99
74.38,8.05
75.12,8.11
75.87,8.17
76.63,8.23
77.40,8.28
78.17,8.33
78.95,8.38
79.74,8.43
80.54,8.47
81.35,8.51
82.16,8.55
82.98,8.59
83.81,8.62
84.65,8.66
85.50,8.69
86.35,8.72
87.22,8.74
88.09,8.76
88.97,8.78
89.86,8.80
90.76,8.82
91.66,8.83
92.58,8.84
93.51,8.85
94.44,8.86
95.39,8.86
96.34,8.87
97.30,8.87
98.28,8.87
99.26,8.87
100.25,8.86
101.25,8.85
102.27,8.85
103.29,8.84
104.32,8.82
105.37,8.81
106.42,8.80
107.48,8.78
108.56,8.76
109.64,8.74
110.74,8.72
111.85,8.70
112.97,8.68
114.10,8.66
115.24,8.63
116.39,8.61
117.55,8.58
118.73,8.55
119.92,8.52
121.12,8.49
122.33,8.46
123.55,8.42
124.79,8.39
126.03,8.35
127.29,8.32
128.57,8.28
129.85,8.25
131.15,8.21
132.46,8.18
133.79,8.14
135.12,8.11
136.48,8.07
137.84,8.03
139.22,7.99
140.61,7.96
142.02,7.92
143.44,7.88
144.87,7.84
146.32,7.81
147.78,7.77
149.26,7.73
150.75,7.69
152.26,7.66
153.78,7.62
155.32,7.58
156.88,7.54
158.44,7.50
160.03,7.46
161.63,7.42
163.24,7.38
164.88,7.34
166.53,7.30
168.19,7.26
169.87,7.22
171.57,7.18
173.29,7.14
175.02,7.09
176.77,7.05
178.54,7.01
180.32,6.97
182.13,6.93
183.95,6.88
185.79,6.84
187.65,6.80
189.52,6.76
191.42,6.71
193.33,6.67
195.27,6.62
197.22,6.58
199.19,6.53
201.18,6.48
203.19,6.43
205.23,6.38
207.28,6.34
209.35,6.29
211.44,6.24
213.56,6.19
215.69,6.14
217.85,6.09
220.03,6.04
222.23,5.99
224.45,5.94
226.70,5.89
228.96,5.84
231.25,5.78
233.57,5.73
235.90,5.68
238.26,5.63
240.64,5.58
243.05,5.53
245.48,5.47
247.93,5.42
250.41,5.37
252.92,5.31
255.45,5.26
258.00,5.20
260.58,5.14
263.19,5.08
265.82,5.02
268.48,4.95
271.16,4.88
273.87,4.81
276.61,4.74
279.38,4.67
282.17,4.59
284.99,4.52
287.84,4.47
290.72,4.44
293.63,4.42
296.57,4.44
299.53,4.49
302.53,4.57
305.55,4.69
308.61,4.82
311.69,4.97
314.81,5.13
317.96,5.28
321.14,5.43
324.35,5.56
327.59,5.68
330.87,5.79
334.18,5.88
337.52,5.96
340.90,6.04
344.30,6.12
347.75,6.19
351.23,6.26
354.74,6.33
358.28,6.38
361.87,6.44
365.49,6.50
369.14,6.57
372.83,6.64
376.56,6.71
380.33,6.78
384.13,6.85
387.97,6.92
391.85,7.00
395.77,7.07
399.73,7.15
403.72,7.23
407.76,7.30
411.84,7.38
415.96,7.45
420.12,7.52
424.32,7.59
428.56,7.66
432.85,7.72
437.18,7.78
441.55,7.83
445.96,7.88
450.42,7.95
454.93,8.01
459.48,8.06
464.07,8.11
468.71,8.15
473.40,8.18
478.13,8.20
482.91,8.21
487.74,8.21
492.62,8.20
497.55,8.18
502.52,8.14
507.55,8.10
512.62,8.03
517.75,7.95
522.93,7.85
528.16,7.72
533.44,7.59
538.77,7.44
544.16,7.29
549.60,7.14
555.10,6.99
560.65,6.86
566.25,6.73
571.92,6.61
577.64,6.50
583.41,6.40
589.25,6.30
595.14,6.20
601.09,6.09
607.10,5.98
613.17,5.86
619.30,5.74
625.50,5.62
631.75,5.49
638.07,5.35
644.45,5.19
650.89,5.03
657.40,4.85
663.98,4.67
670.62,4.49
677.32,4.30
684.10,4.13
690.94,3.97
697.85,3.81
704.83,3.67
711.87,3.54
718.99,3.40
726.18,3.27
733.44,3.13
740.78,2.99
748.19,2.86
755.67,2.74
763.23,2.63
770.86,2.54
778.57,2.49
786.35,2.45
794.22,2.44
802.16,2.43
810.18,2.42
818.28,2.41
826.46,2.38
834.73,2.33
843.08,2.25
851.51,2.16
860.02,2.05
868.62,1.93
877.31,1.80
886.08,1.67
894.94,1.54
903.89,1.40
912.93,1.26
922.06,1.11
931.28,0.97
940.59,0.82
950.00,0.68
959.50,0.54
969.09,0.40
978.78,0.27
988.57,0.14
998.46,0.02
1008.44,-0.10
1018.53,-0.21
1028.71,-0.32
1039.00,-0.43
1049.39,-0.54
1059.88,-0.65
1070.48,-0.76
1081.19,-0.86
1092.00,-0.96
1102.92,-1.07
1113.95,-1.16
1125.09,-1.26
1136.34,-1.35
1147.70,-1.43
1159.18,-1.51
1170.77,-1.58
1182.48,-1.65
1194.30,-1.71
1206.25,-1.76
1218.31,-1.81
1230.49,-1.85
1242.80,-1.89
1255.22,-1.93
1267.78,-1.96
1280.45,-1.99
1293.26,-2.02
1306.19,-2.04
1319.25,-2.06
1332.45,-2.07
1345.77,-2.09
1359.23,-2.09
1372.82,-2.10
1386.55,-2.10
1400.41,-2.09
1414.42,-2.09
1428.56,-2.06
1442.85,-2.03
1457.28,-1.99
1471.85,-1.94
1486.57,-1.87
1501.43,-1.80
1516.45,-1.73
1531.61,-1.65
1546.93,-1.58
1562.40,-1.52
1578.02,-1.46
1593.80,-1.41
1609.74,-1.37
1625.84,-1.33
1642.10,-1.29
1658.52,-1.25
1675.10,-1.22
1691.85,-1.18
1708.77,-1.13
1725.86,-1.08
1743.12,-1.01
1760.55,-0.94
1778.15,-0.85
1795.94,-0.75
1813.90,-0.65
1832.03,-0.54
1850.36,-0.44
1868.86,-0.34
1887.55,-0.26
1906.42,-0.19
1925.49,-0.12
1944.74,-0.06
1964.19,0.01
1983.83,0.10
2003.67,0.20
2023.71,0.34
2043.94,0.49
2064.38,0.67
2085.03,0.87
2105.88,1.08
2126.94,1.29
2148.20,1.51
2169.69,1.73
2191.38,1.94
2213.30,2.14
2235.43,2.31
2257.78,2.46
2280.36,2.58
2303.17,2.66
2326.20,2.72
2349.46,2.77
2372.95,2.79
2396.68,2.81
2420.65,2.81
2444.86,2.80
2469.31,2.80
2494.00,2.80
2518.94,2.82
2544.13,2.86
2569.57,2.91
2595.27,2.97
2621.22,3.05
2647.43,3.14
2673.90,3.24
2700.64,3.34
2727.65,3.44
2754.93,3.52
2782.48,3.58
2810.30,3.63
2838.40,3.67
2866.79,3.70
2895.46,3.71
2924.41,3.70
2953.65,3.69
2983.19,3.64
3013.02,3.57
3043.15,3.48
3073.58,3.34
3104.32,3.18
3135.36,3.01
3166.72,2.82
3198.38,2.66
3230.37,2.51
3262.67,2.44
3295.30,2.45
3328.25,2.53
3361.53,2.72
3395.15,3.01
3429.10,3.35
3463.39,3.72
3498.03,4.09
3533.01,4.41
3568.34,4.69
3604.02,4.84
3640.06,4.91
3676.46,4.91
3713.22,4.80
3750.36,4.66
3787.86,4.47
3825.74,4.26
3864.00,4.03
3902.64,3.81
3941.66,3.58
3981.08,3.38
4020.89,3.19
4061.10,3.02
4101.71,2.87
4142.73,2.72
4184.15,2.59
4226.00,2.50
4268.26,2.43
4310.94,2.39
4354.05,2.41
4397.59,2.49
4441.56,2.59
4485.98,2.75
4530.84,2.98
4576.15,3.23
4621.91,3.52
4668.13,3.83
4714.81,4.12
4761.96,4.40
4809.58,4.64
4857.67,4.84
4906.25,5.01
4955.31,5.12
5004.87,5.20
5054.91,5.26
5105.46,5.28
5156.52,5.30
5208.08,5.33
5260.16,5.37
5312.77,5.43
5365.89,5.50
5419.55,5.59
5473.75,5.71
5528.49,5.84
5583.77,5.99
5639.61,6.15
5696.00,6.30
5752.96,6.44
5810.49,6.52
5868.60,6.53
5927.28,6.48
5986.56,6.31
6046.42,6.03
6106.89,5.67
6167.96,5.23
6229.64,4.74
6291.93,4.26
6354.85,3.79
6418.40,3.42
6482.58,3.11
6547.41,2.88
6612.88,2.76
6679.01,2.71
6745.80,2.71
6813.26,2.77
6881.39,2.85
6950.21,2.94
7019.71,3.04
7089.91,3.15
7160.81,3.28
7232.41,3.45
7304.74,3.69
7377.79,4.01
7451.56,4.40
7526.08,4.96
7601.34,5.62
7677.35,6.37
7754.13,7.27
7831.67,8.20
7909.98,9.16
7989.08,10.09
8068.98,10.93
8149.67,11.69
8231.16,12.33
8313.47,12.79
8396.61,13.15
8480.57,13.39
8565.38,13.45
8651.03,13.43
8737.54,13.31
8824.92,13.07
8913.17,12.77
9002.30,12.40
9092.32,11.95
9183.25,11.42
9275.08,10.84
9367.83,10.18
9461.51,9.41
9556.12,8.60
9651.68,7.71
9748.20,6.75
9845.68,5.76
9944.14,4.74
10043.58,3.70
10144.02,2.66
10245.46,1.63
10347.91,0.66
10451.39,-0.24
10555.91,-1.07
10661.46,-1.76
10768.08,-2.30
10875.76,-2.69
10984.52,-2.87
11094.36,-2.81
11205.31,-2.58
11317.36,-2.16
11430.53,-1.60
11544.84,-1.01
11660.29,-0.42
11776.89,0.01
11894.66,0.29
12013.60,0.42
12133.74,0.22
12255.08,-0.22
12377.63,-0.86
12501.41,-1.74
12626.42,-2.69
12752.68,-3.64
12880.21,-4.54
13009.01,-5.26
13139.10,-5.85
13270.49,-6.30
13403.20,-6.58
13537.23,-6.78
13672.60,-6.91
13809.33,-6.88
13947.42,-6.74
14086.90,-6.52
14227.77,-6.15
14370.04,-5.65
14513.74,-5.07
14658.88,-4.45
14805.47,-3.92
14953.52,-3.53
15103.06,-3.37
15254.09,-3.66
15406.63,-4.20
15560.70,-5.02
15716.30,-6.11
15873.47,-7.28
16032.20,-8.49
16192.52,-9.61
16354.45,-10.52
16517.99,-11.26
16683.17,-11.70
16850.01,-11.94
17018.51,-12.05
17188.69,-12.05
17360.58,-12.04
17534.18,-12.03
17709.53,-12.04
17886.62,-12.12
18065.49,-12.23
18246.14,-12.38
18428.60,-12.55
18612.89,-12.66
18799.02,-12.74
18987.01,-12.74
19176.88,-12.77
19368.65,-12.85
19562.33,-13.14
19757.96,-13.65
19955.54,-14.30
