frequency,raw
20.00,-0.11
20.20,-0.07
20.40,-0.05
20.61,-0.02
20.81,0.01
21.02,0.03
21.23,0.06
21.44,0.08
21.66,0.10
21.87,0.12
22.09,0.14
22.31,0.16
22.54,0.17
22.76,0.20
22.99,0.21
23.22,0.22
23.45,0.24
23.69,0.25
23.92,0.27
24.16,0.28
24.40,0.29
24.65,0.30
24.89,0.31
25.14,0.33
25.39,0.34
25.65,0.35
25.91,0.37
26.16,0.38
26.43,0.39
26.69,0.41
26.96,0.42
27.23,0.44
27.50,0.45
27.77,0.46
28.05,0.48
28.33,0.49
28.62,0.51
28.90,0.53
29.19,0.54
29.48,0.57
29.78,0.59
30.08,0.61
30.38,0.62
30.68,0.65
30.99,0.67
31.30,0.69
31.61,0.72
31.93,0.74
32.24,0.76
32.57,0.79
32.89,0.82
33.22,0.85
33.55,0.87
33.89,0.90
34.23,0.93
34.57,0.96
34.92,0.98
35.27,1.01
35.62,1.04
35.97,1.07
36.33,1.11
36.70,1.13
37.06,1.16
37.43,1.19
37.81,1.22
38.19,1.25
38.57,1.27
38.95,1.29
39.34,1.32
39.74,1.34
40.14,1.35
40.54,1.37
40.94,1.39
41.35,1.40
41.76,1.42
42.18,1.43
42.60,1.43
43.03,1.44
43.46,1.44
43.90,1.45
44.33,1.45
44.78,1.44
45.23,1.45
45.68,1.44
46.13,1.45
46.60,1.44
47.06,1.44
47.53,1.43
48.01,1.43
48.49,1.42
48.97,1.41
49.46,1.41
49.96,1.40
50.46,1.40
50.96,1.39
51.47,1.39
51.99,1.38
52.51,1.38
53.03,1.38
53.56,1.38
54.10,1.38
54.64,1.37
55.18,1.37
55.74,1.38
56.29,1.38
56.86,1.39
57.42,1.40
58.00,1.41
58.58,1.41
59.16,1.43
59.76,1.44
60.35,1.46
60.96,1.47
61.57,1.49
62.18,1.52
62.80,1.54
63.43,1.57
64.07,1.59
64.71,1.63
65.35,1.66
66.01,1.70
66.67,1.75
67.33,1.79
68.01,1.83
68.69,1.89
69.37,1.93
70.07,1.99
70.77,2.05
71.48,2.11
72.19,2.16
72.91,2.22
73.64,2.27
74.38,2.33
75.12,2.39
75.87,2.45
76.63,2.50
77.40,2.55
78.17,2.60
78.95,2.65
79.74,2.70
80.54,2.74
81.35,2.80
82.16,2.84
82.98,2.89
83.81,2.93
84.65,2.96
85.50,3.00
86.35,3.04
87.22,3.07
88.09,3.11
88.97,3.14
89.86,3.17
90.76,3.20
91.66,3.22
92.58,3.25
93.51,3.27
94.44,3.31
95.39,3.33
96.34,3.34
97.30,3.36
98.28,3.39
99.26,3.40
100.25,3.42
101.25,3.44
102.27,3.45
103.29,3.47
104.32,3.48
105.37,3.49
106.42,3.50
107.48,3.51
108.56,3.52
109.64,3.54
110.74,3.55
111.85,3.56
112.97,3.58
114.10,3.59
115.24,3.62
116.39,3.64
117.55,3.65
118.73,3.67
119.92,3.69
121.12,3.70
122.33,3.72
123.55,3.73
124.79,3.74
126.03,3.75
127.29,3.76
128.57,3.76
129.85,3.78
131.15,3.77
132.46,3.78
133.79,3.78
135.12,3.77
136.48,3.77
137.84,3.76
139.22,3.75
140.61,3.74
142.02,3.73
143.44,3.71
144.87,3.69
146.32,3.68
147.78,3.66
149.26,3.65
150.75,3.63
152.26,3.62
153.78,3.61
155.32,3.61
156.88,3.61
158.44,3.61
160.03,3.61
161.63,3.60
163.24,3.60
164.88,3.60
166.53,3.58
168.19,3.57
169.87,3.54
171.57,3.52
173.29,3.49
175.02,3.47
176.77,3.44
178.54,3.41
180.32,3.37
182.13,3.33
183.95,3.28
185.79,3.25
187.65,3.21
189.52,3.15
191.42,3.11
193.33,3.06
195.27,3.01
197.22,2.95
199.19,2.90
201.18,2.84
203.19,2.77
205.23,2.71
207.28,2.64
209.35,2.57
211.44,2.50
213.56,2.42
215.69,2.33
217.85,2.24
220.03,2.16
222.23,2.06
224.45,1.97
226.70,1.86
228.96,1.77
231.25,1.66
233.57,1.56
235.90,1.47
238.26,1.38
240.64,1.30
243.05,1.24
245.48,1.19
247.93,1.15
250.41,1.13
252.92,1.12
255.45,1.11
258.00,1.11
260.58,1.10
263.19,1.08
265.82,1.06
268.48,1.02
271.16,0.97
273.87,0.91
276.61,0.84
279.38,0.77
282.17,0.69
284.99,0.61
287.84,0.51
290.72,0.42
293.63,0.32
296.57,0.21
299.53,0.10
302.53,-0.02
305.55,-0.15
308.61,-0.27
311.69,-0.40
314.81,-0.54
317.96,-0.68
321.14,-0.82
324.35,-0.96
327.59,-1.09
330.87,-1.21
334.18,-1.32
337.52,-1.39
340.90,-1.45
344.30,-1.50
347.75,-1.51
351.23,-1.51
354.74,-1.51
358.28,-1.51
361.87,-1.50
365.49,-1.50
369.14,-1.51
372.83,-1.53
376.56,-1.55
380.33,-1.59
384.13,-1.62
387.97,-1.67
391.85,-1.70
395.77,-1.74
399.73,-1.78
403.72,-1.82
407.76,-1.85
411.84,-1.89
415.96,-1.91
420.12,-1.93
424.32,-1.95
428.56,-1.97
432.85,-1.98
437.18,-1.98
441.55,-1.98
445.96,-1.98
450.42,-1.96
454.93,-1.95
459.48,-1.92
464.07,-1.90
468.71,-1.87
473.40,-1.83
478.13,-1.78
482.91,-1.74
487.74,-1.68
492.62,-1.61
497.55,-1.54
502.52,-1.48
507.55,-1.40
512.62,-1.31
517.75,-1.22
522.93,-1.14
528.16,-1.05
533.44,-0.95
538.77,-0.87
544.16,-0.77
549.60,-0.68
555.10,-0.59
560.65,-0.51
566.25,-0.42
571.92,-0.33
577.64,-0.25
583.41,-0.18
589.25,-0.09
595.14,-0.02
601.09,0.05
607.10,0.12
613.17,0.19
619.30,0.26
625.50,0.33
631.75,0.39
638.07,0.45
644.45,0.51
650.89,0.57
657.40,0.62
663.98,0.67
670.62,0.71
677.32,0.76
684.10,0.80
690.94,0.83
697.85,0.87
704.83,0.90
711.87,0.93
718.99,0.95
726.18,0.96
733.44,0.99
740.78,1.00
748.19,1.01
755.67,1.02
763.23,1.03
770.86,1.03
778.57,1.02
786.35,1.01
794.22,1.00
802.16,0.98
810.18,0.94
818.28,0.92
826.46,0.87
834.73,0.81
843.08,0.76
851.51,0.70
860.02,0.63
868.62,0.58
877.31,0.51
886.08,0.46
894.94,0.41
903.89,0.35
912.93,0.30
922.06,0.26
931.28,0.21
940.59,0.17
950.00,0.13
959.50,0.08
969.09,0.05
978.78,0.03
988.57,0.01
998.46,0.00
1008.44,-0.00
1018.53,0.01
1028.71,0.02
1039.00,0.03
1049.39,0.04
1059.88,0.05
1070.48,0.05
1081.19,0.06
1092.00,0.06
1102.92,0.06
1113.95,0.06
1125.09,0.06
1136.34,0.05
1147.70,0.06
1159.18,0.05
1170.77,0.06
1182.48,0.06
1194.30,0.06
1206.25,0.06
1218.31,0.06
1230.49,0.06
1242.80,0.07
1255.22,0.09
1267.78,0.12
1280.45,0.16
1293.26,0.20
1306.19,0.25
1319.25,0.31
1332.45,0.37
1345.77,0.41
1359.23,0.45
1372.82,0.48
1386.55,0.50
1400.41,0.52
1414.42,0.53
1428.56,0.55
1442.85,0.58
1457.28,0.62
1471.85,0.67
1486.57,0.72
1501.43,0.76
1516.45,0.80
1531.61,0.83
1546.93,0.86
1562.40,0.89
1578.02,0.93
1593.80,0.98
1609.74,1.05
1625.84,1.13
1642.10,1.22
1658.52,1.32
1675.10,1.45
1691.85,1.57
1708.77,1.69
1725.86,1.81
1743.12,1.93
1760.55,2.04
1778.15,2.15
1795.94,2.27
1813.90,2.38
1832.03,2.49
1850.36,2.60
1868.86,2.71
1887.55,2.82
1906.42,2.94
1925.49,3.06
1944.74,3.18
1964.19,3.29
1983.83,3.41
2003.67,3.53
2023.71,3.66
2043.94,3.78
2064.38,3.91
2085.03,4.03
2105.88,4.16
2126.94,4.29
2148.20,4.42
2169.69,4.55
2191.38,4.69
2213.30,4.82
2235.43,4.95
2257.78,5.09
2280.36,5.21
2303.17,5.35
2326.20,5.48
2349.46,5.60
2372.95,5.74
2396.68,5.86
2420.65,5.98
2444.86,6.09
2469.31,6.18
2494.00,6.27
2518.94,6.33
2544.13,6.37
2569.57,6.37
2595.27,6.35
2621.22,6.33
2647.43,6.34
2673.90,6.38
2700.64,6.50
2727.65,6.66
2754.93,6.88
2782.48,7.17
2810.30,7.49
2838.40,7.83
2866.79,8.20
2895.46,8.52
2924.41,8.80
2953.65,9.03
2983.19,9.16
3013.02,9.23
3043.15,9.23
3073.58,9.11
3104.32,8.94
3135.36,8.72
3166.72,8.49
3198.38,8.30
3230.37,8.13
3262.67,8.03
3295.30,8.00
3328.25,8.00
3361.53,8.03
3395.15,8.09
3429.10,8.11
3463.39,8.11
3498.03,8.03
3533.01,7.90
3568.34,7.72
3604.02,7.49
3640.06,7.24
3676.46,6.97
3713.22,6.70
3750.36,6.42
3787.86,6.14
3825.74,5.86
3864.00,5.61
3902.64,5.39
3941.66,5.19
3981.08,5.04
4020.89,4.90
4061.10,4.80
4101.71,4.71
4142.73,4.64
4184.15,4.57
4226.00,4.48
4268.26,4.37
4310.94,4.24
4354.05,4.07
4397.59,3.87
4441.56,3.66
4485.98,3.44
4530.84,3.20
4576.15,2.98
4621.91,2.76
4668.13,2.55
4714.81,2.37
4761.96,2.23
4809.58,2.17
4857.67,2.18
4906.25,2.25
4955.31,2.47
5004.87,2.81
5054.91,3.22
5105.46,3.75
5156.52,4.33
5208.08,4.90
5260.16,5.45
5312.77,5.90
5365.89,6.28
5419.55,6.55
5473.75,6.70
5528.49,6.78
5583.77,6.80
5639.61,6.76
5696.00,6.74
5752.96,6.70
5810.49,6.69
5868.60,6.65
5927.28,6.60
5986.56,6.50
6046.42,6.36
6106.89,6.19
6167.96,5.98
6229.64,5.74
6291.93,5.49
6354.85,5.24
6418.40,4.99
6482.58,4.75
6547.41,4.51
6612.88,4.30
6679.01,4.11
6745.80,3.95
6813.26,3.87
6881.39,3.86
6950.21,3.93
7019.71,4.12
7089.91,4.44
7160.81,4.83
7232.41,5.32
7304.74,5.85
7377.79,6.37
7451.56,6.87
7526.08,7.24
7601.34,7.52
7677.35,7.69
7754.13,7.74
7831.67,7.71
7909.98,7.64
7989.08,7.56
8068.98,7.54
8149.67,7.57
8231.16,7.71
8313.47,7.94
8396.61,8.24
8480.57,8.58
8565.38,8.91
8651.03,9.21
8737.54,9.46
8824.92,9.58
8913.17,9.61
9002.30,9.55
9092.32,9.35
9183.25,9.06
9275.08,8.69
9367.83,8.23
9461.51,7.70
9556.12,7.10
9651.68,6.44
9748.20,5.67
9845.68,4.85
9944.14,3.94
10043.58,2.95
10144.02,1.96
10245.46,0.95
10347.91,-0.02
10451.39,-0.92
10555.91,-1.72
10661.46,-2.36
10768.08,-2.84
10875.76,-3.22
10984.52,-3.43
11094.36,-3.54
11205.31,-3.60
11317.36,-3.62
11430.53,-3.59
11544.84,-3.54
11660.29,-3.45
11776.89,-3.33
11894.66,-3.20
12013.60,-3.09
12133.74,-3.03
12255.08,-3.04
12377.63,-3.08
12501.41,-3.12
12626.42,-3.19
12752.68,-3.27
12880.21,-3.37
13009.01,-3.46
13139.10,-3.53
13270.49,-3.60
13403.20,-3.62
13537.23,-3.61
13672.60,-3.58
13809.33,-3.54
13947.42,-3.49
14086.90,-3.42
14227.77,-3.31
14370.04,-3.20
14513.74,-3.12
14658.88,-3.13
14805.47,-3.28
14953.52,-3.58
15103.06,-4.08
15254.09,-4.93
15406.63,-5.98
15560.70,-7.23
15716.30,-8.62
15873.47,-10.03
16032.20,-11.42
16192.52,-12.56
16354.45,-13.35
16517.99,-13.84
16683.17,-13.76
16850.01,-13.26
17018.51,-12.46
17188.69,-11.34
17360.58,-10.18
17534.18,-9.11
17709.53,-8.22
17886.62,-7.78
18065.49,-7.70
18246.14,-7.94
18428.60,-8.70
18612.89,-9.59
18799.02,-10.60
18987.01,-11.66
19176.88,-12.65
19368.65,-13.57
19562.33,-14.36
19757.96,-14.97
19955.54,-15.49
