frequency,raw
20.00,4.73
20.20,4.75
20.40,4.78
20.61,4.80
20.81,4.83
21.02,4.85
21.23,4.88
21.44,4.91
21.66,4.94
21.87,4.97
22.09,4.99
22.31,5.02
22.54,5.05
22.76,5.07
22.99,5.10
23.22,5.13
23.45,5.15
23.69,5.18
23.92,5.20
24.16,5.23
24.40,5.26
24.65,5.28
24.89,5.31
25.14,5.34
25.39,5.36
25.65,5.39
25.91,5.42
26.16,5.44
26.43,5.46
26.69,5.48
26.96,5.51
27.23,5.53
27.50,5.55
27.77,5.58
28.05,5.60
28.33,5.62
28.62,5.64
28.90,5.67
29.19,5.69
29.48,5.71
29.78,5.73
30.08,5.75
30.38,5.77
30.68,5.79
30.99,5.80
31.30,5.81
31.61,5.82
31.93,5.82
32.24,5.83
32.57,5.83
32.89,5.84
33.22,5.84
33.55,5.85
33.89,5.85
34.23,5.85
34.57,5.85
34.92,5.86
35.27,5.86
35.62,5.86
35.97,5.86
36.33,5.86
36.70,5.86
37.06,5.86
37.43,5.85
37.81,5.85
38.19,5.85
38.57,5.85
38.95,5.84
39.34,5.84
39.74,5.83
40.14,5.83
40.54,5.82
40.94,5.82
41.35,5.81
41.76,5.80
42.18,5.80
42.60,5.79
43.03,5.78
43.46,5.78
43.90,5.77
44.33,5.77
44.78,5.76
45.23,5.75
45.68,5.75
46.13,5.74
46.60,5.74
47.06,5.73
47.53,5.73
48.01,5.72
48.49,5.72
48.97,5.71
49.46,5.70
49.96,5.70
50.46,5.70
50.96,5.69
51.47,5.69
51.99,5.68
52.51,5.68
53.03,5.67
53.56,5.67
54.10,5.67
54.64,5.66
55.18,5.66
55.74,5.66
56.29,5.66
56.86,5.65
57.42,5.65
58.00,5.65
58.58,5.65
59.16,5.65
59.76,5.64
60.35,5.64
60.96,5.64
61.57,5.64
62.18,5.63
62.80,5.63
63.43,5.63
64.07,5.62
64.71,5.62
65.35,5.61
66.01,5.61
66.67,5.60
67.33,5.59
68.01,5.59
68.69,5.58
69.37,5.57
70.07,5.56
70.77,5.55
71.48,5.54
72.19,5.54
72.91,5.53
73.64,5.52
74.38,5.51
75.12,5.50
75.87,5.49
76.63,5.48
77.40,5.47
78.17,5.46
78.95,5.45
79.74,5.43
80.54,5.42
81.35,5.41
82.16,5.40
82.98,5.38
83.81,5.37
84.65,5.35
85.50,5.34
86.35,5.32
87.22,5.31
88.09,5.29
88.97,5.27
89.86,5.26
90.76,5.24
91.66,5.22
92.58,5.20
93.51,5.18
94.44,5.16
95.39,5.14
96.34,5.11
97.30,5.09
98.28,5.07
99.26,5.04
100.25,5.02
101.25,5.00
102.27,4.97
103.29,4.95
104.32,4.92
105.37,4.89
106.42,4.87
107.48,4.84
108.56,4.81
109.64,4.78
110.74,4.75
111.85,4.72
112.97,4.69
114.10,4.66
115.24,4.63
116.39,4.60
117.55,4.57
118.73,4.54
119.92,4.50
121.12,4.47
122.33,4.43
123.55,4.40
124.79,4.36
126.03,4.33
127.29,4.29
128.57,4.25
129.85,4.22
131.15,4.18
132.46,4.14
133.79,4.11
135.12,4.07
136.48,4.03
137.84,3.99
139.22,3.95
140.61,3.91
142.02,3.87
143.44,3.83
144.87,3.79
146.32,3.75
147.78,3.71
149.26,3.67
150.75,3.62
152.26,3.58
153.78,3.54
155.32,3.50
156.88,3.46
158.44,3.42
160.03,3.38
161.63,3.34
163.24,3.29
164.88,3.25
166.53,3.21
168.19,3.17
169.87,3.13
171.57,3.08
173.29,3.04
175.02,2.99
176.77,2.94
178.54,2.89
180.32,2.84
182.13,2.79
183.95,2.73
185.79,2.67
187.65,2.61
189.52,2.55
191.42,2.49
193.33,2.42
195.27,2.36
197.22,2.29
199.19,2.22
201.18,2.15
203.19,2.09
205.23,2.01
207.28,1.94
209.35,1.87
211.44,1.80
213.56,1.72
215.69,1.65
217.85,1.57
220.03,1.50
222.23,1.42
224.45,1.33
226.70,1.25
228.96,1.17
231.25,1.08
233.57,0.99
235.90,0.90
238.26,0.81
240.64,0.72
243.05,0.63
245.48,0.54
247.93,0.46
250.41,0.37
252.92,0.29
255.45,0.21
258.00,0.13
260.58,0.05
263.19,-0.04
265.82,-0.12
268.48,-0.20
271.16,-0.29
273.87,-0.38
276.61,-0.48
279.38,-0.57
282.17,-0.67
284.99,-0.77
287.84,-0.88
290.72,-0.99
293.63,-1.10
296.57,-1.21
299.53,-1.32
302.53,-1.43
305.55,-1.55
308.61,-1.66
311.69,-1.77
314.81,-1.88
317.96,-2.00
321.14,-2.11
324.35,-2.23
327.59,-2.34
330.87,-2.46
334.18,-2.58
337.52,-2.69
340.90,-2.81
344.30,-2.93
347.75,-3.05
351.23,-3.17
354.74,-3.30
358.28,-3.47
361.87,-3.64
365.49,-3.81
369.14,-3.97
372.83,-4.13
376.56,-4.28
380.33,-4.42
384.13,-4.56
387.97,-4.69
391.85,-4.81
395.77,-4.92
399.73,-5.03
403.72,-5.13
407.76,-5.23
411.84,-5.33
415.96,-5.42
420.12,-5.51
424.32,-5.59
428.56,-5.67
432.85,-5.75
437.18,-5.81
441.55,-5.87
445.96,-5.93
450.42,-5.96
454.93,-5.99
459.48,-6.02
464.07,-6.04
468.71,-6.05
473.40,-6.06
478.13,-6.05
482.91,-6.03
487.74,-6.01
492.62,-5.98
497.55,-5.95
502.52,-5.91
507.55,-5.87
512.62,-5.83
517.75,-5.78
522.93,-5.73
528.16,-5.67
533.44,-5.61
538.77,-5.54
544.16,-5.47
549.60,-5.39
555.10,-5.31
560.65,-5.23
566.25,-5.14
571.92,-5.06
577.64,-4.97
583.41,-4.88
589.25,-4.79
595.14,-4.69
601.09,-4.60
607.10,-4.50
613.17,-4.41
619.30,-4.31
625.50,-4.21
631.75,-4.10
638.07,-3.99
644.45,-3.88
650.89,-3.77
657.40,-3.66
663.98,-3.54
670.62,-3.43
677.32,-3.32
684.10,-3.21
690.94,-3.10
697.85,-2.99
704.83,-2.89
711.87,-2.78
718.99,-2.68
726.18,-2.58
733.44,-2.48
740.78,-2.38
748.19,-2.28
755.67,-2.18
763.23,-2.08
770.86,-1.98
778.57,-1.88
786.35,-1.79
794.22,-1.69
802.16,-1.60
810.18,-1.50
818.28,-1.41
826.46,-1.32
834.73,-1.24
843.08,-1.15
851.51,-1.07
860.02,-0.99
868.62,-0.91
877.31,-0.84
886.08,-0.76
894.94,-0.69
903.89,-0.62
912.93,-0.56
922.06,-0.49
931.28,-0.43
940.59,-0.36
950.00,-0.30
959.50,-0.24
969.09,-0.18
978.78,-0.12
988.57,-0.07
998.46,-0.01
1008.44,0.05
1018.53,0.10
1028.71,0.16
1039.00,0.21
1049.39,0.27
1059.88,0.32
1070.48,0.38
1081.19,0.43
1092.00,0.49
1102.92,0.55
1113.95,0.61
1125.09,0.68
1136.34,0.75
1147.70,0.83
1159.18,0.91
1170.77,0.99
1182.48,1.08
1194.30,1.17
1206.25,1.26
1218.31,1.35
1230.49,1.45
1242.80,1.56
1255.22,1.66
1267.78,1.77
1280.45,1.88
1293.26,2.00
1306.19,2.12
1319.25,2.25
1332.45,2.38
1345.77,2.53
1359.23,2.68
1372.82,2.84
1386.55,3.01
1400.41,3.18
1414.42,3.36
1428.56,3.55
1442.85,3.74
1457.28,3.93
1471.85,4.13
1486.57,4.32
1501.43,4.51
1516.45,4.70
1531.61,4.88
1546.93,5.06
1562.40,5.23
1578.02,5.38
1593.80,5.53
1609.74,5.68
1625.84,5.81
1642.10,5.94
1658.52,6.07
1675.10,6.22
1691.85,6.37
1708.77,6.53
1725.86,6.70
1743.12,6.88
1760.55,7.06
1778.15,7.23
1795.94,7.41
1813.90,7.58
1832.03,7.75
1850.36,7.93
1868.86,8.10
1887.55,8.27
1906.42,8.43
1925.49,8.60
1944.74,8.75
1964.19,8.89
1983.83,9.03
2003.67,9.16
2023.71,9.27
2043.94,9.38
2064.38,9.48
2085.03,9.57
2105.88,9.66
2126.94,9.76
2148.20,9.86
2169.69,9.98
2191.38,10.09
2213.30,10.22
2235.43,10.36
2257.78,10.49
2280.36,10.61
2303.17,10.72
2326.20,10.82
2349.46,10.90
2372.95,10.97
2396.68,11.04
2420.65,11.09
2444.86,11.14
2469.31,11.17
2494.00,11.20
2518.94,11.22
2544.13,11.23
2569.57,11.24
2595.27,11.24
2621.22,11.22
2647.43,11.20
2673.90,11.17
2700.64,11.11
2727.65,11.05
2754.93,10.97
2782.48,10.88
2810.30,10.79
2838.40,10.68
2866.79,10.57
2895.46,10.46
2924.41,10.33
2953.65,10.19
2983.19,10.04
3013.02,9.89
3043.15,9.72
3073.58,9.53
3104.32,9.33
3135.36,9.13
3166.72,8.91
3198.38,8.68
3230.37,8.44
3262.67,8.19
3295.30,7.92
3328.25,7.64
3361.53,7.34
3395.15,7.03
3429.10,6.70
3463.39,6.36
3498.03,5.99
3533.01,5.62
3568.34,5.23
3604.02,4.83
3640.06,4.41
3676.46,3.98
3713.22,3.54
3750.36,3.08
3787.86,2.61
3825.74,2.12
3864.00,1.62
3902.64,1.09
3941.66,0.54
3981.08,-0.05
4020.89,-0.67
4061.10,-1.32
4101.71,-2.02
4142.73,-2.73
4184.15,-3.45
4226.00,-4.12
4268.26,-4.70
4310.94,-5.16
4354.05,-5.35
4397.59,-5.25
4441.56,-4.91
4485.98,-4.23
4530.84,-3.35
4576.15,-2.39
4621.91,-1.42
4668.13,-0.59
4714.81,0.14
4761.96,0.74
4809.58,1.23
4857.67,1.70
4906.25,2.18
4955.31,2.70
5004.87,3.25
5054.91,3.81
5105.46,4.35
5156.52,4.79
5208.08,5.16
5260.16,5.38
5312.77,5.45
5365.89,5.43
5419.55,5.32
5473.75,5.12
5528.49,4.88
5583.77,4.63
5639.61,4.36
5696.00,4.11
5752.96,3.86
5810.49,3.65
5868.60,3.47
5927.28,3.32
5986.56,3.24
6046.42,3.23
6106.89,3.27
6167.96,3.37
6229.64,3.55
6291.93,3.76
6354.85,4.01
6418.40,4.31
6482.58,4.63
6547.41,4.96
6612.88,5.31
6679.01,5.65
6745.80,5.99
6813.26,6.31
6881.39,6.61
6950.21,6.89
7019.71,7.14
7089.91,7.36
7160.81,7.57
7232.41,7.76
7304.74,7.94
7377.79,8.12
7451.56,8.31
7526.08,8.48
7601.34,8.65
7677.35,8.79
7754.13,8.89
7831.67,8.95
7909.98,8.97
7989.08,8.95
8068.98,8.91
8149.67,8.87
8231.16,8.84
8313.47,8.85
8396.61,8.92
8480.57,9.04
8565.38,9.27
8651.03,9.57
8737.54,9.93
8824.92,10.38
8913.17,10.83
9002.30,11.25
9092.32,11.55
9183.25,11.64
9275.08,11.54
9367.83,11.13
9461.51,10.45
9556.12,9.59
9651.68,8.56
9748.20,7.44
9845.68,6.32
9944.14,5.22
10043.58,4.23
10144.02,3.33
10245.46,2.51
10347.91,1.87
10451.39,1.34
10555.91,0.91
10661.46,0.63
10768.08,0.45
10875.76,0.34
10984.52,0.30
11094.36,0.25
11205.31,0.17
11317.36,0.02
11430.53,-0.25
11544.84,-0.60
11660.29,-1.00
11776.89,-1.42
11894.66,-1.76
12013.60,-2.04
12133.74,-2.10
12255.08,-2.00
12377.63,-1.77
12501.41,-1.38
12626.42,-0.92
12752.68,-0.45
12880.21,-0.01
13009.01,0.32
13139.10,0.54
13270.49,0.63
13403.20,0.50
13537.23,0.25
13672.60,-0.12
13809.33,-0.68
13947.42,-1.32
14086.90,-2.03
14227.77,-2.81
14370.04,-3.61
14513.74,-4.40
14658.88,-5.14
14805.47,-5.80
14953.52,-6.39
15103.06,-6.90
15254.09,-7.30
15406.63,-7.65
15560.70,-7.95
15716.30,-8.20
15873.47,-8.47
16032.20,-8.76
16192.52,-9.20
16354.45,-9.84
16517.99,-10.66
16683.17,-11.78
16850.01,-13.07
17018.51,-14.40
17188.69,-15.69
17360.58,-16.77
17534.18,-17.70
17709.53,-18.43
17886.62,-18.88
18065.49,-19.17
18246.14,-19.31
18428.60,-19.21
18612.89,-19.02
18799.02,-18.76
18987.01,-18.47
19176.88,-18.27
19368.65,-18.18
19562.33,-18.29
19757.96,-18.61
19955.54,-19.03
