frequency,raw
20.00,1.29
20.20,1.40
20.40,1.49
20.61,1.60
20.81,1.71
21.02,1.81
21.23,1.93
21.44,2.04
21.66,2.14
21.87,2.25
22.09,2.36
22.31,2.46
22.54,2.55
22.76,2.65
22.99,2.73
23.22,2.81
23.45,2.89
23.69,2.96
23.92,3.04
24.16,3.11
24.40,3.17
24.65,3.24
24.89,3.31
25.14,3.38
25.39,3.44
25.65,3.51
25.91,3.56
26.16,3.62
26.43,3.68
26.69,3.73
26.96,3.79
27.23,3.84
27.50,3.89
27.77,3.94
28.05,4.00
28.33,4.04
28.62,4.09
28.90,4.14
29.19,4.18
29.48,4.23
29.78,4.28
30.08,4.32
30.38,4.36
30.68,4.40
30.99,4.44
31.30,4.47
31.61,4.51
31.93,4.54
32.24,4.57
32.57,4.61
32.89,4.64
33.22,4.67
33.55,4.70
33.89,4.72
34.23,4.75
34.57,4.78
34.92,4.80
35.27,4.82
35.62,4.84
35.97,4.85
36.33,4.87
36.70,4.88
37.06,4.90
37.43,4.91
37.81,4.92
38.19,4.94
38.57,4.94
38.95,4.95
39.34,4.96
39.74,4.97
40.14,4.97
40.54,4.97
40.94,4.98
41.35,4.98
41.76,4.98
42.18,4.98
42.60,4.97
43.03,4.96
43.46,4.96
43.90,4.95
44.33,4.94
44.78,4.93
45.23,4.92
45.68,4.90
46.13,4.90
46.60,4.88
47.06,4.86
47.53,4.85
48.01,4.83
48.49,4.80
48.97,4.78
49.46,4.76
49.96,4.73
50.46,4.71
50.96,4.69
51.47,4.66
51.99,4.64
52.51,4.61
53.03,4.58
53.56,4.56
54.10,4.54
54.64,4.50
55.18,4.47
55.74,4.45
56.29,4.42
56.86,4.39
57.42,4.36
58.00,4.33
58.58,4.30
59.16,4.28
59.76,4.24
60.35,4.22
60.96,4.19
61.57,4.16
62.18,4.14
62.80,4.11
63.43,4.08
64.07,4.05
64.71,4.03
65.35,4.01
66.01,3.98
66.67,3.96
67.33,3.94
68.01,3.92
68.69,3.90
69.37,3.88
70.07,3.86
70.77,3.84
71.48,3.83
72.19,3.80
72.91,3.79
73.64,3.77
74.38,3.75
75.12,3.74
75.87,3.72
76.63,3.70
77.40,3.68
78.17,3.66
78.95,3.65
79.74,3.63
80.54,3.61
81.35,3.59
82.16,3.57
82.98,3.55
83.81,3.53
84.65,3.50
85.50,3.48
86.35,3.45
87.22,3.42
88.09,3.40
88.97,3.37
89.86,3.34
90.76,3.31
91.66,3.28
92.58,3.24
93.51,3.21
94.44,3.19
95.39,3.15
96.34,3.11
97.30,3.08
98.28,3.05
99.26,3.01
100.25,2.98
101.25,2.94
102.27,2.90
103.29,2.87
104.32,2.83
105.37,2.79
106.42,2.75
107.48,2.71
108.56,2.67
109.64,2.63
110.74,2.59
111.85,2.55
112.97,2.50
114.10,2.46
115.24,2.42
116.39,2.38
117.55,2.33
118.73,2.28
119.92,2.24
121.12,2.19
122.33,2.14
123.55,2.09
124.79,2.04
126.03,1.99
127.29,1.94
128.57,1.89
129.85,1.85
131.15,1.79
132.46,1.74
133.79,1.69
135.12,1.63
136.48,1.58
137.84,1.52
139.22,1.47
140.61,1.42
142.02,1.37
143.44,1.31
144.87,1.26
146.32,1.21
147.78,1.15
149.26,1.10
150.75,1.04
152.26,0.98
153.78,0.93
155.32,0.87
156.88,0.81
158.44,0.75
160.03,0.70
161.63,0.63
163.24,0.58
164.88,0.52
166.53,0.46
168.19,0.40
169.87,0.34
171.57,0.29
173.29,0.22
175.02,0.17
176.77,0.10
178.54,0.04
180.32,-0.02
182.13,-0.09
183.95,-0.17
185.79,-0.23
187.65,-0.30
189.52,-0.38
191.42,-0.44
193.33,-0.52
195.27,-0.59
197.22,-0.67
199.19,-0.74
201.18,-0.81
203.19,-0.89
205.23,-0.96
207.28,-1.03
209.35,-1.10
211.44,-1.17
213.56,-1.25
215.69,-1.32
217.85,-1.40
220.03,-1.46
222.23,-1.53
224.45,-1.60
226.70,-1.67
228.96,-1.73
231.25,-1.81
233.57,-1.87
235.90,-1.93
238.26,-1.99
240.64,-2.05
243.05,-2.10
245.48,-2.17
247.93,-2.21
250.41,-2.26
252.92,-2.31
255.45,-2.37
258.00,-2.41
260.58,-2.45
263.19,-2.50
265.82,-2.53
268.48,-2.58
271.16,-2.61
273.87,-2.65
276.61,-2.68
279.38,-2.71
282.17,-2.75
284.99,-2.78
287.84,-2.81
290.72,-2.83
293.63,-2.87
296.57,-2.90
299.53,-2.92
302.53,-2.95
305.55,-2.99
308.61,-3.01
311.69,-3.04
314.81,-3.06
317.96,-3.09
321.14,-3.11
324.35,-3.13
327.59,-3.15
330.87,-3.18
334.18,-3.20
337.52,-3.20
340.90,-3.22
344.30,-3.24
347.75,-3.25
351.23,-3.25
354.74,-3.26
358.28,-3.28
361.87,-3.29
365.49,-3.30
369.14,-3.30
372.83,-3.29
376.56,-3.27
380.33,-3.26
384.13,-3.23
387.97,-3.21
391.85,-3.18
395.77,-3.15
399.73,-3.11
403.72,-3.07
407.76,-3.03
411.84,-2.99
415.96,-2.94
420.12,-2.89
424.32,-2.84
428.56,-2.80
432.85,-2.75
437.18,-2.69
441.55,-2.64
445.96,-2.59
450.42,-2.55
454.93,-2.51
459.48,-2.46
464.07,-2.42
468.71,-2.38
473.40,-2.33
478.13,-2.29
482.91,-2.25
487.74,-2.20
492.62,-2.15
497.55,-2.10
502.52,-2.06
507.55,-2.01
512.62,-1.96
517.75,-1.91
522.93,-1.86
528.16,-1.81
533.44,-1.76
538.77,-1.72
544.16,-1.67
549.60,-1.62
555.10,-1.58
560.65,-1.54
566.25,-1.49
571.92,-1.44
577.64,-1.41
583.41,-1.37
589.25,-1.32
595.14,-1.28
601.09,-1.24
607.10,-1.20
613.17,-1.16
619.30,-1.12
625.50,-1.07
631.75,-1.04
638.07,-1.00
644.45,-0.96
650.89,-0.92
657.40,-0.89
663.98,-0.86
670.62,-0.83
677.32,-0.79
684.10,-0.77
690.94,-0.74
697.85,-0.71
704.83,-0.68
711.87,-0.66
718.99,-0.64
726.18,-0.62
733.44,-0.60
740.78,-0.58
748.19,-0.57
755.67,-0.54
763.23,-0.53
770.86,-0.52
778.57,-0.51
786.35,-0.49
794.22,-0.48
802.16,-0.47
810.18,-0.47
818.28,-0.45
826.46,-0.44
834.73,-0.43
843.08,-0.42
851.51,-0.41
860.02,-0.40
868.62,-0.38
877.31,-0.37
886.08,-0.35
894.94,-0.33
903.89,-0.31
912.93,-0.29
922.06,-0.26
931.28,-0.24
940.59,-0.21
950.00,-0.18
959.50,-0.15
969.09,-0.12
978.78,-0.08
988.57,-0.04
998.46,-0.01
1008.44,0.03
1018.53,0.07
1028.71,0.11
1039.00,0.15
1049.39,0.19
1059.88,0.23
1070.48,0.27
1081.19,0.31
1092.00,0.35
1102.92,0.40
1113.95,0.44
1125.09,0.48
1136.34,0.53
1147.70,0.58
1159.18,0.63
1170.77,0.69
1182.48,0.75
1194.30,0.81
1206.25,0.88
1218.31,0.94
1230.49,1.00
1242.80,1.07
1255.22,1.14
1267.78,1.21
1280.45,1.28
1293.26,1.36
1306.19,1.43
1319.25,1.51
1332.45,1.60
1345.77,1.68
1359.23,1.77
1372.82,1.87
1386.55,1.96
1400.41,2.06
1414.42,2.15
1428.56,2.25
1442.85,2.34
1457.28,2.44
1471.85,2.55
1486.57,2.66
1501.43,2.77
1516.45,2.89
1531.61,3.03
1546.93,3.17
1562.40,3.33
1578.02,3.49
1593.80,3.66
1609.74,3.83
1625.84,3.99
1642.10,4.16
1658.52,4.31
1675.10,4.46
1691.85,4.61
1708.77,4.76
1725.86,4.89
1743.12,5.01
1760.55,5.14
1778.15,5.26
1795.94,5.38
1813.90,5.51
1832.03,5.63
1850.36,5.76
1868.86,5.87
1887.55,5.97
1906.42,6.07
1925.49,6.16
1944.74,6.26
1964.19,6.36
1983.83,6.47
2003.67,6.59
2023.71,6.75
2043.94,6.91
2064.38,7.08
2085.03,7.25
2105.88,7.41
2126.94,7.56
2148.20,7.69
2169.69,7.79
2191.38,7.87
2213.30,7.93
2235.43,7.97
2257.78,8.01
2280.36,8.03
2303.17,8.05
2326.20,8.07
2349.46,8.07
2372.95,8.07
2396.68,8.07
2420.65,8.05
2444.86,8.04
2469.31,8.01
2494.00,7.99
2518.94,7.94
2544.13,7.91
2569.57,7.87
2595.27,7.83
2621.22,7.79
2647.43,7.75
2673.90,7.70
2700.64,7.66
2727.65,7.61
2754.93,7.58
2782.48,7.53
2810.30,7.47
2838.40,7.41
2866.79,7.35
2895.46,7.26
2924.41,7.17
2953.65,7.07
2983.19,6.94
3013.02,6.79
3043.15,6.63
3073.58,6.42
3104.32,6.20
3135.36,5.95
3166.72,5.67
3198.38,5.37
3230.37,5.05
3262.67,4.70
3295.30,4.33
3328.25,3.94
3361.53,3.54
3395.15,3.13
3429.10,2.72
3463.39,2.30
3498.03,1.87
3533.01,1.44
3568.34,1.01
3604.02,0.58
3640.06,0.16
3676.46,-0.27
3713.22,-0.68
3750.36,-1.09
3787.86,-1.50
3825.74,-1.90
3864.00,-2.28
3902.64,-2.67
3941.66,-3.05
3981.08,-3.43
4020.89,-3.82
4061.10,-4.19
4101.71,-4.57
4142.73,-4.92
4184.15,-5.28
4226.00,-5.64
4268.26,-5.99
4310.94,-6.33
4354.05,-6.71
4397.59,-7.16
4441.56,-7.61
4485.98,-7.95
4530.84,-8.08
4576.15,-8.01
4621.91,-7.65
4668.13,-6.91
4714.81,-5.96
4761.96,-4.79
4809.58,-3.48
4857.67,-2.20
4906.25,-0.98
4955.31,-0.01
5004.87,0.66
5054.91,1.07
5105.46,1.19
5156.52,1.14
5208.08,0.98
5260.16,0.72
5312.77,0.40
5365.89,0.07
5419.55,-0.28
5473.75,-0.61
5528.49,-0.94
5583.77,-1.26
5639.61,-1.55
5696.00,-1.83
5752.96,-2.12
5810.49,-2.37
5868.60,-2.62
5927.28,-2.86
5986.56,-3.06
6046.42,-3.25
6106.89,-3.39
6167.96,-3.51
6229.64,-3.58
6291.93,-3.63
6354.85,-3.66
6418.40,-3.71
6482.58,-3.77
6547.41,-3.86
6612.88,-4.01
6679.01,-4.18
6745.80,-4.37
6813.26,-4.54
6881.39,-4.68
6950.21,-4.76
7019.71,-4.74
7089.91,-4.59
7160.81,-4.34
7232.41,-3.97
7304.74,-3.48
7377.79,-2.94
7451.56,-2.35
7526.08,-1.76
7601.34,-1.19
7677.35,-0.67
7754.13,-0.21
7831.67,0.18
7909.98,0.51
7989.08,0.76
8068.98,0.98
8149.67,1.16
8231.16,1.32
8313.47,1.48
8396.61,1.66
8480.57,1.86
8565.38,2.07
8651.03,2.27
8737.54,2.45
8824.92,2.53
8913.17,2.51
9002.30,2.38
9092.32,2.04
9183.25,1.50
9275.08,0.82
9367.83,-0.05
9461.51,-1.05
9556.12,-2.11
9651.68,-3.18
9748.20,-4.22
9845.68,-5.17
9944.14,-6.04
10043.58,-6.73
10144.02,-7.32
10245.46,-7.81
10347.91,-8.16
10451.39,-8.45
10555.91,-8.68
10661.46,-8.85
10768.08,-8.96
10875.76,-9.03
10984.52,-9.03
11094.36,-8.96
11205.31,-8.85
11317.36,-8.68
11430.53,-8.44
11544.84,-8.17
11660.29,-7.88
11776.89,-7.58
11894.66,-7.28
12013.60,-7.02
12133.74,-6.80
12255.08,-6.60
12377.63,-6.41
12501.41,-6.22
12626.42,-6.01
12752.68,-5.79
12880.21,-5.52
13009.01,-5.23
13139.10,-4.92
13270.49,-4.59
13403.20,-4.27
13537.23,-3.96
13672.60,-3.69
13809.33,-3.52
13947.42,-3.49
14086.90,-3.58
14227.77,-3.96
14370.04,-4.61
14513.74,-5.47
14658.88,-6.66
14805.47,-8.12
14953.52,-9.72
15103.06,-11.44
15254.09,-13.02
15406.63,-14.41
15560.70,-15.58
15716.30,-16.21
15873.47,-16.55
16032.20,-16.61
16192.52,-16.34
16354.45,-16.01
16517.99,-15.67
16683.17,-15.37
16850.01,-15.29
17018.51,-15.38
17188.69,-15.69
17360.58,-16.17
17534.18,-16.79
17709.53,-17.53
17886.62,-18.40
18065.49,-19.34
18246.14,-20.31
18428.60,-21.35
18612.89,-22.39
18799.02,-23.42
18987.01,-24.42
19176.88,-25.32
19368.65,-26.12
19562.33,-26.77
19757.96,-27.37
19955.54,-27.96
