frequency,raw
20.00,11.58
20.20,11.53
20.40,11.48
20.61,11.43
20.81,11.39
21.02,11.34
21.23,11.30
21.44,11.26
21.66,11.21
21.87,11.16
22.09,11.13
22.31,11.09
22.54,11.04
22.76,11.01
22.99,10.97
23.22,10.93
23.45,10.91
23.69,10.87
23.92,10.84
24.16,10.81
24.40,10.77
24.65,10.74
24.89,10.70
25.14,10.67
25.39,10.64
25.65,10.61
25.91,10.58
26.16,10.55
26.43,10.53
26.69,10.50
26.96,10.47
27.23,10.45
27.50,10.42
27.77,10.39
28.05,10.37
28.33,10.34
28.62,10.32
28.90,10.29
29.19,10.26
29.48,10.24
29.78,10.21
30.08,10.18
30.38,10.15
30.68,10.13
30.99,10.10
31.30,10.07
31.61,10.04
31.93,10.00
32.24,9.96
32.57,9.93
32.89,9.90
33.22,9.87
33.55,9.83
33.89,9.80
34.23,9.77
34.57,9.74
34.92,9.71
35.27,9.67
35.62,9.64
35.97,9.61
36.33,9.58
36.70,9.54
37.06,9.52
37.43,9.49
37.81,9.45
38.19,9.43
38.57,9.39
38.95,9.37
39.34,9.34
39.74,9.31
40.14,9.28
40.54,9.25
40.94,9.23
41.35,9.20
41.76,9.18
42.18,9.15
42.60,9.13
43.03,9.10
43.46,9.08
43.90,9.07
44.33,9.04
44.78,9.02
45.23,9.00
45.68,8.98
46.13,8.96
46.60,8.95
47.06,8.93
47.53,8.91
48.01,8.89
48.49,8.88
48.97,8.86
49.46,8.84
49.96,8.83
50.46,8.82
50.96,8.81
51.47,8.79
51.99,8.78
52.51,8.77
53.03,8.76
53.56,8.75
54.10,8.75
54.64,8.73
55.18,8.73
55.74,8.73
56.29,8.71
56.86,8.71
57.42,8.71
58.00,8.70
58.58,8.69
59.16,8.69
59.76,8.68
60.35,8.68
60.96,8.66
61.57,8.66
62.18,8.66
62.80,8.65
63.43,8.64
64.07,8.63
64.71,8.63
65.35,8.62
66.01,8.61
66.67,8.61
67.33,8.60
68.01,8.59
68.69,8.59
69.37,8.57
70.07,8.57
70.77,8.56
71.48,8.56
72.19,8.54
72.91,8.54
73.64,8.53
74.38,8.52
75.12,8.52
75.87,8.51
76.63,8.49
77.40,8.48
78.17,8.48
78.95,8.47
79.74,8.46
80.54,8.45
81.35,8.45
82.16,8.44
82.98,8.43
83.81,8.42
84.65,8.40
85.50,8.39
86.35,8.38
87.22,8.36
88.09,8.36
88.97,8.35
89.86,8.33
90.76,8.32
91.66,8.31
92.58,8.30
93.51,8.28
94.44,8.28
95.39,8.27
96.34,8.25
97.30,8.23
98.28,8.23
99.26,8.21
100.25,8.20
101.25,8.18
102.27,8.17
103.29,8.15
104.32,8.14
105.37,8.12
106.42,8.10
107.48,8.09
108.56,8.07
109.64,8.06
110.74,8.04
111.85,8.03
112.97,8.01
114.10,7.99
115.24,7.98
116.39,7.96
117.55,7.94
118.73,7.92
119.92,7.90
121.12,7.88
122.33,7.86
123.55,7.85
124.79,7.83
126.03,7.81
127.29,7.79
128.57,7.77
129.85,7.76
131.15,7.74
132.46,7.72
133.79,7.70
135.12,7.68
136.48,7.66
137.84,7.64
139.22,7.62
140.61,7.60
142.02,7.58
143.44,7.55
144.87,7.53
146.32,7.51
147.78,7.48
149.26,7.46
150.75,7.43
152.26,7.40
153.78,7.37
155.32,7.35
156.88,7.32
158.44,7.29
160.03,7.26
161.63,7.23
163.24,7.21
164.88,7.19
166.53,7.16
168.19,7.13
169.87,7.10
171.57,7.08
173.29,7.04
175.02,7.02
176.77,6.98
178.54,6.95
180.32,6.91
182.13,6.87
183.95,6.83
185.79,6.80
187.65,6.75
189.52,6.70
191.42,6.66
193.33,6.61
195.27,6.56
197.22,6.51
199.19,6.46
201.18,6.40
203.19,6.34
205.23,6.28
207.28,6.23
209.35,6.17
211.44,6.11
213.56,6.05
215.69,5.98
217.85,5.92
220.03,5.86
222.23,5.81
224.45,5.76
226.70,5.71
228.96,5.68
231.25,5.64
233.57,5.62
235.90,5.60
238.26,5.60
240.64,5.58
243.05,5.58
245.48,5.55
247.93,5.54
250.41,5.53
252.92,5.50
255.45,5.47
258.00,5.44
260.58,5.41
263.19,5.37
265.82,5.34
268.48,5.30
271.16,5.27
273.87,5.22
276.61,5.18
279.38,5.15
282.17,5.10
284.99,5.06
287.84,5.01
290.72,4.98
293.63,4.93
296.57,4.88
299.53,4.84
302.53,4.79
305.55,4.74
308.61,4.70
311.69,4.65
314.81,4.60
317.96,4.55
321.14,4.50
324.35,4.45
327.59,4.40
330.87,4.35
334.18,4.30
337.52,4.25
340.90,4.20
344.30,4.15
347.75,4.10
351.23,4.06
354.74,4.01
358.28,3.95
361.87,3.91
365.49,3.86
369.14,3.81
372.83,3.77
376.56,3.73
380.33,3.69
384.13,3.65
387.97,3.61
391.85,3.57
395.77,3.53
399.73,3.50
403.72,3.46
407.76,3.43
411.84,3.39
415.96,3.37
420.12,3.34
424.32,3.30
428.56,3.27
432.85,3.24
437.18,3.21
441.55,3.18
445.96,3.15
450.42,3.12
454.93,3.09
459.48,3.07
464.07,3.04
468.71,3.01
473.40,2.99
478.13,2.97
482.91,2.94
487.74,2.92
492.62,2.89
497.55,2.87
502.52,2.84
507.55,2.82
512.62,2.79
517.75,2.78
522.93,2.75
528.16,2.73
533.44,2.71
538.77,2.69
544.16,2.67
549.60,2.65
555.10,2.62
560.65,2.60
566.25,2.58
571.92,2.56
577.64,2.53
583.41,2.51
589.25,2.50
595.14,2.47
601.09,2.44
607.10,2.42
613.17,2.40
619.30,2.38
625.50,2.36
631.75,2.33
638.07,2.30
644.45,2.28
650.89,2.26
657.40,2.24
663.98,2.21
670.62,2.19
677.32,2.18
684.10,2.15
690.94,2.13
697.85,2.11
704.83,2.07
711.87,2.01
718.99,1.94
726.18,1.82
733.44,1.70
740.78,1.54
748.19,1.34
755.67,1.13
763.23,0.89
770.86,0.64
778.57,0.39
786.35,0.16
794.22,-0.06
802.16,-0.25
810.18,-0.41
818.28,-0.53
826.46,-0.62
834.73,-0.69
843.08,-0.73
851.51,-0.74
860.02,-0.75
868.62,-0.74
877.31,-0.72
886.08,-0.69
894.94,-0.65
903.89,-0.62
912.93,-0.58
922.06,-0.53
931.28,-0.49
940.59,-0.44
950.00,-0.39
959.50,-0.34
969.09,-0.28
978.78,-0.20
988.57,-0.12
998.46,-0.02
1008.44,0.10
1018.53,0.23
1028.71,0.37
1039.00,0.54
1049.39,0.72
1059.88,0.91
1070.48,1.11
1081.19,1.33
1092.00,1.55
1102.92,1.78
1113.95,2.00
1125.09,2.24
1136.34,2.46
1147.70,2.69
1159.18,2.91
1170.77,3.13
1182.48,3.35
1194.30,3.59
1206.25,3.83
1218.31,4.09
1230.49,4.35
1242.80,4.64
1255.22,4.96
1267.78,5.28
1280.45,5.62
1293.26,5.97
1306.19,6.32
1319.25,6.67
1332.45,7.02
1345.77,7.36
1359.23,7.69
1372.82,8.02
1386.55,8.32
1400.41,8.62
1414.42,8.89
1428.56,9.14
1442.85,9.37
1457.28,9.59
1471.85,9.78
1486.57,9.97
1501.43,10.16
1516.45,10.34
1531.61,10.52
1546.93,10.70
1562.40,10.89
1578.02,11.08
1593.80,11.28
1609.74,11.48
1625.84,11.67
1642.10,11.86
1658.52,12.04
1675.10,12.25
1691.85,12.46
1708.77,12.69
1725.86,12.94
1743.12,13.19
1760.55,13.44
1778.15,13.68
1795.94,13.90
1813.90,14.10
1832.03,14.25
1850.36,14.37
1868.86,14.46
1887.55,14.51
1906.42,14.54
1925.49,14.55
1944.74,14.56
1964.19,14.55
1983.83,14.53
2003.67,14.51
2023.71,14.48
2043.94,14.44
2064.38,14.39
2085.03,14.32
2105.88,14.25
2126.94,14.17
2148.20,14.09
2169.69,14.01
2191.38,13.93
2213.30,13.86
2235.43,13.80
2257.78,13.77
2280.36,13.74
2303.17,13.75
2326.20,13.78
2349.46,13.83
2372.95,13.92
2396.68,14.03
2420.65,14.15
2444.86,14.30
2469.31,14.46
2494.00,14.63
2518.94,14.79
2544.13,14.96
2569.57,15.11
2595.27,15.26
2621.22,15.38
2647.43,15.47
2673.90,15.54
2700.64,15.57
2727.65,15.57
2754.93,15.54
2782.48,15.48
2810.30,15.39
2838.40,15.30
2866.79,15.20
2895.46,15.10
2924.41,15.01
2953.65,14.94
2983.19,14.87
3013.02,14.81
3043.15,14.75
3073.58,14.68
3104.32,14.61
3135.36,14.53
3166.72,14.43
3198.38,14.33
3230.37,14.23
3262.67,14.12
3295.30,14.02
3328.25,13.92
3361.53,13.84
3395.15,13.79
3429.10,13.74
3463.39,13.72
3498.03,13.73
3533.01,13.75
3568.34,13.79
3604.02,13.85
3640.06,13.91
3676.46,13.97
3713.22,14.02
3750.36,14.05
3787.86,14.07
3825.74,14.04
3864.00,13.98
3902.64,13.88
3941.66,13.74
3981.08,13.54
4020.89,13.31
4061.10,13.05
4101.71,12.73
4142.73,12.42
4184.15,12.08
4226.00,11.73
4268.26,11.38
4310.94,11.03
4354.05,10.69
4397.59,10.37
4441.56,10.05
4485.98,9.75
4530.84,9.46
4576.15,9.18
4621.91,8.93
4668.13,8.70
4714.81,8.49
4761.96,8.32
4809.58,8.21
4857.67,8.16
4906.25,8.15
4955.31,8.26
5004.87,8.47
5054.91,8.74
5105.46,9.14
5156.52,9.59
5208.08,10.08
5260.16,10.59
5312.77,11.06
5365.89,11.47
5419.55,11.81
5473.75,11.98
5528.49,12.06
5583.77,12.03
5639.61,11.85
5696.00,11.61
5752.96,11.30
5810.49,10.91
5868.60,10.46
5927.28,9.98
5986.56,9.45
6046.42,8.89
6106.89,8.33
6167.96,7.75
6229.64,7.22
6291.93,6.72
6354.85,6.28
6418.40,5.98
6482.58,5.78
6547.41,5.66
6612.88,5.70
6679.01,5.80
6745.80,5.97
6813.26,6.21
6881.39,6.50
6950.21,6.80
7019.71,7.12
7089.91,7.42
7160.81,7.71
7232.41,7.97
7304.74,8.19
7377.79,8.36
7451.56,8.52
7526.08,8.64
7601.34,8.75
7677.35,8.84
7754.13,8.96
7831.67,9.13
7909.98,9.34
7989.08,9.66
8068.98,10.08
8149.67,10.53
8231.16,11.02
8313.47,11.42
8396.61,11.73
8480.57,11.90
8565.38,11.75
8651.03,11.41
8737.54,10.84
8824.92,9.91
8913.17,8.84
9002.30,7.66
9092.32,6.45
9183.25,5.33
9275.08,4.30
9367.83,3.43
9461.51,2.68
9556.12,2.01
9651.68,1.44
9748.20,0.91
9845.68,0.41
9944.14,-0.10
10043.58,-0.58
10144.02,-1.04
10245.46,-1.48
10347.91,-1.81
10451.39,-2.02
10555.91,-2.12
10661.46,-2.08
10768.08,-1.95
10875.76,-1.76
10984.52,-1.52
11094.36,-1.29
11205.31,-1.08
11317.36,-0.89
11430.53,-0.78
11544.84,-0.72
11660.29,-0.73
11776.89,-0.86
11894.66,-1.04
12013.60,-1.30
12133.74,-1.62
12255.08,-2.00
12377.63,-2.41
12501.41,-2.86
12626.42,-3.28
12752.68,-3.68
12880.21,-4.04
13009.01,-4.34
13139.10,-4.54
13270.49,-4.67
13403.20,-4.68
13537.23,-4.66
13672.60,-4.62
13809.33,-4.64
13947.42,-4.76
14086.90,-5.03
14227.77,-5.62
14370.04,-6.40
14513.74,-7.34
14658.88,-8.59
14805.47,-10.05
14953.52,-11.56
15103.06,-12.99
15254.09,-14.12
15406.63,-14.97
15560.70,-15.52
15716.30,-15.56
15873.47,-15.46
16032.20,-15.22
16192.52,-14.91
16354.45,-14.58
16517.99,-14.27
16683.17,-14.01
16850.01,-13.88
17018.51,-13.84
17188.69,-13.91
17360.58,-14.14
17534.18,-14.43
17709.53,-14.75
17886.62,-15.01
18065.49,-15.20
18246.14,-15.31
18428.60,-15.09
18612.89,-14.64
18799.02,-13.97
18987.01,-12.95
19176.88,-11.79
19368.65,-10.58
19562.33,-9.52
19757.96,-8.78
19955.54,-8.29
