frequency,raw
20.00,1.34
20.20,1.37
20.40,1.38
20.61,1.41
20.81,1.43
21.02,1.45
21.23,1.47
21.44,1.49
21.66,1.50
21.87,1.51
22.09,1.52
22.31,1.53
22.54,1.53
22.76,1.54
22.99,1.54
23.22,1.53
23.45,1.54
23.69,1.53
23.92,1.52
24.16,1.51
24.40,1.49
24.65,1.47
24.89,1.46
25.14,1.44
25.39,1.42
25.65,1.40
25.91,1.38
26.16,1.36
26.43,1.33
26.69,1.30
26.96,1.27
27.23,1.24
27.50,1.20
27.77,1.17
28.05,1.14
28.33,1.10
28.62,1.06
28.90,1.02
29.19,0.97
29.48,0.93
29.78,0.89
30.08,0.84
30.38,0.79
30.68,0.75
30.99,0.70
31.30,0.65
31.61,0.61
31.93,0.56
32.24,0.51
32.57,0.46
32.89,0.41
33.22,0.36
33.55,0.31
33.89,0.25
34.23,0.19
34.57,0.14
34.92,0.08
35.27,0.03
35.62,-0.03
35.97,-0.09
36.33,-0.14
36.70,-0.21
37.06,-0.27
37.43,-0.33
37.81,-0.39
38.19,-0.45
38.57,-0.52
38.95,-0.59
39.34,-0.66
39.74,-0.73
40.14,-0.80
40.54,-0.88
40.94,-0.95
41.35,-1.03
41.76,-1.11
42.18,-1.19
42.60,-1.28
43.03,-1.37
43.46,-1.47
43.90,-1.55
44.33,-1.65
44.78,-1.76
45.23,-1.86
45.68,-1.96
46.13,-2.06
46.60,-2.17
47.06,-2.27
47.53,-2.36
48.01,-2.46
48.49,-2.54
48.97,-2.63
49.46,-2.69
49.96,-2.75
50.46,-2.79
50.96,-2.82
51.47,-2.83
51.99,-2.84
52.51,-2.82
53.03,-2.80
53.56,-2.76
54.10,-2.71
54.64,-2.66
55.18,-2.60
55.74,-2.53
56.29,-2.46
56.86,-2.38
57.42,-2.31
58.00,-2.23
58.58,-2.16
59.16,-2.08
59.76,-2.01
60.35,-1.93
60.96,-1.87
61.57,-1.79
62.18,-1.72
62.80,-1.64
63.43,-1.58
64.07,-1.51
64.71,-1.44
65.35,-1.38
66.01,-1.31
66.67,-1.24
67.33,-1.17
68.01,-1.11
68.69,-1.05
69.37,-0.99
70.07,-0.94
70.77,-0.88
71.48,-0.83
72.19,-0.79
72.91,-0.75
73.64,-0.72
74.38,-0.69
75.12,-0.67
75.87,-0.65
76.63,-0.65
77.40,-0.65
78.17,-0.65
78.95,-0.65
79.74,-0.67
80.54,-0.69
81.35,-0.70
82.16,-0.72
82.98,-0.74
83.81,-0.76
84.65,-0.80
85.50,-0.82
86.35,-0.84
87.22,-0.88
88.09,-0.89
88.97,-0.92
89.86,-0.95
90.76,-0.98
91.66,-1.00
92.58,-1.03
93.51,-1.05
94.44,-1.07
95.39,-1.09
96.34,-1.12
97.30,-1.14
98.28,-1.16
99.26,-1.19
100.25,-1.21
101.25,-1.24
102.27,-1.26
103.29,-1.29
104.32,-1.31
105.37,-1.33
106.42,-1.37
107.48,-1.40
108.56,-1.42
109.64,-1.45
110.74,-1.48
111.85,-1.52
112.97,-1.55
114.10,-1.59
115.24,-1.62
116.39,-1.65
117.55,-1.70
118.73,-1.74
119.92,-1.78
121.12,-1.82
122.33,-1.87
123.55,-1.91
124.79,-1.96
126.03,-2.00
127.29,-2.05
128.57,-2.10
129.85,-2.15
131.15,-2.20
132.46,-2.25
133.79,-2.31
135.12,-2.36
136.48,-2.42
137.84,-2.47
139.22,-2.53
140.61,-2.58
142.02,-2.64
143.44,-2.70
144.87,-2.75
146.32,-2.81
147.78,-2.87
149.26,-2.92
150.75,-2.99
152.26,-3.05
153.78,-3.11
155.32,-3.17
156.88,-3.23
158.44,-3.30
160.03,-3.35
161.63,-3.42
163.24,-3.48
164.88,-3.54
166.53,-3.60
168.19,-3.67
169.87,-3.73
171.57,-3.79
173.29,-3.86
175.02,-3.91
176.77,-3.98
178.54,-4.04
180.32,-4.11
182.13,-4.17
183.95,-4.24
185.79,-4.30
187.65,-4.37
189.52,-4.44
191.42,-4.50
193.33,-4.57
195.27,-4.63
197.22,-4.70
199.19,-4.76
201.18,-4.82
203.19,-4.89
205.23,-4.96
207.28,-5.01
209.35,-5.08
211.44,-5.13
213.56,-5.20
215.69,-5.27
217.85,-5.33
220.03,-5.40
222.23,-5.46
224.45,-5.53
226.70,-5.60
228.96,-5.66
231.25,-5.73
233.57,-5.79
235.90,-5.85
238.26,-5.89
240.64,-5.95
243.05,-5.99
245.48,-6.05
247.93,-6.09
250.41,-6.13
252.92,-6.17
255.45,-6.21
258.00,-6.25
260.58,-6.28
263.19,-6.32
265.82,-6.35
268.48,-6.39
271.16,-6.41
273.87,-6.45
276.61,-6.48
279.38,-6.50
282.17,-6.53
284.99,-6.55
287.84,-6.58
290.72,-6.59
293.63,-6.61
296.57,-6.63
299.53,-6.65
302.53,-6.66
305.55,-6.68
308.61,-6.68
311.69,-6.69
314.81,-6.69
317.96,-6.70
321.14,-6.69
324.35,-6.70
327.59,-6.70
330.87,-6.69
334.18,-6.69
337.52,-6.68
340.90,-6.67
344.30,-6.66
347.75,-6.65
351.23,-6.63
354.74,-6.62
358.28,-6.61
361.87,-6.59
365.49,-6.57
369.14,-6.54
372.83,-6.52
376.56,-6.48
380.33,-6.46
384.13,-6.42
387.97,-6.40
391.85,-6.36
395.77,-6.33
399.73,-6.28
403.72,-6.25
407.76,-6.21
411.84,-6.16
415.96,-6.11
420.12,-6.06
424.32,-6.01
428.56,-5.96
432.85,-5.90
437.18,-5.84
441.55,-5.78
445.96,-5.72
450.42,-5.66
454.93,-5.61
459.48,-5.54
464.07,-5.48
468.71,-5.42
473.40,-5.35
478.13,-5.28
482.91,-5.22
487.74,-5.14
492.62,-5.07
497.55,-5.00
502.52,-4.93
507.55,-4.86
512.62,-4.79
517.75,-4.71
522.93,-4.64
528.16,-4.57
533.44,-4.49
538.77,-4.42
544.16,-4.34
549.60,-4.26
555.10,-4.18
560.65,-4.10
566.25,-4.01
571.92,-3.92
577.64,-3.84
583.41,-3.76
589.25,-3.66
595.14,-3.58
601.09,-3.49
607.10,-3.39
613.17,-3.30
619.30,-3.21
625.50,-3.11
631.75,-3.02
638.07,-2.92
644.45,-2.82
650.89,-2.73
657.40,-2.63
663.98,-2.54
670.62,-2.44
677.32,-2.35
684.10,-2.26
690.94,-2.16
697.85,-2.07
704.83,-1.97
711.87,-1.88
718.99,-1.78
726.18,-1.70
733.44,-1.60
740.78,-1.51
748.19,-1.41
755.67,-1.31
763.23,-1.21
770.86,-1.11
778.57,-1.01
786.35,-0.91
794.22,-0.81
802.16,-0.71
810.18,-0.62
818.28,-0.51
826.46,-0.44
834.73,-0.37
843.08,-0.31
851.51,-0.28
860.02,-0.27
868.62,-0.26
877.31,-0.27
886.08,-0.28
894.94,-0.28
903.89,-0.28
912.93,-0.27
922.06,-0.24
931.28,-0.22
940.59,-0.18
950.00,-0.16
959.50,-0.14
969.09,-0.12
978.78,-0.10
988.57,-0.07
998.46,-0.01
1008.44,0.07
1018.53,0.19
1028.71,0.33
1039.00,0.52
1049.39,0.71
1059.88,0.91
1070.48,1.11
1081.19,1.30
1092.00,1.48
1102.92,1.63
1113.95,1.75
1125.09,1.85
1136.34,1.92
1147.70,1.96
1159.18,1.99
1170.77,1.99
1182.48,1.98
1194.30,1.96
1206.25,1.94
1218.31,1.93
1230.49,1.91
1242.80,1.91
1255.22,1.93
1267.78,1.94
1280.45,1.96
1293.26,1.98
1306.19,1.99
1319.25,2.00
1332.45,2.02
1345.77,2.01
1359.23,2.01
1372.82,2.01
1386.55,1.99
1400.41,1.98
1414.42,1.96
1428.56,1.94
1442.85,1.92
1457.28,1.90
1471.85,1.89
1486.57,1.87
1501.43,1.85
1516.45,1.84
1531.61,1.83
1546.93,1.82
1562.40,1.81
1578.02,1.80
1593.80,1.79
1609.74,1.77
1625.84,1.75
1642.10,1.72
1658.52,1.69
1675.10,1.64
1691.85,1.59
1708.77,1.55
1725.86,1.50
1743.12,1.46
1760.55,1.43
1778.15,1.41
1795.94,1.43
1813.90,1.47
1832.03,1.53
1850.36,1.62
1868.86,1.71
1887.55,1.82
1906.42,1.93
1925.49,2.05
1944.74,2.17
1964.19,2.32
1983.83,2.49
2003.67,2.69
2023.71,2.93
2043.94,3.18
2064.38,3.43
2085.03,3.68
2105.88,3.90
2126.94,4.11
2148.20,4.28
2169.69,4.41
2191.38,4.51
2213.30,4.59
2235.43,4.65
2257.78,4.71
2280.36,4.76
2303.17,4.82
2326.20,4.89
2349.46,4.94
2372.95,5.00
2396.68,5.07
2420.65,5.13
2444.86,5.19
2469.31,5.24
2494.00,5.29
2518.94,5.33
2544.13,5.36
2569.57,5.37
2595.27,5.38
2621.22,5.37
2647.43,5.34
2673.90,5.30
2700.64,5.24
2727.65,5.16
2754.93,5.07
2782.48,4.94
2810.30,4.77
2838.40,4.58
2866.79,4.37
2895.46,4.10
2924.41,3.81
2953.65,3.50
2983.19,3.16
3013.02,2.83
3043.15,2.50
3073.58,2.19
3104.32,1.89
3135.36,1.59
3166.72,1.28
3198.38,0.95
3230.37,0.60
3262.67,0.19
3295.30,-0.26
3328.25,-0.75
3361.53,-1.29
3395.15,-1.85
3429.10,-2.44
3463.39,-3.04
3498.03,-3.63
3533.01,-4.22
3568.34,-4.80
3604.02,-5.37
3640.06,-5.93
3676.46,-6.48
3713.22,-6.97
3750.36,-7.40
3787.86,-7.79
3825.74,-8.09
3864.00,-8.28
3902.64,-8.41
3941.66,-8.46
3981.08,-8.38
4020.89,-8.23
4061.10,-7.95
4101.71,-7.52
4142.73,-6.98
4184.15,-6.36
4226.00,-5.65
4268.26,-4.92
4310.94,-4.22
4354.05,-3.62
4397.59,-3.18
4441.56,-2.89
4485.98,-2.81
4530.84,-2.96
4576.15,-3.24
4621.91,-3.64
4668.13,-4.13
4714.81,-4.62
4761.96,-5.10
4809.58,-5.52
4857.67,-5.87
4906.25,-6.19
4955.31,-6.39
5004.87,-6.54
5054.91,-6.64
5105.46,-6.67
5156.52,-6.64
5208.08,-6.57
5260.16,-6.44
5312.77,-6.25
5365.89,-6.02
5419.55,-5.75
5473.75,-5.43
5528.49,-5.11
5583.77,-4.77
5639.61,-4.45
5696.00,-4.15
5752.96,-3.88
5810.49,-3.65
5868.60,-3.45
5927.28,-3.28
5986.56,-3.12
6046.42,-2.98
6106.89,-2.83
6167.96,-2.68
6229.64,-2.50
6291.93,-2.31
6354.85,-2.11
6418.40,-1.90
6482.58,-1.67
6547.41,-1.46
6612.88,-1.24
6679.01,-1.02
6745.80,-0.81
6813.26,-0.57
6881.39,-0.31
6950.21,-0.03
7019.71,0.31
7089.91,0.72
7160.81,1.18
7232.41,1.72
7304.74,2.36
7377.79,3.06
7451.56,3.83
7526.08,4.70
7601.34,5.60
7677.35,6.51
7754.13,7.42
7831.67,8.26
7909.98,9.05
7989.08,9.73
8068.98,10.30
8149.67,10.77
8231.16,11.13
8313.47,11.34
8396.61,11.45
8480.57,11.45
8565.38,11.22
8651.03,10.85
8737.54,10.32
8824.92,9.52
8913.17,8.57
9002.30,7.51
9092.32,6.35
9183.25,5.19
9275.08,4.08
9367.83,3.08
9461.51,2.25
9556.12,1.53
9651.68,0.96
9748.20,0.51
9845.68,0.12
9944.14,-0.23
10043.58,-0.55
10144.02,-0.85
10245.46,-1.14
10347.91,-1.38
10451.39,-1.58
10555.91,-1.70
10661.46,-1.73
10768.08,-1.67
10875.76,-1.54
10984.52,-1.33
11094.36,-1.07
11205.31,-0.79
11317.36,-0.48
11430.53,-0.24
11544.84,-0.09
11660.29,-0.02
11776.89,-0.18
11894.66,-0.49
12013.60,-0.94
12133.74,-1.63
12255.08,-2.45
12377.63,-3.34
12501.41,-4.32
12626.42,-5.28
12752.68,-6.21
12880.21,-7.04
13009.01,-7.73
13139.10,-8.26
13270.49,-8.65
13403.20,-8.75
13537.23,-8.67
13672.60,-8.43
13809.33,-7.94
13947.42,-7.39
14086.90,-6.78
14227.77,-6.22
14370.04,-5.82
14513.74,-5.56
14658.88,-5.59
14805.47,-5.95
14953.52,-6.54
15103.06,-7.42
15254.09,-8.60
15406.63,-9.87
15560.70,-11.23
15716.30,-12.59
15873.47,-13.88
16032.20,-15.09
16192.52,-16.05
16354.45,-16.80
16517.99,-17.38
16683.17,-17.66
16850.01,-17.78
17018.51,-17.80
17188.69,-17.78
17360.58,-17.80
17534.18,-17.88
17709.53,-18.03
17886.62,-18.31
18065.49,-18.65
18246.14,-19.02
18428.60,-19.36
18612.89,-19.62
18799.02,-19.77
18987.01,-19.74
19176.88,-19.58
19368.65,-19.33
19562.33,-19.01
19757.96,-18.72
19955.54,-18.49
