frequency,raw,error,smoothed,error_smoothed,equalization,parametric_eq,equalized_raw,equalized_smoothed,target
20,7.15,0.39,7.17,0.41,-0.41,-0.36,6.75,6.76,6.77
21,7.24,0.49,7.22,0.47,-0.47,-0.42,6.78,6.76,6.76
22,7.29,0.55,7.27,0.53,-0.53,-0.48,6.77,6.75,6.75
23,7.32,0.59,7.32,0.59,-0.59,-0.54,6.74,6.74,6.74
24,7.35,0.63,7.37,0.65,-0.65,-0.61,6.71,6.72,6.73
25,7.40,0.69,7.42,0.71,-0.71,-0.68,6.70,6.71,6.71
26,7.44,0.74,7.47,0.77,-0.77,-0.75,6.68,6.70,6.70
27,7.50,0.82,7.51,0.83,-0.83,-0.83,6.68,6.68,6.69
28,7.56,0.89,7.55,0.89,-0.89,-0.90,6.68,6.67,6.67
29,7.61,0.96,7.60,0.95,-0.95,-0.97,6.67,6.65,6.65
30,7.65,1.02,7.64,1.01,-1.01,-1.03,6.65,6.63,6.64
31,7.69,1.08,7.68,1.06,-1.06,-1.09,6.63,6.61,6.62
32,7.72,1.13,7.72,1.12,-1.12,-1.15,6.60,6.59,6.60
33,7.75,1.18,7.76,1.18,-1.18,-1.20,6.57,6.58,6.58
34,7.78,1.23,7.79,1.24,-1.24,-1.24,6.54,6.56,6.56
35,7.81,1.28,7.83,1.30,-1.30,-1.29,6.52,6.53,6.53
36,7.85,1.35,7.86,1.36,-1.36,-1.34,6.50,6.51,6.51
37,7.89,1.41,7.89,1.42,-1.42,-1.39,6.48,6.48,6.48
38,7.93,1.48,7.93,1.47,-1.47,-1.45,6.46,6.45,6.46
39,7.96,1.54,7.96,1.54,-1.54,-1.51,6.43,6.42,6.43
40,7.99,1.60,7.99,1.60,-1.60,-1.57,6.40,6.39,6.40
41,8.02,1.66,8.02,1.66,-1.66,-1.64,6.36,6.36,6.37
42,8.05,1.72,8.06,1.73,-1.73,-1.72,6.33,6.33,6.34
43,8.08,1.78,8.10,1.80,-1.80,-1.80,6.29,6.30,6.30
44,8.11,1.85,8.13,1.86,-1.86,-1.88,6.25,6.27,6.27
45,8.15,1.92,8.16,1.93,-1.93,-1.98,6.23,6.23,6.23
46,8.18,1.99,8.19,1.99,-1.99,-2.07,6.19,6.19,6.20
47,8.21,2.05,8.21,2.06,-2.06,-2.17,6.15,6.15,6.16
48,8.24,2.12,8.24,2.13,-2.13,-2.28,6.12,6.12,6.12
49,8.28,2.20,8.27,2.19,-2.19,-2.39,6.09,6.08,6.08
50,8.33,2.29,8.30,2.26,-2.26,-2.50,6.08,6.04,6.04
51,8.36,2.36,8.32,2.32,-2.32,-2.61,6.04,6.00,6.00
52,8.34,2.39,8.34,2.39,-2.39,-2.72,5.96,5.95,5.96
53,8.30,2.39,8.36,2.45,-2.45,-2.83,5.86,5.91,5.91
54,8.33,2.47,8.38,2.51,-2.51,-2.93,5.82,5.86,5.87
55,8.39,2.57,8.40,2.58,-2.58,-3.03,5.81,5.82,5.82
56,8.44,2.67,8.42,2.65,-2.65,-3.13,5.80,5.77,5.78
57,8.45,2.72,8.44,2.71,-2.71,-3.22,5.74,5.72,5.73
58,8.44,2.76,8.46,2.78,-2.78,-3.30,5.66,5.68,5.68
59,8.44,2.81,8.48,2.85,-2.85,-3.38,5.59,5.63,5.63
60,8.49,2.91,8.51,2.93,-2.93,-3.44,5.57,5.58,5.58
61,8.53,3.00,8.53,3.00,-3.00,-3.50,5.53,5.53,5.53
62,8.57,3.09,8.56,3.08,-3.08,-3.55,5.50,5.48,5.48
63,8.60,3.17,8.58,3.15,-3.15,-3.58,5.45,5.43,5.43
64,8.61,3.23,8.60,3.23,-3.23,-3.61,5.39,5.38,5.38
65,8.63,3.31,8.62,3.30,-3.30,-3.64,5.33,5.32,5.33
66,8.64,3.37,8.64,3.38,-3.38,-3.65,5.27,5.27,5.28
67,8.65,3.43,8.67,3.45,-3.45,-3.66,5.21,5.22,5.22
68,8.67,3.50,8.69,3.52,-3.52,-3.67,5.15,5.17,5.17
69,8.68,3.57,8.71,3.59,-3.59,-3.67,5.09,5.12,5.12
70,8.70,3.64,8.71,3.66,-3.66,-3.66,5.05,5.06,5.06
71,8.72,3.72,8.72,3.72,-3.72,-3.66,5.00,5.00,5.01
72,8.74,3.79,8.73,3.78,-3.78,-3.66,4.96,4.94,4.95
73,8.77,3.87,8.73,3.84,-3.84,-3.65,4.93,4.89,4.90
74,8.77,3.93,8.74,3.90,-3.90,-3.65,4.87,4.84,4.85
75,8.75,3.96,8.75,3.96,-3.96,-3.65,4.79,4.78,4.79
76,8.74,4.01,8.75,4.02,-4.02,-3.65,4.72,4.73,4.74
77,8.72,4.04,8.75,4.08,-4.08,-3.65,4.65,4.68,4.68
78,8.72,4.10,8.75,4.13,-4.13,-3.66,4.59,4.62,4.63
79,8.72,4.15,8.75,4.18,-4.18,-3.66,4.54,4.57,4.57
80,8.74,4.22,8.75,4.24,-4.24,-3.68,4.51,4.51,4.52
81,8.75,4.29,8.75,4.29,-4.29,-3.69,4.47,4.46,4.47
82,8.75,4.34,8.74,4.33,-4.33,-3.71,4.42,4.40,4.41
83,8.75,4.39,8.73,4.38,-4.38,-3.73,4.37,4.35,4.36
84,8.74,4.44,8.73,4.43,-4.43,-3.76,4.31,4.30,4.31
85,8.74,4.49,8.72,4.48,-4.48,-3.79,4.27,4.25,4.25
86,8.71,4.51,8.72,4.52,-4.52,-3.82,4.19,4.20,4.20
87,8.70,4.55,8.71,4.56,-4.56,-3.86,4.14,4.15,4.15
88,8.68,4.58,8.70,4.61,-4.61,-3.90,4.08,4.10,4.10
89,8.67,4.63,8.69,4.65,-4.65,-3.95,4.03,4.04,4.05
90,8.66,4.67,8.68,4.68,-4.68,-3.99,3.98,3.99,4.00
91,8.65,4.71,8.66,4.72,-4.72,-4.05,3.94,3.94,3.95
92,8.64,4.75,8.64,4.75,-4.75,-4.10,3.90,3.90,3.90
93,8.63,4.79,8.63,4.78,-4.78,-4.16,3.86,3.85,3.85
94,8.61,4.81,8.60,4.81,-4.81,-4.22,3.81,3.80,3.80
95,8.59,4.84,8.58,4.83,-4.83,-4.28,3.76,3.75,3.75
96,8.57,4.87,8.55,4.85,-4.85,-4.34,3.72,3.70,3.70
97,8.53,4.88,8.52,4.87,-4.87,-4.41,3.66,3.65,3.66
98,8.49,4.88,8.49,4.89,-4.89,-4.48,3.60,3.60,3.61
99,8.46,4.90,8.46,4.91,-4.91,-4.55,3.56,3.55,3.57
100,8.41,4.89,8.43,4.92,-4.92,-4.62,3.49,3.50,3.52
101,8.36,4.89,8.39,4.93,-4.93,-4.69,3.43,3.46,3.47
102,8.33,4.90,8.35,4.94,-4.94,-4.76,3.39,3.41,3.43
104,8.29,4.95,8.31,4.95,-4.95,-4.91,3.34,3.36,3.34
105,8.26,4.96,8.27,4.96,-4.96,-4.98,3.30,3.31,3.30
106,8.24,4.98,8.23,4.97,-4.97,-5.05,3.28,3.26,3.26
107,8.20,4.98,8.19,4.97,-4.97,-5.12,3.23,3.22,3.22
108,8.16,4.99,8.15,4.97,-4.97,-5.18,3.19,3.18,3.18
109,8.11,4.97,8.11,4.98,-4.98,-5.25,3.14,3.13,3.14
110,8.06,4.96,8.07,4.98,-4.98,-5.31,3.09,3.09,3.10
111,8.01,4.95,8.03,4.98,-4.98,-5.37,3.04,3.05,3.06
112,7.97,4.95,7.99,4.97,-4.97,-5.43,3.00,3.02,3.02
113,7.93,4.95,7.94,4.97,-4.97,-5.48,2.97,2.97,2.99
114,7.90,4.96,7.89,4.96,-4.96,-5.53,2.94,2.93,2.95
115,7.86,4.95,7.84,4.95,-4.95,-5.57,2.91,2.89,2.91
117,7.78,4.94,7.79,4.94,-4.94,-5.64,2.85,2.85,2.84
118,7.74,4.94,7.74,4.93,-4.93,-5.67,2.82,2.81,2.81
119,7.69,4.92,7.68,4.91,-4.91,-5.69,2.78,2.77,2.77
120,7.64,4.90,7.62,4.89,-4.89,-5.71,2.75,2.73,2.74
121,7.58,4.88,7.57,4.88,-4.88,-5.72,2.71,2.69,2.71
123,7.48,4.84,7.51,4.86,-4.86,-5.72,2.63,2.65,2.64
124,7.42,4.81,7.45,4.84,-4.84,-5.72,2.59,2.61,2.61
125,7.37,4.79,7.39,4.81,-4.81,-5.70,2.56,2.58,2.58
126,7.32,4.77,7.33,4.79,-4.79,-5.69,2.54,2.54,2.55
128,7.23,4.74,7.26,4.76,-4.76,-5.63,2.48,2.50,2.49
129,7.18,4.72,7.19,4.73,-4.73,-5.60,2.46,2.47,2.47
130,7.14,4.71,7.13,4.70,-4.70,-5.56,2.45,2.43,2.44
131,7.09,4.68,7.06,4.66,-4.66,-5.51,2.43,2.39,2.41
133,6.99,4.64,6.98,4.63,-4.63,-5.41,2.37,2.36,2.36
134,6.93,4.60,6.91,4.59,-4.59,-5.35,2.35,2.33,2.33
135,6.86,4.56,6.84,4.55,-4.55,-5.29,2.32,2.30,2.31
137,6.74,4.49,6.76,4.50,-4.50,-5.16,2.24,2.26,2.26
138,6.68,4.45,6.69,4.46,-4.46,-5.09,2.23,2.23,2.23
140,6.57,4.39,6.61,4.41,-4.41,-4.95,2.16,2.19,2.19
141,6.51,4.35,6.53,4.37,-4.37,-4.87,2.15,2.16,2.16
142,6.45,4.31,6.45,4.32,-4.32,-4.79,2.14,2.13,2.14
144,6.35,4.25,6.37,4.27,-4.27,-4.64,2.08,2.10,2.10
145,6.30,4.23,6.29,4.22,-4.22,-4.56,2.08,2.07,2.08
147,6.21,4.18,6.21,4.17,-4.17,-4.40,2.04,2.04,2.04
148,6.15,4.14,6.14,4.13,-4.13,-4.32,2.03,2.01,2.02
150,6.05,4.07,6.07,4.08,-4.08,-4.15,1.97,1.98,1.98
151,6.00,4.04,5.99,4.04,-4.04,-4.07,1.97,1.96,1.96
153,5.91,3.99,5.92,3.99,-3.99,-3.91,1.92,1.93,1.92
154,5.86,3.96,5.85,3.95,-3.95,-3.83,1.92,1.90,1.91
156,5.77,3.90,5.78,3.91,-3.91,-3.68,1.87,1.87,1.87
157,5.72,3.87,5.71,3.87,-3.87,-3.60,1.86,1.85,1.86
159,5.63,3.81,5.65,3.83,-3.83,-3.45,1.80,1.82,1.82
160,5.60,3.80,5.59,3.79,-3.79,-3.37,1.81,1.79,1.81
162,5.51,3.74,5.53,3.76,-3.76,-3.22,1.75,1.77,1.78
164,5.45,3.71,5.47,3.73,-3.73,-3.08,1.73,1.75,1.75
165,5.41,3.68,5.42,3.70,-3.70,-3.01,1.72,1.72,1.73
167,5.35,3.65,5.37,3.67,-3.67,-2.87,1.68,1.70,1.71
169,5.30,3.63,5.32,3.64,-3.64,-2.74,1.66,1.68,1.68
170,5.27,3.61,5.27,3.61,-3.61,-2.67,1.66,1.66,1.67
172,5.22,3.58,5.22,3.59,-3.59,-2.54,1.64,1.64,1.64
174,5.17,3.56,5.17,3.56,-3.56,-2.42,1.62,1.61,1.62
175,5.13,3.53,5.12,3.52,-3.52,-2.36,1.61,1.60,1.60
177,5.08,3.50,5.06,3.49,-3.49,-2.24,1.60,1.58,1.58
179,5.01,3.46,5.00,3.44,-3.44,-2.13,1.57,1.56,1.56
181,4.93,3.40,4.94,3.40,-3.40,-2.01,1.54,1.54,1.54
183,4.84,3.33,4.87,3.35,-3.35,-1.91,1.50,1.52,1.52
184,4.79,3.29,4.79,3.29,-3.29,-1.85,1.51,1.50,1.51
186,4.70,3.22,4.71,3.22,-3.22,-1.75,1.48,1.49,1.49
188,4.62,3.16,4.61,3.15,-3.15,-1.65,1.48,1.47,1.47
190,4.51,3.06,4.51,3.06,-3.06,-1.55,1.45,1.45,1.45
192,4.42,2.99,4.40,2.97,-2.97,-1.46,1.45,1.43,1.43
194,4.30,2.89,4.29,2.88,-2.88,-1.37,1.43,1.41,1.41
196,4.18,2.79,4.16,2.77,-2.77,-1.28,1.41,1.39,1.40
198,4.05,2.67,4.04,2.66,-2.66,-1.19,1.39,1.38,1.38
200,3.90,2.54,3.91,2.54,-2.54,-1.10,1.36,1.37,1.37
202,3.75,2.40,3.77,2.42,-2.42,-1.02,1.34,1.35,1.35
204,3.60,2.27,3.62,2.28,-2.28,-0.94,1.32,1.34,1.34
206,3.45,2.13,3.47,2.15,-2.15,-0.86,1.31,1.32,1.32
208,3.30,1.99,3.31,2.01,-2.01,-0.79,1.30,1.31,1.31
210,3.15,1.86,3.15,1.86,-1.86,-0.71,1.29,1.29,1.30
212,3.01,1.73,2.99,1.72,-1.72,-0.64,1.30,1.28,1.29
214,2.85,1.58,2.83,1.57,-1.57,-0.57,1.29,1.26,1.27
216,2.70,1.44,2.67,1.42,-1.42,-0.50,1.28,1.25,1.26
218,2.54,1.29,2.51,1.27,-1.27,-0.44,1.27,1.24,1.25
221,2.30,1.07,2.35,1.12,-1.12,-0.34,1.18,1.23,1.23
223,2.15,0.93,2.20,0.98,-0.98,-0.28,1.18,1.22,1.22
225,2.01,0.80,2.04,0.83,-0.83,-0.22,1.18,1.21,1.21
227,1.87,0.67,1.89,0.69,-0.69,-0.16,1.18,1.20,1.20
229,1.75,0.56,1.74,0.55,-0.55,-0.10,1.20,1.18,1.20
232,1.57,0.39,1.59,0.42,-0.42,-0.02,1.16,1.17,1.18
234,1.45,0.28,1.45,0.28,-0.28,0.04,1.17,1.17,1.17
236,1.33,0.17,1.31,0.15,-0.15,0.09,1.18,1.16,1.16
239,1.17,0.02,1.18,0.03,-0.03,0.17,1.15,1.15,1.15
241,1.05,-0.09,1.04,-0.10,0.10,0.21,1.15,1.14,1.14
244,0.89,-0.24,0.92,-0.22,0.22,0.28,1.12,1.14,1.13
246,0.78,-0.34,0.79,-0.34,0.34,0.33,1.13,1.13,1.13
248,0.67,-0.45,0.65,-0.46,0.46,0.37,1.14,1.12,1.12
251,0.52,-0.59,0.53,-0.58,0.58,0.44,1.11,1.11,1.11
253,0.41,-0.69,0.40,-0.70,0.70,0.48,1.11,1.10,1.10
256,0.27,-0.82,0.28,-0.82,0.82,0.54,1.09,1.09,1.09
259,0.13,-0.95,0.15,-0.93,0.93,0.60,1.07,1.09,1.08
261,0.03,-1.04,0.03,-1.05,1.05,0.63,1.08,1.08,1.08
264,-0.10,-1.17,-0.09,-1.16,1.16,0.69,1.06,1.07,1.07
266,-0.19,-1.25,-0.21,-1.27,1.27,0.72,1.08,1.06,1.06
269,-0.33,-1.38,-0.32,-1.38,1.38,0.78,1.05,1.06,1.06
272,-0.45,-1.50,-0.44,-1.48,1.48,0.83,1.04,1.05,1.05
274,-0.53,-1.57,-0.55,-1.59,1.59,0.86,1.06,1.04,1.04
277,-0.65,-1.68,-0.65,-1.69,1.69,0.91,1.04,1.04,1.04
280,-0.77,-1.80,-0.76,-1.79,1.79,0.96,1.02,1.03,1.03
283,-0.88,-1.90,-0.86,-1.89,1.89,1.00,1.01,1.02,1.02
286,-0.99,-2.00,-0.96,-1.98,1.98,1.05,0.99,1.02,1.02
288,-1.05,-2.06,-1.06,-2.07,2.07,1.08,1.03,1.01,1.01
291,-1.15,-2.15,-1.15,-2.16,2.16,1.13,1.02,1.01,1.01
294,-1.25,-2.25,-1.25,-2.25,2.25,1.18,1.00,1.00,1.00
297,-1.34,-2.33,-1.33,-2.33,2.33,1.22,0.99,1.00,1.00
300,-1.42,-2.41,-1.42,-2.41,2.41,1.27,0.99,0.99,0.99
303,-1.50,-2.48,-1.50,-2.49,2.49,1.32,0.99,0.98,0.99
306,-1.58,-2.56,-1.58,-2.56,2.56,1.36,0.98,0.98,0.98
309,-1.65,-2.62,-1.65,-2.63,2.63,1.41,0.98,0.98,0.98
312,-1.72,-2.69,-1.72,-2.69,2.69,1.46,0.98,0.97,0.97
316,-1.81,-2.77,-1.79,-2.76,2.76,1.52,0.95,0.97,0.97
319,-1.86,-2.82,-1.85,-2.81,2.81,1.57,0.96,0.96,0.96
322,-1.92,-2.88,-1.91,-2.87,2.87,1.62,0.95,0.96,0.96
325,-1.97,-2.92,-1.96,-2.92,2.92,1.67,0.95,0.95,0.96
328,-2.01,-2.96,-2.01,-2.96,2.96,1.72,0.96,0.95,0.95
332,-2.07,-3.01,-2.06,-3.01,3.01,1.79,0.94,0.95,0.95
335,-2.11,-3.05,-2.10,-3.05,3.05,1.85,0.94,0.94,0.95
338,-2.14,-3.08,-2.14,-3.08,3.08,1.90,0.95,0.94,0.94
342,-2.18,-3.11,-2.18,-3.12,3.12,1.98,0.94,0.94,0.94
345,-2.21,-3.14,-2.21,-3.15,3.15,2.03,0.94,0.93,0.93
349,-2.25,-3.18,-2.24,-3.17,3.17,2.11,0.93,0.93,0.93
352,-2.27,-3.19,-2.27,-3.20,3.20,2.17,0.93,0.93,0.93
356,-2.30,-3.22,-2.29,-3.22,3.22,2.25,0.92,0.92,0.92
359,-2.32,-3.24,-2.32,-3.24,3.24,2.31,0.92,0.92,0.92
363,-2.34,-3.26,-2.34,-3.25,3.25,2.39,0.92,0.92,0.92
366,-2.36,-3.27,-2.35,-3.27,3.27,2.45,0.91,0.92,0.92
370,-2.38,-3.29,-2.37,-3.28,3.28,2.53,0.91,0.91,0.91
374,-2.39,-3.30,-2.38,-3.30,3.30,2.62,0.91,0.91,0.91
377,-2.40,-3.30,-2.40,-3.31,3.31,2.68,0.91,0.91,0.91
381,-2.41,-3.31,-2.41,-3.31,3.31,2.77,0.91,0.91,0.91
385,-2.42,-3.32,-2.42,-3.32,3.32,2.85,0.91,0.90,0.90
389,-2.43,-3.33,-2.43,-3.33,3.33,2.94,0.90,0.90,0.90
393,-2.44,-3.33,-2.44,-3.33,3.33,3.03,0.90,0.90,0.90
397,-2.45,-3.34,-2.44,-3.34,3.34,3.11,0.89,0.90,0.90
401,-2.45,-3.34,-2.45,-3.35,3.35,3.20,0.90,0.89,0.89
405,-2.46,-3.35,-2.46,-3.35,3.35,3.29,0.89,0.89,0.89
409,-2.47,-3.36,-2.47,-3.36,3.36,3.38,0.89,0.89,0.89
413,-2.48,-3.36,-2.47,-3.36,3.36,3.46,0.89,0.89,0.89
417,-2.48,-3.36,-2.48,-3.37,3.37,3.55,0.89,0.88,0.89
421,-2.49,-3.37,-2.49,-3.37,3.37,3.63,0.89,0.88,0.88
425,-2.50,-3.38,-2.50,-3.38,3.38,3.72,0.88,0.88,0.88
430,-2.51,-3.38,-2.51,-3.38,3.38,3.82,0.88,0.88,0.88
434,-2.52,-3.39,-2.51,-3.39,3.39,3.90,0.87,0.88,0.88
438,-2.53,-3.40,-2.52,-3.39,3.39,3.97,0.87,0.87,0.87
443,-2.53,-3.40,-2.52,-3.40,3.40,4.06,0.87,0.87,0.87
447,-2.54,-3.41,-2.53,-3.40,3.40,4.13,0.87,0.88,0.88
451,-2.54,-3.41,-2.53,-3.41,3.41,4.20,0.87,0.88,0.88
456,-2.54,-3.42,-2.53,-3.42,3.42,4.28,0.88,0.88,0.88
460,-2.54,-3.42,-2.54,-3.42,3.42,4.34,0.89,0.89,0.89
465,-2.54,-3.43,-2.54,-3.43,3.43,4.40,0.90,0.89,0.90
470,-2.54,-3.44,-2.54,-3.44,3.44,4.46,0.90,0.90,0.90
474,-2.55,-3.46,-2.54,-3.45,3.45,4.51,0.91,0.91,0.91
479,-2.55,-3.47,-2.54,-3.47,3.47,4.55,0.92,0.93,0.92
484,-2.55,-3.48,-2.55,-3.48,3.48,4.59,0.94,0.94,0.93
489,-2.55,-3.49,-2.56,-3.50,3.50,4.63,0.96,0.95,0.95
494,-2.56,-3.52,-2.57,-3.53,3.53,4.65,0.97,0.96,0.96
499,-2.57,-3.54,-2.58,-3.55,3.55,4.67,0.99,0.97,0.97
504,-2.58,-3.57,-2.60,-3.58,3.58,4.68,1.00,0.98,0.99
509,-2.60,-3.60,-2.61,-3.61,3.61,4.68,1.01,1.00,1.00
514,-2.62,-3.64,-2.63,-3.64,3.64,4.68,1.03,1.01,1.02
519,-2.65,-3.68,-2.64,-3.67,3.67,4.67,1.03,1.03,1.04
524,-2.68,-3.73,-2.66,-3.71,3.71,4.66,1.03,1.05,1.05
529,-2.70,-3.77,-2.67,-3.74,3.74,4.64,1.04,1.07,1.07
535,-2.71,-3.80,-2.68,-3.77,3.77,4.61,1.07,1.09,1.09
540,-2.72,-3.83,-2.69,-3.80,3.80,4.58,1.09,1.11,1.11
545,-2.71,-3.84,-2.70,-3.83,3.83,4.55,1.13,1.13,1.14
551,-2.70,-3.85,-2.71,-3.86,3.86,4.50,1.17,1.15,1.16
556,-2.70,-3.88,-2.71,-3.89,3.89,4.46,1.20,1.18,1.18
562,-2.70,-3.91,-2.71,-3.92,3.92,4.41,1.22,1.20,1.21
568,-2.71,-3.94,-2.71,-3.94,3.94,4.36,1.24,1.23,1.24
573,-2.71,-3.97,-2.70,-3.97,3.97,4.31,1.26,1.27,1.27
579,-2.71,-4.00,-2.70,-4.00,4.00,4.25,1.29,1.30,1.30
585,-2.71,-4.03,-2.69,-4.02,4.02,4.20,1.31,1.33,1.32
591,-2.70,-4.05,-2.69,-4.04,4.04,4.14,1.35,1.36,1.35
596,-2.69,-4.07,-2.68,-4.06,4.06,4.09,1.38,1.38,1.38
602,-2.67,-4.08,-2.68,-4.08,4.08,4.03,1.42,1.41,1.42
608,-2.65,-4.09,-2.67,-4.10,4.10,3.97,1.46,1.44,1.45
615,-2.64,-4.11,-2.66,-4.12,4.12,3.91,1.49,1.47,1.48
621,-2.63,-4.13,-2.64,-4.14,4.14,3.85,1.51,1.50,1.51
627,-2.63,-4.17,-2.62,-4.15,4.15,3.80,1.53,1.53,1.54
633,-2.62,-4.19,-2.60,-4.16,4.16,3.75,1.55,1.57,1.57
639,-2.61,-4.21,-2.57,-4.18,4.18,3.70,1.57,1.60,1.60
646,-2.58,-4.21,-2.55,-4.18,4.18,3.64,1.61,1.63,1.64
652,-2.55,-4.22,-2.53,-4.19,4.19,3.60,1.65,1.67,1.67
659,-2.50,-4.20,-2.50,-4.20,4.20,3.55,1.70,1.70,1.70
665,-2.46,-4.19,-2.47,-4.20,4.20,3.51,1.75,1.73,1.74
672,-2.42,-4.19,-2.44,-4.21,4.21,3.46,1.79,1.77,1.77
679,-2.39,-4.20,-2.41,-4.22,4.22,3.42,1.83,1.80,1.81
686,-2.37,-4.21,-2.38,-4.22,4.22,3.39,1.86,1.84,1.85
692,-2.35,-4.23,-2.34,-4.23,4.23,3.36,1.88,1.88,1.88
699,-2.33,-4.25,-2.31,-4.24,4.24,3.32,1.91,1.93,1.92
706,-2.31,-4.27,-2.28,-4.25,4.25,3.30,1.94,1.97,1.96
713,-2.28,-4.28,-2.26,-4.26,4.26,3.27,1.99,2.00,2.00
721,-2.24,-4.27,-2.24,-4.28,4.28,3.24,2.04,2.04,2.04
728,-2.21,-4.28,-2.22,-4.29,4.29,3.22,2.09,2.08,2.08
735,-2.18,-4.29,-2.20,-4.31,4.31,3.20,2.14,2.11,2.12
742,-2.16,-4.31,-2.18,-4.33,4.33,3.19,2.18,2.15,2.15
750,-2.15,-4.34,-2.16,-4.35,4.35,3.17,2.21,2.19,2.19
757,-2.14,-4.37,-2.14,-4.37,4.37,3.16,2.24,2.23,2.23
765,-2.14,-4.41,-2.12,-4.39,4.39,3.15,2.25,2.27,2.27
773,-2.12,-4.42,-2.10,-4.41,4.41,3.15,2.29,2.30,2.31
780,-2.11,-4.45,-2.08,-4.42,4.42,3.14,2.32,2.34,2.34
788,-2.08,-4.46,-2.06,-4.44,4.44,3.14,2.36,2.37,2.38
796,-2.05,-4.46,-2.04,-4.44,4.44,3.14,2.40,2.41,2.41
804,-2.01,-4.45,-2.01,-4.45,4.45,3.14,2.44,2.44,2.45
812,-1.97,-4.45,-1.98,-4.45,4.45,3.14,2.49,2.47,2.48
820,-1.93,-4.44,-1.94,-4.45,4.45,3.15,2.52,2.51,2.51
828,-1.90,-4.44,-1.90,-4.44,4.44,3.15,2.54,2.54,2.54
837,-1.85,-4.42,-1.85,-4.43,4.43,3.16,2.58,2.57,2.58
845,-1.80,-4.40,-1.80,-4.41,4.41,3.16,2.61,2.61,2.61
853,-1.75,-4.38,-1.74,-4.38,4.38,3.17,2.63,2.64,2.64
862,-1.69,-4.35,-1.68,-4.35,4.35,3.18,2.66,2.67,2.67
871,-1.62,-4.31,-1.62,-4.31,4.31,3.19,2.69,2.69,2.70
879,-1.56,-4.28,-1.55,-4.26,4.26,3.19,2.71,2.72,2.72
888,-1.48,-4.23,-1.47,-4.21,4.21,3.20,2.73,2.74,2.75
897,-1.39,-4.17,-1.38,-4.15,4.15,3.21,2.76,2.77,2.78
906,-1.29,-4.09,-1.29,-4.08,4.08,3.21,2.79,2.79,2.81
915,-1.19,-4.02,-1.18,-4.00,4.00,3.21,2.82,2.82,2.83
924,-1.09,-3.95,-1.07,-3.92,3.92,3.21,2.83,2.85,2.86
933,-0.98,-3.86,-0.95,-3.83,3.83,3.21,2.85,2.88,2.89
943,-0.84,-3.75,-0.83,-3.74,3.74,3.21,2.90,2.91,2.91
952,-0.71,-3.65,-0.70,-3.63,3.63,3.20,2.93,2.94,2.94
962,-0.56,-3.52,-0.56,-3.53,3.53,3.20,2.97,2.96,2.97
971,-0.42,-3.41,-0.43,-3.42,3.42,3.19,3.00,2.99,2.99
981,-0.27,-3.28,-0.29,-3.31,3.31,3.17,3.04,3.02,3.02
991,-0.13,-3.17,-0.15,-3.19,3.19,3.15,3.06,3.04,3.04
1001,0.01,-3.06,-0.01,-3.07,3.07,3.13,3.09,3.07,3.07
1011,0.14,-2.95,0.14,-2.96,2.96,3.11,3.10,3.10,3.10
1021,0.28,-2.84,0.29,-2.84,2.84,3.08,3.12,3.12,3.12
1031,0.41,-2.74,0.43,-2.72,2.72,3.05,3.13,3.15,3.15
1041,0.55,-2.63,0.58,-2.59,2.59,3.02,3.15,3.17,3.18
1052,0.72,-2.48,0.73,-2.47,2.47,2.98,3.20,3.20,3.21
1062,0.85,-2.38,0.88,-2.35,2.35,2.95,3.21,3.23,3.24
1073,1.02,-2.24,1.03,-2.23,2.23,2.90,3.26,3.26,3.26
1084,1.18,-2.11,1.18,-2.12,2.12,2.86,3.30,3.29,3.29
1094,1.31,-2.01,1.32,-2.00,2.00,2.81,3.32,3.32,3.32
1105,1.47,-1.88,1.47,-1.89,1.89,2.76,3.37,3.36,3.35
1116,1.61,-1.77,1.60,-1.79,1.79,2.71,3.40,3.39,3.38
1128,1.76,-1.65,1.74,-1.69,1.69,2.66,3.45,3.42,3.42
1139,1.88,-1.56,1.86,-1.59,1.59,2.60,3.48,3.46,3.45
1150,2.00,-1.48,1.98,-1.51,1.51,2.55,3.51,3.48,3.48
1162,2.10,-1.41,2.09,-1.42,1.42,2.49,3.53,3.51,3.51
1173,2.20,-1.34,2.19,-1.35,1.35,2.44,3.55,3.54,3.54
1185,2.29,-1.28,2.29,-1.28,1.28,2.38,3.57,3.57,3.58
1197,2.38,-1.22,2.39,-1.21,1.21,2.32,3.59,3.60,3.61
1209,2.47,-1.16,2.49,-1.15,1.15,2.26,3.62,3.63,3.64
1221,2.55,-1.12,2.58,-1.09,1.09,2.21,3.64,3.67,3.67
1233,2.63,-1.07,2.67,-1.03,1.03,2.15,3.67,3.70,3.70
1246,2.73,-1.00,2.75,-0.98,0.98,2.09,3.72,3.73,3.73
1258,2.81,-0.95,2.84,-0.93,0.93,2.04,3.75,3.77,3.77
1271,2.92,-0.88,2.91,-0.89,0.89,1.98,3.81,3.80,3.80
1283,3.01,-0.82,2.99,-0.84,0.84,1.93,3.86,3.83,3.84
1296,3.10,-0.77,3.07,-0.80,0.80,1.87,3.90,3.87,3.87
1309,3.17,-0.73,3.14,-0.76,0.76,1.82,3.94,3.90,3.91
1322,3.23,-0.71,3.21,-0.73,0.73,1.76,3.96,3.94,3.94
1335,3.28,-0.70,3.28,-0.70,0.70,1.71,3.98,3.98,3.98
1349,3.32,-0.69,3.35,-0.67,0.67,1.66,4.00,4.02,4.02
1362,3.37,-0.68,3.41,-0.65,0.65,1.61,4.03,4.06,4.05
1376,3.43,-0.66,3.46,-0.63,0.63,1.56,4.07,4.10,4.09
1390,3.50,-0.63,3.52,-0.61,0.61,1.51,4.12,4.13,4.13
1404,3.57,-0.59,3.56,-0.60,0.60,1.47,4.17,4.16,4.17
1418,3.63,-0.57,3.61,-0.59,0.59,1.42,4.22,4.20,4.21
1432,3.69,-0.55,3.66,-0.58,0.58,1.38,4.27,4.23,4.25
1446,3.73,-0.55,3.71,-0.57,0.57,1.34,4.30,4.27,4.28
1461,3.76,-0.56,3.76,-0.56,0.56,1.29,4.32,4.31,4.32
1475,3.79,-0.57,3.80,-0.55,0.55,1.25,4.34,4.35,4.36
1490,3.82,-0.58,3.85,-0.54,0.54,1.21,4.37,4.40,4.40
1505,3.87,-0.57,3.90,-0.53,0.53,1.18,4.41,4.44,4.44
1520,3.92,-0.56,3.95,-0.53,0.53,1.14,4.45,4.48,4.48
1535,3.98,-0.54,4.00,-0.52,0.52,1.10,4.50,4.52,4.52
1550,4.04,-0.52,4.04,-0.51,0.51,1.07,4.56,4.55,4.57
1566,4.10,-0.51,4.09,-0.50,0.50,1.03,4.61,4.60,4.61
1582,4.16,-0.49,4.14,-0.50,0.50,1.00,4.66,4.64,4.65
1597,4.21,-0.49,4.19,-0.49,0.49,0.97,4.70,4.68,4.70
1613,4.25,-0.49,4.25,-0.48,0.48,0.93,4.73,4.73,4.75
1629,4.30,-0.49,4.30,-0.47,0.47,0.90,4.78,4.77,4.79
1646,4.35,-0.48,4.35,-0.46,0.46,0.87,4.82,4.82,4.84
1662,4.39,-0.49,4.41,-0.45,0.45,0.84,4.85,4.86,4.88
1679,4.45,-0.48,4.46,-0.45,0.45,0.81,4.90,4.91,4.93
1696,4.50,-0.47,4.51,-0.44,0.44,0.79,4.94,4.95,4.98
1713,4.56,-0.46,4.57,-0.43,0.43,0.76,4.99,5.00,5.02
1730,4.61,-0.46,4.63,-0.42,0.42,0.73,5.03,5.05,5.07
1747,4.68,-0.44,4.69,-0.41,0.41,0.71,5.09,5.10,5.12
1764,4.75,-0.41,4.75,-0.40,0.40,0.68,5.15,5.15,5.17
1782,4.81,-0.40,4.81,-0.39,0.39,0.66,5.21,5.21,5.22
1800,4.88,-0.39,4.88,-0.38,0.38,0.63,5.27,5.26,5.27
1818,4.96,-0.36,4.94,-0.38,0.38,0.61,5.34,5.32,5.32
1836,5.01,-0.37,5.01,-0.37,0.37,0.59,5.39,5.38,5.38
1854,5.07,-0.37,5.08,-0.37,0.37,0.56,5.44,5.44,5.44
1873,5.14,-0.36,5.14,-0.36,0.36,0.54,5.51,5.51,5.50
1892,5.21,-0.36,5.21,-0.36,0.36,0.52,5.58,5.57,5.57
1911,5.28,-0.35,5.28,-0.36,0.36,0.50,5.64,5.64,5.64
1930,5.35,-0.36,5.35,-0.36,0.36,0.48,5.71,5.71,5.71
1949,5.43,-0.35,5.42,-0.36,0.36,0.46,5.79,5.78,5.79
1969,5.49,-0.37,5.50,-0.35,0.35,0.43,5.85,5.86,5.87
1988,5.56,-0.38,5.59,-0.35,0.35,0.42,5.92,5.94,5.95
2008,5.65,-0.38,5.67,-0.35,0.35,0.40,6.01,6.02,6.03
2028,5.73,-0.39,5.76,-0.35,0.35,0.38,6.09,6.11,6.12
2048,5.84,-0.37,5.85,-0.36,0.36,0.36,6.20,6.21,6.22
