frequency,raw
20,-0.67
21,-0.37
22,-0.09
23,0.18
24,0.43
25,0.67
26,0.90
27,1.11
28,1.31
29,1.50
30,1.67
31,1.80
32,1.93
33,2.06
34,2.19
35,2.30
36,2.40
37,2.49
38,2.56
39,2.63
40,2.71
41,2.77
42,2.84
43,2.91
44,2.95
45,3.01
46,3.06
47,3.09
48,3.12
49,3.14
50,3.16
51,3.18
52,3.22
53,3.26
54,3.30
55,3.33
56,3.36
57,3.39
58,3.41
59,3.44
60,3.48
61,3.51
62,3.53
63,3.56
64,3.58
65,3.59
66,3.59
67,3.59
68,3.58
69,3.57
70,3.57
71,3.57
72,3.57
73,3.57
74,3.57
75,3.57
76,3.57
77,3.57
78,3.57
79,3.57
80,3.57
81,3.57
82,3.57
83,3.57
84,3.57
85,3.57
86,3.58
87,3.58
88,3.59
89,3.59
90,3.58
91,3.56
92,3.54
93,3.51
94,3.48
95,3.45
96,3.42
97,3.38
98,3.35
99,3.32
100,3.29
101,3.27
102,3.25
104,3.23
105,3.22
106,3.22
107,3.23
108,3.24
109,3.24
110,3.25
111,3.25
112,3.26
113,3.26
114,3.26
115,3.25
117,3.24
118,3.21
119,3.19
120,3.16
121,3.13
123,3.09
124,3.06
125,3.02
126,2.99
128,2.96
129,2.94
130,2.92
131,2.91
133,2.90
134,2.90
135,2.92
137,2.93
138,2.94
140,2.94
141,2.92
142,2.90
144,2.88
145,2.85
147,2.82
148,2.78
150,2.75
151,2.71
153,2.68
154,2.65
156,2.62
157,2.60
159,2.58
160,2.57
162,2.58
164,2.59
165,2.61
167,2.62
169,2.61
170,2.59
172,2.57
174,2.55
175,2.52
177,2.48
179,2.45
181,2.42
183,2.38
184,2.35
186,2.32
188,2.29
190,2.27
192,2.26
194,2.25
196,2.25
198,2.26
200,2.28
202,2.29
204,2.29
206,2.29
208,2.27
210,2.25
212,2.23
214,2.20
216,2.17
218,2.13
221,2.10
223,2.06
225,2.03
227,2.00
229,1.97
232,1.95
234,1.93
236,1.92
239,1.92
241,1.93
244,1.94
246,1.94
248,1.95
251,1.95
253,1.95
256,1.95
259,1.95
261,1.95
264,1.95
266,1.95
269,1.95
272,1.95
274,1.95
277,1.95
280,1.95
283,1.95
286,1.95
288,1.95
291,1.95
294,1.95
297,1.95
300,1.95
303,1.95
306,1.95
309,1.95
312,1.95
316,1.95
319,1.95
322,1.95
325,1.95
328,1.95
332,1.95
335,1.95
338,1.95
342,1.95
345,1.95
349,1.95
352,1.95
356,1.95
359,1.95
363,1.95
366,1.96
370,1.96
374,1.97
377,1.96
381,1.95
385,1.93
389,1.91
393,1.88
397,1.85
401,1.82
405,1.79
409,1.75
413,1.72
417,1.69
421,1.66
425,1.64
430,1.62
434,1.61
438,1.60
443,1.60
447,1.61
451,1.62
456,1.62
460,1.62
465,1.62
470,1.62
474,1.63
479,1.63
484,1.64
489,1.64
494,1.64
499,1.63
504,1.61
509,1.58
514,1.55
519,1.52
524,1.49
529,1.45
535,1.42
540,1.39
545,1.37
551,1.35
556,1.33
562,1.31
568,1.28
573,1.26
579,1.24
585,1.22
591,1.20
596,1.17
602,1.13
608,1.10
615,1.07
621,1.04
627,1.02
633,1.00
639,0.98
646,0.96
652,0.95
659,0.93
665,0.91
672,0.89
679,0.86
686,0.83
692,0.80
699,0.78
706,0.75
713,0.72
721,0.69
728,0.65
735,0.61
742,0.58
750,0.55
757,0.52
765,0.49
773,0.46
780,0.43
788,0.40
796,0.37
804,0.34
812,0.32
820,0.31
828,0.30
837,0.31
845,0.33
853,0.34
862,0.34
871,0.33
879,0.32
888,0.29
897,0.27
906,0.23
915,0.20
924,0.17
933,0.13
943,0.10
952,0.07
962,0.04
971,0.02
981,0.01
991,0.00
1001,-0.00
1011,-0.00
1021,-0.01
1031,-0.02
1041,-0.04
1052,-0.06
1062,-0.09
1073,-0.13
1084,-0.16
1094,-0.20
1105,-0.23
1116,-0.26
1128,-0.29
1139,-0.31
1150,-0.33
1162,-0.34
1173,-0.35
1185,-0.34
1197,-0.33
1209,-0.33
1221,-0.32
1233,-0.32
1246,-0.32
1258,-0.32
1271,-0.32
1283,-0.33
1296,-0.33
1309,-0.34
1322,-0.34
1335,-0.34
1349,-0.33
1362,-0.31
1376,-0.29
1390,-0.26
1404,-0.23
1418,-0.20
1432,-0.17
1446,-0.14
1461,-0.12
1475,-0.09
1490,-0.06
1505,-0.02
1520,0.01
1535,0.05
1550,0.08
1566,0.11
1582,0.13
1597,0.15
1613,0.18
1629,0.21
1646,0.26
1662,0.31
1679,0.36
1696,0.41
1713,0.45
1730,0.49
1747,0.52
1764,0.54
1782,0.56
1800,0.58
1818,0.60
1836,0.62
1854,0.65
1873,0.67
1892,0.69
1911,0.71
1930,0.73
1949,0.76
1969,0.79
1988,0.82
2008,0.86
2028,0.89
2048,0.92
2069,0.95
2090,0.97
2111,0.99
2132,0.99
2153,1.00
2175,0.99
2196,0.98
2218,0.97
2240,0.97
2263,0.97
2285,0.97
2308,0.97
2331,0.97
2355,0.97
2378,0.97
2402,0.97
2426,0.97
2450,0.97
2475,0.97
2500,0.97
2525,0.97
2550,0.97
2575,0.97
2601,0.98
2627,0.99
2653,1.00
2680,0.99
2707,0.98
2734,0.96
2761,0.94
2789,0.91
2817,0.88
2845,0.85
2873,0.82
2902,0.79
2931,0.77
2960,0.74
2990,0.71
3020,0.67
3050,0.63
3080,0.60
3111,0.58
3142,0.56
3174,0.53
3206,0.50
3238,0.45
3270,0.39
3303,0.34
3336,0.28
3369,0.22
3403,0.17
3437,0.12
3471,0.08
3506,0.06
3541,0.03
3576,-0.00
3612,-0.04
3648,-0.06
3685,-0.06
3721,-0.05
3759,-0.02
3796,0.02
3834,0.07
3873,0.14
3911,0.22
3950,0.33
3990,0.46
4030,0.60
4070,0.77
4111,0.96
4152,1.17
4193,1.39
4235,1.60
4278,1.82
4321,2.03
4364,2.24
4407,2.45
4451,2.67
4496,2.87
4541,3.06
4586,3.22
4632,3.37
4679,3.52
4725,3.63
4773,3.73
4820,3.81
4868,3.87
4917,3.90
4966,3.92
5016,3.91
5066,3.88
5117,3.81
5168,3.71
5220,3.59
5272,3.45
5325,3.27
5378,3.07
5432,2.84
5486,2.57
5541,2.29
5596,1.97
5652,1.62
5709,1.24
5766,0.83
5823,0.40
5882,-0.05
5940,-0.51
6000,-0.98
6060,-1.45
6120,-1.91
6182,-2.38
6244,-2.83
6306,-3.26
6369,-3.67
6433,-4.05
6497,-4.40
6562,-4.73
6628,-5.05
6694,-5.35
6761,-5.64
6828,-5.93
6897,-6.21
6966,-6.49
7035,-6.75
7106,-7.00
7177,-7.24
7249,-7.46
7321,-7.68
7394,-7.88
7468,-8.07
7543,-8.23
7618,-8.37
7694,-8.49
7771,-8.59
7849,-8.66
7928,-8.71
8007,-8.75
8087,-8.78
8168,-8.79
8250,-8.78
8332,-8.75
8415,-8.69
8499,-8.61
8584,-8.52
8670,-8.38
8757,-8.24
8845,-8.06
8933,-7.86
9022,-7.63
9113,-7.37
9204,-7.08
9296,-6.77
9389,-6.42
9483,-6.04
9577,-5.63
9673,-5.19
9770,-4.71
9868,-4.19
9966,-3.64
10066,-3.07
10167,-2.49
10268,-1.93
10371,-1.37
10475,-0.83
10579,-0.30
10685,0.18
10792,0.63
10900,1.03
11009,1.39
11119,1.70
11230,1.96
11343,2.17
11456,2.33
11571,2.44
11686,2.52
11803,2.56
11921,2.58
12040,2.58
12161,2.54
12282,2.47
12405,2.36
12529,2.21
12655,2.00
12781,1.76
12909,1.46
13038,1.12
13168,0.73
13300,0.29
13433,-0.19
13567,-0.71
13703,-1.25
13840,-1.82
13978,-2.41
14118,-3.01
14259,-3.60
14402,-4.19
14546,-4.77
14692,-5.33
14838,-5.88
14987,-6.44
15137,-6.99
15288,-7.55
15441,-8.12
15595,-8.68
15751,-9.20
15909,-9.69
16068,-10.15
16229,-10.58
16391,-10.95
16555,-11.27
16720,-11.54
16888,-11.79
17056,-12.00
17227,-12.18
17399,-12.33
17573,-12.46
17749,-12.61
17926,-12.76
18106,-12.95
18287,-13.16
18470,-13.40
18654,-13.64
18841,-13.90
19029,-14.17
19220,-14.45
19412,-14.75
19606,-15.06
19802,-15.38
20000,-15.72
