frequency,raw,error,smoothed,error_smoothed,equalization,parametric_eq,fixed_band_eq,equalized_raw,equalized_smoothed,target
20.00,-0.74,-5.48,-0.75,-5.48,5.47,4.53,1.60,4.73,4.73,4.74
20.20,-0.67,-5.40,-0.67,-5.39,5.39,4.51,1.65,4.72,4.72,4.73
20.40,-0.59,-5.31,-0.59,-5.31,5.31,4.48,1.70,4.72,4.72,4.72
20.61,-0.52,-5.24,-0.52,-5.23,5.23,4.45,1.75,4.71,4.71,4.72
20.81,-0.45,-5.15,-0.45,-5.15,5.16,4.43,1.80,4.71,4.71,4.70
21.02,-0.38,-5.08,-0.39,-5.08,5.10,4.40,1.86,4.71,4.71,4.70
21.23,-0.33,-5.02,-0.33,-5.02,5.03,4.37,1.91,4.70,4.70,4.68
21.44,-0.29,-4.99,-0.29,-4.98,4.97,4.34,1.97,4.68,4.69,4.69
21.66,-0.24,-4.93,-0.24,-4.92,4.92,4.31,2.03,4.68,4.68,4.68
21.87,-0.20,-4.87,-0.20,-4.87,4.87,4.29,2.09,4.67,4.68,4.67
22.09,-0.15,-4.81,-0.16,-4.82,4.83,4.26,2.15,4.68,4.67,4.66
22.31,-0.12,-4.78,-0.12,-4.78,4.78,4.23,2.22,4.66,4.67,4.66
22.54,-0.08,-4.73,-0.09,-4.74,4.74,4.20,2.28,4.66,4.65,4.65
22.76,-0.05,-4.70,-0.05,-4.70,4.69,4.17,2.35,4.64,4.64,4.65
22.99,-0.01,-4.65,-0.00,-4.65,4.63,4.14,2.42,4.62,4.63,4.64
23.22,0.05,-4.58,0.05,-4.59,4.58,4.11,2.49,4.63,4.63,4.63
23.45,0.12,-4.52,0.11,-4.52,4.52,4.08,2.56,4.64,4.63,4.64
23.69,0.18,-4.45,0.18,-4.45,4.46,4.05,2.64,4.64,4.64,4.63
23.92,0.25,-4.38,0.25,-4.39,4.39,4.02,2.71,4.64,4.64,4.63
24.16,0.31,-4.33,0.31,-4.33,4.33,3.99,2.79,4.64,4.64,4.64
24.40,0.38,-4.27,0.38,-4.27,4.26,3.96,2.87,4.64,4.64,4.65
24.65,0.44,-4.21,0.44,-4.21,4.20,3.93,2.95,4.64,4.64,4.65
24.89,0.50,-4.15,0.50,-4.15,4.14,3.90,3.03,4.64,4.64,4.65
25.14,0.56,-4.09,0.56,-4.09,4.09,3.86,3.11,4.65,4.64,4.65
25.39,0.61,-4.04,0.61,-4.03,4.04,3.83,3.19,4.65,4.65,4.64
25.65,0.66,-3.99,0.66,-3.98,4.00,3.80,3.27,4.66,4.67,4.64
25.91,0.71,-3.95,0.70,-3.95,3.97,3.77,3.35,4.68,4.67,4.65
26.16,0.73,-3.93,0.72,-3.93,3.95,3.74,3.43,4.68,4.67,4.66
26.43,0.73,-3.93,0.73,-3.93,3.93,3.70,3.51,4.66,4.66,4.66
26.69,0.74,-3.92,0.73,-3.93,3.91,3.67,3.58,4.65,4.65,4.66
26.96,0.74,-3.92,0.75,-3.91,3.90,3.64,3.66,4.63,4.64,4.66
27.23,0.77,-3.89,0.77,-3.89,3.87,3.60,3.73,4.64,4.65,4.66
27.50,0.81,-3.85,0.80,-3.86,3.85,3.57,3.81,4.66,4.65,4.66
27.77,0.85,-3.82,0.85,-3.81,3.81,3.54,3.87,4.66,4.66,4.67
28.05,0.89,-3.78,0.89,-3.77,3.76,3.50,3.94,4.65,4.66,4.66
28.33,0.95,-3.70,0.94,-3.71,3.70,3.47,4.00,4.65,4.65,4.65
28.62,1.00,-3.65,1.00,-3.66,3.64,3.43,4.06,4.64,4.64,4.65
28.90,1.06,-3.60,1.06,-3.60,3.58,3.40,4.11,4.64,4.64,4.66
29.19,1.13,-3.53,1.13,-3.53,3.53,3.37,4.15,4.65,4.66,4.66
29.48,1.20,-3.46,1.21,-3.45,3.48,3.33,4.19,4.68,4.69,4.66
29.78,1.28,-3.38,1.27,-3.39,3.45,3.30,4.23,4.73,4.72,4.66
30.08,1.32,-3.35,1.30,-3.36,3.42,3.26,4.25,4.74,4.71,4.66
30.38,1.28,-3.37,1.28,-3.38,3.38,3.23,4.27,4.66,4.66,4.65
30.68,1.25,-3.39,1.25,-3.40,3.35,3.19,4.29,4.59,4.59,4.64
30.99,1.21,-3.43,1.24,-3.39,3.31,3.15,4.29,4.52,4.55,4.64
31.30,1.30,-3.33,1.30,-3.33,3.27,3.12,4.29,4.57,4.57,4.63
31.61,1.40,-3.23,1.39,-3.23,3.23,3.08,4.28,4.63,4.62,4.63
31.93,1.50,-3.12,1.48,-3.14,3.19,3.05,4.26,4.68,4.66,4.61
32.24,1.53,-3.08,1.53,-3.08,3.14,3.01,4.24,4.67,4.67,4.61
32.57,1.54,-3.06,1.55,-3.05,3.09,2.97,4.21,4.63,4.64,4.60
32.89,1.56,-3.04,1.56,-3.04,3.05,2.94,4.17,4.61,4.61,4.60
33.22,1.57,-3.03,1.57,-3.03,3.01,2.90,4.12,4.58,4.58,4.59
33.55,1.59,-3.00,1.58,-3.01,2.99,2.86,4.07,4.57,4.57,4.59
33.89,1.60,-3.00,1.61,-2.99,2.96,2.82,4.01,4.56,4.57,4.60
34.23,1.64,-2.95,1.64,-2.95,2.93,2.79,3.95,4.57,4.57,4.59
34.57,1.69,-2.90,1.69,-2.90,2.90,2.75,3.88,4.58,4.58,4.58
34.92,1.74,-2.84,1.73,-2.85,2.85,2.71,3.81,4.59,4.59,4.58
35.27,1.78,-2.81,1.78,-2.80,2.81,2.67,3.73,4.58,4.59,4.59
35.62,1.82,-2.76,1.82,-2.76,2.76,2.64,3.66,4.58,4.58,4.57
35.97,1.87,-2.70,1.86,-2.71,2.71,2.60,3.57,4.58,4.57,4.57
36.33,1.89,-2.67,1.89,-2.66,2.67,2.56,3.49,4.56,4.57,4.56
36.70,1.92,-2.63,1.92,-2.63,2.64,2.52,3.40,4.56,4.56,4.54
37.06,1.94,-2.59,1.93,-2.60,2.61,2.48,3.31,4.55,4.54,4.53
37.43,1.94,-2.57,1.94,-2.57,2.58,2.44,3.22,4.52,4.52,4.51
37.81,1.95,-2.54,1.95,-2.54,2.54,2.40,3.13,4.49,4.49,4.49
38.19,1.96,-2.51,1.95,-2.52,2.49,2.36,3.04,4.45,4.44,4.47
38.57,1.97,-2.48,1.96,-2.48,2.44,2.32,2.95,4.40,4.40,4.44
38.95,1.98,-2.44,2.00,-2.42,2.38,2.28,2.86,4.36,4.38,4.42
39.34,2.06,-2.33,2.06,-2.33,2.32,2.24,2.77,4.37,4.38,4.39
39.74,2.15,-2.22,2.14,-2.23,2.26,2.20,2.67,4.41,4.39,4.37
40.14,2.21,-2.14,2.20,-2.15,2.20,2.16,2.58,4.41,4.40,4.35
40.54,2.22,-2.10,2.23,-2.10,2.15,2.12,2.50,4.37,4.38,4.32
40.94,2.23,-2.07,2.22,-2.08,2.10,2.08,2.41,4.33,4.32,4.29
41.35,2.21,-2.07,2.20,-2.07,2.05,2.04,2.32,4.26,4.25,4.28
41.76,2.18,-2.06,2.19,-2.06,2.01,1.99,2.23,4.19,4.20,4.24
42.18,2.20,-2.03,2.21,-2.02,1.97,1.95,2.15,4.17,4.18,4.23
42.60,2.26,-1.95,2.25,-1.95,1.93,1.91,2.06,4.19,4.19,4.21
43.03,2.32,-1.87,2.31,-1.87,1.89,1.87,1.98,4.21,4.20,4.18
43.46,2.36,-1.80,2.36,-1.80,1.84,1.82,1.90,4.20,4.20,4.16
43.90,2.39,-1.75,2.38,-1.76,1.79,1.78,1.82,4.18,4.17,4.14
44.33,2.39,-1.72,2.38,-1.74,1.73,1.74,1.74,4.12,4.11,4.11
44.78,2.37,-1.72,2.39,-1.71,1.68,1.69,1.67,4.04,4.06,4.09
45.23,2.40,-1.68,2.41,-1.65,1.63,1.65,1.59,4.02,4.04,4.08
45.68,2.47,-1.57,2.46,-1.58,1.58,1.60,1.52,4.05,4.04,4.04
46.13,2.52,-1.48,2.50,-1.51,1.53,1.56,1.44,4.05,4.04,4.00
46.60,2.52,-1.45,2.52,-1.45,1.48,1.51,1.37,4.00,4.00,3.97
47.06,2.52,-1.42,2.52,-1.42,1.42,1.46,1.30,3.94,3.94,3.94
47.53,2.52,-1.39,2.51,-1.39,1.36,1.42,1.24,3.88,3.87,3.91
48.01,2.52,-1.35,2.54,-1.32,1.30,1.37,1.17,3.81,3.84,3.86
48.49,2.58,-1.25,2.58,-1.25,1.23,1.32,1.10,3.81,3.82,3.82
48.97,2.65,-1.13,2.62,-1.16,1.17,1.27,1.04,3.82,3.79,3.78
49.46,2.65,-1.10,2.65,-1.09,1.11,1.22,0.98,3.76,3.76,3.75
49.96,2.65,-1.04,2.67,-1.03,1.05,1.17,0.91,3.70,3.71,3.69
50.46,2.68,-0.98,2.68,-0.98,0.99,1.12,0.85,3.67,3.67,3.66
50.96,2.71,-0.92,2.70,-0.93,0.94,1.07,0.79,3.65,3.64,3.63
51.47,2.71,-0.89,2.71,-0.88,0.90,1.02,0.73,3.60,3.61,3.59
51.99,2.71,-0.84,2.71,-0.85,0.85,0.97,0.68,3.56,3.56,3.55
52.51,2.71,-0.81,2.71,-0.81,0.81,0.91,0.62,3.51,3.51,3.52
53.03,2.71,-0.78,2.71,-0.78,0.75,0.86,0.56,3.46,3.46,3.49
53.56,2.72,-0.73,2.72,-0.73,0.69,0.80,0.51,3.41,3.41,3.45
54.10,2.73,-0.68,2.75,-0.66,0.63,0.75,0.45,3.36,3.38,3.40
54.64,2.80,-0.57,2.79,-0.57,0.57,0.69,0.40,3.37,3.36,3.37
55.18,2.85,-0.47,2.84,-0.48,0.50,0.63,0.35,3.35,3.34,3.32
55.74,2.88,-0.41,2.88,-0.41,0.44,0.58,0.30,3.32,3.32,3.29
56.29,2.90,-0.36,2.90,-0.36,0.39,0.52,0.25,3.29,3.28,3.26
56.86,2.90,-0.33,2.90,-0.32,0.34,0.46,0.20,3.24,3.24,3.23
57.42,2.90,-0.28,2.90,-0.29,0.30,0.40,0.15,3.20,3.20,3.18
58.00,2.90,-0.26,2.90,-0.27,0.27,0.34,0.10,3.17,3.17,3.16
58.58,2.90,-0.24,2.90,-0.24,0.24,0.28,0.06,3.14,3.14,3.14
59.16,2.90,-0.21,2.90,-0.22,0.20,0.21,0.01,3.10,3.10,3.11
59.76,2.90,-0.18,2.90,-0.18,0.15,0.15,-0.03,3.05,3.05,3.08
60.35,2.91,-0.12,2.91,-0.13,0.09,0.09,-0.08,3.00,3.00,3.03
60.96,2.93,-0.06,2.94,-0.05,0.02,0.03,-0.12,2.95,2.96,2.99
61.57,2.99,0.05,2.99,0.05,-0.05,-0.04,-0.16,2.93,2.93,2.94
62.18,3.04,0.16,3.03,0.15,-0.13,-0.10,-0.20,2.91,2.91,2.88
62.80,3.08,0.25,3.07,0.24,-0.20,-0.16,-0.25,2.88,2.87,2.83
63.43,3.09,0.31,3.09,0.30,-0.27,-0.23,-0.29,2.82,2.81,2.78
64.07,3.09,0.34,3.09,0.35,-0.34,-0.29,-0.33,2.75,2.76,2.75
64.71,3.09,0.39,3.09,0.39,-0.39,-0.35,-0.37,2.70,2.70,2.70
65.35,3.09,0.43,3.09,0.43,-0.44,-0.42,-0.41,2.65,2.65,2.66
66.01,3.09,0.47,3.09,0.47,-0.48,-0.48,-0.44,2.61,2.61,2.61
66.67,3.09,0.50,3.09,0.51,-0.51,-0.54,-0.48,2.57,2.57,2.59
67.33,3.09,0.56,3.09,0.56,-0.55,-0.60,-0.52,2.54,2.54,2.53
68.01,3.09,0.60,3.09,0.60,-0.59,-0.65,-0.56,2.50,2.50,2.49
68.69,3.09,0.65,3.09,0.65,-0.64,-0.71,-0.60,2.45,2.45,2.43
69.37,3.09,0.69,3.08,0.69,-0.70,-0.77,-0.63,2.39,2.39,2.40
70.07,3.09,0.74,3.08,0.73,-0.76,-0.82,-0.67,2.32,2.32,2.35
70.77,3.08,0.77,3.09,0.79,-0.84,-0.87,-0.71,2.24,2.26,2.31
71.48,3.13,0.87,3.14,0.89,-0.91,-0.92,-0.75,2.22,2.23,2.26
72.19,3.21,1.00,3.21,1.00,-0.99,-0.97,-0.79,2.22,2.22,2.20
72.91,3.29,1.13,3.26,1.10,-1.06,-1.02,-0.82,2.23,2.20,2.16
73.64,3.29,1.18,3.29,1.18,-1.13,-1.07,-0.86,2.16,2.16,2.11
74.38,3.28,1.21,3.29,1.22,-1.20,-1.12,-0.90,2.08,2.09,2.07
75.12,3.28,1.25,3.28,1.25,-1.25,-1.16,-0.94,2.02,2.02,2.02
75.87,3.28,1.28,3.28,1.29,-1.30,-1.21,-0.98,1.98,1.98,1.99
76.63,3.28,1.32,3.28,1.32,-1.34,-1.25,-1.02,1.94,1.94,1.95
77.40,3.28,1.36,3.28,1.36,-1.37,-1.29,-1.07,1.91,1.91,1.92
78.17,3.28,1.40,3.28,1.39,-1.39,-1.34,-1.11,1.88,1.88,1.88
78.95,3.28,1.42,3.28,1.42,-1.42,-1.38,-1.15,1.85,1.85,1.86
79.74,3.28,1.46,3.28,1.46,-1.46,-1.42,-1.20,1.82,1.82,1.82
80.54,3.28,1.49,3.28,1.49,-1.49,-1.47,-1.24,1.79,1.79,1.79
81.35,3.28,1.53,3.28,1.52,-1.53,-1.51,-1.29,1.75,1.75,1.75
82.16,3.28,1.55,3.28,1.56,-1.56,-1.55,-1.34,1.72,1.72,1.73
82.98,3.28,1.59,3.28,1.59,-1.59,-1.60,-1.38,1.69,1.69,1.69
83.81,3.28,1.63,3.28,1.63,-1.62,-1.64,-1.43,1.65,1.65,1.65
84.65,3.28,1.67,3.28,1.67,-1.66,-1.69,-1.48,1.62,1.62,1.61
85.50,3.28,1.72,3.28,1.71,-1.70,-1.74,-1.54,1.58,1.58,1.56
86.35,3.28,1.75,3.27,1.74,-1.74,-1.78,-1.59,1.54,1.53,1.53
87.22,3.27,1.77,3.26,1.76,-1.79,-1.83,-1.64,1.48,1.47,1.50
88.09,3.25,1.79,3.27,1.81,-1.84,-1.88,-1.70,1.41,1.44,1.46
88.97,3.29,1.86,3.30,1.88,-1.89,-1.92,-1.76,1.40,1.41,1.43
89.86,3.37,1.99,3.34,1.96,-1.95,-1.97,-1.82,1.41,1.39,1.37
90.76,3.38,2.04,3.37,2.04,-2.02,-2.02,-1.88,1.35,1.35,1.34
91.66,3.39,2.10,3.39,2.10,-2.10,-2.07,-1.94,1.29,1.29,1.29
92.58,3.39,2.14,3.41,2.16,-2.17,-2.12,-2.00,1.22,1.24,1.25
93.51,3.44,2.23,3.45,2.24,-2.24,-2.17,-2.06,1.20,1.20,1.21
94.44,3.50,2.34,3.48,2.32,-2.31,-2.22,-2.13,1.19,1.17,1.16
95.39,3.51,2.40,3.50,2.39,-2.37,-2.27,-2.19,1.14,1.13,1.11
96.34,3.48,2.43,3.49,2.44,-2.43,-2.33,-2.26,1.05,1.06,1.05
97.30,3.47,2.47,3.47,2.48,-2.48,-2.38,-2.33,0.99,0.99,0.99
98.28,3.46,2.52,3.46,2.52,-2.53,-2.43,-2.40,0.93,0.93,0.94
99.26,3.45,2.58,3.44,2.57,-2.58,-2.48,-2.47,0.87,0.87,0.87
100.25,3.43,2.62,3.43,2.61,-2.62,-2.53,-2.54,0.81,0.81,0.81
101.25,3.41,2.64,3.41,2.65,-2.65,-2.58,-2.61,0.75,0.76,0.76
102.27,3.40,2.69,3.40,2.69,-2.69,-2.63,-2.68,0.71,0.71,0.71
103.29,3.39,2.74,3.38,2.73,-2.73,-2.69,-2.76,0.66,0.65,0.65
104.32,3.37,2.77,3.37,2.77,-2.77,-2.74,-2.83,0.60,0.60,0.60
105.37,3.34,2.80,3.34,2.80,-2.80,-2.79,-2.90,0.54,0.54,0.54
106.42,3.32,2.83,3.32,2.83,-2.83,-2.84,-2.97,0.49,0.49,0.49
107.48,3.30,2.88,3.29,2.87,-2.86,-2.88,-3.04,0.43,0.43,0.42
108.56,3.27,2.89,3.27,2.90,-2.89,-2.93,-3.11,0.37,0.38,0.38
109.64,3.25,2.93,3.25,2.93,-2.93,-2.98,-3.18,0.32,0.32,0.32
110.74,3.23,2.96,3.23,2.96,-2.96,-3.03,-3.25,0.27,0.26,0.27
111.85,3.21,2.99,3.21,2.99,-3.00,-3.07,-3.32,0.21,0.21,0.22
112.97,3.20,3.03,3.20,3.03,-3.04,-3.12,-3.38,0.16,0.16,0.17
114.10,3.20,3.07,3.20,3.08,-3.08,-3.16,-3.45,0.11,0.11,0.12
115.24,3.20,3.13,3.20,3.13,-3.13,-3.21,-3.51,0.07,0.07,0.07
116.39,3.20,3.19,3.20,3.18,-3.18,-3.25,-3.57,0.02,0.02,0.01
117.55,3.20,3.22,3.20,3.23,-3.22,-3.29,-3.62,-0.03,-0.02,-0.02
118.73,3.21,3.29,3.20,3.28,-3.27,-3.33,-3.67,-0.06,-0.07,-0.08
119.92,3.21,3.32,3.21,3.32,-3.32,-3.37,-3.72,-0.11,-0.11,-0.11
121.12,3.22,3.36,3.22,3.37,-3.36,-3.41,-3.76,-0.14,-0.14,-0.14
122.33,3.23,3.41,3.23,3.40,-3.41,-3.45,-3.80,-0.18,-0.18,-0.18
123.55,3.24,3.45,3.24,3.45,-3.45,-3.49,-3.84,-0.21,-0.22,-0.21
124.79,3.24,3.48,3.24,3.49,-3.49,-3.52,-3.87,-0.26,-0.25,-0.25
126.03,3.25,3.54,3.25,3.54,-3.54,-3.56,-3.91,-0.29,-0.29,-0.29
127.29,3.26,3.59,3.26,3.58,-3.58,-3.59,-3.93,-0.33,-0.33,-0.33
128.57,3.26,3.63,3.26,3.63,-3.63,-3.63,-3.95,-0.37,-0.37,-0.37
129.85,3.27,3.68,3.27,3.68,-3.67,-3.66,-3.97,-0.40,-0.41,-0.41
131.15,3.27,3.72,3.27,3.72,-3.72,-3.69,-3.99,-0.45,-0.45,-0.45
132.46,3.28,3.76,3.28,3.76,-3.76,-3.72,-4.00,-0.48,-0.48,-0.49
133.79,3.28,3.80,3.28,3.80,-3.80,-3.76,-4.01,-0.52,-0.52,-0.52
135.12,3.29,3.85,3.29,3.84,-3.84,-3.79,-4.02,-0.55,-0.56,-0.56
136.48,3.29,3.87,3.29,3.88,-3.88,-3.82,-4.02,-0.60,-0.60,-0.59
137.84,3.29,3.91,3.29,3.92,-3.92,-3.86,-4.02,-0.63,-0.63,-0.62
139.22,3.30,3.97,3.30,3.96,-3.96,-3.89,-4.02,-0.66,-0.67,-0.68
140.61,3.30,4.00,3.30,4.00,-4.00,-3.92,-4.02,-0.70,-0.70,-0.70
142.02,3.30,4.04,3.30,4.04,-4.04,-3.96,-4.02,-0.74,-0.74,-0.74
143.44,3.30,4.08,3.30,4.08,-4.08,-4.00,-4.02,-0.78,-0.78,-0.78
144.87,3.30,4.11,3.30,4.11,-4.11,-4.03,-4.02,-0.82,-0.82,-0.81
146.32,3.30,4.14,3.30,4.15,-4.15,-4.07,-4.02,-0.85,-0.85,-0.84
147.78,3.30,4.18,3.30,4.18,-4.19,-4.11,-4.01,-0.89,-0.89,-0.88
149.26,3.30,4.22,3.30,4.22,-4.22,-4.16,-4.01,-0.92,-0.92,-0.92
150.75,3.30,4.27,3.30,4.26,-4.26,-4.20,-4.01,-0.96,-0.96,-0.97
152.26,3.30,4.30,3.30,4.30,-4.29,-4.24,-4.01,-1.00,-1.00,-1.00
153.78,3.30,4.33,3.30,4.33,-4.33,-4.29,-4.01,-1.03,-1.03,-1.03
155.32,3.30,4.37,3.30,4.37,-4.37,-4.33,-4.02,-1.07,-1.07,-1.07
156.88,3.30,4.41,3.30,4.41,-4.41,-4.38,-4.02,-1.12,-1.12,-1.11
158.44,3.30,4.45,3.30,4.45,-4.45,-4.43,-4.03,-1.16,-1.16,-1.15
160.03,3.30,4.50,3.30,4.50,-4.50,-4.48,-4.04,-1.20,-1.20,-1.20
161.63,3.30,4.54,3.30,4.54,-4.54,-4.52,-4.06,-1.24,-1.24,-1.24
163.24,3.30,4.59,3.30,4.58,-4.58,-4.57,-4.07,-1.28,-1.28,-1.29
164.88,3.29,4.62,3.29,4.62,-4.62,-4.62,-4.09,-1.33,-1.33,-1.33
166.53,3.29,4.67,3.29,4.66,-4.66,-4.67,-4.11,-1.37,-1.38,-1.38
168.19,3.28,4.70,3.28,4.70,-4.70,-4.72,-4.13,-1.42,-1.42,-1.42
169.87,3.27,4.73,3.27,4.74,-4.74,-4.76,-4.16,-1.47,-1.47,-1.46
171.57,3.27,4.78,3.27,4.78,-4.78,-4.81,-4.19,-1.51,-1.51,-1.51
173.29,3.26,4.82,3.26,4.81,-4.81,-4.86,-4.22,-1.56,-1.55,-1.56
175.02,3.26,4.85,3.25,4.85,-4.85,-4.90,-4.26,-1.59,-1.60,-1.59
176.77,3.25,4.89,3.25,4.89,-4.89,-4.94,-4.30,-1.64,-1.64,-1.64
178.54,3.25,4.93,3.25,4.93,-4.93,-4.99,-4.35,-1.68,-1.68,-1.68
180.32,3.26,4.98,3.25,4.97,-4.97,-5.03,-4.39,-1.72,-1.72,-1.72
182.13,3.26,5.02,3.26,5.02,-5.02,-5.07,-4.44,-1.76,-1.76,-1.76
183.95,3.27,5.06,3.27,5.06,-5.06,-5.11,-4.49,-1.79,-1.79,-1.79
185.79,3.28,5.11,3.28,5.11,-5.11,-5.14,-4.55,-1.83,-1.83,-1.83
187.65,3.30,5.16,3.29,5.16,-5.16,-5.18,-4.61,-1.86,-1.87,-1.86
189.52,3.31,5.21,3.31,5.20,-5.21,-5.21,-4.67,-1.90,-1.90,-1.90
191.42,3.32,5.24,3.32,5.25,-5.26,-5.25,-4.74,-1.94,-1.94,-1.92
193.33,3.34,5.30,3.34,5.30,-5.30,-5.28,-4.81,-1.97,-1.96,-1.96
195.27,3.36,5.35,3.37,5.36,-5.34,-5.31,-4.88,-1.98,-1.97,-2.00
197.22,3.39,5.42,3.38,5.41,-5.37,-5.34,-4.95,-1.99,-2.00,-2.03
199.19,3.39,5.45,3.36,5.43,-5.40,-5.36,-5.03,-2.01,-2.04,-2.06
201.18,3.32,5.41,3.34,5.43,-5.43,-5.39,-5.11,-2.11,-2.09,-2.10
203.19,3.30,5.42,3.31,5.43,-5.45,-5.41,-5.18,-2.15,-2.14,-2.12
205.23,3.30,5.45,3.29,5.44,-5.47,-5.44,-5.27,-2.17,-2.17,-2.15
207.28,3.30,5.47,3.30,5.47,-5.48,-5.46,-5.35,-2.18,-2.19,-2.17
209.35,3.30,5.50,3.30,5.50,-5.50,-5.48,-5.43,-2.20,-2.21,-2.21
211.44,3.29,5.53,3.29,5.53,-5.53,-5.50,-5.51,-2.24,-2.24,-2.24
213.56,3.29,5.55,3.29,5.55,-5.56,-5.52,-5.60,-2.27,-2.27,-2.26
215.69,3.29,5.58,3.28,5.58,-5.58,-5.54,-5.68,-2.30,-2.30,-2.30
217.85,3.28,5.60,3.28,5.61,-5.60,-5.55,-5.76,-2.33,-2.32,-2.32
220.03,3.28,5.64,3.28,5.64,-5.62,-5.57,-5.84,-2.34,-2.33,-2.36
222.23,3.28,5.66,3.28,5.66,-5.63,-5.58,-5.92,-2.35,-2.35,-2.38
224.45,3.28,5.68,3.25,5.66,-5.63,-5.60,-5.99,-2.36,-2.38,-2.40
226.70,3.22,5.64,3.21,5.63,-5.64,-5.61,-6.06,-2.42,-2.43,-2.42
228.96,3.15,5.58,3.18,5.62,-5.65,-5.62,-6.13,-2.50,-2.46,-2.43
231.25,3.18,5.62,3.17,5.62,-5.66,-5.63,-6.19,-2.48,-2.48,-2.44
233.57,3.20,5.66,3.19,5.65,-5.67,-5.64,-6.25,-2.47,-2.48,-2.46
235.90,3.22,5.69,3.22,5.69,-5.69,-5.65,-6.30,-2.47,-2.47,-2.47
238.26,3.23,5.71,3.23,5.70,-5.70,-5.66,-6.34,-2.48,-2.48,-2.48
240.64,3.25,5.72,3.25,5.72,-5.72,-5.67,-6.38,-2.47,-2.48,-2.47
243.05,3.26,5.74,3.28,5.76,-5.74,-5.67,-6.41,-2.48,-2.46,-2.48
245.48,3.31,5.79,3.30,5.78,-5.75,-5.68,-6.44,-2.45,-2.45,-2.49
247.93,3.34,5.83,3.30,5.78,-5.76,-5.69,-6.45,-2.42,-2.46,-2.49
250.41,3.25,5.73,3.28,5.77,-5.76,-5.69,-6.46,-2.52,-2.48,-2.48
252.92,3.25,5.73,3.26,5.74,-5.77,-5.70,-6.46,-2.52,-2.51,-2.48
255.45,3.26,5.75,3.25,5.74,-5.77,-5.70,-6.45,-2.51,-2.52,-2.50
258.00,3.27,5.76,3.27,5.76,-5.77,-5.70,-6.44,-2.51,-2.51,-2.49
260.58,3.27,5.77,3.27,5.77,-5.77,-5.70,-6.42,-2.50,-2.50,-2.50
263.19,3.28,5.78,3.27,5.78,-5.77,-5.71,-6.39,-2.49,-2.50,-2.50
265.82,3.27,5.79,3.28,5.80,-5.77,-5.71,-6.35,-2.50,-2.49,-2.52
268.48,3.27,5.79,3.27,5.80,-5.77,-5.71,-6.31,-2.50,-2.50,-2.53
271.16,3.27,5.81,3.23,5.77,-5.77,-5.71,-6.27,-2.51,-2.54,-2.54
273.87,3.18,5.73,3.20,5.75,-5.78,-5.71,-6.21,-2.60,-2.58,-2.55
276.61,3.14,5.70,3.16,5.73,-5.77,-5.71,-6.16,-2.63,-2.61,-2.56
279.38,3.16,5.75,3.15,5.72,-5.75,-5.71,-6.10,-2.59,-2.60,-2.59
282.17,3.17,5.75,3.19,5.77,-5.73,-5.71,-6.04,-2.56,-2.54,-2.58
284.99,3.19,5.77,3.19,5.78,-5.71,-5.71,-5.97,-2.52,-2.52,-2.59
287.84,3.22,5.80,3.14,5.73,-5.69,-5.70,-5.90,-2.47,-2.55,-2.58
290.72,3.03,5.62,3.08,5.66,-5.67,-5.70,-5.83,-2.64,-2.59,-2.59
293.63,2.98,5.57,3.02,5.61,-5.65,-5.70,-5.76,-2.67,-2.63,-2.59
296.57,3.02,5.60,3.00,5.58,-5.64,-5.69,-5.69,-2.62,-2.65,-2.58
299.53,3.04,5.62,3.03,5.61,-5.63,-5.69,-5.63,-2.60,-2.61,-2.59
302.53,3.05,5.63,3.05,5.63,-5.63,-5.69,-5.56,-2.58,-2.58,-2.58
305.55,3.06,5.64,3.06,5.64,-5.63,-5.68,-5.49,-2.58,-2.58,-2.58
308.61,3.07,5.64,3.07,5.65,-5.64,-5.68,-5.42,-2.57,-2.57,-2.58
311.69,3.08,5.67,3.09,5.68,-5.65,-5.67,-5.36,-2.57,-2.56,-2.59
314.81,3.10,5.68,3.10,5.68,-5.65,-5.67,-5.30,-2.55,-2.55,-2.58
317.96,3.11,5.70,3.08,5.67,-5.64,-5.66,-5.24,-2.53,-2.57,-2.60
321.14,3.03,5.62,3.04,5.63,-5.63,-5.65,-5.18,-2.60,-2.59,-2.59
324.35,2.99,5.58,3.01,5.59,-5.62,-5.65,-5.12,-2.63,-2.61,-2.59
327.59,2.99,5.57,2.98,5.57,-5.61,-5.64,-5.07,-2.62,-2.63,-2.58
330.87,2.98,5.56,2.98,5.57,-5.59,-5.63,-5.02,-2.61,-2.61,-2.59
334.18,2.98,5.58,2.98,5.57,-5.57,-5.62,-4.98,-2.59,-2.59,-2.60
337.52,2.98,5.57,2.99,5.58,-5.55,-5.61,-4.94,-2.57,-2.57,-2.59
340.90,2.99,5.58,2.98,5.57,-5.54,-5.60,-4.90,-2.55,-2.56,-2.59
344.30,2.98,5.56,2.96,5.54,-5.53,-5.59,-4.86,-2.55,-2.57,-2.59
347.75,2.91,5.49,2.92,5.51,-5.52,-5.58,-4.83,-2.61,-2.59,-2.58
351.23,2.88,5.47,2.89,5.47,-5.50,-5.57,-4.81,-2.63,-2.61,-2.59
354.74,2.89,5.46,2.88,5.46,-5.49,-5.55,-4.78,-2.60,-2.61,-2.57
358.28,2.89,5.46,2.89,5.46,-5.47,-5.54,-4.76,-2.58,-2.58,-2.57
361.87,2.90,5.46,2.90,5.47,-5.45,-5.52,-4.75,-2.55,-2.55,-2.56
365.49,2.90,5.45,2.90,5.46,-5.43,-5.51,-4.74,-2.53,-2.53,-2.56
369.14,2.91,5.46,2.89,5.44,-5.41,-5.49,-4.73,-2.50,-2.52,-2.55
372.83,2.85,5.39,2.86,5.40,-5.39,-5.47,-4.72,-2.54,-2.53,-2.54
376.56,2.83,5.37,2.82,5.36,-5.37,-5.45,-4.72,-2.54,-2.55,-2.54
380.33,2.77,5.31,2.78,5.32,-5.34,-5.43,-4.72,-2.57,-2.56,-2.54
384.13,2.75,5.28,2.77,5.30,-5.31,-5.40,-4.73,-2.56,-2.55,-2.53
387.97,2.76,5.29,2.75,5.28,-5.29,-5.38,-4.73,-2.53,-2.54,-2.54
391.85,2.75,5.29,2.73,5.27,-5.26,-5.35,-4.74,-2.52,-2.54,-2.54
395.77,2.68,5.23,2.70,5.24,-5.24,-5.33,-4.76,-2.57,-2.55,-2.55
399.73,2.66,5.21,2.67,5.22,-5.22,-5.30,-4.77,-2.56,-2.55,-2.55
403.72,2.66,5.20,2.66,5.21,-5.20,-5.27,-4.79,-2.54,-2.55,-2.54
407.76,2.66,5.22,2.64,5.20,-5.18,-5.23,-4.81,-2.52,-2.53,-2.56
411.84,2.61,5.17,2.61,5.17,-5.15,-5.20,-4.83,-2.54,-2.54,-2.56
415.96,2.56,5.12,2.55,5.12,-5.12,-5.16,-4.86,-2.56,-2.56,-2.56
420.12,2.49,5.06,2.50,5.07,-5.08,-5.13,-4.88,-2.59,-2.58,-2.57
424.32,2.47,5.03,2.48,5.04,-5.05,-5.09,-4.90,-2.59,-2.57,-2.57
428.56,2.48,5.02,2.47,5.02,-5.03,-5.05,-4.93,-2.55,-2.56,-2.55
432.85,2.48,5.01,2.46,4.99,-5.00,-5.01,-4.95,-2.53,-2.54,-2.53
437.18,2.44,4.96,2.46,4.97,-4.98,-4.97,-4.98,-2.54,-2.52,-2.52
441.55,2.46,4.94,2.46,4.94,-4.96,-4.93,-5.00,-2.50,-2.49,-2.48
445.96,2.50,4.94,2.51,4.95,-4.93,-4.89,-5.02,-2.44,-2.43,-2.44
450.42,2.55,4.95,2.55,4.95,-4.91,-4.85,-5.04,-2.36,-2.36,-2.40
454.93,2.61,4.96,2.56,4.91,-4.89,-4.80,-5.05,-2.28,-2.32,-2.35
459.48,2.54,4.83,2.56,4.85,-4.86,-4.76,-5.07,-2.32,-2.29,-2.29
464.07,2.55,4.77,2.57,4.80,-4.82,-4.71,-5.07,-2.27,-2.25,-2.22
468.71,2.59,4.76,2.60,4.77,-4.78,-4.67,-5.08,-2.19,-2.18,-2.17
473.40,2.66,4.77,2.64,4.75,-4.74,-4.62,-5.08,-2.08,-2.10,-2.11
478.13,2.69,4.74,2.66,4.71,-4.69,-4.57,-5.08,-2.01,-2.04,-2.05
482.91,2.63,4.63,2.65,4.65,-4.65,-4.52,-5.07,-2.02,-2.00,-2.00
487.74,2.62,4.58,2.64,4.60,-4.62,-4.48,-5.05,-2.00,-1.98,-1.96
492.62,2.64,4.56,2.64,4.56,-4.58,-4.43,-5.03,-1.94,-1.95,-1.93
497.55,2.67,4.55,2.65,4.54,-4.55,-4.38,-5.01,-1.88,-1.90,-1.89
502.52,2.64,4.50,2.65,4.51,-4.51,-4.33,-4.98,-1.87,-1.86,-1.87
507.55,2.63,4.47,2.64,4.48,-4.47,-4.28,-4.94,-1.84,-1.83,-1.84
512.62,2.64,4.47,2.62,4.44,-4.43,-4.23,-4.89,-1.79,-1.82,-1.83
