frequency,raw,error,smoothed,error_smoothed,equalization,parametric_eq,fixed_band_eq,equalized_raw,equalized_smoothed,target
20.00,-4.09,-3.57,-4.10,-3.58,3.60,1.81,0.77,-0.49,-0.50,-0.52
20.20,-4.08,-3.59,-4.06,-3.57,3.57,1.80,0.80,-0.51,-0.49,-0.49
20.40,-4.03,-3.57,-4.01,-3.55,3.54,1.80,0.82,-0.48,-0.47,-0.46
20.61,-3.95,-3.51,-3.96,-3.53,3.51,1.79,0.85,-0.44,-0.45,-0.44
20.81,-3.89,-3.48,-3.89,-3.48,3.48,1.79,0.87,-0.41,-0.41,-0.41
21.02,-3.84,-3.46,-3.83,-3.44,3.44,1.78,0.90,-0.40,-0.39,-0.38
21.23,-3.77,-3.40,-3.77,-3.40,3.40,1.78,0.93,-0.37,-0.37,-0.37
21.44,-3.71,-3.35,-3.71,-3.35,3.36,1.77,0.96,-0.35,-0.35,-0.36
21.66,-3.66,-3.31,-3.66,-3.31,3.31,1.77,0.99,-0.35,-0.35,-0.35
21.87,-3.61,-3.26,-3.61,-3.26,3.26,1.76,1.02,-0.35,-0.35,-0.35
22.09,-3.57,-3.23,-3.56,-3.21,3.21,1.75,1.05,-0.36,-0.35,-0.34
22.31,-3.50,-3.15,-3.50,-3.16,3.15,1.75,1.08,-0.34,-0.35,-0.34
22.54,-3.44,-3.10,-3.44,-3.10,3.10,1.74,1.12,-0.34,-0.34,-0.34
22.76,-3.38,-3.03,-3.38,-3.04,3.04,1.74,1.15,-0.33,-0.34,-0.34
22.99,-3.34,-2.98,-3.33,-2.98,2.99,1.73,1.19,-0.35,-0.34,-0.35
23.22,-3.29,-2.93,-3.29,-2.93,2.94,1.72,1.22,-0.35,-0.35,-0.35
23.45,-3.24,-2.88,-3.24,-2.88,2.88,1.72,1.26,-0.35,-0.35,-0.35
23.69,-3.19,-2.83,-3.19,-2.83,2.83,1.71,1.30,-0.36,-0.35,-0.35
23.92,-3.13,-2.77,-3.14,-2.79,2.78,1.70,1.33,-0.34,-0.35,-0.36
24.16,-3.10,-2.75,-3.09,-2.74,2.73,1.69,1.37,-0.36,-0.35,-0.35
24.40,-3.04,-2.69,-3.04,-2.69,2.68,1.69,1.41,-0.35,-0.36,-0.35
24.65,-2.99,-2.63,-2.99,-2.64,2.63,1.68,1.45,-0.36,-0.36,-0.36
24.89,-2.94,-2.58,-2.93,-2.58,2.58,1.67,1.49,-0.36,-0.35,-0.36
25.14,-2.88,-2.52,-2.89,-2.53,2.53,1.66,1.53,-0.35,-0.36,-0.36
25.39,-2.84,-2.48,-2.84,-2.48,2.48,1.65,1.57,-0.36,-0.36,-0.36
25.65,-2.80,-2.44,-2.79,-2.43,2.42,1.65,1.61,-0.37,-0.37,-0.36
25.91,-2.74,-2.37,-2.74,-2.37,2.37,1.64,1.65,-0.37,-0.37,-0.37
26.16,-2.69,-2.32,-2.69,-2.32,2.32,1.63,1.69,-0.36,-0.37,-0.37
26.43,-2.64,-2.27,-2.64,-2.27,2.27,1.62,1.73,-0.37,-0.37,-0.37
26.69,-2.60,-2.23,-2.59,-2.22,2.22,1.61,1.77,-0.37,-0.37,-0.37
26.96,-2.55,-2.17,-2.55,-2.17,2.17,1.60,1.80,-0.38,-0.37,-0.37
27.23,-2.50,-2.12,-2.50,-2.12,2.12,1.59,1.84,-0.38,-0.38,-0.37
27.50,-2.45,-2.07,-2.45,-2.07,2.07,1.58,1.88,-0.38,-0.38,-0.38
27.77,-2.41,-2.02,-2.40,-2.02,2.02,1.57,1.91,-0.39,-0.39,-0.39
28.05,-2.36,-1.97,-2.36,-1.97,1.97,1.55,1.94,-0.39,-0.39,-0.39
28.33,-2.31,-1.91,-2.31,-1.91,1.92,1.54,1.97,-0.39,-0.39,-0.40
28.62,-2.26,-1.86,-2.26,-1.86,1.86,1.53,2.00,-0.39,-0.40,-0.40
28.90,-2.22,-1.82,-2.21,-1.81,1.81,1.52,2.02,-0.40,-0.40,-0.40
29.19,-2.17,-1.76,-2.17,-1.76,1.76,1.50,2.04,-0.40,-0.40,-0.41
29.48,-2.13,-1.73,-2.12,-1.72,1.72,1.49,2.06,-0.41,-0.41,-0.40
29.78,-2.08,-1.67,-2.08,-1.67,1.67,1.47,2.08,-0.41,-0.41,-0.41
30.08,-2.04,-1.62,-2.04,-1.63,1.62,1.46,2.09,-0.41,-0.42,-0.41
30.38,-2.01,-1.58,-2.00,-1.58,1.58,1.44,2.10,-0.43,-0.42,-0.43
30.68,-1.96,-1.53,-1.97,-1.54,1.53,1.43,2.10,-0.42,-0.43,-0.43
30.99,-1.93,-1.49,-1.93,-1.49,1.49,1.41,2.11,-0.44,-0.44,-0.44
31.30,-1.89,-1.45,-1.88,-1.44,1.44,1.39,2.10,-0.45,-0.44,-0.44
31.61,-1.84,-1.40,-1.84,-1.40,1.39,1.37,2.10,-0.44,-0.45,-0.44
31.93,-1.80,-1.35,-1.80,-1.35,1.35,1.35,2.09,-0.45,-0.45,-0.45
32.24,-1.76,-1.29,-1.76,-1.30,1.30,1.33,2.08,-0.46,-0.46,-0.46
32.57,-1.73,-1.26,-1.72,-1.25,1.26,1.31,2.06,-0.47,-0.46,-0.47
32.89,-1.68,-1.21,-1.68,-1.21,1.21,1.29,2.04,-0.46,-0.47,-0.47
33.22,-1.64,-1.16,-1.64,-1.17,1.17,1.27,2.02,-0.47,-0.47,-0.48
33.55,-1.61,-1.13,-1.61,-1.13,1.13,1.25,1.99,-0.48,-0.48,-0.48
33.89,-1.59,-1.09,-1.58,-1.09,1.09,1.22,1.96,-0.50,-0.49,-0.49
34.23,-1.55,-1.05,-1.55,-1.05,1.05,1.20,1.93,-0.50,-0.50,-0.49
34.57,-1.52,-1.01,-1.52,-1.02,1.01,1.17,1.89,-0.50,-0.51,-0.51
34.92,-1.50,-0.98,-1.49,-0.97,0.97,1.14,1.86,-0.53,-0.52,-0.52
35.27,-1.45,-0.93,-1.46,-0.93,0.93,1.11,1.82,-0.52,-0.53,-0.52
35.62,-1.42,-0.88,-1.42,-0.88,0.88,1.08,1.78,-0.54,-0.54,-0.53
35.97,-1.38,-0.83,-1.37,-0.83,0.82,1.05,1.74,-0.55,-0.55,-0.55
36.33,-1.33,-0.78,-1.33,-0.78,0.77,1.01,1.69,-0.56,-0.56,-0.55
36.70,-1.28,-0.72,-1.28,-0.72,0.71,0.98,1.65,-0.56,-0.56,-0.56
37.06,-1.23,-0.65,-1.22,-0.65,0.66,0.94,1.60,-0.57,-0.56,-0.57
37.43,-1.17,-0.59,-1.18,-0.60,0.61,0.90,1.56,-0.56,-0.57,-0.58
37.81,-1.14,-0.55,-1.14,-0.55,0.56,0.86,1.51,-0.58,-0.58,-0.59
38.19,-1.11,-0.51,-1.11,-0.51,0.51,0.82,1.46,-0.60,-0.59,-0.60
38.57,-1.08,-0.47,-1.08,-0.47,0.47,0.78,1.42,-0.60,-0.61,-0.60
38.95,-1.07,-0.45,-1.06,-0.44,0.44,0.74,1.37,-0.63,-0.61,-0.62
39.34,-1.03,-0.40,-1.04,-0.41,0.42,0.70,1.32,-0.61,-0.62,-0.63
39.74,-1.03,-0.38,-1.03,-0.39,0.39,0.65,1.28,-0.64,-0.64,-0.64
40.14,-1.03,-0.38,-1.03,-0.38,0.37,0.61,1.23,-0.66,-0.65,-0.65
40.54,-1.03,-0.37,-1.02,-0.36,0.35,0.57,1.18,-0.68,-0.67,-0.66
40.94,-1.01,-0.34,-1.00,-0.34,0.33,0.53,1.14,-0.67,-0.67,-0.67
41.35,-0.98,-0.30,-0.99,-0.32,0.32,0.49,1.09,-0.66,-0.68,-0.68
41.76,-0.98,-0.29,-0.98,-0.29,0.30,0.45,1.05,-0.68,-0.68,-0.68
42.18,-0.98,-0.29,-0.96,-0.27,0.27,0.41,1.00,-0.70,-0.69,-0.69
42.60,-0.94,-0.24,-0.95,-0.26,0.25,0.38,0.96,-0.69,-0.71,-0.70
43.03,-0.94,-0.23,-0.94,-0.23,0.22,0.35,0.92,-0.72,-0.72,-0.71
43.46,-0.94,-0.22,-0.92,-0.20,0.19,0.32,0.88,-0.74,-0.73,-0.72
43.90,-0.91,-0.16,-0.91,-0.17,0.17,0.30,0.84,-0.74,-0.75,-0.75
44.33,-0.89,-0.13,-0.90,-0.14,0.14,0.28,0.79,-0.75,-0.75,-0.76
44.78,-0.89,-0.11,-0.89,-0.11,0.12,0.27,0.76,-0.77,-0.77,-0.78
45.23,-0.89,-0.10,-0.88,-0.09,0.10,0.26,0.72,-0.78,-0.78,-0.79
45.68,-0.89,-0.08,-0.88,-0.08,0.09,0.25,0.68,-0.80,-0.79,-0.81
46.13,-0.89,-0.07,-0.89,-0.07,0.08,0.25,0.64,-0.81,-0.81,-0.82
46.60,-0.90,-0.07,-0.91,-0.08,0.07,0.24,0.60,-0.82,-0.83,-0.83
47.06,-0.94,-0.09,-0.92,-0.08,0.07,0.24,0.57,-0.87,-0.86,-0.84
47.53,-0.94,-0.08,-0.93,-0.08,0.06,0.24,0.53,-0.87,-0.87,-0.86
48.01,-0.94,-0.07,-0.94,-0.07,0.06,0.24,0.50,-0.88,-0.89,-0.87
48.49,-0.94,-0.04,-0.95,-0.06,0.05,0.24,0.46,-0.89,-0.90,-0.89
48.97,-0.98,-0.06,-0.96,-0.04,0.05,0.24,0.43,-0.93,-0.91,-0.92
49.46,-0.98,-0.03,-0.98,-0.03,0.04,0.24,0.39,-0.94,-0.94,-0.95
49.96,-0.98,-0.00,-1.00,-0.03,0.03,0.24,0.36,-0.95,-0.96,-0.98
50.46,-1.03,-0.04,-1.01,-0.02,0.03,0.24,0.33,-1.00,-0.98,-0.98
50.96,-1.03,-0.02,-1.04,-0.03,0.02,0.23,0.29,-1.00,-1.01,-1.00
51.47,-1.06,-0.03,-1.06,-0.03,0.02,0.23,0.26,-1.03,-1.03,-1.03
51.99,-1.08,-0.03,-1.07,-0.03,0.02,0.22,0.23,-1.05,-1.05,-1.05
52.51,-1.08,-0.02,-1.09,-0.03,0.03,0.21,0.20,-1.05,-1.06,-1.06
53.03,-1.12,-0.04,-1.11,-0.03,0.03,0.20,0.17,-1.09,-1.08,-1.08
53.56,-1.12,-0.02,-1.12,-0.03,0.03,0.18,0.13,-1.09,-1.10,-1.10
54.10,-1.15,-0.03,-1.15,-0.03,0.03,0.17,0.10,-1.12,-1.12,-1.12
54.64,-1.17,-0.03,-1.17,-0.03,0.03,0.15,0.07,-1.14,-1.14,-1.14
55.18,-1.19,-0.03,-1.19,-0.03,0.03,0.13,0.04,-1.16,-1.16,-1.16
55.74,-1.22,-0.04,-1.21,-0.04,0.03,0.11,0.00,-1.18,-1.18,-1.18
56.29,-1.23,-0.04,-1.23,-0.03,0.04,0.08,-0.03,-1.19,-1.19,-1.19
56.86,-1.26,-0.04,-1.25,-0.04,0.04,0.06,-0.06,-1.22,-1.21,-1.21
57.42,-1.26,-0.02,-1.27,-0.04,0.05,0.03,-0.10,-1.21,-1.22,-1.24
58.00,-1.31,-0.06,-1.29,-0.04,0.05,0.00,-0.13,-1.26,-1.24,-1.25
58.58,-1.31,-0.05,-1.32,-0.05,0.05,-0.03,-0.16,-1.25,-1.26,-1.26
59.16,-1.34,-0.06,-1.34,-0.06,0.05,-0.06,-0.20,-1.28,-1.28,-1.27
59.76,-1.36,-0.07,-1.35,-0.06,0.05,-0.09,-0.24,-1.30,-1.29,-1.29
60.35,-1.36,-0.04,-1.36,-0.05,0.05,-0.13,-0.27,-1.31,-1.31,-1.31
60.96,-1.36,-0.03,-1.37,-0.04,0.04,-0.17,-0.31,-1.32,-1.33,-1.33
61.57,-1.40,-0.03,-1.39,-0.03,0.03,-0.21,-0.35,-1.37,-1.36,-1.36
62.18,-1.40,-0.01,-1.40,-0.01,0.01,-0.25,-0.39,-1.39,-1.39,-1.39
62.80,-1.40,0.01,-1.39,0.01,-0.02,-0.29,-0.43,-1.41,-1.41,-1.40
63.43,-1.38,0.05,-1.38,0.05,-0.05,-0.33,-0.47,-1.42,-1.43,-1.43
64.07,-1.36,0.09,-1.36,0.09,-0.08,-0.38,-0.51,-1.44,-1.44,-1.45
64.71,-1.35,0.12,-1.34,0.13,-0.12,-0.43,-0.56,-1.47,-1.46,-1.47
65.35,-1.31,0.18,-1.31,0.17,-0.17,-0.48,-0.60,-1.48,-1.48,-1.48
66.01,-1.29,0.21,-1.28,0.22,-0.22,-0.53,-0.65,-1.51,-1.50,-1.50
66.67,-1.23,0.29,-1.24,0.28,-0.29,-0.58,-0.70,-1.51,-1.52,-1.52
67.33,-1.19,0.35,-1.19,0.35,-0.36,-0.64,-0.75,-1.54,-1.55,-1.54
68.01,-1.15,0.41,-1.13,0.43,-0.43,-0.69,-0.80,-1.58,-1.57,-1.56
68.69,-1.07,0.51,-1.07,0.51,-0.52,-0.75,-0.85,-1.58,-1.59,-1.58
69.37,-0.99,0.62,-0.99,0.61,-0.61,-0.81,-0.90,-1.60,-1.60,-1.60
70.07,-0.92,0.71,-0.91,0.71,-0.71,-0.87,-0.95,-1.63,-1.62,-1.62
70.77,-0.83,0.81,-0.83,0.81,-0.81,-0.93,-1.01,-1.64,-1.64,-1.64
71.48,-0.75,0.91,-0.75,0.91,-0.92,-1.00,-1.07,-1.67,-1.66,-1.66
72.19,-0.66,1.03,-0.66,1.03,-1.03,-1.06,-1.12,-1.68,-1.68,-1.68
72.91,-0.57,1.14,-0.57,1.14,-1.13,-1.13,-1.18,-1.70,-1.70,-1.71
73.64,-0.49,1.24,-0.48,1.25,-1.24,-1.20,-1.24,-1.73,-1.72,-1.73
74.38,-0.40,1.35,-0.40,1.35,-1.34,-1.27,-1.31,-1.74,-1.75,-1.75
75.12,-0.33,1.45,-0.33,1.44,-1.44,-1.35,-1.37,-1.77,-1.77,-1.77
75.87,-0.27,1.52,-0.26,1.53,-1.53,-1.42,-1.43,-1.80,-1.78,-1.79
76.63,-0.19,1.62,-0.19,1.62,-1.61,-1.50,-1.50,-1.80,-1.80,-1.81
77.40,-0.12,1.71,-0.13,1.70,-1.69,-1.58,-1.57,-1.81,-1.82,-1.82
78.17,-0.08,1.77,-0.07,1.77,-1.77,-1.66,-1.64,-1.84,-1.84,-1.85
78.95,-0.03,1.83,-0.02,1.84,-1.84,-1.74,-1.71,-1.86,-1.86,-1.86
79.74,0.02,1.90,0.02,1.90,-1.91,-1.82,-1.78,-1.88,-1.88,-1.88
80.54,0.08,1.98,0.07,1.97,-1.98,-1.91,-1.86,-1.89,-1.90,-1.90
81.35,0.11,2.03,0.12,2.04,-2.05,-1.99,-1.93,-1.93,-1.93,-1.92
82.16,0.17,2.11,0.18,2.11,-2.12,-2.08,-2.01,-1.94,-1.94,-1.94
82.98,0.23,2.18,0.23,2.19,-2.19,-2.17,-2.09,-1.96,-1.96,-1.95
83.81,0.30,2.28,0.29,2.27,-2.27,-2.26,-2.18,-1.96,-1.97,-1.98
84.65,0.35,2.36,0.35,2.35,-2.35,-2.36,-2.26,-2.00,-2.00,-2.00
85.50,0.40,2.42,0.41,2.43,-2.43,-2.45,-2.35,-2.03,-2.02,-2.02
86.35,0.48,2.52,0.48,2.52,-2.52,-2.55,-2.43,-2.04,-2.05,-2.04
87.22,0.54,2.61,0.55,2.61,-2.62,-2.64,-2.52,-2.07,-2.07,-2.06
88.09,0.63,2.72,0.62,2.71,-2.71,-2.74,-2.62,-2.08,-2.09,-2.09
88.97,0.69,2.79,0.70,2.81,-2.81,-2.84,-2.71,-2.12,-2.11,-2.10
89.86,0.79,2.92,0.78,2.91,-2.92,-2.94,-2.81,-2.12,-2.13,-2.13
90.76,0.86,3.02,0.87,3.02,-3.02,-3.04,-2.90,-2.16,-2.15,-2.16
91.66,0.95,3.13,0.95,3.13,-3.13,-3.14,-3.00,-2.17,-2.18,-2.18
92.58,1.03,3.25,1.03,3.24,-3.23,-3.24,-3.11,-2.20,-2.20,-2.21
93.51,1.10,3.33,1.11,3.34,-3.34,-3.35,-3.21,-2.24,-2.23,-2.23
94.44,1.18,3.44,1.18,3.44,-3.44,-3.45,-3.32,-2.26,-2.26,-2.26
95.39,1.24,3.53,1.25,3.53,-3.54,-3.55,-3.42,-2.29,-2.29,-2.28
96.34,1.31,3.63,1.31,3.63,-3.63,-3.66,-3.53,-2.32,-2.32,-2.32
97.30,1.37,3.72,1.37,3.72,-3.72,-3.76,-3.64,-2.35,-2.35,-2.35
98.28,1.43,3.81,1.43,3.81,-3.80,-3.86,-3.76,-2.37,-2.37,-2.38
99.26,1.48,3.89,1.48,3.89,-3.88,-3.97,-3.87,-2.40,-2.40,-2.40
100.25,1.53,3.96,1.53,3.96,-3.96,-4.07,-3.98,-2.43,-2.43,-2.43
101.25,1.56,4.02,1.56,4.02,-4.03,-4.17,-4.10,-2.46,-2.46,-2.46
102.27,1.59,4.08,1.60,4.09,-4.09,-4.27,-4.21,-2.50,-2.49,-2.49
103.29,1.62,4.15,1.63,4.15,-4.15,-4.36,-4.33,-2.52,-2.52,-2.53
104.32,1.67,4.22,1.65,4.20,-4.20,-4.46,-4.44,-2.53,-2.55,-2.55
105.37,1.67,4.25,1.68,4.25,-4.25,-4.55,-4.56,-2.58,-2.57,-2.57
106.42,1.67,4.27,1.69,4.30,-4.30,-4.64,-4.67,-2.62,-2.60,-2.60
107.48,1.72,4.35,1.71,4.34,-4.34,-4.73,-4.78,-2.62,-2.63,-2.63
108.56,1.72,4.39,1.72,4.38,-4.38,-4.82,-4.89,-2.66,-2.67,-2.67
109.64,1.72,4.42,1.73,4.42,-4.43,-4.90,-4.99,-2.70,-2.70,-2.70
110.74,1.72,4.45,1.74,4.46,-4.47,-4.98,-5.10,-2.74,-2.73,-2.72
111.85,1.76,4.51,1.75,4.51,-4.51,-5.05,-5.19,-2.74,-2.76,-2.75
112.97,1.76,4.56,1.76,4.55,-4.55,-5.12,-5.29,-2.79,-2.79,-2.80
114.10,1.76,4.59,1.77,4.59,-4.59,-5.19,-5.37,-2.83,-2.83,-2.83
115.24,1.76,4.63,1.76,4.63,-4.63,-5.24,-5.45,-2.87,-2.87,-2.86
116.39,1.76,4.66,1.76,4.67,-4.68,-5.30,-5.53,-2.92,-2.91,-2.90
117.55,1.77,4.71,1.78,4.71,-4.72,-5.35,-5.59,-2.95,-2.94,-2.94
118.73,1.79,4.77,1.79,4.76,-4.76,-5.40,-5.65,-2.97,-2.97,-2.98
119.92,1.81,4.81,1.81,4.81,-4.80,-5.44,-5.70,-2.99,-3.00,-3.00
121.12,1.81,4.85,1.81,4.85,-4.84,-5.47,-5.74,-3.03,-3.03,-3.04
122.33,1.81,4.88,1.81,4.88,-4.88,-5.50,-5.77,-3.07,-3.07,-3.07
123.55,1.81,4.91,1.81,4.91,-4.92,-5.52,-5.80,-3.11,-3.11,-3.10
124.79,1.81,4.94,1.81,4.94,-4.95,-5.54,-5.80,-3.14,-3.14,-3.13
126.03,1.81,4.98,1.82,4.98,-4.98,-5.55,-5.81,-3.17,-3.17,-3.17
127.29,1.81,5.01,1.81,5.01,-5.01,-5.56,-5.79,-3.20,-3.20,-3.20
128.57,1.81,5.06,1.80,5.04,-5.04,-5.56,-5.78,-3.22,-3.24,-3.24
129.85,1.77,5.05,1.78,5.06,-5.06,-5.55,-5.75,-3.29,-3.28,-3.28
131.15,1.76,5.07,1.77,5.08,-5.08,-5.54,-5.71,-3.32,-3.31,-3.31
132.46,1.76,5.10,1.76,5.10,-5.10,-5.53,-5.66,-3.34,-3.35,-3.34
133.79,1.76,5.12,1.75,5.12,-5.12,-5.51,-5.61,-3.36,-3.37,-3.36
135.12,1.72,5.12,1.73,5.13,-5.13,-5.48,-5.54,-3.41,-3.40,-3.40
136.48,1.72,5.15,1.71,5.14,-5.14,-5.46,-5.48,-3.41,-3.42,-3.42
137.84,1.67,5.13,1.69,5.15,-5.14,-5.43,-5.40,-3.47,-3.46,-3.45
139.22,1.67,5.16,1.66,5.15,-5.14,-5.39,-5.32,-3.47,-3.48,-3.49
140.61,1.62,5.14,1.62,5.14,-5.14,-5.35,-5.23,-3.52,-3.51,-3.52
142.02,1.58,5.11,1.59,5.13,-5.13,-5.31,-5.14,-3.55,-3.54,-3.53
143.44,1.55,5.11,1.55,5.11,-5.11,-5.27,-5.04,-3.56,-3.56,-3.56
144.87,1.51,5.10,1.51,5.09,-5.09,-5.22,-4.94,-3.58,-3.58,-3.58
146.32,1.47,5.08,1.47,5.07,-5.07,-5.17,-4.84,-3.59,-3.60,-3.61
147.78,1.41,5.04,1.41,5.04,-5.04,-5.13,-4.74,-3.62,-3.62,-3.63
149.26,1.35,5.00,1.35,5.01,-5.00,-5.07,-4.63,-3.65,-3.65,-3.65
150.75,1.28,4.97,1.29,4.97,-4.97,-5.02,-4.53,-3.69,-3.68,-3.69
152.26,1.22,4.93,1.22,4.93,-4.93,-4.97,-4.42,-3.71,-3.71,-3.71
153.78,1.16,4.90,1.16,4.90,-4.90,-4.92,-4.32,-3.74,-3.74,-3.73
155.32,1.10,4.87,1.10,4.86,-4.87,-4.87,-4.21,-3.76,-3.77,-3.77
156.88,1.04,4.83,1.04,4.83,-4.83,-4.82,-4.11,-3.79,-3.79,-3.79
158.44,0.97,4.79,0.98,4.80,-4.81,-4.77,-4.00,-3.84,-3.83,-3.82
160.03,0.93,4.78,0.93,4.78,-4.79,-4.72,-3.90,-3.85,-3.86,-3.85
161.63,0.87,4.76,0.88,4.76,-4.77,-4.67,-3.80,-3.89,-3.89,-3.88
163.24,0.84,4.76,0.84,4.75,-4.75,-4.63,-3.70,-3.91,-3.91,-3.91
164.88,0.79,4.73,0.79,4.73,-4.73,-4.58,-3.60,-3.94,-3.94,-3.93
166.53,0.76,4.72,0.76,4.72,-4.72,-4.54,-3.51,-3.95,-3.96,-3.96
168.19,0.70,4.69,0.71,4.70,-4.70,-4.50,-3.41,-4.00,-3.99,-3.99
169.87,0.67,4.69,0.67,4.69,-4.68,-4.47,-3.32,-4.01,-4.01,-4.02
171.57,0.62,4.67,0.61,4.66,-4.66,-4.43,-3.23,-4.04,-4.04,-4.05
173.29,0.55,4.63,0.56,4.63,-4.63,-4.40,-3.14,-4.08,-4.08,-4.07
175.02,0.49,4.59,0.49,4.60,-4.60,-4.37,-3.06,-4.11,-4.11,-4.10
176.77,0.43,4.57,0.43,4.57,-4.57,-4.35,-2.98,-4.14,-4.14,-4.14
178.54,0.37,4.55,0.37,4.54,-4.53,-4.32,-2.90,-4.16,-4.16,-4.17
180.32,0.30,4.50,0.30,4.50,-4.49,-4.30,-2.82,-4.19,-4.19,-4.20
182.13,0.22,4.45,0.22,4.45,-4.45,-4.28,-2.74,-4.23,-4.23,-4.22
183.95,0.14,4.40,0.14,4.40,-4.40,-4.26,-2.67,-4.26,-4.26,-4.26
185.79,0.05,4.33,0.06,4.34,-4.35,-4.23,-2.60,-4.29,-4.29,-4.28
187.65,-0.01,4.31,-0.02,4.29,-4.29,-4.21,-2.53,-4.30,-4.31,-4.31
189.52,-0.12,4.22,-0.11,4.23,-4.23,-4.18,-2.46,-4.35,-4.34,-4.34
191.42,-0.19,4.17,-0.19,4.17,-4.17,-4.15,-2.40,-4.36,-4.36,-4.36
193.33,-0.29,4.10,-0.28,4.10,-4.10,-4.11,-2.33,-4.39,-4.39,-4.38
195.27,-0.38,4.03,-0.37,4.03,-4.03,-4.07,-2.27,-4.41,-4.40,-4.40
197.22,-0.46,3.97,-0.47,3.96,-3.96,-4.02,-2.21,-4.42,-4.43,-4.43
199.19,-0.57,3.89,-0.56,3.89,-3.88,-3.96,-2.16,-4.45,-4.45,-4.46
201.18,-0.67,3.80,-0.67,3.80,-3.80,-3.89,-2.10,-4.47,-4.47,-4.47
203.19,-0.77,3.71,-0.77,3.72,-3.72,-3.81,-2.05,-4.49,-4.49,-4.48
205.23,-0.87,3.63,-0.87,3.63,-3.64,-3.72,-2.00,-4.50,-4.50,-4.50
207.28,-0.96,3.54,-0.96,3.54,-3.55,-3.63,-1.95,-4.51,-4.51,-4.50
209.35,-1.07,3.45,-1.06,3.46,-3.46,-3.52,-1.90,-4.53,-4.52,-4.52
211.44,-1.16,3.38,-1.16,3.37,-3.37,-3.41,-1.85,-4.53,-4.53,-4.54
213.56,-1.26,3.28,-1.26,3.27,-3.27,-3.29,-1.81,-4.53,-4.53,-4.54
215.69,-1.37,3.17,-1.36,3.18,-3.17,-3.17,-1.76,-4.54,-4.53,-4.53
217.85,-1.48,3.07,-1.48,3.07,-3.06,-3.04,-1.72,-4.54,-4.54,-4.54
220.03,-1.59,2.96,-1.60,2.95,-2.95,-2.91,-1.68,-4.54,-4.55,-4.55
222.23,-1.72,2.84,-1.72,2.84,-2.83,-2.78,-1.64,-4.55,-4.55,-4.56
224.45,-1.85,2.70,-1.84,2.71,-2.71,-2.65,-1.61,-4.56,-4.55,-4.55
226.70,-1.96,2.59,-1.96,2.58,-2.58,-2.52,-1.57,-4.54,-4.55,-4.54
228.96,-2.09,2.45,-2.09,2.45,-2.46,-2.39,-1.53,-4.55,-4.55,-4.54
231.25,-2.21,2.32,-2.21,2.32,-2.33,-2.26,-1.50,-4.54,-4.53,-4.53
233.57,-2.34,2.19,-2.33,2.20,-2.20,-2.13,-1.47,-4.54,-4.53,-4.52
235.90,-2.44,2.08,-2.45,2.07,-2.07,-2.01,-1.44,-4.51,-4.52,-4.52
238.26,-2.58,1.94,-2.57,1.94,-1.94,-1.88,-1.41,-4.52,-4.51,-4.52
240.64,-2.70,1.80,-2.69,1.81,-1.81,-1.75,-1.38,-4.50,-4.50,-4.50
243.05,-2.82,1.67,-2.82,1.67,-1.67,-1.63,-1.35,-4.49,-4.49,-4.49
245.48,-2.93,1.55,-2.94,1.54,-1.54,-1.51,-1.32,-4.47,-4.47,-4.47
247.93,-3.06,1.40,-3.06,1.41,-1.40,-1.38,-1.29,-4.46,-4.46,-4.46
250.41,-3.19,1.27,-3.18,1.27,-1.26,-1.26,-1.27,-4.45,-4.44,-4.45
252.92,-3.30,1.13,-3.31,1.12,-1.12,-1.14,-1.24,-4.42,-4.43,-4.43
255.45,-3.43,0.98,-3.43,0.98,-0.98,-1.02,-1.22,-4.41,-4.41,-4.40
258.00,-3.56,0.83,-3.55,0.84,-0.84,-0.89,-1.20,-4.40,-4.39,-4.39
260.58,-3.67,0.70,-3.67,0.70,-0.71,-0.77,-1.17,-4.37,-4.37,-4.37
263.19,-3.78,0.57,-3.78,0.57,-0.57,-0.65,-1.15,-4.35,-4.35,-4.35
265.82,-3.89,0.44,-3.89,0.44,-0.43,-0.52,-1.13,-4.32,-4.32,-4.33
268.48,-4.00,0.31,-4.00,0.31,-0.30,-0.39,-1.11,-4.30,-4.30,-4.30
271.16,-4.11,0.17,-4.11,0.17,-0.17,-0.27,-1.09,-4.28,-4.28,-4.28
273.87,-4.22,0.04,-4.21,0.04,-0.05,-0.14,-1.08,-4.27,-4.26,-4.26
276.61,-4.32,-0.08,-4.32,-0.08,0.07,-0.01,-1.06,-4.24,-4.25,-4.24
279.38,-4.41,-0.19,-4.41,-0.20,0.19,0.12,-1.04,-4.22,-4.22,-4.22
282.17,-4.52,-0.32,-4.50,-0.31,0.31,0.25,-1.03,-4.21,-4.20,-4.20
284.99,-4.58,-0.40,-4.59,-0.41,0.42,0.38,-1.01,-4.16,-4.17,-4.17
287.84,-4.68,-0.52,-4.67,-0.52,0.52,0.50,-1.00,-4.16,-4.15,-4.16
290.72,-4.75,-0.62,-4.75,-0.62,0.62,0.63,-0.98,-4.13,-4.13,-4.13
293.63,-4.83,-0.71,-4.83,-0.72,0.71,0.75,-0.97,-4.11,-4.11,-4.11
296.57,-4.90,-0.81,-4.90,-0.80,0.81,0.87,-0.96,-4.09,-4.09,-4.09
299.53,-4.96,-0.89,-4.96,-0.89,0.89,0.97,-0.95,-4.06,-4.07,-4.07
302.53,-5.02,-0.97,-5.01,-0.97,0.98,1.08,-0.93,-4.04,-4.04,-4.05
305.55,-5.07,-1.05,-5.07,-1.04,1.05,1.17,-0.92,-4.02,-4.01,-4.01
308.61,-5.10,-1.10,-5.11,-1.12,1.12,1.25,-0.91,-3.98,-3.99,-4.00
311.69,-5.16,-1.19,-5.14,-1.18,1.17,1.32,-0.90,-3.98,-3.97,-3.97
314.81,-5.17,-1.24,-5.16,-1.23,1.22,1.38,-0.90,-3.95,-3.95,-3.93
317.96,-5.17,-1.25,-5.18,-1.26,1.25,1.41,-0.89,-3.91,-3.92,-3.91
321.14,-5.17,-1.27,-5.17,-1.28,1.27,1.44,-0.88,-3.89,-3.89,-3.89
324.35,-5.17,-1.29,-5.16,-1.28,1.28,1.45,-0.87,-3.88,-3.87,-3.88
327.59,-5.13,-1.28,-5.13,-1.28,1.28,1.45,-0.87,-3.85,-3.85,-3.85
330.87,-5.10,-1.27,-5.10,-1.27,1.27,1.43,-0.86,-3.83,-3.83,-3.83
334.18,-5.06,-1.25,-5.05,-1.24,1.24,1.40,-0.86,-3.82,-3.81,-3.81
337.52,-5.01,-1.21,-5.00,-1.21,1.21,1.35,-0.85,-3.80,-3.79,-3.79
340.90,-4.93,-1.16,-4.94,-1.17,1.17,1.30,-0.85,-3.76,-3.77,-3.77
344.30,-4.87,-1.12,-4.87,-1.12,1.12,1.23,-0.84,-3.74,-3.75,-3.75
347.75,-4.80,-1.07,-4.79,-1.07,1.07,1.16,-0.84,-3.73,-3.72,-3.73
351.23,-4.73,-1.02,-4.72,-1.01,1.01,1.08,-0.84,-3.72,-3.71,-3.71
354.74,-4.63,-0.94,-4.64,-0.95,0.95,0.99,-0.84,-3.68,-3.69,-3.69
358.28,-4.57,-0.89,-4.56,-0.88,0.88,0.90,-0.84,-3.68,-3.67,-3.67
361.87,-4.46,-0.80,-4.47,-0.81,0.81,0.81,-0.83,-3.64,-3.66,-3.65
365.49,-4.39,-0.75,-4.38,-0.74,0.74,0.72,-0.83,-3.65,-3.64,-3.64
369.14,-4.29,-0.66,-4.28,-0.66,0.66,0.63,-0.83,-3.62,-3.62,-3.63
372.83,-4.19,-0.58,-4.20,-0.59,0.59,0.54,-0.84,-3.60,-3.61,-3.61
376.56,-4.10,-0.50,-4.10,-0.50,0.51,0.45,-0.84,-3.59,-3.59,-3.60
380.33,-4.01,-0.44,-4.00,-0.43,0.42,0.36,-0.84,-3.58,-3.58,-3.57
384.13,-3.90,-0.34,-3.90,-0.34,0.34,0.27,-0.84,-3.56,-3.56,-3.56
387.97,-3.81,-0.26,-3.81,-0.26,0.26,0.19,-0.84,-3.55,-3.55,-3.55
391.85,-3.71,-0.16,-3.71,-0.17,0.17,0.10,-0.85,-3.54,-3.54,-3.54
395.77,-3.62,-0.09,-3.61,-0.08,0.09,0.02,-0.85,-3.53,-3.53,-3.52
399.73,-3.51,0.01,-3.52,-0.00,0.00,-0.06,-0.86,-3.50,-3.52,-3.51
403.72,-3.43,0.08,-3.42,0.08,-0.08,-0.14,-0.86,-3.51,-3.50,-3.51
407.76,-3.34,0.16,-3.33,0.16,-0.16,-0.21,-0.87,-3.50,-3.49,-3.50
411.84,-3.23,0.25,-3.24,0.24,-0.24,-0.29,-0.87,-3.47,-3.48,-3.48
415.96,-3.15,0.32,-3.14,0.32,-0.33,-0.36,-0.88,-3.47,-3.47,-3.47
420.12,-3.06,0.40,-3.06,0.40,-0.40,-0.43,-0.88,-3.46,-3.46,-3.46
424.32,-2.97,0.48,-2.97,0.48,-0.48,-0.50,-0.89,-3.45,-3.45,-3.45
428.56,-2.89,0.55,-2.88,0.56,-0.56,-0.57,-0.90,-3.44,-3.44,-3.44
432.85,-2.79,0.64,-2.80,0.63,-0.63,-0.64,-0.90,-3.42,-3.43,-3.43
437.18,-2.72,0.70,-2.72,0.70,-0.70,-0.71,-0.91,-3.42,-3.42,-3.42
441.55,-2.64,0.76,-2.64,0.77,-0.77,-0.78,-0.92,-3.41,-3.41,-3.40
