frequency,raw,error,smoothed,error_smoothed,equalization,parametric_eq,fixed_band_eq,equalized_raw,equalized_smoothed,target
20.00,-28.54,-35.72,-28.54,-35.72,6.00,6.11,2.68,-22.54,-22.54,7.18
20.20,-28.50,-35.72,-28.50,-35.72,6.00,6.11,2.76,-22.50,-22.50,7.22
20.40,-28.45,-35.70,-28.46,-35.72,6.00,6.11,2.84,-22.45,-22.46,7.25
20.61,-28.41,-35.69,-28.41,-35.70,6.00,6.11,2.92,-22.41,-22.41,7.28
20.81,-28.36,-35.68,-28.36,-35.68,6.00,6.11,3.00,-22.36,-22.36,7.32
21.02,-28.31,-35.67,-28.30,-35.65,6.00,6.11,3.09,-22.31,-22.30,7.36
21.23,-28.21,-35.58,-28.21,-35.59,6.00,6.11,3.17,-22.21,-22.21,7.37
21.44,-28.11,-35.50,-28.12,-35.52,6.00,6.11,3.26,-22.11,-22.12,7.39
21.66,-28.02,-35.43,-28.03,-35.43,6.00,6.11,3.36,-22.02,-22.03,7.41
21.87,-27.92,-35.34,-27.91,-35.33,6.00,6.11,3.45,-21.92,-21.91,7.42
22.09,-27.77,-35.21,-27.75,-35.19,6.00,6.11,3.55,-21.77,-21.75,7.44
22.31,-27.55,-34.99,-27.56,-35.00,6.00,6.11,3.65,-21.55,-21.56,7.44
22.54,-27.33,-34.78,-27.33,-34.77,6.00,6.11,3.75,-21.33,-21.33,7.45
22.76,-27.11,-34.57,-27.10,-34.56,6.00,6.11,3.86,-21.11,-21.10,7.46
22.99,-26.89,-34.35,-26.92,-34.38,6.00,6.10,3.97,-20.89,-20.92,7.46
23.22,-26.79,-34.26,-26.79,-34.25,6.00,6.10,4.08,-20.79,-20.79,7.47
23.45,-26.70,-34.17,-26.69,-34.16,6.00,6.10,4.19,-20.70,-20.69,7.47
23.69,-26.61,-34.10,-26.61,-34.09,6.00,6.10,4.31,-20.61,-20.61,7.48
23.92,-26.52,-34.01,-26.52,-34.01,6.00,6.10,4.43,-20.52,-20.52,7.49
24.16,-26.42,-33.92,-26.42,-33.92,6.00,6.10,4.55,-20.42,-20.42,7.50
24.40,-26.32,-33.83,-26.33,-33.83,6.00,6.10,4.67,-20.32,-20.33,7.51
24.65,-26.22,-33.72,-26.23,-33.73,6.00,6.10,4.79,-20.22,-20.23,7.50
24.89,-26.11,-33.61,-26.09,-33.59,6.00,6.10,4.92,-20.11,-20.09,7.50
25.14,-25.93,-33.43,-25.92,-33.41,6.00,6.10,5.05,-19.93,-19.92,7.50
25.39,-25.69,-33.18,-25.70,-33.19,6.00,6.10,5.18,-19.69,-19.70,7.50
25.65,-25.46,-32.96,-25.46,-32.95,6.00,6.10,5.31,-19.46,-19.46,7.50
25.91,-25.23,-32.71,-25.23,-32.72,6.00,6.10,5.44,-19.23,-19.23,7.49
26.16,-25.02,-32.51,-25.03,-32.52,6.00,6.10,5.57,-19.02,-19.03,7.49
26.43,-24.86,-32.36,-24.87,-32.36,6.00,6.10,5.70,-18.86,-18.87,7.49
26.69,-24.69,-32.18,-24.70,-32.19,6.00,6.09,5.83,-18.69,-18.70,7.49
26.96,-24.53,-32.02,-24.49,-31.99,6.00,6.09,5.95,-18.53,-18.49,7.49
27.23,-24.23,-31.72,-24.23,-31.72,6.00,6.09,6.08,-18.23,-18.23,7.49
27.50,-23.91,-31.40,-23.91,-31.39,6.00,6.09,6.20,-17.91,-17.91,7.49
27.77,-23.59,-31.06,-23.59,-31.07,6.00,6.09,6.32,-17.59,-17.59,7.48
28.05,-23.30,-30.78,-23.34,-30.82,6.00,6.09,6.44,-17.30,-17.34,7.48
28.33,-23.17,-30.63,-23.17,-30.64,6.00,6.09,6.55,-17.17,-17.17,7.46
28.62,-23.03,-30.51,-23.03,-30.50,6.00,6.09,6.66,-17.03,-17.03,7.47
28.90,-22.90,-30.37,-22.86,-30.33,6.00,6.09,6.76,-16.90,-16.86,7.47
29.19,-22.63,-30.09,-22.62,-30.08,6.00,6.09,6.85,-16.63,-16.62,7.46
29.48,-22.30,-29.77,-22.31,-29.77,6.00,6.08,6.93,-16.30,-16.31,7.47
29.78,-21.98,-29.45,-21.99,-29.45,6.00,6.08,7.02,-15.98,-15.99,7.47
30.08,-21.69,-29.15,-21.71,-29.17,6.00,6.08,7.08,-15.69,-15.71,7.46
30.38,-21.49,-28.95,-21.49,-28.94,6.00,6.08,7.15,-15.49,-15.49,7.45
30.68,-21.29,-28.74,-21.29,-28.74,6.00,6.08,7.19,-15.29,-15.29,7.45
30.99,-21.10,-28.54,-21.08,-28.52,6.00,6.08,7.24,-15.10,-15.08,7.44
31.30,-20.84,-28.28,-20.84,-28.28,6.00,6.08,7.27,-14.84,-14.84,7.44
31.61,-20.58,-28.01,-20.59,-28.01,6.00,6.07,7.29,-14.58,-14.59,7.43
31.93,-20.32,-27.75,-20.34,-27.76,6.00,6.07,7.30,-14.32,-14.34,7.42
32.24,-20.12,-27.53,-20.13,-27.54,6.00,6.07,7.31,-14.12,-14.13,7.41
32.57,-19.93,-27.34,-19.93,-27.33,6.00,6.07,7.30,-13.93,-13.93,7.41
32.89,-19.74,-27.14,-19.72,-27.13,6.00,6.07,7.29,-13.74,-13.72,7.40
33.22,-19.50,-26.90,-19.50,-26.90,6.00,6.07,7.27,-13.50,-13.50,7.40
33.55,-19.24,-26.64,-19.25,-26.65,6.00,6.06,7.24,-13.24,-13.25,7.40
33.89,-18.98,-26.38,-18.98,-26.37,6.00,6.06,7.20,-12.98,-12.98,7.40
34.23,-18.70,-26.09,-18.70,-26.09,6.00,6.06,7.16,-12.70,-12.70,7.39
34.57,-18.41,-25.79,-18.42,-25.80,6.00,6.06,7.11,-12.41,-12.42,7.38
34.92,-18.12,-25.50,-18.12,-25.50,6.00,6.06,7.06,-12.12,-12.12,7.38
35.27,-17.81,-25.19,-17.80,-25.17,6.00,6.05,7.01,-11.81,-11.80,7.37
35.62,-17.50,-24.86,-17.49,-24.86,6.00,6.05,6.95,-11.50,-11.49,7.36
35.97,-17.18,-24.53,-17.22,-24.58,6.00,6.05,6.89,-11.18,-11.22,7.36
36.33,-16.99,-24.34,-16.99,-24.34,6.00,6.05,6.83,-10.99,-10.99,7.35
36.70,-16.81,-24.16,-16.79,-24.14,6.00,6.04,6.76,-10.81,-10.79,7.35
37.06,-16.61,-23.94,-16.59,-23.92,6.00,6.04,6.70,-10.61,-10.59,7.33
37.43,-16.35,-23.68,-16.35,-23.68,6.00,6.04,6.64,-10.35,-10.35,7.33
37.81,-16.09,-23.42,-16.11,-23.43,6.00,6.04,6.57,-10.09,-10.11,7.32
38.19,-15.88,-23.19,-15.90,-23.21,6.00,6.03,6.51,-9.88,-9.90,7.31
38.57,-15.73,-23.04,-15.72,-23.03,6.00,6.03,6.45,-9.73,-9.72,7.31
38.95,-15.57,-22.87,-15.55,-22.85,6.00,6.03,6.40,-9.57,-9.55,7.30
39.34,-15.38,-22.66,-15.38,-22.67,6.00,6.02,6.34,-9.38,-9.38,7.29
39.74,-15.19,-22.46,-15.20,-22.47,6.00,6.02,6.29,-9.19,-9.20,7.27
40.14,-15.01,-22.29,-15.01,-22.29,6.00,6.02,6.25,-9.01,-9.01,7.28
40.54,-14.84,-22.11,-14.84,-22.11,6.00,6.01,6.20,-8.84,-8.84,7.27
40.94,-14.66,-21.92,-14.65,-21.91,6.00,6.01,6.16,-8.66,-8.65,7.26
41.35,-14.48,-21.73,-14.46,-21.71,6.00,6.01,6.13,-8.48,-8.46,7.25
41.76,-14.29,-21.52,-14.31,-21.55,6.00,6.00,6.09,-8.29,-8.31,7.23
42.18,-14.19,-21.41,-14.23,-21.45,6.00,6.00,6.07,-8.19,-8.23,7.21
42.60,-14.19,-21.38,-14.18,-21.37,6.00,6.00,6.04,-8.19,-8.18,7.19
43.03,-14.17,-21.34,-14.11,-21.28,6.00,5.99,6.02,-8.17,-8.11,7.17
43.46,-13.96,-21.10,-13.97,-21.11,6.00,5.99,6.01,-7.96,-7.97,7.14
43.90,-13.75,-20.85,-13.76,-20.86,6.00,5.98,6.00,-7.75,-7.76,7.10
44.33,-13.50,-20.57,-13.50,-20.57,6.00,5.98,5.99,-7.50,-7.50,7.07
44.78,-13.24,-20.27,-13.24,-20.28,6.00,5.98,5.99,-7.24,-7.24,7.03
45.23,-12.97,-19.98,-12.97,-19.97,6.00,5.97,5.99,-6.97,-6.97,7.00
45.68,-12.70,-19.68,-12.70,-19.68,6.00,5.97,6.00,-6.70,-6.70,6.97
46.13,-12.42,-19.37,-12.42,-19.38,6.00,5.96,6.01,-6.42,-6.42,6.95
46.60,-12.15,-19.10,-12.15,-19.09,6.00,5.96,6.03,-6.15,-6.15,6.95
47.06,-11.88,-18.81,-11.89,-18.82,6.00,5.95,6.05,-5.88,-5.89,6.93
47.53,-11.64,-18.56,-11.64,-18.56,6.00,5.95,6.08,-5.64,-5.64,6.92
48.01,-11.41,-18.33,-11.40,-18.31,6.00,5.94,6.11,-5.41,-5.40,6.92
48.49,-11.16,-18.07,-11.16,-18.06,6.00,5.94,6.14,-5.16,-5.16,6.91
48.97,-10.92,-17.81,-10.95,-17.84,6.00,5.93,6.17,-4.92,-4.95,6.89
49.46,-10.74,-17.62,-10.74,-17.63,6.00,5.93,6.21,-4.74,-4.74,6.88
49.96,-10.56,-17.44,-10.52,-17.41,6.00,5.92,6.26,-4.56,-4.52,6.88
50.46,-10.26,-17.15,-10.26,-17.15,6.00,5.92,6.30,-4.26,-4.26,6.89
50.96,-9.94,-16.84,-9.95,-16.84,6.00,5.91,6.35,-3.94,-3.95,6.90
51.47,-9.63,-16.51,-9.63,-16.51,6.00,5.91,6.40,-3.63,-3.63,6.88
51.99,-9.31,-16.18,-9.32,-16.19,6.00,5.90,6.45,-3.31,-3.32,6.87
52.51,-9.05,-15.91,-9.05,-15.90,6.00,5.90,6.51,-3.05,-3.05,6.86
53.03,-8.79,-15.62,-8.81,-15.64,6.00,5.89,6.56,-2.79,-2.81,6.83
53.56,-8.63,-15.43,-8.63,-15.42,6.00,5.88,6.62,-2.63,-2.63,6.80
54.10,-8.47,-15.22,-8.48,-15.23,6.00,5.88,6.67,-2.47,-2.48,6.75
54.64,-8.34,-15.05,-8.33,-15.04,6.00,5.87,6.72,-2.34,-2.33,6.70
55.18,-8.17,-14.83,-8.15,-14.80,6.00,5.87,6.78,-2.17,-2.15,6.66
55.74,-7.92,-14.52,-7.92,-14.53,6.00,5.87,6.82,-1.92,-1.92,6.60
56.29,-7.67,-14.22,-7.67,-14.22,6.00,5.86,6.87,-1.67,-1.67,6.55
56.86,-7.41,-13.91,-7.44,-13.93,6.00,5.86,6.91,-1.41,-1.44,6.50
57.42,-7.25,-13.68,-7.26,-13.69,6.00,5.85,6.95,-1.25,-1.26,6.43
58.00,-7.12,-13.49,-7.13,-13.49,6.00,5.85,6.99,-1.12,-1.13,6.37
58.58,-6.99,-13.30,-6.97,-13.28,6.00,5.84,7.01,-0.99,-0.97,6.31
59.16,-6.80,-13.06,-6.76,-13.01,6.00,5.84,7.04,-0.80,-0.76,6.26
59.76,-6.47,-12.67,-6.49,-12.69,6.00,5.84,7.05,-0.47,-0.49,6.20
60.35,-6.21,-12.33,-6.22,-12.36,6.00,5.84,7.06,-0.21,-0.22,6.12
60.96,-5.99,-12.06,-5.99,-12.06,6.00,5.83,7.06,0.01,0.01,6.07
61.57,-5.85,-11.85,-5.86,-11.86,6.00,5.83,7.05,0.15,0.14,6.00
62.18,-5.75,-11.69,-5.78,-11.72,6.00,5.83,7.03,0.25,0.22,5.93
62.80,-5.75,-11.64,-5.71,-11.59,6.00,5.83,7.01,0.25,0.29,5.89
63.43,-5.65,-11.49,-5.64,-11.47,6.00,5.83,6.98,0.35,0.36,5.84
64.07,-5.52,-11.31,-5.57,-11.36,6.00,5.84,6.94,0.48,0.43,5.79
64.71,-5.49,-11.23,-5.48,-11.22,6.00,5.84,6.89,0.51,0.52,5.74
65.35,-5.42,-11.12,-5.40,-11.10,6.00,5.84,6.83,0.58,0.60,5.70
66.01,-5.30,-10.96,-5.30,-10.96,6.00,5.85,6.76,0.70,0.70,5.66
66.67,-5.15,-10.77,-5.14,-10.76,6.00,5.85,6.69,0.85,0.86,5.62
67.33,-4.96,-10.55,-4.96,-10.55,6.00,5.86,6.61,1.04,1.04,5.59
68.01,-4.74,-10.30,-4.79,-10.34,6.00,5.87,6.53,1.26,1.21,5.56
68.69,-4.64,-10.17,-4.63,-10.15,6.00,5.88,6.44,1.36,1.37,5.53
69.37,-4.48,-9.97,-4.46,-9.96,6.00,5.89,6.34,1.52,1.54,5.49
70.07,-4.27,-9.73,-4.25,-9.72,6.00,5.90,6.24,1.73,1.75,5.46
70.77,-3.99,-9.44,-3.97,-9.41,6.00,5.92,6.14,2.01,2.03,5.45
71.48,-3.69,-9.11,-3.72,-9.14,6.00,5.93,6.04,2.31,2.28,5.41
72.19,-3.47,-8.86,-3.54,-8.93,6.00,5.95,5.93,2.53,2.46,5.39
72.91,-3.47,-8.82,-3.41,-8.77,6.00,5.97,5.82,2.53,2.59,5.35
73.64,-3.33,-8.66,-3.31,-8.64,6.00,5.99,5.71,2.67,2.69,5.33
74.38,-3.19,-8.49,-3.22,-8.51,6.00,6.01,5.60,2.81,2.78,5.30
75.12,-3.06,-8.32,-3.07,-8.33,6.00,6.03,5.49,2.94,2.93,5.26
75.87,-2.97,-8.20,-2.91,-8.15,6.00,6.05,5.38,3.03,3.09,5.23
76.63,-2.73,-7.93,-2.76,-7.96,6.00,6.07,5.27,3.27,3.24,5.20
77.40,-2.57,-7.75,-2.60,-7.78,6.00,6.09,5.16,3.43,3.40,5.18
78.17,-2.47,-7.62,-2.44,-7.60,6.00,6.11,5.05,3.53,3.56,5.15
78.95,-2.34,-7.47,-2.31,-7.45,6.00,6.12,4.95,3.66,3.69,5.13
79.74,-2.17,-7.29,-2.21,-7.33,6.00,6.14,4.84,3.83,3.79,5.12
80.54,-2.11,-7.21,-2.15,-7.25,6.00,6.15,4.74,3.89,3.85,5.10
81.35,-2.10,-7.18,-2.08,-7.17,6.00,6.15,4.64,3.90,3.92,5.08
82.16,-2.02,-7.10,-1.92,-7.00,6.00,6.15,4.55,3.98,4.08,5.08
82.98,-1.67,-6.75,-1.68,-6.75,6.01,6.15,4.45,4.34,4.33,5.08
83.81,-1.33,-6.40,-1.42,-6.49,6.02,6.13,4.36,4.69,4.60,5.07
84.65,-1.21,-6.28,-1.21,-6.28,6.02,6.11,4.27,4.81,4.81,5.07
85.50,-1.13,-6.21,-1.10,-6.17,6.01,6.07,4.19,4.87,4.91,5.08
86.35,-1.03,-6.11,-1.04,-6.12,5.98,6.03,4.10,4.95,4.93,5.08
87.22,-0.96,-6.04,-0.97,-6.05,5.94,5.97,4.03,4.98,4.97,5.08
88.09,-0.90,-5.98,-0.86,-5.95,5.89,5.91,3.95,4.99,5.03,5.08
88.97,-0.75,-5.85,-0.74,-5.83,5.83,5.84,3.87,5.08,5.09,5.10
89.86,-0.58,-5.68,-0.63,-5.72,5.76,5.76,3.80,5.17,5.13,5.09
90.76,-0.52,-5.60,-0.54,-5.63,5.67,5.66,3.74,5.15,5.13,5.08
91.66,-0.51,-5.60,-0.47,-5.55,5.58,5.56,3.67,5.07,5.11,5.09
92.58,-0.43,-5.50,-0.42,-5.50,5.50,5.45,3.61,5.07,5.07,5.07
93.51,-0.32,-5.39,-0.35,-5.43,5.42,5.34,3.55,5.09,5.06,5.07
94.44,-0.28,-5.34,-0.25,-5.31,5.34,5.21,3.49,5.05,5.08,5.06
95.39,-0.18,-5.23,-0.17,-5.21,5.24,5.09,3.44,5.06,5.07,5.04
96.34,-0.05,-5.06,-0.11,-5.13,5.12,4.95,3.39,5.07,5.01,5.01
97.30,-0.05,-5.05,-0.05,-5.04,4.98,4.82,3.34,4.93,4.93,5.00
98.28,-0.00,-4.97,0.05,-4.92,4.82,4.69,3.29,4.81,4.87,4.97
99.26,0.20,-4.75,0.22,-4.73,4.64,4.55,3.25,4.84,4.86,4.94
100.25,0.47,-4.45,0.46,-4.45,4.47,4.41,3.20,4.94,4.93,4.92
101.25,0.71,-4.17,0.68,-4.20,4.30,4.27,3.16,5.01,4.98,4.88
102.27,0.86,-3.99,0.81,-4.03,4.13,4.14,3.12,4.99,4.94,4.85
103.29,0.86,-3.94,0.89,-3.91,3.97,4.00,3.09,4.83,4.86,4.80
104.32,0.91,-3.85,0.95,-3.81,3.82,3.87,3.05,4.73,4.77,4.76
105.37,1.03,-3.69,1.00,-3.71,3.69,3.74,3.02,4.72,4.69,4.72
106.42,1.08,-3.58,1.05,-3.61,3.58,3.61,2.98,4.66,4.63,4.66
107.48,1.08,-3.52,1.09,-3.50,3.48,3.48,2.95,4.55,4.56,4.59
108.56,1.08,-3.44,1.14,-3.38,3.36,3.35,2.92,4.44,4.50,4.52
109.64,1.23,-3.22,1.20,-3.25,3.24,3.23,2.88,4.47,4.44,4.45
110.74,1.31,-3.08,1.26,-3.13,3.10,3.11,2.85,4.41,4.36,4.39
111.85,1.31,-3.01,1.34,-2.98,2.97,2.99,2.82,4.28,4.31,4.32
112.97,1.33,-2.91,1.40,-2.84,2.84,2.87,2.79,4.17,4.24,4.24
114.10,1.54,-2.63,1.47,-2.70,2.73,2.75,2.76,4.26,4.19,4.17
115.24,1.54,-2.56,1.53,-2.56,2.62,2.64,2.72,4.16,4.15,4.10
116.39,1.54,-2.48,1.56,-2.46,2.52,2.53,2.69,4.05,4.07,4.02
117.55,1.54,-2.42,1.54,-2.42,2.42,2.42,2.65,3.96,3.96,3.96
118.73,1.54,-2.35,1.53,-2.37,2.33,2.32,2.62,3.87,3.85,3.89
119.92,1.54,-2.31,1.54,-2.30,2.25,2.21,2.58,3.79,3.79,3.85
121.12,1.55,-2.25,1.60,-2.20,2.19,2.11,2.54,3.73,3.78,3.80
122.33,1.69,-2.07,1.67,-2.09,2.12,2.01,2.50,3.81,3.79,3.75
123.55,1.77,-1.96,1.74,-1.99,2.05,1.91,2.46,3.82,3.79,3.73
124.79,1.77,-1.92,1.77,-1.92,1.97,1.81,2.41,3.74,3.74,3.69
126.03,1.77,-1.89,1.76,-1.90,1.87,1.72,2.36,3.64,3.63,3.66
127.29,1.77,-1.86,1.78,-1.85,1.76,1.63,2.31,3.53,3.54,3.63
128.57,1.82,-1.77,1.88,-1.71,1.64,1.53,2.26,3.46,3.52,3.59
129.85,2.03,-1.53,2.01,-1.56,1.52,1.44,2.21,3.55,3.53,3.56
131.15,2.22,-1.32,2.15,-1.38,1.40,1.36,2.16,3.62,3.55,3.54
132.46,2.22,-1.28,2.28,-1.22,1.29,1.27,2.10,3.51,3.57,3.50
133.79,2.36,-1.11,2.36,-1.11,1.17,1.18,2.04,3.53,3.53,3.47
135.12,2.45,-0.98,2.41,-1.02,1.06,1.10,1.98,3.51,3.48,3.43
136.48,2.45,-0.95,2.46,-0.94,0.97,1.02,1.92,3.42,3.43,3.40
137.84,2.45,-0.92,2.45,-0.91,0.88,0.94,1.85,3.33,3.33,3.37
139.22,2.45,-0.86,2.45,-0.87,0.81,0.86,1.79,3.26,3.25,3.31
140.61,2.45,-0.82,2.49,-0.79,0.74,0.78,1.72,3.19,3.23,3.27
142.02,2.56,-0.69,2.55,-0.69,0.68,0.70,1.66,3.24,3.23,3.25
143.44,2.65,-0.56,2.62,-0.58,0.62,0.63,1.59,3.27,3.24,3.21
144.87,2.68,-0.49,2.68,-0.49,0.55,0.55,1.52,3.23,3.22,3.17
146.32,2.68,-0.44,2.69,-0.44,0.47,0.48,1.45,3.15,3.16,3.12
147.78,2.68,-0.40,2.68,-0.39,0.38,0.41,1.37,3.06,3.06,3.08
149.26,2.68,-0.33,2.67,-0.34,0.28,0.34,1.30,2.96,2.95,3.01
150.75,2.68,-0.25,2.68,-0.26,0.18,0.27,1.23,2.86,2.86,2.93
152.26,2.69,-0.18,2.74,-0.13,0.07,0.20,1.16,2.76,2.81,2.87
153.78,2.83,0.04,2.81,0.02,-0.03,0.13,1.08,2.80,2.77,2.79
155.32,2.90,0.20,2.87,0.17,-0.13,0.07,1.01,2.77,2.74,2.70
156.88,2.91,0.29,2.92,0.29,-0.22,0.00,0.93,2.69,2.69,2.62
158.44,2.91,0.36,2.93,0.38,-0.31,-0.06,0.86,2.60,2.62,2.55
160.03,2.91,0.43,2.91,0.43,-0.38,-0.12,0.78,2.53,2.53,2.48
161.63,2.91,0.49,2.84,0.42,-0.43,-0.18,0.71,2.47,2.41,2.42
163.24,2.77,0.40,2.79,0.42,-0.48,-0.25,0.63,2.29,2.31,2.36
164.88,2.68,0.35,2.78,0.46,-0.52,-0.30,0.56,2.16,2.26,2.32
166.53,2.86,0.57,2.81,0.52,-0.56,-0.36,0.48,2.30,2.24,2.29
168.19,2.91,0.65,2.86,0.60,-0.61,-0.42,0.41,2.30,2.25,2.26
169.87,2.91,0.67,2.92,0.68,-0.67,-0.47,0.33,2.24,2.25,2.24
171.57,2.91,0.68,2.97,0.73,-0.73,-0.52,0.26,2.18,2.24,2.23
173.29,3.05,0.81,3.03,0.79,-0.78,-0.58,0.18,2.27,2.25,2.24
175.02,3.14,0.89,3.10,0.86,-0.83,-0.63,0.10,2.31,2.28,2.25
176.77,3.14,0.89,3.15,0.90,-0.86,-0.68,0.03,2.28,2.29,2.25
178.54,3.14,0.89,3.15,0.89,-0.88,-0.73,-0.05,2.26,2.27,2.25
180.32,3.14,0.88,3.14,0.88,-0.89,-0.78,-0.13,2.25,2.25,2.26
182.13,3.14,0.87,3.14,0.87,-0.90,-0.82,-0.20,2.23,2.23,2.27
183.95,3.14,0.87,3.14,0.88,-0.91,-0.87,-0.28,2.22,2.22,2.26
185.79,3.14,0.89,3.14,0.89,-0.92,-0.91,-0.36,2.22,2.22,2.25
187.65,3.14,0.91,3.14,0.91,-0.91,-0.95,-0.43,2.23,2.23,2.23
189.52,3.14,0.93,3.15,0.94,-0.91,-0.99,-0.51,2.23,2.24,2.21
191.42,3.14,0.95,3.14,0.95,-0.91,-1.03,-0.59,2.23,2.24,2.19
193.33,3.14,0.97,3.10,0.92,-0.90,-1.07,-0.66,2.24,2.20,2.17
195.27,3.03,0.86,3.03,0.87,-0.88,-1.11,-0.74,2.15,2.16,2.17
197.22,2.93,0.78,2.97,0.82,-0.84,-1.14,-0.81,2.09,2.13,2.15
199.19,2.91,0.80,2.92,0.80,-0.78,-1.18,-0.89,2.13,2.14,2.11
201.18,2.91,0.81,2.88,0.78,-0.72,-1.21,-0.97,2.19,2.16,2.10
203.19,2.86,0.77,2.83,0.75,-0.68,-1.24,-1.04,2.18,2.15,2.09
205.23,2.74,0.68,2.75,0.68,-0.67,-1.27,-1.11,2.07,2.09,2.06
207.28,2.68,0.62,2.69,0.64,-0.71,-1.30,-1.19,1.97,1.97,2.06
209.35,2.68,0.65,2.67,0.64,-0.80,-1.32,-1.26,1.88,1.87,2.03
211.44,2.75,0.74,2.77,0.76,-0.93,-1.35,-1.33,1.82,1.85,2.01
213.56,2.94,0.93,2.99,0.98,-1.08,-1.37,-1.40,1.86,1.90,2.01
215.69,3.29,1.29,3.27,1.27,-1.25,-1.39,-1.47,2.04,2.01,2.00
217.85,3.57,1.59,3.54,1.56,-1.44,-1.41,-1.53,2.13,2.10,1.98
220.03,3.75,1.78,3.73,1.77,-1.61,-1.43,-1.60,2.14,2.12,1.97
222.23,3.82,1.87,3.81,1.86,-1.76,-1.45,-1.65,2.06,2.06,1.94
224.45,3.82,1.88,3.83,1.89,-1.86,-1.47,-1.71,1.96,1.97,1.94
226.70,3.82,1.88,3.83,1.89,-1.91,-1.48,-1.77,1.91,1.92,1.94
228.96,3.82,1.89,3.84,1.90,-1.91,-1.49,-1.82,1.90,1.92,1.93
231.25,3.82,1.89,3.80,1.87,-1.88,-1.51,-1.87,1.93,1.92,1.93
233.57,3.79,1.87,3.74,1.82,-1.83,-1.52,-1.91,1.96,1.90,1.92
235.90,3.60,1.69,3.66,1.75,-1.77,-1.52,-1.95,1.83,1.89,1.91
238.26,3.59,1.68,3.61,1.70,-1.71,-1.53,-1.98,1.88,1.91,1.91
240.64,3.59,1.68,3.57,1.66,-1.64,-1.54,-2.01,1.95,1.93,1.91
243.05,3.59,1.67,3.53,1.61,-1.58,-1.54,-2.04,2.01,1.95,1.92
245.48,3.43,1.50,3.46,1.53,-1.52,-1.54,-2.06,1.91,1.94,1.93
247.93,3.36,1.42,3.39,1.46,-1.48,-1.54,-2.08,1.88,1.91,1.94
250.41,3.36,1.43,3.35,1.41,-1.45,-1.54,-2.09,1.91,1.89,1.93
252.92,3.36,1.42,3.34,1.39,-1.45,-1.54,-2.09,1.91,1.89,1.94
255.45,3.36,1.39,3.36,1.40,-1.45,-1.54,-2.09,1.91,1.91,1.96
258.00,3.36,1.39,3.41,1.44,-1.47,-1.53,-2.09,1.89,1.94,1.97
260.58,3.51,1.54,3.48,1.51,-1.49,-1.53,-2.08,2.02,1.99,1.97
263.19,3.58,1.59,3.55,1.57,-1.52,-1.52,-2.07,2.06,2.03,1.98
265.82,3.59,1.60,3.60,1.60,-1.54,-1.51,-2.05,2.04,2.05,1.99
268.48,3.59,1.58,3.60,1.59,-1.56,-1.50,-2.03,2.03,2.03,2.01
271.16,3.59,1.56,3.59,1.56,-1.56,-1.49,-2.00,2.02,2.03,2.03
273.87,3.59,1.55,3.59,1.54,-1.56,-1.48,-1.98,2.03,2.03,2.04
276.61,3.59,1.51,3.59,1.52,-1.54,-1.47,-1.94,2.05,2.05,2.07
279.38,3.59,1.50,3.59,1.50,-1.51,-1.45,-1.91,2.08,2.08,2.09
282.17,3.59,1.47,3.59,1.47,-1.48,-1.44,-1.87,2.11,2.11,2.11
284.99,3.59,1.45,3.59,1.45,-1.45,-1.42,-1.83,2.14,2.14,2.14
287.84,3.59,1.42,3.59,1.42,-1.43,-1.41,-1.78,2.16,2.16,2.16
290.72,3.59,1.39,3.59,1.39,-1.41,-1.39,-1.74,2.18,2.18,2.20
293.63,3.59,1.36,3.59,1.36,-1.38,-1.37,-1.69,2.21,2.21,2.23
296.57,3.59,1.34,3.59,1.34,-1.34,-1.35,-1.64,2.25,2.25,2.25
299.53,3.59,1.31,3.59,1.32,-1.30,-1.33,-1.59,2.29,2.30,2.28
302.53,3.59,1.30,3.60,1.30,-1.25,-1.31,-1.54,2.34,2.35,2.29
305.55,3.59,1.26,3.56,1.24,-1.19,-1.29,-1.49,2.40,2.37,2.33
308.61,3.53,1.18,3.50,1.15,-1.14,-1.27,-1.44,2.39,2.36,2.35
311.69,3.38,1.02,3.43,1.06,-1.10,-1.24,-1.39,2.28,2.33,2.36
314.81,3.36,0.97,3.37,0.99,-1.06,-1.22,-1.33,2.30,2.31,2.39
317.96,3.36,0.97,3.35,0.96,-1.02,-1.20,-1.28,2.34,2.32,2.39
321.14,3.36,0.98,3.36,0.97,-0.99,-1.17,-1.23,2.37,2.37,2.38
324.35,3.36,0.97,3.36,0.97,-0.95,-1.15,-1.18,2.41,2.41,2.39
327.59,3.36,0.96,3.37,0.98,-0.90,-1.12,-1.12,2.45,2.47,2.40
330.87,3.36,0.96,3.36,0.96,-0.87,-1.09,-1.07,2.49,2.49,2.40
334.18,3.36,0.95,3.31,0.90,-0.85,-1.07,-1.02,2.51,2.46,2.41
337.52,3.23,0.81,3.24,0.82,-0.84,-1.04,-0.97,2.39,2.40,2.42
340.90,3.16,0.71,3.17,0.73,-0.84,-1.01,-0.92,2.32,2.33,2.45
344.30,3.14,0.69,3.15,0.69,-0.83,-0.99,-0.87,2.31,2.32,2.45
347.75,3.20,0.73,3.25,0.77,-0.83,-0.96,-0.82,2.37,2.42,2.47
351.23,3.38,0.88,3.37,0.88,-0.83,-0.93,-0.78,2.55,2.55,2.50
354.74,3.54,1.02,3.46,0.94,-0.84,-0.90,-0.73,2.70,2.63,2.52
358.28,3.48,0.93,3.48,0.93,-0.85,-0.87,-0.68,2.63,2.63,2.54
361.87,3.39,0.83,3.43,0.86,-0.85,-0.84,-0.64,2.54,2.57,2.56
365.49,3.36,0.77,3.37,0.78,-0.84,-0.81,-0.59,2.52,2.53,2.59
369.14,3.36,0.75,3.36,0.75,-0.79,-0.78,-0.55,2.57,2.57,2.61
372.83,3.36,0.72,3.36,0.73,-0.70,-0.75,-0.50,2.65,2.66,2.64
376.56,3.36,0.70,3.34,0.68,-0.60,-0.72,-0.46,2.75,2.74,2.66
380.33,3.27,0.59,3.26,0.58,-0.51,-0.69,-0.42,2.76,2.75,2.68
384.13,3.16,0.46,3.14,0.44,-0.42,-0.66,-0.38,2.74,2.72,2.70
387.97,2.98,0.27,3.02,0.30,-0.35,-0.63,-0.33,2.63,2.66,2.71
391.85,2.92,0.20,2.93,0.21,-0.30,-0.60,-0.29,2.62,2.62,2.72
395.77,2.91,0.18,2.89,0.16,-0.26,-0.57,-0.25,2.65,2.63,2.73
399.73,2.91,0.17,2.93,0.20,-0.24,-0.54,-0.21,2.67,2.70,2.74
403.72,2.99,0.24,3.00,0.26,-0.23,-0.50,-0.18,2.76,2.77,2.74
407.76,3.11,0.36,3.08,0.32,-0.26,-0.47,-0.14,2.85,2.81,2.75
411.84,3.14,0.38,3.13,0.37,-0.31,-0.44,-0.10,2.82,2.81,2.76
415.96,3.14,0.37,3.14,0.37,-0.38,-0.41,-0.06,2.76,2.76,2.77
420.12,3.14,0.37,3.15,0.38,-0.44,-0.37,-0.03,2.70,2.71,2.77
424.32,3.16,0.39,3.20,0.43,-0.48,-0.34,0.01,2.68,2.72,2.77
428.56,3.30,0.53,3.27,0.50,-0.50,-0.31,0.05,2.80,2.77,2.77
432.85,3.36,0.59,3.35,0.58,-0.50,-0.27,0.08,2.85,2.85,2.77
437.18,3.36,0.58,3.37,0.59,-0.50,-0.24,0.12,2.86,2.87,2.78
441.55,3.36,0.57,3.31,0.53,-0.48,-0.20,0.15,2.88,2.83,2.78
445.96,3.20,0.42,3.23,0.45,-0.46,-0.17,0.18,2.74,2.77,2.78
450.42,3.14,0.35,3.17,0.37,-0.43,-0.13,0.22,2.71,2.74,2.79
454.93,3.14,0.34,3.13,0.33,-0.39,-0.10,0.25,2.75,2.74,2.80
459.48,3.14,0.33,3.13,0.32,-0.35,-0.06,0.28,2.79,2.79,2.81
464.07,3.14,0.31,3.14,0.31,-0.31,-0.02,0.31,2.83,2.83,2.83
468.71,3.14,0.29,3.14,0.29,-0.28,0.01,0.34,2.86,2.86,2.85
473.40,3.14,0.28,3.14,0.27,-0.26,0.05,0.37,2.88,2.88,2.86
