frequency,raw
20.00,2.94
20.20,2.99
20.40,3.03
20.61,3.08
20.81,3.13
21.02,3.17
21.23,3.21
21.44,3.24
21.66,3.27
21.87,3.30
22.09,3.34
22.31,3.38
22.54,3.42
22.76,3.47
22.99,3.51
23.22,3.55
23.45,3.58
23.69,3.62
23.92,3.66
24.16,3.70
24.40,3.74
24.65,3.77
24.89,3.81
25.14,3.85
25.39,3.89
25.65,3.93
25.91,3.97
26.16,3.99
26.43,4.01
26.69,4.04
26.96,4.06
27.23,4.08
27.50,4.11
27.77,4.13
28.05,4.15
28.33,4.18
28.62,4.20
28.90,4.22
29.19,4.24
29.48,4.26
29.78,4.28
30.08,4.30
30.38,4.32
30.68,4.34
30.99,4.37
31.30,4.40
31.61,4.43
31.93,4.45
32.24,4.47
32.57,4.49
32.89,4.51
33.22,4.53
33.55,4.55
33.89,4.56
34.23,4.58
34.57,4.59
34.92,4.61
35.27,4.62
35.62,4.63
35.97,4.64
36.33,4.65
36.70,4.65
37.06,4.66
37.43,4.66
37.81,4.67
38.19,4.67
38.57,4.68
38.95,4.68
39.34,4.68
39.74,4.68
40.14,4.68
40.54,4.68
40.94,4.68
41.35,4.68
41.76,4.68
42.18,4.68
42.60,4.67
43.03,4.67
43.46,4.67
43.90,4.66
44.33,4.65
44.78,4.64
45.23,4.64
45.68,4.63
46.13,4.62
46.60,4.60
47.06,4.59
47.53,4.57
48.01,4.56
48.49,4.56
48.97,4.55
49.46,4.55
49.96,4.54
50.46,4.53
50.96,4.51
51.47,4.47
51.99,4.42
52.51,4.37
53.03,4.32
53.56,4.29
54.10,4.27
54.64,4.27
55.18,4.27
55.74,4.26
56.29,4.23
56.86,4.20
57.42,4.16
58.00,4.12
58.58,4.08
59.16,4.05
59.76,4.03
60.35,4.01
60.96,3.99
61.57,3.97
62.18,3.95
62.80,3.92
63.43,3.89
64.07,3.86
64.71,3.82
65.35,3.78
66.01,3.74
66.67,3.71
67.33,3.67
68.01,3.63
68.69,3.60
69.37,3.56
70.07,3.53
70.77,3.49
71.48,3.46
72.19,3.43
72.91,3.40
73.64,3.36
74.38,3.31
75.12,3.26
75.87,3.20
76.63,3.14
77.40,3.09
78.17,3.04
78.95,2.99
79.74,2.97
80.54,2.94
81.35,2.90
82.16,2.85
82.98,2.81
83.81,2.77
84.65,2.73
85.50,2.69
86.35,2.63
87.22,2.58
88.09,2.53
88.97,2.48
89.86,2.44
90.76,2.39
91.66,2.35
92.58,2.32
93.51,2.27
94.44,2.22
95.39,2.18
96.34,2.13
97.30,2.06
98.28,2.00
99.26,1.94
100.25,1.87
101.25,1.81
102.27,1.76
103.29,1.72
104.32,1.69
105.37,1.65
106.42,1.60
107.48,1.55
108.56,1.49
109.64,1.43
110.74,1.37
111.85,1.32
112.97,1.26
114.10,1.22
115.24,1.17
116.39,1.12
117.55,1.08
118.73,1.02
119.92,0.98
121.12,0.93
122.33,0.88
123.55,0.83
124.79,0.79
126.03,0.75
127.29,0.72
128.57,0.70
129.85,0.68
131.15,0.66
132.46,0.63
133.79,0.60
135.12,0.56
136.48,0.52
137.84,0.48
139.22,0.46
140.61,0.43
142.02,0.41
143.44,0.39
144.87,0.37
146.32,0.36
147.78,0.33
149.26,0.32
150.75,0.31
152.26,0.30
153.78,0.29
155.32,0.28
156.88,0.26
158.44,0.25
160.03,0.25
161.63,0.24
163.24,0.24
164.88,0.24
166.53,0.24
168.19,0.24
169.87,0.24
171.57,0.25
173.29,0.25
175.02,0.25
176.77,0.26
178.54,0.25
180.32,0.25
182.13,0.24
183.95,0.23
185.79,0.24
187.65,0.26
189.52,0.27
191.42,0.29
193.33,0.31
195.27,0.34
197.22,0.36
199.19,0.38
201.18,0.40
203.19,0.41
205.23,0.42
207.28,0.44
209.35,0.46
211.44,0.48
213.56,0.50
215.69,0.52
217.85,0.52
220.03,0.52
222.23,0.53
224.45,0.54
226.70,0.55
228.96,0.58
231.25,0.61
233.57,0.64
235.90,0.66
238.26,0.70
240.64,0.72
243.05,0.75
245.48,0.78
247.93,0.80
250.41,0.83
252.92,0.86
255.45,0.90
258.00,0.93
260.58,0.96
263.19,0.99
265.82,1.02
268.48,1.05
271.16,1.08
273.87,1.11
276.61,1.14
279.38,1.17
282.17,1.21
284.99,1.24
287.84,1.27
290.72,1.30
293.63,1.33
296.57,1.36
299.53,1.39
302.53,1.42
305.55,1.45
308.61,1.47
311.69,1.50
314.81,1.52
317.96,1.55
321.14,1.57
324.35,1.60
327.59,1.63
330.87,1.65
334.18,1.67
337.52,1.71
340.90,1.72
344.30,1.75
347.75,1.77
351.23,1.79
354.74,1.82
358.28,1.84
361.87,1.86
365.49,1.89
369.14,1.91
372.83,1.92
376.56,1.95
380.33,1.97
384.13,1.99
387.97,2.00
391.85,2.01
395.77,2.03
399.73,2.05
403.72,2.07
407.76,2.08
411.84,2.10
415.96,2.11
420.12,2.12
424.32,2.13
428.56,2.14
432.85,2.15
437.18,2.16
441.55,2.17
445.96,2.19
450.42,2.20
454.93,2.22
459.48,2.23
464.07,2.25
468.71,2.26
473.40,2.27
478.13,2.28
482.91,2.28
487.74,2.29
492.62,2.29
497.55,2.29
502.52,2.28
507.55,2.27
512.62,2.25
517.75,2.22
522.93,2.19
528.16,2.16
533.44,2.14
538.77,2.11
544.16,2.10
549.60,2.08
555.10,2.06
560.65,2.04
566.25,2.00
571.92,1.96
577.64,1.91
583.41,1.86
589.25,1.81
595.14,1.77
601.09,1.72
607.10,1.67
613.17,1.61
619.30,1.55
625.50,1.48
631.75,1.41
638.07,1.34
644.45,1.29
650.89,1.25
657.40,1.22
663.98,1.19
670.62,1.16
677.32,1.12
684.10,1.07
690.94,1.02
697.85,0.96
704.83,0.91
711.87,0.86
718.99,0.82
726.18,0.77
733.44,0.72
740.78,0.66
748.19,0.59
755.67,0.51
763.23,0.43
770.86,0.35
778.57,0.28
786.35,0.21
794.22,0.16
802.16,0.11
810.18,0.06
818.28,0.01
826.46,-0.04
834.73,-0.08
843.08,-0.12
851.51,-0.16
860.02,-0.19
868.62,-0.22
877.31,-0.25
886.08,-0.27
894.94,-0.28
903.89,-0.28
912.93,-0.29
922.06,-0.28
931.28,-0.27
940.59,-0.25
950.00,-0.23
959.50,-0.18
969.09,-0.14
978.78,-0.09
988.57,-0.05
998.46,-0.01
1008.44,0.04
1018.53,0.09
1028.71,0.14
1039.00,0.21
1049.39,0.30
1059.88,0.38
1070.48,0.49
1081.19,0.60
1092.00,0.71
1102.92,0.83
1113.95,0.95
1125.09,1.07
1136.34,1.18
1147.70,1.29
1159.18,1.39
1170.77,1.49
1182.48,1.60
1194.30,1.70
1206.25,1.80
1218.31,1.92
1230.49,2.03
1242.80,2.15
1255.22,2.27
1267.78,2.41
1280.45,2.55
1293.26,2.69
1306.19,2.81
1319.25,2.93
1332.45,3.03
1345.77,3.13
1359.23,3.23
1372.82,3.34
1386.55,3.45
1400.41,3.58
1414.42,3.70
1428.56,3.81
1442.85,3.91
1457.28,4.00
1471.85,4.07
1486.57,4.16
1501.43,4.25
1516.45,4.35
1531.61,4.46
1546.93,4.57
1562.40,4.68
1578.02,4.77
1593.80,4.86
1609.74,4.94
1625.84,5.03
1642.10,5.12
1658.52,5.20
1675.10,5.28
1691.85,5.37
1708.77,5.45
1725.86,5.54
1743.12,5.63
1760.55,5.73
1778.15,5.83
1795.94,5.92
1813.90,6.02
1832.03,6.11
1850.36,6.20
1868.86,6.30
1887.55,6.40
1906.42,6.50
1925.49,6.60
1944.74,6.70
1964.19,6.79
1983.83,6.88
2003.67,6.99
2023.71,7.09
2043.94,7.21
2064.38,7.32
2085.03,7.44
2105.88,7.55
2126.94,7.65
2148.20,7.75
2169.69,7.84
2191.38,7.92
2213.30,8.01
2235.43,8.09
2257.78,8.17
2280.36,8.27
2303.17,8.35
2326.20,8.43
2349.46,8.49
2372.95,8.53
2396.68,8.59
2420.65,8.63
2444.86,8.68
2469.31,8.75
2494.00,8.82
2518.94,8.90
2544.13,8.99
2569.57,9.08
2595.27,9.16
2621.22,9.23
2647.43,9.27
2673.90,9.30
2700.64,9.30
2727.65,9.30
2754.93,9.29
2782.48,9.27
2810.30,9.27
2838.40,9.28
2866.79,9.29
2895.46,9.33
2924.41,9.36
2953.65,9.39
2983.19,9.41
3013.02,9.43
3043.15,9.44
3073.58,9.44
3104.32,9.43
3135.36,9.42
3166.72,9.40
3198.38,9.38
3230.37,9.33
3262.67,9.28
3295.30,9.23
3328.25,9.19
3361.53,9.13
3395.15,9.08
3429.10,9.02
3463.39,8.97
3498.03,8.91
3533.01,8.83
3568.34,8.74
3604.02,8.63
3640.06,8.52
3676.46,8.40
3713.22,8.28
3750.36,8.15
3787.86,8.03
3825.74,7.90
3864.00,7.79
3902.64,7.67
3941.66,7.56
3981.08,7.44
4020.89,7.30
4061.10,7.16
4101.71,7.02
4142.73,6.87
4184.15,6.72
4226.00,6.58
4268.26,6.44
4310.94,6.30
4354.05,6.17
4397.59,6.06
4441.56,5.97
4485.98,5.89
4530.84,5.82
4576.15,5.75
4621.91,5.68
4668.13,5.60
4714.81,5.53
4761.96,5.47
4809.58,5.38
4857.67,5.29
4906.25,5.20
4955.31,5.10
5004.87,5.02
5054.91,4.95
5105.46,4.88
5156.52,4.85
5208.08,4.84
5260.16,4.83
5312.77,4.85
5365.89,4.86
5419.55,4.88
5473.75,4.90
5528.49,4.91
5583.77,4.93
5639.61,4.96
5696.00,5.02
5752.96,5.05
5810.49,5.09
5868.60,5.13
5927.28,5.16
5986.56,5.19
6046.42,5.22
6106.89,5.23
6167.96,5.24
6229.64,5.22
6291.93,5.17
6354.85,5.11
6418.40,5.03
6482.58,4.96
6547.41,4.93
6612.88,4.91
6679.01,4.91
6745.80,4.93
6813.26,4.95
6881.39,4.94
6950.21,4.93
7019.71,4.91
7089.91,4.85
7160.81,4.78
7232.41,4.69
7304.74,4.58
7377.79,4.43
7451.56,4.24
7526.08,4.06
7601.34,3.90
7677.35,3.77
7754.13,3.68
7831.67,3.64
7909.98,3.63
7989.08,3.65
8068.98,3.70
8149.67,3.80
8231.16,3.93
8313.47,4.13
8396.61,4.37
8480.57,4.63
8565.38,4.82
8651.03,4.93
8737.54,4.95
8824.92,4.93
8913.17,4.93
9002.30,4.79
9092.32,4.69
9183.25,4.59
9275.08,4.38
9367.83,4.04
9461.51,3.54
9556.12,2.97
9651.68,2.36
9748.20,1.74
9845.68,1.13
9944.14,0.52
10043.58,-0.09
10144.02,-0.68
10245.46,-1.24
10347.91,-1.80
10451.39,-2.36
10555.91,-2.86
10661.46,-3.27
10768.08,-3.65
10875.76,-4.00
10984.52,-4.33
11094.36,-4.60
11205.31,-4.84
11317.36,-4.96
11430.53,-4.82
11544.84,-5.06
11660.29,-5.74
11776.89,-5.86
11894.66,-5.97
12013.60,-6.10
12133.74,-5.98
12255.08,-6.06
12377.63,-6.20
12501.41,-6.26
12626.42,-6.28
12752.68,-6.23
12880.21,-6.17
13009.01,-6.04
13139.10,-5.90
13270.49,-5.71
13403.20,-5.35
13537.23,-4.92
13672.60,-4.45
13809.33,-3.98
13947.42,-3.42
14086.90,-2.79
14227.77,-2.09
14370.04,-1.32
14513.74,-0.54
14658.88,0.25
14805.47,0.99
14953.52,1.65
15103.06,2.22
15254.09,2.63
15406.63,2.87
15560.70,2.98
15716.30,2.91
15873.47,2.70
16032.20,2.39
16192.52,2.00
16354.45,1.55
16517.99,1.09
16683.17,0.61
16850.01,0.18
17018.51,-0.18
17188.69,-0.49
17360.58,-0.68
17534.18,-0.79
17709.53,-0.82
17886.62,-0.74
18065.49,-0.60
18246.14,-0.43
18428.60,-0.24
18612.89,-0.06
18799.02,0.09
18987.01,0.16
19176.88,0.06
19368.65,-0.17
19562.33,-0.56
19757.96,-1.24
19955.54,-2.20
