frequency,raw,smoothed,error,error_smoothed,equalization,parametric_eq,fixed_band_eq,equalized_raw,equalized_smoothed,target
20.00,10.45,10.45,2.57,2.57,-2.57,-3.30,-1.51,7.88,7.88,7.88
20.20,10.51,10.50,2.63,2.63,-2.63,-3.30,-1.55,7.88,7.88,7.88
20.40,10.56,10.56,2.68,2.68,-2.68,-3.30,-1.60,7.87,7.88,7.88
20.61,10.62,10.61,2.74,2.74,-2.74,-3.30,-1.65,7.88,7.87,7.88
20.81,10.67,10.67,2.79,2.79,-2.79,-3.30,-1.69,7.87,7.87,7.88
21.02,10.72,10.72,2.84,2.84,-2.84,-3.30,-1.74,7.87,7.87,7.88
21.23,10.77,10.77,2.89,2.89,-2.89,-3.30,-1.79,7.87,7.87,7.87
21.44,10.82,10.81,2.94,2.94,-2.94,-3.31,-1.85,7.88,7.88,7.87
21.66,10.86,10.86,2.98,2.99,-2.98,-3.31,-1.90,7.87,7.88,7.87
21.87,10.90,10.90,3.03,3.03,-3.02,-3.31,-1.96,7.87,7.88,7.87
22.09,10.94,10.93,3.07,3.06,-3.06,-3.31,-2.01,7.88,7.87,7.87
22.31,10.97,10.97,3.10,3.10,-3.10,-3.31,-2.07,7.87,7.87,7.87
22.54,11.00,11.00,3.13,3.13,-3.13,-3.31,-2.13,7.87,7.87,7.87
22.76,11.03,11.03,3.16,3.16,-3.16,-3.31,-2.19,7.86,7.86,7.87
22.99,11.06,11.06,3.19,3.19,-3.19,-3.31,-2.26,7.86,7.87,7.87
23.22,11.09,11.09,3.22,3.22,-3.22,-3.32,-2.32,7.87,7.87,7.87
23.45,11.12,11.11,3.25,3.25,-3.25,-3.32,-2.39,7.87,7.87,7.87
23.69,11.14,11.14,3.27,3.27,-3.27,-3.32,-2.45,7.87,7.87,7.86
23.92,11.16,11.16,3.29,3.29,-3.29,-3.32,-2.52,7.87,7.87,7.86
24.16,11.18,11.17,3.31,3.31,-3.31,-3.32,-2.59,7.86,7.86,7.86
24.40,11.19,11.19,3.33,3.33,-3.33,-3.32,-2.66,7.86,7.86,7.86
24.65,11.21,11.20,3.35,3.35,-3.35,-3.32,-2.73,7.86,7.86,7.86
24.89,11.22,11.22,3.36,3.36,-3.36,-3.33,-2.81,7.85,7.86,7.86
25.14,11.24,11.23,3.38,3.38,-3.38,-3.33,-2.88,7.86,7.86,7.86
25.39,11.25,11.25,3.39,3.39,-3.39,-3.33,-2.95,7.86,7.86,7.86
25.65,11.26,11.26,3.40,3.40,-3.40,-3.33,-3.03,7.86,7.86,7.85
25.91,11.27,11.26,3.41,3.41,-3.41,-3.33,-3.10,7.86,7.85,7.85
26.16,11.27,11.27,3.42,3.42,-3.42,-3.33,-3.18,7.85,7.85,7.85
26.43,11.28,11.28,3.43,3.43,-3.43,-3.34,-3.25,7.85,7.85,7.85
26.69,11.29,11.28,3.44,3.44,-3.44,-3.34,-3.32,7.85,7.85,7.85
26.96,11.29,11.29,3.44,3.44,-3.44,-3.34,-3.39,7.84,7.85,7.85
27.23,11.30,11.29,3.45,3.45,-3.45,-3.34,-3.46,7.85,7.85,7.84
27.50,11.30,11.30,3.45,3.45,-3.45,-3.34,-3.53,7.84,7.84,7.84
27.77,11.30,11.30,3.46,3.46,-3.46,-3.34,-3.60,7.84,7.84,7.84
28.05,11.30,11.30,3.46,3.46,-3.46,-3.35,-3.66,7.83,7.84,7.84
28.33,11.31,11.30,3.47,3.47,-3.47,-3.35,-3.72,7.84,7.84,7.84
28.62,11.31,11.31,3.47,3.47,-3.47,-3.35,-3.78,7.84,7.84,7.83
28.90,11.31,11.30,3.47,3.47,-3.47,-3.35,-3.84,7.84,7.83,7.83
29.19,11.30,11.30,3.47,3.47,-3.47,-3.35,-3.89,7.83,7.83,7.83
29.48,11.30,11.30,3.47,3.47,-3.47,-3.36,-3.93,7.82,7.82,7.83
29.78,11.30,11.30,3.47,3.47,-3.47,-3.36,-3.98,7.82,7.82,7.82
30.08,11.30,11.30,3.47,3.47,-3.48,-3.36,-4.01,7.82,7.82,7.82
30.38,11.30,11.30,3.48,3.48,-3.48,-3.36,-4.05,7.82,7.82,7.82
30.68,11.30,11.30,3.48,3.48,-3.48,-3.36,-4.07,7.82,7.82,7.82
30.99,11.30,11.30,3.48,3.48,-3.48,-3.36,-4.10,7.82,7.82,7.81
31.30,11.30,11.29,3.49,3.48,-3.48,-3.37,-4.11,7.81,7.81,7.81
31.61,11.29,11.29,3.48,3.48,-3.48,-3.37,-4.13,7.80,7.81,7.81
31.93,11.29,11.29,3.48,3.48,-3.48,-3.37,-4.13,7.80,7.80,7.80
32.24,11.29,11.28,3.49,3.48,-3.48,-3.37,-4.13,7.80,7.80,7.80
32.57,11.28,11.28,3.48,3.48,-3.48,-3.37,-4.13,7.80,7.80,7.80
32.89,11.28,11.27,3.48,3.48,-3.48,-3.38,-4.12,7.80,7.79,7.79
33.22,11.27,11.27,3.48,3.48,-3.48,-3.38,-4.11,7.79,7.79,7.79
33.55,11.27,11.26,3.48,3.48,-3.48,-3.38,-4.09,7.79,7.79,7.79
33.89,11.26,11.26,3.47,3.48,-3.48,-3.38,-4.07,7.78,7.78,7.78
34.23,11.26,11.25,3.48,3.48,-3.48,-3.39,-4.05,7.78,7.78,7.78
34.57,11.25,11.25,3.47,3.48,-3.48,-3.39,-4.02,7.77,7.77,7.77
34.92,11.25,11.24,3.48,3.47,-3.47,-3.39,-3.99,7.77,7.77,7.77
35.27,11.24,11.24,3.47,3.47,-3.47,-3.39,-3.96,7.76,7.76,7.76
35.62,11.23,11.23,3.47,3.47,-3.47,-3.39,-3.92,7.76,7.76,7.76
35.97,11.23,11.22,3.47,3.47,-3.47,-3.40,-3.89,7.76,7.75,7.75
36.33,11.22,11.22,3.47,3.47,-3.47,-3.40,-3.85,7.75,7.75,7.75
36.70,11.21,11.21,3.46,3.47,-3.47,-3.40,-3.81,7.74,7.74,7.74
37.06,11.21,11.20,3.47,3.47,-3.46,-3.40,-3.77,7.74,7.74,7.74
37.43,11.20,11.20,3.46,3.46,-3.46,-3.41,-3.74,7.73,7.73,7.73
37.81,11.19,11.19,3.46,3.46,-3.46,-3.41,-3.70,7.73,7.73,7.73
38.19,11.18,11.18,3.46,3.46,-3.46,-3.41,-3.66,7.72,7.72,7.72
38.57,11.17,11.17,3.45,3.46,-3.46,-3.41,-3.62,7.71,7.71,7.71
38.95,11.17,11.16,3.46,3.46,-3.46,-3.41,-3.59,7.71,7.71,7.71
39.34,11.16,11.16,3.46,3.46,-3.46,-3.42,-3.55,7.70,7.70,7.70
39.74,11.15,11.15,3.46,3.46,-3.45,-3.42,-3.52,7.69,7.69,7.69
40.14,11.14,11.14,3.45,3.45,-3.45,-3.42,-3.49,7.68,7.68,7.68
40.54,11.13,11.13,3.45,3.45,-3.45,-3.42,-3.46,7.68,7.68,7.68
40.94,11.12,11.12,3.45,3.45,-3.45,-3.42,-3.43,7.67,7.67,7.67
41.35,11.11,11.11,3.45,3.45,-3.45,-3.43,-3.41,7.66,7.66,7.66
41.76,11.10,11.10,3.45,3.45,-3.45,-3.43,-3.39,7.65,7.65,7.65
42.18,11.09,11.09,3.44,3.44,-3.44,-3.43,-3.37,7.64,7.64,7.64
42.60,11.08,11.08,3.44,3.44,-3.44,-3.43,-3.35,7.63,7.63,7.63
43.03,11.07,11.07,3.44,3.44,-3.44,-3.43,-3.33,7.62,7.62,7.62
43.46,11.06,11.06,3.44,3.44,-3.44,-3.44,-3.32,7.61,7.61,7.61
43.90,11.05,11.05,3.44,3.44,-3.45,-3.44,-3.31,7.60,7.60,7.60
44.33,11.04,11.04,3.45,3.45,-3.45,-3.44,-3.30,7.59,7.59,7.59
44.78,11.03,11.03,3.45,3.45,-3.45,-3.44,-3.29,7.58,7.58,7.58
45.23,11.02,11.02,3.45,3.45,-3.45,-3.44,-3.29,7.57,7.57,7.57
45.68,11.01,11.01,3.45,3.45,-3.45,-3.45,-3.29,7.56,7.56,7.56
46.13,11.00,10.99,3.45,3.45,-3.45,-3.45,-3.29,7.55,7.54,7.54
46.60,10.98,10.98,3.45,3.45,-3.45,-3.45,-3.30,7.53,7.53,7.53
47.06,10.97,10.97,3.45,3.45,-3.45,-3.45,-3.30,7.52,7.52,7.52
47.53,10.96,10.95,3.45,3.45,-3.45,-3.45,-3.31,7.51,7.50,7.50
48.01,10.94,10.94,3.45,3.45,-3.45,-3.45,-3.32,7.49,7.49,7.49
48.49,10.93,10.92,3.45,3.45,-3.45,-3.46,-3.34,7.48,7.48,7.48
48.97,10.91,10.91,3.45,3.45,-3.45,-3.46,-3.35,7.46,7.46,7.46
49.46,10.90,10.89,3.45,3.45,-3.45,-3.46,-3.37,7.44,7.44,7.44
49.96,10.88,10.88,3.45,3.45,-3.45,-3.46,-3.39,7.42,7.43,7.43
50.46,10.87,10.86,3.46,3.45,-3.45,-3.46,-3.41,7.41,7.41,7.41
50.96,10.85,10.85,3.45,3.46,-3.46,-3.46,-3.43,7.39,7.39,7.39
51.47,10.84,10.83,3.46,3.46,-3.46,-3.46,-3.46,7.38,7.38,7.38
51.99,10.82,10.82,3.46,3.46,-3.46,-3.46,-3.48,7.36,7.36,7.36
52.51,10.80,10.80,3.46,3.46,-3.46,-3.46,-3.51,7.34,7.34,7.34
53.03,10.78,10.78,3.46,3.46,-3.46,-3.46,-3.53,7.32,7.32,7.32
53.56,10.76,10.76,3.46,3.46,-3.46,-3.47,-3.56,7.30,7.30,7.30
54.10,10.74,10.74,3.46,3.46,-3.46,-3.47,-3.58,7.28,7.27,7.28
54.64,10.72,10.71,3.46,3.46,-3.46,-3.47,-3.61,7.26,7.25,7.25
55.18,10.69,10.69,3.46,3.46,-3.46,-3.47,-3.63,7.23,7.23,7.23
55.74,10.67,10.67,3.46,3.46,-3.46,-3.47,-3.66,7.21,7.21,7.21
56.29,10.65,10.64,3.46,3.46,-3.46,-3.47,-3.68,7.19,7.18,7.18
56.86,10.62,10.62,3.46,3.46,-3.46,-3.47,-3.70,7.16,7.16,7.16
57.42,10.59,10.59,3.45,3.46,-3.46,-3.47,-3.72,7.13,7.13,7.13
58.00,10.56,10.56,3.45,3.45,-3.46,-3.46,-3.74,7.10,7.10,7.11
58.58,10.54,10.53,3.46,3.45,-3.46,-3.46,-3.76,7.08,7.08,7.08
59.16,10.51,10.51,3.46,3.46,-3.45,-3.46,-3.77,7.05,7.05,7.05
59.76,10.48,10.48,3.45,3.46,-3.45,-3.46,-3.78,7.02,7.02,7.02
60.35,10.45,10.45,3.45,3.46,-3.45,-3.46,-3.79,6.99,6.99,6.99
60.96,10.42,10.42,3.46,3.45,-3.45,-3.46,-3.79,6.96,6.96,6.96
61.57,10.39,10.38,3.46,3.45,-3.45,-3.46,-3.79,6.93,6.93,6.93
62.18,10.35,10.35,3.45,3.45,-3.45,-3.45,-3.79,6.89,6.90,6.90
62.80,10.32,10.32,3.45,3.45,-3.45,-3.45,-3.78,6.86,6.86,6.86
63.43,10.29,10.28,3.46,3.45,-3.45,-3.45,-3.77,6.83,6.83,6.83
64.07,10.25,10.25,3.45,3.46,-3.45,-3.45,-3.76,6.79,6.80,6.80
64.71,10.22,10.21,3.46,3.46,-3.45,-3.44,-3.74,6.76,6.76,6.76
65.35,10.18,10.18,3.45,3.45,-3.45,-3.44,-3.72,6.72,6.72,6.72
66.01,10.14,10.14,3.45,3.45,-3.45,-3.44,-3.70,6.68,6.68,6.68
66.67,10.10,10.10,3.45,3.45,-3.45,-3.43,-3.68,6.64,6.64,6.64
67.33,10.06,10.06,3.45,3.45,-3.45,-3.43,-3.65,6.60,6.60,6.60
68.01,10.02,10.02,3.45,3.45,-3.45,-3.43,-3.62,6.56,6.56,6.56
68.69,9.98,9.97,3.46,3.45,-3.45,-3.42,-3.59,6.53,6.52,6.52
69.37,9.93,9.93,3.45,3.45,-3.45,-3.42,-3.55,6.48,6.48,6.48
70.07,9.89,9.88,3.45,3.45,-3.45,-3.41,-3.51,6.44,6.44,6.43
70.77,9.84,9.84,3.45,3.45,-3.45,-3.41,-3.48,6.39,6.39,6.39
71.48,9.79,9.79,3.44,3.44,-3.44,-3.40,-3.44,6.34,6.34,6.34
72.19,9.74,9.74,3.44,3.44,-3.44,-3.40,-3.40,6.29,6.29,6.30
72.91,9.69,9.69,3.44,3.44,-3.44,-3.39,-3.36,6.25,6.25,6.25
73.64,9.64,9.64,3.44,3.44,-3.44,-3.38,-3.32,6.20,6.20,6.20
74.38,9.59,9.59,3.44,3.44,-3.44,-3.38,-3.28,6.15,6.15,6.15
75.12,9.54,9.53,3.44,3.44,-3.44,-3.37,-3.24,6.10,6.10,6.10
75.87,9.48,9.48,3.43,3.44,-3.43,-3.36,-3.20,6.04,6.05,6.04
76.63,9.43,9.42,3.43,3.43,-3.43,-3.35,-3.16,5.99,5.99,5.99
77.40,9.37,9.37,3.43,3.43,-3.43,-3.35,-3.13,5.94,5.94,5.94
78.17,9.31,9.31,3.42,3.43,-3.43,-3.34,-3.09,5.88,5.88,5.88
78.95,9.25,9.25,3.42,3.42,-3.42,-3.33,-3.05,5.83,5.82,5.83
79.74,9.19,9.18,3.42,3.42,-3.42,-3.32,-3.02,5.77,5.77,5.77
80.54,9.12,9.12,3.41,3.41,-3.41,-3.31,-2.99,5.71,5.71,5.71
81.35,9.06,9.05,3.41,3.40,-3.40,-3.30,-2.96,5.65,5.65,5.65
82.16,8.99,8.99,3.40,3.40,-3.40,-3.29,-2.93,5.59,5.59,5.59
82.98,8.92,8.92,3.39,3.39,-3.39,-3.28,-2.90,5.53,5.53,5.53
83.81,8.85,8.85,3.38,3.38,-3.38,-3.27,-2.88,5.47,5.47,5.47
84.65,8.78,8.78,3.37,3.37,-3.37,-3.26,-2.85,5.40,5.40,5.41
85.50,8.71,8.70,3.37,3.36,-3.36,-3.25,-2.83,5.34,5.34,5.34
86.35,8.63,8.63,3.35,3.35,-3.35,-3.24,-2.82,5.27,5.28,5.28
87.22,8.56,8.55,3.35,3.34,-3.34,-3.23,-2.80,5.22,5.21,5.21
88.09,8.48,8.47,3.33,3.33,-3.33,-3.22,-2.78,5.15,5.15,5.15
88.97,8.39,8.39,3.31,3.31,-3.31,-3.21,-2.77,5.08,5.08,5.08
89.86,8.31,8.30,3.30,3.29,-3.30,-3.20,-2.76,5.01,5.01,5.01
90.76,8.22,8.22,3.27,3.28,-3.28,-3.18,-2.75,4.94,4.94,4.94
91.66,8.14,8.13,3.26,3.26,-3.26,-3.17,-2.75,4.88,4.88,4.88
92.58,8.05,8.05,3.24,3.24,-3.24,-3.16,-2.74,4.81,4.81,4.81
93.51,7.96,7.96,3.22,3.22,-3.22,-3.15,-2.74,4.74,4.74,4.74
94.44,7.87,7.86,3.20,3.20,-3.20,-3.14,-2.74,4.67,4.67,4.67
95.39,7.77,7.77,3.17,3.17,-3.18,-3.12,-2.74,4.59,4.59,4.60
96.34,7.68,7.68,3.15,3.15,-3.15,-3.11,-2.75,4.52,4.52,4.52
97.30,7.59,7.59,3.13,3.13,-3.13,-3.10,-2.75,4.45,4.45,4.45
98.28,7.50,7.50,3.12,3.12,-3.12,-3.08,-2.76,4.38,4.38,4.38
99.26,7.41,7.41,3.10,3.10,-3.10,-3.07,-2.77,4.31,4.31,4.31
100.25,7.32,7.32,3.08,3.08,-3.08,-3.06,-2.78,4.23,4.23,4.24
101.25,7.23,7.23,3.06,3.07,-3.07,-3.05,-2.79,4.16,4.16,4.16
102.27,7.15,7.15,3.06,3.06,-3.06,-3.03,-2.80,4.09,4.09,4.09
103.29,7.07,7.07,3.05,3.05,-3.05,-3.02,-2.82,4.02,4.02,4.02
104.32,6.99,6.99,3.04,3.04,-3.04,-3.01,-2.83,3.95,3.94,3.94
105.37,6.91,6.91,3.04,3.04,-3.04,-2.99,-2.85,3.87,3.87,3.87
106.42,6.83,6.83,3.03,3.03,-3.03,-2.98,-2.86,3.80,3.80,3.80
107.48,6.76,6.75,3.03,3.03,-3.03,-2.97,-2.88,3.73,3.72,3.73
108.56,6.68,6.68,3.02,3.02,-3.03,-2.95,-2.89,3.65,3.65,3.65
109.64,6.60,6.60,3.02,3.02,-3.02,-2.94,-2.91,3.58,3.58,3.58
110.74,6.53,6.52,3.02,3.02,-3.02,-2.93,-2.92,3.51,3.51,3.51
111.85,6.45,6.45,3.01,3.01,-3.01,-2.91,-2.94,3.44,3.44,3.43
112.97,6.37,6.37,3.00,3.00,-3.00,-2.90,-2.95,3.36,3.36,3.36
114.10,6.29,6.28,3.00,2.99,-2.99,-2.89,-2.96,3.29,3.29,3.29
115.24,6.20,6.20,2.98,2.98,-2.98,-2.88,-2.97,3.22,3.22,3.22
116.39,6.12,6.11,2.97,2.96,-2.96,-2.86,-2.98,3.15,3.15,3.15
117.55,6.03,6.02,2.95,2.95,-2.94,-2.85,-2.99,3.08,3.08,3.08
118.73,5.93,5.93,2.92,2.92,-2.92,-2.84,-2.99,3.01,3.01,3.01
119.92,5.84,5.83,2.90,2.90,-2.89,-2.83,-2.99,2.94,2.94,2.94
121.12,5.74,5.74,2.87,2.87,-2.87,-2.81,-3.00,2.87,2.87,2.87
122.33,5.64,5.64,2.83,2.84,-2.84,-2.80,-2.99,2.80,2.80,2.80
123.55,5.54,5.54,2.80,2.80,-2.80,-2.79,-2.99,2.73,2.73,2.73
124.79,5.44,5.44,2.77,2.77,-2.77,-2.78,-2.98,2.67,2.67,2.67
126.03,5.34,5.34,2.73,2.74,-2.73,-2.76,-2.97,2.60,2.60,2.60
127.29,5.24,5.24,2.70,2.70,-2.70,-2.75,-2.96,2.54,2.54,2.54
128.57,5.14,5.14,2.67,2.67,-2.66,-2.74,-2.94,2.47,2.47,2.47
129.85,5.04,5.04,2.63,2.63,-2.63,-2.73,-2.92,2.41,2.41,2.41
131.15,4.94,4.94,2.59,2.59,-2.59,-2.72,-2.90,2.34,2.34,2.34
132.46,4.84,4.84,2.55,2.56,-2.56,-2.71,-2.88,2.28,2.28,2.28
133.79,4.75,4.75,2.53,2.53,-2.53,-2.70,-2.86,2.22,2.22,2.22
135.12,4.66,4.65,2.50,2.49,-2.49,-2.68,-2.83,2.16,2.16,2.16
136.48,4.57,4.57,2.47,2.46,-2.46,-2.67,-2.80,2.10,2.10,2.10
137.84,4.48,4.48,2.43,2.44,-2.44,-2.66,-2.77,2.04,2.04,2.04
139.22,4.40,4.40,2.41,2.41,-2.41,-2.65,-2.74,1.98,1.98,1.99
140.61,4.32,4.32,2.39,2.39,-2.39,-2.64,-2.70,1.92,1.93,1.93
142.02,4.25,4.25,2.37,2.37,-2.37,-2.63,-2.67,1.87,1.87,1.87
143.44,4.18,4.18,2.36,2.36,-2.36,-2.61,-2.63,1.82,1.82,1.82
144.87,4.11,4.11,2.34,2.34,-2.34,-2.60,-2.60,1.76,1.77,1.76
146.32,4.05,4.05,2.33,2.33,-2.33,-2.59,-2.56,1.72,1.72,1.71
147.78,3.99,3.98,2.32,2.32,-2.32,-2.58,-2.53,1.67,1.67,1.67
149.26,3.93,3.93,2.31,2.31,-2.31,-2.57,-2.49,1.62,1.62,1.62
150.75,3.87,3.87,2.30,2.30,-2.30,-2.55,-2.45,1.57,1.57,1.57
152.26,3.82,3.81,2.29,2.29,-2.29,-2.54,-2.42,1.53,1.52,1.52
153.78,3.76,3.76,2.28,2.28,-2.28,-2.53,-2.38,1.47,1.48,1.47
155.32,3.71,3.70,2.28,2.28,-2.27,-2.52,-2.35,1.43,1.43,1.43
156.88,3.65,3.65,2.26,2.27,-2.27,-2.50,-2.32,1.38,1.38,1.38
158.44,3.60,3.60,2.26,2.26,-2.26,-2.49,-2.28,1.33,1.34,1.34
160.03,3.55,3.55,2.25,2.25,-2.26,-2.48,-2.25,1.29,1.29,1.29
161.63,3.50,3.50,2.25,2.25,-2.25,-2.46,-2.22,1.25,1.25,1.24
163.24,3.45,3.45,2.25,2.24,-2.24,-2.45,-2.19,1.21,1.20,1.20
164.88,3.40,3.40,2.24,2.24,-2.23,-2.43,-2.17,1.16,1.16,1.16
166.53,3.35,3.35,2.23,2.23,-2.23,-2.42,-2.14,1.12,1.12,1.12
168.19,3.31,3.30,2.22,2.22,-2.22,-2.40,-2.12,1.09,1.08,1.08
169.87,3.26,3.26,2.21,2.21,-2.21,-2.39,-2.09,1.04,1.04,1.05
171.57,3.22,3.22,2.21,2.21,-2.21,-2.37,-2.07,1.01,1.01,1.01
173.29,3.18,3.17,2.20,2.20,-2.20,-2.35,-2.05,0.97,0.97,0.97
175.02,3.14,3.14,2.20,2.20,-2.20,-2.34,-2.04,0.94,0.94,0.94
176.77,3.10,3.10,2.19,2.19,-2.19,-2.32,-2.02,0.90,0.91,0.91
178.54,3.07,3.06,2.19,2.19,-2.19,-2.30,-2.00,0.88,0.87,0.87
180.32,3.03,3.03,2.19,2.19,-2.19,-2.28,-1.99,0.84,0.84,0.84
182.13,3.00,2.99,2.19,2.18,-2.18,-2.26,-1.98,0.81,0.81,0.81
183.95,2.96,2.96,2.18,2.18,-2.18,-2.24,-1.97,0.78,0.78,0.78
185.79,2.93,2.93,2.18,2.18,-2.18,-2.22,-1.96,0.75,0.75,0.75
187.65,2.90,2.90,2.17,2.17,-2.17,-2.20,-1.95,0.72,0.72,0.72
189.52,2.87,2.87,2.17,2.17,-2.17,-2.18,-1.95,0.70,0.70,0.70
191.42,2.84,2.84,2.17,2.17,-2.17,-2.16,-1.94,0.67,0.67,0.67
193.33,2.81,2.81,2.16,2.16,-2.16,-2.13,-1.94,0.64,0.64,0.64
195.27,2.78,2.78,2.16,2.16,-2.16,-2.11,-1.94,0.62,0.62,0.62
197.22,2.75,2.75,2.15,2.15,-2.15,-2.09,-1.93,0.60,0.60,0.59
199.19,2.72,2.71,2.15,2.14,-2.14,-2.06,-1.93,0.57,0.57,0.57
201.18,2.68,2.68,2.13,2.13,-2.13,-2.04,-1.93,0.54,0.55,0.55
203.19,2.65,2.64,2.12,2.12,-2.12,-2.01,-1.94,0.52,0.52,0.52
205.23,2.61,2.61,2.10,2.11,-2.11,-1.98,-1.94,0.50,0.50,0.50
207.28,2.58,2.57,2.09,2.09,-2.09,-1.96,-1.94,0.49,0.48,0.48
209.35,2.54,2.54,2.07,2.07,-2.07,-1.93,-1.94,0.46,0.46,0.46
211.44,2.50,2.50,2.05,2.06,-2.05,-1.90,-1.94,0.45,0.45,0.44
213.56,2.46,2.45,2.03,2.03,-2.03,-1.87,-1.95,0.43,0.43,0.42
215.69,2.41,2.41,2.00,2.00,-2.00,-1.84,-1.95,0.40,0.41,0.41
217.85,2.36,2.36,1.97,1.97,-1.97,-1.81,-1.95,0.38,0.39,0.39
220.03,2.32,2.31,1.95,1.94,-1.94,-1.78,-1.95,0.37,0.37,0.37
222.23,2.27,2.27,1.91,1.91,-1.91,-1.75,-1.95,0.36,0.35,0.35
224.45,2.22,2.22,1.88,1.88,-1.88,-1.72,-1.95,0.34,0.34,0.34
226.70,2.17,2.17,1.84,1.84,-1.84,-1.69,-1.94,0.32,0.32,0.32
228.96,2.12,2.12,1.81,1.81,-1.81,-1.65,-1.94,0.31,0.31,0.31
231.25,2.07,2.07,1.77,1.77,-1.77,-1.62,-1.93,0.29,0.29,0.29
233.57,2.02,2.01,1.74,1.74,-1.74,-1.59,-1.92,0.28,0.28,0.28
235.90,1.96,1.96,1.70,1.70,-1.70,-1.55,-1.91,0.25,0.26,0.26
238.26,1.91,1.91,1.66,1.66,-1.66,-1.52,-1.89,0.24,0.24,0.24
240.64,1.86,1.86,1.63,1.63,-1.63,-1.48,-1.87,0.23,0.23,0.23
243.05,1.81,1.81,1.59,1.59,-1.59,-1.44,-1.85,0.22,0.22,0.22
245.48,1.76,1.75,1.55,1.55,-1.54,-1.41,-1.83,0.21,0.21,0.21
247.93,1.70,1.70,1.50,1.50,-1.50,-1.37,-1.80,0.20,0.20,0.20
250.41,1.65,1.64,1.46,1.46,-1.46,-1.33,-1.77,0.19,0.19,0.18
252.92,1.59,1.59,1.41,1.41,-1.41,-1.29,-1.74,0.17,0.17,0.17
255.45,1.54,1.54,1.36,1.37,-1.37,-1.25,-1.71,0.17,0.17,0.17
258.00,1.49,1.49,1.32,1.32,-1.33,-1.21,-1.67,0.16,0.16,0.16
260.58,1.44,1.44,1.28,1.28,-1.28,-1.17,-1.62,0.15,0.15,0.15
263.19,1.39,1.39,1.24,1.24,-1.24,-1.13,-1.58,0.15,0.15,0.15
265.82,1.34,1.34,1.20,1.20,-1.20,-1.09,-1.53,0.14,0.14,0.14
268.48,1.29,1.29,1.16,1.16,-1.16,-1.05,-1.48,0.13,0.13,0.13
271.16,1.24,1.23,1.12,1.11,-1.11,-1.01,-1.42,0.12,0.12,0.12
273.87,1.18,1.18,1.06,1.07,-1.07,-0.96,-1.37,0.11,0.11,0.11
276.61,1.13,1.13,1.02,1.02,-1.02,-0.92,-1.31,0.10,0.10,0.10
279.38,1.08,1.08,0.98,0.98,-0.98,-0.88,-1.25,0.10,0.10,0.10
282.17,1.03,1.03,0.94,0.93,-0.93,-0.83,-1.18,0.10,0.10,0.09
284.99,0.98,0.97,0.88,0.88,-0.88,-0.79,-1.12,0.10,0.09,0.09
287.84,0.92,0.92,0.82,0.83,-0.83,-0.74,-1.05,0.09,0.09,0.10
290.72,0.87,0.86,0.78,0.78,-0.78,-0.70,-0.98,0.09,0.09,0.09
293.63,0.81,0.81,0.72,0.72,-0.72,-0.65,-0.91,0.09,0.09,0.08
296.57,0.76,0.75,0.67,0.67,-0.67,-0.61,-0.84,0.09,0.09,0.09
299.53,0.70,0.70,0.60,0.61,-0.61,-0.56,-0.76,0.09,0.09,0.09
302.53,0.64,0.64,0.55,0.55,-0.55,-0.51,-0.69,0.08,0.09,0.09
305.55,0.59,0.58,0.50,0.49,-0.50,-0.46,-0.61,0.09,0.09,0.09
308.61,0.53,0.53,0.44,0.44,-0.44,-0.42,-0.54,0.09,0.09,0.09
311.69,0.47,0.47,0.38,0.38,-0.38,-0.37,-0.46,0.09,0.09,0.09
314.81,0.41,0.41,0.32,0.32,-0.32,-0.32,-0.38,0.09,0.09,0.09
317.96,0.35,0.35,0.26,0.26,-0.26,-0.27,-0.30,0.09,0.09,0.09
321.14,0.29,0.29,0.20,0.20,-0.19,-0.22,-0.22,0.09,0.09,0.09
324.35,0.23,0.23,0.13,0.13,-0.13,-0.17,-0.14,0.10,0.10,0.09
327.59,0.17,0.17,0.06,0.06,-0.07,-0.12,-0.06,0.10,0.10,0.11
330.87,0.11,0.11,0.00,-0.00,-0.00,-0.07,0.02,0.10,0.10,0.10
334.18,0.05,0.05,-0.06,-0.06,0.06,-0.02,0.10,0.11,0.11,0.11
337.52,-0.01,-0.01,-0.12,-0.12,0.12,0.03,0.19,0.11,0.11,0.11
340.90,-0.07,-0.07,-0.19,-0.19,0.19,0.09,0.27,0.12,0.12,0.11
344.30,-0.13,-0.13,-0.25,-0.25,0.25,0.14,0.35,0.12,0.12,0.12
347.75,-0.19,-0.19,-0.32,-0.32,0.32,0.19,0.44,0.12,0.12,0.13
351.23,-0.25,-0.25,-0.38,-0.38,0.38,0.25,0.52,0.13,0.13,0.12
354.74,-0.31,-0.31,-0.45,-0.45,0.45,0.30,0.60,0.14,0.14,0.14
358.28,-0.37,-0.37,-0.51,-0.51,0.52,0.36,0.69,0.14,0.14,0.14
361.87,-0.43,-0.44,-0.58,-0.58,0.58,0.41,0.78,0.15,0.15,0.15
365.49,-0.50,-0.50,-0.66,-0.65,0.65,0.47,0.86,0.15,0.15,0.15
369.14,-0.56,-0.56,-0.71,-0.72,0.72,0.52,0.95,0.15,0.15,0.15
372.83,-0.62,-0.62,-0.79,-0.79,0.78,0.58,1.04,0.16,0.16,0.17
376.56,-0.68,-0.68,-0.85,-0.85,0.85,0.63,1.12,0.17,0.16,0.16
380.33,-0.74,-0.74,-0.92,-0.91,0.92,0.69,1.21,0.17,0.17,0.17
384.13,-0.80,-0.80,-0.97,-0.98,0.98,0.75,1.30,0.18,0.18,0.17
387.97,-0.85,-0.86,-1.04,-1.04,1.05,0.81,1.39,0.19,0.19,0.19
391.85,-0.91,-0.91,-1.12,-1.11,1.11,0.87,1.47,0.20,0.20,0.21
395.77,-0.97,-0.97,-1.18,-1.18,1.18,0.92,1.56,0.20,0.20,0.20
399.73,-1.03,-1.03,-1.24,-1.24,1.24,0.98,1.65,0.21,0.21,0.21
403.72,-1.08,-1.09,-1.30,-1.30,1.30,1.04,1.74,0.22,0.22,0.22
407.76,-1.14,-1.14,-1.36,-1.37,1.36,1.10,1.83,0.22,0.22,0.22
411.84,-1.20,-1.20,-1.43,-1.42,1.43,1.16,1.91,0.22,0.23,0.23
415.96,-1.25,-1.25,-1.49,-1.48,1.49,1.23,2.00,0.23,0.23,0.23
420.12,-1.30,-1.31,-1.54,-1.54,1.54,1.29,2.08,0.24,0.24,0.23
424.32,-1.36,-1.36,-1.60,-1.60,1.60,1.35,2.17,0.24,0.24,0.24
428.56,-1.41,-1.41,-1.66,-1.66,1.66,1.41,2.25,0.25,0.25,0.25
432.85,-1.46,-1.46,-1.72,-1.72,1.72,1.47,2.33,0.26,0.26,0.26
437.18,-1.51,-1.51,-1.78,-1.78,1.78,1.54,2.41,0.27,0.27,0.27
441.55,-1.55,-1.56,-1.83,-1.83,1.84,1.60,2.49,0.28,0.28,0.28
445.96,-1.60,-1.60,-1.89,-1.89,1.89,1.66,2.56,0.29,0.29,0.28
450.42,-1.65,-1.65,-1.96,-1.95,1.95,1.73,2.63,0.29,0.30,0.30
454.93,-1.69,-1.69,-2.00,-2.00,2.00,1.79,2.70,0.31,0.31,0.31
459.48,-1.73,-1.74,-2.05,-2.06,2.05,1.85,2.76,0.32,0.31,0.32
464.07,-1.78,-1.78,-2.10,-2.10,2.10,1.92,2.82,0.32,0.32,0.32
468.71,-1.82,-1.82,-2.15,-2.15,2.15,1.98,2.87,0.33,0.33,0.33
473.40,-1.85,-1.86,-2.19,-2.20,2.20,2.05,2.92,0.35,0.34,0.34
478.13,-1.89,-1.89,-2.24,-2.24,2.25,2.11,2.97,0.35,0.35,0.35
482.91,-1.93,-1.93,-2.30,-2.29,2.29,2.18,3.01,0.36,0.36,0.37
487.74,-1.96,-1.96,-2.34,-2.34,2.33,2.24,3.05,0.37,0.37,0.37
492.62,-1.99,-2.00,-2.38,-2.38,2.38,2.31,3.08,0.38,0.38,0.38
497.55,-2.02,-2.02,-2.42,-2.42,2.42,2.37,3.10,0.39,0.39,0.39
502.52,-2.05,-2.05,-2.45,-2.46,2.46,2.44,3.12,0.40,0.41,0.40
507.55,-2.07,-2.08,-2.49,-2.49,2.50,2.50,3.14,0.42,0.42,0.42
512.62,-2.10,-2.10,-2.53,-2.53,2.53,2.56,3.15,0.43,0.43,0.43
517.75,-2.12,-2.13,-2.56,-2.57,2.57,2.63,3.15,0.44,0.44,0.44
522.93,-2.15,-2.15,-2.61,-2.61,2.60,2.69,3.15,0.45,0.45,0.46
