frequency,raw
20.00,-0.66
20.20,-0.61
20.40,-0.57
20.61,-0.52
20.81,-0.47
21.02,-0.43
21.23,-0.37
21.44,-0.32
21.66,-0.27
21.87,-0.22
22.09,-0.17
22.31,-0.11
22.54,-0.05
22.76,0.01
22.99,0.07
23.22,0.11
23.45,0.15
23.69,0.19
23.92,0.24
24.16,0.29
24.40,0.34
24.65,0.40
24.89,0.46
25.14,0.51
25.39,0.57
25.65,0.63
25.91,0.69
26.16,0.75
26.43,0.80
26.69,0.86
26.96,0.92
27.23,0.98
27.50,1.04
27.77,1.10
28.05,1.15
28.33,1.15
28.62,1.16
28.90,1.16
29.19,1.20
29.48,1.27
29.78,1.34
30.08,1.40
30.38,1.45
30.68,1.50
30.99,1.55
31.30,1.57
31.61,1.59
31.93,1.61
32.24,1.67
32.57,1.74
32.89,1.81
33.22,1.83
33.55,1.84
33.89,1.85
34.23,1.89
34.57,1.94
34.92,2.00
35.27,2.03
35.62,2.05
35.97,2.07
36.33,2.08
36.70,2.09
37.06,2.11
37.43,2.19
37.81,2.26
38.19,2.30
38.57,2.30
38.95,2.30
39.34,2.31
39.74,2.32
40.14,2.36
40.54,2.44
40.94,2.52
41.35,2.53
41.76,2.53
42.18,2.53
42.60,2.53
43.03,2.54
43.46,2.64
43.90,2.74
44.33,2.76
44.78,2.76
45.23,2.76
45.68,2.76
46.13,2.79
46.60,2.90
47.06,2.99
47.53,2.99
48.01,2.99
48.49,2.99
48.97,2.99
49.46,2.99
49.96,2.99
50.46,2.99
50.96,2.99
51.47,3.04
51.99,3.09
52.51,3.15
53.03,3.21
53.56,3.21
54.10,3.21
54.64,3.21
55.18,3.21
55.74,3.21
56.29,3.21
56.86,3.21
57.42,3.21
58.00,3.21
58.58,3.34
59.16,3.44
59.76,3.44
60.35,3.44
60.96,3.44
61.57,3.44
62.18,3.44
62.80,3.44
63.43,3.44
64.07,3.44
64.71,3.44
65.35,3.44
66.01,3.44
66.67,3.44
67.33,3.44
68.01,3.44
68.69,3.46
69.37,3.55
70.07,3.67
70.77,3.67
71.48,3.67
72.19,3.67
72.91,3.67
73.64,3.67
74.38,3.67
75.12,3.67
75.87,3.67
76.63,3.67
77.40,3.67
78.17,3.67
78.95,3.67
79.74,3.67
80.54,3.67
81.35,3.67
82.16,3.67
82.98,3.67
83.81,3.67
84.65,3.67
85.50,3.67
86.35,3.67
87.22,3.67
88.09,3.67
88.97,3.67
89.86,3.67
90.76,3.67
91.66,3.67
92.58,3.67
93.51,3.67
94.44,3.67
95.39,3.67
96.34,3.67
97.30,3.67
98.28,3.67
99.26,3.67
100.25,3.67
101.25,3.67
102.27,3.67
103.29,3.67
104.32,3.67
105.37,3.67
106.42,3.67
107.48,3.67
108.56,3.67
109.64,3.67
110.74,3.67
111.85,3.67
112.97,3.67
114.10,3.67
115.24,3.67
116.39,3.67
117.55,3.67
118.73,3.67
119.92,3.67
121.12,3.67
122.33,3.67
123.55,3.67
124.79,3.67
126.03,3.67
127.29,3.67
128.57,3.67
129.85,3.67
131.15,3.67
132.46,3.67
133.79,3.67
135.12,3.66
136.48,3.50
137.84,3.44
139.22,3.44
140.61,3.44
142.02,3.44
143.44,3.44
144.87,3.44
146.32,3.44
147.78,3.44
149.26,3.44
150.75,3.44
152.26,3.44
153.78,3.44
155.32,3.44
156.88,3.44
158.44,3.44
160.03,3.44
161.63,3.44
163.24,3.30
164.88,3.21
166.53,3.21
168.19,3.21
169.87,3.21
171.57,3.21
173.29,3.21
175.02,3.21
176.77,3.21
178.54,3.21
180.32,3.21
182.13,3.21
183.95,3.21
185.79,3.21
187.65,3.05
189.52,2.99
191.42,2.99
193.33,2.99
195.27,2.99
197.22,2.99
199.19,2.99
201.18,2.99
203.19,2.99
205.23,2.99
207.28,2.90
209.35,2.79
211.44,2.76
213.56,2.76
215.69,2.76
217.85,2.76
220.03,2.76
222.23,2.76
224.45,2.76
226.70,2.76
228.96,2.60
231.25,2.55
233.57,2.53
235.90,2.53
238.26,2.53
240.64,2.53
243.05,2.53
245.48,2.53
247.93,2.53
250.41,2.34
252.92,2.30
255.45,2.30
258.00,2.30
260.58,2.30
263.19,2.30
265.82,2.30
268.48,2.30
271.16,2.30
273.87,2.22
276.61,2.09
279.38,2.07
282.17,2.07
284.99,2.07
287.84,2.07
290.72,2.07
293.63,1.96
296.57,1.86
299.53,1.85
302.53,1.85
305.55,1.85
308.61,1.85
311.69,1.85
314.81,1.85
317.96,1.70
321.14,1.62
324.35,1.62
327.59,1.62
330.87,1.62
334.18,1.62
337.52,1.49
340.90,1.41
344.30,1.39
347.75,1.39
351.23,1.39
354.74,1.39
358.28,1.39
361.87,1.39
365.49,1.23
369.14,1.17
372.83,1.16
376.56,1.16
380.33,1.16
384.13,1.16
387.97,1.01
391.85,0.94
395.77,0.93
399.73,0.93
403.72,0.93
407.76,0.93
411.84,0.80
415.96,0.72
420.12,0.71
424.32,0.71
428.56,0.71
432.85,0.71
437.18,0.71
441.55,0.71
445.96,0.71
450.42,0.71
454.93,0.71
459.48,0.66
464.07,0.51
468.71,0.48
473.40,0.48
478.13,0.48
482.91,0.48
487.74,0.48
492.62,0.40
497.55,0.28
502.52,0.25
507.55,0.25
512.62,0.25
517.75,0.25
522.93,0.25
528.16,0.25
533.44,0.13
538.77,0.04
544.16,0.02
549.60,0.02
555.10,0.02
560.65,0.02
566.25,0.02
571.92,0.02
577.64,-0.13
583.41,-0.20
589.25,-0.21
595.14,-0.21
601.09,-0.21
607.10,-0.21
613.17,-0.21
619.30,-0.21
625.50,-0.21
631.75,-0.23
638.07,-0.40
644.45,-0.43
650.89,-0.43
657.40,-0.43
663.98,-0.43
670.62,-0.43
677.32,-0.43
684.10,-0.43
690.94,-0.43
697.85,-0.43
704.83,-0.43
711.87,-0.43
718.99,-0.43
726.18,-0.43
733.44,-0.50
740.78,-0.64
748.19,-0.66
755.67,-0.66
763.23,-0.66
770.86,-0.66
778.57,-0.66
786.35,-0.66
794.22,-0.66
802.16,-0.66
810.18,-0.66
818.28,-0.48
826.46,-0.43
834.73,-0.43
843.08,-0.43
851.51,-0.43
860.02,-0.43
868.62,-0.43
877.31,-0.43
886.08,-0.43
894.94,-0.43
903.89,-0.43
912.93,-0.43
922.06,-0.43
931.28,-0.43
940.59,-0.26
950.00,-0.21
959.50,-0.21
969.09,-0.21
978.78,-0.21
988.57,-0.21
998.46,-0.04
1008.44,0.06
1018.53,0.21
1028.71,0.25
1039.00,0.25
1049.39,0.25
1059.88,0.42
1070.48,0.48
1081.19,0.48
1092.00,0.48
1102.92,0.48
1113.95,0.59
1125.09,0.69
1136.34,0.71
1147.70,0.71
1159.18,0.71
1170.77,0.71
1182.48,0.80
1194.30,0.91
1206.25,0.93
1218.31,0.93
1230.49,0.93
1242.80,0.93
1255.22,1.01
1267.78,1.13
1280.45,1.16
1293.26,1.16
1306.19,1.16
1319.25,1.16
1332.45,1.16
1345.77,1.16
1359.23,1.16
1372.82,1.16
1386.55,1.16
1400.41,1.16
1414.42,1.16
1428.56,1.16
1442.85,1.16
1457.28,1.16
1471.85,1.16
1486.57,1.34
1501.43,1.39
1516.45,1.39
1531.61,1.47
1546.93,1.59
1562.40,1.62
1578.02,1.78
1593.80,1.85
1609.74,1.85
1625.84,1.91
1642.10,2.04
1658.52,2.07
1675.10,2.22
1691.85,2.29
1708.77,2.47
1725.86,2.53
1743.12,2.53
1760.55,2.63
1778.15,2.74
1795.94,2.76
1813.90,2.94
1832.03,2.99
1850.36,2.99
1868.86,3.07
1887.55,3.29
1906.42,3.42
1925.49,3.44
1944.74,3.45
1964.19,3.62
1983.83,3.72
2003.67,3.87
2023.71,3.90
2043.94,4.04
2064.38,4.12
2085.03,4.30
2105.88,4.40
2126.94,4.61
2148.20,4.78
2169.69,4.81
2191.38,4.81
2213.30,4.98
2235.43,5.05
2257.78,5.21
2280.36,5.34
2303.17,5.57
2326.20,5.70
2349.46,5.88
2372.95,5.95
2396.68,6.16
2420.65,6.42
2444.86,6.68
2469.31,6.83
2494.00,7.00
2518.94,7.08
2544.13,7.28
2569.57,7.54
2595.27,7.80
2621.22,7.97
2647.43,8.12
2673.90,8.21
2700.64,8.40
2727.65,8.65
2754.93,8.91
2782.48,9.10
2810.30,9.24
2838.40,9.47
2866.79,9.73
2895.46,9.82
2924.41,10.03
2953.65,10.24
2983.19,10.37
3013.02,10.48
3043.15,10.64
3073.58,10.72
3104.32,10.73
3135.36,10.73
3166.72,10.67
3198.38,10.54
3230.37,10.39
3262.67,10.30
3295.30,9.94
3328.25,9.53
3361.53,9.14
3395.15,8.74
3429.10,8.35
3463.39,8.08
3498.03,7.77
3533.01,7.40
3568.34,6.92
3604.02,6.55
3640.06,6.34
3676.46,6.21
3713.22,6.05
3750.36,5.80
3787.86,5.54
3825.74,5.31
3864.00,5.26
3902.64,5.26
3941.66,5.26
3981.08,5.26
4020.89,5.26
4061.10,5.44
4101.71,5.54
4142.73,5.68
4184.15,5.86
4226.00,6.21
4268.26,6.68
4310.94,7.20
4354.05,7.70
4397.59,8.15
4441.56,8.62
4485.98,9.08
4530.84,9.59
4576.15,10.03
4621.91,10.42
4668.13,10.72
4714.81,10.98
4761.96,11.16
4809.58,11.19
4857.67,11.19
4906.25,11.19
4955.31,11.01
5004.87,10.92
5054.91,10.77
5105.46,10.73
5156.52,10.73
5208.08,10.73
5260.16,10.73
5312.77,10.76
5365.89,10.92
5419.55,10.96
5473.75,10.96
5528.49,10.96
5583.77,10.80
5639.61,10.74
5696.00,10.53
5752.96,10.21
5810.49,9.68
5868.60,9.10
5927.28,8.42
5986.56,7.82
6046.42,7.19
6106.89,6.63
6167.96,6.03
6229.64,5.39
6291.93,4.70
6354.85,4.04
6418.40,3.38
6482.58,2.83
6547.41,2.39
6612.88,1.96
6679.01,1.56
6745.80,1.13
6813.26,0.73
6881.39,0.51
6950.21,0.27
7019.71,0.01
7089.91,-0.17
7160.81,-0.32
7232.41,-0.55
7304.74,-0.65
7377.79,-0.66
7451.56,-0.66
7526.08,-0.66
7601.34,-0.57
7677.35,-0.46
7754.13,-0.43
7831.67,-0.27
7909.98,-0.18
7989.08,0.12
8068.98,0.43
8149.67,0.76
8231.16,1.10
8313.47,1.40
8396.61,1.85
8480.57,2.38
8565.38,3.01
8651.03,3.70
8737.54,4.37
8824.92,5.05
8913.17,5.74
9002.30,6.50
9092.32,7.40
9183.25,8.45
9275.08,9.57
9367.83,10.63
9461.51,11.47
9556.12,12.07
9651.68,12.49
9748.20,12.61
9845.68,12.31
9944.14,11.76
10043.58,11.22
10144.02,10.70
10245.46,10.18
10347.91,9.56
10451.39,9.04
10555.91,8.63
10661.46,8.23
10768.08,7.84
10875.76,7.36
10984.52,6.75
11094.36,5.80
11205.31,4.83
11317.36,3.93
11430.53,3.23
11544.84,2.64
11660.29,1.86
11776.89,0.95
11894.66,-0.07
12013.60,-1.08
12133.74,-1.97
12255.08,-2.71
12377.63,-3.45
12501.41,-4.06
12626.42,-4.87
12752.68,-5.60
12880.21,-6.32
13009.01,-6.95
13139.10,-7.42
13270.49,-7.67
13403.20,-8.08
13537.23,-8.49
13672.60,-8.86
13809.33,-9.14
13947.42,-9.40
14086.90,-9.53
14227.77,-9.71
14370.04,-9.78
14513.74,-9.96
14658.88,-10.01
14805.47,-10.01
14953.52,-10.01
15103.06,-9.86
15254.09,-9.70
15406.63,-9.37
15560.70,-8.98
15716.30,-8.55
15873.47,-8.04
16032.20,-7.45
16192.52,-6.81
16354.45,-6.16
16517.99,-5.62
16683.17,-5.23
16850.01,-4.95
17018.51,-4.90
17188.69,-5.10
17360.58,-5.37
17534.18,-5.15
17709.53,-4.67
17886.62,-4.72
18065.49,-5.21
18246.14,-6.01
18428.60,-6.91
18612.89,-8.08
18799.02,-9.19
18987.01,-10.28
19176.88,-11.09
19368.65,-11.52
19562.33,-11.17
19757.96,-10.40
19955.54,-9.52
