frequency,raw
20.00,-6.15
20.20,-6.10
20.40,-6.06
20.61,-6.01
20.81,-5.96
21.02,-5.92
21.23,-5.92
21.44,-5.92
21.66,-5.91
21.87,-5.91
22.09,-5.89
22.31,-5.84
22.54,-5.80
22.76,-5.75
22.99,-5.70
23.22,-5.70
23.45,-5.70
23.69,-5.70
23.92,-5.70
24.16,-5.66
24.40,-5.61
24.65,-5.55
24.89,-5.49
25.14,-5.47
25.39,-5.47
25.65,-5.47
25.91,-5.47
26.16,-5.44
26.43,-5.40
26.69,-5.35
26.96,-5.31
27.23,-5.29
27.50,-5.27
27.77,-5.25
28.05,-5.24
28.33,-5.24
28.62,-5.24
28.90,-5.24
29.19,-5.24
29.48,-5.24
29.78,-5.24
30.08,-5.22
30.38,-5.15
30.68,-5.08
30.99,-5.01
31.30,-5.01
31.61,-5.01
31.93,-5.01
32.24,-5.01
32.57,-5.01
32.89,-5.01
33.22,-5.01
33.55,-5.01
33.89,-5.01
34.23,-5.01
34.57,-5.01
34.92,-5.01
35.27,-4.95
35.62,-4.87
35.97,-4.79
36.33,-4.78
36.70,-4.78
37.06,-4.78
37.43,-4.78
37.81,-4.78
38.19,-4.78
38.57,-4.78
38.95,-4.78
39.34,-4.78
39.74,-4.78
40.14,-4.78
40.54,-4.78
40.94,-4.78
41.35,-4.78
41.76,-4.78
42.18,-4.74
42.60,-4.65
43.03,-4.56
43.46,-4.56
43.90,-4.56
44.33,-4.56
44.78,-4.56
45.23,-4.56
45.68,-4.56
46.13,-4.56
46.60,-4.56
47.06,-4.56
47.53,-4.56
48.01,-4.56
48.49,-4.56
48.97,-4.56
49.46,-4.56
49.96,-4.56
50.46,-4.56
50.96,-4.56
51.47,-4.56
51.99,-4.56
52.51,-4.56
53.03,-4.56
53.56,-4.56
54.10,-4.54
54.64,-4.41
55.18,-4.33
55.74,-4.33
56.29,-4.33
56.86,-4.33
57.42,-4.33
58.00,-4.33
58.58,-4.33
59.16,-4.33
59.76,-4.33
60.35,-4.33
60.96,-4.33
61.57,-4.33
62.18,-4.33
62.80,-4.33
63.43,-4.33
64.07,-4.33
64.71,-4.33
65.35,-4.33
66.01,-4.33
66.67,-4.33
67.33,-4.33
68.01,-4.33
68.69,-4.33
69.37,-4.33
70.07,-4.33
70.77,-4.33
71.48,-4.33
72.19,-4.33
72.91,-4.33
73.64,-4.33
74.38,-4.33
75.12,-4.33
75.87,-4.33
76.63,-4.33
77.40,-4.31
78.17,-4.24
78.95,-4.11
79.74,-4.10
80.54,-4.10
81.35,-4.10
82.16,-4.10
82.98,-4.10
83.81,-4.10
84.65,-4.10
85.50,-4.10
86.35,-4.10
87.22,-4.10
88.09,-4.10
88.97,-4.10
89.86,-4.10
90.76,-4.10
91.66,-4.10
92.58,-4.10
93.51,-4.10
94.44,-4.10
95.39,-4.10
96.34,-4.10
97.30,-4.10
98.28,-4.10
99.26,-4.10
100.25,-4.10
101.25,-4.10
102.27,-4.10
103.29,-4.10
104.32,-4.10
105.37,-4.10
106.42,-4.10
107.48,-4.10
108.56,-4.10
109.64,-4.10
110.74,-4.10
111.85,-4.10
112.97,-4.10
114.10,-4.10
115.24,-4.10
116.39,-4.10
117.55,-4.10
118.73,-4.10
119.92,-4.10
121.12,-4.10
122.33,-4.10
123.55,-4.10
124.79,-4.10
126.03,-4.10
127.29,-4.10
128.57,-4.10
129.85,-4.10
131.15,-4.10
132.46,-4.10
133.79,-4.10
135.12,-4.10
136.48,-4.10
137.84,-4.10
139.22,-4.10
140.61,-4.10
142.02,-4.10
143.44,-4.10
144.87,-4.10
146.32,-3.95
147.78,-3.87
149.26,-3.87
150.75,-3.87
152.26,-3.87
153.78,-3.87
155.32,-3.87
156.88,-3.87
158.44,-3.87
160.03,-3.87
161.63,-3.87
163.24,-3.87
164.88,-3.87
166.53,-3.87
168.19,-3.87
169.87,-3.87
171.57,-3.87
173.29,-3.87
175.02,-3.87
176.77,-3.87
178.54,-3.87
180.32,-3.87
182.13,-3.87
183.95,-3.87
185.79,-3.87
187.65,-3.87
189.52,-3.87
191.42,-3.87
193.33,-3.87
195.27,-3.87
197.22,-3.87
199.19,-3.87
201.18,-3.87
203.19,-3.87
205.23,-3.87
207.28,-3.87
209.35,-3.87
211.44,-3.87
213.56,-3.87
215.69,-3.87
217.85,-3.87
220.03,-3.87
222.23,-3.87
224.45,-3.87
226.70,-3.87
228.96,-3.87
231.25,-3.87
233.57,-3.87
235.90,-3.87
238.26,-3.87
240.64,-3.87
243.05,-3.87
245.48,-3.87
247.93,-3.87
250.41,-3.87
252.92,-3.87
255.45,-3.87
258.00,-3.87
260.58,-3.87
263.19,-3.87
265.82,-3.87
268.48,-3.87
271.16,-3.87
273.87,-3.87
276.61,-3.87
279.38,-3.87
282.17,-3.87
284.99,-3.87
287.84,-3.87
290.72,-3.87
293.63,-3.87
296.57,-3.87
299.53,-3.87
302.53,-3.87
305.55,-3.87
308.61,-3.87
311.69,-3.87
314.81,-3.87
317.96,-3.87
321.14,-3.87
324.35,-3.87
327.59,-3.87
330.87,-3.87
334.18,-3.87
337.52,-3.87
340.90,-3.87
344.30,-3.87
347.75,-3.87
351.23,-3.87
354.74,-3.87
358.28,-3.76
361.87,-3.67
365.49,-3.64
369.14,-3.64
372.83,-3.64
376.56,-3.64
380.33,-3.64
384.13,-3.64
387.97,-3.64
391.85,-3.64
395.77,-3.64
399.73,-3.64
403.72,-3.56
407.76,-3.45
411.84,-3.42
415.96,-3.42
420.12,-3.42
424.32,-3.42
428.56,-3.42
432.85,-3.42
437.18,-3.42
441.55,-3.42
445.96,-3.42
450.42,-3.42
454.93,-3.42
459.48,-3.42
464.07,-3.42
468.71,-3.42
473.40,-3.42
478.13,-3.42
482.91,-3.42
487.74,-3.42
492.62,-3.42
497.55,-3.42
502.52,-3.42
507.55,-3.42
512.62,-3.25
517.75,-3.19
522.93,-3.19
528.16,-3.19
533.44,-3.19
538.77,-3.19
544.16,-3.19
549.60,-3.19
555.10,-3.19
560.65,-3.19
566.25,-3.19
571.92,-3.19
577.64,-3.19
583.41,-3.19
589.25,-3.19
595.14,-3.16
601.09,-2.99
607.10,-2.96
613.17,-2.96
619.30,-2.96
625.50,-2.96
631.75,-2.96
638.07,-2.96
644.45,-2.96
650.89,-2.86
657.40,-2.75
663.98,-2.73
670.62,-2.73
677.32,-2.73
684.10,-2.73
690.94,-2.66
697.85,-2.53
704.83,-2.51
711.87,-2.51
718.99,-2.51
726.18,-2.51
733.44,-2.44
740.78,-2.30
748.19,-2.28
755.67,-2.28
763.23,-2.27
770.86,-2.11
778.57,-2.05
786.35,-2.05
794.22,-1.94
802.16,-1.84
810.18,-1.82
818.28,-1.82
826.46,-1.80
834.73,-1.64
843.08,-1.59
851.51,-1.59
860.02,-1.45
868.62,-1.38
877.31,-1.35
886.08,-1.18
894.94,-1.07
903.89,-0.94
912.93,-0.91
922.06,-0.91
931.28,-0.73
940.59,-0.51
950.00,-0.45
959.50,-0.45
969.09,-0.36
978.78,-0.25
988.57,-0.07
998.46,-0.01
1008.44,0.04
1018.53,0.19
1028.71,0.31
1039.00,0.44
1049.39,0.60
1059.88,0.84
1070.48,0.91
1081.19,0.91
1092.00,0.97
1102.92,1.11
1113.95,1.26
1125.09,1.50
1136.34,1.59
1147.70,1.78
1159.18,1.88
1170.77,2.02
1182.48,2.05
1194.30,2.05
1206.25,2.20
1218.31,2.45
1230.49,2.53
1242.80,2.69
1255.22,2.82
1267.78,2.93
1280.45,3.09
1293.26,3.18
1306.19,3.21
1319.25,3.38
1332.45,3.48
1345.77,3.62
1359.23,3.77
1372.82,4.00
1386.55,4.09
1400.41,4.27
1414.42,4.33
1428.56,4.33
1442.85,4.43
1457.28,4.66
1471.85,4.78
1486.57,4.97
1501.43,5.05
1516.45,5.20
1531.61,5.33
1546.93,5.55
1562.40,5.68
1578.02,5.86
1593.80,5.93
1609.74,6.11
1625.84,6.22
1642.10,6.35
1658.52,6.50
1675.10,6.74
1691.85,6.83
1708.77,7.04
1725.86,7.30
1743.12,7.52
1760.55,7.76
1778.15,8.07
1795.94,8.19
1813.90,8.39
1832.03,8.64
1850.36,8.87
1868.86,9.11
1887.55,9.41
1906.42,9.69
1925.49,9.95
1944.74,10.03
1964.19,10.22
1983.83,10.44
2003.67,10.75
2023.71,10.91
2043.94,11.08
2064.38,11.32
2085.03,11.57
2105.88,11.68
2126.94,11.89
2148.20,12.05
2169.69,12.20
2191.38,12.29
2213.30,12.48
2235.43,12.55
2257.78,12.72
2280.36,12.84
2303.17,13.07
2326.20,13.20
2349.46,13.38
2372.95,13.45
2396.68,13.45
2420.65,13.45
2444.86,13.54
2469.31,13.65
2494.00,13.68
2518.94,13.68
2544.13,13.68
2569.57,13.68
2595.27,13.68
2621.22,13.68
2647.43,13.56
2673.90,13.47
2700.64,13.45
2727.65,13.45
2754.93,13.40
2782.48,13.26
2810.30,13.22
2838.40,13.22
2866.79,13.22
2895.46,13.22
2924.41,13.04
2953.65,12.99
2983.19,12.91
3013.02,12.80
3043.15,12.77
3073.58,12.77
3104.32,12.59
3135.36,12.54
3166.72,12.47
3198.38,12.34
3230.37,12.31
3262.67,12.31
3295.30,12.31
3328.25,12.29
3361.53,12.13
3395.15,12.08
3429.10,11.98
3463.39,11.87
3498.03,11.85
3533.01,11.85
3568.34,11.68
3604.02,11.63
3640.06,11.54
3676.46,11.43
3713.22,11.40
3750.36,11.40
3787.86,11.22
3825.74,11.17
3864.00,11.11
3902.64,10.97
3941.66,10.83
3981.08,10.73
4020.89,10.71
4061.10,10.54
4101.71,10.44
4142.73,10.30
4184.15,10.17
4226.00,10.05
4268.26,9.88
4310.94,9.63
4354.05,9.55
4397.59,9.34
4441.56,9.08
4485.98,8.92
4530.84,8.76
4576.15,8.52
4621.91,8.26
4668.13,8.03
4714.81,7.92
4761.96,7.70
4809.58,7.44
4857.67,7.18
4906.25,6.92
4955.31,6.65
5004.87,6.39
5054.91,6.20
5105.46,6.06
5156.52,5.83
5208.08,5.57
5260.16,5.31
5312.77,5.04
5365.89,4.83
5419.55,4.71
5473.75,4.49
5528.49,4.23
5583.77,3.97
5639.61,3.88
5696.00,3.70
5752.96,3.59
5810.49,3.45
5868.60,3.31
5927.28,3.21
5986.56,3.19
6046.42,3.01
6106.89,2.93
6167.96,2.78
6229.64,2.74
6291.93,2.74
6354.85,2.74
6418.40,2.74
6482.58,2.74
6547.41,2.74
6612.88,2.74
6679.01,2.74
6745.80,2.74
6813.26,2.89
6881.39,2.95
6950.21,2.96
7019.71,3.02
7089.91,3.20
7160.81,3.46
7232.41,3.75
7304.74,3.87
7377.79,4.05
7451.56,4.14
7526.08,4.36
7601.34,4.62
7677.35,4.88
7754.13,5.00
7831.67,5.02
7909.98,5.02
7989.08,5.02
8068.98,4.94
8149.67,4.72
8231.16,4.46
8313.47,4.12
8396.61,3.65
8480.57,3.10
8565.38,2.36
8651.03,1.58
8737.54,0.95
8824.92,0.52
8913.17,0.36
9002.30,0.53
9092.32,0.78
9183.25,0.54
9275.08,0.19
9367.83,-0.09
9461.51,-0.35
9556.12,-0.61
9651.68,-0.87
9748.20,-1.09
9845.68,-1.21
9944.14,-1.34
10043.58,-1.37
10144.02,-1.37
10245.46,-1.37
10347.91,-1.56
10451.39,-1.76
10555.91,-2.15
10661.46,-2.65
10768.08,-3.24
10875.76,-3.89
10984.52,-4.82
11094.36,-5.97
11205.31,-7.14
11317.36,-8.24
11430.53,-9.13
11544.84,-9.86
11660.29,-10.69
11776.89,-11.39
11894.66,-11.93
12013.60,-12.31
12133.74,-12.60
12255.08,-12.86
12377.63,-13.12
12501.41,-13.21
12626.42,-13.22
12752.68,-13.17
12880.21,-12.95
13009.01,-12.79
13139.10,-12.64
13270.49,-12.39
13403.20,-12.04
13537.23,-11.73
13672.60,-11.31
13809.33,-10.92
13947.42,-10.54
14086.90,-10.12
14227.77,-9.61
14370.04,-8.99
14513.74,-8.34
14658.88,-7.72
14805.47,-7.18
14953.52,-6.59
15103.06,-5.80
15254.09,-4.90
15406.63,-3.80
15560.70,-2.72
15716.30,-1.64
15873.47,-0.43
16032.20,1.11
16192.52,3.06
16354.45,5.23
16517.99,7.19
16683.17,8.62
16850.01,9.17
17018.51,8.46
17188.69,6.72
17360.58,3.91
17534.18,0.31
17709.53,-3.48
17886.62,-7.06
18065.49,-10.08
18246.14,-12.85
18428.60,-15.92
18612.89,-19.19
18799.02,-22.47
18987.01,-25.77
19176.88,-28.85
19368.65,-32.11
19562.33,-35.26
19757.96,-36.83
19955.54,-35.63
