frequency,raw
20.00,-5.70
20.20,-5.69
20.40,-5.64
20.61,-5.57
20.81,-5.51
21.02,-5.44
21.23,-5.38
21.44,-5.32
21.66,-5.26
21.87,-5.19
22.09,-5.13
22.31,-5.07
22.54,-5.00
22.76,-4.95
22.99,-4.87
23.22,-4.81
23.45,-4.76
23.69,-4.68
23.92,-4.62
24.16,-4.57
24.40,-4.50
24.65,-4.44
24.89,-4.39
25.14,-4.32
25.39,-4.26
25.65,-4.20
25.91,-4.14
26.16,-4.08
26.43,-4.02
26.69,-3.97
26.96,-3.91
27.23,-3.83
27.50,-3.78
27.77,-3.72
28.05,-3.64
28.33,-3.60
28.62,-3.53
28.90,-3.46
29.19,-3.41
29.48,-3.33
29.78,-3.27
30.08,-3.23
30.38,-3.18
30.68,-3.13
30.99,-3.07
31.30,-3.00
31.61,-2.95
31.93,-2.90
32.24,-2.85
32.57,-2.80
32.89,-2.74
33.22,-2.68
33.55,-2.62
33.89,-2.57
34.23,-2.53
34.57,-2.47
34.92,-2.41
35.27,-2.35
35.62,-2.29
35.97,-2.24
36.33,-2.18
36.70,-2.15
37.06,-2.10
37.43,-2.04
37.81,-2.01
38.19,-1.96
38.57,-1.93
38.95,-1.90
39.34,-1.84
39.74,-1.81
40.14,-1.78
40.54,-1.72
40.94,-1.69
41.35,-1.66
41.76,-1.62
42.18,-1.60
42.60,-1.57
43.03,-1.53
43.46,-1.48
43.90,-1.48
44.33,-1.43
44.78,-1.39
45.23,-1.39
45.68,-1.34
46.13,-1.34
46.60,-1.29
47.06,-1.29
47.53,-1.29
48.01,-1.25
48.49,-1.25
48.97,-1.25
49.46,-1.20
49.96,-1.20
50.46,-1.20
50.96,-1.15
51.47,-1.15
51.99,-1.11
52.51,-1.11
53.03,-1.07
53.56,-1.06
54.10,-1.01
54.64,-1.01
55.18,-0.97
55.74,-0.97
56.29,-0.94
56.86,-0.92
57.42,-0.92
58.00,-0.92
58.58,-0.90
59.16,-0.89
59.76,-0.87
60.35,-0.87
60.96,-0.87
61.57,-0.89
62.18,-0.90
62.80,-0.92
63.43,-0.92
64.07,-0.92
64.71,-0.90
65.35,-0.90
66.01,-0.90
66.67,-0.90
67.33,-0.91
68.01,-0.92
68.69,-0.92
69.37,-0.97
70.07,-0.99
70.77,-1.04
71.48,-1.08
72.19,-1.15
72.91,-1.22
73.64,-1.27
74.38,-1.34
75.12,-1.41
75.87,-1.47
76.63,-1.50
77.40,-1.57
78.17,-1.57
78.95,-1.57
79.74,-1.53
80.54,-1.51
81.35,-1.46
82.16,-1.41
82.98,-1.36
83.81,-1.32
84.65,-1.29
85.50,-1.25
86.35,-1.22
87.22,-1.19
88.09,-1.15
88.97,-1.13
89.86,-1.11
90.76,-1.08
91.66,-1.06
92.58,-1.06
93.51,-1.06
94.44,-1.01
95.39,-1.01
96.34,-1.01
97.30,-1.01
98.28,-1.01
99.26,-1.01
100.25,-1.01
101.25,-1.01
102.27,-1.01
103.29,-1.01
104.32,-1.01
105.37,-1.01
106.42,-1.04
107.48,-1.04
108.56,-1.04
109.64,-1.06
110.74,-1.06
111.85,-1.06
112.97,-1.06
114.10,-1.06
115.24,-1.06
116.39,-1.09
117.55,-1.11
118.73,-1.11
119.92,-1.11
121.12,-1.12
122.33,-1.15
123.55,-1.15
124.79,-1.17
126.03,-1.20
127.29,-1.20
128.57,-1.25
129.85,-1.26
131.15,-1.29
132.46,-1.33
133.79,-1.36
135.12,-1.39
136.48,-1.42
137.84,-1.45
139.22,-1.48
140.61,-1.51
142.02,-1.54
143.44,-1.60
144.87,-1.63
146.32,-1.66
147.78,-1.71
149.26,-1.75
150.75,-1.76
152.26,-1.81
153.78,-1.81
155.32,-1.81
156.88,-1.81
158.44,-1.81
160.03,-1.81
161.63,-1.81
163.24,-1.76
164.88,-1.76
166.53,-1.76
168.19,-1.76
169.87,-1.76
171.57,-1.76
173.29,-1.77
175.02,-1.81
176.77,-1.81
178.54,-1.85
180.32,-1.85
182.13,-1.90
183.95,-1.90
185.79,-1.90
187.65,-1.95
189.52,-1.95
191.42,-1.95
193.33,-1.95
195.27,-1.95
197.22,-1.95
199.19,-1.99
201.18,-1.99
203.19,-1.99
205.23,-1.99
207.28,-2.04
209.35,-2.04
211.44,-2.04
213.56,-2.09
215.69,-2.09
217.85,-2.09
220.03,-2.11
222.23,-2.13
224.45,-2.13
226.70,-2.13
228.96,-2.13
231.25,-2.16
233.57,-2.18
235.90,-2.18
238.26,-2.18
240.64,-2.18
243.05,-2.18
245.48,-2.18
247.93,-2.18
250.41,-2.20
252.92,-2.22
255.45,-2.22
258.00,-2.22
260.58,-2.22
263.19,-2.22
265.82,-2.22
268.48,-2.22
271.16,-2.22
273.87,-2.22
276.61,-2.22
279.38,-2.22
282.17,-2.22
284.99,-2.22
287.84,-2.24
290.72,-2.25
293.63,-2.27
296.57,-2.27
299.53,-2.27
302.53,-2.27
305.55,-2.27
308.61,-2.27
311.69,-2.27
314.81,-2.29
317.96,-2.32
321.14,-2.32
324.35,-2.32
327.59,-2.32
330.87,-2.32
334.18,-2.32
337.52,-2.32
340.90,-2.32
344.30,-2.32
347.75,-2.32
351.23,-2.32
354.74,-2.32
358.28,-2.32
361.87,-2.32
365.49,-2.32
369.14,-2.32
372.83,-2.32
376.56,-2.34
380.33,-2.34
384.13,-2.34
387.97,-2.34
391.85,-2.34
395.77,-2.34
399.73,-2.33
403.72,-2.32
407.76,-2.32
411.84,-2.32
415.96,-2.32
420.12,-2.30
424.32,-2.27
428.56,-2.27
432.85,-2.24
437.18,-2.22
441.55,-2.22
445.96,-2.18
450.42,-2.18
454.93,-2.18
459.48,-2.16
464.07,-2.13
468.71,-2.13
473.40,-2.13
478.13,-2.09
482.91,-2.09
487.74,-2.08
492.62,-2.04
497.55,-2.04
502.52,-2.01
507.55,-1.99
512.62,-1.97
517.75,-1.95
522.93,-1.93
528.16,-1.90
533.44,-1.87
538.77,-1.84
544.16,-1.81
549.60,-1.77
555.10,-1.74
560.65,-1.71
566.25,-1.68
571.92,-1.65
577.64,-1.62
583.41,-1.57
589.25,-1.53
595.14,-1.50
601.09,-1.47
607.10,-1.43
613.17,-1.39
619.30,-1.35
625.50,-1.32
631.75,-1.29
638.07,-1.25
644.45,-1.25
650.89,-1.25
657.40,-1.25
663.98,-1.25
670.62,-1.25
677.32,-1.29
684.10,-1.31
690.94,-1.34
697.85,-1.36
704.83,-1.39
711.87,-1.39
718.99,-1.39
726.18,-1.37
733.44,-1.34
740.78,-1.33
748.19,-1.29
755.67,-1.25
763.23,-1.21
770.86,-1.20
778.57,-1.15
786.35,-1.14
794.22,-1.11
802.16,-1.10
810.18,-1.06
818.28,-1.04
826.46,-1.01
834.73,-0.96
843.08,-0.90
851.51,-0.84
860.02,-0.79
868.62,-0.74
877.31,-0.68
886.08,-0.65
894.94,-0.60
903.89,-0.56
912.93,-0.50
922.06,-0.44
931.28,-0.39
940.59,-0.34
950.00,-0.29
959.50,-0.24
969.09,-0.18
978.78,-0.11
988.57,-0.06
998.46,-0.01
1008.44,0.07
1018.53,0.13
1028.71,0.17
1039.00,0.24
1049.39,0.32
1059.88,0.38
1070.48,0.45
1081.19,0.53
1092.00,0.60
1102.92,0.66
1113.95,0.74
1125.09,0.80
1136.34,0.87
1147.70,0.93
1159.18,1.01
1170.77,1.08
1182.48,1.16
1194.30,1.23
1206.25,1.31
1218.31,1.39
1230.49,1.46
1242.80,1.54
1255.22,1.60
1267.78,1.69
1280.45,1.77
1293.26,1.88
1306.19,1.95
1319.25,2.05
1332.45,2.12
1345.77,2.22
1359.23,2.29
1372.82,2.39
1386.55,2.46
1400.41,2.52
1414.42,2.60
1428.56,2.67
1442.85,2.73
1457.28,2.76
1471.85,2.80
1486.57,2.85
1501.43,2.86
1516.45,2.90
1531.61,2.90
1546.93,2.90
1562.40,2.90
1578.02,2.90
1593.80,2.90
1609.74,2.87
1625.84,2.85
1642.10,2.84
1658.52,2.80
1675.10,2.80
1691.85,2.76
1708.77,2.76
1725.86,2.76
1743.12,2.76
1760.55,2.77
1778.15,2.83
1795.94,2.88
1813.90,2.97
1832.03,3.04
1850.36,3.17
1868.86,3.29
1887.55,3.43
1906.42,3.59
1925.49,3.73
1944.74,3.92
1964.19,4.09
1983.83,4.26
2003.67,4.46
2023.71,4.64
2043.94,4.82
2064.38,4.99
2085.03,5.18
2105.88,5.35
2126.94,5.53
2148.20,5.70
2169.69,5.87
2191.38,6.02
2213.30,6.13
2235.43,6.26
2257.78,6.34
2280.36,6.43
2303.17,6.49
2326.20,6.55
2349.46,6.61
2372.95,6.64
2396.68,6.67
2420.65,6.71
2444.86,6.75
2469.31,6.76
2494.00,6.78
2518.94,6.81
2544.13,6.81
2569.57,6.81
2595.27,6.78
2621.22,6.78
2647.43,6.79
2673.90,6.81
2700.64,6.81
2727.65,6.85
2754.93,6.88
2782.48,6.93
2810.30,6.99
2838.40,7.06
2866.79,7.13
2895.46,7.20
2924.41,7.31
2953.65,7.39
2983.19,7.48
3013.02,7.59
3043.15,7.65
3073.58,7.73
3104.32,7.80
3135.36,7.83
3166.72,7.88
3198.38,7.88
3230.37,7.88
3262.67,7.86
3295.30,7.83
3328.25,7.78
3361.53,7.75
3395.15,7.70
3429.10,7.62
3463.39,7.58
3498.03,7.51
3533.01,7.43
3568.34,7.38
3604.02,7.31
3640.06,7.24
3676.46,7.17
3713.22,7.09
3750.36,7.01
3787.86,6.93
3825.74,6.83
3864.00,6.73
3902.64,6.61
3941.66,6.49
3981.08,6.33
4020.89,6.18
4061.10,6.03
4101.71,5.87
4142.73,5.69
4184.15,5.54
4226.00,5.40
4268.26,5.27
4310.94,5.16
4354.05,5.10
4397.59,5.05
4441.56,5.06
4485.98,5.11
4530.84,5.21
4576.15,5.33
4621.91,5.49
4668.13,5.64
4714.81,5.81
4761.96,5.98
4809.58,6.13
4857.67,6.26
4906.25,6.35
4955.31,6.39
5004.87,6.36
5054.91,6.29
5105.46,6.18
5156.52,6.05
5208.08,5.89
5260.16,5.72
5312.77,5.56
5365.89,5.37
5419.55,5.15
5473.75,4.91
5528.49,4.64
5583.77,4.31
5639.61,3.92
5696.00,3.46
5752.96,2.97
5810.49,2.46
5868.60,1.97
5927.28,1.54
5986.56,1.14
6046.42,0.85
6106.89,0.66
6167.96,0.55
6229.64,0.55
6291.93,0.64
6354.85,0.73
6418.40,0.83
6482.58,0.91
6547.41,0.94
6612.88,0.88
6679.01,0.74
6745.80,0.53
6813.26,0.25
6881.39,-0.09
6950.21,-0.49
7019.71,-0.90
7089.91,-1.32
7160.81,-1.72
7232.41,-2.08
7304.74,-2.36
7377.79,-2.61
7451.56,-2.77
7526.08,-2.88
7601.34,-2.92
7677.35,-2.92
7754.13,-2.92
7831.67,-2.92
7909.98,-2.92
7989.08,-2.95
8068.98,-3.04
8149.67,-3.20
8231.16,-3.40
8313.47,-3.71
8396.61,-4.13
8480.57,-4.64
8565.38,-5.31
8651.03,-6.11
8737.54,-7.01
8824.92,-7.99
8913.17,-8.96
9002.30,-9.87
9092.32,-10.60
9183.25,-11.14
9275.08,-11.47
9367.83,-11.35
9461.51,-10.96
9556.12,-10.36
9651.68,-9.58
9748.20,-8.71
9845.68,-7.82
9944.14,-7.00
10043.58,-6.31
10144.02,-5.76
10245.46,-5.37
10347.91,-5.12
10451.39,-5.07
10555.91,-5.25
10661.46,-5.52
10768.08,-5.89
10875.76,-6.32
10984.52,-6.85
11094.36,-7.41
11205.31,-8.00
11317.36,-8.62
11430.53,-9.22
11544.84,-9.82
11660.29,-10.36
11776.89,-10.80
11894.66,-11.14
12013.60,-11.40
12133.74,-11.52
12255.08,-11.49
12377.63,-11.35
12501.41,-11.17
12626.42,-10.92
12752.68,-10.67
12880.21,-10.38
13009.01,-10.13
13139.10,-9.90
13270.49,-9.74
13403.20,-9.63
13537.23,-9.62
13672.60,-9.78
13809.33,-10.05
13947.42,-10.39
14086.90,-10.83
14227.77,-11.32
14370.04,-11.84
14513.74,-12.38
14658.88,-12.85
14805.47,-13.22
14953.52,-13.49
15103.06,-13.55
15254.09,-13.31
15406.63,-12.89
15560.70,-12.30
15716.30,-11.57
15873.47,-10.73
16032.20,-9.89
16192.52,-9.06
16354.45,-8.34
16517.99,-7.79
16683.17,-7.40
16850.01,-7.16
17018.51,-7.22
17188.69,-7.47
17360.58,-7.80
17534.18,-8.23
17709.53,-8.67
17886.62,-9.10
18065.49,-9.46
18246.14,-9.75
18428.60,-9.96
18612.89,-10.12
18799.02,-10.26
18987.01,-10.45
19176.88,-10.64
19368.65,-10.83
19562.33,-11.07
19757.96,-11.27
19955.54,-11.36
