frequency,raw,error,smoothed,error_smoothed,equalization,equalized_raw,equalized_smoothed,target
20,-28.707732951594856,-28.724212113989044,-28.653662151945607,-28.670126938470116,5.999999999999999,-22.707732951594856,-22.653662151945607,0.016479162394188673
21,-27.8637190040191,-27.881365090488398,-27.81274593827453,-27.830393655890784,6.0,-21.8637190040191,-21.81274593827453,0.017646086469297995
22,-26.901866084283544,-26.920628655276115,-27.007792253300916,-27.02656588130136,6.0,-20.901866084283544,-21.007792253300916,0.01876257099257117
23,-26.15240582750378,-26.17223303723892,-26.23880109702477,-26.25864361470184,5.999999999999999,-20.15240582750378,-20.23880109702477,0.01982720973514196
24,-25.502300536443084,-25.52313887999087,-25.505772469446054,-25.52662685609219,5.999999999999998,-19.502300536443087,-19.505772469446057,0.020838343547786575
25,-24.64092403127182,-24.662718060186535,-24.81505029124955,-24.836861591301393,6.000000000000001,-18.64092403127182,-18.81505029124955,0.02179402891471538
26,-24.135558366981247,-24.158250371191222,-24.1585945028911,-24.1813058737843,6.0,-18.135558366981247,-18.1585945028911,0.022692004209976968
27,-23.526400975960637,-23.54993512350764,-23.529645689654977,-23.553198096466236,6.0,-17.526400975960637,-17.529645689654977,0.023534147547003226
28,-22.918326062336572,-22.942639537304505,-22.919712628241445,-22.94404319907953,6.0,-16.918326062336572,-16.919712628241445,0.02431347496793279
29,-22.781807025668932,-22.806831745013707,-22.320084495117225,-22.34512470515336,6.000000000000001,-16.781807025668932,-16.320084495117225,0.02502471934477457
30,-21.653196077685788,-21.678857331156753,-21.725740401219092,-21.75141494521945,6.0,-15.653196077685788,-15.725740401219092,0.025661253470963263
31,-21.028827257492892,-21.055042317053065,-21.134170593482317,-21.16039602238459,5.999999999999999,-15.028827257492892,-15.134170593482317,0.026215059560172893
32,-20.50260474646666,-20.529281555408794,-20.545595198117354,-20.57227890831063,5.999999999999999,-14.502604746466659,-14.545595198117354,0.0266768089421352
33,-19.838653139423513,-19.86568920479715,-19.96201454769762,-19.98905402652438,6.0,-13.838653139423513,-13.96201454769762,0.027036065373637452
34,-19.36300360686552,-19.39028599285772,-19.385905744507433,-19.413188019126906,5.999999999999998,-13.36300360686552,-13.385905744507435,0.027282385992203118
35,-18.973281264603223,-19.00068605689786,-18.81975836690639,-18.84715976810847,6.000000000000001,-12.973281264603223,-12.819758366906392,0.02740479229463677
36,-18.231608051495265,-18.25900037880916,-18.26578684086535,-18.293173020632196,5.999999999999998,-12.231608051495266,-12.265786840865351,0.02739232731389496
37,-17.951405410164583,-17.97863976177038,-17.726006225597224,-17.753232424374445,6.0,-11.951405410164583,-11.726006225597224,0.02723435160580001
38,-17.036064971164528,-17.062985748979532,-17.202304911675718,-17.229216445177943,6.000000000000001,-11.036064971164528,-11.202304911675718,0.026920777815003127
39,-16.62796087182278,-16.65440308995194,-16.69618154359294,-16.7226144439102,6.0,-10.62796087182278,-10.696181543592939,0.026442218129161255
40,-16.141473116918174,-16.167263146512376,-16.208220411453084,-16.234002158661422,5.999999999999999,-10.141473116918174,-10.208220411453084,0.0257900295942024
41,-15.719294686511878,-15.744251074519092,-15.737485060132194,-15.762435321524146,5.999999999999999,-9.71929468651188,-9.737485060132194,0.024956388007214336
42,-15.312782818874485,-15.336717004438347,-15.28118439283912,-15.305115681862809,6.000000000000003,-9.312782818874481,-9.281184392839116,0.023934185563861288
43,-14.804599048460961,-14.827315905982175,-14.834900035745665,-14.857618203358996,6.0,-8.804599048460961,-8.834900035745665,0.02271685752121444
44,-14.348758592620504,-14.370056717672515,-14.393418443860782,-14.414722916908925,6.0,-8.348758592620504,-8.393418443860782,0.02129812505201123
45,-14.120838364700274,-14.140510026410436,-13.951956902419742,-13.971640592430017,5.999999999999998,-8.120838364700276,-7.951956902419743,0.019671661710161104
46,-13.601469642359152,-13.619300334185702,-13.50737687797859,-13.525225695293393,6.0,-7.601469642359152,-7.50737687797859,0.017830691826550282
47,-13.035261627363802,-13.051029156979995,-13.05895842145809,-13.074750344352022,5.999999999999999,-7.035261627363803,-7.058958421458091,0.015767529616192544
48,-12.525396769258677,-12.538869860644915,-12.608466106040272,-12.621969772120512,6.0,-6.525396769258677,-6.608466106040272,0.013473091386238423
49,-12.214277880791112,-12.225214272969751,-12.15949178637389,-12.170464592721736,5.999999999999999,-6.214277880791113,-6.1594917863738905,0.010936392178639842
50,-11.634147390286753,-11.642291439191665,-11.716307605090988,-11.724493323750416,5.999999999999999,-5.634147390286754,-5.7163076050909885,0.008144048904911827
51,-11.340710820117238,-11.345790630990942,-11.28260803849889,-11.28773397396163,5.999999999999998,-5.3407108201172395,-5.282608038498891,0.005079810873704016
52,-10.829478097505545,-10.831202235222028,-10.860519763631945,-10.862293497907732,5.999999999999998,-4.829478097505547,-4.860519763631947,0.001724137716482943
53,-10.327983735632358,-10.326037577997944,-10.450134569498276,-10.44824035737169,6.000000000000002,-4.3279837356323565,-4.450134569498275,-0.0019461576344146359
54,-10.018274262136176,-10.012316074878575,-10.049638986458731,-10.043733877822007,5.999999999999999,-4.018274262136177,-4.049638986458732,-0.005958187257600667
55,-9.790354034215946,-9.780010858291423,-9.655951736486585,-9.645661513625457,5.999999999999999,-3.790354034215947,-3.6559517364865863,-0.010343175924523607
56,-9.334229210648422,-9.319092659749934,-9.265684973627089,-9.250599998622736,6.000000000000002,-3.33422921064842,-3.2656849736270868,-0.015136550898488199
57,-8.86824079880438,-8.847862868199927,-8.876222958179305,-8.855894028962844,5.999999999999997,-2.868240798804382,-2.8762229581793077,-0.020377930604452477
58,-8.422832666694575,-8.396721653714481,-8.486731815020363,-8.460666128086956,6.0,-2.4228326666945748,-2.486731815020363,-0.026111012980093662
59,-8.188220778902389,-8.155837410811749,-8.098936732517998,-8.066594046079645,6.000000000000001,-2.188220778902388,-2.0989367325179975,-0.03238336809064091
60,-7.745728716637795,-7.706482573686836,-7.717504262990335,-7.6782933468092605,6.000000000000001,-1.7457287166377942,-1.7175042629903343,-0.03924614295095896
61,-7.310550908610048,-7.263797219147949,-7.349862273457905,-7.303137721300979,6.0,-1.3105509086100477,-1.349862273457905,-0.04675368946209879
62,-7.055311299173215,-7.000348170730899,-7.005323587378107,-6.950383055629375,5.999999999999999,-1.0553112991732156,-1.0053235873781077,-0.05496312844231532
63,-6.758254630963436,-6.694320766863212,-6.693496242994191,-6.629578165193367,6.0,-0.7582546309634361,-0.6934962429941907,-0.06393386410022384
64,-6.274500835043132,-6.200773771183757,-6.422168401582376,-6.348450214323912,5.9735151343645905,-0.3009857006785417,-0.44865326721778587,-0.073727063859375
65,-6.094232142953924,-6.009827024729426,-6.1950966147688025,-6.1106935160517395,5.917335587979041,-0.1768965549748831,-0.27776102678976144,-0.08440511822449803
66,-5.915710159572073,-5.81967906513694,-6.010302690785556,-5.914266938727518,5.832846447748776,-0.08286371182329688,-0.17745624303678031,-0.09603109443513258
67,-5.687789931651843,-5.5791217355703075,-5.85948923416708,-5.750809982325084,5.726627329101494,0.03883739744965098,-0.13286190506558615,-0.10866819608153566
68,-5.687789931651843,-5.565410692831449,-5.728958316177069,-5.606561971166174,5.603677455116715,-0.08411247653512799,-0.12528086106035374,-0.12237923882039459
69,-5.687789931651843,-5.550563781692667,-5.601999544763828,-5.464750623152998,5.464750623152997,-0.223039308498846,-0.1372489216108308,-0.1372261499591758
70,-5.687789931651843,-5.534520434502678,-5.4622353000060535,-5.3089377566917095,5.3089377566917095,-0.3788521749601337,-0.15329754331434398,-0.1532694971491657
71,-5.459869703731614,-5.289301654829405,-5.297051291024468,-5.126450291330592,5.126450291330592,-0.3334194124010219,-0.17060099969387643,-0.17056804890220878
72,-5.224831410510174,-5.035653043232399,-5.100150302529565,-4.9109344122697856,4.910934412269787,-0.31389699824038697,-0.1892158902597778,-0.18917836727777537
73,-4.861685543329094,-4.652531112323395,-4.87250220393406,-4.663305968987298,4.663305968987296,-0.1983795743417982,-0.20919623494676376,-0.20915443100569986
74,-4.548188792050703,-4.317641506433947,-4.621454421928457,-4.390861302732166,4.390861302732167,-0.15732748931853635,-0.23059311919629,-0.2305472856167552
75,-4.378004129607503,-4.124599413687777,-4.358339188341743,-4.104884805973243,4.104884805973242,-0.27311932363426106,-0.25345438236850093,-0.2534047159197259
76,-4.029288330179441,-3.7515173947546967,-4.0953590584999375,-3.817534708672486,3.8175347086724853,-0.21175362150695598,-0.2778243498274522,-0.2777709354247446
77,-3.685131037897435,-3.3814447508274976,-3.8426969625853284,-3.5389533891645826,3.5389533891645812,-0.14617764873285388,-0.3037435734207472,-0.3036862870699375
78,-3.573334836826322,-3.2421478869929894,-3.6066380649014764,-3.2753895714728407,3.275389571472841,-0.29794526535348087,-0.33124849342863527,-0.33118694983333263
79,-3.408587652449563,-3.0482830059990547,-3.3890858255504126,-3.0287148979434955,3.0287148979434955,-0.3798727545060676,-0.36037092760691714,-0.3603046464505084
80,-3.1806674245293327,-2.7896010760906624,-3.1883662604047323,-2.7972288581349627,2.7972288581349636,-0.38343856639436913,-0.3911374022697687,-0.3910663484386703
81,-3.035560846376098,-2.612066870510223,-3.0008233036947627,-2.5772547319468386,2.5772547319468386,-0.4583061144292593,-0.42356857174792406,-0.4234939758658749
82,-2.940438273447002,-2.482834182734031,-2.822542162230052,-2.36486297432625,2.3648629743262504,-0.5755752991207514,-0.4576791879038016,-0.4576040907129708
83,-2.6213112393865434,-2.1279036552156514,-2.6506261380574694,-2.1571470551718672,2.1571470551718677,-0.46416418421467576,-0.4934790828856017,-0.49340758417089203
84,-2.4969067407686514,-1.9659973810474654,-2.483728283084617,-1.9527531224311785,1.9527531224311794,-0.544153618337472,-0.5309751606534374,-0.530909359721186
85,-2.268986512848422,-1.6988784975494755,-2.321875444715852,-1.7517020666750769,1.7517020666750769,-0.517284446173345,-0.5701733780407752,-0.5701080152989464
86,-2.142343746372866,-1.5313482171882424,-2.1658827139014085,-1.5548041845823952,1.5548041845823952,-0.5875395617904708,-0.6110785293190133,-0.6109955291846236
87,-2.041066284928193,-1.387509329449391,-2.0167489999767,-1.3630597545834242,1.3630597545834238,-0.6780065303447691,-0.6536892453932761,-0.6535569554788019
88,-1.81314605700797,-1.1153759209492602,-1.8753344046529552,-1.1773474320893405,1.1773474320893405,-0.6357986249186296,-0.6979869725636147,-0.6977701360587099
89,-1.8131460570079703,-1.069540620224071,-1.742409472328481,-0.9984883402155065,0.9984883402155065,-0.8146577167924638,-0.7439211321129746,-0.7436054367838993
90,-1.6291865955596854,-0.838161079155475,-1.618941689643798,-0.8275444697436549,0.827544469743655,-0.8016421258160303,-0.791397219900143,-0.7910255164042104
91,-1.5661905158864564,-0.7262053787651981,-1.5063497297172286,-0.6660716493131855,0.6660716493131854,-0.900118866573271,-0.8402780804040432,-0.8399851371212583
92,-1.357305601167511,-0.4668745751079544,-1.4064697824213555,-0.5160617839628252,0.5160617839628251,-0.841243817204686,-0.8904079984585304,-0.8904310260595567
93,-1.357305601167511,-0.415003804162565,-1.321130839366381,-0.37946830042926216,0.37946830042926216,-0.9778373007382489,-0.9416625389371188,-0.9423017970049461
94,-1.1680861259798658,-0.17255818432919012,-1.2514510986916207,-0.25743612368638,0.2574361236863801,-0.9106500022934858,-0.9940149750052407,-0.9955279416506757
95,-1.1293853732472818,-0.07935347401414705,-1.197140731131607,-0.14954373412487465,0.1495437341248746,-0.9798416391224072,-1.0475969970067323,-1.0500318992331348
96,-1.1293853732472816,-0.02365716043383692,-1.1561418715615885,-0.05341812581225185,0.05341812581225184,-1.0759672474350297,-1.1027237457493366,-1.1057282128134447
97,-1.1293853732472816,0.03313840629127762,-1.1248283539242887,0.03502861428027735,-0.03502861428027735,-1.164413987527559,-1.159856968204566,-1.1625237795385592
98,-1.1293853732472818,0.09093282772172295,-1.0987683927534153,0.12072886379700748,-0.12072886379700748,-1.2501142370442893,-1.2194972565504227,-1.2203182009690048
99,-1.1293853732472816,0.14961886472178199,-1.0738187152765777,0.2082042582700348,-0.20820425827003483,-1.3375896315173164,-1.2820229735466124,-1.2790042379690636
100,-1.1293853732472818,0.2090829994622061,-1.0471723098211418,0.3003474507275804,-0.30034745072758035,-1.4297328239748621,-1.3475197605487221,-1.338468372709488
101,-1.1004445770902682,0.2981469009493811,-1.017988284847835,0.3976703317129674,-0.39767033171296745,-1.4981149088032357,-1.4156586165608025,-1.3985914780396493
102,-0.9014651453270521,0.5577844465460999,-0.9873870396548625,0.498287000832799,-0.49828700083279887,-1.399752146159851,-1.4856740404876614,-1.459249591873152
104,-0.9014651453270521,0.6808142711843366,-0.9578304145449434,0.5986358022076013,-0.5986358022076013,-1.5001009475346534,-1.5564662167525447,-1.5822794165113887
105,-0.9014651453270521,0.7422365185210884,-0.9321273042846026,0.6946837515766626,-0.6946837515766627,-1.5961488969037148,-1.6268110558612654,-1.6437016638481405
106,-0.9014651453270521,0.8036795906739527,-0.9124250961947222,0.7831983631007999,-0.7831983631007997,-1.6846635084278518,-1.695623459295522,-1.7051447360010048
107,-0.9014651453270521,0.865012411380722,-0.8995272254628016,0.8626701595974022,-0.8626701595974023,-1.7641353049244546,-1.762197385060204,-1.7664775567077742
108,-0.9014651453270521,0.9261050659129073,-0.8927384620621432,0.9336119150442409,-0.9336119150442408,-1.835077060371293,-1.826350377106384,-1.8275702112399594
109,-0.9014651453270521,0.9868299154991318,-0.8902448555120277,0.9981844882817809,-0.9981844882817812,-1.8996496336088333,-1.888429343793809,-1.888295060826184
110,-0.9014651453270521,1.0470627080595514,-0.8898580260584038,1.0593200576880353,-1.0593200576880353,-1.9607852030150874,-1.949178083746439,-1.9485278533866035
111,-0.9014651453270521,1.106683663455415,-0.889849458037502,1.1196602430238003,-1.1196602430238005,-2.0211253883508524,-2.0095097010613028,-2.008148808782467
112,-0.9014651453270521,1.16557851064842,-0.8895929480358655,1.180661071405808,-1.180661071405808,-2.08212621673286,-2.0702540194416734,-2.067043655975472
113,-0.9014651453270521,1.2236394541113067,-0.889812025187036,1.2421407861493892,-1.2421407861493892,-2.1436059314764413,-2.1319528113364252,-2.125104599438359
114,-0.9014651453270521,1.2807660476047675,-0.8923608446280826,1.3023936967093381,-1.3023936967093384,-2.2038588420363903,-2.1947545413374208,-2.1822311929318197
115,-0.9014651453270521,1.3368659550687725,-0.8996105692748368,1.3588138470411781,-1.3588138470411784,-2.2602789923682307,-2.258424416316015,-2.2383311003958246
117,-0.9014651453270521,1.4465682969688283,-0.9136317505320914,1.4088168093718232,-1.408816809371823,-2.3102819546988753,-2.3224485599039144,-2.3480334422958804
118,-0.9014651453270521,1.4992486612479317,-0.9354256824949163,1.4507602384911353,-1.450760238491135,-2.352225383818187,-2.386185920986051,-2.400713806574984
119,-0.9014651453270521,1.550632773010844,-0.964445622379118,1.4845696481326485,-1.4845696481326482,-2.3860347934597,-2.449015270511766,-2.452097918337896
120,-0.9101320611552199,1.5920055518779894,-0.998562664598927,1.511874340161806,-1.5118743401618058,-2.4220064013170255,-2.5104370047607327,-2.5021376130332094
121,-1.1286201031072542,1.422174137291692,-1.0344935419217416,1.5356200007978886,-1.5356200007978886,-2.6642401039051427,-2.57011354271963,-2.5507942403989463
123,-1.1293853732472818,1.5160514737206776,-1.0685599941056023,1.5592970700415096,-1.5592970700415099,-2.6886824432887915,-2.627857064147112,-2.6454368469679594
124,-1.1293853732472816,1.5605566126561343,-1.0975412255554255,1.5860480338307568,-1.5860480338307565,-2.715433407078038,-2.6835892593861823,-2.689941985903416
125,-1.1293853732472816,1.603607866950941,-1.1193535014344058,1.6179463448297338,-1.6179463448297335,-2.747331718077015,-2.7372998462641394,-2.7329932401982227
126,-1.1293853732472816,1.6452063632503622,-1.133358704717251,1.6556620278511103,-1.6556620278511098,-2.7850474010983914,-2.789020732568361,-2.774591736497644
128,-1.1293853732472816,1.7261837371612199,-1.1402423299771045,1.6985754993155728,-1.698575499315573,-2.827960872562855,-2.838817829292678,-2.8555691104085015
129,-1.1293853732472816,1.763601439984397,-1.1415574109797642,1.7452330860311358,-1.745233086031136,-2.874618459278418,-2.8867904970109004,-2.8929868132316785
130,-1.1293853732472816,1.7996201960859697,-1.139143091847774,1.7939219262055375,-1.7939219262055381,-2.9233072994528198,-2.933065018053312,-2.9290055693332513
131,-1.1293853732472816,1.8342670212886607,-1.1346503864544752,1.8431238576865767,-1.8431238576865767,-2.9725092309338583,-2.977774244141052,-2.9636523945359423
133,-1.1293853732472818,1.9020241401369902,-1.1293350678354719,1.8916912997499318,-1.8916912997499318,-3.0210766729972134,-3.021026367585404,-3.031409513384272
134,-1.1293853732472816,1.9328059817281993,-1.1241423049064296,1.9387325580515042,-1.9387325580515045,-3.068117931298786,-3.0628748629579343,-3.062191354975481
135,-1.1293853732472818,1.962338726614657,-1.1199710911263132,1.983332685011177,-1.983332685011177,-3.1127180582584586,-3.10330377613749,-3.091724099861939
137,-1.1293853732472816,2.0204090920906204,-1.1179301188018234,2.024306554283041,-2.024306554283041,-3.1536919275303226,-3.1422366730848643,-3.149794465337902
138,-1.1293853732472816,2.046449764372474,-1.119412651929226,2.06015444693507,-2.06015444693507,-3.1895398201823517,-3.179567098864296,-3.1758351376197558
140,-1.1293853732472816,2.0979035968127104,-1.1259169367053756,2.0892815827465436,-2.0892815827465436,-3.2186669559938252,-3.2151985194519193,-3.227288970059992
141,-1.1293853732472816,2.120752563185009,-1.1386737203416613,2.110403777291931,-2.1104037772919306,-3.2397891505392122,-3.249077497633592,-3.2501379364322904
142,-1.1293853732472816,2.1425996861064185,-1.1582481795597905,2.122959269739392,-2.1229592697393924,-3.252344642986674,-3.281207449299183,-3.2719850593537
144,-1.1293853732472818,2.18612348504338,-1.18430825670982,2.1273314149384985,-2.127331414938498,-3.2567167881857797,-3.311639671648318,-3.3155088582906616
145,-1.1293853732472818,2.2051792813631996,-1.2156824585369344,2.124766091803696,-2.1247660918036964,-3.2541514650509784,-3.3404485503406307,-3.3345646546104812
147,-1.357305601167511,2.0155033002054683,-1.2507001551464267,2.1170038718511575,-2.117003871851157,-3.474309473018668,-3.3677040269975835,-3.3728089013729794
148,-1.357305601167511,2.032047194626284,-1.2876783429146599,2.1057757525554717,-2.1057757525554717,-3.4630813537229828,-3.3934540954701315,-3.389352795793795
150,-1.357305601167511,2.0655493259667863,-1.3253513534118366,2.0923727837243815,-2.0923727837243815,-3.4496783848918926,-3.417724137136218,-3.4228549271342974
151,-1.357305601167511,2.079838723865247,-1.363066349867735,2.077464915477748,-2.0774649154777483,-3.4347705166452593,-3.4405312653454834,-3.437144325032758
153,-1.357305601167511,2.109097789017176,-1.400674811922395,2.061230040978882,-2.0612300409788817,-3.418535642146393,-3.461904852901277,-3.466403390184687
154,-1.357305601167511,2.121365618991349,-1.438186271716063,2.04371594150735,-2.04371594150735,-3.401021542674861,-3.481902213223413,-3.47867122015886
156,-1.4358022942430648,2.0683407314793163,-1.4753520153660051,2.025259506939802,-2.025259506939802,-3.4610618011828667,-3.5006115223058067,-3.504143025722381
157,-1.5852258290877406,1.929371659703679,-1.511369746354371,2.006770751728845,-2.006770751728845,-3.5919965808165855,-3.518140498083216,-3.5145974887914195
