frequency,raw,smoothed,error,error_smoothed,equalization,parametric_eq,fixed_band_eq,equalized_raw,equalized_smoothed,target
20.00,4.06,4.06,-0.40,-0.40,0.41,0.15,-0.34,4.46,4.46,4.46
20.20,4.09,4.09,-0.37,-0.37,0.37,0.13,-0.34,4.46,4.46,4.46
20.40,4.12,4.12,-0.34,-0.34,0.34,0.11,-0.35,4.46,4.46,4.46
20.61,4.15,4.15,-0.31,-0.31,0.30,0.09,-0.36,4.45,4.46,4.46
20.81,4.19,4.19,-0.27,-0.27,0.27,0.08,-0.37,4.46,4.45,4.46
21.02,4.22,4.22,-0.24,-0.23,0.23,0.06,-0.38,4.45,4.45,4.46
21.23,4.25,4.25,-0.19,-0.19,0.19,0.04,-0.39,4.44,4.44,4.44
21.44,4.27,4.27,-0.16,-0.15,0.15,0.02,-0.40,4.42,4.42,4.43
21.66,4.30,4.30,-0.11,-0.11,0.11,-0.00,-0.41,4.41,4.41,4.41
21.87,4.33,4.32,-0.06,-0.06,0.07,-0.02,-0.42,4.39,4.39,4.38
22.09,4.35,4.35,-0.03,-0.02,0.02,-0.04,-0.43,4.37,4.37,4.37
22.31,4.37,4.37,0.03,0.02,-0.02,-0.07,-0.44,4.34,4.34,4.34
22.54,4.39,4.39,0.06,0.06,-0.07,-0.09,-0.45,4.32,4.32,4.32
22.76,4.41,4.41,0.11,0.11,-0.11,-0.11,-0.46,4.30,4.30,4.30
22.99,4.43,4.43,0.16,0.16,-0.15,-0.13,-0.47,4.27,4.27,4.27
23.22,4.45,4.44,0.21,0.20,-0.19,-0.15,-0.48,4.25,4.25,4.24
23.45,4.46,4.46,0.24,0.24,-0.23,-0.17,-0.49,4.22,4.23,4.22
23.69,4.48,4.48,0.27,0.27,-0.27,-0.20,-0.51,4.20,4.21,4.21
23.92,4.50,4.50,0.31,0.31,-0.31,-0.22,-0.52,4.19,4.19,4.19
24.16,4.52,4.52,0.34,0.34,-0.35,-0.24,-0.53,4.17,4.17,4.18
24.40,4.54,4.54,0.38,0.38,-0.38,-0.27,-0.55,4.15,4.15,4.16
24.65,4.56,4.56,0.42,0.42,-0.42,-0.29,-0.56,4.14,4.14,4.14
24.89,4.58,4.58,0.46,0.46,-0.46,-0.32,-0.57,4.12,4.12,4.11
25.14,4.60,4.60,0.49,0.50,-0.50,-0.34,-0.59,4.10,4.10,4.10
25.39,4.62,4.62,0.54,0.53,-0.54,-0.36,-0.60,4.08,4.08,4.08
25.65,4.64,4.64,0.57,0.57,-0.57,-0.39,-0.61,4.06,4.06,4.07
25.91,4.66,4.66,0.62,0.61,-0.61,-0.42,-0.63,4.05,4.05,4.04
26.16,4.68,4.68,0.65,0.65,-0.64,-0.44,-0.64,4.03,4.03,4.03
26.43,4.70,4.69,0.68,0.68,-0.68,-0.47,-0.66,4.02,4.02,4.02
26.69,4.71,4.71,0.71,0.71,-0.71,-0.49,-0.68,4.00,4.00,4.00
26.96,4.73,4.73,0.74,0.74,-0.74,-0.52,-0.69,3.98,3.98,3.99
27.23,4.75,4.74,0.77,0.77,-0.77,-0.55,-0.71,3.97,3.97,3.97
27.50,4.76,4.76,0.79,0.80,-0.80,-0.58,-0.72,3.95,3.96,3.96
27.77,4.78,4.78,0.84,0.83,-0.83,-0.60,-0.74,3.95,3.94,3.94
28.05,4.79,4.79,0.86,0.86,-0.86,-0.63,-0.76,3.93,3.93,3.93
28.33,4.80,4.80,0.89,0.89,-0.89,-0.66,-0.77,3.91,3.91,3.91
28.62,4.81,4.81,0.91,0.91,-0.91,-0.69,-0.79,3.90,3.90,3.90
28.90,4.82,4.82,0.93,0.94,-0.93,-0.72,-0.81,3.88,3.88,3.89
29.19,4.83,4.83,0.96,0.96,-0.96,-0.75,-0.83,3.87,3.87,3.86
29.48,4.84,4.84,0.98,0.98,-0.98,-0.78,-0.85,3.86,3.86,3.86
29.78,4.85,4.85,1.00,1.00,-1.00,-0.81,-0.86,3.85,3.85,3.85
30.08,4.85,4.85,1.01,1.01,-1.02,-0.84,-0.88,3.83,3.84,3.84
30.38,4.86,4.86,1.04,1.04,-1.03,-0.87,-0.90,3.82,3.82,3.82
30.68,4.86,4.86,1.05,1.06,-1.05,-0.90,-0.92,3.81,3.80,3.80
30.99,4.86,4.86,1.08,1.07,-1.07,-0.93,-0.94,3.79,3.79,3.78
31.30,4.86,4.86,1.09,1.09,-1.09,-0.96,-0.96,3.77,3.77,3.77
31.61,4.86,4.86,1.10,1.10,-1.11,-0.99,-0.98,3.75,3.75,3.76
31.93,4.86,4.86,1.12,1.13,-1.13,-1.02,-1.00,3.73,3.73,3.74
32.24,4.86,4.86,1.15,1.15,-1.15,-1.06,-1.02,3.71,3.71,3.70
32.57,4.86,4.86,1.17,1.17,-1.17,-1.09,-1.04,3.69,3.69,3.69
32.89,4.86,4.86,1.18,1.19,-1.19,-1.12,-1.06,3.67,3.67,3.68
33.22,4.86,4.86,1.21,1.21,-1.21,-1.16,-1.08,3.65,3.65,3.65
33.55,4.86,4.86,1.23,1.23,-1.23,-1.19,-1.10,3.63,3.63,3.63
33.89,4.86,4.86,1.25,1.25,-1.25,-1.22,-1.13,3.61,3.61,3.61
34.23,4.86,4.86,1.27,1.27,-1.27,-1.26,-1.15,3.59,3.59,3.59
34.57,4.86,4.86,1.29,1.29,-1.29,-1.29,-1.17,3.56,3.56,3.56
34.92,4.86,4.86,1.32,1.32,-1.32,-1.33,-1.20,3.54,3.54,3.54
35.27,4.87,4.86,1.34,1.34,-1.34,-1.36,-1.22,3.53,3.52,3.53
35.62,4.87,4.87,1.36,1.37,-1.37,-1.40,-1.25,3.50,3.50,3.50
35.97,4.88,4.87,1.40,1.39,-1.39,-1.43,-1.28,3.49,3.48,3.48
36.33,4.88,4.88,1.41,1.42,-1.42,-1.47,-1.30,3.46,3.46,3.47
36.70,4.89,4.89,1.45,1.45,-1.45,-1.51,-1.33,3.44,3.44,3.44
37.06,4.90,4.90,1.48,1.47,-1.48,-1.54,-1.36,3.42,3.42,3.42
37.43,4.91,4.91,1.50,1.51,-1.51,-1.58,-1.39,3.40,3.40,3.40
37.81,4.92,4.92,1.54,1.54,-1.54,-1.62,-1.42,3.38,3.38,3.38
38.19,4.93,4.93,1.57,1.57,-1.57,-1.66,-1.45,3.36,3.36,3.36
38.57,4.94,4.94,1.60,1.60,-1.60,-1.69,-1.49,3.33,3.34,3.34
38.95,4.96,4.95,1.64,1.64,-1.64,-1.73,-1.52,3.32,3.32,3.32
39.34,4.97,4.97,1.68,1.67,-1.67,-1.77,-1.56,3.30,3.29,3.29
39.74,4.98,4.98,1.71,1.71,-1.71,-1.81,-1.59,3.27,3.27,3.27
40.14,4.99,4.99,1.73,1.74,-1.74,-1.85,-1.63,3.25,3.25,3.26
40.54,5.01,5.00,1.77,1.77,-1.77,-1.89,-1.67,3.24,3.23,3.23
40.94,5.02,5.02,1.80,1.80,-1.80,-1.93,-1.71,3.22,3.22,3.22
41.35,5.04,5.04,1.85,1.84,-1.83,-1.97,-1.75,3.21,3.20,3.19
41.76,5.05,5.05,1.86,1.87,-1.86,-2.01,-1.80,3.19,3.19,3.19
42.18,5.06,5.06,1.89,1.89,-1.89,-2.05,-1.84,3.17,3.17,3.17
42.60,5.07,5.07,1.92,1.92,-1.92,-2.09,-1.89,3.15,3.14,3.14
43.03,5.08,5.08,1.94,1.95,-1.95,-2.13,-1.94,3.12,3.13,3.14
43.46,5.09,5.09,1.98,1.98,-1.98,-2.17,-1.99,3.10,3.11,3.11
43.90,5.11,5.10,2.03,2.01,-2.02,-2.21,-2.04,3.09,3.09,3.08
44.33,5.11,5.11,2.04,2.05,-2.05,-2.25,-2.09,3.06,3.06,3.06
44.78,5.12,5.12,2.07,2.08,-2.08,-2.29,-2.14,3.04,3.04,3.05
45.23,5.13,5.13,2.11,2.11,-2.11,-2.33,-2.20,3.02,3.02,3.02
45.68,5.14,5.14,2.14,2.14,-2.13,-2.38,-2.26,3.00,3.01,3.00
46.13,5.15,5.15,2.17,2.17,-2.16,-2.42,-2.31,2.99,2.99,2.98
46.60,5.16,5.15,2.19,2.19,-2.19,-2.46,-2.37,2.97,2.97,2.97
47.06,5.16,5.16,2.21,2.21,-2.21,-2.50,-2.44,2.95,2.95,2.95
47.53,5.17,5.17,2.24,2.23,-2.24,-2.55,-2.50,2.93,2.93,2.93
48.01,5.18,5.17,2.26,2.26,-2.27,-2.59,-2.56,2.91,2.91,2.92
48.49,5.18,5.18,2.29,2.29,-2.30,-2.63,-2.63,2.88,2.89,2.89
48.97,5.19,5.19,2.33,2.33,-2.33,-2.67,-2.69,2.86,2.86,2.86
49.46,5.20,5.19,2.37,2.37,-2.36,-2.72,-2.76,2.84,2.84,2.83
49.96,5.20,5.20,2.40,2.40,-2.39,-2.76,-2.83,2.81,2.81,2.80
50.46,5.21,5.21,2.41,2.42,-2.42,-2.81,-2.90,2.79,2.79,2.79
50.96,5.22,5.22,2.45,2.45,-2.45,-2.85,-2.97,2.76,2.76,2.77
51.47,5.23,5.23,2.49,2.48,-2.49,-2.89,-3.04,2.74,2.74,2.74
51.99,5.24,5.24,2.52,2.52,-2.52,-2.94,-3.11,2.72,2.72,2.71
52.51,5.25,5.25,2.55,2.55,-2.55,-2.98,-3.18,2.70,2.70,2.70
53.03,5.26,5.26,2.58,2.58,-2.59,-3.03,-3.25,2.67,2.67,2.68
53.56,5.27,5.27,2.62,2.62,-2.62,-3.07,-3.32,2.65,2.65,2.65
54.10,5.29,5.28,2.66,2.66,-2.66,-3.11,-3.39,2.63,2.62,2.63
54.64,5.30,5.30,2.70,2.70,-2.70,-3.16,-3.46,2.60,2.60,2.60
55.18,5.32,5.32,2.74,2.74,-2.74,-3.20,-3.53,2.57,2.58,2.57
55.74,5.34,5.34,2.79,2.79,-2.79,-3.25,-3.59,2.55,2.55,2.55
56.29,5.36,5.36,2.83,2.83,-2.83,-3.29,-3.66,2.53,2.53,2.53
56.86,5.38,5.38,2.88,2.88,-2.88,-3.34,-3.72,2.50,2.50,2.50
57.42,5.40,5.40,2.93,2.92,-2.92,-3.38,-3.78,2.48,2.48,2.47
58.00,5.42,5.42,2.97,2.97,-2.97,-3.43,-3.84,2.45,2.45,2.45
58.58,5.45,5.44,3.03,3.02,-3.02,-3.47,-3.89,2.43,2.43,2.42
59.16,5.47,5.47,3.07,3.07,-3.07,-3.52,-3.94,2.40,2.40,2.40
59.76,5.50,5.50,3.12,3.12,-3.12,-3.56,-3.99,2.37,2.38,2.38
60.35,5.53,5.53,3.18,3.17,-3.18,-3.61,-4.03,2.35,2.35,2.35
60.96,5.57,5.56,3.23,3.24,-3.24,-3.65,-4.07,2.33,2.32,2.34
61.57,5.60,5.60,3.30,3.30,-3.31,-3.70,-4.11,2.29,2.29,2.29
62.18,5.64,5.64,3.38,3.37,-3.37,-3.74,-4.14,2.27,2.27,2.26
62.80,5.68,5.68,3.44,3.45,-3.44,-3.79,-4.17,2.24,2.23,2.24
63.43,5.72,5.72,3.52,3.52,-3.51,-3.83,-4.20,2.21,2.21,2.20
64.07,5.77,5.77,3.59,3.59,-3.59,-3.88,-4.22,2.18,2.18,2.17
64.71,5.82,5.82,3.66,3.66,-3.66,-3.92,-4.23,2.16,2.16,2.16
65.35,5.87,5.87,3.74,3.74,-3.74,-3.96,-4.25,2.13,2.13,2.13
66.01,5.93,5.92,3.82,3.81,-3.82,-4.01,-4.26,2.11,2.11,2.11
66.67,5.98,5.98,3.89,3.90,-3.90,-4.05,-4.26,2.08,2.08,2.08
67.33,6.05,6.04,3.98,3.98,-3.98,-4.10,-4.27,2.06,2.06,2.06
68.01,6.11,6.11,4.07,4.07,-4.07,-4.14,-4.27,2.03,2.04,2.03
68.69,6.18,6.18,4.17,4.17,-4.17,-4.19,-4.27,2.01,2.01,2.01
69.37,6.25,6.25,4.27,4.26,-4.26,-4.23,-4.27,1.99,1.98,1.98
70.07,6.32,6.32,4.36,4.36,-4.36,-4.27,-4.26,1.95,1.96,1.96
70.77,6.40,6.40,4.46,4.47,-4.47,-4.32,-4.26,1.93,1.93,1.93
71.48,6.48,6.48,4.58,4.57,-4.58,-4.36,-4.25,1.90,1.90,1.90
72.19,6.56,6.56,4.68,4.69,-4.69,-4.40,-4.25,1.87,1.87,1.87
72.91,6.64,6.64,4.80,4.80,-4.81,-4.45,-4.24,1.83,1.84,1.84
73.64,6.73,6.73,4.93,4.92,-4.92,-4.49,-4.24,1.80,1.80,1.80
74.38,6.81,6.81,5.03,5.04,-5.04,-4.53,-4.23,1.76,1.77,1.77
75.12,6.90,6.90,5.17,5.17,-5.17,-4.57,-4.23,1.73,1.73,1.72
75.87,6.98,6.98,5.28,5.28,-5.29,-4.61,-4.22,1.69,1.70,1.69
76.63,7.07,7.07,5.40,5.41,-5.41,-4.66,-4.22,1.66,1.66,1.66
77.40,7.15,7.15,5.52,5.52,-5.52,-4.70,-4.22,1.62,1.62,1.62
78.17,7.22,7.22,5.65,5.64,-5.64,-4.74,-4.22,1.58,1.58,1.57
78.95,7.29,7.29,5.74,5.74,-5.74,-4.78,-4.23,1.54,1.54,1.55
79.74,7.35,7.35,5.84,5.85,-5.85,-4.82,-4.23,1.50,1.50,1.51
80.54,7.41,7.40,5.95,5.94,-5.94,-4.86,-4.24,1.47,1.46,1.46
81.35,7.45,7.45,6.03,6.03,-6.03,-4.90,-4.25,1.42,1.42,1.42
82.16,7.48,7.48,6.11,6.10,-6.10,-4.94,-4.27,1.37,1.37,1.37
82.98,7.50,7.50,6.16,6.17,-6.17,-4.98,-4.28,1.33,1.33,1.34
83.81,7.51,7.51,6.23,6.23,-6.22,-5.01,-4.30,1.28,1.28,1.28
84.65,7.51,7.50,6.28,6.27,-6.27,-5.05,-4.33,1.24,1.24,1.23
85.50,7.49,7.49,6.30,6.30,-6.30,-5.09,-4.35,1.19,1.19,1.19
86.35,7.46,7.46,6.32,6.32,-6.31,-5.13,-4.38,1.14,1.15,1.14
87.22,7.42,7.41,6.33,6.32,-6.32,-5.16,-4.42,1.10,1.10,1.09
88.09,7.36,7.36,6.32,6.31,-6.31,-5.20,-4.45,1.05,1.05,1.04
88.97,7.29,7.29,6.29,6.29,-6.29,-5.23,-4.50,1.00,1.00,1.00
89.86,7.21,7.21,6.26,6.26,-6.26,-5.27,-4.54,0.95,0.95,0.95
90.76,7.12,7.12,6.23,6.22,-6.22,-5.30,-4.59,0.90,0.90,0.89
91.66,7.02,7.02,6.17,6.18,-6.18,-5.34,-4.64,0.84,0.84,0.84
92.58,6.92,6.92,6.14,6.13,-6.12,-5.37,-4.69,0.79,0.79,0.78
93.51,6.81,6.81,6.06,6.07,-6.07,-5.40,-4.75,0.74,0.74,0.75
94.44,6.70,6.70,6.00,6.01,-6.01,-5.43,-4.81,0.69,0.69,0.69
95.39,6.59,6.59,5.95,5.95,-5.95,-5.46,-4.87,0.64,0.63,0.64
96.34,6.47,6.47,5.89,5.89,-5.89,-5.49,-4.94,0.57,0.58,0.58
97.30,6.36,6.35,5.84,5.83,-5.83,-5.52,-5.01,0.52,0.52,0.52
98.28,6.24,6.24,5.77,5.78,-5.78,-5.55,-5.08,0.46,0.46,0.46
99.26,6.13,6.13,5.73,5.72,-5.72,-5.58,-5.15,0.40,0.40,0.40
100.25,6.02,6.02,5.67,5.67,-5.67,-5.61,-5.23,0.34,0.34,0.34
101.25,5.91,5.91,5.62,5.62,-5.63,-5.63,-5.31,0.28,0.28,0.29
102.27,5.80,5.80,5.58,5.58,-5.58,-5.66,-5.39,0.22,0.22,0.22
103.29,5.70,5.70,5.54,5.54,-5.54,-5.69,-5.47,0.16,0.16,0.15
104.32,5.61,5.60,5.51,5.50,-5.50,-5.71,-5.55,0.10,0.10,0.10
105.37,5.51,5.51,5.47,5.47,-5.47,-5.73,-5.63,0.04,0.04,0.04
106.42,5.42,5.42,5.44,5.44,-5.44,-5.75,-5.71,-0.03,-0.03,-0.02
107.48,5.33,5.33,5.42,5.42,-5.42,-5.78,-5.79,-0.09,-0.09,-0.09
108.56,5.25,5.25,5.40,5.40,-5.40,-5.80,-5.87,-0.15,-0.15,-0.16
109.64,5.17,5.17,5.39,5.38,-5.39,-5.82,-5.95,-0.22,-0.22,-0.22
110.74,5.09,5.09,5.37,5.37,-5.38,-5.83,-6.03,-0.29,-0.29,-0.28
111.85,5.02,5.02,5.36,5.37,-5.37,-5.85,-6.10,-0.35,-0.35,-0.34
112.97,4.95,4.95,5.38,5.37,-5.37,-5.87,-6.17,-0.42,-0.42,-0.43
114.10,4.89,4.88,5.37,5.37,-5.37,-5.88,-6.24,-0.48,-0.49,-0.49
115.24,4.82,4.82,5.37,5.38,-5.37,-5.90,-6.30,-0.56,-0.55,-0.55
116.39,4.76,4.76,5.38,5.38,-5.38,-5.91,-6.36,-0.62,-0.62,-0.62
117.55,4.71,4.70,5.40,5.39,-5.39,-5.92,-6.40,-0.68,-0.69,-0.69
118.73,4.65,4.65,5.40,5.40,-5.40,-5.93,-6.45,-0.75,-0.75,-0.75
119.92,4.60,4.60,5.40,5.41,-5.41,-5.94,-6.48,-0.81,-0.81,-0.81
121.12,4.55,4.55,5.42,5.42,-5.42,-5.95,-6.51,-0.87,-0.87,-0.87
122.33,4.50,4.50,5.43,5.43,-5.43,-5.96,-6.53,-0.93,-0.93,-0.93
123.55,4.46,4.45,5.44,5.44,-5.44,-5.97,-6.55,-0.98,-0.99,-0.98
124.79,4.41,4.41,5.45,5.45,-5.45,-5.97,-6.55,-1.05,-1.04,-1.04
126.03,4.37,4.37,5.46,5.47,-5.47,-5.98,-6.55,-1.10,-1.10,-1.09
127.29,4.33,4.33,5.48,5.49,-5.48,-5.98,-6.53,-1.16,-1.16,-1.15
128.57,4.29,4.29,5.51,5.50,-5.50,-5.98,-6.51,-1.21,-1.21,-1.22
129.85,4.25,4.25,5.52,5.52,-5.52,-5.99,-6.48,-1.27,-1.27,-1.27
131.15,4.21,4.21,5.53,5.53,-5.53,-5.99,-6.45,-1.32,-1.32,-1.32
132.46,4.17,4.17,5.55,5.54,-5.54,-5.98,-6.40,-1.38,-1.37,-1.38
133.79,4.14,4.14,5.55,5.56,-5.56,-5.98,-6.35,-1.42,-1.42,-1.41
135.12,4.11,4.10,5.58,5.57,-5.57,-5.98,-6.29,-1.46,-1.47,-1.47
136.48,4.07,4.07,5.57,5.58,-5.58,-5.97,-6.23,-1.51,-1.51,-1.51
137.84,4.04,4.04,5.58,5.59,-5.59,-5.97,-6.16,-1.55,-1.55,-1.54
139.22,4.01,4.01,5.60,5.60,-5.59,-5.96,-6.09,-1.58,-1.59,-1.59
140.61,3.98,3.98,5.61,5.60,-5.60,-5.95,-6.02,-1.62,-1.62,-1.64
142.02,3.95,3.95,5.60,5.60,-5.60,-5.94,-5.94,-1.65,-1.66,-1.65
143.44,3.92,3.92,5.60,5.60,-5.61,-5.93,-5.86,-1.69,-1.69,-1.68
144.87,3.89,3.89,5.61,5.60,-5.61,-5.92,-5.77,-1.72,-1.72,-1.72
146.32,3.87,3.86,5.62,5.61,-5.61,-5.91,-5.69,-1.74,-1.74,-1.75
147.78,3.84,3.84,5.61,5.61,-5.61,-5.89,-5.60,-1.77,-1.77,-1.77
149.26,3.81,3.81,5.60,5.61,-5.61,-5.88,-5.52,-1.80,-1.80,-1.80
150.75,3.78,3.78,5.61,5.61,-5.61,-5.86,-5.43,-1.83,-1.83,-1.83
152.26,3.76,3.75,5.62,5.61,-5.61,-5.84,-5.35,-1.85,-1.86,-1.86
153.78,3.73,3.73,5.61,5.61,-5.61,-5.83,-5.26,-1.88,-1.88,-1.88
155.32,3.70,3.70,5.61,5.61,-5.61,-5.81,-5.18,-1.91,-1.91,-1.91
156.88,3.67,3.67,5.60,5.60,-5.61,-5.79,-5.10,-1.94,-1.94,-1.93
158.44,3.64,3.64,5.60,5.61,-5.60,-5.76,-5.02,-1.97,-1.97,-1.97
160.03,3.61,3.61,5.61,5.61,-5.60,-5.74,-4.95,-1.99,-1.99,-2.00
161.63,3.58,3.58,5.61,5.60,-5.60,-5.71,-4.87,-2.02,-2.02,-2.03
163.24,3.54,3.54,5.59,5.59,-5.59,-5.69,-4.80,-2.05,-2.05,-2.05
164.88,3.51,3.51,5.58,5.58,-5.58,-5.66,-4.73,-2.08,-2.08,-2.07
166.53,3.47,3.47,5.57,5.57,-5.58,-5.63,-4.67,-2.11,-2.11,-2.10
168.19,3.44,3.44,5.58,5.57,-5.57,-5.60,-4.61,-2.13,-2.13,-2.14
169.87,3.40,3.40,5.56,5.56,-5.56,-5.58,-4.55,-2.16,-2.16,-2.17
171.57,3.36,3.36,5.55,5.55,-5.55,-5.54,-4.49,-2.19,-2.19,-2.19
173.29,3.32,3.32,5.54,5.54,-5.54,-5.51,-4.44,-2.22,-2.23,-2.22
175.02,3.27,3.27,5.52,5.53,-5.53,-5.48,-4.39,-2.26,-2.26,-2.25
176.77,3.23,3.23,5.53,5.52,-5.52,-5.44,-4.34,-2.29,-2.30,-2.30
178.54,3.18,3.18,5.51,5.51,-5.51,-5.41,-4.30,-2.33,-2.33,-2.33
180.32,3.13,3.13,5.49,5.50,-5.50,-5.37,-4.26,-2.37,-2.37,-2.37
182.13,3.08,3.08,5.48,5.48,-5.48,-5.33,-4.23,-2.40,-2.40,-2.40
183.95,3.03,3.02,5.47,5.46,-5.46,-5.29,-4.19,-2.44,-2.44,-2.44
185.79,2.97,2.97,5.44,5.44,-5.44,-5.25,-4.17,-2.47,-2.47,-2.47
187.65,2.91,2.91,5.42,5.42,-5.41,-5.21,-4.14,-2.51,-2.50,-2.51
189.52,2.85,2.85,5.39,5.39,-5.39,-5.17,-4.12,-2.54,-2.54,-2.54
191.42,2.79,2.78,5.36,5.36,-5.35,-5.13,-4.09,-2.57,-2.57,-2.57
193.33,2.72,2.72,5.31,5.31,-5.32,-5.08,-4.08,-2.60,-2.60,-2.59
195.27,2.65,2.65,5.27,5.27,-5.28,-5.04,-4.06,-2.63,-2.63,-2.62
197.22,2.58,2.58,5.23,5.23,-5.23,-4.99,-4.05,-2.66,-2.66,-2.65
199.19,2.51,2.51,5.20,5.19,-5.19,-4.94,-4.04,-2.68,-2.68,-2.69
201.18,2.44,2.44,5.15,5.15,-5.14,-4.89,-4.03,-2.70,-2.70,-2.71
203.19,2.37,2.37,5.09,5.10,-5.09,-4.84,-4.02,-2.73,-2.73,-2.73
205.23,2.29,2.29,5.04,5.04,-5.04,-4.79,-4.02,-2.75,-2.75,-2.75
207.28,2.22,2.22,4.98,4.98,-4.99,-4.74,-4.02,-2.77,-2.77,-2.76
209.35,2.14,2.14,4.93,4.93,-4.93,-4.68,-4.01,-2.80,-2.79,-2.79
211.44,2.07,2.07,4.88,4.88,-4.88,-4.63,-4.01,-2.81,-2.81,-2.82
213.56,1.99,1.99,4.82,4.82,-4.82,-4.57,-4.01,-2.83,-2.83,-2.83
215.69,1.92,1.92,4.75,4.75,-4.76,-4.52,-4.01,-2.84,-2.84,-2.83
217.85,1.84,1.84,4.68,4.69,-4.69,-4.46,-4.01,-2.86,-2.85,-2.85
220.03,1.77,1.76,4.64,4.63,-4.63,-4.40,-4.01,-2.86,-2.86,-2.87
222.23,1.69,1.69,4.57,4.56,-4.56,-4.34,-4.01,-2.87,-2.87,-2.88
224.45,1.61,1.61,4.48,4.49,-4.49,-4.28,-4.01,-2.88,-2.88,-2.87
226.70,1.54,1.53,4.42,4.42,-4.42,-4.22,-4.00,-2.88,-2.88,-2.88
228.96,1.46,1.46,4.34,4.34,-4.34,-4.15,-3.99,-2.88,-2.88,-2.88
231.25,1.39,1.38,4.26,4.26,-4.26,-4.09,-3.98,-2.87,-2.88,-2.87
233.57,1.31,1.31,4.17,4.18,-4.18,-4.02,-3.97,-2.87,-2.87,-2.86
235.90,1.23,1.23,4.09,4.10,-4.10,-3.95,-3.96,-2.87,-2.86,-2.86
238.26,1.16,1.15,4.02,4.01,-4.01,-3.89,-3.94,-2.85,-2.86,-2.86
240.64,1.08,1.08,3.92,3.92,-3.92,-3.82,-3.92,-2.84,-2.84,-2.84
243.05,1.00,1.00,3.83,3.83,-3.83,-3.75,-3.90,-2.83,-2.83,-2.83
245.48,0.93,0.92,3.74,3.74,-3.74,-3.67,-3.87,-2.81,-2.81,-2.81
247.93,0.85,0.85,3.65,3.65,-3.64,-3.60,-3.83,-2.80,-2.80,-2.80
250.41,0.77,0.77,3.55,3.55,-3.55,-3.52,-3.80,-2.78,-2.78,-2.79
252.92,0.70,0.69,3.45,3.45,-3.45,-3.45,-3.76,-2.76,-2.76,-2.75
255.45,0.62,0.62,3.35,3.35,-3.36,-3.37,-3.71,-2.74,-2.74,-2.73
258.00,0.55,0.55,3.26,3.26,-3.26,-3.29,-3.66,-2.71,-2.71,-2.71
260.58,0.47,0.47,3.16,3.16,-3.16,-3.21,-3.61,-2.69,-2.69,-2.69
263.19,0.40,0.40,3.07,3.07,-3.06,-3.13,-3.55,-2.66,-2.67,-2.67
265.82,0.32,0.32,2.96,2.97,-2.96,-3.04,-3.49,-2.65,-2.64,-2.65
268.48,0.25,0.25,2.87,2.87,-2.87,-2.96,-3.42,-2.62,-2.62,-2.62
271.16,0.17,0.17,2.76,2.76,-2.77,-2.87,-3.35,-2.60,-2.60,-2.59
273.87,0.10,0.09,2.67,2.66,-2.67,-2.79,-3.28,-2.57,-2.57,-2.57
276.61,0.02,0.02,2.56,2.57,-2.57,-2.70,-3.21,-2.55,-2.55,-2.54
279.38,-0.05,-0.05,2.47,2.47,-2.47,-2.61,-3.13,-2.52,-2.52,-2.53
282.17,-0.12,-0.13,2.38,2.37,-2.37,-2.51,-3.05,-2.49,-2.50,-2.50
284.99,-0.20,-0.20,2.27,2.28,-2.27,-2.42,-2.97,-2.48,-2.47,-2.48
287.84,-0.27,-0.28,2.18,2.17,-2.17,-2.33,-2.89,-2.45,-2.45,-2.45
290.72,-0.35,-0.35,2.06,2.07,-2.07,-2.23,-2.80,-2.43,-2.42,-2.41
293.63,-0.42,-0.42,1.98,1.97,-1.97,-2.13,-2.72,-2.39,-2.39,-2.40
296.57,-0.49,-0.50,1.87,1.87,-1.87,-2.03,-2.63,-2.36,-2.37,-2.36
299.53,-0.57,-0.57,1.77,1.77,-1.76,-1.93,-2.54,-2.34,-2.33,-2.34
302.53,-0.64,-0.64,1.67,1.66,-1.66,-1.83,-2.46,-2.30,-2.30,-2.31
305.55,-0.71,-0.72,1.55,1.56,-1.55,-1.73,-2.37,-2.27,-2.27,-2.27
308.61,-0.79,-0.79,1.45,1.45,-1.45,-1.63,-2.28,-2.24,-2.24,-2.24
311.69,-0.86,-0.86,1.34,1.34,-1.34,-1.53,-2.19,-2.21,-2.21,-2.20
314.81,-0.93,-0.93,1.23,1.24,-1.24,-1.42,-2.10,-2.17,-2.17,-2.17
317.96,-1.00,-1.00,1.14,1.14,-1.14,-1.32,-2.01,-2.14,-2.14,-2.14
321.14,-1.07,-1.07,1.04,1.04,-1.04,-1.21,-1.92,-2.11,-2.11,-2.11
324.35,-1.14,-1.14,0.94,0.94,-0.94,-1.11,-1.84,-2.08,-2.08,-2.09
327.59,-1.21,-1.21,0.84,0.84,-0.84,-1.01,-1.75,-2.06,-2.05,-2.05
330.87,-1.27,-1.28,0.75,0.75,-0.75,-0.90,-1.66,-2.02,-2.03,-2.02
334.18,-1.34,-1.34,0.66,0.66,-0.66,-0.80,-1.58,-2.00,-2.00,-2.00
337.52,-1.40,-1.40,0.57,0.57,-0.57,-0.70,-1.49,-1.98,-1.98,-1.98
340.90,-1.46,-1.46,0.49,0.49,-0.49,-0.60,-1.41,-1.95,-1.95,-1.95
344.30,-1.52,-1.52,0.41,0.41,-0.41,-0.50,-1.33,-1.93,-1.93,-1.93
347.75,-1.57,-1.58,0.33,0.33,-0.33,-0.40,-1.24,-1.90,-1.91,-1.90
351.23,-1.63,-1.63,0.25,0.26,-0.26,-0.31,-1.16,-1.89,-1.89,-1.89
354.74,-1.68,-1.68,0.19,0.19,-0.18,-0.22,-1.08,-1.87,-1.86,-1.87
358.28,-1.73,-1.73,0.12,0.11,-0.11,-0.13,-1.00,-1.85,-1.85,-1.85
361.87,-1.78,-1.78,0.05,0.05,-0.05,-0.04,-0.92,-1.83,-1.83,-1.83
365.49,-1.83,-1.83,-0.03,-0.02,0.02,0.04,-0.84,-1.82,-1.81,-1.80
369.14,-1.87,-1.87,-0.08,-0.08,0.08,0.11,-0.76,-1.80,-1.80,-1.80
372.83,-1.90,-1.91,-0.12,-0.13,0.13,0.19,-0.69,-1.77,-1.78,-1.78
376.56,-1.94,-1.94,-0.18,-0.18,0.19,0.25,-0.61,-1.76,-1.76,-1.76
380.33,-1.97,-1.97,-0.24,-0.23,0.23,0.31,-0.53,-1.74,-1.73,-1.73
384.13,-1.99,-1.99,-0.28,-0.28,0.28,0.37,-0.46,-1.71,-1.72,-1.71
387.97,-2.01,-2.01,-0.32,-0.32,0.32,0.42,-0.39,-1.69,-1.69,-1.69
391.85,-2.03,-2.03,-0.36,-0.36,0.36,0.47,-0.31,-1.68,-1.67,-1.68
395.77,-2.04,-2.04,-0.39,-0.39,0.39,0.51,-0.24,-1.65,-1.65,-1.65
399.73,-2.05,-2.05,-0.42,-0.42,0.42,0.54,-0.17,-1.63,-1.63,-1.63
403.72,-2.05,-2.05,-0.44,-0.44,0.45,0.57,-0.10,-1.61,-1.61,-1.61
407.76,-2.05,-2.05,-0.46,-0.47,0.47,0.59,-0.03,-1.58,-1.59,-1.59
411.84,-2.05,-2.05,-0.49,-0.49,0.49,0.61,0.04,-1.57,-1.57,-1.56
415.96,-2.05,-2.05,-0.51,-0.50,0.50,0.62,0.10,-1.55,-1.55,-1.54
420.12,-2.04,-2.04,-0.52,-0.52,0.52,0.63,0.17,-1.53,-1.53,-1.53
424.32,-2.02,-2.03,-0.53,-0.53,0.53,0.63,0.23,-1.50,-1.50,-1.50
428.56,-2.01,-2.01,-0.53,-0.53,0.53,0.63,0.29,-1.48,-1.48,-1.48
432.85,-1.99,-1.99,-0.53,-0.54,0.54,0.63,0.36,-1.45,-1.46,-1.46
437.18,-1.97,-1.97,-0.54,-0.54,0.54,0.62,0.41,-1.43,-1.43,-1.43
441.55,-1.95,-1.95,-0.55,-0.54,0.55,0.61,0.47,-1.41,-1.40,-1.40
445.96,-1.92,-1.93,-0.54,-0.55,0.55,0.59,0.53,-1.37,-1.38,-1.38
450.42,-1.90,-1.90,-0.54,-0.55,0.55,0.58,0.58,-1.35,-1.35,-1.36
454.93,-1.88,-1.88,-0.56,-0.55,0.56,0.56,0.63,-1.33,-1.32,-1.32
459.48,-1.86,-1.86,-0.56,-0.56,0.56,0.54,0.68,-1.30,-1.30,-1.30
464.07,-1.83,-1.84,-0.56,-0.57,0.56,0.51,0.72,-1.27,-1.28,-1.27
468.71,-1.81,-1.81,-0.58,-0.57,0.56,0.49,0.76,-1.25,-1.25,-1.24
473.40,-1.78,-1.78,-0.57,-0.56,0.56,0.47,0.80,-1.22,-1.22,-1.22
478.13,-1.74,-1.75,-0.55,-0.56,0.56,0.44,0.84,-1.18,-1.19,-1.19
482.91,-1.71,-1.71,-0.55,-0.56,0.56,0.42,0.87,-1.16,-1.16,-1.16
487.74,-1.68,-1.68,-0.55,-0.55,0.55,0.39,0.90,-1.13,-1.13,-1.13
492.62,-1.64,-1.64,-0.54,-0.54,0.54,0.37,0.93,-1.10,-1.10,-1.10
497.55,-1.60,-1.61,-0.52,-0.53,0.53,0.34,0.95,-1.07,-1.07,-1.08
