frequency,raw,smoothed,error,error_smoothed,equalization,parametric_eq,fixed_band_eq,equalized_raw,equalized_smoothed,target
20.00,4.06,4.06,-0.26,-0.26,0.26,0.21,-0.06,4.32,4.32,4.31
20.20,4.09,4.09,-0.26,-0.26,0.26,0.20,-0.06,4.34,4.34,4.34
20.40,4.12,4.12,-0.26,-0.25,0.25,0.20,-0.06,4.37,4.37,4.37
20.61,4.15,4.15,-0.25,-0.25,0.24,0.19,-0.06,4.39,4.40,4.39
20.81,4.19,4.19,-0.23,-0.24,0.24,0.18,-0.06,4.42,4.42,4.42
21.02,4.22,4.22,-0.23,-0.23,0.23,0.18,-0.07,4.44,4.44,4.45
21.23,4.25,4.25,-0.21,-0.22,0.21,0.17,-0.07,4.46,4.46,4.46
21.44,4.27,4.27,-0.20,-0.20,0.20,0.17,-0.07,4.47,4.47,4.47
21.66,4.30,4.30,-0.18,-0.18,0.18,0.16,-0.07,4.48,4.48,4.48
21.87,4.33,4.32,-0.15,-0.16,0.16,0.15,-0.07,4.49,4.49,4.48
22.09,4.35,4.35,-0.14,-0.14,0.14,0.14,-0.07,4.49,4.49,4.49
22.31,4.37,4.37,-0.12,-0.12,0.12,0.14,-0.07,4.49,4.49,4.49
22.54,4.39,4.39,-0.10,-0.10,0.10,0.13,-0.07,4.48,4.48,4.49
22.76,4.41,4.41,-0.08,-0.08,0.08,0.12,-0.07,4.48,4.48,4.49
22.99,4.43,4.43,-0.05,-0.05,0.06,0.11,-0.07,4.48,4.48,4.48
23.22,4.45,4.44,-0.03,-0.03,0.04,0.10,-0.07,4.48,4.48,4.48
23.45,4.46,4.46,-0.02,-0.01,0.02,0.09,-0.07,4.47,4.48,4.47
23.69,4.48,4.48,0.00,0.00,-0.00,0.08,-0.07,4.47,4.47,4.47
23.92,4.50,4.50,0.02,0.02,-0.02,0.07,-0.07,4.47,4.47,4.47
24.16,4.52,4.52,0.04,0.04,-0.04,0.06,-0.07,4.48,4.47,4.48
24.40,4.54,4.54,0.06,0.06,-0.06,0.05,-0.07,4.48,4.48,4.48
24.65,4.56,4.56,0.09,0.08,-0.08,0.04,-0.07,4.47,4.47,4.47
24.89,4.58,4.58,0.11,0.11,-0.11,0.03,-0.07,4.47,4.47,4.47
25.14,4.60,4.60,0.13,0.13,-0.13,0.02,-0.07,4.47,4.47,4.47
25.39,4.62,4.62,0.15,0.15,-0.15,0.01,-0.07,4.47,4.47,4.47
25.65,4.64,4.64,0.17,0.17,-0.18,-0.01,-0.07,4.46,4.46,4.47
25.91,4.66,4.66,0.20,0.20,-0.20,-0.02,-0.08,4.46,4.46,4.46
26.16,4.68,4.68,0.22,0.22,-0.22,-0.03,-0.08,4.46,4.46,4.45
26.43,4.70,4.69,0.24,0.24,-0.24,-0.05,-0.08,4.46,4.46,4.45
26.69,4.71,4.71,0.26,0.26,-0.26,-0.06,-0.08,4.45,4.45,4.45
26.96,4.73,4.73,0.28,0.28,-0.28,-0.07,-0.09,4.45,4.45,4.45
27.23,4.75,4.74,0.30,0.30,-0.30,-0.09,-0.09,4.45,4.45,4.45
27.50,4.76,4.76,0.31,0.32,-0.32,-0.10,-0.09,4.44,4.44,4.45
27.77,4.78,4.78,0.34,0.34,-0.33,-0.12,-0.10,4.44,4.44,4.44
28.05,4.79,4.79,0.35,0.35,-0.35,-0.13,-0.10,4.44,4.44,4.44
28.33,4.80,4.80,0.37,0.37,-0.37,-0.15,-0.11,4.43,4.43,4.42
28.62,4.81,4.81,0.39,0.39,-0.38,-0.16,-0.11,4.42,4.42,4.42
28.90,4.82,4.82,0.40,0.40,-0.40,-0.18,-0.12,4.42,4.42,4.42
29.19,4.83,4.83,0.42,0.41,-0.41,-0.20,-0.13,4.41,4.41,4.41
29.48,4.84,4.84,0.42,0.43,-0.43,-0.22,-0.14,4.41,4.41,4.42
29.78,4.85,4.85,0.44,0.44,-0.44,-0.23,-0.15,4.41,4.41,4.41
30.08,4.85,4.85,0.44,0.45,-0.45,-0.25,-0.16,4.40,4.40,4.40
30.38,4.86,4.86,0.47,0.46,-0.46,-0.27,-0.17,4.40,4.40,4.39
30.68,4.86,4.86,0.47,0.47,-0.47,-0.29,-0.18,4.39,4.39,4.39
30.99,4.86,4.86,0.48,0.48,-0.48,-0.31,-0.19,4.38,4.38,4.38
31.30,4.86,4.86,0.48,0.48,-0.48,-0.33,-0.21,4.37,4.37,4.38
31.61,4.86,4.86,0.48,0.49,-0.49,-0.35,-0.22,4.37,4.37,4.37
31.93,4.86,4.86,0.50,0.50,-0.50,-0.37,-0.24,4.36,4.36,4.36
32.24,4.86,4.86,0.51,0.50,-0.50,-0.39,-0.26,4.35,4.35,4.35
32.57,4.86,4.86,0.51,0.51,-0.51,-0.41,-0.28,4.35,4.35,4.35
32.89,4.86,4.86,0.51,0.52,-0.52,-0.43,-0.29,4.34,4.34,4.34
33.22,4.86,4.86,0.53,0.52,-0.52,-0.45,-0.31,4.33,4.33,4.33
33.55,4.86,4.86,0.53,0.53,-0.53,-0.48,-0.34,4.33,4.33,4.33
33.89,4.86,4.86,0.54,0.54,-0.54,-0.50,-0.36,4.32,4.32,4.32
34.23,4.86,4.86,0.55,0.55,-0.55,-0.52,-0.38,4.31,4.31,4.31
34.57,4.86,4.86,0.56,0.56,-0.56,-0.55,-0.41,4.30,4.30,4.30
34.92,4.86,4.86,0.57,0.57,-0.57,-0.57,-0.43,4.29,4.29,4.29
35.27,4.87,4.86,0.59,0.59,-0.59,-0.59,-0.46,4.28,4.28,4.28
35.62,4.87,4.87,0.60,0.60,-0.60,-0.62,-0.48,4.27,4.27,4.27
35.97,4.88,4.87,0.62,0.62,-0.62,-0.65,-0.51,4.26,4.26,4.26
36.33,4.88,4.88,0.63,0.63,-0.63,-0.67,-0.54,4.25,4.25,4.25
36.70,4.89,4.89,0.65,0.65,-0.65,-0.70,-0.57,4.24,4.24,4.24
37.06,4.90,4.90,0.67,0.67,-0.67,-0.72,-0.60,4.23,4.23,4.22
37.43,4.91,4.91,0.69,0.69,-0.69,-0.75,-0.63,4.22,4.22,4.22
37.81,4.92,4.92,0.71,0.71,-0.71,-0.78,-0.67,4.20,4.20,4.21
38.19,4.93,4.93,0.74,0.73,-0.74,-0.81,-0.70,4.19,4.19,4.19
38.57,4.94,4.94,0.75,0.76,-0.76,-0.84,-0.73,4.18,4.18,4.19
38.95,4.96,4.95,0.79,0.78,-0.78,-0.86,-0.77,4.17,4.17,4.17
39.34,4.97,4.97,0.81,0.81,-0.81,-0.89,-0.80,4.16,4.16,4.16
39.74,4.98,4.98,0.84,0.84,-0.83,-0.92,-0.84,4.14,4.14,4.14
40.14,4.99,4.99,0.85,0.86,-0.86,-0.95,-0.88,4.13,4.13,4.14
40.54,5.01,5.00,0.89,0.88,-0.88,-0.99,-0.92,4.12,4.12,4.12
40.94,5.02,5.02,0.90,0.91,-0.91,-1.02,-0.95,4.11,4.11,4.11
41.35,5.04,5.04,0.94,0.93,-0.93,-1.05,-0.99,4.11,4.11,4.10
41.76,5.05,5.05,0.96,0.96,-0.95,-1.08,-1.04,4.10,4.09,4.09
42.18,5.06,5.06,0.97,0.98,-0.98,-1.11,-1.08,4.08,4.08,4.09
42.60,5.07,5.07,1.00,0.99,-1.00,-1.15,-1.12,4.07,4.07,4.07
43.03,5.08,5.08,1.02,1.02,-1.03,-1.18,-1.16,4.05,4.05,4.06
43.46,5.09,5.09,1.04,1.05,-1.05,-1.21,-1.21,4.03,4.04,4.04
43.90,5.11,5.10,1.09,1.08,-1.08,-1.25,-1.25,4.03,4.02,4.02
44.33,5.11,5.11,1.11,1.11,-1.11,-1.28,-1.30,4.00,4.00,4.00
44.78,5.12,5.12,1.14,1.14,-1.14,-1.32,-1.35,3.98,3.98,3.98
45.23,5.13,5.13,1.16,1.17,-1.16,-1.36,-1.40,3.96,3.96,3.96
45.68,5.14,5.14,1.19,1.19,-1.19,-1.39,-1.44,3.95,3.95,3.94
46.13,5.15,5.15,1.22,1.22,-1.21,-1.43,-1.50,3.93,3.93,3.92
46.60,5.16,5.15,1.24,1.24,-1.24,-1.47,-1.55,3.92,3.91,3.92
47.06,5.16,5.16,1.26,1.26,-1.27,-1.50,-1.60,3.89,3.90,3.90
47.53,5.17,5.17,1.29,1.29,-1.29,-1.54,-1.65,3.87,3.87,3.88
48.01,5.18,5.17,1.31,1.31,-1.32,-1.58,-1.70,3.86,3.85,3.87
48.49,5.18,5.18,1.34,1.35,-1.35,-1.62,-1.76,3.83,3.83,3.84
48.97,5.19,5.19,1.38,1.38,-1.38,-1.66,-1.81,3.81,3.81,3.80
49.46,5.20,5.19,1.43,1.42,-1.42,-1.70,-1.87,3.78,3.78,3.77
49.96,5.20,5.20,1.46,1.45,-1.45,-1.74,-1.93,3.75,3.75,3.74
50.46,5.21,5.21,1.48,1.48,-1.48,-1.78,-1.98,3.73,3.73,3.73
50.96,5.22,5.22,1.51,1.52,-1.52,-1.82,-2.04,3.70,3.70,3.71
51.47,5.23,5.23,1.55,1.55,-1.55,-1.87,-2.10,3.68,3.68,3.67
51.99,5.24,5.24,1.59,1.58,-1.58,-1.91,-2.15,3.66,3.66,3.65
52.51,5.25,5.25,1.61,1.62,-1.62,-1.95,-2.21,3.63,3.63,3.64
53.03,5.26,5.26,1.65,1.65,-1.65,-1.99,-2.27,3.61,3.61,3.61
53.56,5.27,5.27,1.68,1.68,-1.69,-2.04,-2.32,3.58,3.58,3.59
54.10,5.29,5.28,1.73,1.72,-1.73,-2.08,-2.38,3.56,3.56,3.56
54.64,5.30,5.30,1.76,1.77,-1.77,-2.13,-2.44,3.53,3.53,3.53
55.18,5.32,5.32,1.81,1.81,-1.81,-2.17,-2.49,3.51,3.51,3.51
55.74,5.34,5.34,1.86,1.85,-1.85,-2.22,-2.54,3.49,3.49,3.48
56.29,5.36,5.36,1.89,1.90,-1.89,-2.26,-2.59,3.46,3.46,3.46
56.86,5.38,5.38,1.94,1.94,-1.94,-2.31,-2.64,3.44,3.44,3.44
57.42,5.40,5.40,1.99,1.99,-1.98,-2.35,-2.69,3.42,3.42,3.41
58.00,5.42,5.42,2.03,2.03,-2.03,-2.40,-2.74,3.39,3.39,3.39
58.58,5.45,5.44,2.08,2.08,-2.08,-2.45,-2.78,3.37,3.37,3.37
59.16,5.47,5.47,2.12,2.12,-2.13,-2.49,-2.83,3.34,3.34,3.35
59.76,5.50,5.50,2.17,2.17,-2.18,-2.54,-2.87,3.32,3.32,3.33
60.35,5.53,5.53,2.23,2.23,-2.24,-2.59,-2.90,3.29,3.29,3.29
60.96,5.57,5.56,2.30,2.30,-2.30,-2.64,-2.94,3.27,3.26,3.27
61.57,5.60,5.60,2.37,2.37,-2.37,-2.68,-2.97,3.23,3.23,3.23
62.18,5.64,5.64,2.44,2.44,-2.43,-2.73,-3.00,3.20,3.20,3.20
62.80,5.68,5.68,2.51,2.51,-2.51,-2.78,-3.02,3.17,3.17,3.17
63.43,5.72,5.72,2.58,2.58,-2.58,-2.83,-3.05,3.14,3.14,3.14
64.07,5.77,5.77,2.66,2.66,-2.66,-2.88,-3.07,3.11,3.11,3.11
64.71,5.82,5.82,2.73,2.74,-2.73,-2.93,-3.09,3.08,3.08,3.08
65.35,5.87,5.87,2.81,2.81,-2.82,-2.98,-3.10,3.05,3.05,3.06
66.01,5.93,5.92,2.90,2.90,-2.90,-3.03,-3.11,3.03,3.03,3.03
66.67,5.98,5.98,2.98,2.98,-2.99,-3.08,-3.13,2.99,3.00,3.00
67.33,6.05,6.04,3.08,3.08,-3.08,-3.13,-3.13,2.97,2.97,2.97
68.01,6.11,6.11,3.17,3.17,-3.17,-3.18,-3.14,2.94,2.94,2.94
68.69,6.18,6.18,3.27,3.27,-3.27,-3.22,-3.15,2.91,2.91,2.91
69.37,6.25,6.25,3.37,3.37,-3.37,-3.27,-3.15,2.88,2.88,2.88
70.07,6.32,6.32,3.48,3.48,-3.48,-3.32,-3.16,2.84,2.84,2.84
70.77,6.40,6.40,3.58,3.58,-3.58,-3.37,-3.16,2.81,2.81,2.82
71.48,6.48,6.48,3.69,3.69,-3.70,-3.42,-3.16,2.78,2.78,2.78
72.19,6.56,6.56,3.81,3.81,-3.81,-3.47,-3.17,2.75,2.75,2.75
72.91,6.64,6.64,3.93,3.93,-3.93,-3.52,-3.17,2.71,2.71,2.71
73.64,6.73,6.73,4.05,4.05,-4.05,-3.57,-3.17,2.68,2.68,2.68
74.38,6.81,6.81,4.16,4.17,-4.17,-3.62,-3.17,2.64,2.64,2.65
75.12,6.90,6.90,4.29,4.28,-4.28,-3.67,-3.18,2.61,2.61,2.61
75.87,6.98,6.98,4.40,4.40,-4.40,-3.72,-3.18,2.58,2.58,2.58
76.63,7.07,7.07,4.52,4.52,-4.52,-3.76,-3.19,2.55,2.55,2.55
77.40,7.15,7.15,4.63,4.63,-4.63,-3.81,-3.20,2.52,2.52,2.52
78.17,7.22,7.22,4.74,4.74,-4.74,-3.86,-3.21,2.48,2.48,2.48
78.95,7.29,7.29,4.83,4.84,-4.84,-3.90,-3.22,2.45,2.45,2.45
79.74,7.35,7.35,4.93,4.93,-4.93,-3.95,-3.23,2.42,2.42,2.42
80.54,7.41,7.40,5.02,5.02,-5.02,-4.00,-3.25,2.39,2.39,2.39
81.35,7.45,7.45,5.10,5.09,-5.09,-4.04,-3.26,2.36,2.35,2.35
82.16,7.48,7.48,5.16,5.16,-5.16,-4.09,-3.28,2.32,2.32,2.32
82.98,7.50,7.50,5.21,5.22,-5.22,-4.13,-3.30,2.28,2.28,2.29
83.81,7.51,7.51,5.26,5.26,-5.26,-4.17,-3.33,2.25,2.25,2.24
84.65,7.51,7.50,5.30,5.29,-5.29,-4.22,-3.35,2.22,2.21,2.21
85.50,7.49,7.49,5.31,5.32,-5.31,-4.26,-3.38,2.18,2.18,2.18
86.35,7.46,7.46,5.32,5.32,-5.32,-4.30,-3.41,2.14,2.14,2.14
87.22,7.42,7.41,5.32,5.32,-5.31,-4.34,-3.45,2.11,2.10,2.10
88.09,7.36,7.36,5.30,5.30,-5.29,-4.38,-3.49,2.06,2.06,2.06
88.97,7.29,7.29,5.26,5.27,-5.26,-4.41,-3.53,2.02,2.02,2.03
89.86,7.21,7.21,5.22,5.22,-5.23,-4.45,-3.57,1.98,1.98,1.99
90.76,7.12,7.12,5.19,5.18,-5.18,-4.49,-3.61,1.94,1.94,1.93
91.66,7.02,7.02,5.12,5.12,-5.12,-4.52,-3.66,1.89,1.90,1.90
92.58,6.92,6.92,5.07,5.06,-5.06,-4.55,-3.71,1.85,1.85,1.85
93.51,6.81,6.81,4.99,5.00,-5.00,-4.59,-3.77,1.81,1.81,1.81
94.44,6.70,6.70,4.93,4.93,-4.93,-4.62,-3.82,1.76,1.76,1.77
95.39,6.59,6.59,4.86,4.86,-4.87,-4.65,-3.88,1.72,1.72,1.73
96.34,6.47,6.47,4.80,4.80,-4.80,-4.67,-3.94,1.67,1.67,1.67
97.30,6.36,6.35,4.73,4.73,-4.73,-4.70,-4.00,1.63,1.63,1.63
98.28,6.24,6.24,4.66,4.66,-4.66,-4.73,-4.07,1.58,1.58,1.58
99.26,6.13,6.13,4.59,4.59,-4.59,-4.75,-4.13,1.53,1.53,1.53
100.25,6.02,6.02,4.53,4.53,-4.53,-4.77,-4.20,1.49,1.49,1.49
101.25,5.91,5.91,4.46,4.47,-4.47,-4.79,-4.27,1.44,1.44,1.44
102.27,5.80,5.80,4.40,4.41,-4.41,-4.81,-4.34,1.39,1.39,1.40
103.29,5.70,5.70,4.36,4.35,-4.35,-4.83,-4.41,1.35,1.35,1.34
104.32,5.61,5.60,4.30,4.30,-4.30,-4.85,-4.48,1.31,1.30,1.30
105.37,5.51,5.51,4.25,4.25,-4.25,-4.86,-4.55,1.26,1.26,1.26
106.42,5.42,5.42,4.21,4.21,-4.21,-4.87,-4.62,1.21,1.21,1.21
107.48,5.33,5.33,4.16,4.17,-4.17,-4.88,-4.70,1.16,1.16,1.16
108.56,5.25,5.25,4.14,4.13,-4.13,-4.89,-4.76,1.11,1.11,1.11
109.64,5.17,5.17,4.10,4.10,-4.10,-4.90,-4.83,1.06,1.06,1.06
110.74,5.09,5.09,4.07,4.07,-4.08,-4.90,-4.90,1.01,1.01,1.02
111.85,5.02,5.02,4.05,4.05,-4.06,-4.91,-4.96,0.96,0.96,0.97
112.97,4.95,4.95,4.04,4.04,-4.04,-4.91,-5.02,0.91,0.91,0.91
114.10,4.89,4.88,4.03,4.02,-4.03,-4.91,-5.07,0.86,0.86,0.86
115.24,4.82,4.82,4.01,4.02,-4.02,-4.90,-5.12,0.80,0.81,0.81
116.39,4.76,4.76,4.01,4.01,-4.01,-4.90,-5.17,0.75,0.75,0.75
117.55,4.71,4.70,4.01,4.01,-4.00,-4.89,-5.21,0.70,0.70,0.70
118.73,4.65,4.65,4.00,4.00,-4.00,-4.89,-5.25,0.65,0.65,0.64
119.92,4.60,4.60,4.00,4.00,-4.00,-4.87,-5.28,0.60,0.60,0.60
121.12,4.55,4.55,4.00,4.00,-4.00,-4.86,-5.30,0.55,0.55,0.55
122.33,4.50,4.50,4.00,4.00,-4.00,-4.85,-5.31,0.50,0.50,0.49
123.55,4.46,4.45,4.00,4.00,-4.01,-4.83,-5.33,0.45,0.45,0.45
124.79,4.41,4.41,4.01,4.01,-4.01,-4.82,-5.32,0.40,0.40,0.40
126.03,4.37,4.37,4.02,4.02,-4.02,-4.80,-5.32,0.35,0.35,0.35
127.29,4.33,4.33,4.03,4.03,-4.03,-4.78,-5.31,0.30,0.30,0.30
128.57,4.29,4.29,4.05,4.04,-4.04,-4.75,-5.29,0.25,0.25,0.24
129.85,4.25,4.25,4.05,4.05,-4.05,-4.73,-5.26,0.20,0.20,0.19
131.15,4.21,4.21,4.06,4.06,-4.06,-4.71,-5.23,0.15,0.15,0.15
132.46,4.17,4.17,4.07,4.07,-4.07,-4.68,-5.19,0.10,0.10,0.10
133.79,4.14,4.14,4.08,4.08,-4.08,-4.65,-5.14,0.05,0.05,0.06
135.12,4.11,4.10,4.10,4.09,-4.10,-4.62,-5.09,0.01,0.01,0.01
136.48,4.07,4.07,4.10,4.10,-4.11,-4.59,-5.04,-0.04,-0.03,-0.03
137.84,4.04,4.04,4.11,4.12,-4.12,-4.55,-4.97,-0.08,-0.08,-0.07
139.22,4.01,4.01,4.14,4.13,-4.13,-4.52,-4.91,-0.12,-0.12,-0.13
140.61,3.98,3.98,4.15,4.14,-4.14,-4.48,-4.84,-0.16,-0.16,-0.17
142.02,3.95,3.95,4.14,4.15,-4.15,-4.45,-4.77,-0.20,-0.20,-0.19
143.44,3.92,3.92,4.15,4.15,-4.16,-4.41,-4.70,-0.24,-0.24,-0.23
144.87,3.89,3.89,4.16,4.16,-4.17,-4.37,-4.62,-0.28,-0.27,-0.27
146.32,3.87,3.86,4.18,4.17,-4.17,-4.33,-4.54,-0.31,-0.31,-0.31
147.78,3.84,3.84,4.18,4.18,-4.18,-4.29,-4.47,-0.35,-0.35,-0.34
149.26,3.81,3.81,4.19,4.19,-4.19,-4.24,-4.39,-0.39,-0.39,-0.38
150.75,3.78,3.78,4.21,4.20,-4.20,-4.20,-4.31,-0.43,-0.42,-0.43
152.26,3.76,3.75,4.22,4.22,-4.22,-4.16,-4.23,-0.46,-0.46,-0.46
153.78,3.73,3.73,4.23,4.23,-4.23,-4.11,-4.15,-0.50,-0.50,-0.50
155.32,3.70,3.70,4.24,4.24,-4.24,-4.07,-4.07,-0.54,-0.54,-0.54
156.88,3.67,3.67,4.25,4.25,-4.25,-4.02,-4.00,-0.58,-0.58,-0.58
158.44,3.64,3.64,4.26,4.26,-4.26,-3.97,-3.92,-0.62,-0.62,-0.62
160.03,3.61,3.61,4.27,4.27,-4.27,-3.93,-3.85,-0.66,-0.66,-0.66
161.63,3.58,3.58,4.28,4.28,-4.28,-3.88,-3.78,-0.70,-0.70,-0.70
163.24,3.54,3.54,4.28,4.28,-4.28,-3.83,-3.71,-0.74,-0.74,-0.75
164.88,3.51,3.51,4.28,4.28,-4.29,-3.78,-3.64,-0.78,-0.78,-0.78
166.53,3.47,3.47,4.28,4.29,-4.29,-3.73,-3.58,-0.82,-0.82,-0.81
168.19,3.44,3.44,4.29,4.29,-4.29,-3.68,-3.51,-0.85,-0.85,-0.85
169.87,3.40,3.40,4.29,4.29,-4.29,-3.63,-3.45,-0.89,-0.89,-0.89
171.57,3.36,3.36,4.29,4.28,-4.28,-3.58,-3.40,-0.93,-0.93,-0.93
173.29,3.32,3.32,4.28,4.28,-4.28,-3.53,-3.34,-0.96,-0.97,-0.96
175.02,3.27,3.27,4.27,4.27,-4.28,-3.48,-3.29,-1.01,-1.00,-1.00
176.77,3.23,3.23,4.27,4.27,-4.27,-3.42,-3.23,-1.04,-1.04,-1.04
178.54,3.18,3.18,4.27,4.26,-4.26,-3.37,-3.19,-1.08,-1.08,-1.09
180.32,3.13,3.13,4.25,4.25,-4.25,-3.32,-3.14,-1.12,-1.12,-1.12
182.13,3.08,3.08,4.23,4.24,-4.24,-3.27,-3.10,-1.16,-1.16,-1.15
183.95,3.03,3.02,4.22,4.22,-4.22,-3.22,-3.06,-1.19,-1.19,-1.20
185.79,2.97,2.97,4.19,4.20,-4.20,-3.16,-3.02,-1.23,-1.23,-1.23
187.65,2.91,2.91,4.18,4.17,-4.17,-3.11,-2.98,-1.26,-1.26,-1.27
189.52,2.85,2.85,4.15,4.15,-4.14,-3.06,-2.95,-1.30,-1.30,-1.30
191.42,2.79,2.78,4.11,4.11,-4.11,-3.01,-2.92,-1.32,-1.33,-1.33
193.33,2.72,2.72,4.07,4.07,-4.08,-2.96,-2.89,-1.36,-1.36,-1.36
195.27,2.65,2.65,4.03,4.03,-4.04,-2.90,-2.86,-1.39,-1.39,-1.38
197.22,2.58,2.58,3.99,3.99,-3.99,-2.85,-2.84,-1.42,-1.42,-1.41
199.19,2.51,2.51,3.96,3.95,-3.95,-2.80,-2.81,-1.44,-1.44,-1.45
201.18,2.44,2.44,3.90,3.90,-3.90,-2.75,-2.79,-1.46,-1.46,-1.47
203.19,2.37,2.37,3.85,3.85,-3.85,-2.70,-2.77,-1.48,-1.48,-1.48
205.23,2.29,2.29,3.80,3.79,-3.79,-2.65,-2.75,-1.51,-1.50,-1.51
207.28,2.22,2.22,3.73,3.74,-3.74,-2.59,-2.73,-1.52,-1.52,-1.51
209.35,2.14,2.14,3.67,3.68,-3.68,-2.54,-2.71,-1.54,-1.54,-1.54
211.44,2.07,2.07,3.63,3.62,-3.62,-2.49,-2.70,-1.55,-1.55,-1.56
213.56,1.99,1.99,3.55,3.55,-3.56,-2.44,-2.68,-1.57,-1.57,-1.56
215.69,1.92,1.92,3.49,3.49,-3.49,-2.39,-2.67,-1.57,-1.57,-1.57
217.85,1.84,1.84,3.42,3.42,-3.42,-2.34,-2.65,-1.59,-1.58,-1.58
220.03,1.77,1.76,3.36,3.36,-3.35,-2.29,-2.64,-1.59,-1.59,-1.59
222.23,1.69,1.69,3.29,3.29,-3.28,-2.24,-2.62,-1.60,-1.60,-1.61
224.45,1.61,1.61,3.20,3.21,-3.21,-2.19,-2.60,-1.60,-1.60,-1.60
226.70,1.54,1.53,3.14,3.13,-3.13,-2.14,-2.59,-1.60,-1.60,-1.60
228.96,1.46,1.46,3.06,3.05,-3.06,-2.09,-2.57,-1.60,-1.60,-1.60
231.25,1.39,1.38,2.98,2.98,-2.98,-2.04,-2.55,-1.59,-1.60,-1.59
233.57,1.31,1.31,2.90,2.90,-2.90,-1.99,-2.53,-1.59,-1.59,-1.59
235.90,1.23,1.23,2.82,2.82,-2.82,-1.94,-2.51,-1.59,-1.59,-1.59
238.26,1.16,1.15,2.75,2.74,-2.74,-1.89,-2.48,-1.58,-1.58,-1.59
240.64,1.08,1.08,2.65,2.66,-2.65,-1.84,-2.46,-1.58,-1.58,-1.58
243.05,1.00,1.00,2.56,2.57,-2.57,-1.79,-2.43,-1.57,-1.57,-1.57
245.48,0.93,0.92,2.48,2.48,-2.48,-1.74,-2.40,-1.55,-1.56,-1.55
247.93,0.85,0.85,2.39,2.39,-2.39,-1.69,-2.37,-1.55,-1.55,-1.54
250.41,0.77,0.77,2.31,2.30,-2.30,-1.65,-2.33,-1.54,-1.53,-1.54
252.92,0.70,0.69,2.22,2.21,-2.21,-1.60,-2.30,-1.51,-1.52,-1.52
255.45,0.62,0.62,2.11,2.12,-2.12,-1.55,-2.26,-1.50,-1.50,-1.50
258.00,0.55,0.55,2.03,2.03,-2.03,-1.50,-2.21,-1.48,-1.48,-1.48
260.58,0.47,0.47,1.94,1.94,-1.94,-1.45,-2.17,-1.47,-1.47,-1.47
263.19,0.40,0.40,1.84,1.85,-1.84,-1.40,-2.12,-1.44,-1.45,-1.45
265.82,0.32,0.32,1.75,1.75,-1.75,-1.35,-2.07,-1.43,-1.43,-1.43
268.48,0.25,0.25,1.66,1.65,-1.65,-1.30,-2.02,-1.41,-1.41,-1.41
271.16,0.17,0.17,1.55,1.56,-1.56,-1.25,-1.97,-1.39,-1.39,-1.38
273.87,0.10,0.09,1.47,1.46,-1.47,-1.20,-1.91,-1.37,-1.37,-1.37
276.61,0.02,0.02,1.36,1.37,-1.37,-1.15,-1.85,-1.35,-1.35,-1.34
279.38,-0.05,-0.05,1.28,1.28,-1.28,-1.09,-1.79,-1.33,-1.33,-1.33
282.17,-0.12,-0.13,1.19,1.19,-1.18,-1.04,-1.73,-1.31,-1.31,-1.32
284.99,-0.20,-0.20,1.09,1.09,-1.09,-0.99,-1.67,-1.29,-1.29,-1.29
287.84,-0.27,-0.28,1.00,1.00,-1.00,-0.94,-1.61,-1.27,-1.27,-1.27
290.72,-0.35,-0.35,0.90,0.90,-0.91,-0.88,-1.54,-1.26,-1.25,-1.25
293.63,-0.42,-0.42,0.81,0.81,-0.81,-0.83,-1.48,-1.23,-1.23,-1.23
296.57,-0.49,-0.50,0.72,0.72,-0.72,-0.77,-1.41,-1.21,-1.21,-1.21
299.53,-0.57,-0.57,0.62,0.62,-0.62,-0.71,-1.35,-1.19,-1.19,-1.19
302.53,-0.64,-0.64,0.53,0.53,-0.52,-0.65,-1.28,-1.17,-1.17,-1.18
305.55,-0.71,-0.72,0.43,0.43,-0.43,-0.59,-1.21,-1.14,-1.14,-1.14
308.61,-0.79,-0.79,0.33,0.33,-0.33,-0.53,-1.14,-1.12,-1.12,-1.12
311.69,-0.86,-0.86,0.23,0.23,-0.23,-0.47,-1.07,-1.10,-1.10,-1.10
314.81,-0.93,-0.93,0.13,0.13,-0.14,-0.41,-1.00,-1.07,-1.07,-1.06
317.96,-1.00,-1.00,0.04,0.04,-0.05,-0.34,-0.94,-1.05,-1.05,-1.04
321.14,-1.07,-1.07,-0.05,-0.05,0.05,-0.27,-0.87,-1.03,-1.03,-1.03
324.35,-1.14,-1.14,-0.13,-0.14,0.14,-0.20,-0.80,-1.01,-1.00,-1.01
327.59,-1.21,-1.21,-0.23,-0.22,0.22,-0.13,-0.73,-0.99,-0.99,-0.98
330.87,-1.27,-1.28,-0.31,-0.31,0.31,-0.05,-0.66,-0.96,-0.97,-0.97
334.18,-1.34,-1.34,-0.39,-0.39,0.39,0.03,-0.59,-0.95,-0.95,-0.95
337.52,-1.40,-1.40,-0.47,-0.47,0.47,0.11,-0.52,-0.93,-0.93,-0.93
340.90,-1.46,-1.46,-0.56,-0.56,0.56,0.19,-0.45,-0.91,-0.91,-0.90
344.30,-1.52,-1.52,-0.64,-0.63,0.63,0.28,-0.38,-0.89,-0.89,-0.89
347.75,-1.57,-1.58,-0.70,-0.71,0.71,0.37,-0.32,-0.86,-0.87,-0.87
351.23,-1.63,-1.63,-0.78,-0.78,0.78,0.47,-0.25,-0.85,-0.85,-0.85
354.74,-1.68,-1.68,-0.85,-0.85,0.85,0.56,-0.18,-0.83,-0.83,-0.83
358.28,-1.73,-1.73,-0.92,-0.92,0.92,0.66,-0.11,-0.82,-0.82,-0.82
361.87,-1.78,-1.78,-0.99,-0.98,0.98,0.76,-0.04,-0.80,-0.80,-0.80
365.49,-1.83,-1.83,-1.04,-1.04,1.04,0.87,0.03,-0.79,-0.79,-0.79
369.14,-1.87,-1.87,-1.09,-1.09,1.09,0.97,0.09,-0.78,-0.78,-0.78
372.83,-1.90,-1.91,-1.14,-1.14,1.15,1.08,0.16,-0.76,-0.76,-0.76
376.56,-1.94,-1.94,-1.19,-1.19,1.19,1.18,0.23,-0.75,-0.75,-0.75
380.33,-1.97,-1.97,-1.25,-1.24,1.23,1.28,0.30,-0.74,-0.73,-0.73
384.13,-1.99,-1.99,-1.27,-1.27,1.27,1.38,0.36,-0.72,-0.72,-0.72
387.97,-2.01,-2.01,-1.30,-1.31,1.30,1.47,0.43,-0.71,-0.71,-0.71
391.85,-2.03,-2.03,-1.33,-1.33,1.33,1.55,0.50,-0.70,-0.70,-0.70
395.77,-2.04,-2.04,-1.36,-1.36,1.36,1.62,0.56,-0.69,-0.69,-0.68
399.73,-2.05,-2.05,-1.38,-1.38,1.38,1.68,0.63,-0.68,-0.67,-0.67
403.72,-2.05,-2.05,-1.39,-1.39,1.39,1.73,0.69,-0.66,-0.66,-0.67
407.76,-2.05,-2.05,-1.40,-1.40,1.40,1.77,0.76,-0.65,-0.65,-0.66
411.84,-2.05,-2.05,-1.41,-1.41,1.41,1.79,0.82,-0.64,-0.64,-0.64
415.96,-2.05,-2.05,-1.42,-1.42,1.42,1.80,0.89,-0.64,-0.63,-0.63
420.12,-2.04,-2.04,-1.42,-1.42,1.42,1.79,0.95,-0.63,-0.62,-0.62
424.32,-2.02,-2.03,-1.41,-1.42,1.41,1.77,1.01,-0.61,-0.61,-0.61
428.56,-2.01,-2.01,-1.41,-1.41,1.41,1.74,1.07,-0.60,-0.60,-0.60
432.85,-1.99,-1.99,-1.40,-1.40,1.40,1.70,1.13,-0.59,-0.59,-0.59
437.18,-1.97,-1.97,-1.39,-1.39,1.39,1.66,1.18,-0.58,-0.58,-0.58
441.55,-1.95,-1.95,-1.39,-1.38,1.38,1.60,1.24,-0.57,-0.57,-0.57
445.96,-1.92,-1.93,-1.37,-1.37,1.37,1.55,1.29,-0.55,-0.55,-0.56
450.42,-1.90,-1.90,-1.36,-1.36,1.36,1.49,1.34,-0.54,-0.54,-0.55
454.93,-1.88,-1.88,-1.35,-1.35,1.35,1.44,1.39,-0.53,-0.53,-0.53
459.48,-1.86,-1.86,-1.34,-1.34,1.34,1.38,1.43,-0.52,-0.52,-0.52
464.07,-1.83,-1.84,-1.33,-1.34,1.33,1.32,1.48,-0.50,-0.50,-0.50
468.71,-1.81,-1.81,-1.33,-1.33,1.32,1.27,1.51,-0.49,-0.49,-0.48
473.40,-1.78,-1.78,-1.31,-1.31,1.31,1.22,1.55,-0.47,-0.47,-0.47
478.13,-1.74,-1.75,-1.29,-1.29,1.29,1.17,1.58,-0.45,-0.46,-0.45
482.91,-1.71,-1.71,-1.27,-1.27,1.27,1.12,1.61,-0.44,-0.44,-0.44
487.74,-1.68,-1.68,-1.26,-1.25,1.26,1.08,1.64,-0.43,-0.42,-0.42
492.62,-1.64,-1.64,-1.24,-1.24,1.23,1.04,1.66,-0.41,-0.41,-0.40
497.55,-1.60,-1.61,-1.21,-1.21,1.21,1.00,1.68,-0.39,-0.39,-0.39
502.52,-1.57,-1.57,-1.20,-1.19,1.19,0.97,1.69,-0.38,-0.38,-0.38
