frequency,raw
20.00,-0.04
20.20,-0.03
20.40,-0.03
20.61,-0.02
20.81,-0.02
21.02,-0.01
21.23,0.00
21.44,0.01
21.66,0.02
21.87,0.03
22.09,0.03
22.31,0.04
22.54,0.05
22.76,0.05
22.99,0.06
23.22,0.07
23.45,0.07
23.69,0.08
23.92,0.09
24.16,0.10
24.40,0.11
24.65,0.12
24.89,0.13
25.14,0.14
25.39,0.15
25.65,0.16
25.91,0.17
26.16,0.18
26.43,0.19
26.69,0.20
26.96,0.21
27.23,0.22
27.50,0.24
27.77,0.25
28.05,0.26
28.33,0.27
28.62,0.28
28.90,0.30
29.19,0.31
29.48,0.32
29.78,0.34
30.08,0.35
30.38,0.37
30.68,0.38
30.99,0.40
31.30,0.41
31.61,0.43
31.93,0.45
32.24,0.46
32.57,0.47
32.89,0.49
33.22,0.51
33.55,0.53
33.89,0.55
34.23,0.58
34.57,0.61
34.92,0.63
35.27,0.66
35.62,0.68
35.97,0.70
36.33,0.72
36.70,0.74
37.06,0.76
37.43,0.78
37.81,0.79
38.19,0.80
38.57,0.81
38.95,0.82
39.34,0.82
39.74,0.83
40.14,0.83
40.54,0.82
40.94,0.82
41.35,0.81
41.76,0.80
42.18,0.79
42.60,0.78
43.03,0.77
43.46,0.76
43.90,0.75
44.33,0.74
44.78,0.72
45.23,0.70
45.68,0.68
46.13,0.65
46.60,0.62
47.06,0.60
47.53,0.58
48.01,0.57
48.49,0.56
48.97,0.55
49.46,0.55
49.96,0.55
50.46,0.55
50.96,0.56
51.47,0.57
51.99,0.58
52.51,0.60
53.03,0.61
53.56,0.63
54.10,0.65
54.64,0.68
55.18,0.71
55.74,0.72
56.29,0.74
56.86,0.77
57.42,0.80
58.00,0.82
58.58,0.84
59.16,0.85
59.76,0.87
60.35,0.87
60.96,0.88
61.57,0.88
62.18,0.88
62.80,0.88
63.43,0.88
64.07,0.87
64.71,0.84
65.35,0.81
66.01,0.78
66.67,0.75
67.33,0.72
68.01,0.69
68.69,0.66
69.37,0.62
70.07,0.59
70.77,0.54
71.48,0.48
72.19,0.43
72.91,0.38
73.64,0.32
74.38,0.25
75.12,0.18
75.87,0.11
76.63,0.04
77.40,-0.03
78.17,-0.10
78.95,-0.19
79.74,-0.27
80.54,-0.36
81.35,-0.44
82.16,-0.52
82.98,-0.60
83.81,-0.68
84.65,-0.77
85.50,-0.85
86.35,-0.93
87.22,-1.00
88.09,-1.07
88.97,-1.14
89.86,-1.20
90.76,-1.26
91.66,-1.29
92.58,-1.32
93.51,-1.35
94.44,-1.36
95.39,-1.35
96.34,-1.33
97.30,-1.30
98.28,-1.25
99.26,-1.19
100.25,-1.11
101.25,-1.03
102.27,-0.95
103.29,-0.91
104.32,-0.85
105.37,-0.76
106.42,-0.69
107.48,-0.63
108.56,-0.57
109.64,-0.52
110.74,-0.46
111.85,-0.40
112.97,-0.35
114.10,-0.31
115.24,-0.27
116.39,-0.24
117.55,-0.21
118.73,-0.19
119.92,-0.16
121.12,-0.13
122.33,-0.11
123.55,-0.09
124.79,-0.07
126.03,-0.06
127.29,-0.07
128.57,-0.08
129.85,-0.08
131.15,-0.09
132.46,-0.09
133.79,-0.09
135.12,-0.09
136.48,-0.10
137.84,-0.11
139.22,-0.11
140.61,-0.11
142.02,-0.10
143.44,-0.09
144.87,-0.05
146.32,-0.03
147.78,0.01
149.26,0.05
150.75,0.08
152.26,0.11
153.78,0.14
155.32,0.15
156.88,0.15
158.44,0.15
160.03,0.15
161.63,0.13
163.24,0.11
164.88,0.06
166.53,0.01
168.19,-0.04
169.87,-0.11
171.57,-0.16
173.29,-0.21
175.02,-0.29
176.77,-0.33
178.54,-0.39
180.32,-0.46
182.13,-0.52
183.95,-0.64
185.79,-0.74
187.65,-0.84
189.52,-0.94
191.42,-1.04
193.33,-1.14
195.27,-1.24
197.22,-1.35
199.19,-1.45
201.18,-1.55
203.19,-1.65
205.23,-1.75
207.28,-1.85
209.35,-1.93
211.44,-2.03
213.56,-2.13
215.69,-2.23
217.85,-2.33
220.03,-2.41
222.23,-2.50
224.45,-2.61
226.70,-2.73
228.96,-2.86
231.25,-2.94
233.57,-3.06
235.90,-3.17
238.26,-3.23
240.64,-3.32
243.05,-3.40
245.48,-3.49
247.93,-3.58
250.41,-3.64
252.92,-3.71
255.45,-3.76
258.00,-3.80
260.58,-3.86
263.19,-3.89
265.82,-3.93
268.48,-3.95
271.16,-3.96
273.87,-3.98
276.61,-4.00
279.38,-4.00
282.17,-4.00
284.99,-3.99
287.84,-3.98
290.72,-3.98
293.63,-3.98
296.57,-3.98
299.53,-3.98
302.53,-3.99
305.55,-4.00
308.61,-4.00
311.69,-3.99
314.81,-3.98
317.96,-3.97
321.14,-3.94
324.35,-3.91
327.59,-3.87
330.87,-3.85
334.18,-3.81
337.52,-3.77
340.90,-3.75
344.30,-3.72
347.75,-3.71
351.23,-3.69
354.74,-3.67
358.28,-3.64
361.87,-3.62
365.49,-3.60
369.14,-3.58
372.83,-3.56
376.56,-3.52
380.33,-3.50
384.13,-3.47
387.97,-3.45
391.85,-3.41
395.77,-3.37
399.73,-3.33
403.72,-3.29
407.76,-3.25
411.84,-3.21
415.96,-3.19
420.12,-3.16
424.32,-3.13
428.56,-3.10
432.85,-3.07
437.18,-3.04
441.55,-3.03
445.96,-3.02
450.42,-3.01
454.93,-2.99
459.48,-2.98
464.07,-2.97
468.71,-2.96
473.40,-2.92
478.13,-2.90
482.91,-2.87
487.74,-2.84
492.62,-2.82
497.55,-2.78
502.52,-2.74
507.55,-2.70
512.62,-2.66
517.75,-2.62
522.93,-2.59
528.16,-2.56
533.44,-2.55
538.77,-2.52
544.16,-2.48
549.60,-2.43
555.10,-2.38
560.65,-2.33
566.25,-2.29
571.92,-2.25
577.64,-2.21
583.41,-2.17
589.25,-2.14
595.14,-2.10
601.09,-2.06
607.10,-2.02
613.17,-1.97
619.30,-1.92
625.50,-1.87
631.75,-1.82
638.07,-1.77
644.45,-1.72
650.89,-1.67
657.40,-1.63
663.98,-1.58
670.62,-1.52
677.32,-1.47
684.10,-1.42
690.94,-1.38
697.85,-1.34
704.83,-1.30
711.87,-1.26
718.99,-1.23
726.18,-1.19
733.44,-1.15
740.78,-1.11
748.19,-1.06
755.67,-1.01
763.23,-0.97
770.86,-0.93
778.57,-0.90
786.35,-0.87
794.22,-0.84
802.16,-0.80
810.18,-0.75
818.28,-0.71
826.46,-0.67
834.73,-0.64
843.08,-0.60
851.51,-0.56
860.02,-0.52
868.62,-0.48
877.31,-0.43
886.08,-0.37
894.94,-0.32
903.89,-0.27
912.93,-0.23
922.06,-0.20
931.28,-0.17
940.59,-0.16
950.00,-0.14
959.50,-0.11
969.09,-0.08
978.78,-0.05
988.57,-0.02
998.46,-0.00
1008.44,0.01
1018.53,0.04
1028.71,0.08
1039.00,0.13
1049.39,0.17
1059.88,0.22
1070.48,0.27
1081.19,0.32
1092.00,0.38
1102.92,0.44
1113.95,0.49
1125.09,0.54
1136.34,0.59
1147.70,0.65
1159.18,0.70
1170.77,0.75
1182.48,0.80
1194.30,0.83
1206.25,0.86
1218.31,0.87
1230.49,0.89
1242.80,0.90
1255.22,0.91
1267.78,0.91
1280.45,0.90
1293.26,0.89
1306.19,0.89
1319.25,0.89
1332.45,0.89
1345.77,0.89
1359.23,0.89
1372.82,0.89
1386.55,0.89
1400.41,0.89
1414.42,0.89
1428.56,0.88
1442.85,0.88
1457.28,0.87
1471.85,0.86
1486.57,0.87
1501.43,0.88
1516.45,0.90
1531.61,0.92
1546.93,0.94
1562.40,0.97
1578.02,1.00
1593.80,1.03
1609.74,1.06
1625.84,1.09
1642.10,1.12
1658.52,1.15
1675.10,1.19
1691.85,1.22
1708.77,1.26
1725.86,1.29
1743.12,1.32
1760.55,1.35
1778.15,1.38
1795.94,1.40
1813.90,1.43
1832.03,1.46
1850.36,1.48
1868.86,1.50
1887.55,1.53
1906.42,1.55
1925.49,1.58
1944.74,1.61
1964.19,1.63
1983.83,1.66
2003.67,1.68
2023.71,1.72
2043.94,1.75
2064.38,1.78
2085.03,1.81
2105.88,1.84
2126.94,1.86
2148.20,1.88
2169.69,1.88
2191.38,1.88
2213.30,1.87
2235.43,1.86
2257.78,1.86
2280.36,1.86
2303.17,1.86
2326.20,1.86
2349.46,1.86
2372.95,1.86
2396.68,1.86
2420.65,1.86
2444.86,1.86
2469.31,1.86
2494.00,1.86
2518.94,1.86
2544.13,1.87
2569.57,1.88
2595.27,1.88
2621.22,1.88
2647.43,1.88
2673.90,1.87
2700.64,1.86
2727.65,1.84
2754.93,1.80
2782.48,1.75
2810.30,1.70
2838.40,1.64
2866.79,1.56
2895.46,1.47
2924.41,1.36
2953.65,1.24
2983.19,1.10
3013.02,0.96
3043.15,0.81
3073.58,0.64
3104.32,0.46
3135.36,0.26
3166.72,0.05
3198.38,-0.18
3230.37,-0.42
3262.67,-0.70
3295.30,-0.98
3328.25,-1.29
3361.53,-1.62
3395.15,-1.96
3429.10,-2.33
3463.39,-2.73
3498.03,-3.16
3533.01,-3.62
3568.34,-4.08
3604.02,-4.54
3640.06,-4.97
3676.46,-5.35
3713.22,-5.68
3750.36,-5.93
3787.86,-6.09
3825.74,-6.14
3864.00,-6.07
3902.64,-5.89
3941.66,-5.58
3981.08,-5.16
4020.89,-4.63
4061.10,-4.00
4101.71,-3.31
4142.73,-2.58
4184.15,-1.81
4226.00,-1.04
4268.26,-0.30
4310.94,0.42
4354.05,1.11
4397.59,1.76
4441.56,2.36
4485.98,2.89
4530.84,3.39
4576.15,3.84
4621.91,4.23
4668.13,4.58
4714.81,4.89
4761.96,5.17
4809.58,5.42
4857.67,5.63
4906.25,5.81
4955.31,5.98
5004.87,6.11
5054.91,6.22
5105.46,6.30
5156.52,6.37
5208.08,6.41
5260.16,6.43
5312.77,6.41
5365.89,6.35
5419.55,6.29
5473.75,6.19
5528.49,6.08
5583.77,5.93
5639.61,5.77
5696.00,5.59
5752.96,5.40
5810.49,5.21
5868.60,5.00
5927.28,4.77
5986.56,4.53
6046.42,4.29
6106.89,4.02
6167.96,3.74
6229.64,3.46
6291.93,3.17
6354.85,2.85
6418.40,2.52
6482.58,2.15
6547.41,1.75
6612.88,1.32
6679.01,0.86
6745.80,0.39
6813.26,-0.11
6881.39,-0.61
6950.21,-1.10
7019.71,-1.58
7089.91,-2.04
7160.81,-2.49
7232.41,-2.92
7304.74,-3.33
7377.79,-3.70
7451.56,-4.03
7526.08,-4.32
7601.34,-4.58
7677.35,-4.82
7754.13,-5.03
7831.67,-5.20
7909.98,-5.35
7989.08,-5.48
8068.98,-5.60
8149.67,-5.71
8231.16,-5.79
8313.47,-5.87
8396.61,-5.94
8480.57,-5.99
8565.38,-6.05
8651.03,-6.10
8737.54,-6.16
8824.92,-6.23
8913.17,-6.31
9002.30,-6.40
9092.32,-6.50
9183.25,-6.60
9275.08,-6.71
9367.83,-6.82
9461.51,-6.92
9556.12,-7.02
9651.68,-7.13
9748.20,-7.24
9845.68,-7.38
9944.14,-7.53
10043.58,-7.72
10144.02,-7.92
10245.46,-8.15
10347.91,-8.39
10451.39,-8.67
10555.91,-8.97
10661.46,-9.27
10768.08,-9.57
10875.76,-9.87
10984.52,-10.16
11094.36,-10.41
11205.31,-10.64
11317.36,-10.83
11430.53,-10.97
11544.84,-11.07
11660.29,-11.11
11776.89,-11.10
11894.66,-11.05
12013.60,-10.95
12133.74,-10.81
12255.08,-10.64
12377.63,-10.44
12501.41,-10.21
12626.42,-9.97
12752.68,-9.71
12880.21,-9.44
13009.01,-9.18
13139.10,-8.93
13270.49,-8.70
13403.20,-8.49
13537.23,-8.31
13672.60,-8.15
13809.33,-8.03
13947.42,-7.91
14086.90,-7.84
14227.77,-7.80
14370.04,-7.77
14513.74,-7.79
14658.88,-7.83
14805.47,-7.89
14953.52,-7.99
15103.06,-8.10
15254.09,-8.24
15406.63,-8.39
15560.70,-8.59
15716.30,-8.82
15873.47,-9.08
16032.20,-9.37
16192.52,-9.70
16354.45,-10.06
16517.99,-10.44
16683.17,-10.85
16850.01,-11.28
17018.51,-11.75
17188.69,-12.25
17360.58,-12.76
17534.18,-13.29
17709.53,-13.85
17886.62,-14.42
18065.49,-14.99
18246.14,-15.52
18428.60,-16.02
18612.89,-16.52
18799.02,-17.01
18987.01,-17.50
19176.88,-17.98
19368.65,-18.46
19562.33,-18.93
19757.96,-19.40
19955.54,-19.87
