frequency,raw,error,smoothed,error_smoothed,equalization,parametric_eq,equalized_raw,equalized_smoothed,target
20,-0.47,-4.02,-0.49,-4.02,4.02,-0.41,3.56,3.54,3.55
21,0.12,-3.42,0.15,-3.39,3.39,-0.47,3.51,3.54,3.54
22,0.74,-2.80,0.75,-2.78,2.78,-0.52,3.52,3.53,3.54
23,1.31,-2.22,1.33,-2.20,2.20,-0.58,3.51,3.53,3.53
24,1.86,-1.67,1.88,-1.65,1.65,-0.64,3.51,3.52,3.53
25,2.39,-1.13,2.39,-1.13,1.13,-0.71,3.52,3.52,3.52
26,2.88,-0.63,2.88,-0.63,0.63,-0.78,3.51,3.51,3.52
27,3.35,-0.16,3.35,-0.16,0.16,-0.86,3.51,3.51,3.51
28,3.80,0.30,3.78,0.28,-0.28,-0.93,3.52,3.50,3.50
29,4.22,0.73,4.18,0.69,-0.69,-1.01,3.53,3.49,3.50
30,4.60,1.11,4.56,1.07,-1.07,-1.09,3.53,3.49,3.49
31,4.94,1.46,4.90,1.42,-1.42,-1.17,3.52,3.48,3.48
32,5.24,1.77,5.21,1.74,-1.74,-1.25,3.50,3.47,3.47
33,5.51,2.05,5.49,2.04,-2.04,-1.34,3.48,3.46,3.46
34,5.74,2.29,5.75,2.30,-2.30,-1.42,3.44,3.45,3.45
35,5.95,2.51,5.98,2.54,-2.54,-1.51,3.41,3.43,3.44
36,6.16,2.73,6.18,2.76,-2.76,-1.61,3.40,3.42,3.43
37,6.35,2.94,6.37,2.96,-2.96,-1.71,3.39,3.41,3.42
38,6.52,3.12,6.53,3.14,-3.14,-1.82,3.38,3.39,3.40
39,6.67,3.28,6.68,3.30,-3.30,-1.94,3.37,3.38,3.39
40,6.81,3.43,6.82,3.45,-3.45,-2.06,3.36,3.37,3.38
41,6.93,3.57,6.94,3.59,-3.59,-2.19,3.35,3.35,3.36
42,7.05,3.70,7.05,3.71,-3.71,-2.33,3.34,3.34,3.35
43,7.15,3.82,7.15,3.82,-3.82,-2.47,3.33,3.33,3.33
44,7.23,3.92,7.24,3.92,-3.92,-2.63,3.31,3.31,3.32
45,7.31,4.01,7.31,4.01,-4.01,-2.79,3.30,3.30,3.30
46,7.38,4.10,7.38,4.10,-4.10,-2.95,3.29,3.28,3.28
47,7.43,4.17,7.43,4.17,-4.17,-3.12,3.27,3.26,3.26
48,7.47,4.23,7.47,4.23,-4.23,-3.30,3.25,3.24,3.24
49,7.50,4.28,7.50,4.28,-4.28,-3.48,3.22,3.22,3.22
50,7.53,4.33,7.53,4.32,-4.32,-3.66,3.21,3.20,3.20
51,7.54,4.36,7.54,4.36,-4.36,-3.84,3.18,3.18,3.18
52,7.55,4.39,7.55,4.39,-4.39,-4.02,3.16,3.16,3.16
53,7.55,4.42,7.54,4.41,-4.41,-4.20,3.14,3.13,3.13
54,7.54,4.43,7.54,4.43,-4.43,-4.37,3.11,3.11,3.11
55,7.53,4.45,7.53,4.45,-4.45,-4.53,3.08,3.08,3.09
56,7.51,4.45,7.52,4.46,-4.46,-4.68,3.05,3.05,3.06
57,7.49,4.46,7.50,4.48,-4.48,-4.82,3.01,3.03,3.04
58,7.47,4.46,7.49,4.49,-4.49,-4.94,2.98,3.00,3.01
59,7.46,4.48,7.48,4.51,-4.51,-5.05,2.96,2.97,2.98
60,7.44,4.49,7.46,4.52,-4.52,-5.14,2.92,2.95,2.95
61,7.43,4.51,7.45,4.53,-4.53,-5.21,2.90,2.92,2.93
62,7.42,4.53,7.43,4.54,-4.54,-5.26,2.88,2.89,2.90
63,7.42,4.55,7.42,4.56,-4.56,-5.30,2.87,2.86,2.87
64,7.42,4.59,7.40,4.57,-4.57,-5.32,2.85,2.83,2.84
65,7.41,4.61,7.38,4.58,-4.58,-5.32,2.83,2.80,2.81
66,7.38,4.61,7.36,4.59,-4.59,-5.31,2.79,2.77,2.77
67,7.35,4.61,7.34,4.60,-4.60,-5.29,2.75,2.74,2.74
68,7.32,4.61,7.32,4.61,-4.61,-5.26,2.71,2.71,2.71
69,7.28,4.60,7.30,4.62,-4.62,-5.22,2.66,2.67,2.68
70,7.25,4.61,7.27,4.63,-4.63,-5.18,2.62,2.64,2.64
71,7.22,4.61,7.25,4.64,-4.64,-5.13,2.58,2.60,2.61
72,7.20,4.63,7.22,4.66,-4.66,-5.08,2.55,2.57,2.58
73,7.19,4.65,7.20,4.67,-4.67,-5.02,2.52,2.53,2.54
74,7.19,4.68,7.18,4.68,-4.68,-4.97,2.51,2.50,2.51
75,7.18,4.71,7.16,4.70,-4.70,-4.92,2.48,2.46,2.47
76,7.16,4.73,7.15,4.72,-4.72,-4.86,2.45,2.43,2.44
77,7.13,4.73,7.13,4.73,-4.73,-4.82,2.40,2.40,2.40
78,7.11,4.75,7.12,4.75,-4.75,-4.77,2.36,2.36,2.37
79,7.09,4.76,7.10,4.77,-4.77,-4.73,2.32,2.33,2.33
80,7.08,4.79,7.09,4.79,-4.79,-4.69,2.29,2.29,2.29
81,7.08,4.82,7.07,4.81,-4.81,-4.66,2.27,2.26,2.26
82,7.06,4.84,7.05,4.83,-4.83,-4.64,2.23,2.22,2.22
83,7.04,4.86,7.03,4.85,-4.85,-4.61,2.19,2.18,2.18
84,7.02,4.87,7.01,4.87,-4.87,-4.60,2.15,2.15,2.15
85,7.00,4.89,7.00,4.89,-4.89,-4.58,2.11,2.11,2.11
86,6.97,4.90,6.98,4.90,-4.90,-4.57,2.07,2.07,2.08
87,6.95,4.91,6.96,4.92,-4.92,-4.57,2.03,2.04,2.04
88,6.93,4.93,6.94,4.94,-4.94,-4.57,1.99,2.00,2.00
89,6.92,4.95,6.92,4.96,-4.96,-4.58,1.97,1.96,1.97
90,6.90,4.97,6.90,4.97,-4.97,-4.59,1.93,1.93,1.93
91,6.88,4.99,6.88,4.99,-4.99,-4.60,1.89,1.89,1.90
92,6.86,5.00,6.87,5.01,-5.01,-4.62,1.85,1.86,1.86
93,6.84,5.02,6.85,5.02,-5.02,-4.64,1.82,1.83,1.82
94,6.83,5.04,6.83,5.04,-5.04,-4.67,1.79,1.79,1.79
95,6.80,5.05,6.81,5.05,-5.05,-4.70,1.75,1.76,1.75
96,6.78,5.06,6.79,5.07,-5.07,-4.73,1.72,1.72,1.72
97,6.78,5.10,6.76,5.08,-5.08,-4.77,1.70,1.68,1.69
98,6.75,5.10,6.73,5.09,-5.09,-4.81,1.66,1.64,1.65
99,6.73,5.11,6.71,5.10,-5.10,-4.85,1.63,1.61,1.62
100,6.70,5.12,6.68,5.11,-5.11,-4.89,1.59,1.57,1.58
101,6.66,5.11,6.65,5.12,-5.12,-4.93,1.54,1.53,1.55
102,6.62,5.10,6.63,5.13,-5.13,-4.98,1.49,1.50,1.52
104,6.56,5.11,6.60,5.14,-5.14,-5.08,1.42,1.46,1.45
105,6.54,5.12,6.58,5.15,-5.15,-5.12,1.39,1.43,1.42
106,6.53,5.14,6.55,5.16,-5.16,-5.17,1.37,1.39,1.39
107,6.52,5.16,6.53,5.17,-5.17,-5.22,1.35,1.36,1.36
108,6.51,5.18,6.51,5.18,-5.18,-5.27,1.33,1.33,1.33
109,6.50,5.20,6.49,5.19,-5.19,-5.32,1.31,1.30,1.30
110,6.48,5.21,6.47,5.20,-5.20,-5.36,1.28,1.26,1.27
111,6.46,5.22,6.45,5.22,-5.22,-5.41,1.25,1.23,1.24
112,6.44,5.23,6.43,5.23,-5.23,-5.45,1.22,1.20,1.21
113,6.42,5.24,6.41,5.24,-5.24,-5.49,1.18,1.17,1.18
114,6.39,5.24,6.39,5.25,-5.25,-5.53,1.14,1.14,1.15
115,6.38,5.26,6.37,5.26,-5.26,-5.56,1.12,1.11,1.13
117,6.33,5.26,6.35,5.27,-5.27,-5.62,1.06,1.08,1.07
118,6.30,5.26,6.33,5.28,-5.28,-5.65,1.02,1.05,1.05
119,6.28,5.26,6.31,5.29,-5.29,-5.67,0.99,1.02,1.02
120,6.27,5.28,6.29,5.30,-5.30,-5.69,0.97,0.99,0.99
121,6.26,5.29,6.27,5.31,-5.31,-5.70,0.95,0.95,0.97
123,6.25,5.33,6.24,5.32,-5.32,-5.72,0.93,0.92,0.92
124,6.25,5.35,6.22,5.33,-5.33,-5.73,0.92,0.89,0.90
125,6.23,5.36,6.19,5.33,-5.33,-5.73,0.90,0.86,0.87
126,6.21,5.36,6.17,5.34,-5.34,-5.72,0.87,0.83,0.85
128,6.15,5.35,6.15,5.34,-5.34,-5.70,0.81,0.81,0.81
129,6.11,5.33,6.13,5.34,-5.34,-5.69,0.77,0.78,0.78
130,6.07,5.31,6.10,5.34,-5.34,-5.67,0.73,0.76,0.76
131,6.04,5.30,6.07,5.34,-5.34,-5.65,0.70,0.73,0.74
133,6.00,5.30,6.04,5.34,-5.34,-5.60,0.66,0.70,0.70
134,6.00,5.32,6.01,5.34,-5.34,-5.58,0.67,0.67,0.68
135,5.99,5.33,5.97,5.33,-5.33,-5.55,0.66,0.64,0.66
137,5.97,5.35,5.94,5.32,-5.32,-5.48,0.65,0.62,0.62
138,5.94,5.34,5.91,5.32,-5.32,-5.45,0.62,0.59,0.61
140,5.89,5.32,5.88,5.31,-5.31,-5.37,0.58,0.57,0.57
141,5.85,5.30,5.86,5.31,-5.31,-5.34,0.54,0.55,0.55
142,5.82,5.28,5.83,5.30,-5.30,-5.30,0.52,0.53,0.54
144,5.76,5.26,5.80,5.29,-5.29,-5.22,0.47,0.51,0.50
145,5.74,5.25,5.77,5.28,-5.28,-5.18,0.46,0.48,0.49
147,5.71,5.25,5.73,5.27,-5.27,-5.10,0.44,0.46,0.46
148,5.70,5.26,5.69,5.26,-5.26,-5.06,0.44,0.43,0.44
150,5.67,5.26,5.65,5.25,-5.25,-4.99,0.43,0.41,0.41
151,5.65,5.25,5.61,5.23,-5.23,-4.95,0.42,0.38,0.40
153,5.60,5.23,5.58,5.21,-5.21,-4.88,0.39,0.37,0.37
154,5.56,5.20,5.54,5.20,-5.20,-4.84,0.37,0.35,0.36
156,5.48,5.15,5.50,5.18,-5.18,-4.78,0.31,0.33,0.33
157,5.45,5.13,5.47,5.16,-5.16,-4.74,0.30,0.31,0.32
159,5.38,5.09,5.43,5.13,-5.13,-4.68,0.25,0.29,0.30
160,5.36,5.08,5.38,5.11,-5.11,-4.66,0.25,0.27,0.28
162,5.32,5.06,5.34,5.08,-5.08,-4.60,0.24,0.26,0.26
164,5.28,5.04,5.29,5.05,-5.05,-4.55,0.23,0.24,0.24
165,5.26,5.03,5.24,5.02,-5.02,-4.53,0.25,0.22,0.23
167,5.21,5.00,5.18,4.98,-4.98,-4.49,0.23,0.20,0.21
169,5.14,4.95,5.13,4.94,-4.94,-4.45,0.20,0.19,0.19
170,5.10,4.92,5.07,4.90,-4.90,-4.44,0.20,0.17,0.18
172,5.01,4.85,5.01,4.85,-4.85,-4.41,0.16,0.16,0.16
174,4.93,4.79,4.94,4.80,-4.80,-4.39,0.13,0.14,0.14
175,4.89,4.76,4.87,4.75,-4.75,-4.38,0.14,0.13,0.13
177,4.80,4.68,4.80,4.69,-4.69,-4.36,0.11,0.11,0.12
179,4.71,4.61,4.73,4.63,-4.63,-4.35,0.08,0.10,0.10
181,4.62,4.54,4.65,4.57,-4.57,-4.34,0.05,0.09,0.09
183,4.54,4.47,4.57,4.50,-4.50,-4.34,0.04,0.07,0.07
184,4.50,4.44,4.49,4.43,-4.43,-4.34,0.07,0.06,0.06
186,4.43,4.38,4.41,4.36,-4.36,-4.34,0.07,0.05,0.05
188,4.37,4.34,4.32,4.29,-4.29,-4.34,0.08,0.04,0.04
190,4.29,4.27,4.24,4.22,-4.22,-4.35,0.07,0.02,0.02
192,4.20,4.19,4.16,4.15,-4.15,-4.37,0.05,0.01,0.01
194,4.12,4.12,4.08,4.09,-4.09,-4.38,0.03,-0.01,-0.00
196,4.02,4.03,4.01,4.04,-4.04,-4.40,-0.02,-0.03,-0.01
198,3.94,3.97,3.96,4.00,-4.00,-4.42,-0.06,-0.05,-0.02
200,3.88,3.92,3.91,3.98,-3.98,-4.44,-0.10,-0.07,-0.03
202,3.84,3.89,3.89,3.98,-3.98,-4.46,-0.13,-0.09,-0.05
204,3.83,3.89,3.89,3.99,-3.99,-4.49,-0.16,-0.11,-0.06
206,3.85,3.92,3.92,4.03,-4.03,-4.51,-0.18,-0.12,-0.06
208,3.88,3.96,3.97,4.10,-4.10,-4.54,-0.22,-0.13,-0.07
210,3.97,4.05,4.05,4.18,-4.18,-4.57,-0.21,-0.13,-0.08
212,4.08,4.17,4.15,4.29,-4.29,-4.60,-0.21,-0.14,-0.09
214,4.21,4.31,4.27,4.41,-4.41,-4.62,-0.20,-0.14,-0.10
216,4.36,4.47,4.40,4.54,-4.54,-4.65,-0.17,-0.14,-0.11
218,4.52,4.64,4.52,4.66,-4.66,-4.67,-0.14,-0.14,-0.12
221,4.74,4.87,4.65,4.79,-4.79,-4.71,-0.05,-0.14,-0.13
223,4.86,5.00,4.76,4.90,-4.90,-4.73,-0.04,-0.14,-0.13
225,4.94,5.08,4.86,5.00,-5.00,-4.75,-0.06,-0.14,-0.14
227,5.01,5.16,4.94,5.08,-5.08,-4.77,-0.07,-0.14,-0.15
229,5.05,5.21,4.99,5.13,-5.13,-4.78,-0.08,-0.14,-0.15
232,5.06,5.23,5.02,5.17,-5.17,-4.80,-0.11,-0.15,-0.16
234,5.04,5.21,5.02,5.18,-5.18,-4.81,-0.13,-0.16,-0.17
236,5.01,5.19,4.99,5.16,-5.16,-4.81,-0.15,-0.17,-0.17
239,4.94,5.13,4.94,5.13,-5.13,-4.81,-0.19,-0.18,-0.18
241,4.87,5.06,4.88,5.08,-5.08,-4.80,-0.20,-0.20,-0.19
244,4.77,4.97,4.80,5.01,-5.01,-4.79,-0.24,-0.21,-0.20
246,4.69,4.89,4.71,4.93,-4.93,-4.78,-0.24,-0.22,-0.20
248,4.62,4.83,4.63,4.85,-4.85,-4.76,-0.23,-0.22,-0.21
251,4.50,4.71,4.53,4.76,-4.76,-4.72,-0.26,-0.23,-0.21
253,4.43,4.65,4.44,4.68,-4.68,-4.69,-0.25,-0.24,-0.22
256,4.33,4.56,4.35,4.59,-4.59,-4.65,-0.26,-0.24,-0.22
259,4.23,4.46,4.27,4.51,-4.51,-4.59,-0.28,-0.24,-0.23
261,4.17,4.41,4.18,4.43,-4.43,-4.55,-0.26,-0.25,-0.23
264,4.08,4.32,4.10,4.35,-4.35,-4.48,-0.27,-0.25,-0.24
266,4.03,4.27,4.02,4.28,-4.28,-4.43,-0.24,-0.25,-0.24
269,3.95,4.20,3.95,4.20,-4.20,-4.35,-0.25,-0.25,-0.25
272,3.86,4.11,3.87,4.13,-4.13,-4.27,-0.27,-0.26,-0.25
274,3.81,4.07,3.79,4.05,-4.05,-4.22,-0.24,-0.26,-0.26
277,3.73,3.99,3.72,3.98,-3.98,-4.13,-0.25,-0.26,-0.26
280,3.64,3.91,3.64,3.91,-3.91,-4.03,-0.27,-0.27,-0.26
283,3.55,3.82,3.56,3.83,-3.83,-3.94,-0.28,-0.27,-0.27
286,3.46,3.74,3.48,3.75,-3.75,-3.84,-0.29,-0.27,-0.27
288,3.40,3.68,3.40,3.67,-3.67,-3.78,-0.27,-0.27,-0.28
291,3.31,3.59,3.31,3.59,-3.59,-3.68,-0.27,-0.28,-0.28
294,3.21,3.50,3.21,3.49,-3.49,-3.58,-0.28,-0.28,-0.28
297,3.11,3.40,3.11,3.40,-3.40,-3.48,-0.29,-0.29,-0.29
300,3.01,3.30,3.00,3.29,-3.29,-3.38,-0.28,-0.29,-0.29
303,2.90,3.20,2.89,3.18,-3.18,-3.28,-0.28,-0.29,-0.29
306,2.79,3.09,2.77,3.07,-3.07,-3.18,-0.27,-0.30,-0.30
309,2.67,2.97,2.65,2.94,-2.94,-3.09,-0.27,-0.30,-0.30
312,2.54,2.84,2.52,2.81,-2.81,-2.99,-0.27,-0.30,-0.30
316,2.37,2.68,2.38,2.68,-2.68,-2.87,-0.31,-0.30,-0.31
319,2.23,2.54,2.24,2.54,-2.54,-2.77,-0.31,-0.30,-0.31
322,2.10,2.41,2.09,2.40,-2.40,-2.68,-0.30,-0.31,-0.31
325,1.96,2.28,1.94,2.26,-2.26,-2.59,-0.30,-0.32,-0.31
328,1.82,2.14,1.80,2.12,-2.12,-2.50,-0.30,-0.32,-0.32
332,1.64,1.96,1.66,1.99,-1.99,-2.39,-0.35,-0.33,-0.32
335,1.51,1.83,1.52,1.86,-1.86,-2.31,-0.35,-0.34,-0.32
338,1.40,1.73,1.40,1.74,-1.74,-2.22,-0.34,-0.34,-0.32
342,1.26,1.59,1.29,1.64,-1.64,-2.12,-0.38,-0.35,-0.33
345,1.16,1.49,1.19,1.54,-1.54,-2.04,-0.38,-0.35,-0.33
349,1.05,1.38,1.11,1.46,-1.46,-1.94,-0.41,-0.35,-0.33
352,0.99,1.32,1.04,1.39,-1.39,-1.87,-0.40,-0.35,-0.33
356,0.94,1.28,0.98,1.34,-1.34,-1.77,-0.40,-0.35,-0.34
359,0.93,1.27,0.94,1.29,-1.29,-1.70,-0.36,-0.35,-0.34
363,0.91,1.25,0.90,1.25,-1.25,-1.61,-0.34,-0.35,-0.34
366,0.90,1.24,0.88,1.23,-1.23,-1.54,-0.32,-0.35,-0.34
370,0.89,1.23,0.85,1.20,-1.20,-1.46,-0.31,-0.35,-0.34
374,0.87,1.22,0.84,1.19,-1.19,-1.37,-0.31,-0.35,-0.34
377,0.86,1.21,0.83,1.17,-1.17,-1.31,-0.31,-0.34,-0.35
381,0.83,1.18,0.82,1.16,-1.16,-1.23,-0.33,-0.34,-0.35
385,0.82,1.17,0.81,1.16,-1.16,-1.15,-0.34,-0.35,-0.35
389,0.80,1.15,0.80,1.16,-1.16,-1.08,-0.35,-0.35,-0.35
393,0.79,1.15,0.80,1.16,-1.16,-1.00,-0.36,-0.36,-0.35
397,0.78,1.14,0.80,1.16,-1.16,-0.93,-0.38,-0.36,-0.35
401,0.79,1.15,0.80,1.17,-1.17,-0.86,-0.38,-0.37,-0.36
405,0.79,1.15,0.81,1.18,-1.18,-0.80,-0.39,-0.37,-0.36
409,0.81,1.17,0.83,1.20,-1.20,-0.73,-0.39,-0.37,-0.36
413,0.83,1.19,0.85,1.23,-1.23,-0.67,-0.39,-0.37,-0.36
417,0.86,1.22,0.88,1.26,-1.26,-0.61,-0.39,-0.38,-0.36
421,0.90,1.27,0.91,1.29,-1.29,-0.55,-0.39,-0.38,-0.36
425,0.94,1.31,0.95,1.33,-1.33,-0.49,-0.39,-0.38,-0.37
430,0.99,1.36,0.99,1.37,-1.37,-0.42,-0.38,-0.38,-0.37
434,1.03,1.40,1.03,1.41,-1.41,-0.36,-0.38,-0.38,-0.37
438,1.07,1.44,1.08,1.46,-1.46,-0.31,-0.38,-0.38,-0.37
443,1.12,1.49,1.12,1.49,-1.49,-0.25,-0.37,-0.38,-0.37
447,1.15,1.52,1.15,1.52,-1.52,-0.20,-0.37,-0.37,-0.37
451,1.15,1.52,1.18,1.54,-1.54,-0.15,-0.39,-0.36,-0.37
456,1.16,1.52,1.19,1.55,-1.55,-0.10,-0.39,-0.36,-0.36
460,1.17,1.53,1.19,1.54,-1.54,-0.05,-0.37,-0.35,-0.35
465,1.18,1.53,1.17,1.51,-1.51,-0.00,-0.33,-0.34,-0.35
470,1.16,1.50,1.12,1.45,-1.45,0.05,-0.29,-0.33,-0.34
474,1.12,1.45,1.05,1.38,-1.38,0.09,-0.26,-0.32,-0.33
479,1.04,1.36,0.96,1.28,-1.28,0.13,-0.23,-0.31,-0.32
484,0.91,1.22,0.85,1.15,-1.15,0.17,-0.24,-0.30,-0.31
489,0.75,1.05,0.71,1.00,-1.00,0.21,-0.25,-0.29,-0.29
494,0.58,0.86,0.55,0.83,-0.83,0.25,-0.25,-0.28,-0.28
499,0.38,0.65,0.38,0.64,-0.64,0.28,-0.26,-0.26,-0.27
504,0.17,0.42,0.18,0.43,-0.43,0.32,-0.26,-0.25,-0.25
509,-0.05,0.19,-0.02,0.22,-0.22,0.35,-0.26,-0.24,-0.23
514,-0.26,-0.04,-0.24,-0.01,0.01,0.38,-0.25,-0.23,-0.22
519,-0.47,-0.27,-0.46,-0.25,0.25,0.40,-0.22,-0.22,-0.20
524,-0.69,-0.50,-0.68,-0.48,0.48,0.43,-0.21,-0.20,-0.18
529,-0.89,-0.72,-0.89,-0.71,0.71,0.45,-0.18,-0.18,-0.17
535,-1.12,-0.97,-1.09,-0.93,0.93,0.48,-0.19,-0.16,-0.15
540,-1.30,-1.17,-1.28,-1.14,1.14,0.50,-0.16,-0.14,-0.13
545,-1.47,-1.37,-1.46,-1.34,1.34,0.52,-0.13,-0.11,-0.10
551,-1.65,-1.57,-1.62,-1.53,1.53,0.54,-0.12,-0.09,-0.08
556,-1.78,-1.72,-1.77,-1.71,1.71,0.56,-0.07,-0.06,-0.05
562,-1.92,-1.89,-1.90,-1.87,1.87,0.58,-0.05,-0.03,-0.03
568,-2.03,-2.03,-2.02,-2.02,2.02,0.60,-0.01,-0.00,0.00
573,-2.11,-2.14,-2.12,-2.15,2.15,0.61,0.04,0.03,0.03
579,-2.19,-2.25,-2.20,-2.26,2.26,0.63,0.07,0.06,0.06
585,-2.25,-2.34,-2.27,-2.36,2.36,0.65,0.11,0.09,0.09
591,-2.30,-2.42,-2.32,-2.43,2.43,0.66,0.13,0.11,0.12
596,-2.33,-2.48,-2.35,-2.48,2.48,0.67,0.15,0.13,0.15
602,-2.35,-2.53,-2.35,-2.51,2.51,0.69,0.16,0.16,0.18
608,-2.34,-2.55,-2.33,-2.51,2.51,0.70,0.18,0.18,0.21
615,-2.31,-2.55,-2.29,-2.49,2.49,0.72,0.19,0.21,0.24
621,-2.26,-2.53,-2.21,-2.45,2.45,0.74,0.19,0.23,0.27
627,-2.17,-2.47,-2.11,-2.37,2.37,0.75,0.21,0.26,0.30
633,-2.06,-2.39,-1.98,-2.28,2.28,0.77,0.22,0.29,0.34
639,-1.92,-2.29,-1.83,-2.16,2.16,0.78,0.24,0.33,0.37
646,-1.71,-2.11,-1.65,-2.02,2.02,0.80,0.31,0.37,0.40
652,-1.50,-1.93,-1.46,-1.87,1.87,0.82,0.37,0.41,0.43
659,-1.25,-1.72,-1.26,-1.71,1.71,0.84,0.46,0.45,0.47
665,-1.04,-1.54,-1.05,-1.54,1.54,0.85,0.50,0.49,0.50
672,-0.79,-1.33,-0.84,-1.38,1.38,0.87,0.59,0.54,0.54
679,-0.57,-1.14,-0.65,-1.22,1.22,0.90,0.66,0.58,0.57
686,-0.37,-0.98,-0.46,-1.08,1.08,0.92,0.71,0.62,0.61
692,-0.23,-0.88,-0.28,-0.95,0.95,0.93,0.72,0.66,0.65
699,-0.09,-0.77,-0.13,-0.83,0.83,0.96,0.75,0.70,0.69
706,0.03,-0.69,0.00,-0.74,0.74,0.98,0.77,0.74,0.73
713,0.11,-0.65,0.11,-0.66,0.66,1.00,0.78,0.78,0.76
721,0.19,-0.61,0.20,-0.61,0.61,1.03,0.80,0.81,0.80
728,0.26,-0.58,0.27,-0.57,0.57,1.06,0.84,0.85,0.84
735,0.30,-0.58,0.33,-0.56,0.56,1.08,0.86,0.88,0.88
742,0.35,-0.57,0.36,-0.56,0.56,1.11,0.91,0.92,0.92
750,0.39,-0.57,0.38,-0.58,0.58,1.14,0.97,0.96,0.96
757,0.41,-0.59,0.39,-0.61,0.61,1.16,1.02,1.00,1.00
765,0.40,-0.63,0.39,-0.65,0.65,1.19,1.05,1.03,1.04
773,0.39,-0.68,0.37,-0.70,0.70,1.23,1.09,1.07,1.07
780,0.36,-0.75,0.35,-0.75,0.75,1.25,1.11,1.10,1.11
788,0.34,-0.80,0.32,-0.81,0.81,1.29,1.15,1.14,1.14
796,0.30,-0.88,0.29,-0.88,0.88,1.32,1.18,1.17,1.18
804,0.24,-0.97,0.26,-0.94,0.94,1.35,1.18,1.20,1.21
812,0.21,-1.03,0.22,-1.01,1.01,1.38,1.22,1.23,1.24
820,0.16,-1.12,0.19,-1.07,1.07,1.42,1.24,1.26,1.28
828,0.11,-1.20,0.16,-1.14,1.14,1.45,1.25,1.29,1.31
837,0.09,-1.25,0.13,-1.20,1.20,1.49,1.29,1.33,1.34
845,0.07,-1.30,0.10,-1.26,1.26,1.52,1.33,1.36,1.37
853,0.06,-1.34,0.08,-1.31,1.31,1.55,1.37,1.39,1.40
862,0.06,-1.37,0.06,-1.36,1.36,1.59,1.42,1.42,1.43
871,0.07,-1.39,0.05,-1.41,1.41,1.62,1.48,1.46,1.46
879,0.06,-1.43,0.03,-1.46,1.46,1.65,1.52,1.49,1.49
888,0.04,-1.48,0.02,-1.50,1.50,1.69,1.54,1.51,1.52
897,0.02,-1.52,0.00,-1.54,1.54,1.72,1.56,1.54,1.55
906,0.01,-1.56,-0.01,-1.58,1.58,1.75,1.59,1.57,1.57
915,-0.02,-1.62,-0.02,-1.62,1.62,1.78,1.60,1.59,1.60
924,-0.04,-1.66,-0.03,-1.65,1.65,1.81,1.61,1.62,1.63
933,-0.06,-1.71,-0.04,-1.68,1.68,1.84,1.62,1.64,1.65
943,-0.07,-1.75,-0.04,-1.71,1.71,1.87,1.64,1.67,1.68
952,-0.07,-1.77,-0.05,-1.74,1.74,1.89,1.67,1.69,1.70
962,-0.08,-1.81,-0.05,-1.76,1.76,1.92,1.69,1.72,1.73
971,-0.06,-1.81,-0.04,-1.79,1.79,1.94,1.73,1.75,1.76
981,-0.04,-1.82,-0.03,-1.81,1.81,1.96,1.77,1.77,1.78
991,-0.02,-1.83,-0.03,-1.83,1.83,1.99,1.81,1.80,1.81
1001,0.00,-1.83,-0.02,-1.85,1.85,2.00,1.85,1.83,1.84
1011,0.03,-1.83,-0.01,-1.86,1.86,2.02,1.90,1.86,1.86
1021,0.03,-1.86,0.01,-1.88,1.88,2.04,1.92,1.89,1.89
1031,0.03,-1.88,0.02,-1.90,1.90,2.05,1.94,1.92,1.92
1041,0.02,-1.92,0.02,-1.92,1.92,2.06,1.95,1.95,1.94
1052,0.02,-1.95,0.03,-1.95,1.95,2.07,1.97,1.98,1.97
1062,0.02,-1.98,0.04,-1.97,1.97,2.08,1.99,2.00,2.00
1073,0.02,-2.01,0.04,-1.99,1.99,2.09,2.02,2.03,2.03
1084,0.03,-2.03,0.04,-2.02,2.02,2.10,2.05,2.06,2.06
1094,0.04,-2.05,0.04,-2.05,2.05,2.11,2.09,2.08,2.09
1105,0.05,-2.07,0.04,-2.07,2.07,2.12,2.13,2.11,2.12
1116,0.05,-2.10,0.04,-2.10,2.10,2.12,2.15,2.14,2.15
1128,0.05,-2.13,0.05,-2.13,2.13,2.13,2.18,2.18,2.18
1139,0.05,-2.16,0.06,-2.15,2.15,2.13,2.20,2.21,2.21
1150,0.05,-2.19,0.07,-2.18,2.18,2.14,2.23,2.24,2.24
1162,0.06,-2.21,0.07,-2.20,2.20,2.14,2.26,2.27,2.28
1173,0.07,-2.23,0.08,-2.22,2.22,2.15,2.30,2.31,2.31
1185,0.08,-2.26,0.09,-2.25,2.25,2.16,2.33,2.34,2.34
1197,0.10,-2.27,0.09,-2.27,2.27,2.16,2.38,2.37,2.37
1209,0.11,-2.29,0.10,-2.30,2.30,2.17,2.41,2.40,2.40
1221,0.12,-2.31,0.11,-2.33,2.33,2.18,2.45,2.43,2.43
1233,0.12,-2.34,0.11,-2.35,2.35,2.19,2.48,2.47,2.47
1246,0.11,-2.39,0.12,-2.38,2.38,2.20,2.50,2.50,2.50
1258,0.11,-2.42,0.12,-2.42,2.42,2.21,2.53,2.54,2.53
1271,0.11,-2.45,0.12,-2.45,2.45,2.23,2.56,2.57,2.56
1283,0.12,-2.48,0.12,-2.49,2.49,2.24,2.61,2.61,2.60
1296,0.11,-2.52,0.11,-2.53,2.53,2.26,2.64,2.64,2.63
1309,0.11,-2.56,0.10,-2.57,2.57,2.28,2.68,2.67,2.67
1322,0.11,-2.59,0.09,-2.62,2.62,2.30,2.73,2.71,2.71
1335,0.09,-2.65,0.08,-2.66,2.66,2.32,2.75,2.74,2.74
1349,0.08,-2.70,0.07,-2.70,2.70,2.34,2.79,2.77,2.78
1362,0.06,-2.76,0.06,-2.75,2.75,2.37,2.81,2.81,2.82
1376,0.04,-2.81,0.05,-2.79,2.79,2.40,2.83,2.85,2.86
1390,0.03,-2.86,0.05,-2.83,2.83,2.43,2.87,2.88,2.89
1404,0.02,-2.91,0.04,-2.87,2.87,2.46,2.90,2.92,2.93
1418,0.03,-2.94,0.04,-2.91,2.91,2.49,2.94,2.95,2.97
1432,0.04,-2.97,0.04,-2.94,2.94,2.52,2.99,2.98,3.01
1446,0.05,-3.00,0.05,-2.97,2.97,2.56,3.02,3.02,3.05
1461,0.06,-3.02,0.06,-3.00,3.00,2.60,3.06,3.06,3.09
1475,0.08,-3.04,0.08,-3.02,3.02,2.64,3.10,3.09,3.13
1490,0.10,-3.06,0.10,-3.03,3.03,2.69,3.13,3.13,3.16
1505,0.12,-3.08,0.13,-3.04,3.04,2.73,3.16,3.17,3.20
1520,0.16,-3.08,0.17,-3.04,3.04,2.78,3.21,3.21,3.25
1535,0.20,-3.09,0.21,-3.04,3.04,2.82,3.25,3.25,3.29
1550,0.24,-3.09,0.26,-3.04,3.04,2.87,3.28,3.29,3.33
1566,0.30,-3.07,0.31,-3.03,3.03,2.93,3.33,3.34,3.37
1582,0.36,-3.06,0.37,-3.01,3.01,2.98,3.38,3.39,3.42
1597,0.42,-3.04,0.44,-3.00,3.00,3.03,3.42,3.44,3.46
1613,0.49,-3.02,0.51,-2.98,2.98,3.09,3.47,3.49,3.51
1629,0.56,-2.99,0.58,-2.96,2.96,3.14,3.52,3.54,3.55
1646,0.64,-2.96,0.65,-2.94,2.94,3.20,3.58,3.59,3.60
1662,0.72,-2.92,0.72,-2.92,2.92,3.26,3.64,3.64,3.65
1679,0.81,-2.88,0.79,-2.91,2.91,3.32,3.72,3.70,3.69
1696,0.88,-2.86,0.85,-2.90,2.90,3.38,3.78,3.75,3.74
1713,0.94,-2.85,0.90,-2.89,2.89,3.43,3.83,3.79,3.79
1730,0.98,-2.85,0.95,-2.89,2.89,3.49,3.87,3.84,3.83
1747,1.01,-2.87,0.99,-2.90,2.90,3.55,3.91,3.89,3.88
1764,1.04,-2.89,1.03,-2.91,2.91,3.60,3.95,3.94,3.93
1782,1.05,-2.93,1.06,-2.92,2.92,3.65,3.98,3.98,3.98
1800,1.08,-2.95,1.09,-2.94,2.94,3.70,4.03,4.03,4.03
1818,1.09,-2.99,1.11,-2.97,2.97,3.75,4.06,4.08,4.09
1836,1.11,-3.03,1.14,-3.00,3.00,3.80,4.11,4.14,4.14
1854,1.12,-3.08,1.16,-3.03,3.03,3.84,4.15,4.19,4.20
1873,1.16,-3.10,1.19,-3.07,3.07,3.88,4.23,4.25,4.27
1892,1.19,-3.14,1.21,-3.10,3.10,3.91,4.30,4.32,4.33
1911,1.23,-3.17,1.24,-3.15,3.15,3.94,4.38,4.39,4.40
1930,1.26,-3.21,1.27,-3.21,3.21,3.97,4.47,4.48,4.47
1949,1.29,-3.26,1.29,-3.28,3.28,3.99,4.57,4.56,4.55
1969,1.30,-3.33,1.30,-3.35,3.35,4.01,4.65,4.65,4.63
1988,1.31,-3.40,1.31,-3.44,3.44,4.02,4.75,4.75,4.71
2008,1.32,-3.48,1.30,-3.54,3.54,4.03,4.86,4.84,4.80
