frequency,raw,error,smoothed,error_smoothed,equalization,parametric_eq,equalized_raw,equalized_smoothed,target
20,-0.47,-4.09,-0.51,-4.13,4.13,-0.37,3.66,3.62,3.62
21,0.12,-3.50,0.13,-3.48,3.48,-0.42,3.61,3.62,3.62
22,0.74,-2.87,0.75,-2.87,2.87,-0.47,3.61,3.62,3.62
23,1.31,-2.30,1.33,-2.28,2.28,-0.52,3.59,3.61,3.61
24,1.86,-1.75,1.89,-1.72,1.72,-0.57,3.59,3.61,3.61
25,2.39,-1.22,2.41,-1.20,1.20,-0.63,3.59,3.61,3.61
26,2.88,-0.72,2.90,-0.70,0.70,-0.69,3.59,3.61,3.61
27,3.35,-0.25,3.36,-0.24,0.24,-0.76,3.59,3.60,3.60
28,3.80,0.20,3.79,0.19,-0.19,-0.82,3.61,3.60,3.60
29,4.22,0.63,4.19,0.60,-0.60,-0.90,3.63,3.59,3.59
30,4.60,1.01,4.56,0.97,-0.97,-0.97,3.63,3.59,3.59
31,4.94,1.36,4.90,1.31,-1.31,-1.04,3.63,3.58,3.58
32,5.24,1.66,5.21,1.63,-1.63,-1.12,3.61,3.58,3.58
33,5.51,1.94,5.49,1.92,-1.92,-1.21,3.60,3.57,3.57
34,5.74,2.18,5.74,2.18,-2.18,-1.29,3.56,3.56,3.56
35,5.95,2.40,5.97,2.42,-2.42,-1.39,3.54,3.56,3.56
36,6.16,2.61,6.18,2.63,-2.63,-1.48,3.53,3.55,3.55
37,6.35,2.81,6.37,2.83,-2.83,-1.59,3.52,3.54,3.54
38,6.52,2.99,6.54,3.01,-3.01,-1.70,3.51,3.53,3.53
39,6.67,3.15,6.69,3.17,-3.17,-1.81,3.50,3.52,3.52
40,6.81,3.30,6.83,3.32,-3.32,-1.93,3.50,3.51,3.51
41,6.93,3.43,6.95,3.45,-3.45,-2.06,3.48,3.50,3.50
42,7.05,3.57,7.06,3.57,-3.57,-2.20,3.48,3.49,3.49
43,7.15,3.68,7.15,3.68,-3.68,-2.35,3.47,3.47,3.47
44,7.23,3.77,7.24,3.78,-3.78,-2.50,3.45,3.46,3.46
45,7.31,3.87,7.31,3.87,-3.87,-2.65,3.45,3.44,3.44
46,7.38,3.95,7.37,3.94,-3.94,-2.82,3.44,3.43,3.43
47,7.43,4.02,7.43,4.01,-4.01,-2.98,3.42,3.41,3.41
48,7.47,4.08,7.47,4.07,-4.07,-3.15,3.40,3.40,3.40
49,7.50,4.12,7.50,4.12,-4.12,-3.33,3.38,3.38,3.38
50,7.53,4.17,7.52,4.16,-4.16,-3.51,3.37,3.36,3.36
51,7.54,4.20,7.54,4.20,-4.20,-3.68,3.34,3.34,3.34
52,7.55,4.23,7.54,4.23,-4.23,-3.86,3.33,3.32,3.32
53,7.55,4.26,7.54,4.25,-4.25,-4.03,3.30,3.30,3.30
54,7.54,4.27,7.54,4.27,-4.27,-4.19,3.28,3.27,3.27
55,7.53,4.28,7.53,4.28,-4.28,-4.35,3.25,3.25,3.25
56,7.51,4.29,7.52,4.30,-4.30,-4.49,3.22,3.23,3.23
57,7.49,4.29,7.51,4.31,-4.31,-4.63,3.18,3.20,3.20
58,7.47,4.30,7.50,4.32,-4.32,-4.75,3.15,3.17,3.18
59,7.46,4.31,7.48,4.33,-4.33,-4.85,3.13,3.15,3.15
60,7.44,4.32,7.47,4.35,-4.35,-4.94,3.10,3.12,3.12
61,7.43,4.34,7.45,4.36,-4.36,-5.01,3.07,3.09,3.09
62,7.42,4.36,7.43,4.37,-4.37,-5.07,3.05,3.06,3.06
63,7.42,4.39,7.42,4.39,-4.39,-5.10,3.04,3.03,3.03
64,7.42,4.42,7.40,4.40,-4.40,-5.13,3.02,3.00,3.00
65,7.41,4.45,7.38,4.41,-4.41,-5.13,3.00,2.97,2.97
66,7.38,4.45,7.36,4.42,-4.42,-5.13,2.96,2.93,2.93
67,7.35,4.45,7.34,4.44,-4.44,-5.11,2.91,2.90,2.90
68,7.32,4.46,7.32,4.45,-4.45,-5.09,2.87,2.87,2.87
69,7.28,4.45,7.29,4.46,-4.46,-5.05,2.82,2.83,2.83
70,7.25,4.46,7.27,4.48,-4.48,-5.01,2.78,2.79,2.79
71,7.22,4.46,7.25,4.49,-4.49,-4.97,2.73,2.76,2.76
72,7.20,4.48,7.23,4.51,-4.51,-4.92,2.70,2.72,2.72
73,7.19,4.51,7.21,4.52,-4.52,-4.88,2.67,2.68,2.68
74,7.19,4.55,7.19,4.54,-4.54,-4.83,2.65,2.64,2.64
75,7.18,4.58,7.17,4.56,-4.56,-4.78,2.62,2.61,2.61
76,7.16,4.60,7.15,4.58,-4.58,-4.74,2.58,2.57,2.57
77,7.13,4.61,7.13,4.61,-4.61,-4.70,2.52,2.53,2.53
78,7.11,4.63,7.12,4.63,-4.63,-4.66,2.48,2.49,2.49
79,7.09,4.65,7.10,4.66,-4.66,-4.63,2.44,2.45,2.45
80,7.08,4.68,7.08,4.68,-4.68,-4.60,2.40,2.41,2.41
81,7.08,4.72,7.07,4.70,-4.70,-4.57,2.38,2.36,2.36
82,7.06,4.74,7.05,4.73,-4.73,-4.55,2.33,2.32,2.32
83,7.04,4.76,7.03,4.75,-4.75,-4.54,2.29,2.28,2.28
84,7.02,4.78,7.02,4.78,-4.78,-4.52,2.25,2.24,2.24
85,7.00,4.80,7.00,4.80,-4.80,-4.52,2.20,2.20,2.20
86,6.97,4.81,6.98,4.82,-4.82,-4.52,2.15,2.16,2.16
87,6.95,4.84,6.96,4.84,-4.84,-4.52,2.11,2.12,2.12
88,6.93,4.86,6.94,4.87,-4.87,-4.52,2.06,2.07,2.07
89,6.92,4.89,6.92,4.89,-4.89,-4.54,2.03,2.03,2.03
90,6.90,4.91,6.90,4.91,-4.91,-4.55,1.99,1.99,1.99
91,6.88,4.93,6.89,4.93,-4.93,-4.57,1.95,1.95,1.95
92,6.86,4.95,6.87,4.96,-4.96,-4.60,1.91,1.91,1.91
93,6.84,4.97,6.85,4.98,-4.98,-4.62,1.86,1.87,1.87
94,6.83,5.00,6.83,5.00,-5.00,-4.66,1.83,1.83,1.83
95,6.80,5.02,6.81,5.02,-5.02,-4.69,1.78,1.79,1.79
96,6.78,5.04,6.78,5.04,-5.04,-4.73,1.75,1.75,1.75
97,6.78,5.08,6.76,5.05,-5.05,-4.77,1.73,1.71,1.71
98,6.75,5.08,6.73,5.07,-5.07,-4.81,1.68,1.66,1.67
99,6.73,5.10,6.71,5.09,-5.09,-4.86,1.65,1.62,1.63
100,6.70,5.11,6.68,5.10,-5.10,-4.90,1.60,1.58,1.59
101,6.66,5.11,6.66,5.12,-5.12,-4.95,1.55,1.54,1.55
102,6.62,5.11,6.63,5.13,-5.13,-5.00,1.49,1.50,1.51
104,6.56,5.12,6.60,5.15,-5.15,-5.11,1.42,1.46,1.44
105,6.54,5.14,6.58,5.16,-5.16,-5.16,1.38,1.42,1.40
106,6.53,5.16,6.55,5.18,-5.18,-5.21,1.36,1.38,1.37
107,6.52,5.19,6.53,5.19,-5.19,-5.26,1.33,1.34,1.33
108,6.51,5.22,6.51,5.21,-5.21,-5.31,1.30,1.30,1.30
109,6.50,5.24,6.49,5.22,-5.22,-5.37,1.28,1.26,1.26
110,6.48,5.25,6.47,5.24,-5.24,-5.41,1.24,1.23,1.23
111,6.46,5.27,6.45,5.26,-5.26,-5.46,1.21,1.19,1.20
112,6.44,5.28,6.43,5.27,-5.27,-5.51,1.17,1.16,1.16
113,6.42,5.29,6.41,5.29,-5.29,-5.55,1.14,1.12,1.13
114,6.39,5.29,6.39,5.30,-5.30,-5.59,1.09,1.09,1.10
115,6.38,5.31,6.37,5.32,-5.32,-5.63,1.07,1.05,1.07
117,6.33,5.33,6.35,5.33,-5.33,-5.70,1.00,1.02,1.01
118,6.30,5.32,6.33,5.34,-5.34,-5.72,0.96,0.98,0.98
119,6.28,5.33,6.31,5.36,-5.36,-5.75,0.92,0.95,0.95
120,6.27,5.35,6.29,5.37,-5.37,-5.77,0.90,0.92,0.92
121,6.26,5.37,6.27,5.38,-5.38,-5.79,0.88,0.88,0.89
123,6.25,5.41,6.25,5.40,-5.40,-5.81,0.86,0.85,0.84
124,6.25,5.44,6.22,5.41,-5.41,-5.81,0.85,0.82,0.81
125,6.23,5.45,6.20,5.41,-5.41,-5.81,0.82,0.79,0.79
126,6.21,5.45,6.17,5.42,-5.42,-5.81,0.79,0.75,0.76
128,6.15,5.44,6.15,5.43,-5.43,-5.79,0.73,0.72,0.71
129,6.11,5.42,6.12,5.43,-5.43,-5.78,0.68,0.69,0.69
130,6.07,5.41,6.09,5.43,-5.43,-5.76,0.64,0.66,0.67
131,6.04,5.40,6.07,5.43,-5.43,-5.74,0.61,0.63,0.64
133,6.00,5.40,6.04,5.43,-5.43,-5.69,0.57,0.61,0.60
134,6.00,5.42,6.01,5.43,-5.43,-5.67,0.57,0.58,0.58
135,5.99,5.43,5.98,5.43,-5.43,-5.64,0.57,0.55,0.56
137,5.97,5.45,5.95,5.42,-5.42,-5.57,0.55,0.52,0.52
138,5.94,5.44,5.92,5.42,-5.42,-5.54,0.52,0.50,0.50
140,5.89,5.43,5.89,5.42,-5.42,-5.46,0.48,0.47,0.46
141,5.85,5.41,5.86,5.41,-5.41,-5.42,0.44,0.45,0.45
142,5.82,5.39,5.82,5.40,-5.40,-5.38,0.42,0.42,0.43
144,5.76,5.37,5.79,5.40,-5.40,-5.30,0.37,0.40,0.39
145,5.74,5.36,5.76,5.39,-5.39,-5.26,0.35,0.37,0.38
147,5.71,5.37,5.73,5.38,-5.38,-5.18,0.34,0.35,0.35
148,5.70,5.37,5.69,5.36,-5.36,-5.14,0.34,0.33,0.33
150,5.67,5.37,5.66,5.35,-5.35,-5.07,0.32,0.31,0.30
151,5.65,5.36,5.62,5.34,-5.34,-5.03,0.32,0.28,0.29
153,5.60,5.34,5.58,5.32,-5.32,-4.95,0.28,0.26,0.26
154,5.56,5.32,5.54,5.30,-5.30,-4.92,0.26,0.24,0.25
156,5.48,5.26,5.51,5.28,-5.28,-4.85,0.20,0.22,0.22
157,5.45,5.24,5.46,5.26,-5.26,-4.82,0.19,0.21,0.21
159,5.38,5.20,5.42,5.24,-5.24,-4.76,0.15,0.19,0.18
160,5.36,5.19,5.38,5.21,-5.21,-4.73,0.15,0.17,0.17
162,5.32,5.17,5.33,5.18,-5.18,-4.67,0.14,0.15,0.15
164,5.28,5.15,5.29,5.15,-5.15,-4.62,0.13,0.13,0.13
165,5.26,5.14,5.24,5.12,-5.12,-4.60,0.14,0.12,0.12
167,5.21,5.11,5.18,5.08,-5.08,-4.56,0.13,0.10,0.10
169,5.14,5.06,5.13,5.04,-5.04,-4.52,0.10,0.09,0.08
170,5.10,5.03,5.07,5.00,-5.00,-4.50,0.10,0.07,0.07
172,5.01,4.96,5.01,4.95,-4.95,-4.47,0.06,0.06,0.06
174,4.93,4.89,4.94,4.90,-4.90,-4.45,0.03,0.04,0.04
175,4.89,4.86,4.87,4.85,-4.85,-4.44,0.05,0.03,0.03
177,4.80,4.79,4.80,4.79,-4.79,-4.42,0.01,0.01,0.01
179,4.71,4.71,4.73,4.73,-4.73,-4.41,-0.01,0.00,0.00
181,4.62,4.64,4.65,4.66,-4.66,-4.40,-0.04,-0.01,-0.01
183,4.54,4.57,4.57,4.59,-4.59,-4.40,-0.05,-0.02,-0.03
184,4.50,4.54,4.48,4.52,-4.52,-4.40,-0.02,-0.04,-0.03
186,4.43,4.48,4.40,4.45,-4.45,-4.40,-0.01,-0.05,-0.05
188,4.37,4.43,4.31,4.37,-4.37,-4.40,-0.00,-0.06,-0.06
190,4.29,4.36,4.23,4.30,-4.30,-4.41,-0.01,-0.07,-0.07
192,4.20,4.28,4.15,4.23,-4.23,-4.42,-0.03,-0.08,-0.08
194,4.12,4.21,4.07,4.17,-4.17,-4.44,-0.04,-0.09,-0.09
196,4.02,4.12,4.01,4.11,-4.11,-4.46,-0.09,-0.10,-0.10
198,3.94,4.05,3.96,4.07,-4.07,-4.48,-0.13,-0.11,-0.11
200,3.88,4.00,3.93,4.05,-4.05,-4.50,-0.16,-0.12,-0.12
202,3.84,3.97,3.91,4.04,-4.04,-4.52,-0.20,-0.13,-0.13
204,3.83,3.97,3.92,4.06,-4.06,-4.55,-0.22,-0.14,-0.14
206,3.85,4.00,3.95,4.10,-4.10,-4.57,-0.24,-0.15,-0.15
208,3.88,4.04,4.00,4.16,-4.16,-4.60,-0.28,-0.15,-0.15
210,3.97,4.13,4.08,4.24,-4.24,-4.63,-0.27,-0.16,-0.16
212,4.08,4.25,4.17,4.34,-4.34,-4.65,-0.26,-0.17,-0.17
214,4.21,4.39,4.28,4.46,-4.46,-4.68,-0.25,-0.18,-0.18
216,4.36,4.54,4.40,4.58,-4.58,-4.71,-0.22,-0.18,-0.18
218,4.52,4.71,4.52,4.71,-4.71,-4.73,-0.19,-0.19,-0.19
221,4.74,4.94,4.64,4.83,-4.83,-4.77,-0.09,-0.20,-0.20
223,4.86,5.06,4.74,4.94,-4.94,-4.79,-0.08,-0.20,-0.20
225,4.94,5.15,4.83,5.04,-5.04,-4.81,-0.10,-0.21,-0.21
227,5.01,5.23,4.91,5.12,-5.12,-4.83,-0.11,-0.21,-0.21
229,5.05,5.27,4.96,5.18,-5.18,-4.84,-0.13,-0.22,-0.22
232,5.06,5.29,4.99,5.21,-5.21,-4.86,-0.15,-0.23,-0.23
234,5.04,5.27,4.99,5.22,-5.22,-4.87,-0.18,-0.23,-0.23
236,5.01,5.25,4.97,5.21,-5.21,-4.87,-0.20,-0.24,-0.23
239,4.94,5.18,4.93,5.17,-5.17,-4.87,-0.23,-0.24,-0.24
241,4.87,5.12,4.88,5.12,-5.12,-4.86,-0.25,-0.25,-0.25
244,4.77,5.02,4.81,5.06,-5.06,-4.85,-0.28,-0.25,-0.25
246,4.69,4.95,4.73,4.98,-4.98,-4.83,-0.29,-0.25,-0.25
248,4.62,4.88,4.64,4.90,-4.90,-4.81,-0.28,-0.26,-0.26
251,4.50,4.76,4.55,4.81,-4.81,-4.78,-0.31,-0.26,-0.26
253,4.43,4.70,4.46,4.72,-4.72,-4.75,-0.29,-0.27,-0.27
256,4.33,4.60,4.37,4.64,-4.64,-4.70,-0.30,-0.27,-0.27
259,4.23,4.51,4.28,4.55,-4.55,-4.64,-0.32,-0.27,-0.27
261,4.17,4.45,4.19,4.47,-4.47,-4.60,-0.30,-0.28,-0.28
264,4.08,4.36,4.11,4.39,-4.39,-4.53,-0.31,-0.28,-0.28
266,4.03,4.32,4.03,4.31,-4.31,-4.48,-0.28,-0.28,-0.28
269,3.95,4.24,3.95,4.24,-4.24,-4.40,-0.28,-0.29,-0.29
272,3.86,4.15,3.87,4.16,-4.16,-4.32,-0.30,-0.29,-0.29
274,3.81,4.11,3.80,4.09,-4.09,-4.26,-0.28,-0.29,-0.29
277,3.73,4.03,3.72,4.02,-4.02,-4.17,-0.28,-0.30,-0.30
280,3.64,3.94,3.64,3.94,-3.94,-4.08,-0.30,-0.30,-0.30
283,3.55,3.85,3.56,3.86,-3.86,-3.98,-0.31,-0.30,-0.30
286,3.46,3.77,3.48,3.78,-3.78,-3.88,-0.32,-0.30,-0.31
288,3.40,3.71,3.39,3.70,-3.70,-3.82,-0.30,-0.31,-0.31
291,3.31,3.62,3.30,3.61,-3.61,-3.72,-0.30,-0.31,-0.31
294,3.21,3.52,3.21,3.52,-3.52,-3.62,-0.31,-0.31,-0.31
297,3.11,3.43,3.11,3.42,-3.42,-3.51,-0.31,-0.31,-0.31
300,3.01,3.33,3.00,3.32,-3.32,-3.41,-0.30,-0.32,-0.32
303,2.90,3.22,2.89,3.20,-3.20,-3.31,-0.30,-0.32,-0.32
306,2.79,3.11,2.77,3.09,-3.09,-3.21,-0.29,-0.32,-0.32
309,2.67,2.99,2.64,2.96,-2.96,-3.12,-0.29,-0.32,-0.32
312,2.54,2.87,2.51,2.83,-2.83,-3.02,-0.29,-0.32,-0.32
316,2.37,2.70,2.37,2.69,-2.69,-2.89,-0.32,-0.33,-0.33
319,2.23,2.56,2.23,2.55,-2.55,-2.80,-0.32,-0.33,-0.33
322,2.10,2.43,2.08,2.41,-2.41,-2.70,-0.31,-0.33,-0.33
325,1.96,2.29,1.94,2.27,-2.27,-2.61,-0.31,-0.33,-0.33
328,1.82,2.15,1.80,2.13,-2.13,-2.52,-0.31,-0.33,-0.33
332,1.64,1.98,1.66,2.00,-2.00,-2.41,-0.35,-0.33,-0.33
335,1.51,1.85,1.53,1.87,-1.87,-2.32,-0.35,-0.33,-0.33
338,1.40,1.74,1.41,1.75,-1.75,-2.24,-0.35,-0.34,-0.34
342,1.26,1.60,1.30,1.64,-1.64,-2.13,-0.38,-0.34,-0.34
345,1.16,1.50,1.21,1.54,-1.54,-2.05,-0.38,-0.34,-0.34
349,1.05,1.39,1.12,1.46,-1.46,-1.95,-0.41,-0.34,-0.34
352,0.99,1.33,1.05,1.39,-1.39,-1.87,-0.40,-0.34,-0.34
356,0.94,1.28,0.99,1.33,-1.33,-1.78,-0.39,-0.34,-0.34
359,0.93,1.28,0.94,1.29,-1.29,-1.70,-0.35,-0.34,-0.34
363,0.91,1.26,0.90,1.25,-1.25,-1.61,-0.34,-0.34,-0.34
366,0.90,1.25,0.87,1.22,-1.22,-1.54,-0.32,-0.35,-0.35
370,0.89,1.24,0.85,1.20,-1.20,-1.46,-0.31,-0.35,-0.35
374,0.87,1.22,0.83,1.18,-1.18,-1.37,-0.31,-0.35,-0.35
377,0.86,1.21,0.82,1.17,-1.17,-1.31,-0.31,-0.35,-0.35
381,0.83,1.18,0.81,1.16,-1.16,-1.23,-0.33,-0.35,-0.35
385,0.82,1.17,0.80,1.15,-1.15,-1.15,-0.33,-0.35,-0.35
389,0.80,1.16,0.80,1.15,-1.15,-1.07,-0.35,-0.35,-0.35
393,0.79,1.15,0.80,1.15,-1.15,-1.00,-0.36,-0.36,-0.36
397,0.78,1.14,0.80,1.16,-1.16,-0.92,-0.37,-0.36,-0.36
401,0.79,1.15,0.81,1.16,-1.16,-0.85,-0.37,-0.36,-0.36
405,0.79,1.15,0.82,1.18,-1.18,-0.78,-0.38,-0.36,-0.36
409,0.81,1.17,0.83,1.20,-1.20,-0.72,-0.38,-0.36,-0.36
413,0.83,1.19,0.86,1.22,-1.22,-0.65,-0.39,-0.36,-0.36
417,0.86,1.22,0.89,1.25,-1.25,-0.59,-0.39,-0.36,-0.36
421,0.90,1.26,0.92,1.28,-1.28,-0.53,-0.38,-0.36,-0.36
425,0.94,1.30,0.96,1.32,-1.32,-0.47,-0.38,-0.36,-0.36
430,0.99,1.35,1.00,1.36,-1.36,-0.40,-0.37,-0.36,-0.36
434,1.03,1.39,1.04,1.40,-1.40,-0.34,-0.37,-0.36,-0.36
438,1.07,1.43,1.08,1.44,-1.44,-0.29,-0.37,-0.36,-0.36
443,1.12,1.48,1.12,1.48,-1.48,-0.22,-0.35,-0.35,-0.35
447,1.15,1.50,1.15,1.50,-1.50,-0.17,-0.35,-0.35,-0.35
451,1.15,1.50,1.18,1.52,-1.52,-0.13,-0.37,-0.35,-0.35
456,1.16,1.50,1.18,1.52,-1.52,-0.07,-0.36,-0.34,-0.34
460,1.17,1.51,1.18,1.51,-1.51,-0.02,-0.34,-0.33,-0.34
465,1.18,1.51,1.15,1.48,-1.48,0.03,-0.30,-0.33,-0.33
470,1.16,1.48,1.11,1.43,-1.43,0.08,-0.27,-0.32,-0.32
474,1.12,1.43,1.04,1.35,-1.35,0.12,-0.23,-0.31,-0.31
479,1.04,1.34,0.95,1.25,-1.25,0.16,-0.21,-0.30,-0.30
484,0.91,1.20,0.83,1.12,-1.12,0.21,-0.21,-0.29,-0.29
489,0.75,1.03,0.70,0.98,-0.98,0.25,-0.22,-0.28,-0.28
494,0.58,0.85,0.54,0.80,-0.80,0.28,-0.22,-0.26,-0.27
499,0.38,0.63,0.36,0.61,-0.61,0.32,-0.23,-0.25,-0.25
504,0.17,0.41,0.17,0.41,-0.41,0.35,-0.24,-0.24,-0.24
509,-0.05,0.17,-0.03,0.19,-0.19,0.38,-0.24,-0.22,-0.22
514,-0.26,-0.06,-0.24,-0.04,0.04,0.41,-0.22,-0.20,-0.20
519,-0.47,-0.28,-0.45,-0.27,0.27,0.44,-0.20,-0.18,-0.18
524,-0.69,-0.52,-0.67,-0.50,0.50,0.47,-0.19,-0.16,-0.16
529,-0.89,-0.74,-0.87,-0.73,0.73,0.49,-0.16,-0.14,-0.14
535,-1.12,-1.00,-1.08,-0.95,0.95,0.52,-0.16,-0.12,-0.12
540,-1.30,-1.20,-1.27,-1.17,1.17,0.54,-0.13,-0.10,-0.10
545,-1.47,-1.39,-1.45,-1.37,1.37,0.56,-0.10,-0.08,-0.08
551,-1.65,-1.60,-1.61,-1.56,1.56,0.58,-0.08,-0.05,-0.05
556,-1.78,-1.75,-1.77,-1.74,1.74,0.60,-0.04,-0.03,-0.03
562,-1.92,-1.92,-1.90,-1.90,1.90,0.61,-0.02,-0.00,-0.00
568,-2.03,-2.05,-2.02,-2.05,2.05,0.63,0.02,0.03,0.03
573,-2.11,-2.16,-2.13,-2.18,2.18,0.65,0.07,0.05,0.05
579,-2.19,-2.27,-2.21,-2.29,2.29,0.66,0.10,0.08,0.08
585,-2.25,-2.36,-2.28,-2.39,2.39,0.68,0.14,0.11,0.11
591,-2.30,-2.44,-2.32,-2.46,2.46,0.70,0.16,0.14,0.14
596,-2.33,-2.50,-2.34,-2.51,2.51,0.71,0.19,0.17,0.17
602,-2.35,-2.55,-2.34,-2.54,2.54,0.72,0.20,0.20,0.20
608,-2.34,-2.57,-2.32,-2.55,2.55,0.74,0.21,0.23,0.23
615,-2.31,-2.57,-2.27,-2.53,2.53,0.75,0.22,0.26,0.26
621,-2.26,-2.55,-2.19,-2.49,2.49,0.77,0.23,0.30,0.30
627,-2.17,-2.50,-2.09,-2.42,2.42,0.78,0.25,0.33,0.33
633,-2.06,-2.42,-1.96,-2.32,2.32,0.80,0.26,0.36,0.36
639,-1.92,-2.31,-1.81,-2.20,2.20,0.81,0.29,0.40,0.40
646,-1.71,-2.14,-1.64,-2.07,2.07,0.83,0.36,0.43,0.43
652,-1.50,-1.96,-1.45,-1.92,1.92,0.85,0.42,0.47,0.47
659,-1.25,-1.75,-1.26,-1.76,1.76,0.87,0.51,0.50,0.50
665,-1.04,-1.57,-1.05,-1.59,1.59,0.88,0.55,0.54,0.54
672,-0.79,-1.36,-0.85,-1.43,1.43,0.90,0.64,0.57,0.57
679,-0.57,-1.18,-0.66,-1.27,1.27,0.92,0.70,0.61,0.61
686,-0.37,-1.01,-0.47,-1.12,1.12,0.94,0.75,0.65,0.65
692,-0.23,-0.91,-0.30,-0.99,0.99,0.96,0.76,0.68,0.68
699,-0.09,-0.81,-0.15,-0.87,0.87,0.99,0.79,0.72,0.72
706,0.03,-0.73,-0.02,-0.78,0.78,1.01,0.81,0.76,0.76
713,0.11,-0.69,0.10,-0.70,0.70,1.03,0.81,0.80,0.80
721,0.19,-0.64,0.19,-0.64,0.64,1.06,0.84,0.84,0.84
728,0.26,-0.61,0.27,-0.61,0.61,1.08,0.87,0.87,0.87
735,0.30,-0.61,0.32,-0.59,0.59,1.11,0.89,0.91,0.91
742,0.35,-0.60,0.36,-0.59,0.59,1.13,0.94,0.95,0.95
750,0.39,-0.60,0.38,-0.61,0.61,1.16,1.00,0.99,0.99
757,0.41,-0.61,0.39,-0.63,0.63,1.19,1.05,1.02,1.02
765,0.40,-0.66,0.39,-0.67,0.67,1.22,1.08,1.06,1.06
773,0.39,-0.71,0.38,-0.72,0.72,1.25,1.12,1.10,1.10
780,0.36,-0.77,0.35,-0.78,0.78,1.28,1.14,1.13,1.13
788,0.34,-0.83,0.33,-0.84,0.84,1.31,1.18,1.17,1.17
796,0.30,-0.90,0.30,-0.91,0.91,1.35,1.21,1.21,1.21
804,0.24,-1.00,0.26,-0.98,0.98,1.38,1.22,1.24,1.24
812,0.21,-1.06,0.23,-1.05,1.05,1.41,1.26,1.27,1.27
820,0.16,-1.15,0.19,-1.11,1.11,1.44,1.27,1.31,1.31
828,0.11,-1.23,0.16,-1.18,1.18,1.48,1.29,1.34,1.34
837,0.09,-1.28,0.13,-1.24,1.24,1.51,1.33,1.37,1.37
845,0.07,-1.33,0.11,-1.30,1.30,1.55,1.37,1.40,1.40
853,0.06,-1.37,0.08,-1.35,1.35,1.58,1.41,1.43,1.43
862,0.06,-1.40,0.06,-1.40,1.40,1.62,1.46,1.46,1.46
871,0.07,-1.42,0.04,-1.45,1.45,1.65,1.52,1.49,1.49
879,0.06,-1.46,0.03,-1.49,1.49,1.68,1.56,1.52,1.52
888,0.04,-1.51,0.01,-1.54,1.54,1.72,1.58,1.55,1.55
897,0.02,-1.56,-0.00,-1.58,1.58,1.75,1.60,1.58,1.58
906,0.01,-1.60,-0.01,-1.62,1.62,1.78,1.63,1.61,1.61
915,-0.02,-1.65,-0.02,-1.66,1.66,1.81,1.64,1.63,1.63
924,-0.04,-1.70,-0.03,-1.69,1.69,1.84,1.65,1.66,1.66
933,-0.06,-1.75,-0.04,-1.73,1.73,1.87,1.67,1.69,1.69
943,-0.07,-1.78,-0.04,-1.76,1.76,1.90,1.69,1.72,1.72
952,-0.07,-1.81,-0.04,-1.79,1.79,1.92,1.72,1.74,1.74
962,-0.08,-1.85,-0.04,-1.81,1.81,1.95,1.73,1.77,1.77
971,-0.06,-1.85,-0.04,-1.83,1.83,1.97,1.77,1.80,1.80
981,-0.04,-1.86,-0.03,-1.85,1.85,2.00,1.82,1.82,1.82
991,-0.02,-1.87,-0.02,-1.87,1.87,2.02,1.85,1.85,1.85
1001,0.00,-1.87,-0.01,-1.89,1.89,2.04,1.89,1.88,1.88
1011,0.03,-1.87,-0.01,-1.91,1.91,2.05,1.94,1.90,1.90
1021,0.03,-1.90,0.00,-1.93,1.93,2.07,1.96,1.93,1.93
1031,0.03,-1.93,0.01,-1.95,1.95,2.08,1.98,1.96,1.96
1041,0.02,-1.96,0.02,-1.97,1.97,2.10,1.99,1.99,1.99
1052,0.02,-1.99,0.03,-1.99,1.99,2.11,2.01,2.01,2.01
1062,0.02,-2.02,0.03,-2.01,2.01,2.12,2.03,2.04,2.04
1073,0.02,-2.05,0.03,-2.04,2.04,2.13,2.06,2.07,2.07
1084,0.03,-2.07,0.04,-2.06,2.06,2.14,2.09,2.10,2.10
1094,0.04,-2.09,0.04,-2.09,2.09,2.15,2.13,2.13,2.13
1105,0.05,-2.11,0.05,-2.11,2.11,2.16,2.17,2.16,2.16
1116,0.05,-2.14,0.05,-2.14,2.14,2.16,2.19,2.19,2.19
1128,0.05,-2.17,0.05,-2.16,2.16,2.17,2.22,2.22,2.22
1139,0.05,-2.20,0.06,-2.19,2.19,2.18,2.24,2.25,2.25
1150,0.05,-2.23,0.07,-2.21,2.21,2.18,2.27,2.28,2.28
1162,0.06,-2.25,0.07,-2.24,2.24,2.19,2.30,2.31,2.31
1173,0.07,-2.27,0.08,-2.26,2.26,2.20,2.33,2.34,2.34
1185,0.08,-2.29,0.09,-2.29,2.29,2.20,2.37,2.38,2.38
1197,0.10,-2.31,0.10,-2.31,2.31,2.21,2.41,2.41,2.41
1209,0.11,-2.33,0.10,-2.34,2.34,2.22,2.45,2.44,2.44
1221,0.12,-2.35,0.11,-2.36,2.36,2.23,2.49,2.47,2.47
1233,0.12,-2.38,0.11,-2.39,2.39,2.24,2.52,2.51,2.51
1246,0.11,-2.43,0.12,-2.42,2.42,2.26,2.54,2.54,2.54
1258,0.11,-2.46,0.12,-2.46,2.46,2.27,2.57,2.57,2.57
1271,0.11,-2.50,0.12,-2.49,2.49,2.28,2.60,2.61,2.61
1283,0.12,-2.52,0.11,-2.53,2.53,2.30,2.65,2.64,2.64
1296,0.11,-2.57,0.11,-2.57,2.57,2.32,2.68,2.68,2.68
1309,0.11,-2.60,0.10,-2.61,2.61,2.34,2.73,2.71,2.71
1322,0.11,-2.64,0.09,-2.66,2.66,2.36,2.77,2.75,2.75
1335,0.09,-2.69,0.08,-2.70,2.70,2.38,2.80,2.78,2.78
1349,0.08,-2.74,0.07,-2.75,2.75,2.41,2.83,2.82,2.82
1362,0.06,-2.80,0.06,-2.80,2.80,2.43,2.86,2.86,2.86
1376,0.04,-2.85,0.05,-2.84,2.84,2.46,2.89,2.90,2.90
1390,0.03,-2.90,0.05,-2.89,2.89,2.50,2.92,2.93,2.93
1404,0.02,-2.95,0.04,-2.93,2.93,2.53,2.95,2.97,2.97
1418,0.03,-2.98,0.04,-2.97,2.97,2.56,3.00,3.01,3.01
1432,0.04,-3.01,0.04,-3.01,3.01,2.60,3.05,3.05,3.05
1446,0.05,-3.04,0.05,-3.04,3.04,2.64,3.09,3.09,3.09
1461,0.06,-3.07,0.06,-3.07,3.07,2.68,3.13,3.13,3.13
1475,0.08,-3.09,0.08,-3.09,3.09,2.72,3.17,3.17,3.17
1490,0.10,-3.11,0.10,-3.10,3.10,2.77,3.21,3.21,3.21
1505,0.12,-3.13,0.13,-3.12,3.12,2.82,3.24,3.25,3.25
1520,0.16,-3.13,0.17,-3.12,3.12,2.87,3.28,3.29,3.29
1535,0.20,-3.13,0.21,-3.12,3.12,2.92,3.32,3.33,3.33
1550,0.24,-3.13,0.26,-3.11,3.11,2.97,3.35,3.37,3.37
1566,0.30,-3.11,0.32,-3.10,3.10,3.02,3.40,3.42,3.42
1582,0.36,-3.10,0.38,-3.08,3.08,3.08,3.44,3.46,3.46
1597,0.42,-3.08,0.44,-3.06,3.06,3.13,3.48,3.50,3.50
1613,0.49,-3.05,0.51,-3.03,3.03,3.19,3.53,3.54,3.55
1629,0.56,-3.03,0.58,-3.01,3.01,3.25,3.57,3.59,3.59
1646,0.64,-2.99,0.65,-2.99,2.99,3.31,3.63,3.63,3.63
1662,0.72,-2.96,0.71,-2.96,2.96,3.37,3.69,3.68,3.68
1679,0.81,-2.91,0.78,-2.95,2.95,3.43,3.76,3.72,3.72
1696,0.88,-2.89,0.84,-2.93,2.93,3.49,3.81,3.77,3.77
1713,0.94,-2.88,0.89,-2.92,2.92,3.55,3.87,3.82,3.82
1730,0.98,-2.88,0.94,-2.92,2.92,3.61,3.90,3.86,3.87
1747,1.01,-2.90,0.98,-2.93,2.93,3.67,3.94,3.91,3.91
1764,1.04,-2.92,1.02,-2.94,2.94,3.72,3.98,3.96,3.96
1782,1.05,-2.96,1.06,-2.95,2.95,3.78,4.01,4.01,4.01
1800,1.08,-2.98,1.09,-2.97,2.97,3.83,4.06,4.06,4.07
1818,1.09,-3.03,1.12,-3.00,3.00,3.89,4.09,4.12,4.12
1836,1.11,-3.06,1.15,-3.03,3.03,3.93,4.14,4.17,4.18
1854,1.12,-3.11,1.17,-3.06,3.06,3.98,4.18,4.23,4.23
1873,1.16,-3.13,1.20,-3.09,3.09,4.02,4.25,4.29,4.29
1892,1.19,-3.16,1.23,-3.13,3.13,4.06,4.32,4.36,4.36
1911,1.23,-3.19,1.25,-3.17,3.17,4.09,4.40,4.42,4.42
1930,1.26,-3.23,1.27,-3.22,3.22,4.12,4.48,4.49,4.49
1949,1.29,-3.28,1.29,-3.28,3.28,4.15,4.57,4.57,4.57
1969,1.30,-3.35,1.30,-3.35,3.35,4.17,4.65,4.65,4.65
1988,1.31,-3.42,1.29,-3.44,3.44,4.18,4.75,4.74,4.73
