frequency,raw
20.00,16.83
20.20,16.83
20.40,16.83
20.61,16.83
20.81,16.83
21.02,16.83
21.23,16.81
21.44,16.79
21.66,16.76
21.87,16.74
22.09,16.73
22.31,16.73
22.54,16.73
22.76,16.73
22.99,16.73
23.22,16.69
23.45,16.64
23.69,16.59
23.92,16.55
24.16,16.53
24.40,16.53
24.65,16.53
24.89,16.53
25.14,16.52
25.39,16.51
25.65,16.50
25.91,16.49
26.16,16.46
26.43,16.42
26.69,16.38
26.96,16.34
27.23,16.33
27.50,16.33
27.77,16.33
28.05,16.32
28.33,16.26
28.62,16.21
28.90,16.15
29.19,16.12
29.48,16.10
29.78,16.08
30.08,16.07
30.38,16.05
30.68,16.04
30.99,16.03
31.30,16.00
31.61,15.97
31.93,15.94
32.24,15.91
32.57,15.87
32.89,15.84
33.22,15.81
33.55,15.77
33.89,15.73
34.23,15.70
34.57,15.66
34.92,15.63
35.27,15.59
35.62,15.56
35.97,15.52
36.33,15.49
36.70,15.45
37.06,15.42
37.43,15.41
37.81,15.40
38.19,15.38
38.57,15.35
38.95,15.32
39.34,15.28
39.74,15.24
40.14,15.20
40.54,15.16
40.94,15.13
41.35,15.08
41.76,15.04
42.18,15.00
42.60,14.96
43.03,14.92
43.46,14.88
43.90,14.85
44.33,14.82
44.78,14.79
45.23,14.74
45.68,14.67
46.13,14.62
46.60,14.61
47.06,14.60
47.53,14.51
48.01,14.42
48.49,14.42
48.97,14.41
49.46,14.34
49.96,14.28
50.46,14.25
50.96,14.22
51.47,14.18
51.99,14.14
52.51,14.07
53.03,14.01
53.56,13.99
54.10,13.97
54.64,13.90
55.18,13.83
55.74,13.76
56.29,13.72
56.86,13.71
57.42,13.68
58.00,13.63
58.58,13.56
59.16,13.50
59.76,13.48
60.35,13.41
60.96,13.32
61.57,13.28
62.18,13.23
62.80,13.17
63.43,13.13
64.07,13.11
64.71,13.10
65.35,13.06
66.01,13.00
66.67,12.94
67.33,12.88
68.01,12.81
68.69,12.69
69.37,12.62
70.07,12.61
70.77,12.60
71.48,12.56
72.19,12.49
72.91,12.42
73.64,12.35
74.38,12.28
75.12,12.23
75.87,12.20
76.63,12.14
77.40,12.06
78.17,12.00
78.95,11.98
79.74,11.85
80.54,11.80
81.35,11.79
82.16,11.76
82.98,11.70
83.81,11.57
84.65,11.50
85.50,11.44
86.35,11.36
87.22,11.29
88.09,11.24
88.97,11.19
89.86,11.11
90.76,11.05
91.66,10.99
92.58,10.92
93.51,10.90
94.44,10.90
95.39,10.81
96.34,10.69
97.30,10.70
98.28,10.64
99.26,10.47
100.25,10.43
101.25,10.31
102.27,10.20
103.29,10.17
104.32,10.09
105.37,9.96
106.42,9.93
107.48,9.82
108.56,9.69
109.64,9.68
110.74,9.57
111.85,9.43
112.97,9.42
114.10,9.37
115.24,9.23
116.39,9.20
117.55,9.15
118.73,9.04
119.92,9.04
121.12,8.97
122.33,8.88
123.55,8.85
124.79,8.80
126.03,8.65
127.29,8.68
128.57,8.64
129.85,8.46
131.15,8.39
132.46,8.39
133.79,8.33
135.12,8.29
136.48,8.23
137.84,8.15
139.22,8.09
140.61,8.02
142.02,7.97
143.44,7.85
144.87,7.77
146.32,7.72
147.78,7.64
149.26,7.57
150.75,7.51
152.26,7.44
153.78,7.35
155.32,7.22
156.88,7.20
158.44,7.21
160.03,7.10
161.63,7.00
163.24,7.00
164.88,6.91
166.53,6.79
168.19,6.75
169.87,6.68
171.57,6.58
173.29,6.56
175.02,6.43
176.77,6.36
178.54,6.38
180.32,6.26
182.13,6.09
183.95,5.93
185.79,5.97
187.65,6.00
189.52,5.86
191.42,5.82
193.33,5.84
195.27,5.73
197.22,5.65
199.19,5.63
201.18,5.55
203.19,5.42
205.23,5.39
207.28,5.34
209.35,5.30
211.44,5.29
213.56,5.13
215.69,5.01
217.85,4.97
220.03,4.94
222.23,4.87
224.45,4.69
226.70,4.66
228.96,4.70
231.25,4.52
233.57,4.45
235.90,4.47
238.26,4.39
240.64,4.35
243.05,4.30
245.48,4.18
247.93,4.18
250.41,4.20
252.92,4.03
255.45,3.94
258.00,3.95
260.58,3.90
263.19,3.85
265.82,3.76
268.48,3.70
271.16,3.65
273.87,3.56
276.61,3.51
279.38,3.44
282.17,3.37
284.99,3.32
287.84,3.21
290.72,3.16
293.63,3.08
296.57,3.04
299.53,3.00
302.53,2.93
305.55,2.89
308.61,2.83
311.69,2.77
314.81,2.71
317.96,2.63
321.14,2.50
324.35,2.40
327.59,2.44
330.87,2.40
334.18,2.23
337.52,2.21
340.90,2.15
344.30,2.06
347.75,2.03
351.23,1.97
354.74,1.92
358.28,1.85
361.87,1.79
365.49,1.75
369.14,1.67
372.83,1.61
376.56,1.57
380.33,1.50
384.13,1.46
387.97,1.40
391.85,1.33
395.77,1.28
399.73,1.21
403.72,1.14
407.76,1.09
411.84,0.95
415.96,0.94
420.12,0.97
424.32,0.78
428.56,0.78
432.85,0.84
437.18,0.67
441.55,0.61
445.96,0.69
450.42,0.73
454.93,0.73
459.48,0.71
464.07,0.71
468.71,0.71
473.40,0.70
478.13,0.68
482.91,0.59
487.74,0.69
492.62,0.66
497.55,0.56
502.52,0.64
507.55,0.50
512.62,0.37
517.75,0.40
522.93,0.48
528.16,0.48
533.44,0.22
538.77,0.08
544.16,0.11
549.60,0.14
555.10,0.05
560.65,-0.25
566.25,-0.26
571.92,-0.22
577.64,-0.50
583.41,-0.59
589.25,-0.63
595.14,-0.71
601.09,-0.87
607.10,-0.86
613.17,-0.78
619.30,-0.68
625.50,-0.74
631.75,-0.87
638.07,-0.81
644.45,-0.64
650.89,-0.60
657.40,-0.63
663.98,-0.66
670.62,-0.79
677.32,-0.76
684.10,-0.75
690.94,-0.80
697.85,-0.72
704.83,-0.67
711.87,-0.66
718.99,-0.67
726.18,-0.68
733.44,-0.70
740.78,-0.73
748.19,-0.68
755.67,-0.76
763.23,-0.94
770.86,-0.95
778.57,-0.86
786.35,-0.85
794.22,-0.85
802.16,-0.85
810.18,-0.84
818.28,-0.84
826.46,-0.86
834.73,-0.88
843.08,-0.79
851.51,-0.78
860.02,-0.69
868.62,-0.62
877.31,-0.57
886.08,-0.50
894.94,-0.47
903.89,-0.48
912.93,-0.50
922.06,-0.51
931.28,-0.42
940.59,-0.32
950.00,-0.28
959.50,-0.22
969.09,-0.18
978.78,-0.12
988.57,-0.06
998.46,-0.01
1008.44,0.07
1018.53,0.11
1028.71,0.13
1039.00,0.16
1049.39,0.19
1059.88,0.26
1070.48,0.44
1081.19,0.53
1092.00,0.58
1102.92,0.64
1113.95,0.70
1125.09,0.76
1136.34,0.84
1147.70,0.92
1159.18,0.92
1170.77,0.98
1182.48,1.09
1194.30,1.21
1206.25,1.23
1218.31,1.23
1230.49,1.35
1242.80,1.49
1255.22,1.58
1267.78,1.58
1280.45,1.66
1293.26,1.76
1306.19,1.83
1319.25,1.93
1332.45,1.99
1345.77,2.01
1359.23,2.08
1372.82,2.25
1386.55,2.35
1400.41,2.34
1414.42,2.47
1428.56,2.54
1442.85,2.56
1457.28,2.64
1471.85,2.76
1486.57,2.86
1501.43,2.95
1516.45,3.04
1531.61,3.11
1546.93,3.19
1562.40,3.22
1578.02,3.28
1593.80,3.46
1609.74,3.63
1625.84,3.72
1642.10,3.85
1658.52,3.94
1675.10,4.00
1691.85,4.14
1708.77,4.35
1725.86,4.45
1743.12,4.51
1760.55,4.68
1778.15,4.82
1795.94,4.93
1813.90,5.04
1832.03,5.15
1850.36,5.28
1868.86,5.40
1887.55,5.53
1906.42,5.66
1925.49,5.79
1944.74,5.93
1964.19,6.06
1983.83,6.27
2003.67,6.41
2023.71,6.60
2043.94,6.78
2064.38,6.95
2085.03,7.11
2105.88,7.34
2126.94,7.54
2148.20,7.78
2169.69,8.00
2191.38,8.19
2213.30,8.43
2235.43,8.66
2257.78,8.87
2280.36,9.09
2303.17,9.32
2326.20,9.55
2349.46,9.78
2372.95,10.00
2396.68,10.19
2420.65,10.39
2444.86,10.57
2469.31,10.79
2494.00,11.01
2518.94,11.23
2544.13,11.44
2569.57,11.64
2595.27,11.82
2621.22,12.05
2647.43,12.39
2673.90,12.62
2700.64,12.79
2727.65,12.99
2754.93,13.16
2782.48,13.25
2810.30,13.37
2838.40,13.47
2866.79,13.52
2895.46,13.52
2924.41,13.54
2953.65,13.60
2983.19,13.60
3013.02,13.65
3043.15,13.74
3073.58,13.84
3104.32,13.81
3135.36,13.76
3166.72,13.72
3198.38,13.66
3230.37,13.56
3262.67,13.38
3295.30,13.23
3328.25,13.03
3361.53,12.83
3395.15,12.59
3429.10,12.33
3463.39,12.09
3498.03,11.90
3533.01,11.73
3568.34,11.66
3604.02,11.65
3640.06,11.56
3676.46,11.49
3713.22,11.30
3750.36,11.06
3787.86,10.92
3825.74,10.82
3864.00,10.77
3902.64,10.76
3941.66,10.77
3981.08,10.78
4020.89,10.82
4061.10,10.99
4101.71,11.14
4142.73,11.26
4184.15,11.32
4226.00,11.37
4268.26,11.47
4310.94,11.52
4354.05,11.58
4397.59,11.63
4441.56,11.69
4485.98,11.70
4530.84,11.67
4576.15,11.60
4621.91,11.47
4668.13,11.19
4714.81,10.92
4761.96,10.65
4809.58,10.29
4857.67,10.07
4906.25,10.09
4955.31,10.01
5004.87,9.79
5054.91,9.55
5105.46,9.10
5156.52,8.49
5208.08,7.93
5260.16,7.51
5312.77,7.02
5365.89,6.44
5419.55,6.08
5473.75,5.73
5528.49,5.19
5583.77,4.73
5639.61,4.19
5696.00,3.49
5752.96,3.07
5810.49,2.65
5868.60,2.14
5927.28,1.61
5986.56,1.12
6046.42,0.72
6106.89,0.37
6167.96,0.03
6229.64,-0.35
6291.93,-0.69
6354.85,-1.00
6418.40,-1.36
6482.58,-1.71
6547.41,-2.09
6612.88,-2.41
6679.01,-2.71
6745.80,-3.04
6813.26,-3.34
6881.39,-3.51
6950.21,-3.62
7019.71,-3.78
7089.91,-3.87
7160.81,-3.97
7232.41,-4.07
7304.74,-4.25
7377.79,-4.42
7451.56,-4.50
7526.08,-4.73
7601.34,-4.80
7677.35,-4.73
7754.13,-4.71
7831.67,-4.69
7909.98,-4.60
7989.08,-4.59
8068.98,-4.41
8149.67,-4.10
8231.16,-3.53
8313.47,-3.02
8396.61,-2.71
8480.57,-2.46
8565.38,-2.31
8651.03,-2.06
8737.54,-2.19
8824.92,-2.46
8913.17,-2.38
9002.30,-2.03
9092.32,-1.72
9183.25,-1.53
9275.08,-1.31
9367.83,-0.72
9461.51,0.09
9556.12,0.79
9651.68,1.42
9748.20,2.01
9845.68,2.47
9944.14,2.62
10043.58,2.68
10144.02,3.22
10245.46,3.86
10347.91,4.15
10451.39,3.61
10555.91,2.83
10661.46,2.78
10768.08,2.82
10875.76,2.59
10984.52,1.98
11094.36,1.34
11205.31,0.71
11317.36,0.28
11430.53,-0.49
11544.84,-1.41
11660.29,-1.83
11776.89,-2.35
11894.66,-3.17
12013.60,-3.74
12133.74,-4.14
12255.08,-4.57
12377.63,-4.90
12501.41,-5.30
12626.42,-5.38
12752.68,-5.22
12880.21,-5.19
13009.01,-5.24
13139.10,-4.83
13270.49,-4.71
13403.20,-4.34
13537.23,-3.82
13672.60,-2.62
13809.33,-2.01
13947.42,-1.23
14086.90,-0.42
14227.77,0.11
14370.04,-0.02
14513.74,-0.66
14658.88,-1.18
14805.47,-1.68
14953.52,-2.72
15103.06,-4.00
15254.09,-4.91
15406.63,-5.87
15560.70,-6.92
15716.30,-7.59
15873.47,-8.56
16032.20,-9.16
16192.52,-9.06
16354.45,-8.19
16517.99,-7.24
16683.17,-6.58
16850.01,-6.02
17018.51,-5.01
17188.69,-4.22
17360.58,-4.00
17534.18,-4.28
17709.53,-4.52
17886.62,-4.06
18065.49,-3.74
18246.14,-3.97
18428.60,-5.58
18612.89,-6.92
18799.02,-7.86
18987.01,-9.28
19176.88,-10.38
19368.65,-11.56
19562.33,-12.51
19757.96,-13.30
19955.54,-13.93
