frequency,raw,error,smoothed,error_smoothed,equalization,parametric_eq,equalized_raw,equalized_smoothed,target
20,-5.53,-5.77,-5.56,-5.78,5.78,1.23,0.25,0.22,0.24
21,-5.12,-5.36,-5.11,-5.34,5.34,1.44,0.22,0.23,0.24
22,-4.74,-4.98,-4.69,-4.92,4.92,1.66,0.17,0.23,0.23
23,-4.29,-4.52,-4.30,-4.52,4.52,1.91,0.23,0.23,0.23
24,-3.90,-4.13,-3.93,-4.15,4.15,2.16,0.25,0.23,0.23
25,-3.58,-3.81,-3.58,-3.80,3.80,2.43,0.22,0.22,0.23
26,-3.24,-3.47,-3.26,-3.48,3.48,2.69,0.24,0.22,0.22
27,-3.00,-3.22,-2.97,-3.19,3.19,2.93,0.18,0.22,0.22
28,-2.76,-2.98,-2.70,-2.92,2.92,3.14,0.15,0.22,0.22
29,-2.42,-2.63,-2.46,-2.67,2.67,3.31,0.25,0.21,0.21
30,-2.16,-2.37,-2.24,-2.45,2.45,3.42,0.28,0.21,0.21
31,-1.99,-2.19,-2.05,-2.26,2.26,3.46,0.27,0.21,0.20
32,-1.83,-2.03,-1.90,-2.10,2.10,3.44,0.26,0.20,0.20
33,-1.76,-1.95,-1.77,-1.96,1.96,3.37,0.20,0.19,0.19
34,-1.71,-1.89,-1.67,-1.85,1.85,3.26,0.14,0.18,0.18
35,-1.60,-1.78,-1.58,-1.76,1.76,3.12,0.15,0.17,0.17
36,-1.49,-1.66,-1.52,-1.68,1.68,2.95,0.19,0.16,0.17
37,-1.43,-1.59,-1.48,-1.63,1.63,2.78,0.19,0.15,0.16
38,-1.43,-1.58,-1.45,-1.59,1.59,2.60,0.15,0.14,0.15
39,-1.43,-1.57,-1.43,-1.55,1.55,2.43,0.12,0.12,0.14
40,-1.45,-1.58,-1.42,-1.53,1.53,2.26,0.07,0.11,0.13
41,-1.48,-1.60,-1.41,-1.50,1.50,2.10,0.02,0.10,0.12
42,-1.43,-1.54,-1.40,-1.48,1.48,1.95,0.05,0.09,0.10
43,-1.39,-1.48,-1.38,-1.46,1.46,1.82,0.07,0.08,0.09
44,-1.39,-1.47,-1.37,-1.44,1.44,1.69,0.05,0.07,0.08
45,-1.39,-1.46,-1.37,-1.42,1.42,1.57,0.02,0.05,0.06
46,-1.34,-1.39,-1.36,-1.40,1.40,1.46,0.05,0.03,0.05
47,-1.34,-1.37,-1.36,-1.37,1.37,1.36,0.03,0.02,0.03
48,-1.32,-1.34,-1.35,-1.35,1.35,1.27,0.02,0.00,0.01
49,-1.32,-1.32,-1.33,-1.32,1.32,1.18,-0.00,-0.01,-0.00
50,-1.29,-1.27,-1.32,-1.29,1.29,1.10,0.00,-0.02,-0.02
51,-1.29,-1.25,-1.30,-1.27,1.27,1.03,-0.03,-0.04,-0.04
52,-1.29,-1.23,-1.30,-1.24,1.24,0.96,-0.06,-0.06,-0.06
53,-1.29,-1.21,-1.28,-1.20,1.20,0.90,-0.09,-0.08,-0.09
54,-1.29,-1.19,-1.27,-1.16,1.16,0.84,-0.13,-0.11,-0.11
55,-1.29,-1.16,-1.26,-1.12,1.12,0.78,-0.17,-0.14,-0.13
56,-1.25,-1.10,-1.24,-1.07,1.07,0.73,-0.18,-0.17,-0.16
57,-1.20,-1.02,-1.22,-1.02,1.02,0.68,-0.19,-0.20,-0.18
58,-1.15,-0.95,-1.18,-0.95,0.95,0.64,-0.20,-0.22,-0.21
59,-1.11,-0.88,-1.14,-0.88,0.88,0.59,-0.23,-0.25,-0.23
60,-1.11,-0.85,-1.09,-0.80,0.80,0.55,-0.31,-0.28,-0.26
61,-1.08,-0.79,-1.02,-0.71,0.71,0.51,-0.37,-0.31,-0.29
62,-1.03,-0.71,-0.96,-0.62,0.62,0.47,-0.41,-0.34,-0.32
63,-0.95,-0.60,-0.89,-0.53,0.53,0.44,-0.43,-0.37,-0.35
64,-0.82,-0.44,-0.82,-0.43,0.43,0.40,-0.40,-0.40,-0.38
65,-0.73,-0.32,-0.76,-0.33,0.33,0.37,-0.40,-0.43,-0.42
66,-0.64,-0.19,-0.70,-0.24,0.24,0.33,-0.41,-0.46,-0.45
67,-0.60,-0.12,-0.64,-0.15,0.15,0.30,-0.46,-0.49,-0.48
68,-0.55,-0.04,-0.59,-0.06,0.06,0.27,-0.49,-0.53,-0.52
69,-0.50,0.05,-0.55,0.01,-0.01,0.24,-0.51,-0.56,-0.55
70,-0.48,0.11,-0.51,0.08,-0.08,0.21,-0.56,-0.59,-0.59
71,-0.48,0.14,-0.49,0.13,-0.13,0.18,-0.62,-0.62,-0.62
72,-0.48,0.18,-0.48,0.18,-0.18,0.15,-0.66,-0.66,-0.66
73,-0.48,0.22,-0.48,0.22,-0.22,0.12,-0.70,-0.70,-0.70
74,-0.50,0.24,-0.49,0.25,-0.25,0.10,-0.75,-0.74,-0.74
75,-0.50,0.27,-0.51,0.27,-0.27,0.07,-0.78,-0.78,-0.78
76,-0.55,0.26,-0.53,0.29,-0.29,0.04,-0.84,-0.82,-0.82
77,-0.55,0.30,-0.56,0.30,-0.30,0.01,-0.85,-0.86,-0.86
78,-0.60,0.29,-0.59,0.31,-0.31,-0.01,-0.91,-0.90,-0.90
79,-0.60,0.33,-0.62,0.32,-0.32,-0.04,-0.92,-0.94,-0.94
80,-0.64,0.33,-0.66,0.32,-0.32,-0.07,-0.97,-0.98,-0.98
81,-0.69,0.32,-0.69,0.33,-0.33,-0.09,-1.02,-1.02,-1.02
82,-0.74,0.32,-0.73,0.33,-0.33,-0.12,-1.07,-1.06,-1.06
83,-0.77,0.33,-0.77,0.33,-0.33,-0.15,-1.11,-1.10,-1.10
84,-0.82,0.32,-0.81,0.33,-0.33,-0.17,-1.16,-1.14,-1.14
85,-0.84,0.34,-0.85,0.34,-0.34,-0.20,-1.18,-1.18,-1.18
86,-0.88,0.34,-0.89,0.34,-0.34,-0.23,-1.22,-1.23,-1.23
87,-0.92,0.34,-0.93,0.34,-0.34,-0.25,-1.27,-1.27,-1.27
88,-0.96,0.35,-0.97,0.35,-0.35,-0.28,-1.31,-1.32,-1.31
89,-0.99,0.36,-1.00,0.36,-0.36,-0.30,-1.35,-1.36,-1.35
90,-1.02,0.37,-1.03,0.37,-0.37,-0.33,-1.39,-1.40,-1.39
91,-1.06,0.37,-1.06,0.39,-0.39,-0.36,-1.45,-1.44,-1.43
92,-1.11,0.36,-1.08,0.40,-0.40,-0.38,-1.52,-1.48,-1.47
93,-1.12,0.39,-1.10,0.42,-0.42,-0.41,-1.55,-1.52,-1.51
94,-1.15,0.40,-1.12,0.44,-0.44,-0.44,-1.60,-1.56,-1.56
95,-1.15,0.44,-1.13,0.47,-0.47,-0.46,-1.62,-1.60,-1.60
96,-1.15,0.48,-1.15,0.49,-0.49,-0.49,-1.64,-1.64,-1.64
97,-1.15,0.52,-1.17,0.51,-0.51,-0.52,-1.67,-1.68,-1.68
98,-1.15,0.56,-1.19,0.53,-0.53,-0.55,-1.69,-1.73,-1.71
99,-1.16,0.59,-1.21,0.56,-0.56,-0.57,-1.72,-1.77,-1.75
100,-1.19,0.60,-1.23,0.58,-0.58,-0.60,-1.77,-1.81,-1.79
101,-1.24,0.59,-1.25,0.59,-0.59,-0.62,-1.84,-1.85,-1.83
102,-1.27,0.60,-1.28,0.61,-0.61,-0.65,-1.88,-1.89,-1.87
104,-1.34,0.60,-1.30,0.62,-0.62,-0.70,-1.97,-1.93,-1.94
105,-1.34,0.64,-1.33,0.64,-0.64,-0.73,-1.98,-1.97,-1.98
106,-1.39,0.62,-1.36,0.65,-0.65,-0.75,-2.04,-2.01,-2.02
107,-1.39,0.66,-1.39,0.66,-0.66,-0.78,-2.05,-2.05,-2.05
108,-1.43,0.65,-1.42,0.67,-0.67,-0.80,-2.10,-2.09,-2.09
109,-1.43,0.69,-1.45,0.68,-0.68,-0.82,-2.11,-2.12,-2.12
110,-1.48,0.67,-1.47,0.69,-0.69,-0.85,-2.17,-2.16,-2.15
111,-1.48,0.70,-1.50,0.70,-0.70,-0.87,-2.18,-2.19,-2.19
112,-1.51,0.71,-1.52,0.71,-0.71,-0.89,-2.22,-2.23,-2.22
113,-1.53,0.72,-1.54,0.72,-0.72,-0.91,-2.25,-2.26,-2.25
114,-1.56,0.72,-1.56,0.73,-0.73,-0.93,-2.29,-2.29,-2.28
115,-1.57,0.74,-1.59,0.74,-0.74,-0.95,-2.32,-2.33,-2.31
117,-1.62,0.75,-1.61,0.75,-0.75,-0.99,-2.38,-2.36,-2.38
118,-1.62,0.78,-1.63,0.76,-0.76,-1.01,-2.39,-2.40,-2.40
119,-1.67,0.76,-1.66,0.77,-0.77,-1.02,-2.45,-2.43,-2.43
120,-1.67,0.79,-1.68,0.78,-0.78,-1.04,-2.45,-2.47,-2.46
121,-1.70,0.79,-1.71,0.79,-0.79,-1.05,-2.49,-2.50,-2.49
123,-1.72,0.82,-1.74,0.80,-0.80,-1.08,-2.52,-2.54,-2.54
124,-1.76,0.81,-1.76,0.81,-0.81,-1.09,-2.57,-2.57,-2.57
125,-1.76,0.83,-1.78,0.82,-0.82,-1.10,-2.58,-2.60,-2.60
126,-1.79,0.83,-1.80,0.83,-0.83,-1.11,-2.63,-2.63,-2.62
128,-1.82,0.85,-1.82,0.85,-0.85,-1.13,-2.67,-2.67,-2.67
129,-1.85,0.84,-1.83,0.87,-0.87,-1.14,-2.72,-2.70,-2.69
130,-1.85,0.86,-1.84,0.89,-0.89,-1.15,-2.74,-2.73,-2.72
131,-1.85,0.88,-1.84,0.91,-0.91,-1.16,-2.77,-2.75,-2.74
133,-1.85,0.93,-1.84,0.94,-0.94,-1.17,-2.80,-2.78,-2.78
134,-1.85,0.95,-1.84,0.98,-0.98,-1.17,-2.83,-2.81,-2.80
135,-1.81,1.01,-1.83,1.01,-1.01,-1.18,-2.83,-2.84,-2.82
137,-1.81,1.05,-1.81,1.05,-1.05,-1.19,-2.86,-2.86,-2.86
138,-1.81,1.07,-1.80,1.09,-1.09,-1.19,-2.90,-2.89,-2.88
140,-1.76,1.16,-1.78,1.13,-1.13,-1.20,-2.90,-2.91,-2.92
141,-1.76,1.17,-1.76,1.18,-1.18,-1.20,-2.94,-2.94,-2.94
142,-1.73,1.22,-1.74,1.22,-1.22,-1.21,-2.95,-2.96,-2.95
144,-1.71,1.28,-1.73,1.26,-1.26,-1.21,-2.97,-2.99,-2.99
145,-1.71,1.29,-1.71,1.30,-1.30,-1.22,-3.01,-3.01,-3.00
147,-1.67,1.36,-1.70,1.33,-1.33,-1.22,-3.01,-3.03,-3.04
148,-1.67,1.38,-1.69,1.37,-1.37,-1.22,-3.04,-3.06,-3.05
150,-1.67,1.41,-1.68,1.40,-1.40,-1.23,-3.08,-3.08,-3.08
151,-1.67,1.42,-1.67,1.43,-1.43,-1.24,-3.11,-3.10,-3.10
153,-1.67,1.45,-1.66,1.46,-1.46,-1.24,-3.14,-3.12,-3.12
154,-1.67,1.46,-1.65,1.49,-1.49,-1.25,-3.17,-3.14,-3.14
156,-1.62,1.54,-1.64,1.52,-1.52,-1.26,-3.14,-3.16,-3.16
157,-1.62,1.55,-1.63,1.55,-1.55,-1.26,-3.17,-3.18,-3.17
159,-1.62,1.57,-1.62,1.58,-1.58,-1.27,-3.20,-3.20,-3.20
160,-1.62,1.59,-1.61,1.60,-1.60,-1.28,-3.23,-3.22,-3.21
162,-1.62,1.61,-1.60,1.63,-1.63,-1.29,-3.25,-3.23,-3.23
164,-1.57,1.68,-1.59,1.66,-1.66,-1.31,-3.23,-3.25,-3.25
165,-1.57,1.69,-1.59,1.68,-1.68,-1.31,-3.25,-3.27,-3.26
167,-1.57,1.71,-1.58,1.71,-1.71,-1.33,-3.28,-3.28,-3.28
169,-1.57,1.73,-1.57,1.73,-1.73,-1.35,-3.30,-3.30,-3.30
170,-1.57,1.74,-1.56,1.75,-1.75,-1.36,-3.33,-3.31,-3.31
172,-1.53,1.79,-1.55,1.78,-1.78,-1.38,-3.31,-3.33,-3.33
174,-1.53,1.81,-1.54,1.80,-1.80,-1.40,-3.33,-3.34,-3.34
175,-1.53,1.82,-1.53,1.82,-1.82,-1.41,-3.36,-3.36,-3.35
177,-1.53,1.83,-1.52,1.85,-1.85,-1.43,-3.38,-3.37,-3.37
179,-1.53,1.85,-1.51,1.87,-1.87,-1.45,-3.40,-3.38,-3.38
181,-1.49,1.90,-1.51,1.89,-1.89,-1.48,-3.39,-3.40,-3.40
183,-1.48,1.93,-1.49,1.91,-1.91,-1.51,-3.40,-3.41,-3.41
184,-1.48,1.93,-1.48,1.94,-1.94,-1.52,-3.42,-3.42,-3.42
186,-1.48,1.95,-1.47,1.96,-1.96,-1.55,-3.44,-3.43,-3.43
188,-1.48,1.96,-1.46,1.98,-1.98,-1.57,-3.46,-3.44,-3.44
190,-1.43,2.02,-1.45,2.00,-2.00,-1.60,-3.44,-3.45,-3.45
192,-1.43,2.03,-1.44,2.02,-2.02,-1.63,-3.46,-3.46,-3.46
194,-1.43,2.04,-1.43,2.04,-2.04,-1.66,-3.48,-3.47,-3.47
196,-1.43,2.05,-1.42,2.06,-2.06,-1.70,-3.50,-3.48,-3.48
198,-1.39,2.10,-1.41,2.08,-2.08,-1.73,-3.48,-3.49,-3.49
200,-1.39,2.11,-1.40,2.10,-2.10,-1.76,-3.49,-3.51,-3.50
202,-1.39,2.12,-1.39,2.12,-2.12,-1.79,-3.51,-3.52,-3.51
204,-1.39,2.13,-1.39,2.14,-2.14,-1.82,-3.53,-3.52,-3.52
206,-1.39,2.14,-1.38,2.16,-2.16,-1.86,-3.55,-3.54,-3.53
208,-1.38,2.15,-1.37,2.18,-2.18,-1.89,-3.56,-3.55,-3.54
210,-1.36,2.18,-1.36,2.19,-2.19,-1.92,-3.56,-3.56,-3.54
212,-1.36,2.19,-1.35,2.21,-2.21,-1.95,-3.57,-3.56,-3.55
214,-1.34,2.22,-1.34,2.23,-2.23,-1.98,-3.57,-3.57,-3.56
216,-1.34,2.22,-1.33,2.24,-2.24,-2.01,-3.58,-3.57,-3.57
218,-1.34,2.23,-1.33,2.25,-2.25,-2.04,-3.59,-3.58,-3.57
221,-1.34,2.24,-1.33,2.25,-2.25,-2.08,-3.59,-3.58,-3.58
223,-1.34,2.24,-1.34,2.25,-2.25,-2.10,-3.59,-3.59,-3.59
225,-1.34,2.25,-1.35,2.24,-2.24,-2.13,-3.58,-3.59,-3.59
227,-1.29,2.30,-1.37,2.22,-2.22,-2.15,-3.51,-3.59,-3.59
229,-1.34,2.25,-1.40,2.19,-2.19,-2.17,-3.54,-3.59,-3.59
232,-1.41,2.18,-1.43,2.16,-2.16,-2.20,-3.57,-3.59,-3.59
234,-1.46,2.12,-1.47,2.12,-2.12,-2.21,-3.58,-3.59,-3.59
236,-1.50,2.08,-1.51,2.08,-2.08,-2.23,-3.58,-3.58,-3.58
239,-1.57,2.00,-1.55,2.03,-2.03,-2.24,-3.60,-3.58,-3.58
241,-1.62,1.94,-1.59,1.98,-1.98,-2.25,-3.61,-3.58,-3.57
244,-1.64,1.92,-1.64,1.94,-1.94,-2.26,-3.58,-3.57,-3.56
246,-1.68,1.87,-1.67,1.89,-1.89,-2.26,-3.57,-3.56,-3.55
248,-1.71,1.82,-1.71,1.85,-1.85,-2.26,-3.56,-3.56,-3.54
251,-1.75,1.77,-1.73,1.82,-1.82,-2.26,-3.57,-3.55,-3.53
253,-1.77,1.74,-1.75,1.79,-1.79,-2.26,-3.56,-3.54,-3.52
256,-1.76,1.74,-1.75,1.77,-1.77,-2.25,-3.53,-3.52,-3.50
259,-1.76,1.73,-1.75,1.76,-1.76,-2.23,-3.52,-3.51,-3.50
261,-1.75,1.73,-1.74,1.76,-1.76,-2.22,-3.51,-3.50,-3.48
264,-1.71,1.76,-1.73,1.76,-1.76,-2.20,-3.47,-3.48,-3.47
266,-1.71,1.75,-1.71,1.76,-1.76,-2.19,-3.48,-3.47,-3.46
269,-1.68,1.77,-1.68,1.77,-1.77,-2.16,-3.45,-3.45,-3.45
272,-1.66,1.78,-1.66,1.78,-1.78,-2.13,-3.44,-3.44,-3.44
274,-1.62,1.80,-1.63,1.79,-1.79,-2.11,-3.41,-3.42,-3.43
277,-1.58,1.83,-1.61,1.80,-1.80,-2.08,-3.38,-3.41,-3.41
280,-1.57,1.82,-1.58,1.81,-1.81,-2.04,-3.38,-3.39,-3.40
283,-1.53,1.85,-1.56,1.82,-1.82,-2.01,-3.35,-3.38,-3.38
286,-1.53,1.83,-1.54,1.82,-1.82,-1.97,-3.36,-3.36,-3.36
288,-1.51,1.82,-1.52,1.83,-1.83,-1.94,-3.34,-3.34,-3.34
291,-1.48,1.83,-1.49,1.83,-1.83,-1.90,-3.31,-3.32,-3.32
294,-1.48,1.81,-1.47,1.83,-1.83,-1.87,-3.32,-3.30,-3.29
297,-1.48,1.79,-1.45,1.83,-1.83,-1.83,-3.32,-3.28,-3.27
300,-1.43,1.82,-1.43,1.83,-1.83,-1.79,-3.27,-3.26,-3.25
303,-1.42,1.81,-1.41,1.83,-1.83,-1.75,-3.26,-3.24,-3.23
306,-1.39,1.82,-1.39,1.83,-1.83,-1.71,-3.23,-3.22,-3.21
309,-1.36,1.83,-1.37,1.83,-1.83,-1.67,-3.20,-3.20,-3.19
312,-1.34,1.83,-1.35,1.83,-1.83,-1.63,-3.18,-3.18,-3.17
316,-1.32,1.84,-1.33,1.83,-1.83,-1.58,-3.16,-3.16,-3.16
319,-1.29,1.85,-1.32,1.83,-1.83,-1.54,-3.12,-3.15,-3.14
322,-1.29,1.83,-1.30,1.82,-1.82,-1.51,-3.12,-3.13,-3.12
325,-1.29,1.81,-1.29,1.81,-1.81,-1.47,-3.11,-3.11,-3.10
328,-1.29,1.79,-1.28,1.80,-1.80,-1.44,-3.09,-3.08,-3.08
332,-1.29,1.77,-1.28,1.79,-1.79,-1.40,-3.08,-3.06,-3.06
335,-1.29,1.75,-1.27,1.77,-1.77,-1.36,-3.06,-3.04,-3.04
338,-1.29,1.72,-1.28,1.74,-1.74,-1.33,-3.03,-3.02,-3.02
342,-1.30,1.69,-1.30,1.70,-1.70,-1.29,-3.00,-3.00,-2.99
345,-1.34,1.63,-1.32,1.66,-1.66,-1.26,-3.00,-2.98,-2.97
349,-1.34,1.61,-1.35,1.61,-1.61,-1.23,-2.95,-2.96,-2.95
352,-1.34,1.59,-1.39,1.54,-1.54,-1.20,-2.89,-2.94,-2.93
356,-1.39,1.52,-1.44,1.47,-1.47,-1.17,-2.87,-2.92,-2.91
359,-1.45,1.44,-1.50,1.39,-1.39,-1.14,-2.85,-2.90,-2.89
363,-1.55,1.32,-1.57,1.31,-1.31,-1.11,-2.86,-2.88,-2.88
366,-1.64,1.22,-1.65,1.21,-1.21,-1.09,-2.85,-2.86,-2.86
370,-1.76,1.08,-1.74,1.10,-1.10,-1.06,-2.86,-2.84,-2.85
374,-1.86,0.97,-1.84,0.98,-0.98,-1.03,-2.85,-2.82,-2.83
377,-1.94,0.88,-1.94,0.86,-0.86,-1.01,-2.81,-2.81,-2.82
381,-2.06,0.74,-2.06,0.74,-0.74,-0.99,-2.80,-2.80,-2.81
385,-2.17,0.62,-2.18,0.62,-0.62,-0.96,-2.79,-2.80,-2.80
389,-2.26,0.52,-2.30,0.50,-0.50,-0.94,-2.76,-2.80,-2.78
393,-2.38,0.39,-2.41,0.39,-0.39,-0.92,-2.77,-2.80,-2.77
397,-2.46,0.30,-2.52,0.28,-0.28,-0.90,-2.75,-2.80,-2.76
401,-2.57,0.18,-2.60,0.19,-0.19,-0.88,-2.77,-2.80,-2.76
405,-2.68,0.07,-2.67,0.12,-0.12,-0.86,-2.81,-2.79,-2.75
409,-2.77,-0.03,-2.72,0.07,-0.07,-0.84,-2.84,-2.79,-2.75
413,-2.85,-0.11,-2.75,0.03,-0.03,-0.83,-2.89,-2.79,-2.74
417,-2.90,-0.17,-2.76,0.02,-0.02,-0.81,-2.92,-2.78,-2.74
421,-2.86,-0.13,-2.75,0.02,-0.02,-0.79,-2.89,-2.77,-2.73
425,-2.76,-0.03,-2.72,0.04,-0.04,-0.78,-2.81,-2.76,-2.73
430,-2.66,0.06,-2.68,0.08,-0.08,-0.76,-2.74,-2.75,-2.72
434,-2.58,0.14,-2.62,0.12,-0.12,-0.75,-2.70,-2.74,-2.72
438,-2.50,0.21,-2.55,0.17,-0.17,-0.74,-2.68,-2.73,-2.71
443,-2.42,0.28,-2.48,0.23,-0.23,-0.73,-2.65,-2.71,-2.70
447,-2.35,0.34,-2.40,0.29,-0.29,-0.71,-2.64,-2.69,-2.69
451,-2.28,0.40,-2.33,0.34,-0.34,-0.70,-2.63,-2.67,-2.68
456,-2.21,0.46,-2.26,0.40,-0.40,-0.69,-2.61,-2.66,-2.67
460,-2.18,0.47,-2.20,0.44,-0.44,-0.68,-2.63,-2.64,-2.65
465,-2.13,0.51,-2.15,0.49,-0.49,-0.67,-2.62,-2.64,-2.64
470,-2.12,0.50,-2.11,0.52,-0.52,-0.66,-2.65,-2.63,-2.62
474,-2.09,0.52,-2.07,0.55,-0.55,-0.66,-2.65,-2.62,-2.61
479,-2.04,0.55,-2.03,0.58,-0.58,-0.65,-2.62,-2.61,-2.60
484,-2.00,0.58,-1.99,0.60,-0.60,-0.64,-2.61,-2.60,-2.58
489,-1.97,0.60,-1.96,0.63,-0.63,-0.63,-2.60,-2.58,-2.57
494,-1.92,0.63,-1.92,0.65,-0.65,-0.63,-2.57,-2.57,-2.56
499,-1.88,0.66,-1.88,0.67,-0.67,-0.62,-2.55,-2.55,-2.54
504,-1.85,0.68,-1.85,0.69,-0.69,-0.62,-2.54,-2.53,-2.53
509,-1.81,0.70,-1.81,0.70,-0.70,-0.61,-2.52,-2.51,-2.52
514,-1.77,0.73,-1.77,0.72,-0.72,-0.61,-2.49,-2.50,-2.50
519,-1.74,0.74,-1.74,0.73,-0.73,-0.60,-2.48,-2.48,-2.48
524,-1.69,0.77,-1.71,0.75,-0.75,-0.60,-2.44,-2.46,-2.46
529,-1.66,0.78,-1.69,0.76,-0.76,-0.59,-2.42,-2.44,-2.44
535,-1.62,0.80,-1.66,0.76,-0.76,-0.59,-2.39,-2.42,-2.42
540,-1.62,0.77,-1.64,0.77,-0.77,-0.59,-2.39,-2.40,-2.40
545,-1.62,0.75,-1.61,0.77,-0.77,-0.59,-2.39,-2.38,-2.37
551,-1.62,0.73,-1.58,0.77,-0.77,-0.59,-2.40,-2.36,-2.35
556,-1.57,0.75,-1.56,0.77,-0.77,-0.58,-2.35,-2.33,-2.32
562,-1.57,0.73,-1.53,0.77,-0.77,-0.58,-2.35,-2.31,-2.30
568,-1.53,0.74,-1.51,0.77,-0.77,-0.58,-2.30,-2.28,-2.28
573,-1.50,0.75,-1.50,0.76,-0.76,-0.58,-2.27,-2.26,-2.26
579,-1.47,0.76,-1.48,0.76,-0.76,-0.59,-2.23,-2.24,-2.24
585,-1.43,0.78,-1.47,0.76,-0.76,-0.59,-2.19,-2.23,-2.22
591,-1.39,0.81,-1.46,0.76,-0.76,-0.59,-2.15,-2.22,-2.20
596,-1.39,0.79,-1.45,0.75,-0.75,-0.59,-2.15,-2.20,-2.18
602,-1.39,0.78,-1.43,0.75,-0.75,-0.59,-2.15,-2.19,-2.17
608,-1.41,0.74,-1.41,0.76,-0.76,-0.60,-2.17,-2.17,-2.16
615,-1.43,0.71,-1.39,0.77,-0.77,-0.60,-2.20,-2.16,-2.14
621,-1.43,0.70,-1.37,0.78,-0.78,-0.61,-2.21,-2.14,-2.13
627,-1.43,0.68,-1.34,0.79,-0.79,-0.61,-2.22,-2.13,-2.12
633,-1.35,0.75,-1.30,0.81,-0.81,-0.62,-2.16,-2.11,-2.10
639,-1.30,0.78,-1.27,0.83,-0.83,-0.62,-2.13,-2.09,-2.09
646,-1.22,0.85,-1.23,0.85,-0.85,-0.63,-2.07,-2.08,-2.07
652,-1.13,0.92,-1.19,0.88,-0.88,-0.64,-2.01,-2.07,-2.06
659,-1.09,0.95,-1.15,0.90,-0.90,-0.64,-2.00,-2.05,-2.04
665,-1.02,1.00,-1.10,0.94,-0.94,-0.65,-1.96,-2.03,-2.03
672,-0.98,1.03,-1.05,0.97,-0.97,-0.66,-1.95,-2.02,-2.01
679,-0.97,1.03,-0.99,1.01,-1.01,-0.67,-1.98,-2.00,-2.00
686,-0.92,1.07,-0.94,1.05,-1.05,-0.68,-1.98,-2.00,-1.99
692,-0.92,1.06,-0.89,1.11,-1.11,-0.69,-2.03,-2.00,-1.98
699,-0.88,1.09,-0.83,1.18,-1.18,-0.70,-2.06,-2.01,-1.97
706,-0.82,1.14,-0.76,1.26,-1.26,-0.72,-2.09,-2.02,-1.97
713,-0.71,1.25,-0.67,1.36,-1.36,-0.73,-2.07,-2.03,-1.96
721,-0.61,1.34,-0.58,1.47,-1.47,-0.74,-2.08,-2.04,-1.96
728,-0.51,1.44,-0.45,1.59,-1.59,-0.76,-2.10,-2.04,-1.95
735,-0.40,1.55,-0.31,1.72,-1.72,-0.77,-2.12,-2.03,-1.95
742,-0.28,1.66,-0.16,1.85,-1.85,-0.79,-2.13,-2.01,-1.94
750,-0.13,1.80,-0.00,1.96,-1.96,-0.80,-2.09,-1.96,-1.94
757,0.01,1.94,0.13,2.04,-2.04,-0.82,-2.03,-1.91,-1.93
765,0.17,2.09,0.22,2.08,-2.08,-0.83,-1.91,-1.86,-1.92
773,0.30,2.21,0.26,2.08,-2.08,-0.85,-1.78,-1.82,-1.91
780,0.37,2.27,0.20,2.02,-2.02,-0.87,-1.65,-1.82,-1.90
788,0.43,2.32,0.07,1.91,-1.91,-0.88,-1.48,-1.84,-1.89
796,0.37,2.25,-0.12,1.75,-1.75,-0.90,-1.38,-1.87,-1.88
804,0.16,2.03,-0.36,1.54,-1.54,-0.92,-1.39,-1.90,-1.88
812,-0.22,1.64,-0.63,1.30,-1.30,-0.94,-1.52,-1.93,-1.87
820,-0.72,1.14,-0.93,1.03,-1.03,-0.95,-1.75,-1.96,-1.86
828,-1.32,0.53,-1.23,0.75,-0.75,-0.97,-2.08,-1.98,-1.85
837,-1.90,-0.05,-1.51,0.49,-0.49,-0.99,-2.39,-2.00,-1.85
845,-2.32,-0.47,-1.77,0.25,-0.25,-1.00,-2.57,-2.02,-1.85
853,-2.62,-0.77,-1.99,0.04,-0.04,-1.02,-2.67,-2.04,-1.85
862,-2.55,-0.70,-2.15,-0.11,0.11,-1.03,-2.44,-2.05,-1.85
871,-2.42,-0.57,-2.25,-0.20,0.20,-1.05,-2.22,-2.05,-1.85
879,-2.27,-0.42,-2.27,-0.23,0.23,-1.06,-2.04,-2.04,-1.86
888,-2.09,-0.24,-2.21,-0.20,0.20,-1.07,-1.89,-2.01,-1.86
897,-1.91,-0.06,-2.09,-0.11,0.11,-1.08,-1.80,-1.97,-1.86
906,-1.74,0.11,-1.91,0.01,-0.01,-1.09,-1.76,-1.92,-1.85
915,-1.57,0.28,-1.69,0.17,-0.17,-1.09,-1.74,-1.86,-1.85
924,-1.37,0.47,-1.46,0.35,-0.35,-1.10,-1.72,-1.81,-1.85
933,-1.21,0.63,-1.23,0.54,-0.54,-1.10,-1.76,-1.78,-1.84
943,-1.01,0.82,-1.02,0.74,-0.74,-1.10,-1.76,-1.76,-1.83
952,-0.85,0.97,-0.83,0.94,-0.94,-1.10,-1.79,-1.77,-1.82
962,-0.66,1.15,-0.65,1.13,-1.13,-1.09,-1.79,-1.78,-1.81
971,-0.51,1.28,-0.48,1.30,-1.30,-1.09,-1.81,-1.78,-1.79
981,-0.33,1.44,-0.32,1.45,-1.45,-1.08,-1.78,-1.77,-1.78
991,-0.15,1.60,-0.17,1.58,-1.58,-1.06,-1.74,-1.75,-1.76
1001,0.02,1.75,-0.03,1.70,-1.70,-1.05,-1.69,-1.74,-1.73
1011,0.17,1.88,0.09,1.81,-1.81,-1.03,-1.65,-1.72,-1.71
1021,0.28,1.96,0.21,1.91,-1.91,-1.01,-1.63,-1.70,-1.68
1031,0.36,2.02,0.32,2.00,-2.00,-0.98,-1.64,-1.67,-1.66
1041,0.43,2.06,0.43,2.07,-2.07,-0.96,-1.65,-1.64,-1.63
1052,0.47,2.07,0.53,2.14,-2.14,-0.93,-1.67,-1.61,-1.61
1062,0.52,2.09,0.62,2.20,-2.20,-0.89,-1.68,-1.58,-1.58
1073,0.60,2.15,0.69,2.25,-2.25,-0.86,-1.65,-1.56,-1.55
1084,0.66,2.18,0.75,2.29,-2.29,-0.82,-1.63,-1.54,-1.52
1094,0.76,2.25,0.79,2.31,-2.31,-0.78,-1.55,-1.52,-1.49
1105,0.83,2.29,0.82,2.32,-2.32,-0.74,-1.49,-1.50,-1.46
1116,0.91,2.34,0.83,2.31,-2.31,-0.70,-1.40,-1.48,-1.43
1128,0.92,2.31,0.84,2.27,-2.27,-0.65,-1.35,-1.42,-1.40
1139,0.84,2.20,0.83,2.19,-2.19,-0.60,-1.35,-1.36,-1.36
1150,0.75,2.08,0.79,2.06,-2.06,-0.55,-1.31,-1.28,-1.33
1162,0.61,1.90,0.69,1.88,-1.88,-0.50,-1.27,-1.19,-1.29
1173,0.48,1.73,0.53,1.64,-1.64,-0.45,-1.17,-1.11,-1.25
1185,0.31,1.52,0.29,1.35,-1.35,-0.39,-1.04,-1.06,-1.21
1197,0.14,1.31,-0.03,1.01,-1.01,-0.34,-0.87,-1.04,-1.17
1209,-0.13,0.99,-0.43,0.62,-0.62,-0.28,-0.76,-1.05,-1.12
1221,-0.42,0.65,-0.87,0.20,-0.20,-0.22,-0.63,-1.07,-1.07
1233,-0.79,0.23,-1.33,-0.23,0.23,-0.16,-0.56,-1.09,-1.02
1246,-1.53,-0.56,-1.79,-0.68,0.68,-0.10,-0.85,-1.11,-0.97
1258,-2.15,-1.23,-2.23,-1.12,1.12,-0.04,-1.03,-1.11,-0.92
1271,-2.81,-1.95,-2.62,-1.53,1.53,0.02,-1.28,-1.09,-0.86
1283,-3.43,-2.63,-2.96,-1.90,1.90,0.08,-1.54,-1.06,-0.80
1296,-3.87,-3.13,-3.23,-2.21,2.21,0.14,-1.67,-1.02,-0.74
1309,-4.09,-3.41,-3.42,-2.45,2.45,0.21,-1.64,-0.96,-0.68
1322,-3.99,-3.38,-3.52,-2.63,2.63,0.27,-1.37,-0.90,-0.61
1335,-3.77,-3.23,-3.55,-2.73,2.73,0.34,-1.04,-0.82,-0.55
1349,-3.49,-3.01,-3.49,-2.77,2.77,0.40,-0.73,-0.72,-0.48
1362,-3.18,-2.77,-3.35,-2.75,2.75,0.47,-0.43,-0.60,-0.41
1376,-2.86,-2.52,-3.15,-2.69,2.69,0.54,-0.17,-0.46,-0.34
1390,-2.61,-2.34,-2.93,-2.61,2.61,0.61,-0.01,-0.32,-0.27
1404,-2.40,-2.20,-2.69,-2.51,2.51,0.68,0.10,-0.18,-0.20
1418,-2.24,-2.11,-2.45,-2.40,2.40,0.74,0.16,-0.05,-0.13
1432,-2.13,-2.08,-2.25,-2.30,2.30,0.81,0.16,0.05,-0.06
1446,-2.05,-2.07,-2.09,-2.20,2.20,0.88,0.15,0.12,0.02
1461,-2.00,-2.09,-1.96,-2.12,2.12,0.95,0.12,0.16,0.09
1475,-1.92,-2.09,-1.86,-2.06,2.06,1.02,0.14,0.20,0.16
1490,-1.87,-2.11,-1.77,-2.02,2.02,1.10,0.15,0.25,0.24
1505,-1.77,-2.09,-1.70,-2.00,2.00,1.17,0.23,0.30,0.31
1520,-1.71,-2.10,-1.64,-2.01,2.01,1.24,0.29,0.36,0.39
1535,-1.61,-2.08,-1.59,-2.03,2.03,1.31,0.42,0.44,0.47
1550,-1.54,-2.09,-1.54,-2.07,2.07,1.38,0.53,0.53,0.55
1566,-1.46,-2.10,-1.49,-2.13,2.13,1.46,0.67,0.64,0.63
1582,-1.41,-2.13,-1.46,-2.21,2.21,1.54,0.79,0.75,0.72
