frequency,raw
20.00,5.18
20.20,5.20
20.40,5.22
20.61,5.25
20.81,5.26
21.02,5.28
21.23,5.30
21.44,5.32
21.66,5.33
21.87,5.35
22.09,5.37
22.31,5.40
22.54,5.42
22.76,5.44
22.99,5.46
23.22,5.48
23.45,5.50
23.69,5.52
23.92,5.54
24.16,5.56
24.40,5.58
24.65,5.60
24.89,5.62
25.14,5.64
25.39,5.66
25.65,5.67
25.91,5.69
26.16,5.71
26.43,5.72
26.69,5.74
26.96,5.76
27.23,5.77
27.50,5.79
27.77,5.80
28.05,5.81
28.33,5.82
28.62,5.83
28.90,5.84
29.19,5.85
29.48,5.86
29.78,5.87
30.08,5.88
30.38,5.90
30.68,5.91
30.99,5.92
31.30,5.93
31.61,5.93
31.93,5.94
32.24,5.95
32.57,5.95
32.89,5.96
33.22,5.97
33.55,5.98
33.89,5.98
34.23,5.99
34.57,6.00
34.92,6.01
35.27,6.02
35.62,6.02
35.97,6.03
36.33,6.04
36.70,6.04
37.06,6.05
37.43,6.05
37.81,6.06
38.19,6.06
38.57,6.06
38.95,6.07
39.34,6.07
39.74,6.08
40.14,6.08
40.54,6.09
40.94,6.09
41.35,6.09
41.76,6.10
42.18,6.10
42.60,6.11
43.03,6.11
43.46,6.11
43.90,6.12
44.33,6.12
44.78,6.13
45.23,6.13
45.68,6.13
46.13,6.14
46.60,6.14
47.06,6.14
47.53,6.14
48.01,6.14
48.49,6.14
48.97,6.13
49.46,6.13
49.96,6.13
50.46,6.14
50.96,6.15
51.47,6.15
51.99,6.14
52.51,6.14
53.03,6.14
53.56,6.14
54.10,6.13
54.64,6.12
55.18,6.11
55.74,6.12
56.29,6.12
56.86,6.13
57.42,6.12
58.00,6.10
58.58,6.09
59.16,6.08
59.76,6.07
60.35,6.06
60.96,6.06
61.57,6.05
62.18,6.04
62.80,6.02
63.43,6.01
64.07,6.00
64.71,5.99
65.35,5.99
66.01,5.98
66.67,5.96
67.33,5.95
68.01,5.94
68.69,5.93
69.37,5.92
70.07,5.90
70.77,5.89
71.48,5.88
72.19,5.87
72.91,5.85
73.64,5.84
74.38,5.82
75.12,5.81
75.87,5.79
76.63,5.78
77.40,5.77
78.17,5.75
78.95,5.73
79.74,5.72
80.54,5.70
81.35,5.69
82.16,5.67
82.98,5.65
83.81,5.63
84.65,5.62
85.50,5.60
86.35,5.58
87.22,5.57
88.09,5.55
88.97,5.53
89.86,5.51
90.76,5.49
91.66,5.48
92.58,5.46
93.51,5.44
94.44,5.42
95.39,5.40
96.34,5.37
97.30,5.36
98.28,5.34
99.26,5.31
100.25,5.28
101.25,5.26
102.27,5.24
103.29,5.22
104.32,5.20
105.37,5.17
106.42,5.15
107.48,5.12
108.56,5.10
109.64,5.08
110.74,5.05
111.85,5.03
112.97,5.00
114.10,4.97
115.24,4.95
116.39,4.93
117.55,4.90
118.73,4.88
119.92,4.85
121.12,4.82
122.33,4.79
123.55,4.77
124.79,4.74
126.03,4.71
127.29,4.68
128.57,4.66
129.85,4.62
131.15,4.59
132.46,4.56
133.79,4.53
135.12,4.50
136.48,4.47
137.84,4.44
139.22,4.41
140.61,4.37
142.02,4.34
143.44,4.31
144.87,4.28
146.32,4.25
147.78,4.24
149.26,4.28
150.75,4.24
152.26,4.13
153.78,4.08
155.32,4.04
156.88,4.00
158.44,3.97
160.03,3.93
161.63,3.89
163.24,3.86
164.88,3.82
166.53,3.78
168.19,3.74
169.87,3.71
171.57,3.66
173.29,3.62
175.02,3.58
176.77,3.54
178.54,3.50
180.32,3.46
182.13,3.42
183.95,3.38
185.79,3.34
187.65,3.29
189.52,3.25
191.42,3.21
193.33,3.16
195.27,3.12
197.22,3.08
199.19,3.04
201.18,2.99
203.19,2.94
205.23,2.90
207.28,2.85
209.35,2.81
211.44,2.76
213.56,2.71
215.69,2.67
217.85,2.63
220.03,2.58
222.23,2.54
224.45,2.49
226.70,2.45
228.96,2.40
231.25,2.36
233.57,2.31
235.90,2.27
238.26,2.24
240.64,2.20
243.05,2.17
245.48,2.15
247.93,2.12
250.41,2.08
252.92,2.05
255.45,2.02
258.00,1.98
260.58,1.94
263.19,1.90
265.82,1.86
268.48,1.81
271.16,1.77
273.87,1.72
276.61,1.68
279.38,1.64
282.17,1.60
284.99,1.56
287.84,1.51
290.72,1.46
293.63,1.41
296.57,1.37
299.53,1.33
302.53,1.29
305.55,1.25
308.61,1.21
311.69,1.18
314.81,1.14
317.96,1.10
321.14,1.07
324.35,1.02
327.59,0.99
330.87,0.95
334.18,0.91
337.52,0.87
340.90,0.82
344.30,0.78
347.75,0.74
351.23,0.70
354.74,0.64
358.28,0.60
361.87,0.56
365.49,0.51
369.14,0.47
372.83,0.43
376.56,0.39
380.33,0.34
384.13,0.30
387.97,0.25
391.85,0.21
395.77,0.17
399.73,0.12
403.72,0.08
407.76,0.04
411.84,-0.01
415.96,-0.05
420.12,-0.09
424.32,-0.13
428.56,-0.17
432.85,-0.20
437.18,-0.24
441.55,-0.27
445.96,-0.32
450.42,-0.39
454.93,-0.38
459.48,-0.41
464.07,-0.45
468.71,-0.48
473.40,-0.52
478.13,-0.55
482.91,-0.59
487.74,-0.62
492.62,-0.65
497.55,-0.69
502.52,-0.72
507.55,-0.75
512.62,-0.78
517.75,-0.81
522.93,-0.84
528.16,-0.87
533.44,-0.90
538.77,-0.92
544.16,-0.95
549.60,-0.97
555.10,-1.00
560.65,-1.03
566.25,-1.05
571.92,-1.08
577.64,-1.10
583.41,-1.13
589.25,-1.15
595.14,-1.17
601.09,-1.20
607.10,-1.22
613.17,-1.24
619.30,-1.26
625.50,-1.28
631.75,-1.30
638.07,-1.32
644.45,-1.32
650.89,-1.32
657.40,-1.36
663.98,-1.38
670.62,-1.40
677.32,-1.41
684.10,-1.42
690.94,-1.43
697.85,-1.44
704.83,-1.45
711.87,-1.45
718.99,-1.46
726.18,-1.46
733.44,-1.46
740.78,-1.46
748.19,-1.48
755.67,-1.47
763.23,-1.45
770.86,-1.45
778.57,-1.45
786.35,-1.44
794.22,-1.43
802.16,-1.41
810.18,-1.39
818.28,-1.37
826.46,-1.34
834.73,-1.31
843.08,-1.28
851.51,-1.26
860.02,-1.19
868.62,-1.14
877.31,-1.10
886.08,-1.04
894.94,-0.98
903.89,-0.92
912.93,-0.85
922.06,-0.78
931.28,-0.70
940.59,-0.61
950.00,-0.54
959.50,-0.43
969.09,-0.33
978.78,-0.23
988.57,-0.13
998.46,-0.02
1008.44,0.09
1018.53,0.21
1028.71,0.33
1039.00,0.45
1049.39,0.57
1059.88,0.69
1070.48,0.82
1081.19,0.94
1092.00,1.06
1102.92,1.20
1113.95,1.33
1125.09,1.46
1136.34,1.58
1147.70,1.73
1159.18,1.85
1170.77,1.96
1182.48,2.08
1194.30,2.20
1206.25,2.32
1218.31,2.44
1230.49,2.57
1242.80,2.70
1255.22,2.82
1267.78,2.95
1280.45,3.08
1293.26,3.20
1306.19,3.32
1319.25,3.45
1332.45,3.57
1345.77,3.67
1359.23,3.76
1372.82,3.88
1386.55,4.00
1400.41,4.12
1414.42,4.24
1428.56,4.35
1442.85,4.48
1457.28,4.61
1471.85,4.72
1486.57,4.84
1501.43,4.96
1516.45,5.08
1531.61,5.20
1546.93,5.31
1562.40,5.43
1578.02,5.55
1593.80,5.67
1609.74,5.78
1625.84,5.89
1642.10,5.99
1658.52,6.09
1675.10,6.21
1691.85,6.30
1708.77,6.39
1725.86,6.48
1743.12,6.55
1760.55,6.61
1778.15,6.67
1795.94,6.72
1813.90,6.77
1832.03,6.81
1850.36,6.84
1868.86,6.85
1887.55,6.86
1906.42,6.86
1925.49,6.86
1944.74,6.85
1964.19,6.84
1983.83,6.84
2003.67,6.84
2023.71,6.83
2043.94,6.84
2064.38,6.85
2085.03,6.87
2105.88,6.91
2126.94,6.95
2148.20,7.02
2169.69,7.09
2191.38,7.17
2213.30,7.26
2235.43,7.35
2257.78,7.45
2280.36,7.54
2303.17,7.63
2326.20,7.71
2349.46,7.78
2372.95,7.84
2396.68,7.90
2420.65,7.94
2444.86,7.97
2469.31,8.00
2494.00,8.01
2518.94,8.01
2544.13,8.00
2569.57,7.99
2595.27,7.97
2621.22,7.95
2647.43,7.92
2673.90,7.88
2700.64,7.85
2727.65,7.81
2754.93,7.77
2782.48,7.73
2810.30,7.70
2838.40,7.67
2866.79,7.63
2895.46,7.60
2924.41,7.58
2953.65,7.55
2983.19,7.54
3013.02,7.53
3043.15,7.52
3073.58,7.53
3104.32,7.54
3135.36,7.56
3166.72,7.58
3198.38,7.62
3230.37,7.66
3262.67,7.71
3295.30,7.77
3328.25,7.84
3361.53,7.91
3395.15,8.00
3429.10,8.10
3463.39,8.20
3498.03,8.32
3533.01,8.45
3568.34,8.59
3604.02,8.74
3640.06,8.90
3676.46,9.07
3713.22,9.25
3750.36,9.43
3787.86,9.63
3825.74,9.82
3864.00,10.02
3902.64,10.20
3941.66,10.39
3981.08,10.56
4020.89,10.74
4061.10,10.92
4101.71,11.10
4142.73,11.25
4184.15,11.38
4226.00,11.47
4268.26,11.53
4310.94,11.55
4354.05,11.50
4397.59,11.41
4441.56,11.30
4485.98,11.12
4530.84,10.91
4576.15,10.66
4621.91,10.40
4668.13,10.11
4714.81,9.80
4761.96,9.49
4809.58,9.17
4857.67,8.85
4906.25,8.53
4955.31,8.20
5004.87,7.88
5054.91,7.56
5105.46,7.25
5156.52,6.95
5208.08,6.65
5260.16,6.35
5312.77,6.07
5365.89,5.80
5419.55,5.57
5473.75,5.35
5528.49,5.16
5583.77,5.02
5639.61,4.89
5696.00,4.76
5752.96,4.66
5810.49,4.56
5868.60,4.47
5927.28,4.40
5986.56,4.35
6046.42,4.32
6106.89,4.31
6167.96,4.31
6229.64,4.33
6291.93,4.36
6354.85,4.42
6418.40,4.49
6482.58,4.58
6547.41,4.70
6612.88,4.83
6679.01,5.00
6745.80,5.20
6813.26,5.43
6881.39,5.71
6950.21,6.05
7019.71,6.43
7089.91,6.86
7160.81,7.36
7232.41,7.91
7304.74,8.51
7377.79,9.20
7451.56,9.94
7526.08,10.75
7601.34,11.60
7677.35,12.51
7754.13,13.44
7831.67,14.18
7909.98,14.77
7989.08,15.12
8068.98,14.99
8149.67,14.63
8231.16,14.00
8313.47,13.22
8396.61,12.40
8480.57,11.57
8565.38,10.80
8651.03,10.07
8737.54,9.39
8824.92,8.78
8913.17,8.26
9002.30,7.77
9092.32,7.36
9183.25,7.01
9275.08,6.72
9367.83,6.49
9461.51,6.31
9556.12,6.19
9651.68,6.11
9748.20,6.07
9845.68,6.08
9944.14,6.12
10043.58,6.18
10144.02,6.25
10245.46,6.32
10347.91,6.37
10451.39,6.39
10555.91,6.33
10661.46,6.19
10768.08,5.99
10875.76,5.67
10984.52,5.26
11094.36,4.79
11205.31,4.27
11317.36,3.72
11430.53,3.21
11544.84,2.77
11660.29,2.35
11776.89,1.94
11894.66,1.61
12013.60,1.28
12133.74,1.04
12255.08,0.90
12377.63,0.84
12501.41,0.86
12626.42,0.98
12752.68,1.18
12880.21,1.45
13009.01,1.74
13139.10,2.04
13270.49,2.23
13403.20,2.35
13537.23,2.19
13672.60,1.88
13809.33,1.40
13947.42,0.56
14086.90,-0.54
14227.77,-1.81
14370.04,-3.13
14513.74,-4.50
14658.88,-5.78
14805.47,-7.01
14953.52,-8.13
15103.06,-9.15
15254.09,-10.11
15406.63,-10.88
15560.70,-11.57
15716.30,-12.13
15873.47,-12.56
16032.20,-12.91
16192.52,-13.13
16354.45,-13.24
16517.99,-13.28
16683.17,-13.14
16850.01,-12.88
17018.51,-12.52
17188.69,-11.99
17360.58,-11.35
17534.18,-10.61
17709.53,-9.73
17886.62,-8.75
18065.49,-7.78
18246.14,-6.89
18428.60,-6.59
18612.89,-6.68
18799.02,-7.11
18987.01,-7.85
19176.88,-8.67
19368.65,-9.51
19562.33,-10.33
19757.96,-11.07
19955.54,-11.81
