frequency,raw
20.00,4.72
20.20,4.74
20.40,4.76
20.61,4.79
20.81,4.80
21.02,4.82
21.23,4.84
21.44,4.87
21.66,4.89
21.87,4.91
22.09,4.93
22.31,4.96
22.54,4.98
22.76,5.00
22.99,5.02
23.22,5.04
23.45,5.06
23.69,5.08
23.92,5.10
24.16,5.12
24.40,5.15
24.65,5.17
24.89,5.19
25.14,5.21
25.39,5.23
25.65,5.25
25.91,5.26
26.16,5.28
26.43,5.30
26.69,5.32
26.96,5.33
27.23,5.34
27.50,5.36
27.77,5.37
28.05,5.38
28.33,5.40
28.62,5.41
28.90,5.42
29.19,5.43
29.48,5.44
29.78,5.45
30.08,5.47
30.38,5.48
30.68,5.49
30.99,5.50
31.30,5.50
31.61,5.51
31.93,5.52
32.24,5.52
32.57,5.53
32.89,5.54
33.22,5.55
33.55,5.56
33.89,5.57
34.23,5.58
34.57,5.59
34.92,5.60
35.27,5.61
35.62,5.62
35.97,5.63
36.33,5.64
36.70,5.64
37.06,5.64
37.43,5.65
37.81,5.65
38.19,5.65
38.57,5.66
38.95,5.66
39.34,5.67
39.74,5.67
40.14,5.68
40.54,5.68
40.94,5.68
41.35,5.68
41.76,5.68
42.18,5.69
42.60,5.69
43.03,5.70
43.46,5.71
43.90,5.71
44.33,5.72
44.78,5.73
45.23,5.74
45.68,5.74
46.13,5.75
46.60,5.74
47.06,5.74
47.53,5.74
48.01,5.75
48.49,5.74
48.97,5.74
49.46,5.73
49.96,5.73
50.46,5.74
50.96,5.75
51.47,5.75
51.99,5.75
52.51,5.74
53.03,5.73
53.56,5.73
54.10,5.74
54.64,5.74
55.18,5.73
55.74,5.75
56.29,5.79
56.86,5.86
57.42,5.83
58.00,5.77
58.58,5.71
59.16,5.67
59.76,5.69
60.35,5.69
60.96,5.68
61.57,5.67
62.18,5.66
62.80,5.65
63.43,5.64
64.07,5.63
64.71,5.62
65.35,5.61
66.01,5.60
66.67,5.59
67.33,5.58
68.01,5.58
68.69,5.57
69.37,5.55
70.07,5.54
70.77,5.53
71.48,5.52
72.19,5.50
72.91,5.49
73.64,5.48
74.38,5.47
75.12,5.45
75.87,5.44
76.63,5.43
77.40,5.41
78.17,5.40
78.95,5.38
79.74,5.37
80.54,5.35
81.35,5.34
82.16,5.32
82.98,5.31
83.81,5.29
84.65,5.27
85.50,5.26
86.35,5.24
87.22,5.23
88.09,5.21
88.97,5.20
89.86,5.18
90.76,5.16
91.66,5.14
92.58,5.13
93.51,5.11
94.44,5.09
95.39,5.07
96.34,5.05
97.30,5.03
98.28,5.01
99.26,4.99
100.25,4.98
101.25,4.94
102.27,4.92
103.29,4.90
104.32,4.88
105.37,4.86
106.42,4.84
107.48,4.81
108.56,4.79
109.64,4.77
110.74,4.75
111.85,4.72
112.97,4.71
114.10,4.69
115.24,4.65
116.39,4.63
117.55,4.60
118.73,4.58
119.92,4.56
121.12,4.53
122.33,4.51
123.55,4.48
124.79,4.45
126.03,4.43
127.29,4.40
128.57,4.38
129.85,4.35
131.15,4.32
132.46,4.29
133.79,4.25
135.12,4.22
136.48,4.19
137.84,4.17
139.22,4.14
140.61,4.10
142.02,4.07
143.44,4.04
144.87,4.01
146.32,3.99
147.78,3.97
149.26,4.02
150.75,3.98
152.26,3.88
153.78,3.82
155.32,3.79
156.88,3.75
158.44,3.72
160.03,3.68
161.63,3.65
163.24,3.61
164.88,3.58
166.53,3.54
168.19,3.50
169.87,3.46
171.57,3.43
173.29,3.39
175.02,3.35
176.77,3.31
178.54,3.27
180.32,3.23
182.13,3.19
183.95,3.15
185.79,3.11
187.65,3.07
189.52,3.03
191.42,2.99
193.33,2.95
195.27,2.91
197.22,2.86
199.19,2.82
201.18,2.78
203.19,2.74
205.23,2.69
207.28,2.64
209.35,2.60
211.44,2.56
213.56,2.51
215.69,2.47
217.85,2.43
220.03,2.38
222.23,2.34
224.45,2.29
226.70,2.24
228.96,2.20
231.25,2.16
233.57,2.13
235.90,2.09
238.26,2.06
240.64,2.03
243.05,1.99
245.48,1.96
247.93,1.92
250.41,1.88
252.92,1.85
255.45,1.82
258.00,1.79
260.58,1.74
263.19,1.70
265.82,1.66
268.48,1.63
271.16,1.59
273.87,1.55
276.61,1.50
279.38,1.46
282.17,1.41
284.99,1.36
287.84,1.33
290.72,1.29
293.63,1.25
296.57,1.20
299.53,1.16
302.53,1.12
305.55,1.08
308.61,1.05
311.69,1.01
314.81,0.98
317.96,0.95
321.14,0.91
324.35,0.87
327.59,0.84
330.87,0.80
334.18,0.76
337.52,0.72
340.90,0.68
344.30,0.64
347.75,0.60
351.23,0.56
354.74,0.51
358.28,0.46
361.87,0.42
365.49,0.38
369.14,0.34
372.83,0.29
376.56,0.25
380.33,0.21
384.13,0.17
387.97,0.12
391.85,0.08
395.77,0.04
399.73,-0.01
403.72,-0.05
407.76,-0.09
411.84,-0.13
415.96,-0.17
420.12,-0.21
424.32,-0.25
428.56,-0.29
432.85,-0.33
437.18,-0.36
441.55,-0.39
445.96,-0.44
450.42,-0.51
454.93,-0.49
459.48,-0.52
464.07,-0.56
468.71,-0.59
473.40,-0.63
478.13,-0.66
482.91,-0.69
487.74,-0.72
492.62,-0.75
497.55,-0.78
502.52,-0.81
507.55,-0.84
512.62,-0.87
517.75,-0.89
522.93,-0.92
528.16,-0.95
533.44,-0.98
538.77,-1.01
544.16,-1.04
549.60,-1.06
555.10,-1.09
560.65,-1.12
566.25,-1.14
571.92,-1.16
577.64,-1.19
583.41,-1.21
589.25,-1.24
595.14,-1.26
601.09,-1.28
607.10,-1.30
613.17,-1.32
619.30,-1.34
625.50,-1.36
631.75,-1.38
638.07,-1.39
644.45,-1.39
650.89,-1.39
657.40,-1.43
663.98,-1.45
670.62,-1.47
677.32,-1.48
684.10,-1.49
690.94,-1.50
697.85,-1.50
704.83,-1.51
711.87,-1.51
718.99,-1.51
726.18,-1.51
733.44,-1.52
740.78,-1.52
748.19,-1.54
755.67,-1.53
763.23,-1.51
770.86,-1.51
778.57,-1.50
786.35,-1.49
794.22,-1.47
802.16,-1.46
810.18,-1.43
818.28,-1.41
826.46,-1.38
834.73,-1.34
843.08,-1.32
851.51,-1.29
860.02,-1.23
868.62,-1.17
877.31,-1.12
886.08,-1.07
894.94,-1.00
903.89,-0.94
912.93,-0.87
922.06,-0.79
931.28,-0.71
940.59,-0.63
950.00,-0.55
959.50,-0.44
969.09,-0.33
978.78,-0.23
988.57,-0.13
998.46,-0.02
1008.44,0.10
1018.53,0.22
1028.71,0.34
1039.00,0.46
1049.39,0.59
1059.88,0.71
1070.48,0.84
1081.19,0.97
1092.00,1.10
1102.92,1.23
1113.95,1.37
1125.09,1.50
1136.34,1.64
1147.70,1.78
1159.18,1.91
1170.77,2.03
1182.48,2.15
1194.30,2.28
1206.25,2.40
1218.31,2.53
1230.49,2.67
1242.80,2.80
1255.22,2.93
1267.78,3.07
1280.45,3.20
1293.26,3.33
1306.19,3.47
1319.25,3.60
1332.45,3.73
1345.77,3.84
1359.23,3.94
1372.82,4.07
1386.55,4.20
1400.41,4.33
1414.42,4.46
1428.56,4.59
1442.85,4.74
1457.28,4.87
1471.85,5.00
1486.57,5.14
1501.43,5.28
1516.45,5.41
1531.61,5.55
1546.93,5.67
1562.40,5.81
1578.02,5.95
1593.80,6.09
1609.74,6.22
1625.84,6.34
1642.10,6.46
1658.52,6.58
1675.10,6.71
1691.85,6.82
1708.77,6.92
1725.86,7.02
1743.12,7.10
1760.55,7.18
1778.15,7.26
1795.94,7.32
1813.90,7.37
1832.03,7.42
1850.36,7.47
1868.86,7.49
1887.55,7.51
1906.42,7.53
1925.49,7.54
1944.74,7.55
1964.19,7.56
1983.83,7.58
2003.67,7.60
2023.71,7.63
2043.94,7.66
2064.38,7.71
2085.03,7.78
2105.88,7.86
2126.94,7.95
2148.20,8.06
2169.69,8.18
2191.38,8.30
2213.30,8.42
2235.43,8.54
2257.78,8.65
2280.36,8.75
2303.17,8.85
2326.20,8.92
2349.46,8.97
2372.95,9.01
2396.68,9.04
2420.65,9.05
2444.86,9.04
2469.31,9.03
2494.00,8.99
2518.94,8.94
2544.13,8.89
2569.57,8.83
2595.27,8.76
2621.22,8.68
2647.43,8.60
2673.90,8.52
2700.64,8.44
2727.65,8.36
2754.93,8.27
2782.48,8.20
2810.30,8.12
2838.40,8.05
2866.79,7.99
2895.46,7.92
2924.41,7.87
2953.65,7.82
2983.19,7.78
3013.02,7.75
3043.15,7.72
3073.58,7.71
3104.32,7.71
3135.36,7.71
3166.72,7.73
3198.38,7.75
3230.37,7.79
3262.67,7.84
3295.30,7.89
3328.25,7.96
3361.53,8.04
3395.15,8.13
3429.10,8.24
3463.39,8.35
3498.03,8.48
3533.01,8.63
3568.34,8.78
3604.02,8.95
3640.06,9.13
3676.46,9.33
3713.22,9.54
3750.36,9.76
3787.86,9.99
3825.74,10.23
3864.00,10.47
3902.64,10.72
3941.66,10.96
3981.08,11.19
4020.89,11.43
4061.10,11.68
4101.71,11.91
4142.73,12.12
4184.15,12.31
4226.00,12.43
4268.26,12.52
4310.94,12.55
4354.05,12.50
4397.59,12.39
4441.56,12.24
4485.98,12.01
4530.84,11.74
4576.15,11.42
4621.91,11.09
4668.13,10.73
4714.81,10.35
4761.96,9.96
4809.58,9.57
4857.67,9.18
4906.25,8.80
4955.31,8.42
5004.87,8.05
5054.91,7.68
5105.46,7.33
5156.52,6.98
5208.08,6.65
5260.16,6.34
5312.77,6.03
5365.89,5.75
5419.55,5.50
5473.75,5.27
5528.49,5.08
5583.77,4.92
5639.61,4.77
5696.00,4.63
5752.96,4.50
5810.49,4.38
5868.60,4.28
5927.28,4.19
5986.56,4.11
6046.42,4.06
6106.89,4.01
6167.96,3.99
6229.64,3.97
6291.93,3.99
6354.85,4.03
6418.40,4.08
6482.58,4.16
6547.41,4.27
6612.88,4.40
6679.01,4.57
6745.80,4.77
6813.26,5.01
6881.39,5.30
6950.21,5.66
7019.71,6.07
7089.91,6.54
7160.81,7.08
7232.41,7.66
7304.74,8.30
7377.79,9.02
7451.56,9.80
7526.08,10.64
7601.34,11.52
7677.35,12.45
7754.13,13.37
7831.67,14.03
7909.98,14.50
7989.08,14.68
8068.98,14.40
8149.67,13.91
8231.16,13.22
8313.47,12.44
8396.61,11.64
8480.57,10.85
8565.38,10.12
8651.03,9.42
8737.54,8.78
8824.92,8.20
8913.17,7.70
9002.30,7.23
9092.32,6.84
9183.25,6.52
9275.08,6.24
9367.83,6.03
9461.51,5.88
9556.12,5.78
9651.68,5.73
9748.20,5.73
9845.68,5.78
9944.14,5.87
10043.58,5.99
10144.02,6.12
10245.46,6.27
10347.91,6.41
10451.39,6.51
10555.91,6.55
10661.46,6.51
10768.08,6.39
10875.76,6.14
10984.52,5.76
11094.36,5.31
11205.31,4.77
11317.36,4.20
11430.53,3.66
11544.84,3.18
11660.29,2.70
11776.89,2.23
11894.66,1.80
12013.60,1.39
12133.74,1.04
12255.08,0.79
12377.63,0.60
12501.41,0.48
12626.42,0.48
12752.68,0.58
12880.21,0.83
13009.01,1.15
13139.10,1.47
13270.49,1.88
13403.20,2.29
13537.23,2.47
13672.60,2.35
13809.33,1.94
13947.42,0.94
14086.90,-0.32
14227.77,-1.73
14370.04,-3.15
14513.74,-4.58
14658.88,-5.90
14805.47,-7.14
14953.52,-8.27
15103.06,-9.31
15254.09,-10.29
15406.63,-11.08
15560.70,-11.79
15716.30,-12.36
15873.47,-12.80
16032.20,-13.17
16192.52,-13.40
16354.45,-13.50
16517.99,-13.52
16683.17,-13.37
16850.01,-13.10
17018.51,-12.73
17188.69,-12.16
17360.58,-11.45
17534.18,-10.62
17709.53,-9.57
17886.62,-8.35
18065.49,-7.13
18246.14,-5.98
18428.60,-5.57
18612.89,-5.65
18799.02,-6.18
18987.01,-7.14
19176.88,-8.18
19368.65,-9.22
19562.33,-10.21
19757.96,-11.11
19955.54,-12.02
