frequency,raw
20.00,9.90
20.20,9.90
20.40,9.89
20.61,9.89
20.81,9.88
21.02,9.87
21.23,9.86
21.44,9.85
21.66,9.84
21.87,9.83
22.09,9.82
22.31,9.81
22.54,9.80
22.76,9.79
22.99,9.78
23.22,9.77
23.45,9.76
23.69,9.75
23.92,9.74
24.16,9.74
24.40,9.73
24.65,9.72
24.89,9.70
25.14,9.69
25.39,9.68
25.65,9.66
25.91,9.65
26.16,9.64
26.43,9.62
26.69,9.61
26.96,9.59
27.23,9.57
27.50,9.55
27.77,9.54
28.05,9.52
28.33,9.49
28.62,9.47
28.90,9.45
29.19,9.43
29.48,9.41
29.78,9.38
30.08,9.36
30.38,9.33
30.68,9.31
30.99,9.28
31.30,9.26
31.61,9.23
31.93,9.20
32.24,9.17
32.57,9.15
32.89,9.12
33.22,9.09
33.55,9.07
33.89,9.04
34.23,9.01
34.57,8.98
34.92,8.95
35.27,8.92
35.62,8.90
35.97,8.87
36.33,8.84
36.70,8.81
37.06,8.78
37.43,8.74
37.81,8.71
38.19,8.68
38.57,8.64
38.95,8.61
39.34,8.58
39.74,8.55
40.14,8.51
40.54,8.48
40.94,8.44
41.35,8.40
41.76,8.36
42.18,8.33
42.60,8.30
43.03,8.27
43.46,8.23
43.90,8.19
44.33,8.15
44.78,8.11
45.23,8.07
45.68,8.04
46.13,8.00
46.60,7.96
47.06,7.93
47.53,7.89
48.01,7.85
48.49,7.80
48.97,7.73
49.46,7.65
49.96,7.60
50.46,7.59
50.96,7.59
51.47,7.56
51.99,7.51
52.51,7.47
53.03,7.42
53.56,7.37
54.10,7.32
54.64,7.27
55.18,7.21
55.74,7.17
56.29,7.13
56.86,7.09
57.42,7.04
58.00,6.98
58.58,6.93
59.16,6.88
59.76,6.84
60.35,6.79
60.96,6.74
61.57,6.68
62.18,6.62
62.80,6.56
63.43,6.50
64.07,6.45
64.71,6.39
65.35,6.34
66.01,6.28
66.67,6.22
67.33,6.17
68.01,6.11
68.69,6.05
69.37,5.99
70.07,5.94
70.77,5.88
71.48,5.82
72.19,5.76
72.91,5.70
73.64,5.63
74.38,5.56
75.12,5.51
75.87,5.45
76.63,5.39
77.40,5.33
78.17,5.26
78.95,5.19
79.74,5.13
80.54,5.07
81.35,5.01
82.16,4.94
82.98,4.87
83.81,4.81
84.65,4.72
85.50,4.67
86.35,4.63
87.22,4.56
88.09,4.49
88.97,4.42
89.86,4.37
90.76,4.31
91.66,4.23
92.58,4.14
93.51,4.08
94.44,4.05
95.39,3.96
96.34,3.83
97.30,4.14
98.28,4.26
99.26,4.04
100.25,3.62
101.25,3.53
102.27,3.49
103.29,3.44
104.32,3.31
105.37,3.25
106.42,3.20
107.48,3.13
108.56,3.05
109.64,2.98
110.74,2.92
111.85,2.84
112.97,2.78
114.10,2.71
115.24,2.63
116.39,2.56
117.55,2.50
118.73,2.43
119.92,2.36
121.12,2.29
122.33,2.22
123.55,2.15
124.79,2.06
126.03,2.00
127.29,1.93
128.57,1.86
129.85,1.79
131.15,1.72
132.46,1.65
133.79,1.58
135.12,1.51
136.48,1.44
137.84,1.37
139.22,1.30
140.61,1.23
142.02,1.16
143.44,1.09
144.87,1.02
146.32,0.96
147.78,0.89
149.26,0.83
150.75,0.76
152.26,0.69
153.78,0.61
155.32,0.54
156.88,0.48
158.44,0.41
160.03,0.34
161.63,0.27
163.24,0.21
164.88,0.14
166.53,0.08
168.19,0.01
169.87,-0.05
171.57,-0.12
173.29,-0.18
175.02,-0.25
176.77,-0.31
178.54,-0.38
180.32,-0.44
182.13,-0.50
183.95,-0.56
185.79,-0.63
187.65,-0.69
189.52,-0.75
191.42,-0.81
193.33,-0.87
195.27,-0.93
197.22,-0.99
199.19,-1.04
201.18,-1.10
203.19,-1.16
205.23,-1.22
207.28,-1.28
209.35,-1.33
211.44,-1.39
213.56,-1.45
215.69,-1.50
217.85,-1.55
220.03,-1.61
222.23,-1.66
224.45,-1.70
226.70,-1.74
228.96,-1.76
231.25,-1.77
233.57,-1.78
235.90,-1.78
238.26,-1.79
240.64,-1.80
243.05,-1.81
245.48,-1.83
247.93,-1.85
250.41,-1.87
252.92,-1.86
255.45,-1.87
258.00,-1.89
260.58,-1.91
263.19,-1.93
265.82,-1.96
268.48,-1.99
271.16,-2.01
273.87,-2.04
276.61,-2.07
279.38,-2.09
282.17,-2.11
284.99,-2.13
287.84,-2.15
290.72,-2.17
293.63,-2.19
296.57,-2.21
299.53,-2.23
302.53,-2.24
305.55,-2.26
308.61,-2.27
311.69,-2.28
314.81,-2.29
317.96,-2.30
321.14,-2.31
324.35,-2.32
327.59,-2.33
330.87,-2.33
334.18,-2.33
337.52,-2.34
340.90,-2.35
344.30,-2.35
347.75,-2.35
351.23,-2.35
354.74,-2.36
358.28,-2.37
361.87,-2.37
365.49,-2.38
369.14,-2.37
372.83,-2.38
376.56,-2.38
380.33,-2.38
384.13,-2.38
387.97,-2.38
391.85,-2.38
395.77,-2.38
399.73,-2.38
403.72,-2.38
407.76,-2.37
411.84,-2.37
415.96,-2.37
420.12,-2.36
424.32,-2.36
428.56,-2.36
432.85,-2.35
437.18,-2.35
441.55,-2.34
445.96,-2.33
450.42,-2.31
454.93,-2.32
459.48,-2.31
464.07,-2.30
468.71,-2.29
473.40,-2.28
478.13,-2.28
482.91,-2.27
487.74,-2.25
492.62,-2.25
497.55,-2.23
502.52,-2.22
507.55,-2.21
512.62,-2.20
517.75,-2.18
522.93,-2.16
528.16,-2.14
533.44,-2.12
538.77,-2.11
544.16,-2.09
549.60,-2.07
555.10,-2.05
560.65,-2.03
566.25,-2.02
571.92,-2.00
577.64,-1.98
583.41,-1.96
589.25,-1.95
595.14,-1.93
601.09,-1.91
607.10,-1.89
613.17,-1.88
619.30,-1.86
625.50,-1.84
631.75,-1.82
638.07,-1.81
644.45,-1.79
650.89,-1.77
657.40,-1.76
663.98,-1.74
670.62,-1.72
677.32,-1.70
684.10,-1.69
690.94,-1.67
697.85,-1.65
704.83,-1.63
711.87,-1.60
718.99,-1.58
726.18,-1.56
733.44,-1.54
740.78,-1.51
748.19,-1.50
755.67,-1.47
763.23,-1.43
770.86,-1.41
778.57,-1.38
786.35,-1.35
794.22,-1.31
802.16,-1.28
810.18,-1.24
818.28,-1.21
826.46,-1.17
834.73,-1.12
843.08,-1.08
851.51,-1.02
860.02,-0.98
868.62,-0.93
877.31,-0.89
886.08,-0.83
894.94,-0.77
903.89,-0.72
912.93,-0.65
922.06,-0.59
931.28,-0.52
940.59,-0.45
950.00,-0.39
959.50,-0.31
969.09,-0.23
978.78,-0.16
988.57,-0.09
998.46,-0.01
1008.44,0.07
1018.53,0.15
1028.71,0.24
1039.00,0.33
1049.39,0.42
1059.88,0.51
1070.48,0.60
1081.19,0.69
1092.00,0.78
1102.92,0.88
1113.95,0.98
1125.09,1.07
1136.34,1.17
1147.70,1.27
1159.18,1.37
1170.77,1.46
1182.48,1.55
1194.30,1.63
1206.25,1.72
1218.31,1.81
1230.49,1.91
1242.80,2.00
1255.22,2.09
1267.78,2.18
1280.45,2.26
1293.26,2.35
1306.19,2.43
1319.25,2.51
1332.45,2.58
1345.77,2.64
1359.23,2.68
1372.82,2.75
1386.55,2.82
1400.41,2.89
1414.42,2.95
1428.56,3.02
1442.85,3.08
1457.28,3.14
1471.85,3.21
1486.57,3.27
1501.43,3.33
1516.45,3.40
1531.61,3.47
1546.93,3.53
1562.40,3.59
1578.02,3.64
1593.80,3.70
1609.74,3.76
1625.84,3.83
1642.10,3.89
1658.52,3.95
1675.10,4.02
1691.85,4.09
1708.77,4.15
1725.86,4.22
1743.12,4.30
1760.55,4.37
1778.15,4.45
1795.94,4.52
1813.90,4.60
1832.03,4.68
1850.36,4.77
1868.86,4.85
1887.55,4.94
1906.42,5.03
1925.49,5.12
1944.74,5.22
1964.19,5.31
1983.83,5.41
2003.67,5.51
2023.71,5.62
2043.94,5.72
2064.38,5.83
2085.03,5.94
2105.88,6.05
2126.94,6.17
2148.20,6.28
2169.69,6.40
2191.38,6.52
2213.30,6.65
2235.43,6.77
2257.78,6.90
2280.36,7.02
2303.17,7.15
2326.20,7.28
2349.46,7.41
2372.95,7.54
2396.68,7.68
2420.65,7.81
2444.86,7.94
2469.31,8.07
2494.00,8.20
2518.94,8.32
2544.13,8.45
2569.57,8.57
2595.27,8.68
2621.22,8.80
2647.43,8.91
2673.90,9.01
2700.64,9.10
2727.65,9.19
2754.93,9.27
2782.48,9.33
2810.30,9.39
2838.40,9.46
2866.79,9.50
2895.46,9.52
2924.41,9.54
2953.65,9.55
2983.19,9.54
3013.02,9.52
3043.15,9.49
3073.58,9.45
3104.32,9.40
3135.36,9.33
3166.72,9.26
3198.38,9.20
3230.37,9.13
3262.67,9.04
3295.30,8.92
3328.25,8.84
3361.53,8.75
3395.15,8.64
3429.10,8.57
3463.39,8.49
3498.03,8.40
3533.01,8.35
3568.34,8.28
3604.02,8.18
3640.06,8.08
3676.46,8.01
3713.22,7.92
3750.36,7.78
3787.86,7.70
3825.74,7.62
3864.00,7.49
3902.64,7.38
3941.66,7.27
3981.08,7.12
4020.89,6.97
4061.10,6.85
4101.71,6.72
4142.73,6.59
4184.15,6.47
4226.00,6.38
4268.26,6.27
4310.94,6.13
4354.05,6.04
4397.59,5.95
4441.56,5.86
4485.98,5.79
4530.84,5.69
4576.15,5.62
4621.91,5.58
4668.13,5.53
4714.81,5.50
4761.96,5.46
4809.58,5.39
4857.67,5.35
4906.25,5.31
4955.31,5.27
5004.87,5.23
5054.91,5.20
5105.46,5.18
5156.52,5.14
5208.08,5.10
5260.16,5.06
5312.77,5.01
5365.89,4.97
5419.55,4.92
5473.75,4.86
5528.49,4.81
5583.77,4.74
5639.61,4.67
5696.00,4.60
5752.96,4.51
5810.49,4.42
5868.60,4.32
5927.28,4.22
5986.56,4.12
6046.42,4.02
6106.89,3.91
6167.96,3.81
6229.64,3.70
6291.93,3.59
6354.85,3.50
6418.40,3.43
6482.58,3.37
6547.41,3.32
6612.88,3.28
6679.01,3.27
6745.80,3.28
6813.26,3.31
6881.39,3.37
6950.21,3.48
7019.71,3.63
7089.91,3.80
7160.81,4.01
7232.41,4.29
7304.74,4.62
7377.79,4.97
7451.56,5.36
7526.08,5.79
7601.34,6.27
7677.35,6.81
7754.13,7.37
7831.67,7.83
7909.98,8.22
7989.08,8.49
8068.98,8.47
8149.67,8.24
8231.16,7.73
8313.47,6.93
8396.61,6.03
8480.57,5.03
8565.38,4.01
8651.03,3.01
8737.54,2.05
8824.92,1.13
8913.17,0.28
9002.30,-0.55
9092.32,-1.27
9183.25,-1.95
9275.08,-2.59
9367.83,-3.17
9461.51,-3.69
9556.12,-4.18
9651.68,-4.61
9748.20,-5.00
9845.68,-5.33
9944.14,-5.63
10043.58,-5.89
10144.02,-6.12
10245.46,-6.30
10347.91,-6.45
10451.39,-6.57
10555.91,-6.64
10661.46,-6.69
10768.08,-6.71
10875.76,-6.70
10984.52,-6.70
11094.36,-6.70
11205.31,-6.73
11317.36,-6.81
11430.53,-6.93
11544.84,-7.15
11660.29,-7.45
11776.89,-7.76
11894.66,-7.90
12013.60,-7.99
12133.74,-7.79
12255.08,-7.35
12377.63,-6.81
12501.41,-6.35
12626.42,-6.05
12752.68,-5.89
12880.21,-5.92
13009.01,-6.03
13139.10,-6.14
13270.49,-6.39
13403.20,-6.65
13537.23,-6.92
13672.60,-7.16
13809.33,-7.37
13947.42,-7.48
14086.90,-7.51
14227.77,-7.48
14370.04,-7.38
14513.74,-7.18
14658.88,-6.85
14805.47,-6.45
14953.52,-5.92
15103.06,-5.26
15254.09,-4.54
15406.63,-3.57
15560.70,-2.58
15716.30,-1.52
15873.47,-0.91
16032.20,-0.65
16192.52,-1.30
16354.45,-2.40
16517.99,-3.75
16683.17,-5.13
16850.01,-6.39
17018.51,-7.54
17188.69,-8.50
17360.58,-9.35
17534.18,-10.08
17709.53,-10.66
17886.62,-11.19
18065.49,-11.71
18246.14,-12.24
18428.60,-12.91
18612.89,-13.49
18799.02,-13.89
18987.01,-13.99
19176.88,-13.71
19368.65,-13.36
19562.33,-12.88
19757.96,-12.17
19955.54,-11.46
