frequency,raw
20.00,7.79
20.20,7.81
20.40,7.83
20.61,7.85
20.81,7.87
21.02,7.89
21.23,7.90
21.44,7.92
21.66,7.94
21.87,7.96
22.09,7.98
22.31,8.00
22.54,8.02
22.76,8.04
22.99,8.06
23.22,8.08
23.45,8.10
23.69,8.12
23.92,8.13
24.16,8.15
24.40,8.17
24.65,8.19
24.89,8.20
25.14,8.22
25.39,8.24
25.65,8.25
25.91,8.27
26.16,8.29
26.43,8.30
26.69,8.31
26.96,8.33
27.23,8.34
27.50,8.35
27.77,8.36
28.05,8.36
28.33,8.37
28.62,8.38
28.90,8.39
29.19,8.39
29.48,8.40
29.78,8.40
30.08,8.41
30.38,8.42
30.68,8.43
30.99,8.43
31.30,8.44
31.61,8.44
31.93,8.45
32.24,8.45
32.57,8.45
32.89,8.45
33.22,8.45
33.55,8.46
33.89,8.46
34.23,8.47
34.57,8.47
34.92,8.46
35.27,8.47
35.62,8.47
35.97,8.47
36.33,8.48
36.70,8.48
37.06,8.49
37.43,8.49
37.81,8.49
38.19,8.48
38.57,8.48
38.95,8.48
39.34,8.48
39.74,8.48
40.14,8.48
40.54,8.48
40.94,8.48
41.35,8.48
41.76,8.47
42.18,8.47
42.60,8.47
43.03,8.47
43.46,8.47
43.90,8.47
44.33,8.47
44.78,8.46
45.23,8.46
45.68,8.46
46.13,8.46
46.60,8.46
47.06,8.45
47.53,8.45
48.01,8.43
48.49,8.42
48.97,8.41
49.46,8.40
49.96,8.41
50.46,8.42
50.96,8.43
51.47,8.42
51.99,8.40
52.51,8.38
53.03,8.37
53.56,8.37
54.10,8.36
54.64,8.35
55.18,8.33
55.74,8.33
56.29,8.32
56.86,8.31
57.42,8.30
58.00,8.28
58.58,8.26
59.16,8.25
59.76,8.24
60.35,8.22
60.96,8.21
61.57,8.19
62.18,8.17
62.80,8.15
63.43,8.14
64.07,8.12
64.71,8.11
65.35,8.09
66.01,8.07
66.67,8.05
67.33,8.03
68.01,8.01
68.69,8.00
69.37,7.98
70.07,7.96
70.77,7.94
71.48,7.92
72.19,7.89
72.91,7.87
73.64,7.85
74.38,7.83
75.12,7.81
75.87,7.79
76.63,7.76
77.40,7.74
78.17,7.72
78.95,7.70
79.74,7.67
80.54,7.65
81.35,7.63
82.16,7.60
82.98,7.57
83.81,7.55
84.65,7.51
85.50,7.49
86.35,7.47
87.22,7.45
88.09,7.42
88.97,7.40
89.86,7.37
90.76,7.34
91.66,7.32
92.58,7.29
93.51,7.26
94.44,7.23
95.39,7.20
96.34,7.17
97.30,7.19
98.28,7.16
99.26,7.10
100.25,7.05
101.25,7.02
102.27,6.99
103.29,6.96
104.32,6.92
105.37,6.89
106.42,6.86
107.48,6.83
108.56,6.79
109.64,6.76
110.74,6.74
111.85,6.71
112.97,6.60
114.10,6.53
115.24,6.56
116.39,6.54
117.55,6.53
118.73,6.49
119.92,6.46
121.12,6.42
122.33,6.38
123.55,6.35
124.79,6.31
126.03,6.27
127.29,6.24
128.57,6.20
129.85,6.16
131.15,6.12
132.46,6.08
133.79,6.03
135.12,5.99
136.48,5.95
137.84,5.91
139.22,5.87
140.61,5.83
142.02,5.79
143.44,5.75
144.87,5.71
146.32,5.67
147.78,5.65
149.26,5.67
150.75,5.63
152.26,5.51
153.78,5.45
155.32,5.40
156.88,5.35
158.44,5.30
160.03,5.26
161.63,5.21
163.24,5.16
164.88,5.11
166.53,5.06
168.19,5.01
169.87,4.96
171.57,4.90
173.29,4.85
175.02,4.80
176.77,4.74
178.54,4.68
180.32,4.62
182.13,4.57
183.95,4.50
185.79,4.44
187.65,4.38
189.52,4.33
191.42,4.27
193.33,4.22
195.27,4.17
197.22,4.13
199.19,4.10
201.18,4.08
203.19,4.06
205.23,4.04
207.28,4.02
209.35,4.01
211.44,4.00
213.56,3.97
215.69,3.94
217.85,3.92
220.03,3.88
222.23,3.84
224.45,3.80
226.70,3.76
228.96,3.71
231.25,3.66
233.57,3.62
235.90,3.57
238.26,3.52
240.64,3.47
243.05,3.42
245.48,3.37
247.93,3.32
250.41,3.26
252.92,3.21
255.45,3.16
258.00,3.11
260.58,3.06
263.19,3.01
265.82,2.96
268.48,2.90
271.16,2.86
273.87,2.80
276.61,2.75
279.38,2.71
282.17,2.66
284.99,2.62
287.84,2.57
290.72,2.52
293.63,2.46
296.57,2.40
299.53,2.35
302.53,2.32
305.55,2.27
308.61,2.22
311.69,2.19
314.81,2.12
317.96,2.07
321.14,2.03
324.35,1.99
327.59,1.95
330.87,1.91
334.18,1.86
337.52,1.80
340.90,1.75
344.30,1.71
347.75,1.66
351.23,1.61
354.74,1.57
358.28,1.52
361.87,1.47
365.49,1.42
369.14,1.38
372.83,1.32
376.56,1.28
380.33,1.24
384.13,1.19
387.97,1.14
391.85,1.10
395.77,1.05
399.73,0.99
403.72,0.95
407.76,0.92
411.84,0.88
415.96,0.85
420.12,0.82
424.32,0.78
428.56,0.74
432.85,0.70
437.18,0.65
441.55,0.64
445.96,0.60
450.42,0.53
454.93,0.54
459.48,0.50
464.07,0.46
468.71,0.42
473.40,0.39
478.13,0.35
482.91,0.31
487.74,0.27
492.62,0.23
497.55,0.21
502.52,0.18
507.55,0.14
512.62,0.11
517.75,0.07
522.93,0.04
528.16,0.02
533.44,-0.02
538.77,-0.06
544.16,-0.10
549.60,-0.12
555.10,-0.15
560.65,-0.18
566.25,-0.21
571.92,-0.24
577.64,-0.28
583.41,-0.31
589.25,-0.32
595.14,-0.34
601.09,-0.37
607.10,-0.40
613.17,-0.42
619.30,-0.45
625.50,-0.48
631.75,-0.51
638.07,-0.53
644.45,-0.53
650.89,-0.54
657.40,-0.58
663.98,-0.61
670.62,-0.62
677.32,-0.65
684.10,-0.66
690.94,-0.66
697.85,-0.70
704.83,-0.72
711.87,-0.73
718.99,-0.74
726.18,-0.75
733.44,-0.76
740.78,-0.77
748.19,-0.81
755.67,-0.81
763.23,-0.80
770.86,-0.82
778.57,-0.83
786.35,-0.85
794.22,-0.85
802.16,-0.84
810.18,-0.82
818.28,-0.81
826.46,-0.80
834.73,-0.80
843.08,-0.82
851.51,-0.84
860.02,-0.84
868.62,-0.85
877.31,-0.83
886.08,-0.72
894.94,-0.56
903.89,-0.44
912.93,-0.38
922.06,-0.34
931.28,-0.31
940.59,-0.28
950.00,-0.25
959.50,-0.20
969.09,-0.15
978.78,-0.11
988.57,-0.06
998.46,-0.01
1008.44,0.05
1018.53,0.10
1028.71,0.16
1039.00,0.22
1049.39,0.29
1059.88,0.35
1070.48,0.42
1081.19,0.48
1092.00,0.55
1102.92,0.63
1113.95,0.71
1125.09,0.78
1136.34,0.86
1147.70,0.95
1159.18,1.03
1170.77,1.10
1182.48,1.17
1194.30,1.25
1206.25,1.32
1218.31,1.41
1230.49,1.49
1242.80,1.58
1255.22,1.65
1267.78,1.74
1280.45,1.83
1293.26,1.91
1306.19,1.99
1319.25,2.07
1332.45,2.14
1345.77,2.20
1359.23,2.24
1372.82,2.32
1386.55,2.39
1400.41,2.46
1414.42,2.53
1428.56,2.60
1442.85,2.68
1457.28,2.75
1471.85,2.81
1486.57,2.88
1501.43,2.94
1516.45,3.02
1531.61,3.08
1546.93,3.13
1562.40,3.21
1578.02,3.28
1593.80,3.35
1609.74,3.41
1625.84,3.48
1642.10,3.54
1658.52,3.61
1675.10,3.69
1691.85,3.75
1708.77,3.83
1725.86,3.90
1743.12,3.97
1760.55,4.04
1778.15,4.12
1795.94,4.19
1813.90,4.27
1832.03,4.35
1850.36,4.44
1868.86,4.50
1887.55,4.58
1906.42,4.66
1925.49,4.74
1944.74,4.81
1964.19,4.90
1983.83,4.99
2003.67,5.07
2023.71,5.16
2043.94,5.24
2064.38,5.33
2085.03,5.41
2105.88,5.50
2126.94,5.58
2148.20,5.67
2169.69,5.75
2191.38,5.84
2213.30,5.92
2235.43,6.00
2257.78,6.08
2280.36,6.16
2303.17,6.23
2326.20,6.30
2349.46,6.37
2372.95,6.43
2396.68,6.49
2420.65,6.54
2444.86,6.58
2469.31,6.62
2494.00,6.65
2518.94,6.67
2544.13,6.69
2569.57,6.71
2595.27,6.72
2621.22,6.73
2647.43,6.73
2673.90,6.73
2700.64,6.73
2727.65,6.72
2754.93,6.71
2782.48,6.70
2810.30,6.69
2838.40,6.67
2866.79,6.66
2895.46,6.64
2924.41,6.62
2953.65,6.60
2983.19,6.58
3013.02,6.56
3043.15,6.55
3073.58,6.53
3104.32,6.51
3135.36,6.50
3166.72,6.48
3198.38,6.47
3230.37,6.45
3262.67,6.43
3295.30,6.42
3328.25,6.41
3361.53,6.39
3395.15,6.38
3429.10,6.38
3463.39,6.37
3498.03,6.37
3533.01,6.36
3568.34,6.36
3604.02,6.37
3640.06,6.37
3676.46,6.38
3713.22,6.40
3750.36,6.41
3787.86,6.43
3825.74,6.45
3864.00,6.48
3902.64,6.51
3941.66,6.54
3981.08,6.58
4020.89,6.62
4061.10,6.67
4101.71,6.73
4142.73,6.80
4184.15,6.87
4226.00,6.95
4268.26,7.04
4310.94,7.12
4354.05,7.21
4397.59,7.31
4441.56,7.41
4485.98,7.52
4530.84,7.62
4576.15,7.73
4621.91,7.85
4668.13,7.97
4714.81,8.09
4761.96,8.21
4809.58,8.33
4857.67,8.45
4906.25,8.56
4955.31,8.66
5004.87,8.75
5054.91,8.83
5105.46,8.90
5156.52,8.95
5208.08,8.98
5260.16,8.98
5312.77,8.96
5365.89,8.92
5419.55,8.85
5473.75,8.74
5528.49,8.56
5583.77,8.26
5639.61,8.02
5696.00,7.81
5752.96,7.81
5810.49,7.82
5868.60,7.78
5927.28,7.79
5986.56,7.88
6046.42,7.80
6106.89,7.65
6167.96,7.50
6229.64,7.35
6291.93,7.21
6354.85,7.09
6418.40,6.98
6482.58,6.88
6547.41,6.82
6612.88,6.78
6679.01,6.78
6745.80,6.81
6813.26,6.86
6881.39,6.97
6950.21,7.13
7019.71,7.33
7089.91,7.57
7160.81,7.86
7232.41,8.18
7304.74,8.54
7377.79,8.97
7451.56,9.44
7526.08,9.96
7601.34,10.53
7677.35,11.17
7754.13,11.84
7831.67,12.39
7909.98,12.86
7989.08,13.16
8068.98,13.05
8149.67,12.70
8231.16,12.06
8313.47,11.18
8396.61,10.21
8480.57,9.17
8565.38,8.15
8651.03,7.15
8737.54,6.20
8824.92,5.32
8913.17,4.52
9002.30,3.75
9092.32,3.07
9183.25,2.44
9275.08,1.86
9367.83,1.34
9461.51,0.87
9556.12,0.45
9651.68,0.07
9748.20,-0.28
9845.68,-0.56
9944.14,-0.81
10043.58,-1.01
10144.02,-1.18
10245.46,-1.28
10347.91,-1.36
10451.39,-1.39
10555.91,-1.37
10661.46,-1.30
10768.08,-1.20
10875.76,-1.04
10984.52,-0.84
11094.36,-0.61
11205.31,-0.34
11317.36,-0.04
11430.53,0.28
11544.84,0.61
11660.29,0.93
11776.89,1.20
11894.66,1.29
12013.60,1.34
12133.74,1.22
12255.08,0.93
12377.63,0.55
12501.41,0.08
12626.42,-0.48
12752.68,-1.08
12880.21,-1.66
13009.01,-2.24
13139.10,-2.82
13270.49,-3.30
13403.20,-3.74
13537.23,-4.07
13672.60,-4.31
13809.33,-4.48
13947.42,-4.47
14086.90,-4.35
14227.77,-4.16
14370.04,-3.85
14513.74,-3.40
14658.88,-2.69
14805.47,-1.85
14953.52,-0.79
15103.06,0.53
15254.09,1.99
15406.63,3.71
15560.70,4.98
15716.30,5.56
15873.47,4.56
16032.20,3.09
16192.52,1.50
16354.45,-0.04
16517.99,-1.58
16683.17,-3.38
16850.01,-4.39
17018.51,-4.88
17188.69,-5.43
17360.58,-5.70
17534.18,-5.69
17709.53,-5.19
17886.62,-4.68
18065.49,-4.40
18246.14,-4.52
18428.60,-5.74
18612.89,-7.45
18799.02,-9.46
18987.01,-11.49
19176.88,-13.24
19368.65,-14.71
19562.33,-15.81
19757.96,-16.47
19955.54,-17.12
