frequency,raw
20.00,3.03
20.20,3.07
20.40,3.11
20.61,3.16
20.81,3.19
21.02,3.21
21.23,3.23
21.44,3.24
21.66,3.26
21.87,3.28
22.09,3.30
22.31,3.33
22.54,3.36
22.76,3.40
22.99,3.43
23.22,3.47
23.45,3.50
23.69,3.53
23.92,3.56
24.16,3.59
24.40,3.61
24.65,3.64
24.89,3.67
25.14,3.69
25.39,3.72
25.65,3.74
25.91,3.77
26.16,3.79
26.43,3.82
26.69,3.85
26.96,3.87
27.23,3.89
27.50,3.92
27.77,3.94
28.05,3.96
28.33,3.98
28.62,4.00
28.90,4.02
29.19,4.04
29.48,4.06
29.78,4.07
30.08,4.09
30.38,4.10
30.68,4.12
30.99,4.14
31.30,4.15
31.61,4.17
31.93,4.18
32.24,4.20
32.57,4.21
32.89,4.23
33.22,4.25
33.55,4.27
33.89,4.28
34.23,4.28
34.57,4.29
34.92,4.29
35.27,4.30
35.62,4.32
35.97,4.34
36.33,4.36
36.70,4.38
37.06,4.39
37.43,4.39
37.81,4.39
38.19,4.39
38.57,4.40
38.95,4.41
39.34,4.42
39.74,4.43
40.14,4.44
40.54,4.44
40.94,4.45
41.35,4.46
41.76,4.47
42.18,4.47
42.60,4.48
43.03,4.49
43.46,4.50
43.90,4.52
44.33,4.54
44.78,4.57
45.23,4.59
45.68,4.60
46.13,4.60
46.60,4.58
47.06,4.57
47.53,4.57
48.01,4.59
48.49,4.60
48.97,4.59
49.46,4.57
49.96,4.58
50.46,4.61
50.96,4.63
51.47,4.63
51.99,4.62
52.51,4.61
53.03,4.61
53.56,4.60
54.10,4.59
54.64,4.59
55.18,4.62
55.74,4.64
56.29,4.66
56.86,4.66
57.42,4.65
58.00,4.63
58.58,4.62
59.16,4.62
59.76,4.63
60.35,4.63
60.96,4.61
61.57,4.58
62.18,4.56
62.80,4.58
63.43,4.59
64.07,4.60
64.71,4.59
65.35,4.58
66.01,4.57
66.67,4.55
67.33,4.54
68.01,4.54
68.69,4.53
69.37,4.52
70.07,4.51
70.77,4.50
71.48,4.49
72.19,4.48
72.91,4.47
73.64,4.46
74.38,4.46
75.12,4.45
75.87,4.44
76.63,4.43
77.40,4.41
78.17,4.39
78.95,4.38
79.74,4.38
80.54,4.36
81.35,4.35
82.16,4.35
82.98,4.34
83.81,4.31
84.65,4.27
85.50,4.24
86.35,4.22
87.22,4.24
88.09,4.25
88.97,4.28
89.86,4.32
90.76,4.24
91.66,4.16
92.58,4.09
93.51,4.14
94.44,4.17
95.39,4.17
96.34,4.14
97.30,4.10
98.28,4.10
99.26,4.10
100.25,4.07
101.25,4.03
102.27,4.01
103.29,3.99
104.32,3.97
105.37,3.94
106.42,3.92
107.48,3.90
108.56,3.90
109.64,3.88
110.74,3.84
111.85,3.82
112.97,3.80
114.10,3.79
115.24,3.77
116.39,3.74
117.55,3.71
118.73,3.68
119.92,3.65
121.12,3.62
122.33,3.60
123.55,3.59
124.79,3.56
126.03,3.55
127.29,3.52
128.57,3.49
129.85,3.46
131.15,3.44
132.46,3.40
133.79,3.38
135.12,3.35
136.48,3.32
137.84,3.28
139.22,3.25
140.61,3.22
142.02,3.19
143.44,3.16
144.87,3.14
146.32,3.13
147.78,3.12
149.26,3.16
150.75,3.12
152.26,3.02
153.78,2.99
155.32,2.97
156.88,2.96
158.44,2.93
160.03,2.91
161.63,2.90
163.24,2.89
164.88,2.88
166.53,2.86
168.19,2.84
169.87,2.82
171.57,2.78
173.29,2.76
175.02,2.75
176.77,2.71
178.54,2.67
180.32,2.63
182.13,2.60
183.95,2.56
185.79,2.52
187.65,2.49
189.52,2.46
191.42,2.43
193.33,2.40
195.27,2.36
197.22,2.32
199.19,2.30
201.18,2.27
203.19,2.24
205.23,2.19
207.28,2.14
209.35,2.09
211.44,2.06
213.56,2.04
215.69,2.01
217.85,1.98
220.03,1.93
222.23,1.89
224.45,1.85
226.70,1.82
228.96,1.78
231.25,1.74
233.57,1.71
235.90,1.67
238.26,1.64
240.64,1.60
243.05,1.56
245.48,1.53
247.93,1.49
250.41,1.45
252.92,1.41
255.45,1.38
258.00,1.35
260.58,1.32
263.19,1.28
265.82,1.23
268.48,1.20
271.16,1.16
273.87,1.14
276.61,1.11
279.38,1.09
282.17,1.06
284.99,1.03
287.84,1.02
290.72,1.00
293.63,0.98
296.57,0.96
299.53,0.93
302.53,0.91
305.55,0.88
308.61,0.86
311.69,0.83
314.81,0.80
317.96,0.77
321.14,0.74
324.35,0.71
327.59,0.70
330.87,0.68
334.18,0.63
337.52,0.59
340.90,0.56
344.30,0.53
347.75,0.50
351.23,0.47
354.74,0.42
358.28,0.39
361.87,0.35
365.49,0.32
369.14,0.29
372.83,0.26
376.56,0.23
380.33,0.20
384.13,0.16
387.97,0.13
391.85,0.10
395.77,0.06
399.73,0.02
403.72,-0.01
407.76,-0.04
411.84,-0.06
415.96,-0.10
420.12,-0.13
424.32,-0.16
428.56,-0.19
432.85,-0.21
437.18,-0.24
441.55,-0.26
445.96,-0.31
450.42,-0.37
454.93,-0.35
459.48,-0.37
464.07,-0.40
468.71,-0.43
473.40,-0.45
478.13,-0.47
482.91,-0.49
487.74,-0.52
492.62,-0.53
497.55,-0.56
502.52,-0.58
507.55,-0.60
512.62,-0.62
517.75,-0.64
522.93,-0.66
528.16,-0.68
533.44,-0.70
538.77,-0.72
544.16,-0.74
549.60,-0.75
555.10,-0.77
560.65,-0.79
566.25,-0.80
571.92,-0.82
577.64,-0.84
583.41,-0.85
589.25,-0.87
595.14,-0.88
601.09,-0.89
607.10,-0.90
613.17,-0.92
619.30,-0.93
625.50,-0.94
631.75,-0.95
638.07,-0.95
644.45,-0.95
650.89,-0.94
657.40,-0.97
663.98,-0.98
670.62,-0.99
677.32,-1.00
684.10,-1.00
690.94,-1.00
697.85,-1.01
704.83,-1.01
711.87,-1.00
718.99,-1.01
726.18,-1.00
733.44,-1.00
740.78,-0.99
748.19,-1.01
755.67,-0.99
763.23,-0.97
770.86,-0.96
778.57,-0.94
786.35,-0.93
794.22,-0.91
802.16,-0.89
810.18,-0.88
818.28,-0.85
826.46,-0.83
834.73,-0.80
843.08,-0.79
851.51,-0.77
860.02,-0.71
868.62,-0.68
877.31,-0.64
886.08,-0.61
894.94,-0.56
903.89,-0.52
912.93,-0.49
922.06,-0.44
931.28,-0.40
940.59,-0.36
950.00,-0.32
959.50,-0.25
969.09,-0.19
978.78,-0.13
988.57,-0.07
998.46,-0.01
1008.44,0.05
1018.53,0.11
1028.71,0.17
1039.00,0.24
1049.39,0.31
1059.88,0.38
1070.48,0.45
1081.19,0.53
1092.00,0.61
1102.92,0.70
1113.95,0.79
1125.09,0.88
1136.34,0.98
1147.70,1.08
1159.18,1.17
1170.77,1.26
1182.48,1.35
1194.30,1.44
1206.25,1.53
1218.31,1.63
1230.49,1.74
1242.80,1.84
1255.22,1.93
1267.78,2.04
1280.45,2.14
1293.26,2.24
1306.19,2.34
1319.25,2.44
1332.45,2.54
1345.77,2.62
1359.23,2.68
1372.82,2.77
1386.55,2.86
1400.41,2.96
1414.42,3.05
1428.56,3.14
1442.85,3.25
1457.28,3.34
1471.85,3.43
1486.57,3.53
1501.43,3.62
1516.45,3.73
1531.61,3.82
1546.93,3.91
1562.40,4.01
1578.02,4.12
1593.80,4.22
1609.74,4.32
1625.84,4.42
1642.10,4.52
1658.52,4.62
1675.10,4.74
1691.85,4.85
1708.77,4.96
1725.86,5.08
1743.12,5.19
1760.55,5.31
1778.15,5.43
1795.94,5.55
1813.90,5.68
1832.03,5.81
1850.36,5.94
1868.86,6.06
1887.55,6.19
1906.42,6.32
1925.49,6.45
1944.74,6.58
1964.19,6.72
1983.83,6.86
2003.67,7.00
2023.71,7.14
2043.94,7.28
2064.38,7.42
2085.03,7.55
2105.88,7.69
2126.94,7.84
2148.20,7.97
2169.69,8.11
2191.38,8.25
2213.30,8.38
2235.43,8.51
2257.78,8.64
2280.36,8.77
2303.17,8.89
2326.20,9.01
2349.46,9.12
2372.95,9.23
2396.68,9.34
2420.65,9.43
2444.86,9.52
2469.31,9.60
2494.00,9.67
2518.94,9.72
2544.13,9.78
2569.57,9.82
2595.27,9.85
2621.22,9.87
2647.43,9.88
2673.90,9.88
2700.64,9.87
2727.65,9.86
2754.93,9.83
2782.48,9.79
2810.30,9.75
2838.40,9.69
2866.79,9.63
2895.46,9.56
2924.41,9.48
2953.65,9.40
2983.19,9.31
3013.02,9.23
3043.15,9.14
3073.58,9.04
3104.32,8.94
3135.36,8.84
3166.72,8.75
3198.38,8.65
3230.37,8.55
3262.67,8.44
3295.30,8.35
3328.25,8.24
3361.53,8.14
3395.15,8.04
3429.10,7.95
3463.39,7.86
3498.03,7.76
3533.01,7.67
3568.34,7.59
3604.02,7.50
3640.06,7.42
3676.46,7.35
3713.22,7.28
3750.36,7.21
3787.86,7.16
3825.74,7.10
3864.00,7.05
3902.64,7.00
3941.66,6.96
3981.08,6.91
4020.89,6.87
4061.10,6.83
4101.71,6.80
4142.73,6.77
4184.15,6.75
4226.00,6.74
4268.26,6.74
4310.94,6.73
4354.05,6.74
4397.59,6.76
4441.56,6.78
4485.98,6.82
4530.84,6.86
4576.15,6.92
4621.91,6.99
4668.13,7.08
4714.81,7.18
4761.96,7.28
4809.58,7.40
4857.67,7.53
4906.25,7.68
4955.31,7.83
5004.87,8.00
5054.91,8.17
5105.46,8.35
5156.52,8.53
5208.08,8.71
5260.16,8.88
5312.77,9.06
5365.89,9.22
5419.55,9.38
5473.75,9.51
5528.49,9.62
5583.77,9.72
5639.61,9.77
5696.00,9.82
5752.96,9.81
5810.49,9.79
5868.60,9.72
5927.28,9.66
5986.56,9.60
6046.42,9.51
6106.89,9.40
6167.96,9.25
6229.64,9.09
6291.93,8.91
6354.85,8.73
6418.40,8.54
6482.58,8.36
6547.41,8.19
6612.88,8.03
6679.01,7.89
6745.80,7.77
6813.26,7.66
6881.39,7.60
6950.21,7.57
7019.71,7.58
7089.91,7.62
7160.81,7.70
7232.41,7.80
7304.74,7.93
7377.79,8.11
7451.56,8.31
7526.08,8.54
7601.34,8.80
7677.35,9.12
7754.13,9.44
7831.67,9.68
7909.98,9.89
7989.08,10.03
8068.98,10.01
8149.67,9.88
8231.16,9.60
8313.47,9.14
8396.61,8.58
8480.57,7.88
8565.38,7.10
8651.03,6.29
8737.54,5.46
8824.92,4.62
8913.17,3.82
9002.30,3.03
9092.32,2.28
9183.25,1.58
9275.08,0.90
9367.83,0.27
9461.51,-0.32
9556.12,-0.88
9651.68,-1.40
9748.20,-1.89
9845.68,-2.33
9944.14,-2.75
10043.58,-3.13
10144.02,-3.48
10245.46,-3.77
10347.91,-4.04
10451.39,-4.28
10555.91,-4.47
10661.46,-4.63
10768.08,-4.76
10875.76,-4.85
10984.52,-4.90
11094.36,-4.91
11205.31,-4.88
11317.36,-4.78
11430.53,-4.67
11544.84,-4.48
11660.29,-4.24
11776.89,-3.96
11894.66,-3.55
12013.60,-3.11
12133.74,-2.60
12255.08,-1.96
12377.63,-1.24
12501.41,-0.40
12626.42,0.61
12752.68,1.78
12880.21,2.99
13009.01,4.19
13139.10,5.39
13270.49,5.55
13403.20,5.23
13537.23,4.02
13672.60,2.84
13809.33,1.72
13947.42,0.92
14086.90,0.30
14227.77,-0.22
14370.04,-0.65
14513.74,-0.97
14658.88,-1.16
14805.47,-1.28
14953.52,-1.27
15103.06,-1.14
15254.09,-0.94
15406.63,-0.49
15560.70,0.05
15716.30,0.72
15873.47,1.39
16032.20,1.95
16192.52,2.11
16354.45,1.68
16517.99,0.88
16683.17,-0.44
16850.01,-1.79
17018.51,-3.16
17188.69,-4.38
17360.58,-5.45
17534.18,-6.40
17709.53,-7.18
17886.62,-7.78
18065.49,-8.26
18246.14,-8.61
18428.60,-8.78
18612.89,-8.87
18799.02,-8.92
18987.01,-8.95
19176.88,-9.25
19368.65,-9.96
19562.33,-11.06
19757.96,-12.45
19955.54,-13.85
