frequency,raw
20.00,4.28
20.20,4.31
20.40,4.33
20.61,4.36
20.81,4.39
21.02,4.41
21.23,4.44
21.44,4.47
21.66,4.50
21.87,4.53
22.09,4.56
22.31,4.59
22.54,4.63
22.76,4.66
22.99,4.69
23.22,4.72
23.45,4.75
23.69,4.78
23.92,4.81
24.16,4.84
24.40,4.87
24.65,4.89
24.89,4.92
25.14,4.95
25.39,4.97
25.65,4.99
25.91,5.02
26.16,5.04
26.43,5.06
26.69,5.08
26.96,5.10
27.23,5.12
27.50,5.15
27.77,5.17
28.05,5.19
28.33,5.21
28.62,5.22
28.90,5.24
29.19,5.26
29.48,5.27
29.78,5.29
30.08,5.30
30.38,5.32
30.68,5.34
30.99,5.35
31.30,5.37
31.61,5.38
31.93,5.39
32.24,5.40
32.57,5.41
32.89,5.42
33.22,5.44
33.55,5.46
33.89,5.48
34.23,5.49
34.57,5.50
34.92,5.51
35.27,5.51
35.62,5.52
35.97,5.53
36.33,5.55
36.70,5.56
37.06,5.57
37.43,5.57
37.81,5.58
38.19,5.58
38.57,5.59
38.95,5.60
39.34,5.61
39.74,5.62
40.14,5.63
40.54,5.63
40.94,5.63
41.35,5.64
41.76,5.65
42.18,5.66
42.60,5.66
43.03,5.67
43.46,5.68
43.90,5.68
44.33,5.69
44.78,5.69
45.23,5.70
45.68,5.70
46.13,5.71
46.60,5.71
47.06,5.72
47.53,5.72
48.01,5.72
48.49,5.72
48.97,5.72
49.46,5.72
49.96,5.72
50.46,5.73
50.96,5.74
51.47,5.74
51.99,5.74
52.51,5.73
53.03,5.73
53.56,5.73
54.10,5.72
54.64,5.71
55.18,5.70
55.74,5.70
56.29,5.70
56.86,5.70
57.42,5.69
58.00,5.68
58.58,5.68
59.16,5.67
59.76,5.67
60.35,5.66
60.96,5.64
61.57,5.61
62.18,5.60
62.80,5.59
63.43,5.59
64.07,5.58
64.71,5.58
65.35,5.58
66.01,5.59
66.67,5.58
67.33,5.54
68.01,5.49
68.69,5.48
69.37,5.46
70.07,5.43
70.77,5.42
71.48,5.40
72.19,5.39
72.91,5.35
73.64,5.31
74.38,5.29
75.12,5.26
75.87,5.23
76.63,5.20
77.40,5.16
78.17,5.10
78.95,5.04
79.74,4.97
80.54,4.98
81.35,5.02
82.16,4.97
82.98,4.95
83.81,4.94
84.65,4.94
85.50,4.92
86.35,4.89
87.22,4.88
88.09,4.93
88.97,4.91
89.86,4.81
90.76,4.79
91.66,4.79
92.58,4.81
93.51,4.74
94.44,4.72
95.39,4.74
96.34,4.75
97.30,4.75
98.28,4.70
99.26,4.59
100.25,4.52
101.25,4.72
102.27,4.73
103.29,4.70
104.32,4.71
105.37,4.71
106.42,4.70
107.48,4.68
108.56,4.68
109.64,4.67
110.74,4.66
111.85,4.65
112.97,4.65
114.10,4.65
115.24,4.63
116.39,4.63
117.55,4.62
118.73,4.61
119.92,4.59
121.12,4.57
122.33,4.54
123.55,4.51
124.79,4.49
126.03,4.48
127.29,4.46
128.57,4.43
129.85,4.40
131.15,4.38
132.46,4.34
133.79,4.32
135.12,4.29
136.48,4.26
137.84,4.23
139.22,4.20
140.61,4.17
142.02,4.13
143.44,4.10
144.87,4.07
146.32,4.04
147.78,4.03
149.26,4.07
150.75,4.03
152.26,3.91
153.78,3.86
155.32,3.82
156.88,3.78
158.44,3.74
160.03,3.70
161.63,3.67
163.24,3.63
164.88,3.58
166.53,3.54
168.19,3.50
169.87,3.46
171.57,3.42
173.29,3.38
175.02,3.35
176.77,3.30
178.54,3.26
180.32,3.23
182.13,3.19
183.95,3.15
185.79,3.12
187.65,3.09
189.52,3.06
191.42,3.04
193.33,3.01
195.27,2.98
197.22,2.98
199.19,2.96
201.18,2.93
203.19,2.90
205.23,2.88
207.28,2.85
209.35,2.82
211.44,2.78
213.56,2.74
215.69,2.71
217.85,2.67
220.03,2.64
222.23,2.60
224.45,2.56
226.70,2.52
228.96,2.48
231.25,2.44
233.57,2.40
235.90,2.36
238.26,2.32
240.64,2.28
243.05,2.24
245.48,2.20
247.93,2.16
250.41,2.11
252.92,2.07
255.45,2.03
258.00,1.99
260.58,1.95
263.19,1.91
265.82,1.87
268.48,1.83
271.16,1.79
273.87,1.75
276.61,1.72
279.38,1.68
282.17,1.64
284.99,1.60
287.84,1.57
290.72,1.53
293.63,1.49
296.57,1.45
299.53,1.42
302.53,1.38
305.55,1.34
308.61,1.31
311.69,1.28
314.81,1.24
317.96,1.21
321.14,1.17
324.35,1.14
327.59,1.10
330.87,1.07
334.18,1.04
337.52,1.00
340.90,0.97
344.30,0.93
347.75,0.90
351.23,0.86
354.74,0.82
358.28,0.79
361.87,0.75
365.49,0.71
369.14,0.67
372.83,0.64
376.56,0.60
380.33,0.57
384.13,0.54
387.97,0.50
391.85,0.47
395.77,0.43
399.73,0.38
403.72,0.35
407.76,0.32
411.84,0.29
415.96,0.26
420.12,0.22
424.32,0.19
428.56,0.16
432.85,0.13
437.18,0.10
441.55,0.07
445.96,0.03
450.42,-0.03
454.93,-0.01
459.48,-0.04
464.07,-0.07
468.71,-0.10
473.40,-0.13
478.13,-0.15
482.91,-0.17
487.74,-0.20
492.62,-0.23
497.55,-0.25
502.52,-0.28
507.55,-0.30
512.62,-0.32
517.75,-0.35
522.93,-0.37
528.16,-0.39
533.44,-0.41
538.77,-0.43
544.16,-0.45
549.60,-0.47
555.10,-0.49
560.65,-0.51
566.25,-0.53
571.92,-0.55
577.64,-0.57
583.41,-0.59
589.25,-0.60
595.14,-0.62
601.09,-0.63
607.10,-0.65
613.17,-0.66
619.30,-0.68
625.50,-0.69
631.75,-0.71
638.07,-0.72
644.45,-0.71
650.89,-0.71
657.40,-0.74
663.98,-0.76
670.62,-0.77
677.32,-0.78
684.10,-0.79
690.94,-0.79
697.85,-0.79
704.83,-0.80
711.87,-0.80
718.99,-0.81
726.18,-0.81
733.44,-0.81
740.78,-0.81
748.19,-0.83
755.67,-0.81
763.23,-0.79
770.86,-0.79
778.57,-0.78
786.35,-0.77
794.22,-0.75
802.16,-0.74
810.18,-0.72
818.28,-0.70
826.46,-0.68
834.73,-0.66
843.08,-0.65
851.51,-0.63
860.02,-0.58
868.62,-0.55
877.31,-0.52
886.08,-0.49
894.94,-0.45
903.89,-0.42
912.93,-0.39
922.06,-0.36
931.28,-0.33
940.59,-0.30
950.00,-0.27
959.50,-0.21
969.09,-0.16
978.78,-0.11
988.57,-0.07
998.46,-0.01
1008.44,0.05
1018.53,0.11
1028.71,0.17
1039.00,0.25
1049.39,0.32
1059.88,0.39
1070.48,0.47
1081.19,0.55
1092.00,0.63
1102.92,0.72
1113.95,0.81
1125.09,0.90
1136.34,0.99
1147.70,1.10
1159.18,1.18
1170.77,1.27
1182.48,1.35
1194.30,1.44
1206.25,1.53
1218.31,1.62
1230.49,1.72
1242.80,1.81
1255.22,1.89
1267.78,2.00
1280.45,2.09
1293.26,2.17
1306.19,2.26
1319.25,2.35
1332.45,2.43
1345.77,2.50
1359.23,2.55
1372.82,2.63
1386.55,2.71
1400.41,2.79
1414.42,2.86
1428.56,2.94
1442.85,3.02
1457.28,3.10
1471.85,3.17
1486.57,3.24
1501.43,3.32
1516.45,3.40
1531.61,3.47
1546.93,3.53
1562.40,3.61
1578.02,3.69
1593.80,3.76
1609.74,3.84
1625.84,3.91
1642.10,3.98
1658.52,4.06
1675.10,4.14
1691.85,4.22
1708.77,4.30
1725.86,4.38
1743.12,4.46
1760.55,4.54
1778.15,4.62
1795.94,4.71
1813.90,4.79
1832.03,4.88
1850.36,4.98
1868.86,5.05
1887.55,5.14
1906.42,5.22
1925.49,5.31
1944.74,5.39
1964.19,5.49
1983.83,5.59
2003.67,5.68
2023.71,5.76
2043.94,5.86
2064.38,5.95
2085.03,6.04
2105.88,6.13
2126.94,6.23
2148.20,6.32
2169.69,6.41
2191.38,6.50
2213.30,6.59
2235.43,6.68
2257.78,6.77
2280.36,6.86
2303.17,6.95
2326.20,7.03
2349.46,7.11
2372.95,7.20
2396.68,7.28
2420.65,7.36
2444.86,7.43
2469.31,7.50
2494.00,7.57
2518.94,7.64
2544.13,7.71
2569.57,7.77
2595.27,7.82
2621.22,7.87
2647.43,7.92
2673.90,7.97
2700.64,8.01
2727.65,8.04
2754.93,8.08
2782.48,8.11
2810.30,8.13
2838.40,8.15
2866.79,8.16
2895.46,8.17
2924.41,8.17
2953.65,8.17
2983.19,8.16
3013.02,8.15
3043.15,8.13
3073.58,8.11
3104.32,8.09
3135.36,8.06
3166.72,8.03
3198.38,8.00
3230.37,7.96
3262.67,7.92
3295.30,7.88
3328.25,7.83
3361.53,7.78
3395.15,7.73
3429.10,7.67
3463.39,7.62
3498.03,7.57
3533.01,7.51
3568.34,7.46
3604.02,7.41
3640.06,7.36
3676.46,7.31
3713.22,7.26
3750.36,7.20
3787.86,7.15
3825.74,7.10
3864.00,7.03
3902.64,6.97
3941.66,6.90
3981.08,6.82
4020.89,6.74
4061.10,6.67
4101.71,6.59
4142.73,6.52
4184.15,6.45
4226.00,6.39
4268.26,6.33
4310.94,6.27
4354.05,6.21
4397.59,6.17
4441.56,6.12
4485.98,6.09
4530.84,6.06
4576.15,6.04
4621.91,6.02
4668.13,6.01
4714.81,6.01
4761.96,6.01
4809.58,6.01
4857.67,6.02
4906.25,6.03
4955.31,6.04
5004.87,6.04
5054.91,6.05
5105.46,6.07
5156.52,6.08
5208.08,6.08
5260.16,6.09
5312.77,6.09
5365.89,6.09
5419.55,6.09
5473.75,6.09
5528.49,6.08
5583.77,6.07
5639.61,6.05
5696.00,6.02
5752.96,5.99
5810.49,5.96
5868.60,5.92
5927.28,5.90
5986.56,5.91
6046.42,5.89
6106.89,5.87
6167.96,5.83
6229.64,5.79
6291.93,5.77
6354.85,5.75
6418.40,5.73
6482.58,5.72
6547.41,5.72
6612.88,5.73
6679.01,5.75
6745.80,5.78
6813.26,5.82
6881.39,5.89
6950.21,6.00
7019.71,6.13
7089.91,6.30
7160.81,6.49
7232.41,6.71
7304.74,6.94
7377.79,7.22
7451.56,7.52
7526.08,7.84
7601.34,8.17
7677.35,8.55
7754.13,8.93
7831.67,9.22
7909.98,9.48
7989.08,9.67
8068.98,9.71
8149.67,9.65
8231.16,9.46
8313.47,9.08
8396.61,8.61
8480.57,8.00
8565.38,7.31
8651.03,6.58
8737.54,5.82
8824.92,5.05
8913.17,4.31
9002.30,3.58
9092.32,2.88
9183.25,2.21
9275.08,1.57
9367.83,0.96
9461.51,0.40
9556.12,-0.13
9651.68,-0.63
9748.20,-1.10
9845.68,-1.53
9944.14,-1.94
10043.58,-2.32
10144.02,-2.68
10245.46,-3.00
10347.91,-3.30
10451.39,-3.59
10555.91,-3.85
10661.46,-4.08
10768.08,-4.28
10875.76,-4.42
10984.52,-4.53
11094.36,-4.60
11205.31,-4.63
11317.36,-4.60
11430.53,-4.55
11544.84,-4.44
11660.29,-4.30
11776.89,-4.13
11894.66,-3.86
12013.60,-3.58
12133.74,-3.25
12255.08,-2.84
12377.63,-2.38
12501.41,-1.87
12626.42,-1.24
12752.68,-0.52
12880.21,0.33
13009.01,1.24
13139.10,2.16
13270.49,3.08
13403.20,3.96
13537.23,4.41
13672.60,4.55
13809.33,4.39
13947.42,3.93
14086.90,3.43
14227.77,2.91
14370.04,2.43
14513.74,2.00
14658.88,1.66
14805.47,1.38
14953.52,1.18
15103.06,1.05
15254.09,0.96
15406.63,0.98
15560.70,1.01
15716.30,1.07
15873.47,1.02
16032.20,0.89
16192.52,0.57
16354.45,0.05
16517.99,-0.59
16683.17,-1.42
16850.01,-2.31
17018.51,-3.22
17188.69,-4.10
17360.58,-4.92
17534.18,-5.67
17709.53,-6.31
17886.62,-6.81
18065.49,-7.22
18246.14,-7.53
18428.60,-7.63
18612.89,-7.56
18799.02,-7.33
18987.01,-6.90
19176.88,-6.24
19368.65,-5.53
19562.33,-4.92
19757.96,-4.55
19955.54,-4.19
