frequency,raw
20.00,7.46
20.20,7.48
20.40,7.50
20.61,7.52
20.81,7.54
21.02,7.55
21.23,7.57
21.44,7.58
21.66,7.60
21.87,7.62
22.09,7.63
22.31,7.65
22.54,7.66
22.76,7.68
22.99,7.69
23.22,7.70
23.45,7.71
23.69,7.73
23.92,7.74
24.16,7.75
24.40,7.76
24.65,7.77
24.89,7.78
25.14,7.79
25.39,7.81
25.65,7.81
25.91,7.82
26.16,7.83
26.43,7.84
26.69,7.84
26.96,7.85
27.23,7.85
27.50,7.85
27.77,7.85
28.05,7.85
28.33,7.86
28.62,7.86
28.90,7.86
29.19,7.86
29.48,7.86
29.78,7.86
30.08,7.86
30.38,7.86
30.68,7.86
30.99,7.85
31.30,7.85
31.61,7.84
31.93,7.84
32.24,7.83
32.57,7.83
32.89,7.82
33.22,7.82
33.55,7.81
33.89,7.81
34.23,7.80
34.57,7.80
34.92,7.79
35.27,7.78
35.62,7.77
35.97,7.77
36.33,7.76
36.70,7.75
37.06,7.74
37.43,7.73
37.81,7.71
38.19,7.70
38.57,7.69
38.95,7.68
39.34,7.67
39.74,7.65
40.14,7.64
40.54,7.63
40.94,7.61
41.35,7.60
41.76,7.58
42.18,7.57
42.60,7.56
43.03,7.54
43.46,7.53
43.90,7.52
44.33,7.50
44.78,7.49
45.23,7.47
45.68,7.46
46.13,7.45
46.60,7.44
47.06,7.42
47.53,7.40
48.01,7.38
48.49,7.36
48.97,7.34
49.46,7.32
49.96,7.30
50.46,7.28
50.96,7.25
51.47,7.23
51.99,7.21
52.51,7.19
53.03,7.16
53.56,7.14
54.10,7.12
54.64,7.09
55.18,7.06
55.74,7.04
56.29,7.01
56.86,6.99
57.42,6.96
58.00,6.93
58.58,6.90
59.16,6.87
59.76,6.84
60.35,6.81
60.96,6.78
61.57,6.75
62.18,6.72
62.80,6.69
63.43,6.66
64.07,6.62
64.71,6.59
65.35,6.56
66.01,6.53
66.67,6.49
67.33,6.46
68.01,6.42
68.69,6.38
69.37,6.35
70.07,6.31
70.77,6.27
71.48,6.24
72.19,6.20
72.91,6.16
73.64,6.13
74.38,6.09
75.12,6.05
75.87,6.01
76.63,5.97
77.40,5.94
78.17,5.90
78.95,5.86
79.74,5.82
80.54,5.78
81.35,5.74
82.16,5.70
82.98,5.66
83.81,5.62
84.65,5.58
85.50,5.54
86.35,5.50
87.22,5.46
88.09,5.42
88.97,5.38
89.86,5.34
90.76,5.30
91.66,5.26
92.58,5.22
93.51,5.18
94.44,5.14
95.39,5.09
96.34,5.05
97.30,5.00
98.28,4.95
99.26,4.90
100.25,4.86
101.25,4.81
102.27,4.77
103.29,4.72
104.32,4.68
105.37,4.63
106.42,4.58
107.48,4.54
108.56,4.49
109.64,4.45
110.74,4.40
111.85,4.35
112.97,4.31
114.10,4.26
115.24,4.21
116.39,4.17
117.55,4.12
118.73,4.07
119.92,4.02
121.12,3.97
122.33,3.93
123.55,3.88
124.79,3.83
126.03,3.78
127.29,3.73
128.57,3.68
129.85,3.63
131.15,3.58
132.46,3.53
133.79,3.48
135.12,3.44
136.48,3.39
137.84,3.35
139.22,3.31
140.61,3.26
142.02,3.22
143.44,3.18
144.87,3.14
146.32,3.10
147.78,3.06
149.26,3.01
150.75,2.97
152.26,2.92
153.78,2.87
155.32,2.82
156.88,2.77
158.44,2.72
160.03,2.67
161.63,2.62
163.24,2.57
164.88,2.52
166.53,2.47
168.19,2.42
169.87,2.37
171.57,2.32
173.29,2.28
175.02,2.23
176.77,2.19
178.54,2.14
180.32,2.10
182.13,2.06
183.95,2.02
185.79,1.99
187.65,1.95
189.52,1.91
191.42,1.88
193.33,1.84
195.27,1.81
197.22,1.77
199.19,1.73
201.18,1.69
203.19,1.65
205.23,1.61
207.28,1.57
209.35,1.52
211.44,1.48
213.56,1.44
215.69,1.39
217.85,1.35
220.03,1.30
222.23,1.26
224.45,1.22
226.70,1.17
228.96,1.13
231.25,1.08
233.57,1.04
235.90,1.00
238.26,0.95
240.64,0.91
243.05,0.87
245.48,0.82
247.93,0.78
250.41,0.74
252.92,0.70
255.45,0.65
258.00,0.61
260.58,0.57
263.19,0.53
265.82,0.49
268.48,0.45
271.16,0.41
273.87,0.38
276.61,0.34
279.38,0.31
282.17,0.27
284.99,0.24
287.84,0.20
290.72,0.17
293.63,0.14
296.57,0.11
299.53,0.08
302.53,0.05
305.55,0.02
308.61,-0.01
311.69,-0.04
314.81,-0.07
317.96,-0.10
321.14,-0.12
324.35,-0.15
327.59,-0.18
330.87,-0.21
334.18,-0.23
337.52,-0.26
340.90,-0.29
344.30,-0.32
347.75,-0.35
351.23,-0.38
354.74,-0.41
358.28,-0.44
361.87,-0.47
365.49,-0.50
369.14,-0.53
372.83,-0.56
376.56,-0.59
380.33,-0.61
384.13,-0.64
387.97,-0.67
391.85,-0.70
395.77,-0.73
399.73,-0.76
403.72,-0.78
407.76,-0.81
411.84,-0.84
415.96,-0.86
420.12,-0.89
424.32,-0.91
428.56,-0.94
432.85,-0.96
437.18,-0.98
441.55,-1.00
445.96,-1.03
450.42,-1.05
454.93,-1.07
459.48,-1.09
464.07,-1.10
468.71,-1.12
473.40,-1.14
478.13,-1.15
482.91,-1.17
487.74,-1.17
492.62,-1.18
497.55,-1.19
502.52,-1.20
507.55,-1.22
512.62,-1.25
517.75,-1.27
522.93,-1.29
528.16,-1.30
533.44,-1.32
538.77,-1.33
544.16,-1.34
549.60,-1.35
555.10,-1.36
560.65,-1.37
566.25,-1.38
571.92,-1.38
577.64,-1.39
583.41,-1.40
589.25,-1.40
595.14,-1.41
601.09,-1.42
607.10,-1.42
613.17,-1.43
619.30,-1.43
625.50,-1.43
631.75,-1.43
638.07,-1.43
644.45,-1.44
650.89,-1.44
657.40,-1.43
663.98,-1.43
670.62,-1.43
677.32,-1.43
684.10,-1.42
690.94,-1.42
697.85,-1.41
704.83,-1.40
711.87,-1.39
718.99,-1.38
726.18,-1.37
733.44,-1.36
740.78,-1.34
748.19,-1.33
755.67,-1.31
763.23,-1.29
770.86,-1.27
778.57,-1.25
786.35,-1.23
794.22,-1.20
802.16,-1.18
810.18,-1.15
818.28,-1.12
826.46,-1.08
834.73,-1.05
843.08,-1.01
851.51,-0.97
860.02,-0.93
868.62,-0.89
877.31,-0.84
886.08,-0.79
894.94,-0.74
903.89,-0.68
912.93,-0.63
922.06,-0.57
931.28,-0.50
940.59,-0.44
950.00,-0.37
959.50,-0.30
969.09,-0.23
978.78,-0.16
988.57,-0.09
998.46,-0.01
1008.44,0.07
1018.53,0.15
1028.71,0.23
1039.00,0.32
1049.39,0.41
1059.88,0.50
1070.48,0.59
1081.19,0.68
1092.00,0.77
1102.92,0.86
1113.95,0.96
1125.09,1.05
1136.34,1.15
1147.70,1.24
1159.18,1.32
1170.77,1.41
1182.48,1.49
1194.30,1.57
1206.25,1.65
1218.31,1.73
1230.49,1.81
1242.80,1.88
1255.22,1.96
1267.78,2.04
1280.45,2.11
1293.26,2.19
1306.19,2.27
1319.25,2.35
1332.45,2.43
1345.77,2.51
1359.23,2.59
1372.82,2.67
1386.55,2.76
1400.41,2.84
1414.42,2.94
1428.56,3.03
1442.85,3.13
1457.28,3.23
1471.85,3.33
1486.57,3.43
1501.43,3.53
1516.45,3.63
1531.61,3.73
1546.93,3.83
1562.40,3.93
1578.02,4.03
1593.80,4.14
1609.74,4.24
1625.84,4.35
1642.10,4.46
1658.52,4.57
1675.10,4.68
1691.85,4.79
1708.77,4.91
1725.86,5.03
1743.12,5.15
1760.55,5.27
1778.15,5.39
1795.94,5.52
1813.90,5.65
1832.03,5.79
1850.36,5.92
1868.86,6.06
1887.55,6.20
1906.42,6.35
1925.49,6.49
1944.74,6.64
1964.19,6.79
1983.83,6.95
2003.67,7.10
2023.71,7.26
2043.94,7.43
2064.38,7.59
2085.03,7.76
2105.88,7.93
2126.94,8.10
2148.20,8.27
2169.69,8.44
2191.38,8.62
2213.30,8.79
2235.43,8.97
2257.78,9.14
2280.36,9.32
2303.17,9.49
2326.20,9.66
2349.46,9.83
2372.95,10.00
2396.68,10.17
2420.65,10.33
2444.86,10.49
2469.31,10.64
2494.00,10.78
2518.94,10.92
2544.13,11.05
2569.57,11.17
2595.27,11.29
2621.22,11.39
2647.43,11.48
2673.90,11.56
2700.64,11.63
2727.65,11.69
2754.93,11.74
2782.48,11.77
2810.30,11.80
2838.40,11.81
2866.79,11.81
2895.46,11.80
2924.41,11.77
2953.65,11.75
2983.19,11.70
3013.02,11.66
3043.15,11.60
3073.58,11.54
3104.32,11.47
3135.36,11.39
3166.72,11.31
3198.38,11.23
3230.37,11.15
3262.67,11.06
3295.30,10.97
3328.25,10.88
3361.53,10.78
3395.15,10.69
3429.10,10.60
3463.39,10.51
3498.03,10.42
3533.01,10.33
3568.34,10.24
3604.02,10.16
3640.06,10.08
3676.46,10.00
3713.22,9.94
3750.36,9.87
3787.86,9.82
3825.74,9.76
3864.00,9.72
3902.64,9.68
3941.66,9.64
3981.08,9.61
4020.89,9.59
4061.10,9.57
4101.71,9.56
4142.73,9.56
4184.15,9.56
4226.00,9.57
4268.26,9.59
4310.94,9.62
4354.05,9.67
4397.59,9.72
4441.56,9.78
4485.98,9.85
4530.84,9.93
4576.15,10.02
4621.91,10.12
4668.13,10.22
4714.81,10.34
4761.96,10.46
4809.58,10.59
4857.67,10.72
4906.25,10.84
4955.31,10.97
5004.87,11.09
5054.91,11.20
5105.46,11.31
5156.52,11.40
5208.08,11.47
5260.16,11.52
5312.77,11.55
5365.89,11.55
5419.55,11.54
5473.75,11.50
5528.49,11.45
5583.77,11.37
5639.61,11.28
5696.00,11.17
5752.96,11.04
5810.49,10.91
5868.60,10.76
5927.28,10.59
5986.56,10.42
6046.42,10.24
6106.89,10.05
6167.96,9.86
6229.64,9.67
6291.93,9.48
6354.85,9.30
6418.40,9.13
6482.58,8.97
6547.41,8.82
6612.88,8.68
6679.01,8.56
6745.80,8.46
6813.26,8.38
6881.39,8.33
6950.21,8.31
7019.71,8.32
7089.91,8.37
7160.81,8.46
7232.41,8.58
7304.74,8.73
7377.79,8.93
7451.56,9.15
7526.08,9.40
7601.34,9.66
7677.35,9.93
7754.13,10.19
7831.67,10.41
7909.98,10.59
7989.08,10.72
8068.98,10.75
8149.67,10.70
8231.16,10.56
8313.47,10.27
8396.61,9.92
8480.57,9.43
8565.38,8.84
8651.03,8.18
8737.54,7.46
8824.92,6.69
8913.17,5.91
9002.30,5.12
9092.32,4.35
9183.25,3.60
9275.08,2.87
9367.83,2.18
9461.51,1.54
9556.12,0.94
9651.68,0.37
9748.20,-0.17
9845.68,-0.65
9944.14,-1.10
10043.58,-1.52
10144.02,-1.90
10245.46,-2.23
10347.91,-2.54
10451.39,-2.81
10555.91,-3.03
10661.46,-3.22
10768.08,-3.38
10875.76,-3.48
10984.52,-3.55
11094.36,-3.58
11205.31,-3.56
11317.36,-3.48
11430.53,-3.36
11544.84,-3.17
11660.29,-2.93
11776.89,-2.64
11894.66,-2.21
12013.60,-1.76
12133.74,-1.21
12255.08,-0.52
12377.63,0.26
12501.41,1.15
12626.42,2.20
12752.68,3.32
12880.21,4.43
13009.01,5.52
13139.10,6.61
13270.49,7.31
13403.20,7.84
13537.23,7.83
13672.60,7.54
13809.33,6.97
13947.42,6.06
14086.90,5.06
14227.77,4.02
14370.04,3.04
14513.74,2.16
14658.88,1.52
14805.47,1.00
14953.52,0.69
15103.06,0.59
15254.09,0.61
15406.63,0.89
15560.70,1.25
15716.30,1.73
15873.47,2.23
16032.20,2.70
16192.52,3.04
16354.45,3.17
16517.99,3.14
16683.17,2.78
16850.01,2.23
17018.51,1.54
17188.69,0.71
17360.58,-0.13
17534.18,-0.96
17709.53,-1.69
17886.62,-2.30
18065.49,-2.84
18246.14,-3.30
18428.60,-3.75
18612.89,-4.27
18799.02,-4.89
18987.01,-5.66
19176.88,-6.66
19368.65,-7.81
19562.33,-9.04
19757.96,-10.28
19955.54,-11.14
