frequency,raw
20.00,5.12
20.20,5.16
20.40,5.21
20.61,5.25
20.81,5.29
21.02,5.33
21.23,5.38
21.44,5.42
21.66,5.46
21.87,5.51
22.09,5.55
22.31,5.60
22.54,5.64
22.76,5.68
22.99,5.72
23.22,5.76
23.45,5.80
23.69,5.84
23.92,5.88
24.16,5.92
24.40,5.96
24.65,6.00
24.89,6.04
25.14,6.08
25.39,6.11
25.65,6.15
25.91,6.18
26.16,6.22
26.43,6.25
26.69,6.29
26.96,6.32
27.23,6.35
27.50,6.38
27.77,6.41
28.05,6.44
28.33,6.47
28.62,6.49
28.90,6.52
29.19,6.55
29.48,6.57
29.78,6.60
30.08,6.63
30.38,6.65
30.68,6.68
30.99,6.69
31.30,6.71
31.61,6.73
31.93,6.75
32.24,6.76
32.57,6.78
32.89,6.80
33.22,6.82
33.55,6.85
33.89,6.87
34.23,6.89
34.57,6.90
34.92,6.92
35.27,6.94
35.62,6.95
35.97,6.97
36.33,6.99
36.70,7.00
37.06,7.01
37.43,7.02
37.81,7.03
38.19,7.05
38.57,7.06
38.95,7.08
39.34,7.09
39.74,7.10
40.14,7.11
40.54,7.12
40.94,7.13
41.35,7.14
41.76,7.15
42.18,7.16
42.60,7.17
43.03,7.18
43.46,7.18
43.90,7.19
44.33,7.20
44.78,7.22
45.23,7.23
45.68,7.24
46.13,7.24
46.60,7.23
47.06,7.24
47.53,7.24
48.01,7.23
48.49,7.21
48.97,7.19
49.46,7.19
49.96,7.22
50.46,7.26
50.96,7.28
51.47,7.28
51.99,7.27
52.51,7.27
53.03,7.27
53.56,7.26
54.10,7.26
54.64,7.25
55.18,7.25
55.74,7.25
56.29,7.24
56.86,7.23
57.42,7.23
58.00,7.23
58.58,7.22
59.16,7.21
59.76,7.20
60.35,7.19
60.96,7.18
61.57,7.17
62.18,7.16
62.80,7.14
63.43,7.13
64.07,7.12
64.71,7.11
65.35,7.10
66.01,7.08
66.67,7.06
67.33,7.05
68.01,7.04
68.69,7.02
69.37,7.01
70.07,6.99
70.77,6.97
71.48,6.96
72.19,6.94
72.91,6.92
73.64,6.90
74.38,6.88
75.12,6.86
75.87,6.84
76.63,6.82
77.40,6.80
78.17,6.78
78.95,6.76
79.74,6.74
80.54,6.72
81.35,6.69
82.16,6.67
82.98,6.65
83.81,6.62
84.65,6.60
85.50,6.58
86.35,6.55
87.22,6.53
88.09,6.50
88.97,6.48
89.86,6.46
90.76,6.43
91.66,6.40
92.58,6.37
93.51,6.35
94.44,6.32
95.39,6.29
96.34,6.26
97.30,6.25
98.28,6.22
99.26,6.18
100.25,6.15
101.25,6.11
102.27,6.08
103.29,6.05
104.32,6.02
105.37,5.99
106.42,5.95
107.48,5.92
108.56,5.89
109.64,5.86
110.74,5.83
111.85,5.79
112.97,5.76
114.10,5.73
115.24,5.70
116.39,5.66
117.55,5.63
118.73,5.59
119.92,5.56
121.12,5.52
122.33,5.49
123.55,5.45
124.79,5.42
126.03,5.38
127.29,5.34
128.57,5.30
129.85,5.26
131.15,5.23
132.46,5.19
133.79,5.15
135.12,5.11
136.48,5.07
137.84,5.03
139.22,4.99
140.61,4.95
142.02,4.91
143.44,4.87
144.87,4.83
146.32,4.79
147.78,4.75
149.26,4.71
150.75,4.67
152.26,4.63
153.78,4.59
155.32,4.54
156.88,4.50
158.44,4.46
160.03,4.42
161.63,4.37
163.24,4.33
164.88,4.29
166.53,4.24
168.19,4.20
169.87,4.15
171.57,4.10
173.29,4.06
175.02,4.01
176.77,3.96
178.54,3.92
180.32,3.87
182.13,3.83
183.95,3.78
185.79,3.74
187.65,3.69
189.52,3.64
191.42,3.60
193.33,3.55
195.27,3.51
197.22,3.46
199.19,3.41
201.18,3.36
203.19,3.32
205.23,3.27
207.28,3.22
209.35,3.18
211.44,3.13
213.56,3.08
215.69,3.04
217.85,2.99
220.03,2.94
222.23,2.90
224.45,2.86
226.70,2.81
228.96,2.76
231.25,2.72
233.57,2.68
235.90,2.63
238.26,2.58
240.64,2.54
243.05,2.49
245.48,2.44
247.93,2.39
250.41,2.35
252.92,2.30
255.45,2.25
258.00,2.21
260.58,2.16
263.19,2.11
265.82,2.07
268.48,2.02
271.16,1.98
273.87,1.93
276.61,1.89
279.38,1.84
282.17,1.80
284.99,1.76
287.84,1.71
290.72,1.67
293.63,1.63
296.57,1.58
299.53,1.54
302.53,1.50
305.55,1.45
308.61,1.41
311.69,1.37
314.81,1.33
317.96,1.29
321.14,1.25
324.35,1.21
327.59,1.17
330.87,1.13
334.18,1.09
337.52,1.04
340.90,1.00
344.30,0.96
347.75,0.91
351.23,0.86
354.74,0.81
358.28,0.77
361.87,0.73
365.49,0.68
369.14,0.64
372.83,0.59
376.56,0.55
380.33,0.51
384.13,0.46
387.97,0.42
391.85,0.37
395.77,0.32
399.73,0.27
403.72,0.22
407.76,0.17
411.84,0.13
415.96,0.11
420.12,0.10
424.32,0.10
428.56,0.12
432.85,0.14
437.18,0.16
441.55,0.16
445.96,0.16
450.42,0.15
454.93,0.13
459.48,0.10
464.07,0.07
468.71,0.03
473.40,-0.00
478.13,-0.03
482.91,-0.07
487.74,-0.10
492.62,-0.13
497.55,-0.16
502.52,-0.19
507.55,-0.22
512.62,-0.25
517.75,-0.28
522.93,-0.30
528.16,-0.33
533.44,-0.36
538.77,-0.39
544.16,-0.41
549.60,-0.44
555.10,-0.46
560.65,-0.48
566.25,-0.51
571.92,-0.53
577.64,-0.56
583.41,-0.58
589.25,-0.60
595.14,-0.62
601.09,-0.64
607.10,-0.66
613.17,-0.68
619.30,-0.69
625.50,-0.71
631.75,-0.73
638.07,-0.74
644.45,-0.76
650.89,-0.77
657.40,-0.79
663.98,-0.80
670.62,-0.81
677.32,-0.82
684.10,-0.83
690.94,-0.84
697.85,-0.85
704.83,-0.86
711.87,-0.86
718.99,-0.87
726.18,-0.87
733.44,-0.87
740.78,-0.87
748.19,-0.87
755.67,-0.87
763.23,-0.87
770.86,-0.87
778.57,-0.86
786.35,-0.85
794.22,-0.84
802.16,-0.83
810.18,-0.81
818.28,-0.80
826.46,-0.78
834.73,-0.76
843.08,-0.73
851.51,-0.71
860.02,-0.68
868.62,-0.66
877.31,-0.63
886.08,-0.60
894.94,-0.56
903.89,-0.52
912.93,-0.48
922.06,-0.44
931.28,-0.39
940.59,-0.34
950.00,-0.28
959.50,-0.23
969.09,-0.18
978.78,-0.12
988.57,-0.07
998.46,-0.01
1008.44,0.05
1018.53,0.12
1028.71,0.18
1039.00,0.25
1049.39,0.32
1059.88,0.39
1070.48,0.47
1081.19,0.54
1092.00,0.61
1102.92,0.69
1113.95,0.78
1125.09,0.86
1136.34,0.94
1147.70,1.02
1159.18,1.10
1170.77,1.18
1182.48,1.26
1194.30,1.34
1206.25,1.41
1218.31,1.49
1230.49,1.58
1242.80,1.66
1255.22,1.74
1267.78,1.83
1280.45,1.91
1293.26,1.98
1306.19,2.06
1319.25,2.13
1332.45,2.20
1345.77,2.26
1359.23,2.29
1372.82,2.34
1386.55,2.40
1400.41,2.45
1414.42,2.50
1428.56,2.54
1442.85,2.58
1457.28,2.62
1471.85,2.66
1486.57,2.71
1501.43,2.76
1516.45,2.81
1531.61,2.87
1546.93,2.93
1562.40,2.99
1578.02,3.05
1593.80,3.12
1609.74,3.18
1625.84,3.24
1642.10,3.30
1658.52,3.37
1675.10,3.43
1691.85,3.50
1708.77,3.57
1725.86,3.63
1743.12,3.70
1760.55,3.78
1778.15,3.85
1795.94,3.93
1813.90,4.01
1832.03,4.09
1850.36,4.17
1868.86,4.25
1887.55,4.34
1906.42,4.42
1925.49,4.51
1944.74,4.59
1964.19,4.68
1983.83,4.78
2003.67,4.86
2023.71,4.96
2043.94,5.05
2064.38,5.15
2085.03,5.24
2105.88,5.34
2126.94,5.44
2148.20,5.54
2169.69,5.64
2191.38,5.74
2213.30,5.83
2235.43,5.93
2257.78,6.04
2280.36,6.14
2303.17,6.24
2326.20,6.34
2349.46,6.44
2372.95,6.54
2396.68,6.64
2420.65,6.75
2444.86,6.84
2469.31,6.94
2494.00,7.04
2518.94,7.13
2544.13,7.22
2569.57,7.31
2595.27,7.40
2621.22,7.49
2647.43,7.57
2673.90,7.66
2700.64,7.73
2727.65,7.81
2754.93,7.88
2782.48,7.95
2810.30,8.01
2838.40,8.07
2866.79,8.13
2895.46,8.18
2924.41,8.23
2953.65,8.28
2983.19,8.32
3013.02,8.36
3043.15,8.39
3073.58,8.42
3104.32,8.45
3135.36,8.47
3166.72,8.49
3198.38,8.51
3230.37,8.52
3262.67,8.53
3295.30,8.54
3328.25,8.54
3361.53,8.54
3395.15,8.54
3429.10,8.54
3463.39,8.53
3498.03,8.52
3533.01,8.51
3568.34,8.50
3604.02,8.48
3640.06,8.47
3676.46,8.46
3713.22,8.44
3750.36,8.42
3787.86,8.41
3825.74,8.39
3864.00,8.37
3902.64,8.35
3941.66,8.33
3981.08,8.31
4020.89,8.29
4061.10,8.27
4101.71,8.25
4142.73,8.24
4184.15,8.23
4226.00,8.21
4268.26,8.20
4310.94,8.20
4354.05,8.19
4397.59,8.19
4441.56,8.18
4485.98,8.19
4530.84,8.18
4576.15,8.19
4621.91,8.19
4668.13,8.21
4714.81,8.22
4761.96,8.24
4809.58,8.26
4857.67,8.28
4906.25,8.29
4955.31,8.30
5004.87,8.31
5054.91,8.31
5105.46,8.31
5156.52,8.29
5208.08,8.27
5260.16,8.23
5312.77,8.18
5365.89,8.12
5419.55,8.07
5473.75,8.04
5528.49,8.03
5583.77,8.06
5639.61,8.11
5696.00,8.17
5752.96,8.20
5810.49,8.22
5868.60,8.18
5927.28,8.11
5986.56,8.00
6046.42,7.86
6106.89,7.69
6167.96,7.50
6229.64,7.31
6291.93,7.11
6354.85,6.91
6418.40,6.72
6482.58,6.54
6547.41,6.36
6612.88,6.19
6679.01,6.03
6745.80,5.87
6813.26,5.72
6881.39,5.58
6950.21,5.47
7019.71,5.37
7089.91,5.27
7160.81,5.19
7232.41,5.12
7304.74,5.05
7377.79,5.00
7451.56,4.97
7526.08,4.96
7601.34,4.96
7677.35,5.04
7754.13,5.13
7831.67,5.19
7909.98,5.26
7989.08,5.32
8068.98,5.33
8149.67,5.27
8231.16,5.10
8313.47,4.70
8396.61,4.19
8480.57,3.43
8565.38,2.55
8651.03,1.62
8737.54,0.66
8824.92,-0.18
8913.17,-0.84
9002.30,-1.42
9092.32,-1.67
9183.25,-1.71
9275.08,-1.58
9367.83,-1.26
9461.51,-0.77
9556.12,-0.19
9651.68,0.45
9748.20,1.13
9845.68,1.80
9944.14,2.42
10043.58,2.95
10144.02,3.39
10245.46,3.59
10347.91,3.65
10451.39,3.55
10555.91,3.23
10661.46,2.83
10768.08,2.34
10875.76,1.82
10984.52,1.28
11094.36,0.76
11205.31,0.25
11317.36,-0.20
11430.53,-0.63
11544.84,-0.99
11660.29,-1.32
11776.89,-1.61
11894.66,-1.82
12013.60,-2.01
12133.74,-2.15
12255.08,-2.22
12377.63,-2.26
12501.41,-2.26
12626.42,-2.16
12752.68,-2.02
12880.21,-1.77
13009.01,-1.47
13139.10,-1.16
13270.49,-0.69
13403.20,-0.18
13537.23,0.48
13672.60,1.26
13809.33,2.16
13947.42,3.31
14086.90,4.71
14227.77,6.26
14370.04,7.96
14513.74,9.69
14658.88,10.37
14805.47,10.18
14953.52,8.56
15103.06,6.75
15254.09,4.87
15406.63,3.40
15560.70,2.09
15716.30,1.01
15873.47,0.15
16032.20,-0.60
16192.52,-1.17
16354.45,-1.63
16517.99,-2.00
16683.17,-2.21
16850.01,-2.32
17018.51,-2.32
17188.69,-2.16
17360.58,-1.87
17534.18,-1.47
17709.53,-0.91
17886.62,-0.24
18065.49,0.37
18246.14,0.84
18428.60,0.44
18612.89,-0.65
18799.02,-2.28
18987.01,-4.25
19176.88,-6.19
19368.65,-8.07
19562.33,-9.82
19757.96,-11.34
19955.54,-12.85
