frequency,raw
20.00,6.22
20.20,6.27
20.40,6.32
20.61,6.38
20.81,6.42
21.02,6.47
21.23,6.52
21.44,6.57
21.66,6.62
21.87,6.67
22.09,6.72
22.31,6.77
22.54,6.82
22.76,6.86
22.99,6.91
23.22,6.96
23.45,7.00
23.69,7.05
23.92,7.10
24.16,7.15
24.40,7.19
24.65,7.24
24.89,7.29
25.14,7.33
25.39,7.38
25.65,7.42
25.91,7.47
26.16,7.51
26.43,7.56
26.69,7.60
26.96,7.64
27.23,7.68
27.50,7.72
27.77,7.76
28.05,7.79
28.33,7.83
28.62,7.86
28.90,7.90
29.19,7.93
29.48,7.96
29.78,8.00
30.08,8.03
30.38,8.06
30.68,8.10
30.99,8.13
31.30,8.16
31.61,8.19
31.93,8.22
32.24,8.25
32.57,8.28
32.89,8.31
33.22,8.34
33.55,8.37
33.89,8.40
34.23,8.43
34.57,8.46
34.92,8.49
35.27,8.51
35.62,8.54
35.97,8.56
36.33,8.59
36.70,8.62
37.06,8.64
37.43,8.67
37.81,8.69
38.19,8.71
38.57,8.73
38.95,8.75
39.34,8.77
39.74,8.79
40.14,8.82
40.54,8.84
40.94,8.86
41.35,8.88
41.76,8.90
42.18,8.92
42.60,8.94
43.03,8.96
43.46,8.98
43.90,9.00
44.33,9.02
44.78,9.04
45.23,9.05
45.68,9.07
46.13,9.09
46.60,9.10
47.06,9.12
47.53,9.13
48.01,9.14
48.49,9.14
48.97,9.15
49.46,9.16
49.96,9.19
50.46,9.21
50.96,9.23
51.47,9.24
51.99,9.24
52.51,9.24
53.03,9.25
53.56,9.26
54.10,9.26
54.64,9.27
55.18,9.27
55.74,9.28
56.29,9.29
56.86,9.29
57.42,9.29
58.00,9.29
58.58,9.29
59.16,9.29
59.76,9.30
60.35,9.29
60.96,9.29
61.57,9.29
62.18,9.28
62.80,9.28
63.43,9.27
64.07,9.27
64.71,9.27
65.35,9.26
66.01,9.26
66.67,9.25
67.33,9.24
68.01,9.24
68.69,9.23
69.37,9.22
70.07,9.21
70.77,9.20
71.48,9.19
72.19,9.18
72.91,9.17
73.64,9.16
74.38,9.15
75.12,9.14
75.87,9.13
76.63,9.11
77.40,9.10
78.17,9.09
78.95,9.07
79.74,9.06
80.54,9.04
81.35,9.02
82.16,9.01
82.98,8.99
83.81,8.97
84.65,8.96
85.50,8.94
86.35,8.92
87.22,8.90
88.09,8.89
88.97,8.87
89.86,8.85
90.76,8.83
91.66,8.81
92.58,8.79
93.51,8.77
94.44,8.75
95.39,8.72
96.34,8.70
97.30,8.68
98.28,8.65
99.26,8.63
100.25,8.61
101.25,8.58
102.27,8.55
103.29,8.53
104.32,8.50
105.37,8.47
106.42,8.44
107.48,8.41
108.56,8.39
109.64,8.36
110.74,8.33
111.85,8.31
112.97,8.28
114.10,8.25
115.24,8.22
116.39,8.19
117.55,8.16
118.73,8.13
119.92,8.10
121.12,8.07
122.33,8.03
123.55,8.00
124.79,7.97
126.03,7.93
127.29,7.90
128.57,7.87
129.85,7.83
131.15,7.80
132.46,7.76
133.79,7.72
135.12,7.69
136.48,7.65
137.84,7.61
139.22,7.58
140.61,7.54
142.02,7.50
143.44,7.46
144.87,7.42
146.32,7.39
147.78,7.37
149.26,7.40
150.75,7.36
152.26,7.24
153.78,7.18
155.32,7.14
156.88,7.09
158.44,7.05
160.03,7.01
161.63,6.97
163.24,6.92
164.88,6.88
166.53,6.83
168.19,6.79
169.87,6.75
171.57,6.70
173.29,6.65
175.02,6.60
176.77,6.56
178.54,6.51
180.32,6.46
182.13,6.41
183.95,6.36
185.79,6.32
187.65,6.27
189.52,6.22
191.42,6.17
193.33,6.12
195.27,6.07
197.22,6.02
199.19,5.97
201.18,5.92
203.19,5.87
205.23,5.82
207.28,5.77
209.35,5.71
211.44,5.66
213.56,5.61
215.69,5.56
217.85,5.51
220.03,5.46
222.23,5.41
224.45,5.36
226.70,5.31
228.96,5.25
231.25,5.20
233.57,5.15
235.90,5.10
238.26,5.05
240.64,4.99
243.05,4.94
245.48,4.88
247.93,4.83
250.41,4.77
252.92,4.72
255.45,4.67
258.00,4.61
260.58,4.56
263.19,4.50
265.82,4.45
268.48,4.39
271.16,4.33
273.87,4.28
276.61,4.23
279.38,4.17
282.17,4.12
284.99,4.07
287.84,4.01
290.72,3.96
293.63,3.90
296.57,3.85
299.53,3.79
302.53,3.74
305.55,3.69
308.61,3.63
311.69,3.58
314.81,3.53
317.96,3.47
321.14,3.42
324.35,3.36
327.59,3.31
330.87,3.25
334.18,3.20
337.52,3.14
340.90,3.08
344.30,3.03
347.75,2.97
351.23,2.91
354.74,2.85
358.28,2.79
361.87,2.73
365.49,2.66
369.14,2.60
372.83,2.54
376.56,2.48
380.33,2.42
384.13,2.35
387.97,2.29
391.85,2.23
395.77,2.17
399.73,2.11
403.72,2.06
407.76,2.02
411.84,1.98
415.96,1.95
420.12,1.93
424.32,1.90
428.56,1.86
432.85,1.83
437.18,1.79
441.55,1.75
445.96,1.71
450.42,1.65
454.93,1.68
459.48,1.65
464.07,1.62
468.71,1.58
473.40,1.53
478.13,1.48
482.91,1.43
487.74,1.38
492.62,1.33
497.55,1.27
502.52,1.22
507.55,1.17
512.62,1.12
517.75,1.07
522.93,1.02
528.16,0.97
533.44,0.92
538.77,0.87
544.16,0.82
549.60,0.78
555.10,0.73
560.65,0.68
566.25,0.64
571.92,0.59
577.64,0.55
583.41,0.50
589.25,0.46
595.14,0.42
601.09,0.38
607.10,0.34
613.17,0.29
619.30,0.25
625.50,0.22
631.75,0.18
638.07,0.14
644.45,0.12
650.89,0.10
657.40,0.04
663.98,-0.01
670.62,-0.04
677.32,-0.07
684.10,-0.10
690.94,-0.13
697.85,-0.16
704.83,-0.19
711.87,-0.22
718.99,-0.25
726.18,-0.28
733.44,-0.30
740.78,-0.32
748.19,-0.37
755.67,-0.38
763.23,-0.38
770.86,-0.39
778.57,-0.41
786.35,-0.42
794.22,-0.43
802.16,-0.44
810.18,-0.45
818.28,-0.45
826.46,-0.45
834.73,-0.45
843.08,-0.46
851.51,-0.47
860.02,-0.44
868.62,-0.43
877.31,-0.42
886.08,-0.40
894.94,-0.38
903.89,-0.36
912.93,-0.34
922.06,-0.31
931.28,-0.28
940.59,-0.25
950.00,-0.23
959.50,-0.18
969.09,-0.13
978.78,-0.09
988.57,-0.05
998.46,-0.01
1008.44,0.04
1018.53,0.09
1028.71,0.14
1039.00,0.19
1049.39,0.25
1059.88,0.31
1070.48,0.36
1081.19,0.42
1092.00,0.48
1102.92,0.55
1113.95,0.62
1125.09,0.69
1136.34,0.76
1147.70,0.84
1159.18,0.90
1170.77,0.96
1182.48,1.02
1194.30,1.09
1206.25,1.15
1218.31,1.22
1230.49,1.29
1242.80,1.36
1255.22,1.42
1267.78,1.50
1280.45,1.56
1293.26,1.63
1306.19,1.69
1319.25,1.76
1332.45,1.82
1345.77,1.86
1359.23,1.88
1372.82,1.94
1386.55,1.99
1400.41,2.05
1414.42,2.10
1428.56,2.15
1442.85,2.22
1457.28,2.28
1471.85,2.32
1486.57,2.38
1501.43,2.43
1516.45,2.49
1531.61,2.54
1546.93,2.59
1562.40,2.65
1578.02,2.71
1593.80,2.76
1609.74,2.82
1625.84,2.88
1642.10,2.93
1658.52,3.00
1675.10,3.07
1691.85,3.13
1708.77,3.20
1725.86,3.27
1743.12,3.33
1760.55,3.40
1778.15,3.47
1795.94,3.55
1813.90,3.63
1832.03,3.71
1850.36,3.80
1868.86,3.88
1887.55,3.97
1906.42,4.06
1925.49,4.16
1944.74,4.25
1964.19,4.36
1983.83,4.48
2003.67,4.60
2023.71,4.71
2043.94,4.83
2064.38,4.95
2085.03,5.08
2105.88,5.21
2126.94,5.34
2148.20,5.47
2169.69,5.61
2191.38,5.75
2213.30,5.90
2235.43,6.05
2257.78,6.20
2280.36,6.36
2303.17,6.53
2326.20,6.70
2349.46,6.88
2372.95,7.06
2396.68,7.25
2420.65,7.44
2444.86,7.64
2469.31,7.84
2494.00,8.04
2518.94,8.26
2544.13,8.47
2569.57,8.70
2595.27,8.92
2621.22,9.15
2647.43,9.38
2673.90,9.61
2700.64,9.85
2727.65,10.08
2754.93,10.32
2782.48,10.55
2810.30,10.78
2838.40,11.01
2866.79,11.23
2895.46,11.44
2924.41,11.64
2953.65,11.83
2983.19,12.00
3013.02,12.16
3043.15,12.30
3073.58,12.41
3104.32,12.51
3135.36,12.58
3166.72,12.62
3198.38,12.65
3230.37,12.64
3262.67,12.61
3295.30,12.56
3328.25,12.49
3361.53,12.40
3395.15,12.28
3429.10,12.15
3463.39,12.01
3498.03,11.87
3533.01,11.70
3568.34,11.53
3604.02,11.36
3640.06,11.17
3676.46,10.99
3713.22,10.81
3750.36,10.62
3787.86,10.44
3825.74,10.26
3864.00,10.08
3902.64,9.90
3941.66,9.72
3981.08,9.54
4020.89,9.36
4061.10,9.19
4101.71,9.03
4142.73,8.87
4184.15,8.73
4226.00,8.60
4268.26,8.47
4310.94,8.36
4354.05,8.26
4397.59,8.17
4441.56,8.09
4485.98,8.01
4530.84,7.93
4576.15,7.85
4621.91,7.79
4668.13,7.73
4714.81,7.67
4761.96,7.62
4809.58,7.58
4857.67,7.55
4906.25,7.52
4955.31,7.49
5004.87,7.48
5054.91,7.47
5105.46,7.47
5156.52,7.47
5208.08,7.48
5260.16,7.50
5312.77,7.53
5365.89,7.56
5419.55,7.61
5473.75,7.66
5528.49,7.71
5583.77,7.79
5639.61,7.87
5696.00,7.95
5752.96,8.04
5810.49,8.13
5868.60,8.21
5927.28,8.29
5986.56,8.37
6046.42,8.42
6106.89,8.46
6167.96,8.48
6229.64,8.47
6291.93,8.44
6354.85,8.38
6418.40,8.31
6482.58,8.22
6547.41,8.11
6612.88,7.99
6679.01,7.86
6745.80,7.72
6813.26,7.59
6881.39,7.46
6950.21,7.35
7019.71,7.25
7089.91,7.16
7160.81,7.08
7232.41,7.01
7304.74,6.96
7377.79,6.91
7451.56,6.87
7526.08,6.84
7601.34,6.82
7677.35,6.85
7754.13,6.88
7831.67,6.88
7909.98,6.87
7989.08,6.88
8068.98,6.86
8149.67,6.84
8231.16,6.82
8313.47,6.79
8396.61,6.73
8480.57,6.66
8565.38,6.54
8651.03,6.40
8737.54,6.22
8824.92,5.99
8913.17,5.71
9002.30,5.42
9092.32,5.05
9183.25,4.65
9275.08,4.22
9367.83,3.75
9461.51,3.25
9556.12,2.72
9651.68,2.18
9748.20,1.64
9845.68,1.08
9944.14,0.53
10043.58,-0.02
10144.02,-0.56
10245.46,-1.10
10347.91,-1.62
10451.39,-2.13
10555.91,-2.62
10661.46,-3.10
10768.08,-3.56
10875.76,-4.00
10984.52,-4.42
11094.36,-4.83
11205.31,-5.23
11317.36,-5.57
11430.53,-5.90
11544.84,-6.20
11660.29,-6.48
11776.89,-6.74
11894.66,-6.96
12013.60,-7.18
12133.74,-7.38
12255.08,-7.54
12377.63,-7.70
12501.41,-7.82
12626.42,-7.91
12752.68,-7.96
12880.21,-7.96
13009.01,-7.93
13139.10,-7.90
13270.49,-7.79
13403.20,-7.67
13537.23,-7.48
13672.60,-7.22
13809.33,-6.90
13947.42,-6.48
14086.90,-5.96
14227.77,-5.37
14370.04,-4.69
14513.74,-3.89
14658.88,-2.91
14805.47,-1.81
14953.52,-0.52
15103.06,0.92
15254.09,2.43
15406.63,3.62
15560.70,4.31
15716.30,4.25
15873.47,3.40
16032.20,2.28
16192.52,0.93
16354.45,-0.32
16517.99,-1.47
16683.17,-2.38
16850.01,-3.13
17018.51,-3.74
17188.69,-4.16
17360.58,-4.48
17534.18,-4.71
17709.53,-4.80
17886.62,-4.75
18065.49,-4.58
18246.14,-4.28
18428.60,-3.75
18612.89,-3.05
18799.02,-2.20
18987.01,-1.24
19176.88,-0.60
19368.65,-0.70
19562.33,-1.52
19757.96,-2.93
19955.54,-4.34
