frequency,raw,error,smoothed,error_smoothed,equalization,parametric_eq,equalized_raw,equalized_smoothed,target
20,-16.10,-15.10,-15.99,-14.98,6.00,3.05,-10.10,-9.99,-1.00
21,-15.41,-14.41,-15.43,-14.42,6.00,3.50,-9.41,-9.43,-1.00
22,-14.86,-13.86,-14.89,-13.88,6.00,3.99,-8.86,-8.89,-1.00
23,-14.33,-13.32,-14.35,-13.35,6.00,4.52,-8.33,-8.35,-1.00
24,-13.79,-12.78,-13.83,-12.83,6.00,5.08,-7.79,-7.83,-1.01
25,-13.18,-12.17,-13.32,-12.32,6.00,5.66,-7.18,-7.32,-1.01
26,-12.90,-11.88,-12.83,-11.82,6.00,6.24,-6.90,-6.83,-1.01
27,-12.42,-11.40,-12.34,-11.33,6.00,6.79,-6.42,-6.34,-1.02
28,-11.92,-10.90,-11.87,-10.86,6.00,7.29,-5.92,-5.87,-1.02
29,-11.44,-10.41,-11.41,-10.40,6.00,7.68,-5.44,-5.41,-1.02
30,-10.88,-9.85,-10.97,-9.94,6.00,7.93,-4.88,-4.97,-1.03
31,-10.55,-9.51,-10.55,-9.51,6.00,8.02,-4.55,-4.55,-1.03
32,-10.14,-9.10,-10.13,-9.08,6.00,7.95,-4.14,-4.13,-1.04
33,-9.75,-8.70,-9.73,-8.67,6.00,7.73,-3.75,-3.73,-1.05
34,-9.37,-8.31,-9.33,-8.27,6.00,7.41,-3.37,-3.33,-1.05
35,-8.93,-7.87,-8.94,-7.87,6.00,7.01,-2.93,-2.94,-1.06
36,-8.53,-7.46,-8.56,-7.49,6.00,6.57,-2.53,-2.56,-1.07
37,-8.19,-7.11,-8.18,-7.11,6.00,6.11,-2.19,-2.18,-1.08
38,-7.85,-6.76,-7.83,-6.75,6.00,5.66,-1.85,-1.83,-1.09
39,-7.53,-6.43,-7.49,-6.39,5.93,5.21,-1.59,-1.56,-1.10
40,-7.20,-6.09,-7.17,-6.05,5.79,4.79,-1.41,-1.38,-1.11
41,-6.81,-5.69,-6.84,-5.71,5.57,4.38,-1.23,-1.26,-1.12
42,-6.50,-5.36,-6.53,-5.39,5.32,4.00,-1.17,-1.20,-1.13
43,-6.20,-5.05,-6.22,-5.07,5.05,3.64,-1.14,-1.17,-1.14
44,-5.90,-4.74,-5.93,-4.76,4.76,3.30,-1.13,-1.17,-1.16
45,-5.61,-4.43,-5.65,-4.46,4.46,2.98,-1.15,-1.19,-1.17
46,-5.34,-4.15,-5.36,-4.17,4.17,2.68,-1.17,-1.20,-1.19
47,-5.18,-3.97,-5.09,-3.88,3.88,2.40,-1.30,-1.21,-1.20
48,-4.87,-3.64,-4.82,-3.59,3.59,2.13,-1.28,-1.23,-1.22
49,-4.63,-3.39,-4.56,-3.31,3.31,1.87,-1.32,-1.25,-1.24
50,-4.28,-3.02,-4.30,-3.03,3.03,1.63,-1.25,-1.27,-1.26
51,-4.04,-2.76,-4.05,-2.75,2.75,1.41,-1.28,-1.30,-1.28
52,-3.78,-2.48,-3.79,-2.48,2.48,1.19,-1.30,-1.31,-1.30
53,-3.52,-2.20,-3.54,-2.21,2.21,0.98,-1.31,-1.33,-1.32
54,-3.30,-1.95,-3.29,-1.93,1.93,0.79,-1.36,-1.35,-1.34
55,-3.05,-1.68,-3.04,-1.66,1.66,0.60,-1.38,-1.37,-1.37
56,-2.83,-1.44,-2.79,-1.40,1.40,0.43,-1.43,-1.39,-1.39
57,-2.56,-1.14,-2.55,-1.14,1.14,0.26,-1.42,-1.41,-1.42
58,-2.37,-0.92,-2.33,-0.89,0.89,0.10,-1.48,-1.44,-1.44
59,-2.07,-0.60,-2.11,-0.64,0.64,-0.05,-1.43,-1.47,-1.47
60,-1.87,-0.37,-1.90,-0.40,0.40,-0.19,-1.47,-1.51,-1.50
61,-1.65,-0.12,-1.70,-0.16,0.16,-0.32,-1.49,-1.54,-1.53
62,-1.49,0.07,-1.50,0.07,-0.07,-0.45,-1.55,-1.57,-1.56
63,-1.33,0.26,-1.30,0.29,-0.29,-0.57,-1.61,-1.59,-1.59
64,-1.14,0.48,-1.12,0.50,-0.50,-0.68,-1.64,-1.62,-1.62
65,-0.93,0.72,-0.94,0.71,-0.71,-0.79,-1.64,-1.65,-1.65
66,-0.79,0.90,-0.77,0.91,-0.91,-0.89,-1.70,-1.69,-1.68
67,-0.64,1.08,-0.61,1.11,-1.11,-0.99,-1.75,-1.72,-1.72
68,-0.50,1.26,-0.46,1.30,-1.30,-1.09,-1.80,-1.76,-1.75
69,-0.33,1.46,-0.31,1.49,-1.49,-1.18,-1.81,-1.80,-1.79
70,-0.10,1.73,-0.16,1.67,-1.67,-1.27,-1.77,-1.83,-1.82
71,0.02,1.88,-0.01,1.85,-1.85,-1.36,-1.82,-1.86,-1.86
72,0.12,2.02,0.12,2.02,-2.02,-1.44,-1.90,-1.90,-1.90
73,0.21,2.15,0.26,2.19,-2.19,-1.53,-1.98,-1.93,-1.93
74,0.37,2.35,0.38,2.36,-2.36,-1.61,-1.98,-1.97,-1.97
75,0.47,2.49,0.50,2.52,-2.52,-1.70,-2.04,-2.01,-2.01
76,0.63,2.69,0.62,2.67,-2.67,-1.79,-2.04,-2.05,-2.05
77,0.76,2.85,0.73,2.82,-2.82,-1.87,-2.06,-2.10,-2.09
78,0.88,3.01,0.84,2.97,-2.97,-1.96,-2.09,-2.14,-2.13
79,0.96,3.14,0.94,3.12,-3.12,-2.05,-2.15,-2.18,-2.17
80,0.97,3.19,1.04,3.26,-3.26,-2.14,-2.29,-2.22,-2.21
81,1.06,3.32,1.14,3.40,-3.40,-2.23,-2.34,-2.26,-2.25
82,1.26,3.56,1.23,3.53,-3.53,-2.33,-2.27,-2.30,-2.29
83,1.28,3.62,1.33,3.67,-3.67,-2.42,-2.38,-2.34,-2.34
84,1.39,3.77,1.41,3.79,-3.79,-2.52,-2.40,-2.38,-2.38
85,1.48,3.90,1.49,3.91,-3.91,-2.62,-2.43,-2.43,-2.42
86,1.60,4.06,1.56,4.03,-4.03,-2.72,-2.43,-2.47,-2.46
87,1.69,4.20,1.64,4.14,-4.14,-2.82,-2.45,-2.51,-2.50
88,1.69,4.24,1.70,4.25,-4.25,-2.93,-2.55,-2.55,-2.54
89,1.75,4.34,1.76,4.35,-4.35,-3.04,-2.60,-2.59,-2.58
90,1.81,4.44,1.81,4.44,-4.44,-3.15,-2.63,-2.63,-2.63
91,1.89,4.56,1.86,4.53,-4.53,-3.26,-2.64,-2.67,-2.67
92,1.90,4.61,1.90,4.62,-4.62,-3.37,-2.72,-2.72,-2.71
93,1.90,4.65,1.95,4.70,-4.70,-3.48,-2.80,-2.75,-2.75
94,2.00,4.79,1.98,4.78,-4.78,-3.60,-2.78,-2.80,-2.79
95,2.00,4.83,2.02,4.85,-4.85,-3.72,-2.85,-2.84,-2.83
96,1.99,4.86,2.04,4.92,-4.92,-3.83,-2.93,-2.88,-2.87
97,1.99,4.90,2.07,4.99,-4.99,-3.95,-2.99,-2.92,-2.91
98,2.07,5.02,2.09,5.05,-5.05,-4.07,-2.97,-2.96,-2.95
99,2.17,5.16,2.10,5.10,-5.10,-4.19,-2.93,-3.00,-2.99
100,2.16,5.19,2.11,5.15,-5.15,-4.31,-2.99,-3.04,-3.03
101,2.14,5.21,2.11,5.19,-5.19,-4.43,-3.05,-3.08,-3.07
102,2.12,5.23,2.11,5.23,-5.23,-4.55,-3.10,-3.12,-3.10
104,2.10,5.28,2.10,5.26,-5.26,-4.79,-3.15,-3.16,-3.18
105,2.07,5.29,2.08,5.28,-5.28,-4.91,-3.21,-3.20,-3.21
106,2.05,5.30,2.06,5.30,-5.30,-5.02,-3.25,-3.24,-3.25
107,2.02,5.31,2.03,5.32,-5.32,-5.14,-3.29,-3.28,-3.29
108,2.00,5.33,2.00,5.33,-5.33,-5.25,-3.32,-3.33,-3.32
109,1.98,5.34,1.96,5.34,-5.34,-5.35,-3.35,-3.37,-3.36
110,1.96,5.35,1.93,5.35,-5.35,-5.46,-3.38,-3.42,-3.39
111,1.86,5.29,1.91,5.35,-5.35,-5.56,-3.49,-3.44,-3.42
112,1.83,5.29,1.89,5.36,-5.36,-5.65,-3.53,-3.47,-3.46
113,1.82,5.31,1.87,5.37,-5.37,-5.75,-3.55,-3.50,-3.49
114,1.82,5.34,1.85,5.39,-5.39,-5.83,-3.56,-3.54,-3.52
115,1.81,5.36,1.83,5.40,-5.40,-5.91,-3.58,-3.57,-3.54
117,1.81,5.41,1.80,5.41,-5.41,-6.06,-3.59,-3.60,-3.60
118,1.82,5.45,1.79,5.42,-5.42,-6.12,-3.59,-3.63,-3.62
119,1.82,5.47,1.77,5.43,-5.43,-6.18,-3.61,-3.66,-3.64
120,1.83,5.50,1.76,5.44,-5.44,-6.23,-3.61,-3.68,-3.67
121,1.78,5.47,1.75,5.45,-5.45,-6.27,-3.66,-3.70,-3.68
123,1.64,5.37,1.73,5.45,-5.45,-6.33,-3.81,-3.72,-3.73
124,1.65,5.40,1.71,5.46,-5.46,-6.36,-3.81,-3.75,-3.75
125,1.66,5.42,1.69,5.46,-5.46,-6.37,-3.80,-3.77,-3.76
126,1.67,5.45,1.67,5.46,-5.46,-6.38,-3.79,-3.79,-3.78
128,1.67,5.49,1.65,5.46,-5.46,-6.38,-3.79,-3.81,-3.81
129,1.66,5.49,1.63,5.46,-5.46,-6.37,-3.79,-3.83,-3.83
130,1.59,5.44,1.60,5.45,-5.45,-6.35,-3.86,-3.86,-3.84
131,1.59,5.45,1.57,5.45,-5.45,-6.33,-3.86,-3.88,-3.86
133,1.53,5.43,1.55,5.44,-5.44,-6.28,-3.91,-3.89,-3.89
134,1.50,5.41,1.53,5.44,-5.44,-6.24,-3.93,-3.91,-3.91
135,1.50,5.43,1.50,5.43,-5.43,-6.21,-3.92,-3.92,-3.92
137,1.50,5.46,1.46,5.42,-5.42,-6.12,-3.91,-3.95,-3.96
138,1.44,5.41,1.43,5.40,-5.40,-6.07,-3.96,-3.98,-3.97
140,1.36,5.37,1.39,5.39,-5.39,-5.97,-4.02,-4.00,-4.00
141,1.31,5.33,1.35,5.37,-5.37,-5.91,-4.05,-4.02,-4.02
142,1.31,5.35,1.31,5.35,-5.35,-5.86,-4.04,-4.04,-4.03
144,1.31,5.38,1.27,5.33,-5.33,-5.74,-4.02,-4.07,-4.06
145,1.27,5.35,1.22,5.31,-5.31,-5.69,-4.04,-4.09,-4.08
147,1.10,5.21,1.18,5.29,-5.29,-5.57,-4.19,-4.11,-4.11
148,1.10,5.22,1.15,5.27,-5.27,-5.51,-4.17,-4.13,-4.12
150,1.10,5.25,1.10,5.25,-5.25,-5.39,-4.15,-4.15,-4.15
151,1.10,5.26,1.07,5.23,-5.23,-5.33,-4.13,-4.17,-4.16
153,1.00,5.19,1.03,5.21,-5.21,-5.22,-4.21,-4.18,-4.18
154,0.99,5.19,0.99,5.19,-5.19,-5.16,-4.20,-4.20,-4.19
156,0.90,5.12,0.96,5.17,-5.17,-5.05,-4.27,-4.21,-4.22
157,0.90,5.13,0.91,5.15,-5.15,-5.00,-4.24,-4.24,-4.23
159,0.90,5.15,0.87,5.12,-5.12,-4.90,-4.21,-4.25,-4.25
160,0.88,5.14,0.82,5.09,-5.09,-4.85,-4.20,-4.27,-4.26
162,0.80,5.08,0.78,5.05,-5.05,-4.75,-4.25,-4.28,-4.28
164,0.70,5.00,0.72,5.02,-5.02,-4.66,-4.31,-4.30,-4.30
165,0.67,4.99,0.65,4.98,-4.98,-4.62,-4.30,-4.32,-4.31
167,0.59,4.93,0.60,4.94,-4.94,-4.53,-4.34,-4.34,-4.33
169,0.53,4.89,0.54,4.89,-4.89,-4.46,-4.36,-4.35,-4.35
170,0.48,4.85,0.47,4.85,-4.85,-4.42,-4.36,-4.37,-4.37
172,0.37,4.76,0.41,4.80,-4.80,-4.35,-4.43,-4.39,-4.39
174,0.33,4.74,0.34,4.75,-4.75,-4.29,-4.42,-4.41,-4.40
175,0.27,4.69,0.28,4.71,-4.71,-4.26,-4.43,-4.42,-4.41
177,0.21,4.64,0.23,4.66,-4.66,-4.20,-4.45,-4.43,-4.43
179,0.15,4.59,0.18,4.62,-4.62,-4.15,-4.46,-4.44,-4.44
181,0.15,4.60,0.13,4.57,-4.57,-4.10,-4.42,-4.44,-4.44
183,0.09,4.54,0.09,4.53,-4.53,-4.06,-4.44,-4.44,-4.45
184,0.00,4.45,0.05,4.49,-4.49,-4.04,-4.48,-4.44,-4.44
186,-0.02,4.42,0.00,4.44,-4.44,-4.01,-4.46,-4.44,-4.44
188,-0.01,4.43,-0.04,4.40,-4.40,-3.97,-4.41,-4.44,-4.44
190,-0.06,4.37,-0.07,4.35,-4.35,-3.94,-4.41,-4.43,-4.43
192,-0.10,4.33,-0.11,4.31,-4.31,-3.92,-4.40,-4.42,-4.42
194,-0.16,4.26,-0.15,4.26,-4.26,-3.90,-4.41,-4.41,-4.42
196,-0.22,4.19,-0.20,4.21,-4.21,-3.88,-4.42,-4.41,-4.41
198,-0.24,4.17,-0.26,4.16,-4.16,-3.86,-4.39,-4.41,-4.40
200,-0.29,4.12,-0.31,4.11,-4.11,-3.85,-4.39,-4.41,-4.40
202,-0.34,4.06,-0.36,4.05,-4.05,-3.84,-4.39,-4.41,-4.40
204,-0.42,3.98,-0.41,4.00,-4.00,-3.83,-4.42,-4.41,-4.40
206,-0.46,3.95,-0.47,3.95,-3.95,-3.82,-4.41,-4.42,-4.40
208,-0.52,3.89,-0.52,3.91,-3.91,-3.81,-4.42,-4.43,-4.41
210,-0.60,3.82,-0.57,3.86,-3.86,-3.81,-4.46,-4.43,-4.41
212,-0.65,3.78,-0.62,3.81,-3.81,-3.80,-4.46,-4.43,-4.42
214,-0.75,3.68,-0.67,3.77,-3.77,-3.79,-4.52,-4.44,-4.43
216,-0.75,3.69,-0.72,3.73,-3.73,-3.79,-4.47,-4.45,-4.44
218,-0.72,3.73,-0.77,3.68,-3.68,-3.79,-4.40,-4.46,-4.45
221,-0.80,3.66,-0.82,3.64,-3.64,-3.78,-4.44,-4.46,-4.46
223,-0.84,3.63,-0.87,3.59,-3.59,-3.77,-4.43,-4.46,-4.46
225,-0.95,3.52,-0.92,3.55,-3.55,-3.76,-4.49,-4.46,-4.47
227,-0.94,3.53,-0.97,3.50,-3.50,-3.75,-4.44,-4.47,-4.47
229,-0.93,3.54,-1.02,3.45,-3.45,-3.74,-4.38,-4.47,-4.46
232,-1.13,3.33,-1.07,3.40,-3.40,-3.73,-4.52,-4.46,-4.46
234,-1.14,3.32,-1.11,3.34,-3.34,-3.71,-4.48,-4.45,-4.45
236,-1.16,3.29,-1.15,3.29,-3.29,-3.69,-4.45,-4.44,-4.44
239,-1.21,3.23,-1.20,3.24,-3.24,-3.67,-4.44,-4.44,-4.43
241,-1.27,3.15,-1.25,3.18,-3.18,-3.64,-4.45,-4.44,-4.42
244,-1.35,3.06,-1.29,3.13,-3.13,-3.61,-4.48,-4.42,-4.40
246,-1.38,3.01,-1.31,3.08,-3.08,-3.58,-4.45,-4.39,-4.39
248,-1.34,3.04,-1.35,3.03,-3.03,-3.55,-4.36,-4.37,-4.37
251,-1.34,3.02,-1.39,2.98,-2.98,-3.49,-4.32,-4.37,-4.36
253,-1.39,2.96,-1.43,2.93,-2.93,-3.46,-4.32,-4.36,-4.34
256,-1.45,2.89,-1.46,2.88,-2.88,-3.40,-4.33,-4.34,-4.33
259,-1.53,2.80,-1.50,2.83,-2.83,-3.33,-4.35,-4.33,-4.33
261,-1.62,2.71,-1.56,2.77,-2.77,-3.29,-4.39,-4.33,-4.32
264,-1.57,2.75,-1.62,2.72,-2.72,-3.21,-4.28,-4.33,-4.32
266,-1.51,2.81,-1.67,2.66,-2.66,-3.16,-4.16,-4.33,-4.32
269,-1.74,2.58,-1.73,2.60,-2.60,-3.08,-4.33,-4.33,-4.32
272,-1.90,2.42,-1.79,2.53,-2.53,-3.00,-4.43,-4.32,-4.32
274,-1.96,2.36,-1.85,2.46,-2.46,-2.94,-4.42,-4.32,-4.32
277,-1.86,2.46,-1.92,2.39,-2.39,-2.86,-4.25,-4.31,-4.32
280,-1.95,2.37,-2.00,2.31,-2.31,-2.77,-4.26,-4.31,-4.32
283,-2.16,2.16,-2.08,2.23,-2.23,-2.68,-4.38,-4.30,-4.31
286,-2.27,2.04,-2.16,2.14,-2.14,-2.58,-4.41,-4.30,-4.31
288,-2.21,2.10,-2.24,2.06,-2.06,-2.52,-4.26,-4.30,-4.30
291,-2.13,2.17,-2.34,1.98,-1.98,-2.42,-4.10,-4.32,-4.29
294,-2.34,1.95,-2.43,1.90,-1.90,-2.33,-4.23,-4.33,-4.28
297,-2.42,1.86,-2.49,1.82,-1.82,-2.23,-4.24,-4.31,-4.27
300,-2.58,1.68,-2.55,1.76,-1.76,-2.14,-4.33,-4.30,-4.26
303,-2.77,1.48,-2.60,1.71,-1.71,-2.04,-4.47,-4.31,-4.25
306,-2.74,1.50,-2.63,1.67,-1.67,-1.95,-4.40,-4.30,-4.24
309,-2.65,1.58,-2.64,1.64,-1.64,-1.85,-4.29,-4.28,-4.23
312,-2.78,1.45,-2.64,1.63,-1.63,-1.76,-4.41,-4.27,-4.22
316,-2.83,1.39,-2.64,1.62,-1.62,-1.63,-4.45,-4.26,-4.22
319,-2.77,1.44,-2.64,1.62,-1.62,-1.54,-4.39,-4.26,-4.21
322,-2.52,1.69,-2.63,1.63,-1.63,-1.45,-4.15,-4.26,-4.21
325,-2.48,1.73,-2.60,1.63,-1.63,-1.36,-4.11,-4.23,-4.21
328,-2.48,1.73,-2.60,1.63,-1.63,-1.27,-4.11,-4.23,-4.20
332,-2.48,1.73,-2.60,1.62,-1.62,-1.15,-4.10,-4.22,-4.20
335,-2.46,1.75,-2.60,1.61,-1.61,-1.06,-4.06,-4.21,-4.20
338,-2.58,1.63,-2.63,1.57,-1.57,-0.97,-4.15,-4.21,-4.20
342,-2.71,1.50,-2.68,1.53,-1.53,-0.86,-4.24,-4.21,-4.20
345,-2.77,1.44,-2.72,1.48,-1.48,-0.77,-4.24,-4.20,-4.20
349,-2.79,1.41,-2.79,1.41,-1.41,-0.66,-4.20,-4.20,-4.20
352,-2.89,1.31,-2.87,1.34,-1.34,-0.58,-4.23,-4.21,-4.20
356,-3.09,1.11,-2.96,1.26,-1.26,-0.47,-4.34,-4.22,-4.19
359,-3.15,1.04,-3.04,1.17,-1.17,-0.39,-4.32,-4.21,-4.19
363,-3.07,1.11,-3.11,1.09,-1.09,-0.29,-4.16,-4.20,-4.18
366,-3.09,1.09,-3.18,1.01,-1.01,-0.21,-4.10,-4.19,-4.17
370,-3.32,0.85,-3.25,0.93,-0.93,-0.11,-4.25,-4.18,-4.16
374,-3.34,0.82,-3.30,0.86,-0.86,-0.00,-4.20,-4.16,-4.15
377,-3.36,0.79,-3.36,0.79,-0.79,0.07,-4.14,-4.14,-4.15
381,-3.43,0.71,-3.43,0.72,-0.72,0.17,-4.14,-4.14,-4.14
385,-3.47,0.67,-3.50,0.65,-0.65,0.27,-4.11,-4.15,-4.13
389,-3.53,0.60,-3.56,0.58,-0.58,0.36,-4.10,-4.14,-4.13
393,-3.57,0.56,-3.62,0.50,-0.50,0.46,-4.07,-4.12,-4.12
397,-3.64,0.49,-3.69,0.43,-0.43,0.55,-4.07,-4.12,-4.12
401,-3.84,0.29,-3.78,0.36,-0.36,0.64,-4.20,-4.14,-4.12
405,-3.87,0.26,-3.86,0.29,-0.29,0.73,-4.16,-4.15,-4.12
409,-3.85,0.28,-3.91,0.22,-0.22,0.81,-4.07,-4.13,-4.12
413,-4.03,0.10,-3.97,0.15,-0.15,0.90,-4.18,-4.12,-4.12
417,-4.16,-0.04,-4.03,0.08,-0.08,0.98,-4.24,-4.11,-4.12
421,-4.12,-0.01,-4.10,0.02,-0.02,1.06,-4.14,-4.12,-4.11
425,-4.04,0.06,-4.16,-0.04,0.04,1.13,-3.99,-4.12,-4.10
430,-4.22,-0.13,-4.19,-0.10,0.10,1.23,-4.11,-4.09,-4.08
434,-4.31,-0.25,-4.22,-0.16,0.16,1.30,-4.15,-4.06,-4.06
438,-4.33,-0.30,-4.25,-0.21,0.21,1.36,-4.11,-4.04,-4.03
443,-4.13,-0.14,-4.24,-0.26,0.26,1.44,-3.87,-3.98,-3.99
447,-4.10,-0.15,-4.24,-0.31,0.31,1.50,-3.79,-3.93,-3.94
451,-4.35,-0.45,-4.25,-0.36,0.36,1.56,-3.99,-3.89,-3.89
456,-4.39,-0.55,-4.24,-0.41,0.41,1.63,-3.98,-3.84,-3.84
460,-4.42,-0.64,-4.24,-0.46,0.46,1.67,-3.96,-3.78,-3.78
465,-4.14,-0.42,-4.24,-0.51,0.51,1.73,-3.63,-3.73,-3.72
470,-4.05,-0.39,-4.23,-0.57,0.57,1.78,-3.48,-3.67,-3.66
474,-4.33,-0.72,-4.23,-0.62,0.62,1.81,-3.70,-3.60,-3.60
479,-4.24,-0.69,-4.24,-0.69,0.69,1.85,-3.55,-3.55,-3.55
484,-4.00,-0.50,-4.26,-0.75,0.75,1.88,-3.25,-3.51,-3.50
489,-4.39,-0.94,-4.28,-0.81,0.81,1.90,-3.57,-3.47,-3.45
494,-4.45,-1.04,-4.30,-0.88,0.88,1.92,-3.56,-3.42,-3.41
499,-4.27,-0.89,-4.34,-0.95,0.95,1.93,-3.32,-3.39,-3.37
504,-4.34,-0.99,-4.39,-1.01,1.01,1.93,-3.32,-3.38,-3.35
509,-4.37,-1.04,-4.43,-1.08,1.08,1.93,-3.29,-3.35,-3.33
514,-4.56,-1.24,-4.49,-1.15,1.15,1.92,-3.40,-3.34,-3.32
519,-4.68,-1.36,-4.55,-1.22,1.22,1.91,-3.45,-3.33,-3.32
524,-4.66,-1.33,-4.64,-1.29,1.29,1.89,-3.36,-3.34,-3.32
529,-4.64,-1.30,-4.73,-1.36,1.36,1.87,-3.27,-3.37,-3.34
535,-4.74,-1.38,-4.82,-1.43,1.43,1.83,-3.30,-3.39,-3.36
540,-4.97,-1.58,-4.90,-1.50,1.50,1.80,-3.46,-3.39,-3.38
545,-5.11,-1.69,-4.99,-1.58,1.58,1.76,-3.53,-3.41,-3.42
551,-4.83,-1.38,-5.10,-1.65,1.65,1.71,-3.18,-3.45,-3.45
556,-4.95,-1.46,-5.22,-1.72,1.72,1.67,-3.23,-3.51,-3.48
562,-5.57,-2.05,-5.31,-1.80,1.80,1.61,-3.77,-3.52,-3.51
568,-5.63,-2.08,-5.39,-1.87,1.87,1.55,-3.76,-3.52,-3.54
573,-5.62,-2.05,-5.49,-1.94,1.94,1.50,-3.67,-3.55,-3.57
579,-5.42,-1.83,-5.60,-2.01,2.01,1.44,-3.40,-3.59,-3.59
585,-5.62,-2.02,-5.69,-2.08,2.08,1.37,-3.54,-3.61,-3.60
591,-5.79,-2.19,-5.76,-2.15,2.15,1.30,-3.63,-3.61,-3.60
596,-5.77,-2.17,-5.82,-2.22,2.22,1.25,-3.55,-3.60,-3.60
602,-6.08,-2.49,-5.88,-2.27,2.27,1.17,-3.81,-3.60,-3.59
608,-5.97,-2.39,-5.92,-2.32,2.32,1.10,-3.65,-3.61,-3.57
615,-5.60,-2.05,-5.93,-2.36,2.36,1.02,-3.23,-3.57,-3.55
621,-6.05,-2.53,-5.90,-2.41,2.41,0.95,-3.64,-3.49,-3.52
627,-6.12,-2.63,-5.90,-2.44,2.44,0.88,-3.67,-3.46,-3.49
633,-5.93,-2.48,-5.92,-2.48,2.48,0.80,-3.45,-3.45,-3.44
639,-5.90,-2.50,-5.94,-2.50,2.50,0.73,-3.39,-3.44,-3.40
646,-5.86,-2.50,-5.90,-2.53,2.53,0.65,-3.33,-3.38,-3.35
652,-5.82,-2.51,-5.85,-2.55,2.55,0.58,-3.27,-3.31,-3.30
659,-5.77,-2.51,-5.80,-2.56,2.56,0.49,-3.21,-3.24,-3.25
665,-5.72,-2.52,-5.75,-2.56,2.56,0.42,-3.15,-3.19,-3.20
672,-5.67,-2.52,-5.72,-2.57,2.57,0.34,-3.10,-3.16,-3.15
679,-5.65,-2.55,-5.70,-2.57,2.57,0.26,-3.08,-3.13,-3.10
686,-5.82,-2.76,-5.62,-2.56,2.56,0.18,-3.26,-3.07,-3.05
692,-5.78,-2.76,-5.57,-2.54,2.54,0.11,-3.24,-3.03,-3.02
699,-5.41,-2.42,-5.52,-2.51,2.51,0.03,-2.90,-3.01,-2.99
706,-5.13,-2.16,-5.47,-2.47,2.47,-0.05,-2.65,-3.00,-2.96
713,-5.33,-2.38,-5.41,-2.43,2.43,-0.12,-2.90,-2.98,-2.95
721,-5.44,-2.50,-5.34,-2.37,2.37,-0.21,-3.06,-2.96,-2.94
728,-5.43,-2.49,-5.25,-2.30,2.30,-0.29,-3.12,-2.95,-2.94
735,-5.22,-2.28,-5.16,-2.21,2.21,-0.36,-3.00,-2.94,-2.94
742,-5.07,-2.13,-5.05,-2.12,2.12,-0.43,-2.95,-2.94,-2.94
750,-4.85,-1.91,-4.93,-2.01,2.01,-0.52,-2.84,-2.93,-2.94
757,-4.76,-1.82,-4.81,-1.88,1.88,-0.59,-2.87,-2.93,-2.94
765,-4.80,-1.86,-4.68,-1.75,1.75,-0.67,-3.05,-2.94,-2.93
773,-4.61,-1.68,-4.55,-1.60,1.60,-0.75,-3.01,-2.95,-2.93
780,-4.31,-1.39,-4.38,-1.43,1.43,-0.82,-2.87,-2.95,-2.92
788,-4.11,-1.20,-4.17,-1.25,1.25,-0.90,-2.85,-2.92,-2.91
796,-3.99,-1.10,-3.96,-1.07,1.07,-0.98,-2.92,-2.89,-2.89
804,-3.83,-0.95,-3.74,-0.87,0.87,-1.05,-2.96,-2.88,-2.87
812,-3.61,-0.75,-3.53,-0.66,0.66,-1.13,-2.95,-2.87,-2.86
820,-3.33,-0.49,-3.30,-0.44,0.44,-1.20,-2.89,-2.86,-2.84
828,-3.11,-0.28,-3.07,-0.22,0.22,-1.27,-2.89,-2.85,-2.82
837,-2.78,0.03,-2.82,0.01,-0.01,-1.35,-2.78,-2.83,-2.81
845,-2.54,0.26,-2.57,0.24,-0.24,-1.42,-2.77,-2.81,-2.80
853,-2.33,0.46,-2.33,0.46,-0.46,-1.49,-2.79,-2.79,-2.78
862,-2.02,0.76,-2.10,0.69,-0.69,-1.56,-2.70,-2.78,-2.77
871,-1.81,0.96,-1.87,0.90,-0.90,-1.63,-2.71,-2.77,-2.77
879,-1.67,1.10,-1.65,1.11,-1.11,-1.69,-2.78,-2.76,-2.76
888,-1.43,1.33,-1.44,1.32,-1.32,-1.76,-2.74,-2.75,-2.76
897,-1.27,1.49,-1.24,1.51,-1.51,-1.82,-2.78,-2.75,-2.75
906,-1.11,1.64,-1.05,1.70,-1.70,-1.88,-2.80,-2.74,-2.75
915,-0.84,1.91,-0.87,1.87,-1.87,-1.93,-2.70,-2.74,-2.74
924,-0.71,2.03,-0.71,2.03,-2.03,-1.99,-2.73,-2.74,-2.73
933,-0.53,2.20,-0.56,2.17,-2.17,-2.04,-2.69,-2.73,-2.73
943,-0.50,2.22,-0.43,2.29,-2.29,-2.09,-2.78,-2.71,-2.72
952,-0.37,2.34,-0.32,2.39,-2.39,-2.13,-2.76,-2.71,-2.71
962,-0.18,2.52,-0.21,2.47,-2.47,-2.17,-2.65,-2.68,-2.70
971,-0.08,2.61,-0.13,2.53,-2.53,-2.20,-2.61,-2.66,-2.69
981,0.03,2.71,-0.07,2.58,-2.58,-2.24,-2.54,-2.64,-2.67
991,0.05,2.71,-0.02,2.60,-2.60,-2.27,-2.55,-2.62,-2.66
1001,-0.01,2.63,-0.01,2.61,-2.61,-2.29,-2.61,-2.62,-2.64
1011,0.01,2.63,-0.02,2.60,-2.60,-2.31,-2.59,-2.62,-2.62
1021,0.04,2.64,-0.04,2.58,-2.58,-2.33,-2.54,-2.62,-2.60
1031,-0.04,2.54,-0.04,2.56,-2.56,-2.34,-2.59,-2.60,-2.57
1041,-0.04,2.51,-0.05,2.53,-2.53,-2.35,-2.57,-2.58,-2.54
1052,-0.02,2.50,-0.05,2.51,-2.51,-2.36,-2.52,-2.56,-2.52
1062,-0.21,2.28,-0.04,2.49,-2.49,-2.36,-2.69,-2.53,-2.49
1073,-0.11,2.36,-0.02,2.48,-2.48,-2.36,-2.59,-2.51,-2.46
1084,-0.11,2.33,0.00,2.49,-2.49,-2.36,-2.59,-2.48,-2.43
1094,-0.17,2.24,0.06,2.51,-2.51,-2.35,-2.68,-2.45,-2.40
1105,0.08,2.45,0.13,2.55,-2.55,-2.34,-2.46,-2.42,-2.37
1116,0.29,2.63,0.22,2.60,-2.60,-2.33,-2.31,-2.38,-2.34
1128,0.51,2.82,0.33,2.67,-2.67,-2.32,-2.15,-2.34,-2.30
1139,0.44,2.71,0.45,2.74,-2.74,-2.31,-2.30,-2.29,-2.27
1150,0.68,2.91,0.58,2.82,-2.82,-2.29,-2.14,-2.24,-2.23
1162,0.69,2.89,0.71,2.91,-2.91,-2.28,-2.22,-2.20,-2.19
1173,0.68,2.84,0.86,3.00,-3.00,-2.26,-2.32,-2.14,-2.16
1185,0.96,3.09,0.99,3.09,-3.09,-2.25,-2.13,-2.10,-2.12
1197,1.15,3.24,1.11,3.18,-3.18,-2.23,-2.03,-2.07,-2.09
1209,1.26,3.31,1.23,3.26,-3.26,-2.21,-2.00,-2.04,-2.05
1221,1.38,3.40,1.32,3.33,-3.33,-2.20,-1.95,-2.01,-2.01
1233,1.44,3.42,1.41,3.40,-3.40,-2.18,-1.95,-1.98,-1.98
1246,1.52,3.47,1.50,3.45,-3.45,-2.16,-1.92,-1.95,-1.95
1258,1.52,3.45,1.58,3.49,-3.49,-2.15,-1.96,-1.91,-1.92
1271,1.62,3.53,1.63,3.52,-3.52,-2.14,-1.90,-1.89,-1.91
1283,1.75,3.65,1.67,3.55,-3.55,-2.12,-1.79,-1.88,-1.89
1296,1.72,3.61,1.69,3.57,-3.57,-2.11,-1.84,-1.88,-1.89
1309,1.66,3.55,1.67,3.58,-3.58,-2.10,-1.92,-1.91,-1.89
1322,1.78,3.68,1.66,3.60,-3.60,-2.10,-1.82,-1.94,-1.90
1335,1.76,3.67,1.66,3.62,-3.62,-2.09,-1.86,-1.96,-1.91
1349,1.70,3.63,1.66,3.65,-3.65,-2.08,-1.94,-1.98,-1.92
1362,1.64,3.59,1.67,3.68,-3.68,-2.08,-2.03,-2.00,-1.94
1376,1.56,3.53,1.70,3.72,-3.72,-2.08,-2.16,-2.02,-1.96
1390,1.59,3.58,1.74,3.78,-3.78,-2.08,-2.18,-2.04,-1.98
1404,1.67,3.68,1.78,3.85,-3.85,-2.08,-2.18,-2.07,-2.00
1418,1.70,3.72,1.86,3.93,-3.93,-2.09,-2.23,-2.08,-2.02
1432,1.83,3.87,1.95,4.03,-4.03,-2.09,-2.20,-2.08,-2.03
1446,2.10,4.15,2.06,4.14,-4.14,-2.10,-2.03,-2.08,-2.04
1461,2.31,4.36,2.17,4.25,-4.25,-2.11,-1.94,-2.08,-2.04
1475,2.29,4.34,2.30,4.37,-4.37,-2.12,-2.08,-2.07,-2.04
1490,2.47,4.51,2.43,4.49,-4.49,-2.13,-2.01,-2.05,-2.04
1505,2.64,4.68,2.57,4.60,-4.60,-2.15,-1.96,-2.03,-2.03
1520,2.67,4.70,2.70,4.71,-4.71,-2.16,-2.03,-2.01,-2.02
1535,2.86,4.88,2.82,4.81,-4.81,-2.18,-1.94,-1.99,-2.01
1550,3.00,5.00,2.92,4.89,-4.89,-2.20,-1.89,-1.97,-2.00
1566,2.99,4.97,3.01,4.97,-4.97,-2.22,-1.97,-1.96,-1.98
1582,3.06,5.02,3.08,5.03,-5.03,-2.24,-1.96,-1.95,-1.96
1597,3.12,5.06,3.14,5.07,-5.07,-2.26,-1.95,-1.93,-1.93
