frequency,raw
20.00,0.30
20.20,0.39
20.40,0.47
20.61,0.56
20.81,0.64
21.02,0.73
21.23,0.82
21.44,0.91
21.66,1.00
21.87,1.09
22.09,1.18
22.31,1.27
22.54,1.36
22.76,1.45
22.99,1.54
23.22,1.62
23.45,1.71
23.69,1.80
23.92,1.89
24.16,1.98
24.40,2.07
24.65,2.16
24.89,2.25
25.14,2.34
25.39,2.43
25.65,2.52
25.91,2.61
26.16,2.70
26.43,2.79
26.69,2.88
26.96,2.97
27.23,3.05
27.50,3.14
27.77,3.23
28.05,3.32
28.33,3.40
28.62,3.49
28.90,3.58
29.19,3.67
29.48,3.75
29.78,3.84
30.08,3.92
30.38,4.01
30.68,4.10
30.99,4.19
31.30,4.27
31.61,4.36
31.93,4.44
32.24,4.52
32.57,4.59
32.89,4.67
33.22,4.74
33.55,4.82
33.89,4.90
34.23,4.98
34.57,5.06
34.92,5.13
35.27,5.21
35.62,5.28
35.97,5.35
36.33,5.42
36.70,5.49
37.06,5.56
37.43,5.63
37.81,5.70
38.19,5.76
38.57,5.82
38.95,5.88
39.34,5.94
39.74,6.00
40.14,6.06
40.54,6.11
40.94,6.16
41.35,6.21
41.76,6.26
42.18,6.31
42.60,6.35
43.03,6.39
43.46,6.42
43.90,6.45
44.33,6.47
44.78,6.49
45.23,6.51
45.68,6.52
46.13,6.53
46.60,6.53
47.06,6.53
47.53,6.52
48.01,6.52
48.49,6.51
48.97,6.50
49.46,6.48
49.96,6.46
50.46,6.44
50.96,6.42
51.47,6.40
51.99,6.38
52.51,6.35
53.03,6.33
53.56,6.31
54.10,6.29
54.64,6.28
55.18,6.28
55.74,6.27
56.29,6.26
56.86,6.25
57.42,6.24
58.00,6.23
58.58,6.22
59.16,6.22
59.76,6.21
60.35,6.21
60.96,6.20
61.57,6.19
62.18,6.17
62.80,6.16
63.43,6.13
64.07,6.11
64.71,6.06
65.35,6.02
66.01,5.99
66.67,5.94
67.33,5.88
68.01,5.83
68.69,5.77
69.37,5.71
70.07,5.64
70.77,5.57
71.48,5.48
72.19,5.40
72.91,5.32
73.64,5.24
74.38,5.16
75.12,5.09
75.87,5.02
76.63,4.95
77.40,4.88
78.17,4.81
78.95,4.74
79.74,4.70
80.54,4.65
81.35,4.61
82.16,4.58
82.98,4.57
83.81,4.56
84.65,4.58
85.50,4.61
86.35,4.66
87.22,4.71
88.09,4.77
88.97,4.85
89.86,4.94
90.76,5.03
91.66,5.14
92.58,5.25
93.51,5.37
94.44,5.49
95.39,5.63
96.34,5.78
97.30,5.93
98.28,6.07
99.26,6.22
100.25,6.38
101.25,6.53
102.27,6.66
103.29,6.74
104.32,6.85
105.37,6.99
106.42,7.14
107.48,7.28
108.56,7.41
109.64,7.54
110.74,7.66
111.85,7.77
112.97,7.88
114.10,7.97
115.24,8.05
116.39,8.10
117.55,8.16
118.73,8.25
119.92,8.32
121.12,8.38
122.33,8.40
123.55,8.43
124.79,8.47
126.03,8.51
127.29,8.52
128.57,8.53
129.85,8.53
131.15,8.51
132.46,8.50
133.79,8.47
135.12,8.44
136.48,8.42
137.84,8.38
139.22,8.35
140.61,8.31
142.02,8.24
143.44,8.20
144.87,8.14
146.32,8.09
147.78,8.02
149.26,7.96
150.75,7.88
152.26,7.82
153.78,7.73
155.32,7.64
156.88,7.51
158.44,7.42
160.03,7.27
161.63,7.18
163.24,7.10
164.88,6.96
166.53,6.85
168.19,6.75
169.87,6.61
171.57,6.51
173.29,6.42
175.02,6.28
176.77,6.18
178.54,6.08
180.32,5.98
182.13,5.87
183.95,5.70
185.79,5.58
187.65,5.46
189.52,5.33
191.42,5.21
193.33,5.07
195.27,4.92
197.22,4.78
199.19,4.64
201.18,4.49
203.19,4.34
205.23,4.19
207.28,4.04
209.35,3.90
211.44,3.76
213.56,3.61
215.69,3.46
217.85,3.32
220.03,3.22
222.23,3.09
224.45,2.94
226.70,2.80
228.96,2.66
231.25,2.58
233.57,2.46
235.90,2.33
238.26,2.24
240.64,2.13
243.05,2.04
245.48,1.94
247.93,1.81
250.41,1.74
252.92,1.62
255.45,1.55
258.00,1.46
260.58,1.37
263.19,1.28
265.82,1.18
268.48,1.10
271.16,1.02
273.87,0.91
276.61,0.82
279.38,0.75
282.17,0.67
284.99,0.59
287.84,0.48
290.72,0.39
293.63,0.31
296.57,0.23
299.53,0.14
302.53,0.05
305.55,-0.02
308.61,-0.11
311.69,-0.19
314.81,-0.26
317.96,-0.33
321.14,-0.41
324.35,-0.48
327.59,-0.55
330.87,-0.62
334.18,-0.70
337.52,-0.78
340.90,-0.83
344.30,-0.90
347.75,-0.94
351.23,-1.00
354.74,-1.05
358.28,-1.11
361.87,-1.16
365.49,-1.23
369.14,-1.28
372.83,-1.32
376.56,-1.37
380.33,-1.42
384.13,-1.46
387.97,-1.49
391.85,-1.51
395.77,-1.53
399.73,-1.55
403.72,-1.57
407.76,-1.58
411.84,-1.58
415.96,-1.58
420.12,-1.57
424.32,-1.56
428.56,-1.56
432.85,-1.55
437.18,-1.54
441.55,-1.54
445.96,-1.54
450.42,-1.56
454.93,-1.58
459.48,-1.60
464.07,-1.62
468.71,-1.65
473.40,-1.69
478.13,-1.72
482.91,-1.75
487.74,-1.79
492.62,-1.82
497.55,-1.84
502.52,-1.87
507.55,-1.89
512.62,-1.90
517.75,-1.91
522.93,-1.90
528.16,-1.89
533.44,-1.89
538.77,-1.88
544.16,-1.88
549.60,-1.88
555.10,-1.88
560.65,-1.88
566.25,-1.88
571.92,-1.89
577.64,-1.90
583.41,-1.91
589.25,-1.91
595.14,-1.90
601.09,-1.89
607.10,-1.86
613.17,-1.85
619.30,-1.82
625.50,-1.79
631.75,-1.75
638.07,-1.71
644.45,-1.69
650.89,-1.65
657.40,-1.62
663.98,-1.59
670.62,-1.57
677.32,-1.55
684.10,-1.54
690.94,-1.54
697.85,-1.56
704.83,-1.58
711.87,-1.58
718.99,-1.57
726.18,-1.56
733.44,-1.54
740.78,-1.51
748.19,-1.49
755.67,-1.47
763.23,-1.44
770.86,-1.40
778.57,-1.35
786.35,-1.31
794.22,-1.26
802.16,-1.21
810.18,-1.16
818.28,-1.10
826.46,-1.04
834.73,-0.99
843.08,-0.95
851.51,-0.91
860.02,-0.86
868.62,-0.80
877.31,-0.73
886.08,-0.67
894.94,-0.63
903.89,-0.59
912.93,-0.54
922.06,-0.48
931.28,-0.43
940.59,-0.38
950.00,-0.32
959.50,-0.27
969.09,-0.21
978.78,-0.15
988.57,-0.09
998.46,-0.01
1008.44,0.07
1018.53,0.15
1028.71,0.22
1039.00,0.29
1049.39,0.35
1059.88,0.43
1070.48,0.50
1081.19,0.56
1092.00,0.63
1102.92,0.69
1113.95,0.76
1125.09,0.81
1136.34,0.85
1147.70,0.89
1159.18,0.94
1170.77,0.99
1182.48,1.01
1194.30,1.02
1206.25,1.03
1218.31,1.03
1230.49,1.01
1242.80,0.99
1255.22,0.97
1267.78,0.94
1280.45,0.89
1293.26,0.85
1306.19,0.80
1319.25,0.76
1332.45,0.71
1345.77,0.67
1359.23,0.62
1372.82,0.56
1386.55,0.52
1400.41,0.48
1414.42,0.44
1428.56,0.38
1442.85,0.32
1457.28,0.26
1471.85,0.19
1486.57,0.13
1501.43,0.06
1516.45,0.01
1531.61,-0.05
1546.93,-0.11
1562.40,-0.18
1578.02,-0.25
1593.80,-0.33
1609.74,-0.40
1625.84,-0.48
1642.10,-0.55
1658.52,-0.64
1675.10,-0.72
1691.85,-0.80
1708.77,-0.89
1725.86,-0.98
1743.12,-1.08
1760.55,-1.18
1778.15,-1.28
1795.94,-1.37
1813.90,-1.48
1832.03,-1.59
1850.36,-1.68
1868.86,-1.79
1887.55,-1.90
1906.42,-2.01
1925.49,-2.12
1944.74,-2.25
1964.19,-2.37
1983.83,-2.49
2003.67,-2.59
2023.71,-2.70
2043.94,-2.80
2064.38,-2.90
2085.03,-3.00
2105.88,-3.09
2126.94,-3.17
2148.20,-3.26
2169.69,-3.33
2191.38,-3.39
2213.30,-3.43
2235.43,-3.46
2257.78,-3.48
2280.36,-3.50
2303.17,-3.48
2326.20,-3.46
2349.46,-3.42
2372.95,-3.36
2396.68,-3.28
2420.65,-3.18
2444.86,-3.08
2469.31,-2.97
2494.00,-2.86
2518.94,-2.73
2544.13,-2.60
2569.57,-2.47
2595.27,-2.32
2621.22,-2.19
2647.43,-2.04
2673.90,-1.89
2700.64,-1.74
2727.65,-1.60
2754.93,-1.47
2782.48,-1.33
2810.30,-1.19
2838.40,-1.04
2866.79,-0.90
2895.46,-0.76
2924.41,-0.63
2953.65,-0.51
2983.19,-0.39
3013.02,-0.27
3043.15,-0.16
3073.58,-0.04
3104.32,0.06
3135.36,0.15
3166.72,0.25
3198.38,0.34
3230.37,0.43
3262.67,0.50
3295.30,0.57
3328.25,0.64
3361.53,0.71
3395.15,0.77
3429.10,0.85
3463.39,0.92
3498.03,0.99
3533.01,1.06
3568.34,1.15
3604.02,1.24
3640.06,1.34
3676.46,1.44
3713.22,1.56
3750.36,1.69
3787.86,1.83
3825.74,1.97
3864.00,2.13
3902.64,2.29
3941.66,2.46
3981.08,2.62
4020.89,2.78
4061.10,2.94
4101.71,3.08
4142.73,3.21
4184.15,3.33
4226.00,3.44
4268.26,3.51
4310.94,3.58
4354.05,3.62
4397.59,3.64
4441.56,3.63
4485.98,3.61
4530.84,3.59
4576.15,3.55
4621.91,3.50
4668.13,3.43
4714.81,3.33
4761.96,3.23
4809.58,3.13
4857.67,3.02
4906.25,2.90
4955.31,2.79
5004.87,2.68
5054.91,2.59
5105.46,2.51
5156.52,2.44
5208.08,2.37
5260.16,2.34
5312.77,2.33
5365.89,2.34
5419.55,2.36
5473.75,2.42
5528.49,2.48
5583.77,2.55
5639.61,2.64
5696.00,2.74
5752.96,2.84
5810.49,2.95
5868.60,3.06
5927.28,3.16
5986.56,3.26
6046.42,3.34
6106.89,3.41
6167.96,3.48
6229.64,3.55
6291.93,3.60
6354.85,3.64
6418.40,3.68
6482.58,3.71
6547.41,3.71
6612.88,3.69
6679.01,3.64
6745.80,3.57
6813.26,3.46
6881.39,3.35
6950.21,3.20
7019.71,3.05
7089.91,2.87
7160.81,2.67
7232.41,2.44
7304.74,2.19
7377.79,1.93
7451.56,1.64
7526.08,1.36
7601.34,1.05
7677.35,0.73
7754.13,0.40
7831.67,0.07
7909.98,-0.26
7989.08,-0.62
8068.98,-1.00
8149.67,-1.39
8231.16,-1.77
8313.47,-2.16
8396.61,-2.54
8480.57,-2.89
8565.38,-3.20
8651.03,-3.48
8737.54,-3.73
8824.92,-3.94
8913.17,-4.11
9002.30,-4.23
9092.32,-4.29
9183.25,-4.32
9275.08,-4.30
9367.83,-4.22
9461.51,-4.10
9556.12,-3.94
9651.68,-3.74
9748.20,-3.52
9845.68,-3.29
9944.14,-3.03
10043.58,-2.75
10144.02,-2.48
10245.46,-2.22
10347.91,-1.96
10451.39,-1.69
10555.91,-1.44
10661.46,-1.22
10768.08,-1.01
10875.76,-0.81
10984.52,-0.63
11094.36,-0.46
11205.31,-0.31
11317.36,-0.16
11430.53,-0.01
11544.84,0.14
11660.29,0.28
11776.89,0.43
11894.66,0.59
12013.60,0.74
12133.74,0.91
12255.08,1.07
12377.63,1.20
12501.41,1.32
12626.42,1.42
12752.68,1.51
12880.21,1.57
13009.01,1.60
13139.10,1.61
13270.49,1.60
13403.20,1.56
13537.23,1.49
13672.60,1.38
13809.33,1.26
13947.42,1.11
14086.90,0.93
14227.77,0.73
14370.04,0.52
14513.74,0.28
14658.88,0.01
14805.47,-0.29
14953.52,-0.62
15103.06,-0.99
15254.09,-1.36
15406.63,-1.77
15560.70,-2.18
15716.30,-2.59
15873.47,-2.97
16032.20,-3.33
16192.52,-3.65
16354.45,-3.94
16517.99,-4.20
16683.17,-4.41
16850.01,-4.58
17018.51,-4.73
17188.69,-4.85
17360.58,-4.94
17534.18,-5.03
17709.53,-5.11
17886.62,-5.21
18065.49,-5.31
18246.14,-5.40
18428.60,-5.50
18612.89,-5.60
18799.02,-5.70
18987.01,-5.79
19176.88,-5.89
19368.65,-5.98
19562.33,-6.08
19757.96,-6.17
19955.54,-6.27
