frequency,raw,error,smoothed,error_smoothed,equalization,parametric_eq,fixed_band_eq,equalized_raw,equalized_smoothed,target
20.00,8.08,0.27,8.06,0.25,-0.25,-0.92,-0.72,7.83,7.81,7.81
20.20,8.08,0.26,8.10,0.29,-0.29,-0.94,-0.74,7.79,7.81,7.82
20.40,8.14,0.31,8.15,0.32,-0.33,-0.96,-0.76,7.81,7.82,7.83
20.61,8.21,0.37,8.20,0.36,-0.37,-0.98,-0.78,7.84,7.83,7.84
20.81,8.25,0.41,8.25,0.41,-0.40,-1.00,-0.80,7.85,7.85,7.84
21.02,8.30,0.45,8.30,0.45,-0.44,-1.01,-0.83,7.86,7.86,7.85
21.23,8.34,0.48,8.35,0.49,-0.48,-1.03,-0.85,7.86,7.86,7.86
21.44,8.40,0.53,8.40,0.53,-0.52,-1.05,-0.87,7.88,7.87,7.88
21.66,8.45,0.57,8.45,0.57,-0.57,-1.07,-0.90,7.88,7.88,7.87
21.87,8.49,0.61,8.49,0.60,-0.61,-1.09,-0.92,7.88,7.88,7.88
22.09,8.53,0.65,8.53,0.64,-0.65,-1.11,-0.95,7.88,7.88,7.88
22.31,8.56,0.67,8.58,0.68,-0.69,-1.13,-0.97,7.87,7.88,7.89
22.54,8.64,0.75,8.63,0.74,-0.74,-1.15,-1.00,7.90,7.89,7.89
22.76,8.69,0.79,8.69,0.79,-0.78,-1.18,-1.03,7.91,7.90,7.90
22.99,8.74,0.84,8.74,0.84,-0.83,-1.20,-1.06,7.91,7.91,7.90
23.22,8.78,0.88,8.78,0.88,-0.88,-1.22,-1.09,7.90,7.91,7.90
23.45,8.84,0.93,8.83,0.93,-0.92,-1.24,-1.12,7.92,7.91,7.91
23.69,8.87,0.96,8.88,0.97,-0.97,-1.26,-1.15,7.90,7.91,7.91
23.92,8.93,1.02,8.93,1.01,-1.01,-1.29,-1.18,7.92,7.92,7.91
24.16,8.97,1.05,8.97,1.05,-1.05,-1.31,-1.21,7.92,7.92,7.92
24.40,9.02,1.09,9.02,1.10,-1.09,-1.33,-1.24,7.93,7.93,7.93
24.65,9.06,1.13,9.06,1.13,-1.13,-1.36,-1.27,7.93,7.92,7.93
24.89,9.10,1.17,9.10,1.17,-1.18,-1.38,-1.31,7.92,7.92,7.93
25.14,9.13,1.20,9.14,1.21,-1.22,-1.41,-1.34,7.91,7.92,7.93
25.39,9.18,1.26,9.19,1.26,-1.27,-1.43,-1.38,7.91,7.92,7.93
25.65,9.25,1.33,9.24,1.31,-1.31,-1.46,-1.41,7.94,7.93,7.92
25.91,9.29,1.37,9.29,1.37,-1.36,-1.49,-1.45,7.93,7.94,7.92
26.16,9.34,1.41,9.34,1.41,-1.41,-1.51,-1.48,7.94,7.94,7.93
26.43,9.39,1.46,9.38,1.45,-1.45,-1.54,-1.52,7.94,7.93,7.93
26.69,9.42,1.49,9.43,1.50,-1.50,-1.57,-1.56,7.92,7.93,7.93
26.96,9.47,1.54,9.47,1.54,-1.54,-1.60,-1.59,7.93,7.93,7.93
27.23,9.52,1.59,9.51,1.58,-1.58,-1.62,-1.63,7.94,7.93,7.93
27.50,9.55,1.62,9.56,1.63,-1.62,-1.65,-1.66,7.93,7.93,7.93
27.77,9.60,1.66,9.60,1.66,-1.67,-1.68,-1.70,7.93,7.93,7.94
28.05,9.64,1.71,9.64,1.71,-1.71,-1.71,-1.74,7.93,7.93,7.94
28.33,9.69,1.76,9.69,1.76,-1.76,-1.74,-1.77,7.93,7.93,7.93
28.62,9.74,1.81,9.74,1.80,-1.81,-1.77,-1.81,7.93,7.93,7.93
28.90,9.79,1.85,9.79,1.85,-1.85,-1.80,-1.84,7.94,7.94,7.94
29.19,9.84,1.90,9.84,1.90,-1.90,-1.83,-1.88,7.94,7.94,7.94
29.48,9.89,1.95,9.89,1.95,-1.95,-1.87,-1.91,7.95,7.94,7.94
29.78,9.94,2.00,9.93,1.99,-1.99,-1.90,-1.95,7.95,7.94,7.94
30.08,9.97,2.02,9.97,2.04,-2.03,-1.93,-1.98,7.94,7.94,7.94
30.38,10.01,2.08,10.01,2.07,-2.08,-1.97,-2.01,7.93,7.94,7.93
30.68,10.05,2.12,10.05,2.11,-2.12,-2.00,-2.04,7.93,7.93,7.93
30.99,10.08,2.15,10.08,2.16,-2.15,-2.03,-2.07,7.93,7.93,7.93
31.30,10.12,2.19,10.12,2.19,-2.19,-2.07,-2.10,7.93,7.93,7.93
31.61,10.16,2.23,10.15,2.23,-2.23,-2.10,-2.13,7.93,7.92,7.93
31.93,10.18,2.27,10.19,2.27,-2.27,-2.14,-2.16,7.91,7.92,7.91
32.24,10.23,2.31,10.22,2.31,-2.31,-2.18,-2.19,7.92,7.92,7.92
32.57,10.25,2.34,10.25,2.34,-2.34,-2.21,-2.21,7.91,7.91,7.91
32.89,10.29,2.38,10.29,2.38,-2.38,-2.25,-2.24,7.91,7.91,7.91
33.22,10.32,2.42,10.32,2.42,-2.42,-2.29,-2.27,7.90,7.90,7.91
33.55,10.35,2.45,10.36,2.45,-2.45,-2.33,-2.29,7.90,7.90,7.90
33.89,10.40,2.50,10.39,2.49,-2.49,-2.36,-2.32,7.91,7.90,7.90
34.23,10.41,2.52,10.42,2.53,-2.52,-2.40,-2.34,7.89,7.90,7.89
34.57,10.44,2.56,10.44,2.56,-2.55,-2.44,-2.37,7.89,7.89,7.88
34.92,10.47,2.60,10.47,2.59,-2.59,-2.48,-2.39,7.88,7.88,7.87
35.27,10.49,2.61,10.49,2.62,-2.62,-2.52,-2.42,7.87,7.87,7.88
35.62,10.52,2.66,10.51,2.65,-2.66,-2.56,-2.44,7.86,7.85,7.86
35.97,10.53,2.68,10.54,2.69,-2.70,-2.61,-2.47,7.83,7.84,7.85
36.33,10.57,2.73,10.57,2.73,-2.74,-2.65,-2.50,7.83,7.83,7.84
36.70,10.61,2.78,10.60,2.78,-2.78,-2.69,-2.53,7.83,7.83,7.83
37.06,10.64,2.83,10.64,2.83,-2.82,-2.73,-2.56,7.82,7.82,7.81
37.43,10.66,2.86,10.67,2.87,-2.86,-2.78,-2.59,7.80,7.80,7.80
37.81,10.70,2.92,10.69,2.91,-2.91,-2.82,-2.62,7.79,7.79,7.78
38.19,10.71,2.94,10.72,2.95,-2.95,-2.87,-2.65,7.76,7.77,7.77
38.57,10.75,2.99,10.74,2.99,-2.99,-2.91,-2.69,7.76,7.75,7.76
38.95,10.77,3.03,10.77,3.03,-3.03,-2.96,-2.72,7.74,7.74,7.74
39.34,10.79,3.07,10.80,3.08,-3.07,-3.00,-2.76,7.72,7.72,7.72
39.74,10.83,3.13,10.82,3.12,-3.12,-3.05,-2.80,7.71,7.70,7.70
40.14,10.84,3.15,10.85,3.16,-3.16,-3.10,-2.84,7.68,7.68,7.69
40.54,10.88,3.21,10.88,3.21,-3.21,-3.14,-2.88,7.67,7.66,7.67
40.94,10.90,3.25,10.90,3.25,-3.26,-3.19,-2.93,7.64,7.64,7.65
41.35,10.93,3.30,10.93,3.31,-3.31,-3.24,-2.98,7.62,7.63,7.63
41.76,10.96,3.36,10.97,3.36,-3.36,-3.29,-3.03,7.60,7.61,7.60
42.18,11.01,3.42,11.00,3.41,-3.41,-3.34,-3.08,7.60,7.59,7.59
42.60,11.02,3.46,11.02,3.46,-3.46,-3.39,-3.13,7.56,7.57,7.56
43.03,11.05,3.51,11.05,3.51,-3.51,-3.44,-3.19,7.54,7.54,7.54
43.46,11.05,3.54,11.06,3.55,-3.56,-3.49,-3.25,7.49,7.50,7.51
43.90,11.09,3.61,11.08,3.60,-3.61,-3.54,-3.31,7.48,7.48,7.48
44.33,11.10,3.65,11.11,3.65,-3.65,-3.59,-3.37,7.45,7.45,7.45
44.78,11.14,3.71,11.14,3.71,-3.70,-3.64,-3.44,7.44,7.43,7.43
45.23,11.16,3.75,11.16,3.76,-3.75,-3.69,-3.51,7.41,7.40,7.41
45.68,11.18,3.81,11.18,3.81,-3.81,-3.75,-3.58,7.37,7.37,7.37
46.13,11.19,3.86,11.20,3.86,-3.86,-3.80,-3.65,7.33,7.33,7.33
46.60,11.22,3.92,11.22,3.91,-3.92,-3.85,-3.73,7.30,7.30,7.30
47.06,11.25,3.98,11.25,3.98,-3.98,-3.91,-3.81,7.27,7.27,7.27
47.53,11.27,4.03,11.28,4.04,-4.04,-3.96,-3.89,7.23,7.24,7.24
48.01,11.31,4.12,11.30,4.10,-4.10,-4.01,-3.97,7.21,7.20,7.19
48.49,11.32,4.16,11.32,4.16,-4.16,-4.07,-4.06,7.16,7.16,7.16
48.97,11.35,4.23,11.35,4.22,-4.22,-4.12,-4.14,7.13,7.12,7.12
49.46,11.36,4.27,11.37,4.28,-4.28,-4.18,-4.23,7.08,7.08,7.09
49.96,11.40,4.36,11.39,4.35,-4.35,-4.23,-4.32,7.05,7.05,7.04
50.46,11.42,4.41,11.42,4.41,-4.41,-4.29,-4.42,7.01,7.02,7.01
50.96,11.44,4.46,11.45,4.47,-4.46,-4.34,-4.51,6.98,6.98,6.98
51.47,11.48,4.54,11.47,4.53,-4.52,-4.40,-4.60,6.96,6.94,6.94
51.99,11.48,4.58,11.49,4.58,-4.59,-4.45,-4.70,6.89,6.90,6.90
52.51,11.51,4.64,11.51,4.64,-4.65,-4.51,-4.79,6.86,6.87,6.87
53.03,11.53,4.69,11.53,4.69,-4.70,-4.56,-4.89,6.83,6.82,6.84
53.56,11.56,4.76,11.56,4.76,-4.76,-4.62,-4.98,6.80,6.80,6.80
54.10,11.57,4.82,11.58,4.82,-4.82,-4.67,-5.07,6.75,6.76,6.75
54.64,11.61,4.89,11.60,4.88,-4.87,-4.73,-5.17,6.74,6.73,6.72
55.18,11.61,4.94,11.61,4.93,-4.92,-4.79,-5.26,6.69,6.69,6.67
55.74,11.61,4.97,11.61,4.97,-4.97,-4.84,-5.35,6.64,6.64,6.64
56.29,11.61,5.00,11.61,5.01,-5.02,-4.90,-5.43,6.59,6.60,6.61
56.86,11.63,5.05,11.62,5.05,-5.06,-4.95,-5.52,6.57,6.57,6.58
57.42,11.63,5.10,11.64,5.10,-5.09,-5.01,-5.60,6.54,6.54,6.53
58.00,11.66,5.16,11.65,5.14,-5.13,-5.06,-5.67,6.53,6.52,6.50
58.58,11.66,5.18,11.66,5.18,-5.17,-5.12,-5.74,6.49,6.49,6.48
59.16,11.66,5.21,11.66,5.21,-5.21,-5.17,-5.81,6.45,6.45,6.45
59.76,11.66,5.24,11.66,5.24,-5.26,-5.23,-5.87,6.40,6.40,6.42
60.35,11.66,5.29,11.66,5.29,-5.31,-5.28,-5.92,6.35,6.35,6.37
60.96,11.67,5.34,11.67,5.35,-5.36,-5.34,-5.97,6.31,6.31,6.33
61.57,11.70,5.42,11.69,5.42,-5.42,-5.39,-6.02,6.28,6.27,6.28
62.18,11.70,5.48,11.71,5.49,-5.48,-5.44,-6.05,6.22,6.24,6.22
62.80,11.74,5.56,11.73,5.55,-5.53,-5.50,-6.09,6.21,6.20,6.18
63.43,11.74,5.61,11.74,5.60,-5.59,-5.55,-6.11,6.15,6.15,6.13
64.07,11.74,5.64,11.74,5.65,-5.64,-5.60,-6.13,6.10,6.11,6.10
64.71,11.74,5.68,11.74,5.68,-5.68,-5.65,-6.14,6.06,6.06,6.06
65.35,11.74,5.72,11.74,5.71,-5.72,-5.70,-6.15,6.02,6.02,6.02
66.01,11.74,5.75,11.74,5.75,-5.76,-5.76,-6.15,5.98,5.98,5.99
66.67,11.74,5.78,11.74,5.79,-5.80,-5.81,-6.15,5.94,5.94,5.96
67.33,11.74,5.83,11.74,5.83,-5.83,-5.86,-6.14,5.91,5.91,5.91
68.01,11.74,5.87,11.74,5.87,-5.87,-5.90,-6.13,5.87,5.87,5.87
68.69,11.74,5.91,11.74,5.91,-5.91,-5.95,-6.12,5.83,5.83,5.83
69.37,11.74,5.95,11.74,5.95,-5.95,-6.00,-6.10,5.79,5.79,5.79
70.07,11.74,5.99,11.74,5.99,-5.99,-6.05,-6.08,5.75,5.75,5.75
70.77,11.74,6.03,11.74,6.03,-6.04,-6.09,-6.06,5.70,5.70,5.71
71.48,11.74,6.08,11.74,6.08,-6.08,-6.14,-6.04,5.66,5.66,5.66
72.19,11.74,6.12,11.74,6.13,-6.13,-6.18,-6.01,5.61,5.61,5.62
72.91,11.74,6.17,11.74,6.17,-6.17,-6.23,-5.99,5.57,5.57,5.57
73.64,11.74,6.22,11.74,6.22,-6.21,-6.27,-5.96,5.53,5.53,5.52
74.38,11.74,6.26,11.74,6.26,-6.25,-6.31,-5.94,5.49,5.49,5.48
75.12,11.74,6.30,11.74,6.29,-6.29,-6.35,-5.92,5.45,5.45,5.44
75.87,11.74,6.32,11.74,6.33,-6.33,-6.39,-5.89,5.41,5.41,5.42
76.63,11.74,6.37,11.74,6.36,-6.37,-6.43,-5.87,5.37,5.37,5.37
77.40,11.74,6.40,11.74,6.40,-6.40,-6.47,-5.86,5.34,5.34,5.34
78.17,11.74,6.44,11.74,6.43,-6.43,-6.51,-5.84,5.31,5.31,5.30
78.95,11.74,6.46,11.74,6.47,-6.47,-6.55,-5.83,5.27,5.27,5.28
79.74,11.74,6.50,11.74,6.50,-6.50,-6.58,-5.82,5.24,5.24,5.24
80.54,11.74,6.53,11.74,6.53,-6.53,-6.62,-5.81,5.21,5.21,5.21
81.35,11.74,6.57,11.74,6.56,-6.57,-6.65,-5.81,5.17,5.17,5.17
82.16,11.74,6.59,11.74,6.60,-6.60,-6.69,-5.81,5.14,5.15,5.15
82.98,11.74,6.63,11.74,6.63,-6.63,-6.72,-5.82,5.11,5.11,5.11
83.81,11.74,6.67,11.73,6.66,-6.66,-6.75,-5.83,5.08,5.07,5.07
84.65,11.70,6.67,11.71,6.68,-6.68,-6.78,-5.84,5.02,5.03,5.03
85.50,11.70,6.71,11.71,6.71,-6.71,-6.81,-5.86,4.99,5.00,4.99
86.35,11.70,6.74,11.69,6.73,-6.73,-6.84,-5.88,4.97,4.96,4.96
87.22,11.70,6.77,11.69,6.76,-6.76,-6.86,-5.91,4.94,4.93,4.93
88.09,11.66,6.77,11.68,6.79,-6.78,-6.89,-5.94,4.88,4.90,4.89
88.97,11.66,6.80,11.66,6.80,-6.80,-6.92,-5.97,4.86,4.86,4.86
89.86,11.66,6.85,11.64,6.82,-6.83,-6.94,-6.01,4.83,4.81,4.81
90.76,11.61,6.83,11.63,6.85,-6.86,-6.96,-6.06,4.75,4.77,4.78
91.66,11.61,6.87,11.61,6.87,-6.88,-6.99,-6.10,4.73,4.73,4.74
92.58,11.61,6.91,11.61,6.90,-6.91,-7.01,-6.16,4.70,4.70,4.70
93.51,11.61,6.94,11.61,6.94,-6.93,-7.03,-6.21,4.68,4.67,4.67
94.44,11.61,6.98,11.60,6.97,-6.96,-7.05,-6.27,4.65,4.64,4.63
95.39,11.57,6.98,11.58,7.00,-6.99,-7.07,-6.34,4.58,4.60,4.59
96.34,11.57,7.03,11.56,7.02,-7.01,-7.09,-6.41,4.56,4.55,4.54
97.30,11.53,7.03,11.53,7.03,-7.04,-7.11,-6.48,4.49,4.49,4.50
98.28,11.51,7.05,11.51,7.05,-7.06,-7.12,-6.56,4.45,4.45,4.46
99.26,11.48,7.07,11.49,7.08,-7.08,-7.14,-6.64,4.40,4.41,4.41
100.25,11.48,7.11,11.48,7.10,-7.10,-7.15,-6.72,4.38,4.38,4.37
101.25,11.48,7.13,11.47,7.13,-7.12,-7.17,-6.81,4.36,4.35,4.35
102.27,11.44,7.13,11.45,7.14,-7.14,-7.18,-6.90,4.30,4.31,4.31
103.29,11.44,7.17,11.43,7.16,-7.16,-7.20,-6.99,4.28,4.27,4.27
104.32,11.40,7.16,11.41,7.17,-7.17,-7.21,-7.08,4.23,4.24,4.24
105.37,11.40,7.20,11.39,7.19,-7.19,-7.22,-7.17,4.21,4.20,4.20
106.42,11.38,7.20,11.38,7.21,-7.21,-7.23,-7.27,4.17,4.17,4.18
107.48,11.35,7.22,11.36,7.22,-7.22,-7.24,-7.36,4.13,4.13,4.13
108.56,11.35,7.25,11.34,7.24,-7.24,-7.25,-7.46,4.11,4.10,4.10
109.64,11.31,7.25,11.32,7.26,-7.26,-7.26,-7.55,4.05,4.06,4.06
110.74,11.31,7.28,11.30,7.28,-7.28,-7.27,-7.64,4.03,4.03,4.03
111.85,11.28,7.29,11.28,7.29,-7.30,-7.28,-7.73,3.98,3.99,3.99
112.97,11.27,7.32,11.27,7.32,-7.31,-7.29,-7.81,3.96,3.95,3.95
114.10,11.24,7.33,11.24,7.33,-7.33,-7.30,-7.89,3.91,3.91,3.92
115.24,11.22,7.35,11.22,7.35,-7.35,-7.31,-7.97,3.87,3.87,3.87
116.39,11.18,7.36,11.19,7.37,-7.36,-7.31,-8.04,3.82,3.83,3.82
117.55,11.17,7.38,11.16,7.38,-7.37,-7.32,-8.10,3.80,3.79,3.79
118.73,11.14,7.40,11.13,7.39,-7.39,-7.33,-8.15,3.75,3.75,3.74
119.92,11.09,7.38,11.11,7.40,-7.40,-7.33,-8.20,3.69,3.71,3.71
121.12,11.09,7.41,11.08,7.40,-7.41,-7.34,-8.24,3.68,3.67,3.68
122.33,11.05,7.41,11.06,7.41,-7.42,-7.34,-8.27,3.63,3.64,3.64
123.55,11.04,7.43,11.04,7.43,-7.43,-7.35,-8.30,3.61,3.61,3.61
124.79,11.01,7.44,11.01,7.44,-7.44,-7.35,-8.31,3.57,3.57,3.57
126.03,10.98,7.45,10.98,7.45,-7.45,-7.36,-8.31,3.53,3.54,3.53
127.29,10.95,7.46,10.95,7.46,-7.46,-7.36,-8.31,3.49,3.49,3.49
128.57,10.92,7.47,10.92,7.47,-7.47,-7.37,-8.29,3.45,3.45,3.45
129.85,10.88,7.47,10.89,7.48,-7.47,-7.37,-8.27,3.41,3.41,3.41
131.15,10.86,7.49,10.86,7.48,-7.48,-7.37,-8.24,3.38,3.38,3.37
132.46,10.83,7.50,10.82,7.49,-7.49,-7.38,-8.20,3.34,3.34,3.33
133.79,10.79,7.49,10.79,7.49,-7.49,-7.38,-8.15,3.30,3.30,3.30
135.12,10.75,7.49,10.76,7.49,-7.50,-7.38,-8.10,3.25,3.26,3.26
136.48,10.72,7.49,10.72,7.49,-7.50,-7.39,-8.04,3.22,3.22,3.23
137.84,10.70,7.50,10.69,7.50,-7.50,-7.39,-7.98,3.20,3.19,3.20
139.22,10.66,7.51,10.66,7.50,-7.50,-7.39,-7.91,3.16,3.17,3.15
140.61,10.63,7.50,10.63,7.50,-7.50,-7.39,-7.84,3.13,3.14,3.13
142.02,10.60,7.50,10.59,7.49,-7.49,-7.39,-7.76,3.11,3.10,3.10
143.44,10.55,7.48,10.56,7.49,-7.49,-7.40,-7.69,3.06,3.07,3.07
144.87,10.52,7.47,10.52,7.48,-7.48,-7.40,-7.61,3.04,3.04,3.05
146.32,10.49,7.47,10.48,7.47,-7.47,-7.40,-7.53,3.02,3.01,3.02
147.78,10.44,7.45,10.45,7.46,-7.46,-7.40,-7.45,2.98,2.99,2.99
149.26,10.41,7.45,10.41,7.45,-7.45,-7.40,-7.38,2.96,2.96,2.96
150.75,10.38,7.46,10.37,7.44,-7.44,-7.40,-7.30,2.94,2.93,2.92
152.26,10.33,7.43,10.34,7.44,-7.44,-7.40,-7.22,2.89,2.90,2.90
153.78,10.30,7.43,10.30,7.43,-7.43,-7.40,-7.15,2.87,2.87,2.87
155.32,10.27,7.43,10.26,7.42,-7.42,-7.40,-7.08,2.85,2.84,2.84
156.88,10.22,7.41,10.23,7.42,-7.42,-7.40,-7.02,2.80,2.81,2.81
158.44,10.19,7.41,10.19,7.41,-7.41,-7.40,-6.95,2.78,2.78,2.78
160.03,10.16,7.42,10.15,7.41,-7.41,-7.40,-6.89,2.75,2.74,2.74
161.63,10.10,7.39,10.11,7.40,-7.40,-7.40,-6.84,2.70,2.71,2.71
163.24,10.07,7.40,10.07,7.40,-7.40,-7.40,-6.78,2.67,2.67,2.67
164.88,10.04,7.40,10.03,7.39,-7.39,-7.40,-6.74,2.65,2.64,2.64
166.53,9.99,7.39,10.00,7.39,-7.39,-7.39,-6.69,2.60,2.61,2.60
168.19,9.96,7.39,9.96,7.39,-7.39,-7.39,-6.66,2.57,2.57,2.57
169.87,9.92,7.38,9.92,7.38,-7.39,-7.39,-6.62,2.53,2.53,2.54
171.57,9.88,7.38,9.88,7.38,-7.38,-7.38,-6.59,2.50,2.50,2.50
173.29,9.85,7.39,9.85,7.38,-7.38,-7.38,-6.57,2.47,2.46,2.46
175.02,9.81,7.38,9.81,7.38,-7.38,-7.38,-6.55,2.43,2.42,2.43
176.77,9.77,7.38,9.78,7.38,-7.38,-7.37,-6.54,2.39,2.39,2.39
178.54,9.74,7.38,9.74,7.38,-7.38,-7.37,-6.53,2.36,2.36,2.36
180.32,9.71,7.39,9.70,7.38,-7.38,-7.36,-6.52,2.33,2.32,2.32
182.13,9.66,7.38,9.66,7.38,-7.37,-7.35,-6.52,2.29,2.29,2.28
183.95,9.62,7.37,9.62,7.37,-7.37,-7.35,-6.53,2.25,2.26,2.25
185.79,9.58,7.37,9.57,7.36,-7.36,-7.34,-6.54,2.22,2.21,2.21
187.65,9.53,7.35,9.53,7.35,-7.35,-7.33,-6.55,2.18,2.18,2.18
189.52,9.47,7.33,9.48,7.34,-7.35,-7.32,-6.57,2.12,2.14,2.14
191.42,9.44,7.33,9.44,7.33,-7.34,-7.31,-6.59,2.10,2.10,2.11
193.33,9.40,7.33,9.40,7.33,-7.33,-7.30,-6.62,2.07,2.07,2.07
195.27,9.36,7.32,9.36,7.33,-7.32,-7.29,-6.65,2.04,2.04,2.04
197.22,9.33,7.33,9.32,7.32,-7.32,-7.28,-6.69,2.01,2.01,2.00
199.19,9.28,7.31,9.29,7.32,-7.31,-7.26,-6.73,1.97,1.97,1.97
201.18,9.25,7.32,9.24,7.31,-7.30,-7.25,-6.77,1.95,1.94,1.93
203.19,9.20,7.29,9.20,7.29,-7.29,-7.23,-6.82,1.91,1.91,1.91
205.23,9.15,7.27,9.16,7.28,-7.28,-7.22,-6.86,1.87,1.88,1.88
207.28,9.12,7.26,9.11,7.26,-7.26,-7.20,-6.91,1.86,1.86,1.86
209.35,9.07,7.24,9.07,7.24,-7.24,-7.18,-6.96,1.83,1.83,1.82
211.44,9.02,7.22,9.02,7.22,-7.21,-7.16,-7.01,1.81,1.81,1.80
213.56,8.96,7.18,8.96,7.19,-7.19,-7.14,-7.07,1.77,1.78,1.78
215.69,8.91,7.15,8.91,7.16,-7.16,-7.12,-7.12,1.75,1.75,1.76
217.85,8.86,7.13,8.86,7.13,-7.13,-7.10,-7.17,1.73,1.73,1.73
220.03,8.81,7.11,8.81,7.11,-7.11,-7.08,-7.22,1.70,1.71,1.70
222.23,8.76,7.08,8.76,7.08,-7.08,-7.05,-7.27,1.68,1.68,1.68
224.45,8.71,7.05,8.71,7.05,-7.05,-7.03,-7.32,1.66,1.66,1.66
226.70,8.65,7.01,8.66,7.02,-7.02,-7.00,-7.36,1.63,1.64,1.64
228.96,8.61,6.98,8.61,6.99,-6.99,-6.97,-7.40,1.62,1.62,1.63
231.25,8.57,6.96,8.57,6.96,-6.96,-6.94,-7.43,1.61,1.61,1.61
233.57,8.52,6.93,8.52,6.93,-6.93,-6.91,-7.45,1.59,1.59,1.59
235.90,8.47,6.90,8.47,6.90,-6.89,-6.88,-7.47,1.58,1.58,1.57
238.26,8.41,6.86,8.41,6.85,-6.86,-6.85,-7.49,1.55,1.55,1.55
240.64,8.35,6.80,8.35,6.81,-6.82,-6.82,-7.49,1.53,1.54,1.55
243.05,8.30,6.77,8.30,6.77,-6.77,-6.78,-7.49,1.53,1.53,1.53
245.48,8.25,6.74,8.24,6.73,-6.73,-6.74,-7.48,1.52,1.52,1.51
247.93,8.19,6.69,8.19,6.69,-6.68,-6.70,-7.46,1.51,1.51,1.50
250.41,8.12,6.62,8.13,6.63,-6.63,-6.66,-7.43,1.49,1.50,1.50
252.92,8.07,6.58,8.06,6.57,-6.57,-6.62,-7.39,1.50,1.49,1.49
255.45,7.99,6.51,8.00,6.52,-6.52,-6.58,-7.34,1.47,1.47,1.48
258.00,7.93,6.46,7.93,6.46,-6.47,-6.54,-7.28,1.46,1.47,1.47
260.58,7.87,6.41,7.87,6.41,-6.41,-6.49,-7.22,1.46,1.46,1.46
263.19,7.81,6.35,7.81,6.35,-6.36,-6.44,-7.14,1.45,1.45,1.46
265.82,7.75,6.30,7.75,6.30,-6.30,-6.40,-7.06,1.45,1.45,1.45
268.48,7.69,6.25,7.69,6.25,-6.24,-6.35,-6.97,1.45,1.45,1.44
271.16,7.63,6.19,7.63,6.19,-6.19,-6.30,-6.88,1.44,1.44,1.44
273.87,7.57,6.14,7.56,6.13,-6.13,-6.24,-6.78,1.44,1.44,1.43
276.61,7.49,6.06,7.50,6.08,-6.07,-6.19,-6.67,1.42,1.43,1.43
279.38,7.44,6.03,7.43,6.01,-6.01,-6.14,-6.56,1.43,1.43,1.41
282.17,7.37,5.95,7.37,5.95,-5.95,-6.08,-6.44,1.42,1.42,1.42
284.99,7.30,5.87,7.30,5.88,-5.89,-6.02,-6.32,1.41,1.42,1.42
287.84,7.24,5.81,7.24,5.81,-5.83,-5.96,-6.20,1.41,1.41,1.43
290.72,7.17,5.75,7.18,5.75,-5.77,-5.90,-6.08,1.40,1.41,1.42
293.63,7.13,5.71,7.13,5.71,-5.71,-5.84,-5.95,1.42,1.42,1.42
296.57,7.08,5.65,7.08,5.65,-5.65,-5.78,-5.82,1.43,1.43,1.43
299.53,7.03,5.61,7.02,5.60,-5.58,-5.72,-5.70,1.45,1.44,1.42
302.53,6.96,5.53,6.96,5.53,-5.52,-5.65,-5.57,1.44,1.44,1.43
305.55,6.89,5.46,6.89,5.46,-5.46,-5.58,-5.45,1.43,1.43,1.43
308.61,6.83,5.40,6.82,5.39,-5.40,-5.52,-5.32,1.43,1.43,1.43
311.69,6.75,5.32,6.76,5.32,-5.33,-5.45,-5.20,1.42,1.43,1.43
314.81,6.69,5.25,6.69,5.25,-5.26,-5.38,-5.07,1.43,1.43,1.44
317.96,6.63,5.19,6.63,5.19,-5.19,-5.31,-4.95,1.44,1.44,1.44
321.14,6.57,5.13,6.57,5.13,-5.12,-5.24,-4.84,1.45,1.45,1.44
324.35,6.51,5.07,6.51,5.06,-5.06,-5.16,-4.72,1.45,1.45,1.44
327.59,6.44,4.98,6.44,4.99,-4.99,-5.09,-4.61,1.45,1.45,1.46
330.87,6.37,4.92,6.37,4.92,-4.92,-5.02,-4.50,1.45,1.45,1.45
334.18,6.30,4.85,6.31,4.85,-4.85,-4.94,-4.39,1.45,1.46,1.45
337.52,6.25,4.79,6.24,4.78,-4.78,-4.86,-4.28,1.47,1.46,1.46
340.90,6.17,4.70,6.17,4.71,-4.71,-4.79,-4.18,1.46,1.46,1.47
344.30,6.11,4.63,6.11,4.64,-4.64,-4.71,-4.08,1.47,1.47,1.48
347.75,6.05,4.57,6.06,4.57,-4.58,-4.63,-3.98,1.47,1.48,1.48
351.23,6.00,4.52,6.00,4.51,-4.51,-4.55,-3.89,1.49,1.49,1.48
354.74,5.96,4.46,5.94,4.45,-4.45,-4.47,-3.80,1.51,1.50,1.50
358.28,5.87,4.37,5.89,4.39,-4.38,-4.39,-3.71,1.49,1.51,1.50
361.87,5.83,4.32,5.83,4.32,-4.32,-4.31,-3.62,1.51,1.51,1.51
365.49,5.77,4.26,5.76,4.25,-4.25,-4.22,-3.54,1.52,1.51,1.51
369.14,5.70,4.18,5.71,4.19,-4.19,-4.14,-3.46,1.51,1.52,1.52
372.83,5.65,4.12,5.65,4.12,-4.12,-4.06,-3.38,1.53,1.53,1.53
376.56,5.59,4.06,5.59,4.05,-4.05,-3.97,-3.31,1.54,1.54,1.53
380.33,5.52,3.98,5.53,3.99,-3.98,-3.89,-3.24,1.54,1.54,1.54
384.13,5.47,3.92,5.46,3.92,-3.92,-3.80,-3.17,1.55,1.54,1.55
387.97,5.39,3.83,5.40,3.84,-3.85,-3.72,-3.10,1.54,1.55,1.56
391.85,5.34,3.78,5.34,3.78,-3.78,-3.63,-3.04,1.56,1.56,1.56
395.77,5.27,3.71,5.27,3.71,-3.70,-3.55,-2.97,1.57,1.57,1.56
399.73,5.22,3.65,5.21,3.64,-3.63,-3.46,-2.91,1.59,1.58,1.57
403.72,5.14,3.55,5.14,3.56,-3.55,-3.37,-2.85,1.59,1.59,1.59
407.76,5.07,3.48,5.07,3.48,-3.48,-3.29,-2.80,1.59,1.59,1.59
411.84,5.00,3.40,5.00,3.40,-3.40,-3.20,-2.74,1.60,1.59,1.60
415.96,4.92,3.31,4.92,3.32,-3.32,-3.11,-2.69,1.60,1.60,1.61
420.12,4.85,3.24,4.85,3.24,-3.25,-3.02,-2.64,1.60,1.60,1.61
424.32,4.78,3.16,4.78,3.16,-3.16,-2.94,-2.58,1.62,1.62,1.62
428.56,4.71,3.08,4.71,3.08,-3.08,-2.85,-2.53,1.63,1.63,1.63
432.85,4.65,3.01,4.65,3.01,-3.00,-2.76,-2.48,1.65,1.65,1.64
437.18,4.57,2.93,4.57,2.92,-2.91,-2.67,-2.44,1.66,1.66,1.64
441.55,4.49,2.84,4.48,2.83,-2.82,-2.58,-2.39,1.67,1.66,1.65
445.96,4.38,2.72,4.39,2.73,-2.73,-2.49,-2.34,1.65,1.66,1.66
450.42,4.30,2.63,4.31,2.64,-2.64,-2.41,-2.29,1.66,1.66,1.67
454.93,4.24,2.56,4.23,2.55,-2.55,-2.32,-2.24,1.69,1.67,1.68
459.48,4.15,2.46,4.16,2.46,-2.46,-2.23,-2.20,1.69,1.69,1.69
464.07,4.08,2.37,4.08,2.37,-2.37,-2.14,-2.15,1.71,1.70,1.71
468.71,4.00,2.28,4.00,2.28,-2.29,-2.06,-2.10,1.71,1.71,1.72
473.40,3.92,2.19,3.93,2.20,-2.20,-1.97,-2.05,1.72,1.73,1.73
478.13,3.86,2.12,3.85,2.11,-2.11,-1.88,-2.00,1.75,1.74,1.74
482.91,3.78,2.03,3.78,2.03,-2.03,-1.79,-1.95,1.75,1.75,1.75
487.74,3.69,1.93,3.70,1.94,-1.94,-1.71,-1.90,1.75,1.76,1.76
492.62,3.62,1.85,3.61,1.85,-1.84,-1.62,-1.84,1.78,1.77,1.77
497.55,3.53,1.76,3.53,1.75,-1.75,-1.53,-1.79,1.78,1.78,1.78
502.52,3.43,1.65,3.44,1.65,-1.66,-1.45,-1.73,1.77,1.78,1.78
507.55,3.37,1.57,3.36,1.55,-1.56,-1.36,-1.67,1.81,1.80,1.80
512.62,3.26,1.45,3.27,1.46,-1.46,-1.28,-1.61,1.80,1.81,1.81
517.75,3.20,1.37,3.19,1.36,-1.36,-1.19,-1.55,1.84,1.83,1.83
