frequency,raw,smoothed,error,error_smoothed,equalization,parametric_eq,fixed_band_eq,equalized_raw,equalized_smoothed,target
20.00,-7.92,-7.92,-13.26,-13.26,6.00,6.04,2.64,-1.92,-1.92,5.34
20.20,-7.88,-7.88,-13.20,-13.20,6.00,6.04,2.71,-1.88,-1.88,5.32
20.40,-7.83,-7.83,-13.14,-13.14,6.00,6.04,2.79,-1.83,-1.83,5.31
20.61,-7.79,-7.79,-13.09,-13.08,6.00,6.04,2.87,-1.79,-1.79,5.30
20.81,-7.74,-7.74,-13.01,-13.02,6.00,6.04,2.95,-1.74,-1.74,5.28
21.02,-7.69,-7.69,-12.95,-12.96,6.00,6.04,3.04,-1.69,-1.69,5.26
21.23,-7.64,-7.64,-12.89,-12.89,6.00,6.04,3.12,-1.64,-1.64,5.25
21.44,-7.59,-7.59,-12.83,-12.83,6.00,6.04,3.21,-1.59,-1.59,5.24
21.66,-7.53,-7.53,-12.76,-12.77,6.00,6.04,3.30,-1.53,-1.53,5.23
21.87,-7.48,-7.48,-12.71,-12.71,6.00,6.04,3.40,-1.48,-1.48,5.23
22.09,-7.43,-7.43,-12.65,-12.65,6.00,6.04,3.49,-1.43,-1.43,5.22
22.31,-7.38,-7.38,-12.60,-12.60,6.00,6.04,3.59,-1.38,-1.38,5.22
22.54,-7.34,-7.34,-12.55,-12.55,6.00,6.04,3.69,-1.34,-1.34,5.21
22.76,-7.29,-7.29,-12.50,-12.50,6.00,6.04,3.80,-1.29,-1.29,5.21
22.99,-7.24,-7.24,-12.44,-12.44,6.00,6.04,3.90,-1.24,-1.24,5.20
23.22,-7.19,-7.19,-12.39,-12.39,6.00,6.04,4.01,-1.19,-1.19,5.20
23.45,-7.13,-7.13,-12.33,-12.34,6.00,6.04,4.12,-1.13,-1.13,5.20
23.69,-7.08,-7.08,-12.28,-12.28,6.00,6.04,4.24,-1.08,-1.08,5.20
23.92,-7.03,-7.03,-12.23,-12.23,6.00,6.04,4.35,-1.03,-1.03,5.20
24.16,-6.97,-6.97,-12.17,-12.17,6.00,6.04,4.47,-0.97,-0.97,5.20
24.40,-6.92,-6.92,-12.12,-12.11,6.00,6.04,4.59,-0.92,-0.92,5.20
24.65,-6.86,-6.86,-12.05,-12.05,6.00,6.04,4.72,-0.86,-0.86,5.20
24.89,-6.80,-6.80,-11.99,-12.00,6.00,6.04,4.84,-0.80,-0.80,5.19
25.14,-6.75,-6.75,-11.94,-11.94,6.00,6.04,4.96,-0.75,-0.75,5.19
25.39,-6.69,-6.69,-11.89,-11.89,6.00,6.04,5.09,-0.69,-0.69,5.20
25.65,-6.64,-6.64,-11.84,-11.83,6.00,6.04,5.22,-0.64,-0.64,5.20
25.91,-6.58,-6.58,-11.77,-11.77,6.00,6.04,5.35,-0.58,-0.58,5.19
26.16,-6.53,-6.53,-11.71,-11.72,6.00,6.04,5.47,-0.53,-0.53,5.18
26.43,-6.49,-6.48,-11.67,-11.66,6.00,6.04,5.60,-0.49,-0.48,5.18
26.69,-6.44,-6.44,-11.62,-11.62,6.00,6.04,5.73,-0.44,-0.44,5.18
26.96,-6.40,-6.41,-11.57,-11.58,6.00,6.04,5.86,-0.40,-0.41,5.17
27.23,-6.38,-6.38,-11.55,-11.54,6.00,6.04,5.98,-0.38,-0.38,5.17
27.50,-6.36,-6.36,-11.52,-11.52,6.00,6.04,6.10,-0.36,-0.36,5.16
27.77,-6.34,-6.34,-11.50,-11.50,6.00,6.04,6.22,-0.34,-0.34,5.16
28.05,-6.32,-6.31,-11.47,-11.46,6.00,6.04,6.33,-0.32,-0.31,5.15
28.33,-6.25,-6.25,-11.39,-11.39,6.00,6.04,6.44,-0.25,-0.25,5.15
28.62,-6.19,-6.19,-11.32,-11.32,6.00,6.04,6.55,-0.19,-0.19,5.13
28.90,-6.12,-6.13,-11.25,-11.26,6.00,6.04,6.64,-0.12,-0.13,5.13
29.19,-6.10,-6.11,-11.22,-11.22,6.00,6.04,6.74,-0.10,-0.11,5.12
29.48,-6.10,-6.10,-11.20,-11.21,6.00,6.03,6.82,-0.10,-0.10,5.10
29.78,-6.10,-6.09,-11.20,-11.19,6.00,6.03,6.90,-0.10,-0.09,5.10
30.08,-6.08,-6.07,-11.17,-11.15,6.00,6.03,6.96,-0.08,-0.07,5.09
30.38,-6.01,-6.01,-11.09,-11.09,6.00,6.03,7.03,-0.01,-0.01,5.07
30.68,-5.94,-5.94,-11.01,-11.01,6.00,6.03,7.07,0.06,0.06,5.07
30.99,-5.87,-5.89,-10.93,-10.95,6.00,6.03,7.12,0.13,0.11,5.06
31.30,-5.87,-5.87,-10.91,-10.92,6.00,6.03,7.15,0.13,0.13,5.04
31.61,-5.87,-5.87,-10.91,-10.90,6.00,6.03,7.17,0.13,0.13,5.04
31.93,-5.87,-5.86,-10.90,-10.88,6.00,6.03,7.18,0.13,0.14,5.03
32.24,-5.82,-5.81,-10.84,-10.83,6.00,6.03,7.19,0.18,0.19,5.02
32.57,-5.74,-5.74,-10.76,-10.76,6.00,6.03,7.18,0.26,0.26,5.02
32.89,-5.67,-5.68,-10.68,-10.70,6.00,6.03,7.17,0.33,0.32,5.01
33.22,-5.65,-5.66,-10.66,-10.67,6.00,6.03,7.15,0.35,0.34,5.01
33.55,-5.65,-5.65,-10.65,-10.65,6.00,6.03,7.12,0.35,0.35,5.00
33.89,-5.65,-5.63,-10.66,-10.64,6.00,6.03,7.08,0.35,0.37,5.01
34.23,-5.60,-5.59,-10.60,-10.59,6.00,6.03,7.04,0.40,0.41,5.00
34.57,-5.52,-5.52,-10.53,-10.53,6.00,6.02,7.00,0.48,0.48,5.01
34.92,-5.44,-5.46,-10.45,-10.47,6.00,6.02,6.95,0.56,0.54,5.01
35.27,-5.42,-5.43,-10.43,-10.44,6.00,6.02,6.89,0.58,0.57,5.01
35.62,-5.42,-5.42,-10.42,-10.42,6.00,6.02,6.84,0.58,0.58,5.00
35.97,-5.42,-5.39,-10.41,-10.39,6.00,6.02,6.78,0.58,0.61,4.99
36.33,-5.34,-5.34,-10.34,-10.33,6.00,6.02,6.72,0.66,0.66,5.00
36.70,-5.26,-5.27,-10.24,-10.25,6.00,6.02,6.65,0.74,0.73,4.98
37.06,-5.19,-5.21,-10.16,-10.18,6.00,6.02,6.59,0.81,0.79,4.97
37.43,-5.19,-5.19,-10.15,-10.15,6.00,6.02,6.53,0.81,0.81,4.97
37.81,-5.19,-5.18,-10.14,-10.13,6.00,6.01,6.47,0.81,0.82,4.95
38.19,-5.19,-5.20,-10.13,-10.14,6.00,6.01,6.41,0.81,0.80,4.94
38.57,-5.19,-5.19,-10.11,-10.11,6.00,6.01,6.35,0.81,0.81,4.92
38.95,-5.19,-5.16,-10.09,-10.06,6.00,6.01,6.30,0.81,0.84,4.90
39.34,-5.11,-5.10,-9.98,-9.98,6.00,6.01,6.24,0.89,0.90,4.87
39.74,-5.02,-5.03,-9.88,-9.89,6.00,6.01,6.20,0.98,0.97,4.86
40.14,-4.96,-4.98,-9.80,-9.81,6.00,6.01,6.15,1.04,1.02,4.84
40.54,-4.96,-4.95,-9.78,-9.77,6.00,6.00,6.11,1.04,1.05,4.82
40.94,-4.96,-4.95,-9.76,-9.75,6.00,6.00,6.07,1.04,1.05,4.80
41.35,-4.96,-4.96,-9.75,-9.75,6.00,6.00,6.03,1.04,1.04,4.79
41.76,-4.96,-4.96,-9.73,-9.73,6.00,6.00,6.00,1.04,1.04,4.78
42.18,-4.96,-4.97,-9.72,-9.73,6.00,6.00,5.97,1.04,1.03,4.76
42.60,-4.96,-4.96,-9.71,-9.71,6.00,5.99,5.95,1.04,1.04,4.75
43.03,-4.95,-4.92,-9.69,-9.66,6.00,5.99,5.93,1.05,1.08,4.74
43.46,-4.85,-4.85,-9.58,-9.58,6.00,5.99,5.92,1.15,1.15,4.73
43.90,-4.75,-4.78,-9.48,-9.50,6.00,5.99,5.91,1.25,1.22,4.73
44.33,-4.73,-4.73,-9.44,-9.44,6.00,5.99,5.90,1.27,1.27,4.71
44.78,-4.73,-4.72,-9.43,-9.42,6.00,5.98,5.90,1.27,1.28,4.70
45.23,-4.73,-4.73,-9.42,-9.42,6.00,5.98,5.90,1.27,1.27,4.69
45.68,-4.73,-4.73,-9.41,-9.41,6.00,5.98,5.91,1.27,1.27,4.68
46.13,-4.73,-4.74,-9.39,-9.40,6.00,5.98,5.92,1.27,1.26,4.66
46.60,-4.73,-4.73,-9.38,-9.38,6.00,5.97,5.94,1.27,1.27,4.65
47.06,-4.72,-4.68,-9.36,-9.32,6.00,5.97,5.96,1.28,1.32,4.64
47.53,-4.61,-4.61,-9.23,-9.24,6.00,5.97,5.99,1.39,1.39,4.62
48.01,-4.51,-4.55,-9.12,-9.15,6.00,5.97,6.01,1.49,1.45,4.61
48.49,-4.51,-4.50,-9.10,-9.09,6.00,5.97,6.05,1.49,1.50,4.59
48.97,-4.51,-4.50,-9.08,-9.07,6.00,5.96,6.08,1.49,1.50,4.57
49.46,-4.51,-4.51,-9.06,-9.06,6.00,5.96,6.12,1.49,1.49,4.55
49.96,-4.51,-4.51,-9.04,-9.04,6.00,5.96,6.17,1.49,1.49,4.53
50.46,-4.51,-4.51,-9.02,-9.02,6.00,5.96,6.21,1.49,1.49,4.51
50.96,-4.51,-4.52,-9.01,-9.01,6.00,5.95,6.26,1.49,1.48,4.50
51.47,-4.51,-4.51,-8.98,-8.99,6.00,5.95,6.31,1.49,1.49,4.48
51.99,-4.51,-4.46,-8.96,-8.92,6.00,5.95,6.36,1.49,1.54,4.45
52.51,-4.39,-4.39,-8.82,-8.82,6.00,5.95,6.41,1.61,1.61,4.43
53.03,-4.28,-4.32,-8.68,-8.72,6.00,5.94,6.47,1.72,1.68,4.40
53.56,-4.28,-4.27,-8.65,-8.65,6.00,5.94,6.52,1.72,1.73,4.37
54.10,-4.28,-4.27,-8.62,-8.61,6.00,5.94,6.58,1.72,1.73,4.34
54.64,-4.28,-4.28,-8.60,-8.60,6.00,5.94,6.63,1.72,1.72,4.32
55.18,-4.28,-4.28,-8.57,-8.57,6.00,5.94,6.68,1.72,1.72,4.29
55.74,-4.28,-4.28,-8.54,-8.54,6.00,5.93,6.73,1.72,1.72,4.26
56.29,-4.28,-4.28,-8.50,-8.51,6.00,5.93,6.78,1.72,1.72,4.22
56.86,-4.28,-4.28,-8.48,-8.48,6.00,5.93,6.82,1.72,1.72,4.20
57.42,-4.28,-4.28,-8.45,-8.45,6.00,5.93,6.86,1.72,1.72,4.17
58.00,-4.28,-4.28,-8.42,-8.42,6.00,5.93,6.89,1.72,1.72,4.14
58.58,-4.28,-4.29,-8.38,-8.39,6.00,5.93,6.92,1.72,1.71,4.10
59.16,-4.28,-4.29,-8.36,-8.36,6.00,5.93,6.94,1.72,1.71,4.08
59.76,-4.28,-4.25,-8.31,-8.28,6.00,5.93,6.96,1.72,1.75,4.03
60.35,-4.20,-4.18,-8.20,-8.18,6.00,5.93,6.97,1.80,1.82,4.00
60.96,-4.06,-4.11,-8.02,-8.07,6.00,5.93,6.97,1.94,1.89,3.96
61.57,-4.05,-4.05,-7.97,-7.98,6.00,5.94,6.97,1.95,1.95,3.92
62.18,-4.05,-4.04,-7.93,-7.92,6.00,5.94,6.95,1.95,1.96,3.88
62.80,-4.05,-4.05,-7.89,-7.89,6.00,5.94,6.93,1.95,1.95,3.84
63.43,-4.05,-4.05,-7.85,-7.85,6.00,5.94,6.90,1.95,1.95,3.80
64.07,-4.05,-4.05,-7.81,-7.81,6.00,5.95,6.86,1.95,1.95,3.76
64.71,-4.05,-4.05,-7.77,-7.76,6.00,5.95,6.82,1.95,1.95,3.72
65.35,-4.05,-4.05,-7.71,-7.71,6.00,5.96,6.76,1.95,1.95,3.66
66.01,-4.05,-4.05,-7.66,-7.66,6.00,5.96,6.70,1.95,1.95,3.61
66.67,-4.05,-4.05,-7.60,-7.60,6.00,5.97,6.64,1.95,1.95,3.55
67.33,-4.05,-4.05,-7.55,-7.55,6.00,5.98,6.56,1.95,1.95,3.50
68.01,-4.05,-4.05,-7.50,-7.50,6.00,5.98,6.48,1.95,1.95,3.45
68.69,-4.05,-4.05,-7.44,-7.44,6.00,5.99,6.40,1.95,1.95,3.39
69.37,-4.05,-4.05,-7.39,-7.39,6.00,6.00,6.31,1.95,1.95,3.34
70.07,-4.05,-4.05,-7.33,-7.33,6.00,6.01,6.22,1.95,1.95,3.28
70.77,-4.05,-4.06,-7.27,-7.28,6.00,6.02,6.12,1.95,1.94,3.22
71.48,-4.05,-4.03,-7.21,-7.19,6.00,6.03,6.02,1.95,1.97,3.16
72.19,-4.00,-3.96,-7.10,-7.07,6.00,6.03,5.92,2.00,2.04,3.10
72.91,-3.84,-3.89,-6.89,-6.93,6.00,6.04,5.82,2.16,2.11,3.05
73.64,-3.82,-3.83,-6.80,-6.81,6.00,6.05,5.72,2.18,2.17,2.98
74.38,-3.82,-3.81,-6.74,-6.72,6.00,6.05,5.61,2.18,2.19,2.92
75.12,-3.82,-3.82,-6.68,-6.68,6.00,6.06,5.51,2.18,2.18,2.86
75.87,-3.82,-3.82,-6.63,-6.62,6.00,6.06,5.41,2.18,2.18,2.81
76.63,-3.82,-3.82,-6.56,-6.56,6.00,6.06,5.30,2.18,2.18,2.74
77.40,-3.82,-3.82,-6.50,-6.50,6.00,6.06,5.20,2.18,2.18,2.68
78.17,-3.82,-3.82,-6.44,-6.44,6.00,6.05,5.10,2.18,2.18,2.62
78.95,-3.82,-3.82,-6.38,-6.38,6.01,6.04,5.00,2.19,2.19,2.56
79.74,-3.82,-3.82,-6.31,-6.31,6.01,6.03,4.91,2.19,2.19,2.49
80.54,-3.82,-3.82,-6.25,-6.25,6.01,6.01,4.81,2.20,2.20,2.43
81.35,-3.82,-3.82,-6.18,-6.18,6.01,5.99,4.72,2.19,2.19,2.36
82.16,-3.82,-3.82,-6.12,-6.12,6.00,5.95,4.64,2.18,2.18,2.30
82.98,-3.82,-3.82,-6.05,-6.05,5.97,5.92,4.55,2.15,2.15,2.23
83.81,-3.82,-3.82,-5.98,-5.98,5.93,5.88,4.47,2.11,2.11,2.16
84.65,-3.82,-3.82,-5.90,-5.90,5.88,5.83,4.39,2.07,2.07,2.08
85.50,-3.82,-3.82,-5.82,-5.82,5.82,5.77,4.31,2.00,2.00,2.00
86.35,-3.82,-3.82,-5.74,-5.74,5.76,5.71,4.24,1.94,1.94,1.92
87.22,-3.82,-3.82,-5.66,-5.66,5.68,5.65,4.17,1.86,1.86,1.84
88.09,-3.82,-3.82,-5.58,-5.58,5.60,5.57,4.10,1.78,1.78,1.76
88.97,-3.82,-3.82,-5.49,-5.49,5.51,5.49,4.03,1.69,1.69,1.67
89.86,-3.82,-3.82,-5.41,-5.41,5.42,5.41,3.97,1.60,1.60,1.59
90.76,-3.82,-3.83,-5.32,-5.34,5.31,5.32,3.91,1.49,1.48,1.51
91.66,-3.82,-3.83,-5.24,-5.25,5.20,5.23,3.86,1.38,1.38,1.43
92.58,-3.82,-3.78,-5.16,-5.12,5.08,5.14,3.80,1.26,1.30,1.35
93.51,-3.72,-3.72,-4.97,-4.97,4.96,5.04,3.75,1.24,1.25,1.25
94.44,-3.61,-3.64,-4.78,-4.81,4.84,4.94,3.71,1.23,1.20,1.17
95.39,-3.59,-3.59,-4.67,-4.67,4.72,4.84,3.66,1.13,1.13,1.08
96.34,-3.59,-3.58,-4.58,-4.57,4.61,4.73,3.62,1.02,1.03,0.99
97.30,-3.59,-3.59,-4.49,-4.49,4.50,4.63,3.58,0.91,0.91,0.90
98.28,-3.59,-3.59,-4.40,-4.40,4.39,4.52,3.55,0.80,0.80,0.81
99.26,-3.59,-3.59,-4.32,-4.32,4.30,4.42,3.51,0.71,0.71,0.73
100.25,-3.59,-3.59,-4.23,-4.23,4.22,4.31,3.48,0.63,0.63,0.64
101.25,-3.59,-3.59,-4.14,-4.14,4.14,4.21,3.45,0.55,0.55,0.55
102.27,-3.59,-3.59,-4.05,-4.05,4.05,4.10,3.42,0.47,0.47,0.47
103.29,-3.59,-3.59,-3.97,-3.97,3.97,4.00,3.39,0.38,0.38,0.38
104.32,-3.59,-3.59,-3.89,-3.89,3.88,3.90,3.37,0.30,0.30,0.30
105.37,-3.59,-3.59,-3.80,-3.80,3.80,3.79,3.34,0.21,0.21,0.21
106.42,-3.59,-3.59,-3.72,-3.72,3.72,3.69,3.32,0.13,0.13,0.13
107.48,-3.59,-3.59,-3.63,-3.63,3.64,3.59,3.30,0.05,0.05,0.04
108.56,-3.59,-3.59,-3.56,-3.55,3.56,3.50,3.27,-0.03,-0.03,-0.03
109.64,-3.59,-3.59,-3.47,-3.47,3.48,3.40,3.25,-0.11,-0.11,-0.12
110.74,-3.59,-3.59,-3.40,-3.40,3.40,3.31,3.23,-0.19,-0.19,-0.19
111.85,-3.59,-3.59,-3.32,-3.32,3.32,3.21,3.21,-0.27,-0.27,-0.27
112.97,-3.59,-3.59,-3.24,-3.24,3.24,3.12,3.19,-0.35,-0.35,-0.35
114.10,-3.59,-3.59,-3.16,-3.16,3.16,3.03,3.16,-0.43,-0.43,-0.43
115.24,-3.59,-3.59,-3.08,-3.08,3.08,2.94,3.14,-0.51,-0.51,-0.51
116.39,-3.59,-3.59,-2.99,-2.99,2.99,2.85,3.11,-0.60,-0.60,-0.60
117.55,-3.59,-3.59,-2.91,-2.91,2.91,2.77,3.08,-0.68,-0.68,-0.68
118.73,-3.59,-3.59,-2.83,-2.83,2.83,2.68,3.06,-0.76,-0.76,-0.76
119.92,-3.59,-3.59,-2.74,-2.74,2.74,2.60,3.02,-0.85,-0.85,-0.85
121.12,-3.59,-3.59,-2.66,-2.66,2.66,2.52,2.99,-0.93,-0.93,-0.93
122.33,-3.59,-3.59,-2.57,-2.57,2.57,2.44,2.96,-1.02,-1.02,-1.02
123.55,-3.59,-3.59,-2.49,-2.49,2.49,2.36,2.92,-1.10,-1.10,-1.10
124.79,-3.59,-3.59,-2.40,-2.41,2.41,2.28,2.88,-1.18,-1.18,-1.19
126.03,-3.59,-3.59,-2.33,-2.32,2.32,2.21,2.84,-1.26,-1.26,-1.26
127.29,-3.59,-3.59,-2.24,-2.24,2.24,2.13,2.79,-1.35,-1.35,-1.35
128.57,-3.59,-3.59,-2.16,-2.16,2.16,2.06,2.75,-1.43,-1.43,-1.42
129.85,-3.59,-3.59,-2.08,-2.08,2.08,1.99,2.70,-1.51,-1.51,-1.51
131.15,-3.59,-3.59,-2.01,-2.00,2.00,1.91,2.65,-1.59,-1.59,-1.58
132.46,-3.59,-3.59,-1.92,-1.93,1.93,1.84,2.59,-1.66,-1.66,-1.67
133.79,-3.59,-3.59,-1.85,-1.85,1.85,1.78,2.54,-1.74,-1.74,-1.74
135.12,-3.59,-3.59,-1.77,-1.77,1.78,1.71,2.48,-1.81,-1.81,-1.82
136.48,-3.59,-3.59,-1.70,-1.70,1.70,1.64,2.42,-1.89,-1.89,-1.89
137.84,-3.59,-3.59,-1.63,-1.63,1.63,1.58,2.35,-1.96,-1.96,-1.96
139.22,-3.59,-3.59,-1.56,-1.56,1.56,1.51,2.29,-2.03,-2.03,-2.02
140.61,-3.59,-3.59,-1.49,-1.49,1.49,1.45,2.23,-2.10,-2.10,-2.10
142.02,-3.59,-3.59,-1.42,-1.42,1.42,1.39,2.16,-2.17,-2.17,-2.17
143.44,-3.59,-3.59,-1.36,-1.36,1.36,1.33,2.09,-2.23,-2.23,-2.23
144.87,-3.59,-3.59,-1.29,-1.29,1.29,1.27,2.02,-2.30,-2.30,-2.30
146.32,-3.59,-3.59,-1.23,-1.23,1.23,1.21,1.95,-2.36,-2.36,-2.36
147.78,-3.59,-3.59,-1.16,-1.16,1.16,1.15,1.88,-2.42,-2.42,-2.43
149.26,-3.59,-3.59,-1.10,-1.10,1.10,1.10,1.81,-2.49,-2.49,-2.49
150.75,-3.59,-3.59,-1.04,-1.04,1.04,1.04,1.74,-2.55,-2.55,-2.55
152.26,-3.59,-3.59,-0.98,-0.98,0.99,0.99,1.67,-2.60,-2.60,-2.60
153.78,-3.59,-3.59,-0.93,-0.93,0.93,0.93,1.60,-2.66,-2.66,-2.66
155.32,-3.59,-3.59,-0.87,-0.87,0.87,0.88,1.52,-2.72,-2.72,-2.72
156.88,-3.59,-3.59,-0.82,-0.82,0.82,0.83,1.45,-2.77,-2.77,-2.77
158.44,-3.59,-3.59,-0.77,-0.77,0.76,0.78,1.38,-2.83,-2.83,-2.82
160.03,-3.59,-3.59,-0.71,-0.71,0.71,0.73,1.31,-2.88,-2.88,-2.88
161.63,-3.59,-3.59,-0.65,-0.66,0.66,0.68,1.24,-2.93,-2.93,-2.94
163.24,-3.59,-3.59,-0.60,-0.60,0.61,0.63,1.17,-2.98,-2.98,-2.99
164.88,-3.59,-3.59,-0.56,-0.55,0.56,0.59,1.09,-3.03,-3.03,-3.03
166.53,-3.59,-3.59,-0.51,-0.51,0.51,0.54,1.02,-3.08,-3.08,-3.08
168.19,-3.59,-3.59,-0.47,-0.47,0.47,0.49,0.95,-3.12,-3.12,-3.12
169.87,-3.59,-3.59,-0.43,-0.43,0.42,0.45,0.88,-3.17,-3.17,-3.16
171.57,-3.59,-3.59,-0.38,-0.39,0.38,0.40,0.81,-3.21,-3.21,-3.21
173.29,-3.59,-3.59,-0.34,-0.34,0.34,0.36,0.74,-3.25,-3.25,-3.25
175.02,-3.59,-3.59,-0.30,-0.30,0.30,0.32,0.68,-3.29,-3.29,-3.29
176.77,-3.59,-3.59,-0.25,-0.25,0.25,0.28,0.61,-3.34,-3.34,-3.34
178.54,-3.59,-3.59,-0.21,-0.21,0.21,0.23,0.54,-3.38,-3.38,-3.38
180.32,-3.59,-3.59,-0.17,-0.17,0.17,0.19,0.47,-3.42,-3.42,-3.42
182.13,-3.59,-3.59,-0.12,-0.13,0.13,0.15,0.40,-3.46,-3.46,-3.47
183.95,-3.59,-3.59,-0.09,-0.08,0.08,0.11,0.34,-3.50,-3.50,-3.50
185.79,-3.59,-3.59,-0.04,-0.04,0.05,0.07,0.27,-3.54,-3.54,-3.55
187.65,-3.59,-3.59,-0.01,-0.01,0.01,0.04,0.20,-3.58,-3.58,-3.58
189.52,-3.59,-3.59,0.03,0.03,-0.03,-0.00,0.14,-3.61,-3.61,-3.62
191.42,-3.59,-3.59,0.06,0.06,-0.06,-0.04,0.07,-3.65,-3.65,-3.65
193.33,-3.59,-3.59,0.09,0.09,-0.09,-0.08,0.01,-3.68,-3.68,-3.68
195.27,-3.59,-3.59,0.12,0.12,-0.12,-0.11,-0.06,-3.71,-3.71,-3.71
197.22,-3.59,-3.59,0.15,0.15,-0.15,-0.15,-0.12,-3.74,-3.74,-3.74
199.19,-3.59,-3.59,0.18,0.18,-0.18,-0.18,-0.18,-3.77,-3.77,-3.77
201.18,-3.59,-3.59,0.21,0.21,-0.20,-0.22,-0.25,-3.79,-3.79,-3.80
203.19,-3.59,-3.59,0.23,0.23,-0.22,-0.25,-0.31,-3.81,-3.81,-3.82
205.23,-3.59,-3.59,0.25,0.25,-0.24,-0.28,-0.37,-3.83,-3.83,-3.84
207.28,-3.59,-3.59,0.28,0.28,-0.27,-0.32,-0.43,-3.86,-3.86,-3.86
209.35,-3.59,-3.59,0.30,0.30,-0.31,-0.35,-0.49,-3.90,-3.90,-3.89
211.44,-3.59,-3.61,0.32,0.31,-0.35,-0.38,-0.55,-3.94,-3.96,-3.91
213.56,-3.59,-3.58,0.35,0.36,-0.41,-0.41,-0.60,-3.99,-3.99,-3.94
215.69,-3.59,-3.52,0.37,0.44,-0.46,-0.44,-0.66,-4.05,-3.98,-3.96
217.85,-3.39,-3.45,0.59,0.53,-0.52,-0.47,-0.71,-3.91,-3.97,-3.98
220.03,-3.37,-3.39,0.63,0.62,-0.57,-0.50,-0.76,-3.94,-3.96,-4.00
222.23,-3.37,-3.35,0.66,0.68,-0.62,-0.53,-0.81,-3.99,-3.98,-4.03
224.45,-3.37,-3.37,0.68,0.68,-0.67,-0.56,-0.86,-4.04,-4.04,-4.05
226.70,-3.37,-3.37,0.70,0.71,-0.71,-0.59,-0.91,-4.08,-4.08,-4.07
228.96,-3.37,-3.37,0.73,0.73,-0.74,-0.62,-0.95,-4.11,-4.11,-4.10
231.25,-3.37,-3.37,0.75,0.75,-0.76,-0.65,-1.00,-4.13,-4.13,-4.12
233.57,-3.37,-3.37,0.76,0.77,-0.78,-0.67,-1.04,-4.15,-4.15,-4.13
235.90,-3.37,-3.37,0.79,0.79,-0.79,-0.70,-1.07,-4.16,-4.16,-4.16
238.26,-3.37,-3.37,0.82,0.81,-0.81,-0.72,-1.11,-4.18,-4.18,-4.19
240.64,-3.37,-3.37,0.83,0.83,-0.83,-0.75,-1.14,-4.20,-4.20,-4.20
243.05,-3.37,-3.37,0.85,0.85,-0.85,-0.77,-1.16,-4.22,-4.22,-4.22
245.48,-3.37,-3.37,0.86,0.86,-0.86,-0.79,-1.19,-4.23,-4.23,-4.23
247.93,-3.37,-3.37,0.88,0.88,-0.88,-0.82,-1.21,-4.25,-4.25,-4.25
250.41,-3.37,-3.37,0.89,0.89,-0.90,-0.84,-1.23,-4.27,-4.27,-4.26
252.92,-3.37,-3.37,0.91,0.91,-0.91,-0.86,-1.24,-4.28,-4.28,-4.28
255.45,-3.37,-3.37,0.93,0.93,-0.92,-0.88,-1.26,-4.29,-4.29,-4.30
258.00,-3.37,-3.37,0.94,0.94,-0.94,-0.90,-1.27,-4.31,-4.31,-4.31
260.58,-3.37,-3.37,0.95,0.95,-0.95,-0.92,-1.27,-4.32,-4.32,-4.32
263.19,-3.37,-3.37,0.96,0.96,-0.96,-0.93,-1.27,-4.33,-4.33,-4.33
265.82,-3.37,-3.37,0.97,0.97,-0.97,-0.95,-1.27,-4.34,-4.34,-4.34
268.48,-3.37,-3.37,0.98,0.98,-0.98,-0.97,-1.27,-4.35,-4.35,-4.35
271.16,-3.37,-3.37,0.98,0.99,-0.99,-0.98,-1.27,-4.36,-4.36,-4.35
273.87,-3.37,-3.37,0.99,0.99,-1.00,-0.99,-1.26,-4.37,-4.37,-4.36
276.61,-3.37,-3.37,1.00,1.00,-1.00,-1.01,-1.25,-4.37,-4.37,-4.37
279.38,-3.37,-3.37,1.01,1.01,-1.01,-1.02,-1.24,-4.38,-4.38,-4.38
282.17,-3.37,-3.37,1.02,1.02,-1.01,-1.03,-1.23,-4.38,-4.38,-4.39
284.99,-3.37,-3.37,1.02,1.02,-1.02,-1.04,-1.22,-4.39,-4.39,-4.39
287.84,-3.37,-3.37,1.02,1.02,-1.02,-1.05,-1.20,-4.39,-4.39,-4.39
290.72,-3.37,-3.37,1.01,1.02,-1.02,-1.06,-1.19,-4.39,-4.39,-4.38
293.63,-3.37,-3.37,1.02,1.02,-1.02,-1.07,-1.17,-4.39,-4.39,-4.39
296.57,-3.37,-3.37,1.02,1.02,-1.02,-1.07,-1.15,-4.39,-4.39,-4.39
299.53,-3.37,-3.37,1.02,1.02,-1.02,-1.08,-1.13,-4.39,-4.39,-4.39
302.53,-3.37,-3.37,1.01,1.01,-1.02,-1.08,-1.11,-4.39,-4.39,-4.38
305.55,-3.37,-3.37,1.01,1.01,-1.02,-1.09,-1.09,-4.39,-4.39,-4.38
308.61,-3.37,-3.37,1.02,1.01,-1.02,-1.09,-1.07,-4.39,-4.39,-4.39
311.69,-3.37,-3.37,1.01,1.01,-1.02,-1.09,-1.05,-4.39,-4.39,-4.38
314.81,-3.37,-3.37,1.02,1.02,-1.02,-1.09,-1.03,-4.38,-4.38,-4.39
317.96,-3.37,-3.37,1.01,1.02,-1.01,-1.09,-1.01,-4.38,-4.38,-4.38
321.14,-3.37,-3.37,1.02,1.02,-1.01,-1.09,-0.99,-4.38,-4.38,-4.39
324.35,-3.37,-3.37,1.02,1.01,-1.01,-1.09,-0.97,-4.38,-4.38,-4.38
327.59,-3.37,-3.37,1.00,1.01,-1.01,-1.09,-0.96,-4.38,-4.38,-4.37
330.87,-3.37,-3.37,1.01,1.00,-1.01,-1.09,-0.94,-4.38,-4.38,-4.37
334.18,-3.37,-3.37,1.00,1.00,-1.00,-1.09,-0.92,-4.37,-4.37,-4.37
337.52,-3.37,-3.37,1.00,1.00,-1.00,-1.08,-0.90,-4.37,-4.37,-4.37
340.90,-3.37,-3.37,0.99,0.99,-0.99,-1.08,-0.89,-4.36,-4.36,-4.36
344.30,-3.37,-3.37,0.98,0.99,-0.98,-1.07,-0.87,-4.35,-4.35,-4.35
347.75,-3.37,-3.37,0.98,0.98,-0.98,-1.07,-0.85,-4.35,-4.35,-4.35
351.23,-3.37,-3.37,0.98,0.97,-0.97,-1.06,-0.84,-4.34,-4.34,-4.35
354.74,-3.37,-3.37,0.96,0.96,-0.97,-1.05,-0.83,-4.33,-4.33,-4.32
358.28,-3.37,-3.37,0.96,0.96,-0.96,-1.05,-0.81,-4.33,-4.33,-4.33
361.87,-3.37,-3.37,0.95,0.95,-0.95,-1.04,-0.80,-4.32,-4.32,-4.32
365.49,-3.37,-3.37,0.95,0.95,-0.95,-1.03,-0.79,-4.32,-4.32,-4.32
369.14,-3.37,-3.37,0.95,0.94,-0.94,-1.02,-0.78,-4.31,-4.31,-4.32
372.83,-3.37,-3.37,0.93,0.94,-0.94,-1.02,-0.77,-4.31,-4.31,-4.30
376.56,-3.37,-3.37,0.94,0.93,-0.94,-1.01,-0.76,-4.30,-4.30,-4.30
380.33,-3.37,-3.37,0.93,0.93,-0.93,-1.00,-0.75,-4.30,-4.30,-4.30
384.13,-3.37,-3.37,0.93,0.93,-0.93,-0.99,-0.74,-4.30,-4.30,-4.30
387.97,-3.37,-3.37,0.93,0.93,-0.93,-0.98,-0.73,-4.30,-4.30,-4.30
391.85,-3.37,-3.37,0.92,0.93,-0.93,-0.97,-0.72,-4.30,-4.30,-4.29
395.77,-3.37,-3.37,0.93,0.92,-0.92,-0.96,-0.72,-4.29,-4.29,-4.30
399.73,-3.37,-3.37,0.92,0.92,-0.92,-0.95,-0.71,-4.29,-4.29,-4.29
403.72,-3.37,-3.37,0.91,0.92,-0.91,-0.94,-0.70,-4.28,-4.28,-4.28
407.76,-3.37,-3.37,0.92,0.91,-0.90,-0.94,-0.70,-4.26,-4.26,-4.29
411.84,-3.37,-3.37,0.90,0.90,-0.89,-0.93,-0.70,-4.26,-4.26,-4.27
415.96,-3.37,-3.37,0.89,0.89,-0.89,-0.92,-0.69,-4.26,-4.26,-4.26
420.12,-3.37,-3.38,0.89,0.88,-0.90,-0.91,-0.69,-4.27,-4.28,-4.26
424.32,-3.37,-3.38,0.87,0.87,-0.92,-0.90,-0.69,-4.29,-4.30,-4.24
428.56,-3.37,-3.34,0.87,0.90,-0.94,-0.89,-0.69,-4.31,-4.28,-4.24
432.85,-3.28,-3.27,0.95,0.96,-0.97,-0.88,-0.69,-4.25,-4.23,-4.23
437.18,-3.16,-3.20,1.06,1.02,-0.99,-0.87,-0.68,-4.15,-4.19,-4.22
441.55,-3.14,-3.14,1.07,1.07,-1.01,-0.86,-0.68,-4.15,-4.15,-4.21
445.96,-3.14,-3.13,1.05,1.06,-1.03,-0.86,-0.69,-4.17,-4.15,-4.19
450.42,-3.14,-3.14,1.04,1.04,-1.04,-0.85,-0.69,-4.18,-4.17,-4.17
454.93,-3.14,-3.14,1.02,1.02,-1.04,-0.84,-0.69,-4.18,-4.18,-4.16
459.48,-3.14,-3.14,1.01,1.01,-1.03,-0.83,-0.69,-4.17,-4.17,-4.15
