frequency,raw
20.00,0.64
20.20,0.64
20.40,0.64
20.61,0.64
20.81,0.64
21.02,0.65
21.23,0.65
21.44,0.65
21.66,0.66
21.87,0.67
22.09,0.68
22.31,0.69
22.54,0.70
22.76,0.70
22.99,0.69
23.22,0.66
23.45,0.63
23.69,0.59
23.92,0.56
24.16,0.56
24.40,0.59
24.65,0.65
24.89,0.74
25.14,0.84
25.39,0.94
25.65,1.01
25.91,1.07
26.16,1.09
26.43,1.12
26.69,1.15
26.96,1.24
27.23,1.38
27.50,1.56
27.77,1.76
28.05,1.93
28.33,2.06
28.62,2.09
28.90,2.02
29.19,1.89
29.48,1.67
29.78,1.45
30.08,1.26
30.38,1.12
30.68,1.08
30.99,1.10
31.30,1.16
31.61,1.23
31.93,1.29
32.24,1.34
32.57,1.36
32.89,1.38
33.22,1.38
33.55,1.38
33.89,1.38
34.23,1.38
34.57,1.37
34.92,1.37
35.27,1.36
35.62,1.36
35.97,1.36
36.33,1.37
36.70,1.38
37.06,1.39
37.43,1.42
37.81,1.45
38.19,1.52
38.57,1.61
38.95,1.73
39.34,1.86
39.74,1.97
40.14,2.03
40.54,2.04
40.94,1.98
41.35,1.89
41.76,1.77
42.18,1.65
42.60,1.54
43.03,1.44
43.46,1.36
43.90,1.30
44.33,1.24
44.78,1.20
45.23,1.18
45.68,1.16
46.13,1.16
46.60,1.17
47.06,1.18
47.53,1.20
48.01,1.23
48.49,1.25
48.97,1.27
49.46,1.28
49.96,1.28
50.46,1.28
50.96,1.27
51.47,1.26
51.99,1.25
52.51,1.23
53.03,1.22
53.56,1.20
54.10,1.18
54.64,1.17
55.18,1.15
55.74,1.14
56.29,1.12
56.86,1.11
57.42,1.10
58.00,1.10
58.58,1.09
59.16,1.09
59.76,1.09
60.35,1.08
60.96,1.08
61.57,1.08
62.18,1.07
62.80,1.06
63.43,1.06
64.07,1.06
64.71,1.06
65.35,1.06
66.01,1.07
66.67,1.08
67.33,1.09
68.01,1.09
68.69,1.09
69.37,1.09
70.07,1.08
70.77,1.08
71.48,1.07
72.19,1.06
72.91,1.06
73.64,1.05
74.38,1.05
75.12,1.04
75.87,1.04
76.63,1.03
77.40,1.01
78.17,1.00
78.95,0.98
79.74,0.97
80.54,0.95
81.35,0.94
82.16,0.92
82.98,0.91
83.81,0.89
84.65,0.88
85.50,0.86
86.35,0.84
87.22,0.81
88.09,0.79
88.97,0.76
89.86,0.74
90.76,0.72
91.66,0.70
92.58,0.69
93.51,0.67
94.44,0.66
95.39,0.64
96.34,0.62
97.30,0.59
98.28,0.57
99.26,0.55
100.25,0.54
101.25,0.52
102.27,0.51
103.29,0.49
104.32,0.48
105.37,0.47
106.42,0.46
107.48,0.45
108.56,0.44
109.64,0.43
110.74,0.42
111.85,0.41
112.97,0.40
114.10,0.39
115.24,0.38
116.39,0.37
117.55,0.36
118.73,0.35
119.92,0.33
121.12,0.32
122.33,0.30
123.55,0.28
124.79,0.26
126.03,0.23
127.29,0.21
128.57,0.18
129.85,0.16
131.15,0.14
132.46,0.12
133.79,0.11
135.12,0.12
136.48,0.13
137.84,0.17
139.22,0.22
140.61,0.29
142.02,0.36
143.44,0.44
144.87,0.51
146.32,0.57
147.78,0.62
149.26,0.65
150.75,0.67
152.26,0.67
153.78,0.66
155.32,0.65
156.88,0.63
158.44,0.61
160.03,0.59
161.63,0.56
163.24,0.54
164.88,0.52
166.53,0.50
168.19,0.48
169.87,0.46
171.57,0.44
173.29,0.43
175.02,0.41
176.77,0.39
178.54,0.37
180.32,0.35
182.13,0.33
183.95,0.32
185.79,0.30
187.65,0.28
189.52,0.26
191.42,0.25
193.33,0.23
195.27,0.21
197.22,0.19
199.19,0.17
201.18,0.15
203.19,0.13
205.23,0.12
207.28,0.10
209.35,0.09
211.44,0.07
213.56,0.06
215.69,0.04
217.85,0.03
220.03,0.01
222.23,-0.00
224.45,-0.02
226.70,-0.03
228.96,-0.05
231.25,-0.07
233.57,-0.08
235.90,-0.10
238.26,-0.12
240.64,-0.13
243.05,-0.15
245.48,-0.16
247.93,-0.18
250.41,-0.20
252.92,-0.22
255.45,-0.24
258.00,-0.26
260.58,-0.28
263.19,-0.30
265.82,-0.32
268.48,-0.34
271.16,-0.36
273.87,-0.38
276.61,-0.41
279.38,-0.43
282.17,-0.45
284.99,-0.47
287.84,-0.49
290.72,-0.51
293.63,-0.53
296.57,-0.55
299.53,-0.57
302.53,-0.59
305.55,-0.61
308.61,-0.62
311.69,-0.64
314.81,-0.65
317.96,-0.65
321.14,-0.65
324.35,-0.64
327.59,-0.62
330.87,-0.60
334.18,-0.58
337.52,-0.57
340.90,-0.56
344.30,-0.56
347.75,-0.56
351.23,-0.57
354.74,-0.59
358.28,-0.61
361.87,-0.63
365.49,-0.65
369.14,-0.67
372.83,-0.69
376.56,-0.71
380.33,-0.73
384.13,-0.75
387.97,-0.77
391.85,-0.79
395.77,-0.81
399.73,-0.83
403.72,-0.85
407.76,-0.87
411.84,-0.89
415.96,-0.91
420.12,-0.93
424.32,-0.95
428.56,-0.96
432.85,-0.97
437.18,-0.99
441.55,-1.00
445.96,-1.02
450.42,-1.03
454.93,-1.05
459.48,-1.06
464.07,-1.08
468.71,-1.09
473.40,-1.11
478.13,-1.13
482.91,-1.15
487.74,-1.16
492.62,-1.18
497.55,-1.20
502.52,-1.21
507.55,-1.23
512.62,-1.25
517.75,-1.26
522.93,-1.28
528.16,-1.29
533.44,-1.31
538.77,-1.32
544.16,-1.34
549.60,-1.35
555.10,-1.37
560.65,-1.38
566.25,-1.39
571.92,-1.41
577.64,-1.42
583.41,-1.43
589.25,-1.45
595.14,-1.46
601.09,-1.47
607.10,-1.48
613.17,-1.49
619.30,-1.49
625.50,-1.49
631.75,-1.49
638.07,-1.49
644.45,-1.49
650.89,-1.49
657.40,-1.49
663.98,-1.48
670.62,-1.48
677.32,-1.48
684.10,-1.47
690.94,-1.47
697.85,-1.47
704.83,-1.46
711.87,-1.45
718.99,-1.44
726.18,-1.43
733.44,-1.42
740.78,-1.40
748.19,-1.39
755.67,-1.38
763.23,-1.36
770.86,-1.34
778.57,-1.33
786.35,-1.31
794.22,-1.28
802.16,-1.26
810.18,-1.23
818.28,-1.20
826.46,-1.17
834.73,-1.14
843.08,-1.10
851.51,-1.06
860.02,-1.02
868.62,-0.97
877.31,-0.92
886.08,-0.86
894.94,-0.80
903.89,-0.74
912.93,-0.68
922.06,-0.61
931.28,-0.54
940.59,-0.47
950.00,-0.39
959.50,-0.32
969.09,-0.24
978.78,-0.16
988.57,-0.09
998.46,-0.01
1008.44,0.07
1018.53,0.14
1028.71,0.23
1039.00,0.31
1049.39,0.41
1059.88,0.50
1070.48,0.61
1081.19,0.71
1092.00,0.82
1102.92,0.94
1113.95,1.06
1125.09,1.17
1136.34,1.30
1147.70,1.42
1159.18,1.54
1170.77,1.67
1182.48,1.80
1194.30,1.94
1206.25,2.07
1218.31,2.21
1230.49,2.36
1242.80,2.50
1255.22,2.65
1267.78,2.79
1280.45,2.94
1293.26,3.09
1306.19,3.24
1319.25,3.39
1332.45,3.54
1345.77,3.70
1359.23,3.85
1372.82,4.01
1386.55,4.17
1400.41,4.33
1414.42,4.49
1428.56,4.65
1442.85,4.81
1457.28,4.97
1471.85,5.14
1486.57,5.30
1501.43,5.47
1516.45,5.65
1531.61,5.84
1546.93,6.03
1562.40,6.23
1578.02,6.43
1593.80,6.64
1609.74,6.85
1625.84,7.06
1642.10,7.28
1658.52,7.48
1675.10,7.69
1691.85,7.88
1708.77,8.07
1725.86,8.24
1743.12,8.41
1760.55,8.56
1778.15,8.69
1795.94,8.81
1813.90,8.91
1832.03,8.99
1850.36,9.05
1868.86,9.10
1887.55,9.13
1906.42,9.14
1925.49,9.14
1944.74,9.14
1964.19,9.12
1983.83,9.10
2003.67,9.07
2023.71,9.04
2043.94,9.01
2064.38,8.99
2085.03,8.96
2105.88,8.94
2126.94,8.91
2148.20,8.88
2169.69,8.85
2191.38,8.80
2213.30,8.75
2235.43,8.69
2257.78,8.61
2280.36,8.51
2303.17,8.40
2326.20,8.27
2349.46,8.12
2372.95,7.96
2396.68,7.79
2420.65,7.60
2444.86,7.41
2469.31,7.22
2494.00,7.02
2518.94,6.82
2544.13,6.63
2569.57,6.44
2595.27,6.26
2621.22,6.10
2647.43,5.94
2673.90,5.80
2700.64,5.67
2727.65,5.56
2754.93,5.46
2782.48,5.38
2810.30,5.32
2838.40,5.27
2866.79,5.25
2895.46,5.24
2924.41,5.25
2953.65,5.28
2983.19,5.34
3013.02,5.41
3043.15,5.50
3073.58,5.62
3104.32,5.75
3135.36,5.90
3166.72,6.08
3198.38,6.27
3230.37,6.47
3262.67,6.69
3295.30,6.92
3328.25,7.16
3361.53,7.39
3395.15,7.62
3429.10,7.83
3463.39,8.02
3498.03,8.17
3533.01,8.29
3568.34,8.38
3604.02,8.40
3640.06,8.37
3676.46,8.30
3713.22,8.17
3750.36,7.99
3787.86,7.79
3825.74,7.54
3864.00,7.28
3902.64,7.01
3941.66,6.73
3981.08,6.47
4020.89,6.21
4061.10,5.98
4101.71,5.79
4142.73,5.65
4184.15,5.54
4226.00,5.52
4268.26,5.53
4310.94,5.58
4354.05,5.66
4397.59,5.76
4441.56,5.87
4485.98,5.96
4530.84,6.03
4576.15,6.09
4621.91,6.11
4668.13,6.09
4714.81,6.05
4761.96,5.99
4809.58,5.88
4857.67,5.77
4906.25,5.64
4955.31,5.50
5004.87,5.36
5054.91,5.24
5105.46,5.13
5156.52,5.06
5208.08,5.01
5260.16,5.01
5312.77,5.06
5365.89,5.16
5419.55,5.30
5473.75,5.51
5528.49,5.76
5583.77,6.05
5639.61,6.40
5696.00,6.76
5752.96,7.12
5810.49,7.46
5868.60,7.76
5927.28,8.01
5986.56,8.15
6046.42,8.18
6106.89,8.11
6167.96,7.92
6229.64,7.57
6291.93,7.13
6354.85,6.59
6418.40,5.93
6482.58,5.24
6547.41,4.53
6612.88,3.83
6679.01,3.19
6745.80,2.61
6813.26,2.17
6881.39,1.84
6950.21,1.60
7019.71,1.47
7089.91,1.45
7160.81,1.50
7232.41,1.63
7304.74,1.84
7377.79,2.11
7451.56,2.43
7526.08,2.81
7601.34,3.20
7677.35,3.60
7754.13,3.97
7831.67,4.27
7909.98,4.51
7989.08,4.61
8068.98,4.57
8149.67,4.41
8231.16,4.09
8313.47,3.59
8396.61,2.98
8480.57,2.27
8565.38,1.44
8651.03,0.57
8737.54,-0.33
8824.92,-1.24
8913.17,-2.12
9002.30,-2.98
9092.32,-3.78
9183.25,-4.53
9275.08,-5.23
9367.83,-5.83
9461.51,-6.20
9556.12,-6.34
9651.68,-6.10
9748.20,-5.37
9845.68,-4.46
9944.14,-3.41
10043.58,-2.42
10144.02,-1.56
10245.46,-0.82
10347.91,-0.36
10451.39,-0.08
10555.91,0.04
10661.46,-0.09
10768.08,-0.39
10875.76,-0.80
10984.52,-1.35
11094.36,-1.93
11205.31,-2.50
11317.36,-3.01
11430.53,-3.35
11544.84,-3.55
11660.29,-3.62
11776.89,-3.50
11894.66,-3.33
12013.60,-3.12
12133.74,-2.92
12255.08,-2.78
12377.63,-2.70
12501.41,-2.75
12626.42,-2.94
12752.68,-3.23
12880.21,-3.66
13009.01,-4.22
13139.10,-4.87
13270.49,-5.58
13403.20,-6.36
13537.23,-7.14
13672.60,-7.90
13809.33,-8.60
13947.42,-9.27
14086.90,-9.93
14227.77,-10.61
14370.04,-11.37
14513.74,-12.21
14658.88,-13.16
14805.47,-14.21
14953.52,-15.24
15103.06,-16.20
15254.09,-16.69
15406.63,-16.80
15560.70,-16.50
15716.30,-15.80
15873.47,-15.04
16032.20,-14.26
16192.52,-13.50
16354.45,-12.75
16517.99,-11.98
16683.17,-11.11
16850.01,-10.11
17018.51,-9.01
17188.69,-7.80
17360.58,-6.63
17534.18,-5.56
17709.53,-4.65
17886.62,-4.06
18065.49,-3.67
18246.14,-3.50
18428.60,-3.68
18612.89,-4.00
18799.02,-4.45
18987.01,-4.99
19176.88,-5.51
19368.65,-5.98
19562.33,-6.32
19757.96,-6.54
19955.54,-6.72
