frequency,raw
20.00,13.61
20.20,13.60
20.40,13.59
20.61,13.58
20.81,13.55
21.02,13.53
21.23,13.50
21.44,13.48
21.66,13.46
21.87,13.44
22.09,13.42
22.31,13.40
22.54,13.38
22.76,13.36
22.99,13.34
23.22,13.33
23.45,13.31
23.69,13.30
23.92,13.29
24.16,13.28
24.40,13.26
24.65,13.25
24.89,13.23
25.14,13.21
25.39,13.18
25.65,13.15
25.91,13.11
26.16,13.07
26.43,13.03
26.69,13.00
26.96,12.97
27.23,12.96
27.50,12.94
27.77,12.93
28.05,12.92
28.33,12.91
28.62,12.89
28.90,12.86
29.19,12.82
29.48,12.78
29.78,12.73
30.08,12.69
30.38,12.64
30.68,12.60
30.99,12.57
31.30,12.53
31.61,12.50
31.93,12.48
32.24,12.45
32.57,12.42
32.89,12.39
33.22,12.36
33.55,12.33
33.89,12.30
34.23,12.26
34.57,12.23
34.92,12.19
35.27,12.16
35.62,12.12
35.97,12.09
36.33,12.06
36.70,12.02
37.06,11.99
37.43,11.95
37.81,11.91
38.19,11.87
38.57,11.83
38.95,11.79
39.34,11.75
39.74,11.71
40.14,11.68
40.54,11.64
40.94,11.61
41.35,11.57
41.76,11.53
42.18,11.49
42.60,11.45
43.03,11.41
43.46,11.37
43.90,11.33
44.33,11.29
44.78,11.26
45.23,11.22
45.68,11.18
46.13,11.14
46.60,11.09
47.06,11.05
47.53,11.01
48.01,10.96
48.49,10.92
48.97,10.88
49.46,10.83
49.96,10.79
50.46,10.74
50.96,10.70
51.47,10.65
51.99,10.60
52.51,10.55
53.03,10.50
53.56,10.45
54.10,10.40
54.64,10.35
55.18,10.30
55.74,10.25
56.29,10.20
56.86,10.15
57.42,10.10
58.00,10.04
58.58,9.99
59.16,9.94
59.76,9.88
60.35,9.83
60.96,9.77
61.57,9.72
62.18,9.66
62.80,9.61
63.43,9.55
64.07,9.49
64.71,9.44
65.35,9.38
66.01,9.32
66.67,9.26
67.33,9.21
68.01,9.15
68.69,9.09
69.37,9.03
70.07,8.97
70.77,8.91
71.48,8.86
72.19,8.80
72.91,8.74
73.64,8.68
74.38,8.62
75.12,8.56
75.87,8.50
76.63,8.44
77.40,8.38
78.17,8.32
78.95,8.26
79.74,8.20
80.54,8.14
81.35,8.08
82.16,8.02
82.98,7.96
83.81,7.90
84.65,7.84
85.50,7.78
86.35,7.72
87.22,7.66
88.09,7.60
88.97,7.54
89.86,7.48
90.76,7.41
91.66,7.34
92.58,7.26
93.51,7.19
94.44,7.12
95.39,7.05
96.34,6.99
97.30,6.92
98.28,6.85
99.26,6.78
100.25,6.70
101.25,6.63
102.27,6.56
103.29,6.48
104.32,6.41
105.37,6.34
106.42,6.26
107.48,6.18
108.56,6.11
109.64,6.03
110.74,5.95
111.85,5.87
112.97,5.79
114.10,5.71
115.24,5.63
116.39,5.56
117.55,5.48
118.73,5.42
119.92,5.36
121.12,5.32
122.33,5.28
123.55,5.26
124.79,5.23
126.03,5.20
127.29,5.18
128.57,5.16
129.85,5.13
131.15,5.10
132.46,5.07
133.79,5.03
135.12,4.98
136.48,4.92
137.84,4.86
139.22,4.79
140.61,4.73
142.02,4.66
143.44,4.59
144.87,4.52
146.32,4.45
147.78,4.38
149.26,4.31
150.75,4.24
152.26,4.18
153.78,4.12
155.32,4.05
156.88,3.99
158.44,3.93
160.03,3.87
161.63,3.81
163.24,3.75
164.88,3.68
166.53,3.62
168.19,3.56
169.87,3.50
171.57,3.43
173.29,3.37
175.02,3.31
176.77,3.25
178.54,3.19
180.32,3.13
182.13,3.07
183.95,3.01
185.79,2.95
187.65,2.89
189.52,2.83
191.42,2.77
193.33,2.72
195.27,2.66
197.22,2.60
199.19,2.54
201.18,2.48
203.19,2.43
205.23,2.37
207.28,2.31
209.35,2.25
211.44,2.19
213.56,2.13
215.69,2.08
217.85,2.02
220.03,1.97
222.23,1.92
224.45,1.87
226.70,1.82
228.96,1.77
231.25,1.72
233.57,1.67
235.90,1.62
238.26,1.57
240.64,1.52
243.05,1.47
245.48,1.41
247.93,1.36
250.41,1.31
252.92,1.25
255.45,1.20
258.00,1.14
260.58,1.09
263.19,1.04
265.82,0.99
268.48,0.94
271.16,0.89
273.87,0.84
276.61,0.79
279.38,0.75
282.17,0.70
284.99,0.65
287.84,0.61
290.72,0.56
293.63,0.52
296.57,0.47
299.53,0.43
302.53,0.38
305.55,0.34
308.61,0.29
311.69,0.25
314.81,0.21
317.96,0.16
321.14,0.12
324.35,0.08
327.59,0.03
330.87,-0.01
334.18,-0.05
337.52,-0.09
340.90,-0.13
344.30,-0.17
347.75,-0.21
351.23,-0.25
354.74,-0.29
358.28,-0.33
361.87,-0.37
365.49,-0.41
369.14,-0.44
372.83,-0.48
376.56,-0.52
380.33,-0.55
384.13,-0.58
387.97,-0.62
391.85,-0.65
395.77,-0.68
399.73,-0.71
403.72,-0.74
407.76,-0.78
411.84,-0.81
415.96,-0.84
420.12,-0.86
424.32,-0.89
428.56,-0.92
432.85,-0.94
437.18,-0.97
441.55,-0.99
445.96,-1.02
450.42,-1.04
454.93,-1.06
459.48,-1.08
464.07,-1.10
468.71,-1.13
473.40,-1.15
478.13,-1.17
482.91,-1.19
487.74,-1.21
492.62,-1.23
497.55,-1.25
502.52,-1.27
507.55,-1.29
512.62,-1.31
517.75,-1.33
522.93,-1.36
528.16,-1.38
533.44,-1.39
538.77,-1.41
544.16,-1.43
549.60,-1.45
555.10,-1.46
560.65,-1.47
566.25,-1.47
571.92,-1.48
577.64,-1.48
583.41,-1.49
589.25,-1.49
595.14,-1.50
601.09,-1.50
607.10,-1.50
613.17,-1.50
619.30,-1.50
625.50,-1.50
631.75,-1.49
638.07,-1.49
644.45,-1.48
650.89,-1.48
657.40,-1.47
663.98,-1.46
670.62,-1.45
677.32,-1.45
684.10,-1.44
690.94,-1.43
697.85,-1.41
704.83,-1.40
711.87,-1.39
718.99,-1.38
726.18,-1.36
733.44,-1.35
740.78,-1.33
748.19,-1.31
755.67,-1.29
763.23,-1.27
770.86,-1.25
778.57,-1.23
786.35,-1.20
794.22,-1.18
802.16,-1.15
810.18,-1.12
818.28,-1.09
826.46,-1.06
834.73,-1.02
843.08,-0.99
851.51,-0.95
860.02,-0.91
868.62,-0.86
877.31,-0.82
886.08,-0.77
894.94,-0.72
903.89,-0.66
912.93,-0.61
922.06,-0.55
931.28,-0.48
940.59,-0.42
950.00,-0.35
959.50,-0.29
969.09,-0.22
978.78,-0.15
988.57,-0.08
998.46,-0.01
1008.44,0.06
1018.53,0.14
1028.71,0.22
1039.00,0.30
1049.39,0.39
1059.88,0.47
1070.48,0.56
1081.19,0.65
1092.00,0.74
1102.92,0.82
1113.95,0.91
1125.09,1.00
1136.34,1.09
1147.70,1.18
1159.18,1.27
1170.77,1.36
1182.48,1.45
1194.30,1.54
1206.25,1.63
1218.31,1.72
1230.49,1.82
1242.80,1.91
1255.22,2.00
1267.78,2.09
1280.45,2.18
1293.26,2.27
1306.19,2.36
1319.25,2.44
1332.45,2.53
1345.77,2.61
1359.23,2.70
1372.82,2.78
1386.55,2.87
1400.41,2.96
1414.42,3.05
1428.56,3.13
1442.85,3.22
1457.28,3.30
1471.85,3.38
1486.57,3.45
1501.43,3.52
1516.45,3.59
1531.61,3.66
1546.93,3.72
1562.40,3.78
1578.02,3.83
1593.80,3.88
1609.74,3.93
1625.84,3.98
1642.10,4.02
1658.52,4.05
1675.10,4.09
1691.85,4.12
1708.77,4.14
1725.86,4.16
1743.12,4.17
1760.55,4.18
1778.15,4.18
1795.94,4.18
1813.90,4.18
1832.03,4.17
1850.36,4.15
1868.86,4.13
1887.55,4.11
1906.42,4.08
1925.49,4.06
1944.74,4.03
1964.19,3.99
1983.83,3.96
2003.67,3.92
2023.71,3.88
2043.94,3.83
2064.38,3.78
2085.03,3.73
2105.88,3.68
2126.94,3.62
2148.20,3.56
2169.69,3.50
2191.38,3.44
2213.30,3.38
2235.43,3.31
2257.78,3.24
2280.36,3.17
2303.17,3.10
2326.20,3.03
2349.46,2.96
2372.95,2.89
2396.68,2.82
2420.65,2.75
2444.86,2.67
2469.31,2.60
2494.00,2.52
2518.94,2.45
2544.13,2.37
2569.57,2.30
2595.27,2.23
2621.22,2.16
2647.43,2.10
2673.90,2.04
2700.64,1.98
2727.65,1.93
2754.93,1.87
2782.48,1.82
2810.30,1.78
2838.40,1.74
2866.79,1.70
2895.46,1.67
2924.41,1.64
2953.65,1.62
2983.19,1.60
3013.02,1.59
3043.15,1.58
3073.58,1.57
3104.32,1.58
3135.36,1.58
3166.72,1.60
3198.38,1.61
3230.37,1.64
3262.67,1.67
3295.30,1.70
3328.25,1.74
3361.53,1.78
3395.15,1.83
3429.10,1.89
3463.39,1.95
3498.03,2.01
3533.01,2.09
3568.34,2.18
3604.02,2.28
3640.06,2.38
3676.46,2.50
3713.22,2.62
3750.36,2.75
3787.86,2.89
3825.74,3.04
3864.00,3.20
3902.64,3.36
3941.66,3.53
3981.08,3.69
4020.89,3.83
4061.10,3.97
4101.71,4.07
4142.73,4.15
4184.15,4.21
4226.00,4.26
4268.26,4.34
4310.94,4.44
4354.05,4.66
4397.59,4.94
4441.56,5.27
4485.98,5.62
4530.84,5.96
4576.15,6.28
4621.91,6.59
4668.13,6.86
4714.81,7.11
4761.96,7.34
4809.58,7.54
4857.67,7.71
4906.25,7.84
4955.31,7.95
5004.87,8.03
5054.91,8.06
5105.46,8.07
5156.52,8.05
5208.08,7.99
5260.16,7.90
5312.77,7.79
5365.89,7.65
5419.55,7.49
5473.75,7.31
5528.49,7.13
5583.77,6.92
5639.61,6.72
5696.00,6.52
5752.96,6.32
5810.49,6.12
5868.60,5.94
5927.28,5.77
5986.56,5.61
6046.42,5.48
6106.89,5.35
6167.96,5.26
6229.64,5.18
6291.93,5.14
6354.85,5.12
6418.40,5.13
6482.58,5.17
6547.41,5.25
6612.88,5.35
6679.01,5.48
6745.80,5.66
6813.26,5.85
6881.39,6.09
6950.21,6.38
7019.71,6.70
7089.91,7.07
7160.81,7.51
7232.41,7.99
7304.74,8.50
7377.79,9.07
7451.56,9.64
7526.08,10.20
7601.34,10.74
7677.35,11.18
7754.13,11.58
7831.67,11.79
7909.98,11.91
7989.08,11.89
8068.98,11.68
8149.67,11.38
8231.16,10.97
8313.47,10.49
8396.61,9.98
8480.57,9.46
8565.38,8.97
8651.03,8.52
8737.54,8.11
8824.92,7.75
8913.17,7.44
9002.30,7.13
9092.32,6.83
9183.25,6.51
9275.08,6.14
9367.83,5.72
9461.51,5.20
9556.12,4.59
9651.68,3.90
9748.20,3.12
9845.68,2.24
9944.14,1.30
10043.58,0.32
10144.02,-0.69
10245.46,-1.70
10347.91,-2.67
10451.39,-3.59
10555.91,-4.36
10661.46,-5.02
10768.08,-5.59
10875.76,-6.09
10984.52,-6.57
11094.36,-7.01
11205.31,-7.41
11317.36,-7.73
11430.53,-8.03
11544.84,-8.33
11660.29,-8.62
11776.89,-8.92
11894.66,-9.17
12013.60,-9.42
12133.74,-9.62
12255.08,-9.73
12377.63,-9.78
12501.41,-9.75
12626.42,-9.59
12752.68,-9.33
12880.21,-8.95
13009.01,-8.51
13139.10,-8.07
13270.49,-7.55
13403.20,-7.03
13537.23,-6.52
13672.60,-6.06
13809.33,-5.67
13947.42,-5.47
14086.90,-5.54
14227.77,-5.75
14370.04,-6.15
14513.74,-6.75
14658.88,-7.53
14805.47,-8.34
14953.52,-9.17
15103.06,-9.96
15254.09,-10.72
15406.63,-11.33
15560.70,-11.84
15716.30,-12.21
15873.47,-12.35
16032.20,-12.37
16192.52,-12.17
16354.45,-11.88
16517.99,-11.56
16683.17,-11.28
16850.01,-11.12
17018.51,-11.06
17188.69,-11.19
17360.58,-11.41
17534.18,-11.70
17709.53,-12.06
17886.62,-12.47
18065.49,-12.93
18246.14,-13.42
18428.60,-13.92
18612.89,-14.39
18799.02,-14.78
18987.01,-15.03
19176.88,-15.06
19368.65,-14.97
19562.33,-14.78
19757.96,-14.55
19955.54,-14.32
