frequency,raw
20.00,16.97
20.20,16.94
20.40,16.91
20.61,16.88
20.81,16.80
21.02,16.72
21.23,16.62
21.44,16.52
21.66,16.42
21.87,16.32
22.09,16.22
22.31,16.11
22.54,15.98
22.76,15.83
22.99,15.65
23.22,15.47
23.45,15.30
23.69,15.19
23.92,15.15
24.16,15.17
24.40,15.28
24.65,15.42
24.89,15.55
25.14,15.64
25.39,15.68
25.65,15.70
25.91,15.73
26.16,15.86
26.43,16.08
26.69,16.40
26.96,16.79
27.23,17.14
27.50,17.43
27.77,17.56
28.05,17.61
28.33,17.63
28.62,17.72
28.90,18.04
29.19,18.52
29.48,19.18
29.78,19.83
30.08,20.37
30.38,20.75
30.68,20.77
30.99,20.59
31.30,20.18
31.61,19.45
31.93,18.62
32.24,17.72
32.57,16.91
32.89,16.28
33.22,15.79
33.55,15.48
33.89,15.23
34.23,14.99
34.57,14.75
34.92,14.51
35.27,14.29
35.62,14.09
35.97,13.92
36.33,13.78
36.70,13.66
37.06,13.58
37.43,13.54
37.81,13.51
38.19,13.50
38.57,13.49
38.95,13.50
39.34,13.52
39.74,13.56
40.14,13.60
40.54,13.65
40.94,13.66
41.35,13.64
41.76,13.58
42.18,13.48
42.60,13.37
43.03,13.25
43.46,13.13
43.90,13.01
44.33,12.89
44.78,12.77
45.23,12.67
45.68,12.58
46.13,12.51
46.60,12.46
47.06,12.43
47.53,12.40
48.01,12.38
48.49,12.35
48.97,12.32
49.46,12.28
49.96,12.25
50.46,12.21
50.96,12.17
51.47,12.11
51.99,12.03
52.51,11.93
53.03,11.80
53.56,11.67
54.10,11.54
54.64,11.42
55.18,11.32
55.74,11.23
56.29,11.18
56.86,11.15
57.42,11.14
58.00,11.13
58.58,11.12
59.16,11.09
59.76,11.03
60.35,10.94
60.96,10.84
61.57,10.73
62.18,10.61
62.80,10.50
63.43,10.40
64.07,10.31
64.71,10.23
65.35,10.15
66.01,10.08
66.67,10.01
67.33,9.94
68.01,9.86
68.69,9.78
69.37,9.68
70.07,9.58
70.77,9.47
71.48,9.38
72.19,9.29
72.91,9.23
73.64,9.18
74.38,9.15
75.12,9.14
75.87,9.13
76.63,9.13
77.40,9.13
78.17,9.12
78.95,9.11
79.74,9.05
80.54,8.97
81.35,8.85
82.16,8.71
82.98,8.56
83.81,8.43
84.65,8.31
85.50,8.25
86.35,8.23
87.22,8.25
88.09,8.31
88.97,8.35
89.86,8.37
90.76,8.30
91.66,8.16
92.58,7.97
93.51,7.73
94.44,7.47
95.39,7.22
96.34,6.99
97.30,6.82
98.28,6.68
99.26,6.58
100.25,6.52
101.25,6.46
102.27,6.41
103.29,6.34
104.32,6.26
105.37,6.17
106.42,6.08
107.48,6.01
108.56,5.93
109.64,5.87
110.74,5.81
111.85,5.75
112.97,5.70
114.10,5.67
115.24,5.64
116.39,5.62
117.55,5.60
118.73,5.56
119.92,5.51
121.12,5.43
122.33,5.33
123.55,5.22
124.79,5.11
126.03,5.01
127.29,4.94
128.57,4.93
129.85,5.01
131.15,5.14
132.46,5.31
133.79,5.48
135.12,5.63
136.48,5.74
137.84,5.78
139.22,5.77
140.61,5.73
142.02,5.64
143.44,5.55
144.87,5.44
146.32,5.33
147.78,5.22
149.26,5.11
150.75,5.00
152.26,4.90
153.78,4.81
155.32,4.72
156.88,4.65
158.44,4.58
160.03,4.52
161.63,4.45
163.24,4.38
164.88,4.30
166.53,4.22
168.19,4.14
169.87,4.06
171.57,3.98
173.29,3.90
175.02,3.82
176.77,3.73
178.54,3.64
180.32,3.56
182.13,3.48
183.95,3.40
185.79,3.33
187.65,3.25
189.52,3.18
191.42,3.10
193.33,3.02
195.27,2.95
197.22,2.87
199.19,2.80
201.18,2.73
203.19,2.66
205.23,2.60
207.28,2.55
209.35,2.51
211.44,2.46
213.56,2.41
215.69,2.35
217.85,2.30
220.03,2.24
222.23,2.18
224.45,2.13
226.70,2.08
228.96,2.02
231.25,1.95
233.57,1.88
235.90,1.80
238.26,1.72
240.64,1.64
243.05,1.56
245.48,1.50
247.93,1.44
250.41,1.39
252.92,1.35
255.45,1.30
258.00,1.25
260.58,1.20
263.19,1.14
265.82,1.07
268.48,1.00
271.16,0.94
273.87,0.88
276.61,0.83
279.38,0.79
282.17,0.75
284.99,0.71
287.84,0.67
290.72,0.62
293.63,0.58
296.57,0.54
299.53,0.50
302.53,0.46
305.55,0.42
308.61,0.38
311.69,0.33
314.81,0.28
317.96,0.23
321.14,0.18
324.35,0.12
327.59,0.07
330.87,0.01
334.18,-0.05
337.52,-0.10
340.90,-0.14
344.30,-0.18
347.75,-0.20
351.23,-0.23
354.74,-0.26
358.28,-0.30
361.87,-0.34
365.49,-0.39
369.14,-0.44
372.83,-0.48
376.56,-0.53
380.33,-0.57
384.13,-0.60
387.97,-0.64
391.85,-0.66
395.77,-0.68
399.73,-0.70
403.72,-0.71
407.76,-0.73
411.84,-0.74
415.96,-0.76
420.12,-0.79
424.32,-0.82
428.56,-0.86
432.85,-0.90
437.18,-0.94
441.55,-0.98
445.96,-1.01
450.42,-1.02
454.93,-1.04
459.48,-1.04
464.07,-1.04
468.71,-1.04
473.40,-1.04
478.13,-1.05
482.91,-1.06
487.74,-1.07
492.62,-1.08
497.55,-1.10
502.52,-1.12
507.55,-1.14
512.62,-1.16
517.75,-1.18
522.93,-1.21
528.16,-1.25
533.44,-1.28
538.77,-1.32
544.16,-1.36
549.60,-1.39
555.10,-1.42
560.65,-1.45
566.25,-1.48
571.92,-1.50
577.64,-1.51
583.41,-1.51
589.25,-1.51
595.14,-1.49
601.09,-1.48
607.10,-1.47
613.17,-1.46
619.30,-1.45
625.50,-1.45
631.75,-1.46
638.07,-1.46
644.45,-1.46
650.89,-1.46
657.40,-1.46
663.98,-1.45
670.62,-1.44
677.32,-1.44
684.10,-1.43
690.94,-1.43
697.85,-1.42
704.83,-1.41
711.87,-1.39
718.99,-1.38
726.18,-1.37
733.44,-1.36
740.78,-1.34
748.19,-1.33
755.67,-1.31
763.23,-1.29
770.86,-1.26
778.57,-1.24
786.35,-1.21
794.22,-1.18
802.16,-1.15
810.18,-1.13
818.28,-1.10
826.46,-1.07
834.73,-1.05
843.08,-1.02
851.51,-1.00
860.02,-0.97
868.62,-0.95
877.31,-0.93
886.08,-0.89
894.94,-0.85
903.89,-0.80
912.93,-0.74
922.06,-0.68
931.28,-0.61
940.59,-0.54
950.00,-0.46
959.50,-0.38
969.09,-0.29
978.78,-0.20
988.57,-0.11
998.46,-0.01
1008.44,0.08
1018.53,0.18
1028.71,0.28
1039.00,0.38
1049.39,0.48
1059.88,0.59
1070.48,0.69
1081.19,0.79
1092.00,0.89
1102.92,0.99
1113.95,1.09
1125.09,1.19
1136.34,1.30
1147.70,1.41
1159.18,1.53
1170.77,1.65
1182.48,1.78
1194.30,1.90
1206.25,2.02
1218.31,2.15
1230.49,2.28
1242.80,2.41
1255.22,2.54
1267.78,2.68
1280.45,2.83
1293.26,2.97
1306.19,3.11
1319.25,3.25
1332.45,3.39
1345.77,3.53
1359.23,3.67
1372.82,3.80
1386.55,3.94
1400.41,4.08
1414.42,4.22
1428.56,4.35
1442.85,4.49
1457.28,4.63
1471.85,4.77
1486.57,4.91
1501.43,5.05
1516.45,5.19
1531.61,5.33
1546.93,5.48
1562.40,5.62
1578.02,5.77
1593.80,5.91
1609.74,6.06
1625.84,6.21
1642.10,6.37
1658.52,6.52
1675.10,6.68
1691.85,6.84
1708.77,7.01
1725.86,7.18
1743.12,7.35
1760.55,7.53
1778.15,7.71
1795.94,7.90
1813.90,8.09
1832.03,8.29
1850.36,8.49
1868.86,8.70
1887.55,8.92
1906.42,9.14
1925.49,9.38
1944.74,9.62
1964.19,9.86
1983.83,10.11
2003.67,10.37
2023.71,10.62
2043.94,10.88
2064.38,11.14
2085.03,11.39
2105.88,11.65
2126.94,11.90
2148.20,12.15
2169.69,12.38
2191.38,12.62
2213.30,12.84
2235.43,13.04
2257.78,13.24
2280.36,13.42
2303.17,13.57
2326.20,13.71
2349.46,13.83
2372.95,13.92
2396.68,13.99
2420.65,14.05
2444.86,14.07
2469.31,14.07
2494.00,14.05
2518.94,14.00
2544.13,13.93
2569.57,13.85
2595.27,13.74
2621.22,13.61
2647.43,13.46
2673.90,13.30
2700.64,13.13
2727.65,12.95
2754.93,12.77
2782.48,12.59
2810.30,12.42
2838.40,12.25
2866.79,12.11
2895.46,11.98
2924.41,11.87
2953.65,11.79
2983.19,11.72
3013.02,11.67
3043.15,11.63
3073.58,11.60
3104.32,11.57
3135.36,11.54
3166.72,11.51
3198.38,11.49
3230.37,11.46
3262.67,11.44
3295.30,11.43
3328.25,11.42
3361.53,11.42
3395.15,11.44
3429.10,11.47
3463.39,11.51
3498.03,11.57
3533.01,11.65
3568.34,11.75
3604.02,11.87
3640.06,12.00
3676.46,12.15
3713.22,12.33
3750.36,12.52
3787.86,12.73
3825.74,12.95
3864.00,13.19
3902.64,13.43
3941.66,13.67
3981.08,13.90
4020.89,14.13
4061.10,14.33
4101.71,14.49
4142.73,14.61
4184.15,14.69
4226.00,14.69
4268.26,14.63
4310.94,14.52
4354.05,14.32
4397.59,14.06
4441.56,13.74
4485.98,13.37
4530.84,12.95
4576.15,12.50
4621.91,12.03
4668.13,11.53
4714.81,11.02
4761.96,10.49
4809.58,9.96
4857.67,9.41
4906.25,8.86
4955.31,8.30
5004.87,7.73
5054.91,7.17
5105.46,6.61
5156.52,6.06
5208.08,5.52
5260.16,4.99
5312.77,4.49
5365.89,4.00
5419.55,3.53
5473.75,3.08
5528.49,2.65
5583.77,2.24
5639.61,1.86
5696.00,1.49
5752.96,1.13
5810.49,0.80
5868.60,0.50
5927.28,0.21
5986.56,-0.04
6046.42,-0.27
6106.89,-0.47
6167.96,-0.63
6229.64,-0.77
6291.93,-0.88
6354.85,-0.97
6418.40,-1.01
6482.58,-1.02
6547.41,-1.00
6612.88,-0.90
6679.01,-0.77
6745.80,-0.59
6813.26,-0.36
6881.39,-0.07
6950.21,0.25
7019.71,0.63
7089.91,1.05
7160.81,1.52
7232.41,2.02
7304.74,2.58
7377.79,3.17
7451.56,3.78
7526.08,4.41
7601.34,5.03
7677.35,5.62
7754.13,6.11
7831.67,6.50
7909.98,6.77
7989.08,6.84
8068.98,6.71
8149.67,6.42
8231.16,5.92
8313.47,5.21
8396.61,4.38
8480.57,3.42
8565.38,2.33
8651.03,1.21
8737.54,0.05
8824.92,-1.09
8913.17,-2.20
9002.30,-3.27
9092.32,-4.25
9183.25,-5.16
9275.08,-6.01
9367.83,-6.78
9461.51,-7.47
9556.12,-8.11
9651.68,-8.70
9748.20,-9.24
9845.68,-9.75
9944.14,-10.23
10043.58,-10.66
10144.02,-11.06
10245.46,-11.42
10347.91,-11.72
10451.39,-12.00
10555.91,-12.25
10661.46,-12.47
10768.08,-12.66
10875.76,-12.83
10984.52,-12.96
11094.36,-13.04
11205.31,-13.07
11317.36,-13.05
11430.53,-12.93
11544.84,-12.75
11660.29,-12.53
11776.89,-12.22
11894.66,-11.89
12013.60,-11.53
12133.74,-11.11
12255.08,-10.60
12377.63,-10.02
12501.41,-9.27
12626.42,-8.33
12752.68,-7.24
12880.21,-5.97
13009.01,-4.55
13139.10,-3.07
13270.49,-1.56
13403.20,-0.14
13537.23,1.16
13672.60,2.32
13809.33,3.15
13947.42,3.73
14086.90,4.09
14227.77,4.09
14370.04,3.89
14513.74,3.55
14658.88,3.12
14805.47,2.79
14953.52,2.57
15103.06,2.53
15254.09,2.66
15406.63,2.80
15560.70,2.91
15716.30,2.77
15873.47,2.41
16032.20,1.84
16192.52,0.88
16354.45,-0.30
16517.99,-1.66
16683.17,-3.24
16850.01,-4.91
17018.51,-6.59
17188.69,-8.23
17360.58,-9.69
17534.18,-10.97
17709.53,-12.01
17886.62,-12.67
18065.49,-13.14
18246.14,-13.42
18428.60,-13.47
18612.89,-13.43
18799.02,-13.30
18987.01,-13.04
19176.88,-12.72
19368.65,-12.37
19562.33,-12.01
19757.96,-11.72
19955.54,-11.45
