frequency,raw,smoothed,error,error_smoothed,equalization,parametric_eq,fixed_band_eq,equalized_raw,equalized_smoothed,target
20.00,-10.40,-10.40,-11.60,-11.60,6.00,5.60,2.85,-4.40,-4.40,1.20
20.20,-10.33,-10.33,-11.56,-11.56,6.00,5.61,2.93,-4.33,-4.33,1.23
20.40,-10.26,-10.26,-11.52,-11.52,6.00,5.62,3.01,-4.26,-4.26,1.26
20.61,-10.19,-10.19,-11.47,-11.47,6.00,5.64,3.10,-4.19,-4.19,1.28
20.81,-10.11,-10.12,-11.42,-11.43,6.00,5.65,3.19,-4.11,-4.12,1.31
21.02,-10.04,-10.04,-11.38,-11.37,6.00,5.66,3.28,-4.04,-4.04,1.34
21.23,-9.97,-9.97,-11.32,-11.32,6.00,5.67,3.37,-3.97,-3.97,1.35
21.44,-9.89,-9.89,-11.25,-11.25,6.00,5.68,3.47,-3.89,-3.89,1.36
21.66,-9.81,-9.81,-11.18,-11.17,6.00,5.70,3.57,-3.81,-3.81,1.37
21.87,-9.73,-9.74,-11.10,-11.11,6.00,5.71,3.67,-3.73,-3.74,1.37
22.09,-9.69,-9.70,-11.07,-11.07,6.00,5.72,3.77,-3.69,-3.70,1.38
22.31,-9.69,-9.68,-11.07,-11.06,6.00,5.74,3.88,-3.69,-3.68,1.38
22.54,-9.68,-9.69,-11.06,-11.06,6.00,5.75,3.99,-3.68,-3.69,1.37
22.76,-9.68,-9.68,-11.06,-11.06,6.00,5.76,4.11,-3.68,-3.68,1.37
22.99,-9.68,-9.67,-11.04,-11.03,6.00,5.78,4.22,-3.68,-3.67,1.36
23.22,-9.63,-9.63,-10.99,-10.99,6.00,5.79,4.34,-3.63,-3.63,1.36
23.45,-9.57,-9.59,-10.93,-10.95,6.00,5.81,4.46,-3.57,-3.59,1.36
23.69,-9.52,-9.53,-10.88,-10.89,6.00,5.82,4.59,-3.52,-3.53,1.36
23.92,-9.47,-9.44,-10.83,-10.81,6.00,5.84,4.71,-3.47,-3.44,1.36
24.16,-9.33,-9.33,-10.70,-10.69,6.00,5.85,4.84,-3.33,-3.33,1.37
24.40,-9.16,-9.16,-10.53,-10.52,6.00,5.87,4.97,-3.16,-3.16,1.37
24.65,-8.99,-8.98,-10.35,-10.34,6.00,5.88,5.10,-2.99,-2.98,1.36
24.89,-8.82,-8.85,-10.18,-10.21,6.00,5.90,5.24,-2.82,-2.85,1.36
25.14,-8.77,-8.79,-10.13,-10.15,6.00,5.91,5.38,-2.77,-2.79,1.36
25.39,-8.81,-8.80,-10.17,-10.16,6.00,5.93,5.51,-2.81,-2.80,1.36
25.65,-8.85,-8.85,-10.20,-10.20,6.00,5.95,5.65,-2.85,-2.85,1.35
25.91,-8.89,-8.87,-10.23,-10.22,6.00,5.96,5.79,-2.89,-2.87,1.34
26.16,-8.86,-8.85,-10.20,-10.20,6.00,5.98,5.93,-2.86,-2.85,1.34
26.43,-8.79,-8.80,-10.13,-10.14,6.00,5.99,6.07,-2.79,-2.80,1.34
26.69,-8.73,-8.73,-10.07,-10.07,6.00,6.01,6.21,-2.73,-2.73,1.34
26.96,-8.66,-8.66,-10.00,-9.99,6.00,6.02,6.34,-2.66,-2.66,1.34
27.23,-8.57,-8.58,-9.91,-9.91,6.00,6.04,6.47,-2.57,-2.58,1.34
27.50,-8.48,-8.50,-9.82,-9.83,6.00,6.05,6.61,-2.48,-2.50,1.34
27.77,-8.39,-8.39,-9.71,-9.72,6.00,6.07,6.73,-2.39,-2.39,1.32
28.05,-8.28,-8.25,-9.60,-9.57,6.00,6.08,6.85,-2.28,-2.25,1.32
28.33,-8.05,-8.05,-9.36,-9.37,6.00,6.10,6.97,-2.05,-2.05,1.31
28.62,-7.82,-7.83,-9.13,-9.14,6.00,6.11,7.08,-1.82,-1.83,1.31
28.90,-7.59,-7.61,-8.90,-8.91,6.00,6.12,7.18,-1.59,-1.61,1.31
29.19,-7.43,-7.44,-8.73,-8.74,6.00,6.13,7.27,-1.43,-1.44,1.30
29.48,-7.30,-7.29,-8.60,-8.59,6.00,6.15,7.36,-1.30,-1.29,1.30
29.78,-7.17,-7.17,-8.47,-8.47,6.00,6.16,7.43,-1.17,-1.17,1.29
30.08,-7.05,-7.06,-8.34,-8.35,6.00,6.17,7.49,-1.05,-1.06,1.29
30.38,-6.94,-6.91,-8.22,-8.19,6.00,6.18,7.55,-0.94,-0.91,1.28
30.68,-6.83,-6.81,-8.11,-8.09,6.00,6.19,7.59,-0.83,-0.81,1.28
30.99,-6.71,-6.80,-7.98,-8.07,6.00,6.19,7.62,-0.71,-0.80,1.27
31.30,-6.90,-6.91,-8.16,-8.17,6.00,6.20,7.63,-0.90,-0.91,1.26
31.61,-7.10,-7.09,-8.36,-8.34,6.00,6.20,7.64,-1.10,-1.09,1.26
31.93,-7.30,-7.24,-8.55,-8.49,6.00,6.21,7.63,-1.30,-1.24,1.25
32.24,-7.29,-7.29,-8.53,-8.53,6.00,6.21,7.61,-1.29,-1.29,1.24
32.57,-7.20,-7.23,-8.44,-8.47,6.00,6.21,7.58,-1.20,-1.23,1.23
32.89,-7.12,-7.10,-8.35,-8.33,6.00,6.21,7.54,-1.12,-1.10,1.23
33.22,-6.95,-6.92,-8.17,-8.15,6.00,6.21,7.48,-0.95,-0.92,1.22
33.55,-6.74,-6.73,-7.95,-7.95,6.00,6.21,7.42,-0.74,-0.73,1.22
33.89,-6.53,-6.58,-7.73,-7.79,6.00,6.20,7.35,-0.53,-0.58,1.20
34.23,-6.50,-6.53,-7.70,-7.73,6.00,6.20,7.27,-0.50,-0.53,1.20
34.57,-6.56,-6.56,-7.75,-7.74,6.00,6.19,7.18,-0.56,-0.56,1.19
34.92,-6.63,-6.57,-7.80,-7.75,6.00,6.18,7.09,-0.63,-0.57,1.17
35.27,-6.52,-6.52,-7.69,-7.68,6.00,6.17,6.99,-0.52,-0.52,1.17
35.62,-6.35,-6.38,-7.51,-7.53,6.00,6.16,6.89,-0.35,-0.38,1.16
35.97,-6.19,-6.17,-7.33,-7.32,6.00,6.14,6.79,-0.19,-0.17,1.14
36.33,-5.98,-5.95,-7.12,-7.08,6.00,6.13,6.68,0.02,0.05,1.14
36.70,-5.77,-5.78,-6.90,-6.91,6.00,6.11,6.57,0.23,0.22,1.12
37.06,-5.63,-5.73,-6.74,-6.85,6.00,6.09,6.46,0.37,0.27,1.11
37.43,-5.80,-5.80,-6.91,-6.91,6.00,6.07,6.35,0.20,0.20,1.11
37.81,-5.97,-5.90,-7.06,-6.99,6.00,6.05,6.24,0.03,0.10,1.09
38.19,-5.97,-5.92,-7.05,-7.00,6.00,6.02,6.13,0.03,0.08,1.08
38.57,-5.82,-5.84,-6.89,-6.90,6.00,5.99,6.03,0.18,0.16,1.07
38.95,-5.67,-5.73,-6.73,-6.78,6.00,5.96,5.92,0.33,0.27,1.06
39.34,-5.67,-5.67,-6.71,-6.71,6.00,5.93,5.82,0.33,0.33,1.04
39.74,-5.69,-5.68,-6.72,-6.71,6.00,5.90,5.71,0.31,0.32,1.03
40.14,-5.71,-5.73,-6.73,-6.75,6.00,5.87,5.61,0.29,0.27,1.02
40.54,-5.74,-5.75,-6.75,-6.76,6.00,5.83,5.52,0.26,0.25,1.01
40.94,-5.77,-5.69,-6.77,-6.69,6.00,5.80,5.42,0.23,0.31,1.00
41.35,-5.58,-5.55,-6.57,-6.54,6.02,5.76,5.33,0.44,0.46,0.99
41.76,-5.35,-5.41,-6.33,-6.39,6.03,5.72,5.25,0.68,0.62,0.98
42.18,-5.28,-5.36,-6.25,-6.33,6.02,5.68,5.16,0.74,0.66,0.97
42.60,-5.41,-5.39,-6.37,-6.35,5.99,5.64,5.08,0.58,0.60,0.96
43.03,-5.52,-5.43,-6.47,-6.38,5.95,5.60,5.01,0.43,0.52,0.95
43.46,-5.35,-5.37,-6.28,-6.30,5.92,5.55,4.93,0.56,0.54,0.93
43.90,-5.18,-5.16,-6.09,-6.07,5.88,5.51,4.87,0.70,0.72,0.90
44.33,-4.93,-4.89,-5.81,-5.77,5.85,5.46,4.80,0.92,0.96,0.89
44.78,-4.65,-4.74,-5.52,-5.61,5.78,5.41,4.74,1.13,1.04,0.87
45.23,-4.65,-4.76,-5.50,-5.61,5.70,5.37,4.68,1.05,0.94,0.85
45.68,-4.93,-4.86,-5.76,-5.69,5.63,5.32,4.63,0.71,0.77,0.83
46.13,-5.05,-4.90,-5.86,-5.71,5.58,5.27,4.58,0.53,0.68,0.81
46.60,-4.78,-4.81,-5.59,-5.61,5.52,5.22,4.53,0.74,0.71,0.80
47.06,-4.54,-4.61,-5.32,-5.40,5.46,5.17,4.48,0.92,0.85,0.78
47.53,-4.50,-4.48,-5.26,-5.24,5.39,5.11,4.44,0.89,0.92,0.76
48.01,-4.45,-4.55,-5.20,-5.30,5.31,5.06,4.41,0.86,0.75,0.75
48.49,-4.63,-4.65,-5.35,-5.37,5.21,5.01,4.37,0.58,0.57,0.72
48.97,-4.80,-4.55,-5.49,-5.24,5.13,4.96,4.34,0.33,0.59,0.69
49.46,-4.39,-4.37,-5.05,-5.03,5.07,4.90,4.31,0.69,0.71,0.66
49.96,-3.95,-4.25,-4.58,-4.89,5.04,4.85,4.28,1.09,0.79,0.63
50.46,-4.23,-4.25,-4.84,-4.86,5.02,4.79,4.26,0.80,0.78,0.62
50.96,-4.58,-4.36,-5.17,-4.95,4.99,4.74,4.24,0.41,0.63,0.59
51.47,-4.47,-4.46,-5.03,-5.03,4.92,4.68,4.22,0.45,0.46,0.56
51.99,-4.31,-4.45,-4.85,-4.99,4.84,4.63,4.20,0.53,0.39,0.54
52.51,-4.38,-4.38,-4.90,-4.90,4.78,4.57,4.18,0.40,0.40,0.52
53.03,-4.42,-4.30,-4.92,-4.79,4.72,4.52,4.17,0.30,0.42,0.50
53.56,-4.16,-4.17,-4.63,-4.65,4.66,4.46,4.15,0.50,0.49,0.47
54.10,-3.93,-3.99,-4.38,-4.44,4.59,4.40,4.14,0.66,0.60,0.45
54.64,-3.88,-3.89,-4.30,-4.31,4.51,4.35,4.12,0.62,0.62,0.42
55.18,-3.89,-3.93,-4.29,-4.32,4.42,4.29,4.11,0.53,0.49,0.40
55.74,-4.05,-4.02,-4.42,-4.40,4.34,4.23,4.09,0.29,0.31,0.37
56.29,-4.10,-4.08,-4.45,-4.42,4.26,4.18,4.08,0.16,0.18,0.35
56.86,-4.06,-4.02,-4.38,-4.34,4.18,4.12,4.06,0.12,0.16,0.32
57.42,-3.88,-3.87,-4.17,-4.17,4.12,4.06,4.04,0.24,0.25,0.29
58.00,-3.64,-3.72,-3.92,-4.00,4.06,4.00,4.02,0.42,0.34,0.28
58.58,-3.61,-3.59,-3.87,-3.85,3.99,3.95,4.00,0.38,0.40,0.26
59.16,-3.57,-3.52,-3.80,-3.75,3.89,3.89,3.97,0.32,0.37,0.23
59.76,-3.48,-3.56,-3.69,-3.77,3.78,3.83,3.94,0.30,0.23,0.21
60.35,-3.54,-3.59,-3.72,-3.77,3.69,3.77,3.91,0.15,0.10,0.18
60.96,-3.71,-3.57,-3.87,-3.72,3.61,3.71,3.88,-0.10,0.03,0.16
61.57,-3.50,-3.51,-3.62,-3.63,3.53,3.65,3.84,0.03,0.02,0.12
62.18,-3.32,-3.39,-3.40,-3.47,3.47,3.59,3.80,0.15,0.08,0.08
62.80,-3.26,-3.23,-3.32,-3.29,3.41,3.54,3.76,0.15,0.18,0.06
63.43,-3.20,-3.21,-3.22,-3.23,3.34,3.48,3.71,0.14,0.14,0.02
64.07,-3.16,-3.24,-3.16,-3.24,3.26,3.42,3.66,0.10,0.02,-0.00
64.71,-3.32,-3.22,-3.29,-3.19,3.18,3.36,3.60,-0.14,-0.04,-0.03
65.35,-3.27,-3.21,-3.21,-3.16,3.09,3.30,3.54,-0.18,-0.12,-0.06
66.01,-3.04,-3.21,-2.96,-3.13,3.02,3.24,3.48,-0.03,-0.20,-0.09
66.67,-3.20,-3.13,-3.09,-3.01,2.95,3.18,3.41,-0.25,-0.18,-0.11
67.33,-3.13,-3.01,-2.98,-2.86,2.88,3.11,3.34,-0.25,-0.13,-0.14
68.01,-2.83,-2.89,-2.66,-2.72,2.79,3.05,3.27,-0.04,-0.10,-0.17
68.69,-2.71,-2.83,-2.51,-2.62,2.71,2.99,3.20,-0.01,-0.12,-0.21
69.37,-2.82,-2.84,-2.58,-2.60,2.64,2.93,3.12,-0.18,-0.20,-0.24
70.07,-3.06,-2.88,-2.79,-2.61,2.59,2.87,3.04,-0.47,-0.28,-0.27
70.77,-2.82,-2.86,-2.53,-2.56,2.56,2.81,2.96,-0.27,-0.30,-0.29
71.48,-2.74,-2.82,-2.41,-2.49,2.52,2.74,2.88,-0.22,-0.30,-0.33
72.19,-2.78,-2.82,-2.42,-2.45,2.48,2.68,2.80,-0.30,-0.34,-0.36
72.91,-2.94,-2.90,-2.54,-2.50,2.42,2.62,2.71,-0.52,-0.48,-0.40
73.64,-2.96,-2.90,-2.52,-2.46,2.35,2.55,2.63,-0.61,-0.55,-0.44
74.38,-2.82,-2.81,-2.36,-2.34,2.25,2.49,2.54,-0.57,-0.56,-0.46
75.12,-2.58,-2.66,-2.08,-2.16,2.16,2.42,2.46,-0.42,-0.50,-0.50
75.87,-2.55,-2.53,-2.02,-2.00,2.08,2.36,2.37,-0.47,-0.46,-0.53
76.63,-2.48,-2.47,-1.92,-1.90,2.01,2.29,2.28,-0.48,-0.46,-0.56
77.40,-2.44,-2.44,-1.85,-1.85,1.93,2.23,2.20,-0.51,-0.51,-0.59
78.17,-2.44,-2.44,-1.81,-1.81,1.86,2.16,2.11,-0.58,-0.57,-0.64
78.95,-2.44,-2.49,-1.78,-1.83,1.81,2.10,2.02,-0.63,-0.68,-0.66
79.74,-2.57,-2.56,-1.88,-1.87,1.78,2.03,1.94,-0.79,-0.78,-0.69
80.54,-2.63,-2.57,-1.91,-1.84,1.76,1.96,1.85,-0.88,-0.81,-0.73
81.35,-2.54,-2.50,-1.78,-1.74,1.72,1.90,1.76,-0.82,-0.78,-0.76
82.16,-2.34,-2.43,-1.54,-1.64,1.67,1.83,1.68,-0.67,-0.76,-0.80
82.98,-2.34,-2.40,-1.52,-1.57,1.60,1.76,1.60,-0.74,-0.80,-0.82
83.81,-2.49,-2.40,-1.62,-1.54,1.53,1.69,1.51,-0.96,-0.87,-0.87
84.65,-2.43,-2.40,-1.52,-1.50,1.46,1.62,1.43,-0.97,-0.94,-0.91
85.50,-2.31,-2.34,-1.38,-1.40,1.40,1.55,1.35,-0.91,-0.94,-0.94
86.35,-2.24,-2.25,-1.27,-1.27,1.34,1.49,1.27,-0.90,-0.91,-0.97
87.22,-2.23,-2.24,-1.22,-1.22,1.29,1.42,1.19,-0.94,-0.94,-1.01
88.09,-2.24,-2.30,-1.19,-1.25,1.24,1.35,1.11,-1.00,-1.05,-1.06
88.97,-2.38,-2.33,-1.29,-1.24,1.19,1.28,1.03,-1.19,-1.14,-1.09
89.86,-2.39,-2.31,-1.26,-1.18,1.13,1.21,0.95,-1.26,-1.18,-1.13
90.76,-2.19,-2.25,-1.01,-1.07,1.05,1.14,0.88,-1.14,-1.19,-1.18
91.66,-2.13,-2.19,-0.92,-0.97,0.97,1.07,0.80,-1.16,-1.22,-1.21
92.58,-2.16,-2.18,-0.90,-0.92,0.88,1.00,0.72,-1.28,-1.30,-1.27
93.51,-2.23,-2.13,-0.93,-0.83,0.79,0.93,0.65,-1.44,-1.34,-1.30
94.44,-2.07,-2.02,-0.73,-0.68,0.69,0.85,0.58,-1.38,-1.33,-1.34
95.39,-1.80,-1.92,-0.41,-0.53,0.61,0.78,0.50,-1.19,-1.31,-1.39
96.34,-1.84,-1.87,-0.40,-0.43,0.54,0.71,0.43,-1.30,-1.33,-1.44
97.30,-1.96,-1.93,-0.47,-0.44,0.48,0.64,0.36,-1.48,-1.45,-1.49
98.28,-2.03,-2.00,-0.50,-0.47,0.42,0.57,0.29,-1.61,-1.58,-1.53
99.26,-2.05,-2.00,-0.47,-0.42,0.36,0.50,0.22,-1.69,-1.64,-1.58
100.25,-1.91,-1.98,-0.29,-0.36,0.31,0.43,0.15,-1.60,-1.67,-1.62
101.25,-1.93,-1.96,-0.26,-0.29,0.26,0.36,0.08,-1.67,-1.70,-1.67
102.27,-2.00,-1.93,-0.28,-0.21,0.21,0.29,0.01,-1.79,-1.71,-1.72
103.29,-1.90,-1.91,-0.13,-0.14,0.16,0.22,-0.06,-1.74,-1.75,-1.77
104.32,-1.84,-1.88,-0.03,-0.07,0.10,0.15,-0.12,-1.75,-1.78,-1.81
105.37,-1.86,-1.86,-0.01,0.00,0.04,0.08,-0.19,-1.82,-1.82,-1.86
106.42,-1.89,-1.88,0.01,0.02,-0.00,0.01,-0.25,-1.90,-1.88,-1.90
107.48,-1.91,-1.91,0.04,0.04,-0.04,-0.06,-0.32,-1.95,-1.96,-1.95
108.56,-1.94,-1.94,0.06,0.06,-0.08,-0.13,-0.38,-2.02,-2.02,-2.00
109.64,-1.96,-1.96,0.09,0.09,-0.10,-0.20,-0.44,-2.06,-2.06,-2.05
110.74,-1.98,-1.98,0.12,0.12,-0.13,-0.27,-0.50,-2.11,-2.10,-2.10
111.85,-1.99,-1.99,0.15,0.16,-0.15,-0.34,-0.56,-2.14,-2.14,-2.14
112.97,-2.00,-2.00,0.21,0.20,-0.18,-0.40,-0.61,-2.18,-2.18,-2.21
114.10,-2.01,-2.01,0.24,0.24,-0.23,-0.47,-0.67,-2.24,-2.24,-2.25
115.24,-2.02,-2.05,0.29,0.26,-0.28,-0.54,-0.72,-2.30,-2.33,-2.31
116.39,-2.08,-2.07,0.28,0.29,-0.34,-0.60,-0.78,-2.42,-2.41,-2.36
117.55,-2.11,-2.05,0.31,0.37,-0.40,-0.67,-0.83,-2.51,-2.45,-2.42
118.73,-1.97,-1.99,0.50,0.48,-0.47,-0.74,-0.88,-2.44,-2.46,-2.47
119.92,-1.89,-1.93,0.62,0.59,-0.54,-0.80,-0.93,-2.43,-2.47,-2.51
121.12,-1.89,-1.91,0.67,0.66,-0.62,-0.86,-0.97,-2.51,-2.53,-2.57
122.33,-1.94,-1.90,0.68,0.71,-0.71,-0.93,-1.02,-2.65,-2.61,-2.62
123.55,-1.92,-1.88,0.74,0.78,-0.80,-0.99,-1.06,-2.72,-2.69,-2.66
124.79,-1.79,-1.85,0.92,0.86,-0.89,-1.05,-1.10,-2.68,-2.74,-2.71
126.03,-1.79,-1.78,0.97,0.98,-0.98,-1.12,-1.14,-2.77,-2.76,-2.76
127.29,-1.76,-1.73,1.05,1.08,-1.07,-1.18,-1.17,-2.83,-2.80,-2.81
128.57,-1.68,-1.71,1.19,1.16,-1.16,-1.24,-1.21,-2.84,-2.87,-2.87
129.85,-1.66,-1.67,1.26,1.25,-1.25,-1.30,-1.24,-2.91,-2.92,-2.92
131.15,-1.66,-1.62,1.31,1.35,-1.34,-1.36,-1.28,-3.00,-2.96,-2.97
132.46,-1.57,-1.58,1.44,1.43,-1.42,-1.41,-1.31,-2.99,-3.00,-3.01
133.79,-1.52,-1.54,1.53,1.52,-1.50,-1.47,-1.34,-3.02,-3.04,-3.05
135.12,-1.52,-1.52,1.59,1.58,-1.57,-1.53,-1.36,-3.09,-3.10,-3.11
136.48,-1.53,-1.52,1.61,1.62,-1.64,-1.59,-1.39,-3.17,-3.17,-3.14
137.84,-1.53,-1.50,1.66,1.69,-1.71,-1.64,-1.42,-3.24,-3.22,-3.19
139.22,-1.46,-1.47,1.78,1.77,-1.77,-1.70,-1.44,-3.23,-3.24,-3.24
140.61,-1.41,-1.43,1.87,1.85,-1.83,-1.75,-1.47,-3.24,-3.26,-3.28
142.02,-1.41,-1.41,1.89,1.91,-1.88,-1.80,-1.49,-3.29,-3.28,-3.31
143.44,-1.41,-1.41,1.94,1.94,-1.92,-1.86,-1.52,-3.33,-3.33,-3.35
144.87,-1.41,-1.41,1.98,1.97,-1.97,-1.91,-1.54,-3.38,-3.38,-3.39
146.32,-1.41,-1.41,2.02,2.01,-2.02,-1.96,-1.57,-3.43,-3.43,-3.43
147.78,-1.41,-1.41,2.04,2.04,-2.07,-2.01,-1.59,-3.48,-3.48,-3.46
149.26,-1.41,-1.40,2.08,2.09,-2.12,-2.06,-1.62,-3.53,-3.52,-3.49
150.75,-1.39,-1.38,2.15,2.16,-2.17,-2.12,-1.65,-3.56,-3.55,-3.54
152.26,-1.34,-1.35,2.24,2.23,-2.22,-2.17,-1.67,-3.56,-3.57,-3.58
153.78,-1.31,-1.32,2.30,2.29,-2.28,-2.21,-1.70,-3.59,-3.60,-3.61
155.32,-1.31,-1.30,2.35,2.35,-2.33,-2.26,-1.73,-3.64,-3.64,-3.66
156.88,-1.30,-1.30,2.39,2.39,-2.38,-2.31,-1.76,-3.69,-3.68,-3.69
158.44,-1.30,-1.30,2.43,2.43,-2.43,-2.36,-1.79,-3.73,-3.73,-3.73
160.03,-1.30,-1.30,2.48,2.47,-2.48,-2.41,-1.82,-3.78,-3.78,-3.78
161.63,-1.31,-1.31,2.51,2.51,-2.51,-2.46,-1.85,-3.82,-3.82,-3.82
163.24,-1.31,-1.31,2.55,2.54,-2.55,-2.50,-1.89,-3.86,-3.86,-3.86
164.88,-1.31,-1.31,2.58,2.58,-2.58,-2.55,-1.92,-3.89,-3.89,-3.89
166.53,-1.32,-1.32,2.61,2.61,-2.61,-2.60,-1.96,-3.93,-3.92,-3.93
168.19,-1.32,-1.32,2.64,2.64,-2.63,-2.64,-2.00,-3.95,-3.96,-3.97
169.87,-1.33,-1.33,2.67,2.67,-2.67,-2.69,-2.04,-4.00,-4.00,-4.00
171.57,-1.34,-1.34,2.70,2.70,-2.70,-2.74,-2.08,-4.04,-4.04,-4.04
173.29,-1.34,-1.35,2.74,2.73,-2.74,-2.78,-2.13,-4.08,-4.09,-4.08
175.02,-1.35,-1.35,2.76,2.77,-2.79,-2.83,-2.17,-4.14,-4.14,-4.11
176.77,-1.35,-1.34,2.81,2.82,-2.84,-2.87,-2.22,-4.19,-4.18,-4.16
178.54,-1.31,-1.31,2.89,2.88,-2.89,-2.92,-2.27,-4.20,-4.20,-4.20
180.32,-1.27,-1.28,2.96,2.96,-2.95,-2.97,-2.32,-4.22,-4.22,-4.23
182.13,-1.24,-1.25,3.03,3.02,-3.01,-3.01,-2.38,-4.25,-4.25,-4.27
183.95,-1.23,-1.23,3.08,3.08,-3.06,-3.06,-2.43,-4.29,-4.29,-4.31
185.79,-1.22,-1.22,3.12,3.13,-3.12,-3.10,-2.49,-4.34,-4.34,-4.34
187.65,-1.20,-1.21,3.18,3.17,-3.17,-3.14,-2.55,-4.37,-4.38,-4.38
189.52,-1.19,-1.19,3.22,3.22,-3.22,-3.19,-2.61,-4.41,-4.41,-4.41
191.42,-1.18,-1.18,3.26,3.26,-3.27,-3.23,-2.67,-4.45,-4.45,-4.44
193.33,-1.16,-1.16,3.31,3.30,-3.31,-3.27,-2.73,-4.47,-4.48,-4.47
195.27,-1.15,-1.15,3.35,3.35,-3.35,-3.31,-2.79,-4.50,-4.50,-4.50
197.22,-1.13,-1.13,3.39,3.40,-3.39,-3.35,-2.86,-4.52,-4.52,-4.52
199.19,-1.12,-1.12,3.44,3.43,-3.43,-3.39,-2.92,-4.55,-4.55,-4.56
201.18,-1.11,-1.11,3.47,3.47,-3.46,-3.42,-2.99,-4.57,-4.57,-4.58
203.19,-1.11,-1.11,3.48,3.49,-3.49,-3.46,-3.06,-4.60,-4.60,-4.59
205.23,-1.11,-1.11,3.51,3.50,-3.51,-3.49,-3.13,-4.62,-4.62,-4.62
207.28,-1.11,-1.11,3.51,3.52,-3.53,-3.51,-3.20,-4.64,-4.64,-4.63
209.35,-1.11,-1.11,3.54,3.54,-3.54,-3.54,-3.26,-4.65,-4.65,-4.65
211.44,-1.11,-1.11,3.56,3.55,-3.55,-3.56,-3.33,-4.66,-4.67,-4.67
213.56,-1.12,-1.12,3.56,3.56,-3.56,-3.57,-3.40,-4.68,-4.68,-4.68
215.69,-1.12,-1.12,3.56,3.56,-3.57,-3.59,-3.47,-4.69,-4.69,-4.68
217.85,-1.12,-1.13,3.57,3.57,-3.57,-3.60,-3.53,-4.69,-4.70,-4.69
220.03,-1.13,-1.13,3.58,3.58,-3.58,-3.61,-3.59,-4.71,-4.70,-4.71
222.23,-1.13,-1.13,3.59,3.58,-3.58,-3.61,-3.65,-4.71,-4.71,-4.72
224.45,-1.13,-1.13,3.58,3.58,-3.58,-3.61,-3.71,-4.72,-4.72,-4.71
226.70,-1.13,-1.13,3.58,3.58,-3.59,-3.61,-3.77,-4.72,-4.72,-4.71
228.96,-1.13,-1.13,3.58,3.58,-3.59,-3.60,-3.82,-4.72,-4.72,-4.71
231.25,-1.12,-1.12,3.58,3.58,-3.59,-3.60,-3.87,-4.71,-4.71,-4.70
233.57,-1.11,-1.11,3.59,3.60,-3.58,-3.59,-3.91,-4.69,-4.69,-4.70
235.90,-1.10,-1.11,3.60,3.59,-3.57,-3.58,-3.95,-4.67,-4.68,-4.70
238.26,-1.10,-1.12,3.60,3.58,-3.57,-3.57,-3.99,-4.67,-4.69,-4.70
240.64,-1.15,-1.14,3.54,3.56,-3.57,-3.55,-4.02,-4.72,-4.70,-4.69
243.05,-1.15,-1.14,3.53,3.54,-3.56,-3.54,-4.04,-4.71,-4.70,-4.68
245.48,-1.13,-1.13,3.54,3.54,-3.56,-3.53,-4.06,-4.69,-4.69,-4.67
247.93,-1.10,-1.11,3.55,3.55,-3.56,-3.51,-4.08,-4.66,-4.66,-4.66
250.41,-1.08,-1.08,3.57,3.56,-3.55,-3.50,-4.08,-4.63,-4.64,-4.65
252.92,-1.07,-1.07,3.56,3.56,-3.55,-3.48,-4.08,-4.62,-4.62,-4.63
255.45,-1.05,-1.06,3.56,3.56,-3.55,-3.47,-4.08,-4.60,-4.60,-4.61
258.00,-1.05,-1.05,3.54,3.55,-3.54,-3.45,-4.07,-4.59,-4.59,-4.59
260.58,-1.04,-1.04,3.54,3.54,-3.53,-3.44,-4.06,-4.57,-4.58,-4.58
263.19,-1.04,-1.04,3.52,3.52,-3.52,-3.42,-4.04,-4.56,-4.56,-4.56
265.82,-1.04,-1.04,3.50,3.50,-3.50,-3.41,-4.01,-4.54,-4.54,-4.54
268.48,-1.04,-1.04,3.48,3.48,-3.48,-3.39,-3.98,-4.52,-4.53,-4.52
271.16,-1.05,-1.05,3.45,3.45,-3.46,-3.38,-3.95,-4.51,-4.51,-4.50
273.87,-1.05,-1.05,3.43,3.43,-3.44,-3.36,-3.91,-4.49,-4.49,-4.48
276.61,-1.05,-1.05,3.41,3.41,-3.41,-3.35,-3.87,-4.46,-4.47,-4.46
279.38,-1.05,-1.05,3.39,3.40,-3.38,-3.33,-3.83,-4.44,-4.43,-4.44
282.17,-1.05,-1.05,3.38,3.38,-3.36,-3.32,-3.78,-4.41,-4.40,-4.43
284.99,-1.04,-1.06,3.36,3.34,-3.33,-3.31,-3.73,-4.37,-4.39,-4.40
287.84,-1.09,-1.09,3.30,3.30,-3.30,-3.29,-3.68,-4.39,-4.39,-4.39
290.72,-1.13,-1.11,3.23,3.26,-3.28,-3.28,-3.63,-4.41,-4.38,-4.36
293.63,-1.11,-1.12,3.24,3.23,-3.25,-3.26,-3.57,-4.36,-4.37,-4.35
296.57,-1.10,-1.11,3.22,3.22,-3.23,-3.25,-3.52,-4.33,-4.34,-4.32
299.53,-1.09,-1.09,3.21,3.21,-3.21,-3.23,-3.46,-4.30,-4.30,-4.31
302.53,-1.08,-1.08,3.21,3.20,-3.20,-3.21,-3.41,-4.28,-4.28,-4.29
305.55,-1.07,-1.07,3.18,3.19,-3.19,-3.20,-3.35,-4.26,-4.25,-4.25
308.61,-1.06,-1.06,3.18,3.17,-3.17,-3.18,-3.30,-4.23,-4.23,-4.24
311.69,-1.05,-1.05,3.16,3.16,-3.14,-3.16,-3.24,-4.19,-4.19,-4.21
314.81,-1.05,-1.04,3.12,3.14,-3.12,-3.14,-3.19,-4.17,-4.16,-4.17
317.96,-1.04,-1.06,3.12,3.10,-3.09,-3.13,-3.14,-4.13,-4.15,-4.16
321.14,-1.09,-1.09,3.05,3.05,-3.05,-3.11,-3.09,-4.14,-4.14,-4.14
324.35,-1.14,-1.12,2.98,3.00,-3.01,-3.08,-3.04,-4.16,-4.14,-4.12
327.59,-1.15,-1.15,2.94,2.95,-2.97,-3.06,-2.99,-4.12,-4.12,-4.10
330.87,-1.15,-1.15,2.93,2.93,-2.93,-3.04,-2.94,-4.08,-4.08,-4.08
334.18,-1.15,-1.15,2.91,2.91,-2.88,-3.01,-2.90,-4.03,-4.04,-4.06
337.52,-1.15,-1.18,2.89,2.86,-2.84,-2.99,-2.86,-3.99,-4.02,-4.04
340.90,-1.22,-1.21,2.80,2.81,-2.81,-2.96,-2.82,-4.03,-4.02,-4.02
344.30,-1.26,-1.24,2.74,2.76,-2.77,-2.93,-2.78,-4.03,-4.02,-4.00
347.75,-1.26,-1.26,2.72,2.72,-2.74,-2.90,-2.74,-4.00,-4.00,-3.98
351.23,-1.25,-1.26,2.71,2.70,-2.72,-2.87,-2.71,-3.97,-3.98,-3.96
354.74,-1.25,-1.25,2.69,2.69,-2.70,-2.84,-2.67,-3.95,-3.95,-3.95
358.28,-1.25,-1.25,2.68,2.68,-2.68,-2.80,-2.64,-3.93,-3.93,-3.93
361.87,-1.24,-1.24,2.67,2.67,-2.67,-2.77,-2.62,-3.91,-3.92,-3.91
365.49,-1.24,-1.24,2.66,2.66,-2.66,-2.73,-2.59,-3.91,-3.90,-3.90
369.14,-1.23,-1.23,2.66,2.66,-2.65,-2.69,-2.57,-3.88,-3.88,-3.89
372.83,-1.22,-1.22,2.65,2.66,-2.64,-2.65,-2.54,-3.86,-3.85,-3.88
376.56,-1.21,-1.22,2.66,2.64,-2.62,-2.61,-2.52,-3.83,-3.84,-3.87
380.33,-1.23,-1.24,2.61,2.60,-2.60,-2.56,-2.51,-3.83,-3.84,-3.84
384.13,-1.28,-1.27,2.55,2.57,-2.58,-2.52,-2.49,-3.86,-3.84,-3.83
387.97,-1.29,-1.29,2.53,2.53,-2.55,-2.48,-2.48,-3.84,-3.84,-3.82
391.85,-1.29,-1.30,2.52,2.52,-2.53,-2.44,-2.46,-3.82,-3.83,-3.81
395.77,-1.29,-1.29,2.50,2.51,-2.51,-2.39,-2.45,-3.80,-3.80,-3.80
399.73,-1.29,-1.29,2.50,2.50,-2.49,-2.36,-2.44,-3.79,-3.78,-3.79
403.72,-1.29,-1.29,2.49,2.49,-2.48,-2.32,-2.44,-3.77,-3.77,-3.78
407.76,-1.29,-1.29,2.48,2.47,-2.47,-2.29,-2.43,-3.76,-3.76,-3.77
411.84,-1.30,-1.30,2.45,2.46,-2.45,-2.26,-2.43,-3.75,-3.75,-3.75
415.96,-1.30,-1.29,2.44,2.45,-2.43,-2.24,-2.42,-3.73,-3.73,-3.74
420.12,-1.30,-1.30,2.43,2.43,-2.41,-2.22,-2.42,-3.71,-3.71,-3.73
424.32,-1.29,-1.32,2.43,2.41,-2.39,-2.21,-2.42,-3.68,-3.71,-3.72
428.56,-1.35,-1.34,2.36,2.38,-2.38,-2.21,-2.42,-3.73,-3.71,-3.71
432.85,-1.36,-1.35,2.35,2.36,-2.37,-2.21,-2.42,-3.73,-3.72,-3.71
437.18,-1.34,-1.35,2.36,2.35,-2.37,-2.22,-2.42,-3.71,-3.72,-3.70
441.55,-1.31,-1.31,2.37,2.37,-2.39,-2.23,-2.42,-3.70,-3.70,-3.68
445.96,-1.26,-1.27,2.41,2.40,-2.42,-2.25,-2.42,-3.68,-3.69,-3.67
