frequency,raw,error,smoothed,error_smoothed,equalization,parametric_eq,fixed_band_eq,equalized_raw,equalized_smoothed,target
20.00,5.96,-2.32,5.95,-2.32,2.25,2.28,0.21,8.21,8.20,8.27
20.20,6.02,-2.25,6.02,-2.24,2.22,2.23,0.22,8.23,8.24,8.26
20.40,6.08,-2.17,6.09,-2.17,2.18,2.18,0.23,8.26,8.27,8.25
20.61,6.13,-2.12,6.14,-2.10,2.14,2.13,0.23,8.28,8.29,8.25
20.81,6.20,-2.03,6.20,-2.04,2.11,2.09,0.24,8.30,8.30,8.23
21.02,6.26,-1.97,6.24,-1.99,2.07,2.04,0.25,8.32,8.30,8.23
21.23,6.25,-1.97,6.25,-1.98,2.03,1.99,0.26,8.27,8.28,8.22
21.44,6.24,-1.99,6.24,-1.98,1.99,1.94,0.27,8.23,8.23,8.23
21.66,6.23,-1.99,6.22,-2.00,1.97,1.89,0.28,8.20,8.19,8.22
21.87,6.22,-1.99,6.23,-1.99,1.94,1.84,0.29,8.16,8.17,8.21
22.09,6.25,-1.95,6.26,-1.94,1.91,1.79,0.30,8.16,8.17,8.20
22.31,6.32,-1.88,6.31,-1.88,1.86,1.75,0.32,8.18,8.17,8.20
22.54,6.39,-1.79,6.39,-1.80,1.80,1.70,0.33,8.19,8.18,8.19
22.76,6.47,-1.72,6.47,-1.72,1.71,1.65,0.34,8.18,8.18,8.19
22.99,6.55,-1.63,6.55,-1.63,1.62,1.60,0.35,8.17,8.17,8.18
23.22,6.64,-1.53,6.64,-1.53,1.53,1.55,0.36,8.16,8.16,8.17
23.45,6.74,-1.44,6.74,-1.43,1.44,1.50,0.38,8.17,8.17,8.17
23.69,6.82,-1.34,6.83,-1.33,1.36,1.45,0.39,8.18,8.19,8.16
23.92,6.93,-1.24,6.91,-1.26,1.28,1.40,0.40,8.21,8.20,8.16
24.16,6.98,-1.20,6.97,-1.20,1.22,1.35,0.41,8.20,8.19,8.17
24.40,7.01,-1.18,7.01,-1.16,1.18,1.30,0.43,8.19,8.19,8.18
24.65,7.04,-1.15,7.04,-1.14,1.15,1.25,0.44,8.19,8.19,8.18
24.89,7.08,-1.10,7.07,-1.11,1.13,1.20,0.45,8.20,8.20,8.18
25.14,7.10,-1.08,7.10,-1.08,1.10,1.15,0.47,8.20,8.20,8.18
25.39,7.12,-1.06,7.11,-1.07,1.06,1.10,0.48,8.17,8.17,8.18
25.65,7.14,-1.04,7.12,-1.06,0.99,1.05,0.49,8.13,8.12,8.18
25.91,7.15,-1.04,7.17,-1.01,0.92,1.00,0.50,8.06,8.09,8.19
26.16,7.26,-0.94,7.27,-0.92,0.84,0.95,0.52,8.09,8.11,8.20
26.43,7.42,-0.77,7.43,-0.77,0.76,0.90,0.53,8.19,8.19,8.20
26.69,7.59,-0.61,7.59,-0.60,0.70,0.85,0.54,8.29,8.30,8.19
26.96,7.74,-0.45,7.70,-0.50,0.65,0.80,0.55,8.39,8.34,8.19
27.23,7.73,-0.47,7.72,-0.48,0.59,0.75,0.56,8.32,8.31,8.19
27.50,7.66,-0.53,7.66,-0.53,0.54,0.69,0.56,8.19,8.20,8.19
27.77,7.60,-0.60,7.60,-0.59,0.48,0.64,0.57,8.08,8.09,8.20
28.05,7.57,-0.63,7.61,-0.59,0.44,0.59,0.58,8.01,8.05,8.20
28.33,7.70,-0.49,7.69,-0.50,0.40,0.54,0.58,8.10,8.10,8.19
28.62,7.82,-0.36,7.82,-0.37,0.37,0.49,0.58,8.19,8.19,8.19
28.90,7.97,-0.23,7.94,-0.25,0.33,0.44,0.58,8.29,8.27,8.20
29.19,8.01,-0.19,8.00,-0.19,0.29,0.39,0.58,8.29,8.29,8.19
29.48,8.01,-0.19,8.02,-0.18,0.25,0.34,0.58,8.26,8.27,8.19
29.78,8.00,-0.19,8.00,-0.19,0.23,0.29,0.58,8.23,8.23,8.19
30.08,7.99,-0.21,7.98,-0.21,0.22,0.24,0.57,8.21,8.20,8.20
30.38,7.95,-0.24,7.93,-0.25,0.22,0.19,0.56,8.17,8.15,8.19
30.68,7.91,-0.27,7.90,-0.28,0.21,0.14,0.55,8.12,8.11,8.18
30.99,7.87,-0.31,7.91,-0.27,0.18,0.10,0.53,8.05,8.09,8.17
31.30,7.96,-0.20,7.96,-0.20,0.14,0.05,0.52,8.10,8.10,8.16
31.61,8.07,-0.09,8.06,-0.10,0.08,-0.00,0.50,8.14,8.13,8.16
31.93,8.17,0.03,8.16,0.01,0.02,-0.05,0.48,8.19,8.18,8.15
32.24,8.24,0.09,8.24,0.10,-0.03,-0.10,0.45,8.20,8.21,8.15
32.57,8.30,0.16,8.30,0.17,-0.08,-0.15,0.43,8.22,8.23,8.13
32.89,8.35,0.21,8.33,0.20,-0.12,-0.20,0.40,8.23,8.21,8.13
33.22,8.33,0.20,8.31,0.18,-0.16,-0.25,0.37,8.17,8.15,8.13
33.55,8.27,0.14,8.26,0.13,-0.19,-0.30,0.34,8.08,8.07,8.13
33.89,8.21,0.07,8.24,0.12,-0.22,-0.34,0.30,7.98,8.02,8.13
34.23,8.28,0.15,8.29,0.17,-0.26,-0.39,0.27,8.02,8.03,8.12
34.57,8.41,0.29,8.40,0.28,-0.31,-0.44,0.23,8.10,8.09,8.12
34.92,8.53,0.42,8.51,0.39,-0.36,-0.49,0.19,8.18,8.15,8.12
35.27,8.60,0.47,8.59,0.48,-0.41,-0.53,0.14,8.18,8.18,8.12
35.62,8.63,0.52,8.64,0.53,-0.47,-0.58,0.10,8.16,8.17,8.11
35.97,8.67,0.56,8.66,0.55,-0.51,-0.63,0.06,8.15,8.14,8.11
36.33,8.67,0.57,8.67,0.58,-0.55,-0.68,0.01,8.12,8.12,8.09
36.70,8.67,0.59,8.67,0.59,-0.59,-0.72,-0.04,8.08,8.08,8.08
37.06,8.67,0.60,8.65,0.59,-0.63,-0.77,-0.09,8.04,8.02,8.07
37.43,8.65,0.60,8.64,0.59,-0.67,-0.81,-0.14,7.97,7.97,8.04
37.81,8.64,0.61,8.66,0.63,-0.72,-0.86,-0.19,7.92,7.94,8.03
38.19,8.71,0.70,8.74,0.74,-0.76,-0.91,-0.24,7.94,7.98,8.00
38.57,8.86,0.88,8.86,0.88,-0.81,-0.95,-0.30,8.04,8.04,7.98
38.95,9.01,1.05,8.93,0.98,-0.87,-1.00,-0.35,8.14,8.06,7.95
39.34,8.93,1.01,8.92,0.99,-0.93,-1.04,-0.41,8.01,7.99,7.92
39.74,8.83,0.92,8.86,0.96,-0.99,-1.08,-0.47,7.84,7.87,7.91
40.14,8.79,0.91,8.83,0.95,-1.03,-1.13,-0.52,7.75,7.79,7.88
40.54,8.87,1.01,8.86,1.00,-1.06,-1.17,-0.58,7.81,7.80,7.86
40.94,8.96,1.13,8.92,1.09,-1.07,-1.22,-0.64,7.89,7.85,7.83
41.35,8.97,1.15,8.97,1.16,-1.08,-1.26,-0.70,7.88,7.89,7.81
41.76,8.97,1.19,8.96,1.18,-1.11,-1.30,-0.76,7.85,7.85,7.78
42.18,8.94,1.17,8.91,1.15,-1.16,-1.35,-0.83,7.77,7.75,7.76
42.60,8.88,1.13,8.88,1.14,-1.23,-1.39,-0.89,7.65,7.65,7.75
43.03,8.84,1.12,8.91,1.19,-1.29,-1.43,-0.95,7.55,7.62,7.72
43.46,9.00,1.30,8.99,1.30,-1.34,-1.47,-1.02,7.66,7.65,7.69
43.90,9.15,1.48,9.11,1.44,-1.39,-1.51,-1.08,7.76,7.71,7.68
44.33,9.20,1.55,9.19,1.54,-1.45,-1.56,-1.15,7.75,7.74,7.65
44.78,9.20,1.58,9.21,1.58,-1.51,-1.60,-1.22,7.69,7.70,7.62
45.23,9.19,1.57,9.19,1.59,-1.57,-1.64,-1.28,7.62,7.63,7.61
45.68,9.18,1.60,9.18,1.60,-1.62,-1.68,-1.35,7.56,7.56,7.57
46.13,9.17,1.63,9.16,1.62,-1.66,-1.72,-1.42,7.50,7.50,7.54
46.60,9.16,1.65,9.16,1.65,-1.70,-1.76,-1.49,7.46,7.46,7.51
47.06,9.17,1.69,9.18,1.71,-1.74,-1.80,-1.56,7.43,7.45,7.48
47.53,9.22,1.77,9.22,1.78,-1.78,-1.84,-1.63,7.43,7.44,7.45
48.01,9.28,1.88,9.25,1.85,-1.84,-1.88,-1.71,7.44,7.42,7.40
48.49,9.28,1.92,9.28,1.92,-1.89,-1.91,-1.78,7.38,7.39,7.36
48.97,9.28,1.96,9.28,1.96,-1.94,-1.95,-1.85,7.33,7.34,7.32
49.46,9.28,1.99,9.28,2.00,-1.99,-1.99,-1.93,7.29,7.29,7.29
49.96,9.28,2.05,9.28,2.05,-2.03,-2.03,-2.00,7.25,7.25,7.23
50.46,9.28,2.08,9.28,2.08,-2.07,-2.07,-2.07,7.21,7.21,7.19
50.96,9.28,2.11,9.25,2.09,-2.11,-2.10,-2.15,7.17,7.15,7.16
51.47,9.24,2.11,9.23,2.11,-2.15,-2.14,-2.22,7.09,7.08,7.13
51.99,9.20,2.11,9.25,2.16,-2.20,-2.18,-2.30,7.00,7.05,7.09
52.51,9.29,2.23,9.28,2.23,-2.25,-2.21,-2.37,7.04,7.03,7.05
53.03,9.38,2.35,9.34,2.32,-2.30,-2.25,-2.44,7.07,7.03,7.03
53.56,9.38,2.39,9.38,2.40,-2.36,-2.29,-2.51,7.02,7.02,6.98
54.10,9.38,2.44,9.38,2.44,-2.42,-2.32,-2.59,6.96,6.97,6.94
54.64,9.38,2.47,9.38,2.48,-2.47,-2.36,-2.66,6.91,6.91,6.90
55.18,9.38,2.52,9.38,2.52,-2.52,-2.39,-2.72,6.86,6.86,6.86
55.74,9.38,2.56,9.38,2.55,-2.56,-2.43,-2.79,6.82,6.82,6.82
56.29,9.38,2.58,9.38,2.59,-2.59,-2.46,-2.85,6.79,6.79,6.79
56.86,9.38,2.61,9.38,2.62,-2.62,-2.50,-2.92,6.76,6.76,6.77
57.42,9.38,2.66,9.38,2.65,-2.64,-2.53,-2.98,6.73,6.73,6.72
58.00,9.38,2.68,9.38,2.68,-2.67,-2.56,-3.03,6.70,6.70,6.70
58.58,9.38,2.70,9.38,2.70,-2.70,-2.60,-3.09,6.67,6.67,6.68
59.16,9.38,2.73,9.38,2.73,-2.74,-2.63,-3.14,6.64,6.64,6.65
59.76,9.38,2.76,9.38,2.76,-2.77,-2.67,-3.18,6.60,6.60,6.62
60.35,9.38,2.81,9.38,2.81,-2.82,-2.70,-3.23,6.56,6.56,6.57
60.96,9.38,2.85,9.38,2.85,-2.86,-2.73,-3.27,6.52,6.52,6.52
61.57,9.38,2.91,9.38,2.91,-2.91,-2.77,-3.30,6.47,6.47,6.47
62.18,9.38,2.96,9.38,2.96,-2.95,-2.80,-3.34,6.43,6.43,6.42
62.80,9.38,3.01,9.38,3.01,-3.00,-2.83,-3.36,6.38,6.38,6.36
63.43,9.38,3.06,9.38,3.06,-3.05,-2.87,-3.39,6.33,6.33,6.32
64.07,9.38,3.09,9.38,3.10,-3.10,-2.90,-3.41,6.27,6.28,6.28
64.71,9.38,3.14,9.36,3.13,-3.15,-2.93,-3.43,6.22,6.21,6.23
65.35,9.37,3.17,9.36,3.17,-3.20,-2.96,-3.44,6.17,6.17,6.20
66.01,9.34,3.19,9.38,3.23,-3.23,-3.00,-3.45,6.11,6.15,6.15
66.67,9.43,3.31,9.41,3.29,-3.26,-3.03,-3.46,6.17,6.15,6.12
67.33,9.44,3.37,9.41,3.34,-3.28,-3.06,-3.46,6.15,6.12,6.06
68.01,9.38,3.36,9.37,3.35,-3.31,-3.09,-3.47,6.07,6.06,6.02
68.69,9.28,3.31,9.29,3.32,-3.34,-3.13,-3.46,5.94,5.96,5.97
69.37,9.23,3.29,9.25,3.32,-3.37,-3.16,-3.46,5.86,5.88,5.94
70.07,9.24,3.35,9.24,3.35,-3.40,-3.19,-3.46,5.84,5.84,5.88
70.77,9.27,3.43,9.25,3.41,-3.43,-3.22,-3.45,5.83,5.82,5.84
71.48,9.28,3.48,9.27,3.48,-3.47,-3.25,-3.45,5.81,5.81,5.80
72.19,9.28,3.54,9.28,3.54,-3.51,-3.29,-3.44,5.76,5.77,5.74
72.91,9.28,3.58,9.28,3.58,-3.57,-3.32,-3.43,5.71,5.71,5.69
73.64,9.28,3.63,9.28,3.63,-3.63,-3.35,-3.42,5.65,5.65,5.65
74.38,9.28,3.67,9.27,3.67,-3.68,-3.38,-3.42,5.59,5.59,5.61
75.12,9.28,3.72,9.27,3.71,-3.73,-3.41,-3.41,5.55,5.54,5.56
75.87,9.28,3.75,9.29,3.76,-3.76,-3.45,-3.40,5.51,5.52,5.53
76.63,9.30,3.81,9.31,3.82,-3.79,-3.48,-3.40,5.51,5.52,5.49
77.40,9.33,3.87,9.31,3.85,-3.81,-3.51,-3.40,5.52,5.50,5.46
78.17,9.32,3.90,9.28,3.86,-3.83,-3.54,-3.39,5.49,5.45,5.41
78.95,9.19,3.79,9.23,3.84,-3.85,-3.57,-3.39,5.34,5.38,5.39
79.74,9.18,3.82,9.19,3.83,-3.86,-3.61,-3.39,5.31,5.32,5.36
80.54,9.18,3.85,9.16,3.84,-3.88,-3.64,-3.40,5.29,5.28,5.32
81.35,9.18,3.89,9.17,3.88,-3.91,-3.67,-3.40,5.27,5.26,5.29
82.16,9.17,3.91,9.17,3.91,-3.93,-3.70,-3.41,5.24,5.24,5.26
82.98,9.17,3.94,9.19,3.96,-3.95,-3.73,-3.42,5.21,5.23,5.22
83.81,9.21,4.02,9.20,4.01,-3.98,-3.76,-3.43,5.23,5.22,5.18
84.65,9.21,4.06,9.18,4.03,-4.00,-3.79,-3.44,5.21,5.18,5.15
85.50,9.14,4.04,9.14,4.04,-4.01,-3.83,-3.46,5.13,5.13,5.10
86.35,9.07,4.00,9.11,4.04,-4.02,-3.86,-3.48,5.05,5.09,5.07
87.22,9.08,4.04,9.05,4.02,-4.03,-3.89,-3.50,5.05,5.02,5.04
88.09,9.05,4.05,9.00,4.01,-4.04,-3.92,-3.53,5.00,4.96,4.99
88.97,8.92,3.95,8.97,4.01,-4.06,-3.95,-3.56,4.86,4.91,4.96
89.86,8.95,4.04,8.95,4.03,-4.08,-3.98,-3.59,4.87,4.87,4.91
90.76,8.98,4.10,8.97,4.10,-4.10,-4.01,-3.62,4.88,4.87,4.88
91.66,9.00,4.17,9.01,4.18,-4.13,-4.04,-3.66,4.87,4.88,4.82
92.58,9.03,4.24,9.00,4.21,-4.17,-4.07,-3.70,4.86,4.83,4.79
93.51,8.97,4.22,8.96,4.22,-4.21,-4.10,-3.74,4.76,4.75,4.74
94.44,8.89,4.19,8.92,4.22,-4.24,-4.12,-3.78,4.64,4.67,4.70
95.39,8.88,4.24,8.88,4.24,-4.27,-4.15,-3.83,4.60,4.61,4.64
96.34,8.88,4.29,8.87,4.28,-4.29,-4.18,-3.88,4.58,4.58,4.58
97.30,8.87,4.34,8.86,4.33,-4.30,-4.21,-3.93,4.56,4.55,4.53
98.28,8.83,4.35,8.82,4.35,-4.31,-4.23,-3.98,4.51,4.51,4.47
99.26,8.75,4.34,8.76,4.35,-4.34,-4.26,-4.03,4.41,4.42,4.40
100.25,8.71,4.36,8.69,4.34,-4.36,-4.28,-4.09,4.35,4.33,4.35
101.25,8.61,4.31,8.63,4.34,-4.38,-4.31,-4.15,4.23,4.25,4.30
102.27,8.60,4.35,8.60,4.36,-4.39,-4.33,-4.21,4.20,4.21,4.24
103.29,8.59,4.40,8.58,4.40,-4.39,-4.36,-4.27,4.19,4.19,4.18
104.32,8.58,4.44,8.58,4.45,-4.40,-4.38,-4.33,4.18,4.19,4.14
105.37,8.56,4.48,8.53,4.46,-4.40,-4.40,-4.39,4.16,4.13,4.08
106.42,8.47,4.45,8.45,4.43,-4.41,-4.42,-4.45,4.06,4.04,4.02
107.48,8.34,4.38,8.35,4.39,-4.42,-4.44,-4.51,3.92,3.93,3.95
108.56,8.25,4.33,8.27,4.36,-4.42,-4.46,-4.57,3.83,3.85,3.91
109.64,8.23,4.37,8.24,4.38,-4.42,-4.48,-4.63,3.81,3.82,3.86
110.74,8.24,4.44,8.23,4.43,-4.41,-4.50,-4.69,3.82,3.82,3.80
111.85,8.25,4.49,8.22,4.46,-4.41,-4.51,-4.75,3.83,3.80,3.75
112.97,8.17,4.46,8.16,4.45,-4.42,-4.53,-4.80,3.74,3.74,3.71
114.10,8.08,4.42,8.08,4.43,-4.44,-4.54,-4.85,3.64,3.64,3.66
115.24,8.00,4.39,8.02,4.42,-4.46,-4.55,-4.89,3.54,3.56,3.60
116.39,8.00,4.45,8.00,4.45,-4.48,-4.57,-4.94,3.52,3.53,3.55
117.55,8.02,4.50,7.99,4.49,-4.49,-4.58,-4.98,3.53,3.50,3.51
118.73,8.00,4.54,7.98,4.51,-4.50,-4.59,-5.01,3.50,3.48,3.46
119.92,7.92,4.49,7.95,4.52,-4.51,-4.59,-5.04,3.41,3.44,3.42
121.12,7.92,4.52,7.92,4.53,-4.52,-4.60,-5.06,3.40,3.40,3.40
122.33,7.91,4.55,7.89,4.54,-4.53,-4.61,-5.08,3.37,3.36,3.35
123.55,7.87,4.55,7.86,4.54,-4.54,-4.61,-5.09,3.33,3.32,3.32
124.79,7.82,4.53,7.81,4.53,-4.53,-4.62,-5.10,3.28,3.28,3.29
126.03,7.75,4.50,7.77,4.52,-4.53,-4.62,-5.10,3.22,3.24,3.25
127.29,7.75,4.54,7.74,4.53,-4.53,-4.62,-5.10,3.22,3.21,3.21
128.57,7.72,4.55,7.70,4.53,-4.53,-4.62,-5.09,3.18,3.16,3.17
129.85,7.66,4.53,7.66,4.53,-4.54,-4.62,-5.07,3.12,3.12,3.13
131.15,7.60,4.51,7.61,4.52,-4.54,-4.62,-5.05,3.05,3.07,3.09
132.46,7.58,4.53,7.58,4.53,-4.55,-4.61,-5.02,3.03,3.03,3.05
133.79,7.58,4.57,7.58,4.57,-4.55,-4.61,-4.99,3.02,3.03,3.01
135.12,7.58,4.60,7.56,4.58,-4.56,-4.61,-4.96,3.02,3.00,2.97
136.48,7.56,4.61,7.52,4.58,-4.56,-4.60,-4.92,2.99,2.96,2.95
137.84,7.43,4.51,7.46,4.55,-4.56,-4.59,-4.87,2.86,2.89,2.91
139.22,7.40,4.54,7.42,4.54,-4.56,-4.59,-4.83,2.83,2.85,2.86
140.61,7.39,4.55,7.39,4.56,-4.56,-4.58,-4.78,2.82,2.83,2.84
142.02,7.40,4.60,7.36,4.57,-4.56,-4.57,-4.73,2.84,2.80,2.79
143.44,7.32,4.57,7.31,4.55,-4.55,-4.57,-4.68,2.77,2.76,2.75
144.87,7.22,4.50,7.25,4.53,-4.54,-4.56,-4.62,2.68,2.71,2.72
146.32,7.20,4.51,7.21,4.53,-4.53,-4.55,-4.57,2.67,2.68,2.69
147.78,7.21,4.56,7.18,4.53,-4.52,-4.54,-4.52,2.69,2.66,2.65
149.26,7.16,4.54,7.13,4.51,-4.50,-4.54,-4.46,2.65,2.62,2.61
150.75,7.03,4.46,7.07,4.49,-4.48,-4.53,-4.41,2.54,2.58,2.56
152.26,6.99,4.45,7.00,4.47,-4.47,-4.52,-4.35,2.52,2.54,2.54
153.78,6.99,4.48,6.95,4.45,-4.46,-4.51,-4.30,2.52,2.49,2.50
155.32,6.92,4.45,6.91,4.44,-4.46,-4.51,-4.25,2.46,2.45,2.47
156.88,6.84,4.41,6.85,4.42,-4.45,-4.50,-4.20,2.39,2.40,2.42
158.44,6.79,4.41,6.81,4.43,-4.44,-4.49,-4.15,2.34,2.36,2.38
160.03,6.79,4.45,6.79,4.45,-4.44,-4.49,-4.11,2.34,2.35,2.34
161.63,6.81,4.51,6.77,4.48,-4.45,-4.48,-4.06,2.36,2.32,2.30
163.24,6.73,4.48,6.72,4.47,-4.46,-4.47,-4.02,2.27,2.26,2.24
164.88,6.65,4.44,6.65,4.45,-4.46,-4.46,-3.98,2.19,2.19,2.21
166.53,6.57,4.41,6.60,4.44,-4.46,-4.45,-3.95,2.11,2.14,2.16
168.19,6.57,4.45,6.57,4.45,-4.45,-4.44,-3.91,2.11,2.11,2.12
169.87,6.58,4.51,6.53,4.46,-4.44,-4.43,-3.88,2.13,2.09,2.07
171.57,6.47,4.44,6.47,4.45,-4.42,-4.42,-3.86,2.04,2.05,2.02
173.29,6.38,4.40,6.39,4.41,-4.41,-4.41,-3.83,1.97,1.98,1.98
175.02,6.31,4.36,6.31,4.37,-4.39,-4.40,-3.81,1.92,1.93,1.94
176.77,6.25,4.35,6.26,4.36,-4.37,-4.39,-3.79,1.88,1.89,1.90
178.54,6.24,4.38,6.20,4.34,-4.35,-4.38,-3.77,1.89,1.85,1.85
180.32,6.13,4.32,6.14,4.32,-4.33,-4.36,-3.76,1.80,1.81,1.81
182.13,6.06,4.28,6.09,4.31,-4.31,-4.35,-3.75,1.75,1.77,1.78
183.95,6.06,4.31,6.04,4.29,-4.30,-4.33,-3.74,1.75,1.73,1.75
185.79,6.01,4.30,6.00,4.29,-4.30,-4.32,-3.74,1.71,1.70,1.71
187.65,5.97,4.29,5.96,4.29,-4.30,-4.30,-3.74,1.67,1.67,1.67
189.52,5.91,4.27,5.93,4.29,-4.29,-4.28,-3.74,1.61,1.64,1.63
191.42,5.91,4.29,5.91,4.30,-4.29,-4.27,-3.74,1.62,1.62,1.62
193.33,5.91,4.33,5.87,4.30,-4.29,-4.25,-3.75,1.62,1.59,1.58
195.27,5.82,4.28,5.83,4.29,-4.28,-4.23,-3.76,1.54,1.55,1.54
197.22,5.76,4.25,5.77,4.27,-4.26,-4.21,-3.77,1.50,1.51,1.50
199.19,5.72,4.24,5.71,4.24,-4.24,-4.19,-3.78,1.48,1.47,1.47
201.18,5.68,4.24,5.67,4.22,-4.22,-4.17,-3.79,1.46,1.45,1.44
203.19,5.61,4.19,5.61,4.20,-4.19,-4.15,-3.81,1.41,1.42,1.41
205.23,5.55,4.16,5.55,4.16,-4.17,-4.12,-3.83,1.38,1.38,1.39
207.28,5.49,4.12,5.48,4.12,-4.14,-4.10,-3.84,1.34,1.34,1.36
209.35,5.42,4.09,5.43,4.10,-4.12,-4.08,-3.86,1.30,1.31,1.33
211.44,5.38,4.08,5.39,4.10,-4.09,-4.05,-3.88,1.29,1.31,1.30
213.56,5.37,4.09,5.34,4.07,-4.06,-4.03,-3.90,1.30,1.28,1.27
215.69,5.32,4.08,5.29,4.04,-4.03,-4.00,-3.92,1.28,1.25,1.24
217.85,5.18,3.96,5.23,4.02,-4.00,-3.97,-3.94,1.17,1.22,1.22
220.03,5.16,3.98,5.15,3.97,-3.97,-3.95,-3.95,1.18,1.18,1.17
222.23,5.12,3.96,5.07,3.92,-3.93,-3.92,-3.97,1.18,1.14,1.15
224.45,5.00,3.86,5.03,3.90,-3.89,-3.89,-3.98,1.10,1.14,1.13
226.70,4.95,3.83,4.96,3.85,-3.85,-3.86,-4.00,1.10,1.12,1.11
228.96,4.95,3.84,4.89,3.79,-3.80,-3.82,-4.00,1.15,1.09,1.10
231.25,4.82,3.72,4.84,3.75,-3.75,-3.79,-4.01,1.06,1.09,1.09
233.57,4.77,3.69,4.78,3.71,-3.71,-3.75,-4.01,1.06,1.08,1.07
235.90,4.74,3.67,4.72,3.66,-3.66,-3.71,-4.01,1.07,1.06,1.06
238.26,4.69,3.63,4.68,3.62,-3.62,-3.67,-4.01,1.07,1.06,1.05
240.64,4.63,3.56,4.64,3.58,-3.58,-3.63,-4.00,1.05,1.06,1.06
243.05,4.59,3.53,4.59,3.53,-3.55,-3.59,-3.98,1.04,1.04,1.06
245.48,4.56,3.51,4.54,3.49,-3.51,-3.54,-3.96,1.04,1.03,1.05
247.93,4.51,3.47,4.52,3.48,-3.48,-3.50,-3.94,1.03,1.04,1.04
250.41,4.50,3.44,4.51,3.46,-3.45,-3.45,-3.91,1.05,1.06,1.05
252.92,4.51,3.45,4.47,3.42,-3.41,-3.40,-3.88,1.10,1.06,1.06
255.45,4.44,3.40,4.44,3.39,-3.37,-3.35,-3.84,1.07,1.07,1.04
258.00,4.36,3.31,4.39,3.34,-3.33,-3.30,-3.79,1.03,1.06,1.04
260.58,4.33,3.29,4.31,3.27,-3.28,-3.24,-3.74,1.05,1.03,1.04
263.19,4.27,3.24,4.24,3.21,-3.23,-3.19,-3.69,1.04,1.01,1.03
265.82,4.15,3.13,4.19,3.17,-3.17,-3.13,-3.63,0.97,1.02,1.01
268.48,4.13,3.12,4.12,3.11,-3.12,-3.08,-3.57,1.01,1.00,1.01
271.16,4.09,3.09,4.05,3.05,-3.06,-3.02,-3.50,1.03,0.99,0.99
273.87,3.96,2.97,4.00,3.01,-3.00,-2.96,-3.43,0.95,0.99,0.99
276.61,3.92,2.94,3.92,2.96,-2.95,-2.90,-3.36,0.97,0.97,0.97
279.38,3.90,2.95,3.85,2.90,-2.90,-2.84,-3.28,1.00,0.96,0.95
282.17,3.78,2.82,3.80,2.85,-2.84,-2.78,-3.20,0.93,0.95,0.95
284.99,3.73,2.78,3.74,2.79,-2.79,-2.73,-3.12,0.93,0.95,0.95
287.84,3.69,2.73,3.68,2.73,-2.74,-2.67,-3.03,0.94,0.94,0.95
290.72,3.65,2.71,3.63,2.68,-2.69,-2.61,-2.95,0.96,0.94,0.94
293.63,3.57,2.62,3.58,2.64,-2.63,-2.55,-2.86,0.93,0.95,0.95
296.57,3.53,2.57,3.53,2.58,-2.58,-2.49,-2.77,0.95,0.95,0.95
299.53,3.49,2.54,3.48,2.52,-2.52,-2.43,-2.68,0.97,0.96,0.95
302.53,3.42,2.46,3.43,2.48,-2.46,-2.37,-2.59,0.96,0.97,0.96
305.55,3.38,2.42,3.36,2.41,-2.40,-2.31,-2.50,0.98,0.96,0.95
308.61,3.30,2.34,3.28,2.33,-2.34,-2.26,-2.40,0.96,0.94,0.96
311.69,3.19,2.24,3.21,2.26,-2.28,-2.20,-2.31,0.91,0.93,0.95
314.81,3.14,2.18,3.16,2.21,-2.22,-2.14,-2.22,0.92,0.94,0.95
317.96,3.13,2.19,3.10,2.15,-2.15,-2.08,-2.13,0.97,0.94,0.94
321.14,3.07,2.12,3.04,2.10,-2.09,-2.02,-2.04,0.98,0.95,0.95
324.35,2.94,1.99,2.99,2.04,-2.03,-1.97,-1.95,0.91,0.96,0.94
327.59,2.93,1.98,2.91,1.96,-1.96,-1.91,-1.86,0.96,0.95,0.95
330.87,2.88,1.93,2.84,1.89,-1.90,-1.85,-1.77,0.98,0.94,0.95
334.18,2.74,1.80,2.78,1.83,-1.83,-1.79,-1.68,0.90,0.94,0.94
337.52,2.71,1.76,2.69,1.75,-1.76,-1.73,-1.60,0.94,0.93,0.94
340.90,2.64,1.69,2.63,1.69,-1.69,-1.68,-1.51,0.94,0.94,0.94
344.30,2.57,1.62,2.59,1.64,-1.62,-1.62,-1.42,0.94,0.96,0.95
347.75,2.54,1.58,2.51,1.56,-1.55,-1.56,-1.34,0.98,0.95,0.96
351.23,2.45,1.50,2.44,1.48,-1.49,-1.51,-1.26,0.96,0.95,0.95
354.74,2.34,1.37,2.38,1.42,-1.42,-1.45,-1.17,0.92,0.96,0.96
358.28,2.33,1.36,2.30,1.34,-1.35,-1.39,-1.09,0.98,0.96,0.96
361.87,2.28,1.31,2.24,1.27,-1.28,-1.33,-1.01,1.00,0.96,0.97
365.49,2.14,1.16,2.19,1.21,-1.21,-1.28,-0.93,0.93,0.98,0.98
369.14,2.14,1.15,2.13,1.15,-1.14,-1.22,-0.85,1.00,1.00,0.99
372.83,2.10,1.10,2.07,1.08,-1.08,-1.16,-0.77,1.02,0.99,0.99
376.56,2.03,1.03,2.00,1.01,-1.01,-1.11,-0.70,1.01,0.99,0.99
380.33,1.90,0.90,1.93,0.94,-0.95,-1.05,-0.62,0.94,0.98,0.99
384.13,1.86,0.86,1.89,0.89,-0.90,-0.99,-0.54,0.96,0.99,1.00
387.97,1.89,0.89,1.83,0.83,-0.84,-0.93,-0.47,1.05,0.99,1.00
391.85,1.81,0.81,1.79,0.79,-0.78,-0.87,-0.39,1.02,1.01,1.00
395.77,1.68,0.69,1.74,0.75,-0.73,-0.82,-0.32,0.95,1.01,0.99
399.73,1.68,0.69,1.66,0.67,-0.67,-0.76,-0.25,1.01,0.98,0.99
403.72,1.64,0.64,1.59,0.61,-0.61,-0.70,-0.18,1.02,0.98,0.99
407.76,1.49,0.51,1.54,0.56,-0.55,-0.64,-0.11,0.94,0.99,0.97
411.84,1.47,0.49,1.45,0.48,-0.48,-0.58,-0.04,0.98,0.96,0.97
415.96,1.40,0.42,1.38,0.42,-0.42,-0.52,0.03,0.98,0.97,0.97
420.12,1.30,0.34,1.34,0.37,-0.35,-0.46,0.10,0.95,0.99,0.96
424.32,1.30,0.33,1.25,0.28,-0.28,-0.41,0.16,1.02,0.97,0.97
428.56,1.19,0.20,1.18,0.20,-0.21,-0.35,0.23,0.98,0.97,0.99
432.85,1.09,0.08,1.14,0.14,-0.14,-0.29,0.29,0.95,1.00,1.01
437.18,1.12,0.10,1.10,0.08,-0.07,-0.23,0.36,1.05,1.03,1.02
441.55,1.10,0.04,1.07,0.01,-0.01,-0.17,0.42,1.09,1.06,1.06
445.96,1.05,-0.05,1.02,-0.07,0.05,-0.11,0.48,1.10,1.08,1.10
450.42,0.94,-0.20,1.00,-0.13,0.11,-0.04,0.54,1.05,1.12,1.13
454.93,0.99,-0.20,1.01,-0.18,0.17,0.02,0.60,1.15,1.18,1.18
459.48,1.11,-0.14,1.01,-0.23,0.23,0.08,0.65,1.33,1.24,1.24
464.07,1.03,-0.29,1.04,-0.27,0.29,0.14,0.71,1.32,1.33,1.31
468.71,0.97,-0.40,1.04,-0.32,0.35,0.20,0.76,1.32,1.40,1.36
473.40,1.07,-0.36,1.01,-0.41,0.42,0.26,0.81,1.48,1.43,1.42
478.13,1.04,-0.44,1.00,-0.48,0.48,0.33,0.86,1.52,1.47,1.48
482.91,0.92,-0.61,0.97,-0.55,0.54,0.39,0.91,1.46,1.52,1.53
487.74,0.93,-0.64,0.93,-0.64,0.61,0.45,0.96,1.54,1.54,1.57
492.62,0.94,-0.67,0.92,-0.69,0.68,0.52,1.00,1.62,1.60,1.61
497.55,0.91,-0.74,0.91,-0.73,0.75,0.58,1.05,1.65,1.66,1.65
502.52,0.89,-0.78,0.88,-0.80,0.81,0.64,1.09,1.70,1.69,1.67
507.55,0.82,-0.88,0.83,-0.87,0.87,0.71,1.13,1.69,1.70,1.70
512.62,0.78,-0.93,0.77,-0.94,0.94,0.77,1.16,1.71,1.71,1.71
517.75,0.72,-1.00,0.71,-1.00,1.00,0.84,1.20,1.72,1.71,1.72
522.93,0.65,-1.07,0.66,-1.05,1.06,0.91,1.24,1.71,1.72,1.72
528.16,0.59,-1.11,0.58,-1.12,1.12,0.97,1.27,1.71,1.70,1.70
533.44,0.51,-1.17,0.47,-1.20,1.19,1.04,1.30,1.69,1.66,1.68
538.77,0.37,-1.28,0.38,-1.27,1.25,1.10,1.33,1.62,1.63,1.65
544.16,0.25,-1.38,0.32,-1.30,1.31,1.17,1.36,1.56,1.64,1.63
549.60,0.29,-1.31,0.24,-1.36,1.37,1.24,1.39,1.66,1.61,1.60
555.10,0.23,-1.34,0.14,-1.42,1.43,1.31,1.42,1.66,1.57,1.56
