frequency,raw,smoothed,error,error_smoothed,equalization,parametric_eq,fixed_band_eq,equalized_raw,equalized_smoothed,target
20.00,13.45,13.45,5.66,5.67,-5.66,-4.23,-2.23,7.78,7.79,7.78
20.20,13.44,13.43,5.65,5.65,-5.65,-4.23,-2.29,7.79,7.78,7.78
20.40,13.42,13.42,5.63,5.63,-5.63,-4.23,-2.36,7.78,7.78,7.78
20.61,13.40,13.40,5.61,5.62,-5.62,-4.23,-2.43,7.78,7.78,7.78
20.81,13.39,13.38,5.61,5.60,-5.60,-4.23,-2.50,7.78,7.78,7.78
21.02,13.37,13.37,5.59,5.59,-5.59,-4.23,-2.57,7.78,7.78,7.78
21.23,13.36,13.36,5.58,5.57,-5.57,-4.23,-2.64,7.79,7.78,7.78
21.44,13.34,13.34,5.56,5.56,-5.56,-4.23,-2.72,7.78,7.78,7.78
21.66,13.32,13.32,5.54,5.54,-5.54,-4.23,-2.80,7.78,7.78,7.78
21.87,13.30,13.30,5.52,5.52,-5.52,-4.23,-2.88,7.77,7.78,7.78
22.09,13.29,13.28,5.51,5.51,-5.51,-4.23,-2.96,7.78,7.78,7.78
22.31,13.27,13.27,5.49,5.49,-5.49,-4.23,-3.05,7.78,7.78,7.78
22.54,13.25,13.25,5.47,5.47,-5.47,-4.22,-3.14,7.78,7.78,7.78
22.76,13.23,13.23,5.45,5.45,-5.45,-4.22,-3.23,7.77,7.78,7.78
22.99,13.21,13.21,5.43,5.43,-5.43,-4.22,-3.32,7.77,7.77,7.77
23.22,13.19,13.19,5.41,5.41,-5.42,-4.22,-3.42,7.77,7.77,7.77
23.45,13.17,13.17,5.40,5.40,-5.40,-4.22,-3.51,7.77,7.77,7.77
23.69,13.15,13.15,5.38,5.38,-5.38,-4.22,-3.61,7.77,7.77,7.77
23.92,13.13,13.13,5.36,5.36,-5.36,-4.22,-3.71,7.77,7.77,7.77
24.16,13.11,13.11,5.34,5.34,-5.34,-4.22,-3.81,7.77,7.77,7.77
24.40,13.09,13.09,5.32,5.32,-5.32,-4.22,-3.92,7.77,7.77,7.77
24.65,13.07,13.06,5.30,5.30,-5.30,-4.21,-4.02,7.77,7.77,7.77
24.89,13.04,13.04,5.27,5.28,-5.28,-4.21,-4.13,7.76,7.76,7.76
25.14,13.02,13.02,5.25,5.26,-5.26,-4.21,-4.24,7.76,7.76,7.76
25.39,13.00,13.00,5.24,5.23,-5.24,-4.21,-4.35,7.76,7.76,7.76
25.65,12.98,12.97,5.22,5.21,-5.21,-4.21,-4.45,7.76,7.76,7.76
25.91,12.95,12.95,5.19,5.19,-5.19,-4.21,-4.56,7.76,7.76,7.76
26.16,12.93,12.93,5.17,5.17,-5.17,-4.21,-4.67,7.76,7.76,7.76
26.43,12.91,12.90,5.15,5.15,-5.15,-4.20,-4.78,7.76,7.76,7.76
26.69,12.88,12.88,5.12,5.13,-5.13,-4.20,-4.89,7.75,7.75,7.75
26.96,12.86,12.86,5.11,5.10,-5.10,-4.20,-4.99,7.75,7.75,7.75
27.23,12.83,12.83,5.08,5.08,-5.08,-4.20,-5.09,7.75,7.75,7.75
27.50,12.81,12.81,5.06,5.06,-5.06,-4.20,-5.20,7.75,7.75,7.75
27.77,12.78,12.78,5.03,5.03,-5.03,-4.20,-5.29,7.74,7.75,7.75
28.05,12.76,12.76,5.01,5.01,-5.01,-4.19,-5.39,7.75,7.74,7.74
28.33,12.73,12.73,4.98,4.99,-4.99,-4.19,-5.47,7.74,7.74,7.74
28.62,12.71,12.70,4.97,4.96,-4.96,-4.19,-5.56,7.74,7.74,7.74
28.90,12.68,12.68,4.94,4.94,-4.94,-4.19,-5.63,7.74,7.74,7.74
29.19,12.65,12.65,4.91,4.92,-4.92,-4.18,-5.71,7.73,7.74,7.74
29.48,12.63,12.62,4.89,4.89,-4.89,-4.18,-5.77,7.74,7.73,7.73
29.78,12.60,12.60,4.87,4.87,-4.86,-4.18,-5.82,7.73,7.73,7.73
30.08,12.57,12.57,4.84,4.84,-4.84,-4.18,-5.87,7.73,7.73,7.73
30.38,12.54,12.54,4.81,4.81,-4.81,-4.17,-5.91,7.73,7.73,7.73
30.68,12.51,12.51,4.78,4.79,-4.79,-4.17,-5.94,7.72,7.72,7.72
30.99,12.48,12.48,4.76,4.76,-4.76,-4.17,-5.96,7.72,7.72,7.72
31.30,12.45,12.45,4.73,4.73,-4.73,-4.16,-5.97,7.72,7.72,7.72
31.61,12.42,12.42,4.70,4.70,-4.70,-4.16,-5.98,7.71,7.71,7.71
31.93,12.39,12.39,4.68,4.68,-4.68,-4.16,-5.97,7.71,7.71,7.71
32.24,12.36,12.36,4.65,4.65,-4.65,-4.15,-5.95,7.71,7.71,7.71
32.57,12.33,12.33,4.62,4.62,-4.62,-4.15,-5.93,7.70,7.70,7.70
32.89,12.30,12.30,4.60,4.60,-4.60,-4.15,-5.90,7.70,7.70,7.70
33.22,12.27,12.27,4.57,4.57,-4.57,-4.14,-5.85,7.70,7.70,7.70
33.55,12.24,12.24,4.55,4.55,-4.55,-4.14,-5.81,7.69,7.69,7.69
33.89,12.21,12.21,4.52,4.52,-4.52,-4.13,-5.75,7.69,7.69,7.69
34.23,12.18,12.18,4.49,4.49,-4.49,-4.13,-5.69,7.69,7.69,7.68
34.57,12.15,12.15,4.47,4.47,-4.47,-4.12,-5.62,7.68,7.68,7.68
34.92,12.12,12.11,4.44,4.44,-4.44,-4.12,-5.55,7.68,7.68,7.68
35.27,12.08,12.08,4.41,4.41,-4.41,-4.11,-5.48,7.67,7.67,7.67
35.62,12.05,12.05,4.38,4.38,-4.38,-4.11,-5.40,7.66,7.66,7.67
35.97,12.02,12.02,4.36,4.36,-4.36,-4.10,-5.31,7.66,7.66,7.66
36.33,11.99,11.98,4.33,4.33,-4.33,-4.10,-5.23,7.66,7.65,7.66
36.70,11.95,11.95,4.30,4.30,-4.30,-4.09,-5.14,7.65,7.65,7.65
37.06,11.92,11.92,4.27,4.27,-4.27,-4.09,-5.06,7.64,7.64,7.64
37.43,11.89,11.88,4.25,4.25,-4.25,-4.08,-4.97,7.64,7.64,7.64
37.81,11.85,11.85,4.22,4.22,-4.22,-4.07,-4.88,7.63,7.63,7.63
38.19,11.82,11.82,4.19,4.19,-4.19,-4.06,-4.79,7.63,7.63,7.63
38.57,11.78,11.78,4.16,4.16,-4.16,-4.06,-4.70,7.62,7.62,7.62
38.95,11.75,11.74,4.13,4.13,-4.13,-4.05,-4.61,7.62,7.61,7.61
39.34,11.71,11.71,4.10,4.10,-4.10,-4.04,-4.53,7.61,7.61,7.61
39.74,11.67,11.67,4.07,4.07,-4.07,-4.03,-4.44,7.60,7.60,7.60
40.14,11.63,11.63,4.04,4.04,-4.04,-4.02,-4.36,7.59,7.59,7.59
40.54,11.59,11.59,4.01,4.01,-4.00,-4.01,-4.28,7.58,7.58,7.58
40.94,11.55,11.55,3.97,3.97,-3.97,-4.00,-4.20,7.58,7.58,7.57
41.35,11.51,11.50,3.94,3.94,-3.94,-3.99,-4.13,7.57,7.57,7.57
41.76,11.46,11.46,3.90,3.90,-3.91,-3.98,-4.05,7.55,7.55,7.56
42.18,11.42,11.42,3.87,3.87,-3.87,-3.97,-3.98,7.54,7.54,7.55
42.60,11.38,11.38,3.84,3.84,-3.84,-3.96,-3.91,7.53,7.54,7.54
43.03,11.35,11.34,3.82,3.82,-3.81,-3.94,-3.85,7.53,7.53,7.53
43.46,11.31,11.31,3.79,3.79,-3.79,-3.93,-3.78,7.52,7.52,7.52
43.90,11.27,11.27,3.76,3.76,-3.76,-3.92,-3.72,7.51,7.51,7.51
44.33,11.23,11.23,3.73,3.73,-3.73,-3.90,-3.67,7.50,7.50,7.50
44.78,11.19,11.19,3.70,3.70,-3.70,-3.88,-3.61,7.49,7.49,7.49
45.23,11.15,11.15,3.67,3.67,-3.67,-3.87,-3.56,7.47,7.47,7.47
45.68,11.11,11.11,3.65,3.65,-3.65,-3.85,-3.51,7.46,7.46,7.46
46.13,11.07,11.07,3.62,3.62,-3.62,-3.83,-3.46,7.45,7.45,7.45
46.60,11.03,11.02,3.59,3.59,-3.59,-3.81,-3.42,7.44,7.44,7.44
47.06,10.98,10.98,3.55,3.56,-3.56,-3.79,-3.38,7.42,7.42,7.42
47.53,10.94,10.94,3.53,3.53,-3.53,-3.77,-3.34,7.41,7.41,7.41
48.01,10.90,10.89,3.50,3.50,-3.50,-3.75,-3.30,7.40,7.40,7.40
48.49,10.85,10.85,3.47,3.47,-3.47,-3.73,-3.27,7.38,7.38,7.38
48.97,10.81,10.80,3.44,3.44,-3.44,-3.70,-3.24,7.37,7.36,7.37
49.46,10.76,10.76,3.41,3.41,-3.41,-3.68,-3.21,7.34,7.35,7.35
49.96,10.72,10.72,3.38,3.38,-3.38,-3.65,-3.18,7.33,7.33,7.33
50.46,10.68,10.67,3.36,3.36,-3.36,-3.62,-3.16,7.32,7.32,7.32
50.96,10.63,10.63,3.33,3.33,-3.33,-3.59,-3.14,7.30,7.30,7.30
51.47,10.59,10.58,3.31,3.30,-3.30,-3.56,-3.12,7.29,7.28,7.28
51.99,10.54,10.54,3.28,3.28,-3.28,-3.53,-3.10,7.26,7.26,7.26
52.51,10.49,10.49,3.24,3.25,-3.25,-3.49,-3.08,7.24,7.24,7.24
53.03,10.45,10.44,3.22,3.22,-3.22,-3.46,-3.06,7.22,7.22,7.22
53.56,10.40,10.40,3.19,3.20,-3.20,-3.42,-3.05,7.20,7.20,7.20
54.10,10.36,10.36,3.18,3.17,-3.17,-3.38,-3.04,7.19,7.18,7.18
54.64,10.31,10.31,3.15,3.15,-3.15,-3.34,-3.02,7.16,7.16,7.16
55.18,10.26,10.26,3.12,3.12,-3.12,-3.30,-3.01,7.13,7.14,7.14
55.74,10.21,10.21,3.09,3.10,-3.10,-3.26,-3.00,7.11,7.11,7.11
56.29,10.17,10.16,3.08,3.07,-3.07,-3.21,-2.99,7.09,7.09,7.09
56.86,10.12,10.12,3.05,3.05,-3.05,-3.17,-2.98,7.07,7.07,7.06
57.42,10.07,10.07,3.03,3.03,-3.03,-3.12,-2.97,7.04,7.04,7.04
58.00,10.02,10.02,3.01,3.01,-3.00,-3.08,-2.96,7.01,7.01,7.01
58.58,9.97,9.97,2.98,2.98,-2.98,-3.03,-2.95,6.98,6.98,6.99
59.16,9.92,9.92,2.96,2.96,-2.96,-2.99,-2.94,6.96,6.96,6.96
59.76,9.87,9.87,2.94,2.94,-2.94,-2.95,-2.93,6.93,6.93,6.93
60.35,9.82,9.82,2.92,2.92,-2.92,-2.91,-2.92,6.90,6.90,6.90
60.96,9.77,9.77,2.90,2.90,-2.90,-2.87,-2.91,6.87,6.87,6.87
61.57,9.72,9.72,2.88,2.88,-2.88,-2.83,-2.90,6.84,6.84,6.84
62.18,9.67,9.67,2.86,2.86,-2.86,-2.80,-2.88,6.80,6.81,6.80
62.80,9.62,9.62,2.85,2.85,-2.85,-2.76,-2.87,6.77,6.77,6.77
63.43,9.57,9.56,2.83,2.83,-2.83,-2.74,-2.86,6.74,6.74,6.74
64.07,9.51,9.51,2.81,2.81,-2.81,-2.72,-2.84,6.70,6.70,6.70
64.71,9.46,9.46,2.79,2.79,-2.79,-2.70,-2.83,6.66,6.66,6.67
65.35,9.41,9.41,2.78,2.78,-2.78,-2.68,-2.81,6.63,6.63,6.63
66.01,9.36,9.36,2.77,2.77,-2.76,-2.68,-2.79,6.59,6.59,6.59
66.67,9.30,9.30,2.75,2.75,-2.75,-2.67,-2.78,6.55,6.55,6.55
67.33,9.25,9.24,2.74,2.73,-2.73,-2.67,-2.76,6.51,6.51,6.51
68.01,9.19,9.19,2.72,2.72,-2.72,-2.67,-2.74,6.47,6.47,6.47
68.69,9.14,9.14,2.71,2.71,-2.71,-2.68,-2.72,6.43,6.43,6.43
69.37,9.09,9.08,2.70,2.70,-2.70,-2.69,-2.71,6.39,6.39,6.38
70.07,9.03,9.03,2.69,2.69,-2.69,-2.70,-2.69,6.34,6.34,6.34
70.77,8.98,8.98,2.68,2.68,-2.68,-2.71,-2.67,6.30,6.30,6.30
71.48,8.92,8.92,2.67,2.67,-2.67,-2.72,-2.65,6.25,6.25,6.25
72.19,8.87,8.87,2.67,2.66,-2.66,-2.74,-2.64,6.20,6.20,6.20
72.91,8.81,8.81,2.65,2.66,-2.66,-2.75,-2.62,6.15,6.15,6.15
73.64,8.76,8.76,2.65,2.65,-2.65,-2.76,-2.61,6.11,6.11,6.10
74.38,8.70,8.70,2.64,2.65,-2.64,-2.78,-2.59,6.05,6.06,6.05
75.12,8.65,8.64,2.64,2.64,-2.64,-2.79,-2.58,6.01,6.00,6.00
75.87,8.59,8.59,2.64,2.64,-2.64,-2.80,-2.57,5.95,5.95,5.95
76.63,8.53,8.53,2.63,2.63,-2.63,-2.81,-2.55,5.89,5.90,5.90
77.40,8.48,8.47,2.63,2.63,-2.63,-2.82,-2.55,5.85,5.84,5.84
78.17,8.42,8.42,2.63,2.63,-2.63,-2.83,-2.54,5.79,5.79,5.79
78.95,8.36,8.36,2.63,2.63,-2.63,-2.84,-2.53,5.73,5.73,5.73
79.74,8.31,8.30,2.63,2.63,-2.63,-2.84,-2.52,5.68,5.67,5.67
80.54,8.25,8.25,2.63,2.63,-2.63,-2.85,-2.52,5.62,5.62,5.62
81.35,8.19,8.19,2.63,2.63,-2.63,-2.85,-2.52,5.55,5.56,5.56
82.16,8.14,8.13,2.64,2.64,-2.64,-2.85,-2.52,5.50,5.50,5.50
82.98,8.08,8.08,2.64,2.64,-2.64,-2.85,-2.52,5.44,5.44,5.44
83.81,8.02,8.02,2.64,2.64,-2.64,-2.85,-2.52,5.37,5.38,5.37
84.65,7.96,7.96,2.65,2.65,-2.65,-2.84,-2.53,5.31,5.31,5.31
85.50,7.90,7.90,2.65,2.65,-2.65,-2.84,-2.54,5.24,5.24,5.25
86.35,7.84,7.84,2.65,2.66,-2.66,-2.83,-2.54,5.18,5.18,5.18
87.22,7.79,7.78,2.67,2.67,-2.67,-2.82,-2.56,5.12,5.12,5.12
88.09,7.73,7.73,2.68,2.68,-2.67,-2.82,-2.57,5.05,5.05,5.05
88.97,7.67,7.67,2.68,2.68,-2.68,-2.81,-2.58,4.99,4.99,4.99
89.86,7.61,7.61,2.69,2.69,-2.69,-2.80,-2.60,4.92,4.92,4.92
90.76,7.55,7.55,2.70,2.70,-2.70,-2.78,-2.62,4.85,4.85,4.85
91.66,7.49,7.49,2.71,2.71,-2.71,-2.77,-2.64,4.78,4.78,4.78
92.58,7.43,7.43,2.72,2.72,-2.72,-2.76,-2.66,4.71,4.71,4.71
93.51,7.37,7.37,2.73,2.73,-2.73,-2.75,-2.69,4.64,4.64,4.64
94.44,7.31,7.31,2.74,2.74,-2.74,-2.73,-2.71,4.57,4.57,4.57
95.39,7.25,7.25,2.75,2.75,-2.74,-2.72,-2.74,4.50,4.50,4.50
96.34,7.19,7.19,2.76,2.76,-2.75,-2.70,-2.77,4.43,4.43,4.43
97.30,7.13,7.12,2.77,2.77,-2.76,-2.69,-2.80,4.36,4.36,4.36
98.28,7.06,7.06,2.77,2.77,-2.78,-2.67,-2.83,4.28,4.29,4.29
99.26,7.00,7.00,2.78,2.78,-2.79,-2.66,-2.86,4.21,4.21,4.21
100.25,6.94,6.94,2.80,2.79,-2.80,-2.64,-2.90,4.14,4.14,4.14
101.25,6.88,6.88,2.81,2.81,-2.81,-2.63,-2.93,4.07,4.07,4.07
102.27,6.82,6.82,2.82,2.82,-2.82,-2.61,-2.97,4.00,4.00,4.00
103.29,6.76,6.76,2.83,2.83,-2.83,-2.59,-3.01,3.92,3.92,3.92
104.32,6.70,6.70,2.85,2.85,-2.85,-2.58,-3.04,3.85,3.85,3.85
105.37,6.64,6.64,2.86,2.86,-2.86,-2.56,-3.08,3.78,3.78,3.78
106.42,6.58,6.57,2.87,2.87,-2.87,-2.55,-3.12,3.71,3.70,3.70
107.48,6.51,6.51,2.88,2.88,-2.88,-2.54,-3.15,3.63,3.63,3.63
108.56,6.45,6.45,2.89,2.89,-2.89,-2.52,-3.19,3.56,3.56,3.56
109.64,6.39,6.39,2.90,2.90,-2.90,-2.51,-3.23,3.49,3.49,3.49
110.74,6.33,6.32,2.91,2.91,-2.91,-2.50,-3.26,3.42,3.41,3.41
111.85,6.26,6.26,2.92,2.92,-2.92,-2.49,-3.29,3.34,3.34,3.34
112.97,6.20,6.20,2.93,2.93,-2.93,-2.48,-3.32,3.27,3.27,3.27
114.10,6.14,6.13,2.94,2.94,-2.94,-2.47,-3.35,3.20,3.20,3.20
115.24,6.07,6.07,2.94,2.94,-2.95,-2.46,-3.37,3.12,3.12,3.13
116.39,6.01,6.01,2.95,2.95,-2.96,-2.45,-3.40,3.05,3.05,3.06
117.55,5.95,5.95,2.96,2.96,-2.96,-2.44,-3.42,2.98,2.98,2.98
118.73,5.89,5.89,2.97,2.97,-2.97,-2.44,-3.43,2.92,2.92,2.91
119.92,5.83,5.83,2.98,2.98,-2.98,-2.43,-3.44,2.85,2.85,2.85
121.12,5.77,5.76,2.99,2.99,-2.99,-2.43,-3.45,2.78,2.78,2.78
122.33,5.70,5.70,2.99,2.99,-2.99,-2.43,-3.46,2.70,2.71,2.71
123.55,5.64,5.64,3.00,3.00,-3.00,-2.42,-3.46,2.64,2.64,2.64
124.79,5.58,5.58,3.00,3.00,-3.00,-2.42,-3.46,2.57,2.57,2.57
126.03,5.52,5.51,3.01,3.01,-3.01,-2.43,-3.45,2.51,2.51,2.51
127.29,5.45,5.45,3.01,3.01,-3.01,-2.43,-3.44,2.44,2.44,2.44
128.57,5.39,5.39,3.01,3.01,-3.01,-2.43,-3.42,2.38,2.38,2.38
129.85,5.33,5.32,3.01,3.01,-3.01,-2.44,-3.40,2.32,2.31,2.31
131.15,5.26,5.26,3.01,3.01,-3.01,-2.45,-3.38,2.25,2.25,2.25
132.46,5.20,5.20,3.01,3.01,-3.01,-2.46,-3.35,2.19,2.19,2.19
133.79,5.14,5.13,3.01,3.01,-3.01,-2.47,-3.32,2.13,2.13,2.13
135.12,5.07,5.07,3.00,3.00,-3.00,-2.48,-3.29,2.06,2.07,2.07
136.48,5.01,5.01,3.00,3.00,-3.00,-2.49,-3.25,2.01,2.01,2.01
137.84,4.95,4.95,3.00,3.00,-3.00,-2.51,-3.21,1.95,1.95,1.95
139.22,4.89,4.89,3.00,2.99,-2.99,-2.52,-3.17,1.90,1.89,1.89
140.61,4.82,4.82,2.98,2.99,-2.98,-2.54,-3.13,1.83,1.84,1.83
142.02,4.76,4.75,2.98,2.98,-2.98,-2.56,-3.08,1.78,1.78,1.78
143.44,4.69,4.69,2.96,2.97,-2.97,-2.58,-3.04,1.72,1.72,1.72
144.87,4.63,4.63,2.96,2.96,-2.96,-2.60,-2.99,1.67,1.67,1.67
146.32,4.57,4.57,2.95,2.95,-2.95,-2.62,-2.94,1.62,1.62,1.62
147.78,4.51,4.50,2.94,2.94,-2.94,-2.64,-2.89,1.57,1.57,1.57
149.26,4.44,4.44,2.92,2.93,-2.92,-2.67,-2.84,1.51,1.52,1.52
150.75,4.38,4.38,2.91,2.91,-2.91,-2.69,-2.79,1.47,1.47,1.47
152.26,4.32,4.31,2.90,2.90,-2.90,-2.71,-2.74,1.42,1.42,1.42
153.78,4.25,4.25,2.88,2.88,-2.88,-2.73,-2.69,1.37,1.37,1.37
155.32,4.19,4.19,2.86,2.86,-2.87,-2.76,-2.64,1.32,1.32,1.32
156.88,4.13,4.13,2.85,2.85,-2.85,-2.78,-2.59,1.28,1.28,1.28
158.44,4.07,4.07,2.83,2.83,-2.83,-2.80,-2.54,1.23,1.23,1.23
160.03,4.01,4.00,2.82,2.82,-2.82,-2.82,-2.50,1.19,1.19,1.19
161.63,3.94,3.94,2.80,2.80,-2.80,-2.83,-2.45,1.14,1.14,1.14
163.24,3.88,3.88,2.78,2.78,-2.78,-2.85,-2.41,1.10,1.10,1.10
164.88,3.82,3.82,2.76,2.76,-2.76,-2.86,-2.37,1.06,1.06,1.06
166.53,3.76,3.75,2.74,2.74,-2.74,-2.87,-2.32,1.02,1.02,1.02
168.19,3.69,3.69,2.71,2.71,-2.71,-2.88,-2.28,0.98,0.98,0.98
169.87,3.63,3.63,2.69,2.69,-2.69,-2.88,-2.25,0.94,0.94,0.94
171.57,3.57,3.57,2.66,2.66,-2.66,-2.88,-2.21,0.91,0.91,0.91
173.29,3.51,3.50,2.64,2.63,-2.63,-2.88,-2.17,0.87,0.87,0.87
175.02,3.44,3.44,2.60,2.61,-2.61,-2.87,-2.14,0.83,0.83,0.84
176.77,3.38,3.38,2.58,2.58,-2.58,-2.86,-2.11,0.80,0.80,0.80
178.54,3.32,3.32,2.55,2.55,-2.55,-2.85,-2.08,0.77,0.77,0.77
180.32,3.26,3.26,2.52,2.52,-2.52,-2.83,-2.05,0.74,0.74,0.74
182.13,3.20,3.20,2.49,2.49,-2.49,-2.81,-2.02,0.71,0.71,0.71
183.95,3.14,3.13,2.46,2.46,-2.46,-2.78,-2.00,0.68,0.68,0.68
185.79,3.07,3.07,2.42,2.42,-2.42,-2.75,-1.97,0.64,0.65,0.65
187.65,3.01,3.01,2.39,2.39,-2.39,-2.71,-1.95,0.62,0.61,0.62
189.52,2.95,2.95,2.36,2.36,-2.36,-2.67,-1.93,0.59,0.59,0.59
191.42,2.89,2.89,2.32,2.33,-2.33,-2.63,-1.91,0.56,0.56,0.57
193.33,2.84,2.83,2.30,2.30,-2.29,-2.58,-1.89,0.54,0.54,0.54
195.27,2.78,2.78,2.26,2.26,-2.26,-2.53,-1.88,0.52,0.52,0.51
197.22,2.72,2.72,2.23,2.23,-2.22,-2.48,-1.86,0.49,0.49,0.49
199.19,2.66,2.66,2.19,2.19,-2.19,-2.43,-1.85,0.47,0.47,0.47
201.18,2.60,2.59,2.15,2.15,-2.15,-2.37,-1.83,0.44,0.44,0.44
203.19,2.53,2.53,2.11,2.11,-2.12,-2.31,-1.82,0.41,0.42,0.42
205.23,2.48,2.47,2.08,2.08,-2.08,-2.25,-1.81,0.40,0.40,0.40
207.28,2.42,2.42,2.04,2.04,-2.04,-2.18,-1.80,0.38,0.38,0.38
209.35,2.36,2.36,2.00,2.00,-2.00,-2.12,-1.79,0.36,0.36,0.36
211.44,2.30,2.30,1.96,1.96,-1.96,-2.06,-1.78,0.34,0.34,0.34
213.56,2.24,2.24,1.92,1.92,-1.92,-1.99,-1.77,0.32,0.32,0.32
215.69,2.18,2.18,1.88,1.87,-1.88,-1.92,-1.76,0.30,0.30,0.30
217.85,2.12,2.12,1.83,1.83,-1.84,-1.86,-1.75,0.28,0.28,0.28
220.03,2.06,2.06,1.79,1.79,-1.79,-1.79,-1.74,0.26,0.27,0.27
222.23,2.01,2.00,1.76,1.75,-1.75,-1.73,-1.72,0.25,0.25,0.25
224.45,1.95,1.95,1.71,1.71,-1.71,-1.66,-1.71,0.24,0.24,0.23
226.70,1.89,1.89,1.67,1.67,-1.67,-1.60,-1.70,0.22,0.22,0.22
228.96,1.84,1.83,1.63,1.63,-1.63,-1.53,-1.69,0.21,0.20,0.20
231.25,1.78,1.78,1.59,1.59,-1.59,-1.47,-1.67,0.19,0.19,0.19
233.57,1.72,1.72,1.54,1.55,-1.55,-1.41,-1.66,0.17,0.17,0.18
235.90,1.67,1.66,1.51,1.51,-1.51,-1.35,-1.64,0.16,0.16,0.15
238.26,1.61,1.61,1.47,1.47,-1.47,-1.29,-1.62,0.14,0.14,0.14
240.64,1.55,1.55,1.42,1.42,-1.42,-1.23,-1.60,0.12,0.13,0.13
243.05,1.50,1.49,1.38,1.38,-1.38,-1.17,-1.58,0.12,0.11,0.11
245.48,1.44,1.44,1.33,1.34,-1.34,-1.11,-1.55,0.10,0.10,0.10
247.93,1.39,1.39,1.30,1.30,-1.30,-1.05,-1.53,0.09,0.09,0.09
250.41,1.34,1.33,1.26,1.25,-1.25,-1.00,-1.50,0.09,0.08,0.08
252.92,1.28,1.28,1.21,1.21,-1.21,-0.94,-1.47,0.07,0.07,0.07
255.45,1.23,1.23,1.17,1.17,-1.16,-0.89,-1.44,0.06,0.06,0.06
258.00,1.17,1.17,1.12,1.12,-1.12,-0.84,-1.40,0.05,0.05,0.05
260.58,1.12,1.11,1.08,1.07,-1.08,-0.79,-1.36,0.04,0.04,0.04
263.19,1.06,1.06,1.03,1.03,-1.03,-0.74,-1.32,0.03,0.03,0.03
265.82,1.01,1.01,0.98,0.98,-0.99,-0.69,-1.28,0.02,0.02,0.02
268.48,0.96,0.95,0.94,0.94,-0.94,-0.64,-1.24,0.02,0.01,0.01
271.16,0.90,0.90,0.89,0.89,-0.90,-0.59,-1.20,0.00,0.00,0.01
273.87,0.85,0.85,0.85,0.85,-0.85,-0.54,-1.15,-0.00,-0.00,-0.00
276.61,0.80,0.80,0.81,0.81,-0.80,-0.50,-1.10,-0.01,-0.01,-0.01
279.38,0.75,0.74,0.76,0.76,-0.76,-0.45,-1.05,-0.01,-0.01,-0.02
282.17,0.69,0.69,0.71,0.71,-0.71,-0.41,-1.00,-0.02,-0.02,-0.02
284.99,0.64,0.64,0.66,0.66,-0.66,-0.37,-0.95,-0.02,-0.02,-0.02
287.84,0.59,0.59,0.61,0.61,-0.61,-0.33,-0.89,-0.02,-0.03,-0.02
290.72,0.54,0.54,0.56,0.56,-0.56,-0.28,-0.84,-0.03,-0.03,-0.02
293.63,0.49,0.49,0.52,0.51,-0.51,-0.24,-0.78,-0.03,-0.03,-0.03
296.57,0.44,0.44,0.46,0.47,-0.46,-0.20,-0.73,-0.03,-0.03,-0.03
299.53,0.39,0.39,0.41,0.42,-0.42,-0.16,-0.67,-0.03,-0.03,-0.02
302.53,0.35,0.34,0.38,0.37,-0.37,-0.12,-0.61,-0.02,-0.02,-0.03
305.55,0.30,0.30,0.32,0.32,-0.32,-0.08,-0.55,-0.02,-0.02,-0.02
308.61,0.25,0.25,0.28,0.27,-0.27,-0.05,-0.49,-0.03,-0.03,-0.03
311.69,0.20,0.20,0.22,0.22,-0.22,-0.01,-0.43,-0.03,-0.03,-0.02
314.81,0.15,0.15,0.18,0.18,-0.18,0.03,-0.37,-0.03,-0.03,-0.03
317.96,0.11,0.10,0.13,0.13,-0.13,0.07,-0.31,-0.02,-0.02,-0.02
321.14,0.06,0.06,0.08,0.08,-0.08,0.10,-0.25,-0.02,-0.02,-0.03
324.35,0.01,0.01,0.03,0.03,-0.03,0.14,-0.18,-0.02,-0.02,-0.02
327.59,-0.03,-0.04,-0.02,-0.02,0.02,0.18,-0.12,-0.02,-0.02,-0.01
330.87,-0.08,-0.08,-0.06,-0.07,0.07,0.21,-0.06,-0.02,-0.02,-0.02
334.18,-0.13,-0.13,-0.12,-0.11,0.11,0.25,0.01,-0.02,-0.01,-0.01
337.52,-0.17,-0.18,-0.16,-0.16,0.16,0.28,0.07,-0.01,-0.01,-0.02
340.90,-0.22,-0.22,-0.21,-0.21,0.21,0.32,0.13,-0.01,-0.01,-0.01
344.30,-0.26,-0.27,-0.26,-0.26,0.26,0.36,0.20,-0.00,-0.00,-0.00
347.75,-0.31,-0.31,-0.32,-0.31,0.31,0.39,0.26,-0.00,-0.00,0.00
351.23,-0.35,-0.35,-0.35,-0.36,0.36,0.43,0.33,0.00,0.01,0.00
354.74,-0.39,-0.39,-0.41,-0.40,0.41,0.46,0.39,0.01,0.01,0.02
358.28,-0.43,-0.44,-0.45,-0.45,0.45,0.50,0.46,0.02,0.02,0.01
361.87,-0.48,-0.48,-0.50,-0.50,0.50,0.53,0.52,0.02,0.02,0.02
365.49,-0.52,-0.52,-0.55,-0.55,0.55,0.57,0.59,0.02,0.02,0.03
369.14,-0.56,-0.56,-0.59,-0.60,0.59,0.60,0.66,0.03,0.03,0.03
372.83,-0.60,-0.60,-0.65,-0.64,0.64,0.64,0.72,0.04,0.04,0.04
376.56,-0.64,-0.64,-0.68,-0.68,0.69,0.67,0.79,0.04,0.04,0.04
380.33,-0.68,-0.68,-0.73,-0.73,0.73,0.71,0.86,0.05,0.05,0.05
384.13,-0.72,-0.72,-0.77,-0.77,0.78,0.75,0.93,0.05,0.05,0.05
387.97,-0.76,-0.76,-0.82,-0.82,0.82,0.78,0.99,0.06,0.06,0.05
391.85,-0.80,-0.80,-0.87,-0.87,0.86,0.82,1.06,0.06,0.06,0.07
395.77,-0.84,-0.84,-0.91,-0.91,0.91,0.86,1.13,0.07,0.07,0.07
399.73,-0.87,-0.88,-0.95,-0.95,0.95,0.89,1.20,0.08,0.08,0.08
403.72,-0.91,-0.91,-1.00,-0.99,1.00,0.93,1.27,0.09,0.08,0.09
407.76,-0.95,-0.95,-1.04,-1.04,1.04,0.97,1.33,0.09,0.09,0.08
411.84,-0.99,-0.99,-1.08,-1.08,1.09,1.00,1.40,0.09,0.09,0.09
415.96,-1.03,-1.03,-1.13,-1.13,1.13,1.04,1.47,0.10,0.10,0.10
420.12,-1.07,-1.07,-1.17,-1.17,1.17,1.08,1.53,0.10,0.10,0.10
424.32,-1.11,-1.11,-1.22,-1.22,1.22,1.12,1.60,0.10,0.11,0.11
428.56,-1.14,-1.15,-1.26,-1.26,1.26,1.16,1.66,0.12,0.11,0.12
432.85,-1.18,-1.18,-1.31,-1.30,1.31,1.19,1.72,0.12,0.12,0.12
437.18,-1.22,-1.22,-1.35,-1.35,1.35,1.23,1.78,0.13,0.13,0.12
441.55,-1.26,-1.26,-1.39,-1.39,1.40,1.27,1.84,0.13,0.14,0.13
445.96,-1.29,-1.30,-1.43,-1.44,1.44,1.31,1.90,0.15,0.14,0.14
450.42,-1.33,-1.33,-1.49,-1.49,1.49,1.35,1.95,0.15,0.15,0.16
454.93,-1.37,-1.37,-1.54,-1.54,1.53,1.39,2.00,0.16,0.16,0.17
459.48,-1.40,-1.41,-1.58,-1.58,1.58,1.43,2.05,0.17,0.17,0.18
464.07,-1.44,-1.44,-1.62,-1.62,1.62,1.47,2.10,0.18,0.18,0.18
468.71,-1.47,-1.48,-1.66,-1.66,1.66,1.51,2.14,0.19,0.19,0.18
473.40,-1.51,-1.51,-1.71,-1.70,1.70,1.55,2.18,0.19,0.19,0.19
478.13,-1.54,-1.54,-1.74,-1.74,1.74,1.59,2.21,0.20,0.20,0.20
482.91,-1.57,-1.57,-1.78,-1.78,1.78,1.63,2.25,0.21,0.21,0.21
487.74,-1.60,-1.60,-1.82,-1.82,1.82,1.67,2.28,0.22,0.22,0.22
492.62,-1.63,-1.63,-1.86,-1.86,1.86,1.72,2.30,0.23,0.23,0.23
497.55,-1.66,-1.66,-1.90,-1.90,1.90,1.76,2.32,0.24,0.24,0.24
502.52,-1.68,-1.69,-1.93,-1.94,1.94,1.80,2.34,0.26,0.25,0.25
507.55,-1.71,-1.71,-1.98,-1.98,1.98,1.84,2.35,0.26,0.26,0.27
512.62,-1.74,-1.74,-2.02,-2.01,2.01,1.88,2.36,0.27,0.27,0.28
517.75,-1.76,-1.76,-2.05,-2.05,2.05,1.92,2.36,0.28,0.28,0.29
