frequency,raw
20.00,6.53
20.20,6.56
20.40,6.60
20.61,6.63
20.81,6.67
21.02,6.70
21.23,6.74
21.44,6.77
21.66,6.81
21.87,6.84
22.09,6.87
22.31,6.90
22.54,6.93
22.76,6.96
22.99,6.99
23.22,7.02
23.45,7.05
23.69,7.08
23.92,7.11
24.16,7.15
24.40,7.19
24.65,7.22
24.89,7.26
25.14,7.29
25.39,7.32
25.65,7.35
25.91,7.37
26.16,7.39
26.43,7.41
26.69,7.44
26.96,7.46
27.23,7.47
27.50,7.48
27.77,7.48
28.05,7.49
28.33,7.51
28.62,7.53
28.90,7.54
29.19,7.55
29.48,7.55
29.78,7.56
30.08,7.56
30.38,7.58
30.68,7.59
30.99,7.60
31.30,7.61
31.61,7.63
31.93,7.65
32.24,7.67
32.57,7.70
32.89,7.73
33.22,7.75
33.55,7.77
33.89,7.78
34.23,7.81
34.57,7.83
34.92,7.85
35.27,7.88
35.62,7.90
35.97,7.93
36.33,7.93
36.70,7.93
37.06,7.93
37.43,7.94
37.81,7.95
38.19,7.96
38.57,7.97
38.95,7.98
39.34,7.99
39.74,8.00
40.14,8.01
40.54,8.02
40.94,8.02
41.35,8.02
41.76,8.02
42.18,8.02
42.60,8.02
43.03,8.02
43.46,8.02
43.90,8.02
44.33,8.03
44.78,8.04
45.23,8.05
45.68,8.06
46.13,8.08
46.60,8.10
47.06,8.12
47.53,8.14
48.01,8.16
48.49,8.18
48.97,8.21
49.46,8.21
49.96,8.21
50.46,8.21
50.96,8.21
51.47,8.21
51.99,8.21
52.51,8.18
53.03,8.16
53.56,8.16
54.10,8.16
54.64,8.13
55.18,8.12
55.74,8.12
56.29,8.12
56.86,8.12
57.42,8.14
58.00,8.16
58.58,8.16
59.16,8.16
59.76,8.16
60.35,8.16
60.96,8.16
61.57,8.16
62.18,8.16
62.80,8.16
63.43,8.15
64.07,8.14
64.71,8.13
65.35,8.12
66.01,8.12
66.67,8.12
67.33,8.11
68.01,8.09
68.69,8.08
69.37,8.07
70.07,8.07
70.77,8.11
71.48,8.12
72.19,8.12
72.91,8.12
73.64,8.12
74.38,8.12
75.12,8.12
75.87,8.09
76.63,8.08
77.40,8.05
78.17,8.01
78.95,7.98
79.74,7.98
80.54,7.98
81.35,7.98
82.16,7.98
82.98,7.98
83.81,7.98
84.65,7.95
85.50,7.93
86.35,7.93
87.22,7.93
88.09,7.93
88.97,7.88
89.86,7.88
90.76,7.88
91.66,7.87
92.58,7.85
93.51,7.84
94.44,7.84
95.39,7.81
96.34,7.79
97.30,7.77
98.28,7.74
99.26,7.73
100.25,7.71
101.25,7.70
102.27,7.70
103.29,7.70
104.32,7.68
105.37,7.65
106.42,7.65
107.48,7.63
108.56,7.60
109.64,7.60
110.74,7.57
111.85,7.56
112.97,7.56
114.10,7.55
115.24,7.51
116.39,7.49
117.55,7.47
118.73,7.46
119.92,7.42
121.12,7.42
122.33,7.40
123.55,7.38
124.79,7.37
126.03,7.32
127.29,7.30
128.57,7.28
129.85,7.25
131.15,7.23
132.46,7.19
133.79,7.18
135.12,7.14
136.48,7.14
137.84,7.14
139.22,7.10
140.61,7.07
142.02,7.03
143.44,6.99
144.87,6.95
146.32,6.92
147.78,6.90
149.26,6.87
150.75,6.84
152.26,6.82
153.78,6.79
155.32,6.77
156.88,6.73
158.44,6.72
160.03,6.68
161.63,6.66
163.24,6.63
164.88,6.58
166.53,6.55
168.19,6.53
169.87,6.51
171.57,6.48
173.29,6.45
175.02,6.42
176.77,6.39
178.54,6.35
180.32,6.33
182.13,6.31
183.95,6.28
185.79,6.25
187.65,6.24
189.52,6.21
191.42,6.17
193.33,6.16
195.27,6.13
197.22,6.10
199.19,6.07
201.18,6.04
203.19,6.02
205.23,5.99
207.28,5.96
209.35,5.92
211.44,5.89
213.56,5.86
215.69,5.83
217.85,5.78
220.03,5.76
222.23,5.73
224.45,5.68
226.70,5.65
228.96,5.60
231.25,5.56
233.57,5.51
235.90,5.48
238.26,5.43
240.64,5.38
243.05,5.32
245.48,5.29
247.93,5.25
250.41,5.20
252.92,5.17
255.45,5.12
258.00,5.09
260.58,5.06
263.19,5.02
265.82,4.99
268.48,4.94
271.16,4.90
273.87,4.85
276.61,4.82
279.38,4.77
282.17,4.73
284.99,4.70
287.84,4.66
290.72,4.62
293.63,4.58
296.57,4.55
299.53,4.52
302.53,4.49
305.55,4.44
308.61,4.40
311.69,4.37
314.81,4.33
317.96,4.29
321.14,4.24
324.35,4.19
327.59,4.15
330.87,4.10
334.18,4.06
337.52,4.02
340.90,3.97
344.30,3.93
347.75,3.88
351.23,3.84
354.74,3.79
358.28,3.73
361.87,3.68
365.49,3.63
369.14,3.58
372.83,3.53
376.56,3.49
380.33,3.43
384.13,3.37
387.97,3.32
391.85,3.28
395.77,3.24
399.73,3.19
403.72,3.15
407.76,3.10
411.84,3.04
415.96,3.01
420.12,2.95
424.32,2.90
428.56,2.86
432.85,2.81
437.18,2.78
441.55,2.73
445.96,2.69
450.42,2.65
454.93,2.60
459.48,2.56
464.07,2.51
468.71,2.47
473.40,2.42
478.13,2.37
482.91,2.32
487.74,2.27
492.62,2.22
497.55,2.16
502.52,2.10
507.55,2.05
512.62,2.00
517.75,1.95
522.93,1.90
528.16,1.85
533.44,1.80
538.77,1.75
544.16,1.70
549.60,1.67
555.10,1.62
560.65,1.57
566.25,1.52
571.92,1.47
577.64,1.41
583.41,1.35
589.25,1.29
595.14,1.25
601.09,1.20
607.10,1.15
613.17,1.10
619.30,1.04
625.50,1.01
631.75,0.95
638.07,0.91
644.45,0.87
650.89,0.83
657.40,0.78
663.98,0.73
670.62,0.69
677.32,0.64
684.10,0.59
690.94,0.56
697.85,0.50
704.83,0.47
711.87,0.42
718.99,0.38
726.18,0.34
733.44,0.30
740.78,0.27
748.19,0.24
755.67,0.20
763.23,0.15
770.86,0.12
778.57,0.09
786.35,0.06
794.22,0.03
802.16,0.00
810.18,-0.04
818.28,-0.05
826.46,-0.08
834.73,-0.10
843.08,-0.13
851.51,-0.15
860.02,-0.18
868.62,-0.19
877.31,-0.22
886.08,-0.23
894.94,-0.23
903.89,-0.23
912.93,-0.23
922.06,-0.22
931.28,-0.20
940.59,-0.19
950.00,-0.18
959.50,-0.15
969.09,-0.10
978.78,-0.07
988.57,-0.04
998.46,-0.01
1008.44,0.04
1018.53,0.10
1028.71,0.15
1039.00,0.20
1049.39,0.26
1059.88,0.34
1070.48,0.41
1081.19,0.48
1092.00,0.56
1102.92,0.65
1113.95,0.74
1125.09,0.83
1136.34,0.91
1147.70,0.99
1159.18,1.09
1170.77,1.19
1182.48,1.27
1194.30,1.38
1206.25,1.48
1218.31,1.56
1230.49,1.66
1242.80,1.75
1255.22,1.83
1267.78,1.92
1280.45,2.00
1293.26,2.08
1306.19,2.15
1319.25,2.23
1332.45,2.31
1345.77,2.38
1359.23,2.44
1372.82,2.49
1386.55,2.54
1400.41,2.59
1414.42,2.66
1428.56,2.72
1442.85,2.75
1457.28,2.81
1471.85,2.86
1486.57,2.89
1501.43,2.95
1516.45,2.98
1531.61,3.02
1546.93,3.06
1562.40,3.10
1578.02,3.13
1593.80,3.16
1609.74,3.21
1625.84,3.24
1642.10,3.30
1658.52,3.33
1675.10,3.38
1691.85,3.42
1708.77,3.48
1725.86,3.54
1743.12,3.60
1760.55,3.65
1778.15,3.72
1795.94,3.78
1813.90,3.86
1832.03,3.93
1850.36,4.03
1868.86,4.10
1887.55,4.19
1906.42,4.29
1925.49,4.39
1944.74,4.50
1964.19,4.61
1983.83,4.72
2003.67,4.83
2023.71,4.94
2043.94,5.06
2064.38,5.18
2085.03,5.31
2105.88,5.44
2126.94,5.55
2148.20,5.68
2169.69,5.81
2191.38,5.93
2213.30,6.07
2235.43,6.19
2257.78,6.33
2280.36,6.45
2303.17,6.58
2326.20,6.71
2349.46,6.82
2372.95,6.95
2396.68,7.07
2420.65,7.18
2444.86,7.27
2469.31,7.38
2494.00,7.45
2518.94,7.53
2544.13,7.60
2569.57,7.66
2595.27,7.69
2621.22,7.73
2647.43,7.74
2673.90,7.74
2700.64,7.72
2727.65,7.70
2754.93,7.65
2782.48,7.59
2810.30,7.53
2838.40,7.46
2866.79,7.39
2895.46,7.33
2924.41,7.28
2953.65,7.25
2983.19,7.19
3013.02,7.18
3043.15,7.18
3073.58,7.18
3104.32,7.18
3135.36,7.18
3166.72,7.22
3198.38,7.24
3230.37,7.27
3262.67,7.30
3295.30,7.32
3328.25,7.36
3361.53,7.41
3395.15,7.42
3429.10,7.45
3463.39,7.46
3498.03,7.46
3533.01,7.46
3568.34,7.43
3604.02,7.40
3640.06,7.37
3676.46,7.31
3713.22,7.26
3750.36,7.22
3787.86,7.17
3825.74,7.12
3864.00,7.08
3902.64,7.03
3941.66,6.97
3981.08,6.91
4020.89,6.85
4061.10,6.79
4101.71,6.73
4142.73,6.67
4184.15,6.59
4226.00,6.51
4268.26,6.45
4310.94,6.36
4354.05,6.29
4397.59,6.22
4441.56,6.14
4485.98,6.10
4530.84,6.05
4576.15,6.00
4621.91,5.96
4668.13,5.91
4714.81,5.88
4761.96,5.82
4809.58,5.77
4857.67,5.71
4906.25,5.65
4955.31,5.57
5004.87,5.49
5054.91,5.40
5105.46,5.29
5156.52,5.20
5208.08,5.10
5260.16,4.99
5312.77,4.89
5365.89,4.76
5419.55,4.64
5473.75,4.51
5528.49,4.39
5583.77,4.25
5639.61,4.13
5696.00,4.04
5752.96,3.94
5810.49,3.86
5868.60,3.78
5927.28,3.72
5986.56,3.66
6046.42,3.60
6106.89,3.56
6167.96,3.55
6229.64,3.58
6291.93,3.61
6354.85,3.69
6418.40,3.78
6482.58,3.89
6547.41,4.01
6612.88,4.16
6679.01,4.28
6745.80,4.40
6813.26,4.52
6881.39,4.62
6950.21,4.70
7019.71,4.77
7089.91,4.80
7160.81,4.82
7232.41,4.80
7304.74,4.80
7377.79,4.78
7451.56,4.74
7526.08,4.68
7601.34,4.56
7677.35,4.41
7754.13,4.25
7831.67,4.02
7909.98,3.71
7989.08,3.33
8068.98,2.89
8149.67,2.42
8231.16,1.90
8313.47,1.38
8396.61,0.87
8480.57,0.35
8565.38,-0.14
8651.03,-0.61
8737.54,-1.04
8824.92,-1.45
8913.17,-1.84
9002.30,-2.19
9092.32,-2.54
9183.25,-2.90
9275.08,-3.24
9367.83,-3.57
9461.51,-3.88
9556.12,-4.19
9651.68,-4.48
9748.20,-4.77
9845.68,-5.02
9944.14,-5.28
10043.58,-5.53
10144.02,-5.79
10245.46,-6.04
10347.91,-6.26
10451.39,-6.43
10555.91,-6.59
10661.46,-6.69
10768.08,-6.78
10875.76,-6.83
10984.52,-6.89
11094.36,-6.92
11205.31,-6.97
11317.36,-7.01
11430.53,-7.06
11544.84,-7.12
11660.29,-7.23
11776.89,-7.34
11894.66,-7.46
12013.60,-7.59
12133.74,-7.74
12255.08,-7.90
12377.63,-8.05
12501.41,-8.19
12626.42,-8.34
12752.68,-8.50
12880.21,-8.62
13009.01,-8.74
13139.10,-8.86
13270.49,-8.97
13403.20,-9.08
13537.23,-9.19
13672.60,-9.29
13809.33,-9.38
13947.42,-9.49
14086.90,-9.58
14227.77,-9.66
14370.04,-9.77
14513.74,-9.88
14658.88,-9.95
14805.47,-10.05
14953.52,-10.12
15103.06,-10.16
15254.09,-10.20
15406.63,-10.14
15560.70,-9.96
15716.30,-9.72
15873.47,-9.40
16032.20,-9.00
16192.52,-8.57
16354.45,-8.20
16517.99,-7.91
16683.17,-7.93
16850.01,-8.34
17018.51,-9.23
17188.69,-10.54
17360.58,-12.20
17534.18,-14.41
17709.53,-15.92
17886.62,-17.16
18065.49,-18.62
18246.14,-20.15
18428.60,-21.67
18612.89,-23.19
18799.02,-24.72
18987.01,-26.24
19176.88,-27.77
19368.65,-29.30
19562.33,-30.82
19757.96,-32.35
19955.54,-33.87
