frequency,raw,error,smoothed,error_smoothed,equalization,parametric_eq,fixed_band_eq,equalized_raw,equalized_smoothed,target
20.00,5.27,-0.78,5.28,-0.77,0.80,0.95,0.35,6.07,6.08,6.05
20.20,5.18,-0.85,5.18,-0.85,0.87,0.94,0.36,6.05,6.05,6.03
20.40,5.10,-0.91,5.09,-0.93,0.93,0.94,0.37,6.03,6.01,6.01
20.61,5.01,-0.99,5.01,-0.99,0.97,0.94,0.39,5.99,5.98,6.00
20.81,4.93,-1.05,4.93,-1.05,1.02,0.94,0.40,5.95,5.95,5.98
21.02,4.85,-1.12,4.87,-1.09,1.05,0.94,0.41,5.90,5.92,5.97
21.23,4.85,-1.10,4.85,-1.10,1.07,0.93,0.42,5.92,5.92,5.95
21.44,4.85,-1.09,4.84,-1.09,1.09,0.93,0.43,5.94,5.93,5.94
21.66,4.85,-1.07,4.85,-1.07,1.09,0.93,0.45,5.94,5.94,5.93
21.87,4.85,-1.05,4.85,-1.06,1.08,0.93,0.46,5.93,5.93,5.91
22.09,4.85,-1.04,4.85,-1.04,1.06,0.93,0.48,5.91,5.91,5.90
22.31,4.85,-1.03,4.85,-1.03,1.04,0.92,0.49,5.89,5.89,5.89
22.54,4.85,-1.02,4.85,-1.02,1.02,0.92,0.50,5.87,5.87,5.87
22.76,4.85,-1.01,4.85,-1.01,1.00,0.92,0.52,5.85,5.85,5.86
22.99,4.85,-1.00,4.86,-1.00,0.98,0.92,0.53,5.83,5.84,5.85
23.22,4.87,-0.97,4.87,-0.97,0.96,0.92,0.55,5.83,5.84,5.84
23.45,4.90,-0.94,4.90,-0.94,0.94,0.91,0.57,5.84,5.84,5.84
23.69,4.92,-0.91,4.92,-0.91,0.93,0.91,0.58,5.85,5.85,5.83
23.92,4.94,-0.89,4.94,-0.89,0.91,0.91,0.60,5.85,5.85,5.83
24.16,4.95,-0.88,4.95,-0.88,0.90,0.91,0.62,5.85,5.85,5.83
24.40,4.95,-0.88,4.95,-0.88,0.88,0.90,0.63,5.83,5.83,5.83
24.65,4.95,-0.88,4.95,-0.88,0.86,0.90,0.65,5.81,5.81,5.83
24.89,4.95,-0.87,4.96,-0.87,0.84,0.90,0.67,5.79,5.80,5.83
25.14,4.97,-0.85,4.98,-0.85,0.82,0.90,0.69,5.79,5.80,5.83
25.39,5.01,-0.81,5.01,-0.81,0.80,0.89,0.71,5.82,5.82,5.82
25.65,5.05,-0.77,5.06,-0.77,0.79,0.89,0.72,5.84,5.84,5.82
25.91,5.10,-0.73,5.09,-0.74,0.77,0.89,0.74,5.88,5.86,5.83
26.16,5.10,-0.73,5.10,-0.73,0.76,0.88,0.76,5.87,5.86,5.83
26.43,5.08,-0.75,5.09,-0.75,0.76,0.88,0.78,5.84,5.84,5.83
26.69,5.06,-0.77,5.06,-0.77,0.76,0.88,0.79,5.82,5.82,5.83
26.96,5.04,-0.79,5.05,-0.78,0.76,0.87,0.81,5.80,5.81,5.83
27.23,5.04,-0.78,5.04,-0.79,0.77,0.87,0.83,5.81,5.81,5.83
27.50,5.04,-0.78,5.04,-0.79,0.78,0.87,0.84,5.82,5.82,5.83
27.77,5.04,-0.78,5.04,-0.78,0.78,0.86,0.86,5.82,5.82,5.82
28.05,5.04,-0.78,5.04,-0.78,0.78,0.86,0.87,5.82,5.82,5.82
28.33,5.04,-0.77,5.04,-0.77,0.78,0.86,0.89,5.82,5.82,5.81
28.62,5.04,-0.77,5.04,-0.77,0.77,0.85,0.90,5.81,5.81,5.81
28.90,5.04,-0.77,5.04,-0.76,0.77,0.85,0.91,5.81,5.81,5.81
29.19,5.04,-0.76,5.04,-0.76,0.77,0.85,0.93,5.81,5.81,5.81
29.48,5.04,-0.76,5.04,-0.76,0.76,0.84,0.94,5.80,5.80,5.80
29.78,5.04,-0.76,5.04,-0.76,0.76,0.84,0.95,5.80,5.80,5.80
30.08,5.04,-0.76,5.04,-0.76,0.76,0.83,0.95,5.80,5.80,5.80
30.38,5.04,-0.76,5.04,-0.75,0.75,0.83,0.96,5.79,5.79,5.80
30.68,5.04,-0.74,5.04,-0.75,0.75,0.83,0.96,5.79,5.79,5.79
30.99,5.04,-0.74,5.04,-0.74,0.74,0.82,0.97,5.78,5.78,5.78
31.30,5.04,-0.73,5.04,-0.73,0.74,0.82,0.97,5.78,5.78,5.77
31.61,5.04,-0.73,5.04,-0.73,0.73,0.81,0.97,5.77,5.77,5.77
31.93,5.04,-0.73,5.04,-0.72,0.71,0.81,0.97,5.75,5.75,5.77
32.24,5.04,-0.71,5.04,-0.72,0.70,0.80,0.97,5.74,5.74,5.76
32.57,5.04,-0.71,5.04,-0.71,0.70,0.80,0.97,5.74,5.74,5.75
32.89,5.04,-0.71,5.04,-0.71,0.72,0.80,0.96,5.76,5.76,5.75
33.22,5.04,-0.71,5.05,-0.70,0.76,0.79,0.96,5.80,5.81,5.75
33.55,5.04,-0.70,5.05,-0.70,0.80,0.79,0.95,5.84,5.85,5.75
33.89,5.04,-0.71,5.02,-0.73,0.82,0.78,0.94,5.86,5.84,5.75
34.23,4.95,-0.80,4.91,-0.84,0.81,0.78,0.94,5.76,5.71,5.75
34.57,4.81,-0.93,4.80,-0.95,0.77,0.77,0.93,5.58,5.57,5.75
34.92,4.67,-1.08,4.77,-0.98,0.73,0.76,0.92,5.40,5.50,5.75
35.27,4.88,-0.87,4.94,-0.81,0.69,0.76,0.90,5.57,5.63,5.75
35.62,5.20,-0.56,5.19,-0.57,0.66,0.75,0.89,5.86,5.85,5.76
35.97,5.52,-0.23,5.37,-0.38,0.63,0.75,0.88,6.15,6.00,5.75
36.33,5.37,-0.38,5.37,-0.38,0.59,0.74,0.87,5.96,5.96,5.75
36.70,5.19,-0.55,5.24,-0.50,0.57,0.74,0.86,5.76,5.81,5.74
37.06,5.04,-0.70,5.09,-0.65,0.55,0.73,0.84,5.60,5.64,5.74
37.43,5.04,-0.68,5.03,-0.70,0.57,0.72,0.83,5.61,5.60,5.73
37.81,5.04,-0.68,5.03,-0.69,0.61,0.72,0.82,5.65,5.64,5.72
38.19,5.04,-0.67,5.04,-0.66,0.65,0.71,0.81,5.69,5.69,5.71
38.57,5.04,-0.65,5.04,-0.65,0.67,0.70,0.79,5.71,5.71,5.69
38.95,5.04,-0.64,5.04,-0.64,0.66,0.70,0.78,5.71,5.71,5.68
39.34,5.04,-0.62,5.04,-0.62,0.64,0.69,0.77,5.68,5.68,5.66
39.74,5.04,-0.62,5.04,-0.61,0.62,0.68,0.76,5.66,5.66,5.66
40.14,5.04,-0.60,5.04,-0.60,0.60,0.68,0.75,5.64,5.64,5.64
40.54,5.04,-0.58,5.04,-0.59,0.59,0.67,0.73,5.63,5.63,5.63
40.94,5.04,-0.58,5.04,-0.58,0.58,0.66,0.72,5.62,5.62,5.62
41.35,5.04,-0.57,5.04,-0.57,0.57,0.65,0.71,5.61,5.61,5.61
41.76,5.04,-0.56,5.04,-0.56,0.56,0.65,0.70,5.60,5.60,5.60
42.18,5.04,-0.55,5.04,-0.55,0.55,0.64,0.69,5.60,5.60,5.59
42.60,5.04,-0.55,5.04,-0.55,0.55,0.63,0.69,5.59,5.59,5.60
43.03,5.04,-0.55,5.04,-0.55,0.55,0.62,0.68,5.59,5.59,5.59
43.46,5.04,-0.54,5.04,-0.54,0.55,0.61,0.67,5.59,5.59,5.58
43.90,5.04,-0.54,5.04,-0.54,0.55,0.60,0.66,5.59,5.59,5.58
44.33,5.04,-0.53,5.04,-0.53,0.53,0.60,0.66,5.57,5.57,5.58
44.78,5.04,-0.53,5.04,-0.53,0.51,0.59,0.65,5.55,5.55,5.57
45.23,5.04,-0.53,5.03,-0.53,0.48,0.58,0.64,5.53,5.52,5.57
45.68,5.04,-0.52,5.05,-0.51,0.46,0.57,0.64,5.51,5.52,5.56
46.13,5.07,-0.48,5.11,-0.44,0.45,0.56,0.63,5.53,5.56,5.55
46.60,5.17,-0.37,5.16,-0.38,0.45,0.55,0.63,5.62,5.61,5.54
47.06,5.23,-0.30,5.17,-0.37,0.45,0.54,0.63,5.68,5.61,5.53
47.53,5.11,-0.41,5.12,-0.40,0.45,0.53,0.62,5.56,5.57,5.52
48.01,4.99,-0.52,5.04,-0.47,0.46,0.52,0.62,5.45,5.49,5.51
48.49,4.97,-0.52,4.97,-0.53,0.47,0.51,0.62,5.44,5.43,5.49
48.97,4.95,-0.53,4.95,-0.53,0.48,0.50,0.62,5.43,5.43,5.48
49.46,4.95,-0.52,4.95,-0.51,0.50,0.49,0.62,5.45,5.45,5.47
49.96,4.95,-0.50,4.95,-0.50,0.50,0.47,0.61,5.46,5.45,5.45
50.46,4.95,-0.48,4.95,-0.48,0.50,0.46,0.61,5.45,5.45,5.44
50.96,4.95,-0.47,4.95,-0.47,0.48,0.45,0.61,5.43,5.43,5.42
51.47,4.95,-0.46,4.95,-0.46,0.44,0.44,0.61,5.40,5.40,5.41
51.99,4.95,-0.44,4.95,-0.44,0.42,0.43,0.61,5.37,5.37,5.40
52.51,4.95,-0.43,4.95,-0.43,0.41,0.41,0.61,5.36,5.36,5.38
53.03,4.95,-0.42,4.96,-0.41,0.42,0.40,0.61,5.38,5.38,5.37
53.56,4.95,-0.40,4.96,-0.40,0.47,0.39,0.61,5.42,5.42,5.35
54.10,4.94,-0.40,4.93,-0.41,0.52,0.38,0.61,5.47,5.45,5.34
54.64,4.85,-0.47,4.84,-0.48,0.58,0.36,0.61,5.43,5.42,5.32
55.18,4.72,-0.58,4.69,-0.61,0.63,0.35,0.60,5.35,5.32,5.31
55.74,4.50,-0.78,4.52,-0.77,0.66,0.33,0.60,5.16,5.18,5.29
56.29,4.39,-0.88,4.41,-0.86,0.68,0.32,0.60,5.07,5.09,5.27
56.86,4.39,-0.86,4.44,-0.82,0.68,0.30,0.59,5.08,5.12,5.25
57.42,4.54,-0.69,4.55,-0.69,0.67,0.29,0.59,5.22,5.22,5.23
58.00,4.75,-0.47,4.68,-0.55,0.63,0.27,0.58,5.38,5.31,5.22
58.58,4.75,-0.45,4.76,-0.45,0.56,0.26,0.57,5.31,5.32,5.20
59.16,4.75,-0.43,4.77,-0.41,0.47,0.24,0.57,5.22,5.24,5.18
59.76,4.75,-0.41,4.74,-0.43,0.38,0.23,0.56,5.13,5.11,5.16
60.35,4.75,-0.39,4.75,-0.39,0.31,0.21,0.55,5.06,5.06,5.14
60.96,4.75,-0.37,4.83,-0.29,0.27,0.19,0.54,5.02,5.10,5.12
61.57,4.93,-0.16,4.90,-0.20,0.26,0.18,0.52,5.19,5.16,5.10
62.18,5.01,-0.06,4.92,-0.15,0.25,0.16,0.51,5.26,5.17,5.07
62.80,4.83,-0.21,4.87,-0.18,0.25,0.14,0.49,5.08,5.11,5.04
63.43,4.72,-0.29,4.75,-0.26,0.24,0.12,0.47,4.97,5.00,5.01
64.07,4.66,-0.32,4.67,-0.31,0.24,0.10,0.46,4.91,4.92,4.99
64.71,4.66,-0.29,4.65,-0.30,0.25,0.08,0.44,4.91,4.90,4.95
65.35,4.66,-0.26,4.66,-0.26,0.24,0.07,0.41,4.90,4.90,4.92
66.01,4.66,-0.22,4.66,-0.22,0.21,0.05,0.39,4.87,4.87,4.88
66.67,4.66,-0.19,4.65,-0.21,0.17,0.03,0.37,4.83,4.81,4.86
67.33,4.66,-0.15,4.66,-0.15,0.11,0.01,0.34,4.77,4.78,4.82
68.01,4.66,-0.12,4.72,-0.07,0.06,-0.02,0.32,4.72,4.78,4.79
68.69,4.81,0.07,4.80,0.05,0.03,-0.04,0.29,4.84,4.82,4.74
69.37,4.86,0.15,4.82,0.11,0.00,-0.06,0.26,4.86,4.82,4.71
70.07,4.82,0.15,4.78,0.11,-0.02,-0.08,0.23,4.80,4.76,4.67
70.77,4.62,-0.01,4.68,0.04,-0.05,-0.10,0.20,4.58,4.63,4.64
71.48,4.56,-0.04,4.59,-0.01,-0.08,-0.12,0.16,4.48,4.51,4.60
72.19,4.56,0.01,4.53,-0.03,-0.11,-0.15,0.13,4.46,4.43,4.56
72.91,4.56,0.04,4.55,0.03,-0.12,-0.17,0.10,4.44,4.43,4.52
73.64,4.56,0.08,4.64,0.16,-0.13,-0.19,0.06,4.43,4.51,4.48
74.38,4.69,0.25,4.69,0.25,-0.14,-0.22,0.03,4.55,4.55,4.45
75.12,4.84,0.44,4.69,0.29,-0.17,-0.24,-0.01,4.67,4.52,4.40
75.87,4.55,0.19,4.63,0.27,-0.21,-0.27,-0.05,4.34,4.42,4.36
76.63,4.48,0.17,4.53,0.21,-0.25,-0.29,-0.09,4.23,4.28,4.32
77.40,4.47,0.20,4.45,0.17,-0.30,-0.32,-0.12,4.17,4.15,4.28
78.17,4.47,0.24,4.45,0.22,-0.34,-0.35,-0.16,4.14,4.12,4.23
78.95,4.47,0.28,4.49,0.30,-0.36,-0.37,-0.20,4.12,4.13,4.19
79.74,4.50,0.35,4.57,0.42,-0.36,-0.40,-0.24,4.14,4.20,4.15
80.54,4.65,0.55,4.59,0.49,-0.36,-0.43,-0.28,4.29,4.23,4.10
81.35,4.65,0.59,4.59,0.53,-0.36,-0.45,-0.33,4.29,4.22,4.06
82.16,4.41,0.40,4.49,0.48,-0.38,-0.48,-0.37,4.03,4.12,4.01
82.98,4.37,0.40,4.32,0.35,-0.40,-0.51,-0.41,3.97,3.91,3.97
83.81,4.17,0.25,4.16,0.24,-0.43,-0.54,-0.45,3.74,3.73,3.92
84.65,4.05,0.18,4.12,0.25,-0.45,-0.57,-0.50,3.61,3.68,3.87
85.50,4.14,0.33,4.19,0.37,-0.46,-0.60,-0.54,3.68,3.73,3.81
86.35,4.36,0.60,4.34,0.58,-0.48,-0.63,-0.59,3.88,3.86,3.76
87.22,4.51,0.80,4.43,0.71,-0.53,-0.66,-0.63,3.98,3.90,3.72
88.09,4.44,0.78,4.40,0.73,-0.60,-0.69,-0.68,3.85,3.80,3.66
88.97,4.19,0.58,4.29,0.68,-0.68,-0.72,-0.72,3.51,3.61,3.61
89.86,4.18,0.63,4.18,0.62,-0.75,-0.75,-0.77,3.43,3.43,3.55
90.76,4.18,0.68,4.16,0.66,-0.79,-0.78,-0.82,3.39,3.37,3.50
91.66,4.18,0.75,4.25,0.81,-0.82,-0.81,-0.87,3.36,3.43,3.44
92.58,4.33,0.95,4.31,0.93,-0.85,-0.84,-0.92,3.48,3.46,3.38
93.51,4.39,1.07,4.31,0.99,-0.90,-0.87,-0.96,3.50,3.41,3.32
94.44,4.23,0.98,4.25,0.99,-0.96,-0.91,-1.01,3.27,3.29,3.26
95.39,4.09,0.90,4.14,0.95,-1.02,-0.94,-1.06,3.07,3.12,3.19
96.34,4.09,0.96,4.11,0.99,-1.08,-0.97,-1.11,3.02,3.04,3.13
97.30,4.13,1.08,4.17,1.12,-1.11,-1.00,-1.16,3.02,3.06,3.05
98.28,4.27,1.28,4.19,1.21,-1.13,-1.04,-1.21,3.14,3.06,2.99
99.26,4.20,1.29,4.14,1.23,-1.16,-1.07,-1.27,3.04,2.97,2.91
100.25,3.94,1.11,4.04,1.20,-1.19,-1.10,-1.32,2.75,2.85,2.84
101.25,3.92,1.16,3.94,1.18,-1.22,-1.14,-1.37,2.70,2.72,2.76
102.27,3.91,1.23,3.89,1.21,-1.24,-1.17,-1.42,2.67,2.65,2.68
103.29,3.89,1.29,3.88,1.28,-1.26,-1.20,-1.47,2.64,2.63,2.61
104.32,3.84,1.31,3.83,1.30,-1.28,-1.24,-1.52,2.57,2.56,2.53
105.37,3.75,1.30,3.76,1.31,-1.31,-1.27,-1.57,2.44,2.44,2.45
106.42,3.68,1.31,3.67,1.30,-1.36,-1.30,-1.62,2.32,2.31,2.37
107.48,3.62,1.33,3.63,1.33,-1.40,-1.34,-1.67,2.22,2.23,2.29
108.56,3.59,1.37,3.67,1.45,-1.44,-1.37,-1.71,2.15,2.23,2.23
109.64,3.73,1.58,3.71,1.56,-1.47,-1.41,-1.76,2.26,2.23,2.15
110.74,3.80,1.73,3.68,1.61,-1.52,-1.44,-1.81,2.29,2.17,2.07
111.85,3.56,1.55,3.61,1.60,-1.57,-1.47,-1.85,1.99,2.04,2.01
112.97,3.43,1.49,3.48,1.54,-1.63,-1.51,-1.89,1.81,1.86,1.94
114.10,3.42,1.55,3.42,1.54,-1.67,-1.54,-1.93,1.75,1.75,1.88
115.24,3.45,1.64,3.49,1.68,-1.71,-1.57,-1.97,1.74,1.78,1.81
116.39,3.57,1.82,3.55,1.80,-1.73,-1.60,-2.00,1.84,1.81,1.75
117.55,3.62,1.93,3.54,1.85,-1.75,-1.64,-2.03,1.87,1.78,1.69
118.73,3.43,1.80,3.48,1.85,-1.77,-1.67,-2.06,1.66,1.71,1.63
119.92,3.34,1.77,3.39,1.81,-1.79,-1.70,-2.09,1.55,1.60,1.58
121.12,3.34,1.82,3.31,1.79,-1.82,-1.73,-2.12,1.52,1.49,1.52
122.33,3.29,1.82,3.28,1.81,-1.86,-1.76,-2.13,1.44,1.42,1.47
123.55,3.23,1.81,3.23,1.81,-1.88,-1.79,-2.15,1.35,1.35,1.42
124.79,3.18,1.81,3.20,1.83,-1.91,-1.82,-2.17,1.28,1.29,1.37
126.03,3.19,1.87,3.24,1.92,-1.95,-1.85,-2.18,1.25,1.29,1.32
127.29,3.33,2.06,3.34,2.07,-2.00,-1.88,-2.19,1.33,1.33,1.27
128.57,3.41,2.19,3.36,2.14,-2.06,-1.91,-2.19,1.35,1.30,1.22
129.85,3.41,2.24,3.31,2.14,-2.11,-1.94,-2.20,1.30,1.20,1.17
131.15,3.11,1.99,3.23,2.11,-2.14,-1.97,-2.20,0.97,1.10,1.12
132.46,3.14,2.07,3.22,2.14,-2.15,-2.00,-2.19,0.99,1.07,1.07
133.79,3.28,2.25,3.22,2.20,-2.15,-2.02,-2.19,1.13,1.07,1.03
135.12,3.30,2.32,3.18,2.19,-2.14,-2.05,-2.18,1.16,1.03,0.98
136.48,3.04,2.11,3.06,2.12,-2.13,-2.07,-2.17,0.91,0.93,0.94
137.84,2.79,1.90,2.97,2.08,-2.13,-2.10,-2.15,0.67,0.84,0.89
139.22,2.96,2.12,2.91,2.07,-2.14,-2.12,-2.14,0.82,0.78,0.84
140.61,3.05,2.26,2.92,2.12,-2.16,-2.15,-2.13,0.90,0.76,0.80
142.02,2.85,2.11,2.93,2.19,-2.18,-2.17,-2.11,0.67,0.75,0.74
143.44,2.85,2.16,2.91,2.22,-2.21,-2.19,-2.09,0.64,0.70,0.69
144.87,2.94,2.30,2.89,2.25,-2.25,-2.21,-2.07,0.69,0.64,0.64
146.32,2.96,2.36,2.90,2.30,-2.29,-2.23,-2.05,0.67,0.61,0.60
147.78,2.83,2.28,2.90,2.35,-2.32,-2.25,-2.03,0.52,0.58,0.55
149.26,2.83,2.33,2.87,2.36,-2.33,-2.27,-2.01,0.51,0.54,0.51
150.75,2.90,2.44,2.83,2.37,-2.32,-2.28,-1.99,0.58,0.51,0.46
152.26,2.76,2.35,2.76,2.35,-2.31,-2.30,-1.97,0.45,0.45,0.41
153.78,2.66,2.28,2.65,2.28,-2.30,-2.31,-1.95,0.36,0.35,0.38
155.32,2.51,2.18,2.57,2.24,-2.29,-2.33,-1.93,0.22,0.28,0.33
156.88,2.52,2.23,2.53,2.24,-2.29,-2.34,-1.91,0.23,0.24,0.29
158.44,2.58,2.34,2.51,2.27,-2.30,-2.35,-1.90,0.28,0.21,0.25
160.03,2.47,2.27,2.50,2.30,-2.32,-2.37,-1.88,0.15,0.18,0.20
161.63,2.47,2.32,2.48,2.32,-2.34,-2.37,-1.86,0.13,0.14,0.15
163.24,2.46,2.35,2.49,2.38,-2.36,-2.38,-1.85,0.11,0.14,0.11
164.88,2.50,2.43,2.51,2.44,-2.37,-2.39,-1.83,0.13,0.15,0.07
166.53,2.57,2.54,2.47,2.44,-2.37,-2.40,-1.82,0.20,0.10,0.03
168.19,2.36,2.37,2.40,2.41,-2.37,-2.40,-1.81,-0.01,0.03,-0.01
169.87,2.24,2.29,2.30,2.35,-2.37,-2.41,-1.80,-0.12,-0.06,-0.04
171.57,2.25,2.33,2.21,2.29,-2.37,-2.41,-1.79,-0.11,-0.16,-0.08
173.29,2.18,2.30,2.17,2.29,-2.36,-2.41,-1.78,-0.18,-0.19,-0.12
175.02,2.14,2.28,2.16,2.31,-2.35,-2.41,-1.78,-0.21,-0.19,-0.14
176.77,2.13,2.31,2.17,2.35,-2.33,-2.42,-1.77,-0.20,-0.16,-0.18
178.54,2.21,2.42,2.19,2.39,-2.32,-2.41,-1.77,-0.10,-0.13,-0.21
180.32,2.21,2.45,2.16,2.39,-2.31,-2.41,-1.77,-0.09,-0.15,-0.23
182.13,2.07,2.33,2.09,2.35,-2.30,-2.41,-1.77,-0.23,-0.21,-0.26
183.95,1.96,2.24,1.99,2.26,-2.30,-2.40,-1.77,-0.34,-0.32,-0.28
185.79,1.91,2.21,1.91,2.21,-2.30,-2.40,-1.77,-0.39,-0.39,-0.30
187.65,1.89,2.21,1.89,2.21,-2.30,-2.39,-1.78,-0.41,-0.41,-0.32
189.52,1.91,2.25,1.92,2.25,-2.28,-2.38,-1.78,-0.37,-0.37,-0.34
191.42,1.93,2.28,1.96,2.31,-2.27,-2.37,-1.79,-0.34,-0.31,-0.35
193.33,2.01,2.38,1.98,2.35,-2.26,-2.36,-1.80,-0.25,-0.28,-0.37
195.27,1.98,2.37,1.95,2.33,-2.26,-2.35,-1.80,-0.28,-0.31,-0.39
197.22,1.85,2.26,1.87,2.28,-2.26,-2.34,-1.81,-0.41,-0.39,-0.41
199.19,1.76,2.18,1.78,2.20,-2.26,-2.33,-1.82,-0.49,-0.48,-0.42
201.18,1.71,2.15,1.72,2.15,-2.24,-2.31,-1.84,-0.53,-0.53,-0.44
203.19,1.70,2.16,1.72,2.17,-2.22,-2.30,-1.85,-0.51,-0.50,-0.45
205.23,1.73,2.20,1.74,2.21,-2.18,-2.28,-1.86,-0.45,-0.45,-0.47
207.28,1.77,2.26,1.73,2.21,-2.15,-2.26,-1.87,-0.38,-0.42,-0.49
209.35,1.68,2.18,1.68,2.19,-2.13,-2.25,-1.89,-0.45,-0.45,-0.50
211.44,1.59,2.12,1.61,2.13,-2.11,-2.23,-1.90,-0.52,-0.50,-0.52
213.56,1.52,2.06,1.52,2.06,-2.10,-2.21,-1.91,-0.58,-0.58,-0.54
215.69,1.47,2.03,1.46,2.02,-2.07,-2.19,-1.93,-0.60,-0.62,-0.56
217.85,1.40,1.98,1.42,2.00,-2.04,-2.16,-1.94,-0.64,-0.62,-0.57
220.03,1.40,2.00,1.42,2.02,-2.00,-2.14,-1.95,-0.60,-0.58,-0.60
222.23,1.42,2.03,1.41,2.02,-1.97,-2.12,-1.96,-0.55,-0.56,-0.61
224.45,1.43,2.05,1.36,1.98,-1.95,-2.09,-1.97,-0.52,-0.59,-0.62
226.70,1.26,1.89,1.30,1.93,-1.93,-2.07,-1.98,-0.66,-0.63,-0.63
228.96,1.17,1.81,1.24,1.88,-1.90,-2.04,-1.98,-0.73,-0.66,-0.64
231.25,1.25,1.89,1.19,1.84,-1.87,-2.02,-1.99,-0.62,-0.68,-0.64
233.57,1.19,1.84,1.19,1.84,-1.84,-1.99,-1.99,-0.64,-0.65,-0.65
235.90,1.14,1.80,1.17,1.83,-1.80,-1.96,-1.99,-0.66,-0.63,-0.66
238.26,1.14,1.80,1.12,1.78,-1.78,-1.93,-1.99,-0.64,-0.66,-0.66
240.64,1.09,1.75,1.09,1.75,-1.76,-1.90,-1.99,-0.67,-0.68,-0.66
243.05,1.05,1.71,1.06,1.72,-1.74,-1.87,-1.98,-0.69,-0.68,-0.66
245.48,1.03,1.69,1.06,1.71,-1.73,-1.84,-1.97,-0.69,-0.67,-0.66
247.93,1.07,1.73,1.06,1.71,-1.71,-1.81,-1.96,-0.63,-0.65,-0.66
250.41,1.08,1.74,1.05,1.71,-1.68,-1.78,-1.95,-0.60,-0.63,-0.65
252.92,1.00,1.65,1.03,1.68,-1.66,-1.75,-1.93,-0.66,-0.63,-0.65
255.45,0.99,1.65,0.98,1.63,-1.64,-1.72,-1.91,-0.64,-0.66,-0.66
258.00,0.92,1.58,0.94,1.60,-1.60,-1.68,-1.89,-0.68,-0.67,-0.66
260.58,0.91,1.57,0.91,1.57,-1.57,-1.65,-1.86,-0.66,-0.66,-0.66
263.19,0.87,1.54,0.86,1.53,-1.53,-1.62,-1.83,-0.65,-0.66,-0.67
265.82,0.81,1.50,0.81,1.50,-1.48,-1.58,-1.80,-0.67,-0.67,-0.68
268.48,0.74,1.43,0.74,1.43,-1.44,-1.55,-1.77,-0.70,-0.70,-0.69
271.16,0.68,1.39,0.68,1.39,-1.40,-1.51,-1.73,-0.71,-0.72,-0.71
273.87,0.61,1.32,0.63,1.35,-1.36,-1.48,-1.70,-0.75,-0.72,-0.71
276.61,0.61,1.34,0.60,1.33,-1.32,-1.44,-1.66,-0.71,-0.72,-0.73
279.38,0.56,1.31,0.55,1.29,-1.29,-1.40,-1.61,-0.73,-0.74,-0.74
282.17,0.51,1.26,0.51,1.26,-1.26,-1.37,-1.57,-0.75,-0.75,-0.75
284.99,0.45,1.21,0.47,1.22,-1.24,-1.33,-1.53,-0.79,-0.77,-0.75
287.84,0.44,1.19,0.46,1.22,-1.22,-1.29,-1.48,-0.78,-0.76,-0.75
290.72,0.47,1.22,0.46,1.21,-1.20,-1.26,-1.43,-0.73,-0.75,-0.75
293.63,0.48,1.24,0.45,1.20,-1.19,-1.22,-1.39,-0.71,-0.74,-0.76
296.57,0.39,1.14,0.43,1.18,-1.17,-1.18,-1.34,-0.78,-0.75,-0.75
299.53,0.39,1.14,0.40,1.15,-1.16,-1.14,-1.29,-0.76,-0.75,-0.75
302.53,0.40,1.15,0.38,1.13,-1.14,-1.10,-1.24,-0.73,-0.75,-0.75
305.55,0.38,1.13,0.38,1.12,-1.11,-1.07,-1.19,-0.73,-0.74,-0.74
308.61,0.33,1.08,0.35,1.09,-1.09,-1.03,-1.14,-0.75,-0.74,-0.75
311.69,0.32,1.07,0.31,1.06,-1.05,-0.99,-1.09,-0.73,-0.74,-0.75
314.81,0.26,1.02,0.27,1.02,-1.02,-0.95,-1.04,-0.76,-0.76,-0.75
317.96,0.23,0.99,0.22,0.98,-0.98,-0.91,-0.98,-0.75,-0.77,-0.76
321.14,0.16,0.92,0.18,0.94,-0.94,-0.87,-0.93,-0.78,-0.76,-0.76
324.35,0.14,0.90,0.16,0.91,-0.90,-0.83,-0.88,-0.76,-0.75,-0.75
327.59,0.14,0.90,0.12,0.87,-0.86,-0.79,-0.83,-0.72,-0.75,-0.76
330.87,0.08,0.84,0.07,0.82,-0.82,-0.75,-0.78,-0.74,-0.76,-0.76
334.18,-0.02,0.74,0.01,0.77,-0.78,-0.71,-0.73,-0.80,-0.78,-0.76
337.52,-0.06,0.71,-0.04,0.72,-0.75,-0.67,-0.68,-0.80,-0.79,-0.76
340.90,-0.06,0.71,-0.06,0.70,-0.71,-0.63,-0.63,-0.77,-0.77,-0.77
344.30,-0.06,0.70,-0.07,0.69,-0.67,-0.59,-0.58,-0.73,-0.74,-0.76
347.75,-0.11,0.64,-0.11,0.65,-0.63,-0.55,-0.54,-0.74,-0.74,-0.75
351.23,-0.15,0.62,-0.16,0.60,-0.60,-0.51,-0.49,-0.74,-0.75,-0.76
354.74,-0.22,0.53,-0.20,0.55,-0.56,-0.47,-0.44,-0.78,-0.76,-0.75
358.28,-0.24,0.51,-0.23,0.51,-0.52,-0.43,-0.39,-0.76,-0.75,-0.75
361.87,-0.24,0.50,-0.26,0.48,-0.48,-0.39,-0.34,-0.72,-0.74,-0.74
365.49,-0.31,0.42,-0.29,0.45,-0.44,-0.35,-0.30,-0.74,-0.72,-0.73
369.14,-0.32,0.42,-0.32,0.41,-0.40,-0.30,-0.25,-0.72,-0.72,-0.73
372.83,-0.36,0.36,-0.36,0.36,-0.37,-0.26,-0.20,-0.72,-0.73,-0.72
376.56,-0.40,0.32,-0.41,0.31,-0.34,-0.22,-0.16,-0.73,-0.74,-0.72
380.33,-0.46,0.26,-0.44,0.27,-0.30,-0.18,-0.11,-0.76,-0.75,-0.72
384.13,-0.48,0.24,-0.46,0.26,-0.27,-0.14,-0.07,-0.75,-0.73,-0.72
387.97,-0.47,0.25,-0.47,0.25,-0.23,-0.10,-0.02,-0.70,-0.71,-0.72
391.85,-0.48,0.24,-0.51,0.21,-0.19,-0.06,0.02,-0.67,-0.70,-0.71
395.77,-0.58,0.15,-0.57,0.15,-0.13,-0.01,0.07,-0.71,-0.70,-0.73
399.73,-0.68,0.05,-0.66,0.07,-0.06,0.03,0.11,-0.74,-0.72,-0.73
403.72,-0.75,-0.02,-0.75,-0.02,0.03,0.07,0.15,-0.72,-0.72,-0.73
407.76,-0.85,-0.10,-0.85,-0.11,0.14,0.11,0.19,-0.71,-0.71,-0.75
411.84,-0.96,-0.21,-0.97,-0.22,0.25,0.15,0.24,-0.71,-0.72,-0.75
415.96,-1.12,-0.37,-1.13,-0.37,0.37,0.19,0.28,-0.74,-0.75,-0.75
420.12,-1.29,-0.52,-1.27,-0.52,0.49,0.24,0.32,-0.79,-0.78,-0.76
424.32,-1.42,-0.66,-1.39,-0.63,0.61,0.28,0.36,-0.81,-0.78,-0.75
428.56,-1.45,-0.70,-1.46,-0.71,0.70,0.32,0.40,-0.74,-0.76,-0.75
432.85,-1.49,-0.76,-1.51,-0.78,0.78,0.36,0.44,-0.71,-0.74,-0.73
437.18,-1.56,-0.84,-1.57,-0.86,0.83,0.40,0.48,-0.73,-0.74,-0.72
441.55,-1.60,-0.92,-1.57,-0.89,0.85,0.45,0.51,-0.75,-0.72,-0.68
445.96,-1.57,-0.93,-1.52,-0.88,0.84,0.49,0.55,-0.73,-0.67,-0.64
450.42,-1.37,-0.78,-1.43,-0.84,0.82,0.53,0.58,-0.54,-0.61,-0.59
454.93,-1.31,-0.77,-1.32,-0.78,0.80,0.57,0.62,-0.51,-0.52,-0.54
459.48,-1.27,-0.79,-1.21,-0.73,0.77,0.61,0.65,-0.49,-0.44,-0.48
464.07,-1.12,-0.69,-1.14,-0.71,0.75,0.65,0.68,-0.37,-0.40,-0.43
468.71,-1.05,-0.66,-1.07,-0.69,0.72,0.69,0.71,-0.33,-0.35,-0.38
473.40,-1.04,-0.71,-1.02,-0.69,0.70,0.73,0.74,-0.34,-0.32,-0.32
478.13,-0.99,-0.72,-0.99,-0.72,0.69,0.77,0.77,-0.29,-0.29,-0.26
482.91,-0.95,-0.73,-0.95,-0.73,0.70,0.81,0.79,-0.25,-0.25,-0.22
487.74,-0.91,-0.73,-0.89,-0.72,0.72,0.85,0.82,-0.18,-0.17,-0.18
492.62,-0.86,-0.72,-0.86,-0.72,0.75,0.89,0.84,-0.10,-0.10,-0.14
497.55,-0.82,-0.72,-0.84,-0.74,0.78,0.93,0.86,-0.03,-0.06,-0.10
502.52,-0.87,-0.79,-0.86,-0.79,0.81,0.97,0.88,-0.05,-0.05,-0.08
507.55,-0.91,-0.86,-0.91,-0.86,0.84,1.01,0.90,-0.07,-0.07,-0.05
512.62,-0.97,-0.93,-0.95,-0.91,0.86,1.05,0.92,-0.11,-0.10,-0.04
517.75,-0.98,-0.94,-0.97,-0.94,0.88,1.09,0.93,-0.10,-0.09,-0.04
522.93,-0.97,-0.93,-0.97,-0.93,0.91,1.13,0.95,-0.06,-0.07,-0.04
