frequency,raw,error,smoothed,error_smoothed,equalization,parametric_eq,fixed_band_eq,equalized_raw,equalized_smoothed,target
20.00,4.02,-3.34,4.02,-3.34,3.33,2.81,0.61,7.34,7.34,7.35
20.20,4.08,-3.26,4.08,-3.26,3.25,2.77,0.63,7.33,7.33,7.33
20.40,4.14,-3.17,4.14,-3.18,3.18,2.73,0.65,7.31,7.31,7.31
20.61,4.20,-3.11,4.20,-3.10,3.10,2.69,0.67,7.30,7.30,7.30
20.81,4.26,-3.02,4.26,-3.02,3.03,2.65,0.69,7.29,7.29,7.28
21.02,4.32,-2.95,4.31,-2.95,2.97,2.61,0.71,7.28,7.28,7.27
21.23,4.37,-2.88,4.36,-2.89,2.90,2.57,0.74,7.26,7.26,7.25
21.44,4.41,-2.83,4.41,-2.83,2.83,2.53,0.76,7.24,7.24,7.24
21.66,4.45,-2.78,4.45,-2.77,2.77,2.49,0.79,7.22,7.22,7.23
21.87,4.50,-2.71,4.49,-2.72,2.71,2.45,0.81,7.21,7.20,7.21
22.09,4.54,-2.66,4.54,-2.65,2.65,2.41,0.84,7.18,7.19,7.20
22.31,4.60,-2.59,4.59,-2.59,2.59,2.36,0.86,7.18,7.18,7.19
22.54,4.65,-2.53,4.65,-2.53,2.53,2.32,0.89,7.17,7.18,7.18
22.76,4.70,-2.47,4.70,-2.46,2.47,2.28,0.92,7.17,7.17,7.16
22.99,4.76,-2.40,4.75,-2.40,2.41,2.24,0.95,7.17,7.16,7.15
23.22,4.80,-2.35,4.80,-2.35,2.36,2.20,0.98,7.15,7.15,7.14
23.45,4.85,-2.30,4.84,-2.30,2.30,2.16,1.01,7.14,7.14,7.14
23.69,4.89,-2.25,4.89,-2.25,2.24,2.12,1.04,7.13,7.13,7.13
23.92,4.94,-2.19,4.94,-2.19,2.18,2.08,1.07,7.12,7.12,7.13
24.16,5.00,-2.13,4.99,-2.13,2.12,2.04,1.10,7.12,7.12,7.13
24.40,5.06,-2.07,5.06,-2.07,2.06,2.00,1.13,7.12,7.12,7.13
24.65,5.13,-2.00,5.13,-2.00,2.00,1.95,1.16,7.13,7.13,7.13
24.89,5.20,-1.93,5.19,-1.93,1.94,1.91,1.20,7.14,7.13,7.13
25.14,5.26,-1.87,5.25,-1.87,1.88,1.87,1.23,7.14,7.14,7.13
25.39,5.31,-1.82,5.31,-1.82,1.83,1.83,1.26,7.14,7.14,7.13
25.65,5.35,-1.78,5.35,-1.78,1.78,1.79,1.29,7.13,7.13,7.12
25.91,5.40,-1.74,5.39,-1.74,1.74,1.75,1.33,7.13,7.13,7.13
26.16,5.44,-1.70,5.43,-1.70,1.70,1.71,1.36,7.14,7.13,7.13
26.43,5.47,-1.67,5.47,-1.66,1.67,1.67,1.39,7.13,7.14,7.13
26.69,5.50,-1.63,5.50,-1.63,1.64,1.62,1.42,7.13,7.13,7.13
26.96,5.53,-1.60,5.53,-1.60,1.60,1.58,1.45,7.13,7.13,7.13
27.23,5.56,-1.57,5.56,-1.57,1.56,1.54,1.47,7.12,7.12,7.13
27.50,5.61,-1.52,5.60,-1.53,1.51,1.50,1.50,7.12,7.11,7.13
27.77,5.65,-1.48,5.64,-1.48,1.46,1.46,1.53,7.11,7.11,7.12
28.05,5.69,-1.44,5.70,-1.42,1.41,1.42,1.55,7.09,7.10,7.12
28.33,5.76,-1.35,5.76,-1.36,1.35,1.38,1.57,7.11,7.11,7.11
28.62,5.83,-1.28,5.83,-1.28,1.29,1.34,1.59,7.12,7.12,7.11
28.90,5.91,-1.20,5.89,-1.21,1.24,1.30,1.60,7.14,7.13,7.11
29.19,5.95,-1.16,5.94,-1.16,1.19,1.26,1.62,7.13,7.13,7.11
29.48,5.98,-1.13,5.98,-1.12,1.14,1.22,1.63,7.11,7.12,7.11
29.78,6.01,-1.10,6.01,-1.10,1.10,1.18,1.63,7.10,7.10,7.10
30.08,6.04,-1.07,6.04,-1.07,1.06,1.14,1.64,7.09,7.09,7.10
30.38,6.07,-1.03,6.06,-1.03,1.02,1.09,1.64,7.09,7.09,7.10
30.68,6.10,-0.99,6.10,-0.99,0.99,1.05,1.64,7.08,7.08,7.09
30.99,6.13,-0.96,6.13,-0.95,0.95,1.01,1.63,7.08,7.08,7.09
31.30,6.17,-0.91,6.16,-0.91,0.91,0.97,1.62,7.07,7.07,7.07
31.61,6.21,-0.86,6.20,-0.87,0.86,0.93,1.61,7.06,7.06,7.07
31.93,6.25,-0.82,6.25,-0.81,0.81,0.89,1.59,7.05,7.06,7.07
32.24,6.30,-0.76,6.30,-0.76,0.76,0.86,1.57,7.05,7.06,7.06
32.57,6.36,-0.70,6.35,-0.70,0.71,0.82,1.54,7.06,7.06,7.05
32.89,6.41,-0.64,6.40,-0.65,0.66,0.78,1.51,7.07,7.06,7.05
33.22,6.45,-0.60,6.45,-0.60,0.61,0.74,1.48,7.06,7.06,7.05
33.55,6.49,-0.56,6.48,-0.57,0.57,0.70,1.45,7.06,7.05,7.05
33.89,6.52,-0.54,6.52,-0.53,0.53,0.66,1.41,7.05,7.05,7.05
34.23,6.55,-0.50,6.55,-0.50,0.50,0.62,1.37,7.04,7.05,7.05
34.57,6.59,-0.46,6.58,-0.47,0.46,0.58,1.33,7.05,7.04,7.05
34.92,6.62,-0.44,6.62,-0.43,0.43,0.54,1.28,7.04,7.05,7.05
35.27,6.66,-0.39,6.66,-0.40,0.39,0.50,1.23,7.05,7.05,7.05
35.62,6.70,-0.36,6.70,-0.36,0.36,0.46,1.18,7.06,7.05,7.06
35.97,6.74,-0.32,6.73,-0.32,0.32,0.42,1.13,7.06,7.06,7.05
36.33,6.77,-0.28,6.77,-0.28,0.29,0.39,1.08,7.05,7.05,7.05
36.70,6.80,-0.25,6.80,-0.24,0.25,0.35,1.02,7.04,7.05,7.05
37.06,6.84,-0.20,6.83,-0.21,0.20,0.31,0.97,7.04,7.03,7.04
37.43,6.87,-0.16,6.86,-0.17,0.16,0.27,0.91,7.03,7.02,7.03
37.81,6.89,-0.14,6.89,-0.13,0.12,0.23,0.85,7.00,7.01,7.02
38.19,6.93,-0.08,6.93,-0.08,0.08,0.20,0.79,7.00,7.01,7.01
38.57,6.98,-0.02,6.98,-0.02,0.03,0.16,0.73,7.00,7.01,6.99
38.95,7.03,0.05,7.01,0.04,-0.02,0.12,0.67,7.01,6.99,6.98
39.34,7.05,0.08,7.04,0.07,-0.07,0.08,0.61,6.97,6.96,6.96
39.74,7.05,0.09,7.06,0.10,-0.12,0.04,0.55,6.92,6.93,6.96
40.14,7.08,0.13,7.10,0.15,-0.17,0.01,0.49,6.90,6.92,6.94
40.54,7.16,0.23,7.15,0.22,-0.22,-0.03,0.43,6.94,6.93,6.93
40.94,7.23,0.30,7.20,0.28,-0.26,-0.07,0.36,6.96,6.94,6.92
41.35,7.24,0.32,7.23,0.32,-0.30,-0.10,0.30,6.93,6.93,6.92
41.76,7.24,0.34,7.25,0.34,-0.34,-0.14,0.24,6.90,6.91,6.90
42.18,7.26,0.36,7.27,0.37,-0.38,-0.18,0.18,6.88,6.89,6.89
42.60,7.30,0.40,7.30,0.40,-0.41,-0.22,0.11,6.89,6.88,6.90
43.03,7.34,0.45,7.32,0.43,-0.44,-0.25,0.05,6.90,6.89,6.89
43.46,7.35,0.46,7.35,0.46,-0.46,-0.29,-0.01,6.89,6.89,6.88
43.90,7.36,0.47,7.37,0.49,-0.48,-0.33,-0.07,6.87,6.88,6.88
44.33,7.39,0.51,7.39,0.51,-0.50,-0.36,-0.14,6.88,6.88,6.88
44.78,7.42,0.55,7.41,0.54,-0.53,-0.40,-0.20,6.89,6.88,6.87
45.23,7.44,0.57,7.43,0.56,-0.56,-0.44,-0.26,6.88,6.87,6.87
45.68,7.44,0.57,7.44,0.58,-0.59,-0.47,-0.32,6.84,6.84,6.86
46.13,7.45,0.59,7.46,0.61,-0.63,-0.51,-0.39,6.81,6.83,6.85
46.60,7.50,0.65,7.49,0.65,-0.67,-0.55,-0.45,6.83,6.82,6.84
47.06,7.55,0.71,7.54,0.71,-0.71,-0.58,-0.51,6.84,6.84,6.83
47.53,7.59,0.76,7.59,0.77,-0.74,-0.62,-0.58,6.84,6.85,6.82
48.01,7.64,0.82,7.62,0.81,-0.78,-0.66,-0.64,6.85,6.84,6.81
48.49,7.64,0.84,7.64,0.84,-0.82,-0.70,-0.70,6.82,6.82,6.79
48.97,7.64,0.85,7.64,0.85,-0.86,-0.73,-0.76,6.78,6.78,6.78
49.46,7.64,0.87,7.63,0.87,-0.89,-0.77,-0.82,6.75,6.74,6.77
49.96,7.64,0.89,7.65,0.90,-0.92,-0.81,-0.89,6.71,6.73,6.75
50.46,7.69,0.95,7.69,0.95,-0.96,-0.84,-0.95,6.73,6.73,6.74
50.96,7.74,1.01,7.72,0.99,-0.99,-0.88,-1.01,6.74,6.72,6.72
51.47,7.75,1.04,7.75,1.04,-1.03,-0.92,-1.07,6.71,6.71,6.71
51.99,7.76,1.06,7.77,1.08,-1.07,-0.96,-1.13,6.69,6.70,6.70
52.51,7.80,1.11,7.80,1.11,-1.11,-0.99,-1.19,6.69,6.69,6.68
53.03,7.84,1.17,7.82,1.15,-1.14,-1.03,-1.25,6.70,6.68,6.67
53.56,7.84,1.18,7.84,1.18,-1.17,-1.07,-1.31,6.67,6.67,6.65
54.10,7.84,1.20,7.84,1.20,-1.19,-1.11,-1.37,6.64,6.65,6.64
54.64,7.84,1.21,7.83,1.21,-1.22,-1.15,-1.43,6.62,6.61,6.62
55.18,7.84,1.23,7.83,1.23,-1.25,-1.19,-1.49,6.59,6.59,6.61
55.74,7.84,1.25,7.85,1.26,-1.28,-1.22,-1.54,6.56,6.57,6.59
56.29,7.87,1.30,7.88,1.31,-1.31,-1.26,-1.60,6.55,6.56,6.57
56.86,7.93,1.37,7.90,1.35,-1.35,-1.30,-1.65,6.57,6.55,6.55
57.42,7.94,1.40,7.93,1.39,-1.39,-1.34,-1.70,6.54,6.54,6.53
58.00,7.94,1.41,7.96,1.44,-1.44,-1.38,-1.75,6.50,6.52,6.53
58.58,8.00,1.49,7.99,1.49,-1.48,-1.42,-1.80,6.51,6.51,6.51
59.16,8.04,1.55,8.02,1.53,-1.52,-1.46,-1.85,6.51,6.50,6.48
59.76,8.04,1.57,8.04,1.58,-1.56,-1.50,-1.90,6.48,6.48,6.46
60.35,8.04,1.59,8.04,1.60,-1.59,-1.54,-1.94,6.45,6.45,6.44
60.96,8.04,1.62,8.04,1.62,-1.61,-1.59,-1.98,6.42,6.42,6.42
61.57,8.04,1.64,8.04,1.64,-1.64,-1.63,-2.02,6.39,6.39,6.40
62.18,8.04,1.66,8.04,1.67,-1.67,-1.67,-2.06,6.36,6.36,6.37
62.80,8.04,1.70,8.03,1.69,-1.71,-1.71,-2.10,6.33,6.32,6.34
63.43,8.04,1.72,8.04,1.73,-1.74,-1.75,-2.13,6.29,6.30,6.31
64.07,8.05,1.76,8.06,1.78,-1.79,-1.80,-2.16,6.26,6.28,6.29
64.71,8.11,1.86,8.10,1.84,-1.84,-1.84,-2.19,6.27,6.26,6.25
65.35,8.14,1.91,8.12,1.90,-1.89,-1.89,-2.22,6.25,6.23,6.22
66.01,8.14,1.95,8.14,1.95,-1.95,-1.93,-2.25,6.19,6.19,6.18
66.67,8.14,1.98,8.15,2.00,-2.01,-1.97,-2.28,6.13,6.14,6.16
67.33,8.17,2.05,8.18,2.06,-2.07,-2.02,-2.30,6.10,6.11,6.12
68.01,8.23,2.14,8.21,2.12,-2.12,-2.07,-2.33,6.11,6.09,6.09
68.69,8.24,2.19,8.23,2.19,-2.17,-2.11,-2.35,6.07,6.06,6.04
69.37,8.24,2.22,8.24,2.23,-2.22,-2.16,-2.37,6.02,6.02,6.01
70.07,8.24,2.27,8.24,2.26,-2.26,-2.21,-2.40,5.97,5.98,5.97
70.77,8.24,2.30,8.24,2.30,-2.30,-2.25,-2.42,5.93,5.93,5.94
71.48,8.24,2.33,8.24,2.34,-2.34,-2.30,-2.44,5.89,5.89,5.90
72.19,8.24,2.38,8.24,2.38,-2.38,-2.35,-2.46,5.85,5.85,5.86
72.91,8.24,2.42,8.24,2.41,-2.42,-2.40,-2.48,5.82,5.82,5.82
73.64,8.24,2.45,8.24,2.45,-2.46,-2.45,-2.51,5.78,5.78,5.78
74.38,8.24,2.49,8.24,2.49,-2.49,-2.50,-2.53,5.74,5.74,5.75
75.12,8.24,2.54,8.24,2.54,-2.53,-2.55,-2.55,5.70,5.70,5.70
75.87,8.24,2.58,8.24,2.58,-2.57,-2.60,-2.58,5.66,5.66,5.66
76.63,8.24,2.62,8.24,2.62,-2.61,-2.65,-2.61,5.62,5.62,5.62
77.40,8.24,2.66,8.24,2.66,-2.65,-2.71,-2.63,5.58,5.58,5.58
78.17,8.24,2.70,8.24,2.70,-2.70,-2.76,-2.66,5.53,5.53,5.53
78.95,8.24,2.74,8.23,2.74,-2.75,-2.81,-2.69,5.48,5.48,5.49
79.74,8.24,2.79,8.24,2.79,-2.81,-2.87,-2.73,5.43,5.43,5.45
80.54,8.25,2.84,8.26,2.85,-2.87,-2.92,-2.76,5.38,5.39,5.40
81.35,8.29,2.93,8.29,2.93,-2.93,-2.97,-2.80,5.36,5.36,5.36
82.16,8.34,3.02,8.32,3.00,-2.99,-3.03,-2.83,5.35,5.33,5.31
82.98,8.34,3.07,8.34,3.07,-3.05,-3.08,-2.87,5.29,5.29,5.27
83.81,8.34,3.12,8.34,3.12,-3.11,-3.14,-2.92,5.23,5.23,5.22
84.65,8.34,3.16,8.34,3.17,-3.17,-3.20,-2.96,5.17,5.17,5.17
85.50,8.34,3.22,8.34,3.22,-3.22,-3.25,-3.01,5.11,5.11,5.11
86.35,8.34,3.27,8.34,3.27,-3.27,-3.31,-3.06,5.06,5.06,5.07
87.22,8.34,3.32,8.34,3.32,-3.33,-3.37,-3.11,5.01,5.01,5.02
88.09,8.34,3.37,8.34,3.37,-3.38,-3.42,-3.16,4.96,4.96,4.97
88.97,8.35,3.43,8.34,3.43,-3.43,-3.48,-3.22,4.91,4.91,4.91
89.86,8.35,3.49,8.35,3.49,-3.49,-3.54,-3.28,4.86,4.86,4.85
90.76,8.35,3.55,8.35,3.55,-3.55,-3.60,-3.34,4.80,4.80,4.80
91.66,8.35,3.61,8.35,3.61,-3.61,-3.66,-3.40,4.74,4.74,4.74
92.58,8.35,3.66,8.35,3.66,-3.67,-3.71,-3.47,4.68,4.68,4.68
93.51,8.35,3.72,8.35,3.73,-3.73,-3.77,-3.54,4.62,4.62,4.62
94.44,8.35,3.79,8.35,3.79,-3.79,-3.83,-3.61,4.56,4.56,4.56
95.39,8.35,3.85,8.35,3.85,-3.85,-3.89,-3.68,4.49,4.49,4.49
96.34,8.35,3.92,8.34,3.92,-3.91,-3.95,-3.76,4.43,4.43,4.43
97.30,8.34,3.98,8.34,3.98,-3.98,-4.01,-3.83,4.36,4.36,4.35
98.28,8.33,4.04,8.33,4.04,-4.04,-4.06,-3.91,4.29,4.29,4.29
99.26,8.32,4.10,8.31,4.10,-4.10,-4.12,-3.99,4.21,4.21,4.21
100.25,8.30,4.16,8.30,4.16,-4.17,-4.18,-4.07,4.13,4.13,4.14
101.25,8.28,4.22,8.28,4.22,-4.23,-4.24,-4.16,4.05,4.05,4.06
102.27,8.27,4.28,8.27,4.28,-4.29,-4.30,-4.24,3.98,3.98,3.98
103.29,8.26,4.35,8.25,4.34,-4.34,-4.35,-4.33,3.92,3.91,3.91
104.32,8.24,4.40,8.24,4.41,-4.39,-4.41,-4.41,3.85,3.85,3.83
105.37,8.21,4.45,8.21,4.46,-4.43,-4.47,-4.50,3.78,3.78,3.76
106.42,8.18,4.51,8.16,4.49,-4.47,-4.52,-4.58,3.70,3.69,3.67
107.48,8.10,4.50,8.10,4.51,-4.51,-4.58,-4.67,3.58,3.59,3.59
108.56,8.04,4.51,8.05,4.53,-4.55,-4.63,-4.75,3.48,3.50,3.53
109.64,8.02,4.57,8.01,4.56,-4.59,-4.69,-4.83,3.43,3.42,3.45
110.74,8.00,4.62,7.99,4.61,-4.63,-4.74,-4.91,3.37,3.37,3.37
111.85,7.98,4.67,7.98,4.68,-4.66,-4.80,-4.99,3.31,3.32,3.31
112.97,7.97,4.72,7.96,4.72,-4.70,-4.85,-5.07,3.26,3.26,3.24
114.10,7.96,4.78,7.94,4.76,-4.75,-4.90,-5.14,3.21,3.19,3.18
115.24,7.90,4.78,7.91,4.80,-4.79,-4.95,-5.21,3.10,3.11,3.11
116.39,7.88,4.83,7.88,4.83,-4.84,-5.00,-5.27,3.03,3.04,3.05
117.55,7.87,4.87,7.86,4.87,-4.89,-5.05,-5.33,2.97,2.97,2.99
118.73,7.87,4.94,7.87,4.93,-4.94,-5.10,-5.39,2.92,2.92,2.93
119.92,7.88,5.00,7.88,5.00,-5.00,-5.15,-5.44,2.88,2.88,2.88
121.12,7.89,5.06,7.88,5.06,-5.05,-5.20,-5.48,2.83,2.83,2.82
122.33,7.90,5.12,7.89,5.12,-5.12,-5.25,-5.52,2.78,2.78,2.77
123.55,7.90,5.18,7.90,5.18,-5.18,-5.29,-5.55,2.71,2.72,2.72
124.79,7.91,5.24,7.91,5.24,-5.25,-5.34,-5.58,2.66,2.66,2.67
126.03,7.92,5.30,7.91,5.30,-5.31,-5.38,-5.60,2.61,2.61,2.62
127.29,7.93,5.36,7.92,5.36,-5.36,-5.42,-5.61,2.57,2.56,2.57
128.57,7.93,5.41,7.93,5.41,-5.40,-5.46,-5.62,2.53,2.53,2.52
129.85,7.94,5.47,7.94,5.47,-5.43,-5.50,-5.62,2.50,2.51,2.47
131.15,7.94,5.51,7.92,5.50,-5.46,-5.54,-5.62,2.48,2.46,2.42
132.46,7.90,5.52,7.87,5.50,-5.48,-5.58,-5.61,2.42,2.39,2.38
133.79,7.79,5.46,7.81,5.48,-5.50,-5.62,-5.60,2.29,2.31,2.33
135.12,7.75,5.46,7.76,5.48,-5.52,-5.65,-5.58,2.22,2.24,2.28
136.48,7.76,5.52,7.74,5.51,-5.55,-5.69,-5.56,2.21,2.20,2.24
137.84,7.76,5.56,7.75,5.56,-5.58,-5.72,-5.53,2.18,2.17,2.19
139.22,7.76,5.62,7.76,5.61,-5.62,-5.75,-5.50,2.14,2.14,2.14
140.61,7.76,5.66,7.76,5.66,-5.66,-5.78,-5.47,2.09,2.09,2.10
142.02,7.76,5.71,7.76,5.71,-5.71,-5.81,-5.44,2.05,2.05,2.05
143.44,7.76,5.76,7.76,5.77,-5.75,-5.84,-5.41,2.01,2.01,1.99
144.87,7.76,5.81,7.76,5.81,-5.78,-5.86,-5.37,1.98,1.98,1.94
146.32,7.75,5.84,7.74,5.83,-5.80,-5.89,-5.34,1.95,1.93,1.90
147.78,7.70,5.84,7.69,5.83,-5.82,-5.91,-5.30,1.88,1.87,1.86
149.26,7.63,5.82,7.63,5.82,-5.84,-5.94,-5.27,1.79,1.80,1.81
150.75,7.57,5.81,7.58,5.82,-5.85,-5.96,-5.23,1.71,1.73,1.76
152.26,7.56,5.84,7.56,5.84,-5.88,-5.98,-5.20,1.68,1.68,1.71
153.78,7.56,5.88,7.55,5.88,-5.90,-6.00,-5.17,1.65,1.65,1.68
155.32,7.56,5.92,7.56,5.92,-5.93,-6.01,-5.14,1.63,1.62,1.63
156.88,7.56,5.97,7.56,5.97,-5.96,-6.03,-5.11,1.60,1.60,1.59
158.44,7.56,6.01,7.56,6.01,-5.99,-6.04,-5.09,1.57,1.57,1.55
160.03,7.56,6.05,7.55,6.05,-6.01,-6.06,-5.06,1.54,1.54,1.50
161.63,7.53,6.07,7.52,6.06,-6.03,-6.07,-5.05,1.49,1.49,1.45
163.24,7.48,6.06,7.47,6.05,-6.05,-6.08,-5.03,1.42,1.42,1.41
164.88,7.40,6.02,7.41,6.04,-6.06,-6.09,-5.02,1.33,1.35,1.37
166.53,7.36,6.02,7.37,6.03,-6.07,-6.10,-5.01,1.28,1.29,1.33
168.19,7.35,6.05,7.34,6.05,-6.07,-6.10,-5.00,1.27,1.27,1.29
169.87,7.34,6.08,7.34,6.08,-6.07,-6.11,-5.00,1.26,1.27,1.26
171.57,7.33,6.11,7.32,6.10,-6.07,-6.12,-5.00,1.26,1.26,1.22
173.29,7.31,6.12,7.29,6.10,-6.07,-6.12,-5.00,1.24,1.22,1.18
175.02,7.24,6.08,7.24,6.08,-6.07,-6.12,-5.01,1.16,1.17,1.16
176.77,7.18,6.05,7.18,6.06,-6.07,-6.12,-5.03,1.10,1.11,1.12
178.54,7.13,6.04,7.13,6.04,-6.07,-6.12,-5.04,1.05,1.06,1.09
180.32,7.12,6.05,7.12,6.05,-6.07,-6.12,-5.06,1.04,1.05,1.07
182.13,7.12,6.07,7.12,6.07,-6.07,-6.12,-5.09,1.04,1.04,1.04
183.95,7.13,6.10,7.11,6.08,-6.08,-6.11,-5.12,1.05,1.03,1.02
185.79,7.09,6.09,7.09,6.09,-6.08,-6.11,-5.15,1.00,1.01,1.00
187.65,7.06,6.08,7.08,6.10,-6.09,-6.10,-5.18,0.96,0.99,0.98
189.52,7.08,6.12,7.06,6.10,-6.10,-6.09,-5.22,0.97,0.96,0.96
191.42,7.07,6.12,7.05,6.11,-6.11,-6.08,-5.27,0.96,0.95,0.95
193.33,7.03,6.09,7.04,6.11,-6.10,-6.07,-5.31,0.92,0.94,0.93
195.27,7.02,6.10,7.02,6.10,-6.10,-6.06,-5.36,0.92,0.92,0.91
197.22,7.01,6.11,6.99,6.10,-6.09,-6.05,-5.41,0.92,0.90,0.90
199.19,6.96,6.08,6.97,6.09,-6.08,-6.04,-5.47,0.87,0.88,0.88
201.18,6.94,6.07,6.93,6.06,-6.07,-6.03,-5.53,0.86,0.85,0.86
203.19,6.89,6.04,6.89,6.05,-6.06,-6.01,-5.58,0.82,0.83,0.85
205.23,6.86,6.03,6.87,6.04,-6.05,-5.99,-5.64,0.81,0.82,0.83
207.28,6.86,6.04,6.84,6.03,-6.03,-5.98,-5.71,0.82,0.81,0.82
209.35,6.84,6.04,6.82,6.02,-6.01,-5.96,-5.77,0.82,0.81,0.80
211.44,6.77,5.99,6.79,6.01,-5.99,-5.94,-5.83,0.77,0.80,0.78
213.56,6.75,5.98,6.74,5.98,-5.97,-5.92,-5.90,0.78,0.78,0.76
215.69,6.71,5.97,6.69,5.95,-5.94,-5.90,-5.96,0.76,0.75,0.74
217.85,6.64,5.91,6.63,5.91,-5.92,-5.88,-6.02,0.72,0.72,0.73
220.03,6.57,5.86,6.58,5.87,-5.89,-5.85,-6.08,0.68,0.69,0.70
222.23,6.53,5.83,6.54,5.85,-5.86,-5.83,-6.14,0.66,0.68,0.69
224.45,6.53,5.85,6.51,5.83,-5.84,-5.80,-6.19,0.69,0.67,0.68
226.70,6.51,5.84,6.49,5.82,-5.82,-5.78,-6.24,0.69,0.67,0.67
228.96,6.44,5.78,6.47,5.80,-5.80,-5.75,-6.29,0.64,0.67,0.66
231.25,6.44,5.78,6.43,5.78,-5.78,-5.72,-6.33,0.66,0.66,0.66
233.57,6.43,5.78,6.41,5.76,-5.75,-5.70,-6.37,0.67,0.65,0.65
235.90,6.37,5.73,6.38,5.74,-5.72,-5.67,-6.39,0.64,0.66,0.64
238.26,6.35,5.71,6.34,5.70,-5.69,-5.64,-6.42,0.65,0.65,0.64
240.64,6.31,5.67,6.30,5.67,-5.66,-5.61,-6.43,0.64,0.64,0.64
243.05,6.27,5.62,6.27,5.63,-5.63,-5.57,-6.44,0.63,0.64,0.64
245.48,6.24,5.59,6.23,5.58,-5.60,-5.54,-6.44,0.63,0.62,0.64
247.93,6.19,5.54,6.20,5.55,-5.58,-5.51,-6.43,0.61,0.62,0.65
250.41,6.18,5.53,6.19,5.54,-5.55,-5.47,-6.41,0.63,0.64,0.65
252.92,6.19,5.54,6.18,5.53,-5.52,-5.44,-6.39,0.66,0.66,0.65
255.45,6.18,5.53,6.16,5.52,-5.50,-5.40,-6.35,0.68,0.66,0.64
258.00,6.13,5.48,6.12,5.48,-5.47,-5.37,-6.31,0.65,0.65,0.65
260.58,6.07,5.43,6.08,5.44,-5.44,-5.33,-6.26,0.62,0.64,0.64
263.19,6.03,5.39,6.04,5.41,-5.41,-5.29,-6.20,0.62,0.63,0.63
265.82,6.02,5.40,5.99,5.37,-5.37,-5.25,-6.13,0.65,0.63,0.62
268.48,5.94,5.33,5.94,5.34,-5.32,-5.21,-6.06,0.62,0.62,0.61
271.16,5.88,5.28,5.88,5.28,-5.27,-5.17,-5.98,0.60,0.60,0.59
273.87,5.81,5.22,5.80,5.22,-5.23,-5.13,-5.90,0.58,0.58,0.59
276.61,5.74,5.16,5.74,5.16,-5.18,-5.09,-5.80,0.56,0.56,0.57
279.38,5.68,5.12,5.68,5.12,-5.13,-5.05,-5.71,0.54,0.55,0.56
282.17,5.63,5.07,5.63,5.08,-5.09,-5.01,-5.61,0.54,0.55,0.55
284.99,5.61,5.06,5.60,5.05,-5.05,-4.96,-5.51,0.56,0.56,0.55
287.84,5.57,5.01,5.56,5.01,-5.01,-4.92,-5.40,0.56,0.55,0.55
290.72,5.53,4.98,5.51,4.96,-4.97,-4.88,-5.30,0.55,0.54,0.55
293.63,5.45,4.90,5.48,4.93,-4.94,-4.83,-5.19,0.51,0.54,0.54
296.57,5.45,4.90,5.46,4.91,-4.90,-4.78,-5.08,0.55,0.55,0.55
299.53,5.47,4.91,5.42,4.87,-4.86,-4.74,-4.97,0.60,0.56,0.56
302.53,5.38,4.82,5.39,4.83,-4.82,-4.69,-4.86,0.56,0.57,0.55
305.55,5.30,4.74,5.33,4.78,-4.77,-4.64,-4.75,0.52,0.56,0.56
308.61,5.30,4.74,5.27,4.71,-4.72,-4.59,-4.64,0.58,0.55,0.55
311.69,5.23,4.68,5.22,4.66,-4.66,-4.54,-4.53,0.56,0.55,0.55
314.81,5.14,4.59,5.17,4.62,-4.60,-4.49,-4.42,0.53,0.56,0.55
317.96,5.11,4.56,5.09,4.55,-4.54,-4.44,-4.32,0.56,0.55,0.54
321.14,5.05,4.51,5.02,4.48,-4.49,-4.39,-4.21,0.56,0.54,0.54
324.35,4.93,4.38,4.96,4.42,-4.43,-4.34,-4.11,0.50,0.53,0.55
327.59,4.91,4.36,4.90,4.36,-4.37,-4.29,-4.01,0.53,0.52,0.54
330.87,4.86,4.31,4.85,4.30,-4.32,-4.23,-3.91,0.54,0.53,0.54
334.18,4.81,4.27,4.81,4.27,-4.26,-4.18,-3.82,0.54,0.55,0.54
337.52,4.75,4.21,4.76,4.22,-4.20,-4.13,-3.72,0.54,0.55,0.54
340.90,4.71,4.17,4.70,4.16,-4.14,-4.07,-3.63,0.56,0.55,0.53
344.30,4.65,4.10,4.63,4.09,-4.08,-4.02,-3.54,0.56,0.55,0.54
347.75,4.55,4.00,4.56,4.02,-4.02,-3.96,-3.46,0.53,0.55,0.55
351.23,4.49,3.95,4.49,3.94,-3.95,-3.90,-3.37,0.54,0.54,0.54
354.74,4.43,3.87,4.42,3.87,-3.88,-3.85,-3.29,0.55,0.54,0.55
358.28,4.35,3.79,4.35,3.80,-3.81,-3.79,-3.22,0.54,0.55,0.55
361.87,4.30,3.74,4.29,3.73,-3.74,-3.73,-3.14,0.56,0.55,0.56
365.49,4.23,3.66,4.24,3.67,-3.67,-3.67,-3.07,0.56,0.57,0.57
369.14,4.18,3.61,4.18,3.61,-3.60,-3.61,-3.00,0.58,0.58,0.57
372.83,4.14,3.55,4.11,3.53,-3.53,-3.55,-2.93,0.61,0.58,0.58
376.56,4.04,3.45,4.05,3.47,-3.46,-3.49,-2.86,0.57,0.59,0.58
380.33,3.98,3.39,3.98,3.40,-3.40,-3.43,-2.80,0.58,0.58,0.58
384.13,3.93,3.35,3.90,3.32,-3.33,-3.37,-2.74,0.59,0.57,0.58
387.97,3.82,3.24,3.84,3.26,-3.27,-3.31,-2.68,0.55,0.57,0.58
391.85,3.77,3.18,3.78,3.20,-3.21,-3.25,-2.62,0.56,0.57,0.59
395.77,3.75,3.17,3.71,3.13,-3.14,-3.18,-2.56,0.61,0.56,0.58
399.73,3.64,3.06,3.65,3.08,-3.07,-3.12,-2.51,0.56,0.58,0.57
403.72,3.56,2.98,3.59,3.03,-3.00,-3.06,-2.46,0.56,0.59,0.57
407.76,3.55,3.00,3.51,2.95,-2.93,-2.99,-2.41,0.62,0.58,0.55
411.84,3.44,2.89,3.42,2.87,-2.85,-2.93,-2.36,0.59,0.57,0.55
415.96,3.29,2.74,3.32,2.78,-2.77,-2.86,-2.31,0.51,0.55,0.55
420.12,3.22,2.68,3.22,2.68,-2.70,-2.80,-2.27,0.52,0.52,0.54
424.32,3.16,2.61,3.15,2.60,-2.62,-2.73,-2.22,0.53,0.52,0.55
428.56,3.10,2.54,3.09,2.54,-2.55,-2.66,-2.18,0.54,0.54,0.56
432.85,3.04,2.46,3.05,2.48,-2.49,-2.59,-2.13,0.55,0.56,0.57
437.18,3.01,2.42,3.02,2.43,-2.43,-2.53,-2.09,0.58,0.59,0.58
441.55,3.02,2.39,3.00,2.38,-2.38,-2.46,-2.05,0.64,0.63,0.62
445.96,3.00,2.33,3.00,2.34,-2.33,-2.39,-2.01,0.67,0.68,0.66
450.42,3.00,2.29,3.00,2.29,-2.28,-2.32,-1.97,0.72,0.72,0.71
454.93,3.00,2.24,2.99,2.23,-2.23,-2.25,-1.92,0.77,0.76,0.76
459.48,2.98,2.16,2.99,2.17,-2.18,-2.18,-1.88,0.80,0.81,0.82
464.07,2.99,2.12,2.98,2.11,-2.12,-2.11,-1.84,0.86,0.86,0.87
468.71,2.98,2.06,2.98,2.05,-2.06,-2.03,-1.80,0.92,0.92,0.92
473.40,2.97,1.99,2.97,2.00,-1.99,-1.96,-1.75,0.98,0.98,0.98
478.13,2.97,1.93,2.96,1.93,-1.91,-1.89,-1.71,1.05,1.05,1.04
482.91,2.95,1.86,2.94,1.86,-1.83,-1.82,-1.67,1.11,1.11,1.08
487.74,2.91,1.78,2.90,1.77,-1.75,-1.74,-1.62,1.16,1.14,1.12
492.62,2.83,1.66,2.82,1.66,-1.67,-1.67,-1.57,1.16,1.16,1.16
497.55,2.74,1.53,2.75,1.55,-1.58,-1.59,-1.53,1.16,1.17,1.20
502.52,2.68,1.45,2.70,1.47,-1.49,-1.52,-1.48,1.18,1.20,1.22
507.55,2.67,1.41,2.65,1.40,-1.41,-1.44,-1.43,1.26,1.24,1.25
512.62,2.62,1.35,2.60,1.34,-1.33,-1.37,-1.38,1.28,1.27,1.26
517.75,2.52,1.26,2.53,1.26,-1.26,-1.29,-1.32,1.26,1.27,1.26
522.93,2.44,1.18,2.45,1.19,-1.20,-1.21,-1.27,1.24,1.25,1.26
528.16,2.37,1.13,2.36,1.12,-1.13,-1.14,-1.21,1.23,1.23,1.24
533.44,2.29,1.07,2.28,1.07,-1.07,-1.06,-1.16,1.22,1.22,1.22
538.77,2.19,1.01,2.19,1.00,-0.99,-0.98,-1.10,1.20,1.20,1.18
544.16,2.10,0.94,2.09,0.93,-0.91,-0.90,-1.04,1.19,1.18,1.16
549.60,1.97,0.84,1.98,0.86,-0.82,-0.82,-0.98,1.14,1.16,1.13
555.10,1.87,0.77,1.85,0.75,-0.74,-0.75,-0.92,1.12,1.11,1.10
