frequency,raw,error,smoothed,error_smoothed,equalization,parametric_eq,equalized_raw,equalized_smoothed,target
20,5.13,-0.36,5.06,-0.42,0.42,-0.59,5.55,5.48,5.49
21,5.27,-0.22,5.29,-0.18,0.18,-0.67,5.46,5.48,5.49
22,5.47,-0.01,5.51,0.04,-0.04,-0.77,5.43,5.47,5.48
23,5.69,0.21,5.72,0.25,-0.25,-0.87,5.44,5.47,5.48
24,5.89,0.42,5.91,0.45,-0.45,-0.98,5.44,5.47,5.47
25,6.07,0.60,6.09,0.63,-0.63,-1.09,5.44,5.46,5.47
26,6.24,0.78,6.26,0.80,-0.80,-1.20,5.44,5.46,5.46
27,6.41,0.96,6.41,0.96,-0.96,-1.30,5.45,5.45,5.46
28,6.56,1.11,6.54,1.10,-1.10,-1.39,5.46,5.44,5.45
29,6.69,1.25,6.67,1.23,-1.23,-1.47,5.46,5.44,5.44
30,6.81,1.38,6.77,1.35,-1.35,-1.53,5.47,5.43,5.43
31,6.91,1.49,6.87,1.45,-1.45,-1.57,5.47,5.42,5.42
32,6.97,1.56,6.94,1.53,-1.53,-1.59,5.44,5.41,5.42
33,7.01,1.61,7.00,1.60,-1.60,-1.59,5.41,5.40,5.41
34,7.05,1.66,7.05,1.65,-1.65,-1.58,5.40,5.39,5.40
35,7.07,1.69,7.08,1.70,-1.70,-1.55,5.37,5.38,5.39
36,7.08,1.71,7.10,1.73,-1.73,-1.52,5.35,5.37,5.37
37,7.09,1.73,7.11,1.76,-1.76,-1.49,5.33,5.36,5.36
38,7.10,1.75,7.12,1.78,-1.78,-1.46,5.32,5.34,5.35
39,7.10,1.76,7.12,1.79,-1.79,-1.44,5.31,5.33,5.34
40,7.11,1.79,7.12,1.80,-1.80,-1.41,5.31,5.31,5.32
41,7.12,1.81,7.11,1.81,-1.81,-1.39,5.31,5.30,5.31
42,7.11,1.82,7.11,1.82,-1.82,-1.38,5.29,5.28,5.29
43,7.10,1.82,7.11,1.84,-1.84,-1.37,5.27,5.27,5.28
44,7.09,1.83,7.10,1.85,-1.85,-1.37,5.25,5.26,5.26
45,7.08,1.84,7.10,1.86,-1.86,-1.37,5.23,5.24,5.24
46,7.08,1.86,7.09,1.87,-1.87,-1.38,5.22,5.22,5.23
47,7.07,1.86,7.08,1.88,-1.88,-1.39,5.20,5.21,5.21
48,7.07,1.88,7.07,1.89,-1.89,-1.40,5.19,5.19,5.19
49,7.07,1.90,7.06,1.90,-1.90,-1.42,5.18,5.17,5.17
50,7.06,1.91,7.05,1.90,-1.90,-1.44,5.16,5.15,5.15
51,7.05,1.93,7.04,1.91,-1.91,-1.47,5.14,5.12,5.13
52,7.03,1.93,7.02,1.92,-1.92,-1.50,5.11,5.10,5.10
53,7.01,1.93,7.01,1.93,-1.93,-1.53,5.08,5.08,5.08
54,6.99,1.93,6.99,1.94,-1.94,-1.56,5.06,5.05,5.06
55,6.97,1.94,6.97,1.95,-1.95,-1.59,5.03,5.03,5.03
56,6.95,1.94,6.96,1.96,-1.96,-1.63,5.00,5.00,5.01
57,6.93,1.95,6.94,1.97,-1.97,-1.66,4.96,4.97,4.98
58,6.91,1.96,6.93,1.98,-1.98,-1.70,4.93,4.95,4.96
59,6.90,1.97,6.92,2.00,-2.00,-1.73,4.90,4.92,4.93
60,6.89,1.99,6.91,2.02,-2.02,-1.77,4.88,4.89,4.90
61,6.88,2.01,6.90,2.03,-2.03,-1.80,4.85,4.87,4.87
62,6.88,2.04,6.89,2.05,-2.05,-1.83,4.83,4.84,4.84
63,6.88,2.07,6.88,2.07,-2.07,-1.87,4.81,4.81,4.81
64,6.89,2.11,6.87,2.09,-2.09,-1.90,4.80,4.78,4.78
65,6.88,2.13,6.85,2.11,-2.11,-1.93,4.77,4.74,4.75
66,6.87,2.15,6.84,2.12,-2.12,-1.97,4.75,4.71,4.72
67,6.84,2.15,6.82,2.14,-2.14,-2.00,4.71,4.68,4.69
68,6.81,2.16,6.80,2.15,-2.15,-2.03,4.66,4.65,4.66
69,6.77,2.15,6.78,2.16,-2.16,-2.07,4.61,4.62,4.62
70,6.74,2.15,6.76,2.17,-2.17,-2.10,4.57,4.59,4.59
71,6.70,2.15,6.73,2.18,-2.18,-2.14,4.52,4.55,4.56
72,6.69,2.17,6.71,2.19,-2.19,-2.18,4.50,4.52,4.52
73,6.67,2.18,6.69,2.21,-2.21,-2.22,4.47,4.48,4.49
74,6.67,2.22,6.66,2.22,-2.22,-2.26,4.45,4.45,4.45
75,6.66,2.24,6.64,2.23,-2.23,-2.30,4.43,4.41,4.42
76,6.64,2.26,6.63,2.25,-2.25,-2.35,4.39,4.38,4.38
77,6.61,2.26,6.61,2.27,-2.27,-2.40,4.34,4.34,4.35
78,6.59,2.28,6.60,2.29,-2.29,-2.45,4.30,4.31,4.31
79,6.58,2.31,6.59,2.31,-2.31,-2.50,4.27,4.28,4.28
80,6.57,2.33,6.58,2.33,-2.33,-2.56,4.24,4.24,4.24
81,6.57,2.37,6.56,2.36,-2.36,-2.62,4.21,4.21,4.20
82,6.56,2.40,6.55,2.39,-2.39,-2.68,4.18,4.17,4.17
83,6.55,2.42,6.54,2.42,-2.42,-2.74,4.14,4.13,4.13
84,6.54,2.45,6.54,2.45,-2.45,-2.81,4.10,4.09,4.09
85,6.54,2.48,6.53,2.48,-2.48,-2.87,4.06,4.05,4.06
86,6.52,2.50,6.53,2.52,-2.52,-2.94,4.01,4.02,4.02
87,6.53,2.55,6.54,2.56,-2.56,-3.02,3.98,3.98,3.99
88,6.53,2.58,6.54,2.60,-2.60,-3.09,3.93,3.95,3.95
89,6.55,2.64,6.55,2.64,-2.64,-3.17,3.91,3.91,3.91
90,6.56,2.68,6.57,2.69,-2.69,-3.25,3.87,3.87,3.88
91,6.58,2.74,6.59,2.75,-2.75,-3.33,3.83,3.84,3.84
92,6.61,2.81,6.61,2.80,-2.80,-3.41,3.81,3.81,3.81
93,6.63,2.86,6.64,2.87,-2.87,-3.50,3.77,3.77,3.77
94,6.66,2.93,6.66,2.93,-2.93,-3.59,3.73,3.73,3.74
95,6.69,2.99,6.70,3.00,-3.00,-3.68,3.69,3.70,3.70
96,6.73,3.07,6.73,3.07,-3.07,-3.77,3.66,3.66,3.67
97,6.79,3.16,6.77,3.14,-3.14,-3.86,3.65,3.63,3.63
98,6.82,3.23,6.81,3.22,-3.22,-3.95,3.60,3.59,3.60
99,6.86,3.30,6.86,3.30,-3.30,-4.04,3.56,3.55,3.56
100,6.90,3.37,6.90,3.39,-3.39,-4.13,3.52,3.52,3.53
101,6.93,3.44,6.95,3.47,-3.47,-4.23,3.46,3.48,3.50
102,6.97,3.51,7.00,3.56,-3.56,-4.32,3.42,3.44,3.46
104,7.05,3.65,7.05,3.64,-3.64,-4.50,3.41,3.41,3.40
105,7.10,3.73,7.10,3.73,-3.73,-4.59,3.37,3.38,3.37
106,7.15,3.82,7.15,3.81,-3.81,-4.68,3.34,3.34,3.34
107,7.20,3.90,7.20,3.90,-3.90,-4.77,3.31,3.31,3.30
108,7.26,3.99,7.25,3.98,-3.98,-4.85,3.29,3.28,3.27
109,7.31,4.07,7.30,4.05,-4.05,-4.93,3.26,3.24,3.24
110,7.36,4.15,7.34,4.13,-4.13,-5.01,3.23,3.21,3.21
111,7.40,4.22,7.38,4.20,-4.20,-5.09,3.20,3.18,3.19
112,7.42,4.27,7.42,4.27,-4.27,-5.16,3.15,3.15,3.16
113,7.46,4.33,7.45,4.34,-4.34,-5.23,3.12,3.12,3.13
114,7.48,4.38,7.48,4.40,-4.40,-5.29,3.08,3.08,3.10
115,7.51,4.44,7.52,4.46,-4.46,-5.35,3.05,3.05,3.07
117,7.54,4.52,7.55,4.53,-4.53,-5.45,3.02,3.02,3.02
118,7.55,4.56,7.58,4.58,-4.58,-5.49,2.97,2.99,2.99
119,7.57,4.61,7.60,4.64,-4.64,-5.53,2.93,2.96,2.97
120,7.60,4.66,7.62,4.69,-4.69,-5.56,2.91,2.93,2.94
121,7.62,4.71,7.64,4.74,-4.74,-5.59,2.88,2.90,2.92
123,7.68,4.82,7.65,4.79,-4.79,-5.62,2.90,2.87,2.87
124,7.70,4.86,7.66,4.83,-4.83,-5.62,2.88,2.84,2.84
125,7.71,4.89,7.67,4.86,-4.86,-5.63,2.85,2.81,2.82
126,7.71,4.92,7.68,4.90,-4.90,-5.62,2.81,2.78,2.80
128,7.69,4.94,7.68,4.93,-4.93,-5.59,2.76,2.75,2.75
129,7.67,4.94,7.68,4.95,-4.95,-5.57,2.72,2.73,2.73
130,7.64,4.93,7.68,4.97,-4.97,-5.55,2.67,2.70,2.71
131,7.64,4.95,7.67,4.99,-4.99,-5.52,2.65,2.68,2.69
133,7.62,4.97,7.66,5.01,-5.01,-5.44,2.61,2.65,2.65
134,7.63,5.00,7.64,5.02,-5.02,-5.40,2.61,2.62,2.63
135,7.63,5.02,7.62,5.03,-5.03,-5.35,2.60,2.59,2.61
137,7.63,5.06,7.60,5.04,-5.04,-5.25,2.59,2.56,2.57
138,7.62,5.07,7.59,5.05,-5.05,-5.19,2.57,2.54,2.55
140,7.58,5.06,7.57,5.06,-5.06,-5.08,2.52,2.51,2.52
141,7.55,5.05,7.56,5.07,-5.07,-5.02,2.48,2.49,2.50
142,7.53,5.05,7.55,5.08,-5.08,-4.95,2.45,2.47,2.48
144,7.50,5.05,7.54,5.09,-5.09,-4.82,2.42,2.45,2.45
145,7.48,5.05,7.52,5.09,-5.09,-4.76,2.39,2.43,2.43
147,7.47,5.07,7.50,5.10,-5.10,-4.63,2.38,2.40,2.40
148,7.48,5.09,7.48,5.10,-5.10,-4.56,2.38,2.38,2.39
150,7.48,5.12,7.45,5.10,-5.10,-4.43,2.38,2.35,2.36
151,7.47,5.13,7.43,5.10,-5.10,-4.36,2.37,2.33,2.35
153,7.44,5.12,7.41,5.10,-5.10,-4.23,2.34,2.31,2.32
154,7.41,5.11,7.39,5.10,-5.10,-4.16,2.31,2.29,2.31
156,7.36,5.08,7.37,5.10,-5.10,-4.04,2.26,2.28,2.28
157,7.33,5.07,7.35,5.09,-5.09,-3.97,2.24,2.26,2.27
159,7.28,5.04,7.32,5.08,-5.08,-3.85,2.20,2.24,2.24
160,7.27,5.04,7.29,5.07,-5.07,-3.79,2.20,2.22,2.23
162,7.24,5.03,7.26,5.05,-5.05,-3.67,2.19,2.20,2.21
164,7.22,5.04,7.22,5.04,-5.04,-3.56,2.19,2.18,2.19
165,7.20,5.03,7.18,5.01,-5.01,-3.50,2.19,2.17,2.18
167,7.16,5.01,7.14,4.99,-4.99,-3.40,2.18,2.15,2.16
169,7.10,4.97,7.09,4.96,-4.96,-3.29,2.15,2.13,2.14
170,7.07,4.95,7.04,4.92,-4.92,-3.24,2.15,2.12,2.13
172,6.99,4.88,6.99,4.89,-4.89,-3.15,2.10,2.10,2.11
174,6.92,4.83,6.94,4.85,-4.85,-3.05,2.07,2.09,2.09
175,6.89,4.81,6.88,4.81,-4.81,-3.01,2.08,2.07,2.08
177,6.81,4.75,6.82,4.76,-4.76,-2.92,2.05,2.05,2.06
179,6.73,4.68,6.76,4.72,-4.72,-2.84,2.01,2.04,2.05
181,6.66,4.63,6.70,4.67,-4.67,-2.76,1.99,2.03,2.03
183,6.59,4.57,6.63,4.62,-4.62,-2.69,1.97,2.01,2.02
184,6.56,4.55,6.56,4.56,-4.56,-2.65,2.00,2.00,2.01
186,6.50,4.51,6.49,4.51,-4.51,-2.58,2.00,1.99,2.00
188,6.45,4.47,6.42,4.45,-4.45,-2.51,2.01,1.98,1.98
190,6.38,4.41,6.35,4.38,-4.38,-2.45,2.00,1.96,1.97
192,6.29,4.33,6.27,4.32,-4.32,-2.39,1.97,1.95,1.96
194,6.21,4.27,6.19,4.25,-4.25,-2.33,1.96,1.94,1.94
196,6.11,4.18,6.10,4.18,-4.18,-2.28,1.93,1.93,1.93
198,6.01,4.09,6.02,4.10,-4.10,-2.22,1.91,1.92,1.92
200,5.92,4.01,5.93,4.03,-4.03,-2.17,1.89,1.91,1.91
202,5.82,3.92,5.85,3.95,-3.95,-2.13,1.87,1.89,1.90
204,5.73,3.84,5.75,3.87,-3.87,-2.08,1.86,1.88,1.89
206,5.65,3.77,5.66,3.79,-3.79,-2.04,1.86,1.87,1.88
208,5.55,3.68,5.57,3.71,-3.71,-1.99,1.84,1.86,1.87
210,5.48,3.62,5.49,3.63,-3.63,-1.95,1.85,1.85,1.86
212,5.39,3.54,5.40,3.55,-3.55,-1.91,1.84,1.85,1.85
214,5.32,3.48,5.31,3.47,-3.47,-1.87,1.85,1.84,1.85
216,5.24,3.40,5.22,3.39,-3.39,-1.84,1.85,1.83,1.84
218,5.16,3.33,5.13,3.31,-3.31,-1.80,1.85,1.83,1.83
221,5.04,3.22,5.04,3.22,-3.22,-1.75,1.82,1.82,1.82
223,4.94,3.13,4.94,3.13,-3.13,-1.72,1.81,1.81,1.81
225,4.84,3.04,4.84,3.04,-3.04,-1.69,1.80,1.80,1.81
227,4.74,2.94,4.74,2.94,-2.94,-1.66,1.80,1.80,1.80
229,4.64,2.85,4.63,2.84,-2.84,-1.62,1.80,1.79,1.79
232,4.49,2.71,4.52,2.74,-2.74,-1.58,1.75,1.78,1.78
234,4.39,2.62,4.40,2.63,-2.63,-1.55,1.76,1.78,1.78
236,4.30,2.53,4.28,2.51,-2.51,-1.52,1.79,1.77,1.77
239,4.15,2.39,4.16,2.40,-2.40,-1.48,1.76,1.76,1.76
241,4.04,2.28,4.03,2.27,-2.27,-1.45,1.77,1.75,1.76
244,3.88,2.13,3.90,2.15,-2.15,-1.41,1.73,1.75,1.75
246,3.76,2.02,3.76,2.02,-2.02,-1.38,1.75,1.75,1.75
248,3.65,1.91,3.62,1.88,-1.88,-1.35,1.77,1.74,1.74
251,3.47,1.74,3.47,1.74,-1.74,-1.31,1.73,1.73,1.73
253,3.35,1.62,3.33,1.60,-1.60,-1.29,1.75,1.73,1.73
256,3.17,1.45,3.18,1.45,-1.45,-1.24,1.72,1.73,1.72
259,2.98,1.27,3.02,1.30,-1.30,-1.20,1.68,1.72,1.72
261,2.86,1.15,2.85,1.14,-1.14,-1.18,1.72,1.71,1.71
264,2.67,0.96,2.69,0.98,-0.98,-1.14,1.69,1.71,1.71
266,2.55,0.85,2.52,0.82,-0.82,-1.11,1.73,1.70,1.70
269,2.36,0.66,2.36,0.66,-0.66,-1.07,1.70,1.70,1.70
272,2.17,0.48,2.19,0.50,-0.50,-1.03,1.68,1.69,1.69
274,2.04,0.35,2.02,0.33,-0.33,-1.00,1.71,1.69,1.69
277,1.86,0.18,1.85,0.17,-0.17,-0.96,1.69,1.68,1.69
280,1.67,-0.01,1.68,0.00,-0.00,-0.92,1.67,1.68,1.68
283,1.49,-0.19,1.51,-0.16,0.16,-0.88,1.65,1.68,1.68
286,1.31,-0.36,1.35,-0.33,0.33,-0.84,1.64,1.67,1.67
288,1.20,-0.47,1.18,-0.49,0.49,-0.82,1.69,1.67,1.67
291,1.03,-0.63,1.01,-0.65,0.65,-0.78,1.68,1.67,1.67
294,0.86,-0.80,0.85,-0.81,0.81,-0.74,1.67,1.66,1.66
297,0.69,-0.97,0.69,-0.97,0.97,-0.70,1.66,1.66,1.66
300,0.54,-1.11,0.53,-1.12,1.12,-0.67,1.66,1.66,1.66
303,0.38,-1.27,0.38,-1.27,1.27,-0.63,1.65,1.65,1.65
306,0.23,-1.42,0.23,-1.41,1.41,-0.59,1.65,1.65,1.65
309,0.10,-1.54,0.09,-1.55,1.55,-0.56,1.65,1.65,1.65
312,-0.04,-1.68,-0.04,-1.68,1.68,-0.52,1.65,1.64,1.64
316,-0.20,-1.84,-0.17,-1.81,1.81,-0.47,1.61,1.64,1.64
319,-0.31,-1.95,-0.30,-1.93,1.93,-0.44,1.62,1.63,1.64
322,-0.41,-2.04,-0.41,-2.03,2.03,-0.40,1.63,1.62,1.63
325,-0.51,-2.14,-0.51,-2.13,2.13,-0.37,1.62,1.62,1.63
328,-0.60,-2.23,-0.60,-2.22,2.22,-0.34,1.62,1.62,1.63
332,-0.70,-2.32,-0.68,-2.30,2.30,-0.29,1.60,1.62,1.63
335,-0.77,-2.39,-0.75,-2.36,2.36,-0.26,1.60,1.62,1.62
338,-0.82,-2.44,-0.81,-2.42,2.42,-0.23,1.61,1.62,1.62
342,-0.87,-2.49,-0.86,-2.47,2.47,-0.18,1.61,1.61,1.62
345,-0.91,-2.53,-0.90,-2.52,2.52,-0.15,1.61,1.61,1.62
349,-0.93,-2.54,-0.94,-2.55,2.55,-0.11,1.62,1.61,1.61
352,-0.93,-2.54,-0.96,-2.57,2.57,-0.08,1.65,1.61,1.61
356,-0.96,-2.57,-0.99,-2.59,2.59,-0.04,1.64,1.61,1.61
359,-0.99,-2.60,-1.00,-2.61,2.61,-0.01,1.62,1.61,1.61
363,-1.01,-2.61,-1.01,-2.61,2.61,0.03,1.60,1.60,1.61
366,-1.01,-2.61,-1.01,-2.61,2.61,0.06,1.60,1.60,1.61
370,-1.02,-2.62,-1.00,-2.60,2.60,0.10,1.58,1.60,1.60
374,-1.00,-2.60,-0.99,-2.58,2.58,0.14,1.59,1.60,1.60
377,-0.98,-2.58,-0.97,-2.56,2.56,0.17,1.58,1.59,1.60
381,-0.95,-2.55,-0.94,-2.53,2.53,0.21,1.58,1.59,1.60
385,-0.91,-2.50,-0.90,-2.49,2.49,0.25,1.58,1.59,1.60
389,-0.87,-2.46,-0.86,-2.45,2.45,0.29,1.58,1.59,1.59
393,-0.81,-2.40,-0.81,-2.39,2.39,0.32,1.58,1.59,1.59
397,-0.75,-2.34,-0.74,-2.33,2.33,0.36,1.58,1.59,1.59
401,-0.68,-2.27,-0.68,-2.27,2.27,0.40,1.59,1.59,1.59
405,-0.61,-2.20,-0.60,-2.19,2.19,0.43,1.59,1.59,1.59
409,-0.53,-2.12,-0.53,-2.12,2.12,0.47,1.59,1.59,1.59
413,-0.45,-2.03,-0.45,-2.04,2.04,0.51,1.59,1.59,1.59
417,-0.37,-1.95,-0.37,-1.96,1.96,0.54,1.59,1.58,1.58
421,-0.28,-1.86,-0.30,-1.87,1.87,0.57,1.59,1.58,1.58
425,-0.19,-1.77,-0.21,-1.78,1.78,0.61,1.59,1.57,1.58
430,-0.09,-1.67,-0.12,-1.69,1.69,0.65,1.60,1.57,1.58
434,-0.02,-1.59,-0.03,-1.59,1.59,0.68,1.58,1.56,1.58
438,0.06,-1.51,0.07,-1.50,1.50,0.71,1.56,1.56,1.58
443,0.14,-1.43,0.17,-1.39,1.39,0.75,1.53,1.56,1.58
447,0.21,-1.37,0.28,-1.29,1.29,0.78,1.50,1.57,1.58
451,0.32,-1.26,0.39,-1.18,1.18,0.81,1.50,1.57,1.58
456,0.47,-1.11,0.50,-1.08,1.08,0.85,1.55,1.58,1.59
460,0.59,-1.00,0.61,-0.97,0.97,0.87,1.56,1.58,1.59
465,0.74,-0.86,0.72,-0.87,0.87,0.91,1.61,1.59,1.60
470,0.89,-0.71,0.83,-0.76,0.76,0.94,1.65,1.60,1.61
474,0.98,-0.63,0.94,-0.66,0.66,0.96,1.65,1.61,1.62
479,1.10,-0.52,1.05,-0.57,0.57,0.99,1.67,1.62,1.63
484,1.18,-0.46,1.15,-0.48,0.48,1.02,1.66,1.64,1.64
489,1.25,-0.40,1.25,-0.40,0.40,1.05,1.65,1.65,1.65
494,1.33,-0.33,1.34,-0.32,0.32,1.07,1.66,1.67,1.66
499,1.40,-0.28,1.43,-0.25,0.25,1.10,1.66,1.68,1.68
504,1.48,-0.21,1.50,-0.19,0.19,1.12,1.67,1.69,1.70
509,1.55,-0.16,1.57,-0.13,0.13,1.14,1.69,1.70,1.71
514,1.63,-0.10,1.63,-0.08,0.08,1.16,1.72,1.72,1.73
519,1.70,-0.04,1.70,-0.04,0.04,1.18,1.74,1.74,1.74
524,1.76,0.00,1.76,0.00,-0.00,1.20,1.76,1.76,1.76
529,1.82,0.04,1.82,0.04,-0.04,1.22,1.78,1.78,1.78
535,1.88,0.08,1.87,0.07,-0.07,1.24,1.81,1.80,1.80
540,1.93,0.11,1.93,0.10,-0.10,1.26,1.83,1.82,1.82
545,1.97,0.13,1.97,0.13,-0.13,1.27,1.85,1.85,1.84
551,2.01,0.15,2.02,0.14,-0.14,1.29,1.87,1.87,1.87
556,2.05,0.16,2.06,0.16,-0.16,1.31,1.89,1.90,1.89
562,2.09,0.17,2.09,0.17,-0.17,1.32,1.92,1.92,1.92
568,2.12,0.18,2.12,0.17,-0.17,1.34,1.95,1.95,1.95
573,2.15,0.18,2.15,0.18,-0.18,1.36,1.98,1.97,1.98
579,2.17,0.17,2.17,0.17,-0.17,1.37,2.00,2.00,2.00
585,2.20,0.17,2.20,0.17,-0.17,1.39,2.03,2.03,2.03
591,2.21,0.15,2.22,0.16,-0.16,1.41,2.05,2.06,2.06
596,2.23,0.14,2.24,0.15,-0.15,1.42,2.08,2.09,2.09
602,2.24,0.12,2.25,0.13,-0.13,1.44,2.11,2.12,2.12
608,2.25,0.10,2.27,0.12,-0.12,1.46,2.14,2.15,2.16
615,2.27,0.09,2.28,0.10,-0.10,1.48,2.18,2.18,2.19
621,2.27,0.05,2.28,0.07,-0.07,1.51,2.20,2.21,2.22
627,2.28,0.03,2.29,0.04,-0.04,1.53,2.24,2.24,2.25
633,2.28,0.00,2.29,0.01,-0.01,1.55,2.28,2.28,2.28
639,2.28,-0.03,2.28,-0.03,0.03,1.57,2.32,2.31,2.31
646,2.27,-0.07,2.26,-0.08,0.08,1.60,2.36,2.35,2.35
652,2.25,-0.13,2.24,-0.14,0.14,1.62,2.40,2.39,2.38
659,2.23,-0.18,2.21,-0.21,0.21,1.65,2.44,2.42,2.41
665,2.18,-0.27,2.17,-0.29,0.29,1.68,2.47,2.46,2.45
672,2.13,-0.35,2.12,-0.37,0.37,1.71,2.51,2.49,2.48
679,2.07,-0.45,2.06,-0.47,0.47,1.75,2.54,2.52,2.52
686,2.00,-0.55,1.99,-0.57,0.57,1.78,2.57,2.56,2.56
692,1.93,-0.66,1.91,-0.68,0.68,1.81,2.61,2.59,2.59
699,1.84,-0.79,1.83,-0.79,0.79,1.85,2.64,2.63,2.63
706,1.75,-0.92,1.75,-0.91,0.91,1.89,2.67,2.66,2.67
713,1.65,-1.06,1.67,-1.04,1.04,1.93,2.69,2.70,2.71
721,1.54,-1.21,1.58,-1.16,1.16,1.97,2.70,2.74,2.75
728,1.46,-1.32,1.50,-1.28,1.28,2.02,2.74,2.78,2.79
735,1.38,-1.44,1.41,-1.40,1.40,2.06,2.79,2.82,2.83
742,1.32,-1.54,1.33,-1.53,1.53,2.10,2.85,2.86,2.86
750,1.25,-1.65,1.25,-1.65,1.65,2.15,2.90,2.90,2.90
757,1.19,-1.75,1.17,-1.76,1.76,2.20,2.95,2.94,2.94
765,1.11,-1.87,1.10,-1.88,1.88,2.25,2.99,2.98,2.98
773,1.03,-1.99,1.02,-1.99,1.99,2.30,3.02,3.01,3.02
780,0.96,-2.09,0.95,-2.10,2.10,2.35,3.06,3.05,3.05
788,0.89,-2.20,0.88,-2.20,2.20,2.40,3.10,3.09,3.09
796,0.82,-2.30,0.81,-2.31,2.31,2.46,3.13,3.12,3.12
804,0.74,-2.42,0.74,-2.41,2.41,2.51,3.15,3.15,3.16
812,0.68,-2.51,0.68,-2.51,2.51,2.57,3.19,3.19,3.19
820,0.60,-2.62,0.61,-2.60,2.60,2.62,3.21,3.22,3.22
828,0.53,-2.72,0.55,-2.70,2.70,2.68,3.23,3.25,3.25
837,0.47,-2.81,0.49,-2.79,2.79,2.74,3.26,3.28,3.29
845,0.42,-2.90,0.44,-2.88,2.88,2.79,3.30,3.31,3.32
853,0.38,-2.97,0.38,-2.96,2.96,2.84,3.34,3.35,3.35
862,0.34,-3.04,0.33,-3.04,3.04,2.90,3.39,3.38,3.38
871,0.30,-3.10,0.28,-3.12,3.12,2.95,3.42,3.41,3.41
879,0.26,-3.17,0.24,-3.20,3.20,3.00,3.46,3.43,3.44
888,0.21,-3.25,0.19,-3.27,3.27,3.04,3.48,3.46,3.46
897,0.15,-3.34,0.15,-3.34,3.34,3.09,3.49,3.49,3.49
906,0.11,-3.41,0.11,-3.41,3.41,3.13,3.52,3.52,3.52
915,0.07,-3.47,0.07,-3.47,3.47,3.17,3.55,3.54,3.55
924,0.03,-3.54,0.04,-3.53,3.53,3.21,3.56,3.57,3.57
933,-0.01,-3.61,0.01,-3.59,3.59,3.24,3.58,3.60,3.60
943,-0.03,-3.65,-0.01,-3.64,3.64,3.27,3.61,3.62,3.62
952,-0.05,-3.70,-0.03,-3.68,3.68,3.29,3.63,3.65,3.65
962,-0.06,-3.73,-0.04,-3.72,3.72,3.31,3.66,3.67,3.68
971,-0.05,-3.75,-0.05,-3.74,3.74,3.32,3.69,3.70,3.70
981,-0.03,-3.76,-0.04,-3.76,3.76,3.33,3.73,3.72,3.73
991,-0.02,-3.77,-0.03,-3.77,3.77,3.34,3.75,3.74,3.76
1001,0.00,-3.78,-0.01,-3.77,3.77,3.34,3.77,3.76,3.78
1011,0.04,-3.77,0.03,-3.76,3.76,3.33,3.80,3.78,3.81
1021,0.06,-3.77,0.07,-3.74,3.74,3.32,3.80,3.81,3.84
1031,0.09,-3.77,0.13,-3.71,3.71,3.30,3.80,3.84,3.86
1041,0.14,-3.75,0.20,-3.68,3.68,3.28,3.82,3.88,3.89
1052,0.21,-3.71,0.27,-3.65,3.65,3.25,3.86,3.92,3.92
1062,0.28,-3.66,0.34,-3.62,3.62,3.22,3.90,3.95,3.95
1073,0.39,-3.58,0.40,-3.58,3.58,3.18,3.98,3.99,3.97
1084,0.50,-3.50,0.46,-3.55,3.55,3.14,4.06,4.02,4.00
1094,0.59,-3.44,0.52,-3.53,3.53,3.10,4.12,4.05,4.03
1105,0.68,-3.38,0.56,-3.51,3.51,3.05,4.19,4.07,4.06
1116,0.72,-3.37,0.60,-3.49,3.49,3.00,4.21,4.10,4.09
1128,0.74,-3.38,0.64,-3.48,3.48,2.94,4.22,4.12,4.13
1139,0.74,-3.42,0.68,-3.46,3.46,2.88,4.20,4.15,4.16
1150,0.71,-3.48,0.72,-3.45,3.45,2.82,4.16,4.17,4.19
1162,0.70,-3.52,0.77,-3.42,3.42,2.76,4.13,4.19,4.22
1173,0.71,-3.54,0.82,-3.39,3.39,2.70,4.11,4.22,4.25
1185,0.78,-3.50,0.88,-3.35,3.35,2.64,4.14,4.24,4.29
1197,0.87,-3.44,0.96,-3.30,3.30,2.57,4.17,4.26,4.32
1209,1.00,-3.35,1.06,-3.24,3.24,2.51,4.24,4.29,4.35
1221,1.15,-3.23,1.17,-3.15,3.15,2.44,4.31,4.33,4.38
1233,1.31,-3.10,1.31,-3.06,3.06,2.38,4.37,4.37,4.41
1246,1.49,-2.95,1.46,-2.95,2.95,2.31,4.44,4.41,4.44
1258,1.65,-2.82,1.63,-2.82,2.82,2.24,4.47,4.46,4.48
1271,1.84,-2.67,1.81,-2.69,2.69,2.18,4.53,4.50,4.51
1283,2.02,-2.52,2.00,-2.55,2.55,2.12,4.57,4.55,4.55
1296,2.20,-2.38,2.19,-2.40,2.40,2.05,4.60,4.59,4.58
1309,2.38,-2.23,2.37,-2.25,2.25,1.99,4.63,4.63,4.62
1322,2.57,-2.08,2.56,-2.10,2.10,1.93,4.67,4.66,4.65
1335,2.74,-1.95,2.75,-1.95,1.95,1.87,4.69,4.69,4.69
1349,2.94,-1.78,2.93,-1.79,1.79,1.80,4.74,4.73,4.73
1362,3.10,-1.66,3.12,-1.65,1.65,1.74,4.75,4.76,4.76
1376,3.28,-1.52,3.30,-1.50,1.50,1.69,4.78,4.80,4.80
1390,3.46,-1.38,3.48,-1.36,1.36,1.63,4.82,4.84,4.84
1404,3.63,-1.25,3.65,-1.23,1.23,1.57,4.86,4.88,4.88
1418,3.81,-1.10,3.82,-1.10,1.10,1.52,4.91,4.92,4.92
1432,3.99,-0.96,3.98,-0.98,0.98,1.46,4.97,4.96,4.95
1446,4.14,-0.85,4.13,-0.87,0.87,1.41,5.01,5.00,4.99
1461,4.29,-0.74,4.27,-0.77,0.77,1.36,5.06,5.04,5.03
1475,4.43,-0.64,4.40,-0.68,0.68,1.31,5.11,5.08,5.07
1490,4.54,-0.57,4.52,-0.60,0.60,1.26,5.14,5.12,5.11
1505,4.64,-0.51,4.63,-0.53,0.53,1.22,5.18,5.16,5.15
1520,4.73,-0.46,4.72,-0.48,0.48,1.17,5.21,5.20,5.19
1535,4.80,-0.43,4.81,-0.44,0.44,1.13,5.24,5.24,5.23
1550,4.87,-0.40,4.88,-0.41,0.41,1.08,5.28,5.28,5.28
1566,4.94,-0.38,4.94,-0.39,0.39,1.04,5.33,5.32,5.32
1582,4.99,-0.37,4.99,-0.37,0.37,1.00,5.37,5.37,5.36
1597,5.04,-0.37,5.04,-0.37,0.37,0.96,5.41,5.41,5.41
1613,5.08,-0.37,5.08,-0.37,0.37,0.92,5.46,5.45,5.45
1629,5.11,-0.39,5.11,-0.38,0.38,0.88,5.50,5.50,5.50
1646,5.14,-0.40,5.15,-0.40,0.40,0.84,5.54,5.54,5.55
1662,5.16,-0.43,5.18,-0.41,0.41,0.81,5.57,5.59,5.59
1679,5.19,-0.45,5.20,-0.43,0.43,0.77,5.62,5.63,5.64
1696,5.22,-0.46,5.23,-0.45,0.45,0.74,5.67,5.68,5.69
1713,5.25,-0.48,5.25,-0.47,0.47,0.71,5.72,5.72,5.73
1730,5.27,-0.51,5.27,-0.49,0.49,0.68,5.77,5.76,5.78
1747,5.30,-0.53,5.29,-0.51,0.51,0.65,5.82,5.80,5.83
1764,5.32,-0.56,5.31,-0.53,0.53,0.62,5.86,5.84,5.88
1782,5.35,-0.58,5.33,-0.55,0.55,0.59,5.90,5.88,5.93
1800,5.38,-0.60,5.36,-0.57,0.57,0.57,5.95,5.93,5.98
1818,5.40,-0.63,5.39,-0.58,0.58,0.54,5.98,5.97,6.03
1836,5.42,-0.67,5.43,-0.58,0.58,0.52,6.01,6.01,6.09
1854,5.45,-0.70,5.47,-0.58,0.58,0.50,6.04,6.06,6.15
1873,5.50,-0.71,5.53,-0.58,0.58,0.48,6.08,6.11,6.21
1892,5.57,-0.71,5.59,-0.57,0.57,0.46,6.14,6.17,6.28
1911,5.64,-0.70,5.67,-0.55,0.55,0.44,6.20,6.23,6.35
1930,5.74,-0.68,5.77,-0.53,0.53,0.42,6.28,6.30,6.42
1949,5.85,-0.64,5.87,-0.51,0.51,0.41,6.36,6.38,6.50
1969,5.96,-0.61,5.99,-0.48,0.48,0.40,6.44,6.47,6.58
1988,6.09,-0.57,6.11,-0.45,0.45,0.39,6.54,6.56,6.66
2008,6.24,-0.50,6.25,-0.42,0.42,0.38,6.66,6.66,6.74
2028,6.38,-0.45,6.38,-0.38,0.38,0.37,6.77,6.77,6.83
2048,6.53,-0.39,6.51,-0.36,0.36,0.36,6.89,6.87,6.92
2069,6.69,-0.33,6.64,-0.33,0.33,0.36,7.02,6.97,7.02
2090,6.84,-0.28,6.77,-0.31,0.31,0.35,7.16,7.08,7.12
2111,6.96,-0.27,6.89,-0.30,0.30,0.35,7.26,7.19,7.23
2132,7.08,-0.27,7.02,-0.29,0.29,0.35,7.38,7.31,7.35
