frequency,raw,error,smoothed,error_smoothed,equalization,equalized_raw,equalized_smoothed,target
20,-4.173253859782576,-8.293874610390489,-4.1996848757062,-8.320323870884467,5.999999999999999,1.8267461402174234,1.8003151242937987,4.120620750607913
21,-3.843240264273187,-7.995475408982519,-3.7629762294925726,-7.915200750006188,6.0,2.156759735726813,2.2370237705074274,4.152235144709332
22,-3.3064314156276566,-7.486879895651152,-3.3492610696017375,-7.529687487962856,5.999999999999999,2.6935685843723425,2.6507389303982616,4.180448480023496
23,-2.939139933296358,-7.144399283617895,-2.958539396033695,-7.16378408475447,6.0,3.060860066703642,3.041460603966305,4.205259350321538
24,-2.5455585979991864,-6.772224694453422,-2.590811208788441,-6.817490540381022,5.999999999999999,3.4544414020008127,3.409188791211558,4.2266660964542355
25,-2.3184290331485737,-6.5630958080543715,-2.246668371649255,-6.491407072383629,5.952382728198985,3.633953695050411,3.7057143565497297,4.244666774905798
26,-1.9001246534563,-6.1593837775065605,-1.925591863102376,-6.185010269343836,5.855025287692975,3.9549006342366746,3.9294334245905986,4.259259124050261
27,-1.6432243963955249,-5.913733870106066,-1.6268877132972905,-5.89759781102677,5.713791677861778,4.0705672814662535,4.086903964564487,4.270509473710542
28,-1.281423844116937,-5.559785484702886,-1.3493233114262435,-5.6279176126152,5.542269323233721,4.260845479116783,4.192946011807477,4.278361640585948
29,-1.1008054605009308,-5.383592152012643,-1.0911672017820737,-5.374203222673442,5.348361895900938,4.247556435400007,4.257194694118864,4.282786691511712
30,-0.824879548135539,-5.108617236796333,-0.8505508535789161,-5.134534308216681,5.134534308216681,4.309654760081142,4.283983454637765,4.2837376886607945
31,-0.6703177014692817,-4.951464568344161,-0.6257133603553884,-4.907078387195307,4.907078387195307,4.236760685726026,4.281365026839919,4.281146866874879
32,-0.47208217702912664,-4.747006458555592,-0.4153449844220771,-4.690434517388688,4.690434517388688,4.218352340359561,4.275089532966611,4.274924281526465
33,-0.23234020719457024,-4.497298827602765,-0.21878166456922338,-4.483829632954259,4.483829632954258,4.251489425759687,4.265047968385034,4.264958620408194
34,-0.031190781907211307,-4.2823228378422495,-0.03598462508212329,-4.2871019294501895,4.287101929450188,4.255911147542976,4.251117304368065,4.251132055935038
35,0.1807710000055635,-4.052543561252572,0.1326689043468739,-4.100497875460732,4.100497875460732,4.281268875466296,4.233166779807606,4.233314561258136
36,0.26009952678149767,-3.951275590721827,0.286724149590991,-3.9243421905852474,3.9243421905852465,4.184441717366744,4.211066340176237,4.211375117503325
37,0.5722574939548558,-3.6129347109819663,0.4259911170662296,-3.758706235296817,3.7587062352968177,4.330963729251674,4.184697352363047,4.185192204936822
38,0.461500673416213,-3.6931657777232307,0.5507823129656928,-3.6031831598000683,3.603183159800069,4.064683833216282,4.153965472765762,4.154666451139444
39,0.5933646007194538,-3.526370489126311,0.6619867138844959,-3.456828682799859,3.456828682799858,4.050193283519312,4.118815396684354,4.119735089845765
40,0.7734069192421796,-3.3069808426772838,0.7609816584338772,-3.3182654731650483,3.318265473165048,4.091672392407228,4.079247131598925,4.0803877619194635
41,0.8734339385183477,-3.1632509735227154,0.8494305062412877,-3.185902693987739,3.185902693987739,4.059336632506087,4.035333200229027,4.036684912041063
42,0.9745563445294362,-3.01421908342415,0.9290328907620902,-3.0582031118924236,3.058203111892424,4.03275945642186,3.987236002654514,3.9887754279535863
43,0.9745563445310452,-2.962357540848341,1.0012881138994538,-2.933936286585161,2.9339362865851606,3.908492631116206,3.935224400484614,3.9369138853793864
44,1.0284771570139104,-2.852998945803449,1.0673164023946233,-2.8123720543833244,2.812372054383324,3.8408492113972343,3.8796884567779473,3.881476102817359
45,1.191657173014813,-2.631314667484257,1.1277700932902932,-2.693381113337978,2.693381113337978,3.885038286352791,3.8211512066282713,3.8229718404990702
46,1.1757057698067397,-2.5863476653176285,1.182854192069799,-2.577422146649475,2.5774221466494747,3.753127916456214,3.7602763387192737,3.762053435124368
47,1.0952459996480148,-2.604273189078991,1.2324565528035833,-2.4654141943418653,2.4654141943418657,3.5606601939898805,3.697870747145449,3.699519188727006
48,1.2762804823569092,-2.3600302509467364,1.276358884836906,-2.358522179975264,2.358522179975264,3.6348026623321728,3.63488106481217,3.6363107333036453
49,1.4573149651479902,-2.116188576018637,1.3144681404735779,-2.257915369550656,2.257915369550656,3.715230334698646,3.572383510024234,3.573503541166627
50,1.3798934421073177,-2.1323967123017624,1.3469893690069452,-2.1645772913798638,2.1645772913798633,3.544470733487181,3.5115666603868085,3.5122901544090803
51,1.3768551958276531,-2.0771008427758098,1.374472258932117,-2.079234842475167,2.0792348424751665,3.4560900383028197,3.4537071014072835,3.453956038603463
52,1.3392779017255054,-2.0605704497529422,1.39770929330099,-2.0024289724605944,2.0024289724605944,3.3417068741861,3.4001382657615844,3.3998483514784477
53,1.316646005462772,-2.034692310172534,1.4175269724501307,-1.9346861915101536,1.9346861915101543,3.2513321969729265,3.3522131639602852,3.351338315635306
54,1.4774299072844903,-1.8323483606995825,1.4345612970314021,-1.8767007892801013,1.876700789280101,3.3541306965645914,3.311262086311503,3.309778267984073
55,1.477429902792576,-1.7990249440700097,1.4491177756445395,-1.8294289310085714,1.8294289310085716,3.3068588338011473,3.278546706653111,3.2764548468625856
56,1.4774298959530732,-1.7751101906604545,1.4611781197264753,-1.7940341979580317,1.794034197958032,3.2714640939111055,3.2552123176845074,3.2525400866135277
57,1.4774298899178269,-1.7616125439051262,1.4705481715871,-1.7716919835273188,1.7716919835273184,3.2491218734451452,3.2422401551144184,3.239042433822953
58,1.4774298915905613,-1.759329959031767,1.477077043853594,-1.7633248619188122,1.7633248619188122,3.2407547535093735,3.2404019057724063,3.2367598506223283
59,1.4774299108727398,-1.7688073049058834,1.4808476987206638,-1.7693708316277692,1.7693708316277696,3.2468007425005094,3.2502185303484334,3.2462372157786232
60,1.4774299567983868,-1.790300208053653,1.4822581266019288,-1.789667330468199,1.7896673304681991,3.267097287266586,3.271925457070128,3.26773016485204
61,1.4774300297230014,-1.8237472931278638,1.48196732225794,-1.8234786949254327,1.8234786949254331,3.3009087246484343,3.305446017183373,3.301177322850865
62,1.4774301104000545,-1.8687524752966485,1.4807413026049,-1.8696333993307173,1.8696333993307173,3.3470635097307717,3.350374701935617,3.346182585696703
63,1.47743014964646,-1.9245785602367056,1.4792721690020003,-1.9266992667139822,1.9266992667139826,3.4041294163604423,3.405971435715983,3.4020087098831655
64,1.4774300657582025,-1.9901529264070912,1.4780432820092906,-1.993124316914113,1.9931243169141133,3.470554382672316,3.4711675989234037,3.4675829921652936
65,1.477429759374118,-2.064085527364571,1.4772814875775522,-2.067302532047432,2.067302532047431,3.544732291421549,3.5445840196249834,3.541515286738689
66,1.4774291547286191,-2.1446988893994963,1.4769930047446531,-2.147567607665791,2.147567607665791,3.62499676239441,3.624560612410444,3.6221280441281154
67,1.4774282698773402,-2.230069224345868,1.4770461794194294,-2.2321506246667333,2.2321506246667333,3.7095788945440735,3.7091968040861625,3.707497494223208
68,1.4774273056032796,-2.318077260531314,1.477256408900935,-2.319144968724013,2.3191449687240127,3.7965722743272923,3.7964013776249477,3.7955045661345936
69,1.4774267245185717,-2.4064669449077125,1.4774450583251806,-2.4065048589292184,2.4065048589292184,3.88393158344779,3.883949917254399,3.8838936694262842
70,1.4774272728665077,-2.4929098081111642,1.4774713230571435,-2.4920763520338802,2.4920763520338807,3.9695036249003883,3.9695476750910244,3.970337080977672
71,1.477429885253708,-2.575072525334446,1.4772560944200142,-2.5736393280553593,2.5736393280553598,4.051069213309068,4.050895422475374,4.052502410588154
72,1.4774354170741848,-2.6506850544941205,1.476817432339746,-2.6489382754715916,2.6489382754715916,4.126373692545776,4.125755707811337,4.128120471568305
73,1.4774441803223517,-2.7176066875764304,1.47631714223643,-2.7156997789598085,2.7156997789598085,4.19314395928216,4.192016921196238,4.195050867898782
74,1.4774553207723091,-2.77388740658677,1.4760885053105388,-2.7716641673397113,2.7716641673397113,4.2491194881120204,4.24775267265025,4.251342727359079
75,1.4774661641603133,-2.817822088765057,1.476595686670528,-2.8146785314429037,2.814678531442904,4.292144695603217,4.291274218113433,4.295288252925371
76,1.4774717595294256,-2.8479953586485927,1.4782842190065062,-2.8428897930143537,2.8428897930143537,4.32036155254378,4.32117401202086,4.325467118178018
77,1.4774649293370188,-2.8633152464046323,1.4813256141269402,-2.8550333097980944,2.8550333097980953,4.332498239135115,4.336358923925036,4.340780175741651
78,1.4774371587445536,-2.863034296656446,1.4853248267898613,-2.8507473671953845,2.8507473671953845,4.328184525939938,4.336072193985245,4.3404714554009995
79,1.4773805822395558,-2.8467573896077387,1.4891167407199686,-2.8307869900988756,2.8307869900988765,4.308167572338432,4.3199037308188455,4.3241379718472945
80,1.4772911291826103,-2.8144362818755457,1.4907910561151847,-2.796997718054883,2.7969977180548833,4.274288847237494,4.2877887741700675,4.291727411058156
81,1.4771725718587414,-2.766351717856627,1.4880302603406268,-2.7519649604589134,2.751964960458914,4.229137532317655,4.239995220799541,4.243524289715368
82,1.4770408189389994,-2.7030848378600942,1.478728410998386,-2.698371746189882,2.6983717461898817,4.175412565128881,4.177100157188268,4.180125656799094
83,1.4769273926847861,-2.6254804148101334,1.4617199281561248,-2.638236604532854,2.6382366045328545,4.115163997217641,4.09995653268898,4.102407807494919
84,1.5209240727079767,-2.490561716262646,1.437351237283813,-2.5723004423406346,2.572300442340635,4.093224515048612,4.009651679624448,4.011485788970623
85,1.4990069718160663,-2.4096607118824704,1.4076324553932156,-2.4998281535133184,2.499828153513318,3.9988351253293843,3.9074606089065336,3.908667683698537
86,1.3766726836281968,-2.4187330700320193,1.3758317176317338,-2.418966562893611,2.4189665628936114,3.7956392465218083,3.7947982805253453,3.795405753660216
87,1.2203986061992145,-2.4528479131829117,1.3455848993237458,-2.3275905532295775,2.3275905532295775,3.5479891594287922,3.6731754525533233,3.673246519382126
88,1.2436246754406102,-2.300157063414594,1.3198039342896553,-2.2243573297720944,2.2243573297720944,3.4679820052127046,3.5441612640617497,3.543781738855204
89,1.2786748935254777,-2.129927162313428,1.2997797365521757,-2.1095723558436688,2.1095723558436688,3.3882472493691465,3.4093520923958445,3.4086020558389056
90,1.2800888510610242,-1.9891659708137983,1.2848269990452448,-1.9855144212456843,1.9855144212456846,3.2656032723067088,3.2703414202909293,3.2692548218748225
91,1.2816011138611039,-1.8456061675449917,1.2726139192886503,-1.8560677568467292,1.856067756846729,3.1376688707078326,3.128681676135379,3.1272072814060956
92,1.2829700181660777,-1.7008459478035576,1.2600416656062792,-1.7257876095225058,1.725787609522505,3.008757627688583,2.9858292751287845,2.9838159659696353
93,1.2838583229467788,-1.5564444697354485,1.2443104509480163,-1.598760014580425,1.5987600145804253,2.8826183375272043,2.8430704655284416,2.8403027926822273
94,1.3133609837371298,-1.384377040204614,1.223738504010346,-1.4776988423929338,1.4776988423929343,2.791059826130064,2.70143734640328,2.697738023941744
95,1.2779402758781266,-1.279089660719297,1.1980230755756827,-1.3636131945822858,1.3636131945822856,2.641553470460412,2.561636270157968,2.5570299365974236
96,1.035728601938739,-1.3831921815851995,1.1678937572233306,-1.256124471596058,1.256124471596058,2.291853073534797,2.4240182288193886,2.4189207835239386
97,1.0632634534596952,-1.2207249647654446,1.1343856989474674,-1.154231156126262,1.1542311561262617,2.217494609585957,2.2886168550737294,2.2839884182251398
98,1.0640576355202964,-1.0885951636298477,1.098122997447042,-1.0571393494182835,1.0571393494182837,2.12119698493858,2.1552623468653254,2.152652799150144
99,1.0527027595120622,-0.9724837364344543,1.0589744772720233,-0.9647784019477821,0.9647784019477821,2.0174811614598442,2.0237528792198054,2.0251864959465165
100,1.038256654365569,-0.8634716277863066,1.0162431185560323,-0.8777956061827012,0.8777956061827017,1.9160522605482706,1.894038724738734,1.9017282821518755
101,1.0403136070001833,-0.7419853048231575,0.9692795287676618,-0.7970806835197177,0.7970806835197177,1.837394290519901,1.7663602122873794,1.7822989118233408
102,1.0610540047500605,-0.6057642280842293,0.9182019881623784,-0.7230852031614261,0.723085203161426,1.7841392079114864,1.6412871913238045,1.6668182328342898
104,0.8695337397284935,-0.6236245120632515,0.8643574509152677,-0.6552778044565876,0.6552778044565875,1.524811544185081,1.5196352553718553,1.493158251791745
105,0.6985035422215244,-0.6864348280069983,0.8102852504936893,-0.5919889927545758,0.5919889927545757,1.2904925349761003,1.4022742432482649,1.3849383702285227
106,0.6844039736491074,-0.5957157859572952,0.7591792966511838,-0.5307037913416341,0.530703791341634,1.2151077649907416,1.2898830879928178,1.2801197596064027
107,0.7045763245797914,-0.4738133100728783,0.7140692535199056,-0.46865773567922314,0.4686577356792232,1.1732340602590146,1.1827269891991288,1.1783896346526697
108,0.6812079699065152,-0.39820848340670256,0.6770520834730638,-0.4034768226049219,0.403476822604922,1.0846847925114371,1.0805289060779857,1.0794164533132178
109,0.6596613569220915,-0.32320180509308494,0.6488612739610162,-0.33361707110598654,0.3336170711059866,0.9932784280280781,0.9824783450670028,0.9828631620151764
110,0.6406429439071886,-0.24775588759281186,0.628898347559899,-0.2584784393950978,0.25847843939509774,0.8991213833022863,0.8873767869549968,0.8883988315000004
111,0.6247059059482425,-0.17100273065389437,0.6156553538744416,-0.178221169303718,0.17822116930371804,0.8029270752519605,0.7938765231781596,0.7957086366021369
112,0.6122174351041456,-0.09228474610017345,0.6073172331508261,-0.09342552231741158,0.0934255223174116,0.7056429574215572,0.7007427554682377,0.7045021812043191
113,0.6033414279597553,-0.011178773293888389,0.6023012618651034,-0.004764882087542514,0.0047648820875425164,0.6081063100472979,0.6070661439526459,0.6145202012536437
114,0.5980378072053527,0.07249810988647254,0.5995631694052757,0.08718903840449085,-0.08718903840449088,0.5108487688008618,0.5123741310007848,0.5255396973188802
115,0.5960784169908151,0.15870085940635814,0.5986257691515774,0.18200047760546662,-0.18200047760546664,0.4140779393853484,0.4166252915461107,0.43737755758445696
117,0.5970779848252068,0.3018979644225597,0.599400970433158,0.2792930233501638,-0.2792930233501638,0.317784961475043,0.32010794708299417,0.2951800204026471
118,0.6005371154859431,0.3911381643765135,0.6019343819510633,0.37864488349909575,-0.3786448834990957,0.22189223198684743,0.2232894984519676,0.20939895110942963
119,0.605892853448327,0.48170485152117815,0.6061937070004244,0.4795245078477442,-0.4795245078477441,0.1263683456005829,0.12666919915268032,0.12418800192714885
120,0.6125712799684229,0.5730461928864841,0.6119682639018018,0.5812935221853537,-0.5812935221853536,0.03127775778306929,0.03067474171644824,0.0395250870819388
121,0.6200361639890626,0.6646100214230224,0.6188821080129292,0.6832631288179497,-0.6832631288179498,-0.06322696482888723,-0.06438102080502062,-0.04457385743395981
123,0.6278280611527776,0.8032851162236523,0.6264777885272044,0.7847696201641008,-0.7847696201641009,-0.15694155901132334,-0.15829183163689653,-0.17545705507087472
124,0.6355895241318466,0.892531231741108,0.6343148639211043,0.8852376403041738,-0.885237640304174,-0.2496481161723274,-0.2509227763830697,-0.2569417076092615
125,0.6430741471765371,0.9806935008042208,0.6420413811007659,0.9842159664422244,-0.9842159664422245,-0.34114181926568743,-0.3421745853414586,-0.3376193536276837
126,0.6501397093971573,1.067512537689221,0.6494219145981519,1.0813860692784887,-1.0813860692784885,-0.4312463598813312,-0.43196415468033655,-0.4173728282920637
128,0.6567282340723883,1.1936242763981848,0.6563279940824749,1.1765510463367583,-1.1765510463367588,-0.5198228122643704,-0.5202230522542839,-0.5368960423257965
129,0.6628378247150997,1.2759380314488535,0.6627081270109156,1.26961186116068,-1.2696118611606801,-0.6067740364455805,-0.6069037341497645,-0.6131002067337539
130,0.6684922331644949,1.3564822719650484,0.6685544484098515,1.3605340492778502,-1.3605340492778504,-0.6920418161133555,-0.6919796008679989,-0.6879900388005535
131,0.6737140247383515,1.4351511127750654,0.6738758783234808,1.449306661285323,-1.449306661285323,-0.7755926365469714,-0.7754307829618421,-0.7614370880367138
133,0.6785059713663353,1.546280235331523,0.6786797137320213,1.5358980748072086,-1.5358980748072093,-0.857392103440874,-0.857218361075188,-0.8677742639651878
134,0.6828432463258753,1.6196207657508188,0.682959169786461,1.6202180237479125,-1.6202180237479127,-0.9373747774220373,-0.9372588539614517,-0.9367775194249435
135,0.6866765937521153,1.6907255731389415,0.6866848207382741,1.7020978011796024,-1.7020978011796029,-1.0154212074274875,-1.0154129804413288,-1.0040489793868261
137,0.6899444149326293,1.7892124903816105,0.6898019326477036,1.7812988227064654,-1.781298822706465,-1.0913544077738357,-1.0914968900587614,-1.0992680754489812
138,0.6925900956699145,1.8543681276079356,0.6922405470778153,1.8575542042764868,-1.857554204276487,-1.1649641086065725,-1.1653136571986717,-1.161778031938021
140,0.6945801844636372,1.9435300149444028,0.6939466401085095,1.9306396626397206,-1.9306396626397209,-1.2360594781760836,-1.2366930225312114,-1.2489498304807656
141,0.6959192838229198,2.0026290056689606,0.6949364932196955,2.000459706177264,-2.000459706177264,-1.3045404223543442,-1.3055232129575685,-1.3067097218460408
142,0.6966585570521526,2.0592772113968314,0.6953618391823414,2.0671241713707276,-2.067124171370728,-1.3704656143185754,-1.3717623321883865,-1.3626186543446788
144,0.6968962326889461,2.1362196077163436,0.6955553072175014,2.1309815257879157,-2.130981525787915,-1.4340852930989691,-1.4354262185704139,-1.4393233750273977
145,0.6967700124843257,2.1874238170739684,0.696014021747464,2.1925739528258203,-2.1925739528258203,-1.4958039403414947,-1.4965599310783564,-1.4906538045896425
147,0.6964425308078894,2.2566856851987387,0.6972851501708047,2.252491383924898,-2.252491383924898,-1.5560488531170087,-1.5552062337540935,-1.5602431543908493
148,0.6960818172409251,2.3032591816644024,0.6997470385497145,2.3111311930775713,-2.3111311930775713,-1.6150493758366462,-1.6113841545278569,-1.6071773644234773
150,0.6958391069896319,2.365923044284159,0.7033285288708948,2.3684132657474795,-2.36841326574748,-1.672574158757848,-1.665084736876585,-1.6700839372945269
151,0.6958264737747417,2.408578311317057,0.7072583815640847,2.4235408263078804,-2.423540826307881,-1.727714352533139,-1.716282444743796,-1.7127518375423154
153,0.6960967784648202,2.4654089841036484,0.7099598673257381,2.4749135163306537,-2.4749135163306537,-1.7788167378658335,-1.7649536490049156,-1.769312205638828
154,0.6966284238394422,2.5043690366958424,0.7091823568574229,2.5202737250552705,-2.520273725055271,-1.8236453012158287,-1.811091368197848,-1.8077406128564002
156,0.6973173894923101,2.555474086768121,0.7023906595215941,2.557099146158847,-2.557099146158847,-1.8597817566665367,-1.8547084866372527,-1.8581566972758106
157,0.6979789030294894,2.5902320007290642,0.6873359471931377,2.5831639734358385,-2.5831639734358376,-1.8851850704063482,-1.8958280262426999,-1.8922530976995748
159,0.6983606951503933,2.6349555398273696,0.6626489078479472,2.5971143837879023,-2.5971143837879027,-1.8987536886375094,-1.9344654759399555,-1.9365948446769763
160,0.6981688648130115,2.6643421678721086,0.6282663392127689,2.5988782271178543,-2.5988782271178543,-1.9007093623048428,-1.9706118879050853,-1.9661733030590969
