frequency,raw,smoothed,error,error_smoothed,equalization,parametric_eq,fixed_band_eq,equalized_raw,equalized_smoothed,target
20.00,6.82,6.82,-1.33,-1.33,1.33,1.02,-0.09,8.15,8.15,8.15
20.20,6.87,6.87,-1.28,-1.27,1.27,0.99,-0.09,8.14,8.14,8.14
20.40,6.93,6.93,-1.22,-1.22,1.22,0.96,-0.09,8.14,8.14,8.14
20.61,6.98,6.98,-1.17,-1.16,1.16,0.93,-0.09,8.14,8.14,8.14
20.81,7.04,7.04,-1.10,-1.11,1.11,0.90,-0.09,8.14,8.14,8.14
21.02,7.09,7.09,-1.05,-1.05,1.06,0.87,-0.09,8.14,8.14,8.14
21.23,7.14,7.14,-1.00,-1.00,1.01,0.84,-0.10,8.14,8.15,8.14
21.44,7.19,7.18,-0.95,-0.96,0.96,0.81,-0.10,8.15,8.14,8.14
21.66,7.23,7.23,-0.91,-0.91,0.91,0.78,-0.10,8.14,8.14,8.14
21.87,7.27,7.27,-0.87,-0.87,0.87,0.75,-0.10,8.14,8.14,8.14
22.09,7.31,7.31,-0.83,-0.83,0.83,0.72,-0.10,8.14,8.14,8.14
22.31,7.35,7.34,-0.79,-0.79,0.79,0.68,-0.10,8.14,8.14,8.14
22.54,7.38,7.38,-0.76,-0.76,0.75,0.65,-0.10,8.13,8.13,8.14
22.76,7.42,7.42,-0.72,-0.72,0.71,0.62,-0.11,8.13,8.13,8.14
22.99,7.46,7.46,-0.68,-0.68,0.68,0.59,-0.11,8.13,8.13,8.13
23.22,7.50,7.49,-0.64,-0.64,0.64,0.56,-0.11,8.14,8.13,8.13
23.45,7.53,7.53,-0.60,-0.60,0.60,0.53,-0.11,8.13,8.13,8.13
23.69,7.57,7.57,-0.56,-0.56,0.56,0.49,-0.11,8.13,8.13,8.13
23.92,7.61,7.60,-0.52,-0.53,0.53,0.46,-0.11,8.13,8.13,8.13
24.16,7.64,7.64,-0.49,-0.49,0.49,0.43,-0.12,8.13,8.13,8.13
24.40,7.68,7.68,-0.45,-0.45,0.45,0.40,-0.12,8.13,8.13,8.13
24.65,7.71,7.71,-0.42,-0.42,0.42,0.37,-0.12,8.12,8.13,8.13
24.89,7.75,7.75,-0.38,-0.38,0.38,0.33,-0.12,8.13,8.12,8.13
25.14,7.78,7.78,-0.35,-0.34,0.34,0.30,-0.12,8.12,8.12,8.12
25.39,7.82,7.82,-0.30,-0.30,0.30,0.27,-0.13,8.12,8.12,8.12
25.65,7.86,7.86,-0.26,-0.26,0.26,0.24,-0.13,8.12,8.12,8.12
25.91,7.90,7.89,-0.22,-0.23,0.23,0.20,-0.13,8.12,8.12,8.12
26.16,7.93,7.93,-0.19,-0.19,0.19,0.17,-0.14,8.12,8.12,8.12
26.43,7.97,7.97,-0.15,-0.15,0.15,0.14,-0.14,8.12,8.12,8.12
26.69,8.01,8.01,-0.11,-0.11,0.11,0.11,-0.14,8.12,8.11,8.11
26.96,8.05,8.04,-0.07,-0.07,0.07,0.08,-0.15,8.12,8.11,8.11
27.23,8.08,8.08,-0.03,-0.03,0.03,0.04,-0.15,8.11,8.11,8.11
27.50,8.12,8.12,0.01,0.01,-0.01,0.01,-0.16,8.11,8.11,8.11
27.77,8.16,8.16,0.05,0.05,-0.05,-0.02,-0.16,8.11,8.11,8.11
28.05,8.20,8.20,0.09,0.09,-0.09,-0.05,-0.17,8.11,8.11,8.11
28.33,8.24,8.24,0.13,0.13,-0.13,-0.09,-0.17,8.11,8.10,8.10
28.62,8.28,8.28,0.18,0.17,-0.17,-0.12,-0.18,8.10,8.10,8.10
28.90,8.31,8.31,0.21,0.21,-0.21,-0.15,-0.19,8.10,8.10,8.10
29.19,8.35,8.35,0.25,0.25,-0.25,-0.18,-0.19,8.10,8.10,8.10
29.48,8.38,8.38,0.28,0.29,-0.29,-0.21,-0.20,8.09,8.09,8.09
29.78,8.42,8.41,0.33,0.32,-0.32,-0.25,-0.21,8.09,8.09,8.09
30.08,8.45,8.45,0.36,0.36,-0.36,-0.28,-0.22,8.09,8.09,8.09
30.38,8.48,8.48,0.39,0.39,-0.39,-0.31,-0.23,8.09,8.09,8.09
30.68,8.51,8.51,0.42,0.42,-0.42,-0.34,-0.24,8.08,8.08,8.08
30.99,8.54,8.54,0.46,0.46,-0.46,-0.37,-0.25,8.08,8.08,8.08
31.30,8.57,8.57,0.49,0.49,-0.49,-0.41,-0.26,8.08,8.08,8.08
31.61,8.60,8.59,0.52,0.52,-0.52,-0.44,-0.28,8.08,8.07,8.07
31.93,8.62,8.62,0.55,0.55,-0.55,-0.47,-0.29,8.07,8.07,8.07
32.24,8.65,8.65,0.58,0.58,-0.58,-0.50,-0.30,8.07,8.07,8.07
32.57,8.68,8.67,0.61,0.61,-0.61,-0.53,-0.32,8.07,8.06,8.06
32.89,8.70,8.70,0.64,0.64,-0.64,-0.56,-0.33,8.06,8.06,8.06
33.22,8.73,8.73,0.67,0.67,-0.67,-0.59,-0.35,8.06,8.06,8.06
33.55,8.75,8.75,0.70,0.70,-0.70,-0.63,-0.37,8.05,8.05,8.05
33.89,8.78,8.77,0.73,0.73,-0.72,-0.66,-0.38,8.05,8.05,8.05
34.23,8.80,8.80,0.75,0.75,-0.75,-0.69,-0.40,8.04,8.04,8.04
34.57,8.82,8.82,0.78,0.78,-0.78,-0.72,-0.42,8.04,8.04,8.04
34.92,8.85,8.84,0.81,0.81,-0.81,-0.75,-0.44,8.04,8.03,8.04
35.27,8.87,8.87,0.84,0.84,-0.84,-0.78,-0.46,8.03,8.03,8.03
35.62,8.90,8.89,0.87,0.87,-0.87,-0.81,-0.48,8.03,8.02,8.03
35.97,8.92,8.92,0.90,0.90,-0.90,-0.84,-0.50,8.02,8.02,8.02
36.33,8.95,8.95,0.93,0.93,-0.93,-0.87,-0.53,8.02,8.02,8.02
36.70,8.98,8.97,0.97,0.96,-0.96,-0.90,-0.55,8.01,8.01,8.01
37.06,9.00,9.00,0.99,1.00,-1.00,-0.93,-0.57,8.00,8.00,8.00
37.43,9.03,9.03,1.03,1.03,-1.03,-0.96,-0.60,8.00,8.00,8.00
37.81,9.05,9.05,1.06,1.06,-1.06,-0.99,-0.62,7.99,7.99,7.99
38.19,9.08,9.08,1.09,1.09,-1.09,-1.02,-0.65,7.99,7.99,7.99
38.57,9.10,9.10,1.12,1.12,-1.12,-1.05,-0.68,7.98,7.98,7.98
38.95,9.12,9.12,1.15,1.15,-1.14,-1.08,-0.70,7.98,7.98,7.97
39.34,9.14,9.13,1.17,1.17,-1.17,-1.11,-0.73,7.97,7.96,7.97
39.74,9.15,9.15,1.19,1.19,-1.20,-1.14,-0.76,7.95,7.96,7.96
40.14,9.17,9.17,1.22,1.22,-1.22,-1.17,-0.79,7.95,7.95,7.95
40.54,9.19,9.19,1.24,1.24,-1.25,-1.20,-0.82,7.94,7.94,7.94
40.94,9.21,9.21,1.27,1.27,-1.27,-1.23,-0.85,7.94,7.94,7.93
41.35,9.22,9.22,1.29,1.30,-1.29,-1.26,-0.88,7.93,7.93,7.93
41.76,9.24,9.24,1.32,1.32,-1.31,-1.28,-0.92,7.92,7.92,7.92
42.18,9.25,9.25,1.34,1.34,-1.34,-1.31,-0.95,7.91,7.91,7.91
42.60,9.26,9.26,1.36,1.36,-1.36,-1.34,-0.98,7.90,7.90,7.90
43.03,9.27,9.27,1.38,1.38,-1.38,-1.37,-1.02,7.89,7.89,7.89
43.46,9.28,9.28,1.40,1.40,-1.40,-1.40,-1.05,7.87,7.88,7.88
43.90,9.30,9.29,1.43,1.42,-1.43,-1.43,-1.09,7.87,7.87,7.87
44.33,9.31,9.31,1.45,1.45,-1.45,-1.46,-1.13,7.86,7.86,7.86
44.78,9.32,9.32,1.47,1.48,-1.47,-1.48,-1.17,7.84,7.85,7.85
45.23,9.34,9.33,1.50,1.50,-1.50,-1.51,-1.20,7.84,7.84,7.84
45.68,9.35,9.35,1.52,1.52,-1.52,-1.54,-1.24,7.83,7.83,7.82
46.13,9.36,9.36,1.55,1.55,-1.55,-1.57,-1.28,7.81,7.81,7.81
46.60,9.37,9.37,1.57,1.57,-1.57,-1.60,-1.33,7.80,7.80,7.80
47.06,9.38,9.38,1.59,1.59,-1.59,-1.62,-1.37,7.78,7.78,7.78
47.53,9.39,9.39,1.62,1.62,-1.62,-1.65,-1.41,7.77,7.77,7.77
48.01,9.40,9.40,1.64,1.64,-1.64,-1.68,-1.45,7.76,7.76,7.76
48.49,9.41,9.41,1.67,1.67,-1.66,-1.71,-1.50,7.74,7.74,7.74
48.97,9.42,9.42,1.69,1.69,-1.69,-1.73,-1.54,7.73,7.73,7.73
49.46,9.43,9.42,1.72,1.71,-1.71,-1.76,-1.59,7.71,7.71,7.71
49.96,9.43,9.43,1.73,1.74,-1.74,-1.79,-1.63,7.69,7.69,7.69
50.46,9.44,9.44,1.76,1.76,-1.76,-1.82,-1.68,7.67,7.67,7.68
50.96,9.45,9.45,1.79,1.79,-1.79,-1.84,-1.73,7.66,7.66,7.66
51.47,9.46,9.46,1.82,1.82,-1.82,-1.87,-1.77,7.64,7.64,7.64
51.99,9.47,9.47,1.84,1.84,-1.84,-1.90,-1.82,7.63,7.62,7.62
52.51,9.48,9.48,1.87,1.87,-1.87,-1.93,-1.87,7.61,7.61,7.60
53.03,9.48,9.48,1.89,1.90,-1.90,-1.95,-1.92,7.58,7.58,7.58
53.56,9.49,9.49,1.92,1.92,-1.92,-1.98,-1.96,7.57,7.56,7.56
54.10,9.49,9.49,1.95,1.95,-1.95,-2.01,-2.01,7.54,7.54,7.54
54.64,9.50,9.49,1.98,1.97,-1.97,-2.04,-2.05,7.52,7.52,7.52
55.18,9.50,9.50,2.00,2.00,-2.00,-2.06,-2.10,7.50,7.50,7.50
55.74,9.50,9.50,2.02,2.03,-2.03,-2.09,-2.15,7.47,7.47,7.47
56.29,9.51,9.50,2.06,2.05,-2.06,-2.12,-2.19,7.45,7.45,7.45
56.86,9.51,9.51,2.08,2.08,-2.08,-2.15,-2.23,7.42,7.42,7.42
57.42,9.51,9.51,2.11,2.11,-2.11,-2.17,-2.27,7.40,7.40,7.40
58.00,9.52,9.51,2.14,2.14,-2.14,-2.20,-2.31,7.38,7.37,7.37
58.58,9.52,9.52,2.17,2.17,-2.17,-2.23,-2.35,7.35,7.35,7.35
59.16,9.52,9.52,2.20,2.20,-2.20,-2.26,-2.39,7.32,7.32,7.32
59.76,9.52,9.52,2.23,2.23,-2.23,-2.29,-2.42,7.29,7.29,7.29
60.35,9.52,9.52,2.26,2.26,-2.26,-2.32,-2.46,7.26,7.26,7.26
60.96,9.52,9.51,2.29,2.29,-2.29,-2.34,-2.49,7.23,7.23,7.23
61.57,9.51,9.51,2.31,2.32,-2.32,-2.37,-2.52,7.19,7.20,7.20
62.18,9.51,9.51,2.34,2.34,-2.35,-2.40,-2.55,7.16,7.16,7.16
62.80,9.51,9.50,2.38,2.37,-2.37,-2.43,-2.57,7.13,7.13,7.13
63.43,9.50,9.50,2.40,2.40,-2.40,-2.46,-2.60,7.10,7.10,7.10
64.07,9.50,9.50,2.44,2.43,-2.43,-2.49,-2.62,7.07,7.06,7.06
64.71,9.49,9.49,2.46,2.46,-2.46,-2.52,-2.64,7.03,7.03,7.03
65.35,9.48,9.48,2.49,2.49,-2.49,-2.55,-2.66,6.99,6.99,6.99
66.01,9.47,9.47,2.52,2.52,-2.52,-2.58,-2.67,6.95,6.95,6.95
66.67,9.46,9.46,2.55,2.55,-2.55,-2.61,-2.69,6.91,6.91,6.91
67.33,9.45,9.45,2.58,2.58,-2.58,-2.64,-2.70,6.87,6.87,6.87
68.01,9.44,9.44,2.61,2.61,-2.61,-2.67,-2.72,6.83,6.83,6.83
68.69,9.43,9.43,2.64,2.64,-2.64,-2.70,-2.73,6.79,6.79,6.79
69.37,9.42,9.42,2.67,2.67,-2.67,-2.73,-2.74,6.75,6.75,6.75
70.07,9.41,9.41,2.71,2.70,-2.70,-2.76,-2.75,6.71,6.70,6.70
70.77,9.39,9.39,2.73,2.73,-2.73,-2.79,-2.76,6.65,6.66,6.66
71.48,9.38,9.38,2.77,2.77,-2.77,-2.82,-2.77,6.61,6.61,6.61
72.19,9.36,9.36,2.79,2.80,-2.80,-2.85,-2.78,6.56,6.56,6.56
72.91,9.35,9.34,2.83,2.83,-2.83,-2.88,-2.80,6.52,6.51,6.51
73.64,9.33,9.33,2.86,2.86,-2.86,-2.91,-2.81,6.46,6.46,6.47
74.38,9.31,9.31,2.89,2.90,-2.90,-2.95,-2.82,6.41,6.42,6.42
75.12,9.30,9.29,2.93,2.93,-2.93,-2.98,-2.83,6.37,6.36,6.36
75.87,9.28,9.28,2.97,2.97,-2.96,-3.01,-2.85,6.31,6.31,6.31
76.63,9.26,9.26,3.00,3.00,-3.00,-3.04,-2.86,6.26,6.26,6.26
77.40,9.24,9.24,3.03,3.03,-3.03,-3.08,-2.88,6.20,6.20,6.20
78.17,9.22,9.22,3.07,3.07,-3.07,-3.11,-2.90,6.15,6.15,6.15
78.95,9.20,9.20,3.11,3.11,-3.11,-3.14,-2.92,6.09,6.09,6.09
79.74,9.18,9.18,3.14,3.14,-3.14,-3.18,-2.94,6.03,6.03,6.03
80.54,9.16,9.16,3.18,3.18,-3.18,-3.21,-2.97,5.98,5.98,5.98
81.35,9.14,9.14,3.22,3.22,-3.22,-3.25,-2.99,5.92,5.92,5.92
82.16,9.12,9.11,3.26,3.26,-3.26,-3.28,-3.02,5.86,5.86,5.86
82.98,9.09,9.09,3.29,3.30,-3.30,-3.31,-3.05,5.79,5.80,5.80
83.81,9.07,9.07,3.33,3.33,-3.33,-3.35,-3.09,5.73,5.73,5.73
84.65,9.05,9.04,3.38,3.37,-3.37,-3.38,-3.12,5.67,5.67,5.67
85.50,9.02,9.02,3.41,3.41,-3.41,-3.42,-3.16,5.61,5.61,5.61
86.35,9.00,8.99,3.45,3.45,-3.45,-3.45,-3.20,5.55,5.54,5.54
87.22,8.97,8.97,3.49,3.49,-3.49,-3.49,-3.25,5.48,5.48,5.48
88.09,8.94,8.94,3.53,3.53,-3.53,-3.52,-3.29,5.41,5.41,5.41
88.97,8.92,8.91,3.57,3.57,-3.57,-3.56,-3.34,5.35,5.35,5.35
89.86,8.89,8.89,3.61,3.61,-3.61,-3.59,-3.39,5.28,5.28,5.28
90.76,8.86,8.86,3.65,3.65,-3.65,-3.63,-3.44,5.21,5.21,5.21
91.66,8.83,8.83,3.69,3.69,-3.68,-3.66,-3.50,5.14,5.14,5.14
92.58,8.80,8.79,3.72,3.72,-3.72,-3.69,-3.56,5.08,5.07,5.07
93.51,8.76,8.76,3.75,3.76,-3.76,-3.73,-3.62,5.00,5.00,5.00
94.44,8.73,8.73,3.79,3.80,-3.80,-3.76,-3.68,4.93,4.93,4.93
95.39,8.70,8.69,3.84,3.83,-3.83,-3.80,-3.75,4.86,4.86,4.86
96.34,8.66,8.66,3.87,3.87,-3.87,-3.83,-3.82,4.79,4.79,4.79
97.30,8.63,8.63,3.91,3.91,-3.91,-3.86,-3.89,4.72,4.72,4.72
98.28,8.59,8.59,3.94,3.94,-3.94,-3.90,-3.96,4.64,4.65,4.65
99.26,8.56,8.56,3.98,3.98,-3.98,-3.93,-4.03,4.58,4.58,4.57
100.25,8.52,8.52,4.02,4.01,-4.01,-3.96,-4.11,4.50,4.50,4.50
101.25,8.48,8.48,4.05,4.05,-4.05,-3.99,-4.18,4.43,4.43,4.43
102.27,8.44,8.44,4.08,4.08,-4.08,-4.03,-4.26,4.36,4.36,4.36
103.29,8.40,8.40,4.11,4.11,-4.11,-4.06,-4.33,4.28,4.28,4.28
104.32,8.36,8.36,4.15,4.15,-4.15,-4.09,-4.41,4.21,4.21,4.21
105.37,8.32,8.32,4.18,4.18,-4.18,-4.12,-4.49,4.14,4.14,4.14
106.42,8.27,8.27,4.20,4.21,-4.21,-4.15,-4.56,4.06,4.06,4.06
107.48,8.23,8.23,4.24,4.23,-4.23,-4.18,-4.64,3.99,3.99,3.99
108.56,8.18,8.18,4.26,4.26,-4.26,-4.20,-4.71,3.92,3.92,3.92
109.64,8.14,8.14,4.29,4.29,-4.29,-4.23,-4.79,3.85,3.85,3.85
110.74,8.09,8.09,4.31,4.31,-4.31,-4.26,-4.85,3.78,3.77,3.77
111.85,8.04,8.04,4.34,4.34,-4.34,-4.28,-4.92,3.70,3.70,3.70
112.97,7.99,7.99,4.36,4.36,-4.36,-4.30,-4.98,3.63,3.63,3.63
114.10,7.94,7.94,4.38,4.38,-4.38,-4.33,-5.04,3.55,3.55,3.56
115.24,7.89,7.89,4.40,4.41,-4.41,-4.35,-5.09,3.48,3.49,3.49
116.39,7.85,7.84,4.43,4.43,-4.43,-4.37,-5.14,3.42,3.42,3.42
117.55,7.80,7.79,4.45,4.45,-4.45,-4.39,-5.18,3.35,3.35,3.35
118.73,7.74,7.74,4.46,4.47,-4.46,-4.41,-5.21,3.27,3.28,3.28
119.92,7.69,7.69,4.48,4.48,-4.48,-4.42,-5.24,3.21,3.21,3.21
121.12,7.63,7.63,4.49,4.49,-4.49,-4.44,-5.26,3.13,3.14,3.14
122.33,7.58,7.58,4.51,4.51,-4.51,-4.46,-5.27,3.07,3.07,3.07
123.55,7.52,7.52,4.52,4.52,-4.52,-4.47,-5.28,3.00,3.00,3.00
124.79,7.46,7.46,4.52,4.52,-4.52,-4.48,-5.27,2.93,2.93,2.93
126.03,7.40,7.40,4.53,4.53,-4.53,-4.49,-5.26,2.87,2.87,2.87
127.29,7.34,7.34,4.53,4.53,-4.53,-4.50,-5.24,2.80,2.80,2.80
128.57,7.28,7.28,4.54,4.54,-4.54,-4.50,-5.21,2.74,2.74,2.74
129.85,7.21,7.21,4.53,4.54,-4.54,-4.51,-5.17,2.67,2.67,2.67
131.15,7.15,7.15,4.54,4.53,-4.54,-4.51,-5.13,2.61,2.61,2.61
132.46,7.08,7.08,4.53,4.53,-4.53,-4.51,-5.08,2.55,2.55,2.55
133.79,7.02,7.02,4.53,4.53,-4.53,-4.51,-5.02,2.49,2.49,2.49
135.12,6.95,6.95,4.52,4.52,-4.52,-4.51,-4.95,2.43,2.43,2.43
136.48,6.88,6.88,4.51,4.51,-4.51,-4.51,-4.89,2.37,2.37,2.37
137.84,6.81,6.81,4.50,4.50,-4.50,-4.50,-4.81,2.31,2.31,2.31
139.22,6.74,6.74,4.49,4.49,-4.49,-4.49,-4.73,2.25,2.25,2.25
140.61,6.67,6.66,4.47,4.47,-4.47,-4.48,-4.64,2.20,2.19,2.20
142.02,6.59,6.59,4.45,4.45,-4.45,-4.47,-4.56,2.13,2.14,2.14
143.44,6.52,6.52,4.43,4.43,-4.43,-4.46,-4.46,2.08,2.08,2.08
144.87,6.45,6.44,4.42,4.41,-4.41,-4.44,-4.37,2.03,2.03,2.03
146.32,6.37,6.37,4.39,4.39,-4.39,-4.42,-4.27,1.98,1.98,1.98
147.78,6.29,6.29,4.36,4.36,-4.36,-4.40,-4.18,1.92,1.93,1.93
149.26,6.22,6.22,4.34,4.34,-4.34,-4.38,-4.08,1.88,1.88,1.88
150.75,6.14,6.14,4.31,4.31,-4.31,-4.35,-3.98,1.83,1.83,1.83
152.26,6.06,6.06,4.28,4.28,-4.27,-4.33,-3.88,1.78,1.78,1.78
153.78,5.97,5.97,4.24,4.24,-4.24,-4.30,-3.78,1.73,1.73,1.73
155.32,5.89,5.89,4.20,4.20,-4.21,-4.26,-3.68,1.68,1.68,1.68
156.88,5.81,5.81,4.17,4.17,-4.17,-4.23,-3.58,1.64,1.64,1.64
158.44,5.73,5.73,4.13,4.13,-4.13,-4.19,-3.48,1.59,1.59,1.59
160.03,5.64,5.64,4.09,4.09,-4.09,-4.16,-3.38,1.54,1.55,1.55
161.63,5.56,5.56,4.06,4.05,-4.05,-4.11,-3.29,1.51,1.50,1.50
163.24,5.47,5.47,4.01,4.01,-4.01,-4.07,-3.19,1.46,1.46,1.46
164.88,5.39,5.39,3.97,3.97,-3.97,-4.03,-3.10,1.42,1.42,1.42
166.53,5.30,5.30,3.92,3.92,-3.92,-3.98,-3.01,1.38,1.38,1.38
168.19,5.21,5.21,3.87,3.87,-3.87,-3.93,-2.92,1.34,1.34,1.34
169.87,5.12,5.12,3.82,3.82,-3.82,-3.88,-2.83,1.30,1.30,1.30
171.57,5.03,5.03,3.76,3.76,-3.77,-3.82,-2.75,1.26,1.26,1.27
173.29,4.95,4.94,3.72,3.71,-3.71,-3.77,-2.66,1.24,1.23,1.23
175.02,4.85,4.85,3.65,3.66,-3.65,-3.71,-2.58,1.19,1.20,1.20
176.77,4.76,4.76,3.60,3.60,-3.59,-3.65,-2.50,1.16,1.17,1.16
178.54,4.67,4.66,3.54,3.53,-3.53,-3.58,-2.42,1.13,1.13,1.13
180.32,4.57,4.57,3.47,3.47,-3.47,-3.52,-2.35,1.10,1.10,1.10
182.13,4.47,4.47,3.40,3.40,-3.41,-3.45,-2.27,1.06,1.07,1.07
183.95,4.38,4.37,3.34,3.34,-3.34,-3.38,-2.20,1.04,1.04,1.04
185.79,4.28,4.28,3.27,3.27,-3.27,-3.31,-2.13,1.01,1.01,1.01
187.65,4.18,4.18,3.20,3.20,-3.20,-3.24,-2.06,0.98,0.98,0.98
189.52,4.08,4.08,3.13,3.13,-3.13,-3.16,-1.99,0.95,0.95,0.95
191.42,3.98,3.98,3.05,3.05,-3.05,-3.09,-1.93,0.92,0.93,0.93
193.33,3.88,3.88,2.98,2.98,-2.98,-3.01,-1.87,0.90,0.90,0.90
195.27,3.78,3.78,2.90,2.90,-2.90,-2.93,-1.80,0.88,0.88,0.87
197.22,3.67,3.67,2.82,2.82,-2.82,-2.84,-1.74,0.85,0.85,0.85
199.19,3.57,3.57,2.74,2.74,-2.74,-2.76,-1.68,0.83,0.83,0.83
201.18,3.46,3.46,2.65,2.65,-2.65,-2.68,-1.63,0.80,0.80,0.80
203.19,3.35,3.35,2.57,2.57,-2.57,-2.59,-1.57,0.78,0.78,0.78
205.23,3.24,3.24,2.48,2.48,-2.48,-2.50,-1.52,0.76,0.76,0.76
207.28,3.13,3.13,2.39,2.39,-2.39,-2.41,-1.46,0.74,0.74,0.74
209.35,3.02,3.02,2.30,2.30,-2.30,-2.32,-1.41,0.72,0.72,0.72
211.44,2.91,2.91,2.21,2.21,-2.21,-2.23,-1.36,0.70,0.70,0.70
213.56,2.80,2.80,2.12,2.11,-2.11,-2.13,-1.31,0.69,0.68,0.68
215.69,2.68,2.68,2.01,2.02,-2.02,-2.04,-1.26,0.66,0.66,0.66
217.85,2.57,2.57,1.92,1.92,-1.92,-1.94,-1.21,0.65,0.64,0.64
220.03,2.45,2.45,1.82,1.82,-1.82,-1.84,-1.17,0.62,0.63,0.63
222.23,2.34,2.34,1.73,1.72,-1.72,-1.74,-1.12,0.61,0.61,0.61
224.45,2.22,2.22,1.62,1.62,-1.62,-1.64,-1.07,0.59,0.59,0.60
226.70,2.11,2.11,1.53,1.53,-1.53,-1.54,-1.03,0.58,0.58,0.58
228.96,1.99,1.99,1.42,1.42,-1.43,-1.44,-0.98,0.56,0.56,0.56
231.25,1.88,1.87,1.33,1.32,-1.33,-1.34,-0.94,0.55,0.55,0.55
233.57,1.76,1.76,1.22,1.22,-1.23,-1.24,-0.89,0.53,0.53,0.54
235.90,1.64,1.64,1.12,1.12,-1.12,-1.14,-0.85,0.51,0.52,0.51
238.26,1.53,1.52,1.03,1.02,-1.02,-1.03,-0.80,0.51,0.50,0.50
240.64,1.41,1.41,0.92,0.92,-0.92,-0.93,-0.76,0.49,0.49,0.49
243.05,1.30,1.29,0.82,0.82,-0.82,-0.82,-0.72,0.48,0.48,0.48
245.48,1.18,1.18,0.71,0.71,-0.71,-0.72,-0.67,0.46,0.46,0.46
247.93,1.06,1.06,0.61,0.61,-0.61,-0.61,-0.63,0.45,0.45,0.45
250.41,0.95,0.95,0.51,0.51,-0.51,-0.51,-0.58,0.44,0.44,0.44
252.92,0.84,0.83,0.41,0.40,-0.40,-0.40,-0.54,0.43,0.43,0.43
255.45,0.72,0.72,0.30,0.30,-0.30,-0.30,-0.49,0.42,0.42,0.42
258.00,0.61,0.61,0.20,0.20,-0.20,-0.20,-0.45,0.41,0.41,0.41
260.58,0.50,0.50,0.10,0.09,-0.09,-0.09,-0.40,0.40,0.40,0.40
263.19,0.39,0.38,-0.00,-0.01,0.01,0.01,-0.36,0.39,0.39,0.39
265.82,0.27,0.27,-0.12,-0.11,0.11,0.12,-0.31,0.38,0.38,0.38
268.48,0.17,0.16,-0.21,-0.21,0.21,0.22,-0.26,0.38,0.37,0.37
271.16,0.06,0.06,-0.31,-0.31,0.31,0.32,-0.21,0.37,0.37,0.37
273.87,-0.05,-0.05,-0.41,-0.41,0.41,0.42,-0.17,0.36,0.36,0.36
276.61,-0.15,-0.16,-0.50,-0.51,0.51,0.52,-0.12,0.36,0.35,0.35
279.38,-0.26,-0.26,-0.61,-0.60,0.61,0.62,-0.07,0.34,0.35,0.34
282.17,-0.36,-0.36,-0.70,-0.70,0.70,0.72,-0.02,0.34,0.34,0.34
284.99,-0.46,-0.46,-0.80,-0.80,0.80,0.81,0.03,0.34,0.34,0.34
287.84,-0.56,-0.56,-0.91,-0.90,0.90,0.91,0.08,0.34,0.34,0.34
290.72,-0.65,-0.66,-0.99,-0.99,0.99,1.00,0.13,0.34,0.34,0.34
293.63,-0.75,-0.75,-1.08,-1.09,1.09,1.09,0.18,0.34,0.34,0.33
296.57,-0.84,-0.85,-1.18,-1.18,1.18,1.18,0.23,0.34,0.34,0.33
299.53,-0.94,-0.94,-1.28,-1.28,1.27,1.27,0.29,0.33,0.33,0.34
302.53,-1.03,-1.03,-1.37,-1.36,1.36,1.36,0.34,0.33,0.33,0.33
305.55,-1.11,-1.11,-1.45,-1.45,1.45,1.44,0.39,0.33,0.33,0.34
308.61,-1.19,-1.19,-1.52,-1.53,1.53,1.52,0.45,0.34,0.34,0.33
311.69,-1.27,-1.27,-1.61,-1.61,1.61,1.60,0.51,0.34,0.34,0.34
314.81,-1.34,-1.35,-1.68,-1.68,1.68,1.68,0.56,0.34,0.34,0.33
317.96,-1.42,-1.42,-1.76,-1.76,1.76,1.76,0.62,0.34,0.34,0.34
321.14,-1.49,-1.49,-1.83,-1.83,1.83,1.83,0.68,0.34,0.34,0.33
324.35,-1.56,-1.56,-1.90,-1.90,1.90,1.90,0.74,0.33,0.34,0.34
327.59,-1.62,-1.62,-1.97,-1.97,1.96,1.96,0.80,0.34,0.34,0.35
330.87,-1.68,-1.68,-2.02,-2.03,2.03,2.03,0.86,0.34,0.34,0.34
334.18,-1.74,-1.74,-2.09,-2.08,2.09,2.09,0.92,0.35,0.35,0.35
337.52,-1.79,-1.80,-2.14,-2.14,2.15,2.15,0.98,0.36,0.35,0.34
340.90,-1.85,-1.85,-2.20,-2.20,2.20,2.21,1.04,0.35,0.35,0.35
344.30,-1.90,-1.90,-2.26,-2.26,2.26,2.26,1.11,0.35,0.35,0.36
347.75,-1.95,-1.95,-2.32,-2.31,2.31,2.31,1.17,0.36,0.36,0.36
351.23,-1.99,-1.99,-2.35,-2.36,2.36,2.36,1.24,0.36,0.36,0.36
354.74,-2.03,-2.03,-2.41,-2.40,2.40,2.40,1.31,0.37,0.37,0.38
358.28,-2.07,-2.07,-2.45,-2.45,2.45,2.45,1.38,0.38,0.38,0.37
361.87,-2.10,-2.10,-2.48,-2.49,2.49,2.49,1.45,0.39,0.38,0.38
365.49,-2.13,-2.14,-2.52,-2.52,2.52,2.52,1.52,0.39,0.39,0.39
369.14,-2.17,-2.17,-2.56,-2.56,2.56,2.56,1.59,0.39,0.39,0.39
372.83,-2.19,-2.20,-2.60,-2.60,2.59,2.59,1.66,0.40,0.39,0.40
376.56,-2.22,-2.22,-2.62,-2.62,2.62,2.62,1.74,0.40,0.40,0.40
380.33,-2.24,-2.24,-2.65,-2.64,2.65,2.64,1.81,0.40,0.41,0.41
384.13,-2.25,-2.26,-2.66,-2.67,2.67,2.67,1.89,0.42,0.41,0.41
387.97,-2.27,-2.27,-2.69,-2.69,2.69,2.69,1.96,0.42,0.42,0.41
391.85,-2.29,-2.29,-2.72,-2.71,2.71,2.71,2.04,0.42,0.43,0.43
395.77,-2.30,-2.30,-2.73,-2.74,2.73,2.72,2.12,0.43,0.43,0.43
399.73,-2.31,-2.31,-2.75,-2.75,2.75,2.74,2.20,0.44,0.44,0.44
403.72,-2.32,-2.32,-2.77,-2.76,2.76,2.75,2.27,0.44,0.44,0.45
407.76,-2.32,-2.33,-2.77,-2.77,2.77,2.76,2.35,0.45,0.45,0.44
411.84,-2.33,-2.33,-2.79,-2.78,2.78,2.77,2.43,0.45,0.45,0.45
415.96,-2.33,-2.33,-2.79,-2.79,2.79,2.78,2.51,0.46,0.46,0.46
420.12,-2.33,-2.33,-2.79,-2.80,2.80,2.78,2.58,0.46,0.46,0.46
424.32,-2.33,-2.33,-2.80,-2.80,2.80,2.79,2.66,0.47,0.47,0.47
428.56,-2.33,-2.33,-2.81,-2.80,2.80,2.79,2.74,0.47,0.48,0.48
432.85,-2.32,-2.33,-2.81,-2.81,2.81,2.79,2.81,0.49,0.48,0.48
437.18,-2.32,-2.32,-2.81,-2.81,2.81,2.79,2.88,0.49,0.49,0.48
441.55,-2.32,-2.32,-2.81,-2.81,2.82,2.79,2.95,0.49,0.50,0.49
445.96,-2.31,-2.31,-2.81,-2.82,2.82,2.79,3.02,0.50,0.50,0.50
450.42,-2.30,-2.31,-2.82,-2.82,2.82,2.78,3.08,0.52,0.51,0.52
454.93,-2.30,-2.30,-2.83,-2.82,2.82,2.78,3.14,0.52,0.52,0.53
459.48,-2.28,-2.29,-2.82,-2.82,2.82,2.78,3.20,0.53,0.53,0.54
464.07,-2.27,-2.27,-2.81,-2.81,2.81,2.77,3.25,0.54,0.54,0.54
468.71,-2.26,-2.26,-2.81,-2.81,2.81,2.77,3.30,0.55,0.55,0.54
473.40,-2.25,-2.25,-2.81,-2.80,2.81,2.76,3.34,0.55,0.55,0.55
478.13,-2.24,-2.24,-2.81,-2.80,2.80,2.75,3.38,0.56,0.56,0.56
482.91,-2.22,-2.23,-2.79,-2.80,2.80,2.75,3.42,0.57,0.57,0.57
487.74,-2.21,-2.21,-2.79,-2.79,2.79,2.74,3.45,0.58,0.58,0.58
492.62,-2.19,-2.20,-2.78,-2.78,2.79,2.74,3.47,0.60,0.59,0.59
497.55,-2.18,-2.18,-2.78,-2.78,2.79,2.73,3.49,0.60,0.60,0.60
502.52,-2.17,-2.17,-2.78,-2.78,2.78,2.72,3.50,0.61,0.61,0.61
507.55,-2.15,-2.16,-2.78,-2.78,2.78,2.72,3.51,0.62,0.62,0.63
512.62,-2.14,-2.14,-2.78,-2.78,2.77,2.71,3.51,0.63,0.63,0.64
517.75,-2.12,-2.12,-2.77,-2.77,2.77,2.70,3.50,0.64,0.64,0.65
522.93,-2.10,-2.11,-2.76,-2.76,2.76,2.70,3.49,0.66,0.65,0.66
528.16,-2.09,-2.09,-2.76,-2.75,2.75,2.69,3.48,0.66,0.66,0.66
533.44,-2.07,-2.07,-2.75,-2.74,2.75,2.69,3.46,0.67,0.67,0.67
538.77,-2.05,-2.06,-2.73,-2.74,2.74,2.68,3.44,0.69,0.68,0.67
