frequency,raw,error,smoothed,error_smoothed,equalization,parametric_eq,fixed_band_eq,equalized_raw,equalized_smoothed,target
20.00,-1.27,-2.14,-1.24,-2.15,2.15,-1.09,-0.67,0.88,0.90,0.87
20.20,-1.18,-2.10,-1.17,-2.11,2.11,-1.11,-0.69,0.93,0.94,0.92
20.40,-1.10,-2.07,-1.09,-2.07,2.07,-1.12,-0.71,0.97,0.98,0.97
20.61,-1.01,-2.01,-1.01,-2.02,2.02,-1.14,-0.73,1.01,1.01,1.00
20.81,-0.93,-1.98,-0.93,-1.97,1.97,-1.16,-0.75,1.04,1.04,1.05
21.02,-0.84,-1.93,-0.84,-1.91,1.91,-1.18,-0.77,1.07,1.07,1.09
21.23,-0.74,-1.85,-0.75,-1.84,1.84,-1.20,-0.79,1.10,1.09,1.11
21.44,-0.64,-1.77,-0.65,-1.77,1.77,-1.22,-0.81,1.13,1.11,1.13
21.66,-0.54,-1.69,-0.55,-1.69,1.69,-1.24,-0.83,1.15,1.13,1.15
21.87,-0.44,-1.60,-0.45,-1.60,1.60,-1.26,-0.85,1.17,1.15,1.16
22.09,-0.33,-1.51,-0.34,-1.51,1.51,-1.28,-0.87,1.18,1.17,1.18
22.31,-0.22,-1.41,-0.23,-1.41,1.41,-1.31,-0.89,1.19,1.18,1.19
22.54,-0.11,-1.30,-0.11,-1.30,1.30,-1.33,-0.92,1.19,1.19,1.19
22.76,0.00,-1.19,0.01,-1.18,1.18,-1.35,-0.94,1.18,1.19,1.19
22.99,0.11,-1.07,0.14,-1.05,1.05,-1.37,-0.97,1.16,1.19,1.18
23.22,0.24,-0.94,0.28,-0.91,0.91,-1.39,-0.99,1.16,1.19,1.18
23.45,0.37,-0.81,0.42,-0.78,0.78,-1.42,-1.02,1.15,1.20,1.18
23.69,0.50,-0.69,0.55,-0.65,0.65,-1.44,-1.04,1.15,1.20,1.19
23.92,0.63,-0.55,0.68,-0.52,0.52,-1.46,-1.07,1.15,1.20,1.19
24.16,0.79,-0.40,0.81,-0.39,0.39,-1.49,-1.10,1.18,1.20,1.20
24.40,0.96,-0.24,0.93,-0.26,0.26,-1.51,-1.13,1.23,1.20,1.21
24.65,1.13,-0.07,1.05,-0.15,0.15,-1.54,-1.15,1.28,1.20,1.20
24.89,1.30,0.11,1.17,-0.03,0.03,-1.56,-1.18,1.34,1.20,1.20
25.14,1.40,0.21,1.28,0.08,-0.08,-1.59,-1.21,1.32,1.20,1.20
25.39,1.45,0.25,1.40,0.20,-0.20,-1.61,-1.24,1.26,1.20,1.21
25.65,1.49,0.29,1.51,0.31,-0.31,-1.64,-1.27,1.18,1.20,1.21
25.91,1.54,0.35,1.63,0.43,-0.43,-1.67,-1.30,1.11,1.20,1.20
26.16,1.63,0.44,1.74,0.54,-0.54,-1.69,-1.33,1.10,1.20,1.19
26.43,1.75,0.56,1.84,0.64,-0.64,-1.72,-1.36,1.11,1.20,1.19
26.69,1.87,0.68,1.94,0.74,-0.74,-1.75,-1.40,1.13,1.20,1.19
26.96,1.98,0.78,2.03,0.83,-0.83,-1.78,-1.43,1.15,1.19,1.20
27.23,2.12,0.92,2.12,0.92,-0.92,-1.80,-1.46,1.20,1.19,1.20
27.50,2.27,1.07,2.21,1.02,-1.02,-1.83,-1.49,1.26,1.19,1.20
27.77,2.41,1.22,2.30,1.11,-1.11,-1.86,-1.52,1.30,1.19,1.19
28.05,2.54,1.35,2.40,1.21,-1.21,-1.89,-1.55,1.33,1.19,1.19
28.33,2.57,1.39,2.51,1.32,-1.32,-1.92,-1.58,1.25,1.19,1.18
28.62,2.60,1.42,2.62,1.43,-1.43,-1.95,-1.61,1.17,1.19,1.18
28.90,2.63,1.45,2.72,1.53,-1.53,-1.98,-1.64,1.10,1.19,1.19
29.19,2.72,1.55,2.82,1.64,-1.64,-2.01,-1.67,1.09,1.19,1.18
29.48,2.84,1.65,2.92,1.74,-1.74,-2.05,-1.70,1.11,1.19,1.20
29.78,2.97,1.79,3.02,1.83,-1.83,-2.08,-1.73,1.14,1.18,1.18
30.08,3.09,1.90,3.11,1.93,-1.93,-2.11,-1.76,1.16,1.18,1.19
30.38,3.20,2.02,3.20,2.01,-2.01,-2.14,-1.79,1.19,1.18,1.18
30.68,3.32,2.14,3.28,2.10,-2.10,-2.18,-1.81,1.22,1.18,1.18
30.99,3.43,2.25,3.37,2.19,-2.19,-2.21,-1.84,1.24,1.18,1.18
31.30,3.52,2.34,3.46,2.28,-2.28,-2.25,-1.87,1.24,1.18,1.18
31.61,3.60,2.42,3.56,2.38,-2.38,-2.28,-1.89,1.22,1.18,1.18
31.93,3.68,2.50,3.65,2.47,-2.47,-2.32,-1.92,1.21,1.17,1.18
32.24,3.74,2.58,3.73,2.56,-2.56,-2.36,-1.94,1.18,1.17,1.16
32.57,3.79,2.62,3.81,2.64,-2.64,-2.39,-1.97,1.15,1.17,1.17
32.89,3.83,2.66,3.89,2.72,-2.72,-2.43,-1.99,1.11,1.16,1.17
33.22,3.91,2.75,3.96,2.80,-2.80,-2.47,-2.02,1.12,1.16,1.16
33.55,3.99,2.83,4.02,2.87,-2.87,-2.51,-2.04,1.13,1.16,1.16
33.89,4.08,2.93,4.09,2.94,-2.94,-2.55,-2.06,1.15,1.15,1.15
34.23,4.16,3.01,4.15,3.00,-3.00,-2.59,-2.09,1.16,1.15,1.16
34.57,4.22,3.08,4.22,3.07,-3.07,-2.63,-2.11,1.15,1.15,1.14
34.92,4.29,3.15,4.29,3.14,-3.14,-2.68,-2.13,1.15,1.14,1.14
35.27,4.36,3.22,4.35,3.21,-3.21,-2.72,-2.16,1.15,1.14,1.14
35.62,4.43,3.29,4.41,3.27,-3.27,-2.77,-2.18,1.16,1.14,1.14
35.97,4.50,3.37,4.47,3.33,-3.33,-2.81,-2.21,1.17,1.14,1.14
36.33,4.53,3.39,4.53,3.39,-3.39,-2.86,-2.24,1.14,1.14,1.14
36.70,4.57,3.44,4.59,3.45,-3.45,-2.91,-2.26,1.13,1.14,1.13
37.06,4.61,3.48,4.64,3.49,-3.49,-2.96,-2.29,1.12,1.14,1.13
37.43,4.68,3.54,4.68,3.54,-3.54,-3.01,-2.32,1.14,1.14,1.15
37.81,4.75,3.61,4.73,3.59,-3.59,-3.06,-2.35,1.17,1.14,1.14
38.19,4.80,3.66,4.78,3.63,-3.63,-3.11,-2.39,1.17,1.15,1.14
38.57,4.81,3.66,4.82,3.67,-3.67,-3.17,-2.42,1.14,1.15,1.15
38.95,4.82,3.67,4.86,3.71,-3.71,-3.23,-2.45,1.11,1.15,1.16
39.34,4.88,3.73,4.91,3.75,-3.75,-3.28,-2.49,1.13,1.15,1.15
39.74,4.95,3.80,4.95,3.79,-3.79,-3.34,-2.53,1.16,1.15,1.15
40.14,5.00,3.85,4.99,3.84,-3.84,-3.41,-2.57,1.17,1.15,1.16
40.54,5.04,3.89,5.03,3.88,-3.88,-3.47,-2.61,1.16,1.15,1.15
40.94,5.07,3.92,5.08,3.93,-3.93,-3.53,-2.66,1.15,1.15,1.15
41.35,5.12,3.98,5.12,3.97,-3.97,-3.60,-2.70,1.15,1.15,1.15
41.76,5.16,4.02,5.16,4.02,-4.02,-3.66,-2.75,1.14,1.14,1.14
42.18,5.20,4.05,5.20,4.07,-4.07,-3.73,-2.80,1.14,1.14,1.15
42.60,5.23,4.10,5.25,4.12,-4.12,-3.79,-2.85,1.12,1.13,1.13
43.03,5.27,4.14,5.29,4.17,-4.17,-3.85,-2.91,1.11,1.12,1.13
43.46,5.32,4.20,5.33,4.22,-4.22,-3.92,-2.96,1.11,1.11,1.13
43.90,5.36,4.26,5.36,4.26,-4.26,-3.97,-3.02,1.10,1.10,1.10
44.33,5.40,4.32,5.39,4.30,-4.30,-4.03,-3.08,1.11,1.09,1.09
44.78,5.45,4.38,5.42,4.33,-4.33,-4.08,-3.15,1.12,1.08,1.07
45.23,5.47,4.41,5.44,4.37,-4.37,-4.12,-3.21,1.10,1.07,1.07
45.68,5.47,4.42,5.47,4.41,-4.41,-4.16,-3.28,1.06,1.06,1.05
46.13,5.48,4.45,5.49,4.44,-4.44,-4.19,-3.35,1.04,1.05,1.04
46.60,5.51,4.47,5.51,4.47,-4.47,-4.22,-3.42,1.04,1.04,1.04
47.06,5.54,4.52,5.53,4.50,-4.50,-4.24,-3.50,1.04,1.03,1.02
47.53,5.55,4.53,5.55,4.54,-4.54,-4.26,-3.57,1.02,1.01,1.02
48.01,5.56,4.54,5.57,4.57,-4.57,-4.27,-3.65,1.00,1.00,1.02
48.49,5.56,4.56,5.59,4.60,-4.60,-4.28,-3.73,0.97,0.99,1.01
48.97,5.56,4.57,5.61,4.62,-4.62,-4.29,-3.81,0.94,0.98,0.99
49.46,5.61,4.64,5.63,4.65,-4.65,-4.29,-3.90,0.96,0.98,0.97
49.96,5.66,4.71,5.65,4.68,-4.68,-4.30,-3.98,0.98,0.97,0.95
50.46,5.66,4.71,5.67,4.71,-4.71,-4.31,-4.07,0.95,0.96,0.96
50.96,5.66,4.71,5.69,4.74,-4.74,-4.31,-4.16,0.92,0.95,0.95
51.47,5.71,4.78,5.70,4.76,-4.76,-4.32,-4.24,0.95,0.94,0.93
51.99,5.76,4.84,5.72,4.79,-4.79,-4.33,-4.33,0.97,0.93,0.92
52.51,5.76,4.84,5.73,4.81,-4.81,-4.34,-4.42,0.95,0.92,0.92
53.03,5.76,4.84,5.75,4.83,-4.83,-4.35,-4.51,0.93,0.92,0.92
53.56,5.76,4.85,5.76,4.85,-4.85,-4.37,-4.60,0.91,0.91,0.91
54.10,5.76,4.86,5.77,4.87,-4.87,-4.38,-4.69,0.90,0.90,0.90
54.64,5.76,4.87,5.78,4.88,-4.88,-4.40,-4.78,0.89,0.90,0.89
55.18,5.76,4.87,5.78,4.89,-4.89,-4.42,-4.86,0.88,0.89,0.89
55.74,5.76,4.88,5.78,4.90,-4.90,-4.44,-4.94,0.87,0.89,0.88
56.29,5.76,4.88,5.78,4.90,-4.90,-4.46,-5.02,0.86,0.88,0.88
56.86,5.76,4.89,5.78,4.91,-4.91,-4.48,-5.10,0.86,0.87,0.87
57.42,5.76,4.91,5.77,4.90,-4.90,-4.51,-5.18,0.86,0.86,0.85
58.00,5.76,4.92,5.75,4.90,-4.90,-4.53,-5.25,0.86,0.85,0.85
58.58,5.76,4.92,5.73,4.90,-4.90,-4.56,-5.32,0.86,0.83,0.84
59.16,5.74,4.91,5.71,4.89,-4.89,-4.59,-5.38,0.85,0.82,0.83
59.76,5.68,4.87,5.68,4.89,-4.89,-4.61,-5.44,0.80,0.80,0.82
60.35,5.66,4.88,5.64,4.87,-4.87,-4.64,-5.49,0.79,0.77,0.78
60.96,5.66,4.90,5.60,4.85,-4.85,-4.67,-5.54,0.81,0.75,0.76
61.57,5.56,4.84,5.55,4.83,-4.83,-4.70,-5.58,0.73,0.72,0.72
62.18,5.47,4.78,5.50,4.81,-4.81,-4.73,-5.61,0.67,0.69,0.69
62.80,5.42,4.77,5.44,4.78,-4.78,-4.76,-5.64,0.64,0.66,0.65
63.43,5.36,4.75,5.37,4.75,-4.75,-4.79,-5.67,0.61,0.62,0.61
64.07,5.30,4.72,5.30,4.71,-4.71,-4.82,-5.69,0.59,0.59,0.58
64.71,5.25,4.71,5.22,4.67,-4.67,-4.85,-5.70,0.58,0.55,0.54
65.35,5.17,4.66,5.14,4.63,-4.63,-4.88,-5.71,0.54,0.51,0.51
66.01,5.08,4.61,5.07,4.59,-4.59,-4.91,-5.72,0.49,0.48,0.47
66.67,5.01,4.58,5.00,4.56,-4.56,-4.94,-5.72,0.45,0.44,0.44
67.33,4.96,4.57,4.94,4.54,-4.54,-4.97,-5.71,0.42,0.40,0.40
68.01,4.91,4.55,4.89,4.53,-4.53,-5.00,-5.71,0.38,0.36,0.37
68.69,4.85,4.53,4.86,4.54,-4.54,-5.03,-5.70,0.32,0.32,0.32
69.37,4.80,4.52,4.83,4.55,-4.55,-5.07,-5.68,0.25,0.28,0.28
70.07,4.75,4.51,4.81,4.57,-4.57,-5.10,-5.67,0.18,0.24,0.24
70.77,4.70,4.49,4.82,4.62,-4.62,-5.13,-5.65,0.08,0.20,0.21
71.48,4.73,4.57,4.83,4.68,-4.68,-5.16,-5.63,0.06,0.15,0.17
72.19,4.82,4.71,4.86,4.75,-4.75,-5.19,-5.61,0.07,0.11,0.11
72.91,4.93,4.86,4.91,4.84,-4.84,-5.22,-5.59,0.09,0.07,0.07
73.64,5.02,5.00,4.97,4.95,-4.95,-5.25,-5.57,0.08,0.02,0.02
74.38,5.07,5.09,5.04,5.06,-5.06,-5.28,-5.56,0.01,-0.02,-0.02
75.12,5.10,5.17,5.13,5.19,-5.19,-5.31,-5.54,-0.09,-0.06,-0.07
75.87,5.20,5.32,5.22,5.33,-5.33,-5.34,-5.52,-0.12,-0.10,-0.11
76.63,5.28,5.43,5.32,5.47,-5.47,-5.37,-5.51,-0.19,-0.15,-0.15
77.40,5.41,5.60,5.42,5.61,-5.61,-5.40,-5.50,-0.19,-0.19,-0.19
78.17,5.56,5.80,5.51,5.73,-5.73,-5.43,-5.49,-0.17,-0.22,-0.24
78.95,5.59,5.85,5.60,5.86,-5.86,-5.46,-5.48,-0.26,-0.26,-0.26
79.74,5.69,5.99,5.67,5.97,-5.97,-5.48,-5.47,-0.27,-0.30,-0.30
80.54,5.75,6.08,5.74,6.07,-6.07,-5.51,-5.47,-0.31,-0.33,-0.33
81.35,5.84,6.21,5.80,6.16,-6.16,-5.54,-5.48,-0.32,-0.36,-0.37
82.16,5.96,6.36,5.86,6.25,-6.25,-5.56,-5.48,-0.29,-0.40,-0.40
82.98,5.99,6.41,5.91,6.33,-6.33,-5.59,-5.49,-0.34,-0.43,-0.42
83.81,5.96,6.42,5.95,6.41,-6.41,-5.62,-5.50,-0.45,-0.46,-0.46
84.65,5.92,6.42,5.98,6.48,-6.48,-5.64,-5.52,-0.55,-0.49,-0.50
85.50,5.91,6.43,6.01,6.54,-6.54,-5.67,-5.54,-0.63,-0.53,-0.52
86.35,5.96,6.52,6.04,6.59,-6.59,-5.69,-5.57,-0.63,-0.56,-0.55
87.22,6.05,6.64,6.06,6.65,-6.65,-5.72,-5.60,-0.60,-0.59,-0.59
88.09,6.05,6.67,6.08,6.70,-6.70,-5.74,-5.63,-0.65,-0.63,-0.62
88.97,6.05,6.71,6.09,6.75,-6.75,-5.76,-5.67,-0.69,-0.66,-0.66
89.86,6.05,6.75,6.08,6.78,-6.78,-5.79,-5.72,-0.72,-0.69,-0.69
90.76,6.05,6.78,6.07,6.79,-6.79,-5.81,-5.76,-0.74,-0.73,-0.73
91.66,6.05,6.81,6.03,6.79,-6.79,-5.83,-5.81,-0.74,-0.76,-0.76
92.58,6.05,6.86,5.99,6.78,-6.78,-5.85,-5.87,-0.73,-0.79,-0.80
93.51,6.02,6.85,5.94,6.76,-6.76,-5.87,-5.93,-0.74,-0.82,-0.83
94.44,5.97,6.83,5.86,6.72,-6.72,-5.89,-5.99,-0.75,-0.86,-0.86
95.39,5.90,6.79,5.77,6.66,-6.66,-5.91,-6.06,-0.75,-0.89,-0.89
96.34,5.78,6.71,5.65,6.57,-6.57,-5.93,-6.13,-0.79,-0.92,-0.92
97.30,5.62,6.57,5.54,6.49,-6.49,-5.94,-6.21,-0.86,-0.95,-0.95
98.28,5.42,6.40,5.43,6.41,-6.41,-5.96,-6.29,-0.99,-0.98,-0.98
99.26,5.23,6.24,5.32,6.33,-6.33,-5.98,-6.37,-1.10,-1.01,-1.01
100.25,5.10,6.14,5.21,6.25,-6.25,-5.99,-6.45,-1.15,-1.04,-1.04
101.25,4.96,6.03,5.10,6.17,-6.17,-6.01,-6.54,-1.21,-1.07,-1.07
102.27,4.92,6.02,5.01,6.11,-6.11,-6.02,-6.63,-1.18,-1.10,-1.10
103.29,4.84,5.98,4.93,6.06,-6.06,-6.03,-6.72,-1.22,-1.13,-1.14
104.32,4.78,5.94,4.87,6.03,-6.03,-6.05,-6.81,-1.25,-1.16,-1.16
105.37,4.73,5.92,4.83,6.02,-6.02,-6.06,-6.91,-1.29,-1.19,-1.19
106.42,4.80,6.02,4.80,6.03,-6.03,-6.07,-7.00,-1.23,-1.23,-1.21
107.48,4.94,6.20,4.80,6.06,-6.06,-6.08,-7.09,-1.11,-1.26,-1.25
108.56,4.88,6.18,4.81,6.10,-6.10,-6.09,-7.18,-1.22,-1.29,-1.29
109.64,4.80,6.13,4.83,6.16,-6.16,-6.10,-7.27,-1.36,-1.33,-1.32
110.74,4.82,6.18,4.87,6.23,-6.23,-6.10,-7.36,-1.41,-1.36,-1.36
111.85,4.87,6.25,4.90,6.29,-6.29,-6.11,-7.44,-1.42,-1.39,-1.38
112.97,4.98,6.41,4.94,6.36,-6.36,-6.12,-7.52,-1.38,-1.42,-1.43
114.10,5.00,6.46,4.96,6.42,-6.42,-6.12,-7.60,-1.42,-1.45,-1.46
115.24,5.00,6.49,4.99,6.48,-6.48,-6.12,-7.66,-1.47,-1.48,-1.49
116.39,4.99,6.52,5.01,6.52,-6.52,-6.13,-7.72,-1.53,-1.51,-1.52
117.55,5.03,6.57,5.03,6.56,-6.56,-6.13,-7.78,-1.53,-1.53,-1.54
118.73,5.09,6.66,5.04,6.60,-6.60,-6.13,-7.82,-1.51,-1.56,-1.57
119.92,5.11,6.69,5.06,6.64,-6.64,-6.13,-7.86,-1.52,-1.58,-1.58
121.12,5.12,6.73,5.08,6.68,-6.68,-6.13,-7.88,-1.55,-1.60,-1.60
122.33,5.09,6.71,5.09,6.71,-6.71,-6.13,-7.90,-1.62,-1.61,-1.62
123.55,5.05,6.68,5.10,6.73,-6.73,-6.13,-7.90,-1.67,-1.63,-1.63
124.79,5.04,6.68,5.09,6.74,-6.74,-6.12,-7.89,-1.70,-1.65,-1.64
126.03,5.05,6.71,5.09,6.75,-6.75,-6.12,-7.88,-1.70,-1.66,-1.66
127.29,5.06,6.72,5.09,6.76,-6.76,-6.11,-7.85,-1.70,-1.67,-1.66
128.57,5.06,6.75,5.08,6.77,-6.77,-6.10,-7.80,-1.71,-1.68,-1.68
129.85,5.12,6.82,5.07,6.77,-6.77,-6.10,-7.75,-1.65,-1.70,-1.70
131.15,5.13,6.84,5.06,6.77,-6.77,-6.09,-7.69,-1.64,-1.71,-1.71
132.46,5.08,6.81,5.04,6.76,-6.76,-6.08,-7.62,-1.68,-1.72,-1.72
133.79,5.00,6.74,5.03,6.76,-6.76,-6.07,-7.54,-1.76,-1.73,-1.74
135.12,4.99,6.75,5.01,6.76,-6.76,-6.05,-7.45,-1.77,-1.75,-1.76
136.48,4.99,6.75,5.00,6.75,-6.75,-6.04,-7.36,-1.76,-1.76,-1.76
137.84,4.99,6.77,4.98,6.75,-6.75,-6.03,-7.25,-1.76,-1.77,-1.78
139.22,4.94,6.74,4.96,6.74,-6.74,-6.01,-7.14,-1.80,-1.78,-1.80
140.61,4.90,6.72,4.93,6.73,-6.73,-5.99,-7.03,-1.83,-1.80,-1.82
142.02,4.90,6.72,4.91,6.73,-6.73,-5.97,-6.91,-1.83,-1.82,-1.82
143.44,4.86,6.70,4.89,6.73,-6.73,-5.96,-6.79,-1.86,-1.84,-1.83
144.87,4.82,6.68,4.86,6.73,-6.73,-5.93,-6.67,-1.90,-1.86,-1.86
146.32,4.81,6.70,4.85,6.74,-6.74,-5.91,-6.54,-1.93,-1.89,-1.89
147.78,4.81,6.72,4.83,6.76,-6.76,-5.89,-6.42,-1.95,-1.93,-1.90
149.26,4.79,6.73,4.81,6.78,-6.78,-5.87,-6.29,-1.99,-1.97,-1.94
150.75,4.73,6.73,4.76,6.78,-6.78,-5.84,-6.16,-2.05,-2.02,-1.99
152.26,4.71,6.76,4.69,6.76,-6.76,-5.81,-6.04,-2.05,-2.07,-2.05
153.78,4.67,6.77,4.61,6.73,-6.73,-5.78,-5.91,-2.06,-2.12,-2.10
155.32,4.63,6.80,4.52,6.69,-6.69,-5.75,-5.79,-2.06,-2.18,-2.17
156.88,4.58,6.81,4.41,6.65,-6.65,-5.72,-5.67,-2.07,-2.24,-2.23
158.44,4.43,6.73,4.31,6.61,-6.61,-5.69,-5.55,-2.18,-2.30,-2.30
160.03,4.33,6.70,4.21,6.56,-6.56,-5.66,-5.43,-2.23,-2.35,-2.37
161.63,4.24,6.67,4.11,6.52,-6.52,-5.62,-5.32,-2.28,-2.41,-2.43
163.24,3.96,6.44,4.02,6.48,-6.48,-5.59,-5.21,-2.52,-2.46,-2.48
164.88,3.70,6.23,3.93,6.44,-6.44,-5.55,-5.10,-2.74,-2.50,-2.52
166.53,3.54,6.10,3.85,6.40,-6.40,-5.51,-4.99,-2.85,-2.54,-2.56
168.19,3.53,6.12,3.78,6.36,-6.36,-5.47,-4.89,-2.82,-2.57,-2.59
169.87,3.58,6.20,3.72,6.31,-6.31,-5.43,-4.79,-2.73,-2.60,-2.62
171.57,3.64,6.27,3.67,6.28,-6.28,-5.38,-4.69,-2.64,-2.61,-2.63
173.29,3.70,6.34,3.63,6.25,-6.25,-5.34,-4.60,-2.55,-2.62,-2.63
175.02,3.71,6.34,3.59,6.22,-6.22,-5.29,-4.51,-2.51,-2.63,-2.63
176.77,3.70,6.34,3.57,6.20,-6.20,-5.24,-4.43,-2.50,-2.63,-2.64
178.54,3.67,6.30,3.56,6.18,-6.18,-5.19,-4.35,-2.51,-2.63,-2.63
180.32,3.63,6.25,3.55,6.17,-6.17,-5.14,-4.27,-2.54,-2.63,-2.62
182.13,3.56,6.16,3.54,6.17,-6.17,-5.09,-4.19,-2.60,-2.62,-2.60
183.95,3.48,6.09,3.53,6.15,-6.15,-5.03,-4.12,-2.67,-2.62,-2.61
185.79,3.46,6.06,3.50,6.12,-6.12,-4.98,-4.05,-2.66,-2.62,-2.60
187.65,3.39,6.01,3.45,6.07,-6.07,-4.92,-3.99,-2.68,-2.62,-2.61
189.52,3.38,6.00,3.39,6.01,-6.01,-4.86,-3.93,-2.63,-2.63,-2.62
191.42,3.28,5.91,3.31,5.94,-5.94,-4.80,-3.87,-2.66,-2.63,-2.63
193.33,3.19,5.83,3.23,5.87,-5.87,-4.74,-3.81,-2.68,-2.64,-2.64
195.27,3.21,5.86,3.15,5.80,-5.80,-4.67,-3.75,-2.59,-2.65,-2.65
197.22,3.16,5.83,3.07,5.74,-5.74,-4.61,-3.70,-2.57,-2.66,-2.66
199.19,3.01,5.70,2.99,5.67,-5.67,-4.54,-3.65,-2.65,-2.68,-2.68
201.18,2.90,5.60,2.90,5.59,-5.59,-4.47,-3.60,-2.69,-2.69,-2.69
203.19,2.86,5.57,2.80,5.51,-5.51,-4.40,-3.56,-2.65,-2.71,-2.70
205.23,2.70,5.43,2.70,5.42,-5.42,-4.32,-3.51,-2.72,-2.72,-2.72
207.28,2.52,5.25,2.60,5.33,-5.33,-4.25,-3.47,-2.81,-2.74,-2.72
209.35,2.41,5.16,2.49,5.24,-5.24,-4.17,-3.43,-2.82,-2.75,-2.74
211.44,2.32,5.09,2.36,5.13,-5.13,-4.09,-3.39,-2.81,-2.76,-2.77
213.56,2.26,5.03,2.24,5.02,-5.02,-4.01,-3.35,-2.75,-2.77,-2.77
215.69,2.15,4.93,2.13,4.91,-4.91,-3.93,-3.31,-2.76,-2.78,-2.78
217.85,2.05,4.84,2.00,4.79,-4.79,-3.85,-3.27,-2.74,-2.79,-2.79
220.03,1.87,4.67,1.86,4.66,-4.66,-3.76,-3.23,-2.78,-2.79,-2.79
222.23,1.72,4.53,1.73,4.52,-4.52,-3.67,-3.19,-2.80,-2.79,-2.81
224.45,1.60,4.40,1.60,4.40,-4.40,-3.58,-3.15,-2.79,-2.79,-2.80
226.70,1.51,4.31,1.48,4.27,-4.27,-3.49,-3.10,-2.76,-2.79,-2.80
228.96,1.39,4.17,1.37,4.15,-4.15,-3.39,-3.06,-2.76,-2.78,-2.78
231.25,1.14,3.91,1.24,4.01,-4.01,-3.30,-3.01,-2.87,-2.77,-2.77
233.57,1.05,3.81,1.10,3.86,-3.86,-3.20,-2.96,-2.80,-2.75,-2.76
235.90,0.99,3.73,0.96,3.69,-3.69,-3.10,-2.91,-2.70,-2.74,-2.74
238.26,0.84,3.57,0.82,3.53,-3.53,-2.99,-2.85,-2.69,-2.72,-2.73
240.64,0.56,3.27,0.68,3.38,-3.38,-2.89,-2.80,-2.82,-2.70,-2.70
243.05,0.46,3.13,0.55,3.23,-3.23,-2.78,-2.73,-2.76,-2.67,-2.67
245.48,0.53,3.18,0.42,3.07,-3.07,-2.67,-2.67,-2.54,-2.65,-2.64
247.93,0.50,3.11,0.28,2.90,-2.90,-2.56,-2.60,-2.40,-2.62,-2.61
250.41,0.14,2.73,0.13,2.72,-2.72,-2.45,-2.53,-2.58,-2.59,-2.59
252.92,-0.09,2.47,-0.01,2.55,-2.55,-2.33,-2.45,-2.64,-2.57,-2.56
255.45,-0.30,2.23,-0.16,2.38,-2.38,-2.21,-2.37,-2.68,-2.54,-2.53
258.00,-0.38,2.13,-0.29,2.22,-2.22,-2.09,-2.29,-2.60,-2.51,-2.51
260.58,-0.46,2.03,-0.46,2.03,-2.03,-1.97,-2.20,-2.49,-2.49,-2.49
263.19,-0.57,1.89,-0.64,1.82,-1.82,-1.84,-2.11,-2.39,-2.46,-2.45
265.82,-0.73,1.71,-0.83,1.61,-1.61,-1.72,-2.01,-2.33,-2.43,-2.44
268.48,-1.02,1.39,-1.03,1.38,-1.38,-1.59,-1.91,-2.40,-2.41,-2.41
271.16,-1.25,1.13,-1.24,1.13,-1.13,-1.45,-1.81,-2.38,-2.38,-2.38
273.87,-1.44,0.92,-1.46,0.89,-0.89,-1.32,-1.70,-2.32,-2.35,-2.36
276.61,-1.54,0.78,-1.67,0.65,-0.65,-1.18,-1.60,-2.19,-2.32,-2.32
279.38,-1.65,0.65,-1.87,0.43,-0.43,-1.04,-1.48,-2.08,-2.29,-2.30
282.17,-2.06,0.21,-2.08,0.19,-0.19,-0.90,-1.37,-2.25,-2.27,-2.27
284.99,-2.33,-0.10,-2.29,-0.05,0.05,-0.75,-1.25,-2.27,-2.24,-2.23
287.84,-2.84,-0.62,-2.51,-0.30,0.30,-0.61,-1.13,-2.54,-2.21,-2.21
290.72,-2.90,-0.72,-2.71,-0.54,0.54,-0.46,-1.01,-2.36,-2.17,-2.18
293.63,-2.98,-0.83,-2.91,-0.77,0.77,-0.30,-0.88,-2.21,-2.14,-2.15
296.57,-3.13,-1.02,-3.10,-0.98,0.98,-0.15,-0.75,-2.14,-2.11,-2.11
299.53,-3.24,-1.15,-3.28,-1.19,1.19,0.01,-0.63,-2.04,-2.08,-2.08
302.53,-3.39,-1.32,-3.46,-1.40,1.40,0.17,-0.49,-1.98,-2.06,-2.07
305.55,-3.57,-1.55,-3.63,-1.60,1.60,0.33,-0.36,-1.96,-2.03,-2.02
308.61,-3.75,-1.75,-3.80,-1.80,1.80,0.49,-0.23,-1.95,-2.00,-2.00
311.69,-3.97,-2.00,-3.96,-1.98,1.98,0.66,-0.09,-1.99,-1.98,-1.97
314.81,-4.10,-2.15,-4.11,-2.15,2.15,0.83,0.04,-1.95,-1.96,-1.94
317.96,-4.20,-2.27,-4.26,-2.33,2.33,1.00,0.18,-1.87,-1.93,-1.93
321.14,-4.41,-2.49,-4.42,-2.51,2.51,1.17,0.32,-1.90,-1.91,-1.92
324.35,-4.61,-2.71,-4.60,-2.71,2.71,1.35,0.46,-1.90,-1.90,-1.90
327.59,-4.79,-2.91,-4.78,-2.90,2.90,1.53,0.60,-1.89,-1.88,-1.88
330.87,-4.97,-3.09,-4.95,-3.08,3.08,1.71,0.75,-1.89,-1.87,-1.87
334.18,-5.08,-3.22,-5.12,-3.27,3.27,1.89,0.89,-1.81,-1.85,-1.85
337.52,-5.24,-3.39,-5.29,-3.45,3.45,2.07,1.04,-1.79,-1.84,-1.85
340.90,-5.48,-3.65,-5.45,-3.61,3.61,2.25,1.18,-1.86,-1.83,-1.83
344.30,-5.67,-3.85,-5.60,-3.77,3.77,2.44,1.33,-1.89,-1.83,-1.82
347.75,-5.79,-3.97,-5.74,-3.92,3.92,2.62,1.48,-1.87,-1.82,-1.82
351.23,-5.90,-4.09,-5.88,-4.07,4.07,2.81,1.63,-1.83,-1.81,-1.81
354.74,-6.02,-4.20,-6.01,-4.20,4.20,3.00,1.79,-1.81,-1.81,-1.81
358.28,-6.12,-4.31,-6.14,-4.33,4.33,3.18,1.94,-1.78,-1.81,-1.80
361.87,-6.26,-4.45,-6.27,-4.46,4.46,3.37,2.10,-1.79,-1.80,-1.81
365.49,-6.42,-4.62,-6.39,-4.59,4.59,3.55,2.25,-1.83,-1.80,-1.80
369.14,-6.51,-4.70,-6.52,-4.71,4.71,3.74,2.41,-1.79,-1.80,-1.81
372.83,-6.55,-4.74,-6.63,-4.83,4.83,3.92,2.57,-1.72,-1.80,-1.81
376.56,-6.62,-4.81,-6.72,-4.92,4.92,4.10,2.73,-1.70,-1.80,-1.81
380.33,-6.69,-4.89,-6.79,-4.98,4.98,4.27,2.89,-1.71,-1.81,-1.80
384.13,-6.79,-4.99,-6.84,-5.03,5.03,4.45,3.05,-1.76,-1.81,-1.80
387.97,-6.94,-5.13,-6.88,-5.06,5.06,4.62,3.22,-1.87,-1.81,-1.81
391.85,-7.08,-5.25,-6.90,-5.08,5.08,4.78,3.38,-2.00,-1.82,-1.82
395.77,-7.11,-5.29,-6.90,-5.08,5.08,4.94,3.55,-2.03,-1.82,-1.81
399.73,-7.08,-5.25,-6.88,-5.05,5.05,5.09,3.71,-2.02,-1.83,-1.82
403.72,-7.03,-5.20,-6.85,-5.02,5.02,5.23,3.88,-2.01,-1.83,-1.83
407.76,-6.89,-5.05,-6.81,-4.98,4.98,5.36,4.05,-1.91,-1.84,-1.84
411.84,-6.72,-4.88,-6.79,-4.95,4.95,5.49,4.21,-1.77,-1.84,-1.84
415.96,-6.54,-4.70,-6.76,-4.92,4.92,5.61,4.38,-1.61,-1.84,-1.84
420.12,-6.50,-4.66,-6.72,-4.88,4.88,5.71,4.54,-1.61,-1.84,-1.84
424.32,-6.53,-4.69,-6.67,-4.84,4.84,5.81,4.70,-1.69,-1.83,-1.84
428.56,-6.53,-4.70,-6.62,-4.79,4.79,5.89,4.86,-1.73,-1.82,-1.83
432.85,-6.52,-4.70,-6.58,-4.77,4.77,5.96,5.01,-1.75,-1.81,-1.82
437.18,-6.49,-4.68,-6.54,-4.76,4.76,6.02,5.17,-1.73,-1.78,-1.81
441.55,-6.52,-4.75,-6.51,-4.75,4.75,6.06,5.31,-1.77,-1.76,-1.77
445.96,-6.61,-4.87,-6.50,-4.77,4.77,6.09,5.45,-1.84,-1.73,-1.74
450.42,-6.70,-4.99,-6.49,-4.80,4.80,6.11,5.59,-1.90,-1.69,-1.71
454.93,-6.69,-5.03,-6.48,-4.84,4.84,6.11,5.71,-1.85,-1.65,-1.66
459.48,-6.45,-4.84,-6.48,-4.88,4.88,6.11,5.83,-1.57,-1.61,-1.61
464.07,-6.31,-4.75,-6.49,-4.93,4.93,6.08,5.94,-1.38,-1.56,-1.56
468.71,-6.39,-4.88,-6.45,-4.94,4.94,6.05,6.04,-1.44,-1.51,-1.50
473.40,-6.50,-5.03,-6.42,-4.96,4.96,6.01,6.13,-1.54,-1.46,-1.46
478.13,-6.46,-5.05,-6.39,-4.98,4.98,5.95,6.20,-1.48,-1.41,-1.40
482.91,-6.26,-4.89,-6.35,-4.98,4.98,5.89,6.26,-1.27,-1.37,-1.36
487.74,-6.20,-4.87,-6.31,-4.99,4.99,5.81,6.31,-1.21,-1.33,-1.32
