frequency,raw,error,smoothed,error_smoothed,equalization,parametric_eq,equalized_raw,equalized_smoothed,target
20.00,-10.32,-11.06,-10.61,-11.30,6.00,2.61,-4.32,-4.61,0.74
20.20,-10.32,-11.06,-10.48,-11.16,6.00,2.68,-4.32,-4.48,0.74
20.40,-10.32,-11.06,-10.35,-11.02,6.00,2.75,-4.32,-4.35,0.74
20.61,-10.32,-11.06,-10.22,-10.89,6.00,2.83,-4.32,-4.22,0.74
20.81,-10.32,-11.06,-10.10,-10.76,6.00,2.91,-4.32,-4.10,0.74
21.02,-10.30,-11.04,-9.98,-10.64,6.00,2.99,-4.30,-3.98,0.74
21.23,-10.09,-10.83,-9.86,-10.52,6.00,3.08,-4.09,-3.86,0.74
21.44,-9.89,-10.62,-9.74,-10.40,6.00,3.16,-3.89,-3.74,0.74
21.66,-9.68,-10.42,-9.62,-10.28,6.00,3.25,-3.68,-3.62,0.74
21.87,-9.48,-10.21,-9.51,-10.17,6.00,3.34,-3.48,-3.51,0.74
22.09,-9.30,-10.03,-9.40,-10.06,6.00,3.44,-3.30,-3.40,0.73
22.31,-9.17,-9.90,-9.29,-9.95,6.00,3.53,-3.17,-3.29,0.73
22.54,-9.03,-9.76,-9.16,-9.83,6.00,3.63,-3.03,-3.16,0.73
22.76,-8.90,-9.63,-9.03,-9.72,6.00,3.73,-2.90,-3.03,0.73
22.99,-8.77,-9.50,-8.90,-9.62,6.00,3.84,-2.77,-2.90,0.73
23.22,-8.75,-9.48,-8.79,-9.53,6.00,3.94,-2.75,-2.79,0.73
23.45,-8.73,-9.46,-8.69,-9.44,6.00,4.05,-2.73,-2.69,0.73
23.69,-8.72,-9.45,-8.63,-9.36,6.00,4.16,-2.72,-2.63,0.73
23.92,-8.70,-9.42,-8.57,-9.29,6.00,4.27,-2.70,-2.57,0.73
24.16,-8.61,-9.33,-8.52,-9.22,6.00,4.39,-2.61,-2.52,0.72
24.40,-8.48,-9.20,-8.46,-9.15,6.00,4.50,-2.48,-2.46,0.72
24.65,-8.35,-9.07,-8.40,-9.09,6.00,4.62,-2.35,-2.40,0.72
24.89,-8.23,-8.95,-8.33,-9.02,6.00,4.74,-2.23,-2.33,0.72
25.14,-8.17,-8.89,-8.26,-8.94,6.00,4.86,-2.17,-2.26,0.72
25.39,-8.16,-8.88,-8.17,-8.86,6.00,4.98,-2.16,-2.17,0.72
25.65,-8.15,-8.86,-8.08,-8.78,6.00,5.10,-2.15,-2.08,0.72
25.91,-8.14,-8.85,-7.98,-8.69,6.00,5.22,-2.14,-1.98,0.71
26.16,-8.03,-8.74,-7.89,-8.59,6.00,5.34,-2.03,-1.89,0.71
26.43,-7.85,-8.56,-7.79,-8.49,6.00,5.46,-1.85,-1.79,0.71
26.69,-7.67,-8.38,-7.70,-8.39,6.00,5.58,-1.67,-1.70,0.71
26.96,-7.49,-8.20,-7.61,-8.29,6.00,5.69,-1.49,-1.61,0.71
27.23,-7.40,-8.11,-7.52,-8.19,6.00,5.81,-1.40,-1.52,0.70
27.50,-7.33,-8.03,-7.42,-8.08,6.00,5.92,-1.33,-1.42,0.70
27.77,-7.27,-7.97,-7.31,-7.98,6.00,6.02,-1.27,-1.31,0.70
28.05,-7.20,-7.90,-7.20,-7.87,6.00,6.13,-1.20,-1.20,0.70
28.33,-7.12,-7.82,-7.08,-7.76,6.00,6.22,-1.12,-1.08,0.70
28.62,-7.04,-7.74,-6.97,-7.65,6.00,6.31,-1.04,-0.97,0.69
28.90,-6.96,-7.65,-6.86,-7.55,6.00,6.40,-0.96,-0.86,0.69
29.19,-6.84,-7.53,-6.76,-7.44,6.00,6.47,-0.84,-0.76,0.69
29.48,-6.70,-7.39,-6.67,-7.34,6.00,6.54,-0.70,-0.67,0.69
29.78,-6.56,-7.25,-6.58,-7.24,6.00,6.60,-0.56,-0.58,0.69
30.08,-6.42,-7.10,-6.49,-7.14,6.00,6.65,-0.42,-0.49,0.68
30.38,-6.32,-7.00,-6.40,-7.04,6.00,6.69,-0.32,-0.40,0.68
30.68,-6.22,-6.90,-6.30,-6.94,6.00,6.72,-0.22,-0.30,0.68
30.99,-6.11,-6.79,-6.19,-6.83,6.00,6.74,-0.11,-0.19,0.68
31.30,-6.06,-6.73,-6.08,-6.73,6.00,6.74,-0.06,-0.08,0.67
31.61,-6.01,-6.68,-5.97,-6.64,6.00,6.74,-0.01,0.03,0.67
31.93,-5.96,-6.63,-5.88,-6.54,6.00,6.73,0.04,0.12,0.67
32.24,-5.88,-6.54,-5.79,-6.45,6.00,6.71,0.12,0.21,0.66
32.57,-5.78,-6.44,-5.71,-6.36,6.00,6.67,0.22,0.29,0.66
32.89,-5.69,-6.35,-5.63,-6.27,6.00,6.63,0.31,0.37,0.66
33.22,-5.55,-6.20,-5.55,-6.19,5.99,6.58,0.44,0.44,0.65
33.55,-5.39,-6.04,-5.48,-6.10,5.97,6.52,0.58,0.49,0.65
33.89,-5.22,-5.87,-5.40,-6.02,5.93,6.46,0.71,0.53,0.65
34.23,-5.19,-5.83,-5.32,-5.94,5.88,6.38,0.69,0.56,0.64
34.57,-5.23,-5.87,-5.24,-5.86,5.83,6.30,0.60,0.59,0.64
34.92,-5.26,-5.90,-5.16,-5.78,5.76,6.22,0.50,0.61,0.64
35.27,-5.17,-5.80,-5.07,-5.69,5.69,6.13,0.52,0.61,0.63
35.62,-5.05,-5.68,-5.00,-5.61,5.61,6.03,0.56,0.61,0.63
35.97,-4.92,-5.54,-4.92,-5.52,5.52,5.94,0.60,0.60,0.63
36.33,-4.85,-5.47,-4.83,-5.44,5.44,5.84,0.59,0.60,0.62
36.70,-4.78,-5.40,-4.74,-5.35,5.35,5.73,0.57,0.61,0.62
37.06,-4.70,-5.31,-4.66,-5.26,5.26,5.63,0.56,0.60,0.61
37.43,-4.58,-5.19,-4.58,-5.17,5.17,5.53,0.59,0.59,0.61
37.81,-4.47,-5.07,-4.50,-5.08,5.08,5.42,0.61,0.58,0.60
38.19,-4.37,-4.97,-4.41,-4.98,4.98,5.32,0.61,0.58,0.60
38.57,-4.30,-4.89,-4.31,-4.89,4.89,5.22,0.59,0.58,0.59
38.95,-4.22,-4.81,-4.22,-4.80,4.80,5.11,0.58,0.58,0.59
39.34,-4.09,-4.67,-4.14,-4.71,4.71,5.01,0.62,0.57,0.58
39.74,-3.95,-4.53,-4.05,-4.61,4.61,4.91,0.66,0.56,0.58
40.14,-3.88,-4.45,-3.97,-4.52,4.52,4.82,0.64,0.55,0.57
40.54,-3.93,-4.49,-3.87,-4.43,4.43,4.72,0.50,0.55,0.57
40.94,-3.98,-4.54,-3.79,-4.34,4.34,4.63,0.36,0.55,0.56
41.35,-3.84,-4.39,-3.71,-4.25,4.25,4.54,0.41,0.55,0.55
41.76,-3.67,-4.22,-3.63,-4.17,4.17,4.45,0.50,0.53,0.55
42.18,-3.53,-4.07,-3.56,-4.08,4.08,4.37,0.55,0.52,0.54
42.60,-3.43,-3.96,-3.49,-4.00,4.00,4.28,0.57,0.51,0.53
43.03,-3.34,-3.87,-3.41,-3.92,3.92,4.20,0.59,0.51,0.53
43.46,-3.27,-3.79,-3.35,-3.85,3.85,4.13,0.58,0.50,0.52
43.90,-3.21,-3.72,-3.28,-3.77,3.77,4.05,0.56,0.48,0.51
44.33,-3.17,-3.68,-3.21,-3.69,3.69,3.98,0.52,0.48,0.51
44.78,-3.15,-3.65,-3.13,-3.62,3.62,3.91,0.47,0.48,0.50
45.23,-3.12,-3.61,-3.06,-3.55,3.55,3.85,0.43,0.49,0.49
45.68,-3.09,-3.57,-2.99,-3.47,3.47,3.79,0.38,0.48,0.48
46.13,-3.02,-3.49,-2.94,-3.40,3.40,3.73,0.39,0.47,0.47
46.60,-2.89,-3.36,-2.89,-3.33,3.33,3.67,0.44,0.45,0.47
47.06,-2.77,-3.23,-2.83,-3.26,3.26,3.62,0.49,0.43,0.46
47.53,-2.76,-3.21,-2.77,-3.19,3.19,3.57,0.43,0.42,0.45
48.01,-2.75,-3.19,-2.71,-3.12,3.12,3.52,0.38,0.42,0.44
48.49,-2.61,-3.04,-2.63,-3.05,3.05,3.47,0.44,0.42,0.43
48.97,-2.48,-2.90,-2.57,-2.98,2.98,3.43,0.50,0.41,0.42
49.46,-2.48,-2.89,-2.50,-2.90,2.90,3.39,0.43,0.41,0.41
49.96,-2.50,-2.90,-2.43,-2.83,2.83,3.35,0.33,0.40,0.40
50.46,-2.42,-2.81,-2.37,-2.76,2.76,3.31,0.34,0.39,0.39
50.96,-2.34,-2.72,-2.31,-2.69,2.69,3.28,0.35,0.38,0.38
51.47,-2.25,-2.62,-2.26,-2.62,2.62,3.25,0.37,0.37,0.37
51.99,-2.17,-2.52,-2.21,-2.56,2.56,3.22,0.39,0.35,0.35
52.51,-2.11,-2.45,-2.16,-2.49,2.49,3.19,0.38,0.33,0.34
53.03,-2.06,-2.39,-2.10,-2.43,2.43,3.16,0.37,0.33,0.33
53.56,-2.07,-2.39,-2.05,-2.37,2.37,3.13,0.30,0.32,0.32
54.10,-2.07,-2.37,-2.01,-2.31,2.31,3.11,0.24,0.30,0.31
54.64,-2.00,-2.29,-1.97,-2.26,2.26,3.09,0.26,0.29,0.29
55.18,-1.94,-2.22,-1.93,-2.20,2.20,3.06,0.26,0.28,0.28
55.74,-1.87,-2.13,-1.89,-2.15,2.15,3.04,0.28,0.27,0.26
56.29,-1.84,-2.09,-1.86,-2.11,2.11,3.02,0.27,0.25,0.25
56.86,-1.85,-2.09,-1.83,-2.06,2.06,3.00,0.21,0.23,0.24
57.42,-1.81,-2.03,-1.81,-2.02,2.02,2.98,0.21,0.21,0.22
58.00,-1.76,-1.97,-1.79,-1.98,1.98,2.96,0.23,0.20,0.21
58.58,-1.76,-1.95,-1.77,-1.95,1.95,2.94,0.19,0.19,0.19
59.16,-1.76,-1.93,-1.75,-1.92,1.92,2.92,0.17,0.17,0.17
59.76,-1.76,-1.92,-1.74,-1.90,1.90,2.90,0.14,0.16,0.16
60.35,-1.76,-1.90,-1.74,-1.88,1.88,2.88,0.12,0.14,0.14
60.96,-1.76,-1.88,-1.75,-1.87,1.87,2.85,0.11,0.12,0.12
61.57,-1.76,-1.87,-1.76,-1.86,1.86,2.83,0.10,0.10,0.11
62.18,-1.76,-1.85,-1.78,-1.85,1.85,2.81,0.09,0.08,0.09
62.80,-1.76,-1.83,-1.80,-1.85,1.85,2.79,0.09,0.06,0.07
63.43,-1.79,-1.84,-1.82,-1.86,1.86,2.76,0.07,0.04,0.05
64.07,-1.85,-1.88,-1.85,-1.87,1.87,2.74,0.02,0.02,0.03
64.71,-1.91,-1.92,-1.88,-1.89,1.89,2.71,-0.02,0.01,0.01
65.35,-1.98,-1.97,-1.93,-1.92,1.92,2.69,-0.06,-0.01,-0.01
66.01,-2.06,-2.03,-1.99,-1.96,1.96,2.66,-0.10,-0.03,-0.03
66.67,-2.06,-2.01,-2.06,-2.00,2.00,2.63,-0.06,-0.06,-0.05
67.33,-2.09,-2.02,-2.13,-2.05,2.05,2.61,-0.04,-0.08,-0.07
68.01,-2.14,-2.05,-2.22,-2.11,2.11,2.58,-0.02,-0.10,-0.09
68.69,-2.27,-2.15,-2.31,-2.19,2.19,2.55,-0.08,-0.12,-0.12
69.37,-2.38,-2.24,-2.41,-2.27,2.27,2.52,-0.11,-0.15,-0.14
70.07,-2.47,-2.31,-2.52,-2.35,2.35,2.50,-0.12,-0.17,-0.16
70.77,-2.63,-2.44,-2.64,-2.45,2.45,2.47,-0.18,-0.19,-0.19
71.48,-2.79,-2.58,-2.77,-2.55,2.55,2.44,-0.23,-0.21,-0.21
72.19,-2.96,-2.73,-2.90,-2.66,2.66,2.41,-0.30,-0.23,-0.23
72.91,-3.13,-2.87,-3.04,-2.78,2.78,2.39,-0.35,-0.26,-0.26
73.64,-3.18,-2.90,-3.19,-2.90,2.90,2.36,-0.28,-0.29,-0.28
74.38,-3.29,-2.98,-3.34,-3.02,3.02,2.34,-0.27,-0.32,-0.31
75.12,-3.47,-3.13,-3.50,-3.15,3.15,2.31,-0.32,-0.35,-0.34
75.87,-3.64,-3.28,-3.66,-3.27,3.27,2.29,-0.37,-0.38,-0.36
76.63,-3.82,-3.43,-3.81,-3.40,3.40,2.27,-0.42,-0.41,-0.39
77.40,-3.98,-3.56,-3.96,-3.52,3.52,2.25,-0.46,-0.44,-0.42
78.17,-4.11,-3.67,-4.10,-3.64,3.64,2.22,-0.47,-0.46,-0.44
78.95,-4.24,-3.77,-4.24,-3.76,3.76,2.21,-0.48,-0.48,-0.47
79.74,-4.44,-3.94,-4.39,-3.89,3.89,2.19,-0.56,-0.50,-0.50
80.54,-4.59,-4.06,-4.54,-4.01,4.01,2.17,-0.58,-0.53,-0.53
81.35,-4.71,-4.15,-4.69,-4.13,4.13,2.16,-0.57,-0.56,-0.56
82.16,-4.84,-4.25,-4.86,-4.26,4.26,2.14,-0.58,-0.60,-0.59
82.98,-5.00,-4.38,-5.02,-4.39,4.39,2.13,-0.61,-0.63,-0.62
83.81,-5.10,-4.45,-5.18,-4.52,4.52,2.12,-0.58,-0.66,-0.65
84.65,-5.22,-4.54,-5.33,-4.64,4.64,2.11,-0.58,-0.69,-0.68
85.50,-5.37,-4.66,-5.48,-4.76,4.76,2.11,-0.60,-0.72,-0.71
86.35,-5.55,-4.81,-5.63,-4.88,4.88,2.10,-0.67,-0.75,-0.74
87.22,-5.76,-4.99,-5.77,-4.99,4.99,2.10,-0.77,-0.78,-0.77
88.09,-5.94,-5.14,-5.90,-5.08,5.08,2.09,-0.85,-0.81,-0.80
88.97,-6.12,-5.28,-6.01,-5.16,5.16,2.09,-0.96,-0.85,-0.84
89.86,-6.17,-5.30,-6.12,-5.22,5.22,2.09,-0.95,-0.90,-0.87
90.76,-6.26,-5.36,-6.20,-5.25,5.25,2.10,-1.00,-0.95,-0.90
91.66,-6.28,-5.35,-6.25,-5.26,5.26,2.10,-1.02,-0.99,-0.93
92.58,-6.28,-5.31,-6.27,-5.24,5.24,2.11,-1.04,-1.03,-0.96
93.51,-6.26,-5.26,-6.25,-5.18,5.18,2.11,-1.08,-1.07,-1.00
94.44,-6.22,-5.19,-6.19,-5.09,5.09,2.12,-1.13,-1.09,-1.03
95.39,-6.16,-5.10,-6.09,-4.97,4.97,2.13,-1.19,-1.12,-1.06
96.34,-6.08,-4.98,-5.96,-4.81,4.81,2.14,-1.27,-1.15,-1.10
97.30,-5.92,-4.79,-5.80,-4.62,4.62,2.15,-1.30,-1.18,-1.13
98.28,-5.74,-4.58,-5.62,-4.41,4.41,2.16,-1.33,-1.21,-1.16
99.26,-5.49,-4.29,-5.42,-4.19,4.19,2.18,-1.30,-1.23,-1.20
100.25,-5.19,-3.96,-5.20,-3.95,3.95,2.19,-1.24,-1.25,-1.23
101.25,-4.89,-3.63,-4.98,-3.70,3.70,2.21,-1.19,-1.28,-1.26
102.27,-4.69,-3.39,-4.76,-3.45,3.45,2.22,-1.24,-1.31,-1.29
103.29,-4.43,-3.10,-4.54,-3.20,3.20,2.24,-1.23,-1.34,-1.33
104.32,-4.21,-2.85,-4.34,-2.96,2.96,2.26,-1.24,-1.37,-1.36
105.37,-4.12,-2.73,-4.13,-2.74,2.74,2.27,-1.38,-1.39,-1.39
106.42,-4.01,-2.58,-3.96,-2.53,2.53,2.29,-1.48,-1.43,-1.43
107.48,-3.72,-2.26,-3.79,-2.34,2.34,2.31,-1.38,-1.45,-1.46
108.56,-3.52,-2.02,-3.65,-2.17,2.17,2.32,-1.35,-1.47,-1.50
109.64,-3.48,-1.95,-3.53,-2.03,2.03,2.34,-1.45,-1.50,-1.53
110.74,-3.49,-1.93,-3.45,-1.91,1.91,2.35,-1.58,-1.54,-1.56
111.85,-3.47,-1.88,-3.39,-1.81,1.81,2.36,-1.65,-1.58,-1.59
112.97,-3.30,-1.68,-3.36,-1.74,1.74,2.37,-1.56,-1.62,-1.62
114.10,-3.33,-1.68,-3.34,-1.68,1.68,2.38,-1.65,-1.65,-1.65
115.24,-3.28,-1.60,-3.33,-1.64,1.64,2.39,-1.64,-1.69,-1.68
116.39,-3.22,-1.52,-3.33,-1.61,1.61,2.39,-1.61,-1.72,-1.70
117.55,-3.32,-1.59,-3.33,-1.58,1.58,2.40,-1.74,-1.75,-1.73
118.73,-3.20,-1.45,-3.33,-1.55,1.55,2.40,-1.65,-1.78,-1.75
119.92,-3.32,-1.54,-3.34,-1.53,1.53,2.39,-1.79,-1.81,-1.78
121.12,-3.52,-1.72,-3.34,-1.50,1.50,2.39,-2.02,-1.84,-1.80
122.33,-3.47,-1.65,-3.33,-1.46,1.46,2.38,-2.01,-1.87,-1.82
123.55,-3.47,-1.63,-3.32,-1.42,1.42,2.37,-2.05,-1.90,-1.84
124.79,-3.35,-1.49,-3.28,-1.36,1.36,2.35,-1.99,-1.91,-1.86
126.03,-3.23,-1.35,-3.22,-1.30,1.30,2.33,-1.93,-1.92,-1.88
127.29,-3.22,-1.32,-3.15,-1.22,1.22,2.31,-2.00,-1.93,-1.89
128.57,-3.11,-1.20,-3.08,-1.13,1.13,2.28,-1.98,-1.95,-1.91
129.85,-2.98,-1.05,-3.01,-1.03,1.03,2.25,-1.95,-1.98,-1.93
131.15,-2.90,-0.95,-2.92,-0.93,0.93,2.22,-1.97,-1.99,-1.95
132.46,-2.86,-0.89,-2.83,-0.82,0.82,2.19,-2.04,-2.01,-1.97
133.79,-2.76,-0.77,-2.72,-0.72,0.72,2.15,-2.04,-2.01,-1.99
135.12,-2.59,-0.58,-2.63,-0.62,0.62,2.11,-1.97,-2.01,-2.01
136.48,-2.43,-0.40,-2.54,-0.52,0.52,2.07,-1.91,-2.03,-2.03
137.84,-2.26,-0.21,-2.48,-0.43,0.43,2.02,-1.83,-2.05,-2.05
139.22,-2.40,-0.33,-2.42,-0.35,0.35,1.97,-2.05,-2.08,-2.07
140.61,-2.53,-0.44,-2.38,-0.28,0.28,1.92,-2.25,-2.10,-2.09
142.02,-2.54,-0.43,-2.35,-0.24,0.24,1.87,-2.30,-2.11,-2.11
143.44,-2.36,-0.23,-2.34,-0.22,0.22,1.82,-2.14,-2.12,-2.13
144.87,-2.26,-0.10,-2.36,-0.23,0.23,1.76,-2.03,-2.13,-2.16
146.32,-2.35,-0.17,-2.40,-0.26,0.26,1.71,-2.09,-2.14,-2.17
147.78,-2.40,-0.20,-2.47,-0.31,0.31,1.65,-2.09,-2.16,-2.19
149.26,-2.46,-0.25,-2.58,-0.38,0.38,1.60,-2.08,-2.20,-2.21
150.75,-2.57,-0.34,-2.71,-0.46,0.46,1.54,-2.11,-2.26,-2.23
152.26,-2.73,-0.48,-2.85,-0.55,0.55,1.48,-2.18,-2.30,-2.25
153.78,-2.83,-0.56,-2.99,-0.65,0.65,1.42,-2.18,-2.34,-2.27
155.32,-3.01,-0.73,-3.12,-0.76,0.76,1.36,-2.25,-2.36,-2.28
156.88,-3.23,-0.93,-3.23,-0.85,0.85,1.30,-2.38,-2.38,-2.30
158.44,-3.43,-1.11,-3.35,-0.93,0.93,1.24,-2.50,-2.41,-2.32
160.03,-3.67,-1.33,-3.44,-1.00,1.00,1.19,-2.67,-2.45,-2.33
161.63,-3.75,-1.40,-3.51,-1.04,1.04,1.13,-2.71,-2.47,-2.35
163.24,-3.85,-1.48,-3.54,-1.06,1.06,1.07,-2.79,-2.48,-2.37
164.88,-3.86,-1.47,-3.56,-1.06,1.06,1.01,-2.80,-2.50,-2.39
166.53,-3.69,-1.28,-3.55,-1.03,1.03,0.95,-2.66,-2.52,-2.41
168.19,-3.54,-1.11,-3.51,-0.99,0.99,0.89,-2.55,-2.53,-2.43
169.87,-3.36,-0.91,-3.45,-0.92,0.92,0.84,-2.44,-2.53,-2.44
171.57,-3.21,-0.75,-3.37,-0.84,0.84,0.78,-2.37,-2.53,-2.46
173.29,-3.11,-0.63,-3.28,-0.76,0.76,0.72,-2.35,-2.52,-2.48
175.02,-3.02,-0.53,-3.19,-0.68,0.68,0.67,-2.34,-2.51,-2.49
176.77,-2.99,-0.48,-3.11,-0.61,0.61,0.61,-2.38,-2.50,-2.51
178.54,-3.01,-0.49,-3.03,-0.54,0.54,0.56,-2.46,-2.49,-2.52
180.32,-3.02,-0.49,-2.98,-0.49,0.49,0.50,-2.53,-2.49,-2.53
182.13,-2.94,-0.41,-2.94,-0.45,0.45,0.45,-2.49,-2.49,-2.53
183.95,-2.85,-0.32,-2.93,-0.43,0.43,0.40,-2.42,-2.50,-2.53
185.79,-2.89,-0.36,-2.94,-0.42,0.42,0.34,-2.47,-2.52,-2.53
187.65,-2.93,-0.40,-2.95,-0.42,0.42,0.29,-2.50,-2.53,-2.53
189.52,-3.02,-0.49,-2.97,-0.44,0.44,0.24,-2.58,-2.53,-2.52
191.42,-3.02,-0.50,-3.00,-0.46,0.46,0.19,-2.56,-2.54,-2.52
193.33,-3.03,-0.51,-3.02,-0.48,0.48,0.14,-2.54,-2.54,-2.51
195.27,-3.07,-0.56,-3.04,-0.50,0.50,0.09,-2.57,-2.54,-2.51
197.22,-3.07,-0.56,-3.05,-0.52,0.52,0.04,-2.55,-2.53,-2.51
199.19,-3.06,-0.55,-3.05,-0.52,0.52,-0.01,-2.54,-2.52,-2.50
201.18,-3.05,-0.55,-3.05,-0.52,0.52,-0.06,-2.53,-2.53,-2.50
203.19,-3.05,-0.54,-3.04,-0.50,0.50,-0.11,-2.54,-2.54,-2.50
205.23,-3.05,-0.54,-3.02,-0.48,0.48,-0.16,-2.57,-2.55,-2.51
207.28,-3.05,-0.54,-2.99,-0.44,0.44,-0.21,-2.61,-2.55,-2.51
209.35,-3.00,-0.48,-2.94,-0.39,0.39,-0.25,-2.61,-2.55,-2.52
211.44,-2.91,-0.38,-2.88,-0.33,0.33,-0.30,-2.58,-2.55,-2.53
213.56,-2.77,-0.23,-2.82,-0.26,0.26,-0.35,-2.51,-2.56,-2.54
215.69,-2.71,-0.16,-2.75,-0.18,0.18,-0.39,-2.53,-2.56,-2.55
217.85,-2.66,-0.10,-2.66,-0.09,0.09,-0.43,-2.57,-2.57,-2.56
220.03,-2.61,-0.04,-2.57,0.00,-0.00,-0.48,-2.61,-2.57,-2.57
222.23,-2.52,0.06,-2.48,0.10,-0.10,-0.52,-2.62,-2.58,-2.58
224.45,-2.39,0.19,-2.38,0.20,-0.20,-0.56,-2.59,-2.58,-2.58
226.70,-2.27,0.32,-2.27,0.30,-0.30,-0.60,-2.57,-2.58,-2.59
228.96,-2.16,0.43,-2.17,0.40,-0.40,-0.64,-2.56,-2.57,-2.59
231.25,-2.06,0.52,-2.07,0.50,-0.50,-0.67,-2.56,-2.56,-2.58
233.57,-2.00,0.58,-1.98,0.58,-0.58,-0.71,-2.58,-2.56,-2.58
235.90,-1.85,0.72,-1.90,0.67,-0.67,-0.74,-2.52,-2.57,-2.57
238.26,-1.78,0.78,-1.83,0.74,-0.74,-0.78,-2.52,-2.57,-2.56
240.64,-1.70,0.85,-1.75,0.81,-0.81,-0.81,-2.51,-2.56,-2.55
243.05,-1.68,0.86,-1.68,0.87,-0.87,-0.84,-2.54,-2.54,-2.54
245.48,-1.59,0.94,-1.61,0.92,-0.92,-0.87,-2.51,-2.53,-2.52
247.93,-1.49,1.02,-1.55,0.96,-0.96,-0.89,-2.45,-2.52,-2.51
250.41,-1.49,1.01,-1.51,1.00,-1.00,-0.92,-2.49,-2.51,-2.50
252.92,-1.50,0.99,-1.47,1.03,-1.03,-0.94,-2.53,-2.51,-2.49
255.45,-1.52,0.96,-1.43,1.06,-1.06,-0.96,-2.58,-2.50,-2.48
258.00,-1.48,0.99,-1.40,1.09,-1.09,-0.98,-2.57,-2.49,-2.47
260.58,-1.39,1.08,-1.37,1.11,-1.11,-1.00,-2.50,-2.49,-2.47
263.19,-1.31,1.16,-1.35,1.14,-1.14,-1.02,-2.45,-2.49,-2.47
265.82,-1.24,1.23,-1.32,1.16,-1.16,-1.04,-2.40,-2.49,-2.46
268.48,-1.26,1.21,-1.29,1.19,-1.19,-1.05,-2.45,-2.48,-2.46
271.16,-1.28,1.19,-1.26,1.22,-1.22,-1.07,-2.49,-2.48,-2.47
273.87,-1.28,1.19,-1.24,1.24,-1.24,-1.08,-2.52,-2.48,-2.47
276.61,-1.25,1.22,-1.21,1.27,-1.27,-1.10,-2.52,-2.47,-2.47
279.38,-1.15,1.32,-1.17,1.29,-1.29,-1.11,-2.44,-2.46,-2.47
282.17,-1.15,1.32,-1.14,1.31,-1.31,-1.12,-2.46,-2.45,-2.47
284.99,-1.17,1.29,-1.11,1.34,-1.34,-1.13,-2.50,-2.45,-2.46
287.84,-1.17,1.29,-1.10,1.36,-1.36,-1.14,-2.52,-2.45,-2.46
290.72,-1.02,1.43,-1.09,1.37,-1.37,-1.15,-2.39,-2.46,-2.45
293.63,-0.97,1.47,-1.07,1.39,-1.39,-1.16,-2.36,-2.46,-2.44
296.57,-1.00,1.43,-1.05,1.41,-1.41,-1.17,-2.40,-2.45,-2.43
299.53,-1.02,1.41,-1.02,1.42,-1.42,-1.19,-2.44,-2.44,-2.42
302.53,-1.01,1.41,-0.99,1.43,-1.43,-1.20,-2.44,-2.42,-2.42
305.55,-0.99,1.42,-0.97,1.45,-1.45,-1.21,-2.43,-2.42,-2.41
308.61,-0.99,1.41,-0.96,1.46,-1.46,-1.22,-2.45,-2.41,-2.40
311.69,-0.98,1.41,-0.94,1.47,-1.47,-1.23,-2.45,-2.41,-2.39
314.81,-0.98,1.41,-0.93,1.47,-1.47,-1.25,-2.45,-2.40,-2.39
317.96,-0.97,1.41,-0.91,1.48,-1.48,-1.26,-2.45,-2.39,-2.38
321.14,-0.88,1.50,-0.91,1.49,-1.49,-1.28,-2.37,-2.39,-2.38
324.35,-0.79,1.59,-0.90,1.49,-1.49,-1.29,-2.28,-2.39,-2.38
327.59,-0.85,1.53,-0.89,1.50,-1.50,-1.31,-2.34,-2.39,-2.38
330.87,-0.87,1.51,-0.88,1.50,-1.50,-1.33,-2.37,-2.37,-2.38
334.18,-0.88,1.50,-0.87,1.50,-1.50,-1.35,-2.38,-2.37,-2.38
337.52,-0.88,1.50,-0.88,1.50,-1.50,-1.37,-2.38,-2.38,-2.38
340.90,-0.88,1.50,-0.89,1.50,-1.50,-1.39,-2.38,-2.39,-2.38
344.30,-0.88,1.50,-0.89,1.50,-1.50,-1.41,-2.38,-2.40,-2.38
347.75,-0.88,1.50,-0.89,1.50,-1.50,-1.43,-2.38,-2.39,-2.38
351.23,-0.88,1.50,-0.88,1.51,-1.51,-1.46,-2.39,-2.39,-2.38
354.74,-0.88,1.49,-0.87,1.52,-1.52,-1.48,-2.40,-2.39,-2.37
358.28,-0.87,1.50,-0.86,1.53,-1.53,-1.51,-2.40,-2.39,-2.37
361.87,-0.87,1.49,-0.84,1.54,-1.54,-1.54,-2.41,-2.38,-2.36
365.49,-0.93,1.43,-0.81,1.56,-1.56,-1.57,-2.49,-2.37,-2.36
369.14,-0.95,1.40,-0.78,1.58,-1.58,-1.60,-2.53,-2.36,-2.35
372.83,-0.82,1.52,-0.76,1.60,-1.60,-1.63,-2.42,-2.36,-2.34
376.56,-0.67,1.67,-0.74,1.62,-1.62,-1.66,-2.29,-2.36,-2.34
380.33,-0.55,1.78,-0.72,1.64,-1.64,-1.70,-2.19,-2.36,-2.33
384.13,-0.56,1.76,-0.69,1.67,-1.67,-1.73,-2.22,-2.36,-2.32
387.97,-0.61,1.71,-0.66,1.69,-1.69,-1.77,-2.30,-2.35,-2.32
391.85,-0.61,1.71,-0.63,1.71,-1.71,-1.81,-2.31,-2.34,-2.32
395.77,-0.61,1.71,-0.61,1.72,-1.72,-1.84,-2.33,-2.33,-2.32
399.73,-0.61,1.71,-0.59,1.74,-1.74,-1.88,-2.35,-2.33,-2.32
403.72,-0.62,1.70,-0.57,1.75,-1.75,-1.92,-2.37,-2.32,-2.32
407.76,-0.62,1.70,-0.56,1.76,-1.76,-1.96,-2.38,-2.32,-2.32
411.84,-0.62,1.70,-0.56,1.76,-1.76,-2.00,-2.38,-2.32,-2.32
415.96,-0.62,1.70,-0.56,1.77,-1.77,-2.04,-2.39,-2.33,-2.32
420.12,-0.45,1.86,-0.56,1.78,-1.78,-2.08,-2.23,-2.33,-2.31
424.32,-0.40,1.90,-0.54,1.78,-1.78,-2.11,-2.18,-2.32,-2.30
428.56,-0.48,1.80,-0.50,1.79,-1.79,-2.15,-2.27,-2.29,-2.28
432.85,-0.50,1.76,-0.45,1.79,-1.79,-2.19,-2.29,-2.25,-2.26
437.18,-0.47,1.76,-0.41,1.80,-1.80,-2.23,-2.27,-2.21,-2.23
441.55,-0.43,1.76,-0.36,1.81,-1.81,-2.26,-2.24,-2.17,-2.19
445.96,-0.39,1.76,-0.32,1.83,-1.83,-2.30,-2.22,-2.14,-2.15
450.42,-0.33,1.77,-0.26,1.84,-1.84,-2.33,-2.17,-2.10,-2.10
454.93,-0.20,1.85,-0.19,1.86,-1.86,-2.36,-2.06,-2.05,-2.05
459.48,-0.09,1.90,-0.12,1.88,-1.88,-2.39,-1.97,-2.00,-1.99
464.07,0.03,1.97,-0.04,1.90,-1.90,-2.41,-1.87,-1.94,-1.93
468.71,0.10,1.98,0.03,1.93,-1.93,-2.44,-1.82,-1.89,-1.88
473.40,0.17,1.99,0.12,1.95,-1.95,-2.46,-1.78,-1.84,-1.82
478.13,0.19,1.96,0.21,1.98,-1.98,-2.47,-1.79,-1.77,-1.77
482.91,0.16,1.88,0.29,2.01,-2.01,-2.49,-1.85,-1.72,-1.72
487.74,0.23,1.90,0.37,2.04,-2.04,-2.50,-1.81,-1.68,-1.67
492.62,0.43,2.06,0.44,2.08,-2.08,-2.51,-1.65,-1.64,-1.63
497.55,0.64,2.23,0.51,2.11,-2.11,-2.51,-1.47,-1.60,-1.59
502.52,0.71,2.27,0.56,2.14,-2.14,-2.51,-1.43,-1.58,-1.56
507.55,0.65,2.20,0.61,2.18,-2.18,-2.51,-1.53,-1.57,-1.54
512.62,0.63,2.16,0.65,2.22,-2.22,-2.50,-1.58,-1.57,-1.53
517.75,0.66,2.19,0.68,2.25,-2.25,-2.49,-1.59,-1.57,-1.53
522.93,0.73,2.27,0.73,2.29,-2.29,-2.48,-1.56,-1.56,-1.54
528.16,0.78,2.33,0.77,2.32,-2.32,-2.46,-1.54,-1.55,-1.55
533.44,0.80,2.37,0.79,2.36,-2.36,-2.44,-1.55,-1.56,-1.57
538.77,0.78,2.37,0.80,2.39,-2.39,-2.42,-1.61,-1.59,-1.59
544.16,0.83,2.45,0.80,2.43,-2.43,-2.39,-1.59,-1.63,-1.62
549.60,0.80,2.45,0.79,2.46,-2.46,-2.37,-1.66,-1.67,-1.65
555.10,0.82,2.50,0.80,2.50,-2.50,-2.34,-1.68,-1.70,-1.68
560.65,0.80,2.51,0.81,2.55,-2.55,-2.30,-1.75,-1.73,-1.71
566.25,0.83,2.57,0.84,2.60,-2.60,-2.27,-1.77,-1.76,-1.74
571.92,0.97,2.74,0.88,2.65,-2.65,-2.24,-1.68,-1.78,-1.77
577.64,0.98,2.77,0.92,2.72,-2.72,-2.20,-1.74,-1.80,-1.79
583.41,0.85,2.65,0.97,2.79,-2.79,-2.16,-1.94,-1.82,-1.80
589.25,0.81,2.62,1.03,2.87,-2.87,-2.12,-2.06,-1.84,-1.81
595.14,0.96,2.77,1.10,2.96,-2.96,-2.09,-2.00,-1.85,-1.81
601.09,1.19,2.99,1.20,3.05,-3.05,-2.05,-1.86,-1.85,-1.80
607.10,1.32,3.11,1.31,3.15,-3.15,-2.01,-1.83,-1.83,-1.79
