frequency,raw
20.00,15.62
20.20,15.67
20.40,15.72
20.61,15.77
20.81,15.82
21.02,15.86
21.23,15.91
21.44,15.96
21.66,16.01
21.87,16.05
22.09,16.10
22.31,16.15
22.54,16.20
22.76,16.25
22.99,16.30
23.22,16.34
23.45,16.39
23.69,16.44
23.92,16.48
24.16,16.53
24.40,16.58
24.65,16.62
24.89,16.67
25.14,16.72
25.39,16.76
25.65,16.81
25.91,16.85
26.16,16.90
26.43,16.94
26.69,16.99
26.96,17.03
27.23,17.08
27.50,17.12
27.77,17.16
28.05,17.21
28.33,17.25
28.62,17.29
28.90,17.34
29.19,17.38
29.48,17.42
29.78,17.46
30.08,17.50
30.38,17.53
30.68,17.57
30.99,17.60
31.30,17.63
31.61,17.66
31.93,17.68
32.24,17.71
32.57,17.74
32.89,17.76
33.22,17.79
33.55,17.81
33.89,17.83
34.23,17.86
34.57,17.89
34.92,17.91
35.27,17.95
35.62,17.98
35.97,18.02
36.33,18.05
36.70,18.08
37.06,18.12
37.43,18.16
37.81,18.20
38.19,18.24
38.57,18.28
38.95,18.32
39.34,18.34
39.74,18.37
40.14,18.40
40.54,18.44
40.94,18.47
41.35,18.51
41.76,18.55
42.18,18.58
42.60,18.62
43.03,18.65
43.46,18.68
43.90,18.70
44.33,18.73
44.78,18.76
45.23,18.80
45.68,18.83
46.13,18.86
46.60,18.89
47.06,18.92
47.53,18.95
48.01,18.98
48.49,19.01
48.97,19.04
49.46,19.07
49.96,19.10
50.46,19.13
50.96,19.16
51.47,19.19
51.99,19.22
52.51,19.26
53.03,19.29
53.56,19.33
54.10,19.37
54.64,19.42
55.18,19.48
55.74,19.53
56.29,19.58
56.86,19.64
57.42,19.68
58.00,19.73
58.58,19.78
59.16,19.82
59.76,19.86
60.35,19.90
60.96,19.95
61.57,19.99
62.18,20.03
62.80,20.06
63.43,20.08
64.07,20.10
64.71,20.14
65.35,20.16
66.01,20.19
66.67,20.20
67.33,20.21
68.01,20.21
68.69,20.20
69.37,20.20
70.07,20.20
70.77,20.17
71.48,20.14
72.19,20.11
72.91,20.09
73.64,20.06
74.38,20.02
75.12,19.98
75.87,19.94
76.63,19.88
77.40,19.81
78.17,19.75
78.95,19.68
79.74,19.61
80.54,19.53
81.35,19.45
82.16,19.36
82.98,19.27
83.81,19.19
84.65,19.10
85.50,19.02
86.35,18.92
87.22,18.83
88.09,18.73
88.97,18.64
89.86,18.53
90.76,18.41
91.66,18.30
92.58,18.19
93.51,18.07
94.44,17.95
95.39,17.82
96.34,17.68
97.30,17.54
98.28,17.40
99.26,17.26
100.25,17.10
101.25,16.94
102.27,16.80
103.29,16.72
104.32,16.62
105.37,16.46
106.42,16.31
107.48,16.16
108.56,16.01
109.64,15.84
110.74,15.67
111.85,15.52
112.97,15.36
114.10,15.23
115.24,15.11
116.39,15.04
117.55,14.93
118.73,14.79
119.92,14.67
121.12,14.57
122.33,14.52
123.55,14.47
124.79,14.42
126.03,14.41
127.29,14.41
128.57,14.42
129.85,14.45
131.15,14.46
132.46,14.47
133.79,14.50
135.12,14.56
136.48,14.60
137.84,14.66
139.22,14.70
140.61,14.74
142.02,14.80
143.44,14.82
144.87,14.85
146.32,14.87
147.78,14.91
149.26,14.95
150.75,14.98
152.26,14.99
153.78,15.00
155.32,14.99
156.88,14.97
158.44,14.95
160.03,14.91
161.63,14.88
163.24,14.85
164.88,14.79
166.53,14.74
168.19,14.69
169.87,14.61
171.57,14.54
173.29,14.48
175.02,14.39
176.77,14.33
178.54,14.25
180.32,14.18
182.13,14.09
183.95,13.96
185.79,13.85
187.65,13.74
189.52,13.61
191.42,13.49
193.33,13.36
195.27,13.21
197.22,13.06
199.19,12.91
201.18,12.76
203.19,12.59
205.23,12.42
207.28,12.23
209.35,12.04
211.44,11.85
213.56,11.66
215.69,11.47
217.85,11.26
220.03,11.13
222.23,10.96
224.45,10.75
226.70,10.54
228.96,10.31
231.25,10.14
233.57,9.94
235.90,9.71
238.26,9.56
240.64,9.36
243.05,9.20
245.48,8.99
247.93,8.76
250.41,8.60
252.92,8.40
255.45,8.23
258.00,8.08
260.58,7.89
263.19,7.74
265.82,7.55
268.48,7.41
271.16,7.26
273.87,7.07
276.61,6.92
279.38,6.78
282.17,6.63
284.99,6.48
287.84,6.28
290.72,6.12
293.63,5.97
296.57,5.80
299.53,5.64
302.53,5.48
305.55,5.31
308.61,5.15
311.69,4.98
314.81,4.84
317.96,4.69
321.14,4.51
324.35,4.32
327.59,4.12
330.87,3.96
334.18,3.79
337.52,3.58
340.90,3.41
344.30,3.21
347.75,3.04
351.23,2.85
354.74,2.71
358.28,2.54
361.87,2.40
365.49,2.24
369.14,2.13
372.83,2.04
376.56,1.94
380.33,1.87
384.13,1.82
387.97,1.77
391.85,1.73
395.77,1.69
399.73,1.67
403.72,1.66
407.76,1.67
411.84,1.68
415.96,1.69
420.12,1.72
424.32,1.76
428.56,1.80
432.85,1.83
437.18,1.86
441.55,1.88
445.96,1.92
450.42,1.96
454.93,2.00
459.48,2.04
464.07,2.08
468.71,2.11
473.40,2.15
478.13,2.17
482.91,2.20
487.74,2.24
492.62,2.28
497.55,2.30
502.52,2.32
507.55,2.33
512.62,2.32
517.75,2.30
522.93,2.27
528.16,2.24
533.44,2.21
538.77,2.17
544.16,2.13
549.60,2.09
555.10,2.05
560.65,2.00
566.25,1.95
571.92,1.90
577.64,1.84
583.41,1.79
589.25,1.74
595.14,1.67
601.09,1.59
607.10,1.50
613.17,1.41
619.30,1.29
625.50,1.15
631.75,1.00
638.07,0.83
644.45,0.68
650.89,0.49
657.40,0.31
663.98,0.11
670.62,-0.08
677.32,-0.29
684.10,-0.50
690.94,-0.72
697.85,-0.94
704.83,-1.13
711.87,-1.29
718.99,-1.43
726.18,-1.56
733.44,-1.68
740.78,-1.77
748.19,-1.84
755.67,-1.91
763.23,-1.94
770.86,-1.95
778.57,-1.93
786.35,-1.89
794.22,-1.83
802.16,-1.75
810.18,-1.66
818.28,-1.58
826.46,-1.48
834.73,-1.38
843.08,-1.26
851.51,-1.12
860.02,-1.00
868.62,-0.88
877.31,-0.76
886.08,-0.68
894.94,-0.60
903.89,-0.51
912.93,-0.43
922.06,-0.36
931.28,-0.28
940.59,-0.23
950.00,-0.19
959.50,-0.15
969.09,-0.12
978.78,-0.08
988.57,-0.04
998.46,-0.01
1008.44,0.04
1018.53,0.09
1028.71,0.14
1039.00,0.17
1049.39,0.20
1059.88,0.24
1070.48,0.27
1081.19,0.30
1092.00,0.34
1102.92,0.39
1113.95,0.44
1125.09,0.49
1136.34,0.53
1147.70,0.56
1159.18,0.59
1170.77,0.61
1182.48,0.63
1194.30,0.65
1206.25,0.67
1218.31,0.70
1230.49,0.73
1242.80,0.75
1255.22,0.78
1267.78,0.80
1280.45,0.82
1293.26,0.85
1306.19,0.87
1319.25,0.89
1332.45,0.92
1345.77,0.95
1359.23,0.98
1372.82,1.02
1386.55,1.06
1400.41,1.11
1414.42,1.16
1428.56,1.21
1442.85,1.27
1457.28,1.35
1471.85,1.45
1486.57,1.55
1501.43,1.67
1516.45,1.79
1531.61,1.93
1546.93,2.07
1562.40,2.21
1578.02,2.35
1593.80,2.50
1609.74,2.65
1625.84,2.82
1642.10,2.98
1658.52,3.18
1675.10,3.37
1691.85,3.57
1708.77,3.79
1725.86,4.00
1743.12,4.23
1760.55,4.46
1778.15,4.70
1795.94,4.94
1813.90,5.17
1832.03,5.40
1850.36,5.64
1868.86,5.87
1887.55,6.10
1906.42,6.33
1925.49,6.56
1944.74,6.79
1964.19,7.01
1983.83,7.25
2003.67,7.46
2023.71,7.68
2043.94,7.91
2064.38,8.11
2085.03,8.30
2105.88,8.49
2126.94,8.68
2148.20,8.85
2169.69,9.01
2191.38,9.16
2213.30,9.31
2235.43,9.44
2257.78,9.56
2280.36,9.68
2303.17,9.80
2326.20,9.92
2349.46,10.02
2372.95,10.13
2396.68,10.24
2420.65,10.34
2444.86,10.42
2469.31,10.52
2494.00,10.61
2518.94,10.70
2544.13,10.79
2569.57,10.86
2595.27,10.94
2621.22,11.03
2647.43,11.11
2673.90,11.19
2700.64,11.27
2727.65,11.35
2754.93,11.42
2782.48,11.49
2810.30,11.55
2838.40,11.60
2866.79,11.64
2895.46,11.68
2924.41,11.71
2953.65,11.74
2983.19,11.76
3013.02,11.77
3043.15,11.77
3073.58,11.76
3104.32,11.74
3135.36,11.71
3166.72,11.68
3198.38,11.65
3230.37,11.62
3262.67,11.58
3295.30,11.55
3328.25,11.51
3361.53,11.48
3395.15,11.45
3429.10,11.42
3463.39,11.40
3498.03,11.38
3533.01,11.36
3568.34,11.36
3604.02,11.37
3640.06,11.39
3676.46,11.42
3713.22,11.44
3750.36,11.47
3787.86,11.51
3825.74,11.55
3864.00,11.59
3902.64,11.62
3941.66,11.65
3981.08,11.68
4020.89,11.68
4061.10,11.68
4101.71,11.67
4142.73,11.65
4184.15,11.59
4226.00,11.52
4268.26,11.42
4310.94,11.30
4354.05,11.17
4397.59,11.02
4441.56,10.87
4485.98,10.71
4530.84,10.53
4576.15,10.35
4621.91,10.15
4668.13,9.96
4714.81,9.76
4761.96,9.58
4809.58,9.42
4857.67,9.25
4906.25,9.13
4955.31,9.02
5004.87,8.94
5054.91,8.87
5105.46,8.81
5156.52,8.77
5208.08,8.74
5260.16,8.74
5312.77,8.76
5365.89,8.79
5419.55,8.85
5473.75,8.91
5528.49,8.97
5583.77,9.04
5639.61,9.12
5696.00,9.21
5752.96,9.31
5810.49,9.40
5868.60,9.50
5927.28,9.59
5986.56,9.66
6046.42,9.73
6106.89,9.78
6167.96,9.81
6229.64,9.81
6291.93,9.79
6354.85,9.75
6418.40,9.71
6482.58,9.65
6547.41,9.56
6612.88,9.44
6679.01,9.29
6745.80,9.10
6813.26,8.87
6881.39,8.61
6950.21,8.30
7019.71,7.97
7089.91,7.58
7160.81,7.17
7232.41,6.71
7304.74,6.22
7377.79,5.71
7451.56,5.17
7526.08,4.62
7601.34,4.05
7677.35,3.47
7754.13,2.91
7831.67,2.35
7909.98,1.79
7989.08,1.21
8068.98,0.64
8149.67,0.11
8231.16,-0.36
8313.47,-0.75
8396.61,-1.05
8480.57,-1.26
8565.38,-1.38
8651.03,-1.40
8737.54,-1.33
8824.92,-1.17
8913.17,-0.92
9002.30,-0.61
9092.32,-0.26
9183.25,0.11
9275.08,0.49
9367.83,0.85
9461.51,1.18
9556.12,1.46
9651.68,1.68
9748.20,1.85
9845.68,1.98
9944.14,2.06
10043.58,2.10
10144.02,2.12
10245.46,2.11
10347.91,2.09
10451.39,2.09
10555.91,2.09
10661.46,2.11
10768.08,2.15
10875.76,2.23
10984.52,2.34
11094.36,2.47
11205.31,2.62
11317.36,2.78
11430.53,2.97
11544.84,3.16
11660.29,3.36
11776.89,3.53
11894.66,3.69
12013.60,3.81
12133.74,3.90
12255.08,3.97
12377.63,4.00
12501.41,4.00
12626.42,3.99
12752.68,3.97
12880.21,3.92
13009.01,3.86
13139.10,3.78
13270.49,3.69
13403.20,3.56
13537.23,3.39
13672.60,3.16
13809.33,2.84
13947.42,2.47
14086.90,2.02
14227.77,1.53
14370.04,1.00
14513.74,0.43
14658.88,-0.16
14805.47,-0.77
14953.52,-1.36
15103.06,-1.92
15254.09,-2.45
15406.63,-2.92
15560.70,-3.34
15716.30,-3.72
15873.47,-4.05
16032.20,-4.36
16192.52,-4.65
16354.45,-4.93
16517.99,-5.21
16683.17,-5.52
16850.01,-5.85
17018.51,-6.18
17188.69,-6.54
17360.58,-6.91
17534.18,-7.29
17709.53,-7.67
17886.62,-8.06
18065.49,-8.48
18246.14,-8.94
18428.60,-9.45
18612.89,-9.97
18799.02,-10.52
18987.01,-11.09
19176.88,-11.69
19368.65,-12.30
19562.33,-12.94
19757.96,-13.60
19955.54,-14.29
