frequency,raw,error,smoothed,error_smoothed,equalization,parametric_eq,equalized_raw,equalized_smoothed,target
20,-3.93,-6.03,-3.97,-6.06,6.08,2.31,2.15,2.10,2.11
21,-3.85,-5.95,-3.86,-5.95,5.95,2.66,2.10,2.09,2.10
22,-3.76,-5.86,-3.75,-5.83,5.84,3.05,2.08,2.09,2.10
23,-3.67,-5.76,-3.65,-5.73,5.73,3.46,2.06,2.08,2.09
24,-3.58,-5.67,-3.55,-5.63,5.63,3.91,2.05,2.08,2.09
25,-3.49,-5.57,-3.46,-5.53,5.53,4.37,2.04,2.07,2.08
26,-3.40,-5.47,-3.37,-5.44,5.44,4.82,2.04,2.07,2.07
27,-3.30,-5.37,-3.29,-5.35,5.35,5.26,2.05,2.06,2.07
28,-3.21,-5.27,-3.22,-5.27,5.27,5.65,2.06,2.05,2.06
29,-3.14,-5.19,-3.15,-5.20,5.20,5.97,2.06,2.05,2.05
30,-3.06,-5.10,-3.09,-5.13,5.13,6.19,2.07,2.04,2.05
31,-2.99,-5.03,-3.03,-5.06,5.06,6.31,2.08,2.03,2.04
32,-2.95,-4.98,-2.98,-5.01,5.01,6.33,2.06,2.03,2.03
33,-2.93,-4.95,-2.94,-4.96,4.96,6.25,2.03,2.02,2.02
34,-2.91,-4.92,-2.91,-4.91,4.91,6.11,2.00,2.01,2.01
35,-2.89,-4.89,-2.88,-4.87,4.87,5.91,1.98,2.00,2.00
36,-2.86,-4.85,-2.85,-4.83,4.83,5.69,1.97,1.98,1.99
37,-2.84,-4.81,-2.83,-4.80,4.80,5.46,1.96,1.97,1.97
38,-2.82,-4.78,-2.81,-4.76,4.76,5.23,1.94,1.95,1.96
39,-2.80,-4.75,-2.79,-4.73,4.73,5.02,1.93,1.94,1.95
40,-2.78,-4.71,-2.77,-4.69,4.69,4.81,1.91,1.93,1.94
41,-2.75,-4.67,-2.74,-4.65,4.65,4.63,1.90,1.91,1.92
42,-2.72,-4.62,-2.71,-4.61,4.61,4.47,1.89,1.90,1.91
43,-2.69,-4.58,-2.68,-4.56,4.56,4.33,1.87,1.88,1.89
44,-2.65,-4.52,-2.64,-4.51,4.51,4.22,1.86,1.87,1.87
45,-2.61,-4.47,-2.61,-4.46,4.46,4.12,1.85,1.85,1.86
46,-2.57,-4.41,-2.57,-4.40,4.40,4.04,1.83,1.84,1.84
47,-2.52,-4.34,-2.53,-4.35,4.35,3.97,1.83,1.82,1.82
48,-2.48,-4.28,-2.49,-4.29,4.29,3.92,1.81,1.80,1.80
49,-2.44,-4.22,-2.45,-4.23,4.23,3.89,1.79,1.78,1.78
50,-2.40,-4.16,-2.40,-4.16,4.16,3.86,1.77,1.76,1.76
51,-2.36,-4.10,-2.36,-4.10,4.10,3.84,1.74,1.74,1.74
52,-2.32,-4.03,-2.32,-4.04,4.04,3.83,1.72,1.72,1.72
53,-2.28,-3.97,-2.28,-3.97,3.97,3.83,1.69,1.69,1.69
54,-2.24,-3.91,-2.24,-3.91,3.91,3.83,1.67,1.67,1.67
55,-2.20,-3.84,-2.20,-3.84,3.84,3.82,1.64,1.64,1.64
56,-2.16,-3.78,-2.16,-3.77,3.77,3.82,1.61,1.61,1.62
57,-2.12,-3.71,-2.11,-3.70,3.70,3.81,1.58,1.59,1.59
58,-2.08,-3.65,-2.07,-3.63,3.63,3.80,1.55,1.56,1.57
59,-2.03,-3.57,-2.02,-3.56,3.56,3.78,1.53,1.53,1.54
60,-1.99,-3.50,-1.97,-3.48,3.48,3.75,1.49,1.51,1.51
61,-1.95,-3.43,-1.93,-3.41,3.41,3.72,1.46,1.48,1.48
62,-1.90,-3.35,-1.89,-3.34,3.34,3.68,1.44,1.45,1.45
63,-1.84,-3.26,-1.85,-3.27,3.27,3.63,1.43,1.42,1.43
64,-1.78,-3.17,-1.81,-3.20,3.20,3.57,1.42,1.39,1.39
65,-1.74,-3.10,-1.78,-3.13,3.13,3.50,1.39,1.36,1.36
66,-1.72,-3.05,-1.74,-3.07,3.07,3.43,1.35,1.33,1.33
67,-1.70,-3.00,-1.71,-3.01,3.01,3.35,1.31,1.30,1.30
68,-1.68,-2.95,-1.68,-2.95,2.95,3.27,1.27,1.26,1.27
69,-1.67,-2.90,-1.66,-2.89,2.89,3.18,1.22,1.23,1.24
70,-1.66,-2.86,-1.63,-2.83,2.83,3.09,1.17,1.20,1.20
71,-1.64,-2.81,-1.61,-2.78,2.78,3.00,1.14,1.16,1.17
72,-1.61,-2.74,-1.59,-2.72,2.72,2.90,1.11,1.13,1.13
73,-1.58,-2.68,-1.57,-2.67,2.67,2.81,1.09,1.09,1.10
74,-1.55,-2.61,-1.56,-2.61,2.61,2.71,1.06,1.06,1.07
75,-1.52,-2.55,-1.53,-2.56,2.56,2.62,1.04,1.02,1.03
76,-1.50,-2.49,-1.51,-2.50,2.50,2.53,1.00,0.99,0.99
77,-1.49,-2.45,-1.49,-2.44,2.44,2.43,0.95,0.96,0.96
78,-1.47,-2.39,-1.46,-2.39,2.39,2.34,0.92,0.92,0.92
79,-1.45,-2.34,-1.44,-2.33,2.33,2.25,0.88,0.89,0.89
80,-1.42,-2.27,-1.42,-2.27,2.27,2.17,0.85,0.85,0.85
81,-1.39,-2.20,-1.40,-2.22,2.22,2.09,0.83,0.82,0.82
82,-1.38,-2.16,-1.38,-2.16,2.16,2.00,0.78,0.78,0.78
83,-1.36,-2.10,-1.36,-2.10,2.10,1.92,0.74,0.74,0.74
84,-1.34,-2.05,-1.34,-2.05,2.05,1.85,0.71,0.70,0.71
85,-1.32,-1.99,-1.33,-2.00,2.00,1.77,0.68,0.67,0.67
86,-1.32,-1.95,-1.31,-1.94,1.94,1.70,0.62,0.63,0.63
87,-1.30,-1.90,-1.29,-1.89,1.89,1.63,0.59,0.60,0.60
88,-1.28,-1.84,-1.28,-1.84,1.84,1.57,0.56,0.56,0.56
89,-1.26,-1.78,-1.26,-1.78,1.78,1.50,0.52,0.52,0.53
90,-1.24,-1.73,-1.24,-1.73,1.73,1.44,0.49,0.49,0.49
91,-1.23,-1.68,-1.23,-1.68,1.68,1.38,0.45,0.45,0.45
92,-1.21,-1.63,-1.21,-1.63,1.63,1.32,0.42,0.42,0.42
93,-1.20,-1.58,-1.19,-1.58,1.58,1.26,0.38,0.38,0.38
94,-1.18,-1.53,-1.18,-1.53,1.53,1.21,0.35,0.35,0.35
95,-1.17,-1.48,-1.16,-1.48,1.48,1.15,0.31,0.31,0.31
96,-1.15,-1.43,-1.15,-1.43,1.43,1.10,0.28,0.28,0.28
97,-1.12,-1.36,-1.14,-1.38,1.38,1.05,0.26,0.24,0.24
98,-1.11,-1.32,-1.13,-1.33,1.33,1.01,0.22,0.20,0.21
99,-1.10,-1.27,-1.11,-1.28,1.28,0.96,0.18,0.17,0.18
100,-1.09,-1.23,-1.10,-1.23,1.23,0.91,0.14,0.13,0.14
101,-1.09,-1.20,-1.09,-1.18,1.18,0.87,0.09,0.09,0.11
102,-1.10,-1.17,-1.07,-1.13,1.13,0.83,0.03,0.06,0.08
104,-1.08,-1.09,-1.06,-1.08,1.08,0.75,0.00,0.02,0.01
105,-1.06,-1.04,-1.04,-1.03,1.03,0.71,-0.03,-0.01,-0.02
106,-1.05,-1.00,-1.03,-0.98,0.98,0.67,-0.07,-0.05,-0.05
107,-1.02,-0.94,-1.01,-0.93,0.93,0.64,-0.09,-0.08,-0.08
108,-0.99,-0.88,-1.00,-0.88,0.88,0.60,-0.10,-0.11,-0.11
109,-0.97,-0.83,-0.98,-0.84,0.84,0.57,-0.13,-0.14,-0.14
110,-0.95,-0.78,-0.97,-0.79,0.79,0.53,-0.16,-0.18,-0.17
111,-0.93,-0.73,-0.95,-0.74,0.74,0.50,-0.19,-0.21,-0.20
112,-0.93,-0.70,-0.94,-0.70,0.70,0.47,-0.23,-0.24,-0.23
113,-0.91,-0.65,-0.92,-0.65,0.65,0.44,-0.26,-0.27,-0.26
114,-0.91,-0.62,-0.91,-0.60,0.60,0.41,-0.31,-0.30,-0.29
115,-0.89,-0.57,-0.89,-0.56,0.56,0.39,-0.33,-0.34,-0.32
117,-0.89,-0.52,-0.87,-0.51,0.51,0.33,-0.38,-0.37,-0.37
118,-0.88,-0.48,-0.86,-0.46,0.46,0.31,-0.42,-0.40,-0.40
119,-0.87,-0.45,-0.84,-0.41,0.41,0.28,-0.46,-0.43,-0.42
120,-0.85,-0.40,-0.82,-0.37,0.37,0.26,-0.48,-0.46,-0.45
121,-0.83,-0.36,-0.81,-0.32,0.32,0.24,-0.51,-0.49,-0.47
123,-0.77,-0.25,-0.79,-0.27,0.27,0.20,-0.50,-0.52,-0.52
124,-0.74,-0.19,-0.78,-0.23,0.23,0.18,-0.51,-0.55,-0.54
125,-0.73,-0.16,-0.77,-0.19,0.19,0.16,-0.54,-0.58,-0.57
126,-0.72,-0.13,-0.75,-0.14,0.14,0.14,-0.58,-0.61,-0.59
128,-0.72,-0.08,-0.74,-0.10,0.10,0.10,-0.62,-0.64,-0.64
129,-0.74,-0.08,-0.72,-0.06,0.06,0.09,-0.68,-0.66,-0.66
130,-0.75,-0.07,-0.71,-0.03,0.03,0.07,-0.72,-0.69,-0.68
131,-0.74,-0.04,-0.70,0.01,-0.01,0.05,-0.75,-0.71,-0.70
133,-0.73,0.01,-0.70,0.05,-0.05,0.02,-0.77,-0.74,-0.74
134,-0.70,0.06,-0.69,0.08,-0.08,0.01,-0.78,-0.77,-0.76
135,-0.68,0.10,-0.69,0.11,-0.11,-0.00,-0.79,-0.80,-0.78
137,-0.65,0.17,-0.68,0.14,-0.14,-0.03,-0.79,-0.83,-0.82
138,-0.64,0.20,-0.67,0.18,-0.18,-0.04,-0.82,-0.85,-0.84
140,-0.64,0.23,-0.66,0.21,-0.21,-0.07,-0.85,-0.88,-0.87
141,-0.65,0.24,-0.65,0.25,-0.25,-0.08,-0.90,-0.90,-0.89
142,-0.66,0.25,-0.63,0.28,-0.28,-0.09,-0.94,-0.92,-0.90
144,-0.65,0.29,-0.62,0.31,-0.31,-0.11,-0.96,-0.94,-0.94
145,-0.65,0.30,-0.61,0.35,-0.35,-0.12,-0.99,-0.96,-0.95
147,-0.63,0.36,-0.61,0.38,-0.38,-0.14,-1.01,-0.98,-0.98
148,-0.60,0.40,-0.60,0.41,-0.41,-0.15,-1.01,-1.01,-1.00
150,-0.57,0.46,-0.60,0.43,-0.43,-0.17,-1.00,-1.04,-1.03
151,-0.56,0.48,-0.60,0.46,-0.46,-0.18,-1.02,-1.06,-1.04
153,-0.56,0.51,-0.59,0.49,-0.49,-0.20,-1.05,-1.08,-1.07
154,-0.57,0.51,-0.58,0.52,-0.52,-0.21,-1.08,-1.10,-1.08
156,-0.58,0.53,-0.57,0.54,-0.54,-0.23,-1.12,-1.11,-1.11
157,-0.59,0.53,-0.56,0.57,-0.57,-0.24,-1.16,-1.13,-1.12
159,-0.59,0.56,-0.56,0.59,-0.59,-0.26,-1.18,-1.15,-1.15
160,-0.59,0.57,-0.55,0.62,-0.62,-0.27,-1.21,-1.17,-1.16
162,-0.57,0.61,-0.55,0.64,-0.64,-0.29,-1.21,-1.19,-1.18
164,-0.54,0.66,-0.55,0.66,-0.66,-0.31,-1.20,-1.21,-1.20
165,-0.53,0.68,-0.55,0.68,-0.68,-0.32,-1.21,-1.22,-1.21
167,-0.52,0.71,-0.54,0.69,-0.69,-0.34,-1.21,-1.24,-1.23
169,-0.52,0.73,-0.54,0.71,-0.71,-0.36,-1.23,-1.26,-1.25
170,-0.52,0.74,-0.55,0.73,-0.73,-0.37,-1.25,-1.27,-1.26
172,-0.54,0.74,-0.55,0.74,-0.74,-0.39,-1.28,-1.29,-1.28
174,-0.55,0.75,-0.55,0.75,-0.75,-0.41,-1.30,-1.30,-1.30
175,-0.56,0.75,-0.56,0.76,-0.76,-0.42,-1.32,-1.32,-1.31
177,-0.57,0.75,-0.56,0.77,-0.77,-0.44,-1.34,-1.33,-1.32
179,-0.59,0.75,-0.57,0.78,-0.78,-0.47,-1.37,-1.35,-1.34
181,-0.60,0.76,-0.57,0.79,-0.79,-0.49,-1.39,-1.36,-1.36
183,-0.60,0.77,-0.58,0.80,-0.80,-0.51,-1.40,-1.38,-1.37
184,-0.60,0.78,-0.58,0.81,-0.81,-0.52,-1.41,-1.39,-1.38
186,-0.59,0.80,-0.59,0.81,-0.81,-0.54,-1.40,-1.40,-1.39
188,-0.57,0.84,-0.59,0.82,-0.82,-0.57,-1.39,-1.41,-1.41
190,-0.57,0.85,-0.60,0.82,-0.82,-0.59,-1.39,-1.42,-1.42
192,-0.58,0.85,-0.61,0.83,-0.83,-0.61,-1.41,-1.44,-1.43
194,-0.59,0.85,-0.62,0.83,-0.83,-0.64,-1.42,-1.45,-1.44
196,-0.62,0.84,-0.63,0.83,-0.83,-0.66,-1.45,-1.46,-1.45
198,-0.64,0.83,-0.64,0.83,-0.83,-0.68,-1.47,-1.47,-1.47
200,-0.66,0.82,-0.65,0.84,-0.84,-0.71,-1.50,-1.48,-1.48
202,-0.68,0.81,-0.66,0.84,-0.84,-0.73,-1.52,-1.49,-1.49
204,-0.69,0.81,-0.67,0.84,-0.84,-0.75,-1.53,-1.50,-1.50
206,-0.69,0.82,-0.67,0.84,-0.84,-0.77,-1.53,-1.52,-1.51
208,-0.70,0.82,-0.68,0.84,-0.84,-0.80,-1.54,-1.52,-1.52
210,-0.69,0.84,-0.69,0.85,-0.85,-0.82,-1.54,-1.53,-1.52
212,-0.69,0.84,-0.69,0.85,-0.85,-0.84,-1.54,-1.54,-1.53
214,-0.69,0.85,-0.69,0.86,-0.86,-0.86,-1.54,-1.55,-1.54
216,-0.68,0.87,-0.69,0.86,-0.86,-0.88,-1.54,-1.56,-1.55
218,-0.68,0.88,-0.70,0.86,-0.86,-0.91,-1.54,-1.56,-1.56
221,-0.68,0.89,-0.70,0.87,-0.87,-0.94,-1.55,-1.57,-1.57
223,-0.69,0.89,-0.71,0.87,-0.87,-0.95,-1.56,-1.58,-1.58
225,-0.71,0.87,-0.71,0.87,-0.87,-0.97,-1.58,-1.58,-1.58
227,-0.72,0.87,-0.72,0.87,-0.87,-0.99,-1.59,-1.59,-1.59
229,-0.74,0.86,-0.73,0.88,-0.88,-1.01,-1.61,-1.60,-1.60
232,-0.75,0.86,-0.73,0.88,-0.88,-1.03,-1.63,-1.61,-1.61
234,-0.76,0.85,-0.74,0.88,-0.88,-1.04,-1.64,-1.62,-1.61
236,-0.75,0.87,-0.74,0.88,-0.88,-1.06,-1.63,-1.62,-1.62
239,-0.75,0.88,-0.75,0.88,-0.88,-1.07,-1.63,-1.63,-1.63
241,-0.75,0.88,-0.75,0.88,-0.88,-1.09,-1.63,-1.64,-1.63
244,-0.75,0.89,-0.75,0.89,-0.89,-1.10,-1.64,-1.64,-1.64
246,-0.75,0.89,-0.75,0.90,-0.90,-1.11,-1.65,-1.65,-1.64
248,-0.74,0.91,-0.75,0.90,-0.90,-1.11,-1.64,-1.65,-1.65
251,-0.74,0.92,-0.74,0.91,-0.91,-1.12,-1.65,-1.66,-1.65
253,-0.74,0.92,-0.74,0.92,-0.92,-1.13,-1.66,-1.66,-1.66
256,-0.74,0.93,-0.74,0.93,-0.93,-1.13,-1.67,-1.66,-1.67
259,-0.73,0.94,-0.73,0.94,-0.94,-1.14,-1.67,-1.67,-1.67
261,-0.73,0.95,-0.73,0.95,-0.95,-1.14,-1.68,-1.68,-1.68
264,-0.73,0.95,-0.72,0.96,-0.96,-1.14,-1.69,-1.68,-1.68
266,-0.72,0.97,-0.72,0.97,-0.97,-1.14,-1.68,-1.69,-1.68
269,-0.72,0.97,-0.72,0.97,-0.97,-1.14,-1.69,-1.69,-1.69
272,-0.71,0.99,-0.71,0.98,-0.98,-1.13,-1.69,-1.69,-1.69
274,-0.71,0.99,-0.71,0.99,-0.99,-1.13,-1.70,-1.70,-1.70
277,-0.70,1.00,-0.70,1.00,-1.00,-1.12,-1.70,-1.70,-1.70
280,-0.70,1.01,-0.70,1.01,-1.01,-1.12,-1.71,-1.71,-1.71
283,-0.69,1.02,-0.69,1.02,-1.02,-1.11,-1.71,-1.71,-1.71
286,-0.69,1.03,-0.69,1.02,-1.02,-1.11,-1.71,-1.71,-1.72
288,-0.69,1.03,-0.69,1.03,-1.03,-1.10,-1.72,-1.72,-1.72
291,-0.69,1.03,-0.68,1.04,-1.04,-1.09,-1.73,-1.72,-1.72
294,-0.68,1.05,-0.68,1.05,-1.05,-1.09,-1.72,-1.73,-1.73
297,-0.68,1.05,-0.68,1.05,-1.05,-1.08,-1.73,-1.73,-1.73
300,-0.68,1.05,-0.68,1.06,-1.06,-1.07,-1.74,-1.73,-1.73
303,-0.67,1.07,-0.67,1.06,-1.06,-1.06,-1.73,-1.74,-1.74
306,-0.67,1.07,-0.67,1.07,-1.07,-1.06,-1.74,-1.74,-1.74
309,-0.67,1.07,-0.67,1.07,-1.07,-1.05,-1.74,-1.74,-1.74
312,-0.67,1.08,-0.67,1.08,-1.08,-1.05,-1.75,-1.74,-1.74
316,-0.67,1.08,-0.67,1.08,-1.08,-1.04,-1.75,-1.75,-1.75
319,-0.67,1.08,-0.67,1.08,-1.08,-1.03,-1.75,-1.75,-1.75
322,-0.67,1.08,-0.67,1.08,-1.08,-1.03,-1.75,-1.75,-1.75
325,-0.67,1.09,-0.67,1.09,-1.09,-1.03,-1.76,-1.76,-1.76
328,-0.67,1.09,-0.67,1.09,-1.09,-1.02,-1.76,-1.76,-1.76
332,-0.67,1.09,-0.67,1.09,-1.09,-1.02,-1.76,-1.76,-1.76
335,-0.68,1.08,-0.68,1.09,-1.09,-1.02,-1.77,-1.76,-1.76
338,-0.68,1.09,-0.68,1.09,-1.09,-1.02,-1.77,-1.77,-1.77
342,-0.68,1.09,-0.68,1.09,-1.09,-1.02,-1.77,-1.77,-1.77
345,-0.69,1.08,-0.69,1.09,-1.09,-1.02,-1.77,-1.77,-1.77
349,-0.69,1.08,-0.69,1.08,-1.08,-1.02,-1.77,-1.77,-1.77
352,-0.69,1.09,-0.69,1.08,-1.08,-1.02,-1.77,-1.78,-1.77
356,-0.70,1.08,-0.70,1.08,-1.08,-1.03,-1.78,-1.78,-1.78
359,-0.70,1.08,-0.70,1.08,-1.08,-1.03,-1.78,-1.78,-1.78
363,-0.71,1.07,-0.70,1.08,-1.08,-1.04,-1.79,-1.78,-1.78
366,-0.71,1.07,-0.71,1.08,-1.08,-1.04,-1.79,-1.78,-1.78
370,-0.71,1.08,-0.71,1.08,-1.08,-1.05,-1.79,-1.79,-1.78
374,-0.71,1.08,-0.71,1.08,-1.08,-1.05,-1.79,-1.79,-1.79
377,-0.71,1.08,-0.71,1.08,-1.08,-1.06,-1.79,-1.79,-1.79
381,-0.71,1.08,-0.71,1.08,-1.08,-1.07,-1.79,-1.79,-1.79
385,-0.72,1.07,-0.72,1.08,-1.08,-1.08,-1.80,-1.79,-1.79
389,-0.72,1.07,-0.72,1.08,-1.08,-1.09,-1.80,-1.79,-1.79
393,-0.72,1.08,-0.72,1.08,-1.08,-1.10,-1.80,-1.80,-1.80
397,-0.72,1.08,-0.72,1.08,-1.08,-1.11,-1.80,-1.80,-1.80
401,-0.72,1.08,-0.72,1.08,-1.08,-1.13,-1.80,-1.80,-1.80
405,-0.72,1.08,-0.72,1.08,-1.08,-1.14,-1.79,-1.80,-1.80
409,-0.73,1.07,-0.72,1.07,-1.07,-1.15,-1.80,-1.80,-1.80
413,-0.73,1.07,-0.73,1.07,-1.07,-1.16,-1.80,-1.80,-1.80
417,-0.73,1.08,-0.74,1.07,-1.07,-1.17,-1.80,-1.81,-1.80
421,-0.73,1.08,-0.74,1.07,-1.07,-1.19,-1.80,-1.81,-1.81
425,-0.74,1.07,-0.75,1.07,-1.07,-1.20,-1.80,-1.82,-1.81
430,-0.74,1.07,-0.76,1.06,-1.06,-1.21,-1.80,-1.82,-1.81
434,-0.75,1.06,-0.76,1.07,-1.07,-1.22,-1.81,-1.82,-1.81
438,-0.76,1.05,-0.75,1.07,-1.07,-1.23,-1.83,-1.82,-1.81
443,-0.77,1.04,-0.75,1.07,-1.07,-1.24,-1.84,-1.82,-1.81
447,-0.78,1.03,-0.74,1.08,-1.08,-1.25,-1.86,-1.82,-1.81
451,-0.77,1.04,-0.73,1.09,-1.09,-1.26,-1.86,-1.81,-1.81
456,-0.75,1.05,-0.71,1.09,-1.09,-1.27,-1.84,-1.81,-1.80
460,-0.72,1.08,-0.70,1.10,-1.10,-1.27,-1.82,-1.80,-1.80
465,-0.67,1.12,-0.69,1.11,-1.11,-1.28,-1.78,-1.80,-1.79
470,-0.63,1.15,-0.67,1.12,-1.12,-1.28,-1.74,-1.79,-1.78
474,-0.62,1.15,-0.66,1.12,-1.12,-1.29,-1.74,-1.78,-1.77
479,-0.60,1.16,-0.64,1.12,-1.12,-1.29,-1.72,-1.77,-1.76
484,-0.61,1.14,-0.63,1.13,-1.13,-1.28,-1.73,-1.76,-1.75
489,-0.62,1.12,-0.62,1.13,-1.13,-1.28,-1.74,-1.74,-1.74
494,-0.62,1.10,-0.60,1.12,-1.12,-1.27,-1.74,-1.73,-1.72
499,-0.62,1.09,-0.59,1.12,-1.12,-1.27,-1.74,-1.71,-1.71
504,-0.62,1.07,-0.59,1.11,-1.11,-1.26,-1.73,-1.70,-1.69
509,-0.60,1.08,-0.58,1.11,-1.11,-1.24,-1.71,-1.69,-1.68
514,-0.58,1.08,-0.57,1.10,-1.10,-1.23,-1.68,-1.67,-1.66
519,-0.56,1.08,-0.56,1.09,-1.09,-1.22,-1.65,-1.65,-1.64
524,-0.54,1.09,-0.55,1.08,-1.08,-1.20,-1.62,-1.63,-1.63
529,-0.53,1.08,-0.54,1.07,-1.07,-1.18,-1.60,-1.61,-1.61
535,-0.51,1.08,-0.53,1.06,-1.06,-1.16,-1.57,-1.59,-1.59
540,-0.51,1.06,-0.51,1.05,-1.05,-1.13,-1.56,-1.57,-1.57
545,-0.50,1.05,-0.50,1.04,-1.04,-1.11,-1.54,-1.54,-1.54
551,-0.50,1.02,-0.49,1.03,-1.03,-1.08,-1.53,-1.52,-1.52
556,-0.48,1.02,-0.48,1.01,-1.01,-1.06,-1.49,-1.49,-1.50
562,-0.47,1.00,-0.47,1.00,-1.00,-1.03,-1.47,-1.47,-1.47
568,-0.46,0.98,-0.46,0.98,-0.98,-0.99,-1.44,-1.44,-1.44
573,-0.45,0.96,-0.45,0.96,-0.96,-0.97,-1.41,-1.42,-1.41
579,-0.44,0.94,-0.44,0.95,-0.95,-0.93,-1.39,-1.39,-1.38
585,-0.43,0.93,-0.43,0.93,-0.93,-0.90,-1.36,-1.36,-1.35
591,-0.42,0.91,-0.42,0.91,-0.91,-0.87,-1.33,-1.33,-1.32
596,-0.41,0.89,-0.40,0.89,-0.89,-0.84,-1.30,-1.30,-1.29
602,-0.40,0.86,-0.39,0.88,-0.88,-0.80,-1.28,-1.27,-1.26
608,-0.38,0.85,-0.38,0.86,-0.86,-0.77,-1.24,-1.24,-1.23
615,-0.36,0.84,-0.36,0.84,-0.84,-0.73,-1.20,-1.21,-1.20
621,-0.35,0.82,-0.35,0.83,-0.83,-0.69,-1.18,-1.17,-1.17
627,-0.33,0.81,-0.33,0.81,-0.81,-0.66,-1.14,-1.14,-1.14
633,-0.32,0.79,-0.32,0.79,-0.79,-0.62,-1.11,-1.11,-1.11
639,-0.30,0.78,-0.30,0.77,-0.77,-0.59,-1.07,-1.07,-1.07
646,-0.29,0.75,-0.29,0.75,-0.75,-0.55,-1.04,-1.04,-1.04
652,-0.27,0.74,-0.28,0.73,-0.73,-0.52,-1.00,-1.00,-1.01
659,-0.26,0.72,-0.27,0.70,-0.70,-0.48,-0.96,-0.97,-0.97
665,-0.26,0.68,-0.26,0.67,-0.67,-0.45,-0.93,-0.93,-0.94
672,-0.25,0.66,-0.26,0.64,-0.64,-0.41,-0.89,-0.90,-0.90
679,-0.25,0.62,-0.26,0.61,-0.61,-0.37,-0.86,-0.87,-0.87
686,-0.25,0.58,-0.26,0.58,-0.58,-0.34,-0.82,-0.84,-0.83
692,-0.25,0.54,-0.26,0.54,-0.54,-0.31,-0.79,-0.80,-0.79
699,-0.26,0.50,-0.25,0.51,-0.51,-0.27,-0.77,-0.76,-0.76
706,-0.26,0.46,-0.25,0.48,-0.48,-0.24,-0.74,-0.73,-0.72
713,-0.27,0.41,-0.24,0.45,-0.45,-0.20,-0.72,-0.69,-0.68
721,-0.27,0.37,-0.23,0.42,-0.42,-0.16,-0.69,-0.65,-0.64
728,-0.25,0.35,-0.22,0.39,-0.39,-0.13,-0.64,-0.61,-0.60
735,-0.23,0.33,-0.20,0.37,-0.37,-0.10,-0.59,-0.57,-0.56
742,-0.19,0.33,-0.19,0.34,-0.34,-0.07,-0.53,-0.53,-0.52
750,-0.16,0.32,-0.18,0.31,-0.31,-0.03,-0.47,-0.49,-0.48
757,-0.14,0.31,-0.16,0.28,-0.28,0.00,-0.42,-0.45,-0.44
765,-0.13,0.28,-0.15,0.25,-0.25,0.04,-0.38,-0.41,-0.41
773,-0.12,0.25,-0.15,0.22,-0.22,0.07,-0.34,-0.37,-0.37
780,-0.12,0.21,-0.15,0.19,-0.19,0.10,-0.31,-0.33,-0.33
788,-0.13,0.17,-0.15,0.15,-0.15,0.13,-0.28,-0.30,-0.30
796,-0.14,0.12,-0.15,0.11,-0.11,0.17,-0.25,-0.27,-0.26
804,-0.16,0.07,-0.16,0.07,-0.07,0.20,-0.23,-0.23,-0.23
812,-0.17,0.03,-0.17,0.03,-0.03,0.23,-0.20,-0.20,-0.20
820,-0.20,-0.03,-0.18,-0.01,0.01,0.26,-0.19,-0.17,-0.16
828,-0.22,-0.09,-0.19,-0.04,0.04,0.29,-0.18,-0.14,-0.13
837,-0.22,-0.12,-0.19,-0.08,0.08,0.32,-0.14,-0.11,-0.10
845,-0.22,-0.15,-0.19,-0.11,0.11,0.35,-0.11,-0.08,-0.07
853,-0.21,-0.17,-0.19,-0.14,0.14,0.38,-0.07,-0.05,-0.04
862,-0.19,-0.18,-0.19,-0.17,0.17,0.41,-0.02,-0.02,-0.01
871,-0.16,-0.18,-0.18,-0.19,0.19,0.44,0.03,0.01,0.02
879,-0.15,-0.20,-0.17,-0.21,0.21,0.46,0.06,0.04,0.05
888,-0.14,-0.21,-0.15,-0.23,0.23,0.49,0.09,0.07,0.08
897,-0.14,-0.24,-0.14,-0.24,0.24,0.51,0.10,0.10,0.10
906,-0.12,-0.25,-0.12,-0.25,0.25,0.54,0.14,0.13,0.13
915,-0.11,-0.27,-0.11,-0.27,0.27,0.56,0.16,0.16,0.16
924,-0.10,-0.28,-0.09,-0.28,0.28,0.58,0.18,0.18,0.18
933,-0.09,-0.30,-0.08,-0.29,0.29,0.60,0.20,0.21,0.21
943,-0.08,-0.32,-0.07,-0.30,0.30,0.62,0.22,0.24,0.24
952,-0.06,-0.32,-0.05,-0.32,0.32,0.64,0.26,0.26,0.26
962,-0.05,-0.34,-0.04,-0.33,0.33,0.66,0.28,0.29,0.29
971,-0.04,-0.35,-0.03,-0.35,0.35,0.67,0.31,0.31,0.31
981,-0.02,-0.36,-0.03,-0.37,0.37,0.68,0.35,0.34,0.34
991,-0.01,-0.38,-0.02,-0.39,0.39,0.70,0.38,0.37,0.37
1001,0.00,-0.39,-0.02,-0.41,0.41,0.71,0.41,0.39,0.39
1011,0.01,-0.41,-0.02,-0.44,0.44,0.72,0.45,0.42,0.42
1021,-0.01,-0.46,-0.02,-0.47,0.47,0.72,0.46,0.45,0.45
1031,-0.02,-0.49,-0.02,-0.50,0.50,0.73,0.48,0.47,0.47
1041,-0.04,-0.54,-0.03,-0.53,0.53,0.74,0.49,0.50,0.50
1052,-0.05,-0.58,-0.03,-0.56,0.56,0.74,0.51,0.53,0.53
1062,-0.06,-0.62,-0.04,-0.60,0.60,0.74,0.54,0.56,0.56
1073,-0.06,-0.65,-0.05,-0.64,0.64,0.74,0.58,0.59,0.59
1084,-0.06,-0.67,-0.06,-0.67,0.67,0.74,0.61,0.61,0.62
1094,-0.06,-0.70,-0.07,-0.71,0.71,0.74,0.65,0.64,0.65
1105,-0.06,-0.73,-0.07,-0.75,0.75,0.74,0.69,0.67,0.68
1116,-0.07,-0.78,-0.08,-0.78,0.78,0.74,0.71,0.70,0.71
1128,-0.07,-0.81,-0.08,-0.81,0.81,0.73,0.74,0.73,0.74
1139,-0.08,-0.85,-0.08,-0.85,0.85,0.73,0.77,0.77,0.77
1150,-0.09,-0.89,-0.08,-0.88,0.88,0.73,0.79,0.80,0.80
1162,-0.09,-0.92,-0.08,-0.90,0.90,0.72,0.81,0.83,0.83
1173,-0.08,-0.94,-0.07,-0.93,0.93,0.72,0.85,0.86,0.86
1185,-0.07,-0.97,-0.06,-0.95,0.95,0.71,0.88,0.89,0.90
1197,-0.06,-0.99,-0.05,-0.97,0.97,0.70,0.91,0.92,0.93
1209,-0.04,-1.00,-0.03,-0.99,0.99,0.70,0.95,0.95,0.96
1221,-0.02,-1.01,-0.02,-1.00,1.00,0.69,0.98,0.99,0.99
1233,-0.01,-1.03,0.00,-1.02,1.02,0.69,1.01,1.02,1.02
1246,0.02,-1.04,0.02,-1.04,1.04,0.68,1.06,1.06,1.06
1258,0.03,-1.06,0.04,-1.06,1.06,0.67,1.09,1.10,1.09
1271,0.06,-1.06,0.06,-1.08,1.08,0.67,1.14,1.14,1.12
1283,0.09,-1.07,0.06,-1.10,1.10,0.66,1.20,1.17,1.16
1296,0.10,-1.09,0.07,-1.13,1.13,0.66,1.23,1.20,1.19
1309,0.11,-1.12,0.07,-1.16,1.16,0.65,1.27,1.23,1.23
1322,0.11,-1.15,0.07,-1.19,1.19,0.65,1.30,1.26,1.26
1335,0.09,-1.21,0.07,-1.22,1.22,0.65,1.31,1.30,1.30
1349,0.08,-1.26,0.08,-1.25,1.25,0.64,1.34,1.33,1.34
1362,0.05,-1.32,0.08,-1.29,1.29,0.64,1.34,1.37,1.38
1376,0.04,-1.37,0.09,-1.31,1.31,0.64,1.36,1.41,1.41
1390,0.04,-1.41,0.10,-1.34,1.34,0.64,1.38,1.44,1.45
1404,0.06,-1.43,0.12,-1.37,1.37,0.64,1.43,1.48,1.49
1418,0.10,-1.43,0.13,-1.39,1.39,0.64,1.49,1.52,1.53
1432,0.15,-1.42,0.15,-1.41,1.41,0.64,1.56,1.56,1.57
1446,0.20,-1.40,0.17,-1.43,1.43,0.64,1.63,1.60,1.61
1461,0.23,-1.41,0.19,-1.45,1.45,0.64,1.69,1.65,1.64
1475,0.26,-1.42,0.21,-1.47,1.47,0.64,1.74,1.69,1.68
1490,0.27,-1.45,0.23,-1.50,1.50,0.64,1.77,1.73,1.72
1505,0.27,-1.49,0.25,-1.52,1.52,0.64,1.79,1.77,1.76
1520,0.28,-1.52,0.26,-1.54,1.54,0.65,1.82,1.81,1.80
1535,0.28,-1.56,0.27,-1.57,1.57,0.65,1.85,1.84,1.85
1550,0.28,-1.61,0.28,-1.59,1.59,0.65,1.87,1.86,1.89
1566,0.30,-1.63,0.28,-1.61,1.61,0.66,1.91,1.89,1.93
1582,0.31,-1.67,0.30,-1.62,1.62,0.66,1.93,1.91,1.98
1597,0.32,-1.70,0.32,-1.62,1.62,0.67,1.94,1.94,2.02
1613,0.34,-1.73,0.35,-1.62,1.62,0.67,1.96,1.97,2.07
1629,0.37,-1.74,0.40,-1.60,1.60,0.68,1.97,2.00,2.11
1646,0.42,-1.74,0.47,-1.57,1.57,0.69,2.00,2.04,2.16
1662,0.49,-1.71,0.55,-1.53,1.53,0.69,2.02,2.08,2.20
1679,0.61,-1.64,0.65,-1.47,1.47,0.70,2.09,2.13,2.25
1696,0.74,-1.56,0.77,-1.40,1.40,0.71,2.14,2.18,2.30
