frequency,raw
20.00,7.16
20.20,7.19
20.40,7.23
20.61,7.26
20.81,7.30
21.02,7.33
21.23,7.37
21.44,7.40
21.66,7.44
21.87,7.47
22.09,7.50
22.31,7.53
22.54,7.57
22.76,7.60
22.99,7.63
23.22,7.65
23.45,7.67
23.69,7.69
23.92,7.71
24.16,7.73
24.40,7.75
24.65,7.77
24.89,7.78
25.14,7.80
25.39,7.81
25.65,7.82
25.91,7.84
26.16,7.84
26.43,7.85
26.69,7.85
26.96,7.86
27.23,7.86
27.50,7.87
27.77,7.88
28.05,7.88
28.33,7.90
28.62,7.91
28.90,7.93
29.19,7.94
29.48,7.95
29.78,7.97
30.08,7.98
30.38,8.00
30.68,8.01
30.99,8.02
31.30,8.03
31.61,8.05
31.93,8.07
32.24,8.07
32.57,8.08
32.89,8.08
33.22,8.09
33.55,8.10
33.89,8.12
34.23,8.12
34.57,8.12
34.92,8.12
35.27,8.12
35.62,8.12
35.97,8.12
36.33,8.12
36.70,8.12
37.06,8.12
37.43,8.12
37.81,8.12
38.19,8.12
38.57,8.12
38.95,8.12
39.34,8.12
39.74,8.12
40.14,8.11
40.54,8.09
40.94,8.07
41.35,8.07
41.76,8.07
42.18,8.07
42.60,8.06
43.03,8.06
43.46,8.02
43.90,7.99
44.33,7.96
44.78,7.94
45.23,7.92
45.68,7.90
46.13,7.87
46.60,7.85
47.06,7.83
47.53,7.81
48.01,7.79
48.49,7.79
48.97,7.79
49.46,7.79
49.96,7.79
50.46,7.77
50.96,7.74
51.47,7.74
51.99,7.74
52.51,7.72
53.03,7.70
53.56,7.67
54.10,7.65
54.64,7.62
55.18,7.59
55.74,7.58
56.29,7.56
56.86,7.53
57.42,7.50
58.00,7.47
58.58,7.45
59.16,7.42
59.76,7.38
60.35,7.36
60.96,7.33
61.57,7.30
62.18,7.27
62.80,7.24
63.43,7.21
64.07,7.19
64.71,7.16
65.35,7.15
66.01,7.14
66.67,7.11
67.33,7.09
68.01,7.09
68.69,7.06
69.37,7.02
70.07,7.00
70.77,6.96
71.48,6.93
72.19,6.90
72.91,6.86
73.64,6.83
74.38,6.79
75.12,6.76
75.87,6.73
76.63,6.69
77.40,6.65
78.17,6.62
78.95,6.60
79.74,6.56
80.54,6.53
81.35,6.50
82.16,6.46
82.98,6.42
83.81,6.38
84.65,6.34
85.50,6.30
86.35,6.25
87.22,6.20
88.09,6.15
88.97,6.11
89.86,6.08
90.76,6.03
91.66,5.99
92.58,5.96
93.51,5.92
94.44,5.89
95.39,5.85
96.34,5.82
97.30,5.78
98.28,5.75
99.26,5.73
100.25,5.68
101.25,5.64
102.27,5.61
103.29,5.58
104.32,5.55
105.37,5.51
106.42,5.47
107.48,5.43
108.56,5.38
109.64,5.33
110.74,5.28
111.85,5.25
112.97,5.20
114.10,5.16
115.24,5.12
116.39,5.08
117.55,5.03
118.73,5.00
119.92,4.94
121.12,4.91
122.33,4.86
123.55,4.82
124.79,4.77
126.03,4.74
127.29,4.69
128.57,4.65
129.85,4.61
131.15,4.55
132.46,4.51
133.79,4.47
135.12,4.42
136.48,4.38
137.84,4.33
139.22,4.28
140.61,4.24
142.02,4.19
143.44,4.15
144.87,4.10
146.32,4.06
147.78,4.00
149.26,3.95
150.75,3.91
152.26,3.86
153.78,3.81
155.32,3.76
156.88,3.71
158.44,3.67
160.03,3.62
161.63,3.59
163.24,3.54
164.88,3.50
166.53,3.45
168.19,3.40
169.87,3.36
171.57,3.31
173.29,3.26
175.02,3.21
176.77,3.17
178.54,3.14
180.32,3.10
182.13,3.05
183.95,3.01
185.79,2.97
187.65,2.94
189.52,2.90
191.42,2.85
193.33,2.81
195.27,2.77
197.22,2.73
199.19,2.69
201.18,2.65
203.19,2.61
205.23,2.56
207.28,2.51
209.35,2.47
211.44,2.42
213.56,2.39
215.69,2.34
217.85,2.30
220.03,2.26
222.23,2.22
224.45,2.19
226.70,2.15
228.96,2.10
231.25,2.07
233.57,2.04
235.90,1.99
238.26,1.95
240.64,1.92
243.05,1.89
245.48,1.84
247.93,1.81
250.41,1.77
252.92,1.73
255.45,1.69
258.00,1.65
260.58,1.62
263.19,1.58
265.82,1.54
268.48,1.50
271.16,1.46
273.87,1.42
276.61,1.39
279.38,1.36
282.17,1.32
284.99,1.28
287.84,1.25
290.72,1.21
293.63,1.17
296.57,1.13
299.53,1.09
302.53,1.06
305.55,1.03
308.61,0.99
311.69,0.95
314.81,0.91
317.96,0.88
321.14,0.85
324.35,0.82
327.59,0.80
330.87,0.76
334.18,0.74
337.52,0.71
340.90,0.67
344.30,0.65
347.75,0.62
351.23,0.58
354.74,0.55
358.28,0.52
361.87,0.48
365.49,0.45
369.14,0.43
372.83,0.39
376.56,0.38
380.33,0.34
384.13,0.31
387.97,0.29
391.85,0.27
395.77,0.25
399.73,0.21
403.72,0.19
407.76,0.16
411.84,0.13
415.96,0.11
420.12,0.10
424.32,0.06
428.56,0.04
432.85,0.01
437.18,-0.02
441.55,-0.03
445.96,-0.05
450.42,-0.09
454.93,-0.12
459.48,-0.14
464.07,-0.14
468.71,-0.17
473.40,-0.18
478.13,-0.22
482.91,-0.23
487.74,-0.27
492.62,-0.28
497.55,-0.29
502.52,-0.31
507.55,-0.32
512.62,-0.36
517.75,-0.37
522.93,-0.37
528.16,-0.39
533.44,-0.41
538.77,-0.42
544.16,-0.42
549.60,-0.45
555.10,-0.46
560.65,-0.46
566.25,-0.50
571.92,-0.51
577.64,-0.51
583.41,-0.55
589.25,-0.56
595.14,-0.56
601.09,-0.59
607.10,-0.60
613.17,-0.60
619.30,-0.60
625.50,-0.62
631.75,-0.64
638.07,-0.65
644.45,-0.65
650.89,-0.65
657.40,-0.65
663.98,-0.65
670.62,-0.65
677.32,-0.65
684.10,-0.69
690.94,-0.70
697.85,-0.70
704.83,-0.70
711.87,-0.70
718.99,-0.70
726.18,-0.70
733.44,-0.71
740.78,-0.72
748.19,-0.72
755.67,-0.72
763.23,-0.70
770.86,-0.70
778.57,-0.70
786.35,-0.70
794.22,-0.70
802.16,-0.70
810.18,-0.70
818.28,-0.69
826.46,-0.66
834.73,-0.65
843.08,-0.63
851.51,-0.60
860.02,-0.58
868.62,-0.57
877.31,-0.56
886.08,-0.52
894.94,-0.50
903.89,-0.47
912.93,-0.44
922.06,-0.42
931.28,-0.39
940.59,-0.33
950.00,-0.30
959.50,-0.24
969.09,-0.17
978.78,-0.12
988.57,-0.08
998.46,-0.01
1008.44,0.06
1018.53,0.16
1028.71,0.24
1039.00,0.35
1049.39,0.45
1059.88,0.57
1070.48,0.67
1081.19,0.78
1092.00,0.89
1102.92,1.00
1113.95,1.11
1125.09,1.22
1136.34,1.33
1147.70,1.45
1159.18,1.59
1170.77,1.71
1182.48,1.82
1194.30,1.96
1206.25,2.09
1218.31,2.22
1230.49,2.34
1242.80,2.44
1255.22,2.55
1267.78,2.66
1280.45,2.77
1293.26,2.89
1306.19,3.03
1319.25,3.15
1332.45,3.26
1345.77,3.36
1359.23,3.48
1372.82,3.59
1386.55,3.69
1400.41,3.78
1414.42,3.88
1428.56,3.98
1442.85,4.07
1457.28,4.17
1471.85,4.28
1486.57,4.35
1501.43,4.44
1516.45,4.55
1531.61,4.62
1546.93,4.71
1562.40,4.79
1578.02,4.88
1593.80,4.96
1609.74,5.07
1625.84,5.14
1642.10,5.24
1658.52,5.35
1675.10,5.42
1691.85,5.52
1708.77,5.60
1725.86,5.69
1743.12,5.77
1760.55,5.86
1778.15,5.94
1795.94,6.04
1813.90,6.14
1832.03,6.21
1850.36,6.31
1868.86,6.38
1887.55,6.48
1906.42,6.59
1925.49,6.67
1944.74,6.76
1964.19,6.83
1983.83,6.93
2003.67,7.00
2023.71,7.09
2043.94,7.17
2064.38,7.25
2085.03,7.35
2105.88,7.42
2126.94,7.49
2148.20,7.56
2169.69,7.64
2191.38,7.71
2213.30,7.79
2235.43,7.86
2257.78,7.92
2280.36,7.99
2303.17,8.05
2326.20,8.12
2349.46,8.18
2372.95,8.23
2396.68,8.28
2420.65,8.32
2444.86,8.37
2469.31,8.40
2494.00,8.43
2518.94,8.48
2544.13,8.50
2569.57,8.53
2595.27,8.54
2621.22,8.56
2647.43,8.58
2673.90,8.58
2700.64,8.58
2727.65,8.58
2754.93,8.58
2782.48,8.58
2810.30,8.58
2838.40,8.58
2866.79,8.58
2895.46,8.58
2924.41,8.55
2953.65,8.54
2983.19,8.52
3013.02,8.50
3043.15,8.45
3073.58,8.44
3104.32,8.41
3135.36,8.40
3166.72,8.36
3198.38,8.35
3230.37,8.34
3262.67,8.31
3295.30,8.29
3328.25,8.27
3361.53,8.26
3395.15,8.22
3429.10,8.19
3463.39,8.16
3498.03,8.14
3533.01,8.12
3568.34,8.12
3604.02,8.08
3640.06,8.07
3676.46,8.07
3713.22,8.03
3750.36,8.02
3787.86,8.02
3825.74,7.99
3864.00,7.96
3902.64,7.94
3941.66,7.91
3981.08,7.87
4020.89,7.82
4061.10,7.78
4101.71,7.73
4142.73,7.65
4184.15,7.58
4226.00,7.50
4268.26,7.39
4310.94,7.29
4354.05,7.17
4397.59,7.03
4441.56,6.89
4485.98,6.73
4530.84,6.57
4576.15,6.38
4621.91,6.18
4668.13,5.97
4714.81,5.75
4761.96,5.51
4809.58,5.26
4857.67,5.00
4906.25,4.75
4955.31,4.49
5004.87,4.22
5054.91,3.95
5105.46,3.69
5156.52,3.42
5208.08,3.17
5260.16,2.90
5312.77,2.66
5365.89,2.41
5419.55,2.17
5473.75,1.95
5528.49,1.73
5583.77,1.53
5639.61,1.37
5696.00,1.20
5752.96,1.04
5810.49,0.87
5868.60,0.71
5927.28,0.56
5986.56,0.41
6046.42,0.28
6106.89,0.12
6167.96,-0.01
6229.64,-0.12
6291.93,-0.22
6354.85,-0.30
6418.40,-0.37
6482.58,-0.41
6547.41,-0.45
6612.88,-0.44
6679.01,-0.40
6745.80,-0.35
6813.26,-0.28
6881.39,-0.17
6950.21,-0.03
7019.71,0.13
7089.91,0.32
7160.81,0.54
7232.41,0.81
7304.74,1.10
7377.79,1.42
7451.56,1.77
7526.08,2.14
7601.34,2.48
7677.35,2.83
7754.13,3.13
7831.67,3.37
7909.98,3.53
7989.08,3.49
8068.98,3.28
8149.67,2.94
8231.16,2.47
8313.47,1.83
8396.61,1.06
8480.57,0.21
8565.38,-0.71
8651.03,-1.64
8737.54,-2.58
8824.92,-3.49
8913.17,-4.37
9002.30,-5.21
9092.32,-6.03
9183.25,-6.82
9275.08,-7.50
9367.83,-8.18
9461.51,-8.82
9556.12,-9.42
9651.68,-9.95
9748.20,-10.47
9845.68,-10.94
9944.14,-11.40
10043.58,-11.80
10144.02,-12.18
10245.46,-12.54
10347.91,-12.85
10451.39,-13.14
10555.91,-13.38
10661.46,-13.59
10768.08,-13.72
10875.76,-13.82
10984.52,-13.82
11094.36,-13.72
11205.31,-13.53
11317.36,-13.24
11430.53,-12.81
11544.84,-12.25
11660.29,-11.54
11776.89,-10.72
11894.66,-9.79
12013.60,-8.82
12133.74,-7.82
12255.08,-6.87
12377.63,-5.95
12501.41,-5.13
12626.42,-4.38
12752.68,-3.76
12880.21,-3.22
13009.01,-2.79
13139.10,-2.44
13270.49,-2.16
13403.20,-1.95
13537.23,-1.82
13672.60,-1.78
13809.33,-1.83
13947.42,-1.98
14086.90,-2.21
14227.77,-2.50
14370.04,-2.86
14513.74,-3.27
14658.88,-3.75
14805.47,-4.29
14953.52,-4.85
15103.06,-5.43
15254.09,-5.99
15406.63,-6.52
15560.70,-7.03
15716.30,-7.47
15873.47,-7.84
16032.20,-8.15
16192.52,-8.41
16354.45,-8.58
16517.99,-8.69
16683.17,-8.70
16850.01,-8.62
17018.51,-8.50
17188.69,-8.31
17360.58,-8.08
17534.18,-7.84
17709.53,-7.61
17886.62,-7.37
18065.49,-7.20
18246.14,-7.08
18428.60,-7.19
18612.89,-7.42
18799.02,-7.75
18987.01,-8.22
19176.88,-8.73
19368.65,-9.25
19562.33,-9.70
19757.96,-10.07
19955.54,-10.33
