frequency,raw
20,-9.74
21,-9.38
22,-9.04
23,-8.71
24,-8.39
25,-8.08
26,-7.79
27,-7.51
28,-7.24
29,-6.99
30,-6.75
31,-6.51
32,-6.28
33,-6.07
34,-5.88
35,-5.71
36,-5.56
37,-5.42
38,-5.30
39,-5.20
40,-5.12
41,-5.03
42,-4.94
43,-4.88
44,-4.81
45,-4.74
46,-4.67
47,-4.60
48,-4.53
49,-4.47
50,-4.42
51,-4.35
52,-4.28
53,-4.21
54,-4.14
55,-4.06
56,-3.98
57,-3.93
58,-3.89
59,-3.85
60,-3.80
61,-3.75
62,-3.71
63,-3.67
64,-3.64
65,-3.59
66,-3.55
67,-3.52
68,-3.51
69,-3.49
70,-3.47
71,-3.44
72,-3.41
73,-3.37
74,-3.34
75,-3.31
76,-3.28
77,-3.26
78,-3.24
79,-3.20
80,-3.17
81,-3.14
82,-3.11
83,-3.08
84,-3.07
85,-3.06
86,-3.06
87,-3.06
88,-3.06
89,-3.06
90,-3.04
91,-3.01
92,-2.98
93,-2.95
94,-2.92
95,-2.89
96,-2.86
97,-2.83
98,-2.80
99,-2.77
100,-2.73
101,-2.70
102,-2.67
104,-2.64
105,-2.62
106,-2.59
107,-2.56
108,-2.53
109,-2.50
110,-2.47
111,-2.44
112,-2.42
113,-2.41
114,-2.40
115,-2.41
117,-2.42
118,-2.43
119,-2.43
120,-2.42
121,-2.40
123,-2.38
124,-2.35
125,-2.32
126,-2.28
128,-2.25
129,-2.21
130,-2.18
131,-2.15
133,-2.12
134,-2.10
135,-2.08
137,-2.07
138,-2.07
140,-2.07
141,-2.08
142,-2.09
144,-2.09
145,-2.09
147,-2.09
148,-2.10
150,-2.10
151,-2.11
153,-2.11
154,-2.11
156,-2.09
157,-2.06
159,-2.03
160,-2.00
162,-1.98
164,-1.96
165,-1.95
167,-1.95
169,-1.94
170,-1.95
172,-1.95
174,-1.96
175,-1.98
177,-2.00
179,-2.03
181,-2.05
183,-2.06
184,-2.08
186,-2.09
188,-2.10
190,-2.11
192,-2.12
194,-2.14
196,-2.16
198,-2.19
200,-2.23
202,-2.27
204,-2.31
206,-2.36
208,-2.42
210,-2.48
212,-2.54
214,-2.61
216,-2.68
218,-2.75
221,-2.81
223,-2.88
225,-2.97
227,-3.06
229,-3.15
232,-3.24
234,-3.33
236,-3.40
239,-3.47
241,-3.54
244,-3.59
246,-3.64
248,-3.67
251,-3.70
253,-3.73
256,-3.74
259,-3.76
261,-3.76
264,-3.75
266,-3.72
269,-3.69
272,-3.66
274,-3.63
277,-3.60
280,-3.56
283,-3.53
286,-3.49
288,-3.46
291,-3.43
294,-3.41
297,-3.39
300,-3.37
303,-3.36
306,-3.37
309,-3.37
312,-3.38
316,-3.39
319,-3.39
322,-3.39
325,-3.39
328,-3.39
332,-3.38
335,-3.38
338,-3.37
342,-3.36
345,-3.37
349,-3.38
352,-3.40
356,-3.43
359,-3.46
363,-3.49
366,-3.52
370,-3.56
374,-3.59
377,-3.63
381,-3.66
385,-3.68
389,-3.71
393,-3.72
397,-3.74
401,-3.75
405,-3.75
409,-3.74
413,-3.73
417,-3.71
421,-3.69
425,-3.67
430,-3.64
434,-3.61
438,-3.58
443,-3.55
447,-3.52
451,-3.50
456,-3.47
460,-3.43
465,-3.40
470,-3.36
474,-3.32
479,-3.29
484,-3.27
489,-3.25
494,-3.23
499,-3.20
504,-3.16
509,-3.11
514,-3.06
519,-3.01
524,-2.97
529,-2.92
535,-2.90
540,-2.88
545,-2.86
551,-2.83
556,-2.79
562,-2.75
568,-2.71
573,-2.67
579,-2.64
585,-2.61
591,-2.60
596,-2.57
602,-2.54
608,-2.50
615,-2.45
621,-2.40
627,-2.36
633,-2.32
639,-2.29
646,-2.25
652,-2.22
659,-2.18
665,-2.13
672,-2.07
679,-2.02
686,-1.97
692,-1.93
699,-1.90
706,-1.87
713,-1.85
721,-1.82
728,-1.78
735,-1.74
742,-1.70
750,-1.68
757,-1.65
765,-1.63
773,-1.59
780,-1.55
788,-1.51
796,-1.47
804,-1.41
812,-1.35
820,-1.29
828,-1.24
837,-1.19
845,-1.13
853,-1.07
862,-1.00
871,-0.94
879,-0.88
888,-0.81
897,-0.74
906,-0.68
915,-0.62
924,-0.56
933,-0.48
943,-0.41
952,-0.34
962,-0.29
971,-0.22
981,-0.14
991,-0.06
1001,0.01
1011,0.06
1021,0.13
1031,0.21
1041,0.28
1052,0.35
1062,0.41
1073,0.46
1084,0.53
1094,0.59
1105,0.65
1116,0.71
1128,0.78
1139,0.83
1150,0.88
1162,0.93
1173,0.99
1185,1.05
1197,1.11
1209,1.15
1221,1.19
1233,1.23
1246,1.29
1258,1.35
1271,1.40
1283,1.45
1296,1.49
1309,1.53
1322,1.58
1335,1.64
1349,1.70
1362,1.76
1376,1.80
1390,1.85
1404,1.91
1418,1.95
1432,1.99
1446,2.02
1461,2.05
1475,2.07
1490,2.11
1505,2.15
1520,2.18
1535,2.21
1550,2.24
1566,2.26
1582,2.29
1597,2.34
1613,2.39
1629,2.44
1646,2.50
1662,2.55
1679,2.60
1696,2.64
1713,2.68
1730,2.71
1747,2.74
1764,2.77
1782,2.79
1800,2.80
1818,2.80
1836,2.79
1854,2.77
1873,2.74
1892,2.70
1911,2.67
1930,2.62
1949,2.56
1969,2.51
1988,2.44
2008,2.35
2028,2.25
2048,2.15
2069,2.05
2090,1.93
2111,1.80
2132,1.67
2153,1.54
2175,1.39
2196,1.24
2218,1.08
2240,0.93
2263,0.78
2285,0.61
2308,0.45
2331,0.30
2355,0.15
2378,0.00
2402,-0.15
2426,-0.30
2450,-0.45
2475,-0.60
2500,-0.75
2525,-0.90
2550,-1.04
2575,-1.19
2601,-1.33
2627,-1.48
2653,-1.62
2680,-1.77
2707,-1.92
2734,-2.08
2761,-2.23
2789,-2.38
2817,-2.52
2845,-2.68
2873,-2.82
2902,-2.98
2931,-3.12
2960,-3.27
2990,-3.42
3020,-3.58
3050,-3.72
3080,-3.87
3111,-4.02
3142,-4.17
3174,-4.34
3206,-4.49
3238,-4.63
3270,-4.76
3303,-4.92
3336,-5.06
3369,-5.20
3403,-5.33
3437,-5.47
3471,-5.60
3506,-5.73
3541,-5.86
3576,-6.01
3612,-6.16
3648,-6.31
3685,-6.47
3721,-6.64
3759,-6.83
3796,-7.04
3834,-7.24
3873,-7.47
3911,-7.70
3950,-7.95
3990,-8.21
4030,-8.51
4070,-8.81
4111,-9.13
4152,-9.47
4193,-9.83
4235,-10.22
4278,-10.62
4321,-11.03
4364,-11.42
4407,-11.78
4451,-12.10
4496,-12.35
4541,-12.50
4586,-12.55
4632,-12.48
4679,-12.28
4725,-11.95
4773,-11.51
4820,-10.95
4868,-10.32
4917,-9.61
4966,-8.84
5016,-8.04
5066,-7.25
5117,-6.47
5168,-5.73
5220,-5.04
5272,-4.39
5325,-3.81
5378,-3.31
5432,-2.85
5486,-2.44
5541,-2.07
5596,-1.75
5652,-1.49
5709,-1.27
5766,-1.09
5823,-0.97
5882,-0.90
5940,-0.88
6000,-0.89
6060,-0.94
6120,-1.03
6182,-1.18
6244,-1.36
6306,-1.59
6369,-1.85
6433,-2.13
6497,-2.47
6562,-2.84
6628,-3.25
6694,-3.70
6761,-4.20
6828,-4.72
6897,-5.25
6966,-5.78
7035,-6.30
7106,-6.78
7177,-7.21
7249,-7.60
7321,-7.93
7394,-8.19
7468,-8.40
7543,-8.56
7618,-8.65
7694,-8.68
7771,-8.67
7849,-8.62
7928,-8.59
8007,-8.57
8087,-8.57
8168,-8.60
8250,-8.66
8332,-8.75
8415,-8.88
8499,-9.04
8584,-9.24
8670,-9.49
8757,-9.78
8845,-10.12
8933,-10.48
9022,-10.87
9113,-11.28
9204,-11.68
9296,-12.07
9389,-12.45
9483,-12.82
9577,-13.16
9673,-13.46
9770,-13.72
9868,-13.93
9966,-14.10
10066,-14.23
10167,-14.33
10268,-14.41
10371,-14.46
10475,-14.49
10579,-14.51
10685,-14.50
10792,-14.46
10900,-14.41
11009,-14.35
11119,-14.26
11230,-14.14
11343,-14.01
11456,-13.87
11571,-13.70
11686,-13.53
11803,-13.34
11921,-13.13
12040,-12.91
12161,-12.68
12282,-12.42
12405,-12.17
12529,-11.91
12655,-11.66
12781,-11.41
12909,-11.17
13038,-10.95
13168,-10.73
13300,-10.55
13433,-10.40
13567,-10.28
13703,-10.19
13840,-10.14
13978,-10.13
14118,-10.16
14259,-10.22
14402,-10.30
14546,-10.39
14692,-10.49
14838,-10.59
14987,-10.72
15137,-10.87
15288,-11.06
15441,-11.29
15595,-11.55
15751,-11.86
15909,-12.20
16068,-12.57
16229,-12.97
16391,-13.37
16555,-13.76
16720,-14.16
16888,-14.55
17056,-14.92
17227,-15.25
17399,-15.55
17573,-15.81
17749,-16.05
17926,-16.27
18106,-16.48
18287,-16.74
18470,-17.00
18654,-17.26
18841,-17.52
19029,-17.78
19220,-18.04
19412,-18.29
19606,-18.54
19802,-18.79
20000,-19.04
