frequency,raw
20.00,-9.74
20.20,-9.67
20.40,-9.59
20.61,-9.52
20.81,-9.45
21.02,-9.37
21.23,-9.30
21.44,-9.23
21.66,-9.15
21.87,-9.08
22.09,-9.01
22.31,-8.94
22.54,-8.86
22.76,-8.79
22.99,-8.71
23.22,-8.64
23.45,-8.56
23.69,-8.49
23.92,-8.41
24.16,-8.34
24.40,-8.26
24.65,-8.19
24.89,-8.11
25.14,-8.04
25.39,-7.96
25.65,-7.89
25.91,-7.82
26.16,-7.74
26.43,-7.67
26.69,-7.60
26.96,-7.52
27.23,-7.45
27.50,-7.37
27.77,-7.30
28.05,-7.23
28.33,-7.16
28.62,-7.09
28.90,-7.01
29.19,-6.94
29.48,-6.87
29.78,-6.80
30.08,-6.73
30.38,-6.66
30.68,-6.59
30.99,-6.51
31.30,-6.44
31.61,-6.37
31.93,-6.30
32.24,-6.23
32.57,-6.16
32.89,-6.09
33.22,-6.03
33.55,-5.96
33.89,-5.90
34.23,-5.84
34.57,-5.78
34.92,-5.72
35.27,-5.67
35.62,-5.62
35.97,-5.56
36.33,-5.51
36.70,-5.46
37.06,-5.41
37.43,-5.37
37.81,-5.32
38.19,-5.28
38.57,-5.24
38.95,-5.20
39.34,-5.17
39.74,-5.14
40.14,-5.11
40.54,-5.07
40.94,-5.04
41.35,-5.00
41.76,-4.96
42.18,-4.93
42.60,-4.90
43.03,-4.88
43.46,-4.85
43.90,-4.82
44.33,-4.79
44.78,-4.76
45.23,-4.72
45.68,-4.69
46.13,-4.66
46.60,-4.63
47.06,-4.60
47.53,-4.56
48.01,-4.53
48.49,-4.50
48.97,-4.47
49.46,-4.45
49.96,-4.42
50.46,-4.39
50.96,-4.35
51.47,-4.32
51.99,-4.28
52.51,-4.24
53.03,-4.21
53.56,-4.17
54.10,-4.13
54.64,-4.09
55.18,-4.05
55.74,-4.00
56.29,-3.97
56.86,-3.94
57.42,-3.91
58.00,-3.89
58.58,-3.87
59.16,-3.84
59.76,-3.81
60.35,-3.78
60.96,-3.75
61.57,-3.73
62.18,-3.70
62.80,-3.68
63.43,-3.66
64.07,-3.64
64.71,-3.60
65.35,-3.58
66.01,-3.55
66.67,-3.53
67.33,-3.52
68.01,-3.51
68.69,-3.50
69.37,-3.48
70.07,-3.47
70.77,-3.45
71.48,-3.43
72.19,-3.40
72.91,-3.37
73.64,-3.35
74.38,-3.33
75.12,-3.31
75.87,-3.28
76.63,-3.27
77.40,-3.25
78.17,-3.23
78.95,-3.20
79.74,-3.18
80.54,-3.15
81.35,-3.13
82.16,-3.11
82.98,-3.08
83.81,-3.07
84.65,-3.06
85.50,-3.06
86.35,-3.06
87.22,-3.06
88.09,-3.06
88.97,-3.06
89.86,-3.04
90.76,-3.02
91.66,-2.99
92.58,-2.96
93.51,-2.93
94.44,-2.91
95.39,-2.88
96.34,-2.85
97.30,-2.82
98.28,-2.79
99.26,-2.76
100.25,-2.72
101.25,-2.69
102.27,-2.67
103.29,-2.65
104.32,-2.63
105.37,-2.61
106.42,-2.58
107.48,-2.55
108.56,-2.51
109.64,-2.48
110.74,-2.45
111.85,-2.42
112.97,-2.41
114.10,-2.40
115.24,-2.41
116.39,-2.42
117.55,-2.43
118.73,-2.43
119.92,-2.42
121.12,-2.40
122.33,-2.39
123.55,-2.36
124.79,-2.33
126.03,-2.28
127.29,-2.26
128.57,-2.23
129.85,-2.18
131.15,-2.15
132.46,-2.13
133.79,-2.10
135.12,-2.08
136.48,-2.07
137.84,-2.07
139.22,-2.07
140.61,-2.08
142.02,-2.09
143.44,-2.09
144.87,-2.09
146.32,-2.09
147.78,-2.10
149.26,-2.10
150.75,-2.11
152.26,-2.11
153.78,-2.11
155.32,-2.10
156.88,-2.06
158.44,-2.04
160.03,-2.00
161.63,-1.98
163.24,-1.97
164.88,-1.95
166.53,-1.95
168.19,-1.94
169.87,-1.95
171.57,-1.95
173.29,-1.96
175.02,-1.98
176.77,-2.00
178.54,-2.02
180.32,-2.04
182.13,-2.06
183.95,-2.08
185.79,-2.09
187.65,-2.10
189.52,-2.11
191.42,-2.12
193.33,-2.13
195.27,-2.15
197.22,-2.18
199.19,-2.21
201.18,-2.25
203.19,-2.29
205.23,-2.34
207.28,-2.40
209.35,-2.46
211.44,-2.52
213.56,-2.59
215.69,-2.67
217.85,-2.74
220.03,-2.79
222.23,-2.85
224.45,-2.95
226.70,-3.05
228.96,-3.15
231.25,-3.22
233.57,-3.31
235.90,-3.40
238.26,-3.45
240.64,-3.53
243.05,-3.57
245.48,-3.63
247.93,-3.67
250.41,-3.69
252.92,-3.73
255.45,-3.74
258.00,-3.75
260.58,-3.76
263.19,-3.75
265.82,-3.72
268.48,-3.70
271.16,-3.67
273.87,-3.63
276.61,-3.60
279.38,-3.57
282.17,-3.54
284.99,-3.50
287.84,-3.46
290.72,-3.43
293.63,-3.41
296.57,-3.39
299.53,-3.37
302.53,-3.36
305.55,-3.37
308.61,-3.37
311.69,-3.38
314.81,-3.39
317.96,-3.39
321.14,-3.39
324.35,-3.39
327.59,-3.39
330.87,-3.38
334.18,-3.38
337.52,-3.37
340.90,-3.36
344.30,-3.37
347.75,-3.38
351.23,-3.39
354.74,-3.42
358.28,-3.45
361.87,-3.48
365.49,-3.51
369.14,-3.55
372.83,-3.58
376.56,-3.62
380.33,-3.65
384.13,-3.68
387.97,-3.70
391.85,-3.72
395.77,-3.73
399.73,-3.75
403.72,-3.75
407.76,-3.74
411.84,-3.73
415.96,-3.72
420.12,-3.69
424.32,-3.67
428.56,-3.65
432.85,-3.62
437.18,-3.59
441.55,-3.56
445.96,-3.53
450.42,-3.50
454.93,-3.48
459.48,-3.44
464.07,-3.41
468.71,-3.37
473.40,-3.33
478.13,-3.30
482.91,-3.27
487.74,-3.26
492.62,-3.24
497.55,-3.21
502.52,-3.17
507.55,-3.12
512.62,-3.07
517.75,-3.02
522.93,-2.98
528.16,-2.93
533.44,-2.91
538.77,-2.88
544.16,-2.86
549.60,-2.84
555.10,-2.80
560.65,-2.76
566.25,-2.72
571.92,-2.68
577.64,-2.65
583.41,-2.62
589.25,-2.60
595.14,-2.58
601.09,-2.54
607.10,-2.51
613.17,-2.46
619.30,-2.41
625.50,-2.37
631.75,-2.33
638.07,-2.29
644.45,-2.26
650.89,-2.23
657.40,-2.19
663.98,-2.14
670.62,-2.08
677.32,-2.03
684.10,-1.98
690.94,-1.94
697.85,-1.90
704.83,-1.88
711.87,-1.85
718.99,-1.83
726.18,-1.79
733.44,-1.75
740.78,-1.71
748.19,-1.68
755.67,-1.66
763.23,-1.63
770.86,-1.60
778.57,-1.56
786.35,-1.52
794.22,-1.48
802.16,-1.42
810.18,-1.36
818.28,-1.30
826.46,-1.25
834.73,-1.20
843.08,-1.14
851.51,-1.08
860.02,-1.02
868.62,-0.96
877.31,-0.89
886.08,-0.82
894.94,-0.76
903.89,-0.69
912.93,-0.63
922.06,-0.57
931.28,-0.50
940.59,-0.43
950.00,-0.36
959.50,-0.30
969.09,-0.23
978.78,-0.16
988.57,-0.08
998.46,-0.01
1008.44,0.05
1018.53,0.11
1028.71,0.19
1039.00,0.27
1049.39,0.33
1059.88,0.40
1070.48,0.45
1081.19,0.51
1092.00,0.58
1102.92,0.64
1113.95,0.70
1125.09,0.76
1136.34,0.82
1147.70,0.87
1159.18,0.92
1170.77,0.98
1182.48,1.04
1194.30,1.10
1206.25,1.14
1218.31,1.18
1230.49,1.22
1242.80,1.28
1255.22,1.34
1267.78,1.39
1280.45,1.44
1293.26,1.48
1306.19,1.52
1319.25,1.57
1332.45,1.63
1345.77,1.69
1359.23,1.75
1372.82,1.79
1386.55,1.84
1400.41,1.89
1414.42,1.94
1428.56,1.98
1442.85,2.01
1457.28,2.04
1471.85,2.07
1486.57,2.10
1501.43,2.14
1516.45,2.17
1531.61,2.20
1546.93,2.23
1562.40,2.26
1578.02,2.28
1593.80,2.33
1609.74,2.38
1625.84,2.43
1642.10,2.49
1658.52,2.54
1675.10,2.59
1691.85,2.63
1708.77,2.67
1725.86,2.70
1743.12,2.73
1760.55,2.76
1778.15,2.79
1795.94,2.80
1813.90,2.80
1832.03,2.79
1850.36,2.77
1868.86,2.75
1887.55,2.71
1906.42,2.68
1925.49,2.63
1944.74,2.57
1964.19,2.52
1983.83,2.46
2003.67,2.37
2023.71,2.27
2043.94,2.17
2064.38,2.07
2085.03,1.96
2105.88,1.83
2126.94,1.70
2148.20,1.57
2169.69,1.43
2191.38,1.27
2213.30,1.11
2235.43,0.96
2257.78,0.81
2280.36,0.65
2303.17,0.48
2326.20,0.33
2349.46,0.18
2372.95,0.03
2396.68,-0.12
2420.65,-0.27
2444.86,-0.42
2469.31,-0.57
2494.00,-0.71
2518.94,-0.86
2544.13,-1.01
2569.57,-1.16
2595.27,-1.30
2621.22,-1.45
2647.43,-1.59
2673.90,-1.74
2700.64,-1.88
2727.65,-2.04
2754.93,-2.20
2782.48,-2.35
2810.30,-2.49
2838.40,-2.64
2866.79,-2.79
2895.46,-2.94
2924.41,-3.09
2953.65,-3.24
2983.19,-3.39
3013.02,-3.54
3043.15,-3.69
3073.58,-3.84
3104.32,-3.99
3135.36,-4.14
3166.72,-4.30
3198.38,-4.45
3230.37,-4.60
3262.67,-4.73
3295.30,-4.88
3328.25,-5.03
3361.53,-5.17
3395.15,-5.30
3429.10,-5.44
3463.39,-5.57
3498.03,-5.70
3533.01,-5.83
3568.34,-5.98
3604.02,-6.13
3640.06,-6.28
3676.46,-6.43
3713.22,-6.60
3750.36,-6.79
3787.86,-6.99
3825.74,-7.20
3864.00,-7.42
3902.64,-7.65
3941.66,-7.90
3981.08,-8.15
4020.89,-8.44
4061.10,-8.74
4101.71,-9.06
4142.73,-9.39
4184.15,-9.75
4226.00,-10.14
4268.26,-10.53
4310.94,-10.93
4354.05,-11.33
4397.59,-11.70
4441.56,-12.03
4485.98,-12.29
4530.84,-12.47
4576.15,-12.54
4621.91,-12.50
4668.13,-12.33
4714.81,-12.02
4761.96,-11.61
4809.58,-11.07
4857.67,-10.46
4906.25,-9.77
4955.31,-9.01
5004.87,-8.22
5054.91,-7.42
5105.46,-6.65
5156.52,-5.90
5208.08,-5.20
5260.16,-4.54
5312.77,-3.94
5365.89,-3.42
5419.55,-2.96
5473.75,-2.53
5528.49,-2.15
5583.77,-1.82
5639.61,-1.55
5696.00,-1.32
5752.96,-1.13
5810.49,-1.00
5868.60,-0.92
5927.28,-0.88
5986.56,-0.89
6046.42,-0.93
6106.89,-1.01
6167.96,-1.15
6229.64,-1.32
6291.93,-1.54
6354.85,-1.79
6418.40,-2.07
6482.58,-2.39
6547.41,-2.76
6612.88,-3.16
6679.01,-3.60
6745.80,-4.09
6813.26,-4.61
6881.39,-5.13
6950.21,-5.66
7019.71,-6.19
7089.91,-6.67
7160.81,-7.11
7232.41,-7.51
7304.74,-7.86
7377.79,-8.13
7451.56,-8.35
7526.08,-8.52
7601.34,-8.63
7677.35,-8.67
7754.13,-8.67
7831.67,-8.63
7909.98,-8.60
7989.08,-8.57
8068.98,-8.57
8149.67,-8.59
8231.16,-8.65
8313.47,-8.73
8396.61,-8.85
8480.57,-9.01
8565.38,-9.20
8651.03,-9.44
8737.54,-9.72
8824.92,-10.04
8913.17,-10.40
9002.30,-10.78
9092.32,-11.19
9183.25,-11.59
9275.08,-11.98
9367.83,-12.36
9461.51,-12.74
9556.12,-13.08
9651.68,-13.39
9748.20,-13.66
9845.68,-13.88
9944.14,-14.06
10043.58,-14.20
10144.02,-14.31
10245.46,-14.39
10347.91,-14.45
10451.39,-14.48
10555.91,-14.51
10661.46,-14.50
10768.08,-14.47
10875.76,-14.42
10984.52,-14.36
11094.36,-14.28
11205.31,-14.17
11317.36,-14.04
11430.53,-13.90
11544.84,-13.74
11660.29,-13.57
11776.89,-13.38
11894.66,-13.18
12013.60,-12.96
12133.74,-12.73
12255.08,-12.48
12377.63,-12.23
12501.41,-11.97
12626.42,-11.72
12752.68,-11.47
12880.21,-11.22
13009.01,-11.00
13139.10,-10.78
13270.49,-10.59
13403.20,-10.43
13537.23,-10.31
13672.60,-10.21
13809.33,-10.15
13947.42,-10.13
14086.90,-10.15
14227.77,-10.21
14370.04,-10.28
14513.74,-10.37
14658.88,-10.47
14805.47,-10.57
14953.52,-10.69
15103.06,-10.84
15254.09,-11.02
15406.63,-11.24
15560.70,-11.49
15716.30,-11.79
15873.47,-12.12
16032.20,-12.49
16192.52,-12.88
16354.45,-13.28
16517.99,-13.67
16683.17,-14.07
16850.01,-14.46
17018.51,-14.84
17188.69,-15.18
17360.58,-15.48
17534.18,-15.75
17709.53,-16.00
17886.62,-16.22
18065.49,-16.43
18246.14,-16.68
18428.60,-16.94
18612.89,-17.20
18799.02,-17.46
18987.01,-17.72
19176.88,-17.98
19368.65,-18.23
19562.33,-18.48
19757.96,-18.73
19955.54,-18.98
