frequency,raw,smoothed,error,error_smoothed,equalization,parametric_eq,fixed_band_eq,equalized_raw,equalized_smoothed,target
20.00,9.63,9.63,-0.78,-0.78,0.79,-0.26,-0.27,10.42,10.42,10.41
20.20,9.67,9.67,-0.74,-0.74,0.74,-0.27,-0.28,10.41,10.41,10.41
20.40,9.72,9.72,-0.69,-0.69,0.69,-0.28,-0.29,10.41,10.41,10.41
20.61,9.76,9.76,-0.65,-0.64,0.64,-0.29,-0.30,10.40,10.40,10.41
20.81,9.81,9.81,-0.60,-0.60,0.59,-0.30,-0.30,10.40,10.40,10.41
21.02,9.86,9.86,-0.55,-0.55,0.54,-0.31,-0.31,10.40,10.40,10.41
21.23,9.91,9.91,-0.49,-0.49,0.49,-0.32,-0.32,10.40,10.40,10.41
21.44,9.96,9.96,-0.44,-0.44,0.44,-0.33,-0.33,10.40,10.40,10.40
21.66,10.02,10.02,-0.38,-0.39,0.39,-0.34,-0.33,10.41,10.41,10.40
21.87,10.07,10.07,-0.33,-0.33,0.34,-0.35,-0.34,10.41,10.41,10.40
22.09,10.12,10.12,-0.28,-0.28,0.29,-0.36,-0.35,10.41,10.41,10.40
22.31,10.17,10.17,-0.23,-0.23,0.24,-0.37,-0.36,10.41,10.40,10.40
22.54,10.21,10.21,-0.19,-0.19,0.18,-0.38,-0.37,10.39,10.40,10.40
22.76,10.26,10.26,-0.14,-0.14,0.13,-0.39,-0.38,10.39,10.39,10.40
22.99,10.31,10.31,-0.09,-0.09,0.08,-0.41,-0.39,10.39,10.39,10.40
23.22,10.36,10.36,-0.04,-0.03,0.03,-0.42,-0.40,10.39,10.39,10.40
23.45,10.42,10.42,0.02,0.02,-0.02,-0.43,-0.41,10.40,10.39,10.40
23.69,10.47,10.47,0.07,0.08,-0.08,-0.44,-0.42,10.39,10.39,10.40
23.92,10.52,10.52,0.13,0.13,-0.13,-0.46,-0.43,10.39,10.39,10.39
24.16,10.57,10.57,0.18,0.18,-0.18,-0.47,-0.44,10.39,10.39,10.39
24.40,10.62,10.62,0.23,0.23,-0.22,-0.48,-0.45,10.40,10.40,10.39
24.65,10.66,10.67,0.27,0.28,-0.26,-0.50,-0.46,10.40,10.41,10.39
24.89,10.71,10.70,0.32,0.31,-0.29,-0.51,-0.47,10.42,10.41,10.39
25.14,10.73,10.73,0.34,0.34,-0.32,-0.53,-0.48,10.41,10.41,10.39
25.39,10.74,10.74,0.35,0.35,-0.35,-0.54,-0.50,10.39,10.39,10.39
25.65,10.75,10.75,0.37,0.36,-0.39,-0.56,-0.51,10.36,10.36,10.38
25.91,10.76,10.77,0.38,0.39,-0.42,-0.57,-0.52,10.34,10.35,10.38
26.16,10.80,10.81,0.42,0.42,-0.45,-0.59,-0.53,10.35,10.35,10.38
26.43,10.86,10.86,0.48,0.48,-0.48,-0.60,-0.54,10.37,10.38,10.38
26.69,10.92,10.92,0.54,0.54,-0.51,-0.62,-0.56,10.41,10.41,10.38
26.96,10.98,10.97,0.60,0.59,-0.55,-0.64,-0.57,10.43,10.42,10.38
27.23,10.99,10.99,0.62,0.61,-0.58,-0.65,-0.58,10.41,10.41,10.37
27.50,10.99,10.99,0.62,0.62,-0.62,-0.67,-0.60,10.37,10.37,10.37
27.77,10.99,10.99,0.62,0.62,-0.66,-0.69,-0.61,10.33,10.33,10.37
28.05,11.00,11.02,0.63,0.65,-0.69,-0.71,-0.62,10.31,10.32,10.37
28.33,11.07,11.07,0.70,0.70,-0.72,-0.73,-0.64,10.35,10.35,10.37
28.62,11.13,11.13,0.77,0.77,-0.75,-0.75,-0.65,10.38,10.38,10.36
28.90,11.20,11.19,0.84,0.83,-0.78,-0.76,-0.66,10.42,10.41,10.36
29.19,11.22,11.21,0.86,0.85,-0.82,-0.78,-0.68,10.40,10.40,10.36
29.48,11.22,11.22,0.86,0.86,-0.86,-0.81,-0.69,10.36,10.36,10.36
29.78,11.22,11.23,0.87,0.87,-0.91,-0.83,-0.70,10.31,10.32,10.36
30.08,11.24,11.25,0.89,0.90,-0.95,-0.85,-0.72,10.29,10.30,10.35
30.38,11.31,11.31,0.96,0.96,-0.99,-0.87,-0.73,10.32,10.33,10.35
30.68,11.38,11.38,1.03,1.03,-1.02,-0.89,-0.74,10.36,10.36,10.35
30.99,11.45,11.43,1.11,1.09,-1.04,-0.91,-0.76,10.41,10.39,10.34
31.30,11.45,11.45,1.11,1.11,-1.07,-0.94,-0.77,10.38,10.39,10.34
31.61,11.45,11.46,1.11,1.12,-1.09,-0.96,-0.78,10.36,10.37,10.34
31.93,11.45,11.45,1.12,1.12,-1.11,-0.98,-0.80,10.34,10.34,10.33
32.24,11.45,11.45,1.12,1.11,-1.14,-1.01,-0.81,10.31,10.31,10.33
32.57,11.45,11.45,1.12,1.12,-1.16,-1.03,-0.82,10.29,10.29,10.33
32.89,11.45,11.46,1.13,1.14,-1.19,-1.06,-0.84,10.26,10.28,10.32
33.22,11.50,11.51,1.18,1.19,-1.22,-1.08,-0.85,10.28,10.29,10.32
33.55,11.58,11.58,1.27,1.26,-1.25,-1.11,-0.87,10.33,10.32,10.32
33.89,11.65,11.64,1.34,1.33,-1.29,-1.14,-0.88,10.36,10.35,10.31
34.23,11.68,11.67,1.37,1.37,-1.33,-1.16,-0.89,10.35,10.35,10.31
34.57,11.68,11.69,1.38,1.38,-1.35,-1.19,-0.91,10.33,10.33,10.30
34.92,11.68,11.68,1.38,1.38,-1.37,-1.22,-0.92,10.31,10.31,10.30
35.27,11.68,11.68,1.39,1.39,-1.39,-1.25,-0.94,10.29,10.29,10.29
35.62,11.68,11.68,1.39,1.39,-1.40,-1.27,-0.96,10.28,10.28,10.29
35.97,11.68,11.68,1.40,1.40,-1.41,-1.30,-0.97,10.27,10.27,10.28
36.33,11.69,11.69,1.41,1.41,-1.43,-1.33,-0.99,10.26,10.25,10.28
36.70,11.70,11.70,1.43,1.43,-1.46,-1.35,-1.01,10.24,10.24,10.27
37.06,11.72,11.74,1.45,1.47,-1.49,-1.38,-1.02,10.23,10.24,10.27
37.43,11.79,11.79,1.53,1.53,-1.53,-1.41,-1.04,10.26,10.26,10.26
37.81,11.86,11.85,1.60,1.59,-1.57,-1.43,-1.06,10.29,10.28,10.26
38.19,11.90,11.89,1.65,1.64,-1.60,-1.46,-1.08,10.30,10.29,10.25
38.57,11.90,11.91,1.66,1.66,-1.64,-1.49,-1.10,10.26,10.27,10.24
38.95,11.90,11.90,1.66,1.67,-1.66,-1.51,-1.13,10.24,10.24,10.24
39.34,11.90,11.90,1.67,1.67,-1.68,-1.54,-1.15,10.22,10.22,10.23
39.74,11.90,11.90,1.68,1.68,-1.69,-1.56,-1.17,10.21,10.21,10.22
40.14,11.90,11.90,1.69,1.69,-1.69,-1.58,-1.19,10.21,10.21,10.21
40.54,11.90,11.90,1.69,1.69,-1.69,-1.61,-1.22,10.21,10.21,10.21
40.94,11.90,11.90,1.70,1.70,-1.69,-1.63,-1.24,10.21,10.21,10.20
41.35,11.90,11.90,1.71,1.71,-1.70,-1.65,-1.27,10.20,10.20,10.19
41.76,11.90,11.90,1.72,1.72,-1.72,-1.67,-1.30,10.18,10.18,10.18
42.18,11.90,11.89,1.73,1.72,-1.75,-1.70,-1.33,10.15,10.14,10.17
42.60,11.90,11.90,1.74,1.74,-1.78,-1.72,-1.36,10.12,10.11,10.16
43.03,11.91,11.94,1.76,1.79,-1.83,-1.74,-1.39,10.08,10.12,10.15
43.46,12.01,12.01,1.87,1.87,-1.87,-1.76,-1.42,10.14,10.14,10.14
43.90,12.11,12.08,1.98,1.95,-1.91,-1.78,-1.45,10.19,10.17,10.13
44.33,12.13,12.13,2.01,2.01,-1.96,-1.80,-1.49,10.17,10.17,10.12
44.78,12.13,12.14,2.02,2.03,-2.00,-1.82,-1.52,10.13,10.14,10.11
45.23,12.13,12.13,2.03,2.03,-2.03,-1.85,-1.56,10.10,10.10,10.10
45.68,12.13,12.13,2.04,2.04,-2.05,-1.87,-1.60,10.08,10.08,10.09
46.13,12.13,12.13,2.06,2.06,-2.07,-1.89,-1.63,10.06,10.06,10.07
46.60,12.13,12.13,2.07,2.07,-2.08,-1.91,-1.67,10.05,10.05,10.06
47.06,12.13,12.13,2.08,2.08,-2.09,-1.94,-1.71,10.04,10.04,10.05
47.53,12.13,12.13,2.10,2.10,-2.10,-1.96,-1.76,10.03,10.03,10.03
48.01,12.13,12.13,2.11,2.11,-2.11,-1.98,-1.80,10.02,10.02,10.02
48.49,12.13,12.13,2.13,2.13,-2.13,-2.01,-1.84,10.01,10.01,10.01
48.97,12.13,12.13,2.14,2.14,-2.14,-2.03,-1.89,9.99,9.99,9.99
49.46,12.13,12.13,2.16,2.16,-2.16,-2.06,-1.93,9.97,9.97,9.97
49.96,12.13,12.13,2.17,2.17,-2.17,-2.08,-1.98,9.96,9.96,9.96
50.46,12.13,12.13,2.19,2.19,-2.19,-2.11,-2.02,9.94,9.94,9.94
50.96,12.13,12.13,2.21,2.21,-2.21,-2.14,-2.07,9.92,9.92,9.92
51.47,12.13,12.13,2.23,2.23,-2.23,-2.16,-2.12,9.91,9.91,9.91
51.99,12.13,12.13,2.24,2.24,-2.24,-2.19,-2.16,9.89,9.89,9.89
52.51,12.13,12.13,2.26,2.26,-2.26,-2.22,-2.21,9.87,9.87,9.87
53.03,12.13,12.13,2.28,2.28,-2.28,-2.25,-2.26,9.85,9.85,9.85
53.56,12.13,12.13,2.30,2.30,-2.30,-2.28,-2.31,9.83,9.83,9.83
54.10,12.13,12.13,2.33,2.33,-2.33,-2.31,-2.35,9.81,9.81,9.81
54.64,12.13,12.13,2.35,2.35,-2.35,-2.34,-2.40,9.78,9.78,9.78
55.18,12.13,12.13,2.37,2.37,-2.37,-2.37,-2.45,9.76,9.76,9.76
55.74,12.13,12.13,2.39,2.39,-2.39,-2.40,-2.49,9.74,9.74,9.74
56.29,12.13,12.13,2.42,2.42,-2.42,-2.43,-2.54,9.71,9.71,9.71
56.86,12.13,12.13,2.44,2.44,-2.44,-2.47,-2.58,9.69,9.69,9.69
57.42,12.13,12.13,2.47,2.47,-2.47,-2.50,-2.62,9.66,9.66,9.66
58.00,12.13,12.13,2.49,2.49,-2.49,-2.53,-2.66,9.64,9.64,9.64
58.58,12.13,12.13,2.52,2.52,-2.52,-2.57,-2.70,9.61,9.61,9.61
59.16,12.13,12.13,2.55,2.55,-2.55,-2.60,-2.74,9.58,9.58,9.58
59.76,12.13,12.13,2.58,2.58,-2.58,-2.63,-2.77,9.55,9.55,9.55
60.35,12.13,12.13,2.61,2.61,-2.61,-2.67,-2.81,9.52,9.52,9.52
60.96,12.13,12.13,2.64,2.64,-2.64,-2.70,-2.84,9.49,9.49,9.49
61.57,12.13,12.13,2.67,2.67,-2.67,-2.74,-2.87,9.46,9.46,9.46
62.18,12.13,12.13,2.70,2.70,-2.71,-2.78,-2.90,9.43,9.43,9.43
62.80,12.13,12.13,2.74,2.74,-2.74,-2.81,-2.92,9.39,9.39,9.39
63.43,12.13,12.13,2.77,2.77,-2.78,-2.85,-2.94,9.35,9.35,9.36
64.07,12.13,12.13,2.81,2.81,-2.82,-2.88,-2.96,9.31,9.31,9.33
64.71,12.13,12.13,2.84,2.84,-2.85,-2.92,-2.98,9.29,9.29,9.29
65.35,12.13,12.14,2.88,2.89,-2.86,-2.96,-3.00,9.27,9.28,9.25
66.01,12.13,12.14,2.92,2.93,-2.87,-3.00,-3.01,9.26,9.27,9.21
66.67,12.13,12.10,2.96,2.92,-2.88,-3.03,-3.03,9.25,9.22,9.18
67.33,12.05,12.03,2.91,2.89,-2.89,-3.07,-3.04,9.16,9.14,9.14
68.01,11.90,11.95,2.81,2.86,-2.89,-3.11,-3.05,9.01,9.06,9.09
68.69,11.90,11.90,2.85,2.85,-2.90,-3.15,-3.06,9.00,9.00,9.05
69.37,11.90,11.89,2.89,2.88,-2.92,-3.19,-3.07,8.98,8.97,9.01
70.07,11.90,11.90,2.94,2.94,-2.94,-3.23,-3.08,8.96,8.96,8.97
70.77,11.90,11.90,2.98,2.98,-2.97,-3.27,-3.09,8.93,8.93,8.92
71.48,11.90,11.90,3.03,3.03,-3.01,-3.31,-3.09,8.89,8.89,8.87
72.19,11.90,11.90,3.07,3.07,-3.07,-3.35,-3.10,8.83,8.83,8.83
72.91,11.90,11.90,3.12,3.12,-3.13,-3.39,-3.11,8.77,8.77,8.78
73.64,11.90,11.90,3.17,3.17,-3.18,-3.43,-3.12,8.72,8.72,8.73
74.38,11.90,11.90,3.22,3.22,-3.23,-3.47,-3.13,8.67,8.67,8.68
75.12,11.90,11.90,3.27,3.28,-3.27,-3.51,-3.14,8.63,8.63,8.63
75.87,11.90,11.91,3.33,3.33,-3.31,-3.55,-3.15,8.59,8.60,8.58
76.63,11.90,11.90,3.38,3.38,-3.33,-3.59,-3.16,8.57,8.57,8.52
77.40,11.88,11.86,3.41,3.39,-3.36,-3.63,-3.18,8.52,8.50,8.47
78.17,11.81,11.79,3.40,3.38,-3.38,-3.67,-3.19,8.43,8.41,8.41
78.95,11.69,11.73,3.33,3.37,-3.40,-3.71,-3.21,8.29,8.33,8.36
79.74,11.68,11.68,3.38,3.38,-3.43,-3.75,-3.23,8.25,8.25,8.30
80.54,11.68,11.67,3.44,3.43,-3.46,-3.79,-3.25,8.22,8.21,8.24
81.35,11.68,11.68,3.50,3.50,-3.51,-3.83,-3.28,8.17,8.17,8.18
82.16,11.68,11.68,3.56,3.56,-3.56,-3.87,-3.30,8.12,8.12,8.12
82.98,11.68,11.68,3.62,3.62,-3.62,-3.91,-3.33,8.06,8.06,8.06
83.81,11.68,11.68,3.68,3.68,-3.68,-3.95,-3.36,8.00,8.00,8.00
84.65,11.68,11.69,3.75,3.75,-3.73,-3.99,-3.39,7.95,7.96,7.94
85.50,11.68,11.70,3.81,3.82,-3.77,-4.03,-3.43,7.91,7.93,7.87
86.35,11.68,11.66,3.87,3.85,-3.80,-4.07,-3.47,7.88,7.85,7.81
87.22,11.63,11.59,3.89,3.85,-3.83,-4.11,-3.51,7.80,7.75,7.74
88.09,11.45,11.51,3.77,3.84,-3.87,-4.15,-3.56,7.58,7.65,7.68
88.97,11.45,11.45,3.84,3.85,-3.91,-4.19,-3.60,7.54,7.55,7.61
89.86,11.45,11.43,3.91,3.89,-3.95,-4.23,-3.65,7.50,7.48,7.54
90.76,11.45,11.45,3.98,3.98,-3.99,-4.27,-3.71,7.46,7.46,7.47
91.66,11.45,11.45,4.05,4.05,-4.04,-4.31,-3.76,7.41,7.41,7.41
92.58,11.45,11.46,4.11,4.12,-4.08,-4.34,-3.82,7.37,7.38,7.34
93.51,11.45,11.46,4.18,4.19,-4.13,-4.38,-3.88,7.33,7.33,7.27
94.44,11.45,11.41,4.25,4.21,-4.17,-4.42,-3.94,7.28,7.24,7.20
95.39,11.35,11.34,4.23,4.22,-4.22,-4.46,-4.01,7.13,7.12,7.13
96.34,11.22,11.27,4.17,4.21,-4.26,-4.50,-4.08,6.96,7.01,7.05
97.30,11.22,11.22,4.24,4.23,-4.30,-4.53,-4.15,6.92,6.91,6.98
98.28,11.22,11.21,4.31,4.30,-4.34,-4.57,-4.22,6.88,6.87,6.91
99.26,11.22,11.22,4.38,4.38,-4.38,-4.61,-4.29,6.84,6.85,6.84
100.25,11.22,11.23,4.45,4.46,-4.41,-4.64,-4.37,6.81,6.82,6.77
101.25,11.22,11.21,4.53,4.52,-4.45,-4.68,-4.44,6.77,6.76,6.69
102.27,11.19,11.16,4.57,4.54,-4.50,-4.71,-4.52,6.69,6.66,6.62
103.29,11.07,11.09,4.52,4.54,-4.55,-4.75,-4.60,6.52,6.54,6.55
104.32,10.99,11.02,4.52,4.55,-4.60,-4.78,-4.68,6.39,6.42,6.47
105.37,10.99,10.98,4.59,4.58,-4.65,-4.81,-4.76,6.34,6.34,6.40
106.42,10.99,10.98,4.66,4.65,-4.69,-4.84,-4.84,6.30,6.30,6.33
107.48,10.99,10.99,4.74,4.74,-4.72,-4.88,-4.92,6.27,6.27,6.26
108.56,10.99,11.01,4.81,4.83,-4.76,-4.91,-5.00,6.23,6.24,6.18
109.64,10.99,10.98,4.88,4.87,-4.81,-4.94,-5.07,6.18,6.17,6.11
110.74,10.99,10.92,4.95,4.89,-4.86,-4.97,-5.15,6.13,6.06,6.04
111.85,10.79,10.85,4.83,4.88,-4.91,-5.00,-5.22,5.88,5.94,5.97
112.97,10.76,10.78,4.87,4.89,-4.95,-5.03,-5.29,5.81,5.83,5.89
114.10,10.76,10.74,4.94,4.92,-4.97,-5.05,-5.36,5.79,5.77,5.82
115.24,10.76,10.77,5.01,5.02,-4.99,-5.08,-5.42,5.77,5.78,5.75
116.39,10.76,10.75,5.08,5.08,-5.02,-5.11,-5.47,5.74,5.73,5.68
117.55,10.75,10.70,5.14,5.09,-5.06,-5.13,-5.52,5.69,5.64,5.61
118.73,10.59,10.63,5.05,5.09,-5.10,-5.16,-5.57,5.49,5.53,5.54
119.92,10.54,10.56,5.07,5.09,-5.14,-5.18,-5.61,5.40,5.42,5.47
121.12,10.54,10.53,5.14,5.13,-5.18,-5.21,-5.65,5.37,5.35,5.40
122.33,10.54,10.55,5.21,5.22,-5.20,-5.23,-5.67,5.34,5.35,5.33
123.55,10.54,10.54,5.28,5.27,-5.23,-5.25,-5.70,5.31,5.31,5.27
124.79,10.54,10.49,5.34,5.29,-5.26,-5.27,-5.71,5.28,5.23,5.20
126.03,10.38,10.42,5.25,5.28,-5.28,-5.29,-5.72,5.10,5.13,5.13
127.29,10.33,10.35,5.26,5.29,-5.30,-5.31,-5.72,5.03,5.05,5.07
128.57,10.31,10.31,5.31,5.31,-5.32,-5.32,-5.72,4.99,4.99,5.00
129.85,10.31,10.29,5.37,5.35,-5.34,-5.34,-5.70,4.97,4.95,4.94
131.15,10.26,10.23,5.39,5.35,-5.35,-5.35,-5.69,4.91,4.88,4.88
132.46,10.13,10.16,5.32,5.35,-5.36,-5.37,-5.66,4.77,4.80,4.81
133.79,10.08,10.10,5.33,5.35,-5.38,-5.38,-5.64,4.70,4.72,4.75
135.12,10.08,10.08,5.39,5.39,-5.40,-5.39,-5.60,4.68,4.68,4.69
136.48,10.08,10.08,5.45,5.45,-5.42,-5.40,-5.57,4.66,4.66,4.63
137.84,10.08,10.04,5.51,5.47,-5.44,-5.41,-5.52,4.64,4.60,4.57
139.22,9.96,9.97,5.45,5.45,-5.45,-5.42,-5.48,4.51,4.52,4.52
140.61,9.87,9.90,5.41,5.44,-5.46,-5.43,-5.43,4.41,4.44,4.46
142.02,9.85,9.86,5.45,5.46,-5.47,-5.44,-5.38,4.38,4.39,4.40
143.44,9.85,9.84,5.50,5.49,-5.48,-5.44,-5.32,4.37,4.36,4.35
144.87,9.85,9.80,5.56,5.50,-5.48,-5.45,-5.27,4.37,4.31,4.30
146.32,9.70,9.73,5.46,5.48,-5.49,-5.45,-5.22,4.21,4.24,4.24
147.78,9.63,9.66,5.43,5.47,-5.49,-5.45,-5.16,4.14,4.17,4.20
149.26,9.63,9.63,5.48,5.48,-5.49,-5.45,-5.10,4.14,4.14,4.15
150.75,9.63,9.62,5.53,5.51,-5.50,-5.45,-5.05,4.13,4.12,4.10
152.26,9.61,9.57,5.56,5.52,-5.50,-5.45,-5.00,4.11,4.07,4.05
153.78,9.47,9.50,5.47,5.49,-5.50,-5.45,-4.94,3.97,4.00,4.00
155.32,9.41,9.44,5.45,5.48,-5.50,-5.44,-4.89,3.92,3.94,3.96
156.88,9.40,9.40,5.49,5.49,-5.50,-5.44,-4.84,3.90,3.91,3.91
158.44,9.40,9.37,5.53,5.50,-5.49,-5.43,-4.80,3.91,3.88,3.87
160.03,9.34,9.31,5.52,5.49,-5.48,-5.42,-4.75,3.86,3.83,3.83
161.63,9.20,9.24,5.43,5.47,-5.47,-5.41,-4.71,3.73,3.78,3.77
163.24,9.17,9.19,5.44,5.46,-5.46,-5.40,-4.67,3.71,3.73,3.73
164.88,9.17,9.15,5.48,5.46,-5.45,-5.39,-4.64,3.72,3.69,3.69
166.53,9.13,9.10,5.48,5.45,-5.44,-5.38,-4.60,3.69,3.65,3.65
168.19,9.01,9.03,5.40,5.42,-5.43,-5.36,-4.57,3.58,3.60,3.61
169.87,8.94,8.97,5.36,5.39,-5.42,-5.35,-4.54,3.52,3.55,3.58
171.57,8.94,8.95,5.40,5.41,-5.41,-5.33,-4.52,3.53,3.54,3.54
173.29,8.94,8.93,5.44,5.42,-5.40,-5.32,-4.50,3.54,3.53,3.50
175.02,8.94,8.88,5.47,5.41,-5.39,-5.30,-4.49,3.55,3.48,3.47
176.77,8.75,8.80,5.31,5.36,-5.38,-5.28,-4.47,3.37,3.42,3.44
178.54,8.71,8.74,5.31,5.34,-5.36,-5.26,-4.46,3.35,3.38,3.40
180.32,8.71,8.70,5.34,5.33,-5.34,-5.24,-4.46,3.37,3.36,3.37
182.13,8.71,8.67,5.37,5.33,-5.30,-5.21,-4.45,3.41,3.37,3.34
183.95,8.62,8.63,5.31,5.32,-5.26,-5.19,-4.45,3.36,3.36,3.31
185.79,8.50,8.54,5.22,5.26,-5.23,-5.16,-4.46,3.27,3.31,3.28
187.65,8.49,8.43,5.24,5.18,-5.20,-5.14,-4.47,3.29,3.23,3.25
189.52,8.31,8.34,5.08,5.12,-5.17,-5.11,-4.48,3.14,3.17,3.23
191.42,8.26,8.29,5.06,5.09,-5.14,-5.08,-4.49,3.12,3.14,3.20
193.33,8.26,8.26,5.09,5.09,-5.11,-5.05,-4.51,3.15,3.15,3.17
195.27,8.26,8.26,5.11,5.11,-5.07,-5.02,-4.53,3.19,3.19,3.15
197.22,8.26,8.21,5.14,5.09,-5.03,-4.99,-4.55,3.23,3.18,3.12
199.19,8.12,8.15,5.02,5.05,-5.00,-4.96,-4.57,3.12,3.15,3.10
201.18,8.03,8.05,4.95,4.97,-4.97,-4.92,-4.60,3.06,3.08,3.08
203.19,7.98,7.95,4.93,4.89,-4.93,-4.89,-4.62,3.05,3.02,3.06
205.23,7.86,7.87,4.83,4.84,-4.88,-4.85,-4.65,2.98,2.99,3.03
207.28,7.80,7.84,4.79,4.82,-4.83,-4.82,-4.68,2.97,3.01,3.01
209.35,7.80,7.79,4.81,4.80,-4.79,-4.78,-4.72,3.02,3.01,2.99
211.44,7.80,7.74,4.83,4.77,-4.75,-4.74,-4.75,3.05,2.99,2.97
213.56,7.65,7.68,4.70,4.72,-4.73,-4.70,-4.78,2.92,2.95,2.95
215.69,7.58,7.61,4.64,4.67,-4.71,-4.66,-4.81,2.87,2.90,2.94
217.85,7.57,7.57,4.65,4.65,-4.68,-4.62,-4.84,2.89,2.89,2.92
220.03,7.57,7.57,4.67,4.67,-4.65,-4.58,-4.87,2.92,2.92,2.90
222.23,7.57,7.53,4.69,4.65,-4.60,-4.54,-4.90,2.97,2.93,2.89
224.45,7.47,7.48,4.60,4.61,-4.56,-4.49,-4.92,2.91,2.92,2.87
226.70,7.36,7.40,4.51,4.54,-4.52,-4.45,-4.94,2.84,2.88,2.85
228.96,7.35,7.29,4.51,4.45,-4.48,-4.40,-4.96,2.87,2.81,2.84
231.25,7.18,7.21,4.36,4.38,-4.44,-4.36,-4.98,2.74,2.76,2.82
233.57,7.12,7.15,4.31,4.34,-4.40,-4.31,-4.99,2.72,2.75,2.81
235.90,7.12,7.12,4.33,4.33,-4.35,-4.27,-4.99,2.77,2.77,2.79
238.26,7.12,7.11,4.35,4.34,-4.30,-4.22,-5.00,2.82,2.81,2.77
240.64,7.12,7.06,4.36,4.30,-4.26,-4.17,-4.99,2.87,2.81,2.76
243.05,6.96,7.01,4.21,4.26,-4.21,-4.12,-4.98,2.75,2.80,2.75
245.48,6.89,6.92,4.15,4.18,-4.17,-4.07,-4.96,2.72,2.75,2.74
247.93,6.89,6.81,4.16,4.09,-4.12,-4.02,-4.94,2.77,2.69,2.73
250.41,6.70,6.74,3.99,4.03,-4.07,-3.97,-4.91,2.63,2.68,2.72
252.92,6.66,6.70,3.96,3.99,-4.01,-3.92,-4.87,2.65,2.69,2.70
255.45,6.66,6.65,3.96,3.94,-3.95,-3.87,-4.83,2.71,2.70,2.70
258.00,6.66,6.61,3.97,3.91,-3.89,-3.81,-4.78,2.77,2.72,2.69
260.58,6.52,6.54,3.84,3.86,-3.84,-3.76,-4.73,2.68,2.71,2.68
263.19,6.44,6.48,3.77,3.80,-3.79,-3.71,-4.66,2.65,2.69,2.68
265.82,6.43,6.41,3.76,3.74,-3.75,-3.65,-4.60,2.68,2.66,2.67
268.48,6.38,6.35,3.72,3.69,-3.70,-3.60,-4.52,2.68,2.64,2.66
271.16,6.25,6.28,3.60,3.63,-3.65,-3.54,-4.45,2.60,2.63,2.65
273.87,6.21,6.24,3.57,3.60,-3.60,-3.49,-4.36,2.61,2.64,2.64
276.61,6.21,6.20,3.58,3.56,-3.56,-3.43,-4.28,2.65,2.64,2.63
279.38,6.21,6.15,3.58,3.52,-3.51,-3.38,-4.19,2.70,2.64,2.63
282.17,6.04,6.08,3.42,3.46,-3.45,-3.32,-4.09,2.59,2.63,2.62
284.99,5.98,6.02,3.36,3.40,-3.39,-3.26,-4.00,2.59,2.63,2.62
287.84,5.98,5.94,3.35,3.32,-3.32,-3.20,-3.90,2.66,2.62,2.63
290.72,5.91,5.90,3.29,3.28,-3.24,-3.15,-3.79,2.67,2.65,2.62
293.63,5.77,5.81,3.16,3.19,-3.17,-3.09,-3.69,2.60,2.64,2.61
296.57,5.75,5.70,3.13,3.08,-3.10,-3.03,-3.59,2.65,2.60,2.62
299.53,5.58,5.61,2.96,2.99,-3.04,-2.97,-3.48,2.54,2.56,2.62
302.53,5.52,5.55,2.90,2.93,-2.98,-2.91,-3.38,2.54,2.57,2.62
305.55,5.52,5.52,2.90,2.90,-2.92,-2.85,-3.27,2.60,2.60,2.62
308.61,5.52,5.52,2.90,2.90,-2.87,-2.79,-3.16,2.65,2.65,2.62
311.69,5.52,5.47,2.90,2.85,-2.81,-2.73,-3.06,2.71,2.67,2.62
314.81,5.38,5.41,2.76,2.80,-2.75,-2.67,-2.95,2.63,2.66,2.62
317.96,5.30,5.32,2.68,2.71,-2.70,-2.61,-2.85,2.61,2.63,2.62
321.14,5.28,5.22,2.66,2.60,-2.63,-2.54,-2.74,2.65,2.59,2.62
324.35,5.12,5.16,2.50,2.53,-2.56,-2.48,-2.64,2.56,2.61,2.62
327.59,5.07,5.10,2.43,2.47,-2.47,-2.42,-2.54,2.60,2.63,2.64
330.87,5.07,5.02,2.44,2.38,-2.38,-2.36,-2.43,2.69,2.63,2.64
334.18,4.96,4.97,2.32,2.33,-2.30,-2.30,-2.33,2.66,2.67,2.64
337.52,4.85,4.89,2.21,2.25,-2.22,-2.23,-2.23,2.63,2.66,2.64
340.90,4.84,4.78,2.20,2.13,-2.15,-2.17,-2.14,2.69,2.63,2.64
344.30,4.66,4.69,2.01,2.05,-2.08,-2.11,-2.04,2.58,2.61,2.65
347.75,4.61,4.65,1.95,1.99,-2.01,-2.04,-1.95,2.60,2.63,2.66
351.23,4.61,4.60,1.96,1.94,-1.95,-1.98,-1.85,2.66,2.65,2.65
354.74,4.61,4.57,1.94,1.90,-1.89,-1.92,-1.76,2.72,2.68,2.67
358.28,4.50,4.51,1.83,1.84,-1.82,-1.85,-1.67,2.68,2.68,2.67
361.87,4.41,4.45,1.74,1.77,-1.76,-1.79,-1.58,2.65,2.69,2.68
365.49,4.38,4.38,1.70,1.70,-1.69,-1.72,-1.49,2.69,2.69,2.68
369.14,4.36,4.32,1.68,1.63,-1.61,-1.66,-1.41,2.75,2.71,2.68
372.83,4.22,4.25,1.52,1.56,-1.53,-1.59,-1.32,2.69,2.72,2.70
376.56,4.16,4.15,1.47,1.45,-1.46,-1.53,-1.24,2.70,2.69,2.70
380.33,4.06,4.05,1.36,1.35,-1.39,-1.46,-1.16,2.67,2.66,2.70
384.13,3.95,3.98,1.25,1.27,-1.32,-1.40,-1.07,2.63,2.66,2.70
387.97,3.93,3.94,1.21,1.22,-1.26,-1.33,-0.99,2.67,2.68,2.72
391.85,3.93,3.93,1.19,1.20,-1.19,-1.26,-0.92,2.74,2.74,2.74
395.77,3.93,3.91,1.20,1.17,-1.13,-1.20,-0.84,2.81,2.78,2.73
399.73,3.87,3.86,1.13,1.11,-1.06,-1.13,-0.76,2.81,2.80,2.74
403.72,3.74,3.78,0.99,1.03,-1.00,-1.07,-0.69,2.74,2.77,2.75
407.76,3.70,3.67,0.95,0.92,-0.94,-1.00,-0.61,2.76,2.73,2.75
411.84,3.57,3.58,0.81,0.82,-0.86,-0.93,-0.54,2.71,2.71,2.76
415.96,3.48,3.52,0.72,0.76,-0.78,-0.87,-0.47,2.70,2.74,2.76
420.12,3.47,3.46,0.71,0.69,-0.69,-0.80,-0.40,2.78,2.77,2.76
424.32,3.45,3.41,0.68,0.63,-0.60,-0.73,-0.33,2.85,2.81,2.77
428.56,3.30,3.33,0.52,0.56,-0.52,-0.66,-0.26,2.79,2.82,2.78
432.85,3.24,3.23,0.45,0.44,-0.44,-0.60,-0.19,2.80,2.79,2.79
437.18,3.14,3.13,0.34,0.34,-0.38,-0.53,-0.12,2.76,2.75,2.80
441.55,3.05,3.07,0.24,0.26,-0.32,-0.46,-0.06,2.73,2.75,2.81
445.96,3.02,3.03,0.21,0.21,-0.25,-0.39,0.00,2.77,2.78,2.81
450.42,3.02,3.03,0.19,0.19,-0.18,-0.32,0.07,2.84,2.85,2.83
454.93,3.02,3.00,0.18,0.16,-0.11,-0.26,0.13,2.91,2.89,2.84
459.48,2.97,2.95,0.12,0.10,-0.04,-0.19,0.19,2.93,2.91,2.85
464.07,2.82,2.86,-0.03,0.01,0.02,-0.12,0.25,2.84,2.89,2.85
468.71,2.79,2.75,-0.07,-0.10,0.09,-0.05,0.31,2.88,2.84,2.86
473.40,2.65,2.66,-0.22,-0.21,0.16,0.02,0.36,2.81,2.82,2.87
478.13,2.57,2.61,-0.31,-0.27,0.24,0.09,0.42,2.81,2.84,2.88
482.91,2.56,2.56,-0.33,-0.33,0.32,0.16,0.47,2.88,2.88,2.90
487.74,2.56,2.52,-0.34,-0.38,0.40,0.23,0.52,2.96,2.92,2.90
492.62,2.48,2.47,-0.43,-0.45,0.47,0.30,0.57,2.95,2.94,2.91
