frequency,raw,error,smoothed,error_smoothed,equalization,parametric_eq,fixed_band_eq,equalized_raw,equalized_smoothed,target
20.00,-0.74,-5.61,-0.75,-5.61,5.60,4.59,1.63,4.86,4.86,4.86
20.20,-0.67,-5.52,-0.67,-5.51,5.51,4.56,1.68,4.84,4.84,4.84
20.40,-0.59,-5.41,-0.59,-5.42,5.42,4.54,1.73,4.83,4.83,4.82
20.61,-0.52,-5.34,-0.52,-5.33,5.33,4.52,1.78,4.81,4.81,4.81
20.81,-0.45,-5.24,-0.45,-5.24,5.25,4.49,1.83,4.80,4.80,4.79
21.02,-0.38,-5.16,-0.39,-5.17,5.18,4.47,1.89,4.80,4.79,4.78
21.23,-0.33,-5.09,-0.33,-5.10,5.11,4.44,1.95,4.77,4.77,4.76
21.44,-0.29,-5.04,-0.29,-5.04,5.04,4.42,2.00,4.75,4.75,4.75
21.66,-0.24,-4.98,-0.24,-4.98,4.98,4.40,2.06,4.74,4.74,4.74
21.87,-0.20,-4.92,-0.20,-4.92,4.92,4.37,2.13,4.72,4.73,4.72
22.09,-0.15,-4.86,-0.16,-4.87,4.87,4.34,2.19,4.72,4.72,4.71
22.31,-0.12,-4.82,-0.12,-4.82,4.82,4.32,2.25,4.70,4.70,4.70
22.54,-0.08,-4.77,-0.09,-4.77,4.77,4.29,2.32,4.69,4.69,4.69
22.76,-0.05,-4.73,-0.05,-4.73,4.72,4.27,2.39,4.67,4.67,4.68
22.99,-0.01,-4.68,-0.00,-4.67,4.66,4.24,2.46,4.65,4.65,4.67
23.22,0.05,-4.61,0.05,-4.61,4.60,4.21,2.53,4.65,4.65,4.66
23.45,0.12,-4.54,0.11,-4.54,4.54,4.19,2.60,4.66,4.65,4.66
23.69,0.18,-4.47,0.18,-4.47,4.47,4.16,2.68,4.65,4.65,4.65
23.92,0.25,-4.40,0.25,-4.40,4.40,4.13,2.76,4.65,4.65,4.64
24.16,0.31,-4.33,0.31,-4.33,4.33,4.11,2.83,4.64,4.65,4.64
24.40,0.38,-4.26,0.38,-4.27,4.26,4.08,2.91,4.64,4.64,4.64
24.65,0.44,-4.20,0.44,-4.20,4.20,4.05,2.99,4.64,4.64,4.64
24.89,0.50,-4.14,0.50,-4.14,4.14,4.02,3.07,4.64,4.64,4.64
25.14,0.56,-4.08,0.56,-4.08,4.08,3.99,3.15,4.64,4.64,4.64
25.39,0.61,-4.03,0.61,-4.03,4.03,3.97,3.23,4.64,4.65,4.64
25.65,0.66,-3.98,0.66,-3.98,3.99,3.94,3.32,4.65,4.66,4.64
25.91,0.71,-3.94,0.70,-3.94,3.96,3.91,3.40,4.67,4.66,4.65
26.16,0.73,-3.92,0.72,-3.92,3.94,3.88,3.48,4.67,4.66,4.65
26.43,0.73,-3.92,0.73,-3.91,3.92,3.85,3.56,4.65,4.65,4.64
26.69,0.74,-3.90,0.73,-3.91,3.90,3.82,3.64,4.64,4.63,4.64
26.96,0.74,-3.90,0.75,-3.90,3.88,3.79,3.72,4.62,4.62,4.64
27.23,0.77,-3.87,0.77,-3.87,3.85,3.76,3.79,4.62,4.63,4.64
27.50,0.81,-3.83,0.80,-3.84,3.83,3.73,3.87,4.63,4.63,4.64
27.77,0.85,-3.79,0.85,-3.79,3.79,3.70,3.93,4.64,4.64,4.64
28.05,0.89,-3.75,0.89,-3.74,3.74,3.67,4.00,4.63,4.63,4.64
28.33,0.95,-3.68,0.94,-3.68,3.68,3.64,4.07,4.62,4.62,4.62
28.62,1.00,-3.63,1.00,-3.62,3.61,3.60,4.13,4.60,4.61,4.62
28.90,1.06,-3.56,1.06,-3.56,3.54,3.57,4.18,4.60,4.60,4.62
29.19,1.13,-3.49,1.13,-3.49,3.49,3.54,4.23,4.62,4.62,4.62
29.48,1.20,-3.42,1.21,-3.41,3.45,3.51,4.27,4.64,4.66,4.62
29.78,1.28,-3.34,1.27,-3.35,3.41,3.48,4.31,4.69,4.68,4.62
30.08,1.32,-3.30,1.30,-3.32,3.38,3.44,4.34,4.69,4.67,4.61
30.38,1.28,-3.33,1.28,-3.33,3.34,3.41,4.36,4.62,4.62,4.61
30.68,1.25,-3.35,1.25,-3.36,3.30,3.38,4.38,4.55,4.55,4.60
30.99,1.21,-3.39,1.24,-3.35,3.27,3.34,4.39,4.48,4.51,4.60
31.30,1.30,-3.29,1.30,-3.29,3.23,3.31,4.39,4.53,4.53,4.59
31.61,1.40,-3.19,1.39,-3.19,3.19,3.28,4.39,4.59,4.58,4.58
31.93,1.50,-3.09,1.48,-3.10,3.15,3.24,4.38,4.65,4.62,4.58
32.24,1.53,-3.04,1.53,-3.05,3.10,3.21,4.36,4.63,4.63,4.57
32.57,1.54,-3.03,1.55,-3.02,3.06,3.17,4.33,4.60,4.61,4.57
32.89,1.56,-3.01,1.56,-3.00,3.02,3.14,4.30,4.57,4.57,4.56
33.22,1.57,-2.99,1.57,-2.99,2.98,3.10,4.26,4.55,4.55,4.56
33.55,1.59,-2.97,1.58,-2.98,2.96,3.07,4.22,4.54,4.54,4.56
33.89,1.60,-2.97,1.61,-2.96,2.93,3.03,4.17,4.53,4.54,4.57
34.23,1.64,-2.92,1.64,-2.92,2.91,2.99,4.12,4.54,4.55,4.56
34.57,1.69,-2.87,1.69,-2.88,2.87,2.96,4.06,4.56,4.56,4.56
34.92,1.74,-2.83,1.73,-2.83,2.83,2.92,4.00,4.57,4.57,4.57
35.27,1.78,-2.79,1.78,-2.79,2.79,2.88,3.93,4.57,4.57,4.56
35.62,1.82,-2.75,1.82,-2.74,2.75,2.85,3.86,4.57,4.57,4.57
35.97,1.87,-2.70,1.86,-2.71,2.71,2.81,3.79,4.58,4.57,4.57
36.33,1.89,-2.67,1.89,-2.67,2.68,2.77,3.71,4.57,4.57,4.56
36.70,1.92,-2.64,1.92,-2.64,2.65,2.73,3.63,4.57,4.57,4.56
37.06,1.94,-2.62,1.93,-2.62,2.63,2.70,3.56,4.57,4.56,4.55
37.43,1.94,-2.60,1.94,-2.60,2.61,2.66,3.48,4.55,4.55,4.54
37.81,1.95,-2.59,1.95,-2.58,2.58,2.62,3.40,4.53,4.53,4.54
38.19,1.96,-2.56,1.95,-2.57,2.54,2.58,3.32,4.50,4.50,4.52
38.57,1.97,-2.54,1.96,-2.54,2.50,2.54,3.24,4.47,4.46,4.51
38.95,1.98,-2.51,2.00,-2.49,2.45,2.51,3.16,4.43,4.45,4.49
39.34,2.06,-2.42,2.06,-2.42,2.40,2.47,3.08,4.46,4.47,4.48
39.74,2.15,-2.32,2.14,-2.33,2.36,2.43,3.00,4.50,4.49,4.47
40.14,2.21,-2.25,2.20,-2.26,2.31,2.39,2.93,4.52,4.51,4.46
40.54,2.22,-2.22,2.23,-2.22,2.28,2.36,2.85,4.49,4.50,4.44
40.94,2.23,-2.21,2.22,-2.21,2.24,2.32,2.78,4.47,4.46,4.43
41.35,2.21,-2.22,2.20,-2.22,2.20,2.28,2.70,4.41,4.40,4.43
41.76,2.18,-2.23,2.19,-2.22,2.17,2.24,2.63,4.35,4.37,4.41
42.18,2.20,-2.21,2.21,-2.20,2.15,2.21,2.56,4.35,4.36,4.41
42.60,2.26,-2.15,2.25,-2.15,2.13,2.17,2.49,4.39,4.39,4.41
43.03,2.32,-2.08,2.31,-2.09,2.11,2.14,2.43,4.43,4.42,4.40
43.46,2.36,-2.04,2.36,-2.04,2.08,2.10,2.36,4.44,4.44,4.40
43.90,2.39,-2.01,2.38,-2.01,2.04,2.07,2.30,4.43,4.42,4.40
44.33,2.39,-2.00,2.38,-2.01,2.00,2.03,2.24,4.39,4.38,4.39
44.78,2.37,-2.01,2.39,-2.00,1.97,2.00,2.18,4.34,4.36,4.38
45.23,2.40,-1.99,2.41,-1.97,1.94,1.96,2.12,4.34,4.36,4.38
45.68,2.47,-1.91,2.46,-1.92,1.92,1.93,2.07,4.39,4.38,4.37
46.13,2.52,-1.85,2.50,-1.87,1.89,1.90,2.01,4.41,4.39,4.37
46.60,2.52,-1.84,2.52,-1.83,1.86,1.86,1.96,4.38,4.39,4.36
47.06,2.52,-1.83,2.52,-1.83,1.83,1.83,1.91,4.35,4.35,4.35
47.53,2.52,-1.82,2.51,-1.82,1.79,1.80,1.86,4.31,4.31,4.34
48.01,2.52,-1.81,2.54,-1.78,1.75,1.76,1.81,4.27,4.30,4.33
48.49,2.58,-1.73,2.58,-1.73,1.72,1.73,1.77,4.30,4.30,4.31
48.97,2.65,-1.65,2.62,-1.68,1.68,1.70,1.73,4.33,4.30,4.30
49.46,2.65,-1.64,2.65,-1.63,1.65,1.67,1.68,4.29,4.30,4.28
49.96,2.65,-1.61,2.67,-1.60,1.61,1.64,1.64,4.26,4.28,4.26
50.46,2.68,-1.57,2.68,-1.57,1.58,1.60,1.60,4.26,4.26,4.25
50.96,2.71,-1.53,2.70,-1.54,1.55,1.57,1.56,4.26,4.25,4.24
51.47,2.71,-1.52,2.71,-1.51,1.53,1.54,1.52,4.24,4.24,4.22
51.99,2.71,-1.50,2.71,-1.50,1.51,1.51,1.49,4.22,4.22,4.21
52.51,2.71,-1.49,2.71,-1.49,1.48,1.48,1.45,4.19,4.19,4.20
53.03,2.71,-1.47,2.71,-1.48,1.45,1.44,1.41,4.16,4.16,4.18
53.56,2.72,-1.45,2.72,-1.45,1.42,1.41,1.38,4.14,4.13,4.17
54.10,2.73,-1.42,2.75,-1.40,1.38,1.38,1.35,4.11,4.13,4.15
54.64,2.80,-1.34,2.79,-1.34,1.34,1.34,1.31,4.14,4.13,4.14
55.18,2.85,-1.27,2.84,-1.28,1.29,1.31,1.28,4.14,4.13,4.12
55.74,2.88,-1.22,2.88,-1.22,1.25,1.27,1.24,4.13,4.13,4.10
56.29,2.90,-1.19,2.90,-1.19,1.21,1.24,1.21,4.11,4.11,4.08
56.86,2.90,-1.17,2.90,-1.17,1.18,1.20,1.18,4.08,4.08,4.07
57.42,2.90,-1.15,2.90,-1.15,1.16,1.17,1.14,4.05,4.06,4.05
58.00,2.90,-1.14,2.90,-1.14,1.14,1.13,1.11,4.03,4.03,4.04
58.58,2.90,-1.12,2.90,-1.12,1.12,1.09,1.08,4.02,4.01,4.02
59.16,2.90,-1.10,2.90,-1.10,1.09,1.05,1.04,3.99,3.99,4.00
59.76,2.90,-1.08,2.90,-1.08,1.06,1.02,1.01,3.96,3.96,3.98
60.35,2.91,-1.05,2.91,-1.05,1.02,0.98,0.97,3.93,3.93,3.96
60.96,2.93,-1.00,2.94,-0.99,0.97,0.94,0.93,3.90,3.91,3.93
61.57,2.99,-0.92,2.99,-0.92,0.92,0.90,0.90,3.91,3.91,3.91
62.18,3.04,-0.85,3.03,-0.85,0.87,0.86,0.86,3.90,3.90,3.89
62.80,3.08,-0.77,3.07,-0.78,0.81,0.82,0.82,3.89,3.88,3.85
63.43,3.09,-0.74,3.09,-0.74,0.76,0.77,0.78,3.85,3.85,3.83
64.07,3.09,-0.71,3.09,-0.71,0.71,0.73,0.74,3.80,3.81,3.80
64.71,3.09,-0.68,3.09,-0.68,0.67,0.69,0.70,3.76,3.76,3.76
65.35,3.09,-0.65,3.09,-0.65,0.64,0.64,0.65,3.72,3.72,3.74
66.01,3.09,-0.61,3.09,-0.61,0.61,0.60,0.61,3.69,3.69,3.70
66.67,3.09,-0.58,3.09,-0.58,0.58,0.55,0.56,3.67,3.67,3.67
67.33,3.09,-0.54,3.09,-0.54,0.55,0.51,0.52,3.64,3.64,3.63
68.01,3.09,-0.51,3.09,-0.51,0.52,0.46,0.47,3.61,3.61,3.60
68.69,3.09,-0.47,3.09,-0.47,0.48,0.42,0.42,3.57,3.57,3.56
69.37,3.09,-0.44,3.08,-0.44,0.43,0.37,0.37,3.52,3.51,3.53
70.07,3.09,-0.39,3.08,-0.41,0.37,0.32,0.32,3.46,3.45,3.48
70.77,3.08,-0.37,3.09,-0.35,0.31,0.27,0.27,3.39,3.41,3.45
71.48,3.13,-0.29,3.14,-0.27,0.25,0.22,0.22,3.37,3.39,3.42
72.19,3.21,-0.16,3.21,-0.17,0.18,0.17,0.17,3.39,3.38,3.37
72.91,3.29,-0.05,3.26,-0.07,0.11,0.12,0.11,3.40,3.37,3.33
73.64,3.29,-0.01,3.29,-0.01,0.05,0.07,0.06,3.33,3.34,3.30
74.38,3.28,0.02,3.29,0.03,-0.02,0.02,0.00,3.26,3.27,3.26
75.12,3.28,0.07,3.28,0.07,-0.07,-0.03,-0.05,3.21,3.21,3.21
75.87,3.28,0.11,3.28,0.11,-0.12,-0.09,-0.11,3.16,3.16,3.17
76.63,3.28,0.15,3.28,0.15,-0.16,-0.14,-0.17,3.12,3.12,3.13
77.40,3.28,0.19,3.28,0.19,-0.19,-0.19,-0.22,3.08,3.08,3.09
78.17,3.28,0.23,3.28,0.23,-0.23,-0.25,-0.28,3.05,3.05,3.05
78.95,3.28,0.27,3.28,0.27,-0.27,-0.31,-0.34,3.01,3.01,3.01
79.74,3.28,0.32,3.28,0.32,-0.32,-0.36,-0.40,2.96,2.96,2.96
80.54,3.28,0.36,3.28,0.36,-0.36,-0.42,-0.46,2.92,2.92,2.92
81.35,3.28,0.41,3.28,0.41,-0.41,-0.47,-0.52,2.87,2.87,2.87
82.16,3.28,0.45,3.28,0.45,-0.45,-0.53,-0.58,2.83,2.83,2.83
82.98,3.28,0.50,3.28,0.50,-0.50,-0.59,-0.65,2.78,2.78,2.78
83.81,3.28,0.54,3.28,0.54,-0.54,-0.65,-0.71,2.74,2.74,2.73
84.65,3.28,0.59,3.28,0.60,-0.59,-0.71,-0.77,2.69,2.69,2.69
85.50,3.28,0.65,3.28,0.65,-0.64,-0.77,-0.84,2.64,2.64,2.63
86.35,3.28,0.70,3.27,0.69,-0.69,-0.82,-0.90,2.59,2.58,2.58
87.22,3.27,0.74,3.26,0.73,-0.75,-0.88,-0.97,2.52,2.51,2.53
88.09,3.25,0.77,3.27,0.79,-0.82,-0.94,-1.04,2.43,2.46,2.48
88.97,3.29,0.86,3.30,0.88,-0.89,-1.00,-1.11,2.40,2.41,2.43
89.86,3.37,1.00,3.34,0.97,-0.97,-1.07,-1.17,2.40,2.38,2.37
90.76,3.38,1.06,3.37,1.06,-1.05,-1.13,-1.24,2.33,2.32,2.31
91.66,3.39,1.14,3.39,1.13,-1.14,-1.19,-1.31,2.25,2.25,2.25
92.58,3.39,1.19,3.41,1.21,-1.23,-1.25,-1.39,2.16,2.18,2.20
93.51,3.44,1.30,3.45,1.31,-1.31,-1.31,-1.46,2.13,2.13,2.13
94.44,3.50,1.43,3.48,1.41,-1.39,-1.37,-1.53,2.11,2.09,2.07
95.39,3.51,1.50,3.50,1.49,-1.47,-1.43,-1.60,2.04,2.03,2.01
96.34,3.48,1.54,3.49,1.55,-1.54,-1.49,-1.68,1.94,1.95,1.94
97.30,3.47,1.60,3.47,1.60,-1.60,-1.55,-1.75,1.86,1.87,1.87
98.28,3.46,1.66,3.46,1.66,-1.67,-1.61,-1.83,1.79,1.79,1.80
99.26,3.45,1.72,3.44,1.72,-1.73,-1.67,-1.90,1.72,1.72,1.73
100.25,3.43,1.78,3.43,1.78,-1.79,-1.74,-1.98,1.64,1.64,1.65
101.25,3.41,1.84,3.41,1.84,-1.84,-1.80,-2.05,1.57,1.57,1.57
102.27,3.40,1.90,3.40,1.90,-1.90,-1.86,-2.13,1.50,1.50,1.50
103.29,3.39,1.97,3.38,1.96,-1.96,-1.92,-2.21,1.43,1.42,1.42
104.32,3.37,2.02,3.37,2.02,-2.02,-1.98,-2.28,1.35,1.35,1.34
105.37,3.34,2.07,3.34,2.08,-2.08,-2.04,-2.36,1.26,1.27,1.27
106.42,3.32,2.14,3.32,2.13,-2.13,-2.09,-2.43,1.19,1.19,1.18
107.48,3.30,2.19,3.29,2.18,-2.18,-2.15,-2.51,1.12,1.11,1.11
108.56,3.27,2.23,3.27,2.24,-2.23,-2.21,-2.58,1.03,1.04,1.04
109.64,3.25,2.29,3.25,2.29,-2.29,-2.27,-2.65,0.96,0.96,0.96
110.74,3.23,2.34,3.23,2.33,-2.34,-2.33,-2.72,0.89,0.89,0.89
111.85,3.21,2.39,3.21,2.39,-2.39,-2.39,-2.79,0.81,0.82,0.82
112.97,3.20,2.44,3.20,2.45,-2.45,-2.45,-2.86,0.75,0.75,0.76
114.10,3.20,2.51,3.20,2.51,-2.51,-2.51,-2.92,0.69,0.69,0.69
115.24,3.20,2.57,3.20,2.57,-2.57,-2.56,-2.98,0.63,0.63,0.63
116.39,3.20,2.64,3.20,2.63,-2.63,-2.62,-3.04,0.57,0.57,0.56
117.55,3.20,2.69,3.20,2.70,-2.69,-2.68,-3.10,0.50,0.51,0.51
118.73,3.21,2.76,3.20,2.76,-2.76,-2.74,-3.15,0.45,0.45,0.44
119.92,3.21,2.82,3.21,2.82,-2.82,-2.80,-3.20,0.39,0.39,0.39
121.12,3.22,2.88,3.22,2.88,-2.88,-2.86,-3.25,0.34,0.34,0.34
122.33,3.23,2.94,3.23,2.94,-2.94,-2.92,-3.29,0.29,0.29,0.29
123.55,3.24,3.00,3.24,3.00,-3.00,-2.98,-3.33,0.24,0.23,0.23
124.79,3.24,3.06,3.24,3.06,-3.06,-3.03,-3.37,0.18,0.18,0.18
126.03,3.25,3.12,3.25,3.12,-3.12,-3.09,-3.40,0.13,0.13,0.13
127.29,3.26,3.18,3.26,3.17,-3.17,-3.15,-3.43,0.09,0.08,0.08
128.57,3.26,3.23,3.26,3.23,-3.23,-3.21,-3.45,0.03,0.03,0.03
129.85,3.27,3.28,3.27,3.28,-3.28,-3.27,-3.47,-0.01,-0.02,-0.02
131.15,3.27,3.33,3.27,3.33,-3.33,-3.33,-3.49,-0.07,-0.06,-0.06
132.46,3.28,3.39,3.28,3.39,-3.39,-3.39,-3.51,-0.11,-0.11,-0.11
133.79,3.28,3.44,3.28,3.44,-3.44,-3.44,-3.52,-0.16,-0.16,-0.16
135.12,3.29,3.49,3.29,3.49,-3.49,-3.50,-3.53,-0.20,-0.20,-0.20
136.48,3.29,3.54,3.29,3.54,-3.54,-3.56,-3.54,-0.25,-0.25,-0.25
137.84,3.29,3.58,3.29,3.59,-3.59,-3.61,-3.54,-0.30,-0.30,-0.29
139.22,3.30,3.65,3.30,3.64,-3.64,-3.67,-3.55,-0.34,-0.35,-0.35
140.61,3.30,3.69,3.30,3.69,-3.69,-3.72,-3.55,-0.39,-0.39,-0.39
142.02,3.30,3.74,3.30,3.74,-3.74,-3.77,-3.55,-0.44,-0.44,-0.44
143.44,3.30,3.79,3.30,3.79,-3.79,-3.82,-3.55,-0.49,-0.49,-0.49
144.87,3.30,3.84,3.30,3.84,-3.84,-3.87,-3.55,-0.54,-0.54,-0.54
146.32,3.30,3.88,3.30,3.88,-3.89,-3.92,-3.56,-0.59,-0.59,-0.58
147.78,3.30,3.93,3.30,3.93,-3.93,-3.97,-3.56,-0.63,-0.63,-0.63
149.26,3.30,3.98,3.30,3.98,-3.98,-4.02,-3.56,-0.68,-0.68,-0.68
150.75,3.30,4.03,3.30,4.02,-4.02,-4.06,-3.56,-0.72,-0.72,-0.73
152.26,3.30,4.07,3.30,4.07,-4.07,-4.11,-3.56,-0.77,-0.77,-0.77
153.78,3.30,4.11,3.30,4.11,-4.11,-4.15,-3.57,-0.81,-0.81,-0.81
155.32,3.30,4.15,3.30,4.15,-4.16,-4.19,-3.57,-0.86,-0.86,-0.85
156.88,3.30,4.20,3.30,4.19,-4.20,-4.23,-3.58,-0.90,-0.90,-0.90
158.44,3.30,4.24,3.30,4.24,-4.24,-4.27,-3.59,-0.94,-0.94,-0.94
160.03,3.30,4.28,3.30,4.29,-4.28,-4.31,-3.60,-0.99,-0.99,-0.98
161.63,3.30,4.33,3.30,4.33,-4.33,-4.35,-3.61,-1.03,-1.03,-1.03
163.24,3.30,4.37,3.30,4.37,-4.37,-4.39,-3.63,-1.07,-1.07,-1.07
164.88,3.29,4.40,3.29,4.41,-4.40,-4.42,-3.65,-1.11,-1.11,-1.11
166.53,3.29,4.44,3.29,4.44,-4.44,-4.46,-3.67,-1.15,-1.15,-1.15
168.19,3.28,4.47,3.28,4.47,-4.47,-4.49,-3.69,-1.19,-1.19,-1.19
169.87,3.27,4.50,3.27,4.50,-4.50,-4.52,-3.72,-1.23,-1.23,-1.23
171.57,3.27,4.53,3.27,4.53,-4.53,-4.55,-3.75,-1.26,-1.27,-1.27
173.29,3.26,4.56,3.26,4.56,-4.56,-4.58,-3.78,-1.30,-1.30,-1.30
175.02,3.26,4.59,3.25,4.59,-4.59,-4.61,-3.82,-1.33,-1.33,-1.33
176.77,3.25,4.61,3.25,4.61,-4.62,-4.63,-3.85,-1.37,-1.37,-1.36
178.54,3.25,4.65,3.25,4.64,-4.65,-4.66,-3.89,-1.40,-1.39,-1.40
180.32,3.26,4.68,3.25,4.67,-4.67,-4.69,-3.94,-1.42,-1.42,-1.42
182.13,3.26,4.70,3.26,4.70,-4.70,-4.71,-3.99,-1.45,-1.44,-1.44
183.95,3.27,4.73,3.27,4.73,-4.73,-4.73,-4.03,-1.47,-1.47,-1.46
185.79,3.28,4.76,3.28,4.77,-4.77,-4.76,-4.09,-1.49,-1.49,-1.49
187.65,3.30,4.81,3.29,4.80,-4.80,-4.78,-4.14,-1.51,-1.51,-1.51
189.52,3.31,4.84,3.31,4.83,-4.84,-4.80,-4.20,-1.53,-1.53,-1.53
191.42,3.32,4.85,3.32,4.86,-4.87,-4.82,-4.26,-1.55,-1.55,-1.54
193.33,3.34,4.89,3.34,4.90,-4.90,-4.84,-4.33,-1.56,-1.56,-1.56
195.27,3.36,4.93,3.37,4.94,-4.92,-4.85,-4.39,-1.56,-1.55,-1.57
197.22,3.39,4.98,3.38,4.97,-4.94,-4.87,-4.46,-1.55,-1.56,-1.59
199.19,3.39,5.00,3.36,4.97,-4.95,-4.89,-4.53,-1.56,-1.59,-1.61
201.18,3.32,4.94,3.34,4.96,-4.96,-4.90,-4.60,-1.64,-1.62,-1.62
203.19,3.30,4.94,3.31,4.95,-4.97,-4.92,-4.68,-1.67,-1.66,-1.64
205.23,3.30,4.95,3.29,4.95,-4.97,-4.93,-4.75,-1.68,-1.68,-1.66
207.28,3.30,4.97,3.30,4.97,-4.98,-4.94,-4.83,-1.68,-1.68,-1.67
209.35,3.30,4.98,3.30,4.98,-4.99,-4.96,-4.90,-1.69,-1.69,-1.69
211.44,3.29,5.00,3.29,5.00,-5.00,-4.97,-4.98,-1.71,-1.71,-1.71
213.56,3.29,5.01,3.29,5.01,-5.02,-4.98,-5.06,-1.73,-1.73,-1.72
215.69,3.29,5.04,3.28,5.03,-5.03,-4.99,-5.13,-1.74,-1.75,-1.75
217.85,3.28,5.04,3.28,5.04,-5.04,-5.00,-5.21,-1.76,-1.76,-1.76
220.03,3.28,5.06,3.28,5.06,-5.04,-5.01,-5.28,-1.77,-1.76,-1.78
222.23,3.28,5.07,3.28,5.08,-5.04,-5.01,-5.35,-1.76,-1.76,-1.79
224.45,3.28,5.08,3.25,5.06,-5.04,-5.02,-5.42,-1.76,-1.79,-1.81
226.70,3.22,5.04,3.21,5.03,-5.04,-5.03,-5.48,-1.82,-1.82,-1.82
228.96,3.15,4.98,3.18,5.01,-5.04,-5.03,-5.54,-1.89,-1.85,-1.83
231.25,3.18,5.01,3.17,5.01,-5.04,-5.04,-5.60,-1.86,-1.87,-1.83
233.57,3.20,5.04,3.19,5.03,-5.05,-5.04,-5.65,-1.85,-1.86,-1.84
235.90,3.22,5.07,3.22,5.06,-5.06,-5.05,-5.70,-1.84,-1.84,-1.85
238.26,3.23,5.08,3.23,5.08,-5.07,-5.05,-5.74,-1.85,-1.85,-1.85
240.64,3.25,5.09,3.25,5.09,-5.09,-5.05,-5.77,-1.84,-1.84,-1.85
243.05,3.26,5.10,3.28,5.13,-5.10,-5.06,-5.80,-1.85,-1.82,-1.84
245.48,3.31,5.15,3.30,5.14,-5.11,-5.06,-5.82,-1.81,-1.81,-1.84
247.93,3.34,5.18,3.30,5.14,-5.12,-5.06,-5.84,-1.78,-1.82,-1.84
250.41,3.25,5.09,3.28,5.12,-5.12,-5.06,-5.84,-1.87,-1.84,-1.84
252.92,3.25,5.09,3.26,5.10,-5.12,-5.06,-5.84,-1.87,-1.86,-1.84
255.45,3.26,5.10,3.25,5.09,-5.12,-5.06,-5.84,-1.87,-1.87,-1.84
258.00,3.27,5.11,3.27,5.11,-5.13,-5.06,-5.82,-1.86,-1.86,-1.84
260.58,3.27,5.12,3.27,5.12,-5.12,-5.06,-5.80,-1.85,-1.85,-1.85
263.19,3.28,5.13,3.27,5.13,-5.12,-5.06,-5.78,-1.84,-1.85,-1.85
265.82,3.27,5.14,3.28,5.15,-5.12,-5.05,-5.74,-1.85,-1.84,-1.87
268.48,3.27,5.15,3.27,5.15,-5.12,-5.05,-5.71,-1.85,-1.85,-1.88
271.16,3.27,5.16,3.23,5.12,-5.12,-5.05,-5.66,-1.86,-1.89,-1.89
273.87,3.18,5.08,3.20,5.10,-5.13,-5.04,-5.62,-1.95,-1.93,-1.90
276.61,3.14,5.05,3.16,5.08,-5.12,-5.04,-5.56,-1.98,-1.96,-1.91
279.38,3.16,5.09,3.15,5.07,-5.10,-5.03,-5.51,-1.94,-1.96,-1.93
282.17,3.17,5.10,3.19,5.12,-5.08,-5.03,-5.45,-1.91,-1.89,-1.93
284.99,3.19,5.13,3.19,5.13,-5.06,-5.02,-5.39,-1.87,-1.87,-1.94
287.84,3.22,5.15,3.14,5.08,-5.04,-5.02,-5.33,-1.82,-1.90,-1.93
290.72,3.03,4.97,3.08,5.02,-5.02,-5.01,-5.27,-1.99,-1.94,-1.94
293.63,2.98,4.92,3.02,4.96,-5.00,-5.00,-5.20,-2.03,-1.98,-1.94
296.57,3.02,4.96,3.00,4.93,-4.99,-4.99,-5.14,-1.97,-2.00,-1.94
299.53,3.04,4.97,3.03,4.96,-4.99,-4.99,-5.07,-1.95,-1.96,-1.93
302.53,3.05,4.98,3.05,4.98,-4.98,-4.98,-5.01,-1.93,-1.93,-1.94
305.55,3.06,4.99,3.06,4.99,-4.99,-4.97,-4.94,-1.93,-1.93,-1.93
308.61,3.07,5.00,3.07,5.00,-4.99,-4.96,-4.88,-1.93,-1.93,-1.93
311.69,3.08,5.01,3.09,5.03,-5.00,-4.95,-4.82,-1.92,-1.91,-1.94
314.81,3.10,5.04,3.10,5.04,-5.00,-4.94,-4.76,-1.90,-1.91,-1.94
317.96,3.11,5.05,3.08,5.02,-4.99,-4.93,-4.71,-1.89,-1.92,-1.94
321.14,3.03,4.97,3.04,4.99,-4.98,-4.92,-4.65,-1.96,-1.94,-1.95
324.35,2.99,4.93,3.01,4.95,-4.97,-4.90,-4.60,-1.98,-1.97,-1.94
327.59,2.99,4.93,2.98,4.92,-4.96,-4.89,-4.55,-1.97,-1.98,-1.94
330.87,2.98,4.92,2.98,4.92,-4.95,-4.88,-4.51,-1.97,-1.97,-1.94
334.18,2.98,4.93,2.98,4.93,-4.93,-4.86,-4.46,-1.95,-1.95,-1.95
337.52,2.98,4.93,2.99,4.94,-4.91,-4.85,-4.42,-1.93,-1.92,-1.95
340.90,2.99,4.94,2.98,4.93,-4.90,-4.84,-4.39,-1.91,-1.91,-1.95
344.30,2.98,4.92,2.96,4.90,-4.88,-4.82,-4.35,-1.91,-1.93,-1.95
347.75,2.91,4.85,2.92,4.87,-4.88,-4.81,-4.32,-1.97,-1.95,-1.94
351.23,2.88,4.83,2.89,4.83,-4.86,-4.79,-4.29,-1.99,-1.97,-1.95
354.74,2.89,4.82,2.88,4.82,-4.85,-4.77,-4.27,-1.96,-1.97,-1.93
358.28,2.89,4.82,2.89,4.82,-4.83,-4.76,-4.25,-1.94,-1.94,-1.93
361.87,2.90,4.82,2.90,4.83,-4.81,-4.74,-4.23,-1.91,-1.91,-1.93
365.49,2.90,4.82,2.90,4.82,-4.79,-4.72,-4.22,-1.90,-1.89,-1.92
369.14,2.91,4.83,2.89,4.80,-4.78,-4.71,-4.21,-1.87,-1.89,-1.92
372.83,2.85,4.75,2.86,4.77,-4.76,-4.69,-4.20,-1.91,-1.90,-1.90
376.56,2.83,4.73,2.82,4.72,-4.73,-4.67,-4.20,-1.91,-1.92,-1.90
380.33,2.77,4.67,2.78,4.68,-4.71,-4.65,-4.20,-1.94,-1.93,-1.91
384.13,2.75,4.66,2.77,4.67,-4.68,-4.63,-4.20,-1.93,-1.91,-1.91
387.97,2.76,4.67,2.75,4.65,-4.65,-4.61,-4.20,-1.89,-1.91,-1.91
391.85,2.75,4.65,2.73,4.63,-4.63,-4.59,-4.21,-1.88,-1.91,-1.90
395.77,2.68,4.59,2.70,4.60,-4.61,-4.56,-4.22,-1.93,-1.92,-1.91
399.73,2.66,4.57,2.67,4.58,-4.59,-4.54,-4.23,-1.93,-1.92,-1.91
403.72,2.66,4.57,2.66,4.58,-4.57,-4.52,-4.24,-1.91,-1.92,-1.91
407.76,2.66,4.59,2.64,4.57,-4.55,-4.50,-4.26,-1.89,-1.90,-1.94
411.84,2.61,4.55,2.61,4.54,-4.52,-4.47,-4.27,-1.91,-1.91,-1.94
415.96,2.56,4.50,2.55,4.50,-4.49,-4.45,-4.29,-1.93,-1.94,-1.94
420.12,2.49,4.44,2.50,4.45,-4.46,-4.42,-4.31,-1.97,-1.96,-1.95
424.32,2.47,4.41,2.48,4.42,-4.43,-4.40,-4.33,-1.97,-1.95,-1.94
428.56,2.48,4.41,2.47,4.40,-4.41,-4.37,-4.35,-1.93,-1.94,-1.93
432.85,2.48,4.39,2.46,4.38,-4.39,-4.34,-4.36,-1.91,-1.93,-1.91
437.18,2.44,4.34,2.46,4.35,-4.36,-4.32,-4.38,-1.92,-1.90,-1.90
441.55,2.46,4.32,2.46,4.33,-4.34,-4.29,-4.40,-1.88,-1.87,-1.86
445.96,2.50,4.32,2.51,4.33,-4.32,-4.26,-4.41,-1.82,-1.81,-1.83
450.42,2.55,4.32,2.55,4.32,-4.30,-4.23,-4.43,-1.75,-1.75,-1.78
454.93,2.61,4.34,2.56,4.29,-4.27,-4.20,-4.44,-1.66,-1.71,-1.73
459.48,2.54,4.21,2.56,4.23,-4.24,-4.17,-4.45,-1.71,-1.68,-1.67
464.07,2.55,4.17,2.57,4.19,-4.21,-4.14,-4.45,-1.66,-1.64,-1.62
468.71,2.59,4.16,2.60,4.16,-4.17,-4.10,-4.45,-1.58,-1.57,-1.57
473.40,2.66,4.17,2.64,4.15,-4.13,-4.07,-4.45,-1.47,-1.49,-1.51
478.13,2.69,4.14,2.66,4.11,-4.09,-4.04,-4.44,-1.40,-1.43,-1.45
482.91,2.63,4.03,2.65,4.05,-4.05,-4.00,-4.43,-1.42,-1.40,-1.40
487.74,2.62,3.98,2.64,4.00,-4.01,-3.97,-4.42,-1.40,-1.38,-1.36
492.62,2.64,3.96,2.64,3.96,-3.98,-3.93,-4.40,-1.34,-1.34,-1.32
497.55,2.67,3.95,2.65,3.93,-3.95,-3.89,-4.37,-1.28,-1.30,-1.28
502.52,2.64,3.90,2.65,3.91,-3.91,-3.85,-4.34,-1.27,-1.26,-1.26
507.55,2.63,3.86,2.64,3.88,-3.87,-3.82,-4.30,-1.24,-1.23,-1.23
512.62,2.64,3.86,2.62,3.84,-3.83,-3.78,-4.26,-1.20,-1.22,-1.23
517.75,2.57,3.79,2.59,3.81,-3.80,-3.73,-4.21,-1.23,-1.21,-1.23
