frequency,raw,error,smoothed,error_smoothed,equalization,parametric_eq,fixed_band_eq,equalized_raw,equalized_smoothed,target
20.00,-0.74,-8.92,-0.75,-8.93,6.00,6.23,2.74,5.26,5.25,8.18
20.20,-0.67,-8.83,-0.67,-8.83,6.00,6.22,2.82,5.33,5.33,8.16
20.40,-0.59,-8.73,-0.59,-8.74,6.00,6.22,2.90,5.41,5.41,8.14
20.61,-0.52,-8.65,-0.52,-8.65,6.00,6.21,2.98,5.48,5.48,8.13
20.81,-0.45,-8.56,-0.45,-8.56,6.00,6.20,3.07,5.55,5.55,8.11
21.02,-0.38,-8.48,-0.39,-8.48,6.00,6.20,3.16,5.62,5.61,8.10
21.23,-0.33,-8.41,-0.33,-8.41,6.00,6.19,3.24,5.67,5.67,8.08
21.44,-0.29,-8.36,-0.29,-8.35,6.00,6.19,3.34,5.71,5.71,8.07
21.66,-0.24,-8.30,-0.24,-8.29,6.00,6.18,3.43,5.76,5.76,8.05
21.87,-0.20,-8.23,-0.20,-8.24,6.00,6.17,3.53,5.80,5.80,8.03
22.09,-0.15,-8.17,-0.16,-8.18,6.00,6.17,3.63,5.85,5.84,8.02
22.31,-0.12,-8.13,-0.12,-8.13,6.00,6.16,3.74,5.88,5.88,8.01
22.54,-0.08,-8.08,-0.09,-8.09,6.00,6.15,3.84,5.92,5.91,8.00
22.76,-0.05,-8.04,-0.05,-8.04,6.00,6.14,3.95,5.95,5.95,7.99
22.99,-0.01,-7.99,-0.00,-7.98,6.00,6.14,4.06,5.99,6.00,7.98
23.22,0.05,-7.92,0.05,-7.92,6.00,6.13,4.18,6.05,6.05,7.97
23.45,0.12,-7.85,0.11,-7.85,6.00,6.12,4.29,6.12,6.11,7.97
23.69,0.18,-7.78,0.18,-7.78,6.00,6.11,4.42,6.18,6.18,7.95
23.92,0.25,-7.70,0.25,-7.71,6.00,6.11,4.54,6.25,6.25,7.95
24.16,0.31,-7.64,0.31,-7.64,6.00,6.10,4.66,6.31,6.31,7.95
24.40,0.38,-7.57,0.38,-7.57,6.00,6.09,4.79,6.38,6.38,7.95
24.65,0.44,-7.51,0.44,-7.51,6.00,6.08,4.92,6.44,6.44,7.95
24.89,0.50,-7.45,0.50,-7.45,6.00,6.07,5.05,6.50,6.50,7.95
25.14,0.56,-7.39,0.56,-7.39,6.00,6.06,5.18,6.56,6.56,7.94
25.39,0.61,-7.33,0.61,-7.33,6.00,6.06,5.31,6.61,6.61,7.94
25.65,0.66,-7.28,0.66,-7.28,6.00,6.05,5.44,6.66,6.66,7.94
25.91,0.71,-7.24,0.70,-7.25,6.00,6.04,5.58,6.71,6.70,7.95
26.16,0.73,-7.22,0.72,-7.22,6.00,6.03,5.71,6.73,6.72,7.95
26.43,0.73,-7.22,0.73,-7.21,6.00,6.02,5.85,6.73,6.73,7.95
26.69,0.74,-7.21,0.73,-7.21,6.00,6.01,5.98,6.74,6.73,7.94
26.96,0.74,-7.20,0.75,-7.20,6.00,6.00,6.11,6.74,6.75,7.94
27.23,0.77,-7.17,0.77,-7.17,6.00,5.99,6.24,6.77,6.77,7.94
27.50,0.81,-7.13,0.80,-7.13,6.00,5.98,6.36,6.81,6.80,7.94
27.77,0.85,-7.09,0.85,-7.09,6.00,5.97,6.48,6.85,6.85,7.93
28.05,0.89,-7.04,0.89,-7.03,6.00,5.96,6.60,6.89,6.89,7.93
28.33,0.95,-6.97,0.94,-6.98,6.00,5.94,6.71,6.95,6.94,7.92
28.62,1.00,-6.92,1.00,-6.92,6.00,5.93,6.82,7.00,7.00,7.92
28.90,1.06,-6.85,1.06,-6.85,6.00,5.92,6.91,7.06,7.06,7.91
29.19,1.13,-6.78,1.13,-6.78,6.00,5.91,7.01,7.13,7.13,7.91
29.48,1.20,-6.71,1.21,-6.70,6.00,5.90,7.09,7.20,7.21,7.91
29.78,1.28,-6.63,1.27,-6.64,6.00,5.89,7.16,7.28,7.27,7.90
30.08,1.32,-6.58,1.30,-6.60,6.00,5.87,7.22,7.32,7.30,7.90
30.38,1.28,-6.62,1.28,-6.62,6.00,5.86,7.27,7.28,7.28,7.90
30.68,1.25,-6.64,1.25,-6.64,6.00,5.85,7.31,7.25,7.25,7.88
30.99,1.21,-6.67,1.24,-6.63,6.00,5.83,7.34,7.21,7.24,7.88
31.30,1.30,-6.57,1.30,-6.57,6.00,5.82,7.36,7.30,7.30,7.87
31.61,1.40,-6.46,1.39,-6.47,6.00,5.81,7.36,7.40,7.39,7.86
31.93,1.50,-6.36,1.48,-6.38,6.00,5.79,7.35,7.50,7.48,7.86
32.24,1.53,-6.32,1.53,-6.32,6.00,5.78,7.34,7.53,7.53,7.84
32.57,1.54,-6.30,1.55,-6.29,6.00,5.76,7.31,7.54,7.55,7.84
32.89,1.56,-6.28,1.56,-6.28,6.00,5.75,7.27,7.56,7.56,7.84
33.22,1.57,-6.26,1.57,-6.26,6.00,5.73,7.22,7.57,7.57,7.83
33.55,1.59,-6.24,1.58,-6.25,6.00,5.72,7.17,7.59,7.59,7.83
33.89,1.60,-6.23,1.61,-6.22,6.01,5.70,7.10,7.60,7.61,7.83
34.23,1.64,-6.19,1.64,-6.18,6.01,5.69,7.03,7.65,7.65,7.83
34.57,1.69,-6.13,1.69,-6.14,6.00,5.67,6.95,7.69,7.69,7.82
34.92,1.74,-6.09,1.73,-6.09,6.00,5.65,6.86,7.73,7.73,7.82
35.27,1.78,-6.04,1.78,-6.04,5.99,5.64,6.77,7.76,7.77,7.82
35.62,1.82,-6.00,1.82,-6.00,5.97,5.62,6.68,7.79,7.79,7.82
35.97,1.87,-5.95,1.86,-5.96,5.95,5.60,6.58,7.82,7.81,7.82
36.33,1.89,-5.92,1.89,-5.92,5.93,5.58,6.48,7.82,7.82,7.81
36.70,1.92,-5.89,1.92,-5.88,5.91,5.56,6.38,7.83,7.83,7.80
37.06,1.94,-5.86,1.93,-5.86,5.88,5.54,6.28,7.82,7.82,7.80
37.43,1.94,-5.84,1.94,-5.84,5.86,5.52,6.18,7.79,7.80,7.78
37.81,1.95,-5.82,1.95,-5.82,5.82,5.51,6.07,7.77,7.77,7.77
38.19,1.96,-5.80,1.95,-5.80,5.78,5.49,5.97,7.73,7.73,7.75
38.57,1.97,-5.77,1.96,-5.77,5.73,5.46,5.87,7.70,7.69,7.74
38.95,1.98,-5.74,2.00,-5.72,5.68,5.44,5.77,7.66,7.68,7.72
39.34,2.06,-5.64,2.06,-5.64,5.62,5.42,5.67,7.68,7.69,7.70
39.74,2.15,-5.54,2.14,-5.55,5.57,5.40,5.58,7.72,7.71,7.69
40.14,2.21,-5.46,2.20,-5.47,5.53,5.38,5.49,7.74,7.73,7.67
40.54,2.22,-5.43,2.23,-5.43,5.48,5.36,5.40,7.70,7.71,7.65
40.94,2.23,-5.41,2.22,-5.42,5.44,5.33,5.31,7.67,7.66,7.64
41.35,2.21,-5.42,2.20,-5.42,5.40,5.31,5.23,7.61,7.61,7.63
41.76,2.18,-5.43,2.19,-5.42,5.37,5.28,5.15,7.55,7.57,7.61
42.18,2.20,-5.40,2.21,-5.39,5.34,5.26,5.07,7.54,7.55,7.60
42.60,2.26,-5.34,2.25,-5.34,5.32,5.23,5.00,7.58,7.57,7.60
43.03,2.32,-5.27,2.31,-5.27,5.29,5.21,4.93,7.61,7.60,7.58
43.46,2.36,-5.21,2.36,-5.22,5.26,5.18,4.87,7.61,7.62,7.57
43.90,2.39,-5.18,2.38,-5.19,5.21,5.16,4.80,7.60,7.59,7.57
44.33,2.39,-5.17,2.38,-5.18,5.17,5.13,4.75,7.56,7.55,7.55
44.78,2.37,-5.17,2.39,-5.16,5.13,5.10,4.69,7.50,7.52,7.54
45.23,2.40,-5.14,2.41,-5.12,5.09,5.07,4.64,7.49,7.51,7.54
45.68,2.47,-5.05,2.46,-5.06,5.06,5.04,4.59,7.53,7.52,7.52
46.13,2.52,-4.99,2.50,-5.01,5.03,5.01,4.55,7.55,7.53,7.51
46.60,2.52,-4.97,2.52,-4.97,5.00,4.98,4.51,7.52,7.52,7.49
47.06,2.52,-4.96,2.52,-4.96,4.96,4.95,4.47,7.47,7.47,7.47
47.53,2.52,-4.94,2.51,-4.94,4.91,4.92,4.44,7.43,7.43,7.46
48.01,2.52,-4.92,2.54,-4.89,4.87,4.89,4.41,7.39,7.41,7.44
48.49,2.58,-4.83,2.58,-4.83,4.82,4.86,4.38,7.40,7.41,7.41
48.97,2.65,-4.74,2.62,-4.77,4.78,4.82,4.36,7.43,7.40,7.39
49.46,2.65,-4.72,2.65,-4.72,4.74,4.79,4.33,7.38,7.38,7.37
49.96,2.65,-4.69,2.67,-4.68,4.69,4.75,4.31,7.34,7.36,7.34
50.46,2.68,-4.64,2.68,-4.64,4.65,4.72,4.30,7.33,7.33,7.32
50.96,2.71,-4.59,2.70,-4.60,4.61,4.68,4.28,7.32,7.31,7.30
51.47,2.71,-4.57,2.71,-4.57,4.58,4.65,4.27,7.29,7.29,7.28
51.99,2.71,-4.55,2.71,-4.55,4.55,4.61,4.26,7.26,7.26,7.26
52.51,2.71,-4.52,2.71,-4.52,4.52,4.57,4.24,7.23,7.23,7.23
53.03,2.71,-4.50,2.71,-4.50,4.48,4.53,4.23,7.19,7.18,7.21
53.56,2.72,-4.46,2.72,-4.47,4.43,4.49,4.23,7.15,7.15,7.18
54.10,2.73,-4.43,2.75,-4.41,4.38,4.45,4.22,7.11,7.13,7.16
54.64,2.80,-4.33,2.79,-4.34,4.33,4.41,4.21,7.13,7.12,7.13
55.18,2.85,-4.25,2.84,-4.26,4.28,4.37,4.20,7.13,7.12,7.10
55.74,2.88,-4.20,2.88,-4.19,4.22,4.32,4.19,7.10,7.10,7.07
56.29,2.90,-4.15,2.90,-4.15,4.17,4.28,4.17,7.07,7.07,7.04
56.86,2.90,-4.12,2.90,-4.11,4.13,4.23,4.16,7.03,7.03,7.01
57.42,2.90,-4.08,2.90,-4.09,4.09,4.19,4.14,6.99,6.99,6.98
58.00,2.90,-4.06,2.90,-4.06,4.06,4.14,4.12,6.96,6.96,6.96
58.58,2.90,-4.03,2.90,-4.03,4.03,4.09,4.10,6.92,6.92,6.93
59.16,2.90,-3.99,2.90,-4.00,3.99,4.05,4.08,6.89,6.88,6.89
59.76,2.90,-3.96,2.90,-3.96,3.94,4.00,4.05,6.84,6.84,6.86
60.35,2.91,-3.91,2.91,-3.91,3.88,3.95,4.02,6.79,6.79,6.82
60.96,2.93,-3.86,2.94,-3.85,3.82,3.89,3.98,6.75,6.76,6.78
61.57,2.99,-3.76,2.99,-3.76,3.76,3.84,3.94,6.74,6.74,6.75
62.18,3.04,-3.67,3.03,-3.67,3.69,3.79,3.90,6.73,6.72,6.71
62.80,3.08,-3.58,3.07,-3.59,3.62,3.73,3.85,6.70,6.69,6.66
63.43,3.09,-3.53,3.09,-3.53,3.55,3.68,3.80,6.64,6.64,6.62
64.07,3.09,-3.49,3.09,-3.48,3.49,3.62,3.74,6.58,6.58,6.57
64.71,3.09,-3.43,3.09,-3.43,3.43,3.56,3.68,6.52,6.52,6.52
65.35,3.09,-3.39,3.09,-3.39,3.38,3.51,3.62,6.46,6.46,6.48
66.01,3.09,-3.33,3.09,-3.33,3.33,3.45,3.55,6.42,6.42,6.42
66.67,3.09,-3.28,3.09,-3.28,3.28,3.39,3.47,6.37,6.37,6.37
67.33,3.09,-3.23,3.09,-3.23,3.24,3.32,3.40,6.33,6.33,6.32
68.01,3.09,-3.18,3.09,-3.18,3.19,3.26,3.31,6.28,6.28,6.27
68.69,3.09,-3.12,3.09,-3.12,3.13,3.20,3.23,6.22,6.22,6.21
69.37,3.09,-3.07,3.08,-3.07,3.06,3.13,3.14,6.15,6.14,6.15
70.07,3.09,-3.00,3.08,-3.02,2.98,3.07,3.05,6.07,6.06,6.09
70.77,3.08,-2.96,3.09,-2.94,2.90,3.00,2.96,5.98,5.99,6.04
71.48,3.13,-2.85,3.14,-2.84,2.81,2.93,2.87,5.94,5.96,5.98
72.19,3.21,-2.71,3.21,-2.71,2.73,2.86,2.77,5.93,5.93,5.92
72.91,3.29,-2.57,3.26,-2.60,2.64,2.79,2.67,5.93,5.90,5.86
73.64,3.29,-2.51,3.29,-2.51,2.55,2.72,2.57,5.84,5.84,5.80
74.38,3.28,-2.46,3.29,-2.45,2.47,2.65,2.47,5.75,5.76,5.74
75.12,3.28,-2.39,3.28,-2.40,2.39,2.58,2.37,5.67,5.67,5.67
75.87,3.28,-2.33,3.28,-2.33,2.32,2.50,2.27,5.60,5.60,5.61
76.63,3.28,-2.27,3.28,-2.27,2.26,2.42,2.17,5.53,5.53,5.55
77.40,3.28,-2.20,3.28,-2.20,2.20,2.35,2.07,5.48,5.48,5.48
78.17,3.28,-2.14,3.28,-2.14,2.14,2.27,1.96,5.41,5.41,5.42
78.95,3.28,-2.07,3.28,-2.07,2.07,2.19,1.86,5.35,5.35,5.35
79.74,3.28,-2.00,3.28,-2.00,2.01,2.11,1.76,5.28,5.28,5.28
80.54,3.28,-1.94,3.28,-1.94,1.94,2.03,1.66,5.21,5.21,5.21
81.35,3.28,-1.87,3.28,-1.87,1.86,1.95,1.55,5.14,5.14,5.14
82.16,3.28,-1.80,3.28,-1.80,1.79,1.87,1.45,5.07,5.07,5.07
82.98,3.28,-1.72,3.28,-1.72,1.73,1.78,1.35,5.00,5.00,5.00
83.81,3.28,-1.65,3.28,-1.65,1.66,1.70,1.25,4.93,4.93,4.93
84.65,3.28,-1.58,3.28,-1.57,1.58,1.61,1.15,4.86,4.86,4.86
85.50,3.28,-1.49,3.28,-1.50,1.51,1.53,1.05,4.79,4.79,4.77
86.35,3.28,-1.42,3.27,-1.43,1.43,1.44,0.95,4.70,4.70,4.70
87.22,3.27,-1.35,3.26,-1.36,1.34,1.35,0.85,4.61,4.60,4.62
88.09,3.25,-1.30,3.27,-1.27,1.25,1.27,0.76,4.50,4.52,4.54
88.97,3.29,-1.18,3.30,-1.16,1.15,1.18,0.66,4.44,4.45,4.47
89.86,3.37,-1.01,3.34,-1.04,1.05,1.09,0.56,4.41,4.39,4.38
90.76,3.38,-0.92,3.37,-0.92,0.93,1.00,0.47,4.31,4.31,4.30
91.66,3.39,-0.82,3.39,-0.82,0.82,0.90,0.37,4.21,4.21,4.21
92.58,3.39,-0.74,3.41,-0.72,0.70,0.81,0.27,4.09,4.11,4.13
93.51,3.44,-0.60,3.45,-0.59,0.59,0.72,0.18,4.03,4.04,4.04
94.44,3.50,-0.45,3.48,-0.47,0.48,0.63,0.08,3.98,3.96,3.95
95.39,3.51,-0.34,3.50,-0.36,0.38,0.53,-0.01,3.89,3.88,3.85
96.34,3.48,-0.28,3.49,-0.27,0.28,0.44,-0.10,3.76,3.77,3.76
97.30,3.47,-0.19,3.47,-0.19,0.19,0.35,-0.20,3.66,3.66,3.66
98.28,3.46,-0.11,3.46,-0.11,0.10,0.25,-0.29,3.55,3.55,3.56
99.26,3.45,-0.01,3.44,-0.02,0.01,0.16,-0.38,3.45,3.45,3.46
100.25,3.43,0.07,3.43,0.07,-0.08,0.06,-0.47,3.35,3.35,3.36
101.25,3.41,0.16,3.41,0.16,-0.16,-0.03,-0.56,3.24,3.25,3.25
102.27,3.40,0.25,3.40,0.25,-0.25,-0.13,-0.65,3.15,3.15,3.15
103.29,3.39,0.34,3.38,0.34,-0.34,-0.22,-0.74,3.05,3.05,3.04
104.32,3.37,0.43,3.37,0.43,-0.42,-0.32,-0.83,2.94,2.94,2.94
105.37,3.34,0.50,3.34,0.51,-0.51,-0.41,-0.91,2.83,2.83,2.83
106.42,3.32,0.60,3.32,0.59,-0.59,-0.51,-1.00,2.73,2.73,2.72
107.48,3.30,0.68,3.29,0.67,-0.67,-0.60,-1.08,2.63,2.62,2.62
108.56,3.27,0.75,3.27,0.76,-0.75,-0.70,-1.16,2.52,2.52,2.52
109.64,3.25,0.83,3.25,0.83,-0.83,-0.79,-1.25,2.42,2.41,2.42
110.74,3.23,0.92,3.23,0.91,-0.91,-0.89,-1.33,2.31,2.31,2.31
111.85,3.21,0.99,3.21,0.99,-1.00,-0.98,-1.40,2.21,2.21,2.22
112.97,3.20,1.07,3.20,1.08,-1.08,-1.08,-1.48,2.12,2.12,2.13
114.10,3.20,1.17,3.20,1.17,-1.17,-1.17,-1.55,2.03,2.03,2.03
115.24,3.20,1.26,3.20,1.26,-1.26,-1.26,-1.63,1.94,1.94,1.94
116.39,3.20,1.35,3.20,1.35,-1.35,-1.36,-1.70,1.85,1.85,1.85
117.55,3.20,1.43,3.20,1.44,-1.44,-1.45,-1.76,1.76,1.76,1.77
118.73,3.21,1.53,3.20,1.53,-1.53,-1.54,-1.83,1.68,1.68,1.67
119.92,3.21,1.61,3.21,1.62,-1.62,-1.63,-1.89,1.59,1.59,1.59
121.12,3.22,1.70,3.22,1.71,-1.71,-1.72,-1.95,1.51,1.51,1.51
122.33,3.23,1.79,3.23,1.79,-1.79,-1.81,-2.00,1.44,1.43,1.43
123.55,3.24,1.88,3.24,1.88,-1.88,-1.90,-2.06,1.36,1.36,1.36
124.79,3.24,1.96,3.24,1.97,-1.96,-1.99,-2.11,1.27,1.28,1.28
126.03,3.25,2.05,3.25,2.05,-2.05,-2.07,-2.16,1.20,1.20,1.20
127.29,3.26,2.13,3.26,2.13,-2.13,-2.16,-2.20,1.13,1.12,1.12
128.57,3.26,2.21,3.26,2.21,-2.21,-2.25,-2.24,1.05,1.05,1.05
129.85,3.27,2.29,3.27,2.29,-2.29,-2.33,-2.28,0.98,0.97,0.97
131.15,3.27,2.37,3.27,2.37,-2.37,-2.41,-2.32,0.90,0.90,0.90
132.46,3.28,2.45,3.28,2.45,-2.45,-2.50,-2.36,0.83,0.83,0.83
133.79,3.28,2.52,3.28,2.53,-2.52,-2.58,-2.39,0.75,0.76,0.76
135.12,3.29,2.60,3.29,2.60,-2.60,-2.66,-2.42,0.69,0.68,0.68
136.48,3.29,2.67,3.29,2.67,-2.68,-2.74,-2.45,0.61,0.61,0.61
137.84,3.29,2.74,3.29,2.75,-2.75,-2.82,-2.48,0.54,0.54,0.55
139.22,3.30,2.83,3.30,2.82,-2.83,-2.89,-2.51,0.47,0.47,0.47
140.61,3.30,2.90,3.30,2.90,-2.90,-2.97,-2.53,0.40,0.40,0.40
142.02,3.30,2.97,3.30,2.97,-2.97,-3.04,-2.56,0.33,0.33,0.33
143.44,3.30,3.05,3.30,3.05,-3.04,-3.12,-2.58,0.25,0.25,0.25
144.87,3.30,3.12,3.30,3.12,-3.12,-3.19,-2.61,0.18,0.18,0.18
146.32,3.30,3.18,3.30,3.19,-3.19,-3.26,-2.63,0.11,0.11,0.12
147.78,3.30,3.25,3.30,3.25,-3.26,-3.33,-2.66,0.04,0.04,0.04
149.26,3.30,3.32,3.30,3.32,-3.32,-3.40,-2.68,-0.02,-0.02,-0.03
150.75,3.30,3.39,3.30,3.39,-3.39,-3.47,-2.71,-0.09,-0.09,-0.09
152.26,3.30,3.46,3.30,3.46,-3.45,-3.53,-2.74,-0.16,-0.16,-0.16
153.78,3.30,3.52,3.30,3.52,-3.52,-3.60,-2.77,-0.22,-0.22,-0.22
155.32,3.30,3.58,3.30,3.58,-3.59,-3.66,-2.80,-0.29,-0.29,-0.28
156.88,3.30,3.65,3.30,3.64,-3.65,-3.73,-2.83,-0.35,-0.35,-0.35
158.44,3.30,3.71,3.30,3.71,-3.71,-3.79,-2.86,-0.41,-0.41,-0.41
160.03,3.30,3.77,3.30,3.78,-3.77,-3.85,-2.90,-0.48,-0.48,-0.47
161.63,3.30,3.84,3.30,3.84,-3.83,-3.90,-2.93,-0.54,-0.54,-0.54
163.24,3.30,3.90,3.30,3.90,-3.89,-3.96,-2.97,-0.59,-0.60,-0.60
164.88,3.29,3.95,3.29,3.95,-3.95,-4.02,-3.01,-0.66,-0.66,-0.66
166.53,3.29,4.01,3.29,4.00,-4.00,-4.07,-3.06,-0.71,-0.72,-0.72
168.19,3.28,4.05,3.28,4.05,-4.05,-4.13,-3.10,-0.77,-0.77,-0.77
169.87,3.27,4.10,3.27,4.10,-4.10,-4.18,-3.15,-0.83,-0.83,-0.83
171.57,3.27,4.15,3.27,4.15,-4.15,-4.23,-3.20,-0.88,-0.88,-0.88
173.29,3.26,4.19,3.26,4.19,-4.19,-4.28,-3.25,-0.93,-0.93,-0.94
175.02,3.26,4.24,3.25,4.24,-4.24,-4.33,-3.31,-0.98,-0.98,-0.98
176.77,3.25,4.28,3.25,4.28,-4.28,-4.37,-3.37,-1.03,-1.03,-1.03
178.54,3.25,4.33,3.25,4.32,-4.33,-4.42,-3.43,-1.08,-1.07,-1.08
180.32,3.26,4.37,3.25,4.37,-4.37,-4.46,-3.49,-1.11,-1.12,-1.12
182.13,3.26,4.41,3.26,4.41,-4.41,-4.51,-3.56,-1.16,-1.15,-1.15
183.95,3.27,4.46,3.27,4.46,-4.46,-4.55,-3.63,-1.19,-1.19,-1.19
185.79,3.28,4.50,3.28,4.51,-4.51,-4.59,-3.70,-1.23,-1.23,-1.22
187.65,3.30,4.56,3.29,4.55,-4.56,-4.63,-3.77,-1.26,-1.26,-1.26
189.52,3.31,4.60,3.31,4.60,-4.61,-4.67,-3.85,-1.30,-1.30,-1.29
191.42,3.32,4.63,3.32,4.64,-4.65,-4.70,-3.93,-1.33,-1.33,-1.31
193.33,3.34,4.68,3.34,4.69,-4.69,-4.74,-4.01,-1.35,-1.35,-1.35
195.27,3.36,4.74,3.37,4.74,-4.72,-4.77,-4.09,-1.37,-1.36,-1.38
197.22,3.39,4.79,3.38,4.78,-4.75,-4.81,-4.18,-1.37,-1.38,-1.41
199.19,3.39,4.82,3.36,4.80,-4.78,-4.84,-4.27,-1.39,-1.41,-1.44
201.18,3.32,4.78,3.34,4.80,-4.80,-4.87,-4.35,-1.48,-1.46,-1.46
203.19,3.30,4.79,3.31,4.80,-4.82,-4.90,-4.44,-1.52,-1.51,-1.49
205.23,3.30,4.81,3.29,4.81,-4.83,-4.93,-4.53,-1.54,-1.54,-1.52
207.28,3.30,4.84,3.30,4.84,-4.85,-4.96,-4.63,-1.55,-1.55,-1.54
209.35,3.30,4.86,3.30,4.86,-4.87,-4.98,-4.72,-1.57,-1.57,-1.57
211.44,3.29,4.89,3.29,4.89,-4.89,-5.01,-4.81,-1.60,-1.60,-1.60
213.56,3.29,4.91,3.29,4.91,-4.92,-5.03,-4.90,-1.63,-1.63,-1.62
215.69,3.29,4.94,3.28,4.94,-4.94,-5.05,-4.99,-1.65,-1.66,-1.66
217.85,3.28,4.96,3.28,4.96,-4.96,-5.08,-5.08,-1.68,-1.68,-1.68
220.03,3.28,4.99,3.28,4.99,-4.97,-5.10,-5.16,-1.69,-1.69,-1.71
222.23,3.28,5.01,3.28,5.01,-4.98,-5.12,-5.25,-1.70,-1.70,-1.73
224.45,3.28,5.03,3.25,5.00,-4.98,-5.13,-5.33,-1.71,-1.73,-1.75
226.70,3.22,4.99,3.21,4.98,-4.99,-5.15,-5.40,-1.77,-1.77,-1.77
228.96,3.15,4.93,3.18,4.97,-5.00,-5.17,-5.48,-1.85,-1.81,-1.79
231.25,3.18,4.97,3.17,4.97,-5.01,-5.18,-5.55,-1.83,-1.83,-1.79
233.57,3.20,5.01,3.19,5.00,-5.02,-5.20,-5.61,-1.82,-1.83,-1.81
235.90,3.22,5.05,3.22,5.04,-5.04,-5.21,-5.67,-1.82,-1.82,-1.83
238.26,3.23,5.06,3.23,5.06,-5.06,-5.22,-5.72,-1.83,-1.83,-1.83
240.64,3.25,5.09,3.25,5.09,-5.08,-5.23,-5.76,-1.83,-1.84,-1.84
243.05,3.26,5.10,3.28,5.13,-5.10,-5.24,-5.80,-1.84,-1.82,-1.84
245.48,3.31,5.16,3.30,5.15,-5.12,-5.25,-5.83,-1.81,-1.82,-1.85
247.93,3.34,5.19,3.30,5.15,-5.13,-5.26,-5.85,-1.79,-1.83,-1.85
250.41,3.25,5.10,3.28,5.14,-5.14,-5.27,-5.86,-1.89,-1.85,-1.86
252.92,3.25,5.11,3.26,5.12,-5.14,-5.27,-5.87,-1.89,-1.88,-1.86
255.45,3.26,5.13,3.25,5.12,-5.15,-5.28,-5.87,-1.89,-1.90,-1.87
258.00,3.27,5.14,3.27,5.14,-5.16,-5.28,-5.86,-1.89,-1.89,-1.87
260.58,3.27,5.15,3.27,5.16,-5.16,-5.29,-5.85,-1.89,-1.89,-1.89
263.19,3.28,5.18,3.27,5.17,-5.16,-5.29,-5.83,-1.88,-1.89,-1.90
265.82,3.27,5.19,3.28,5.20,-5.16,-5.29,-5.80,-1.90,-1.88,-1.92
268.48,3.27,5.20,3.27,5.20,-5.17,-5.29,-5.76,-1.90,-1.90,-1.93
271.16,3.27,5.22,3.23,5.18,-5.18,-5.29,-5.72,-1.91,-1.95,-1.95
273.87,3.18,5.14,3.20,5.16,-5.19,-5.29,-5.68,-2.01,-1.99,-1.96
276.61,3.14,5.12,3.16,5.14,-5.18,-5.29,-5.63,-2.04,-2.02,-1.98
279.38,3.16,5.16,3.15,5.14,-5.17,-5.28,-5.58,-2.01,-2.02,-2.00
282.17,3.17,5.17,3.19,5.19,-5.15,-5.28,-5.52,-1.98,-1.97,-2.01
284.99,3.19,5.20,3.19,5.20,-5.13,-5.28,-5.46,-1.95,-1.94,-2.01
287.84,3.22,5.23,3.14,5.16,-5.12,-5.27,-5.40,-1.90,-1.98,-2.01
290.72,3.03,5.05,3.08,5.10,-5.10,-5.26,-5.34,-2.07,-2.03,-2.02
293.63,2.98,5.01,3.02,5.04,-5.09,-5.26,-5.27,-2.11,-2.07,-2.03
296.57,3.02,5.04,3.00,5.02,-5.08,-5.25,-5.21,-2.06,-2.09,-2.03
299.53,3.04,5.06,3.03,5.05,-5.08,-5.24,-5.15,-2.04,-2.05,-2.02
302.53,3.05,5.08,3.05,5.08,-5.08,-5.23,-5.08,-2.03,-2.03,-2.03
305.55,3.06,5.09,3.06,5.09,-5.08,-5.22,-5.02,-2.03,-2.03,-2.03
308.61,3.07,5.10,3.07,5.10,-5.09,-5.21,-4.96,-2.03,-2.03,-2.03
311.69,3.08,5.12,3.09,5.13,-5.10,-5.20,-4.90,-2.02,-2.01,-2.04
314.81,3.10,5.14,3.10,5.14,-5.11,-5.19,-4.84,-2.01,-2.01,-2.05
317.96,3.11,5.16,3.08,5.13,-5.10,-5.17,-4.79,-1.99,-2.03,-2.05
321.14,3.03,5.08,3.04,5.10,-5.09,-5.16,-4.73,-2.07,-2.05,-2.06
324.35,2.99,5.04,3.01,5.06,-5.09,-5.14,-4.68,-2.10,-2.08,-2.05
327.59,2.99,5.05,2.98,5.04,-5.08,-5.13,-4.63,-2.09,-2.10,-2.06
330.87,2.98,5.04,2.98,5.04,-5.06,-5.11,-4.59,-2.08,-2.09,-2.06
334.18,2.98,5.04,2.98,5.05,-5.05,-5.10,-4.55,-2.07,-2.07,-2.07
337.52,2.98,5.05,2.99,5.06,-5.03,-5.08,-4.51,-2.05,-2.04,-2.07
340.90,2.99,5.06,2.98,5.05,-5.02,-5.06,-4.47,-2.03,-2.04,-2.08
344.30,2.98,5.05,2.96,5.03,-5.01,-5.04,-4.44,-2.03,-2.05,-2.07
347.75,2.91,4.97,2.92,4.99,-5.00,-5.03,-4.41,-2.09,-2.08,-2.06
351.23,2.88,4.96,2.89,4.96,-4.99,-5.01,-4.39,-2.11,-2.10,-2.08
354.74,2.89,4.95,2.88,4.95,-4.98,-4.99,-4.36,-2.09,-2.10,-2.06
358.28,2.89,4.95,2.89,4.95,-4.96,-4.97,-4.34,-2.07,-2.08,-2.07
361.87,2.90,4.96,2.90,4.96,-4.95,-4.94,-4.33,-2.05,-2.04,-2.06
365.49,2.90,4.95,2.90,4.96,-4.93,-4.92,-4.32,-2.03,-2.03,-2.05
369.14,2.91,4.96,2.89,4.94,-4.91,-4.90,-4.31,-2.00,-2.02,-2.06
372.83,2.85,4.89,2.86,4.90,-4.89,-4.88,-4.30,-2.05,-2.03,-2.04
376.56,2.83,4.87,2.82,4.86,-4.87,-4.86,-4.30,-2.04,-2.05,-2.04
380.33,2.77,4.81,2.78,4.82,-4.85,-4.83,-4.30,-2.08,-2.07,-2.04
384.13,2.75,4.80,2.77,4.81,-4.82,-4.81,-4.31,-2.07,-2.05,-2.05
387.97,2.76,4.81,2.75,4.79,-4.80,-4.79,-4.31,-2.04,-2.05,-2.05
391.85,2.75,4.79,2.73,4.77,-4.78,-4.76,-4.32,-2.03,-2.05,-2.04
395.77,2.68,4.73,2.70,4.75,-4.76,-4.74,-4.33,-2.08,-2.06,-2.06
399.73,2.66,4.72,2.67,4.73,-4.74,-4.71,-4.35,-2.08,-2.07,-2.06
403.72,2.66,4.72,2.66,4.72,-4.72,-4.69,-4.36,-2.06,-2.06,-2.06
407.76,2.66,4.74,2.64,4.72,-4.69,-4.66,-4.38,-2.04,-2.05,-2.08
411.84,2.61,4.69,2.61,4.69,-4.67,-4.63,-4.40,-2.06,-2.06,-2.08
415.96,2.56,4.65,2.55,4.64,-4.64,-4.61,-4.42,-2.08,-2.09,-2.09
420.12,2.49,4.59,2.50,4.60,-4.61,-4.58,-4.44,-2.12,-2.11,-2.10
424.32,2.47,4.56,2.48,4.57,-4.59,-4.55,-4.46,-2.12,-2.10,-2.09
428.56,2.48,4.56,2.47,4.55,-4.56,-4.53,-4.48,-2.08,-2.10,-2.08
432.85,2.48,4.54,2.46,4.53,-4.54,-4.50,-4.50,-2.06,-2.08,-2.06
437.18,2.44,4.49,2.46,4.51,-4.51,-4.47,-4.53,-2.08,-2.06,-2.06
441.55,2.46,4.48,2.46,4.48,-4.49,-4.45,-4.54,-2.03,-2.03,-2.02
445.96,2.50,4.48,2.51,4.49,-4.47,-4.42,-4.56,-1.97,-1.97,-1.98
450.42,2.55,4.48,2.55,4.48,-4.45,-4.39,-4.58,-1.90,-1.90,-1.93
454.93,2.61,4.49,2.56,4.44,-4.43,-4.36,-4.59,-1.82,-1.86,-1.88
459.48,2.54,4.36,2.56,4.39,-4.40,-4.34,-4.60,-1.86,-1.84,-1.82
464.07,2.55,4.32,2.57,4.34,-4.37,-4.31,-4.61,-1.82,-1.80,-1.78
468.71,2.59,4.32,2.60,4.32,-4.33,-4.28,-4.62,-1.74,-1.73,-1.73
473.40,2.66,4.33,2.64,4.31,-4.29,-4.25,-4.62,-1.63,-1.65,-1.67
478.13,2.69,4.30,2.66,4.27,-4.25,-4.22,-4.61,-1.56,-1.59,-1.61
482.91,2.63,4.19,2.65,4.21,-4.21,-4.19,-4.60,-1.58,-1.56,-1.56
487.74,2.62,4.14,2.64,4.16,-4.17,-4.16,-4.59,-1.55,-1.53,-1.52
492.62,2.64,4.12,2.64,4.12,-4.14,-4.13,-4.57,-1.50,-1.50,-1.48
497.55,2.67,4.11,2.65,4.09,-4.11,-4.10,-4.54,-1.44,-1.46,-1.44
502.52,2.64,4.06,2.65,4.07,-4.07,-4.06,-4.51,-1.43,-1.42,-1.43
507.55,2.63,4.02,2.64,4.04,-4.03,-4.03,-4.48,-1.40,-1.39,-1.40
512.62,2.64,4.03,2.62,4.00,-4.00,-3.99,-4.44,-1.36,-1.38,-1.39
517.75,2.57,3.96,2.59,3.98,-3.96,-3.96,-4.39,-1.39,-1.37,-1.39
522.93,2.55,3.94,2.54,3.93,-3.92,-3.92,-4.34,-1.37,-1.39,-1.39
