frequency,raw,smoothed,error,error_smoothed,equalization,parametric_eq,fixed_band_eq,equalized_raw,equalized_smoothed,target
20.00,-10.54,-10.54,-16.88,-16.88,6.00,6.72,2.98,-4.54,-4.54,6.34
20.20,-10.45,-10.45,-16.83,-16.83,6.00,6.71,3.06,-4.45,-4.45,6.38
20.40,-10.35,-10.35,-16.76,-16.77,6.00,6.71,3.15,-4.35,-4.35,6.41
20.61,-10.26,-10.26,-16.70,-16.71,6.00,6.70,3.24,-4.26,-4.26,6.44
20.81,-10.16,-10.16,-16.64,-16.64,6.00,6.69,3.33,-4.16,-4.16,6.48
21.02,-10.07,-10.07,-16.59,-16.58,6.00,6.69,3.43,-4.07,-4.07,6.52
21.23,-9.97,-9.97,-16.50,-16.51,6.00,6.68,3.52,-3.97,-3.97,6.53
21.44,-9.88,-9.88,-16.43,-16.43,6.00,6.67,3.62,-3.88,-3.88,6.55
21.66,-9.78,-9.78,-16.35,-16.35,6.00,6.67,3.73,-3.78,-3.78,6.57
21.87,-9.69,-9.69,-16.27,-16.27,6.00,6.66,3.83,-3.69,-3.69,6.58
22.09,-9.58,-9.58,-16.18,-16.17,6.00,6.65,3.94,-3.58,-3.58,6.60
22.31,-9.47,-9.47,-16.07,-16.07,6.00,6.65,4.05,-3.47,-3.47,6.60
22.54,-9.35,-9.35,-15.96,-15.96,6.00,6.64,4.17,-3.35,-3.35,6.61
22.76,-9.24,-9.24,-15.85,-15.85,6.00,6.63,4.29,-3.24,-3.24,6.61
22.99,-9.13,-9.13,-15.75,-15.75,6.00,6.62,4.40,-3.13,-3.13,6.61
23.22,-9.03,-9.03,-15.65,-15.65,6.00,6.61,4.53,-3.03,-3.03,6.62
23.45,-8.93,-8.93,-15.56,-15.57,6.00,6.61,4.65,-2.93,-2.93,6.63
23.69,-8.84,-8.84,-15.48,-15.48,6.00,6.60,4.78,-2.84,-2.84,6.64
23.92,-8.74,-8.74,-15.39,-15.39,6.00,6.59,4.92,-2.74,-2.74,6.65
24.16,-8.64,-8.64,-15.30,-15.30,6.00,6.58,5.05,-2.64,-2.64,6.66
24.40,-8.54,-8.54,-15.21,-15.20,6.00,6.57,5.19,-2.54,-2.54,6.67
24.65,-8.44,-8.44,-15.10,-15.10,6.00,6.56,5.33,-2.44,-2.44,6.66
24.89,-8.33,-8.34,-14.99,-14.99,6.00,6.55,5.47,-2.33,-2.34,6.66
25.14,-8.24,-8.24,-14.90,-14.90,6.00,6.54,5.61,-2.24,-2.24,6.66
25.39,-8.15,-8.15,-14.80,-14.81,6.00,6.53,5.75,-2.15,-2.15,6.66
25.65,-8.06,-8.06,-14.72,-14.72,6.00,6.52,5.90,-2.06,-2.06,6.65
25.91,-7.97,-7.96,-14.62,-14.61,6.00,6.51,6.04,-1.97,-1.96,6.64
26.16,-7.85,-7.85,-14.50,-14.50,6.00,6.50,6.19,-1.85,-1.85,6.65
26.43,-7.71,-7.71,-14.36,-14.36,6.00,6.49,6.33,-1.71,-1.71,6.65
26.69,-7.57,-7.57,-14.22,-14.22,6.00,6.48,6.47,-1.57,-1.57,6.65
26.96,-7.43,-7.45,-14.08,-14.10,6.00,6.47,6.62,-1.43,-1.45,6.65
27.23,-7.35,-7.35,-14.00,-13.99,6.00,6.46,6.76,-1.35,-1.35,6.65
27.50,-7.27,-7.26,-13.92,-13.91,6.00,6.45,6.89,-1.27,-1.26,6.65
27.77,-7.19,-7.19,-13.82,-13.83,6.00,6.43,7.02,-1.19,-1.19,6.63
28.05,-7.12,-7.12,-13.75,-13.75,6.00,6.42,7.15,-1.12,-1.12,6.63
28.33,-7.05,-7.05,-13.67,-13.68,6.00,6.41,7.27,-1.05,-1.05,6.62
28.62,-6.98,-6.99,-13.61,-13.61,6.00,6.40,7.38,-0.98,-0.99,6.63
28.90,-6.91,-6.90,-13.54,-13.53,6.00,6.38,7.49,-0.91,-0.90,6.63
29.19,-6.81,-6.80,-13.43,-13.42,6.00,6.37,7.58,-0.81,-0.80,6.62
29.48,-6.68,-6.68,-13.30,-13.30,6.00,6.36,7.67,-0.68,-0.68,6.63
29.78,-6.55,-6.56,-13.18,-13.18,6.00,6.35,7.74,-0.55,-0.56,6.62
30.08,-6.45,-6.46,-13.07,-13.08,6.00,6.33,7.80,-0.45,-0.46,6.62
30.38,-6.39,-6.39,-13.00,-13.00,6.00,6.32,7.86,-0.39,-0.39,6.61
30.68,-6.34,-6.33,-12.95,-12.94,6.00,6.30,7.89,-0.34,-0.33,6.61
30.99,-6.28,-6.29,-12.88,-12.89,6.00,6.29,7.92,-0.28,-0.29,6.60
31.30,-6.26,-6.26,-12.85,-12.86,6.00,6.27,7.92,-0.26,-0.26,6.59
31.61,-6.24,-6.24,-12.83,-12.83,6.00,6.26,7.92,-0.24,-0.24,6.59
31.93,-6.22,-6.21,-12.80,-12.79,6.00,6.24,7.90,-0.22,-0.21,6.58
32.24,-6.15,-6.16,-12.72,-12.73,6.00,6.23,7.88,-0.15,-0.16,6.57
32.57,-6.08,-6.09,-12.65,-12.65,6.00,6.21,7.83,-0.08,-0.09,6.56
32.89,-6.00,-5.99,-12.56,-12.55,6.00,6.20,7.78,0.00,0.01,6.56
33.22,-5.86,-5.85,-12.42,-12.41,6.00,6.18,7.71,0.14,0.15,6.56
33.55,-5.68,-5.69,-12.23,-12.24,6.00,6.16,7.63,0.32,0.31,6.56
33.89,-5.50,-5.51,-12.05,-12.06,6.00,6.15,7.54,0.50,0.49,6.55
34.23,-5.32,-5.32,-11.87,-11.87,6.00,6.13,7.45,0.68,0.68,6.55
34.57,-5.14,-5.14,-11.68,-11.68,6.00,6.11,7.34,0.86,0.86,6.54
34.92,-4.95,-4.96,-11.49,-11.49,6.00,6.10,7.23,1.05,1.04,6.53
35.27,-4.77,-4.76,-11.30,-11.29,6.00,6.08,7.12,1.23,1.24,6.53
35.62,-4.59,-4.58,-11.11,-11.10,6.00,6.06,7.00,1.41,1.42,6.52
35.97,-4.40,-4.43,-10.91,-10.94,6.00,6.04,6.87,1.60,1.57,6.51
36.33,-4.31,-4.31,-10.82,-10.82,6.00,6.03,6.74,1.69,1.69,6.51
36.70,-4.23,-4.22,-10.74,-10.72,6.00,6.01,6.61,1.77,1.78,6.51
37.06,-4.14,-4.14,-10.63,-10.63,6.00,5.99,6.48,1.86,1.86,6.49
37.43,-4.04,-4.04,-10.53,-10.53,6.00,5.98,6.35,1.96,1.96,6.49
37.81,-3.93,-3.93,-10.41,-10.41,6.00,5.96,6.22,2.07,2.07,6.48
38.19,-3.80,-3.79,-10.27,-10.26,6.00,5.94,6.09,2.20,2.21,6.47
38.57,-3.65,-3.64,-10.11,-10.11,6.00,5.93,5.96,2.35,2.36,6.46
38.95,-3.49,-3.53,-9.95,-9.99,6.00,5.91,5.83,2.51,2.47,6.46
39.34,-3.46,-3.47,-9.90,-9.91,6.00,5.90,5.70,2.54,2.53,6.44
39.74,-3.45,-3.43,-9.88,-9.87,6.00,5.88,5.57,2.55,2.57,6.43
40.14,-3.41,-3.39,-9.84,-9.82,6.00,5.87,5.45,2.59,2.61,6.43
40.54,-3.33,-3.33,-9.76,-9.76,6.00,5.86,5.33,2.67,2.67,6.43
40.94,-3.25,-3.27,-9.67,-9.69,6.00,5.85,5.21,2.75,2.73,6.42
41.35,-3.24,-3.24,-9.65,-9.65,6.00,5.84,5.10,2.76,2.76,6.41
41.76,-3.24,-3.23,-9.63,-9.62,6.00,5.83,4.99,2.76,2.77,6.39
42.18,-3.24,-3.25,-9.61,-9.62,6.00,5.83,4.88,2.76,2.75,6.37
42.60,-3.24,-3.24,-9.59,-9.59,6.00,5.83,4.77,2.76,2.76,6.35
43.03,-3.23,-3.21,-9.56,-9.53,6.00,5.83,4.67,2.77,2.79,6.33
43.46,-3.14,-3.14,-9.44,-9.44,6.00,5.83,4.57,2.86,2.86,6.30
43.90,-3.04,-3.06,-9.30,-9.32,6.00,5.84,4.48,2.96,2.94,6.25
44.33,-2.94,-2.96,-9.17,-9.18,6.00,5.85,4.39,3.06,3.04,6.23
44.78,-2.84,-2.81,-9.03,-8.99,6.00,5.87,4.30,3.16,3.19,6.19
45.23,-2.61,-2.57,-8.77,-8.73,6.00,5.88,4.21,3.39,3.43,6.16
45.68,-2.26,-2.29,-8.39,-8.42,6.00,5.91,4.13,3.74,3.71,6.13
46.13,-1.96,-2.01,-8.07,-8.13,6.00,5.93,4.05,4.04,3.99,6.11
46.60,-1.79,-1.78,-7.90,-7.88,6.00,5.96,3.98,4.21,4.22,6.10
47.06,-1.62,-1.58,-7.70,-7.67,6.00,5.99,3.91,4.38,4.42,6.08
47.53,-1.38,-1.38,-7.45,-7.46,6.00,6.02,3.84,4.62,4.62,6.07
48.01,-1.15,-1.18,-7.23,-7.25,6.00,6.05,3.77,4.85,4.83,6.07
48.49,-0.99,-0.99,-7.05,-7.05,6.01,6.08,3.71,5.02,5.02,6.06
48.97,-0.84,-0.84,-6.89,-6.89,6.02,6.09,3.65,5.18,5.18,6.05
49.46,-0.68,-0.69,-6.72,-6.73,6.02,6.09,3.59,5.34,5.34,6.04
49.96,-0.52,-0.49,-6.56,-6.53,6.02,6.07,3.53,5.50,5.53,6.04
50.46,-0.28,-0.27,-6.33,-6.32,6.00,6.03,3.48,5.72,5.72,6.05
50.96,-0.03,-0.08,-6.08,-6.13,5.96,5.97,3.42,5.93,5.88,6.05
51.47,0.08,0.08,-5.96,-5.96,5.90,5.89,3.37,5.98,5.98,6.04
51.99,0.18,0.20,-5.85,-5.84,5.82,5.78,3.33,6.00,6.02,6.03
52.51,0.29,0.29,-5.73,-5.72,5.72,5.65,3.28,6.01,6.01,6.01
53.03,0.41,0.41,-5.58,-5.58,5.60,5.50,3.23,6.01,6.00,5.99
53.56,0.53,0.53,-5.42,-5.42,5.45,5.33,3.19,5.98,5.98,5.95
54.10,0.65,0.65,-5.26,-5.26,5.28,5.16,3.14,5.93,5.93,5.91
54.64,0.78,0.77,-5.08,-5.09,5.08,4.97,3.10,5.86,5.85,5.86
55.18,0.90,0.89,-4.92,-4.92,4.87,4.79,3.06,5.77,5.77,5.82
55.74,1.03,1.05,-4.73,-4.71,4.66,4.60,3.01,5.69,5.71,5.76
56.29,1.22,1.24,-4.49,-4.47,4.44,4.40,2.97,5.66,5.68,5.71
56.86,1.48,1.44,-4.18,-4.21,4.22,4.21,2.92,5.70,5.67,5.65
57.42,1.64,1.63,-3.94,-3.96,4.02,4.03,2.88,5.66,5.65,5.58
58.00,1.77,1.79,-3.76,-3.74,3.83,3.84,2.83,5.60,5.62,5.53
58.58,1.90,1.89,-3.57,-3.58,3.64,3.65,2.79,5.54,5.53,5.47
59.16,2.00,1.96,-3.42,-3.45,3.46,3.47,2.74,5.46,5.43,5.41
59.76,2.00,2.03,-3.36,-3.32,3.29,3.29,2.69,5.29,5.32,5.35
60.35,2.08,2.10,-3.20,-3.19,3.12,3.11,2.64,5.20,5.22,5.28
60.96,2.22,2.20,-3.01,-3.02,2.94,2.93,2.58,5.16,5.14,5.23
61.57,2.36,2.36,-2.80,-2.80,2.75,2.75,2.53,5.11,5.11,5.16
62.18,2.52,2.55,-2.57,-2.55,2.55,2.57,2.47,5.07,5.10,5.09
62.80,2.75,2.72,-2.30,-2.32,2.35,2.39,2.41,5.10,5.08,5.05
63.43,2.90,2.89,-2.09,-2.11,2.15,2.21,2.35,5.05,5.04,4.99
64.07,3.02,3.03,-1.93,-1.92,1.97,2.04,2.28,4.99,4.99,4.95
64.71,3.14,3.15,-1.76,-1.75,1.79,1.87,2.21,4.93,4.94,4.90
65.35,3.25,3.25,-1.60,-1.61,1.63,1.70,2.15,4.88,4.88,4.85
66.01,3.37,3.32,-1.45,-1.49,1.48,1.53,2.07,4.84,4.80,4.82
66.67,3.37,3.41,-1.41,-1.37,1.33,1.37,2.00,4.70,4.74,4.78
67.33,3.48,3.52,-1.27,-1.23,1.18,1.22,1.92,4.66,4.70,4.75
68.01,3.69,3.64,-1.03,-1.07,1.04,1.07,1.85,4.72,4.68,4.72
68.69,3.80,3.80,-0.89,-0.88,0.89,0.92,1.77,4.69,4.69,4.68
69.37,3.93,3.95,-0.72,-0.70,0.74,0.79,1.68,4.67,4.69,4.65
70.07,4.07,4.08,-0.55,-0.55,0.58,0.65,1.60,4.65,4.66,4.62
70.77,4.23,4.18,-0.38,-0.42,0.43,0.53,1.51,4.66,4.61,4.61
71.48,4.28,4.27,-0.29,-0.30,0.29,0.40,1.43,4.57,4.56,4.57
72.19,4.32,4.38,-0.23,-0.17,0.15,0.28,1.34,4.47,4.53,4.55
72.91,4.49,4.49,-0.02,-0.02,0.02,0.17,1.25,4.51,4.51,4.51
73.64,4.65,4.61,0.17,0.13,-0.11,0.05,1.16,4.54,4.50,4.48
74.38,4.73,4.70,0.27,0.24,-0.24,-0.06,1.07,4.49,4.45,4.46
75.12,4.74,4.76,0.32,0.34,-0.37,-0.17,0.97,4.37,4.40,4.42
75.87,4.79,4.86,0.40,0.47,-0.49,-0.28,0.88,4.30,4.37,4.39
76.63,5.02,4.99,0.66,0.63,-0.62,-0.40,0.79,4.40,4.37,4.36
77.40,5.16,5.10,0.82,0.77,-0.74,-0.51,0.69,4.42,4.36,4.34
78.17,5.19,5.19,0.88,0.88,-0.87,-0.63,0.60,4.32,4.32,4.31
78.95,5.19,5.26,0.90,0.96,-0.99,-0.74,0.50,4.20,4.27,4.29
79.74,5.36,5.35,1.08,1.08,-1.11,-0.86,0.40,4.25,4.24,4.28
80.54,5.50,5.47,1.24,1.21,-1.22,-0.98,0.30,4.28,4.25,4.26
81.35,5.59,5.59,1.35,1.35,-1.32,-1.10,0.20,4.26,4.27,4.24
82.16,5.67,5.68,1.43,1.44,-1.42,-1.22,0.10,4.25,4.26,4.23
82.98,5.75,5.76,1.51,1.52,-1.51,-1.34,0.01,4.24,4.25,4.24
83.81,5.85,5.82,1.62,1.59,-1.59,-1.47,-0.10,4.26,4.23,4.23
84.65,5.87,5.89,1.65,1.65,-1.66,-1.59,-0.20,4.21,4.22,4.22
85.50,5.93,5.96,1.69,1.73,-1.72,-1.71,-0.30,4.21,4.23,4.23
86.35,6.04,6.02,1.80,1.79,-1.78,-1.83,-0.40,4.26,4.24,4.24
87.22,6.10,6.06,1.86,1.83,-1.83,-1.95,-0.50,4.27,4.24,4.24
88.09,6.10,6.11,1.86,1.87,-1.88,-2.07,-0.61,4.22,4.23,4.24
88.97,6.10,6.16,1.84,1.91,-1.93,-2.18,-0.71,4.17,4.23,4.25
89.86,6.26,6.23,2.01,1.98,-1.98,-2.29,-0.82,4.28,4.25,4.25
90.76,6.32,6.29,2.08,2.04,-2.04,-2.40,-0.92,4.28,4.25,4.24
91.66,6.33,6.33,2.08,2.09,-2.10,-2.50,-1.03,4.23,4.23,4.25
92.58,6.33,6.37,2.10,2.14,-2.16,-2.60,-1.13,4.17,4.21,4.23
93.51,6.43,6.43,2.20,2.21,-2.22,-2.70,-1.24,4.21,4.22,4.23
94.44,6.54,6.50,2.32,2.29,-2.27,-2.78,-1.35,4.27,4.23,4.22
95.39,6.56,6.56,2.36,2.36,-2.32,-2.87,-1.46,4.24,4.23,4.20
96.34,6.56,6.57,2.39,2.39,-2.37,-2.95,-1.57,4.19,4.20,4.17
97.30,6.56,6.56,2.41,2.41,-2.40,-3.02,-1.67,4.16,4.16,4.15
98.28,6.56,6.56,2.43,2.43,-2.44,-3.08,-1.78,4.12,4.12,4.13
99.26,6.56,6.56,2.46,2.46,-2.47,-3.15,-1.89,4.09,4.09,4.10
100.25,6.56,6.56,2.48,2.48,-2.50,-3.20,-2.00,4.06,4.06,4.08
101.25,6.56,6.56,2.52,2.52,-2.52,-3.25,-2.11,4.04,4.04,4.04
102.27,6.56,6.56,2.56,2.56,-2.55,-3.28,-2.21,4.00,4.00,4.00
103.29,6.56,6.56,2.60,2.60,-2.59,-3.32,-2.32,3.97,3.97,3.96
104.32,6.56,6.56,2.64,2.64,-2.64,-3.34,-2.43,3.92,3.92,3.92
105.37,6.56,6.56,2.68,2.69,-2.70,-3.37,-2.53,3.86,3.86,3.88
106.42,6.56,6.56,2.74,2.74,-2.76,-3.38,-2.63,3.80,3.80,3.82
107.48,6.56,6.56,2.81,2.81,-2.83,-3.39,-2.73,3.73,3.73,3.75
108.56,6.56,6.56,2.88,2.88,-2.90,-3.39,-2.83,3.66,3.66,3.68
109.64,6.56,6.56,2.95,2.95,-2.95,-3.39,-2.92,3.61,3.61,3.61
110.74,6.56,6.58,3.01,3.04,-2.99,-3.38,-3.01,3.57,3.59,3.54
111.85,6.56,6.55,3.08,3.07,-3.02,-3.37,-3.10,3.54,3.53,3.48
112.97,6.54,6.49,3.15,3.09,-3.04,-3.35,-3.18,3.50,3.45,3.39
114.10,6.33,6.39,3.00,3.07,-3.05,-3.33,-3.26,3.28,3.34,3.33
115.24,6.30,6.27,3.05,3.02,-3.06,-3.30,-3.33,3.24,3.21,3.25
116.39,6.17,6.17,2.99,2.99,-3.07,-3.28,-3.40,3.10,3.11,3.18
117.55,6.10,6.13,2.98,3.01,-3.06,-3.24,-3.45,3.04,3.06,3.11
118.73,6.10,6.10,3.05,3.05,-3.06,-3.21,-3.51,3.04,3.05,3.05
119.92,6.10,6.09,3.09,3.09,-3.05,-3.17,-3.55,3.05,3.04,3.01
121.12,6.09,6.04,3.13,3.09,-3.04,-3.13,-3.59,3.05,3.00,2.95
122.33,5.95,5.98,3.04,3.07,-3.03,-3.09,-3.62,2.92,2.95,2.91
123.55,5.87,5.90,2.98,3.02,-3.01,-3.04,-3.64,2.86,2.89,2.89
124.79,5.87,5.81,3.02,2.96,-2.98,-2.99,-3.65,2.89,2.84,2.85
126.03,5.72,5.76,2.90,2.94,-2.93,-2.95,-3.66,2.79,2.82,2.82
127.29,5.67,5.66,2.88,2.88,-2.89,-2.90,-3.66,2.78,2.78,2.79
128.57,5.60,5.56,2.85,2.80,-2.84,-2.85,-3.65,2.76,2.72,2.75
129.85,5.44,5.50,2.72,2.78,-2.78,-2.80,-3.63,2.66,2.71,2.72
131.15,5.42,5.43,2.73,2.74,-2.73,-2.74,-3.61,2.68,2.70,2.69
132.46,5.42,5.36,2.76,2.70,-2.69,-2.69,-3.57,2.73,2.67,2.66
133.79,5.28,5.30,2.65,2.68,-2.64,-2.64,-3.54,2.63,2.66,2.63
135.12,5.18,5.20,2.60,2.61,-2.61,-2.59,-3.49,2.57,2.59,2.58
136.48,5.13,5.09,2.57,2.53,-2.57,-2.53,-3.44,2.56,2.52,2.56
137.84,4.98,5.03,2.46,2.51,-2.54,-2.48,-3.38,2.44,2.49,2.52
139.22,4.96,4.97,2.49,2.50,-2.50,-2.43,-3.32,2.46,2.47,2.47
140.61,4.96,4.91,2.53,2.47,-2.46,-2.37,-3.25,2.50,2.45,2.43
142.02,4.85,4.87,2.44,2.47,-2.42,-2.32,-3.18,2.43,2.44,2.41
143.44,4.76,4.78,2.40,2.42,-2.39,-2.27,-3.11,2.37,2.39,2.36
144.87,4.73,4.68,2.41,2.35,-2.37,-2.21,-3.03,2.36,2.31,2.32
146.32,4.58,4.61,2.31,2.33,-2.35,-2.16,-2.95,2.23,2.26,2.27
147.78,4.51,4.54,2.27,2.31,-2.33,-2.11,-2.87,2.18,2.21,2.24
149.26,4.51,4.46,2.34,2.29,-2.32,-2.06,-2.78,2.19,2.14,2.17
150.75,4.40,4.40,2.31,2.30,-2.32,-2.01,-2.70,2.08,2.09,2.09
152.26,4.31,4.35,2.29,2.33,-2.32,-1.96,-2.61,1.99,2.03,2.02
153.78,4.28,4.26,2.33,2.32,-2.33,-1.91,-2.53,1.95,1.93,1.95
155.32,4.23,4.19,2.38,2.33,-2.33,-1.86,-2.44,1.90,1.86,1.85
156.88,4.07,4.13,2.29,2.35,-2.32,-1.81,-2.35,1.75,1.80,1.78
158.44,4.05,4.05,2.34,2.35,-2.31,-1.76,-2.26,1.74,1.74,1.71
160.03,3.99,3.95,2.35,2.31,-2.28,-1.71,-2.18,1.71,1.66,1.63
161.63,3.85,3.84,2.28,2.26,-2.25,-1.66,-2.09,1.60,1.59,1.57
163.24,3.68,3.72,2.16,2.19,-2.21,-1.61,-2.01,1.47,1.51,1.52
164.88,3.59,3.60,2.11,2.12,-2.16,-1.56,-1.92,1.43,1.44,1.48
166.53,3.55,3.51,2.11,2.07,-2.10,-1.52,-1.84,1.45,1.41,1.44
168.19,3.44,3.46,2.02,2.04,-2.04,-1.47,-1.75,1.40,1.42,1.41
169.87,3.37,3.40,1.97,2.00,-1.97,-1.42,-1.67,1.40,1.42,1.40
171.57,3.37,3.31,1.98,1.92,-1.90,-1.38,-1.59,1.47,1.41,1.39
173.29,3.23,3.26,1.84,1.86,-1.84,-1.33,-1.51,1.39,1.42,1.39
175.02,3.14,3.17,1.73,1.77,-1.77,-1.28,-1.43,1.37,1.40,1.41
176.77,3.14,3.07,1.74,1.66,-1.69,-1.24,-1.35,1.45,1.37,1.40
178.54,2.96,3.00,1.55,1.59,-1.61,-1.19,-1.27,1.35,1.39,1.41
180.32,2.91,2.94,1.49,1.53,-1.52,-1.15,-1.20,1.39,1.42,1.42
182.13,2.91,2.87,1.49,1.45,-1.43,-1.11,-1.12,1.48,1.44,1.42
183.95,2.82,2.80,1.40,1.38,-1.35,-1.06,-1.05,1.47,1.45,1.42
185.79,2.69,2.68,1.28,1.27,-1.26,-1.02,-0.98,1.43,1.42,1.41
187.65,2.52,2.56,1.13,1.17,-1.19,-0.97,-0.91,1.33,1.37,1.39
189.52,2.46,2.45,1.09,1.08,-1.12,-0.93,-0.84,1.34,1.34,1.37
191.42,2.40,2.36,1.05,1.01,-1.05,-0.89,-0.77,1.35,1.32,1.35
193.33,2.28,2.31,0.95,0.98,-0.98,-0.85,-0.70,1.30,1.33,1.33
195.27,2.23,2.25,0.91,0.93,-0.92,-0.80,-0.63,1.31,1.33,1.32
197.22,2.23,2.17,0.92,0.87,-0.86,-0.76,-0.57,1.37,1.32,1.31
199.19,2.09,2.11,0.82,0.83,-0.80,-0.72,-0.50,1.29,1.31,1.27
201.18,2.00,2.02,0.74,0.76,-0.76,-0.68,-0.44,1.24,1.26,1.26
203.19,1.95,1.91,0.70,0.67,-0.70,-0.63,-0.38,1.25,1.21,1.25
205.23,1.83,1.86,0.61,0.63,-0.64,-0.59,-0.32,1.19,1.21,1.22
207.28,1.77,1.79,0.55,0.58,-0.58,-0.55,-0.26,1.19,1.21,1.22
209.35,1.77,1.71,0.58,0.53,-0.52,-0.51,-0.20,1.25,1.20,1.19
211.44,1.64,1.67,0.47,0.49,-0.46,-0.47,-0.14,1.18,1.21,1.17
213.56,1.55,1.57,0.39,0.41,-0.39,-0.43,-0.08,1.16,1.18,1.16
215.69,1.54,1.46,0.38,0.31,-0.33,-0.38,-0.02,1.21,1.13,1.16
217.85,1.33,1.39,0.19,0.25,-0.27,-0.34,0.03,1.06,1.12,1.14
220.03,1.31,1.33,0.18,0.21,-0.21,-0.30,0.08,1.10,1.12,1.12
222.23,1.31,1.25,0.21,0.14,-0.16,-0.26,0.14,1.15,1.10,1.10
224.45,1.21,1.20,0.11,0.10,-0.11,-0.22,0.19,1.10,1.10,1.10
226.70,1.10,1.14,-0.00,0.04,-0.06,-0.18,0.24,1.04,1.08,1.10
228.96,1.09,1.11,-0.00,0.01,-0.01,-0.14,0.28,1.08,1.09,1.09
231.25,1.09,1.06,0.00,-0.02,0.03,-0.10,0.33,1.12,1.09,1.09
233.57,1.06,1.00,-0.02,-0.07,0.09,-0.06,0.38,1.15,1.09,1.08
235.90,0.87,0.95,-0.20,-0.13,0.14,-0.01,0.42,1.01,1.09,1.07
238.26,0.86,0.87,-0.21,-0.20,0.21,0.03,0.46,1.07,1.07,1.07
240.64,0.86,0.78,-0.21,-0.29,0.28,0.07,0.50,1.14,1.06,1.07
243.05,0.70,0.75,-0.38,-0.33,0.35,0.11,0.54,1.05,1.10,1.08
245.48,0.63,0.65,-0.45,-0.43,0.43,0.15,0.58,1.06,1.09,1.08
247.93,0.63,0.55,-0.47,-0.54,0.53,0.19,0.62,1.15,1.08,1.10
250.41,0.44,0.49,-0.65,-0.60,0.62,0.23,0.65,1.06,1.11,1.09
252.92,0.40,0.42,-0.70,-0.68,0.71,0.28,0.68,1.11,1.13,1.10
255.45,0.40,0.34,-0.72,-0.78,0.78,0.32,0.71,1.18,1.12,1.12
258.00,0.27,0.28,-0.86,-0.85,0.84,0.36,0.75,1.11,1.12,1.13
260.58,0.18,0.21,-0.95,-0.92,0.88,0.40,0.77,1.06,1.09,1.13
263.19,0.18,0.16,-0.96,-0.98,0.90,0.44,0.80,1.08,1.06,1.14
265.82,0.18,0.19,-0.97,-0.96,0.91,0.49,0.83,1.09,1.10,1.15
268.48,0.23,0.26,-0.94,-0.91,0.90,0.53,0.86,1.13,1.16,1.17
271.16,0.36,0.33,-0.82,-0.86,0.89,0.57,0.88,1.25,1.22,1.18
273.87,0.40,0.38,-0.80,-0.82,0.88,0.61,0.90,1.28,1.26,1.20
276.61,0.40,0.41,-0.83,-0.82,0.87,0.65,0.93,1.27,1.28,1.23
279.38,0.40,0.40,-0.85,-0.85,0.86,0.70,0.95,1.26,1.26,1.25
282.17,0.40,0.40,-0.87,-0.87,0.87,0.74,0.97,1.27,1.27,1.27
284.99,0.40,0.40,-0.90,-0.90,0.89,0.78,0.99,1.29,1.29,1.30
287.84,0.40,0.40,-0.92,-0.93,0.92,0.83,1.02,1.32,1.32,1.32
290.72,0.40,0.40,-0.96,-0.96,0.95,0.87,1.04,1.35,1.35,1.36
293.63,0.40,0.40,-0.98,-0.99,0.98,0.91,1.06,1.38,1.38,1.38
296.57,0.40,0.40,-1.01,-1.01,1.00,0.96,1.08,1.40,1.40,1.41
299.53,0.40,0.40,-1.04,-1.03,1.02,1.00,1.10,1.42,1.42,1.44
302.53,0.40,0.40,-1.05,-1.06,1.05,1.04,1.12,1.45,1.45,1.45
305.55,0.40,0.40,-1.09,-1.08,1.09,1.09,1.15,1.49,1.49,1.49
308.61,0.40,0.41,-1.10,-1.09,1.13,1.13,1.17,1.53,1.54,1.50
311.69,0.40,0.40,-1.12,-1.13,1.16,1.17,1.19,1.56,1.57,1.52
314.81,0.40,0.35,-1.15,-1.19,1.20,1.22,1.22,1.60,1.55,1.55
317.96,0.26,0.28,-1.28,-1.26,1.24,1.26,1.24,1.50,1.52,1.54
321.14,0.18,0.21,-1.36,-1.33,1.28,1.31,1.27,1.46,1.49,1.54
324.35,0.18,0.17,-1.37,-1.38,1.33,1.35,1.29,1.51,1.50,1.55
327.59,0.18,0.18,-1.38,-1.37,1.38,1.39,1.32,1.56,1.57,1.55
330.87,0.18,0.18,-1.38,-1.38,1.44,1.44,1.35,1.62,1.62,1.56
334.18,0.18,0.13,-1.39,-1.44,1.49,1.48,1.38,1.67,1.62,1.57
337.52,0.05,0.07,-1.53,-1.52,1.53,1.53,1.41,1.58,1.60,1.58
340.90,-0.03,-0.00,-1.63,-1.60,1.57,1.57,1.44,1.54,1.57,1.60
344.30,-0.05,-0.05,-1.66,-1.67,1.61,1.61,1.48,1.56,1.56,1.61
347.75,-0.05,-0.06,-1.68,-1.69,1.65,1.66,1.51,1.60,1.59,1.63
351.23,-0.05,-0.05,-1.71,-1.71,1.69,1.70,1.55,1.64,1.64,1.66
354.74,-0.05,-0.05,-1.73,-1.73,1.73,1.74,1.58,1.68,1.68,1.67
358.28,-0.05,-0.05,-1.75,-1.75,1.77,1.79,1.62,1.72,1.72,1.70
361.87,-0.05,-0.04,-1.77,-1.76,1.81,1.83,1.66,1.76,1.78,1.72
365.49,-0.05,-0.06,-1.80,-1.81,1.86,1.87,1.70,1.81,1.80,1.75
369.14,-0.07,-0.12,-1.84,-1.89,1.91,1.91,1.74,1.84,1.80,1.77
372.83,-0.22,-0.19,-2.02,-1.98,1.96,1.96,1.79,1.74,1.77,1.80
376.56,-0.28,-0.26,-2.09,-2.07,2.01,2.00,1.83,1.73,1.76,1.81
380.33,-0.28,-0.29,-2.12,-2.13,2.06,2.04,1.87,1.78,1.77,1.84
384.13,-0.28,-0.29,-2.14,-2.14,2.11,2.08,1.92,1.83,1.83,1.86
387.97,-0.28,-0.28,-2.15,-2.14,2.16,2.12,1.97,1.88,1.89,1.87
391.85,-0.28,-0.27,-2.16,-2.15,2.21,2.16,2.02,1.93,1.94,1.88
395.77,-0.28,-0.30,-2.17,-2.19,2.25,2.20,2.06,1.97,1.95,1.89
399.73,-0.34,-0.37,-2.23,-2.26,2.29,2.24,2.11,1.95,1.92,1.89
403.72,-0.47,-0.44,-2.37,-2.34,2.32,2.28,2.16,1.85,1.89,1.90
407.76,-0.51,-0.50,-2.42,-2.41,2.36,2.31,2.21,1.85,1.86,1.91
411.84,-0.51,-0.52,-2.43,-2.44,2.39,2.35,2.27,1.88,1.87,1.92
415.96,-0.51,-0.51,-2.44,-2.44,2.42,2.39,2.32,1.91,1.91,1.93
420.12,-0.51,-0.51,-2.44,-2.44,2.44,2.42,2.37,1.93,1.93,1.93
424.32,-0.51,-0.51,-2.44,-2.44,2.45,2.46,2.42,1.94,1.94,1.93
428.56,-0.51,-0.51,-2.44,-2.44,2.45,2.49,2.47,1.94,1.94,1.93
432.85,-0.51,-0.51,-2.44,-2.44,2.45,2.53,2.52,1.94,1.94,1.92
437.18,-0.51,-0.51,-2.44,-2.44,2.45,2.56,2.57,1.93,1.93,1.93
441.55,-0.51,-0.51,-2.45,-2.45,2.45,2.59,2.61,1.94,1.94,1.94
445.96,-0.51,-0.51,-2.45,-2.46,2.45,2.62,2.66,1.94,1.94,1.94
450.42,-0.51,-0.51,-2.46,-2.46,2.46,2.65,2.70,1.95,1.95,1.95
454.93,-0.51,-0.51,-2.47,-2.47,2.47,2.68,2.75,1.96,1.96,1.96
459.48,-0.51,-0.51,-2.48,-2.48,2.48,2.71,2.79,1.97,1.97,1.97
464.07,-0.51,-0.51,-2.50,-2.50,2.50,2.73,2.82,1.99,1.99,1.99
468.71,-0.51,-0.51,-2.52,-2.51,2.52,2.76,2.86,2.00,2.00,2.01
473.40,-0.51,-0.51,-2.53,-2.53,2.53,2.78,2.89,2.02,2.02,2.02
478.13,-0.51,-0.51,-2.56,-2.55,2.56,2.81,2.92,2.05,2.05,2.05
482.91,-0.51,-0.51,-2.58,-2.58,2.58,2.83,2.95,2.07,2.07,2.07
487.74,-0.51,-0.51,-2.61,-2.61,2.60,2.85,2.97,2.09,2.09,2.09
492.62,-0.51,-0.51,-2.63,-2.63,2.63,2.87,2.99,2.12,2.12,2.12
497.55,-0.51,-0.51,-2.65,-2.66,2.66,2.89,3.00,2.14,2.14,2.14
502.52,-0.51,-0.51,-2.68,-2.68,2.68,2.91,3.02,2.17,2.17,2.17
507.55,-0.51,-0.51,-2.70,-2.70,2.71,2.93,3.03,2.20,2.20,2.19
512.62,-0.51,-0.51,-2.73,-2.73,2.73,2.94,3.03,2.22,2.22,2.22
517.75,-0.51,-0.51,-2.75,-2.75,2.75,2.96,3.03,2.24,2.24,2.24
522.93,-0.51,-0.51,-2.78,-2.78,2.77,2.97,3.03,2.26,2.26,2.27
