frequency,raw,smoothed,error,error_smoothed,equalization,parametric_eq,fixed_band_eq,equalized_raw,equalized_smoothed,target
20.00,1.60,1.60,-2.76,-2.76,2.75,2.11,0.67,4.35,4.35,4.36
20.20,1.64,1.64,-2.74,-2.74,2.74,2.11,0.69,4.38,4.39,4.38
20.40,1.69,1.69,-2.72,-2.73,2.73,2.10,0.71,4.42,4.42,4.41
20.61,1.73,1.73,-2.70,-2.71,2.71,2.09,0.73,4.44,4.44,4.43
20.81,1.78,1.78,-2.68,-2.69,2.69,2.08,0.75,4.47,4.47,4.46
21.02,1.82,1.82,-2.67,-2.66,2.66,2.07,0.77,4.48,4.48,4.49
21.23,1.87,1.87,-2.63,-2.63,2.63,2.06,0.79,4.50,4.50,4.50
21.44,1.92,1.92,-2.59,-2.60,2.59,2.05,0.81,4.51,4.51,4.51
21.66,1.97,1.97,-2.55,-2.55,2.55,2.04,0.84,4.52,4.52,4.52
21.87,2.02,2.02,-2.50,-2.50,2.50,2.03,0.86,4.52,4.52,4.52
22.09,2.08,2.08,-2.45,-2.45,2.44,2.02,0.89,4.52,4.52,4.53
22.31,2.14,2.14,-2.39,-2.39,2.38,2.00,0.91,4.53,4.52,4.53
22.54,2.20,2.20,-2.33,-2.33,2.33,1.99,0.94,4.53,4.53,4.53
22.76,2.26,2.26,-2.27,-2.26,2.27,1.98,0.96,4.53,4.53,4.53
22.99,2.33,2.32,-2.19,-2.20,2.22,1.97,0.99,4.54,4.54,4.52
23.22,2.37,2.37,-2.15,-2.15,2.16,1.95,1.02,4.53,4.53,4.52
23.45,2.41,2.41,-2.11,-2.10,2.11,1.94,1.05,4.52,4.52,4.52
23.69,2.45,2.45,-2.07,-2.06,2.05,1.92,1.08,4.50,4.51,4.52
23.92,2.50,2.50,-2.01,-2.02,2.00,1.91,1.11,4.50,4.50,4.51
24.16,2.55,2.55,-1.97,-1.97,1.95,1.89,1.14,4.50,4.50,4.52
24.40,2.60,2.61,-1.92,-1.91,1.91,1.88,1.17,4.51,4.52,4.52
24.65,2.66,2.66,-1.85,-1.85,1.87,1.86,1.20,4.53,4.53,4.51
24.89,2.72,2.71,-1.79,-1.80,1.84,1.84,1.23,4.56,4.55,4.51
25.14,2.74,2.74,-1.77,-1.77,1.81,1.82,1.26,4.55,4.54,4.51
25.39,2.74,2.74,-1.77,-1.77,1.77,1.81,1.30,4.51,4.51,4.51
25.65,2.74,2.74,-1.77,-1.77,1.74,1.79,1.33,4.48,4.48,4.51
25.91,2.74,2.75,-1.76,-1.75,1.71,1.77,1.36,4.45,4.46,4.50
26.16,2.78,2.78,-1.72,-1.72,1.68,1.75,1.40,4.46,4.46,4.50
26.43,2.83,2.83,-1.67,-1.66,1.65,1.73,1.43,4.48,4.48,4.49
26.69,2.89,2.89,-1.60,-1.60,1.62,1.71,1.46,4.51,4.51,4.49
26.96,2.95,2.93,-1.54,-1.56,1.59,1.68,1.49,4.54,4.53,4.49
27.23,2.96,2.96,-1.53,-1.53,1.57,1.66,1.53,4.53,4.52,4.49
27.50,2.95,2.96,-1.54,-1.53,1.55,1.64,1.56,4.50,4.50,4.49
27.77,2.95,2.95,-1.53,-1.53,1.53,1.62,1.59,4.48,4.48,4.48
28.05,2.95,2.95,-1.53,-1.52,1.52,1.59,1.62,4.47,4.47,4.48
28.33,2.95,2.95,-1.52,-1.52,1.51,1.57,1.65,4.46,4.46,4.47
28.62,2.96,2.95,-1.50,-1.51,1.49,1.55,1.68,4.45,4.44,4.46
28.90,2.96,2.97,-1.50,-1.49,1.46,1.52,1.71,4.42,4.43,4.46
29.19,3.00,3.01,-1.45,-1.45,1.43,1.50,1.73,4.43,4.43,4.45
29.48,3.06,3.06,-1.40,-1.39,1.39,1.48,1.76,4.45,4.45,4.46
29.78,3.12,3.12,-1.33,-1.33,1.35,1.45,1.78,4.47,4.47,4.45
30.08,3.17,3.16,-1.28,-1.29,1.31,1.43,1.80,4.48,4.47,4.45
30.38,3.18,3.18,-1.25,-1.26,1.28,1.41,1.82,4.46,4.46,4.43
30.68,3.18,3.19,-1.25,-1.24,1.25,1.39,1.84,4.43,4.44,4.43
30.99,3.19,3.19,-1.23,-1.23,1.23,1.37,1.86,4.42,4.42,4.42
31.30,3.19,3.19,-1.23,-1.23,1.22,1.35,1.88,4.41,4.41,4.42
31.61,3.19,3.19,-1.22,-1.22,1.21,1.33,1.89,4.40,4.40,4.41
31.93,3.19,3.19,-1.21,-1.21,1.21,1.31,1.90,4.40,4.40,4.40
32.24,3.19,3.19,-1.20,-1.20,1.21,1.29,1.91,4.40,4.40,4.39
32.57,3.19,3.19,-1.20,-1.20,1.21,1.28,1.92,4.40,4.40,4.39
32.89,3.19,3.19,-1.19,-1.19,1.20,1.27,1.93,4.39,4.39,4.38
33.22,3.19,3.19,-1.18,-1.19,1.18,1.26,1.94,4.37,4.36,4.37
33.55,3.19,3.18,-1.18,-1.18,1.15,1.25,1.95,4.34,4.33,4.37
33.89,3.19,3.20,-1.17,-1.16,1.11,1.24,1.95,4.30,4.31,4.36
34.23,3.24,3.25,-1.11,-1.10,1.06,1.24,1.95,4.30,4.31,4.35
34.57,3.32,3.32,-1.02,-1.02,1.02,1.24,1.96,4.34,4.33,4.34
34.92,3.40,3.38,-0.93,-0.95,0.98,1.24,1.96,4.38,4.36,4.33
35.27,3.42,3.42,-0.90,-0.90,0.96,1.24,1.96,4.38,4.38,4.32
35.62,3.42,3.43,-0.89,-0.88,0.94,1.24,1.97,4.36,4.37,4.31
35.97,3.42,3.40,-0.88,-0.90,0.93,1.25,1.97,4.35,4.33,4.30
36.33,3.34,3.34,-0.95,-0.95,0.94,1.26,1.97,4.28,4.28,4.29
36.70,3.26,3.27,-1.02,-1.01,0.97,1.27,1.97,4.23,4.24,4.28
37.06,3.19,3.21,-1.07,-1.06,1.01,1.29,1.98,4.20,4.22,4.26
37.43,3.19,3.19,-1.07,-1.06,1.05,1.30,1.98,4.24,4.25,4.26
37.81,3.19,3.17,-1.06,-1.07,1.09,1.32,1.98,4.28,4.27,4.25
38.19,3.15,3.13,-1.08,-1.11,1.13,1.34,1.99,4.28,4.26,4.23
38.57,3.06,3.06,-1.17,-1.16,1.16,1.36,1.99,4.22,4.22,4.23
38.95,2.97,3.00,-1.24,-1.21,1.19,1.38,2.00,4.16,4.19,4.21
39.34,2.96,2.97,-1.24,-1.23,1.22,1.40,2.01,4.18,4.19,4.20
39.74,2.96,2.95,-1.22,-1.24,1.25,1.43,2.02,4.21,4.20,4.18
40.14,2.93,2.91,-1.25,-1.27,1.28,1.45,2.03,4.21,4.19,4.18
40.54,2.84,2.84,-1.32,-1.32,1.30,1.48,2.04,4.14,4.15,4.16
40.94,2.75,2.78,-1.41,-1.37,1.33,1.50,2.05,4.08,4.11,4.16
41.35,2.74,2.75,-1.40,-1.40,1.37,1.53,2.07,4.11,4.11,4.14
41.76,2.74,2.72,-1.39,-1.41,1.42,1.56,2.09,4.16,4.14,4.13
42.18,2.70,2.69,-1.43,-1.43,1.48,1.59,2.10,4.18,4.18,4.13
42.60,2.60,2.61,-1.51,-1.50,1.56,1.62,2.12,4.16,4.17,4.11
43.03,2.50,2.47,-1.60,-1.63,1.65,1.65,2.15,4.15,4.12,4.10
43.46,2.30,2.30,-1.79,-1.78,1.76,1.68,2.17,4.06,4.06,4.09
43.90,2.10,2.14,-1.96,-1.93,1.89,1.71,2.19,3.99,4.02,4.06
44.33,1.97,1.98,-2.07,-2.06,2.04,1.74,2.22,4.01,4.02,4.04
44.78,1.87,1.84,-2.15,-2.18,2.21,1.77,2.25,4.08,4.05,4.02
45.23,1.70,1.68,-2.30,-2.32,2.39,1.80,2.28,4.09,4.07,4.00
45.68,1.47,1.48,-2.51,-2.51,2.57,1.83,2.31,4.04,4.05,3.99
46.13,1.25,1.26,-2.72,-2.71,2.73,1.87,2.35,3.98,3.99,3.97
46.60,1.07,1.07,-2.89,-2.89,2.88,1.90,2.38,3.95,3.95,3.96
47.06,0.90,0.90,-3.04,-3.04,2.99,1.94,2.42,3.89,3.89,3.94
47.53,0.79,0.78,-3.13,-3.14,3.07,1.97,2.46,3.86,3.85,3.92
48.01,0.68,0.72,-3.23,-3.18,3.09,2.01,2.50,3.77,3.81,3.91
48.49,0.75,0.74,-3.13,-3.14,3.06,2.05,2.54,3.81,3.79,3.88
48.97,0.82,0.83,-3.02,-3.02,2.96,2.10,2.58,3.78,3.79,3.85
49.46,0.97,0.97,-2.84,-2.84,2.83,2.14,2.62,3.80,3.80,3.81
49.96,1.13,1.12,-2.65,-2.67,2.68,2.19,2.67,3.81,3.79,3.78
50.46,1.26,1.26,-2.51,-2.50,2.53,2.24,2.71,3.79,3.79,3.77
50.96,1.40,1.41,-2.35,-2.33,2.39,2.30,2.76,3.79,3.81,3.75
51.47,1.50,1.51,-2.21,-2.21,2.29,2.36,2.80,3.79,3.80,3.71
51.99,1.60,1.54,-2.09,-2.15,2.22,2.43,2.85,3.82,3.77,3.69
52.51,1.48,1.49,-2.20,-2.18,2.21,2.51,2.89,3.69,3.70,3.68
53.03,1.36,1.38,-2.29,-2.27,2.25,2.59,2.94,3.61,3.63,3.65
53.56,1.24,1.25,-2.39,-2.38,2.34,2.68,2.98,3.58,3.58,3.63
54.10,1.12,1.14,-2.48,-2.47,2.47,2.78,3.02,3.59,3.60,3.60
54.64,0.99,0.98,-2.59,-2.59,2.64,2.90,3.06,3.63,3.62,3.58
55.18,0.78,0.74,-2.77,-2.81,2.84,3.03,3.10,3.62,3.59,3.55
55.74,0.41,0.41,-3.11,-3.12,3.06,3.18,3.14,3.48,3.47,3.52
56.29,-0.01,-0.01,-3.52,-3.51,3.30,3.34,3.17,3.29,3.29,3.51
56.86,-0.47,-0.47,-3.94,-3.94,3.55,3.52,3.20,3.09,3.08,3.48
57.42,-0.88,-0.87,-4.33,-4.32,3.81,3.72,3.22,2.93,2.95,3.45
58.00,-1.26,-1.18,-4.69,-4.61,4.08,3.94,3.24,2.83,2.91,3.43
58.58,-1.46,-1.49,-4.87,-4.90,4.36,4.17,3.26,2.90,2.87,3.41
59.16,-1.79,-1.90,-5.18,-5.28,4.66,4.41,3.27,2.87,2.77,3.39
59.76,-2.45,-2.44,-5.81,-5.81,4.96,4.64,3.28,2.51,2.51,3.37
60.35,-3.11,-3.10,-6.45,-6.43,5.23,4.87,3.28,2.11,2.13,3.34
60.96,-3.77,-3.72,-7.08,-7.03,5.45,5.04,3.27,1.68,1.73,3.31
61.57,-4.21,-4.22,-7.48,-7.50,5.61,5.17,3.26,1.41,1.39,3.27
62.18,-4.58,-4.59,-7.82,-7.83,5.71,5.21,3.25,1.13,1.12,3.24
62.80,-4.84,-4.83,-8.05,-8.04,5.72,5.18,3.22,0.88,0.89,3.21
63.43,-4.92,-4.93,-8.10,-8.11,5.66,5.06,3.19,0.74,0.74,3.18
64.07,-4.89,-4.85,-8.04,-8.00,5.53,4.89,3.16,0.64,0.68,3.15
64.71,-4.61,-4.63,-7.74,-7.76,5.33,4.66,3.12,0.72,0.69,3.12
65.35,-4.27,-4.29,-7.36,-7.38,5.08,4.41,3.07,0.81,0.79,3.10
66.01,-3.87,-3.83,-6.94,-6.90,4.79,4.15,3.02,0.92,0.96,3.07
66.67,-3.30,-3.31,-6.34,-6.35,4.49,3.88,2.96,1.19,1.18,3.04
67.33,-2.74,-2.75,-5.75,-5.76,4.21,3.63,2.89,1.47,1.46,3.01
68.01,-2.19,-2.19,-5.17,-5.17,3.95,3.40,2.83,1.76,1.75,2.98
68.69,-1.69,-1.70,-4.64,-4.65,3.69,3.18,2.75,2.00,1.99,2.95
69.37,-1.25,-1.26,-4.16,-4.17,3.43,2.98,2.68,2.19,2.18,2.92
70.07,-0.86,-0.84,-3.74,-3.73,3.18,2.80,2.59,2.32,2.34,2.88
70.77,-0.45,-0.44,-3.31,-3.29,2.92,2.63,2.51,2.47,2.48,2.86
71.48,-0.05,-0.06,-2.88,-2.88,2.66,2.48,2.42,2.61,2.60,2.83
72.19,0.31,0.28,-2.48,-2.51,2.39,2.34,2.33,2.71,2.68,2.79
72.91,0.57,0.58,-2.18,-2.18,2.12,2.22,2.24,2.69,2.70,2.75
73.64,0.83,0.84,-1.89,-1.88,1.84,2.10,2.14,2.67,2.67,2.72
74.38,1.09,1.09,-1.60,-1.59,1.55,1.98,2.04,2.64,2.65,2.69
75.12,1.35,1.36,-1.30,-1.30,1.28,1.88,1.94,2.63,2.64,2.65
75.87,1.62,1.62,-1.00,-1.00,1.02,1.78,1.84,2.64,2.64,2.62
76.63,1.88,1.89,-0.71,-0.70,0.77,1.68,1.74,2.65,2.66,2.59
77.40,2.11,2.08,-0.45,-0.47,0.53,1.58,1.64,2.64,2.61,2.56
78.17,2.28,2.23,-0.24,-0.29,0.32,1.49,1.54,2.60,2.55,2.52
78.95,2.28,2.36,-0.21,-0.13,0.12,1.40,1.43,2.41,2.49,2.50
79.74,2.48,2.49,0.02,0.03,-0.05,1.31,1.33,2.43,2.44,2.46
80.54,2.65,2.60,0.22,0.17,-0.20,1.22,1.22,2.45,2.40,2.43
81.35,2.74,2.74,0.35,0.35,-0.34,1.13,1.12,2.40,2.41,2.39
82.16,2.78,2.82,0.42,0.46,-0.47,1.03,1.01,2.31,2.36,2.36
82.98,2.96,2.91,0.63,0.58,-0.59,0.94,0.90,2.37,2.31,2.33
83.81,2.96,3.01,0.68,0.72,-0.72,0.84,0.80,2.24,2.29,2.28
84.65,3.11,3.10,0.86,0.85,-0.84,0.74,0.69,2.27,2.26,2.25
85.50,3.19,3.14,0.97,0.93,-0.95,0.63,0.59,2.24,2.19,2.22
86.35,3.19,3.23,1.01,1.05,-1.06,0.52,0.48,2.13,2.17,2.18
87.22,3.24,3.29,1.10,1.15,-1.15,0.40,0.38,2.08,2.14,2.14
88.09,3.42,3.36,1.32,1.25,-1.24,0.28,0.27,2.18,2.12,2.10
88.97,3.42,3.42,1.35,1.35,-1.31,0.15,0.17,2.11,2.11,2.07
89.86,3.42,3.44,1.39,1.41,-1.37,0.01,0.06,2.05,2.07,2.03
90.76,3.42,3.42,1.45,1.44,-1.43,-0.13,-0.04,1.99,1.99,1.97
91.66,3.42,3.42,1.48,1.48,-1.49,-0.28,-0.15,1.93,1.93,1.94
92.58,3.42,3.41,1.53,1.52,-1.56,-0.45,-0.25,1.86,1.85,1.89
93.51,3.42,3.41,1.57,1.56,-1.63,-0.61,-0.36,1.79,1.79,1.85
94.44,3.42,3.46,1.61,1.65,-1.70,-0.80,-0.46,1.72,1.76,1.81
95.39,3.52,3.53,1.75,1.77,-1.77,-0.98,-0.56,1.75,1.76,1.77
96.34,3.65,3.60,1.94,1.89,-1.85,-1.18,-0.67,1.80,1.75,1.71
97.30,3.65,3.65,1.98,1.99,-1.93,-1.39,-0.77,1.72,1.72,1.67
98.28,3.65,3.66,2.03,2.04,-2.00,-1.60,-0.87,1.65,1.66,1.62
99.26,3.65,3.65,2.07,2.07,-2.07,-1.82,-0.97,1.58,1.58,1.58
100.25,3.65,3.65,2.12,2.12,-2.13,-2.04,-1.07,1.52,1.52,1.53
101.25,3.65,3.65,2.17,2.17,-2.18,-2.26,-1.17,1.47,1.47,1.48
102.27,3.65,3.65,2.21,2.22,-2.22,-2.46,-1.27,1.43,1.43,1.44
103.29,3.65,3.65,2.27,2.26,-2.27,-2.67,-1.37,1.38,1.38,1.38
104.32,3.65,3.65,2.30,2.31,-2.32,-2.84,-1.46,1.33,1.33,1.35
105.37,3.65,3.65,2.35,2.35,-2.37,-3.00,-1.56,1.28,1.28,1.30
106.42,3.65,3.65,2.40,2.40,-2.41,-3.10,-1.65,1.24,1.24,1.25
107.48,3.65,3.65,2.44,2.45,-2.45,-3.20,-1.74,1.20,1.20,1.21
108.56,3.65,3.67,2.50,2.51,-2.48,-3.22,-1.82,1.17,1.19,1.15
109.64,3.65,3.64,2.55,2.53,-2.50,-3.24,-1.91,1.15,1.14,1.10
110.74,3.64,3.58,2.58,2.52,-2.51,-3.18,-1.98,1.13,1.07,1.06
111.85,3.45,3.51,2.44,2.50,-2.52,-3.11,-2.06,0.93,0.99,1.01
112.97,3.42,3.45,2.47,2.50,-2.52,-2.99,-2.13,0.90,0.93,0.95
114.10,3.42,3.39,2.52,2.49,-2.52,-2.86,-2.20,0.90,0.88,0.90
115.24,3.39,3.35,2.54,2.51,-2.51,-2.71,-2.26,0.88,0.84,0.85
116.39,3.26,3.28,2.47,2.49,-2.50,-2.54,-2.32,0.76,0.79,0.79
117.55,3.19,3.24,2.45,2.50,-2.48,-2.37,-2.37,0.71,0.75,0.74
118.73,3.19,3.17,2.51,2.48,-2.47,-2.20,-2.42,0.72,0.70,0.68
119.92,3.18,3.11,2.54,2.48,-2.46,-2.03,-2.45,0.72,0.65,0.64
121.12,2.96,3.04,2.37,2.45,-2.44,-1.86,-2.49,0.52,0.60,0.59
122.33,2.96,2.93,2.42,2.39,-2.42,-1.70,-2.51,0.54,0.51,0.54
123.55,2.86,2.84,2.37,2.35,-2.39,-1.54,-2.53,0.47,0.45,0.49
124.79,2.75,2.80,2.31,2.35,-2.35,-1.41,-2.54,0.40,0.44,0.44
126.03,2.74,2.73,2.35,2.33,-2.31,-1.27,-2.55,0.43,0.42,0.39
127.29,2.66,2.62,2.32,2.28,-2.26,-1.15,-2.55,0.40,0.36,0.34
128.57,2.51,2.50,2.23,2.22,-2.20,-1.03,-2.54,0.31,0.31,0.28
129.85,2.30,2.36,2.07,2.12,-2.12,-0.93,-2.53,0.18,0.24,0.23
131.15,2.23,2.21,2.04,2.02,-2.03,-0.83,-2.51,0.20,0.17,0.19
132.46,2.10,2.08,1.96,1.94,-1.93,-0.74,-2.48,0.17,0.15,0.14
133.79,1.91,1.95,1.81,1.85,-1.82,-0.65,-2.45,0.09,0.13,0.10
135.12,1.80,1.77,1.75,1.72,-1.71,-0.58,-2.41,0.09,0.06,0.05
136.48,1.60,1.59,1.59,1.58,-1.60,-0.51,-2.37,0.00,-0.01,0.01
137.84,1.39,1.42,1.42,1.46,-1.50,-0.45,-2.31,-0.11,-0.08,-0.03
139.22,1.25,1.26,1.34,1.34,-1.39,-0.39,-2.26,-0.14,-0.13,-0.09
140.61,1.16,1.15,1.29,1.27,-1.29,-0.33,-2.20,-0.13,-0.14,-0.13
142.02,1.03,1.04,1.18,1.20,-1.17,-0.28,-2.14,-0.14,-0.13,-0.15
143.44,0.93,0.90,1.12,1.09,-1.06,-0.23,-2.08,-0.13,-0.16,-0.19
144.87,0.73,0.74,0.96,0.97,-0.94,-0.19,-2.01,-0.21,-0.20,-0.23
146.32,0.54,0.57,0.81,0.84,-0.82,-0.15,-1.94,-0.28,-0.24,-0.27
147.78,0.41,0.36,0.71,0.67,-0.68,-0.11,-1.87,-0.27,-0.32,-0.30
149.26,0.17,0.16,0.51,0.50,-0.52,-0.07,-1.79,-0.35,-0.36,-0.34
150.75,-0.09,-0.03,0.30,0.35,-0.35,-0.04,-1.72,-0.44,-0.37,-0.39
152.26,-0.21,-0.23,0.21,0.20,-0.16,-0.01,-1.64,-0.37,-0.38,-0.42
153.78,-0.38,-0.43,0.08,0.03,0.03,0.02,-1.56,-0.35,-0.40,-0.46
155.32,-0.65,-0.65,-0.15,-0.15,0.21,0.05,-1.48,-0.45,-0.44,-0.50
156.88,-0.91,-0.88,-0.37,-0.34,0.35,0.08,-1.40,-0.56,-0.53,-0.54
158.44,-1.08,-1.09,-0.50,-0.51,0.44,0.11,-1.32,-0.64,-0.65,-0.58
160.03,-1.20,-1.23,-0.58,-0.60,0.48,0.14,-1.24,-0.72,-0.75,-0.62
161.63,-1.34,-1.28,-0.68,-0.62,0.46,0.16,-1.16,-0.88,-0.82,-0.66
163.24,-1.23,-1.25,-0.53,-0.55,0.41,0.19,-1.08,-0.82,-0.84,-0.70
164.88,-1.14,-1.11,-0.41,-0.37,0.33,0.22,-1.00,-0.81,-0.78,-0.73
166.53,-0.93,-0.92,-0.16,-0.15,0.23,0.24,-0.92,-0.70,-0.69,-0.77
168.19,-0.75,-0.80,0.06,0.01,0.15,0.27,-0.84,-0.60,-0.65,-0.81
169.87,-0.74,-0.78,0.11,0.07,0.09,0.30,-0.76,-0.65,-0.69,-0.85
171.57,-0.88,-0.86,0.01,0.03,0.08,0.33,-0.67,-0.80,-0.78,-0.89
173.29,-1.05,-1.00,-0.13,-0.08,0.11,0.36,-0.59,-0.94,-0.90,-0.92
175.02,-1.14,-1.18,-0.18,-0.21,0.18,0.39,-0.51,-0.96,-0.99,-0.96
176.77,-1.33,-1.35,-0.33,-0.34,0.29,0.42,-0.43,-1.04,-1.06,-1.00
178.54,-1.54,-1.50,-0.49,-0.46,0.41,0.45,-0.36,-1.13,-1.09,-1.05
180.32,-1.67,-1.66,-0.59,-0.58,0.54,0.49,-0.28,-1.13,-1.13,-1.08
182.13,-1.77,-1.80,-0.66,-0.69,0.65,0.53,-0.20,-1.12,-1.15,-1.11
183.95,-1.91,-1.90,-0.76,-0.75,0.75,0.56,-0.12,-1.16,-1.15,-1.15
185.79,-2.04,-2.00,-0.85,-0.81,0.83,0.61,-0.04,-1.21,-1.17,-1.19
187.65,-2.05,-2.11,-0.82,-0.88,0.91,0.65,0.03,-1.14,-1.20,-1.23
189.52,-2.23,-2.22,-0.97,-0.96,0.97,0.69,0.11,-1.26,-1.25,-1.26
191.42,-2.33,-2.33,-1.04,-1.05,1.03,0.74,0.19,-1.30,-1.31,-1.29
193.33,-2.46,-2.43,-1.15,-1.12,1.09,0.79,0.26,-1.37,-1.34,-1.31
195.27,-2.51,-2.49,-1.17,-1.15,1.15,0.85,0.34,-1.36,-1.35,-1.34
197.22,-2.51,-2.57,-1.14,-1.19,1.21,0.90,0.41,-1.30,-1.36,-1.37
199.19,-2.65,-2.63,-1.24,-1.23,1.27,0.96,0.48,-1.38,-1.36,-1.41
201.18,-2.74,-2.72,-1.32,-1.29,1.32,1.02,0.56,-1.42,-1.40,-1.42
203.19,-2.78,-2.82,-1.34,-1.37,1.36,1.08,0.63,-1.42,-1.46,-1.44
205.23,-2.90,-2.89,-1.43,-1.43,1.40,1.14,0.70,-1.50,-1.49,-1.47
207.28,-2.96,-2.94,-1.49,-1.46,1.42,1.20,0.77,-1.54,-1.51,-1.47
209.35,-2.96,-2.97,-1.46,-1.47,1.44,1.25,0.84,-1.52,-1.53,-1.50
211.44,-2.96,-2.97,-1.44,-1.45,1.45,1.31,0.90,-1.51,-1.51,-1.52
213.56,-2.96,-2.96,-1.44,-1.44,1.46,1.35,0.97,-1.50,-1.50,-1.52
215.69,-2.96,-2.96,-1.43,-1.43,1.45,1.40,1.03,-1.51,-1.51,-1.53
217.85,-2.96,-2.96,-1.42,-1.42,1.44,1.43,1.09,-1.52,-1.52,-1.54
220.03,-2.96,-2.96,-1.41,-1.41,1.43,1.46,1.15,-1.53,-1.53,-1.55
222.23,-2.96,-2.96,-1.40,-1.40,1.40,1.47,1.21,-1.56,-1.56,-1.56
224.45,-2.96,-2.98,-1.40,-1.42,1.38,1.48,1.26,-1.58,-1.60,-1.56
226.70,-2.96,-2.96,-1.40,-1.40,1.35,1.47,1.31,-1.61,-1.61,-1.56
228.96,-2.96,-2.90,-1.40,-1.35,1.32,1.45,1.36,-1.64,-1.58,-1.56
231.25,-2.79,-2.83,-1.24,-1.28,1.29,1.42,1.41,-1.50,-1.54,-1.55
233.57,-2.74,-2.76,-1.19,-1.22,1.27,1.39,1.45,-1.47,-1.50,-1.55
235.90,-2.74,-2.73,-1.19,-1.18,1.25,1.35,1.49,-1.49,-1.48,-1.55
238.26,-2.74,-2.74,-1.19,-1.19,1.23,1.30,1.52,-1.51,-1.51,-1.55
240.64,-2.74,-2.74,-1.20,-1.20,1.20,1.25,1.55,-1.54,-1.54,-1.54
243.05,-2.74,-2.76,-1.22,-1.23,1.19,1.19,1.58,-1.55,-1.57,-1.52
245.48,-2.74,-2.73,-1.23,-1.22,1.17,1.14,1.60,-1.57,-1.56,-1.51
247.93,-2.74,-2.67,-1.24,-1.17,1.15,1.08,1.62,-1.59,-1.53,-1.50
250.41,-2.55,-2.61,-1.05,-1.12,1.11,1.02,1.64,-1.44,-1.50,-1.50
252.92,-2.51,-2.53,-1.03,-1.06,1.06,0.97,1.65,-1.45,-1.47,-1.48
255.45,-2.51,-2.44,-1.06,-0.99,1.00,0.92,1.65,-1.51,-1.45,-1.45
258.00,-2.37,-2.40,-0.93,-0.96,0.93,0.87,1.66,-1.44,-1.47,-1.44
260.58,-2.28,-2.30,-0.85,-0.88,0.86,0.82,1.66,-1.42,-1.44,-1.43
263.19,-2.26,-2.19,-0.86,-0.79,0.81,0.77,1.65,-1.45,-1.38,-1.40
265.82,-2.07,-2.12,-0.68,-0.73,0.77,0.73,1.64,-1.30,-1.35,-1.39
268.48,-2.05,-2.06,-0.68,-0.70,0.75,0.69,1.63,-1.30,-1.31,-1.37
271.16,-2.05,-2.03,-0.71,-0.69,0.74,0.66,1.61,-1.31,-1.30,-1.34
273.87,-2.05,-2.05,-0.72,-0.72,0.72,0.62,1.60,-1.33,-1.32,-1.33
276.61,-2.05,-2.05,-0.75,-0.75,0.71,0.59,1.57,-1.34,-1.34,-1.30
279.38,-2.05,-2.06,-0.76,-0.77,0.70,0.56,1.55,-1.35,-1.36,-1.29
282.17,-2.05,-2.03,-0.78,-0.76,0.70,0.53,1.52,-1.35,-1.33,-1.27
284.99,-2.00,-1.96,-0.75,-0.71,0.69,0.51,1.50,-1.31,-1.27,-1.25
287.84,-1.83,-1.89,-0.60,-0.65,0.69,0.49,1.47,-1.14,-1.20,-1.23
290.72,-1.82,-1.83,-0.61,-0.62,0.68,0.46,1.43,-1.14,-1.15,-1.21
293.63,-1.82,-1.80,-0.63,-0.61,0.67,0.44,1.40,-1.15,-1.13,-1.19
296.57,-1.82,-1.82,-0.65,-0.65,0.66,0.43,1.37,-1.16,-1.16,-1.17
299.53,-1.82,-1.82,-0.67,-0.67,0.65,0.41,1.33,-1.17,-1.18,-1.15
302.53,-1.82,-1.83,-0.69,-0.70,0.64,0.39,1.30,-1.18,-1.19,-1.13
305.55,-1.82,-1.80,-0.72,-0.69,0.64,0.38,1.26,-1.18,-1.16,-1.10
308.61,-1.77,-1.74,-0.69,-0.66,0.64,0.37,1.22,-1.13,-1.09,-1.08
311.69,-1.62,-1.67,-0.56,-0.62,0.64,0.35,1.18,-0.98,-1.02,-1.06
314.81,-1.60,-1.61,-0.58,-0.58,0.64,0.34,1.15,-0.96,-0.97,-1.02
317.96,-1.60,-1.59,-0.60,-0.58,0.63,0.33,1.11,-0.97,-0.95,-1.00
321.14,-1.60,-1.60,-0.61,-0.61,0.62,0.32,1.07,-0.98,-0.98,-0.99
324.35,-1.60,-1.61,-0.63,-0.64,0.61,0.31,1.03,-0.99,-1.00,-0.97
327.59,-1.60,-1.61,-0.66,-0.66,0.60,0.31,1.00,-1.00,-1.01,-0.94
330.87,-1.60,-1.56,-0.68,-0.63,0.59,0.30,0.96,-1.01,-0.97,-0.92
334.18,-1.49,-1.49,-0.58,-0.58,0.59,0.29,0.92,-0.90,-0.90,-0.91
337.52,-1.38,-1.42,-0.49,-0.53,0.58,0.29,0.89,-0.80,-0.84,-0.89
340.90,-1.37,-1.37,-0.51,-0.50,0.57,0.28,0.85,-0.80,-0.80,-0.86
344.30,-1.37,-1.36,-0.53,-0.51,0.55,0.28,0.81,-0.82,-0.81,-0.84
347.75,-1.37,-1.38,-0.54,-0.55,0.53,0.27,0.78,-0.84,-0.85,-0.83
351.23,-1.37,-1.37,-0.56,-0.56,0.51,0.27,0.74,-0.86,-0.87,-0.81
354.74,-1.37,-1.33,-0.58,-0.54,0.50,0.26,0.71,-0.87,-0.84,-0.79
358.28,-1.26,-1.27,-0.49,-0.49,0.49,0.26,0.68,-0.77,-0.78,-0.77
361.87,-1.17,-1.20,-0.41,-0.44,0.47,0.26,0.65,-0.70,-0.72,-0.76
365.49,-1.14,-1.14,-0.39,-0.40,0.45,0.26,0.61,-0.69,-0.69,-0.75
369.14,-1.14,-1.14,-0.40,-0.40,0.42,0.25,0.58,-0.72,-0.72,-0.74
372.83,-1.14,-1.14,-0.42,-0.42,0.38,0.25,0.55,-0.76,-0.76,-0.72
376.56,-1.14,-1.11,-0.43,-0.40,0.35,0.25,0.52,-0.79,-0.76,-0.71
380.33,-1.05,-1.04,-0.37,-0.35,0.33,0.25,0.49,-0.72,-0.72,-0.68
384.13,-0.94,-0.97,-0.26,-0.29,0.31,0.25,0.46,-0.63,-0.66,-0.68
387.97,-0.91,-0.92,-0.24,-0.25,0.29,0.25,0.43,-0.62,-0.62,-0.67
391.85,-0.91,-0.90,-0.25,-0.24,0.28,0.25,0.41,-0.63,-0.62,-0.66
395.77,-0.91,-0.91,-0.27,-0.26,0.28,0.25,0.38,-0.63,-0.63,-0.64
399.73,-0.91,-0.91,-0.28,-0.28,0.28,0.25,0.35,-0.63,-0.63,-0.63
403.72,-0.91,-0.91,-0.29,-0.29,0.29,0.25,0.33,-0.62,-0.62,-0.62
407.76,-0.91,-0.91,-0.29,-0.30,0.30,0.25,0.30,-0.61,-0.61,-0.62
411.84,-0.91,-0.91,-0.31,-0.31,0.30,0.25,0.28,-0.61,-0.61,-0.60
415.96,-0.91,-0.92,-0.32,-0.34,0.29,0.25,0.25,-0.62,-0.63,-0.59
420.12,-0.91,-0.90,-0.33,-0.32,0.27,0.25,0.23,-0.64,-0.63,-0.58
424.32,-0.89,-0.84,-0.32,-0.27,0.25,0.25,0.21,-0.64,-0.60,-0.57
428.56,-0.74,-0.77,-0.18,-0.21,0.22,0.25,0.19,-0.52,-0.55,-0.56
432.85,-0.68,-0.71,-0.13,-0.15,0.20,0.25,0.16,-0.48,-0.51,-0.55
437.18,-0.68,-0.67,-0.14,-0.13,0.18,0.26,0.14,-0.50,-0.49,-0.54
441.55,-0.68,-0.67,-0.16,-0.15,0.17,0.26,0.12,-0.51,-0.51,-0.52
445.96,-0.68,-0.68,-0.17,-0.17,0.16,0.26,0.11,-0.52,-0.52,-0.51
450.42,-0.68,-0.68,-0.17,-0.18,0.16,0.26,0.09,-0.52,-0.52,-0.51
454.93,-0.68,-0.68,-0.19,-0.19,0.18,0.27,0.07,-0.50,-0.50,-0.49
459.48,-0.68,-0.68,-0.20,-0.21,0.21,0.27,0.05,-0.47,-0.47,-0.48
464.07,-0.68,-0.68,-0.22,-0.22,0.23,0.27,0.04,-0.45,-0.45,-0.46
468.71,-0.68,-0.68,-0.24,-0.24,0.25,0.27,0.02,-0.43,-0.43,-0.44
473.40,-0.68,-0.68,-0.25,-0.25,0.26,0.28,0.01,-0.42,-0.42,-0.43
478.13,-0.68,-0.69,-0.27,-0.27,0.25,0.28,-0.00,-0.43,-0.44,-0.41
482.91,-0.68,-0.69,-0.28,-0.29,0.24,0.28,-0.01,-0.44,-0.44,-0.40
487.74,-0.68,-0.65,-0.30,-0.27,0.24,0.29,-0.02,-0.44,-0.41,-0.38
492.62,-0.60,-0.59,-0.24,-0.22,0.22,0.29,-0.03,-0.38,-0.36,-0.36
497.55,-0.49,-0.52,-0.14,-0.17,0.21,0.29,-0.04,-0.28,-0.31,-0.35
502.52,-0.46,-0.47,-0.13,-0.13,0.18,0.30,-0.05,-0.28,-0.28,-0.33
507.55,-0.46,-0.46,-0.14,-0.13,0.15,0.30,-0.05,-0.31,-0.30,-0.32
