frequency,raw,smoothed,error,error_smoothed,equalization,parametric_eq,fixed_band_eq,equalized_raw,equalized_smoothed,target
20.00,2.68,2.68,-2.54,-2.54,2.57,0.91,0.19,5.25,5.26,5.22
20.20,2.73,2.72,-2.54,-2.55,2.56,0.91,0.20,5.29,5.28,5.27
20.40,2.77,2.77,-2.55,-2.55,2.54,0.91,0.21,5.31,5.31,5.32
20.61,2.82,2.82,-2.53,-2.54,2.52,0.90,0.21,5.34,5.34,5.35
20.81,2.87,2.87,-2.53,-2.53,2.50,0.90,0.22,5.36,5.36,5.40
21.02,2.92,2.93,-2.52,-2.50,2.47,0.90,0.22,5.39,5.39,5.44
21.23,3.00,3.00,-2.46,-2.46,2.44,0.89,0.23,5.43,5.43,5.46
21.44,3.08,3.08,-2.40,-2.40,2.40,0.89,0.24,5.48,5.48,5.48
21.66,3.16,3.16,-2.34,-2.33,2.35,0.89,0.24,5.51,5.51,5.50
21.87,3.23,3.23,-2.28,-2.28,2.30,0.88,0.25,5.53,5.53,5.51
22.09,3.30,3.29,-2.23,-2.23,2.26,0.88,0.26,5.55,5.54,5.52
22.31,3.33,3.33,-2.20,-2.20,2.21,0.87,0.27,5.54,5.54,5.53
22.54,3.37,3.37,-2.17,-2.17,2.16,0.87,0.27,5.53,5.53,5.53
22.76,3.40,3.40,-2.13,-2.13,2.11,0.87,0.28,5.51,5.51,5.53
22.99,3.44,3.44,-2.08,-2.08,2.07,0.86,0.29,5.51,5.51,5.52
23.22,3.50,3.49,-2.02,-2.03,2.02,0.86,0.30,5.52,5.52,5.52
23.45,3.55,3.55,-1.97,-1.97,1.98,0.85,0.31,5.52,5.53,5.52
23.69,3.61,3.61,-1.92,-1.92,1.92,0.85,0.31,5.53,5.53,5.53
23.92,3.67,3.67,-1.86,-1.86,1.87,0.84,0.32,5.54,5.54,5.53
24.16,3.73,3.72,-1.81,-1.81,1.82,0.84,0.33,5.54,5.54,5.54
24.40,3.78,3.78,-1.77,-1.76,1.76,0.83,0.34,5.54,5.54,5.55
24.65,3.83,3.83,-1.71,-1.71,1.70,0.82,0.35,5.53,5.53,5.54
24.89,3.89,3.89,-1.65,-1.65,1.64,0.82,0.36,5.53,5.53,5.54
25.14,3.95,3.95,-1.58,-1.59,1.58,0.81,0.37,5.53,5.53,5.53
25.39,4.02,4.02,-1.52,-1.52,1.52,0.80,0.38,5.53,5.53,5.54
25.65,4.09,4.09,-1.45,-1.45,1.45,0.80,0.39,5.54,5.54,5.54
25.91,4.15,4.15,-1.38,-1.38,1.39,0.79,0.40,5.53,5.54,5.53
26.16,4.22,4.21,-1.31,-1.32,1.32,0.78,0.41,5.54,5.54,5.53
26.43,4.27,4.27,-1.26,-1.26,1.27,0.78,0.42,5.54,5.54,5.53
26.69,4.33,4.33,-1.20,-1.20,1.22,0.77,0.43,5.55,5.55,5.53
26.96,4.38,4.38,-1.16,-1.16,1.17,0.76,0.44,5.55,5.54,5.54
27.23,4.42,4.42,-1.12,-1.12,1.12,0.75,0.45,5.54,5.54,5.54
27.50,4.45,4.45,-1.09,-1.09,1.07,0.74,0.46,5.52,5.52,5.53
27.77,4.48,4.48,-1.04,-1.05,1.02,0.73,0.47,5.50,5.50,5.52
28.05,4.51,4.52,-1.01,-1.00,0.97,0.72,0.48,5.48,5.49,5.52
28.33,4.58,4.58,-0.93,-0.93,0.93,0.71,0.49,5.51,5.51,5.51
28.62,4.65,4.65,-0.86,-0.86,0.89,0.70,0.49,5.53,5.54,5.51
28.90,4.73,4.71,-0.79,-0.80,0.85,0.69,0.50,5.58,5.56,5.52
29.19,4.75,4.74,-0.76,-0.77,0.80,0.68,0.51,5.55,5.55,5.50
29.48,4.75,4.75,-0.77,-0.76,0.76,0.67,0.52,5.51,5.51,5.52
29.78,4.76,4.76,-0.75,-0.76,0.71,0.66,0.53,5.47,5.47,5.51
30.08,4.78,4.79,-0.74,-0.72,0.67,0.64,0.53,5.45,5.47,5.52
30.38,4.86,4.86,-0.65,-0.65,0.63,0.63,0.54,5.49,5.49,5.51
30.68,4.94,4.93,-0.57,-0.57,0.59,0.62,0.55,5.53,5.53,5.51
30.99,5.02,5.00,-0.49,-0.50,0.54,0.60,0.55,5.56,5.54,5.50
31.30,5.04,5.04,-0.46,-0.47,0.48,0.59,0.56,5.52,5.52,5.50
31.61,5.06,5.06,-0.44,-0.44,0.42,0.57,0.57,5.48,5.48,5.50
31.93,5.08,5.09,-0.42,-0.40,0.37,0.55,0.57,5.45,5.46,5.50
32.24,5.15,5.15,-0.33,-0.34,0.32,0.54,0.58,5.47,5.48,5.48
32.57,5.22,5.22,-0.27,-0.27,0.29,0.52,0.58,5.50,5.51,5.49
32.89,5.30,5.28,-0.19,-0.21,0.25,0.50,0.58,5.55,5.53,5.49
33.22,5.31,5.30,-0.17,-0.18,0.21,0.48,0.59,5.51,5.50,5.48
33.55,5.30,5.30,-0.18,-0.17,0.16,0.46,0.59,5.46,5.46,5.47
33.89,5.28,5.30,-0.18,-0.16,0.11,0.44,0.59,5.39,5.41,5.46
34.23,5.34,5.35,-0.13,-0.11,0.07,0.42,0.60,5.41,5.42,5.47
34.57,5.42,5.41,-0.04,-0.04,0.04,0.39,0.60,5.46,5.45,5.45
34.92,5.50,5.48,0.05,0.03,0.02,0.37,0.60,5.51,5.49,5.45
35.27,5.51,5.51,0.06,0.06,-0.01,0.34,0.61,5.50,5.50,5.45
35.62,5.51,5.51,0.06,0.07,-0.03,0.31,0.61,5.48,5.48,5.44
35.97,5.50,5.50,0.06,0.06,-0.05,0.29,0.61,5.44,5.44,5.44
36.33,5.49,5.48,0.04,0.05,-0.08,0.26,0.61,5.41,5.41,5.45
36.70,5.49,5.48,0.06,0.05,-0.10,0.23,0.62,5.39,5.39,5.43
37.06,5.49,5.51,0.06,0.08,-0.12,0.20,0.62,5.37,5.40,5.43
37.43,5.57,5.57,0.12,0.13,-0.14,0.16,0.62,5.43,5.43,5.44
37.81,5.65,5.63,0.21,0.19,-0.17,0.13,0.63,5.48,5.47,5.44
38.19,5.69,5.68,0.25,0.23,-0.20,0.09,0.63,5.49,5.47,5.44
38.57,5.69,5.69,0.25,0.25,-0.24,0.06,0.64,5.45,5.45,5.44
38.95,5.69,5.70,0.24,0.26,-0.27,0.02,0.64,5.41,5.43,5.45
39.34,5.73,5.73,0.29,0.29,-0.30,-0.02,0.65,5.42,5.43,5.44
39.74,5.77,5.76,0.33,0.32,-0.33,-0.06,0.65,5.44,5.44,5.44
40.14,5.80,5.79,0.36,0.35,-0.34,-0.10,0.66,5.46,5.45,5.44
40.54,5.80,5.80,0.36,0.37,-0.35,-0.14,0.67,5.45,5.45,5.44
40.94,5.80,5.80,0.37,0.37,-0.36,-0.19,0.68,5.44,5.44,5.43
41.35,5.80,5.80,0.38,0.37,-0.37,-0.23,0.68,5.43,5.43,5.42
41.76,5.80,5.80,0.38,0.38,-0.38,-0.27,0.69,5.42,5.42,5.42
42.18,5.80,5.80,0.38,0.38,-0.39,-0.32,0.70,5.41,5.41,5.42
42.60,5.80,5.80,0.39,0.39,-0.40,-0.36,0.71,5.40,5.40,5.40
43.03,5.80,5.80,0.40,0.40,-0.43,-0.41,0.72,5.37,5.37,5.40
43.46,5.82,5.82,0.43,0.43,-0.46,-0.45,0.73,5.36,5.35,5.39
43.90,5.84,5.85,0.48,0.48,-0.50,-0.50,0.75,5.33,5.34,5.36
44.33,5.89,5.89,0.54,0.55,-0.55,-0.54,0.76,5.34,5.34,5.34
44.78,5.95,5.94,0.62,0.61,-0.60,-0.58,0.77,5.35,5.34,5.33
45.23,5.98,5.97,0.66,0.66,-0.64,-0.61,0.79,5.34,5.34,5.32
45.68,5.99,5.99,0.69,0.69,-0.67,-0.65,0.80,5.32,5.32,5.30
46.13,6.00,6.00,0.72,0.71,-0.69,-0.68,0.81,5.30,5.31,5.28
46.60,6.00,6.00,0.72,0.73,-0.71,-0.71,0.83,5.29,5.29,5.28
47.06,5.99,5.98,0.73,0.71,-0.71,-0.73,0.85,5.28,5.27,5.26
47.53,5.95,5.95,0.70,0.69,-0.70,-0.75,0.86,5.25,5.24,5.25
48.01,5.90,5.92,0.65,0.68,-0.69,-0.77,0.88,5.21,5.23,5.25
48.49,5.90,5.90,0.67,0.67,-0.68,-0.78,0.90,5.22,5.22,5.23
48.97,5.90,5.87,0.69,0.67,-0.67,-0.78,0.91,5.23,5.21,5.21
49.46,5.85,5.85,0.66,0.66,-0.66,-0.78,0.93,5.19,5.19,5.19
49.96,5.80,5.82,0.63,0.64,-0.66,-0.77,0.95,5.14,5.16,5.17
50.46,5.80,5.80,0.63,0.64,-0.66,-0.75,0.97,5.14,5.13,5.16
50.96,5.80,5.80,0.65,0.65,-0.66,-0.73,0.99,5.14,5.14,5.15
51.47,5.80,5.80,0.67,0.67,-0.65,-0.70,1.00,5.15,5.15,5.13
51.99,5.81,5.79,0.69,0.67,-0.64,-0.67,1.02,5.17,5.15,5.11
52.51,5.75,5.75,0.64,0.64,-0.62,-0.63,1.04,5.12,5.13,5.11
53.03,5.70,5.70,0.59,0.60,-0.60,-0.59,1.06,5.10,5.10,5.11
53.56,5.64,5.64,0.55,0.55,-0.57,-0.54,1.07,5.06,5.07,5.09
54.10,5.59,5.60,0.51,0.52,-0.54,-0.49,1.09,5.05,5.06,5.08
54.64,5.56,5.55,0.50,0.49,-0.49,-0.43,1.10,5.07,5.07,5.06
55.18,5.51,5.50,0.45,0.45,-0.43,-0.37,1.11,5.08,5.07,5.05
55.74,5.43,5.43,0.39,0.39,-0.37,-0.30,1.13,5.06,5.06,5.04
56.29,5.34,5.33,0.31,0.31,-0.31,-0.23,1.14,5.03,5.03,5.03
56.86,5.23,5.24,0.22,0.24,-0.24,-0.16,1.14,4.99,5.00,5.01
57.42,5.15,5.15,0.17,0.16,-0.17,-0.08,1.15,4.97,4.98,4.98
58.00,5.08,5.05,0.11,0.08,-0.10,0.00,1.16,4.98,4.96,4.97
58.58,4.95,4.96,-0.01,0.00,-0.02,0.09,1.16,4.93,4.94,4.96
59.16,4.84,4.87,-0.10,-0.08,0.07,0.18,1.16,4.91,4.94,4.94
59.76,4.78,4.76,-0.14,-0.16,0.16,0.27,1.16,4.94,4.92,4.92
60.35,4.65,4.63,-0.23,-0.25,0.27,0.37,1.15,4.91,4.90,4.88
60.96,4.47,4.47,-0.38,-0.37,0.38,0.48,1.14,4.85,4.86,4.85
61.57,4.28,4.29,-0.52,-0.51,0.52,0.59,1.13,4.80,4.81,4.80
62.18,4.09,4.10,-0.67,-0.66,0.68,0.71,1.12,4.77,4.78,4.76
62.80,3.91,3.89,-0.81,-0.83,0.86,0.84,1.10,4.76,4.74,4.72
63.43,3.66,3.65,-1.01,-1.02,1.05,0.98,1.08,4.71,4.70,4.67
64.07,3.38,3.40,-1.25,-1.23,1.25,1.13,1.06,4.63,4.64,4.62
64.71,3.13,3.12,-1.45,-1.46,1.44,1.29,1.04,4.57,4.56,4.58
65.35,2.86,2.85,-1.68,-1.69,1.63,1.46,1.01,4.49,4.48,4.54
66.01,2.59,2.61,-1.90,-1.88,1.81,1.66,0.98,4.40,4.43,4.49
66.67,2.40,2.40,-2.04,-2.05,1.99,1.86,0.95,4.39,4.39,4.44
67.33,2.22,2.21,-2.18,-2.19,2.17,2.08,0.91,4.39,4.38,4.39
68.01,2.03,2.03,-2.32,-2.32,2.35,2.32,0.87,4.38,4.38,4.35
68.69,1.82,1.82,-2.48,-2.48,2.54,2.56,0.83,4.36,4.37,4.30
69.37,1.58,1.56,-2.67,-2.69,2.77,2.82,0.79,4.35,4.33,4.25
70.07,1.28,1.25,-2.92,-2.95,3.04,3.06,0.74,4.32,4.29,4.20
70.77,0.89,0.94,-3.27,-3.21,3.32,3.30,0.70,4.21,4.26,4.15
71.48,0.59,0.59,-3.51,-3.50,3.59,3.49,0.65,4.18,4.18,4.10
72.19,0.29,0.23,-3.75,-3.81,3.82,3.65,0.60,4.11,4.06,4.03
72.91,-0.13,-0.12,-4.11,-4.10,4.00,3.73,0.55,3.87,3.88,3.98
73.64,-0.47,-0.45,-4.39,-4.37,4.10,3.76,0.49,3.63,3.65,3.92
74.38,-0.71,-0.69,-4.57,-4.56,4.12,3.69,0.44,3.41,3.43,3.86
75.12,-0.84,-0.85,-4.65,-4.65,4.06,3.58,0.38,3.21,3.21,3.80
75.87,-0.86,-0.92,-4.61,-4.67,3.91,3.40,0.33,3.05,2.99,3.75
76.63,-0.92,-0.85,-4.62,-4.54,3.70,3.18,0.27,2.78,2.85,3.70
77.40,-0.72,-0.67,-4.37,-4.31,3.44,2.94,0.21,2.72,2.77,3.64
78.17,-0.33,-0.41,-3.91,-4.00,3.14,2.69,0.15,2.81,2.73,3.58
78.95,-0.13,-0.11,-3.68,-3.66,2.84,2.44,0.09,2.71,2.73,3.55
79.74,0.13,0.10,-3.37,-3.39,2.57,2.19,0.03,2.70,2.67,3.50
80.54,0.26,0.26,-3.19,-3.19,2.31,1.96,-0.03,2.57,2.56,3.45
81.35,0.37,0.37,-3.03,-3.03,2.05,1.73,-0.09,2.42,2.42,3.40
82.16,0.54,0.52,-2.81,-2.84,1.79,1.53,-0.16,2.33,2.31,3.35
82.98,0.66,0.76,-2.66,-2.55,1.53,1.34,-0.22,2.19,2.29,3.32
83.81,1.13,1.09,-2.13,-2.18,1.28,1.16,-0.29,2.41,2.36,3.26
84.65,1.49,1.47,-1.72,-1.75,1.02,1.00,-0.35,2.51,2.49,3.21
85.50,1.86,1.87,-1.32,-1.30,0.76,0.84,-0.42,2.62,2.64,3.17
86.35,2.22,2.20,-0.90,-0.93,0.51,0.69,-0.48,2.73,2.71,3.12
87.22,2.53,2.52,-0.55,-0.55,0.25,0.56,-0.55,2.78,2.77,3.07
88.09,2.79,2.82,-0.24,-0.20,-0.02,0.42,-0.62,2.77,2.81,3.02
88.97,3.13,3.10,0.16,0.13,-0.29,0.29,-0.68,2.84,2.81,2.97
89.86,3.38,3.38,0.46,0.46,-0.56,0.16,-0.75,2.81,2.81,2.92
90.76,3.63,3.66,0.76,0.79,-0.84,0.03,-0.82,2.78,2.82,2.87
91.66,3.94,3.92,1.11,1.10,-1.12,-0.09,-0.89,2.82,2.80,2.83
92.58,4.19,4.17,1.43,1.40,-1.39,-0.22,-0.96,2.80,2.78,2.76
93.51,4.39,4.40,1.67,1.68,-1.64,-0.35,-1.03,2.75,2.76,2.72
94.44,4.58,4.59,1.90,1.92,-1.88,-0.49,-1.10,2.70,2.71,2.68
95.39,4.78,4.76,2.15,2.13,-2.10,-0.62,-1.17,2.68,2.66,2.63
96.34,4.90,4.89,2.32,2.31,-2.29,-0.77,-1.24,2.60,2.59,2.58
97.30,4.98,4.99,2.45,2.46,-2.47,-0.92,-1.31,2.51,2.52,2.53
98.28,5.07,5.08,2.58,2.59,-2.62,-1.08,-1.38,2.45,2.46,2.49
99.26,5.17,5.17,2.73,2.73,-2.75,-1.24,-1.45,2.42,2.42,2.44
100.25,5.25,5.25,2.85,2.85,-2.86,-1.42,-1.52,2.39,2.38,2.39
101.25,5.32,5.31,2.97,2.96,-2.96,-1.60,-1.59,2.36,2.35,2.35
102.27,5.34,5.35,3.04,3.05,-3.04,-1.79,-1.66,2.30,2.31,2.30
103.29,5.38,5.38,3.13,3.12,-3.10,-1.99,-1.73,2.27,2.27,2.25
104.32,5.39,5.38,3.18,3.18,-3.15,-2.20,-1.80,2.24,2.23,2.21
105.37,5.37,5.37,3.21,3.21,-3.19,-2.41,-1.87,2.18,2.18,2.16
106.42,5.33,5.32,3.21,3.21,-3.21,-2.63,-1.93,2.12,2.11,2.12
107.48,5.26,5.26,3.20,3.20,-3.22,-2.84,-2.00,2.04,2.04,2.06
108.56,5.20,5.21,3.19,3.21,-3.23,-3.05,-2.06,1.97,1.98,2.00
109.64,5.18,5.18,3.22,3.22,-3.24,-3.26,-2.12,1.94,1.94,1.96
110.74,5.16,5.14,3.26,3.24,-3.24,-3.43,-2.18,1.91,1.90,1.90
111.85,5.12,5.10,3.25,3.24,-3.25,-3.60,-2.23,1.87,1.85,1.87
112.97,5.03,5.06,3.23,3.25,-3.26,-3.71,-2.28,1.77,1.80,1.80
114.10,5.02,5.02,3.26,3.27,-3.27,-3.82,-2.33,1.75,1.76,1.76
115.24,5.01,4.98,3.30,3.28,-3.27,-3.84,-2.37,1.74,1.72,1.71
116.39,4.94,4.94,3.28,3.28,-3.26,-3.86,-2.41,1.68,1.68,1.66
117.55,4.86,4.87,3.24,3.25,-3.24,-3.80,-2.45,1.62,1.63,1.62
118.73,4.80,4.80,3.22,3.22,-3.22,-3.73,-2.48,1.58,1.59,1.58
119.92,4.74,4.74,3.18,3.19,-3.18,-3.60,-2.50,1.55,1.55,1.56
121.12,4.68,4.67,3.17,3.15,-3.15,-3.46,-2.53,1.53,1.52,1.51
122.33,4.58,4.58,3.10,3.09,-3.11,-3.29,-2.54,1.47,1.47,1.48
123.55,4.49,4.49,3.03,3.04,-3.07,-3.12,-2.55,1.42,1.43,1.46
124.79,4.41,4.42,2.98,2.99,-3.02,-2.93,-2.55,1.39,1.40,1.43
126.03,4.37,4.37,2.97,2.97,-2.96,-2.74,-2.55,1.41,1.40,1.40
127.29,4.31,4.30,2.93,2.93,-2.90,-2.55,-2.54,1.41,1.40,1.38
128.57,4.22,4.21,2.88,2.87,-2.83,-2.37,-2.53,1.39,1.37,1.34
129.85,4.08,4.09,2.77,2.78,-2.76,-2.20,-2.51,1.32,1.33,1.31
131.15,3.96,3.96,2.68,2.68,-2.68,-2.04,-2.49,1.28,1.28,1.28
132.46,3.84,3.83,2.59,2.58,-2.60,-1.89,-2.46,1.24,1.23,1.25
133.79,3.71,3.71,2.48,2.49,-2.51,-1.74,-2.43,1.19,1.20,1.23
135.12,3.59,3.60,2.40,2.40,-2.43,-1.61,-2.39,1.16,1.17,1.19
136.48,3.50,3.49,2.32,2.32,-2.35,-1.48,-2.35,1.15,1.15,1.18
137.84,3.41,3.39,2.27,2.26,-2.26,-1.37,-2.31,1.15,1.13,1.14
139.22,3.28,3.30,2.17,2.19,-2.18,-1.27,-2.26,1.10,1.13,1.11
140.61,3.19,3.19,2.11,2.10,-2.08,-1.17,-2.21,1.11,1.10,1.07
142.02,3.08,3.05,2.02,2.00,-1.98,-1.08,-2.15,1.10,1.07,1.06
143.44,2.89,2.91,1.86,1.88,-1.87,-1.00,-2.09,1.02,1.04,1.03
144.87,2.73,2.73,1.74,1.73,-1.74,-0.93,-2.03,0.99,0.99,0.99
146.32,2.55,2.54,1.60,1.58,-1.59,-0.86,-1.97,0.96,0.95,0.95
147.78,2.33,2.35,1.41,1.43,-1.42,-0.79,-1.91,0.91,0.93,0.92
149.26,2.13,2.12,1.25,1.25,-1.22,-0.74,-1.84,0.91,0.90,0.87
150.75,1.90,1.87,1.09,1.06,-1.01,-0.68,-1.78,0.89,0.86,0.81
152.26,1.57,1.59,0.83,0.85,-0.78,-0.63,-1.71,0.78,0.81,0.74
153.78,1.30,1.28,0.62,0.61,-0.57,-0.59,-1.64,0.73,0.71,0.68
155.32,0.98,0.97,0.38,0.37,-0.37,-0.55,-1.57,0.60,0.60,0.60
156.88,0.68,0.70,0.15,0.17,-0.22,-0.51,-1.50,0.45,0.47,0.53
158.44,0.48,0.46,0.03,0.01,-0.13,-0.47,-1.43,0.35,0.33,0.44
160.03,0.29,0.31,-0.07,-0.06,-0.10,-0.44,-1.36,0.19,0.21,0.36
161.63,0.25,0.28,-0.04,-0.01,-0.12,-0.41,-1.29,0.13,0.16,0.29
163.24,0.33,0.34,0.10,0.11,-0.18,-0.38,-1.22,0.15,0.17,0.23
164.88,0.51,0.47,0.33,0.29,-0.27,-0.35,-1.15,0.24,0.21,0.18
166.53,0.60,0.60,0.47,0.47,-0.36,-0.32,-1.08,0.24,0.24,0.13
168.19,0.66,0.66,0.57,0.57,-0.44,-0.30,-1.02,0.22,0.22,0.09
169.87,0.67,0.64,0.61,0.58,-0.48,-0.28,-0.95,0.19,0.16,0.05
171.57,0.56,0.58,0.52,0.54,-0.47,-0.26,-0.88,0.09,0.11,0.04
173.29,0.45,0.45,0.43,0.43,-0.41,-0.24,-0.81,0.04,0.04,0.02
175.02,0.32,0.30,0.30,0.29,-0.31,-0.22,-0.75,0.01,-0.00,0.02
176.77,0.13,0.15,0.13,0.14,-0.17,-0.20,-0.68,-0.04,-0.02,0.00
178.54,-0.01,-0.01,-0.01,-0.01,-0.02,-0.19,-0.61,-0.03,-0.03,-0.00
180.32,-0.16,-0.17,-0.17,-0.17,0.14,-0.17,-0.55,-0.02,-0.03,0.00
182.13,-0.30,-0.30,-0.31,-0.31,0.29,-0.16,-0.48,-0.02,-0.01,0.01
183.95,-0.44,-0.43,-0.44,-0.43,0.42,-0.14,-0.42,-0.02,-0.01,-0.00
185.79,-0.53,-0.55,-0.53,-0.54,0.54,-0.13,-0.36,0.01,-0.01,-0.00
187.65,-0.66,-0.66,-0.64,-0.64,0.64,-0.12,-0.29,-0.02,-0.02,-0.02
189.52,-0.77,-0.77,-0.74,-0.73,0.73,-0.10,-0.23,-0.04,-0.04,-0.03
191.42,-0.87,-0.87,-0.82,-0.82,0.80,-0.09,-0.17,-0.07,-0.07,-0.05
193.33,-0.95,-0.95,-0.88,-0.88,0.86,-0.08,-0.11,-0.09,-0.09,-0.07
195.27,-1.02,-1.02,-0.93,-0.93,0.92,-0.07,-0.05,-0.10,-0.10,-0.09
197.22,-1.06,-1.06,-0.95,-0.95,0.97,-0.06,0.01,-0.10,-0.10,-0.11
199.19,-1.11,-1.11,-0.98,-0.98,1.00,-0.05,0.07,-0.11,-0.10,-0.13
201.18,-1.14,-1.16,-0.99,-1.01,1.03,-0.04,0.13,-0.11,-0.13,-0.15
203.19,-1.22,-1.23,-1.06,-1.06,1.05,-0.03,0.18,-0.18,-0.18,-0.17
205.23,-1.30,-1.28,-1.11,-1.10,1.06,-0.02,0.24,-0.24,-0.22,-0.19
207.28,-1.32,-1.31,-1.12,-1.11,1.09,-0.01,0.30,-0.24,-0.23,-0.20
209.35,-1.32,-1.33,-1.10,-1.10,1.11,-0.01,0.35,-0.21,-0.21,-0.22
211.44,-1.32,-1.33,-1.07,-1.09,1.14,0.00,0.40,-0.19,-0.20,-0.26
213.56,-1.37,-1.37,-1.11,-1.11,1.16,0.01,0.45,-0.21,-0.22,-0.26
215.69,-1.42,-1.43,-1.15,-1.16,1.17,0.02,0.50,-0.25,-0.26,-0.27
217.85,-1.51,-1.50,-1.23,-1.21,1.18,0.02,0.55,-0.33,-0.31,-0.29
220.03,-1.53,-1.53,-1.23,-1.23,1.19,0.03,0.60,-0.34,-0.34,-0.30
222.23,-1.54,-1.53,-1.22,-1.21,1.19,0.04,0.64,-0.36,-0.34,-0.32
224.45,-1.48,-1.50,-1.17,-1.18,1.17,0.05,0.69,-0.31,-0.32,-0.31
226.70,-1.44,-1.46,-1.13,-1.14,1.15,0.05,0.73,-0.29,-0.31,-0.31
228.96,-1.42,-1.40,-1.12,-1.10,1.11,0.06,0.77,-0.31,-0.30,-0.30
231.25,-1.35,-1.35,-1.06,-1.06,1.05,0.07,0.80,-0.30,-0.30,-0.29
233.57,-1.27,-1.28,-0.99,-0.99,0.99,0.07,0.84,-0.28,-0.29,-0.28
235.90,-1.20,-1.21,-0.93,-0.93,0.92,0.08,0.87,-0.28,-0.28,-0.27
238.26,-1.12,-1.13,-0.86,-0.87,0.86,0.09,0.90,-0.26,-0.26,-0.26
240.64,-1.07,-1.03,-0.83,-0.79,0.81,0.09,0.92,-0.26,-0.23,-0.24
243.05,-0.92,-0.94,-0.71,-0.73,0.76,0.10,0.95,-0.17,-0.18,-0.21
245.48,-0.84,-0.86,-0.65,-0.68,0.70,0.11,0.97,-0.14,-0.16,-0.19
247.93,-0.81,-0.82,-0.65,-0.66,0.66,0.11,0.99,-0.15,-0.16,-0.16
250.41,-0.79,-0.78,-0.65,-0.64,0.62,0.12,1.00,-0.17,-0.16,-0.14
252.92,-0.76,-0.71,-0.65,-0.60,0.58,0.12,1.01,-0.18,-0.13,-0.11
255.45,-0.60,-0.64,-0.51,-0.55,0.54,0.13,1.02,-0.06,-0.10,-0.09
258.00,-0.55,-0.57,-0.48,-0.50,0.51,0.14,1.03,-0.04,-0.06,-0.07
260.58,-0.54,-0.51,-0.49,-0.46,0.47,0.14,1.03,-0.07,-0.04,-0.05
263.19,-0.47,-0.48,-0.45,-0.45,0.44,0.15,1.03,-0.03,-0.04,-0.02
265.82,-0.41,-0.41,-0.41,-0.41,0.41,0.15,1.03,-0.00,-0.01,-0.01
268.48,-0.36,-0.34,-0.38,-0.36,0.38,0.16,1.03,0.02,0.04,0.02
271.16,-0.26,-0.29,-0.31,-0.34,0.35,0.17,1.02,0.09,0.06,0.05
273.87,-0.24,-0.26,-0.31,-0.33,0.33,0.17,1.01,0.09,0.08,0.07
276.61,-0.26,-0.23,-0.36,-0.33,0.32,0.18,1.00,0.05,0.09,0.10
279.38,-0.20,-0.20,-0.33,-0.32,0.30,0.18,0.99,0.10,0.11,0.13
282.17,-0.14,-0.14,-0.29,-0.29,0.29,0.19,0.98,0.15,0.15,0.15
284.99,-0.07,-0.08,-0.26,-0.26,0.29,0.20,0.96,0.21,0.20,0.19
287.84,-0.04,-0.06,-0.24,-0.27,0.28,0.20,0.95,0.23,0.22,0.20
290.72,-0.04,-0.03,-0.28,-0.27,0.26,0.21,0.93,0.22,0.23,0.24
293.63,-0.04,-0.00,-0.30,-0.27,0.25,0.22,0.91,0.21,0.25,0.26
296.57,0.07,0.04,-0.23,-0.26,0.23,0.22,0.89,0.30,0.27,0.30
299.53,0.11,0.10,-0.21,-0.22,0.22,0.23,0.87,0.33,0.32,0.32
302.53,0.12,0.16,-0.22,-0.19,0.21,0.23,0.85,0.32,0.37,0.34
305.55,0.23,0.19,-0.16,-0.18,0.19,0.24,0.83,0.42,0.38,0.39
308.61,0.25,0.23,-0.15,-0.17,0.17,0.25,0.81,0.42,0.40,0.40
311.69,0.23,0.27,-0.20,-0.16,0.16,0.25,0.79,0.38,0.43,0.43
314.81,0.31,0.30,-0.15,-0.15,0.15,0.26,0.76,0.45,0.45,0.45
317.96,0.35,0.33,-0.12,-0.14,0.14,0.27,0.74,0.49,0.47,0.47
321.14,0.36,0.36,-0.12,-0.13,0.15,0.27,0.72,0.50,0.50,0.48
324.35,0.35,0.36,-0.15,-0.14,0.15,0.28,0.70,0.50,0.51,0.50
327.59,0.35,0.35,-0.16,-0.16,0.16,0.29,0.68,0.51,0.51,0.51
330.87,0.35,0.35,-0.17,-0.17,0.18,0.29,0.65,0.52,0.52,0.52
334.18,0.35,0.35,-0.19,-0.19,0.19,0.30,0.63,0.53,0.54,0.54
337.52,0.35,0.35,-0.20,-0.20,0.19,0.31,0.61,0.54,0.54,0.54
340.90,0.35,0.34,-0.21,-0.22,0.19,0.31,0.59,0.54,0.53,0.56
344.30,0.34,0.35,-0.23,-0.21,0.19,0.32,0.57,0.53,0.54,0.57
347.75,0.37,0.38,-0.20,-0.19,0.18,0.33,0.55,0.55,0.56,0.57
351.23,0.43,0.41,-0.15,-0.16,0.17,0.33,0.53,0.60,0.58,0.57
354.74,0.45,0.44,-0.12,-0.13,0.16,0.34,0.51,0.60,0.60,0.57
358.28,0.45,0.46,-0.13,-0.12,0.14,0.35,0.49,0.59,0.60,0.58
361.87,0.46,0.46,-0.12,-0.12,0.12,0.35,0.47,0.58,0.58,0.58
365.49,0.47,0.46,-0.12,-0.12,0.11,0.36,0.46,0.58,0.57,0.59
369.14,0.47,0.47,-0.11,-0.10,0.10,0.37,0.44,0.57,0.57,0.57
372.83,0.48,0.48,-0.09,-0.09,0.09,0.37,0.42,0.57,0.57,0.57
376.56,0.49,0.49,-0.08,-0.09,0.08,0.38,0.41,0.57,0.57,0.57
380.33,0.50,0.50,-0.08,-0.08,0.07,0.39,0.39,0.57,0.57,0.58
384.13,0.50,0.50,-0.08,-0.07,0.07,0.40,0.37,0.57,0.57,0.58
387.97,0.51,0.51,-0.06,-0.06,0.07,0.40,0.36,0.58,0.58,0.57
391.85,0.51,0.51,-0.05,-0.05,0.08,0.41,0.34,0.58,0.58,0.55
395.77,0.51,0.49,-0.05,-0.07,0.08,0.42,0.33,0.59,0.58,0.56
399.73,0.46,0.46,-0.09,-0.09,0.09,0.43,0.32,0.55,0.56,0.55
403.72,0.42,0.43,-0.13,-0.12,0.10,0.43,0.30,0.52,0.53,0.55
407.76,0.41,0.41,-0.13,-0.14,0.11,0.44,0.29,0.52,0.52,0.54
411.84,0.40,0.40,-0.14,-0.14,0.12,0.45,0.28,0.52,0.52,0.54
415.96,0.40,0.40,-0.14,-0.14,0.13,0.46,0.27,0.53,0.53,0.54
420.12,0.40,0.40,-0.14,-0.13,0.14,0.46,0.25,0.54,0.54,0.54
424.32,0.41,0.41,-0.13,-0.12,0.15,0.47,0.24,0.56,0.56,0.53
428.56,0.42,0.41,-0.12,-0.13,0.16,0.48,0.23,0.57,0.57,0.54
432.85,0.42,0.40,-0.13,-0.15,0.16,0.49,0.22,0.58,0.56,0.55
437.18,0.38,0.39,-0.18,-0.18,0.16,0.50,0.22,0.54,0.56,0.56
441.55,0.39,0.40,-0.21,-0.19,0.16,0.50,0.21,0.55,0.56,0.60
445.96,0.44,0.43,-0.19,-0.19,0.16,0.51,0.20,0.60,0.60,0.63
450.42,0.49,0.49,-0.17,-0.18,0.17,0.52,0.19,0.66,0.66,0.66
454.93,0.55,0.55,-0.16,-0.15,0.17,0.53,0.19,0.72,0.72,0.71
459.48,0.61,0.61,-0.15,-0.14,0.17,0.54,0.18,0.78,0.79,0.76
464.07,0.67,0.66,-0.14,-0.15,0.17,0.55,0.18,0.84,0.83,0.81
468.71,0.70,0.69,-0.17,-0.17,0.17,0.55,0.18,0.87,0.86,0.86
473.40,0.70,0.71,-0.21,-0.20,0.18,0.56,0.17,0.88,0.89,0.90
478.13,0.74,0.74,-0.23,-0.21,0.19,0.57,0.17,0.93,0.93,0.96
482.91,0.79,0.78,-0.21,-0.22,0.21,0.58,0.17,0.99,0.99,1.00
487.74,0.83,0.83,-0.21,-0.22,0.23,0.59,0.17,1.06,1.06,1.04
492.62,0.86,0.86,-0.23,-0.22,0.25,0.60,0.17,1.11,1.12,1.09
497.55,0.88,0.86,-0.23,-0.25,0.28,0.61,0.17,1.16,1.14,1.11
502.52,0.85,0.84,-0.29,-0.29,0.30,0.61,0.18,1.15,1.15,1.14
507.55,0.80,0.81,-0.35,-0.34,0.33,0.62,0.18,1.13,1.13,1.15
512.62,0.77,0.78,-0.39,-0.39,0.35,0.63,0.18,1.12,1.13,1.16
517.75,0.76,0.76,-0.41,-0.40,0.38,0.64,0.19,1.14,1.14,1.17
522.93,0.76,0.76,-0.40,-0.40,0.40,0.65,0.20,1.16,1.16,1.16
528.16,0.75,0.73,-0.38,-0.40,0.41,0.66,0.20,1.16,1.14,1.13
533.44,0.68,0.68,-0.42,-0.42,0.42,0.67,0.21,1.10,1.10,1.10
538.77,0.60,0.62,-0.47,-0.44,0.44,0.68,0.22,1.04,1.05,1.07
544.16,0.56,0.57,-0.46,-0.45,0.45,0.69,0.23,1.01,1.02,1.02
