frequency,raw,error,smoothed,error_smoothed,equalization,parametric_eq,fixed_band_eq,equalized_raw,equalized_smoothed,target
20.00,-1.60,-4.83,-1.60,-4.83,4.84,4.01,1.56,3.23,3.23,3.23
20.20,-1.55,-4.82,-1.55,-4.82,4.82,3.99,1.60,3.27,3.27,3.27
20.40,-1.49,-4.80,-1.50,-4.81,4.81,3.97,1.65,3.32,3.31,3.31
20.61,-1.44,-4.78,-1.44,-4.79,4.79,3.95,1.70,3.35,3.35,3.34
20.81,-1.39,-4.77,-1.39,-4.77,4.77,3.93,1.75,3.38,3.38,3.38
21.02,-1.33,-4.75,-1.34,-4.75,4.74,3.91,1.80,3.41,3.41,3.42
21.23,-1.28,-4.72,-1.28,-4.72,4.72,3.89,1.86,3.43,3.43,3.44
21.44,-1.22,-4.68,-1.22,-4.69,4.68,3.87,1.91,3.46,3.46,3.46
21.66,-1.17,-4.65,-1.17,-4.65,4.65,3.85,1.97,3.48,3.48,3.48
21.87,-1.11,-4.60,-1.11,-4.61,4.61,3.82,2.03,3.50,3.50,3.49
22.09,-1.06,-4.57,-1.06,-4.57,4.57,3.80,2.09,3.51,3.51,3.51
22.31,-1.00,-4.52,-1.01,-4.53,4.53,3.78,2.15,3.52,3.52,3.52
22.54,-0.95,-4.48,-0.95,-4.48,4.48,3.76,2.22,3.52,3.53,3.53
22.76,-0.90,-4.44,-0.90,-4.43,4.43,3.74,2.28,3.53,3.53,3.54
22.99,-0.84,-4.38,-0.85,-4.39,4.39,3.71,2.35,3.54,3.54,3.54
23.22,-0.79,-4.34,-0.79,-4.34,4.34,3.69,2.42,3.55,3.55,3.55
23.45,-0.73,-4.29,-0.73,-4.29,4.29,3.67,2.49,3.56,3.56,3.56
23.69,-0.67,-4.24,-0.68,-4.24,4.25,3.65,2.56,3.57,3.57,3.57
23.92,-0.62,-4.20,-0.62,-4.20,4.20,3.62,2.63,3.58,3.59,3.58
24.16,-0.56,-4.16,-0.57,-4.16,4.16,3.60,2.71,3.60,3.59,3.60
24.40,-0.51,-4.13,-0.51,-4.12,4.12,3.58,2.78,3.60,3.60,3.62
24.65,-0.46,-4.08,-0.46,-4.08,4.07,3.56,2.86,3.61,3.61,3.61
24.89,-0.40,-4.03,-0.41,-4.03,4.03,3.53,2.94,3.63,3.62,3.62
25.14,-0.35,-3.99,-0.35,-3.99,3.99,3.51,3.01,3.63,3.64,3.63
25.39,-0.29,-3.94,-0.29,-3.94,3.94,3.49,3.09,3.65,3.65,3.64
25.65,-0.24,-3.91,-0.24,-3.90,3.90,3.46,3.17,3.65,3.65,3.66
25.91,-0.18,-3.85,-0.19,-3.85,3.85,3.44,3.25,3.67,3.67,3.66
26.16,-0.13,-3.80,-0.13,-3.80,3.81,3.42,3.32,3.67,3.68,3.67
26.43,-0.07,-3.76,-0.08,-3.76,3.76,3.39,3.40,3.69,3.69,3.68
26.69,-0.02,-3.71,-0.02,-3.72,3.72,3.37,3.47,3.70,3.70,3.69
26.96,0.03,-3.68,0.03,-3.68,3.68,3.34,3.55,3.70,3.70,3.71
27.23,0.08,-3.64,0.08,-3.64,3.63,3.32,3.62,3.71,3.71,3.72
27.50,0.14,-3.59,0.13,-3.59,3.59,3.30,3.69,3.73,3.72,3.73
27.77,0.19,-3.54,0.19,-3.55,3.55,3.27,3.76,3.73,3.73,3.73
28.05,0.24,-3.51,0.24,-3.50,3.50,3.25,3.82,3.74,3.74,3.75
28.33,0.29,-3.46,0.29,-3.46,3.46,3.22,3.88,3.75,3.75,3.75
28.62,0.35,-3.41,0.34,-3.41,3.41,3.20,3.94,3.76,3.76,3.76
28.90,0.40,-3.37,0.40,-3.37,3.37,3.17,3.98,3.77,3.77,3.76
29.19,0.45,-3.32,0.45,-3.33,3.33,3.15,4.03,3.77,3.78,3.76
29.48,0.50,-3.30,0.50,-3.29,3.29,3.12,4.07,3.78,3.78,3.79
29.78,0.55,-3.25,0.55,-3.24,3.24,3.10,4.11,3.79,3.79,3.79
30.08,0.60,-3.20,0.60,-3.21,3.20,3.08,4.13,3.80,3.80,3.80
30.38,0.65,-3.15,0.64,-3.16,3.16,3.05,4.16,3.81,3.81,3.80
30.68,0.69,-3.13,0.69,-3.12,3.12,3.02,4.17,3.81,3.81,3.82
30.99,0.74,-3.08,0.74,-3.08,3.08,3.00,4.18,3.82,3.82,3.82
31.30,0.79,-3.04,0.79,-3.04,3.04,2.97,4.18,3.83,3.83,3.83
31.61,0.84,-3.00,0.84,-3.00,3.00,2.95,4.17,3.84,3.84,3.83
31.93,0.89,-2.96,0.88,-2.96,2.96,2.92,4.16,3.85,3.84,3.84
32.24,0.93,-2.91,0.93,-2.92,2.92,2.90,4.14,3.85,3.85,3.84
32.57,0.98,-2.88,0.98,-2.88,2.88,2.87,4.11,3.86,3.86,3.86
32.89,1.03,-2.84,1.02,-2.84,2.84,2.85,4.08,3.87,3.87,3.87
33.22,1.07,-2.81,1.07,-2.81,2.81,2.82,4.04,3.87,3.88,3.88
33.55,1.12,-2.77,1.12,-2.77,2.77,2.79,4.00,3.89,3.89,3.89
33.89,1.16,-2.74,1.16,-2.74,2.74,2.77,3.95,3.89,3.90,3.89
34.23,1.21,-2.70,1.20,-2.70,2.70,2.74,3.89,3.91,3.90,3.90
34.57,1.24,-2.67,1.24,-2.67,2.67,2.72,3.83,3.90,3.91,3.91
34.92,1.28,-2.63,1.28,-2.64,2.63,2.69,3.77,3.91,3.91,3.91
35.27,1.32,-2.60,1.32,-2.60,2.60,2.66,3.70,3.91,3.91,3.92
35.62,1.36,-2.57,1.36,-2.57,2.56,2.64,3.63,3.92,3.92,3.93
35.97,1.40,-2.53,1.40,-2.53,2.53,2.61,3.56,3.93,3.93,3.92
36.33,1.44,-2.49,1.44,-2.49,2.50,2.58,3.48,3.93,3.93,3.93
36.70,1.48,-2.45,1.48,-2.45,2.46,2.55,3.41,3.94,3.94,3.93
37.06,1.52,-2.42,1.51,-2.42,2.42,2.53,3.33,3.94,3.94,3.94
37.43,1.55,-2.40,1.55,-2.39,2.39,2.50,3.25,3.94,3.94,3.94
37.81,1.58,-2.36,1.58,-2.36,2.35,2.47,3.17,3.93,3.93,3.94
38.19,1.62,-2.32,1.62,-2.32,2.32,2.44,3.09,3.93,3.93,3.94
38.57,1.66,-2.28,1.66,-2.28,2.28,2.42,3.01,3.94,3.94,3.94
38.95,1.70,-2.24,1.69,-2.24,2.24,2.39,2.93,3.94,3.94,3.93
39.34,1.73,-2.20,1.73,-2.20,2.21,2.36,2.85,3.94,3.94,3.93
39.74,1.76,-2.17,1.76,-2.17,2.17,2.33,2.77,3.93,3.93,3.93
40.14,1.79,-2.15,1.79,-2.14,2.14,2.30,2.69,3.93,3.93,3.93
40.54,1.82,-2.11,1.82,-2.11,2.11,2.27,2.61,3.93,3.93,3.93
40.94,1.85,-2.08,1.84,-2.08,2.09,2.25,2.53,3.93,3.93,3.93
41.35,1.87,-2.06,1.87,-2.06,2.06,2.22,2.46,3.93,3.93,3.92
41.76,1.90,-2.03,1.89,-2.03,2.04,2.19,2.38,3.93,3.93,3.93
42.18,1.92,-2.02,1.92,-2.01,2.01,2.16,2.31,3.93,3.93,3.94
42.60,1.95,-1.98,1.95,-1.99,1.98,2.13,2.24,3.93,3.93,3.93
43.03,1.98,-1.96,1.98,-1.96,1.95,2.10,2.17,3.93,3.92,3.94
43.46,2.01,-1.93,2.01,-1.92,1.92,2.06,2.10,3.92,3.92,3.93
43.90,2.04,-1.88,2.04,-1.89,1.88,2.03,2.03,3.92,3.92,3.92
44.33,2.08,-1.85,2.07,-1.85,1.85,2.00,1.97,3.92,3.92,3.92
44.78,2.11,-1.81,2.11,-1.81,1.81,1.97,1.90,3.92,3.92,3.92
45.23,2.15,-1.77,2.15,-1.77,1.78,1.94,1.84,3.93,3.93,3.91
45.68,2.18,-1.74,2.18,-1.74,1.75,1.90,1.78,3.93,3.93,3.92
46.13,2.21,-1.71,2.20,-1.72,1.72,1.87,1.72,3.93,3.92,3.91
46.60,2.23,-1.70,2.23,-1.69,1.69,1.84,1.66,3.92,3.92,3.93
47.06,2.25,-1.67,2.25,-1.67,1.66,1.80,1.60,3.91,3.92,3.92
47.53,2.28,-1.64,2.28,-1.65,1.64,1.77,1.55,3.92,3.92,3.92
48.01,2.31,-1.62,2.30,-1.62,1.61,1.73,1.50,3.92,3.92,3.93
48.49,2.33,-1.59,2.33,-1.59,1.59,1.70,1.44,3.91,3.91,3.91
48.97,2.35,-1.55,2.35,-1.55,1.56,1.66,1.39,3.90,3.90,3.90
49.46,2.37,-1.52,2.37,-1.52,1.52,1.63,1.34,3.89,3.89,3.89
49.96,2.39,-1.48,2.39,-1.49,1.49,1.59,1.30,3.88,3.88,3.87
50.46,2.41,-1.47,2.41,-1.46,1.45,1.55,1.25,3.86,3.86,3.87
50.96,2.44,-1.43,2.44,-1.42,1.42,1.51,1.20,3.85,3.85,3.87
51.47,2.47,-1.37,2.47,-1.38,1.38,1.47,1.16,3.85,3.85,3.84
51.99,2.50,-1.33,2.50,-1.34,1.34,1.43,1.12,3.84,3.84,3.83
52.51,2.53,-1.30,2.52,-1.30,1.30,1.39,1.08,3.83,3.83,3.83
53.03,2.55,-1.26,2.55,-1.26,1.26,1.35,1.03,3.81,3.81,3.81
53.56,2.58,-1.22,2.57,-1.23,1.22,1.31,0.99,3.80,3.80,3.80
54.10,2.60,-1.19,2.60,-1.19,1.18,1.27,0.96,3.78,3.78,3.78
54.64,2.63,-1.15,2.62,-1.14,1.15,1.22,0.92,3.77,3.77,3.77
55.18,2.65,-1.10,2.65,-1.11,1.11,1.18,0.88,3.75,3.75,3.75
55.74,2.67,-1.06,2.67,-1.07,1.07,1.13,0.84,3.73,3.73,3.73
56.29,2.69,-1.04,2.69,-1.03,1.03,1.09,0.81,3.71,3.72,3.73
56.86,2.72,-0.99,2.72,-0.99,0.99,1.04,0.78,3.70,3.70,3.71
57.42,2.75,-0.94,2.74,-0.95,0.95,1.00,0.74,3.70,3.70,3.69
58.00,2.77,-0.91,2.77,-0.91,0.92,0.95,0.71,3.68,3.68,3.67
58.58,2.79,-0.87,2.79,-0.87,0.88,0.90,0.68,3.67,3.67,3.66
59.16,2.80,-0.85,2.80,-0.85,0.85,0.85,0.65,3.65,3.65,3.65
59.76,2.82,-0.82,2.81,-0.82,0.82,0.80,0.61,3.64,3.63,3.63
60.35,2.82,-0.79,2.82,-0.80,0.79,0.76,0.58,3.60,3.60,3.61
60.96,2.82,-0.77,2.82,-0.76,0.75,0.71,0.56,3.57,3.57,3.59
61.57,2.83,-0.72,2.83,-0.72,0.72,0.66,0.53,3.54,3.54,3.55
62.18,2.85,-0.67,2.84,-0.68,0.68,0.61,0.50,3.52,3.52,3.51
62.80,2.86,-0.64,2.86,-0.63,0.63,0.56,0.47,3.49,3.49,3.50
63.43,2.88,-0.59,2.88,-0.59,0.59,0.52,0.44,3.46,3.46,3.46
64.07,2.90,-0.54,2.90,-0.54,0.54,0.47,0.42,3.44,3.44,3.44
64.71,2.92,-0.49,2.92,-0.49,0.50,0.42,0.39,3.41,3.41,3.41
65.35,2.94,-0.44,2.94,-0.44,0.45,0.38,0.36,3.39,3.39,3.38
66.01,2.96,-0.39,2.95,-0.40,0.40,0.34,0.34,3.36,3.36,3.35
66.67,2.97,-0.37,2.97,-0.36,0.36,0.29,0.31,3.33,3.33,3.33
67.33,2.99,-0.32,2.98,-0.32,0.32,0.25,0.29,3.30,3.30,3.30
68.01,3.00,-0.28,3.00,-0.28,0.27,0.21,0.26,3.27,3.27,3.27
68.69,3.01,-0.24,3.01,-0.23,0.22,0.18,0.24,3.23,3.24,3.24
69.37,3.04,-0.17,3.03,-0.18,0.18,0.14,0.22,3.21,3.21,3.21
70.07,3.06,-0.12,3.05,-0.13,0.13,0.11,0.19,3.18,3.18,3.18
70.77,3.08,-0.08,3.08,-0.08,0.08,0.08,0.17,3.15,3.15,3.16
71.48,3.10,-0.04,3.10,-0.03,0.02,0.05,0.14,3.12,3.13,3.13
72.19,3.13,0.03,3.13,0.02,-0.03,0.02,0.12,3.10,3.10,3.10
72.91,3.16,0.08,3.15,0.08,-0.07,-0.00,0.10,3.08,3.08,3.08
73.64,3.18,0.13,3.18,0.12,-0.12,-0.03,0.07,3.06,3.06,3.05
74.38,3.20,0.16,3.20,0.16,-0.16,-0.05,0.05,3.03,3.03,3.04
75.12,3.21,0.20,3.21,0.20,-0.20,-0.07,0.03,3.01,3.01,3.01
75.87,3.23,0.23,3.23,0.23,-0.23,-0.09,0.00,2.99,2.99,2.99
76.63,3.24,0.26,3.24,0.26,-0.26,-0.11,-0.02,2.98,2.98,2.98
77.40,3.25,0.29,3.25,0.29,-0.28,-0.12,-0.04,2.97,2.97,2.96
78.17,3.25,0.31,3.25,0.31,-0.30,-0.14,-0.06,2.95,2.95,2.94
78.95,3.25,0.32,3.24,0.31,-0.31,-0.16,-0.09,2.94,2.93,2.93
79.74,3.24,0.32,3.24,0.32,-0.32,-0.17,-0.11,2.92,2.92,2.92
80.54,3.23,0.32,3.23,0.32,-0.33,-0.19,-0.14,2.90,2.90,2.91
81.35,3.23,0.33,3.23,0.33,-0.33,-0.20,-0.16,2.89,2.89,2.90
82.16,3.23,0.34,3.23,0.33,-0.34,-0.21,-0.18,2.89,2.89,2.89
82.98,3.23,0.34,3.23,0.34,-0.34,-0.23,-0.21,2.88,2.88,2.89
83.81,3.23,0.35,3.23,0.35,-0.35,-0.24,-0.23,2.88,2.88,2.87
84.65,3.23,0.36,3.23,0.36,-0.35,-0.25,-0.26,2.87,2.87,2.86
85.50,3.23,0.36,3.23,0.36,-0.36,-0.27,-0.28,2.87,2.87,2.87
86.35,3.23,0.36,3.23,0.36,-0.36,-0.28,-0.31,2.86,2.86,2.86
87.22,3.23,0.37,3.23,0.37,-0.37,-0.30,-0.33,2.86,2.86,2.86
88.09,3.23,0.37,3.23,0.37,-0.37,-0.31,-0.36,2.86,2.86,2.86
88.97,3.23,0.37,3.23,0.37,-0.37,-0.33,-0.38,2.86,2.86,2.86
89.86,3.23,0.36,3.23,0.37,-0.37,-0.34,-0.41,2.86,2.86,2.86
90.76,3.23,0.38,3.23,0.37,-0.37,-0.35,-0.43,2.86,2.86,2.85
91.66,3.23,0.38,3.23,0.38,-0.37,-0.37,-0.46,2.85,2.85,2.85
92.58,3.23,0.38,3.23,0.38,-0.37,-0.39,-0.49,2.85,2.85,2.84
93.51,3.23,0.37,3.23,0.37,-0.38,-0.40,-0.52,2.85,2.85,2.86
94.44,3.23,0.38,3.23,0.38,-0.38,-0.42,-0.54,2.85,2.85,2.85
95.39,3.23,0.38,3.23,0.38,-0.39,-0.43,-0.57,2.84,2.84,2.85
96.34,3.23,0.39,3.23,0.39,-0.39,-0.45,-0.60,2.84,2.84,2.83
97.30,3.23,0.40,3.23,0.40,-0.40,-0.47,-0.63,2.83,2.83,2.83
98.28,3.23,0.41,3.23,0.41,-0.41,-0.48,-0.66,2.82,2.82,2.82
99.26,3.23,0.42,3.23,0.42,-0.42,-0.50,-0.69,2.81,2.81,2.81
100.25,3.23,0.43,3.23,0.43,-0.43,-0.52,-0.72,2.80,2.80,2.80
101.25,3.23,0.44,3.23,0.44,-0.44,-0.54,-0.75,2.79,2.79,2.79
102.27,3.23,0.46,3.23,0.46,-0.46,-0.56,-0.78,2.77,2.77,2.77
103.29,3.23,0.48,3.23,0.47,-0.47,-0.57,-0.81,2.76,2.76,2.75
104.32,3.23,0.49,3.23,0.49,-0.49,-0.59,-0.83,2.74,2.74,2.74
105.37,3.23,0.51,3.23,0.51,-0.51,-0.62,-0.86,2.72,2.72,2.72
106.42,3.23,0.53,3.23,0.53,-0.53,-0.64,-0.89,2.69,2.69,2.69
107.48,3.23,0.55,3.23,0.56,-0.56,-0.66,-0.92,2.67,2.67,2.67
108.56,3.23,0.59,3.23,0.59,-0.59,-0.68,-0.95,2.64,2.64,2.63
109.64,3.23,0.62,3.23,0.62,-0.62,-0.71,-0.98,2.61,2.61,2.60
110.74,3.23,0.65,3.23,0.66,-0.65,-0.74,-1.01,2.58,2.58,2.58
111.85,3.23,0.69,3.22,0.69,-0.68,-0.76,-1.04,2.54,2.54,2.54
112.97,3.22,0.73,3.22,0.72,-0.72,-0.79,-1.07,2.50,2.50,2.49
114.10,3.21,0.75,3.21,0.76,-0.76,-0.82,-1.10,2.45,2.45,2.46
115.24,3.21,0.80,3.21,0.79,-0.80,-0.86,-1.12,2.41,2.41,2.41
116.39,3.21,0.84,3.20,0.84,-0.84,-0.89,-1.15,2.36,2.36,2.36
117.55,3.21,0.88,3.21,0.89,-0.89,-0.93,-1.18,2.32,2.32,2.33
118.73,3.22,0.94,3.22,0.94,-0.94,-0.97,-1.20,2.28,2.28,2.28
119.92,3.25,1.00,3.24,1.00,-1.00,-1.01,-1.22,2.25,2.25,2.25
121.12,3.27,1.06,3.26,1.06,-1.06,-1.05,-1.25,2.21,2.21,2.20
122.33,3.29,1.12,3.29,1.12,-1.12,-1.10,-1.27,2.17,2.17,2.17
123.55,3.32,1.17,3.32,1.18,-1.19,-1.14,-1.29,2.13,2.13,2.14
124.79,3.36,1.25,3.36,1.25,-1.26,-1.19,-1.31,2.10,2.10,2.11
126.03,3.40,1.33,3.39,1.32,-1.33,-1.24,-1.33,2.07,2.07,2.07
127.29,3.43,1.39,3.43,1.39,-1.39,-1.29,-1.35,2.03,2.03,2.04
128.57,3.46,1.46,3.46,1.46,-1.46,-1.34,-1.37,2.00,2.01,1.99
129.85,3.50,1.53,3.49,1.53,-1.52,-1.39,-1.39,1.98,1.97,1.97
131.15,3.53,1.59,3.52,1.58,-1.57,-1.45,-1.41,1.95,1.95,1.94
132.46,3.54,1.62,3.54,1.63,-1.62,-1.50,-1.42,1.91,1.92,1.91
133.79,3.56,1.66,3.56,1.67,-1.67,-1.55,-1.44,1.89,1.89,1.89
135.12,3.57,1.71,3.56,1.70,-1.70,-1.61,-1.45,1.87,1.86,1.86
136.48,3.57,1.73,3.57,1.73,-1.73,-1.66,-1.47,1.84,1.84,1.84
137.84,3.57,1.76,3.56,1.76,-1.75,-1.71,-1.48,1.81,1.81,1.81
139.22,3.56,1.78,3.56,1.78,-1.77,-1.77,-1.50,1.78,1.78,1.78
140.61,3.55,1.80,3.55,1.79,-1.79,-1.82,-1.51,1.75,1.76,1.75
142.02,3.55,1.80,3.55,1.81,-1.81,-1.87,-1.53,1.73,1.73,1.74
143.44,3.55,1.82,3.55,1.83,-1.83,-1.92,-1.54,1.72,1.71,1.72
144.87,3.55,1.85,3.55,1.85,-1.85,-1.97,-1.56,1.69,1.69,1.70
146.32,3.55,1.88,3.55,1.87,-1.87,-2.02,-1.58,1.67,1.67,1.67
147.78,3.55,1.89,3.55,1.90,-1.90,-2.07,-1.59,1.65,1.65,1.65
149.26,3.55,1.92,3.55,1.93,-1.93,-2.11,-1.61,1.62,1.62,1.63
150.75,3.55,1.96,3.55,1.95,-1.95,-2.16,-1.63,1.59,1.59,1.58
152.26,3.55,1.99,3.55,1.99,-1.98,-2.20,-1.65,1.56,1.56,1.56
153.78,3.55,2.01,3.55,2.02,-2.02,-2.24,-1.67,1.53,1.53,1.54
155.32,3.55,2.05,3.55,2.05,-2.05,-2.28,-1.69,1.50,1.50,1.49
156.88,3.55,2.08,3.55,2.08,-2.08,-2.32,-1.71,1.46,1.46,1.47
158.44,3.55,2.11,3.55,2.11,-2.12,-2.36,-1.73,1.43,1.43,1.44
160.03,3.55,2.15,3.55,2.15,-2.15,-2.40,-1.76,1.40,1.40,1.40
161.63,3.55,2.19,3.55,2.19,-2.18,-2.43,-1.78,1.36,1.36,1.35
163.24,3.55,2.22,3.55,2.22,-2.22,-2.46,-1.81,1.33,1.33,1.32
164.88,3.55,2.25,3.55,2.26,-2.25,-2.49,-1.84,1.29,1.29,1.29
166.53,3.55,2.29,3.55,2.29,-2.29,-2.53,-1.87,1.25,1.25,1.26
168.19,3.55,2.33,3.55,2.33,-2.33,-2.55,-1.90,1.22,1.22,1.22
169.87,3.55,2.37,3.55,2.37,-2.37,-2.58,-1.93,1.18,1.18,1.18
171.57,3.55,2.41,3.55,2.41,-2.41,-2.61,-1.96,1.14,1.14,1.14
173.29,3.55,2.45,3.55,2.45,-2.45,-2.63,-2.00,1.10,1.10,1.09
175.02,3.55,2.49,3.55,2.50,-2.49,-2.66,-2.04,1.05,1.05,1.06
176.77,3.55,2.55,3.55,2.54,-2.54,-2.68,-2.08,1.01,1.01,1.00
178.54,3.55,2.59,3.55,2.59,-2.59,-2.70,-2.12,0.96,0.96,0.96
180.32,3.55,2.64,3.55,2.64,-2.64,-2.72,-2.16,0.91,0.91,0.91
182.13,3.55,2.68,3.55,2.68,-2.69,-2.74,-2.21,0.86,0.86,0.87
183.95,3.55,2.74,3.55,2.74,-2.74,-2.76,-2.25,0.80,0.81,0.81
185.79,3.56,2.79,3.55,2.79,-2.80,-2.77,-2.30,0.76,0.76,0.77
187.65,3.56,2.85,3.56,2.85,-2.85,-2.79,-2.35,0.71,0.71,0.70
189.52,3.57,2.91,3.57,2.90,-2.90,-2.80,-2.40,0.67,0.67,0.66
191.42,3.57,2.95,3.57,2.95,-2.95,-2.81,-2.45,0.62,0.62,0.62
193.33,3.57,2.99,3.57,2.99,-2.99,-2.82,-2.50,0.58,0.58,0.58
195.27,3.56,3.02,3.56,3.03,-3.02,-2.84,-2.56,0.53,0.53,0.54
197.22,3.55,3.06,3.54,3.06,-3.05,-2.84,-2.61,0.49,0.49,0.48
199.19,3.52,3.08,3.52,3.08,-3.08,-2.85,-2.67,0.44,0.45,0.43
201.18,3.50,3.10,3.49,3.10,-3.09,-2.86,-2.73,0.40,0.40,0.39
203.19,3.47,3.10,3.46,3.11,-3.11,-2.87,-2.78,0.36,0.36,0.36
205.23,3.43,3.11,3.43,3.11,-3.11,-2.87,-2.84,0.31,0.32,0.31
207.28,3.40,3.10,3.39,3.11,-3.12,-2.88,-2.90,0.28,0.28,0.29
209.35,3.36,3.11,3.36,3.12,-3.12,-2.88,-2.96,0.24,0.24,0.24
211.44,3.33,3.13,3.33,3.12,-3.12,-2.89,-3.01,0.21,0.21,0.20
213.56,3.30,3.13,3.29,3.12,-3.12,-2.89,-3.07,0.17,0.17,0.17
215.69,3.26,3.11,3.26,3.12,-3.13,-2.89,-3.13,0.13,0.14,0.15
217.85,3.24,3.13,3.24,3.13,-3.14,-2.89,-3.18,0.10,0.10,0.11
220.03,3.23,3.15,3.22,3.14,-3.15,-2.89,-3.23,0.08,0.07,0.07
222.23,3.21,3.16,3.21,3.16,-3.16,-2.89,-3.29,0.04,0.04,0.05
224.45,3.20,3.17,3.20,3.18,-3.18,-2.89,-3.33,0.01,0.02,0.03
226.70,3.21,3.20,3.21,3.20,-3.20,-2.89,-3.38,0.00,0.00,0.01
228.96,3.22,3.23,3.22,3.22,-3.22,-2.89,-3.42,-0.01,-0.01,-0.02
231.25,3.23,3.25,3.22,3.25,-3.24,-2.89,-3.46,-0.01,-0.02,-0.02
233.57,3.23,3.27,3.23,3.27,-3.26,-2.88,-3.50,-0.03,-0.03,-0.04
235.90,3.23,3.28,3.23,3.28,-3.27,-2.88,-3.53,-0.05,-0.05,-0.05
238.26,3.23,3.29,3.23,3.29,-3.29,-2.87,-3.56,-0.06,-0.06,-0.06
240.64,3.23,3.29,3.23,3.29,-3.29,-2.87,-3.58,-0.07,-0.07,-0.07
243.05,3.23,3.29,3.23,3.29,-3.30,-2.86,-3.60,-0.07,-0.07,-0.06
245.48,3.23,3.29,3.23,3.30,-3.30,-2.86,-3.62,-0.08,-0.07,-0.07
247.93,3.24,3.30,3.24,3.30,-3.30,-2.85,-3.63,-0.07,-0.06,-0.06
250.41,3.25,3.31,3.24,3.30,-3.30,-2.84,-3.63,-0.05,-0.05,-0.07
252.92,3.25,3.30,3.25,3.30,-3.29,-2.84,-3.63,-0.04,-0.04,-0.05
255.45,3.24,3.27,3.24,3.28,-3.27,-2.83,-3.62,-0.04,-0.04,-0.03
258.00,3.23,3.26,3.23,3.25,-3.25,-2.82,-3.61,-0.03,-0.03,-0.03
260.58,3.21,3.23,3.21,3.23,-3.22,-2.81,-3.59,-0.02,-0.02,-0.02
263.19,3.19,3.19,3.18,3.19,-3.19,-2.80,-3.57,0.00,-0.00,-0.01
265.82,3.15,3.15,3.15,3.15,-3.14,-2.79,-3.55,0.00,0.01,-0.00
268.48,3.13,3.10,3.12,3.10,-3.10,-2.78,-3.52,0.03,0.02,0.03
271.16,3.09,3.04,3.09,3.05,-3.05,-2.77,-3.49,0.04,0.04,0.04
273.87,3.05,3.00,3.05,3.00,-3.00,-2.76,-3.45,0.05,0.05,0.05
276.61,3.02,2.94,3.02,2.95,-2.95,-2.75,-3.41,0.07,0.06,0.08
279.38,2.99,2.90,2.99,2.90,-2.90,-2.74,-3.37,0.08,0.08,0.08
282.17,2.96,2.86,2.96,2.86,-2.86,-2.73,-3.32,0.10,0.10,0.10
284.99,2.94,2.82,2.93,2.82,-2.82,-2.72,-3.27,0.12,0.11,0.12
287.84,2.91,2.78,2.91,2.78,-2.78,-2.71,-3.22,0.12,0.12,0.12
290.72,2.89,2.75,2.89,2.75,-2.76,-2.69,-3.17,0.13,0.13,0.14
293.63,2.88,2.72,2.88,2.72,-2.73,-2.68,-3.12,0.14,0.14,0.16
296.57,2.88,2.70,2.88,2.71,-2.71,-2.67,-3.07,0.16,0.17,0.18
299.53,2.89,2.70,2.89,2.70,-2.70,-2.66,-3.02,0.19,0.19,0.18
302.53,2.90,2.71,2.89,2.69,-2.68,-2.65,-2.96,0.21,0.21,0.19
305.55,2.90,2.68,2.90,2.69,-2.67,-2.63,-2.91,0.22,0.22,0.22
308.61,2.90,2.67,2.90,2.67,-2.67,-2.62,-2.86,0.23,0.23,0.23
311.69,2.90,2.66,2.90,2.65,-2.66,-2.61,-2.81,0.23,0.23,0.23
314.81,2.90,2.63,2.90,2.65,-2.66,-2.60,-2.76,0.24,0.24,0.26
317.96,2.91,2.65,2.91,2.65,-2.65,-2.58,-2.71,0.25,0.25,0.26
321.14,2.92,2.65,2.92,2.65,-2.65,-2.57,-2.66,0.27,0.27,0.27
324.35,2.93,2.66,2.92,2.65,-2.64,-2.56,-2.61,0.28,0.28,0.27
327.59,2.92,2.63,2.92,2.64,-2.63,-2.54,-2.56,0.28,0.29,0.29
330.87,2.92,2.63,2.92,2.63,-2.62,-2.53,-2.52,0.29,0.29,0.28
334.18,2.91,2.62,2.90,2.61,-2.61,-2.52,-2.47,0.30,0.29,0.28
337.52,2.88,2.59,2.88,2.59,-2.59,-2.51,-2.43,0.29,0.30,0.29
340.90,2.86,2.56,2.86,2.56,-2.56,-2.49,-2.39,0.30,0.30,0.30
344.30,2.83,2.53,2.83,2.53,-2.53,-2.48,-2.35,0.30,0.29,0.30
347.75,2.80,2.50,2.79,2.50,-2.50,-2.47,-2.31,0.30,0.30,0.30
351.23,2.76,2.46,2.76,2.47,-2.47,-2.46,-2.28,0.29,0.29,0.30
354.74,2.73,2.43,2.73,2.44,-2.43,-2.45,-2.24,0.29,0.29,0.29
358.28,2.70,2.41,2.69,2.41,-2.40,-2.44,-2.21,0.29,0.29,0.28
361.87,2.66,2.37,2.66,2.38,-2.37,-2.42,-2.18,0.28,0.28,0.28
365.49,2.63,2.35,2.63,2.35,-2.35,-2.41,-2.15,0.28,0.28,0.28
369.14,2.60,2.33,2.60,2.33,-2.33,-2.40,-2.13,0.27,0.27,0.27
372.83,2.59,2.32,2.58,2.31,-2.32,-2.39,-2.10,0.27,0.26,0.27
376.56,2.56,2.30,2.56,2.30,-2.31,-2.38,-2.08,0.24,0.25,0.26
380.33,2.56,2.30,2.56,2.30,-2.32,-2.37,-2.06,0.24,0.24,0.26
384.13,2.56,2.31,2.56,2.31,-2.32,-2.36,-2.04,0.23,0.23,0.25
387.97,2.57,2.33,2.57,2.33,-2.33,-2.35,-2.02,0.23,0.24,0.24
391.85,2.59,2.36,2.58,2.35,-2.34,-2.34,-2.00,0.24,0.24,0.22
395.77,2.60,2.36,2.59,2.36,-2.35,-2.33,-1.99,0.24,0.24,0.23
399.73,2.59,2.36,2.59,2.37,-2.36,-2.32,-1.97,0.23,0.23,0.22
403.72,2.58,2.36,2.58,2.36,-2.36,-2.32,-1.96,0.22,0.22,0.21
407.76,2.57,2.37,2.56,2.36,-2.35,-2.31,-1.95,0.22,0.21,0.20
411.84,2.55,2.34,2.54,2.34,-2.34,-2.30,-1.94,0.21,0.21,0.21
415.96,2.52,2.32,2.52,2.32,-2.32,-2.29,-1.93,0.20,0.20,0.20
420.12,2.49,2.29,2.49,2.29,-2.29,-2.28,-1.92,0.20,0.20,0.20
424.32,2.46,2.26,2.45,2.26,-2.26,-2.27,-1.91,0.20,0.19,0.20
428.56,2.42,2.23,2.42,2.23,-2.23,-2.26,-1.90,0.19,0.19,0.19
432.85,2.39,2.20,2.39,2.20,-2.20,-2.25,-1.90,0.19,0.19,0.19
437.18,2.36,2.17,2.36,2.17,-2.16,-2.24,-1.89,0.19,0.19,0.19
441.55,2.33,2.13,2.33,2.13,-2.13,-2.23,-1.88,0.20,0.19,0.20
445.96,2.30,2.10,2.30,2.10,-2.10,-2.22,-1.87,0.19,0.19,0.20
450.42,2.27,2.08,2.27,2.08,-2.08,-2.21,-1.87,0.19,0.19,0.19
454.93,2.25,2.05,2.25,2.06,-2.06,-2.20,-1.86,0.18,0.18,0.20
459.48,2.24,2.04,2.24,2.04,-2.05,-2.19,-1.85,0.18,0.19,0.20
464.07,2.24,2.03,2.24,2.03,-2.05,-2.17,-1.84,0.19,0.19,0.20
468.71,2.25,2.03,2.25,2.04,-2.04,-2.16,-1.83,0.21,0.21,0.21
473.40,2.26,2.04,2.26,2.04,-2.04,-2.14,-1.82,0.22,0.22,0.21
478.13,2.27,2.04,2.27,2.04,-2.03,-2.12,-1.81,0.23,0.23,0.22
482.91,2.27,2.04,2.26,2.04,-2.02,-2.10,-1.80,0.24,0.24,0.22
487.74,2.26,2.02,2.26,2.02,-2.01,-2.08,-1.78,0.25,0.24,0.23
492.62,2.24,1.99,2.24,2.00,-1.99,-2.05,-1.77,0.24,0.25,0.24
497.55,2.22,1.97,2.22,1.97,-1.97,-2.03,-1.75,0.25,0.25,0.24
502.52,2.19,1.93,2.19,1.94,-1.94,-2.00,-1.73,0.25,0.25,0.25
507.55,2.16,1.91,2.15,1.90,-1.90,-1.97,-1.71,0.25,0.25,0.25
512.62,2.12,1.87,2.12,1.86,-1.87,-1.94,-1.69,0.25,0.25,0.25
517.75,2.09,1.83,2.09,1.83,-1.83,-1.90,-1.67,0.26,0.26,0.26
522.93,2.06,1.80,2.06,1.80,-1.80,-1.87,-1.65,0.26,0.26,0.26
528.16,2.03,1.77,2.03,1.76,-1.77,-1.83,-1.62,0.26,0.26,0.26
533.44,2.00,1.74,2.00,1.74,-1.74,-1.80,-1.60,0.26,0.26,0.26
538.77,1.97,1.71,1.97,1.71,-1.72,-1.76,-1.57,0.25,0.26,0.26
544.16,1.96,1.70,1.95,1.69,-1.70,-1.72,-1.54,0.26,0.26,0.26
549.60,1.94,1.68,1.94,1.68,-1.68,-1.68,-1.51,0.26,0.25,0.26
