frequency,raw,error,smoothed,error_smoothed,equalization,equalized_raw,equalized_smoothed,target
20,-18.33849957810662,-22.459120328714533,-18.411112958537466,-22.53175195371576,5.999999999999999,-12.338499578106621,-12.411112958537466,4.120620750607913
21,-17.768805759954688,-21.921040904664018,-17.747729804875902,-21.899954325389533,6.0,-11.768805759954688,-11.747729804875902,4.152235144709332
22,-17.203951175207933,-21.38439965523143,-17.102438266994707,-21.282864685355833,6.0,-11.203951175207933,-11.102438266994707,4.180448480023496
23,-16.491142813639556,-20.696402163961093,-16.475238344893878,-20.680483033614657,5.999999999999999,-10.491142813639556,-10.475238344893878,4.205259350321538
24,-15.890609507113881,-20.117275603568118,-15.866130038573402,-20.092809370165988,5.999999999999998,-9.890609507113883,-9.866130038573404,4.2266660964542355
25,-15.237765803045932,-19.48243257795173,-15.274578505359766,-19.519317206094144,6.000000000000001,-9.237765803045932,-9.274578505359766,4.244666774905798
26,-14.665983981546054,-18.925243105596316,-14.701479824299213,-18.960898230540682,6.0,-8.665983981546054,-8.701479824299213,4.259259124050261
27,-14.19111797498853,-18.46162744869907,-14.147383464726206,-18.418093562455688,6.0,-8.19111797498853,-8.147383464726206,4.270509473710542
28,-13.694276054931375,-17.972637695517324,-13.61264099459422,-17.891235295783176,6.0,-7.694276054931375,-7.612640994594219,4.278361640585948
29,-12.91019760712958,-17.192984298641292,-13.09710930012174,-17.38014532101311,6.000000000000001,-6.91019760712958,-7.09710930012174,4.282786691511712
30,-12.565781127226384,-16.84951881588718,-12.59971560797942,-16.883699062617186,6.0,-6.5657811272263835,-6.5997156079794195,4.2837376886607945
31,-12.242759579708547,-16.523906446583425,-12.118749580570125,-16.400114607410043,5.999999999999999,-6.242759579708548,-6.1187495805701255,4.281146866874879
32,-11.625478225337332,-15.900402506863797,-11.652117799926874,-15.927207332893486,5.999999999999999,-5.625478225337333,-5.652117799926875,4.274924281526465
33,-11.234435089491262,-15.499393709899456,-11.197807360342887,-15.462855328727922,6.0,-5.234435089491262,-5.197807360342887,4.264958620408194
34,-10.828592178157557,-15.079724234092595,-10.754376446230783,-15.005493750598852,5.999999999999998,-4.8285921781575585,-4.7543764462307845,4.251132055935038
35,-10.258472013677348,-14.491786574935485,-10.321241520017196,-14.5544082998248,6.000000000000001,-4.2584720136773475,-4.321241520017195,4.233314561258136
36,-9.821794399367432,-14.033169516870757,-9.898779113742844,-14.109845453919082,5.999999999999998,-3.821794399367434,-3.8987791137428456,4.211375117503325
37,-9.485223869155693,-13.670416074092515,-9.488177234060423,-13.672874586423468,6.0,-3.4852238691556927,-3.488177234060423,4.185192204936822
38,-9.249030792623099,-13.403697243762544,-9.09108368991292,-13.24504916267868,6.000000000000001,-3.249030792623098,-3.09108368991292,4.154666451139444
39,-8.723545703079616,-12.84328079292538,-8.709140467716036,-12.82795586440039,6.0,-2.7235457030796155,-2.7091404677160362,4.119735089845765
40,-8.190400966108047,-12.270788728027512,-8.343486634781776,-12.422733766380702,5.999999999999999,-2.190400966108048,-2.343486634781777,4.0803877619194635
41,-7.910838346246608,-11.94752325828767,-7.994341144058993,-12.029674344288019,5.999999999999999,-1.9108383462466092,-1.9943411440589935,4.036684912041063
42,-7.757499175019518,-11.746274602973104,-7.660772692637288,-11.648008695291802,6.000000000000003,-1.7574991750195155,-1.660772692637285,3.9887754279535863
43,-7.369359778083951,-11.306273663463337,-7.340749964096188,-11.275974364580804,6.0,-1.3693597780839513,-1.3407499640961884,3.9369138853793864
44,-7.005702445339355,-10.887178548156715,-7.031521151843942,-10.911209608621892,6.0,-1.005702445339355,-1.0315211518439424,3.881476102817359
45,-6.713947934402815,-10.536919774901886,-6.730282283338479,-10.551433489966751,5.999999999999998,-0.7139479344028166,-0.7302822833384806,3.8229718404990702
46,-6.451801291718417,-10.213854726842785,-6.434983783699315,-10.19526012241859,6.0,-0.4518012917184171,-0.4349837836993151,3.762053435124368
47,-6.188782039347296,-9.888301228074301,-6.145026966994248,-9.8428977141397,6.0,-0.18878203934729587,-0.14502696699424789,3.699519188727006
48,-5.884189372261963,-9.520500105565608,-5.861571173482698,-9.496452238294868,6.0,0.1158106277380373,0.13842882651730193,3.6363107333036453
49,-5.638238626209316,-9.211742167375943,-5.587251306219256,-9.159634816243493,5.999999999999999,0.3617613737906833,0.41274869378074275,3.573503541166627
50,-5.297831234483889,-8.81012138889297,-5.325293332889879,-8.836859993276686,5.999999999999999,0.7021687655161104,0.6747066671101205,3.5122901544090803
51,-5.0569956737892685,-8.510951712392732,-5.078255180880134,-8.531962282287418,5.999999999999999,0.9430043262107306,0.9217448191198647,3.453956038603463
52,-4.7930587658482215,-8.19290711732667,-4.846815757515356,-8.24695402327694,5.999999999999999,1.2069412341517776,1.1531842424846435,3.3998483514784477
53,-4.480228400519138,-7.831566716154445,-4.6290904881941515,-7.981303652154438,6.000000000000002,1.5197715994808636,1.3709095118058503,3.351338315635306
54,-4.340642645728098,-7.650420913712171,-4.42081731865473,-7.732079404966234,6.0,1.6593573542719016,1.5791826813452703,3.309778267984073
55,-4.324993072127865,-7.60144791899045,-4.216461339446322,-7.495008046099433,6.0,1.6750069278721353,1.7835386605536776,3.2764548468625856
56,-4.1316393778292415,-7.384179464442769,-4.010937582590902,-7.266149900275408,6.000000000000002,1.8683606221707603,1.9890624174090998,3.2525400866135277
57,-3.998955495680933,-7.237997929503885,-3.8013939335726463,-7.043634088687066,5.999999999999999,2.0010445043190663,2.198606066427353,3.239042433822953
58,-3.624711951564626,-6.861471802186954,-3.588443157767631,-6.828845063540038,6.0,2.375288048435374,2.411556842232369,3.2367598506223283
59,-3.3028912385419664,-6.54912845432059,-3.376413555119831,-6.626632085468264,6.000000000000002,2.6971087614580354,2.623586444880171,3.2462372157786232
60,-3.098470452317391,-6.366200617169431,-3.1725307025771468,-6.444456159647275,6.000000000000001,2.90152954768261,2.827469297422854,3.26773016485204
61,-2.9318283981047037,-6.233005720955569,-2.985308503715588,-6.290754520898961,6.000000000000001,3.068171601895297,3.0146914962844127,3.301177322850865
62,-2.7815643116578657,-6.127746897354569,-2.822669187113584,-6.173043889049202,6.0,3.2184356883421343,3.177330812886416,3.346182585696703
63,-2.680989559767782,-6.082998269650948,-2.6903427210953845,-6.096314156811368,6.0,3.319010440232218,3.3096572789046155,3.4020087098831655
64,-2.5804149310123594,-6.047997923177653,-2.5909275641929455,-6.062095163116349,6.0,3.4195850689876406,3.4090724358070545,3.4675829921652936
65,-2.479840524752768,-6.021355811491457,-2.52372081377304,-6.068304833398025,6.0,3.520159475247232,3.47627918622696,3.541515286738689
66,-2.4798411293982654,-6.101969173526381,-2.4851718027870167,-6.1097324151974615,6.000000000000002,3.5201588706017364,3.514828197212985,3.6221280441281154
67,-2.479842014249546,-6.187339508472754,-2.469675200006799,-6.1788720040929626,5.999999999999998,3.520157985750452,3.530324799993199,3.707497494223208
68,-2.4798429785236067,-6.2753475446582,-2.470424982590747,-6.2668263602156955,6.000000000000001,3.520157021476394,3.529575017409254,3.7955045661345936
69,-2.4798435596083164,-6.363737229034601,-2.48015671987796,-6.364106637132359,6.0,3.5201564403916836,3.51984328012204,3.8838936694262842
70,-2.479843011260378,-6.45018009223805,-2.4917321634488587,-6.461279838539882,6.000000000000001,3.5201569887396227,3.508267836551142,3.970337080977672
71,-2.4798403988731783,-6.5323428094613325,-2.498597934045178,-6.549493356520552,6.000000000000001,3.5201596011268226,3.501402065954823,4.052502410588154
72,-2.4798348670527006,-6.6079553386210055,-2.4951564885574284,-6.620912196368767,6.0,3.5201651329472994,3.5048435114425716,4.128120471568305
73,-2.580400816448212,-6.7754516843469945,-2.4770476312071033,-6.669064552403343,5.999999999999999,3.419599183551787,3.522952368792896,4.195050867898782
74,-2.580389675998255,-6.831732403357334,-2.441301006455959,-6.689053679106211,6.000000000000001,3.419610324001746,3.558698993544042,4.251342727359079
75,-2.2691898467542644,-6.564478099679635,-2.386323457284365,-6.677597675397799,6.0,3.7308101532457356,3.613676542715635,4.295288252925371
76,-2.2808558717653815,-6.6063229899434,-2.3117343309456153,-6.632908342966477,6.000000000000002,3.7191441282346203,3.6882656690543865,4.325467118178018
77,-2.2837162354402767,-6.624496411181928,-2.2181261531118963,-6.554485077036931,6.000000000000001,3.716283764559724,3.7818738468881046,4.340780175741651
78,-2.028450263384277,-6.368921718785277,-2.1068623288202444,-6.442934522805491,6.0,3.971549736615723,3.8931376711797556,4.3404714554009995
79,-1.996736078057124,-6.320874049904418,-1.9799979384438156,-6.29990166926266,5.965991978798046,3.9692559007409223,3.9859940403542304,4.3241379718472945
80,-1.9368757066684128,-6.2286031177265695,-1.8403312782626045,-6.128120052432672,5.89353172461059,3.956656017942177,4.053200446347985,4.291727411058156
81,-1.7095362145152075,-5.953060504230575,-1.691501150198824,-5.9314963709983655,5.78405466757459,4.074518453059382,4.092553517375766,4.243524289715368
82,-1.5241822189905951,-5.704307875789689,-1.537988026365779,-5.715088183554048,5.638951934708305,4.11476971571771,4.100963908342526,4.180125656799094
83,-1.39323359790651,-5.495641405401429,-1.3848917772398024,-5.484848309928781,5.459548811436897,4.0663152135303875,4.074657034197095,4.102407807494919
84,-1.204744895465348,-5.2162306844359705,-1.2374444911606326,-5.247096170785079,5.247096170785079,4.0423512753197315,4.009651679624447,4.011485788970623
85,-1.0132133713759095,-4.921881055074446,-1.1003380654313846,-5.007798674337918,5.007798674337917,3.9945853029620078,3.9074606089065327,3.908667683698537
86,-0.9714021981998394,-4.766807951860056,-0.9770474873568444,-4.771845767882189,4.77184576788219,3.80044356968235,3.7947982805253453,3.795405753660216
87,-0.9289870121823922,-4.602233531564519,-0.8693638823598723,-4.5425393349131955,4.5425393349131955,3.6135523227308033,3.6731754525533233,3.673246519382126
88,-0.7012213785482962,-4.245003117403501,-0.7772990450075596,-4.321460309069309,4.32146030906931,3.6202389305210136,3.54416126406175,3.543781738855204
89,-0.6762716642806302,-4.0848737201195355,-0.699403489662765,-4.108755582058609,4.10875558205861,3.4324839177779793,3.409352092395845,3.4086020558389056
90,-0.6858021227210365,-3.955056944595859,-0.6333995888809362,-3.903741009171866,3.903741009171866,3.2179388864508294,3.27034142029093,3.2692548218748225
91,-0.5636002047485384,-3.6908074861546343,-0.576925635992513,-3.7056073121278934,3.705607312127893,3.1420071073793547,3.12868167613538,3.1272072814060956
92,-0.5622313004435667,-3.546047266413202,-0.528156063505557,-3.5139853386343427,3.513985338634344,2.9517540381907774,2.985829275128787,2.9838159659696353
93,-0.5257334612571485,-3.3660362539393756,-0.48611833957112766,-3.3291888050995695,3.3291888050995686,2.80345534384242,2.843070465528441,2.8403027926822273
94,-0.4607813938974077,-3.158519417839152,-0.4506448089762011,-3.152082155379481,3.1520821553794813,2.691300761482074,2.70143734640328,2.697738023941744
95,-0.3726879916139984,-2.929717928211422,-0.42203055479455337,-2.983666824952522,2.9836668249525213,2.610978833338523,2.561636270157968,2.5570299365974236
96,-0.3648706032605481,-2.7837913867844866,-0.40056579706263007,-2.824584025882018,2.824584025882018,2.45971342262147,2.424018228819388,2.4189207835239386
97,-0.3704889369250904,-2.65447735515023,-0.3861383819339128,-2.674755237007642,2.6747552370076426,2.3042663000825523,2.28861685507373,2.2839884182251398
98,-0.37884483251463497,-2.531497631664779,-0.37805324162231047,-2.5333155884876355,2.533315588487635,2.154470755973,2.1552623468653245,2.152652799150144
99,-0.3901997085228676,-2.415386204469384,-0.3751168596843941,-2.398869738904199,2.3988697389041995,2.008670030381332,2.0237528792198054,2.0251864959465165
100,-0.4079667683997912,-2.3096950505516665,-0.3759295756131883,-2.2699683003519215,2.2699683003519215,1.8620015319521304,1.8940387247387331,1.9017282821518755
101,-0.4220796948850928,-2.2043786067084334,-0.3792594304362439,-2.1456196427236236,2.1456196427236245,1.7235399478385318,1.7663602122873807,1.7822989118233408
102,-0.37261856343183775,-2.0394367962661275,-0.3843597231345845,-2.025646914458389,2.025646914458389,1.6530283510265513,1.6412871913238045,1.6668182328342898
104,-0.3639093868327825,-1.8570676386245275,-0.3911324041486207,-1.910767659520476,1.9107676595204761,1.5468582726876936,1.5196352553718553,1.493158251791745
105,-0.3877088414963377,-1.7726472117248604,-0.4001047778300253,-1.8023790210782906,1.8023790210782902,1.4146701795819525,1.4022742432482649,1.3849383702285227
106,-0.4122259843482954,-1.692345743954698,-0.4122460239101707,-1.7021291119029887,1.7021291119029887,1.2899031275546933,1.289883087992818,1.2801197596064027
107,-0.4366020055241045,-1.614991640176774,-0.42868224672609234,-1.6114092359252208,1.6114092359252206,1.1748072304011161,1.182726989199128,1.1783896346526697
108,-0.4599703601973806,-1.5393868135105984,-0.45037315830476443,-1.5309020643827502,1.53090206438275,1.0709317041853694,1.0805289060779857,1.0794164533132178
109,-0.4815169731818034,-1.4643801351969798,-0.47780420324945416,-1.460282548316457,1.4602825483164572,0.9787655751346538,0.982478345067003,0.9828631620151764
110,-0.5005353861967072,-1.3889342176967077,-0.5107404859916945,-1.3981172729466913,1.398117272946691,0.8975818867499838,0.8873767869549966,0.8883988315000004
111,-0.5164724241556515,-1.3121810607577884,-0.548088162528102,-1.341964685706262,1.3419646857062622,0.8254922615506106,0.7938765231781602,0.7957086366021369
112,-0.5430181730475999,-1.247520354251919,-0.5879070918790004,-1.288649847347238,1.2886498473472383,0.7456316742996384,0.7007427554682379,0.7045021812043191
113,-0.6374269198113629,-1.2519471210650066,-0.6276024164322274,-1.2346685603848733,1.2346685603848728,0.5972416405735099,0.6070661439526455,0.6145202012536437
114,-0.6772223216505038,-1.202762018969384,-0.6642851850855771,-1.1766593160863619,1.1766593160863619,0.4994369944358581,0.5123741310007848,0.5255396973188802
115,-0.7462493384004372,-1.1836268959848941,-0.6952407990610586,-1.1118660906071693,1.1118660906071693,0.3656167522067322,0.4166252915461107,0.43737755758445696
117,-0.7452497705660455,-1.0404297909686926,-0.7184005468011301,-1.0385084938841243,1.038508493884124,0.29325872331807856,0.32010794708299395,0.2951800204026471
118,-0.7417906399053082,-0.9511895910147379,-0.732699297019142,-0.9559887954711097,0.9559887954711095,0.21419815556580124,0.22328949845196744,0.20939895110942963
119,-0.7364349019429244,-0.8606229038700732,-0.7382318229387136,-0.8649010220913941,0.8649010220913939,0.12846612014846948,0.12666919915268027,0.12418800192714885
120,-0.7297564754228294,-0.7692815625047682,-0.736181490320206,-0.7668562320366543,0.7668562320366543,0.03709975661382492,0.03067474171644835,0.0395250870819388
121,-0.7222915914021897,-0.6777177339682299,-0.7285625459953511,-0.6641815251903307,0.6641815251903307,-0.05811006621185899,-0.0643810208050204,-0.04457385743395981
123,-0.7144996942384729,-0.5390426391675982,-0.7178623977237352,-0.5595705660868389,0.559570566086839,-0.15492912815163395,-0.1582918316368962,-0.17545705507087472
124,-0.7067382312594039,-0.44979652365014244,-0.7066763557259237,-0.4557535793428544,0.4557535793428544,-0.25098465191654956,-0.2509227763830693,-0.2569417076092615
125,-0.6992536082147152,-0.36163425458703147,-0.6973981590857267,-0.3552235737442685,0.35522357374426855,-0.3440300344704466,-0.3421745853414581,-0.3376193536276837
126,-0.6921880459940949,-0.2748152177020312,-0.6919867058916298,-0.2600225512112934,0.26002255121129336,-0.43216549478280153,-0.43196415468033644,-0.4173728282920637
128,-0.6855995213188621,-0.14870347899306569,-0.6917982331039525,-0.17157518084966944,0.17157518084966952,-0.5140243404691927,-0.520223052254283,-0.5368960423257965
129,-0.6794899306761526,-0.06638972394239873,-0.697468678912652,-0.09056494476288784,0.09056494476288789,-0.5889249859132647,-0.6069037341497641,-0.6131002067337539
130,-0.6738355222267574,0.014154516573796183,-0.7088506282236535,-0.016871027355655113,0.016871027355655124,-0.6569644948711022,-0.6919796008679984,-0.6879900388005535
131,-0.732148134414109,0.029288953622604863,-0.725035193218227,0.05039558974361527,-0.05039558974361527,-0.7825437241577242,-0.7754307829618422,-0.7614370880367138
133,-0.7643964966685926,0.1033777672965952,-0.7444984225311408,0.11271993854404676,-0.11271993854404677,-0.8771164352126393,-0.8572183610751876,-0.8677742639651878
134,-0.7600592217090525,0.17671829771589098,-0.7653902714473328,0.1718685825141188,-0.17186858251411882,-0.9319278042231713,-0.9372588539614517,-0.9367775194249435
135,-0.7571651822088143,0.2468837971780118,-0.78593491697425,0.22947806346707844,-0.2294780634670785,-0.9866432456758929,-1.0154129804413285,-1.0040489793868261
137,-0.8535327657459812,0.24573530970299995,-0.8048541429110518,0.28664274714771,-0.28664274714771,-1.1401755128936912,-1.0914968900587618,-1.0992680754489812
138,-0.8508870850086943,0.31089094692932684,-0.8216880284767601,0.34362562872191127,-0.3436256287219113,-1.1945127137306055,-1.1653136571986715,-1.161778031938021
140,-0.8488969962149715,0.4000528342657941,-0.8368919744267405,0.3998010481044707,-0.39980104810447065,-1.2486980443194422,-1.2366930225312112,-1.2489498304807656
141,-0.8475578968556889,0.4591518249903519,-0.8516442029247671,0.45387901003280157,-0.4538790100328017,-1.3014369068884906,-1.3055232129575687,-1.3067097218460408
142,-0.846818623626457,0.5158000307182218,-0.8673910709426442,0.5043712612457418,-0.5043712612457419,-1.3511898848721988,-1.371762332188386,-1.3626186543446788
144,-0.8465809479896644,0.5927424270377333,-0.8852592247878187,0.5501669937825956,-0.5501669937825955,-1.39674794177226,-1.4354262185704143,-1.4393233750273977
145,-0.8815154244175638,0.6091383801720787,-0.9055368376303552,0.5910230934480012,-0.5910230934480012,-1.472538517865565,-1.4965599310783564,-1.4906538045896425
147,-0.9476093625143984,0.6126337918764508,-0.9274373977187219,0.6277688360353713,-0.6277688360353711,-1.5753781985497697,-1.555206233754093,-1.5602431543908493
148,-0.9479700760813627,0.6592072883421145,-0.9492918554045437,0.6620922991233127,-0.6620922991233127,-1.6100623752046754,-1.6113841545278564,-1.6071773644234773
150,-0.957222816990294,0.7128611203042329,-0.9691775971262282,0.6959071397503563,-0.6959071397503563,-1.6531299567406503,-1.6650847368765844,-1.6700839372945269
151,-1.021171697723421,0.6915801398188943,-0.9858233236815849,0.7304591210622104,-0.7304591210622103,-1.7516308187856313,-1.7162824447437952,-1.7127518375423154
153,-1.048529827501146,0.7207823781376819,-0.9994861486989204,0.765467500305995,-0.765467500305995,-1.813997327807141,-1.7649536490049154,-1.769312205638828
154,-1.047998182126523,0.7597424307298772,-1.0124427666057767,0.7986486015920709,-0.7986486015920706,-1.8466467837185936,-1.8110913681978473,-1.8077406128564002
156,-1.047309216473655,0.8108474808021555,-1.028811634685097,0.8258968519521559,-0.825896851952156,-1.873206068425811,-1.8547084866372532,-1.8581566972758106
157,-1.046647702936474,0.8456053947631008,-1.0536259559789187,0.8422020702637822,-0.8422020702637822,-1.8888497732002563,-1.895828026242701,-1.8922530976995748
159,-1.046265910815572,0.8903289338614042,-1.091350674960286,0.8431148009796692,-0.8431148009796692,-1.8893807117952413,-1.934465475939955,-1.9365948446769763
160,-1.0464577411529536,0.9197155619061432,-1.1442826721970674,0.826329215708018,-0.826329215708018,-1.8727869568609716,-1.9706118879050853,-1.9661733030590969
