frequency,raw,error,smoothed,error_smoothed,equalization,parametric_eq,fixed_band_eq,equalized_raw,equalized_smoothed,target
20.00,3.94,2.78,3.95,2.79,-2.79,-3.47,-1.90,1.16,1.16,1.16
20.20,3.95,2.79,3.94,2.78,-2.78,-3.48,-1.96,1.17,1.16,1.16
20.40,3.94,2.78,3.94,2.78,-2.78,-3.49,-2.01,1.16,1.16,1.16
20.61,3.94,2.78,3.94,2.78,-2.78,-3.50,-2.07,1.16,1.16,1.16
20.81,3.95,2.79,3.95,2.79,-2.80,-3.51,-2.13,1.15,1.15,1.16
21.02,3.95,2.79,3.96,2.81,-2.82,-3.52,-2.19,1.13,1.14,1.16
21.23,3.98,2.84,3.98,2.84,-2.85,-3.53,-2.25,1.13,1.13,1.14
21.44,4.00,2.88,4.00,2.88,-2.88,-3.54,-2.32,1.12,1.12,1.13
21.66,4.03,2.92,4.04,2.93,-2.93,-3.55,-2.38,1.10,1.11,1.11
21.87,4.07,2.99,4.07,2.98,-2.99,-3.56,-2.45,1.09,1.09,1.09
22.09,4.12,3.05,4.12,3.05,-3.05,-3.57,-2.52,1.08,1.07,1.08
22.31,4.16,3.12,4.16,3.11,-3.11,-3.59,-2.59,1.05,1.05,1.05
22.54,4.20,3.18,4.21,3.18,-3.18,-3.60,-2.66,1.02,1.02,1.03
22.76,4.25,3.25,4.25,3.25,-3.25,-3.61,-2.74,1.00,1.00,1.00
22.99,4.29,3.32,4.29,3.32,-3.31,-3.62,-2.81,0.98,0.98,0.97
23.22,4.33,3.39,4.33,3.38,-3.37,-3.64,-2.89,0.96,0.96,0.94
23.45,4.37,3.45,4.37,3.44,-3.43,-3.65,-2.97,0.94,0.94,0.92
23.69,4.40,3.49,4.40,3.49,-3.49,-3.66,-3.06,0.92,0.92,0.91
23.92,4.43,3.54,4.43,3.54,-3.53,-3.68,-3.14,0.90,0.90,0.89
24.16,4.46,3.58,4.45,3.58,-3.58,-3.69,-3.23,0.88,0.87,0.88
24.40,4.47,3.61,4.48,3.62,-3.62,-3.70,-3.31,0.85,0.86,0.86
24.65,4.50,3.66,4.50,3.66,-3.66,-3.72,-3.40,0.84,0.84,0.84
24.89,4.53,3.71,4.53,3.70,-3.71,-3.73,-3.49,0.83,0.82,0.82
25.14,4.55,3.74,4.56,3.75,-3.75,-3.75,-3.58,0.80,0.81,0.81
25.39,4.58,3.79,4.58,3.79,-3.79,-3.76,-3.67,0.79,0.79,0.79
25.65,4.61,3.83,4.61,3.83,-3.84,-3.78,-3.76,0.78,0.77,0.78
25.91,4.63,3.88,4.64,3.88,-3.88,-3.80,-3.85,0.75,0.76,0.75
26.16,4.66,3.92,4.66,3.92,-3.92,-3.82,-3.95,0.74,0.74,0.74
26.43,4.69,3.96,4.69,3.97,-3.96,-3.83,-4.04,0.73,0.73,0.73
26.69,4.71,4.00,4.72,4.01,-4.00,-3.85,-4.13,0.71,0.72,0.71
26.96,4.74,4.04,4.74,4.04,-4.04,-3.87,-4.22,0.70,0.70,0.70
27.23,4.76,4.08,4.76,4.07,-4.08,-3.89,-4.31,0.69,0.68,0.69
27.50,4.77,4.10,4.78,4.11,-4.11,-3.91,-4.40,0.66,0.67,0.68
27.77,4.80,4.15,4.80,4.14,-4.15,-3.93,-4.48,0.66,0.65,0.65
28.05,4.82,4.18,4.82,4.18,-4.18,-3.95,-4.57,0.64,0.64,0.64
28.33,4.83,4.21,4.84,4.21,-4.21,-3.97,-4.65,0.62,0.63,0.62
28.62,4.86,4.25,4.86,4.24,-4.24,-3.99,-4.73,0.62,0.62,0.61
28.90,4.87,4.27,4.87,4.27,-4.27,-4.01,-4.80,0.60,0.60,0.60
29.19,4.88,4.30,4.88,4.30,-4.29,-4.04,-4.87,0.59,0.59,0.58
29.48,4.89,4.31,4.89,4.32,-4.31,-4.06,-4.94,0.58,0.58,0.58
29.78,4.90,4.33,4.90,4.34,-4.34,-4.08,-5.00,0.57,0.57,0.57
30.08,4.91,4.35,4.91,4.35,-4.35,-4.11,-5.06,0.56,0.55,0.56
30.38,4.91,4.38,4.91,4.37,-4.37,-4.13,-5.11,0.54,0.54,0.54
30.68,4.91,4.39,4.92,4.39,-4.39,-4.16,-5.16,0.52,0.52,0.53
30.99,4.92,4.42,4.92,4.41,-4.42,-4.19,-5.20,0.51,0.51,0.50
31.30,4.93,4.44,4.93,4.44,-4.44,-4.21,-5.24,0.49,0.49,0.49
31.61,4.94,4.46,4.94,4.46,-4.47,-4.24,-5.27,0.47,0.47,0.48
31.93,4.95,4.49,4.95,4.50,-4.50,-4.27,-5.29,0.46,0.46,0.46
32.24,4.96,4.53,4.96,4.53,-4.53,-4.30,-5.32,0.44,0.44,0.43
32.57,4.98,4.56,4.98,4.56,-4.56,-4.33,-5.33,0.42,0.42,0.42
32.89,4.99,4.59,4.99,4.60,-4.59,-4.36,-5.34,0.40,0.40,0.41
33.22,5.01,4.64,5.01,4.63,-4.63,-4.39,-5.35,0.38,0.38,0.37
33.55,5.02,4.66,5.02,4.66,-4.66,-4.43,-5.35,0.36,0.36,0.36
33.89,5.03,4.69,5.04,4.70,-4.70,-4.46,-5.35,0.33,0.34,0.34
34.23,5.05,4.73,5.05,4.73,-4.73,-4.50,-5.35,0.32,0.32,0.32
34.57,5.07,4.77,5.07,4.77,-4.77,-4.53,-5.34,0.31,0.30,0.30
34.92,5.08,4.81,5.08,4.80,-4.80,-4.57,-5.33,0.28,0.28,0.28
35.27,5.09,4.83,5.09,4.84,-4.83,-4.61,-5.32,0.26,0.26,0.26
35.62,5.11,4.87,5.11,4.87,-4.87,-4.64,-5.31,0.24,0.24,0.24
35.97,5.12,4.90,5.12,4.90,-4.90,-4.68,-5.30,0.22,0.22,0.22
36.33,5.14,4.93,5.14,4.94,-4.94,-4.72,-5.28,0.20,0.20,0.21
36.70,5.15,4.97,5.16,4.97,-4.97,-4.77,-5.27,0.18,0.18,0.19
37.06,5.18,5.02,5.18,5.01,-5.01,-4.81,-5.26,0.17,0.16,0.16
37.43,5.20,5.05,5.20,5.05,-5.05,-4.85,-5.24,0.15,0.15,0.15
37.81,5.22,5.09,5.22,5.10,-5.10,-4.90,-5.23,0.12,0.13,0.13
38.19,5.25,5.15,5.25,5.14,-5.14,-4.94,-5.22,0.11,0.11,0.11
38.57,5.27,5.18,5.27,5.18,-5.18,-4.99,-5.22,0.09,0.09,0.09
38.95,5.30,5.23,5.30,5.23,-5.23,-5.04,-5.21,0.07,0.07,0.07
39.34,5.32,5.28,5.32,5.28,-5.27,-5.08,-5.21,0.05,0.05,0.05
39.74,5.35,5.33,5.35,5.32,-5.32,-5.13,-5.21,0.03,0.03,0.02
40.14,5.37,5.35,5.37,5.36,-5.36,-5.18,-5.21,0.01,0.01,0.02
40.54,5.39,5.39,5.40,5.40,-5.40,-5.24,-5.22,-0.01,-0.01,-0.00
40.94,5.43,5.45,5.43,5.44,-5.44,-5.29,-5.23,-0.01,-0.02,-0.02
41.35,5.45,5.49,5.46,5.49,-5.49,-5.34,-5.24,-0.04,-0.03,-0.04
41.76,5.49,5.54,5.49,5.54,-5.53,-5.40,-5.26,-0.04,-0.04,-0.04
42.18,5.51,5.57,5.51,5.57,-5.57,-5.45,-5.28,-0.06,-0.06,-0.06
42.60,5.54,5.62,5.54,5.61,-5.62,-5.51,-5.30,-0.08,-0.08,-0.08
43.03,5.56,5.65,5.57,5.66,-5.67,-5.57,-5.33,-0.10,-0.10,-0.09
43.46,5.60,5.71,5.60,5.71,-5.71,-5.63,-5.36,-0.11,-0.11,-0.11
43.90,5.63,5.77,5.63,5.76,-5.76,-5.69,-5.40,-0.13,-0.13,-0.13
44.33,5.66,5.81,5.66,5.81,-5.80,-5.75,-5.44,-0.14,-0.15,-0.15
44.78,5.68,5.85,5.68,5.85,-5.85,-5.81,-5.48,-0.17,-0.17,-0.16
45.23,5.71,5.90,5.71,5.90,-5.90,-5.87,-5.53,-0.19,-0.19,-0.19
45.68,5.74,5.95,5.74,5.94,-5.94,-5.93,-5.59,-0.20,-0.20,-0.20
46.13,5.77,5.99,5.77,5.99,-5.99,-5.99,-5.64,-0.22,-0.22,-0.22
46.60,5.80,6.03,5.80,6.04,-6.03,-6.06,-5.70,-0.23,-0.23,-0.23
47.06,5.84,6.08,5.84,6.08,-6.08,-6.12,-5.77,-0.24,-0.24,-0.24
47.53,5.87,6.13,5.87,6.12,-6.13,-6.18,-5.84,-0.26,-0.26,-0.26
48.01,5.90,6.17,5.90,6.17,-6.18,-6.24,-5.91,-0.28,-0.28,-0.26
48.49,5.93,6.22,5.93,6.22,-6.23,-6.30,-5.98,-0.30,-0.30,-0.29
48.97,5.96,6.28,5.96,6.28,-6.28,-6.37,-6.06,-0.32,-0.32,-0.32
49.46,5.99,6.34,5.99,6.34,-6.33,-6.43,-6.14,-0.34,-0.34,-0.35
49.96,6.02,6.39,6.02,6.38,-6.38,-6.49,-6.23,-0.36,-0.36,-0.37
50.46,6.05,6.42,6.05,6.43,-6.43,-6.55,-6.32,-0.38,-0.38,-0.37
50.96,6.08,6.47,6.08,6.47,-6.47,-6.60,-6.41,-0.39,-0.39,-0.39
51.47,6.10,6.52,6.11,6.52,-6.52,-6.66,-6.50,-0.42,-0.41,-0.42
51.99,6.13,6.57,6.13,6.56,-6.56,-6.71,-6.59,-0.43,-0.43,-0.43
52.51,6.15,6.59,6.15,6.60,-6.60,-6.77,-6.68,-0.45,-0.45,-0.44
53.03,6.17,6.63,6.18,6.64,-6.64,-6.82,-6.78,-0.47,-0.46,-0.46
53.56,6.20,6.68,6.20,6.68,-6.68,-6.86,-6.87,-0.48,-0.48,-0.48
54.10,6.22,6.72,6.22,6.72,-6.72,-6.91,-6.96,-0.49,-0.50,-0.50
54.64,6.22,6.74,6.23,6.75,-6.75,-6.95,-7.05,-0.53,-0.52,-0.52
55.18,6.24,6.78,6.24,6.78,-6.78,-6.98,-7.14,-0.54,-0.54,-0.54
55.74,6.25,6.81,6.25,6.81,-6.81,-7.02,-7.22,-0.56,-0.56,-0.56
56.29,6.25,6.83,6.26,6.83,-6.84,-7.05,-7.30,-0.58,-0.58,-0.57
56.86,6.26,6.86,6.26,6.86,-6.86,-7.08,-7.37,-0.60,-0.60,-0.60
57.42,6.26,6.88,6.26,6.87,-6.87,-7.10,-7.44,-0.61,-0.61,-0.62
58.00,6.26,6.89,6.26,6.89,-6.89,-7.11,-7.50,-0.63,-0.63,-0.63
58.58,6.24,6.89,6.25,6.90,-6.90,-7.13,-7.56,-0.65,-0.65,-0.65
59.16,6.24,6.91,6.24,6.90,-6.90,-7.13,-7.60,-0.66,-0.66,-0.67
59.76,6.22,6.90,6.22,6.90,-6.90,-7.14,-7.64,-0.68,-0.68,-0.68
60.35,6.20,6.91,6.20,6.90,-6.90,-7.13,-7.67,-0.70,-0.70,-0.70
60.96,6.17,6.88,6.17,6.89,-6.90,-7.13,-7.68,-0.73,-0.73,-0.71
61.57,6.15,6.89,6.15,6.89,-6.89,-7.11,-7.69,-0.74,-0.74,-0.74
62.18,6.11,6.88,6.12,6.88,-6.88,-7.10,-7.68,-0.77,-0.76,-0.77
62.80,6.08,6.87,6.08,6.87,-6.86,-7.08,-7.66,-0.78,-0.78,-0.78
63.43,6.04,6.85,6.04,6.85,-6.84,-7.05,-7.63,-0.80,-0.80,-0.81
64.07,5.99,6.82,5.99,6.82,-6.81,-7.02,-7.59,-0.82,-0.82,-0.83
64.71,5.94,6.78,5.94,6.78,-6.78,-6.98,-7.54,-0.84,-0.84,-0.84
65.35,5.89,6.74,5.89,6.74,-6.75,-6.94,-7.48,-0.85,-0.86,-0.85
66.01,5.83,6.69,5.84,6.70,-6.70,-6.89,-7.41,-0.87,-0.87,-0.86
66.67,5.78,6.66,5.78,6.66,-6.66,-6.84,-7.33,-0.87,-0.88,-0.88
67.33,5.72,6.61,5.72,6.61,-6.61,-6.79,-7.23,-0.88,-0.89,-0.89
68.01,5.64,6.55,5.65,6.55,-6.55,-6.73,-7.14,-0.91,-0.91,-0.91
68.69,5.57,6.49,5.57,6.49,-6.50,-6.67,-7.03,-0.92,-0.92,-0.92
69.37,5.49,6.43,5.49,6.43,-6.44,-6.61,-6.92,-0.94,-0.94,-0.94
70.07,5.42,6.38,5.42,6.37,-6.37,-6.54,-6.80,-0.95,-0.95,-0.95
70.77,5.34,6.31,5.34,6.31,-6.31,-6.48,-6.68,-0.97,-0.97,-0.97
71.48,5.26,6.25,5.26,6.25,-6.25,-6.41,-6.55,-0.99,-0.99,-0.99
72.19,5.17,6.18,5.18,6.18,-6.18,-6.33,-6.42,-1.01,-1.01,-1.00
72.91,5.09,6.12,5.09,6.11,-6.12,-6.26,-6.29,-1.03,-1.03,-1.03
73.64,5.00,6.05,5.00,6.05,-6.05,-6.18,-6.16,-1.05,-1.05,-1.05
74.38,4.91,5.98,4.92,5.99,-5.99,-6.11,-6.02,-1.08,-1.07,-1.07
75.12,4.83,5.94,4.83,5.92,-5.92,-6.03,-5.89,-1.09,-1.09,-1.10
75.87,4.74,5.86,4.74,5.86,-5.86,-5.95,-5.75,-1.11,-1.12,-1.12
76.63,4.64,5.78,4.65,5.79,-5.79,-5.87,-5.62,-1.15,-1.14,-1.14
77.40,4.55,5.72,4.55,5.72,-5.72,-5.79,-5.48,-1.17,-1.17,-1.17
78.17,4.46,5.67,4.46,5.65,-5.65,-5.71,-5.35,-1.19,-1.19,-1.20
78.95,4.37,5.58,4.37,5.59,-5.59,-5.63,-5.22,-1.22,-1.22,-1.21
79.74,4.27,5.51,4.27,5.52,-5.52,-5.56,-5.09,-1.25,-1.25,-1.24
80.54,4.18,5.45,4.18,5.45,-5.46,-5.48,-4.96,-1.28,-1.27,-1.27
81.35,4.09,5.40,4.09,5.39,-5.39,-5.40,-4.84,-1.30,-1.30,-1.30
82.16,4.00,5.34,4.00,5.33,-5.33,-5.32,-4.71,-1.33,-1.33,-1.33
82.98,3.90,5.26,3.90,5.27,-5.27,-5.25,-4.59,-1.36,-1.36,-1.36
83.81,3.81,5.21,3.81,5.20,-5.20,-5.17,-4.48,-1.39,-1.39,-1.40
84.65,3.71,5.14,3.71,5.14,-5.14,-5.10,-4.36,-1.43,-1.43,-1.43
85.50,3.62,5.08,3.62,5.08,-5.08,-5.02,-4.25,-1.46,-1.46,-1.46
86.35,3.52,5.01,3.52,5.01,-5.01,-4.95,-4.14,-1.49,-1.49,-1.49
87.22,3.42,4.95,3.43,4.95,-4.95,-4.88,-4.03,-1.53,-1.52,-1.52
88.09,3.34,4.90,3.33,4.89,-4.89,-4.81,-3.93,-1.55,-1.56,-1.56
88.97,3.24,4.83,3.24,4.83,-4.83,-4.75,-3.83,-1.59,-1.59,-1.58
89.86,3.14,4.76,3.15,4.77,-4.77,-4.68,-3.73,-1.63,-1.62,-1.62
90.76,3.05,4.72,3.05,4.71,-4.71,-4.62,-3.64,-1.66,-1.66,-1.67
91.66,2.95,4.64,2.95,4.65,-4.65,-4.56,-3.55,-1.70,-1.70,-1.69
92.58,2.86,4.60,2.86,4.59,-4.59,-4.50,-3.46,-1.73,-1.73,-1.74
93.51,2.76,4.52,2.77,4.53,-4.53,-4.44,-3.37,-1.77,-1.76,-1.76
94.44,2.68,4.48,2.68,4.47,-4.47,-4.38,-3.29,-1.79,-1.80,-1.79
95.39,2.58,4.41,2.58,4.41,-4.41,-4.33,-3.20,-1.83,-1.83,-1.83
96.34,2.48,4.36,2.48,4.36,-4.36,-4.28,-3.13,-1.88,-1.87,-1.88
97.30,2.38,4.30,2.38,4.30,-4.30,-4.23,-3.05,-1.92,-1.92,-1.92
98.28,2.28,4.24,2.28,4.24,-4.24,-4.18,-2.98,-1.96,-1.96,-1.96
99.26,2.18,4.19,2.18,4.18,-4.19,-4.13,-2.91,-2.00,-2.00,-2.01
100.25,2.08,4.13,2.08,4.13,-4.13,-4.08,-2.84,-2.05,-2.05,-2.04
101.25,1.98,4.07,1.98,4.07,-4.07,-4.03,-2.77,-2.09,-2.09,-2.08
102.27,1.88,4.02,1.88,4.01,-4.01,-3.99,-2.71,-2.13,-2.13,-2.13
103.29,1.78,3.96,1.78,3.96,-3.95,-3.94,-2.64,-2.17,-2.17,-2.18
104.32,1.67,3.89,1.68,3.90,-3.89,-3.89,-2.58,-2.22,-2.22,-2.22
105.37,1.57,3.83,1.57,3.83,-3.83,-3.84,-2.52,-2.26,-2.27,-2.26
106.42,1.45,3.76,1.45,3.76,-3.77,-3.79,-2.47,-2.32,-2.31,-2.31
107.48,1.34,3.70,1.34,3.70,-3.71,-3.74,-2.41,-2.36,-2.36,-2.36
108.56,1.23,3.64,1.23,3.64,-3.64,-3.69,-2.36,-2.41,-2.41,-2.41
109.64,1.12,3.58,1.12,3.57,-3.57,-3.63,-2.31,-2.45,-2.45,-2.46
110.74,1.00,3.50,1.01,3.51,-3.51,-3.56,-2.26,-2.51,-2.50,-2.50
111.85,0.89,3.44,0.88,3.44,-3.44,-3.50,-2.21,-2.55,-2.56,-2.55
112.97,0.76,3.38,0.76,3.37,-3.37,-3.43,-2.16,-2.61,-2.61,-2.62
114.10,0.63,3.29,0.64,3.30,-3.30,-3.36,-2.12,-2.67,-2.66,-2.65
115.24,0.52,3.22,0.52,3.22,-3.22,-3.27,-2.08,-2.70,-2.71,-2.70
116.39,0.39,3.15,0.39,3.14,-3.14,-3.19,-2.03,-2.75,-2.75,-2.76
117.55,0.25,3.06,0.25,3.06,-3.05,-3.10,-1.99,-2.80,-2.80,-2.81
118.73,0.11,2.97,0.11,2.97,-2.96,-3.01,-1.95,-2.85,-2.85,-2.86
119.92,-0.03,2.86,-0.03,2.87,-2.87,-2.91,-1.91,-2.90,-2.90,-2.89
121.12,-0.17,2.77,-0.17,2.77,-2.77,-2.81,-1.87,-2.94,-2.94,-2.94
122.33,-0.32,2.67,-0.31,2.67,-2.67,-2.71,-1.83,-2.99,-2.98,-2.99
123.55,-0.46,2.56,-0.46,2.56,-2.56,-2.60,-1.80,-3.02,-3.03,-3.02
124.79,-0.62,2.45,-0.61,2.45,-2.45,-2.49,-1.76,-3.07,-3.07,-3.07
126.03,-0.77,2.33,-0.77,2.34,-2.34,-2.38,-1.72,-3.11,-3.11,-3.10
127.29,-0.92,2.23,-0.92,2.23,-2.23,-2.26,-1.69,-3.15,-3.15,-3.15
128.57,-1.08,2.12,-1.08,2.11,-2.11,-2.15,-1.66,-3.19,-3.19,-3.20
129.85,-1.24,2.00,-1.24,2.00,-1.99,-2.03,-1.62,-3.23,-3.23,-3.23
131.15,-1.41,1.86,-1.40,1.87,-1.86,-1.91,-1.59,-3.27,-3.27,-3.27
132.46,-1.57,1.74,-1.57,1.73,-1.73,-1.79,-1.56,-3.30,-3.30,-3.31
133.79,-1.74,1.59,-1.74,1.60,-1.60,-1.66,-1.53,-3.33,-3.34,-3.33
135.12,-1.91,1.46,-1.91,1.45,-1.46,-1.53,-1.50,-3.36,-3.37,-3.37
136.48,-2.09,1.31,-2.09,1.31,-1.31,-1.40,-1.47,-3.40,-3.40,-3.39
137.84,-2.27,1.15,-2.26,1.16,-1.16,-1.27,-1.44,-3.43,-3.42,-3.41
139.22,-2.44,1.02,-2.44,1.01,-1.01,-1.13,-1.41,-3.44,-3.45,-3.45
140.61,-2.62,0.86,-2.62,0.85,-0.85,-0.99,-1.38,-3.47,-3.47,-3.48
142.02,-2.80,0.68,-2.80,0.69,-0.69,-0.84,-1.35,-3.49,-3.49,-3.48
143.44,-2.98,0.52,-2.98,0.53,-0.53,-0.69,-1.33,-3.51,-3.51,-3.50
144.87,-3.16,0.37,-3.16,0.36,-0.37,-0.54,-1.30,-3.53,-3.52,-3.53
146.32,-3.33,0.21,-3.33,0.21,-0.21,-0.38,-1.28,-3.53,-3.54,-3.54
147.78,-3.51,0.04,-3.51,0.05,-0.05,-0.21,-1.25,-3.55,-3.55,-3.55
149.26,-3.68,-0.11,-3.68,-0.11,0.11,-0.04,-1.23,-3.57,-3.57,-3.57
150.75,-3.86,-0.27,-3.85,-0.27,0.27,0.13,-1.20,-3.59,-3.59,-3.59
152.26,-4.02,-0.41,-4.02,-0.42,0.42,0.31,-1.18,-3.60,-3.60,-3.60
153.78,-4.18,-0.56,-4.18,-0.56,0.56,0.48,-1.16,-3.62,-3.62,-3.62
155.32,-4.33,-0.70,-4.33,-0.70,0.70,0.66,-1.14,-3.63,-3.63,-3.63
156.88,-4.48,-0.83,-4.48,-0.83,0.83,0.83,-1.12,-3.65,-3.65,-3.64
158.44,-4.62,-0.95,-4.62,-0.95,0.95,0.98,-1.10,-3.67,-3.67,-3.67
160.03,-4.74,-1.05,-4.74,-1.06,1.06,1.13,-1.08,-3.68,-3.69,-3.69
161.63,-4.86,-1.15,-4.86,-1.15,1.15,1.25,-1.06,-3.71,-3.70,-3.71
163.24,-4.96,-1.24,-4.96,-1.24,1.24,1.36,-1.04,-3.72,-3.72,-3.72
164.88,-5.05,-1.32,-5.05,-1.31,1.31,1.43,-1.02,-3.74,-3.74,-3.73
166.53,-5.12,-1.37,-5.12,-1.37,1.37,1.49,-1.01,-3.75,-3.75,-3.75
168.19,-5.19,-1.41,-5.19,-1.41,1.41,1.49,-0.99,-3.78,-3.77,-3.78
169.87,-5.24,-1.44,-5.24,-1.44,1.44,1.49,-0.97,-3.80,-3.79,-3.79
171.57,-5.27,-1.46,-5.27,-1.46,1.46,1.44,-0.96,-3.81,-3.82,-3.81
173.29,-5.30,-1.47,-5.29,-1.46,1.45,1.38,-0.94,-3.84,-3.84,-3.83
175.02,-5.30,-1.44,-5.30,-1.44,1.44,1.30,-0.93,-3.86,-3.86,-3.86
176.77,-5.30,-1.41,-5.30,-1.41,1.41,1.21,-0.92,-3.89,-3.89,-3.89
178.54,-5.28,-1.36,-5.28,-1.36,1.36,1.11,-0.91,-3.91,-3.91,-3.92
180.32,-5.25,-1.31,-5.25,-1.31,1.31,1.00,-0.89,-3.94,-3.95,-3.94
182.13,-5.22,-1.25,-5.21,-1.24,1.24,0.90,-0.88,-3.98,-3.97,-3.97
183.95,-5.17,-1.17,-5.16,-1.17,1.16,0.79,-0.87,-4.01,-4.00,-4.00
185.79,-5.10,-1.07,-5.11,-1.08,1.08,0.69,-0.86,-4.02,-4.03,-4.03
187.65,-5.04,-0.98,-5.04,-0.98,0.99,0.59,-0.85,-4.05,-4.05,-4.06
189.52,-4.97,-0.89,-4.96,-0.88,0.89,0.50,-0.84,-4.08,-4.08,-4.08
191.42,-4.88,-0.77,-4.88,-0.78,0.78,0.41,-0.83,-4.10,-4.10,-4.10
193.33,-4.80,-0.68,-4.80,-0.68,0.68,0.34,-0.82,-4.12,-4.12,-4.12
195.27,-4.71,-0.57,-4.71,-0.57,0.57,0.26,-0.82,-4.14,-4.14,-4.14
197.22,-4.63,-0.47,-4.62,-0.46,0.46,0.20,-0.81,-4.17,-4.16,-4.16
199.19,-4.53,-0.33,-4.53,-0.34,0.35,0.13,-0.80,-4.18,-4.18,-4.20
201.18,-4.44,-0.23,-4.44,-0.23,0.24,0.08,-0.80,-4.20,-4.20,-4.21
203.19,-4.36,-0.14,-4.35,-0.13,0.13,0.02,-0.79,-4.23,-4.22,-4.22
205.23,-4.26,-0.02,-4.26,-0.03,0.02,-0.02,-0.78,-4.24,-4.24,-4.24
207.28,-4.17,0.07,-4.17,0.08,-0.09,-0.07,-0.78,-4.25,-4.25,-4.24
209.35,-4.08,0.19,-4.08,0.19,-0.19,-0.11,-0.77,-4.27,-4.27,-4.27
211.44,-3.99,0.30,-3.99,0.29,-0.29,-0.15,-0.77,-4.28,-4.28,-4.29
213.56,-3.91,0.39,-3.90,0.39,-0.39,-0.18,-0.76,-4.30,-4.29,-4.30
215.69,-3.82,0.48,-3.82,0.48,-0.48,-0.22,-0.76,-4.30,-4.30,-4.30
217.85,-3.74,0.56,-3.74,0.57,-0.57,-0.25,-0.75,-4.31,-4.31,-4.30
220.03,-3.66,0.66,-3.65,0.66,-0.66,-0.27,-0.75,-4.32,-4.32,-4.32
222.23,-3.57,0.76,-3.58,0.75,-0.74,-0.30,-0.75,-4.31,-4.32,-4.33
224.45,-3.50,0.82,-3.50,0.83,-0.82,-0.33,-0.74,-4.32,-4.32,-4.32
226.70,-3.43,0.89,-3.42,0.90,-0.89,-0.35,-0.74,-4.32,-4.32,-4.32
228.96,-3.35,0.97,-3.36,0.96,-0.96,-0.38,-0.73,-4.31,-4.32,-4.32
231.25,-3.29,1.02,-3.28,1.02,-1.02,-0.40,-0.73,-4.31,-4.31,-4.31
233.57,-3.22,1.07,-3.22,1.08,-1.08,-0.42,-0.73,-4.30,-4.30,-4.29
235.90,-3.15,1.14,-3.15,1.13,-1.14,-0.44,-0.72,-4.29,-4.29,-4.29
238.26,-3.09,1.20,-3.09,1.19,-1.19,-0.47,-0.72,-4.28,-4.27,-4.28
240.64,-3.03,1.23,-3.03,1.23,-1.23,-0.49,-0.71,-4.26,-4.26,-4.26
243.05,-2.97,1.28,-2.97,1.27,-1.27,-0.51,-0.71,-4.24,-4.25,-4.24
245.48,-2.92,1.30,-2.91,1.31,-1.31,-0.53,-0.71,-4.23,-4.22,-4.22
247.93,-2.86,1.35,-2.86,1.35,-1.34,-0.55,-0.70,-4.20,-4.20,-4.20
250.41,-2.80,1.39,-2.81,1.38,-1.37,-0.58,-0.70,-4.17,-4.18,-4.19
252.92,-2.76,1.40,-2.76,1.40,-1.40,-0.60,-0.69,-4.16,-4.16,-4.15
255.45,-2.72,1.41,-2.71,1.42,-1.42,-0.62,-0.69,-4.14,-4.14,-4.13
258.00,-2.67,1.43,-2.67,1.44,-1.44,-0.64,-0.68,-4.11,-4.11,-4.10
260.58,-2.62,1.47,-2.62,1.46,-1.46,-0.67,-0.68,-4.08,-4.09,-4.09
263.19,-2.58,1.48,-2.58,1.48,-1.48,-0.69,-0.67,-4.06,-4.06,-4.06
265.82,-2.54,1.50,-2.54,1.50,-1.49,-0.72,-0.66,-4.03,-4.03,-4.03
268.48,-2.50,1.51,-2.50,1.51,-1.50,-0.74,-0.66,-4.00,-4.00,-4.01
271.16,-2.46,1.51,-2.46,1.51,-1.51,-0.77,-0.65,-3.97,-3.98,-3.97
273.87,-2.44,1.52,-2.43,1.52,-1.52,-0.80,-0.65,-3.96,-3.95,-3.95
276.61,-2.40,1.52,-2.40,1.52,-1.53,-0.83,-0.64,-3.93,-3.93,-3.92
279.38,-2.37,1.53,-2.37,1.53,-1.53,-0.86,-0.64,-3.90,-3.90,-3.90
282.17,-2.34,1.54,-2.34,1.53,-1.53,-0.89,-0.63,-3.87,-3.87,-3.87
284.99,-2.32,1.53,-2.32,1.53,-1.53,-0.92,-0.62,-3.85,-3.85,-3.85
287.84,-2.30,1.52,-2.29,1.53,-1.53,-0.95,-0.62,-3.83,-3.82,-3.82
290.72,-2.26,1.52,-2.27,1.52,-1.52,-0.98,-0.61,-3.78,-3.79,-3.78
293.63,-2.25,1.52,-2.25,1.51,-1.51,-1.01,-0.61,-3.76,-3.76,-3.77
296.57,-2.23,1.50,-2.23,1.51,-1.50,-1.05,-0.60,-3.73,-3.73,-3.73
299.53,-2.21,1.49,-2.21,1.49,-1.49,-1.08,-0.60,-3.70,-3.70,-3.70
302.53,-2.19,1.48,-2.19,1.47,-1.47,-1.11,-0.59,-3.66,-3.66,-3.67
305.55,-2.18,1.45,-2.17,1.46,-1.45,-1.14,-0.59,-3.63,-3.63,-3.62
308.61,-2.16,1.44,-2.16,1.43,-1.43,-1.18,-0.58,-3.59,-3.59,-3.60
311.69,-2.15,1.41,-2.15,1.41,-1.41,-1.21,-0.58,-3.56,-3.56,-3.56
314.81,-2.14,1.38,-2.14,1.39,-1.39,-1.24,-0.57,-3.52,-3.53,-3.52
317.96,-2.14,1.35,-2.13,1.36,-1.36,-1.26,-0.57,-3.50,-3.49,-3.49
321.14,-2.12,1.35,-2.12,1.34,-1.34,-1.29,-0.57,-3.46,-3.46,-3.46
324.35,-2.12,1.32,-2.12,1.32,-1.32,-1.31,-0.57,-3.43,-3.43,-3.44
327.59,-2.11,1.29,-2.11,1.29,-1.30,-1.33,-0.56,-3.40,-3.40,-3.40
330.87,-2.10,1.27,-2.10,1.27,-1.28,-1.35,-0.56,-3.37,-3.38,-3.37
334.18,-2.09,1.26,-2.09,1.26,-1.26,-1.36,-0.56,-3.35,-3.35,-3.35
337.52,-2.08,1.24,-2.08,1.24,-1.24,-1.37,-0.56,-3.32,-3.32,-3.32
340.90,-2.07,1.23,-2.07,1.23,-1.23,-1.38,-0.56,-3.30,-3.30,-3.29
344.30,-2.06,1.22,-2.06,1.21,-1.22,-1.38,-0.56,-3.27,-3.27,-3.28
347.75,-2.05,1.20,-2.05,1.20,-1.20,-1.38,-0.55,-3.25,-3.25,-3.25
351.23,-2.03,1.20,-2.03,1.19,-1.19,-1.37,-0.55,-3.22,-3.22,-3.23
354.74,-2.03,1.18,-2.03,1.18,-1.18,-1.36,-0.56,-3.21,-3.20,-3.21
358.28,-2.02,1.17,-2.02,1.17,-1.17,-1.35,-0.56,-3.19,-3.19,-3.19
361.87,-2.02,1.15,-2.02,1.15,-1.16,-1.33,-0.56,-3.17,-3.17,-3.17
365.49,-2.01,1.13,-2.01,1.14,-1.15,-1.31,-0.56,-3.15,-3.15,-3.14
369.14,-2.00,1.13,-2.00,1.13,-1.14,-1.29,-0.56,-3.13,-3.13,-3.13
372.83,-1.99,1.13,-1.99,1.13,-1.12,-1.26,-0.56,-3.11,-3.11,-3.11
376.56,-1.97,1.13,-1.97,1.12,-1.11,-1.23,-0.57,-3.08,-3.09,-3.10
380.33,-1.97,1.10,-1.96,1.11,-1.10,-1.20,-0.57,-3.07,-3.07,-3.07
384.13,-1.95,1.10,-1.95,1.10,-1.09,-1.17,-0.57,-3.04,-3.05,-3.05
387.97,-1.95,1.08,-1.94,1.08,-1.09,-1.14,-0.58,-3.03,-3.03,-3.03
391.85,-1.93,1.08,-1.93,1.08,-1.08,-1.10,-0.58,-3.00,-3.01,-3.01
395.77,-1.92,1.06,-1.92,1.07,-1.07,-1.07,-0.58,-2.99,-2.99,-2.98
399.73,-1.90,1.06,-1.90,1.06,-1.06,-1.03,-0.59,-2.96,-2.96,-2.96
403.72,-1.89,1.05,-1.89,1.05,-1.05,-1.00,-0.59,-2.94,-2.94,-2.94
407.76,-1.87,1.05,-1.87,1.05,-1.05,-0.96,-0.60,-2.92,-2.92,-2.92
411.84,-1.86,1.03,-1.85,1.04,-1.05,-0.93,-0.60,-2.90,-2.90,-2.89
415.96,-1.83,1.04,-1.83,1.04,-1.04,-0.89,-0.61,-2.87,-2.87,-2.87
420.12,-1.81,1.05,-1.81,1.04,-1.04,-0.86,-0.61,-2.85,-2.85,-2.85
424.32,-1.80,1.03,-1.79,1.03,-1.03,-0.83,-0.62,-2.83,-2.83,-2.82
428.56,-1.78,1.03,-1.78,1.03,-1.03,-0.79,-0.62,-2.80,-2.81,-2.80
432.85,-1.77,1.02,-1.77,1.02,-1.02,-0.76,-0.63,-2.79,-2.78,-2.79
437.18,-1.75,1.01,-1.75,1.01,-1.01,-0.73,-0.64,-2.75,-2.76,-2.76
441.55,-1.74,0.99,-1.74,1.00,-0.99,-0.70,-0.64,-2.73,-2.73,-2.73
445.96,-1.73,0.98,-1.73,0.98,-0.97,-0.67,-0.65,-2.70,-2.70,-2.71
450.42,-1.72,0.97,-1.72,0.96,-0.95,-0.65,-0.65,-2.67,-2.67,-2.69
454.93,-1.73,0.92,-1.72,0.93,-0.93,-0.62,-0.66,-2.65,-2.65,-2.65
459.48,-1.72,0.91,-1.72,0.90,-0.90,-0.60,-0.66,-2.62,-2.62,-2.63
464.07,-1.73,0.87,-1.73,0.87,-0.87,-0.57,-0.66,-2.60,-2.60,-2.60
