frequency,raw,error,smoothed,error_smoothed,equalization,parametric_eq,equalized_raw,equalized_smoothed,target
20,13.05,11.30,13.10,11.35,-11.35,-11.22,1.69,1.74,1.74
21,12.71,10.96,12.67,10.92,-10.92,-10.83,1.78,1.74,1.74
22,12.27,10.53,12.25,10.51,-10.51,-10.45,1.76,1.74,1.74
23,11.90,10.16,11.85,10.11,-10.11,-10.08,1.79,1.74,1.74
24,11.48,9.74,11.46,9.72,-9.72,-9.72,1.76,1.74,1.74
25,11.05,9.31,11.08,9.34,-9.34,-9.38,1.70,1.73,1.73
26,10.74,9.01,10.71,8.98,-8.98,-9.05,1.76,1.73,1.73
27,10.33,8.60,10.35,8.63,-8.63,-8.74,1.70,1.73,1.73
28,9.99,8.26,10.01,8.29,-8.29,-8.44,1.70,1.72,1.72
29,9.69,7.97,9.69,7.97,-7.97,-8.16,1.72,1.72,1.72
30,9.38,7.66,9.38,7.66,-7.66,-7.89,1.71,1.71,1.71
31,9.11,7.40,9.08,7.38,-7.38,-7.63,1.73,1.71,1.71
32,8.81,7.10,8.80,7.10,-7.10,-7.38,1.70,1.70,1.70
33,8.54,6.84,8.54,6.85,-6.85,-7.14,1.69,1.70,1.70
34,8.31,6.62,8.29,6.61,-6.61,-6.92,1.70,1.69,1.69
35,8.03,6.34,8.06,6.38,-6.38,-6.70,1.65,1.68,1.68
36,7.86,6.18,7.84,6.17,-6.17,-6.49,1.69,1.67,1.67
37,7.63,5.96,7.64,5.97,-5.97,-6.29,1.65,1.66,1.66
38,7.44,5.78,7.45,5.79,-5.79,-6.10,1.64,1.65,1.65
39,7.27,5.62,7.27,5.62,-5.62,-5.92,1.65,1.64,1.64
40,7.13,5.49,7.09,5.46,-5.46,-5.75,1.67,1.63,1.63
41,6.94,5.31,6.93,5.31,-5.31,-5.58,1.63,1.62,1.62
42,6.78,5.17,6.78,5.17,-5.17,-5.42,1.61,1.61,1.61
43,6.64,5.04,6.63,5.03,-5.03,-5.26,1.60,1.60,1.60
44,6.49,4.90,6.49,4.91,-4.91,-5.12,1.58,1.58,1.58
45,6.35,4.78,6.36,4.79,-4.79,-4.97,1.56,1.57,1.57
46,6.20,4.64,6.23,4.68,-4.68,-4.84,1.52,1.55,1.55
47,6.12,4.58,6.11,4.57,-4.57,-4.70,1.55,1.54,1.54
48,6.01,4.49,5.99,4.47,-4.47,-4.58,1.54,1.52,1.52
49,5.91,4.40,5.87,4.37,-4.37,-4.45,1.53,1.50,1.50
50,5.77,4.28,5.76,4.28,-4.28,-4.34,1.49,1.48,1.48
51,5.62,4.15,5.65,4.19,-4.19,-4.22,1.43,1.46,1.46
52,5.56,4.11,5.54,4.10,-4.10,-4.11,1.46,1.44,1.44
53,5.45,4.02,5.44,4.01,-4.01,-4.01,1.43,1.42,1.42
54,5.33,3.93,5.33,3.93,-3.93,-3.91,1.40,1.40,1.40
55,5.21,3.83,5.23,3.85,-3.85,-3.81,1.36,1.38,1.38
56,5.14,3.78,5.12,3.77,-3.77,-3.71,1.36,1.35,1.35
57,5.04,3.71,5.02,3.70,-3.70,-3.62,1.34,1.33,1.33
58,4.91,3.61,4.92,3.63,-3.63,-3.53,1.28,1.30,1.30
59,4.85,3.57,4.83,3.56,-3.56,-3.45,1.29,1.27,1.27
60,4.74,3.49,4.74,3.49,-3.49,-3.36,1.24,1.24,1.24
61,4.64,3.42,4.65,3.43,-3.43,-3.28,1.20,1.22,1.22
62,4.54,3.35,4.56,3.37,-3.37,-3.20,1.16,1.19,1.19
63,4.47,3.31,4.47,3.32,-3.32,-3.13,1.15,1.16,1.16
64,4.41,3.28,4.39,3.26,-3.26,-3.06,1.14,1.12,1.12
65,4.30,3.20,4.30,3.21,-3.21,-2.99,1.09,1.09,1.09
66,4.23,3.17,4.21,3.15,-3.15,-2.92,1.07,1.06,1.06
67,4.12,3.09,4.12,3.10,-3.10,-2.85,1.02,1.02,1.02
68,4.04,3.05,4.03,3.04,-3.04,-2.79,1.00,0.99,0.99
69,3.95,2.99,3.93,2.98,-2.98,-2.72,0.97,0.95,0.95
70,3.83,2.91,3.84,2.92,-2.92,-2.66,0.91,0.92,0.92
71,3.73,2.84,3.74,2.86,-2.86,-2.61,0.87,0.88,0.88
72,3.65,2.80,3.64,2.79,-2.79,-2.55,0.85,0.84,0.84
73,3.54,2.73,3.54,2.73,-2.73,-2.49,0.80,0.81,0.81
74,3.45,2.68,3.44,2.67,-2.67,-2.44,0.77,0.77,0.77
75,3.35,2.62,3.34,2.61,-2.61,-2.39,0.73,0.73,0.73
76,3.24,2.55,3.24,2.55,-2.55,-2.34,0.68,0.69,0.69
77,3.16,2.51,3.15,2.50,-2.50,-2.29,0.66,0.65,0.65
78,3.05,2.44,3.05,2.44,-2.44,-2.24,0.60,0.61,0.61
79,2.96,2.39,2.96,2.39,-2.39,-2.19,0.56,0.57,0.57
80,2.87,2.34,2.87,2.34,-2.34,-2.15,0.52,0.53,0.53
81,2.79,2.30,2.78,2.30,-2.30,-2.10,0.49,0.49,0.49
82,2.71,2.26,2.70,2.25,-2.25,-2.06,0.46,0.45,0.45
83,2.62,2.21,2.61,2.21,-2.21,-2.02,0.41,0.41,0.41
84,2.53,2.16,2.53,2.16,-2.16,-1.98,0.36,0.36,0.36
85,2.46,2.13,2.44,2.12,-2.12,-1.94,0.34,0.32,0.32
86,2.35,2.06,2.36,2.08,-2.08,-1.90,0.27,0.28,0.28
87,2.27,2.03,2.27,2.03,-2.03,-1.86,0.23,0.24,0.24
88,2.20,2.00,2.19,1.99,-1.99,-1.83,0.20,0.20,0.20
89,2.10,1.94,2.11,1.95,-1.95,-1.79,0.15,0.16,0.16
90,2.04,1.92,2.02,1.91,-1.91,-1.76,0.13,0.12,0.12
91,1.97,1.89,1.94,1.86,-1.86,-1.72,0.10,0.07,0.07
92,1.84,1.80,1.86,1.82,-1.82,-1.69,0.01,0.03,0.03
93,1.78,1.78,1.77,1.78,-1.78,-1.66,-0.01,-0.01,-0.01
94,1.71,1.75,1.69,1.74,-1.74,-1.63,-0.04,-0.05,-0.05
95,1.60,1.68,1.62,1.70,-1.70,-1.60,-0.11,-0.09,-0.09
96,1.52,1.64,1.54,1.67,-1.67,-1.57,-0.15,-0.13,-0.13
97,1.46,1.62,1.47,1.63,-1.63,-1.54,-0.18,-0.17,-0.17
98,1.43,1.63,1.39,1.60,-1.60,-1.51,-0.18,-0.21,-0.21
99,1.32,1.56,1.32,1.57,-1.57,-1.48,-0.26,-0.25,-0.25
100,1.27,1.55,1.25,1.54,-1.54,-1.46,-0.28,-0.29,-0.29
101,1.19,1.51,1.18,1.51,-1.51,-1.43,-0.33,-0.33,-0.32
102,1.13,1.49,1.11,1.49,-1.49,-1.40,-0.36,-0.38,-0.36
104,1.02,1.45,1.04,1.46,-1.46,-1.35,-0.44,-0.42,-0.44
105,0.97,1.44,0.97,1.43,-1.43,-1.33,-0.46,-0.46,-0.47
106,0.90,1.40,0.90,1.40,-1.40,-1.30,-0.50,-0.50,-0.51
107,0.83,1.37,0.83,1.37,-1.37,-1.28,-0.55,-0.54,-0.54
108,0.76,1.33,0.77,1.34,-1.34,-1.26,-0.59,-0.58,-0.58
109,0.70,1.31,0.70,1.32,-1.32,-1.24,-0.62,-0.61,-0.61
110,0.66,1.30,0.64,1.29,-1.29,-1.22,-0.63,-0.65,-0.65
111,0.59,1.27,0.58,1.26,-1.26,-1.19,-0.68,-0.68,-0.68
112,0.53,1.24,0.52,1.24,-1.24,-1.17,-0.71,-0.72,-0.71
113,0.46,1.20,0.46,1.21,-1.21,-1.15,-0.76,-0.75,-0.75
114,0.40,1.17,0.40,1.19,-1.19,-1.13,-0.79,-0.78,-0.78
115,0.37,1.17,0.34,1.16,-1.16,-1.11,-0.80,-0.82,-0.81
117,0.29,1.15,0.28,1.14,-1.14,-1.08,-0.85,-0.85,-0.87
118,0.23,1.12,0.22,1.11,-1.11,-1.06,-0.89,-0.89,-0.90
119,0.16,1.08,0.16,1.09,-1.09,-1.04,-0.93,-0.93,-0.93
120,0.09,1.04,0.11,1.07,-1.07,-1.02,-0.98,-0.96,-0.96
121,0.03,1.01,0.05,1.04,-1.04,-1.00,-1.02,-0.99,-0.98
123,-0.01,1.02,-0.01,1.02,-1.02,-0.97,-1.04,-1.03,-1.04
124,-0.04,1.02,-0.06,1.00,-1.00,-0.95,-1.04,-1.06,-1.06
125,-0.08,1.00,-0.12,0.98,-0.98,-0.94,-1.06,-1.09,-1.09
126,-0.15,0.96,-0.17,0.95,-0.95,-0.92,-1.11,-1.12,-1.11
128,-0.22,0.94,-0.23,0.92,-0.92,-0.89,-1.15,-1.15,-1.16
129,-0.29,0.89,-0.28,0.90,-0.90,-0.88,-1.19,-1.18,-1.19
130,-0.34,0.86,-0.34,0.87,-0.87,-0.86,-1.22,-1.21,-1.21
131,-0.41,0.82,-0.39,0.85,-0.85,-0.85,-1.26,-1.24,-1.23
133,-0.45,0.82,-0.44,0.82,-0.82,-0.82,-1.28,-1.27,-1.27
134,-0.49,0.80,-0.49,0.80,-0.80,-0.80,-1.30,-1.30,-1.30
135,-0.53,0.78,-0.54,0.79,-0.79,-0.79,-1.32,-1.32,-1.32
137,-0.57,0.78,-0.58,0.77,-0.77,-0.76,-1.35,-1.35,-1.36
138,-0.62,0.75,-0.62,0.76,-0.76,-0.75,-1.38,-1.38,-1.38
140,-0.65,0.76,-0.66,0.74,-0.74,-0.73,-1.40,-1.40,-1.41
141,-0.69,0.74,-0.70,0.73,-0.73,-0.71,-1.42,-1.43,-1.43
142,-0.73,0.71,-0.75,0.71,-0.71,-0.70,-1.44,-1.45,-1.45
144,-0.78,0.70,-0.79,0.69,-0.69,-0.68,-1.48,-1.48,-1.48
145,-0.84,0.65,-0.83,0.67,-0.67,-0.67,-1.52,-1.50,-1.50
147,-0.88,0.65,-0.87,0.65,-0.65,-0.64,-1.54,-1.53,-1.53
148,-0.91,0.63,-0.91,0.63,-0.63,-0.63,-1.55,-1.55,-1.55
150,-0.95,0.62,-0.95,0.62,-0.62,-0.61,-1.57,-1.57,-1.57
151,-0.99,0.59,-0.99,0.60,-0.60,-0.60,-1.59,-1.59,-1.59
153,-1.03,0.58,-1.03,0.58,-0.58,-0.58,-1.61,-1.61,-1.62
154,-1.06,0.57,-1.07,0.56,-0.56,-0.57,-1.63,-1.63,-1.63
156,-1.10,0.55,-1.11,0.54,-0.54,-0.55,-1.65,-1.65,-1.65
157,-1.14,0.52,-1.15,0.52,-0.52,-0.54,-1.67,-1.67,-1.67
159,-1.18,0.51,-1.18,0.50,-0.50,-0.52,-1.69,-1.69,-1.69
160,-1.22,0.48,-1.22,0.48,-0.48,-0.51,-1.71,-1.71,-1.70
162,-1.26,0.46,-1.26,0.46,-0.46,-0.49,-1.73,-1.72,-1.72
164,-1.30,0.44,-1.30,0.44,-0.44,-0.47,-1.75,-1.74,-1.75
165,-1.33,0.42,-1.34,0.42,-0.42,-0.47,-1.76,-1.76,-1.76
167,-1.37,0.40,-1.38,0.40,-0.40,-0.45,-1.77,-1.77,-1.78
169,-1.41,0.38,-1.42,0.38,-0.38,-0.43,-1.79,-1.79,-1.79
170,-1.44,0.36,-1.46,0.35,-0.35,-0.42,-1.79,-1.81,-1.80
172,-1.48,0.34,-1.50,0.32,-0.32,-0.41,-1.81,-1.82,-1.82
174,-1.54,0.29,-1.54,0.30,-0.30,-0.39,-1.84,-1.83,-1.84
175,-1.59,0.25,-1.58,0.27,-0.27,-0.38,-1.86,-1.85,-1.85
177,-1.63,0.23,-1.62,0.24,-0.24,-0.37,-1.87,-1.86,-1.86
179,-1.66,0.21,-1.66,0.21,-0.21,-0.35,-1.87,-1.87,-1.88
181,-1.70,0.19,-1.71,0.18,-0.18,-0.34,-1.89,-1.89,-1.89
183,-1.73,0.17,-1.75,0.15,-0.15,-0.32,-1.89,-1.90,-1.90
184,-1.77,0.14,-1.79,0.13,-0.13,-0.31,-1.90,-1.91,-1.91
186,-1.83,0.09,-1.82,0.10,-0.10,-0.30,-1.93,-1.92,-1.92
188,-1.85,0.08,-1.86,0.08,-0.08,-0.28,-1.93,-1.93,-1.93
190,-1.91,0.03,-1.89,0.05,-0.05,-0.27,-1.97,-1.95,-1.95
192,-1.93,0.02,-1.93,0.03,-0.03,-0.26,-1.96,-1.96,-1.96
194,-1.96,0.00,-1.96,0.01,-0.01,-0.24,-1.97,-1.97,-1.97
196,-1.99,-0.02,-1.99,-0.02,0.02,-0.23,-1.98,-1.98,-1.98
198,-2.02,-0.04,-2.03,-0.04,0.04,-0.22,-1.98,-1.99,-1.99
200,-2.05,-0.06,-2.06,-0.07,0.07,-0.20,-1.99,-2.00,-2.00
202,-2.08,-0.08,-2.10,-0.10,0.10,-0.19,-1.99,-2.01,-2.01
204,-2.11,-0.10,-2.15,-0.13,0.13,-0.18,-1.98,-2.01,-2.01
206,-2.17,-0.15,-2.19,-0.17,0.17,-0.16,-2.01,-2.02,-2.02
208,-2.25,-0.22,-2.23,-0.20,0.20,-0.15,-2.05,-2.03,-2.03
210,-2.31,-0.28,-2.27,-0.23,0.23,-0.14,-2.08,-2.04,-2.04
212,-2.33,-0.29,-2.31,-0.26,0.26,-0.13,-2.07,-2.04,-2.04
214,-2.35,-0.30,-2.34,-0.29,0.29,-0.11,-2.06,-2.05,-2.05
216,-2.36,-0.31,-2.38,-0.32,0.32,-0.10,-2.05,-2.06,-2.06
218,-2.38,-0.32,-2.41,-0.34,0.34,-0.09,-2.04,-2.06,-2.06
221,-2.40,-0.33,-2.44,-0.37,0.37,-0.07,-2.03,-2.07,-2.07
223,-2.44,-0.37,-2.47,-0.40,0.40,-0.06,-2.05,-2.08,-2.08
225,-2.53,-0.45,-2.51,-0.42,0.42,-0.05,-2.11,-2.08,-2.08
227,-2.57,-0.48,-2.54,-0.45,0.45,-0.04,-2.12,-2.09,-2.09
229,-2.59,-0.50,-2.57,-0.48,0.48,-0.02,-2.12,-2.10,-2.09
232,-2.61,-0.51,-2.60,-0.50,0.50,-0.01,-2.11,-2.10,-2.10
234,-2.62,-0.52,-2.64,-0.53,0.53,0.00,-2.10,-2.11,-2.11
236,-2.64,-0.53,-2.66,-0.55,0.55,0.02,-2.09,-2.11,-2.11
239,-2.66,-0.55,-2.69,-0.58,0.58,0.03,-2.09,-2.12,-2.12
241,-2.70,-0.58,-2.72,-0.60,0.60,0.04,-2.10,-2.12,-2.12
244,-2.75,-0.63,-2.75,-0.62,0.62,0.06,-2.13,-2.13,-2.13
246,-2.79,-0.66,-2.77,-0.64,0.64,0.07,-2.16,-2.13,-2.13
248,-2.81,-0.68,-2.79,-0.65,0.65,0.08,-2.16,-2.13,-2.13
251,-2.81,-0.68,-2.80,-0.66,0.66,0.10,-2.15,-2.14,-2.14
253,-2.81,-0.67,-2.81,-0.67,0.67,0.11,-2.14,-2.14,-2.14
256,-2.81,-0.67,-2.82,-0.68,0.68,0.13,-2.14,-2.15,-2.15
259,-2.81,-0.66,-2.83,-0.68,0.68,0.15,-2.13,-2.15,-2.15
261,-2.81,-0.66,-2.84,-0.69,0.69,0.16,-2.13,-2.15,-2.15
264,-2.85,-0.70,-2.85,-0.69,0.69,0.18,-2.16,-2.16,-2.16
266,-2.85,-0.69,-2.86,-0.70,0.70,0.19,-2.15,-2.16,-2.16
269,-2.85,-0.69,-2.88,-0.71,0.71,0.20,-2.14,-2.16,-2.16
272,-2.92,-0.76,-2.89,-0.73,0.73,0.22,-2.20,-2.17,-2.17
274,-2.92,-0.76,-2.91,-0.74,0.74,0.23,-2.19,-2.17,-2.17
277,-2.92,-0.75,-2.92,-0.75,0.75,0.25,-2.17,-2.17,-2.17
280,-2.93,-0.76,-2.94,-0.76,0.76,0.27,-2.17,-2.18,-2.18
283,-2.95,-0.78,-2.95,-0.77,0.77,0.28,-2.18,-2.18,-2.18
286,-2.95,-0.77,-2.96,-0.78,0.78,0.30,-2.17,-2.18,-2.18
288,-2.95,-0.77,-2.97,-0.79,0.79,0.31,-2.16,-2.18,-2.18
291,-2.97,-0.79,-2.99,-0.80,0.80,0.33,-2.17,-2.19,-2.18
294,-3.02,-0.84,-3.00,-0.82,0.82,0.35,-2.21,-2.19,-2.19
297,-3.04,-0.85,-3.02,-0.83,0.83,0.37,-2.21,-2.19,-2.19
300,-3.04,-0.85,-3.04,-0.84,0.84,0.38,-2.20,-2.19,-2.19
303,-3.04,-0.85,-3.06,-0.86,0.86,0.40,-2.18,-2.19,-2.19
306,-3.04,-0.85,-3.08,-0.88,0.88,0.42,-2.16,-2.20,-2.20
309,-3.07,-0.88,-3.10,-0.90,0.90,0.44,-2.18,-2.20,-2.20
312,-3.10,-0.90,-3.12,-0.92,0.92,0.46,-2.19,-2.20,-2.20
316,-3.18,-0.98,-3.14,-0.94,0.94,0.48,-2.25,-2.20,-2.20
319,-3.18,-0.98,-3.16,-0.95,0.95,0.50,-2.23,-2.20,-2.20
322,-3.18,-0.98,-3.17,-0.97,0.97,0.52,-2.21,-2.20,-2.20
325,-3.18,-0.98,-3.19,-0.99,0.99,0.54,-2.20,-2.21,-2.21
328,-3.18,-0.98,-3.21,-1.00,1.00,0.56,-2.18,-2.21,-2.21
332,-3.21,-1.01,-3.23,-1.02,1.02,0.58,-2.20,-2.21,-2.21
335,-3.23,-1.02,-3.25,-1.04,1.04,0.60,-2.20,-2.21,-2.21
338,-3.27,-1.06,-3.27,-1.05,1.05,0.62,-2.22,-2.21,-2.21
342,-3.29,-1.08,-3.29,-1.07,1.07,0.65,-2.22,-2.21,-2.21
345,-3.31,-1.10,-3.31,-1.09,1.09,0.67,-2.22,-2.21,-2.21
349,-3.32,-1.11,-3.33,-1.12,1.12,0.70,-2.21,-2.22,-2.22
352,-3.35,-1.14,-3.35,-1.14,1.14,0.72,-2.22,-2.22,-2.22
356,-3.40,-1.19,-3.38,-1.16,1.16,0.74,-2.25,-2.22,-2.22
359,-3.40,-1.19,-3.40,-1.18,1.18,0.77,-2.22,-2.22,-2.22
363,-3.40,-1.18,-3.42,-1.20,1.20,0.79,-2.20,-2.22,-2.22
366,-3.40,-1.18,-3.45,-1.23,1.23,0.82,-2.18,-2.22,-2.22
370,-3.45,-1.23,-3.47,-1.25,1.25,0.85,-2.21,-2.22,-2.22
374,-3.50,-1.28,-3.49,-1.27,1.27,0.87,-2.23,-2.22,-2.22
377,-3.55,-1.33,-3.51,-1.29,1.29,0.90,-2.27,-2.23,-2.23
381,-3.55,-1.33,-3.53,-1.30,1.30,0.93,-2.25,-2.23,-2.23
385,-3.55,-1.33,-3.54,-1.32,1.32,0.96,-2.24,-2.23,-2.23
389,-3.55,-1.32,-3.55,-1.32,1.32,0.99,-2.23,-2.23,-2.23
393,-3.55,-1.32,-3.56,-1.33,1.33,1.02,-2.22,-2.23,-2.23
397,-3.55,-1.32,-3.57,-1.33,1.33,1.05,-2.22,-2.23,-2.23
401,-3.55,-1.32,-3.57,-1.34,1.34,1.08,-2.22,-2.23,-2.23
405,-3.58,-1.35,-3.58,-1.34,1.34,1.12,-2.24,-2.24,-2.24
409,-3.58,-1.35,-3.59,-1.35,1.35,1.15,-2.23,-2.24,-2.24
413,-3.58,-1.35,-3.60,-1.36,1.36,1.18,-2.23,-2.24,-2.24
417,-3.59,-1.36,-3.60,-1.37,1.37,1.22,-2.23,-2.24,-2.24
421,-3.63,-1.40,-3.61,-1.38,1.38,1.25,-2.26,-2.24,-2.24
425,-3.63,-1.40,-3.62,-1.39,1.39,1.28,-2.25,-2.24,-2.24
430,-3.63,-1.40,-3.63,-1.39,1.39,1.33,-2.24,-2.24,-2.24
434,-3.63,-1.40,-3.63,-1.40,1.40,1.36,-2.23,-2.23,-2.23
438,-3.63,-1.40,-3.64,-1.41,1.41,1.40,-2.23,-2.23,-2.23
443,-3.64,-1.41,-3.64,-1.41,1.41,1.44,-2.23,-2.23,-2.23
447,-3.64,-1.42,-3.65,-1.42,1.42,1.48,-2.22,-2.23,-2.23
451,-3.64,-1.42,-3.65,-1.43,1.43,1.52,-2.21,-2.22,-2.22
456,-3.65,-1.44,-3.66,-1.44,1.44,1.57,-2.21,-2.22,-2.22
460,-3.66,-1.45,-3.67,-1.46,1.46,1.60,-2.21,-2.21,-2.21
465,-3.65,-1.45,-3.68,-1.47,1.47,1.65,-2.18,-2.20,-2.20
470,-3.70,-1.51,-3.68,-1.49,1.49,1.70,-2.21,-2.20,-2.20
474,-3.72,-1.54,-3.69,-1.51,1.51,1.74,-2.22,-2.19,-2.19
479,-3.72,-1.55,-3.70,-1.52,1.52,1.79,-2.20,-2.18,-2.18
484,-3.70,-1.54,-3.70,-1.54,1.54,1.84,-2.17,-2.17,-2.17
489,-3.69,-1.54,-3.71,-1.56,1.56,1.89,-2.14,-2.15,-2.15
494,-3.68,-1.54,-3.72,-1.58,1.58,1.94,-2.11,-2.14,-2.14
499,-3.68,-1.56,-3.73,-1.60,1.60,1.99,-2.08,-2.13,-2.13
504,-3.77,-1.66,-3.74,-1.63,1.63,2.04,-2.14,-2.11,-2.11
509,-3.79,-1.70,-3.76,-1.66,1.66,2.09,-2.13,-2.09,-2.09
514,-3.77,-1.70,-3.77,-1.69,1.69,2.14,-2.08,-2.08,-2.08
519,-3.76,-1.71,-3.79,-1.73,1.73,2.20,-2.04,-2.06,-2.06
524,-3.79,-1.75,-3.80,-1.76,1.76,2.25,-2.03,-2.04,-2.04
529,-3.83,-1.82,-3.82,-1.80,1.80,2.30,-2.04,-2.02,-2.02
535,-3.83,-1.84,-3.83,-1.83,1.83,2.36,-2.00,-2.00,-2.00
540,-3.84,-1.87,-3.85,-1.87,1.87,2.42,-1.97,-1.97,-1.97
545,-3.85,-1.90,-3.86,-1.91,1.91,2.47,-1.94,-1.95,-1.95
551,-3.86,-1.94,-3.88,-1.95,1.95,2.53,-1.91,-1.93,-1.93
556,-3.92,-2.02,-3.90,-2.00,2.00,2.59,-1.93,-1.90,-1.90
562,-3.92,-2.05,-3.92,-2.04,2.04,2.65,-1.88,-1.88,-1.88
568,-3.94,-2.09,-3.94,-2.09,2.09,2.71,-1.85,-1.85,-1.85
573,-3.94,-2.12,-3.97,-2.15,2.15,2.77,-1.80,-1.82,-1.82
579,-4.01,-2.22,-4.00,-2.20,2.20,2.83,-1.81,-1.79,-1.79
585,-4.02,-2.26,-4.03,-2.26,2.26,2.89,-1.77,-1.77,-1.77
591,-4.05,-2.32,-4.06,-2.32,2.32,2.95,-1.73,-1.74,-1.74
596,-4.10,-2.40,-4.09,-2.38,2.38,3.00,-1.72,-1.71,-1.71
602,-4.11,-2.44,-4.13,-2.45,2.45,3.06,-1.67,-1.68,-1.68
608,-4.14,-2.50,-4.16,-2.52,2.52,3.11,-1.63,-1.64,-1.64
615,-4.22,-2.61,-4.20,-2.59,2.59,3.18,-1.63,-1.61,-1.61
621,-4.23,-2.65,-4.25,-2.67,2.67,3.23,-1.57,-1.58,-1.58
627,-4.29,-2.75,-4.29,-2.75,2.75,3.29,-1.55,-1.55,-1.55
633,-4.34,-2.83,-4.34,-2.83,2.83,3.34,-1.52,-1.51,-1.51
639,-4.38,-2.90,-4.39,-2.91,2.91,3.39,-1.48,-1.48,-1.48
646,-4.42,-2.98,-4.44,-2.99,2.99,3.44,-1.43,-1.45,-1.45
652,-4.49,-3.08,-4.48,-3.07,3.07,3.48,-1.42,-1.41,-1.41
659,-4.53,-3.16,-4.53,-3.16,3.16,3.53,-1.38,-1.37,-1.37
665,-4.59,-3.26,-4.58,-3.24,3.24,3.57,-1.36,-1.34,-1.34
672,-4.60,-3.30,-4.62,-3.32,3.32,3.61,-1.29,-1.30,-1.30
679,-4.67,-3.41,-4.66,-3.40,3.40,3.65,-1.28,-1.27,-1.27
686,-4.69,-3.47,-4.70,-3.47,3.47,3.68,-1.22,-1.23,-1.23
692,-4.74,-3.55,-4.74,-3.55,3.55,3.70,-1.19,-1.19,-1.19
699,-4.75,-3.60,-4.78,-3.63,3.63,3.72,-1.13,-1.15,-1.15
706,-4.82,-3.71,-4.82,-3.70,3.70,3.74,-1.12,-1.12,-1.12
713,-4.84,-3.77,-4.85,-3.78,3.78,3.75,-1.07,-1.08,-1.08
721,-4.89,-3.85,-4.89,-3.85,3.85,3.76,-1.05,-1.04,-1.04
728,-4.91,-3.91,-4.91,-3.91,3.91,3.76,-1.01,-1.00,-1.00
735,-4.92,-3.96,-4.93,-3.96,3.96,3.75,-0.96,-0.96,-0.96
742,-4.94,-4.02,-4.94,-4.01,4.01,3.74,-0.93,-0.93,-0.93
750,-4.93,-4.05,-4.93,-4.04,4.04,3.71,-0.89,-0.89,-0.89
757,-4.91,-4.06,-4.92,-4.07,4.07,3.69,-0.85,-0.85,-0.85
765,-4.91,-4.10,-4.89,-4.08,4.08,3.65,-0.84,-0.81,-0.81
773,-4.85,-4.08,-4.85,-4.07,4.07,3.61,-0.78,-0.78,-0.78
780,-4.78,-4.04,-4.80,-4.06,4.06,3.56,-0.73,-0.74,-0.74
788,-4.74,-4.04,-4.73,-4.03,4.03,3.50,-0.72,-0.71,-0.71
796,-4.62,-3.95,-4.66,-3.99,3.99,3.43,-0.64,-0.67,-0.67
804,-4.55,-3.92,-4.57,-3.93,3.93,3.36,-0.62,-0.64,-0.64
812,-4.45,-3.85,-4.46,-3.86,3.86,3.28,-0.59,-0.60,-0.60
820,-4.37,-3.81,-4.34,-3.78,3.78,3.19,-0.60,-0.57,-0.57
828,-4.23,-3.70,-4.21,-3.67,3.67,3.09,-0.56,-0.54,-0.54
837,-4.05,-3.55,-4.06,-3.56,3.56,2.98,-0.50,-0.50,-0.50
845,-3.91,-3.44,-3.90,-3.42,3.42,2.87,-0.49,-0.47,-0.47
853,-3.72,-3.28,-3.72,-3.27,3.27,2.76,-0.45,-0.44,-0.44
862,-3.50,-3.09,-3.52,-3.11,3.11,2.63,-0.39,-0.41,-0.41
871,-3.31,-2.93,-3.32,-2.94,2.94,2.49,-0.38,-0.38,-0.38
879,-3.11,-2.76,-3.11,-2.75,2.75,2.36,-0.36,-0.35,-0.35
888,-2.89,-2.57,-2.89,-2.56,2.56,2.21,-0.33,-0.32,-0.32
897,-2.63,-2.34,-2.66,-2.36,2.36,2.06,-0.27,-0.30,-0.30
906,-2.42,-2.16,-2.43,-2.16,2.16,1.90,-0.27,-0.27,-0.27
915,-2.20,-1.96,-2.19,-1.95,1.95,1.74,-0.25,-0.24,-0.24
924,-1.92,-1.71,-1.95,-1.74,1.74,1.58,-0.19,-0.21,-0.21
933,-1.71,-1.53,-1.71,-1.52,1.52,1.41,-0.19,-0.19,-0.19
943,-1.48,-1.32,-1.46,-1.30,1.30,1.23,-0.18,-0.16,-0.16
952,-1.24,-1.11,-1.21,-1.08,1.08,1.06,-0.16,-0.13,-0.13
962,-0.93,-0.83,-0.97,-0.86,0.86,0.87,-0.08,-0.11,-0.11
971,-0.68,-0.60,-0.72,-0.64,0.64,0.70,-0.05,-0.08,-0.08
981,-0.45,-0.40,-0.47,-0.42,0.42,0.51,-0.04,-0.05,-0.05
991,-0.23,-0.21,-0.22,-0.19,0.19,0.32,-0.04,-0.03,-0.03
1001,0.03,0.03,0.03,0.03,-0.03,0.13,-0.00,0.00,0.00
1011,0.27,0.24,0.28,0.25,-0.25,-0.07,0.02,0.03,0.03
1021,0.53,0.47,0.53,0.47,-0.47,-0.26,0.05,0.05,0.05
1031,0.79,0.70,0.78,0.70,-0.70,-0.45,0.08,0.08,0.08
1041,1.03,0.92,1.04,0.93,-0.93,-0.64,0.09,0.11,0.11
1052,1.30,1.16,1.30,1.16,-1.16,-0.85,0.13,0.14,0.14
1062,1.55,1.38,1.56,1.40,-1.40,-1.04,0.15,0.17,0.17
1073,1.81,1.61,1.82,1.63,-1.63,-1.24,0.18,0.19,0.19
1084,2.11,1.88,2.08,1.85,-1.85,-1.45,0.25,0.22,0.22
1094,2.38,2.12,2.33,2.08,-2.08,-1.63,0.30,0.25,0.25
1105,2.58,2.29,2.58,2.29,-2.29,-1.83,0.28,0.28,0.28
1116,2.81,2.49,2.82,2.50,-2.50,-2.03,0.30,0.31,0.31
1128,3.06,2.71,3.05,2.71,-2.71,-2.25,0.35,0.34,0.34
1139,3.30,2.92,3.28,2.91,-2.91,-2.44,0.39,0.37,0.37
1150,3.49,3.08,3.51,3.11,-3.11,-2.64,0.38,0.40,0.40
1162,3.70,3.26,3.74,3.30,-3.30,-2.85,0.39,0.44,0.44
1173,3.95,3.48,3.96,3.49,-3.49,-3.03,0.45,0.47,0.47
1185,4.23,3.73,4.18,3.68,-3.68,-3.24,0.54,0.50,0.50
1197,4.41,3.87,4.40,3.87,-3.87,-3.44,0.54,0.53,0.53
1209,4.62,4.05,4.61,4.05,-4.05,-3.64,0.57,0.56,0.56
1221,4.80,4.20,4.82,4.22,-4.22,-3.84,0.58,0.60,0.60
1233,5.06,4.43,5.02,4.39,-4.39,-4.03,0.67,0.63,0.63
1246,5.22,4.55,5.21,4.54,-4.54,-4.24,0.67,0.66,0.66
1258,5.36,4.66,5.39,4.70,-4.70,-4.43,0.66,0.70,0.70
1271,5.60,4.86,5.57,4.84,-4.84,-4.63,0.75,0.73,0.73
1283,5.79,5.02,5.75,4.98,-4.98,-4.82,0.80,0.77,0.77
1296,5.93,5.12,5.93,5.13,-5.13,-5.01,0.80,0.80,0.80
1309,6.11,5.27,6.11,5.27,-5.27,-5.21,0.84,0.84,0.84
1322,6.29,5.41,6.29,5.42,-5.42,-5.40,0.87,0.87,0.87
1335,6.46,5.55,6.49,5.58,-5.58,-5.59,0.88,0.91,0.91
1349,6.68,5.73,6.69,5.75,-5.75,-5.79,0.93,0.95,0.95
1362,6.87,5.88,6.91,5.93,-5.93,-5.97,0.94,0.98,0.98
1376,7.11,6.09,7.13,6.11,-6.11,-6.16,0.99,1.02,1.02
1390,7.38,6.32,7.37,6.31,-6.31,-6.35,1.07,1.06,1.06
1404,7.63,6.53,7.60,6.50,-6.50,-6.54,1.12,1.10,1.10
1418,7.85,6.71,7.83,6.70,-6.70,-6.72,1.15,1.13,1.13
1432,8.07,6.89,8.06,6.89,-6.89,-6.90,1.18,1.17,1.17
1446,8.30,7.08,8.28,7.07,-7.07,-7.08,1.23,1.21,1.21
1461,8.50,7.24,8.49,7.23,-7.23,-7.26,1.26,1.25,1.25
1475,8.69,7.39,8.68,7.39,-7.39,-7.43,1.30,1.29,1.29
1490,8.88,7.54,8.87,7.53,-7.53,-7.60,1.34,1.33,1.33
1505,9.06,7.68,9.04,7.67,-7.67,-7.77,1.39,1.37,1.37
1520,9.19,7.77,9.20,7.79,-7.79,-7.93,1.40,1.41,1.41
1535,9.37,7.91,9.36,7.90,-7.90,-8.09,1.46,1.46,1.46
1550,9.51,8.01,9.51,8.01,-8.01,-8.25,1.50,1.50,1.50
1566,9.66,8.12,9.65,8.11,-8.11,-8.41,1.54,1.54,1.54
1582,9.81,8.22,9.80,8.21,-8.21,-8.56,1.59,1.58,1.58
1597,9.92,8.29,9.94,8.31,-8.31,-8.70,1.60,1.63,1.63
1613,10.09,8.42,10.08,8.41,-8.41,-8.83,1.67,1.67,1.67
1629,10.23,8.51,10.23,8.52,-8.52,-8.97,1.71,1.71,1.71
1646,10.39,8.63,10.38,8.62,-8.62,-9.10,1.76,1.76,1.76
1662,10.55,8.74,10.54,8.74,-8.74,-9.21,1.81,1.80,1.80
1679,10.67,8.82,10.71,8.86,-8.86,-9.33,1.81,1.85,1.85
1696,10.87,8.97,10.88,8.99,-8.99,-9.43,1.88,1.90,1.90
1713,11.03,9.08,11.06,9.12,-9.12,-9.53,1.91,1.94,1.94
