frequency,raw,smoothed,error,error_smoothed,equalization,parametric_eq,fixed_band_eq,equalized_raw,equalized_smoothed,target
20.00,-7.39,-7.39,-11.81,-11.81,6.00,6.01,2.78,-1.39,-1.39,4.41
20.20,-7.24,-7.24,-11.69,-11.68,6.00,6.00,2.86,-1.24,-1.24,4.44
20.40,-7.08,-7.08,-11.55,-11.55,6.00,6.00,2.94,-1.08,-1.08,4.47
20.61,-6.93,-6.92,-11.42,-11.42,6.00,6.00,3.02,-0.93,-0.92,4.49
20.81,-6.75,-6.75,-11.27,-11.27,6.00,6.00,3.11,-0.75,-0.75,4.52
21.02,-6.58,-6.58,-11.13,-11.13,6.00,5.99,3.20,-0.58,-0.58,4.55
21.23,-6.41,-6.41,-10.97,-10.98,6.00,5.99,3.29,-0.41,-0.41,4.56
21.44,-6.25,-6.25,-10.82,-10.82,6.00,5.99,3.38,-0.25,-0.25,4.57
21.66,-6.09,-6.08,-10.66,-10.66,6.00,5.99,3.48,-0.09,-0.08,4.58
21.87,-5.92,-5.92,-10.50,-10.51,6.00,5.99,3.58,0.08,0.08,4.58
22.09,-5.77,-5.77,-10.36,-10.35,6.00,5.98,3.68,0.23,0.23,4.59
22.31,-5.62,-5.62,-10.21,-10.21,6.00,5.98,3.79,0.38,0.38,4.59
22.54,-5.49,-5.49,-10.07,-10.07,6.00,5.98,3.89,0.51,0.51,4.59
22.76,-5.35,-5.35,-9.94,-9.93,6.00,5.98,4.01,0.65,0.65,4.59
22.99,-5.22,-5.22,-9.80,-9.80,6.00,5.98,4.12,0.78,0.78,4.57
23.22,-5.09,-5.09,-9.67,-9.67,6.00,5.98,4.23,0.91,0.91,4.57
23.45,-4.96,-4.97,-9.54,-9.54,6.00,5.98,4.35,1.04,1.03,4.57
23.69,-4.85,-4.84,-9.42,-9.41,6.00,5.98,4.47,1.15,1.16,4.57
23.92,-4.72,-4.72,-9.29,-9.30,6.00,5.97,4.60,1.28,1.28,4.57
24.16,-4.60,-4.60,-9.18,-9.18,6.00,5.97,4.72,1.40,1.40,4.58
24.40,-4.49,-4.49,-9.07,-9.06,6.00,5.97,4.85,1.51,1.51,4.58
24.65,-4.37,-4.38,-8.94,-8.95,6.00,5.97,4.98,1.63,1.62,4.57
24.89,-4.26,-4.26,-8.83,-8.83,6.00,5.98,5.11,1.74,1.74,4.57
25.14,-4.16,-4.16,-8.73,-8.72,6.00,5.98,5.25,1.84,1.84,4.57
25.39,-4.05,-4.05,-8.62,-8.62,6.00,5.98,5.38,1.95,1.95,4.57
25.65,-3.95,-3.95,-8.52,-8.52,6.00,5.98,5.52,2.05,2.05,4.57
25.91,-3.85,-3.85,-8.41,-8.41,6.00,5.98,5.65,2.15,2.15,4.55
26.16,-3.76,-3.76,-8.31,-8.31,6.00,5.98,5.79,2.24,2.24,4.55
26.43,-3.66,-3.67,-8.22,-8.22,6.00,5.98,5.92,2.34,2.33,4.55
26.69,-3.57,-3.57,-8.12,-8.12,6.00,5.98,6.06,2.43,2.43,4.55
26.96,-3.48,-3.48,-8.03,-8.03,6.00,5.99,6.19,2.52,2.52,4.55
27.23,-3.39,-3.39,-7.94,-7.94,6.00,5.99,6.32,2.61,2.61,4.55
27.50,-3.30,-3.31,-7.85,-7.85,6.00,5.99,6.44,2.70,2.69,4.55
27.77,-3.23,-3.23,-7.77,-7.77,6.00,6.00,6.57,2.77,2.77,4.54
28.05,-3.15,-3.15,-7.69,-7.68,6.00,6.00,6.69,2.85,2.85,4.53
28.33,-3.08,-3.09,-7.61,-7.61,6.00,6.00,6.80,2.92,2.91,4.52
28.62,-3.02,-3.02,-7.54,-7.54,6.00,6.01,6.90,2.98,2.98,4.52
28.90,-2.96,-2.96,-7.48,-7.48,6.00,6.01,7.00,3.04,3.04,4.52
29.19,-2.90,-2.91,-7.41,-7.42,6.00,6.01,7.09,3.10,3.09,4.51
29.48,-2.85,-2.85,-7.37,-7.36,6.00,6.02,7.17,3.15,3.15,4.52
29.78,-2.79,-2.80,-7.30,-7.30,6.00,6.02,7.25,3.21,3.20,4.50
30.08,-2.74,-2.74,-7.25,-7.24,6.00,6.03,7.30,3.26,3.26,4.50
30.38,-2.68,-2.69,-7.17,-7.18,6.00,6.03,7.36,3.32,3.31,4.49
30.68,-2.63,-2.63,-7.12,-7.12,6.00,6.03,7.39,3.37,3.37,4.49
30.99,-2.58,-2.59,-7.06,-7.06,6.00,6.04,7.42,3.42,3.41,4.48
31.30,-2.54,-2.54,-7.02,-7.02,6.00,6.04,7.43,3.46,3.46,4.47
31.61,-2.50,-2.50,-6.97,-6.97,6.00,6.05,7.44,3.50,3.50,4.47
31.93,-2.46,-2.47,-6.92,-6.93,6.00,6.05,7.43,3.54,3.53,4.46
32.24,-2.43,-2.43,-6.88,-6.88,6.00,6.05,7.41,3.57,3.57,4.45
32.57,-2.40,-2.40,-6.85,-6.85,6.00,6.06,7.37,3.60,3.60,4.44
32.89,-2.37,-2.37,-6.81,-6.81,6.00,6.06,7.33,3.63,3.63,4.44
33.22,-2.34,-2.34,-6.77,-6.77,6.00,6.06,7.28,3.66,3.66,4.43
33.55,-2.30,-2.31,-6.73,-6.73,6.00,6.06,7.22,3.70,3.69,4.43
33.89,-2.27,-2.27,-6.69,-6.69,6.00,6.06,7.15,3.73,3.73,4.41
34.23,-2.23,-2.24,-6.64,-6.64,6.00,6.06,7.07,3.77,3.76,4.41
34.57,-2.20,-2.20,-6.60,-6.60,6.00,6.06,6.98,3.80,3.80,4.40
34.92,-2.17,-2.17,-6.56,-6.56,6.00,6.06,6.89,3.83,3.83,4.38
35.27,-2.14,-2.14,-6.52,-6.52,6.00,6.06,6.79,3.86,3.86,4.38
35.62,-2.11,-2.11,-6.48,-6.48,6.00,6.06,6.69,3.89,3.89,4.37
35.97,-2.08,-2.08,-6.44,-6.44,6.00,6.05,6.59,3.92,3.92,4.35
36.33,-2.05,-2.06,-6.40,-6.40,6.00,6.05,6.48,3.95,3.94,4.35
36.70,-2.03,-2.03,-6.37,-6.37,6.00,6.04,6.37,3.97,3.97,4.34
37.06,-2.00,-2.00,-6.32,-6.33,6.00,6.03,6.26,4.00,4.00,4.32
37.43,-1.98,-1.98,-6.30,-6.29,6.00,6.02,6.15,4.02,4.02,4.32
37.81,-1.95,-1.96,-6.26,-6.26,6.00,6.01,6.04,4.05,4.05,4.30
38.19,-1.93,-1.93,-6.22,-6.22,6.01,6.00,5.94,4.07,4.07,4.29
38.57,-1.90,-1.90,-6.19,-6.18,6.01,5.98,5.83,4.10,4.10,4.28
38.95,-1.87,-1.87,-6.14,-6.14,6.01,5.97,5.72,4.13,4.13,4.27
39.34,-1.84,-1.84,-6.10,-6.10,6.00,5.95,5.61,4.16,4.16,4.25
39.74,-1.81,-1.81,-6.05,-6.05,5.99,5.93,5.51,4.18,4.18,4.24
40.14,-1.78,-1.78,-6.02,-6.01,5.98,5.90,5.41,4.19,4.19,4.23
40.54,-1.75,-1.75,-5.97,-5.97,5.96,5.88,5.31,4.20,4.20,4.22
40.94,-1.72,-1.72,-5.94,-5.93,5.93,5.85,5.22,4.21,4.21,4.21
41.35,-1.69,-1.69,-5.89,-5.89,5.90,5.82,5.13,4.21,4.21,4.20
41.76,-1.66,-1.66,-5.85,-5.85,5.86,5.79,5.04,4.20,4.20,4.19
42.18,-1.63,-1.63,-5.82,-5.81,5.82,5.75,4.95,4.19,4.19,4.18
42.60,-1.60,-1.60,-5.77,-5.78,5.77,5.71,4.87,4.17,4.17,4.17
43.03,-1.57,-1.57,-5.73,-5.73,5.72,5.67,4.79,4.15,4.15,4.16
43.46,-1.54,-1.54,-5.69,-5.68,5.67,5.63,4.72,4.13,4.13,4.14
43.90,-1.50,-1.51,-5.62,-5.63,5.62,5.58,4.65,4.12,4.12,4.12
44.33,-1.47,-1.47,-5.57,-5.57,5.57,5.54,4.58,4.10,4.10,4.10
44.78,-1.43,-1.43,-5.51,-5.51,5.52,5.49,4.51,4.08,4.08,4.08
45.23,-1.39,-1.39,-5.45,-5.45,5.46,5.44,4.45,4.07,4.07,4.06
45.68,-1.35,-1.36,-5.40,-5.40,5.40,5.38,4.39,4.05,4.05,4.04
46.13,-1.32,-1.32,-5.35,-5.35,5.35,5.32,4.34,4.03,4.03,4.02
46.60,-1.28,-1.28,-5.30,-5.29,5.29,5.27,4.29,4.01,4.01,4.01
47.06,-1.24,-1.24,-5.24,-5.24,5.23,5.21,4.24,3.99,3.99,3.99
47.53,-1.19,-1.20,-5.17,-5.18,5.17,5.14,4.20,3.98,3.98,3.97
48.01,-1.15,-1.15,-5.12,-5.11,5.11,5.08,4.15,3.95,3.95,3.96
48.49,-1.11,-1.11,-5.05,-5.05,5.04,5.01,4.12,3.93,3.93,3.93
48.97,-1.07,-1.07,-4.98,-4.97,4.97,4.95,4.08,3.90,3.90,3.90
49.46,-1.02,-1.02,-4.89,-4.89,4.90,4.88,4.05,3.88,3.87,3.87
49.96,-0.97,-0.97,-4.81,-4.82,4.83,4.81,4.02,3.85,3.85,3.84
50.46,-0.92,-0.92,-4.75,-4.75,4.75,4.73,3.99,3.83,3.83,3.83
50.96,-0.87,-0.87,-4.68,-4.67,4.68,4.66,3.96,3.80,3.80,3.80
51.47,-0.82,-0.82,-4.59,-4.60,4.60,4.59,3.94,3.78,3.78,3.77
51.99,-0.77,-0.77,-4.52,-4.53,4.52,4.51,3.91,3.75,3.75,3.75
52.51,-0.72,-0.72,-4.46,-4.45,4.45,4.44,3.89,3.72,3.73,3.73
53.03,-0.66,-0.66,-4.37,-4.37,4.37,4.36,3.87,3.71,3.70,3.71
53.56,-0.60,-0.61,-4.29,-4.29,4.29,4.28,3.85,3.69,3.68,3.68
54.10,-0.55,-0.55,-4.21,-4.21,4.21,4.21,3.83,3.66,3.66,3.66
54.64,-0.49,-0.49,-4.13,-4.12,4.13,4.13,3.81,3.63,3.64,3.63
55.18,-0.43,-0.43,-4.04,-4.04,4.04,4.05,3.79,3.61,3.61,3.61
55.74,-0.37,-0.38,-3.95,-3.96,3.96,3.97,3.77,3.59,3.58,3.58
56.29,-0.32,-0.32,-3.88,-3.88,3.88,3.89,3.75,3.55,3.56,3.56
56.86,-0.26,-0.26,-3.80,-3.80,3.80,3.81,3.73,3.53,3.53,3.53
57.42,-0.20,-0.20,-3.71,-3.71,3.71,3.73,3.71,3.51,3.51,3.51
58.00,-0.14,-0.14,-3.63,-3.63,3.63,3.66,3.69,3.49,3.49,3.49
58.58,-0.08,-0.08,-3.55,-3.55,3.55,3.58,3.66,3.47,3.47,3.47
59.16,-0.02,-0.02,-3.47,-3.47,3.47,3.50,3.63,3.44,3.44,3.45
59.76,0.04,0.03,-3.39,-3.39,3.38,3.42,3.61,3.42,3.42,3.42
60.35,0.09,0.09,-3.31,-3.30,3.30,3.34,3.57,3.39,3.39,3.39
60.96,0.15,0.15,-3.22,-3.22,3.21,3.26,3.54,3.36,3.36,3.37
61.57,0.21,0.20,-3.12,-3.13,3.13,3.19,3.50,3.33,3.33,3.33
62.18,0.26,0.26,-3.04,-3.04,3.04,3.11,3.46,3.30,3.30,3.29
62.80,0.31,0.31,-2.96,-2.95,2.96,3.03,3.42,3.27,3.27,3.27
63.43,0.37,0.36,-2.87,-2.88,2.88,2.96,3.37,3.25,3.24,3.23
64.07,0.41,0.41,-2.80,-2.80,2.80,2.88,3.32,3.21,3.21,3.21
64.71,0.46,0.46,-2.72,-2.72,2.72,2.81,3.27,3.18,3.18,3.18
65.35,0.51,0.50,-2.65,-2.65,2.65,2.73,3.21,3.15,3.15,3.15
66.01,0.55,0.55,-2.58,-2.57,2.57,2.66,3.15,3.12,3.12,3.13
66.67,0.60,0.59,-2.50,-2.50,2.50,2.58,3.09,3.10,3.09,3.10
67.33,0.64,0.64,-2.43,-2.43,2.43,2.51,3.03,3.07,3.07,3.07
68.01,0.68,0.68,-2.36,-2.36,2.36,2.44,2.96,3.04,3.04,3.04
68.69,0.72,0.72,-2.29,-2.29,2.29,2.37,2.89,3.01,3.01,3.01
69.37,0.76,0.75,-2.22,-2.22,2.22,2.30,2.82,2.98,2.98,2.97
70.07,0.79,0.79,-2.15,-2.16,2.16,2.22,2.75,2.94,2.95,2.94
70.77,0.82,0.82,-2.10,-2.10,2.09,2.15,2.67,2.91,2.91,2.92
71.48,0.85,0.85,-2.04,-2.04,2.03,2.08,2.60,2.88,2.88,2.88
72.19,0.88,0.88,-1.97,-1.97,1.97,2.02,2.52,2.84,2.84,2.85
72.91,0.91,0.91,-1.90,-1.90,1.90,1.95,2.44,2.81,2.81,2.81
73.64,0.94,0.94,-1.84,-1.84,1.84,1.88,2.36,2.78,2.78,2.77
74.38,0.97,0.96,-1.78,-1.78,1.78,1.81,2.29,2.75,2.75,2.75
75.12,0.99,0.99,-1.72,-1.72,1.72,1.75,2.21,2.71,2.71,2.71
75.87,1.02,1.01,-1.66,-1.67,1.67,1.68,2.13,2.68,2.68,2.68
76.63,1.04,1.04,-1.61,-1.61,1.61,1.61,2.04,2.65,2.65,2.65
77.40,1.06,1.06,-1.56,-1.56,1.56,1.55,1.96,2.61,2.61,2.62
78.17,1.08,1.08,-1.50,-1.51,1.50,1.48,1.88,2.58,2.58,2.58
78.95,1.10,1.10,-1.46,-1.45,1.45,1.42,1.80,2.55,2.55,2.55
79.74,1.12,1.12,-1.40,-1.40,1.40,1.36,1.72,2.52,2.52,2.52
80.54,1.14,1.14,-1.35,-1.35,1.35,1.29,1.64,2.48,2.48,2.49
81.35,1.16,1.16,-1.29,-1.29,1.29,1.23,1.56,2.45,2.45,2.45
82.16,1.18,1.18,-1.24,-1.24,1.24,1.17,1.49,2.42,2.42,2.42
82.98,1.20,1.19,-1.19,-1.19,1.19,1.11,1.41,2.39,2.38,2.39
83.81,1.21,1.21,-1.13,-1.13,1.14,1.05,1.33,2.34,2.35,2.34
84.65,1.23,1.22,-1.08,-1.08,1.09,0.99,1.25,2.31,2.31,2.30
85.50,1.24,1.24,-1.04,-1.03,1.04,0.93,1.18,2.27,2.27,2.28
86.35,1.25,1.25,-0.99,-0.99,0.99,0.87,1.10,2.24,2.24,2.24
87.22,1.26,1.26,-0.94,-0.94,0.94,0.81,1.03,2.20,2.20,2.20
88.09,1.27,1.27,-0.89,-0.89,0.89,0.76,0.95,2.16,2.16,2.16
88.97,1.28,1.27,-0.85,-0.85,0.84,0.70,0.88,2.12,2.12,2.13
89.86,1.28,1.28,-0.81,-0.80,0.80,0.64,0.80,2.07,2.08,2.08
90.76,1.29,1.29,-0.74,-0.75,0.75,0.59,0.73,2.04,2.04,2.03
91.66,1.30,1.29,-0.70,-0.70,0.70,0.53,0.66,2.00,2.00,2.00
92.58,1.30,1.30,-0.65,-0.65,0.65,0.48,0.59,1.95,1.96,1.95
93.51,1.31,1.30,-0.61,-0.61,0.61,0.42,0.52,1.91,1.91,1.91
94.44,1.31,1.31,-0.56,-0.56,0.56,0.37,0.45,1.86,1.86,1.87
95.39,1.31,1.31,-0.52,-0.51,0.51,0.32,0.38,1.82,1.82,1.82
96.34,1.31,1.31,-0.46,-0.46,0.46,0.27,0.31,1.77,1.77,1.77
97.30,1.32,1.31,-0.41,-0.41,0.41,0.21,0.24,1.73,1.73,1.72
98.28,1.32,1.32,-0.36,-0.36,0.36,0.16,0.17,1.68,1.68,1.68
99.26,1.32,1.32,-0.32,-0.31,0.32,0.11,0.11,1.63,1.64,1.63
100.25,1.32,1.32,-0.27,-0.27,0.27,0.06,0.04,1.59,1.59,1.59
101.25,1.32,1.31,-0.22,-0.23,0.23,0.02,-0.02,1.54,1.54,1.54
102.27,1.31,1.31,-0.19,-0.18,0.18,-0.03,-0.09,1.49,1.49,1.49
103.29,1.31,1.31,-0.13,-0.14,0.14,-0.08,-0.15,1.45,1.45,1.44
104.32,1.31,1.30,-0.10,-0.10,0.10,-0.13,-0.21,1.40,1.40,1.40
105.37,1.30,1.30,-0.06,-0.05,0.06,-0.17,-0.28,1.35,1.36,1.36
106.42,1.30,1.29,-0.01,-0.02,0.01,-0.22,-0.34,1.31,1.31,1.31
107.48,1.29,1.29,0.02,0.03,-0.03,-0.26,-0.39,1.26,1.26,1.26
108.56,1.28,1.28,0.07,0.07,-0.07,-0.31,-0.45,1.21,1.21,1.21
109.64,1.28,1.27,0.12,0.11,-0.11,-0.35,-0.51,1.17,1.16,1.16
110.74,1.27,1.27,0.15,0.15,-0.15,-0.39,-0.56,1.11,1.11,1.11
111.85,1.26,1.26,0.19,0.20,-0.20,-0.43,-0.61,1.06,1.06,1.07
112.97,1.26,1.25,0.25,0.24,-0.24,-0.47,-0.66,1.01,1.01,1.00
114.10,1.25,1.25,0.29,0.29,-0.29,-0.51,-0.71,0.96,0.96,0.96
115.24,1.24,1.24,0.33,0.34,-0.34,-0.55,-0.76,0.90,0.90,0.90
116.39,1.24,1.23,0.39,0.38,-0.38,-0.59,-0.80,0.85,0.85,0.85
117.55,1.23,1.23,0.43,0.43,-0.43,-0.62,-0.84,0.80,0.80,0.80
118.73,1.23,1.23,0.49,0.48,-0.48,-0.66,-0.88,0.75,0.75,0.74
119.92,1.22,1.22,0.52,0.53,-0.52,-0.70,-0.92,0.70,0.70,0.70
121.12,1.22,1.21,0.57,0.57,-0.57,-0.73,-0.95,0.65,0.65,0.65
122.33,1.21,1.21,0.61,0.61,-0.61,-0.76,-0.98,0.60,0.60,0.59
123.55,1.20,1.20,0.65,0.65,-0.66,-0.80,-1.01,0.54,0.55,0.55
124.79,1.20,1.19,0.70,0.69,-0.70,-0.83,-1.03,0.50,0.49,0.50
126.03,1.19,1.19,0.74,0.74,-0.74,-0.86,-1.06,0.44,0.45,0.45
127.29,1.19,1.18,0.79,0.79,-0.79,-0.89,-1.08,0.40,0.40,0.40
128.57,1.18,1.18,0.84,0.83,-0.83,-0.92,-1.09,0.35,0.35,0.34
129.85,1.17,1.17,0.88,0.88,-0.87,-0.95,-1.11,0.29,0.30,0.29
131.15,1.17,1.16,0.92,0.92,-0.92,-0.98,-1.12,0.25,0.25,0.24
132.46,1.16,1.16,0.96,0.96,-0.96,-1.00,-1.13,0.20,0.20,0.20
133.79,1.15,1.15,0.99,0.99,-1.00,-1.03,-1.14,0.15,0.15,0.16
135.12,1.14,1.14,1.03,1.03,-1.03,-1.05,-1.14,0.11,0.11,0.10
136.48,1.13,1.13,1.06,1.06,-1.06,-1.08,-1.14,0.06,0.06,0.07
137.84,1.12,1.12,1.09,1.10,-1.10,-1.10,-1.15,0.02,0.02,0.02
139.22,1.11,1.11,1.14,1.13,-1.13,-1.12,-1.15,-0.02,-0.02,-0.03
140.61,1.10,1.09,1.17,1.16,-1.16,-1.15,-1.14,-0.06,-0.06,-0.07
142.02,1.08,1.08,1.17,1.18,-1.18,-1.17,-1.14,-0.11,-0.10,-0.09
143.44,1.07,1.07,1.20,1.21,-1.21,-1.19,-1.14,-0.14,-0.14,-0.14
144.87,1.06,1.06,1.23,1.23,-1.23,-1.21,-1.13,-0.18,-0.18,-0.18
146.32,1.05,1.04,1.26,1.26,-1.26,-1.23,-1.12,-0.21,-0.21,-0.22
147.78,1.03,1.03,1.27,1.28,-1.28,-1.25,-1.12,-0.25,-0.25,-0.24
149.26,1.02,1.01,1.30,1.30,-1.30,-1.26,-1.11,-0.28,-0.28,-0.28
150.75,1.00,1.00,1.33,1.32,-1.32,-1.28,-1.10,-0.32,-0.32,-0.33
152.26,0.98,0.98,1.34,1.34,-1.34,-1.30,-1.10,-0.36,-0.36,-0.37
153.78,0.96,0.96,1.36,1.36,-1.36,-1.31,-1.09,-0.41,-0.41,-0.40
155.32,0.94,0.94,1.38,1.38,-1.38,-1.33,-1.08,-0.45,-0.45,-0.45
156.88,0.92,0.92,1.40,1.40,-1.40,-1.34,-1.07,-0.49,-0.49,-0.48
158.44,0.90,0.90,1.42,1.42,-1.42,-1.36,-1.07,-0.53,-0.52,-0.52
160.03,0.88,0.88,1.44,1.44,-1.44,-1.37,-1.06,-0.56,-0.56,-0.56
161.63,0.86,0.85,1.46,1.46,-1.46,-1.39,-1.05,-0.60,-0.60,-0.61
163.24,0.83,0.83,1.47,1.47,-1.47,-1.40,-1.05,-0.64,-0.64,-0.65
164.88,0.81,0.80,1.48,1.48,-1.48,-1.41,-1.04,-0.68,-0.68,-0.68
166.53,0.78,0.78,1.49,1.49,-1.49,-1.42,-1.04,-0.72,-0.72,-0.72
168.19,0.75,0.75,1.50,1.50,-1.50,-1.43,-1.04,-0.76,-0.75,-0.75
169.87,0.72,0.72,1.51,1.51,-1.51,-1.45,-1.04,-0.79,-0.79,-0.79
171.57,0.69,0.69,1.52,1.51,-1.52,-1.46,-1.03,-0.83,-0.83,-0.83
173.29,0.66,0.66,1.52,1.52,-1.53,-1.47,-1.03,-0.87,-0.87,-0.87
175.02,0.63,0.63,1.53,1.53,-1.53,-1.47,-1.03,-0.91,-0.91,-0.90
176.77,0.60,0.60,1.54,1.54,-1.54,-1.48,-1.03,-0.95,-0.95,-0.95
178.54,0.57,0.57,1.56,1.55,-1.55,-1.49,-1.04,-0.98,-0.98,-0.99
180.32,0.54,0.54,1.56,1.56,-1.56,-1.50,-1.04,-1.02,-1.02,-1.02
182.13,0.51,0.51,1.56,1.57,-1.57,-1.50,-1.04,-1.06,-1.06,-1.06
183.95,0.48,0.48,1.57,1.57,-1.57,-1.51,-1.05,-1.10,-1.09,-1.10
185.79,0.45,0.45,1.58,1.58,-1.58,-1.51,-1.05,-1.13,-1.13,-1.13
187.65,0.42,0.41,1.59,1.58,-1.58,-1.51,-1.06,-1.16,-1.16,-1.17
189.52,0.38,0.38,1.58,1.58,-1.57,-1.52,-1.07,-1.20,-1.20,-1.20
191.42,0.34,0.34,1.57,1.57,-1.57,-1.52,-1.07,-1.23,-1.23,-1.23
193.33,0.31,0.30,1.56,1.56,-1.56,-1.51,-1.08,-1.26,-1.26,-1.26
195.27,0.27,0.27,1.55,1.55,-1.55,-1.51,-1.09,-1.29,-1.29,-1.29
197.22,0.23,0.23,1.54,1.55,-1.54,-1.50,-1.10,-1.32,-1.31,-1.31
199.19,0.19,0.19,1.54,1.53,-1.53,-1.50,-1.11,-1.34,-1.34,-1.35
201.18,0.15,0.15,1.51,1.51,-1.51,-1.49,-1.12,-1.37,-1.37,-1.37
203.19,0.11,0.11,1.49,1.49,-1.50,-1.48,-1.14,-1.39,-1.39,-1.38
205.23,0.07,0.07,1.48,1.47,-1.48,-1.47,-1.15,-1.41,-1.41,-1.41
207.28,0.04,0.03,1.45,1.46,-1.46,-1.45,-1.16,-1.42,-1.42,-1.41
209.35,-0.00,-0.00,1.44,1.44,-1.43,-1.44,-1.17,-1.44,-1.44,-1.44
211.44,-0.04,-0.04,1.42,1.41,-1.41,-1.42,-1.18,-1.45,-1.45,-1.46
213.56,-0.08,-0.08,1.38,1.38,-1.38,-1.40,-1.20,-1.46,-1.47,-1.47
215.69,-0.12,-0.12,1.35,1.35,-1.35,-1.38,-1.21,-1.48,-1.48,-1.47
217.85,-0.16,-0.16,1.32,1.32,-1.32,-1.36,-1.22,-1.49,-1.49,-1.48
220.03,-0.19,-0.20,1.30,1.30,-1.29,-1.34,-1.23,-1.49,-1.49,-1.49
222.23,-0.23,-0.23,1.27,1.27,-1.26,-1.32,-1.24,-1.50,-1.49,-1.51
224.45,-0.26,-0.26,1.24,1.24,-1.24,-1.30,-1.25,-1.50,-1.50,-1.50
226.70,-0.29,-0.30,1.21,1.21,-1.21,-1.27,-1.26,-1.50,-1.51,-1.50
228.96,-0.32,-0.32,1.18,1.18,-1.19,-1.25,-1.26,-1.51,-1.51,-1.50
231.25,-0.33,-0.33,1.16,1.16,-1.17,-1.22,-1.27,-1.50,-1.51,-1.49
233.57,-0.34,-0.35,1.15,1.15,-1.16,-1.20,-1.27,-1.50,-1.50,-1.49
235.90,-0.35,-0.35,1.14,1.14,-1.14,-1.17,-1.27,-1.50,-1.49,-1.49
238.26,-0.35,-0.35,1.14,1.13,-1.13,-1.15,-1.28,-1.48,-1.48,-1.49
240.64,-0.35,-0.36,1.13,1.12,-1.12,-1.12,-1.27,-1.47,-1.47,-1.48
243.05,-0.36,-0.36,1.10,1.11,-1.10,-1.10,-1.27,-1.46,-1.46,-1.47
245.48,-0.37,-0.37,1.08,1.08,-1.08,-1.07,-1.27,-1.45,-1.45,-1.46
247.93,-0.39,-0.40,1.05,1.05,-1.04,-1.05,-1.26,-1.43,-1.44,-1.44
250.41,-0.42,-0.42,1.02,1.01,-1.00,-1.02,-1.25,-1.42,-1.42,-1.44
252.92,-0.46,-0.46,0.96,0.96,-0.95,-1.00,-1.24,-1.41,-1.41,-1.42
255.45,-0.50,-0.51,0.89,0.90,-0.89,-0.97,-1.23,-1.39,-1.39,-1.40
258.00,-0.55,-0.55,0.83,0.83,-0.83,-0.95,-1.22,-1.38,-1.38,-1.38
260.58,-0.60,-0.60,0.77,0.77,-0.77,-0.92,-1.20,-1.37,-1.37,-1.37
263.19,-0.64,-0.65,0.70,0.71,-0.71,-0.90,-1.18,-1.35,-1.36,-1.35
265.82,-0.68,-0.68,0.65,0.65,-0.66,-0.87,-1.16,-1.35,-1.34,-1.33
268.48,-0.69,-0.69,0.62,0.62,-0.63,-0.85,-1.14,-1.32,-1.33,-1.31
271.16,-0.69,-0.69,0.59,0.60,-0.62,-0.82,-1.12,-1.31,-1.31,-1.29
273.87,-0.67,-0.67,0.60,0.60,-0.62,-0.80,-1.09,-1.29,-1.29,-1.27
276.61,-0.63,-0.63,0.61,0.62,-0.63,-0.77,-1.06,-1.27,-1.27,-1.25
279.38,-0.57,-0.58,0.66,0.66,-0.66,-0.75,-1.04,-1.24,-1.24,-1.23
282.17,-0.51,-0.51,0.70,0.71,-0.71,-0.72,-1.01,-1.22,-1.21,-1.22
284.99,-0.43,-0.44,0.76,0.76,-0.75,-0.70,-0.98,-1.19,-1.19,-1.19
287.84,-0.36,-0.37,0.81,0.81,-0.80,-0.67,-0.95,-1.16,-1.17,-1.18
290.72,-0.30,-0.30,0.85,0.85,-0.84,-0.65,-0.91,-1.15,-1.14,-1.15
293.63,-0.24,-0.25,0.89,0.89,-0.88,-0.62,-0.88,-1.12,-1.12,-1.14
296.57,-0.20,-0.20,0.91,0.91,-0.90,-0.60,-0.85,-1.10,-1.10,-1.11
299.53,-0.17,-0.17,0.92,0.92,-0.91,-0.57,-0.81,-1.08,-1.08,-1.09
302.53,-0.15,-0.16,0.92,0.91,-0.90,-0.54,-0.78,-1.05,-1.06,-1.08
305.55,-0.16,-0.16,0.88,0.89,-0.88,-0.52,-0.74,-1.04,-1.04,-1.04
308.61,-0.17,-0.17,0.85,0.85,-0.85,-0.49,-0.71,-1.02,-1.02,-1.03
311.69,-0.19,-0.19,0.81,0.80,-0.81,-0.46,-0.67,-1.00,-1.00,-1.00
314.81,-0.21,-0.22,0.75,0.75,-0.76,-0.43,-0.64,-0.97,-0.98,-0.96
317.96,-0.25,-0.25,0.69,0.70,-0.70,-0.40,-0.60,-0.96,-0.95,-0.95
321.14,-0.28,-0.28,0.65,0.64,-0.64,-0.38,-0.57,-0.93,-0.93,-0.93
324.35,-0.32,-0.33,0.59,0.58,-0.58,-0.35,-0.53,-0.90,-0.91,-0.91
327.59,-0.37,-0.37,0.51,0.52,-0.51,-0.32,-0.50,-0.89,-0.89,-0.88
330.87,-0.42,-0.42,0.44,0.45,-0.45,-0.28,-0.46,-0.87,-0.87,-0.87
334.18,-0.47,-0.47,0.38,0.38,-0.38,-0.25,-0.43,-0.85,-0.85,-0.85
337.52,-0.52,-0.52,0.31,0.31,-0.30,-0.22,-0.39,-0.83,-0.83,-0.83
340.90,-0.57,-0.58,0.23,0.23,-0.23,-0.19,-0.36,-0.80,-0.81,-0.81
344.30,-0.63,-0.63,0.15,0.16,-0.16,-0.15,-0.32,-0.79,-0.79,-0.79
347.75,-0.68,-0.68,0.09,0.09,-0.09,-0.11,-0.29,-0.77,-0.77,-0.77
351.23,-0.73,-0.73,0.02,0.02,-0.02,-0.08,-0.26,-0.75,-0.75,-0.75
354.74,-0.78,-0.78,-0.05,-0.05,0.04,-0.04,-0.22,-0.74,-0.74,-0.73
358.28,-0.82,-0.82,-0.11,-0.11,0.10,-0.00,-0.19,-0.72,-0.72,-0.72
361.87,-0.86,-0.87,-0.16,-0.16,0.16,0.04,-0.16,-0.71,-0.71,-0.70
365.49,-0.90,-0.90,-0.21,-0.21,0.21,0.08,-0.12,-0.70,-0.69,-0.69
369.14,-0.93,-0.93,-0.25,-0.25,0.25,0.12,-0.09,-0.68,-0.68,-0.68
372.83,-0.95,-0.96,-0.29,-0.29,0.29,0.16,-0.06,-0.66,-0.66,-0.66
376.56,-0.98,-0.98,-0.33,-0.33,0.33,0.20,-0.02,-0.65,-0.65,-0.66
380.33,-1.00,-1.00,-0.38,-0.37,0.37,0.24,0.01,-0.64,-0.64,-0.63
384.13,-1.02,-1.02,-0.40,-0.40,0.40,0.28,0.04,-0.62,-0.62,-0.62
387.97,-1.04,-1.04,-0.43,-0.43,0.43,0.33,0.07,-0.61,-0.61,-0.61
391.85,-1.05,-1.06,-0.45,-0.46,0.46,0.37,0.10,-0.59,-0.60,-0.60
395.77,-1.07,-1.07,-0.49,-0.49,0.49,0.40,0.14,-0.58,-0.59,-0.58
399.73,-1.09,-1.09,-0.52,-0.51,0.52,0.44,0.17,-0.58,-0.57,-0.58
403.72,-1.10,-1.10,-0.54,-0.54,0.54,0.47,0.20,-0.56,-0.56,-0.57
407.76,-1.11,-1.12,-0.56,-0.56,0.56,0.51,0.23,-0.55,-0.55,-0.56
411.84,-1.12,-1.12,-0.58,-0.58,0.58,0.53,0.26,-0.54,-0.54,-0.54
415.96,-1.13,-1.13,-0.60,-0.60,0.60,0.56,0.29,-0.54,-0.53,-0.53
420.12,-1.13,-1.13,-0.61,-0.61,0.61,0.58,0.31,-0.52,-0.53,-0.52
424.32,-1.13,-1.13,-0.62,-0.62,0.62,0.59,0.34,-0.51,-0.52,-0.51
428.56,-1.13,-1.13,-0.63,-0.63,0.63,0.60,0.37,-0.51,-0.50,-0.50
432.85,-1.12,-1.12,-0.63,-0.63,0.63,0.61,0.40,-0.49,-0.49,-0.49
437.18,-1.11,-1.12,-0.63,-0.63,0.63,0.61,0.42,-0.48,-0.48,-0.49
441.55,-1.10,-1.10,-0.64,-0.63,0.63,0.61,0.45,-0.47,-0.47,-0.47
445.96,-1.09,-1.09,-0.64,-0.63,0.63,0.61,0.47,-0.46,-0.46,-0.46
450.42,-1.07,-1.08,-0.62,-0.63,0.63,0.60,0.50,-0.44,-0.45,-0.45
454.93,-1.06,-1.06,-0.63,-0.63,0.63,0.59,0.52,-0.43,-0.43,-0.43
459.48,-1.04,-1.04,-0.62,-0.62,0.63,0.58,0.54,-0.41,-0.41,-0.42
464.07,-1.02,-1.02,-0.62,-0.62,0.63,0.56,0.56,-0.40,-0.40,-0.40
468.71,-1.00,-1.01,-0.62,-0.62,0.62,0.54,0.58,-0.38,-0.38,-0.38
473.40,-0.99,-0.99,-0.62,-0.62,0.62,0.53,0.60,-0.37,-0.37,-0.37
478.13,-0.97,-0.97,-0.62,-0.62,0.61,0.51,0.61,-0.36,-0.36,-0.35
482.91,-0.95,-0.95,-0.61,-0.61,0.61,0.49,0.63,-0.35,-0.34,-0.34
487.74,-0.92,-0.92,-0.60,-0.60,0.60,0.48,0.64,-0.33,-0.33,-0.32
492.62,-0.89,-0.89,-0.59,-0.59,0.58,0.46,0.65,-0.31,-0.31,-0.31
