frequency,raw,error,smoothed,error_smoothed,equalization,parametric_eq,fixed_band_eq,equalized_raw,equalized_smoothed,target
20.00,-28.63,-29.50,-28.60,-29.47,6.00,4.92,2.69,-22.63,-22.60,0.87
20.20,-28.86,-29.73,-28.89,-29.75,6.00,4.96,2.77,-22.86,-22.89,0.87
20.40,-29.18,-30.04,-29.21,-30.07,6.00,4.99,2.85,-23.18,-23.21,0.87
20.61,-29.55,-30.41,-29.56,-30.43,6.00,5.03,2.93,-23.55,-23.56,0.87
20.81,-30.00,-30.85,-29.98,-30.84,6.00,5.06,3.01,-24.00,-23.98,0.86
21.02,-30.41,-31.27,-30.41,-31.27,6.00,5.10,3.10,-24.41,-24.41,0.86
21.23,-30.81,-31.67,-30.81,-31.67,6.00,5.13,3.18,-24.81,-24.81,0.86
21.44,-31.17,-32.03,-31.16,-32.02,6.00,5.16,3.27,-25.17,-25.16,0.87
21.66,-31.47,-32.33,-31.47,-32.33,6.00,5.20,3.37,-25.47,-25.47,0.86
21.87,-31.76,-32.61,-31.75,-32.60,6.00,5.23,3.46,-25.76,-25.75,0.86
22.09,-32.00,-32.84,-32.00,-32.85,6.00,5.26,3.56,-26.00,-26.00,0.85
22.31,-32.25,-33.09,-32.25,-33.10,6.00,5.30,3.66,-26.25,-26.25,0.85
22.54,-32.51,-33.35,-32.51,-33.35,6.00,5.33,3.76,-26.51,-26.51,0.84
22.76,-32.78,-33.62,-32.79,-33.63,6.00,5.36,3.87,-26.78,-26.79,0.84
22.99,-33.07,-33.91,-33.08,-33.91,6.00,5.39,3.98,-27.07,-27.08,0.84
23.22,-33.35,-34.18,-33.36,-34.19,6.00,5.42,4.09,-27.35,-27.36,0.83
23.45,-33.60,-34.43,-33.59,-34.41,6.00,5.45,4.20,-27.60,-27.59,0.83
23.69,-33.75,-34.57,-33.75,-34.56,6.00,5.49,4.32,-27.75,-27.75,0.82
23.92,-33.79,-34.60,-33.79,-34.60,6.00,5.52,4.43,-27.79,-27.79,0.81
24.16,-33.73,-34.54,-33.71,-34.52,6.00,5.55,4.55,-27.73,-27.71,0.81
24.40,-33.54,-34.35,-33.53,-34.34,6.00,5.58,4.68,-27.54,-27.53,0.81
24.65,-33.27,-34.08,-33.27,-34.08,6.00,5.61,4.80,-27.27,-27.27,0.81
24.89,-32.99,-33.80,-33.00,-33.81,6.00,5.64,4.93,-26.99,-27.00,0.81
25.14,-32.77,-33.58,-32.79,-33.59,6.00,5.67,5.05,-26.77,-26.79,0.81
25.39,-32.65,-33.45,-32.65,-33.45,6.00,5.70,5.18,-26.65,-26.65,0.80
25.65,-32.61,-33.41,-32.62,-33.42,6.00,5.72,5.31,-26.61,-26.62,0.80
25.91,-32.66,-33.46,-32.67,-33.48,6.00,5.75,5.44,-26.66,-26.67,0.80
26.16,-32.78,-33.59,-32.79,-33.59,6.00,5.78,5.57,-26.78,-26.79,0.81
26.43,-32.89,-33.70,-32.90,-33.71,6.00,5.81,5.70,-26.89,-26.90,0.81
26.69,-32.96,-33.77,-32.93,-33.74,6.00,5.84,5.82,-26.96,-26.93,0.81
26.96,-32.85,-33.66,-32.85,-33.65,6.00,5.86,5.95,-26.85,-26.85,0.81
27.23,-32.59,-33.39,-32.59,-33.40,6.00,5.89,6.07,-26.59,-26.59,0.81
27.50,-32.19,-33.00,-32.15,-32.96,6.00,5.92,6.19,-26.19,-26.15,0.81
27.77,-31.57,-32.39,-31.58,-32.39,6.00,5.94,6.31,-25.57,-25.58,0.82
28.05,-30.93,-31.74,-30.93,-31.74,6.00,5.97,6.43,-24.93,-24.93,0.81
28.33,-30.29,-31.10,-30.31,-31.11,6.00,5.99,6.53,-24.29,-24.31,0.81
28.62,-29.79,-30.59,-29.81,-30.61,6.00,6.02,6.64,-23.79,-23.81,0.80
28.90,-29.47,-30.28,-29.47,-30.27,6.00,6.04,6.73,-23.47,-23.47,0.81
29.19,-29.32,-30.12,-29.34,-30.14,6.00,6.07,6.82,-23.32,-23.34,0.80
29.48,-29.39,-30.18,-29.41,-30.21,6.00,6.09,6.91,-23.39,-23.41,0.79
29.78,-29.67,-30.46,-29.66,-30.45,6.00,6.11,6.98,-23.67,-23.66,0.79
30.08,-30.04,-30.82,-30.05,-30.83,6.00,6.14,7.05,-24.04,-24.05,0.79
30.38,-30.50,-31.27,-30.49,-31.27,6.00,6.16,7.10,-24.50,-24.49,0.78
30.68,-30.94,-31.72,-30.94,-31.72,6.00,6.18,7.15,-24.94,-24.94,0.78
30.99,-31.33,-32.11,-31.34,-32.11,6.00,6.20,7.19,-25.33,-25.34,0.78
31.30,-31.66,-32.44,-31.62,-32.40,6.00,6.23,7.21,-25.66,-25.62,0.78
31.61,-31.78,-32.56,-31.78,-32.56,6.00,6.25,7.23,-25.78,-25.78,0.78
31.93,-31.79,-32.57,-31.80,-32.58,6.00,6.27,7.24,-25.79,-25.80,0.78
32.24,-31.69,-32.48,-31.67,-32.45,6.00,6.29,7.23,-25.69,-25.67,0.79
32.57,-31.44,-32.22,-31.45,-32.23,6.00,6.31,7.22,-25.44,-25.45,0.78
32.89,-31.15,-31.94,-31.15,-31.94,6.00,6.33,7.20,-25.15,-25.15,0.79
33.22,-30.83,-31.62,-30.84,-31.63,6.00,6.35,7.17,-24.83,-24.84,0.79
33.55,-30.55,-31.34,-30.56,-31.34,6.00,6.37,7.14,-24.55,-24.56,0.79
33.89,-30.34,-31.12,-30.34,-31.12,6.00,6.38,7.10,-24.34,-24.34,0.78
34.23,-30.19,-30.96,-30.20,-30.98,6.00,6.40,7.05,-24.19,-24.20,0.77
34.57,-30.15,-30.92,-30.17,-30.93,6.00,6.42,6.99,-24.15,-24.17,0.77
34.92,-30.22,-30.97,-30.22,-30.97,6.00,6.44,6.94,-24.22,-24.22,0.75
35.27,-30.34,-31.09,-30.35,-31.09,6.00,6.45,6.87,-24.34,-24.35,0.75
35.62,-30.51,-31.23,-30.52,-31.24,6.00,6.47,6.81,-24.51,-24.52,0.72
35.97,-30.69,-31.40,-30.69,-31.39,6.00,6.48,6.74,-24.69,-24.69,0.71
36.33,-30.80,-31.49,-30.80,-31.49,6.00,6.50,6.67,-24.80,-24.80,0.69
36.70,-30.84,-31.50,-30.82,-31.48,6.00,6.52,6.60,-24.84,-24.82,0.66
37.06,-30.72,-31.36,-30.72,-31.36,6.00,6.53,6.53,-24.72,-24.72,0.64
37.43,-30.51,-31.12,-30.51,-31.12,6.00,6.54,6.46,-24.51,-24.51,0.61
37.81,-30.21,-30.80,-30.20,-30.79,6.00,6.56,6.39,-24.21,-24.20,0.59
38.19,-29.84,-30.39,-29.84,-30.41,6.00,6.57,6.32,-23.84,-23.84,0.56
38.57,-29.47,-30.01,-29.47,-30.01,6.00,6.58,6.26,-23.47,-23.47,0.54
38.95,-29.12,-29.64,-29.12,-29.64,6.00,6.60,6.19,-23.12,-23.12,0.52
39.34,-28.83,-29.32,-28.84,-29.33,6.00,6.61,6.13,-22.83,-22.84,0.49
39.74,-28.63,-29.10,-28.63,-29.10,6.00,6.62,6.07,-22.63,-22.63,0.47
40.14,-28.50,-28.95,-28.51,-28.96,6.00,6.63,6.02,-22.50,-22.51,0.45
40.54,-28.45,-28.89,-28.47,-28.90,6.00,6.64,5.96,-22.45,-22.47,0.44
40.94,-28.48,-28.90,-28.48,-28.90,6.00,6.65,5.91,-22.48,-22.48,0.42
41.35,-28.54,-28.94,-28.53,-28.93,6.00,6.66,5.87,-22.54,-22.53,0.40
41.76,-28.59,-28.97,-28.58,-28.97,6.00,6.67,5.83,-22.59,-22.58,0.38
42.18,-28.62,-29.00,-28.63,-29.00,6.00,6.68,5.79,-22.62,-22.63,0.38
42.60,-28.66,-29.02,-28.67,-29.03,6.00,6.68,5.76,-22.66,-22.67,0.36
43.03,-28.70,-29.04,-28.70,-29.04,6.00,6.69,5.73,-22.70,-22.70,0.34
43.46,-28.69,-29.02,-28.68,-29.01,6.00,6.70,5.70,-22.69,-22.68,0.33
43.90,-28.61,-28.93,-28.61,-28.93,6.00,6.71,5.68,-22.61,-22.61,0.32
44.33,-28.48,-28.78,-28.47,-28.78,6.00,6.71,5.66,-22.48,-22.47,0.30
44.78,-28.28,-28.57,-28.28,-28.57,6.00,6.72,5.65,-22.28,-22.28,0.29
45.23,-28.03,-28.32,-28.04,-28.32,6.00,6.72,5.64,-22.03,-22.04,0.29
45.68,-27.79,-28.05,-27.80,-28.05,6.00,6.73,5.64,-21.79,-21.80,0.26
46.13,-27.55,-27.78,-27.56,-27.79,6.00,6.73,5.64,-21.55,-21.56,0.23
46.60,-27.33,-27.55,-27.33,-27.54,6.00,6.74,5.65,-21.33,-21.33,0.22
47.06,-27.12,-27.32,-27.11,-27.31,6.00,6.74,5.65,-21.12,-21.11,0.20
47.53,-26.91,-27.09,-26.92,-27.10,6.00,6.74,5.67,-20.91,-20.92,0.18
48.01,-26.76,-26.90,-26.77,-26.91,6.00,6.74,5.68,-20.76,-20.77,0.14
48.49,-26.64,-26.76,-26.65,-26.77,6.00,6.75,5.70,-20.64,-20.65,0.12
48.97,-26.56,-26.65,-26.55,-26.64,6.00,6.75,5.73,-20.56,-20.55,0.09
49.46,-26.44,-26.51,-26.44,-26.50,6.00,6.75,5.75,-20.44,-20.44,0.07
49.96,-26.30,-26.32,-26.30,-26.32,6.00,6.75,5.78,-20.30,-20.30,0.02
50.46,-26.12,-26.12,-26.12,-26.12,6.00,6.75,5.82,-20.12,-20.12,-0.00
50.96,-25.93,-25.90,-25.94,-25.90,6.00,6.75,5.85,-19.93,-19.94,-0.03
51.47,-25.75,-25.70,-25.75,-25.70,6.00,6.75,5.89,-19.75,-19.75,-0.05
51.99,-25.59,-25.51,-25.60,-25.52,6.00,6.74,5.93,-19.59,-19.60,-0.08
52.51,-25.47,-25.37,-25.48,-25.38,6.00,6.74,5.97,-19.47,-19.48,-0.10
53.03,-25.39,-25.28,-25.38,-25.26,6.00,6.74,6.01,-19.39,-19.38,-0.11
53.56,-25.31,-25.17,-25.31,-25.17,6.00,6.74,6.06,-19.31,-19.31,-0.14
54.10,-25.23,-25.06,-25.24,-25.08,6.00,6.73,6.10,-19.23,-19.24,-0.17
54.64,-25.19,-25.00,-25.19,-24.99,6.00,6.73,6.14,-19.19,-19.19,-0.19
55.18,-25.13,-24.91,-25.14,-24.92,6.00,6.72,6.19,-19.13,-19.14,-0.22
55.74,-25.07,-24.83,-25.07,-24.83,6.00,6.72,6.23,-19.07,-19.07,-0.24
56.29,-24.97,-24.72,-24.96,-24.71,6.00,6.71,6.27,-18.97,-18.96,-0.25
56.86,-24.83,-24.57,-24.84,-24.57,6.00,6.71,6.31,-18.83,-18.84,-0.26
57.42,-24.68,-24.39,-24.69,-24.41,6.00,6.70,6.34,-18.68,-18.69,-0.29
58.00,-24.54,-24.24,-24.54,-24.24,6.00,6.69,6.38,-18.54,-18.54,-0.30
58.58,-24.39,-24.09,-24.38,-24.08,6.00,6.68,6.40,-18.39,-18.38,-0.30
59.16,-24.21,-23.90,-24.22,-23.90,6.00,6.67,6.43,-18.21,-18.22,-0.31
59.76,-24.04,-23.72,-24.04,-23.72,6.00,6.67,6.45,-18.04,-18.04,-0.32
60.35,-23.87,-23.52,-23.88,-23.53,6.00,6.66,6.47,-17.87,-17.88,-0.35
60.96,-23.72,-23.35,-23.72,-23.34,6.00,6.65,6.48,-17.72,-17.72,-0.37
61.57,-23.56,-23.15,-23.56,-23.15,6.00,6.64,6.48,-17.56,-17.56,-0.41
62.18,-23.40,-22.96,-23.41,-22.97,6.00,6.62,6.48,-17.40,-17.41,-0.44
62.80,-23.25,-22.79,-23.25,-22.79,6.00,6.61,6.48,-17.25,-17.25,-0.46
63.43,-23.10,-22.61,-23.10,-22.61,6.00,6.60,6.47,-17.10,-17.10,-0.49
64.07,-22.95,-22.45,-22.95,-22.44,6.00,6.59,6.45,-16.95,-16.95,-0.50
64.71,-22.78,-22.27,-22.80,-22.28,6.00,6.57,6.43,-16.78,-16.80,-0.51
65.35,-22.64,-22.12,-22.64,-22.12,6.00,6.56,6.40,-16.64,-16.64,-0.52
66.01,-22.49,-21.96,-22.48,-21.95,6.00,6.54,6.37,-16.49,-16.48,-0.53
66.67,-22.30,-21.77,-22.31,-21.77,6.00,6.53,6.34,-16.30,-16.31,-0.53
67.33,-22.10,-21.55,-22.10,-21.55,6.00,6.51,6.30,-16.10,-16.10,-0.55
68.01,-21.87,-21.31,-21.87,-21.31,6.00,6.50,6.25,-15.87,-15.87,-0.56
68.69,-21.59,-21.02,-21.60,-21.03,6.00,6.48,6.21,-15.59,-15.60,-0.57
69.37,-21.29,-20.72,-21.28,-20.71,6.00,6.46,6.16,-15.29,-15.28,-0.57
70.07,-20.92,-20.35,-20.92,-20.34,6.00,6.44,6.11,-14.92,-14.92,-0.57
70.77,-20.51,-19.93,-20.52,-19.94,6.00,6.43,6.05,-14.51,-14.52,-0.58
71.48,-20.09,-19.50,-20.09,-19.50,6.00,6.41,6.00,-14.09,-14.09,-0.59
72.19,-19.66,-19.06,-19.66,-19.06,6.00,6.39,5.95,-13.66,-13.66,-0.60
72.91,-19.23,-18.63,-19.24,-18.63,6.00,6.37,5.89,-13.23,-13.24,-0.60
73.64,-18.83,-18.22,-18.83,-18.22,6.00,6.35,5.84,-12.83,-12.83,-0.61
74.38,-18.44,-17.83,-18.45,-17.83,6.00,6.33,5.78,-12.44,-12.45,-0.61
75.12,-18.08,-17.47,-18.09,-17.48,6.00,6.30,5.73,-12.08,-12.09,-0.61
75.87,-17.75,-17.16,-17.75,-17.15,6.00,6.28,5.68,-11.75,-11.75,-0.59
76.63,-17.42,-16.83,-17.42,-16.83,6.00,6.26,5.63,-11.42,-11.42,-0.59
77.40,-17.11,-16.53,-17.11,-16.53,6.00,6.24,5.58,-11.11,-11.11,-0.58
78.17,-16.80,-16.22,-16.80,-16.23,6.00,6.21,5.54,-10.80,-10.80,-0.58
78.95,-16.50,-15.95,-16.50,-15.94,6.00,6.19,5.50,-10.50,-10.50,-0.55
79.74,-16.21,-15.67,-16.21,-15.67,6.00,6.16,5.46,-10.21,-10.21,-0.54
80.54,-15.94,-15.41,-15.93,-15.41,6.00,6.14,5.42,-9.94,-9.93,-0.53
81.35,-15.66,-15.15,-15.67,-15.16,6.00,6.11,5.39,-9.66,-9.67,-0.51
82.16,-15.43,-14.94,-15.43,-14.94,6.00,6.09,5.36,-9.43,-9.43,-0.49
82.98,-15.22,-14.74,-15.22,-14.74,6.00,6.06,5.33,-9.22,-9.22,-0.48
83.81,-15.02,-14.56,-15.02,-14.56,6.00,6.03,5.31,-9.02,-9.02,-0.46
84.65,-14.84,-14.39,-14.85,-14.40,6.00,6.01,5.30,-8.84,-8.85,-0.45
85.50,-14.69,-14.26,-14.69,-14.26,6.00,5.98,5.28,-8.69,-8.69,-0.43
86.35,-14.56,-14.16,-14.57,-14.16,6.00,5.95,5.27,-8.56,-8.57,-0.40
87.22,-14.46,-14.08,-14.46,-14.08,6.00,5.93,5.27,-8.46,-8.46,-0.38
88.09,-14.37,-14.01,-14.37,-14.01,6.00,5.90,5.27,-8.37,-8.37,-0.36
88.97,-14.30,-13.96,-14.31,-13.96,6.00,5.87,5.27,-8.30,-8.31,-0.34
89.86,-14.25,-13.93,-14.25,-13.93,6.00,5.85,5.27,-8.25,-8.25,-0.32
90.76,-14.20,-13.90,-14.20,-13.90,6.00,5.82,5.29,-8.20,-8.20,-0.30
91.66,-14.15,-13.87,-14.15,-13.87,6.00,5.79,5.30,-8.15,-8.15,-0.28
92.58,-14.08,-13.82,-14.08,-13.82,6.00,5.77,5.32,-8.08,-8.08,-0.26
93.51,-13.99,-13.75,-13.99,-13.75,6.00,5.74,5.34,-7.99,-7.99,-0.24
94.44,-13.87,-13.65,-13.87,-13.65,6.00,5.72,5.37,-7.87,-7.87,-0.22
95.39,-13.74,-13.53,-13.74,-13.53,6.00,5.70,5.40,-7.74,-7.74,-0.21
96.34,-13.60,-13.40,-13.60,-13.40,6.00,5.68,5.43,-7.60,-7.60,-0.20
97.30,-13.45,-13.27,-13.45,-13.26,6.00,5.66,5.47,-7.45,-7.45,-0.18
98.28,-13.31,-13.13,-13.32,-13.14,6.00,5.64,5.51,-7.31,-7.32,-0.18
99.26,-13.20,-13.03,-13.20,-13.04,6.00,5.62,5.55,-7.20,-7.20,-0.17
100.25,-13.12,-12.97,-13.12,-12.97,6.00,5.61,5.59,-7.12,-7.12,-0.15
101.25,-13.06,-12.93,-13.07,-12.93,6.00,5.60,5.64,-7.06,-7.07,-0.13
102.27,-13.03,-12.92,-13.04,-12.93,6.00,5.60,5.69,-7.03,-7.04,-0.11
103.29,-13.04,-12.95,-13.04,-12.95,6.00,5.59,5.74,-7.04,-7.04,-0.09
104.32,-13.05,-12.99,-13.05,-12.98,6.00,5.60,5.79,-7.05,-7.05,-0.06
105.37,-13.04,-13.00,-13.05,-13.01,6.00,5.61,5.84,-7.04,-7.05,-0.04
106.42,-13.03,-13.02,-13.03,-13.01,6.00,5.63,5.89,-7.03,-7.03,-0.01
107.48,-12.97,-12.97,-12.97,-12.98,6.00,5.65,5.93,-6.97,-6.97,-0.00
108.56,-12.87,-12.90,-12.87,-12.90,6.00,5.69,5.98,-6.87,-6.87,0.03
109.64,-12.73,-12.79,-12.73,-12.78,6.00,5.73,6.02,-6.73,-6.73,0.06
110.74,-12.53,-12.61,-12.54,-12.61,6.00,5.78,6.06,-6.53,-6.54,0.08
111.85,-12.29,-12.39,-12.29,-12.39,6.00,5.85,6.10,-6.29,-6.29,0.10
112.97,-12.00,-12.12,-12.00,-12.12,6.00,5.92,6.13,-6.00,-6.00,0.12
114.10,-11.65,-11.79,-11.65,-11.78,6.00,6.00,6.16,-5.65,-5.65,0.14
115.24,-11.25,-11.40,-11.26,-11.40,6.00,6.08,6.17,-5.25,-5.26,0.15
116.39,-10.83,-10.98,-10.83,-10.99,6.00,6.15,6.18,-4.83,-4.83,0.15
117.55,-10.39,-10.56,-10.39,-10.55,6.00,6.22,6.19,-4.39,-4.39,0.17
118.73,-9.94,-10.11,-9.94,-10.11,6.00,6.26,6.18,-3.94,-3.94,0.17
119.92,-9.48,-9.66,-9.49,-9.67,6.00,6.27,6.16,-3.48,-3.49,0.18
121.12,-9.03,-9.23,-9.03,-9.22,6.00,6.24,6.13,-3.03,-3.03,0.20
122.33,-8.58,-8.78,-8.58,-8.79,6.01,6.17,6.09,-2.57,-2.57,0.20
123.55,-8.14,-8.35,-8.14,-8.35,6.04,6.05,6.04,-2.10,-2.10,0.21
124.79,-7.70,-7.92,-7.71,-7.92,6.07,5.90,5.98,-1.64,-1.64,0.22
126.03,-7.28,-7.50,-7.28,-7.50,6.07,5.71,5.90,-1.21,-1.21,0.22
127.29,-6.86,-7.07,-6.86,-7.07,6.03,5.50,5.81,-0.83,-0.83,0.21
128.57,-6.44,-6.65,-6.44,-6.65,5.95,5.27,5.71,-0.49,-0.49,0.21
129.85,-6.02,-6.23,-6.02,-6.23,5.81,5.05,5.60,-0.21,-0.21,0.21
131.15,-5.61,-5.82,-5.61,-5.82,5.62,4.82,5.47,0.01,0.01,0.21
132.46,-5.21,-5.42,-5.22,-5.42,5.38,4.60,5.34,0.17,0.16,0.21
133.79,-4.83,-5.05,-4.83,-5.04,5.09,4.39,5.19,0.25,0.26,0.22
135.12,-4.45,-4.67,-4.45,-4.68,4.75,4.19,5.04,0.30,0.30,0.22
136.48,-4.08,-4.32,-4.09,-4.32,4.39,4.00,4.87,0.31,0.31,0.24
137.84,-3.73,-3.98,-3.73,-3.98,4.02,3.81,4.70,0.29,0.29,0.25
139.22,-3.39,-3.64,-3.39,-3.64,3.66,3.64,4.52,0.27,0.27,0.25
140.61,-3.05,-3.32,-3.06,-3.32,3.32,3.47,4.33,0.27,0.26,0.27
142.02,-2.73,-3.01,-2.73,-3.01,3.01,3.31,4.14,0.28,0.27,0.28
143.44,-2.42,-2.71,-2.42,-2.71,2.71,3.15,3.94,0.29,0.29,0.29
144.87,-2.12,-2.43,-2.12,-2.42,2.42,3.00,3.73,0.30,0.30,0.31
146.32,-1.82,-2.14,-1.83,-2.15,2.15,2.85,3.53,0.32,0.32,0.32
147.78,-1.56,-1.89,-1.55,-1.88,1.88,2.71,3.31,0.32,0.33,0.33
149.26,-1.29,-1.63,-1.30,-1.63,1.64,2.57,3.10,0.34,0.34,0.34
150.75,-1.05,-1.39,-1.06,-1.40,1.40,2.43,2.88,0.35,0.35,0.34
152.26,-0.83,-1.19,-0.83,-1.18,1.19,2.29,2.66,0.35,0.36,0.36
153.78,-0.62,-0.98,-0.62,-0.98,0.98,2.16,2.44,0.36,0.36,0.36
155.32,-0.42,-0.79,-0.43,-0.80,0.80,2.02,2.22,0.38,0.37,0.37
156.88,-0.26,-0.63,-0.26,-0.63,0.63,1.89,1.99,0.37,0.37,0.37
158.44,-0.11,-0.48,-0.11,-0.48,0.48,1.76,1.77,0.36,0.37,0.37
160.03,0.04,-0.33,0.03,-0.34,0.34,1.62,1.54,0.37,0.36,0.37
161.63,0.15,-0.22,0.15,-0.21,0.21,1.49,1.31,0.36,0.36,0.37
163.24,0.26,-0.09,0.26,-0.09,0.10,1.35,1.09,0.35,0.36,0.35
164.88,0.36,0.01,0.36,0.01,-0.01,1.22,0.86,0.35,0.35,0.35
166.53,0.45,0.11,0.44,0.10,-0.10,1.08,0.63,0.35,0.35,0.34
168.19,0.52,0.18,0.52,0.18,-0.18,0.95,0.40,0.34,0.34,0.34
169.87,0.58,0.25,0.58,0.26,-0.26,0.81,0.17,0.32,0.32,0.33
171.57,0.64,0.33,0.64,0.32,-0.33,0.67,-0.06,0.31,0.31,0.31
173.29,0.69,0.39,0.69,0.39,-0.39,0.53,-0.29,0.29,0.30,0.30
175.02,0.75,0.46,0.75,0.46,-0.46,0.39,-0.52,0.29,0.29,0.29
176.77,0.80,0.52,0.80,0.52,-0.52,0.25,-0.75,0.28,0.28,0.28
178.54,0.85,0.58,0.85,0.58,-0.58,0.11,-0.98,0.27,0.27,0.27
180.32,0.90,0.65,0.90,0.65,-0.65,-0.04,-1.22,0.25,0.25,0.25
182.13,0.96,0.72,0.96,0.72,-0.72,-0.19,-1.45,0.24,0.23,0.24
183.95,1.02,0.79,1.02,0.79,-0.80,-0.34,-1.68,0.22,0.22,0.23
185.79,1.09,0.88,1.09,0.88,-0.88,-0.49,-1.92,0.20,0.20,0.21
187.65,1.17,0.97,1.17,0.97,-0.98,-0.64,-2.15,0.19,0.19,0.20
189.52,1.25,1.07,1.25,1.07,-1.08,-0.79,-2.39,0.17,0.17,0.18
191.42,1.35,1.19,1.35,1.19,-1.19,-0.95,-2.62,0.16,0.16,0.16
193.33,1.45,1.31,1.44,1.31,-1.30,-1.11,-2.86,0.14,0.14,0.14
195.27,1.55,1.43,1.55,1.43,-1.43,-1.27,-3.10,0.12,0.12,0.12
197.22,1.66,1.56,1.66,1.56,-1.56,-1.43,-3.33,0.10,0.11,0.10
199.19,1.79,1.70,1.78,1.70,-1.70,-1.59,-3.57,0.09,0.09,0.09
201.18,1.92,1.85,1.91,1.84,-1.84,-1.76,-3.81,0.08,0.07,0.07
203.19,2.04,1.98,2.05,1.99,-1.99,-1.93,-4.05,0.05,0.06,0.06
205.23,2.19,2.14,2.19,2.14,-2.14,-2.10,-4.28,0.04,0.04,0.05
207.28,2.34,2.30,2.34,2.30,-2.31,-2.27,-4.52,0.03,0.03,0.04
209.35,2.50,2.48,2.50,2.48,-2.48,-2.45,-4.75,0.02,0.02,0.02
211.44,2.67,2.66,2.66,2.66,-2.66,-2.63,-4.98,0.01,0.00,0.01
213.56,2.84,2.85,2.84,2.85,-2.85,-2.81,-5.21,-0.01,-0.01,-0.01
215.69,3.02,3.04,3.02,3.04,-3.04,-2.99,-5.44,-0.03,-0.02,-0.02
217.85,3.21,3.24,3.21,3.25,-3.25,-3.17,-5.66,-0.04,-0.04,-0.03
220.03,3.41,3.46,3.41,3.45,-3.45,-3.36,-5.88,-0.04,-0.05,-0.05
222.23,3.61,3.67,3.61,3.67,-3.66,-3.55,-6.09,-0.06,-0.06,-0.06
224.45,3.81,3.88,3.81,3.88,-3.88,-3.74,-6.30,-0.07,-0.07,-0.07
226.70,4.02,4.10,4.02,4.10,-4.10,-3.94,-6.49,-0.08,-0.08,-0.08
228.96,4.24,4.32,4.23,4.32,-4.32,-4.13,-6.68,-0.08,-0.09,-0.08
231.25,4.45,4.54,4.45,4.54,-4.55,-4.33,-6.86,-0.10,-0.10,-0.09
233.57,4.67,4.77,4.67,4.77,-4.78,-4.53,-7.03,-0.11,-0.11,-0.10
235.90,4.89,5.01,4.89,5.01,-5.00,-4.73,-7.18,-0.12,-0.12,-0.12
238.26,5.12,5.25,5.11,5.24,-5.24,-4.94,-7.33,-0.12,-0.12,-0.13
240.64,5.34,5.46,5.34,5.47,-5.47,-5.14,-7.45,-0.13,-0.13,-0.12
243.05,5.57,5.70,5.56,5.70,-5.70,-5.35,-7.57,-0.13,-0.14,-0.13
245.48,5.79,5.93,5.79,5.93,-5.93,-5.56,-7.67,-0.15,-0.14,-0.14
247.93,6.02,6.17,6.02,6.17,-6.16,-5.77,-7.75,-0.15,-0.14,-0.15
250.41,6.25,6.39,6.25,6.39,-6.39,-5.98,-7.82,-0.15,-0.15,-0.14
252.92,6.48,6.62,6.47,6.62,-6.62,-6.20,-7.87,-0.14,-0.15,-0.14
255.45,6.69,6.84,6.70,6.84,-6.85,-6.41,-7.91,-0.16,-0.15,-0.15
258.00,6.92,7.07,6.91,7.07,-7.07,-6.62,-7.93,-0.15,-0.15,-0.15
260.58,7.13,7.28,7.13,7.28,-7.28,-6.84,-7.94,-0.16,-0.16,-0.15
263.19,7.34,7.50,7.34,7.49,-7.49,-7.05,-7.93,-0.16,-0.16,-0.16
265.82,7.54,7.70,7.54,7.70,-7.70,-7.26,-7.91,-0.16,-0.16,-0.16
268.48,7.73,7.89,7.73,7.89,-7.90,-7.47,-7.88,-0.17,-0.17,-0.16
271.16,7.92,8.09,7.91,8.08,-8.08,-7.68,-7.84,-0.17,-0.17,-0.17
273.87,8.08,8.25,8.08,8.26,-8.26,-7.89,-7.78,-0.18,-0.17,-0.17
276.61,8.25,8.43,8.25,8.43,-8.42,-8.09,-7.72,-0.18,-0.18,-0.18
279.38,8.40,8.59,8.39,8.58,-8.58,-8.29,-7.66,-0.18,-0.18,-0.19
282.17,8.53,8.72,8.53,8.72,-8.71,-8.48,-7.58,-0.19,-0.19,-0.19
284.99,8.65,8.83,8.65,8.84,-8.84,-8.67,-7.50,-0.19,-0.19,-0.18
287.84,8.76,8.94,8.76,8.95,-8.95,-8.85,-7.42,-0.19,-0.19,-0.18
290.72,8.86,9.06,8.86,9.05,-9.05,-9.02,-7.34,-0.19,-0.19,-0.20
293.63,8.94,9.13,8.94,9.13,-9.13,-9.18,-7.25,-0.19,-0.19,-0.19
296.57,9.01,9.20,9.01,9.20,-9.19,-9.33,-7.16,-0.19,-0.19,-0.19
299.53,9.06,9.25,9.06,9.25,-9.25,-9.48,-7.08,-0.19,-0.19,-0.19
302.53,9.10,9.29,9.10,9.29,-9.29,-9.61,-6.99,-0.19,-0.19,-0.19
305.55,9.12,9.31,9.12,9.32,-9.32,-9.72,-6.90,-0.20,-0.20,-0.19
308.61,9.15,9.34,9.14,9.33,-9.33,-9.83,-6.82,-0.19,-0.19,-0.19
311.69,9.15,9.34,9.15,9.34,-9.34,-9.92,-6.74,-0.19,-0.19,-0.19
314.81,9.15,9.34,9.15,9.34,-9.33,-9.99,-6.66,-0.18,-0.19,-0.19
317.96,9.13,9.32,9.13,9.32,-9.32,-10.05,-6.58,-0.19,-0.19,-0.19
321.14,9.11,9.29,9.11,9.29,-9.29,-10.10,-6.51,-0.18,-0.19,-0.18
324.35,9.08,9.27,9.08,9.26,-9.26,-10.13,-6.44,-0.18,-0.19,-0.19
327.59,9.04,9.21,9.04,9.22,-9.22,-10.14,-6.38,-0.19,-0.18,-0.17
330.87,9.00,9.17,9.00,9.18,-9.18,-10.14,-6.31,-0.18,-0.18,-0.17
334.18,8.96,9.14,8.96,9.13,-9.13,-10.12,-6.26,-0.18,-0.17,-0.18
337.52,8.92,9.09,8.91,9.09,-9.08,-10.09,-6.21,-0.16,-0.17,-0.17
340.90,8.87,9.04,8.87,9.04,-9.03,-10.04,-6.16,-0.16,-0.16,-0.17
344.30,8.82,8.98,8.82,8.98,-8.98,-9.98,-6.11,-0.16,-0.16,-0.16
347.75,8.77,8.92,8.77,8.93,-8.93,-9.91,-6.08,-0.16,-0.16,-0.15
351.23,8.73,8.89,8.72,8.87,-8.88,-9.82,-6.04,-0.15,-0.16,-0.16
354.74,8.68,8.82,8.68,8.83,-8.84,-9.73,-6.01,-0.16,-0.16,-0.14
358.28,8.64,8.79,8.64,8.79,-8.80,-9.62,-5.99,-0.16,-0.16,-0.15
361.87,8.62,8.76,8.62,8.76,-8.77,-9.51,-5.97,-0.15,-0.15,-0.14
365.49,8.60,8.74,8.60,8.74,-8.75,-9.39,-5.95,-0.15,-0.15,-0.14
369.14,8.60,8.73,8.59,8.73,-8.73,-9.26,-5.94,-0.13,-0.14,-0.13
372.83,8.59,8.72,8.59,8.72,-8.72,-9.13,-5.94,-0.14,-0.13,-0.13
376.56,8.60,8.73,8.59,8.72,-8.72,-8.99,-5.93,-0.13,-0.13,-0.13
380.33,8.59,8.72,8.59,8.72,-8.73,-8.85,-5.93,-0.14,-0.14,-0.13
384.13,8.60,8.73,8.60,8.73,-8.75,-8.71,-5.94,-0.15,-0.15,-0.13
387.97,8.61,8.73,8.61,8.74,-8.76,-8.56,-5.95,-0.16,-0.15,-0.12
391.85,8.63,8.75,8.63,8.75,-8.78,-8.41,-5.96,-0.15,-0.15,-0.12
395.77,8.64,8.76,8.64,8.76,-8.79,-8.26,-5.98,-0.15,-0.15,-0.12
399.73,8.64,8.76,8.64,8.76,-8.78,-8.11,-6.00,-0.14,-0.14,-0.12
403.72,8.62,8.73,8.61,8.73,-8.73,-7.95,-6.02,-0.12,-0.12,-0.11
