frequency,raw,error,smoothed,error_smoothed,equalization,parametric_eq,fixed_band_eq,equalized_raw,equalized_smoothed,target
20.00,5.03,3.07,5.04,3.06,-3.06,-3.10,-1.47,1.97,1.98,1.96
20.20,5.07,3.07,5.07,3.07,-3.07,-3.11,-1.51,2.00,2.01,2.00
20.40,5.12,3.09,5.11,3.07,-3.07,-3.12,-1.55,2.04,2.03,2.03
20.61,5.16,3.10,5.14,3.08,-3.08,-3.12,-1.60,2.08,2.06,2.06
20.81,5.21,3.11,5.18,3.09,-3.09,-3.13,-1.64,2.12,2.09,2.10
21.02,5.25,3.11,5.21,3.10,-3.10,-3.13,-1.69,2.15,2.11,2.14
21.23,5.25,3.10,5.24,3.10,-3.10,-3.14,-1.74,2.15,2.13,2.15
21.44,5.25,3.08,5.26,3.11,-3.11,-3.14,-1.79,2.14,2.15,2.17
21.66,5.25,3.06,5.29,3.12,-3.12,-3.15,-1.84,2.13,2.17,2.19
21.87,5.25,3.05,5.31,3.12,-3.12,-3.16,-1.89,2.13,2.19,2.20
22.09,5.27,3.05,5.34,3.13,-3.13,-3.16,-1.95,2.14,2.21,2.22
22.31,5.32,3.10,5.36,3.14,-3.14,-3.17,-2.00,2.18,2.22,2.22
22.54,5.37,3.14,5.38,3.15,-3.15,-3.17,-2.06,2.22,2.23,2.22
22.76,5.43,3.19,5.39,3.15,-3.15,-3.18,-2.12,2.28,2.24,2.23
22.99,5.48,3.24,5.41,3.16,-3.16,-3.18,-2.18,2.32,2.25,2.23
23.22,5.48,3.23,5.42,3.16,-3.16,-3.19,-2.24,2.31,2.25,2.24
23.45,5.48,3.22,5.43,3.17,-3.17,-3.20,-2.30,2.30,2.26,2.25
23.69,5.48,3.22,5.45,3.19,-3.19,-3.20,-2.37,2.29,2.26,2.26
23.92,5.48,3.21,5.48,3.21,-3.21,-3.21,-2.43,2.27,2.27,2.27
24.16,5.48,3.20,5.50,3.22,-3.22,-3.21,-2.50,2.25,2.27,2.28
24.40,5.48,3.19,5.52,3.24,-3.24,-3.22,-2.57,2.24,2.28,2.29
24.65,5.48,3.20,5.54,3.26,-3.26,-3.23,-2.64,2.22,2.28,2.28
24.89,5.48,3.20,5.55,3.27,-3.27,-3.23,-2.71,2.21,2.28,2.28
25.14,5.51,3.23,5.57,3.29,-3.29,-3.24,-2.78,2.22,2.28,2.28
25.39,5.57,3.29,5.59,3.30,-3.30,-3.24,-2.85,2.27,2.28,2.28
25.65,5.63,3.35,5.61,3.32,-3.32,-3.25,-2.92,2.30,2.28,2.28
25.91,5.69,3.42,5.63,3.35,-3.35,-3.26,-2.99,2.34,2.28,2.27
26.16,5.71,3.43,5.65,3.37,-3.37,-3.26,-3.06,2.34,2.28,2.28
26.43,5.71,3.43,5.67,3.39,-3.39,-3.27,-3.13,2.32,2.28,2.28
26.69,5.71,3.43,5.69,3.41,-3.41,-3.28,-3.20,2.30,2.27,2.28
26.96,5.71,3.43,5.70,3.43,-3.43,-3.28,-3.27,2.28,2.27,2.28
27.23,5.71,3.43,5.71,3.44,-3.44,-3.29,-3.34,2.27,2.27,2.28
27.50,5.71,3.43,5.72,3.45,-3.45,-3.30,-3.40,2.26,2.27,2.28
27.77,5.71,3.44,5.72,3.46,-3.46,-3.30,-3.47,2.25,2.27,2.26
28.05,5.71,3.44,5.72,3.46,-3.46,-3.31,-3.53,2.25,2.27,2.26
28.33,5.71,3.46,5.72,3.45,-3.45,-3.32,-3.59,2.26,2.26,2.25
28.62,5.71,3.45,5.71,3.45,-3.45,-3.32,-3.65,2.26,2.26,2.26
28.90,5.71,3.45,5.71,3.45,-3.45,-3.33,-3.70,2.26,2.26,2.26
29.19,5.71,3.46,5.71,3.45,-3.45,-3.34,-3.75,2.26,2.26,2.25
29.48,5.71,3.45,5.71,3.45,-3.45,-3.34,-3.80,2.26,2.26,2.26
29.78,5.71,3.45,5.71,3.45,-3.45,-3.35,-3.84,2.25,2.25,2.26
30.08,5.71,3.45,5.70,3.45,-3.45,-3.36,-3.88,2.26,2.25,2.26
30.38,5.71,3.46,5.69,3.45,-3.45,-3.36,-3.91,2.26,2.24,2.25
30.68,5.71,3.46,5.69,3.45,-3.45,-3.37,-3.94,2.26,2.24,2.25
30.99,5.71,3.47,5.69,3.46,-3.46,-3.38,-3.97,2.25,2.24,2.23
31.30,5.71,3.48,5.70,3.47,-3.47,-3.39,-3.99,2.24,2.23,2.23
31.61,5.71,3.48,5.71,3.48,-3.48,-3.39,-4.00,2.22,2.23,2.23
31.93,5.71,3.49,5.73,3.50,-3.50,-3.40,-4.01,2.21,2.22,2.22
32.24,5.71,3.50,5.74,3.52,-3.52,-3.41,-4.02,2.18,2.22,2.21
32.57,5.71,3.50,5.76,3.55,-3.55,-3.42,-4.02,2.16,2.21,2.21
32.89,5.71,3.50,5.78,3.58,-3.58,-3.42,-4.02,2.13,2.21,2.21
33.22,5.76,3.55,5.81,3.60,-3.60,-3.43,-4.01,2.16,2.20,2.20
33.55,5.84,3.64,5.83,3.63,-3.63,-3.44,-4.00,2.21,2.20,2.20
33.89,5.91,3.71,5.86,3.66,-3.66,-3.45,-3.99,2.24,2.20,2.20
34.23,5.94,3.74,5.89,3.69,-3.69,-3.46,-3.98,2.25,2.19,2.20
34.57,5.94,3.75,5.90,3.71,-3.71,-3.46,-3.96,2.22,2.19,2.19
34.92,5.94,3.75,5.92,3.73,-3.73,-3.47,-3.94,2.21,2.18,2.19
35.27,5.94,3.75,5.92,3.74,-3.74,-3.48,-3.91,2.20,2.18,2.18
35.62,5.94,3.77,5.92,3.74,-3.74,-3.49,-3.89,2.20,2.18,2.17
35.97,5.94,3.77,5.91,3.74,-3.74,-3.50,-3.86,2.20,2.17,2.17
36.33,5.93,3.76,5.90,3.73,-3.73,-3.51,-3.84,2.20,2.17,2.17
36.70,5.92,3.75,5.88,3.72,-3.72,-3.51,-3.81,2.20,2.16,2.17
37.06,5.90,3.74,5.85,3.70,-3.70,-3.52,-3.78,2.20,2.16,2.15
37.43,5.82,3.67,5.83,3.68,-3.68,-3.53,-3.75,2.14,2.15,2.15
37.81,5.75,3.60,5.80,3.65,-3.65,-3.54,-3.73,2.09,2.14,2.15
38.19,5.71,3.57,5.78,3.64,-3.64,-3.55,-3.70,2.07,2.14,2.14
38.57,5.71,3.58,5.76,3.62,-3.62,-3.56,-3.68,2.09,2.14,2.13
38.95,5.71,3.58,5.74,3.61,-3.61,-3.57,-3.65,2.10,2.13,2.13
39.34,5.71,3.59,5.72,3.60,-3.60,-3.58,-3.63,2.11,2.13,2.12
39.74,5.71,3.60,5.71,3.59,-3.59,-3.59,-3.61,2.12,2.12,2.10
40.14,5.71,3.60,5.70,3.59,-3.59,-3.60,-3.59,2.12,2.11,2.11
40.54,5.71,3.60,5.70,3.59,-3.59,-3.61,-3.57,2.12,2.10,2.11
40.94,5.71,3.60,5.70,3.61,-3.61,-3.62,-3.56,2.10,2.09,2.10
41.35,5.71,3.62,5.71,3.63,-3.63,-3.63,-3.54,2.08,2.08,2.09
41.76,5.71,3.63,5.72,3.65,-3.65,-3.64,-3.53,2.05,2.06,2.08
42.18,5.71,3.65,5.72,3.67,-3.67,-3.65,-3.53,2.03,2.05,2.06
42.60,5.71,3.67,5.72,3.70,-3.70,-3.66,-3.52,2.01,2.03,2.04
43.03,5.71,3.68,5.72,3.72,-3.72,-3.67,-3.52,1.99,2.00,2.02
43.46,5.71,3.71,5.71,3.73,-3.73,-3.68,-3.52,1.98,1.98,2.00
43.90,5.71,3.75,5.70,3.74,-3.74,-3.69,-3.52,1.97,1.96,1.96
44.33,5.71,3.78,5.68,3.75,-3.75,-3.70,-3.52,1.96,1.93,1.93
44.78,5.71,3.81,5.65,3.74,-3.74,-3.71,-3.53,1.96,1.91,1.90
45.23,5.66,3.79,5.62,3.73,-3.73,-3.72,-3.54,1.92,1.89,1.87
45.68,5.55,3.70,5.58,3.71,-3.71,-3.73,-3.56,1.83,1.86,1.85
46.13,5.48,3.65,5.53,3.68,-3.68,-3.74,-3.57,1.79,1.85,1.83
46.60,5.48,3.65,5.47,3.64,-3.64,-3.76,-3.59,1.84,1.83,1.82
47.06,5.46,3.65,5.40,3.58,-3.58,-3.77,-3.61,1.88,1.82,1.81
47.53,5.34,3.54,5.31,3.50,-3.50,-3.78,-3.63,1.84,1.81,1.80
48.01,5.21,3.40,5.21,3.41,-3.41,-3.79,-3.66,1.80,1.80,1.81
48.49,5.12,3.32,5.10,3.30,-3.30,-3.80,-3.69,1.82,1.80,1.80
48.97,5.03,3.24,4.98,3.17,-3.17,-3.81,-3.72,1.85,1.80,1.79
49.46,4.92,3.13,4.85,3.05,-3.05,-3.83,-3.75,1.87,1.80,1.79
49.96,4.81,3.02,4.73,2.92,-2.92,-3.84,-3.78,1.89,1.80,1.79
50.46,4.68,2.88,4.61,2.80,-2.80,-3.85,-3.82,1.88,1.80,1.80
50.96,4.54,2.73,4.49,2.69,-2.69,-3.86,-3.85,1.84,1.80,1.81
51.47,4.39,2.58,4.39,2.60,-2.60,-3.87,-3.89,1.79,1.79,1.80
51.99,4.24,2.44,4.31,2.53,-2.53,-3.89,-3.93,1.71,1.78,1.80
52.51,4.17,2.38,4.27,2.51,-2.51,-3.90,-3.97,1.66,1.77,1.79
53.03,4.11,2.34,4.26,2.52,-2.52,-3.91,-4.01,1.59,1.75,1.77
53.56,4.11,2.37,4.28,2.56,-2.56,-3.93,-4.05,1.55,1.72,1.74
54.10,4.13,2.43,4.31,2.62,-2.62,-3.94,-4.10,1.51,1.69,1.70
54.64,4.26,2.60,4.37,2.72,-2.72,-3.95,-4.14,1.54,1.66,1.66
55.18,4.38,2.76,4.45,2.84,-2.84,-3.96,-4.18,1.54,1.62,1.62
55.74,4.51,2.94,4.55,2.98,-2.98,-3.98,-4.22,1.53,1.57,1.57
56.29,4.71,3.18,4.67,3.15,-3.15,-3.99,-4.25,1.56,1.53,1.53
56.86,4.96,3.48,4.80,3.33,-3.33,-4.00,-4.29,1.63,1.47,1.47
57.42,5.12,3.71,4.94,3.52,-3.52,-4.02,-4.32,1.60,1.42,1.41
58.00,5.25,3.89,5.07,3.71,-3.71,-4.03,-4.36,1.54,1.37,1.36
58.58,5.25,3.94,5.20,3.89,-3.89,-4.04,-4.39,1.36,1.31,1.31
59.16,5.29,4.03,5.31,4.06,-4.06,-4.06,-4.41,1.23,1.26,1.26
59.76,5.42,4.21,5.41,4.21,-4.21,-4.07,-4.44,1.21,1.20,1.21
60.35,5.48,4.33,5.50,4.35,-4.35,-4.08,-4.46,1.13,1.15,1.15
60.96,5.48,4.38,5.56,4.46,-4.46,-4.10,-4.48,1.01,1.10,1.10
61.57,5.61,4.57,5.61,4.56,-4.56,-4.11,-4.49,1.04,1.04,1.04
62.18,5.71,4.73,5.64,4.65,-4.65,-4.13,-4.50,1.06,1.00,0.98
62.80,5.71,4.76,5.67,4.72,-4.72,-4.14,-4.50,0.99,0.95,0.95
63.43,5.71,4.81,5.68,4.78,-4.78,-4.15,-4.51,0.93,0.91,0.90
64.07,5.71,4.85,5.70,4.83,-4.83,-4.17,-4.51,0.88,0.87,0.86
64.71,5.71,4.88,5.71,4.88,-4.88,-4.18,-4.50,0.82,0.83,0.82
65.35,5.71,4.92,5.73,4.93,-4.93,-4.20,-4.49,0.78,0.79,0.79
66.01,5.71,4.95,5.73,4.97,-4.97,-4.21,-4.48,0.74,0.76,0.76
66.67,5.71,4.98,5.73,5.00,-5.00,-4.23,-4.47,0.71,0.74,0.73
67.33,5.71,5.00,5.74,5.03,-5.03,-4.24,-4.45,0.68,0.71,0.71
68.01,5.71,5.02,5.74,5.05,-5.05,-4.25,-4.43,0.66,0.69,0.69
68.69,5.71,5.04,5.73,5.06,-5.06,-4.27,-4.41,0.65,0.67,0.67
69.37,5.71,5.06,5.72,5.07,-5.07,-4.28,-4.38,0.64,0.65,0.65
70.07,5.71,5.08,5.71,5.08,-5.08,-4.30,-4.36,0.62,0.63,0.63
70.77,5.71,5.09,5.70,5.09,-5.09,-4.31,-4.33,0.62,0.61,0.62
71.48,5.71,5.11,5.69,5.09,-5.09,-4.32,-4.30,0.61,0.59,0.60
72.19,5.71,5.12,5.67,5.09,-5.09,-4.34,-4.27,0.62,0.57,0.59
72.91,5.71,5.15,5.65,5.09,-5.09,-4.35,-4.25,0.62,0.56,0.56
73.64,5.71,5.16,5.63,5.09,-5.09,-4.37,-4.22,0.62,0.54,0.55
74.38,5.65,5.12,5.61,5.09,-5.09,-4.38,-4.19,0.56,0.52,0.53
75.12,5.53,5.02,5.60,5.09,-5.09,-4.40,-4.16,0.44,0.51,0.51
75.87,5.49,5.00,5.58,5.09,-5.09,-4.41,-4.14,0.40,0.49,0.49
76.63,5.48,5.01,5.56,5.08,-5.08,-4.42,-4.11,0.40,0.48,0.47
77.40,5.48,5.01,5.54,5.07,-5.07,-4.44,-4.09,0.41,0.47,0.46
78.17,5.48,5.03,5.52,5.06,-5.06,-4.45,-4.07,0.42,0.46,0.45
78.95,5.48,5.03,5.49,5.04,-5.04,-4.46,-4.05,0.44,0.45,0.45
79.74,5.48,5.03,5.46,5.01,-5.01,-4.48,-4.03,0.47,0.45,0.45
80.54,5.48,5.04,5.42,4.98,-4.98,-4.49,-4.02,0.50,0.44,0.44
81.35,5.48,5.04,5.38,4.94,-4.94,-4.51,-4.01,0.54,0.45,0.44
82.16,5.46,5.01,5.35,4.90,-4.90,-4.52,-4.00,0.56,0.45,0.45
82.98,5.38,4.91,5.32,4.85,-4.85,-4.53,-3.99,0.53,0.46,0.46
83.81,5.27,4.80,5.28,4.81,-4.81,-4.55,-3.98,0.46,0.48,0.47
84.65,5.25,4.77,5.24,4.75,-4.75,-4.56,-3.98,0.50,0.49,0.48
85.50,5.19,4.68,5.20,4.70,-4.70,-4.57,-3.98,0.49,0.50,0.50
86.35,5.09,4.57,5.16,4.64,-4.64,-4.58,-3.99,0.45,0.52,0.52
87.22,5.03,4.49,5.12,4.58,-4.58,-4.60,-4.00,0.45,0.54,0.54
88.09,5.03,4.48,5.09,4.53,-4.53,-4.61,-4.01,0.50,0.56,0.55
88.97,5.03,4.44,5.06,4.48,-4.48,-4.62,-4.02,0.54,0.57,0.59
89.86,5.03,4.43,5.03,4.44,-4.44,-4.63,-4.04,0.58,0.59,0.60
90.76,5.03,4.42,5.02,4.41,-4.41,-4.64,-4.06,0.62,0.60,0.60
91.66,5.03,4.40,5.01,4.39,-4.39,-4.65,-4.08,0.64,0.62,0.63
92.58,5.03,4.41,5.01,4.38,-4.38,-4.67,-4.10,0.65,0.63,0.62
93.51,5.03,4.38,5.01,4.38,-4.38,-4.68,-4.13,0.65,0.63,0.64
94.44,5.03,4.38,5.02,4.38,-4.38,-4.69,-4.16,0.64,0.64,0.65
95.39,5.03,4.38,5.04,4.39,-4.39,-4.70,-4.20,0.63,0.64,0.65
96.34,5.03,4.40,5.04,4.40,-4.40,-4.71,-4.24,0.63,0.64,0.63
97.30,5.03,4.40,5.04,4.40,-4.40,-4.72,-4.28,0.62,0.64,0.63
98.28,5.03,4.41,5.03,4.40,-4.40,-4.73,-4.32,0.62,0.63,0.62
99.26,5.03,4.41,5.02,4.40,-4.40,-4.74,-4.36,0.63,0.62,0.61
100.25,5.03,4.42,5.01,4.40,-4.40,-4.75,-4.41,0.63,0.60,0.61
101.25,5.03,4.44,4.99,4.40,-4.40,-4.75,-4.45,0.62,0.59,0.59
102.27,5.03,4.46,4.98,4.42,-4.42,-4.76,-4.50,0.61,0.56,0.57
103.29,5.03,4.49,4.97,4.43,-4.43,-4.77,-4.55,0.60,0.54,0.54
104.32,4.98,4.46,4.94,4.44,-4.44,-4.78,-4.60,0.54,0.51,0.52
105.37,4.86,4.37,4.92,4.45,-4.45,-4.78,-4.66,0.41,0.47,0.49
106.42,4.80,4.35,4.89,4.45,-4.45,-4.79,-4.71,0.34,0.43,0.45
107.48,4.80,4.40,4.85,4.46,-4.46,-4.80,-4.76,0.34,0.39,0.40
108.56,4.80,4.46,4.82,4.48,-4.48,-4.80,-4.81,0.32,0.34,0.34
109.64,4.80,4.51,4.78,4.49,-4.49,-4.81,-4.86,0.31,0.29,0.29
110.74,4.80,4.56,4.74,4.51,-4.51,-4.81,-4.91,0.29,0.24,0.24
111.85,4.80,4.61,4.71,4.53,-4.53,-4.82,-4.96,0.27,0.18,0.19
112.97,4.78,4.65,4.68,4.55,-4.55,-4.82,-5.00,0.23,0.13,0.12
114.10,4.57,4.49,4.65,4.58,-4.58,-4.83,-5.05,-0.01,0.07,0.08
115.24,4.57,4.55,4.63,4.61,-4.61,-4.83,-5.09,-0.04,0.02,0.02
116.39,4.57,4.61,4.63,4.65,-4.65,-4.83,-5.12,-0.09,-0.03,-0.04
117.55,4.57,4.66,4.62,4.69,-4.69,-4.83,-5.15,-0.12,-0.07,-0.09
118.73,4.57,4.70,4.61,4.72,-4.72,-4.83,-5.18,-0.15,-0.11,-0.14
119.92,4.57,4.73,4.59,4.74,-4.74,-4.84,-5.20,-0.17,-0.15,-0.16
121.12,4.57,4.77,4.57,4.75,-4.75,-4.84,-5.22,-0.18,-0.18,-0.20
122.33,4.57,4.79,4.54,4.76,-4.76,-4.84,-5.24,-0.19,-0.21,-0.23
123.55,4.57,4.80,4.53,4.76,-4.76,-4.84,-5.24,-0.19,-0.24,-0.23
124.79,4.57,4.83,4.51,4.77,-4.77,-4.83,-5.25,-0.20,-0.26,-0.26
126.03,4.57,4.84,4.49,4.77,-4.77,-4.83,-5.24,-0.20,-0.28,-0.27
127.29,4.57,4.85,4.49,4.79,-4.79,-4.83,-5.23,-0.22,-0.30,-0.29
128.57,4.52,4.83,4.48,4.79,-4.79,-4.83,-5.22,-0.27,-0.31,-0.31
129.85,4.36,4.68,4.46,4.79,-4.79,-4.82,-5.20,-0.43,-0.33,-0.32
131.15,4.34,4.68,4.43,4.78,-4.78,-4.82,-5.18,-0.44,-0.34,-0.34
132.46,4.34,4.70,4.41,4.77,-4.77,-4.81,-5.15,-0.43,-0.36,-0.36
133.79,4.34,4.71,4.39,4.77,-4.77,-4.81,-5.11,-0.43,-0.38,-0.37
135.12,4.34,4.74,4.36,4.76,-4.76,-4.80,-5.08,-0.42,-0.40,-0.40
136.48,4.34,4.75,4.33,4.75,-4.75,-4.80,-5.03,-0.41,-0.41,-0.41
137.84,4.34,4.77,4.30,4.73,-4.73,-4.79,-4.99,-0.39,-0.44,-0.43
139.22,4.34,4.81,4.26,4.72,-4.72,-4.78,-4.94,-0.38,-0.46,-0.47
140.61,4.34,4.84,4.24,4.72,-4.72,-4.77,-4.89,-0.38,-0.48,-0.50
142.02,4.23,4.74,4.21,4.72,-4.72,-4.76,-4.84,-0.49,-0.51,-0.51
143.44,4.14,4.68,4.18,4.72,-4.72,-4.75,-4.79,-0.58,-0.54,-0.54
144.87,4.11,4.68,4.15,4.73,-4.73,-4.74,-4.73,-0.62,-0.58,-0.57
146.32,4.11,4.71,4.11,4.73,-4.73,-4.73,-4.68,-0.62,-0.62,-0.60
147.78,4.06,4.69,4.05,4.72,-4.72,-4.72,-4.63,-0.66,-0.67,-0.63
149.26,3.95,4.63,4.00,4.72,-4.72,-4.71,-4.57,-0.77,-0.72,-0.69
150.75,3.89,4.64,3.95,4.72,-4.72,-4.69,-4.52,-0.83,-0.77,-0.75
152.26,3.89,4.69,3.89,4.71,-4.71,-4.68,-4.46,-0.82,-0.83,-0.80
153.78,3.89,4.76,3.82,4.70,-4.70,-4.66,-4.41,-0.82,-0.89,-0.87
155.32,3.84,4.79,3.75,4.70,-4.70,-4.65,-4.36,-0.86,-0.95,-0.95
156.88,3.68,4.69,3.68,4.69,-4.69,-4.63,-4.31,-1.01,-1.01,-1.01
158.44,3.66,4.73,3.62,4.69,-4.69,-4.61,-4.27,-1.03,-1.06,-1.08
160.03,3.60,4.74,3.56,4.68,-4.68,-4.60,-4.22,-1.08,-1.12,-1.14
161.63,3.46,4.65,3.50,4.66,-4.66,-4.58,-4.18,-1.20,-1.17,-1.19
163.24,3.43,4.66,3.43,4.64,-4.64,-4.56,-4.14,-1.21,-1.21,-1.23
164.88,3.43,4.69,3.39,4.63,-4.63,-4.54,-4.10,-1.20,-1.24,-1.26
166.53,3.25,4.54,3.35,4.61,-4.61,-4.52,-4.07,-1.37,-1.27,-1.29
168.19,3.20,4.50,3.31,4.59,-4.59,-4.50,-4.04,-1.39,-1.28,-1.31
169.87,3.20,4.51,3.27,4.56,-4.56,-4.47,-4.01,-1.36,-1.29,-1.31
171.57,3.20,4.51,3.23,4.52,-4.52,-4.45,-3.98,-1.33,-1.29,-1.31
173.29,3.20,4.50,3.20,4.49,-4.49,-4.43,-3.96,-1.29,-1.29,-1.30
175.02,3.20,4.47,3.18,4.47,-4.47,-4.40,-3.94,-1.27,-1.29,-1.28
176.77,3.20,4.47,3.16,4.44,-4.44,-4.38,-3.92,-1.24,-1.28,-1.27
178.54,3.20,4.46,3.15,4.42,-4.42,-4.35,-3.91,-1.22,-1.27,-1.26
180.32,3.20,4.44,3.13,4.39,-4.39,-4.33,-3.90,-1.19,-1.26,-1.24
182.13,3.20,4.43,3.10,4.36,-4.36,-4.30,-3.89,-1.16,-1.25,-1.23
183.95,3.11,4.33,3.08,4.33,-4.33,-4.27,-3.89,-1.23,-1.25,-1.22
185.79,2.98,4.20,3.07,4.31,-4.31,-4.24,-3.88,-1.33,-1.25,-1.23
187.65,2.97,4.21,3.03,4.28,-4.28,-4.22,-3.89,-1.31,-1.25,-1.24
189.52,2.97,4.22,2.99,4.24,-4.24,-4.19,-3.89,-1.27,-1.25,-1.25
191.42,2.97,4.23,2.94,4.20,-4.20,-4.16,-3.90,-1.23,-1.26,-1.26
193.33,2.97,4.24,2.89,4.16,-4.16,-4.12,-3.91,-1.19,-1.27,-1.28
195.27,2.87,4.15,2.84,4.12,-4.12,-4.09,-3.92,-1.25,-1.28,-1.28
197.22,2.77,4.06,2.80,4.09,-4.09,-4.06,-3.93,-1.32,-1.29,-1.29
199.19,2.75,4.07,2.76,4.06,-4.06,-4.03,-3.94,-1.31,-1.30,-1.32
201.18,2.75,4.07,2.72,4.04,-4.04,-3.99,-3.96,-1.29,-1.32,-1.32
203.19,2.70,4.03,2.68,4.01,-4.01,-3.96,-3.98,-1.31,-1.33,-1.33
205.23,2.58,3.93,2.64,3.99,-3.99,-3.92,-4.00,-1.41,-1.35,-1.35
207.28,2.52,3.87,2.61,3.97,-3.97,-3.89,-4.02,-1.45,-1.36,-1.35
209.35,2.52,3.89,2.58,3.95,-3.95,-3.85,-4.04,-1.43,-1.37,-1.37
211.44,2.52,3.91,2.54,3.91,-3.91,-3.81,-4.06,-1.40,-1.38,-1.39
213.56,2.52,3.91,2.50,3.88,-3.88,-3.78,-4.08,-1.36,-1.39,-1.39
215.69,2.52,3.90,2.45,3.85,-3.85,-3.74,-4.10,-1.33,-1.40,-1.39
217.85,2.52,3.92,2.42,3.82,-3.82,-3.70,-4.12,-1.30,-1.40,-1.40
220.03,2.43,3.84,2.39,3.80,-3.80,-3.66,-4.13,-1.37,-1.41,-1.41
222.23,2.33,3.76,2.35,3.77,-3.77,-3.62,-4.15,-1.44,-1.42,-1.43
224.45,2.29,3.71,2.31,3.73,-3.73,-3.58,-4.16,-1.45,-1.42,-1.43
226.70,2.29,3.71,2.27,3.70,-3.70,-3.54,-4.17,-1.41,-1.43,-1.42
228.96,2.29,3.72,2.23,3.66,-3.66,-3.50,-4.17,-1.37,-1.43,-1.43
231.25,2.12,3.54,2.19,3.62,-3.62,-3.45,-4.17,-1.50,-1.43,-1.43
233.57,2.06,3.49,2.15,3.58,-3.58,-3.41,-4.17,-1.52,-1.43,-1.43
235.90,2.06,3.50,2.10,3.53,-3.53,-3.37,-4.16,-1.47,-1.43,-1.44
238.26,2.06,3.49,2.05,3.48,-3.48,-3.32,-4.14,-1.42,-1.43,-1.43
240.64,2.06,3.49,2.01,3.43,-3.43,-3.28,-4.12,-1.37,-1.42,-1.43
243.05,2.06,3.47,1.97,3.39,-3.39,-3.23,-4.10,-1.33,-1.42,-1.41
245.48,1.90,3.31,1.93,3.34,-3.34,-3.18,-4.06,-1.44,-1.41,-1.41
247.93,1.84,3.23,1.89,3.29,-3.29,-3.14,-4.02,-1.46,-1.40,-1.39
250.41,1.84,3.24,1.84,3.24,-3.24,-3.09,-3.98,-1.40,-1.39,-1.40
252.92,1.84,3.22,1.80,3.19,-3.19,-3.04,-3.92,-1.35,-1.38,-1.38
255.45,1.84,3.20,1.76,3.14,-3.14,-2.99,-3.86,-1.30,-1.37,-1.36
258.00,1.70,3.05,1.72,3.08,-3.08,-2.94,-3.79,-1.38,-1.36,-1.35
260.58,1.61,2.95,1.67,3.02,-3.02,-2.89,-3.72,-1.41,-1.35,-1.35
263.19,1.61,2.94,1.62,2.95,-2.95,-2.84,-3.64,-1.34,-1.33,-1.33
265.82,1.61,2.93,1.57,2.88,-2.88,-2.79,-3.55,-1.27,-1.31,-1.32
268.48,1.55,2.85,1.51,2.81,-2.81,-2.74,-3.46,-1.26,-1.30,-1.30
271.16,1.42,2.70,1.46,2.74,-2.74,-2.69,-3.36,-1.32,-1.28,-1.28
273.87,1.38,2.64,1.41,2.66,-2.66,-2.63,-3.26,-1.29,-1.25,-1.26
276.61,1.38,2.61,1.35,2.58,-2.58,-2.58,-3.15,-1.21,-1.23,-1.23
279.38,1.38,2.59,1.30,2.51,-2.51,-2.52,-3.03,-1.13,-1.21,-1.21
282.17,1.21,2.39,1.25,2.43,-2.43,-2.47,-2.92,-1.22,-1.18,-1.18
284.99,1.15,2.31,1.20,2.35,-2.35,-2.41,-2.79,-1.20,-1.15,-1.16
287.84,1.15,2.28,1.15,2.27,-2.27,-2.35,-2.67,-1.12,-1.12,-1.13
290.72,1.15,2.24,1.10,2.20,-2.20,-2.29,-2.54,-1.05,-1.09,-1.09
293.63,1.04,2.10,1.05,2.12,-2.12,-2.24,-2.41,-1.08,-1.07,-1.07
296.57,0.94,1.98,1.00,2.04,-2.04,-2.18,-2.28,-1.10,-1.04,-1.04
299.53,0.92,1.93,0.96,1.97,-1.97,-2.12,-2.14,-1.05,-1.01,-1.01
302.53,0.92,1.91,0.92,1.91,-1.91,-2.05,-2.01,-0.99,-0.99,-0.99
305.55,0.92,1.87,0.87,1.83,-1.83,-1.99,-1.87,-0.92,-0.97,-0.95
308.61,0.87,1.81,0.82,1.77,-1.77,-1.93,-1.73,-0.90,-0.95,-0.94
311.69,0.72,1.64,0.77,1.70,-1.70,-1.86,-1.59,-0.99,-0.93,-0.92
314.81,0.70,1.59,0.72,1.64,-1.64,-1.80,-1.45,-0.94,-0.92,-0.89
317.96,0.70,1.59,0.67,1.57,-1.57,-1.73,-1.30,-0.87,-0.90,-0.89
321.14,0.69,1.58,0.61,1.50,-1.50,-1.66,-1.16,-0.81,-0.89,-0.89
324.35,0.52,1.40,0.55,1.43,-1.43,-1.59,-1.02,-0.91,-0.88,-0.89
327.59,0.47,1.35,0.48,1.35,-1.35,-1.52,-0.87,-0.88,-0.87,-0.88
330.87,0.47,1.34,0.41,1.27,-1.27,-1.45,-0.73,-0.80,-0.86,-0.87
334.18,0.36,1.22,0.34,1.19,-1.19,-1.37,-0.59,-0.83,-0.85,-0.86
337.52,0.25,1.10,0.27,1.10,-1.10,-1.30,-0.44,-0.85,-0.84,-0.85
340.90,0.24,1.06,0.20,1.02,-1.02,-1.22,-0.30,-0.78,-0.82,-0.82
344.30,0.06,0.87,0.14,0.94,-0.94,-1.14,-0.15,-0.88,-0.81,-0.82
347.75,0.01,0.80,0.08,0.87,-0.87,-1.06,-0.01,-0.86,-0.79,-0.80
351.23,0.01,0.78,0.01,0.78,-0.78,-0.98,0.14,-0.77,-0.77,-0.77
354.74,-0.09,0.66,-0.06,0.68,-0.68,-0.89,0.29,-0.77,-0.75,-0.75
358.28,-0.20,0.52,-0.14,0.58,-0.58,-0.80,0.43,-0.79,-0.72,-0.72
361.87,-0.22,0.48,-0.20,0.50,-0.50,-0.72,0.58,-0.72,-0.70,-0.70
365.49,-0.22,0.45,-0.26,0.41,-0.41,-0.62,0.73,-0.63,-0.67,-0.67
369.14,-0.24,0.41,-0.34,0.31,-0.31,-0.53,0.87,-0.55,-0.65,-0.65
372.83,-0.38,0.24,-0.42,0.21,-0.21,-0.43,1.02,-0.59,-0.63,-0.62
376.56,-0.44,0.16,-0.49,0.12,-0.12,-0.33,1.17,-0.56,-0.61,-0.61
380.33,-0.54,0.03,-0.58,0.01,-0.01,-0.23,1.31,-0.55,-0.59,-0.58
384.13,-0.65,-0.09,-0.65,-0.08,0.08,-0.13,1.46,-0.57,-0.57,-0.56
387.97,-0.82,-0.27,-0.74,-0.19,0.19,-0.02,1.61,-0.63,-0.55,-0.55
391.85,-0.89,-0.35,-0.83,-0.29,0.29,0.09,1.75,-0.60,-0.54,-0.54
395.77,-0.90,-0.37,-0.92,-0.39,0.39,0.21,1.90,-0.51,-0.53,-0.53
399.73,-0.96,-0.44,-1.01,-0.49,0.49,0.33,2.05,-0.47,-0.52,-0.52
403.72,-1.17,-0.66,-1.12,-0.61,0.61,0.45,2.19,-0.56,-0.51,-0.51
407.76,-1.33,-0.83,-1.23,-0.73,0.73,0.58,2.34,-0.61,-0.50,-0.50
411.84,-1.36,-0.87,-1.34,-0.84,0.84,0.71,2.48,-0.52,-0.50,-0.49
415.96,-1.36,-0.88,-1.45,-0.95,0.95,0.85,2.62,-0.41,-0.49,-0.48
420.12,-1.53,-1.05,-1.56,-1.07,1.07,0.99,2.76,-0.46,-0.49,-0.48
424.32,-1.60,-1.12,-1.68,-1.19,1.19,1.13,2.90,-0.41,-0.49,-0.48
428.56,-1.75,-1.27,-1.81,-1.32,1.32,1.28,3.03,-0.43,-0.48,-0.48
432.85,-1.90,-1.42,-1.94,-1.46,1.46,1.44,3.16,-0.44,-0.48,-0.49
437.18,-2.12,-1.65,-2.07,-1.60,1.60,1.60,3.29,-0.53,-0.47,-0.48
441.55,-2.24,-1.78,-2.21,-1.74,1.74,1.77,3.42,-0.50,-0.47,-0.47
445.96,-2.43,-1.96,-2.35,-1.89,1.89,1.94,3.53,-0.55,-0.46,-0.47
450.42,-2.50,-2.04,-2.49,-2.04,2.04,2.11,3.65,-0.46,-0.45,-0.46
454.93,-2.67,-2.22,-2.66,-2.21,2.21,2.30,3.76,-0.46,-0.44,-0.45
459.48,-2.77,-2.33,-2.83,-2.40,2.40,2.48,3.86,-0.37,-0.43,-0.44
464.07,-3.02,-2.60,-3.00,-2.58,2.58,2.68,3.95,-0.44,-0.42,-0.42
468.71,-3.15,-2.75,-3.16,-2.76,2.76,2.87,4.04,-0.39,-0.40,-0.40
473.40,-3.32,-2.93,-3.33,-2.95,2.95,3.08,4.12,-0.37,-0.38,-0.39
478.13,-3.40,-3.04,-3.50,-3.14,3.14,3.28,4.19,-0.26,-0.36,-0.36
482.91,-3.61,-3.27,-3.68,-3.34,3.34,3.49,4.25,-0.27,-0.33,-0.34
487.74,-3.87,-3.56,-3.86,-3.55,3.55,3.70,4.30,-0.32,-0.31,-0.31
492.62,-4.13,-3.85,-4.05,-3.77,3.77,3.91,4.35,-0.36,-0.29,-0.28
497.55,-4.29,-4.03,-4.25,-3.99,3.99,4.13,4.38,-0.30,-0.26,-0.26
502.52,-4.45,-4.22,-4.45,-4.21,4.21,4.34,4.41,-0.24,-0.23,-0.23
