frequency,raw,error,smoothed,error_smoothed,equalization,parametric_eq,equalized_raw,equalized_smoothed,target
20,-16.84,-14.28,-16.91,-14.34,6.00,3.01,-10.84,-10.91,-2.55
21,-16.29,-13.73,-16.32,-13.74,6.00,3.45,-10.29,-10.32,-2.56
22,-15.75,-13.19,-15.73,-13.16,6.00,3.93,-9.75,-9.73,-2.56
23,-15.19,-12.63,-15.16,-12.58,6.00,4.46,-9.19,-9.16,-2.56
24,-14.64,-12.08,-14.59,-12.02,6.00,5.01,-8.64,-8.59,-2.56
25,-14.09,-11.52,-14.04,-11.46,6.00,5.59,-8.09,-8.04,-2.56
26,-13.54,-10.97,-13.50,-10.92,6.00,6.17,-7.54,-7.50,-2.57
27,-13.00,-10.43,-12.97,-10.38,6.00,6.72,-7.00,-6.97,-2.57
28,-12.45,-9.87,-12.44,-9.86,6.00,7.20,-6.45,-6.44,-2.58
29,-11.93,-9.35,-11.93,-9.34,6.00,7.58,-5.93,-5.93,-2.58
30,-11.42,-8.83,-11.44,-8.84,6.00,7.81,-5.42,-5.44,-2.59
31,-10.91,-8.32,-10.94,-8.34,6.00,7.85,-4.91,-4.94,-2.59
32,-10.43,-7.83,-10.46,-7.86,6.00,7.72,-4.43,-4.46,-2.60
33,-9.98,-7.38,-9.99,-7.38,6.00,7.44,-3.98,-3.99,-2.60
34,-9.53,-6.92,-9.53,-6.92,6.00,7.03,-3.53,-3.53,-2.61
35,-9.09,-6.47,-9.09,-6.47,5.91,6.53,-3.18,-3.18,-2.62
36,-8.66,-6.03,-8.66,-6.03,5.72,6.00,-2.94,-2.94,-2.62
37,-8.24,-5.60,-8.24,-5.61,5.44,5.44,-2.80,-2.80,-2.63
38,-7.85,-5.21,-7.83,-5.19,5.11,4.88,-2.74,-2.73,-2.64
39,-7.45,-4.80,-7.43,-4.78,4.75,4.33,-2.70,-2.68,-2.65
40,-7.06,-4.39,-7.04,-4.38,4.38,3.79,-2.68,-2.67,-2.66
41,-6.67,-3.99,-6.66,-3.98,3.98,3.28,-2.69,-2.68,-2.68
42,-6.29,-3.60,-6.29,-3.60,3.60,2.79,-2.69,-2.69,-2.69
43,-5.92,-3.22,-5.92,-3.22,3.22,2.31,-2.70,-2.70,-2.70
44,-5.56,-2.84,-5.56,-2.84,2.84,1.85,-2.72,-2.72,-2.71
45,-5.21,-2.48,-5.21,-2.48,2.48,1.41,-2.73,-2.73,-2.73
46,-4.86,-2.11,-4.86,-2.12,2.12,0.99,-2.74,-2.75,-2.74
47,-4.52,-1.76,-4.52,-1.76,1.76,0.58,-2.76,-2.76,-2.76
48,-4.19,-1.41,-4.19,-1.42,1.42,0.18,-2.77,-2.78,-2.78
49,-3.87,-1.07,-3.87,-1.07,1.07,-0.20,-2.79,-2.79,-2.80
50,-3.56,-0.74,-3.55,-0.74,0.74,-0.57,-2.82,-2.81,-2.81
51,-3.25,-0.41,-3.24,-0.41,0.41,-0.92,-2.84,-2.83,-2.83
52,-2.94,-0.08,-2.94,-0.09,0.09,-1.26,-2.85,-2.86,-2.85
53,-2.65,0.23,-2.65,0.23,-0.23,-1.59,-2.88,-2.88,-2.88
54,-2.36,0.54,-2.36,0.54,-0.54,-1.90,-2.90,-2.90,-2.90
55,-2.08,0.84,-2.08,0.85,-0.85,-2.20,-2.93,-2.93,-2.92
56,-1.80,1.15,-1.80,1.15,-1.15,-2.47,-2.95,-2.95,-2.95
57,-1.54,1.43,-1.53,1.45,-1.45,-2.73,-2.99,-2.98,-2.97
58,-1.27,1.73,-1.26,1.75,-1.75,-2.97,-3.01,-3.01,-3.00
59,-1.02,2.01,-1.00,2.04,-2.04,-3.19,-3.05,-3.03,-3.03
60,-0.76,2.30,-0.74,2.32,-2.32,-3.38,-3.08,-3.06,-3.05
61,-0.51,2.57,-0.49,2.60,-2.60,-3.56,-3.10,-3.09,-3.08
62,-0.26,2.85,-0.25,2.86,-2.86,-3.71,-3.12,-3.12,-3.11
63,-0.02,3.12,-0.02,3.13,-3.13,-3.85,-3.14,-3.15,-3.14
64,0.23,3.41,0.20,3.38,-3.38,-3.96,-3.15,-3.18,-3.17
65,0.44,3.65,0.41,3.62,-3.62,-4.06,-3.18,-3.21,-3.21
66,0.64,3.88,0.61,3.86,-3.86,-4.14,-3.22,-3.25,-3.24
67,0.82,4.10,0.81,4.09,-4.09,-4.21,-3.26,-3.28,-3.27
68,0.99,4.30,0.99,4.30,-4.30,-4.27,-3.31,-3.31,-3.31
69,1.15,4.50,1.16,4.51,-4.51,-4.32,-3.36,-3.35,-3.34
70,1.30,4.68,1.32,4.71,-4.71,-4.36,-3.41,-3.38,-3.38
71,1.45,4.87,1.48,4.90,-4.90,-4.40,-3.44,-3.42,-3.42
72,1.60,5.06,1.62,5.08,-5.08,-4.43,-3.48,-3.46,-3.45
73,1.74,5.23,1.75,5.25,-5.25,-4.46,-3.51,-3.50,-3.49
74,1.89,5.42,1.88,5.41,-5.41,-4.49,-3.52,-3.54,-3.53
75,2.01,5.58,1.99,5.57,-5.57,-4.52,-3.56,-3.57,-3.57
76,2.12,5.73,2.11,5.72,-5.72,-4.55,-3.60,-3.61,-3.61
77,2.21,5.86,2.21,5.86,-5.86,-4.58,-3.65,-3.65,-3.65
78,2.30,5.99,2.31,5.99,-5.99,-4.61,-3.69,-3.69,-3.69
79,2.38,6.11,2.39,6.12,-6.12,-4.65,-3.74,-3.73,-3.73
80,2.47,6.24,2.47,6.24,-6.24,-4.69,-3.77,-3.77,-3.77
81,2.54,6.35,2.54,6.35,-6.35,-4.73,-3.81,-3.81,-3.81
82,2.60,6.45,2.60,6.45,-6.45,-4.78,-3.85,-3.85,-3.85
83,2.66,6.55,2.65,6.54,-6.54,-4.83,-3.88,-3.89,-3.89
84,2.70,6.64,2.70,6.63,-6.63,-4.88,-3.93,-3.93,-3.93
85,2.74,6.72,2.74,6.71,-6.71,-4.95,-3.97,-3.98,-3.97
86,2.76,6.78,2.77,6.79,-6.79,-5.01,-4.02,-4.02,-4.02
87,2.79,6.85,2.80,6.85,-6.85,-5.08,-4.06,-4.06,-4.06
88,2.81,6.91,2.81,6.92,-6.92,-5.15,-4.10,-4.10,-4.10
89,2.83,6.97,2.83,6.97,-6.97,-5.23,-4.14,-4.14,-4.14
90,2.84,7.02,2.84,7.02,-7.02,-5.31,-4.18,-4.19,-4.18
91,2.84,7.07,2.84,7.07,-7.07,-5.40,-4.23,-4.23,-4.22
92,2.84,7.11,2.84,7.11,-7.11,-5.49,-4.27,-4.27,-4.26
93,2.83,7.14,2.84,7.15,-7.15,-5.58,-4.32,-4.30,-4.31
94,2.83,7.18,2.84,7.18,-7.18,-5.68,-4.35,-4.34,-4.35
95,2.81,7.20,2.83,7.21,-7.21,-5.78,-4.40,-4.38,-4.39
96,2.80,7.23,2.81,7.23,-7.23,-5.89,-4.43,-4.43,-4.43
97,2.80,7.27,2.79,7.26,-7.26,-5.99,-4.45,-4.47,-4.47
98,2.78,7.29,2.76,7.27,-7.27,-6.10,-4.49,-4.51,-4.51
99,2.75,7.30,2.73,7.29,-7.29,-6.22,-4.54,-4.56,-4.55
100,2.72,7.31,2.70,7.30,-7.30,-6.33,-4.58,-4.60,-4.58
101,2.68,7.30,2.67,7.31,-7.31,-6.44,-4.63,-4.64,-4.62
102,2.64,7.30,2.64,7.32,-7.32,-6.56,-4.68,-4.68,-4.66
104,2.57,7.31,2.61,7.33,-7.33,-6.79,-4.76,-4.72,-4.73
105,2.54,7.31,2.58,7.34,-7.34,-6.91,-4.80,-4.77,-4.77
106,2.51,7.32,2.55,7.35,-7.35,-7.02,-4.84,-4.80,-4.81
107,2.50,7.34,2.51,7.35,-7.35,-7.14,-4.85,-4.84,-4.84
108,2.48,7.36,2.48,7.36,-7.36,-7.25,-4.88,-4.88,-4.88
109,2.46,7.37,2.45,7.36,-7.36,-7.36,-4.90,-4.91,-4.91
110,2.43,7.38,2.41,7.36,-7.36,-7.47,-4.93,-4.95,-4.94
111,2.40,7.38,2.38,7.36,-7.36,-7.57,-4.96,-4.99,-4.98
112,2.35,7.36,2.34,7.36,-7.36,-7.67,-5.01,-5.02,-5.01
113,2.32,7.37,2.31,7.36,-7.36,-7.77,-5.04,-5.06,-5.04
114,2.28,7.36,2.27,7.36,-7.36,-7.86,-5.08,-5.09,-5.07
115,2.25,7.36,2.23,7.36,-7.36,-7.94,-5.11,-5.12,-5.11
117,2.16,7.33,2.20,7.35,-7.35,-8.09,-5.19,-5.16,-5.17
118,2.12,7.32,2.16,7.35,-7.35,-8.16,-5.23,-5.19,-5.20
119,2.08,7.31,2.12,7.34,-7.34,-8.22,-5.26,-5.23,-5.22
120,2.06,7.32,2.08,7.34,-7.34,-8.27,-5.28,-5.26,-5.25
121,2.03,7.31,2.03,7.33,-7.33,-8.31,-5.30,-5.30,-5.28
123,1.99,7.33,1.99,7.32,-7.32,-8.38,-5.33,-5.33,-5.33
124,1.98,7.34,1.95,7.32,-7.32,-8.40,-5.33,-5.37,-5.36
125,1.94,7.33,1.91,7.31,-7.31,-8.41,-5.37,-5.40,-5.39
126,1.91,7.32,1.87,7.30,-7.30,-8.42,-5.39,-5.43,-5.41
128,1.82,7.28,1.83,7.29,-7.29,-8.41,-5.47,-5.46,-5.46
129,1.77,7.26,1.79,7.28,-7.28,-8.39,-5.50,-5.48,-5.48
130,1.72,7.23,1.75,7.26,-7.26,-8.37,-5.54,-5.51,-5.51
131,1.68,7.21,1.71,7.25,-7.25,-8.34,-5.57,-5.54,-5.53
133,1.62,7.19,1.66,7.23,-7.23,-8.27,-5.61,-5.57,-5.57
134,1.61,7.21,1.61,7.22,-7.22,-8.23,-5.61,-5.60,-5.59
135,1.59,7.21,1.57,7.20,-7.20,-8.18,-5.61,-5.63,-5.61
137,1.55,7.21,1.52,7.18,-7.18,-8.08,-5.63,-5.66,-5.65
138,1.51,7.19,1.48,7.17,-7.17,-8.02,-5.65,-5.69,-5.67
140,1.44,7.15,1.44,7.15,-7.15,-7.90,-5.71,-5.71,-5.71
141,1.39,7.12,1.40,7.13,-7.13,-7.84,-5.74,-5.73,-5.73
142,1.35,7.10,1.36,7.12,-7.12,-7.78,-5.77,-5.76,-5.75
144,1.29,7.07,1.32,7.10,-7.10,-7.65,-5.81,-5.78,-5.78
145,1.25,7.05,1.28,7.08,-7.08,-7.58,-5.83,-5.80,-5.80
147,1.21,7.04,1.24,7.06,-7.06,-7.45,-5.85,-5.83,-5.83
148,1.20,7.04,1.19,7.04,-7.04,-7.38,-5.84,-5.85,-5.84
150,1.16,7.03,1.15,7.02,-7.02,-7.26,-5.86,-5.88,-5.87
151,1.14,7.03,1.10,7.00,-7.00,-7.19,-5.86,-5.90,-5.89
153,1.08,7.00,1.06,6.98,-6.98,-7.07,-5.90,-5.92,-5.91
154,1.04,6.97,1.02,6.96,-6.96,-7.01,-5.92,-5.94,-5.93
156,0.97,6.92,0.99,6.94,-6.94,-6.89,-5.97,-5.96,-5.95
157,0.93,6.90,0.95,6.92,-6.92,-6.84,-5.99,-5.97,-5.96
159,0.87,6.86,0.91,6.90,-6.90,-6.73,-6.03,-5.99,-5.99
160,0.85,6.85,0.87,6.88,-6.88,-6.68,-6.03,-6.01,-6.00
162,0.81,6.83,0.83,6.86,-6.86,-6.59,-6.04,-6.03,-6.02
164,0.78,6.83,0.79,6.83,-6.83,-6.50,-6.05,-6.05,-6.04
165,0.76,6.82,0.75,6.81,-6.81,-6.46,-6.05,-6.06,-6.05
167,0.73,6.80,0.70,6.78,-6.78,-6.38,-6.05,-6.08,-6.07
169,0.67,6.76,0.66,6.76,-6.76,-6.31,-6.08,-6.09,-6.09
170,0.65,6.75,0.62,6.73,-6.73,-6.28,-6.08,-6.11,-6.10
172,0.58,6.70,0.58,6.70,-6.70,-6.22,-6.12,-6.12,-6.12
174,0.52,6.66,0.53,6.67,-6.67,-6.17,-6.15,-6.14,-6.13
175,0.50,6.64,0.49,6.64,-6.64,-6.14,-6.14,-6.15,-6.14
177,0.44,6.60,0.45,6.61,-6.61,-6.10,-6.17,-6.17,-6.16
179,0.38,6.56,0.41,6.59,-6.59,-6.06,-6.20,-6.18,-6.17
181,0.33,6.52,0.36,6.56,-6.56,-6.03,-6.22,-6.19,-6.19
183,0.28,6.48,0.32,6.53,-6.53,-6.01,-6.24,-6.21,-6.20
184,0.27,6.48,0.28,6.49,-6.49,-6.00,-6.22,-6.22,-6.21
186,0.24,6.46,0.24,6.46,-6.46,-5.98,-6.22,-6.23,-6.22
188,0.22,6.45,0.19,6.43,-6.43,-5.97,-6.21,-6.24,-6.23
190,0.18,6.43,0.15,6.40,-6.40,-5.97,-6.22,-6.25,-6.24
192,0.13,6.39,0.11,6.37,-6.37,-5.96,-6.23,-6.26,-6.25
194,0.09,6.36,0.06,6.33,-6.33,-5.97,-6.24,-6.27,-6.27
196,0.03,6.31,0.02,6.30,-6.30,-5.97,-6.27,-6.28,-6.28
198,-0.04,6.25,-0.02,6.27,-6.27,-5.98,-6.30,-6.29,-6.29
200,-0.09,6.21,-0.07,6.23,-6.23,-6.00,-6.32,-6.30,-6.29
202,-0.13,6.18,-0.11,6.20,-6.20,-6.01,-6.33,-6.31,-6.30
204,-0.17,6.14,-0.15,6.17,-6.17,-6.03,-6.34,-6.32,-6.31
206,-0.20,6.12,-0.18,6.15,-6.15,-6.05,-6.35,-6.33,-6.32
208,-0.24,6.09,-0.22,6.12,-6.12,-6.08,-6.36,-6.34,-6.33
210,-0.25,6.09,-0.24,6.10,-6.10,-6.10,-6.35,-6.34,-6.33
212,-0.28,6.06,-0.27,6.08,-6.08,-6.13,-6.36,-6.35,-6.34
214,-0.29,6.06,-0.29,6.07,-6.07,-6.15,-6.35,-6.36,-6.35
216,-0.30,6.06,-0.31,6.05,-6.05,-6.18,-6.35,-6.36,-6.36
218,-0.31,6.05,-0.33,6.04,-6.04,-6.21,-6.34,-6.37,-6.36
221,-0.33,6.04,-0.35,6.02,-6.02,-6.24,-6.35,-6.37,-6.37
223,-0.36,6.02,-0.37,6.01,-6.01,-6.27,-6.36,-6.38,-6.38
225,-0.39,5.99,-0.39,5.99,-5.99,-6.29,-6.38,-6.38,-6.38
227,-0.41,5.98,-0.41,5.98,-5.98,-6.31,-6.38,-6.39,-6.39
229,-0.44,5.95,-0.43,5.96,-5.96,-6.33,-6.40,-6.40,-6.39
232,-0.48,5.92,-0.46,5.95,-5.95,-6.36,-6.42,-6.40,-6.40
234,-0.50,5.91,-0.48,5.93,-5.93,-6.37,-6.43,-6.41,-6.40
236,-0.51,5.90,-0.50,5.92,-5.92,-6.38,-6.42,-6.41,-6.41
239,-0.52,5.90,-0.52,5.90,-5.90,-6.39,-6.42,-6.42,-6.41
241,-0.53,5.89,-0.54,5.89,-5.89,-6.40,-6.41,-6.42,-6.42
244,-0.55,5.88,-0.56,5.87,-5.87,-6.40,-6.42,-6.43,-6.42
246,-0.57,5.86,-0.57,5.86,-5.86,-6.39,-6.43,-6.43,-6.43
248,-0.58,5.85,-0.59,5.85,-5.85,-6.38,-6.43,-6.44,-6.43
251,-0.60,5.84,-0.60,5.84,-5.84,-6.37,-6.43,-6.44,-6.44
253,-0.62,5.82,-0.62,5.82,-5.82,-6.35,-6.44,-6.44,-6.44
256,-0.64,5.81,-0.63,5.81,-5.81,-6.32,-6.45,-6.44,-6.44
259,-0.66,5.79,-0.65,5.80,-5.80,-6.28,-6.46,-6.45,-6.45
261,-0.67,5.78,-0.66,5.79,-5.79,-6.25,-6.46,-6.45,-6.45
264,-0.68,5.78,-0.68,5.78,-5.78,-6.21,-6.46,-6.46,-6.46
266,-0.69,5.77,-0.69,5.77,-5.77,-6.18,-6.46,-6.46,-6.46
269,-0.71,5.75,-0.71,5.76,-5.76,-6.12,-6.46,-6.46,-6.46
272,-0.72,5.75,-0.72,5.74,-5.74,-6.06,-6.46,-6.47,-6.46
274,-0.73,5.74,-0.74,5.73,-5.73,-6.02,-6.46,-6.47,-6.47
277,-0.75,5.72,-0.75,5.72,-5.72,-5.96,-6.47,-6.47,-6.47
280,-0.77,5.70,-0.77,5.70,-5.70,-5.90,-6.47,-6.47,-6.47
283,-0.79,5.69,-0.78,5.69,-5.69,-5.83,-6.48,-6.48,-6.48
286,-0.81,5.67,-0.80,5.68,-5.68,-5.76,-6.48,-6.48,-6.48
288,-0.82,5.66,-0.82,5.66,-5.66,-5.72,-6.48,-6.48,-6.48
291,-0.84,5.64,-0.84,5.64,-5.64,-5.65,-6.48,-6.48,-6.48
294,-0.86,5.63,-0.86,5.63,-5.63,-5.59,-6.49,-6.49,-6.49
297,-0.88,5.61,-0.88,5.61,-5.61,-5.52,-6.49,-6.49,-6.49
300,-0.90,5.59,-0.90,5.59,-5.59,-5.46,-6.49,-6.49,-6.49
303,-0.92,5.57,-0.92,5.57,-5.57,-5.40,-6.49,-6.49,-6.49
306,-0.94,5.56,-0.94,5.56,-5.56,-5.34,-6.49,-6.49,-6.49
309,-0.96,5.54,-0.96,5.54,-5.54,-5.28,-6.50,-6.50,-6.50
312,-0.98,5.52,-0.98,5.52,-5.52,-5.23,-6.50,-6.50,-6.50
316,-1.01,5.49,-1.00,5.50,-5.50,-5.16,-6.50,-6.50,-6.50
319,-1.03,5.47,-1.03,5.47,-5.47,-5.11,-6.50,-6.50,-6.50
322,-1.05,5.45,-1.05,5.45,-5.45,-5.07,-6.50,-6.50,-6.50
325,-1.07,5.44,-1.08,5.43,-5.43,-5.02,-6.49,-6.50,-6.50
328,-1.10,5.41,-1.10,5.40,-5.40,-4.98,-6.50,-6.50,-6.51
332,-1.13,5.38,-1.13,5.37,-5.37,-4.94,-6.50,-6.51,-6.51
335,-1.15,5.36,-1.16,5.35,-5.35,-4.90,-6.50,-6.51,-6.51
338,-1.18,5.33,-1.19,5.32,-5.32,-4.87,-6.50,-6.51,-6.51
342,-1.22,5.29,-1.22,5.30,-5.30,-4.84,-6.51,-6.51,-6.51
345,-1.24,5.27,-1.25,5.27,-5.27,-4.82,-6.51,-6.52,-6.51
349,-1.28,5.24,-1.27,5.25,-5.25,-4.79,-6.53,-6.52,-6.51
352,-1.30,5.22,-1.29,5.23,-5.23,-4.78,-6.53,-6.52,-6.51
356,-1.33,5.19,-1.31,5.21,-5.21,-4.76,-6.54,-6.52,-6.52
359,-1.34,5.18,-1.33,5.20,-5.20,-4.75,-6.53,-6.52,-6.52
363,-1.35,5.17,-1.34,5.19,-5.19,-4.74,-6.54,-6.52,-6.52
366,-1.35,5.17,-1.34,5.18,-5.18,-4.74,-6.53,-6.52,-6.52
370,-1.35,5.17,-1.34,5.18,-5.18,-4.74,-6.53,-6.53,-6.52
374,-1.34,5.18,-1.34,5.19,-5.19,-4.74,-6.52,-6.53,-6.52
377,-1.33,5.19,-1.33,5.19,-5.19,-4.75,-6.52,-6.52,-6.52
381,-1.32,5.20,-1.32,5.21,-5.21,-4.75,-6.52,-6.52,-6.52
385,-1.30,5.23,-1.30,5.22,-5.22,-4.77,-6.52,-6.52,-6.52
389,-1.28,5.25,-1.28,5.24,-5.24,-4.78,-6.52,-6.53,-6.52
393,-1.26,5.27,-1.26,5.26,-5.26,-4.80,-6.52,-6.53,-6.53
397,-1.24,5.29,-1.24,5.29,-5.29,-4.82,-6.53,-6.53,-6.53
401,-1.21,5.32,-1.21,5.32,-5.32,-4.85,-6.52,-6.53,-6.53
405,-1.19,5.34,-1.19,5.35,-5.35,-4.87,-6.53,-6.53,-6.53
409,-1.16,5.37,-1.15,5.38,-5.38,-4.90,-6.54,-6.53,-6.53
413,-1.13,5.40,-1.12,5.41,-5.41,-4.93,-6.54,-6.53,-6.53
417,-1.10,5.43,-1.09,5.44,-5.44,-4.96,-6.54,-6.53,-6.53
421,-1.07,5.46,-1.06,5.48,-5.48,-4.99,-6.55,-6.54,-6.53
425,-1.03,5.50,-1.03,5.51,-5.51,-5.02,-6.54,-6.54,-6.53
430,-0.99,5.55,-0.99,5.55,-5.55,-5.06,-6.53,-6.54,-6.53
434,-0.96,5.58,-0.96,5.58,-5.58,-5.09,-6.54,-6.54,-6.53
438,-0.92,5.62,-0.93,5.61,-5.61,-5.12,-6.53,-6.54,-6.53
443,-0.88,5.66,-0.89,5.64,-5.64,-5.16,-6.52,-6.53,-6.53
447,-0.86,5.67,-0.86,5.67,-5.67,-5.19,-6.52,-6.53,-6.53
451,-0.86,5.67,-0.84,5.69,-5.69,-5.21,-6.54,-6.52,-6.53
456,-0.84,5.68,-0.82,5.70,-5.70,-5.24,-6.54,-6.52,-6.52
460,-0.82,5.70,-0.80,5.71,-5.71,-5.27,-6.53,-6.51,-6.52
465,-0.78,5.73,-0.79,5.72,-5.72,-5.29,-6.49,-6.51,-6.51
470,-0.76,5.74,-0.79,5.71,-5.71,-5.31,-6.47,-6.50,-6.50
474,-0.76,5.73,-0.79,5.70,-5.70,-5.33,-6.46,-6.49,-6.49
479,-0.76,5.72,-0.80,5.69,-5.69,-5.34,-6.45,-6.48,-6.48
484,-0.79,5.68,-0.81,5.67,-5.67,-5.35,-6.46,-6.47,-6.47
489,-0.83,5.62,-0.82,5.64,-5.64,-5.36,-6.47,-6.46,-6.45
494,-0.86,5.58,-0.84,5.61,-5.61,-5.36,-6.47,-6.45,-6.44
499,-0.89,5.53,-0.86,5.57,-5.57,-5.35,-6.46,-6.43,-6.42
504,-0.92,5.49,-0.88,5.53,-5.53,-5.35,-6.45,-6.42,-6.41
509,-0.94,5.45,-0.91,5.48,-5.48,-5.33,-6.42,-6.40,-6.39
514,-0.96,5.41,-0.95,5.43,-5.43,-5.32,-6.39,-6.38,-6.37
519,-0.98,5.38,-0.99,5.37,-5.37,-5.30,-6.35,-6.36,-6.36
524,-1.01,5.33,-1.03,5.31,-5.31,-5.27,-6.31,-6.34,-6.34
529,-1.05,5.27,-1.08,5.24,-5.24,-5.25,-6.29,-6.32,-6.32
535,-1.10,5.20,-1.13,5.16,-5.16,-5.21,-6.26,-6.30,-6.30
540,-1.15,5.13,-1.19,5.09,-5.09,-5.18,-6.24,-6.28,-6.28
545,-1.20,5.06,-1.25,5.01,-5.01,-5.14,-6.21,-6.26,-6.25
551,-1.29,4.94,-1.31,4.93,-4.93,-5.10,-6.22,-6.24,-6.23
556,-1.35,4.86,-1.37,4.86,-4.86,-5.06,-6.21,-6.22,-6.20
562,-1.43,4.75,-1.42,4.79,-4.79,-5.01,-6.22,-6.20,-6.18
568,-1.51,4.64,-1.46,4.72,-4.72,-4.96,-6.23,-6.18,-6.15
573,-1.55,4.57,-1.49,4.67,-4.67,-4.92,-6.22,-6.16,-6.12
579,-1.59,4.50,-1.50,4.62,-4.62,-4.87,-6.21,-6.13,-6.09
585,-1.58,4.48,-1.51,4.59,-4.59,-4.82,-6.17,-6.09,-6.06
591,-1.55,4.48,-1.50,4.56,-4.56,-4.77,-6.11,-6.06,-6.03
596,-1.52,4.48,-1.48,4.54,-4.54,-4.73,-6.06,-6.02,-6.00
602,-1.46,4.51,-1.46,4.53,-4.53,-4.69,-5.99,-5.99,-5.97
608,-1.40,4.54,-1.43,4.52,-4.52,-4.64,-5.92,-5.95,-5.94
615,-1.35,4.56,-1.41,4.51,-4.51,-4.59,-5.86,-5.92,-5.91
621,-1.32,4.56,-1.38,4.50,-4.50,-4.55,-5.82,-5.88,-5.87
627,-1.30,4.54,-1.36,4.49,-4.49,-4.51,-5.78,-5.84,-5.84
633,-1.31,4.50,-1.34,4.47,-4.47,-4.48,-5.77,-5.81,-5.81
639,-1.32,4.46,-1.34,4.44,-4.44,-4.44,-5.76,-5.78,-5.78
646,-1.35,4.40,-1.34,4.41,-4.41,-4.41,-5.76,-5.75,-5.75
652,-1.37,4.34,-1.34,4.37,-4.37,-4.38,-5.74,-5.72,-5.71
659,-1.40,4.28,-1.36,4.33,-4.33,-4.35,-5.72,-5.68,-5.68
665,-1.43,4.21,-1.38,4.27,-4.27,-4.33,-5.70,-5.65,-5.64
672,-1.45,4.16,-1.41,4.20,-4.20,-4.31,-5.65,-5.62,-5.61
679,-1.47,4.10,-1.45,4.13,-4.13,-4.29,-5.59,-5.57,-5.57
686,-1.49,4.04,-1.50,4.04,-4.04,-4.28,-5.53,-5.53,-5.53
692,-1.52,3.98,-1.55,3.94,-3.94,-4.27,-5.46,-5.49,-5.49
699,-1.57,3.89,-1.62,3.83,-3.83,-4.26,-5.40,-5.45,-5.46
706,-1.63,3.79,-1.70,3.71,-3.71,-4.26,-5.34,-5.41,-5.42
713,-1.72,3.66,-1.79,3.58,-3.58,-4.26,-5.29,-5.37,-5.38
721,-1.85,3.49,-1.89,3.44,-3.44,-4.26,-5.29,-5.33,-5.34
728,-1.96,3.34,-2.00,3.29,-3.29,-4.26,-5.25,-5.30,-5.30
735,-2.10,3.16,-2.12,3.15,-3.15,-4.27,-5.25,-5.27,-5.26
742,-2.22,3.00,-2.23,3.01,-3.01,-4.28,-5.22,-5.24,-5.22
750,-2.37,2.82,-2.34,2.87,-2.87,-4.30,-5.24,-5.21,-5.18
757,-2.47,2.68,-2.43,2.74,-2.74,-4.32,-5.21,-5.18,-5.14
765,-2.58,2.53,-2.51,2.63,-2.63,-4.34,-5.21,-5.15,-5.11
773,-2.65,2.42,-2.57,2.54,-2.54,-4.36,-5.19,-5.11,-5.07
780,-2.68,2.35,-2.61,2.47,-2.47,-4.39,-5.15,-5.08,-5.03
788,-2.67,2.33,-2.61,2.43,-2.43,-4.42,-5.10,-5.04,-5.00
796,-2.63,2.33,-2.59,2.41,-2.41,-4.45,-5.04,-5.00,-4.96
804,-2.57,2.36,-2.55,2.42,-2.42,-4.48,-4.99,-4.96,-4.93
812,-2.48,2.42,-2.48,2.45,-2.45,-4.51,-4.93,-4.92,-4.89
820,-2.39,2.47,-2.39,2.50,-2.50,-4.55,-4.88,-4.88,-4.86
828,-2.29,2.54,-2.28,2.56,-2.56,-4.58,-4.85,-4.84,-4.83
837,-2.15,2.65,-2.16,2.64,-2.64,-4.62,-4.78,-4.80,-4.80
845,-2.02,2.75,-2.04,2.72,-2.72,-4.66,-4.74,-4.76,-4.77
853,-1.89,2.85,-1.91,2.82,-2.82,-4.69,-4.70,-4.73,-4.74
862,-1.75,2.96,-1.78,2.91,-2.91,-4.73,-4.66,-4.69,-4.71
871,-1.61,3.07,-1.65,3.01,-3.01,-4.76,-4.62,-4.66,-4.68
879,-1.50,3.15,-1.53,3.11,-3.11,-4.79,-4.61,-4.64,-4.65
888,-1.39,3.23,-1.40,3.21,-3.21,-4.82,-4.60,-4.61,-4.62
897,-1.28,3.31,-1.28,3.31,-3.31,-4.85,-4.59,-4.59,-4.59
906,-1.16,3.41,-1.16,3.40,-3.40,-4.87,-4.56,-4.57,-4.56
915,-1.05,3.49,-1.05,3.49,-3.49,-4.89,-4.54,-4.54,-4.54
924,-0.94,3.57,-0.93,3.59,-3.59,-4.90,-4.52,-4.52,-4.51
933,-0.84,3.65,-0.82,3.68,-3.68,-4.91,-4.51,-4.49,-4.48
943,-0.71,3.75,-0.70,3.77,-3.77,-4.91,-4.48,-4.47,-4.46
952,-0.60,3.83,-0.58,3.86,-3.86,-4.90,-4.46,-4.44,-4.43
962,-0.49,3.92,-0.46,3.95,-3.95,-4.89,-4.44,-4.41,-4.41
971,-0.37,4.01,-0.35,4.04,-4.04,-4.87,-4.41,-4.38,-4.38
981,-0.24,4.12,-0.23,4.13,-4.13,-4.85,-4.37,-4.36,-4.35
991,-0.11,4.22,-0.12,4.21,-4.21,-4.81,-4.32,-4.33,-4.33
1001,0.01,4.31,-0.00,4.30,-4.30,-4.77,-4.29,-4.30,-4.30
1011,0.13,4.41,0.10,4.38,-4.38,-4.72,-4.25,-4.27,-4.27
1021,0.23,4.48,0.21,4.45,-4.45,-4.66,-4.22,-4.25,-4.25
1031,0.32,4.54,0.31,4.52,-4.52,-4.59,-4.20,-4.22,-4.22
1041,0.40,4.59,0.40,4.59,-4.59,-4.52,-4.19,-4.19,-4.19
1052,0.47,4.64,0.49,4.65,-4.65,-4.43,-4.17,-4.16,-4.16
1062,0.54,4.68,0.57,4.70,-4.70,-4.35,-4.16,-4.13,-4.13
1073,0.62,4.73,0.64,4.74,-4.74,-4.25,-4.12,-4.10,-4.11
1084,0.69,4.77,0.70,4.78,-4.78,-4.14,-4.09,-4.08,-4.08
1094,0.75,4.80,0.76,4.81,-4.81,-4.04,-4.06,-4.05,-4.05
1105,0.81,4.83,0.81,4.83,-4.83,-3.93,-4.02,-4.02,-4.02
1116,0.86,4.85,0.85,4.84,-4.84,-3.81,-3.98,-3.99,-3.99
1128,0.89,4.85,0.89,4.84,-4.84,-3.67,-3.95,-3.95,-3.95
1139,0.92,4.84,0.91,4.83,-4.83,-3.55,-3.91,-3.92,-3.92
1150,0.92,4.81,0.92,4.81,-4.81,-3.42,-3.88,-3.88,-3.89
1162,0.92,4.78,0.92,4.77,-4.77,-3.27,-3.85,-3.85,-3.86
1173,0.91,4.74,0.91,4.72,-4.72,-3.14,-3.81,-3.82,-3.83
1185,0.89,4.69,0.88,4.67,-4.67,-3.00,-3.77,-3.79,-3.79
1197,0.85,4.61,0.83,4.59,-4.59,-2.85,-3.74,-3.76,-3.76
1209,0.80,4.53,0.78,4.51,-4.51,-2.71,-3.71,-3.73,-3.73
1221,0.73,4.43,0.71,4.41,-4.41,-2.56,-3.68,-3.70,-3.70
1233,0.65,4.32,0.64,4.31,-4.31,-2.42,-3.66,-3.67,-3.67
1246,0.55,4.19,0.56,4.20,-4.20,-2.26,-3.64,-3.64,-3.63
1258,0.44,4.04,0.47,4.07,-4.07,-2.12,-3.63,-3.60,-3.60
1271,0.34,3.91,0.37,3.94,-3.94,-1.97,-3.60,-3.56,-3.57
1283,0.24,3.78,0.27,3.80,-3.80,-1.83,-3.56,-3.53,-3.53
1296,0.13,3.63,0.16,3.65,-3.65,-1.68,-3.52,-3.49,-3.50
1309,0.03,3.49,0.04,3.50,-3.50,-1.53,-3.47,-3.46,-3.46
1322,-0.07,3.36,-0.08,3.34,-3.34,-1.38,-3.41,-3.42,-3.43
1335,-0.18,3.21,-0.21,3.18,-3.18,-1.23,-3.36,-3.39,-3.39
1349,-0.31,3.04,-0.35,3.01,-3.01,-1.08,-3.32,-3.36,-3.35
1362,-0.45,2.87,-0.49,2.84,-2.84,-0.93,-3.29,-3.32,-3.32
1376,-0.60,2.68,-0.63,2.66,-2.66,-0.78,-3.26,-3.29,-3.28
1390,-0.77,2.47,-0.77,2.48,-2.48,-0.63,-3.25,-3.25,-3.24
1404,-0.95,2.25,-0.91,2.30,-2.30,-0.48,-3.25,-3.21,-3.20
1418,-1.11,2.05,-1.06,2.12,-2.12,-0.34,-3.22,-3.18,-3.16
1432,-1.25,1.88,-1.21,1.93,-1.93,-0.19,-3.18,-3.14,-3.12
1446,-1.39,1.70,-1.36,1.74,-1.74,-0.05,-3.13,-3.10,-3.08
1461,-1.53,1.52,-1.51,1.55,-1.55,0.10,-3.08,-3.07,-3.05
1475,-1.65,1.36,-1.66,1.37,-1.37,0.24,-3.02,-3.03,-3.01
1490,-1.79,1.18,-1.81,1.18,-1.18,0.39,-2.97,-2.99,-2.97
1505,-1.94,0.99,-1.96,0.99,-0.99,0.54,-2.93,-2.95,-2.93
1520,-2.08,0.81,-2.10,0.81,-0.81,0.68,-2.89,-2.91,-2.89
1535,-2.23,0.62,-2.25,0.62,-0.62,0.82,-2.85,-2.87,-2.84
1550,-2.38,0.42,-2.39,0.44,-0.44,0.96,-2.82,-2.83,-2.80
1566,-2.53,0.23,-2.53,0.26,-0.26,1.11,-2.78,-2.79,-2.76
1582,-2.68,0.04,-2.67,0.08,-0.08,1.26,-2.75,-2.75,-2.71
1597,-2.82,-0.15,-2.80,-0.10,0.10,1.40,-2.72,-2.70,-2.67
