frequency,raw
10,-17.036387044542572
11,-16.036972706690978
12,-15.224055420219706
13,-14.204164499459502
14,-13.22868876024075
15,-12.321370208815953
16,-11.719462390715336
17,-11.187882824605506
18,-10.317738718902788
19,-9.771601338802812
20,-9.2559288394483
21,-8.573434697481098
22,-8.124291901471171
23,-7.639003507865682
24,-6.890733786141894
25,-6.722021406072599
26,-6.27505618710369
27,-5.983635561058155
28,-5.570775743787847
29,-5.2407201737278
30,-4.805041669124645
31,-4.573465471277258
32,-4.166391230110559
33,-3.9117867283488508
34,-3.4125699939767484
35,-3.3371106912005226
36,-3.0654371885373064
37,-2.8457113257819158
38,-2.646614292544481
39,-2.3543950927846358
40,-2.1931465647578765
41,-1.8185299795498366
42,-1.6149178545882235
43,-1.3456522374590012
44,-1.2311323678470205
45,-1.0256677924929027
46,-0.7611756464683048
47,-0.6015770345742419
48,-0.6071358430673301
49,-0.3927674801723926
50,-0.09094035622830132
51,0.030651392226693996
52,0.17338782953504506
53,0.32050828868122494
54,0.4570960260638701
55,0.35159031513435934
56,0.5664002828662666
57,0.7761552108110865
58,0.7316724851910719
59,0.8277918949443688
60,0.8316769995298898
61,1.2299516968129298
62,1.1273977635434171
63,1.0257835355111053
64,1.4270066024770154
65,1.2244545552044208
66,1.4244868826685204
67,1.4248519531718822
68,1.3875795509529034
69,1.4038237616895186
70,1.5411611044656066
71,1.7292629877173624
72,1.6749437429668204
73,1.6549767852993336
74,1.6028961549785814
75,1.711370599001362
76,1.916769053655699
77,1.8239262671935208
78,1.8107635880725814
79,1.7988634195129096
80,1.790562971005869
81,1.7740465543629558
82,1.7108260103495398
83,1.895176956637358
84,1.913377829774558
85,1.9276017361410114
86,1.942265109879311
87,1.9568569141334926
88,1.9707898824773418
89,1.9825270805407778
90,1.989507071867811
91,1.9892273290306823
92,1.980967686965145
93,1.9670258409531636
94,1.9524519327798853
95,1.9430936479269594
96,1.9428093491779306
97,1.9513334665114392
98,1.9640811537564025
99,2.000460982903565
100,2.0363339613851856
101,1.8675101552588638
102,1.691589020187176
104,1.7375283989713077
105,1.7303451766417046
106,1.7340181555876173
107,1.747342084725486
108,1.7651430441292488
109,1.780913718043129
110,1.7896819570160005
111,1.789673851579316
112,1.7931446884745297
113,1.8302562089072962
114,1.7661126038011554
115,1.6443250479784783
117,1.473322259761983
118,1.4659733607932095
119,1.514647297685789
120,1.5201483613144022
121,1.5202416959037937
123,1.52086643866767
124,1.5208398536593979
125,1.5651784647399616
126,1.5791885713182259
128,1.2710563861137834
129,1.2683746428937903
130,1.3204404231085052
131,1.3357578567192787
133,1.2828136830559496
134,1.242217100462697
135,1.1883191786387428
137,1.1341949776769171
138,1.1305718812615293
140,1.1307714958249795
141,1.135442481752393
142,1.1846799212734824
144,1.0497002266741076
145,0.9574398542126712
147,0.9538207539664283
148,0.9506016380805589
150,0.9461353199857854
151,0.943422237978667
153,0.8463587945338604
154,0.8424134827493654
156,0.7677648589400312
157,0.7874188805990299
159,0.8074716642128879
160,0.8230227736848299
162,0.7847993162088542
164,0.7152014529514297
165,0.6481690645408085
167,0.6081184615201041
169,0.5997395681278599
170,0.5961793132697624
172,0.5971960604887725
174,0.5714980423377445
175,0.5196980563828739
177,0.4625311594382362
179,0.4052766302754889
181,0.4055559442910659
183,0.38463397829724855
184,0.2892917505095376
186,0.2377687983694896
188,0.3076421635679907
190,0.3689896328390665
192,0.21956860266200806
194,0.037861370254909765
196,0.1132672401257353
198,0.09517555563321256
200,0.041584980835380314
202,0.046238510296650936
204,-0.02498777931390661
206,0.0323564660629021
208,0.07807748818511451
210,-0.10726076650007332
212,-0.26940433195846003
214,-0.22298706823350756
216,-0.1734304023772153
218,-0.16623954491152215
221,-0.08108464971968443
223,-0.17703604639103698
225,-0.426289639256348
227,-0.44090505020522297
229,-0.38417727799715085
232,-0.3927033762500094
234,-0.42355419897620195
236,-0.49405125057928956
239,-0.5156646941693124
241,-0.5697629807570168
244,-0.6858873699730563
246,-0.7404107539919078
248,-0.6674624197616623
251,-0.6245094173267938
253,-0.6231280203770089
256,-0.6477669517462661
259,-0.7283290098532209
261,-0.7914611834325935
264,-0.88008138299167
266,-1.0441148284392625
269,-1.0237870697022622
272,-0.9486292211012177
274,-0.9448480798025787
277,-1.0151330454997982
280,-1.0585810844957129
283,-1.1182539283125825
286,-1.2702206732185415
288,-1.3435050423333763
291,-1.3373212322824042
294,-1.2374943884586074
297,-1.2826262724344772
300,-1.4327722899190634
303,-1.490280369658059
306,-1.4636645761994198
309,-1.4393540582209834
312,-1.2741274006445447
316,-1.1432807714251019
319,-1.1987553096615393
322,-1.070583977571716
325,-0.8622690360056002
328,-0.8083657664895632
332,-0.6806234424608686
335,-0.597969728063859
338,-0.6610564689012408
342,-0.696849689674603
345,-0.692202032388082
349,-0.759297590913671
352,-0.7698728859752819
356,-0.7539136758730605
359,-0.7421768031623328
363,-0.7075820333906337
366,-0.6140165262097299
370,-0.593603730566354
374,-0.580980692017306
377,-0.5694143869529675
381,-0.5365086412452564
385,-0.5505801242605068
389,-0.5422976409237208
393,-0.5330541304451675
397,-0.5219977096734727
401,-0.5097959388085243
405,-0.5105732368565365
409,-0.5921953835572253
413,-0.5908363142644224
417,-0.5948126377974741
421,-0.6016793356712782
425,-0.6083556479078971
430,-0.6115585199712106
434,-0.6323656594879319
438,-0.7025064528478775
443,-0.6939101784722186
447,-0.6848875668137513
451,-0.7164353134227728
456,-0.764191666995802
460,-0.7502733608323604
465,-0.7347185417515449
470,-0.7190969050671301
474,-0.7717281710758139
479,-0.790557153384766
484,-0.774017724977599
489,-0.7678519198597109
494,-0.8262558354025589
499,-0.7946213131064166
504,-0.7617236622437904
509,-0.7314517330221073
514,-0.7068728741823072
519,-0.6894989999448748
524,-0.6793522591537289
529,-0.6754436581583176
535,-0.6762211170550945
540,-0.6798108854072877
545,-0.6841360613840228
551,-0.6870461957388563
556,-0.7302509654990907
562,-0.7813173645334754
568,-0.8675167173080038
573,-0.8508319795073866
579,-0.8261957723992159
585,-0.7984947374492606
591,-0.7719018553787795
596,-0.7510638258806095
602,-0.7393264182348962
608,-0.7369268972645382
615,-0.7402230269462964
621,-0.742752039788521
627,-0.7379946867724247
633,-0.7226297755500339
639,-0.698519943655924
646,-0.6721519249082113
652,-0.651615859633413
659,-0.6426632849885823
665,-0.6459857344313633
672,-0.6571605527607356
679,-0.6691239284643768
686,-0.6755787685890708
692,-0.6733772088840251
699,-0.6628241133657804
706,-0.6463255337568095
713,-0.6267811608276976
721,-0.606933688106357
728,-0.5897844430361412
735,-0.5791052851323819
742,-0.4783370684978854
750,-0.49108651381179413
757,-0.5156172466450974
765,-0.5464305746868559
773,-0.57530029066693
780,-0.5947465907812148
788,-0.5212287201492152
796,-0.4982796270672316
804,-0.4937028288311356
812,-0.496655227254891
820,-0.513946074595808
828,-0.5397665695549962
837,-0.4845079115719897
845,-0.4422045079761827
853,-0.4852702892138936
862,-0.5196954090977499
871,-0.5027354930564671
879,-0.4497561995481849
888,-0.45065190878859607
897,-0.4277184994056151
906,-0.3422965778311968
915,-0.33353645440563007
924,-0.3332474057490522
933,-0.32574473697456874
943,-0.3131516012576001
952,-0.294009185708362
962,-0.1906700023784711
971,-0.1389705626192268
981,-0.10950838280345021
991,-0.08285503583182274
1001,0.009160045892005364
1011,0.06180128000676888
1021,0.08049690358105854
1031,0.10449031426213207
1041,0.13426122417488662
1052,0.17011927100782387
1062,0.21130469236635818
1073,0.2607965426446168
1084,0.3070336839831662
1094,0.291522688136995
1105,0.3019972795310406
1116,0.27285156583636416
1128,0.3229554161934747
1139,0.3785846835498705
1150,0.4292322980382668
1162,0.48422781526610814
1173,0.5510074019378504
1185,0.595456498239157
1197,0.6234498121125487
1209,0.7315708336617743
1221,0.84942849493348
1233,0.9106452828740386
1246,0.9910891410363818
1258,1.041971487892695
1271,1.1866048561749931
1283,1.2929999964088101
1296,1.358732454920903
1309,1.3682201211636897
1322,1.4254063219184274
1335,1.4769381647949884
1349,1.6661220771960554
1362,1.8054850282338188
1376,1.94764996819312
1390,2.021659503938656
1404,2.0339586486312693
1418,2.1703195931252295
1432,2.295793764403073
1446,2.5739070714526138
1461,2.714191543782354
1475,2.8121844405022087
1490,2.9575560819735944
1505,3.0998562587051675
1520,3.2626103140682723
1535,3.3812332330026402
1550,3.4248243665022082
1566,3.4770199434252915
1582,3.5233319601160864
1597,3.570053532773552
1613,3.6220730514447586
1629,3.7878018101398654
1646,3.974972630157588
1662,4.187259134792811
1679,4.373919987350552
1696,4.5649219470045646
1713,4.595782857689755
1730,4.6952287564627255
1747,4.966582891924775
1764,5.094791919472826
1782,5.511264728826504
1800,5.915724146391229
1818,6.225815733589768
1836,6.809530237869181
1854,7.7245322985536635
1873,8.37646409472244
1892,9.278192936889525
1911,10.103505155317382
1930,10.513701851259858
1949,11.247927518631355
1969,11.603439380466218
1988,11.818557773385159
2008,12.259768646565067
2028,12.676210980552458
2048,12.782625702117926
2069,12.824738633997995
2090,12.929714779076864
2111,12.912345157193215
2132,12.857563173245946
2153,12.813642463140544
2175,12.777400258763238
2196,12.657913030254832
2218,12.722972816147951
2240,12.653244384139402
2263,12.396380534762233
2285,12.170199075957555
2308,11.780406314930278
2331,11.388795022738483
2355,11.424200137744588
2378,11.683714861233302
2402,11.912811924815786
2426,11.371736811633728
2450,11.202009608214127
2475,10.901003296135752
2500,11.220751664018081
2525,11.567023785892234
2550,11.294273563291934
2575,11.073923239304087
2601,11.113836819427533
2627,11.06911144213846
2653,10.900593692738571
2680,11.017652147621224
2707,11.111568813660119
2734,10.678008628474593
2761,10.429723189733071
2789,10.219981421626542
2817,10.110348747229379
2845,10.188384386146613
2873,10.46917239685503
2902,10.86822159510066
2931,10.819898302922939
2960,10.454775425562346
2990,10.531202834205114
3020,11.082247290177547
3050,11.573590283407237
3080,11.438501018854954
3111,10.831849317628103
3142,9.911171267285745
3174,10.070657621271591
3206,10.412821094494419
3238,10.134679945030573
3270,10.410245723006529
3303,10.390275154462339
3336,10.441081683750767
3369,10.882469625106578
3403,11.13007310063738
3437,11.227058310275044
3471,11.299002136686994
3506,11.299862260050094
3541,11.624926246632773
3576,12.089798543818041
3612,12.114404994370954
3648,12.01778983204515
3685,11.619241745170969
3721,10.943642532618064
3759,10.466948454566712
3796,10.200758729755744
3834,10.676849133294285
3873,10.47543099828896
3911,10.410990781419633
3950,9.972514374993363
3990,10.173290533126913
4030,9.86562148278285
4070,8.382370289143704
4111,7.61170364171724
4152,6.805160669965193
4193,5.729024291405673
4235,5.282795029846093
4278,5.599949751038539
4321,5.605600686968117
4364,5.06818196104276
4407,4.859698744052277
4451,4.280047960051617
4496,4.186405851982477
4541,4.267278369142291
4586,4.382916425302263
4632,4.13212689002867
4679,3.812507882514355
4725,3.8965699728361507
4773,4.000012880671639
4820,4.2330064476967495
4868,4.318608551539009
4917,4.101049849353438
4966,3.8001958217540546
5016,4.154501261194132
5066,4.503061696712545
5117,4.570898873350177
5168,4.548348843649331
5220,4.667985100372516
5272,4.886514139029448
5325,5.121814823087306
5378,4.94639708842467
5432,4.690386403451193
5486,4.895711016814722
5541,4.710405821808648
5596,4.600458058572255
5652,4.329517807763092
5709,3.6409834282312543
5766,2.3842280800210167
5823,1.9270389342910184
5882,1.5000861803484584
5940,1.781740023796666
6000,1.6543203385292493
6060,1.7884539792503897
6120,1.3748019629158392
6182,0.8698409448306901
6244,0.66203796357411
6306,0.9859451377660369
6369,1.7192033150540382
6433,2.1574158320379704
6497,2.0381977595904397
6562,1.6740548156783746
6628,1.6992615858339981
6694,2.668510615977932
6761,3.391250748100557
6828,3.687153609049912
6897,3.586980218169642
6966,3.899950726175028
7035,4.576131913650915
7106,4.52470806953961
7177,4.483204334695927
7249,4.539592848732726
7321,4.881330739821351
7394,5.09358075394732
7468,4.834243659339775
7543,4.6219827868497685
7618,4.050313872003324
7694,3.9098773281731054
7771,3.4547452911242322
7849,2.447202849003542
7928,1.7766115863819394
8007,1.4445145709094263
8087,1.614619916654489
8168,1.2231854971257317
8250,1.1774267006809236
8332,1.0040388955045678
8415,0.27741171455875424
8499,-0.03753166240384198
8584,-0.3401641831041844
8670,0.584450791273825
8757,1.3702129696155572
8845,2.53497346871142
8933,3.1142703823070574
9022,3.396328205505322
9113,4.643869520090356
9204,5.618700967421232
9296,6.3173738228953376
9389,6.447285877910041
9483,6.011166988660872
9577,5.241639320753112
9673,4.5581447699374555
9770,3.4451399098526307
9868,1.5942780192726569
9966,0.5205380553874415
10066,-0.999135668318925
10167,-2.4034153289717692
10268,-3.2380887450093203
10371,-4.058261782060375
10475,-5.7415463332508425
10579,-6.821633680749032
10685,-6.905627555409515
10792,-6.62683309427229
10900,-6.046816255662734
11009,-7.272873181647549
11119,-5.5697107090025275
11230,-5.136988572888953
11343,-5.781718250286863
11456,-6.228099167765244
11571,-6.785925674051741
11686,-6.880197325954017
11803,-7.194647033430645
11921,-7.840067565630775
12040,-8.642227533465192
12161,-9.701774053003174
12282,-10.508790361390911
12405,-10.963192299218804
12529,-10.357374143506387
12655,-8.754440982134806
12781,-6.859680153696464
12909,-6.5156072483027705
13038,-6.490070015180229
13168,-6.757464407163279
13300,-6.897422256195348
13433,-6.5255826684363285
13567,-6.72538503844202
13703,-6.415387645298419
13840,-6.870607915795509
13978,-6.349551364090188
14118,-6.4897695058350315
14259,-7.5360683734927045
14402,-8.609643789151319
14546,-8.284234811947478
14692,-7.8583347151964285
14838,-8.509249187781181
14987,-9.41170440782634
15137,-11.184498504142308
15288,-12.19217751796688
15441,-13.567825262794766
15595,-14.851420770344436
15751,-15.134477783747553
15909,-15.960964830741483
16068,-15.116729633124919
16229,-14.569299949171844
16391,-13.663336789347774
16555,-13.050721854121875
16720,-12.307692955007727
16888,-11.882250835712052
17056,-11.184252134616543
17227,-11.306137147655551
17399,-11.744543358730965
17573,-12.229797834448807
17749,-13.438536881248236
17926,-14.72840984979791
18106,-15.860548427285412
18287,-16.859588342686205
18470,-16.086550942361345
18654,-14.721550496399503
18841,-15.092169344541759
19029,-15.715246008062252
19220,-15.621392108884706
19412,-16.684487165223423
19606,-17.124182689632352
19802,-16.026610623985036
20000,-15.393632184148295
20200,-13.678922130132648
20402,-12.86904595343232
20606,-12.080271594174738
20812,-11.494087372806863
21020,-10.721118663874702
21230,-10.728060163431463
21443,-11.064008657197157
21657,-11.263348053468935
21874,-11.249620377647313
22092,-11.511753976602577
22313,-12.675491300570965
22537,-15.048579919190246
22762,-16.48949783181383
22989,-17.73461854961265
23219,-19.054690175300973
23452,-18.600621334100214
23686,-17.922883713872032
23923,-18.800408454112173
24162,-17.3216662079466
24404,-15.384167361964494
24648,-13.450479702273025
24894,-11.520488471497792
25143,-9.586946482449552
25395,-7.64994397635567
25649,-5.716580609354255
25905,-3.7868328019871367
26164,-1.8538974690366654
26426,0.0819571821421956
26690,2.013747070057194
26957,3.9480051523176076
27227,5.884440833910857
27499,7.816284220251009
27774,9.749913806307132
28052,11.68510084739177
28332,13.61532513619872
28615,15.546819524830367
28902,17.485556321824387
29191,19.41890536122514
29482,21.346850015798353
29777,23.281379603269265
