frequency,raw
20,17.21
21,17.12
22,17.02
23,16.91
24,16.81
25,16.71
26,16.60
27,16.49
28,16.38
29,16.27
30,16.15
31,16.04
32,15.92
33,15.81
34,15.69
35,15.58
36,15.46
37,15.35
38,15.23
39,15.12
40,15.00
41,14.89
42,14.77
43,14.66
44,14.55
45,14.44
46,14.33
47,14.22
48,14.11
49,14.02
50,13.93
51,13.83
52,13.67
53,13.50
54,13.40
55,13.33
56,13.26
57,13.15
58,13.02
59,12.89
60,12.81
61,12.74
62,12.66
63,12.57
64,12.47
65,12.38
66,12.28
67,12.19
68,12.09
69,12.00
70,11.92
71,11.84
72,11.76
73,11.69
74,11.60
75,11.49
76,11.39
77,11.28
78,11.19
79,11.11
80,11.06
81,10.99
82,10.91
83,10.84
84,10.76
85,10.69
86,10.59
87,10.51
88,10.44
89,10.36
90,10.29
91,10.23
92,10.17
93,10.10
94,10.03
95,9.97
96,9.89
97,9.81
98,9.73
99,9.65
100,9.56
101,9.48
102,9.41
104,9.30
105,9.25
106,9.19
107,9.12
108,9.06
109,8.98
110,8.90
111,8.84
112,8.77
113,8.72
114,8.66
115,8.60
117,8.49
118,8.44
119,8.37
120,8.31
121,8.25
123,8.12
124,8.07
125,8.01
126,7.95
128,7.86
129,7.81
130,7.76
131,7.71
133,7.59
134,7.53
135,7.46
137,7.33
138,7.27
140,7.16
141,7.09
142,7.04
144,6.93
145,6.89
147,6.79
148,6.73
150,6.63
151,6.58
153,6.49
154,6.44
156,6.33
157,6.28
159,6.18
160,6.14
162,6.04
164,5.94
165,5.90
167,5.81
169,5.72
170,5.68
172,5.59
174,5.51
175,5.46
177,5.37
179,5.27
181,5.17
183,5.06
184,5.01
186,4.91
188,4.83
190,4.75
192,4.69
194,4.62
196,4.55
198,4.48
200,4.41
202,4.34
204,4.27
206,4.21
208,4.14
210,4.08
212,4.03
214,3.96
216,3.90
218,3.81
221,3.70
223,3.62
225,3.55
227,3.50
229,3.44
232,3.37
234,3.31
236,3.25
239,3.16
241,3.10
244,3.00
246,2.94
248,2.86
251,2.76
253,2.69
256,2.59
259,2.48
261,2.40
264,2.29
266,2.21
269,2.10
272,1.99
274,1.92
277,1.81
280,1.70
283,1.59
286,1.48
288,1.41
291,1.31
294,1.21
297,1.11
300,1.01
303,0.91
306,0.82
309,0.73
312,0.64
316,0.53
319,0.45
322,0.37
325,0.29
328,0.22
332,0.13
335,0.07
338,0.01
342,-0.07
345,-0.13
349,-0.20
352,-0.25
356,-0.31
359,-0.35
363,-0.41
366,-0.45
370,-0.50
374,-0.55
377,-0.58
381,-0.62
385,-0.67
389,-0.71
393,-0.74
397,-0.78
401,-0.82
405,-0.86
409,-0.89
413,-0.93
417,-0.97
421,-1.00
425,-1.04
430,-1.08
434,-1.12
438,-1.15
443,-1.19
447,-1.21
451,-1.24
456,-1.28
460,-1.30
465,-1.33
470,-1.36
474,-1.39
479,-1.42
484,-1.45
489,-1.48
494,-1.51
499,-1.54
504,-1.59
509,-1.63
514,-1.67
519,-1.73
524,-1.78
529,-1.83
535,-1.86
540,-1.89
545,-1.91
551,-1.92
556,-1.94
562,-1.96
568,-1.99
573,-2.01
579,-2.04
585,-2.06
591,-2.07
596,-2.08
602,-2.09
608,-2.09
615,-2.10
621,-2.12
627,-2.14
633,-2.16
639,-2.17
646,-2.17
652,-2.15
659,-2.12
665,-2.10
672,-2.07
679,-2.06
686,-2.05
692,-2.04
699,-2.03
706,-2.00
713,-1.98
721,-1.94
728,-1.91
735,-1.89
742,-1.86
750,-1.85
757,-1.85
765,-1.85
773,-1.84
780,-1.82
788,-1.80
796,-1.77
804,-1.73
812,-1.70
820,-1.67
828,-1.64
837,-1.59
845,-1.55
853,-1.50
862,-1.45
871,-1.38
879,-1.33
888,-1.25
897,-1.18
906,-1.09
915,-1.00
924,-0.91
933,-0.82
943,-0.70
952,-0.59
962,-0.46
971,-0.34
981,-0.22
991,-0.10
1001,0.01
1011,0.12
1021,0.23
1031,0.32
1041,0.42
1052,0.52
1062,0.59
1073,0.65
1084,0.70
1094,0.73
1105,0.76
1116,0.81
1128,0.88
1139,0.93
1150,1.00
1162,1.07
1173,1.13
1185,1.17
1197,1.21
1209,1.24
1221,1.27
1233,1.31
1246,1.38
1258,1.44
1271,1.53
1283,1.61
1296,1.69
1309,1.75
1322,1.79
1335,1.83
1349,1.86
1362,1.90
1376,1.94
1390,2.00
1404,2.06
1418,2.11
1432,2.15
1446,2.18
1461,2.20
1475,2.22
1490,2.24
1505,2.27
1520,2.31
1535,2.36
1550,2.41
1566,2.46
1582,2.49
1597,2.53
1613,2.56
1629,2.60
1646,2.64
1662,2.67
1679,2.70
1696,2.74
1713,2.78
1730,2.82
1747,2.88
1764,2.93
1782,2.98
1800,3.03
1818,3.09
1836,3.13
1854,3.17
1873,3.22
1892,3.27
1911,3.32
1930,3.37
1949,3.43
1969,3.47
1988,3.52
2008,3.58
2028,3.64
2048,3.72
2069,3.80
2090,3.89
2111,3.96
2132,4.03
2153,4.10
2175,4.16
2196,4.22
2218,4.29
2240,4.35
2263,4.42
2285,4.50
2308,4.57
2331,4.64
2355,4.69
2378,4.73
2402,4.78
2426,4.82
2450,4.86
2475,4.94
2500,5.01
2525,5.10
2550,5.19
2575,5.27
2601,5.35
2627,5.41
2653,5.45
2680,5.47
2707,5.47
2734,5.46
2761,5.45
2789,5.43
2817,5.43
2845,5.44
2873,5.46
2902,5.52
2931,5.58
2960,5.63
2990,5.72
3020,5.80
3050,5.91
3080,6.04
3111,6.20
3142,6.38
3174,6.60
3206,6.85
3238,7.11
3270,7.40
3303,7.73
3336,8.08
3369,8.44
3403,8.82
3437,9.19
3471,9.57
3506,9.93
3541,10.25
3576,10.54
3612,10.79
3648,10.99
3685,11.16
3721,11.31
3759,11.40
3796,11.46
3834,11.49
3873,11.49
3911,11.47
3950,11.43
3990,11.34
4030,11.21
4070,11.07
4111,10.90
4152,10.72
4193,10.52
4235,10.32
4278,10.10
4321,9.89
4364,9.68
4407,9.48
4451,9.29
4496,9.11
4541,8.94
4586,8.76
4632,8.59
4679,8.41
4725,8.25
4773,8.10
4820,7.93
4868,7.76
4917,7.61
4966,7.46
5016,7.35
5066,7.26
5117,7.21
5168,7.21
5220,7.24
5272,7.28
5325,7.36
5378,7.44
5432,7.53
5486,7.61
5541,7.69
5596,7.77
5652,7.84
5709,7.93
5766,7.99
5823,8.03
5882,8.07
5940,8.11
6000,8.13
6060,8.17
6120,8.20
6182,8.24
6244,8.28
6306,8.30
6369,8.30
6433,8.29
6497,8.29
6562,8.29
6628,8.28
6694,8.24
6761,8.18
6828,8.10
6897,7.97
6966,7.83
7035,7.68
7106,7.48
7177,7.30
7249,7.12
7321,6.91
7394,6.67
7468,6.40
7543,6.13
7618,5.88
7694,5.63
7771,5.42
7849,5.24
7928,5.06
8007,4.90
8087,4.76
8168,4.64
8250,4.55
8332,4.53
8415,4.56
8499,4.60
8584,4.60
8670,4.57
8757,4.52
8845,4.53
8933,4.73
9022,4.84
9113,5.20
9204,5.72
9296,6.23
9389,6.72
9483,7.24
9577,7.76
9673,8.30
9770,8.86
9868,9.35
9966,9.77
10066,9.99
10167,9.99
10268,9.84
10371,9.39
10475,8.68
10579,7.92
10685,7.09
10792,6.17
10900,5.23
11009,4.29
11119,3.42
11230,2.58
11343,1.89
11456,1.55
11571,0.63
11686,-0.64
11803,-1.08
11921,-1.69
12040,-2.26
12161,-2.50
12282,-3.05
12405,-3.56
12529,-3.97
12655,-4.33
12781,-4.60
12909,-4.86
13038,-5.05
13168,-5.23
13300,-5.36
13433,-5.30
13567,-5.22
13703,-5.11
13840,-5.02
13978,-4.83
14118,-4.60
14259,-4.30
14402,-3.94
14546,-3.54
14692,-3.12
14838,-2.69
14987,-2.28
15137,-1.92
15288,-1.66
15441,-1.55
15595,-1.56
15751,-1.79
15909,-2.20
16068,-2.72
16229,-3.38
16391,-4.14
16555,-4.94
16720,-5.76
16888,-6.56
17056,-7.31
17227,-8.04
17399,-8.66
17573,-9.22
17749,-9.70
17926,-10.07
18106,-10.34
18287,-10.53
18470,-10.62
18654,-10.63
18841,-10.61
19029,-10.57
19220,-10.62
19412,-10.74
19606,-10.97
19802,-11.47
20000,-12.17
