frequency,raw,error,smoothed,error_smoothed,equalization,parametric_eq,equalized_raw,equalized_smoothed,target
20,-15.30,-18.87,-15.11,-18.63,6.00,3.03,-9.30,-9.11,3.56
21,-14.25,-17.81,-14.40,-17.93,6.00,3.48,-8.25,-8.40,3.56
22,-13.66,-17.22,-13.72,-17.25,6.00,3.96,-7.66,-7.72,3.55
23,-13.18,-16.73,-13.05,-16.58,6.00,4.49,-7.18,-7.05,3.55
24,-12.34,-15.89,-12.40,-15.94,6.00,5.05,-6.34,-6.40,3.54
25,-11.82,-15.36,-11.78,-15.31,6.00,5.63,-5.82,-5.78,3.54
26,-10.88,-14.41,-11.18,-14.71,6.00,6.21,-4.88,-5.18,3.53
27,-10.57,-14.10,-10.59,-14.12,6.00,6.76,-4.57,-4.59,3.52
28,-10.23,-13.75,-10.03,-13.55,6.00,7.26,-4.23,-4.03,3.52
29,-9.24,-12.75,-9.49,-13.00,6.00,7.66,-3.24,-3.49,3.51
30,-8.94,-12.45,-8.97,-12.47,6.00,7.93,-2.94,-2.97,3.50
31,-8.67,-12.17,-8.50,-11.97,6.00,8.05,-2.67,-2.50,3.49
32,-8.00,-11.49,-8.02,-11.49,6.00,8.02,-2.00,-2.02,3.48
33,-7.61,-11.09,-7.57,-11.03,6.00,7.86,-1.61,-1.57,3.47
34,-7.14,-10.61,-7.13,-10.58,6.00,7.59,-1.14,-1.13,3.46
35,-6.77,-10.23,-6.71,-10.15,6.00,7.26,-0.77,-0.71,3.45
36,-6.20,-9.65,-6.31,-9.73,6.00,6.90,-0.20,-0.31,3.44
37,-5.86,-9.29,-5.90,-9.32,6.00,6.52,0.14,0.10,3.43
38,-5.52,-8.94,-5.52,-8.93,6.00,6.15,0.48,0.48,3.42
39,-5.20,-8.61,-5.17,-8.55,6.00,5.80,0.80,0.83,3.40
40,-4.88,-8.28,-4.80,-8.18,6.00,5.47,1.12,1.20,3.39
41,-4.39,-7.77,-4.44,-7.81,6.00,5.16,1.61,1.56,3.38
42,-4.02,-7.39,-4.13,-7.46,6.00,4.88,1.98,1.87,3.36
43,-3.72,-7.07,-3.79,-7.13,6.00,4.62,2.28,2.21,3.35
44,-3.66,-6.99,-3.47,-6.80,6.00,4.39,2.34,2.53,3.33
45,-3.19,-6.51,-3.18,-6.49,5.96,4.17,2.76,2.78,3.31
46,-2.93,-6.23,-2.91,-6.19,5.86,3.98,2.93,2.95,3.29
47,-2.67,-5.95,-2.64,-5.91,5.72,3.81,3.05,3.09,3.28
48,-2.36,-5.62,-2.39,-5.64,5.55,3.66,3.19,3.16,3.26
49,-2.12,-5.36,-2.17,-5.38,5.36,3.52,3.23,3.19,3.24
50,-1.78,-5.00,-1.96,-5.14,5.14,3.40,3.35,3.18,3.22
51,-1.80,-5.00,-1.75,-4.90,4.90,3.28,3.10,3.15,3.19
52,-1.18,-4.36,-1.54,-4.68,4.68,3.18,3.49,3.14,3.17
53,-1.48,-4.63,-1.34,-4.45,4.45,3.09,2.97,3.12,3.15
54,-1.33,-4.46,-1.14,-4.23,4.23,3.00,2.90,3.10,3.13
55,-1.03,-4.13,-0.95,-4.01,4.01,2.92,2.98,3.06,3.10
56,-0.74,-3.82,-0.77,-3.79,3.79,2.84,3.05,3.03,3.08
57,-0.77,-3.82,-0.56,-3.57,3.57,2.76,2.80,3.02,3.05
58,-0.43,-3.46,-0.36,-3.36,3.36,2.69,2.92,2.99,3.02
59,-0.08,-3.08,-0.17,-3.14,3.14,2.62,3.06,2.97,3.00
60,0.12,-2.85,0.01,-2.92,2.92,2.55,3.04,2.93,2.97
61,0.20,-2.74,0.22,-2.70,2.70,2.47,2.90,2.92,2.94
62,0.37,-2.54,0.39,-2.49,2.49,2.40,2.85,2.87,2.91
63,0.66,-2.22,0.60,-2.28,2.28,2.32,2.94,2.88,2.88
64,0.85,-2.00,0.78,-2.08,2.08,2.25,2.93,2.86,2.85
65,1.00,-1.82,0.93,-1.89,1.89,2.17,2.89,2.82,2.82
66,1.21,-1.58,1.09,-1.71,1.71,2.09,2.92,2.80,2.79
67,1.02,-1.74,1.21,-1.54,1.54,2.01,2.56,2.76,2.76
68,1.24,-1.49,1.33,-1.38,1.38,1.93,2.62,2.72,2.72
69,1.47,-1.23,1.44,-1.23,1.23,1.85,2.70,2.68,2.69
70,1.69,-0.97,1.56,-1.09,1.09,1.77,2.78,2.65,2.66
71,1.54,-1.09,1.67,-0.96,0.96,1.69,2.50,2.63,2.62
72,1.90,-0.69,1.75,-0.84,0.84,1.61,2.74,2.59,2.59
73,1.86,-0.70,1.82,-0.72,0.72,1.53,2.57,2.54,2.56
74,1.81,-0.71,1.89,-0.60,0.60,1.45,2.41,2.50,2.52
75,1.98,-0.51,1.98,-0.49,0.49,1.37,2.47,2.47,2.49
76,1.94,-0.51,2.06,-0.38,0.38,1.29,2.32,2.45,2.45
77,2.37,-0.05,2.14,-0.28,0.28,1.22,2.64,2.42,2.41
78,2.13,-0.25,2.19,-0.18,0.18,1.14,2.30,2.37,2.38
79,2.24,-0.11,2.25,-0.08,0.08,1.06,2.32,2.33,2.34
80,2.26,-0.05,2.31,0.01,-0.01,0.99,2.24,2.29,2.31
81,2.25,-0.03,2.37,0.10,-0.10,0.92,2.14,2.26,2.27
82,2.45,0.21,2.41,0.19,-0.19,0.85,2.25,2.22,2.23
83,2.55,0.35,2.48,0.27,-0.27,0.77,2.27,2.20,2.20
84,2.64,0.47,2.52,0.35,-0.35,0.71,2.29,2.17,2.16
85,2.47,0.34,2.55,0.42,-0.42,0.64,2.05,2.13,2.13
86,2.52,0.43,2.57,0.49,-0.49,0.57,2.03,2.09,2.09
87,2.65,0.59,2.59,0.55,-0.55,0.50,2.10,2.04,2.05
88,2.65,0.63,2.62,0.61,-0.61,0.44,2.04,2.02,2.02
89,2.65,0.67,2.64,0.66,-0.66,0.37,1.99,1.98,1.98
90,2.65,0.70,2.65,0.71,-0.71,0.31,1.94,1.94,1.94
91,2.68,0.77,2.65,0.75,-0.75,0.25,1.92,1.90,1.91
92,2.66,0.78,2.64,0.80,-0.80,0.19,1.86,1.85,1.87
93,2.52,0.68,2.66,0.83,-0.83,0.13,1.68,1.82,1.84
94,2.66,0.85,2.66,0.87,-0.87,0.07,1.79,1.80,1.80
95,2.66,0.89,2.67,0.90,-0.90,0.01,1.76,1.77,1.77
96,2.65,0.91,2.65,0.93,-0.93,-0.05,1.72,1.73,1.73
97,2.65,0.95,2.63,0.95,-0.95,-0.11,1.70,1.68,1.70
98,2.64,0.97,2.61,0.96,-0.96,-0.16,1.67,1.64,1.66
99,2.63,1.00,2.59,0.98,-0.98,-0.22,1.65,1.61,1.63
100,2.61,1.01,2.56,0.98,-0.98,-0.27,1.62,1.58,1.60
101,2.61,1.04,2.53,0.99,-0.99,-0.33,1.62,1.54,1.56
102,2.59,1.05,2.50,0.99,-0.99,-0.38,1.60,1.51,1.53
104,2.33,0.86,2.46,0.98,-0.98,-0.48,1.35,1.48,1.47
105,2.33,0.89,2.41,0.97,-0.97,-0.53,1.36,1.44,1.43
106,2.30,0.89,2.35,0.95,-0.95,-0.57,1.35,1.40,1.40
107,2.28,0.90,2.30,0.93,-0.93,-0.62,1.34,1.36,1.37
108,2.29,0.95,2.24,0.91,-0.91,-0.66,1.37,1.33,1.34
109,2.27,0.96,2.19,0.89,-0.89,-0.70,1.37,1.30,1.31
110,2.13,0.85,2.14,0.87,-0.87,-0.74,1.25,1.27,1.28
111,2.10,0.85,2.09,0.85,-0.85,-0.78,1.24,1.24,1.25
112,2.07,0.84,2.04,0.84,-0.84,-0.81,1.23,1.20,1.22
113,1.98,0.78,2.00,0.82,-0.82,-0.85,1.16,1.18,1.20
114,1.94,0.77,1.97,0.80,-0.80,-0.88,1.13,1.17,1.17
115,1.87,0.72,1.92,0.79,-0.79,-0.91,1.08,1.14,1.15
117,1.88,0.78,1.88,0.77,-0.77,-0.96,1.11,1.10,1.10
118,1.89,0.81,1.83,0.76,-0.76,-0.98,1.13,1.07,1.08
119,1.85,0.79,1.78,0.74,-0.74,-1.00,1.11,1.04,1.06
120,1.70,0.66,1.75,0.73,-0.73,-1.02,0.97,1.03,1.04
121,1.67,0.64,1.72,0.71,-0.71,-1.03,0.95,1.01,1.02
123,1.70,0.71,1.69,0.70,-0.70,-1.05,0.99,0.99,0.98
124,1.73,0.76,1.66,0.69,-0.69,-1.06,1.04,0.97,0.97
125,1.64,0.68,1.63,0.67,-0.67,-1.07,0.96,0.96,0.96
126,1.51,0.56,1.59,0.66,-0.66,-1.07,0.85,0.93,0.94
128,1.53,0.62,1.55,0.64,-0.64,-1.07,0.89,0.91,0.91
129,1.55,0.65,1.51,0.62,-0.62,-1.06,0.93,0.89,0.90
130,1.56,0.67,1.47,0.60,-0.60,-1.06,0.96,0.87,0.89
131,1.47,0.59,1.43,0.58,-0.58,-1.05,0.89,0.86,0.87
133,1.35,0.51,1.39,0.55,-0.55,-1.03,0.79,0.84,0.84
134,1.37,0.54,1.35,0.53,-0.53,-1.02,0.84,0.82,0.83
135,1.32,0.50,1.30,0.50,-0.50,-1.00,0.82,0.80,0.81
137,1.21,0.43,1.25,0.47,-0.47,-0.97,0.74,0.78,0.78
138,1.14,0.37,1.20,0.44,-0.44,-0.95,0.69,0.76,0.77
140,1.18,0.44,1.15,0.41,-0.41,-0.91,0.76,0.74,0.74
141,1.18,0.45,1.10,0.38,-0.38,-0.89,0.79,0.72,0.72
142,1.06,0.35,1.05,0.36,-0.36,-0.87,0.70,0.70,0.71
144,0.94,0.26,1.00,0.33,-0.33,-0.82,0.61,0.67,0.68
145,0.96,0.29,0.95,0.30,-0.30,-0.79,0.66,0.65,0.66
147,0.96,0.32,0.91,0.27,-0.27,-0.74,0.68,0.64,0.63
148,0.85,0.22,0.86,0.24,-0.24,-0.72,0.60,0.62,0.62
150,0.75,0.15,0.82,0.22,-0.22,-0.67,0.53,0.60,0.60
151,0.76,0.17,0.77,0.19,-0.19,-0.64,0.57,0.58,0.58
153,0.78,0.22,0.72,0.16,-0.16,-0.58,0.62,0.56,0.56
154,0.77,0.22,0.67,0.13,-0.13,-0.56,0.64,0.54,0.55
156,0.56,0.03,0.63,0.10,-0.10,-0.50,0.46,0.53,0.53
157,0.54,0.02,0.59,0.07,-0.07,-0.47,0.47,0.52,0.52
159,0.56,0.06,0.54,0.04,-0.04,-0.42,0.51,0.50,0.50
160,0.54,0.05,0.49,0.01,-0.01,-0.39,0.52,0.47,0.49
162,0.46,-0.01,0.43,-0.01,0.01,-0.34,0.47,0.45,0.46
164,0.36,-0.09,0.39,-0.04,0.04,-0.28,0.40,0.44,0.44
165,0.36,-0.07,0.35,-0.07,0.07,-0.26,0.42,0.42,0.43
167,0.35,-0.06,0.30,-0.09,0.09,-0.20,0.44,0.39,0.41
169,0.24,-0.15,0.26,-0.11,0.11,-0.15,0.35,0.37,0.38
170,0.24,-0.14,0.23,-0.13,0.13,-0.13,0.37,0.36,0.37
172,0.13,-0.23,0.20,-0.15,0.15,-0.07,0.28,0.35,0.35
174,0.12,-0.22,0.16,-0.17,0.17,-0.02,0.29,0.33,0.33
175,0.12,-0.21,0.12,-0.19,0.19,0.00,0.30,0.31,0.32
177,0.12,-0.19,0.09,-0.20,0.20,0.05,0.32,0.29,0.31
179,0.13,-0.17,0.07,-0.22,0.22,0.10,0.35,0.29,0.30
181,0.07,-0.22,0.05,-0.24,0.24,0.15,0.31,0.29,0.29
183,0.02,-0.27,0.02,-0.26,0.26,0.20,0.28,0.28,0.28
184,0.03,-0.26,-0.00,-0.28,0.28,0.22,0.31,0.28,0.29
186,-0.02,-0.31,-0.02,-0.30,0.30,0.27,0.28,0.28,0.29
188,-0.06,-0.35,-0.04,-0.33,0.33,0.32,0.26,0.29,0.29
190,-0.13,-0.43,-0.06,-0.36,0.36,0.36,0.22,0.30,0.30
192,-0.11,-0.41,-0.09,-0.38,0.38,0.41,0.27,0.30,0.30
194,-0.09,-0.40,-0.12,-0.41,0.41,0.45,0.32,0.29,0.31
196,-0.08,-0.39,-0.16,-0.45,0.45,0.50,0.36,0.29,0.31
198,-0.11,-0.43,-0.19,-0.48,0.48,0.54,0.37,0.29,0.31
200,-0.26,-0.58,-0.21,-0.52,0.52,0.58,0.25,0.30,0.32
202,-0.25,-0.57,-0.25,-0.55,0.55,0.63,0.29,0.30,0.32
204,-0.24,-0.56,-0.28,-0.58,0.58,0.67,0.33,0.29,0.31
206,-0.29,-0.60,-0.32,-0.61,0.61,0.71,0.31,0.29,0.31
208,-0.43,-0.74,-0.35,-0.64,0.64,0.75,0.21,0.29,0.30
210,-0.45,-0.75,-0.39,-0.67,0.67,0.79,0.22,0.29,0.30
212,-0.45,-0.74,-0.43,-0.71,0.71,0.83,0.25,0.27,0.29
214,-0.45,-0.73,-0.48,-0.74,0.74,0.86,0.29,0.26,0.28
216,-0.46,-0.73,-0.53,-0.78,0.78,0.90,0.32,0.25,0.27
218,-0.55,-0.81,-0.57,-0.83,0.83,0.93,0.28,0.25,0.26
221,-0.63,-0.88,-0.62,-0.88,0.88,0.99,0.24,0.25,0.24
223,-0.67,-0.91,-0.68,-0.92,0.92,1.02,0.25,0.24,0.24
225,-0.67,-0.91,-0.74,-0.98,0.98,1.05,0.30,0.24,0.23
227,-0.74,-0.98,-0.80,-1.03,1.03,1.08,0.28,0.23,0.23
229,-0.82,-1.06,-0.85,-1.08,1.08,1.11,0.26,0.23,0.23
232,-0.98,-1.22,-0.91,-1.13,1.13,1.15,0.15,0.23,0.23
234,-0.97,-1.21,-0.96,-1.18,1.18,1.17,0.20,0.22,0.24
236,-0.98,-1.23,-1.00,-1.22,1.22,1.20,0.23,0.22,0.25
239,-1.04,-1.30,-1.02,-1.25,1.25,1.23,0.20,0.23,0.26
241,-1.10,-1.37,-1.02,-1.27,1.27,1.25,0.17,0.25,0.27
244,-1.08,-1.37,-1.02,-1.28,1.28,1.28,0.20,0.26,0.28
246,-1.08,-1.38,-1.02,-1.29,1.29,1.30,0.20,0.27,0.30
248,-1.06,-1.38,-1.00,-1.29,1.29,1.31,0.22,0.28,0.31
251,-0.94,-1.27,-0.98,-1.28,1.28,1.34,0.33,0.30,0.32
253,-0.91,-1.25,-0.96,-1.27,1.27,1.35,0.35,0.31,0.34
256,-0.90,-1.25,-0.93,-1.25,1.25,1.37,0.35,0.32,0.34
259,-0.80,-1.15,-0.91,-1.24,1.24,1.38,0.43,0.33,0.35
261,-0.78,-1.14,-0.89,-1.23,1.23,1.39,0.44,0.34,0.35
264,-0.85,-1.21,-0.87,-1.22,1.22,1.40,0.36,0.35,0.36
266,-0.88,-1.24,-0.86,-1.21,1.21,1.41,0.33,0.35,0.36
269,-0.89,-1.25,-0.86,-1.21,1.21,1.42,0.32,0.36,0.35
272,-0.89,-1.25,-0.86,-1.22,1.22,1.42,0.32,0.36,0.35
274,-0.89,-1.24,-0.87,-1.22,1.22,1.43,0.33,0.35,0.35
277,-0.90,-1.25,-0.89,-1.24,1.24,1.43,0.33,0.34,0.35
280,-0.89,-1.24,-0.91,-1.25,1.25,1.43,0.36,0.34,0.35
283,-0.89,-1.24,-0.93,-1.27,1.27,1.44,0.38,0.34,0.35
286,-0.92,-1.28,-0.95,-1.29,1.29,1.44,0.37,0.34,0.35
288,-0.98,-1.34,-0.96,-1.31,1.31,1.44,0.32,0.35,0.36
291,-0.97,-1.34,-0.96,-1.32,1.32,1.44,0.35,0.36,0.37
294,-0.96,-1.34,-0.96,-1.34,1.34,1.44,0.37,0.37,0.38
297,-0.99,-1.38,-0.97,-1.36,1.36,1.44,0.36,0.39,0.39
300,-1.03,-1.43,-0.98,-1.37,1.37,1.44,0.34,0.39,0.40
303,-1.02,-1.43,-0.99,-1.39,1.39,1.45,0.37,0.40,0.41
306,-1.01,-1.43,-1.01,-1.41,1.41,1.45,0.40,0.40,0.42
309,-1.00,-1.43,-1.03,-1.43,1.43,1.45,0.43,0.41,0.42
312,-0.99,-1.42,-1.04,-1.45,1.45,1.45,0.46,0.41,0.43
316,-0.99,-1.43,-1.06,-1.48,1.48,1.46,0.48,0.42,0.43
319,-0.99,-1.43,-1.07,-1.50,1.50,1.46,0.51,0.43,0.44
322,-1.07,-1.51,-1.09,-1.52,1.52,1.47,0.45,0.43,0.44
325,-1.19,-1.64,-1.11,-1.55,1.55,1.47,0.36,0.44,0.44
328,-1.19,-1.64,-1.14,-1.57,1.57,1.48,0.38,0.44,0.44
332,-1.19,-1.63,-1.16,-1.60,1.60,1.49,0.40,0.44,0.44
335,-1.19,-1.63,-1.19,-1.62,1.62,1.50,0.43,0.43,0.44
338,-1.20,-1.64,-1.21,-1.64,1.64,1.51,0.44,0.43,0.44
342,-1.20,-1.64,-1.24,-1.66,1.66,1.52,0.46,0.42,0.44
345,-1.20,-1.64,-1.25,-1.68,1.68,1.53,0.47,0.42,0.44
349,-1.29,-1.73,-1.26,-1.69,1.69,1.55,0.40,0.43,0.44
352,-1.30,-1.75,-1.27,-1.70,1.70,1.56,0.40,0.43,0.44
356,-1.29,-1.74,-1.27,-1.71,1.71,1.58,0.42,0.45,0.45
359,-1.29,-1.74,-1.26,-1.72,1.72,1.60,0.43,0.46,0.45
363,-1.28,-1.74,-1.27,-1.73,1.73,1.62,0.45,0.46,0.46
366,-1.28,-1.75,-1.28,-1.74,1.74,1.64,0.46,0.46,0.46
370,-1.27,-1.75,-1.29,-1.76,1.76,1.66,0.48,0.46,0.47
374,-1.26,-1.74,-1.31,-1.77,1.77,1.68,0.51,0.47,0.48
377,-1.26,-1.75,-1.31,-1.79,1.79,1.70,0.52,0.48,0.49
381,-1.28,-1.78,-1.32,-1.81,1.81,1.73,0.52,0.48,0.49
385,-1.34,-1.84,-1.33,-1.83,1.83,1.76,0.48,0.49,0.50
389,-1.34,-1.85,-1.35,-1.85,1.85,1.79,0.51,0.50,0.50
393,-1.41,-1.92,-1.38,-1.87,1.87,1.81,0.46,0.50,0.51
397,-1.43,-1.94,-1.40,-1.90,1.90,1.84,0.47,0.50,0.51
401,-1.43,-1.94,-1.43,-1.92,1.92,1.87,0.49,0.49,0.51
405,-1.44,-1.95,-1.46,-1.95,1.95,1.90,0.50,0.49,0.50
409,-1.44,-1.95,-1.48,-1.97,1.97,1.93,0.53,0.49,0.50
413,-1.44,-1.95,-1.50,-1.99,1.99,1.97,0.55,0.49,0.50
417,-1.54,-2.05,-1.51,-2.01,2.01,2.00,0.47,0.50,0.51
421,-1.55,-2.07,-1.51,-2.03,2.03,2.03,0.47,0.51,0.51
425,-1.54,-2.07,-1.51,-2.04,2.04,2.06,0.50,0.53,0.52
430,-1.53,-2.08,-1.51,-2.06,2.06,2.09,0.52,0.55,0.54
434,-1.51,-2.08,-1.49,-2.07,2.07,2.12,0.55,0.57,0.57
438,-1.48,-2.08,-1.48,-2.08,2.08,2.15,0.60,0.60,0.60
443,-1.44,-2.08,-1.45,-2.09,2.09,2.19,0.65,0.64,0.63
447,-1.40,-2.08,-1.42,-2.10,2.10,2.21,0.70,0.68,0.68
451,-1.34,-2.07,-1.38,-2.11,2.11,2.24,0.77,0.73,0.73
456,-1.34,-2.13,-1.34,-2.12,2.12,2.27,0.78,0.79,0.78
460,-1.35,-2.19,-1.29,-2.14,2.14,2.29,0.78,0.85,0.84
465,-1.27,-2.17,-1.25,-2.15,2.15,2.32,0.88,0.90,0.90
470,-1.20,-2.16,-1.21,-2.17,2.17,2.34,0.96,0.95,0.96
474,-1.15,-2.17,-1.18,-2.18,2.18,2.36,1.03,1.01,1.01
479,-1.09,-2.16,-1.14,-2.20,2.20,2.38,1.10,1.06,1.07
484,-1.05,-2.17,-1.11,-2.21,2.21,2.40,1.16,1.11,1.12
489,-1.03,-2.20,-1.08,-2.23,2.23,2.41,1.19,1.15,1.17
494,-1.11,-2.32,-1.05,-2.24,2.24,2.42,1.12,1.19,1.21
499,-1.07,-2.31,-1.03,-2.25,2.25,2.43,1.17,1.22,1.24
504,-1.02,-2.29,-1.01,-2.26,2.26,2.44,1.23,1.25,1.27
509,-1.00,-2.29,-1.00,-2.27,2.27,2.44,1.26,1.27,1.28
514,-0.99,-2.29,-1.00,-2.27,2.27,2.44,1.28,1.28,1.29
519,-0.98,-2.28,-1.00,-2.28,2.28,2.44,1.29,1.28,1.30
524,-0.99,-2.28,-1.01,-2.28,2.28,2.44,1.29,1.27,1.29
529,-1.00,-2.28,-1.03,-2.29,2.29,2.44,1.28,1.26,1.28
535,-1.02,-2.28,-1.05,-2.29,2.29,2.43,1.27,1.24,1.25
540,-1.05,-2.28,-1.08,-2.30,2.30,2.42,1.24,1.22,1.23
545,-1.09,-2.29,-1.11,-2.30,2.30,2.41,1.21,1.19,1.19
551,-1.14,-2.30,-1.15,-2.31,2.31,2.40,1.17,1.16,1.16
556,-1.19,-2.32,-1.19,-2.32,2.32,2.39,1.13,1.13,1.13
562,-1.24,-2.34,-1.24,-2.33,2.33,2.38,1.09,1.09,1.09
568,-1.29,-2.36,-1.28,-2.34,2.34,2.36,1.05,1.06,1.06
573,-1.33,-2.37,-1.31,-2.35,2.35,2.35,1.02,1.05,1.04
579,-1.37,-2.40,-1.34,-2.37,2.37,2.33,0.99,1.03,1.02
585,-1.39,-2.40,-1.36,-2.38,2.38,2.32,0.99,1.02,1.01
591,-1.40,-2.41,-1.39,-2.40,2.40,2.30,0.99,1.01,1.01
596,-1.41,-2.42,-1.41,-2.42,2.42,2.29,1.00,1.01,1.01
602,-1.41,-2.43,-1.42,-2.43,2.43,2.28,1.02,1.02,1.02
608,-1.39,-2.43,-1.42,-2.45,2.45,2.26,1.06,1.03,1.03
615,-1.38,-2.44,-1.41,-2.47,2.47,2.25,1.09,1.06,1.06
621,-1.36,-2.45,-1.40,-2.49,2.49,2.24,1.13,1.09,1.08
627,-1.33,-2.45,-1.39,-2.51,2.51,2.23,1.18,1.12,1.12
633,-1.44,-2.60,-1.38,-2.53,2.53,2.22,1.09,1.16,1.16
639,-1.42,-2.63,-1.35,-2.55,2.55,2.21,1.13,1.20,1.20
646,-1.33,-2.58,-1.32,-2.57,2.57,2.20,1.23,1.25,1.25
652,-1.29,-2.59,-1.28,-2.58,2.58,2.20,1.28,1.30,1.30
659,-1.24,-2.59,-1.24,-2.58,2.58,2.19,1.34,1.34,1.35
665,-1.19,-2.60,-1.20,-2.59,2.59,2.19,1.39,1.39,1.40
672,-1.14,-2.60,-1.15,-2.59,2.59,2.19,1.44,1.43,1.45
679,-1.13,-2.64,-1.10,-2.58,2.58,2.19,1.45,1.48,1.50
686,-1.10,-2.65,-1.05,-2.57,2.57,2.20,1.46,1.52,1.55
692,-0.93,-2.52,-0.99,-2.55,2.55,2.20,1.62,1.56,1.58
699,-0.88,-2.50,-0.94,-2.54,2.54,2.21,1.66,1.60,1.61
706,-0.86,-2.50,-0.89,-2.53,2.53,2.22,1.66,1.63,1.64
713,-0.86,-2.52,-0.87,-2.51,2.51,2.23,1.65,1.64,1.65
721,-0.87,-2.53,-0.85,-2.50,2.50,2.24,1.63,1.65,1.66
728,-0.78,-2.45,-0.83,-2.49,2.49,2.26,1.71,1.66,1.66
735,-0.81,-2.48,-0.82,-2.48,2.48,2.27,1.67,1.66,1.66
742,-0.74,-2.41,-0.81,-2.48,2.48,2.29,1.73,1.66,1.66
750,-0.77,-2.44,-0.80,-2.47,2.47,2.31,1.70,1.67,1.66
757,-0.79,-2.46,-0.80,-2.47,2.47,2.33,1.68,1.67,1.66
765,-0.81,-2.48,-0.80,-2.47,2.47,2.35,1.66,1.67,1.67
773,-0.87,-2.55,-0.80,-2.47,2.47,2.38,1.60,1.68,1.67
780,-0.88,-2.56,-0.79,-2.47,2.47,2.40,1.59,1.68,1.68
788,-0.80,-2.50,-0.77,-2.47,2.47,2.43,1.66,1.69,1.69
796,-0.75,-2.46,-0.76,-2.46,2.46,2.45,1.71,1.71,1.71
804,-0.75,-2.48,-0.74,-2.45,2.45,2.48,1.70,1.71,1.72
812,-0.65,-2.39,-0.72,-2.44,2.44,2.51,1.79,1.72,1.74
820,-0.60,-2.36,-0.69,-2.42,2.42,2.54,1.82,1.73,1.76
828,-0.66,-2.44,-0.65,-2.40,2.40,2.57,1.74,1.75,1.77
837,-0.66,-2.45,-0.61,-2.38,2.38,2.60,1.71,1.77,1.79
845,-0.55,-2.35,-0.56,-2.35,2.35,2.62,1.80,1.79,1.80
853,-0.56,-2.38,-0.51,-2.32,2.32,2.65,1.76,1.81,1.81
862,-0.45,-2.27,-0.47,-2.29,2.29,2.67,1.83,1.82,1.82
871,-0.45,-2.28,-0.44,-2.26,2.26,2.70,1.80,1.82,1.83
879,-0.45,-2.29,-0.40,-2.22,2.22,2.72,1.77,1.82,1.83
888,-0.29,-2.13,-0.36,-2.19,2.19,2.74,1.90,1.83,1.84
897,-0.27,-2.12,-0.32,-2.16,2.16,2.75,1.89,1.84,1.84
906,-0.28,-2.13,-0.29,-2.14,2.14,2.77,1.85,1.85,1.85
915,-0.22,-2.08,-0.25,-2.11,2.11,2.78,1.89,1.86,1.85
924,-0.18,-2.04,-0.22,-2.09,2.09,2.78,1.90,1.87,1.86
933,-0.19,-2.06,-0.20,-2.07,2.07,2.78,1.87,1.87,1.87
943,-0.19,-2.07,-0.17,-2.04,2.04,2.78,1.85,1.88,1.87
952,-0.18,-2.07,-0.15,-2.02,2.02,2.77,1.84,1.87,1.88
962,-0.09,-1.99,-0.12,-2.00,2.00,2.75,1.91,1.88,1.89
971,-0.07,-1.98,-0.09,-1.98,1.98,2.73,1.90,1.89,1.91
981,-0.06,-1.98,-0.05,-1.95,1.95,2.71,1.89,1.91,1.92
991,-0.05,-1.99,-0.00,-1.93,1.93,2.67,1.88,1.93,1.93
1001,0.01,-1.95,0.05,-1.91,1.91,2.64,1.91,1.95,1.95
1011,0.09,-1.89,0.10,-1.88,1.88,2.59,1.97,1.98,1.97
1021,0.11,-1.89,0.15,-1.85,1.85,2.54,1.96,2.00,2.00
1031,0.19,-1.84,0.20,-1.83,1.83,2.48,2.01,2.02,2.02
1041,0.27,-1.78,0.24,-1.80,1.80,2.42,2.07,2.05,2.05
1052,0.40,-1.68,0.28,-1.78,1.78,2.35,2.17,2.06,2.07
1062,0.44,-1.67,0.33,-1.76,1.76,2.27,2.19,2.09,2.10
1073,0.45,-1.68,0.39,-1.73,1.73,2.19,2.18,2.12,2.13
1084,0.44,-1.72,0.44,-1.71,1.71,2.10,2.15,2.15,2.16
1094,0.49,-1.70,0.50,-1.69,1.69,2.02,2.17,2.18,2.19
1105,0.48,-1.75,0.55,-1.66,1.66,1.92,2.14,2.21,2.22
1116,0.51,-1.75,0.62,-1.63,1.63,1.82,2.14,2.25,2.26
1128,0.58,-1.71,0.69,-1.60,1.60,1.70,2.17,2.28,2.29
1139,0.76,-1.57,0.75,-1.56,1.56,1.60,2.31,2.31,2.32
1150,0.84,-1.52,0.83,-1.51,1.51,1.49,2.35,2.34,2.36
1162,1.02,-1.38,0.91,-1.46,1.46,1.37,2.48,2.37,2.40
1173,1.03,-1.41,1.01,-1.41,1.41,1.25,2.44,2.42,2.43
1185,1.11,-1.36,1.12,-1.35,1.35,1.13,2.46,2.47,2.47
1197,1.22,-1.29,1.22,-1.29,1.29,1.00,2.50,2.51,2.51
1209,1.34,-1.21,1.33,-1.22,1.22,0.88,2.56,2.55,2.54
1221,1.46,-1.12,1.44,-1.15,1.15,0.75,2.60,2.58,2.58
1233,1.52,-1.10,1.54,-1.07,1.07,0.62,2.59,2.61,2.61
1246,1.61,-1.04,1.64,-0.99,0.99,0.48,2.60,2.63,2.64
1258,1.76,-0.91,1.73,-0.91,0.91,0.35,2.66,2.64,2.67
1271,1.90,-0.79,1.83,-0.82,0.82,0.21,2.71,2.65,2.68
1283,2.00,-0.70,1.94,-0.72,0.72,0.08,2.72,2.66,2.70
1296,1.97,-0.74,2.05,-0.63,0.63,-0.05,2.59,2.68,2.70
1309,2.14,-0.56,2.16,-0.52,0.52,-0.19,2.66,2.69,2.70
1322,2.30,-0.40,2.26,-0.41,0.41,-0.33,2.71,2.67,2.69
1335,2.36,-0.33,2.36,-0.29,0.29,-0.47,2.65,2.65,2.68
1349,2.48,-0.19,2.48,-0.16,0.16,-0.62,2.64,2.65,2.67
1362,2.61,-0.04,2.61,-0.03,0.03,-0.76,2.64,2.64,2.65
1376,2.68,0.05,2.73,0.11,-0.11,-0.90,2.56,2.62,2.63
1390,2.95,0.34,2.85,0.26,-0.26,-1.05,2.69,2.60,2.61
1404,3.08,0.49,2.99,0.41,-0.41,-1.20,2.67,2.58,2.59
1418,3.05,0.48,3.14,0.56,-0.56,-1.34,2.48,2.57,2.57
1432,3.18,0.62,3.30,0.72,-0.72,-1.49,2.45,2.58,2.56
1446,3.36,0.81,3.45,0.88,-0.88,-1.64,2.47,2.57,2.55
1461,3.70,1.15,3.61,1.05,-1.05,-1.79,2.65,2.56,2.55
1475,3.85,1.30,3.76,1.21,-1.21,-1.94,2.64,2.56,2.55
1490,3.87,1.32,3.90,1.36,-1.36,-2.09,2.51,2.54,2.55
1505,3.95,1.39,4.04,1.51,-1.51,-2.24,2.44,2.53,2.56
1520,4.27,1.70,4.20,1.65,-1.65,-2.40,2.61,2.55,2.57
1535,4.47,1.89,4.36,1.79,-1.79,-2.55,2.68,2.57,2.58
1550,4.59,1.99,4.53,1.91,-1.91,-2.70,2.68,2.62,2.59
1566,4.67,2.06,4.69,2.02,-2.02,-2.86,2.65,2.67,2.61
1582,4.72,2.08,4.81,2.12,-2.12,-3.02,2.60,2.69,2.63
1597,4.83,2.17,4.91,2.21,-2.21,-3.17,2.61,2.70,2.66
1613,4.93,2.24,4.98,2.30,-2.30,-3.32,2.63,2.69,2.69
1629,5.09,2.36,5.06,2.37,-2.37,-3.48,2.72,2.69,2.72
1646,5.39,2.63,5.15,2.43,-2.43,-3.64,2.95,2.71,2.76
1662,5.55,2.74,5.24,2.49,-2.49,-3.79,3.05,2.75,2.80
1679,5.53,2.67,5.34,2.55,-2.55,-3.95,2.97,2.79,2.86
1696,5.43,2.51,5.45,2.61,-2.61,-4.10,2.82,2.84,2.91
1713,5.33,2.35,5.55,2.67,-2.67,-4.24,2.65,2.88,2.98
1730,5.35,2.29,5.66,2.74,-2.74,-4.39,2.60,2.92,3.05
1747,5.58,2.44,5.80,2.83,-2.83,-4.53,2.74,2.96,3.14
1764,5.88,2.65,5.95,2.94,-2.94,-4.66,2.94,3.01,3.23
1782,6.28,2.95,6.15,3.06,-3.06,-4.79,3.21,3.09,3.32
1800,6.62,3.19,6.38,3.21,-3.21,-4.92,3.41,3.17,3.42
1818,6.83,3.30,6.64,3.38,-3.38,-5.03,3.45,3.26,3.53
1836,6.91,3.27,6.95,3.58,-3.58,-5.14,3.33,3.37,3.64
1854,7.07,3.32,7.30,3.81,-3.81,-5.24,3.26,3.49,3.74
1873,7.41,3.55,7.72,4.07,-4.07,-5.33,3.34,3.65,3.86
1892,7.94,3.96,8.17,4.35,-4.35,-5.41,3.59,3.82,3.97
1911,8.63,4.54,8.63,4.64,-4.64,-5.48,3.99,3.99,4.09
1930,9.09,4.89,9.08,4.94,-4.94,-5.54,4.14,4.14,4.20
1949,9.55,5.23,9.50,5.24,-5.24,-5.58,4.31,4.26,4.31
1969,9.87,5.45,9.92,5.53,-5.53,-5.61,4.34,4.40,4.42
