frequency,raw
20,2.69
21,2.74
22,2.78
23,2.82
24,2.86
25,2.89
26,2.93
27,2.96
28,3.00
29,3.03
30,3.06
31,3.07
32,3.10
33,3.13
34,3.17
35,3.20
36,3.22
37,3.24
38,3.26
39,3.26
40,3.26
41,3.25
42,3.24
43,3.24
44,3.24
45,3.24
46,3.24
47,3.24
48,3.24
49,3.24
50,3.24
51,3.24
52,3.24
53,3.24
54,3.24
55,3.24
56,3.24
57,3.24
58,3.24
59,3.24
60,3.24
61,3.24
62,3.24
63,3.24
64,3.24
65,3.24
66,3.24
67,3.24
68,3.24
69,3.24
70,3.24
71,3.24
72,3.24
73,3.24
74,3.24
75,3.24
76,3.24
77,3.24
78,3.25
79,3.26
80,3.26
81,3.25
82,3.24
83,3.22
84,3.20
85,3.17
86,3.13
87,3.10
88,3.07
89,3.03
90,3.00
91,2.97
92,2.94
93,2.92
94,2.90
95,2.89
96,2.89
97,2.89
98,2.90
99,2.91
100,2.91
101,2.91
102,2.91
104,2.91
105,2.91
106,2.91
107,2.91
108,2.91
109,2.91
110,2.91
111,2.91
112,2.91
113,2.91
114,2.91
115,2.91
117,2.91
118,2.91
119,2.91
120,2.92
121,2.93
123,2.94
124,2.93
125,2.92
126,2.91
128,2.89
129,2.86
130,2.83
131,2.80
133,2.76
134,2.73
135,2.71
137,2.68
138,2.66
140,2.62
141,2.59
142,2.56
144,2.52
145,2.50
147,2.47
148,2.45
150,2.43
151,2.40
153,2.37
154,2.34
156,2.30
157,2.26
159,2.22
160,2.18
162,2.16
164,2.14
165,2.11
167,2.07
169,2.03
170,1.99
172,1.94
174,1.89
175,1.83
177,1.77
179,1.72
181,1.67
183,1.61
184,1.55
186,1.48
188,1.41
190,1.34
192,1.27
194,1.20
196,1.14
198,1.06
200,0.98
202,0.91
204,0.83
206,0.75
208,0.67
210,0.59
212,0.50
214,0.42
216,0.34
218,0.25
221,0.17
223,0.10
225,0.03
227,-0.04
229,-0.11
232,-0.18
234,-0.24
236,-0.31
239,-0.37
241,-0.42
244,-0.46
246,-0.50
248,-0.55
251,-0.60
253,-0.65
256,-0.68
259,-0.73
261,-0.78
264,-0.82
266,-0.85
269,-0.87
272,-0.89
274,-0.90
277,-0.93
280,-0.97
283,-1.00
286,-1.03
288,-1.06
291,-1.08
294,-1.11
297,-1.13
300,-1.16
303,-1.19
306,-1.21
309,-1.24
312,-1.27
316,-1.31
319,-1.34
322,-1.37
325,-1.40
328,-1.41
332,-1.43
335,-1.46
338,-1.49
342,-1.53
345,-1.58
349,-1.63
352,-1.67
356,-1.70
359,-1.74
363,-1.78
366,-1.82
370,-1.86
374,-1.90
377,-1.95
381,-2.02
385,-2.08
389,-2.15
393,-2.22
397,-2.27
401,-2.31
405,-2.36
409,-2.42
413,-2.48
417,-2.55
421,-2.60
425,-2.65
430,-2.68
434,-2.71
438,-2.76
443,-2.81
447,-2.85
451,-2.90
456,-2.94
460,-3.00
465,-3.05
470,-3.09
474,-3.13
479,-3.16
484,-3.19
489,-3.21
494,-3.23
499,-3.26
504,-3.28
509,-3.30
514,-3.29
519,-3.27
524,-3.25
529,-3.22
535,-3.19
540,-3.17
545,-3.14
551,-3.12
556,-3.08
562,-3.04
568,-3.00
573,-2.95
579,-2.91
585,-2.88
591,-2.84
596,-2.79
602,-2.75
608,-2.72
615,-2.68
621,-2.63
627,-2.57
633,-2.51
639,-2.44
646,-2.38
652,-2.32
659,-2.27
665,-2.22
672,-2.16
679,-2.10
686,-2.04
692,-1.97
699,-1.90
706,-1.84
713,-1.79
721,-1.72
728,-1.65
735,-1.58
742,-1.51
750,-1.44
757,-1.38
765,-1.31
773,-1.24
780,-1.18
788,-1.12
796,-1.07
804,-1.01
812,-0.96
820,-0.92
828,-0.87
837,-0.81
845,-0.74
853,-0.68
862,-0.63
871,-0.60
879,-0.56
888,-0.51
897,-0.45
906,-0.40
915,-0.35
924,-0.31
933,-0.28
943,-0.24
952,-0.20
962,-0.16
971,-0.12
981,-0.08
991,-0.05
1001,0.01
1011,0.06
1021,0.12
1031,0.17
1041,0.23
1052,0.29
1062,0.34
1073,0.41
1084,0.48
1094,0.55
1105,0.63
1116,0.71
1128,0.77
1139,0.82
1150,0.89
1162,0.97
1173,1.05
1185,1.11
1197,1.18
1209,1.25
1221,1.33
1233,1.39
1246,1.46
1258,1.54
1271,1.62
1283,1.70
1296,1.77
1309,1.85
1322,1.91
1335,1.99
1349,2.07
1362,2.15
1376,2.22
1390,2.30
1404,2.38
1418,2.47
1432,2.54
1446,2.62
1461,2.72
1475,2.81
1490,2.89
1505,2.98
1520,3.07
1535,3.16
1550,3.26
1566,3.35
1582,3.45
1597,3.55
1613,3.64
1629,3.74
1646,3.83
1662,3.92
1679,4.00
1696,4.08
1713,4.16
1730,4.25
1747,4.33
1764,4.41
1782,4.48
1800,4.55
1818,4.61
1836,4.67
1854,4.71
1873,4.75
1892,4.80
1911,4.83
1930,4.86
1949,4.87
1969,4.88
1988,4.88
2008,4.88
2028,4.88
2048,4.88
2069,4.88
2090,4.88
2111,4.88
2132,4.87
2153,4.86
2175,4.84
2196,4.80
2218,4.77
2240,4.73
2263,4.67
2285,4.62
2308,4.55
2331,4.46
2355,4.37
2378,4.28
2402,4.19
2426,4.10
2450,4.00
2475,3.90
2500,3.80
2525,3.69
2550,3.58
2575,3.47
2601,3.35
2627,3.24
2653,3.12
2680,3.00
2707,2.89
2734,2.78
2761,2.66
2789,2.55
2817,2.43
2845,2.30
2873,2.20
2902,2.10
2931,2.00
2960,1.88
2990,1.76
3020,1.65
3050,1.54
3080,1.42
3111,1.29
3142,1.14
3174,1.00
3206,0.86
3238,0.71
3270,0.55
3303,0.40
3336,0.24
3369,0.08
3403,-0.08
3437,-0.26
3471,-0.45
3506,-0.63
3541,-0.83
3576,-1.05
3612,-1.30
3648,-1.54
3685,-1.80
3721,-2.09
3759,-2.40
3796,-2.72
3834,-3.05
3873,-3.36
3911,-3.66
3950,-3.92
3990,-4.14
4030,-4.29
4070,-4.38
4111,-4.38
4152,-4.31
4193,-4.17
4235,-3.97
4278,-3.69
4321,-3.34
4364,-2.93
4407,-2.47
4451,-1.98
4496,-1.46
4541,-0.93
4586,-0.40
4632,0.11
4679,0.60
4725,1.07
4773,1.51
4820,1.93
4868,2.33
4917,2.69
4966,3.02
5016,3.30
5066,3.54
5117,3.73
5168,3.88
5220,4.00
5272,4.09
5325,4.18
5378,4.23
5432,4.26
5486,4.27
5541,4.27
5596,4.25
5652,4.22
5709,4.18
5766,4.13
5823,4.06
5882,4.00
5940,3.93
6000,3.88
6060,3.82
6120,3.78
6182,3.75
6244,3.73
6306,3.72
6369,3.72
6433,3.76
6497,3.80
6562,3.83
6628,3.85
6694,3.86
6761,3.85
6828,3.83
6897,3.79
6966,3.72
7035,3.63
7106,3.52
7177,3.40
7249,3.26
7321,3.10
7394,2.92
7468,2.73
7543,2.51
7618,2.27
7694,2.02
7771,1.77
7849,1.50
7928,1.19
8007,0.85
8087,0.50
8168,0.12
8250,-0.28
8332,-0.69
8415,-1.12
8499,-1.56
8584,-2.01
8670,-2.47
8757,-2.93
8845,-3.39
8933,-3.82
9022,-4.23
9113,-4.62
9204,-4.97
9296,-5.26
9389,-5.49
9483,-5.67
9577,-5.79
9673,-5.85
9770,-5.84
9868,-5.76
9966,-5.63
10066,-5.46
10167,-5.25
10268,-5.00
10371,-4.72
10475,-4.43
10579,-4.14
10685,-3.84
10792,-3.53
10900,-3.22
11009,-2.93
11119,-2.64
11230,-2.36
11343,-2.09
11456,-1.83
11571,-1.59
11686,-1.39
11803,-1.21
11921,-1.05
12040,-0.92
12161,-0.83
12282,-0.76
12405,-0.72
12529,-0.72
12655,-0.76
12781,-0.84
12909,-0.95
13038,-1.10
13168,-1.28
13300,-1.49
13433,-1.75
13567,-2.05
13703,-2.40
13840,-2.79
13978,-3.24
14118,-3.76
14259,-4.34
14402,-4.96
14546,-5.61
14692,-6.29
14838,-6.99
14987,-7.69
15137,-8.38
15288,-9.03
15441,-9.64
15595,-10.20
15751,-10.69
15909,-11.10
16068,-11.46
16229,-11.74
16391,-11.96
16555,-12.10
16720,-12.20
16888,-12.27
17056,-12.31
17227,-12.33
17399,-12.33
17573,-12.34
17749,-12.36
17926,-12.41
18106,-12.49
18287,-12.62
18470,-12.77
18654,-12.93
18841,-13.11
19029,-13.32
19220,-13.54
19412,-13.78
19606,-14.03
19802,-14.31
20000,-14.61
