frequency,raw
20.00,-5.56
20.20,-5.48
20.40,-5.39
20.61,-5.31
20.81,-5.23
21.02,-5.15
21.23,-5.14
21.44,-5.13
21.66,-5.12
21.87,-5.11
22.09,-5.10
22.31,-5.07
22.54,-5.04
22.76,-5.01
22.99,-4.98
23.22,-4.95
23.45,-4.92
23.69,-4.89
23.92,-4.86
24.16,-4.83
24.40,-4.81
24.65,-4.78
24.89,-4.76
25.14,-4.74
25.39,-4.71
25.65,-4.68
25.91,-4.66
26.16,-4.63
26.43,-4.61
26.69,-4.58
26.96,-4.55
27.23,-4.55
27.50,-4.55
27.77,-4.55
28.05,-4.54
28.33,-4.52
28.62,-4.49
28.90,-4.46
29.19,-4.43
29.48,-4.40
29.78,-4.37
30.08,-4.34
30.38,-4.31
30.68,-4.28
30.99,-4.25
31.30,-4.25
31.61,-4.25
31.93,-4.25
32.24,-4.24
32.57,-4.23
32.89,-4.22
33.22,-4.20
33.55,-4.18
33.89,-4.16
34.23,-4.15
34.57,-4.15
34.92,-4.15
35.27,-4.12
35.62,-4.08
35.97,-4.03
36.33,-4.04
36.70,-4.04
37.06,-4.05
37.43,-4.05
37.81,-4.05
38.19,-4.05
38.57,-4.05
38.95,-4.05
39.34,-4.05
39.74,-4.05
40.14,-4.05
40.54,-4.05
40.94,-4.05
41.35,-4.00
41.76,-3.94
42.18,-3.92
42.60,-3.93
43.03,-3.95
43.46,-3.95
43.90,-3.95
44.33,-3.95
44.78,-3.95
45.23,-3.95
45.68,-3.95
46.13,-3.95
46.60,-3.95
47.06,-3.95
47.53,-3.95
48.01,-3.95
48.49,-3.95
48.97,-3.95
49.46,-3.95
49.96,-3.95
50.46,-3.95
50.96,-3.96
51.47,-4.00
51.99,-4.05
52.51,-4.05
53.03,-4.05
53.56,-4.05
54.10,-4.05
54.64,-4.05
55.18,-4.02
55.74,-3.95
56.29,-3.92
56.86,-3.94
57.42,-3.88
58.00,-3.78
58.58,-3.82
59.16,-3.85
59.76,-3.85
60.35,-3.85
60.96,-3.85
61.57,-3.88
62.18,-3.88
62.80,-3.77
63.43,-3.74
64.07,-3.74
64.71,-3.74
65.35,-3.75
66.01,-3.78
66.67,-3.69
67.33,-3.63
68.01,-3.59
68.69,-3.53
69.37,-3.52
70.07,-3.54
70.77,-3.54
71.48,-3.54
72.19,-3.54
72.91,-3.54
73.64,-3.54
74.38,-3.54
75.12,-3.54
75.87,-3.54
76.63,-3.54
77.40,-3.54
78.17,-3.54
78.95,-3.54
79.74,-3.54
80.54,-3.54
81.35,-3.56
82.16,-3.62
82.98,-3.71
83.81,-3.65
84.65,-3.64
85.50,-3.64
86.35,-3.64
87.22,-3.64
88.09,-3.64
88.97,-3.64
89.86,-3.64
90.76,-3.64
91.66,-3.64
92.58,-3.64
93.51,-3.64
94.44,-3.64
95.39,-3.64
96.34,-3.64
97.30,-3.65
98.28,-3.66
99.26,-3.67
100.25,-3.69
101.25,-3.72
102.27,-3.76
103.29,-3.69
104.32,-3.65
105.37,-3.67
106.42,-3.65
107.48,-3.59
108.56,-3.62
109.64,-3.67
110.74,-3.69
111.85,-3.70
112.97,-3.71
114.10,-3.72
115.24,-3.72
116.39,-3.72
117.55,-3.72
118.73,-3.71
119.92,-3.70
121.12,-3.66
122.33,-3.70
123.55,-3.75
124.79,-3.77
126.03,-3.77
127.29,-3.76
128.57,-3.75
129.85,-3.75
131.15,-3.74
132.46,-3.74
133.79,-3.73
135.12,-3.73
136.48,-3.70
137.84,-3.76
139.22,-3.80
140.61,-3.82
142.02,-3.82
143.44,-3.82
144.87,-3.82
146.32,-3.83
147.78,-3.92
149.26,-3.95
150.75,-3.93
152.26,-3.92
153.78,-3.92
155.32,-3.94
156.88,-3.96
158.44,-3.92
160.03,-3.82
161.63,-3.86
163.24,-3.91
164.88,-3.99
166.53,-4.02
168.19,-4.04
169.87,-4.05
171.57,-4.05
173.29,-4.06
175.02,-4.06
176.77,-3.98
178.54,-3.93
180.32,-3.88
182.13,-3.86
183.95,-3.85
185.79,-3.92
187.65,-3.95
189.52,-3.92
191.42,-3.90
193.33,-3.88
195.27,-3.86
197.22,-3.85
199.19,-3.82
201.18,-3.81
203.19,-3.88
205.23,-3.93
207.28,-3.93
209.35,-3.93
211.44,-3.93
213.56,-3.93
215.69,-3.94
217.85,-3.94
220.03,-3.95
222.23,-3.96
224.45,-3.93
226.70,-3.86
228.96,-3.84
231.25,-3.83
233.57,-3.83
235.90,-3.81
238.26,-3.80
240.64,-3.78
243.05,-3.77
245.48,-3.75
247.93,-3.72
250.41,-3.70
252.92,-3.68
255.45,-3.67
258.00,-3.66
260.58,-3.66
263.19,-3.66
265.82,-3.66
268.48,-3.66
271.16,-3.66
273.87,-3.67
276.61,-3.67
279.38,-3.67
282.17,-3.67
284.99,-3.66
287.84,-3.65
290.72,-3.64
293.63,-3.63
296.57,-3.62
299.53,-3.60
302.53,-3.59
305.55,-3.58
308.61,-3.57
311.69,-3.57
314.81,-3.56
317.96,-3.56
321.14,-3.56
324.35,-3.56
327.59,-3.60
330.87,-3.65
334.18,-3.63
337.52,-3.58
340.90,-3.57
344.30,-3.59
347.75,-3.65
351.23,-3.67
354.74,-3.67
358.28,-3.66
361.87,-3.66
365.49,-3.65
369.14,-3.64
372.83,-3.63
376.56,-3.63
380.33,-3.62
384.13,-3.61
387.97,-3.61
391.85,-3.60
395.77,-3.60
399.73,-3.60
403.72,-3.61
407.76,-3.61
411.84,-3.61
415.96,-3.61
420.12,-3.61
424.32,-3.61
428.56,-3.60
432.85,-3.53
437.18,-3.46
441.55,-3.42
445.96,-3.38
450.42,-3.32
454.93,-3.27
459.48,-3.20
464.07,-3.14
468.71,-3.01
473.40,-2.92
478.13,-2.87
482.91,-2.81
487.74,-2.70
492.62,-2.64
497.55,-2.62
502.52,-2.60
507.55,-2.58
512.62,-2.56
517.75,-2.53
522.93,-2.46
528.16,-2.46
533.44,-2.50
538.77,-2.52
544.16,-2.54
549.60,-2.59
555.10,-2.64
560.65,-2.69
566.25,-2.74
571.92,-2.79
577.64,-2.82
583.41,-2.85
589.25,-2.87
595.14,-2.88
601.09,-2.87
607.10,-2.74
613.17,-2.72
619.30,-2.72
625.50,-2.74
631.75,-2.68
638.07,-2.56
644.45,-2.42
650.89,-2.33
657.40,-2.31
663.98,-2.27
670.62,-2.21
677.32,-2.15
684.10,-2.03
690.94,-1.97
697.85,-1.96
704.83,-1.87
711.87,-1.83
718.99,-1.83
726.18,-1.79
733.44,-1.76
740.78,-1.71
748.19,-1.72
755.67,-1.75
763.23,-1.70
770.86,-1.69
778.57,-1.71
786.35,-1.71
794.22,-1.67
802.16,-1.62
810.18,-1.59
818.28,-1.52
826.46,-1.41
834.73,-1.32
843.08,-1.29
851.51,-1.22
860.02,-1.14
868.62,-1.05
877.31,-1.02
886.08,-0.89
894.94,-0.83
903.89,-0.84
912.93,-0.72
922.06,-0.66
931.28,-0.65
940.59,-0.65
950.00,-0.54
959.50,-0.42
969.09,-0.34
978.78,-0.24
988.57,-0.11
998.46,-0.01
1008.44,0.03
1018.53,0.12
1028.71,0.17
1039.00,0.20
1049.39,0.20
1059.88,0.18
1070.48,0.22
1081.19,0.27
1092.00,0.32
1102.92,0.38
1113.95,0.57
1125.09,0.69
1136.34,0.78
1147.70,0.86
1159.18,1.13
1170.77,1.40
1182.48,1.59
1194.30,1.79
1206.25,1.88
1218.31,1.97
1230.49,2.09
1242.80,2.23
1255.22,2.32
1267.78,2.36
1280.45,2.39
1293.26,2.42
1306.19,2.45
1319.25,2.42
1332.45,2.48
1345.77,2.65
1359.23,2.97
1372.82,3.17
1386.55,3.19
1400.41,3.19
1414.42,3.27
1428.56,3.39
1442.85,3.54
1457.28,3.51
1471.85,3.47
1486.57,3.56
1501.43,3.61
1516.45,3.73
1531.61,3.86
1546.93,3.94
1562.40,4.00
1578.02,4.07
1593.80,4.12
1609.74,4.19
1625.84,4.34
1642.10,4.68
1658.52,4.96
1675.10,4.99
1691.85,5.03
1708.77,4.99
1725.86,4.92
1743.12,4.82
1760.55,4.80
1778.15,4.74
1795.94,4.61
1813.90,4.47
1832.03,4.29
1850.36,4.16
1868.86,4.07
1887.55,3.81
1906.42,3.52
1925.49,3.34
1944.74,3.25
1964.19,3.01
1983.83,2.82
2003.67,2.60
2023.71,2.52
2043.94,2.37
2064.38,2.14
2085.03,1.95
2105.88,1.50
2126.94,1.36
2148.20,1.58
2169.69,1.93
2191.38,1.93
2213.30,1.78
2235.43,1.50
2257.78,1.14
2280.36,0.83
2303.17,0.62
2326.20,0.64
2349.46,0.72
2372.95,0.74
2396.68,0.88
2420.65,1.11
2444.86,1.35
2469.31,1.58
2494.00,2.03
2518.94,2.41
2544.13,2.87
2569.57,3.30
2595.27,3.53
2621.22,3.52
2647.43,3.54
2673.90,3.80
2700.64,4.27
2727.65,4.97
2754.93,5.69
2782.48,6.32
2810.30,6.89
2838.40,7.31
2866.79,7.64
2895.46,7.87
2924.41,7.72
2953.65,7.73
2983.19,7.98
3013.02,8.33
3043.15,8.74
3073.58,9.11
3104.32,9.38
3135.36,9.53
3166.72,9.51
3198.38,9.36
3230.37,9.30
3262.67,9.23
3295.30,9.11
3328.25,8.93
3361.53,8.78
3395.15,8.68
3429.10,8.74
3463.39,8.90
3498.03,8.90
3533.01,8.77
3568.34,8.57
3604.02,8.37
3640.06,8.17
3676.46,7.95
3713.22,7.72
3750.36,7.53
3787.86,7.21
3825.74,6.68
3864.00,6.24
3902.64,5.75
3941.66,5.27
3981.08,4.69
4020.89,4.29
4061.10,3.92
4101.71,3.48
4142.73,3.24
4184.15,2.98
4226.00,2.57
4268.26,2.35
4310.94,2.27
4354.05,2.44
4397.59,2.65
4441.56,2.79
4485.98,2.82
4530.84,2.77
4576.15,2.73
4621.91,2.79
4668.13,2.49
4714.81,2.31
4761.96,2.04
4809.58,1.85
4857.67,2.06
4906.25,2.23
4955.31,2.29
5004.87,2.14
5054.91,2.10
5105.46,2.05
5156.52,1.98
5208.08,2.16
5260.16,2.34
5312.77,2.48
5365.89,2.50
5419.55,2.49
5473.75,2.47
5528.49,2.60
5583.77,2.68
5639.61,2.98
5696.00,2.99
5752.96,3.34
5810.49,3.58
5868.60,4.22
5927.28,4.60
5986.56,4.67
6046.42,4.70
6106.89,4.51
6167.96,4.15
6229.64,3.72
6291.93,3.15
6354.85,2.57
6418.40,2.08
6482.58,1.60
6547.41,1.01
6612.88,0.36
6679.01,-0.21
6745.80,-0.76
6813.26,-1.46
6881.39,-2.02
6950.21,-2.74
7019.71,-3.26
7089.91,-3.72
7160.81,-4.13
7232.41,-4.26
7304.74,-4.22
7377.79,-4.16
7451.56,-3.82
7526.08,-3.67
7601.34,-3.85
7677.35,-3.88
7754.13,-3.58
7831.67,-3.27
7909.98,-2.95
7989.08,-2.43
8068.98,-1.80
8149.67,-1.20
8231.16,0.07
8313.47,1.28
8396.61,1.99
8480.57,2.85
8565.38,3.84
8651.03,4.28
8737.54,4.42
8824.92,4.50
8913.17,4.68
9002.30,5.19
9092.32,5.28
9183.25,5.31
9275.08,5.28
9367.83,5.23
9461.51,5.20
9556.12,5.07
9651.68,4.66
9748.20,3.70
9845.68,2.48
9944.14,1.30
10043.58,0.20
10144.02,-0.59
10245.46,-1.12
10347.91,-2.00
10451.39,-2.00
10555.91,-1.56
10661.46,-1.08
10768.08,-0.96
10875.76,-0.75
10984.52,-0.29
11094.36,0.31
11205.31,0.87
11317.36,1.06
11430.53,0.87
11544.84,-0.00
11660.29,-0.94
11776.89,-2.24
11894.66,-3.70
12013.60,-4.73
12133.74,-5.47
12255.08,-5.54
12377.63,-5.28
12501.41,-5.43
12626.42,-5.92
12752.68,-8.16
12880.21,-9.13
13009.01,-8.90
13139.10,-8.94
13270.49,-9.54
13403.20,-11.18
13537.23,-11.48
13672.60,-11.24
13809.33,-11.78
13947.42,-13.95
14086.90,-14.81
14227.77,-14.59
14370.04,-13.89
14513.74,-13.67
14658.88,-13.88
14805.47,-14.09
14953.52,-14.11
15103.06,-14.09
15254.09,-14.77
15406.63,-15.56
15560.70,-16.31
15716.30,-16.17
15873.47,-14.41
16032.20,-12.22
16192.52,-12.03
16354.45,-13.23
16517.99,-13.70
16683.17,-12.49
16850.01,-10.83
17018.51,-8.79
17188.69,-7.77
17360.58,-7.28
17534.18,-6.76
17709.53,-6.31
17886.62,-5.55
18065.49,-4.96
18246.14,-4.55
18428.60,-3.96
18612.89,-3.49
18799.02,-2.89
18987.01,-2.25
19176.88,-1.79
19368.65,-1.60
19562.33,-1.75
19757.96,-1.94
19955.54,-1.96
