frequency,raw,smoothed,error,error_smoothed,equalization,parametric_eq,fixed_band_eq,equalized_raw,equalized_smoothed,target
20.00,-12.93,-12.93,-12.12,-12.12,6.00,7.31,2.70,-6.93,-6.93,-0.81
20.20,-12.80,-12.80,-12.02,-12.02,6.00,7.28,2.78,-6.80,-6.80,-0.78
20.40,-12.67,-12.67,-11.92,-11.92,6.00,7.24,2.86,-6.67,-6.67,-0.75
20.61,-12.54,-12.54,-11.81,-11.82,6.00,7.21,2.94,-6.54,-6.54,-0.73
20.81,-12.42,-12.42,-11.72,-11.72,6.00,7.17,3.03,-6.42,-6.42,-0.70
21.02,-12.29,-12.29,-11.62,-11.62,6.00,7.14,3.12,-6.29,-6.29,-0.67
21.23,-12.17,-12.17,-11.51,-11.51,6.00,7.10,3.20,-6.17,-6.17,-0.66
21.44,-12.04,-12.04,-11.39,-11.39,6.00,7.07,3.30,-6.04,-6.04,-0.65
21.66,-11.91,-11.91,-11.27,-11.27,6.00,7.03,3.39,-5.91,-5.91,-0.64
21.87,-11.79,-11.78,-11.15,-11.15,6.00,6.99,3.49,-5.79,-5.78,-0.64
22.09,-11.66,-11.66,-11.03,-11.02,6.00,6.96,3.59,-5.66,-5.66,-0.63
22.31,-11.53,-11.53,-10.89,-10.90,6.00,6.92,3.70,-5.53,-5.53,-0.63
22.54,-11.41,-11.41,-10.78,-10.77,6.00,6.88,3.80,-5.41,-5.41,-0.63
22.76,-11.28,-11.28,-10.64,-10.64,6.00,6.84,3.91,-5.28,-5.28,-0.63
22.99,-11.15,-11.15,-10.50,-10.51,6.00,6.80,4.02,-5.15,-5.15,-0.65
23.22,-11.02,-11.02,-10.37,-10.38,6.00,6.76,4.14,-5.02,-5.02,-0.65
23.45,-10.89,-10.89,-10.24,-10.24,6.00,6.72,4.25,-4.89,-4.89,-0.65
23.69,-10.76,-10.76,-10.11,-10.11,6.00,6.68,4.37,-4.76,-4.76,-0.65
23.92,-10.62,-10.62,-9.97,-9.98,6.00,6.64,4.49,-4.62,-4.62,-0.65
24.16,-10.49,-10.49,-9.85,-9.84,6.00,6.60,4.62,-4.49,-4.49,-0.64
24.40,-10.35,-10.35,-9.71,-9.70,6.00,6.56,4.74,-4.35,-4.35,-0.64
24.65,-10.21,-10.21,-9.56,-9.57,6.00,6.52,4.87,-4.21,-4.21,-0.65
24.89,-10.08,-10.07,-9.43,-9.42,6.00,6.48,5.00,-4.08,-4.07,-0.65
25.14,-9.94,-9.94,-9.29,-9.29,6.00,6.44,5.13,-3.94,-3.94,-0.65
25.39,-9.80,-9.80,-9.14,-9.15,6.00,6.40,5.26,-3.80,-3.80,-0.65
25.65,-9.67,-9.67,-9.02,-9.01,6.00,6.36,5.39,-3.67,-3.67,-0.66
25.91,-9.53,-9.53,-8.87,-8.87,6.00,6.32,5.53,-3.53,-3.53,-0.67
26.16,-9.39,-9.39,-8.72,-8.73,6.00,6.28,5.66,-3.39,-3.39,-0.67
26.43,-9.25,-9.25,-8.58,-8.58,6.00,6.24,5.79,-3.25,-3.25,-0.67
26.69,-9.11,-9.11,-8.44,-8.44,6.00,6.20,5.92,-3.11,-3.11,-0.67
26.96,-8.96,-8.97,-8.29,-8.30,6.00,6.16,6.05,-2.96,-2.97,-0.67
27.23,-8.82,-8.82,-8.15,-8.15,6.00,6.12,6.17,-2.82,-2.82,-0.67
27.50,-8.68,-8.68,-8.01,-8.00,6.00,6.09,6.29,-2.68,-2.68,-0.67
27.77,-8.54,-8.54,-7.85,-7.85,6.00,6.05,6.40,-2.54,-2.54,-0.68
28.05,-8.39,-8.40,-7.70,-7.71,6.00,6.02,6.52,-2.39,-2.40,-0.69
28.33,-8.26,-8.26,-7.56,-7.56,6.00,5.99,6.62,-2.26,-2.26,-0.70
28.62,-8.12,-8.12,-7.42,-7.42,6.00,5.96,6.71,-2.12,-2.12,-0.70
28.90,-7.99,-7.99,-7.29,-7.29,6.00,5.93,6.80,-1.99,-1.99,-0.70
29.19,-7.86,-7.86,-7.15,-7.15,6.00,5.91,6.87,-1.86,-1.86,-0.71
29.48,-7.73,-7.73,-7.02,-7.02,6.00,5.88,6.94,-1.73,-1.73,-0.70
29.78,-7.60,-7.60,-6.89,-6.89,6.00,5.86,6.99,-1.60,-1.60,-0.72
30.08,-7.48,-7.48,-6.76,-6.76,6.01,5.84,7.03,-1.47,-1.47,-0.72
30.38,-7.35,-7.35,-6.62,-6.63,6.02,5.82,7.06,-1.34,-1.34,-0.73
30.68,-7.23,-7.23,-6.50,-6.50,6.02,5.81,7.06,-1.21,-1.21,-0.73
30.99,-7.11,-7.11,-6.37,-6.37,6.02,5.79,7.07,-1.09,-1.09,-0.74
31.30,-6.99,-6.99,-6.25,-6.25,6.00,5.77,7.04,-0.99,-0.99,-0.75
31.61,-6.88,-6.88,-6.13,-6.13,5.97,5.74,7.02,-0.91,-0.91,-0.75
31.93,-6.77,-6.77,-6.01,-6.01,5.93,5.71,6.96,-0.85,-0.84,-0.76
32.24,-6.66,-6.66,-5.89,-5.90,5.86,5.67,6.91,-0.80,-0.80,-0.77
32.57,-6.56,-6.56,-5.79,-5.78,5.78,5.62,6.83,-0.78,-0.77,-0.78
32.89,-6.45,-6.45,-5.67,-5.67,5.69,5.56,6.74,-0.76,-0.76,-0.78
33.22,-6.34,-6.34,-5.55,-5.55,5.58,5.48,6.63,-0.76,-0.76,-0.79
33.55,-6.24,-6.24,-5.45,-5.44,5.46,5.39,6.52,-0.78,-0.78,-0.79
33.89,-6.13,-6.13,-5.32,-5.33,5.34,5.28,6.39,-0.79,-0.80,-0.81
34.23,-6.03,-6.03,-5.22,-5.22,5.21,5.17,6.26,-0.82,-0.82,-0.81
34.57,-5.92,-5.92,-5.10,-5.10,5.09,5.05,6.11,-0.83,-0.83,-0.82
34.92,-5.81,-5.81,-4.98,-4.98,4.97,4.92,5.96,-0.84,-0.84,-0.84
35.27,-5.69,-5.69,-4.85,-4.85,4.85,4.79,5.80,-0.84,-0.84,-0.84
35.62,-5.58,-5.58,-4.73,-4.73,4.73,4.65,5.63,-0.86,-0.85,-0.85
35.97,-5.46,-5.46,-4.59,-4.60,4.60,4.51,5.46,-0.86,-0.86,-0.87
36.33,-5.34,-5.34,-4.47,-4.46,4.46,4.38,5.29,-0.87,-0.87,-0.87
36.70,-5.21,-5.21,-4.33,-4.33,4.33,4.24,5.11,-0.88,-0.88,-0.88
37.06,-5.09,-5.09,-4.19,-4.19,4.19,4.11,4.92,-0.90,-0.89,-0.90
37.43,-4.96,-4.96,-4.06,-4.05,4.05,3.97,4.74,-0.91,-0.91,-0.90
37.81,-4.83,-4.83,-3.91,-3.91,3.91,3.84,4.55,-0.92,-0.92,-0.92
38.19,-4.70,-4.70,-3.77,-3.77,3.77,3.72,4.36,-0.93,-0.93,-0.93
38.57,-4.56,-4.56,-3.62,-3.62,3.62,3.59,4.18,-0.94,-0.94,-0.94
38.95,-4.43,-4.43,-3.48,-3.47,3.48,3.46,3.99,-0.95,-0.95,-0.95
39.34,-4.29,-4.29,-3.32,-3.32,3.33,3.34,3.80,-0.96,-0.96,-0.97
39.74,-4.15,-4.15,-3.17,-3.18,3.18,3.22,3.61,-0.97,-0.98,-0.98
40.14,-4.02,-4.02,-3.04,-3.03,3.03,3.09,3.42,-0.99,-0.99,-0.99
40.54,-3.88,-3.88,-2.88,-2.88,2.88,2.97,3.23,-1.00,-1.00,-1.00
40.94,-3.74,-3.74,-2.73,-2.73,2.73,2.85,3.05,-1.01,-1.01,-1.01
41.35,-3.60,-3.60,-2.58,-2.58,2.58,2.73,2.86,-1.02,-1.02,-1.02
41.76,-3.46,-3.46,-2.43,-2.43,2.43,2.61,2.68,-1.02,-1.03,-1.03
42.18,-3.33,-3.32,-2.29,-2.28,2.28,2.49,2.49,-1.04,-1.04,-1.04
42.60,-3.19,-3.19,-2.14,-2.14,2.14,2.37,2.31,-1.05,-1.05,-1.05
43.03,-3.05,-3.05,-1.99,-1.99,1.99,2.25,2.13,-1.06,-1.07,-1.06
43.46,-2.92,-2.92,-1.84,-1.84,1.84,2.13,1.95,-1.08,-1.08,-1.08
43.90,-2.79,-2.79,-1.69,-1.69,1.69,2.01,1.77,-1.10,-1.10,-1.10
44.33,-2.66,-2.66,-1.54,-1.54,1.54,1.89,1.59,-1.12,-1.12,-1.12
44.78,-2.53,-2.53,-1.39,-1.39,1.39,1.77,1.42,-1.14,-1.14,-1.14
45.23,-2.40,-2.40,-1.24,-1.24,1.25,1.65,1.24,-1.15,-1.15,-1.16
45.68,-2.28,-2.28,-1.10,-1.10,1.11,1.53,1.07,-1.17,-1.17,-1.18
46.13,-2.16,-2.16,-0.96,-0.97,0.97,1.41,0.89,-1.19,-1.19,-1.20
46.60,-2.04,-2.04,-0.84,-0.83,0.83,1.28,0.72,-1.21,-1.21,-1.21
47.06,-1.92,-1.92,-0.69,-0.69,0.69,1.16,0.55,-1.23,-1.23,-1.23
47.53,-1.80,-1.80,-0.55,-0.56,0.56,1.04,0.38,-1.24,-1.25,-1.25
48.01,-1.69,-1.69,-0.43,-0.43,0.42,0.91,0.21,-1.27,-1.27,-1.26
48.49,-1.58,-1.58,-0.29,-0.29,0.29,0.79,0.05,-1.30,-1.29,-1.29
48.97,-1.47,-1.47,-0.15,-0.15,0.15,0.66,-0.12,-1.32,-1.32,-1.32
49.46,-1.36,-1.36,-0.01,-0.01,0.01,0.54,-0.28,-1.35,-1.34,-1.35
49.96,-1.25,-1.25,0.13,0.12,-0.12,0.41,-0.45,-1.37,-1.37,-1.38
50.46,-1.14,-1.14,0.25,0.25,-0.25,0.29,-0.61,-1.39,-1.39,-1.39
50.96,-1.04,-1.04,0.38,0.38,-0.38,0.16,-0.77,-1.42,-1.42,-1.42
51.47,-0.94,-0.94,0.51,0.50,-0.50,0.03,-0.93,-1.44,-1.44,-1.45
51.99,-0.84,-0.84,0.63,0.63,-0.63,-0.10,-1.08,-1.47,-1.47,-1.47
52.51,-0.75,-0.75,0.74,0.74,-0.75,-0.22,-1.23,-1.50,-1.49,-1.49
53.03,-0.65,-0.65,0.86,0.86,-0.86,-0.35,-1.38,-1.51,-1.52,-1.51
53.56,-0.56,-0.56,0.98,0.97,-0.98,-0.48,-1.53,-1.54,-1.54,-1.54
54.10,-0.47,-0.47,1.09,1.09,-1.09,-0.60,-1.68,-1.56,-1.56,-1.56
54.64,-0.38,-0.38,1.21,1.20,-1.20,-0.73,-1.82,-1.58,-1.59,-1.59
55.18,-0.30,-0.30,1.31,1.31,-1.31,-0.85,-1.95,-1.61,-1.61,-1.61
55.74,-0.22,-0.22,1.42,1.42,-1.42,-0.98,-2.08,-1.64,-1.64,-1.64
56.29,-0.14,-0.14,1.52,1.52,-1.52,-1.10,-2.21,-1.66,-1.66,-1.66
56.86,-0.06,-0.06,1.63,1.63,-1.63,-1.22,-2.33,-1.69,-1.69,-1.69
57.42,0.02,0.02,1.74,1.73,-1.72,-1.35,-2.45,-1.70,-1.71,-1.71
58.00,0.09,0.09,1.82,1.83,-1.82,-1.47,-2.56,-1.73,-1.73,-1.73
58.58,0.16,0.16,1.91,1.92,-1.91,-1.58,-2.66,-1.75,-1.75,-1.75
59.16,0.23,0.23,2.00,2.00,-2.00,-1.70,-2.76,-1.77,-1.78,-1.77
59.76,0.29,0.29,2.09,2.09,-2.09,-1.82,-2.85,-1.80,-1.80,-1.80
60.35,0.35,0.35,2.18,2.18,-2.18,-1.93,-2.93,-1.83,-1.83,-1.83
60.96,0.41,0.41,2.26,2.26,-2.27,-2.04,-3.01,-1.86,-1.86,-1.85
61.57,0.46,0.46,2.35,2.35,-2.35,-2.15,-3.08,-1.89,-1.89,-1.89
62.18,0.51,0.51,2.44,2.43,-2.43,-2.25,-3.14,-1.92,-1.92,-1.93
62.80,0.56,0.56,2.51,2.51,-2.51,-2.36,-3.19,-1.95,-1.95,-1.95
63.43,0.60,0.60,2.59,2.59,-2.58,-2.46,-3.23,-1.98,-1.98,-1.99
64.07,0.64,0.64,2.65,2.65,-2.65,-2.55,-3.27,-2.01,-2.01,-2.01
64.71,0.68,0.68,2.72,2.72,-2.72,-2.64,-3.30,-2.04,-2.04,-2.04
65.35,0.71,0.71,2.78,2.78,-2.78,-2.73,-3.32,-2.07,-2.07,-2.07
66.01,0.74,0.74,2.83,2.84,-2.84,-2.82,-3.34,-2.10,-2.10,-2.09
66.67,0.77,0.77,2.89,2.89,-2.90,-2.90,-3.35,-2.13,-2.13,-2.12
67.33,0.80,0.80,2.95,2.95,-2.95,-2.98,-3.35,-2.15,-2.15,-2.15
68.01,0.82,0.82,3.00,3.00,-3.00,-3.05,-3.35,-2.18,-2.18,-2.18
68.69,0.84,0.84,3.05,3.05,-3.05,-3.12,-3.34,-2.21,-2.21,-2.21
69.37,0.85,0.85,3.10,3.10,-3.10,-3.19,-3.33,-2.25,-2.25,-2.25
70.07,0.86,0.86,3.14,3.14,-3.14,-3.24,-3.31,-2.28,-2.28,-2.28
70.77,0.87,0.87,3.17,3.18,-3.18,-3.30,-3.29,-2.31,-2.31,-2.30
71.48,0.88,0.88,3.22,3.22,-3.22,-3.35,-3.27,-2.34,-2.34,-2.34
72.19,0.89,0.89,3.26,3.26,-3.26,-3.40,-3.24,-2.37,-2.37,-2.37
72.91,0.89,0.89,3.30,3.30,-3.29,-3.44,-3.21,-2.40,-2.40,-2.41
73.64,0.89,0.89,3.34,3.33,-3.33,-3.48,-3.19,-2.44,-2.44,-2.45
74.38,0.88,0.88,3.35,3.36,-3.36,-3.51,-3.15,-2.48,-2.48,-2.47
75.12,0.87,0.87,3.38,3.38,-3.38,-3.54,-3.12,-2.51,-2.51,-2.51
75.87,0.87,0.86,3.41,3.40,-3.41,-3.57,-3.09,-2.54,-2.54,-2.54
76.63,0.85,0.85,3.42,3.43,-3.43,-3.59,-3.06,-2.58,-2.57,-2.57
77.40,0.84,0.84,3.44,3.44,-3.44,-3.61,-3.03,-2.60,-2.61,-2.60
78.17,0.82,0.82,3.46,3.46,-3.46,-3.62,-3.00,-2.64,-2.64,-2.64
78.95,0.80,0.80,3.47,3.47,-3.47,-3.63,-2.96,-2.67,-2.67,-2.67
79.74,0.78,0.78,3.48,3.48,-3.48,-3.64,-2.93,-2.70,-2.70,-2.70
80.54,0.76,0.76,3.49,3.49,-3.49,-3.64,-2.91,-2.73,-2.73,-2.73
81.35,0.73,0.73,3.50,3.50,-3.50,-3.64,-2.88,-2.77,-2.77,-2.77
82.16,0.70,0.70,3.50,3.50,-3.50,-3.64,-2.85,-2.80,-2.80,-2.80
82.98,0.67,0.67,3.50,3.51,-3.51,-3.63,-2.83,-2.84,-2.84,-2.83
83.81,0.63,0.63,3.51,3.51,-3.51,-3.62,-2.81,-2.88,-2.88,-2.88
84.65,0.59,0.59,3.51,3.50,-3.50,-3.61,-2.79,-2.91,-2.91,-2.92
85.50,0.55,0.55,3.49,3.50,-3.50,-3.60,-2.77,-2.95,-2.95,-2.94
86.35,0.51,0.51,3.49,3.49,-3.49,-3.59,-2.76,-2.98,-2.98,-2.98
87.22,0.46,0.46,3.48,3.48,-3.48,-3.57,-2.74,-3.02,-3.02,-3.02
88.09,0.41,0.41,3.47,3.47,-3.47,-3.55,-2.73,-3.06,-3.06,-3.06
88.97,0.36,0.36,3.46,3.46,-3.46,-3.53,-2.72,-3.10,-3.10,-3.10
89.86,0.31,0.31,3.45,3.45,-3.45,-3.51,-2.72,-3.14,-3.14,-3.14
90.76,0.25,0.25,3.44,3.44,-3.43,-3.49,-2.71,-3.18,-3.18,-3.19
91.66,0.20,0.20,3.42,3.42,-3.42,-3.47,-2.71,-3.22,-3.22,-3.22
92.58,0.13,0.13,3.40,3.40,-3.40,-3.44,-2.71,-3.27,-3.27,-3.27
93.51,0.07,0.07,3.38,3.38,-3.38,-3.42,-2.71,-3.31,-3.31,-3.31
94.44,-0.00,0.00,3.35,3.36,-3.36,-3.40,-2.72,-3.36,-3.36,-3.35
95.39,-0.06,-0.06,3.34,3.34,-3.34,-3.37,-2.72,-3.40,-3.40,-3.40
96.34,-0.13,-0.13,3.32,3.31,-3.31,-3.34,-2.73,-3.44,-3.45,-3.45
97.30,-0.21,-0.20,3.29,3.29,-3.29,-3.32,-2.74,-3.50,-3.49,-3.50
98.28,-0.28,-0.28,3.26,3.26,-3.26,-3.29,-2.75,-3.54,-3.54,-3.54
99.26,-0.35,-0.35,3.24,3.23,-3.23,-3.27,-2.77,-3.58,-3.59,-3.59
100.25,-0.43,-0.43,3.20,3.20,-3.21,-3.24,-2.78,-3.64,-3.63,-3.63
101.25,-0.51,-0.51,3.17,3.17,-3.18,-3.21,-2.80,-3.69,-3.68,-3.68
102.27,-0.58,-0.58,3.15,3.14,-3.14,-3.19,-2.82,-3.72,-3.73,-3.73
103.29,-0.66,-0.66,3.12,3.11,-3.11,-3.16,-2.83,-3.77,-3.77,-3.78
104.32,-0.74,-0.74,3.08,3.08,-3.08,-3.13,-2.85,-3.82,-3.82,-3.82
105.37,-0.82,-0.82,3.04,3.04,-3.05,-3.11,-2.87,-3.87,-3.87,-3.86
106.42,-0.90,-0.90,3.01,3.01,-3.01,-3.08,-2.89,-3.91,-3.91,-3.91
107.48,-0.98,-0.98,2.98,2.98,-2.98,-3.06,-2.91,-3.96,-3.96,-3.96
108.56,-1.06,-1.06,2.95,2.95,-2.95,-3.03,-2.93,-4.01,-4.01,-4.01
109.64,-1.14,-1.14,2.92,2.92,-2.92,-3.01,-2.95,-4.06,-4.06,-4.06
110.74,-1.22,-1.22,2.89,2.89,-2.89,-2.98,-2.97,-4.11,-4.11,-4.11
111.85,-1.30,-1.30,2.85,2.86,-2.86,-2.96,-2.99,-4.16,-4.16,-4.15
112.97,-1.38,-1.38,2.84,2.83,-2.83,-2.93,-3.01,-4.21,-4.21,-4.22
114.10,-1.46,-1.46,2.80,2.80,-2.80,-2.91,-3.02,-4.26,-4.27,-4.26
115.24,-1.54,-1.54,2.78,2.78,-2.78,-2.88,-3.04,-4.32,-4.32,-4.32
116.39,-1.62,-1.62,2.75,2.75,-2.75,-2.86,-3.05,-4.37,-4.37,-4.37
117.55,-1.69,-1.69,2.73,2.73,-2.73,-2.83,-3.06,-4.42,-4.42,-4.43
118.73,-1.77,-1.77,2.71,2.71,-2.70,-2.81,-3.06,-4.47,-4.47,-4.48
119.92,-1.85,-1.85,2.67,2.68,-2.68,-2.79,-3.07,-4.53,-4.52,-4.52
121.12,-1.92,-1.92,2.65,2.65,-2.65,-2.76,-3.07,-4.57,-4.57,-4.57
122.33,-2.00,-2.00,2.63,2.62,-2.63,-2.74,-3.07,-4.63,-4.62,-4.63
123.55,-2.07,-2.07,2.60,2.60,-2.60,-2.72,-3.06,-4.67,-4.67,-4.67
124.79,-2.15,-2.15,2.57,2.57,-2.58,-2.69,-3.05,-4.73,-4.73,-4.72
126.03,-2.22,-2.22,2.55,2.55,-2.56,-2.67,-3.04,-4.78,-4.77,-4.77
127.29,-2.29,-2.29,2.53,2.53,-2.53,-2.65,-3.03,-4.82,-4.82,-4.82
128.57,-2.36,-2.36,2.52,2.51,-2.51,-2.62,-3.01,-4.87,-4.87,-4.88
129.85,-2.44,-2.44,2.49,2.49,-2.49,-2.60,-2.99,-4.93,-4.92,-4.93
131.15,-2.51,-2.51,2.47,2.47,-2.46,-2.58,-2.96,-4.97,-4.97,-4.98
132.46,-2.58,-2.58,2.44,2.44,-2.44,-2.55,-2.93,-5.02,-5.02,-5.02
133.79,-2.65,-2.65,2.41,2.42,-2.42,-2.53,-2.90,-5.07,-5.07,-5.06
135.12,-2.72,-2.72,2.40,2.39,-2.39,-2.51,-2.87,-5.11,-5.11,-5.12
136.48,-2.79,-2.79,2.36,2.36,-2.37,-2.48,-2.83,-5.16,-5.16,-5.15
137.84,-2.86,-2.86,2.34,2.35,-2.34,-2.46,-2.80,-5.20,-5.20,-5.20
139.22,-2.92,-2.92,2.33,2.32,-2.32,-2.44,-2.76,-5.24,-5.24,-5.25
140.61,-2.99,-2.99,2.30,2.30,-2.29,-2.41,-2.72,-5.28,-5.28,-5.29
142.02,-3.06,-3.06,2.25,2.27,-2.26,-2.39,-2.67,-5.32,-5.32,-5.31
143.44,-3.12,-3.12,2.24,2.23,-2.24,-2.36,-2.63,-5.36,-5.36,-5.36
144.87,-3.19,-3.19,2.21,2.21,-2.21,-2.34,-2.59,-5.40,-5.40,-5.40
146.32,-3.25,-3.25,2.19,2.18,-2.18,-2.31,-2.54,-5.43,-5.43,-5.44
147.78,-3.32,-3.32,2.14,2.15,-2.15,-2.29,-2.49,-5.47,-5.47,-5.46
149.26,-3.38,-3.38,2.12,2.12,-2.12,-2.26,-2.45,-5.50,-5.51,-5.50
150.75,-3.45,-3.45,2.10,2.10,-2.10,-2.24,-2.40,-5.55,-5.55,-5.55
152.26,-3.51,-3.51,2.08,2.07,-2.07,-2.21,-2.36,-5.58,-5.58,-5.59
153.78,-3.58,-3.58,2.04,2.05,-2.05,-2.19,-2.31,-5.63,-5.62,-5.62
155.32,-3.64,-3.64,2.03,2.02,-2.02,-2.16,-2.27,-5.66,-5.66,-5.67
156.88,-3.71,-3.71,1.99,1.99,-1.99,-2.13,-2.22,-5.70,-5.70,-5.70
158.44,-3.78,-3.78,1.96,1.97,-1.97,-2.11,-2.18,-5.75,-5.74,-5.74
160.03,-3.84,-3.84,1.95,1.94,-1.94,-2.08,-2.13,-5.78,-5.79,-5.79
161.63,-3.91,-3.91,1.92,1.92,-1.91,-2.05,-2.09,-5.82,-5.82,-5.83
163.24,-3.98,-3.98,1.89,1.89,-1.88,-2.02,-2.05,-5.86,-5.86,-5.87
164.88,-4.04,-4.04,1.86,1.86,-1.86,-2.00,-2.01,-5.90,-5.90,-5.90
166.53,-4.11,-4.11,1.83,1.83,-1.83,-1.97,-1.97,-5.94,-5.94,-5.94
168.19,-4.18,-4.18,1.79,1.80,-1.80,-1.94,-1.94,-5.98,-5.97,-5.97
169.87,-4.25,-4.25,1.76,1.77,-1.77,-1.91,-1.90,-6.02,-6.01,-6.01
171.57,-4.31,-4.31,1.74,1.73,-1.74,-1.88,-1.87,-6.05,-6.05,-6.05
173.29,-4.38,-4.38,1.71,1.70,-1.71,-1.86,-1.84,-6.09,-6.09,-6.09
175.02,-4.45,-4.45,1.67,1.68,-1.68,-1.83,-1.80,-6.13,-6.13,-6.12
176.77,-4.52,-4.52,1.65,1.65,-1.65,-1.80,-1.77,-6.17,-6.17,-6.17
178.54,-4.58,-4.58,1.63,1.62,-1.62,-1.77,-1.75,-6.20,-6.20,-6.21
180.32,-4.65,-4.65,1.59,1.60,-1.59,-1.74,-1.72,-6.24,-6.24,-6.24
182.13,-4.71,-4.71,1.57,1.57,-1.57,-1.71,-1.69,-6.28,-6.28,-6.28
183.95,-4.78,-4.78,1.54,1.54,-1.54,-1.68,-1.67,-6.32,-6.32,-6.32
185.79,-4.84,-4.84,1.51,1.51,-1.51,-1.65,-1.65,-6.35,-6.35,-6.35
187.65,-4.91,-4.91,1.48,1.48,-1.48,-1.63,-1.62,-6.39,-6.39,-6.39
189.52,-4.97,-4.97,1.45,1.45,-1.45,-1.60,-1.60,-6.42,-6.42,-6.42
191.42,-5.04,-5.04,1.41,1.41,-1.41,-1.57,-1.58,-6.45,-6.45,-6.45
193.33,-5.10,-5.10,1.38,1.37,-1.38,-1.54,-1.57,-6.48,-6.48,-6.48
195.27,-5.17,-5.17,1.34,1.34,-1.34,-1.52,-1.55,-6.51,-6.51,-6.51
197.22,-5.23,-5.23,1.30,1.31,-1.30,-1.49,-1.53,-6.53,-6.53,-6.53
199.19,-5.30,-5.30,1.27,1.26,-1.26,-1.47,-1.52,-6.56,-6.56,-6.57
201.18,-5.37,-5.37,1.22,1.22,-1.21,-1.45,-1.50,-6.58,-6.58,-6.59
203.19,-5.44,-5.44,1.16,1.17,-1.17,-1.42,-1.49,-6.61,-6.61,-6.60
205.23,-5.51,-5.51,1.12,1.11,-1.12,-1.40,-1.48,-6.63,-6.63,-6.63
207.28,-5.58,-5.58,1.05,1.07,-1.06,-1.38,-1.46,-6.64,-6.64,-6.63
209.35,-5.64,-5.64,1.02,1.02,-1.01,-1.37,-1.45,-6.65,-6.65,-6.66
211.44,-5.71,-5.71,0.97,0.96,-0.95,-1.35,-1.44,-6.66,-6.66,-6.68
213.56,-5.78,-5.78,0.91,0.91,-0.89,-1.34,-1.43,-6.67,-6.67,-6.69
215.69,-5.84,-5.84,0.85,0.85,-0.84,-1.33,-1.42,-6.68,-6.68,-6.69
217.85,-5.90,-5.90,0.80,0.80,-0.79,-1.33,-1.41,-6.69,-6.69,-6.70
220.03,-5.95,-5.95,0.76,0.77,-0.75,-1.32,-1.39,-6.70,-6.70,-6.71
222.23,-5.98,-5.98,0.75,0.74,-0.74,-1.33,-1.38,-6.72,-6.72,-6.73
224.45,-5.98,-5.99,0.74,0.74,-0.76,-1.34,-1.37,-6.74,-6.74,-6.72
226.70,-5.96,-5.95,0.76,0.77,-0.81,-1.36,-1.35,-6.77,-6.76,-6.72
228.96,-5.87,-5.87,0.85,0.85,-0.91,-1.39,-1.34,-6.78,-6.77,-6.72
231.25,-5.73,-5.73,0.98,0.98,-1.05,-1.43,-1.33,-6.77,-6.78,-6.71
233.57,-5.55,-5.54,1.16,1.17,-1.22,-1.47,-1.31,-6.77,-6.76,-6.71
235.90,-5.33,-5.33,1.38,1.38,-1.42,-1.54,-1.29,-6.75,-6.74,-6.71
238.26,-5.08,-5.08,1.63,1.62,-1.63,-1.60,-1.27,-6.71,-6.71,-6.71
240.64,-4.85,-4.85,1.85,1.85,-1.83,-1.69,-1.25,-6.68,-6.67,-6.70
243.05,-4.63,-4.64,2.06,2.05,-2.01,-1.78,-1.23,-6.64,-6.64,-6.69
245.48,-4.47,-4.47,2.21,2.20,-2.14,-1.88,-1.21,-6.61,-6.62,-6.68
247.93,-4.38,-4.37,2.28,2.29,-2.22,-1.96,-1.18,-6.60,-6.60,-6.66
250.41,-4.33,-4.35,2.33,2.31,-2.24,-2.03,-1.16,-6.57,-6.59,-6.66
252.92,-4.39,-4.39,2.25,2.25,-2.20,-2.08,-1.13,-6.59,-6.59,-6.64
255.45,-4.49,-4.49,2.13,2.13,-2.11,-2.08,-1.10,-6.60,-6.60,-6.62
258.00,-4.63,-4.63,1.97,1.97,-1.98,-2.04,-1.07,-6.61,-6.61,-6.60
260.58,-4.80,-4.80,1.79,1.79,-1.81,-1.94,-1.03,-6.61,-6.61,-6.59
263.19,-4.97,-4.97,1.60,1.60,-1.64,-1.82,-1.00,-6.61,-6.60,-6.57
265.82,-5.13,-5.13,1.42,1.42,-1.46,-1.66,-0.96,-6.59,-6.59,-6.55
268.48,-5.28,-5.27,1.25,1.25,-1.28,-1.50,-0.92,-6.56,-6.56,-6.53
271.16,-5.40,-5.41,1.11,1.10,-1.13,-1.33,-0.88,-6.53,-6.53,-6.51
273.87,-5.52,-5.52,0.97,0.97,-0.98,-1.16,-0.84,-6.50,-6.50,-6.49
276.61,-5.62,-5.62,0.85,0.85,-0.86,-1.01,-0.79,-6.48,-6.48,-6.47
279.38,-5.70,-5.70,0.75,0.75,-0.75,-0.86,-0.75,-6.45,-6.45,-6.45
282.17,-5.78,-5.78,0.66,0.65,-0.65,-0.73,-0.70,-6.43,-6.43,-6.44
284.99,-5.85,-5.85,0.56,0.56,-0.56,-0.60,-0.65,-6.41,-6.41,-6.41
287.84,-5.92,-5.92,0.48,0.48,-0.48,-0.49,-0.60,-6.40,-6.39,-6.40
290.72,-5.97,-5.97,0.40,0.40,-0.40,-0.39,-0.55,-6.37,-6.37,-6.37
293.63,-6.03,-6.03,0.33,0.32,-0.32,-0.30,-0.50,-6.35,-6.35,-6.36
296.57,-6.08,-6.08,0.25,0.26,-0.25,-0.21,-0.45,-6.33,-6.33,-6.33
299.53,-6.13,-6.13,0.18,0.18,-0.18,-0.14,-0.40,-6.31,-6.31,-6.31
302.53,-6.17,-6.17,0.13,0.12,-0.11,-0.06,-0.35,-6.28,-6.29,-6.30
305.55,-6.22,-6.22,0.04,0.05,-0.05,0.00,-0.29,-6.27,-6.26,-6.26
308.61,-6.26,-6.26,-0.01,-0.02,0.02,0.07,-0.24,-6.24,-6.24,-6.25
311.69,-6.30,-6.30,-0.08,-0.09,0.08,0.13,-0.18,-6.22,-6.22,-6.22
314.81,-6.34,-6.34,-0.16,-0.15,0.15,0.19,-0.12,-6.19,-6.19,-6.18
317.96,-6.38,-6.38,-0.21,-0.21,0.21,0.24,-0.07,-6.17,-6.17,-6.17
321.14,-6.41,-6.41,-0.26,-0.27,0.27,0.29,-0.01,-6.14,-6.15,-6.15
324.35,-6.45,-6.45,-0.32,-0.32,0.32,0.34,0.05,-6.13,-6.13,-6.13
327.59,-6.49,-6.49,-0.39,-0.38,0.38,0.39,0.11,-6.11,-6.11,-6.10
330.87,-6.52,-6.52,-0.43,-0.43,0.44,0.44,0.17,-6.08,-6.09,-6.09
334.18,-6.56,-6.56,-0.49,-0.49,0.49,0.49,0.23,-6.07,-6.07,-6.07
337.52,-6.59,-6.59,-0.54,-0.54,0.54,0.53,0.29,-6.05,-6.05,-6.05
340.90,-6.63,-6.63,-0.60,-0.60,0.60,0.57,0.35,-6.03,-6.03,-6.03
344.30,-6.66,-6.66,-0.65,-0.65,0.65,0.61,0.41,-6.01,-6.01,-6.01
347.75,-6.70,-6.70,-0.71,-0.71,0.71,0.65,0.47,-5.99,-5.99,-5.99
351.23,-6.73,-6.73,-0.76,-0.76,0.76,0.69,0.54,-5.97,-5.97,-5.97
354.74,-6.77,-6.77,-0.82,-0.82,0.82,0.73,0.60,-5.95,-5.95,-5.95
358.28,-6.81,-6.81,-0.87,-0.87,0.87,0.77,0.66,-5.94,-5.94,-5.94
361.87,-6.85,-6.85,-0.93,-0.93,0.93,0.80,0.73,-5.92,-5.92,-5.92
365.49,-6.89,-6.89,-0.98,-0.98,0.98,0.84,0.79,-5.91,-5.91,-5.91
369.14,-6.93,-6.93,-1.03,-1.03,1.03,0.88,0.86,-5.90,-5.90,-5.90
372.83,-6.97,-6.97,-1.09,-1.08,1.08,0.91,0.92,-5.89,-5.89,-5.88
376.56,-7.00,-7.00,-1.12,-1.13,1.13,0.94,0.99,-5.87,-5.87,-5.88
380.33,-7.03,-7.03,-1.18,-1.18,1.17,0.98,1.06,-5.86,-5.86,-5.85
384.13,-7.06,-7.06,-1.22,-1.22,1.22,1.01,1.12,-5.84,-5.84,-5.84
387.97,-7.08,-7.08,-1.25,-1.26,1.25,1.04,1.19,-5.83,-5.83,-5.83
391.85,-7.11,-7.11,-1.29,-1.29,1.29,1.07,1.26,-5.82,-5.82,-5.82
395.77,-7.13,-7.13,-1.33,-1.32,1.32,1.10,1.32,-5.81,-5.81,-5.80
399.73,-7.15,-7.15,-1.35,-1.35,1.35,1.13,1.39,-5.80,-5.80,-5.80
403.72,-7.16,-7.16,-1.37,-1.38,1.38,1.16,1.46,-5.78,-5.78,-5.79
407.76,-7.17,-7.17,-1.39,-1.40,1.40,1.19,1.52,-5.77,-5.77,-5.78
411.84,-7.18,-7.18,-1.42,-1.42,1.42,1.22,1.59,-5.76,-5.76,-5.76
415.96,-7.19,-7.19,-1.44,-1.44,1.43,1.25,1.65,-5.76,-5.76,-5.75
420.12,-7.19,-7.19,-1.45,-1.45,1.44,1.28,1.71,-5.75,-5.75,-5.74
424.32,-7.18,-7.18,-1.45,-1.45,1.44,1.30,1.77,-5.74,-5.74,-5.73
428.56,-7.17,-7.17,-1.45,-1.44,1.44,1.33,1.83,-5.73,-5.73,-5.72
432.85,-7.15,-7.15,-1.44,-1.44,1.43,1.35,1.89,-5.72,-5.72,-5.72
