frequency,raw,smoothed,error,error_smoothed,equalization,parametric_eq,fixed_band_eq,equalized_raw,equalized_smoothed,target
20.00,-2.79,-2.79,-11.02,-11.02,6.00,6.28,2.73,3.21,3.21,8.23
20.20,-2.74,-2.74,-10.97,-10.97,6.00,6.28,2.81,3.26,3.26,8.23
20.40,-2.69,-2.69,-10.92,-10.92,6.00,6.28,2.89,3.31,3.31,8.23
20.61,-2.63,-2.63,-10.86,-10.86,6.00,6.28,2.97,3.37,3.37,8.23
20.81,-2.58,-2.58,-10.81,-10.81,6.00,6.28,3.06,3.42,3.42,8.23
21.02,-2.53,-2.53,-10.76,-10.76,6.00,6.28,3.14,3.47,3.47,8.23
21.23,-2.48,-2.48,-10.71,-10.71,6.00,6.27,3.23,3.52,3.52,8.23
21.44,-2.43,-2.43,-10.66,-10.65,6.00,6.27,3.33,3.57,3.57,8.23
21.66,-2.37,-2.37,-10.60,-10.60,6.00,6.27,3.42,3.63,3.63,8.23
21.87,-2.31,-2.31,-10.53,-10.53,6.00,6.27,3.52,3.69,3.69,8.23
22.09,-2.24,-2.24,-10.46,-10.47,6.00,6.27,3.62,3.76,3.76,8.22
22.31,-2.18,-2.18,-10.40,-10.40,6.00,6.27,3.72,3.82,3.82,8.22
22.54,-2.11,-2.11,-10.33,-10.33,6.00,6.27,3.82,3.89,3.89,8.22
22.76,-2.05,-2.05,-10.27,-10.27,6.00,6.26,3.93,3.95,3.95,8.22
22.99,-1.98,-1.98,-10.20,-10.20,6.00,6.26,4.04,4.02,4.02,8.22
23.22,-1.92,-1.92,-10.14,-10.14,6.00,6.26,4.16,4.08,4.08,8.22
23.45,-1.87,-1.86,-10.09,-10.08,6.00,6.26,4.27,4.13,4.14,8.22
23.69,-1.81,-1.81,-10.03,-10.03,6.00,6.26,4.39,4.19,4.19,8.22
23.92,-1.76,-1.76,-9.98,-9.98,6.00,6.25,4.51,4.24,4.24,8.22
24.16,-1.71,-1.71,-9.92,-9.92,6.00,6.25,4.64,4.29,4.29,8.22
24.40,-1.66,-1.66,-9.87,-9.87,6.00,6.25,4.76,4.34,4.34,8.21
24.65,-1.61,-1.61,-9.82,-9.82,6.00,6.25,4.89,4.39,4.39,8.21
24.89,-1.56,-1.56,-9.77,-9.77,6.00,6.25,5.02,4.44,4.44,8.21
25.14,-1.51,-1.51,-9.72,-9.72,6.00,6.24,5.15,4.49,4.49,8.21
25.39,-1.46,-1.46,-9.67,-9.67,6.00,6.24,5.28,4.54,4.54,8.21
25.65,-1.41,-1.41,-9.62,-9.62,6.00,6.24,5.41,4.59,4.59,8.21
25.91,-1.36,-1.36,-9.57,-9.57,6.00,6.24,5.54,4.64,4.64,8.21
26.16,-1.31,-1.31,-9.51,-9.51,6.00,6.23,5.68,4.69,4.69,8.20
26.43,-1.26,-1.26,-9.46,-9.46,6.00,6.23,5.81,4.74,4.74,8.20
26.69,-1.21,-1.21,-9.41,-9.41,6.00,6.23,5.94,4.79,4.79,8.20
26.96,-1.16,-1.16,-9.36,-9.36,6.00,6.23,6.07,4.84,4.84,8.20
27.23,-1.11,-1.11,-9.31,-9.31,6.00,6.22,6.20,4.89,4.89,8.20
27.50,-1.06,-1.06,-9.26,-9.26,6.00,6.22,6.32,4.94,4.94,8.20
27.77,-1.01,-1.01,-9.20,-9.20,6.00,6.22,6.45,4.99,4.99,8.19
28.05,-0.96,-0.96,-9.15,-9.15,6.00,6.22,6.56,5.04,5.04,8.19
28.33,-0.91,-0.91,-9.10,-9.10,6.00,6.21,6.68,5.09,5.09,8.19
28.62,-0.86,-0.86,-9.05,-9.04,6.00,6.21,6.78,5.14,5.14,8.19
28.90,-0.80,-0.80,-8.98,-8.99,6.00,6.21,6.88,5.20,5.20,8.19
29.19,-0.75,-0.75,-8.93,-8.93,6.00,6.20,6.98,5.25,5.25,8.18
29.48,-0.70,-0.70,-8.88,-8.88,6.00,6.20,7.06,5.30,5.30,8.18
29.78,-0.66,-0.66,-8.84,-8.84,6.00,6.20,7.14,5.34,5.34,8.18
30.08,-0.62,-0.62,-8.80,-8.80,6.00,6.19,7.21,5.38,5.38,8.18
30.38,-0.58,-0.58,-8.75,-8.75,6.00,6.19,7.27,5.42,5.42,8.17
30.68,-0.54,-0.54,-8.71,-8.71,6.00,6.18,7.31,5.46,5.46,8.17
30.99,-0.49,-0.49,-8.66,-8.66,6.00,6.18,7.36,5.51,5.51,8.17
31.30,-0.45,-0.45,-8.61,-8.61,6.00,6.18,7.38,5.55,5.55,8.16
31.61,-0.41,-0.41,-8.57,-8.57,6.00,6.17,7.40,5.59,5.59,8.16
31.93,-0.36,-0.36,-8.52,-8.52,6.00,6.17,7.40,5.64,5.64,8.16
32.24,-0.32,-0.32,-8.47,-8.47,6.00,6.16,7.40,5.68,5.68,8.15
32.57,-0.28,-0.28,-8.43,-8.43,6.00,6.16,7.39,5.72,5.72,8.15
32.89,-0.24,-0.24,-8.39,-8.39,6.00,6.15,7.37,5.76,5.76,8.15
33.22,-0.21,-0.21,-8.35,-8.35,6.00,6.15,7.34,5.79,5.79,8.14
33.55,-0.17,-0.17,-8.31,-8.31,6.00,6.14,7.30,5.83,5.83,8.14
33.89,-0.13,-0.13,-8.26,-8.27,6.00,6.14,7.25,5.87,5.87,8.14
34.23,-0.09,-0.09,-8.22,-8.22,6.00,6.13,7.20,5.91,5.91,8.13
34.57,-0.05,-0.05,-8.18,-8.18,6.00,6.13,7.14,5.95,5.95,8.13
34.92,-0.01,-0.01,-8.13,-8.13,6.00,6.12,7.08,5.99,5.99,8.12
35.27,0.04,0.04,-8.08,-8.08,6.00,6.12,7.01,6.04,6.04,8.12
35.62,0.08,0.08,-8.03,-8.03,6.00,6.11,6.94,6.08,6.08,8.11
35.97,0.12,0.12,-7.99,-7.99,6.00,6.11,6.87,6.12,6.12,8.11
36.33,0.15,0.15,-7.95,-7.95,6.00,6.10,6.79,6.15,6.15,8.10
36.70,0.19,0.19,-7.91,-7.91,6.00,6.09,6.71,6.19,6.19,8.10
37.06,0.22,0.22,-7.87,-7.87,6.00,6.09,6.64,6.22,6.22,8.09
37.43,0.26,0.26,-7.82,-7.83,6.00,6.08,6.56,6.26,6.26,8.09
37.81,0.29,0.29,-7.79,-7.78,6.00,6.07,6.48,6.29,6.29,8.08
38.19,0.33,0.33,-7.74,-7.74,6.00,6.06,6.41,6.33,6.33,8.07
38.57,0.37,0.37,-7.70,-7.70,6.00,6.06,6.34,6.37,6.37,8.07
38.95,0.40,0.40,-7.66,-7.66,6.00,6.05,6.27,6.40,6.40,8.06
39.34,0.43,0.43,-7.62,-7.62,6.00,6.04,6.20,6.43,6.43,8.05
39.74,0.46,0.46,-7.58,-7.58,6.00,6.03,6.13,6.46,6.46,8.04
40.14,0.49,0.49,-7.55,-7.54,6.00,6.02,6.07,6.49,6.49,8.04
40.54,0.53,0.53,-7.50,-7.50,6.00,6.01,6.01,6.53,6.53,8.03
40.94,0.56,0.56,-7.46,-7.46,6.00,6.00,5.96,6.56,6.56,8.02
41.35,0.59,0.59,-7.42,-7.42,6.00,6.00,5.90,6.59,6.59,8.01
41.76,0.62,0.62,-7.38,-7.38,6.00,5.99,5.86,6.62,6.62,8.00
42.18,0.66,0.66,-7.33,-7.34,6.00,5.98,5.81,6.66,6.66,8.00
42.60,0.69,0.69,-7.29,-7.30,6.00,5.96,5.77,6.69,6.69,7.99
43.03,0.72,0.72,-7.26,-7.26,6.00,5.95,5.74,6.72,6.72,7.98
43.46,0.74,0.74,-7.23,-7.22,6.00,5.94,5.71,6.74,6.74,7.97
43.90,0.77,0.77,-7.19,-7.18,6.00,5.93,5.68,6.77,6.77,7.96
44.33,0.80,0.80,-7.14,-7.14,6.00,5.92,5.66,6.80,6.80,7.94
44.78,0.83,0.83,-7.10,-7.10,6.00,5.91,5.64,6.83,6.83,7.93
45.23,0.86,0.86,-7.06,-7.06,6.00,5.90,5.62,6.86,6.86,7.92
45.68,0.89,0.89,-7.02,-7.02,6.00,5.88,5.61,6.89,6.89,7.91
46.13,0.92,0.92,-6.98,-6.98,6.00,5.87,5.61,6.92,6.92,7.90
46.60,0.94,0.94,-6.94,-6.94,6.00,5.85,5.61,6.94,6.94,7.88
47.06,0.96,0.96,-6.91,-6.91,6.00,5.84,5.61,6.96,6.96,7.87
47.53,0.99,0.99,-6.87,-6.87,6.00,5.83,5.62,6.99,6.99,7.86
48.01,1.02,1.02,-6.82,-6.82,6.00,5.81,5.63,7.02,7.02,7.84
48.49,1.05,1.05,-6.78,-6.78,6.00,5.80,5.64,7.05,7.05,7.83
48.97,1.08,1.08,-6.73,-6.73,6.00,5.78,5.66,7.08,7.08,7.81
49.46,1.11,1.11,-6.69,-6.69,6.00,5.76,5.68,7.11,7.11,7.80
49.96,1.13,1.13,-6.65,-6.65,6.00,5.75,5.70,7.13,7.13,7.78
50.46,1.15,1.15,-6.61,-6.61,6.00,5.73,5.73,7.15,7.15,7.76
50.96,1.17,1.17,-6.58,-6.57,6.00,5.71,5.75,7.17,7.17,7.75
51.47,1.20,1.20,-6.53,-6.53,6.00,5.69,5.79,7.20,7.20,7.73
51.99,1.23,1.23,-6.48,-6.48,6.00,5.67,5.82,7.23,7.23,7.71
52.51,1.25,1.25,-6.44,-6.44,6.00,5.65,5.85,7.25,7.25,7.69
53.03,1.27,1.28,-6.40,-6.39,6.00,5.63,5.88,7.27,7.28,7.67
53.56,1.30,1.30,-6.35,-6.35,6.00,5.61,5.92,7.30,7.30,7.65
54.10,1.32,1.32,-6.31,-6.31,6.00,5.59,5.95,7.32,7.32,7.63
54.64,1.33,1.33,-6.28,-6.28,6.00,5.57,5.98,7.33,7.33,7.61
55.18,1.34,1.34,-6.24,-6.24,6.01,5.54,6.02,7.35,7.35,7.58
55.74,1.36,1.36,-6.20,-6.20,6.01,5.52,6.04,7.37,7.37,7.56
56.29,1.39,1.39,-6.15,-6.15,6.01,5.50,6.07,7.40,7.40,7.54
56.86,1.42,1.41,-6.09,-6.10,6.00,5.47,6.10,7.42,7.42,7.51
57.42,1.43,1.44,-6.06,-6.05,5.99,5.45,6.12,7.43,7.43,7.49
58.00,1.45,1.45,-6.01,-6.01,5.98,5.42,6.13,7.43,7.43,7.46
58.58,1.47,1.47,-5.96,-5.97,5.95,5.39,6.14,7.42,7.42,7.43
59.16,1.48,1.48,-5.92,-5.92,5.92,5.36,6.15,7.40,7.40,7.40
59.76,1.49,1.49,-5.88,-5.88,5.88,5.34,6.15,7.37,7.37,7.38
60.35,1.51,1.51,-5.83,-5.83,5.83,5.31,6.14,7.34,7.34,7.35
60.96,1.54,1.54,-5.77,-5.77,5.78,5.28,6.13,7.32,7.32,7.31
61.57,1.57,1.57,-5.71,-5.71,5.72,5.24,6.11,7.29,7.29,7.28
62.18,1.60,1.59,-5.65,-5.66,5.67,5.21,6.08,7.27,7.26,7.25
62.80,1.61,1.61,-5.61,-5.61,5.61,5.18,6.05,7.22,7.22,7.22
63.43,1.62,1.63,-5.56,-5.56,5.56,5.15,6.01,7.18,7.18,7.18
64.07,1.64,1.64,-5.51,-5.51,5.50,5.11,5.96,7.14,7.14,7.15
64.71,1.66,1.66,-5.45,-5.45,5.45,5.08,5.90,7.11,7.11,7.11
65.35,1.68,1.68,-5.39,-5.40,5.40,5.04,5.84,7.08,7.08,7.08
66.01,1.69,1.69,-5.35,-5.34,5.35,5.00,5.77,7.04,7.04,7.04
66.67,1.71,1.71,-5.29,-5.29,5.29,4.96,5.70,7.00,7.00,7.00
67.33,1.72,1.72,-5.24,-5.24,5.23,4.92,5.62,6.95,6.96,6.96
68.01,1.74,1.74,-5.18,-5.18,5.18,4.88,5.53,6.92,6.91,6.92
68.69,1.75,1.75,-5.12,-5.12,5.12,4.84,5.44,6.87,6.87,6.88
69.37,1.77,1.78,-5.06,-5.06,5.06,4.80,5.34,6.83,6.83,6.83
70.07,1.80,1.79,-4.99,-4.99,5.00,4.76,5.25,6.80,6.79,6.79
70.77,1.81,1.81,-4.93,-4.93,4.94,4.71,5.14,6.75,6.75,6.74
71.48,1.82,1.82,-4.88,-4.88,4.88,4.67,5.04,6.70,6.70,6.70
72.19,1.83,1.83,-4.82,-4.82,4.82,4.62,4.93,6.65,6.65,6.65
72.91,1.84,1.84,-4.76,-4.76,4.75,4.57,4.82,6.60,6.60,6.60
73.64,1.86,1.86,-4.69,-4.70,4.69,4.52,4.71,6.55,6.55,6.55
74.38,1.87,1.87,-4.63,-4.63,4.63,4.47,4.60,6.50,6.50,6.50
75.12,1.88,1.89,-4.57,-4.57,4.57,4.42,4.49,6.45,6.45,6.45
75.87,1.90,1.90,-4.50,-4.50,4.50,4.37,4.37,6.40,6.40,6.40
76.63,1.91,1.91,-4.43,-4.44,4.43,4.32,4.26,6.34,6.34,6.34
77.40,1.92,1.93,-4.37,-4.36,4.37,4.27,4.15,6.29,6.29,6.29
78.17,1.94,1.94,-4.29,-4.29,4.30,4.21,4.04,6.24,6.24,6.24
78.95,1.96,1.95,-4.22,-4.23,4.23,4.16,3.93,6.19,6.18,6.18
79.74,1.96,1.96,-4.16,-4.16,4.16,4.10,3.82,6.12,6.12,6.12
80.54,1.97,1.97,-4.09,-4.09,4.09,4.04,3.71,6.06,6.06,6.06
81.35,1.98,1.98,-4.02,-4.02,4.02,3.98,3.61,6.00,6.00,6.00
82.16,2.00,2.00,-3.94,-3.95,3.95,3.92,3.50,5.95,5.94,5.94
82.98,2.01,2.01,-3.87,-3.87,3.87,3.86,3.40,5.89,5.88,5.88
83.81,2.02,2.02,-3.80,-3.80,3.80,3.80,3.30,5.82,5.82,5.82
84.65,2.03,2.03,-3.73,-3.73,3.73,3.74,3.20,5.76,5.76,5.76
85.50,2.04,2.04,-3.65,-3.65,3.65,3.68,3.11,5.69,5.69,5.69
86.35,2.05,2.05,-3.58,-3.58,3.58,3.61,3.01,5.63,5.63,5.63
87.22,2.06,2.06,-3.50,-3.50,3.50,3.55,2.92,5.56,5.56,5.57
88.09,2.07,2.07,-3.43,-3.43,3.43,3.48,2.83,5.50,5.50,5.50
88.97,2.08,2.08,-3.35,-3.35,3.35,3.41,2.74,5.43,5.43,5.43
89.86,2.09,2.09,-3.27,-3.27,3.28,3.35,2.66,5.37,5.37,5.37
90.76,2.10,2.10,-3.20,-3.20,3.20,3.28,2.57,5.30,5.30,5.30
91.66,2.10,2.10,-3.13,-3.12,3.12,3.21,2.49,5.22,5.23,5.23
92.58,2.11,2.11,-3.05,-3.05,3.05,3.14,2.41,5.16,5.16,5.16
93.51,2.12,2.12,-2.97,-2.97,2.97,3.07,2.33,5.09,5.09,5.09
94.44,2.13,2.13,-2.89,-2.89,2.89,3.00,2.26,5.02,5.02,5.02
95.39,2.14,2.14,-2.81,-2.81,2.81,2.93,2.18,4.95,4.95,4.95
96.34,2.14,2.14,-2.74,-2.74,2.73,2.85,2.11,4.87,4.87,4.88
97.30,2.14,2.15,-2.66,-2.66,2.65,2.78,2.04,4.79,4.80,4.81
98.28,2.16,2.16,-2.57,-2.57,2.57,2.71,1.97,4.73,4.73,4.73
99.26,2.18,2.17,-2.48,-2.49,2.49,2.63,1.91,4.68,4.67,4.66
100.25,2.18,2.18,-2.41,-2.41,2.41,2.56,1.84,4.60,4.60,4.59
101.25,2.18,2.18,-2.34,-2.33,2.34,2.48,1.78,4.52,4.52,4.52
102.27,2.18,2.18,-2.26,-2.26,2.25,2.41,1.72,4.44,4.44,4.44
103.29,2.19,2.19,-2.18,-2.18,2.17,2.33,1.66,4.37,4.36,4.37
104.32,2.20,2.20,-2.10,-2.10,2.10,2.26,1.60,4.30,4.30,4.30
105.37,2.21,2.21,-2.01,-2.01,2.02,2.18,1.54,4.23,4.23,4.22
106.42,2.22,2.22,-1.93,-1.93,1.94,2.10,1.48,4.16,4.16,4.15
107.48,2.22,2.22,-1.86,-1.85,1.86,2.03,1.43,4.08,4.08,4.08
108.56,2.23,2.23,-1.77,-1.78,1.78,1.95,1.37,4.01,4.01,4.01
109.64,2.23,2.23,-1.70,-1.70,1.70,1.87,1.32,3.93,3.93,3.93
110.74,2.24,2.24,-1.62,-1.62,1.62,1.80,1.27,3.86,3.86,3.86
111.85,2.24,2.24,-1.55,-1.54,1.54,1.72,1.22,3.78,3.78,3.79
112.97,2.25,2.25,-1.47,-1.47,1.46,1.64,1.17,3.71,3.71,3.72
114.10,2.26,2.26,-1.38,-1.39,1.39,1.57,1.12,3.65,3.64,3.64
115.24,2.26,2.27,-1.31,-1.31,1.31,1.49,1.08,3.57,3.58,3.57
116.39,2.27,2.27,-1.23,-1.23,1.24,1.42,1.03,3.51,3.51,3.50
117.55,2.28,2.27,-1.15,-1.16,1.17,1.34,0.98,3.45,3.44,3.43
118.73,2.27,2.27,-1.09,-1.10,1.09,1.26,0.94,3.36,3.36,3.36
119.92,2.25,2.26,-1.04,-1.03,1.02,1.19,0.90,3.27,3.28,3.29
121.12,2.26,2.27,-0.96,-0.96,0.95,1.11,0.85,3.21,3.21,3.22
122.33,2.29,2.28,-0.86,-0.88,0.88,1.04,0.81,3.17,3.15,3.16
123.55,2.29,2.29,-0.80,-0.80,0.80,0.96,0.77,3.09,3.09,3.09
124.79,2.29,2.29,-0.73,-0.73,0.73,0.89,0.73,3.02,3.03,3.02
126.03,2.29,2.29,-0.66,-0.66,0.66,0.82,0.69,2.95,2.96,2.95
127.29,2.30,2.30,-0.59,-0.59,0.59,0.74,0.65,2.89,2.89,2.89
128.57,2.30,2.30,-0.52,-0.52,0.53,0.67,0.61,2.83,2.83,2.82
129.85,2.30,2.30,-0.46,-0.46,0.46,0.60,0.57,2.76,2.76,2.76
131.15,2.30,2.30,-0.40,-0.40,0.40,0.53,0.53,2.70,2.70,2.70
132.46,2.30,2.30,-0.34,-0.33,0.33,0.46,0.50,2.63,2.63,2.64
133.79,2.30,2.30,-0.27,-0.27,0.27,0.39,0.46,2.57,2.57,2.57
135.12,2.31,2.31,-0.20,-0.21,0.21,0.32,0.42,2.52,2.51,2.51
136.48,2.31,2.31,-0.14,-0.14,0.14,0.25,0.38,2.45,2.45,2.45
137.84,2.31,2.31,-0.09,-0.08,0.08,0.19,0.35,2.39,2.40,2.40
139.22,2.32,2.32,-0.02,-0.02,0.02,0.12,0.31,2.34,2.34,2.34
140.61,2.32,2.32,0.04,0.04,-0.04,0.05,0.27,2.28,2.28,2.28
142.02,2.32,2.32,0.09,0.10,-0.09,-0.01,0.24,2.23,2.23,2.23
143.44,2.32,2.32,0.15,0.15,-0.15,-0.07,0.20,2.17,2.17,2.17
144.87,2.32,2.32,0.20,0.20,-0.20,-0.14,0.17,2.12,2.12,2.12
146.32,2.32,2.32,0.26,0.26,-0.26,-0.20,0.13,2.06,2.06,2.07
147.78,2.32,2.32,0.31,0.31,-0.31,-0.26,0.09,2.01,2.01,2.01
149.26,2.32,2.32,0.36,0.36,-0.36,-0.32,0.06,1.96,1.96,1.96
150.75,2.32,2.32,0.41,0.41,-0.41,-0.38,0.02,1.91,1.91,1.91
152.26,2.32,2.32,0.46,0.46,-0.45,-0.43,-0.02,1.87,1.87,1.87
153.78,2.32,2.32,0.50,0.50,-0.50,-0.49,-0.05,1.82,1.82,1.82
155.32,2.32,2.32,0.55,0.55,-0.55,-0.54,-0.09,1.77,1.77,1.77
156.88,2.32,2.32,0.59,0.59,-0.60,-0.60,-0.13,1.72,1.72,1.73
158.44,2.32,2.32,0.64,0.64,-0.64,-0.65,-0.17,1.68,1.68,1.68
160.03,2.32,2.32,0.68,0.69,-0.69,-0.70,-0.20,1.63,1.63,1.64
161.63,2.32,2.32,0.74,0.73,-0.73,-0.75,-0.24,1.59,1.59,1.59
163.24,2.32,2.32,0.78,0.78,-0.77,-0.80,-0.28,1.55,1.55,1.54
164.88,2.32,2.32,0.82,0.81,-0.81,-0.85,-0.32,1.51,1.51,1.50
166.53,2.31,2.31,0.85,0.85,-0.85,-0.90,-0.36,1.46,1.46,1.46
168.19,2.31,2.31,0.88,0.88,-0.89,-0.94,-0.40,1.42,1.42,1.43
169.87,2.31,2.31,0.92,0.92,-0.92,-0.99,-0.44,1.39,1.39,1.39
171.57,2.31,2.31,0.96,0.96,-0.96,-1.03,-0.48,1.35,1.35,1.35
173.29,2.31,2.31,0.99,0.99,-0.99,-1.07,-0.53,1.32,1.32,1.32
175.02,2.30,2.30,1.02,1.02,-1.02,-1.11,-0.57,1.28,1.28,1.28
176.77,2.30,2.30,1.05,1.05,-1.05,-1.15,-0.61,1.25,1.25,1.25
178.54,2.30,2.30,1.08,1.08,-1.08,-1.19,-0.66,1.22,1.22,1.22
180.32,2.30,2.30,1.12,1.11,-1.11,-1.22,-0.70,1.19,1.18,1.18
182.13,2.29,2.29,1.14,1.14,-1.14,-1.26,-0.74,1.15,1.16,1.15
183.95,2.29,2.29,1.17,1.17,-1.17,-1.29,-0.79,1.12,1.12,1.12
185.79,2.29,2.29,1.20,1.19,-1.19,-1.32,-0.84,1.10,1.10,1.09
187.65,2.28,2.28,1.21,1.22,-1.22,-1.35,-0.88,1.06,1.07,1.07
189.52,2.28,2.28,1.24,1.24,-1.24,-1.38,-0.93,1.04,1.04,1.04
191.42,2.27,2.27,1.26,1.26,-1.26,-1.41,-0.98,1.01,1.01,1.01
193.33,2.27,2.27,1.28,1.29,-1.29,-1.43,-1.03,0.98,0.99,0.99
195.27,2.27,2.27,1.31,1.31,-1.31,-1.46,-1.07,0.96,0.96,0.96
197.22,2.27,2.27,1.33,1.33,-1.33,-1.48,-1.12,0.94,0.94,0.94
199.19,2.26,2.26,1.35,1.35,-1.34,-1.50,-1.17,0.92,0.92,0.91
201.18,2.25,2.25,1.36,1.36,-1.36,-1.52,-1.22,0.89,0.89,0.89
203.19,2.24,2.24,1.37,1.37,-1.38,-1.54,-1.27,0.86,0.86,0.87
205.23,2.24,2.24,1.39,1.39,-1.39,-1.56,-1.32,0.85,0.84,0.85
207.28,2.23,2.23,1.40,1.41,-1.41,-1.57,-1.37,0.82,0.83,0.83
209.35,2.23,2.23,1.42,1.42,-1.42,-1.59,-1.41,0.81,0.81,0.81
211.44,2.22,2.22,1.43,1.43,-1.43,-1.60,-1.46,0.79,0.79,0.79
213.56,2.21,2.21,1.44,1.45,-1.45,-1.61,-1.51,0.76,0.77,0.77
215.69,2.21,2.21,1.46,1.46,-1.46,-1.62,-1.55,0.75,0.75,0.75
217.85,2.20,2.20,1.47,1.47,-1.47,-1.63,-1.59,0.73,0.73,0.73
220.03,2.19,2.19,1.48,1.48,-1.48,-1.64,-1.64,0.71,0.72,0.71
222.23,2.19,2.19,1.49,1.49,-1.49,-1.64,-1.68,0.70,0.70,0.70
224.45,2.18,2.18,1.50,1.50,-1.50,-1.65,-1.72,0.68,0.68,0.68
226.70,2.17,2.17,1.50,1.50,-1.51,-1.65,-1.75,0.67,0.67,0.67
228.96,2.16,2.16,1.51,1.51,-1.51,-1.65,-1.79,0.65,0.65,0.65
231.25,2.15,2.16,1.51,1.52,-1.52,-1.65,-1.82,0.63,0.64,0.64
233.57,2.15,2.15,1.53,1.53,-1.52,-1.66,-1.85,0.63,0.62,0.62
235.90,2.14,2.13,1.54,1.53,-1.53,-1.65,-1.87,0.61,0.60,0.60
238.26,2.11,2.12,1.52,1.53,-1.53,-1.65,-1.89,0.58,0.59,0.59
240.64,2.10,2.11,1.53,1.54,-1.54,-1.65,-1.91,0.56,0.57,0.57
243.05,2.11,2.10,1.55,1.54,-1.54,-1.64,-1.93,0.57,0.56,0.56
245.48,2.10,2.10,1.55,1.55,-1.55,-1.64,-1.94,0.55,0.55,0.55
247.93,2.09,2.09,1.55,1.55,-1.55,-1.63,-1.95,0.54,0.54,0.54
250.41,2.08,2.08,1.55,1.55,-1.55,-1.62,-1.95,0.53,0.53,0.53
252.92,2.07,2.07,1.55,1.55,-1.55,-1.62,-1.95,0.52,0.52,0.52
255.45,2.06,2.06,1.55,1.55,-1.55,-1.61,-1.95,0.51,0.51,0.51
258.00,2.05,2.05,1.55,1.55,-1.55,-1.60,-1.94,0.50,0.50,0.50
260.58,2.03,2.03,1.54,1.55,-1.55,-1.59,-1.93,0.48,0.49,0.49
263.19,2.02,2.02,1.54,1.54,-1.55,-1.58,-1.92,0.47,0.48,0.48
265.82,2.01,2.01,1.54,1.54,-1.54,-1.56,-1.90,0.47,0.47,0.47
268.48,2.00,2.00,1.54,1.54,-1.54,-1.55,-1.88,0.46,0.46,0.46
271.16,1.99,1.99,1.54,1.54,-1.53,-1.54,-1.85,0.46,0.45,0.45
273.87,1.97,1.97,1.53,1.53,-1.53,-1.52,-1.83,0.44,0.45,0.45
276.61,1.96,1.96,1.52,1.52,-1.52,-1.51,-1.80,0.44,0.44,0.44
279.38,1.94,1.94,1.51,1.51,-1.51,-1.49,-1.77,0.43,0.43,0.43
282.17,1.93,1.93,1.51,1.50,-1.50,-1.47,-1.73,0.43,0.43,0.42
284.99,1.91,1.91,1.48,1.49,-1.49,-1.46,-1.70,0.42,0.42,0.43
287.84,1.90,1.90,1.47,1.47,-1.47,-1.44,-1.66,0.43,0.43,0.43
290.72,1.88,1.88,1.46,1.46,-1.46,-1.42,-1.62,0.42,0.43,0.42
293.63,1.87,1.87,1.45,1.45,-1.44,-1.40,-1.58,0.43,0.42,0.42
296.57,1.85,1.85,1.43,1.43,-1.43,-1.39,-1.54,0.42,0.42,0.42
299.53,1.82,1.83,1.40,1.41,-1.41,-1.37,-1.50,0.41,0.42,0.43
302.53,1.81,1.81,1.39,1.39,-1.40,-1.35,-1.46,0.41,0.42,0.42
305.55,1.80,1.80,1.38,1.38,-1.38,-1.33,-1.42,0.42,0.42,0.42
308.61,1.79,1.79,1.37,1.37,-1.36,-1.31,-1.38,0.43,0.42,0.42
311.69,1.77,1.77,1.35,1.35,-1.35,-1.29,-1.33,0.42,0.43,0.42
314.81,1.76,1.76,1.34,1.34,-1.33,-1.27,-1.29,0.43,0.43,0.42
317.96,1.74,1.74,1.32,1.32,-1.32,-1.25,-1.25,0.43,0.43,0.42
321.14,1.72,1.72,1.30,1.30,-1.30,-1.22,-1.21,0.42,0.42,0.42
324.35,1.70,1.70,1.27,1.27,-1.28,-1.20,-1.17,0.42,0.42,0.43
327.59,1.68,1.68,1.25,1.26,-1.26,-1.18,-1.12,0.42,0.43,0.43
330.87,1.67,1.67,1.24,1.24,-1.24,-1.16,-1.08,0.43,0.43,0.43
334.18,1.65,1.65,1.22,1.22,-1.22,-1.14,-1.04,0.43,0.43,0.43
337.52,1.63,1.63,1.20,1.20,-1.19,-1.12,-1.00,0.44,0.44,0.43
340.90,1.61,1.61,1.17,1.17,-1.17,-1.09,-0.96,0.44,0.44,0.44
344.30,1.59,1.59,1.15,1.15,-1.15,-1.07,-0.93,0.44,0.44,0.44
347.75,1.58,1.58,1.13,1.13,-1.13,-1.05,-0.89,0.45,0.45,0.45
351.23,1.56,1.56,1.11,1.11,-1.11,-1.03,-0.85,0.45,0.45,0.45
354.74,1.54,1.54,1.08,1.08,-1.08,-1.00,-0.81,0.46,0.46,0.46
358.28,1.52,1.52,1.06,1.06,-1.06,-0.98,-0.78,0.46,0.46,0.46
361.87,1.51,1.51,1.04,1.04,-1.04,-0.96,-0.74,0.47,0.47,0.47
365.49,1.49,1.49,1.02,1.02,-1.02,-0.94,-0.71,0.47,0.47,0.48
369.14,1.47,1.47,1.00,0.99,-0.99,-0.91,-0.68,0.48,0.48,0.47
372.83,1.45,1.45,0.96,0.97,-0.97,-0.89,-0.64,0.48,0.48,0.49
376.56,1.44,1.44,0.95,0.95,-0.95,-0.87,-0.61,0.49,0.49,0.49
380.33,1.42,1.42,0.93,0.93,-0.92,-0.84,-0.58,0.50,0.50,0.50
384.13,1.40,1.40,0.91,0.90,-0.90,-0.82,-0.55,0.50,0.50,0.49
387.97,1.38,1.38,0.88,0.88,-0.88,-0.80,-0.52,0.51,0.51,0.50
391.85,1.36,1.36,0.84,0.85,-0.85,-0.77,-0.49,0.51,0.51,0.52
395.77,1.34,1.34,0.82,0.82,-0.82,-0.75,-0.46,0.52,0.52,0.52
399.73,1.32,1.32,0.80,0.79,-0.80,-0.73,-0.43,0.52,0.52,0.52
403.72,1.30,1.30,0.77,0.77,-0.77,-0.70,-0.40,0.53,0.53,0.53
407.76,1.27,1.27,0.74,0.74,-0.74,-0.68,-0.38,0.53,0.54,0.53
411.84,1.25,1.25,0.71,0.71,-0.71,-0.65,-0.35,0.54,0.54,0.54
415.96,1.23,1.23,0.68,0.68,-0.68,-0.63,-0.32,0.55,0.54,0.55
420.12,1.20,1.20,0.65,0.65,-0.66,-0.61,-0.30,0.55,0.55,0.55
424.32,1.18,1.18,0.63,0.63,-0.63,-0.58,-0.27,0.55,0.56,0.55
428.56,1.16,1.16,0.60,0.60,-0.60,-0.56,-0.25,0.56,0.56,0.56
432.85,1.14,1.13,0.57,0.57,-0.56,-0.53,-0.22,0.58,0.57,0.57
437.18,1.10,1.11,0.53,0.54,-0.53,-0.51,-0.20,0.57,0.58,0.57
441.55,1.08,1.08,0.50,0.50,-0.50,-0.48,-0.17,0.58,0.58,0.58
445.96,1.06,1.06,0.47,0.47,-0.47,-0.46,-0.15,0.59,0.59,0.59
450.42,1.03,1.03,0.42,0.43,-0.43,-0.43,-0.13,0.60,0.60,0.61
454.93,1.01,1.01,0.40,0.39,-0.40,-0.41,-0.11,0.61,0.61,0.61
459.48,0.98,0.98,0.36,0.36,-0.36,-0.38,-0.08,0.62,0.62,0.62
464.07,0.95,0.95,0.33,0.33,-0.33,-0.36,-0.06,0.62,0.63,0.62
468.71,0.93,0.93,0.30,0.29,-0.29,-0.33,-0.04,0.64,0.63,0.63
473.40,0.90,0.90,0.26,0.26,-0.26,-0.30,-0.02,0.64,0.64,0.64
478.13,0.87,0.87,0.22,0.23,-0.23,-0.28,0.00,0.65,0.65,0.65
482.91,0.85,0.85,0.19,0.19,-0.19,-0.25,0.02,0.66,0.66,0.66
487.74,0.82,0.82,0.15,0.15,-0.15,-0.22,0.04,0.67,0.67,0.67
492.62,0.79,0.79,0.11,0.12,-0.12,-0.20,0.06,0.67,0.68,0.68
497.55,0.77,0.77,0.09,0.08,-0.08,-0.17,0.08,0.69,0.69,0.69
502.52,0.74,0.74,0.05,0.04,-0.04,-0.14,0.10,0.70,0.70,0.69
507.55,0.71,0.71,-0.00,0.00,-0.00,-0.11,0.12,0.71,0.71,0.71
512.62,0.68,0.68,-0.04,-0.04,0.04,-0.08,0.14,0.72,0.72,0.72
517.75,0.65,0.65,-0.08,-0.08,0.08,-0.05,0.16,0.73,0.73,0.73
522.93,0.62,0.62,-0.12,-0.12,0.11,-0.02,0.18,0.73,0.74,0.74
528.16,0.60,0.60,-0.15,-0.15,0.15,0.01,0.19,0.75,0.75,0.75
533.44,0.57,0.57,-0.19,-0.19,0.19,0.04,0.21,0.76,0.76,0.76
538.77,0.54,0.54,-0.22,-0.22,0.23,0.07,0.23,0.77,0.77,0.76
544.16,0.51,0.51,-0.27,-0.27,0.27,0.10,0.25,0.78,0.78,0.78
549.60,0.48,0.48,-0.31,-0.31,0.31,0.14,0.27,0.79,0.79,0.79
555.10,0.45,0.45,-0.36,-0.35,0.35,0.17,0.29,0.80,0.80,0.81
