frequency,raw
20.00,-3.39
20.20,-3.36
20.40,-3.34
20.61,-3.31
20.81,-3.28
21.02,-3.26
21.23,-3.23
21.44,-3.21
21.66,-3.18
21.87,-3.16
22.09,-3.12
22.31,-3.10
22.54,-3.07
22.76,-3.03
22.99,-3.00
23.22,-2.97
23.45,-2.93
23.69,-2.89
23.92,-2.86
24.16,-2.82
24.40,-2.80
24.65,-2.76
24.89,-2.73
25.14,-2.70
25.39,-2.66
25.65,-2.63
25.91,-2.60
26.16,-2.56
26.43,-2.53
26.69,-2.50
26.96,-2.46
27.23,-2.43
27.50,-2.40
27.77,-2.36
28.05,-2.32
28.33,-2.29
28.62,-2.25
28.90,-2.21
29.19,-2.18
29.48,-2.14
29.78,-2.11
30.08,-2.07
30.38,-2.05
30.68,-2.02
30.99,-1.99
31.30,-1.97
31.61,-1.94
31.93,-1.93
32.24,-1.91
32.57,-1.88
32.89,-1.86
33.22,-1.84
33.55,-1.82
33.89,-1.79
34.23,-1.77
34.57,-1.74
34.92,-1.72
35.27,-1.69
35.62,-1.67
35.97,-1.64
36.33,-1.61
36.70,-1.59
37.06,-1.56
37.43,-1.53
37.81,-1.50
38.19,-1.47
38.57,-1.45
38.95,-1.42
39.34,-1.39
39.74,-1.36
40.14,-1.33
40.54,-1.31
40.94,-1.27
41.35,-1.25
41.76,-1.21
42.18,-1.19
42.60,-1.16
43.03,-1.14
43.46,-1.11
43.90,-1.08
44.33,-1.05
44.78,-1.04
45.23,-1.01
45.68,-1.00
46.13,-0.97
46.60,-0.95
47.06,-0.94
47.53,-0.92
48.01,-0.91
48.49,-0.89
48.97,-0.88
49.46,-0.87
49.96,-0.86
50.46,-0.84
50.96,-0.82
51.47,-0.81
51.99,-0.80
52.51,-0.79
53.03,-0.77
53.56,-0.76
54.10,-0.74
54.64,-0.74
55.18,-0.72
55.74,-0.70
56.29,-0.69
56.86,-0.68
57.42,-0.66
58.00,-0.65
58.58,-0.64
59.16,-0.63
59.76,-0.62
60.35,-0.61
60.96,-0.61
61.57,-0.60
62.18,-0.59
62.80,-0.58
63.43,-0.58
64.07,-0.58
64.71,-0.57
65.35,-0.58
66.01,-0.58
66.67,-0.57
67.33,-0.57
68.01,-0.58
68.69,-0.58
69.37,-0.58
70.07,-0.58
70.77,-0.59
71.48,-0.59
72.19,-0.60
72.91,-0.60
73.64,-0.61
74.38,-0.62
75.12,-0.62
75.87,-0.63
76.63,-0.64
77.40,-0.65
78.17,-0.66
78.95,-0.66
79.74,-0.68
80.54,-0.69
81.35,-0.69
82.16,-0.70
82.98,-0.72
83.81,-0.73
84.65,-0.75
85.50,-0.75
86.35,-0.77
87.22,-0.78
88.09,-0.79
88.97,-0.80
89.86,-0.82
90.76,-0.83
91.66,-0.84
92.58,-0.85
93.51,-0.86
94.44,-0.86
95.39,-0.88
96.34,-0.89
97.30,-0.90
98.28,-0.91
99.26,-0.92
100.25,-0.92
101.25,-0.93
102.27,-0.94
103.29,-0.95
104.32,-0.96
105.37,-0.96
106.42,-0.98
107.48,-0.99
108.56,-0.99
109.64,-1.00
110.74,-1.00
111.85,-1.01
112.97,-1.02
114.10,-1.02
115.24,-1.02
116.39,-1.03
117.55,-1.04
118.73,-1.04
119.92,-1.04
121.12,-1.05
122.33,-1.05
123.55,-1.06
124.79,-1.06
126.03,-1.07
127.29,-1.07
128.57,-1.07
129.85,-1.07
131.15,-1.07
132.46,-1.07
133.79,-1.07
135.12,-1.07
136.48,-1.08
137.84,-1.07
139.22,-1.07
140.61,-1.07
142.02,-1.06
143.44,-1.06
144.87,-1.05
146.32,-1.04
147.78,-1.04
149.26,-1.02
150.75,-1.02
152.26,-1.01
153.78,-0.99
155.32,-0.98
156.88,-0.97
158.44,-0.96
160.03,-0.94
161.63,-0.94
163.24,-0.92
164.88,-0.91
166.53,-0.90
168.19,-0.89
169.87,-0.89
171.57,-0.88
173.29,-0.88
175.02,-0.87
176.77,-0.87
178.54,-0.87
180.32,-0.87
182.13,-0.88
183.95,-0.89
185.79,-0.89
187.65,-0.90
189.52,-0.92
191.42,-0.92
193.33,-0.94
195.27,-0.95
197.22,-0.97
199.19,-0.98
201.18,-0.99
203.19,-1.01
205.23,-1.02
207.28,-1.02
209.35,-1.02
211.44,-1.02
213.56,-1.02
215.69,-1.02
217.85,-1.02
220.03,-1.01
222.23,-0.99
224.45,-0.99
226.70,-0.98
228.96,-0.98
231.25,-0.98
233.57,-0.99
235.90,-1.00
238.26,-1.02
240.64,-1.05
243.05,-1.07
245.48,-1.11
247.93,-1.14
250.41,-1.16
252.92,-1.19
255.45,-1.22
258.00,-1.23
260.58,-1.24
263.19,-1.25
265.82,-1.25
268.48,-1.25
271.16,-1.24
273.87,-1.24
276.61,-1.23
279.38,-1.22
282.17,-1.23
284.99,-1.24
287.84,-1.28
290.72,-1.32
293.63,-1.39
296.57,-1.48
299.53,-1.59
302.53,-1.71
305.55,-1.83
308.61,-1.94
311.69,-2.05
314.81,-2.14
317.96,-2.21
321.14,-2.26
324.35,-2.31
327.59,-2.32
330.87,-2.33
334.18,-2.34
337.52,-2.32
340.90,-2.30
344.30,-2.28
347.75,-2.25
351.23,-2.19
354.74,-2.14
358.28,-2.07
361.87,-1.99
365.49,-1.90
369.14,-1.82
372.83,-1.73
376.56,-1.63
380.33,-1.56
384.13,-1.47
387.97,-1.40
391.85,-1.32
395.77,-1.25
399.73,-1.17
403.72,-1.11
407.76,-1.05
411.84,-1.00
415.96,-0.93
420.12,-0.88
424.32,-0.83
428.56,-0.78
432.85,-0.73
437.18,-0.69
441.55,-0.64
445.96,-0.60
450.42,-0.58
454.93,-0.56
459.48,-0.54
464.07,-0.53
468.71,-0.52
473.40,-0.52
478.13,-0.51
482.91,-0.51
487.74,-0.49
492.62,-0.47
497.55,-0.44
502.52,-0.42
507.55,-0.38
512.62,-0.34
517.75,-0.30
522.93,-0.27
528.16,-0.24
533.44,-0.21
538.77,-0.19
544.16,-0.16
549.60,-0.13
555.10,-0.09
560.65,-0.04
566.25,0.02
571.92,0.10
577.64,0.16
583.41,0.23
589.25,0.28
595.14,0.28
601.09,0.23
607.10,0.14
613.17,0.01
619.30,-0.14
625.50,-0.29
631.75,-0.45
638.07,-0.58
644.45,-0.69
650.89,-0.78
657.40,-0.87
663.98,-0.96
670.62,-1.06
677.32,-1.17
684.10,-1.29
690.94,-1.42
697.85,-1.54
704.83,-1.63
711.87,-1.70
718.99,-1.76
726.18,-1.80
733.44,-1.80
740.78,-1.80
748.19,-1.78
755.67,-1.74
763.23,-1.69
770.86,-1.62
778.57,-1.52
786.35,-1.41
794.22,-1.28
802.16,-1.17
810.18,-1.07
818.28,-0.97
826.46,-0.89
834.73,-0.82
843.08,-0.74
851.51,-0.65
860.02,-0.56
868.62,-0.45
877.31,-0.34
886.08,-0.21
894.94,-0.08
903.89,0.05
912.93,0.17
922.06,0.30
931.28,0.40
940.59,0.46
950.00,0.49
959.50,0.48
969.09,0.40
978.78,0.29
988.57,0.16
998.46,0.02
1008.44,-0.11
1018.53,-0.23
1028.71,-0.36
1039.00,-0.51
1049.39,-0.69
1059.88,-0.89
1070.48,-1.11
1081.19,-1.33
1092.00,-1.55
1102.92,-1.74
1113.95,-1.90
1125.09,-2.01
1136.34,-2.05
1147.70,-2.03
1159.18,-1.97
1170.77,-1.88
1182.48,-1.80
1194.30,-1.74
1206.25,-1.68
1218.31,-1.62
1230.49,-1.57
1242.80,-1.50
1255.22,-1.40
1267.78,-1.30
1280.45,-1.20
1293.26,-1.08
1306.19,-0.96
1319.25,-0.84
1332.45,-0.72
1345.77,-0.65
1359.23,-0.58
1372.82,-0.54
1386.55,-0.55
1400.41,-0.56
1414.42,-0.60
1428.56,-0.64
1442.85,-0.67
1457.28,-0.71
1471.85,-0.75
1486.57,-0.82
1501.43,-0.92
1516.45,-1.05
1531.61,-1.18
1546.93,-1.31
1562.40,-1.42
1578.02,-1.51
1593.80,-1.58
1609.74,-1.60
1625.84,-1.57
1642.10,-1.49
1658.52,-1.37
1675.10,-1.20
1691.85,-1.03
1708.77,-0.85
1725.86,-0.71
1743.12,-0.57
1760.55,-0.43
1778.15,-0.28
1795.94,-0.14
1813.90,0.01
1832.03,0.15
1850.36,0.32
1868.86,0.50
1887.55,0.70
1906.42,0.91
1925.49,1.13
1944.74,1.35
1964.19,1.56
1983.83,1.75
2003.67,1.93
2023.71,2.10
2043.94,2.28
2064.38,2.46
2085.03,2.66
2105.88,2.86
2126.94,3.06
2148.20,3.26
2169.69,3.47
2191.38,3.68
2213.30,3.92
2235.43,4.16
2257.78,4.43
2280.36,4.69
2303.17,4.99
2326.20,5.32
2349.46,5.66
2372.95,6.05
2396.68,6.44
2420.65,6.81
2444.86,7.17
2469.31,7.51
2494.00,7.84
2518.94,8.12
2544.13,8.35
2569.57,8.51
2595.27,8.64
2621.22,8.71
2647.43,8.75
2673.90,8.76
2700.64,8.77
2727.65,8.81
2754.93,8.88
2782.48,9.00
2810.30,9.17
2838.40,9.39
2866.79,9.65
2895.46,9.90
2924.41,10.13
2953.65,10.33
2983.19,10.42
3013.02,10.46
3043.15,10.43
3073.58,10.28
3104.32,10.08
3135.36,9.85
3166.72,9.59
3198.38,9.35
3230.37,9.14
3262.67,8.98
3295.30,8.87
3328.25,8.79
3361.53,8.75
3395.15,8.71
3429.10,8.65
3463.39,8.55
3498.03,8.38
3533.01,8.16
3568.34,7.90
3604.02,7.58
3640.06,7.27
3676.46,6.96
3713.22,6.72
3750.36,6.55
3787.86,6.42
3825.74,6.36
3864.00,6.34
3902.64,6.32
3941.66,6.30
3981.08,6.27
4020.89,6.19
4061.10,6.09
4101.71,5.92
4142.73,5.75
4184.15,5.55
4226.00,5.37
4268.26,5.23
4310.94,5.13
4354.05,5.09
4397.59,5.07
4441.56,5.06
4485.98,5.04
4530.84,4.98
4576.15,4.87
4621.91,4.68
4668.13,4.43
4714.81,4.18
4761.96,3.93
4809.58,3.74
4857.67,3.59
4906.25,3.45
4955.31,3.33
5004.87,3.18
5054.91,2.97
5105.46,2.72
5156.52,2.40
5208.08,2.05
5260.16,1.70
5312.77,1.36
5365.89,1.07
5419.55,0.84
5473.75,0.74
5528.49,0.68
5583.77,0.67
5639.61,0.72
5696.00,0.82
5752.96,0.93
5810.49,1.14
5868.60,1.39
5927.28,1.69
5986.56,2.09
6046.42,2.51
6106.89,2.96
6167.96,3.40
6229.64,3.82
6291.93,4.22
6354.85,4.58
6418.40,4.85
6482.58,5.09
6547.41,5.26
6612.88,5.33
6679.01,5.35
6745.80,5.33
6813.26,5.30
6881.39,5.23
6950.21,5.13
7019.71,5.00
7089.91,4.87
7160.81,4.76
7232.41,4.70
7304.74,4.71
7377.79,4.77
7451.56,4.89
7526.08,5.08
7601.34,5.28
7677.35,5.50
7754.13,5.77
7831.67,6.02
7909.98,6.26
7989.08,6.43
8068.98,6.58
8149.67,6.69
8231.16,6.83
8313.47,6.98
8396.61,7.12
8480.57,7.26
8565.38,7.28
8651.03,7.24
8737.54,7.10
8824.92,6.78
8913.17,6.35
9002.30,5.81
9092.32,5.04
9183.25,4.09
9275.08,3.00
9367.83,1.80
9461.51,0.53
9556.12,-0.80
9651.68,-2.21
9748.20,-3.66
9845.68,-5.06
9944.14,-6.42
10043.58,-7.82
10144.02,-9.12
10245.46,-10.35
10347.91,-11.37
10451.39,-12.20
10555.91,-12.81
10661.46,-12.98
10768.08,-12.65
10875.76,-11.99
10984.52,-10.95
11094.36,-9.62
11205.31,-8.15
11317.36,-6.53
11430.53,-5.12
11544.84,-3.87
11660.29,-2.81
11776.89,-2.14
11894.66,-1.64
12013.60,-1.31
12133.74,-1.17
12255.08,-1.06
12377.63,-0.98
12501.41,-0.92
12626.42,-1.03
12752.68,-1.29
12880.21,-1.72
13009.01,-2.43
13139.10,-3.29
13270.49,-4.37
13403.20,-5.37
13537.23,-6.28
13672.60,-7.08
13809.33,-7.43
13947.42,-7.44
14086.90,-7.16
14227.77,-6.48
14370.04,-5.61
14513.74,-4.64
14658.88,-3.68
14805.47,-2.85
14953.52,-2.18
15103.06,-1.78
15254.09,-1.67
15406.63,-1.76
15560.70,-2.09
15716.30,-2.85
15873.47,-3.76
16032.20,-4.84
16192.52,-6.28
16354.45,-7.73
16517.99,-9.15
16683.17,-10.41
16850.01,-11.23
17018.51,-11.73
17188.69,-11.84
17360.58,-11.48
17534.18,-10.87
17709.53,-9.95
17886.62,-8.91
18065.49,-7.86
18246.14,-6.80
18428.60,-5.93
18612.89,-5.16
18799.02,-4.49
18987.01,-3.91
19176.88,-3.37
19368.65,-2.89
19562.33,-2.55
19757.96,-2.29
19955.54,-2.06
