frequency,raw,error,smoothed,error_smoothed,equalization,parametric_eq,equalized_raw,equalized_smoothed,target
20,-5.24,-6.99,-5.24,-6.99,6.00,5.88,0.76,0.76,1.74
21,-4.93,-6.68,-4.94,-6.69,6.00,5.89,1.07,1.06,1.74
22,-4.63,-6.38,-4.64,-6.38,5.93,5.82,1.29,1.29,1.74
23,-4.32,-6.06,-4.33,-6.07,5.79,5.70,1.46,1.46,1.74
24,-4.05,-5.79,-4.02,-5.75,5.59,5.51,1.54,1.57,1.74
25,-3.75,-5.49,-3.70,-5.43,5.35,5.29,1.60,1.66,1.73
26,-3.35,-5.08,-3.37,-5.10,5.08,5.03,1.72,1.71,1.73
27,-3.06,-4.79,-3.05,-4.78,4.78,4.76,1.71,1.73,1.73
28,-2.72,-4.45,-2.73,-4.45,4.45,4.46,1.72,1.72,1.72
29,-2.39,-4.11,-2.41,-4.13,4.13,4.16,1.73,1.72,1.72
30,-2.07,-3.79,-2.10,-3.82,3.82,3.85,1.74,1.71,1.71
31,-1.76,-3.47,-1.81,-3.52,3.52,3.55,1.75,1.71,1.71
32,-1.51,-3.22,-1.53,-3.23,3.23,3.24,1.72,1.70,1.70
33,-1.27,-2.97,-1.27,-2.97,2.97,2.94,1.69,1.70,1.70
34,-1.03,-2.72,-1.02,-2.71,2.71,2.65,1.67,1.69,1.69
35,-0.77,-2.46,-0.78,-2.46,2.46,2.36,1.69,1.68,1.68
36,-0.53,-2.21,-0.55,-2.23,2.23,2.08,1.69,1.67,1.67
37,-0.35,-2.02,-0.33,-1.99,1.99,1.81,1.64,1.66,1.66
38,-0.11,-1.77,-0.11,-1.76,1.76,1.55,1.65,1.65,1.65
39,0.13,-1.52,0.11,-1.53,1.53,1.29,1.66,1.64,1.64
40,0.32,-1.32,0.34,-1.30,1.30,1.04,1.61,1.63,1.63
41,0.52,-1.11,0.56,-1.06,1.06,0.80,1.58,1.62,1.62
42,0.81,-0.81,0.79,-0.82,0.82,0.56,1.63,1.61,1.61
43,1.04,-0.56,1.02,-0.58,0.58,0.34,1.62,1.60,1.60
44,1.26,-0.33,1.24,-0.34,0.34,0.11,1.59,1.58,1.58
45,1.46,-0.11,1.47,-0.10,0.10,-0.10,1.55,1.57,1.57
46,1.67,0.11,1.69,0.14,-0.14,-0.31,1.53,1.55,1.55
47,1.94,0.40,1.91,0.37,-0.37,-0.51,1.57,1.54,1.54
48,2.11,0.58,2.11,0.59,-0.59,-0.71,1.51,1.52,1.52
49,2.34,0.83,2.32,0.81,-0.81,-0.90,1.52,1.50,1.50
50,2.55,1.06,2.51,1.02,-1.02,-1.09,1.52,1.48,1.48
51,2.69,1.22,2.69,1.23,-1.23,-1.27,1.46,1.46,1.46
52,2.84,1.39,2.87,1.42,-1.42,-1.45,1.41,1.44,1.44
53,3.04,1.61,3.03,1.61,-1.61,-1.62,1.42,1.42,1.42
54,3.20,1.80,3.20,1.80,-1.80,-1.79,1.40,1.40,1.40
55,3.34,1.96,3.35,1.98,-1.98,-1.95,1.36,1.38,1.38
56,3.54,2.18,3.50,2.15,-2.15,-2.11,1.39,1.35,1.35
57,3.65,2.32,3.64,2.32,-2.32,-2.26,1.33,1.33,1.33
58,3.79,2.49,3.78,2.48,-2.48,-2.41,1.30,1.30,1.30
59,3.90,2.62,3.92,2.64,-2.64,-2.56,1.25,1.27,1.27
60,4.04,2.79,4.05,2.80,-2.80,-2.71,1.23,1.24,1.24
61,4.18,2.96,4.17,2.96,-2.96,-2.85,1.22,1.22,1.22
62,4.30,3.11,4.29,3.11,-3.11,-2.98,1.19,1.19,1.19
63,4.39,3.23,4.41,3.26,-3.26,-3.12,1.13,1.16,1.16
64,4.55,3.42,4.52,3.40,-3.40,-3.25,1.15,1.12,1.12
65,4.64,3.54,4.63,3.54,-3.54,-3.37,1.10,1.09,1.09
66,4.72,3.66,4.73,3.67,-3.67,-3.49,1.05,1.06,1.06
67,4.84,3.81,4.82,3.79,-3.79,-3.61,1.04,1.02,1.02
68,4.92,3.93,4.90,3.91,-3.91,-3.73,1.01,0.99,0.99
69,4.97,4.01,4.97,4.02,-4.02,-3.85,0.95,0.95,0.95
70,5.05,4.13,5.03,4.12,-4.12,-3.96,0.93,0.92,0.92
71,5.08,4.19,5.09,4.21,-4.21,-4.06,0.86,0.88,0.88
72,5.16,4.31,5.15,4.30,-4.30,-4.17,0.85,0.84,0.84
73,5.19,4.38,5.20,4.39,-4.39,-4.27,0.79,0.81,0.81
74,5.23,4.46,5.25,4.48,-4.48,-4.37,0.75,0.77,0.77
75,5.30,4.57,5.29,4.56,-4.56,-4.47,0.74,0.73,0.73
76,5.36,4.66,5.33,4.64,-4.64,-4.56,0.72,0.69,0.69
77,5.37,4.71,5.37,4.72,-4.72,-4.65,0.65,0.65,0.65
78,5.39,4.77,5.40,4.79,-4.79,-4.74,0.60,0.61,0.61
79,5.44,4.86,5.43,4.86,-4.86,-4.82,0.58,0.57,0.57
80,5.48,4.95,5.46,4.93,-4.93,-4.91,0.55,0.53,0.53
81,5.46,4.97,5.48,4.99,-4.99,-4.99,0.46,0.49,0.49
82,5.54,5.09,5.50,5.06,-5.06,-5.06,0.48,0.45,0.45
83,5.50,5.09,5.53,5.12,-5.12,-5.14,0.38,0.41,0.41
84,5.55,5.18,5.55,5.18,-5.18,-5.21,0.36,0.36,0.36
85,5.57,5.24,5.56,5.24,-5.24,-5.28,0.32,0.32,0.32
86,5.55,5.26,5.58,5.30,-5.30,-5.35,0.25,0.28,0.28
87,5.65,5.41,5.59,5.35,-5.35,-5.41,0.29,0.24,0.24
88,5.62,5.42,5.61,5.41,-5.41,-5.48,0.21,0.20,0.20
89,5.58,5.42,5.61,5.46,-5.46,-5.54,0.12,0.16,0.16
90,5.64,5.52,5.62,5.50,-5.50,-5.59,0.13,0.12,0.12
91,5.65,5.57,5.62,5.54,-5.54,-5.65,0.10,0.07,0.07
92,5.61,5.57,5.61,5.58,-5.58,-5.70,0.02,0.03,0.03
93,5.60,5.60,5.61,5.61,-5.61,-5.75,-0.02,-0.01,-0.01
94,5.61,5.65,5.60,5.65,-5.65,-5.80,-0.04,-0.05,-0.05
95,5.61,5.69,5.59,5.68,-5.68,-5.85,-0.07,-0.09,-0.09
96,5.58,5.70,5.58,5.71,-5.71,-5.89,-0.13,-0.13,-0.13
97,5.54,5.70,5.57,5.74,-5.74,-5.94,-0.20,-0.17,-0.17
98,5.55,5.75,5.56,5.77,-5.77,-5.98,-0.23,-0.21,-0.21
99,5.58,5.82,5.56,5.81,-5.81,-6.01,-0.23,-0.25,-0.25
100,5.58,5.86,5.55,5.84,-5.84,-6.05,-0.27,-0.29,-0.29
101,5.54,5.86,5.54,5.88,-5.88,-6.09,-0.34,-0.33,-0.32
102,5.51,5.87,5.54,5.91,-5.91,-6.12,-0.41,-0.38,-0.36
104,5.53,5.96,5.53,5.95,-5.95,-6.18,-0.42,-0.42,-0.44
105,5.55,6.02,5.52,5.98,-5.98,-6.20,-0.43,-0.46,-0.47
106,5.54,6.04,5.50,6.00,-6.00,-6.23,-0.47,-0.50,-0.51
107,5.50,6.04,5.48,6.03,-6.03,-6.25,-0.53,-0.54,-0.54
108,5.47,6.04,5.47,6.05,-6.05,-6.28,-0.58,-0.58,-0.58
109,5.43,6.04,5.45,6.06,-6.06,-6.30,-0.64,-0.61,-0.61
110,5.40,6.04,5.44,6.08,-6.08,-6.32,-0.69,-0.65,-0.65
111,5.39,6.07,5.42,6.10,-6.10,-6.33,-0.72,-0.68,-0.68
112,5.43,6.14,5.41,6.12,-6.12,-6.35,-0.70,-0.72,-0.71
113,5.45,6.19,5.39,6.14,-6.14,-6.36,-0.70,-0.75,-0.75
114,5.41,6.18,5.38,6.16,-6.16,-6.38,-0.76,-0.78,-0.78
115,5.38,6.18,5.37,6.19,-6.19,-6.39,-0.81,-0.82,-0.81
117,5.34,6.20,5.35,6.21,-6.21,-6.41,-0.87,-0.85,-0.87
118,5.31,6.20,5.34,6.23,-6.23,-6.42,-0.92,-0.89,-0.90
119,5.30,6.22,5.32,6.25,-6.25,-6.43,-0.95,-0.93,-0.93
120,5.32,6.27,5.31,6.27,-6.27,-6.43,-0.95,-0.96,-0.96
121,5.32,6.30,5.29,6.29,-6.29,-6.44,-0.97,-0.99,-0.98
123,5.30,6.33,5.27,6.30,-6.30,-6.44,-1.01,-1.03,-1.04
124,5.27,6.33,5.26,6.32,-6.32,-6.45,-1.05,-1.06,-1.06
125,5.23,6.31,5.24,6.33,-6.33,-6.45,-1.10,-1.09,-1.09
126,5.19,6.30,5.21,6.34,-6.34,-6.45,-1.15,-1.12,-1.11
128,5.21,6.37,5.19,6.34,-6.34,-6.45,-1.14,-1.15,-1.16
129,5.19,6.37,5.17,6.35,-6.35,-6.45,-1.16,-1.18,-1.19
130,5.15,6.35,5.14,6.35,-6.35,-6.44,-1.21,-1.21,-1.21
131,5.11,6.34,5.12,6.36,-6.36,-6.44,-1.25,-1.24,-1.23
133,5.10,6.37,5.10,6.37,-6.37,-6.43,-1.27,-1.27,-1.27
134,5.06,6.35,5.08,6.37,-6.37,-6.43,-1.32,-1.30,-1.30
135,5.04,6.35,5.05,6.38,-6.38,-6.42,-1.34,-1.32,-1.32
137,5.06,6.41,5.03,6.38,-6.38,-6.41,-1.33,-1.35,-1.36
138,5.03,6.40,5.01,6.39,-6.39,-6.40,-1.36,-1.38,-1.38
140,5.01,6.42,4.98,6.39,-6.39,-6.39,-1.38,-1.40,-1.41
141,4.97,6.40,4.95,6.38,-6.38,-6.38,-1.42,-1.43,-1.43
142,4.93,6.37,4.93,6.38,-6.38,-6.38,-1.46,-1.45,-1.45
144,4.89,6.37,4.90,6.38,-6.38,-6.36,-1.49,-1.48,-1.48
145,4.85,6.34,4.88,6.38,-6.38,-6.36,-1.53,-1.50,-1.50
147,4.83,6.35,4.85,6.38,-6.38,-6.34,-1.56,-1.53,-1.53
148,4.83,6.37,4.83,6.38,-6.38,-6.33,-1.56,-1.55,-1.55
150,4.85,6.42,4.81,6.38,-6.38,-6.32,-1.54,-1.57,-1.57
151,4.81,6.39,4.79,6.39,-6.39,-6.31,-1.58,-1.59,-1.59
153,4.79,6.40,4.77,6.38,-6.38,-6.30,-1.60,-1.61,-1.62
154,4.77,6.39,4.75,6.38,-6.38,-6.30,-1.61,-1.63,-1.63
156,4.73,6.38,4.72,6.37,-6.37,-6.29,-1.64,-1.65,-1.65
157,4.69,6.35,4.69,6.36,-6.36,-6.28,-1.67,-1.67,-1.67
159,4.65,6.34,4.66,6.35,-6.35,-6.28,-1.70,-1.69,-1.69
160,4.61,6.31,4.63,6.33,-6.33,-6.27,-1.73,-1.71,-1.70
162,4.60,6.32,4.60,6.32,-6.32,-6.27,-1.73,-1.72,-1.72
164,4.57,6.31,4.57,6.31,-6.31,-6.27,-1.75,-1.74,-1.75
165,4.54,6.29,4.54,6.30,-6.30,-6.27,-1.77,-1.76,-1.76
167,4.54,6.31,4.52,6.29,-6.29,-6.26,-1.76,-1.77,-1.78
169,4.50,6.29,4.49,6.28,-6.28,-6.25,-1.78,-1.79,-1.79
170,4.47,6.27,4.46,6.26,-6.26,-6.25,-1.80,-1.81,-1.80
172,4.43,6.25,4.43,6.25,-6.25,-6.23,-1.82,-1.82,-1.82
174,4.39,6.22,4.39,6.23,-6.23,-6.20,-1.84,-1.83,-1.84
175,4.36,6.20,4.36,6.20,-6.20,-6.19,-1.85,-1.85,-1.85
177,4.32,6.18,4.32,6.18,-6.18,-6.15,-1.86,-1.86,-1.86
179,4.29,6.16,4.28,6.15,-6.15,-6.10,-1.87,-1.87,-1.88
181,4.25,6.13,4.24,6.12,-6.12,-6.05,-1.88,-1.89,-1.89
183,4.19,6.09,4.19,6.09,-6.09,-6.00,-1.91,-1.90,-1.90
184,4.15,6.05,4.15,6.06,-6.06,-5.97,-1.91,-1.91,-1.91
186,4.10,6.02,4.10,6.02,-6.02,-5.92,-1.93,-1.92,-1.92
188,4.06,5.99,4.05,5.99,-5.99,-5.87,-1.93,-1.93,-1.93
190,4.00,5.94,4.01,5.95,-5.95,-5.82,-1.96,-1.95,-1.95
192,3.98,5.93,3.96,5.91,-5.91,-5.78,-1.94,-1.96,-1.96
194,3.91,5.87,3.91,5.87,-5.87,-5.73,-1.97,-1.97,-1.97
196,3.87,5.84,3.85,5.83,-5.83,-5.69,-1.97,-1.98,-1.98
198,3.78,5.76,3.80,5.79,-5.79,-5.65,-2.01,-1.99,-1.99
200,3.75,5.74,3.75,5.74,-5.74,-5.62,-2.00,-2.00,-2.00
202,3.72,5.72,3.69,5.70,-5.70,-5.59,-1.98,-2.01,-2.01
204,3.66,5.67,3.64,5.65,-5.65,-5.55,-1.99,-2.01,-2.01
206,3.56,5.58,3.58,5.60,-5.60,-5.52,-2.05,-2.02,-2.02
208,3.50,5.52,3.52,5.55,-5.55,-5.49,-2.06,-2.03,-2.03
210,3.48,5.51,3.47,5.51,-5.51,-5.47,-2.03,-2.04,-2.04
212,3.43,5.47,3.41,5.46,-5.46,-5.44,-2.03,-2.04,-2.04
214,3.36,5.41,3.36,5.41,-5.41,-5.42,-2.05,-2.05,-2.05
216,3.31,5.36,3.30,5.36,-5.36,-5.39,-2.05,-2.06,-2.06
218,3.24,5.30,3.24,5.30,-5.30,-5.37,-2.07,-2.06,-2.06
221,3.19,5.26,3.18,5.25,-5.25,-5.34,-2.06,-2.07,-2.07
223,3.11,5.18,3.11,5.19,-5.19,-5.32,-2.09,-2.08,-2.08
225,3.02,5.10,3.05,5.13,-5.13,-5.30,-2.12,-2.08,-2.08
227,3.01,5.09,2.98,5.07,-5.07,-5.29,-2.06,-2.09,-2.09
229,2.94,5.03,2.90,5.00,-5.00,-5.27,-2.06,-2.10,-2.09
232,2.79,4.89,2.82,4.92,-4.92,-5.25,-2.14,-2.10,-2.10
234,2.75,4.85,2.74,4.84,-4.84,-5.23,-2.10,-2.11,-2.11
236,2.66,4.77,2.65,4.76,-4.76,-5.22,-2.10,-2.11,-2.11
239,2.55,4.66,2.55,4.67,-4.67,-5.20,-2.13,-2.12,-2.12
241,2.47,4.59,2.46,4.58,-4.58,-5.19,-2.11,-2.12,-2.12
244,2.33,4.45,2.35,4.48,-4.48,-5.17,-2.15,-2.13,-2.13
246,2.24,4.37,2.24,4.37,-4.37,-5.16,-2.14,-2.13,-2.13
248,2.17,4.30,2.13,4.26,-4.26,-5.15,-2.10,-2.13,-2.13
251,2.03,4.16,2.00,4.14,-4.14,-5.14,-2.12,-2.14,-2.14
253,1.92,4.06,1.88,4.02,-4.02,-5.13,-2.10,-2.14,-2.14
256,1.77,3.91,1.75,3.89,-3.89,-5.12,-2.13,-2.15,-2.15
259,1.63,3.78,1.62,3.77,-3.77,-5.12,-2.14,-2.15,-2.15
261,1.54,3.69,1.50,3.65,-3.65,-5.11,-2.12,-2.15,-2.15
264,1.41,3.56,1.40,3.55,-3.55,-5.10,-2.15,-2.16,-2.16
266,1.36,3.51,1.33,3.49,-3.49,-5.10,-2.13,-2.16,-2.16
269,1.27,3.43,1.30,3.47,-3.47,-5.09,-2.20,-2.16,-2.16
272,1.31,3.47,1.33,3.50,-3.50,-5.09,-2.20,-2.17,-2.17
274,1.31,3.47,1.43,3.60,-3.60,-5.09,-2.29,-2.17,-2.17
277,1.48,3.65,1.59,3.76,-3.76,-5.08,-2.29,-2.17,-2.17
280,1.71,3.88,1.81,3.99,-3.99,-5.08,-2.28,-2.18,-2.18
283,2.03,4.20,2.09,4.26,-4.26,-5.08,-2.24,-2.18,-2.18
286,2.42,4.60,2.40,4.58,-4.58,-5.08,-2.16,-2.18,-2.18
288,2.70,4.88,2.73,4.91,-4.91,-5.08,-2.22,-2.18,-2.18
291,3.15,5.33,3.05,5.24,-5.24,-5.08,-2.09,-2.19,-2.18
294,3.50,5.68,3.36,5.54,-5.54,-5.08,-2.05,-2.19,-2.19
297,3.71,5.89,3.62,5.81,-5.81,-5.08,-2.10,-2.19,-2.19
300,3.90,6.09,3.83,6.02,-6.02,-5.09,-2.13,-2.19,-2.19
303,4.03,6.22,4.00,6.19,-6.19,-5.09,-2.16,-2.19,-2.19
306,4.12,6.31,4.11,6.30,-6.30,-5.09,-2.19,-2.20,-2.20
309,4.18,6.37,4.17,6.37,-6.37,-5.09,-2.20,-2.20,-2.20
312,4.20,6.39,4.21,6.41,-6.41,-5.09,-2.21,-2.20,-2.20
316,4.20,6.40,4.21,6.41,-6.41,-5.10,-2.22,-2.20,-2.20
319,4.15,6.35,4.19,6.39,-6.39,-5.10,-2.25,-2.20,-2.20
322,4.13,6.33,4.16,6.36,-6.36,-5.10,-2.24,-2.20,-2.20
325,4.10,6.30,4.11,6.32,-6.32,-5.10,-2.22,-2.21,-2.21
328,4.06,6.26,4.05,6.26,-6.26,-5.10,-2.21,-2.21,-2.21
332,4.02,6.22,3.99,6.19,-6.19,-5.11,-2.18,-2.21,-2.21
335,3.95,6.16,3.91,6.12,-6.12,-5.11,-2.17,-2.21,-2.21
338,3.83,6.04,3.82,6.03,-6.03,-5.10,-2.21,-2.21,-2.21
342,3.72,5.93,3.72,5.94,-5.94,-5.10,-2.22,-2.21,-2.21
345,3.63,5.84,3.62,5.84,-5.84,-5.10,-2.21,-2.21,-2.21
349,3.49,5.70,3.52,5.74,-5.74,-5.10,-2.25,-2.22,-2.22
352,3.45,5.66,3.42,5.64,-5.64,-5.09,-2.19,-2.22,-2.22
356,3.29,5.50,3.32,5.54,-5.54,-5.09,-2.26,-2.22,-2.22
359,3.23,5.44,3.23,5.45,-5.45,-5.08,-2.22,-2.22,-2.22
363,3.14,5.36,3.14,5.36,-5.36,-5.07,-2.22,-2.22,-2.22
366,3.05,5.27,3.05,5.27,-5.27,-5.07,-2.23,-2.22,-2.22
370,2.99,5.21,2.97,5.19,-5.19,-5.05,-2.21,-2.22,-2.22
374,2.86,5.08,2.89,5.11,-5.11,-5.04,-2.26,-2.22,-2.22
377,2.84,5.06,2.80,5.03,-5.03,-5.03,-2.19,-2.23,-2.23
381,2.72,4.94,2.72,4.95,-4.95,-5.01,-2.23,-2.23,-2.23
385,2.68,4.90,2.63,4.86,-4.86,-4.99,-2.18,-2.23,-2.23
389,2.56,4.79,2.54,4.77,-4.77,-4.97,-2.22,-2.23,-2.23
393,2.46,4.69,2.45,4.69,-4.69,-4.95,-2.23,-2.23,-2.23
397,2.36,4.59,2.37,4.60,-4.60,-4.93,-2.25,-2.23,-2.23
401,2.25,4.48,2.28,4.52,-4.52,-4.90,-2.27,-2.23,-2.23
405,2.16,4.39,2.21,4.44,-4.44,-4.87,-2.29,-2.24,-2.24
409,2.15,4.38,2.13,4.37,-4.37,-4.84,-2.22,-2.24,-2.24
413,2.12,4.35,2.06,4.30,-4.30,-4.81,-2.19,-2.24,-2.24
417,2.00,4.23,2.00,4.24,-4.24,-4.78,-2.24,-2.24,-2.24
421,1.96,4.19,1.94,4.18,-4.18,-4.74,-2.22,-2.24,-2.24
425,1.89,4.12,1.88,4.12,-4.12,-4.70,-2.23,-2.24,-2.24
430,1.81,4.04,1.83,4.06,-4.06,-4.66,-2.26,-2.24,-2.24
434,1.77,4.00,1.77,4.01,-4.01,-4.62,-2.24,-2.23,-2.23
438,1.74,3.97,1.73,3.96,-3.96,-4.57,-2.22,-2.23,-2.23
443,1.68,3.90,1.69,3.92,-3.92,-4.52,-2.24,-2.23,-2.23
447,1.66,3.88,1.65,3.88,-3.88,-4.48,-2.22,-2.23,-2.23
451,1.64,3.86,1.62,3.84,-3.84,-4.43,-2.21,-2.22,-2.22
456,1.58,3.79,1.60,3.81,-3.81,-4.38,-2.24,-2.22,-2.22
460,1.58,3.79,1.58,3.79,-3.79,-4.33,-2.21,-2.21,-2.21
465,1.59,3.79,1.57,3.77,-3.77,-4.27,-2.19,-2.20,-2.20
470,1.56,3.75,1.56,3.76,-3.76,-4.21,-2.20,-2.20,-2.20
474,1.55,3.73,1.56,3.74,-3.74,-4.16,-2.20,-2.19,-2.19
479,1.57,3.74,1.56,3.74,-3.74,-4.09,-2.17,-2.18,-2.18
484,1.54,3.70,1.57,3.73,-3.73,-4.03,-2.20,-2.17,-2.17
489,1.61,3.76,1.57,3.73,-3.73,-3.97,-2.12,-2.15,-2.15
494,1.58,3.72,1.58,3.72,-3.72,-3.90,-2.15,-2.14,-2.14
499,1.58,3.70,1.59,3.72,-3.72,-3.84,-2.14,-2.13,-2.13
504,1.63,3.74,1.60,3.71,-3.71,-3.77,-2.08,-2.11,-2.11
509,1.59,3.68,1.60,3.70,-3.70,-3.71,-2.11,-2.09,-2.09
514,1.61,3.68,1.60,3.68,-3.68,-3.64,-2.08,-2.08,-2.08
519,1.60,3.65,1.60,3.66,-3.66,-3.58,-2.06,-2.06,-2.06
524,1.58,3.61,1.59,3.63,-3.63,-3.51,-2.05,-2.04,-2.04
529,1.60,3.61,1.57,3.59,-3.59,-3.45,-1.99,-2.02,-2.02
535,1.55,3.54,1.54,3.54,-3.54,-3.37,-1.99,-2.00,-2.00
540,1.52,3.49,1.50,3.48,-3.48,-3.31,-1.96,-1.97,-1.97
545,1.48,3.43,1.45,3.41,-3.41,-3.24,-1.93,-1.95,-1.95
551,1.39,3.31,1.40,3.32,-3.32,-3.17,-1.94,-1.93,-1.93
556,1.36,3.26,1.33,3.23,-3.23,-3.11,-1.88,-1.90,-1.90
562,1.29,3.16,1.26,3.14,-3.14,-3.03,-1.85,-1.88,-1.88
568,1.18,3.03,1.19,3.04,-3.04,-2.96,-1.86,-1.85,-1.85
573,1.15,2.97,1.12,2.95,-2.95,-2.90,-1.80,-1.82,-1.82
579,1.04,2.83,1.07,2.86,-2.86,-2.83,-1.83,-1.79,-1.79
585,1.02,2.78,1.02,2.79,-2.79,-2.76,-1.78,-1.77,-1.77
591,0.95,2.68,1.00,2.74,-2.74,-2.69,-1.79,-1.74,-1.74
596,0.95,2.65,0.99,2.70,-2.70,-2.63,-1.76,-1.71,-1.71
602,0.97,2.64,1.01,2.68,-2.68,-2.56,-1.72,-1.68,-1.68
608,1.06,2.70,1.03,2.68,-2.68,-2.49,-1.62,-1.64,-1.64
615,1.09,2.70,1.06,2.68,-2.68,-2.42,-1.59,-1.61,-1.61
621,1.12,2.70,1.10,2.68,-2.68,-2.35,-1.57,-1.58,-1.58
627,1.15,2.69,1.14,2.68,-2.68,-2.29,-1.54,-1.55,-1.55
633,1.17,2.68,1.17,2.68,-2.68,-2.23,-1.51,-1.51,-1.51
639,1.21,2.68,1.18,2.66,-2.66,-2.16,-1.46,-1.48,-1.48
646,1.18,2.62,1.18,2.63,-2.63,-2.09,-1.45,-1.45,-1.45
652,1.20,2.61,1.17,2.58,-2.58,-2.03,-1.38,-1.41,-1.41
659,1.17,2.54,1.14,2.51,-2.51,-1.97,-1.35,-1.37,-1.37
665,1.08,2.41,1.09,2.43,-2.43,-1.91,-1.35,-1.34,-1.34
672,1.03,2.33,1.02,2.32,-2.32,-1.84,-1.30,-1.30,-1.30
679,0.92,2.18,0.94,2.21,-2.21,-1.78,-1.29,-1.27,-1.27
686,0.86,2.08,0.84,2.07,-2.07,-1.71,-1.22,-1.23,-1.23
692,0.79,1.98,0.74,1.93,-1.93,-1.66,-1.14,-1.19,-1.19
699,0.63,1.78,0.62,1.77,-1.77,-1.60,-1.15,-1.15,-1.15
706,0.54,1.65,0.50,1.61,-1.61,-1.54,-1.08,-1.12,-1.12
713,0.39,1.46,0.38,1.45,-1.45,-1.48,-1.07,-1.08,-1.08
721,0.26,1.29,0.26,1.30,-1.30,-1.41,-1.05,-1.04,-1.04
728,0.16,1.16,0.16,1.17,-1.17,-1.35,-1.01,-1.00,-1.00
735,0.09,1.05,0.09,1.05,-1.05,-1.30,-0.97,-0.96,-0.96
742,0.02,0.94,0.05,0.97,-0.97,-1.24,-0.96,-0.93,-0.93
750,-0.01,0.87,0.04,0.93,-0.93,-1.18,-0.95,-0.89,-0.89
757,0.02,0.87,0.07,0.93,-0.93,-1.12,-0.91,-0.85,-0.85
765,0.09,0.90,0.14,0.96,-0.96,-1.06,-0.87,-0.81,-0.81
773,0.21,0.98,0.24,1.02,-1.02,-1.00,-0.82,-0.78,-0.78
780,0.37,1.11,0.37,1.11,-1.11,-0.95,-0.74,-0.74,-0.74
788,0.53,1.23,0.50,1.21,-1.21,-0.90,-0.69,-0.71,-0.71
796,0.72,1.39,0.64,1.32,-1.32,-0.84,-0.60,-0.67,-0.67
804,0.83,1.46,0.78,1.41,-1.41,-0.78,-0.59,-0.64,-0.64
812,0.92,1.52,0.90,1.50,-1.50,-0.73,-0.58,-0.60,-0.60
820,1.00,1.56,1.00,1.56,-1.56,-0.67,-0.57,-0.57,-0.57
828,1.10,1.63,1.07,1.61,-1.61,-0.62,-0.51,-0.54,-0.54
837,1.15,1.65,1.13,1.63,-1.63,-0.56,-0.48,-0.50,-0.50
845,1.16,1.63,1.16,1.63,-1.63,-0.50,-0.48,-0.47,-0.47
853,1.19,1.63,1.17,1.61,-1.61,-0.45,-0.43,-0.44,-0.44
862,1.19,1.60,1.17,1.58,-1.58,-0.39,-0.40,-0.41,-0.41
871,1.13,1.51,1.16,1.54,-1.54,-0.34,-0.41,-0.38,-0.38
879,1.10,1.45,1.13,1.48,-1.48,-0.28,-0.39,-0.35,-0.35
888,1.09,1.41,1.09,1.42,-1.42,-0.23,-0.33,-0.32,-0.32
897,1.02,1.31,1.04,1.34,-1.34,-0.17,-0.32,-0.30,-0.30
906,1.00,1.26,0.97,1.24,-1.24,-0.11,-0.25,-0.27,-0.27
915,0.92,1.16,0.89,1.13,-1.13,-0.06,-0.22,-0.24,-0.24
924,0.86,1.07,0.80,1.01,-1.01,-0.00,-0.16,-0.21,-0.21
933,0.74,0.92,0.69,0.88,-0.88,0.05,-0.14,-0.19,-0.19
943,0.62,0.77,0.57,0.73,-0.73,0.11,-0.12,-0.16,-0.16
952,0.46,0.59,0.45,0.59,-0.59,0.17,-0.13,-0.13,-0.13
962,0.26,0.36,0.34,0.45,-0.45,0.23,-0.19,-0.11,-0.11
971,0.15,0.23,0.23,0.31,-0.31,0.29,-0.17,-0.08,-0.08
981,0.10,0.15,0.14,0.19,-0.19,0.35,-0.10,-0.05,-0.05
991,0.05,0.07,0.06,0.09,-0.09,0.41,-0.04,-0.03,-0.03
1001,-0.00,-0.01,-0.01,-0.01,0.01,0.48,0.01,0.00,0.00
1011,-0.04,-0.07,-0.07,-0.10,0.10,0.54,0.06,0.03,0.03
1021,-0.13,-0.19,-0.14,-0.19,0.19,0.61,0.06,0.05,0.05
1031,-0.15,-0.24,-0.21,-0.29,0.29,0.67,0.14,0.08,0.08
1041,-0.26,-0.37,-0.29,-0.40,0.40,0.74,0.13,0.11,0.11
1052,-0.35,-0.49,-0.38,-0.51,0.51,0.81,0.16,0.14,0.14
1062,-0.47,-0.64,-0.47,-0.64,0.64,0.88,0.17,0.17,0.17
1073,-0.60,-0.80,-0.58,-0.78,0.78,0.96,0.17,0.19,0.19
1084,-0.70,-0.93,-0.70,-0.92,0.92,1.04,0.22,0.22,0.22
1094,-0.82,-1.08,-0.82,-1.07,1.07,1.12,0.25,0.25,0.25
1105,-0.94,-1.23,-0.95,-1.23,1.23,1.21,0.28,0.28,0.28
1116,-1.07,-1.39,-1.07,-1.39,1.39,1.30,0.31,0.31,0.31
1128,-1.21,-1.56,-1.20,-1.54,1.54,1.40,0.33,0.34,0.34
1139,-1.32,-1.70,-1.33,-1.70,1.70,1.50,0.38,0.37,0.37
1150,-1.44,-1.85,-1.46,-1.86,1.86,1.61,0.42,0.40,0.40
1162,-1.56,-2.00,-1.59,-2.02,2.02,1.73,0.46,0.44,0.44
1173,-1.70,-2.17,-1.71,-2.18,2.18,1.85,0.48,0.47,0.47
1185,-1.84,-2.34,-1.84,-2.34,2.34,1.99,0.49,0.50,0.50
1197,-1.97,-2.51,-1.96,-2.49,2.49,2.13,0.52,0.53,0.53
1209,-2.09,-2.66,-2.07,-2.64,2.64,2.29,0.54,0.56,0.56
1221,-2.18,-2.78,-2.18,-2.78,2.78,2.45,0.59,0.60,0.60
1233,-2.25,-2.89,-2.28,-2.91,2.91,2.63,0.65,0.63,0.63
1246,-2.38,-3.05,-2.36,-3.03,3.03,2.82,0.64,0.66,0.66
1258,-2.45,-3.15,-2.44,-3.14,3.14,3.01,0.68,0.70,0.70
1271,-2.50,-3.24,-2.51,-3.24,3.24,3.21,0.74,0.73,0.73
1283,-2.57,-3.34,-2.57,-3.34,3.34,3.39,0.77,0.77,0.77
1296,-2.61,-3.42,-2.63,-3.43,3.43,3.57,0.82,0.80,0.80
1309,-2.67,-3.51,-2.69,-3.52,3.52,3.72,0.85,0.84,0.84
1322,-2.71,-3.59,-2.73,-3.61,3.61,3.83,0.89,0.87,0.87
1335,-2.75,-3.66,-2.77,-3.68,3.68,3.91,0.93,0.91,0.91
1349,-2.79,-3.74,-2.81,-3.75,3.75,3.94,0.96,0.95,0.95
1362,-2.81,-3.80,-2.82,-3.81,3.81,3.93,0.99,0.98,0.98
1376,-2.85,-3.87,-2.83,-3.85,3.85,3.88,0.99,1.02,1.02
1390,-2.83,-3.89,-2.81,-3.87,3.87,3.82,1.03,1.06,1.06
1404,-2.79,-3.89,-2.77,-3.86,3.86,3.74,1.07,1.10,1.10
1418,-2.76,-3.90,-2.71,-3.84,3.84,3.65,1.07,1.13,1.13
1432,-2.59,-3.77,-2.62,-3.79,3.79,3.57,1.20,1.17,1.17
1446,-2.54,-3.76,-2.52,-3.73,3.73,3.50,1.18,1.21,1.21
1461,-2.39,-3.65,-2.40,-3.65,3.65,3.44,1.26,1.25,1.25
1475,-2.30,-3.60,-2.27,-3.57,3.57,3.39,1.26,1.29,1.29
1490,-2.12,-3.46,-2.15,-3.48,3.48,3.34,1.35,1.33,1.33
1505,-2.00,-3.38,-2.03,-3.40,3.40,3.31,1.39,1.37,1.37
1520,-1.89,-3.31,-1.92,-3.33,3.33,3.29,1.43,1.41,1.41
1535,-1.78,-3.24,-1.82,-3.28,3.28,3.27,1.49,1.46,1.46
1550,-1.71,-3.21,-1.74,-3.24,3.24,3.27,1.53,1.50,1.50
1566,-1.68,-3.22,-1.69,-3.23,3.23,3.27,1.54,1.54,1.54
1582,-1.65,-3.24,-1.65,-3.23,3.23,3.28,1.58,1.58,1.58
1597,-1.63,-3.26,-1.63,-3.26,3.26,3.29,1.62,1.63,1.63
1613,-1.61,-3.28,-1.63,-3.30,3.30,3.30,1.68,1.67,1.67
1629,-1.61,-3.33,-1.64,-3.35,3.35,3.32,1.74,1.71,1.71
1646,-1.67,-3.43,-1.66,-3.42,3.42,3.34,1.74,1.76,1.76
1662,-1.67,-3.48,-1.68,-3.49,3.49,3.36,1.81,1.80,1.80
1679,-1.67,-3.52,-1.71,-3.56,3.56,3.39,1.88,1.85,1.85
1696,-1.70,-3.60,-1.73,-3.63,3.63,3.41,1.92,1.89,1.90
1713,-1.77,-3.72,-1.74,-3.68,3.68,3.43,1.91,1.94,1.94
1730,-1.75,-3.74,-1.73,-3.72,3.72,3.45,1.97,1.99,1.99
1747,-1.73,-3.77,-1.70,-3.74,3.74,3.47,2.01,2.04,2.04
1764,-1.69,-3.78,-1.65,-3.73,3.73,3.48,2.04,2.09,2.09
1782,-1.59,-3.73,-1.56,-3.70,3.70,3.49,2.10,2.14,2.14
1800,-1.45,-3.65,-1.45,-3.64,3.64,3.49,2.18,2.19,2.19
1818,-1.31,-3.56,-1.31,-3.55,3.55,3.49,2.24,2.24,2.25
1836,-1.15,-3.46,-1.15,-3.45,3.45,3.47,2.29,2.30,2.30
