frequency,raw,error,smoothed,error_smoothed,equalization,parametric_eq,fixed_band_eq,equalized_raw,equalized_smoothed,target
20.00,-3.99,-7.20,-3.99,-7.20,6.00,6.02,2.76,2.01,2.01,3.21
20.20,-3.95,-7.14,-3.95,-7.14,6.00,6.01,2.84,2.05,2.05,3.19
20.40,-3.91,-7.08,-3.90,-7.08,6.00,6.01,2.92,2.09,2.10,3.17
20.61,-3.87,-7.03,-3.87,-7.03,6.00,6.01,3.01,2.13,2.13,3.16
20.81,-3.84,-6.98,-3.83,-6.97,6.00,6.01,3.09,2.16,2.17,3.14
21.02,-3.80,-6.93,-3.81,-6.94,6.00,6.01,3.18,2.20,2.19,3.13
21.23,-3.80,-6.91,-3.80,-6.91,6.00,6.01,3.27,2.20,2.20,3.11
21.44,-3.80,-6.90,-3.79,-6.89,6.00,6.00,3.37,2.20,2.21,3.10
21.66,-3.79,-6.88,-3.80,-6.88,6.00,6.00,3.46,2.21,2.20,3.09
21.87,-3.79,-6.85,-3.78,-6.85,6.00,6.00,3.56,2.21,2.22,3.07
22.09,-3.76,-6.81,-3.74,-6.80,6.00,6.00,3.66,2.24,2.26,3.06
22.31,-3.68,-6.72,-3.68,-6.73,6.00,5.99,3.76,2.32,2.32,3.05
22.54,-3.60,-6.63,-3.58,-6.62,6.00,5.99,3.87,2.40,2.42,3.04
22.76,-3.52,-6.54,-3.51,-6.53,6.00,5.99,3.98,2.48,2.49,3.02
22.99,-3.44,-6.45,-3.50,-6.51,6.00,5.99,4.09,2.56,2.50,3.01
23.22,-3.56,-6.56,-3.55,-6.55,6.00,5.99,4.21,2.44,2.45,3.00
23.45,-3.68,-6.68,-3.68,-6.67,6.00,5.98,4.32,2.32,2.32,3.00
23.69,-3.81,-6.80,-3.82,-6.81,6.00,5.98,4.45,2.19,2.18,2.99
23.92,-3.93,-6.92,-3.89,-6.88,6.00,5.98,4.57,2.07,2.11,2.99
24.16,-3.91,-6.90,-3.89,-6.88,6.00,5.98,4.69,2.09,2.11,2.99
24.40,-3.81,-6.80,-3.83,-6.81,6.00,5.97,4.82,2.19,2.17,2.99
24.65,-3.72,-6.71,-3.72,-6.71,6.00,5.97,4.95,2.28,2.28,2.99
24.89,-3.63,-6.61,-3.63,-6.62,6.00,5.97,5.08,2.37,2.37,2.99
25.14,-3.57,-6.55,-3.57,-6.56,6.00,5.96,5.21,2.43,2.43,2.99
25.39,-3.53,-6.51,-3.52,-6.51,6.00,5.96,5.34,2.47,2.48,2.99
25.65,-3.50,-6.48,-3.49,-6.48,6.00,5.96,5.48,2.50,2.51,2.98
25.91,-3.46,-6.45,-3.47,-6.46,6.00,5.95,5.61,2.54,2.53,2.99
26.16,-3.46,-6.45,-3.46,-6.45,6.00,5.95,5.75,2.54,2.54,2.99
26.43,-3.47,-6.46,-3.46,-6.45,6.00,5.95,5.88,2.53,2.54,2.99
26.69,-3.48,-6.47,-3.47,-6.46,6.00,5.94,6.01,2.52,2.53,2.99
26.96,-3.49,-6.48,-3.51,-6.50,6.00,5.94,6.15,2.51,2.49,2.99
27.23,-3.58,-6.56,-3.59,-6.57,6.00,5.94,6.28,2.42,2.41,2.99
27.50,-3.69,-6.67,-3.71,-6.70,6.00,5.93,6.40,2.31,2.29,2.99
27.77,-3.80,-6.78,-3.79,-6.77,6.00,5.93,6.52,2.20,2.21,2.98
28.05,-3.84,-6.82,-3.76,-6.74,6.00,5.93,6.64,2.16,2.24,2.98
28.33,-3.59,-6.56,-3.59,-6.56,6.00,5.92,6.76,2.41,2.41,2.97
28.62,-3.34,-6.31,-3.35,-6.32,6.00,5.92,6.87,2.66,2.65,2.97
28.90,-3.10,-6.07,-3.15,-6.12,6.00,5.91,6.96,2.90,2.85,2.97
29.19,-3.06,-6.03,-3.09,-6.05,6.00,5.91,7.06,2.94,2.91,2.97
29.48,-3.15,-6.11,-3.13,-6.09,6.00,5.91,7.14,2.85,2.87,2.96
29.78,-3.23,-6.19,-3.21,-6.18,6.00,5.90,7.22,2.77,2.79,2.96
30.08,-3.29,-6.25,-3.27,-6.23,6.00,5.90,7.28,2.71,2.73,2.96
30.38,-3.29,-6.25,-3.28,-6.24,6.00,5.89,7.34,2.71,2.72,2.96
30.68,-3.29,-6.24,-3.29,-6.24,6.00,5.89,7.38,2.71,2.71,2.95
30.99,-3.29,-6.23,-3.32,-6.27,6.00,5.88,7.42,2.71,2.68,2.95
31.30,-3.41,-6.34,-3.43,-6.37,6.00,5.88,7.44,2.60,2.57,2.93
31.61,-3.54,-6.47,-3.54,-6.47,6.00,5.87,7.46,2.46,2.46,2.93
31.93,-3.66,-6.59,-3.59,-6.51,6.00,5.87,7.45,2.34,2.41,2.93
32.24,-3.53,-6.44,-3.51,-6.43,6.00,5.86,7.45,2.47,2.49,2.92
32.57,-3.33,-6.24,-3.34,-6.26,5.99,5.85,7.42,2.66,2.65,2.91
32.89,-3.13,-6.04,-3.17,-6.08,5.99,5.85,7.40,2.87,2.82,2.91
33.22,-3.07,-5.98,-3.08,-5.99,5.99,5.84,7.36,2.92,2.91,2.91
33.55,-3.08,-5.98,-3.06,-5.97,5.99,5.84,7.31,2.91,2.93,2.91
33.89,-3.09,-6.00,-3.08,-5.99,5.99,5.83,7.25,2.90,2.91,2.91
34.23,-3.09,-6.00,-3.09,-6.00,5.99,5.82,7.19,2.90,2.90,2.91
34.57,-3.09,-5.99,-3.09,-6.00,5.99,5.82,7.12,2.90,2.90,2.91
34.92,-3.09,-6.00,-3.09,-6.00,5.99,5.81,7.05,2.90,2.90,2.91
35.27,-3.09,-6.00,-3.08,-5.99,6.00,5.80,6.97,2.91,2.92,2.91
35.62,-3.09,-6.00,-3.08,-6.00,6.01,5.80,6.89,2.92,2.93,2.92
35.97,-3.09,-6.00,-3.13,-6.04,6.02,5.79,6.80,2.93,2.89,2.91
36.33,-3.22,-6.13,-3.25,-6.16,6.02,5.78,6.72,2.80,2.77,2.91
36.70,-3.37,-6.27,-3.35,-6.26,6.00,5.77,6.63,2.63,2.65,2.91
37.06,-3.46,-6.36,-3.37,-6.27,5.98,5.76,6.54,2.52,2.61,2.90
37.43,-3.27,-6.15,-3.28,-6.17,5.95,5.76,6.45,2.68,2.67,2.89
37.81,-3.08,-5.96,-3.12,-6.00,5.91,5.75,6.36,2.83,2.78,2.88
38.19,-2.97,-5.84,-2.98,-5.85,5.86,5.74,6.27,2.89,2.89,2.87
38.57,-2.92,-5.77,-2.91,-5.76,5.82,5.73,6.19,2.90,2.91,2.85
38.95,-2.88,-5.72,-2.88,-5.72,5.77,5.72,6.10,2.89,2.89,2.84
39.34,-2.88,-5.70,-2.88,-5.70,5.72,5.71,6.02,2.84,2.85,2.82
39.74,-2.88,-5.70,-2.88,-5.69,5.68,5.70,5.94,2.80,2.80,2.82
40.14,-2.89,-5.69,-2.89,-5.69,5.66,5.69,5.87,2.77,2.77,2.80
40.54,-2.89,-5.68,-2.89,-5.68,5.66,5.68,5.79,2.77,2.77,2.79
40.94,-2.89,-5.67,-2.88,-5.66,5.70,5.67,5.72,2.81,2.82,2.78
41.35,-2.89,-5.66,-2.88,-5.65,5.73,5.66,5.66,2.85,2.86,2.78
41.76,-2.89,-5.65,-2.91,-5.67,5.76,5.65,5.59,2.87,2.85,2.76
42.18,-2.96,-5.71,-3.02,-5.78,5.76,5.63,5.54,2.80,2.74,2.75
42.60,-3.13,-5.89,-3.13,-5.88,5.76,5.62,5.48,2.63,2.63,2.76
43.03,-3.27,-6.02,-3.15,-5.89,5.74,5.61,5.43,2.47,2.60,2.75
43.46,-3.06,-5.80,-3.06,-5.81,5.72,5.60,5.38,2.66,2.66,2.74
43.90,-2.84,-5.58,-2.92,-5.66,5.69,5.58,5.34,2.85,2.77,2.74
44.33,-2.79,-5.52,-2.80,-5.53,5.65,5.57,5.30,2.86,2.85,2.74
44.78,-2.79,-5.52,-2.77,-5.50,5.60,5.56,5.27,2.81,2.83,2.73
45.23,-2.79,-5.52,-2.78,-5.51,5.55,5.54,5.24,2.76,2.76,2.73
45.68,-2.79,-5.51,-2.79,-5.51,5.51,5.53,5.21,2.72,2.72,2.72
46.13,-2.79,-5.50,-2.79,-5.50,5.49,5.51,5.19,2.70,2.70,2.71
46.60,-2.79,-5.49,-2.79,-5.49,5.48,5.50,5.17,2.69,2.69,2.70
47.06,-2.79,-5.48,-2.79,-5.49,5.47,5.48,5.15,2.68,2.68,2.69
47.53,-2.79,-5.47,-2.79,-5.47,5.45,5.47,5.14,2.66,2.66,2.68
48.01,-2.79,-5.46,-2.77,-5.44,5.41,5.45,5.13,2.63,2.64,2.67
48.49,-2.74,-5.39,-2.74,-5.40,5.37,5.43,5.13,2.63,2.63,2.65
48.97,-2.69,-5.33,-2.69,-5.33,5.33,5.41,5.12,2.64,2.64,2.64
49.46,-2.64,-5.27,-2.64,-5.26,5.29,5.40,5.13,2.65,2.65,2.63
49.96,-2.59,-5.20,-2.60,-5.21,5.25,5.38,5.13,2.66,2.64,2.61
50.46,-2.59,-5.18,-2.59,-5.18,5.21,5.36,5.14,2.62,2.62,2.60
50.96,-2.59,-5.17,-2.58,-5.17,5.18,5.34,5.15,2.59,2.59,2.58
51.47,-2.59,-5.16,-2.59,-5.16,5.15,5.32,5.16,2.56,2.56,2.57
51.99,-2.59,-5.15,-2.59,-5.15,5.13,5.30,5.17,2.54,2.54,2.56
52.51,-2.59,-5.13,-2.59,-5.13,5.11,5.28,5.18,2.52,2.52,2.54
53.03,-2.59,-5.12,-2.59,-5.12,5.10,5.25,5.20,2.51,2.51,2.53
53.56,-2.59,-5.10,-2.59,-5.10,5.10,5.23,5.21,2.51,2.51,2.51
54.10,-2.59,-5.09,-2.59,-5.09,5.11,5.21,5.23,2.52,2.52,2.50
54.64,-2.59,-5.07,-2.58,-5.06,5.12,5.18,5.24,2.53,2.54,2.48
55.18,-2.59,-5.05,-2.57,-5.04,5.12,5.16,5.26,2.53,2.55,2.47
55.74,-2.59,-5.04,-2.65,-5.10,5.11,5.13,5.27,2.52,2.46,2.45
56.29,-2.70,-5.13,-2.75,-5.18,5.09,5.11,5.28,2.39,2.34,2.43
56.86,-2.91,-5.32,-2.77,-5.18,5.06,5.08,5.29,2.16,2.29,2.41
57.42,-2.76,-5.15,-2.71,-5.11,5.03,5.05,5.29,2.27,2.31,2.39
58.00,-2.48,-4.86,-2.60,-4.98,4.99,5.02,5.30,2.51,2.39,2.39
58.58,-2.48,-4.84,-2.48,-4.84,4.94,5.00,5.30,2.46,2.46,2.37
59.16,-2.48,-4.82,-2.45,-4.80,4.88,4.97,5.29,2.40,2.43,2.34
59.76,-2.48,-4.80,-2.48,-4.80,4.82,4.94,5.28,2.34,2.34,2.32
60.35,-2.48,-4.78,-2.48,-4.78,4.76,4.90,5.27,2.28,2.28,2.30
60.96,-2.48,-4.76,-2.48,-4.76,4.73,4.87,5.25,2.25,2.25,2.28
61.57,-2.48,-4.73,-2.48,-4.73,4.72,4.84,5.23,2.25,2.25,2.26
62.18,-2.48,-4.71,-2.48,-4.71,4.73,4.81,5.20,2.25,2.26,2.23
62.80,-2.48,-4.68,-2.46,-4.66,4.73,4.77,5.16,2.25,2.28,2.20
63.43,-2.48,-4.65,-2.50,-4.68,4.71,4.74,5.12,2.23,2.21,2.17
64.07,-2.50,-4.65,-2.60,-4.74,4.67,4.70,5.07,2.17,2.08,2.15
64.71,-2.74,-4.85,-2.62,-4.74,4.64,4.66,5.02,1.90,2.01,2.11
65.35,-2.68,-4.76,-2.59,-4.67,4.60,4.62,4.97,1.92,2.01,2.08
66.01,-2.38,-4.42,-2.50,-4.55,4.56,4.58,4.90,2.18,2.05,2.04
66.67,-2.38,-4.39,-2.39,-4.40,4.49,4.55,4.84,2.11,2.10,2.02
67.33,-2.38,-4.35,-2.35,-4.33,4.40,4.50,4.77,2.02,2.05,1.98
68.01,-2.38,-4.32,-2.38,-4.32,4.29,4.46,4.69,1.91,1.91,1.95
68.69,-2.38,-4.28,-2.41,-4.31,4.20,4.42,4.61,1.82,1.79,1.90
69.37,-2.38,-4.25,-2.35,-4.22,4.14,4.38,4.53,1.76,1.79,1.87
70.07,-2.35,-4.18,-2.23,-4.06,4.12,4.33,4.45,1.77,1.89,1.83
70.77,-2.03,-3.82,-2.12,-3.92,4.11,4.29,4.36,2.08,1.99,1.80
71.48,-2.05,-3.81,-2.14,-3.90,4.09,4.24,4.27,2.04,1.95,1.76
72.19,-2.28,-4.00,-2.30,-4.02,4.06,4.19,4.18,1.78,1.76,1.72
72.91,-2.61,-4.29,-2.52,-4.20,4.02,4.14,4.08,1.41,1.50,1.68
73.64,-2.65,-4.29,-2.57,-4.21,3.97,4.09,3.99,1.33,1.41,1.64
74.38,-2.47,-4.07,-2.46,-4.06,3.93,4.04,3.89,1.46,1.47,1.61
75.12,-2.18,-3.74,-2.29,-3.85,3.88,3.99,3.80,1.70,1.59,1.56
75.87,-2.18,-3.70,-2.18,-3.69,3.81,3.94,3.70,1.64,1.64,1.52
76.63,-2.18,-3.66,-2.15,-3.63,3.74,3.89,3.61,1.56,1.58,1.48
77.40,-2.18,-3.61,-2.18,-3.61,3.65,3.83,3.51,1.48,1.48,1.44
78.17,-2.18,-3.57,-2.18,-3.57,3.59,3.78,3.42,1.41,1.41,1.39
78.95,-2.18,-3.53,-2.17,-3.52,3.55,3.72,3.33,1.37,1.38,1.35
79.74,-2.18,-3.49,-2.18,-3.49,3.52,3.66,3.24,1.34,1.34,1.31
80.54,-2.21,-3.47,-2.28,-3.55,3.49,3.60,3.15,1.28,1.21,1.26
81.35,-2.34,-3.56,-2.32,-3.54,3.45,3.55,3.06,1.11,1.13,1.22
82.16,-2.46,-3.63,-2.30,-3.47,3.39,3.49,2.97,0.93,1.09,1.17
82.98,-2.11,-3.24,-2.22,-3.35,3.31,3.42,2.88,1.21,1.09,1.13
83.81,-2.08,-3.16,-2.12,-3.20,3.24,3.36,2.80,1.16,1.12,1.08
84.65,-2.08,-3.11,-2.05,-3.08,3.16,3.30,2.71,1.08,1.11,1.03
85.50,-2.08,-3.05,-2.08,-3.05,3.09,3.24,2.63,1.01,1.01,0.97
86.35,-2.08,-3.00,-2.08,-3.00,3.03,3.17,2.55,0.95,0.95,0.93
87.22,-2.08,-2.95,-2.07,-2.95,2.98,3.11,2.48,0.90,0.91,0.88
88.09,-2.08,-2.90,-2.06,-2.89,2.93,3.04,2.40,0.86,0.87,0.83
88.97,-2.08,-2.85,-2.13,-2.90,2.89,2.97,2.33,0.81,0.76,0.77
89.86,-2.15,-2.86,-2.20,-2.91,2.84,2.91,2.25,0.69,0.64,0.71
90.76,-2.34,-3.00,-2.21,-2.87,2.78,2.84,2.18,0.44,0.57,0.66
91.66,-2.17,-2.77,-2.17,-2.77,2.70,2.77,2.11,0.53,0.53,0.60
92.58,-2.01,-2.55,-2.07,-2.62,2.61,2.70,2.05,0.60,0.54,0.54
93.51,-1.97,-2.45,-1.97,-2.45,2.52,2.63,1.98,0.55,0.55,0.48
94.44,-1.97,-2.39,-1.96,-2.38,2.43,2.56,1.92,0.46,0.47,0.42
95.39,-1.98,-2.33,-1.97,-2.32,2.35,2.49,1.86,0.37,0.38,0.35
96.34,-1.98,-2.27,-1.97,-2.26,2.28,2.42,1.80,0.30,0.31,0.29
97.30,-1.98,-2.19,-1.97,-2.19,2.23,2.34,1.74,0.25,0.26,0.21
98.28,-1.99,-2.14,-2.00,-2.14,2.18,2.27,1.68,0.19,0.18,0.15
99.26,-2.03,-2.10,-2.09,-2.16,2.13,2.20,1.62,0.10,0.04,0.07
100.25,-2.18,-2.17,-2.16,-2.15,2.07,2.13,1.57,-0.11,-0.08,-0.00
101.25,-2.28,-2.20,-2.18,-2.09,2.00,2.05,1.51,-0.28,-0.18,-0.08
102.27,-2.08,-1.92,-2.13,-1.98,1.91,1.98,1.46,-0.17,-0.22,-0.16
103.29,-2.02,-1.79,-2.05,-1.81,1.83,1.90,1.41,-0.19,-0.21,-0.23
104.32,-1.99,-1.68,-1.99,-1.68,1.76,1.83,1.36,-0.23,-0.23,-0.31
105.37,-2.01,-1.62,-2.01,-1.62,1.69,1.75,1.31,-0.32,-0.31,-0.39
106.42,-2.04,-1.57,-2.02,-1.55,1.62,1.68,1.26,-0.41,-0.40,-0.47
107.48,-2.06,-1.51,-2.05,-1.51,1.56,1.61,1.22,-0.50,-0.49,-0.55
108.56,-2.09,-1.47,-2.14,-1.52,1.50,1.53,1.17,-0.59,-0.64,-0.61
109.64,-2.20,-1.51,-2.23,-1.54,1.45,1.46,1.13,-0.75,-0.78,-0.69
110.74,-2.37,-1.60,-2.25,-1.49,1.38,1.38,1.08,-0.98,-0.87,-0.77
111.85,-2.22,-1.39,-2.21,-1.38,1.31,1.31,1.04,-0.91,-0.90,-0.83
112.97,-2.05,-1.15,-2.13,-1.23,1.24,1.23,1.00,-0.81,-0.90,-0.90
114.10,-2.06,-1.10,-2.05,-1.09,1.16,1.16,0.95,-0.89,-0.89,-0.96
115.24,-2.06,-1.03,-2.04,-1.01,1.09,1.08,0.91,-0.96,-0.95,-1.03
116.39,-2.06,-0.97,-2.05,-0.96,1.02,1.01,0.87,-1.04,-1.02,-1.09
117.55,-2.05,-0.90,-2.05,-0.90,0.95,0.94,0.83,-1.10,-1.10,-1.15
118.73,-2.05,-0.84,-2.11,-0.91,0.87,0.86,0.79,-1.17,-1.24,-1.21
119.92,-2.16,-0.90,-2.16,-0.90,0.81,0.79,0.75,-1.35,-1.35,-1.26
121.12,-2.28,-0.96,-2.15,-0.83,0.74,0.72,0.71,-1.54,-1.41,-1.32
122.33,-2.05,-0.68,-2.09,-0.72,0.66,0.65,0.67,-1.39,-1.43,-1.37
123.55,-1.92,-0.50,-1.98,-0.56,0.58,0.58,0.63,-1.34,-1.40,-1.42
124.79,-1.91,-0.44,-1.89,-0.42,0.50,0.51,0.59,-1.41,-1.39,-1.47
126.03,-1.90,-0.38,-1.89,-0.37,0.43,0.44,0.55,-1.47,-1.46,-1.52
127.29,-1.90,-0.33,-1.89,-0.32,0.36,0.37,0.51,-1.53,-1.53,-1.57
128.57,-1.89,-0.27,-1.88,-0.26,0.31,0.30,0.47,-1.58,-1.57,-1.62
129.85,-1.89,-0.22,-1.90,-0.23,0.25,0.23,0.43,-1.64,-1.65,-1.67
131.15,-1.90,-0.18,-1.98,-0.26,0.20,0.16,0.40,-1.70,-1.79,-1.72
132.46,-2.06,-0.29,-2.01,-0.24,0.14,0.09,0.36,-1.92,-1.86,-1.76
133.79,-2.11,-0.30,-1.97,-0.16,0.08,0.03,0.32,-2.03,-1.89,-1.81
135.12,-1.77,0.09,-1.89,-0.03,0.01,-0.04,0.28,-1.76,-1.88,-1.86
136.48,-1.76,0.14,-1.78,0.12,-0.06,-0.10,0.24,-1.82,-1.84,-1.90
137.84,-1.76,0.19,-1.73,0.22,-0.12,-0.17,0.20,-1.88,-1.85,-1.95
139.22,-1.76,0.24,-1.75,0.24,-0.19,-0.23,0.16,-1.95,-1.94,-2.00
140.61,-1.76,0.28,-1.75,0.30,-0.26,-0.29,0.12,-2.01,-2.00,-2.04
142.02,-1.76,0.34,-1.78,0.31,-0.32,-0.35,0.08,-2.08,-2.10,-2.10
143.44,-1.79,0.36,-1.84,0.31,-0.37,-0.41,0.04,-2.16,-2.21,-2.15
144.87,-1.93,0.27,-1.85,0.35,-0.43,-0.48,-0.00,-2.35,-2.27,-2.20
146.32,-1.84,0.40,-1.81,0.43,-0.48,-0.53,-0.04,-2.32,-2.30,-2.24
147.78,-1.69,0.60,-1.75,0.54,-0.55,-0.59,-0.09,-2.23,-2.29,-2.29
149.26,-1.66,0.67,-1.67,0.67,-0.61,-0.65,-0.13,-2.27,-2.28,-2.33
150.75,-1.66,0.72,-1.65,0.73,-0.67,-0.71,-0.17,-2.33,-2.31,-2.38
152.26,-1.66,0.77,-1.66,0.77,-0.73,-0.76,-0.21,-2.39,-2.39,-2.43
153.78,-1.66,0.80,-1.65,0.82,-0.79,-0.82,-0.26,-2.45,-2.44,-2.46
155.32,-1.66,0.85,-1.66,0.85,-0.86,-0.87,-0.30,-2.51,-2.51,-2.51
156.88,-1.65,0.90,-1.72,0.83,-0.91,-0.92,-0.34,-2.55,-2.63,-2.55
158.44,-1.76,0.84,-1.71,0.89,-0.95,-0.97,-0.39,-2.71,-2.66,-2.59
160.03,-1.79,0.85,-1.66,0.98,-1.00,-1.03,-0.43,-2.78,-2.66,-2.64
161.63,-1.47,1.22,-1.62,1.07,-1.04,-1.08,-0.48,-2.51,-2.66,-2.69
163.24,-1.56,1.17,-1.58,1.15,-1.08,-1.12,-0.53,-2.64,-2.67,-2.73
164.88,-1.66,1.11,-1.59,1.18,-1.12,-1.17,-0.57,-2.78,-2.71,-2.77
166.53,-1.67,1.14,-1.67,1.14,-1.14,-1.22,-0.62,-2.81,-2.81,-2.81
168.19,-1.67,1.18,-1.67,1.17,-1.17,-1.27,-0.67,-2.84,-2.84,-2.85
169.87,-1.68,1.20,-1.68,1.21,-1.19,-1.31,-0.72,-2.87,-2.87,-2.88
171.57,-1.69,1.23,-1.74,1.18,-1.21,-1.36,-0.77,-2.90,-2.95,-2.92
173.29,-1.79,1.17,-1.78,1.18,-1.24,-1.40,-0.82,-3.03,-3.01,-2.96
175.02,-1.86,1.12,-1.77,1.22,-1.28,-1.44,-0.87,-3.14,-3.04,-2.98
176.77,-1.67,1.35,-1.72,1.30,-1.33,-1.48,-0.92,-3.00,-3.05,-3.02
178.54,-1.61,1.44,-1.64,1.41,-1.38,-1.52,-0.98,-2.99,-3.02,-3.05
180.32,-1.60,1.48,-1.58,1.49,-1.43,-1.56,-1.03,-3.03,-3.01,-3.07
182.13,-1.59,1.51,-1.58,1.51,-1.47,-1.60,-1.09,-3.06,-3.06,-3.10
183.95,-1.58,1.54,-1.57,1.54,-1.51,-1.64,-1.14,-3.09,-3.09,-3.12
185.79,-1.57,1.57,-1.56,1.58,-1.55,-1.68,-1.20,-3.12,-3.11,-3.14
187.65,-1.55,1.61,-1.58,1.58,-1.59,-1.71,-1.26,-3.14,-3.16,-3.16
189.52,-1.59,1.59,-1.60,1.57,-1.62,-1.75,-1.31,-3.21,-3.22,-3.18
191.42,-1.64,1.55,-1.60,1.59,-1.66,-1.78,-1.37,-3.30,-3.26,-3.19
193.33,-1.59,1.62,-1.56,1.65,-1.71,-1.82,-1.43,-3.29,-3.26,-3.21
195.27,-1.45,1.78,-1.48,1.75,-1.75,-1.85,-1.49,-3.20,-3.23,-3.23
197.22,-1.38,1.87,-1.40,1.84,-1.80,-1.88,-1.55,-3.18,-3.20,-3.24
199.19,-1.37,1.89,-1.36,1.90,-1.84,-1.91,-1.61,-3.21,-3.20,-3.26
201.18,-1.36,1.92,-1.35,1.93,-1.87,-1.94,-1.67,-3.23,-3.23,-3.28
203.19,-1.36,1.94,-1.35,1.94,-1.91,-1.97,-1.73,-3.27,-3.26,-3.29
205.23,-1.36,1.95,-1.38,1.93,-1.95,-2.00,-1.79,-3.31,-3.33,-3.31
207.28,-1.39,1.94,-1.41,1.92,-1.98,-2.03,-1.85,-3.37,-3.39,-3.33
209.35,-1.46,1.88,-1.40,1.94,-2.01,-2.06,-1.91,-3.47,-3.41,-3.34
211.44,-1.37,2.00,-1.38,1.99,-2.04,-2.08,-1.97,-3.41,-3.41,-3.36
213.56,-1.28,2.10,-1.30,2.07,-2.06,-2.11,-2.03,-3.34,-3.37,-3.38
215.69,-1.27,2.13,-1.24,2.16,-2.09,-2.13,-2.09,-3.36,-3.33,-3.40
217.85,-1.19,2.22,-1.23,2.18,-2.11,-2.16,-2.14,-3.30,-3.35,-3.41
220.03,-1.27,2.17,-1.27,2.16,-2.13,-2.18,-2.20,-3.39,-3.40,-3.44
222.23,-1.35,2.10,-1.32,2.13,-2.13,-2.20,-2.25,-3.48,-3.45,-3.45
224.45,-1.38,2.08,-1.37,2.09,-2.12,-2.22,-2.30,-3.50,-3.49,-3.46
226.70,-1.38,2.09,-1.38,2.09,-2.11,-2.24,-2.35,-3.49,-3.49,-3.47
228.96,-1.37,2.11,-1.37,2.10,-2.11,-2.26,-2.40,-3.47,-3.48,-3.48
231.25,-1.37,2.11,-1.40,2.09,-2.11,-2.28,-2.44,-3.48,-3.51,-3.48
233.57,-1.41,2.08,-1.40,2.09,-2.13,-2.30,-2.48,-3.54,-3.53,-3.49
235.90,-1.43,2.07,-1.37,2.13,-2.16,-2.32,-2.52,-3.59,-3.53,-3.50
238.26,-1.28,2.22,-1.31,2.19,-2.20,-2.33,-2.56,-3.47,-3.50,-3.50
240.64,-1.21,2.29,-1.24,2.26,-2.23,-2.35,-2.59,-3.44,-3.47,-3.50
243.05,-1.20,2.30,-1.18,2.31,-2.27,-2.36,-2.62,-3.47,-3.46,-3.50
245.48,-1.18,2.32,-1.17,2.33,-2.31,-2.38,-2.64,-3.49,-3.48,-3.50
247.93,-1.15,2.35,-1.15,2.34,-2.35,-2.39,-2.66,-3.50,-3.50,-3.49
250.41,-1.13,2.36,-1.13,2.36,-2.37,-2.41,-2.67,-3.50,-3.51,-3.49
252.92,-1.12,2.37,-1.12,2.38,-2.39,-2.42,-2.69,-3.50,-3.50,-3.49
255.45,-1.10,2.40,-1.09,2.41,-2.39,-2.43,-2.70,-3.49,-3.48,-3.50
258.00,-1.08,2.42,-1.08,2.42,-2.39,-2.44,-2.70,-3.47,-3.47,-3.49
260.58,-1.05,2.45,-1.10,2.41,-2.40,-2.45,-2.70,-3.45,-3.50,-3.50
263.19,-1.14,2.37,-1.12,2.39,-2.41,-2.46,-2.70,-3.55,-3.53,-3.51
265.82,-1.18,2.35,-1.13,2.39,-2.42,-2.47,-2.69,-3.59,-3.55,-3.52
268.48,-1.11,2.42,-1.14,2.40,-2.42,-2.48,-2.69,-3.53,-3.56,-3.53
271.16,-1.10,2.45,-1.11,2.43,-2.43,-2.49,-2.67,-3.53,-3.54,-3.55
273.87,-1.10,2.45,-1.09,2.46,-2.44,-2.49,-2.66,-3.54,-3.54,-3.55
276.61,-1.10,2.47,-1.10,2.47,-2.46,-2.50,-2.64,-3.56,-3.56,-3.57
279.38,-1.10,2.48,-1.10,2.48,-2.48,-2.51,-2.62,-3.57,-3.57,-3.58
282.17,-1.10,2.49,-1.10,2.49,-2.49,-2.51,-2.60,-3.59,-3.59,-3.59
284.99,-1.09,2.50,-1.09,2.50,-2.50,-2.52,-2.58,-3.59,-3.59,-3.59
287.84,-1.08,2.51,-1.08,2.51,-2.52,-2.52,-2.56,-3.59,-3.59,-3.59
290.72,-1.07,2.52,-1.07,2.52,-2.52,-2.52,-2.54,-3.59,-3.59,-3.59
293.63,-1.06,2.54,-1.06,2.53,-2.53,-2.52,-2.51,-3.59,-3.60,-3.60
296.57,-1.06,2.53,-1.05,2.54,-2.54,-2.53,-2.49,-3.60,-3.59,-3.59
299.53,-1.04,2.55,-1.03,2.55,-2.55,-2.53,-2.46,-3.59,-3.59,-3.58
302.53,-1.01,2.58,-1.02,2.56,-2.56,-2.53,-2.44,-3.57,-3.58,-3.59
305.55,-1.01,2.57,-1.01,2.58,-2.57,-2.53,-2.41,-3.58,-3.58,-3.58
308.61,-1.01,2.58,-1.00,2.58,-2.58,-2.53,-2.39,-3.59,-3.59,-3.59
311.69,-1.00,2.59,-1.00,2.59,-2.59,-2.53,-2.36,-3.59,-3.59,-3.59
314.81,-1.00,2.59,-1.00,2.60,-2.60,-2.53,-2.34,-3.60,-3.60,-3.59
317.96,-0.99,2.61,-0.99,2.61,-2.61,-2.53,-2.32,-3.60,-3.60,-3.60
321.14,-0.99,2.61,-0.99,2.61,-2.61,-2.52,-2.30,-3.60,-3.60,-3.60
324.35,-0.99,2.60,-0.99,2.61,-2.61,-2.52,-2.28,-3.60,-3.60,-3.59
327.59,-0.99,2.61,-0.99,2.61,-2.60,-2.52,-2.26,-3.59,-3.59,-3.60
330.87,-1.00,2.60,-0.99,2.61,-2.59,-2.51,-2.24,-3.59,-3.58,-3.60
334.18,-1.00,2.60,-1.01,2.59,-2.57,-2.51,-2.22,-3.57,-3.58,-3.60
337.52,-1.03,2.58,-1.04,2.57,-2.56,-2.50,-2.21,-3.59,-3.59,-3.60
340.90,-1.08,2.53,-1.07,2.53,-2.55,-2.50,-2.20,-3.63,-3.61,-3.61
344.30,-1.10,2.50,-1.10,2.51,-2.54,-2.49,-2.19,-3.64,-3.64,-3.60
347.75,-1.10,2.49,-1.11,2.49,-2.53,-2.48,-2.18,-3.63,-3.64,-3.59
351.23,-1.10,2.50,-1.08,2.51,-2.53,-2.48,-2.17,-3.62,-3.61,-3.60
354.74,-1.06,2.53,-1.05,2.54,-2.52,-2.47,-2.16,-3.58,-3.57,-3.59
358.28,-1.00,2.59,-1.03,2.55,-2.52,-2.46,-2.16,-3.52,-3.55,-3.59
361.87,-1.03,2.55,-1.03,2.55,-2.52,-2.45,-2.16,-3.55,-3.55,-3.58
365.49,-1.07,2.50,-1.05,2.53,-2.52,-2.45,-2.16,-3.59,-3.57,-3.57
369.14,-1.07,2.51,-1.07,2.50,-2.52,-2.44,-2.16,-3.59,-3.59,-3.57
372.83,-1.07,2.49,-1.07,2.49,-2.52,-2.43,-2.16,-3.59,-3.59,-3.56
376.56,-1.06,2.50,-1.06,2.50,-2.52,-2.42,-2.17,-3.57,-3.58,-3.56
380.33,-1.05,2.51,-1.05,2.51,-2.51,-2.41,-2.17,-3.56,-3.56,-3.56
384.13,-1.05,2.51,-1.04,2.52,-2.50,-2.40,-2.18,-3.55,-3.55,-3.56
387.97,-1.04,2.52,-1.04,2.52,-2.50,-2.39,-2.19,-3.54,-3.53,-3.56
391.85,-1.04,2.52,-1.04,2.52,-2.49,-2.37,-2.20,-3.53,-3.54,-3.55
395.77,-1.05,2.52,-1.07,2.49,-2.49,-2.36,-2.21,-3.54,-3.56,-3.56
399.73,-1.11,2.46,-1.10,2.47,-2.48,-2.35,-2.22,-3.59,-3.58,-3.57
403.72,-1.14,2.43,-1.13,2.45,-2.47,-2.34,-2.24,-3.61,-3.60,-3.57
407.76,-1.14,2.45,-1.15,2.44,-2.46,-2.33,-2.25,-3.60,-3.60,-3.59
411.84,-1.15,2.44,-1.14,2.45,-2.44,-2.31,-2.27,-3.59,-3.58,-3.59
415.96,-1.15,2.44,-1.15,2.45,-2.42,-2.30,-2.28,-3.57,-3.57,-3.59
420.12,-1.15,2.45,-1.17,2.43,-2.41,-2.29,-2.30,-3.56,-3.58,-3.60
424.32,-1.20,2.40,-1.19,2.40,-2.40,-2.27,-2.31,-3.60,-3.59,-3.59
428.56,-1.22,2.37,-1.21,2.37,-2.39,-2.26,-2.33,-3.61,-3.61,-3.58
432.85,-1.22,2.35,-1.21,2.36,-2.39,-2.24,-2.35,-3.60,-3.60,-3.57
437.18,-1.19,2.37,-1.19,2.36,-2.37,-2.23,-2.37,-3.56,-3.56,-3.56
441.55,-1.15,2.37,-1.15,2.37,-2.36,-2.21,-2.38,-3.50,-3.50,-3.52
445.96,-1.11,2.37,-1.10,2.38,-2.34,-2.20,-2.40,-3.45,-3.45,-3.48
450.42,-1.06,2.37,-1.08,2.35,-2.34,-2.18,-2.41,-3.40,-3.41,-3.43
454.93,-1.05,2.33,-1.05,2.33,-2.33,-2.17,-2.43,-3.38,-3.39,-3.38
459.48,-1.05,2.27,-1.03,2.30,-2.33,-2.15,-2.44,-3.38,-3.35,-3.32
464.07,-0.98,2.29,-0.99,2.29,-2.32,-2.14,-2.45,-3.29,-3.30,-3.27
468.71,-0.93,2.29,-0.93,2.29,-2.30,-2.12,-2.46,-3.23,-3.22,-3.22
