frequency,raw,smoothed,error,error_smoothed,equalization,parametric_eq,fixed_band_eq,equalized_raw,equalized_smoothed,target
20.00,-7.79,-7.80,-11.84,-11.85,6.00,6.27,2.84,-1.79,-1.80,4.05
20.20,-7.74,-7.74,-11.82,-11.82,6.00,6.27,2.92,-1.74,-1.74,4.08
20.40,-7.68,-7.68,-11.79,-11.79,6.00,6.27,3.00,-1.68,-1.68,4.11
20.61,-7.63,-7.63,-11.75,-11.76,6.00,6.26,3.09,-1.63,-1.63,4.13
20.81,-7.57,-7.57,-11.73,-11.73,6.00,6.26,3.17,-1.57,-1.57,4.16
21.02,-7.51,-7.51,-11.70,-11.69,6.00,6.26,3.27,-1.51,-1.51,4.19
21.23,-7.45,-7.46,-11.65,-11.66,6.00,6.26,3.36,-1.45,-1.46,4.20
21.44,-7.39,-7.39,-11.60,-11.60,6.00,6.25,3.45,-1.39,-1.39,4.21
21.66,-7.33,-7.33,-11.55,-11.54,6.00,6.25,3.55,-1.33,-1.33,4.22
21.87,-7.26,-7.27,-11.48,-11.49,6.00,6.25,3.65,-1.26,-1.27,4.22
22.09,-7.20,-7.20,-11.43,-11.43,6.00,6.24,3.76,-1.20,-1.20,4.23
22.31,-7.14,-7.14,-11.37,-11.37,6.00,6.24,3.86,-1.14,-1.14,4.22
22.54,-7.08,-7.08,-11.30,-11.30,6.00,6.24,3.97,-1.08,-1.08,4.22
22.76,-7.01,-7.01,-11.24,-11.23,6.00,6.23,4.09,-1.01,-1.01,4.22
22.99,-6.94,-6.94,-11.16,-11.16,6.00,6.23,4.20,-0.94,-0.94,4.21
23.22,-6.87,-6.88,-11.09,-11.09,6.00,6.23,4.32,-0.87,-0.88,4.21
23.45,-6.81,-6.81,-11.02,-11.02,6.00,6.22,4.44,-0.81,-0.81,4.21
23.69,-6.75,-6.74,-10.96,-10.95,6.00,6.22,4.56,-0.75,-0.74,4.21
23.92,-6.67,-6.67,-10.88,-10.89,6.00,6.21,4.69,-0.67,-0.67,4.21
24.16,-6.60,-6.61,-10.82,-10.82,6.00,6.21,4.82,-0.60,-0.61,4.22
24.40,-6.54,-6.54,-10.76,-10.75,6.00,6.21,4.94,-0.54,-0.54,4.22
24.65,-6.47,-6.47,-10.68,-10.68,6.00,6.20,5.08,-0.47,-0.47,4.21
24.89,-6.40,-6.40,-10.61,-10.61,6.00,6.20,5.21,-0.40,-0.40,4.21
25.14,-6.33,-6.33,-10.54,-10.54,6.00,6.19,5.35,-0.33,-0.33,4.21
25.39,-6.26,-6.26,-10.47,-10.47,6.00,6.19,5.48,-0.26,-0.26,4.20
25.65,-6.19,-6.19,-10.40,-10.39,6.00,6.19,5.62,-0.19,-0.19,4.20
25.91,-6.13,-6.12,-10.32,-10.32,6.00,6.18,5.76,-0.13,-0.12,4.19
26.16,-6.05,-6.05,-10.24,-10.25,6.00,6.18,5.90,-0.05,-0.05,4.19
26.43,-5.99,-5.99,-10.17,-10.17,6.00,6.17,6.03,0.01,0.01,4.19
26.69,-5.91,-5.91,-10.10,-10.10,6.00,6.17,6.17,0.09,0.09,4.19
26.96,-5.84,-5.84,-10.03,-10.03,6.00,6.16,6.31,0.16,0.16,4.19
27.23,-5.76,-5.77,-9.95,-9.95,6.00,6.16,6.44,0.24,0.23,4.19
27.50,-5.69,-5.69,-9.88,-9.88,6.00,6.15,6.57,0.31,0.31,4.18
27.77,-5.62,-5.62,-9.80,-9.80,6.00,6.15,6.69,0.38,0.38,4.17
28.05,-5.54,-5.55,-9.72,-9.72,6.00,6.14,6.82,0.46,0.45,4.17
28.33,-5.47,-5.47,-9.63,-9.64,6.00,6.14,6.93,0.53,0.53,4.16
28.62,-5.41,-5.40,-9.56,-9.56,6.00,6.13,7.04,0.59,0.60,4.16
28.90,-5.33,-5.33,-9.49,-9.49,6.00,6.13,7.15,0.67,0.67,4.16
29.19,-5.26,-5.26,-9.41,-9.42,6.00,6.12,7.24,0.74,0.74,4.15
29.48,-5.19,-5.19,-9.35,-9.34,6.00,6.12,7.33,0.81,0.81,4.15
29.78,-5.12,-5.12,-9.27,-9.26,6.00,6.11,7.41,0.88,0.88,4.14
30.08,-5.05,-5.05,-9.19,-9.19,6.00,6.11,7.47,0.95,0.95,4.14
30.38,-4.97,-4.98,-9.10,-9.11,6.00,6.10,7.53,1.03,1.02,4.13
30.68,-4.90,-4.91,-9.03,-9.03,6.00,6.09,7.57,1.10,1.09,4.13
30.99,-4.84,-4.84,-8.96,-8.96,6.00,6.09,7.61,1.16,1.16,4.11
31.30,-4.77,-4.78,-8.89,-8.89,6.00,6.08,7.63,1.23,1.22,4.11
31.61,-4.71,-4.71,-8.82,-8.82,6.00,6.08,7.64,1.29,1.29,4.11
31.93,-4.65,-4.65,-8.75,-8.75,6.00,6.07,7.64,1.35,1.35,4.10
32.24,-4.59,-4.59,-8.68,-8.68,6.00,6.06,7.63,1.41,1.41,4.09
32.57,-4.53,-4.54,-8.62,-8.62,6.00,6.06,7.60,1.47,1.46,4.08
32.89,-4.48,-4.48,-8.56,-8.56,6.00,6.05,7.57,1.52,1.52,4.08
33.22,-4.42,-4.43,-8.49,-8.50,6.00,6.04,7.53,1.58,1.57,4.07
33.55,-4.37,-4.37,-8.44,-8.43,6.00,6.04,7.48,1.63,1.63,4.06
33.89,-4.31,-4.32,-8.37,-8.37,6.00,6.03,7.42,1.69,1.68,4.05
34.23,-4.26,-4.26,-8.31,-8.31,6.00,6.03,7.35,1.74,1.74,4.05
34.57,-4.20,-4.21,-8.24,-8.24,6.00,6.02,7.28,1.80,1.79,4.04
34.92,-4.15,-4.15,-8.18,-8.18,6.00,6.01,7.20,1.85,1.85,4.02
35.27,-4.09,-4.10,-8.11,-8.11,6.00,6.01,7.11,1.91,1.90,4.02
35.62,-4.04,-4.04,-8.05,-8.05,6.00,6.00,7.03,1.96,1.96,4.01
35.97,-3.98,-3.99,-7.98,-7.98,6.00,6.00,6.94,2.02,2.01,3.99
36.33,-3.93,-3.94,-7.92,-7.92,6.00,5.99,6.84,2.07,2.06,3.99
36.70,-3.88,-3.88,-7.86,-7.86,6.00,5.99,6.75,2.12,2.12,3.97
37.06,-3.83,-3.83,-7.79,-7.79,6.00,5.98,6.66,2.17,2.17,3.96
37.43,-3.77,-3.78,-7.73,-7.73,6.00,5.98,6.56,2.23,2.22,3.96
37.81,-3.72,-3.73,-7.67,-7.67,6.00,5.97,6.47,2.28,2.27,3.94
38.19,-3.67,-3.67,-7.60,-7.60,6.00,5.97,6.37,2.33,2.33,3.93
38.57,-3.62,-3.62,-7.55,-7.54,6.00,5.96,6.28,2.38,2.38,3.92
38.95,-3.56,-3.57,-7.47,-7.47,6.00,5.96,6.19,2.44,2.43,3.91
39.34,-3.51,-3.52,-7.41,-7.41,6.00,5.96,6.10,2.49,2.48,3.89
39.74,-3.46,-3.46,-7.34,-7.34,6.00,5.96,6.02,2.54,2.54,3.88
40.14,-3.41,-3.41,-7.29,-7.28,6.00,5.96,5.94,2.59,2.59,3.87
40.54,-3.35,-3.36,-7.21,-7.22,6.00,5.96,5.86,2.65,2.64,3.86
40.94,-3.30,-3.31,-7.15,-7.16,6.00,5.96,5.78,2.70,2.69,3.85
41.35,-3.26,-3.26,-7.10,-7.10,6.00,5.96,5.71,2.74,2.74,3.83
41.76,-3.21,-3.21,-7.04,-7.04,6.00,5.96,5.64,2.79,2.79,3.83
42.18,-3.16,-3.16,-6.99,-6.98,6.00,5.97,5.58,2.84,2.84,3.82
42.60,-3.11,-3.12,-6.92,-6.93,6.00,5.97,5.51,2.89,2.88,3.80
43.03,-3.07,-3.07,-6.87,-6.87,6.00,5.98,5.46,2.93,2.93,3.80
43.46,-3.02,-3.03,-6.80,-6.80,6.00,5.98,5.40,2.98,2.97,3.78
43.90,-2.98,-2.98,-6.74,-6.74,6.00,5.99,5.36,3.02,3.02,3.75
44.33,-2.94,-2.94,-6.68,-6.68,6.00,5.99,5.31,3.06,3.06,3.74
44.78,-2.89,-2.90,-6.61,-6.61,6.00,6.00,5.27,3.11,3.10,3.72
45.23,-2.85,-2.85,-6.55,-6.55,6.00,6.00,5.23,3.15,3.15,3.70
45.68,-2.81,-2.81,-6.49,-6.49,6.00,6.00,5.20,3.19,3.19,3.68
46.13,-2.76,-2.77,-6.43,-6.43,6.00,5.99,5.17,3.24,3.23,3.66
46.60,-2.72,-2.72,-6.38,-6.37,6.01,5.98,5.15,3.28,3.28,3.65
47.06,-2.68,-2.68,-6.32,-6.32,6.01,5.97,5.13,3.33,3.33,3.63
47.53,-2.64,-2.64,-6.26,-6.26,6.01,5.94,5.11,3.37,3.37,3.61
48.01,-2.60,-2.60,-6.21,-6.20,6.01,5.92,5.09,3.40,3.40,3.60
48.49,-2.56,-2.56,-6.14,-6.14,6.00,5.88,5.08,3.43,3.43,3.57
48.97,-2.52,-2.52,-6.06,-6.06,5.98,5.85,5.08,3.46,3.46,3.54
49.46,-2.48,-2.48,-5.99,-5.99,5.95,5.80,5.07,3.47,3.47,3.51
49.96,-2.44,-2.44,-5.92,-5.93,5.92,5.76,5.07,3.47,3.47,3.48
50.46,-2.40,-2.40,-5.87,-5.87,5.87,5.71,5.07,3.47,3.47,3.47
50.96,-2.36,-2.37,-5.81,-5.80,5.82,5.66,5.07,3.45,3.45,3.44
51.47,-2.33,-2.33,-5.74,-5.75,5.76,5.62,5.08,3.42,3.43,3.41
51.99,-2.29,-2.29,-5.68,-5.68,5.69,5.57,5.09,3.40,3.40,3.39
52.51,-2.25,-2.25,-5.63,-5.62,5.63,5.52,5.09,3.37,3.37,3.37
53.03,-2.21,-2.21,-5.56,-5.56,5.56,5.47,5.10,3.35,3.35,3.35
53.56,-2.17,-2.18,-5.50,-5.50,5.50,5.42,5.11,3.33,3.32,3.32
54.10,-2.14,-2.14,-5.44,-5.44,5.44,5.38,5.12,3.29,3.30,3.30
54.64,-2.10,-2.10,-5.38,-5.37,5.37,5.33,5.13,3.27,3.27,3.27
55.18,-2.06,-2.07,-5.31,-5.31,5.31,5.29,5.14,3.25,3.24,3.24
55.74,-2.03,-2.03,-5.25,-5.25,5.25,5.24,5.15,3.22,3.22,3.22
56.29,-1.99,-1.99,-5.19,-5.19,5.19,5.20,5.15,3.20,3.20,3.20
56.86,-1.95,-1.96,-5.13,-5.13,5.13,5.15,5.15,3.18,3.17,3.17
57.42,-1.92,-1.92,-5.07,-5.07,5.07,5.11,5.16,3.15,3.15,3.14
58.00,-1.88,-1.89,-5.01,-5.01,5.02,5.07,5.15,3.13,3.13,3.12
58.58,-1.85,-1.85,-4.96,-4.96,4.96,5.02,5.15,3.10,3.10,3.10
59.16,-1.82,-1.82,-4.91,-4.90,4.90,4.98,5.14,3.08,3.08,3.08
59.76,-1.78,-1.79,-4.85,-4.85,4.84,4.94,5.13,3.06,3.05,3.06
60.35,-1.75,-1.75,-4.78,-4.79,4.78,4.89,5.11,3.03,3.03,3.03
60.96,-1.72,-1.72,-4.73,-4.72,4.72,4.85,5.09,2.99,3.00,3.01
61.57,-1.68,-1.69,-4.65,-4.66,4.66,4.81,5.06,2.97,2.97,2.97
62.18,-1.65,-1.65,-4.59,-4.59,4.60,4.76,5.02,2.94,2.94,2.93
62.80,-1.62,-1.62,-4.53,-4.53,4.53,4.72,4.99,2.91,2.91,2.91
63.43,-1.59,-1.59,-4.47,-4.47,4.47,4.67,4.94,2.88,2.88,2.87
64.07,-1.56,-1.56,-4.41,-4.41,4.41,4.63,4.90,2.85,2.85,2.85
64.71,-1.53,-1.53,-4.35,-4.35,4.35,4.58,4.84,2.82,2.82,2.82
65.35,-1.50,-1.50,-4.30,-4.30,4.29,4.53,4.78,2.79,2.79,2.79
66.01,-1.47,-1.47,-4.24,-4.24,4.23,4.48,4.72,2.76,2.76,2.76
66.67,-1.44,-1.44,-4.18,-4.18,4.18,4.44,4.65,2.73,2.73,2.73
67.33,-1.41,-1.41,-4.12,-4.12,4.12,4.39,4.58,2.70,2.70,2.71
68.01,-1.38,-1.38,-4.06,-4.06,4.06,4.34,4.50,2.67,2.68,2.67
68.69,-1.35,-1.35,-4.00,-4.00,4.00,4.29,4.42,2.65,2.65,2.64
69.37,-1.32,-1.32,-3.94,-3.94,3.94,4.23,4.34,2.62,2.62,2.61
70.07,-1.29,-1.30,-3.87,-3.88,3.88,4.18,4.25,2.59,2.58,2.58
70.77,-1.27,-1.27,-3.83,-3.82,3.82,4.13,4.16,2.54,2.55,2.56
71.48,-1.24,-1.24,-3.76,-3.76,3.76,4.08,4.07,2.51,2.52,2.52
72.19,-1.21,-1.22,-3.70,-3.70,3.70,4.02,3.98,2.48,2.48,2.49
72.91,-1.18,-1.19,-3.63,-3.64,3.64,3.97,3.89,2.45,2.45,2.45
73.64,-1.16,-1.16,-3.58,-3.58,3.58,3.91,3.79,2.42,2.42,2.41
74.38,-1.13,-1.14,-3.52,-3.52,3.52,3.85,3.70,2.39,2.38,2.38
75.12,-1.11,-1.11,-3.46,-3.46,3.46,3.80,3.60,2.35,2.35,2.35
75.87,-1.08,-1.09,-3.40,-3.40,3.40,3.74,3.50,2.32,2.32,2.32
76.63,-1.06,-1.06,-3.35,-3.35,3.35,3.68,3.41,2.28,2.28,2.29
77.40,-1.03,-1.04,-3.29,-3.29,3.29,3.62,3.31,2.25,2.25,2.26
78.17,-1.01,-1.01,-3.23,-3.23,3.23,3.56,3.22,2.22,2.22,2.21
78.95,-0.98,-0.99,-3.18,-3.17,3.18,3.49,3.12,2.19,2.19,2.19
79.74,-0.96,-0.97,-3.12,-3.12,3.12,3.43,3.03,2.16,2.16,2.16
80.54,-0.94,-0.94,-3.07,-3.07,3.06,3.37,2.93,2.12,2.12,2.12
81.35,-0.92,-0.92,-3.01,-3.01,3.01,3.30,2.84,2.08,2.09,2.09
82.16,-0.89,-0.90,-2.95,-2.95,2.95,3.24,2.75,2.06,2.05,2.05
82.98,-0.87,-0.87,-2.90,-2.89,2.90,3.17,2.66,2.02,2.02,2.03
83.81,-0.85,-0.85,-2.83,-2.84,2.84,3.11,2.58,1.98,1.99,1.98
84.65,-0.83,-0.83,-2.78,-2.78,2.78,3.04,2.49,1.95,1.95,1.94
85.50,-0.81,-0.81,-2.73,-2.72,2.72,2.97,2.40,1.91,1.91,1.91
86.35,-0.79,-0.79,-2.67,-2.67,2.67,2.91,2.32,1.87,1.87,1.87
87.22,-0.77,-0.77,-2.61,-2.61,2.61,2.84,2.24,1.83,1.83,1.83
88.09,-0.75,-0.75,-2.55,-2.55,2.55,2.77,2.16,1.80,1.80,1.79
88.97,-0.73,-0.73,-2.50,-2.49,2.49,2.70,2.08,1.76,1.76,1.76
89.86,-0.71,-0.71,-2.44,-2.43,2.43,2.63,2.00,1.72,1.72,1.72
90.76,-0.69,-0.69,-2.36,-2.37,2.37,2.56,1.93,1.68,1.68,1.67
91.66,-0.67,-0.67,-2.31,-2.31,2.31,2.49,1.86,1.63,1.63,1.64
92.58,-0.65,-0.65,-2.24,-2.24,2.25,2.41,1.78,1.59,1.59,1.58
93.51,-0.63,-0.63,-2.18,-2.18,2.18,2.34,1.71,1.55,1.55,1.55
94.44,-0.61,-0.61,-2.12,-2.12,2.12,2.27,1.64,1.50,1.50,1.51
95.39,-0.59,-0.60,-2.06,-2.06,2.05,2.20,1.58,1.46,1.46,1.46
96.34,-0.58,-0.58,-1.99,-1.99,1.99,2.12,1.51,1.41,1.41,1.41
97.30,-0.56,-0.56,-1.93,-1.92,1.93,2.05,1.44,1.36,1.36,1.36
98.28,-0.54,-0.55,-1.86,-1.86,1.86,1.98,1.38,1.32,1.32,1.32
99.26,-0.52,-0.53,-1.79,-1.80,1.80,1.91,1.32,1.27,1.27,1.27
100.25,-0.51,-0.51,-1.74,-1.74,1.74,1.83,1.26,1.22,1.22,1.23
101.25,-0.49,-0.50,-1.67,-1.67,1.67,1.76,1.20,1.18,1.18,1.18
102.27,-0.48,-0.48,-1.62,-1.61,1.61,1.69,1.14,1.13,1.13,1.13
103.29,-0.46,-0.47,-1.54,-1.55,1.55,1.61,1.08,1.09,1.09,1.08
104.32,-0.45,-0.45,-1.49,-1.49,1.49,1.54,1.03,1.04,1.04,1.04
105.37,-0.43,-0.44,-1.43,-1.43,1.43,1.47,0.97,1.00,0.99,0.99
106.42,-0.42,-0.42,-1.37,-1.37,1.37,1.40,0.92,0.94,0.94,0.95
107.48,-0.41,-0.41,-1.32,-1.31,1.31,1.32,0.87,0.89,0.90,0.90
108.56,-0.39,-0.40,-1.24,-1.25,1.25,1.25,0.82,0.85,0.85,0.85
109.64,-0.38,-0.38,-1.18,-1.19,1.19,1.18,0.77,0.80,0.80,0.80
110.74,-0.37,-0.37,-1.13,-1.12,1.13,1.11,0.72,0.75,0.75,0.75
111.85,-0.36,-0.36,-1.07,-1.07,1.06,1.04,0.67,0.70,0.70,0.71
112.97,-0.35,-0.35,-1.00,-1.00,1.00,0.97,0.63,0.65,0.65,0.64
114.10,-0.34,-0.34,-0.94,-0.94,0.94,0.90,0.58,0.59,0.59,0.60
115.24,-0.33,-0.33,-0.88,-0.87,0.87,0.83,0.54,0.54,0.54,0.54
116.39,-0.32,-0.32,-0.81,-0.81,0.81,0.76,0.50,0.49,0.49,0.49
117.55,-0.31,-0.31,-0.75,-0.75,0.75,0.70,0.46,0.44,0.44,0.43
118.73,-0.30,-0.30,-0.68,-0.69,0.69,0.63,0.42,0.38,0.38,0.38
119.92,-0.29,-0.29,-0.63,-0.63,0.63,0.56,0.38,0.33,0.33,0.34
121.12,-0.28,-0.28,-0.57,-0.57,0.57,0.50,0.35,0.29,0.29,0.28
122.33,-0.27,-0.27,-0.51,-0.51,0.51,0.44,0.31,0.24,0.24,0.23
123.55,-0.26,-0.27,-0.45,-0.45,0.45,0.37,0.28,0.19,0.19,0.19
124.79,-0.26,-0.26,-0.40,-0.40,0.39,0.31,0.25,0.13,0.13,0.14
126.03,-0.25,-0.25,-0.34,-0.34,0.34,0.25,0.22,0.08,0.08,0.09
127.29,-0.24,-0.25,-0.28,-0.28,0.28,0.19,0.19,0.04,0.03,0.04
128.57,-0.24,-0.24,-0.22,-0.22,0.22,0.13,0.16,-0.02,-0.02,-0.02
129.85,-0.23,-0.23,-0.16,-0.16,0.17,0.07,0.14,-0.07,-0.07,-0.07
131.15,-0.22,-0.23,-0.11,-0.11,0.11,0.02,0.11,-0.11,-0.11,-0.12
132.46,-0.22,-0.22,-0.06,-0.06,0.06,-0.04,0.09,-0.17,-0.16,-0.17
133.79,-0.21,-0.22,-0.01,-0.01,0.01,-0.09,0.06,-0.21,-0.21,-0.20
135.12,-0.21,-0.21,0.04,0.04,-0.05,-0.14,0.04,-0.26,-0.26,-0.26
136.48,-0.20,-0.20,0.09,0.09,-0.10,-0.20,0.02,-0.30,-0.30,-0.29
137.84,-0.19,-0.20,0.14,0.15,-0.14,-0.25,-0.00,-0.34,-0.34,-0.34
139.22,-0.19,-0.19,0.20,0.19,-0.19,-0.30,-0.02,-0.38,-0.38,-0.39
140.61,-0.18,-0.19,0.25,0.24,-0.24,-0.34,-0.04,-0.42,-0.42,-0.43
142.02,-0.18,-0.18,0.27,0.28,-0.28,-0.39,-0.06,-0.46,-0.46,-0.46
143.44,-0.17,-0.18,0.32,0.32,-0.32,-0.44,-0.08,-0.50,-0.50,-0.50
144.87,-0.17,-0.17,0.36,0.36,-0.37,-0.48,-0.10,-0.54,-0.54,-0.54
146.32,-0.16,-0.17,0.41,0.41,-0.41,-0.52,-0.11,-0.57,-0.57,-0.58
147.78,-0.16,-0.16,0.44,0.45,-0.45,-0.57,-0.13,-0.61,-0.61,-0.61
149.26,-0.16,-0.16,0.48,0.49,-0.49,-0.60,-0.15,-0.65,-0.65,-0.64
150.75,-0.15,-0.16,0.54,0.53,-0.53,-0.64,-0.17,-0.68,-0.69,-0.69
152.26,-0.15,-0.15,0.57,0.57,-0.57,-0.68,-0.18,-0.72,-0.73,-0.73
153.78,-0.15,-0.15,0.61,0.61,-0.61,-0.72,-0.20,-0.77,-0.76,-0.76
155.32,-0.15,-0.15,0.65,0.65,-0.65,-0.75,-0.22,-0.81,-0.81,-0.81
156.88,-0.15,-0.15,0.69,0.69,-0.69,-0.79,-0.23,-0.85,-0.85,-0.84
158.44,-0.15,-0.15,0.73,0.73,-0.73,-0.82,-0.25,-0.88,-0.89,-0.88
160.03,-0.15,-0.16,0.77,0.77,-0.77,-0.85,-0.27,-0.92,-0.93,-0.93
161.63,-0.16,-0.16,0.80,0.81,-0.81,-0.88,-0.29,-0.97,-0.96,-0.97
163.24,-0.16,-0.16,0.85,0.84,-0.84,-0.90,-0.30,-1.00,-1.00,-1.01
164.88,-0.16,-0.17,0.87,0.87,-0.87,-0.93,-0.32,-1.04,-1.04,-1.04
166.53,-0.17,-0.17,0.90,0.91,-0.91,-0.96,-0.34,-1.08,-1.08,-1.08
168.19,-0.17,-0.18,0.94,0.94,-0.94,-0.98,-0.36,-1.11,-1.12,-1.12
169.87,-0.18,-0.18,0.97,0.97,-0.97,-1.00,-0.38,-1.15,-1.15,-1.15
171.57,-0.19,-0.19,1.00,1.00,-1.00,-1.02,-0.40,-1.20,-1.19,-1.19
173.29,-0.19,-0.20,1.03,1.03,-1.03,-1.04,-0.42,-1.23,-1.23,-1.23
175.02,-0.20,-0.20,1.06,1.06,-1.07,-1.06,-0.44,-1.27,-1.27,-1.26
176.77,-0.21,-0.21,1.09,1.10,-1.10,-1.08,-0.46,-1.31,-1.31,-1.31
178.54,-0.21,-0.22,1.14,1.13,-1.13,-1.10,-0.48,-1.34,-1.35,-1.35
180.32,-0.22,-0.22,1.16,1.16,-1.16,-1.11,-0.51,-1.38,-1.38,-1.38
182.13,-0.23,-0.23,1.18,1.19,-1.19,-1.12,-0.53,-1.42,-1.42,-1.42
183.95,-0.24,-0.24,1.22,1.21,-1.21,-1.14,-0.55,-1.46,-1.46,-1.46
185.79,-0.25,-0.25,1.24,1.24,-1.24,-1.15,-0.57,-1.49,-1.49,-1.49
187.65,-0.26,-0.27,1.27,1.26,-1.26,-1.16,-0.60,-1.52,-1.53,-1.53
189.52,-0.28,-0.28,1.28,1.28,-1.28,-1.17,-0.62,-1.56,-1.56,-1.56
191.42,-0.29,-0.30,1.30,1.30,-1.30,-1.18,-0.65,-1.59,-1.59,-1.59
193.33,-0.31,-0.31,1.31,1.31,-1.31,-1.18,-0.67,-1.63,-1.62,-1.62
195.27,-0.32,-0.33,1.32,1.32,-1.32,-1.19,-0.70,-1.65,-1.65,-1.65
197.22,-0.34,-0.34,1.33,1.34,-1.34,-1.19,-0.72,-1.68,-1.68,-1.68
199.19,-0.36,-0.36,1.35,1.35,-1.34,-1.20,-0.75,-1.71,-1.70,-1.71
201.18,-0.37,-0.38,1.36,1.35,-1.35,-1.20,-0.77,-1.72,-1.73,-1.73
203.19,-0.39,-0.39,1.35,1.35,-1.35,-1.20,-0.80,-1.75,-1.75,-1.75
205.23,-0.41,-0.41,1.36,1.35,-1.35,-1.20,-0.82,-1.77,-1.76,-1.77
207.28,-0.43,-0.43,1.34,1.35,-1.35,-1.20,-0.85,-1.78,-1.78,-1.78
209.35,-0.45,-0.46,1.35,1.35,-1.34,-1.20,-0.88,-1.80,-1.80,-1.80
211.44,-0.48,-0.48,1.34,1.34,-1.34,-1.20,-0.90,-1.82,-1.82,-1.82
213.56,-0.50,-0.50,1.32,1.32,-1.33,-1.19,-0.92,-1.83,-1.83,-1.83
215.69,-0.52,-0.53,1.31,1.31,-1.31,-1.19,-0.95,-1.84,-1.84,-1.83
217.85,-0.55,-0.55,1.29,1.29,-1.30,-1.18,-0.97,-1.85,-1.85,-1.84
220.03,-0.57,-0.58,1.28,1.28,-1.28,-1.18,-0.99,-1.85,-1.85,-1.86
222.23,-0.60,-0.60,1.26,1.26,-1.26,-1.17,-1.01,-1.86,-1.86,-1.87
224.45,-0.62,-0.63,1.24,1.24,-1.23,-1.16,-1.03,-1.86,-1.86,-1.86
226.70,-0.65,-0.65,1.21,1.21,-1.21,-1.15,-1.05,-1.86,-1.86,-1.86
228.96,-0.67,-0.68,1.19,1.18,-1.18,-1.14,-1.07,-1.86,-1.86,-1.86
231.25,-0.70,-0.70,1.15,1.15,-1.16,-1.13,-1.09,-1.86,-1.86,-1.85
233.57,-0.72,-0.73,1.13,1.13,-1.13,-1.12,-1.10,-1.85,-1.86,-1.85
235.90,-0.75,-0.75,1.10,1.10,-1.10,-1.11,-1.11,-1.86,-1.85,-1.85
238.26,-0.77,-0.77,1.08,1.08,-1.08,-1.09,-1.12,-1.85,-1.85,-1.85
240.64,-0.79,-0.79,1.05,1.05,-1.05,-1.08,-1.13,-1.84,-1.84,-1.84
243.05,-0.80,-0.81,1.03,1.02,-1.02,-1.07,-1.14,-1.83,-1.83,-1.83
245.48,-0.82,-0.82,0.99,1.00,-1.00,-1.05,-1.14,-1.82,-1.82,-1.82
247.93,-0.83,-0.84,0.97,0.97,-0.97,-1.03,-1.14,-1.80,-1.81,-1.81
250.41,-0.85,-0.85,0.95,0.94,-0.94,-1.02,-1.14,-1.80,-1.80,-1.80
252.92,-0.86,-0.86,0.92,0.92,-0.92,-1.00,-1.14,-1.78,-1.78,-1.78
255.45,-0.87,-0.87,0.88,0.89,-0.89,-0.98,-1.13,-1.77,-1.77,-1.76
258.00,-0.87,-0.88,0.87,0.87,-0.87,-0.96,-1.12,-1.74,-1.75,-1.75
260.58,-0.88,-0.88,0.85,0.85,-0.84,-0.94,-1.11,-1.73,-1.73,-1.73
263.19,-0.89,-0.89,0.82,0.82,-0.82,-0.92,-1.10,-1.71,-1.71,-1.71
265.82,-0.89,-0.90,0.80,0.80,-0.79,-0.90,-1.09,-1.69,-1.69,-1.70
268.48,-0.90,-0.90,0.77,0.77,-0.77,-0.87,-1.07,-1.67,-1.67,-1.67
271.16,-0.90,-0.91,0.74,0.74,-0.75,-0.85,-1.05,-1.65,-1.65,-1.65
273.87,-0.91,-0.91,0.72,0.72,-0.72,-0.83,-1.03,-1.64,-1.64,-1.63
276.61,-0.91,-0.91,0.69,0.70,-0.70,-0.80,-1.01,-1.62,-1.62,-1.61
279.38,-0.91,-0.91,0.68,0.68,-0.68,-0.78,-0.99,-1.59,-1.60,-1.59
282.17,-0.91,-0.91,0.66,0.66,-0.66,-0.75,-0.96,-1.57,-1.57,-1.58
284.99,-0.91,-0.91,0.64,0.64,-0.64,-0.72,-0.94,-1.55,-1.55,-1.55
287.84,-0.91,-0.91,0.62,0.62,-0.62,-0.70,-0.91,-1.53,-1.53,-1.54
290.72,-0.91,-0.92,0.60,0.60,-0.60,-0.67,-0.88,-1.51,-1.52,-1.51
293.63,-0.92,-0.92,0.57,0.57,-0.58,-0.64,-0.86,-1.50,-1.50,-1.50
296.57,-0.92,-0.92,0.55,0.55,-0.55,-0.61,-0.83,-1.48,-1.48,-1.47
299.53,-0.92,-0.93,0.53,0.53,-0.53,-0.58,-0.80,-1.45,-1.45,-1.46
302.53,-0.93,-0.93,0.51,0.50,-0.50,-0.55,-0.77,-1.43,-1.43,-1.44
305.55,-0.93,-0.94,0.47,0.48,-0.47,-0.53,-0.74,-1.40,-1.41,-1.40
308.61,-0.94,-0.94,0.44,0.44,-0.44,-0.49,-0.70,-1.39,-1.38,-1.39
311.69,-0.94,-0.95,0.42,0.41,-0.41,-0.46,-0.67,-1.36,-1.36,-1.36
314.81,-0.95,-0.95,0.37,0.38,-0.38,-0.43,-0.64,-1.34,-1.33,-1.32
317.96,-0.95,-0.96,0.35,0.35,-0.35,-0.40,-0.61,-1.31,-1.31,-1.31
321.14,-0.96,-0.96,0.33,0.32,-0.32,-0.37,-0.58,-1.29,-1.29,-1.29
324.35,-0.97,-0.97,0.30,0.30,-0.30,-0.34,-0.55,-1.27,-1.27,-1.27
327.59,-0.98,-0.98,0.26,0.27,-0.27,-0.31,-0.52,-1.25,-1.25,-1.25
330.87,-0.99,-0.99,0.24,0.24,-0.24,-0.28,-0.48,-1.23,-1.23,-1.23
334.18,-1.00,-1.00,0.21,0.21,-0.20,-0.25,-0.45,-1.21,-1.21,-1.21
337.52,-1.01,-1.01,0.18,0.18,-0.17,-0.22,-0.42,-1.19,-1.19,-1.19
340.90,-1.02,-1.03,0.14,0.14,-0.14,-0.19,-0.39,-1.17,-1.17,-1.17
344.30,-1.04,-1.04,0.11,0.11,-0.11,-0.16,-0.36,-1.15,-1.15,-1.15
347.75,-1.05,-1.05,0.08,0.08,-0.08,-0.13,-0.33,-1.13,-1.13,-1.13
351.23,-1.06,-1.06,0.05,0.05,-0.05,-0.11,-0.30,-1.11,-1.12,-1.11
354.74,-1.07,-1.07,0.02,0.02,-0.02,-0.08,-0.27,-1.10,-1.10,-1.10
358.28,-1.08,-1.08,-0.01,-0.01,0.00,-0.05,-0.24,-1.08,-1.08,-1.08
361.87,-1.09,-1.09,-0.03,-0.03,0.02,-0.03,-0.21,-1.07,-1.07,-1.06
365.49,-1.09,-1.10,-0.04,-0.05,0.05,-0.01,-0.18,-1.05,-1.05,-1.05
369.14,-1.10,-1.10,-0.06,-0.06,0.06,0.01,-0.15,-1.04,-1.04,-1.04
372.83,-1.10,-1.10,-0.08,-0.08,0.08,0.03,-0.12,-1.02,-1.02,-1.03
376.56,-1.10,-1.11,-0.09,-0.10,0.10,0.05,-0.10,-1.01,-1.01,-1.02
380.33,-1.11,-1.11,-0.12,-0.11,0.11,0.07,-0.07,-1.00,-1.00,-0.99
384.13,-1.10,-1.11,-0.12,-0.12,0.12,0.09,-0.04,-0.98,-0.99,-0.98
387.97,-1.10,-1.10,-0.13,-0.13,0.13,0.10,-0.01,-0.97,-0.97,-0.97
391.85,-1.09,-1.10,-0.13,-0.14,0.14,0.11,0.01,-0.96,-0.96,-0.96
395.77,-1.09,-1.09,-0.15,-0.14,0.14,0.12,0.04,-0.95,-0.95,-0.95
399.73,-1.08,-1.08,-0.15,-0.14,0.14,0.13,0.07,-0.94,-0.94,-0.94
403.72,-1.06,-1.07,-0.14,-0.14,0.14,0.14,0.09,-0.92,-0.93,-0.93
407.76,-1.05,-1.05,-0.13,-0.14,0.14,0.14,0.12,-0.91,-0.92,-0.92
411.84,-1.04,-1.04,-0.14,-0.13,0.14,0.15,0.14,-0.91,-0.90,-0.90
415.96,-1.02,-1.02,-0.13,-0.13,0.13,0.15,0.17,-0.89,-0.90,-0.89
420.12,-1.00,-1.01,-0.12,-0.13,0.12,0.15,0.19,-0.88,-0.89,-0.88
424.32,-0.99,-0.99,-0.12,-0.12,0.11,0.15,0.22,-0.88,-0.88,-0.87
428.56,-0.97,-0.97,-0.11,-0.11,0.11,0.15,0.24,-0.87,-0.87,-0.87
432.85,-0.95,-0.95,-0.10,-0.10,0.10,0.14,0.26,-0.86,-0.86,-0.86
437.18,-0.93,-0.93,-0.09,-0.09,0.09,0.14,0.28,-0.84,-0.84,-0.85
441.55,-0.91,-0.91,-0.09,-0.08,0.09,0.13,0.30,-0.83,-0.83,-0.83
445.96,-0.89,-0.90,-0.07,-0.08,0.08,0.13,0.32,-0.81,-0.81,-0.82
450.42,-0.88,-0.88,-0.07,-0.08,0.08,0.12,0.34,-0.80,-0.80,-0.81
454.93,-0.87,-0.88,-0.08,-0.08,0.09,0.12,0.36,-0.79,-0.79,-0.79
459.48,-0.87,-0.87,-0.09,-0.09,0.09,0.11,0.37,-0.78,-0.78,-0.78
464.07,-0.86,-0.86,-0.10,-0.10,0.10,0.10,0.39,-0.77,-0.77,-0.76
468.71,-0.85,-0.85,-0.11,-0.11,0.10,0.09,0.40,-0.75,-0.75,-0.74
