frequency,raw,error,smoothed,error_smoothed,equalization,parametric_eq,fixed_band_eq,equalized_raw,equalized_smoothed,target
20.00,3.34,0.01,3.34,0.02,-0.01,-0.19,-0.71,3.33,3.33,3.33
20.20,3.36,0.03,3.36,0.03,-0.03,-0.21,-0.73,3.33,3.33,3.33
20.40,3.38,0.05,3.38,0.05,-0.05,-0.24,-0.75,3.33,3.33,3.33
20.61,3.40,0.07,3.40,0.08,-0.08,-0.27,-0.77,3.32,3.33,3.33
20.81,3.43,0.10,3.43,0.10,-0.10,-0.30,-0.80,3.33,3.33,3.33
21.02,3.45,0.12,3.45,0.13,-0.13,-0.33,-0.82,3.32,3.32,3.33
21.23,3.47,0.17,3.47,0.16,-0.16,-0.36,-0.84,3.31,3.31,3.31
21.44,3.49,0.20,3.49,0.20,-0.20,-0.39,-0.86,3.29,3.29,3.30
21.66,3.51,0.24,3.51,0.24,-0.23,-0.42,-0.89,3.28,3.28,3.28
21.87,3.53,0.28,3.54,0.28,-0.28,-0.45,-0.91,3.26,3.26,3.26
22.09,3.56,0.32,3.56,0.32,-0.32,-0.48,-0.94,3.24,3.24,3.24
22.31,3.58,0.37,3.58,0.36,-0.37,-0.51,-0.96,3.22,3.22,3.21
22.54,3.60,0.41,3.61,0.41,-0.41,-0.54,-0.99,3.19,3.19,3.19
22.76,3.63,0.46,3.63,0.46,-0.46,-0.57,-1.02,3.17,3.17,3.17
22.99,3.66,0.52,3.66,0.52,-0.51,-0.61,-1.05,3.15,3.14,3.14
23.22,3.68,0.57,3.69,0.57,-0.56,-0.64,-1.07,3.12,3.12,3.11
23.45,3.72,0.63,3.72,0.62,-0.61,-0.67,-1.10,3.11,3.10,3.09
23.69,3.74,0.66,3.75,0.67,-0.66,-0.70,-1.13,3.08,3.08,3.08
23.92,3.78,0.72,3.78,0.71,-0.71,-0.73,-1.16,3.07,3.07,3.06
24.16,3.81,0.76,3.81,0.76,-0.76,-0.77,-1.19,3.05,3.05,3.05
24.40,3.83,0.80,3.84,0.81,-0.81,-0.80,-1.23,3.02,3.03,3.03
24.65,3.86,0.85,3.86,0.85,-0.86,-0.83,-1.26,3.00,3.01,3.01
24.89,3.90,0.91,3.90,0.91,-0.91,-0.87,-1.29,3.00,2.99,2.99
25.14,3.93,0.95,3.93,0.96,-0.96,-0.90,-1.32,2.97,2.98,2.98
25.39,3.97,1.01,3.97,1.01,-1.01,-0.94,-1.36,2.96,2.96,2.96
25.65,4.00,1.05,4.00,1.06,-1.06,-0.97,-1.39,2.94,2.94,2.95
25.91,4.04,1.12,4.04,1.11,-1.11,-1.00,-1.42,2.93,2.93,2.92
26.16,4.07,1.16,4.07,1.17,-1.16,-1.04,-1.46,2.91,2.91,2.91
26.43,4.11,1.21,4.11,1.22,-1.21,-1.07,-1.49,2.90,2.90,2.90
26.69,4.14,1.26,4.14,1.26,-1.26,-1.11,-1.52,2.88,2.88,2.88
26.96,4.17,1.30,4.17,1.31,-1.31,-1.14,-1.56,2.86,2.87,2.87
27.23,4.21,1.36,4.21,1.35,-1.35,-1.18,-1.59,2.86,2.85,2.86
27.50,4.23,1.39,4.24,1.40,-1.40,-1.22,-1.62,2.83,2.84,2.84
27.77,4.27,1.45,4.27,1.44,-1.44,-1.25,-1.66,2.83,2.82,2.82
28.05,4.30,1.49,4.30,1.49,-1.49,-1.29,-1.69,2.81,2.81,2.81
28.33,4.32,1.53,4.33,1.53,-1.53,-1.32,-1.72,2.79,2.80,2.79
28.62,4.36,1.58,4.35,1.57,-1.57,-1.36,-1.75,2.79,2.78,2.78
28.90,4.38,1.61,4.38,1.61,-1.61,-1.40,-1.78,2.77,2.77,2.77
29.19,4.40,1.65,4.41,1.65,-1.65,-1.43,-1.81,2.75,2.76,2.75
29.48,4.44,1.69,4.44,1.69,-1.69,-1.47,-1.84,2.75,2.75,2.75
29.78,4.47,1.73,4.47,1.73,-1.73,-1.51,-1.86,2.74,2.73,2.74
30.08,4.49,1.76,4.49,1.77,-1.77,-1.55,-1.89,2.72,2.72,2.73
30.38,4.51,1.81,4.52,1.81,-1.81,-1.58,-1.91,2.70,2.71,2.71
30.68,4.55,1.86,4.55,1.85,-1.85,-1.62,-1.93,2.70,2.69,2.69
30.99,4.58,1.91,4.58,1.90,-1.89,-1.66,-1.95,2.69,2.68,2.67
31.30,4.59,1.93,4.60,1.93,-1.93,-1.70,-1.97,2.66,2.67,2.66
31.61,4.62,1.97,4.62,1.97,-1.97,-1.73,-1.99,2.65,2.65,2.65
31.93,4.63,2.00,4.63,2.01,-2.01,-1.77,-2.01,2.62,2.63,2.63
32.24,4.65,2.05,4.65,2.04,-2.05,-1.81,-2.02,2.61,2.61,2.60
32.57,4.67,2.08,4.67,2.08,-2.08,-1.85,-2.04,2.59,2.59,2.59
32.89,4.68,2.11,4.69,2.12,-2.12,-1.89,-2.05,2.56,2.57,2.58
33.22,4.71,2.17,4.71,2.16,-2.16,-1.93,-2.06,2.56,2.55,2.54
33.55,4.72,2.19,4.72,2.19,-2.19,-1.97,-2.07,2.53,2.53,2.53
33.89,4.74,2.23,4.74,2.23,-2.23,-2.00,-2.08,2.51,2.51,2.51
34.23,4.75,2.26,4.75,2.27,-2.27,-2.04,-2.09,2.49,2.49,2.49
34.57,4.77,2.30,4.77,2.30,-2.30,-2.08,-2.10,2.47,2.47,2.47
34.92,4.79,2.35,4.79,2.34,-2.34,-2.12,-2.11,2.45,2.45,2.45
35.27,4.80,2.37,4.80,2.38,-2.38,-2.16,-2.12,2.43,2.43,2.43
35.62,4.82,2.41,4.82,2.41,-2.41,-2.20,-2.13,2.41,2.41,2.41
35.97,4.84,2.45,4.84,2.45,-2.45,-2.24,-2.14,2.39,2.39,2.39
36.33,4.86,2.48,4.86,2.49,-2.48,-2.28,-2.14,2.38,2.37,2.38
36.70,4.87,2.52,4.88,2.52,-2.52,-2.32,-2.15,2.35,2.36,2.36
37.06,4.89,2.56,4.89,2.55,-2.56,-2.36,-2.16,2.34,2.34,2.33
37.43,4.91,2.59,4.91,2.59,-2.59,-2.40,-2.17,2.32,2.32,2.32
37.81,4.92,2.62,4.92,2.63,-2.63,-2.43,-2.18,2.29,2.30,2.30
38.19,4.94,2.67,4.94,2.66,-2.66,-2.47,-2.19,2.28,2.28,2.28
38.57,4.95,2.69,4.95,2.69,-2.70,-2.51,-2.21,2.25,2.26,2.26
38.95,4.97,2.73,4.97,2.73,-2.73,-2.55,-2.22,2.24,2.24,2.24
39.34,4.98,2.77,4.98,2.77,-2.76,-2.59,-2.24,2.22,2.22,2.22
39.74,5.00,2.81,5.00,2.80,-2.80,-2.63,-2.25,2.20,2.20,2.19
40.14,5.01,2.82,5.01,2.83,-2.83,-2.67,-2.27,2.18,2.18,2.19
40.54,5.02,2.85,5.02,2.86,-2.86,-2.71,-2.29,2.16,2.17,2.17
40.94,5.04,2.89,5.04,2.89,-2.89,-2.75,-2.31,2.15,2.15,2.15
41.35,5.05,2.92,5.05,2.92,-2.92,-2.79,-2.33,2.14,2.14,2.13
41.76,5.07,2.95,5.07,2.95,-2.94,-2.83,-2.35,2.13,2.13,2.13
42.18,5.08,2.97,5.08,2.97,-2.97,-2.87,-2.38,2.11,2.11,2.11
42.60,5.09,3.00,5.09,3.00,-3.00,-2.91,-2.41,2.09,2.09,2.09
43.03,5.10,3.02,5.10,3.03,-3.03,-2.95,-2.44,2.07,2.07,2.08
43.46,5.12,3.06,5.12,3.06,-3.06,-2.98,-2.47,2.06,2.06,2.06
43.90,5.13,3.10,5.13,3.09,-3.09,-3.02,-2.50,2.04,2.04,2.03
44.33,5.15,3.13,5.15,3.13,-3.12,-3.06,-2.54,2.03,2.02,2.02
44.78,5.15,3.15,5.16,3.16,-3.16,-3.10,-2.57,2.00,2.00,2.01
45.23,5.17,3.19,5.17,3.19,-3.19,-3.14,-2.61,1.99,1.98,1.98
45.68,5.18,3.22,5.18,3.22,-3.21,-3.18,-2.65,1.97,1.97,1.96
46.13,5.20,3.25,5.20,3.25,-3.24,-3.22,-2.69,1.96,1.96,1.95
46.60,5.21,3.27,5.21,3.27,-3.27,-3.26,-2.74,1.94,1.94,1.94
47.06,5.22,3.29,5.22,3.29,-3.29,-3.29,-2.78,1.93,1.93,1.93
47.53,5.23,3.32,5.23,3.31,-3.32,-3.33,-2.83,1.91,1.91,1.91
48.01,5.24,3.34,5.24,3.34,-3.35,-3.37,-2.88,1.89,1.89,1.91
48.49,5.24,3.36,5.25,3.37,-3.37,-3.41,-2.93,1.87,1.87,1.88
48.97,5.25,3.40,5.25,3.40,-3.40,-3.45,-2.98,1.85,1.85,1.85
49.46,5.26,3.44,5.26,3.43,-3.43,-3.48,-3.04,1.83,1.83,1.82
49.96,5.26,3.46,5.27,3.46,-3.45,-3.52,-3.09,1.81,1.81,1.80
50.46,5.28,3.48,5.27,3.48,-3.48,-3.56,-3.15,1.80,1.80,1.80
50.96,5.28,3.50,5.28,3.51,-3.50,-3.60,-3.21,1.78,1.78,1.78
51.47,5.28,3.53,5.29,3.53,-3.53,-3.63,-3.26,1.75,1.76,1.75
51.99,5.29,3.56,5.29,3.55,-3.55,-3.67,-3.32,1.74,1.74,1.74
52.51,5.29,3.57,5.29,3.57,-3.57,-3.71,-3.38,1.72,1.72,1.73
53.03,5.30,3.59,5.30,3.59,-3.59,-3.74,-3.44,1.71,1.70,1.71
53.56,5.30,3.61,5.30,3.61,-3.62,-3.78,-3.50,1.68,1.69,1.69
54.10,5.31,3.64,5.31,3.64,-3.64,-3.82,-3.56,1.67,1.67,1.67
54.64,5.31,3.66,5.31,3.67,-3.67,-3.85,-3.62,1.65,1.65,1.65
55.18,5.32,3.69,5.32,3.69,-3.69,-3.89,-3.68,1.63,1.63,1.63
55.74,5.32,3.71,5.32,3.71,-3.71,-3.93,-3.74,1.61,1.61,1.61
56.29,5.33,3.74,5.33,3.74,-3.74,-3.96,-3.79,1.59,1.59,1.60
56.86,5.34,3.77,5.34,3.76,-3.76,-4.00,-3.85,1.58,1.57,1.57
57.42,5.34,3.79,5.34,3.79,-3.79,-4.03,-3.90,1.55,1.56,1.55
58.00,5.35,3.81,5.35,3.82,-3.81,-4.07,-3.95,1.54,1.54,1.54
58.58,5.36,3.84,5.36,3.84,-3.84,-4.10,-4.00,1.52,1.52,1.52
59.16,5.37,3.87,5.37,3.87,-3.87,-4.14,-4.04,1.51,1.51,1.50
59.76,5.38,3.89,5.38,3.89,-3.90,-4.17,-4.09,1.49,1.48,1.49
60.35,5.39,3.93,5.39,3.92,-3.93,-4.21,-4.13,1.46,1.47,1.47
60.96,5.40,3.94,5.40,3.95,-3.96,-4.24,-4.16,1.44,1.44,1.46
61.57,5.42,3.99,5.42,3.99,-3.99,-4.27,-4.20,1.43,1.43,1.43
62.18,5.43,4.03,5.43,4.03,-4.03,-4.31,-4.23,1.40,1.41,1.40
62.80,5.45,4.07,5.45,4.07,-4.06,-4.34,-4.25,1.39,1.39,1.38
63.43,5.46,4.10,5.46,4.10,-4.09,-4.37,-4.28,1.37,1.37,1.36
64.07,5.47,4.13,5.48,4.13,-4.13,-4.41,-4.30,1.35,1.35,1.34
64.71,5.49,4.16,5.49,4.16,-4.16,-4.44,-4.32,1.34,1.33,1.33
65.35,5.50,4.19,5.50,4.18,-4.19,-4.47,-4.33,1.32,1.32,1.32
66.01,5.51,4.20,5.52,4.21,-4.21,-4.51,-4.35,1.30,1.30,1.31
66.67,5.53,4.24,5.53,4.24,-4.24,-4.54,-4.36,1.29,1.29,1.29
67.33,5.54,4.26,5.54,4.26,-4.27,-4.57,-4.36,1.28,1.28,1.28
68.01,5.55,4.29,5.56,4.29,-4.29,-4.60,-4.37,1.26,1.26,1.26
68.69,5.57,4.32,5.57,4.32,-4.32,-4.63,-4.37,1.25,1.25,1.25
69.37,5.58,4.35,5.58,4.35,-4.35,-4.66,-4.38,1.23,1.23,1.23
70.07,5.59,4.38,5.60,4.38,-4.38,-4.69,-4.38,1.21,1.22,1.22
70.77,5.61,4.41,5.61,4.41,-4.41,-4.72,-4.38,1.20,1.20,1.20
71.48,5.62,4.44,5.62,4.44,-4.44,-4.75,-4.38,1.18,1.18,1.18
72.19,5.63,4.47,5.64,4.47,-4.47,-4.78,-4.38,1.16,1.16,1.17
72.91,5.65,4.51,5.64,4.50,-4.50,-4.81,-4.38,1.15,1.14,1.14
73.64,5.65,4.53,5.65,4.53,-4.54,-4.84,-4.39,1.11,1.12,1.12
74.38,5.66,4.56,5.67,4.57,-4.57,-4.87,-4.39,1.09,1.10,1.10
75.12,5.68,4.62,5.68,4.60,-4.61,-4.90,-4.39,1.08,1.07,1.07
75.87,5.69,4.64,5.69,4.64,-4.64,-4.93,-4.40,1.05,1.05,1.05
76.63,5.70,4.67,5.70,4.68,-4.67,-4.96,-4.41,1.03,1.03,1.03
77.40,5.71,4.71,5.71,4.71,-4.71,-4.99,-4.42,1.00,1.00,1.00
78.17,5.72,4.76,5.72,4.74,-4.74,-5.01,-4.43,0.98,0.98,0.97
78.95,5.73,4.77,5.73,4.78,-4.78,-5.04,-4.44,0.95,0.95,0.96
79.74,5.73,4.80,5.74,4.81,-4.81,-5.07,-4.46,0.92,0.92,0.93
80.54,5.74,4.84,5.74,4.85,-4.85,-5.10,-4.48,0.89,0.89,0.90
81.35,5.76,4.89,5.75,4.89,-4.89,-5.12,-4.50,0.87,0.87,0.87
82.16,5.76,4.93,5.77,4.93,-4.92,-5.15,-4.53,0.84,0.84,0.84
82.98,5.77,4.96,5.77,4.97,-4.96,-5.17,-4.55,0.81,0.81,0.81
83.81,5.78,5.01,5.78,5.00,-5.00,-5.20,-4.59,0.78,0.78,0.77
84.65,5.77,5.03,5.78,5.04,-5.04,-5.22,-4.62,0.73,0.74,0.74
85.50,5.79,5.08,5.79,5.07,-5.07,-5.25,-4.66,0.72,0.71,0.71
86.35,5.79,5.11,5.79,5.11,-5.11,-5.27,-4.70,0.68,0.68,0.68
87.22,5.79,5.14,5.80,5.15,-5.15,-5.29,-4.75,0.64,0.65,0.65
88.09,5.80,5.19,5.80,5.18,-5.19,-5.32,-4.80,0.62,0.61,0.61
88.97,5.80,5.22,5.80,5.22,-5.22,-5.34,-4.85,0.58,0.58,0.59
89.86,5.80,5.25,5.81,5.26,-5.26,-5.36,-4.91,0.54,0.55,0.55
90.76,5.81,5.31,5.81,5.30,-5.29,-5.38,-4.97,0.52,0.51,0.50
91.66,5.81,5.33,5.81,5.33,-5.33,-5.41,-5.03,0.48,0.48,0.48
92.58,5.80,5.37,5.81,5.37,-5.37,-5.43,-5.10,0.44,0.44,0.43
93.51,5.80,5.39,5.81,5.40,-5.40,-5.45,-5.17,0.40,0.41,0.41
94.44,5.81,5.44,5.81,5.43,-5.44,-5.47,-5.25,0.37,0.37,0.38
95.39,5.81,5.47,5.81,5.47,-5.47,-5.48,-5.32,0.34,0.33,0.34
96.34,5.80,5.51,5.80,5.51,-5.51,-5.50,-5.41,0.29,0.29,0.29
97.30,5.79,5.54,5.79,5.54,-5.54,-5.52,-5.49,0.25,0.25,0.25
98.28,5.79,5.58,5.79,5.58,-5.58,-5.54,-5.58,0.21,0.21,0.21
99.26,5.78,5.62,5.79,5.62,-5.62,-5.55,-5.67,0.16,0.17,0.16
100.25,5.78,5.66,5.78,5.65,-5.65,-5.57,-5.76,0.13,0.13,0.12
101.25,5.77,5.69,5.77,5.69,-5.68,-5.59,-5.85,0.09,0.08,0.09
102.27,5.75,5.72,5.76,5.72,-5.72,-5.60,-5.95,0.04,0.04,0.04
103.29,5.74,5.75,5.74,5.75,-5.75,-5.61,-6.04,-0.00,-0.01,-0.01
104.32,5.72,5.77,5.72,5.78,-5.78,-5.63,-6.14,-0.05,-0.05,-0.05
105.37,5.71,5.80,5.71,5.80,-5.80,-5.64,-6.24,-0.09,-0.10,-0.09
106.42,5.68,5.82,5.68,5.83,-5.83,-5.65,-6.34,-0.15,-0.15,-0.14
107.48,5.66,5.85,5.66,5.85,-5.86,-5.66,-6.43,-0.19,-0.19,-0.19
108.56,5.64,5.88,5.64,5.88,-5.88,-5.67,-6.53,-0.24,-0.24,-0.24
109.64,5.62,5.91,5.62,5.91,-5.91,-5.68,-6.62,-0.28,-0.28,-0.29
110.74,5.60,5.93,5.60,5.93,-5.93,-5.69,-6.71,-0.33,-0.33,-0.33
111.85,5.57,5.95,5.57,5.96,-5.95,-5.69,-6.79,-0.38,-0.38,-0.38
112.97,5.54,5.99,5.54,5.97,-5.97,-5.70,-6.87,-0.43,-0.44,-0.45
114.10,5.50,5.99,5.51,5.99,-5.99,-5.71,-6.95,-0.49,-0.49,-0.48
115.24,5.47,6.00,5.47,6.01,-6.01,-5.71,-7.01,-0.54,-0.54,-0.53
116.39,5.44,6.03,5.44,6.02,-6.02,-5.71,-7.08,-0.58,-0.59,-0.59
117.55,5.40,6.04,5.40,6.04,-6.03,-5.72,-7.13,-0.63,-0.63,-0.64
118.73,5.36,6.05,5.36,6.05,-6.04,-5.72,-7.17,-0.68,-0.68,-0.69
119.92,5.32,6.04,5.32,6.05,-6.05,-5.72,-7.20,-0.72,-0.72,-0.72
121.12,5.28,6.05,5.28,6.05,-6.05,-5.72,-7.23,-0.77,-0.77,-0.77
122.33,5.24,6.06,5.24,6.05,-6.05,-5.72,-7.24,-0.81,-0.81,-0.82
123.55,5.19,6.04,5.19,6.05,-6.05,-5.71,-7.25,-0.86,-0.86,-0.85
124.79,5.15,6.05,5.15,6.05,-6.05,-5.71,-7.24,-0.90,-0.90,-0.90
126.03,5.11,6.04,5.11,6.05,-6.05,-5.71,-7.22,-0.94,-0.94,-0.93
127.29,5.07,6.05,5.07,6.05,-6.06,-5.70,-7.18,-0.98,-0.98,-0.98
128.57,5.03,6.06,5.03,6.06,-6.06,-5.69,-7.14,-1.03,-1.02,-1.03
129.85,5.00,6.07,5.00,6.06,-6.06,-5.68,-7.09,-1.06,-1.06,-1.06
131.15,4.96,6.06,4.96,6.06,-6.06,-5.68,-7.03,-1.10,-1.10,-1.10
132.46,4.92,6.06,4.93,6.06,-6.06,-5.66,-6.95,-1.14,-1.13,-1.14
133.79,4.89,6.05,4.89,6.06,-6.06,-5.65,-6.87,-1.16,-1.17,-1.16
135.12,4.85,6.05,4.85,6.05,-6.05,-5.64,-6.77,-1.20,-1.20,-1.20
136.48,4.81,6.04,4.81,6.04,-6.04,-5.63,-6.67,-1.23,-1.23,-1.22
137.84,4.77,6.02,4.77,6.03,-6.03,-5.61,-6.56,-1.26,-1.25,-1.24
139.22,4.74,6.03,4.74,6.02,-6.02,-5.59,-6.45,-1.27,-1.28,-1.28
140.61,4.70,6.01,4.70,6.00,-6.00,-5.57,-6.33,-1.30,-1.30,-1.31
142.02,4.66,5.97,4.66,5.98,-5.98,-5.56,-6.21,-1.32,-1.32,-1.31
143.44,4.61,5.94,4.62,5.95,-5.95,-5.53,-6.08,-1.34,-1.34,-1.33
144.87,4.57,5.93,4.57,5.92,-5.93,-5.51,-5.95,-1.36,-1.36,-1.36
146.32,4.53,5.91,4.53,5.90,-5.90,-5.49,-5.82,-1.36,-1.37,-1.37
147.78,4.47,5.85,4.48,5.86,-5.86,-5.46,-5.68,-1.39,-1.38,-1.38
149.26,4.43,5.83,4.42,5.82,-5.82,-5.44,-5.55,-1.39,-1.40,-1.40
150.75,4.36,5.78,4.37,5.78,-5.78,-5.41,-5.41,-1.42,-1.42,-1.42
152.26,4.31,5.75,4.31,5.75,-5.74,-5.38,-5.27,-1.43,-1.43,-1.43
153.78,4.25,5.70,4.25,5.70,-5.70,-5.35,-5.14,-1.44,-1.45,-1.45
155.32,4.18,5.64,4.18,5.64,-5.65,-5.32,-5.00,-1.46,-1.46,-1.46
156.88,4.11,5.59,4.11,5.59,-5.59,-5.29,-4.87,-1.48,-1.48,-1.47
158.44,4.04,5.54,4.04,5.54,-5.54,-5.25,-4.73,-1.50,-1.50,-1.50
160.03,3.97,5.49,3.97,5.48,-5.48,-5.21,-4.60,-1.51,-1.51,-1.52
161.63,3.88,5.42,3.89,5.42,-5.42,-5.17,-4.47,-1.54,-1.53,-1.54
163.24,3.80,5.35,3.80,5.35,-5.35,-5.14,-4.34,-1.55,-1.55,-1.55
164.88,3.72,5.28,3.72,5.29,-5.29,-5.09,-4.22,-1.57,-1.57,-1.56
166.53,3.64,5.22,3.64,5.22,-5.22,-5.05,-4.09,-1.58,-1.58,-1.58
168.19,3.55,5.16,3.55,5.15,-5.15,-5.01,-3.97,-1.60,-1.60,-1.61
169.87,3.45,5.08,3.46,5.08,-5.08,-4.96,-3.85,-1.63,-1.62,-1.62
171.57,3.36,5.00,3.36,5.00,-5.00,-4.91,-3.74,-1.64,-1.65,-1.64
173.29,3.26,4.92,3.26,4.93,-4.93,-4.87,-3.62,-1.67,-1.67,-1.66
175.02,3.17,4.86,3.17,4.86,-4.86,-4.81,-3.51,-1.69,-1.69,-1.69
176.77,3.07,4.79,3.07,4.79,-4.79,-4.76,-3.40,-1.72,-1.72,-1.72
178.54,2.97,4.72,2.97,4.72,-4.72,-4.71,-3.30,-1.75,-1.74,-1.75
180.32,2.87,4.64,2.87,4.64,-4.65,-4.65,-3.19,-1.78,-1.78,-1.77
182.13,2.77,4.57,2.77,4.57,-4.58,-4.59,-3.09,-1.80,-1.80,-1.80
183.95,2.67,4.50,2.68,4.50,-4.51,-4.53,-2.99,-1.83,-1.83,-1.83
185.79,2.58,4.44,2.58,4.43,-4.44,-4.47,-2.90,-1.85,-1.86,-1.86
187.65,2.48,4.37,2.48,4.37,-4.36,-4.41,-2.80,-1.88,-1.88,-1.89
189.52,2.37,4.28,2.38,4.29,-4.29,-4.34,-2.71,-1.92,-1.91,-1.91
191.42,2.29,4.23,2.29,4.22,-4.22,-4.28,-2.62,-1.93,-1.93,-1.93
193.33,2.19,4.14,2.19,4.14,-4.14,-4.21,-2.54,-1.95,-1.95,-1.95
195.27,2.09,4.06,2.09,4.06,-4.06,-4.14,-2.45,-1.97,-1.97,-1.97
197.22,1.98,3.97,1.99,3.98,-3.98,-4.07,-2.37,-2.00,-1.99,-1.99
199.19,1.88,3.91,1.88,3.90,-3.90,-3.99,-2.29,-2.01,-2.01,-2.03
201.18,1.78,3.82,1.77,3.82,-3.81,-3.91,-2.21,-2.03,-2.03,-2.04
203.19,1.66,3.71,1.67,3.72,-3.72,-3.84,-2.14,-2.06,-2.05,-2.05
205.23,1.55,3.62,1.55,3.62,-3.62,-3.75,-2.06,-2.07,-2.07,-2.07
207.28,1.44,3.51,1.44,3.52,-3.52,-3.67,-1.99,-2.08,-2.09,-2.07
209.35,1.32,3.42,1.32,3.42,-3.42,-3.59,-1.92,-2.10,-2.10,-2.10
211.44,1.21,3.33,1.21,3.32,-3.32,-3.50,-1.85,-2.11,-2.11,-2.12
213.56,1.09,3.22,1.09,3.22,-3.22,-3.41,-1.78,-2.12,-2.12,-2.13
215.69,0.98,3.11,0.98,3.11,-3.11,-3.32,-1.72,-2.13,-2.13,-2.13
217.85,0.86,2.99,0.86,3.00,-3.01,-3.22,-1.65,-2.15,-2.14,-2.13
220.03,0.75,2.90,0.75,2.90,-2.90,-3.13,-1.59,-2.15,-2.15,-2.15
222.23,0.64,2.80,0.64,2.80,-2.80,-3.03,-1.53,-2.15,-2.15,-2.16
224.45,0.54,2.69,0.54,2.69,-2.69,-2.93,-1.47,-2.15,-2.15,-2.15
226.70,0.43,2.58,0.43,2.59,-2.58,-2.83,-1.41,-2.15,-2.15,-2.15
228.96,0.33,2.48,0.33,2.48,-2.48,-2.72,-1.36,-2.15,-2.15,-2.15
231.25,0.23,2.37,0.23,2.37,-2.37,-2.61,-1.30,-2.14,-2.14,-2.14
233.57,0.13,2.25,0.13,2.26,-2.26,-2.51,-1.25,-2.13,-2.13,-2.12
235.90,0.03,2.15,0.03,2.15,-2.15,-2.39,-1.19,-2.12,-2.12,-2.12
238.26,-0.06,2.06,-0.06,2.04,-2.04,-2.28,-1.14,-2.10,-2.10,-2.11
240.64,-0.17,1.92,-0.16,1.93,-1.92,-2.16,-1.09,-2.09,-2.09,-2.09
243.05,-0.26,1.82,-0.26,1.81,-1.81,-2.04,-1.05,-2.06,-2.07,-2.07
245.48,-0.37,1.68,-0.37,1.68,-1.68,-1.92,-1.00,-2.05,-2.05,-2.05
247.93,-0.48,1.56,-0.47,1.56,-1.56,-1.80,-0.95,-2.04,-2.03,-2.03
250.41,-0.58,1.44,-0.58,1.43,-1.43,-1.67,-0.91,-2.01,-2.01,-2.02
252.92,-0.69,1.30,-0.69,1.29,-1.30,-1.54,-0.86,-1.98,-1.99,-1.98
255.45,-0.81,1.15,-0.80,1.16,-1.16,-1.41,-0.82,-1.97,-1.96,-1.96
258.00,-0.92,1.01,-0.92,1.02,-1.02,-1.28,-0.78,-1.94,-1.94,-1.93
260.58,-1.02,0.90,-1.03,0.89,-0.89,-1.15,-0.74,-1.91,-1.91,-1.92
263.19,-1.14,0.75,-1.14,0.75,-0.75,-1.01,-0.70,-1.89,-1.89,-1.89
265.82,-1.25,0.62,-1.25,0.62,-0.61,-0.87,-0.66,-1.86,-1.86,-1.86
268.48,-1.36,0.48,-1.36,0.48,-0.48,-0.73,-0.62,-1.84,-1.84,-1.84
271.16,-1.46,0.34,-1.46,0.34,-0.35,-0.59,-0.58,-1.81,-1.81,-1.80
273.87,-1.57,0.22,-1.56,0.22,-0.22,-0.45,-0.54,-1.79,-1.79,-1.79
276.61,-1.66,0.09,-1.66,0.09,-0.10,-0.31,-0.51,-1.76,-1.76,-1.75
279.38,-1.75,-0.02,-1.75,-0.02,0.03,-0.16,-0.47,-1.72,-1.73,-1.73
282.17,-1.85,-0.14,-1.85,-0.14,0.15,-0.02,-0.43,-1.70,-1.70,-1.70
284.99,-1.94,-0.26,-1.94,-0.26,0.26,0.13,-0.40,-1.68,-1.67,-1.68
287.84,-2.03,-0.38,-2.03,-0.38,0.38,0.27,-0.36,-1.65,-1.65,-1.65
290.72,-2.11,-0.50,-2.11,-0.49,0.49,0.42,-0.33,-1.62,-1.62,-1.61
293.63,-2.20,-0.60,-2.20,-0.61,0.60,0.56,-0.29,-1.59,-1.59,-1.60
296.57,-2.28,-0.72,-2.27,-0.71,0.72,0.70,-0.26,-1.56,-1.56,-1.56
299.53,-2.35,-0.82,-2.35,-0.82,0.83,0.84,-0.23,-1.52,-1.53,-1.53
302.53,-2.43,-0.93,-2.43,-0.93,0.94,0.98,-0.19,-1.49,-1.49,-1.50
305.55,-2.51,-1.05,-2.50,-1.04,1.04,1.12,-0.16,-1.46,-1.46,-1.45
308.61,-2.57,-1.14,-2.58,-1.15,1.15,1.26,-0.12,-1.42,-1.43,-1.43
311.69,-2.65,-1.26,-2.64,-1.26,1.25,1.39,-0.09,-1.40,-1.39,-1.39
314.81,-2.71,-1.36,-2.71,-1.36,1.36,1.52,-0.06,-1.35,-1.36,-1.35
317.96,-2.78,-1.46,-2.78,-1.45,1.45,1.64,-0.02,-1.33,-1.32,-1.32
321.14,-2.84,-1.54,-2.84,-1.55,1.55,1.76,0.01,-1.29,-1.29,-1.29
324.35,-2.90,-1.63,-2.90,-1.64,1.64,1.87,0.05,-1.26,-1.26,-1.27
327.59,-2.96,-1.73,-2.96,-1.72,1.72,1.98,0.08,-1.24,-1.23,-1.23
330.87,-3.01,-1.81,-3.01,-1.81,1.80,2.07,0.12,-1.21,-1.21,-1.20
334.18,-3.06,-1.88,-3.06,-1.88,1.88,2.17,0.15,-1.18,-1.18,-1.18
337.52,-3.10,-1.95,-3.10,-1.95,1.95,2.25,0.19,-1.15,-1.15,-1.15
340.90,-3.15,-2.02,-3.15,-2.02,2.02,2.33,0.22,-1.13,-1.13,-1.12
344.30,-3.19,-2.08,-3.19,-2.09,2.09,2.40,0.26,-1.10,-1.10,-1.11
347.75,-3.23,-2.15,-3.23,-2.15,2.15,2.46,0.29,-1.08,-1.08,-1.08
351.23,-3.26,-2.20,-3.26,-2.20,2.21,2.51,0.33,-1.05,-1.05,-1.06
354.74,-3.30,-2.26,-3.30,-2.26,2.27,2.56,0.37,-1.03,-1.03,-1.04
358.28,-3.35,-2.33,-3.34,-2.33,2.33,2.59,0.41,-1.02,-1.01,-1.02
361.87,-3.39,-2.39,-3.39,-2.39,2.38,2.62,0.44,-1.00,-1.00,-1.00
365.49,-3.42,-2.45,-3.42,-2.44,2.43,2.63,0.48,-0.98,-0.99,-0.97
369.14,-3.45,-2.48,-3.45,-2.48,2.48,2.64,0.52,-0.97,-0.97,-0.96
372.83,-3.47,-2.52,-3.46,-2.52,2.52,2.64,0.56,-0.95,-0.94,-0.94
376.56,-3.47,-2.54,-3.47,-2.55,2.55,2.64,0.60,-0.91,-0.92,-0.93
380.33,-3.48,-2.58,-3.48,-2.58,2.58,2.62,0.64,-0.90,-0.90,-0.90
384.13,-3.48,-2.60,-3.48,-2.60,2.60,2.60,0.68,-0.88,-0.88,-0.88
387.97,-3.47,-2.61,-3.47,-2.62,2.61,2.57,0.72,-0.86,-0.86,-0.86
391.85,-3.46,-2.62,-3.45,-2.62,2.61,2.53,0.76,-0.84,-0.84,-0.84
395.77,-3.43,-2.62,-3.43,-2.61,2.61,2.49,0.80,-0.82,-0.81,-0.81
399.73,-3.39,-2.60,-3.40,-2.60,2.60,2.45,0.84,-0.78,-0.79,-0.79
403.72,-3.36,-2.59,-3.36,-2.59,2.59,2.40,0.88,-0.77,-0.77,-0.77
407.76,-3.32,-2.57,-3.32,-2.57,2.57,2.34,0.92,-0.75,-0.75,-0.75
411.84,-3.27,-2.55,-3.27,-2.54,2.54,2.28,0.96,-0.73,-0.73,-0.72
415.96,-3.21,-2.51,-3.21,-2.51,2.50,2.22,1.00,-0.70,-0.71,-0.70
420.12,-3.15,-2.46,-3.15,-2.47,2.47,2.16,1.04,-0.68,-0.68,-0.68
424.32,-3.08,-2.42,-3.08,-2.42,2.42,2.09,1.08,-0.66,-0.66,-0.65
428.56,-3.01,-2.37,-3.01,-2.37,2.37,2.02,1.12,-0.64,-0.64,-0.64
432.85,-2.93,-2.31,-2.93,-2.32,2.32,1.95,1.16,-0.61,-0.61,-0.62
437.18,-2.85,-2.26,-2.85,-2.26,2.26,1.88,1.19,-0.59,-0.59,-0.59
441.55,-2.76,-2.20,-2.76,-2.20,2.20,1.81,1.23,-0.56,-0.56,-0.56
445.96,-2.67,-2.13,-2.67,-2.14,2.14,1.73,1.26,-0.53,-0.53,-0.54
450.42,-2.59,-2.07,-2.59,-2.08,2.08,1.66,1.29,-0.51,-0.51,-0.52
454.93,-2.51,-2.03,-2.50,-2.02,2.02,1.59,1.32,-0.49,-0.48,-0.48
459.48,-2.42,-1.96,-2.42,-1.96,1.96,1.52,1.35,-0.46,-0.46,-0.46
464.07,-2.33,-1.90,-2.33,-1.91,1.90,1.45,1.38,-0.43,-0.43,-0.43
468.71,-2.24,-1.85,-2.24,-1.84,1.84,1.37,1.40,-0.40,-0.40,-0.39
473.40,-2.15,-1.78,-2.15,-1.78,1.78,1.30,1.43,-0.37,-0.37,-0.37
478.13,-2.05,-1.71,-2.05,-1.71,1.71,1.23,1.44,-0.34,-0.34,-0.34
482.91,-1.96,-1.65,-1.96,-1.65,1.64,1.17,1.46,-0.31,-0.31,-0.31
487.74,-1.86,-1.58,-1.85,-1.57,1.57,1.10,1.48,-0.29,-0.28,-0.28
492.62,-1.75,-1.50,-1.75,-1.50,1.50,1.03,1.49,-0.25,-0.25,-0.25
497.55,-1.64,-1.41,-1.64,-1.42,1.42,0.97,1.50,-0.22,-0.22,-0.23
