frequency,raw
20,2.45
21,2.69
22,2.92
23,3.15
24,3.38
25,3.60
26,3.81
27,4.01
28,4.19
29,4.36
30,4.53
31,4.67
32,4.77
33,4.87
34,4.95
35,5.02
36,5.10
37,5.16
38,5.22
39,5.27
40,5.32
41,5.36
42,5.40
43,5.44
44,5.47
45,5.49
46,5.51
47,5.53
48,5.54
49,5.54
50,5.55
51,5.55
52,5.55
53,5.54
54,5.53
55,5.52
56,5.51
57,5.50
58,5.48
59,5.47
60,5.45
61,5.44
62,5.43
63,5.43
64,5.43
65,5.41
66,5.37
67,5.33
68,5.28
69,5.23
70,5.18
71,5.14
72,5.10
73,5.07
74,5.05
75,5.02
76,4.97
77,4.92
78,4.88
79,4.84
80,4.80
81,4.77
82,4.73
83,4.68
84,4.64
85,4.59
86,4.54
87,4.49
88,4.44
89,4.41
90,4.36
91,4.31
92,4.27
93,4.21
94,4.17
95,4.12
96,4.08
97,4.04
98,3.99
99,3.94
100,3.89
101,3.83
102,3.76
104,3.66
105,3.62
106,3.58
107,3.55
108,3.51
109,3.48
110,3.44
111,3.40
112,3.35
113,3.31
114,3.26
115,3.22
117,3.12
118,3.07
119,3.03
120,3.00
121,2.97
123,2.92
124,2.90
125,2.86
126,2.82
128,2.72
129,2.67
130,2.61
131,2.57
133,2.49
134,2.47
135,2.45
137,2.40
138,2.36
140,2.27
141,2.22
142,2.18
144,2.10
145,2.06
147,2.01
148,1.99
150,1.94
151,1.91
153,1.84
154,1.80
156,1.71
157,1.67
159,1.59
160,1.56
162,1.50
164,1.46
165,1.43
167,1.37
169,1.30
170,1.26
172,1.17
174,1.10
175,1.06
177,0.99
179,0.91
181,0.84
183,0.79
184,0.76
186,0.73
188,0.69
190,0.64
192,0.57
194,0.50
196,0.43
198,0.35
200,0.27
202,0.20
204,0.14
206,0.08
208,0.01
210,-0.04
212,-0.11
214,-0.16
216,-0.21
218,-0.27
221,-0.35
223,-0.42
225,-0.49
227,-0.55
229,-0.62
232,-0.70
234,-0.76
236,-0.80
239,-0.87
241,-0.91
244,-0.98
246,-1.03
248,-1.07
251,-1.14
253,-1.19
256,-1.26
259,-1.33
261,-1.37
264,-1.44
266,-1.49
269,-1.56
272,-1.63
274,-1.68
277,-1.75
280,-1.82
283,-1.90
286,-1.98
288,-2.03
291,-2.12
294,-2.20
297,-2.28
300,-2.37
303,-2.46
306,-2.55
309,-2.64
312,-2.74
316,-2.86
319,-2.95
322,-3.05
325,-3.14
328,-3.23
332,-3.34
335,-3.43
338,-3.52
342,-3.65
345,-3.74
349,-3.87
352,-3.96
356,-4.09
359,-4.18
363,-4.30
366,-4.39
370,-4.50
374,-4.60
377,-4.67
381,-4.75
385,-4.82
389,-4.88
393,-4.93
397,-4.96
401,-4.98
405,-4.98
409,-4.98
413,-4.95
417,-4.91
421,-4.87
425,-4.80
430,-4.71
434,-4.64
438,-4.55
443,-4.44
447,-4.34
451,-4.21
456,-4.02
460,-3.86
465,-3.63
470,-3.42
474,-3.26
479,-3.07
484,-2.90
489,-2.76
494,-2.62
499,-2.48
504,-2.35
509,-2.22
514,-2.10
519,-1.99
524,-1.90
529,-1.82
535,-1.74
540,-1.68
545,-1.64
551,-1.60
556,-1.57
562,-1.55
568,-1.55
573,-1.55
579,-1.56
585,-1.58
591,-1.61
596,-1.64
602,-1.67
608,-1.69
615,-1.72
621,-1.74
627,-1.75
633,-1.77
639,-1.77
646,-1.78
652,-1.78
659,-1.79
665,-1.79
672,-1.78
679,-1.78
686,-1.76
692,-1.75
699,-1.74
706,-1.71
713,-1.68
721,-1.65
728,-1.59
735,-1.53
742,-1.46
750,-1.38
757,-1.31
765,-1.24
773,-1.17
780,-1.12
788,-1.05
796,-0.99
804,-0.95
812,-0.89
820,-0.85
828,-0.82
837,-0.76
845,-0.72
853,-0.66
862,-0.61
871,-0.55
879,-0.52
888,-0.48
897,-0.46
906,-0.43
915,-0.41
924,-0.38
933,-0.35
943,-0.31
952,-0.26
962,-0.22
971,-0.16
981,-0.09
991,-0.04
1001,0.00
1011,0.03
1021,0.03
1031,0.03
1041,-0.01
1052,-0.04
1062,-0.07
1073,-0.10
1084,-0.13
1094,-0.16
1105,-0.20
1116,-0.23
1128,-0.27
1139,-0.31
1150,-0.35
1162,-0.38
1173,-0.41
1185,-0.43
1197,-0.45
1209,-0.47
1221,-0.50
1233,-0.54
1246,-0.58
1258,-0.63
1271,-0.67
1283,-0.72
1296,-0.78
1309,-0.84
1322,-0.90
1335,-0.97
1349,-1.03
1362,-1.10
1376,-1.17
1390,-1.23
1404,-1.29
1418,-1.33
1432,-1.37
1446,-1.41
1461,-1.46
1475,-1.50
1490,-1.56
1505,-1.62
1520,-1.68
1535,-1.76
1550,-1.85
1566,-1.96
1582,-2.09
1597,-2.22
1613,-2.37
1629,-2.49
1646,-2.57
1662,-2.63
1679,-2.63
1696,-2.61
1713,-2.59
1730,-2.56
1747,-2.54
1764,-2.52
1782,-2.51
1800,-2.51
1818,-2.51
1836,-2.51
1854,-2.51
1873,-2.48
1892,-2.44
1911,-2.40
1930,-2.34
1949,-2.29
1969,-2.24
1988,-2.19
2008,-2.12
2028,-2.06
2048,-2.00
2069,-1.92
2090,-1.86
2111,-1.79
2132,-1.72
2153,-1.64
2175,-1.55
2196,-1.46
2218,-1.35
2240,-1.23
2263,-1.10
2285,-0.97
2308,-0.85
2331,-0.73
2355,-0.60
2378,-0.48
2402,-0.32
2426,-0.16
2450,0.01
2475,0.22
2500,0.44
2525,0.65
2550,0.89
2575,1.12
2601,1.36
2627,1.58
2653,1.75
2680,1.91
2707,2.02
2734,2.06
2761,2.09
2789,2.09
2817,2.06
2845,2.05
2873,2.02
2902,2.06
2931,2.12
2960,2.21
2990,2.34
3020,2.47
3050,2.60
3080,2.70
3111,2.78
3142,2.85
3174,2.88
3206,2.89
3238,2.89
3270,2.87
3303,2.81
3336,2.72
3369,2.63
3403,2.50
3437,2.39
3471,2.28
3506,2.19
3541,2.14
3576,2.14
3612,2.23
3648,2.43
3685,2.71
3721,3.07
3759,3.51
3796,3.96
3834,4.42
3873,4.83
3911,5.18
3950,5.49
3990,5.74
4030,5.95
4070,6.15
4111,6.29
4152,6.39
4193,6.43
4235,6.39
4278,6.25
4321,6.08
4364,5.87
4407,5.61
4451,5.35
4496,5.07
4541,4.82
4586,4.62
4632,4.46
4679,4.39
4725,4.35
4773,4.32
4820,4.30
4868,4.25
4917,4.18
4966,4.10
5016,4.05
5066,4.04
5117,4.04
5168,4.05
5220,4.07
5272,4.06
5325,4.02
5378,3.98
5432,3.93
5486,3.88
5541,3.83
5596,3.78
5652,3.70
5709,3.61
5766,3.52
5823,3.42
5882,3.36
5940,3.32
6000,3.29
6060,3.35
6120,3.43
6182,3.56
6244,3.78
6306,4.01
6369,4.27
6433,4.54
6497,4.70
6562,4.78
6628,4.69
6694,4.41
6761,4.03
6828,3.56
6897,2.99
6966,2.45
7035,1.93
7106,1.46
7177,1.08
7249,0.73
7321,0.45
7394,0.21
7468,0.01
7543,-0.15
7618,-0.28
7694,-0.38
7771,-0.47
7849,-0.52
7928,-0.54
8007,-0.54
8087,-0.40
8168,-0.17
8250,0.14
8332,0.62
8415,1.13
8499,1.68
8584,2.22
8670,2.64
8757,2.93
8845,3.01
8933,3.05
9022,2.86
9113,2.27
9204,1.78
9296,1.33
9389,0.31
9483,-0.74
9577,-1.66
9673,-2.57
9770,-3.51
9868,-4.48
9966,-5.44
10066,-6.36
10167,-7.16
10268,-7.84
10371,-8.41
10475,-8.76
10579,-8.90
10685,-8.82
10792,-8.56
10900,-8.25
11009,-7.92
11119,-7.55
11230,-7.18
11343,-6.67
11456,-6.17
11571,-6.43
11686,-6.92
11803,-6.77
11921,-7.15
12040,-7.77
12161,-8.04
12282,-8.67
12405,-9.31
12529,-9.86
12655,-10.33
12781,-10.74
12909,-11.08
13038,-11.28
13168,-11.42
13300,-11.40
13433,-11.27
13567,-11.23
13703,-11.26
13840,-11.52
13978,-11.82
14118,-12.16
14259,-12.53
14402,-13.01
14546,-13.59
14692,-14.30
14838,-15.31
14987,-16.47
15137,-17.74
15288,-19.04
15441,-20.15
15595,-21.04
15751,-21.50
15909,-21.55
16068,-21.35
16229,-20.91
16391,-20.29
16555,-19.59
16720,-18.83
16888,-18.01
17056,-17.21
17227,-16.41
17399,-15.74
17573,-15.22
17749,-14.85
17926,-14.78
18106,-14.90
18287,-15.14
18470,-15.46
18654,-15.74
18841,-15.96
19029,-16.08
19220,-16.10
19412,-16.08
19606,-16.01
19802,-15.87
20000,-15.70
