frequency,raw
20,-3.22
21,-2.65
22,-2.09
23,-1.56
24,-1.06
25,-0.58
26,-0.13
27,0.30
28,0.70
29,1.08
30,1.44
31,1.75
32,2.04
33,2.31
34,2.56
35,2.79
36,2.99
37,3.19
38,3.37
39,3.54
40,3.69
41,3.83
42,3.97
43,4.10
44,4.21
45,4.31
46,4.41
47,4.50
48,4.60
49,4.68
50,4.75
51,4.83
52,4.91
53,4.99
54,5.07
55,5.14
56,5.21
57,5.26
58,5.31
59,5.36
60,5.40
61,5.46
62,5.51
63,5.56
64,5.60
65,5.64
66,5.68
67,5.72
68,5.75
69,5.77
70,5.79
71,5.82
72,5.85
73,5.86
74,5.87
75,5.86
76,5.85
77,5.84
78,5.84
79,5.86
80,5.88
81,5.91
82,5.94
83,5.98
84,6.01
85,6.05
86,6.08
87,6.11
88,6.14
89,6.16
90,6.18
91,6.20
92,6.20
93,6.20
94,6.19
95,6.18
96,6.18
97,6.18
98,6.18
99,6.18
100,6.18
101,6.18
102,6.18
104,6.18
105,6.18
106,6.18
107,6.18
108,6.18
109,6.18
110,6.18
111,6.18
112,6.18
113,6.18
114,6.18
115,6.18
117,6.18
118,6.18
119,6.19
120,6.20
121,6.20
123,6.20
124,6.18
125,6.16
126,6.14
128,6.11
129,6.08
130,6.05
131,6.01
133,5.98
134,5.94
135,5.91
137,5.89
138,5.86
140,5.84
141,5.83
142,5.83
144,5.83
145,5.84
147,5.85
148,5.85
150,5.85
151,5.85
153,5.85
154,5.85
156,5.86
157,5.87
159,5.88
160,5.87
162,5.86
164,5.85
165,5.82
167,5.80
169,5.77
170,5.73
172,5.70
174,5.66
175,5.63
177,5.60
179,5.57
181,5.54
183,5.52
184,5.51
186,5.50
188,5.51
190,5.52
192,5.53
194,5.54
196,5.54
198,5.55
200,5.55
202,5.54
204,5.53
206,5.51
208,5.48
210,5.45
212,5.42
214,5.39
216,5.36
218,5.32
221,5.29
223,5.26
225,5.23
227,5.21
229,5.20
232,5.19
234,5.20
236,5.21
239,5.22
241,5.22
244,5.20
246,5.18
248,5.16
251,5.13
253,5.10
256,5.06
259,5.03
261,5.00
264,4.98
266,4.95
269,4.93
272,4.89
274,4.86
277,4.83
280,4.80
283,4.78
286,4.76
288,4.73
291,4.70
294,4.67
297,4.65
300,4.62
303,4.59
306,4.56
309,4.52
312,4.49
316,4.46
319,4.44
322,4.42
325,4.39
328,4.35
332,4.32
335,4.29
338,4.26
342,4.24
345,4.22
349,4.22
352,4.22
356,4.23
359,4.24
363,4.24
366,4.23
370,4.21
374,4.19
377,4.16
381,4.13
385,4.10
389,4.07
393,4.04
397,4.02
401,3.99
405,3.95
409,3.92
413,3.88
417,3.84
421,3.81
425,3.80
430,3.78
434,3.75
438,3.71
443,3.66
447,3.61
451,3.56
456,3.52
460,3.48
465,3.44
470,3.41
474,3.37
479,3.33
484,3.28
489,3.23
494,3.18
499,3.14
504,3.11
509,3.08
514,3.05
519,3.02
524,2.97
529,2.93
535,2.88
540,2.83
545,2.79
551,2.76
556,2.74
562,2.72
568,2.70
573,2.67
579,2.64
585,2.61
591,2.57
596,2.54
602,2.51
608,2.50
615,2.48
621,2.46
627,2.42
633,2.38
639,2.34
646,2.29
652,2.24
659,2.19
665,2.15
672,2.12
679,2.10
686,2.08
692,2.06
699,2.02
706,1.98
713,1.94
721,1.90
728,1.86
735,1.84
742,1.83
750,1.80
757,1.76
765,1.71
773,1.66
780,1.62
788,1.58
796,1.53
804,1.48
812,1.43
820,1.40
828,1.37
837,1.32
845,1.25
853,1.19
862,1.14
871,1.08
879,1.02
888,0.96
897,0.90
906,0.83
915,0.75
924,0.67
933,0.59
943,0.51
952,0.42
962,0.34
971,0.26
981,0.16
991,0.07
1001,-0.01
1011,-0.09
1021,-0.17
1031,-0.26
1041,-0.33
1052,-0.41
1062,-0.49
1073,-0.57
1084,-0.63
1094,-0.70
1105,-0.76
1116,-0.82
1128,-0.87
1139,-0.91
1150,-0.94
1162,-0.95
1173,-0.94
1185,-0.93
1197,-0.91
1209,-0.88
1221,-0.84
1233,-0.78
1246,-0.73
1258,-0.69
1271,-0.66
1283,-0.64
1296,-0.63
1309,-0.65
1322,-0.69
1335,-0.77
1349,-0.88
1362,-1.02
1376,-1.18
1390,-1.36
1404,-1.55
1418,-1.76
1432,-1.99
1446,-2.22
1461,-2.48
1475,-2.73
1490,-2.99
1505,-3.24
1520,-3.48
1535,-3.71
1550,-3.92
1566,-4.10
1582,-4.25
1597,-4.37
1613,-4.45
1629,-4.48
1646,-4.46
1662,-4.40
1679,-4.28
1696,-4.11
1713,-3.90
1730,-3.66
1747,-3.40
1764,-3.13
1782,-2.86
1800,-2.58
1818,-2.30
1836,-2.02
1854,-1.77
1873,-1.53
1892,-1.30
1911,-1.09
1930,-0.90
1949,-0.70
1969,-0.51
1988,-0.32
2008,-0.15
2028,0.03
2048,0.22
2069,0.39
2090,0.57
2111,0.73
2132,0.89
2153,1.05
2175,1.21
2196,1.37
2218,1.51
2240,1.65
2263,1.77
2285,1.88
2308,1.99
2331,2.10
2355,2.20
2378,2.29
2402,2.36
2426,2.42
2450,2.47
2475,2.53
2500,2.56
2525,2.59
2550,2.61
2575,2.62
2601,2.62
2627,2.63
2653,2.63
2680,2.63
2707,2.62
2734,2.62
2761,2.63
2789,2.63
2817,2.62
2845,2.61
2873,2.60
2902,2.58
2931,2.56
2960,2.53
2990,2.49
3020,2.44
3050,2.38
3080,2.31
3111,2.23
3142,2.15
3174,2.06
3206,1.96
3238,1.85
3270,1.74
3303,1.64
3336,1.53
3369,1.40
3403,1.28
3437,1.14
3471,1.00
3506,0.86
3541,0.70
3576,0.52
3612,0.32
3648,0.11
3685,-0.12
3721,-0.35
3759,-0.61
3796,-0.86
3834,-1.13
3873,-1.40
3911,-1.67
3950,-1.94
3990,-2.19
4030,-2.43
4070,-2.66
4111,-2.86
4152,-3.04
4193,-3.19
4235,-3.30
4278,-3.37
4321,-3.43
4364,-3.46
4407,-3.44
4451,-3.40
4496,-3.33
4541,-3.24
4586,-3.13
4632,-3.01
4679,-2.88
4725,-2.72
4773,-2.56
4820,-2.40
4868,-2.23
4917,-2.06
4966,-1.88
5016,-1.68
5066,-1.48
5117,-1.27
5168,-1.05
5220,-0.85
5272,-0.64
5325,-0.42
5378,-0.18
5432,0.06
5486,0.31
5541,0.57
5596,0.84
5652,1.14
5709,1.45
5766,1.78
5823,2.13
5882,2.48
5940,2.84
6000,3.21
6060,3.58
6120,3.95
6182,4.31
6244,4.66
6306,4.99
6369,5.31
6433,5.61
6497,5.92
6562,6.21
6628,6.48
6694,6.73
6761,6.97
6828,7.19
6897,7.42
6966,7.63
7035,7.83
7106,8.03
7177,8.21
7249,8.39
7321,8.56
7394,8.72
7468,8.86
7543,8.99
7618,9.12
7694,9.23
7771,9.31
7849,9.39
7928,9.45
8007,9.48
8087,9.47
8168,9.44
8250,9.39
8332,9.31
8415,9.22
8499,9.11
8584,8.97
8670,8.81
8757,8.64
8845,8.43
8933,8.20
9022,7.96
9113,7.69
9204,7.40
9296,7.10
9389,6.78
9483,6.46
9577,6.13
9673,5.79
9770,5.46
9868,5.13
9966,4.82
10066,4.52
10167,4.26
10268,4.04
10371,3.86
10475,3.73
10579,3.65
10685,3.63
10792,3.66
10900,3.73
11009,3.84
11119,3.97
11230,4.14
11343,4.34
11456,4.55
11571,4.76
11686,4.97
11803,5.17
11921,5.36
12040,5.53
12161,5.65
12282,5.74
12405,5.80
12529,5.81
12655,5.78
12781,5.72
12909,5.61
13038,5.46
13168,5.27
13300,5.01
13433,4.72
13567,4.39
13703,4.06
13840,3.70
13978,3.32
14118,2.93
14259,2.55
14402,2.17
14546,1.80
14692,1.43
14838,1.07
14987,0.72
15137,0.38
15288,0.05
15441,-0.28
15595,-0.59
15751,-0.90
15909,-1.20
16068,-1.51
16229,-1.80
16391,-2.09
16555,-2.37
16720,-2.64
16888,-2.91
17056,-3.18
17227,-3.44
17399,-3.69
17573,-3.93
17749,-4.16
17926,-4.38
18106,-4.59
18287,-4.76
18470,-4.92
18654,-5.06
18841,-5.19
19029,-5.30
19220,-5.39
19412,-5.47
19606,-5.54
19802,-5.59
20000,-5.62
