frequency,raw
20.00,-2.65
20.20,-2.57
20.40,-2.50
20.61,-2.42
20.81,-2.35
21.02,-2.27
21.23,-2.20
21.44,-2.12
21.66,-2.04
21.87,-1.96
22.09,-1.89
22.31,-1.81
22.54,-1.73
22.76,-1.65
22.99,-1.57
23.22,-1.49
23.45,-1.40
23.69,-1.31
23.92,-1.23
24.16,-1.14
24.40,-1.06
24.65,-0.98
24.89,-0.90
25.14,-0.81
25.39,-0.74
25.65,-0.66
25.91,-0.58
26.16,-0.49
26.43,-0.41
26.69,-0.32
26.96,-0.23
27.23,-0.15
27.50,-0.06
27.77,0.03
28.05,0.12
28.33,0.20
28.62,0.28
28.90,0.36
29.19,0.44
29.48,0.53
29.78,0.61
30.08,0.69
30.38,0.78
30.68,0.86
30.99,0.95
31.30,1.02
31.61,1.10
31.93,1.17
32.24,1.24
32.57,1.32
32.89,1.39
33.22,1.45
33.55,1.50
33.89,1.56
34.23,1.61
34.57,1.66
34.92,1.71
35.27,1.75
35.62,1.79
35.97,1.84
36.33,1.87
36.70,1.91
37.06,1.95
37.43,1.99
37.81,2.03
38.19,2.07
38.57,2.11
38.95,2.15
39.34,2.18
39.74,2.22
40.14,2.25
40.54,2.28
40.94,2.32
41.35,2.35
41.76,2.38
42.18,2.41
42.60,2.44
43.03,2.47
43.46,2.50
43.90,2.53
44.33,2.56
44.78,2.59
45.23,2.61
45.68,2.64
46.13,2.67
46.60,2.69
47.06,2.71
47.53,2.73
48.01,2.75
48.49,2.77
48.97,2.79
49.46,2.81
49.96,2.83
50.46,2.85
50.96,2.87
51.47,2.89
51.99,2.91
52.51,2.94
53.03,2.96
53.56,3.01
54.10,3.05
54.64,3.10
55.18,3.15
55.74,3.21
56.29,3.27
56.86,3.32
57.42,3.37
58.00,3.42
58.58,3.45
59.16,3.49
59.76,3.52
60.35,3.54
60.96,3.57
61.57,3.60
62.18,3.63
62.80,3.66
63.43,3.70
64.07,3.74
64.71,3.78
65.35,3.80
66.01,3.83
66.67,3.86
67.33,3.89
68.01,3.92
68.69,3.95
69.37,3.98
70.07,4.01
70.77,4.06
71.48,4.11
72.19,4.17
72.91,4.22
73.64,4.29
74.38,4.37
75.12,4.44
75.87,4.52
76.63,4.59
77.40,4.66
78.17,4.75
78.95,4.83
79.74,4.90
80.54,4.97
81.35,5.01
82.16,5.02
82.98,5.01
83.81,4.98
84.65,4.94
85.50,4.89
86.35,4.85
87.22,4.81
88.09,4.78
88.97,4.78
89.86,4.77
90.76,4.77
91.66,4.78
92.58,4.80
93.51,4.81
94.44,4.81
95.39,4.82
96.34,4.83
97.30,4.84
98.28,4.83
99.26,4.83
100.25,4.83
101.25,4.83
102.27,4.85
103.29,4.89
104.32,4.92
105.37,4.97
106.42,5.02
107.48,5.07
108.56,5.10
109.64,5.11
110.74,5.09
111.85,5.03
112.97,4.95
114.10,4.85
115.24,4.75
116.39,4.66
117.55,4.58
118.73,4.55
119.92,4.56
121.12,4.60
122.33,4.65
123.55,4.71
124.79,4.75
126.03,4.78
127.29,4.79
128.57,4.78
129.85,4.76
131.15,4.76
132.46,4.75
133.79,4.74
135.12,4.74
136.48,4.71
137.84,4.67
139.22,4.63
140.61,4.58
142.02,4.51
143.44,4.45
144.87,4.39
146.32,4.32
147.78,4.26
149.26,4.19
150.75,4.13
152.26,4.08
153.78,4.03
155.32,3.99
156.88,3.98
158.44,3.96
160.03,3.95
161.63,3.91
163.24,3.85
164.88,3.78
166.53,3.69
168.19,3.59
169.87,3.50
171.57,3.41
173.29,3.34
175.02,3.28
176.77,3.22
178.54,3.15
180.32,3.08
182.13,3.00
183.95,2.93
185.79,2.85
187.65,2.76
189.52,2.64
191.42,2.50
193.33,2.37
195.27,2.22
197.22,2.07
199.19,1.94
201.18,1.82
203.19,1.70
205.23,1.57
207.28,1.42
209.35,1.25
211.44,1.05
213.56,0.86
215.69,0.68
217.85,0.50
220.03,0.35
222.23,0.19
224.45,0.03
226.70,-0.15
228.96,-0.33
231.25,-0.53
233.57,-0.74
235.90,-0.96
238.26,-1.22
240.64,-1.50
243.05,-1.79
245.48,-2.09
247.93,-2.38
250.41,-2.65
252.92,-2.90
255.45,-3.16
258.00,-3.44
260.58,-3.74
263.19,-4.10
265.82,-4.47
268.48,-4.86
271.16,-5.26
273.87,-5.64
276.61,-6.01
279.38,-6.38
282.17,-6.76
284.99,-7.17
287.84,-7.62
290.72,-8.12
293.63,-8.65
296.57,-9.20
299.53,-9.73
302.53,-10.24
305.55,-10.71
308.61,-11.15
311.69,-11.54
314.81,-11.87
317.96,-12.14
321.14,-12.33
324.35,-12.45
327.59,-12.47
330.87,-12.41
334.18,-12.29
337.52,-12.13
340.90,-11.89
344.30,-11.63
347.75,-11.32
351.23,-10.98
354.74,-10.59
358.28,-10.16
361.87,-9.72
365.49,-9.27
369.14,-8.83
372.83,-8.41
376.56,-7.99
380.33,-7.58
384.13,-7.18
387.97,-6.79
391.85,-6.42
395.77,-6.07
399.73,-5.74
403.72,-5.44
407.76,-5.15
411.84,-4.89
415.96,-4.63
420.12,-4.38
424.32,-4.12
428.56,-3.87
432.85,-3.62
437.18,-3.38
441.55,-3.19
445.96,-3.03
450.42,-2.93
454.93,-2.86
459.48,-2.81
464.07,-2.76
468.71,-2.71
473.40,-2.67
478.13,-2.64
482.91,-2.61
487.74,-2.58
492.62,-2.53
497.55,-2.46
502.52,-2.40
507.55,-2.33
512.62,-2.26
517.75,-2.20
522.93,-2.16
528.16,-2.12
533.44,-2.09
538.77,-2.07
544.16,-2.07
549.60,-2.10
555.10,-2.13
560.65,-2.16
566.25,-2.19
571.92,-2.20
577.64,-2.20
583.41,-2.17
589.25,-2.14
595.14,-2.11
601.09,-2.08
607.10,-2.05
613.17,-2.04
619.30,-2.02
625.50,-1.96
631.75,-1.88
638.07,-1.77
644.45,-1.63
650.89,-1.50
657.40,-1.39
663.98,-1.34
670.62,-1.30
677.32,-1.28
684.10,-1.27
690.94,-1.25
697.85,-1.23
704.83,-1.19
711.87,-1.15
718.99,-1.11
726.18,-1.06
733.44,-0.99
740.78,-0.91
748.19,-0.83
755.67,-0.75
763.23,-0.68
770.86,-0.60
778.57,-0.52
786.35,-0.43
794.22,-0.33
802.16,-0.26
810.18,-0.21
818.28,-0.20
826.46,-0.24
834.73,-0.31
843.08,-0.39
851.51,-0.47
860.02,-0.51
868.62,-0.54
877.31,-0.57
886.08,-0.57
894.94,-0.57
903.89,-0.55
912.93,-0.53
922.06,-0.51
931.28,-0.50
940.59,-0.48
950.00,-0.46
959.50,-0.43
969.09,-0.37
978.78,-0.27
988.57,-0.16
998.46,-0.03
1008.44,0.12
1018.53,0.24
1028.71,0.31
1039.00,0.33
1049.39,0.31
1059.88,0.29
1070.48,0.26
1081.19,0.25
1092.00,0.25
1102.92,0.27
1113.95,0.31
1125.09,0.37
1136.34,0.44
1147.70,0.54
1159.18,0.64
1170.77,0.74
1182.48,0.81
1194.30,0.84
1206.25,0.82
1218.31,0.78
1230.49,0.73
1242.80,0.70
1255.22,0.68
1267.78,0.71
1280.45,0.76
1293.26,0.82
1306.19,0.90
1319.25,1.01
1332.45,1.13
1345.77,1.31
1359.23,1.49
1372.82,1.71
1386.55,1.92
1400.41,2.10
1414.42,2.26
1428.56,2.39
1442.85,2.51
1457.28,2.61
1471.85,2.72
1486.57,2.86
1501.43,3.00
1516.45,3.17
1531.61,3.33
1546.93,3.46
1562.40,3.57
1578.02,3.63
1593.80,3.68
1609.74,3.72
1625.84,3.79
1642.10,3.88
1658.52,4.00
1675.10,4.18
1691.85,4.39
1708.77,4.62
1725.86,4.89
1743.12,5.17
1760.55,5.44
1778.15,5.68
1795.94,5.89
1813.90,6.05
1832.03,6.21
1850.36,6.36
1868.86,6.52
1887.55,6.69
1906.42,6.82
1925.49,6.92
1944.74,6.98
1964.19,7.01
1983.83,7.06
2003.67,7.16
2023.71,7.36
2043.94,7.67
2064.38,8.05
2085.03,8.48
2105.88,8.91
2126.94,9.29
2148.20,9.63
2169.69,9.85
2191.38,10.02
2213.30,10.18
2235.43,10.31
2257.78,10.43
2280.36,10.54
2303.17,10.61
2326.20,10.66
2349.46,10.70
2372.95,10.76
2396.68,10.90
2420.65,11.07
2444.86,11.29
2469.31,11.56
2494.00,11.82
2518.94,12.05
2544.13,12.26
2569.57,12.42
2595.27,12.54
2621.22,12.62
2647.43,12.66
2673.90,12.64
2700.64,12.59
2727.65,12.52
2754.93,12.48
2782.48,12.49
2810.30,12.55
2838.40,12.65
2866.79,12.75
2895.46,12.82
2924.41,12.84
2953.65,12.82
2983.19,12.78
3013.02,12.71
3043.15,12.63
3073.58,12.50
3104.32,12.35
3135.36,12.20
3166.72,12.05
3198.38,11.93
3230.37,11.80
3262.67,11.68
3295.30,11.53
3328.25,11.35
3361.53,11.16
3395.15,10.93
3429.10,10.70
3463.39,10.45
3498.03,10.20
3533.01,9.97
3568.34,9.77
3604.02,9.59
3640.06,9.43
3676.46,9.25
3713.22,9.08
3750.36,8.90
3787.86,8.75
3825.74,8.62
3864.00,8.55
3902.64,8.54
3941.66,8.57
3981.08,8.64
4020.89,8.71
4061.10,8.75
4101.71,8.74
4142.73,8.65
4184.15,8.52
4226.00,8.34
4268.26,8.15
4310.94,7.97
4354.05,7.81
4397.59,7.62
4441.56,7.37
4485.98,7.08
4530.84,6.66
4576.15,6.18
4621.91,5.66
4668.13,5.14
4714.81,4.66
4761.96,4.24
4809.58,3.89
4857.67,3.64
4906.25,3.47
4955.31,3.38
5004.87,3.38
5054.91,3.43
5105.46,3.52
5156.52,3.60
5208.08,3.67
5260.16,3.71
5312.77,3.72
5365.89,3.75
5419.55,3.81
5473.75,3.91
5528.49,4.03
5583.77,4.15
5639.61,4.24
5696.00,4.31
5752.96,4.38
5810.49,4.47
5868.60,4.61
5927.28,4.77
5986.56,4.92
6046.42,5.08
6106.89,5.23
6167.96,5.37
6229.64,5.52
6291.93,5.68
6354.85,5.85
6418.40,6.04
6482.58,6.21
6547.41,6.37
6612.88,6.50
6679.01,6.61
6745.80,6.68
6813.26,6.73
6881.39,6.70
6950.21,6.64
7019.71,6.54
7089.91,6.40
7160.81,6.24
7232.41,6.05
7304.74,5.80
7377.79,5.52
7451.56,5.23
7526.08,4.95
7601.34,4.69
7677.35,4.45
7754.13,4.25
7831.67,4.12
7909.98,4.05
7989.08,4.07
8068.98,4.22
8149.67,4.45
8231.16,4.74
8313.47,5.09
8396.61,5.39
8480.57,5.62
8565.38,5.73
8651.03,5.68
8737.54,5.46
8824.92,5.03
8913.17,4.55
9002.30,3.90
9092.32,2.94
9183.25,1.99
9275.08,1.09
9367.83,-0.24
9461.51,-1.74
9556.12,-3.15
9651.68,-4.49
9748.20,-5.75
9845.68,-6.82
9944.14,-7.63
10043.58,-7.98
10144.02,-7.89
10245.46,-7.51
10347.91,-6.92
10451.39,-6.28
10555.91,-5.61
10661.46,-4.91
10768.08,-4.24
10875.76,-3.60
10984.52,-2.97
11094.36,-2.29
11205.31,-1.56
11317.36,-0.66
11430.53,0.35
11544.84,0.84
11660.29,1.01
11776.89,1.66
11894.66,2.06
12013.60,2.15
12133.74,2.46
12255.08,2.52
12377.63,2.40
12501.41,2.22
12626.42,1.87
12752.68,1.42
12880.21,0.91
13009.01,0.46
13139.10,0.13
13270.49,-0.02
13403.20,0.08
13537.23,0.25
13672.60,0.41
13809.33,0.42
13947.42,0.38
14086.90,0.33
14227.77,0.27
14370.04,0.22
14513.74,0.20
14658.88,0.19
14805.47,0.20
14953.52,0.17
15103.06,0.07
15254.09,-0.25
15406.63,-0.81
15560.70,-1.60
15716.30,-2.69
15873.47,-3.96
16032.20,-5.31
16192.52,-6.65
16354.45,-7.81
16517.99,-8.77
16683.17,-9.49
16850.01,-9.85
17018.51,-9.95
17188.69,-9.82
17360.58,-9.42
17534.18,-8.89
17709.53,-8.29
17886.62,-7.72
18065.49,-7.37
18246.14,-7.26
18428.60,-7.52
18612.89,-8.10
18799.02,-8.82
18987.01,-9.60
19176.88,-10.20
19368.65,-10.62
19562.33,-10.82
19757.96,-10.76
19955.54,-10.57
