frequency,raw,error,smoothed,error_smoothed,equalization,parametric_eq,fixed_band_eq,equalized_raw,equalized_smoothed,target
20.00,-6.40,-6.68,-6.39,-6.71,6.00,5.92,1.36,-0.40,-0.39,0.28
20.20,-6.28,-6.61,-6.28,-6.63,6.00,5.85,1.40,-0.28,-0.28,0.33
20.40,-6.15,-6.54,-6.16,-6.54,6.00,5.79,1.44,-0.15,-0.16,0.38
20.61,-6.03,-6.44,-6.04,-6.46,6.00,5.73,1.48,-0.03,-0.04,0.41
20.81,-5.90,-6.37,-5.92,-6.37,6.00,5.67,1.53,0.10,0.08,0.46
21.02,-5.79,-6.29,-5.81,-6.28,6.00,5.61,1.57,0.21,0.19,0.50
21.23,-5.69,-6.21,-5.69,-6.19,5.99,5.54,1.62,0.30,0.29,0.52
21.44,-5.58,-6.13,-5.57,-6.10,5.96,5.48,1.67,0.37,0.38,0.54
21.66,-5.50,-6.06,-5.46,-6.00,5.91,5.42,1.72,0.41,0.45,0.56
21.87,-5.39,-5.97,-5.34,-5.91,5.84,5.36,1.77,0.45,0.50,0.57
22.09,-5.27,-5.87,-5.23,-5.81,5.77,5.30,1.82,0.49,0.54,0.59
22.31,-5.13,-5.74,-5.11,-5.70,5.68,5.24,1.88,0.55,0.57,0.60
22.54,-5.00,-5.60,-5.00,-5.60,5.59,5.18,1.93,0.59,0.59,0.60
22.76,-4.86,-5.47,-4.88,-5.48,5.48,5.12,1.99,0.62,0.60,0.60
22.99,-4.73,-5.32,-4.77,-5.37,5.37,5.06,2.05,0.65,0.60,0.59
23.22,-4.62,-5.21,-4.65,-5.26,5.26,5.00,2.11,0.64,0.60,0.59
23.45,-4.51,-5.10,-4.54,-5.14,5.14,4.94,2.17,0.63,0.61,0.59
23.69,-4.42,-5.02,-4.42,-5.03,5.03,4.88,2.23,0.61,0.61,0.60
23.92,-4.30,-4.90,-4.30,-4.91,4.91,4.82,2.29,0.61,0.61,0.60
24.16,-4.20,-4.81,-4.19,-4.79,4.79,4.76,2.36,0.59,0.61,0.61
24.40,-4.09,-4.71,-4.07,-4.68,4.68,4.70,2.42,0.58,0.61,0.62
24.65,-3.99,-4.59,-3.96,-4.57,4.57,4.64,2.49,0.58,0.61,0.61
24.89,-3.88,-4.49,-3.85,-4.46,4.46,4.59,2.55,0.58,0.61,0.61
25.14,-3.76,-4.37,-3.75,-4.36,4.36,4.53,2.62,0.59,0.61,0.61
25.39,-3.64,-4.26,-3.64,-4.25,4.25,4.47,2.69,0.61,0.61,0.62
25.65,-3.53,-4.14,-3.54,-4.15,4.15,4.42,2.75,0.63,0.61,0.62
25.91,-3.40,-4.00,-3.44,-4.05,4.05,4.36,2.82,0.65,0.61,0.61
26.16,-3.29,-3.90,-3.34,-3.95,3.95,4.30,2.89,0.65,0.61,0.60
26.43,-3.22,-3.82,-3.23,-3.84,3.84,4.25,2.95,0.63,0.61,0.60
26.69,-3.13,-3.73,-3.14,-3.74,3.74,4.19,3.02,0.62,0.61,0.60
26.96,-3.04,-3.65,-3.04,-3.64,3.64,4.14,3.08,0.61,0.60,0.61
27.23,-2.96,-3.57,-2.94,-3.55,3.55,4.08,3.14,0.59,0.60,0.61
27.50,-2.88,-3.49,-2.85,-3.45,3.45,4.03,3.20,0.58,0.60,0.61
27.77,-2.79,-3.40,-2.76,-3.36,3.36,3.98,3.26,0.57,0.60,0.60
28.05,-2.70,-3.30,-2.67,-3.27,3.27,3.92,3.32,0.57,0.60,0.60
28.33,-2.60,-3.19,-2.59,-3.19,3.19,3.87,3.37,0.58,0.60,0.59
28.62,-2.50,-3.09,-2.51,-3.10,3.10,3.82,3.42,0.61,0.60,0.59
28.90,-2.40,-2.99,-2.42,-3.02,3.02,3.77,3.46,0.63,0.60,0.60
29.19,-2.32,-2.90,-2.34,-2.94,2.94,3.71,3.51,0.62,0.60,0.59
29.48,-2.24,-2.85,-2.26,-2.86,2.86,3.66,3.54,0.61,0.60,0.61
29.78,-2.18,-2.77,-2.19,-2.78,2.78,3.61,3.58,0.60,0.59,0.59
30.08,-2.11,-2.71,-2.11,-2.70,2.70,3.56,3.60,0.60,0.59,0.60
30.38,-2.05,-2.64,-2.04,-2.63,2.63,3.51,3.63,0.59,0.59,0.59
30.68,-1.99,-2.58,-1.98,-2.57,2.57,3.46,3.64,0.58,0.59,0.59
30.99,-1.92,-2.51,-1.91,-2.51,2.51,3.42,3.66,0.59,0.59,0.59
31.30,-1.86,-2.45,-1.86,-2.45,2.45,3.37,3.66,0.59,0.59,0.59
31.61,-1.80,-2.38,-1.80,-2.39,2.39,3.32,3.66,0.59,0.59,0.59
31.93,-1.74,-2.32,-1.75,-2.33,2.33,3.27,3.66,0.60,0.59,0.59
32.24,-1.69,-2.27,-1.69,-2.27,2.27,3.23,3.65,0.58,0.58,0.58
32.57,-1.65,-2.23,-1.64,-2.21,2.21,3.18,3.64,0.57,0.58,0.58
32.89,-1.60,-2.18,-1.58,-2.16,2.16,3.13,3.62,0.56,0.57,0.58
33.22,-1.56,-2.13,-1.53,-2.11,2.11,3.09,3.59,0.55,0.57,0.57
33.55,-1.50,-2.07,-1.49,-2.06,2.06,3.04,3.57,0.55,0.57,0.57
33.89,-1.46,-2.01,-1.45,-2.01,2.01,3.00,3.53,0.56,0.56,0.56
34.23,-1.40,-1.96,-1.41,-1.97,1.97,2.96,3.50,0.57,0.56,0.57
34.57,-1.34,-1.89,-1.37,-1.92,1.92,2.91,3.46,0.59,0.56,0.55
34.92,-1.28,-1.83,-1.32,-1.88,1.88,2.87,3.42,0.60,0.55,0.55
35.27,-1.26,-1.81,-1.28,-1.83,1.83,2.83,3.37,0.58,0.55,0.55
35.62,-1.25,-1.79,-1.24,-1.79,1.79,2.78,3.32,0.54,0.55,0.55
35.97,-1.24,-1.78,-1.20,-1.75,1.75,2.74,3.28,0.51,0.55,0.55
36.33,-1.21,-1.76,-1.16,-1.71,1.71,2.70,3.22,0.51,0.55,0.55
36.70,-1.18,-1.72,-1.13,-1.68,1.68,2.66,3.17,0.50,0.55,0.54
37.06,-1.13,-1.67,-1.10,-1.65,1.65,2.62,3.12,0.51,0.55,0.54
37.43,-1.06,-1.62,-1.07,-1.62,1.62,2.58,3.07,0.56,0.55,0.56
37.81,-1.00,-1.55,-1.04,-1.59,1.59,2.54,3.01,0.60,0.55,0.55
38.19,-0.97,-1.52,-1.01,-1.57,1.57,2.50,2.96,0.60,0.56,0.55
38.57,-0.96,-1.51,-0.99,-1.55,1.55,2.46,2.91,0.59,0.56,0.56
38.95,-0.95,-1.51,-0.96,-1.52,1.52,2.43,2.85,0.58,0.56,0.57
39.34,-0.95,-1.51,-0.93,-1.50,1.50,2.39,2.80,0.55,0.56,0.56
39.74,-0.95,-1.51,-0.91,-1.47,1.47,2.35,2.75,0.53,0.56,0.56
40.14,-0.94,-1.50,-0.89,-1.46,1.46,2.31,2.70,0.52,0.56,0.57
40.54,-0.90,-1.46,-0.88,-1.44,1.44,2.28,2.65,0.55,0.56,0.56
40.94,-0.87,-1.43,-0.87,-1.43,1.43,2.24,2.60,0.57,0.56,0.56
41.35,-0.86,-1.41,-0.87,-1.43,1.43,2.21,2.55,0.57,0.56,0.56
41.76,-0.86,-1.41,-0.87,-1.42,1.42,2.17,2.51,0.57,0.55,0.55
42.18,-0.86,-1.41,-0.87,-1.42,1.42,2.14,2.46,0.57,0.55,0.56
42.60,-0.86,-1.40,-0.88,-1.42,1.42,2.10,2.42,0.56,0.54,0.54
43.03,-0.86,-1.40,-0.89,-1.42,1.42,2.07,2.38,0.56,0.53,0.54
43.46,-0.90,-1.43,-0.90,-1.42,1.42,2.04,2.34,0.52,0.52,0.54
43.90,-0.94,-1.45,-0.91,-1.43,1.43,2.01,2.30,0.49,0.51,0.51
44.33,-0.95,-1.44,-0.93,-1.44,1.44,1.97,2.27,0.49,0.50,0.50
44.78,-0.95,-1.43,-0.95,-1.45,1.45,1.94,2.23,0.50,0.49,0.48
45.23,-0.97,-1.44,-0.98,-1.46,1.46,1.91,2.20,0.49,0.48,0.48
45.68,-1.02,-1.48,-1.00,-1.47,1.47,1.88,2.17,0.46,0.47,0.46
46.13,-1.06,-1.50,-1.03,-1.49,1.49,1.85,2.14,0.43,0.46,0.45
46.60,-1.07,-1.52,-1.05,-1.50,1.50,1.82,2.12,0.44,0.45,0.45
47.06,-1.09,-1.52,-1.08,-1.52,1.52,1.79,2.09,0.43,0.44,0.43
47.53,-1.12,-1.54,-1.11,-1.54,1.54,1.76,2.07,0.42,0.42,0.43
48.01,-1.15,-1.58,-1.14,-1.55,1.55,1.73,2.04,0.40,0.41,0.43
48.49,-1.15,-1.56,-1.16,-1.56,1.56,1.70,2.02,0.42,0.40,0.42
48.97,-1.15,-1.54,-1.18,-1.58,1.58,1.67,2.00,0.43,0.40,0.40
49.46,-1.19,-1.57,-1.21,-1.60,1.60,1.65,1.99,0.41,0.39,0.38
49.96,-1.24,-1.60,-1.24,-1.61,1.61,1.62,1.97,0.38,0.38,0.36
50.46,-1.28,-1.64,-1.26,-1.63,1.63,1.59,1.95,0.35,0.37,0.37
50.96,-1.33,-1.68,-1.28,-1.64,1.64,1.57,1.94,0.31,0.36,0.36
51.47,-1.33,-1.67,-1.30,-1.65,1.65,1.54,1.92,0.32,0.35,0.34
51.99,-1.34,-1.67,-1.32,-1.66,1.66,1.51,1.91,0.33,0.34,0.33
52.51,-1.34,-1.67,-1.35,-1.68,1.68,1.49,1.90,0.35,0.33,0.33
53.03,-1.34,-1.67,-1.37,-1.70,1.70,1.46,1.89,0.36,0.33,0.33
53.56,-1.40,-1.72,-1.40,-1.72,1.72,1.44,1.88,0.32,0.32,0.32
54.10,-1.44,-1.75,-1.42,-1.74,1.74,1.42,1.87,0.30,0.31,0.31
54.64,-1.44,-1.74,-1.44,-1.75,1.75,1.39,1.86,0.32,0.31,0.30
55.18,-1.45,-1.75,-1.46,-1.77,1.77,1.37,1.85,0.32,0.30,0.30
55.74,-1.47,-1.76,-1.49,-1.78,1.78,1.35,1.84,0.32,0.30,0.29
56.29,-1.51,-1.80,-1.51,-1.80,1.80,1.32,1.83,0.29,0.29,0.29
56.86,-1.57,-1.85,-1.54,-1.82,1.82,1.30,1.82,0.25,0.28,0.28
57.42,-1.61,-1.86,-1.57,-1.84,1.84,1.28,1.81,0.24,0.27,0.26
58.00,-1.63,-1.88,-1.60,-1.86,1.86,1.26,1.80,0.24,0.26,0.26
58.58,-1.63,-1.88,-1.63,-1.88,1.88,1.24,1.79,0.25,0.24,0.25
59.16,-1.63,-1.87,-1.66,-1.89,1.89,1.21,1.78,0.26,0.23,0.24
59.76,-1.63,-1.85,-1.69,-1.90,1.90,1.19,1.77,0.27,0.21,0.23
60.35,-1.70,-1.89,-1.72,-1.91,1.91,1.17,1.75,0.21,0.18,0.19
60.96,-1.80,-1.97,-1.76,-1.91,1.91,1.15,1.74,0.11,0.16,0.17
61.57,-1.82,-1.95,-1.79,-1.92,1.92,1.13,1.72,0.10,0.13,0.13
62.18,-1.83,-1.92,-1.82,-1.92,1.92,1.12,1.71,0.09,0.10,0.10
62.80,-1.88,-1.94,-1.85,-1.92,1.92,1.10,1.69,0.04,0.07,0.06
63.43,-1.90,-1.92,-1.88,-1.91,1.91,1.08,1.67,0.02,0.03,0.03
64.07,-1.92,-1.90,-1.91,-1.91,1.91,1.06,1.65,-0.01,-0.00,-0.01
64.71,-1.93,-1.88,-1.95,-1.91,1.91,1.04,1.63,-0.02,-0.04,-0.05
65.35,-1.96,-1.88,-1.98,-1.91,1.91,1.02,1.61,-0.05,-0.08,-0.08
66.01,-2.02,-1.90,-2.02,-1.90,1.90,1.01,1.59,-0.11,-0.11,-0.12
66.67,-2.04,-1.88,-2.05,-1.90,1.90,0.99,1.56,-0.14,-0.15,-0.15
67.33,-2.07,-1.87,-2.08,-1.89,1.89,0.97,1.54,-0.18,-0.19,-0.19
68.01,-2.11,-1.88,-2.10,-1.88,1.88,0.96,1.51,-0.23,-0.23,-0.22
68.69,-2.15,-1.88,-2.14,-1.87,1.87,0.94,1.49,-0.28,-0.27,-0.27
69.37,-2.19,-1.88,-2.17,-1.86,1.86,0.92,1.46,-0.32,-0.31,-0.31
70.07,-2.21,-1.86,-2.20,-1.86,1.86,0.91,1.43,-0.35,-0.35,-0.35
70.77,-2.26,-1.87,-2.24,-1.85,1.85,0.89,1.40,-0.41,-0.39,-0.38
71.48,-2.29,-1.86,-2.27,-1.84,1.84,0.88,1.38,-0.45,-0.44,-0.42
72.19,-2.30,-1.82,-2.30,-1.82,1.82,0.86,1.35,-0.47,-0.48,-0.48
72.91,-2.30,-1.77,-2.33,-1.81,1.81,0.85,1.32,-0.49,-0.52,-0.52
73.64,-2.36,-1.79,-2.36,-1.79,1.79,0.83,1.29,-0.57,-0.57,-0.57
74.38,-2.40,-1.78,-2.38,-1.77,1.77,0.82,1.26,-0.62,-0.61,-0.61
75.12,-2.41,-1.75,-2.41,-1.76,1.76,0.81,1.23,-0.65,-0.65,-0.66
75.87,-2.47,-1.76,-2.44,-1.74,1.74,0.79,1.20,-0.72,-0.69,-0.70
76.63,-2.49,-1.74,-2.47,-1.73,1.73,0.78,1.17,-0.75,-0.74,-0.74
77.40,-2.50,-1.72,-2.49,-1.72,1.72,0.77,1.15,-0.78,-0.78,-0.78
78.17,-2.50,-1.67,-2.52,-1.71,1.71,0.75,1.12,-0.79,-0.81,-0.83
78.95,-2.50,-1.65,-2.55,-1.70,1.70,0.74,1.09,-0.80,-0.85,-0.85
79.74,-2.57,-1.68,-2.57,-1.69,1.69,0.73,1.06,-0.88,-0.89,-0.89
80.54,-2.59,-1.67,-2.60,-1.68,1.68,0.72,1.04,-0.91,-0.92,-0.92
81.35,-2.62,-1.66,-2.62,-1.66,1.66,0.70,1.01,-0.95,-0.95,-0.96
82.16,-2.67,-1.68,-2.63,-1.64,1.64,0.69,0.98,-1.02,-0.99,-0.99
82.98,-2.69,-1.68,-2.64,-1.62,1.62,0.68,0.96,-1.06,-1.02,-1.01
83.81,-2.69,-1.63,-2.66,-1.61,1.61,0.67,0.94,-1.08,-1.05,-1.05
84.65,-2.69,-1.60,-2.67,-1.58,1.58,0.66,0.91,-1.10,-1.08,-1.09
85.50,-2.69,-1.58,-2.68,-1.56,1.56,0.65,0.89,-1.12,-1.12,-1.11
86.35,-2.69,-1.54,-2.69,-1.55,1.55,0.64,0.86,-1.14,-1.15,-1.14
87.22,-2.69,-1.51,-2.70,-1.52,1.52,0.63,0.84,-1.16,-1.18,-1.18
88.09,-2.69,-1.47,-2.71,-1.49,1.49,0.62,0.82,-1.19,-1.22,-1.21
88.97,-2.69,-1.44,-2.72,-1.47,1.47,0.61,0.80,-1.22,-1.25,-1.25
89.86,-2.69,-1.40,-2.72,-1.44,1.44,0.60,0.78,-1.25,-1.28,-1.28
90.76,-2.72,-1.40,-2.73,-1.41,1.41,0.59,0.76,-1.30,-1.32,-1.32
91.66,-2.76,-1.41,-2.74,-1.39,1.39,0.58,0.74,-1.37,-1.35,-1.35
92.58,-2.78,-1.38,-2.75,-1.36,1.36,0.57,0.72,-1.41,-1.38,-1.39
93.51,-2.78,-1.36,-2.76,-1.34,1.34,0.56,0.70,-1.43,-1.41,-1.42
94.44,-2.78,-1.33,-2.77,-1.32,1.32,0.55,0.68,-1.45,-1.45,-1.45
95.39,-2.78,-1.30,-2.78,-1.30,1.30,0.54,0.67,-1.47,-1.48,-1.48
96.34,-2.78,-1.26,-2.80,-1.29,1.29,0.54,0.65,-1.49,-1.51,-1.51
97.30,-2.81,-1.26,-2.81,-1.27,1.27,0.53,0.63,-1.54,-1.54,-1.54
98.28,-2.85,-1.27,-2.82,-1.25,1.25,0.52,0.62,-1.60,-1.57,-1.57
99.26,-2.81,-1.21,-2.82,-1.23,1.23,0.51,0.60,-1.58,-1.60,-1.60
100.25,-2.83,-1.20,-2.83,-1.20,1.20,0.50,0.59,-1.62,-1.63,-1.63
101.25,-2.85,-1.19,-2.84,-1.18,1.18,0.50,0.57,-1.67,-1.66,-1.66
102.27,-2.86,-1.17,-2.85,-1.16,1.16,0.49,0.56,-1.70,-1.69,-1.69
103.29,-2.87,-1.14,-2.86,-1.14,1.14,0.48,0.55,-1.73,-1.72,-1.73
104.32,-2.88,-1.13,-2.87,-1.12,1.12,0.48,0.53,-1.76,-1.75,-1.75
105.37,-2.87,-1.09,-2.88,-1.09,1.09,0.47,0.52,-1.77,-1.78,-1.78
106.42,-2.85,-1.04,-2.89,-1.07,1.07,0.46,0.51,-1.77,-1.82,-1.80
107.48,-2.87,-1.02,-2.90,-1.05,1.05,0.46,0.50,-1.82,-1.85,-1.84
108.56,-2.89,-1.00,-2.90,-1.02,1.02,0.45,0.49,-1.87,-1.88,-1.88
109.64,-2.91,-0.99,-2.90,-0.98,0.98,0.45,0.48,-1.92,-1.92,-1.91
110.74,-2.93,-0.97,-2.90,-0.95,0.95,0.44,0.46,-1.98,-1.95,-1.95
111.85,-2.95,-0.98,-2.90,-0.91,0.91,0.43,0.45,-2.03,-1.98,-1.97
112.97,-2.93,-0.91,-2.89,-0.88,0.88,0.43,0.44,-2.05,-2.01,-2.02
114.10,-2.87,-0.82,-2.88,-0.84,0.84,0.42,0.44,-2.03,-2.04,-2.05
115.24,-2.87,-0.79,-2.87,-0.80,0.80,0.42,0.43,-2.07,-2.07,-2.08
116.39,-2.87,-0.75,-2.85,-0.75,0.75,0.41,0.42,-2.11,-2.10,-2.11
117.55,-2.87,-0.73,-2.84,-0.71,0.71,0.41,0.41,-2.15,-2.12,-2.13
118.73,-2.80,-0.64,-2.82,-0.67,0.67,0.40,0.40,-2.13,-2.15,-2.16
119.92,-2.76,-0.59,-2.79,-0.62,0.62,0.40,0.39,-2.13,-2.17,-2.17
121.12,-2.75,-0.55,-2.76,-0.57,0.57,0.40,0.38,-2.17,-2.19,-2.19
122.33,-2.74,-0.53,-2.73,-0.52,0.52,0.39,0.38,-2.21,-2.20,-2.21
123.55,-2.74,-0.52,-2.69,-0.47,0.47,0.39,0.37,-2.26,-2.22,-2.21
124.79,-2.68,-0.45,-2.66,-0.43,0.43,0.38,0.36,-2.25,-2.24,-2.23
126.03,-2.62,-0.37,-2.64,-0.39,0.39,0.38,0.36,-2.23,-2.25,-2.25
127.29,-2.62,-0.37,-2.61,-0.35,0.35,0.38,0.35,-2.27,-2.26,-2.25
128.57,-2.61,-0.33,-2.58,-0.31,0.31,0.37,0.34,-2.30,-2.27,-2.27
129.85,-2.55,-0.26,-2.56,-0.27,0.27,0.37,0.34,-2.27,-2.29,-2.29
131.15,-2.50,-0.20,-2.54,-0.24,0.24,0.37,0.33,-2.25,-2.30,-2.30
132.46,-2.50,-0.18,-2.53,-0.22,0.22,0.36,0.32,-2.28,-2.31,-2.31
133.79,-2.50,-0.17,-2.51,-0.19,0.19,0.36,0.32,-2.31,-2.32,-2.33
135.12,-2.49,-0.14,-2.50,-0.16,0.16,0.36,0.31,-2.32,-2.34,-2.35
136.48,-2.49,-0.14,-2.49,-0.14,0.14,0.36,0.31,-2.35,-2.35,-2.35
137.84,-2.49,-0.12,-2.47,-0.11,0.11,0.35,0.30,-2.37,-2.36,-2.37
139.22,-2.48,-0.09,-2.47,-0.09,0.09,0.35,0.30,-2.38,-2.37,-2.39
140.61,-2.48,-0.07,-2.46,-0.07,0.07,0.35,0.29,-2.41,-2.39,-2.41
142.02,-2.48,-0.07,-2.45,-0.04,0.04,0.35,0.29,-2.44,-2.41,-2.40
143.44,-2.48,-0.05,-2.43,-0.01,0.01,0.35,0.29,-2.47,-2.43,-2.42
144.87,-2.48,-0.03,-2.43,0.03,-0.03,0.35,0.28,-2.50,-2.45,-2.45
146.32,-2.42,0.06,-2.42,0.07,-0.07,0.34,0.28,-2.48,-2.48,-2.48
147.78,-2.39,0.11,-2.41,0.11,-0.11,0.34,0.27,-2.50,-2.52,-2.49
149.26,-2.39,0.14,-2.40,0.16,-0.16,0.34,0.27,-2.55,-2.56,-2.53
150.75,-2.39,0.20,-2.40,0.21,-0.21,0.34,0.27,-2.60,-2.61,-2.58
152.26,-2.39,0.25,-2.40,0.26,-0.26,0.34,0.26,-2.65,-2.66,-2.64
153.78,-2.39,0.31,-2.40,0.31,-0.31,0.34,0.26,-2.69,-2.71,-2.69
155.32,-2.38,0.38,-2.41,0.35,-0.35,0.34,0.26,-2.73,-2.77,-2.76
156.88,-2.38,0.44,-2.43,0.40,-0.40,0.34,0.26,-2.77,-2.83,-2.82
158.44,-2.45,0.44,-2.45,0.43,-0.43,0.34,0.25,-2.88,-2.89,-2.89
160.03,-2.48,0.49,-2.48,0.46,-0.46,0.34,0.25,-2.94,-2.94,-2.96
161.63,-2.50,0.53,-2.51,0.49,-0.49,0.34,0.25,-2.99,-3.00,-3.02
163.24,-2.55,0.53,-2.54,0.51,-0.51,0.34,0.24,-3.05,-3.05,-3.07
164.88,-2.58,0.54,-2.57,0.52,-0.52,0.34,0.24,-3.10,-3.09,-3.11
166.53,-2.63,0.53,-2.60,0.53,-0.53,0.35,0.24,-3.15,-3.13,-3.15
168.19,-2.67,0.51,-2.63,0.53,-0.53,0.35,0.24,-3.19,-3.16,-3.18
169.87,-2.70,0.51,-2.66,0.53,-0.53,0.35,0.24,-3.22,-3.19,-3.21
171.57,-2.70,0.52,-2.68,0.52,-0.52,0.35,0.23,-3.22,-3.20,-3.22
173.29,-2.71,0.52,-2.70,0.51,-0.51,0.35,0.23,-3.22,-3.21,-3.22
175.02,-2.72,0.50,-2.71,0.51,-0.51,0.35,0.23,-3.23,-3.22,-3.22
176.77,-2.72,0.51,-2.71,0.51,-0.51,0.36,0.23,-3.23,-3.22,-3.23
178.54,-2.72,0.51,-2.71,0.51,-0.51,0.36,0.23,-3.23,-3.22,-3.22
180.32,-2.72,0.49,-2.71,0.51,-0.51,0.36,0.23,-3.23,-3.22,-3.21
182.13,-2.71,0.49,-2.70,0.52,-0.52,0.37,0.23,-3.22,-3.21,-3.19
183.95,-2.70,0.50,-2.69,0.52,-0.52,0.37,0.23,-3.22,-3.21,-3.20
185.79,-2.69,0.50,-2.68,0.53,-0.53,0.37,0.23,-3.22,-3.21,-3.19
187.65,-2.67,0.54,-2.68,0.54,-0.54,0.38,0.22,-3.20,-3.21,-3.20
189.52,-2.66,0.55,-2.67,0.55,-0.55,0.38,0.22,-3.20,-3.22,-3.21
191.42,-2.65,0.57,-2.67,0.55,-0.55,0.38,0.22,-3.20,-3.22,-3.22
193.33,-2.63,0.60,-2.67,0.56,-0.56,0.39,0.22,-3.19,-3.23,-3.23
195.27,-2.67,0.58,-2.67,0.57,-0.57,0.39,0.22,-3.23,-3.24,-3.24
197.22,-2.70,0.56,-2.68,0.57,-0.57,0.40,0.22,-3.27,-3.25,-3.25
199.19,-2.69,0.59,-2.69,0.58,-0.58,0.41,0.23,-3.26,-3.27,-3.27
201.18,-2.69,0.60,-2.70,0.58,-0.58,0.41,0.23,-3.27,-3.28,-3.28
203.19,-2.74,0.56,-2.72,0.58,-0.58,0.42,0.23,-3.32,-3.30,-3.29
205.23,-2.77,0.55,-2.74,0.57,-0.57,0.42,0.23,-3.34,-3.31,-3.31
207.28,-2.77,0.55,-2.76,0.56,-0.56,0.43,0.23,-3.33,-3.33,-3.31
209.35,-2.78,0.56,-2.79,0.55,-0.55,0.44,0.23,-3.32,-3.34,-3.33
211.44,-2.85,0.52,-2.83,0.53,-0.53,0.45,0.23,-3.37,-3.35,-3.36
213.56,-2.87,0.50,-2.86,0.50,-0.50,0.46,0.24,-3.37,-3.36,-3.36
215.69,-2.88,0.49,-2.90,0.47,-0.47,0.46,0.24,-3.35,-3.37,-3.37
217.85,-2.89,0.49,-2.94,0.44,-0.44,0.47,0.24,-3.32,-3.38,-3.38
220.03,-2.95,0.44,-2.98,0.40,-0.40,0.48,0.24,-3.35,-3.38,-3.38
222.23,-3.02,0.39,-3.02,0.36,-0.36,0.49,0.25,-3.38,-3.38,-3.40
224.45,-3.07,0.32,-3.06,0.32,-0.32,0.50,0.25,-3.39,-3.38,-3.39
226.70,-3.14,0.25,-3.10,0.28,-0.28,0.51,0.26,-3.42,-3.38,-3.39
228.96,-3.17,0.21,-3.14,0.23,-0.23,0.53,0.26,-3.40,-3.37,-3.37
231.25,-3.19,0.17,-3.17,0.19,-0.19,0.54,0.27,-3.37,-3.36,-3.36
233.57,-3.24,0.11,-3.20,0.14,-0.14,0.55,0.27,-3.37,-3.34,-3.35
235.90,-3.27,0.07,-3.23,0.09,-0.09,0.56,0.28,-3.36,-3.33,-3.33
238.26,-3.31,0.01,-3.26,0.04,-0.04,0.58,0.29,-3.35,-3.31,-3.32
240.64,-3.30,-0.00,-3.29,-0.01,0.01,0.59,0.30,-3.29,-3.28,-3.29
243.05,-3.29,-0.03,-3.31,-0.05,0.05,0.61,0.31,-3.24,-3.26,-3.26
245.48,-3.31,-0.07,-3.33,-0.10,0.10,0.62,0.32,-3.21,-3.24,-3.23
247.93,-3.34,-0.14,-3.35,-0.14,0.14,0.64,0.33,-3.20,-3.21,-3.20
250.41,-3.40,-0.21,-3.37,-0.19,0.19,0.66,0.34,-3.21,-3.18,-3.18
252.92,-3.40,-0.25,-3.40,-0.24,0.24,0.68,0.35,-3.15,-3.16,-3.15
255.45,-3.41,-0.28,-3.43,-0.30,0.30,0.70,0.36,-3.10,-3.13,-3.12
258.00,-3.45,-0.35,-3.47,-0.37,0.37,0.72,0.37,-3.08,-3.10,-3.10
260.58,-3.51,-0.43,-3.51,-0.44,0.44,0.74,0.39,-3.07,-3.08,-3.08
263.19,-3.56,-0.51,-3.56,-0.51,0.51,0.76,0.40,-3.04,-3.05,-3.04
265.82,-3.57,-0.54,-3.62,-0.59,0.59,0.78,0.42,-2.97,-3.02,-3.03
268.48,-3.64,-0.63,-3.67,-0.68,0.68,0.81,0.43,-2.96,-3.00,-3.00
271.16,-3.74,-0.77,-3.73,-0.77,0.77,0.83,0.45,-2.97,-2.97,-2.97
273.87,-3.77,-0.82,-3.79,-0.85,0.85,0.86,0.47,-2.91,-2.94,-2.95
276.61,-3.90,-0.98,-3.86,-0.94,0.94,0.88,0.49,-2.95,-2.91,-2.91
279.38,-3.95,-1.06,-3.91,-1.03,1.03,0.91,0.50,-2.92,-2.88,-2.88
282.17,-4.00,-1.14,-3.97,-1.11,1.11,0.94,0.52,-2.89,-2.86,-2.86
284.99,-4.04,-1.21,-4.02,-1.19,1.19,0.97,0.54,-2.85,-2.83,-2.82
287.84,-4.13,-1.32,-4.06,-1.27,1.27,1.01,0.57,-2.86,-2.79,-2.80
290.72,-4.13,-1.36,-4.11,-1.35,1.35,1.04,0.59,-2.78,-2.76,-2.77
293.63,-4.16,-1.42,-4.16,-1.42,1.42,1.07,0.61,-2.73,-2.73,-2.74
296.57,-4.19,-1.48,-4.20,-1.50,1.50,1.11,0.64,-2.68,-2.70,-2.70
299.53,-4.26,-1.58,-4.24,-1.57,1.57,1.15,0.66,-2.69,-2.67,-2.67
302.53,-4.27,-1.61,-4.28,-1.63,1.63,1.19,0.69,-2.64,-2.65,-2.66
305.55,-4.26,-1.65,-4.31,-1.69,1.69,1.23,0.71,-2.57,-2.62,-2.61
308.61,-4.26,-1.67,-4.33,-1.74,1.74,1.27,0.74,-2.51,-2.59,-2.59
311.69,-4.37,-1.80,-4.37,-1.80,1.80,1.32,0.77,-2.57,-2.57,-2.56
314.81,-4.42,-1.88,-4.40,-1.86,1.86,1.36,0.80,-2.56,-2.55,-2.53
317.96,-4.49,-1.97,-4.44,-1.91,1.91,1.41,0.83,-2.57,-2.52,-2.52
321.14,-4.53,-2.02,-4.47,-1.97,1.97,1.46,0.86,-2.56,-2.50,-2.51
324.35,-4.53,-2.04,-4.51,-2.02,2.02,1.51,0.89,-2.50,-2.49,-2.49
327.59,-4.53,-2.05,-4.54,-2.07,2.07,1.56,0.92,-2.46,-2.47,-2.47
330.87,-4.53,-2.06,-4.57,-2.12,2.12,1.61,0.95,-2.41,-2.46,-2.46
334.18,-4.57,-2.12,-4.60,-2.16,2.16,1.67,0.99,-2.41,-2.44,-2.44
337.52,-4.62,-2.18,-4.63,-2.20,2.20,1.72,1.02,-2.41,-2.43,-2.44
340.90,-4.69,-2.27,-4.66,-2.24,2.24,1.78,1.06,-2.45,-2.42,-2.42
344.30,-4.73,-2.32,-4.69,-2.27,2.27,1.84,1.10,-2.45,-2.42,-2.41
347.75,-4.73,-2.32,-4.71,-2.30,2.30,1.89,1.13,-2.43,-2.41,-2.41
351.23,-4.73,-2.32,-4.73,-2.32,2.32,1.95,1.17,-2.40,-2.40,-2.40
354.74,-4.73,-2.32,-4.74,-2.34,2.34,2.01,1.21,-2.38,-2.40,-2.40
358.28,-4.72,-2.32,-4.76,-2.36,2.36,2.06,1.25,-2.36,-2.40,-2.39
361.87,-4.79,-2.39,-4.76,-2.37,2.37,2.12,1.30,-2.41,-2.39,-2.39
365.49,-4.81,-2.42,-4.77,-2.38,2.38,2.17,1.34,-2.43,-2.39,-2.39
369.14,-4.80,-2.40,-4.77,-2.38,2.38,2.23,1.38,-2.41,-2.39,-2.40
372.83,-4.79,-2.39,-4.77,-2.38,2.38,2.28,1.43,-2.40,-2.39,-2.40
376.56,-4.79,-2.39,-4.77,-2.38,2.38,2.32,1.47,-2.41,-2.39,-2.40
380.33,-4.78,-2.39,-4.76,-2.37,2.37,2.37,1.52,-2.41,-2.40,-2.39
384.13,-4.77,-2.37,-4.76,-2.36,2.36,2.41,1.56,-2.41,-2.40,-2.39
387.97,-4.73,-2.32,-4.75,-2.35,2.35,2.45,1.61,-2.37,-2.40,-2.40
391.85,-4.68,-2.26,-4.75,-2.34,2.34,2.48,1.66,-2.33,-2.41,-2.41
395.77,-4.70,-2.29,-4.74,-2.33,2.33,2.50,1.71,-2.36,-2.41,-2.40
399.73,-4.74,-2.32,-4.74,-2.32,2.32,2.52,1.76,-2.41,-2.42,-2.41
403.72,-4.76,-2.34,-4.73,-2.31,2.31,2.54,1.80,-2.45,-2.42,-2.41
407.76,-4.77,-2.34,-4.72,-2.30,2.30,2.55,1.85,-2.47,-2.43,-2.43
411.84,-4.70,-2.27,-4.72,-2.29,2.29,2.55,1.90,-2.41,-2.43,-2.43
415.96,-4.68,-2.25,-4.71,-2.28,2.28,2.54,1.95,-2.40,-2.43,-2.43
420.12,-4.68,-2.25,-4.69,-2.26,2.26,2.53,2.00,-2.42,-2.43,-2.43
424.32,-4.67,-2.24,-4.66,-2.24,2.24,2.52,2.04,-2.43,-2.42,-2.43
428.56,-4.66,-2.24,-4.64,-2.22,2.22,2.49,2.09,-2.43,-2.41,-2.42
432.85,-4.65,-2.24,-4.60,-2.21,2.21,2.47,2.13,-2.44,-2.39,-2.41
437.18,-4.62,-2.22,-4.56,-2.19,2.19,2.43,2.17,-2.43,-2.37,-2.40
441.55,-4.54,-2.18,-4.50,-2.15,2.15,2.39,2.21,-2.39,-2.35,-2.36
445.96,-4.44,-2.11,-4.43,-2.11,2.11,2.35,2.25,-2.33,-2.32,-2.33
450.42,-4.38,-2.07,-4.35,-2.07,2.07,2.30,2.29,-2.30,-2.28,-2.30
454.93,-4.33,-2.07,-4.28,-2.04,2.04,2.25,2.32,-2.29,-2.24,-2.25
459.48,-4.15,-1.94,-4.20,-2.00,2.00,2.20,2.35,-2.14,-2.19,-2.20
464.07,-4.07,-1.91,-4.11,-1.96,1.96,2.14,2.37,-2.10,-2.15,-2.15
468.71,-4.07,-1.97,-4.02,-1.92,1.92,2.08,2.39,-2.15,-2.10,-2.09
473.40,-4.00,-1.94,-3.93,-1.88,1.88,2.03,2.41,-2.11,-2.05,-2.05
