frequency,raw
20,-3.28
21,-3.03
22,-2.81
23,-2.62
24,-2.43
25,-2.31
26,-2.22
27,-2.11
28,-2.00
29,-1.92
30,-1.87
31,-1.83
32,-1.83
33,-1.82
34,-1.75
35,-1.70
36,-1.65
37,-1.61
38,-1.58
39,-1.57
40,-1.56
41,-1.57
42,-1.57
43,-1.61
44,-1.61
45,-1.63
46,-1.61
47,-1.61
48,-1.61
49,-1.59
50,-1.57
51,-1.57
52,-1.57
53,-1.59
54,-1.61
55,-1.61
56,-1.63
57,-1.61
58,-1.57
59,-1.54
60,-1.49
61,-1.46
62,-1.44
63,-1.40
64,-1.40
65,-1.40
66,-1.40
67,-1.42
68,-1.44
69,-1.48
70,-1.53
71,-1.53
72,-1.53
73,-1.53
74,-1.50
75,-1.48
76,-1.44
77,-1.40
78,-1.37
79,-1.35
80,-1.31
81,-1.30
82,-1.27
83,-1.27
84,-1.27
85,-1.27
86,-1.27
87,-1.27
88,-1.27
89,-1.31
90,-1.31
91,-1.31
92,-1.31
93,-1.35
94,-1.35
95,-1.35
96,-1.35
97,-1.36
98,-1.40
99,-1.40
100,-1.40
101,-1.40
102,-1.42
104,-1.44
105,-1.44
106,-1.47
107,-1.48
108,-1.48
109,-1.48
110,-1.51
111,-1.53
112,-1.53
113,-1.53
114,-1.53
115,-1.57
117,-1.57
118,-1.57
119,-1.57
120,-1.59
121,-1.61
123,-1.61
124,-1.61
125,-1.61
126,-1.61
128,-1.65
129,-1.66
130,-1.66
131,-1.66
133,-1.66
134,-1.66
135,-1.66
137,-1.66
138,-1.68
140,-1.70
141,-1.70
142,-1.70
144,-1.70
145,-1.70
147,-1.70
148,-1.71
150,-1.76
151,-1.79
153,-1.79
154,-1.79
156,-1.79
157,-1.79
159,-1.81
160,-1.81
162,-1.81
164,-1.81
165,-1.81
167,-1.82
169,-1.83
170,-1.83
172,-1.83
174,-1.83
175,-1.83
177,-1.83
179,-1.83
181,-1.83
183,-1.83
184,-1.82
186,-1.81
188,-1.79
190,-1.79
192,-1.79
194,-1.79
196,-1.79
198,-1.79
200,-1.79
202,-1.76
204,-1.74
206,-1.74
208,-1.74
210,-1.74
212,-1.74
214,-1.74
216,-1.72
218,-1.70
221,-1.70
223,-1.70
225,-1.70
227,-1.66
229,-1.66
232,-1.66
234,-1.61
236,-1.61
239,-1.61
241,-1.61
244,-1.57
246,-1.57
248,-1.57
251,-1.57
253,-1.57
256,-1.57
259,-1.55
261,-1.53
264,-1.53
266,-1.53
269,-1.53
272,-1.53
274,-1.53
277,-1.53
280,-1.53
283,-1.53
286,-1.53
288,-1.53
291,-1.53
294,-1.53
297,-1.53
300,-1.53
303,-1.53
306,-1.53
309,-1.50
312,-1.49
316,-1.48
319,-1.48
322,-1.48
325,-1.48
328,-1.45
332,-1.44
335,-1.44
338,-1.44
342,-1.40
345,-1.40
349,-1.40
352,-1.35
356,-1.35
359,-1.35
363,-1.35
366,-1.35
370,-1.35
374,-1.40
377,-1.40
381,-1.43
385,-1.44
389,-1.48
393,-1.49
397,-1.53
401,-1.55
405,-1.57
409,-1.58
413,-1.61
417,-1.64
421,-1.67
425,-1.70
430,-1.76
434,-1.78
438,-1.83
443,-1.85
447,-1.87
451,-1.87
456,-1.87
460,-1.87
465,-1.83
470,-1.81
474,-1.77
479,-1.72
484,-1.68
489,-1.61
494,-1.55
499,-1.50
504,-1.44
509,-1.38
514,-1.32
519,-1.26
524,-1.21
529,-1.15
535,-1.10
540,-1.05
545,-1.02
551,-0.96
556,-0.92
562,-0.86
568,-0.81
573,-0.78
579,-0.73
585,-0.68
591,-0.65
596,-0.62
602,-0.57
608,-0.54
615,-0.53
621,-0.49
627,-0.47
633,-0.44
639,-0.41
646,-0.38
652,-0.33
659,-0.26
665,-0.21
672,-0.15
679,-0.10
686,-0.02
692,0.04
699,0.11
706,0.19
713,0.26
721,0.32
728,0.37
735,0.38
742,0.34
750,0.30
757,0.27
765,0.25
773,0.23
780,0.25
788,0.25
796,0.25
804,0.25
812,0.25
820,0.27
828,0.30
837,0.33
845,0.38
853,0.41
862,0.42
871,0.42
879,0.40
888,0.36
897,0.30
906,0.25
915,0.20
924,0.17
933,0.12
943,0.11
952,0.08
962,0.08
971,0.08
981,0.04
991,0.03
1001,-0.00
1011,-0.03
1021,-0.07
1031,-0.12
1041,-0.19
1052,-0.27
1062,-0.39
1073,-0.51
1084,-0.61
1094,-0.68
1105,-0.73
1116,-0.75
1128,-0.75
1139,-0.71
1150,-0.70
1162,-0.73
1173,-0.75
1185,-0.75
1197,-0.79
1209,-0.79
1221,-0.83
1233,-0.87
1246,-0.92
1258,-0.95
1271,-0.96
1283,-1.01
1296,-1.01
1309,-1.01
1322,-1.05
1335,-1.10
1349,-1.20
1362,-1.30
1376,-1.45
1390,-1.60
1404,-1.73
1418,-1.83
1432,-1.90
1446,-1.92
1461,-1.91
1475,-1.86
1490,-1.81
1505,-1.71
1520,-1.61
1535,-1.51
1550,-1.43
1566,-1.37
1582,-1.32
1597,-1.27
1613,-1.23
1629,-1.18
1646,-1.17
1662,-1.14
1679,-1.10
1696,-1.04
1713,-0.98
1730,-0.96
1747,-0.96
1764,-0.96
1782,-0.96
1800,-0.92
1818,-0.92
1836,-0.88
1854,-0.77
1873,-0.67
1892,-0.53
1911,-0.44
1930,-0.36
1949,-0.35
1969,-0.31
1988,-0.33
2008,-0.36
2028,-0.39
2048,-0.38
2069,-0.22
2090,0.01
2111,0.32
2132,0.62
2153,0.95
2175,1.27
2196,1.55
2218,1.83
2240,2.09
2263,2.35
2285,2.60
2308,2.91
2331,3.25
2355,3.59
2378,3.93
2402,4.29
2426,4.65
2450,5.01
2475,5.33
2500,5.63
2525,5.88
2550,6.07
2575,6.23
2601,6.48
2627,6.75
2653,7.09
2680,7.49
2707,7.87
2734,8.23
2761,8.50
2789,8.76
2817,8.99
2845,9.16
2873,9.34
2902,9.53
2931,9.69
2960,9.87
2990,10.02
3020,10.14
3050,10.25
3080,10.36
3111,10.41
3142,10.43
3174,10.38
3206,10.30
3238,10.24
3270,10.22
3303,10.22
3336,10.25
3369,10.30
3403,10.29
3437,10.26
3471,10.30
3506,10.30
3541,10.26
3576,10.20
3612,10.10
3648,10.04
3685,10.04
3721,10.04
3759,9.99
3796,9.91
3834,9.81
3873,9.73
3911,9.76
3950,9.92
3990,10.12
4030,10.29
4070,10.43
4111,10.32
4152,10.15
4193,9.92
4235,9.68
4278,9.47
4321,9.30
4364,9.34
4407,9.58
4451,9.94
4496,10.28
4541,10.60
4586,10.81
4632,10.59
4679,10.26
4725,9.85
4773,9.48
4820,9.14
4868,8.96
4917,8.69
4966,8.30
5016,7.78
5066,7.20
5117,6.69
5168,6.33
5220,5.98
5272,5.60
5325,4.96
5378,4.24
5432,3.38
5486,2.69
5541,1.88
5596,1.23
5652,0.55
5709,-0.13
5766,-0.67
5823,-1.04
5882,-1.03
5940,-0.80
6000,-0.53
6060,-0.21
6120,0.11
6182,0.42
6244,0.74
6306,1.06
6369,1.32
6433,1.57
6497,1.68
6562,1.79
6628,1.90
6694,2.15
6761,2.38
6828,2.63
6897,2.82
6966,2.87
7035,2.80
7106,2.77
7177,2.80
7249,2.92
7321,3.02
7394,3.09
7468,3.12
7543,3.05
7618,2.93
7694,2.83
7771,2.70
7849,2.61
7928,2.53
8007,2.48
8087,2.39
8168,2.23
8250,2.00
8332,1.78
8415,1.60
8499,1.39
8584,1.19
8670,0.82
8757,0.24
8845,-0.50
8933,-1.39
9022,-2.22
9113,-2.95
9204,-3.48
9296,-3.96
9389,-4.43
9483,-4.90
9577,-5.34
9673,-5.68
9770,-5.64
9868,-5.47
9966,-5.22
10066,-4.84
10167,-4.29
10268,-3.53
10371,-2.62
10475,-1.69
10579,-0.97
10685,-0.44
10792,-0.68
10900,-1.36
11009,-2.22
11119,-3.29
11230,-4.39
11343,-5.30
11456,-5.97
11571,-6.38
11686,-5.76
11803,-4.79
11921,-3.51
12040,-2.11
12161,-0.90
12282,-0.09
12405,0.36
12529,0.02
12655,-0.68
12781,-1.82
12909,-3.34
13038,-5.04
13168,-6.59
13300,-7.85
13433,-8.87
13567,-9.32
13703,-9.56
13840,-9.57
13978,-9.38
14118,-9.16
14259,-8.96
14402,-9.13
14546,-9.64
14692,-10.21
14838,-10.80
14987,-11.25
15137,-10.93
15288,-10.12
15441,-9.01
15595,-7.43
15751,-5.75
15909,-4.17
16068,-2.70
16229,-1.67
16391,-1.04
16555,-0.97
16720,-1.55
16888,-2.43
17056,-3.63
17227,-5.07
17399,-6.41
17573,-7.46
17749,-8.17
17926,-8.08
18106,-7.59
18287,-6.96
18470,-6.39
18654,-5.94
18841,-6.29
19029,-7.31
19220,-9.04
19412,-11.42
19606,-13.57
19802,-15.59
20000,-17.19
