frequency,raw,smoothed,error,error_smoothed,equalization,parametric_eq,fixed_band_eq,equalized_raw,equalized_smoothed,target
20.00,-1.60,-1.60,-4.17,-4.17,4.19,3.98,1.76,2.58,2.58,2.57
20.20,-1.61,-1.61,-4.18,-4.18,4.19,3.97,1.81,2.58,2.57,2.57
20.40,-1.62,-1.62,-4.19,-4.19,4.19,3.96,1.86,2.57,2.57,2.57
20.61,-1.63,-1.63,-4.20,-4.20,4.19,3.96,1.92,2.56,2.56,2.57
20.81,-1.64,-1.64,-4.21,-4.21,4.19,3.95,1.98,2.55,2.55,2.57
21.02,-1.64,-1.64,-4.21,-4.21,4.19,3.94,2.04,2.55,2.54,2.57
21.23,-1.65,-1.65,-4.20,-4.20,4.19,3.93,2.10,2.54,2.54,2.55
21.44,-1.65,-1.65,-4.19,-4.19,4.19,3.92,2.16,2.54,2.53,2.53
21.66,-1.66,-1.66,-4.18,-4.18,4.18,3.92,2.22,2.52,2.52,2.51
21.87,-1.67,-1.67,-4.17,-4.17,4.18,3.91,2.29,2.51,2.50,2.49
22.09,-1.69,-1.69,-4.17,-4.17,4.17,3.90,2.36,2.48,2.48,2.48
22.31,-1.71,-1.71,-4.16,-4.17,4.18,3.89,2.43,2.46,2.46,2.45
22.54,-1.74,-1.74,-4.17,-4.18,4.18,3.88,2.50,2.44,2.44,2.43
22.76,-1.78,-1.78,-4.19,-4.18,4.19,3.87,2.58,2.41,2.41,2.41
22.99,-1.81,-1.81,-4.19,-4.19,4.20,3.86,2.65,2.39,2.38,2.38
23.22,-1.85,-1.85,-4.20,-4.21,4.21,3.85,2.73,2.35,2.35,2.35
23.45,-1.88,-1.88,-4.21,-4.21,4.21,3.84,2.81,2.33,2.33,2.33
23.69,-1.91,-1.91,-4.23,-4.22,4.21,3.83,2.89,2.30,2.31,2.32
23.92,-1.92,-1.92,-4.22,-4.22,4.21,3.82,2.97,2.29,2.29,2.30
24.16,-1.93,-1.93,-4.22,-4.21,4.20,3.81,3.05,2.27,2.27,2.29
24.40,-1.93,-1.93,-4.20,-4.20,4.19,3.80,3.14,2.26,2.26,2.27
24.65,-1.93,-1.93,-4.18,-4.18,4.18,3.79,3.22,2.25,2.25,2.25
24.89,-1.93,-1.93,-4.16,-4.16,4.16,3.77,3.31,2.23,2.23,2.22
25.14,-1.93,-1.93,-4.14,-4.14,4.15,3.76,3.40,2.21,2.21,2.21
25.39,-1.93,-1.93,-4.12,-4.12,4.13,3.75,3.49,2.20,2.20,2.19
25.65,-1.93,-1.93,-4.11,-4.11,4.11,3.74,3.57,2.18,2.18,2.18
25.91,-1.94,-1.94,-4.09,-4.10,4.10,3.72,3.66,2.16,2.16,2.15
26.16,-1.95,-1.95,-4.09,-4.09,4.09,3.71,3.75,2.14,2.14,2.14
26.43,-1.96,-1.96,-4.09,-4.08,4.09,3.70,3.84,2.13,2.13,2.13
26.69,-1.97,-1.97,-4.08,-4.08,4.08,3.68,3.92,2.11,2.11,2.11
26.96,-1.98,-1.98,-4.08,-4.08,4.07,3.67,4.00,2.09,2.09,2.10
27.23,-1.99,-1.99,-4.08,-4.07,4.07,3.66,4.08,2.07,2.08,2.08
27.50,-1.99,-1.99,-4.06,-4.06,4.06,3.64,4.16,2.06,2.06,2.07
27.77,-1.99,-1.99,-4.04,-4.05,4.04,3.63,4.24,2.05,2.05,2.05
28.05,-1.99,-1.99,-4.03,-4.03,4.03,3.61,4.31,2.04,2.04,2.04
28.33,-1.99,-1.99,-4.01,-4.01,4.01,3.60,4.38,2.02,2.02,2.02
28.62,-1.98,-1.98,-3.99,-3.99,4.00,3.58,4.44,2.01,2.01,2.01
28.90,-1.98,-1.98,-3.98,-3.97,3.98,3.56,4.50,2.00,2.00,2.00
29.19,-1.97,-1.97,-3.95,-3.95,3.96,3.55,4.55,1.99,1.98,1.97
29.48,-1.97,-1.97,-3.94,-3.94,3.94,3.53,4.60,1.96,1.97,1.97
29.78,-1.96,-1.96,-3.92,-3.92,3.92,3.51,4.64,1.95,1.95,1.96
30.08,-1.95,-1.95,-3.90,-3.90,3.89,3.49,4.67,1.94,1.94,1.95
30.38,-1.94,-1.94,-3.87,-3.87,3.87,3.47,4.69,1.93,1.93,1.93
30.68,-1.92,-1.92,-3.84,-3.84,3.84,3.46,4.71,1.92,1.92,1.91
30.99,-1.91,-1.91,-3.80,-3.81,3.81,3.44,4.72,1.90,1.90,1.89
31.30,-1.90,-1.90,-3.78,-3.78,3.78,3.42,4.72,1.88,1.88,1.88
31.61,-1.89,-1.89,-3.76,-3.75,3.75,3.40,4.71,1.85,1.86,1.87
31.93,-1.87,-1.87,-3.72,-3.71,3.71,3.37,4.69,1.84,1.84,1.85
32.24,-1.85,-1.86,-3.66,-3.68,3.68,3.35,4.67,1.82,1.82,1.81
32.57,-1.84,-1.84,-3.64,-3.64,3.64,3.33,4.64,1.80,1.80,1.80
32.89,-1.82,-1.82,-3.61,-3.60,3.60,3.31,4.60,1.78,1.78,1.79
33.22,-1.80,-1.81,-3.56,-3.57,3.57,3.28,4.55,1.77,1.76,1.76
33.55,-1.79,-1.79,-3.53,-3.53,3.53,3.26,4.50,1.74,1.74,1.74
33.89,-1.78,-1.78,-3.50,-3.50,3.50,3.24,4.44,1.72,1.72,1.72
34.23,-1.76,-1.76,-3.46,-3.46,3.46,3.21,4.38,1.70,1.70,1.70
34.57,-1.75,-1.75,-3.42,-3.43,3.43,3.19,4.31,1.68,1.68,1.67
34.92,-1.74,-1.74,-3.39,-3.40,3.40,3.16,4.24,1.65,1.65,1.65
35.27,-1.73,-1.73,-3.37,-3.36,3.36,3.13,4.16,1.63,1.63,1.64
35.62,-1.71,-1.71,-3.33,-3.32,3.32,3.11,4.08,1.60,1.61,1.61
35.97,-1.68,-1.69,-3.27,-3.28,3.27,3.08,3.99,1.59,1.59,1.59
36.33,-1.66,-1.66,-3.24,-3.23,3.23,3.05,3.91,1.57,1.57,1.58
36.70,-1.63,-1.63,-3.18,-3.18,3.18,3.02,3.82,1.55,1.55,1.55
37.06,-1.59,-1.60,-3.12,-3.13,3.13,2.99,3.73,1.54,1.53,1.53
37.43,-1.56,-1.56,-3.07,-3.07,3.08,2.95,3.63,1.52,1.51,1.51
37.81,-1.53,-1.53,-3.02,-3.02,3.02,2.92,3.54,1.49,1.49,1.49
38.19,-1.50,-1.50,-2.97,-2.97,2.97,2.89,3.45,1.47,1.47,1.47
38.57,-1.47,-1.47,-2.92,-2.92,2.91,2.85,3.36,1.44,1.44,1.45
38.95,-1.43,-1.43,-2.86,-2.86,2.86,2.82,3.26,1.43,1.42,1.43
39.34,-1.40,-1.40,-2.80,-2.80,2.80,2.78,3.17,1.40,1.40,1.40
39.74,-1.36,-1.36,-2.74,-2.75,2.75,2.74,3.08,1.39,1.38,1.38
40.14,-1.33,-1.33,-2.70,-2.69,2.69,2.70,2.99,1.36,1.36,1.37
40.54,-1.29,-1.29,-2.64,-2.64,2.63,2.66,2.90,1.34,1.34,1.34
40.94,-1.25,-1.25,-2.58,-2.58,2.58,2.62,2.81,1.32,1.32,1.33
41.35,-1.21,-1.21,-2.51,-2.52,2.52,2.58,2.72,1.31,1.31,1.30
41.76,-1.16,-1.17,-2.46,-2.46,2.46,2.54,2.64,1.30,1.29,1.30
42.18,-1.12,-1.12,-2.40,-2.40,2.40,2.49,2.55,1.27,1.28,1.28
42.60,-1.08,-1.08,-2.33,-2.34,2.33,2.45,2.47,1.25,1.26,1.25
43.03,-1.03,-1.03,-2.28,-2.27,2.27,2.40,2.39,1.24,1.24,1.25
43.46,-0.99,-0.99,-2.21,-2.21,2.21,2.35,2.31,1.22,1.22,1.22
43.90,-0.95,-0.95,-2.14,-2.15,2.15,2.30,2.23,1.20,1.20,1.19
44.33,-0.91,-0.91,-2.08,-2.09,2.09,2.25,2.16,1.18,1.18,1.17
44.78,-0.88,-0.88,-2.04,-2.03,2.03,2.20,2.08,1.15,1.15,1.16
45.23,-0.84,-0.84,-1.97,-1.97,1.98,2.15,2.01,1.14,1.13,1.13
45.68,-0.81,-0.81,-1.92,-1.92,1.93,2.10,1.94,1.11,1.11,1.11
46.13,-0.78,-0.78,-1.87,-1.87,1.88,2.04,1.87,1.09,1.09,1.09
46.60,-0.75,-0.75,-1.83,-1.83,1.83,1.99,1.80,1.07,1.07,1.08
47.06,-0.72,-0.72,-1.78,-1.78,1.77,1.93,1.74,1.05,1.06,1.06
47.53,-0.68,-0.68,-1.72,-1.73,1.72,1.88,1.67,1.04,1.04,1.04
48.01,-0.65,-0.65,-1.68,-1.68,1.67,1.82,1.61,1.02,1.02,1.03
48.49,-0.62,-0.62,-1.62,-1.62,1.62,1.77,1.55,1.00,1.00,1.00
48.97,-0.59,-0.59,-1.56,-1.56,1.56,1.71,1.49,0.97,0.97,0.97
49.46,-0.56,-0.56,-1.50,-1.50,1.51,1.66,1.43,0.94,0.94,0.94
49.96,-0.53,-0.53,-1.44,-1.45,1.45,1.60,1.38,0.92,0.92,0.91
50.46,-0.50,-0.50,-1.40,-1.40,1.40,1.55,1.32,0.89,0.89,0.90
50.96,-0.47,-0.47,-1.35,-1.34,1.34,1.50,1.27,0.87,0.87,0.88
51.47,-0.43,-0.44,-1.28,-1.29,1.29,1.45,1.21,0.86,0.85,0.85
51.99,-0.40,-0.41,-1.23,-1.23,1.24,1.40,1.16,0.83,0.83,0.82
52.51,-0.38,-0.38,-1.19,-1.18,1.18,1.35,1.11,0.80,0.81,0.81
53.03,-0.35,-0.35,-1.14,-1.14,1.13,1.30,1.06,0.78,0.78,0.79
53.56,-0.32,-0.33,-1.08,-1.09,1.08,1.25,1.01,0.76,0.76,0.76
54.10,-0.30,-0.30,-1.04,-1.03,1.03,1.20,0.96,0.73,0.73,0.74
54.64,-0.27,-0.27,-0.98,-0.98,0.98,1.15,0.91,0.71,0.71,0.71
55.18,-0.24,-0.25,-0.92,-0.93,0.93,1.10,0.86,0.69,0.69,0.68
55.74,-0.22,-0.22,-0.88,-0.88,0.88,1.05,0.82,0.66,0.66,0.66
56.29,-0.20,-0.20,-0.84,-0.83,0.83,1.00,0.77,0.63,0.63,0.64
56.86,-0.17,-0.18,-0.78,-0.79,0.78,0.94,0.72,0.61,0.61,0.61
57.42,-0.15,-0.15,-0.73,-0.73,0.73,0.89,0.68,0.58,0.58,0.58
58.00,-0.12,-0.12,-0.68,-0.68,0.68,0.84,0.63,0.56,0.56,0.56
58.58,-0.09,-0.09,-0.62,-0.63,0.63,0.78,0.59,0.54,0.54,0.53
59.16,-0.06,-0.06,-0.57,-0.58,0.58,0.73,0.54,0.52,0.51,0.51
59.76,-0.04,-0.04,-0.53,-0.53,0.53,0.67,0.49,0.48,0.49,0.49
60.35,-0.01,-0.01,-0.47,-0.48,0.47,0.61,0.45,0.46,0.46,0.46
60.96,0.02,0.02,-0.43,-0.42,0.41,0.55,0.40,0.43,0.43,0.45
61.57,0.05,0.05,-0.36,-0.36,0.35,0.49,0.36,0.40,0.40,0.40
62.18,0.08,0.08,-0.29,-0.30,0.30,0.42,0.31,0.37,0.37,0.37
62.80,0.11,0.11,-0.24,-0.23,0.24,0.36,0.26,0.34,0.34,0.34
63.43,0.14,0.14,-0.17,-0.17,0.18,0.29,0.22,0.31,0.32,0.31
64.07,0.18,0.18,-0.11,-0.11,0.12,0.22,0.17,0.29,0.29,0.28
64.71,0.21,0.21,-0.06,-0.06,0.06,0.15,0.12,0.27,0.26,0.27
65.35,0.24,0.24,-0.00,-0.00,0.00,0.08,0.07,0.24,0.24,0.24
66.01,0.27,0.27,0.05,0.05,-0.06,0.00,0.02,0.21,0.22,0.22
66.67,0.31,0.31,0.12,0.11,-0.11,-0.07,-0.03,0.20,0.19,0.19
67.33,0.34,0.34,0.17,0.17,-0.17,-0.15,-0.08,0.17,0.17,0.17
68.01,0.37,0.37,0.23,0.22,-0.22,-0.23,-0.13,0.15,0.15,0.14
68.69,0.40,0.40,0.28,0.28,-0.28,-0.31,-0.18,0.12,0.12,0.12
69.37,0.43,0.43,0.34,0.34,-0.33,-0.39,-0.23,0.09,0.09,0.09
70.07,0.46,0.46,0.39,0.39,-0.39,-0.47,-0.28,0.07,0.07,0.07
70.77,0.49,0.49,0.45,0.45,-0.45,-0.55,-0.34,0.04,0.04,0.04
71.48,0.52,0.52,0.51,0.51,-0.51,-0.63,-0.39,0.01,0.01,0.01
72.19,0.55,0.55,0.57,0.57,-0.57,-0.72,-0.44,-0.02,-0.02,-0.02
72.91,0.58,0.58,0.63,0.63,-0.63,-0.80,-0.50,-0.05,-0.05,-0.05
73.64,0.61,0.61,0.70,0.70,-0.70,-0.89,-0.56,-0.09,-0.09,-0.09
74.38,0.64,0.64,0.76,0.76,-0.76,-0.97,-0.61,-0.12,-0.12,-0.12
75.12,0.67,0.67,0.83,0.83,-0.83,-1.06,-0.67,-0.16,-0.16,-0.17
75.87,0.70,0.70,0.89,0.89,-0.90,-1.15,-0.73,-0.20,-0.19,-0.20
76.63,0.74,0.74,0.96,0.97,-0.96,-1.24,-0.79,-0.23,-0.23,-0.23
77.40,0.77,0.77,1.03,1.04,-1.03,-1.33,-0.85,-0.26,-0.26,-0.27
78.17,0.80,0.80,1.12,1.10,-1.10,-1.41,-0.92,-0.30,-0.30,-0.32
78.95,0.82,0.82,1.16,1.17,-1.17,-1.50,-0.98,-0.35,-0.35,-0.34
79.74,0.85,0.85,1.23,1.24,-1.24,-1.59,-1.04,-0.39,-0.39,-0.38
80.54,0.88,0.88,1.31,1.30,-1.31,-1.68,-1.11,-0.43,-0.43,-0.43
81.35,0.91,0.91,1.38,1.38,-1.38,-1.76,-1.18,-0.47,-0.47,-0.47
82.16,0.94,0.94,1.46,1.45,-1.45,-1.85,-1.25,-0.52,-0.52,-0.52
82.98,0.97,0.97,1.52,1.53,-1.53,-1.94,-1.31,-0.56,-0.56,-0.56
83.81,0.99,0.99,1.60,1.60,-1.60,-2.02,-1.39,-0.61,-0.61,-0.61
84.65,1.02,1.02,1.68,1.67,-1.67,-2.11,-1.46,-0.65,-0.65,-0.66
85.50,1.04,1.04,1.74,1.74,-1.74,-2.19,-1.53,-0.70,-0.70,-0.70
86.35,1.06,1.06,1.81,1.81,-1.81,-2.27,-1.61,-0.75,-0.75,-0.75
87.22,1.08,1.08,1.88,1.88,-1.88,-2.35,-1.68,-0.80,-0.80,-0.80
88.09,1.10,1.10,1.95,1.94,-1.94,-2.43,-1.76,-0.85,-0.85,-0.85
88.97,1.12,1.11,2.01,2.01,-2.01,-2.51,-1.84,-0.89,-0.90,-0.89
89.86,1.13,1.13,2.07,2.07,-2.07,-2.59,-1.92,-0.95,-0.95,-0.94
90.76,1.14,1.14,2.14,2.14,-2.14,-2.66,-2.00,-1.00,-0.99,-1.00
91.66,1.16,1.15,2.20,2.21,-2.20,-2.73,-2.09,-1.04,-1.04,-1.05
92.58,1.17,1.17,2.28,2.27,-2.26,-2.80,-2.17,-1.09,-1.09,-1.11
93.51,1.17,1.17,2.31,2.32,-2.32,-2.87,-2.26,-1.15,-1.15,-1.14
94.44,1.18,1.18,2.37,2.37,-2.38,-2.93,-2.34,-1.20,-1.20,-1.20
95.39,1.18,1.18,2.43,2.43,-2.44,-3.00,-2.43,-1.26,-1.26,-1.25
96.34,1.18,1.18,2.49,2.49,-2.49,-3.05,-2.52,-1.31,-1.31,-1.32
97.30,1.18,1.18,2.55,2.55,-2.55,-3.11,-2.61,-1.37,-1.37,-1.37
98.28,1.18,1.18,2.60,2.61,-2.61,-3.17,-2.71,-1.43,-1.43,-1.43
99.26,1.18,1.18,2.67,2.66,-2.66,-3.22,-2.80,-1.48,-1.49,-1.49
100.25,1.17,1.17,2.72,2.72,-2.72,-3.27,-2.89,-1.55,-1.55,-1.55
101.25,1.17,1.17,2.77,2.77,-2.77,-3.31,-2.98,-1.60,-1.61,-1.60
102.27,1.16,1.16,2.83,2.83,-2.83,-3.35,-3.08,-1.67,-1.67,-1.67
103.29,1.15,1.15,2.88,2.88,-2.88,-3.39,-3.17,-1.73,-1.73,-1.74
104.32,1.14,1.14,2.93,2.93,-2.93,-3.43,-3.26,-1.79,-1.79,-1.79
105.37,1.13,1.13,2.98,2.98,-2.98,-3.46,-3.35,-1.86,-1.85,-1.85
106.42,1.12,1.12,3.03,3.03,-3.03,-3.49,-3.44,-1.92,-1.92,-1.91
107.48,1.11,1.11,3.09,3.09,-3.08,-3.52,-3.53,-1.98,-1.98,-1.98
108.56,1.09,1.09,3.14,3.14,-3.13,-3.55,-3.62,-2.05,-2.04,-2.05
109.64,1.08,1.08,3.19,3.18,-3.18,-3.57,-3.70,-2.11,-2.11,-2.11
110.74,1.06,1.06,3.23,3.23,-3.23,-3.59,-3.78,-2.18,-2.18,-2.17
111.85,1.04,1.04,3.27,3.28,-3.28,-3.61,-3.86,-2.25,-2.24,-2.23
112.97,1.02,1.02,3.34,3.33,-3.33,-3.62,-3.93,-2.31,-2.31,-2.32
114.10,1.00,1.00,3.37,3.38,-3.38,-3.63,-4.00,-2.38,-2.38,-2.38
115.24,0.98,0.98,3.42,3.42,-3.42,-3.64,-4.06,-2.44,-2.44,-2.44
116.39,0.96,0.95,3.47,3.47,-3.46,-3.65,-4.12,-2.51,-2.51,-2.51
117.55,0.93,0.93,3.51,3.51,-3.50,-3.65,-4.17,-2.58,-2.58,-2.58
118.73,0.90,0.90,3.54,3.54,-3.54,-3.66,-4.22,-2.64,-2.64,-2.64
119.92,0.88,0.88,3.57,3.58,-3.58,-3.66,-4.25,-2.70,-2.70,-2.70
121.12,0.85,0.85,3.61,3.61,-3.61,-3.66,-4.29,-2.76,-2.76,-2.76
122.33,0.82,0.82,3.64,3.64,-3.63,-3.66,-4.31,-2.82,-2.82,-2.82
123.55,0.79,0.79,3.66,3.66,-3.66,-3.65,-4.33,-2.87,-2.88,-2.87
124.79,0.75,0.75,3.68,3.68,-3.69,-3.65,-4.33,-2.94,-2.94,-2.93
126.03,0.72,0.72,3.70,3.70,-3.71,-3.64,-4.34,-2.99,-2.99,-2.98
127.29,0.68,0.68,3.72,3.73,-3.73,-3.64,-4.33,-3.05,-3.05,-3.04
128.57,0.65,0.65,3.76,3.75,-3.75,-3.63,-4.32,-3.10,-3.10,-3.11
129.85,0.61,0.61,3.77,3.77,-3.77,-3.62,-4.29,-3.16,-3.16,-3.16
131.15,0.57,0.57,3.78,3.79,-3.78,-3.61,-4.26,-3.21,-3.21,-3.21
132.46,0.53,0.53,3.80,3.79,-3.79,-3.60,-4.22,-3.27,-3.26,-3.27
133.79,0.50,0.49,3.80,3.80,-3.80,-3.59,-4.18,-3.30,-3.31,-3.30
135.12,0.45,0.45,3.81,3.80,-3.81,-3.58,-4.13,-3.36,-3.36,-3.36
136.48,0.41,0.41,3.80,3.81,-3.81,-3.57,-4.08,-3.40,-3.40,-3.40
137.84,0.37,0.37,3.80,3.81,-3.81,-3.56,-4.02,-3.44,-3.44,-3.43
139.22,0.33,0.33,3.81,3.81,-3.80,-3.55,-3.96,-3.47,-3.48,-3.48
140.61,0.28,0.28,3.80,3.80,-3.79,-3.54,-3.89,-3.51,-3.51,-3.53
142.02,0.24,0.24,3.78,3.78,-3.78,-3.53,-3.82,-3.54,-3.54,-3.54
143.44,0.19,0.19,3.76,3.76,-3.76,-3.51,-3.74,-3.58,-3.58,-3.57
144.87,0.14,0.14,3.75,3.74,-3.75,-3.50,-3.66,-3.61,-3.61,-3.61
146.32,0.09,0.09,3.73,3.72,-3.72,-3.49,-3.58,-3.64,-3.64,-3.64
147.78,0.04,0.04,3.70,3.70,-3.70,-3.48,-3.50,-3.66,-3.66,-3.66
149.26,-0.02,-0.02,3.66,3.67,-3.67,-3.47,-3.41,-3.69,-3.69,-3.69
150.75,-0.07,-0.07,3.65,3.65,-3.65,-3.46,-3.33,-3.72,-3.72,-3.72
152.26,-0.13,-0.13,3.62,3.62,-3.62,-3.45,-3.24,-3.75,-3.75,-3.75
153.78,-0.18,-0.18,3.59,3.59,-3.59,-3.44,-3.16,-3.77,-3.77,-3.78
155.32,-0.24,-0.24,3.56,3.56,-3.56,-3.42,-3.07,-3.80,-3.80,-3.80
156.88,-0.30,-0.30,3.52,3.53,-3.53,-3.41,-2.99,-3.83,-3.83,-3.82
158.44,-0.36,-0.36,3.50,3.50,-3.50,-3.39,-2.90,-3.86,-3.86,-3.86
160.03,-0.42,-0.42,3.47,3.47,-3.46,-3.37,-2.82,-3.88,-3.88,-3.89
161.63,-0.48,-0.48,3.44,3.43,-3.43,-3.35,-2.74,-3.91,-3.91,-3.92
163.24,-0.55,-0.55,3.39,3.39,-3.39,-3.33,-2.65,-3.94,-3.94,-3.94
164.88,-0.62,-0.62,3.34,3.34,-3.35,-3.30,-2.57,-3.97,-3.97,-3.96
166.53,-0.69,-0.69,3.30,3.30,-3.31,-3.27,-2.49,-4.00,-4.00,-3.99
168.19,-0.76,-0.76,3.27,3.26,-3.26,-3.23,-2.41,-4.02,-4.02,-4.03
169.87,-0.83,-0.83,3.22,3.22,-3.22,-3.20,-2.34,-4.05,-4.05,-4.06
171.57,-0.91,-0.91,3.17,3.17,-3.17,-3.16,-2.26,-4.08,-4.08,-4.08
173.29,-0.99,-0.99,3.12,3.12,-3.12,-3.11,-2.19,-4.12,-4.12,-4.11
175.02,-1.07,-1.07,3.07,3.07,-3.08,-3.06,-2.11,-4.15,-4.15,-4.14
176.77,-1.16,-1.16,3.03,3.03,-3.03,-3.01,-2.04,-4.19,-4.19,-4.19
178.54,-1.24,-1.24,2.98,2.98,-2.98,-2.95,-1.97,-4.22,-4.22,-4.22
180.32,-1.33,-1.33,2.92,2.93,-2.92,-2.89,-1.91,-4.26,-4.26,-4.26
182.13,-1.42,-1.42,2.87,2.87,-2.87,-2.82,-1.84,-4.29,-4.29,-4.29
183.95,-1.52,-1.52,2.81,2.81,-2.81,-2.76,-1.78,-4.33,-4.33,-4.33
185.79,-1.61,-1.61,2.75,2.75,-2.75,-2.69,-1.71,-4.36,-4.36,-4.36
187.65,-1.71,-1.71,2.69,2.69,-2.69,-2.62,-1.65,-4.40,-4.40,-4.40
189.52,-1.81,-1.81,2.62,2.62,-2.62,-2.54,-1.59,-4.43,-4.43,-4.43
191.42,-1.91,-1.91,2.55,2.55,-2.55,-2.47,-1.53,-4.46,-4.46,-4.46
193.33,-2.01,-2.01,2.47,2.47,-2.48,-2.39,-1.48,-4.49,-4.49,-4.48
195.27,-2.11,-2.11,2.40,2.40,-2.40,-2.32,-1.42,-4.51,-4.52,-4.51
197.22,-2.22,-2.22,2.32,2.33,-2.32,-2.24,-1.37,-4.55,-4.54,-4.54
199.19,-2.32,-2.32,2.26,2.25,-2.25,-2.16,-1.32,-4.57,-4.57,-4.58
201.18,-2.43,-2.43,2.17,2.17,-2.16,-2.09,-1.26,-4.60,-4.60,-4.60
203.19,-2.54,-2.54,2.08,2.08,-2.08,-2.01,-1.21,-4.62,-4.62,-4.62
205.23,-2.64,-2.64,2.00,1.99,-2.00,-1.93,-1.17,-4.64,-4.64,-4.64
207.28,-2.75,-2.75,1.90,1.91,-1.91,-1.86,-1.12,-4.66,-4.66,-4.65
209.35,-2.85,-2.85,1.83,1.83,-1.83,-1.78,-1.07,-4.68,-4.68,-4.68
211.44,-2.96,-2.96,1.75,1.74,-1.74,-1.71,-1.03,-4.70,-4.70,-4.71
213.56,-3.06,-3.06,1.66,1.66,-1.66,-1.63,-0.99,-4.72,-4.72,-4.72
215.69,-3.16,-3.16,1.56,1.57,-1.57,-1.56,-0.95,-4.73,-4.73,-4.72
217.85,-3.26,-3.26,1.47,1.48,-1.48,-1.48,-0.91,-4.75,-4.74,-4.74
220.03,-3.35,-3.36,1.41,1.40,-1.40,-1.41,-0.87,-4.75,-4.75,-4.76
222.23,-3.45,-3.45,1.32,1.32,-1.31,-1.34,-0.83,-4.76,-4.76,-4.77
224.45,-3.54,-3.54,1.22,1.23,-1.22,-1.27,-0.79,-4.77,-4.77,-4.76
226.70,-3.63,-3.63,1.14,1.14,-1.14,-1.19,-0.76,-4.77,-4.77,-4.77
228.96,-3.72,-3.72,1.05,1.05,-1.05,-1.12,-0.72,-4.77,-4.77,-4.77
231.25,-3.80,-3.80,0.96,0.96,-0.97,-1.05,-0.69,-4.77,-4.77,-4.76
233.57,-3.88,-3.88,0.87,0.88,-0.88,-0.98,-0.66,-4.76,-4.76,-4.75
235.90,-3.96,-3.96,0.79,0.79,-0.80,-0.91,-0.63,-4.76,-4.76,-4.75
238.26,-4.03,-4.03,0.72,0.72,-0.71,-0.84,-0.60,-4.75,-4.75,-4.75
240.64,-4.10,-4.10,0.63,0.64,-0.63,-0.77,-0.57,-4.74,-4.73,-4.73
243.05,-4.16,-4.16,0.56,0.56,-0.56,-0.70,-0.55,-4.72,-4.72,-4.72
245.48,-4.22,-4.22,0.48,0.48,-0.48,-0.63,-0.52,-4.70,-4.70,-4.70
247.93,-4.28,-4.28,0.41,0.41,-0.41,-0.57,-0.50,-4.69,-4.69,-4.69
250.41,-4.33,-4.33,0.34,0.34,-0.34,-0.50,-0.48,-4.67,-4.67,-4.68
252.92,-4.38,-4.38,0.26,0.27,-0.27,-0.43,-0.45,-4.65,-4.65,-4.64
255.45,-4.42,-4.42,0.20,0.20,-0.21,-0.36,-0.44,-4.63,-4.63,-4.62
258.00,-4.46,-4.46,0.14,0.14,-0.15,-0.30,-0.42,-4.61,-4.61,-4.60
260.58,-4.49,-4.49,0.09,0.09,-0.09,-0.23,-0.40,-4.58,-4.58,-4.58
263.19,-4.52,-4.52,0.04,0.04,-0.04,-0.17,-0.38,-4.56,-4.56,-4.56
265.82,-4.54,-4.54,-0.00,-0.01,0.01,-0.11,-0.37,-4.53,-4.53,-4.54
268.48,-4.56,-4.56,-0.05,-0.05,0.05,-0.04,-0.35,-4.51,-4.51,-4.51
271.16,-4.58,-4.58,-0.10,-0.09,0.09,0.01,-0.34,-4.49,-4.49,-4.48
273.87,-4.59,-4.59,-0.13,-0.13,0.13,0.07,-0.32,-4.46,-4.46,-4.47
276.61,-4.60,-4.60,-0.17,-0.17,0.16,0.13,-0.31,-4.44,-4.44,-4.43
279.38,-4.61,-4.61,-0.20,-0.20,0.19,0.18,-0.30,-4.42,-4.42,-4.42
282.17,-4.61,-4.61,-0.22,-0.22,0.22,0.23,-0.29,-4.39,-4.39,-4.39
284.99,-4.61,-4.61,-0.25,-0.24,0.25,0.28,-0.28,-4.37,-4.36,-4.37
287.84,-4.60,-4.61,-0.26,-0.27,0.27,0.32,-0.27,-4.33,-4.34,-4.34
290.72,-4.60,-4.60,-0.30,-0.29,0.29,0.36,-0.26,-4.31,-4.31,-4.31
293.63,-4.59,-4.59,-0.30,-0.31,0.31,0.39,-0.25,-4.28,-4.28,-4.29
296.57,-4.58,-4.58,-0.33,-0.33,0.33,0.43,-0.25,-4.25,-4.26,-4.25
299.53,-4.57,-4.57,-0.34,-0.34,0.35,0.45,-0.24,-4.22,-4.22,-4.23
302.53,-4.56,-4.56,-0.36,-0.36,0.37,0.48,-0.23,-4.20,-4.19,-4.20
305.55,-4.54,-4.55,-0.39,-0.38,0.38,0.50,-0.23,-4.16,-4.16,-4.16
308.61,-4.53,-4.53,-0.40,-0.40,0.40,0.51,-0.22,-4.13,-4.13,-4.13
311.69,-4.51,-4.51,-0.42,-0.42,0.42,0.52,-0.21,-4.10,-4.10,-4.09
314.81,-4.49,-4.49,-0.44,-0.43,0.43,0.53,-0.21,-4.06,-4.06,-4.06
317.96,-4.47,-4.47,-0.44,-0.44,0.44,0.53,-0.20,-4.03,-4.03,-4.03
321.14,-4.45,-4.45,-0.45,-0.45,0.45,0.53,-0.20,-4.00,-4.00,-4.00
324.35,-4.43,-4.43,-0.46,-0.46,0.46,0.53,-0.19,-3.97,-3.97,-3.98
327.59,-4.41,-4.41,-0.47,-0.47,0.47,0.52,-0.19,-3.94,-3.94,-3.94
330.87,-4.39,-4.39,-0.48,-0.47,0.47,0.51,-0.18,-3.92,-3.92,-3.91
334.18,-4.36,-4.37,-0.47,-0.48,0.47,0.50,-0.18,-3.89,-3.89,-3.89
337.52,-4.34,-4.34,-0.47,-0.47,0.47,0.48,-0.17,-3.87,-3.86,-3.87
340.90,-4.31,-4.31,-0.47,-0.47,0.47,0.46,-0.17,-3.84,-3.84,-3.84
344.30,-4.28,-4.29,-0.46,-0.47,0.47,0.44,-0.17,-3.81,-3.82,-3.82
347.75,-4.26,-4.26,-0.47,-0.46,0.46,0.42,-0.16,-3.80,-3.80,-3.79
351.23,-4.23,-4.23,-0.46,-0.45,0.45,0.39,-0.16,-3.78,-3.78,-3.78
354.74,-4.20,-4.20,-0.44,-0.44,0.44,0.37,-0.15,-3.76,-3.76,-3.76
358.28,-4.16,-4.17,-0.42,-0.43,0.42,0.34,-0.15,-3.74,-3.74,-3.74
361.87,-4.13,-4.13,-0.41,-0.41,0.41,0.32,-0.15,-3.72,-3.72,-3.72
365.49,-4.09,-4.09,-0.40,-0.39,0.39,0.29,-0.14,-3.71,-3.70,-3.69
369.14,-4.04,-4.05,-0.35,-0.36,0.36,0.26,-0.14,-3.68,-3.68,-3.69
372.83,-4.00,-4.00,-0.33,-0.34,0.34,0.23,-0.13,-3.66,-3.66,-3.67
376.56,-3.96,-3.96,-0.31,-0.31,0.31,0.21,-0.13,-3.65,-3.65,-3.65
380.33,-3.91,-3.91,-0.29,-0.29,0.29,0.18,-0.13,-3.63,-3.63,-3.62
384.13,-3.86,-3.86,-0.26,-0.26,0.26,0.15,-0.12,-3.60,-3.60,-3.60
387.97,-3.81,-3.81,-0.23,-0.23,0.23,0.12,-0.12,-3.58,-3.58,-3.59
391.85,-3.76,-3.76,-0.19,-0.20,0.20,0.09,-0.11,-3.56,-3.56,-3.57
395.77,-3.71,-3.71,-0.17,-0.17,0.17,0.07,-0.11,-3.54,-3.54,-3.54
399.73,-3.66,-3.66,-0.14,-0.14,0.14,0.04,-0.11,-3.52,-3.52,-3.52
403.72,-3.61,-3.61,-0.11,-0.11,0.11,0.02,-0.10,-3.50,-3.50,-3.50
407.76,-3.55,-3.55,-0.07,-0.07,0.07,-0.01,-0.10,-3.48,-3.48,-3.48
411.84,-3.49,-3.50,-0.04,-0.04,0.04,-0.03,-0.10,-3.45,-3.46,-3.45
415.96,-3.44,-3.44,-0.01,-0.00,0.00,-0.06,-0.09,-3.44,-3.44,-3.43
420.12,-3.38,-3.38,0.03,0.03,-0.04,-0.08,-0.09,-3.42,-3.42,-3.42
424.32,-3.32,-3.32,0.07,0.07,-0.08,-0.11,-0.09,-3.40,-3.40,-3.39
428.56,-3.25,-3.25,0.12,0.11,-0.12,-0.13,-0.09,-3.37,-3.37,-3.37
432.85,-3.19,-3.19,0.16,0.15,-0.16,-0.15,-0.09,-3.35,-3.35,-3.35
437.18,-3.12,-3.12,0.20,0.20,-0.20,-0.17,-0.09,-3.32,-3.32,-3.32
441.55,-3.06,-3.06,0.23,0.24,-0.23,-0.19,-0.08,-3.30,-3.29,-3.29
445.96,-2.99,-3.00,0.28,0.27,-0.27,-0.21,-0.08,-3.26,-3.27,-3.27
450.42,-2.94,-2.94,0.31,0.30,-0.30,-0.24,-0.08,-3.24,-3.24,-3.25
454.93,-2.89,-2.89,0.32,0.33,-0.33,-0.26,-0.08,-3.22,-3.21,-3.21
459.48,-2.84,-2.84,0.35,0.35,-0.35,-0.28,-0.09,-3.19,-3.19,-3.19
464.07,-2.79,-2.79,0.37,0.37,-0.37,-0.29,-0.09,-3.16,-3.16,-3.17
468.71,-2.75,-2.75,0.37,0.39,-0.39,-0.31,-0.09,-3.14,-3.14,-3.13
