frequency,raw,error,smoothed,error_smoothed,equalization,parametric_eq,equalized_raw,equalized_smoothed,target
20,-0.30,-4.44,-0.27,-4.41,4.41,3.98,4.11,4.14,4.14
21,0.30,-3.79,0.29,-3.80,3.80,3.96,4.10,4.09,4.09
22,0.85,-3.20,0.81,-3.24,3.24,3.56,4.09,4.05,4.05
23,1.26,-2.74,1.28,-2.72,2.72,2.98,3.98,4.00,4.00
24,1.73,-2.22,1.70,-2.25,2.25,2.40,3.98,3.95,3.95
25,2.11,-1.79,2.07,-1.84,1.84,1.88,3.95,3.90,3.90
26,2.41,-1.44,2.39,-1.46,1.46,1.45,3.87,3.85,3.85
27,2.69,-1.12,2.67,-1.14,1.14,1.10,3.83,3.81,3.81
28,2.86,-0.90,2.91,-0.84,0.84,0.80,3.70,3.76,3.76
29,3.14,-0.57,3.12,-0.59,0.59,0.56,3.73,3.71,3.71
30,3.29,-0.37,3.30,-0.35,0.35,0.35,3.64,3.66,3.66
31,3.44,-0.17,3.46,-0.14,0.14,0.18,3.58,3.61,3.61
32,3.59,0.03,3.61,0.05,-0.05,0.02,3.54,3.56,3.56
33,3.71,0.20,3.73,0.23,-0.23,-0.12,3.48,3.51,3.51
34,3.86,0.40,3.85,0.39,-0.39,-0.24,3.47,3.46,3.46
35,3.97,0.56,3.95,0.54,-0.54,-0.36,3.43,3.41,3.41
36,4.05,0.70,4.04,0.68,-0.68,-0.46,3.37,3.35,3.35
37,4.13,0.83,4.12,0.82,-0.82,-0.56,3.31,3.30,3.30
38,4.17,0.92,4.19,0.94,-0.94,-0.66,3.23,3.25,3.25
39,4.24,1.04,4.26,1.06,-1.06,-0.75,3.18,3.20,3.20
40,4.30,1.15,4.32,1.18,-1.18,-0.84,3.12,3.14,3.15
41,4.37,1.28,4.38,1.29,-1.29,-0.93,3.08,3.09,3.09
42,4.42,1.38,4.43,1.39,-1.39,-1.01,3.03,3.04,3.04
43,4.51,1.52,4.48,1.49,-1.49,-1.09,3.02,2.99,2.99
44,4.55,1.61,4.52,1.58,-1.58,-1.17,2.97,2.94,2.94
45,4.56,1.67,4.55,1.67,-1.67,-1.25,2.89,2.89,2.89
46,4.58,1.75,4.58,1.75,-1.75,-1.33,2.83,2.83,2.83
47,4.59,1.81,4.61,1.82,-1.82,-1.41,2.77,2.78,2.78
48,4.63,1.89,4.63,1.89,-1.89,-1.49,2.74,2.74,2.73
49,4.65,1.96,4.65,1.96,-1.96,-1.57,2.69,2.69,2.69
50,4.69,2.05,4.67,2.03,-2.03,-1.64,2.66,2.64,2.64
51,4.69,2.10,4.70,2.10,-2.10,-1.72,2.59,2.59,2.59
52,4.71,2.16,4.73,2.18,-2.18,-1.80,2.53,2.55,2.55
53,4.74,2.24,4.76,2.26,-2.26,-1.88,2.48,2.50,2.50
54,4.80,2.34,4.80,2.34,-2.34,-1.95,2.46,2.46,2.46
55,4.83,2.41,4.84,2.42,-2.42,-2.03,2.41,2.42,2.42
56,4.87,2.49,4.89,2.51,-2.51,-2.11,2.36,2.38,2.38
57,4.97,2.63,4.94,2.60,-2.60,-2.19,2.37,2.34,2.34
58,5.00,2.70,4.99,2.69,-2.69,-2.27,2.31,2.30,2.30
59,5.02,2.76,5.04,2.78,-2.78,-2.34,2.24,2.26,2.26
60,5.12,2.89,5.09,2.87,-2.87,-2.42,2.25,2.23,2.23
61,5.15,2.95,5.14,2.95,-2.95,-2.50,2.20,2.20,2.20
62,5.17,3.01,5.18,3.02,-3.02,-2.58,2.15,2.16,2.16
63,5.24,3.11,5.22,3.09,-3.09,-2.66,2.15,2.13,2.13
64,5.27,3.17,5.26,3.16,-3.16,-2.74,2.11,2.10,2.10
65,5.28,3.21,5.29,3.22,-3.22,-2.82,2.06,2.07,2.07
66,5.31,3.27,5.32,3.27,-3.27,-2.90,2.04,2.04,2.04
67,5.36,3.34,5.34,3.33,-3.33,-2.97,2.03,2.02,2.02
68,5.36,3.37,5.37,3.38,-3.38,-3.05,1.98,1.99,1.99
69,5.37,3.41,5.39,3.43,-3.43,-3.13,1.94,1.96,1.96
70,5.43,3.49,5.42,3.48,-3.48,-3.21,1.95,1.94,1.94
71,5.43,3.52,5.44,3.53,-3.53,-3.29,1.90,1.91,1.91
72,5.47,3.59,5.47,3.58,-3.58,-3.37,1.89,1.88,1.88
73,5.50,3.64,5.49,3.63,-3.63,-3.45,1.87,1.86,1.86
74,5.51,3.68,5.52,3.68,-3.68,-3.53,1.83,1.83,1.83
75,5.53,3.72,5.54,3.74,-3.74,-3.60,1.79,1.81,1.81
76,5.58,3.80,5.57,3.79,-3.79,-3.68,1.79,1.78,1.78
77,5.58,3.83,5.59,3.84,-3.84,-3.76,1.74,1.75,1.75
78,5.62,3.90,5.61,3.89,-3.89,-3.84,1.73,1.72,1.72
79,5.65,3.96,5.64,3.94,-3.94,-3.92,1.71,1.69,1.69
80,5.65,3.98,5.66,3.99,-3.99,-3.99,1.66,1.66,1.66
81,5.69,4.06,5.68,4.05,-4.05,-4.07,1.64,1.63,1.63
82,5.70,4.10,5.70,4.10,-4.10,-4.14,1.60,1.60,1.60
83,5.71,4.14,5.72,4.15,-4.15,-4.22,1.56,1.57,1.57
84,5.76,4.22,5.75,4.21,-4.21,-4.29,1.55,1.54,1.54
85,5.75,4.25,5.77,4.26,-4.26,-4.37,1.49,1.50,1.50
86,5.79,4.32,5.79,4.32,-4.32,-4.44,1.47,1.47,1.47
87,5.82,4.39,5.81,4.38,-4.38,-4.51,1.44,1.43,1.43
88,5.82,4.42,5.83,4.44,-4.44,-4.59,1.38,1.40,1.40
89,5.86,4.50,5.85,4.49,-4.49,-4.66,1.37,1.36,1.36
90,5.88,4.56,5.87,4.55,-4.55,-4.73,1.33,1.32,1.32
91,5.87,4.59,5.89,4.61,-4.61,-4.80,1.26,1.28,1.28
92,5.93,4.69,5.91,4.66,-4.66,-4.86,1.27,1.24,1.24
93,5.92,4.72,5.92,4.72,-4.72,-4.93,1.20,1.20,1.20
94,5.93,4.77,5.93,4.77,-4.77,-5.00,1.16,1.16,1.16
95,5.95,4.83,5.95,4.83,-4.83,-5.06,1.12,1.12,1.12
96,5.94,4.86,5.96,4.88,-4.88,-5.13,1.06,1.08,1.08
97,6.00,4.96,5.98,4.94,-4.94,-5.19,1.06,1.04,1.04
98,6.00,5.00,5.99,4.99,-4.99,-5.25,1.01,1.00,1.00
99,5.99,5.03,6.01,5.06,-5.06,-5.32,0.93,0.95,0.96
100,6.04,5.12,6.03,5.12,-5.12,-5.38,0.92,0.91,0.92
101,6.03,5.15,6.05,5.19,-5.19,-5.43,0.84,0.86,0.88
102,6.05,5.21,6.08,5.26,-5.26,-5.49,0.79,0.82,0.84
104,6.12,5.37,6.10,5.33,-5.33,-5.60,0.79,0.77,0.75
105,6.15,5.44,6.12,5.40,-5.40,-5.66,0.75,0.73,0.71
106,6.16,5.48,6.15,5.47,-5.47,-5.71,0.69,0.68,0.68
107,6.16,5.52,6.17,5.53,-5.53,-5.76,0.63,0.64,0.64
108,6.19,5.59,6.19,5.59,-5.59,-5.81,0.60,0.60,0.60
109,6.20,5.64,6.21,5.64,-5.64,-5.86,0.56,0.56,0.56
110,6.22,5.69,6.22,5.70,-5.70,-5.90,0.52,0.53,0.53
111,6.26,5.77,6.24,5.75,-5.75,-5.95,0.51,0.49,0.49
112,6.25,5.79,6.26,5.81,-5.81,-5.99,0.44,0.45,0.46
113,6.26,5.84,6.28,5.86,-5.86,-6.03,0.40,0.42,0.42
114,6.30,5.91,6.30,5.92,-5.92,-6.08,0.38,0.38,0.39
115,6.29,5.94,6.31,5.97,-5.97,-6.11,0.32,0.34,0.35
117,6.37,6.08,6.33,6.03,-6.03,-6.19,0.34,0.30,0.29
118,6.36,6.11,6.35,6.09,-6.09,-6.22,0.27,0.26,0.25
119,6.35,6.13,6.36,6.14,-6.14,-6.26,0.21,0.22,0.22
120,6.38,6.19,6.38,6.20,-6.20,-6.29,0.18,0.18,0.19
121,6.38,6.22,6.40,6.25,-6.25,-6.32,0.13,0.15,0.16
123,6.41,6.31,6.41,6.30,-6.30,-6.38,0.11,0.11,0.10
124,6.45,6.38,6.42,6.35,-6.35,-6.41,0.10,0.07,0.07
125,6.43,6.39,6.44,6.40,-6.40,-6.43,0.03,0.03,0.04
126,6.41,6.40,6.45,6.45,-6.45,-6.46,-0.04,-0.00,0.01
128,6.49,6.54,6.46,6.50,-6.50,-6.50,-0.01,-0.04,-0.05
129,6.47,6.55,6.47,6.54,-6.54,-6.52,-0.07,-0.07,-0.08
130,6.47,6.57,6.48,6.59,-6.59,-6.54,-0.12,-0.11,-0.10
131,6.51,6.64,6.49,6.63,-6.63,-6.56,-0.12,-0.14,-0.13
133,6.51,6.69,6.50,6.67,-6.67,-6.59,-0.16,-0.17,-0.18
134,6.49,6.69,6.51,6.71,-6.71,-6.61,-0.22,-0.21,-0.20
135,6.49,6.72,6.52,6.75,-6.75,-6.62,-0.26,-0.24,-0.23
137,6.54,6.81,6.52,6.79,-6.79,-6.65,-0.25,-0.27,-0.27
138,6.51,6.80,6.53,6.83,-6.83,-6.66,-0.32,-0.30,-0.29
140,6.56,6.90,6.53,6.86,-6.86,-6.68,-0.30,-0.33,-0.34
141,6.56,6.92,6.53,6.89,-6.89,-6.69,-0.33,-0.35,-0.36
142,6.53,6.90,6.53,6.91,-6.91,-6.70,-0.38,-0.38,-0.37
144,6.52,6.93,6.52,6.93,-6.93,-6.71,-0.41,-0.41,-0.41
145,6.49,6.91,6.52,6.95,-6.95,-6.72,-0.46,-0.43,-0.42
147,6.51,6.97,6.51,6.96,-6.96,-6.73,-0.45,-0.45,-0.46
148,6.51,6.98,6.50,6.97,-6.97,-6.73,-0.46,-0.48,-0.47
150,6.49,6.99,6.48,6.98,-6.98,-6.74,-0.49,-0.50,-0.50
151,6.46,6.97,6.47,6.99,-6.99,-6.74,-0.53,-0.52,-0.51
153,6.44,6.98,6.46,7.00,-7.00,-6.74,-0.56,-0.54,-0.54
154,6.43,6.98,6.45,7.01,-7.01,-6.74,-0.58,-0.56,-0.56
156,6.45,7.03,6.43,7.01,-7.01,-6.75,-0.56,-0.58,-0.58
157,6.43,7.02,6.41,7.01,-7.01,-6.75,-0.58,-0.60,-0.59
159,6.40,7.02,6.39,7.01,-7.01,-6.75,-0.61,-0.62,-0.62
160,6.37,7.00,6.37,7.01,-7.01,-6.75,-0.64,-0.64,-0.63
162,6.35,7.01,6.34,7.00,-7.00,-6.75,-0.65,-0.66,-0.66
164,6.32,7.00,6.32,7.00,-7.00,-6.74,-0.68,-0.68,-0.68
165,6.29,6.99,6.29,6.99,-6.99,-6.74,-0.70,-0.70,-0.70
167,6.25,6.97,6.25,6.98,-6.98,-6.74,-0.73,-0.72,-0.72
169,6.21,6.96,6.22,6.97,-6.97,-6.74,-0.76,-0.75,-0.75
170,6.18,6.95,6.19,6.96,-6.96,-6.74,-0.78,-0.77,-0.77
172,6.15,6.94,6.16,6.96,-6.96,-6.74,-0.81,-0.79,-0.79
174,6.14,6.96,6.13,6.95,-6.95,-6.74,-0.81,-0.82,-0.82
175,6.11,6.95,6.10,6.95,-6.95,-6.74,-0.84,-0.84,-0.84
177,6.10,6.96,6.07,6.94,-6.94,-6.74,-0.84,-0.87,-0.86
179,6.06,6.95,6.05,6.94,-6.94,-6.74,-0.88,-0.89,-0.89
181,6.01,6.93,6.02,6.93,-6.93,-6.74,-0.92,-0.92,-0.92
183,5.98,6.93,5.99,6.93,-6.93,-6.74,-0.95,-0.94,-0.95
184,5.95,6.92,5.96,6.93,-6.93,-6.74,-0.98,-0.97,-0.97
186,5.91,6.90,5.94,6.93,-6.93,-6.75,-1.02,-0.99,-0.99
188,5.91,6.93,5.92,6.94,-6.94,-6.75,-1.03,-1.02,-1.02
190,5.92,6.97,5.89,6.94,-6.94,-6.75,-1.02,-1.05,-1.05
192,5.90,6.97,5.87,6.95,-6.95,-6.76,-1.05,-1.07,-1.07
194,5.86,6.96,5.85,6.95,-6.95,-6.76,-1.09,-1.10,-1.10
196,5.83,6.95,5.83,6.95,-6.95,-6.77,-1.12,-1.12,-1.12
198,5.79,6.94,5.81,6.96,-6.96,-6.78,-1.17,-1.15,-1.15
200,5.77,6.94,5.79,6.96,-6.96,-6.78,-1.19,-1.17,-1.17
202,5.77,6.96,5.77,6.96,-6.96,-6.79,-1.19,-1.19,-1.19
204,5.76,6.97,5.75,6.96,-6.96,-6.80,-1.20,-1.21,-1.22
206,5.74,6.98,5.73,6.97,-6.97,-6.81,-1.23,-1.24,-1.24
208,5.71,6.97,5.71,6.97,-6.97,-6.81,-1.26,-1.26,-1.26
210,5.69,6.96,5.70,6.97,-6.97,-6.82,-1.28,-1.27,-1.27
212,5.68,6.97,5.68,6.98,-6.98,-6.83,-1.30,-1.29,-1.29
214,5.66,6.97,5.67,6.98,-6.98,-6.84,-1.32,-1.31,-1.31
216,5.65,6.97,5.65,6.98,-6.98,-6.84,-1.33,-1.33,-1.32
218,5.63,6.97,5.64,6.98,-6.98,-6.85,-1.35,-1.34,-1.34
221,5.62,6.98,5.62,6.97,-6.97,-6.85,-1.35,-1.35,-1.36
223,5.61,6.98,5.60,6.96,-6.96,-6.86,-1.35,-1.37,-1.37
225,5.59,6.97,5.57,6.95,-6.95,-6.86,-1.36,-1.38,-1.38
227,5.55,6.94,5.54,6.93,-6.93,-6.86,-1.38,-1.39,-1.39
229,5.50,6.89,5.51,6.90,-6.90,-6.85,-1.40,-1.39,-1.39
232,5.46,6.86,5.47,6.87,-6.87,-6.85,-1.41,-1.40,-1.40
234,5.44,6.85,5.43,6.83,-6.83,-6.84,-1.39,-1.41,-1.41
236,5.40,6.81,5.38,6.79,-6.79,-6.83,-1.39,-1.41,-1.41
239,5.31,6.72,5.33,6.75,-6.75,-6.81,-1.44,-1.41,-1.41
241,5.29,6.70,5.29,6.70,-6.70,-6.79,-1.41,-1.41,-1.41
244,5.23,6.64,5.24,6.65,-6.65,-6.76,-1.42,-1.41,-1.41
246,5.18,6.59,5.20,6.61,-6.61,-6.74,-1.43,-1.41,-1.41
248,5.17,6.58,5.16,6.56,-6.56,-6.72,-1.40,-1.41,-1.41
251,5.11,6.51,5.12,6.52,-6.52,-6.67,-1.41,-1.40,-1.40
253,5.08,6.48,5.08,6.48,-6.48,-6.64,-1.40,-1.40,-1.40
256,5.06,6.45,5.04,6.43,-6.43,-6.59,-1.37,-1.39,-1.39
259,4.98,6.37,5.00,6.39,-6.39,-6.53,-1.41,-1.39,-1.39
261,4.97,6.35,4.96,6.34,-6.34,-6.49,-1.37,-1.38,-1.38
264,4.88,6.25,4.92,6.29,-6.29,-6.42,-1.41,-1.37,-1.37
266,4.87,6.23,4.87,6.24,-6.24,-6.37,-1.37,-1.37,-1.36
269,4.86,6.22,4.82,6.18,-6.18,-6.29,-1.32,-1.36,-1.36
272,4.77,6.12,4.77,6.12,-6.12,-6.21,-1.35,-1.35,-1.35
274,4.74,6.08,4.71,6.05,-6.05,-6.15,-1.31,-1.34,-1.34
277,4.63,5.96,4.66,5.99,-5.99,-6.07,-1.36,-1.33,-1.33
280,4.59,5.91,4.59,5.92,-5.92,-5.98,-1.33,-1.32,-1.32
283,4.52,5.83,4.53,5.84,-5.84,-5.88,-1.32,-1.31,-1.31
286,4.47,5.77,4.46,5.77,-5.77,-5.79,-1.30,-1.30,-1.30
288,4.42,5.71,4.40,5.69,-5.69,-5.72,-1.27,-1.29,-1.29
291,4.33,5.61,4.33,5.61,-5.61,-5.62,-1.28,-1.28,-1.28
294,4.24,5.52,4.26,5.54,-5.54,-5.52,-1.30,-1.28,-1.28
297,4.19,5.46,4.19,5.46,-5.46,-5.42,-1.27,-1.27,-1.27
300,4.12,5.38,4.13,5.39,-5.39,-5.32,-1.27,-1.26,-1.26
303,4.06,5.31,4.06,5.31,-5.31,-5.22,-1.25,-1.25,-1.25
306,4.02,5.26,3.99,5.24,-5.24,-5.12,-1.22,-1.24,-1.24
309,3.92,5.15,3.93,5.16,-5.16,-5.02,-1.24,-1.23,-1.23
312,3.88,5.11,3.86,5.09,-5.09,-4.92,-1.21,-1.23,-1.23
316,3.76,4.98,3.79,5.01,-5.01,-4.79,-1.25,-1.22,-1.22
319,3.73,4.94,3.72,4.94,-4.94,-4.70,-1.21,-1.21,-1.21
322,3.65,4.85,3.66,4.86,-4.86,-4.60,-1.21,-1.20,-1.20
325,3.60,4.80,3.59,4.79,-4.79,-4.51,-1.19,-1.20,-1.20
328,3.53,4.72,3.52,4.71,-4.71,-4.42,-1.18,-1.19,-1.19
332,3.45,4.63,3.46,4.64,-4.64,-4.30,-1.19,-1.18,-1.18
335,3.39,4.57,3.39,4.57,-4.57,-4.21,-1.18,-1.18,-1.18
338,3.34,4.51,3.32,4.50,-4.50,-4.12,-1.16,-1.17,-1.17
342,3.23,4.40,3.26,4.42,-4.42,-4.01,-1.19,-1.17,-1.17
345,3.19,4.35,3.19,4.35,-4.35,-3.93,-1.16,-1.16,-1.16
349,3.13,4.29,3.12,4.28,-4.28,-3.82,-1.15,-1.16,-1.16
352,3.06,4.21,3.05,4.21,-4.21,-3.74,-1.15,-1.15,-1.15
356,3.00,4.15,2.99,4.14,-4.14,-3.64,-1.14,-1.15,-1.15
359,2.90,4.04,2.92,4.07,-4.07,-3.57,-1.17,-1.14,-1.14
363,2.88,4.02,2.86,4.00,-4.00,-3.47,-1.12,-1.14,-1.14
366,2.75,3.89,2.79,3.93,-3.93,-3.40,-1.18,-1.14,-1.14
370,2.74,3.87,2.72,3.86,-3.86,-3.31,-1.12,-1.13,-1.13
374,2.66,3.79,2.66,3.79,-3.79,-3.23,-1.13,-1.13,-1.13
377,2.60,3.73,2.59,3.73,-3.73,-3.16,-1.13,-1.13,-1.13
381,2.54,3.67,2.53,3.66,-3.66,-3.08,-1.12,-1.13,-1.13
385,2.47,3.60,2.46,3.59,-3.59,-3.00,-1.12,-1.13,-1.13
389,2.39,3.52,2.40,3.53,-3.53,-2.92,-1.14,-1.13,-1.13
393,2.32,3.45,2.33,3.46,-3.46,-2.85,-1.14,-1.13,-1.13
397,2.27,3.40,2.27,3.39,-3.39,-2.77,-1.12,-1.13,-1.13
401,2.20,3.32,2.20,3.33,-3.33,-2.70,-1.13,-1.12,-1.12
405,2.15,3.27,2.13,3.26,-3.26,-2.63,-1.11,-1.12,-1.12
409,2.05,3.17,2.07,3.19,-3.19,-2.57,-1.14,-1.12,-1.12
413,2.04,3.16,2.00,3.12,-3.12,-2.50,-1.08,-1.12,-1.12
417,1.89,3.01,1.93,3.05,-3.05,-2.44,-1.16,-1.12,-1.12
421,1.88,2.99,1.86,2.97,-2.97,-2.38,-1.09,-1.11,-1.11
425,1.78,2.89,1.79,2.90,-2.90,-2.32,-1.12,-1.11,-1.11
430,1.72,2.82,1.72,2.82,-2.82,-2.25,-1.10,-1.10,-1.10
434,1.65,2.74,1.65,2.74,-2.74,-2.19,-1.09,-1.09,-1.09
438,1.59,2.67,1.58,2.67,-2.67,-2.14,-1.08,-1.08,-1.08
443,1.51,2.58,1.52,2.59,-2.59,-2.07,-1.08,-1.07,-1.07
447,1.44,2.50,1.45,2.51,-2.51,-2.02,-1.07,-1.06,-1.06
451,1.40,2.45,1.38,2.43,-2.43,-1.97,-1.03,-1.05,-1.05
456,1.31,2.34,1.31,2.35,-2.35,-1.91,-1.04,-1.03,-1.03
460,1.25,2.27,1.25,2.27,-2.27,-1.86,-1.02,-1.02,-1.02
465,1.18,2.18,1.19,2.19,-2.19,-1.80,-1.01,-1.00,-1.00
470,1.11,2.09,1.12,2.11,-2.11,-1.74,-1.00,-0.98,-0.98
474,1.08,2.05,1.06,2.03,-2.03,-1.70,-0.95,-0.97,-0.97
479,0.99,1.94,1.00,1.95,-1.95,-1.64,-0.96,-0.95,-0.95
484,0.96,1.89,0.95,1.88,-1.88,-1.59,-0.92,-0.93,-0.93
489,0.86,1.77,0.89,1.80,-1.80,-1.54,-0.94,-0.91,-0.91
494,0.83,1.73,0.83,1.73,-1.73,-1.49,-0.90,-0.90,-0.90
499,0.80,1.68,0.77,1.65,-1.65,-1.44,-0.85,-0.88,-0.88
504,0.73,1.59,0.71,1.58,-1.58,-1.39,-0.85,-0.87,-0.86
509,0.65,1.50,0.65,1.50,-1.50,-1.34,-0.85,-0.85,-0.85
514,0.59,1.43,0.59,1.43,-1.43,-1.29,-0.84,-0.84,-0.84
519,0.53,1.35,0.53,1.35,-1.35,-1.24,-0.82,-0.82,-0.82
524,0.46,1.27,0.47,1.28,-1.28,-1.19,-0.82,-0.81,-0.81
529,0.40,1.20,0.41,1.20,-1.20,-1.15,-0.80,-0.80,-0.80
535,0.33,1.12,0.35,1.13,-1.13,-1.09,-0.80,-0.79,-0.79
540,0.30,1.07,0.29,1.06,-1.06,-1.04,-0.76,-0.77,-0.77
545,0.22,0.98,0.23,0.99,-0.99,-1.00,-0.77,-0.76,-0.76
551,0.18,0.93,0.17,0.92,-0.92,-0.94,-0.74,-0.75,-0.75
556,0.10,0.84,0.11,0.84,-0.84,-0.89,-0.74,-0.74,-0.74
562,0.09,0.81,0.05,0.77,-0.77,-0.84,-0.68,-0.72,-0.72
568,-0.04,0.67,-0.01,0.70,-0.70,-0.78,-0.74,-0.71,-0.71
573,-0.07,0.62,-0.06,0.63,-0.63,-0.73,-0.70,-0.69,-0.69
579,-0.12,0.55,-0.12,0.55,-0.55,-0.67,-0.67,-0.67,-0.67
585,-0.19,0.46,-0.17,0.48,-0.48,-0.61,-0.67,-0.65,-0.65
591,-0.22,0.41,-0.22,0.41,-0.41,-0.55,-0.63,-0.63,-0.63
596,-0.27,0.34,-0.27,0.33,-0.33,-0.50,-0.60,-0.61,-0.61
602,-0.30,0.28,-0.33,0.26,-0.26,-0.44,-0.56,-0.58,-0.58
608,-0.38,0.18,-0.38,0.18,-0.18,-0.38,-0.56,-0.56,-0.56
615,-0.42,0.11,-0.44,0.09,-0.09,-0.30,-0.51,-0.53,-0.53
621,-0.50,0.00,-0.49,0.01,-0.01,-0.24,-0.51,-0.50,-0.50
627,-0.55,-0.07,-0.55,-0.07,0.07,-0.17,-0.48,-0.47,-0.48
633,-0.62,-0.17,-0.60,-0.15,0.15,-0.10,-0.47,-0.45,-0.45
639,-0.65,-0.23,-0.66,-0.24,0.24,-0.03,-0.41,-0.42,-0.42
646,-0.74,-0.35,-0.71,-0.32,0.32,0.05,-0.42,-0.39,-0.39
652,-0.73,-0.36,-0.76,-0.40,0.40,0.13,-0.33,-0.37,-0.37
659,-0.83,-0.49,-0.82,-0.47,0.47,0.22,-0.36,-0.34,-0.34
665,-0.84,-0.52,-0.87,-0.55,0.55,0.29,-0.29,-0.32,-0.32
672,-0.91,-0.61,-0.92,-0.62,0.62,0.38,-0.29,-0.30,-0.30
679,-0.98,-0.70,-0.97,-0.69,0.69,0.48,-0.29,-0.28,-0.28
686,-1.01,-0.75,-1.01,-0.75,0.75,0.57,-0.26,-0.27,-0.26
692,-1.09,-0.84,-1.06,-0.81,0.81,0.65,-0.28,-0.25,-0.25
699,-1.08,-0.84,-1.10,-0.86,0.86,0.74,-0.22,-0.24,-0.24
706,-1.16,-0.93,-1.14,-0.91,0.91,0.83,-0.25,-0.23,-0.23
713,-1.17,-0.95,-1.18,-0.96,0.96,0.91,-0.22,-0.23,-0.22
721,-1.22,-1.00,-1.21,-0.99,0.99,1.00,-0.23,-0.22,-0.22
728,-1.26,-1.04,-1.25,-1.03,1.03,1.08,-0.23,-0.22,-0.22
735,-1.29,-1.07,-1.28,-1.06,1.06,1.15,-0.23,-0.22,-0.22
742,-1.27,-1.05,-1.31,-1.09,1.09,1.20,-0.18,-0.22,-0.22
750,-1.32,-1.10,-1.34,-1.11,1.11,1.26,-0.21,-0.22,-0.22
757,-1.35,-1.12,-1.36,-1.14,1.14,1.30,-0.21,-0.23,-0.23
765,-1.38,-1.15,-1.39,-1.16,1.16,1.33,-0.22,-0.23,-0.23
773,-1.40,-1.17,-1.41,-1.18,1.18,1.34,-0.22,-0.23,-0.23
780,-1.46,-1.22,-1.42,-1.18,1.18,1.35,-0.28,-0.24,-0.24
788,-1.48,-1.24,-1.43,-1.19,1.19,1.34,-0.29,-0.24,-0.24
796,-1.41,-1.16,-1.42,-1.18,1.18,1.31,-0.23,-0.25,-0.25
804,-1.41,-1.16,-1.41,-1.16,1.16,1.28,-0.25,-0.25,-0.25
812,-1.38,-1.13,-1.39,-1.14,1.14,1.23,-0.24,-0.25,-0.25
820,-1.35,-1.10,-1.36,-1.10,1.10,1.18,-0.25,-0.25,-0.25
828,-1.32,-1.07,-1.32,-1.07,1.07,1.12,-0.25,-0.25,-0.25
837,-1.27,-1.02,-1.27,-1.02,1.02,1.05,-0.25,-0.25,-0.25
845,-1.23,-0.98,-1.22,-0.97,0.97,0.98,-0.26,-0.25,-0.25
853,-1.18,-0.93,-1.17,-0.92,0.92,0.91,-0.26,-0.25,-0.25
862,-1.12,-0.88,-1.11,-0.87,0.87,0.83,-0.25,-0.24,-0.24
871,-1.04,-0.80,-1.05,-0.81,0.81,0.75,-0.23,-0.24,-0.24
879,-0.96,-0.73,-0.98,-0.75,0.75,0.68,-0.21,-0.23,-0.23
888,-0.92,-0.70,-0.92,-0.70,0.70,0.60,-0.22,-0.22,-0.22
897,-0.83,-0.62,-0.85,-0.64,0.64,0.53,-0.19,-0.21,-0.21
906,-0.80,-0.60,-0.78,-0.58,0.58,0.46,-0.22,-0.20,-0.20
915,-0.70,-0.52,-0.71,-0.53,0.53,0.39,-0.17,-0.18,-0.18
924,-0.67,-0.50,-0.64,-0.47,0.47,0.32,-0.20,-0.17,-0.17
933,-0.54,-0.39,-0.57,-0.42,0.42,0.26,-0.12,-0.15,-0.15
943,-0.50,-0.37,-0.50,-0.37,0.37,0.19,-0.13,-0.13,-0.13
952,-0.42,-0.31,-0.42,-0.31,0.31,0.14,-0.11,-0.11,-0.11
962,-0.36,-0.27,-0.34,-0.26,0.26,0.08,-0.10,-0.09,-0.09
971,-0.25,-0.19,-0.26,-0.20,0.20,0.02,-0.05,-0.06,-0.06
981,-0.20,-0.16,-0.18,-0.14,0.14,-0.03,-0.06,-0.04,-0.04
991,-0.09,-0.08,-0.09,-0.08,0.08,-0.08,-0.01,-0.01,-0.01
1001,0.01,-0.01,-0.00,-0.02,0.02,-0.13,0.03,0.02,0.02
1011,0.09,0.04,0.09,0.04,-0.04,-0.18,0.05,0.05,0.05
1021,0.18,0.09,0.19,0.10,-0.10,-0.23,0.08,0.09,0.09
1031,0.29,0.17,0.29,0.16,-0.16,-0.28,0.12,0.13,0.12
1041,0.41,0.25,0.39,0.23,-0.23,-0.32,0.18,0.16,0.16
1052,0.49,0.29,0.50,0.29,-0.29,-0.37,0.20,0.20,0.20
1062,0.59,0.34,0.60,0.35,-0.35,-0.41,0.24,0.25,0.25
1073,0.69,0.40,0.70,0.41,-0.41,-0.45,0.28,0.29,0.29
1084,0.80,0.47,0.81,0.47,-0.47,-0.50,0.33,0.34,0.33
1094,0.93,0.55,0.91,0.53,-0.53,-0.54,0.40,0.38,0.38
1105,1.01,0.58,1.01,0.58,-0.58,-0.58,0.43,0.43,0.43
1116,1.10,0.63,1.10,0.62,-0.62,-0.62,0.48,0.48,0.47
1128,1.21,0.69,1.19,0.67,-0.67,-0.67,0.54,0.52,0.52
1139,1.28,0.71,1.28,0.71,-0.71,-0.71,0.57,0.57,0.57
1150,1.38,0.76,1.36,0.75,-0.75,-0.75,0.63,0.62,0.62
1162,1.45,0.79,1.45,0.79,-0.79,-0.80,0.66,0.66,0.66
1173,1.50,0.79,1.54,0.83,-0.83,-0.84,0.67,0.71,0.71
1185,1.62,0.87,1.63,0.88,-0.88,-0.89,0.74,0.75,0.75
1197,1.71,0.92,1.73,0.94,-0.94,-0.94,0.77,0.79,0.79
1209,1.81,0.98,1.83,1.00,-1.00,-0.99,0.81,0.83,0.83
1221,1.94,1.08,1.93,1.07,-1.07,-1.03,0.87,0.86,0.86
1233,2.03,1.14,2.04,1.14,-1.14,-1.08,0.89,0.89,0.89
1246,2.14,1.22,2.14,1.21,-1.21,-1.14,0.93,0.92,0.92
1258,2.24,1.29,2.23,1.28,-1.28,-1.18,0.96,0.95,0.95
1271,2.35,1.38,2.32,1.35,-1.35,-1.24,1.00,0.97,0.97
1283,2.42,1.43,2.40,1.41,-1.41,-1.29,1.01,0.99,0.99
1296,2.48,1.47,2.47,1.46,-1.46,-1.34,1.02,1.00,1.01
1309,2.52,1.50,2.53,1.51,-1.51,-1.40,1.01,1.02,1.02
1322,2.58,1.55,2.58,1.56,-1.56,-1.45,1.02,1.02,1.03
1335,2.62,1.59,2.63,1.60,-1.60,-1.51,1.02,1.03,1.03
1349,2.68,1.65,2.67,1.64,-1.64,-1.57,1.04,1.03,1.03
1362,2.71,1.67,2.71,1.68,-1.68,-1.62,1.03,1.04,1.04
1376,2.75,1.71,2.75,1.72,-1.72,-1.68,1.03,1.03,1.04
1390,2.79,1.76,2.79,1.76,-1.76,-1.73,1.03,1.03,1.03
1404,2.82,1.79,2.83,1.80,-1.80,-1.78,1.02,1.03,1.03
1418,2.85,1.82,2.87,1.84,-1.84,-1.84,1.01,1.03,1.03
1432,2.93,1.90,2.90,1.88,-1.88,-1.88,1.05,1.02,1.03
1446,2.94,1.92,2.94,1.92,-1.92,-1.93,1.02,1.02,1.02
1461,2.97,1.95,2.98,1.95,-1.95,-1.97,1.02,1.02,1.02
1475,3.01,1.98,3.01,1.99,-1.99,-2.01,1.02,1.03,1.03
1490,3.05,2.02,3.05,2.02,-2.02,-2.05,1.03,1.03,1.03
1505,3.09,2.05,3.08,2.04,-2.04,-2.08,1.05,1.04,1.04
1520,3.12,2.07,3.11,2.06,-2.06,-2.11,1.06,1.05,1.05
1535,3.14,2.07,3.14,2.07,-2.07,-2.12,1.07,1.07,1.07
1550,3.18,2.09,3.17,2.08,-2.08,-2.14,1.10,1.09,1.09
1566,3.20,2.08,3.20,2.08,-2.08,-2.14,1.12,1.12,1.12
1582,3.23,2.07,3.23,2.08,-2.08,-2.14,1.15,1.16,1.16
1597,3.25,2.06,3.26,2.07,-2.07,-2.14,1.18,1.20,1.19
1613,3.29,2.05,3.30,2.06,-2.06,-2.12,1.23,1.24,1.24
1629,3.34,2.05,3.33,2.04,-2.04,-2.10,1.30,1.29,1.29
1646,3.36,2.01,3.36,2.01,-2.01,-2.07,1.35,1.35,1.35
1662,3.40,1.99,3.40,1.98,-1.98,-2.03,1.42,1.42,1.41
1679,3.44,1.96,3.44,1.95,-1.95,-1.99,1.49,1.49,1.48
1696,3.49,1.93,3.47,1.91,-1.91,-1.94,1.58,1.56,1.56
1713,3.50,1.86,3.51,1.87,-1.87,-1.88,1.63,1.64,1.64
1730,3.54,1.81,3.54,1.82,-1.82,-1.82,1.72,1.73,1.73
1747,3.56,1.74,3.58,1.76,-1.76,-1.76,1.80,1.82,1.82
1764,3.60,1.69,3.62,1.70,-1.70,-1.69,1.90,1.91,1.91
1782,3.65,1.64,3.65,1.64,-1.64,-1.61,2.01,2.01,2.01
1800,3.71,1.60,3.68,1.57,-1.57,-1.53,2.14,2.11,2.11
1818,3.74,1.52,3.71,1.50,-1.50,-1.45,2.24,2.22,2.22
1836,3.75,1.43,3.74,1.42,-1.42,-1.37,2.33,2.32,2.32
1854,3.75,1.32,3.77,1.34,-1.34,-1.28,2.41,2.43,2.43
1873,3.80,1.26,3.80,1.25,-1.25,-1.19,2.55,2.54,2.54
