frequency,raw
20,-3.69
21,-3.47
22,-3.27
23,-3.08
24,-2.91
25,-2.76
26,-2.62
27,-2.49
28,-2.38
29,-2.29
30,-2.21
31,-2.17
32,-2.14
33,-2.12
34,-2.12
35,-2.11
36,-2.12
37,-2.12
38,-2.13
39,-2.15
40,-2.15
41,-2.15
42,-2.15
43,-2.15
44,-2.15
45,-2.15
46,-2.15
47,-2.15
48,-2.15
49,-2.15
50,-2.15
51,-2.15
52,-2.15
53,-2.15
54,-2.15
55,-2.15
56,-2.15
57,-2.15
58,-2.15
59,-2.15
60,-2.15
61,-2.15
62,-2.15
63,-2.15
64,-2.15
65,-2.15
66,-2.15
67,-2.15
68,-2.15
69,-2.15
70,-2.15
71,-2.15
72,-2.15
73,-2.15
74,-2.14
75,-2.13
76,-2.12
77,-2.13
78,-2.14
79,-2.16
80,-2.18
81,-2.21
82,-2.24
83,-2.27
84,-2.31
85,-2.34
86,-2.37
87,-2.41
88,-2.43
89,-2.46
90,-2.48
91,-2.49
92,-2.50
93,-2.49
94,-2.48
95,-2.47
96,-2.47
97,-2.47
98,-2.47
99,-2.47
100,-2.48
101,-2.48
102,-2.49
104,-2.48
105,-2.47
106,-2.46
107,-2.45
108,-2.45
109,-2.44
110,-2.43
111,-2.42
112,-2.40
113,-2.38
114,-2.37
115,-2.37
117,-2.36
118,-2.36
119,-2.37
120,-2.38
121,-2.39
123,-2.41
124,-2.42
125,-2.43
126,-2.44
128,-2.44
129,-2.46
130,-2.47
131,-2.48
133,-2.49
134,-2.48
135,-2.48
137,-2.47
138,-2.47
140,-2.47
141,-2.47
142,-2.47
144,-2.47
145,-2.45
147,-2.45
148,-2.45
150,-2.46
151,-2.48
153,-2.50
154,-2.53
156,-2.56
157,-2.59
159,-2.62
160,-2.66
162,-2.69
164,-2.72
165,-2.75
167,-2.78
169,-2.80
170,-2.81
172,-2.82
174,-2.82
175,-2.81
177,-2.80
179,-2.80
181,-2.80
183,-2.80
184,-2.80
186,-2.80
188,-2.80
190,-2.80
192,-2.80
194,-2.80
196,-2.78
198,-2.77
200,-2.77
202,-2.79
204,-2.80
206,-2.82
208,-2.84
210,-2.86
212,-2.88
214,-2.91
216,-2.92
218,-2.93
221,-2.95
223,-2.96
225,-2.98
227,-3.00
229,-3.01
232,-3.02
234,-3.03
236,-3.04
239,-3.03
241,-3.04
244,-3.06
246,-3.08
248,-3.11
251,-3.14
253,-3.16
256,-3.18
259,-3.19
261,-3.20
264,-3.19
266,-3.19
269,-3.20
272,-3.19
274,-3.19
277,-3.19
280,-3.18
283,-3.17
286,-3.15
288,-3.14
291,-3.12
294,-3.11
297,-3.11
300,-3.11
303,-3.11
306,-3.12
309,-3.13
312,-3.14
316,-3.14
319,-3.14
322,-3.13
325,-3.12
328,-3.10
332,-3.07
335,-3.04
338,-3.01
342,-2.98
345,-2.94
349,-2.91
352,-2.88
356,-2.85
359,-2.82
363,-2.81
366,-2.79
370,-2.79
374,-2.79
377,-2.80
381,-2.79
385,-2.78
389,-2.76
393,-2.73
397,-2.70
401,-2.67
405,-2.64
409,-2.60
413,-2.57
417,-2.55
421,-2.53
425,-2.52
430,-2.49
434,-2.47
438,-2.45
443,-2.43
447,-2.40
451,-2.38
456,-2.35
460,-2.32
465,-2.28
470,-2.25
474,-2.22
479,-2.19
484,-2.16
489,-2.14
494,-2.13
499,-2.12
504,-2.12
509,-2.14
514,-2.15
519,-2.15
524,-2.15
529,-2.16
535,-2.17
540,-2.17
545,-2.17
551,-2.15
556,-2.13
562,-2.11
568,-2.08
573,-2.05
579,-2.02
585,-1.98
591,-1.95
596,-1.93
602,-1.91
608,-1.88
615,-1.85
621,-1.81
627,-1.78
633,-1.76
639,-1.75
646,-1.73
652,-1.70
659,-1.65
665,-1.60
672,-1.55
679,-1.50
686,-1.45
692,-1.40
699,-1.34
706,-1.28
713,-1.22
721,-1.18
728,-1.15
735,-1.10
742,-1.04
750,-0.98
757,-0.93
765,-0.87
773,-0.83
780,-0.79
788,-0.74
796,-0.70
804,-0.65
812,-0.60
820,-0.56
828,-0.52
837,-0.47
845,-0.42
853,-0.37
862,-0.34
871,-0.30
879,-0.28
888,-0.26
897,-0.25
906,-0.24
915,-0.22
924,-0.20
933,-0.18
943,-0.17
952,-0.15
962,-0.13
971,-0.10
981,-0.06
991,-0.03
1001,0.00
1011,0.03
1021,0.05
1031,0.07
1041,0.10
1052,0.13
1062,0.16
1073,0.19
1084,0.21
1094,0.22
1105,0.25
1116,0.29
1128,0.32
1139,0.36
1150,0.40
1162,0.43
1173,0.46
1185,0.47
1197,0.49
1209,0.48
1221,0.46
1233,0.42
1246,0.38
1258,0.32
1271,0.27
1283,0.20
1296,0.13
1309,0.04
1322,-0.05
1335,-0.17
1349,-0.30
1362,-0.44
1376,-0.59
1390,-0.76
1404,-0.93
1418,-1.12
1432,-1.31
1446,-1.52
1461,-1.72
1475,-1.93
1490,-2.13
1505,-2.34
1520,-2.55
1535,-2.75
1550,-2.94
1566,-3.13
1582,-3.32
1597,-3.52
1613,-3.72
1629,-3.94
1646,-4.15
1662,-4.37
1679,-4.58
1696,-4.79
1713,-4.99
1730,-5.20
1747,-5.41
1764,-5.61
1782,-5.81
1800,-6.00
1818,-6.19
1836,-6.37
1854,-6.53
1873,-6.67
1892,-6.82
1911,-6.95
1930,-7.07
1949,-7.19
1969,-7.30
1988,-7.40
2008,-7.48
2028,-7.54
2048,-7.57
2069,-7.59
2090,-7.60
2111,-7.62
2132,-7.61
2153,-7.59
2175,-7.57
2196,-7.53
2218,-7.47
2240,-7.40
2263,-7.31
2285,-7.23
2308,-7.13
2331,-7.03
2355,-6.93
2378,-6.84
2402,-6.74
2426,-6.62
2450,-6.50
2475,-6.37
2500,-6.23
2525,-6.11
2550,-5.98
2575,-5.85
2601,-5.72
2627,-5.60
2653,-5.46
2680,-5.33
2707,-5.21
2734,-5.08
2761,-4.95
2789,-4.83
2817,-4.71
2845,-4.60
2873,-4.51
2902,-4.43
2931,-4.34
2960,-4.27
2990,-4.23
3020,-4.19
3050,-4.15
3080,-4.12
3111,-4.09
3142,-4.06
3174,-4.03
3206,-3.99
3238,-3.95
3270,-3.93
3303,-3.91
3336,-3.90
3369,-3.89
3403,-3.89
3437,-3.91
3471,-3.92
3506,-3.94
3541,-3.96
3576,-3.97
3612,-3.99
3648,-4.00
3685,-3.99
3721,-3.96
3759,-3.91
3796,-3.84
3834,-3.76
3873,-3.66
3911,-3.55
3950,-3.44
3990,-3.32
4030,-3.19
4070,-3.06
4111,-2.92
4152,-2.77
4193,-2.61
4235,-2.42
4278,-2.22
4321,-2.01
4364,-1.80
4407,-1.59
4451,-1.39
4496,-1.20
4541,-1.02
4586,-0.84
4632,-0.69
4679,-0.55
4725,-0.43
4773,-0.30
4820,-0.19
4868,-0.08
4917,0.03
4966,0.13
5016,0.23
5066,0.35
5117,0.47
5168,0.60
5220,0.73
5272,0.86
5325,1.00
5378,1.13
5432,1.27
5486,1.39
5541,1.51
5596,1.63
5652,1.76
5709,1.90
5766,2.04
5823,2.17
5882,2.30
5940,2.44
6000,2.57
6060,2.69
6120,2.81
6182,2.92
6244,3.02
6306,3.11
6369,3.19
6433,3.26
6497,3.30
6562,3.34
6628,3.37
6694,3.38
6761,3.38
6828,3.38
6897,3.39
6966,3.40
7035,3.40
7106,3.39
7177,3.39
7249,3.39
7321,3.38
7394,3.35
7468,3.32
7543,3.29
7618,3.24
7694,3.19
7771,3.13
7849,3.05
7928,2.96
8007,2.87
8087,2.77
8168,2.66
8250,2.54
8332,2.42
8415,2.31
8499,2.21
8584,2.10
8670,2.00
8757,1.93
8845,1.87
8933,1.82
9022,1.78
9113,1.78
9204,1.80
9296,1.83
9389,1.89
9483,1.96
9577,2.02
9673,2.10
9770,2.17
9868,2.23
9966,2.29
10066,2.33
10167,2.38
10268,2.42
10371,2.43
10475,2.44
10579,2.45
10685,2.44
10792,2.40
10900,2.35
11009,2.30
11119,2.23
11230,2.16
11343,2.06
11456,1.95
11571,1.82
11686,1.68
11803,1.52
11921,1.34
12040,1.15
12161,0.96
12282,0.75
12405,0.52
12529,0.27
12655,0.02
12781,-0.23
12909,-0.50
13038,-0.76
13168,-1.02
13300,-1.25
13433,-1.46
13567,-1.64
13703,-1.80
13840,-1.93
13978,-2.03
14118,-2.11
14259,-2.16
14402,-2.18
14546,-2.18
14692,-2.16
14838,-2.13
14987,-2.11
15137,-2.12
15288,-2.13
15441,-2.16
15595,-2.22
15751,-2.29
15909,-2.38
16068,-2.49
16229,-2.62
16391,-2.78
16555,-2.94
16720,-3.12
16888,-3.30
17056,-3.50
17227,-3.69
17399,-3.88
17573,-4.06
17749,-4.22
17926,-4.37
18106,-4.52
18287,-4.67
18470,-4.82
18654,-4.97
18841,-5.11
19029,-5.26
19220,-5.40
19412,-5.53
19606,-5.67
19802,-5.80
20000,-5.93
