frequency,raw,error,smoothed,error_smoothed,equalization,parametric_eq,equalized_raw,equalized_smoothed,target
20.00,5.81,3.50,5.81,3.51,-3.51,-1.16,2.30,2.30,2.30
20.20,5.78,3.47,5.78,3.48,-3.48,-1.20,2.30,2.30,2.30
20.40,5.75,3.44,5.75,3.45,-3.45,-1.23,2.30,2.30,2.30
20.61,5.72,3.42,5.72,3.42,-3.42,-1.27,2.30,2.30,2.30
20.81,5.70,3.40,5.69,3.39,-3.39,-1.30,2.31,2.30,2.30
21.02,5.66,3.36,5.66,3.36,-3.36,-1.34,2.30,2.30,2.30
21.23,5.64,3.34,5.63,3.33,-3.33,-1.38,2.31,2.30,2.30
21.44,5.60,3.30,5.60,3.30,-3.30,-1.42,2.30,2.30,2.30
21.66,5.57,3.27,5.56,3.27,-3.27,-1.46,2.30,2.30,2.30
21.87,5.53,3.23,5.53,3.24,-3.24,-1.50,2.29,2.30,2.30
22.09,5.51,3.21,5.50,3.20,-3.20,-1.54,2.30,2.29,2.29
22.31,5.47,3.17,5.46,3.17,-3.17,-1.58,2.29,2.29,2.29
22.54,5.43,3.14,5.43,3.14,-3.14,-1.63,2.29,2.29,2.29
22.76,5.40,3.11,5.39,3.10,-3.10,-1.67,2.29,2.29,2.29
22.99,5.36,3.07,5.36,3.07,-3.07,-1.72,2.29,2.29,2.29
23.22,5.32,3.03,5.32,3.03,-3.03,-1.77,2.28,2.29,2.29
23.45,5.29,3.00,5.29,3.00,-3.00,-1.82,2.29,2.29,2.29
23.69,5.25,2.96,5.25,2.96,-2.96,-1.87,2.29,2.29,2.29
23.92,5.22,2.93,5.21,2.93,-2.93,-1.92,2.29,2.28,2.28
24.16,5.18,2.89,5.17,2.89,-2.89,-1.97,2.29,2.28,2.28
24.40,5.14,2.85,5.14,2.85,-2.85,-2.02,2.28,2.28,2.28
24.65,5.10,2.82,5.10,2.82,-2.82,-2.07,2.28,2.28,2.28
24.89,5.07,2.79,5.06,2.78,-2.78,-2.13,2.28,2.28,2.28
25.14,5.03,2.75,5.03,2.75,-2.75,-2.18,2.28,2.28,2.28
25.39,4.99,2.71,4.99,2.72,-2.72,-2.23,2.27,2.28,2.28
25.65,4.96,2.68,4.96,2.68,-2.68,-2.29,2.27,2.27,2.27
25.91,4.92,2.64,4.92,2.65,-2.65,-2.34,2.27,2.27,2.27
26.16,4.89,2.62,4.89,2.62,-2.62,-2.40,2.27,2.27,2.27
26.43,4.86,2.59,4.86,2.59,-2.59,-2.45,2.27,2.27,2.27
26.69,4.83,2.56,4.82,2.56,-2.56,-2.50,2.27,2.27,2.27
26.96,4.80,2.53,4.79,2.53,-2.53,-2.55,2.27,2.26,2.27
27.23,4.77,2.50,4.77,2.50,-2.50,-2.60,2.26,2.26,2.26
27.50,4.74,2.47,4.74,2.48,-2.48,-2.65,2.26,2.26,2.26
27.77,4.71,2.45,4.71,2.45,-2.45,-2.70,2.26,2.26,2.26
28.05,4.69,2.43,4.69,2.43,-2.43,-2.74,2.26,2.26,2.26
28.33,4.66,2.40,4.66,2.41,-2.41,-2.78,2.25,2.26,2.26
28.62,4.64,2.38,4.64,2.38,-2.38,-2.82,2.25,2.25,2.25
28.90,4.62,2.36,4.62,2.36,-2.36,-2.86,2.25,2.25,2.25
29.19,4.59,2.34,4.59,2.34,-2.34,-2.89,2.24,2.25,2.25
29.48,4.58,2.33,4.57,2.33,-2.33,-2.92,2.25,2.25,2.25
29.78,4.56,2.31,4.55,2.31,-2.31,-2.95,2.25,2.24,2.25
30.08,4.54,2.29,4.53,2.29,-2.29,-2.97,2.24,2.24,2.24
30.38,4.52,2.28,4.52,2.28,-2.28,-2.99,2.24,2.24,2.24
30.68,4.50,2.26,4.50,2.26,-2.26,-3.01,2.23,2.24,2.24
30.99,4.49,2.25,4.48,2.25,-2.25,-3.02,2.24,2.23,2.23
31.30,4.47,2.23,4.47,2.24,-2.24,-3.02,2.23,2.23,2.23
31.61,4.46,2.23,4.45,2.23,-2.23,-3.02,2.23,2.23,2.23
31.93,4.44,2.21,4.44,2.21,-2.21,-3.02,2.22,2.23,2.23
32.24,4.42,2.19,4.43,2.20,-2.20,-3.02,2.21,2.22,2.22
32.57,4.42,2.20,4.41,2.20,-2.20,-3.01,2.22,2.22,2.22
32.89,4.40,2.18,4.40,2.19,-2.19,-2.99,2.21,2.22,2.22
33.22,4.40,2.18,4.39,2.18,-2.18,-2.98,2.22,2.21,2.21
33.55,4.39,2.18,4.38,2.17,-2.17,-2.96,2.21,2.21,2.21
33.89,4.37,2.16,4.37,2.17,-2.17,-2.93,2.20,2.21,2.21
34.23,4.37,2.16,4.36,2.16,-2.16,-2.91,2.21,2.20,2.20
34.57,4.36,2.16,4.35,2.15,-2.15,-2.88,2.20,2.20,2.20
34.92,4.35,2.15,4.35,2.15,-2.15,-2.85,2.20,2.20,2.20
35.27,4.34,2.14,4.34,2.14,-2.14,-2.81,2.19,2.19,2.19
35.62,4.33,2.14,4.33,2.14,-2.14,-2.78,2.19,2.19,2.19
35.97,4.32,2.13,4.32,2.13,-2.13,-2.74,2.18,2.19,2.18
36.33,4.32,2.14,4.31,2.13,-2.13,-2.71,2.19,2.18,2.18
36.70,4.30,2.12,4.30,2.12,-2.12,-2.67,2.17,2.18,2.18
37.06,4.30,2.13,4.29,2.12,-2.12,-2.63,2.18,2.17,2.17
37.43,4.29,2.12,4.28,2.11,-2.11,-2.59,2.17,2.17,2.17
37.81,4.27,2.10,4.27,2.11,-2.11,-2.55,2.16,2.16,2.16
38.19,4.27,2.11,4.26,2.10,-2.10,-2.51,2.16,2.16,2.16
38.57,4.25,2.09,4.25,2.10,-2.10,-2.48,2.15,2.15,2.15
38.95,4.24,2.09,4.24,2.09,-2.09,-2.44,2.14,2.15,2.15
39.34,4.23,2.08,4.23,2.09,-2.09,-2.40,2.14,2.14,2.14
39.74,4.22,2.08,4.22,2.08,-2.08,-2.37,2.13,2.14,2.14
40.14,4.21,2.08,4.21,2.08,-2.08,-2.33,2.13,2.13,2.13
40.54,4.20,2.07,4.20,2.07,-2.07,-2.30,2.12,2.12,2.13
40.94,4.19,2.07,4.19,2.07,-2.07,-2.27,2.12,2.12,2.12
41.35,4.18,2.06,4.17,2.06,-2.06,-2.24,2.11,2.11,2.11
41.76,4.17,2.06,4.16,2.06,-2.06,-2.21,2.11,2.11,2.11
42.18,4.16,2.06,4.15,2.05,-2.05,-2.18,2.10,2.10,2.10
42.60,4.14,2.04,4.14,2.05,-2.05,-2.16,2.09,2.09,2.09
43.03,4.13,2.04,4.13,2.04,-2.04,-2.13,2.09,2.09,2.09
43.46,4.12,2.04,4.12,2.04,-2.04,-2.11,2.08,2.08,2.08
43.90,4.11,2.03,4.10,2.03,-2.03,-2.09,2.08,2.07,2.07
44.33,4.09,2.02,4.09,2.03,-2.03,-2.07,2.06,2.07,2.07
44.78,4.07,2.01,4.08,2.02,-2.02,-2.05,2.05,2.06,2.06
45.23,4.07,2.02,4.06,2.01,-2.01,-2.04,2.05,2.05,2.05
45.68,4.05,2.00,4.05,2.01,-2.01,-2.02,2.04,2.04,2.04
46.13,4.04,2.00,4.04,2.00,-2.00,-2.01,2.03,2.03,2.03
46.60,4.03,2.00,4.02,2.00,-2.00,-2.00,2.03,2.02,2.03
47.06,4.01,1.99,4.01,1.99,-1.99,-1.99,2.02,2.02,2.02
47.53,4.00,1.99,3.99,1.98,-1.98,-1.98,2.01,2.01,2.01
48.01,3.98,1.98,3.97,1.98,-1.98,-1.98,2.00,2.00,2.00
48.49,3.96,1.97,3.96,1.97,-1.97,-1.97,1.99,1.99,1.99
48.97,3.94,1.96,3.94,1.96,-1.96,-1.97,1.98,1.98,1.98
49.46,3.92,1.95,3.92,1.95,-1.95,-1.97,1.96,1.97,1.97
49.96,3.90,1.94,3.90,1.95,-1.95,-1.97,1.95,1.96,1.96
50.46,3.89,1.94,3.89,1.94,-1.94,-1.97,1.95,1.95,1.95
50.96,3.87,1.93,3.87,1.93,-1.93,-1.97,1.94,1.94,1.94
51.47,3.85,1.92,3.85,1.92,-1.92,-1.97,1.92,1.92,1.93
51.99,3.83,1.91,3.83,1.91,-1.91,-1.97,1.91,1.91,1.91
52.51,3.81,1.90,3.81,1.91,-1.91,-1.97,1.90,1.90,1.90
53.03,3.79,1.90,3.79,1.90,-1.90,-1.97,1.89,1.89,1.89
53.56,3.77,1.89,3.77,1.89,-1.89,-1.98,1.88,1.88,1.88
54.10,3.75,1.88,3.74,1.88,-1.88,-1.98,1.87,1.86,1.86
54.64,3.72,1.87,3.72,1.87,-1.87,-1.98,1.85,1.85,1.85
55.18,3.70,1.86,3.70,1.86,-1.86,-1.98,1.84,1.84,1.84
55.74,3.68,1.85,3.68,1.85,-1.85,-1.99,1.83,1.82,1.82
56.29,3.65,1.84,3.65,1.84,-1.84,-1.99,1.80,1.81,1.81
56.86,3.63,1.83,3.63,1.83,-1.83,-1.98,1.80,1.79,1.80
57.42,3.61,1.83,3.60,1.82,-1.82,-1.98,1.79,1.78,1.78
58.00,3.58,1.81,3.57,1.81,-1.81,-1.98,1.77,1.76,1.77
58.58,3.55,1.80,3.55,1.80,-1.80,-1.97,1.75,1.75,1.75
59.16,3.53,1.79,3.52,1.79,-1.79,-1.97,1.74,1.73,1.73
59.76,3.49,1.77,3.49,1.77,-1.77,-1.96,1.71,1.72,1.72
60.35,3.46,1.76,3.46,1.76,-1.76,-1.95,1.70,1.70,1.70
60.96,3.43,1.74,3.43,1.75,-1.75,-1.93,1.68,1.68,1.68
61.57,3.40,1.73,3.40,1.73,-1.73,-1.92,1.66,1.66,1.67
62.18,3.37,1.72,3.37,1.72,-1.72,-1.90,1.65,1.65,1.65
62.80,3.34,1.71,3.33,1.70,-1.70,-1.88,1.63,1.63,1.63
63.43,3.30,1.69,3.30,1.69,-1.69,-1.86,1.61,1.61,1.61
64.07,3.26,1.67,3.26,1.67,-1.67,-1.83,1.59,1.59,1.59
64.71,3.23,1.66,3.22,1.65,-1.65,-1.80,1.57,1.57,1.57
65.35,3.19,1.64,3.19,1.64,-1.64,-1.77,1.55,1.55,1.55
66.01,3.15,1.62,3.15,1.62,-1.62,-1.74,1.53,1.53,1.53
66.67,3.11,1.60,3.11,1.60,-1.60,-1.71,1.51,1.51,1.51
67.33,3.07,1.58,3.07,1.58,-1.58,-1.67,1.49,1.49,1.49
68.01,3.03,1.56,3.02,1.56,-1.56,-1.63,1.47,1.47,1.47
68.69,2.99,1.54,2.98,1.54,-1.54,-1.59,1.45,1.44,1.44
69.37,2.94,1.52,2.94,1.52,-1.52,-1.55,1.42,1.42,1.42
70.07,2.89,1.49,2.89,1.50,-1.50,-1.50,1.39,1.40,1.40
70.77,2.85,1.47,2.85,1.47,-1.47,-1.46,1.37,1.37,1.37
71.48,2.80,1.45,2.80,1.45,-1.45,-1.41,1.35,1.35,1.35
72.19,2.75,1.42,2.75,1.42,-1.42,-1.36,1.32,1.33,1.33
72.91,2.70,1.40,2.70,1.40,-1.40,-1.31,1.30,1.30,1.30
73.64,2.65,1.37,2.65,1.37,-1.37,-1.26,1.28,1.27,1.28
74.38,2.59,1.34,2.59,1.34,-1.34,-1.21,1.24,1.25,1.25
75.12,2.55,1.32,2.54,1.32,-1.32,-1.16,1.23,1.22,1.22
75.87,2.49,1.29,2.48,1.29,-1.29,-1.11,1.20,1.20,1.20
76.63,2.43,1.26,2.42,1.26,-1.26,-1.06,1.17,1.17,1.17
77.40,2.37,1.22,2.37,1.22,-1.22,-1.01,1.14,1.14,1.14
78.17,2.30,1.18,2.31,1.19,-1.19,-0.96,1.11,1.12,1.12
78.95,2.25,1.16,2.24,1.16,-1.16,-0.90,1.09,1.09,1.09
79.74,2.18,1.12,2.18,1.12,-1.12,-0.85,1.05,1.06,1.06
80.54,2.11,1.08,2.11,1.09,-1.09,-0.80,1.02,1.03,1.03
81.35,2.05,1.05,2.05,1.05,-1.05,-0.75,1.00,1.00,1.00
82.16,1.99,1.02,1.98,1.01,-1.01,-0.69,0.98,0.97,0.97
82.98,1.92,0.98,1.91,0.97,-0.97,-0.64,0.95,0.94,0.94
83.81,1.84,0.93,1.84,0.93,-0.93,-0.59,0.91,0.91,0.91
84.65,1.76,0.88,1.76,0.88,-0.88,-0.54,0.88,0.88,0.88
85.50,1.69,0.84,1.69,0.84,-0.84,-0.49,0.85,0.85,0.85
86.35,1.61,0.79,1.61,0.79,-0.79,-0.44,0.82,0.82,0.82
87.22,1.53,0.74,1.53,0.74,-0.74,-0.39,0.78,0.79,0.79
88.09,1.46,0.70,1.45,0.69,-0.69,-0.34,0.76,0.76,0.76
88.97,1.37,0.64,1.37,0.64,-0.64,-0.29,0.72,0.72,0.72
89.86,1.29,0.59,1.28,0.59,-0.59,-0.24,0.70,0.69,0.69
90.76,1.20,0.54,1.20,0.54,-0.54,-0.19,0.66,0.66,0.66
91.66,1.11,0.48,1.11,0.48,-0.48,-0.14,0.62,0.63,0.63
92.58,1.03,0.43,1.02,0.43,-0.43,-0.09,0.60,0.59,0.59
93.51,0.94,0.37,0.93,0.37,-0.37,-0.04,0.57,0.56,0.56
94.44,0.85,0.32,0.84,0.32,-0.32,0.01,0.53,0.53,0.53
95.39,0.76,0.26,0.75,0.26,-0.26,0.06,0.50,0.50,0.50
96.34,0.67,0.20,0.67,0.20,-0.20,0.11,0.46,0.46,0.46
97.30,0.57,0.14,0.58,0.15,-0.15,0.16,0.42,0.43,0.43
98.28,0.49,0.09,0.49,0.09,-0.09,0.20,0.40,0.39,0.40
99.26,0.40,0.03,0.40,0.04,-0.04,0.25,0.36,0.36,0.36
100.25,0.31,-0.02,0.31,-0.02,0.02,0.30,0.32,0.33,0.33
101.25,0.22,-0.08,0.22,-0.07,0.07,0.35,0.29,0.30,0.30
102.27,0.14,-0.13,0.14,-0.12,0.12,0.39,0.26,0.26,0.26
103.29,0.06,-0.17,0.05,-0.17,0.17,0.44,0.23,0.23,0.23
104.32,-0.03,-0.23,-0.03,-0.22,0.22,0.48,0.19,0.20,0.20
105.37,-0.10,-0.27,-0.11,-0.27,0.27,0.53,0.17,0.16,0.17
106.42,-0.19,-0.33,-0.19,-0.32,0.32,0.57,0.13,0.13,0.13
107.48,-0.27,-0.37,-0.27,-0.37,0.37,0.61,0.09,0.10,0.10
108.56,-0.34,-0.41,-0.35,-0.41,0.41,0.65,0.07,0.07,0.07
109.64,-0.42,-0.46,-0.42,-0.46,0.46,0.70,0.04,0.03,0.03
110.74,-0.50,-0.51,-0.50,-0.51,0.51,0.74,0.00,0.00,0.00
111.85,-0.58,-0.55,-0.58,-0.55,0.55,0.78,-0.03,-0.03,-0.03
112.97,-0.65,-0.59,-0.66,-0.60,0.60,0.81,-0.06,-0.06,-0.06
114.10,-0.73,-0.64,-0.73,-0.64,0.64,0.85,-0.09,-0.09,-0.09
115.24,-0.80,-0.68,-0.81,-0.69,0.69,0.88,-0.12,-0.12,-0.12
116.39,-0.88,-0.73,-0.89,-0.73,0.73,0.92,-0.15,-0.16,-0.16
117.55,-0.96,-0.78,-0.97,-0.78,0.78,0.95,-0.18,-0.19,-0.19
118.73,-1.04,-0.83,-1.04,-0.83,0.83,0.98,-0.22,-0.22,-0.22
119.92,-1.12,-0.88,-1.12,-0.87,0.87,1.01,-0.25,-0.25,-0.25
121.12,-1.19,-0.92,-1.20,-0.92,0.92,1.04,-0.28,-0.28,-0.28
122.33,-1.27,-0.97,-1.27,-0.96,0.96,1.06,-0.31,-0.31,-0.31
123.55,-1.34,-1.01,-1.34,-1.01,1.01,1.08,-0.33,-0.34,-0.34
124.79,-1.42,-1.06,-1.42,-1.05,1.05,1.10,-0.37,-0.37,-0.37
126.03,-1.49,-1.10,-1.49,-1.10,1.10,1.12,-0.40,-0.39,-0.39
127.29,-1.56,-1.14,-1.56,-1.14,1.14,1.14,-0.43,-0.42,-0.42
128.57,-1.63,-1.18,-1.63,-1.18,1.18,1.16,-0.45,-0.45,-0.45
129.85,-1.69,-1.22,-1.70,-1.22,1.22,1.17,-0.48,-0.48,-0.48
131.15,-1.76,-1.26,-1.76,-1.26,1.26,1.18,-0.51,-0.51,-0.51
132.46,-1.82,-1.29,-1.82,-1.29,1.29,1.20,-0.53,-0.53,-0.53
133.79,-1.88,-1.32,-1.88,-1.33,1.33,1.21,-0.56,-0.56,-0.56
135.12,-1.94,-1.36,-1.94,-1.36,1.36,1.21,-0.59,-0.59,-0.58
136.48,-2.00,-1.39,-2.00,-1.39,1.39,1.22,-0.62,-0.61,-0.61
137.84,-2.06,-1.43,-2.05,-1.41,1.41,1.23,-0.65,-0.64,-0.63
139.22,-2.10,-1.44,-2.10,-1.44,1.44,1.23,-0.66,-0.66,-0.66
140.61,-2.15,-1.47,-2.15,-1.46,1.46,1.24,-0.69,-0.69,-0.68
142.02,-2.19,-1.49,-2.20,-1.49,1.49,1.24,-0.71,-0.71,-0.71
143.44,-2.24,-1.51,-2.24,-1.51,1.51,1.24,-0.74,-0.73,-0.73
144.87,-2.28,-1.53,-2.28,-1.53,1.53,1.25,-0.76,-0.76,-0.75
146.32,-2.32,-1.55,-2.32,-1.54,1.54,1.25,-0.78,-0.78,-0.78
147.78,-2.36,-1.56,-2.36,-1.56,1.56,1.25,-0.80,-0.80,-0.80
149.26,-2.39,-1.57,-2.40,-1.58,1.58,1.25,-0.82,-0.82,-0.82
150.75,-2.43,-1.59,-2.43,-1.59,1.59,1.26,-0.84,-0.84,-0.84
152.26,-2.46,-1.60,-2.47,-1.61,1.61,1.26,-0.86,-0.86,-0.86
153.78,-2.50,-1.62,-2.50,-1.62,1.62,1.26,-0.88,-0.88,-0.88
155.32,-2.53,-1.63,-2.54,-1.64,1.64,1.27,-0.90,-0.90,-0.90
156.88,-2.57,-1.65,-2.57,-1.65,1.65,1.27,-0.92,-0.92,-0.92
158.44,-2.61,-1.67,-2.61,-1.67,1.67,1.27,-0.94,-0.94,-0.94
160.03,-2.64,-1.68,-2.65,-1.69,1.69,1.28,-0.96,-0.96,-0.96
161.63,-2.68,-1.71,-2.68,-1.70,1.70,1.29,-0.98,-0.98,-0.98
163.24,-2.71,-1.72,-2.72,-1.72,1.72,1.29,-0.99,-1.00,-1.00
164.88,-2.75,-1.74,-2.75,-1.74,1.74,1.30,-1.01,-1.01,-1.01
166.53,-2.78,-1.75,-2.79,-1.76,1.76,1.31,-1.02,-1.03,-1.03
168.19,-2.82,-1.78,-2.83,-1.78,1.78,1.32,-1.04,-1.05,-1.05
169.87,-2.86,-1.80,-2.86,-1.80,1.80,1.33,-1.06,-1.06,-1.06
171.57,-2.90,-1.82,-2.90,-1.82,1.82,1.34,-1.08,-1.08,-1.08
173.29,-2.94,-1.85,-2.94,-1.84,1.84,1.36,-1.10,-1.09,-1.09
175.02,-2.97,-1.86,-2.98,-1.87,1.87,1.37,-1.11,-1.11,-1.11
176.77,-3.01,-1.89,-3.01,-1.89,1.89,1.39,-1.12,-1.12,-1.12
178.54,-3.04,-1.90,-3.05,-1.91,1.91,1.40,-1.13,-1.14,-1.14
180.32,-3.08,-1.93,-3.09,-1.93,1.93,1.42,-1.15,-1.15,-1.15
182.13,-3.12,-1.96,-3.12,-1.95,1.95,1.44,-1.17,-1.17,-1.17
183.95,-3.16,-1.98,-3.15,-1.98,1.98,1.46,-1.19,-1.18,-1.18
185.79,-3.18,-1.99,-3.19,-1.99,1.99,1.48,-1.19,-1.19,-1.19
187.65,-3.21,-2.01,-3.22,-2.01,2.01,1.50,-1.20,-1.21,-1.21
189.52,-3.25,-2.04,-3.25,-2.03,2.03,1.52,-1.22,-1.22,-1.22
191.42,-3.27,-2.04,-3.28,-2.05,2.05,1.55,-1.23,-1.23,-1.23
193.33,-3.30,-2.06,-3.30,-2.06,2.06,1.57,-1.24,-1.24,-1.24
195.27,-3.32,-2.07,-3.33,-2.07,2.07,1.60,-1.25,-1.25,-1.25
197.22,-3.35,-2.09,-3.35,-2.08,2.08,1.62,-1.27,-1.26,-1.26
199.19,-3.36,-2.09,-3.37,-2.09,2.09,1.65,-1.27,-1.28,-1.27
201.18,-3.38,-2.10,-3.38,-2.09,2.09,1.68,-1.29,-1.29,-1.28
203.19,-3.40,-2.11,-3.39,-2.10,2.10,1.71,-1.31,-1.30,-1.30
205.23,-3.40,-2.10,-3.40,-2.09,2.09,1.73,-1.31,-1.31,-1.31
207.28,-3.40,-2.09,-3.41,-2.09,2.09,1.76,-1.32,-1.32,-1.31
209.35,-3.41,-2.09,-3.41,-2.08,2.08,1.79,-1.33,-1.33,-1.32
211.44,-3.40,-2.07,-3.40,-2.07,2.07,1.82,-1.34,-1.34,-1.33
213.56,-3.40,-2.06,-3.40,-2.05,2.05,1.85,-1.35,-1.35,-1.34
215.69,-3.39,-2.04,-3.39,-2.03,2.03,1.88,-1.36,-1.35,-1.35
217.85,-3.38,-2.02,-3.37,-2.01,2.01,1.90,-1.37,-1.36,-1.36
220.03,-3.36,-2.00,-3.36,-1.99,1.99,1.93,-1.38,-1.37,-1.37
222.23,-3.33,-1.96,-3.34,-1.96,1.96,1.96,-1.37,-1.38,-1.38
224.45,-3.31,-1.93,-3.32,-1.93,1.93,1.98,-1.38,-1.39,-1.38
226.70,-3.29,-1.90,-3.29,-1.90,1.90,2.00,-1.39,-1.39,-1.39
228.96,-3.26,-1.86,-3.26,-1.87,1.87,2.03,-1.40,-1.40,-1.40
231.25,-3.24,-1.84,-3.24,-1.83,1.83,2.05,-1.41,-1.41,-1.41
233.57,-3.21,-1.80,-3.21,-1.80,1.80,2.06,-1.42,-1.41,-1.41
235.90,-3.18,-1.76,-3.18,-1.76,1.76,2.08,-1.42,-1.42,-1.42
238.26,-3.15,-1.73,-3.15,-1.73,1.73,2.09,-1.42,-1.43,-1.43
240.64,-3.12,-1.69,-3.13,-1.70,1.70,2.11,-1.43,-1.43,-1.43
243.05,-3.09,-1.66,-3.10,-1.66,1.66,2.12,-1.43,-1.44,-1.44
245.48,-3.08,-1.64,-3.08,-1.63,1.63,2.12,-1.45,-1.44,-1.44
247.93,-3.05,-1.60,-3.06,-1.61,1.61,2.13,-1.45,-1.45,-1.45
250.41,-3.03,-1.58,-3.04,-1.58,1.58,2.13,-1.45,-1.46,-1.46
252.92,-3.01,-1.55,-3.02,-1.56,1.56,2.13,-1.45,-1.46,-1.46
255.45,-3.01,-1.55,-3.01,-1.54,1.54,2.12,-1.47,-1.47,-1.47
258.00,-2.99,-1.52,-3.00,-1.53,1.53,2.12,-1.46,-1.47,-1.47
260.58,-2.99,-1.52,-3.00,-1.52,1.52,2.11,-1.47,-1.47,-1.48
263.19,-2.99,-1.51,-3.00,-1.52,1.52,2.10,-1.48,-1.48,-1.48
265.82,-2.99,-1.51,-3.00,-1.51,1.51,2.08,-1.48,-1.48,-1.49
268.48,-3.00,-1.51,-3.01,-1.52,1.52,2.07,-1.49,-1.49,-1.49
271.16,-3.00,-1.51,-3.02,-1.52,1.52,2.05,-1.48,-1.49,-1.50
273.87,-3.02,-1.52,-3.03,-1.53,1.53,2.03,-1.49,-1.50,-1.50
276.61,-3.04,-1.54,-3.05,-1.54,1.54,2.01,-1.50,-1.50,-1.50
279.38,-3.05,-1.55,-3.06,-1.55,1.55,1.98,-1.50,-1.51,-1.51
282.17,-3.08,-1.57,-3.08,-1.57,1.57,1.96,-1.52,-1.51,-1.51
284.99,-3.10,-1.59,-3.10,-1.58,1.58,1.93,-1.52,-1.52,-1.52
287.84,-3.12,-1.60,-3.12,-1.60,1.60,1.91,-1.53,-1.52,-1.52
290.72,-3.14,-1.62,-3.14,-1.61,1.61,1.88,-1.53,-1.53,-1.52
293.63,-3.16,-1.64,-3.16,-1.62,1.62,1.85,-1.54,-1.53,-1.53
296.57,-3.18,-1.65,-3.17,-1.64,1.64,1.83,-1.55,-1.54,-1.53
299.53,-3.19,-1.66,-3.18,-1.64,1.64,1.80,-1.55,-1.54,-1.53
302.53,-3.21,-1.68,-3.20,-1.65,1.65,1.77,-1.56,-1.54,-1.54
305.55,-3.21,-1.67,-3.20,-1.66,1.66,1.74,-1.56,-1.55,-1.54
308.61,-3.21,-1.67,-3.21,-1.66,1.66,1.72,-1.56,-1.55,-1.54
311.69,-3.21,-1.67,-3.21,-1.65,1.65,1.69,-1.56,-1.55,-1.55
314.81,-3.20,-1.65,-3.21,-1.65,1.65,1.66,-1.55,-1.56,-1.55
317.96,-3.20,-1.65,-3.20,-1.64,1.64,1.64,-1.56,-1.56,-1.55
321.14,-3.19,-1.64,-3.20,-1.64,1.64,1.61,-1.56,-1.56,-1.55
324.35,-3.19,-1.64,-3.19,-1.63,1.63,1.59,-1.57,-1.56,-1.56
327.59,-3.18,-1.62,-3.18,-1.62,1.62,1.56,-1.57,-1.56,-1.56
330.87,-3.17,-1.61,-3.17,-1.61,1.61,1.54,-1.56,-1.56,-1.56
334.18,-3.17,-1.61,-3.16,-1.60,1.60,1.52,-1.57,-1.56,-1.57
337.52,-3.16,-1.60,-3.16,-1.60,1.60,1.50,-1.56,-1.56,-1.57
340.90,-3.16,-1.59,-3.16,-1.60,1.60,1.48,-1.57,-1.57,-1.57
344.30,-3.15,-1.58,-3.17,-1.60,1.60,1.46,-1.56,-1.57,-1.57
347.75,-3.15,-1.58,-3.17,-1.60,1.60,1.44,-1.55,-1.57,-1.57
351.23,-3.14,-1.57,-3.19,-1.61,1.61,1.42,-1.54,-1.58,-1.58
354.74,-3.15,-1.57,-3.20,-1.62,1.62,1.41,-1.54,-1.58,-1.58
358.28,-3.19,-1.61,-3.21,-1.63,1.63,1.40,-1.57,-1.59,-1.58
361.87,-3.22,-1.64,-3.23,-1.64,1.64,1.38,-1.58,-1.59,-1.58
365.49,-3.25,-1.67,-3.25,-1.65,1.65,1.37,-1.60,-1.59,-1.58
369.14,-3.28,-1.70,-3.26,-1.66,1.66,1.36,-1.62,-1.60,-1.59
372.83,-3.30,-1.71,-3.27,-1.67,1.67,1.35,-1.63,-1.60,-1.59
376.56,-3.30,-1.71,-3.28,-1.68,1.68,1.34,-1.62,-1.60,-1.59
380.33,-3.32,-1.73,-3.29,-1.69,1.69,1.33,-1.64,-1.60,-1.59
384.13,-3.31,-1.72,-3.29,-1.69,1.69,1.33,-1.63,-1.61,-1.59
387.97,-3.30,-1.71,-3.29,-1.68,1.68,1.32,-1.62,-1.61,-1.60
391.85,-3.29,-1.70,-3.28,-1.68,1.68,1.32,-1.62,-1.61,-1.60
395.77,-3.27,-1.67,-3.27,-1.66,1.66,1.31,-1.61,-1.61,-1.60
399.73,-3.24,-1.64,-3.25,-1.65,1.65,1.31,-1.60,-1.61,-1.60
403.72,-3.22,-1.62,-3.23,-1.63,1.63,1.31,-1.60,-1.61,-1.60
407.76,-3.20,-1.60,-3.21,-1.60,1.60,1.30,-1.60,-1.61,-1.60
411.84,-3.18,-1.58,-3.19,-1.58,1.58,1.30,-1.60,-1.61,-1.60
415.96,-3.14,-1.54,-3.16,-1.55,1.55,1.30,-1.59,-1.61,-1.61
420.12,-3.12,-1.51,-3.13,-1.52,1.52,1.30,-1.60,-1.61,-1.61
424.32,-3.09,-1.48,-3.10,-1.49,1.49,1.30,-1.60,-1.61,-1.61
428.56,-3.07,-1.46,-3.07,-1.46,1.46,1.30,-1.61,-1.61,-1.61
432.85,-3.04,-1.43,-3.04,-1.43,1.43,1.30,-1.61,-1.61,-1.61
437.18,-3.01,-1.40,-3.01,-1.40,1.40,1.30,-1.62,-1.62,-1.61
441.55,-2.99,-1.38,-2.98,-1.36,1.36,1.30,-1.63,-1.62,-1.61
445.96,-2.97,-1.36,-2.94,-1.33,1.33,1.30,-1.64,-1.61,-1.61
450.42,-2.92,-1.32,-2.91,-1.30,1.30,1.30,-1.62,-1.61,-1.61
454.93,-2.87,-1.27,-2.87,-1.27,1.27,1.30,-1.61,-1.60,-1.60
459.48,-2.82,-1.23,-2.83,-1.24,1.24,1.30,-1.59,-1.60,-1.60
464.07,-2.79,-1.20,-2.80,-1.21,1.21,1.30,-1.59,-1.59,-1.59
468.71,-2.75,-1.17,-2.76,-1.18,1.18,1.30,-1.58,-1.58,-1.58
473.40,-2.71,-1.14,-2.73,-1.15,1.15,1.30,-1.56,-1.57,-1.57
478.13,-2.67,-1.11,-2.69,-1.13,1.13,1.29,-1.55,-1.56,-1.56
482.91,-2.65,-1.10,-2.65,-1.10,1.10,1.29,-1.55,-1.55,-1.55
487.74,-2.61,-1.07,-2.62,-1.08,1.08,1.28,-1.53,-1.54,-1.54
492.62,-2.58,-1.06,-2.59,-1.06,1.06,1.28,-1.52,-1.53,-1.53
497.55,-2.55,-1.04,-2.56,-1.04,1.04,1.27,-1.51,-1.51,-1.51
502.52,-2.53,-1.04,-2.53,-1.03,1.03,1.26,-1.51,-1.50,-1.50
507.55,-2.50,-1.02,-2.50,-1.01,1.01,1.25,-1.49,-1.49,-1.48
512.62,-2.47,-1.01,-2.47,-1.00,1.00,1.24,-1.47,-1.47,-1.46
517.75,-2.44,-0.99,-2.44,-0.99,0.99,1.23,-1.45,-1.45,-1.45
522.93,-2.41,-0.98,-2.41,-0.98,0.98,1.22,-1.44,-1.43,-1.43
528.16,-2.38,-0.97,-2.38,-0.97,0.97,1.21,-1.42,-1.41,-1.41
533.44,-2.35,-0.96,-2.35,-0.96,0.96,1.19,-1.40,-1.39,-1.39
538.77,-2.32,-0.95,-2.32,-0.95,0.95,1.18,-1.38,-1.37,-1.37
544.16,-2.28,-0.93,-2.29,-0.94,0.94,1.16,-1.35,-1.35,-1.35
549.60,-2.25,-0.93,-2.25,-0.93,0.93,1.14,-1.33,-1.33,-1.33
555.10,-2.22,-0.92,-2.22,-0.92,0.92,1.13,-1.31,-1.30,-1.30
560.65,-2.18,-0.91,-2.19,-0.91,0.91,1.11,-1.27,-1.28,-1.28
566.25,-2.15,-0.90,-2.15,-0.90,0.90,1.09,-1.25,-1.25,-1.25
571.92,-2.10,-0.88,-2.11,-0.89,0.89,1.07,-1.21,-1.22,-1.22
577.64,-2.08,-0.89,-2.07,-0.88,0.88,1.06,-1.20,-1.19,-1.19
583.41,-2.04,-0.88,-2.04,-0.87,0.87,1.04,-1.17,-1.17,-1.16
589.25,-1.99,-0.86,-2.00,-0.86,0.86,1.02,-1.13,-1.14,-1.13
595.14,-1.96,-0.86,-1.96,-0.85,0.85,1.00,-1.11,-1.11,-1.10
601.09,-1.92,-0.85,-1.92,-0.84,0.84,0.98,-1.08,-1.07,-1.07
607.10,-1.87,-0.83,-1.88,-0.83,0.83,0.96,-1.04,-1.04,-1.04
613.17,-1.84,-0.83,-1.84,-0.82,0.82,0.94,-1.02,-1.01,-1.01
619.30,-1.79,-0.81,-1.80,-0.81,0.81,0.92,-0.98,-0.98,-0.98
625.50,-1.74,-0.80,-1.76,-0.81,0.81,0.91,-0.94,-0.95,-0.95
631.75,-1.71,-0.80,-1.71,-0.80,0.80,0.89,-0.92,-0.92,-0.92
638.07,-1.67,-0.79,-1.67,-0.79,0.79,0.87,-0.89,-0.89,-0.88
644.45,-1.63,-0.78,-1.63,-0.78,0.78,0.85,-0.86,-0.85,-0.85
650.89,-1.58,-0.76,-1.59,-0.77,0.77,0.84,-0.82,-0.82,-0.82
657.40,-1.54,-0.76,-1.54,-0.76,0.76,0.82,-0.79,-0.79,-0.79
663.98,-1.50,-0.75,-1.50,-0.75,0.75,0.80,-0.76,-0.75,-0.75
670.62,-1.46,-0.75,-1.45,-0.74,0.74,0.79,-0.72,-0.72,-0.72
