frequency,raw,error,smoothed,error_smoothed,equalization,parametric_eq,equalized_raw,equalized_smoothed,target
20,-7.58,-12.83,-7.63,-12.87,6.00,2.89,-1.58,-1.63,5.25
21,-7.03,-12.27,-7.03,-12.27,6.00,3.32,-1.03,-1.03,5.24
22,-6.54,-11.78,-6.46,-11.70,6.00,3.78,-0.54,-0.46,5.24
23,-6.02,-11.26,-5.90,-11.14,6.00,4.29,-0.02,0.10,5.24
24,-5.27,-10.51,-5.37,-10.61,6.00,4.82,0.73,0.63,5.24
25,-4.76,-9.99,-4.86,-10.09,6.00,5.38,1.24,1.14,5.23
26,-4.37,-9.60,-4.37,-9.60,6.00,5.94,1.63,1.63,5.23
27,-3.84,-9.07,-3.90,-9.13,6.00,6.46,2.16,2.10,5.23
28,-3.44,-8.66,-3.46,-8.68,6.00,6.93,2.56,2.54,5.22
29,-3.06,-8.28,-3.04,-8.25,6.00,7.29,2.94,2.96,5.22
30,-2.64,-7.85,-2.63,-7.84,6.00,7.51,3.36,3.37,5.21
31,-2.23,-7.44,-2.25,-7.45,6.00,7.58,3.77,3.75,5.21
32,-1.85,-7.05,-1.88,-7.08,6.00,7.47,4.15,4.12,5.20
33,-1.49,-6.69,-1.52,-6.72,6.00,7.23,4.51,4.48,5.20
34,-1.16,-6.35,-1.18,-6.37,5.93,6.87,4.77,4.75,5.19
35,-0.85,-6.03,-0.85,-6.03,5.78,6.44,4.93,4.94,5.18
36,-0.54,-5.71,-0.52,-5.69,5.56,5.96,5.02,5.04,5.17
37,-0.24,-5.41,-0.20,-5.37,5.30,5.47,5.06,5.10,5.16
38,0.07,-5.09,0.12,-5.04,5.02,4.98,5.09,5.14,5.16
39,0.39,-4.76,0.43,-4.72,4.72,4.49,5.11,5.15,5.15
40,0.72,-4.42,0.74,-4.39,4.39,4.02,5.11,5.13,5.13
41,1.03,-4.09,1.05,-4.07,4.07,3.57,5.10,5.12,5.12
42,1.34,-3.77,1.36,-3.75,3.75,3.14,5.09,5.11,5.11
43,1.67,-3.43,1.67,-3.43,3.43,2.73,5.10,5.10,5.10
44,1.98,-3.11,1.98,-3.11,3.11,2.34,5.09,5.08,5.08
45,2.29,-2.78,2.28,-2.79,2.79,1.97,5.08,5.07,5.07
46,2.59,-2.47,2.58,-2.47,2.47,1.61,5.06,5.05,5.05
47,2.88,-2.16,2.88,-2.16,2.16,1.27,5.04,5.04,5.04
48,3.17,-1.85,3.17,-1.85,1.85,0.94,5.02,5.02,5.02
49,3.46,-1.54,3.46,-1.55,1.55,0.63,5.01,5.00,5.00
50,3.74,-1.25,3.73,-1.25,1.25,0.33,4.99,4.98,4.98
51,4.02,-0.95,4.01,-0.96,0.96,0.04,4.98,4.96,4.96
52,4.28,-0.66,4.27,-0.67,0.67,-0.23,4.95,4.94,4.94
53,4.54,-0.38,4.53,-0.39,0.39,-0.49,4.93,4.92,4.92
54,4.78,-0.12,4.78,-0.12,0.12,-0.74,4.90,4.90,4.90
55,5.02,0.14,5.02,0.14,-0.14,-0.97,4.88,4.88,4.88
56,5.25,0.40,5.25,0.40,-0.40,-1.19,4.85,4.85,4.85
57,5.48,0.65,5.48,0.65,-0.65,-1.40,4.83,4.83,4.83
58,5.69,0.89,5.69,0.89,-0.89,-1.59,4.80,4.80,4.80
59,5.89,1.12,5.90,1.13,-1.13,-1.77,4.76,4.77,4.77
60,6.09,1.34,6.10,1.35,-1.35,-1.93,4.73,4.74,4.75
61,6.28,1.56,6.29,1.57,-1.57,-2.08,4.71,4.72,4.72
62,6.47,1.78,6.47,1.78,-1.78,-2.21,4.68,4.69,4.69
63,6.65,1.99,6.64,1.99,-1.99,-2.33,4.66,4.66,4.66
64,6.83,2.20,6.80,2.18,-2.18,-2.43,4.65,4.62,4.62
65,6.99,2.40,6.96,2.36,-2.36,-2.53,4.63,4.59,4.59
66,7.12,2.56,7.10,2.54,-2.54,-2.61,4.58,4.56,4.56
67,7.25,2.72,7.23,2.71,-2.71,-2.69,4.54,4.52,4.53
68,7.36,2.87,7.36,2.87,-2.87,-2.75,4.49,4.49,4.49
69,7.46,3.00,7.47,3.02,-3.02,-2.81,4.44,4.46,4.46
70,7.57,3.15,7.58,3.16,-3.16,-2.87,4.41,4.42,4.42
71,7.66,3.28,7.69,3.30,-3.30,-2.92,4.36,4.38,4.38
72,7.77,3.42,7.78,3.44,-3.44,-2.97,4.33,4.35,4.35
73,7.86,3.55,7.87,3.57,-3.57,-3.02,4.29,4.31,4.31
74,7.97,3.70,7.96,3.69,-3.69,-3.06,4.28,4.27,4.27
75,8.05,3.82,8.04,3.81,-3.81,-3.11,4.24,4.23,4.23
76,8.13,3.94,8.12,3.93,-3.93,-3.16,4.20,4.19,4.19
77,8.19,4.04,8.19,4.04,-4.04,-3.21,4.15,4.15,4.15
78,8.25,4.14,8.26,4.15,-4.15,-3.26,4.10,4.11,4.11
79,8.31,4.24,8.32,4.25,-4.25,-3.31,4.06,4.07,4.07
80,8.38,4.35,8.38,4.35,-4.35,-3.36,4.03,4.03,4.03
81,8.44,4.45,8.43,4.44,-4.44,-3.42,4.00,3.99,3.99
82,8.49,4.54,8.48,4.53,-4.53,-3.48,3.96,3.95,3.95
83,8.53,4.62,8.53,4.62,-4.62,-3.54,3.91,3.91,3.91
84,8.57,4.70,8.57,4.70,-4.70,-3.61,3.87,3.87,3.87
85,8.61,4.79,8.61,4.78,-4.78,-3.68,3.83,3.82,3.82
86,8.64,4.86,8.64,4.86,-4.86,-3.75,3.78,3.78,3.78
87,8.67,4.93,8.67,4.93,-4.93,-3.82,3.74,3.74,3.74
88,8.69,4.99,8.70,5.00,-5.00,-3.90,3.69,3.70,3.70
89,8.72,5.06,8.72,5.06,-5.06,-3.98,3.66,3.66,3.66
90,8.74,5.12,8.74,5.13,-5.13,-4.07,3.61,3.62,3.62
91,8.76,5.18,8.76,5.19,-5.19,-4.16,3.57,3.58,3.57
92,8.78,5.25,8.78,5.24,-5.24,-4.25,3.54,3.54,3.53
93,8.78,5.29,8.79,5.29,-5.29,-4.34,3.48,3.49,3.49
94,8.80,5.35,8.80,5.34,-5.34,-4.44,3.45,3.45,3.45
95,8.80,5.39,8.80,5.39,-5.39,-4.53,3.41,3.41,3.41
96,8.81,5.44,8.81,5.43,-5.43,-4.63,3.38,3.37,3.37
97,8.83,5.50,8.81,5.47,-5.47,-4.74,3.35,3.33,3.33
98,8.82,5.53,8.80,5.51,-5.51,-4.84,3.31,3.29,3.29
99,8.81,5.56,8.80,5.55,-5.55,-4.94,3.26,3.25,3.25
100,8.80,5.58,8.79,5.58,-5.58,-5.05,3.22,3.21,3.21
101,8.78,5.60,8.78,5.61,-5.61,-5.16,3.17,3.16,3.18
102,8.76,5.62,8.76,5.64,-5.64,-5.26,3.12,3.12,3.14
104,8.72,5.65,8.75,5.67,-5.67,-5.48,3.05,3.08,3.06
105,8.71,5.68,8.74,5.70,-5.70,-5.58,3.01,3.04,3.03
106,8.70,5.71,8.72,5.72,-5.72,-5.68,2.98,3.00,2.99
107,8.70,5.74,8.71,5.75,-5.75,-5.79,2.95,2.96,2.96
108,8.70,5.78,8.69,5.77,-5.77,-5.89,2.93,2.93,2.92
109,8.69,5.80,8.68,5.79,-5.79,-5.99,2.90,2.89,2.89
110,8.68,5.83,8.66,5.81,-5.81,-6.08,2.87,2.85,2.85
111,8.66,5.84,8.64,5.83,-5.83,-6.17,2.83,2.82,2.82
112,8.64,5.85,8.62,5.84,-5.84,-6.26,2.80,2.78,2.79
113,8.62,5.86,8.60,5.86,-5.86,-6.34,2.76,2.75,2.76
114,8.59,5.87,8.58,5.87,-5.87,-6.42,2.72,2.71,2.72
115,8.57,5.88,8.56,5.88,-5.88,-6.49,2.69,2.68,2.69
117,8.51,5.88,8.54,5.89,-5.89,-6.62,2.62,2.64,2.63
118,8.48,5.88,8.51,5.90,-5.90,-6.68,2.58,2.61,2.60
119,8.46,5.89,8.48,5.91,-5.91,-6.73,2.55,2.58,2.57
120,8.45,5.90,8.46,5.92,-5.92,-6.77,2.53,2.54,2.55
121,8.43,5.91,8.43,5.92,-5.92,-6.81,2.51,2.51,2.52
123,8.41,5.95,8.40,5.92,-5.92,-6.86,2.48,2.48,2.46
124,8.40,5.96,8.37,5.93,-5.93,-6.88,2.47,2.44,2.44
125,8.37,5.96,8.34,5.93,-5.93,-6.89,2.44,2.41,2.41
126,8.34,5.95,8.30,5.92,-5.92,-6.89,2.41,2.38,2.39
128,8.27,5.93,8.27,5.92,-5.92,-6.88,2.35,2.35,2.34
129,8.22,5.90,8.23,5.92,-5.92,-6.86,2.30,2.32,2.31
130,8.17,5.88,8.20,5.91,-5.91,-6.84,2.26,2.29,2.29
131,8.15,5.88,8.16,5.90,-5.90,-6.82,2.25,2.26,2.27
133,8.09,5.86,8.12,5.89,-5.89,-6.75,2.20,2.23,2.23
134,8.08,5.87,8.09,5.88,-5.88,-6.71,2.20,2.20,2.20
135,8.07,5.88,8.05,5.87,-5.87,-6.67,2.20,2.18,2.18
137,8.03,5.88,8.01,5.86,-5.86,-6.57,2.17,2.15,2.14
138,8.01,5.88,7.97,5.85,-5.85,-6.52,2.16,2.12,2.13
140,7.94,5.85,7.94,5.84,-5.84,-6.41,2.10,2.10,2.09
141,7.90,5.83,7.90,5.83,-5.83,-6.35,2.07,2.07,2.07
142,7.86,5.81,7.86,5.82,-5.82,-6.29,2.04,2.05,2.05
144,7.80,5.78,7.83,5.80,-5.80,-6.17,2.00,2.02,2.02
145,7.77,5.77,7.79,5.79,-5.79,-6.10,1.98,2.00,2.00
147,7.73,5.76,7.75,5.78,-5.78,-5.98,1.95,1.98,1.97
148,7.72,5.76,7.71,5.76,-5.76,-5.91,1.96,1.95,1.96
150,7.69,5.76,7.67,5.74,-5.74,-5.79,1.95,1.93,1.93
151,7.67,5.76,7.64,5.73,-5.73,-5.73,1.94,1.91,1.91
153,7.62,5.73,7.60,5.71,-5.71,-5.61,1.91,1.89,1.88
154,7.58,5.71,7.56,5.69,-5.69,-5.55,1.89,1.87,1.87
156,7.50,5.65,7.52,5.67,-5.67,-5.43,1.83,1.85,1.85
157,7.47,5.64,7.48,5.65,-5.65,-5.37,1.82,1.83,1.83
159,7.41,5.60,7.44,5.63,-5.63,-5.26,1.78,1.81,1.81
160,7.39,5.59,7.40,5.61,-5.61,-5.21,1.78,1.79,1.80
162,7.35,5.57,7.37,5.59,-5.59,-5.11,1.76,1.78,1.78
164,7.33,5.57,7.32,5.57,-5.57,-5.01,1.76,1.76,1.76
165,7.30,5.55,7.28,5.54,-5.54,-4.97,1.76,1.74,1.75
167,7.27,5.54,7.24,5.52,-5.52,-4.88,1.75,1.73,1.73
169,7.21,5.50,7.20,5.49,-5.49,-4.80,1.72,1.71,1.71
170,7.19,5.49,7.16,5.46,-5.46,-4.76,1.73,1.70,1.70
172,7.12,5.44,7.11,5.43,-5.43,-4.69,1.69,1.68,1.68
174,7.06,5.40,7.07,5.40,-5.40,-4.62,1.66,1.67,1.66
175,7.03,5.37,7.02,5.37,-5.37,-4.59,1.66,1.65,1.66
177,6.97,5.33,6.98,5.34,-5.34,-4.52,1.63,1.64,1.64
179,6.91,5.28,6.93,5.31,-5.31,-4.47,1.60,1.63,1.63
181,6.85,5.24,6.89,5.27,-5.27,-4.42,1.58,1.61,1.61
183,6.81,5.21,6.84,5.24,-5.24,-4.37,1.57,1.60,1.60
184,6.79,5.20,6.80,5.21,-5.21,-4.35,1.58,1.59,1.59
186,6.76,5.18,6.75,5.17,-5.17,-4.31,1.59,1.58,1.58
188,6.73,5.16,6.70,5.14,-5.14,-4.28,1.59,1.57,1.57
190,6.69,5.13,6.66,5.10,-5.10,-4.25,1.59,1.55,1.55
192,6.64,5.10,6.61,5.07,-5.07,-4.22,1.57,1.54,1.54
194,6.59,5.06,6.56,5.03,-5.03,-4.20,1.56,1.53,1.53
196,6.53,5.01,6.52,4.99,-4.99,-4.18,1.54,1.52,1.52
198,6.46,4.95,6.47,4.95,-4.95,-4.16,1.51,1.51,1.51
200,6.40,4.89,6.42,4.91,-4.91,-4.15,1.49,1.50,1.50
202,6.35,4.85,6.37,4.87,-4.87,-4.13,1.47,1.50,1.50
204,6.30,4.81,6.32,4.84,-4.84,-4.13,1.46,1.49,1.49
206,6.26,4.78,6.28,4.80,-4.80,-4.12,1.46,1.48,1.48
208,6.21,4.74,6.23,4.76,-4.76,-4.12,1.45,1.47,1.47
210,6.18,4.72,6.19,4.72,-4.72,-4.11,1.46,1.46,1.46
212,6.14,4.68,6.14,4.69,-4.69,-4.11,1.45,1.46,1.46
214,6.11,4.66,6.10,4.65,-4.65,-4.11,1.46,1.45,1.45
216,6.07,4.63,6.05,4.61,-4.61,-4.11,1.46,1.44,1.44
218,6.04,4.60,6.01,4.57,-4.57,-4.12,1.47,1.44,1.44
221,5.98,4.55,5.96,4.53,-4.53,-4.12,1.45,1.43,1.43
223,5.92,4.50,5.91,4.49,-4.49,-4.13,1.43,1.42,1.42
225,5.87,4.45,5.86,4.44,-4.44,-4.13,1.43,1.42,1.42
227,5.81,4.40,5.81,4.40,-4.40,-4.14,1.41,1.41,1.41
229,5.76,4.35,5.76,4.35,-4.35,-4.14,1.41,1.41,1.41
232,5.68,4.28,5.70,4.30,-4.30,-4.15,1.38,1.40,1.40
234,5.63,4.23,5.65,4.25,-4.25,-4.16,1.37,1.39,1.39
236,5.59,4.20,5.60,4.21,-4.21,-4.16,1.38,1.39,1.39
239,5.53,4.15,5.54,4.16,-4.16,-4.17,1.37,1.38,1.38
241,5.49,4.11,5.49,4.11,-4.11,-4.17,1.38,1.38,1.38
244,5.43,4.05,5.44,4.06,-4.06,-4.18,1.36,1.38,1.37
246,5.39,4.02,5.39,4.02,-4.02,-4.18,1.37,1.37,1.37
248,5.35,3.98,5.34,3.97,-3.97,-4.18,1.38,1.37,1.37
251,5.28,3.92,5.28,3.92,-3.92,-4.18,1.36,1.36,1.36
253,5.24,3.88,5.23,3.87,-3.87,-4.18,1.37,1.36,1.36
256,5.17,3.81,5.17,3.82,-3.82,-4.18,1.35,1.35,1.35
259,5.11,3.76,5.11,3.76,-3.76,-4.18,1.35,1.35,1.35
261,5.06,3.71,5.05,3.70,-3.70,-4.18,1.36,1.35,1.35
264,4.99,3.65,4.98,3.64,-3.64,-4.18,1.35,1.34,1.34
266,4.95,3.61,4.91,3.57,-3.57,-4.17,1.38,1.34,1.34
269,4.87,3.53,4.84,3.50,-3.50,-4.17,1.37,1.34,1.34
272,4.80,3.47,4.76,3.43,-3.43,-4.17,1.37,1.33,1.33
274,4.74,3.41,4.68,3.35,-3.35,-4.16,1.39,1.33,1.33
277,4.66,3.33,4.61,3.28,-3.28,-4.16,1.38,1.33,1.33
280,4.58,3.25,4.54,3.22,-3.22,-4.16,1.36,1.33,1.33
283,4.50,3.18,4.48,3.16,-3.16,-4.15,1.34,1.32,1.32
286,4.42,3.10,4.44,3.12,-3.12,-4.15,1.30,1.32,1.32
288,4.38,3.06,4.41,3.09,-3.09,-4.15,1.29,1.32,1.32
291,4.33,3.01,4.40,3.08,-3.08,-4.15,1.25,1.32,1.32
294,4.31,3.00,4.41,3.09,-3.09,-4.15,1.22,1.31,1.31
297,4.33,3.02,4.44,3.13,-3.13,-4.15,1.20,1.31,1.31
300,4.39,3.08,4.50,3.19,-3.19,-4.16,1.20,1.31,1.31
303,4.48,3.17,4.58,3.27,-3.27,-4.17,1.21,1.31,1.31
306,4.61,3.30,4.68,3.37,-3.37,-4.17,1.24,1.31,1.31
309,4.76,3.46,4.80,3.49,-3.49,-4.19,1.27,1.30,1.30
312,4.92,3.62,4.92,3.62,-3.62,-4.20,1.30,1.30,1.30
316,5.14,3.84,5.06,3.76,-3.76,-4.22,1.38,1.30,1.30
319,5.29,3.99,5.20,3.90,-3.90,-4.24,1.39,1.30,1.30
322,5.43,4.13,5.34,4.04,-4.04,-4.26,1.38,1.30,1.30
325,5.55,4.25,5.48,4.18,-4.18,-4.28,1.37,1.29,1.29
328,5.65,4.36,5.60,4.31,-4.31,-4.31,1.34,1.29,1.29
332,5.78,4.49,5.72,4.43,-4.43,-4.35,1.35,1.29,1.29
335,5.86,4.57,5.83,4.54,-4.54,-4.38,1.32,1.29,1.29
338,5.93,4.64,5.93,4.64,-4.64,-4.42,1.29,1.29,1.29
342,6.02,4.73,6.01,4.73,-4.73,-4.46,1.29,1.29,1.29
345,6.08,4.79,6.09,4.81,-4.81,-4.50,1.27,1.29,1.29
349,6.16,4.87,6.17,4.88,-4.88,-4.56,1.28,1.29,1.29
352,6.23,4.94,6.23,4.95,-4.95,-4.61,1.28,1.28,1.28
356,6.30,5.02,6.30,5.02,-5.02,-4.67,1.28,1.28,1.28
359,6.35,5.07,6.36,5.08,-5.08,-4.72,1.27,1.28,1.28
363,6.42,5.14,6.42,5.14,-5.14,-4.79,1.27,1.28,1.28
366,6.47,5.19,6.49,5.21,-5.21,-4.84,1.26,1.28,1.28
370,6.54,5.26,6.55,5.28,-5.28,-4.92,1.26,1.28,1.28
374,6.61,5.33,6.62,5.34,-5.34,-5.00,1.27,1.28,1.28
377,6.67,5.39,6.69,5.41,-5.41,-5.06,1.26,1.27,1.28
381,6.75,5.48,6.76,5.49,-5.49,-5.14,1.26,1.27,1.27
385,6.82,5.55,6.83,5.56,-5.56,-5.23,1.26,1.27,1.27
389,6.90,5.63,6.91,5.63,-5.63,-5.32,1.26,1.27,1.27
393,6.98,5.71,6.98,5.71,-5.71,-5.41,1.27,1.27,1.27
397,7.06,5.79,7.05,5.79,-5.79,-5.50,1.27,1.27,1.27
401,7.13,5.86,7.13,5.86,-5.86,-5.59,1.27,1.27,1.27
405,7.21,5.94,7.20,5.93,-5.93,-5.68,1.27,1.27,1.27
409,7.28,6.01,7.27,6.01,-6.01,-5.78,1.27,1.26,1.26
413,7.36,6.10,7.34,6.08,-6.08,-5.87,1.28,1.26,1.26
417,7.42,6.16,7.41,6.14,-6.14,-5.96,1.28,1.26,1.26
421,7.49,6.23,7.47,6.21,-6.21,-6.06,1.28,1.26,1.26
425,7.55,6.29,7.54,6.27,-6.27,-6.15,1.28,1.26,1.26
430,7.62,6.35,7.60,6.34,-6.34,-6.26,1.28,1.26,1.26
434,7.66,6.39,7.66,6.40,-6.40,-6.34,1.26,1.27,1.27
438,7.71,6.44,7.73,6.46,-6.46,-6.42,1.25,1.27,1.27
443,7.76,6.49,7.79,6.52,-6.52,-6.52,1.24,1.27,1.27
447,7.79,6.51,7.85,6.58,-6.58,-6.59,1.21,1.27,1.27
451,7.85,6.57,7.91,6.63,-6.63,-6.66,1.21,1.28,1.28
456,7.94,6.66,7.97,6.69,-6.69,-6.73,1.25,1.28,1.28
460,8.01,6.72,8.03,6.74,-6.74,-6.79,1.27,1.29,1.29
465,8.10,6.80,8.08,6.78,-6.78,-6.84,1.32,1.30,1.30
470,8.17,6.86,8.12,6.82,-6.82,-6.89,1.35,1.31,1.30
474,8.20,6.89,8.16,6.84,-6.84,-6.92,1.36,1.31,1.31
479,8.23,6.91,8.18,6.86,-6.86,-6.94,1.37,1.32,1.32
484,8.22,6.88,8.20,6.86,-6.86,-6.95,1.36,1.34,1.33
489,8.20,6.85,8.19,6.85,-6.85,-6.94,1.35,1.35,1.35
494,8.17,6.81,8.18,6.82,-6.82,-6.92,1.35,1.36,1.36
499,8.14,6.76,8.15,6.77,-6.77,-6.89,1.37,1.37,1.37
504,8.09,6.70,8.10,6.71,-6.71,-6.85,1.38,1.39,1.39
509,8.04,6.63,8.03,6.63,-6.63,-6.79,1.41,1.41,1.41
514,7.99,6.57,7.96,6.53,-6.53,-6.72,1.46,1.42,1.42
519,7.92,6.48,7.86,6.42,-6.42,-6.64,1.50,1.44,1.44
524,7.82,6.36,7.75,6.29,-6.29,-6.54,1.53,1.46,1.46
529,7.70,6.22,7.63,6.15,-6.15,-6.44,1.55,1.48,1.48
535,7.53,6.03,7.51,6.00,-6.00,-6.30,1.53,1.50,1.50
540,7.38,5.85,7.37,5.85,-5.85,-6.18,1.53,1.53,1.53
545,7.22,5.67,7.24,5.69,-5.69,-6.05,1.53,1.55,1.55
551,7.03,5.46,7.10,5.52,-5.52,-5.88,1.51,1.57,1.57
556,6.90,5.30,6.96,5.36,-5.36,-5.74,1.54,1.60,1.60
562,6.75,5.13,6.83,5.20,-5.20,-5.56,1.55,1.62,1.62
568,6.63,4.98,6.70,5.05,-5.05,-5.38,1.58,1.65,1.65
573,6.54,4.86,6.57,4.90,-4.90,-5.22,1.64,1.68,1.68
579,6.43,4.72,6.46,4.75,-4.75,-5.03,1.68,1.71,1.71
585,6.34,4.60,6.34,4.61,-4.61,-4.84,1.73,1.73,1.73
591,6.23,4.47,6.23,4.47,-4.47,-4.65,1.76,1.76,1.76
596,6.14,4.34,6.12,4.33,-4.33,-4.49,1.81,1.79,1.79
602,6.03,4.20,6.01,4.19,-4.19,-4.30,1.84,1.82,1.82
608,5.92,4.06,5.90,4.04,-4.04,-4.10,1.88,1.86,1.86
615,5.78,3.89,5.78,3.89,-3.89,-3.88,1.89,1.89,1.89
621,5.66,3.74,5.66,3.74,-3.74,-3.69,1.92,1.92,1.92
627,5.55,3.60,5.52,3.57,-3.57,-3.50,1.98,1.95,1.95
633,5.42,3.43,5.38,3.40,-3.40,-3.31,2.02,1.99,1.99
639,5.29,3.27,5.24,3.22,-3.22,-3.13,2.07,2.02,2.02
646,5.12,3.06,5.08,3.03,-3.03,-2.91,2.09,2.06,2.06
652,4.97,2.88,4.92,2.83,-2.83,-2.73,2.14,2.09,2.09
659,4.78,2.65,4.75,2.63,-2.63,-2.52,2.15,2.13,2.13
665,4.60,2.44,4.58,2.42,-2.42,-2.35,2.18,2.16,2.16
672,4.39,2.19,4.41,2.21,-2.21,-2.14,2.18,2.20,2.20
679,4.19,1.95,4.23,2.00,-2.00,-1.94,2.19,2.24,2.24
686,4.00,1.73,4.06,1.79,-1.79,-1.75,2.21,2.27,2.27
692,3.86,1.55,3.90,1.59,-1.59,-1.58,2.27,2.31,2.31
699,3.70,1.35,3.73,1.39,-1.39,-1.39,2.31,2.35,2.35
706,3.57,1.18,3.58,1.19,-1.19,-1.20,2.38,2.39,2.38
713,3.44,1.02,3.43,1.00,-1.00,-1.02,2.44,2.42,2.42
721,3.30,0.84,3.28,0.82,-0.82,-0.81,2.48,2.46,2.46
728,3.19,0.69,3.15,0.65,-0.65,-0.63,2.54,2.50,2.50
735,3.06,0.52,3.03,0.49,-0.49,-0.45,2.57,2.54,2.54
742,2.95,0.37,2.92,0.34,-0.34,-0.27,2.61,2.57,2.57
750,2.81,0.20,2.81,0.20,-0.20,-0.08,2.61,2.61,2.61
757,2.69,0.04,2.72,0.07,-0.07,0.09,2.62,2.65,2.65
765,2.57,-0.12,2.64,-0.04,0.04,0.29,2.61,2.69,2.69
773,2.48,-0.24,2.58,-0.15,0.15,0.48,2.63,2.72,2.72
780,2.43,-0.33,2.52,-0.24,0.24,0.64,2.67,2.76,2.76
788,2.40,-0.40,2.47,-0.33,0.33,0.82,2.73,2.80,2.80
796,2.40,-0.43,2.42,-0.41,0.41,1.00,2.81,2.83,2.83
804,2.40,-0.47,2.38,-0.49,0.49,1.18,2.88,2.86,2.87
812,2.39,-0.51,2.34,-0.56,0.56,1.35,2.95,2.90,2.90
820,2.37,-0.56,2.29,-0.64,0.64,1.53,3.01,2.93,2.93
828,2.31,-0.66,2.24,-0.72,0.72,1.69,3.03,2.96,2.97
837,2.23,-0.77,2.18,-0.82,0.82,1.88,3.05,3.00,3.00
845,2.15,-0.88,2.11,-0.92,0.92,2.04,3.07,3.03,3.03
853,2.06,-1.00,2.03,-1.03,1.03,2.20,3.09,3.06,3.06
862,1.95,-1.14,1.94,-1.15,1.15,2.37,3.10,3.09,3.09
871,1.84,-1.28,1.83,-1.29,1.29,2.53,3.13,3.12,3.12
879,1.73,-1.42,1.72,-1.43,1.43,2.68,3.16,3.15,3.15
888,1.60,-1.58,1.59,-1.58,1.58,2.83,3.18,3.18,3.18
897,1.46,-1.75,1.46,-1.74,1.74,2.98,3.20,3.20,3.20
906,1.33,-1.90,1.32,-1.91,1.91,3.12,3.24,3.23,3.23
915,1.19,-2.07,1.18,-2.08,2.08,3.26,3.27,3.26,3.26
924,1.04,-2.25,1.04,-2.25,2.25,3.39,3.29,3.29,3.29
933,0.89,-2.42,0.90,-2.42,2.42,3.51,3.31,3.31,3.31
943,0.72,-2.62,0.75,-2.59,2.59,3.64,3.31,3.34,3.34
952,0.58,-2.79,0.62,-2.75,2.75,3.74,3.33,3.37,3.37
962,0.43,-2.96,0.48,-2.91,2.91,3.85,3.34,3.39,3.39
971,0.32,-3.10,0.35,-3.07,3.07,3.94,3.39,3.42,3.42
981,0.21,-3.24,0.22,-3.23,3.23,4.03,3.43,3.45,3.45
991,0.10,-3.37,0.10,-3.38,3.38,4.12,3.48,3.47,3.47
1001,-0.01,-3.51,-0.02,-3.53,3.53,4.19,3.51,3.50,3.50
1011,-0.12,-3.65,-0.14,-3.67,3.67,4.26,3.55,3.53,3.53
1021,-0.24,-3.80,-0.26,-3.82,3.82,4.31,3.58,3.56,3.56
1031,-0.35,-3.93,-0.38,-3.96,3.96,4.36,3.61,3.58,3.58
1041,-0.48,-4.09,-0.49,-4.10,4.10,4.41,3.62,3.61,3.61
1052,-0.60,-4.24,-0.61,-4.24,4.24,4.45,3.64,3.64,3.64
1062,-0.71,-4.38,-0.72,-4.38,4.38,4.48,3.67,3.67,3.67
1073,-0.82,-4.52,-0.83,-4.52,4.52,4.50,3.70,3.70,3.70
1084,-0.94,-4.67,-0.94,-4.66,4.66,4.52,3.72,3.72,3.72
1094,-1.03,-4.78,-1.04,-4.79,4.79,4.53,3.76,3.75,3.75
1105,-1.14,-4.92,-1.14,-4.92,4.92,4.54,3.78,3.78,3.78
1116,-1.24,-5.05,-1.24,-5.05,5.05,4.55,3.81,3.81,3.81
1128,-1.34,-5.18,-1.33,-5.17,5.17,4.55,3.83,3.84,3.84
1139,-1.43,-5.31,-1.41,-5.28,5.28,4.55,3.85,3.87,3.87
1150,-1.51,-5.42,-1.49,-5.39,5.39,4.55,3.88,3.91,3.91
1162,-1.59,-5.53,-1.56,-5.50,5.50,4.54,3.91,3.94,3.94
1173,-1.64,-5.61,-1.63,-5.59,5.59,4.54,3.95,3.97,3.97
1185,-1.69,-5.69,-1.69,-5.69,5.69,4.53,4.00,4.00,4.00
1197,-1.74,-5.77,-1.74,-5.77,5.77,4.53,4.03,4.03,4.03
1209,-1.77,-5.84,-1.79,-5.86,5.85,4.52,4.08,4.05,4.07
1221,-1.82,-5.92,-1.84,-5.94,5.90,4.52,4.08,4.06,4.10
1233,-1.86,-5.99,-1.89,-6.02,5.94,4.51,4.08,4.06,4.13
1246,-1.91,-6.08,-1.93,-6.09,5.97,4.51,4.06,4.04,4.17
1258,-1.96,-6.16,-1.97,-6.17,5.99,4.51,4.03,4.02,4.20
1271,-2.00,-6.23,-2.01,-6.24,6.00,4.51,4.00,3.99,4.23
1283,-2.03,-6.30,-2.04,-6.31,6.00,4.52,3.97,3.96,4.27
1296,-2.08,-6.38,-2.08,-6.38,6.00,4.52,3.92,3.92,4.30
1309,-2.10,-6.44,-2.11,-6.44,6.00,4.53,3.90,3.89,4.34
1322,-2.13,-6.50,-2.13,-6.50,6.00,4.54,3.87,3.87,4.37
1335,-2.15,-6.56,-2.15,-6.56,6.00,4.56,3.85,3.85,4.41
1349,-2.16,-6.61,-2.16,-6.61,6.00,4.58,3.84,3.84,4.45
1362,-2.17,-6.65,-2.17,-6.65,6.00,4.60,3.83,3.83,4.48
1376,-2.18,-6.70,-2.16,-6.68,6.00,4.63,3.82,3.84,4.52
1390,-2.17,-6.73,-2.15,-6.71,6.00,4.66,3.83,3.85,4.56
1404,-2.15,-6.75,-2.13,-6.73,6.00,4.69,3.85,3.87,4.60
1418,-2.13,-6.77,-2.10,-6.74,6.00,4.73,3.87,3.90,4.63
1432,-2.08,-6.75,-2.06,-6.74,6.00,4.77,3.92,3.94,4.67
1446,-2.04,-6.75,-2.02,-6.73,6.00,4.82,3.96,3.98,4.71
1461,-1.99,-6.74,-1.97,-6.72,6.00,4.87,4.01,4.03,4.75
1475,-1.92,-6.71,-1.91,-6.70,6.00,4.92,4.08,4.09,4.79
1490,-1.85,-6.68,-1.85,-6.69,6.00,4.97,4.15,4.15,4.83
1505,-1.78,-6.65,-1.79,-6.67,6.00,5.04,4.22,4.21,4.87
1520,-1.70,-6.62,-1.73,-6.65,6.00,5.10,4.30,4.27,4.91
1535,-1.64,-6.60,-1.68,-6.63,6.00,5.17,4.36,4.32,4.96
1550,-1.58,-6.58,-1.62,-6.62,6.00,5.23,4.42,4.38,5.00
1566,-1.53,-6.57,-1.57,-6.61,6.00,5.31,4.47,4.43,5.04
1582,-1.49,-6.57,-1.52,-6.60,6.00,5.39,4.51,4.48,5.08
1597,-1.45,-6.58,-1.47,-6.60,6.00,5.46,4.55,4.53,5.13
1613,-1.42,-6.59,-1.43,-6.60,6.00,5.54,4.58,4.57,5.17
1629,-1.38,-6.60,-1.39,-6.60,6.00,5.63,4.62,4.61,5.21
1646,-1.34,-6.60,-1.34,-6.60,6.00,5.72,4.66,4.66,5.26
1662,-1.30,-6.61,-1.29,-6.60,6.00,5.80,4.70,4.71,5.30
1679,-1.26,-6.61,-1.24,-6.59,6.00,5.89,4.74,4.76,5.35
1696,-1.21,-6.61,-1.19,-6.58,6.00,5.98,4.79,4.81,5.40
1713,-1.16,-6.60,-1.12,-6.56,6.00,6.07,4.84,4.88,5.44
1730,-1.10,-6.59,-1.05,-6.54,6.00,6.16,4.90,4.95,5.49
1747,-1.03,-6.57,-0.98,-6.52,6.00,6.24,4.97,5.02,5.54
1764,-0.94,-6.53,-0.90,-6.49,6.00,6.33,5.06,5.10,5.59
1782,-0.84,-6.48,-0.82,-6.46,6.00,6.41,5.16,5.18,5.64
1800,-0.73,-6.42,-0.74,-6.42,6.00,6.49,5.27,5.26,5.69
1818,-0.61,-6.36,-0.65,-6.39,6.00,6.57,5.39,5.35,5.75
1836,-0.51,-6.31,-0.57,-6.37,6.00,6.64,5.49,5.43,5.80
1854,-0.42,-6.28,-0.49,-6.34,6.00,6.71,5.58,5.51,5.86
1873,-0.32,-6.24,-0.41,-6.32,6.00,6.77,5.68,5.59,5.92
1892,-0.24,-6.22,-0.32,-6.31,6.00,6.82,5.76,5.68,5.98
1911,-0.18,-6.23,-0.24,-6.29,6.00,6.87,5.82,5.76,6.05
1930,-0.12,-6.24,-0.16,-6.27,6.00,6.91,5.88,5.84,6.12
1949,-0.07,-6.27,-0.06,-6.26,6.00,6.94,5.93,5.94,6.19
1969,-0.02,-6.30,0.04,-6.23,6.00,6.97,5.98,6.04,6.27
1988,0.06,-6.30,0.16,-6.20,6.00,6.98,6.06,6.16,6.36
2008,0.18,-6.27,0.29,-6.16,6.00,6.99,6.18,6.29,6.45
2028,0.33,-6.22,0.44,-6.11,5.99,6.99,6.32,6.43,6.55
2048,0.51,-6.14,0.60,-6.05,5.96,6.98,6.47,6.57,6.65
2069,0.72,-6.05,0.79,-5.98,5.93,6.96,6.65,6.71,6.77
2090,0.94,-5.95,0.98,-5.91,5.88,6.93,6.82,6.86,6.89
