frequency,raw
20,-18.97
21,-17.87
22,-16.82
23,-15.82
24,-14.86
25,-13.93
26,-13.00
27,-12.03
28,-11.05
29,-10.26
30,-9.45
31,-8.43
32,-7.71
33,-6.87
34,-6.02
35,-5.36
36,-4.58
37,-3.78
38,-3.18
39,-2.59
40,-1.86
41,-1.30
42,-0.60
43,-0.11
44,0.29
45,0.80
46,1.13
47,1.62
48,1.94
49,2.33
50,2.56
51,2.95
52,3.17
53,3.52
54,3.76
55,4.03
56,4.33
57,4.53
58,4.59
59,4.86
60,4.95
61,5.13
62,5.19
63,5.19
64,5.19
65,5.19
66,5.19
67,5.19
68,5.19
69,5.19
70,5.15
71,4.99
72,4.86
73,4.84
74,4.69
75,4.53
76,4.39
77,4.24
78,4.09
79,3.95
80,3.81
81,3.67
82,3.53
83,3.39
84,3.25
85,3.12
86,2.99
87,2.92
88,2.86
89,2.61
90,2.59
91,2.51
92,2.39
93,2.27
94,2.27
95,2.11
96,1.95
97,1.95
98,1.84
99,1.72
100,1.62
101,1.62
102,1.55
104,1.33
105,1.30
106,1.26
107,1.04
108,0.97
109,0.96
110,0.86
111,0.76
112,0.66
113,0.65
114,0.65
115,0.65
117,0.49
118,0.39
119,0.32
120,0.32
121,0.32
123,0.25
124,0.15
125,0.06
126,0.00
128,0.00
129,-0.00
130,0.00
131,0.00
133,-0.15
134,-0.23
135,-0.32
137,-0.32
138,-0.32
140,-0.32
141,-0.32
142,-0.40
144,-0.56
145,-0.64
147,-0.65
148,-0.65
150,-0.65
151,-0.65
153,-0.65
154,-0.65
156,-0.65
157,-0.65
159,-0.71
160,-0.78
162,-0.92
164,-0.97
165,-0.97
167,-0.97
169,-0.97
170,-0.97
172,-0.97
174,-0.97
175,-0.97
177,-0.97
179,-0.97
181,-0.97
183,-1.00
184,-1.06
186,-1.14
188,-1.14
190,-1.26
192,-1.30
194,-1.30
196,-1.30
198,-1.30
200,-1.30
202,-1.30
204,-1.30
206,-1.30
208,-1.30
210,-1.30
212,-1.30
214,-1.30
216,-1.30
218,-1.30
221,-1.30
223,-1.30
225,-1.30
227,-1.32
229,-1.42
232,-1.57
234,-1.62
236,-1.62
239,-1.62
241,-1.62
244,-1.62
246,-1.62
248,-1.62
251,-1.62
253,-1.62
256,-1.62
259,-1.62
261,-1.62
264,-1.62
266,-1.62
269,-1.62
272,-1.50
274,-1.42
277,-1.30
280,-1.30
283,-1.30
286,-1.30
288,-1.30
291,-1.30
294,-1.32
297,-1.44
300,-1.37
303,-1.30
306,-1.30
309,-1.30
312,-1.35
316,-1.49
319,-1.60
322,-1.62
325,-1.62
328,-1.62
332,-1.62
335,-1.62
338,-1.62
342,-1.62
345,-1.62
349,-1.62
352,-1.62
356,-1.62
359,-1.62
363,-1.62
366,-1.62
370,-1.62
374,-1.62
377,-1.62
381,-1.62
385,-1.62
389,-1.62
393,-1.62
397,-1.62
401,-1.62
405,-1.62
409,-1.62
413,-1.62
417,-1.62
421,-1.62
425,-1.62
430,-1.62
434,-1.62
438,-1.62
443,-1.62
447,-1.62
451,-1.62
456,-1.62
460,-1.62
465,-1.62
470,-1.62
474,-1.62
479,-1.62
484,-1.62
489,-1.62
494,-1.67
499,-1.78
504,-1.78
509,-1.85
514,-1.95
519,-1.95
524,-1.95
529,-1.95
535,-1.95
540,-1.95
545,-1.95
551,-1.95
556,-1.95
562,-1.95
568,-1.95
573,-1.95
579,-1.95
585,-1.95
591,-1.95
596,-1.95
602,-1.95
608,-1.95
615,-1.95
621,-1.91
627,-1.80
633,-1.78
639,-1.75
646,-1.63
652,-1.62
659,-1.62
665,-1.62
672,-1.62
679,-1.62
686,-1.62
692,-1.62
699,-1.62
706,-1.62
713,-1.62
721,-1.52
728,-1.46
735,-1.46
742,-1.36
750,-1.30
757,-1.30
765,-1.30
773,-1.30
780,-1.28
788,-1.17
796,-1.14
804,-1.10
812,-0.99
820,-0.97
828,-0.97
837,-0.97
845,-0.86
853,-0.76
862,-0.65
871,-0.65
879,-0.65
888,-0.63
897,-0.51
906,-0.40
915,-0.32
924,-0.32
933,-0.32
943,-0.32
952,-0.32
962,-0.21
971,-0.11
981,-0.00
991,-0.00
1001,0.00
1011,-0.00
1021,-0.00
1031,0.09
1041,0.19
1052,0.31
1062,0.32
1073,0.32
1084,0.32
1094,0.32
1105,0.38
1116,0.49
1128,0.61
1139,0.65
1150,0.65
1162,0.65
1173,0.73
1185,0.85
1197,0.96
1209,0.97
1221,1.02
1233,1.13
1246,1.25
1258,1.30
1271,1.30
1283,1.30
1296,1.45
1309,1.62
1322,1.62
1335,1.62
1349,1.70
1362,1.92
1376,1.95
1390,1.95
1404,1.96
1418,2.18
1432,2.27
1446,2.27
1461,2.27
1475,2.27
1490,2.27
1505,2.27
1520,2.36
1535,2.47
1550,2.58
1566,2.59
1582,2.59
1597,2.59
1613,2.59
1629,2.59
1646,2.59
1662,2.59
1679,2.59
1696,2.59
1713,2.59
1730,2.59
1747,2.59
1764,2.59
1782,2.59
1800,2.59
1818,2.59
1836,2.59
1854,2.59
1873,2.59
1892,2.59
1911,2.59
1930,2.56
1949,2.45
1969,2.34
1988,2.23
2008,2.12
2028,2.01
2048,1.95
2069,1.94
2090,1.71
2111,1.55
2132,1.44
2153,1.33
2175,1.13
2196,0.94
2218,0.83
2240,0.63
2263,0.40
2285,0.18
2308,-0.05
2331,-0.27
2355,-0.49
2378,-0.60
2402,-0.78
2426,-1.01
2450,-1.23
2475,-1.38
2500,-1.53
2525,-1.75
2550,-1.88
2575,-2.03
2601,-2.26
2627,-2.48
2653,-2.65
2680,-2.76
2707,-2.88
2734,-2.99
2761,-3.10
2789,-3.21
2817,-3.33
2845,-3.44
2873,-3.55
2902,-3.57
2931,-3.61
2960,-3.72
2990,-3.84
3020,-3.89
3050,-3.89
3080,-3.89
3111,-3.89
3142,-3.89
3174,-3.89
3206,-3.89
3238,-3.89
3270,-3.89
3303,-3.89
3336,-3.94
3369,-4.05
3403,-3.94
3437,-3.89
3471,-3.89
3506,-3.89
3541,-3.89
3576,-3.87
3612,-3.76
3648,-3.65
3685,-3.50
3721,-3.28
3759,-3.15
3796,-2.99
3834,-2.76
3873,-2.53
3911,-2.31
3950,-2.09
3990,-1.86
4030,-1.64
4070,-1.41
4111,-1.19
4152,-1.05
4193,-0.90
4235,-0.68
4278,-0.45
4321,-0.27
4364,-0.16
4407,-0.05
4451,0.12
4496,0.32
4541,0.32
4586,0.47
4632,0.65
4679,0.65
4725,0.65
4773,0.65
4820,0.65
4868,0.55
4917,0.44
4966,0.33
5016,0.21
5066,0.10
5117,-0.01
5168,-0.13
5220,-0.24
5272,-0.35
5325,-0.46
5378,-0.49
5432,-0.45
5486,-0.34
5541,-0.22
5596,-0.01
5652,0.33
5709,0.67
5766,1.07
5823,1.51
5882,1.97
5940,2.33
6000,2.70
6060,3.15
6120,3.51
6182,3.89
6244,4.34
6306,4.58
6369,4.86
6433,5.20
6497,5.53
6562,5.74
6628,5.87
6694,6.09
6761,6.16
6828,6.19
6897,6.30
6966,6.42
7035,6.45
7106,6.33
7177,6.22
7249,6.11
7321,5.99
7394,5.77
7468,5.54
7543,5.30
7618,4.97
7694,4.63
7771,4.32
7849,4.10
7928,3.78
8007,3.40
8087,2.95
8168,2.50
8250,2.05
8332,1.60
8415,1.04
8499,0.48
8584,-0.08
8670,-0.65
8757,-1.13
8845,-1.55
8933,-1.89
9022,-2.13
9113,-2.27
9204,-2.27
9296,-2.16
9389,-2.11
9483,-2.11
9577,-2.11
9673,-2.18
9770,-2.27
9868,-2.27
9966,-2.35
10066,-2.46
10167,-2.58
10268,-2.69
10371,-2.80
10475,-2.91
10579,-2.92
10685,-3.03
10792,-3.24
10900,-3.24
11009,-3.38
11119,-3.63
11230,-3.96
11343,-4.30
11456,-4.67
11571,-5.12
11686,-5.76
11803,-6.39
11921,-6.95
12040,-7.62
12161,-8.24
12282,-8.80
12405,-9.48
12529,-10.08
12655,-10.65
12781,-11.21
12909,-11.60
13038,-11.97
13168,-12.42
13300,-12.58
13433,-12.74
13567,-12.97
13703,-13.19
13840,-13.30
13978,-13.31
14118,-13.42
14259,-13.53
14402,-13.62
14546,-13.62
14692,-13.62
14838,-13.62
14987,-13.62
15137,-13.72
15288,-13.83
15441,-13.94
15595,-13.95
15751,-13.89
15909,-13.76
16068,-13.54
16229,-13.31
16391,-13.07
16555,-12.73
16720,-12.39
16888,-12.02
17056,-11.57
17227,-11.32
17399,-11.04
17573,-10.71
17749,-10.48
17926,-10.32
18106,-10.20
18287,-10.09
18470,-10.05
18654,-10.05
18841,-10.05
19029,-10.05
19220,-10.05
19412,-10.05
19606,-9.95
19802,-9.84
20000,-9.73
