frequency,raw
10,-8.144503475107346
11,-7.366223321898758
12,-6.538768679253772
13,-5.876936622930229
14,-5.260401662429009
15,-4.7705428921985655
16,-4.332989892890465
17,-3.9088482633236263
18,-3.4610661764467836
19,-3.105124913537109
20,-2.6592438436581993
21,-2.287577876400826
22,-1.934800627813498
23,-1.695203984886455
24,-1.438505389120454
25,-1.1325023986576985
26,-0.8669318603611558
27,-0.658006134196599
28,-0.4680273006725404
29,-0.21363602359233358
30,0.0026571033205238237
31,0.23278189779252623
32,0.39999884323199364
33,0.6132927215958768
34,0.6625205686720816
35,0.8355531781534777
36,0.9087192906000192
37,1.0831649318323828
38,1.205435301447416
39,1.2912525521637273
40,1.4968657311297964
41,1.5209191102537094
42,1.6932528082485554
43,1.743070412436004
44,1.9223556859920743
45,1.958953824934074
46,1.92598838694797
47,2.1613609323734364
48,2.1214212264607637
49,2.250283725525515
50,2.3839389635600927
51,2.3650636972941115
52,2.5044292679348974
53,2.513585840273623
54,2.6104738483726653
55,2.6256577926155655
56,2.719778105175064
57,2.8104865410286113
58,2.7998817726273098
59,2.872753237865574
60,2.8853235452576076
61,2.880455955903334
62,2.878476735277501
63,2.8774372198888676
64,2.8763614362800665
65,2.874958814294825
66,2.8789462602717473
67,2.8257350197489393
68,2.7765256051459
69,2.6815339140550885
70,2.688791800337624
71,2.695859200830757
72,2.8057923123026933
73,2.792204350205634
74,2.839570172745055
75,3.0031687892629604
76,3.088067697027155
77,3.1796995129269225
78,3.1426074406393365
79,3.2428760006770236
80,3.33639477798077
81,3.4104397735519454
82,3.5624796947273003
83,3.552316885454572
84,3.54376714633623
85,3.6179415921043274
86,3.6933440816133976
87,3.7079358858675793
88,3.7218688542114275
89,3.7352592691297257
90,3.7405860436018967
91,3.662450176683328
92,3.63147194605555
93,3.6175301000435685
94,3.602956191870291
95,3.593597907017365
96,3.5933136082683363
97,3.601837725601845
98,3.7015128652643243
99,3.7252858662286474
100,3.727068105533065
101,3.819458436816806
102,3.9053116700821784
104,3.8909062212801038
105,3.9305023892722266
106,3.9879706905400907
107,4.001294619677959
108,4.019095579081722
109,4.034866252995602
110,4.043634491968474
111,4.04362638653179
112,4.122681219541174
113,4.025264371351192
114,4.011097843200122
115,3.998852295574629
117,3.988769047588021
118,4.04504183764001
119,4.077570128239203
120,4.075825034197913
121,4.075918368787305
123,4.076543111551181
124,4.076516526542909
125,4.0755352167466175
126,4.07452041661553
128,4.083680357204212
129,4.078760568486856
130,4.085200314982855
131,4.092583954890144
133,4.098108387814615
134,4.099617911277241
135,4.096946653701123
137,4.050297916611436
138,3.9264062837851412
140,3.8875975939958467
141,3.89226857992326
142,3.899763026015619
144,3.9071010374886512
145,3.9115302656474347
147,3.8960347432451927
148,3.8275789717237823
150,3.803536130800328
151,3.8008230487932098
153,3.754046961670242
154,3.6603350603573075
156,3.6251656697545718
157,3.5992273030495356
159,3.4974763102630213
160,3.426123609800814
162,3.294941345144485
164,3.170303413191262
165,3.103271024780639
167,3.063220421759933
169,3.0548415283676897
170,3.0577608054424346
172,3.1528727333722832
174,3.1618784351803546
175,3.161446503968121
177,3.1187825449654216
179,3.061528015802673
181,2.9612326171745726
183,2.9590157187249737
184,2.967395543077994
186,2.879707442894638
188,2.7124567674859863
190,2.6608099759591486
192,2.6096653790618403
194,2.5413861225502634
196,2.3993668947888915
198,2.379638884668376
200,2.3344361390203554
202,2.299462180356084
204,2.234464738381786
206,2.1975536431165015
208,2.027161290958925
210,1.979396723204549
212,1.9455204622346818
214,1.9043218340104957
216,1.781172004586482
218,1.68541413946624
221,1.5728568481231209
223,1.4840185307190428
225,1.3849407268835705
227,1.246947685540496
229,1.1069801865998494
232,1.0566514575530368
234,0.9387421043843602
236,0.8147725678294124
239,0.5974857465224188
241,0.48645446656136526
244,0.37909894222306617
246,0.31802605781262283
248,0.26028147896497744
251,0.15843633136370228
253,0.03817116870606441
256,-0.07585658515171811
259,-0.11836566925605485
261,-0.2748937437857055
264,-0.3030967071977906
266,-0.26228560797196954
269,-0.46457443681806154
272,-0.575610044942195
274,-0.6018150850799859
277,-0.722387407099049
280,-0.8161228024168024
283,-0.8757956462336702
286,-0.9245815608882757
288,-0.9486424414676873
291,-1.0498435524438023
294,-1.1252355677554644
297,-1.2278218199432227
300,-1.3415119883902782
303,-1.317178263240036
306,-1.334456337416573
309,-1.5292123145701086
312,-1.6032092719186595
316,-1.6469035504199374
319,-1.815263624071714
322,-1.8022565289153272
325,-1.7517836767155008
328,-1.9262435560381583
332,-2.072646273712172
335,-2.066969966999893
338,-2.0881730979223905
342,-2.3160783486530105
345,-2.3860745155898258
349,-2.358979060404872
352,-2.3385066078491725
356,-2.5173621626319544
359,-2.5332459862571763
363,-2.5868426294255285
366,-2.748220442388986
370,-2.6200276181854587
374,-2.6653002086597226
377,-2.8772487613141093
381,-2.8540165814190672
385,-2.880353268094609
389,-3.0153566002241172
393,-2.9079527446141142
397,-2.837866145118266
401,-3.114225296717285
405,-3.119339804644851
409,-3.0652543428576235
413,-3.0638952735648215
417,-2.974227529503573
421,-3.035860066723755
425,-3.218918099298206
430,-3.2656519620302324
434,-3.178030956332387
438,-3.0749906995045992
443,-3.0663944251289412
447,-3.057371813470474
451,-3.047641274189316
456,-2.855066718250222
460,-2.841148412086781
465,-2.9060533631209102
470,-2.8904317264364963
474,-2.875754408500645
479,-2.8613172621104512
484,-2.809387912317701
489,-2.6223789665134185
494,-2.664709339360791
499,-2.7648067091884236
504,-2.6282923441620643
509,-2.500487703816758
514,-2.4759088449769577
519,-2.3191268560204
524,-2.2472388046610248
529,-2.2780125822996755
535,-2.3446823752060677
540,-2.348272143558261
545,-2.352597319534996
551,-2.3555074538898286
556,-2.354956994245734
562,-2.302741151084516
568,-2.236467728639702
573,-2.1354496740756455
579,-2.092358179975477
585,-2.064657145025522
591,-2.0380642629550416
596,-2.0172262334568707
602,-2.00145728707014
608,-1.9036285226261696
615,-1.8470610282667224
621,-1.807765022077425
627,-1.8030076690613284
633,-1.7876427578389384
639,-1.7635329259448276
646,-1.8212432073504867
652,-1.7140170046514263
659,-1.4059521293464503
665,-1.4218392707942242
672,-1.5210241097622854
679,-1.5988101956994452
686,-1.6329840708199652
692,-1.46423003979707
699,-1.4261129577236493
706,-1.4900741482296238
713,-1.427135290505561
721,-1.0886133370619258
728,-1.2054684873710584
735,-1.2217044743178371
742,-1.0404764875683996
750,-1.1135707604685148
757,-1.138101493301818
765,-1.0191635853129586
773,-1.0368649970937642
780,-1.056311297208049
788,-0.982793426576049
796,-0.9331131380411117
804,-0.8546928226142922
812,-0.8897572725895608
820,-0.9004703218132553
828,-0.8090333564681369
837,-0.8727528958099822
845,-0.863039848174125
853,-0.7255706278246394
862,-0.7967062628394785
871,-0.7749156421090795
879,-0.5894818255152527
888,-0.6222102088010328
897,-0.6272523299792849
906,-0.502137146326999
915,-0.377207285781071
924,-0.373392725897552
933,-0.40311936668789083
943,-0.335750701545806
952,-0.25270032891680594
962,-0.11997379318707041
971,-0.07941603437000261
981,-0.07862155438527563
991,-0.0616611215690005
1001,0.006816950806358024
1011,0.13557405528850797
1021,0.24249541554502382
1031,0.26587722904856936
1041,0.2761447936101209
1052,0.31200284044305726
1062,0.3531882618015915
1073,0.3989321573155056
1084,0.4489172534183996
1094,0.5027788666526176
1105,0.559234361122815
1116,0.6158845605589558
1128,0.670258332147353
1139,0.7216176782724621
1150,0.7722652927608584
1162,0.8272608099886998
1173,0.9116613102228819
1185,0.9526271585404846
1197,0.9664828068351368
1209,0.9832154161562165
1221,1.0730965514167963
1233,1.234450011295745
1246,1.2742283604156182
1258,1.2646750186821176
1271,1.4460758665191373
1283,1.5459974185796037
1296,1.4768101698190117
1309,1.5777184251436438
1322,1.698168113646434
1335,1.6631970916561523
1349,1.8063988686121297
1362,1.9654677687824835
1376,1.8842863821898048
1390,1.927667208233806
1404,2.0693422477850465
1418,2.0177329181823547
1432,2.0946395473028723
1446,2.2494320474947327
1461,2.3532015499991945
1475,2.3082338505211037
1490,2.380137486099408
1505,2.6003836923337444
1520,2.6774724634590665
1535,2.5593440197616144
1550,2.6011906945581327
1566,2.713672303663449
1582,2.817659015041059
1597,2.9907506932522225
1613,3.1605083450179245
1629,3.219633370423492
1646,3.3853524792622816
1662,3.4476057532406124
1679,3.5055528395724727
1696,3.6563412141749625
1713,3.7822066570100468
1730,3.8730448971856157
1747,3.9754125289743314
1764,4.168245906307282
1782,4.2954822114619216
1800,4.433597170731994
1818,4.559650404978408
1836,4.731950044859906
1854,4.926346316500408
1873,5.034183927926695
1892,5.094422580123796
1911,5.0095240487439385
1930,5.115145589035576
1949,5.326532095772441
1969,5.336476829721776
1988,5.546530317541763
2008,5.683364108493684
2028,5.573524790447061
2048,5.750291744723064
2069,5.992319146289552
2090,6.089827504718806
2111,6.164860910536493
2132,6.160366282911063
2153,6.163013267341349
2175,6.073734298987447
2196,6.032123280701446
2218,6.045015126862571
2240,6.032990193168698
2263,5.946670320188573
2285,5.929264478212136
2308,5.922208756843935
2331,5.942090956530321
2355,5.98084562298079
2378,5.921162183076377
2402,5.867759316768542
2426,5.880090159826544
2450,5.942793471000644
2475,5.932119881244182
2500,5.900963858394876
2525,5.964052853746096
2550,5.967531206979135
2575,5.9820701536602305
2601,5.970214518243293
2627,5.981948934445413
2653,6.035097774520183
2680,5.980749535497125
2707,5.973279969302249
2734,6.0444224906397075
2761,6.1483390855453335
2789,6.268801377869052
2817,6.3937686358428225
2845,6.4465625877581365
2873,6.538812367789831
2902,6.603593835088284
2931,6.682948187638244
2960,6.723614904763643
2990,6.831283213412326
3020,6.8769811546701085
3050,7.069149226782052
3080,7.293954782743849
3111,7.362324890520712
3142,7.404677232875784
3174,7.5012910115978535
3206,7.627439442758131
3238,7.703288280247975
3270,7.783315870094615
3303,7.858753263240843
3336,7.871584578207924
3369,7.866514305953393
3403,7.842430017405141
3437,7.80404418954169
3471,7.76093093546263
3506,7.724551633109092
3541,7.704447488760816
3576,7.654272324236743
3612,7.578057071988076
3648,7.524788173799397
3685,7.369031398281493
3721,7.217121396994416
3759,7.124293311440488
3796,6.861751803737453
3834,6.6943237704988885
3873,6.480125724382093
3911,6.216681112265935
3950,5.939916127408886
3990,5.643945994586922
4030,5.302566280782584
4070,4.902117430602188
4111,4.453657738112826
4152,3.988236783301721
4193,3.596334303512868
4235,3.2101428063046145
4278,2.7999256523918854
4321,2.492771409934706
4364,2.062732014392817
4407,1.6751991475348778
4451,1.4781461304991694
4496,1.2637471131316778
4541,0.8573773246879011
4586,0.733778087539914
4632,0.6748014075985589
4679,0.6580511445434336
4725,0.7204488169791237
4773,0.7599800324610726
4820,0.7470710799896461
4868,0.7004895845174275
4917,0.5625313876267173
4966,0.4246018198799275
5016,0.13953548292647877
5066,-0.09765190505645283
5117,-0.31791001235400973
5168,-0.4913977415520563
5220,-0.6297576779184455
5272,-0.6615159122849503
5325,-0.6216413363420399
5378,-0.5723962468068633
5432,-0.5509931655280784
5486,-0.5936551087887345
5541,-0.5633653848541629
5596,-0.5680627200660071
5652,-0.6672520625612757
5709,-0.9177538449709237
5766,-1.332067611673657
5823,-1.7993925437673086
5882,-2.470055102458038
5940,-3.742488492207012
6000,-4.632449650632254
6060,-6.115223082008717
6120,-7.631588833590332
6182,-8.171270686320804
6244,-7.518015668436072
6306,-7.677546811755971
6369,-8.404031962147062
6433,-8.905770405153412
6497,-8.678507333966337
6562,-8.481390138675629
6628,-8.286383996212503
6694,-7.672148554640629
6761,-7.247852540677358
6828,-6.479002486486924
6897,-6.070527138610081
6966,-5.238213849466598
7035,-4.654338552843759
7106,-4.348574006837089
7177,-3.985660946604742
7249,-3.1819671458711363
7321,-2.62297391675844
7394,-2.099192747640911
7468,-0.9779339911019553
7543,-0.1825215027273388
7618,0.3575533251825953
7694,1.4230623852856743
7771,2.1004976435474543
7849,2.510326506564419
7928,2.877802940196106
8007,3.1072398390957785
8087,3.1460620848758665
8168,3.2144302914339695
8250,3.089671936640383
8332,2.63567001187672
8415,2.5164121201339382
8499,2.057047492658399
8584,1.8447441435757095
8670,1.9253962646004572
8757,2.3666897859948097
8845,3.3369187607009083
8933,3.92187130438784
9022,3.9448777938382995
9113,4.178032037241541
9204,4.632897857002271
9296,5.152921316171888
9389,5.476021513088213
9483,5.447683472321888
9577,5.343877392767164
9673,5.052039833625564
9770,4.337717451807011
9868,3.419828547952086
9966,2.4979486518707663
10066,0.7299082281408871
10167,-0.32356173420220413
10268,-1.0870481120505433
10371,-2.193481781527322
10475,-3.622421863743271
10579,-5.0309742107254545
10685,-6.353464012703862
10792,-7.53241511262511
10900,-8.20469316087171
11009,-10.028388213258939
11119,-9.651699769585047
11230,-8.730176298892824
11343,-7.548787973955561
11456,-6.96522597530366
11571,-6.525952366912291
11686,-5.688084998910046
11803,-4.9134703882198085
11921,-4.354117092595184
12040,-4.190827161004078
12161,-4.157991151995405
12282,-4.593733797655389
12405,-5.663841661722589
12529,-5.960973169217973
12655,-6.7491393594374225
12781,-8.58309485937767
12909,-9.960306761656891
13038,-10.408639105605687
13168,-9.275674529805265
13300,-11.22723531092884
13433,-12.493516075950264
13567,-12.121717956235877
13703,-13.019197879705413
13840,-15.073758472671017
13978,-17.31508657811165
14118,-21.83387685772934
14259,-24.6423880461825
14402,-25.07917896522431
14546,-23.972410428432088
14692,-24.08355989087506
14838,-25.0406286349042
14987,-25.843195995433792
15137,-24.580101635848024
15288,-23.713473413765758
15441,-24.268561439979635
15595,-25.144631568250077
15751,-24.898629117641825
15909,-24.90874758972835
16068,-24.224834658266793
16229,-23.535821335991557
16391,-22.674863884992117
16555,-22.474004214002978
16720,-22.520674889022676
16888,-22.792619175000823
17056,-22.77048204659168
17227,-22.37604579526912
17399,-21.463115421088848
17573,-19.942488022155263
17749,-18.21912375092352
17926,-17.170220971454594
18106,-16.303703314422147
18287,-15.365756798945618
18470,-14.883949675853781
18654,-15.038236703723
18841,-15.79546919956946
19029,-16.67577617955421
19220,-17.17652924352506
19412,-18.165833754511972
19606,-18.811952063263163
19802,-19.410289821206256
20000,-19.5189559650908
20200,-19.0173969938112
20402,-17.781228176848035
20606,-17.67590438094097
20812,-17.96813404950637
21020,-18.21320712904736
21230,-18.667586411548527
21443,-19.428431184275603
21657,-20.10704557435904
21874,-20.60035982671181
22092,-20.72145424624463
22313,-20.347799034924446
22537,-19.203765478673755
22762,-17.970042108823396
22989,-17.133118599572096
23219,-17.497126017918784
23452,-17.20515185339935
23686,-16.86089291003488
23923,-17.50405493426016
24162,-18.73670712403251
24404,-20.210351649054818
24648,-21.681922109089875
24894,-23.15114474578262
25143,-24.624233151672712
25395,-26.100726953716922
25649,-27.573844419284057
25905,-29.043435918795964
26164,-30.51566006945739
26426,-31.99028192263281
26690,-33.46097131505508
26957,-34.93379655697684
27227,-36.408580209646956
27499,-37.879189726788304
27774,-39.351496969453066
28052,-40.825295969695894
28332,-42.294603162359664
28615,-43.76509467086674
28902,-45.242238017111106
29191,-46.714468056785904
29482,-48.181772197190455
29777,-49.65512527532093
