frequency,raw
20.00,13.01
20.20,13.01
20.40,13.01
20.61,13.01
20.81,13.01
21.02,13.01
21.23,13.01
21.44,13.01
21.66,13.01
21.87,13.01
22.09,12.99
22.31,12.94
22.54,12.89
22.76,12.84
22.99,12.79
23.22,12.79
23.45,12.79
23.69,12.79
23.92,12.79
24.16,12.79
24.40,12.79
24.65,12.79
24.89,12.79
25.14,12.76
25.39,12.70
25.65,12.64
25.91,12.58
26.16,12.56
26.43,12.56
26.69,12.56
26.96,12.56
27.23,12.56
27.50,12.56
27.77,12.56
28.05,12.55
28.33,12.48
28.62,12.42
28.90,12.35
29.19,12.33
29.48,12.33
29.78,12.33
30.08,12.31
30.38,12.24
30.68,12.17
30.99,12.10
31.30,12.10
31.61,12.10
31.93,12.10
32.24,12.10
32.57,12.10
32.89,12.10
33.22,12.05
33.55,11.97
33.89,11.90
34.23,11.87
34.57,11.87
34.92,11.87
35.27,11.81
35.62,11.73
35.97,11.66
36.33,11.65
36.70,11.65
37.06,11.65
37.43,11.63
37.81,11.61
38.19,11.57
38.57,11.50
38.95,11.43
39.34,11.42
39.74,11.42
40.14,11.39
40.54,11.30
40.94,11.20
41.35,11.19
41.76,11.19
42.18,11.19
42.60,11.19
43.03,11.18
43.46,11.08
43.90,10.98
44.33,10.96
44.78,10.96
45.23,10.95
45.68,10.92
46.13,10.88
46.60,10.80
47.06,10.73
47.53,10.73
48.01,10.73
48.49,10.67
48.97,10.60
49.46,10.56
49.96,10.51
50.46,10.49
50.96,10.46
51.47,10.37
51.99,10.28
52.51,10.28
53.03,10.28
53.56,10.28
54.10,10.26
54.64,10.13
55.18,10.05
55.74,10.05
56.29,9.98
56.86,9.85
57.42,9.82
58.00,9.82
58.58,9.82
59.16,9.78
59.76,9.65
60.35,9.60
60.96,9.60
61.57,9.60
62.18,9.56
62.80,9.41
63.43,9.37
64.07,9.37
64.71,9.37
65.35,9.37
66.01,9.37
66.67,9.22
67.33,9.14
68.01,9.14
68.69,9.12
69.37,9.03
70.07,8.91
70.77,8.91
71.48,8.91
72.19,8.86
72.91,8.70
73.64,8.68
74.38,8.68
75.12,8.67
75.87,8.63
76.63,8.52
77.40,8.46
78.17,8.46
78.95,8.46
79.74,8.29
80.54,8.23
81.35,8.23
82.16,8.21
82.98,8.12
83.81,8.02
84.65,8.00
85.50,8.00
86.35,8.00
87.22,7.95
88.09,7.77
88.97,7.77
89.86,7.77
90.76,7.75
91.66,7.61
92.58,7.54
93.51,7.54
94.44,7.54
95.39,7.45
96.34,7.32
97.30,7.32
98.28,7.32
99.26,7.26
100.25,7.09
101.25,7.09
102.27,7.06
103.29,6.94
104.32,6.86
105.37,6.86
106.42,6.86
107.48,6.76
108.56,6.64
109.64,6.63
110.74,6.63
111.85,6.63
112.97,6.61
114.10,6.40
115.24,6.40
116.39,6.40
117.55,6.39
118.73,6.23
119.92,6.18
121.12,6.18
122.33,6.18
123.55,6.08
124.79,5.96
126.03,5.95
127.29,5.95
128.57,5.90
129.85,5.74
131.15,5.72
132.46,5.72
133.79,5.72
135.12,5.71
136.48,5.55
137.84,5.49
139.22,5.49
140.61,5.49
142.02,5.38
143.44,5.29
144.87,5.26
146.32,5.26
147.78,5.21
149.26,5.10
150.75,5.04
152.26,5.04
153.78,5.04
155.32,4.99
156.88,4.83
158.44,4.81
160.03,4.81
161.63,4.81
163.24,4.81
164.88,4.81
166.53,4.63
168.19,4.58
169.87,4.58
171.57,4.58
173.29,4.44
175.02,4.35
176.77,4.35
178.54,4.35
180.32,4.28
182.13,4.18
183.95,4.13
185.79,4.13
187.65,4.13
189.52,3.95
191.42,3.90
193.33,3.90
195.27,3.90
197.22,3.90
199.19,3.89
201.18,3.76
203.19,3.67
205.23,3.67
207.28,3.67
209.35,3.67
211.44,3.54
213.56,3.45
215.69,3.44
217.85,3.44
220.03,3.35
222.23,3.25
224.45,3.21
226.70,3.21
228.96,3.21
231.25,3.21
233.57,3.18
235.90,3.00
238.26,2.99
240.64,2.99
243.05,2.98
245.48,2.82
247.93,2.76
250.41,2.76
252.92,2.76
255.45,2.76
258.00,2.76
260.58,2.62
263.19,2.54
265.82,2.53
268.48,2.53
271.16,2.53
273.87,2.45
276.61,2.32
279.38,2.30
282.17,2.30
284.99,2.30
287.84,2.30
290.72,2.23
293.63,2.09
296.57,2.07
299.53,2.07
302.53,2.07
305.55,1.88
308.61,1.85
311.69,1.85
314.81,1.85
317.96,1.85
321.14,1.84
324.35,1.67
327.59,1.62
330.87,1.62
334.18,1.62
337.52,1.49
340.90,1.41
344.30,1.39
347.75,1.39
351.23,1.39
354.74,1.39
358.28,1.28
361.87,1.19
365.49,1.16
369.14,1.16
372.83,1.16
376.56,1.11
380.33,0.96
384.13,0.93
387.97,0.93
391.85,0.93
395.77,0.93
399.73,0.87
403.72,0.75
407.76,0.71
411.84,0.71
415.96,0.71
420.12,0.71
424.32,0.69
428.56,0.54
432.85,0.48
437.18,0.48
441.55,0.48
445.96,0.48
450.42,0.48
454.93,0.30
459.48,0.25
464.07,0.25
468.71,0.25
473.40,0.25
478.13,0.25
482.91,0.07
487.74,0.02
492.62,0.02
497.55,0.02
502.52,0.02
507.55,0.02
512.62,-0.15
517.75,-0.21
522.93,-0.21
528.16,-0.21
533.44,-0.21
538.77,-0.21
544.16,-0.21
549.60,-0.23
555.10,-0.39
560.65,-0.43
566.25,-0.43
571.92,-0.43
577.64,-0.43
583.41,-0.43
589.25,-0.43
595.14,-0.46
601.09,-0.63
607.10,-0.66
613.17,-0.66
619.30,-0.66
625.50,-0.66
631.75,-0.66
638.07,-0.66
644.45,-0.66
650.89,-0.66
657.40,-0.66
663.98,-0.82
670.62,-0.88
677.32,-0.89
684.10,-0.89
690.94,-0.89
697.85,-0.89
704.83,-0.89
711.87,-0.89
718.99,-0.89
726.18,-0.89
733.44,-0.89
740.78,-0.89
748.19,-0.89
755.67,-0.89
763.23,-0.89
770.86,-0.89
778.57,-0.89
786.35,-0.89
794.22,-0.78
802.16,-0.68
810.18,-0.66
818.28,-0.66
826.46,-0.66
834.73,-0.66
843.08,-0.66
851.51,-0.66
860.02,-0.66
868.62,-0.66
877.31,-0.65
886.08,-0.48
894.94,-0.43
903.89,-0.43
912.93,-0.43
922.06,-0.43
931.28,-0.43
940.59,-0.43
950.00,-0.38
959.50,-0.25
969.09,-0.21
978.78,-0.21
988.57,-0.21
998.46,-0.04
1008.44,0.02
1018.53,0.02
1028.71,0.10
1039.00,0.23
1049.39,0.25
1059.88,0.42
1070.48,0.48
1081.19,0.48
1092.00,0.54
1102.92,0.68
1113.95,0.71
1125.09,0.85
1136.34,0.92
1147.70,0.93
1159.18,0.98
1170.77,1.13
1182.48,1.16
1194.30,1.16
1206.25,1.16
1218.31,1.34
1230.49,1.39
1242.80,1.39
1255.22,1.39
1267.78,1.39
1280.45,1.39
1293.26,1.22
1306.19,1.16
1319.25,1.16
1332.45,1.10
1345.77,0.97
1359.23,0.93
1372.82,0.79
1386.55,0.72
1400.41,0.71
1414.42,0.66
1428.56,0.52
1442.85,0.48
1457.28,0.48
1471.85,0.48
1486.57,0.48
1501.43,0.48
1516.45,0.48
1531.61,0.48
1546.93,0.48
1562.40,0.48
1578.02,0.64
1593.80,0.71
1609.74,0.71
1625.84,0.77
1642.10,0.90
1658.52,1.05
1675.10,1.29
1691.85,1.38
1708.77,1.39
1725.86,1.44
1743.12,1.58
1760.55,1.72
1778.15,1.94
1795.94,2.05
1813.90,2.25
1832.03,2.32
1850.36,2.49
1868.86,2.61
1887.55,2.84
1906.42,2.97
1925.49,3.14
1944.74,3.21
1964.19,3.39
1983.83,3.50
2003.67,3.64
2023.71,3.67
2043.94,3.81
2064.38,4.05
2085.03,4.29
2105.88,4.35
2126.94,4.43
2148.20,4.55
2169.69,4.70
2191.38,4.79
2213.30,4.98
2235.43,5.05
2257.78,5.21
2280.36,5.34
2303.17,5.57
2326.20,5.70
2349.46,5.88
2372.95,5.95
2396.68,6.13
2420.65,6.18
2444.86,6.26
2469.31,6.37
2494.00,6.40
2518.94,6.40
2544.13,6.40
2569.57,6.44
2595.27,6.59
2621.22,6.63
2647.43,6.51
2673.90,6.42
2700.64,6.40
2727.65,6.40
2754.93,6.35
2782.48,6.22
2810.30,6.18
2838.40,6.18
2866.79,6.02
2895.46,5.95
2924.41,5.74
2953.65,5.53
2983.19,5.40
3013.02,5.29
3043.15,5.13
3073.58,4.89
3104.32,4.63
3135.36,4.40
3166.72,4.29
3198.38,4.06
3230.37,3.80
3262.67,3.69
3295.30,3.50
3328.25,3.25
3361.53,2.99
3395.15,2.80
3429.10,2.66
3463.39,2.43
3498.03,2.17
3533.01,2.08
3568.34,1.87
3604.02,1.61
3640.06,1.35
3676.46,1.19
3713.22,1.03
3750.36,0.79
3787.86,0.53
3825.74,0.30
3864.00,0.19
3902.64,0.05
3941.66,-0.09
3981.08,-0.19
4020.89,-0.37
4061.10,-0.61
4101.71,-0.71
4142.73,-0.85
4184.15,-0.98
4226.00,-1.10
4268.26,-1.27
4310.94,-1.51
4354.05,-1.60
4397.59,-1.76
4441.56,-1.88
4485.98,-2.00
4530.84,-2.16
4576.15,-2.25
4621.91,-2.44
4668.13,-2.66
4714.81,-2.77
4761.96,-2.91
4809.58,-3.05
4857.67,-3.15
4906.25,-3.33
4955.31,-3.40
5004.87,-3.44
5054.91,-3.58
5105.46,-3.72
5156.52,-3.83
5208.08,-4.00
5260.16,-4.07
5312.77,-4.10
5365.89,-4.26
5419.55,-4.31
5473.75,-4.31
5528.49,-4.43
5583.77,-4.52
5639.61,-4.54
5696.00,-4.54
5752.96,-4.59
5810.49,-4.73
5868.60,-4.76
5927.28,-4.76
5986.56,-4.76
6046.42,-4.76
6106.89,-4.76
6167.96,-4.76
6229.64,-4.76
6291.93,-4.76
6354.85,-4.62
6418.40,-4.37
6482.58,-4.29
6547.41,-4.10
6612.88,-3.87
6679.01,-3.42
6745.80,-2.86
6813.26,-2.25
6881.39,-1.69
6950.21,-1.26
7019.71,-0.90
7089.91,-0.61
7160.81,-0.46
7232.41,-0.57
7304.74,-0.65
7377.79,-0.84
7451.56,-0.93
7526.08,-1.14
7601.34,-1.40
7677.35,-1.66
7754.13,-1.78
7831.67,-1.97
7909.98,-2.04
7989.08,-2.21
8068.98,-2.33
8149.67,-2.55
8231.16,-2.69
8313.47,-2.86
8396.61,-2.93
8480.57,-3.12
8565.38,-3.22
8651.03,-3.44
8737.54,-3.59
8824.92,-3.76
8913.17,-3.84
9002.30,-4.03
9092.32,-4.12
9183.25,-4.27
9275.08,-4.40
9367.83,-4.62
9461.51,-4.74
9556.12,-4.93
9651.68,-5.00
9748.20,-5.17
9845.68,-5.22
9944.14,-5.31
10043.58,-5.43
10144.02,-5.60
10245.46,-5.67
10347.91,-5.68
10451.39,-5.68
10555.91,-5.68
10661.46,-5.68
10768.08,-5.68
10875.76,-5.68
10984.52,-5.68
11094.36,-5.64
11205.31,-5.43
11317.36,-5.25
11430.53,-5.10
11544.84,-5.01
11660.29,-4.83
11776.89,-4.76
11894.66,-4.54
12013.60,-4.28
12133.74,-4.02
12255.08,-3.76
12377.63,-3.50
12501.41,-3.41
12626.42,-3.22
12752.68,-3.12
12880.21,-2.98
13009.01,-2.94
13139.10,-3.13
13270.49,-3.49
13403.20,-3.98
13537.23,-4.59
13672.60,-5.20
13809.33,-5.85
13947.42,-6.47
14086.90,-7.04
14227.77,-7.74
14370.04,-8.42
14513.74,-9.16
14658.88,-9.81
14805.47,-10.35
14953.52,-10.87
15103.06,-11.40
15254.09,-12.01
15406.63,-12.38
15560.70,-12.83
15716.30,-13.25
15873.47,-13.70
16032.20,-14.08
16192.52,-14.52
16354.45,-14.76
16517.99,-15.00
16683.17,-15.21
16850.01,-15.25
17018.51,-15.36
17188.69,-15.59
17360.58,-15.85
17534.18,-15.93
17709.53,-15.93
17886.62,-15.93
18065.49,-15.84
18246.14,-15.73
18428.60,-15.70
18612.89,-15.62
18799.02,-15.30
18987.01,-15.02
19176.88,-14.76
19368.65,-14.45
19562.33,-14.07
19757.96,-13.53
19955.54,-12.97
