frequency,raw,error,smoothed,error_smoothed,equalization,parametric_eq,equalized_raw,equalized_smoothed,target
20,-29.56,-28.51,-28.75,-27.70,6.00,2.66,-23.56,-22.75,-1.05
21,-27.00,-25.95,-27.24,-26.19,6.00,3.05,-21.00,-21.24,-1.05
22,-25.30,-24.25,-25.81,-24.76,6.00,3.48,-19.30,-19.81,-1.05
23,-24.20,-23.15,-24.44,-23.39,6.00,3.94,-18.20,-18.44,-1.05
24,-22.81,-21.75,-23.15,-22.09,6.00,4.43,-16.81,-17.15,-1.06
25,-21.78,-20.72,-21.93,-20.87,6.00,4.93,-15.78,-15.93,-1.06
26,-20.71,-19.65,-20.79,-19.72,6.00,5.43,-14.71,-14.79,-1.06
27,-19.60,-18.53,-19.72,-18.65,6.00,5.92,-13.60,-13.72,-1.07
28,-18.71,-17.64,-18.72,-17.65,6.00,6.35,-12.71,-12.72,-1.07
29,-17.90,-16.82,-17.79,-16.72,6.00,6.71,-11.90,-11.79,-1.08
30,-17.02,-15.94,-16.93,-15.85,6.00,6.98,-11.02,-10.93,-1.08
31,-16.20,-15.11,-16.14,-15.05,6.00,7.14,-10.20,-10.14,-1.09
32,-15.43,-14.34,-15.40,-14.31,6.00,7.19,-9.43,-9.40,-1.09
33,-14.72,-13.62,-14.72,-13.62,6.00,7.16,-8.72,-8.72,-1.10
34,-14.09,-12.99,-14.08,-12.98,6.00,7.05,-8.09,-8.08,-1.10
35,-13.46,-12.35,-13.49,-12.38,6.00,6.89,-7.46,-7.49,-1.11
36,-12.89,-11.77,-12.94,-11.82,6.00,6.72,-6.89,-6.94,-1.12
37,-12.43,-11.30,-12.43,-11.30,6.00,6.53,-6.43,-6.43,-1.13
38,-11.96,-10.82,-11.96,-10.82,6.00,6.36,-5.96,-5.96,-1.14
39,-11.50,-10.35,-11.51,-10.36,6.00,6.19,-5.50,-5.51,-1.15
40,-11.13,-9.97,-11.09,-9.93,6.00,6.05,-5.13,-5.09,-1.16
41,-10.77,-9.60,-10.70,-9.53,6.00,5.94,-4.77,-4.70,-1.17
42,-10.42,-9.24,-10.34,-9.16,6.00,5.85,-4.42,-4.34,-1.18
43,-10.12,-8.92,-10.00,-8.81,6.00,5.78,-4.12,-4.00,-1.20
44,-9.78,-8.57,-9.69,-8.48,6.00,5.74,-3.78,-3.69,-1.21
45,-9.39,-8.17,-9.39,-8.17,6.00,5.72,-3.39,-3.39,-1.22
46,-9.04,-7.80,-9.13,-7.89,6.00,5.73,-3.04,-3.13,-1.24
47,-8.80,-7.54,-8.89,-7.63,6.00,5.75,-2.80,-2.89,-1.26
48,-8.64,-7.37,-8.68,-7.40,6.00,5.79,-2.64,-2.68,-1.27
49,-8.58,-7.29,-8.49,-7.20,6.00,5.85,-2.58,-2.49,-1.29
50,-8.37,-7.06,-8.34,-7.03,6.00,5.91,-2.37,-2.34,-1.31
51,-8.18,-6.85,-8.22,-6.89,6.00,5.99,-2.18,-2.22,-1.33
52,-8.13,-6.78,-8.13,-6.78,6.00,6.07,-2.13,-2.13,-1.35
53,-8.04,-6.67,-8.08,-6.71,6.00,6.16,-2.04,-2.08,-1.37
54,-7.97,-6.58,-8.05,-6.66,6.00,6.24,-1.97,-2.05,-1.39
55,-7.81,-6.39,-8.06,-6.64,6.00,6.33,-1.81,-2.06,-1.42
56,-7.95,-6.51,-8.09,-6.64,6.00,6.40,-1.95,-2.09,-1.44
57,-8.06,-6.59,-8.13,-6.66,6.00,6.47,-2.06,-2.13,-1.47
58,-8.07,-6.58,-8.19,-6.70,6.00,6.52,-2.07,-2.19,-1.49
59,-8.51,-6.99,-8.26,-6.74,6.00,6.55,-2.51,-2.26,-1.52
60,-8.59,-7.04,-8.33,-6.78,6.00,6.57,-2.59,-2.33,-1.55
61,-8.51,-6.93,-8.40,-6.82,6.00,6.57,-2.51,-2.40,-1.58
62,-8.51,-6.90,-8.46,-6.85,6.00,6.56,-2.51,-2.46,-1.61
63,-8.48,-6.84,-8.51,-6.87,6.00,6.52,-2.48,-2.51,-1.64
64,-8.55,-6.88,-8.55,-6.88,6.00,6.47,-2.55,-2.55,-1.67
65,-8.61,-6.91,-8.56,-6.86,6.00,6.40,-2.61,-2.56,-1.70
66,-8.58,-6.84,-8.56,-6.83,6.00,6.32,-2.58,-2.56,-1.74
67,-8.55,-6.78,-8.55,-6.78,6.00,6.22,-2.55,-2.55,-1.77
68,-8.50,-6.70,-8.51,-6.71,6.00,6.11,-2.50,-2.51,-1.80
69,-8.48,-6.64,-8.46,-6.62,6.00,6.00,-2.48,-2.46,-1.84
70,-8.45,-6.58,-8.40,-6.52,6.00,5.88,-2.45,-2.40,-1.87
71,-8.36,-6.45,-8.32,-6.41,6.00,5.75,-2.36,-2.32,-1.91
72,-8.24,-6.29,-8.23,-6.28,6.00,5.62,-2.24,-2.23,-1.95
73,-8.10,-6.11,-8.13,-6.15,5.97,5.49,-2.13,-2.17,-1.99
74,-8.02,-6.00,-8.03,-6.00,5.90,5.36,-2.12,-2.13,-2.02
75,-7.92,-5.86,-7.92,-5.85,5.80,5.23,-2.12,-2.12,-2.06
76,-7.79,-5.69,-7.80,-5.70,5.67,5.11,-2.12,-2.13,-2.10
77,-7.75,-5.61,-7.69,-5.55,5.54,4.99,-2.21,-2.15,-2.14
78,-7.59,-5.41,-7.57,-5.39,5.39,4.87,-2.20,-2.18,-2.18
79,-7.38,-5.16,-7.46,-5.24,5.24,4.75,-2.14,-2.22,-2.22
80,-7.29,-5.03,-7.35,-5.08,5.08,4.64,-2.21,-2.26,-2.26
81,-7.22,-4.92,-7.24,-4.94,4.94,4.54,-2.28,-2.30,-2.30
82,-7.12,-4.77,-7.14,-4.80,4.80,4.44,-2.32,-2.35,-2.35
83,-7.04,-4.65,-7.05,-4.66,4.66,4.34,-2.38,-2.39,-2.39
84,-6.99,-4.56,-6.96,-4.53,4.53,4.25,-2.46,-2.43,-2.43
85,-6.91,-4.44,-6.88,-4.41,4.41,4.17,-2.50,-2.47,-2.47
86,-6.81,-4.30,-6.81,-4.30,4.30,4.09,-2.51,-2.51,-2.51
87,-6.72,-4.17,-6.74,-4.19,4.19,4.01,-2.53,-2.55,-2.55
88,-6.68,-4.08,-6.69,-4.09,4.09,3.94,-2.59,-2.59,-2.60
89,-6.61,-3.97,-6.63,-4.00,4.00,3.88,-2.61,-2.64,-2.64
90,-6.58,-3.90,-6.59,-3.91,3.91,3.82,-2.67,-2.68,-2.68
91,-6.57,-3.85,-6.55,-3.83,3.83,3.76,-2.74,-2.72,-2.72
92,-6.52,-3.76,-6.52,-3.76,3.76,3.70,-2.76,-2.76,-2.76
93,-6.50,-3.70,-6.49,-3.69,3.69,3.66,-2.81,-2.80,-2.80
94,-6.46,-3.62,-6.47,-3.63,3.63,3.61,-2.83,-2.84,-2.84
95,-6.44,-3.56,-6.46,-3.57,3.57,3.57,-2.87,-2.88,-2.88
96,-6.43,-3.51,-6.44,-3.52,3.52,3.53,-2.91,-2.92,-2.92
97,-6.43,-3.47,-6.44,-3.47,3.47,3.49,-2.96,-2.96,-2.96
98,-6.43,-3.43,-6.43,-3.43,3.43,3.46,-3.00,-3.00,-3.00
99,-6.41,-3.37,-6.43,-3.39,3.39,3.43,-3.02,-3.05,-3.04
100,-6.44,-3.36,-6.43,-3.35,3.35,3.40,-3.09,-3.09,-3.08
101,-6.48,-3.36,-6.44,-3.31,3.31,3.38,-3.17,-3.13,-3.12
102,-6.48,-3.32,-6.44,-3.27,3.27,3.36,-3.21,-3.17,-3.16
104,-6.44,-3.21,-6.44,-3.23,3.23,3.32,-3.21,-3.21,-3.23
105,-6.45,-3.18,-6.44,-3.19,3.19,3.30,-3.26,-3.25,-3.27
106,-6.47,-3.17,-6.45,-3.16,3.16,3.29,-3.31,-3.29,-3.30
107,-6.46,-3.12,-6.45,-3.12,3.12,3.27,-3.34,-3.33,-3.34
108,-6.46,-3.09,-6.46,-3.09,3.09,3.26,-3.37,-3.37,-3.37
109,-6.45,-3.04,-6.47,-3.06,3.06,3.25,-3.39,-3.40,-3.41
110,-6.45,-3.01,-6.47,-3.03,3.03,3.24,-3.42,-3.44,-3.44
111,-6.45,-2.98,-6.49,-3.01,3.01,3.23,-3.44,-3.48,-3.47
112,-6.48,-2.97,-6.50,-2.99,2.99,3.22,-3.49,-3.51,-3.51
113,-6.51,-2.97,-6.51,-2.97,2.97,3.21,-3.54,-3.55,-3.54
114,-6.54,-2.97,-6.53,-2.95,2.95,3.20,-3.59,-3.58,-3.57
115,-6.55,-2.95,-6.55,-2.93,2.93,3.19,-3.62,-3.62,-3.60
117,-6.60,-2.94,-6.57,-2.92,2.92,3.18,-3.68,-3.65,-3.66
118,-6.60,-2.91,-6.59,-2.90,2.90,3.17,-3.70,-3.68,-3.69
119,-6.61,-2.89,-6.61,-2.89,2.89,3.16,-3.72,-3.72,-3.72
120,-6.65,-2.90,-6.64,-2.88,2.88,3.15,-3.77,-3.75,-3.75
121,-6.68,-2.90,-6.66,-2.87,2.87,3.14,-3.81,-3.79,-3.78
123,-6.69,-2.86,-6.69,-2.87,2.87,3.13,-3.82,-3.82,-3.83
124,-6.68,-2.82,-6.71,-2.86,2.86,3.12,-3.82,-3.85,-3.86
125,-6.71,-2.83,-6.74,-2.86,2.86,3.11,-3.85,-3.88,-3.88
126,-6.73,-2.82,-6.77,-2.86,2.86,3.10,-3.87,-3.91,-3.91
128,-6.81,-2.85,-6.80,-2.86,2.86,3.07,-3.95,-3.95,-3.96
129,-6.85,-2.87,-6.84,-2.86,2.86,3.06,-3.99,-3.98,-3.98
130,-6.90,-2.90,-6.87,-2.86,2.86,3.05,-4.04,-4.01,-4.00
131,-6.92,-2.90,-6.90,-2.87,2.87,3.04,-4.05,-4.03,-4.02
133,-6.97,-2.90,-6.94,-2.87,2.87,3.02,-4.10,-4.06,-4.07
134,-6.98,-2.89,-6.97,-2.88,2.88,3.00,-4.10,-4.09,-4.09
135,-6.99,-2.88,-7.01,-2.89,2.89,2.99,-4.10,-4.12,-4.11
137,-7.02,-2.87,-7.05,-2.90,2.90,2.97,-4.12,-4.14,-4.15
138,-7.05,-2.88,-7.08,-2.91,2.91,2.95,-4.14,-4.17,-4.17
140,-7.12,-2.91,-7.12,-2.92,2.92,2.93,-4.20,-4.20,-4.21
141,-7.16,-2.94,-7.16,-2.94,2.94,2.92,-4.22,-4.22,-4.22
142,-7.20,-2.96,-7.20,-2.95,2.95,2.91,-4.25,-4.25,-4.24
144,-7.26,-2.98,-7.24,-2.97,2.97,2.89,-4.29,-4.27,-4.28
145,-7.29,-3.00,-7.28,-2.98,2.98,2.88,-4.31,-4.30,-4.29
147,-7.34,-3.02,-7.32,-3.00,3.00,2.86,-4.34,-4.32,-4.32
148,-7.36,-3.02,-7.36,-3.02,3.02,2.85,-4.34,-4.34,-4.34
150,-7.39,-3.02,-7.40,-3.04,3.04,2.83,-4.35,-4.36,-4.37
151,-7.41,-3.03,-7.44,-3.05,3.05,2.83,-4.36,-4.38,-4.38
153,-7.46,-3.05,-7.48,-3.07,3.07,2.81,-4.39,-4.41,-4.41
154,-7.50,-3.08,-7.52,-3.09,3.09,2.81,-4.41,-4.43,-4.42
156,-7.57,-3.12,-7.56,-3.11,3.11,2.80,-4.46,-4.44,-4.45
157,-7.60,-3.14,-7.59,-3.13,3.13,2.80,-4.47,-4.46,-4.46
159,-7.66,-3.18,-7.63,-3.15,3.15,2.79,-4.51,-4.48,-4.48
160,-7.68,-3.18,-7.67,-3.17,3.17,2.79,-4.51,-4.50,-4.50
162,-7.71,-3.19,-7.70,-3.18,3.18,2.80,-4.53,-4.52,-4.52
164,-7.73,-3.19,-7.74,-3.20,3.20,2.80,-4.53,-4.53,-4.54
165,-7.75,-3.20,-7.77,-3.22,3.22,2.80,-4.53,-4.55,-4.55
167,-7.77,-3.20,-7.80,-3.23,3.23,2.81,-4.54,-4.57,-4.57
169,-7.82,-3.23,-7.82,-3.24,3.24,2.82,-4.58,-4.58,-4.59
170,-7.83,-3.23,-7.85,-3.25,3.25,2.83,-4.58,-4.60,-4.60
172,-7.87,-3.26,-7.87,-3.25,3.25,2.84,-4.62,-4.61,-4.61
174,-7.90,-3.27,-7.88,-3.26,3.26,2.86,-4.64,-4.63,-4.63
175,-7.90,-3.26,-7.90,-3.25,3.25,2.87,-4.65,-4.64,-4.64
177,-7.93,-3.28,-7.90,-3.25,3.25,2.90,-4.68,-4.66,-4.65
179,-7.95,-3.28,-7.91,-3.24,3.24,2.92,-4.71,-4.67,-4.67
181,-7.95,-3.27,-7.91,-3.23,3.23,2.95,-4.72,-4.68,-4.68
183,-7.94,-3.24,-7.91,-3.22,3.22,2.98,-4.72,-4.69,-4.70
184,-7.93,-3.23,-7.91,-3.20,3.20,2.99,-4.73,-4.71,-4.70
186,-7.89,-3.17,-7.90,-3.19,3.19,3.03,-4.70,-4.72,-4.72
188,-7.86,-3.13,-7.90,-3.17,3.17,3.06,-4.69,-4.73,-4.73
190,-7.85,-3.11,-7.90,-3.16,3.16,3.10,-4.69,-4.74,-4.74
192,-7.86,-3.11,-7.90,-3.15,3.15,3.14,-4.71,-4.75,-4.75
194,-7.87,-3.11,-7.91,-3.15,3.15,3.18,-4.72,-4.76,-4.76
196,-7.89,-3.12,-7.92,-3.14,3.14,3.22,-4.75,-4.77,-4.77
198,-7.92,-3.14,-7.93,-3.15,3.15,3.26,-4.77,-4.78,-4.78
200,-7.95,-3.16,-7.94,-3.15,3.15,3.30,-4.80,-4.79,-4.79
202,-7.98,-3.18,-7.95,-3.16,3.16,3.34,-4.82,-4.80,-4.80
204,-8.00,-3.19,-7.97,-3.16,3.16,3.39,-4.84,-4.81,-4.81
206,-8.01,-3.19,-7.99,-3.17,3.17,3.43,-4.84,-4.82,-4.82
208,-8.03,-3.21,-8.01,-3.18,3.18,3.48,-4.85,-4.82,-4.82
210,-8.03,-3.20,-8.02,-3.19,3.19,3.52,-4.84,-4.83,-4.83
212,-8.05,-3.21,-8.04,-3.20,3.20,3.56,-4.85,-4.84,-4.84
214,-8.05,-3.21,-8.06,-3.22,3.22,3.60,-4.83,-4.85,-4.84
216,-8.06,-3.21,-8.08,-3.23,3.23,3.65,-4.83,-4.85,-4.85
218,-8.07,-3.21,-8.10,-3.24,3.24,3.68,-4.83,-4.86,-4.86
221,-8.09,-3.22,-8.12,-3.25,3.25,3.74,-4.84,-4.86,-4.87
223,-8.12,-3.25,-8.14,-3.27,3.27,3.78,-4.85,-4.87,-4.87
225,-8.15,-3.27,-8.16,-3.28,3.28,3.81,-4.87,-4.88,-4.88
227,-8.18,-3.30,-8.17,-3.29,3.29,3.84,-4.89,-4.88,-4.88
229,-8.20,-3.31,-8.19,-3.30,3.30,3.87,-4.90,-4.89,-4.89
232,-8.23,-3.34,-8.21,-3.31,3.31,3.90,-4.92,-4.89,-4.89
234,-8.25,-3.35,-8.22,-3.32,3.32,3.92,-4.93,-4.90,-4.90
236,-8.25,-3.35,-8.23,-3.33,3.33,3.94,-4.92,-4.90,-4.90
239,-8.25,-3.34,-8.24,-3.33,3.33,3.96,-4.92,-4.91,-4.91
241,-8.25,-3.34,-8.25,-3.33,3.33,3.96,-4.92,-4.91,-4.91
244,-8.25,-3.33,-8.25,-3.33,3.33,3.97,-4.92,-4.92,-4.92
246,-8.25,-3.33,-8.25,-3.33,3.33,3.97,-4.92,-4.92,-4.92
248,-8.24,-3.31,-8.25,-3.32,3.32,3.96,-4.92,-4.93,-4.93
251,-8.24,-3.31,-8.25,-3.32,3.32,3.95,-4.92,-4.93,-4.93
253,-8.24,-3.30,-8.24,-3.31,3.31,3.94,-4.93,-4.94,-4.94
256,-8.23,-3.29,-8.24,-3.30,3.30,3.91,-4.93,-4.94,-4.94
259,-8.23,-3.29,-8.23,-3.29,3.29,3.88,-4.94,-4.94,-4.94
261,-8.23,-3.28,-8.23,-3.28,3.28,3.85,-4.95,-4.95,-4.95
264,-8.22,-3.27,-8.22,-3.27,3.27,3.81,-4.95,-4.95,-4.95
266,-8.22,-3.27,-8.22,-3.26,3.26,3.78,-4.96,-4.95,-4.95
269,-8.21,-3.25,-8.21,-3.25,3.25,3.73,-4.96,-4.96,-4.96
272,-8.21,-3.25,-8.21,-3.25,3.25,3.67,-4.96,-4.96,-4.96
274,-8.20,-3.24,-8.20,-3.24,3.24,3.63,-4.96,-4.96,-4.96
277,-8.20,-3.23,-8.20,-3.23,3.23,3.57,-4.97,-4.97,-4.97
280,-8.19,-3.22,-8.19,-3.22,3.22,3.50,-4.97,-4.97,-4.97
283,-8.19,-3.22,-8.19,-3.22,3.22,3.43,-4.97,-4.97,-4.97
286,-8.18,-3.21,-8.19,-3.21,3.21,3.36,-4.97,-4.97,-4.97
288,-8.18,-3.20,-8.18,-3.21,3.21,3.31,-4.97,-4.98,-4.98
291,-8.17,-3.19,-8.18,-3.20,3.20,3.24,-4.97,-4.98,-4.98
294,-8.17,-3.19,-8.18,-3.20,3.20,3.17,-4.97,-4.98,-4.98
297,-8.17,-3.19,-8.18,-3.20,3.20,3.10,-4.97,-4.98,-4.98
300,-8.18,-3.19,-8.18,-3.19,3.19,3.02,-4.99,-4.99,-4.99
303,-8.18,-3.19,-8.17,-3.18,3.18,2.95,-5.00,-4.99,-4.99
306,-8.18,-3.19,-8.17,-3.18,3.18,2.88,-5.00,-4.99,-4.99
309,-8.17,-3.18,-8.16,-3.17,3.17,2.81,-5.00,-4.99,-4.99
312,-8.16,-3.17,-8.15,-3.16,3.16,2.74,-5.00,-4.99,-4.99
316,-8.14,-3.15,-8.14,-3.15,3.15,2.64,-4.99,-4.99,-4.99
319,-8.13,-3.13,-8.13,-3.14,3.14,2.58,-4.99,-5.00,-5.00
322,-8.12,-3.12,-8.12,-3.12,3.12,2.51,-5.00,-5.00,-5.00
325,-8.10,-3.10,-8.10,-3.10,3.10,2.45,-5.00,-5.00,-5.00
328,-8.08,-3.08,-8.08,-3.08,3.08,2.38,-5.00,-5.00,-5.00
332,-8.06,-3.06,-8.06,-3.06,3.06,2.30,-5.00,-5.00,-5.00
335,-8.04,-3.04,-8.04,-3.04,3.04,2.24,-5.00,-5.00,-5.00
338,-8.02,-3.02,-8.02,-3.01,3.01,2.19,-5.01,-5.00,-5.00
342,-7.99,-2.98,-7.99,-2.98,2.98,2.11,-5.01,-5.01,-5.01
345,-7.97,-2.96,-7.96,-2.95,2.95,2.06,-5.02,-5.01,-5.01
349,-7.93,-2.92,-7.93,-2.92,2.92,1.99,-5.01,-5.01,-5.01
352,-7.90,-2.89,-7.90,-2.89,2.89,1.94,-5.01,-5.01,-5.01
356,-7.86,-2.85,-7.86,-2.85,2.85,1.88,-5.01,-5.01,-5.01
359,-7.83,-2.82,-7.83,-2.81,2.81,1.83,-5.02,-5.01,-5.01
363,-7.79,-2.78,-7.79,-2.77,2.77,1.77,-5.02,-5.01,-5.01
366,-7.75,-2.74,-7.75,-2.73,2.73,1.73,-5.02,-5.02,-5.01
370,-7.71,-2.69,-7.71,-2.69,2.69,1.67,-5.02,-5.02,-5.02
374,-7.66,-2.64,-7.67,-2.65,2.65,1.62,-5.01,-5.02,-5.02
377,-7.63,-2.61,-7.62,-2.60,2.60,1.58,-5.03,-5.02,-5.02
381,-7.58,-2.56,-7.58,-2.56,2.56,1.53,-5.02,-5.02,-5.02
385,-7.54,-2.52,-7.54,-2.51,2.51,1.49,-5.03,-5.02,-5.02
389,-7.50,-2.48,-7.50,-2.47,2.47,1.44,-5.03,-5.02,-5.02
393,-7.46,-2.44,-7.45,-2.43,2.43,1.40,-5.03,-5.03,-5.02
397,-7.41,-2.38,-7.42,-2.39,2.39,1.35,-5.02,-5.03,-5.03
401,-7.36,-2.33,-7.38,-2.35,2.35,1.31,-5.01,-5.03,-5.03
405,-7.32,-2.29,-7.34,-2.31,2.31,1.28,-5.01,-5.03,-5.03
409,-7.28,-2.25,-7.31,-2.28,2.28,1.24,-5.00,-5.03,-5.03
413,-7.25,-2.22,-7.28,-2.25,2.25,1.20,-5.00,-5.03,-5.03
417,-7.22,-2.19,-7.24,-2.21,2.21,1.17,-5.01,-5.03,-5.03
421,-7.19,-2.16,-7.21,-2.18,2.18,1.13,-5.01,-5.03,-5.03
425,-7.17,-2.14,-7.17,-2.14,2.14,1.10,-5.03,-5.03,-5.03
430,-7.13,-2.10,-7.13,-2.10,2.10,1.06,-5.03,-5.03,-5.03
434,-7.11,-2.08,-7.09,-2.06,2.06,1.03,-5.05,-5.03,-5.03
438,-7.06,-2.03,-7.03,-2.01,2.01,1.00,-5.05,-5.03,-5.03
443,-7.01,-1.99,-6.97,-1.95,1.95,0.96,-5.06,-5.02,-5.02
447,-6.96,-1.94,-6.91,-1.89,1.89,0.94,-5.07,-5.02,-5.02
451,-6.89,-1.87,-6.83,-1.82,1.82,0.91,-5.07,-5.02,-5.02
456,-6.78,-1.77,-6.75,-1.74,1.74,0.87,-5.04,-5.01,-5.01
460,-6.68,-1.68,-6.66,-1.66,1.66,0.85,-5.02,-5.00,-5.00
465,-6.55,-1.55,-6.57,-1.57,1.57,0.81,-4.98,-5.00,-5.00
470,-6.42,-1.43,-6.47,-1.48,1.48,0.78,-4.94,-4.99,-4.99
474,-6.33,-1.35,-6.36,-1.38,1.38,0.76,-4.95,-4.98,-4.98
479,-6.22,-1.25,-6.26,-1.29,1.29,0.72,-4.93,-4.97,-4.97
484,-6.13,-1.17,-6.15,-1.20,1.20,0.69,-4.93,-4.96,-4.96
489,-6.04,-1.09,-6.05,-1.10,1.10,0.66,-4.94,-4.95,-4.95
494,-5.95,-1.02,-5.94,-1.01,1.01,0.63,-4.94,-4.93,-4.93
499,-5.85,-0.93,-5.84,-0.92,0.92,0.60,-4.93,-4.92,-4.92
504,-5.75,-0.85,-5.73,-0.83,0.83,0.57,-4.92,-4.90,-4.90
509,-5.64,-0.75,-5.62,-0.74,0.74,0.53,-4.90,-4.89,-4.89
514,-5.52,-0.65,-5.52,-0.65,0.65,0.50,-4.87,-4.87,-4.87
519,-5.40,-0.55,-5.41,-0.56,0.56,0.47,-4.84,-4.85,-4.85
524,-5.30,-0.47,-5.31,-0.48,0.48,0.44,-4.82,-4.83,-4.83
529,-5.19,-0.38,-5.20,-0.39,0.39,0.41,-4.80,-4.81,-4.81
535,-5.07,-0.28,-5.10,-0.30,0.30,0.37,-4.77,-4.79,-4.79
540,-4.97,-0.20,-4.99,-0.22,0.22,0.34,-4.75,-4.77,-4.77
545,-4.88,-0.13,-4.88,-0.13,0.13,0.31,-4.75,-4.75,-4.75
551,-4.79,-0.07,-4.77,-0.05,0.05,0.27,-4.74,-4.72,-4.72
556,-4.69,0.01,-4.65,0.04,-0.04,0.24,-4.73,-4.70,-4.70
562,-4.57,0.10,-4.54,0.13,-0.13,0.21,-4.70,-4.67,-4.67
568,-4.44,0.20,-4.43,0.22,-0.22,0.17,-4.66,-4.64,-4.64
573,-4.32,0.30,-4.31,0.31,-0.31,0.14,-4.63,-4.62,-4.62
579,-4.18,0.41,-4.19,0.40,-0.40,0.10,-4.58,-4.59,-4.59
585,-4.03,0.53,-4.07,0.49,-0.49,0.06,-4.52,-4.56,-4.56
591,-3.91,0.62,-3.95,0.58,-0.58,0.03,-4.49,-4.53,-4.53
596,-3.82,0.68,-3.83,0.67,-0.67,-0.00,-4.49,-4.50,-4.50
602,-3.72,0.75,-3.71,0.76,-0.76,-0.04,-4.48,-4.47,-4.47
608,-3.61,0.83,-3.59,0.85,-0.85,-0.08,-4.46,-4.44,-4.44
615,-3.48,0.93,-3.47,0.94,-0.94,-0.12,-4.42,-4.41,-4.41
621,-3.36,1.01,-3.35,1.03,-1.03,-0.16,-4.39,-4.37,-4.37
627,-3.23,1.11,-3.22,1.12,-1.12,-0.19,-4.35,-4.34,-4.34
633,-3.10,1.21,-3.10,1.21,-1.21,-0.23,-4.31,-4.31,-4.31
639,-2.97,1.30,-2.97,1.30,-1.30,-0.26,-4.27,-4.27,-4.27
646,-2.83,1.41,-2.85,1.39,-1.39,-0.30,-4.22,-4.24,-4.24
652,-2.71,1.49,-2.72,1.48,-1.48,-0.34,-4.19,-4.20,-4.20
659,-2.57,1.60,-2.59,1.58,-1.58,-0.38,-4.15,-4.17,-4.17
665,-2.47,1.66,-2.46,1.67,-1.67,-0.42,-4.14,-4.13,-4.13
672,-2.34,1.76,-2.33,1.77,-1.77,-0.46,-4.11,-4.10,-4.10
679,-2.20,1.86,-2.20,1.86,-1.86,-0.50,-4.06,-4.06,-4.06
686,-2.06,1.96,-2.06,1.96,-1.96,-0.54,-4.02,-4.02,-4.02
692,-1.95,2.03,-1.92,2.06,-2.06,-0.58,-4.01,-3.98,-3.98
699,-1.81,2.14,-1.79,2.16,-2.16,-0.62,-3.97,-3.95,-3.95
706,-1.66,2.25,-1.65,2.26,-2.26,-0.66,-3.92,-3.91,-3.91
713,-1.53,2.34,-1.51,2.37,-2.37,-0.70,-3.90,-3.87,-3.87
721,-1.38,2.45,-1.37,2.47,-2.47,-0.75,-3.85,-3.83,-3.83
728,-1.24,2.56,-1.23,2.57,-2.57,-0.79,-3.81,-3.80,-3.80
735,-1.10,2.66,-1.09,2.66,-2.66,-0.83,-3.76,-3.76,-3.76
742,-0.96,2.76,-0.96,2.76,-2.76,-0.87,-3.72,-3.72,-3.72
750,-0.82,2.86,-0.84,2.84,-2.84,-0.92,-3.66,-3.68,-3.68
757,-0.70,2.94,-0.72,2.92,-2.92,-0.96,-3.62,-3.64,-3.64
765,-0.58,3.03,-0.62,2.99,-2.99,-1.01,-3.57,-3.61,-3.61
773,-0.48,3.09,-0.52,3.05,-3.05,-1.05,-3.53,-3.57,-3.57
780,-0.41,3.12,-0.43,3.11,-3.11,-1.09,-3.52,-3.53,-3.53
788,-0.32,3.18,-0.35,3.15,-3.15,-1.14,-3.47,-3.50,-3.50
796,-0.26,3.20,-0.28,3.19,-3.19,-1.19,-3.45,-3.46,-3.46
804,-0.21,3.22,-0.22,3.21,-3.21,-1.24,-3.42,-3.43,-3.43
812,-0.17,3.22,-0.16,3.23,-3.23,-1.28,-3.40,-3.40,-3.39
820,-0.14,3.22,-0.12,3.25,-3.25,-1.33,-3.39,-3.36,-3.36
828,-0.11,3.22,-0.08,3.25,-3.25,-1.38,-3.36,-3.33,-3.33
837,-0.07,3.23,-0.04,3.25,-3.25,-1.43,-3.32,-3.30,-3.30
845,-0.04,3.23,-0.01,3.25,-3.25,-1.48,-3.29,-3.27,-3.27
853,0.00,3.23,0.01,3.24,-3.24,-1.53,-3.24,-3.24,-3.23
862,0.04,3.24,0.03,3.23,-3.23,-1.58,-3.19,-3.21,-3.20
871,0.07,3.25,0.04,3.22,-3.22,-1.63,-3.15,-3.18,-3.18
879,0.08,3.23,0.05,3.20,-3.20,-1.68,-3.12,-3.15,-3.15
888,0.08,3.20,0.06,3.17,-3.17,-1.73,-3.09,-3.12,-3.12
897,0.07,3.16,0.06,3.15,-3.15,-1.78,-3.08,-3.09,-3.09
906,0.07,3.13,0.06,3.12,-3.12,-1.83,-3.05,-3.06,-3.06
915,0.05,3.08,0.05,3.09,-3.09,-1.88,-3.04,-3.03,-3.03
924,0.04,3.05,0.04,3.05,-3.05,-1.93,-3.01,-3.01,-3.01
933,0.02,3.00,0.04,3.02,-3.02,-1.98,-3.00,-2.98,-2.98
943,0.01,2.96,0.03,2.98,-2.98,-2.04,-2.97,-2.95,-2.95
952,-0.01,2.92,0.02,2.95,-2.95,-2.09,-2.96,-2.93,-2.93
962,-0.02,2.88,0.01,2.91,-2.91,-2.14,-2.93,-2.90,-2.90
971,-0.02,2.85,0.00,2.88,-2.88,-2.19,-2.90,-2.87,-2.87
981,-0.01,2.84,-0.00,2.84,-2.84,-2.24,-2.85,-2.85,-2.85
991,0.00,2.82,-0.01,2.81,-2.81,-2.29,-2.81,-2.82,-2.82
1001,0.00,2.79,-0.02,2.77,-2.77,-2.34,-2.77,-2.79,-2.79
1011,0.00,2.77,-0.03,2.74,-2.74,-2.39,-2.74,-2.77,-2.77
1021,-0.01,2.73,-0.03,2.70,-2.70,-2.45,-2.71,-2.74,-2.74
1031,-0.03,2.68,-0.04,2.67,-2.67,-2.50,-2.70,-2.71,-2.71
1041,-0.05,2.63,-0.05,2.63,-2.63,-2.55,-2.68,-2.68,-2.68
1052,-0.07,2.59,-0.06,2.59,-2.59,-2.60,-2.66,-2.66,-2.66
1062,-0.08,2.55,-0.07,2.55,-2.55,-2.65,-2.63,-2.63,-2.63
1073,-0.09,2.51,-0.08,2.51,-2.51,-2.71,-2.60,-2.60,-2.60
1084,-0.10,2.47,-0.09,2.47,-2.47,-2.76,-2.57,-2.57,-2.57
1094,-0.10,2.44,-0.10,2.44,-2.44,-2.81,-2.54,-2.54,-2.54
1105,-0.11,2.40,-0.11,2.40,-2.40,-2.87,-2.51,-2.51,-2.51
1116,-0.12,2.36,-0.12,2.36,-2.36,-2.92,-2.48,-2.48,-2.48
1128,-0.13,2.32,-0.13,2.32,-2.32,-2.98,-2.45,-2.45,-2.45
1139,-0.14,2.28,-0.13,2.29,-2.29,-3.04,-2.43,-2.42,-2.42
1150,-0.14,2.25,-0.13,2.25,-2.25,-3.10,-2.39,-2.39,-2.39
1162,-0.14,2.22,-0.13,2.22,-2.22,-3.16,-2.36,-2.36,-2.36
1173,-0.13,2.20,-0.13,2.20,-2.20,-3.22,-2.33,-2.33,-2.33
1185,-0.11,2.18,-0.12,2.17,-2.17,-3.29,-2.28,-2.29,-2.29
1197,-0.09,2.17,-0.11,2.15,-2.15,-3.36,-2.24,-2.26,-2.26
1209,-0.07,2.16,-0.10,2.13,-2.13,-3.43,-2.20,-2.23,-2.23
1221,-0.09,2.11,-0.08,2.11,-2.11,-3.50,-2.20,-2.20,-2.20
1233,-0.11,2.05,-0.06,2.10,-2.10,-3.57,-2.21,-2.16,-2.16
1246,-0.07,2.06,-0.04,2.09,-2.09,-3.65,-2.16,-2.13,-2.13
1258,-0.02,2.08,-0.01,2.09,-2.09,-3.73,-2.11,-2.10,-2.10
1271,0.04,2.10,0.03,2.09,-2.09,-3.81,-2.05,-2.06,-2.06
1283,0.08,2.11,0.06,2.09,-2.09,-3.89,-2.01,-2.03,-2.03
1296,0.12,2.11,0.11,2.10,-2.10,-3.98,-1.98,-1.99,-1.99
1309,0.17,2.13,0.16,2.11,-2.11,-4.07,-1.94,-1.96,-1.96
1322,0.22,2.14,0.21,2.13,-2.13,-4.16,-1.91,-1.92,-1.92
1335,0.27,2.15,0.27,2.16,-2.16,-4.25,-1.89,-1.88,-1.88
1349,0.33,2.18,0.34,2.19,-2.19,-4.36,-1.86,-1.85,-1.85
1362,0.39,2.20,0.41,2.22,-2.22,-4.46,-1.83,-1.81,-1.81
1376,0.46,2.23,0.49,2.26,-2.26,-4.57,-1.80,-1.77,-1.77
1390,0.54,2.28,0.57,2.30,-2.30,-4.68,-1.76,-1.74,-1.74
1404,0.63,2.33,0.65,2.35,-2.35,-4.79,-1.72,-1.70,-1.70
1418,0.73,2.39,0.74,2.40,-2.40,-4.91,-1.67,-1.66,-1.66
1432,0.84,2.46,0.83,2.45,-2.45,-5.03,-1.61,-1.62,-1.62
1446,0.94,2.52,0.92,2.50,-2.50,-5.15,-1.56,-1.58,-1.58
1461,1.04,2.58,1.01,2.55,-2.55,-5.28,-1.51,-1.54,-1.54
1475,1.14,2.64,1.10,2.60,-2.60,-5.41,-1.46,-1.50,-1.50
1490,1.23,2.69,1.19,2.65,-2.65,-5.55,-1.42,-1.46,-1.46
1505,1.32,2.74,1.29,2.71,-2.71,-5.69,-1.39,-1.42,-1.42
1520,1.41,2.79,1.38,2.76,-2.76,-5.83,-1.35,-1.38,-1.38
1535,1.50,2.84,1.48,2.81,-2.81,-5.97,-1.31,-1.34,-1.34
