frequency,raw
20.00,-12.21
20.20,-12.09
20.40,-11.97
20.61,-11.85
20.81,-11.73
21.02,-11.61
21.23,-11.49
21.44,-11.36
21.66,-11.24
21.87,-11.12
22.09,-11.00
22.31,-10.87
22.54,-10.75
22.76,-10.62
22.99,-10.50
23.22,-10.37
23.45,-10.25
23.69,-10.12
23.92,-10.00
24.16,-9.87
24.40,-9.75
24.65,-9.62
24.89,-9.49
25.14,-9.37
25.39,-9.24
25.65,-9.11
25.91,-8.99
26.16,-8.86
26.43,-8.73
26.69,-8.60
26.96,-8.47
27.23,-8.34
27.50,-8.21
27.77,-8.08
28.05,-7.96
28.33,-7.83
28.62,-7.70
28.90,-7.57
29.19,-7.45
29.48,-7.32
29.78,-7.19
30.08,-7.07
30.38,-6.95
30.68,-6.83
30.99,-6.72
31.30,-6.60
31.61,-6.48
31.93,-6.36
32.24,-6.24
32.57,-6.11
32.89,-5.99
33.22,-5.87
33.55,-5.74
33.89,-5.62
34.23,-5.50
34.57,-5.38
34.92,-5.27
35.27,-5.15
35.62,-5.03
35.97,-4.91
36.33,-4.79
36.70,-4.67
37.06,-4.55
37.43,-4.43
37.81,-4.32
38.19,-4.20
38.57,-4.09
38.95,-3.97
39.34,-3.86
39.74,-3.75
40.14,-3.63
40.54,-3.52
40.94,-3.41
41.35,-3.30
41.76,-3.19
42.18,-3.08
42.60,-2.97
43.03,-2.85
43.46,-2.74
43.90,-2.64
44.33,-2.52
44.78,-2.41
45.23,-2.30
45.68,-2.19
46.13,-2.09
46.60,-1.98
47.06,-1.88
47.53,-1.77
48.01,-1.67
48.49,-1.57
48.97,-1.47
49.46,-1.37
49.96,-1.27
50.46,-1.17
50.96,-1.08
51.47,-0.98
51.99,-0.88
52.51,-0.79
53.03,-0.71
53.56,-0.62
54.10,-0.54
54.64,-0.45
55.18,-0.38
55.74,-0.31
56.29,-0.24
56.86,-0.16
57.42,-0.08
58.00,-0.01
58.58,0.05
59.16,0.12
59.76,0.18
60.35,0.25
60.96,0.31
61.57,0.37
62.18,0.44
62.80,0.50
63.43,0.55
64.07,0.61
64.71,0.66
65.35,0.72
66.01,0.78
66.67,0.85
67.33,0.91
68.01,0.97
68.69,1.03
69.37,1.08
70.07,1.14
70.77,1.19
71.48,1.25
72.19,1.31
72.91,1.36
73.64,1.42
74.38,1.47
75.12,1.52
75.87,1.56
76.63,1.61
77.40,1.66
78.17,1.70
78.95,1.73
79.74,1.77
80.54,1.80
81.35,1.83
82.16,1.84
82.98,1.86
83.81,1.86
84.65,1.87
85.50,1.88
86.35,1.89
87.22,1.88
88.09,1.87
88.97,1.86
89.86,1.86
90.76,1.86
91.66,1.86
92.58,1.86
93.51,1.86
94.44,1.86
95.39,1.86
96.34,1.86
97.30,1.86
98.28,1.86
99.26,1.86
100.25,1.86
101.25,1.86
102.27,1.86
103.29,1.86
104.32,1.86
105.37,1.86
106.42,1.86
107.48,1.86
108.56,1.86
109.64,1.86
110.74,1.86
111.85,1.87
112.97,1.87
114.10,1.88
115.24,1.88
116.39,1.87
117.55,1.86
118.73,1.85
119.92,1.82
121.12,1.79
122.33,1.77
123.55,1.74
124.79,1.70
126.03,1.66
127.29,1.64
128.57,1.61
129.85,1.57
131.15,1.55
132.46,1.54
133.79,1.54
135.12,1.54
136.48,1.54
137.84,1.54
139.22,1.53
140.61,1.52
142.02,1.48
143.44,1.46
144.87,1.42
146.32,1.40
147.78,1.37
149.26,1.34
150.75,1.31
152.26,1.29
153.78,1.26
155.32,1.23
156.88,1.18
158.44,1.16
160.03,1.12
161.63,1.11
163.24,1.10
164.88,1.07
166.53,1.05
168.19,1.01
169.87,0.96
171.57,0.91
173.29,0.87
175.02,0.80
176.77,0.77
178.54,0.74
180.32,0.72
182.13,0.69
183.95,0.66
185.79,0.62
187.65,0.58
189.52,0.53
191.42,0.49
193.33,0.45
195.27,0.42
197.22,0.39
199.19,0.37
201.18,0.34
203.19,0.31
205.23,0.28
207.28,0.26
209.35,0.24
211.44,0.22
213.56,0.22
215.69,0.22
217.85,0.23
220.03,0.24
222.23,0.24
224.45,0.24
226.70,0.24
228.96,0.24
231.25,0.24
233.57,0.24
235.90,0.24
238.26,0.24
240.64,0.24
243.05,0.24
245.48,0.24
247.93,0.24
250.41,0.24
252.92,0.24
255.45,0.24
258.00,0.24
260.58,0.24
263.19,0.24
265.82,0.24
268.48,0.24
271.16,0.24
273.87,0.24
276.61,0.25
279.38,0.25
282.17,0.26
284.99,0.26
287.84,0.25
290.72,0.24
293.63,0.22
296.57,0.20
299.53,0.17
302.53,0.14
305.55,0.11
308.61,0.07
311.69,0.04
314.81,0.01
317.96,-0.02
321.14,-0.04
324.35,-0.07
327.59,-0.09
330.87,-0.10
334.18,-0.10
337.52,-0.09
340.90,-0.08
344.30,-0.07
347.75,-0.06
351.23,-0.07
354.74,-0.08
358.28,-0.11
361.87,-0.13
365.49,-0.16
369.14,-0.19
372.83,-0.23
376.56,-0.27
380.33,-0.30
384.13,-0.33
387.97,-0.36
391.85,-0.38
395.77,-0.40
399.73,-0.42
403.72,-0.43
407.76,-0.43
411.84,-0.42
415.96,-0.41
420.12,-0.41
424.32,-0.41
428.56,-0.41
432.85,-0.42
437.18,-0.43
441.55,-0.43
445.96,-0.43
450.42,-0.41
454.93,-0.39
459.48,-0.37
464.07,-0.35
468.71,-0.32
473.40,-0.28
478.13,-0.25
482.91,-0.21
487.74,-0.18
492.62,-0.15
497.55,-0.12
502.52,-0.10
507.55,-0.08
512.62,-0.06
517.75,-0.06
522.93,-0.07
528.16,-0.08
533.44,-0.08
538.77,-0.08
544.16,-0.08
549.60,-0.08
555.10,-0.08
560.65,-0.08
566.25,-0.08
571.92,-0.08
577.64,-0.08
583.41,-0.08
589.25,-0.08
595.14,-0.08
601.09,-0.08
607.10,-0.08
613.17,-0.08
619.30,-0.08
625.50,-0.08
631.75,-0.08
638.07,-0.08
644.45,-0.08
650.89,-0.08
657.40,-0.08
663.98,-0.08
670.62,-0.08
677.32,-0.08
684.10,-0.08
690.94,-0.08
697.85,-0.08
704.83,-0.08
711.87,-0.08
718.99,-0.08
726.18,-0.08
733.44,-0.08
740.78,-0.08
748.19,-0.08
755.67,-0.08
763.23,-0.08
770.86,-0.08
778.57,-0.08
786.35,-0.08
794.22,-0.08
802.16,-0.08
810.18,-0.08
818.28,-0.08
826.46,-0.08
834.73,-0.08
843.08,-0.08
851.51,-0.08
860.02,-0.08
868.62,-0.08
877.31,-0.08
886.08,-0.08
894.94,-0.08
903.89,-0.08
912.93,-0.09
922.06,-0.09
931.28,-0.10
940.59,-0.11
950.00,-0.10
959.50,-0.09
969.09,-0.08
978.78,-0.06
988.57,-0.03
998.46,-0.01
1008.44,0.03
1018.53,0.06
1028.71,0.09
1039.00,0.12
1049.39,0.15
1059.88,0.17
1070.48,0.20
1081.19,0.23
1092.00,0.26
1102.92,0.29
1113.95,0.32
1125.09,0.35
1136.34,0.37
1147.70,0.40
1159.18,0.42
1170.77,0.44
1182.48,0.48
1194.30,0.52
1206.25,0.56
1218.31,0.59
1230.49,0.62
1242.80,0.65
1255.22,0.69
1267.78,0.73
1280.45,0.77
1293.26,0.82
1306.19,0.87
1319.25,0.93
1332.45,1.00
1345.77,1.06
1359.23,1.13
1372.82,1.18
1386.55,1.23
1400.41,1.27
1414.42,1.32
1428.56,1.39
1442.85,1.45
1457.28,1.50
1471.85,1.55
1486.57,1.59
1501.43,1.64
1516.45,1.69
1531.61,1.75
1546.93,1.79
1562.40,1.83
1578.02,1.88
1593.80,1.92
1609.74,1.97
1625.84,2.02
1642.10,2.07
1658.52,2.13
1675.10,2.19
1691.85,2.28
1708.77,2.39
1725.86,2.53
1743.12,2.68
1760.55,2.87
1778.15,3.08
1795.94,3.31
1813.90,3.56
1832.03,3.85
1850.36,4.14
1868.86,4.43
1887.55,4.72
1906.42,5.02
1925.49,5.32
1944.74,5.61
1964.19,5.87
1983.83,6.13
2003.67,6.36
2023.71,6.59
2043.94,6.81
2064.38,7.01
2085.03,7.20
2105.88,7.38
2126.94,7.56
2148.20,7.72
2169.69,7.86
2191.38,7.98
2213.30,8.09
2235.43,8.18
2257.78,8.25
2280.36,8.31
2303.17,8.35
2326.20,8.38
2349.46,8.41
2372.95,8.40
2396.68,8.38
2420.65,8.35
2444.86,8.33
2469.31,8.30
2494.00,8.27
2518.94,8.23
2544.13,8.18
2569.57,8.13
2595.27,8.07
2621.22,8.00
2647.43,7.91
2673.90,7.81
2700.64,7.70
2727.65,7.58
2754.93,7.45
2782.48,7.33
2810.30,7.20
2838.40,7.06
2866.79,6.92
2895.46,6.79
2924.41,6.66
2953.65,6.54
2983.19,6.42
3013.02,6.31
3043.15,6.21
3073.58,6.12
3104.32,6.04
3135.36,5.97
3166.72,5.92
3198.38,5.87
3230.37,5.83
3262.67,5.80
3295.30,5.78
3328.25,5.76
3361.53,5.73
3395.15,5.71
3429.10,5.69
3463.39,5.67
3498.03,5.65
3533.01,5.62
3568.34,5.57
3604.02,5.53
3640.06,5.50
3676.46,5.46
3713.22,5.44
3750.36,5.44
3787.86,5.45
3825.74,5.47
3864.00,5.52
3902.64,5.58
3941.66,5.66
3981.08,5.76
4020.89,5.86
4061.10,5.97
4101.71,6.08
4142.73,6.20
4184.15,6.32
4226.00,6.44
4268.26,6.57
4310.94,6.69
4354.05,6.81
4397.59,6.95
4441.56,7.08
4485.98,7.22
4530.84,7.37
4576.15,7.53
4621.91,7.71
4668.13,7.90
4714.81,8.10
4761.96,8.30
4809.58,8.51
4857.67,8.72
4906.25,8.93
4955.31,9.14
5004.87,9.34
5054.91,9.52
5105.46,9.69
5156.52,9.85
5208.08,10.00
5260.16,10.13
5312.77,10.25
5365.89,10.36
5419.55,10.47
5473.75,10.58
5528.49,10.69
5583.77,10.80
5639.61,10.89
5696.00,10.97
5752.96,11.05
5810.49,11.13
5868.60,11.20
5927.28,11.26
5986.56,11.29
6046.42,11.31
6106.89,11.31
6167.96,11.29
6229.64,11.23
6291.93,11.17
6354.85,11.09
6418.40,10.99
6482.58,10.88
6547.41,10.75
6612.88,10.60
6679.01,10.41
6745.80,10.20
6813.26,9.95
6881.39,9.69
6950.21,9.41
7019.71,9.11
7089.91,8.78
7160.81,8.44
7232.41,8.06
7304.74,7.65
7377.79,7.21
7451.56,6.74
7526.08,6.24
7601.34,5.72
7677.35,5.18
7754.13,4.63
7831.67,4.07
7909.98,3.50
7989.08,2.93
8068.98,2.34
8149.67,1.77
8231.16,1.22
8313.47,0.73
8396.61,0.28
8480.57,-0.08
8565.38,-0.35
8651.03,-0.54
8737.54,-0.63
8824.92,-0.63
8913.17,-0.55
9002.30,-0.41
9092.32,-0.21
9183.25,0.06
9275.08,0.39
9367.83,0.76
9461.51,1.14
9556.12,1.51
9651.68,1.87
9748.20,2.21
9845.68,2.51
9944.14,2.80
10043.58,3.05
10144.02,3.29
10245.46,3.50
10347.91,3.69
10451.39,3.86
10555.91,4.02
10661.46,4.18
10768.08,4.33
10875.76,4.47
10984.52,4.60
11094.36,4.72
11205.31,4.87
11317.36,5.02
11430.53,5.17
11544.84,5.31
11660.29,5.44
11776.89,5.56
11894.66,5.67
12013.60,5.77
12133.74,5.84
12255.08,5.90
12377.63,5.94
12501.41,5.95
12626.42,5.93
12752.68,5.89
12880.21,5.83
13009.01,5.75
13139.10,5.62
13270.49,5.47
13403.20,5.28
13537.23,5.07
13672.60,4.83
13809.33,4.54
13947.42,4.22
14086.90,3.85
14227.77,3.44
14370.04,2.99
14513.74,2.51
14658.88,1.99
14805.47,1.43
14953.52,0.87
15103.06,0.28
15254.09,-0.32
15406.63,-0.94
15560.70,-1.56
15716.30,-2.19
15873.47,-2.81
16032.20,-3.43
16192.52,-4.04
16354.45,-4.64
16517.99,-5.21
16683.17,-5.76
16850.01,-6.28
17018.51,-6.77
17188.69,-7.25
17360.58,-7.70
17534.18,-8.14
17709.53,-8.59
17886.62,-9.05
18065.49,-9.51
18246.14,-9.97
18428.60,-10.44
18612.89,-10.92
18799.02,-11.38
18987.01,-11.86
19176.88,-12.33
19368.65,-12.81
19562.33,-13.28
19757.96,-13.76
19955.54,-14.24
