frequency,raw,error,smoothed,error_smoothed,equalization,equalized_raw,equalized_smoothed,target
20,-12.953952904748258,-14.601796660217605,-12.938856582031955,-14.586684990834192,5.999999999999999,-6.953952904748259,-6.938856582031955,1.647843755469347
21,-12.264826615331963,-13.91265141135014,-12.291158095176963,-13.938985245346007,6.0,-6.2648266153319625,-6.291158095176963,1.6478247960181784
22,-11.672894223334985,-13.320694221820329,-11.673331693379524,-13.321144005784918,6.0,-5.6728942233349855,-5.673331693379524,1.6477999984853424
23,-11.087738381660497,-12.73550633830247,-11.08537737663964,-12.733161272150925,6.0,-5.087738381660497,-5.08537737663964,1.6477679566419732
24,-10.553447438652764,-12.201174449991612,-10.527295144957296,-12.17503704444401,5.999999999999998,-4.553447438652766,-4.527295144957298,1.647727011338847
25,-9.94999916279069,-11.597674381850863,-10.00101930276157,-11.648707103411049,6.000000000000001,-3.9499991627906885,-4.001019302761569,1.647675219060174
26,-9.463728974854357,-11.111339293034355,-9.504288104050769,-11.151908248553092,5.999999999999999,-3.463728974854358,-3.5042881040507696,1.6476103181799977
27,-8.98886296829683,-10.636392661497121,-9.035007905717634,-10.682545268145445,6.0,-2.9888629682968304,-3.0350079057176345,1.647529693200291
28,-8.692045614049652,-10.33947594956101,-8.590246956866421,-10.237683827645442,6.0,-2.6920456140496523,-2.5902469568664213,1.6474303355113573
29,-8.217102083196497,-9.864410886121766,-8.16657690017701,-9.813891949966717,6.000000000000001,-2.2171020831964965,-2.1665769001770085,1.6473088029252683
30,-7.765824971109396,-9.412986147211143,-7.7612310855584585,-9.408398905719348,6.0,-1.7658249711093958,-1.7612310855584585,1.6471611761017466
31,-7.335942791407652,-8.982925804005795,-7.372000512818424,-9.01899094863322,5.999999999999999,-1.3359427914076525,-1.372000512818425,1.6469830125981426
32,-6.92609678186402,-8.572866080280502,-6.997598864716629,-8.644376506876487,6.0,-0.92609678186402,-0.997598864716629,1.6467692984164817
33,-6.658474680266383,-8.304989077326578,-6.637682902395189,-8.28420657716316,6.0,-0.6584746802663828,-0.6376829023951887,1.6465143970601943
34,-6.362839991547494,-8.009051987721932,-6.292624119627446,-7.9388462750719775,5.999999999999997,-0.3628399915474967,-0.2926241196274484,1.6462119961744381
35,-6.027585369687227,-7.673440421403306,-5.963278104238279,-7.609144147023118,6.000000000000002,-0.027585369687225025,0.03672189576172258,1.645855051716079
36,-5.625286519112513,-7.2707222489234065,-5.650593128514588,-7.296040658103334,5.999999999999999,0.37471348088748613,0.34940687148541105,1.6454357298108935
37,-5.288715988900775,-6.933661335250935,-5.355220093841014,-7.000178051961233,6.0,0.7112840110992247,0.6447799061589858,1.6449453463501595
38,-5.021375420164309,-6.665749724606773,-5.077194990306212,-6.72158274080069,6.0,0.9786245798356914,0.9228050096937883,1.6443743044424641
39,-4.784391760248163,-6.428103790101446,-4.8157559225000135,-6.459482260925245,5.967758569945264,1.1833668096971008,1.1520026474452507,1.643712029853282
40,-4.602776940568483,-6.2457238451570705,-4.569375656724541,-6.212337758415604,5.900392341956023,1.2976154013875396,1.3310166852314813,1.6429469045885874
41,-4.418937660755916,-6.061003859565449,-4.3359962203815865,-5.978078524974052,5.800516813149743,1.3815791523938268,1.4645205927681566,1.642066198809533
42,-4.106596315577963,-5.747652316864226,-4.113396399836452,-5.754469428948518,5.670904180651729,1.5643078650737667,1.5575077808152775,1.6410560012862638
43,-3.8652290478466687,-5.505130196483183,-3.899573801630977,-5.53949290745583,5.513955035040686,1.6487259871940174,1.6143812334097092,1.6399011486365138
44,-3.7143669788775404,-5.352952132510055,-3.693012959571778,-5.3316170014324715,5.3316170014324715,1.617250022554931,1.6386040418606935,1.6385851536325138
45,-3.472899824262838,-5.109989957170946,-3.492761156860489,-5.129871104703696,5.129871104703698,1.6569712804408598,1.637109947843209,1.6370901329081073
46,-3.31169801127011,-4.947094745728313,-3.2983095714261754,-4.9337270360925825,4.933727036092583,1.6220290248224734,1.635417464666408,1.6353967344582032
47,-3.10475735062368,-4.738241416021953,-3.109354994947002,-4.742860685611783,4.742860685611783,1.6381033349881027,1.633505690664781,1.6334840653982736
48,-2.9602231515184214,-4.591552772064835,-2.925562585030419,-4.5569146949091675,4.5569146949091675,1.596691543390746,1.6313521098787485,1.6313296205464143
49,-2.7051248712045037,-4.334034083711508,-2.7464417022823193,-4.375374224175072,4.375374224175074,1.6702493529705702,1.6289325218927546,1.6289092125070037
50,-2.540740123774416,-4.166937027850234,-2.57139137659012,-4.197612350596251,4.197612350596251,1.656872226821835,1.6262209740061309,1.626196904075818
51,-2.4061302091106684,-4.029295153063295,-2.3998947509366957,-4.023084447667456,4.023084447667456,1.6169542385567874,1.6231896967307602,1.6231649439526268
52,-2.3465508855933037,-3.9663345925314437,-2.23177611212538,-3.851585155940776,3.851585155940776,1.5050342703474722,1.6198090438153958,1.61978370693814
53,-2.0325531212265115,-3.6485747612311425,-2.0674057739956657,-3.6834532122481085,3.683453212248107,1.6509000910215956,1.6160474382524415,1.616021640004631
54,-1.8447372365304513,-3.4565824523884485,-1.907756527219616,-3.5196278531504444,3.519627853150444,1.6748906166199926,1.611871325930828,1.611845215857997
55,-1.8337885651949162,-3.4410074610396615,-1.7542728850506575,-3.361518023873254,3.3615180238732543,1.527729458678338,1.6072451388225968,1.6072188958447455
56,-1.569139533051244,-3.1712446373399636,-1.6085862704637657,-3.2107175402779036,3.2107175402779045,1.6415780072266604,1.6021312698141388,1.6021051042887193
57,-1.499065771496721,-3.0955299880514664,-1.4721653716887202,-3.06865543317901,3.0686554331790097,1.5695896616822886,1.5964900614902895,1.5964642165547454
58,-1.2101984680143831,-2.800453031327261,-1.3460098735703974,-2.9362896849147706,2.93628968491477,1.726091216900387,1.5902798113443728,1.5902545633128775
59,-1.3397656571695622,-2.923198110768559,-1.2304745516143334,-2.81393134760638,2.8139313476063808,1.4741656904368186,1.5834567959920474,1.5834324535989968
60,-1.0331803624367413,-2.609132581753322,-1.12525982110105,-2.701235138095848,2.7012351380958486,1.6680547756591073,1.5759753169947985,1.575952219316581
61,-1.179884098286896,-2.7476503820695264,-1.0295454886364641,-2.597333259471755,2.597333259471755,1.417449161184859,1.567787770835291,1.5677662837826305
62,-0.817815052092601,-2.3766403088659316,-0.9422004468223377,-2.5010451922403747,2.5010451922403747,1.6832301401477738,1.558844745418037,1.5588252567733307
63,-0.8982747829611372,-2.4473528412228847,-0.8619889807851999,-2.4110841259707154,2.411084125970716,1.5128093430095788,1.549095145185516,1.5490780582617476
64,-0.7977001542057175,-2.336172226862677,-0.7877145389192478,-2.3262008854964678,2.3262008854964673,1.52850073129075,1.5384863465772196,1.5384720726569596
65,-0.6971257479461256,-2.224079082801813,-0.7182807310820016,-2.2452451159726987,2.2452451159726983,1.5481193680265726,1.5269643848906966,1.5269533348556874
66,-0.6971263525916239,-2.211593101408699,-0.6526892699300445,-2.1671634432598275,2.1671634432598283,1.4700370906682045,1.5144741733297837,1.514466748817075
67,-0.4994072582254741,-2.000363596917351,-0.5900218394305814,-2.0909815938570393,2.090981593857039,1.5915743356315648,1.5009597544264575,1.5009563386918772
68,-0.6332745565398975,-2.1196400883514994,-0.5294570009753067,-2.0158215835081243,2.015821583508124,1.3825470269682265,1.4863645825328171,1.486365531811602
69,-0.4391287083756043,-1.9097661804878368,-0.4703535471464151,-1.940985382139646,1.940985382139646,1.5018566737640417,1.470631834993231,1.4706374721122324
70,-0.3954040965226996,-1.8491194584012733,-0.4123961814278,-1.8661009319253057,1.8661009319253057,1.470696835402606,1.4537047504975056,1.4537153618785736
71,-0.39540148413549936,-1.8309443132354657,-0.3557608107682345,-1.7912878057570252,1.7912878057570254,1.395886321621526,1.4355269949887908,1.4355428290999663
72,-0.30810418453470173,-1.7241685018111672,-0.3012278939839176,-1.7172709487467375,1.7172709487467377,1.409166764212036,1.4160430547628202,1.4160643172764655
73,-0.22565833060104803,-1.6208838248530424,-0.25016455562298845,-1.645363205117521,1.645363205117521,1.419704874516473,1.3951986494945325,1.3952254942519944
74,-0.194226623329544,-1.5672002999422077,-0.20431988244120625,-1.5772610352505603,1.5772610352505603,1.3830344119210163,1.372941152809354,1.3729736766126637
75,-0.1942157799415387,-1.5434740463363408,-0.165434915552836,-1.5146549199878387,1.5146549199878387,1.3204391400463,1.3492200044350027,1.349258266394802
76,-0.18464750393288465,-1.5086787012319491,-0.134744140074827,-1.4587312461318818,1.4587312461318818,1.274083742198997,1.3239871060570547,1.3240311972990644
77,0.02704735305126004,-1.2702000352308722,-0.11251203998206144,-1.4097092689768496,1.4097092689768498,1.4367566220281098,1.2971972289947884,1.2972473882821323
78,-0.09367007271361806,-1.3625352759624394,-0.09777458993691927,-1.3665831043670842,1.3665831043670835,1.2729130316534654,1.2688085144301642,1.2688652032488212
79,-0.09372664921861576,-1.3325735657408029,-0.08841806601124459,-1.3272012218351859,1.3272012218351863,1.2334745726165706,1.2387831558239417,1.2388469165221871
80,-0.09381610227556116,-1.300975287007168,-0.08162607611221448,-1.2887143217134227,1.288714321713423,1.1948982194378617,1.2070882456012084,1.2071591847316068
81,-0.09393465959943127,-1.267708186213339,-0.07459040307804475,-1.248286941780158,1.248286941780158,1.1543522821807268,1.1736965387021134,1.1737735266139078
82,-0.09406641251917215,-1.2327332253623944,-0.0652671815717182,-1.203853853651544,1.2038538536515442,1.109787441132372,1.138586672079826,1.1386668128432222
83,-0.09417983877338576,-1.1960016070344328,-0.0529203129149808,-1.1546626922030918,1.154662692203092,1.0604828534297064,1.1017423792881111,1.101821768261047
84,-0.0942265011495588,-1.157453989795645,-0.03825355160866834,-1.1014042596609759,1.101404259660976,1.0071777585114172,1.0631507080523077,1.0632274886460862
85,-0.018876605982514626,-1.0417565793228458,-0.02307554069982908,-1.0458758046761771,1.0458758046761771,1.0269991986936624,1.022800263976348,1.022879973340331
86,0.043663176604138314,-0.9371194969573696,-0.009612541236180678,-0.9902942113340893,0.9902942113340895,1.0339573879382278,0.9806816700979087,0.980782673561508
87,0.10783911950051481,-0.8291079345527768,0.0002888802995273292,-0.9365039535269077,0.9365039535269077,1.0443430730274226,0.9367928338264351,0.9369470540532916
88,0.09151146763433458,-0.7998816952428464,0.005794401462956722,-0.8853558557373613,0.8853558557373613,0.9768673233716959,0.891150257200318,0.891393162877181
89,-0.13151279770281177,-0.9756629984192592,0.007346195790061166,-0.836457991787297,0.8364579917872971,0.7049451940844853,0.8438041875773582,0.8441502007164474
90,-0.036743386598825374,-0.8320004637873879,0.0064931297645431044,-0.7883577151308728,0.7883577151308729,0.7516143285320476,0.794850844895416,0.7952570771885625
91,0.012218020333966788,-0.7325449172204905,0.005365753611538884,-0.7390657293319904,0.7390657293319902,0.751283749665957,0.7444314829435291,0.7447629375544573
92,0.01358692463894006,-0.6791407144927187,0.005972464573318294,-0.6867361651676904,0.6867361651676905,0.7003230898066306,0.6927086297410089,0.6927276391316588
93,0.014475229419641515,-0.6247469235481153,0.009518093353714207,-0.6302984683583182,0.6302984683583183,0.6447736977779598,0.6398165617120325,0.6392221529677569
94,0.01446211854141976,-0.5698667446991035,0.0159109026831232,-0.5698842503717179,0.569884250371718,0.5843463689131377,0.5857951530548412,0.5843288632405232
95,0.013069058094760659,-0.5150726766622046,0.023562155122599293,-0.5069672329580771,0.5069672329580771,0.5200362910528378,0.5305293880806764,0.5281417347569652
96,0.009798196534602222,-0.460968121607806,0.029523465058571965,-0.44420100639264604,0.44420100639264604,0.45399920292724827,0.473724471451218,0.4707663181424082
97,0.004179862870059662,-0.4081397002453139,0.02995929969109333,-0.38498341740436326,0.3849834174043632,0.3891632802744229,0.41494271709545655,0.41231956311537354
98,-0.004176032719484865,-0.35710544555756596,0.02090409152003524,-0.33280714366511005,0.3328071436651101,0.32863111094562525,0.35371123518514536,0.3529294128380811
99,0.040727852148714765,-0.2520063046778124,-0.0008077891430452967,-0.29049058662340066,0.2904905866234006,0.3312184387721154,0.2896827974803553,0.29273415682652715
100,0.11082758382693568,-0.1210539424704793,-0.036624216384977315,-0.25943018887732916,0.2594301888773292,0.3702577727042649,0.2228059724923519,0.23188152629741499
101,-0.08351478613370279,-0.2540423101295769,-0.08561481756099547,-0.2390613531636949,0.23906135316369498,0.1555465670299922,0.1534465356026995,0.17052752399587412
102,-0.16809920371960563,-0.2769341939509744,-0.14431523076458658,-0.2267238931665292,0.2267238931665292,0.05862468944692356,0.08240866240194261,0.10883499023136878
104,-0.1903900123249891,-0.1753973048296371,-0.20723179475029418,-0.21806372791793968,0.21806372791793965,0.027673715592950565,0.010831933167645469,-0.014992707495351976
105,-0.21418946698854402,-0.13725350045856377,-0.2679785331605452,-0.20795888617322514,0.2079588861732251,-0.006230580815318909,-0.0600196469873201,-0.07693596652998025
106,-0.4511893744235718,-0.3126056861347795,-0.32079443685616105,-0.1917724792123826,0.19177247921238255,-0.25941689521118927,-0.1290219576437785,-0.1385836882887923
107,-0.4736471752542111,-0.27387992703763353,-0.3620119116150843,-0.16657996436194233,0.16657996436194236,-0.30706721089226874,-0.19543194725314192,-0.19976724821657754
108,-0.3870256983332679,-0.126703382559555,-0.3910026552017002,-0.131969337586073,0.13196933758607296,-0.25505636074719495,-0.2590333176156272,-0.2603223157737129
109,-0.4085723113176925,-0.08848116439614234,-0.4102592360566748,-0.0901157844452056,0.0901157844452056,-0.31845652687248693,-0.3201434516114692,-0.32009114692155016
110,-0.42759072433259426,-0.04866589998752069,-0.42455183979673383,-0.04506980214921365,0.04506980214921364,-0.38252092218338063,-0.3794820376475202,-0.3789248243450736
111,-0.44352776229154056,-0.0068423859238633256,-0.43942777473490835,-0.0014832872698323533,0.0014832872698323507,-0.4420444750217082,-0.43794448746507597,-0.43668537636767724
112,-0.43258743638922326,0.06066027016605746,-0.459561463804983,0.036788749752827185,-0.036788749752827185,-0.46937618614205046,-0.49635021355781017,-0.4932477065552807
113,-0.3252036302188621,0.2232976401546658,-0.48750930043175533,0.06772924294346709,-0.06772924294346708,-0.39293287316232917,-0.5552385433752224,-0.5485012703735279
114,-0.4045960565985345,0.19775538628110922,-0.5232525452140502,0.09151139212810763,-0.09151139212810763,-0.49610744872664214,-0.6147639373421578,-0.6023514428796437
115,-0.5727299638926457,0.08199056812426098,-0.5645942589609441,0.11011202063212278,-0.11011202063212279,-0.6828419845247685,-0.6747062795930668,-0.6547205320169067
117,-0.8131097064030829,-0.052848585145297,-0.6081517365733449,0.12642330899940277,-0.12642330899940277,-0.9395330154024857,-0.7345750455727477,-0.7602611212577859
118,-0.8096505757423478,-0.0012697579845288853,-0.6504965765312616,0.1432643772178427,-0.14326437721784266,-0.9529149529601905,-0.7937609537491043,-0.8083808177578189
119,-0.6803979413085857,0.17444746776401687,-0.6890168997392476,0.16266556484196254,-0.16266556484196248,-0.8430635061505481,-0.8516824645812101,-0.8548454090726025
120,-0.6568118135587149,0.2428422800303549,-0.7222781677779844,0.1856086967076977,-0.1856086967076977,-0.8424205102664126,-0.9078868644856821,-0.8996540935890698
121,-0.5615951914331119,0.38122675113404214,-0.7499226789296933,0.21216707270601276,-0.2121670727060127,-0.7737622641391246,-0.9620897516357061,-0.942821942567154
123,-0.666575069026009,0.3652019115209819,-0.7723361767774091,0.24182553029939546,-0.2418255302993954,-0.9084005993254045,-1.0141617070768045,-1.031776980546991
124,-0.9481429019854509,0.12231587569359992,-0.7903394794608497,0.27374738501805884,-0.27374738501805884,-1.2218902870035098,-1.0640868644789085,-1.0704587776790508
125,-0.9516006449205123,0.15601604278890213,-0.8050438221837538,0.30687635655171286,-0.30687635655171286,-1.258477001472225,-1.1119201787354667,-1.1076166877094145
126,-0.8357261199174404,0.3075929364466228,-0.8178327383390691,0.33992757812411756,-0.3399275781241175,-1.175653698041558,-1.1577603164631867,-1.1433190563640632
128,-0.8138042847421076,0.40466062042643025,-0.8303185091261305,0.37142170586459017,-0.3714217058645902,-1.185225990606698,-1.2017402149907208,-1.218464905168538
129,-0.8076946940993963,0.44248732457560713,-0.8441386439046287,0.39988668391975657,-0.3998866839197566,-1.2075813780191529,-1.2440253278243854,-1.2501820186750034
130,-0.8020402856500011,0.4786549882401736,-0.8605868384001699,0.4242191386371919,-0.4242191386371919,-1.226259424287193,-1.2848059770373619,-1.2806952738901747
131,-0.7747400816772005,0.535352560121773,-0.8802220572873514,0.4440539234382117,-0.4440539234382117,-1.2187940051154122,-1.324275980725563,-1.3100926417989736
133,-0.8154993151147563,0.5574138924311394,-0.9026675251474345,0.4599329870898242,-0.45993298708982433,-1.2754323022045806,-1.3626005122372589,-1.3729132075458956
134,-1.0783006163376772,0.32082277075342236,-0.9267487569823616,0.4731364800994241,-0.47313648009942416,-1.5514370964371014,-1.3998852370817858,-1.3991233870910995
135,-1.0672520976761373,0.35724370390942983,-0.950957049149266,0.48520384585908616,-0.4852038458590861,-1.5524559435352234,-1.4361608950083522,-1.424495801585567
137,-0.9817375291692214,0.49711994906888646,-0.9740541647153558,0.49733745907550886,-0.49733745907550886,-1.4790749882447303,-1.4713916237908646,-1.4788574782381079
138,-0.9790918484319362,0.5225829148021717,-0.9955545722583676,0.5099502834613289,-0.509950283461329,-1.4890421318932652,-1.5055048557196966,-1.5016747632341079
140,-0.9771017596382133,0.5733152822580273,-1.0158791508111873,0.5225515884720334,-0.5225515884720335,-1.4996533481102468,-1.5384307392832208,-1.5504170418962406
141,-0.9757626602789313,0.5953225735579808,-1.0361330403677158,0.5340017797413597,-0.5340017797413597,-1.509764440020291,-1.5701348201090755,-1.5710852338369121
142,-1.04459504276425,0.5466982253722432,-1.0576323952076498,0.5429989211165818,-0.542998921116582,-1.587593963880832,-1.6006313163242318,-1.5912932681364933
144,-1.075360424056582,0.5583616533435023,-1.0814031237987152,0.5485705538269638,-0.5485705538269636,-1.6239309778835456,-1.6299736776256788,-1.6337220774000842
145,-1.145103156707762,0.5071172977329828,-1.1078584128832476,0.5503709310328054,-0.5503709310328053,-1.6954740877405674,-1.658229343916053,-1.6522204544407448
147,-1.176388838581319,0.5140401202829394,-1.136753054789073,0.548698751126943,-0.5486987511269428,-1.7250875897082618,-1.6854518059160157,-1.6904289588642585
148,-1.1767495521482834,0.5306836123778431,-1.1673780065002934,0.5442847628189298,-0.5442847628189297,-1.7210343149672132,-1.711662769319223,-1.7074331645261265
150,-1.1769922623995765,0.5648637835005608,-1.198868764601669,0.5379825121312554,-0.5379825121312554,-1.714974774530832,-1.7368512767329243,-1.7418560459001373
151,-1.177004895614467,0.5804760276765253,-1.2304897482870905,0.5304982614331685,-0.5304982614331685,-1.7075031570476353,-1.760988009720259,-1.7574809232909923
153,-1.275718112769261,0.5127163966687891,-1.2618082188910842,0.522237782571129,-0.522237782571129,-1.7979558953403898,-1.784046001462213,-1.78843450943805
154,-1.2875857813086824,0.5151048503542779,-1.2927419665605706,0.5132748204203368,-0.5132748204203368,-1.8008606017290192,-1.8060167869809074,-1.8026906316629603
156,-1.3766634051842535,0.4537069760936814,-1.3235136761750759,0.503400452420447,-0.503400452420447,-1.8800638576047004,-1.8269141285955228,-1.8303703812779348
