frequency,raw
20,-3.85
21,-3.62
22,-3.41
23,-3.26
24,-3.11
25,-2.96
26,-2.81
27,-2.67
28,-2.61
29,-2.48
30,-2.35
31,-2.31
32,-2.19
33,-2.15
34,-2.05
35,-2.01
36,-1.95
37,-1.87
38,-1.83
39,-1.79
40,-1.68
41,-1.64
42,-1.60
43,-1.53
44,-1.46
45,-1.43
46,-1.39
47,-1.33
48,-1.25
49,-1.22
50,-1.18
51,-1.16
52,-1.09
53,-1.03
54,-1.00
55,-0.92
56,-0.86
57,-0.84
58,-0.73
59,-0.71
60,-0.61
61,-0.58
62,-0.50
63,-0.46
64,-0.44
65,-0.35
66,-0.32
67,-0.27
68,-0.22
69,-0.22
70,-0.14
71,-0.14
72,-0.06
73,-0.07
74,0.01
75,0.01
76,0.09
77,0.08
78,0.16
79,0.18
80,0.21
81,0.24
82,0.32
83,0.33
84,0.38
85,0.40
86,0.49
87,0.50
88,0.56
89,0.56
90,0.66
91,0.64
92,0.69
93,0.74
94,0.78
95,0.83
96,0.87
97,0.92
98,0.97
99,1.02
100,1.06
101,1.10
102,1.11
104,1.23
105,1.26
106,1.31
107,1.34
108,1.38
109,1.42
110,1.46
111,1.53
112,1.55
113,1.61
114,1.62
115,1.67
117,1.77
118,1.84
119,1.82
120,1.91
121,1.87
123,1.98
124,2.02
125,2.06
126,2.04
128,2.17
129,2.21
130,2.22
131,2.23
133,2.28
134,2.33
135,2.35
137,2.45
138,2.41
140,2.53
141,2.49
142,2.53
144,2.57
145,2.55
147,2.63
148,2.61
150,2.71
151,2.68
153,2.75
154,2.75
156,2.80
157,2.82
159,2.82
160,2.83
162,2.85
164,2.91
165,2.91
167,2.89
169,3.00
170,2.97
172,2.99
174,3.04
175,3.01
177,3.04
179,3.09
181,3.07
183,3.15
184,3.14
186,3.11
188,3.15
190,3.21
192,3.21
194,3.25
196,3.28
198,3.28
200,3.31
202,3.33
204,3.31
206,3.32
208,3.33
210,3.38
212,3.38
214,3.36
216,3.38
218,3.37
221,3.37
223,3.39
225,3.37
227,3.36
229,3.35
232,3.33
234,3.32
236,3.30
239,3.28
241,3.24
244,3.24
246,3.23
248,3.23
251,3.23
253,3.23
256,3.19
259,3.10
261,3.08
264,3.08
266,3.08
269,3.08
272,3.05
274,2.99
277,2.94
280,2.93
283,2.93
286,2.93
288,2.93
291,2.78
294,2.77
297,2.77
300,2.77
303,2.75
306,2.67
309,2.62
312,2.62
316,2.62
319,2.57
322,2.50
325,2.47
328,2.47
332,2.46
335,2.35
338,2.32
342,2.32
345,2.32
349,2.27
352,2.17
356,2.16
359,2.16
363,2.10
366,2.04
370,2.01
374,2.00
377,1.96
381,1.92
385,1.88
389,1.84
393,1.80
397,1.76
401,1.72
405,1.65
409,1.63
413,1.60
417,1.50
421,1.47
425,1.47
430,1.32
434,1.32
438,1.32
443,1.16
447,1.16
451,1.16
456,1.05
460,1.02
465,0.95
470,0.92
474,0.89
479,0.82
484,0.76
489,0.73
494,0.65
499,0.61
504,0.51
509,0.47
514,0.44
519,0.38
524,0.36
529,0.28
535,0.24
540,0.16
545,0.14
551,0.08
556,0.06
562,-0.02
568,-0.06
573,-0.12
579,-0.13
585,-0.19
591,-0.21
596,-0.21
602,-0.29
608,-0.29
615,-0.35
621,-0.39
627,-0.39
633,-0.46
639,-0.48
646,-0.51
652,-0.57
659,-0.60
665,-0.60
672,-0.66
679,-0.64
686,-0.65
692,-0.71
699,-0.72
706,-0.69
713,-0.80
721,-0.79
728,-0.81
735,-0.83
742,-0.86
750,-0.89
757,-0.91
765,-0.94
773,-0.96
780,-0.99
788,-0.99
796,-0.97
804,-0.97
812,-0.95
820,-0.92
828,-0.97
837,-0.97
845,-0.97
853,-0.94
862,-0.92
871,-0.88
879,-0.87
888,-0.83
897,-0.78
906,-0.71
915,-0.66
924,-0.60
933,-0.56
943,-0.52
952,-0.42
962,-0.32
971,-0.29
981,-0.17
991,-0.08
1001,0.01
1011,0.11
1021,0.18
1031,0.30
1041,0.37
1052,0.44
1062,0.57
1073,0.64
1084,0.70
1094,0.80
1105,0.92
1116,0.97
1128,0.97
1139,1.03
1150,1.13
1162,1.22
1173,1.26
1185,1.33
1197,1.39
1209,1.42
1221,1.47
1233,1.52
1246,1.55
1258,1.61
1271,1.70
1283,1.78
1296,1.83
1309,1.87
1322,1.91
1335,1.94
1349,1.98
1362,2.02
1376,1.95
1390,1.99
1404,2.03
1418,2.04
1432,2.03
1446,2.07
1461,2.06
1475,2.02
1490,2.04
1505,2.08
1520,2.10
1535,2.11
1550,2.10
1566,2.06
1582,2.07
1597,2.05
1613,2.07
1629,2.09
1646,2.10
1662,2.08
1679,2.11
1696,2.14
1713,2.12
1730,2.12
1747,2.15
1764,2.17
1782,2.19
1800,2.20
1818,2.24
1836,2.28
1854,2.25
1873,2.19
1892,2.20
1911,2.19
1930,2.20
1949,2.18
1969,2.14
1988,2.14
2008,2.10
2028,2.12
2048,2.08
2069,2.08
2090,2.03
2111,2.06
2132,2.05
2153,1.98
2175,1.93
2196,1.89
2218,1.87
2240,1.80
2263,1.75
2285,1.72
2308,1.70
2331,1.70
2355,1.69
2378,1.71
2402,1.74
2426,1.77
2450,1.80
2475,1.84
2500,1.85
2525,1.86
2550,1.89
2575,1.87
2601,1.88
2627,1.84
2653,1.75
2680,1.68
2707,1.57
2734,1.47
2761,1.37
2789,1.31
2817,1.27
2845,1.26
2873,1.26
2902,1.30
2931,1.40
2960,1.51
2990,1.62
3020,1.72
3050,1.83
3080,1.92
3111,2.00
3142,2.05
3174,2.13
3206,2.19
3238,2.29
3270,2.37
3303,2.50
3336,2.66
3369,2.82
3403,3.01
3437,3.23
3471,3.39
3506,3.56
3541,3.70
3576,3.89
3612,4.05
3648,4.21
3685,4.40
3721,4.59
3759,4.85
3796,5.08
3834,5.40
3873,5.70
3911,6.03
3950,6.41
3990,6.71
4030,7.02
4070,7.37
4111,7.58
4152,7.84
4193,7.97
4235,8.11
4278,8.18
4321,8.07
4364,7.97
4407,7.79
4451,7.62
4496,7.34
4541,7.05
4586,6.71
4632,6.36
4679,5.99
4725,5.70
4773,5.38
4820,5.02
4868,4.81
4917,4.69
4966,4.57
5016,4.46
5066,4.42
5117,4.40
5168,4.55
5220,4.70
5272,4.96
5325,5.14
5378,5.41
5432,5.69
5486,5.94
5541,6.24
5596,6.55
5652,6.90
5709,7.22
5766,7.59
5823,8.01
5882,8.49
5940,9.05
6000,9.60
6060,10.12
6120,10.65
6182,11.10
6244,11.42
6306,11.69
6369,11.82
6433,11.78
6497,11.66
6562,11.39
6628,11.01
6694,10.60
6761,10.13
6828,9.62
6897,9.12
6966,8.65
7035,8.20
7106,7.81
7177,7.45
7249,7.14
7321,6.92
7394,6.77
7468,6.69
7543,6.70
7618,6.77
7694,6.94
7771,7.15
7849,7.46
7928,7.84
8007,8.25
8087,8.68
8168,9.02
8250,9.34
8332,9.56
8415,9.64
8499,9.57
8584,9.37
8670,9.03
8757,8.60
8845,8.15
8933,7.83
9022,7.56
9113,7.15
9204,6.50
9296,5.61
9389,4.42
9483,3.01
9577,1.58
9673,0.13
9770,-1.22
9868,-2.47
9966,-3.21
10066,-3.79
10167,-4.03
10268,-3.49
10371,-3.33
10475,-3.11
10579,-3.38
10685,-4.68
10792,-6.15
10900,-7.78
11009,-9.44
11119,-11.00
11230,-12.46
11343,-13.87
11456,-15.34
11571,-16.41
11686,-16.89
11803,-17.07
11921,-16.83
12040,-16.18
12161,-15.12
12282,-14.12
12405,-13.31
12529,-12.53
12655,-11.85
12781,-11.36
12909,-10.91
13038,-10.33
13168,-9.05
13300,-7.89
13433,-7.48
13567,-7.14
13703,-6.98
13840,-6.81
13978,-6.75
14118,-6.69
14259,-6.63
14402,-6.57
14546,-6.45
14692,-6.28
14838,-6.06
14987,-5.74
15137,-5.29
15288,-4.67
15441,-3.93
15595,-3.07
15751,-2.35
15909,-1.66
16068,-0.92
16229,-0.22
16391,0.42
16555,0.81
16720,0.78
16888,0.50
17056,-0.04
17227,-0.74
17399,-1.53
17573,-2.41
17749,-3.36
17926,-4.46
18106,-5.56
18287,-6.50
18470,-7.42
18654,-8.29
18841,-9.06
19029,-9.92
19220,-10.75
19412,-12.00
19606,-13.39
19802,-14.21
20000,-14.97
