frequency,raw
20,1.67
21,1.82
22,1.96
23,2.08
24,2.21
25,2.35
26,2.49
27,2.63
28,2.76
29,2.88
30,2.98
31,3.09
32,3.16
33,3.21
34,3.26
35,3.29
36,3.33
37,3.37
38,3.41
39,3.45
40,3.49
41,3.54
42,3.59
43,3.64
44,3.68
45,3.72
46,3.75
47,3.79
48,3.82
49,3.84
50,3.87
51,3.89
52,3.91
53,3.93
54,3.94
55,3.96
56,3.97
57,3.98
58,3.99
59,4.00
60,4.01
61,4.04
62,4.06
63,4.09
64,4.13
65,4.15
66,4.15
67,4.15
68,4.14
69,4.13
70,4.12
71,4.12
72,4.12
73,4.13
74,4.15
75,4.15
76,4.15
77,4.14
78,4.14
79,4.14
80,4.15
81,4.16
82,4.16
83,4.16
84,4.16
85,4.16
86,4.15
87,4.14
88,4.14
89,4.14
90,4.14
91,4.13
92,4.13
93,4.11
94,4.11
95,4.10
96,4.09
97,4.09
98,4.08
99,4.06
100,4.04
101,4.01
102,3.98
104,3.94
105,3.93
106,3.91
107,3.91
108,3.91
109,3.90
110,3.88
111,3.87
112,3.85
113,3.83
114,3.80
115,3.79
117,3.73
118,3.70
119,3.68
120,3.67
121,3.66
123,3.65
124,3.65
125,3.62
126,3.60
128,3.53
129,3.48
130,3.44
131,3.41
133,3.36
134,3.35
135,3.35
137,3.31
138,3.29
140,3.22
141,3.19
142,3.15
144,3.10
145,3.07
147,3.03
148,3.03
150,3.00
151,2.98
153,2.94
154,2.90
156,2.84
157,2.81
159,2.75
160,2.73
162,2.70
164,2.68
165,2.65
167,2.61
169,2.55
170,2.52
172,2.45
174,2.38
175,2.35
177,2.27
179,2.19
181,2.12
183,2.06
184,2.03
186,1.99
188,1.94
190,1.88
192,1.80
194,1.72
196,1.64
198,1.54
200,1.46
202,1.38
204,1.30
206,1.23
208,1.15
210,1.09
212,1.02
214,0.96
216,0.90
218,0.83
221,0.73
223,0.65
225,0.56
227,0.48
229,0.39
232,0.28
234,0.20
236,0.14
239,0.04
241,-0.02
244,-0.12
246,-0.19
248,-0.26
251,-0.36
253,-0.44
256,-0.57
259,-0.73
261,-0.85
264,-1.08
266,-1.24
269,-1.53
272,-1.84
274,-2.04
277,-2.33
280,-2.58
283,-2.78
286,-2.93
288,-3.00
291,-3.06
294,-3.08
297,-3.07
300,-3.04
303,-3.02
306,-3.00
309,-3.00
312,-3.02
316,-3.06
319,-3.10
322,-3.16
325,-3.22
328,-3.29
332,-3.38
335,-3.45
338,-3.52
342,-3.61
345,-3.68
349,-3.76
352,-3.82
356,-3.92
359,-4.00
363,-4.11
366,-4.19
370,-4.29
374,-4.39
377,-4.46
381,-4.55
385,-4.62
389,-4.67
393,-4.71
397,-4.73
401,-4.72
405,-4.70
409,-4.67
413,-4.62
417,-4.57
421,-4.52
425,-4.48
430,-4.43
434,-4.41
438,-4.38
443,-4.37
447,-4.37
451,-4.36
456,-4.32
460,-4.29
465,-4.24
470,-4.20
474,-4.17
479,-4.15
484,-4.15
489,-4.16
494,-4.15
499,-4.14
504,-4.12
509,-4.10
514,-4.06
519,-4.02
524,-4.00
529,-3.97
535,-3.92
540,-3.89
545,-3.86
551,-3.82
556,-3.77
562,-3.72
568,-3.67
573,-3.62
579,-3.57
585,-3.50
591,-3.45
596,-3.40
602,-3.34
608,-3.28
615,-3.21
621,-3.15
627,-3.09
633,-3.03
639,-2.96
646,-2.89
652,-2.82
659,-2.75
665,-2.69
672,-2.61
679,-2.54
686,-2.46
692,-2.40
699,-2.33
706,-2.25
713,-2.19
721,-2.11
728,-2.02
735,-1.94
742,-1.84
750,-1.75
757,-1.67
765,-1.59
773,-1.52
780,-1.47
788,-1.40
796,-1.35
804,-1.31
812,-1.25
820,-1.21
828,-1.17
837,-1.11
845,-1.05
853,-0.98
862,-0.90
871,-0.81
879,-0.75
888,-0.69
897,-0.64
906,-0.58
915,-0.53
924,-0.48
933,-0.43
943,-0.37
952,-0.31
962,-0.26
971,-0.19
981,-0.12
991,-0.05
1001,0.01
1011,0.06
1021,0.10
1031,0.13
1041,0.15
1052,0.18
1062,0.21
1073,0.24
1084,0.27
1094,0.29
1105,0.31
1116,0.32
1128,0.32
1139,0.33
1150,0.33
1162,0.35
1173,0.37
1185,0.39
1197,0.41
1209,0.44
1221,0.45
1233,0.45
1246,0.46
1258,0.46
1271,0.46
1283,0.46
1296,0.44
1309,0.43
1322,0.41
1335,0.39
1349,0.37
1362,0.35
1376,0.33
1390,0.32
1404,0.31
1418,0.32
1432,0.33
1446,0.34
1461,0.34
1475,0.34
1490,0.33
1505,0.32
1520,0.31
1535,0.30
1550,0.29
1566,0.30
1582,0.31
1597,0.33
1613,0.35
1629,0.37
1646,0.40
1662,0.43
1679,0.47
1696,0.51
1713,0.55
1730,0.58
1747,0.62
1764,0.65
1782,0.69
1800,0.74
1818,0.78
1836,0.81
1854,0.86
1873,0.92
1892,1.00
1911,1.08
1930,1.17
1949,1.26
1969,1.35
1988,1.45
2008,1.56
2028,1.68
2048,1.81
2069,1.95
2090,2.08
2111,2.22
2132,2.39
2153,2.56
2175,2.75
2196,2.95
2218,3.18
2240,3.41
2263,3.68
2285,3.93
2308,4.17
2331,4.39
2355,4.62
2378,4.82
2402,5.06
2426,5.29
2450,5.52
2475,5.79
2500,6.04
2525,6.27
2550,6.46
2575,6.59
2601,6.68
2627,6.70
2653,6.67
2680,6.63
2707,6.60
2734,6.62
2761,6.68
2789,6.79
2817,6.94
2845,7.09
2873,7.23
2902,7.36
2931,7.46
2960,7.53
2990,7.60
3020,7.64
3050,7.69
3080,7.68
3111,7.65
3142,7.60
3174,7.52
3206,7.43
3238,7.36
3270,7.31
3303,7.30
3336,7.31
3369,7.36
3403,7.43
3437,7.52
3471,7.60
3506,7.68
3541,7.72
3576,7.75
3612,7.73
3648,7.66
3685,7.55
3721,7.39
3759,7.15
3796,6.89
3834,6.58
3873,6.22
3911,5.85
3950,5.45
3990,5.02
4030,4.58
4070,4.14
4111,3.67
4152,3.18
4193,2.68
4235,2.16
4278,1.60
4321,1.07
4364,0.58
4407,0.13
4451,-0.30
4496,-0.71
4541,-1.10
4586,-1.48
4632,-1.86
4679,-2.24
4725,-2.63
4773,-3.03
4820,-3.41
4868,-3.79
4917,-4.15
4966,-4.47
5016,-4.75
5066,-4.97
5117,-5.18
5168,-5.33
5220,-5.47
5272,-5.61
5325,-5.73
5378,-5.83
5432,-5.91
5486,-5.99
5541,-6.03
5596,-6.07
5652,-6.09
5709,-6.10
5766,-6.09
5823,-6.06
5882,-5.98
5940,-5.91
6000,-5.83
6060,-5.73
6120,-5.67
6182,-5.62
6244,-5.61
6306,-5.63
6369,-5.66
6433,-5.69
6497,-5.77
6562,-5.85
6628,-5.99
6694,-6.14
6761,-6.28
6828,-6.39
6897,-6.48
6966,-6.52
7035,-6.52
7106,-6.51
7177,-6.50
7249,-6.52
7321,-6.61
7394,-6.75
7468,-6.90
7543,-7.06
7618,-7.13
7694,-7.10
7771,-6.91
7849,-6.47
7928,-5.87
8007,-5.11
8087,-4.10
8168,-3.02
8250,-1.89
8332,-0.84
8415,0.03
8499,0.74
8584,1.14
8670,1.29
8757,1.24
8845,0.98
8933,0.83
9022,0.57
9113,0.10
9204,-0.08
9296,-0.12
9389,-0.64
9483,-1.09
9577,-1.36
9673,-1.53
9770,-1.59
9868,-1.60
9966,-1.54
10066,-1.43
10167,-1.33
10268,-1.24
10371,-1.27
10475,-1.40
10579,-1.53
10685,-1.66
10792,-1.91
10900,-2.21
11009,-2.59
11119,-2.93
11230,-3.17
11343,-3.19
11456,-2.98
11571,-3.40
11686,-3.94
11803,-3.79
11921,-4.20
12040,-4.90
12161,-5.31
12282,-6.19
12405,-7.16
12529,-8.13
12655,-9.14
12781,-10.10
12909,-11.02
13038,-11.82
13168,-12.65
13300,-13.44
13433,-14.35
13567,-15.53
13703,-16.89
13840,-18.47
13978,-19.77
14118,-20.75
14259,-21.27
14402,-21.09
14546,-20.59
14692,-19.80
14838,-18.86
14987,-18.01
15137,-17.28
15288,-16.91
15441,-16.86
15595,-17.08
15751,-17.73
15909,-18.69
16068,-19.85
16229,-21.21
16391,-22.39
16555,-23.28
16720,-23.74
16888,-23.40
17056,-22.74
17227,-21.79
17399,-20.86
17573,-20.17
17749,-19.71
17926,-19.71
18106,-19.96
18287,-20.37
18470,-20.94
18654,-21.57
18841,-22.24
19029,-22.90
19220,-23.46
19412,-23.88
19606,-24.14
19802,-24.03
20000,-23.71
