frequency,raw,error,smoothed,error_smoothed,equalization,equalized_raw,equalized_smoothed,target
20,-13.01874259090783,-13.804628791753698,-13.03642444832073,-13.822295301940464,5.999999999999998,-7.0187425909078325,-7.036424448320732,0.785886200845868
21,-12.531148999991624,-13.317016248599906,-12.483411951200418,-13.269281554060315,6.0,-6.531148999991624,-6.483411951200418,0.7858672486082812
22,-11.939780795050149,-12.725623251686581,-11.944599715985925,-12.730454487027224,6.0,-5.939780795050149,-5.944599715985925,0.7858424566364333
23,-11.360629030223654,-12.146439448925113,-11.41998774267725,-12.205814100841192,6.0,-5.360629030223654,-5.41998774267725,0.7858104187014585
24,-10.93737567144165,-11.723145147095783,-10.909576031274383,-11.695360395502204,5.999999999999997,-4.937375671441653,-4.909576031274386,0.7857694756541327
25,-10.406390854945148,-11.192108538923813,-10.413885260723408,-11.199615526291058,6.0,-4.406390854945148,-4.413885260723408,0.7857176839786661
26,-9.927927250244538,-10.713580032293645,-9.932264668192463,-10.717927275809998,6.000000000000001,-3.9279272502445375,-3.9322646681924622,0.7856527820491079
27,-9.448411772963023,-10.233983927000564,-9.464176046756988,-10.249755868485213,6.0,-3.4484117729630235,-3.4641760467569878,0.7855721540375402
28,-9.012752575586829,-9.79822536701554,-9.00893635836561,-9.794415682641176,6.0,-3.0127525755868287,-3.0089363583656095,0.785472791428711
29,-8.62436274997864,-9.409714002080094,-8.565808123026766,-9.351165618663376,6.000000000000002,-2.624362749978639,-2.5658081230267644,0.7853512521014525
30,-8.122152019139264,-8.907355636084276,-8.134265136545917,-8.919475393411378,6.0,-2.122152019139264,-2.134265136545917,0.7852036169450121
31,-7.691446038386606,-8.476471482373425,-7.713809394360563,-8.498842256875356,5.999999999999999,-1.6914460383866068,-1.7138093943605641,0.785025443986819
32,-7.280802384672164,-8.06561410469075,-7.3039084495631466,-8.088728508535581,6.0,-1.280802384672164,-1.3039084495631466,0.784811720018586
33,-6.888986151487786,-7.673542961207567,-6.903860992183142,-7.688427075366025,6.000000000000001,-0.888986151487785,-0.9038609921831409,0.7845568097197813
34,-6.51487305540484,-7.299127457696654,-6.512684537183837,-7.296949095905211,6.0,-0.5148730554048404,-0.5126845371838371,0.7842544022918139
35,-6.15743660543379,-6.94133406106687,-6.129146098476456,-6.913054544777826,6.000000000000001,-0.157436605433789,-0.12914609847645497,0.7838974556330802
36,-5.786757525290931,-6.5702356633955645,-5.751882189655238,-6.535372130722333,5.932460198212151,0.14570267292122008,0.18057800855691308,0.7834781381046327
37,-5.338049947265605,-6.121037715224669,-5.379614928125349,-6.162615315771482,5.791794627819845,0.45374468055424,0.4121796996944962,0.7829877679590638
38,-5.0143867600855865,-5.796803510617263,-5.011404607465611,-5.793834817701857,5.584038464861567,0.5696517047759801,0.5726338573959557,0.7824167505316759
39,-4.6756238894628295,-5.457378402786288,-4.6468628474888245,-5.428631689447857,5.328005581683281,0.6523816922204517,0.6811427341944567,0.7817545133234582
40,-4.268742590907818,-5.049732030048254,-4.286271169416971,-5.067275832269399,5.035947252805924,0.7672046618981057,0.7496760833889526,0.7809894391404364
41,-3.9633666990426657,-4.743475496536535,-3.930554637994274,-4.710679573795282,4.7106795737952805,0.7473128747526148,0.7801249358010063,0.7801087974938694
42,-3.5995848849751173,-4.37868355948631,-3.5810943629565655,-4.36021010211828,4.36021010211828,0.7606252171431631,0.779115739161715,0.7790986745111934
43,-3.196442770947109,-3.9743866726060313,-3.2394018494066144,-4.017363746601818,4.017363746601817,0.8209209756547082,0.7779618971952029,0.7779439016589222
44,-2.8913986599422903,-3.668026643578689,-2.9067205268826335,-3.683367434568475,3.683367434568475,0.7919687746261848,0.7766469076858415,0.7766279836363985
45,-2.5718258151811217,-3.3469588410449624,-2.5836605758292954,-3.3588134445988844,3.3588134445988844,0.7869876294177627,0.775152868769589,0.7751330258638407
46,-2.2991573544589743,-3.0725970165188174,-2.269989023977475,-3.043449429911952,3.0434494299119526,0.7442920754529783,0.7734604059344776,0.7734396620598432
47,-1.935023074403192,-2.706550056885998,-1.9646739888119726,-2.736222588664143,2.736222588664143,0.8011995142609509,0.7715485998521703,0.7715269824828064
48,-1.6299014681797568,-2.399273931677576,-1.6662134596171914,-2.4356083754499513,2.4356083754499513,0.8057069072701946,0.76939491583276,0.7693724634978194
49,-1.3834326897315643,-2.150384588957076,-1.3731783735349379,-2.1401535089780532,2.1401535089780523,0.756720819246488,0.7669751354431145,0.7669518992255115
50,-1.144991348537903,-1.9092306846700837,-1.0848024508009302,-1.849065741869353,1.8490657418693528,0.7040743933314497,0.7642632910684226,0.7642393361321806
51,-0.8639721380853684,-1.6251791496162764,-0.8014000856204803,-1.5626316899899249,1.562631689989925,0.6986595519045566,0.7612316043694448,0.761207011530908
52,-0.5400756322357629,-1.297900929316629,-0.5244223255790257,-1.2822727552958337,1.2822727552958335,0.7421971230600706,0.7578504297168078,0.7578252970808661
53,-0.19959414556054805,-0.953656794056317,-0.25607410870724256,-1.0101623125560057,1.010162312556006,0.8105681669954579,0.7540882038487634,0.7540626484957689
54,0.030790633693083824,-0.7190949291081989,0.001420332153286721,-0.74849107095472,0.7484910709547199,0.7792817046478038,0.7499114031080066,0.7498855628012828
55,0.2893239392640527,-0.4559346053495728,0.24666453912174008,-0.4986199706160892,0.4986199706160892,0.787943909880142,0.7452845097378293,0.7452585446136255
56,0.48567600280004847,-0.2544680802453216,0.4797355992825918,-0.26043438956890136,0.26043438956890136,0.7461103923689498,0.7401699888514932,0.74014408304537
57,0.7292909773949023,-0.005211663582243231,0.7023597652242048,-0.032168512593978196,0.03216851259397821,0.7614594899888806,0.7345282778181831,0.7345026409771456
58,0.9607315117228656,0.2324388531607513,0.9175073574674906,0.18918956752646954,-0.1891895675264696,0.771541944196396,0.7283177899410209,0.7282926585621143
59,1.0387021447810796,0.3172315718310774,1.1285130180675012,0.407018083643504,-0.407018083643504,0.6316840611375756,0.7214949344239971,0.7214705729500022
60,1.2973688359809257,0.5833779796565606,1.3380168765670546,0.624002721835692,-0.6240027218356919,0.6733661141452337,0.7140141547313626,0.7139908563243651
61,1.4799411024650846,0.7741350280297308,1.5471055573483312,0.8412775698171133,-0.8412775698171135,0.638663532647971,0.7058279875312177,0.7058060744353538
62,1.7429918425004804,1.0461248746261296,1.7549705424348465,1.0580833979569535,-1.0580833979569535,0.684908444543527,0.696887144477893,0.6968669678743509
63,2.0010289171977798,1.3139063588281252,1.9592144288086626,1.2720738096918942,-1.2720738096918942,0.7289551075058855,0.6871406191167684,0.6871225583696545
64,2.1706299690708346,1.4941096866945642,2.156695264075256,1.4801594428555251,-1.4801594428555256,0.690470526215309,0.6765358212197303,0.6765202823762704
65,2.4021113452268725,1.7371051910470645,2.344600841747,1.679582101108736,-1.6795821011087355,0.722529244118137,0.6650187406382644,0.665006154179808
66,2.5676865999208,1.915161639294931,2.521367053971622,1.8688329110010407,-1.8688329110010415,0.6988536889197583,0.6525341429705804,0.6525249606258687
67,2.7125746362363867,2.0735541468229006,2.6871253339467023,2.048099534720118,-2.0480995347201176,0.6644751015162691,0.6390257992265846,0.6390204894134861
68,2.8050286551587718,2.180592862513307,2.843550546196366,2.2191137955649793,-2.2191137955649802,0.5859148595937915,0.6244367506313857,0.6244357926454649
69,2.9494415283432143,2.3407280413414138,2.9932051818404553,2.384495572859883,-2.384495572859883,0.5649459554833314,0.6087096089805724,0.6087134870018005
70,3.1261363689542336,2.534340277466794,3.1386491961371528,2.5468623020685586,-2.5468623020685595,0.5792740668856742,0.5917868940685933,0.5917960914874398
71,3.2712795179524203,2.697653114755607,3.281643107609365,2.708031696002363,-2.708031696002363,0.5632478219500574,0.5736114116070019,0.5736264031968132
72,3.367269325662353,2.8131214147314014,3.422702537906645,2.868575863817489,-2.868575863817489,0.49869346184486396,0.5541266740891562,0.5541479109309515
73,3.5827861656294684,3.0494809198317028,3.561105745861786,3.0278283862134736,-3.0278283862134736,0.5549577794159948,0.5332773596483125,0.5333052457977656
74,3.7465577875597296,3.235513120435432,3.6952828340975987,3.184273036082984,-3.1842730360829843,0.5622847514767453,0.5110097980146144,0.5110446671242976
75,3.8471433435914113,3.359828762473428,3.8233942122423876,3.3361217442905455,-3.3361217442905455,0.5110215993008658,0.4872724679518421,0.4873145811179831
76,3.927011861847852,3.4649457731048146,3.9438747907146507,3.4818582935201343,-3.481858293520135,0.4451535683277168,0.46201649719451554,0.46206608874303745
77,4.057615755145163,3.6223621969009603,4.055777078009962,3.6205808878184853,-3.6205808878184853,0.4370348673266773,0.4351961901914767,0.4352535582442023
78,4.148838476106689,3.7420032594318813,4.1588527896248495,3.7520831299411483,-3.7520831299411483,0.3967553461655404,0.40676965968370116,0.4068352166748075
79,4.249933404756306,3.873159651059477,4.253416223431381,3.8767165783652304,-3.876716578365232,0.373216826391074,0.3766996450661484,0.3767737536968294
80,4.3498418718321,4.004804941982109,4.340093448905948,3.995138957908964,-3.9951389579089644,0.3547029139231359,0.34495449099698394,0.3450369298499911
81,4.389748124381469,4.078149943908587,4.419567072357211,4.1080580438665235,-4.108058043866524,0.28169008051494426,0.3115090284906863,0.311598180472882
82,4.550740986875846,4.27430378133243,4.492390372113526,4.216045486278037,-4.216045486278038,0.3346955005978085,0.27634488583548844,0.276437205543417
83,4.550627560621631,4.311087025688144,4.558894099236307,4.319444343358736,-4.319444343358737,0.23118321726289448,0.2394497558775699,0.23954053493348715
84,4.550580898245459,4.349678840256182,4.6191710296236295,4.41835541483403,-4.41835541483403,0.13222548341142915,0.2008156147895992,0.20090205798927796
85,4.703101319613476,4.5425778136141854,4.673111561773682,4.5126746584333635,-4.5126746584333635,0.19042666118011287,0.1604369033403188,0.16052350599929088
86,4.752096989496077,4.633682113457891,4.720473151533291,4.602162301735771,-4.6021623017357705,0.1499346877603065,0.11831084979752049,0.11841487603818557
87,4.752646518895534,4.67805173398404,4.76097963661152,4.6865371186703975,-4.686537118670398,0.06610940022513567,0.07444251794112144,0.07459478491149385
88,4.75350539866209,4.724414656161121,4.794448043192348,4.765592231650715,-4.765592231650715,-0.012086832988625673,0.02885581154163308,0.02909074250096877
89,4.8552486246807165,4.873309289942546,4.8209262283447005,4.8393179961538015,-4.8393179961538015,0.01593062852691496,-0.01839176780910101,-0.01806066526182981
90,4.856662582216263,4.9234762744994125,4.840802228779571,4.907999597305508,-4.907999597305508,-0.0513370150892456,-0.06719736852593705,-0.0668136922831497
91,4.858174845016343,4.975288298936752,4.8548310723381904,4.972245346980616,-4.972245346980615,-0.11407050196427182,-0.11741427464242449,-0.11711345392040906
92,4.8595437493213165,5.028439808569998,4.864033614001594,5.03290988187851,-5.03290988187851,-0.17336613255719335,-0.16887626787691623,-0.16889605924868167
93,4.8604320541020165,5.082520910805741,4.869460952994605,5.090908742555158,-5.090908742555158,-0.23047668845314107,-0.22144778956055244,-0.22208885670372425
94,4.860418943223796,5.137029736639477,4.87187529864246,5.146966032595372,-5.146966032595372,-0.2865470893715756,-0.2750907339529114,-0.27661079341568096
95,4.8590258827771375,5.19139876878425,4.871448422440878,5.201373976257486,-5.201373976257486,-0.3423480934803482,-0.32992555381660793,-0.33237288600711246
96,4.85575502121698,5.245033819259582,4.86759627039452,5.253852979353865,-5.253852979353864,-0.39809795813688353,-0.38625670895934405,-0.38927879804260135
97,4.850136687552436,5.297362204328513,4.859038881377268,5.303575122574468,-5.303575122574467,-0.45343843502203107,-0.44453624119719937,-0.447225516776077
98,4.841780791962892,5.347884911402704,4.844103019602175,5.34935944066992,-5.349359440669921,-0.5075786487070291,-0.5052564210677462,-0.5061041194398124
99,4.830425915954657,5.3962265331012285,4.821195709931276,5.389984763143706,-5.389984763143705,-0.5595588471890478,-0.5687890532124289,-0.5658006171465715
100,4.815979810808164,5.442176673424757,4.78930735726487,5.424522678109451,-5.424522678109453,-0.6085428673012885,-0.6352153208445825,-0.6261968626165926
101,4.798545929592435,5.485717436057036,4.7483843053361685,5.452588448033065,-5.452588448033066,-0.6540425184406313,-0.7042041426968977,-0.6871715064646011
102,4.778432333606448,5.52703331935019,4.699451195863543,5.47444171707637,-5.4744417170763695,-0.6960093834699217,-0.7749905212128265,-0.7486009857437428
104,4.554992099713707,5.427317252753996,4.644446781833251,5.490924632895848,-5.490924632895848,-0.9359325331821413,-0.8464778510625974,-0.8723251530402893
105,4.531192645050153,5.465563303478973,4.585829801685283,5.503277793117013,-5.503277793117013,-0.97208514806686,-0.9174479914317297,-0.9343706584288203
106,4.506675502198191,5.503050070968807,4.526079100920892,5.51290356773832,-5.512903567738318,-1.0062280655401272,-0.986824466817426,-0.9963745687706158
107,4.482299481022385,5.540516519647372,4.4672317404601305,5.521144112345491,-5.52114411234549,-1.038844631323105,-1.0539123718853594,-1.0582170386249867
108,4.458931126349108,5.578712820040755,4.410573752676507,5.529116399600582,-5.529116399600582,-1.0701852732514743,-1.118542646924075,-1.1197816936916474
109,4.352852698718455,5.533809098925815,4.356539909096153,5.537617425573087,-5.537617425573089,-1.1847647268546337,-1.181077516476936,-1.1809564002073594
110,4.296130786735088,5.537764740335762,4.304816567791324,5.547094168614915,-5.5470941686149144,-1.250963381879826,-1.2422776008235905,-1.2416339536006729
111,4.2012796371034815,5.502992316872696,4.254593925877444,5.557667782961108,-5.55766778296111,-1.3563881458576281,-1.3030738570836657,-1.301712679769215
112,4.1887911662593815,5.549888110829636,4.204888476366068,5.569202953582359,-5.56920295358236,-1.3804117873229789,-1.3643144772162925,-1.3610969445702543
113,4.1799151591149935,5.599612728412009,4.1548519451703045,5.581411523988381,-5.58141152398838,-1.4014963648733865,-1.4265595788180754,-1.419697569297016
114,4.16082114568095,5.638253297663198,4.103994831474434,5.593970240482491,-5.593970240482493,-1.4331490948015428,-1.4899754090080588,-1.4774321519822475
115,4.074713345566924,5.608938641838202,4.052276890264308,5.606620765413513,-5.606620765413516,-1.5319074198465916,-1.5543438751492085,-1.5342252962712783
117,3.972502290693088,5.617223758100822,4.000051546375986,5.619217786875176,-5.619217786875175,-1.646715496182087,-1.6191662404991884,-1.644721467407734
118,3.9316232159172517,5.629932789780255,3.9478924406692157,5.631707053848832,-5.63170705384883,-1.7000838379315781,-1.6838146131796141,-1.698309573863003
119,3.880742446672529,5.631468732023238,3.896367253151327,5.64404585197642,-5.6440458519764185,-1.7633034053038896,-1.7476785988250914,-1.750726285350709
120,3.8320092998409376,5.633941044879924,3.845841513142736,5.65610836081385,-5.6561083608138505,-1.8240990609729129,-1.8102668476711146,-1.8019317450389858
121,3.794311044569589,5.646203856662123,3.796382415944996,5.667629708285386,-5.667629708285387,-1.8733186637157977,-1.8712472923403904,-1.8518928120925344
123,3.76021651444,5.7081977010749245,3.747790819240846,5.6782256463558625,-5.6782256463558625,-1.9180091319158623,-1.9304348271150165,-1.947981186634924
124,3.7092896920686913,5.703362957545837,3.6997344551482407,5.6874855545759875,-5.687485554575988,-1.978195862507297,-1.9877510994277476,-1.9940732654771458
125,3.6703444636925555,5.709194273300652,3.6519116839112375,5.69509484805949,-5.69509484805949,-2.0247503843669348,-2.0431831641482527,-2.038849809608097
126,3.6232651646903253,5.705571856092205,3.6041647359475224,5.7009226062264045,-5.700922606226404,-2.0776574415360782,-2.096757870278881,-2.0823066914018797
128,3.5292789767218777,5.694547146124474,3.5564903481819066,5.705024320992603,-5.705024320992605,-2.175745344270727,-2.1485339728106982,-2.1652681694025966
129,3.4871953484381586,5.691981913112961,3.508949691765598,5.707551628563893,-5.707551628563895,-2.220356280125736,-2.1986019367982967,-2.204786564674803
130,3.440468263170308,5.68348039310186,3.4615311828616773,5.708608991887971,-5.708608991887972,-2.268140728717664,-2.2470778090262944,-2.2430121299315524
131,3.4456900547441647,5.72565055748357,3.414043282064847,5.708126570611141,-5.7081265706111415,-2.262436515866977,-2.2940832885462945,-2.279960502739406
133,3.3595063156328773,5.709608377128536,3.3660982694245067,5.7058131951259625,-5.7058131951259625,-2.3463068794930853,-2.339714925701456,-2.3501020614956585
134,3.3296731092982723,5.7130124549066625,3.3172015218816964,5.701216000754464,-5.7012160007544646,-2.3715428914561922,-2.384014478872768,-2.38333934560839
135,3.25750319847057,5.672890194377524,3.2669087419286233,5.693863331780113,-5.693863331780115,-2.436360133309545,-2.4269545898514915,-2.4153869959069536
137,3.236306482381468,5.7123273710355225,3.21498232973987,5.683430406323359,-5.683430406323358,-2.4471239239418896,-2.4684480765834875,-2.476020888654055
138,3.1688796237867463,5.673543484630206,3.1614812019463487,5.66985988510568,-5.669859885105679,-2.500980261318933,-2.5083786831593304,-2.5046638608434595
140,3.0825225664489304,5.641272705044267,3.106751230877297,5.653392483155295,-5.653392483155295,-2.5708699167063642,-2.5466412522779978,-2.558750138595337
141,3.0655727063727385,5.649827160393891,3.0513272054442773,5.634502273121921,-5.634502273121922,-2.5689295667491834,-2.5831750676776446,-2.5842544540211527
142,2.9982203061671147,5.606994376739236,2.995789862489686,5.6137675749887785,-5.613767574988779,-2.6155472688216648,-2.6179777124990933,-2.6087740705721214
144,2.9139888521021735,5.5689721167294355,2.9406292735055857,5.5917254115000095,-5.591725411500009,-2.677736559397835,-2.651096137994423,-2.6549832646272615
145,2.865297766628068,5.542032373650505,2.886150155878595,5.568752011227502,-5.568752011227502,-2.7034542445994343,-2.6826018553489073,-2.6767346070224365
147,2.8649702849516316,5.582653505761682,2.8324294143084594,5.5449927543651025,-5.544992754365102,-2.68002246941347,-2.7125633400566422,-2.7176832208100508
148,2.8000492609467167,5.536989544400017,2.779317472226581,5.52034589918204,-5.520345899182038,-2.7202966382353213,-2.741028426955457,-2.7369402834532996
150,2.720764023046361,5.493929560472143,2.7264706913319445,5.4944942081703605,-5.494494208170361,-2.7737301851240006,-2.768023516838417,-2.773165537425782
151,2.663204802631129,5.45339498827957,2.673409309339683,5.466977085007544,-5.466977085007545,-2.803772282376416,-2.793567775667862,-2.79019018564844
153,2.5805120895662217,5.4027117541524134,2.6196027357565574,5.437296246529005,-5.437296246529005,-2.8567841569627834,-2.8176935107724477,-2.8221996645861918
154,2.563432040052152,5.400668857630341,2.56458137900594,5.405043083147986,-5.405043083147985,-2.8416110430958335,-2.8404617041420455,-2.837236817578189
156,2.5455028387794787,5.4110040107047395,2.5080590793026007,5.370023877195862,-5.370023877195864,-2.8245210384163855,-2.8619647978932634,-2.8655011719252608
157,2.4845990841234173,5.363375261117559,2.450031916974149,5.332347171576075,-5.332347171576075,-2.8477480874526573,-2.8823152546019255,-2.878776176994142
159,2.3640148860757453,5.267740472521557,2.390812703752366,5.292437626653582,-5.292437626653583,-2.9284227405778376,-2.9016249229012168,-2.9037255864458116
160,2.3638230557383637,5.279266243481113,2.3309758650210237,5.250959890556854,-5.250959890556854,-2.8871368348184903,-2.9199840255358303,-2.9154431877427496
162,2.2520083382356537,5.189474840361176,2.271221767684308,5.208670099339808,-5.208670099339809,-2.9566617611041552,-2.937448331655501,-2.937466502125522
