frequency,raw,error,smoothed,error_smoothed,equalization,parametric_eq,fixed_band_eq,equalized_raw,equalized_smoothed,target
20.00,7.48,2.63,7.47,2.60,-2.60,-2.53,-0.49,4.88,4.87,4.84
20.20,7.44,2.54,7.43,2.52,-2.52,-2.53,-0.51,4.91,4.91,4.89
20.40,7.40,2.45,7.39,2.45,-2.45,-2.53,-0.53,4.95,4.94,4.94
20.61,7.36,2.39,7.35,2.38,-2.38,-2.52,-0.54,4.98,4.98,4.97
20.81,7.33,2.30,7.32,2.31,-2.31,-2.51,-0.56,5.01,5.01,5.02
21.02,7.29,2.22,7.28,2.25,-2.25,-2.48,-0.58,5.04,5.03,5.06
21.23,7.24,2.16,7.24,2.18,-2.18,-2.46,-0.59,5.05,5.06,5.08
21.44,7.20,2.09,7.21,2.12,-2.12,-2.43,-0.61,5.07,5.08,5.10
21.66,7.16,2.04,7.17,2.07,-2.07,-2.39,-0.63,5.09,5.10,5.12
21.87,7.10,1.98,7.13,2.01,-2.01,-2.35,-0.65,5.09,5.12,5.13
22.09,7.08,1.93,7.10,1.96,-1.96,-2.31,-0.67,5.11,5.14,5.15
22.31,7.06,1.90,7.06,1.91,-1.91,-2.27,-0.69,5.14,5.15,5.16
22.54,7.04,1.88,7.03,1.87,-1.87,-2.22,-0.71,5.16,5.16,5.16
22.76,7.02,1.86,6.99,1.84,-1.84,-2.17,-0.73,5.18,5.16,5.16
22.99,7.00,1.85,6.96,1.80,-1.80,-2.12,-0.76,5.20,5.16,5.15
23.22,6.96,1.81,6.93,1.77,-1.77,-2.06,-0.78,5.19,5.16,5.15
23.45,6.91,1.76,6.90,1.74,-1.74,-2.01,-0.80,5.17,5.16,5.15
23.69,6.87,1.71,6.87,1.71,-1.71,-1.95,-0.82,5.16,5.16,5.16
23.92,6.82,1.66,6.84,1.68,-1.68,-1.90,-0.85,5.14,5.16,5.16
24.16,6.79,1.62,6.81,1.65,-1.65,-1.85,-0.87,5.14,5.16,5.17
24.40,6.77,1.59,6.78,1.62,-1.62,-1.79,-0.90,5.15,5.16,5.18
24.65,6.74,1.57,6.75,1.59,-1.59,-1.74,-0.92,5.15,5.16,5.17
24.89,6.71,1.55,6.72,1.55,-1.55,-1.69,-0.95,5.16,5.16,5.16
25.14,6.69,1.52,6.68,1.52,-1.52,-1.64,-0.97,5.17,5.17,5.16
25.39,6.66,1.49,6.65,1.48,-1.48,-1.59,-1.00,5.19,5.17,5.17
25.65,6.64,1.46,6.61,1.44,-1.44,-1.54,-1.03,5.19,5.17,5.17
25.91,6.61,1.44,6.58,1.41,-1.41,-1.49,-1.05,5.20,5.17,5.16
26.16,6.56,1.40,6.55,1.38,-1.38,-1.44,-1.08,5.19,5.17,5.16
26.43,6.52,1.35,6.51,1.35,-1.35,-1.40,-1.10,5.17,5.17,5.16
26.69,6.48,1.31,6.48,1.31,-1.31,-1.36,-1.13,5.16,5.16,5.16
26.96,6.43,1.26,6.44,1.28,-1.28,-1.31,-1.15,5.14,5.16,5.17
27.23,6.39,1.22,6.41,1.25,-1.25,-1.27,-1.17,5.14,5.16,5.17
27.50,6.36,1.19,6.37,1.21,-1.21,-1.24,-1.20,5.14,5.16,5.17
27.77,6.33,1.17,6.34,1.18,-1.18,-1.20,-1.22,5.15,5.16,5.16
28.05,6.30,1.14,6.30,1.14,-1.14,-1.16,-1.24,5.15,5.16,5.16
28.33,6.27,1.12,6.27,1.12,-1.12,-1.13,-1.26,5.15,5.16,5.15
28.62,6.25,1.10,6.24,1.09,-1.09,-1.10,-1.28,5.16,5.16,5.15
28.90,6.23,1.07,6.21,1.06,-1.06,-1.06,-1.30,5.17,5.16,5.15
29.19,6.19,1.04,6.18,1.03,-1.03,-1.03,-1.31,5.16,5.15,5.14
29.48,6.16,0.99,6.15,1.00,-1.00,-1.00,-1.33,5.16,5.15,5.16
29.78,6.12,0.96,6.12,0.96,-0.96,-0.98,-1.34,5.15,5.15,5.15
30.08,6.09,0.93,6.09,0.94,-0.94,-0.95,-1.35,5.15,5.15,5.16
30.38,6.07,0.92,6.06,0.91,-0.91,-0.92,-1.36,5.16,5.15,5.15
30.68,6.05,0.90,6.02,0.88,-0.88,-0.90,-1.36,5.17,5.15,5.15
30.99,6.03,0.88,5.99,0.85,-0.85,-0.88,-1.37,5.18,5.15,5.15
31.30,5.97,0.82,5.96,0.82,-0.82,-0.86,-1.37,5.15,5.15,5.15
31.61,5.91,0.76,5.93,0.79,-0.79,-0.83,-1.37,5.12,5.15,5.15
31.93,5.85,0.70,5.90,0.76,-0.76,-0.81,-1.37,5.09,5.14,5.14
32.24,5.84,0.70,5.87,0.73,-0.73,-0.80,-1.37,5.10,5.14,5.13
32.57,5.84,0.69,5.84,0.71,-0.71,-0.78,-1.36,5.13,5.14,5.14
32.89,5.84,0.70,5.81,0.68,-0.68,-0.76,-1.35,5.15,5.13,5.14
33.22,5.82,0.69,5.78,0.65,-0.65,-0.74,-1.34,5.16,5.13,5.13
33.55,5.78,0.65,5.75,0.63,-0.63,-0.73,-1.33,5.15,5.12,5.13
33.89,5.74,0.62,5.73,0.61,-0.61,-0.71,-1.32,5.13,5.12,5.11
34.23,5.71,0.58,5.70,0.58,-0.58,-0.70,-1.30,5.12,5.12,5.12
34.57,5.68,0.56,5.68,0.56,-0.56,-0.69,-1.29,5.11,5.11,5.11
34.92,5.66,0.55,5.65,0.54,-0.54,-0.67,-1.27,5.11,5.11,5.11
35.27,5.63,0.52,5.63,0.52,-0.52,-0.66,-1.25,5.10,5.11,5.11
35.62,5.59,0.48,5.61,0.50,-0.50,-0.65,-1.23,5.08,5.11,5.11
35.97,5.56,0.45,5.59,0.48,-0.48,-0.64,-1.21,5.08,5.11,5.10
36.33,5.56,0.44,5.56,0.46,-0.46,-0.63,-1.19,5.10,5.11,5.11
36.70,5.55,0.45,5.54,0.43,-0.43,-0.62,-1.17,5.11,5.11,5.10
37.06,5.54,0.44,5.52,0.41,-0.41,-0.61,-1.15,5.13,5.11,5.10
37.43,5.51,0.39,5.50,0.39,-0.39,-0.60,-1.13,5.12,5.11,5.11
37.81,5.48,0.36,5.48,0.37,-0.37,-0.59,-1.10,5.11,5.11,5.11
38.19,5.46,0.35,5.46,0.35,-0.35,-0.59,-1.08,5.11,5.11,5.11
38.57,5.46,0.34,5.45,0.33,-0.33,-0.58,-1.06,5.12,5.11,5.12
38.95,5.46,0.33,5.43,0.32,-0.32,-0.57,-1.03,5.14,5.12,5.12
39.34,5.43,0.30,5.42,0.30,-0.30,-0.57,-1.01,5.13,5.12,5.12
39.74,5.39,0.27,5.40,0.28,-0.28,-0.56,-0.99,5.10,5.12,5.12
40.14,5.36,0.23,5.39,0.27,-0.27,-0.56,-0.96,5.09,5.12,5.12
40.54,5.36,0.23,5.37,0.25,-0.25,-0.55,-0.94,5.10,5.12,5.12
40.94,5.36,0.24,5.36,0.24,-0.24,-0.55,-0.92,5.12,5.12,5.12
41.35,5.36,0.24,5.34,0.22,-0.22,-0.55,-0.90,5.13,5.12,5.11
41.76,5.36,0.25,5.32,0.21,-0.21,-0.54,-0.88,5.14,5.11,5.11
42.18,5.34,0.22,5.31,0.20,-0.20,-0.54,-0.85,5.13,5.10,5.12
42.60,5.30,0.19,5.29,0.19,-0.19,-0.54,-0.83,5.11,5.10,5.10
43.03,5.26,0.16,5.27,0.18,-0.18,-0.54,-0.81,5.07,5.09,5.10
43.46,5.26,0.16,5.25,0.17,-0.17,-0.53,-0.79,5.08,5.08,5.09
43.90,5.26,0.19,5.24,0.17,-0.17,-0.53,-0.77,5.09,5.07,5.07
44.33,5.23,0.17,5.22,0.16,-0.16,-0.53,-0.75,5.06,5.06,5.05
44.78,5.19,0.15,5.21,0.16,-0.16,-0.53,-0.74,5.03,5.05,5.04
45.23,5.17,0.13,5.20,0.16,-0.16,-0.53,-0.72,5.01,5.04,5.03
45.68,5.17,0.15,5.18,0.16,-0.16,-0.53,-0.70,5.01,5.03,5.02
46.13,5.17,0.16,5.17,0.16,-0.16,-0.53,-0.68,5.01,5.02,5.00
46.60,5.17,0.16,5.17,0.16,-0.16,-0.53,-0.67,5.00,5.01,5.01
47.06,5.17,0.17,5.16,0.17,-0.17,-0.54,-0.65,5.00,4.99,4.99
47.53,5.17,0.18,5.16,0.18,-0.18,-0.54,-0.64,4.99,4.98,4.99
48.01,5.17,0.18,5.16,0.19,-0.19,-0.54,-0.62,4.98,4.97,4.99
48.49,5.17,0.19,5.16,0.20,-0.20,-0.54,-0.61,4.97,4.96,4.97
48.97,5.17,0.21,5.16,0.21,-0.21,-0.54,-0.60,4.96,4.95,4.96
49.46,5.17,0.23,5.16,0.22,-0.22,-0.55,-0.58,4.95,4.94,4.94
49.96,5.17,0.24,5.16,0.23,-0.23,-0.55,-0.57,4.94,4.93,4.92
50.46,5.17,0.24,5.17,0.24,-0.24,-0.56,-0.56,4.92,4.92,4.92
50.96,5.17,0.25,5.17,0.25,-0.25,-0.56,-0.55,4.92,4.92,4.92
51.47,5.17,0.27,5.17,0.26,-0.26,-0.56,-0.54,4.91,4.91,4.90
51.99,5.17,0.28,5.17,0.27,-0.27,-0.57,-0.53,4.90,4.90,4.89
52.51,5.17,0.28,5.17,0.28,-0.28,-0.57,-0.52,4.89,4.89,4.89
53.03,5.17,0.27,5.17,0.29,-0.29,-0.58,-0.51,4.88,4.88,4.89
53.56,5.17,0.28,5.17,0.30,-0.30,-0.59,-0.51,4.87,4.88,4.88
54.10,5.17,0.29,5.17,0.30,-0.30,-0.59,-0.50,4.87,4.87,4.87
54.64,5.17,0.30,5.17,0.30,-0.30,-0.60,-0.49,4.87,4.87,4.86
55.18,5.17,0.30,5.16,0.30,-0.30,-0.61,-0.49,4.87,4.86,4.86
55.74,5.17,0.31,5.15,0.29,-0.29,-0.61,-0.48,4.87,4.86,4.85
56.29,5.17,0.32,5.14,0.29,-0.29,-0.62,-0.48,4.87,4.85,4.85
56.86,5.17,0.33,5.13,0.29,-0.29,-0.63,-0.48,4.87,4.84,4.84
57.42,5.16,0.34,5.13,0.30,-0.30,-0.64,-0.48,4.86,4.83,4.82
58.00,5.15,0.33,5.12,0.30,-0.30,-0.65,-0.48,4.84,4.82,4.81
58.58,5.10,0.28,5.12,0.32,-0.32,-0.66,-0.48,4.78,4.80,4.81
59.16,5.07,0.27,5.12,0.33,-0.33,-0.67,-0.48,4.73,4.78,4.80
59.76,5.07,0.28,5.11,0.35,-0.35,-0.68,-0.48,4.71,4.76,4.78
60.35,5.07,0.32,5.11,0.37,-0.37,-0.69,-0.49,4.69,4.74,4.75
60.96,5.07,0.34,5.12,0.40,-0.40,-0.70,-0.49,4.66,4.71,4.73
61.57,5.13,0.43,5.12,0.43,-0.43,-0.71,-0.50,4.69,4.69,4.69
62.18,5.17,0.51,5.12,0.47,-0.47,-0.73,-0.51,4.70,4.66,4.65
62.80,5.17,0.55,5.13,0.51,-0.51,-0.74,-0.52,4.66,4.62,4.62
63.43,5.17,0.58,5.14,0.55,-0.55,-0.75,-0.53,4.62,4.59,4.58
64.07,5.17,0.62,5.15,0.59,-0.59,-0.77,-0.54,4.57,4.56,4.55
64.71,5.17,0.66,5.15,0.64,-0.64,-0.78,-0.55,4.53,4.52,4.51
65.35,5.17,0.69,5.16,0.68,-0.68,-0.79,-0.57,4.48,4.48,4.48
66.01,5.17,0.72,5.17,0.73,-0.73,-0.81,-0.58,4.44,4.44,4.44
66.67,5.17,0.76,5.17,0.77,-0.77,-0.83,-0.60,4.40,4.41,4.40
67.33,5.17,0.80,5.17,0.81,-0.81,-0.84,-0.62,4.36,4.37,4.36
68.01,5.17,0.83,5.17,0.84,-0.84,-0.86,-0.64,4.33,4.33,4.33
68.69,5.17,0.87,5.16,0.87,-0.87,-0.88,-0.66,4.29,4.29,4.29
69.37,5.17,0.91,5.16,0.91,-0.91,-0.89,-0.68,4.26,4.25,4.25
70.07,5.17,0.96,5.16,0.95,-0.95,-0.91,-0.70,4.21,4.21,4.21
70.77,5.17,0.99,5.16,1.00,-1.00,-0.93,-0.73,4.17,4.17,4.18
71.48,5.17,1.03,5.17,1.05,-1.05,-0.95,-0.75,4.12,4.12,4.13
72.19,5.17,1.09,5.17,1.10,-1.10,-0.97,-0.78,4.07,4.08,4.08
72.91,5.17,1.13,5.18,1.15,-1.15,-1.00,-0.81,4.02,4.03,4.04
73.64,5.17,1.17,5.19,1.20,-1.20,-1.02,-0.84,3.97,3.99,3.99
74.38,5.17,1.22,5.20,1.25,-1.25,-1.04,-0.87,3.92,3.95,3.95
75.12,5.18,1.28,5.21,1.30,-1.30,-1.06,-0.90,3.88,3.90,3.90
75.87,5.24,1.38,5.21,1.35,-1.35,-1.09,-0.93,3.88,3.86,3.85
76.63,5.26,1.44,5.22,1.40,-1.40,-1.11,-0.97,3.86,3.82,3.82
77.40,5.26,1.48,5.23,1.45,-1.45,-1.14,-1.00,3.81,3.78,3.78
78.17,5.26,1.53,5.23,1.49,-1.49,-1.17,-1.04,3.77,3.74,3.73
78.95,5.26,1.54,5.24,1.53,-1.53,-1.19,-1.07,3.72,3.71,3.71
79.74,5.26,1.58,5.25,1.57,-1.57,-1.22,-1.11,3.68,3.67,3.67
80.54,5.26,1.61,5.25,1.62,-1.62,-1.25,-1.15,3.64,3.64,3.64
81.35,5.26,1.66,5.26,1.66,-1.66,-1.28,-1.19,3.60,3.60,3.60
82.16,5.26,1.69,5.27,1.70,-1.70,-1.31,-1.24,3.56,3.57,3.57
82.98,5.26,1.71,5.28,1.74,-1.74,-1.34,-1.28,3.52,3.54,3.55
83.81,5.26,1.75,5.28,1.77,-1.77,-1.37,-1.32,3.48,3.51,3.50
84.65,5.26,1.78,5.29,1.81,-1.81,-1.41,-1.37,3.44,3.47,3.47
85.50,5.27,1.82,5.30,1.85,-1.85,-1.44,-1.42,3.41,3.44,3.45
86.35,5.31,1.89,5.31,1.90,-1.90,-1.48,-1.46,3.41,3.41,3.41
87.22,5.36,1.97,5.32,1.94,-1.94,-1.51,-1.51,3.41,3.38,3.38
88.09,5.36,2.01,5.33,1.99,-1.99,-1.55,-1.56,3.37,3.34,3.35
88.97,5.36,2.05,5.34,2.03,-2.03,-1.59,-1.61,3.32,3.31,3.31
89.86,5.36,2.08,5.35,2.07,-2.07,-1.63,-1.67,3.28,3.27,3.27
90.76,5.36,2.12,5.36,2.12,-2.12,-1.67,-1.72,3.24,3.24,3.24
91.66,5.37,2.15,5.37,2.16,-2.16,-1.71,-1.78,3.21,3.21,3.21
92.58,5.37,2.20,5.37,2.19,-2.19,-1.75,-1.83,3.17,3.18,3.16
93.51,5.37,2.23,5.37,2.23,-2.23,-1.79,-1.89,3.14,3.14,3.14
94.44,5.37,2.26,5.37,2.26,-2.26,-1.83,-1.95,3.11,3.11,3.11
95.39,5.37,2.28,5.36,2.29,-2.29,-1.88,-2.01,3.08,3.08,3.08
96.34,5.36,2.31,5.35,2.31,-2.31,-1.92,-2.07,3.05,3.05,3.04
97.30,5.36,2.34,5.35,2.33,-2.33,-1.97,-2.13,3.03,3.02,3.02
98.28,5.35,2.36,5.34,2.35,-2.35,-2.01,-2.19,3.00,2.99,2.99
99.26,5.33,2.37,5.32,2.37,-2.37,-2.06,-2.26,2.96,2.96,2.96
100.25,5.31,2.38,5.31,2.38,-2.38,-2.11,-2.32,2.92,2.93,2.93
101.25,5.29,2.39,5.29,2.40,-2.40,-2.16,-2.38,2.89,2.90,2.90
102.27,5.28,2.41,5.28,2.41,-2.41,-2.20,-2.45,2.87,2.87,2.87
103.29,5.27,2.43,5.26,2.42,-2.42,-2.25,-2.51,2.85,2.84,2.83
104.32,5.25,2.43,5.24,2.43,-2.43,-2.30,-2.57,2.82,2.81,2.81
105.37,5.23,2.44,5.21,2.44,-2.44,-2.35,-2.64,2.79,2.77,2.78
106.42,5.20,2.44,5.19,2.45,-2.45,-2.40,-2.70,2.75,2.74,2.75
107.48,5.18,2.46,5.17,2.46,-2.46,-2.45,-2.76,2.71,2.71,2.71
108.56,5.15,2.47,5.15,2.48,-2.48,-2.50,-2.82,2.67,2.68,2.67
109.64,5.13,2.48,5.14,2.50,-2.50,-2.55,-2.87,2.63,2.64,2.64
110.74,5.12,2.51,5.13,2.52,-2.52,-2.59,-2.93,2.60,2.61,2.61
111.85,5.10,2.51,5.12,2.54,-2.54,-2.64,-2.98,2.56,2.58,2.59
112.97,5.09,2.55,5.10,2.56,-2.56,-2.69,-3.03,2.52,2.54,2.54
114.10,5.08,2.57,5.09,2.58,-2.58,-2.73,-3.08,2.49,2.51,2.51
115.24,5.08,2.59,5.09,2.60,-2.60,-2.78,-3.12,2.48,2.48,2.48
116.39,5.08,2.63,5.08,2.62,-2.62,-2.82,-3.16,2.46,2.46,2.44
117.55,5.09,2.66,5.07,2.64,-2.64,-2.86,-3.20,2.45,2.43,2.43
118.73,5.09,2.69,5.07,2.66,-2.66,-2.90,-3.23,2.43,2.41,2.40
119.92,5.10,2.70,5.06,2.68,-2.68,-2.94,-3.26,2.42,2.39,2.39
121.12,5.11,2.74,5.06,2.69,-2.69,-2.98,-3.28,2.41,2.37,2.36
122.33,5.08,2.73,5.07,2.71,-2.71,-3.01,-3.30,2.36,2.35,2.35
123.55,5.04,2.69,5.07,2.73,-2.73,-3.04,-3.31,2.31,2.34,2.34
124.79,5.03,2.70,5.07,2.75,-2.75,-3.07,-3.32,2.28,2.32,2.33
126.03,5.04,2.72,5.07,2.76,-2.76,-3.09,-3.32,2.28,2.31,2.31
127.29,5.05,2.74,5.06,2.77,-2.77,-3.11,-3.31,2.28,2.30,2.31
128.57,5.05,2.76,5.06,2.77,-2.77,-3.13,-3.31,2.27,2.28,2.28
129.85,5.06,2.79,5.05,2.78,-2.78,-3.15,-3.29,2.28,2.27,2.27
131.15,5.06,2.80,5.04,2.78,-2.78,-3.16,-3.27,2.28,2.26,2.26
132.46,5.07,2.82,5.03,2.78,-2.78,-3.17,-3.25,2.28,2.25,2.24
133.79,5.07,2.83,5.02,2.78,-2.78,-3.17,-3.22,2.28,2.23,2.23
135.12,5.05,2.83,5.01,2.79,-2.79,-3.17,-3.19,2.26,2.22,2.21
136.48,5.00,2.79,4.99,2.78,-2.78,-3.17,-3.16,2.21,2.21,2.21
137.84,4.96,2.77,4.98,2.78,-2.78,-3.16,-3.12,2.18,2.20,2.19
139.22,4.92,2.75,4.95,2.77,-2.77,-3.15,-3.08,2.15,2.18,2.17
140.61,4.89,2.73,4.93,2.76,-2.76,-3.14,-3.03,2.13,2.17,2.15
142.02,4.89,2.73,4.90,2.75,-2.75,-3.12,-2.99,2.14,2.15,2.15
143.44,4.89,2.75,4.87,2.74,-2.74,-3.10,-2.94,2.14,2.13,2.13
144.87,4.89,2.78,4.85,2.75,-2.75,-3.08,-2.89,2.14,2.10,2.11
146.32,4.86,2.78,4.83,2.75,-2.75,-3.05,-2.83,2.10,2.07,2.08
147.78,4.81,2.74,4.80,2.77,-2.77,-3.02,-2.78,2.04,2.04,2.06
149.26,4.75,2.72,4.78,2.79,-2.79,-2.99,-2.73,1.96,2.00,2.03
150.75,4.70,2.72,4.76,2.81,-2.81,-2.96,-2.67,1.88,1.95,1.97
152.26,4.70,2.78,4.75,2.85,-2.85,-2.92,-2.62,1.85,1.90,1.92
153.78,4.70,2.83,4.72,2.88,-2.88,-2.88,-2.56,1.82,1.85,1.87
155.32,4.70,2.89,4.69,2.90,-2.90,-2.84,-2.51,1.80,1.79,1.80
156.88,4.70,2.96,4.65,2.92,-2.92,-2.80,-2.46,1.78,1.73,1.74
158.44,4.66,2.99,4.60,2.93,-2.93,-2.75,-2.40,1.73,1.67,1.67
160.03,4.60,3.00,4.54,2.92,-2.92,-2.70,-2.35,1.67,1.61,1.60
161.63,4.53,2.99,4.47,2.91,-2.91,-2.66,-2.30,1.61,1.56,1.54
163.24,4.48,2.99,4.41,2.90,-2.90,-2.61,-2.25,1.57,1.51,1.48
164.88,4.41,2.96,4.34,2.88,-2.88,-2.56,-2.20,1.53,1.46,1.45
166.53,4.31,2.90,4.28,2.85,-2.85,-2.51,-2.15,1.45,1.43,1.41
168.19,4.21,2.83,4.21,2.82,-2.82,-2.46,-2.10,1.39,1.40,1.38
169.87,4.09,2.74,4.15,2.78,-2.78,-2.41,-2.06,1.31,1.37,1.35
171.57,3.99,2.64,4.08,2.73,-2.73,-2.35,-2.02,1.26,1.36,1.34
173.29,3.92,2.58,4.02,2.68,-2.68,-2.30,-1.97,1.24,1.34,1.33
175.02,3.89,2.55,3.97,2.63,-2.63,-2.25,-1.93,1.26,1.34,1.34
176.77,3.88,2.54,3.93,2.59,-2.59,-2.20,-1.89,1.29,1.34,1.33
178.54,3.88,2.54,3.89,2.55,-2.55,-2.15,-1.85,1.32,1.34,1.34
180.32,3.89,2.53,3.86,2.52,-2.52,-2.10,-1.82,1.37,1.34,1.35
182.13,3.89,2.52,3.84,2.49,-2.49,-2.05,-1.78,1.39,1.34,1.37
183.95,3.90,2.53,3.82,2.48,-2.48,-2.00,-1.75,1.42,1.35,1.36
185.79,3.83,2.46,3.81,2.46,-2.46,-1.95,-1.72,1.36,1.35,1.37
187.65,3.75,2.39,3.79,2.45,-2.45,-1.90,-1.69,1.30,1.34,1.35
189.52,3.75,2.39,3.77,2.43,-2.43,-1.85,-1.66,1.32,1.34,1.35
191.42,3.76,2.42,3.74,2.40,-2.40,-1.80,-1.63,1.35,1.34,1.34
193.33,3.76,2.43,3.70,2.37,-2.37,-1.76,-1.60,1.39,1.33,1.33
195.27,3.67,2.35,3.65,2.33,-2.33,-1.71,-1.58,1.33,1.32,1.32
197.22,3.62,2.31,3.59,2.29,-2.29,-1.67,-1.55,1.33,1.30,1.30
199.19,3.59,2.30,3.54,2.24,-2.24,-1.62,-1.53,1.34,1.29,1.28
201.18,3.52,2.24,3.47,2.19,-2.19,-1.58,-1.51,1.32,1.28,1.27
203.19,3.41,2.14,3.40,2.14,-2.14,-1.53,-1.49,1.26,1.26,1.26
205.23,3.31,2.06,3.33,2.09,-2.09,-1.49,-1.47,1.22,1.25,1.24
207.28,3.22,1.97,3.26,2.03,-2.03,-1.45,-1.45,1.19,1.23,1.24
209.35,3.13,1.90,3.19,1.97,-1.97,-1.41,-1.43,1.15,1.22,1.22
211.44,3.07,1.87,3.11,1.91,-1.91,-1.37,-1.41,1.16,1.21,1.20
213.56,3.05,1.85,3.03,1.84,-1.84,-1.33,-1.39,1.21,1.19,1.20
215.69,2.99,1.80,2.95,1.76,-1.76,-1.30,-1.38,1.22,1.19,1.19
217.85,2.91,1.73,2.87,1.69,-1.69,-1.26,-1.36,1.21,1.18,1.18
220.03,2.80,1.62,2.79,1.61,-1.61,-1.22,-1.34,1.18,1.17,1.17
222.23,2.72,1.56,2.71,1.53,-1.53,-1.19,-1.33,1.18,1.17,1.16
224.45,2.67,1.50,2.63,1.45,-1.45,-1.15,-1.31,1.21,1.17,1.17
226.70,2.59,1.41,2.56,1.38,-1.38,-1.12,-1.29,1.20,1.18,1.17
228.96,2.56,1.37,2.50,1.31,-1.31,-1.09,-1.28,1.25,1.19,1.18
231.25,2.48,1.28,2.44,1.24,-1.24,-1.06,-1.26,1.23,1.20,1.20
233.57,2.36,1.14,2.39,1.18,-1.18,-1.03,-1.24,1.18,1.21,1.21
235.90,2.27,1.04,2.35,1.12,-1.12,-1.00,-1.22,1.15,1.23,1.23
238.26,2.23,0.99,2.31,1.06,-1.06,-0.97,-1.21,1.16,1.25,1.24
240.64,2.24,0.97,2.30,1.03,-1.03,-0.94,-1.19,1.21,1.27,1.26
243.05,2.25,0.95,2.30,1.01,-1.01,-0.91,-1.17,1.24,1.30,1.30
245.48,2.27,0.94,2.31,0.99,-0.99,-0.88,-1.14,1.27,1.32,1.32
247.93,2.30,0.94,2.33,0.98,-0.98,-0.85,-1.12,1.31,1.35,1.36
250.41,2.40,1.02,2.35,0.98,-0.98,-0.83,-1.10,1.42,1.37,1.37
252.92,2.43,1.02,2.39,0.99,-0.99,-0.80,-1.07,1.44,1.40,1.41
255.45,2.44,1.00,2.43,1.00,-1.00,-0.78,-1.05,1.43,1.43,1.44
258.00,2.50,1.03,2.48,1.02,-1.02,-0.75,-1.02,1.47,1.45,1.46
260.58,2.55,1.07,2.53,1.05,-1.05,-0.73,-1.00,1.50,1.48,1.48
263.19,2.63,1.11,2.57,1.07,-1.07,-0.70,-0.97,1.56,1.51,1.51
265.82,2.65,1.12,2.61,1.08,-1.08,-0.68,-0.94,1.57,1.54,1.53
268.48,2.65,1.09,2.64,1.08,-1.08,-0.66,-0.91,1.57,1.56,1.56
271.16,2.64,1.04,2.67,1.08,-1.08,-0.63,-0.88,1.56,1.59,1.59
273.87,2.64,1.03,2.69,1.07,-1.07,-0.61,-0.85,1.57,1.62,1.61
276.61,2.72,1.07,2.70,1.05,-1.05,-0.59,-0.81,1.66,1.64,1.65
279.38,2.74,1.06,2.69,1.02,-1.02,-0.57,-0.78,1.71,1.67,1.67
282.17,2.70,1.00,2.68,0.98,-0.98,-0.55,-0.75,1.71,1.70,1.70
284.99,2.66,0.92,2.67,0.93,-0.93,-0.53,-0.71,1.72,1.73,1.74
287.84,2.66,0.90,2.64,0.88,-0.88,-0.51,-0.68,1.78,1.76,1.75
290.72,2.66,0.86,2.60,0.81,-0.81,-0.49,-0.64,1.85,1.79,1.79
293.63,2.55,0.73,2.56,0.73,-0.73,-0.47,-0.61,1.81,1.82,1.82
296.57,2.51,0.65,2.51,0.66,-0.66,-0.45,-0.57,1.85,1.85,1.86
299.53,2.51,0.62,2.46,0.58,-0.58,-0.44,-0.53,1.92,1.88,1.88
302.53,2.42,0.51,2.41,0.49,-0.49,-0.42,-0.50,1.92,1.91,1.90
305.55,2.29,0.34,2.33,0.40,-0.40,-0.40,-0.46,1.89,1.94,1.95
308.61,2.17,0.20,2.25,0.29,-0.29,-0.38,-0.42,1.88,1.96,1.97
311.69,2.16,0.16,2.17,0.18,-0.18,-0.37,-0.39,1.97,1.99,1.99
314.81,2.12,0.09,2.08,0.07,-0.07,-0.35,-0.35,2.04,2.01,2.02
317.96,2.00,-0.05,1.99,-0.05,0.05,-0.33,-0.31,2.04,2.03,2.04
321.14,1.91,-0.14,1.88,-0.17,0.17,-0.32,-0.27,2.07,2.05,2.05
324.35,1.86,-0.21,1.78,-0.29,0.29,-0.30,-0.23,2.15,2.07,2.07
327.59,1.75,-0.34,1.68,-0.41,0.41,-0.28,-0.20,2.15,2.09,2.09
330.87,1.58,-0.52,1.57,-0.53,0.53,-0.27,-0.16,2.11,2.10,2.09
334.18,1.43,-0.69,1.46,-0.66,0.66,-0.25,-0.12,2.08,2.11,2.11
337.52,1.31,-0.82,1.35,-0.78,0.78,-0.24,-0.08,2.08,2.13,2.12
340.90,1.23,-0.91,1.23,-0.90,0.90,-0.22,-0.05,2.13,2.13,2.14
344.30,1.13,-1.02,1.12,-1.02,1.02,-0.21,-0.01,2.15,2.14,2.15
347.75,0.97,-1.18,1.00,-1.14,1.14,-0.19,0.03,2.11,2.15,2.15
351.23,0.87,-1.29,0.90,-1.26,1.26,-0.18,0.07,2.12,2.15,2.16
354.74,0.83,-1.33,0.80,-1.36,1.36,-0.16,0.11,2.18,2.16,2.15
358.28,0.74,-1.43,0.70,-1.46,1.46,-0.15,0.15,2.19,2.16,2.16
361.87,0.62,-1.55,0.61,-1.55,1.55,-0.13,0.18,2.17,2.16,2.16
365.49,0.54,-1.64,0.54,-1.63,1.63,-0.12,0.22,2.16,2.17,2.17
369.14,0.43,-1.73,0.47,-1.70,1.70,-0.11,0.26,2.12,2.17,2.16
372.83,0.37,-1.79,0.40,-1.76,1.76,-0.09,0.30,2.13,2.16,2.16
376.56,0.37,-1.79,0.34,-1.82,1.82,-0.08,0.34,2.18,2.16,2.16
380.33,0.35,-1.82,0.30,-1.86,1.86,-0.06,0.38,2.21,2.16,2.17
384.13,0.30,-1.87,0.27,-1.89,1.89,-0.05,0.42,2.18,2.16,2.17
387.97,0.28,-1.88,0.25,-1.90,1.90,-0.03,0.46,2.18,2.15,2.16
391.85,0.22,-1.93,0.24,-1.91,1.91,-0.02,0.49,2.13,2.15,2.14
395.77,0.20,-1.96,0.24,-1.90,1.90,-0.01,0.53,2.10,2.14,2.15
399.73,0.23,-1.92,0.27,-1.87,1.87,0.01,0.57,2.10,2.14,2.14
403.72,0.27,-1.88,0.30,-1.83,1.83,0.02,0.61,2.10,2.13,2.14
407.76,0.30,-1.84,0.35,-1.78,1.78,0.04,0.65,2.07,2.13,2.13
411.84,0.37,-1.77,0.42,-1.71,1.71,0.05,0.69,2.08,2.13,2.13
415.96,0.50,-1.64,0.49,-1.64,1.64,0.06,0.73,2.14,2.13,2.13
420.12,0.59,-1.54,0.57,-1.56,1.56,0.08,0.77,2.15,2.13,2.13
424.32,0.67,-1.46,0.66,-1.47,1.47,0.09,0.80,2.14,2.14,2.13
428.56,0.74,-1.40,0.76,-1.39,1.39,0.11,0.84,2.12,2.15,2.14
432.85,0.86,-1.29,0.86,-1.31,1.31,0.12,0.88,2.16,2.16,2.15
437.18,1.02,-1.14,0.96,-1.22,1.22,0.13,0.92,2.24,2.18,2.16
441.55,1.11,-1.09,1.07,-1.14,1.14,0.15,0.95,2.25,2.21,2.20
445.96,1.19,-1.04,1.17,-1.07,1.07,0.16,0.99,2.26,2.24,2.23
450.42,1.30,-0.96,1.27,-1.01,1.01,0.18,1.03,2.30,2.28,2.26
454.93,1.39,-0.92,1.37,-0.95,0.95,0.19,1.06,2.34,2.32,2.31
459.48,1.46,-0.90,1.45,-0.91,0.91,0.21,1.09,2.36,2.36,2.36
464.07,1.53,-0.88,1.53,-0.88,0.88,0.22,1.13,2.41,2.41,2.41
468.71,1.58,-0.89,1.60,-0.85,0.85,0.24,1.16,2.43,2.46,2.46
473.40,1.64,-0.87,1.68,-0.83,0.83,0.26,1.19,2.46,2.51,2.50
478.13,1.77,-0.80,1.75,-0.81,0.81,0.27,1.22,2.57,2.56,2.56
482.91,1.86,-0.75,1.82,-0.78,0.78,0.29,1.25,2.64,2.60,2.60
487.74,1.89,-0.76,1.90,-0.74,0.74,0.30,1.28,2.63,2.64,2.64
492.62,1.92,-0.78,1.97,-0.71,0.71,0.32,1.30,2.62,2.68,2.69
497.55,1.94,-0.78,2.03,-0.68,0.68,0.34,1.33,2.61,2.71,2.71
502.52,1.97,-0.78,2.06,-0.67,0.67,0.35,1.35,2.64,2.73,2.74
507.55,1.99,-0.77,2.07,-0.67,0.67,0.37,1.38,2.66,2.75,2.75
512.62,2.03,-0.74,2.07,-0.68,0.68,0.39,1.40,2.71,2.75,2.76
517.75,2.14,-0.64,2.04,-0.71,0.71,0.41,1.42,2.84,2.75,2.77
522.93,2.15,-0.62,1.99,-0.75,0.75,0.43,1.44,2.89,2.74,2.76
528.16,2.11,-0.63,1.90,-0.82,0.82,0.45,1.46,2.92,2.72,2.73
533.44,2.08,-0.63,1.77,-0.92,0.92,0.46,1.48,2.99,2.69,2.70
538.77,1.84,-0.84,1.62,-1.03,1.03,0.48,1.50,2.87,2.65,2.67
544.16,1.44,-1.18,1.45,-1.16,1.16,0.50,1.51,2.60,2.61,2.62
549.60,1.21,-1.36,1.26,-1.30,1.30,0.52,1.53,2.50,2.56,2.57
