frequency,raw,error,smoothed,error_smoothed,equalization,parametric_eq,equalized_raw,equalized_smoothed,target
20,0.65,-3.25,0.59,-3.32,3.32,0.22,3.97,3.91,3.91
21,0.93,-2.97,0.93,-2.97,2.97,0.26,3.91,3.90,3.90
22,1.23,-2.67,1.26,-2.64,2.64,0.31,3.88,3.90,3.90
23,1.52,-2.38,1.57,-2.33,2.33,0.36,3.86,3.90,3.90
24,1.81,-2.08,1.86,-2.03,2.03,0.41,3.85,3.90,3.90
25,2.09,-1.80,2.14,-1.76,1.76,0.47,3.85,3.89,3.89
26,2.36,-1.53,2.40,-1.49,1.49,0.52,3.86,3.89,3.89
27,2.62,-1.26,2.64,-1.25,1.25,0.56,3.87,3.89,3.89
28,2.87,-1.01,2.87,-1.02,1.02,0.60,3.89,3.88,3.88
29,3.09,-0.78,3.07,-0.80,0.80,0.63,3.90,3.88,3.88
30,3.30,-0.57,3.26,-0.61,0.61,0.65,3.91,3.87,3.87
31,3.48,-0.38,3.44,-0.43,0.43,0.65,3.92,3.87,3.87
32,3.62,-0.24,3.59,-0.27,0.27,0.64,3.90,3.86,3.86
33,3.74,-0.11,3.73,-0.13,0.13,0.61,3.87,3.86,3.86
34,3.85,0.00,3.85,-0.00,0.00,0.58,3.86,3.85,3.85
35,3.95,0.11,3.95,0.11,-0.11,0.53,3.85,3.84,3.84
36,4.03,0.20,4.04,0.20,-0.20,0.48,3.83,3.83,3.83
37,4.09,0.27,4.11,0.28,-0.28,0.43,3.81,3.83,3.83
38,4.15,0.34,4.17,0.35,-0.35,0.38,3.80,3.82,3.82
39,4.20,0.40,4.21,0.41,-0.41,0.32,3.80,3.81,3.81
40,4.24,0.45,4.25,0.45,-0.45,0.26,3.79,3.80,3.80
41,4.26,0.48,4.28,0.49,-0.49,0.21,3.77,3.78,3.78
42,4.29,0.52,4.30,0.53,-0.53,0.15,3.77,3.77,3.77
43,4.30,0.55,4.31,0.55,-0.55,0.10,3.75,3.76,3.76
44,4.31,0.57,4.31,0.57,-0.57,0.05,3.74,3.74,3.74
45,4.31,0.58,4.31,0.58,-0.58,-0.00,3.73,3.73,3.73
46,4.30,0.59,4.31,0.59,-0.59,-0.05,3.71,3.71,3.71
47,4.29,0.60,4.29,0.60,-0.60,-0.10,3.70,3.70,3.70
48,4.27,0.59,4.28,0.60,-0.60,-0.15,3.68,3.68,3.68
49,4.25,0.59,4.26,0.59,-0.59,-0.19,3.66,3.66,3.66
50,4.23,0.59,4.23,0.59,-0.59,-0.24,3.65,3.64,3.64
51,4.20,0.58,4.20,0.58,-0.58,-0.28,3.63,3.62,3.62
52,4.17,0.57,4.17,0.57,-0.57,-0.32,3.61,3.60,3.60
53,4.14,0.56,4.14,0.55,-0.55,-0.36,3.59,3.58,3.58
54,4.10,0.54,4.10,0.54,-0.54,-0.40,3.56,3.56,3.56
55,4.06,0.53,4.06,0.52,-0.52,-0.43,3.54,3.54,3.54
56,4.01,0.50,4.02,0.51,-0.51,-0.46,3.50,3.51,3.51
57,3.97,0.49,3.98,0.49,-0.49,-0.49,3.48,3.49,3.49
58,3.92,0.46,3.94,0.48,-0.48,-0.52,3.45,3.46,3.46
59,3.88,0.45,3.90,0.46,-0.46,-0.54,3.42,3.43,3.43
60,3.83,0.43,3.85,0.45,-0.45,-0.56,3.39,3.41,3.41
61,3.79,0.42,3.81,0.43,-0.43,-0.57,3.36,3.38,3.38
62,3.75,0.41,3.76,0.42,-0.42,-0.58,3.34,3.35,3.35
63,3.72,0.41,3.72,0.40,-0.40,-0.59,3.32,3.32,3.32
64,3.69,0.41,3.67,0.38,-0.38,-0.59,3.31,3.28,3.28
65,3.65,0.40,3.62,0.37,-0.37,-0.59,3.29,3.25,3.25
66,3.59,0.37,3.57,0.35,-0.35,-0.59,3.24,3.22,3.22
67,3.53,0.35,3.52,0.34,-0.34,-0.58,3.20,3.19,3.19
68,3.46,0.31,3.47,0.32,-0.32,-0.58,3.15,3.15,3.15
69,3.40,0.29,3.42,0.30,-0.30,-0.57,3.10,3.12,3.12
70,3.35,0.27,3.37,0.29,-0.29,-0.56,3.07,3.08,3.08
71,3.29,0.25,3.31,0.27,-0.27,-0.55,3.02,3.04,3.04
72,3.25,0.25,3.26,0.26,-0.26,-0.53,3.00,3.01,3.01
73,3.20,0.24,3.21,0.25,-0.25,-0.52,2.96,2.97,2.97
74,3.17,0.24,3.17,0.24,-0.24,-0.51,2.94,2.93,2.93
75,3.12,0.23,3.12,0.23,-0.23,-0.49,2.89,2.89,2.89
76,3.08,0.23,3.08,0.22,-0.22,-0.48,2.86,2.85,2.85
77,3.02,0.21,3.03,0.22,-0.22,-0.47,2.80,2.81,2.81
78,2.98,0.21,2.99,0.22,-0.22,-0.45,2.76,2.77,2.77
79,2.94,0.21,2.95,0.22,-0.22,-0.44,2.72,2.73,2.73
80,2.91,0.22,2.91,0.22,-0.22,-0.43,2.69,2.69,2.69
81,2.88,0.23,2.88,0.23,-0.23,-0.41,2.66,2.65,2.65
82,2.84,0.24,2.84,0.23,-0.23,-0.40,2.61,2.61,2.61
83,2.80,0.24,2.80,0.24,-0.24,-0.39,2.57,2.57,2.57
84,2.77,0.25,2.77,0.24,-0.24,-0.38,2.53,2.53,2.53
85,2.74,0.26,2.74,0.25,-0.25,-0.37,2.49,2.48,2.48
86,2.69,0.25,2.70,0.26,-0.26,-0.36,2.43,2.44,2.44
87,2.66,0.26,2.67,0.27,-0.27,-0.35,2.39,2.40,2.40
88,2.63,0.27,2.64,0.28,-0.28,-0.34,2.35,2.36,2.36
89,2.60,0.29,2.61,0.29,-0.29,-0.33,2.31,2.32,2.32
90,2.57,0.30,2.58,0.30,-0.30,-0.32,2.27,2.28,2.28
91,2.54,0.31,2.55,0.31,-0.31,-0.32,2.23,2.24,2.24
92,2.51,0.32,2.52,0.32,-0.32,-0.31,2.19,2.20,2.19
93,2.48,0.33,2.48,0.33,-0.33,-0.30,2.15,2.16,2.15
94,2.45,0.34,2.45,0.34,-0.34,-0.29,2.12,2.11,2.11
95,2.41,0.34,2.42,0.34,-0.34,-0.29,2.07,2.07,2.07
96,2.38,0.35,2.38,0.35,-0.35,-0.28,2.03,2.03,2.03
97,2.36,0.37,2.34,0.35,-0.35,-0.28,2.01,1.99,1.99
98,2.32,0.37,2.31,0.36,-0.36,-0.27,1.97,1.95,1.95
99,2.28,0.37,2.27,0.36,-0.36,-0.27,1.93,1.91,1.91
100,2.24,0.37,2.22,0.36,-0.36,-0.26,1.89,1.87,1.88
101,2.19,0.36,2.18,0.36,-0.36,-0.26,1.84,1.83,1.84
102,2.14,0.34,2.14,0.36,-0.36,-0.25,1.79,1.78,1.80
104,2.05,0.33,2.10,0.35,-0.35,-0.25,1.70,1.74,1.72
105,2.02,0.34,2.06,0.35,-0.35,-0.24,1.67,1.70,1.69
106,1.98,0.33,2.01,0.35,-0.35,-0.24,1.63,1.66,1.65
107,1.95,0.34,1.97,0.35,-0.35,-0.23,1.61,1.62,1.62
108,1.93,0.35,1.93,0.34,-0.34,-0.23,1.59,1.59,1.58
109,1.90,0.36,1.89,0.34,-0.34,-0.22,1.56,1.55,1.55
110,1.86,0.35,1.85,0.34,-0.34,-0.22,1.53,1.51,1.51
111,1.83,0.35,1.81,0.33,-0.33,-0.21,1.50,1.48,1.48
112,1.78,0.34,1.77,0.32,-0.32,-0.21,1.46,1.44,1.45
113,1.74,0.33,1.72,0.32,-0.32,-0.20,1.43,1.41,1.42
114,1.69,0.31,1.68,0.31,-0.31,-0.20,1.39,1.37,1.38
115,1.65,0.30,1.64,0.30,-0.30,-0.19,1.35,1.34,1.35
117,1.56,0.27,1.60,0.29,-0.29,-0.18,1.27,1.30,1.29
118,1.51,0.25,1.55,0.28,-0.28,-0.17,1.23,1.27,1.26
119,1.47,0.24,1.51,0.27,-0.27,-0.16,1.20,1.24,1.23
120,1.45,0.25,1.47,0.26,-0.26,-0.15,1.19,1.20,1.21
121,1.42,0.25,1.42,0.26,-0.26,-0.14,1.17,1.17,1.18
123,1.38,0.26,1.38,0.25,-0.25,-0.13,1.14,1.14,1.12
124,1.36,0.27,1.34,0.24,-0.24,-0.12,1.13,1.10,1.10
125,1.33,0.26,1.30,0.23,-0.23,-0.11,1.11,1.07,1.07
126,1.29,0.25,1.25,0.21,-0.21,-0.09,1.08,1.04,1.05
128,1.20,0.21,1.21,0.20,-0.20,-0.07,1.00,1.01,1.00
129,1.15,0.18,1.17,0.19,-0.19,-0.06,0.97,0.98,0.98
130,1.09,0.14,1.12,0.17,-0.17,-0.05,0.92,0.95,0.95
131,1.06,0.13,1.07,0.15,-0.15,-0.03,0.91,0.92,0.93
133,0.99,0.11,1.03,0.14,-0.14,-0.01,0.86,0.89,0.89
134,0.97,0.11,0.98,0.12,-0.12,0.01,0.86,0.86,0.87
135,0.95,0.11,0.93,0.10,-0.10,0.02,0.86,0.84,0.84
137,0.90,0.10,0.88,0.07,-0.07,0.05,0.83,0.81,0.80
138,0.86,0.08,0.84,0.05,-0.05,0.07,0.81,0.78,0.79
140,0.78,0.04,0.79,0.03,-0.03,0.10,0.76,0.76,0.75
141,0.73,0.00,0.74,0.00,-0.00,0.12,0.73,0.73,0.73
142,0.68,-0.03,0.68,-0.02,0.02,0.13,0.71,0.71,0.71
144,0.60,-0.08,0.63,-0.05,0.05,0.17,0.65,0.68,0.68
145,0.56,-0.10,0.58,-0.08,0.08,0.18,0.64,0.66,0.66
147,0.50,-0.13,0.53,-0.11,0.11,0.22,0.61,0.64,0.63
148,0.48,-0.13,0.47,-0.14,0.14,0.24,0.63,0.61,0.62
150,0.42,-0.16,0.42,-0.18,0.18,0.27,0.60,0.59,0.59
151,0.39,-0.18,0.36,-0.21,0.21,0.29,0.60,0.57,0.57
153,0.31,-0.23,0.30,-0.25,0.25,0.33,0.56,0.55,0.55
154,0.26,-0.27,0.24,-0.29,0.29,0.35,0.55,0.53,0.53
156,0.16,-0.34,0.18,-0.33,0.33,0.38,0.49,0.51,0.51
157,0.11,-0.38,0.12,-0.37,0.37,0.40,0.48,0.49,0.49
159,0.02,-0.45,0.06,-0.41,0.41,0.44,0.43,0.47,0.47
160,-0.01,-0.47,-0.00,-0.46,0.46,0.46,0.45,0.45,0.46
162,-0.08,-0.51,-0.07,-0.50,0.50,0.50,0.43,0.44,0.44
164,-0.14,-0.55,-0.13,-0.55,0.55,0.54,0.41,0.42,0.42
165,-0.18,-0.58,-0.20,-0.60,0.60,0.56,0.42,0.40,0.41
167,-0.24,-0.62,-0.27,-0.65,0.65,0.60,0.42,0.39,0.39
169,-0.34,-0.70,-0.33,-0.71,0.71,0.64,0.37,0.37,0.37
170,-0.38,-0.73,-0.41,-0.76,0.76,0.66,0.39,0.36,0.36
172,-0.48,-0.82,-0.48,-0.82,0.82,0.70,0.34,0.34,0.34
174,-0.57,-0.89,-0.55,-0.88,0.88,0.74,0.31,0.33,0.32
175,-0.62,-0.93,-0.62,-0.94,0.94,0.76,0.32,0.31,0.32
177,-0.71,-1.01,-0.70,-1.00,1.00,0.80,0.29,0.30,0.30
179,-0.81,-1.09,-0.77,-1.06,1.06,0.85,0.25,0.29,0.29
181,-0.90,-1.17,-0.85,-1.12,1.12,0.89,0.23,0.27,0.27
183,-0.98,-1.23,-0.93,-1.19,1.19,0.93,0.22,0.26,0.26
184,-1.02,-1.27,-1.01,-1.26,1.26,0.95,0.25,0.25,0.25
186,-1.08,-1.31,-1.10,-1.34,1.34,1.00,0.26,0.24,0.24
188,-1.15,-1.37,-1.19,-1.42,1.42,1.04,0.27,0.23,0.23
190,-1.24,-1.45,-1.29,-1.50,1.50,1.08,0.27,0.22,0.22
192,-1.34,-1.54,-1.39,-1.60,1.60,1.13,0.26,0.20,0.20
194,-1.44,-1.63,-1.50,-1.69,1.69,1.17,0.26,0.19,0.19
196,-1.56,-1.74,-1.61,-1.79,1.79,1.21,0.24,0.18,0.18
198,-1.68,-1.85,-1.72,-1.89,1.89,1.26,0.22,0.17,0.17
200,-1.80,-1.96,-1.82,-1.99,1.99,1.30,0.19,0.17,0.16
202,-1.91,-2.06,-1.92,-2.08,2.08,1.34,0.17,0.16,0.16
204,-2.02,-2.16,-2.01,-2.16,2.16,1.38,0.14,0.15,0.15
206,-2.12,-2.26,-2.09,-2.23,2.23,1.42,0.11,0.14,0.14
208,-2.22,-2.35,-2.14,-2.27,2.27,1.47,0.06,0.13,0.13
210,-2.27,-2.39,-2.18,-2.30,2.30,1.51,0.04,0.12,0.12
212,-2.31,-2.42,-2.19,-2.31,2.31,1.55,0.00,0.12,0.12
214,-2.31,-2.42,-2.18,-2.29,2.29,1.58,-0.02,0.11,0.11
216,-2.28,-2.38,-2.15,-2.25,2.25,1.62,-0.02,0.10,0.10
218,-2.20,-2.29,-2.10,-2.19,2.19,1.66,-0.00,0.10,0.10
221,-2.05,-2.13,-2.03,-2.12,2.12,1.71,0.08,0.09,0.09
223,-1.94,-2.02,-1.96,-2.04,2.04,1.75,0.10,0.08,0.08
225,-1.82,-1.89,-1.87,-1.95,1.95,1.78,0.13,0.08,0.08
227,-1.72,-1.79,-1.79,-1.86,1.86,1.81,0.14,0.07,0.07
229,-1.63,-1.69,-1.71,-1.77,1.77,1.84,0.15,0.07,0.07
232,-1.54,-1.60,-1.64,-1.70,1.70,1.88,0.16,0.06,0.06
234,-1.50,-1.55,-1.58,-1.63,1.63,1.90,0.13,0.06,0.06
236,-1.46,-1.51,-1.53,-1.58,1.58,1.92,0.12,0.05,0.05
239,-1.45,-1.49,-1.49,-1.54,1.54,1.95,0.09,0.05,0.04
241,-1.45,-1.49,-1.47,-1.51,1.51,1.97,0.06,0.04,0.04
244,-1.46,-1.49,-1.46,-1.49,1.49,2.00,0.04,0.04,0.03
246,-1.48,-1.51,-1.46,-1.49,1.49,2.01,0.01,0.03,0.03
248,-1.49,-1.51,-1.47,-1.49,1.49,2.02,0.01,0.03,0.03
251,-1.51,-1.53,-1.48,-1.50,1.50,2.03,-0.00,0.02,0.02
253,-1.53,-1.55,-1.50,-1.52,1.52,2.04,-0.01,0.02,0.02
256,-1.55,-1.56,-1.52,-1.53,1.53,2.05,-0.01,0.02,0.01
259,-1.56,-1.57,-1.54,-1.55,1.55,2.05,-0.01,0.01,0.01
261,-1.57,-1.57,-1.56,-1.57,1.57,2.05,-0.00,0.01,0.01
264,-1.59,-1.59,-1.58,-1.58,1.58,2.05,-0.01,0.00,0.00
266,-1.60,-1.60,-1.59,-1.59,1.59,2.04,-0.00,0.00,0.00
269,-1.61,-1.60,-1.61,-1.61,1.61,2.04,0.00,-0.00,-0.00
272,-1.63,-1.62,-1.62,-1.62,1.62,2.03,-0.01,-0.01,-0.01
274,-1.64,-1.63,-1.64,-1.63,1.63,2.02,-0.01,-0.01,-0.01
277,-1.65,-1.64,-1.65,-1.64,1.64,2.01,-0.01,-0.01,-0.01
280,-1.66,-1.64,-1.66,-1.65,1.65,1.99,-0.01,-0.01,-0.01
283,-1.67,-1.65,-1.67,-1.65,1.65,1.98,-0.01,-0.02,-0.02
286,-1.69,-1.67,-1.68,-1.66,1.66,1.96,-0.02,-0.02,-0.02
288,-1.69,-1.66,-1.69,-1.67,1.67,1.95,-0.02,-0.02,-0.02
291,-1.71,-1.68,-1.70,-1.68,1.68,1.93,-0.03,-0.02,-0.02
294,-1.72,-1.69,-1.71,-1.69,1.69,1.91,-0.03,-0.03,-0.03
297,-1.73,-1.70,-1.73,-1.70,1.70,1.90,-0.03,-0.03,-0.03
300,-1.74,-1.71,-1.74,-1.71,1.71,1.88,-0.03,-0.03,-0.03
303,-1.75,-1.71,-1.75,-1.71,1.71,1.86,-0.03,-0.03,-0.03
306,-1.76,-1.72,-1.76,-1.72,1.72,1.84,-0.03,-0.03,-0.03
309,-1.77,-1.73,-1.77,-1.73,1.73,1.83,-0.03,-0.04,-0.04
312,-1.78,-1.74,-1.78,-1.74,1.74,1.81,-0.03,-0.04,-0.04
316,-1.80,-1.76,-1.79,-1.75,1.75,1.79,-0.04,-0.04,-0.04
319,-1.81,-1.76,-1.80,-1.76,1.76,1.78,-0.04,-0.04,-0.04
322,-1.82,-1.77,-1.81,-1.77,1.77,1.76,-0.05,-0.04,-0.04
325,-1.83,-1.78,-1.82,-1.78,1.78,1.75,-0.05,-0.04,-0.04
328,-1.84,-1.79,-1.84,-1.79,1.79,1.74,-0.05,-0.05,-0.05
332,-1.85,-1.80,-1.85,-1.80,1.80,1.73,-0.05,-0.05,-0.05
335,-1.86,-1.81,-1.86,-1.81,1.81,1.72,-0.05,-0.05,-0.05
338,-1.87,-1.82,-1.87,-1.82,1.82,1.71,-0.05,-0.05,-0.05
342,-1.88,-1.82,-1.88,-1.83,1.83,1.70,-0.05,-0.05,-0.05
345,-1.89,-1.83,-1.89,-1.83,1.83,1.70,-0.05,-0.05,-0.05
349,-1.90,-1.84,-1.90,-1.84,1.84,1.69,-0.05,-0.05,-0.05
352,-1.90,-1.84,-1.91,-1.85,1.85,1.69,-0.04,-0.06,-0.06
356,-1.92,-1.86,-1.92,-1.86,1.86,1.68,-0.06,-0.06,-0.06
359,-1.93,-1.87,-1.92,-1.87,1.87,1.68,-0.06,-0.06,-0.06
363,-1.94,-1.88,-1.93,-1.87,1.87,1.68,-0.06,-0.06,-0.06
366,-1.94,-1.88,-1.94,-1.88,1.88,1.68,-0.06,-0.06,-0.06
370,-1.95,-1.88,-1.94,-1.88,1.88,1.69,-0.06,-0.06,-0.06
374,-1.95,-1.88,-1.95,-1.88,1.88,1.69,-0.06,-0.06,-0.06
377,-1.96,-1.89,-1.95,-1.89,1.89,1.70,-0.07,-0.06,-0.06
381,-1.96,-1.89,-1.95,-1.89,1.89,1.70,-0.07,-0.07,-0.07
385,-1.96,-1.89,-1.95,-1.88,1.88,1.71,-0.07,-0.07,-0.07
389,-1.95,-1.88,-1.95,-1.88,1.88,1.72,-0.07,-0.07,-0.07
393,-1.95,-1.88,-1.95,-1.88,1.88,1.73,-0.07,-0.07,-0.07
397,-1.95,-1.87,-1.94,-1.87,1.87,1.74,-0.08,-0.07,-0.07
401,-1.94,-1.86,-1.93,-1.86,1.86,1.75,-0.07,-0.07,-0.07
405,-1.93,-1.85,-1.93,-1.85,1.85,1.77,-0.07,-0.07,-0.07
409,-1.92,-1.84,-1.92,-1.84,1.84,1.78,-0.07,-0.08,-0.07
413,-1.91,-1.83,-1.91,-1.83,1.83,1.79,-0.07,-0.08,-0.08
417,-1.90,-1.82,-1.90,-1.82,1.82,1.81,-0.07,-0.08,-0.08
421,-1.88,-1.80,-1.89,-1.81,1.81,1.82,-0.06,-0.08,-0.08
425,-1.87,-1.79,-1.87,-1.80,1.80,1.84,-0.07,-0.08,-0.08
430,-1.85,-1.77,-1.86,-1.78,1.78,1.86,-0.06,-0.07,-0.07
434,-1.84,-1.76,-1.84,-1.77,1.77,1.87,-0.07,-0.07,-0.07
438,-1.83,-1.75,-1.82,-1.75,1.75,1.89,-0.08,-0.07,-0.07
443,-1.82,-1.75,-1.80,-1.73,1.73,1.91,-0.09,-0.07,-0.07
447,-1.81,-1.74,-1.77,-1.71,1.71,1.92,-0.10,-0.06,-0.06
451,-1.79,-1.73,-1.74,-1.68,1.68,1.94,-0.10,-0.06,-0.06
456,-1.74,-1.68,-1.71,-1.66,1.66,1.95,-0.08,-0.06,-0.06
460,-1.70,-1.65,-1.68,-1.63,1.63,1.97,-0.07,-0.05,-0.05
465,-1.64,-1.59,-1.64,-1.60,1.60,1.98,-0.03,-0.04,-0.04
470,-1.59,-1.55,-1.61,-1.57,1.57,2.00,-0.01,-0.03,-0.03
474,-1.57,-1.54,-1.57,-1.55,1.55,2.01,-0.02,-0.03,-0.03
479,-1.54,-1.52,-1.54,-1.53,1.53,2.02,-0.01,-0.02,-0.02
484,-1.53,-1.52,-1.52,-1.51,1.51,2.03,-0.01,-0.00,-0.00
489,-1.54,-1.54,-1.50,-1.50,1.50,2.04,-0.03,0.01,0.01
494,-1.53,-1.55,-1.49,-1.51,1.51,2.05,-0.02,0.02,0.02
499,-1.53,-1.56,-1.49,-1.52,1.52,2.05,-0.00,0.04,0.03
504,-1.53,-1.58,-1.51,-1.56,1.56,2.06,0.03,0.05,0.05
509,-1.52,-1.58,-1.54,-1.61,1.61,2.06,0.10,0.07,0.07
514,-1.52,-1.60,-1.60,-1.68,1.68,2.06,0.17,0.08,0.08
519,-1.54,-1.64,-1.67,-1.78,1.78,2.07,0.24,0.10,0.10
524,-1.59,-1.71,-1.76,-1.89,1.89,2.07,0.30,0.12,0.12
529,-1.68,-1.82,-1.87,-2.01,2.01,2.07,0.33,0.14,0.14
535,-1.84,-2.00,-1.98,-2.14,2.14,2.07,0.31,0.16,0.16
540,-2.01,-2.19,-2.09,-2.28,2.28,2.06,0.28,0.19,0.19
545,-2.20,-2.41,-2.21,-2.41,2.41,2.06,0.22,0.21,0.21
551,-2.43,-2.66,-2.30,-2.54,2.54,2.06,0.11,0.23,0.23
556,-2.58,-2.83,-2.39,-2.64,2.64,2.05,0.07,0.26,0.26
562,-2.72,-3.00,-2.44,-2.73,2.73,2.05,0.01,0.28,0.28
568,-2.73,-3.04,-2.47,-2.79,2.79,2.05,0.06,0.31,0.31
573,-2.68,-3.01,-2.48,-2.82,2.82,2.04,0.14,0.34,0.34
579,-2.58,-2.94,-2.45,-2.82,2.82,2.04,0.24,0.37,0.37
585,-2.42,-2.81,-2.40,-2.80,2.80,2.03,0.38,0.40,0.40
591,-2.28,-2.70,-2.33,-2.76,2.76,2.03,0.48,0.42,0.42
596,-2.16,-2.61,-2.24,-2.70,2.70,2.03,0.54,0.45,0.45
602,-2.05,-2.53,-2.15,-2.63,2.63,2.03,0.58,0.49,0.49
608,-1.94,-2.45,-2.04,-2.56,2.56,2.03,0.62,0.52,0.52
615,-1.84,-2.38,-1.94,-2.49,2.49,2.03,0.65,0.55,0.55
621,-1.78,-2.36,-1.84,-2.43,2.43,2.03,0.65,0.58,0.58
627,-1.71,-2.32,-1.76,-2.37,2.37,2.03,0.66,0.61,0.61
633,-1.66,-2.30,-1.68,-2.32,2.32,2.03,0.67,0.65,0.65
639,-1.61,-2.29,-1.61,-2.29,2.29,2.04,0.68,0.68,0.68
646,-1.55,-2.26,-1.54,-2.26,2.26,2.05,0.71,0.72,0.72
652,-1.50,-2.25,-1.49,-2.24,2.24,2.05,0.75,0.75,0.75
659,-1.46,-2.24,-1.45,-2.23,2.23,2.06,0.78,0.79,0.79
665,-1.42,-2.24,-1.40,-2.23,2.23,2.07,0.81,0.82,0.82
672,-1.38,-2.23,-1.36,-2.22,2.22,2.09,0.85,0.86,0.86
679,-1.34,-2.23,-1.33,-2.22,2.22,2.10,0.89,0.90,0.90
686,-1.29,-2.22,-1.29,-2.22,2.22,2.12,0.94,0.93,0.93
692,-1.26,-2.23,-1.25,-2.22,2.22,2.13,0.96,0.97,0.97
699,-1.23,-2.23,-1.21,-2.22,2.22,2.15,0.99,1.01,1.01
706,-1.18,-2.22,-1.17,-2.21,2.21,2.17,1.04,1.05,1.05
713,-1.15,-2.23,-1.12,-2.20,2.20,2.20,1.06,1.08,1.08
721,-1.11,-2.23,-1.08,-2.20,2.20,2.22,1.09,1.12,1.12
728,-1.06,-2.22,-1.03,-2.19,2.19,2.25,1.13,1.16,1.16
735,-1.00,-2.19,-0.98,-2.18,2.18,2.28,1.19,1.20,1.20
742,-0.94,-2.17,-0.94,-2.18,2.18,2.30,1.24,1.24,1.24
750,-0.88,-2.15,-0.90,-2.17,2.17,2.34,1.30,1.27,1.27
757,-0.83,-2.14,-0.86,-2.17,2.17,2.37,1.34,1.31,1.31
765,-0.80,-2.14,-0.82,-2.17,2.17,2.40,1.38,1.35,1.35
773,-0.76,-2.14,-0.79,-2.18,2.18,2.44,1.42,1.38,1.38
780,-0.75,-2.17,-0.77,-2.19,2.19,2.47,1.44,1.42,1.42
788,-0.72,-2.17,-0.74,-2.20,2.20,2.51,1.48,1.46,1.46
796,-0.71,-2.20,-0.72,-2.21,2.21,2.55,1.50,1.49,1.49
804,-0.71,-2.23,-0.70,-2.22,2.22,2.59,1.52,1.53,1.53
812,-0.69,-2.25,-0.68,-2.24,2.24,2.63,1.55,1.56,1.56
820,-0.69,-2.28,-0.66,-2.25,2.25,2.67,1.57,1.59,1.59
828,-0.68,-2.30,-0.64,-2.27,2.27,2.71,1.59,1.63,1.63
837,-0.66,-2.31,-0.62,-2.28,2.28,2.75,1.62,1.66,1.66
845,-0.63,-2.32,-0.59,-2.28,2.28,2.79,1.66,1.69,1.69
853,-0.59,-2.31,-0.57,-2.29,2.29,2.83,1.70,1.72,1.72
862,-0.54,-2.29,-0.54,-2.29,2.29,2.87,1.75,1.75,1.75
871,-0.49,-2.27,-0.51,-2.29,2.29,2.90,1.80,1.78,1.78
879,-0.46,-2.26,-0.48,-2.29,2.29,2.93,1.83,1.81,1.81
888,-0.43,-2.26,-0.45,-2.28,2.28,2.97,1.86,1.84,1.84
897,-0.40,-2.26,-0.41,-2.28,2.28,3.00,1.88,1.87,1.87
906,-0.37,-2.26,-0.38,-2.27,2.27,3.02,1.91,1.89,1.89
915,-0.35,-2.27,-0.34,-2.26,2.26,3.05,1.92,1.92,1.92
924,-0.32,-2.26,-0.31,-2.26,2.26,3.07,1.94,1.95,1.95
933,-0.30,-2.27,-0.27,-2.25,2.25,3.08,1.95,1.97,1.97
943,-0.26,-2.26,-0.24,-2.24,2.24,3.09,1.98,2.00,2.00
952,-0.22,-2.24,-0.20,-2.23,2.23,3.10,2.01,2.03,2.03
962,-0.19,-2.24,-0.16,-2.22,2.22,3.10,2.03,2.05,2.05
971,-0.14,-2.22,-0.12,-2.21,2.21,3.10,2.07,2.08,2.08
981,-0.08,-2.18,-0.09,-2.20,2.20,3.09,2.12,2.11,2.11
991,-0.04,-2.17,-0.05,-2.19,2.19,3.07,2.15,2.13,2.13
1001,0.00,-2.16,-0.02,-2.18,2.18,3.05,2.18,2.16,2.16
1011,0.05,-2.13,0.02,-2.17,2.17,3.02,2.23,2.19,2.19
1021,0.07,-2.14,0.05,-2.17,2.17,2.99,2.24,2.22,2.22
1031,0.09,-2.15,0.08,-2.17,2.17,2.95,2.26,2.24,2.24
1041,0.10,-2.17,0.11,-2.16,2.16,2.91,2.27,2.27,2.27
1052,0.12,-2.18,0.13,-2.17,2.17,2.86,2.29,2.30,2.30
1062,0.14,-2.18,0.16,-2.17,2.17,2.80,2.31,2.33,2.33
1073,0.17,-2.18,0.19,-2.17,2.17,2.74,2.34,2.36,2.36
1084,0.20,-2.18,0.22,-2.17,2.17,2.68,2.37,2.39,2.39
1094,0.24,-2.17,0.24,-2.17,2.17,2.61,2.41,2.41,2.41
1105,0.27,-2.17,0.27,-2.17,2.17,2.54,2.44,2.44,2.44
1116,0.30,-2.17,0.31,-2.17,2.17,2.46,2.47,2.47,2.47
1128,0.34,-2.16,0.34,-2.16,2.16,2.38,2.51,2.50,2.50
1139,0.37,-2.16,0.38,-2.16,2.16,2.29,2.53,2.54,2.54
1150,0.40,-2.16,0.42,-2.15,2.15,2.21,2.55,2.57,2.57
1162,0.44,-2.15,0.46,-2.14,2.14,2.12,2.58,2.60,2.60
1173,0.48,-2.15,0.50,-2.13,2.13,2.03,2.61,2.63,2.63
1185,0.53,-2.13,0.54,-2.12,2.12,1.94,2.65,2.66,2.66
1197,0.58,-2.11,0.59,-2.11,2.11,1.84,2.69,2.69,2.69
1209,0.64,-2.08,0.63,-2.10,2.10,1.74,2.74,2.73,2.73
1221,0.68,-2.07,0.67,-2.09,2.09,1.65,2.77,2.76,2.76
1233,0.73,-2.06,0.71,-2.08,2.08,1.55,2.81,2.79,2.79
1246,0.77,-2.05,0.75,-2.07,2.07,1.45,2.85,2.83,2.83
1258,0.80,-2.06,0.79,-2.07,2.07,1.35,2.87,2.86,2.86
1271,0.85,-2.04,0.83,-2.06,2.06,1.25,2.91,2.89,2.89
1283,0.89,-2.03,0.87,-2.06,2.06,1.15,2.95,2.93,2.93
1296,0.92,-2.04,0.91,-2.05,2.05,1.05,2.97,2.96,2.96
1309,0.96,-2.03,0.96,-2.04,2.04,0.95,3.01,3.00,3.00
1322,1.00,-2.03,1.00,-2.03,2.03,0.85,3.03,3.03,3.03
1335,1.04,-2.03,1.06,-2.01,2.01,0.75,3.06,3.07,3.07
1349,1.09,-2.01,1.11,-1.99,1.99,0.64,3.09,3.11,3.11
1362,1.14,-2.00,1.18,-1.96,1.96,0.54,3.11,3.14,3.14
1376,1.20,-1.98,1.25,-1.93,1.93,0.44,3.13,3.18,3.18
1390,1.28,-1.93,1.33,-1.89,1.89,0.33,3.17,3.22,3.22
1404,1.37,-1.88,1.42,-1.84,1.84,0.23,3.21,3.26,3.26
1418,1.48,-1.81,1.51,-1.79,1.79,0.13,3.27,3.30,3.30
1432,1.61,-1.72,1.60,-1.73,1.73,0.03,3.35,3.33,3.33
1446,1.73,-1.64,1.70,-1.67,1.67,-0.07,3.41,3.37,3.37
1461,1.85,-1.56,1.80,-1.61,1.61,-0.17,3.46,3.41,3.41
1475,1.96,-1.49,1.91,-1.55,1.55,-0.27,3.51,3.45,3.45
1490,2.07,-1.42,2.01,-1.48,1.48,-0.37,3.56,3.49,3.49
1505,2.17,-1.36,2.12,-1.42,1.42,-0.47,3.59,3.53,3.53
1520,2.26,-1.31,2.23,-1.35,1.35,-0.57,3.61,3.58,3.58
1535,2.35,-1.26,2.34,-1.28,1.28,-0.67,3.63,3.62,3.62
1550,2.45,-1.20,2.46,-1.20,1.20,-0.77,3.65,3.66,3.66
1566,2.57,-1.13,2.59,-1.11,1.11,-0.87,3.68,3.70,3.70
1582,2.70,-1.04,2.74,-1.01,1.01,-0.97,3.71,3.74,3.74
1597,2.85,-0.93,2.89,-0.89,0.89,-1.06,3.75,3.79,3.79
1613,3.01,-0.82,3.07,-0.76,0.76,-1.16,3.78,3.83,3.83
1629,3.19,-0.68,3.26,-0.61,0.61,-1.26,3.81,3.87,3.87
1646,3.41,-0.51,3.47,-0.45,0.45,-1.36,3.86,3.92,3.92
1662,3.63,-0.33,3.70,-0.26,0.26,-1.45,3.90,3.96,3.96
1679,3.89,-0.12,3.94,-0.07,0.07,-1.54,3.96,4.01,4.01
1696,4.17,0.12,4.20,0.15,-0.15,-1.63,4.03,4.06,4.06
1713,4.46,0.36,4.47,0.37,-0.37,-1.72,4.09,4.10,4.10
1730,4.75,0.60,4.75,0.60,-0.60,-1.81,4.15,4.15,4.15
1747,5.05,0.85,5.03,0.83,-0.83,-1.89,4.22,4.20,4.20
1764,5.34,1.09,5.31,1.07,-1.07,-1.97,4.28,4.25,4.25
1782,5.64,1.34,5.59,1.30,-1.30,-2.05,4.35,4.30,4.30
1800,5.92,1.57,5.87,1.52,-1.52,-2.12,4.41,4.35,4.35
1818,6.19,1.79,6.13,1.73,-1.73,-2.19,4.47,4.40,4.41
1836,6.44,1.98,6.39,1.93,-1.93,-2.25,4.51,4.46,4.46
1854,6.67,2.16,6.64,2.12,-2.12,-2.31,4.55,4.52,4.52
1873,6.91,2.33,6.88,2.30,-2.30,-2.37,4.61,4.58,4.58
1892,7.13,2.49,7.11,2.47,-2.47,-2.41,4.67,4.64,4.64
1911,7.34,2.63,7.34,2.63,-2.63,-2.46,4.72,4.71,4.71
1930,7.55,2.77,7.56,2.78,-2.78,-2.49,4.77,4.78,4.78
1949,7.75,2.90,7.78,2.93,-2.93,-2.53,4.83,4.85,4.85
