frequency,raw
20.00,-17.95
20.20,-17.82
20.40,-17.70
20.61,-17.57
20.81,-17.44
21.02,-17.32
21.23,-17.19
21.44,-17.06
21.66,-16.93
21.87,-16.80
22.09,-16.67
22.31,-16.54
22.54,-16.41
22.76,-16.28
22.99,-16.15
23.22,-16.01
23.45,-15.88
23.69,-15.75
23.92,-15.61
24.16,-15.48
24.40,-15.34
24.65,-15.20
24.89,-15.06
25.14,-14.92
25.39,-14.78
25.65,-14.64
25.91,-14.50
26.16,-14.36
26.43,-14.21
26.69,-14.07
26.96,-13.92
27.23,-13.78
27.50,-13.63
27.77,-13.49
28.05,-13.34
28.33,-13.20
28.62,-13.05
28.90,-12.90
29.19,-12.75
29.48,-12.61
29.78,-12.46
30.08,-12.31
30.38,-12.17
30.68,-12.03
30.99,-11.89
31.30,-11.74
31.61,-11.59
31.93,-11.44
32.24,-11.29
32.57,-11.14
32.89,-10.98
33.22,-10.82
33.55,-10.67
33.89,-10.51
34.23,-10.36
34.57,-10.20
34.92,-10.05
35.27,-9.89
35.62,-9.74
35.97,-9.59
36.33,-9.44
36.70,-9.29
37.06,-9.13
37.43,-8.98
37.81,-8.82
38.19,-8.66
38.57,-8.51
38.95,-8.35
39.34,-8.19
39.74,-8.04
40.14,-7.89
40.54,-7.75
40.94,-7.60
41.35,-7.46
41.76,-7.31
42.18,-7.17
42.60,-7.03
43.03,-6.89
43.46,-6.75
43.90,-6.61
44.33,-6.48
44.78,-6.35
45.23,-6.22
45.68,-6.09
46.13,-5.96
46.60,-5.83
47.06,-5.70
47.53,-5.59
48.01,-5.47
48.49,-5.34
48.97,-5.21
49.46,-5.08
49.96,-4.96
50.46,-4.84
50.96,-4.71
51.47,-4.59
51.99,-4.47
52.51,-4.35
53.03,-4.22
53.56,-4.10
54.10,-3.98
54.64,-3.85
55.18,-3.73
55.74,-3.61
56.29,-3.49
56.86,-3.36
57.42,-3.24
58.00,-3.11
58.58,-2.98
59.16,-2.85
59.76,-2.72
60.35,-2.60
60.96,-2.48
61.57,-2.34
62.18,-2.21
62.80,-2.09
63.43,-1.96
64.07,-1.84
64.71,-1.72
65.35,-1.59
66.01,-1.46
66.67,-1.33
67.33,-1.20
68.01,-1.08
68.69,-0.95
69.37,-0.82
70.07,-0.70
70.77,-0.57
71.48,-0.44
72.19,-0.32
72.91,-0.19
73.64,-0.06
74.38,0.07
75.12,0.20
75.87,0.32
76.63,0.44
77.40,0.55
78.17,0.66
78.95,0.77
79.74,0.88
80.54,1.00
81.35,1.12
82.16,1.23
82.98,1.32
83.81,1.43
84.65,1.52
85.50,1.62
86.35,1.72
87.22,1.80
88.09,1.89
88.97,1.99
89.86,2.08
90.76,2.17
91.66,2.24
92.58,2.32
93.51,2.40
94.44,2.48
95.39,2.55
96.34,2.62
97.30,2.69
98.28,2.74
99.26,2.80
100.25,2.87
101.25,2.93
102.27,2.98
103.29,3.00
104.32,3.04
105.37,3.11
106.42,3.16
107.48,3.20
108.56,3.24
109.64,3.29
110.74,3.33
111.85,3.37
112.97,3.41
114.10,3.45
115.24,3.50
116.39,3.53
117.55,3.56
118.73,3.60
119.92,3.64
121.12,3.66
122.33,3.68
123.55,3.71
124.79,3.74
126.03,3.76
127.29,3.77
128.57,3.77
129.85,3.76
131.15,3.75
132.46,3.75
133.79,3.75
135.12,3.75
136.48,3.75
137.84,3.76
139.22,3.76
140.61,3.76
142.02,3.76
143.44,3.75
144.87,3.73
146.32,3.71
147.78,3.68
149.26,3.66
150.75,3.63
152.26,3.61
153.78,3.58
155.32,3.54
156.88,3.49
158.44,3.46
160.03,3.41
161.63,3.37
163.24,3.34
164.88,3.30
166.53,3.28
168.19,3.26
169.87,3.22
171.57,3.18
173.29,3.14
175.02,3.08
176.77,3.04
178.54,3.01
180.32,2.98
182.13,2.95
183.95,2.91
185.79,2.87
187.65,2.83
189.52,2.78
191.42,2.73
193.33,2.69
195.27,2.65
197.22,2.62
199.19,2.59
201.18,2.55
203.19,2.51
205.23,2.47
207.28,2.42
209.35,2.38
211.44,2.32
213.56,2.27
215.69,2.22
217.85,2.17
220.03,2.14
222.23,2.10
224.45,2.04
226.70,1.97
228.96,1.91
231.25,1.87
233.57,1.83
235.90,1.78
238.26,1.74
240.64,1.69
243.05,1.64
245.48,1.58
247.93,1.50
250.41,1.45
252.92,1.38
255.45,1.31
258.00,1.24
260.58,1.14
263.19,1.06
265.82,0.96
268.48,0.89
271.16,0.82
273.87,0.73
276.61,0.67
279.38,0.61
282.17,0.57
284.99,0.53
287.84,0.49
290.72,0.48
293.63,0.49
296.57,0.50
299.53,0.53
302.53,0.56
305.55,0.59
308.61,0.63
311.69,0.68
314.81,0.70
317.96,0.74
321.14,0.77
324.35,0.80
327.59,0.83
330.87,0.85
334.18,0.87
337.52,0.87
340.90,0.86
344.30,0.83
347.75,0.82
351.23,0.80
354.74,0.78
358.28,0.74
361.87,0.69
365.49,0.64
369.14,0.59
372.83,0.54
376.56,0.48
380.33,0.43
384.13,0.37
387.97,0.32
391.85,0.26
395.77,0.21
399.73,0.16
403.72,0.12
407.76,0.07
411.84,0.02
415.96,-0.02
420.12,-0.05
424.32,-0.08
428.56,-0.10
432.85,-0.12
437.18,-0.15
441.55,-0.16
445.96,-0.17
450.42,-0.17
454.93,-0.16
459.48,-0.15
464.07,-0.15
468.71,-0.15
473.40,-0.15
478.13,-0.15
482.91,-0.14
487.74,-0.13
492.62,-0.12
497.55,-0.13
502.52,-0.14
507.55,-0.15
512.62,-0.16
517.75,-0.19
522.93,-0.22
528.16,-0.25
533.44,-0.29
538.77,-0.32
544.16,-0.36
549.60,-0.39
555.10,-0.42
560.65,-0.45
566.25,-0.46
571.92,-0.49
577.64,-0.49
583.41,-0.49
589.25,-0.48
595.14,-0.48
601.09,-0.47
607.10,-0.47
613.17,-0.47
619.30,-0.47
625.50,-0.47
631.75,-0.47
638.07,-0.47
644.45,-0.47
650.89,-0.47
657.40,-0.47
663.98,-0.47
670.62,-0.47
677.32,-0.47
684.10,-0.47
690.94,-0.47
697.85,-0.47
704.83,-0.47
711.87,-0.47
718.99,-0.47
726.18,-0.47
733.44,-0.47
740.78,-0.47
748.19,-0.47
755.67,-0.47
763.23,-0.47
770.86,-0.47
778.57,-0.47
786.35,-0.47
794.22,-0.47
802.16,-0.47
810.18,-0.47
818.28,-0.47
826.46,-0.47
834.73,-0.48
843.08,-0.49
851.51,-0.49
860.02,-0.49
868.62,-0.48
877.31,-0.46
886.08,-0.44
894.94,-0.42
903.89,-0.39
912.93,-0.37
922.06,-0.34
931.28,-0.31
940.59,-0.27
950.00,-0.23
959.50,-0.19
969.09,-0.15
978.78,-0.11
988.57,-0.06
998.46,-0.01
1008.44,0.05
1018.53,0.09
1028.71,0.13
1039.00,0.18
1049.39,0.24
1059.88,0.31
1070.48,0.37
1081.19,0.44
1092.00,0.51
1102.92,0.56
1113.95,0.61
1125.09,0.65
1136.34,0.70
1147.70,0.74
1159.18,0.77
1170.77,0.77
1182.48,0.78
1194.30,0.80
1206.25,0.83
1218.31,0.85
1230.49,0.87
1242.80,0.88
1255.22,0.89
1267.78,0.91
1280.45,0.95
1293.26,0.99
1306.19,1.05
1319.25,1.10
1332.45,1.16
1345.77,1.22
1359.23,1.26
1372.82,1.30
1386.55,1.34
1400.41,1.36
1414.42,1.40
1428.56,1.44
1442.85,1.48
1457.28,1.54
1471.85,1.60
1486.57,1.66
1501.43,1.73
1516.45,1.81
1531.61,1.90
1546.93,2.00
1562.40,2.09
1578.02,2.18
1593.80,2.25
1609.74,2.29
1625.84,2.32
1642.10,2.35
1658.52,2.35
1675.10,2.36
1691.85,2.36
1708.77,2.35
1725.86,2.35
1743.12,2.35
1760.55,2.34
1778.15,2.35
1795.94,2.37
1813.90,2.40
1832.03,2.41
1850.36,2.42
1868.86,2.43
1887.55,2.41
1906.42,2.39
1925.49,2.36
1944.74,2.32
1964.19,2.28
1983.83,2.25
2003.67,2.24
2023.71,2.24
2043.94,2.24
2064.38,2.25
2085.03,2.26
2105.88,2.28
2126.94,2.30
2148.20,2.34
2169.69,2.38
2191.38,2.42
2213.30,2.45
2235.43,2.45
2257.78,2.45
2280.36,2.44
2303.17,2.44
2326.20,2.43
2349.46,2.44
2372.95,2.46
2396.68,2.49
2420.65,2.53
2444.86,2.58
2469.31,2.63
2494.00,2.69
2518.94,2.75
2544.13,2.82
2569.57,2.89
2595.27,2.96
2621.22,3.03
2647.43,3.11
2673.90,3.17
2700.64,3.23
2727.65,3.29
2754.93,3.35
2782.48,3.42
2810.30,3.49
2838.40,3.57
2866.79,3.65
2895.46,3.74
2924.41,3.83
2953.65,3.91
2983.19,3.99
3013.02,4.07
3043.15,4.16
3073.58,4.25
3104.32,4.33
3135.36,4.41
3166.72,4.46
3198.38,4.52
3230.37,4.56
3262.67,4.60
3295.30,4.63
3328.25,4.66
3361.53,4.67
3395.15,4.67
3429.10,4.66
3463.39,4.67
3498.03,4.67
3533.01,4.69
3568.34,4.75
3604.02,4.84
3640.06,4.99
3676.46,5.21
3713.22,5.49
3750.36,5.82
3787.86,6.22
3825.74,6.66
3864.00,7.15
3902.64,7.68
3941.66,8.23
3981.08,8.79
4020.89,9.35
4061.10,9.91
4101.71,10.44
4142.73,10.94
4184.15,11.40
4226.00,11.83
4268.26,12.21
4310.94,12.57
4354.05,12.90
4397.59,13.20
4441.56,13.48
4485.98,13.73
4530.84,13.98
4576.15,14.23
4621.91,14.47
4668.13,14.70
4714.81,14.94
4761.96,15.19
4809.58,15.47
4857.67,15.74
4906.25,16.03
4955.31,16.32
5004.87,16.61
5054.91,16.89
5105.46,17.16
5156.52,17.41
5208.08,17.64
5260.16,17.84
5312.77,18.01
5365.89,18.15
5419.55,18.26
5473.75,18.33
5528.49,18.39
5583.77,18.42
5639.61,18.43
5696.00,18.41
5752.96,18.37
5810.49,18.31
5868.60,18.20
5927.28,18.06
5986.56,17.88
6046.42,17.65
6106.89,17.37
6167.96,17.04
6229.64,16.64
6291.93,16.18
6354.85,15.67
6418.40,15.13
6482.58,14.57
6547.41,13.97
6612.88,13.37
6679.01,12.77
6745.80,12.19
6813.26,11.64
6881.39,11.15
6950.21,10.72
7019.71,10.34
7089.91,10.04
7160.81,9.80
7232.41,9.63
7304.74,9.51
7377.79,9.45
7451.56,9.43
7526.08,9.45
7601.34,9.47
7677.35,9.50
7754.13,9.54
7831.67,9.56
7909.98,9.54
7989.08,9.51
8068.98,9.45
8149.67,9.34
8231.16,9.19
8313.47,9.03
8396.61,8.84
8480.57,8.63
8565.38,8.38
8651.03,8.10
8737.54,7.78
8824.92,7.41
8913.17,7.00
9002.30,6.53
9092.32,6.00
9183.25,5.39
9275.08,4.70
9367.83,3.94
9461.51,3.14
9556.12,2.33
9651.68,1.53
9748.20,0.79
9845.68,0.09
9944.14,-0.51
10043.58,-1.01
10144.02,-1.39
10245.46,-1.64
10347.91,-1.77
10451.39,-1.78
10555.91,-1.67
10661.46,-1.46
10768.08,-1.18
10875.76,-0.86
10984.52,-0.53
11094.36,-0.19
11205.31,0.14
11317.36,0.43
11430.53,0.70
11544.84,0.93
11660.29,1.14
11776.89,1.31
11894.66,1.47
12013.60,1.61
12133.74,1.72
12255.08,1.79
12377.63,1.83
12501.41,1.85
12626.42,1.83
12752.68,1.80
12880.21,1.74
13009.01,1.65
13139.10,1.51
13270.49,1.35
13403.20,1.15
13537.23,0.93
13672.60,0.68
13809.33,0.39
13947.42,0.06
14086.90,-0.30
14227.77,-0.69
14370.04,-1.11
14513.74,-1.57
14658.88,-2.06
14805.47,-2.57
14953.52,-3.12
15103.06,-3.71
15254.09,-4.31
15406.63,-4.91
15560.70,-5.53
15716.30,-6.14
15873.47,-6.75
16032.20,-7.32
16192.52,-7.86
16354.45,-8.34
16517.99,-8.76
16683.17,-9.10
16850.01,-9.36
17018.51,-9.56
17188.69,-9.67
17360.58,-9.72
17534.18,-9.72
17709.53,-9.69
17886.62,-9.63
18065.49,-9.56
18246.14,-9.56
18428.60,-9.59
18612.89,-9.61
18799.02,-9.63
18987.01,-9.65
19176.88,-9.66
19368.65,-9.68
19562.33,-9.69
19757.96,-9.70
19955.54,-9.71
