frequency,raw,error,smoothed,error_smoothed,equalization,parametric_eq,equalized_raw,equalized_smoothed,target
20,10.12,6.43,10.13,6.43,-6.43,-3.35,3.69,3.70,3.70
21,10.30,6.62,10.30,6.62,-6.62,-3.83,3.69,3.69,3.69
22,10.46,6.78,10.46,6.78,-6.78,-4.35,3.68,3.68,3.68
23,10.61,6.95,10.60,6.93,-6.93,-4.91,3.68,3.67,3.67
24,10.75,7.10,10.72,7.07,-7.07,-5.50,3.69,3.66,3.66
25,10.78,7.14,10.83,7.18,-7.18,-6.12,3.60,3.65,3.65
26,10.89,7.26,10.92,7.29,-7.29,-6.73,3.61,3.63,3.63
27,11.01,7.40,10.99,7.37,-7.37,-7.33,3.64,3.62,3.62
28,11.03,7.43,11.04,7.44,-7.44,-7.86,3.60,3.60,3.60
29,11.06,7.48,11.07,7.48,-7.48,-8.30,3.58,3.59,3.59
30,11.10,7.54,11.08,7.51,-7.51,-8.61,3.59,3.57,3.57
31,11.10,7.55,11.07,7.52,-7.52,-8.78,3.58,3.55,3.55
32,11.05,7.52,11.04,7.51,-7.51,-8.80,3.54,3.53,3.53
33,10.96,7.46,11.00,7.49,-7.49,-8.70,3.48,3.51,3.51
34,10.95,7.47,10.93,7.45,-7.45,-8.50,3.51,3.49,3.49
35,10.82,7.36,10.86,7.39,-7.39,-8.24,3.43,3.46,3.46
36,10.79,7.36,10.77,7.33,-7.33,-7.95,3.46,3.44,3.44
37,10.65,7.24,10.67,7.26,-7.26,-7.65,3.39,3.41,3.41
38,10.55,7.17,10.57,7.18,-7.18,-7.37,3.37,3.39,3.39
39,10.47,7.12,10.46,7.10,-7.10,-7.10,3.37,3.36,3.36
40,10.34,7.02,10.34,7.01,-7.01,-6.85,3.33,3.33,3.33
41,10.22,6.93,10.22,6.92,-6.92,-6.63,3.30,3.30,3.30
42,10.09,6.83,10.10,6.83,-6.83,-6.45,3.26,3.27,3.27
43,9.97,6.74,9.97,6.74,-6.74,-6.29,3.23,3.23,3.23
44,9.85,6.65,9.85,6.65,-6.65,-6.16,3.21,3.20,3.20
45,9.71,6.55,9.72,6.56,-6.56,-6.06,3.16,3.16,3.16
46,9.59,6.47,9.60,6.47,-6.47,-5.98,3.13,3.13,3.13
47,9.46,6.37,9.47,6.38,-6.38,-5.92,3.08,3.09,3.09
48,9.33,6.28,9.35,6.30,-6.30,-5.88,3.03,3.05,3.05
49,9.27,6.26,9.24,6.22,-6.22,-5.86,3.05,3.01,3.01
50,9.14,6.17,9.12,6.15,-6.15,-5.86,2.99,2.97,2.97
51,8.98,6.05,9.02,6.09,-6.09,-5.87,2.89,2.93,2.93
52,8.92,6.04,8.92,6.04,-6.04,-5.89,2.89,2.89,2.89
53,8.84,6.00,8.83,5.99,-5.99,-5.91,2.85,2.84,2.84
54,8.70,5.91,8.76,5.96,-5.96,-5.94,2.75,2.80,2.80
55,8.69,5.94,8.69,5.93,-5.93,-5.98,2.76,2.75,2.75
56,8.62,5.92,8.62,5.92,-5.92,-6.02,2.71,2.71,2.71
57,8.56,5.90,8.57,5.91,-5.91,-6.05,2.65,2.66,2.66
58,8.53,5.92,8.52,5.91,-5.91,-6.08,2.63,2.61,2.61
59,8.48,5.92,8.47,5.91,-5.91,-6.10,2.57,2.56,2.56
60,8.44,5.93,8.43,5.92,-5.92,-6.12,2.53,2.51,2.51
61,8.37,5.91,8.39,5.92,-5.92,-6.14,2.45,2.46,2.46
62,8.34,5.93,8.34,5.93,-5.93,-6.14,2.41,2.41,2.41
63,8.31,5.95,8.30,5.94,-5.94,-6.14,2.38,2.36,2.36
64,8.25,5.94,8.25,5.94,-5.94,-6.13,2.31,2.31,2.31
65,8.18,5.93,8.21,5.95,-5.95,-6.11,2.23,2.26,2.26
66,8.16,5.96,8.16,5.95,-5.95,-6.09,2.21,2.21,2.21
67,8.14,5.99,8.11,5.96,-5.96,-6.06,2.19,2.15,2.15
68,8.06,5.96,8.06,5.96,-5.96,-6.03,2.10,2.10,2.10
69,7.98,5.94,8.01,5.96,-5.96,-6.00,2.02,2.05,2.05
70,7.95,5.96,7.96,5.96,-5.96,-5.97,1.99,1.99,1.99
71,7.91,5.98,7.90,5.96,-5.96,-5.93,1.95,1.94,1.94
72,7.84,5.96,7.85,5.97,-5.97,-5.90,1.88,1.88,1.88
73,7.80,5.97,7.80,5.97,-5.97,-5.87,1.84,1.83,1.83
74,7.74,5.97,7.75,5.97,-5.97,-5.84,1.77,1.78,1.78
75,7.70,5.98,7.70,5.97,-5.97,-5.82,1.73,1.72,1.72
76,7.63,5.97,7.65,5.98,-5.98,-5.80,1.65,1.67,1.67
77,7.59,5.98,7.60,5.99,-5.99,-5.78,1.61,1.61,1.61
78,7.56,6.01,7.56,6.00,-6.00,-5.77,1.56,1.56,1.56
79,7.52,6.02,7.52,6.02,-6.02,-5.76,1.51,1.50,1.50
80,7.48,6.03,7.48,6.03,-6.03,-5.76,1.45,1.45,1.45
81,7.44,6.05,7.45,6.05,-6.05,-5.77,1.39,1.40,1.40
82,7.40,6.06,7.42,6.08,-6.08,-5.78,1.33,1.34,1.34
83,7.40,6.11,7.39,6.10,-6.10,-5.80,1.30,1.29,1.29
84,7.37,6.14,7.37,6.13,-6.13,-5.82,1.24,1.24,1.24
85,7.33,6.15,7.34,6.16,-6.16,-5.85,1.18,1.19,1.19
86,7.33,6.20,7.32,6.18,-6.18,-5.88,1.15,1.13,1.13
87,7.29,6.21,7.29,6.21,-6.21,-5.92,1.09,1.08,1.08
88,7.26,6.23,7.26,6.23,-6.23,-5.97,1.03,1.03,1.03
89,7.22,6.25,7.24,6.26,-6.26,-6.02,0.96,0.98,0.98
90,7.22,6.30,7.21,6.29,-6.29,-6.07,0.94,0.93,0.93
91,7.19,6.32,7.19,6.31,-6.31,-6.13,0.88,0.88,0.88
92,7.15,6.33,7.16,6.34,-6.34,-6.19,0.82,0.83,0.83
93,7.12,6.34,7.14,6.36,-6.36,-6.26,0.76,0.78,0.78
94,7.11,6.38,7.12,6.39,-6.39,-6.34,0.73,0.73,0.73
95,7.11,6.43,7.09,6.41,-6.41,-6.41,0.70,0.68,0.68
96,7.09,6.46,7.07,6.43,-6.43,-6.49,0.66,0.64,0.64
97,7.05,6.47,7.05,6.46,-6.46,-6.58,0.59,0.59,0.59
98,7.02,6.48,7.03,6.49,-6.49,-6.66,0.54,0.54,0.54
99,6.98,6.49,7.01,6.52,-6.52,-6.75,0.47,0.49,0.50
100,6.97,6.52,7.00,6.55,-6.55,-6.84,0.42,0.44,0.45
101,7.00,6.60,6.98,6.59,-6.59,-6.94,0.42,0.39,0.41
102,6.97,6.61,6.97,6.63,-6.63,-7.03,0.35,0.34,0.36
104,6.97,6.70,6.96,6.67,-6.67,-7.23,0.31,0.29,0.28
105,6.93,6.70,6.95,6.71,-6.71,-7.32,0.23,0.24,0.23
106,6.94,6.75,6.94,6.75,-6.75,-7.42,0.20,0.20,0.19
107,6.93,6.78,6.93,6.78,-6.78,-7.51,0.15,0.15,0.15
108,6.94,6.83,6.93,6.81,-6.81,-7.61,0.13,0.11,0.11
109,6.93,6.86,6.91,6.85,-6.85,-7.70,0.09,0.07,0.07
110,6.90,6.87,6.90,6.88,-6.88,-7.79,0.03,0.03,0.03
111,6.87,6.88,6.90,6.90,-6.90,-7.87,-0.03,-0.01,-0.01
112,6.87,6.92,6.89,6.94,-6.94,-7.96,-0.06,-0.05,-0.05
113,6.87,6.96,6.88,6.97,-6.97,-8.03,-0.09,-0.09,-0.08
114,6.87,6.99,6.87,7.00,-7.00,-8.11,-0.13,-0.13,-0.12
115,6.87,7.03,6.87,7.04,-7.04,-8.18,-0.16,-0.17,-0.16
117,6.86,7.09,6.86,7.07,-7.07,-8.30,-0.21,-0.21,-0.23
118,6.86,7.13,6.86,7.11,-7.11,-8.35,-0.24,-0.25,-0.26
119,6.85,7.15,6.85,7.14,-7.14,-8.39,-0.29,-0.29,-0.30
120,6.84,7.17,6.84,7.17,-7.17,-8.43,-0.33,-0.33,-0.33
121,6.84,7.21,6.83,7.20,-7.20,-8.46,-0.36,-0.37,-0.36
123,6.80,7.23,6.82,7.23,-7.23,-8.50,-0.43,-0.41,-0.43
124,6.79,7.25,6.81,7.26,-7.26,-8.50,-0.46,-0.45,-0.46
125,6.78,7.27,6.79,7.28,-7.28,-8.51,-0.50,-0.49,-0.49
126,6.77,7.29,6.78,7.31,-7.31,-8.50,-0.53,-0.53,-0.52
128,6.80,7.38,6.77,7.33,-7.33,-8.47,-0.53,-0.56,-0.57
129,6.76,7.37,6.76,7.36,-7.36,-8.44,-0.59,-0.60,-0.60
130,6.72,7.35,6.74,7.38,-7.38,-8.41,-0.65,-0.63,-0.63
131,6.69,7.35,6.73,7.40,-7.40,-8.37,-0.71,-0.67,-0.66
133,6.74,7.45,6.72,7.42,-7.42,-8.28,-0.68,-0.70,-0.71
134,6.73,7.47,6.70,7.44,-7.44,-8.23,-0.71,-0.74,-0.74
135,6.70,7.47,6.69,7.46,-7.46,-8.18,-0.76,-0.77,-0.76
137,6.66,7.48,6.67,7.48,-7.48,-8.05,-0.82,-0.81,-0.81
138,6.61,7.45,6.66,7.50,-7.50,-7.99,-0.88,-0.84,-0.84
140,6.64,7.53,6.65,7.52,-7.52,-7.85,-0.87,-0.87,-0.88
141,6.65,7.56,6.64,7.54,-7.54,-7.78,-0.89,-0.90,-0.90
142,6.64,7.57,6.63,7.56,-7.56,-7.71,-0.92,-0.94,-0.93
144,6.61,7.58,6.62,7.58,-7.58,-7.56,-0.97,-0.97,-0.97
145,6.57,7.56,6.61,7.60,-7.60,-7.49,-1.03,-1.00,-0.99
147,6.59,7.63,6.60,7.62,-7.62,-7.34,-1.03,-1.03,-1.03
148,6.61,7.67,6.59,7.64,-7.64,-7.27,-1.03,-1.06,-1.05
150,6.60,7.69,6.58,7.66,-7.66,-7.12,-1.06,-1.08,-1.09
151,6.56,7.67,6.57,7.68,-7.68,-7.05,-1.11,-1.11,-1.11
153,6.52,7.67,6.55,7.69,-7.69,-6.91,-1.17,-1.14,-1.14
154,6.51,7.68,6.54,7.71,-7.71,-6.84,-1.20,-1.17,-1.16
156,6.56,7.76,6.53,7.72,-7.72,-6.71,-1.16,-1.19,-1.20
157,6.55,7.77,6.52,7.74,-7.74,-6.65,-1.19,-1.22,-1.21
159,6.51,7.76,6.52,7.76,-7.76,-6.53,-1.24,-1.24,-1.25
160,6.47,7.74,6.51,7.78,-7.78,-6.47,-1.30,-1.27,-1.26
162,6.47,7.77,6.51,7.80,-7.80,-6.36,-1.33,-1.29,-1.29
164,6.53,7.86,6.51,7.82,-7.82,-6.25,-1.29,-1.32,-1.32
165,6.51,7.85,6.51,7.85,-7.85,-6.20,-1.33,-1.34,-1.34
167,6.52,7.89,6.51,7.87,-7.87,-6.11,-1.35,-1.36,-1.36
169,6.50,7.89,6.51,7.90,-7.90,-6.02,-1.39,-1.39,-1.39
170,6.49,7.90,6.51,7.92,-7.92,-5.98,-1.43,-1.41,-1.40
172,6.52,7.95,6.52,7.95,-7.95,-5.90,-1.42,-1.43,-1.43
174,6.53,7.99,6.52,7.97,-7.97,-5.83,-1.44,-1.45,-1.45
175,6.50,7.97,6.52,8.00,-8.00,-5.80,-1.49,-1.47,-1.47
177,6.49,7.98,6.53,8.02,-8.02,-5.74,-1.52,-1.49,-1.49
179,6.58,8.09,6.53,8.04,-8.04,-5.68,-1.45,-1.51,-1.51
181,6.54,8.08,6.53,8.06,-8.06,-5.63,-1.51,-1.53,-1.53
183,6.51,8.07,6.53,8.08,-8.08,-5.59,-1.56,-1.55,-1.55
184,6.48,8.05,6.52,8.09,-8.09,-5.57,-1.60,-1.57,-1.56
186,6.45,8.04,6.51,8.10,-8.10,-5.53,-1.64,-1.58,-1.58
188,6.50,8.11,6.49,8.09,-8.09,-5.50,-1.59,-1.60,-1.60
190,6.47,8.09,6.46,8.08,-8.08,-5.48,-1.60,-1.62,-1.62
192,6.42,8.06,6.41,8.05,-8.05,-5.46,-1.62,-1.64,-1.64
194,6.35,8.01,6.34,7.99,-7.99,-5.44,-1.64,-1.65,-1.65
196,6.30,7.97,6.24,7.91,-7.91,-5.43,-1.61,-1.67,-1.67
198,6.16,7.85,6.13,7.81,-7.81,-5.42,-1.65,-1.69,-1.69
200,6.01,7.72,5.99,7.69,-7.69,-5.41,-1.68,-1.70,-1.70
202,5.84,7.56,5.83,7.55,-7.55,-5.41,-1.71,-1.72,-1.72
204,5.64,7.38,5.67,7.40,-7.40,-5.41,-1.75,-1.73,-1.73
206,5.45,7.20,5.49,7.24,-7.24,-5.41,-1.78,-1.74,-1.74
208,5.28,7.04,5.32,7.08,-7.08,-5.41,-1.79,-1.76,-1.76
210,5.13,6.90,5.15,6.92,-6.92,-5.41,-1.79,-1.77,-1.77
212,4.97,6.76,4.99,6.78,-6.78,-5.42,-1.80,-1.78,-1.78
214,4.83,6.63,4.84,6.63,-6.63,-5.42,-1.80,-1.80,-1.80
216,4.69,6.50,4.69,6.50,-6.50,-5.43,-1.81,-1.81,-1.81
218,4.56,6.38,4.55,6.37,-6.37,-5.43,-1.81,-1.82,-1.82
221,4.39,6.23,4.41,6.24,-6.24,-5.44,-1.85,-1.83,-1.83
223,4.28,6.13,4.27,6.11,-6.11,-5.45,-1.83,-1.84,-1.84
225,4.12,5.98,4.13,5.98,-5.98,-5.45,-1.86,-1.85,-1.85
227,3.98,5.85,3.98,5.84,-5.84,-5.45,-1.86,-1.87,-1.86
229,3.87,5.75,3.83,5.70,-5.70,-5.45,-1.83,-1.88,-1.87
232,3.63,5.52,3.67,5.56,-5.56,-5.45,-1.93,-1.89,-1.89
234,3.52,5.42,3.51,5.41,-5.41,-5.44,-1.89,-1.90,-1.90
236,3.34,5.25,3.35,5.26,-5.26,-5.43,-1.91,-1.91,-1.90
239,3.17,5.09,3.19,5.10,-5.10,-5.42,-1.93,-1.92,-1.92
241,3.03,4.96,3.02,4.94,-4.94,-5.40,-1.91,-1.93,-1.92
244,2.82,4.76,2.84,4.78,-4.78,-5.38,-1.95,-1.93,-1.94
246,2.67,4.62,2.66,4.61,-4.61,-5.35,-1.93,-1.94,-1.94
248,2.52,4.47,2.48,4.43,-4.43,-5.33,-1.91,-1.95,-1.95
251,2.29,4.25,2.30,4.26,-4.26,-5.29,-1.96,-1.96,-1.96
253,2.14,4.11,2.11,4.08,-4.08,-5.25,-1.94,-1.97,-1.97
256,1.91,3.89,1.93,3.90,-3.90,-5.20,-1.99,-1.98,-1.98
259,1.71,3.70,1.75,3.73,-3.73,-5.14,-2.02,-1.98,-1.99
261,1.58,3.57,1.57,3.57,-3.57,-5.10,-1.98,-1.99,-1.99
264,1.38,3.38,1.41,3.41,-3.41,-5.03,-2.03,-2.00,-2.00
266,1.26,3.27,1.26,3.26,-3.26,-4.98,-2.00,-2.01,-2.00
269,1.09,3.11,1.12,3.13,-3.13,-4.90,-2.04,-2.01,-2.01
272,0.97,2.99,0.99,3.01,-3.01,-4.82,-2.04,-2.02,-2.02
274,0.89,2.92,0.87,2.90,-2.90,-4.76,-2.01,-2.03,-2.02
277,0.78,2.82,0.77,2.80,-2.80,-4.68,-2.01,-2.03,-2.03
280,0.66,2.70,0.67,2.71,-2.71,-4.59,-2.04,-2.04,-2.04
283,0.56,2.61,0.58,2.62,-2.62,-4.50,-2.06,-2.04,-2.04
286,0.48,2.53,0.49,2.54,-2.54,-4.41,-2.06,-2.05,-2.05
288,0.44,2.50,0.41,2.47,-2.47,-4.35,-2.02,-2.06,-2.05
291,0.33,2.39,0.34,2.40,-2.40,-4.26,-2.06,-2.06,-2.06
294,0.28,2.35,0.27,2.33,-2.33,-4.17,-2.05,-2.07,-2.07
297,0.19,2.27,0.21,2.28,-2.28,-4.08,-2.09,-2.07,-2.07
300,0.16,2.24,0.16,2.23,-2.23,-3.99,-2.07,-2.08,-2.08
303,0.12,2.21,0.12,2.20,-2.20,-3.90,-2.07,-2.08,-2.08
306,0.06,2.15,0.09,2.17,-2.17,-3.81,-2.11,-2.09,-2.09
309,0.04,2.13,0.07,2.16,-2.16,-3.72,-2.12,-2.09,-2.09
312,0.04,2.14,0.07,2.16,-2.16,-3.64,-2.12,-2.10,-2.10
316,0.08,2.18,0.07,2.17,-2.17,-3.53,-2.09,-2.10,-2.10
319,0.10,2.21,0.09,2.19,-2.19,-3.45,-2.09,-2.10,-2.10
322,0.12,2.23,0.11,2.22,-2.22,-3.37,-2.10,-2.11,-2.11
325,0.13,2.25,0.14,2.26,-2.26,-3.29,-2.12,-2.11,-2.11
328,0.17,2.29,0.18,2.30,-2.30,-3.22,-2.12,-2.12,-2.12
332,0.22,2.34,0.22,2.34,-2.34,-3.12,-2.11,-2.12,-2.12
335,0.26,2.39,0.26,2.38,-2.38,-3.05,-2.12,-2.12,-2.12
338,0.27,2.40,0.29,2.42,-2.42,-2.99,-2.15,-2.13,-2.13
342,0.33,2.46,0.33,2.46,-2.46,-2.90,-2.13,-2.13,-2.13
345,0.38,2.52,0.36,2.50,-2.50,-2.84,-2.11,-2.13,-2.13
349,0.40,2.54,0.39,2.53,-2.53,-2.76,-2.13,-2.14,-2.14
352,0.42,2.56,0.42,2.56,-2.56,-2.70,-2.13,-2.14,-2.14
356,0.43,2.58,0.44,2.58,-2.58,-2.62,-2.15,-2.14,-2.14
359,0.43,2.58,0.46,2.61,-2.61,-2.57,-2.17,-2.15,-2.15
363,0.47,2.62,0.47,2.62,-2.62,-2.50,-2.15,-2.15,-2.15
366,0.50,2.66,0.49,2.64,-2.64,-2.45,-2.14,-2.15,-2.15
370,0.50,2.66,0.50,2.65,-2.65,-2.39,-2.15,-2.16,-2.16
374,0.50,2.66,0.50,2.66,-2.66,-2.33,-2.16,-2.16,-2.16
377,0.50,2.67,0.51,2.67,-2.67,-2.28,-2.17,-2.16,-2.16
381,0.50,2.67,0.51,2.68,-2.68,-2.23,-2.17,-2.17,-2.17
385,0.50,2.67,0.51,2.68,-2.68,-2.17,-2.17,-2.17,-2.17
389,0.50,2.68,0.51,2.68,-2.68,-2.12,-2.18,-2.17,-2.17
393,0.50,2.68,0.50,2.68,-2.68,-2.07,-2.18,-2.17,-2.17
397,0.50,2.68,0.50,2.68,-2.68,-2.03,-2.17,-2.18,-2.18
401,0.50,2.68,0.49,2.67,-2.67,-1.98,-2.17,-2.18,-2.18
405,0.47,2.66,0.48,2.66,-2.66,-1.94,-2.19,-2.18,-2.18
409,0.46,2.65,0.47,2.65,-2.65,-1.90,-2.19,-2.19,-2.19
413,0.44,2.63,0.45,2.64,-2.64,-1.86,-2.19,-2.19,-2.19
417,0.42,2.61,0.43,2.62,-2.62,-1.82,-2.19,-2.19,-2.19
421,0.42,2.61,0.41,2.60,-2.60,-1.78,-2.17,-2.19,-2.19
425,0.40,2.59,0.38,2.57,-2.57,-1.75,-2.16,-2.19,-2.19
430,0.33,2.53,0.35,2.54,-2.54,-1.71,-2.20,-2.19,-2.19
434,0.28,2.48,0.31,2.50,-2.50,-1.68,-2.22,-2.19,-2.19
438,0.27,2.46,0.27,2.46,-2.46,-1.64,-2.19,-2.19,-2.19
443,0.26,2.45,0.24,2.43,-2.43,-1.61,-2.16,-2.19,-2.19
447,0.19,2.38,0.20,2.38,-2.38,-1.58,-2.19,-2.19,-2.19
451,0.12,2.31,0.16,2.34,-2.34,-1.55,-2.22,-2.18,-2.18
456,0.13,2.31,0.12,2.30,-2.30,-1.52,-2.16,-2.18,-2.18
460,0.09,2.27,0.08,2.25,-2.25,-1.49,-2.16,-2.17,-2.17
465,0.00,2.17,0.04,2.21,-2.21,-1.46,-2.20,-2.17,-2.17
470,0.00,2.17,-0.00,2.16,-2.16,-1.43,-2.15,-2.16,-2.16
474,-0.03,2.13,-0.05,2.11,-2.11,-1.40,-2.13,-2.15,-2.15
479,-0.10,2.05,-0.09,2.05,-2.05,-1.37,-2.15,-2.14,-2.14
484,-0.13,2.01,-0.14,2.00,-2.00,-1.35,-2.12,-2.13,-2.13
489,-0.20,1.93,-0.19,1.94,-1.94,-1.32,-2.13,-2.12,-2.12
494,-0.25,1.86,-0.23,1.88,-1.88,-1.29,-2.12,-2.11,-2.11
499,-0.28,1.82,-0.28,1.81,-1.81,-1.26,-2.09,-2.10,-2.10
504,-0.33,1.76,-0.34,1.75,-1.75,-1.24,-2.07,-2.08,-2.08
509,-0.40,1.67,-0.39,1.68,-1.68,-1.21,-2.08,-2.07,-2.07
514,-0.45,1.60,-0.44,1.61,-1.61,-1.18,-2.06,-2.05,-2.05
519,-0.50,1.54,-0.49,1.54,-1.54,-1.16,-2.04,-2.03,-2.03
524,-0.53,1.49,-0.54,1.47,-1.47,-1.13,-2.00,-2.01,-2.01
529,-0.60,1.40,-0.59,1.40,-1.40,-1.11,-2.00,-1.99,-1.99
535,-0.64,1.34,-0.65,1.32,-1.32,-1.08,-1.96,-1.97,-1.97
540,-0.71,1.25,-0.70,1.25,-1.25,-1.05,-1.95,-1.95,-1.95
545,-0.76,1.17,-0.76,1.17,-1.17,-1.03,-1.93,-1.93,-1.93
551,-0.82,1.09,-0.81,1.09,-1.09,-1.00,-1.91,-1.91,-1.91
556,-0.87,1.01,-0.87,1.02,-1.02,-0.98,-1.88,-1.88,-1.88
562,-0.92,0.94,-0.92,0.94,-0.94,-0.95,-1.85,-1.86,-1.86
568,-0.98,0.85,-0.97,0.86,-0.86,-0.93,-1.84,-1.83,-1.83
573,-1.02,0.79,-1.01,0.79,-0.79,-0.90,-1.81,-1.80,-1.80
579,-1.06,0.72,-1.06,0.72,-0.72,-0.88,-1.77,-1.78,-1.78
585,-1.10,0.65,-1.10,0.65,-0.65,-0.85,-1.74,-1.75,-1.75
591,-1.15,0.57,-1.14,0.58,-0.58,-0.83,-1.72,-1.72,-1.72
596,-1.17,0.52,-1.18,0.51,-0.51,-0.80,-1.68,-1.69,-1.69
602,-1.22,0.44,-1.21,0.45,-0.45,-0.78,-1.66,-1.66,-1.66
608,-1.24,0.39,-1.25,0.38,-0.38,-0.76,-1.62,-1.63,-1.63
615,-1.29,0.31,-1.27,0.32,-0.32,-0.73,-1.61,-1.60,-1.60
621,-1.32,0.25,-1.30,0.26,-0.26,-0.70,-1.58,-1.56,-1.56
627,-1.31,0.23,-1.32,0.21,-0.21,-0.68,-1.51,-1.53,-1.53
633,-1.37,0.13,-1.35,0.15,-0.15,-0.66,-1.52,-1.50,-1.50
639,-1.39,0.08,-1.37,0.10,-0.10,-0.64,-1.49,-1.47,-1.47
646,-1.38,0.06,-1.39,0.04,-0.04,-0.61,-1.42,-1.43,-1.43
652,-1.38,0.02,-1.41,-0.01,0.01,-0.59,-1.36,-1.40,-1.40
659,-1.40,-0.03,-1.43,-0.07,0.07,-0.56,-1.33,-1.36,-1.36
665,-1.44,-0.11,-1.45,-0.13,0.13,-0.54,-1.31,-1.33,-1.33
672,-1.49,-0.20,-1.47,-0.18,0.18,-0.52,-1.30,-1.29,-1.29
679,-1.51,-0.25,-1.49,-0.24,0.24,-0.49,-1.27,-1.25,-1.25
686,-1.54,-0.32,-1.50,-0.29,0.29,-0.47,-1.25,-1.22,-1.22
692,-1.55,-0.37,-1.51,-0.33,0.33,-0.45,-1.22,-1.18,-1.18
699,-1.51,-0.36,-1.51,-0.37,0.37,-0.43,-1.14,-1.14,-1.14
706,-1.51,-0.40,-1.50,-0.40,0.40,-0.40,-1.11,-1.10,-1.10
713,-1.48,-0.41,-1.49,-0.43,0.43,-0.38,-1.05,-1.07,-1.07
721,-1.48,-0.45,-1.48,-0.46,0.46,-0.36,-1.02,-1.03,-1.03
728,-1.47,-0.47,-1.48,-0.48,0.48,-0.34,-0.98,-0.99,-0.99
735,-1.45,-0.49,-1.47,-0.52,0.52,-0.31,-0.93,-0.95,-0.95
742,-1.46,-0.54,-1.47,-0.55,0.55,-0.29,-0.91,-0.92,-0.92
750,-1.46,-0.58,-1.47,-0.59,0.59,-0.27,-0.87,-0.88,-0.88
757,-1.50,-0.65,-1.47,-0.62,0.62,-0.25,-0.87,-0.84,-0.84
765,-1.48,-0.67,-1.47,-0.66,0.66,-0.23,-0.82,-0.81,-0.81
773,-1.48,-0.71,-1.47,-0.70,0.70,-0.20,-0.78,-0.77,-0.77
780,-1.48,-0.74,-1.46,-0.73,0.73,-0.19,-0.74,-0.73,-0.73
788,-1.44,-0.74,-1.46,-0.76,0.76,-0.16,-0.67,-0.70,-0.70
796,-1.43,-0.76,-1.46,-0.80,0.80,-0.14,-0.63,-0.66,-0.66
804,-1.46,-0.83,-1.45,-0.82,0.82,-0.12,-0.63,-0.63,-0.63
812,-1.45,-0.85,-1.44,-0.85,0.85,-0.10,-0.60,-0.59,-0.59
820,-1.45,-0.88,-1.43,-0.87,0.87,-0.09,-0.57,-0.56,-0.56
828,-1.43,-0.90,-1.42,-0.89,0.89,-0.07,-0.54,-0.53,-0.53
837,-1.40,-0.90,-1.40,-0.90,0.90,-0.05,-0.50,-0.50,-0.50
845,-1.37,-0.90,-1.37,-0.90,0.90,-0.03,-0.47,-0.47,-0.47
853,-1.34,-0.90,-1.33,-0.90,0.90,-0.02,-0.44,-0.44,-0.44
862,-1.30,-0.89,-1.29,-0.88,0.88,-0.00,-0.41,-0.41,-0.41
871,-1.26,-0.88,-1.24,-0.86,0.86,0.01,-0.39,-0.38,-0.38
879,-1.16,-0.81,-1.19,-0.84,0.84,0.02,-0.32,-0.35,-0.35
888,-1.13,-0.81,-1.12,-0.81,0.81,0.03,-0.32,-0.32,-0.32
897,-1.06,-0.77,-1.06,-0.77,0.77,0.04,-0.29,-0.29,-0.29
906,-1.00,-0.73,-0.99,-0.73,0.73,0.05,-0.27,-0.26,-0.26
915,-0.91,-0.67,-0.91,-0.68,0.68,0.05,-0.23,-0.24,-0.24
924,-0.85,-0.64,-0.83,-0.62,0.62,0.06,-0.22,-0.21,-0.21
933,-0.72,-0.53,-0.74,-0.56,0.56,0.06,-0.15,-0.18,-0.18
943,-0.67,-0.51,-0.65,-0.50,0.50,0.06,-0.17,-0.16,-0.16
952,-0.57,-0.44,-0.55,-0.43,0.43,0.05,-0.14,-0.13,-0.13
962,-0.47,-0.36,-0.45,-0.35,0.35,0.05,-0.12,-0.10,-0.10
971,-0.33,-0.25,-0.34,-0.27,0.27,0.04,-0.06,-0.08,-0.08
981,-0.23,-0.18,-0.23,-0.18,0.18,0.03,-0.05,-0.05,-0.05
991,-0.13,-0.10,-0.11,-0.09,0.09,0.02,-0.03,-0.02,-0.02
1001,0.01,0.01,0.00,-0.00,0.00,-0.00,0.01,0.00,0.00
1011,0.13,0.10,0.12,0.09,-0.09,-0.02,0.04,0.03,0.03
1021,0.22,0.17,0.24,0.18,-0.18,-0.04,0.04,0.06,0.06
1031,0.38,0.30,0.36,0.28,-0.28,-0.06,0.11,0.09,0.09
1041,0.49,0.38,0.49,0.37,-0.37,-0.09,0.12,0.11,0.11
1052,0.60,0.46,0.61,0.47,-0.47,-0.12,0.14,0.14,0.14
1062,0.73,0.56,0.73,0.57,-0.57,-0.15,0.17,0.17,0.17
1073,0.83,0.64,0.86,0.66,-0.66,-0.19,0.17,0.20,0.20
1084,0.98,0.76,0.99,0.76,-0.76,-0.22,0.22,0.23,0.23
1094,1.14,0.89,1.12,0.86,-0.86,-0.26,0.28,0.26,0.26
1105,1.23,0.95,1.25,0.96,-0.96,-0.30,0.27,0.29,0.29
1116,1.36,1.05,1.37,1.06,-1.06,-0.35,0.31,0.32,0.32
1128,1.49,1.15,1.50,1.15,-1.15,-0.39,0.34,0.35,0.35
1139,1.65,1.28,1.62,1.24,-1.24,-0.44,0.41,0.38,0.38
1150,1.73,1.33,1.74,1.33,-1.33,-0.49,0.40,0.41,0.41
1162,1.85,1.42,1.85,1.41,-1.41,-0.54,0.44,0.44,0.44
1173,1.97,1.50,1.97,1.49,-1.49,-0.59,0.48,0.47,0.47
1185,2.06,1.56,2.07,1.57,-1.57,-0.65,0.49,0.50,0.50
1197,2.16,1.63,2.18,1.65,-1.65,-0.70,0.52,0.53,0.53
1209,2.29,1.73,2.29,1.72,-1.72,-0.76,0.57,0.57,0.57
1221,2.37,1.77,2.39,1.79,-1.79,-0.82,0.58,0.60,0.60
1233,2.49,1.86,2.49,1.86,-1.86,-0.88,0.64,0.63,0.63
1246,2.61,1.95,2.59,1.92,-1.92,-0.94,0.69,0.67,0.67
1258,2.67,1.97,2.68,1.98,-1.98,-1.01,0.69,0.70,0.70
1271,2.76,2.03,2.77,2.04,-2.04,-1.07,0.72,0.73,0.73
1283,2.86,2.09,2.86,2.09,-2.09,-1.13,0.77,0.77,0.77
1296,2.98,2.18,2.95,2.14,-2.14,-1.20,0.84,0.80,0.80
1309,3.02,2.18,3.03,2.19,-2.19,-1.27,0.83,0.84,0.84
1322,3.06,2.19,3.11,2.24,-2.24,-1.34,0.83,0.88,0.88
1335,3.22,2.31,3.19,2.28,-2.28,-1.40,0.94,0.91,0.91
1349,3.28,2.34,3.27,2.33,-2.33,-1.48,0.96,0.95,0.95
1362,3.35,2.37,3.35,2.37,-2.37,-1.55,0.98,0.98,0.98
1376,3.40,2.38,3.43,2.41,-2.41,-1.62,0.99,1.02,1.02
1390,3.54,2.48,3.52,2.46,-2.46,-1.70,1.09,1.06,1.06
1404,3.61,2.52,3.60,2.50,-2.50,-1.78,1.11,1.10,1.10
1418,3.65,2.52,3.68,2.55,-2.55,-1.85,1.11,1.14,1.14
1432,3.75,2.58,3.77,2.59,-2.59,-1.93,1.16,1.17,1.17
1446,3.87,2.66,3.86,2.64,-2.64,-2.01,1.23,1.21,1.21
1461,3.93,2.68,3.95,2.69,-2.69,-2.09,1.24,1.25,1.25
1475,4.05,2.76,4.04,2.74,-2.74,-2.17,1.31,1.29,1.29
1490,4.13,2.80,4.13,2.80,-2.80,-2.25,1.34,1.33,1.33
1505,4.22,2.85,4.23,2.85,-2.85,-2.34,1.37,1.37,1.37
1520,4.34,2.93,4.33,2.91,-2.91,-2.42,1.43,1.42,1.42
1535,4.41,2.96,4.43,2.98,-2.98,-2.51,1.44,1.46,1.46
1550,4.53,3.04,4.54,3.04,-3.04,-2.59,1.49,1.50,1.50
1566,4.64,3.10,4.65,3.11,-3.11,-2.68,1.53,1.54,1.54
1582,4.78,3.20,4.77,3.19,-3.19,-2.77,1.60,1.58,1.58
1597,4.88,3.26,4.89,3.26,-3.26,-2.86,1.62,1.63,1.63
1613,5.02,3.35,5.01,3.34,-3.34,-2.95,1.68,1.67,1.67
1629,5.12,3.41,5.14,3.42,-3.42,-3.04,1.70,1.71,1.71
1646,5.28,3.52,5.27,3.51,-3.51,-3.14,1.78,1.76,1.76
1662,5.38,3.58,5.39,3.59,-3.59,-3.23,1.80,1.80,1.80
1679,5.53,3.68,5.52,3.67,-3.67,-3.32,1.86,1.85,1.85
1696,5.65,3.76,5.65,3.76,-3.76,-3.41,1.90,1.90,1.90
1713,5.77,3.83,5.78,3.84,-3.84,-3.51,1.93,1.94,1.94
1730,5.91,3.92,5.91,3.92,-3.92,-3.60,1.99,1.99,1.99
1747,6.04,4.00,6.05,4.01,-4.01,-3.69,2.03,2.04,2.04
1764,6.17,4.09,6.18,4.09,-4.09,-3.77,2.08,2.09,2.09
1782,6.31,4.17,6.32,4.18,-4.18,-3.86,2.13,2.14,2.14
1800,6.45,4.26,6.45,4.26,-4.26,-3.95,2.19,2.19,2.19
1818,6.59,4.35,6.59,4.34,-4.34,-4.04,2.25,2.24,2.25
