frequency,raw,error,smoothed,error_smoothed,equalization,parametric_eq,fixed_band_eq,equalized_raw,equalized_smoothed,target
20.00,-1.59,-3.16,-1.59,-3.15,3.16,2.13,-0.01,1.57,1.57,1.57
20.20,-1.49,-3.06,-1.50,-3.06,3.06,2.09,-0.00,1.57,1.57,1.57
20.40,-1.41,-2.97,-1.40,-2.97,2.97,2.05,-0.00,1.56,1.57,1.57
20.61,-1.31,-2.88,-1.31,-2.88,2.87,2.01,0.00,1.56,1.56,1.57
20.81,-1.21,-2.77,-1.22,-2.78,2.78,1.97,0.00,1.57,1.56,1.56
21.02,-1.13,-2.69,-1.13,-2.68,2.68,1.93,0.00,1.55,1.56,1.56
21.23,-1.04,-2.58,-1.04,-2.59,2.59,1.89,0.01,1.55,1.55,1.54
21.44,-0.96,-2.49,-0.96,-2.50,2.50,1.84,0.01,1.54,1.53,1.53
21.66,-0.89,-2.40,-0.89,-2.40,2.40,1.80,0.01,1.51,1.52,1.51
21.87,-0.82,-2.31,-0.81,-2.31,2.31,1.76,0.01,1.49,1.49,1.49
22.09,-0.74,-2.22,-0.74,-2.22,2.22,1.71,0.02,1.48,1.47,1.48
22.31,-0.67,-2.12,-0.67,-2.13,2.12,1.67,0.02,1.45,1.45,1.45
22.54,-0.61,-2.04,-0.60,-2.03,2.03,1.62,0.02,1.42,1.43,1.43
22.76,-0.53,-1.94,-0.54,-1.94,1.94,1.58,0.03,1.41,1.41,1.41
22.99,-0.47,-1.85,-0.47,-1.85,1.85,1.53,0.03,1.38,1.38,1.38
23.22,-0.41,-1.76,-0.41,-1.76,1.77,1.49,0.03,1.36,1.36,1.35
23.45,-0.35,-1.68,-0.35,-1.68,1.68,1.44,0.04,1.33,1.33,1.33
23.69,-0.29,-1.61,-0.29,-1.60,1.60,1.39,0.04,1.31,1.31,1.32
23.92,-0.22,-1.52,-0.22,-1.52,1.52,1.34,0.04,1.30,1.30,1.30
24.16,-0.16,-1.44,-0.16,-1.45,1.44,1.29,0.04,1.28,1.28,1.28
24.40,-0.11,-1.37,-0.11,-1.37,1.37,1.24,0.05,1.26,1.26,1.26
24.65,-0.05,-1.29,-0.05,-1.29,1.29,1.19,0.05,1.24,1.24,1.24
24.89,0.01,-1.21,0.01,-1.22,1.22,1.14,0.05,1.23,1.23,1.22
25.14,0.07,-1.14,0.07,-1.14,1.14,1.09,0.06,1.21,1.21,1.21
25.39,0.13,-1.06,0.13,-1.06,1.06,1.04,0.06,1.19,1.19,1.19
25.65,0.19,-0.99,0.19,-0.98,0.98,0.99,0.06,1.17,1.17,1.18
25.91,0.26,-0.89,0.26,-0.90,0.89,0.93,0.06,1.15,1.15,1.15
26.16,0.33,-0.81,0.33,-0.81,0.80,0.88,0.06,1.13,1.13,1.14
26.43,0.40,-0.73,0.40,-0.72,0.71,0.83,0.06,1.11,1.12,1.13
26.69,0.48,-0.62,0.48,-0.63,0.62,0.77,0.06,1.10,1.11,1.10
26.96,0.57,-0.52,0.56,-0.53,0.53,0.72,0.06,1.10,1.10,1.09
27.23,0.64,-0.44,0.64,-0.44,0.45,0.66,0.06,1.09,1.09,1.08
27.50,0.71,-0.36,0.71,-0.36,0.36,0.61,0.06,1.07,1.07,1.07
27.77,0.78,-0.27,0.78,-0.28,0.28,0.55,0.06,1.06,1.06,1.05
28.05,0.84,-0.20,0.84,-0.20,0.20,0.49,0.06,1.04,1.04,1.04
28.33,0.89,-0.13,0.89,-0.13,0.13,0.44,0.05,1.02,1.02,1.02
28.62,0.95,-0.06,0.95,-0.06,0.06,0.38,0.05,1.01,1.00,1.01
28.90,1.00,0.01,1.00,0.01,-0.01,0.32,0.04,0.99,0.99,0.99
29.19,1.05,0.08,1.05,0.08,-0.08,0.26,0.04,0.97,0.98,0.97
29.48,1.11,0.14,1.11,0.14,-0.14,0.20,0.03,0.97,0.97,0.97
29.78,1.16,0.20,1.16,0.20,-0.20,0.14,0.02,0.96,0.96,0.96
30.08,1.21,0.26,1.21,0.26,-0.27,0.08,0.01,0.94,0.94,0.95
30.38,1.25,0.32,1.25,0.33,-0.33,0.02,-0.01,0.92,0.93,0.92
30.68,1.30,0.39,1.30,0.39,-0.39,-0.04,-0.02,0.91,0.91,0.91
30.99,1.35,0.46,1.35,0.45,-0.45,-0.10,-0.03,0.90,0.90,0.89
31.30,1.39,0.51,1.39,0.51,-0.51,-0.16,-0.05,0.88,0.88,0.88
31.61,1.44,0.57,1.43,0.57,-0.57,-0.22,-0.07,0.87,0.86,0.87
31.93,1.47,0.63,1.47,0.63,-0.63,-0.28,-0.09,0.84,0.84,0.84
32.24,1.51,0.70,1.51,0.69,-0.69,-0.34,-0.11,0.82,0.82,0.81
32.57,1.55,0.75,1.55,0.75,-0.75,-0.40,-0.13,0.80,0.80,0.80
32.89,1.58,0.79,1.58,0.80,-0.80,-0.47,-0.16,0.78,0.78,0.79
33.22,1.62,0.87,1.61,0.85,-0.86,-0.53,-0.18,0.76,0.76,0.75
33.55,1.64,0.90,1.64,0.90,-0.91,-0.59,-0.21,0.73,0.74,0.74
33.89,1.67,0.95,1.67,0.96,-0.96,-0.65,-0.24,0.71,0.72,0.72
34.23,1.70,1.00,1.70,1.00,-1.00,-0.72,-0.27,0.70,0.70,0.69
34.57,1.73,1.06,1.73,1.05,-1.05,-0.78,-0.30,0.68,0.68,0.67
34.92,1.75,1.10,1.75,1.10,-1.09,-0.84,-0.33,0.66,0.66,0.65
35.27,1.77,1.13,1.77,1.14,-1.14,-0.91,-0.37,0.63,0.63,0.63
35.62,1.79,1.18,1.79,1.18,-1.18,-0.97,-0.40,0.61,0.61,0.61
35.97,1.81,1.22,1.81,1.22,-1.22,-1.03,-0.44,0.59,0.59,0.59
36.33,1.84,1.27,1.84,1.27,-1.27,-1.09,-0.47,0.57,0.57,0.57
36.70,1.86,1.31,1.86,1.31,-1.31,-1.16,-0.51,0.55,0.55,0.55
37.06,1.89,1.36,1.89,1.36,-1.36,-1.22,-0.55,0.53,0.53,0.53
37.43,1.92,1.41,1.92,1.41,-1.42,-1.28,-0.59,0.50,0.50,0.51
37.81,1.95,1.46,1.95,1.47,-1.47,-1.34,-0.64,0.48,0.48,0.49
38.19,2.00,1.54,2.00,1.53,-1.54,-1.41,-0.68,0.46,0.46,0.46
38.57,2.04,1.59,2.04,1.60,-1.60,-1.47,-0.72,0.44,0.44,0.45
38.95,2.09,1.67,2.09,1.67,-1.66,-1.53,-0.77,0.43,0.43,0.42
39.34,2.14,1.74,2.14,1.74,-1.73,-1.59,-0.81,0.41,0.41,0.40
39.74,2.19,1.82,2.19,1.81,-1.80,-1.65,-0.86,0.39,0.38,0.37
40.14,2.23,1.86,2.23,1.87,-1.87,-1.71,-0.91,0.36,0.36,0.37
40.54,2.27,1.93,2.27,1.93,-1.94,-1.77,-0.95,0.33,0.34,0.34
40.94,2.32,1.99,2.32,2.00,-2.00,-1.83,-1.00,0.32,0.32,0.33
41.35,2.37,2.07,2.37,2.06,-2.06,-1.89,-1.05,0.31,0.31,0.30
41.76,2.42,2.13,2.42,2.13,-2.12,-1.95,-1.11,0.30,0.30,0.29
42.18,2.45,2.17,2.45,2.18,-2.17,-2.00,-1.16,0.28,0.28,0.28
42.60,2.48,2.23,2.48,2.22,-2.22,-2.06,-1.21,0.26,0.26,0.25
43.03,2.50,2.26,2.50,2.27,-2.27,-2.12,-1.27,0.23,0.23,0.24
43.46,2.53,2.31,2.53,2.31,-2.31,-2.17,-1.32,0.22,0.22,0.22
43.90,2.55,2.36,2.55,2.35,-2.35,-2.23,-1.38,0.20,0.19,0.19
44.33,2.57,2.40,2.56,2.39,-2.39,-2.28,-1.43,0.18,0.17,0.17
44.78,2.57,2.42,2.57,2.42,-2.43,-2.34,-1.49,0.14,0.15,0.15
45.23,2.58,2.45,2.58,2.45,-2.46,-2.39,-1.55,0.12,0.12,0.13
45.68,2.59,2.48,2.59,2.49,-2.48,-2.44,-1.61,0.11,0.11,0.11
46.13,2.61,2.52,2.61,2.52,-2.50,-2.50,-1.67,0.11,0.11,0.09
46.60,2.62,2.54,2.62,2.54,-2.52,-2.55,-1.74,0.10,0.10,0.08
47.06,2.62,2.56,2.61,2.55,-2.54,-2.60,-1.80,0.08,0.07,0.06
47.53,2.60,2.56,2.60,2.56,-2.57,-2.65,-1.86,0.03,0.04,0.04
48.01,2.59,2.56,2.59,2.57,-2.60,-2.69,-1.93,-0.01,-0.01,0.03
48.49,2.60,2.60,2.60,2.60,-2.64,-2.74,-1.99,-0.04,-0.04,-0.00
48.97,2.63,2.66,2.63,2.67,-2.70,-2.79,-2.06,-0.07,-0.06,-0.03
49.46,2.68,2.74,2.68,2.75,-2.76,-2.83,-2.13,-0.08,-0.07,-0.06
49.96,2.74,2.84,2.74,2.83,-2.82,-2.88,-2.19,-0.08,-0.08,-0.10
50.46,2.81,2.91,2.80,2.91,-2.89,-2.92,-2.26,-0.08,-0.09,-0.10
50.96,2.86,2.98,2.86,2.99,-2.96,-2.96,-2.33,-0.10,-0.10,-0.12
51.47,2.90,3.05,2.90,3.04,-3.02,-3.01,-2.40,-0.12,-0.13,-0.15
51.99,2.92,3.10,2.91,3.09,-3.08,-3.05,-2.47,-0.16,-0.17,-0.18
52.51,2.92,3.11,2.93,3.12,-3.13,-3.09,-2.54,-0.21,-0.20,-0.19
53.03,2.94,3.16,2.94,3.16,-3.17,-3.13,-2.61,-0.23,-0.22,-0.22
53.56,2.96,3.20,2.96,3.20,-3.20,-3.16,-2.67,-0.24,-0.24,-0.24
54.10,2.98,3.25,2.97,3.24,-3.23,-3.20,-2.74,-0.25,-0.26,-0.27
54.64,2.97,3.26,2.97,3.27,-3.26,-3.24,-2.81,-0.30,-0.29,-0.29
55.18,2.97,3.29,2.97,3.29,-3.30,-3.27,-2.87,-0.33,-0.33,-0.32
55.74,2.98,3.33,2.98,3.32,-3.34,-3.31,-2.94,-0.36,-0.36,-0.35
56.29,2.99,3.35,2.99,3.36,-3.38,-3.34,-3.00,-0.39,-0.38,-0.36
56.86,3.01,3.40,3.01,3.40,-3.41,-3.37,-3.06,-0.40,-0.40,-0.39
57.42,3.02,3.44,3.03,3.44,-3.44,-3.40,-3.12,-0.42,-0.41,-0.42
58.00,3.04,3.48,3.04,3.49,-3.46,-3.44,-3.18,-0.42,-0.42,-0.44
58.58,3.05,3.52,3.04,3.51,-3.48,-3.47,-3.23,-0.43,-0.44,-0.47
59.16,3.03,3.52,3.02,3.51,-3.49,-3.50,-3.28,-0.46,-0.47,-0.49
59.76,2.98,3.49,2.98,3.50,-3.51,-3.52,-3.33,-0.53,-0.52,-0.51
60.35,2.94,3.48,2.95,3.49,-3.51,-3.55,-3.38,-0.58,-0.56,-0.54
60.96,2.93,3.49,2.94,3.50,-3.52,-3.58,-3.42,-0.59,-0.59,-0.56
61.57,2.94,3.54,2.93,3.52,-3.53,-3.61,-3.46,-0.59,-0.60,-0.60
62.18,2.92,3.55,2.92,3.54,-3.54,-3.63,-3.50,-0.62,-0.62,-0.63
62.80,2.89,3.55,2.90,3.56,-3.55,-3.66,-3.53,-0.66,-0.65,-0.66
63.43,2.88,3.57,2.88,3.57,-3.57,-3.68,-3.56,-0.69,-0.69,-0.69
64.07,2.87,3.59,2.87,3.59,-3.59,-3.71,-3.59,-0.72,-0.72,-0.72
64.71,2.87,3.60,2.87,3.60,-3.61,-3.73,-3.62,-0.74,-0.74,-0.73
65.35,2.86,3.62,2.86,3.62,-3.63,-3.76,-3.64,-0.77,-0.77,-0.76
66.01,2.86,3.64,2.86,3.64,-3.65,-3.78,-3.66,-0.79,-0.79,-0.78
66.67,2.86,3.67,2.86,3.67,-3.67,-3.80,-3.68,-0.81,-0.81,-0.81
67.33,2.87,3.70,2.86,3.69,-3.69,-3.83,-3.69,-0.83,-0.83,-0.83
68.01,2.86,3.72,2.87,3.72,-3.72,-3.85,-3.71,-0.86,-0.85,-0.86
68.69,2.87,3.75,2.87,3.75,-3.75,-3.87,-3.72,-0.88,-0.88,-0.88
69.37,2.87,3.78,2.86,3.77,-3.77,-3.89,-3.73,-0.90,-0.91,-0.91
70.07,2.86,3.80,2.86,3.80,-3.80,-3.91,-3.74,-0.94,-0.93,-0.94
70.77,2.86,3.82,2.86,3.82,-3.82,-3.94,-3.75,-0.96,-0.96,-0.96
71.48,2.86,3.85,2.86,3.85,-3.85,-3.96,-3.76,-0.99,-0.99,-0.99
72.19,2.85,3.87,2.85,3.87,-3.87,-3.98,-3.76,-1.02,-1.02,-1.02
72.91,2.84,3.89,2.84,3.89,-3.89,-4.00,-3.77,-1.05,-1.06,-1.05
73.64,2.82,3.91,2.82,3.91,-3.92,-4.02,-3.78,-1.10,-1.09,-1.09
74.38,2.81,3.93,2.81,3.94,-3.94,-4.04,-3.79,-1.13,-1.13,-1.12
75.12,2.81,3.98,2.81,3.97,-3.97,-4.06,-3.80,-1.16,-1.17,-1.17
75.87,2.80,4.00,2.80,3.99,-4.00,-4.09,-3.81,-1.20,-1.20,-1.20
76.63,2.79,4.02,2.79,4.03,-4.02,-4.11,-3.83,-1.23,-1.23,-1.23
77.40,2.78,4.05,2.78,4.05,-4.05,-4.13,-3.84,-1.27,-1.27,-1.27
78.17,2.77,4.09,2.77,4.08,-4.07,-4.15,-3.86,-1.30,-1.30,-1.32
78.95,2.75,4.09,2.75,4.10,-4.09,-4.17,-3.88,-1.34,-1.34,-1.34
79.74,2.73,4.12,2.73,4.11,-4.11,-4.19,-3.90,-1.38,-1.39,-1.39
80.54,2.69,4.12,2.70,4.13,-4.13,-4.22,-3.92,-1.44,-1.43,-1.43
81.35,2.67,4.14,2.66,4.14,-4.14,-4.24,-3.95,-1.47,-1.48,-1.48
82.16,2.63,4.15,2.63,4.15,-4.15,-4.26,-3.98,-1.52,-1.52,-1.52
82.98,2.60,4.16,2.60,4.16,-4.17,-4.29,-4.01,-1.57,-1.57,-1.56
83.81,2.57,4.18,2.56,4.17,-4.18,-4.31,-4.04,-1.61,-1.61,-1.61
84.65,2.52,4.18,2.53,4.19,-4.18,-4.33,-4.08,-1.66,-1.66,-1.66
85.50,2.49,4.19,2.49,4.20,-4.19,-4.36,-4.12,-1.70,-1.70,-1.70
86.35,2.46,4.21,2.45,4.20,-4.20,-4.38,-4.16,-1.74,-1.74,-1.75
87.22,2.41,4.21,2.41,4.21,-4.20,-4.41,-4.21,-1.79,-1.79,-1.80
88.09,2.37,4.22,2.37,4.21,-4.21,-4.43,-4.26,-1.84,-1.85,-1.85
88.97,2.32,4.21,2.32,4.22,-4.22,-4.45,-4.31,-1.90,-1.90,-1.89
89.86,2.28,4.22,2.28,4.23,-4.23,-4.48,-4.37,-1.95,-1.95,-1.94
90.76,2.25,4.25,2.25,4.25,-4.25,-4.51,-4.43,-2.00,-2.00,-2.00
91.66,2.22,4.27,2.22,4.27,-4.27,-4.53,-4.49,-2.05,-2.05,-2.05
92.58,2.20,4.31,2.20,4.30,-4.30,-4.56,-4.56,-2.10,-2.10,-2.11
93.51,2.18,4.32,2.18,4.33,-4.34,-4.58,-4.63,-2.16,-2.15,-2.14
94.44,2.18,4.38,2.18,4.38,-4.38,-4.61,-4.70,-2.20,-2.20,-2.20
95.39,2.17,4.42,2.17,4.42,-4.43,-4.64,-4.78,-2.26,-2.26,-2.25
96.34,2.17,4.49,2.17,4.48,-4.48,-4.66,-4.85,-2.31,-2.31,-2.32
97.30,2.16,4.53,2.16,4.54,-4.54,-4.69,-4.93,-2.38,-2.38,-2.37
98.28,2.17,4.60,2.17,4.60,-4.60,-4.72,-5.02,-2.43,-2.43,-2.43
99.26,2.18,4.67,2.18,4.67,-4.67,-4.75,-5.10,-2.49,-2.49,-2.49
100.25,2.20,4.75,2.20,4.74,-4.74,-4.77,-5.19,-2.54,-2.55,-2.55
101.25,2.21,4.81,2.21,4.82,-4.82,-4.80,-5.28,-2.61,-2.61,-2.61
102.27,2.22,4.89,2.22,4.90,-4.89,-4.83,-5.37,-2.67,-2.67,-2.67
103.29,2.24,4.98,2.24,4.97,-4.96,-4.86,-5.46,-2.72,-2.73,-2.74
104.32,2.25,5.04,2.25,5.04,-5.04,-4.89,-5.56,-2.79,-2.79,-2.79
105.37,2.26,5.11,2.26,5.11,-5.11,-4.92,-5.65,-2.85,-2.86,-2.85
106.42,2.26,5.18,2.27,5.18,-5.19,-4.94,-5.74,-2.93,-2.92,-2.92
107.48,2.28,5.26,2.28,5.26,-5.26,-4.97,-5.83,-2.98,-2.99,-2.98
108.56,2.29,5.34,2.29,5.34,-5.34,-5.00,-5.92,-3.05,-3.05,-3.05
109.64,2.30,5.41,2.30,5.41,-5.41,-5.03,-6.01,-3.11,-3.11,-3.12
110.74,2.31,5.48,2.31,5.49,-5.49,-5.06,-6.10,-3.18,-3.18,-3.17
111.85,2.32,5.56,2.32,5.56,-5.56,-5.08,-6.19,-3.24,-3.25,-3.24
112.97,2.32,5.64,2.32,5.63,-5.64,-5.11,-6.26,-3.32,-3.32,-3.32
114.10,2.32,5.70,2.33,5.71,-5.70,-5.14,-6.34,-3.39,-3.38,-3.38
115.24,2.33,5.77,2.32,5.77,-5.77,-5.17,-6.41,-3.44,-3.44,-3.44
116.39,2.32,5.84,2.31,5.83,-5.82,-5.19,-6.48,-3.50,-3.51,-3.52
117.55,2.29,5.87,2.30,5.88,-5.87,-5.22,-6.54,-3.58,-3.57,-3.58
118.73,2.27,5.91,2.27,5.91,-5.90,-5.25,-6.59,-3.63,-3.63,-3.64
119.92,2.24,5.94,2.23,5.94,-5.93,-5.27,-6.64,-3.69,-3.70,-3.70
121.12,2.19,5.95,2.19,5.95,-5.95,-5.30,-6.68,-3.76,-3.76,-3.76
122.33,2.14,5.96,2.14,5.96,-5.96,-5.33,-6.71,-3.82,-3.82,-3.82
123.55,2.09,5.96,2.09,5.97,-5.97,-5.35,-6.73,-3.88,-3.88,-3.87
124.79,2.04,5.98,2.04,5.97,-5.98,-5.38,-6.74,-3.94,-3.94,-3.94
126.03,1.98,5.97,1.98,5.97,-5.98,-5.40,-6.75,-4.00,-4.00,-3.99
127.29,1.92,5.97,1.92,5.98,-5.98,-5.42,-6.75,-4.06,-4.05,-4.05
128.57,1.87,5.99,1.87,5.98,-5.98,-5.45,-6.74,-4.11,-4.11,-4.12
129.85,1.82,5.98,1.81,5.98,-5.97,-5.47,-6.72,-4.15,-4.16,-4.16
131.15,1.76,5.97,1.76,5.98,-5.97,-5.49,-6.70,-4.21,-4.21,-4.21
132.46,1.70,5.97,1.71,5.97,-5.97,-5.52,-6.66,-4.27,-4.26,-4.27
133.79,1.66,5.97,1.65,5.97,-5.97,-5.54,-6.62,-4.31,-4.31,-4.31
135.12,1.61,5.97,1.61,5.96,-5.97,-5.56,-6.57,-4.36,-4.36,-4.36
136.48,1.56,5.96,1.56,5.96,-5.97,-5.58,-6.52,-4.41,-4.41,-4.40
137.84,1.52,5.95,1.52,5.97,-5.98,-5.60,-6.47,-4.46,-4.45,-4.43
139.22,1.50,5.98,1.50,5.98,-5.99,-5.62,-6.41,-4.49,-4.49,-4.49
140.61,1.48,6.01,1.48,6.00,-6.00,-5.64,-6.34,-4.52,-4.52,-4.53
142.02,1.47,6.01,1.47,6.02,-6.01,-5.66,-6.27,-4.54,-4.54,-4.54
143.44,1.45,6.02,1.45,6.03,-6.02,-5.68,-6.20,-4.57,-4.57,-4.57
144.87,1.44,6.05,1.44,6.04,-6.04,-5.70,-6.13,-4.60,-4.60,-4.61
146.32,1.42,6.06,1.42,6.05,-6.05,-5.71,-6.06,-4.63,-4.63,-4.64
147.78,1.39,6.05,1.39,6.06,-6.06,-5.73,-5.99,-4.67,-4.66,-4.66
149.26,1.37,6.06,1.37,6.06,-6.06,-5.75,-5.91,-4.69,-4.70,-4.69
150.75,1.34,6.06,1.34,6.06,-6.07,-5.76,-5.84,-4.73,-4.72,-4.73
152.26,1.32,6.07,1.32,6.07,-6.07,-5.78,-5.77,-4.75,-4.75,-4.75
153.78,1.29,6.07,1.29,6.07,-6.07,-5.79,-5.70,-4.78,-4.78,-4.78
155.32,1.27,6.07,1.26,6.07,-6.07,-5.80,-5.63,-4.80,-4.80,-4.80
156.88,1.23,6.06,1.23,6.06,-6.06,-5.82,-5.56,-4.83,-4.83,-4.83
158.44,1.20,6.06,1.20,6.06,-6.06,-5.83,-5.50,-4.86,-4.86,-4.86
160.03,1.17,6.06,1.17,6.06,-6.05,-5.84,-5.43,-4.88,-4.89,-4.89
161.63,1.13,6.05,1.13,6.05,-6.05,-5.85,-5.38,-4.92,-4.91,-4.92
163.24,1.10,6.04,1.10,6.04,-6.04,-5.86,-5.32,-4.94,-4.94,-4.94
164.88,1.06,6.02,1.06,6.03,-6.03,-5.87,-5.27,-4.97,-4.97,-4.96
166.53,1.02,6.01,1.02,6.01,-6.02,-5.88,-5.22,-5.00,-5.00,-4.99
168.19,0.98,6.01,0.98,6.01,-6.01,-5.89,-5.17,-5.03,-5.03,-5.03
169.87,0.94,6.00,0.94,6.00,-6.00,-5.90,-5.13,-5.06,-5.06,-5.06
171.57,0.91,5.99,0.91,5.99,-5.99,-5.91,-5.09,-5.08,-5.09,-5.09
173.29,0.87,5.98,0.87,5.99,-5.99,-5.92,-5.05,-5.12,-5.12,-5.11
175.02,0.84,5.99,0.83,5.98,-5.98,-5.92,-5.02,-5.14,-5.15,-5.15
176.77,0.79,5.98,0.80,5.98,-5.98,-5.93,-4.99,-5.19,-5.19,-5.19
178.54,0.76,5.98,0.76,5.98,-5.98,-5.93,-4.97,-5.22,-5.22,-5.23
180.32,0.72,5.98,0.72,5.98,-5.98,-5.94,-4.95,-5.26,-5.26,-5.26
182.13,0.68,5.97,0.68,5.97,-5.98,-5.94,-4.93,-5.30,-5.29,-5.29
183.95,0.64,5.97,0.64,5.97,-5.97,-5.95,-4.92,-5.33,-5.33,-5.33
185.79,0.61,5.97,0.60,5.97,-5.97,-5.95,-4.91,-5.36,-5.36,-5.36
187.65,0.57,5.97,0.57,5.97,-5.96,-5.95,-4.90,-5.39,-5.40,-5.41
189.52,0.52,5.95,0.53,5.96,-5.96,-5.95,-4.90,-5.44,-5.43,-5.44
191.42,0.50,5.96,0.49,5.96,-5.96,-5.96,-4.90,-5.46,-5.46,-5.46
193.33,0.46,5.94,0.46,5.95,-5.95,-5.96,-4.91,-5.49,-5.49,-5.48
195.27,0.43,5.94,0.43,5.94,-5.95,-5.96,-4.91,-5.52,-5.52,-5.51
197.22,0.40,5.94,0.40,5.94,-5.95,-5.96,-4.92,-5.55,-5.55,-5.54
199.19,0.37,5.96,0.37,5.95,-5.94,-5.96,-4.94,-5.57,-5.57,-5.59
201.18,0.35,5.95,0.34,5.95,-5.94,-5.95,-4.95,-5.59,-5.60,-5.60
203.19,0.32,5.94,0.32,5.94,-5.94,-5.95,-4.97,-5.62,-5.62,-5.62
205.23,0.29,5.93,0.30,5.93,-5.94,-5.95,-4.99,-5.65,-5.64,-5.65
207.28,0.28,5.93,0.27,5.93,-5.93,-5.95,-5.01,-5.66,-5.66,-5.65
209.35,0.25,5.93,0.25,5.93,-5.93,-5.94,-5.04,-5.68,-5.68,-5.68
211.44,0.23,5.94,0.23,5.93,-5.93,-5.94,-5.06,-5.70,-5.70,-5.71
213.56,0.20,5.92,0.20,5.92,-5.93,-5.93,-5.09,-5.73,-5.72,-5.72
215.69,0.19,5.92,0.19,5.92,-5.93,-5.93,-5.12,-5.74,-5.74,-5.73
217.85,0.17,5.91,0.17,5.92,-5.92,-5.92,-5.14,-5.76,-5.75,-5.74
220.03,0.17,5.93,0.17,5.92,-5.92,-5.91,-5.17,-5.75,-5.76,-5.76
222.23,0.16,5.93,0.16,5.93,-5.92,-5.91,-5.20,-5.76,-5.76,-5.77
224.45,0.16,5.92,0.16,5.93,-5.92,-5.90,-5.23,-5.76,-5.76,-5.76
226.70,0.15,5.93,0.15,5.93,-5.92,-5.89,-5.25,-5.77,-5.77,-5.78
228.96,0.15,5.93,0.15,5.92,-5.92,-5.88,-5.28,-5.77,-5.77,-5.78
231.25,0.14,5.91,0.14,5.91,-5.92,-5.87,-5.30,-5.78,-5.77,-5.77
233.57,0.14,5.90,0.14,5.90,-5.91,-5.86,-5.32,-5.77,-5.77,-5.76
235.90,0.14,5.90,0.14,5.90,-5.90,-5.84,-5.34,-5.76,-5.76,-5.76
238.26,0.15,5.91,0.15,5.90,-5.90,-5.83,-5.35,-5.75,-5.75,-5.76
240.64,0.15,5.88,0.15,5.89,-5.88,-5.82,-5.36,-5.73,-5.73,-5.73
243.05,0.16,5.88,0.15,5.87,-5.87,-5.80,-5.37,-5.71,-5.72,-5.72
245.48,0.14,5.84,0.15,5.85,-5.85,-5.79,-5.38,-5.71,-5.70,-5.70
247.93,0.14,5.83,0.14,5.83,-5.82,-5.77,-5.38,-5.68,-5.68,-5.69
250.41,0.13,5.81,0.13,5.80,-5.79,-5.75,-5.38,-5.66,-5.67,-5.68
252.92,0.11,5.76,0.11,5.76,-5.76,-5.73,-5.37,-5.65,-5.65,-5.65
255.45,0.09,5.71,0.09,5.72,-5.72,-5.71,-5.36,-5.63,-5.63,-5.62
258.00,0.07,5.67,0.07,5.67,-5.68,-5.69,-5.35,-5.61,-5.61,-5.60
260.58,0.06,5.65,0.06,5.64,-5.64,-5.66,-5.34,-5.58,-5.58,-5.59
263.19,0.04,5.60,0.04,5.60,-5.60,-5.64,-5.32,-5.56,-5.56,-5.56
265.82,0.03,5.57,0.03,5.57,-5.57,-5.61,-5.30,-5.54,-5.54,-5.54
268.48,0.01,5.53,0.01,5.53,-5.53,-5.59,-5.27,-5.52,-5.52,-5.52
271.16,0.01,5.49,0.01,5.49,-5.50,-5.56,-5.25,-5.49,-5.49,-5.48
273.87,-0.00,5.47,0.00,5.46,-5.47,-5.53,-5.22,-5.47,-5.47,-5.47
276.61,-0.00,5.43,0.00,5.44,-5.44,-5.49,-5.19,-5.44,-5.44,-5.43
279.38,-0.00,5.42,-0.00,5.42,-5.41,-5.46,-5.16,-5.41,-5.41,-5.42
282.17,-0.00,5.39,-0.00,5.39,-5.38,-5.42,-5.13,-5.38,-5.39,-5.39
284.99,-0.01,5.36,-0.01,5.36,-5.35,-5.38,-5.09,-5.36,-5.36,-5.37
287.84,-0.02,5.32,-0.02,5.32,-5.32,-5.34,-5.06,-5.34,-5.34,-5.34
290.72,-0.02,5.29,-0.02,5.29,-5.29,-5.30,-5.03,-5.31,-5.31,-5.31
293.63,-0.03,5.26,-0.03,5.26,-5.25,-5.25,-4.99,-5.28,-5.28,-5.29
296.57,-0.04,5.22,-0.04,5.22,-5.22,-5.21,-4.96,-5.26,-5.26,-5.26
299.53,-0.05,5.18,-0.05,5.18,-5.18,-5.16,-4.93,-5.23,-5.23,-5.23
302.53,-0.07,5.13,-0.07,5.13,-5.13,-5.11,-4.90,-5.20,-5.20,-5.20
305.55,-0.08,5.08,-0.08,5.09,-5.09,-5.06,-4.87,-5.17,-5.16,-5.16
308.61,-0.08,5.05,-0.08,5.04,-5.04,-5.01,-4.85,-5.12,-5.13,-5.13
311.69,-0.09,5.00,-0.09,5.00,-5.00,-4.96,-4.83,-5.09,-5.09,-5.09
314.81,-0.11,4.95,-0.11,4.95,-4.95,-4.92,-4.80,-5.06,-5.06,-5.06
317.96,-0.13,4.90,-0.13,4.91,-4.90,-4.87,-4.79,-5.03,-5.03,-5.03
321.14,-0.14,4.86,-0.14,4.86,-4.86,-4.83,-4.77,-5.00,-5.00,-5.00
324.35,-0.16,4.82,-0.16,4.81,-4.81,-4.79,-4.76,-4.97,-4.98,-4.98
327.59,-0.18,4.76,-0.18,4.77,-4.77,-4.75,-4.75,-4.95,-4.95,-4.94
330.87,-0.19,4.72,-0.19,4.73,-4.73,-4.72,-4.74,-4.92,-4.92,-4.91
334.18,-0.20,4.70,-0.20,4.69,-4.70,-4.70,-4.74,-4.90,-4.89,-4.90
337.52,-0.20,4.67,-0.20,4.67,-4.66,-4.68,-4.74,-4.86,-4.86,-4.87
340.90,-0.20,4.64,-0.21,4.64,-4.63,-4.67,-4.74,-4.83,-4.84,-4.84
344.30,-0.21,4.61,-0.21,4.61,-4.61,-4.67,-4.75,-4.82,-4.82,-4.82
347.75,-0.22,4.58,-0.21,4.58,-4.59,-4.67,-4.76,-4.81,-4.80,-4.80
351.23,-0.21,4.57,-0.21,4.56,-4.57,-4.67,-4.78,-4.78,-4.78,-4.78
354.74,-0.21,4.55,-0.21,4.55,-4.55,-4.68,-4.80,-4.76,-4.76,-4.76
358.28,-0.20,4.54,-0.20,4.54,-4.54,-4.70,-4.82,-4.74,-4.74,-4.74
361.87,-0.19,4.53,-0.19,4.53,-4.54,-4.72,-4.84,-4.73,-4.73,-4.72
365.49,-0.17,4.53,-0.17,4.53,-4.53,-4.74,-4.87,-4.70,-4.71,-4.70
369.14,-0.15,4.54,-0.15,4.54,-4.53,-4.76,-4.91,-4.68,-4.68,-4.69
372.83,-0.13,4.54,-0.13,4.54,-4.54,-4.78,-4.94,-4.67,-4.66,-4.67
376.56,-0.10,4.55,-0.10,4.55,-4.54,-4.80,-4.98,-4.64,-4.64,-4.65
380.33,-0.08,4.54,-0.08,4.55,-4.55,-4.82,-5.02,-4.63,-4.63,-4.62
384.13,-0.05,4.56,-0.05,4.55,-4.55,-4.84,-5.07,-4.60,-4.61,-4.61
387.97,-0.03,4.56,-0.03,4.56,-4.56,-4.86,-5.12,-4.59,-4.59,-4.59
391.85,0.01,4.58,0.01,4.57,-4.58,-4.87,-5.17,-4.57,-4.57,-4.57
395.77,0.04,4.58,0.04,4.59,-4.59,-4.89,-5.23,-4.55,-4.55,-4.54
399.73,0.09,4.61,0.09,4.61,-4.61,-4.90,-5.28,-4.52,-4.52,-4.52
403.72,0.13,4.63,0.13,4.63,-4.63,-4.91,-5.34,-4.50,-4.50,-4.50
407.76,0.17,4.65,0.17,4.65,-4.65,-4.92,-5.40,-4.48,-4.48,-4.48
411.84,0.21,4.66,0.22,4.67,-4.67,-4.92,-5.46,-4.47,-4.46,-4.46
415.96,0.27,4.71,0.26,4.70,-4.70,-4.93,-5.53,-4.43,-4.44,-4.44
420.12,0.31,4.73,0.31,4.72,-4.73,-4.93,-5.59,-4.42,-4.41,-4.42
424.32,0.36,4.75,0.36,4.75,-4.75,-4.93,-5.65,-4.39,-4.39,-4.39
428.56,0.41,4.78,0.41,4.78,-4.78,-4.93,-5.72,-4.37,-4.37,-4.37
432.85,0.46,4.81,0.46,4.81,-4.80,-4.93,-5.78,-4.34,-4.34,-4.35
437.18,0.51,4.83,0.51,4.83,-4.83,-4.92,-5.84,-4.32,-4.32,-4.32
441.55,0.56,4.85,0.56,4.85,-4.85,-4.91,-5.90,-4.29,-4.30,-4.29
445.96,0.60,4.87,0.60,4.88,-4.88,-4.91,-5.96,-4.29,-4.28,-4.27
450.42,0.66,4.91,0.66,4.91,-4.92,-4.90,-6.01,-4.26,-4.26,-4.25
454.93,0.72,4.94,0.72,4.94,-4.95,-4.89,-6.06,-4.23,-4.23,-4.22
459.48,0.79,4.99,0.79,4.99,-4.99,-4.87,-6.10,-4.20,-4.20,-4.20
464.07,0.87,5.04,0.87,5.03,-5.03,-4.86,-6.14,-4.16,-4.16,-4.17
468.71,0.94,5.07,0.94,5.08,-5.06,-4.84,-6.17,-4.13,-4.12,-4.13
473.40,1.01,5.12,1.01,5.11,-5.10,-4.83,-6.20,-4.09,-4.10,-4.11
478.13,1.07,5.15,1.07,5.14,-5.14,-4.81,-6.22,-4.07,-4.07,-4.08
482.91,1.12,5.17,1.12,5.17,-5.17,-4.79,-6.23,-4.05,-4.05,-4.05
