frequency,raw,smoothed,error,error_smoothed,equalization,parametric_eq,fixed_band_eq,equalized_raw,equalized_smoothed,target
20.00,3.92,3.93,-1.95,-1.95,1.94,0.78,0.12,5.87,5.87,5.87
20.20,3.97,3.97,-1.93,-1.93,1.93,0.77,0.12,5.91,5.90,5.90
20.40,4.02,4.02,-1.92,-1.91,1.92,0.76,0.13,5.93,5.93,5.93
20.61,4.06,4.06,-1.89,-1.89,1.90,0.75,0.13,5.96,5.96,5.95
20.81,4.11,4.11,-1.87,-1.87,1.87,0.74,0.14,5.99,5.98,5.98
21.02,4.15,4.16,-1.86,-1.85,1.84,0.72,0.14,6.00,6.00,6.01
21.23,4.20,4.21,-1.82,-1.82,1.81,0.71,0.15,6.02,6.02,6.02
21.44,4.26,4.25,-1.77,-1.78,1.77,0.70,0.16,6.03,6.03,6.03
21.66,4.30,4.30,-1.73,-1.73,1.73,0.69,0.16,6.03,6.03,6.04
21.87,4.36,4.36,-1.68,-1.68,1.68,0.68,0.17,6.03,6.04,6.04
22.09,4.42,4.41,-1.63,-1.63,1.63,0.66,0.17,6.04,6.04,6.05
22.31,4.48,4.47,-1.57,-1.57,1.57,0.65,0.18,6.04,6.04,6.05
22.54,4.53,4.54,-1.51,-1.51,1.51,0.64,0.19,6.05,6.05,6.05
22.76,4.60,4.60,-1.45,-1.45,1.46,0.62,0.19,6.05,6.05,6.05
22.99,4.65,4.65,-1.38,-1.39,1.40,0.61,0.20,6.06,6.05,6.03
23.22,4.69,4.69,-1.34,-1.34,1.35,0.60,0.21,6.05,6.05,6.03
23.45,4.73,4.74,-1.30,-1.30,1.30,0.58,0.22,6.04,6.04,6.03
23.69,4.77,4.78,-1.26,-1.26,1.25,0.57,0.22,6.03,6.03,6.03
23.92,4.83,4.82,-1.21,-1.21,1.20,0.55,0.23,6.03,6.03,6.03
24.16,4.87,4.87,-1.17,-1.16,1.15,0.54,0.24,6.03,6.03,6.04
24.40,4.93,4.93,-1.11,-1.11,1.10,0.52,0.25,6.03,6.03,6.04
24.65,4.98,4.98,-1.05,-1.05,1.05,0.51,0.25,6.03,6.03,6.03
24.89,5.05,5.04,-0.98,-0.99,0.99,0.49,0.26,6.04,6.03,6.03
25.14,5.10,5.10,-0.93,-0.93,0.93,0.48,0.27,6.02,6.03,6.03
25.39,5.16,5.16,-0.87,-0.87,0.87,0.46,0.28,6.02,6.02,6.03
25.65,5.21,5.21,-0.81,-0.81,0.80,0.45,0.28,6.01,6.01,6.03
25.91,5.27,5.27,-0.74,-0.74,0.74,0.43,0.29,6.01,6.01,6.01
26.16,5.34,5.33,-0.68,-0.68,0.68,0.41,0.30,6.01,6.01,6.01
26.43,5.38,5.39,-0.63,-0.62,0.63,0.40,0.30,6.01,6.02,6.01
26.69,5.44,5.45,-0.57,-0.56,0.59,0.38,0.31,6.03,6.04,6.01
26.96,5.50,5.49,-0.51,-0.52,0.55,0.36,0.31,6.06,6.04,6.01
27.23,5.51,5.51,-0.49,-0.49,0.52,0.35,0.32,6.03,6.03,6.01
27.50,5.51,5.51,-0.49,-0.49,0.49,0.33,0.32,6.00,6.00,6.01
27.77,5.51,5.52,-0.48,-0.48,0.45,0.31,0.33,5.97,5.97,6.00
28.05,5.52,5.54,-0.47,-0.45,0.42,0.29,0.33,5.94,5.96,5.99
28.33,5.59,5.59,-0.39,-0.40,0.37,0.28,0.33,5.97,5.96,5.98
28.62,5.65,5.65,-0.33,-0.33,0.32,0.26,0.33,5.97,5.97,5.98
28.90,5.72,5.72,-0.25,-0.25,0.26,0.24,0.33,5.99,5.98,5.98
29.19,5.78,5.79,-0.18,-0.19,0.19,0.22,0.33,5.98,5.98,5.97
29.48,5.86,5.86,-0.12,-0.11,0.12,0.20,0.33,5.97,5.98,5.98
29.78,5.92,5.92,-0.04,-0.04,0.05,0.18,0.32,5.97,5.97,5.96
30.08,5.98,5.98,0.02,0.02,-0.02,0.16,0.32,5.96,5.96,5.96
30.38,6.03,6.04,0.08,0.09,-0.08,0.14,0.31,5.95,5.96,5.95
30.68,6.08,6.09,0.14,0.14,-0.13,0.12,0.30,5.95,5.95,5.95
30.99,6.13,6.13,0.20,0.19,-0.17,0.10,0.29,5.96,5.95,5.94
31.30,6.15,6.16,0.22,0.22,-0.21,0.08,0.28,5.95,5.95,5.93
31.61,6.17,6.18,0.24,0.25,-0.24,0.06,0.27,5.94,5.94,5.93
31.93,6.19,6.19,0.27,0.27,-0.26,0.04,0.25,5.93,5.93,5.92
32.24,6.20,6.20,0.30,0.29,-0.29,0.02,0.24,5.91,5.90,5.91
32.57,6.20,6.20,0.30,0.30,-0.33,-0.00,0.22,5.88,5.88,5.90
32.89,6.20,6.22,0.30,0.32,-0.36,-0.03,0.20,5.85,5.86,5.90
33.22,6.25,6.27,0.37,0.37,-0.39,-0.05,0.18,5.86,5.87,5.89
33.55,6.34,6.33,0.45,0.45,-0.43,-0.07,0.16,5.90,5.90,5.89
33.89,6.40,6.39,0.53,0.52,-0.48,-0.09,0.14,5.93,5.91,5.87
34.23,6.43,6.42,0.56,0.56,-0.53,-0.12,0.11,5.90,5.89,5.87
34.57,6.43,6.43,0.58,0.58,-0.59,-0.14,0.09,5.85,5.85,5.86
34.92,6.43,6.45,0.59,0.61,-0.64,-0.16,0.06,5.79,5.81,5.84
35.27,6.49,6.50,0.65,0.67,-0.70,-0.19,0.03,5.80,5.81,5.84
35.62,6.57,6.57,0.75,0.74,-0.74,-0.21,0.00,5.84,5.83,5.83
35.97,6.64,6.63,0.83,0.81,-0.77,-0.23,-0.03,5.88,5.86,5.81
36.33,6.65,6.66,0.84,0.85,-0.80,-0.26,-0.06,5.85,5.86,5.81
36.70,6.65,6.66,0.86,0.86,-0.84,-0.28,-0.09,5.82,5.82,5.80
37.06,6.65,6.65,0.87,0.87,-0.88,-0.31,-0.12,5.78,5.78,5.78
37.43,6.65,6.65,0.88,0.87,-0.92,-0.33,-0.16,5.74,5.73,5.78
37.81,6.65,6.66,0.89,0.90,-0.96,-0.36,-0.19,5.70,5.71,5.76
38.19,6.69,6.71,0.95,0.96,-1.00,-0.38,-0.23,5.70,5.72,5.75
38.57,6.78,6.78,1.04,1.04,-1.04,-0.41,-0.26,5.75,5.74,5.74
38.95,6.87,6.85,1.15,1.12,-1.08,-0.44,-0.30,5.79,5.77,5.73
39.34,6.88,6.89,1.17,1.17,-1.13,-0.46,-0.34,5.76,5.76,5.71
39.74,6.88,6.89,1.19,1.19,-1.16,-0.49,-0.38,5.72,5.73,5.70
40.14,6.88,6.89,1.19,1.19,-1.19,-0.52,-0.41,5.69,5.69,5.69
40.54,6.88,6.88,1.21,1.20,-1.21,-0.55,-0.45,5.68,5.68,5.68
40.94,6.88,6.88,1.21,1.21,-1.21,-0.57,-0.49,5.67,5.67,5.67
41.35,6.88,6.88,1.23,1.22,-1.22,-0.60,-0.54,5.67,5.67,5.66
41.76,6.88,6.88,1.23,1.23,-1.24,-0.63,-0.58,5.65,5.65,5.65
42.18,6.88,6.88,1.24,1.24,-1.26,-0.66,-0.62,5.62,5.61,5.64
42.60,6.88,6.88,1.26,1.25,-1.30,-0.69,-0.66,5.58,5.58,5.63
43.03,6.89,6.93,1.27,1.31,-1.35,-0.72,-0.70,5.54,5.58,5.62
43.46,6.99,6.99,1.39,1.40,-1.40,-0.75,-0.75,5.59,5.59,5.60
43.90,7.09,7.06,1.52,1.48,-1.45,-0.78,-0.79,5.64,5.61,5.58
44.33,7.11,7.11,1.56,1.55,-1.50,-0.81,-0.84,5.61,5.61,5.56
44.78,7.11,7.12,1.58,1.58,-1.55,-0.84,-0.88,5.57,5.57,5.54
45.23,7.11,7.12,1.59,1.60,-1.59,-0.87,-0.93,5.53,5.53,5.52
45.68,7.11,7.11,1.61,1.61,-1.62,-0.90,-0.98,5.50,5.50,5.50
46.13,7.11,7.11,1.63,1.63,-1.64,-0.93,-1.02,5.48,5.48,5.48
46.60,7.11,7.11,1.64,1.64,-1.65,-0.97,-1.07,5.46,5.46,5.47
47.06,7.11,7.11,1.66,1.66,-1.67,-1.00,-1.12,5.45,5.45,5.45
47.53,7.11,7.11,1.68,1.68,-1.68,-1.03,-1.17,5.43,5.43,5.43
48.01,7.11,7.11,1.69,1.70,-1.71,-1.07,-1.22,5.41,5.41,5.42
48.49,7.11,7.11,1.72,1.72,-1.73,-1.10,-1.27,5.38,5.38,5.39
48.97,7.11,7.11,1.75,1.75,-1.76,-1.13,-1.32,5.35,5.35,5.36
49.46,7.11,7.11,1.78,1.78,-1.79,-1.17,-1.37,5.33,5.33,5.33
49.96,7.11,7.12,1.81,1.81,-1.80,-1.21,-1.42,5.31,5.32,5.30
50.46,7.11,7.12,1.83,1.83,-1.81,-1.24,-1.47,5.31,5.31,5.29
50.96,7.11,7.10,1.85,1.84,-1.81,-1.28,-1.52,5.31,5.30,5.26
51.47,7.06,7.07,1.83,1.83,-1.80,-1.32,-1.57,5.26,5.27,5.23
51.99,7.01,7.01,1.81,1.80,-1.79,-1.36,-1.62,5.22,5.21,5.21
52.51,6.95,6.95,1.75,1.76,-1.79,-1.40,-1.67,5.16,5.16,5.19
53.03,6.88,6.90,1.71,1.73,-1.79,-1.44,-1.72,5.10,5.12,5.17
53.56,6.88,6.88,1.74,1.74,-1.78,-1.48,-1.77,5.10,5.10,5.14
54.10,6.88,6.88,1.77,1.76,-1.77,-1.52,-1.82,5.11,5.11,5.12
54.64,6.88,6.89,1.79,1.80,-1.76,-1.56,-1.87,5.12,5.13,5.09
55.18,6.88,6.89,1.82,1.83,-1.75,-1.61,-1.91,5.13,5.14,5.07
55.74,6.88,6.86,1.84,1.81,-1.75,-1.65,-1.96,5.14,5.11,5.04
56.29,6.81,6.79,1.79,1.78,-1.76,-1.70,-2.00,5.06,5.04,5.02
56.86,6.69,6.71,1.69,1.72,-1.77,-1.75,-2.04,4.91,4.94,4.99
57.42,6.65,6.66,1.69,1.69,-1.79,-1.80,-2.08,4.86,4.87,4.97
58.00,6.65,6.69,1.71,1.75,-1.82,-1.85,-2.12,4.84,4.87,4.95
58.58,6.78,6.77,1.86,1.85,-1.85,-1.90,-2.15,4.93,4.92,4.93
59.16,6.88,6.84,1.98,1.94,-1.89,-1.95,-2.19,4.99,4.95,4.91
59.76,6.88,6.89,2.00,2.01,-1.95,-2.01,-2.22,4.94,4.95,4.88
60.35,6.88,6.89,2.03,2.04,-2.00,-2.07,-2.24,4.88,4.89,4.85
60.96,6.88,6.88,2.05,2.06,-2.06,-2.12,-2.27,4.82,4.82,4.83
61.57,6.88,6.88,2.10,2.09,-2.11,-2.18,-2.29,4.78,4.78,4.79
62.18,6.88,6.88,2.13,2.13,-2.14,-2.25,-2.31,4.75,4.75,4.75
62.80,6.88,6.88,2.16,2.16,-2.16,-2.31,-2.33,4.72,4.72,4.73
63.43,6.88,6.88,2.19,2.19,-2.18,-2.38,-2.34,4.71,4.71,4.69
64.07,6.88,6.88,2.22,2.22,-2.20,-2.44,-2.35,4.68,4.68,4.67
64.71,6.88,6.88,2.24,2.24,-2.23,-2.51,-2.36,4.65,4.65,4.64
65.35,6.88,6.88,2.27,2.27,-2.27,-2.58,-2.36,4.61,4.61,4.61
66.01,6.88,6.88,2.30,2.29,-2.32,-2.64,-2.36,4.57,4.56,4.59
66.67,6.88,6.89,2.33,2.33,-2.37,-2.71,-2.36,4.52,4.52,4.56
67.33,6.91,6.93,2.39,2.40,-2.42,-2.77,-2.36,4.49,4.51,4.53
68.01,6.98,6.99,2.49,2.49,-2.49,-2.83,-2.36,4.50,4.51,4.50
68.69,7.07,7.06,2.61,2.59,-2.56,-2.89,-2.35,4.51,4.49,4.47
69.37,7.11,7.09,2.68,2.66,-2.65,-2.94,-2.34,4.46,4.44,4.43
70.07,7.11,7.11,2.71,2.71,-2.75,-2.99,-2.33,4.37,4.37,4.40
70.77,7.11,7.16,2.74,2.79,-2.83,-3.03,-2.32,4.28,4.33,4.38
71.48,7.22,7.23,2.88,2.89,-2.91,-3.06,-2.31,4.32,4.32,4.34
72.19,7.34,7.30,3.04,3.00,-2.96,-3.09,-2.30,4.38,4.34,4.31
72.91,7.34,7.36,3.07,3.09,-3.01,-3.10,-2.29,4.34,4.35,4.27
73.64,7.34,7.33,3.11,3.10,-3.04,-3.11,-2.27,4.31,4.30,4.23
74.38,7.28,7.26,3.08,3.06,-3.05,-3.11,-2.26,4.23,4.21,4.21
75.12,7.16,7.20,3.00,3.02,-3.05,-3.10,-2.25,4.11,4.14,4.17
75.87,7.12,7.14,2.99,3.00,-3.04,-3.08,-2.23,4.09,4.10,4.14
76.63,7.11,7.11,3.01,3.00,-3.01,-3.06,-2.22,4.10,4.10,4.11
77.40,7.09,7.07,3.02,2.99,-2.99,-3.04,-2.21,4.11,4.08,4.08
78.17,7.02,7.00,2.99,2.96,-2.97,-3.01,-2.20,4.05,4.03,4.04
78.95,6.89,6.94,2.88,2.93,-2.96,-2.97,-2.19,3.93,3.98,4.01
79.74,6.88,6.89,2.90,2.91,-2.95,-2.93,-2.18,3.93,3.94,3.98
80.54,6.88,6.89,2.94,2.94,-2.94,-2.89,-2.17,3.94,3.95,3.95
81.35,6.88,6.86,2.97,2.95,-2.92,-2.85,-2.17,3.96,3.93,3.91
82.16,6.83,6.80,2.96,2.93,-2.90,-2.81,-2.16,3.94,3.91,3.88
82.98,6.65,6.72,2.81,2.88,-2.86,-2.76,-2.16,3.79,3.86,3.85
83.81,6.65,6.62,2.85,2.81,-2.81,-2.71,-2.16,3.84,3.81,3.80
84.65,6.51,6.50,2.75,2.73,-2.74,-2.66,-2.16,3.78,3.77,3.76
85.50,6.38,6.41,2.64,2.68,-2.65,-2.61,-2.16,3.73,3.76,3.74
86.35,6.26,6.26,2.57,2.56,-2.55,-2.55,-2.16,3.72,3.71,3.70
87.22,6.15,6.10,2.49,2.45,-2.44,-2.49,-2.17,3.70,3.66,3.66
88.09,5.91,5.93,2.29,2.31,-2.34,-2.43,-2.17,3.56,3.59,3.62
88.97,5.75,5.76,2.17,2.18,-2.23,-2.36,-2.18,3.52,3.53,3.59
89.86,5.59,5.61,2.05,2.07,-2.12,-2.28,-2.19,3.48,3.50,3.54
90.76,5.51,5.50,2.02,2.00,-1.99,-2.20,-2.20,3.53,3.51,3.49
91.66,5.36,5.37,1.90,1.92,-1.86,-2.11,-2.21,3.51,3.51,3.46
92.58,5.21,5.21,1.81,1.80,-1.72,-2.01,-2.23,3.49,3.48,3.41
93.51,5.02,4.99,1.64,1.62,-1.59,-1.91,-2.25,3.42,3.40,3.37
94.44,4.75,4.76,1.43,1.43,-1.46,-1.78,-2.26,3.30,3.30,3.33
95.39,4.52,4.54,1.23,1.26,-1.31,-1.66,-2.28,3.20,3.23,3.28
96.34,4.34,4.37,1.12,1.13,-1.17,-1.52,-2.31,3.18,3.20,3.23
97.30,4.23,4.22,1.05,1.04,-1.02,-1.37,-2.33,3.21,3.20,3.18
98.28,4.10,4.07,0.97,0.93,-0.90,-1.22,-2.35,3.21,3.17,3.14
99.26,3.89,3.90,0.80,0.81,-0.79,-1.06,-2.38,3.10,3.11,3.09
100.25,3.69,3.72,0.65,0.68,-0.71,-0.90,-2.40,2.98,3.01,3.05
101.25,3.61,3.59,0.61,0.59,-0.65,-0.74,-2.43,2.97,2.94,3.00
102.27,3.46,3.51,0.51,0.56,-0.60,-0.62,-2.46,2.87,2.91,2.95
103.29,3.46,3.45,0.57,0.54,-0.55,-0.50,-2.48,2.92,2.90,2.90
104.32,3.41,3.38,0.55,0.52,-0.50,-0.43,-2.51,2.92,2.89,2.86
105.37,3.30,3.33,0.48,0.51,-0.44,-0.38,-2.54,2.85,2.88,2.82
106.42,3.24,3.24,0.47,0.47,-0.39,-0.40,-2.57,2.86,2.85,2.77
107.48,3.14,3.13,0.42,0.41,-0.33,-0.44,-2.60,2.81,2.79,2.72
108.56,3.02,3.01,0.36,0.34,-0.30,-0.55,-2.63,2.73,2.71,2.67
109.64,2.86,2.89,0.24,0.26,-0.28,-0.66,-2.66,2.58,2.60,2.62
110.74,2.78,2.78,0.21,0.21,-0.31,-0.82,-2.69,2.47,2.47,2.58
111.85,2.78,2.77,0.26,0.24,-0.38,-0.99,-2.71,2.40,2.38,2.53
112.97,2.80,2.86,0.34,0.39,-0.50,-1.16,-2.74,2.30,2.36,2.46
114.10,3.05,3.05,0.63,0.64,-0.67,-1.34,-2.76,2.38,2.38,2.42
115.24,3.31,3.29,0.95,0.93,-0.90,-1.50,-2.78,2.41,2.39,2.36
116.39,3.56,3.52,1.25,1.21,-1.16,-1.67,-2.80,2.40,2.36,2.31
117.55,3.71,3.72,1.45,1.46,-1.45,-1.82,-2.82,2.26,2.27,2.26
118.73,3.88,3.93,1.68,1.72,-1.73,-1.96,-2.84,2.16,2.20,2.20
119.92,4.14,4.14,1.99,1.99,-1.97,-2.09,-2.85,2.17,2.17,2.16
121.12,4.38,4.36,2.28,2.25,-2.19,-2.21,-2.86,2.20,2.17,2.11
122.33,4.52,4.52,2.47,2.46,-2.36,-2.31,-2.87,2.16,2.15,2.05
123.55,4.60,4.59,2.59,2.59,-2.51,-2.41,-2.88,2.09,2.08,2.01
124.79,4.60,4.61,2.64,2.65,-2.64,-2.49,-2.88,1.97,1.97,1.96
126.03,4.60,4.60,2.69,2.69,-2.74,-2.57,-2.88,1.86,1.86,1.91
127.29,4.60,4.63,2.74,2.77,-2.83,-2.63,-2.87,1.77,1.79,1.86
128.57,4.65,4.69,2.85,2.89,-2.92,-2.70,-2.87,1.73,1.77,1.80
129.85,4.81,4.75,3.06,3.00,-3.02,-2.75,-2.86,1.80,1.74,1.75
131.15,4.83,4.82,3.13,3.12,-3.13,-2.80,-2.85,1.70,1.69,1.70
132.46,4.83,4.89,3.18,3.23,-3.26,-2.84,-2.83,1.58,1.63,1.66
133.79,4.97,4.97,3.35,3.35,-3.39,-2.88,-2.82,1.59,1.58,1.62
135.12,5.08,5.09,3.51,3.52,-3.51,-2.91,-2.80,1.57,1.58,1.56
136.48,5.23,5.21,3.71,3.68,-3.62,-2.94,-2.78,1.61,1.59,1.53
137.84,5.29,5.28,3.81,3.80,-3.73,-2.97,-2.75,1.57,1.55,1.48
139.22,5.29,5.31,3.86,3.87,-3.83,-2.99,-2.73,1.46,1.47,1.43
140.61,5.29,5.28,3.91,3.89,-3.93,-3.01,-2.70,1.36,1.35,1.39
142.02,5.29,5.30,3.93,3.94,-4.02,-3.02,-2.68,1.27,1.28,1.37
143.44,5.30,5.36,3.98,4.04,-4.10,-3.03,-2.65,1.21,1.26,1.32
144.87,5.47,5.43,4.19,4.14,-4.16,-3.04,-2.62,1.32,1.27,1.28
146.32,5.50,5.50,4.26,4.25,-4.21,-3.05,-2.59,1.29,1.29,1.24
147.78,5.51,5.53,4.30,4.32,-4.26,-3.06,-2.57,1.25,1.27,1.22
149.26,5.51,5.48,4.34,4.31,-4.30,-3.06,-2.54,1.21,1.18,1.18
150.75,5.41,5.42,4.28,4.29,-4.32,-3.06,-2.51,1.10,1.10,1.13
152.26,5.32,5.36,4.23,4.27,-4.30,-3.06,-2.48,1.03,1.07,1.09
153.78,5.29,5.30,4.24,4.24,-4.24,-3.05,-2.46,1.06,1.06,1.06
155.32,5.24,5.21,4.23,4.19,-4.13,-3.05,-2.43,1.11,1.08,1.01
156.88,5.07,5.05,4.08,4.07,-3.98,-3.04,-2.40,1.08,1.07,0.98
158.44,4.80,4.82,3.87,3.88,-3.80,-3.03,-2.38,1.00,1.02,0.94
160.03,4.54,4.55,3.65,3.65,-3.60,-3.02,-2.36,0.95,0.95,0.90
161.63,4.27,4.27,3.42,3.42,-3.39,-3.01,-2.34,0.88,0.88,0.85
163.24,4.01,4.00,3.20,3.18,-3.20,-3.00,-2.32,0.82,0.80,0.81
164.88,3.75,3.74,2.97,2.96,-3.04,-2.98,-2.30,0.71,0.70,0.78
166.53,3.53,3.56,2.78,2.82,-2.95,-2.97,-2.28,0.58,0.61,0.74
168.19,3.46,3.48,2.76,2.78,-2.92,-2.95,-2.27,0.54,0.56,0.71
169.87,3.52,3.52,2.86,2.85,-2.97,-2.93,-2.25,0.56,0.55,0.67
171.57,3.66,3.67,3.03,3.04,-3.08,-2.91,-2.24,0.59,0.59,0.63
173.29,3.83,3.84,3.24,3.24,-3.23,-2.89,-2.23,0.61,0.61,0.60
175.02,4.06,4.02,3.50,3.47,-3.41,-2.86,-2.22,0.66,0.62,0.56
176.77,4.14,4.19,3.63,3.67,-3.59,-2.84,-2.21,0.55,0.60,0.51
178.54,4.33,4.31,3.86,3.83,-3.76,-2.81,-2.21,0.58,0.55,0.47
180.32,4.38,4.37,3.95,3.93,-3.88,-2.79,-2.21,0.50,0.49,0.44
182.13,4.38,4.42,3.98,4.01,-3.96,-2.76,-2.21,0.43,0.46,0.40
183.95,4.38,4.39,4.02,4.02,-3.99,-2.73,-2.21,0.39,0.39,0.36
185.79,4.38,4.33,4.05,4.00,-4.00,-2.70,-2.21,0.39,0.34,0.33
187.65,4.21,4.26,3.92,3.97,-3.97,-2.67,-2.21,0.24,0.29,0.29
189.52,4.15,4.16,3.89,3.90,-3.93,-2.64,-2.22,0.22,0.23,0.26
191.42,4.09,4.06,3.86,3.83,-3.89,-2.60,-2.22,0.21,0.17,0.23
193.33,3.97,4.01,3.77,3.80,-3.84,-2.57,-2.23,0.14,0.17,0.20
195.27,3.92,3.94,3.75,3.77,-3.78,-2.54,-2.24,0.14,0.16,0.17
197.22,3.92,3.87,3.78,3.73,-3.73,-2.50,-2.25,0.20,0.14,0.15
199.19,3.78,3.81,3.68,3.69,-3.67,-2.46,-2.26,0.12,0.14,0.11
201.18,3.69,3.72,3.60,3.63,-3.60,-2.42,-2.28,0.09,0.12,0.09
203.19,3.65,3.62,3.58,3.55,-3.53,-2.39,-2.29,0.12,0.09,0.08
205.23,3.52,3.52,3.47,3.47,-3.45,-2.35,-2.30,0.07,0.07,0.05
207.28,3.38,3.40,3.34,3.36,-3.36,-2.31,-2.32,0.03,0.04,0.05
209.35,3.27,3.25,3.25,3.23,-3.26,-2.26,-2.33,0.02,-0.01,0.02
211.44,3.11,3.15,3.12,3.14,-3.15,-2.22,-2.34,-0.03,0.00,-0.00
213.56,3.02,3.05,3.03,3.06,-3.03,-2.18,-2.36,-0.01,0.02,-0.01
215.69,3.01,2.94,3.02,2.96,-2.92,-2.13,-2.37,0.09,0.02,-0.01
217.85,2.80,2.83,2.83,2.85,-2.82,-2.09,-2.38,-0.01,0.01,-0.02
220.03,2.69,2.70,2.73,2.74,-2.73,-2.04,-2.39,-0.04,-0.03,-0.03
222.23,2.59,2.60,2.64,2.64,-2.68,-1.99,-2.40,-0.09,-0.08,-0.05
224.45,2.55,2.55,2.59,2.59,-2.66,-1.95,-2.41,-0.11,-0.12,-0.04
226.70,2.55,2.55,2.59,2.59,-2.67,-1.90,-2.42,-0.12,-0.12,-0.04
228.96,2.55,2.59,2.59,2.63,-2.71,-1.85,-2.42,-0.15,-0.11,-0.04
231.25,2.72,2.71,2.76,2.74,-2.77,-1.80,-2.42,-0.04,-0.06,-0.03
233.57,2.81,2.84,2.84,2.87,-2.84,-1.75,-2.42,-0.02,0.00,-0.03
235.90,3.00,2.96,3.03,2.99,-2.92,-1.70,-2.42,0.09,0.04,-0.03
238.26,3.01,3.01,3.04,3.04,-2.99,-1.65,-2.41,0.03,0.03,-0.03
240.64,3.01,3.03,3.03,3.05,-3.03,-1.59,-2.40,-0.01,0.01,-0.02
243.05,3.01,3.03,3.02,3.04,-3.03,-1.54,-2.39,-0.02,-0.00,-0.01
245.48,3.01,3.01,3.01,3.01,-3.00,-1.48,-2.37,0.01,0.01,0.00
247.93,3.01,2.96,3.00,2.95,-2.92,-1.43,-2.35,0.09,0.04,0.02
250.41,2.82,2.87,2.81,2.84,-2.80,-1.37,-2.33,0.03,0.07,0.02
252.92,2.73,2.74,2.69,2.70,-2.66,-1.32,-2.30,0.08,0.08,0.04
255.45,2.58,2.56,2.52,2.51,-2.50,-1.26,-2.26,0.08,0.06,0.06
258.00,2.42,2.41,2.35,2.33,-2.34,-1.20,-2.23,0.08,0.07,0.08
260.58,2.18,2.22,2.09,2.13,-2.19,-1.14,-2.19,-0.00,0.03,0.09
263.19,2.09,2.05,1.98,1.94,-2.04,-1.08,-2.14,0.06,0.02,0.11
265.82,1.89,1.94,1.77,1.81,-1.89,-1.02,-2.09,0.01,0.06,0.13
268.48,1.87,1.90,1.72,1.75,-1.74,-0.96,-2.04,0.13,0.16,0.15
271.16,1.87,1.82,1.70,1.65,-1.60,-0.90,-1.99,0.27,0.22,0.17
273.87,1.78,1.74,1.60,1.55,-1.47,-0.84,-1.93,0.32,0.28,0.19
276.61,1.53,1.59,1.32,1.38,-1.33,-0.77,-1.87,0.21,0.26,0.21
279.38,1.43,1.42,1.21,1.19,-1.19,-0.71,-1.81,0.25,0.23,0.23
282.17,1.24,1.25,1.00,1.01,-1.04,-0.64,-1.74,0.20,0.21,0.24
284.99,1.13,1.13,0.87,0.86,-0.89,-0.58,-1.67,0.24,0.23,0.27
287.84,0.97,0.98,0.69,0.70,-0.74,-0.51,-1.60,0.23,0.24,0.28
290.72,0.88,0.88,0.58,0.58,-0.60,-0.44,-1.53,0.29,0.29,0.31
293.63,0.75,0.78,0.43,0.45,-0.45,-0.37,-1.46,0.30,0.33,0.32
296.57,0.73,0.70,0.38,0.35,-0.32,-0.30,-1.38,0.42,0.38,0.35
299.53,0.56,0.59,0.20,0.22,-0.19,-0.23,-1.31,0.37,0.40,0.37
302.53,0.50,0.48,0.12,0.09,-0.06,-0.16,-1.23,0.45,0.42,0.38
305.55,0.30,0.33,-0.11,-0.08,0.08,-0.08,-1.15,0.38,0.40,0.42
308.61,0.22,0.21,-0.21,-0.22,0.21,-0.01,-1.08,0.44,0.43,0.43
311.69,0.06,0.10,-0.40,-0.37,0.35,0.07,-1.00,0.42,0.45,0.46
314.81,0.04,0.02,-0.45,-0.47,0.49,0.15,-0.92,0.53,0.50,0.50
317.96,-0.10,-0.10,-0.61,-0.61,0.62,0.23,-0.84,0.52,0.52,0.51
321.14,-0.19,-0.21,-0.72,-0.74,0.74,0.31,-0.76,0.55,0.53,0.53
324.35,-0.36,-0.31,-0.90,-0.87,0.85,0.40,-0.68,0.49,0.53,0.55
327.59,-0.41,-0.38,-0.98,-0.95,0.95,0.48,-0.59,0.54,0.56,0.58
330.87,-0.41,-0.46,-1.00,-1.05,1.04,0.57,-0.51,0.63,0.58,0.59
334.18,-0.51,-0.52,-1.12,-1.13,1.13,0.66,-0.43,0.62,0.61,0.61
337.52,-0.63,-0.58,-1.25,-1.21,1.22,0.75,-0.35,0.59,0.64,0.63
340.90,-0.64,-0.63,-1.29,-1.28,1.29,0.84,-0.27,0.66,0.67,0.65
344.30,-0.64,-0.67,-1.31,-1.34,1.36,0.93,-0.19,0.73,0.69,0.67
347.75,-0.70,-0.72,-1.39,-1.41,1.42,1.03,-0.11,0.73,0.70,0.69
351.23,-0.83,-0.79,-1.53,-1.50,1.48,1.12,-0.03,0.65,0.69,0.71
354.74,-0.87,-0.85,-1.59,-1.58,1.53,1.22,0.06,0.67,0.68,0.73
358.28,-0.87,-0.87,-1.61,-1.62,1.59,1.31,0.14,0.72,0.71,0.74
361.87,-0.87,-0.86,-1.63,-1.61,1.65,1.40,0.22,0.78,0.79,0.76
365.49,-0.87,-0.87,-1.63,-1.64,1.70,1.49,0.30,0.83,0.83,0.77
369.14,-0.89,-0.93,-1.66,-1.71,1.75,1.57,0.38,0.87,0.82,0.78
372.83,-1.03,-1.00,-1.82,-1.79,1.80,1.65,0.47,0.77,0.80,0.80
376.56,-1.09,-1.06,-1.89,-1.87,1.84,1.72,0.55,0.75,0.77,0.80
380.33,-1.09,-1.10,-1.92,-1.92,1.87,1.78,0.63,0.79,0.78,0.83
384.13,-1.09,-1.09,-1.93,-1.93,1.91,1.84,0.71,0.82,0.82,0.84
387.97,-1.09,-1.09,-1.93,-1.94,1.94,1.88,0.79,0.85,0.85,0.85
391.85,-1.09,-1.09,-1.94,-1.95,1.96,1.92,0.87,0.87,0.87,0.86
395.77,-1.09,-1.09,-1.96,-1.96,1.97,1.95,0.95,0.89,0.89,0.88
399.73,-1.09,-1.09,-1.97,-1.97,1.98,1.97,1.03,0.90,0.90,0.88
403.72,-1.09,-1.09,-1.98,-1.98,1.99,1.98,1.11,0.91,0.91,0.89
407.76,-1.09,-1.09,-1.99,-1.99,2.00,1.98,1.19,0.92,0.92,0.90
411.84,-1.09,-1.09,-2.01,-2.00,2.01,1.98,1.27,0.93,0.93,0.92
415.96,-1.09,-1.09,-2.02,-2.01,2.02,1.97,1.35,0.93,0.93,0.93
420.12,-1.09,-1.09,-2.02,-2.03,2.01,1.96,1.43,0.92,0.91,0.94
424.32,-1.09,-1.09,-2.03,-2.04,1.99,1.95,1.50,0.91,0.90,0.95
428.56,-1.09,-1.05,-2.04,-2.01,1.97,1.93,1.58,0.88,0.92,0.96
432.85,-1.00,-0.99,-1.96,-1.95,1.95,1.92,1.65,0.95,0.96,0.97
437.18,-0.89,-0.92,-1.86,-1.90,1.93,1.90,1.72,1.05,1.01,0.97
441.55,-0.87,-0.87,-1.86,-1.86,1.92,1.88,1.79,1.05,1.05,0.99
445.96,-0.87,-0.86,-1.87,-1.86,1.91,1.86,1.86,1.04,1.05,1.00
450.42,-0.87,-0.86,-1.88,-1.88,1.90,1.85,1.92,1.03,1.03,1.01
454.93,-0.87,-0.87,-1.90,-1.89,1.88,1.83,1.99,1.02,1.02,1.03
459.48,-0.87,-0.88,-1.91,-1.92,1.87,1.81,2.04,1.01,0.99,1.04
464.07,-0.87,-0.87,-1.92,-1.93,1.87,1.80,2.10,1.00,1.00,1.06
468.71,-0.87,-0.82,-1.94,-1.89,1.86,1.78,2.15,1.00,1.05,1.08
473.40,-0.73,-0.75,-1.81,-1.84,1.85,1.76,2.20,1.13,1.11,1.09
478.13,-0.65,-0.68,-1.75,-1.78,1.83,1.75,2.25,1.19,1.16,1.11
482.91,-0.64,-0.63,-1.75,-1.75,1.80,1.73,2.29,1.17,1.17,1.12
487.74,-0.64,-0.64,-1.77,-1.78,1.77,1.72,2.33,1.13,1.13,1.14
492.62,-0.64,-0.64,-1.79,-1.79,1.73,1.70,2.36,1.10,1.10,1.15
497.55,-0.64,-0.59,-1.80,-1.76,1.71,1.69,2.39,1.07,1.12,1.16
502.52,-0.51,-0.52,-1.69,-1.70,1.69,1.67,2.42,1.19,1.17,1.18
507.55,-0.42,-0.45,-1.61,-1.64,1.68,1.66,2.44,1.27,1.24,1.19
512.62,-0.41,-0.40,-1.62,-1.61,1.68,1.64,2.45,1.27,1.28,1.21
517.75,-0.41,-0.40,-1.64,-1.63,1.67,1.62,2.47,1.26,1.27,1.23
522.93,-0.41,-0.40,-1.66,-1.65,1.65,1.61,2.48,1.24,1.25,1.25
528.16,-0.41,-0.42,-1.67,-1.68,1.63,1.59,2.48,1.23,1.21,1.26
533.44,-0.41,-0.40,-1.69,-1.68,1.62,1.58,2.49,1.21,1.22,1.28
538.77,-0.41,-0.35,-1.71,-1.65,1.61,1.57,2.49,1.20,1.26,1.30
544.16,-0.25,-0.28,-1.56,-1.60,1.60,1.56,2.48,1.35,1.32,1.32
