frequency,raw,error,smoothed,error_smoothed,equalization,parametric_eq,fixed_band_eq,equalized_raw,equalized_smoothed,target
20.00,6.51,-4.09,6.48,-4.11,4.00,2.95,1.08,10.51,10.48,10.59
20.20,6.68,-3.90,6.69,-3.88,3.84,2.94,1.12,10.51,10.53,10.57
20.40,6.85,-3.70,6.88,-3.68,3.69,2.93,1.15,10.54,10.57,10.55
20.61,7.02,-3.53,7.04,-3.50,3.56,2.91,1.19,10.57,10.60,10.54
20.81,7.20,-3.32,7.20,-3.33,3.44,2.90,1.22,10.64,10.64,10.52
21.02,7.35,-3.16,7.29,-3.21,3.35,2.89,1.26,10.69,10.64,10.51
21.23,7.31,-3.18,7.32,-3.17,3.26,2.88,1.30,10.57,10.59,10.49
21.44,7.28,-3.20,7.29,-3.19,3.19,2.86,1.34,10.47,10.49,10.48
21.66,7.25,-3.22,7.24,-3.22,3.18,2.85,1.38,10.42,10.42,10.47
21.87,7.22,-3.23,7.22,-3.23,3.16,2.84,1.42,10.38,10.39,10.45
22.09,7.22,-3.22,7.23,-3.21,3.16,2.82,1.46,10.38,10.38,10.44
22.31,7.25,-3.18,7.25,-3.18,3.14,2.81,1.51,10.39,10.39,10.42
22.54,7.29,-3.13,7.29,-3.13,3.12,2.79,1.55,10.41,10.41,10.41
22.76,7.33,-3.07,7.33,-3.07,3.09,2.78,1.60,10.42,10.42,10.40
22.99,7.37,-3.02,7.37,-3.03,3.04,2.76,1.65,10.41,10.41,10.39
23.22,7.40,-2.98,7.40,-2.98,3.00,2.75,1.70,10.40,10.40,10.38
23.45,7.43,-2.95,7.43,-2.95,2.95,2.73,1.75,10.38,10.38,10.38
23.69,7.46,-2.91,7.46,-2.91,2.91,2.72,1.80,10.37,10.37,10.37
23.92,7.49,-2.88,7.49,-2.88,2.88,2.70,1.85,10.37,10.37,10.37
24.16,7.52,-2.85,7.52,-2.85,2.84,2.68,1.91,10.36,10.36,10.36
24.40,7.55,-2.81,7.55,-2.81,2.81,2.67,1.96,10.36,10.36,10.36
24.65,7.58,-2.78,7.58,-2.78,2.77,2.65,2.01,10.35,10.35,10.36
24.89,7.62,-2.74,7.62,-2.74,2.74,2.63,2.07,10.36,10.35,10.36
25.14,7.65,-2.71,7.65,-2.70,2.70,2.62,2.12,10.35,10.35,10.36
25.39,7.70,-2.66,7.70,-2.66,2.66,2.60,2.18,10.36,10.36,10.36
25.65,7.74,-2.62,7.74,-2.62,2.62,2.58,2.23,10.36,10.36,10.35
25.91,7.78,-2.58,7.78,-2.58,2.58,2.56,2.29,10.36,10.36,10.36
26.16,7.82,-2.54,7.81,-2.55,2.55,2.54,2.34,10.37,10.36,10.36
26.43,7.84,-2.52,7.84,-2.51,2.52,2.52,2.40,10.36,10.36,10.36
26.69,7.87,-2.49,7.87,-2.48,2.50,2.50,2.45,10.36,10.37,10.36
26.96,7.90,-2.46,7.89,-2.47,2.48,2.48,2.50,10.38,10.37,10.35
27.23,7.90,-2.45,7.90,-2.46,2.47,2.46,2.55,10.37,10.37,10.35
27.50,7.89,-2.46,7.89,-2.46,2.47,2.44,2.60,10.36,10.36,10.35
27.77,7.88,-2.47,7.88,-2.46,2.46,2.42,2.65,10.34,10.35,10.35
28.05,7.88,-2.47,7.88,-2.46,2.45,2.40,2.69,10.33,10.33,10.34
28.33,7.89,-2.44,7.88,-2.45,2.43,2.37,2.73,10.32,10.31,10.33
28.62,7.90,-2.43,7.90,-2.43,2.40,2.35,2.77,10.29,10.29,10.33
28.90,7.92,-2.41,7.93,-2.40,2.36,2.33,2.80,10.28,10.28,10.33
29.19,7.97,-2.36,7.98,-2.34,2.32,2.30,2.83,10.29,10.30,10.32
29.48,8.06,-2.26,8.06,-2.26,2.29,2.28,2.86,10.35,10.35,10.32
29.78,8.14,-2.18,8.13,-2.19,2.26,2.25,2.88,10.40,10.39,10.32
30.08,8.19,-2.13,8.16,-2.15,2.23,2.23,2.90,10.42,10.40,10.31
30.38,8.14,-2.17,8.13,-2.18,2.20,2.20,2.91,10.34,10.34,10.31
30.68,8.09,-2.21,8.09,-2.21,2.17,2.18,2.92,10.26,10.26,10.30
30.99,8.04,-2.25,8.08,-2.21,2.13,2.15,2.92,10.16,10.20,10.29
31.30,8.13,-2.15,8.12,-2.16,2.08,2.12,2.92,10.21,10.20,10.28
31.61,8.22,-2.06,8.21,-2.07,2.03,2.09,2.92,10.25,10.24,10.28
31.93,8.31,-1.96,8.30,-1.97,1.99,2.06,2.90,10.29,10.29,10.27
32.24,8.37,-1.89,8.38,-1.89,1.94,2.03,2.89,10.31,10.32,10.26
32.57,8.43,-1.83,8.43,-1.82,1.89,2.00,2.86,10.32,10.33,10.25
32.89,8.48,-1.77,8.46,-1.78,1.85,1.97,2.84,10.32,10.31,10.25
33.22,8.47,-1.78,8.45,-1.79,1.81,1.94,2.80,10.28,10.26,10.24
33.55,8.42,-1.82,8.42,-1.82,1.78,1.91,2.77,10.20,10.20,10.24
33.89,8.38,-1.87,8.40,-1.84,1.77,1.88,2.73,10.14,10.17,10.24
34.23,8.42,-1.82,8.43,-1.81,1.76,1.85,2.69,10.18,10.19,10.24
34.57,8.50,-1.73,8.50,-1.74,1.75,1.81,2.64,10.25,10.25,10.23
34.92,8.59,-1.65,8.56,-1.68,1.74,1.78,2.59,10.33,10.30,10.24
35.27,8.58,-1.65,8.56,-1.67,1.71,1.74,2.54,10.29,10.28,10.23
35.62,8.54,-1.70,8.54,-1.69,1.67,1.71,2.48,10.21,10.22,10.24
35.97,8.50,-1.73,8.53,-1.69,1.63,1.68,2.43,10.13,10.17,10.23
36.33,8.57,-1.65,8.57,-1.65,1.60,1.64,2.37,10.17,10.18,10.22
36.70,8.65,-1.57,8.63,-1.58,1.58,1.61,2.31,10.23,10.22,10.22
37.06,8.71,-1.50,8.69,-1.51,1.57,1.57,2.24,10.28,10.26,10.21
37.43,8.71,-1.48,8.72,-1.48,1.55,1.54,2.18,10.26,10.26,10.19
37.81,8.71,-1.48,8.71,-1.47,1.51,1.50,2.12,10.22,10.22,10.18
38.19,8.69,-1.48,8.67,-1.50,1.47,1.47,2.05,10.16,10.14,10.17
38.57,8.65,-1.50,8.64,-1.51,1.43,1.44,1.99,10.08,10.08,10.15
38.95,8.61,-1.52,8.66,-1.47,1.40,1.41,1.93,10.01,10.06,10.13
39.34,8.72,-1.39,8.73,-1.38,1.37,1.38,1.86,10.09,10.10,10.11
39.74,8.85,-1.25,8.82,-1.28,1.32,1.35,1.80,10.17,10.15,10.10
40.14,8.92,-1.17,8.87,-1.21,1.27,1.32,1.74,10.19,10.15,10.08
40.54,8.87,-1.19,8.87,-1.20,1.22,1.29,1.67,10.08,10.09,10.06
40.94,8.82,-1.23,8.86,-1.19,1.16,1.26,1.61,9.98,10.02,10.05
41.35,8.88,-1.16,8.89,-1.15,1.11,1.23,1.55,9.99,9.99,10.04
41.76,8.96,-1.06,8.94,-1.08,1.07,1.20,1.49,10.03,10.01,10.02
42.18,9.01,-1.00,8.99,-1.02,1.04,1.18,1.43,10.05,10.04,10.01
42.60,9.01,-1.00,9.01,-0.99,1.03,1.15,1.37,10.04,10.04,10.01
43.03,9.01,-0.99,9.02,-0.98,1.01,1.12,1.31,10.02,10.03,10.00
43.46,9.01,-0.98,9.01,-0.98,1.00,1.09,1.26,10.01,10.01,9.98
43.90,9.01,-0.97,9.00,-0.98,0.98,1.07,1.20,9.99,9.97,9.98
44.33,8.98,-0.99,8.97,-1.00,0.96,1.04,1.15,9.94,9.93,9.97
44.78,8.95,-1.01,8.96,-0.99,0.94,1.01,1.09,9.89,9.91,9.95
45.23,8.97,-0.98,8.99,-0.96,0.92,0.98,1.04,9.89,9.91,9.95
45.68,9.05,-0.89,9.04,-0.90,0.89,0.95,0.99,9.94,9.93,9.93
46.13,9.11,-0.81,9.09,-0.83,0.86,0.93,0.94,9.97,9.95,9.92
46.60,9.11,-0.80,9.11,-0.79,0.84,0.90,0.89,9.95,9.95,9.90
47.06,9.11,-0.78,9.12,-0.77,0.81,0.86,0.84,9.92,9.92,9.89
47.53,9.11,-0.76,9.11,-0.76,0.77,0.83,0.79,9.88,9.88,9.87
48.01,9.11,-0.74,9.09,-0.76,0.74,0.80,0.74,9.85,9.83,9.85
48.49,9.08,-0.75,9.08,-0.75,0.71,0.77,0.69,9.79,9.79,9.82
48.97,9.05,-0.76,9.09,-0.72,0.68,0.74,0.65,9.73,9.76,9.81
49.46,9.12,-0.67,9.12,-0.67,0.65,0.70,0.60,9.76,9.76,9.79
49.96,9.19,-0.57,9.16,-0.60,0.61,0.67,0.56,9.80,9.77,9.76
50.46,9.20,-0.54,9.20,-0.53,0.57,0.63,0.51,9.77,9.77,9.74
50.96,9.21,-0.51,9.21,-0.50,0.53,0.60,0.47,9.74,9.74,9.71
51.47,9.21,-0.48,9.21,-0.48,0.49,0.56,0.43,9.70,9.70,9.69
51.99,9.21,-0.46,9.21,-0.46,0.46,0.52,0.39,9.67,9.67,9.67
52.51,9.21,-0.44,9.21,-0.44,0.44,0.48,0.35,9.65,9.65,9.64
53.03,9.21,-0.41,9.21,-0.41,0.41,0.44,0.31,9.62,9.63,9.62
53.56,9.21,-0.39,9.21,-0.39,0.39,0.40,0.26,9.60,9.59,9.60
54.10,9.21,-0.36,9.19,-0.38,0.36,0.36,0.22,9.56,9.55,9.57
54.64,9.18,-0.36,9.19,-0.35,0.32,0.32,0.18,9.50,9.51,9.54
55.18,9.20,-0.32,9.22,-0.30,0.28,0.28,0.15,9.48,9.49,9.51
55.74,9.27,-0.22,9.25,-0.23,0.23,0.24,0.11,9.50,9.49,9.49
56.29,9.31,-0.15,9.29,-0.16,0.19,0.19,0.07,9.49,9.48,9.46
56.86,9.31,-0.12,9.31,-0.11,0.14,0.15,0.03,9.45,9.45,9.43
57.42,9.31,-0.09,9.31,-0.09,0.09,0.10,-0.01,9.40,9.41,9.40
58.00,9.31,-0.06,9.31,-0.06,0.05,0.06,-0.05,9.36,9.36,9.37
58.58,9.31,-0.03,9.31,-0.03,0.02,0.01,-0.09,9.33,9.34,9.34
59.16,9.31,0.00,9.32,0.01,0.00,-0.03,-0.13,9.31,9.32,9.31
59.76,9.33,0.06,9.31,0.03,-0.02,-0.08,-0.17,9.31,9.29,9.27
60.35,9.29,0.05,9.28,0.04,-0.03,-0.13,-0.20,9.25,9.24,9.23
60.96,9.22,0.02,9.24,0.04,-0.05,-0.18,-0.24,9.17,9.19,9.20
61.57,9.21,0.05,9.21,0.05,-0.08,-0.22,-0.28,9.13,9.14,9.16
62.18,9.21,0.09,9.20,0.09,-0.10,-0.27,-0.32,9.11,9.10,9.12
62.80,9.21,0.14,9.21,0.13,-0.13,-0.32,-0.36,9.08,9.08,9.07
63.43,9.21,0.18,9.21,0.18,-0.17,-0.38,-0.40,9.04,9.04,9.03
64.07,9.21,0.22,9.21,0.22,-0.22,-0.43,-0.44,8.99,8.99,8.99
64.71,9.21,0.28,9.20,0.27,-0.28,-0.48,-0.48,8.93,8.92,8.93
65.35,9.21,0.32,9.21,0.32,-0.34,-0.53,-0.52,8.87,8.87,8.89
66.01,9.21,0.38,9.23,0.40,-0.41,-0.59,-0.57,8.80,8.82,8.83
66.67,9.28,0.49,9.27,0.48,-0.48,-0.64,-0.61,8.80,8.79,8.79
67.33,9.31,0.58,9.30,0.56,-0.55,-0.69,-0.65,8.76,8.75,8.73
68.01,9.31,0.63,9.31,0.64,-0.61,-0.75,-0.69,8.70,8.70,8.68
68.69,9.31,0.69,9.31,0.69,-0.68,-0.80,-0.74,8.63,8.63,8.62
69.37,9.31,0.74,9.31,0.74,-0.75,-0.86,-0.78,8.56,8.56,8.57
70.07,9.31,0.80,9.31,0.80,-0.81,-0.92,-0.83,8.50,8.50,8.50
70.77,9.31,0.86,9.31,0.86,-0.87,-0.97,-0.87,8.44,8.44,8.45
71.48,9.31,0.91,9.31,0.92,-0.92,-1.03,-0.92,8.39,8.39,8.40
72.19,9.31,0.98,9.31,0.98,-0.97,-1.09,-0.97,8.34,8.34,8.33
72.91,9.31,1.04,9.31,1.04,-1.02,-1.15,-1.02,8.29,8.30,8.27
73.64,9.31,1.09,9.29,1.08,-1.06,-1.21,-1.07,8.25,8.23,8.21
74.38,9.27,1.11,9.26,1.11,-1.11,-1.27,-1.12,8.16,8.15,8.15
75.12,9.21,1.12,9.23,1.14,-1.16,-1.33,-1.17,8.05,8.07,8.08
75.87,9.21,1.19,9.21,1.19,-1.21,-1.39,-1.22,8.00,8.00,8.02
76.63,9.21,1.25,9.20,1.24,-1.26,-1.45,-1.27,7.95,7.94,7.96
77.40,9.21,1.31,9.21,1.31,-1.31,-1.51,-1.33,7.89,7.89,7.89
78.17,9.21,1.38,9.21,1.38,-1.37,-1.57,-1.39,7.83,7.83,7.83
78.95,9.21,1.45,9.21,1.45,-1.44,-1.64,-1.44,7.77,7.77,7.76
79.74,9.21,1.51,9.21,1.51,-1.51,-1.70,-1.50,7.69,7.69,7.70
80.54,9.21,1.58,9.21,1.58,-1.58,-1.76,-1.56,7.62,7.62,7.63
81.35,9.21,1.65,9.21,1.65,-1.65,-1.83,-1.62,7.55,7.56,7.56
82.16,9.21,1.72,9.21,1.72,-1.72,-1.89,-1.69,7.49,7.49,7.49
82.98,9.21,1.79,9.21,1.79,-1.78,-1.96,-1.75,7.43,7.43,7.42
83.81,9.21,1.87,9.20,1.86,-1.84,-2.02,-1.82,7.37,7.36,7.34
84.65,9.18,1.91,9.17,1.91,-1.90,-2.08,-1.88,7.28,7.27,7.27
85.50,9.14,1.95,9.14,1.95,-1.96,-2.15,-1.95,7.18,7.18,7.19
86.35,9.11,2.00,9.12,2.01,-2.03,-2.22,-2.02,7.08,7.09,7.11
87.22,9.11,2.07,9.11,2.07,-2.09,-2.28,-2.10,7.01,7.01,7.03
88.09,9.11,2.15,9.11,2.15,-2.16,-2.35,-2.17,6.95,6.94,6.96
88.97,9.11,2.23,9.11,2.23,-2.23,-2.41,-2.25,6.88,6.88,6.88
89.86,9.11,2.32,9.11,2.32,-2.30,-2.48,-2.32,6.81,6.81,6.79
90.76,9.11,2.40,9.10,2.39,-2.37,-2.55,-2.40,6.74,6.73,6.71
91.66,9.09,2.47,9.08,2.45,-2.44,-2.61,-2.48,6.65,6.63,6.62
92.58,9.04,2.50,9.05,2.51,-2.51,-2.68,-2.57,6.53,6.54,6.54
93.51,9.01,2.56,9.02,2.57,-2.57,-2.75,-2.65,6.43,6.45,6.45
94.44,9.01,2.65,8.99,2.63,-2.64,-2.81,-2.74,6.37,6.35,6.36
95.39,8.98,2.71,8.96,2.70,-2.71,-2.88,-2.82,6.27,6.26,6.27
96.34,8.91,2.73,8.93,2.76,-2.77,-2.95,-2.91,6.14,6.16,6.17
97.30,8.90,2.83,8.90,2.83,-2.84,-3.01,-3.00,6.06,6.06,6.07
98.28,8.89,2.91,8.89,2.91,-2.91,-3.08,-3.09,5.98,5.98,5.98
99.26,8.88,3.00,8.88,3.01,-2.98,-3.15,-3.18,5.90,5.90,5.87
100.25,8.86,3.09,8.84,3.07,-3.05,-3.21,-3.28,5.80,5.79,5.77
101.25,8.80,3.13,8.80,3.13,-3.13,-3.28,-3.37,5.67,5.67,5.67
102.27,8.73,3.17,8.75,3.19,-3.21,-3.34,-3.46,5.52,5.54,5.56
103.29,8.72,3.26,8.71,3.26,-3.28,-3.41,-3.56,5.44,5.43,5.46
104.32,8.70,3.35,8.69,3.34,-3.36,-3.47,-3.65,5.34,5.34,5.35
105.37,8.68,3.43,8.68,3.44,-3.42,-3.54,-3.75,5.26,5.26,5.25
106.42,8.65,3.52,8.66,3.52,-3.49,-3.60,-3.84,5.16,5.16,5.13
107.48,8.63,3.60,8.61,3.58,-3.56,-3.66,-3.93,5.07,5.05,5.03
108.56,8.57,3.63,8.56,3.63,-3.63,-3.73,-4.02,4.94,4.93,4.93
109.64,8.49,3.66,8.51,3.68,-3.70,-3.79,-4.11,4.79,4.81,4.83
110.74,8.46,3.73,8.46,3.73,-3.76,-3.85,-4.20,4.70,4.71,4.73
111.85,8.44,3.81,8.44,3.81,-3.81,-3.91,-4.28,4.63,4.63,4.63
112.97,8.43,3.89,8.42,3.88,-3.86,-3.97,-4.36,4.56,4.55,4.54
114.10,8.39,3.94,8.38,3.94,-3.92,-4.03,-4.44,4.47,4.47,4.45
115.24,8.33,3.98,8.34,3.99,-3.98,-4.09,-4.52,4.35,4.36,4.35
116.39,8.31,4.05,8.30,4.03,-4.04,-4.15,-4.59,4.26,4.25,4.26
117.55,8.26,4.08,8.26,4.09,-4.11,-4.21,-4.65,4.14,4.15,4.18
118.73,8.24,4.15,8.25,4.16,-4.18,-4.26,-4.71,4.05,4.06,4.09
119.92,8.24,4.23,8.24,4.23,-4.25,-4.32,-4.77,3.99,3.99,4.01
121.12,8.25,4.32,8.25,4.33,-4.32,-4.37,-4.82,3.93,3.93,3.93
122.33,8.26,4.41,8.26,4.41,-4.38,-4.43,-4.86,3.88,3.88,3.85
123.55,8.27,4.50,8.25,4.48,-4.45,-4.48,-4.90,3.82,3.81,3.77
124.79,8.22,4.53,8.22,4.53,-4.51,-4.53,-4.93,3.71,3.71,3.69
126.03,8.18,4.56,8.17,4.56,-4.56,-4.58,-4.96,3.61,3.61,3.61
127.29,8.12,4.58,8.13,4.59,-4.62,-4.63,-4.98,3.50,3.51,3.54
128.57,8.09,4.63,8.10,4.64,-4.66,-4.68,-5.00,3.42,3.44,3.46
129.85,8.10,4.71,8.09,4.71,-4.71,-4.73,-5.00,3.38,3.38,3.39
131.15,8.10,4.79,8.08,4.77,-4.77,-4.78,-5.01,3.33,3.31,3.31
132.46,8.06,4.82,8.06,4.82,-4.82,-4.82,-5.01,3.24,3.24,3.24
133.79,8.02,4.85,8.03,4.86,-4.87,-4.87,-5.00,3.15,3.16,3.17
135.12,8.01,4.91,8.02,4.92,-4.91,-4.91,-4.99,3.09,3.11,3.10
136.48,8.02,4.99,8.02,4.99,-4.96,-4.95,-4.98,3.06,3.06,3.03
137.84,8.02,5.06,7.98,5.03,-5.00,-4.99,-4.96,3.02,2.98,2.96
139.22,7.93,5.05,7.93,5.04,-5.04,-5.03,-4.94,2.88,2.88,2.88
140.61,7.84,5.02,7.87,5.05,-5.09,-5.07,-4.92,2.75,2.78,2.81
142.02,7.82,5.08,7.82,5.08,-5.13,-5.11,-4.89,2.69,2.70,2.74
143.44,7.82,5.15,7.82,5.15,-5.16,-5.14,-4.87,2.65,2.65,2.66
144.87,7.82,5.23,7.82,5.22,-5.20,-5.18,-4.84,2.62,2.62,2.59
146.32,7.81,5.28,7.80,5.27,-5.24,-5.21,-4.81,2.57,2.56,2.53
147.78,7.76,5.30,7.75,5.29,-5.27,-5.25,-4.78,2.49,2.48,2.46
149.26,7.69,5.30,7.69,5.30,-5.31,-5.28,-4.75,2.38,2.39,2.39
150.75,7.63,5.31,7.65,5.33,-5.34,-5.31,-4.73,2.29,2.31,2.32
152.26,7.62,5.37,7.62,5.36,-5.38,-5.33,-4.70,2.24,2.24,2.25
153.78,7.62,5.42,7.59,5.39,-5.41,-5.36,-4.68,2.21,2.18,2.19
155.32,7.55,5.42,7.55,5.42,-5.44,-5.38,-4.65,2.11,2.11,2.13
156.88,7.50,5.43,7.53,5.46,-5.47,-5.41,-4.63,2.03,2.05,2.07
158.44,7.51,5.51,7.52,5.52,-5.51,-5.43,-4.61,2.00,2.01,2.00
160.03,7.53,5.59,7.51,5.57,-5.54,-5.45,-4.60,1.99,1.97,1.94
161.63,7.50,5.63,7.46,5.59,-5.56,-5.47,-4.58,1.94,1.90,1.87
163.24,7.37,5.56,7.40,5.59,-5.58,-5.49,-4.57,1.78,1.81,1.81
164.88,7.31,5.56,7.34,5.59,-5.60,-5.51,-4.56,1.71,1.74,1.75
166.53,7.31,5.61,7.29,5.60,-5.61,-5.53,-4.56,1.70,1.68,1.70
168.19,7.28,5.64,7.26,5.62,-5.62,-5.54,-4.56,1.66,1.64,1.64
169.87,7.21,5.62,7.21,5.63,-5.62,-5.55,-4.56,1.59,1.59,1.58
171.57,7.14,5.61,7.15,5.61,-5.63,-5.56,-4.56,1.51,1.52,1.53
173.29,7.09,5.61,7.11,5.63,-5.64,-5.58,-4.57,1.45,1.47,1.48
175.02,7.08,5.64,7.07,5.64,-5.64,-5.58,-4.58,1.43,1.43,1.44
176.77,7.08,5.69,7.04,5.65,-5.65,-5.59,-4.60,1.43,1.39,1.39
178.54,6.96,5.62,7.01,5.67,-5.66,-5.60,-4.62,1.30,1.35,1.34
180.32,6.97,5.67,6.97,5.67,-5.66,-5.60,-4.64,1.31,1.31,1.30
182.13,6.96,5.70,6.93,5.67,-5.67,-5.61,-4.67,1.29,1.26,1.26
183.95,6.89,5.66,6.88,5.66,-5.67,-5.61,-4.69,1.22,1.21,1.22
185.79,6.82,5.63,6.84,5.66,-5.67,-5.61,-4.73,1.15,1.18,1.19
187.65,6.79,5.63,6.82,5.67,-5.66,-5.61,-4.76,1.12,1.16,1.15
189.52,6.85,5.73,6.80,5.67,-5.66,-5.61,-4.81,1.19,1.14,1.12
191.42,6.79,5.69,6.76,5.66,-5.66,-5.61,-4.85,1.13,1.10,1.10
193.33,6.67,5.60,6.72,5.65,-5.66,-5.60,-4.89,1.01,1.06,1.07
195.27,6.66,5.62,6.68,5.64,-5.66,-5.60,-4.94,1.00,1.01,1.04
197.22,6.69,5.68,6.66,5.66,-5.66,-5.59,-4.99,1.02,1.00,1.01
199.19,6.67,5.69,6.65,5.67,-5.66,-5.58,-5.05,1.01,0.99,0.98
201.18,6.61,5.66,6.61,5.66,-5.65,-5.57,-5.10,0.96,0.95,0.95
203.19,6.54,5.62,6.57,5.65,-5.64,-5.56,-5.16,0.90,0.93,0.92
205.23,6.53,5.63,6.54,5.65,-5.63,-5.55,-5.22,0.90,0.92,0.90
207.28,6.55,5.68,6.50,5.63,-5.61,-5.54,-5.28,0.94,0.89,0.87
209.35,6.45,5.60,6.43,5.59,-5.59,-5.53,-5.34,0.86,0.84,0.85
211.44,6.31,5.50,6.36,5.54,-5.56,-5.51,-5.40,0.75,0.80,0.81
213.56,6.28,5.49,6.29,5.51,-5.53,-5.49,-5.46,0.75,0.76,0.79
215.69,6.30,5.54,6.26,5.50,-5.50,-5.48,-5.53,0.80,0.76,0.76
217.85,6.22,5.48,6.23,5.50,-5.47,-5.46,-5.58,0.75,0.76,0.74
220.03,6.16,5.45,6.16,5.46,-5.44,-5.44,-5.64,0.72,0.72,0.70
222.23,6.11,5.42,6.07,5.39,-5.42,-5.42,-5.70,0.69,0.66,0.68
224.45,5.99,5.32,6.04,5.37,-5.39,-5.39,-5.75,0.60,0.64,0.66
226.70,5.98,5.33,6.00,5.36,-5.36,-5.37,-5.80,0.62,0.64,0.65
228.96,6.04,5.41,5.98,5.35,-5.33,-5.35,-5.84,0.70,0.64,0.63
231.25,5.93,5.31,5.94,5.32,-5.30,-5.32,-5.88,0.62,0.64,0.62
233.57,5.88,5.28,5.89,5.29,-5.27,-5.29,-5.92,0.61,0.62,0.60
235.90,5.80,5.21,5.82,5.23,-5.24,-5.27,-5.94,0.56,0.58,0.59
238.26,5.82,5.24,5.77,5.19,-5.21,-5.24,-5.96,0.61,0.56,0.58
240.64,5.71,5.13,5.74,5.17,-5.17,-5.21,-5.98,0.54,0.57,0.57
243.05,5.68,5.11,5.72,5.15,-5.13,-5.18,-5.98,0.55,0.59,0.57
245.48,5.73,5.16,5.66,5.10,-5.09,-5.14,-5.98,0.64,0.57,0.56
247.93,5.63,5.07,5.61,5.05,-5.06,-5.11,-5.97,0.56,0.54,0.56
250.41,5.50,4.94,5.56,5.00,-5.04,-5.08,-5.95,0.46,0.52,0.56
252.92,5.52,4.96,5.54,4.99,-5.01,-5.04,-5.93,0.51,0.53,0.55
255.45,5.57,5.03,5.54,4.99,-4.98,-5.00,-5.90,0.59,0.55,0.54
258.00,5.57,5.03,5.51,4.97,-4.95,-4.97,-5.86,0.62,0.56,0.54
260.58,5.42,4.89,5.48,4.95,-4.92,-4.93,-5.80,0.50,0.56,0.53
263.19,5.37,4.85,5.41,4.89,-4.88,-4.89,-5.75,0.49,0.53,0.52
265.82,5.42,4.92,5.32,4.82,-4.83,-4.85,-5.68,0.58,0.49,0.49
268.48,5.24,4.75,5.28,4.79,-4.78,-4.81,-5.61,0.45,0.49,0.48
271.16,5.15,4.68,5.21,4.75,-4.73,-4.77,-5.54,0.42,0.48,0.46
273.87,5.20,4.74,5.12,4.67,-4.69,-4.72,-5.45,0.51,0.43,0.45
276.61,5.07,4.63,5.05,4.62,-4.65,-4.68,-5.37,0.42,0.40,0.43
279.38,4.94,4.52,5.00,4.58,-4.61,-4.63,-5.27,0.33,0.39,0.42
282.17,4.95,4.54,4.96,4.55,-4.58,-4.59,-5.18,0.37,0.37,0.41
284.99,4.99,4.59,4.95,4.55,-4.55,-4.54,-5.08,0.44,0.40,0.40
287.84,4.95,4.55,4.95,4.55,-4.51,-4.49,-4.98,0.44,0.44,0.40
290.72,4.90,4.51,4.92,4.53,-4.47,-4.45,-4.87,0.43,0.45,0.39
293.63,4.84,4.45,4.83,4.44,-4.43,-4.40,-4.76,0.41,0.40,0.38
296.57,4.80,4.41,4.75,4.36,-4.38,-4.35,-4.66,0.42,0.37,0.39
299.53,4.61,4.22,4.70,4.31,-4.32,-4.30,-4.55,0.29,0.37,0.39
302.53,4.64,4.26,4.63,4.24,-4.26,-4.25,-4.44,0.37,0.37,0.38
305.55,4.65,4.26,4.56,4.18,-4.20,-4.19,-4.33,0.45,0.36,0.39
308.61,4.47,4.09,4.53,4.15,-4.14,-4.14,-4.22,0.33,0.40,0.38
311.69,4.44,4.06,4.46,4.09,-4.08,-4.09,-4.12,0.36,0.38,0.37
314.81,4.45,4.08,4.38,4.01,-4.03,-4.03,-4.01,0.42,0.35,0.37
317.96,4.32,3.96,4.35,3.99,-3.98,-3.98,-3.91,0.34,0.38,0.36
321.14,4.25,3.89,4.29,3.93,-3.92,-3.92,-3.80,0.32,0.37,0.36
324.35,4.30,3.94,4.21,3.85,-3.87,-3.87,-3.70,0.43,0.34,0.36
327.59,4.13,3.77,4.17,3.81,-3.81,-3.81,-3.60,0.32,0.35,0.36
330.87,4.06,3.71,4.11,3.76,-3.75,-3.75,-3.50,0.31,0.36,0.35
334.18,4.10,3.75,4.03,3.69,-3.69,-3.70,-3.40,0.41,0.34,0.35
337.52,3.99,3.65,3.98,3.64,-3.63,-3.64,-3.31,0.36,0.35,0.34
340.90,3.88,3.54,3.92,3.57,-3.56,-3.58,-3.22,0.32,0.35,0.34
344.30,3.84,3.50,3.83,3.49,-3.50,-3.52,-3.13,0.34,0.33,0.34
347.75,3.78,3.43,3.77,3.42,-3.43,-3.46,-3.04,0.35,0.33,0.35
351.23,3.70,3.36,3.71,3.37,-3.37,-3.40,-2.95,0.33,0.34,0.34
354.74,3.65,3.30,3.64,3.30,-3.30,-3.34,-2.87,0.35,0.34,0.35
358.28,3.58,3.23,3.58,3.23,-3.23,-3.27,-2.79,0.35,0.35,0.35
361.87,3.52,3.16,3.53,3.17,-3.16,-3.21,-2.71,0.35,0.36,0.35
365.49,3.48,3.12,3.46,3.10,-3.10,-3.15,-2.63,0.38,0.36,0.36
369.14,3.40,3.04,3.41,3.04,-3.05,-3.09,-2.56,0.35,0.36,0.36
372.83,3.34,2.96,3.35,2.98,-2.99,-3.02,-2.49,0.35,0.36,0.37
376.56,3.30,2.93,3.29,2.92,-2.93,-2.96,-2.42,0.37,0.36,0.37
380.33,3.23,2.86,3.24,2.87,-2.87,-2.89,-2.35,0.36,0.37,0.37
384.13,3.19,2.82,3.19,2.82,-2.81,-2.83,-2.28,0.38,0.38,0.37
387.97,3.14,2.78,3.14,2.78,-2.75,-2.76,-2.22,0.39,0.39,0.36
391.85,3.08,2.71,3.08,2.71,-2.69,-2.70,-2.15,0.39,0.38,0.37
395.77,3.02,2.66,2.98,2.62,-2.63,-2.63,-2.09,0.39,0.35,0.36
399.73,2.88,2.52,2.91,2.56,-2.57,-2.57,-2.03,0.31,0.34,0.36
403.72,2.81,2.46,2.84,2.50,-2.50,-2.50,-1.98,0.31,0.34,0.35
407.76,2.83,2.50,2.77,2.43,-2.44,-2.43,-1.92,0.39,0.33,0.33
411.84,2.70,2.37,2.71,2.38,-2.38,-2.37,-1.87,0.32,0.33,0.33
415.96,2.61,2.28,2.64,2.32,-2.31,-2.30,-1.81,0.30,0.33,0.33
420.12,2.58,2.26,2.56,2.24,-2.25,-2.23,-1.76,0.33,0.31,0.31
424.32,2.52,2.20,2.51,2.19,-2.19,-2.16,-1.71,0.33,0.32,0.32
428.56,2.45,2.12,2.47,2.14,-2.12,-2.10,-1.66,0.32,0.34,0.33
432.85,2.42,2.07,2.42,2.08,-2.06,-2.03,-1.61,0.36,0.36,0.35
437.18,2.40,2.04,2.36,2.00,-2.00,-1.96,-1.56,0.40,0.36,0.36
441.55,2.31,1.91,2.31,1.92,-1.93,-1.89,-1.52,0.38,0.38,0.39
445.96,2.24,1.81,2.29,1.86,-1.87,-1.82,-1.47,0.37,0.43,0.43
450.42,2.30,1.82,2.27,1.79,-1.81,-1.76,-1.42,0.49,0.46,0.48
454.93,2.32,1.79,2.27,1.74,-1.75,-1.69,-1.38,0.57,0.52,0.53
459.48,2.23,1.64,2.28,1.70,-1.69,-1.62,-1.34,0.54,0.60,0.59
464.07,2.27,1.63,2.27,1.63,-1.63,-1.55,-1.29,0.64,0.64,0.64
468.71,2.30,1.61,2.25,1.56,-1.57,-1.48,-1.25,0.73,0.68,0.69
473.40,2.23,1.48,2.27,1.52,-1.51,-1.41,-1.20,0.72,0.76,0.74
478.13,2.24,1.44,2.26,1.46,-1.44,-1.35,-1.16,0.80,0.82,0.80
482.91,2.28,1.43,2.23,1.38,-1.37,-1.28,-1.12,0.91,0.86,0.85
487.74,2.20,1.31,2.21,1.31,-1.29,-1.21,-1.07,0.91,0.91,0.89
492.62,2.13,1.20,2.15,1.22,-1.22,-1.14,-1.03,0.91,0.93,0.93
497.55,2.10,1.13,2.09,1.12,-1.15,-1.07,-0.98,0.95,0.94,0.97
502.52,2.04,1.05,2.04,1.05,-1.08,-1.00,-0.94,0.96,0.96,0.99
507.55,2.00,0.98,2.01,0.99,-1.01,-0.94,-0.90,0.99,1.00,1.02
512.62,1.96,0.93,1.97,0.95,-0.94,-0.87,-0.85,1.02,1.03,1.03
517.75,1.95,0.92,1.92,0.89,-0.87,-0.80,-0.81,1.08,1.05,1.02
522.93,1.85,0.82,1.85,0.83,-0.81,-0.73,-0.76,1.04,1.04,1.02
528.16,1.74,0.74,1.75,0.75,-0.74,-0.67,-0.71,1.00,1.01,1.00
533.44,1.65,0.67,1.64,0.67,-0.67,-0.60,-0.67,0.98,0.97,0.98
