frequency,raw
20,-10.93
21,-10.26
22,-9.78
23,-9.30
24,-8.89
25,-8.66
26,-8.21
27,-7.98
28,-7.75
29,-7.29
30,-7.07
31,-6.84
32,-6.61
33,-6.38
34,-6.15
35,-5.93
36,-5.70
37,-5.47
38,-5.42
39,-5.01
40,-4.98
41,-4.79
42,-4.61
43,-4.56
44,-4.33
45,-4.33
46,-4.10
47,-3.87
48,-3.87
49,-3.87
50,-3.65
51,-3.65
52,-3.65
53,-3.65
54,-3.65
55,-3.65
56,-3.87
57,-4.10
58,-4.10
59,-3.87
60,-3.65
61,-3.42
62,-3.19
63,-3.19
64,-3.19
65,-3.19
66,-3.19
67,-3.42
68,-3.74
69,-4.13
70,-4.51
71,-4.79
72,-4.78
73,-4.56
74,-4.33
75,-4.08
76,-3.67
77,-3.24
78,-3.13
79,-2.96
80,-2.74
81,-2.74
82,-2.72
83,-2.40
84,-2.28
85,-2.28
86,-2.28
87,-2.28
88,-2.05
89,-2.05
90,-2.05
91,-2.03
92,-1.82
93,-1.82
94,-1.82
95,-1.82
96,-1.82
97,-1.72
98,-1.60
99,-1.60
100,-1.60
101,-1.60
102,-1.60
104,-1.60
105,-1.60
106,-1.43
107,-1.37
108,-1.37
109,-1.37
110,-1.37
111,-1.37
112,-1.37
113,-1.37
114,-1.37
115,-1.37
117,-1.37
118,-1.37
119,-1.37
120,-1.37
121,-1.37
123,-1.14
124,-1.14
125,-1.14
126,-1.14
128,-1.14
129,-1.14
130,-1.14
131,-1.14
133,-1.14
134,-1.14
135,-1.14
137,-0.91
138,-0.91
140,-0.91
141,-0.91
142,-0.91
144,-0.91
145,-0.91
147,-0.91
148,-0.91
150,-0.91
151,-0.91
153,-0.91
154,-0.91
156,-0.91
157,-0.93
159,-1.14
160,-1.14
162,-1.14
164,-1.14
165,-1.14
167,-1.14
169,-1.14
170,-1.14
172,-1.14
174,-0.92
175,-0.91
177,-0.91
179,-0.91
181,-0.91
183,-0.91
184,-0.91
186,-0.91
188,-0.91
190,-0.91
192,-0.91
194,-0.91
196,-0.91
198,-0.91
200,-0.91
202,-0.91
204,-0.91
206,-0.91
208,-0.91
210,-0.91
212,-0.91
214,-0.91
216,-0.91
218,-0.91
221,-0.91
223,-0.91
225,-0.91
227,-0.91
229,-0.91
232,-0.91
234,-0.91
236,-0.91
239,-0.91
241,-0.91
244,-0.68
246,-0.68
248,-0.68
251,-0.68
253,-0.68
256,-0.68
259,-0.68
261,-0.68
264,-0.68
266,-0.68
269,-0.68
272,-0.68
274,-0.68
277,-0.68
280,-0.68
283,-0.68
286,-0.68
288,-0.68
291,-0.68
294,-0.68
297,-0.68
300,-0.68
303,-0.68
306,-0.68
309,-0.68
312,-0.68
316,-0.68
319,-0.68
322,-0.68
325,-0.68
328,-0.68
332,-0.68
335,-0.68
338,-0.68
342,-0.69
345,-0.91
349,-0.91
352,-0.91
356,-0.91
359,-0.91
363,-0.91
366,-0.91
370,-0.91
374,-0.91
377,-0.91
381,-0.91
385,-0.91
389,-0.91
393,-0.91
397,-0.91
401,-1.00
405,-1.14
409,-1.14
413,-1.14
417,-1.14
421,-1.14
425,-1.17
430,-1.37
434,-1.37
438,-1.37
443,-1.37
447,-1.37
451,-1.37
456,-1.37
460,-1.37
465,-1.25
470,-1.14
474,-1.14
479,-1.14
484,-1.14
489,-1.07
494,-0.91
499,-0.91
504,-0.91
509,-0.91
514,-0.91
519,-0.91
524,-0.84
529,-0.68
535,-0.68
540,-0.68
545,-0.68
551,-0.68
556,-0.68
562,-0.68
568,-0.54
573,-0.46
579,-0.46
585,-0.46
591,-0.46
596,-0.46
602,-0.46
608,-0.46
615,-0.46
621,-0.46
627,-0.23
633,-0.23
639,-0.23
646,-0.23
652,-0.42
659,-0.84
665,-1.20
672,-1.71
679,-1.77
686,-1.50
692,-1.27
699,-1.14
706,-0.97
713,-0.91
721,-0.87
728,-0.68
735,-0.68
742,-0.68
750,-0.68
757,-0.68
765,-0.68
773,-0.46
780,-0.46
788,-0.46
796,-0.46
804,-0.46
812,-0.46
820,-0.46
828,-0.46
837,-0.46
845,-0.46
853,-0.46
862,-0.46
871,-0.46
879,-0.46
888,-0.46
897,-0.36
906,-0.23
915,-0.23
924,-0.23
933,-0.23
943,-0.23
952,-0.17
962,-0.00
971,0.00
981,-0.00
991,-0.00
1001,0.00
1011,-0.00
1021,-0.00
1031,-0.00
1041,-0.00
1052,0.00
1062,-0.00
1073,0.00
1084,0.00
1094,-0.00
1105,-0.00
1116,-0.00
1128,-0.20
1139,-0.23
1150,-0.23
1162,-0.23
1173,-0.23
1185,-0.23
1197,-0.23
1209,-0.23
1221,-0.23
1233,-0.23
1246,-0.23
1258,-0.33
1271,-0.46
1283,-0.46
1296,-0.66
1309,-0.68
1322,-0.68
1335,-0.68
1349,-0.68
1362,-0.68
1376,-0.87
1390,-0.91
1404,-0.91
1418,-0.91
1432,-0.91
1446,-1.04
1461,-1.14
1475,-1.14
1490,-1.14
1505,-1.14
1520,-1.14
1535,-1.14
1550,-1.14
1566,-1.14
1582,-1.14
1597,-1.14
1613,-1.14
1629,-1.14
1646,-1.14
1662,-1.14
1679,-1.14
1696,-1.14
1713,-1.14
1730,-1.08
1747,-0.91
1764,-0.91
1782,-0.75
1800,-0.68
1818,-0.46
1836,-0.42
1854,-0.23
1873,-0.13
1892,0.14
1911,0.23
1930,0.43
1949,0.69
1969,0.91
1988,0.99
2008,1.25
2028,1.37
2048,1.54
2069,1.60
2090,1.84
2111,2.03
2132,2.37
2153,2.51
2175,2.67
2196,2.74
2218,2.96
2240,2.99
2263,3.26
2285,3.51
2308,3.78
2331,3.87
2355,4.08
2378,4.10
2402,4.10
2426,4.10
2450,4.21
2475,4.33
2500,4.33
2525,4.33
2550,4.56
2575,4.56
2601,4.64
2627,4.79
2653,4.94
2680,5.01
2707,5.24
2734,5.27
2761,5.53
2789,5.80
2817,6.06
2845,6.32
2873,6.58
2902,6.73
2931,7.10
2960,7.36
2990,7.63
3020,7.75
3050,8.01
3080,8.30
3111,8.67
3142,8.89
3174,8.97
3206,9.12
3238,9.27
3270,9.34
3303,9.34
3336,9.37
3369,9.57
3403,9.57
3437,9.57
3471,9.57
3506,9.38
3541,9.34
3576,9.08
3612,8.89
3648,8.79
3685,8.66
3721,8.49
3759,8.23
3796,7.97
3834,7.71
3873,7.44
3911,7.18
3950,6.78
3990,6.34
4030,5.72
4070,5.31
4111,4.84
4152,4.49
4193,4.03
4235,3.56
4278,3.03
4321,2.62
4364,2.47
4407,2.21
4451,1.95
4496,1.82
4541,1.99
4586,2.05
4632,2.28
4679,2.28
4725,2.28
4773,2.28
4820,2.28
4868,2.28
4917,2.28
4966,2.05
5016,2.10
5066,2.28
5117,2.16
5168,2.05
5220,1.86
5272,1.60
5325,1.55
5378,1.16
5432,0.71
5486,0.19
5541,-0.33
5596,-0.75
5652,-0.92
5709,-1.18
5766,-1.48
5823,-1.87
5882,-2.20
5940,-2.45
6000,-2.51
6060,-2.74
6120,-2.69
6182,-2.51
6244,-2.27
6306,-1.75
6369,-1.13
6433,-0.36
6497,0.20
6562,0.92
6628,1.59
6694,2.31
6761,2.92
6828,3.37
6897,3.65
6966,3.65
7035,3.47
7106,2.81
7177,2.02
7249,1.10
7321,0.18
7394,-0.62
7468,-1.53
7543,-2.41
7618,-3.19
7694,-3.90
7771,-4.47
7849,-4.99
7928,-5.52
8007,-6.07
8087,-6.68
8168,-7.21
8250,-7.73
8332,-8.06
8415,-8.55
8499,-8.79
8584,-8.96
8670,-9.01
8757,-8.75
8845,-8.32
8933,-7.59
9022,-6.80
9113,-5.65
9204,-4.08
9296,-2.39
9389,-0.63
9483,0.80
9577,1.99
9673,2.80
9770,3.36
9868,2.92
9966,1.95
10066,0.85
10167,-0.30
10268,-1.36
10371,-2.54
10475,-3.72
10579,-4.94
10685,-6.12
10792,-7.34
10900,-8.65
11009,-10.43
11119,-12.40
11230,-14.28
11343,-15.72
11456,-16.62
11571,-16.42
11686,-14.92
11803,-12.96
11921,-10.91
12040,-9.26
12161,-8.06
12282,-7.17
12405,-6.57
12529,-6.16
12655,-6.41
12781,-6.74
12909,-7.21
13038,-7.67
13168,-8.11
13300,-8.40
13433,-8.31
13567,-7.88
13703,-7.26
13840,-6.79
13978,-6.75
14118,-7.01
14259,-7.69
14402,-8.50
14546,-9.52
14692,-10.48
14838,-11.46
14987,-12.39
15137,-13.30
15288,-14.22
15441,-14.91
15595,-15.79
15751,-16.53
15909,-16.61
16068,-15.19
16229,-13.42
16391,-11.84
16555,-10.94
16720,-10.94
16888,-10.94
17056,-10.73
17227,-10.34
17399,-9.84
17573,-9.21
17749,-8.61
17926,-7.70
18106,-6.54
18287,-4.95
18470,-3.16
18654,-1.66
18841,-0.83
19029,-1.20
19220,-1.46
19412,-1.72
19606,-1.66
19802,-1.30
20000,-0.80
