frequency,raw
20,-14.28
21,-13.56
22,-12.77
23,-12.09
24,-11.46
25,-10.86
26,-10.30
27,-9.75
28,-9.27
29,-8.78
30,-8.36
31,-7.87
32,-7.51
33,-7.16
34,-6.83
35,-6.50
36,-6.18
37,-5.87
38,-5.57
39,-5.44
40,-5.20
41,-5.04
42,-4.87
43,-4.87
44,-4.73
45,-4.63
46,-4.55
47,-4.55
48,-4.55
49,-4.55
50,-4.55
51,-4.55
52,-4.55
53,-4.55
54,-4.36
55,-4.22
56,-4.22
57,-4.22
58,-3.90
59,-3.85
60,-3.66
61,-3.57
62,-3.57
63,-3.28
64,-3.25
65,-3.08
66,-2.93
67,-2.90
68,-2.73
69,-2.60
70,-2.56
71,-2.40
72,-2.28
73,-2.28
74,-2.24
75,-1.95
76,-1.95
77,-1.95
78,-1.83
79,-1.69
80,-1.63
81,-1.63
82,-1.63
83,-1.61
84,-1.48
85,-1.34
86,-1.30
87,-1.30
88,-1.28
89,-1.15
90,-1.02
91,-0.98
92,-0.98
93,-0.98
94,-0.98
95,-0.98
96,-0.98
97,-0.98
98,-0.98
99,-0.92
100,-0.81
101,-0.69
102,-0.66
104,-0.66
105,-0.66
106,-0.66
107,-0.66
108,-0.66
109,-0.64
110,-0.54
111,-0.49
112,-0.49
113,-0.40
114,-0.33
115,-0.33
117,-0.33
118,-0.33
119,-0.30
120,-0.21
121,-0.11
123,-0.01
124,-0.01
125,-0.01
126,0.02
128,0.20
129,0.28
130,0.32
131,0.32
133,0.32
134,0.32
135,0.32
137,0.32
138,0.48
140,0.64
141,0.64
142,0.64
144,0.64
145,0.64
147,0.79
148,0.80
150,0.85
151,0.93
153,0.97
154,0.97
156,0.97
157,0.97
159,1.02
160,1.09
162,1.23
164,1.29
165,1.29
167,1.29
169,1.29
170,1.29
172,1.29
174,1.29
175,1.30
177,1.42
179,1.45
181,1.51
183,1.61
184,1.61
186,1.61
188,1.61
190,1.61
192,1.61
194,1.61
196,1.61
198,1.51
200,1.40
202,1.29
204,1.29
206,1.29
208,1.28
210,1.17
212,1.06
214,0.96
216,0.85
218,0.70
221,0.43
223,0.33
225,0.14
227,-0.06
229,-0.25
232,-0.44
234,-0.58
236,-0.77
239,-1.06
241,-1.25
244,-1.55
246,-1.83
248,-2.11
251,-2.49
253,-2.67
256,-2.85
259,-3.03
261,-3.21
264,-3.47
266,-3.57
269,-3.57
272,-3.82
274,-3.90
277,-3.90
280,-3.90
283,-3.90
286,-3.82
288,-3.66
291,-3.57
294,-3.52
297,-3.29
300,-3.25
303,-3.17
306,-2.94
309,-2.93
312,-2.83
316,-2.60
319,-2.60
322,-2.52
325,-2.42
328,-2.31
332,-2.18
335,-2.07
338,-1.97
342,-1.95
345,-1.90
349,-1.77
352,-1.68
356,-1.63
359,-1.61
363,-1.36
366,-1.30
370,-1.28
374,-1.16
377,-1.07
381,-0.98
385,-0.98
389,-0.77
393,-0.66
397,-0.64
401,-0.53
405,-0.42
409,-0.33
413,-0.33
417,-0.25
421,-0.14
425,-0.04
430,-0.01
434,-0.01
438,-0.01
443,0.11
447,0.15
451,0.15
456,0.15
460,0.21
465,0.32
470,0.32
474,0.32
479,0.32
484,0.32
489,0.32
494,0.27
499,0.16
504,0.27
509,0.32
514,0.32
519,0.32
524,0.32
529,0.32
535,0.32
540,0.32
545,0.32
551,0.32
556,0.40
562,0.52
568,0.64
573,0.64
579,0.64
585,0.64
591,0.64
596,0.70
602,0.81
608,0.93
615,0.97
621,0.97
627,0.97
633,0.97
639,0.97
646,0.97
652,0.97
659,0.97
665,0.97
672,0.97
679,0.97
686,0.97
692,0.97
699,0.97
706,0.97
713,0.97
721,0.97
728,0.97
735,0.97
742,0.97
750,0.97
757,0.97
765,0.97
773,0.97
780,0.97
788,0.97
796,0.97
804,0.97
812,0.97
820,0.97
828,0.97
837,0.97
845,0.97
853,0.97
862,0.97
871,0.97
879,0.97
888,0.94
897,0.83
906,0.72
915,0.64
924,0.64
933,0.64
943,0.54
952,0.32
962,0.32
971,0.32
981,0.30
991,0.07
1001,-0.01
1011,-0.03
1021,-0.14
1031,-0.26
1041,-0.33
1052,-0.33
1062,-0.33
1073,-0.43
1084,-0.66
1094,-0.66
1105,-0.66
1116,-0.66
1128,-0.66
1139,-0.81
1150,-0.98
1162,-0.98
1173,-0.98
1185,-1.02
1197,-1.13
1209,-1.24
1221,-1.30
1233,-1.30
1246,-1.30
1258,-1.30
1271,-1.30
1283,-1.30
1296,-1.38
1309,-1.49
1322,-1.60
1335,-1.63
1349,-1.63
1362,-1.63
1376,-1.63
1390,-1.63
1404,-1.63
1418,-1.63
1432,-1.69
1446,-1.80
1461,-1.92
1475,-1.95
1490,-1.95
1505,-1.95
1520,-1.95
1535,-1.95
1550,-1.95
1566,-2.06
1582,-2.17
1597,-2.28
1613,-2.28
1629,-2.28
1646,-2.28
1662,-2.28
1679,-2.28
1696,-2.28
1713,-2.28
1730,-2.28
1747,-2.28
1764,-2.28
1782,-2.28
1800,-2.28
1818,-2.28
1836,-2.28
1854,-2.28
1873,-2.28
1892,-2.28
1911,-2.28
1930,-2.31
1949,-2.42
1969,-2.53
1988,-2.60
2008,-2.60
2028,-2.60
2048,-2.60
2069,-2.60
2090,-2.60
2111,-2.60
2132,-2.60
2153,-2.60
2175,-2.60
2196,-2.60
2218,-2.60
2240,-2.60
2263,-2.60
2285,-2.60
2308,-2.60
2331,-2.60
2355,-2.59
2378,-2.49
2402,-2.37
2426,-2.28
2450,-2.28
2475,-2.28
2500,-2.28
2525,-2.28
2550,-2.28
2575,-2.28
2601,-2.28
2627,-2.28
2653,-2.28
2680,-2.29
2707,-2.52
2734,-2.60
2761,-2.60
2789,-2.60
2817,-2.60
2845,-2.60
2873,-2.60
2902,-2.60
2931,-2.51
2960,-2.29
2990,-2.28
3020,-2.16
3050,-1.95
3080,-1.95
3111,-1.81
3142,-1.61
3174,-1.50
3206,-1.30
3238,-1.07
3270,-0.85
3303,-0.62
3336,-0.40
3369,-0.18
3403,0.05
3437,0.27
3471,0.50
3506,0.72
3541,0.88
3576,1.01
3612,1.23
3648,1.37
3685,1.49
3721,1.60
3759,1.71
3796,1.82
3834,1.94
3873,1.94
3911,1.94
3950,1.95
3990,2.06
4030,2.10
4070,2.10
4111,2.10
4152,2.01
4193,1.94
4235,1.94
4278,1.94
4321,1.84
4364,1.62
4407,1.39
4451,1.23
4496,1.10
4541,0.88
4586,0.66
4632,0.43
4679,0.20
4725,-0.19
4773,-0.57
4820,-0.79
4868,-1.21
4917,-1.57
4966,-1.79
5016,-2.24
5066,-2.63
5117,-2.98
5168,-3.43
5220,-3.88
5272,-4.33
5325,-4.78
5378,-5.23
5432,-5.68
5486,-6.12
5541,-6.57
5596,-6.97
5652,-7.31
5709,-7.53
5766,-7.82
5823,-8.14
5882,-8.37
5940,-8.52
6000,-8.63
6060,-8.74
6120,-8.76
6182,-8.80
6244,-8.92
6306,-9.03
6369,-9.09
6433,-9.09
6497,-9.09
6562,-9.09
6628,-9.09
6694,-9.09
6761,-8.93
6828,-8.76
6897,-8.76
6966,-8.58
7035,-8.40
7106,-8.29
7177,-8.07
7249,-7.85
7321,-7.62
7394,-7.40
7468,-7.17
7543,-6.95
7618,-6.72
7694,-6.50
7771,-6.25
7849,-5.91
7928,-5.57
8007,-5.28
8087,-5.05
8168,-4.83
8250,-4.54
8332,-4.21
8415,-3.87
8499,-3.60
8584,-3.36
8670,-3.02
8757,-2.77
8845,-2.57
8933,-2.46
9022,-2.35
9113,-2.28
9204,-2.28
9296,-2.28
9389,-2.28
9483,-2.28
9577,-2.28
9673,-2.28
9770,-2.28
9868,-2.28
9966,-2.28
10066,-2.31
10167,-2.42
10268,-2.53
10371,-2.69
10475,-2.92
10579,-3.14
10685,-3.42
10792,-3.76
10900,-4.09
11009,-4.43
11119,-4.75
11230,-4.97
11343,-5.20
11456,-5.39
11571,-5.50
11686,-5.71
11803,-5.89
11921,-6.00
12040,-6.22
12161,-6.45
12282,-6.67
12405,-6.90
12529,-7.12
12655,-7.35
12781,-7.57
12909,-7.80
13038,-8.05
13168,-8.39
13300,-8.63
13433,-8.86
13567,-9.08
13703,-9.31
13840,-9.59
13978,-9.92
14118,-10.14
14259,-10.37
14402,-10.64
14546,-11.09
14692,-11.45
14838,-11.85
14987,-12.42
15137,-12.98
15288,-13.59
15441,-14.26
15595,-15.05
15751,-15.77
15909,-16.48
16068,-17.49
16229,-18.36
16391,-19.14
16555,-19.93
16720,-20.63
16888,-21.31
17056,-21.98
17227,-22.36
17399,-22.60
17573,-22.71
17749,-22.71
17926,-22.71
18106,-22.69
18287,-22.46
18470,-22.39
18654,-22.39
18841,-22.39
19029,-22.30
19220,-22.19
19412,-22.07
19606,-21.96
19802,-21.85
20000,-21.74
