frequency,raw
20,2.372064224176227
21,2.9724868950258907
22,3.1892061899685995
23,3.582653230277003
24,3.933578381219114
25,4.352478187014881
26,4.51494949747367
27,4.7784059674260275
28,5.028473055154947
29,5.331613314461517
30,5.516725513857941
31,5.8322398721687545
32,6.036155953746688
33,6.259850124238274
34,6.447946197311089
35,6.620261820756014
36,6.749670335242124
37,6.950819760529479
38,7.068901570412855
39,7.151969185816837
40,7.31611889213512
41,7.5537203430240085
42,7.6850211841357705
43,7.75541746168038
44,7.906442222400578
45,8.03720234562542
46,8.057511716647747
47,8.214165020972334
48,8.2582910247936
49,8.35886573746974
50,8.459440450366145
51,8.459440450908025
52,8.583500973359932
53,8.66058987678541
54,8.66058987500854
55,8.761164583160305
56,8.86173928896448
57,8.861739282929234
58,8.861739284601969
59,8.925407688251036
60,9.062888775097148
61,9.062888848021764
62,9.062888928698817
63,9.062888967945222
64,9.062888884056964
65,9.06288857767288
66,9.062887973027381
67,9.062887088176101
68,9.062886123902041
69,9.062885542817334
70,9.06288609116527
71,9.06288870355247
72,9.062894235372946
73,9.062902998621112
74,9.06291413907107
75,9.062924982459075
76,9.062930577828187
77,9.06292374763578
78,9.062895977043315
79,9.062839400538317
80,9.062749947481372
81,9.062631390157502
82,9.031259833767763
83,8.96181149833987
84,8.966054700486549
85,8.936868591974198
86,8.86155678928328
87,8.862106318682738
88,8.862965198449293
89,8.849254760130478
90,8.764972956716111
91,8.763960931898163
92,8.767854123821163
93,8.768742428601865
94,8.772945856533438
95,8.72813715086875
96,8.573820212861126
97,8.555990482814906
98,8.54894174117538
99,8.537586865167146
100,8.523140760020652
101,8.475078425611525
102,8.364903627646525
104,8.364389744807136
105,8.35880938503505
106,8.290462309718631
107,8.189460430234877
108,8.1660920755616
109,8.078092656898578
110,8.004837394389861
111,8.001696890539522
112,7.99652682811555
113,7.98765082097116
114,7.982347200216758
115,7.98038781000222
117,7.935141984290601
118,7.844041910796199
119,7.860214044482275
120,7.930158098181905
121,7.939288805263624
123,7.810988028876828
124,7.818749491855897
125,7.733667375582096
126,7.6924950794200555
128,7.739313489152762
129,7.77728865796396
130,7.791307373302339
131,7.709227235560839
133,7.576789082088736
134,7.524049191061419
135,7.540696841102999
137,7.571380244725644
138,7.574025925462929
140,7.603326065786332
141,7.61758499867341
142,7.4734887340968905
144,7.336952752137135
145,7.364673136911137
147,7.394319525822345
148,7.2606103581968
150,7.152044238616712
151,7.174963452993044
153,7.175233757683121
154,7.175765403057744
156,7.091772268271372
157,7.0765411696041145
159,6.9260608927595015
160,6.899293787716521
162,6.783449366499371
164,6.608153665643657
165,6.525239115140138
167,6.3726723332131225
169,6.19439149702021
170,6.213984094991575
172,6.222712170863378
174,6.134169214238861
175,6.095042055111994
177,6.025319925264704
179,5.843877516127641
181,5.953347110505634
183,5.791277267406474
184,5.661124891573348
186,5.653179093642507
188,5.563244254677537
190,5.381991474789599
192,5.386400030338002
194,5.300159543142571
196,5.106083005111608
198,5.122172553130487
200,5.074785287408984
202,4.884183734955975
204,4.659312679839061
206,4.460112628213642
208,4.308242194890359
210,4.233331633787376
212,4.1482343920560485
214,4.080110343169718
216,3.897259737914564
218,3.92313877527899
221,3.7037960331386417
223,3.662238933934422
225,3.639683754069609
227,3.631934762021384
229,3.558005932667437
232,3.126672768020042
234,2.917250628357581
236,2.66455982125919
239,2.4426539468809843
241,2.2093039096205764
244,1.8034578172198943
246,1.552007499922083
248,1.3383102931749498
251,1.0944836458569651
253,1.0077612552210302
256,0.7932575649620756
259,0.5776295455600697
261,0.43439673581189864
264,0.26613147785890545
266,0.1994998659315056
269,0.1461222380893994
272,0.03861291012115309
274,-0.011855727010462336
277,-0.036501721266882
280,0.03673549472972848
283,0.08992607312749035
286,0.1794525441713435
288,0.2548588012826568
291,0.3651011665770645
294,0.4640755661344237
297,0.534849886069906
300,0.6747414929010966
303,0.6625377842253146
306,0.6065958405607879
309,0.8305197609855929
312,0.8518289168875545
316,0.7341344145176331
319,1.0249111687487722
322,1.0062157478272118
325,0.8058680017467305
328,1.0561114321300584
332,1.007712789873998
335,0.8945196040187131
338,1.1933807271416748
342,1.155463006921214
345,1.2949727776679865
349,1.2825130742529591
352,1.093221593040976
356,1.0959313651271005
359,1.1166566712123702
363,1.205889923618245
366,1.2123668326959192
370,1.3202947637247067
374,1.0465477573291193
377,1.0544667880222498
381,1.4441218874979787
385,1.450631925943754
389,1.3768388251633419
393,1.1975078241650907
397,1.4470815586578603
401,1.5132682175881664
405,1.3166406705604516
409,1.492458320340094
413,1.6523082195565486
417,1.6505675748123148
421,1.4629865089785727
425,1.5044417594488382
430,1.945735317931268
434,1.92509604790395
438,1.7167246096981361
443,1.7533519169436653
447,1.7983430532142326
451,1.85059640408108
456,2.0071681906051584
460,2.150539656305623
465,1.980735124265339
470,1.9917023263151865
474,2.049022493896307
479,2.1343789459475464
484,2.3091125779955446
489,2.186053242166465
494,2.1229426143175942
499,2.166478218219584
504,2.305938908905452
509,1.9854174690820678
514,1.9114715392037949
519,2.0095889466707932
524,2.1208155300601055
529,2.097230803551684
535,1.8735824484374186
540,1.8427726730058593
545,1.8032251362971425
551,1.699382395716663
556,1.605598684360473
562,1.4573461557620173
568,1.4740428191914705
573,1.4821581875816734
579,1.2384259901188832
585,1.1005023661375295
591,1.0078326881584285
596,0.9804588361466992
602,0.9842691737254077
608,0.9951638478988232
615,1.094537268596349
621,0.8348717247472355
627,0.8508988831456591
633,0.9858595664033526
639,0.8292015475301582
646,0.6759380440652406
652,0.5970616328043661
659,0.524240298711276
665,0.43737611604206234
672,0.33811877281911146
679,0.18919781033690636
686,0.09588970196950658
692,-0.06578283135941579
699,-0.2690946671439478
706,-0.3763618761594918
713,-0.40338775092158685
721,-0.5395252690122856
728,-0.4140227553946958
735,-0.31677938078162404
742,-0.312540602961191
750,-0.3800021855624598
757,-0.2853945154529599
765,-0.08627105881271824
773,-0.030817163331085418
780,-0.08971036244852976
788,0.028536802922913565
796,0.04293793940179014
804,-0.06496410108449523
812,-0.06072090249359724
820,-0.056323392166342245
828,-0.14098522619131945
837,-0.1763573830442858
845,0.04320533693681311
853,0.044750311828648776
862,0.039348920518740615
871,0.03238635122671302
879,0.02451441803999352
888,0.016412476219219888
897,0.00871069014972313
906,0.0019416703335018853
915,-0.0034784749400507686
924,-0.0072437716458086665
933,-0.009134294376165475
943,-0.008983454271255659
952,-0.0066452844201192185
962,-0.001968324066794619
971,-0.18622403958939865
981,-0.12251333553895723
991,0.0681805019724686
1001,-0.007537701489567339
1011,-0.1378026035824669
1021,-0.03418938322043885
1031,0.029624626666828385
1041,-0.1431881301339942
1052,-0.12244991120772816
1062,-0.08294398094017022
1073,0.0023302077898355866
1084,0.1104198312206951
1094,0.02873723600667888
1105,0.006702371239231009
1116,-0.015279172825517384
1128,0.003645476910551282
1139,0.0812714213553879
1150,0.1893223369941507
1162,0.08006734235452806
1173,0.03151812403291965
1185,0.10512456269429216
1197,0.12350085246260645
1209,0.175809179757763
1221,0.2650735281294194
1233,0.19818297552206565
1246,0.23567008352382302
1258,0.28311555134446764
1271,0.2546281506744916
1283,0.3114899906358892
1296,0.3587897072591164
1309,0.4263742992226991
1322,0.4962260304567878
1335,0.5231066346360782
1349,0.5743240228526898
1362,0.682936141249308
1376,0.7703213001255396
1390,0.7717022033644594
1404,0.714964369751129
1418,0.6167753313384852
1432,0.5588445950446661
1446,0.5842211070797254
1461,0.6382624447454623
1475,0.6962665224594438
1490,0.7458918158325174
1505,0.7667024587917606
1520,0.8211552047480977
1535,0.8985202748110641
1550,0.9702712809775704
1566,1.0376920887099566
1582,1.102123979704901
1597,1.1648770961094073
1613,1.2271632547186977
1629,1.2900572029468114
1646,1.4550621256882934
1662,1.5418153105475856
1679,1.6921976132388874
1696,1.7656596857127287
1713,1.843382284006374
1730,1.9259308708659741
1747,2.013827467824247
1764,2.107514227768527
1782,2.207300279287936
1800,2.313302004845016
1818,2.4253894347234866
1836,2.470258887602826
1854,2.565317010955579
1873,2.6920835492774247
1892,2.821739044141994
1911,2.8972127787083854
1930,2.9842706019807874
1949,3.114883772045908
1969,3.2455872858198376
1988,3.3740350844119895
2008,3.50104370593958
2028,3.6272295870024056
2048,3.753662504742076
2069,3.8817930819603115
2090,4.113917451053458
2111,4.250742493989432
2132,4.394686365835923
2153,4.547434464841406
2175,4.710384480442116
2196,4.884542185077514
2218,5.070448712752805
2240,5.268141271289245
2263,5.403689735818471
2285,5.498573873967979
2308,5.522484493668532
2331,5.701297862318471
2355,5.8431958153402555
2378,5.9453205709907095
2402,6.096161517212771
2426,6.196596416152781
2450,6.244401578685405
2475,6.349906233497229
2500,6.481591062331347
2525,6.525435263430641
2550,6.715849716693052
2575,6.926008758263553
2601,7.027512645771061
2627,7.165963927819055
2653,7.302034540946263
2680,7.5261026697151525
2707,7.606988444018588
2734,7.633937455846787
2761,7.6550101324271065
2789,7.679650746805962
2817,7.730611518644695
2845,7.742970258733285
2873,7.7349495540722835
2902,7.917650258874815
2931,7.9958788638513045
2960,8.068958674319074
2990,8.107512049876826
3020,8.13719416387565
3050,8.227850552971713
3080,8.31595799014757
3111,8.285571368025018
3142,8.339382014684956
3174,8.390781020567562
3206,8.527090772133853
3238,8.540652686329983
3270,8.40278629515303
3303,8.388029526150111
3336,8.280644072185762
3369,8.00972608963372
3403,7.752214551903247
3437,7.454245113165509
3471,7.106705223875528
3506,6.804842499839378
3541,6.623744324870811
3576,6.388775382915151
3612,5.906310822943087
3648,5.610113604293396
3685,5.181984305709536
3721,4.556973393855607
3759,4.1067367021751
3796,3.444733222164171
3834,2.6264362965129475
3873,2.1529618131358834
3911,1.4347250827931592
3950,0.9218825097451369
3990,0.5057201644373457
4030,-0.10475887418498608
4070,-1.0002130538730327
4111,-1.902037281821496
4152,-2.703715393014809
4193,-3.3157534102642465
4235,-4.081764763496306
4278,-4.729856475674293
4321,-5.182280260751684
4364,-5.643471248435581
4407,-5.028273000872815
4451,-4.302918928799009
4496,-2.952327978333754
4541,-1.324491806367046
4586,-0.10882655233293903
4632,1.1792680259865698
4679,3.3069414992234396
4725,4.316483848999063
4773,5.97199173444505
4820,6.734053083603211
4868,7.249127090938515
4917,7.6221622244475284
4966,7.208558838727589
5016,6.532584269726829
5066,5.7443239859665205
5117,5.054779463671272
5168,3.9125145418077985
5220,3.006881908995002
5272,2.394313488767782
5325,1.5599878612189713
5378,0.6990338391881838
5432,0.204707045177571
5486,-0.34500161363803983
5541,-1.018482570468171
5596,-1.4019680197913367
5652,-1.8227438978554122
5709,-2.229555976898059
5766,-2.4053131619087935
5823,-2.6862955654373746
5882,-3.121496430917105
5940,-3.4919489263326113
6000,-3.7181224764698797
6060,-3.86278842765568
6120,-4.168935819755884
6182,-4.193568022952961
6244,-4.2337519733988405
6306,-4.389039280702477
6369,-4.459513837992706
6433,-4.627721908635488
6497,-4.6523708545043085
6562,-4.698896605813699
6628,-4.8674808773342395
6694,-4.838098118457927
6761,-4.488837211457299
6828,-4.267273114642932
6897,-4.29118759153018
6966,-4.578294554588046
7035,-4.299019627910858
7106,-4.084622821092537
7177,-3.915452896705972
7249,-3.4326208279125234
7321,-3.1547606002995066
7394,-2.993718282755572
7468,-2.4586787659714986
7543,-2.091208276774247
7618,-1.9951007318002318
7694,-1.8036028174934966
7771,-1.6367224992275125
7849,-1.5793734288934322
7928,-1.4271499606483324
8007,-1.3830561995606487
8087,-1.298996021782573
8168,-1.47062171483085
8250,-1.4085599973510305
8332,-1.9516628722784581
8415,-2.475395915858046
8499,-3.155978159870304
8584,-3.4816264245935464
8670,-3.6975562981798324
8757,-3.5690141310747743
8845,-3.087320443943306
8933,-2.9618736391335805
9022,-2.8365316183827467
9113,-3.321450133476686
9204,-3.8526793602555953
9296,-3.8982626859510265
9389,-4.001426307991449
9483,-3.8044311557247514
9577,-3.496879062114645
9673,-3.1383255461013366
9770,-2.799737043622735
9868,-2.9062458434048954
9966,-2.999842506293077
10066,-3.17247298255299
10167,-2.77906474157155
10268,-2.985511130672881
10371,-3.3752086666537746
10475,-3.3049932211104966
10579,-3.099893579810537
10685,-2.86479245870167
10792,-2.2852813092309487
10900,-2.201973079781901
11009,-2.420134826070033
11119,-2.944533708429562
11230,-3.382273948186411
11343,-3.9270977938203036
11456,-4.013525432904425
11571,-4.067517316973147
11686,-3.9854592985402757
11803,-4.358392402239025
11921,-5.073309233117094
12040,-5.8897600292131305
12161,-6.731861103353779
12282,-7.813051261331067
12405,-9.285748583232253
12529,-10.723734932184437
12655,-12.197216480032424
12781,-14.929334450211726
12909,-16.298640698583803
13038,-18.450342067565792
13168,-18.23121740032705
13300,-18.394254529561312
13433,-17.90653179112317
13567,-17.23135963446748
13703,-16.299718286995144
13840,-16.111647206380578
13978,-14.456529335995397
14118,-13.184211563588939
14259,-12.475974328324455
14402,-11.776094599083118
14546,-11.279675222393578
14692,-10.809161904781522
14838,-10.47095933157339
14987,-10.936053928676479
15137,-12.049076648361323
15288,-13.080077726908671
15441,-14.68338662444383
15595,-16.774276903611405
15751,-16.913358402200387
15909,-13.059789832774486
16068,-14.08730142204287
16229,-16.503874194463073
16391,-17.170960672298627
16555,-17.11004017396627
16720,-13.68339205005504
16888,-12.58737367304914
17056,-12.234717301639357
17227,-13.263584520179911
17399,-13.978565506421681
17573,-14.501291928619011
17749,-13.542923549220781
17926,-11.949350143262023
18106,-10.820589047039027
18287,-9.463475190370739
18470,-8.463092596797646
18654,-8.126253260362311
18841,-8.622177695734637
19029,-9.500051425020297
19220,-9.701488194928176
19412,-10.321622697121006
19606,-10.708842278716434
19802,-11.599185174943441
20000,-12.347106689230497
