frequency,raw,smoothed,error,error_smoothed,equalization,parametric_eq,fixed_band_eq,equalized_raw,equalized_smoothed,target
20.00,-4.87,-4.87,-6.51,-6.51,6.00,4.43,2.07,1.13,1.13,1.64
20.20,-4.81,-4.82,-6.50,-6.50,6.00,4.43,2.13,1.19,1.18,1.69
20.40,-4.75,-4.76,-6.49,-6.49,6.00,4.43,2.19,1.25,1.24,1.74
20.61,-4.70,-4.69,-6.46,-6.47,6.00,4.43,2.25,1.30,1.31,1.77
20.81,-4.63,-4.63,-6.45,-6.45,6.00,4.43,2.32,1.37,1.37,1.82
21.02,-4.56,-4.57,-6.42,-6.42,6.00,4.43,2.39,1.44,1.43,1.86
21.23,-4.50,-4.50,-6.38,-6.38,6.00,4.42,2.45,1.50,1.50,1.88
21.44,-4.43,-4.43,-6.33,-6.33,6.00,4.42,2.53,1.57,1.57,1.90
21.66,-4.37,-4.37,-6.28,-6.28,6.00,4.42,2.60,1.63,1.63,1.91
21.87,-4.30,-4.30,-6.23,-6.23,6.00,4.42,2.67,1.70,1.70,1.92
22.09,-4.24,-4.25,-6.19,-6.19,6.00,4.42,2.75,1.76,1.75,1.94
22.31,-4.21,-4.21,-6.17,-6.16,6.01,4.42,2.83,1.79,1.80,1.95
22.54,-4.18,-4.17,-6.13,-6.12,6.01,4.42,2.91,1.83,1.84,1.95
22.76,-4.13,-4.14,-6.09,-6.08,6.01,4.42,3.00,1.87,1.87,1.95
22.99,-4.09,-4.10,-6.04,-6.04,6.00,4.42,3.08,1.91,1.91,1.94
23.22,-4.06,-4.06,-6.00,-6.00,5.99,4.42,3.17,1.92,1.93,1.94
23.45,-4.02,-4.03,-5.96,-5.97,5.96,4.41,3.26,1.94,1.93,1.94
23.69,-3.99,-4.00,-5.94,-5.94,5.92,4.41,3.35,1.93,1.93,1.95
23.92,-3.95,-3.95,-5.90,-5.90,5.87,4.41,3.44,1.92,1.93,1.95
24.16,-3.88,-3.88,-5.84,-5.83,5.81,4.41,3.54,1.93,1.93,1.96
24.40,-3.78,-3.79,-5.75,-5.75,5.74,4.41,3.63,1.96,1.95,1.97
24.65,-3.70,-3.69,-5.65,-5.65,5.67,4.41,3.73,1.97,1.97,1.96
24.89,-3.60,-3.61,-5.56,-5.56,5.59,4.41,3.83,1.99,1.98,1.95
25.14,-3.53,-3.54,-5.49,-5.50,5.52,4.40,3.93,1.98,1.98,1.95
25.39,-3.48,-3.48,-5.45,-5.44,5.45,4.40,4.03,1.97,1.97,1.96
25.65,-3.44,-3.44,-5.41,-5.40,5.39,4.40,4.13,1.95,1.96,1.96
25.91,-3.40,-3.40,-5.35,-5.35,5.35,4.40,4.23,1.95,1.95,1.95
26.16,-3.35,-3.36,-5.30,-5.31,5.31,4.40,4.33,1.96,1.95,1.95
26.43,-3.32,-3.32,-5.27,-5.27,5.28,4.39,4.43,1.95,1.96,1.95
26.69,-3.29,-3.29,-5.24,-5.24,5.25,4.39,4.53,1.96,1.96,1.95
26.96,-3.26,-3.27,-5.22,-5.22,5.22,4.39,4.63,1.96,1.95,1.96
27.23,-3.24,-3.24,-5.20,-5.19,5.19,4.38,4.73,1.94,1.95,1.95
27.50,-3.21,-3.22,-5.17,-5.17,5.15,4.38,4.82,1.94,1.93,1.95
27.77,-3.18,-3.19,-5.13,-5.13,5.11,4.38,4.91,1.92,1.92,1.94
28.05,-3.15,-3.14,-5.09,-5.08,5.06,4.38,5.00,1.91,1.92,1.94
28.33,-3.08,-3.08,-5.01,-5.02,5.01,4.37,5.08,1.92,1.92,1.93
28.62,-3.02,-3.02,-4.94,-4.95,4.95,4.37,5.16,1.94,1.94,1.93
28.90,-2.94,-2.95,-4.88,-4.88,4.90,4.36,5.24,1.95,1.95,1.94
29.19,-2.89,-2.89,-4.82,-4.83,4.84,4.36,5.31,1.95,1.95,1.92
29.48,-2.84,-2.84,-4.79,-4.78,4.79,4.36,5.37,1.95,1.95,1.94
29.78,-2.80,-2.80,-4.73,-4.73,4.74,4.35,5.42,1.94,1.94,1.93
30.08,-2.76,-2.76,-4.69,-4.69,4.69,4.35,5.47,1.94,1.93,1.94
30.38,-2.72,-2.73,-4.65,-4.66,4.65,4.34,5.52,1.92,1.92,1.93
30.68,-2.69,-2.70,-4.62,-4.62,4.60,4.34,5.55,1.91,1.90,1.92
30.99,-2.66,-2.66,-4.59,-4.58,4.56,4.33,5.58,1.89,1.90,1.92
31.30,-2.61,-2.60,-4.53,-4.52,4.52,4.32,5.60,1.91,1.92,1.92
31.61,-2.53,-2.54,-4.45,-4.45,4.48,4.32,5.61,1.94,1.94,1.92
31.93,-2.48,-2.49,-4.39,-4.40,4.44,4.31,5.61,1.96,1.95,1.92
32.24,-2.45,-2.46,-4.36,-4.37,4.39,4.30,5.61,1.94,1.93,1.90
32.57,-2.45,-2.45,-4.36,-4.36,4.35,4.30,5.60,1.89,1.89,1.91
32.89,-2.45,-2.44,-4.36,-4.35,4.30,4.29,5.58,1.85,1.86,1.91
33.22,-2.41,-2.40,-4.31,-4.30,4.26,4.28,5.56,1.85,1.86,1.90
33.55,-2.34,-2.35,-4.24,-4.24,4.23,4.27,5.53,1.89,1.89,1.89
33.89,-2.27,-2.29,-4.15,-4.18,4.21,4.26,5.49,1.93,1.92,1.88
34.23,-2.25,-2.26,-4.14,-4.14,4.18,4.25,5.45,1.93,1.92,1.89
34.57,-2.25,-2.25,-4.13,-4.12,4.16,4.24,5.40,1.90,1.91,1.87
34.92,-2.25,-2.25,-4.12,-4.12,4.13,4.23,5.36,1.88,1.88,1.87
35.27,-2.25,-2.26,-4.12,-4.13,4.10,4.21,5.30,1.85,1.84,1.87
35.62,-2.25,-2.26,-4.12,-4.12,4.08,4.20,5.25,1.82,1.82,1.86
35.97,-2.25,-2.23,-4.11,-4.10,4.06,4.19,5.19,1.80,1.83,1.86
36.33,-2.18,-2.18,-4.05,-4.04,4.03,4.17,5.13,1.85,1.85,1.87
36.70,-2.12,-2.12,-3.97,-3.98,4.00,4.16,5.07,1.89,1.88,1.85
37.06,-2.05,-2.08,-3.90,-3.93,3.96,4.14,5.01,1.91,1.89,1.85
37.43,-2.05,-2.06,-3.92,-3.91,3.92,4.12,4.95,1.86,1.86,1.86
37.81,-2.05,-2.04,-3.91,-3.90,3.88,4.10,4.88,1.82,1.84,1.86
38.19,-2.01,-2.00,-3.87,-3.86,3.84,4.08,4.82,1.82,1.84,1.85
38.57,-1.94,-1.94,-3.80,-3.80,3.80,4.06,4.76,1.86,1.86,1.86
38.95,-1.86,-1.89,-3.73,-3.75,3.77,4.04,4.71,1.90,1.88,1.87
39.34,-1.85,-1.86,-3.71,-3.72,3.74,4.01,4.65,1.88,1.88,1.86
39.74,-1.85,-1.85,-3.71,-3.71,3.70,3.99,4.59,1.85,1.86,1.86
40.14,-1.84,-1.83,-3.70,-3.69,3.67,3.96,4.54,1.83,1.84,1.86
40.54,-1.80,-1.80,-3.66,-3.66,3.65,3.93,4.49,1.84,1.85,1.85
40.94,-1.76,-1.78,-3.61,-3.62,3.63,3.90,4.44,1.87,1.86,1.85
41.35,-1.75,-1.76,-3.60,-3.60,3.62,3.87,4.40,1.87,1.87,1.84
41.76,-1.75,-1.75,-3.59,-3.59,3.61,3.84,4.36,1.85,1.86,1.84
42.18,-1.75,-1.76,-3.59,-3.59,3.59,3.80,4.32,1.84,1.84,1.84
42.60,-1.75,-1.76,-3.58,-3.58,3.57,3.77,4.28,1.81,1.81,1.82
43.03,-1.75,-1.75,-3.57,-3.57,3.54,3.73,4.25,1.78,1.79,1.82
43.46,-1.73,-1.74,-3.54,-3.54,3.51,3.69,4.22,1.77,1.77,1.81
43.90,-1.71,-1.71,-3.50,-3.49,3.47,3.64,4.19,1.75,1.76,1.78
44.33,-1.66,-1.66,-3.43,-3.42,3.43,3.60,4.16,1.76,1.77,1.76
44.78,-1.60,-1.62,-3.35,-3.36,3.38,3.56,4.14,1.78,1.77,1.75
45.23,-1.57,-1.58,-3.31,-3.31,3.34,3.51,4.13,1.76,1.76,1.74
45.68,-1.56,-1.56,-3.28,-3.28,3.30,3.47,4.11,1.74,1.74,1.72
46.13,-1.55,-1.56,-3.25,-3.26,3.27,3.42,4.10,1.72,1.72,1.70
46.60,-1.55,-1.55,-3.25,-3.25,3.25,3.38,4.09,1.69,1.69,1.70
47.06,-1.55,-1.55,-3.23,-3.24,3.23,3.33,4.09,1.68,1.68,1.68
47.53,-1.55,-1.55,-3.22,-3.23,3.22,3.29,4.08,1.66,1.66,1.67
48.01,-1.55,-1.55,-3.22,-3.22,3.20,3.25,4.08,1.65,1.65,1.67
48.49,-1.55,-1.55,-3.20,-3.20,3.19,3.22,4.09,1.64,1.64,1.65
48.97,-1.55,-1.55,-3.18,-3.18,3.18,3.19,4.09,1.62,1.62,1.63
49.46,-1.55,-1.55,-3.16,-3.16,3.16,3.16,4.10,1.60,1.60,1.61
49.96,-1.55,-1.55,-3.14,-3.14,3.15,3.14,4.11,1.59,1.59,1.59
50.46,-1.55,-1.55,-3.14,-3.13,3.14,3.13,4.13,1.58,1.59,1.58
50.96,-1.55,-1.56,-3.12,-3.13,3.14,3.12,4.14,1.58,1.57,1.57
51.47,-1.58,-1.59,-3.13,-3.14,3.15,3.12,4.16,1.56,1.56,1.55
51.99,-1.62,-1.61,-3.16,-3.15,3.17,3.13,4.17,1.54,1.56,1.53
52.51,-1.64,-1.65,-3.17,-3.17,3.19,3.14,4.19,1.55,1.55,1.53
53.03,-1.67,-1.70,-3.20,-3.22,3.23,3.16,4.21,1.55,1.52,1.53
53.56,-1.77,-1.77,-3.29,-3.28,3.26,3.19,4.24,1.49,1.50,1.51
54.10,-1.85,-1.82,-3.35,-3.32,3.30,3.23,4.26,1.45,1.48,1.50
54.64,-1.86,-1.87,-3.34,-3.35,3.34,3.27,4.28,1.48,1.47,1.48
55.18,-1.88,-1.91,-3.36,-3.38,3.37,3.32,4.30,1.49,1.47,1.47
55.74,-1.95,-1.95,-3.41,-3.41,3.40,3.38,4.32,1.45,1.45,1.46
56.29,-2.00,-2.00,-3.45,-3.44,3.43,3.43,4.34,1.42,1.43,1.45
56.86,-2.04,-2.03,-3.47,-3.46,3.45,3.49,4.36,1.41,1.42,1.43
57.42,-2.06,-2.06,-3.47,-3.47,3.48,3.56,4.38,1.41,1.42,1.40
58.00,-2.07,-2.10,-3.47,-3.49,3.51,3.62,4.40,1.44,1.41,1.39
58.58,-2.16,-2.16,-3.55,-3.53,3.56,3.69,4.41,1.39,1.40,1.38
59.16,-2.25,-2.23,-3.61,-3.59,3.61,3.75,4.42,1.37,1.38,1.36
59.76,-2.31,-2.33,-3.65,-3.66,3.67,3.82,4.43,1.36,1.34,1.34
60.35,-2.43,-2.43,-3.72,-3.73,3.73,3.89,4.44,1.31,1.31,1.30
60.96,-2.55,-2.55,-3.82,-3.81,3.80,3.96,4.44,1.25,1.25,1.27
61.57,-2.67,-2.68,-3.90,-3.90,3.87,4.03,4.44,1.20,1.19,1.22
62.18,-2.79,-2.79,-3.97,-3.97,3.94,4.10,4.44,1.14,1.15,1.18
62.80,-2.90,-2.88,-4.03,-4.02,4.01,4.17,4.43,1.11,1.12,1.13
63.43,-2.97,-2.98,-4.06,-4.06,4.07,4.24,4.43,1.10,1.10,1.09
64.07,-3.05,-3.08,-4.10,-4.12,4.14,4.30,4.41,1.08,1.06,1.04
64.71,-3.20,-3.20,-4.20,-4.20,4.21,4.37,4.40,1.01,1.01,1.00
65.35,-3.35,-3.33,-4.30,-4.29,4.29,4.44,4.38,0.94,0.96,0.96
66.01,-3.46,-3.47,-4.38,-4.38,4.38,4.51,4.36,0.92,0.92,0.91
66.67,-3.59,-3.60,-4.46,-4.47,4.49,4.58,4.34,0.89,0.88,0.86
67.33,-3.76,-3.76,-4.57,-4.57,4.61,4.65,4.31,0.85,0.85,0.81
68.01,-3.93,-3.92,-4.71,-4.69,4.72,4.72,4.29,0.79,0.80,0.77
68.69,-4.10,-4.12,-4.83,-4.84,4.84,4.79,4.26,0.73,0.72,0.72
69.37,-4.30,-4.31,-4.97,-4.98,4.95,4.86,4.23,0.65,0.64,0.67
70.07,-4.51,-4.47,-5.13,-5.09,5.05,4.92,4.20,0.53,0.58,0.62
70.77,-4.59,-4.60,-5.17,-5.17,5.14,4.99,4.16,0.55,0.54,0.57
71.48,-4.68,-4.70,-5.20,-5.21,5.22,5.05,4.13,0.53,0.52,0.52
72.19,-4.78,-4.79,-5.24,-5.24,5.27,5.12,4.10,0.49,0.49,0.45
72.91,-4.89,-4.89,-5.28,-5.29,5.30,5.17,4.06,0.42,0.41,0.40
73.64,-4.99,-4.99,-5.33,-5.33,5.31,5.23,4.03,0.32,0.32,0.34
74.38,-5.07,-5.06,-5.36,-5.34,5.30,5.27,4.00,0.23,0.24,0.28
75.12,-5.11,-5.10,-5.34,-5.32,5.29,5.31,3.97,0.17,0.19,0.22
75.87,-5.09,-5.11,-5.26,-5.28,5.27,5.34,3.94,0.17,0.16,0.16
76.63,-5.11,-5.13,-5.23,-5.24,5.25,5.37,3.91,0.14,0.12,0.11
77.40,-5.15,-5.13,-5.22,-5.19,5.24,5.38,3.88,0.08,0.11,0.06
78.17,-5.18,-5.17,-5.19,-5.18,5.23,5.39,3.85,0.04,0.06,0.00
78.95,-5.16,-5.24,-5.12,-5.20,5.23,5.39,3.83,0.07,-0.01,-0.03
79.74,-5.35,-5.31,-5.27,-5.23,5.24,5.38,3.81,-0.11,-0.07,-0.08
80.54,-5.43,-5.40,-5.31,-5.27,5.26,5.36,3.79,-0.17,-0.14,-0.13
81.35,-5.46,-5.49,-5.28,-5.31,5.28,5.34,3.77,-0.18,-0.21,-0.18
82.16,-5.53,-5.54,-5.31,-5.32,5.30,5.31,3.76,-0.23,-0.24,-0.23
82.98,-5.61,-5.61,-5.35,-5.34,5.32,5.28,3.74,-0.30,-0.29,-0.27
83.81,-5.66,-5.67,-5.34,-5.35,5.33,5.24,3.73,-0.34,-0.34,-0.32
84.65,-5.72,-5.68,-5.35,-5.32,5.33,5.20,3.73,-0.40,-0.36,-0.37
85.50,-5.68,-5.70,-5.28,-5.29,5.31,5.16,3.72,-0.38,-0.39,-0.41
86.35,-5.67,-5.73,-5.22,-5.27,5.28,5.12,3.72,-0.39,-0.45,-0.46
87.22,-5.79,-5.76,-5.29,-5.25,5.25,5.08,3.72,-0.55,-0.51,-0.51
88.09,-5.83,-5.80,-5.28,-5.24,5.21,5.04,3.73,-0.62,-0.59,-0.56
88.97,-5.77,-5.80,-5.17,-5.19,5.17,5.00,3.74,-0.60,-0.63,-0.61
89.86,-5.77,-5.76,-5.11,-5.10,5.13,4.96,3.74,-0.65,-0.63,-0.66
90.76,-5.73,-5.76,-5.02,-5.05,5.07,4.93,3.76,-0.66,-0.68,-0.71
91.66,-5.76,-5.80,-5.00,-5.04,5.02,4.89,3.77,-0.73,-0.78,-0.76
92.58,-5.87,-5.81,-5.06,-4.99,4.97,4.86,3.79,-0.90,-0.84,-0.82
93.51,-5.83,-5.79,-4.97,-4.93,4.93,4.82,3.81,-0.91,-0.87,-0.86
94.44,-5.70,-5.78,-4.80,-4.87,4.89,4.79,3.84,-0.82,-0.90,-0.91
95.39,-5.74,-5.77,-4.79,-4.81,4.85,4.76,3.86,-0.89,-0.92,-0.95
96.34,-5.85,-5.79,-4.85,-4.79,4.82,4.74,3.89,-1.03,-0.97,-1.01
97.30,-5.83,-5.86,-4.78,-4.81,4.79,4.71,3.92,-1.04,-1.06,-1.05
98.28,-5.85,-5.90,-4.76,-4.80,4.78,4.68,3.96,-1.08,-1.12,-1.10
99.26,-5.96,-5.90,-4.82,-4.76,4.76,4.66,3.99,-1.20,-1.14,-1.14
100.25,-5.92,-5.92,-4.74,-4.73,4.75,4.64,4.03,-1.18,-1.17,-1.19
101.25,-5.87,-5.93,-4.64,-4.69,4.72,4.61,4.07,-1.16,-1.21,-1.23
102.27,-5.94,-5.95,-4.66,-4.67,4.66,4.59,4.10,-1.28,-1.29,-1.28
103.29,-6.00,-6.00,-4.67,-4.67,4.59,4.57,4.14,-1.41,-1.40,-1.34
104.32,-6.03,-5.98,-4.66,-4.61,4.51,4.54,4.18,-1.52,-1.47,-1.37
105.37,-5.91,-5.89,-4.50,-4.48,4.44,4.52,4.22,-1.48,-1.46,-1.42
106.42,-5.73,-5.78,-4.27,-4.31,4.36,4.50,4.26,-1.37,-1.42,-1.46
107.48,-5.68,-5.71,-4.16,-4.19,4.29,4.48,4.30,-1.39,-1.41,-1.52
108.56,-5.70,-5.71,-4.13,-4.13,4.23,4.45,4.34,-1.48,-1.48,-1.58
109.64,-5.78,-5.76,-4.16,-4.14,4.17,4.43,4.38,-1.62,-1.59,-1.62
110.74,-5.81,-5.81,-4.14,-4.13,4.12,4.40,4.41,-1.69,-1.69,-1.68
111.85,-5.83,-5.84,-4.12,-4.12,4.08,4.37,4.44,-1.75,-1.76,-1.71
112.97,-5.84,-5.85,-4.06,-4.08,4.05,4.34,4.47,-1.80,-1.81,-1.78
114.10,-5.85,-5.85,-4.03,-4.03,3.99,4.31,4.50,-1.86,-1.86,-1.83
115.24,-5.83,-5.82,-3.96,-3.94,3.91,4.28,4.52,-1.92,-1.91,-1.87
116.39,-5.76,-5.76,-3.84,-3.84,3.79,4.24,4.54,-1.97,-1.97,-1.92
117.55,-5.65,-5.70,-3.70,-3.74,3.65,4.21,4.55,-2.00,-2.05,-1.96
118.73,-5.59,-5.57,-3.59,-3.57,3.51,4.17,4.56,-2.08,-2.06,-2.00
119.92,-5.51,-5.42,-3.49,-3.39,3.38,4.13,4.56,-2.13,-2.04,-2.03
121.12,-5.18,-5.28,-3.11,-3.21,3.29,4.08,4.55,-1.89,-1.99,-2.07
122.33,-5.20,-5.20,-3.10,-3.11,3.25,4.04,4.54,-1.95,-1.95,-2.10
123.55,-5.21,-5.23,-3.09,-3.10,3.26,3.99,4.52,-1.95,-1.96,-2.12
124.79,-5.38,-5.35,-3.23,-3.19,3.32,3.93,4.50,-2.06,-2.03,-2.15
126.03,-5.50,-5.49,-3.32,-3.31,3.40,3.88,4.47,-2.11,-2.10,-2.18
127.29,-5.65,-5.73,-3.44,-3.52,3.48,3.82,4.43,-2.16,-2.25,-2.20
128.57,-5.95,-5.97,-3.71,-3.73,3.55,3.76,4.39,-2.41,-2.43,-2.24
129.85,-6.22,-6.09,-3.95,-3.82,3.59,3.70,4.33,-2.64,-2.51,-2.27
131.15,-6.13,-6.05,-3.83,-3.75,3.58,3.63,4.28,-2.55,-2.47,-2.30
132.46,-5.79,-5.95,-3.47,-3.62,3.55,3.57,4.21,-2.24,-2.40,-2.33
133.79,-5.71,-5.77,-3.36,-3.41,3.52,3.50,4.14,-2.20,-2.25,-2.35
135.12,-5.85,-5.64,-3.46,-3.25,3.47,3.42,4.07,-2.38,-2.16,-2.39
136.48,-5.48,-5.61,-3.07,-3.20,3.41,3.35,3.99,-2.06,-2.20,-2.41
137.84,-5.55,-5.63,-3.11,-3.18,3.33,3.27,3.90,-2.23,-2.30,-2.44
139.22,-5.75,-5.70,-3.28,-3.23,3.22,3.19,3.82,-2.54,-2.48,-2.47
140.61,-5.84,-5.87,-3.34,-3.37,3.10,3.10,3.72,-2.75,-2.77,-2.51
142.02,-5.88,-5.82,-3.37,-3.30,2.97,3.02,3.63,-2.92,-2.85,-2.52
143.44,-5.70,-5.58,-3.16,-3.03,2.82,2.93,3.53,-2.88,-2.76,-2.55
144.87,-5.13,-5.25,-2.54,-2.66,2.67,2.85,3.42,-2.46,-2.57,-2.59
146.32,-4.91,-4.93,-2.29,-2.31,2.54,2.76,3.32,-2.38,-2.39,-2.63
147.78,-4.76,-4.81,-2.11,-2.14,2.43,2.67,3.21,-2.34,-2.38,-2.66
149.26,-4.87,-4.90,-2.17,-2.19,2.34,2.58,3.11,-2.53,-2.55,-2.71
150.75,-5.10,-5.01,-2.33,-2.24,2.30,2.48,3.00,-2.80,-2.71,-2.77
152.26,-5.21,-5.19,-2.37,-2.36,2.35,2.39,2.89,-2.87,-2.85,-2.84
153.78,-5.31,-5.44,-2.40,-2.53,2.47,2.30,2.78,-2.83,-2.97,-2.91
155.32,-5.69,-5.71,-2.72,-2.73,2.63,2.20,2.67,-3.06,-3.08,-2.98
156.88,-6.03,-5.81,-2.98,-2.75,2.78,2.11,2.56,-3.25,-3.03,-3.05
158.44,-6.00,-5.95,-2.87,-2.81,2.89,2.01,2.45,-3.12,-3.06,-3.14
160.03,-5.70,-6.14,-2.49,-2.93,2.94,1.92,2.34,-2.77,-3.21,-3.22
161.63,-6.52,-6.38,-3.23,-3.09,2.93,1.83,2.23,-3.60,-3.45,-3.29
163.24,-6.80,-6.59,-3.45,-3.24,2.85,1.73,2.12,-3.96,-3.75,-3.35
164.88,-6.60,-6.64,-3.20,-3.24,2.70,1.64,2.01,-3.91,-3.94,-3.40
166.53,-6.27,-6.31,-2.82,-2.86,2.49,1.55,1.91,-3.77,-3.82,-3.45
168.19,-5.90,-5.91,-2.42,-2.42,2.26,1.45,1.80,-3.64,-3.65,-3.49
169.87,-5.54,-5.52,-2.02,-2.00,1.99,1.36,1.69,-3.55,-3.52,-3.53
171.57,-5.15,-5.20,-1.61,-1.65,1.72,1.27,1.59,-3.44,-3.48,-3.54
173.29,-4.88,-4.91,-1.33,-1.35,1.46,1.18,1.48,-3.43,-3.45,-3.56
175.02,-4.76,-4.69,-1.20,-1.12,1.24,1.09,1.38,-3.52,-3.45,-3.56
176.77,-4.50,-4.57,-0.93,-1.00,1.06,1.01,1.28,-3.45,-3.52,-3.58
178.54,-4.45,-4.49,-0.87,-0.91,0.90,0.92,1.18,-3.56,-3.59,-3.58
180.32,-4.47,-4.37,-0.90,-0.79,0.75,0.84,1.08,-3.72,-3.61,-3.58
182.13,-4.27,-4.29,-0.71,-0.72,0.63,0.75,0.98,-3.64,-3.66,-3.57
183.95,-4.08,-4.18,-0.50,-0.61,0.53,0.67,0.88,-3.55,-3.65,-3.58
185.79,-4.12,-4.02,-0.54,-0.43,0.45,0.59,0.78,-3.68,-3.57,-3.58
187.65,-3.91,-3.89,-0.31,-0.29,0.35,0.51,0.69,-3.56,-3.54,-3.60
189.52,-3.69,-3.81,-0.08,-0.19,0.25,0.43,0.59,-3.44,-3.56,-3.61
191.42,-3.74,-3.74,-0.11,-0.11,0.14,0.36,0.50,-3.60,-3.60,-3.63
193.33,-3.78,-3.73,-0.13,-0.08,0.03,0.28,0.40,-3.75,-3.69,-3.65
195.27,-3.70,-3.69,-0.03,-0.02,-0.08,0.21,0.31,-3.78,-3.76,-3.67
197.22,-3.55,-3.57,0.13,0.12,-0.18,0.14,0.22,-3.74,-3.75,-3.69
199.19,-3.41,-3.43,0.30,0.28,-0.27,0.07,0.13,-3.69,-3.70,-3.71
201.18,-3.32,-3.30,0.41,0.43,-0.37,-0.00,0.04,-3.69,-3.67,-3.73
203.19,-3.20,-3.23,0.54,0.53,-0.47,-0.07,-0.05,-3.67,-3.69,-3.75
205.23,-3.15,-3.18,0.62,0.59,-0.56,-0.13,-0.14,-3.71,-3.74,-3.77
207.28,-3.17,-3.14,0.60,0.65,-0.65,-0.20,-0.22,-3.82,-3.79,-3.78
209.35,-3.11,-3.11,0.69,0.70,-0.73,-0.26,-0.30,-3.84,-3.84,-3.80
211.44,-3.05,-3.07,0.78,0.76,-0.79,-0.32,-0.39,-3.85,-3.86,-3.84
213.56,-3.01,-3.01,0.83,0.83,-0.85,-0.38,-0.47,-3.86,-3.86,-3.84
215.69,-2.96,-2.96,0.89,0.89,-0.89,-0.43,-0.55,-3.86,-3.86,-3.85
217.85,-2.92,-2.92,0.94,0.95,-0.93,-0.49,-0.62,-3.86,-3.85,-3.87
220.03,-2.87,-2.88,1.00,1.00,-0.97,-0.54,-0.70,-3.84,-3.85,-3.88
222.23,-2.86,-2.86,1.04,1.03,-0.99,-0.59,-0.77,-3.85,-3.85,-3.90
224.45,-2.86,-2.88,1.03,1.02,-1.01,-0.64,-0.84,-3.87,-3.88,-3.89
226.70,-2.88,-2.90,1.01,1.00,-1.01,-0.69,-0.90,-3.90,-3.91,-3.89
228.96,-2.94,-2.90,0.94,0.98,-1.01,-0.73,-0.96,-3.96,-3.91,-3.88
231.25,-2.87,-2.89,1.00,0.99,-1.01,-0.78,-1.02,-3.89,-3.90,-3.87
233.57,-2.84,-2.86,1.02,1.01,-1.02,-0.82,-1.08,-3.86,-3.87,-3.86
235.90,-2.82,-2.83,1.03,1.03,-1.02,-0.86,-1.13,-3.85,-3.85,-3.85
238.26,-2.81,-2.81,1.03,1.03,-1.03,-0.90,-1.18,-3.84,-3.84,-3.84
240.64,-2.79,-2.77,1.03,1.05,-1.04,-0.94,-1.23,-3.84,-3.82,-3.82
243.05,-2.71,-2.72,1.08,1.07,-1.06,-0.97,-1.27,-3.77,-3.78,-3.79
245.48,-2.66,-2.67,1.11,1.09,-1.08,-1.01,-1.31,-3.74,-3.75,-3.77
247.93,-2.63,-2.64,1.10,1.10,-1.10,-1.04,-1.35,-3.74,-3.74,-3.74
250.41,-2.61,-2.61,1.11,1.11,-1.13,-1.07,-1.38,-3.74,-3.74,-3.73
252.92,-2.58,-2.57,1.11,1.13,-1.16,-1.10,-1.40,-3.75,-3.73,-3.69
255.45,-2.50,-2.51,1.17,1.16,-1.19,-1.13,-1.43,-3.70,-3.70,-3.67
258.00,-2.42,-2.43,1.22,1.22,-1.22,-1.16,-1.45,-3.64,-3.65,-3.65
260.58,-2.37,-2.36,1.26,1.27,-1.24,-1.18,-1.46,-3.62,-3.60,-3.63
263.19,-2.29,-2.31,1.31,1.30,-1.26,-1.21,-1.47,-3.55,-3.57,-3.60
265.82,-2.27,-2.28,1.31,1.30,-1.27,-1.23,-1.48,-3.54,-3.55,-3.59
268.48,-2.27,-2.27,1.29,1.29,-1.27,-1.25,-1.49,-3.55,-3.54,-3.56
271.16,-2.27,-2.28,1.26,1.26,-1.27,-1.27,-1.49,-3.55,-3.55,-3.53
273.87,-2.28,-2.28,1.23,1.23,-1.26,-1.29,-1.49,-3.55,-3.55,-3.52
276.61,-2.28,-2.26,1.20,1.22,-1.25,-1.31,-1.49,-3.53,-3.51,-3.48
279.38,-2.22,-2.23,1.23,1.22,-1.23,-1.32,-1.48,-3.46,-3.46,-3.46
282.17,-2.18,-2.20,1.25,1.23,-1.21,-1.34,-1.48,-3.40,-3.41,-3.43
284.99,-2.17,-2.17,1.22,1.23,-1.20,-1.35,-1.47,-3.37,-3.37,-3.40
287.84,-2.16,-2.16,1.22,1.21,-1.19,-1.36,-1.46,-3.35,-3.35,-3.38
290.72,-2.15,-2.15,1.19,1.19,-1.19,-1.37,-1.45,-3.34,-3.34,-3.35
293.63,-2.14,-2.15,1.18,1.17,-1.20,-1.38,-1.43,-3.34,-3.34,-3.32
296.57,-2.12,-2.13,1.16,1.16,-1.20,-1.39,-1.42,-3.33,-3.34,-3.28
299.53,-2.11,-2.09,1.14,1.17,-1.21,-1.40,-1.40,-3.33,-3.30,-3.26
302.53,-2.02,-2.02,1.22,1.22,-1.22,-1.41,-1.39,-3.25,-3.24,-3.24
305.55,-1.91,-1.94,1.28,1.26,-1.23,-1.42,-1.38,-3.15,-3.18,-3.20
308.61,-1.88,-1.89,1.29,1.29,-1.24,-1.42,-1.36,-3.13,-3.13,-3.18
311.69,-1.87,-1.87,1.28,1.28,-1.25,-1.43,-1.34,-3.13,-3.12,-3.15
314.81,-1.87,-1.87,1.25,1.26,-1.26,-1.43,-1.33,-3.13,-3.13,-3.13
317.96,-1.87,-1.87,1.24,1.24,-1.25,-1.44,-1.31,-3.13,-3.12,-3.11
321.14,-1.87,-1.87,1.23,1.22,-1.24,-1.44,-1.30,-3.11,-3.11,-3.10
324.35,-1.87,-1.87,1.21,1.21,-1.22,-1.44,-1.29,-3.09,-3.09,-3.09
327.59,-1.87,-1.87,1.19,1.20,-1.20,-1.44,-1.27,-3.07,-3.07,-3.07
330.87,-1.87,-1.87,1.19,1.19,-1.18,-1.45,-1.26,-3.05,-3.05,-3.06
334.18,-1.87,-1.87,1.17,1.17,-1.17,-1.45,-1.25,-3.04,-3.04,-3.04
337.52,-1.87,-1.88,1.16,1.16,-1.16,-1.45,-1.24,-3.03,-3.03,-3.04
340.90,-1.88,-1.88,1.14,1.14,-1.15,-1.45,-1.23,-3.03,-3.03,-3.02
344.30,-1.88,-1.88,1.13,1.13,-1.14,-1.45,-1.22,-3.02,-3.02,-3.01
347.75,-1.88,-1.88,1.13,1.13,-1.13,-1.44,-1.21,-3.02,-3.01,-3.01
351.23,-1.87,-1.88,1.13,1.13,-1.13,-1.44,-1.20,-3.00,-3.01,-3.01
354.74,-1.87,-1.87,1.13,1.13,-1.13,-1.44,-1.19,-3.00,-3.00,-3.01
358.28,-1.87,-1.87,1.13,1.13,-1.13,-1.44,-1.19,-3.01,-3.00,-3.00
361.87,-1.86,-1.87,1.14,1.13,-1.14,-1.44,-1.18,-3.00,-3.00,-3.00
365.49,-1.86,-1.86,1.13,1.14,-1.14,-1.44,-1.18,-3.01,-3.00,-2.99
369.14,-1.85,-1.85,1.15,1.15,-1.15,-1.43,-1.18,-3.00,-3.00,-3.01
372.83,-1.84,-1.85,1.16,1.16,-1.16,-1.43,-1.18,-3.00,-3.00,-3.01
376.56,-1.83,-1.84,1.18,1.17,-1.17,-1.43,-1.17,-3.00,-3.01,-3.01
380.33,-1.83,-1.83,1.17,1.17,-1.18,-1.43,-1.17,-3.01,-3.01,-3.00
384.13,-1.82,-1.82,1.18,1.19,-1.19,-1.42,-1.18,-3.01,-3.01,-3.00
387.97,-1.81,-1.82,1.20,1.19,-1.19,-1.42,-1.18,-3.01,-3.01,-3.02
391.85,-1.81,-1.81,1.21,1.21,-1.20,-1.42,-1.18,-3.02,-3.02,-3.03
395.77,-1.81,-1.81,1.20,1.21,-1.21,-1.41,-1.19,-3.02,-3.02,-3.02
399.73,-1.81,-1.81,1.22,1.21,-1.21,-1.41,-1.19,-3.03,-3.03,-3.03
403.72,-1.81,-1.82,1.22,1.21,-1.22,-1.41,-1.20,-3.03,-3.03,-3.03
407.76,-1.82,-1.82,1.22,1.22,-1.22,-1.40,-1.20,-3.04,-3.04,-3.04
411.84,-1.82,-1.82,1.22,1.22,-1.22,-1.40,-1.21,-3.04,-3.05,-3.04
415.96,-1.82,-1.83,1.22,1.22,-1.22,-1.40,-1.22,-3.05,-3.05,-3.04
420.12,-1.82,-1.82,1.22,1.22,-1.22,-1.40,-1.22,-3.05,-3.05,-3.05
424.32,-1.81,-1.82,1.23,1.23,-1.23,-1.39,-1.23,-3.04,-3.04,-3.05
428.56,-1.80,-1.81,1.23,1.23,-1.23,-1.39,-1.24,-3.04,-3.04,-3.04
432.85,-1.79,-1.79,1.23,1.24,-1.24,-1.39,-1.25,-3.04,-3.03,-3.03
437.18,-1.76,-1.77,1.26,1.24,-1.25,-1.39,-1.26,-3.01,-3.02,-3.02
441.55,-1.73,-1.73,1.25,1.26,-1.26,-1.38,-1.27,-2.99,-2.99,-2.98
445.96,-1.68,-1.69,1.27,1.27,-1.27,-1.38,-1.28,-2.96,-2.96,-2.95
450.42,-1.63,-1.63,1.29,1.28,-1.28,-1.38,-1.29,-2.92,-2.92,-2.92
454.93,-1.57,-1.57,1.30,1.30,-1.29,-1.38,-1.30,-2.87,-2.87,-2.87
459.48,-1.51,-1.52,1.31,1.31,-1.30,-1.38,-1.31,-2.82,-2.82,-2.82
464.07,-1.45,-1.46,1.32,1.32,-1.31,-1.38,-1.32,-2.77,-2.77,-2.78
468.71,-1.40,-1.40,1.31,1.32,-1.32,-1.38,-1.33,-2.72,-2.72,-2.72
