frequency,raw
20,-0.6626055940937159
21,-0.21691813344571131
22,0.3520829658906879
23,0.8530271236785864
24,1.2159356548743796
25,1.706690586313415
26,2.161700988633546
27,2.426023057723008
28,2.777059368460457
29,3.2098222687666826
30,3.487788689140712
31,3.6913889813379357
32,4.022880113862041
33,4.281078690713391
34,4.494671287058306
35,4.695516072103376
36,4.914999815675653
37,5.238924160621525
38,5.394610279941585
39,5.359613815793938
40,5.600993126138734
41,5.802142551425906
42,5.902717264069666
43,6.031045430454575
44,6.135381642673108
45,6.325131057178956
46,6.284901172105592
47,6.5061655398779035
48,6.606740252471853
49,6.6315565709811715
50,6.775920919865282
51,6.807889678586275
52,6.89560485327231
53,7.009039104463662
54,7.009039102686792
55,7.109613810838554
56,7.113524704488598
57,7.233771558422502
58,7.310763224923894
59,7.310763244206073
60,7.31076329013172
61,7.310763363056334
62,7.339883880987594
63,7.511912908267153
64,7.5119128243788955
65,7.51191251799481
66,7.511911913349312
67,7.511911028498033
68,7.511910064223972
69,7.61248419578294
70,7.612484744130875
71,7.612487356518076
72,7.6124928883385525
73,7.61250165158672
74,7.612512792036677
75,7.612523635424681
76,7.612529230793793
77,7.612522400601387
78,7.612494630008922
79,7.612438053503924
80,7.612348600446979
81,7.612230043123109
82,7.453851976380542
83,7.410835438661799
84,7.410788776285628
85,7.410871923713479
86,7.411155442248888
87,7.411704971648345
88,7.412563851414901
89,7.313157652146167
90,7.314571609681713
91,7.215509159838116
92,7.216878064143089
93,7.21776636892379
94,7.233562188812709
95,7.316934910242588
96,7.313664048682431
97,7.308045715017887
98,7.299689819428342
99,7.288334943420107
100,7.215075538944423
101,7.155880244414207
102,7.135766648428222
104,7.0790724990114455
105,6.989101672515606
106,6.964584529663646
107,6.940208508487839
108,6.870822825190841
109,6.710187013540232
110,6.653465101556865
111,6.558613951925256
112,6.501719879405159
113,6.43667476129309
114,6.431371140538688
115,6.42941175032415
117,6.4304113181585425
118,6.389532243382707
119,6.3386514741379845
120,6.345329900658081
121,6.317999525744033
123,6.218125541905454
124,6.1865265016529705
125,6.275621445905214
126,6.300930032702558
128,6.2889121421183685
129,6.2950217327610805
130,6.300676141210475
131,6.305897932784332
133,6.411264592055993
134,6.440173321405272
135,6.52000992708545
137,6.523277748265965
138,6.511173522243321
140,6.622496107854168
141,6.750516984972345
142,6.751256258201577
144,6.730689994888696
145,6.711137828576284
147,6.710810346899848
148,6.831139288505296
150,6.931471290897679
151,6.931458657682789
153,7.032303675016544
154,7.032835320391166
156,7.035592971257984
157,7.036451497083982
159,6.983283436385559
160,6.911567577160411
162,6.751643773312536
164,6.5833550601623685
165,6.456864942222502
167,6.1252243152832335
169,5.925427022758902
170,5.816601380390165
172,5.620500642801572
174,5.560479518198998
175,5.572874280863814
177,5.6746512561836795
179,5.762405712732262
181,5.855556814608203
183,5.927367313186929
184,5.939491105203066
186,6.013287017511165
188,6.084117979466694
190,6.144233805916127
192,6.160426898955789
194,6.176015641653445
196,6.190164416697903
198,6.202232158640138
200,6.211816578967064
202,6.218761738962704
204,6.1341770068817585
206,6.12102495103341
208,6.124634867390952
210,6.126877108388606
212,6.113395230015284
214,6.019457037784608
216,5.976287996357905
218,5.908155922569504
221,5.909855597228645
223,5.902510801805624
225,5.79687211697058
227,5.701648357515727
229,5.659166937821778
232,5.5906838129032455
234,5.520647523955631
236,5.499160040816179
239,5.443764658554741
241,5.381910066694807
244,5.323381243976686
246,5.3054213943700645
248,5.3212908257743035
251,5.244921287374222
253,5.2096549224052415
256,5.158718580060619
259,5.030149115971925
261,4.985739910152849
264,4.877014868533166
266,4.772077285275543
269,4.544492905205113
272,4.47960209557832
274,4.442307207663695
277,4.280818834932769
280,4.123771702154958
283,4.021885028364751
286,3.870786341416586
288,3.7782158582973295
291,3.6526242356889833
294,3.6018593132829557
297,3.529795165985405
300,3.355436961253085
303,3.295961618622835
306,3.2550422758835023
309,3.0965472581318085
312,3.0218671698989965
316,3.0986628007106503
319,3.1921196040301982
322,3.2498724599413986
325,3.1207742256744155
328,3.0308060818417633
332,2.9663548010736243
335,2.8834392385671515
338,2.759984016210641
342,2.582098905271471
345,2.39101008896121
349,2.1409222622550366
352,2.0276958722376506
356,1.9132394709740217
359,1.805867017547828
363,1.647973256986866
366,1.5340799427028995
370,1.3440330478789404
374,1.1446904084078953
377,0.9986549846696223
381,0.8027484214484564
385,0.6309855024057069
389,0.4641993722805071
393,0.22006558559125822
397,0.026233461780302503
401,-0.1545823185404085
405,-0.26050496377021626
409,-0.5011778150976277
413,-0.6437200986116708
417,-0.8148061944636789
421,-0.9633389517587994
425,-1.0538524110601653
430,-1.2346830796237995
434,-1.274836718889775
438,-1.3765070582095515
443,-1.3631381178173037
447,-1.264543404956164
451,-1.4081647886014856
456,-1.5372997265208976
460,-1.5326203114184218
465,-1.4992367926702896
470,-1.323081021526562
474,-1.2304462489256949
479,-1.5382096896687039
484,-1.5552548823231929
489,-1.3736304675670983
494,-1.4003411001942536
499,-1.4180902734639926
504,-1.4875801049667745
509,-1.6131765671440559
514,-1.6539232982743688
519,-1.4049496601132558
524,-1.6611232200399921
529,-1.9493066787244033
535,-1.842856780162979
540,-1.7906142590286558
545,-1.6855297538427696
551,-2.160727075039647
556,-2.273628324468876
562,-2.2095234667988772
568,-2.258441655751738
573,-2.3015764927860514
579,-2.3364105461983575
585,-2.3613932337704275
591,-2.3760448312277775
596,-2.5008444533163727
602,-2.544518124711286
608,-2.265582326721777
615,-2.249089640697265
621,-2.2373437116860355
627,-2.364101398222888
633,-2.235212099936668
639,-1.7790468672880497
646,-1.9246882791284599
652,-2.0375141366520704
659,-1.885901898982958
665,-1.7817125216511462
672,-1.6265881846620571
679,-1.5786166616052133
686,-1.4139150518578405
692,-1.097355117791864
699,-1.1322419318877948
706,-1.1812710929927874
713,-1.1267094022927993
721,-1.0871019454886568
728,-0.9872232341741216
735,-0.8399659081446199
742,-0.8028197853875141
750,-0.8096487980258367
757,-0.7579731352091897
765,-0.8198566800449232
773,-0.8653844218467883
780,-0.7638271827164835
788,-0.706004402743263
796,-0.6086155038231553
804,-0.5096183216821091
812,-0.43306373747872956
820,-0.42051784264900977
828,-0.41718753841114065
837,-0.2950830215542014
845,-0.29601523107681776
853,-0.29932919612528064
862,-0.2155350209036292
871,-0.2111184440835408
879,-0.2189903772702603
888,-0.16871266652842337
897,-0.1342193925168551
906,-0.14098841233307635
915,-0.11430002260441757
924,-0.049599141668704244
933,-0.05148966439906283
943,-0.051338824294152124
952,-0.049000654443015684
962,-0.044323694089691085
971,-0.037135150730496724
981,-0.02723595038843303
991,-0.014404753107898807
1001,0.0015925187673465624
1011,0.020991451681989542
1021,0.04401937237333009
1031,0.07088894550943578
1041,0.1017956828155521
1052,0.13431584033112756
1062,0.08266752693020771
1073,0.11989676064648677
1084,0.16863917384146976
1094,0.22223489639231198
1105,0.280849938660224
1116,0.3446643077262955
1128,0.41387631378420286
1139,0.48870389252684
1150,0.5811608259602378
1162,0.7567200734016645
1173,0.8497962313021374
1185,0.9060495769631532
1197,0.915143321660363
1209,0.9820969485055806
1221,1.0564723505747438
1233,1.111278016102635
1246,1.1440378425186288
1258,0.9951486793965147
1271,0.9522545464114216
1283,1.006354222133432
1296,1.1079653791248805
1309,1.3044721772258008
1322,1.4178168955367405
1335,1.4601000170795304
1349,1.5263931645588262
1362,1.58459745066261
1376,1.6093234226349704
1390,1.7552316163854251
1404,1.829244102838976
1418,1.8332536242406636
1432,1.907249027414156
1446,1.9880274137817344
1461,2.1045277643777385
1475,2.0815704410206375
1490,2.111582422821109
1505,2.1977254320285216
1520,2.287420524380371
1535,2.4374225667032716
1550,2.4868239569316843
1566,2.604532120985911
1582,2.7304614559401497
1597,2.832291841029038
1613,2.8945779996383276
1629,2.999321948757994
1646,3.1224768706079233
1662,3.2734611565165137
1679,3.35961235815852
1696,3.4888718479541287
1713,3.6347914820854674
1730,3.794495041072966
1747,3.882391638031237
1764,3.9760783979755177
1782,4.075864449494928
1800,4.181866175052007
1818,4.4882640617866185
1836,4.612865220894108
1854,4.735605319093598
1873,4.862371857415444
1892,4.992027352280013
1911,5.123349385443222
1930,5.2551540209432135
1949,5.386427501226398
1969,5.515604710829923
1988,5.6448495353537
2008,5.817628809836786
2028,5.998667320427784
2048,6.0904833186984595
2069,6.285565623763869
2090,6.564702605293432
2111,6.7723800125463445
2132,7.006496489798558
2153,7.270883692519656
2175,7.494974962364792
2196,7.758853481721282
2218,7.944760009396573
2240,8.185591457480959
2263,8.452031726664693
2285,8.67138309351288
2308,8.89966935353069
2331,9.135094384079306
2355,9.375557806867779
2378,9.618751256557772
2402,9.862271730323325
2426,10.103752146700547
2450,10.342380149174051
2475,10.622471027281104
2500,10.896489074244055
2525,11.243219108091745
2550,11.605510692799662
2575,11.820606681366087
2601,12.013892907932068
2627,12.322946602559949
2653,12.668492523955837
2680,13.038615067434659
2707,13.315697766738566
2734,13.558339914735805
2761,13.846492565860094
2789,14.089576573036066
2817,14.332905852515832
2845,14.624457109312864
2873,14.833398781750535
2902,15.095220062589451
2931,15.192081429860528
2960,15.352181747805998
2990,15.505547364069223
3020,15.727483669269734
3050,15.92961873971987
3080,16.118430206331567
3111,16.32899858501586
3142,16.447441070159694
3174,16.48306038442817
3206,16.432411509446567
3238,16.308836035942598
3270,16.12060088273205
3303,15.903577451680677
3336,15.680042240695645
3369,15.492301916474833
3403,15.20805711434646
3437,15.067977294342054
3471,14.909931926896174
3506,14.699549023700508
3541,14.39419235862367
3576,14.301435598098331
3612,14.113318228286186
3648,13.669320001462172
3685,13.265685645927284
3721,12.874600302221893
3759,12.170051926866602
3796,11.605904036508331
3834,11.107519283481448
3873,10.41386822263063
3911,9.876733439419613
3950,9.465795940170324
3990,8.988583664548251
4030,8.527479844079679
4070,8.131298980410115
4111,7.635432763719344
4152,7.045975724207195
4193,6.695460874665172
4235,6.318237859906172
4278,5.8528272754436985
4321,5.110285518566255
4364,4.632332265302658
4407,3.8534434603868313
4451,3.147993048133756
4496,2.6408285193857974
4541,1.949855300183959
4586,0.8795560512329388
4632,0.1888159970981782
4679,-0.5034149874867158
4725,-2.106690584376853
4773,-3.2486987679933765
4820,-3.9702715081539335
4868,-5.214808753956946
4917,-5.885008316678558
4966,-6.592577151379098
5016,-6.780832559939057
5066,-5.201115531596443
5117,-2.835131264788947
5168,-2.12988549326446
5220,-0.6682354261437489
5272,-1.173144770240281
5325,-3.868229284323643
5378,-5.076781713240864
5432,-4.676057565985552
5486,-3.2066449729579958
5541,-7.545488082846189
5596,-7.106467291302351
5652,-6.399557912821907
5709,-4.092620080737483
5766,-3.262558733584431
5823,-3.2011893848044313
5882,-3.232227929476153
5940,-3.163498262034121
6000,-3.0386256011421224
6060,-3.1037426559048846
6120,-3.098322569981054
6182,-2.9582287616079217
6244,-2.867826605184794
6306,-2.823549503545813
6369,-2.6926895103873747
6433,-2.3410554010801174
6497,-2.2441986513695014
6562,-2.104946337417312
6628,-1.7326761372963784
6694,-1.7032882400768923
6761,-1.4644885357587052
6828,-1.297880560846937
6897,-1.2458845528332088
6966,-0.7002666403156939
7035,-0.2534272677792444
7106,0.031970856944246506
7177,0.40413694413648305
7249,0.6144809205558239
7321,0.708166882762205
7394,0.24721730162503697
7468,-0.2084619843074469
7543,-0.7781336101922403
7618,-0.881438060104986
7694,-0.8186014080695427
7771,-1.0860602456596293
7849,-1.0366631415565024
7928,-0.8155952395659538
8007,-0.5547946461827307
8087,-0.32143404020566724
8168,0.007869559707986973
8250,0.7265676317075416
8332,1.74824665137898
8415,2.18507626582051
8499,2.62123983624185
8584,2.667946458235403
8670,3.363798830508575
8757,5.302148996705658
8845,6.242504422051389
8933,6.034440380328272
9022,6.345148575992926
9113,6.348648795477985
9204,5.8744552905225
9296,5.492135861195349
9389,5.306036877770677
9483,5.558229268200932
9577,6.0130100454696525
9673,6.363311569575844
9770,6.384955357380987
9868,5.659566481377757
9966,4.939295163840208
10066,3.8323028521576425
10167,2.3489253984597305
10268,1.2907499585792612
10371,-0.144204802559881
10475,-2.4196605975252723
10579,-4.245803139028546
10685,-5.793180612005299
10792,-5.014441888596759
10900,-3.454172683801211
11009,-2.3577805218511863
11119,-0.808872659662315
11230,0.4342811190638374
11343,1.3914460042346688
11456,1.8793849209913231
11571,2.136691050259043
11686,2.590253496286439
11803,2.9881973199077896
11921,2.9597084381662704
12040,2.5888484452102265
12161,2.294020833060692
12282,1.7564397874766282
12405,1.6456443162294274
12529,1.5763844791951076
12655,1.568984090962438
12781,1.8977958282445684
12909,1.9562686356174623
13038,1.3923473676599754
13168,0.08581926346510471
13300,-0.7749207491649743
13433,-1.5647156488860468
13567,-2.1096138757006644
13703,-3.265873535045075
13840,-3.7652270858587578
13978,-3.9319850891249803
14118,-4.157321622424799
14259,-4.36712555056787
14402,-4.610767312633316
14546,-4.80654230269187
14692,-4.780273826364872
14838,-5.364417992284938
14987,-5.571428612377353
15137,-4.7482066643708745
15288,-3.515379760889642
15441,-2.429944958754305
15595,-1.7058309355737578
15751,-2.4872338044676754
15909,-3.7567219952226427
16068,-4.249734081364806
16229,-3.455424108471677
16391,-3.610754962200013
16555,-6.296051852867263
16720,-8.12623564779419
16888,-9.915403161798924
17056,-12.297281601088013
17227,-11.793948128739455
17399,-10.905932886892636
17573,-10.48208436984629
17749,-11.39126789762209
17926,-11.227061823875722
18106,-10.20012450640799
18287,-8.98821100868667
18470,-8.080180305867417
18654,-7.1548361916408325
18841,-7.115782199911214
19029,-8.980375582134835
19220,-11.062373255423614
19412,-10.437482425757539
19606,-9.492495949944464
19802,-9.178139333687836
20000,-10.457481870854043
