frequency,raw,error,smoothed,error_smoothed,equalization,parametric_eq,fixed_band_eq,equalized_raw,equalized_smoothed,target
20.00,5.01,2.31,5.01,2.30,-2.30,-2.45,-1.86,2.71,2.71,2.71
20.20,5.11,2.32,5.11,2.32,-2.32,-2.49,-1.91,2.79,2.79,2.80
20.40,5.22,2.35,5.22,2.35,-2.34,-2.53,-1.97,2.88,2.88,2.88
20.61,5.32,2.38,5.32,2.37,-2.37,-2.57,-2.02,2.95,2.96,2.94
20.81,5.43,2.40,5.43,2.39,-2.40,-2.60,-2.08,3.04,3.03,3.04
21.02,5.53,2.42,5.53,2.42,-2.43,-2.64,-2.14,3.10,3.10,3.11
21.23,5.63,2.46,5.64,2.46,-2.47,-2.68,-2.20,3.17,3.17,3.17
21.44,5.74,2.51,5.74,2.50,-2.51,-2.72,-2.26,3.24,3.23,3.23
21.66,5.84,2.56,5.84,2.56,-2.55,-2.76,-2.32,3.29,3.29,3.28
21.87,5.94,2.61,5.94,2.61,-2.60,-2.80,-2.39,3.34,3.34,3.33
22.09,6.04,2.66,6.04,2.66,-2.66,-2.84,-2.45,3.39,3.38,3.38
22.31,6.14,2.71,6.14,2.71,-2.72,-2.88,-2.52,3.43,3.43,3.43
22.54,6.24,2.77,6.24,2.77,-2.78,-2.92,-2.59,3.46,3.47,3.47
22.76,6.34,2.83,6.34,2.83,-2.84,-2.96,-2.67,3.50,3.51,3.51
22.99,6.45,2.91,6.45,2.90,-2.90,-3.00,-2.74,3.55,3.55,3.54
23.22,6.55,2.97,6.55,2.97,-2.96,-3.04,-2.82,3.59,3.59,3.58
23.45,6.65,3.03,6.65,3.03,-3.02,-3.08,-2.89,3.63,3.63,3.62
23.69,6.75,3.09,6.75,3.09,-3.09,-3.12,-2.97,3.66,3.66,3.66
23.92,6.85,3.15,6.85,3.15,-3.15,-3.17,-3.05,3.70,3.70,3.70
24.16,6.95,3.20,6.95,3.21,-3.21,-3.21,-3.13,3.74,3.74,3.75
24.40,7.05,3.27,7.05,3.27,-3.28,-3.25,-3.22,3.78,3.78,3.78
24.65,7.15,3.34,7.15,3.34,-3.34,-3.30,-3.30,3.81,3.81,3.81
24.89,7.25,3.41,7.25,3.41,-3.40,-3.34,-3.39,3.85,3.85,3.84
25.14,7.34,3.46,7.34,3.47,-3.47,-3.38,-3.47,3.88,3.88,3.88
25.39,7.44,3.53,7.44,3.53,-3.53,-3.43,-3.56,3.91,3.91,3.91
25.65,7.53,3.58,7.53,3.59,-3.59,-3.47,-3.65,3.94,3.94,3.95
25.91,7.63,3.66,7.63,3.66,-3.66,-3.52,-3.74,3.97,3.97,3.97
26.16,7.72,3.73,7.72,3.72,-3.72,-3.56,-3.83,4.00,4.00,4.00
26.43,7.81,3.77,7.81,3.78,-3.78,-3.61,-3.91,4.03,4.03,4.03
26.69,7.90,3.84,7.90,3.84,-3.84,-3.65,-4.00,4.06,4.06,4.06
26.96,8.00,3.91,8.00,3.90,-3.90,-3.70,-4.09,4.10,4.09,4.09
27.23,8.09,3.96,8.09,3.96,-3.96,-3.74,-4.17,4.13,4.13,4.13
27.50,8.18,4.02,8.18,4.02,-4.02,-3.79,-4.26,4.16,4.16,4.16
27.77,8.27,4.09,8.27,4.08,-4.08,-3.84,-4.34,4.19,4.19,4.18
28.05,8.36,4.14,8.36,4.14,-4.14,-3.88,-4.42,4.22,4.22,4.22
28.33,8.44,4.20,8.44,4.20,-4.20,-3.93,-4.49,4.24,4.25,4.24
28.62,8.53,4.26,8.53,4.26,-4.25,-3.98,-4.57,4.28,4.27,4.27
28.90,8.61,4.30,8.61,4.31,-4.31,-4.03,-4.64,4.30,4.30,4.31
29.19,8.69,4.36,8.69,4.36,-4.36,-4.07,-4.70,4.33,4.33,4.33
29.48,8.77,4.39,8.77,4.40,-4.41,-4.12,-4.77,4.37,4.37,4.38
29.78,8.85,4.45,8.85,4.45,-4.45,-4.17,-4.82,4.40,4.40,4.40
30.08,8.93,4.51,8.92,4.50,-4.49,-4.22,-4.88,4.44,4.43,4.42
30.38,8.99,4.54,8.99,4.54,-4.53,-4.27,-4.93,4.46,4.46,4.45
30.68,9.05,4.57,9.05,4.57,-4.57,-4.32,-4.97,4.48,4.48,4.48
30.99,9.11,4.61,9.11,4.60,-4.61,-4.36,-5.01,4.50,4.50,4.50
31.30,9.17,4.64,9.17,4.64,-4.65,-4.41,-5.04,4.52,4.52,4.53
31.61,9.23,4.67,9.23,4.68,-4.68,-4.46,-5.07,4.55,4.55,4.56
31.93,9.30,4.72,9.30,4.72,-4.72,-4.51,-5.09,4.58,4.58,4.58
32.24,9.36,4.77,9.36,4.76,-4.76,-4.56,-5.11,4.61,4.60,4.60
32.57,9.42,4.80,9.42,4.80,-4.79,-4.61,-5.13,4.63,4.63,4.62
32.89,9.48,4.83,9.48,4.83,-4.83,-4.66,-5.14,4.65,4.65,4.65
33.22,9.54,4.87,9.54,4.87,-4.87,-4.71,-5.14,4.67,4.67,4.67
33.55,9.59,4.90,9.59,4.90,-4.91,-4.76,-5.14,4.68,4.69,4.69
33.89,9.65,4.95,9.65,4.94,-4.94,-4.81,-5.14,4.71,4.70,4.70
34.23,9.70,4.97,9.70,4.98,-4.98,-4.86,-5.14,4.72,4.72,4.73
34.57,9.76,5.03,9.76,5.02,-5.02,-4.91,-5.13,4.74,4.74,4.74
34.92,9.81,5.07,9.81,5.06,-5.06,-4.96,-5.12,4.75,4.75,4.74
35.27,9.85,5.09,9.86,5.10,-5.10,-5.01,-5.11,4.75,4.76,4.76
35.62,9.90,5.14,9.90,5.14,-5.14,-5.05,-5.10,4.76,4.76,4.76
35.97,9.95,5.18,9.95,5.17,-5.18,-5.10,-5.08,4.77,4.77,4.77
36.33,9.99,5.21,10.00,5.22,-5.22,-5.15,-5.07,4.77,4.78,4.79
36.70,10.04,5.26,10.04,5.26,-5.26,-5.20,-5.06,4.78,4.78,4.78
37.06,10.09,5.31,10.09,5.30,-5.30,-5.25,-5.04,4.79,4.78,4.78
37.43,10.13,5.34,10.13,5.35,-5.35,-5.30,-5.03,4.78,4.79,4.79
37.81,10.18,5.40,10.18,5.39,-5.39,-5.35,-5.02,4.79,4.79,4.79
38.19,10.22,5.44,10.22,5.43,-5.43,-5.40,-5.01,4.79,4.79,4.78
38.57,10.26,5.47,10.26,5.48,-5.47,-5.45,-5.00,4.79,4.79,4.79
38.95,10.30,5.51,10.30,5.52,-5.51,-5.50,-4.99,4.79,4.78,4.79
39.34,10.33,5.56,10.33,5.56,-5.56,-5.54,-4.99,4.78,4.78,4.77
39.74,10.37,5.60,10.37,5.60,-5.60,-5.59,-4.99,4.77,4.77,4.77
40.14,10.40,5.63,10.40,5.64,-5.64,-5.64,-4.99,4.76,4.77,4.77
40.54,10.44,5.68,10.44,5.68,-5.68,-5.69,-4.99,4.76,4.76,4.76
40.94,10.48,5.72,10.48,5.72,-5.72,-5.73,-5.00,4.76,4.76,4.76
41.35,10.52,5.76,10.52,5.76,-5.76,-5.78,-5.01,4.76,4.76,4.76
41.76,10.56,5.81,10.56,5.81,-5.80,-5.83,-5.02,4.76,4.76,4.75
42.18,10.60,5.85,10.60,5.85,-5.85,-5.87,-5.04,4.75,4.75,4.75
42.60,10.63,5.90,10.63,5.89,-5.90,-5.92,-5.06,4.74,4.74,4.74
43.03,10.67,5.93,10.67,5.94,-5.94,-5.96,-5.08,4.73,4.73,4.74
43.46,10.71,5.98,10.71,5.99,-5.99,-6.01,-5.11,4.72,4.72,4.73
43.90,10.75,6.04,10.75,6.04,-6.04,-6.05,-5.14,4.71,4.71,4.71
44.33,10.79,6.09,10.79,6.09,-6.09,-6.10,-5.17,4.71,4.70,4.70
44.78,10.82,6.13,10.82,6.14,-6.13,-6.14,-5.21,4.69,4.69,4.69
45.23,10.86,6.18,10.86,6.18,-6.17,-6.19,-5.26,4.69,4.69,4.68
45.68,10.89,6.22,10.89,6.22,-6.21,-6.23,-5.30,4.68,4.68,4.67
46.13,10.92,6.25,10.92,6.25,-6.24,-6.27,-5.35,4.68,4.68,4.67
46.60,10.95,6.28,10.95,6.28,-6.28,-6.31,-5.41,4.67,4.67,4.67
47.06,10.97,6.31,10.97,6.30,-6.31,-6.36,-5.47,4.66,4.66,4.67
47.53,10.99,6.33,10.99,6.33,-6.34,-6.40,-5.53,4.65,4.65,4.66
48.01,11.01,6.35,11.01,6.35,-6.37,-6.44,-5.59,4.65,4.65,4.66
48.49,11.04,6.38,11.04,6.38,-6.39,-6.48,-5.66,4.65,4.65,4.66
48.97,11.07,6.42,11.07,6.42,-6.42,-6.52,-5.73,4.65,4.65,4.65
49.46,11.09,6.46,11.09,6.46,-6.45,-6.56,-5.81,4.64,4.65,4.63
49.96,11.12,6.50,11.12,6.48,-6.48,-6.59,-5.88,4.64,4.64,4.63
50.46,11.14,6.50,11.14,6.50,-6.50,-6.63,-5.96,4.64,4.64,4.64
50.96,11.16,6.51,11.17,6.52,-6.53,-6.67,-6.04,4.64,4.64,4.65
51.47,11.19,6.55,11.19,6.55,-6.55,-6.70,-6.13,4.64,4.64,4.64
51.99,11.22,6.58,11.22,6.57,-6.57,-6.74,-6.21,4.65,4.65,4.64
52.51,11.24,6.59,11.24,6.59,-6.59,-6.77,-6.30,4.65,4.65,4.65
53.03,11.26,6.61,11.26,6.61,-6.61,-6.81,-6.39,4.65,4.65,4.66
53.56,11.28,6.63,11.28,6.62,-6.63,-6.84,-6.48,4.65,4.65,4.66
54.10,11.30,6.64,11.30,6.65,-6.66,-6.87,-6.56,4.64,4.65,4.66
54.64,11.33,6.68,11.33,6.68,-6.68,-6.91,-6.65,4.65,4.65,4.65
55.18,11.36,6.72,11.36,6.71,-6.71,-6.94,-6.74,4.65,4.65,4.65
55.74,11.38,6.75,11.38,6.74,-6.74,-6.97,-6.82,4.64,4.64,4.63
56.29,11.40,6.77,11.40,6.77,-6.77,-7.00,-6.91,4.63,4.63,4.63
56.86,11.42,6.80,11.42,6.80,-6.80,-7.03,-6.99,4.62,4.62,4.62
57.42,11.44,6.83,11.44,6.83,-6.83,-7.05,-7.06,4.62,4.62,4.61
58.00,11.46,6.85,11.46,6.86,-6.85,-7.08,-7.14,4.61,4.61,4.61
58.58,11.48,6.89,11.48,6.88,-6.88,-7.11,-7.21,4.60,4.60,4.59
59.16,11.49,6.90,11.49,6.90,-6.90,-7.13,-7.27,4.59,4.59,4.59
59.76,11.50,6.92,11.50,6.93,-6.93,-7.16,-7.33,4.57,4.57,4.58
60.35,11.51,6.96,11.51,6.95,-6.96,-7.18,-7.38,4.55,4.55,4.55
60.96,11.52,6.97,11.52,6.98,-6.99,-7.21,-7.43,4.53,4.53,4.55
61.57,11.53,7.02,11.53,7.01,-7.01,-7.23,-7.47,4.52,4.52,4.51
62.18,11.54,7.05,11.54,7.04,-7.04,-7.25,-7.50,4.50,4.50,4.49
62.80,11.55,7.07,11.55,7.08,-7.07,-7.27,-7.53,4.48,4.48,4.48
63.43,11.56,7.10,11.56,7.10,-7.10,-7.29,-7.55,4.46,4.46,4.46
64.07,11.57,7.12,11.57,7.12,-7.12,-7.31,-7.57,4.45,4.45,4.45
64.71,11.58,7.14,11.58,7.14,-7.14,-7.33,-7.58,4.44,4.44,4.44
65.35,11.60,7.17,11.60,7.16,-7.16,-7.35,-7.58,4.44,4.44,4.43
66.01,11.61,7.18,11.61,7.18,-7.17,-7.37,-7.58,4.44,4.44,4.44
66.67,11.62,7.18,11.62,7.19,-7.19,-7.38,-7.58,4.43,4.43,4.44
67.33,11.63,7.19,11.63,7.19,-7.20,-7.40,-7.56,4.43,4.43,4.44
68.01,11.64,7.20,11.64,7.21,-7.21,-7.42,-7.55,4.43,4.43,4.44
68.69,11.66,7.22,11.66,7.23,-7.23,-7.43,-7.53,4.43,4.44,4.44
69.37,11.69,7.25,11.69,7.24,-7.24,-7.44,-7.51,4.45,4.44,4.44
70.07,11.71,7.27,11.71,7.26,-7.26,-7.46,-7.48,4.45,4.45,4.44
70.77,11.73,7.27,11.73,7.28,-7.27,-7.47,-7.46,4.46,4.46,4.46
71.48,11.75,7.29,11.75,7.29,-7.29,-7.48,-7.43,4.46,4.46,4.46
72.19,11.76,7.31,11.76,7.31,-7.31,-7.50,-7.41,4.45,4.45,4.45
72.91,11.78,7.32,11.78,7.33,-7.33,-7.51,-7.38,4.45,4.45,4.46
73.64,11.80,7.35,11.80,7.35,-7.35,-7.52,-7.35,4.45,4.45,4.45
74.38,11.83,7.37,11.83,7.37,-7.37,-7.53,-7.33,4.46,4.45,4.46
75.12,11.85,7.40,11.85,7.40,-7.40,-7.54,-7.30,4.45,4.45,4.45
75.87,11.88,7.42,11.88,7.42,-7.43,-7.55,-7.28,4.45,4.45,4.46
76.63,11.91,7.45,11.91,7.46,-7.46,-7.56,-7.26,4.46,4.46,4.46
77.40,11.94,7.49,11.94,7.49,-7.48,-7.57,-7.25,4.46,4.46,4.45
78.17,11.97,7.53,11.97,7.51,-7.51,-7.58,-7.23,4.46,4.46,4.44
78.95,11.99,7.53,11.99,7.53,-7.53,-7.58,-7.22,4.46,4.46,4.46
79.74,12.01,7.55,12.01,7.55,-7.55,-7.59,-7.22,4.46,4.46,4.47
80.54,12.03,7.57,12.03,7.56,-7.57,-7.60,-7.22,4.47,4.46,4.46
81.35,12.05,7.58,12.05,7.58,-7.58,-7.61,-7.22,4.47,4.47,4.47
82.16,12.07,7.59,12.07,7.59,-7.59,-7.62,-7.23,4.48,4.48,4.48
82.98,12.10,7.60,12.10,7.60,-7.60,-7.62,-7.24,4.50,4.50,4.50
83.81,12.12,7.61,12.12,7.61,-7.61,-7.63,-7.26,4.51,4.51,4.51
84.65,12.14,7.62,12.14,7.62,-7.61,-7.64,-7.28,4.53,4.53,4.52
85.50,12.16,7.62,12.16,7.62,-7.62,-7.65,-7.31,4.54,4.54,4.54
86.35,12.18,7.62,12.18,7.63,-7.63,-7.66,-7.34,4.55,4.55,4.56
87.22,12.20,7.64,12.20,7.63,-7.63,-7.67,-7.38,4.57,4.56,4.56
88.09,12.22,7.64,12.22,7.64,-7.64,-7.67,-7.42,4.58,4.58,4.58
88.97,12.24,7.65,12.25,7.66,-7.65,-7.68,-7.47,4.59,4.59,4.59
89.86,12.27,7.67,12.27,7.67,-7.67,-7.69,-7.52,4.60,4.60,4.60
90.76,12.29,7.70,12.29,7.69,-7.69,-7.70,-7.58,4.60,4.60,4.59
91.66,12.30,7.71,12.30,7.71,-7.71,-7.71,-7.65,4.59,4.59,4.60
92.58,12.32,7.74,12.32,7.74,-7.75,-7.72,-7.72,4.57,4.58,4.58
93.51,12.35,7.77,12.35,7.77,-7.78,-7.74,-7.79,4.57,4.57,4.58
94.44,12.38,7.82,12.38,7.82,-7.83,-7.75,-7.88,4.55,4.56,4.56
95.39,12.42,7.87,12.42,7.87,-7.87,-7.76,-7.96,4.55,4.54,4.55
96.34,12.45,7.93,12.45,7.93,-7.93,-7.78,-8.05,4.52,4.52,4.52
97.30,12.47,7.99,12.47,7.99,-7.98,-7.79,-8.15,4.49,4.49,4.48
98.28,12.49,8.04,12.49,8.04,-8.04,-7.81,-8.25,4.45,4.45,4.45
99.26,12.51,8.10,12.51,8.10,-8.10,-7.82,-8.36,4.41,4.41,4.41
100.25,12.53,8.16,12.53,8.16,-8.15,-7.84,-8.47,4.38,4.38,4.37
101.25,12.55,8.22,12.55,8.22,-8.21,-7.86,-8.58,4.34,4.34,4.33
102.27,12.56,8.27,12.56,8.27,-8.26,-7.88,-8.70,4.30,4.30,4.29
103.29,12.57,8.33,12.57,8.32,-8.32,-7.90,-8.82,4.25,4.25,4.24
104.32,12.58,8.37,12.58,8.37,-8.38,-7.92,-8.94,4.20,4.20,4.22
105.37,12.60,8.43,12.60,8.43,-8.44,-7.94,-9.06,4.16,4.16,4.17
106.42,12.62,8.49,12.62,8.49,-8.51,-7.97,-9.19,4.12,4.12,4.13
107.48,12.65,8.56,12.65,8.57,-8.57,-8.00,-9.31,4.08,4.08,4.09
108.56,12.69,8.64,12.69,8.64,-8.65,-8.02,-9.44,4.05,4.04,4.05
109.64,12.73,8.72,12.73,8.72,-8.72,-8.05,-9.56,4.01,4.01,4.01
110.74,12.77,8.79,12.77,8.79,-8.80,-8.09,-9.68,3.98,3.98,3.98
111.85,12.81,8.86,12.81,8.86,-8.87,-8.12,-9.80,3.94,3.94,3.95
112.97,12.84,8.94,12.84,8.93,-8.93,-8.15,-9.91,3.91,3.91,3.90
114.10,12.87,8.99,12.87,9.00,-8.99,-8.19,-10.02,3.88,3.88,3.88
115.24,12.90,9.06,12.90,9.05,-9.04,-8.23,-10.11,3.86,3.86,3.85
116.39,12.91,9.09,12.91,9.09,-9.07,-8.27,-10.21,3.84,3.84,3.82
117.55,12.90,9.10,12.91,9.11,-9.09,-8.31,-10.29,3.81,3.81,3.80
118.73,12.89,9.12,12.89,9.11,-9.10,-8.36,-10.36,3.79,3.78,3.77
119.92,12.86,9.10,12.86,9.10,-9.10,-8.40,-10.42,3.76,3.76,3.76
121.12,12.82,9.07,12.83,9.08,-9.09,-8.45,-10.46,3.73,3.74,3.75
122.33,12.80,9.07,12.80,9.06,-9.07,-8.50,-10.50,3.74,3.73,3.73
123.55,12.77,9.04,12.77,9.04,-9.04,-8.55,-10.52,3.73,3.73,3.73
124.79,12.73,9.02,12.73,9.01,-9.01,-8.61,-10.52,3.72,3.72,3.71
126.03,12.68,8.98,12.69,8.99,-8.98,-8.66,-10.51,3.70,3.70,3.71
127.29,12.65,8.96,12.65,8.96,-8.96,-8.72,-10.49,3.69,3.68,3.69
128.57,12.61,8.94,12.61,8.93,-8.94,-8.78,-10.45,3.67,3.67,3.67
129.85,12.58,8.92,12.59,8.93,-8.93,-8.84,-10.40,3.65,3.65,3.66
131.15,12.57,8.92,12.57,8.92,-8.93,-8.90,-10.34,3.64,3.64,3.65
132.46,12.57,8.94,12.57,8.94,-8.94,-8.97,-10.26,3.63,3.63,3.63
133.79,12.58,8.95,12.58,8.96,-8.97,-9.03,-10.17,3.62,3.62,3.63
135.12,12.60,9.00,12.60,8.99,-9.00,-9.10,-10.08,3.60,3.60,3.60
136.48,12.62,9.03,12.62,9.03,-9.04,-9.17,-9.97,3.58,3.58,3.59
137.84,12.66,9.09,12.66,9.09,-9.09,-9.24,-9.86,3.57,3.56,3.57
139.22,12.69,9.15,12.70,9.15,-9.15,-9.31,-9.74,3.54,3.55,3.54
140.61,12.74,9.22,12.74,9.21,-9.20,-9.38,-9.61,3.54,3.54,3.52
142.02,12.79,9.27,12.78,9.27,-9.26,-9.45,-9.48,3.53,3.52,3.52
143.44,12.81,9.31,12.82,9.32,-9.32,-9.52,-9.35,3.50,3.50,3.50
144.87,12.84,9.37,12.84,9.37,-9.37,-9.58,-9.22,3.47,3.48,3.47
146.32,12.86,9.42,12.86,9.41,-9.41,-9.65,-9.08,3.45,3.45,3.44
147.78,12.88,9.45,12.88,9.46,-9.45,-9.72,-8.94,3.43,3.43,3.43
149.26,12.89,9.49,12.89,9.49,-9.48,-9.78,-8.81,3.41,3.41,3.40
150.75,12.89,9.52,12.89,9.52,-9.51,-9.84,-8.68,3.38,3.38,3.37
152.26,12.88,9.54,12.88,9.54,-9.54,-9.90,-8.55,3.34,3.35,3.34
153.78,12.87,9.55,12.87,9.56,-9.56,-9.95,-8.42,3.31,3.31,3.32
155.32,12.87,9.58,12.87,9.58,-9.59,-10.00,-8.29,3.28,3.28,3.29
156.88,12.87,9.61,12.87,9.61,-9.63,-10.04,-8.17,3.25,3.24,3.26
158.44,12.87,9.65,12.87,9.65,-9.66,-10.08,-8.05,3.21,3.21,3.22
160.03,12.87,9.68,12.88,9.69,-9.70,-10.11,-7.94,3.17,3.18,3.19
161.63,12.89,9.74,12.88,9.73,-9.73,-10.13,-7.83,3.16,3.15,3.15
163.24,12.89,9.77,12.89,9.78,-9.77,-10.15,-7.72,3.12,3.12,3.12
164.88,12.90,9.81,12.90,9.81,-9.80,-10.16,-7.62,3.10,3.10,3.09
166.53,12.90,9.84,12.90,9.84,-9.83,-10.16,-7.52,3.07,3.07,3.06
168.19,12.89,9.86,12.89,9.86,-9.85,-10.15,-7.43,3.04,3.04,3.03
169.87,12.86,9.86,12.87,9.86,-9.86,-10.13,-7.35,3.00,3.01,3.00
171.57,12.83,9.86,12.83,9.85,-9.86,-10.10,-7.27,2.97,2.97,2.98
173.29,12.79,9.84,12.79,9.84,-9.85,-10.07,-7.19,2.95,2.94,2.95
175.02,12.73,9.81,12.74,9.82,-9.82,-10.02,-7.12,2.91,2.92,2.92
176.77,12.69,9.80,12.69,9.79,-9.79,-9.96,-7.06,2.90,2.89,2.90
178.54,12.63,9.76,12.63,9.76,-9.75,-9.89,-7.00,2.88,2.88,2.87
180.32,12.57,9.72,12.57,9.71,-9.70,-9.82,-6.94,2.87,2.87,2.85
182.13,12.50,9.66,12.49,9.65,-9.65,-9.73,-6.90,2.85,2.84,2.84
183.95,12.39,9.57,12.40,9.58,-9.58,-9.64,-6.85,2.81,2.82,2.83
185.79,12.31,9.50,12.31,9.50,-9.51,-9.53,-6.81,2.80,2.81,2.81
187.65,12.23,9.43,12.23,9.42,-9.43,-9.42,-6.78,2.80,2.80,2.80
189.52,12.14,9.34,12.14,9.35,-9.35,-9.31,-6.75,2.80,2.79,2.80
191.42,12.04,9.26,12.04,9.26,-9.26,-9.18,-6.72,2.78,2.79,2.78
193.33,11.94,9.16,11.94,9.16,-9.17,-9.05,-6.70,2.77,2.78,2.78
195.27,11.84,9.06,11.84,9.06,-9.07,-8.92,-6.69,2.77,2.77,2.78
197.22,11.73,8.96,11.73,8.97,-8.97,-8.78,-6.67,2.76,2.76,2.77
199.19,11.62,8.87,11.62,8.87,-8.86,-8.64,-6.67,2.76,2.76,2.75
201.18,11.51,8.76,11.51,8.76,-8.75,-8.49,-6.66,2.76,2.76,2.75
203.19,11.39,8.64,11.39,8.64,-8.63,-8.34,-6.66,2.76,2.76,2.75
205.23,11.25,8.51,11.25,8.51,-8.50,-8.19,-6.66,2.75,2.75,2.74
207.28,11.10,8.36,11.11,8.37,-8.37,-8.04,-6.66,2.73,2.74,2.74
209.35,10.96,8.23,10.96,8.24,-8.23,-7.88,-6.66,2.73,2.73,2.73
211.44,10.81,8.10,10.81,8.09,-8.10,-7.73,-6.67,2.71,2.71,2.71
213.56,10.67,7.96,10.66,7.95,-7.96,-7.57,-6.68,2.71,2.70,2.71
215.69,10.51,7.80,10.52,7.81,-7.83,-7.42,-6.68,2.68,2.69,2.71
217.85,10.37,7.68,10.39,7.69,-7.70,-7.26,-6.69,2.67,2.69,2.69
220.03,10.27,7.58,10.26,7.58,-7.57,-7.11,-6.70,2.70,2.69,2.69
222.23,10.15,7.48,10.14,7.47,-7.45,-6.95,-6.70,2.70,2.69,2.67
224.45,10.01,7.34,10.02,7.35,-7.33,-6.80,-6.71,2.68,2.69,2.67
226.70,9.89,7.23,9.88,7.22,-7.22,-6.65,-6.71,2.68,2.67,2.67
228.96,9.74,7.08,9.76,7.10,-7.10,-6.50,-6.71,2.64,2.65,2.66
231.25,9.64,6.99,9.63,6.98,-7.00,-6.35,-6.70,2.64,2.64,2.65
233.57,9.52,6.89,9.51,6.88,-6.89,-6.21,-6.69,2.63,2.62,2.64
235.90,9.39,6.77,9.40,6.78,-6.79,-6.06,-6.68,2.60,2.61,2.62
238.26,9.29,6.69,9.29,6.69,-6.69,-5.92,-6.66,2.60,2.60,2.60
240.64,9.18,6.59,9.19,6.60,-6.59,-5.78,-6.63,2.59,2.60,2.59
243.05,9.10,6.52,9.09,6.50,-6.49,-5.64,-6.60,2.61,2.60,2.58
245.48,8.99,6.41,8.98,6.40,-6.39,-5.50,-6.56,2.60,2.59,2.58
247.93,8.83,6.26,8.86,6.29,-6.28,-5.37,-6.52,2.55,2.57,2.57
250.41,8.74,6.18,8.73,6.16,-6.17,-5.24,-6.47,2.57,2.56,2.56
252.92,8.61,6.04,8.61,6.04,-6.05,-5.11,-6.41,2.56,2.56,2.57
255.45,8.50,5.92,8.50,5.93,-5.93,-4.98,-6.35,2.58,2.58,2.58
258.00,8.39,5.81,8.38,5.80,-5.79,-4.86,-6.28,2.60,2.59,2.59
260.58,8.25,5.66,8.25,5.66,-5.65,-4.73,-6.20,2.60,2.61,2.59
263.19,8.12,5.51,8.11,5.51,-5.50,-4.61,-6.11,2.62,2.61,2.61
265.82,7.96,5.35,7.97,5.35,-5.35,-4.49,-6.02,2.61,2.62,2.61
268.48,7.83,5.19,7.83,5.19,-5.20,-4.37,-5.93,2.64,2.63,2.64
271.16,7.69,5.03,7.68,5.02,-5.04,-4.26,-5.83,2.65,2.64,2.66
273.87,7.52,4.85,7.54,4.86,-4.87,-4.14,-5.72,2.65,2.66,2.67
276.61,7.39,4.69,7.39,4.70,-4.71,-4.03,-5.61,2.69,2.68,2.70
279.38,7.25,4.54,7.25,4.54,-4.54,-3.92,-5.50,2.71,2.72,2.71
282.17,7.11,4.39,7.11,4.38,-4.37,-3.81,-5.38,2.74,2.74,2.72
284.99,6.96,4.22,6.94,4.20,-4.19,-3.70,-5.26,2.77,2.75,2.74
287.84,6.76,4.00,6.78,4.02,-4.02,-3.59,-5.14,2.74,2.76,2.76
290.72,6.61,3.83,6.61,3.84,-3.84,-3.48,-5.02,2.77,2.77,2.78
293.63,6.46,3.67,6.45,3.65,-3.66,-3.37,-4.89,2.80,2.79,2.79
296.57,6.30,3.48,6.30,3.48,-3.48,-3.27,-4.76,2.82,2.82,2.82
299.53,6.13,3.29,6.13,3.30,-3.29,-3.16,-4.64,2.84,2.84,2.84
302.53,5.97,3.13,5.97,3.11,-3.11,-3.05,-4.51,2.86,2.86,2.85
305.55,5.80,2.92,5.80,2.93,-2.92,-2.94,-4.38,2.88,2.88,2.88
308.61,5.64,2.74,5.64,2.73,-2.74,-2.83,-4.26,2.90,2.90,2.90
311.69,5.47,2.54,5.48,2.55,-2.55,-2.72,-4.13,2.92,2.93,2.93
314.81,5.33,2.36,5.33,2.37,-2.37,-2.61,-4.01,2.97,2.96,2.97
317.96,5.18,2.20,5.17,2.19,-2.18,-2.49,-3.89,3.00,2.99,2.98
321.14,5.01,2.01,5.01,2.01,-2.01,-2.37,-3.76,3.00,3.00,3.00
324.35,4.85,1.83,4.86,1.83,-1.84,-2.25,-3.64,3.01,3.02,3.02
327.59,4.70,1.65,4.71,1.66,-1.67,-2.12,-3.52,3.03,3.04,3.05
330.87,4.59,1.52,4.58,1.51,-1.52,-1.98,-3.41,3.07,3.06,3.07
334.18,4.46,1.36,4.46,1.37,-1.36,-1.84,-3.29,3.10,3.10,3.10
337.52,4.34,1.23,4.35,1.23,-1.22,-1.69,-3.18,3.12,3.13,3.12
340.90,4.23,1.09,4.23,1.08,-1.08,-1.53,-3.07,3.15,3.15,3.14
344.30,4.12,0.95,4.12,0.95,-0.94,-1.36,-2.96,3.18,3.17,3.17
347.75,4.01,0.82,4.01,0.82,-0.82,-1.17,-2.85,3.19,3.20,3.19
351.23,3.91,0.69,3.91,0.70,-0.70,-0.98,-2.74,3.21,3.22,3.22
354.74,3.83,0.58,3.82,0.58,-0.58,-0.78,-2.64,3.25,3.24,3.25
358.28,3.74,0.47,3.74,0.47,-0.48,-0.58,-2.54,3.26,3.27,3.27
361.87,3.67,0.37,3.67,0.38,-0.38,-0.38,-2.44,3.29,3.29,3.30
365.49,3.61,0.29,3.61,0.29,-0.30,-0.19,-2.34,3.32,3.32,3.33
369.14,3.56,0.23,3.56,0.22,-0.22,-0.03,-2.24,3.34,3.34,3.33
372.83,3.52,0.16,3.52,0.16,-0.15,0.10,-2.15,3.37,3.37,3.36
376.56,3.48,0.10,3.48,0.10,-0.09,0.18,-2.05,3.39,3.39,3.38
380.33,3.46,0.04,3.46,0.04,-0.04,0.21,-1.96,3.42,3.41,3.42
384.13,3.43,0.00,3.43,0.00,-0.00,0.20,-1.87,3.43,3.43,3.43
387.97,3.42,-0.03,3.42,-0.03,0.02,0.15,-1.79,3.44,3.44,3.45
391.85,3.42,-0.04,3.42,-0.05,0.04,0.07,-1.70,3.46,3.46,3.46
395.77,3.42,-0.07,3.43,-0.06,0.05,-0.02,-1.62,3.47,3.47,3.49
399.73,3.44,-0.06,3.44,-0.05,0.05,-0.11,-1.53,3.49,3.49,3.50
403.72,3.47,-0.03,3.47,-0.03,0.04,-0.20,-1.45,3.51,3.51,3.50
407.76,3.50,-0.00,3.50,-0.01,0.02,-0.28,-1.37,3.52,3.52,3.51
411.84,3.52,0.01,3.52,0.01,-0.00,-0.34,-1.29,3.52,3.52,3.52
415.96,3.55,0.04,3.55,0.04,-0.03,-0.40,-1.22,3.52,3.52,3.51
420.12,3.58,0.07,3.58,0.06,-0.07,-0.45,-1.14,3.51,3.51,3.51
424.32,3.61,0.10,3.61,0.10,-0.11,-0.49,-1.07,3.50,3.51,3.51
428.56,3.65,0.14,3.65,0.14,-0.15,-0.51,-1.00,3.50,3.50,3.51
432.85,3.70,0.20,3.70,0.19,-0.20,-0.53,-0.93,3.50,3.50,3.50
437.18,3.75,0.25,3.75,0.25,-0.25,-0.54,-0.86,3.50,3.50,3.50
441.55,3.80,0.30,3.80,0.30,-0.30,-0.55,-0.79,3.50,3.50,3.50
445.96,3.85,0.36,3.85,0.36,-0.35,-0.55,-0.72,3.50,3.50,3.49
450.42,3.90,0.41,3.90,0.41,-0.40,-0.54,-0.66,3.51,3.51,3.49
454.93,3.94,0.45,3.94,0.46,-0.44,-0.53,-0.59,3.50,3.51,3.49
459.48,3.98,0.50,3.97,0.48,-0.47,-0.52,-0.53,3.51,3.50,3.48
464.07,3.99,0.50,3.99,0.51,-0.51,-0.51,-0.47,3.49,3.48,3.49
468.71,4.00,0.51,4.01,0.52,-0.54,-0.49,-0.41,3.46,3.48,3.49
473.40,4.04,0.55,4.04,0.55,-0.57,-0.47,-0.35,3.47,3.47,3.49
478.13,4.08,0.58,4.08,0.59,-0.60,-0.45,-0.30,3.48,3.48,3.50
482.91,4.12,0.63,4.12,0.63,-0.63,-0.42,-0.24,3.49,3.49,3.49
487.74,4.16,0.66,4.16,0.66,-0.66,-0.40,-0.19,3.50,3.50,3.50
492.62,4.20,0.69,4.20,0.70,-0.70,-0.37,-0.14,3.50,3.50,3.51
497.55,4.24,0.74,4.24,0.73,-0.73,-0.35,-0.09,3.51,3.50,3.50
502.52,4.27,0.76,4.27,0.77,-0.77,-0.32,-0.04,3.50,3.50,3.51
507.55,4.30,0.79,4.31,0.80,-0.80,-0.29,0.01,3.50,3.50,3.51
512.62,4.34,0.83,4.34,0.82,-0.83,-0.26,0.06,3.51,3.51,3.52
