frequency,raw
20,17.20
21,17.18
22,17.17
23,17.14
24,17.12
25,17.09
26,17.07
27,17.03
28,17.00
29,16.96
30,16.92
31,16.88
32,16.83
33,16.78
34,16.72
35,16.65
36,16.60
37,16.55
38,16.50
39,16.46
40,16.39
41,16.32
42,16.25
43,16.20
44,16.14
45,16.09
46,16.03
47,15.97
48,15.92
49,15.86
50,15.80
51,15.74
52,15.68
53,15.62
54,15.57
55,15.51
56,15.45
57,15.38
58,15.32
59,15.26
60,15.19
61,15.12
62,15.06
63,15.01
64,14.95
65,14.89
66,14.82
67,14.76
68,14.69
69,14.62
70,14.56
71,14.51
72,14.45
73,14.40
74,14.34
75,14.29
76,14.23
77,14.18
78,14.12
79,14.06
80,14.00
81,13.95
82,13.89
83,13.84
84,13.77
85,13.70
86,13.63
87,13.57
88,13.51
89,13.46
90,13.40
91,13.34
92,13.29
93,13.24
94,13.19
95,13.13
96,13.07
97,13.01
98,12.96
99,12.90
100,12.85
101,12.78
102,12.71
104,12.65
105,12.59
106,12.54
107,12.48
108,12.42
109,12.37
110,12.31
111,12.25
112,12.20
113,12.14
114,12.09
115,12.03
117,11.97
118,11.90
119,11.84
120,11.77
121,11.70
123,11.64
124,11.57
125,11.51
126,11.45
128,11.40
129,11.34
130,11.27
131,11.21
133,11.15
134,11.09
135,11.03
137,10.96
138,10.90
140,10.83
141,10.78
142,10.71
144,10.64
145,10.57
147,10.51
148,10.45
150,10.39
151,10.32
153,10.26
154,10.21
156,10.15
157,10.07
159,10.00
160,9.92
162,9.86
164,9.80
165,9.73
167,9.66
169,9.58
170,9.53
172,9.47
174,9.39
175,9.31
177,9.25
179,9.19
181,9.11
183,9.03
184,8.96
186,8.89
188,8.82
190,8.74
192,8.66
194,8.59
196,8.52
198,8.45
200,8.38
202,8.30
204,8.23
206,8.18
208,8.12
210,8.04
212,7.97
214,7.90
216,7.85
218,7.78
221,7.70
223,7.63
225,7.57
227,7.52
229,7.45
232,7.38
234,7.32
236,7.26
239,7.20
241,7.13
244,7.06
246,7.00
248,6.94
251,6.88
253,6.81
256,6.73
259,6.66
261,6.60
264,6.54
266,6.47
269,6.39
272,6.32
274,6.27
277,6.20
280,6.12
283,6.05
286,5.98
288,5.92
291,5.85
294,5.77
297,5.70
300,5.63
303,5.57
306,5.50
309,5.43
312,5.35
316,5.29
319,5.24
322,5.17
325,5.10
328,5.03
332,4.97
335,4.92
338,4.85
342,4.78
345,4.72
349,4.66
352,4.60
356,4.53
359,4.46
363,4.39
366,4.34
370,4.28
374,4.22
377,4.14
381,4.07
385,4.01
389,3.95
393,3.89
397,3.82
401,3.76
405,3.70
409,3.63
413,3.58
417,3.52
421,3.47
425,3.41
430,3.35
434,3.29
438,3.24
443,3.19
447,3.14
451,3.09
456,3.02
460,2.95
465,2.90
470,2.85
474,2.81
479,2.75
484,2.69
489,2.62
494,2.57
499,2.52
504,2.49
509,2.44
514,2.39
519,2.34
524,2.29
529,2.24
535,2.20
540,2.15
545,2.11
551,2.07
556,2.04
562,2.00
568,1.97
573,1.93
579,1.88
585,1.83
591,1.79
596,1.75
602,1.72
608,1.70
615,1.68
621,1.66
627,1.62
633,1.59
639,1.55
646,1.51
652,1.48
659,1.45
665,1.43
672,1.40
679,1.37
686,1.34
692,1.31
699,1.28
706,1.26
713,1.24
721,1.24
728,1.24
735,1.26
742,1.27
750,1.27
757,1.27
765,1.26
773,1.24
780,1.23
788,1.19
796,1.15
804,1.11
812,1.06
820,1.01
828,0.95
837,0.88
845,0.81
853,0.74
862,0.67
871,0.60
879,0.53
888,0.47
897,0.41
906,0.33
915,0.26
924,0.20
933,0.14
943,0.09
952,0.03
962,-0.01
971,-0.03
981,-0.04
991,-0.02
1001,0.00
1011,0.03
1021,0.06
1031,0.10
1041,0.13
1052,0.16
1062,0.17
1073,0.17
1084,0.16
1094,0.14
1105,0.09
1116,0.03
1128,-0.04
1139,-0.12
1150,-0.21
1162,-0.31
1173,-0.40
1185,-0.50
1197,-0.59
1209,-0.67
1221,-0.74
1233,-0.80
1246,-0.86
1258,-0.90
1271,-0.90
1283,-0.89
1296,-0.87
1309,-0.82
1322,-0.75
1335,-0.67
1349,-0.57
1362,-0.43
1376,-0.27
1390,-0.09
1404,0.09
1418,0.26
1432,0.43
1446,0.61
1461,0.81
1475,1.01
1490,1.19
1505,1.37
1520,1.55
1535,1.73
1550,1.92
1566,2.09
1582,2.26
1597,2.42
1613,2.59
1629,2.77
1646,2.95
1662,3.13
1679,3.31
1696,3.50
1713,3.69
1730,3.90
1747,4.11
1764,4.34
1782,4.58
1800,4.81
1818,5.04
1836,5.28
1854,5.52
1873,5.77
1892,6.02
1911,6.26
1930,6.51
1949,6.78
1969,7.04
1988,7.30
2008,7.54
2028,7.77
2048,8.01
2069,8.26
2090,8.49
2111,8.71
2132,8.93
2153,9.13
2175,9.31
2196,9.49
2218,9.64
2240,9.79
2263,9.94
2285,10.07
2308,10.20
2331,10.33
2355,10.45
2378,10.56
2402,10.65
2426,10.73
2450,10.81
2475,10.88
2500,10.95
2525,11.01
2550,11.06
2575,11.12
2601,11.17
2627,11.21
2653,11.25
2680,11.30
2707,11.35
2734,11.42
2761,11.49
2789,11.57
2817,11.63
2845,11.69
2873,11.74
2902,11.79
2931,11.84
2960,11.89
2990,11.92
3020,11.95
3050,11.98
3080,11.99
3111,12.01
3142,12.02
3174,12.00
3206,11.97
3238,11.94
3270,11.90
3303,11.86
3336,11.80
3369,11.73
3403,11.63
3437,11.52
3471,11.39
3506,11.24
3541,11.07
3576,10.89
3612,10.70
3648,10.49
3685,10.29
3721,10.07
3759,9.85
3796,9.62
3834,9.39
3873,9.15
3911,8.91
3950,8.68
3990,8.45
4030,8.22
4070,8.00
4111,7.77
4152,7.56
4193,7.35
4235,7.15
4278,6.96
4321,6.79
4364,6.64
4407,6.48
4451,6.33
4496,6.19
4541,6.05
4586,5.92
4632,5.80
4679,5.68
4725,5.57
4773,5.44
4820,5.30
4868,5.16
4917,5.02
4966,4.88
5016,4.72
5066,4.56
5117,4.40
5168,4.24
5220,4.09
5272,3.93
5325,3.78
5378,3.61
5432,3.47
5486,3.34
5541,3.21
5596,3.10
5652,3.02
5709,2.95
5766,2.90
5823,2.88
5882,2.87
5940,2.90
6000,2.94
6060,3.00
6120,3.07
6182,3.16
6244,3.26
6306,3.37
6369,3.48
6433,3.59
6497,3.69
6562,3.76
6628,3.81
6694,3.81
6761,3.77
6828,3.69
6897,3.59
6966,3.45
7035,3.30
7106,3.11
7177,2.89
7249,2.64
7321,2.36
7394,2.07
7468,1.76
7543,1.42
7618,1.06
7694,0.67
7771,0.27
7849,-0.15
7928,-0.60
8007,-1.08
8087,-1.57
8168,-2.08
8250,-2.58
8332,-3.08
8415,-3.57
8499,-4.05
8584,-4.49
8670,-4.92
8757,-5.31
8845,-5.67
8933,-6.01
9022,-6.29
9113,-6.54
9204,-6.76
9296,-6.93
9389,-7.06
9483,-7.14
9577,-7.16
9673,-7.14
9770,-7.06
9868,-6.91
9966,-6.71
10066,-6.45
10167,-6.15
10268,-5.82
10371,-5.44
10475,-5.04
10579,-4.65
10685,-4.27
10792,-3.91
10900,-3.60
11009,-3.31
11119,-3.07
11230,-2.88
11343,-2.74
11456,-2.64
11571,-2.59
11686,-2.56
11803,-2.55
11921,-2.55
12040,-2.54
12161,-2.53
12282,-2.53
12405,-2.53
12529,-2.55
12655,-2.60
12781,-2.69
12909,-2.83
13038,-2.99
13168,-3.20
13300,-3.44
13433,-3.72
13567,-4.03
13703,-4.36
13840,-4.70
13978,-5.05
14118,-5.37
14259,-5.69
14402,-5.97
14546,-6.24
14692,-6.48
14838,-6.72
14987,-6.98
15137,-7.32
15288,-7.80
15441,-8.45
15595,-9.29
15751,-10.31
15909,-11.51
16068,-12.90
16229,-14.45
16391,-16.13
16555,-17.89
16720,-19.71
16888,-21.55
17056,-23.37
17227,-25.13
17399,-26.78
17573,-28.29
17749,-29.64
17926,-30.80
18106,-31.79
18287,-32.68
18470,-33.45
18654,-34.10
18841,-34.61
19029,-35.01
19220,-35.28
19412,-35.42
19606,-35.44
19802,-35.33
20000,-35.10
