frequency,raw,error,smoothed,error_smoothed,equalization,parametric_eq,fixed_band_eq,equalized_raw,equalized_smoothed,target
20.00,-16.38,-18.29,-16.38,-18.31,6.00,4.40,2.86,-10.38,-10.38,1.91
20.20,-16.24,-18.19,-16.23,-18.19,6.00,4.47,2.94,-10.24,-10.23,1.95
20.40,-16.11,-18.09,-16.09,-18.08,6.00,4.53,3.03,-10.11,-10.09,1.98
20.61,-15.97,-17.98,-15.96,-17.97,6.00,4.60,3.11,-9.97,-9.96,2.01
20.81,-15.83,-17.88,-15.82,-17.86,6.00,4.67,3.20,-9.83,-9.82,2.05
21.02,-15.70,-17.79,-15.68,-17.75,6.00,4.74,3.29,-9.70,-9.68,2.09
21.23,-15.55,-17.65,-15.55,-17.63,6.00,4.80,3.38,-9.55,-9.55,2.10
21.44,-15.40,-17.52,-15.41,-17.52,6.00,4.87,3.48,-9.40,-9.41,2.12
21.66,-15.25,-17.39,-15.28,-17.41,6.00,4.94,3.58,-9.25,-9.28,2.14
21.87,-15.10,-17.25,-15.15,-17.30,6.00,5.01,3.68,-9.10,-9.15,2.15
22.09,-14.96,-17.13,-15.03,-17.19,6.00,5.08,3.78,-8.96,-9.03,2.17
22.31,-14.86,-17.03,-14.90,-17.07,6.00,5.14,3.89,-8.86,-8.90,2.17
22.54,-14.75,-16.93,-14.78,-16.97,6.00,5.21,4.00,-8.75,-8.78,2.18
22.76,-14.64,-16.83,-14.67,-16.86,6.00,5.28,4.11,-8.64,-8.67,2.19
22.99,-14.53,-16.72,-14.55,-16.75,6.00,5.34,4.23,-8.53,-8.55,2.19
23.22,-14.44,-16.64,-14.43,-16.64,6.00,5.41,4.34,-8.44,-8.43,2.20
23.45,-14.34,-16.55,-14.31,-16.52,6.00,5.48,4.46,-8.34,-8.31,2.21
23.69,-14.25,-16.47,-14.19,-16.41,6.00,5.54,4.59,-8.25,-8.19,2.22
23.92,-14.15,-16.38,-14.06,-16.29,6.00,5.61,4.71,-8.15,-8.06,2.23
24.16,-14.01,-16.25,-13.94,-16.16,6.00,5.67,4.84,-8.01,-7.94,2.24
24.40,-13.84,-16.08,-13.80,-16.03,6.00,5.74,4.97,-7.84,-7.80,2.24
24.65,-13.68,-15.92,-13.67,-15.90,6.00,5.80,5.10,-7.68,-7.67,2.23
24.89,-13.51,-15.74,-13.54,-15.77,6.00,5.86,5.24,-7.51,-7.54,2.23
25.14,-13.36,-15.59,-13.40,-15.64,6.00,5.92,5.37,-7.36,-7.40,2.23
25.39,-13.22,-15.45,-13.27,-15.50,6.00,5.98,5.51,-7.22,-7.27,2.23
25.65,-13.08,-15.31,-13.13,-15.37,6.00,6.04,5.65,-7.08,-7.13,2.23
25.91,-12.94,-15.17,-13.00,-15.24,6.00,6.09,5.79,-6.94,-7.00,2.22
26.16,-12.83,-15.06,-12.87,-15.10,6.00,6.15,5.92,-6.83,-6.87,2.23
26.43,-12.73,-14.96,-12.75,-14.97,6.00,6.20,6.06,-6.73,-6.75,2.23
26.69,-12.63,-14.86,-12.62,-14.85,6.00,6.25,6.20,-6.63,-6.62,2.23
26.96,-12.54,-14.77,-12.50,-14.73,6.00,6.30,6.33,-6.54,-6.50,2.23
27.23,-12.42,-14.65,-12.39,-14.61,6.00,6.35,6.47,-6.42,-6.39,2.23
27.50,-12.30,-14.53,-12.27,-14.50,6.00,6.39,6.60,-6.30,-6.27,2.23
27.77,-12.18,-14.40,-12.16,-14.38,6.00,6.44,6.72,-6.18,-6.16,2.22
28.05,-12.06,-14.28,-12.04,-14.26,6.00,6.48,6.84,-6.06,-6.04,2.22
28.33,-11.92,-14.13,-11.91,-14.13,6.00,6.51,6.96,-5.92,-5.91,2.21
28.62,-11.79,-14.01,-11.79,-14.00,6.00,6.55,7.07,-5.79,-5.79,2.21
28.90,-11.66,-13.87,-11.66,-13.88,6.00,6.58,7.17,-5.66,-5.66,2.21
29.19,-11.53,-13.73,-11.54,-13.75,6.00,6.61,7.26,-5.53,-5.54,2.20
29.48,-11.40,-13.61,-11.41,-13.62,6.00,6.64,7.34,-5.40,-5.41,2.21
29.78,-11.27,-13.48,-11.29,-13.50,6.00,6.66,7.42,-5.27,-5.29,2.21
30.08,-11.15,-13.36,-11.17,-13.37,6.00,6.69,7.48,-5.15,-5.17,2.21
30.38,-11.02,-13.22,-11.05,-13.25,6.00,6.70,7.54,-5.02,-5.05,2.20
30.68,-10.90,-13.10,-10.93,-13.12,6.00,6.72,7.58,-4.90,-4.93,2.20
30.99,-10.78,-12.97,-10.80,-12.99,6.00,6.73,7.61,-4.78,-4.80,2.19
31.30,-10.68,-12.87,-10.68,-12.86,6.00,6.74,7.63,-4.68,-4.68,2.19
31.61,-10.59,-12.78,-10.55,-12.73,6.00,6.75,7.63,-4.59,-4.55,2.18
31.93,-10.49,-12.67,-10.43,-12.61,6.00,6.75,7.63,-4.49,-4.43,2.17
32.24,-10.36,-12.52,-10.32,-12.49,6.00,6.75,7.61,-4.36,-4.32,2.16
32.57,-10.22,-12.38,-10.20,-12.36,6.00,6.75,7.58,-4.22,-4.20,2.16
32.89,-10.09,-12.25,-10.07,-12.24,6.00,6.74,7.55,-4.09,-4.07,2.16
33.22,-9.93,-12.09,-9.95,-12.11,6.00,6.73,7.50,-3.93,-3.95,2.16
33.55,-9.77,-11.93,-9.82,-11.98,6.00,6.71,7.44,-3.77,-3.82,2.16
33.89,-9.61,-11.77,-9.70,-11.85,6.00,6.70,7.38,-3.61,-3.70,2.15
34.23,-9.52,-11.67,-9.57,-11.71,6.00,6.68,7.30,-3.52,-3.57,2.15
34.57,-9.47,-11.61,-9.44,-11.58,6.00,6.66,7.23,-3.47,-3.44,2.14
34.92,-9.41,-11.55,-9.31,-11.45,6.00,6.63,7.14,-3.41,-3.31,2.14
35.27,-9.26,-11.40,-9.19,-11.32,6.00,6.60,7.05,-3.26,-3.19,2.14
35.62,-9.08,-11.21,-9.07,-11.20,6.00,6.57,6.96,-3.08,-3.07,2.12
35.97,-8.90,-11.02,-8.96,-11.09,6.00,6.54,6.87,-2.90,-2.96,2.12
36.33,-8.81,-10.93,-8.86,-10.98,6.00,6.50,6.77,-2.81,-2.86,2.12
36.70,-8.72,-10.84,-8.76,-10.87,6.00,6.46,6.67,-2.72,-2.76,2.12
37.06,-8.63,-10.74,-8.66,-10.77,6.00,6.42,6.57,-2.63,-2.66,2.11
37.43,-8.53,-10.63,-8.56,-10.67,6.00,6.37,6.47,-2.53,-2.56,2.10
37.81,-8.42,-10.52,-8.46,-10.55,6.00,6.33,6.37,-2.42,-2.46,2.10
38.19,-8.34,-10.43,-8.35,-10.44,6.00,6.28,6.28,-2.34,-2.35,2.09
38.57,-8.27,-10.36,-8.24,-10.33,6.00,6.23,6.18,-2.27,-2.24,2.09
38.95,-8.20,-10.28,-8.14,-10.22,6.00,6.17,6.09,-2.20,-2.14,2.08
39.34,-8.10,-10.17,-8.04,-10.12,6.00,6.12,6.00,-2.10,-2.04,2.07
39.74,-8.00,-10.06,-7.94,-10.01,6.00,6.06,5.91,-2.00,-1.94,2.06
40.14,-7.87,-9.94,-7.83,-9.89,6.00,6.00,5.82,-1.87,-1.83,2.06
40.54,-7.70,-9.76,-7.71,-9.76,6.00,5.94,5.74,-1.70,-1.71,2.06
40.94,-7.53,-9.59,-7.59,-9.63,6.00,5.88,5.66,-1.53,-1.59,2.06
41.35,-7.43,-9.47,-7.47,-9.50,6.00,5.82,5.58,-1.43,-1.47,2.04
41.76,-7.33,-9.36,-7.35,-9.37,6.00,5.76,5.51,-1.33,-1.35,2.03
42.18,-7.24,-9.26,-7.23,-9.23,6.00,5.69,5.44,-1.24,-1.23,2.01
42.60,-7.14,-9.13,-7.11,-9.09,6.00,5.63,5.38,-1.14,-1.11,1.99
43.03,-7.04,-9.02,-7.00,-8.95,6.00,5.56,5.32,-1.04,-1.00,1.98
43.46,-6.84,-8.79,-6.89,-8.82,6.00,5.49,5.26,-0.84,-0.89,1.95
43.90,-6.65,-8.56,-6.79,-8.70,6.00,5.42,5.21,-0.65,-0.79,1.91
44.33,-6.60,-8.48,-6.68,-8.57,6.00,5.36,5.16,-0.60,-0.68,1.88
44.78,-6.60,-8.45,-6.58,-8.44,6.00,5.29,5.12,-0.60,-0.58,1.85
45.23,-6.53,-8.36,-6.48,-8.32,6.00,5.22,5.08,-0.53,-0.48,1.82
45.68,-6.40,-8.20,-6.38,-8.19,6.00,5.15,5.04,-0.40,-0.38,1.80
46.13,-6.29,-8.07,-6.27,-8.07,6.00,5.08,5.01,-0.29,-0.27,1.78
46.60,-6.21,-7.99,-6.17,-7.95,6.00,5.00,4.98,-0.21,-0.17,1.78
47.06,-6.12,-7.88,-6.07,-7.84,6.00,4.93,4.95,-0.12,-0.07,1.76
47.53,-6.00,-7.76,-5.96,-7.73,6.00,4.86,4.93,-0.00,0.04,1.75
48.01,-5.87,-7.63,-5.86,-7.62,6.00,4.79,4.91,0.13,0.14,1.76
48.49,-5.71,-7.46,-5.76,-7.52,6.00,4.72,4.90,0.29,0.24,1.75
48.97,-5.56,-7.31,-5.65,-7.41,6.00,4.65,4.89,0.44,0.35,1.74
49.46,-5.51,-7.25,-5.53,-7.28,6.00,4.58,4.88,0.49,0.47,1.74
49.96,-5.46,-7.20,-5.41,-7.17,6.00,4.51,4.87,0.54,0.59,1.74
50.46,-5.34,-7.09,-5.30,-7.06,6.00,4.44,4.87,0.66,0.70,1.75
50.96,-5.20,-6.97,-5.20,-6.95,6.00,4.37,4.87,0.80,0.80,1.76
51.47,-5.10,-6.86,-5.10,-6.85,6.00,4.30,4.87,0.90,0.90,1.76
51.99,-5.00,-6.75,-5.00,-6.74,6.00,4.23,4.87,1.00,1.00,1.75
52.51,-4.88,-6.62,-4.91,-6.63,6.00,4.16,4.87,1.12,1.09,1.74
53.03,-4.76,-6.48,-4.81,-6.51,6.00,4.09,4.87,1.24,1.19,1.72
53.56,-4.65,-6.34,-4.71,-6.38,5.98,4.02,4.88,1.33,1.27,1.69
54.10,-4.55,-6.20,-4.61,-6.25,5.95,3.95,4.88,1.40,1.34,1.65
54.64,-4.55,-6.16,-4.51,-6.12,5.90,3.88,4.89,1.35,1.39,1.61
55.18,-4.51,-6.08,-4.41,-5.98,5.83,3.81,4.89,1.32,1.42,1.57
55.74,-4.38,-5.90,-4.31,-5.83,5.75,3.75,4.89,1.36,1.44,1.52
56.29,-4.25,-5.73,-4.20,-5.68,5.64,3.68,4.89,1.39,1.44,1.48
56.86,-4.12,-5.55,-4.11,-5.53,5.52,3.61,4.89,1.40,1.42,1.43
57.42,-3.99,-5.36,-4.01,-5.39,5.39,3.55,4.88,1.39,1.37,1.36
58.00,-3.86,-5.17,-3.91,-5.23,5.23,3.48,4.87,1.37,1.32,1.31
58.58,-3.73,-4.99,-3.81,-5.08,5.08,3.42,4.86,1.35,1.26,1.26
59.16,-3.63,-4.85,-3.71,-4.91,4.91,3.36,4.85,1.28,1.21,1.22
59.76,-3.63,-4.79,-3.60,-4.75,4.75,3.29,4.83,1.12,1.15,1.16
60.35,-3.55,-4.65,-3.50,-4.60,4.60,3.23,4.80,1.05,1.10,1.10
60.96,-3.42,-4.48,-3.39,-4.44,4.44,3.17,4.77,1.01,1.05,1.05
61.57,-3.28,-4.27,-3.29,-4.29,4.29,3.11,4.74,1.00,1.00,0.99
62.18,-3.18,-4.12,-3.19,-4.14,4.14,3.05,4.70,0.96,0.95,0.93
62.80,-3.18,-4.08,-3.10,-4.00,4.00,2.98,4.66,0.82,0.90,0.90
63.43,-3.04,-3.89,-3.01,-3.87,3.87,2.92,4.61,0.83,0.86,0.85
64.07,-2.84,-3.66,-2.92,-3.74,3.74,2.87,4.55,0.90,0.82,0.81
64.71,-2.76,-3.54,-2.83,-3.61,3.61,2.81,4.49,0.85,0.78,0.78
65.35,-2.72,-3.46,-2.74,-3.48,3.48,2.75,4.42,0.76,0.75,0.74
66.01,-2.72,-3.43,-2.64,-3.36,3.36,2.69,4.35,0.64,0.72,0.71
66.67,-2.57,-3.25,-2.55,-3.24,3.24,2.63,4.28,0.66,0.69,0.68
67.33,-2.47,-3.13,-2.47,-3.13,3.13,2.58,4.20,0.66,0.66,0.66
68.01,-2.40,-3.04,-2.39,-3.03,3.03,2.52,4.11,0.63,0.64,0.64
68.69,-2.31,-2.93,-2.32,-2.94,2.94,2.47,4.02,0.63,0.62,0.62
69.37,-2.27,-2.87,-2.26,-2.86,2.86,2.41,3.93,0.59,0.60,0.60
70.07,-2.25,-2.83,-2.21,-2.79,2.79,2.36,3.84,0.54,0.58,0.58
70.77,-2.09,-2.67,-2.17,-2.74,2.74,2.30,3.74,0.65,0.56,0.58
71.48,-2.04,-2.59,-2.14,-2.69,2.69,2.25,3.64,0.64,0.54,0.55
72.19,-2.04,-2.58,-2.11,-2.64,2.64,2.20,3.54,0.59,0.53,0.54
72.91,-2.04,-2.56,-2.08,-2.59,2.59,2.15,3.43,0.55,0.51,0.51
73.64,-2.04,-2.54,-2.06,-2.55,2.55,2.09,3.33,0.51,0.49,0.50
74.38,-2.04,-2.53,-2.04,-2.51,2.51,2.04,3.22,0.47,0.48,0.48
75.12,-2.04,-2.50,-2.02,-2.48,2.48,1.99,3.11,0.44,0.46,0.46
75.87,-2.04,-2.48,-2.00,-2.44,2.44,1.94,3.01,0.40,0.44,0.44
76.63,-2.04,-2.47,-1.97,-2.41,2.41,1.89,2.90,0.36,0.43,0.42
77.40,-2.02,-2.44,-1.94,-2.35,2.35,1.84,2.79,0.33,0.42,0.42
78.17,-1.95,-2.35,-1.89,-2.30,2.30,1.79,2.68,0.35,0.41,0.40
78.95,-1.82,-2.22,-1.85,-2.25,2.25,1.74,2.57,0.43,0.40,0.40
79.74,-1.81,-2.21,-1.79,-2.18,2.18,1.70,2.47,0.37,0.40,0.40
80.54,-1.73,-2.12,-1.72,-2.12,2.12,1.65,2.36,0.38,0.40,0.39
81.35,-1.64,-2.03,-1.64,-2.04,2.04,1.60,2.25,0.40,0.40,0.39
82.16,-1.56,-1.96,-1.56,-1.96,1.96,1.55,2.15,0.40,0.41,0.40
82.98,-1.48,-1.90,-1.47,-1.88,1.88,1.51,2.04,0.40,0.42,0.42
83.81,-1.38,-1.81,-1.38,-1.81,1.81,1.46,1.94,0.43,0.43,0.42
84.65,-1.21,-1.64,-1.29,-1.73,1.73,1.41,1.84,0.52,0.44,0.43
85.50,-1.13,-1.59,-1.19,-1.65,1.65,1.37,1.73,0.52,0.46,0.46
86.35,-1.13,-1.61,-1.10,-1.58,1.58,1.32,1.63,0.45,0.47,0.47
87.22,-1.08,-1.57,-1.02,-1.52,1.52,1.27,1.53,0.43,0.49,0.49
88.09,-0.90,-1.41,-0.95,-1.46,1.46,1.23,1.43,0.55,0.51,0.50
88.97,-0.90,-1.44,-0.86,-1.39,1.39,1.18,1.34,0.49,0.53,0.54
89.86,-0.75,-1.31,-0.79,-1.33,1.33,1.14,1.24,0.58,0.54,0.55
90.76,-0.68,-1.24,-0.72,-1.27,1.27,1.09,1.14,0.59,0.56,0.56
91.66,-0.67,-1.25,-0.65,-1.22,1.22,1.05,1.05,0.55,0.57,0.58
92.58,-0.59,-1.17,-0.59,-1.17,1.17,1.00,0.95,0.58,0.58,0.57
93.51,-0.49,-1.09,-0.53,-1.12,1.12,0.96,0.86,0.63,0.59,0.60
94.44,-0.44,-1.04,-0.47,-1.07,1.07,0.92,0.77,0.62,0.59,0.60
95.39,-0.44,-1.04,-0.42,-1.01,1.01,0.87,0.68,0.57,0.59,0.60
96.34,-0.41,-0.99,-0.36,-0.95,0.95,0.83,0.59,0.54,0.59,0.58
97.30,-0.30,-0.89,-0.31,-0.90,0.90,0.78,0.50,0.60,0.59,0.58
98.28,-0.22,-0.80,-0.26,-0.84,0.84,0.74,0.41,0.62,0.58,0.58
99.26,-0.22,-0.79,-0.20,-0.77,0.77,0.69,0.32,0.55,0.57,0.57
100.25,-0.21,-0.77,-0.15,-0.70,0.70,0.65,0.23,0.49,0.56,0.56
101.25,-0.14,-0.68,-0.09,-0.63,0.63,0.60,0.15,0.49,0.54,0.54
102.27,0.01,-0.51,-0.05,-0.57,0.57,0.56,0.07,0.57,0.52,0.52
103.29,0.01,-0.48,-0.01,-0.50,0.50,0.52,-0.02,0.51,0.49,0.49
104.32,0.01,-0.46,0.04,-0.42,0.42,0.47,-0.10,0.43,0.46,0.47
105.37,0.07,-0.37,0.08,-0.34,0.34,0.43,-0.18,0.41,0.42,0.44
106.42,0.20,-0.20,0.13,-0.25,0.25,0.38,-0.25,0.45,0.38,0.40
107.48,0.24,-0.11,0.18,-0.16,0.16,0.34,-0.33,0.40,0.34,0.35
108.56,0.24,-0.05,0.22,-0.08,0.08,0.29,-0.40,0.32,0.29,0.29
109.64,0.24,-0.01,0.26,0.01,-0.01,0.24,-0.48,0.22,0.24,0.24
110.74,0.24,0.04,0.29,0.10,-0.10,0.20,-0.55,0.14,0.19,0.19
111.85,0.24,0.09,0.32,0.18,-0.18,0.15,-0.62,0.06,0.13,0.15
112.97,0.26,0.18,0.34,0.26,-0.26,0.11,-0.68,-0.00,0.08,0.08
114.10,0.47,0.44,0.36,0.34,-0.34,0.06,-0.74,0.13,0.03,0.03
115.24,0.47,0.50,0.40,0.42,-0.42,0.01,-0.80,0.05,-0.02,-0.03
116.39,0.47,0.56,0.43,0.50,-0.50,-0.04,-0.86,-0.03,-0.07,-0.09
117.55,0.47,0.60,0.45,0.57,-0.57,-0.08,-0.92,-0.10,-0.12,-0.14
118.73,0.47,0.65,0.48,0.64,-0.64,-0.13,-0.97,-0.17,-0.16,-0.18
119.92,0.47,0.68,0.51,0.71,-0.71,-0.18,-1.02,-0.24,-0.20,-0.21
121.12,0.47,0.72,0.54,0.77,-0.77,-0.23,-1.06,-0.30,-0.23,-0.25
122.33,0.47,0.74,0.57,0.83,-0.83,-0.28,-1.10,-0.36,-0.26,-0.27
123.55,0.57,0.85,0.60,0.88,-0.88,-0.33,-1.14,-0.32,-0.28,-0.28
124.79,0.69,0.99,0.62,0.93,-0.93,-0.38,-1.17,-0.24,-0.31,-0.30
126.03,0.70,1.02,0.64,0.96,-0.96,-0.43,-1.21,-0.26,-0.32,-0.32
127.29,0.70,1.03,0.65,0.99,-0.99,-0.48,-1.23,-0.29,-0.34,-0.33
128.57,0.70,1.06,0.67,1.03,-1.03,-0.53,-1.26,-0.33,-0.36,-0.36
129.85,0.70,1.07,0.68,1.06,-1.06,-0.58,-1.28,-0.36,-0.38,-0.37
131.15,0.70,1.08,0.69,1.08,-1.08,-0.64,-1.30,-0.38,-0.39,-0.38
132.46,0.70,1.11,0.69,1.10,-1.10,-0.69,-1.31,-0.40,-0.41,-0.41
133.79,0.70,1.12,0.70,1.12,-1.12,-0.74,-1.33,-0.42,-0.43,-0.42
135.12,0.70,1.15,0.70,1.14,-1.14,-0.79,-1.34,-0.45,-0.44,-0.45
136.48,0.70,1.16,0.71,1.17,-1.17,-0.85,-1.34,-0.47,-0.46,-0.46
137.84,0.70,1.18,0.71,1.19,-1.19,-0.90,-1.35,-0.49,-0.48,-0.48
139.22,0.70,1.22,0.72,1.22,-1.22,-0.96,-1.35,-0.52,-0.50,-0.52
140.61,0.70,1.25,0.73,1.26,-1.26,-1.01,-1.36,-0.56,-0.53,-0.55
142.02,0.70,1.26,0.75,1.31,-1.31,-1.07,-1.36,-0.61,-0.56,-0.56
143.44,0.70,1.29,0.77,1.36,-1.36,-1.12,-1.36,-0.66,-0.59,-0.59
144.87,0.70,1.31,0.80,1.43,-1.43,-1.18,-1.35,-0.73,-0.63,-0.61
146.32,0.85,1.50,0.83,1.50,-1.50,-1.23,-1.35,-0.65,-0.67,-0.65
147.78,0.92,1.60,0.85,1.56,-1.56,-1.28,-1.35,-0.65,-0.71,-0.68
149.26,0.92,1.65,0.87,1.63,-1.63,-1.34,-1.34,-0.71,-0.76,-0.73
150.75,0.92,1.72,0.88,1.69,-1.69,-1.39,-1.34,-0.78,-0.82,-0.80
152.26,0.92,1.77,0.88,1.76,-1.76,-1.45,-1.33,-0.84,-0.87,-0.85
153.78,0.92,1.83,0.88,1.82,-1.82,-1.50,-1.33,-0.90,-0.93,-0.92
155.32,0.92,1.92,0.88,1.87,-1.87,-1.55,-1.33,-0.95,-0.99,-1.00
156.88,0.92,1.98,0.87,1.92,-1.92,-1.60,-1.32,-1.00,-1.05,-1.06
158.44,0.92,2.04,0.85,1.96,-1.96,-1.65,-1.32,-1.05,-1.11,-1.12
160.03,0.86,2.04,0.84,2.01,-2.01,-1.70,-1.31,-1.15,-1.16,-1.18
161.63,0.73,1.96,0.82,2.04,-2.04,-1.75,-1.31,-1.31,-1.21,-1.24
163.24,0.70,1.97,0.80,2.05,-2.05,-1.80,-1.31,-1.35,-1.25,-1.28
164.88,0.70,2.00,0.77,2.06,-2.06,-1.84,-1.31,-1.36,-1.29,-1.31
166.53,0.70,2.03,0.74,2.06,-2.06,-1.88,-1.31,-1.36,-1.31,-1.34
168.19,0.70,2.05,0.71,2.04,-2.04,-1.93,-1.31,-1.34,-1.33,-1.35
169.87,0.70,2.06,0.68,2.02,-2.02,-1.96,-1.31,-1.32,-1.34,-1.36
171.57,0.70,2.06,0.66,2.00,-2.00,-2.00,-1.32,-1.30,-1.34,-1.36
173.29,0.70,2.05,0.63,1.97,-1.97,-2.04,-1.32,-1.27,-1.34,-1.35
175.02,0.70,2.02,0.60,1.94,-1.94,-2.07,-1.33,-1.24,-1.33,-1.32
176.77,0.70,2.02,0.58,1.91,-1.91,-2.10,-1.33,-1.21,-1.33,-1.32
178.54,0.52,1.82,0.57,1.88,-1.88,-2.12,-1.34,-1.37,-1.32,-1.31
180.32,0.47,1.76,0.55,1.86,-1.86,-2.14,-1.35,-1.39,-1.31,-1.29
182.13,0.47,1.74,0.53,1.84,-1.84,-2.16,-1.36,-1.37,-1.30,-1.27
183.95,0.47,1.74,0.51,1.81,-1.81,-2.18,-1.37,-1.34,-1.30,-1.27
185.79,0.47,1.74,0.49,1.79,-1.79,-2.19,-1.38,-1.32,-1.29,-1.27
187.65,0.47,1.75,0.48,1.77,-1.77,-2.20,-1.40,-1.30,-1.29,-1.29
189.52,0.47,1.77,0.47,1.76,-1.76,-2.21,-1.41,-1.30,-1.30,-1.30
191.42,0.47,1.78,0.46,1.76,-1.76,-2.21,-1.43,-1.29,-1.31,-1.31
193.33,0.47,1.79,0.45,1.77,-1.77,-2.21,-1.44,-1.30,-1.32,-1.32
195.27,0.47,1.79,0.45,1.78,-1.78,-2.21,-1.46,-1.31,-1.33,-1.33
197.22,0.47,1.81,0.46,1.80,-1.80,-2.20,-1.48,-1.33,-1.34,-1.34
199.19,0.47,1.84,0.48,1.83,-1.83,-2.19,-1.50,-1.36,-1.35,-1.37
201.18,0.47,1.84,0.49,1.85,-1.85,-2.18,-1.52,-1.38,-1.37,-1.37
203.19,0.47,1.85,0.49,1.87,-1.87,-2.16,-1.54,-1.40,-1.38,-1.38
205.23,0.47,1.87,0.48,1.87,-1.87,-2.14,-1.56,-1.40,-1.39,-1.40
207.28,0.47,1.87,0.47,1.88,-1.88,-2.12,-1.58,-1.41,-1.40,-1.40
209.35,0.47,1.89,0.46,1.87,-1.87,-2.09,-1.60,-1.40,-1.42,-1.42
211.44,0.47,1.90,0.44,1.87,-1.87,-2.07,-1.62,-1.40,-1.42,-1.44
213.56,0.47,1.90,0.43,1.86,-1.86,-2.04,-1.64,-1.40,-1.43,-1.43
215.69,0.47,1.90,0.42,1.86,-1.86,-2.00,-1.66,-1.39,-1.44,-1.43
217.85,0.47,1.92,0.40,1.85,-1.85,-1.97,-1.68,-1.38,-1.45,-1.45
220.03,0.38,1.84,0.38,1.84,-1.84,-1.93,-1.69,-1.46,-1.46,-1.46
222.23,0.28,1.75,0.35,1.81,-1.81,-1.90,-1.71,-1.53,-1.47,-1.48
224.45,0.24,1.71,0.32,1.79,-1.79,-1.86,-1.73,-1.55,-1.47,-1.47
226.70,0.24,1.71,0.28,1.76,-1.76,-1.82,-1.74,-1.52,-1.47,-1.47
228.96,0.24,1.71,0.25,1.72,-1.72,-1.78,-1.75,-1.48,-1.48,-1.48
231.25,0.24,1.71,0.21,1.69,-1.69,-1.73,-1.76,-1.45,-1.48,-1.47
233.57,0.24,1.72,0.17,1.65,-1.65,-1.69,-1.77,-1.41,-1.48,-1.48
235.90,0.24,1.72,0.14,1.62,-1.62,-1.65,-1.78,-1.38,-1.48,-1.49
238.26,0.13,1.61,0.11,1.59,-1.59,-1.60,-1.78,-1.46,-1.47,-1.48
240.64,0.03,1.50,0.09,1.56,-1.56,-1.56,-1.78,-1.53,-1.47,-1.48
243.05,0.01,1.47,0.07,1.53,-1.53,-1.51,-1.78,-1.52,-1.46,-1.46
245.48,0.01,1.47,0.05,1.51,-1.51,-1.47,-1.78,-1.50,-1.46,-1.46
247.93,0.01,1.45,0.04,1.49,-1.49,-1.42,-1.77,-1.48,-1.45,-1.44
250.41,0.01,1.46,0.02,1.47,-1.47,-1.38,-1.76,-1.46,-1.44,-1.45
252.92,0.01,1.44,0.01,1.44,-1.44,-1.33,-1.75,-1.43,-1.43,-1.43
255.45,0.01,1.41,0.00,1.42,-1.42,-1.29,-1.73,-1.41,-1.42,-1.41
258.00,0.01,1.41,0.01,1.41,-1.41,-1.24,-1.71,-1.40,-1.41,-1.40
260.58,0.01,1.40,0.01,1.40,-1.40,-1.20,-1.69,-1.39,-1.39,-1.39
263.19,0.01,1.39,0.01,1.39,-1.39,-1.15,-1.66,-1.38,-1.38,-1.38
265.82,0.01,1.38,0.01,1.38,-1.38,-1.11,-1.64,-1.37,-1.36,-1.37
268.48,0.01,1.35,0.01,1.35,-1.35,-1.06,-1.61,-1.35,-1.34,-1.35
271.16,0.01,1.34,-0.00,1.32,-1.32,-1.02,-1.58,-1.31,-1.32,-1.33
273.87,0.01,1.32,-0.02,1.29,-1.29,-0.98,-1.54,-1.28,-1.30,-1.31
276.61,0.01,1.28,-0.04,1.24,-1.24,-0.94,-1.50,-1.24,-1.28,-1.28
279.38,0.01,1.27,-0.06,1.20,-1.20,-0.90,-1.47,-1.19,-1.25,-1.26
282.17,0.01,1.24,-0.08,1.15,-1.15,-0.86,-1.43,-1.14,-1.23,-1.23
284.99,-0.04,1.16,-0.09,1.11,-1.11,-0.82,-1.38,-1.15,-1.20,-1.20
287.84,-0.21,0.97,-0.11,1.06,-1.06,-0.78,-1.34,-1.28,-1.17,-1.18
290.72,-0.22,0.92,-0.13,1.02,-1.02,-0.74,-1.30,-1.24,-1.14,-1.14
293.63,-0.22,0.89,-0.15,0.96,-0.96,-0.70,-1.25,-1.19,-1.11,-1.11
296.57,-0.22,0.86,-0.18,0.91,-0.91,-0.66,-1.20,-1.13,-1.09,-1.09
299.53,-0.22,0.84,-0.20,0.86,-0.86,-0.63,-1.16,-1.08,-1.06,-1.06
302.53,-0.22,0.82,-0.23,0.80,-0.80,-0.59,-1.11,-1.03,-1.04,-1.04
305.55,-0.22,0.78,-0.26,0.75,-0.75,-0.55,-1.06,-0.98,-1.02,-1.00
308.61,-0.22,0.76,-0.29,0.71,-0.71,-0.52,-1.01,-0.93,-1.00,-0.98
311.69,-0.22,0.74,-0.31,0.67,-0.67,-0.48,-0.96,-0.89,-0.98,-0.97
314.81,-0.22,0.72,-0.33,0.63,-0.63,-0.45,-0.91,-0.86,-0.96,-0.94
317.96,-0.36,0.58,-0.34,0.61,-0.61,-0.42,-0.86,-0.97,-0.95,-0.94
321.14,-0.44,0.50,-0.36,0.58,-0.58,-0.39,-0.81,-1.02,-0.94,-0.94
324.35,-0.44,0.49,-0.38,0.55,-0.55,-0.35,-0.76,-0.99,-0.93,-0.93
327.59,-0.44,0.48,-0.39,0.53,-0.53,-0.32,-0.72,-0.97,-0.92,-0.93
330.87,-0.44,0.48,-0.40,0.51,-0.51,-0.29,-0.67,-0.95,-0.91,-0.92
334.18,-0.44,0.47,-0.41,0.48,-0.48,-0.26,-0.62,-0.93,-0.90,-0.91
337.52,-0.44,0.46,-0.43,0.46,-0.46,-0.23,-0.57,-0.90,-0.88,-0.90
340.90,-0.44,0.43,-0.44,0.43,-0.43,-0.20,-0.52,-0.87,-0.87,-0.87
344.30,-0.44,0.42,-0.46,0.39,-0.39,-0.17,-0.47,-0.84,-0.85,-0.86
347.75,-0.44,0.40,-0.48,0.36,-0.36,-0.14,-0.42,-0.80,-0.84,-0.84
351.23,-0.44,0.37,-0.49,0.33,-0.33,-0.12,-0.38,-0.77,-0.82,-0.82
354.74,-0.44,0.35,-0.50,0.29,-0.29,-0.09,-0.33,-0.73,-0.79,-0.80
358.28,-0.44,0.33,-0.52,0.25,-0.25,-0.06,-0.28,-0.69,-0.77,-0.77
361.87,-0.44,0.31,-0.54,0.21,-0.21,-0.04,-0.24,-0.65,-0.75,-0.75
365.49,-0.61,0.11,-0.56,0.16,-0.16,-0.01,-0.19,-0.77,-0.72,-0.72
369.14,-0.66,0.04,-0.58,0.12,-0.12,0.02,-0.14,-0.78,-0.70,-0.70
372.83,-0.67,0.00,-0.59,0.09,-0.09,0.04,-0.10,-0.76,-0.68,-0.67
376.56,-0.67,-0.02,-0.61,0.05,-0.05,0.07,-0.05,-0.72,-0.66,-0.65
380.33,-0.67,-0.05,-0.63,0.01,-0.01,0.09,-0.01,-0.68,-0.64,-0.62
384.13,-0.67,-0.07,-0.65,-0.03,0.03,0.11,0.04,-0.64,-0.62,-0.60
387.97,-0.67,-0.08,-0.67,-0.07,0.07,0.14,0.08,-0.60,-0.60,-0.60
391.85,-0.67,-0.09,-0.70,-0.11,0.11,0.16,0.13,-0.56,-0.59,-0.59
395.77,-0.67,-0.09,-0.72,-0.15,0.15,0.18,0.17,-0.53,-0.58,-0.58
399.73,-0.67,-0.10,-0.74,-0.18,0.18,0.21,0.22,-0.50,-0.56,-0.57
403.72,-0.67,-0.11,-0.76,-0.20,0.20,0.23,0.26,-0.47,-0.56,-0.56
407.76,-0.67,-0.12,-0.77,-0.22,0.22,0.25,0.30,-0.45,-0.55,-0.55
411.84,-0.81,-0.27,-0.79,-0.24,0.24,0.27,0.34,-0.57,-0.54,-0.54
415.96,-0.89,-0.36,-0.81,-0.27,0.27,0.29,0.38,-0.62,-0.54,-0.53
420.12,-0.90,-0.37,-0.83,-0.30,0.30,0.31,0.43,-0.61,-0.54,-0.53
424.32,-0.90,-0.37,-0.85,-0.32,0.32,0.34,0.47,-0.58,-0.53,-0.53
428.56,-0.90,-0.37,-0.87,-0.34,0.34,0.36,0.50,-0.56,-0.53,-0.53
432.85,-0.90,-0.37,-0.89,-0.36,0.36,0.38,0.54,-0.54,-0.53,-0.53
437.18,-0.90,-0.38,-0.90,-0.38,0.38,0.40,0.58,-0.52,-0.52,-0.52
441.55,-0.90,-0.39,-0.90,-0.38,0.38,0.41,0.61,-0.52,-0.52,-0.51
445.96,-0.90,-0.39,-0.90,-0.39,0.39,0.43,0.65,-0.51,-0.51,-0.51
450.42,-0.90,-0.40,-0.90,-0.40,0.40,0.45,0.68,-0.50,-0.50,-0.50
454.93,-0.90,-0.41,-0.90,-0.41,0.41,0.47,0.71,-0.49,-0.49,-0.50
