frequency,raw,error,smoothed,error_smoothed,equalization,parametric_eq,equalized_raw,equalized_smoothed,target
20,-15.89,-18.16,-15.87,-18.12,6.00,2.66,-9.89,-9.87,2.27
21,-15.57,-17.84,-15.45,-17.70,6.00,3.06,-9.57,-9.45,2.27
22,-15.04,-17.31,-15.04,-17.29,6.00,3.49,-9.04,-9.04,2.27
23,-14.59,-16.86,-14.63,-16.88,6.00,3.96,-8.59,-8.63,2.27
24,-14.16,-16.43,-14.22,-16.47,6.00,4.45,-8.16,-8.22,2.27
25,-13.77,-16.04,-13.81,-16.06,6.00,4.97,-7.77,-7.81,2.27
26,-13.30,-15.57,-13.40,-15.65,6.00,5.48,-7.30,-7.40,2.27
27,-12.97,-15.24,-13.00,-15.25,6.00,5.97,-6.97,-7.00,2.27
28,-12.58,-14.85,-12.60,-14.85,6.00,6.41,-6.58,-6.60,2.27
29,-12.18,-14.45,-12.20,-14.45,6.00,6.77,-6.18,-6.20,2.27
30,-11.80,-14.07,-11.80,-14.05,6.00,7.03,-5.80,-5.80,2.27
31,-11.43,-13.70,-11.40,-13.66,6.00,7.18,-5.43,-5.40,2.27
32,-11.07,-13.34,-11.02,-13.26,6.00,7.23,-5.07,-5.02,2.27
33,-10.72,-12.99,-10.63,-12.87,6.00,7.17,-4.72,-4.63,2.27
34,-10.22,-12.49,-10.23,-12.48,6.00,7.05,-4.22,-4.23,2.27
35,-9.90,-12.17,-9.84,-12.09,6.00,6.88,-3.90,-3.84,2.27
36,-9.43,-11.70,-9.45,-11.70,6.00,6.68,-3.43,-3.45,2.27
37,-9.11,-11.38,-9.06,-11.32,6.00,6.48,-3.11,-3.06,2.27
38,-8.64,-10.91,-8.68,-10.94,6.00,6.28,-2.64,-2.68,2.27
39,-8.27,-10.54,-8.31,-10.57,6.00,6.10,-2.27,-2.31,2.27
40,-7.90,-10.17,-7.96,-10.22,6.00,5.94,-1.90,-1.96,2.27
41,-7.62,-9.89,-7.61,-9.88,6.00,5.80,-1.62,-1.61,2.27
42,-7.24,-9.51,-7.28,-9.55,6.00,5.69,-1.24,-1.28,2.27
43,-6.92,-9.19,-6.96,-9.24,6.00,5.61,-0.92,-0.96,2.27
44,-6.66,-8.93,-6.68,-8.95,6.00,5.55,-0.66,-0.68,2.27
45,-6.41,-8.68,-6.40,-8.67,6.00,5.51,-0.41,-0.40,2.27
46,-6.16,-8.43,-6.15,-8.41,6.00,5.50,-0.16,-0.15,2.27
47,-5.92,-8.19,-5.90,-8.17,6.00,5.50,0.08,0.10,2.27
48,-5.68,-7.95,-5.67,-7.94,6.00,5.52,0.32,0.33,2.27
49,-5.45,-7.72,-5.46,-7.73,6.00,5.56,0.55,0.54,2.27
50,-5.22,-7.49,-5.27,-7.54,6.00,5.61,0.78,0.73,2.27
51,-5.13,-7.40,-5.08,-7.35,6.00,5.67,0.87,0.92,2.27
52,-4.86,-7.13,-4.92,-7.18,6.00,5.73,1.14,1.08,2.27
53,-4.86,-7.13,-4.76,-7.03,6.00,5.80,1.14,1.24,2.27
54,-4.54,-6.81,-4.61,-6.88,6.00,5.87,1.46,1.39,2.27
55,-4.47,-6.74,-4.47,-6.74,6.00,5.93,1.53,1.53,2.27
56,-4.27,-6.54,-4.35,-6.61,6.00,5.99,1.73,1.65,2.27
57,-4.22,-6.49,-4.23,-6.49,6.00,6.05,1.78,1.77,2.27
58,-4.19,-6.46,-4.12,-6.38,6.00,6.09,1.81,1.88,2.27
59,-4.00,-6.27,-4.01,-6.26,6.00,6.11,2.00,1.99,2.27
60,-3.89,-6.16,-3.90,-6.16,5.98,6.13,2.09,2.08,2.27
61,-3.89,-6.16,-3.79,-6.05,5.95,6.12,2.06,2.16,2.27
62,-3.64,-5.91,-3.69,-5.95,5.89,6.10,2.25,2.20,2.27
63,-3.57,-5.84,-3.58,-5.85,5.82,6.06,2.25,2.24,2.27
64,-3.57,-5.84,-3.49,-5.75,5.74,6.01,2.17,2.25,2.27
65,-3.39,-5.66,-3.40,-5.65,5.65,5.95,2.26,2.25,2.27
66,-3.24,-5.51,-3.30,-5.55,5.55,5.87,2.31,2.25,2.27
67,-3.21,-5.48,-3.19,-5.45,5.45,5.78,2.24,2.26,2.27
68,-3.05,-5.32,-3.08,-5.35,5.35,5.68,2.30,2.27,2.27
69,-2.92,-5.19,-2.98,-5.24,5.24,5.57,2.32,2.27,2.27
70,-2.92,-5.19,-2.88,-5.14,5.14,5.46,2.22,2.26,2.27
71,-2.88,-5.15,-2.78,-5.05,5.05,5.34,2.17,2.26,2.27
72,-2.73,-5.00,-2.69,-4.95,4.95,5.22,2.22,2.26,2.27
73,-2.59,-4.86,-2.59,-4.86,4.86,5.10,2.27,2.26,2.27
74,-2.56,-4.83,-2.50,-4.77,4.77,4.98,2.21,2.27,2.27
75,-2.27,-4.54,-2.41,-4.69,4.69,4.86,2.42,2.27,2.27
76,-2.27,-4.54,-2.34,-4.61,4.61,4.74,2.34,2.27,2.27
77,-2.27,-4.54,-2.27,-4.53,4.53,4.63,2.26,2.27,2.27
78,-2.27,-4.54,-2.21,-4.46,4.46,4.52,2.19,2.26,2.27
79,-2.16,-4.43,-2.14,-4.40,4.40,4.42,2.24,2.26,2.27
80,-2.02,-4.29,-2.08,-4.34,4.34,4.31,2.32,2.26,2.27
81,-1.95,-4.22,-2.02,-4.28,4.28,4.22,2.33,2.26,2.27
82,-1.95,-4.22,-1.97,-4.23,4.23,4.12,2.28,2.26,2.27
83,-1.95,-4.22,-1.92,-4.18,4.18,4.03,2.23,2.26,2.27
84,-1.95,-4.22,-1.87,-4.13,4.13,3.95,2.18,2.26,2.27
85,-1.95,-4.22,-1.84,-4.09,4.09,3.87,2.14,2.25,2.27
86,-1.85,-4.12,-1.79,-4.05,4.05,3.80,2.20,2.26,2.27
87,-1.72,-3.99,-1.75,-4.01,4.01,3.73,2.29,2.26,2.27
88,-1.62,-3.89,-1.73,-3.98,3.98,3.66,2.36,2.25,2.27
89,-1.62,-3.89,-1.71,-3.95,3.95,3.60,2.33,2.24,2.27
90,-1.62,-3.89,-1.69,-3.92,3.92,3.54,2.30,2.24,2.27
91,-1.62,-3.89,-1.65,-3.89,3.89,3.49,2.27,2.24,2.27
92,-1.62,-3.89,-1.61,-3.87,3.87,3.44,2.25,2.25,2.27
93,-1.62,-3.89,-1.58,-3.84,3.84,3.40,2.22,2.26,2.27
94,-1.62,-3.89,-1.55,-3.81,3.81,3.35,2.19,2.26,2.27
95,-1.62,-3.89,-1.53,-3.78,3.78,3.32,2.16,2.25,2.27
96,-1.59,-3.86,-1.50,-3.75,3.75,3.28,2.16,2.25,2.27
97,-1.47,-3.74,-1.47,-3.72,3.72,3.25,2.25,2.25,2.27
98,-1.35,-3.62,-1.43,-3.68,3.68,3.22,2.33,2.25,2.27
99,-1.30,-3.57,-1.38,-3.64,3.64,3.19,2.34,2.25,2.27
100,-1.30,-3.57,-1.34,-3.59,3.59,3.16,2.29,2.25,2.27
101,-1.30,-3.57,-1.28,-3.53,3.53,3.14,2.23,2.25,2.27
102,-1.30,-3.57,-1.21,-3.47,3.47,3.12,2.17,2.26,2.27
104,-1.17,-3.44,-1.15,-3.42,3.42,3.08,2.25,2.27,2.27
105,-1.06,-3.33,-1.08,-3.36,3.36,3.06,2.30,2.28,2.27
106,-0.97,-3.24,-1.02,-3.30,3.30,3.05,2.33,2.27,2.27
107,-0.97,-3.24,-0.97,-3.24,3.24,3.03,2.27,2.26,2.27
108,-0.97,-3.24,-0.93,-3.18,3.18,3.02,2.21,2.25,2.27
109,-0.95,-3.22,-0.87,-3.12,3.12,3.01,2.17,2.25,2.27
110,-0.74,-3.01,-0.81,-3.07,3.07,2.99,2.33,2.26,2.27
111,-0.65,-2.92,-0.74,-3.01,3.01,2.98,2.36,2.27,2.27
112,-0.65,-2.92,-0.68,-2.96,2.96,2.97,2.31,2.28,2.27
113,-0.65,-2.92,-0.63,-2.91,2.91,2.96,2.26,2.28,2.27
114,-0.65,-2.92,-0.59,-2.86,2.86,2.94,2.21,2.27,2.27
115,-0.65,-2.92,-0.55,-2.81,2.81,2.93,2.16,2.26,2.27
117,-0.49,-2.76,-0.50,-2.76,2.76,2.90,2.27,2.26,2.27
118,-0.39,-2.66,-0.45,-2.71,2.71,2.89,2.32,2.26,2.27
119,-0.32,-2.59,-0.40,-2.66,2.66,2.88,2.34,2.26,2.27
120,-0.32,-2.59,-0.35,-2.61,2.61,2.86,2.29,2.26,2.27
121,-0.32,-2.59,-0.31,-2.56,2.56,2.84,2.24,2.25,2.27
123,-0.32,-2.59,-0.26,-2.52,2.52,2.81,2.20,2.25,2.27
124,-0.32,-2.59,-0.21,-2.47,2.47,2.79,2.15,2.26,2.27
125,-0.23,-2.50,-0.16,-2.43,2.43,2.77,2.20,2.27,2.27
126,-0.14,-2.41,-0.12,-2.39,2.39,2.75,2.25,2.27,2.27
128,0.00,-2.27,-0.09,-2.36,2.36,2.70,2.36,2.27,2.27
129,0.00,-2.27,-0.08,-2.33,2.33,2.68,2.33,2.26,2.27
130,0.00,-2.27,-0.06,-2.31,2.31,2.66,2.31,2.25,2.27
131,0.00,-2.27,-0.04,-2.29,2.29,2.63,2.29,2.25,2.27
133,0.00,-2.27,-0.01,-2.27,2.27,2.58,2.27,2.26,2.27
134,0.00,-2.27,0.00,-2.26,2.26,2.55,2.26,2.26,2.27
135,0.00,-2.27,0.02,-2.24,2.24,2.53,2.24,2.26,2.27
137,0.00,-2.27,0.03,-2.23,2.23,2.47,2.23,2.26,2.27
138,0.00,-2.27,0.04,-2.21,2.21,2.44,2.21,2.25,2.27
140,0.00,-2.27,0.05,-2.20,2.20,2.38,2.20,2.25,2.27
141,0.00,-2.27,0.07,-2.18,2.18,2.36,2.18,2.24,2.27
142,0.08,-2.19,0.10,-2.15,2.15,2.33,2.23,2.25,2.27
144,0.16,-2.11,0.13,-2.13,2.13,2.27,2.29,2.25,2.27
145,0.16,-2.11,0.16,-2.10,2.10,2.24,2.26,2.26,2.27
147,0.16,-2.11,0.19,-2.07,2.07,2.18,2.23,2.26,2.27
148,0.22,-2.05,0.22,-2.05,2.05,2.15,2.27,2.27,2.27
150,0.32,-1.95,0.25,-2.02,2.02,2.10,2.34,2.27,2.27
151,0.32,-1.95,0.27,-2.00,2.00,2.07,2.32,2.27,2.27
153,0.32,-1.95,0.28,-1.98,1.98,2.02,2.30,2.27,2.27
154,0.32,-1.95,0.30,-1.97,1.97,1.99,2.29,2.27,2.27
156,0.32,-1.95,0.31,-1.95,1.95,1.94,2.27,2.26,2.27
157,0.32,-1.95,0.31,-1.94,1.94,1.91,2.26,2.25,2.27
159,0.32,-1.95,0.33,-1.92,1.92,1.86,2.24,2.25,2.27
160,0.32,-1.95,0.35,-1.90,1.90,1.84,2.22,2.25,2.27
162,0.32,-1.95,0.37,-1.88,1.88,1.79,2.20,2.25,2.27
164,0.32,-1.95,0.39,-1.86,1.86,1.75,2.18,2.25,2.27
165,0.32,-1.95,0.41,-1.84,1.84,1.72,2.16,2.25,2.27
167,0.45,-1.82,0.45,-1.81,1.81,1.68,2.26,2.25,2.27
169,0.49,-1.78,0.48,-1.78,1.78,1.64,2.27,2.26,2.27
170,0.49,-1.78,0.50,-1.75,1.75,1.62,2.24,2.25,2.27
172,0.62,-1.65,0.53,-1.72,1.72,1.59,2.34,2.25,2.27
174,0.65,-1.62,0.56,-1.69,1.69,1.55,2.34,2.25,2.27
175,0.65,-1.62,0.59,-1.66,1.66,1.53,2.31,2.25,2.27
177,0.65,-1.62,0.63,-1.63,1.63,1.50,2.28,2.26,2.27
179,0.65,-1.62,0.66,-1.60,1.60,1.47,2.25,2.26,2.27
181,0.65,-1.62,0.69,-1.57,1.57,1.44,2.22,2.26,2.27
183,0.65,-1.62,0.71,-1.55,1.55,1.41,2.20,2.26,2.27
184,0.65,-1.62,0.73,-1.52,1.52,1.40,2.17,2.25,2.27
186,0.69,-1.58,0.75,-1.50,1.50,1.38,2.19,2.25,2.27
188,0.81,-1.46,0.78,-1.47,1.47,1.35,2.28,2.25,2.27
190,0.81,-1.46,0.80,-1.45,1.45,1.33,2.26,2.25,2.27
192,0.89,-1.38,0.83,-1.42,1.42,1.31,2.31,2.26,2.27
194,0.94,-1.33,0.86,-1.40,1.40,1.29,2.34,2.26,2.27
196,0.82,-1.45,0.89,-1.37,1.37,1.27,2.19,2.27,2.27
198,0.91,-1.36,0.92,-1.35,1.35,1.25,2.26,2.27,2.27
200,0.97,-1.30,0.94,-1.34,1.34,1.24,2.31,2.27,2.27
202,0.97,-1.30,0.96,-1.32,1.32,1.22,2.29,2.28,2.27
204,0.97,-1.30,0.97,-1.31,1.31,1.21,2.28,2.28,2.27
206,0.97,-1.30,0.97,-1.30,1.30,1.19,2.27,2.27,2.27
208,0.97,-1.30,0.97,-1.30,1.30,1.18,2.27,2.27,2.27
210,0.97,-1.30,0.97,-1.30,1.30,1.17,2.27,2.27,2.27
212,0.97,-1.30,0.97,-1.30,1.30,1.16,2.27,2.27,2.27
214,0.97,-1.30,0.97,-1.30,1.30,1.15,2.27,2.27,2.27
216,0.97,-1.30,0.97,-1.30,1.30,1.14,2.27,2.27,2.27
218,0.97,-1.30,0.96,-1.30,1.30,1.13,2.27,2.26,2.27
221,0.97,-1.30,0.95,-1.30,1.30,1.12,2.27,2.25,2.27
223,0.97,-1.30,0.96,-1.29,1.29,1.11,2.26,2.25,2.27
225,0.97,-1.30,0.97,-1.28,1.28,1.10,2.25,2.25,2.27
227,0.97,-1.30,0.99,-1.26,1.26,1.10,2.23,2.25,2.27
229,0.97,-1.30,1.02,-1.24,1.24,1.09,2.21,2.25,2.27
232,0.97,-1.30,1.04,-1.21,1.21,1.08,2.18,2.25,2.27
234,1.02,-1.25,1.08,-1.18,1.18,1.08,2.20,2.25,2.27
236,1.11,-1.16,1.11,-1.15,1.15,1.08,2.26,2.26,2.27
239,1.14,-1.13,1.14,-1.11,1.11,1.07,2.25,2.26,2.27
241,1.19,-1.08,1.18,-1.08,1.08,1.07,2.27,2.26,2.27
244,1.30,-0.97,1.21,-1.05,1.05,1.07,2.35,2.26,2.27
246,1.30,-0.97,1.24,-1.02,1.02,1.06,2.32,2.26,2.27
248,1.30,-0.97,1.27,-1.00,1.00,1.06,2.30,2.26,2.27
251,1.30,-0.97,1.29,-0.98,0.98,1.06,2.28,2.27,2.27
253,1.30,-0.97,1.31,-0.96,0.96,1.06,2.26,2.27,2.27
256,1.30,-0.97,1.32,-0.95,0.95,1.06,2.25,2.27,2.27
259,1.30,-0.97,1.33,-0.94,0.94,1.06,2.24,2.27,2.27
261,1.30,-0.97,1.32,-0.94,0.94,1.06,2.24,2.26,2.27
264,1.30,-0.97,1.31,-0.94,0.94,1.06,2.24,2.26,2.27
266,1.30,-0.97,1.31,-0.95,0.95,1.06,2.25,2.26,2.27
269,1.30,-0.97,1.30,-0.96,0.96,1.06,2.26,2.26,2.27
272,1.30,-0.97,1.30,-0.96,0.96,1.07,2.26,2.26,2.27
274,1.30,-0.97,1.30,-0.97,0.97,1.07,2.27,2.27,2.27
277,1.30,-0.97,1.28,-0.99,0.99,1.07,2.29,2.27,2.27
280,1.30,-0.97,1.27,-1.01,1.01,1.08,2.31,2.27,2.27
283,1.22,-1.05,1.25,-1.03,1.03,1.08,2.25,2.27,2.27
286,1.17,-1.10,1.22,-1.05,1.05,1.09,2.22,2.27,2.27
288,1.25,-1.02,1.19,-1.08,1.08,1.10,2.33,2.27,2.27
291,1.23,-1.04,1.16,-1.10,1.10,1.10,2.33,2.26,2.27
294,1.14,-1.13,1.13,-1.13,1.13,1.11,2.27,2.26,2.27
297,1.14,-1.13,1.10,-1.16,1.16,1.12,2.30,2.26,2.27
300,1.04,-1.23,1.07,-1.19,1.19,1.13,2.23,2.26,2.27
303,0.97,-1.30,1.04,-1.21,1.21,1.14,2.18,2.26,2.27
306,0.97,-1.30,1.02,-1.24,1.24,1.15,2.21,2.26,2.27
309,0.97,-1.30,1.00,-1.26,1.26,1.16,2.23,2.26,2.27
312,0.97,-1.30,0.98,-1.28,1.28,1.17,2.25,2.26,2.27
316,0.97,-1.30,0.97,-1.29,1.29,1.19,2.26,2.26,2.27
319,0.97,-1.30,0.96,-1.30,1.30,1.21,2.27,2.25,2.27
322,0.97,-1.30,0.95,-1.30,1.30,1.22,2.27,2.26,2.27
325,0.97,-1.30,0.96,-1.31,1.31,1.24,2.28,2.26,2.27
328,0.97,-1.30,0.96,-1.31,1.31,1.25,2.28,2.27,2.27
332,0.97,-1.30,0.97,-1.31,1.31,1.27,2.28,2.27,2.27
335,0.97,-1.30,0.97,-1.31,1.31,1.29,2.28,2.28,2.27
338,0.97,-1.30,0.97,-1.30,1.30,1.31,2.27,2.27,2.27
342,0.97,-1.30,0.97,-1.30,1.30,1.34,2.27,2.27,2.27
345,0.97,-1.30,0.97,-1.30,1.30,1.36,2.27,2.27,2.27
349,0.97,-1.30,0.97,-1.30,1.30,1.38,2.27,2.27,2.27
352,0.97,-1.30,0.97,-1.29,1.29,1.40,2.26,2.26,2.27
356,0.97,-1.30,0.97,-1.29,1.29,1.43,2.26,2.26,2.27
359,0.97,-1.30,0.98,-1.28,1.28,1.46,2.25,2.27,2.27
363,0.97,-1.30,0.98,-1.28,1.28,1.49,2.25,2.27,2.27
366,0.97,-1.30,0.98,-1.28,1.28,1.51,2.25,2.27,2.27
370,0.97,-1.30,0.99,-1.29,1.29,1.54,2.26,2.27,2.27
374,0.97,-1.30,0.98,-1.29,1.29,1.58,2.26,2.27,2.27
377,0.97,-1.30,0.97,-1.30,1.30,1.60,2.27,2.27,2.27
381,0.97,-1.30,0.95,-1.32,1.32,1.63,2.29,2.26,2.27
385,0.97,-1.30,0.92,-1.34,1.34,1.67,2.31,2.26,2.27
389,0.97,-1.30,0.89,-1.36,1.36,1.71,2.33,2.25,2.27
393,0.91,-1.36,0.87,-1.38,1.38,1.74,2.29,2.25,2.27
397,0.81,-1.46,0.84,-1.41,1.41,1.78,2.22,2.25,2.27
401,0.81,-1.46,0.82,-1.44,1.44,1.81,2.25,2.26,2.27
405,0.74,-1.53,0.79,-1.48,1.48,1.85,2.22,2.26,2.27
409,0.65,-1.62,0.75,-1.51,1.51,1.89,2.16,2.26,2.27
413,0.65,-1.62,0.71,-1.55,1.55,1.92,2.20,2.26,2.27
417,0.65,-1.62,0.67,-1.59,1.59,1.96,2.24,2.25,2.27
421,0.65,-1.62,0.62,-1.63,1.63,2.00,2.28,2.25,2.27
425,0.65,-1.62,0.58,-1.66,1.66,2.03,2.31,2.24,2.27
430,0.65,-1.62,0.54,-1.70,1.70,2.07,2.35,2.24,2.27
434,0.60,-1.67,0.51,-1.73,1.73,2.11,2.33,2.24,2.27
438,0.50,-1.77,0.48,-1.77,1.77,2.14,2.27,2.25,2.27
443,0.37,-1.90,0.45,-1.80,1.80,2.18,2.17,2.25,2.27
447,0.32,-1.95,0.43,-1.83,1.83,2.21,2.15,2.26,2.27
451,0.32,-1.95,0.40,-1.86,1.86,2.24,2.18,2.26,2.27
456,0.32,-1.95,0.37,-1.89,1.89,2.28,2.21,2.26,2.27
460,0.32,-1.95,0.33,-1.92,1.92,2.30,2.24,2.26,2.27
465,0.32,-1.95,0.30,-1.96,1.96,2.33,2.28,2.25,2.27
470,0.32,-1.95,0.26,-1.99,1.99,2.36,2.31,2.25,2.27
474,0.32,-1.95,0.23,-2.02,2.02,2.38,2.34,2.25,2.27
479,0.30,-1.97,0.20,-2.05,2.05,2.41,2.35,2.25,2.27
484,0.18,-2.09,0.18,-2.08,2.08,2.43,2.26,2.25,2.27
489,0.16,-2.11,0.15,-2.11,2.11,2.44,2.27,2.26,2.27
494,0.11,-2.16,0.12,-2.14,2.14,2.46,2.25,2.26,2.27
499,0.00,-2.27,0.09,-2.16,2.16,2.47,2.16,2.25,2.27
504,0.00,-2.27,0.07,-2.18,2.18,2.48,2.18,2.25,2.27
509,0.00,-2.27,0.05,-2.20,2.20,2.49,2.20,2.25,2.27
514,0.00,-2.27,0.03,-2.22,2.22,2.49,2.22,2.26,2.27
519,0.00,-2.27,0.02,-2.24,2.24,2.50,2.24,2.26,2.27
524,0.00,-2.27,-0.00,-2.26,2.26,2.50,2.26,2.26,2.27
529,0.00,-2.27,-0.02,-2.27,2.27,2.50,2.27,2.26,2.27
535,0.00,-2.27,-0.03,-2.29,2.29,2.49,2.29,2.26,2.27
540,0.00,-2.27,-0.06,-2.31,2.31,2.49,2.31,2.25,2.27
545,0.00,-2.27,-0.08,-2.33,2.33,2.48,2.33,2.25,2.27
551,0.00,-2.27,-0.10,-2.36,2.36,2.47,2.36,2.26,2.27
556,-0.09,-2.36,-0.12,-2.38,2.38,2.46,2.29,2.26,2.27
562,-0.21,-2.48,-0.15,-2.41,2.41,2.45,2.20,2.26,2.27
568,-0.32,-2.59,-0.19,-2.45,2.45,2.44,2.13,2.26,2.27
573,-0.32,-2.59,-0.23,-2.48,2.48,2.43,2.16,2.25,2.27
579,-0.32,-2.59,-0.27,-2.52,2.52,2.42,2.20,2.25,2.27
585,-0.32,-2.59,-0.30,-2.56,2.56,2.40,2.24,2.26,2.27
591,-0.32,-2.59,-0.35,-2.61,2.61,2.39,2.29,2.26,2.27
596,-0.32,-2.59,-0.40,-2.66,2.66,2.38,2.34,2.26,2.27
602,-0.33,-2.60,-0.45,-2.70,2.70,2.37,2.37,2.26,2.27
608,-0.45,-2.72,-0.50,-2.76,2.76,2.36,2.31,2.25,2.27
615,-0.58,-2.85,-0.55,-2.81,2.81,2.35,2.23,2.26,2.27
621,-0.65,-2.92,-0.60,-2.86,2.86,2.34,2.21,2.26,2.27
627,-0.65,-2.92,-0.65,-2.92,2.92,2.33,2.27,2.27,2.27
633,-0.65,-2.92,-0.71,-2.97,2.97,2.32,2.32,2.26,2.27
639,-0.72,-2.99,-0.77,-3.03,3.03,2.32,2.31,2.26,2.27
646,-0.97,-3.24,-0.82,-3.08,3.08,2.31,2.11,2.26,2.27
652,-0.97,-3.24,-0.87,-3.14,3.14,2.31,2.17,2.26,2.27
659,-0.97,-3.24,-0.93,-3.19,3.19,2.31,2.22,2.26,2.27
665,-0.97,-3.24,-0.98,-3.23,3.23,2.31,2.26,2.26,2.27
672,-0.97,-3.24,-1.02,-3.28,3.28,2.31,2.31,2.26,2.27
679,-0.97,-3.24,-1.06,-3.31,3.31,2.32,2.34,2.26,2.27
686,-1.00,-3.27,-1.10,-3.35,3.35,2.32,2.35,2.25,2.27
692,-1.10,-3.37,-1.14,-3.37,3.37,2.33,2.27,2.24,2.27
699,-1.14,-3.41,-1.16,-3.39,3.39,2.34,2.25,2.24,2.27
706,-1.16,-3.43,-1.16,-3.41,3.41,2.35,2.25,2.25,2.27
713,-1.27,-3.54,-1.15,-3.41,3.41,2.36,2.14,2.26,2.27
721,-1.30,-3.57,-1.16,-3.41,3.41,2.38,2.11,2.26,2.27
728,-1.25,-3.52,-1.15,-3.41,3.41,2.40,2.16,2.26,2.27
735,-1.14,-3.41,-1.14,-3.40,3.40,2.41,2.26,2.25,2.27
742,-1.14,-3.41,-1.13,-3.38,3.38,2.43,2.24,2.25,2.27
750,-1.08,-3.35,-1.12,-3.36,3.36,2.46,2.28,2.25,2.27
757,-0.97,-3.24,-1.10,-3.34,3.34,2.48,2.37,2.24,2.27
765,-0.97,-3.24,-1.07,-3.31,3.31,2.51,2.34,2.24,2.27
773,-0.97,-3.24,-1.03,-3.28,3.28,2.53,2.31,2.25,2.27
780,-0.97,-3.24,-0.99,-3.25,3.25,2.56,2.28,2.26,2.27
788,-0.97,-3.24,-0.95,-3.22,3.22,2.59,2.25,2.27,2.27
796,-0.97,-3.24,-0.91,-3.19,3.19,2.62,2.22,2.28,2.27
804,-0.97,-3.24,-0.88,-3.16,3.16,2.65,2.19,2.27,2.27
812,-0.97,-3.24,-0.87,-3.12,3.12,2.68,2.15,2.26,2.27
820,-0.88,-3.15,-0.84,-3.09,3.09,2.72,2.21,2.25,2.27
828,-0.77,-3.04,-0.81,-3.06,3.06,2.75,2.29,2.24,2.27
837,-0.65,-2.92,-0.78,-3.02,3.02,2.78,2.37,2.24,2.27
845,-0.65,-2.92,-0.73,-2.99,2.99,2.81,2.34,2.25,2.27
853,-0.65,-2.92,-0.68,-2.95,2.95,2.85,2.30,2.26,2.27
862,-0.65,-2.92,-0.64,-2.90,2.90,2.88,2.25,2.27,2.27
871,-0.65,-2.92,-0.59,-2.86,2.86,2.91,2.21,2.27,2.27
879,-0.65,-2.92,-0.55,-2.82,2.82,2.93,2.17,2.27,2.27
888,-0.61,-2.88,-0.50,-2.77,2.77,2.96,2.16,2.27,2.27
897,-0.38,-2.65,-0.45,-2.72,2.72,2.99,2.34,2.27,2.27
906,-0.32,-2.59,-0.41,-2.67,2.67,3.01,2.35,2.26,2.27
915,-0.32,-2.59,-0.36,-2.62,2.62,3.03,2.30,2.26,2.27
924,-0.32,-2.59,-0.31,-2.58,2.58,3.04,2.26,2.27,2.27
933,-0.32,-2.59,-0.26,-2.53,2.53,3.05,2.21,2.27,2.27
943,-0.27,-2.54,-0.21,-2.48,2.48,3.06,2.21,2.27,2.27
952,-0.17,-2.44,-0.17,-2.44,2.44,3.06,2.27,2.27,2.27
962,-0.05,-2.32,-0.13,-2.39,2.39,3.06,2.34,2.27,2.27
971,0.00,-2.27,-0.08,-2.35,2.35,3.06,2.35,2.27,2.27
981,0.00,-2.27,-0.05,-2.31,2.31,3.04,2.31,2.26,2.27
991,0.00,-2.27,-0.01,-2.27,2.27,3.03,2.27,2.26,2.27
1001,0.00,-2.27,0.03,-2.23,2.23,3.01,2.23,2.26,2.27
1011,0.00,-2.27,0.08,-2.20,2.20,2.98,2.20,2.27,2.27
1021,0.00,-2.27,0.11,-2.16,2.16,2.95,2.16,2.27,2.27
1031,0.09,-2.18,0.14,-2.12,2.12,2.91,2.21,2.27,2.27
1041,0.19,-2.08,0.17,-2.09,2.09,2.87,2.28,2.25,2.27
1052,0.31,-1.96,0.19,-2.05,2.05,2.82,2.36,2.25,2.27
1062,0.32,-1.95,0.23,-2.02,2.02,2.77,2.34,2.24,2.27
1073,0.32,-1.95,0.27,-1.98,1.98,2.71,2.30,2.25,2.27
1084,0.32,-1.95,0.32,-1.94,1.94,2.65,2.26,2.26,2.27
1094,0.32,-1.95,0.37,-1.90,1.90,2.58,2.22,2.27,2.27
1105,0.32,-1.95,0.41,-1.87,1.87,2.51,2.19,2.28,2.27
1116,0.33,-1.94,0.45,-1.83,1.83,2.44,2.16,2.28,2.27
1128,0.45,-1.82,0.48,-1.79,1.79,2.36,2.24,2.27,2.27
1139,0.56,-1.71,0.50,-1.75,1.75,2.28,2.31,2.25,2.27
1150,0.65,-1.62,0.53,-1.72,1.72,2.20,2.37,2.25,2.27
1162,0.65,-1.62,0.57,-1.68,1.68,2.12,2.33,2.25,2.27
1173,0.65,-1.62,0.62,-1.64,1.64,2.04,2.29,2.26,2.27
1185,0.65,-1.62,0.66,-1.61,1.61,1.95,2.26,2.27,2.27
1197,0.65,-1.62,0.71,-1.57,1.57,1.86,2.22,2.27,2.27
1209,0.65,-1.62,0.74,-1.53,1.53,1.77,2.18,2.27,2.27
1221,0.70,-1.57,0.78,-1.49,1.49,1.68,2.19,2.27,2.27
1233,0.81,-1.46,0.81,-1.45,1.45,1.59,2.26,2.26,2.27
1246,0.93,-1.34,0.85,-1.41,1.41,1.49,2.34,2.25,2.27
1258,0.97,-1.30,0.89,-1.36,1.36,1.40,2.33,2.25,2.27
1271,0.97,-1.30,0.94,-1.32,1.32,1.30,2.29,2.26,2.27
1283,0.97,-1.30,0.99,-1.28,1.28,1.21,2.25,2.27,2.27
1296,0.97,-1.30,1.04,-1.24,1.24,1.12,2.21,2.28,2.27
1309,1.00,-1.27,1.09,-1.19,1.19,1.02,2.19,2.28,2.27
1322,1.11,-1.16,1.13,-1.15,1.15,0.93,2.26,2.28,2.27
1335,1.22,-1.05,1.16,-1.11,1.11,0.84,2.33,2.27,2.27
1349,1.30,-0.97,1.20,-1.07,1.07,0.74,2.37,2.27,2.27
1362,1.30,-0.97,1.23,-1.03,1.03,0.65,2.33,2.27,2.27
1376,1.30,-0.97,1.26,-0.99,0.99,0.55,2.29,2.26,2.27
1390,1.30,-0.97,1.30,-0.95,0.95,0.46,2.25,2.25,2.27
1404,1.30,-0.97,1.34,-0.91,0.91,0.36,2.21,2.26,2.27
1418,1.30,-0.97,1.39,-0.87,0.87,0.27,2.17,2.26,2.27
1432,1.36,-0.91,1.44,-0.83,0.83,0.18,2.19,2.27,2.27
1446,1.47,-0.80,1.48,-0.78,0.78,0.09,2.25,2.25,2.27
1461,1.59,-0.68,1.52,-0.73,0.73,-0.01,2.32,2.25,2.27
1475,1.62,-0.65,1.57,-0.67,0.67,-0.10,2.29,2.25,2.27
1490,1.62,-0.65,1.64,-0.61,0.61,-0.19,2.23,2.25,2.27
1505,1.62,-0.65,1.71,-0.54,0.54,-0.28,2.16,2.25,2.27
1520,1.80,-0.47,1.78,-0.47,0.47,-0.37,2.27,2.25,2.27
1535,1.95,-0.32,1.85,-0.39,0.39,-0.46,2.34,2.24,2.27
1550,1.95,-0.32,1.92,-0.31,0.31,-0.55,2.26,2.24,2.27
1566,1.95,-0.32,2.01,-0.23,0.23,-0.64,2.18,2.24,2.27
1582,2.06,-0.21,2.09,-0.14,0.14,-0.74,2.20,2.23,2.27
1597,2.27,-0.00,2.19,-0.04,0.04,-0.82,2.31,2.22,2.27
1613,2.27,-0.00,2.29,0.07,-0.07,-0.91,2.20,2.22,2.27
1629,2.33,0.06,2.40,0.17,-0.17,-0.99,2.16,2.22,2.27
1646,2.45,0.18,2.51,0.29,-0.29,-1.08,2.16,2.22,2.27
1662,2.56,0.29,2.63,0.40,-0.40,-1.16,2.16,2.23,2.27
1679,2.75,0.48,2.75,0.52,-0.52,-1.25,2.23,2.22,2.27
1696,2.95,0.68,2.87,0.65,-0.65,-1.33,2.30,2.22,2.27
1713,3.06,0.79,3.01,0.78,-0.78,-1.41,2.28,2.24,2.27
1730,3.17,0.90,3.15,0.90,-0.90,-1.48,2.27,2.24,2.27
1747,3.28,1.01,3.28,1.03,-1.03,-1.56,2.25,2.24,2.27
1764,3.39,1.12,3.41,1.16,-1.16,-1.62,2.23,2.25,2.27
1782,3.51,1.24,3.55,1.29,-1.29,-1.69,2.22,2.26,2.27
1800,3.67,1.40,3.68,1.41,-1.41,-1.76,2.26,2.26,2.27
1818,3.89,1.62,3.81,1.54,-1.54,-1.82,2.35,2.27,2.27
1836,3.89,1.62,3.93,1.66,-1.66,-1.87,2.23,2.27,2.27
1854,4.02,1.75,4.05,1.78,-1.78,-1.92,2.24,2.27,2.27
1873,4.22,1.95,4.16,1.90,-1.90,-1.97,2.32,2.26,2.27
1892,4.22,1.95,4.27,2.01,-2.01,-2.01,2.21,2.26,2.27
1911,4.38,2.11,4.39,2.12,-2.12,-2.05,2.26,2.26,2.27
1930,4.54,2.27,4.50,2.23,-2.23,-2.08,2.31,2.27,2.27
1949,4.54,2.27,4.61,2.33,-2.33,-2.11,2.21,2.27,2.27
1969,4.73,2.46,4.71,2.43,-2.43,-2.13,2.30,2.28,2.27
