frequency,raw,error,smoothed,error_smoothed,equalization,parametric_eq,equalized_raw,equalized_smoothed,target
20,19.25,16.78,22.37,20.85,-20.85,-5.80,-1.60,1.52,2.46
21,19.85,17.39,21.18,19.58,-19.58,-6.53,0.27,1.60,2.46
22,20.62,18.16,20.06,18.38,-18.38,-7.33,2.24,1.69,2.46
23,20.99,18.53,19.01,17.25,-17.25,-8.19,3.74,1.76,2.46
24,20.64,18.18,18.02,16.19,-16.19,-9.11,4.45,1.83,2.45
25,19.60,17.15,17.09,15.20,-15.20,-10.09,4.40,1.90,2.45
26,17.93,15.48,16.23,14.28,-14.28,-11.12,3.65,1.96,2.45
27,15.91,13.46,15.44,13.43,-13.43,-12.17,2.48,2.01,2.44
28,14.02,11.58,14.71,12.65,-12.65,-13.19,1.37,2.06,2.44
29,12.57,10.13,14.04,11.93,-11.93,-14.09,0.63,2.10,2.44
30,11.69,9.26,13.44,11.29,-11.29,-14.76,0.39,2.14,2.43
31,11.36,8.93,12.61,10.64,-10.64,-15.10,0.72,1.97,2.43
32,11.36,8.94,11.91,10.04,-10.04,-15.06,1.32,1.87,2.42
33,11.45,9.03,11.40,9.53,-9.53,-14.69,1.92,1.87,2.41
34,11.52,9.11,11.09,9.16,-9.16,-14.11,2.35,1.93,2.41
35,11.52,9.12,10.98,8.94,-8.94,-13.42,2.57,2.04,2.40
36,11.48,9.09,11.00,8.85,-8.85,-12.71,2.63,2.15,2.39
37,11.41,9.02,11.09,8.81,-8.81,-12.01,2.59,2.28,2.38
38,11.34,8.96,11.19,8.78,-8.78,-11.36,2.55,2.41,2.37
39,11.29,8.92,11.24,8.75,-8.75,-10.76,2.54,2.49,2.36
40,11.24,8.88,11.23,8.74,-8.74,-10.22,2.50,2.49,2.35
41,11.19,8.85,11.16,8.73,-8.73,-9.73,2.45,2.43,2.34
42,11.10,8.77,11.06,8.71,-8.71,-9.29,2.39,2.35,2.33
43,10.99,8.67,10.94,8.65,-8.65,-8.90,2.34,2.30,2.32
44,10.86,8.56,10.82,8.54,-8.54,-8.54,2.31,2.28,2.30
45,10.71,8.42,10.70,8.43,-8.43,-8.23,2.28,2.27,2.29
46,10.55,8.28,10.57,8.31,-8.31,-7.95,2.24,2.26,2.27
47,10.39,8.13,10.43,8.18,-8.18,-7.70,2.20,2.25,2.26
48,10.24,8.00,10.29,8.06,-8.06,-7.48,2.18,2.23,2.24
49,10.10,7.88,10.13,7.92,-7.92,-7.28,2.17,2.21,2.22
50,9.97,7.77,9.98,7.79,-7.79,-7.11,2.18,2.19,2.20
51,9.84,7.66,9.82,7.65,-7.65,-6.95,2.19,2.17,2.18
52,9.68,7.52,9.66,7.51,-7.51,-6.80,2.17,2.15,2.16
53,9.52,7.38,9.50,7.37,-7.37,-6.67,2.15,2.13,2.14
54,9.35,7.23,9.33,7.23,-7.23,-6.54,2.12,2.11,2.12
55,9.18,7.08,9.17,7.09,-7.09,-6.42,2.09,2.08,2.09
56,9.01,6.94,9.01,6.94,-6.94,-6.31,2.06,2.06,2.07
57,8.84,6.79,8.84,6.80,-6.80,-6.19,2.04,2.04,2.04
58,8.66,6.64,8.67,6.66,-6.66,-6.08,2.00,2.01,2.02
59,8.48,6.49,8.50,6.52,-6.52,-5.96,1.96,1.98,1.99
60,8.31,6.34,8.33,6.37,-6.37,-5.84,1.94,1.96,1.96
61,8.14,6.20,8.15,6.22,-6.22,-5.71,1.91,1.93,1.93
62,7.97,6.06,7.97,6.08,-6.08,-5.58,1.89,1.90,1.90
63,7.80,5.92,7.80,5.93,-5.93,-5.44,1.87,1.87,1.87
64,7.63,5.79,7.61,5.78,-5.78,-5.30,1.85,1.84,1.84
65,7.45,5.64,7.43,5.63,-5.63,-5.14,1.82,1.80,1.81
66,7.26,5.48,7.24,5.47,-5.47,-4.99,1.79,1.77,1.78
67,7.06,5.31,7.05,5.31,-5.31,-4.83,1.75,1.74,1.74
68,6.86,5.15,6.85,5.15,-5.15,-4.67,1.71,1.71,1.71
69,6.64,4.96,6.65,4.98,-4.98,-4.50,1.66,1.67,1.67
70,6.43,4.79,6.44,4.81,-4.81,-4.33,1.62,1.63,1.64
71,6.22,4.62,6.23,4.63,-4.63,-4.16,1.58,1.60,1.60
72,6.00,4.43,6.01,4.45,-4.45,-3.99,1.55,1.56,1.56
73,5.78,4.25,5.78,4.26,-4.26,-3.83,1.51,1.52,1.53
74,5.56,4.07,5.55,4.07,-4.07,-3.66,1.49,1.48,1.49
75,5.33,3.88,5.31,3.87,-3.87,-3.49,1.46,1.44,1.45
76,5.08,3.67,5.06,3.66,-3.66,-3.33,1.42,1.41,1.41
77,4.81,3.44,4.81,3.44,-3.44,-3.17,1.37,1.37,1.37
78,4.55,3.22,4.54,3.21,-3.21,-3.01,1.33,1.33,1.33
79,4.27,2.98,4.27,2.98,-2.98,-2.85,1.29,1.29,1.29
80,4.00,2.75,3.98,2.73,-2.73,-2.70,1.26,1.25,1.25
81,3.71,2.50,3.69,2.48,-2.48,-2.55,1.23,1.21,1.21
82,3.40,2.23,3.38,2.22,-2.22,-2.40,1.18,1.17,1.17
83,3.09,1.96,3.07,1.95,-1.95,-2.25,1.14,1.13,1.12
84,2.76,1.67,2.75,1.67,-1.67,-2.11,1.09,1.08,1.08
85,2.44,1.40,2.43,1.38,-1.38,-1.97,1.05,1.04,1.04
86,2.10,1.10,2.09,1.09,-1.09,-1.83,1.00,1.00,1.00
87,1.77,0.81,1.76,0.80,-0.80,-1.70,0.97,0.96,0.96
88,1.44,0.52,1.42,0.51,-0.51,-1.57,0.93,0.92,0.92
89,1.11,0.23,1.09,0.21,-0.21,-1.44,0.89,0.87,0.87
90,0.78,-0.06,0.76,-0.07,0.07,-1.31,0.85,0.83,0.83
91,0.44,-0.36,0.44,-0.35,0.35,-1.19,0.79,0.79,0.79
92,0.13,-0.62,0.13,-0.62,0.62,-1.07,0.75,0.75,0.75
93,-0.18,-0.89,-0.17,-0.88,0.88,-0.95,0.69,0.71,0.71
94,-0.46,-1.13,-0.45,-1.11,1.11,-0.83,0.65,0.66,0.67
95,-0.73,-1.36,-0.71,-1.33,1.33,-0.71,0.59,0.62,0.63
96,-0.96,-1.55,-0.95,-1.52,1.52,-0.60,0.55,0.57,0.59
97,-1.16,-1.71,-1.16,-1.68,1.68,-0.49,0.52,0.52,0.55
98,-1.35,-1.86,-1.34,-1.82,1.82,-0.38,0.46,0.48,0.51
99,-1.50,-1.97,-1.49,-1.92,1.92,-0.27,0.42,0.43,0.47
100,-1.62,-2.06,-1.60,-1.99,1.99,-0.16,0.37,0.39,0.43
101,-1.73,-2.13,-1.68,-2.03,2.03,-0.06,0.30,0.35,0.39
102,-1.79,-2.15,-1.73,-2.04,2.04,0.04,0.25,0.31,0.36
104,-1.81,-2.09,-1.75,-2.02,2.02,0.24,0.21,0.27,0.28
105,-1.77,-2.02,-1.74,-1.98,1.98,0.33,0.20,0.24,0.25
106,-1.72,-1.93,-1.71,-1.91,1.91,0.42,0.19,0.20,0.21
107,-1.65,-1.83,-1.66,-1.83,1.83,0.51,0.17,0.16,0.17
108,-1.56,-1.70,-1.60,-1.73,1.73,0.60,0.16,0.13,0.14
109,-1.47,-1.58,-1.51,-1.61,1.61,0.69,0.14,0.10,0.10
110,-1.39,-1.46,-1.42,-1.49,1.49,0.77,0.10,0.07,0.07
111,-1.30,-1.34,-1.33,-1.37,1.37,0.85,0.06,0.04,0.04
112,-1.22,-1.23,-1.23,-1.24,1.24,0.92,0.01,0.00,0.00
113,-1.13,-1.11,-1.14,-1.11,1.11,1.00,-0.02,-0.03,-0.03
114,-1.05,-0.99,-1.05,-0.98,0.98,1.07,-0.07,-0.07,-0.06
115,-0.97,-0.88,-0.96,-0.86,0.86,1.14,-0.12,-0.10,-0.09
117,-0.84,-0.69,-0.87,-0.74,0.74,1.26,-0.11,-0.14,-0.15
118,-0.79,-0.61,-0.80,-0.63,0.63,1.32,-0.17,-0.17,-0.18
119,-0.74,-0.53,-0.73,-0.52,0.52,1.38,-0.22,-0.21,-0.21
120,-0.68,-0.45,-0.66,-0.43,0.43,1.43,-0.26,-0.24,-0.24
121,-0.63,-0.37,-0.61,-0.34,0.34,1.48,-0.29,-0.27,-0.26
123,-0.54,-0.22,-0.57,-0.26,0.26,1.57,-0.28,-0.31,-0.32
124,-0.50,-0.16,-0.54,-0.20,0.20,1.61,-0.31,-0.34,-0.34
125,-0.48,-0.11,-0.52,-0.14,0.14,1.64,-0.34,-0.38,-0.37
126,-0.48,-0.09,-0.51,-0.10,0.10,1.68,-0.38,-0.41,-0.40
128,-0.50,-0.06,-0.51,-0.07,0.07,1.74,-0.43,-0.44,-0.44
129,-0.52,-0.06,-0.52,-0.05,0.05,1.76,-0.47,-0.47,-0.47
130,-0.56,-0.07,-0.54,-0.05,0.05,1.79,-0.52,-0.50,-0.49
131,-0.59,-0.08,-0.58,-0.05,0.05,1.81,-0.54,-0.53,-0.51
133,-0.66,-0.11,-0.62,-0.07,0.07,1.84,-0.60,-0.55,-0.56
134,-0.68,-0.11,-0.68,-0.09,0.09,1.86,-0.59,-0.59,-0.58
135,-0.71,-0.11,-0.74,-0.13,0.13,1.87,-0.59,-0.62,-0.60
137,-0.80,-0.16,-0.82,-0.17,0.17,1.89,-0.63,-0.64,-0.64
138,-0.85,-0.20,-0.89,-0.22,0.22,1.90,-0.63,-0.67,-0.66
140,-0.99,-0.30,-0.98,-0.28,0.28,1.91,-0.71,-0.70,-0.69
141,-1.07,-0.36,-1.07,-0.35,0.35,1.92,-0.72,-0.72,-0.71
142,-1.15,-0.42,-1.17,-0.43,0.43,1.92,-0.73,-0.74,-0.73
144,-1.31,-0.55,-1.27,-0.51,0.51,1.93,-0.80,-0.76,-0.76
145,-1.39,-0.61,-1.39,-0.60,0.60,1.93,-0.79,-0.79,-0.78
147,-1.54,-0.73,-1.51,-0.70,0.70,1.94,-0.84,-0.81,-0.81
148,-1.62,-0.80,-1.64,-0.81,0.81,1.94,-0.81,-0.83,-0.83
150,-1.78,-0.93,-1.78,-0.92,0.92,1.94,-0.86,-0.86,-0.86
151,-1.87,-1.00,-1.93,-1.05,1.05,1.94,-0.83,-0.88,-0.87
153,-2.07,-1.18,-2.07,-1.17,1.17,1.95,-0.90,-0.90,-0.90
154,-2.19,-1.28,-2.23,-1.31,1.31,1.95,-0.88,-0.92,-0.91
156,-2.42,-1.49,-2.39,-1.45,1.45,1.95,-0.98,-0.94,-0.94
157,-2.53,-1.58,-2.55,-1.59,1.59,1.95,-0.94,-0.95,-0.95
159,-2.76,-1.79,-2.72,-1.74,1.74,1.96,-1.02,-0.97,-0.97
160,-2.86,-1.88,-2.89,-1.90,1.90,1.96,-0.97,-0.99,-0.98
162,-3.07,-2.07,-3.06,-2.06,2.06,1.97,-1.02,-1.01,-1.01
164,-3.27,-2.25,-3.24,-2.22,2.22,1.98,-1.05,-1.02,-1.03
165,-3.38,-2.35,-3.42,-2.38,2.38,1.99,-1.00,-1.04,-1.04
167,-3.58,-2.53,-3.61,-2.55,2.55,2.00,-1.03,-1.06,-1.06
169,-3.80,-2.73,-3.79,-2.71,2.71,2.02,-1.09,-1.08,-1.08
170,-3.91,-2.83,-3.97,-2.88,2.88,2.03,-1.04,-1.09,-1.08
172,-4.14,-3.04,-4.15,-3.04,3.04,2.04,-1.10,-1.11,-1.10
174,-4.35,-3.23,-4.32,-3.20,3.20,2.07,-1.16,-1.13,-1.12
175,-4.44,-3.32,-4.49,-3.35,3.35,2.08,-1.10,-1.14,-1.13
177,-4.64,-3.50,-4.65,-3.49,3.49,2.10,-1.15,-1.16,-1.14
179,-4.82,-3.67,-4.79,-3.62,3.62,2.13,-1.20,-1.17,-1.16
181,-4.98,-3.81,-4.93,-3.75,3.75,2.15,-1.24,-1.18,-1.17
183,-5.11,-3.93,-5.05,-3.86,3.86,2.18,-1.25,-1.20,-1.19
184,-5.17,-3.98,-5.16,-3.96,3.96,2.20,-1.22,-1.21,-1.19
186,-5.26,-4.06,-5.26,-4.04,4.04,2.23,-1.22,-1.22,-1.20
188,-5.32,-4.11,-5.34,-4.11,4.11,2.27,-1.21,-1.23,-1.22
190,-5.39,-4.17,-5.41,-4.17,4.17,2.30,-1.23,-1.24,-1.23
192,-5.44,-4.20,-5.46,-4.21,4.21,2.34,-1.24,-1.25,-1.24
194,-5.47,-4.22,-5.49,-4.23,4.23,2.38,-1.24,-1.26,-1.25
196,-5.51,-4.25,-5.51,-4.24,4.24,2.42,-1.27,-1.27,-1.26
198,-5.53,-4.26,-5.51,-4.24,4.24,2.46,-1.29,-1.27,-1.27
200,-5.52,-4.24,-5.51,-4.22,4.22,2.50,-1.30,-1.28,-1.28
202,-5.51,-4.23,-5.49,-4.19,4.19,2.54,-1.32,-1.30,-1.29
204,-5.47,-4.18,-5.46,-4.15,4.15,2.58,-1.32,-1.31,-1.30
206,-5.42,-4.12,-5.41,-4.10,4.10,2.62,-1.33,-1.31,-1.30
208,-5.37,-4.06,-5.36,-4.04,4.04,2.67,-1.34,-1.32,-1.31
210,-5.29,-3.97,-5.29,-3.96,3.96,2.71,-1.33,-1.33,-1.32
212,-5.22,-3.90,-5.22,-3.89,3.89,2.75,-1.34,-1.33,-1.33
214,-5.13,-3.80,-5.14,-3.80,3.80,2.79,-1.33,-1.34,-1.33
216,-5.05,-3.71,-5.06,-3.72,3.72,2.83,-1.34,-1.34,-1.34
218,-4.96,-3.62,-4.98,-3.63,3.63,2.87,-1.34,-1.35,-1.35
221,-4.84,-3.49,-4.89,-3.54,3.54,2.92,-1.31,-1.36,-1.35
223,-4.77,-3.41,-4.81,-3.45,3.45,2.96,-1.33,-1.36,-1.36
225,-4.71,-3.35,-4.72,-3.36,3.36,2.99,-1.36,-1.37,-1.37
227,-4.64,-3.27,-4.64,-3.27,3.27,3.02,-1.38,-1.37,-1.37
229,-4.58,-3.21,-4.56,-3.18,3.18,3.05,-1.40,-1.38,-1.38
232,-4.48,-3.10,-4.48,-3.09,3.09,3.09,-1.39,-1.39,-1.38
234,-4.42,-3.04,-4.40,-3.01,3.01,3.11,-1.41,-1.39,-1.39
236,-4.34,-2.95,-4.33,-2.93,2.93,3.13,-1.41,-1.40,-1.39
239,-4.24,-2.84,-4.26,-2.85,2.85,3.16,-1.39,-1.40,-1.40
241,-4.18,-2.78,-4.18,-2.78,2.78,3.17,-1.41,-1.41,-1.40
244,-4.09,-2.68,-4.11,-2.70,2.70,3.19,-1.39,-1.41,-1.41
246,-4.03,-2.62,-4.04,-2.63,2.63,3.19,-1.40,-1.41,-1.41
248,-3.98,-2.57,-3.98,-2.56,2.56,3.20,-1.42,-1.42,-1.42
251,-3.90,-2.48,-3.91,-2.49,2.49,3.20,-1.41,-1.42,-1.42
253,-3.86,-2.44,-3.85,-2.43,2.43,3.19,-1.44,-1.42,-1.42
256,-3.79,-2.36,-3.79,-2.36,2.36,3.18,-1.43,-1.43,-1.43
259,-3.72,-2.29,-3.74,-2.30,2.30,3.17,-1.42,-1.43,-1.43
261,-3.68,-2.25,-3.68,-2.25,2.25,3.15,-1.44,-1.44,-1.44
264,-3.63,-2.19,-3.63,-2.19,2.19,3.13,-1.44,-1.44,-1.44
266,-3.59,-2.15,-3.58,-2.14,2.14,3.11,-1.45,-1.44,-1.44
269,-3.54,-2.10,-3.54,-2.09,2.09,3.08,-1.45,-1.45,-1.45
272,-3.49,-2.04,-3.49,-2.04,2.04,3.05,-1.45,-1.45,-1.45
274,-3.46,-2.01,-3.45,-1.99,1.99,3.02,-1.47,-1.45,-1.45
277,-3.41,-1.96,-3.41,-1.95,1.95,2.99,-1.46,-1.46,-1.45
280,-3.37,-1.92,-3.37,-1.91,1.91,2.94,-1.46,-1.46,-1.46
283,-3.33,-1.87,-3.34,-1.88,1.88,2.90,-1.46,-1.46,-1.46
286,-3.30,-1.84,-3.31,-1.85,1.85,2.86,-1.46,-1.46,-1.46
288,-3.28,-1.82,-3.28,-1.82,1.82,2.83,-1.46,-1.47,-1.46
291,-3.26,-1.80,-3.26,-1.80,1.80,2.78,-1.46,-1.47,-1.47
294,-3.24,-1.77,-3.25,-1.78,1.78,2.73,-1.46,-1.47,-1.47
297,-3.23,-1.76,-3.24,-1.77,1.77,2.69,-1.46,-1.47,-1.47
300,-3.23,-1.76,-3.24,-1.77,1.77,2.64,-1.47,-1.47,-1.47
303,-3.23,-1.76,-3.24,-1.77,1.77,2.60,-1.47,-1.47,-1.48
306,-3.24,-1.77,-3.25,-1.77,1.77,2.55,-1.47,-1.48,-1.48
309,-3.25,-1.77,-3.26,-1.78,1.78,2.51,-1.47,-1.48,-1.48
312,-3.27,-1.79,-3.28,-1.80,1.80,2.46,-1.48,-1.48,-1.48
316,-3.29,-1.81,-3.30,-1.81,1.81,2.41,-1.48,-1.48,-1.48
319,-3.32,-1.84,-3.32,-1.84,1.84,2.36,-1.49,-1.48,-1.49
322,-3.35,-1.87,-3.35,-1.86,1.86,2.32,-1.49,-1.49,-1.49
325,-3.37,-1.88,-3.37,-1.88,1.88,2.29,-1.49,-1.49,-1.49
328,-3.40,-1.91,-3.40,-1.91,1.91,2.25,-1.49,-1.49,-1.49
332,-3.43,-1.94,-3.43,-1.93,1.93,2.20,-1.50,-1.49,-1.49
335,-3.45,-1.96,-3.45,-1.96,1.96,2.17,-1.50,-1.50,-1.49
338,-3.47,-1.98,-3.48,-1.98,1.98,2.14,-1.50,-1.50,-1.49
342,-3.50,-2.01,-3.50,-2.00,2.00,2.10,-1.51,-1.50,-1.50
345,-3.51,-2.02,-3.51,-2.01,2.01,2.07,-1.50,-1.50,-1.50
349,-3.53,-2.04,-3.53,-2.02,2.02,2.03,-1.51,-1.50,-1.50
352,-3.55,-2.05,-3.54,-2.03,2.03,2.01,-1.52,-1.50,-1.50
356,-3.56,-2.06,-3.55,-2.04,2.04,1.97,-1.52,-1.51,-1.50
359,-3.55,-2.05,-3.55,-2.04,2.04,1.95,-1.51,-1.51,-1.50
363,-3.55,-2.05,-3.55,-2.04,2.04,1.92,-1.51,-1.51,-1.50
366,-3.55,-2.05,-3.55,-2.04,2.04,1.91,-1.51,-1.51,-1.50
370,-3.54,-2.04,-3.54,-2.03,2.03,1.88,-1.51,-1.51,-1.50
374,-3.53,-2.03,-3.54,-2.03,2.03,1.86,-1.50,-1.51,-1.51
377,-3.53,-2.03,-3.53,-2.02,2.02,1.84,-1.51,-1.51,-1.51
381,-3.52,-2.02,-3.52,-2.02,2.02,1.83,-1.51,-1.51,-1.51
385,-3.51,-2.01,-3.52,-2.01,2.01,1.81,-1.50,-1.50,-1.51
389,-3.51,-2.00,-3.52,-2.01,2.01,1.79,-1.50,-1.51,-1.51
393,-3.51,-2.00,-3.52,-2.01,2.01,1.78,-1.50,-1.51,-1.51
397,-3.51,-2.00,-3.53,-2.02,2.02,1.77,-1.49,-1.51,-1.51
401,-3.51,-2.00,-3.54,-2.03,2.03,1.76,-1.49,-1.51,-1.51
405,-3.53,-2.02,-3.55,-2.04,2.04,1.75,-1.49,-1.51,-1.51
409,-3.55,-2.04,-3.57,-2.05,2.05,1.74,-1.50,-1.51,-1.51
413,-3.58,-2.07,-3.58,-2.07,2.07,1.73,-1.51,-1.51,-1.51
417,-3.61,-2.10,-3.60,-2.09,2.09,1.73,-1.53,-1.51,-1.51
421,-3.63,-2.12,-3.62,-2.10,2.10,1.72,-1.53,-1.52,-1.52
425,-3.65,-2.14,-3.64,-2.12,2.12,1.72,-1.53,-1.52,-1.52
430,-3.66,-2.15,-3.66,-2.13,2.13,1.71,-1.53,-1.52,-1.52
434,-3.67,-2.15,-3.67,-2.15,2.15,1.71,-1.53,-1.53,-1.52
438,-3.66,-2.14,-3.68,-2.16,2.16,1.70,-1.51,-1.53,-1.52
443,-3.66,-2.15,-3.69,-2.16,2.16,1.70,-1.50,-1.53,-1.52
447,-3.67,-2.16,-3.68,-2.16,2.16,1.69,-1.52,-1.52,-1.51
451,-3.68,-2.17,-3.67,-2.15,2.15,1.69,-1.54,-1.52,-1.51
456,-3.68,-2.18,-3.65,-2.13,2.13,1.69,-1.55,-1.51,-1.51
460,-3.66,-2.16,-3.62,-2.11,2.11,1.68,-1.55,-1.51,-1.50
465,-3.60,-2.11,-3.58,-2.08,2.08,1.68,-1.52,-1.50,-1.49
470,-3.54,-2.06,-3.54,-2.05,2.05,1.67,-1.49,-1.49,-1.48
474,-3.49,-2.02,-3.49,-2.01,2.01,1.67,-1.48,-1.48,-1.47
479,-3.42,-1.96,-3.44,-1.97,1.97,1.66,-1.46,-1.47,-1.46
484,-3.36,-1.91,-3.38,-1.92,1.92,1.65,-1.44,-1.46,-1.45
489,-3.30,-1.87,-3.31,-1.87,1.87,1.64,-1.44,-1.44,-1.44
494,-3.24,-1.82,-3.24,-1.81,1.81,1.63,-1.43,-1.42,-1.42
499,-3.17,-1.77,-3.17,-1.76,1.76,1.62,-1.41,-1.41,-1.41
504,-3.10,-1.71,-3.09,-1.71,1.71,1.61,-1.40,-1.39,-1.39
509,-3.02,-1.65,-3.03,-1.65,1.65,1.60,-1.37,-1.37,-1.37
514,-2.95,-1.60,-2.96,-1.60,1.60,1.59,-1.35,-1.36,-1.36
519,-2.87,-1.53,-2.89,-1.55,1.55,1.58,-1.32,-1.34,-1.34
524,-2.81,-1.49,-2.83,-1.51,1.51,1.56,-1.30,-1.32,-1.32
529,-2.76,-1.46,-2.77,-1.47,1.47,1.55,-1.29,-1.30,-1.30
535,-2.70,-1.42,-2.71,-1.43,1.43,1.53,-1.27,-1.28,-1.28
540,-2.65,-1.39,-2.66,-1.40,1.40,1.52,-1.25,-1.26,-1.26
545,-2.61,-1.37,-2.60,-1.37,1.37,1.50,-1.24,-1.23,-1.24
551,-2.56,-1.35,-2.56,-1.34,1.34,1.48,-1.22,-1.21,-1.21
556,-2.51,-1.32,-2.51,-1.32,1.32,1.46,-1.19,-1.19,-1.19
562,-2.46,-1.30,-2.46,-1.30,1.30,1.45,-1.16,-1.16,-1.16
568,-2.42,-1.29,-2.42,-1.29,1.29,1.43,-1.14,-1.13,-1.13
573,-2.37,-1.27,-2.38,-1.27,1.27,1.41,-1.10,-1.11,-1.10
579,-2.33,-1.26,-2.33,-1.26,1.26,1.39,-1.08,-1.08,-1.08
585,-2.28,-1.24,-2.29,-1.24,1.24,1.37,-1.04,-1.05,-1.05
591,-2.24,-1.23,-2.24,-1.23,1.23,1.35,-1.02,-1.02,-1.01
596,-2.20,-1.22,-2.20,-1.21,1.21,1.34,-0.99,-0.99,-0.98
602,-2.16,-1.21,-2.15,-1.20,1.20,1.32,-0.96,-0.96,-0.95
608,-2.11,-1.19,-2.11,-1.18,1.18,1.30,-0.93,-0.92,-0.92
615,-2.05,-1.16,-2.06,-1.17,1.17,1.28,-0.89,-0.89,-0.89
621,-2.01,-1.15,-2.01,-1.15,1.15,1.26,-0.86,-0.86,-0.86
627,-1.96,-1.14,-1.96,-1.13,1.13,1.25,-0.83,-0.83,-0.83
633,-1.91,-1.12,-1.91,-1.11,1.11,1.23,-0.80,-0.80,-0.79
639,-1.86,-1.10,-1.85,-1.09,1.09,1.22,-0.77,-0.76,-0.76
646,-1.80,-1.07,-1.80,-1.07,1.07,1.20,-0.73,-0.73,-0.73
652,-1.74,-1.05,-1.74,-1.05,1.05,1.19,-0.70,-0.69,-0.70
659,-1.68,-1.02,-1.68,-1.03,1.03,1.18,-0.66,-0.66,-0.66
665,-1.63,-1.01,-1.63,-1.00,1.00,1.17,-0.63,-0.62,-0.63
672,-1.56,-0.97,-1.57,-0.98,0.98,1.16,-0.58,-0.59,-0.59
679,-1.50,-0.95,-1.51,-0.96,0.96,1.15,-0.55,-0.56,-0.55
686,-1.43,-0.92,-1.45,-0.93,0.93,1.14,-0.50,-0.52,-0.52
692,-1.38,-0.90,-1.39,-0.90,0.90,1.13,-0.48,-0.49,-0.48
699,-1.33,-0.89,-1.33,-0.88,0.88,1.12,-0.46,-0.45,-0.44
706,-1.26,-0.86,-1.26,-0.85,0.85,1.11,-0.41,-0.41,-0.40
713,-1.22,-0.86,-1.20,-0.82,0.82,1.11,-0.40,-0.37,-0.36
721,-1.15,-0.83,-1.13,-0.79,0.79,1.10,-0.36,-0.34,-0.32
728,-1.09,-0.81,-1.06,-0.76,0.76,1.10,-0.33,-0.30,-0.29
735,-1.02,-0.78,-0.99,-0.74,0.74,1.10,-0.29,-0.25,-0.25
742,-0.94,-0.74,-0.93,-0.71,0.71,1.09,-0.23,-0.21,-0.21
750,-0.86,-0.70,-0.87,-0.70,0.70,1.09,-0.16,-0.17,-0.17
757,-0.79,-0.67,-0.82,-0.69,0.69,1.09,-0.10,-0.13,-0.13
765,-0.74,-0.65,-0.77,-0.69,0.69,1.09,-0.05,-0.08,-0.09
773,-0.70,-0.65,-0.74,-0.70,0.70,1.09,-0.00,-0.04,-0.05
780,-0.68,-0.67,-0.73,-0.72,0.72,1.09,0.04,-0.01,-0.02
788,-0.67,-0.69,-0.72,-0.75,0.75,1.10,0.08,0.03,0.02
796,-0.68,-0.74,-0.73,-0.79,0.79,1.10,0.11,0.06,0.05
804,-0.71,-0.80,-0.75,-0.84,0.84,1.10,0.12,0.09,0.09
812,-0.75,-0.87,-0.77,-0.89,0.89,1.11,0.14,0.12,0.12
820,-0.80,-0.96,-0.80,-0.94,0.94,1.11,0.14,0.14,0.15
828,-0.85,-1.04,-0.83,-1.00,1.00,1.11,0.15,0.17,0.19
837,-0.89,-1.11,-0.86,-1.05,1.05,1.12,0.16,0.20,0.22
845,-0.92,-1.17,-0.88,-1.10,1.10,1.12,0.18,0.23,0.25
853,-0.93,-1.21,-0.89,-1.14,1.14,1.12,0.21,0.25,0.28
862,-0.92,-1.23,-0.89,-1.17,1.17,1.13,0.25,0.28,0.31
871,-0.89,-1.23,-0.88,-1.19,1.19,1.13,0.30,0.31,0.34
879,-0.87,-1.24,-0.85,-1.20,1.20,1.13,0.32,0.34,0.37
888,-0.82,-1.22,-0.82,-1.19,1.19,1.14,0.37,0.38,0.40
897,-0.77,-1.20,-0.77,-1.18,1.18,1.14,0.40,0.41,0.42
906,-0.70,-1.15,-0.71,-1.15,1.15,1.14,0.45,0.44,0.45
915,-0.63,-1.11,-0.65,-1.12,1.12,1.14,0.48,0.47,0.48
924,-0.57,-1.08,-0.58,-1.08,1.08,1.13,0.51,0.50,0.51
933,-0.50,-1.03,-0.50,-1.03,1.03,1.13,0.53,0.53,0.53
943,-0.42,-0.98,-0.43,-0.99,0.99,1.13,0.56,0.56,0.56
952,-0.35,-0.94,-0.35,-0.94,0.94,1.12,0.59,0.59,0.58
962,-0.28,-0.89,-0.28,-0.89,0.89,1.11,0.61,0.62,0.61
971,-0.21,-0.85,-0.21,-0.85,0.85,1.11,0.64,0.64,0.64
981,-0.12,-0.79,-0.14,-0.81,0.81,1.09,0.69,0.67,0.66
991,-0.06,-0.75,-0.08,-0.77,0.77,1.08,0.71,0.69,0.69
1001,0.01,-0.71,-0.02,-0.74,0.74,1.07,0.75,0.72,0.72
1011,0.06,-0.69,0.03,-0.71,0.71,1.05,0.77,0.74,0.74
1021,0.10,-0.67,0.08,-0.69,0.69,1.03,0.79,0.77,0.77
1031,0.13,-0.67,0.12,-0.68,0.68,1.01,0.80,0.80,0.80
1041,0.16,-0.67,0.17,-0.66,0.66,0.99,0.82,0.83,0.82
1052,0.19,-0.67,0.20,-0.65,0.65,0.97,0.84,0.86,0.85
1062,0.22,-0.66,0.24,-0.65,0.65,0.94,0.86,0.88,0.88
1073,0.26,-0.65,0.27,-0.64,0.64,0.91,0.90,0.91,0.91
1084,0.30,-0.64,0.30,-0.64,0.64,0.88,0.94,0.94,0.94
1094,0.33,-0.64,0.32,-0.64,0.64,0.86,0.97,0.96,0.97
1105,0.37,-0.63,0.35,-0.64,0.64,0.83,1.01,0.99,1.00
1116,0.40,-0.63,0.38,-0.64,0.64,0.79,1.04,1.02,1.03
1128,0.42,-0.64,0.42,-0.64,0.64,0.76,1.05,1.06,1.06
1139,0.45,-0.65,0.45,-0.63,0.63,0.72,1.08,1.09,1.09
1150,0.48,-0.65,0.49,-0.63,0.63,0.69,1.11,1.12,1.13
1162,0.51,-0.65,0.53,-0.63,0.63,0.65,1.13,1.16,1.16
1173,0.55,-0.64,0.56,-0.62,0.62,0.61,1.17,1.19,1.19
1185,0.59,-0.63,0.60,-0.62,0.62,0.57,1.21,1.22,1.22
1197,0.64,-0.62,0.63,-0.62,0.62,0.53,1.26,1.25,1.25
1209,0.69,-0.60,0.67,-0.62,0.62,0.49,1.31,1.29,1.29
1221,0.73,-0.59,0.70,-0.62,0.62,0.45,1.35,1.32,1.32
1233,0.76,-0.59,0.73,-0.62,0.62,0.41,1.38,1.35,1.35
1246,0.79,-0.59,0.77,-0.62,0.62,0.37,1.41,1.39,1.38
1258,0.81,-0.61,0.80,-0.62,0.62,0.33,1.43,1.42,1.41
1271,0.84,-0.61,0.83,-0.62,0.62,0.29,1.46,1.45,1.45
1283,0.87,-0.62,0.87,-0.61,0.61,0.25,1.48,1.48,1.48
1296,0.90,-0.62,0.91,-0.61,0.61,0.21,1.50,1.51,1.52
1309,0.94,-0.62,0.95,-0.59,0.59,0.16,1.53,1.54,1.55
1322,0.99,-0.60,1.00,-0.57,0.57,0.12,1.56,1.57,1.59
1335,1.04,-0.59,1.07,-0.54,0.54,0.08,1.58,1.61,1.63
1349,1.11,-0.56,1.14,-0.51,0.51,0.04,1.61,1.64,1.66
1362,1.18,-0.52,1.22,-0.46,0.46,-0.00,1.64,1.68,1.70
1376,1.26,-0.48,1.30,-0.42,0.42,-0.05,1.68,1.72,1.74
1390,1.36,-0.42,1.39,-0.37,0.37,-0.09,1.73,1.77,1.78
1404,1.46,-0.36,1.49,-0.33,0.33,-0.14,1.79,1.81,1.82
1418,1.57,-0.29,1.57,-0.29,0.29,-0.18,1.86,1.86,1.85
1432,1.68,-0.22,1.65,-0.26,0.26,-0.22,1.94,1.91,1.89
1446,1.76,-0.18,1.72,-0.25,0.25,-0.26,2.01,1.97,1.93
1461,1.83,-0.14,1.77,-0.25,0.25,-0.31,2.08,2.02,1.97
1475,1.87,-0.14,1.79,-0.27,0.27,-0.35,2.13,2.06,2.01
1490,1.88,-0.17,1.80,-0.30,0.30,-0.39,2.18,2.10,2.05
1505,1.87,-0.22,1.78,-0.34,0.34,-0.44,2.21,2.13,2.09
1520,1.84,-0.29,1.75,-0.40,0.40,-0.48,2.24,2.15,2.13
1535,1.77,-0.40,1.70,-0.46,0.46,-0.53,2.23,2.16,2.17
1550,1.70,-0.52,1.64,-0.52,0.52,-0.57,2.22,2.17,2.21
1566,1.62,-0.64,1.59,-0.58,0.58,-0.61,2.20,2.17,2.26
1582,1.54,-0.77,1.56,-0.62,0.62,-0.66,2.16,2.18,2.30
1597,1.48,-0.87,1.55,-0.65,0.65,-0.70,2.12,2.19,2.35
1613,1.44,-0.96,1.56,-0.65,0.65,-0.74,2.09,2.21,2.39
1629,1.47,-0.97,1.61,-0.62,0.62,-0.79,2.09,2.24,2.44
1646,1.56,-0.93,1.70,-0.57,0.57,-0.83,2.13,2.27,2.48
1662,1.70,-0.83,1.83,-0.49,0.49,-0.88,2.18,2.32,2.53
1679,1.92,-0.66,2.00,-0.37,0.37,-0.92,2.29,2.38,2.58
1696,2.18,-0.45,2.21,-0.24,0.24,-0.96,2.41,2.44,2.62
1713,2.45,-0.23,2.44,-0.08,0.08,-1.01,2.53,2.52,2.67
