frequency,raw,error,smoothed,error_smoothed,equalization,equalized_raw,equalized_smoothed,target
20,4.1935558028316375,2.5457120473622905,4.198627320568412,2.550798911766169,-2.5507989117661687,1.6427568910654688,1.6478284088022432,1.647843755469347
21,4.5640671565690365,2.916242360550858,4.566584008565226,2.9187568583961765,-2.918756858396176,1.6453102981728605,1.6478271501690496,1.6478247960181784
22,4.90951617802104,3.2617161795356973,4.913655471633998,3.265843159228601,-3.2658431592286004,1.6436730187924393,1.6478123124053976,1.6477999984853424
23,5.25554274181795,3.607774785175977,5.239841709774727,3.5920578142634425,-3.592057814263443,1.6634849275545074,1.6477838955112842,1.6477679566419732
24,5.572713780398873,3.924986769060026,5.545142722987409,3.8974008235006963,-3.8974008235006954,1.6753129568981775,1.6477418994867135,1.647727011338847
25,5.82076657395634,4.173091354896166,5.828062634705272,4.180374834055796,-4.1803748340557965,1.6403917399005437,1.647687800649476,1.647675219060174
26,6.164960871226881,4.517350553046883,6.090390018894027,4.442769874391706,-4.442769874391706,1.7221909968351747,1.647620144502321,1.6476103181799977
27,6.276675483701045,4.629145790500754,6.333744095240085,4.68620673281228,-4.686206732812279,1.5904687508887667,1.6475373624278067,1.647529693200291
28,6.526043693815838,4.878613358304481,6.560323191454995,4.912886320675975,-4.912886320675974,1.613157373139864,1.6474368707790212,1.6474303355113573
29,6.776710834729986,5.129402031804718,6.772599861078445,5.125284811288738,-5.125284811288739,1.651426023441247,1.6473150497897056,1.6473088029252683
30,6.977860260017345,5.330699083915599,6.972413508992567,5.325245688831681,-5.325245688831683,1.6526145711856621,1.6471678201608837,1.6471611761017466
31,7.179009685304702,5.532026672706559,7.161114012011154,5.51412357619636,-5.514123576196357,1.6648861091083447,1.6469904358147973,1.6469830125981426
32,7.308058576917454,5.6612892785009725,7.339401458320268,5.69262381616041,-5.692623816160408,1.6154347607570463,1.6467776421598597,1.6467692984164817
33,7.480733823235737,5.834219426175543,7.507465872712894,5.860942197944922,-5.860942197944921,1.6197916252908158,1.6465236747679723,1.6465143970601943
34,7.681883248523092,6.035671252348654,7.665284422456758,6.019062267012226,-6.019062267012222,1.6628209815108699,1.6462221554445362,1.6462119961744381
35,7.883032673810448,6.23717762209437,7.812811883591592,6.166945840806752,-6.166945840806752,1.716086833003696,1.6458660427848395,1.645855051716079
36,7.898683417673932,6.2532476878630385,7.950146750911184,6.304699221322437,-6.304699221322436,1.5939841963514958,1.6454475295887478,1.6454357298108935
37,8.084182099097804,6.439236752747645,8.077572207864494,6.432614249744271,-6.432614249744271,1.6515678493535333,1.644957958120223,1.6449453463501595
38,8.202263908981179,6.5578896045387145,8.195508948554187,6.551121198059706,-6.5511211980597075,1.6511427109214711,1.644387750494479,1.6443743044424641
39,8.285331524385162,6.641619494531881,8.304457671417351,6.66073133299212,-6.660731332992121,1.624600191393041,1.64372633842523,1.643712029853282
40,8.412481511734407,6.76953460714582,8.40497167766282,6.762009575971758,-6.7620095759717564,1.650471935762651,1.6429621016910634,1.6429469045885874
41,8.486480949672304,6.844414750862771,8.49769367141742,6.855611366824954,-6.855611366824952,1.6308695828473514,1.642082304592467,1.642066198809533
42,8.587055662316061,6.945999661029797,8.583434051080364,6.942361021968299,-6.9423610219683,1.644694640347761,1.6410730291120634,1.6410560012862638
43,8.687630374961351,7.0477292263248374,8.663232717499174,7.0233136116743236,-7.023313611674324,1.6643167632870268,1.6399191058248492,1.6399011486365138
44,8.788205087608642,7.149619933976128,8.738346332866563,7.099742291005869,-7.099742291005869,1.6884627966027725,1.6386040418606935,1.6385851536325138
45,8.78820508760926,7.1511149547011525,8.810130709769533,7.173020761926327,-7.173020761926326,1.6151843256829341,1.6371099478432072,1.6370901329081073
46,8.78857520464136,7.153178470183157,8.879840627957549,7.244423163291142,-7.244423163291142,1.5441520413502179,1.635417464666407,1.6353967344582032
47,8.989354512836941,7.355870447438668,8.948414552760285,7.314908862095505,-7.314908862095505,1.6744456507414363,1.63350569066478,1.6334840653982736
48,8.989354512787214,7.3580248922408,9.016326490120257,7.384974380241509,-7.384974380241511,1.6043801325457032,1.6313521098787458,1.6313296205464143
49,9.08992922546335,7.461020012956347,9.08356427397273,7.454631752079978,-7.454631752079976,1.6352974733833747,1.6289325218927537,1.6289092125070037
50,9.190503938359758,7.56430703428394,9.149742155376433,7.523521181370303,-7.523521181370303,1.6669827569894542,1.62622097400613,1.626196904075818
51,9.190503938901637,7.56733899494901,9.214301352297582,7.591111655566822,-7.591111655566822,1.599392283334815,1.6231896967307602,1.6231649439526268
52,9.260961367102468,7.6411776601643275,9.276720686857189,7.656911643041792,-7.656911643041789,1.6040497240606788,1.6198090438154003,1.61978370693814
53,9.391653364779023,7.775631724774392,9.336664475834556,7.720617037582116,-7.7206170375821195,1.6710363271969033,1.616047438252437,1.616021640004631
54,9.391653363002153,7.779808147144156,9.394030505636017,7.782159179705189,-7.7821591797051894,1.6094941832969631,1.611871325930828,1.611845215857997
55,9.391653358510236,7.784434462665491,9.448905782142262,7.841660643319667,-7.841660643319667,1.5499927151905695,1.607245138822595,1.6072188958447455
56,9.492228064314416,7.890122960025696,9.501469052981975,7.899337783167837,-7.899337783167839,1.5928902811465768,1.6021312698141355,1.6021051042887193
57,9.592802770922846,7.996338554368101,9.551884744637452,7.955394683147163,-7.955394683147162,1.6374080877756843,1.5964900614902895,1.5964642165547454
58,9.59280277259558,8.002548209282702,9.600216811705632,8.009937000361258,-8.009937000361258,1.582865772234321,1.5902798113443737,1.5902545633128775
59,9.656471176244649,8.073038722645652,9.646369217514003,8.062912421521954,-8.062912421521954,1.5935587547226948,1.5834567959920491,1.5834324535989968
60,9.693377550447083,8.117425331130502,9.69004927580532,8.114073958810522,-8.114073958810524,1.5793035916365596,1.5759753169947963,1.575952219316581
61,9.693377623371699,8.125611339589069,9.73075794984645,8.162970179011158,-8.162970179011158,1.5304074443605415,1.5677877708352916,1.5677662837826305
62,9.793952416692427,8.235127159919097,9.767827568782678,8.20898282336464,-8.208982823364638,1.5849695933277896,1.5588447454180407,1.5588252567733307
63,9.793952455938834,8.244874397677087,9.800533415290595,8.251438270105076,-8.251438270105078,1.542514185833756,1.5490951451855164,1.5490780582617476
64,9.793952372050576,8.255480299393616,9.828287057914416,8.289800711337193,-8.289800711337193,1.504151660713383,1.5384863465772227,1.5384720726569596
65,9.894526778310171,8.367573443454484,9.850877279100018,8.323912894209318,-8.323912894209315,1.5706138841008563,1.5269643848907037,1.5269533348556874
66,9.894526173664673,8.380059424847598,9.868678015632842,8.354203842303058,-8.354203842303061,1.5403223313616117,1.5144741733297806,1.514466748817075
67,9.89452528881339,8.393568950121514,9.882720201173866,8.381760446747405,-8.381760446747405,1.5127648420659856,1.5009597544264608,1.5009563386918772
68,9.894524324539333,8.40815879272773,9.894548427213556,8.408183844680737,-8.408183844680739,1.486340479858594,1.4863645825328167,1.486365531811602
69,9.894523743454624,8.423886271342392,9.905855899571447,8.435224064578216,-8.435224064578215,1.459299678876409,1.4706318349932328,1.4706374721122324
70,9.89452429180256,8.440808929923985,9.917986175206673,8.464281424709169,-8.46428142470917,1.4302428670933889,1.4537047504975025,1.4537153618785736
71,9.89452690418976,8.458984075089795,9.931465457226894,8.495938462238104,-8.495938462238106,1.398588441951654,1.4355269949887877,1.4355428290999663
72,9.894532436010238,8.478468118733772,9.945746190990004,8.529703136227186,-8.529703136227186,1.364829299783052,1.4160430547628184,1.4160643172764655
73,9.995115911902085,8.59989041765009,9.959285408362556,8.564086758868026,-8.564086758868026,1.4310291530340589,1.3951986494945299,1.3952254942519944
74,9.99512705235204,8.622153375739376,9.969966210645087,8.597025057835737,-8.597025057835738,1.398101994516301,1.3729411528093483,1.3729736766126637
75,9.995137895740044,8.645879629345242,9.975741751790004,8.626521747355003,-8.626521747355003,1.3686161483850405,1.3492200044350007,1.349258266394802
76,9.995143491109157,8.671112293810094,9.97529179054177,8.651304684484714,-8.651304684484716,1.3438388066244418,1.3239871060570536,1.3240311972990644
77,9.995136660916751,8.697889272634619,9.968470928143573,8.671273699148784,-8.671273699148786,1.323862961767965,1.2971972289947864,1.2972473882821323
78,9.992501643044207,8.723636439795385,9.956399696170552,8.687591181740387,-8.687591181740384,1.3049104613038232,1.2688085144301677,1.2688652032488212
79,9.894477601175607,8.65563068465342,9.94117589160684,8.702392735782897,-8.7023927357829,1.192084865392708,1.2387831558239402,1.2388469165221871
80,9.894388148118662,8.687228963387055,9.925314269910581,8.71822602430937,-8.718226024309372,1.1761621238092896,1.2070882456012093,1.2071591847316068
81,9.894269590794794,8.720496064180885,9.911108275849642,8.737411737147527,-8.737411737147527,1.1568578536472671,1.1736965387021154,1.1737735266139078
82,9.89413783787505,8.755471025031827,9.900118537418722,8.761531865338894,-8.761531865338894,1.1326059725361564,1.1385866720798283,1.1386668128432222
83,9.894024411620837,8.79220264335979,9.892931334876067,8.791188955587955,-8.791188955587955,1.1028354560328815,1.1017423792881118,1.101821768261047
84,9.893977749244664,8.830750260598577,9.889226457545643,8.82607574949333,-8.826075749493333,1.0679019997513315,1.0631507080523104,1.0632274886460862
85,9.894060896672515,8.871180923332185,9.888090074308879,8.865289810332532,-8.865289810332534,1.0287710863399813,1.022800263976345,1.022879973340331
86,9.894344415207923,8.913561741646415,9.88844056272901,8.9077588926311,-8.9077588926311,0.9865855225768225,0.9806816700979084,0.980782673561508
87,9.894893944607382,8.95794689055409,9.889422358830046,8.952629525003612,-8.952629525003612,0.9422644196037702,0.9367928338264342,0.9369470540532916
88,9.895752824373938,9.004359661496757,9.890660640832419,8.999510383632101,-8.999510383632105,0.8962424407418332,0.891150257200314,0.891393162877181
89,9.896921337748886,9.052771137032439,9.892335359919684,9.048531172342326,-9.048531172342328,0.848390165406558,0.8438041875773568,0.8441502007164474
90,9.898335295284433,9.10307821809587,9.895097280592356,9.100246435696942,-9.100246435696942,0.7980888595874909,0.7948508448954144,0.7952570771885625
91,9.899847558084511,9.155084620530054,9.899888246902464,9.155456763958934,-9.155456763958933,0.7443907941255787,0.744431482943531,0.7447629375544573
92,9.901216462389485,9.208488823257825,9.907733415468755,9.215024785727742,-9.21502478572774,0.6861916766617444,0.6927086297410145,0.6927276391316588
93,9.902104767170187,9.262882614202429,9.919550325782275,9.27973376407024,-9.27973376407024,0.6223710030999463,0.6398165617120348,0.6392221529677569
94,9.902091656291963,9.31776279305144,9.935985960088182,9.350190807033343,-9.350190807033345,0.5519008492586188,0.5857951530548373,0.5843288632405232
95,10.001273308488988,9.473131573732022,9.957270149280868,9.42674076120019,-9.42674076120019,0.5745325472887988,0.5305293880806783,0.5281417347569652
96,9.998002446928828,9.52723612878642,9.983075900825503,9.509351429374284,-9.50935142937428,0.4886510175545471,0.4737244714512219,0.4707663181424082
97,9.992384113264286,9.580064550148913,10.012403352200256,9.597460635104797,-9.597460635104795,0.394923478159491,0.41494271709546027,0.41231956311537354
98,9.98402821767474,9.63109880483666,10.043538303552758,9.689827068367613,-9.689827068367613,0.2942011493071277,0.3537112351851448,0.3529294128380811
99,10.073248054310184,9.780513897483658,10.07415515203883,9.784472354558474,-9.784472354558472,0.2887756997517119,0.2896827974803582,0.29273415682652715
100,10.138977898059387,9.907096371761973,10.101615980163146,9.878810007670792,-9.87881000767079,0.26016789038859756,0.22280597249235612,0.23188152629741499
101,10.141942780591636,9.971415256595762,10.12345695312817,9.970010417525469,-9.970010417525469,0.17193236306616733,0.1534465356027006,0.17052752399587412
102,10.121829184605652,10.012994194374283,10.137968311875756,10.05555964947381,-10.055559649473809,0.06626953513184297,0.08240866240194755,0.10883499023136878
104,10.200113088643947,10.2151057961393,10.144702361192856,10.133870428025212,-10.133870428025212,0.06624266061873563,0.010831933167644081,-0.014992707495351976
105,10.176313633980392,10.253249600510372,10.14472397068436,10.204743617671681,-10.204743617671681,-0.02842998369128935,-0.060019646987321096,-0.07693596652998025
106,10.151796491128431,10.290380179417223,10.140471932138627,10.269493889782407,-10.269493889782405,-0.11769739865397355,-0.12902195764377744,-0.1385836882887923
107,10.127420469952623,10.327187718169201,10.135218624101402,10.330650571354543,-10.330650571354541,-0.20323010140191755,-0.19543194725313917,-0.19976724821657754
108,10.104052115279348,10.364374431053061,10.132259427741676,10.391292745357305,-10.391292745357303,-0.28724063007795486,-0.25903331761562676,-0.2603223157737129
109,10.082505502294925,10.402596649216475,10.134072904921656,10.454216356533124,-10.454216356533127,-0.37171085423820216,-0.3201434516114716,-0.32009114692155016
110,10.063487089280024,10.442411913625097,10.14171814328379,10.52120018093131,-10.521200180931306,-0.45771309165128216,-0.37948203764751653,-0.3789248243450736
111,10.148124763964756,10.584810140332433,10.15466101247927,10.592605499944344,-10.592605499944348,-0.44448073597959237,-0.43794448746507797,-0.43668537636767724
112,10.236211005764336,10.729458712319616,10.171072884133222,10.66742309769103,-10.667423097691032,-0.43121209192669596,-0.4963502135578093,-0.4932477065552807
113,10.227334998619947,10.775836268993475,10.188481415260286,10.743719958635506,-10.743719958635506,-0.516384960015559,-0.5552385433752196,-0.5485012703735279
114,10.222031377865543,10.824382820745186,10.204538172416491,10.819302109758645,-10.819302109758647,-0.5972707318931043,-0.6147639373421558,-0.6023514428796437
115,10.220071987651009,10.874792519667915,10.217646312818403,10.892352592411466,-10.89235259241147,-0.672280604760461,-0.6747062795930674,-0.6547205320169067
117,10.221071555485398,10.981332676743184,10.227266390399606,10.96184143597235,-10.961841435972346,-0.7407698804869476,-0.7345750455727398,-0.7602611212577859
118,10.224530686146137,11.032911503903955,10.233851547131898,11.027612500881002,-11.027612500880998,-0.8030818147348615,-0.7937609537490999,-0.8083808177578189
119,10.229886424108518,11.08473183318112,10.238497112408883,11.090179576990094,-11.09017957699009,-0.8602931528815727,-0.8516824645812076,-0.8548454090726025
120,10.236564850628612,11.136218944217681,10.242472703354473,11.150359567840155,-11.150359567840157,-0.9137947172115446,-0.9078868644856843,-0.8996540935890698
121,10.244029734649255,11.186851677216408,10.246812988863306,11.208902740499015,-11.208902740499017,-0.9648730058497623,-0.9620897516357108,-0.942821942567154
123,10.251821631812971,11.283598612359963,10.252085550834899,11.266247257911704,-11.266247257911706,-1.0144256260987348,-1.0141617070768074,-1.031776980546991
124,10.259583094792037,11.330041872471087,10.258365378519095,11.322452242998004,-11.322452242998004,-1.0628691482059676,-1.0640868644789094,-1.0704587776790508
125,10.267067717836731,11.374684405546146,10.265366739821875,11.377286918557342,-11.377286918557344,-1.1102192007206124,-1.1119201787354687,-1.1076166877094145
126,10.274133280057349,11.417452336421412,10.272642553740887,11.430402870204073,-11.430402870204071,-1.1562695901467226,-1.1577603164631842,-1.1433190563640632
128,10.28072180473258,11.49918670990112,10.279764556958689,11.48150477194941,-11.48150477194941,-1.2007829672168295,-1.2017402149907213,-1.218464905168538
129,10.286831395375293,11.537013414050296,10.286431501282884,11.530456829107269,-11.530456829107269,-1.2436254337319763,-1.2440253278243851,-1.2501820186750034
130,10.292485803824686,11.57318107771486,10.292495322633062,11.577301299670424,-11.577301299670427,-1.2848154958457414,-1.2848059770373652,-1.2806952738901747
131,10.297707595398544,11.607800237197518,10.297927190172533,11.622203170898096,-11.622203170898096,-1.3244955754995527,-1.324275980725563,-1.3100926417989736
133,10.302499542026528,11.675412749572423,10.302757447359252,11.665357959596511,-11.665357959596513,-1.362858417569985,-1.362600512237261,-1.3729132075458956
134,10.306836816986069,11.705960204077169,10.307018562291233,11.70690379937302,-11.70690379937302,-1.4000669823869512,-1.3998852370817865,-1.3991233870910995
135,10.310670164412306,11.735165965997872,10.310708132488026,11.746869027496377,-11.746869027496377,-1.436198863084071,-1.436160895008351,-1.424495801585567
137,10.31393798559282,11.79279546383093,10.313778757911765,11.785170381702628,-11.785170381702624,-1.4712323961098033,-1.4713916237908595,-1.4788574782381079
138,10.316583666330107,11.818258429564215,10.316156729893773,11.82166158561347,-11.82166158561347,-1.5050779192833623,-1.5055048557196962,-1.5016747632341079
140,10.318573755123829,11.86899079702007,10.317789415670429,11.856220154953649,-11.856220154953647,-1.5376463998298178,-1.5384307392832177,-1.5504170418962406
141,10.319912854483114,11.890998088320027,10.318715997504652,11.888850817613726,-11.888850817613728,-1.5689379631306135,-1.5701348201090752,-1.5710852338369121
142,10.320652127712345,11.911945395848837,10.319143419916369,11.919774736240598,-11.9197747362406,-1.5991226085282548,-1.6006313163242307,-1.5912932681364933
144,10.320889803349138,11.954611880749223,10.319490998226199,11.949464675851875,-11.949464675851871,-1.6285748725027336,-1.6299736776256726,-1.6337220774000842
145,10.320763583144515,11.97298403758526,10.320353709051677,11.978583052967727,-11.978583052967728,-1.6578194698232132,-1.6582293439160516,-1.6522204544407448
147,10.320436101468081,12.010865060332339,10.32234061129725,12.007792417213263,-12.007792417213263,-1.6873563157451823,-1.6854518059160135,-1.6904289588642585
148,10.320075387901117,12.027508552427243,10.32578131180436,12.037444081123581,-12.037444081123578,-1.7173686932224612,-1.7116627693192186,-1.7074331645261265
150,10.319832677649824,12.061688723549961,10.330356635237475,12.067207911970396,-12.067207911970403,-1.7473752343205788,-1.7368512767329278,-1.7418560459001373
151,10.319820044434934,12.077300967725925,10.334778526618877,12.095766536339134,-12.095766536339138,-1.7759464919042038,-1.7609880097202613,-1.7574809232909923
153,10.320090349125012,12.108524858563062,10.33668453337506,12.120730534837271,-12.120730534837271,-1.8006401857122594,-1.7840460014622117,-1.78843450943805
154,10.320621994499634,12.123312626162594,10.332890184004233,12.138906970985142,-12.138906970985142,-1.8182849764855078,-1.8060167869809085,-1.8026906316629603
156,10.321310960152502,12.151681341430436,10.320044449129021,12.146958577724545,-12.146958577724547,-1.825647617572045,-1.8269141285955257,-1.8303703812779348
157,10.321972473689682,12.165143060294254,10.295580923727115,12.142344796099987,-12.142344796099984,-1.820372322410302,-1.8467638723728683,-1.8431705866045713
159,10.322354265810583,12.190016082779133,10.258705855485731,12.124290839733654,-12.124290839733654,-1.8019365739230704,-1.8655849842479224,-1.8676618169685493
160,10.295587160767603,12.174427285781281,10.211082797509233,12.094453379263697,-12.094453379263696,-1.7988662184960926,-1.8833705817544626,-1.878840125013678
162,10.1749900271765,12.075133157580822,10.15691450397824,12.05699200259406,-12.05699200259406,-1.882001975417559,-1.9000774986158202,-1.900143130404322
