frequency,raw
20.00,15.61
20.20,15.63
20.40,15.65
20.61,15.68
20.81,15.70
21.02,15.72
21.23,15.73
21.44,15.74
21.66,15.76
21.87,15.78
22.09,15.80
22.31,15.82
22.54,15.83
22.76,15.85
22.99,15.87
23.22,15.89
23.45,15.91
23.69,15.93
23.92,15.95
24.16,15.97
24.40,15.97
24.65,15.99
24.89,16.00
25.14,16.02
25.39,16.03
25.65,16.04
25.91,16.05
26.16,16.06
26.43,16.07
26.69,16.09
26.96,16.10
27.23,16.11
27.50,16.11
27.77,16.13
28.05,16.14
28.33,16.15
28.62,16.16
28.90,16.16
29.19,16.18
29.48,16.18
29.78,16.19
30.08,16.19
30.38,16.19
30.68,16.19
30.99,16.20
31.30,16.20
31.61,16.21
31.93,16.22
32.24,16.24
32.57,16.25
32.89,16.27
33.22,16.29
33.55,16.29
33.89,16.31
34.23,16.32
34.57,16.33
34.92,16.32
35.27,16.32
35.62,16.32
35.97,16.30
36.33,16.30
36.70,16.29
37.06,16.28
37.43,16.27
37.81,16.27
38.19,16.25
38.57,16.25
38.95,16.24
39.34,16.23
39.74,16.23
40.14,16.22
40.54,16.21
40.94,16.21
41.35,16.21
41.76,16.20
42.18,16.20
42.60,16.19
43.03,16.19
43.46,16.19
43.90,16.18
44.33,16.17
44.78,16.16
45.23,16.15
45.68,16.14
46.13,16.14
46.60,16.12
47.06,16.12
47.53,16.10
48.01,16.09
48.49,16.07
48.97,16.05
49.46,16.04
49.96,16.02
50.46,16.00
50.96,15.98
51.47,15.97
51.99,15.96
52.51,15.95
53.03,15.94
53.56,15.92
54.10,15.92
54.64,15.89
55.18,15.88
55.74,15.86
56.29,15.83
56.86,15.80
57.42,15.78
58.00,15.75
58.58,15.71
59.16,15.67
59.76,15.63
60.35,15.59
60.96,15.55
61.57,15.51
62.18,15.47
62.80,15.43
63.43,15.39
64.07,15.35
64.71,15.31
65.35,15.26
66.01,15.23
66.67,15.19
67.33,15.14
68.01,15.11
68.69,15.08
69.37,15.04
70.07,15.01
70.77,14.98
71.48,14.95
72.19,14.90
72.91,14.87
73.64,14.82
74.38,14.77
75.12,14.72
75.87,14.67
76.63,14.61
77.40,14.56
78.17,14.50
78.95,14.44
79.74,14.39
80.54,14.34
81.35,14.30
82.16,14.25
82.98,14.19
83.81,14.15
84.65,14.11
85.50,14.05
86.35,14.00
87.22,13.94
88.09,13.88
88.97,13.82
89.86,13.76
90.76,13.69
91.66,13.63
92.58,13.56
93.51,13.50
94.44,13.44
95.39,13.37
96.34,13.31
97.30,13.24
98.28,13.19
99.26,13.11
100.25,13.05
101.25,12.98
102.27,12.91
103.29,12.84
104.32,12.76
105.37,12.69
106.42,12.62
107.48,12.54
108.56,12.47
109.64,12.39
110.74,12.31
111.85,12.24
112.97,12.16
114.10,12.09
115.24,12.00
116.39,11.93
117.55,11.85
118.73,11.77
119.92,11.69
121.12,11.61
122.33,11.53
123.55,11.45
124.79,11.37
126.03,11.28
127.29,11.20
128.57,11.12
129.85,11.03
131.15,10.95
132.46,10.86
133.79,10.79
135.12,10.71
136.48,10.63
137.84,10.56
139.22,10.48
140.61,10.40
142.02,10.34
143.44,10.28
144.87,10.21
146.32,10.16
147.78,10.11
149.26,10.06
150.75,10.01
152.26,9.98
153.78,9.94
155.32,9.92
156.88,9.88
158.44,9.86
160.03,9.84
161.63,9.80
163.24,9.77
164.88,9.74
166.53,9.70
168.19,9.65
169.87,9.60
171.57,9.54
173.29,9.48
175.02,9.40
176.77,9.33
178.54,9.24
180.32,9.16
182.13,9.06
183.95,8.97
185.79,8.89
187.65,8.79
189.52,8.69
191.42,8.60
193.33,8.51
195.27,8.41
197.22,8.32
199.19,8.22
201.18,8.13
203.19,8.04
205.23,7.94
207.28,7.85
209.35,7.75
211.44,7.65
213.56,7.56
215.69,7.47
217.85,7.37
220.03,7.28
222.23,7.19
224.45,7.09
226.70,7.00
228.96,6.91
231.25,6.82
233.57,6.73
235.90,6.64
238.26,6.55
240.64,6.46
243.05,6.38
245.48,6.29
247.93,6.20
250.41,6.12
252.92,6.03
255.45,5.95
258.00,5.86
260.58,5.78
263.19,5.69
265.82,5.61
268.48,5.52
271.16,5.44
273.87,5.34
276.61,5.26
279.38,5.16
282.17,5.08
284.99,4.99
287.84,4.90
290.72,4.82
293.63,4.73
296.57,4.64
299.53,4.55
302.53,4.46
305.55,4.38
308.61,4.28
311.69,4.20
314.81,4.12
317.96,4.02
321.14,3.94
324.35,3.84
327.59,3.76
330.87,3.67
334.18,3.59
337.52,3.50
340.90,3.41
344.30,3.32
347.75,3.23
351.23,3.15
354.74,3.07
358.28,2.97
361.87,2.90
365.49,2.81
369.14,2.72
372.83,2.64
376.56,2.55
380.33,2.47
384.13,2.39
387.97,2.30
391.85,2.22
395.77,2.13
399.73,2.05
403.72,1.97
407.76,1.89
411.84,1.80
415.96,1.72
420.12,1.63
424.32,1.55
428.56,1.47
432.85,1.39
437.18,1.31
441.55,1.23
445.96,1.15
450.42,1.07
454.93,0.99
459.48,0.91
464.07,0.83
468.71,0.75
473.40,0.68
478.13,0.60
482.91,0.54
487.74,0.46
492.62,0.39
497.55,0.32
502.52,0.25
507.55,0.17
512.62,0.11
517.75,0.04
522.93,-0.04
528.16,-0.10
533.44,-0.16
538.77,-0.23
544.16,-0.30
549.60,-0.37
555.10,-0.42
560.65,-0.49
566.25,-0.55
571.92,-0.62
577.64,-0.67
583.41,-0.73
589.25,-0.79
595.14,-0.85
601.09,-0.91
607.10,-0.96
613.17,-1.03
619.30,-1.08
625.50,-1.14
631.75,-1.19
638.07,-1.25
644.45,-1.30
650.89,-1.36
657.40,-1.42
663.98,-1.47
670.62,-1.52
677.32,-1.57
684.10,-1.61
690.94,-1.66
697.85,-1.70
704.83,-1.74
711.87,-1.77
718.99,-1.81
726.18,-1.83
733.44,-1.84
740.78,-1.85
748.19,-1.86
755.67,-1.87
763.23,-1.86
770.86,-1.84
778.57,-1.82
786.35,-1.79
794.22,-1.76
802.16,-1.72
810.18,-1.68
818.28,-1.63
826.46,-1.57
834.73,-1.51
843.08,-1.45
851.51,-1.39
860.02,-1.31
868.62,-1.24
877.31,-1.17
886.08,-1.10
894.94,-1.03
903.89,-0.95
912.93,-0.87
922.06,-0.78
931.28,-0.70
940.59,-0.61
950.00,-0.52
959.50,-0.43
969.09,-0.33
978.78,-0.23
988.57,-0.13
998.46,-0.02
1008.44,0.09
1018.53,0.20
1028.71,0.30
1039.00,0.40
1049.39,0.51
1059.88,0.62
1070.48,0.74
1081.19,0.86
1092.00,0.99
1102.92,1.14
1113.95,1.29
1125.09,1.43
1136.34,1.59
1147.70,1.72
1159.18,1.85
1170.77,1.97
1182.48,2.08
1194.30,2.17
1206.25,2.26
1218.31,2.35
1230.49,2.42
1242.80,2.50
1255.22,2.58
1267.78,2.65
1280.45,2.73
1293.26,2.79
1306.19,2.86
1319.25,2.94
1332.45,3.00
1345.77,3.07
1359.23,3.14
1372.82,3.21
1386.55,3.28
1400.41,3.36
1414.42,3.42
1428.56,3.49
1442.85,3.56
1457.28,3.63
1471.85,3.69
1486.57,3.74
1501.43,3.80
1516.45,3.84
1531.61,3.88
1546.93,3.92
1562.40,3.95
1578.02,3.98
1593.80,4.01
1609.74,4.05
1625.84,4.10
1642.10,4.15
1658.52,4.22
1675.10,4.29
1691.85,4.38
1708.77,4.47
1725.86,4.59
1743.12,4.70
1760.55,4.82
1778.15,4.94
1795.94,5.07
1813.90,5.22
1832.03,5.35
1850.36,5.51
1868.86,5.67
1887.55,5.83
1906.42,6.00
1925.49,6.18
1944.74,6.36
1964.19,6.56
1983.83,6.76
2003.67,6.97
2023.71,7.19
2043.94,7.41
2064.38,7.63
2085.03,7.89
2105.88,8.14
2126.94,8.39
2148.20,8.66
2169.69,8.93
2191.38,9.21
2213.30,9.50
2235.43,9.79
2257.78,10.07
2280.36,10.36
2303.17,10.64
2326.20,10.93
2349.46,11.21
2372.95,11.48
2396.68,11.74
2420.65,11.99
2444.86,12.24
2469.31,12.46
2494.00,12.67
2518.94,12.85
2544.13,13.01
2569.57,13.14
2595.27,13.24
2621.22,13.30
2647.43,13.33
2673.90,13.34
2700.64,13.29
2727.65,13.20
2754.93,13.10
2782.48,12.96
2810.30,12.78
2838.40,12.58
2866.79,12.37
2895.46,12.12
2924.41,11.86
2953.65,11.59
2983.19,11.32
3013.02,11.02
3043.15,10.74
3073.58,10.45
3104.32,10.16
3135.36,9.86
3166.72,9.58
3198.38,9.29
3230.37,9.01
3262.67,8.74
3295.30,8.47
3328.25,8.21
3361.53,7.95
3395.15,7.71
3429.10,7.46
3463.39,7.23
3498.03,7.01
3533.01,6.79
3568.34,6.58
3604.02,6.38
3640.06,6.19
3676.46,6.00
3713.22,5.83
3750.36,5.66
3787.86,5.50
3825.74,5.35
3864.00,5.20
3902.64,5.06
3941.66,4.93
3981.08,4.80
4020.89,4.68
4061.10,4.56
4101.71,4.45
4142.73,4.36
4184.15,4.26
4226.00,4.17
4268.26,4.09
4310.94,4.03
4354.05,3.96
4397.59,3.91
4441.56,3.86
4485.98,3.83
4530.84,3.80
4576.15,3.78
4621.91,3.77
4668.13,3.78
4714.81,3.79
4761.96,3.81
4809.58,3.84
4857.67,3.87
4906.25,3.92
4955.31,3.98
5004.87,4.06
5054.91,4.14
5105.46,4.23
5156.52,4.35
5208.08,4.46
5260.16,4.59
5312.77,4.73
5365.89,4.89
5419.55,5.07
5473.75,5.26
5528.49,5.47
5583.77,5.69
5639.61,5.94
5696.00,6.21
5752.96,6.49
5810.49,6.80
5868.60,7.15
5927.28,7.50
5986.56,7.90
6046.42,8.32
6106.89,8.78
6167.96,9.25
6229.64,9.78
6291.93,10.32
6354.85,10.88
6418.40,11.47
6482.58,12.06
6547.41,12.65
6612.88,13.19
6679.01,13.70
6745.80,14.16
6813.26,14.51
6881.39,14.78
6950.21,14.96
7019.71,15.02
7089.91,14.96
7160.81,14.82
7232.41,14.56
7304.74,14.21
7377.79,13.79
7451.56,13.31
7526.08,12.75
7601.34,12.18
7677.35,11.58
7754.13,10.98
7831.67,10.37
7909.98,9.78
7989.08,9.21
8068.98,8.68
8149.67,8.17
8231.16,7.70
8313.47,7.28
8396.61,6.87
8480.57,6.50
8565.38,6.18
8651.03,5.88
8737.54,5.60
8824.92,5.36
8913.17,5.16
9002.30,4.97
9092.32,4.83
9183.25,4.70
9275.08,4.61
9367.83,4.55
9461.51,4.53
9556.12,4.53
9651.68,4.57
9748.20,4.65
9845.68,4.77
9944.14,4.92
10043.58,5.12
10144.02,5.37
10245.46,5.65
10347.91,5.99
10451.39,6.36
10555.91,6.75
10661.46,7.18
10768.08,7.60
10875.76,8.01
10984.52,8.38
11094.36,8.67
11205.31,8.89
11317.36,8.99
11430.53,8.92
11544.84,8.73
11660.29,8.42
11776.89,7.91
11894.66,7.31
12013.60,6.61
12133.74,5.82
12255.08,5.01
12377.63,4.16
12501.41,3.34
12626.42,2.55
12752.68,1.80
12880.21,1.10
13009.01,0.47
13139.10,-0.10
13270.49,-0.62
13403.20,-1.06
13537.23,-1.44
13672.60,-1.78
13809.33,-2.03
13947.42,-2.22
14086.90,-2.35
14227.77,-2.40
14370.04,-2.36
14513.74,-2.27
14658.88,-2.07
14805.47,-1.79
14953.52,-1.47
15103.06,-1.10
15254.09,-0.74
15406.63,-0.41
15560.70,-0.13
15716.30,0.02
15873.47,0.06
16032.20,-0.01
16192.52,-0.27
16354.45,-0.65
16517.99,-1.14
16683.17,-1.78
16850.01,-2.52
17018.51,-3.34
17188.69,-4.24
17360.58,-5.24
17534.18,-6.28
17709.53,-7.36
17886.62,-8.45
18065.49,-9.53
18246.14,-10.59
18428.60,-11.58
18612.89,-12.52
18799.02,-13.39
18987.01,-14.16
19176.88,-14.88
19368.65,-15.56
19562.33,-16.18
19757.96,-16.81
19955.54,-17.45
