frequency,raw,error,smoothed,error_smoothed,equalization,parametric_eq,fixed_band_eq,equalized_raw,equalized_smoothed,target
20.00,10.68,5.93,10.71,5.96,-5.96,-5.98,-2.75,4.71,4.75,4.74
20.20,10.70,5.96,10.72,5.98,-5.98,-5.99,-2.83,4.72,4.74,4.73
20.40,10.72,5.99,10.72,6.00,-6.00,-6.00,-2.91,4.72,4.73,4.72
20.61,10.74,6.01,10.73,6.01,-6.01,-6.01,-2.99,4.73,4.72,4.72
20.81,10.76,6.05,10.74,6.03,-6.03,-6.01,-3.08,4.73,4.71,4.70
21.02,10.78,6.07,10.74,6.04,-6.04,-6.02,-3.16,4.74,4.70,4.70
21.23,10.78,6.09,10.75,6.05,-6.05,-6.03,-3.25,4.72,4.69,4.69
21.44,10.78,6.08,10.76,6.07,-6.07,-6.03,-3.34,4.71,4.69,4.70
21.66,10.78,6.09,10.76,6.08,-6.08,-6.04,-3.44,4.69,4.68,4.69
21.87,10.78,6.10,10.77,6.10,-6.10,-6.05,-3.54,4.68,4.67,4.68
22.09,10.78,6.11,10.78,6.11,-6.11,-6.05,-3.64,4.67,4.67,4.67
22.31,10.78,6.11,10.78,6.12,-6.12,-6.06,-3.74,4.66,4.66,4.67
22.54,10.77,6.11,10.79,6.13,-6.13,-6.06,-3.84,4.64,4.66,4.66
22.76,10.77,6.11,10.80,6.14,-6.14,-6.07,-3.95,4.63,4.66,4.66
22.99,10.77,6.12,10.80,6.15,-6.15,-6.07,-4.06,4.62,4.65,4.65
23.22,10.79,6.15,10.81,6.16,-6.16,-6.08,-4.17,4.63,4.65,4.64
23.45,10.82,6.17,10.82,6.17,-6.17,-6.08,-4.29,4.65,4.65,4.65
23.69,10.84,6.20,10.82,6.18,-6.18,-6.09,-4.41,4.66,4.64,4.64
23.92,10.86,6.22,10.83,6.19,-6.19,-6.09,-4.53,4.67,4.64,4.64
24.16,10.87,6.22,10.84,6.20,-6.20,-6.10,-4.65,4.67,4.64,4.65
24.40,10.87,6.21,10.85,6.20,-6.20,-6.10,-4.78,4.66,4.65,4.65
24.65,10.87,6.21,10.86,6.21,-6.21,-6.10,-4.90,4.66,4.65,4.65
24.89,10.87,6.21,10.86,6.21,-6.21,-6.11,-5.03,4.65,4.65,4.65
25.14,10.87,6.21,10.87,6.22,-6.22,-6.11,-5.16,4.65,4.65,4.65
25.39,10.87,6.22,10.87,6.22,-6.22,-6.11,-5.29,4.65,4.65,4.65
25.65,10.87,6.22,10.87,6.22,-6.22,-6.12,-5.42,4.65,4.66,4.65
25.91,10.87,6.21,10.87,6.21,-6.21,-6.12,-5.55,4.65,4.66,4.66
26.16,10.87,6.20,10.87,6.21,-6.21,-6.12,-5.69,4.66,4.66,4.67
26.43,10.87,6.20,10.87,6.21,-6.21,-6.13,-5.82,4.66,4.66,4.67
26.69,10.87,6.20,10.87,6.20,-6.20,-6.13,-5.95,4.66,4.66,4.67
26.96,10.87,6.20,10.87,6.20,-6.20,-6.13,-6.08,4.66,4.66,4.67
27.23,10.87,6.20,10.87,6.20,-6.20,-6.13,-6.20,4.66,4.67,4.66
27.50,10.87,6.20,10.87,6.20,-6.20,-6.14,-6.33,4.66,4.67,4.66
27.77,10.87,6.19,10.87,6.21,-6.21,-6.14,-6.45,4.66,4.67,4.67
28.05,10.87,6.20,10.87,6.21,-6.21,-6.14,-6.56,4.66,4.67,4.67
28.33,10.87,6.21,10.88,6.21,-6.21,-6.14,-6.68,4.66,4.67,4.66
28.62,10.87,6.21,10.87,6.21,-6.21,-6.14,-6.78,4.66,4.67,4.66
28.90,10.87,6.20,10.87,6.20,-6.20,-6.14,-6.88,4.66,4.67,4.67
29.19,10.87,6.20,10.86,6.20,-6.20,-6.15,-6.98,4.67,4.67,4.67
29.48,10.87,6.20,10.85,6.19,-6.19,-6.15,-7.06,4.68,4.66,4.66
29.78,10.87,6.20,10.84,6.18,-6.18,-6.15,-7.14,4.69,4.66,4.66
30.08,10.86,6.19,10.83,6.17,-6.17,-6.15,-7.21,4.69,4.66,4.67
30.38,10.84,6.18,10.81,6.16,-6.16,-6.15,-7.27,4.68,4.65,4.66
30.68,10.81,6.16,10.79,6.14,-6.14,-6.15,-7.32,4.66,4.65,4.65
30.99,10.78,6.13,10.77,6.13,-6.13,-6.15,-7.36,4.64,4.64,4.65
31.30,10.75,6.11,10.76,6.12,-6.12,-6.15,-7.38,4.63,4.64,4.63
31.61,10.72,6.08,10.74,6.11,-6.11,-6.15,-7.40,4.61,4.63,4.63
31.93,10.69,6.07,10.72,6.10,-6.10,-6.15,-7.41,4.59,4.63,4.62
32.24,10.68,6.06,10.71,6.09,-6.09,-6.16,-7.41,4.59,4.62,4.62
32.57,10.68,6.07,10.70,6.08,-6.08,-6.16,-7.41,4.60,4.62,4.61
32.89,10.68,6.07,10.69,6.08,-6.08,-6.16,-7.39,4.60,4.61,4.60
33.22,10.68,6.08,10.68,6.08,-6.08,-6.16,-7.36,4.60,4.61,4.60
33.55,10.68,6.08,10.68,6.08,-6.08,-6.16,-7.33,4.60,4.60,4.60
33.89,10.68,6.07,10.68,6.08,-6.08,-6.16,-7.29,4.60,4.60,4.61
34.23,10.68,6.08,10.68,6.08,-6.08,-6.16,-7.24,4.60,4.60,4.59
34.57,10.68,6.09,10.67,6.08,-6.08,-6.16,-7.19,4.60,4.59,4.59
34.92,10.68,6.09,10.67,6.08,-6.08,-6.16,-7.13,4.60,4.59,4.59
35.27,10.68,6.08,10.66,6.07,-6.07,-6.16,-7.07,4.61,4.59,4.59
35.62,10.68,6.10,10.65,6.07,-6.07,-6.16,-7.01,4.61,4.58,4.58
35.97,10.68,6.10,10.63,6.06,-6.06,-6.16,-6.94,4.62,4.57,4.58
36.33,10.65,6.08,10.62,6.06,-6.06,-6.16,-6.88,4.59,4.56,4.56
36.70,10.61,6.06,10.60,6.06,-6.06,-6.16,-6.81,4.55,4.55,4.55
37.06,10.57,6.03,10.58,6.06,-6.06,-6.16,-6.74,4.51,4.53,4.54
37.43,10.54,6.02,10.57,6.05,-6.05,-6.16,-6.67,4.48,4.51,4.51
37.81,10.51,6.01,10.55,6.05,-6.05,-6.16,-6.60,4.45,4.49,4.50
38.19,10.49,6.01,10.53,6.06,-6.06,-6.16,-6.54,4.43,4.47,4.48
38.57,10.49,6.04,10.51,6.06,-6.06,-6.16,-6.47,4.43,4.45,4.45
38.95,10.49,6.06,10.49,6.06,-6.06,-6.16,-6.41,4.42,4.43,4.43
39.34,10.49,6.09,10.47,6.07,-6.07,-6.16,-6.35,4.42,4.40,4.39
39.74,10.49,6.11,10.45,6.07,-6.07,-6.16,-6.29,4.41,4.38,4.38
40.14,10.48,6.12,10.44,6.08,-6.08,-6.16,-6.24,4.39,4.36,4.35
40.54,10.44,6.11,10.43,6.10,-6.10,-6.16,-6.19,4.34,4.33,4.33
40.94,10.40,6.10,10.41,6.11,-6.11,-6.16,-6.14,4.29,4.31,4.30
41.35,10.39,6.10,10.40,6.11,-6.11,-6.16,-6.10,4.27,4.28,4.29
41.76,10.39,6.14,10.38,6.12,-6.12,-6.16,-6.06,4.27,4.26,4.25
42.18,10.37,6.13,10.36,6.13,-6.13,-6.16,-6.03,4.24,4.24,4.23
42.60,10.34,6.12,10.35,6.13,-6.13,-6.16,-6.00,4.21,4.21,4.22
43.03,10.30,6.11,10.32,6.13,-6.13,-6.16,-5.97,4.16,4.19,4.19
43.46,10.30,6.13,10.30,6.13,-6.13,-6.16,-5.95,4.17,4.17,4.16
43.90,10.30,6.15,10.28,6.13,-6.13,-6.16,-5.93,4.17,4.15,4.15
44.33,10.27,6.15,10.25,6.13,-6.13,-6.16,-5.92,4.14,4.12,4.12
44.78,10.22,6.12,10.22,6.13,-6.13,-6.16,-5.91,4.09,4.10,4.09
45.23,10.20,6.11,10.20,6.13,-6.13,-6.16,-5.91,4.06,4.07,4.08
45.68,10.20,6.15,10.18,6.14,-6.14,-6.16,-5.91,4.06,4.04,4.05
46.13,10.19,6.18,10.16,6.15,-6.15,-6.16,-5.91,4.04,4.01,4.01
46.60,10.14,6.16,10.13,6.16,-6.16,-6.17,-5.92,3.98,3.98,3.98
47.06,10.10,6.15,10.11,6.17,-6.17,-6.17,-5.93,3.93,3.94,3.95
47.53,10.06,6.14,10.09,6.18,-6.18,-6.17,-5.95,3.88,3.91,3.92
48.01,10.02,6.15,10.06,6.19,-6.19,-6.17,-5.97,3.83,3.87,3.87
48.49,10.02,6.19,10.03,6.20,-6.20,-6.17,-6.00,3.82,3.83,3.83
48.97,10.01,6.22,10.01,6.21,-6.21,-6.17,-6.03,3.79,3.79,3.79
49.46,10.01,6.25,9.99,6.23,-6.23,-6.17,-6.06,3.77,3.76,3.76
49.96,10.01,6.31,9.97,6.25,-6.25,-6.17,-6.09,3.76,3.72,3.70
50.46,9.97,6.30,9.94,6.26,-6.26,-6.17,-6.13,3.70,3.68,3.67
50.96,9.92,6.28,9.91,6.27,-6.27,-6.18,-6.17,3.64,3.64,3.63
51.47,9.87,6.27,9.88,6.28,-6.28,-6.18,-6.21,3.58,3.60,3.60
51.99,9.82,6.26,9.86,6.30,-6.30,-6.18,-6.26,3.52,3.56,3.56
52.51,9.82,6.29,9.83,6.31,-6.31,-6.18,-6.31,3.50,3.52,3.52
53.03,9.82,6.32,9.81,6.33,-6.33,-6.18,-6.35,3.49,3.48,3.50
53.56,9.82,6.36,9.78,6.33,-6.33,-6.18,-6.40,3.49,3.45,3.46
54.10,9.80,6.39,9.74,6.33,-6.33,-6.19,-6.45,3.46,3.41,3.41
54.64,9.69,6.31,9.71,6.34,-6.34,-6.19,-6.50,3.35,3.38,3.37
55.18,9.62,6.29,9.68,6.34,-6.34,-6.19,-6.55,3.28,3.34,3.33
55.74,9.62,6.32,9.65,6.34,-6.34,-6.19,-6.59,3.28,3.31,3.29
56.29,9.62,6.35,9.61,6.34,-6.34,-6.20,-6.64,3.28,3.28,3.26
56.86,9.62,6.38,9.58,6.34,-6.34,-6.20,-6.68,3.28,3.24,3.24
57.42,9.58,6.39,9.55,6.34,-6.34,-6.20,-6.72,3.24,3.21,3.19
58.00,9.53,6.36,9.51,6.34,-6.34,-6.20,-6.76,3.19,3.17,3.17
58.58,9.47,6.32,9.48,6.34,-6.34,-6.21,-6.79,3.13,3.14,3.15
59.16,9.43,6.31,9.44,6.34,-6.34,-6.21,-6.82,3.08,3.10,3.12
59.76,9.41,6.32,9.41,6.35,-6.35,-6.21,-6.84,3.06,3.06,3.09
60.35,9.38,6.34,9.38,6.35,-6.35,-6.21,-6.86,3.02,3.02,3.04
60.96,9.34,6.34,9.35,6.37,-6.37,-6.22,-6.87,2.97,2.98,3.00
61.57,9.29,6.34,9.31,6.37,-6.37,-6.22,-6.88,2.91,2.94,2.94
62.18,9.26,6.37,9.28,6.38,-6.38,-6.22,-6.88,2.88,2.90,2.89
62.80,9.24,6.40,9.24,6.39,-6.39,-6.23,-6.88,2.85,2.85,2.83
63.43,9.23,6.44,9.21,6.40,-6.40,-6.23,-6.87,2.83,2.81,2.79
64.07,9.21,6.45,9.17,6.41,-6.41,-6.23,-6.85,2.79,2.76,2.75
64.71,9.16,6.45,9.14,6.43,-6.43,-6.24,-6.83,2.73,2.72,2.71
65.35,9.10,6.43,9.11,6.44,-6.44,-6.24,-6.80,2.66,2.67,2.67
66.01,9.05,6.43,9.07,6.45,-6.45,-6.24,-6.77,2.60,2.62,2.62
66.67,9.05,6.45,9.03,6.45,-6.45,-6.25,-6.73,2.59,2.58,2.59
67.33,9.02,6.48,8.99,6.46,-6.46,-6.25,-6.69,2.56,2.53,2.53
68.01,8.95,6.45,8.95,6.46,-6.46,-6.25,-6.65,2.49,2.49,2.49
68.69,8.92,6.48,8.91,6.46,-6.46,-6.26,-6.60,2.45,2.44,2.44
69.37,8.87,6.46,8.87,6.47,-6.47,-6.26,-6.55,2.40,2.40,2.41
70.07,8.82,6.46,8.82,6.47,-6.47,-6.26,-6.50,2.35,2.35,2.36
70.77,8.77,6.45,8.78,6.48,-6.48,-6.27,-6.44,2.29,2.31,2.31
71.48,8.74,6.47,8.74,6.48,-6.48,-6.27,-6.38,2.26,2.26,2.27
72.19,8.70,6.49,8.70,6.49,-6.49,-6.27,-6.33,2.21,2.21,2.21
72.91,8.65,6.48,8.66,6.49,-6.49,-6.28,-6.27,2.15,2.17,2.17
73.64,8.59,6.47,8.62,6.49,-6.49,-6.28,-6.21,2.09,2.13,2.12
74.38,8.57,6.49,8.57,6.49,-6.49,-6.29,-6.16,2.08,2.08,2.08
75.12,8.57,6.54,8.54,6.49,-6.49,-6.29,-6.10,2.07,2.04,2.03
75.87,8.54,6.54,8.50,6.50,-6.50,-6.29,-6.05,2.04,2.00,2.00
76.63,8.49,6.53,8.46,6.49,-6.49,-6.30,-5.99,1.99,1.97,1.96
77.40,8.43,6.50,8.42,6.49,-6.49,-6.30,-5.94,1.94,1.93,1.93
78.17,8.37,6.48,8.38,6.49,-6.49,-6.30,-5.90,1.88,1.89,1.89
78.95,8.33,6.46,8.34,6.48,-6.48,-6.31,-5.85,1.84,1.86,1.86
79.74,8.29,6.46,8.30,6.47,-6.47,-6.31,-5.81,1.81,1.82,1.83
80.54,8.23,6.43,8.25,6.46,-6.46,-6.31,-5.77,1.77,1.79,1.79
81.35,8.19,6.43,8.21,6.45,-6.45,-6.32,-5.73,1.73,1.76,1.76
82.16,8.19,6.45,8.17,6.44,-6.44,-6.32,-5.70,1.74,1.72,1.73
82.98,8.19,6.49,8.12,6.43,-6.43,-6.32,-5.67,1.76,1.69,1.69
83.81,8.06,6.40,8.06,6.41,-6.41,-6.33,-5.65,1.65,1.65,1.66
84.65,8.00,6.38,8.02,6.40,-6.40,-6.33,-5.63,1.60,1.62,1.62
85.50,7.99,6.42,7.98,6.39,-6.39,-6.33,-5.61,1.59,1.58,1.57
86.35,7.95,6.41,7.93,6.39,-6.39,-6.34,-5.60,1.56,1.54,1.54
87.22,7.87,6.36,7.89,6.38,-6.38,-6.34,-5.59,1.49,1.51,1.51
88.09,7.80,6.33,7.84,6.37,-6.37,-6.34,-5.58,1.43,1.47,1.47
88.97,7.80,6.36,7.79,6.36,-6.36,-6.34,-5.58,1.44,1.43,1.43
89.86,7.77,6.39,7.74,6.35,-6.35,-6.34,-5.59,1.42,1.39,1.38
90.76,7.66,6.31,7.69,6.34,-6.34,-6.35,-5.60,1.31,1.34,1.35
91.66,7.62,6.32,7.64,6.34,-6.34,-6.35,-5.61,1.27,1.30,1.29
92.58,7.62,6.36,7.60,6.34,-6.34,-6.35,-5.62,1.27,1.25,1.26
93.51,7.60,6.38,7.56,6.35,-6.35,-6.35,-5.65,1.25,1.21,1.21
94.44,7.52,6.35,7.51,6.35,-6.35,-6.35,-5.67,1.16,1.16,1.17
95.39,7.42,6.30,7.46,6.35,-6.35,-6.35,-5.70,1.07,1.11,1.11
96.34,7.37,6.31,7.40,6.35,-6.35,-6.36,-5.73,1.02,1.05,1.06
97.30,7.32,6.32,7.34,6.35,-6.35,-6.36,-5.76,0.97,1.00,1.00
98.28,7.31,6.36,7.28,6.34,-6.34,-6.36,-5.80,0.97,0.94,0.94
99.26,7.28,6.40,7.22,6.33,-6.33,-6.36,-5.84,0.94,0.89,0.88
100.25,7.22,6.40,7.16,6.33,-6.33,-6.36,-5.89,0.89,0.83,0.82
101.25,7.14,6.36,7.10,6.32,-6.32,-6.36,-5.93,0.81,0.77,0.77
102.27,7.02,6.30,7.03,6.31,-6.31,-6.36,-5.98,0.71,0.72,0.71
103.29,6.94,6.28,6.95,6.30,-6.30,-6.36,-6.03,0.64,0.66,0.66
104.32,6.86,6.25,6.88,6.28,-6.28,-6.35,-6.08,0.58,0.60,0.61
105.37,6.78,6.23,6.80,6.26,-6.26,-6.35,-6.14,0.52,0.55,0.55
106.42,6.69,6.19,6.73,6.24,-6.24,-6.35,-6.19,0.45,0.49,0.49
107.48,6.66,6.23,6.66,6.22,-6.22,-6.35,-6.25,0.43,0.44,0.42
108.56,6.64,6.25,6.58,6.20,-6.20,-6.35,-6.30,0.43,0.38,0.39
109.64,6.56,6.23,6.51,6.19,-6.19,-6.34,-6.35,0.37,0.33,0.33
110.74,6.43,6.16,6.45,6.17,-6.17,-6.34,-6.41,0.26,0.28,0.27
111.85,6.36,6.13,6.38,6.16,-6.16,-6.34,-6.46,0.20,0.22,0.22
112.97,6.29,6.11,6.32,6.15,-6.15,-6.34,-6.50,0.14,0.17,0.18
114.10,6.23,6.10,6.26,6.14,-6.14,-6.33,-6.55,0.09,0.12,0.13
115.24,6.18,6.10,6.21,6.13,-6.13,-6.33,-6.59,0.05,0.08,0.07
116.39,6.18,6.16,6.15,6.12,-6.12,-6.32,-6.63,0.06,0.03,0.02
117.55,6.16,6.17,6.10,6.11,-6.11,-6.32,-6.66,0.04,-0.01,-0.02
118.73,6.05,6.12,6.05,6.11,-6.11,-6.31,-6.69,-0.06,-0.05,-0.07
119.92,6.01,6.11,6.00,6.10,-6.10,-6.31,-6.71,-0.09,-0.09,-0.11
121.12,5.96,6.09,5.96,6.09,-6.09,-6.30,-6.73,-0.13,-0.14,-0.13
122.33,5.88,6.05,5.91,6.09,-6.09,-6.29,-6.74,-0.21,-0.18,-0.17
123.55,5.84,6.04,5.87,6.09,-6.09,-6.29,-6.74,-0.25,-0.21,-0.21
124.79,5.85,6.09,5.83,6.08,-6.08,-6.28,-6.74,-0.23,-0.25,-0.24
126.03,5.79,6.07,5.78,6.07,-6.07,-6.27,-6.73,-0.28,-0.29,-0.28
127.29,5.74,6.06,5.73,6.06,-6.06,-6.27,-6.71,-0.32,-0.33,-0.32
128.57,5.69,6.05,5.68,6.04,-6.04,-6.26,-6.69,-0.36,-0.36,-0.36
129.85,5.68,6.08,5.63,6.03,-6.03,-6.25,-6.66,-0.35,-0.40,-0.40
131.15,5.59,6.03,5.58,6.01,-6.01,-6.24,-6.63,-0.43,-0.44,-0.44
132.46,5.53,6.01,5.53,6.00,-6.00,-6.23,-6.59,-0.48,-0.47,-0.48
133.79,5.48,5.99,5.48,5.99,-5.99,-6.22,-6.54,-0.51,-0.51,-0.52
135.12,5.40,5.95,5.42,5.97,-5.97,-6.21,-6.49,-0.57,-0.55,-0.55
136.48,5.34,5.92,5.37,5.96,-5.96,-6.20,-6.43,-0.62,-0.59,-0.58
137.84,5.32,5.93,5.31,5.94,-5.94,-6.19,-6.38,-0.62,-0.62,-0.61
139.22,5.27,5.94,5.26,5.92,-5.92,-6.17,-6.31,-0.65,-0.66,-0.67
140.61,5.21,5.90,5.20,5.89,-5.89,-6.16,-6.25,-0.69,-0.70,-0.69
142.02,5.13,5.86,5.14,5.87,-5.87,-6.15,-6.18,-0.75,-0.73,-0.74
143.44,5.08,5.85,5.08,5.85,-5.85,-6.14,-6.11,-0.78,-0.77,-0.78
144.87,5.04,5.84,5.03,5.83,-5.83,-6.12,-6.04,-0.80,-0.81,-0.81
146.32,5.01,5.85,4.98,5.82,-5.82,-6.11,-5.98,-0.81,-0.84,-0.84
147.78,4.92,5.79,4.93,5.81,-5.81,-6.09,-5.91,-0.89,-0.88,-0.88
149.26,4.86,5.77,4.87,5.79,-5.79,-6.08,-5.84,-0.93,-0.92,-0.92
150.75,4.84,5.80,4.82,5.78,-5.78,-6.06,-5.77,-0.94,-0.95,-0.96
152.26,4.76,5.75,4.77,5.76,-5.76,-6.05,-5.70,-1.00,-0.99,-0.99
153.78,4.67,5.69,4.72,5.75,-5.75,-6.03,-5.63,-1.08,-1.03,-1.03
155.32,4.65,5.71,4.66,5.73,-5.73,-6.01,-5.57,-1.09,-1.07,-1.06
156.88,4.65,5.75,4.61,5.72,-5.72,-5.99,-5.51,-1.07,-1.11,-1.10
158.44,4.59,5.73,4.56,5.71,-5.71,-5.98,-5.45,-1.13,-1.15,-1.15
160.03,4.51,5.70,4.50,5.70,-5.70,-5.96,-5.39,-1.19,-1.19,-1.19
161.63,4.46,5.69,4.45,5.68,-5.68,-5.94,-5.34,-1.22,-1.24,-1.23
163.24,4.39,5.67,4.39,5.67,-5.67,-5.92,-5.29,-1.28,-1.28,-1.28
164.88,4.33,5.65,4.33,5.65,-5.65,-5.90,-5.24,-1.33,-1.32,-1.32
166.53,4.28,5.65,4.27,5.64,-5.64,-5.88,-5.20,-1.36,-1.37,-1.37
168.19,4.23,5.64,4.20,5.62,-5.62,-5.86,-5.15,-1.39,-1.41,-1.41
169.87,4.16,5.61,4.14,5.60,-5.60,-5.84,-5.12,-1.44,-1.46,-1.46
171.57,4.07,5.57,4.08,5.58,-5.58,-5.82,-5.08,-1.52,-1.50,-1.50
173.29,4.04,5.59,4.01,5.56,-5.56,-5.79,-5.05,-1.52,-1.55,-1.55
175.02,3.95,5.53,3.95,5.54,-5.54,-5.77,-5.03,-1.59,-1.59,-1.59
176.77,3.85,5.48,3.90,5.53,-5.53,-5.75,-5.01,-1.68,-1.63,-1.63
178.54,3.84,5.51,3.84,5.51,-5.51,-5.73,-4.99,-1.67,-1.67,-1.67
180.32,3.79,5.50,3.79,5.50,-5.50,-5.70,-4.97,-1.71,-1.71,-1.72
182.13,3.71,5.46,3.74,5.49,-5.49,-5.68,-4.96,-1.78,-1.75,-1.75
183.95,3.67,5.45,3.70,5.48,-5.48,-5.65,-4.96,-1.81,-1.78,-1.78
185.79,3.66,5.48,3.65,5.47,-5.47,-5.63,-4.95,-1.82,-1.82,-1.82
187.65,3.61,5.46,3.61,5.47,-5.47,-5.60,-4.95,-1.86,-1.86,-1.85
189.52,3.56,5.45,3.57,5.46,-5.46,-5.58,-4.96,-1.91,-1.89,-1.89
191.42,3.54,5.45,3.54,5.46,-5.46,-5.55,-4.96,-1.92,-1.92,-1.91
193.33,3.54,5.49,3.49,5.45,-5.45,-5.52,-4.97,-1.91,-1.96,-1.95
195.27,3.47,5.46,3.45,5.44,-5.44,-5.50,-4.99,-1.98,-1.99,-1.99
197.22,3.40,5.42,3.41,5.43,-5.43,-5.47,-5.00,-2.03,-2.02,-2.03
199.19,3.39,5.44,3.36,5.41,-5.41,-5.44,-5.02,-2.02,-2.05,-2.05
201.18,3.35,5.44,3.31,5.39,-5.39,-5.41,-5.04,-2.04,-2.08,-2.09
203.19,3.30,5.41,3.25,5.37,-5.37,-5.39,-5.06,-2.07,-2.11,-2.11
205.23,3.21,5.35,3.20,5.34,-5.34,-5.36,-5.09,-2.13,-2.14,-2.14
207.28,3.13,5.29,3.13,5.31,-5.31,-5.33,-5.11,-2.18,-2.18,-2.16
209.35,3.07,5.27,3.07,5.28,-5.28,-5.30,-5.14,-2.21,-2.21,-2.20
211.44,3.01,5.24,3.02,5.25,-5.25,-5.27,-5.17,-2.24,-2.24,-2.23
213.56,2.94,5.19,2.95,5.22,-5.22,-5.24,-5.20,-2.28,-2.26,-2.26
215.69,2.89,5.18,2.89,5.18,-5.18,-5.21,-5.23,-2.30,-2.29,-2.29
217.85,2.82,5.13,2.84,5.16,-5.16,-5.18,-5.26,-2.34,-2.32,-2.31
220.03,2.75,5.10,2.78,5.13,-5.13,-5.15,-5.29,-2.38,-2.34,-2.35
222.23,2.72,5.09,2.73,5.10,-5.10,-5.11,-5.31,-2.38,-2.37,-2.37
224.45,2.71,5.10,2.69,5.07,-5.07,-5.08,-5.34,-2.37,-2.39,-2.40
226.70,2.63,5.04,2.65,5.05,-5.05,-5.05,-5.36,-2.43,-2.41,-2.42
228.96,2.62,5.04,2.61,5.04,-5.04,-5.02,-5.38,-2.42,-2.42,-2.43
231.25,2.63,5.06,2.58,5.02,-5.02,-4.99,-5.40,-2.39,-2.44,-2.44
233.57,2.56,5.01,2.55,5.00,-5.00,-4.95,-5.41,-2.45,-2.45,-2.46
235.90,2.46,4.92,2.53,4.99,-4.99,-4.92,-5.42,-2.53,-2.46,-2.47
238.26,2.48,4.95,2.50,4.97,-4.97,-4.89,-5.43,-2.49,-2.47,-2.47
240.64,2.50,4.96,2.48,4.95,-4.95,-4.85,-5.43,-2.45,-2.47,-2.46
243.05,2.45,4.92,2.45,4.92,-4.92,-4.82,-5.42,-2.48,-2.47,-2.47
245.48,2.43,4.91,2.42,4.90,-4.90,-4.79,-5.41,-2.47,-2.48,-2.48
247.93,2.45,4.93,2.40,4.87,-4.87,-4.75,-5.40,-2.43,-2.48,-2.49
250.41,2.39,4.86,2.37,4.85,-4.85,-4.72,-5.38,-2.46,-2.48,-2.47
252.92,2.36,4.83,2.34,4.82,-4.82,-4.68,-5.35,-2.47,-2.48,-2.47
255.45,2.33,4.82,2.30,4.79,-4.79,-4.65,-5.32,-2.47,-2.49,-2.49
258.00,2.29,4.77,2.27,4.76,-4.76,-4.61,-5.28,-2.48,-2.49,-2.48
260.58,2.24,4.73,2.24,4.74,-4.74,-4.58,-5.24,-2.50,-2.50,-2.49
263.19,2.16,4.65,2.21,4.72,-4.72,-4.55,-5.19,-2.56,-2.51,-2.50
265.82,2.14,4.65,2.17,4.69,-4.69,-4.51,-5.14,-2.55,-2.52,-2.51
268.48,2.13,4.65,2.14,4.66,-4.66,-4.47,-5.08,-2.54,-2.53,-2.52
271.16,2.13,4.66,2.10,4.64,-4.64,-4.44,-5.02,-2.51,-2.53,-2.53
273.87,2.06,4.60,2.07,4.61,-4.61,-4.40,-4.96,-2.55,-2.54,-2.54
276.61,2.03,4.58,2.02,4.58,-4.58,-4.37,-4.89,-2.55,-2.55,-2.55
279.38,1.98,4.56,1.99,4.54,-4.54,-4.33,-4.82,-2.57,-2.56,-2.58
282.17,1.94,4.51,1.95,4.52,-4.52,-4.30,-4.74,-2.58,-2.57,-2.57
284.99,1.94,4.52,1.92,4.49,-4.49,-4.26,-4.67,-2.55,-2.57,-2.58
287.84,1.95,4.52,1.89,4.46,-4.46,-4.22,-4.59,-2.51,-2.57,-2.57
290.72,1.89,4.47,1.85,4.43,-4.43,-4.19,-4.51,-2.54,-2.58,-2.59
293.63,1.79,4.37,1.81,4.39,-4.39,-4.15,-4.43,-2.61,-2.58,-2.58
296.57,1.75,4.32,1.77,4.36,-4.36,-4.12,-4.35,-2.61,-2.58,-2.58
299.53,1.71,4.29,1.74,4.32,-4.32,-4.08,-4.27,-2.61,-2.58,-2.58
302.53,1.65,4.22,1.69,4.28,-4.28,-4.04,-4.19,-2.63,-2.58,-2.57
305.55,1.63,4.20,1.65,4.23,-4.23,-4.01,-4.11,-2.61,-2.58,-2.58
308.61,1.65,4.22,1.61,4.19,-4.19,-3.97,-4.04,-2.54,-2.58,-2.57
311.69,1.65,4.23,1.56,4.14,-4.14,-3.94,-3.96,-2.50,-2.58,-2.58
314.81,1.54,4.11,1.52,4.10,-4.10,-3.90,-3.88,-2.56,-2.58,-2.58
317.96,1.47,4.06,1.47,4.05,-4.05,-3.86,-3.81,-2.59,-2.58,-2.59
321.14,1.40,3.98,1.42,4.01,-4.01,-3.83,-3.73,-2.61,-2.58,-2.58
324.35,1.37,3.95,1.38,3.96,-3.96,-3.79,-3.66,-2.59,-2.58,-2.58
327.59,1.37,3.94,1.34,3.92,-3.92,-3.75,-3.59,-2.55,-2.58,-2.58
330.87,1.31,3.89,1.29,3.88,-3.88,-3.72,-3.53,-2.57,-2.58,-2.58
334.18,1.20,3.79,1.25,3.83,-3.83,-3.68,-3.46,-2.64,-2.58,-2.59
337.52,1.17,3.75,1.21,3.79,-3.79,-3.64,-3.40,-2.62,-2.58,-2.58
340.90,1.17,3.75,1.16,3.74,-3.74,-3.61,-3.34,-2.57,-2.58,-2.59
344.30,1.15,3.73,1.11,3.69,-3.69,-3.57,-3.28,-2.54,-2.58,-2.58
347.75,1.05,3.62,1.07,3.64,-3.64,-3.54,-3.22,-2.59,-2.57,-2.57
351.23,0.99,3.57,1.03,3.60,-3.60,-3.50,-3.17,-2.61,-2.57,-2.58
354.74,0.98,3.54,0.99,3.55,-3.55,-3.46,-3.12,-2.58,-2.56,-2.56
358.28,0.99,3.55,0.95,3.51,-3.51,-3.43,-3.07,-2.52,-2.56,-2.57
361.87,0.99,3.54,0.91,3.46,-3.46,-3.39,-3.02,-2.48,-2.56,-2.56
365.49,0.87,3.42,0.86,3.42,-3.42,-3.35,-2.98,-2.55,-2.55,-2.55
369.14,0.82,3.36,0.83,3.37,-3.37,-3.32,-2.94,-2.56,-2.55,-2.54
372.83,0.77,3.30,0.79,3.33,-3.33,-3.28,-2.90,-2.56,-2.54,-2.53
376.56,0.73,3.26,0.75,3.28,-3.28,-3.25,-2.86,-2.56,-2.54,-2.53
380.33,0.67,3.20,0.71,3.24,-3.24,-3.21,-2.82,-2.57,-2.54,-2.54
384.13,0.65,3.17,0.67,3.21,-3.21,-3.17,-2.79,-2.56,-2.54,-2.53
387.97,0.66,3.19,0.63,3.17,-3.17,-3.14,-2.76,-2.51,-2.54,-2.53
391.85,0.65,3.18,0.59,3.13,-3.13,-3.10,-2.73,-2.48,-2.54,-2.53
395.77,0.55,3.09,0.55,3.09,-3.09,-3.07,-2.70,-2.54,-2.54,-2.54
399.73,0.48,3.02,0.50,3.05,-3.05,-3.03,-2.68,-2.58,-2.55,-2.54
403.72,0.47,3.00,0.47,3.02,-3.02,-2.99,-2.65,-2.55,-2.55,-2.53
407.76,0.46,3.01,0.43,2.99,-2.99,-2.96,-2.63,-2.53,-2.56,-2.55
411.84,0.41,2.96,0.39,2.95,-2.95,-2.92,-2.61,-2.54,-2.56,-2.56
415.96,0.37,2.92,0.36,2.92,-2.92,-2.89,-2.59,-2.55,-2.56,-2.56
420.12,0.36,2.92,0.33,2.88,-2.88,-2.85,-2.57,-2.52,-2.55,-2.57
424.32,0.29,2.85,0.29,2.84,-2.84,-2.82,-2.55,-2.55,-2.54,-2.56
428.56,0.22,2.76,0.26,2.79,-2.79,-2.78,-2.53,-2.57,-2.53,-2.54
432.85,0.20,2.72,0.23,2.75,-2.75,-2.74,-2.51,-2.55,-2.51,-2.52
437.18,0.23,2.74,0.22,2.70,-2.70,-2.71,-2.50,-2.48,-2.49,-2.51
441.55,0.22,2.69,0.21,2.66,-2.66,-2.67,-2.48,-2.45,-2.45,-2.47
445.96,0.15,2.58,0.20,2.62,-2.62,-2.64,-2.46,-2.48,-2.42,-2.43
450.42,0.17,2.56,0.20,2.58,-2.58,-2.60,-2.45,-2.41,-2.37,-2.39
454.93,0.23,2.57,0.21,2.54,-2.54,-2.56,-2.43,-2.31,-2.33,-2.34
459.48,0.24,2.52,0.22,2.50,-2.50,-2.53,-2.41,-2.26,-2.28,-2.28
464.07,0.18,2.39,0.23,2.46,-2.46,-2.49,-2.40,-2.28,-2.22,-2.22
468.71,0.21,2.37,0.24,2.41,-2.41,-2.45,-2.38,-2.20,-2.17,-2.17
473.40,0.28,2.38,0.26,2.37,-2.37,-2.42,-2.36,-2.09,-2.11,-2.11
478.13,0.31,2.35,0.27,2.33,-2.33,-2.38,-2.34,-2.03,-2.06,-2.05
482.91,0.30,2.29,0.28,2.29,-2.29,-2.34,-2.32,-1.99,-2.01,-2.00
487.74,0.32,2.27,0.28,2.25,-2.25,-2.31,-2.29,-1.93,-1.96,-1.96
492.62,0.32,2.24,0.28,2.20,-2.20,-2.27,-2.27,-1.89,-1.92,-1.92
