frequency,raw
20.00,15.59
20.20,15.62
20.40,15.66
20.61,15.69
20.81,15.72
21.02,15.75
21.23,15.79
21.44,15.82
21.66,15.85
21.87,15.89
22.09,15.92
22.31,15.96
22.54,16.01
22.76,16.05
22.99,16.09
23.22,16.12
23.45,16.15
23.69,16.19
23.92,16.22
24.16,16.26
24.40,16.30
24.65,16.35
24.89,16.40
25.14,16.44
25.39,16.48
25.65,16.51
25.91,16.54
26.16,16.56
26.43,16.58
26.69,16.60
26.96,16.62
27.23,16.63
27.50,16.63
27.77,16.63
28.05,16.64
28.33,16.65
28.62,16.66
28.90,16.68
29.19,16.71
29.48,16.72
29.78,16.74
30.08,16.75
30.38,16.76
30.68,16.77
30.99,16.77
31.30,16.77
31.61,16.76
31.93,16.75
32.24,16.74
32.57,16.73
32.89,16.71
33.22,16.68
33.55,16.66
33.89,16.63
34.23,16.62
34.57,16.62
34.92,16.62
35.27,16.64
35.62,16.65
35.97,16.65
36.33,16.65
36.70,16.63
37.06,16.61
37.43,16.59
37.81,16.57
38.19,16.54
38.57,16.52
38.95,16.50
39.34,16.47
39.74,16.43
40.14,16.39
40.54,16.35
40.94,16.30
41.35,16.26
41.76,16.22
42.18,16.19
42.60,16.17
43.03,16.14
43.46,16.10
43.90,16.07
44.33,16.02
44.78,15.98
45.23,15.95
45.68,15.91
46.13,15.87
46.60,15.82
47.06,15.78
47.53,15.74
48.01,15.70
48.49,15.66
48.97,15.62
49.46,15.57
49.96,15.52
50.46,15.47
50.96,15.42
51.47,15.38
51.99,15.35
52.51,15.30
53.03,15.25
53.56,15.19
54.10,15.13
54.64,15.08
55.18,15.03
55.74,14.99
56.29,14.95
56.86,14.89
57.42,14.83
58.00,14.77
58.58,14.72
59.16,14.67
59.76,14.63
60.35,14.59
60.96,14.56
61.57,14.52
62.18,14.47
62.80,14.43
63.43,14.39
64.07,14.35
64.71,14.31
65.35,14.27
66.01,14.23
66.67,14.20
67.33,14.18
68.01,14.16
68.69,14.13
69.37,14.09
70.07,14.05
70.77,14.01
71.48,13.97
72.19,13.95
72.91,13.92
73.64,13.89
74.38,13.86
75.12,13.83
75.87,13.78
76.63,13.74
77.40,13.70
78.17,13.65
78.95,13.60
79.74,13.55
80.54,13.50
81.35,13.46
82.16,13.43
82.98,13.38
83.81,13.33
84.65,13.26
85.50,13.21
86.35,13.15
87.22,13.10
88.09,13.05
88.97,13.00
89.86,12.94
90.76,12.87
91.66,12.82
92.58,12.77
93.51,12.71
94.44,12.66
95.39,12.61
96.34,12.55
97.30,12.49
98.28,12.44
99.26,12.40
100.25,12.35
101.25,12.31
102.27,12.26
103.29,12.20
104.32,12.15
105.37,12.10
106.42,12.06
107.48,12.03
108.56,11.99
109.64,11.94
110.74,11.89
111.85,11.84
112.97,11.80
114.10,11.77
115.24,11.74
116.39,11.69
117.55,11.65
118.73,11.60
119.92,11.55
121.12,11.52
122.33,11.49
123.55,11.45
124.79,11.39
126.03,11.33
127.29,11.28
128.57,11.24
129.85,11.18
131.15,11.13
132.46,11.07
133.79,11.01
135.12,10.95
136.48,10.90
137.84,10.83
139.22,10.77
140.61,10.70
142.02,10.64
143.44,10.59
144.87,10.54
146.32,10.47
147.78,10.41
149.26,10.35
150.75,10.29
152.26,10.25
153.78,10.19
155.32,10.13
156.88,10.07
158.44,10.02
160.03,9.97
161.63,9.91
163.24,9.85
164.88,9.78
166.53,9.72
168.19,9.68
169.87,9.62
171.57,9.55
173.29,9.48
175.02,9.42
176.77,9.36
178.54,9.31
180.32,9.24
182.13,9.17
183.95,9.09
185.79,9.04
187.65,8.98
189.52,8.92
191.42,8.85
193.33,8.78
195.27,8.72
197.22,8.66
199.19,8.60
201.18,8.53
203.19,8.45
205.23,8.39
207.28,8.33
209.35,8.28
211.44,8.21
213.56,8.14
215.69,8.08
217.85,8.03
220.03,7.97
222.23,7.91
224.45,7.84
226.70,7.78
228.96,7.73
231.25,7.68
233.57,7.61
235.90,7.54
238.26,7.47
240.64,7.42
243.05,7.37
245.48,7.30
247.93,7.22
250.41,7.16
252.92,7.09
255.45,7.04
258.00,6.97
260.58,6.90
263.19,6.83
265.82,6.76
268.48,6.71
271.16,6.66
273.87,6.59
276.61,6.52
279.38,6.45
282.17,6.40
284.99,6.34
287.84,6.29
290.72,6.22
293.63,6.16
296.57,6.10
299.53,6.06
302.53,6.00
305.55,5.94
308.61,5.89
311.69,5.83
314.81,5.78
317.96,5.72
321.14,5.67
324.35,5.61
327.59,5.55
330.87,5.49
334.18,5.44
337.52,5.39
340.90,5.33
344.30,5.27
347.75,5.21
351.23,5.16
354.74,5.11
358.28,5.06
361.87,4.99
365.49,4.93
369.14,4.87
372.83,4.81
376.56,4.75
380.33,4.69
384.13,4.63
387.97,4.57
391.85,4.52
395.77,4.46
399.73,4.42
403.72,4.36
407.76,4.29
411.84,4.23
415.96,4.17
420.12,4.12
424.32,4.07
428.56,4.01
432.85,3.96
437.18,3.90
441.55,3.85
445.96,3.78
450.42,3.73
454.93,3.68
459.48,3.62
464.07,3.57
468.71,3.52
473.40,3.47
478.13,3.41
482.91,3.36
487.74,3.32
492.62,3.29
497.55,3.24
502.52,3.19
507.55,3.13
512.62,3.08
517.75,3.04
522.93,3.00
528.16,2.96
533.44,2.90
538.77,2.84
544.16,2.79
549.60,2.75
555.10,2.70
560.65,2.65
566.25,2.59
571.92,2.53
577.64,2.46
583.41,2.40
589.25,2.36
595.14,2.31
601.09,2.26
607.10,2.21
613.17,2.15
619.30,2.10
625.50,2.06
631.75,2.01
638.07,1.97
644.45,1.92
650.89,1.86
657.40,1.80
663.98,1.75
670.62,1.70
677.32,1.67
684.10,1.62
690.94,1.57
697.85,1.51
704.83,1.46
711.87,1.41
718.99,1.37
726.18,1.34
733.44,1.30
740.78,1.26
748.19,1.21
755.67,1.16
763.23,1.12
770.86,1.09
778.57,1.05
786.35,1.00
794.22,0.95
802.16,0.90
810.18,0.85
818.28,0.80
826.46,0.75
834.73,0.72
843.08,0.68
851.51,0.64
860.02,0.60
868.62,0.55
877.31,0.51
886.08,0.47
894.94,0.43
903.89,0.39
912.93,0.35
922.06,0.32
931.28,0.28
940.59,0.25
950.00,0.22
959.50,0.18
969.09,0.15
978.78,0.10
988.57,0.05
998.46,0.01
1008.44,-0.04
1018.53,-0.07
1028.71,-0.10
1039.00,-0.12
1049.39,-0.14
1059.88,-0.15
1070.48,-0.18
1081.19,-0.21
1092.00,-0.25
1102.92,-0.28
1113.95,-0.31
1125.09,-0.33
1136.34,-0.35
1147.70,-0.38
1159.18,-0.40
1170.77,-0.43
1182.48,-0.46
1194.30,-0.49
1206.25,-0.52
1218.31,-0.54
1230.49,-0.56
1242.80,-0.57
1255.22,-0.57
1267.78,-0.57
1280.45,-0.56
1293.26,-0.54
1306.19,-0.53
1319.25,-0.54
1332.45,-0.55
1345.77,-0.56
1359.23,-0.58
1372.82,-0.61
1386.55,-0.64
1400.41,-0.67
1414.42,-0.70
1428.56,-0.73
1442.85,-0.76
1457.28,-0.79
1471.85,-0.82
1486.57,-0.84
1501.43,-0.87
1516.45,-0.88
1531.61,-0.90
1546.93,-0.90
1562.40,-0.90
1578.02,-0.89
1593.80,-0.89
1609.74,-0.88
1625.84,-0.88
1642.10,-0.88
1658.52,-0.88
1675.10,-0.88
1691.85,-0.88
1708.77,-0.88
1725.86,-0.88
1743.12,-0.88
1760.55,-0.88
1778.15,-0.88
1795.94,-0.89
1813.90,-0.89
1832.03,-0.90
1850.36,-0.90
1868.86,-0.89
1887.55,-0.88
1906.42,-0.86
1925.49,-0.84
1944.74,-0.82
1964.19,-0.79
1983.83,-0.76
2003.67,-0.73
2023.71,-0.69
2043.94,-0.66
2064.38,-0.63
2085.03,-0.61
2105.88,-0.58
2126.94,-0.56
2148.20,-0.55
2169.69,-0.54
2191.38,-0.54
2213.30,-0.55
2235.43,-0.56
2257.78,-0.57
2280.36,-0.57
2303.17,-0.56
2326.20,-0.56
2349.46,-0.55
2372.95,-0.52
2396.68,-0.50
2420.65,-0.46
2444.86,-0.43
2469.31,-0.38
2494.00,-0.32
2518.94,-0.26
2544.13,-0.20
2569.57,-0.12
2595.27,-0.03
2621.22,0.06
2647.43,0.17
2673.90,0.27
2700.64,0.37
2727.65,0.49
2754.93,0.60
2782.48,0.72
2810.30,0.85
2838.40,0.97
2866.79,1.10
2895.46,1.22
2924.41,1.33
2953.65,1.44
2983.19,1.54
3013.02,1.64
3043.15,1.73
3073.58,1.82
3104.32,1.90
3135.36,1.97
3166.72,2.04
3198.38,2.11
3230.37,2.16
3262.67,2.20
3295.30,2.25
3328.25,2.27
3361.53,2.29
3395.15,2.31
3429.10,2.33
3463.39,2.35
3498.03,2.36
3533.01,2.38
3568.34,2.40
3604.02,2.42
3640.06,2.45
3676.46,2.48
3713.22,2.51
3750.36,2.56
3787.86,2.61
3825.74,2.68
3864.00,2.75
3902.64,2.82
3941.66,2.90
3981.08,2.97
4020.89,3.04
4061.10,3.10
4101.71,3.15
4142.73,3.20
4184.15,3.25
4226.00,3.30
4268.26,3.33
4310.94,3.37
4354.05,3.38
4397.59,3.39
4441.56,3.39
4485.98,3.38
4530.84,3.34
4576.15,3.28
4621.91,3.20
4668.13,3.10
4714.81,2.99
4761.96,2.85
4809.58,2.70
4857.67,2.54
4906.25,2.36
4955.31,2.15
5004.87,1.93
5054.91,1.70
5105.46,1.47
5156.52,1.23
5208.08,0.99
5260.16,0.72
5312.77,0.44
5365.89,0.16
5419.55,-0.13
5473.75,-0.42
5528.49,-0.72
5583.77,-1.04
5639.61,-1.36
5696.00,-1.69
5752.96,-2.02
5810.49,-2.35
5868.60,-2.69
5927.28,-3.02
5986.56,-3.35
6046.42,-3.68
6106.89,-3.99
6167.96,-4.31
6229.64,-4.63
6291.93,-4.93
6354.85,-5.21
6418.40,-5.49
6482.58,-5.77
6547.41,-6.06
6612.88,-6.35
6679.01,-6.65
6745.80,-6.95
6813.26,-7.24
6881.39,-7.53
6950.21,-7.81
7019.71,-8.09
7089.91,-8.36
7160.81,-8.62
7232.41,-8.86
7304.74,-9.10
7377.79,-9.33
7451.56,-9.54
7526.08,-9.74
7601.34,-9.93
7677.35,-10.10
7754.13,-10.26
7831.67,-10.40
7909.98,-10.53
7989.08,-10.66
8068.98,-10.78
8149.67,-10.90
8231.16,-11.03
8313.47,-11.16
8396.61,-11.28
8480.57,-11.38
8565.38,-11.48
8651.03,-11.56
8737.54,-11.65
8824.92,-11.71
8913.17,-11.77
9002.30,-11.83
9092.32,-11.87
9183.25,-11.91
9275.08,-11.93
9367.83,-11.96
9461.51,-11.97
9556.12,-11.96
9651.68,-11.96
9748.20,-11.93
9845.68,-11.87
9944.14,-11.78
10043.58,-11.66
10144.02,-11.52
10245.46,-11.33
10347.91,-11.10
10451.39,-10.83
10555.91,-10.51
10661.46,-10.15
10768.08,-9.76
10875.76,-9.36
10984.52,-8.95
11094.36,-8.54
11205.31,-8.14
11317.36,-7.74
11430.53,-7.38
11544.84,-7.06
11660.29,-6.77
11776.89,-6.52
11894.66,-6.33
12013.60,-6.18
12133.74,-6.07
12255.08,-6.01
12377.63,-5.98
12501.41,-6.00
12626.42,-6.06
12752.68,-6.15
12880.21,-6.28
13009.01,-6.45
13139.10,-6.67
13270.49,-6.94
13403.20,-7.27
13537.23,-7.63
13672.60,-8.03
13809.33,-8.45
13947.42,-8.88
14086.90,-9.32
14227.77,-9.76
14370.04,-10.21
14513.74,-10.64
14658.88,-11.04
14805.47,-11.40
14953.52,-11.74
15103.06,-12.06
15254.09,-12.32
15406.63,-12.55
15560.70,-12.74
15716.30,-12.90
15873.47,-13.04
16032.20,-13.17
16192.52,-13.30
16354.45,-13.41
16517.99,-13.53
16683.17,-13.65
16850.01,-13.78
17018.51,-13.97
17188.69,-14.24
17360.58,-14.60
17534.18,-15.09
17709.53,-15.72
17886.62,-16.51
18065.49,-17.48
18246.14,-18.59
18428.60,-19.82
18612.89,-21.17
18799.02,-22.66
18987.01,-24.27
19176.88,-26.01
19368.65,-27.87
19562.33,-29.87
19757.96,-31.98
19955.54,-34.23
