frequency,raw,error,smoothed,error_smoothed,equalization,equalized_raw,equalized_smoothed,target
20,-7.6583764513799,-7.674855613774088,-7.657812239583566,-7.674277026108027,7.963326703451923,0.30495025207202264,0.3055144638683567,0.016479162394188673
21,-6.613726551977312,-6.63137263844661,-6.596134862637083,-6.6137825802532975,6.7598148879489415,0.14608833597162985,0.16368002531185866,0.017646086469297995
22,-5.6130812736109,-5.6318438446034715,-5.622911232494554,-5.641684860494964,5.7035792983967735,0.0904980247858731,0.08066806590221987,0.01876257099257117
23,-4.753124830791222,-4.772952040526365,-4.738141349155979,-4.757983866833027,4.7775532530345295,0.024428422243307324,0.03941190387855009,0.01982720973514196
24,-3.894310609496469,-3.9151489530442554,-3.9418252126213513,-3.9626795992674824,3.967181044449734,0.0728704349532654,0.025355831828382858,0.020838343547786575
25,-3.1687608154315745,-3.19055484434629,-3.2381566468741534,-3.2599679469259946,3.2599679469259937,0.09120713149441917,0.021811300051840288,0.02179402891471538
26,-2.5527245549864905,-2.5754165591964675,-2.622413279690772,-2.645124650583976,2.645124650583976,0.09240009559748552,0.022711370893203853,0.022692004209976968
27,-2.1567805397505797,-2.180314687297583,-2.090038435204572,-2.113590842015838,2.1135908420158382,-0.04318969773474146,0.023552406811266025,0.023534147547003226
28,-1.571560433864105,-1.5958739088320377,-1.6344166205569168,-1.6587471913950087,1.6587471913950087,0.08718675753090377,0.02433057083809187,0.02431347496793279
29,-1.2506872693111986,-1.2757119886559731,-1.247501362658603,-1.2725415726947396,1.272541572694739,0.021854303383540552,0.025040210036136212,0.02502471934477457
30,-1.0225314664825176,-1.0481927199534808,-0.9221708329332556,-0.9478453769336195,0.9478453769336196,-0.074686089548898,0.025674544000363952,0.025661253470963263
31,-0.7245842625514141,-0.750799322111587,-0.6519433620587889,-0.6781687909610612,0.6781687909610613,-0.04641547159035275,0.02622542890227242,0.026215059560172893
32,-0.4006476368757643,-0.4273244458178995,-0.4315297824272227,-0.45821349262050015,0.4582134926205001,0.05756585574473577,0.02668371019327742,0.0266768089421352
33,-0.1786350133458805,-0.20567107871951795,-0.2565791694162147,-0.2836186482429692,0.28361864824296923,0.10498363489708873,0.027039478826754504,0.027036065373637452
34,-0.10740525998794202,-0.13468764598014515,-0.12293119937201463,-0.1502134739914883,0.1502134739914883,0.04280821400354627,0.027282274619473662,0.027282385992203118
35,-0.07393373932546242,-0.10133853162009919,-0.02606650572937545,-0.053467906931450385,0.053467906931450385,-0.020465832394012035,0.027401401202074935,0.02740479229463677
36,0.18544124207806456,0.1580489147641696,0.039360582815567875,0.01197440304872408,-0.011974403048724082,0.17346683902934049,0.027386179766843793,0.02739232731389496
37,0.04526260359514124,0.01802825198934123,0.07953792995248246,0.052311731175265,-0.05231173117526498,-0.007049127580123743,0.027226198777217478,0.02723435160580001
38,-0.11161362814129382,-0.13853440595629696,0.10105936892775333,0.07414783542552594,-0.07414783542552596,-0.18576146356681977,0.026911533502227372,0.026920777815003127
39,0.15932789076870535,0.1328856726395441,0.11022258566798282,0.0837896853507204,-0.0837896853507204,0.07553820541798495,0.02643290031726242,0.026442218129161255
40,0.24834598506197236,0.22255595546776996,0.11227313285417193,0.08649138564583106,-0.08649138564583103,0.16185459941614133,0.025781747208340894,0.0257900295942024
41,0.060437121844150524,0.03548073383693619,0.11087976607307115,0.08592950468111735,-0.08592950468111732,-0.025492382836966795,0.024950261391953832,0.024956388007214336
42,-0.08372876645206893,-0.10766295201593022,0.10801131305441487,0.0840800240307224,-0.08408002403072244,-0.16780879048279138,0.02393128902369243,0.023934185563861288
43,0.15289537301996525,0.1301785154987508,0.10423194361457229,0.08151377600123963,-0.08151377600123963,0.07138159701872562,0.02271816761333266,0.02271685752121444
44,0.14796304540351357,0.12666492035150234,0.09928837371344923,0.07798390066530701,-0.07798390066530701,0.06997914473820656,0.021304473048142217,0.02129812505201123
45,0.15656060029882612,0.13688893858866502,0.0927612269552609,0.073077536944988,-0.073077536944988,0.08348306335383812,0.019683690010272897,0.019671661710161104
46,0.11143641293734365,0.09360572111079336,0.08455175312114441,0.06670293580634452,-0.06670293580634451,0.044733477130999136,0.017848817314799897,0.017830691826550282
47,0.03701439556031717,0.02124686594412463,0.07506124834171903,0.059269325447787756,-0.05926932544778775,-0.022254929887470576,0.015791922893931276,0.015767529616192544
48,0.034793600471683686,0.021320509085445263,0.06505495834191716,0.0515512922616803,-0.0515512922616803,-0.016757691789996615,0.013503666080236856,0.013473091386238423
49,0.03294926424574353,0.022012872067103686,0.055326600279950774,0.04435379393210727,-0.044353793932107276,-0.011404529686363747,0.010972806347843499,0.010936392178639842
50,0.03165936442297558,0.023515315518063754,0.04634194256633573,0.03815622390690901,-0.03815622390690901,-0.006496859483933429,0.008185718659426723,0.008144048904911827
51,0.031204922130993698,0.026125111257289682,0.038022866322990276,0.03289693086024955,-0.03289693086024955,-0.001692008729255852,0.005125935462740726,0.005079810873704016
52,0.031709828376768626,0.029985690660285683,0.02975262893562504,0.027978894659838813,-0.02797889465983881,0.0037309337169298164,0.0017737342757862297,0.001724137716482943
53,0.03296731918817554,0.034913476822590175,0.020580387531627733,0.022474599658215053,-0.022474599658215064,0.010492719529960476,-0.0018942121265873302,-0.0019461576344146359
54,0.1002411715528987,0.10619935881049937,0.009527184683276606,0.01543229332000131,-0.01543229332000131,0.0848088782328974,-0.005905108636724703,-0.005958187257600667
55,-0.025093329608195977,-0.01475015368367237,-0.0041233490572418485,0.006166873803883844,-0.006166873803883845,-0.03126020341207982,-0.010290222861125693,-0.010343175924523607
56,-0.06419007351220828,-0.04905352261372008,-0.02063215795034396,-0.005547182945989128,0.005547182945989129,-0.058642890566219144,-0.015084975004354833,-0.015136550898488199
57,-0.06400702329338691,-0.04362909268893443,-0.039735239951627616,-0.019406310735164634,0.019406310735164634,-0.044600712558222275,-0.020328929216462982,-0.020377930604452477
58,-0.06393297343491998,-0.03782196045482632,-0.060677810897045464,-0.034612123963638414,0.034612123963638414,-0.029320849471281565,-0.02606568693340705,-0.026111012980093662
59,-0.06361010312467928,-0.031226735034038375,-0.08231910368968456,-0.049976417251331264,0.04997641725133127,-0.013633685873348012,-0.032342686438353294,-0.03238336809064091
60,-0.06299165596003607,-0.02374551300907711,-0.10328876740078444,-0.06407785121970958,0.0640778512197096,0.0010861952596735308,-0.039210916181074834,-0.03924614295095896
61,-0.062442940150332235,-0.015689250688233444,-0.12219470180841029,-0.07547014965148402,0.07547014965148405,0.013027209501151812,-0.04672455215692624,-0.04675368946209879
62,-0.2237324449735707,-0.16876931653125538,-0.1378815807459346,-0.0829410489972025,0.08294104899720249,-0.1407913959763682,-0.054940531748732105,-0.05496312844231532
63,-0.18623962499462166,-0.12230576089439782,-0.1497110166330557,-0.08579293883223124,0.08579293883223128,-0.10044668616239037,-0.06391807780082441,-0.06393386410022384
64,-0.1667907428252945,-0.0930636789659195,-0.15779365770953951,-0.0840754704510749,0.08407547045107491,-0.08271527237421958,-0.0737181872584646,-0.073727063859375
65,-0.1696578161427802,-0.08525269791828216,-0.16308016015479299,-0.07867706143772904,0.07867706143772904,-0.09098075470505115,-0.08440309871706395,-0.08440511822449803
66,-0.1718554864516315,-0.07582439201649893,-0.1672363828891411,-0.07120063083110262,0.07120063083110266,-0.10065485562052885,-0.09603575205803845,-0.09603109443513258
67,-0.172062671164516,-0.06339447508298035,-0.17229007484734193,-0.06361082300534626,0.06361082300534625,-0.10845184815916976,-0.10867925184199569,-0.10866819608153566
68,-0.09683841573239148,0.02554082308800311,-0.18011911107764222,-0.057722766066748074,0.05772276606674808,-0.0391156496656434,-0.12239634501089414,-0.12237923882039459
69,-0.16484277025326088,-0.02761662029408507,-0.19191949952052959,-0.0546705779097008,0.05467057790970079,-0.1101721923435601,-0.1372489216108288,-0.1372261499591758
70,-0.25267474681072355,-0.09940524966155784,-0.20781409492404576,-0.054516551609702146,0.05451655160970215,-0.1981581952010214,-0.15329754331434362,-0.1532694971491657
71,-0.23919710950541673,-0.06862906060320795,-0.22672833758388938,-0.05612733789001377,0.05612733789001377,-0.18306977161540294,-0.1706009996938756,-0.17056804890220878
72,-0.22392317265439288,-0.034744805376617505,-0.24658043728145113,-0.05736454702167186,0.05736454702167186,-0.166558625632721,-0.18921589025977925,-0.18917836727777537
73,-0.20854370361847574,0.0006107273872241192,-0.2647409036221674,-0.055544668675405084,0.055544668675405084,-0.15299903494307066,-0.20919623494676232,-0.20915443100569986
74,-0.34643902060751774,-0.11589173499076255,-0.27864205895062577,-0.048048939754334205,0.04804893975433421,-0.2983900808531835,-0.23059311919629155,-0.2305472856167552
75,-0.34305514354566946,-0.08965042762594355,-0.28638136982446516,-0.032926987455964285,0.03292698745596428,-0.3101281560897052,-0.2534543823685009,-0.2534047159197259
76,-0.27749468830660473,0.000276247118139894,-0.2871678172800714,-0.009343467452618853,0.009343467452618853,-0.2681512208539859,-0.2778243498274525,-0.2777709354247446
77,-0.2731317993017468,0.030554487768190697,-0.28150175099494523,0.02224182242580048,-0.022241822425800476,-0.2953736217275473,-0.3037435734207457,-0.3036862870699375
78,-0.269803040353642,0.061383909479690635,-0.2710434746218775,0.06020501880675836,-0.060205018806758354,-0.3300080591604003,-0.3312484934286358,-0.33118694983333263
79,-0.26505942179366593,0.09524522465684249,-0.25820001537269943,0.1021709122342185,-0.1021709122342185,-0.3672303340278844,-0.3603709276069179,-0.3603046464505084
80,-0.2565811711995485,0.1344851772391218,-0.24552992728060652,0.14560747498916324,-0.14560747498916327,-0.40218864618871175,-0.3911374022697698,-0.3910663484386703
81,-0.24300711492154303,0.18048686094433186,-0.23511851022405741,0.18845006152386704,-0.18845006152386706,-0.4314571764454101,-0.4235685717479245,-0.4234939758658749
82,-0.15727149996034273,0.3003325907526281,-0.2280944787845464,0.22958470911925577,-0.22958470911925577,-0.3868562090795985,-0.45767918790380213,-0.4576040907129708
83,-0.14663026970867465,0.3467773144622174,-0.2244302831148826,0.2690487997707191,-0.26904879977071916,-0.4156790694793938,-0.49347908288560177,-0.49340758417089203
84,-0.28060232594597534,0.2503070337752107,-0.22309124319932377,0.30788391745411436,-0.3078839174541145,-0.5884862434000898,-0.5309751606534383,-0.530909359721186
85,-0.2597938772159739,0.3103141380829725,-0.22249099305975512,0.34768238498101955,-0.34768238498101967,-0.6074762621969936,-0.5701733780407747,-0.5701080152989464
86,-0.24245930215712952,0.3685362270274941,-0.22110643140421152,0.3899720979148015,-0.3899720979148014,-0.6324314000719309,-0.611078529319013,-0.6109955291846236
87,-0.22896640307962224,0.42459055239917964,-0.2180442794794867,0.43564496591378854,-0.43564496591378854,-0.6646113689934108,-0.6536892453932752,-0.6535569554788019
88,-0.21849506986009382,0.47927506619861604,-0.21336317263630275,0.4846237999273114,-0.48462379992731147,-0.7031188697874053,-0.6979869725636142,-0.6977701360587099
89,-0.2095628300049649,0.5340426067789344,-0.20804265200286287,0.5358784801101117,-0.5358784801101117,-0.7454413101150766,-0.7439211321129746,-0.7436054367838993
90,-0.20062627737220684,0.5903992390320035,-0.20362367377938329,0.5877735461207596,-0.5877735461207596,-0.7883998234929664,-0.7913972199001429,-0.7910255164042104
91,-0.19048197620721774,0.6495031609140406,-0.20167115950955916,0.638606920894484,-0.638606920894484,-0.8290888971017017,-0.8402780804040432,-0.8399851371212583
92,-0.17839650956029152,0.7120345164992652,-0.20327522421934183,0.6871327742391884,-0.6871327742391883,-0.8655292837994798,-0.8904079984585301,-0.8904310260595567
93,-0.1640905120543853,0.7782112849505608,-0.20878504788671542,0.7328774910504032,-0.7328774910504032,-0.8969680031047885,-0.9416625389371187,-0.9423017970049461
94,-0.21383995690422697,0.7816879847464487,-0.2178668513476178,0.776148123657623,-0.7761481236576232,-0.9899880805618502,-0.9940149750052409,-0.9955279416506757
95,-0.24783569938374916,0.8021961998493856,-0.22983970486602381,0.8177572921407088,-0.8177572921407088,-1.065592991524458,-1.0475969970067327,-1.0500318992331348
96,-0.31349695673213845,0.7922312560813063,-0.24413033116239902,0.8585934145869375,-0.8585934145869374,-1.1720903713190758,-1.1027237457493364,-1.1057282128134447
97,-0.29741655007714995,0.8651072294614093,-0.2606479252016764,0.8992090430028896,-0.8992090430028895,-1.1966255930800394,-1.1598569682045659,-1.1625237795385592
98,-0.28465606886695094,0.9356621321020538,-0.2799252925466126,0.93957196400381,-0.93957196400381,-1.2242280328707609,-1.2194972565504227,-1.2203182009690048
99,-0.27634589856947417,1.0026583393995894,-0.3029773097328604,0.9790456638137521,-0.9790456638137519,-1.2553915623832261,-1.2820229735466122,-1.2790042379690636
100,-0.2172419996060465,1.1212263731034415,-0.3309438656236501,1.0165758949250718,-1.0165758949250723,-1.2338178945311187,-1.3475197605487224,-1.338468372709488
101,-0.2995637239872967,1.0990277540523525,-0.3646629241508168,1.0509956924099855,-1.0509956924099855,-1.350559416397282,-1.4156586165608023,-1.3985914780396493
102,-0.5528533282514227,0.9063962636217293,-0.40433241023166183,1.0813416302559995,-1.081341630255999,-1.6341949585074218,-1.485674040487661,-1.459249591873152
104,-0.47794393283770464,1.104335483673684,-0.4493716633518313,1.1070945534007137,-1.1070945534007137,-1.5850384862384184,-1.5564662167525452,-1.5822794165113887
105,-0.4786425262536579,1.1650591375944828,-0.49851313254315777,1.1282979233181076,-1.1282979233181076,-1.6069404495717654,-1.6268110558612654,-1.6437016638481405
106,-0.49391745784245,1.211227278158555,-0.5500775693474488,1.1455458899480735,-1.1455458899480733,-1.6394633477905232,-1.695623459295522,-1.7051447360010048
107,-0.5740748590175421,1.1924026976902322,-0.6023360626132541,1.15986132244695,-1.15986132244695,-1.7339361814644922,-1.7621973850602042,-1.7664775567077742
108,-0.6150231227638011,1.2125470884761582,-0.6538490582177336,1.1725013188886506,-1.1725013188886506,-1.7875244416524518,-1.8263503771063843,-1.8275702112399594
109,-0.834809895610981,1.053485165215203,-0.703693851960461,1.1847354918333477,-1.1847354918333477,-2.0195453874443285,-1.8884293437938087,-1.888295060826184
110,-0.8427665246275643,1.1057613287590393,-0.7515344522847225,1.197643631461717,-1.1976436314617167,-2.040410156089281,-1.9491780837464392,-1.9485278533866035
111,-0.6859906678131814,1.3221581409692855,-0.7975363727604798,1.2119733283008225,-1.2119733283008227,-1.897963996114004,-2.0095097010613028,-2.008148808782467
112,-0.7412584039299798,1.3257852520454922,-0.8421732893850487,1.2280807300566248,-1.228080730056625,-1.9693391339866047,-2.0702540194416734,-2.067043655975472
113,-1.0023243636215398,1.122780235816819,-0.8860028479080952,1.2459499634283302,-1.2459499634283298,-2.2482743270498693,-2.131952811336425,-2.125104599438359
114,-0.9681783920984045,1.2140528008334153,-0.9294945066162881,1.265260034721133,-1.265260034721133,-2.2334384268195375,-2.1947545413374208,-2.1822311929318197
115,-0.8373478267532136,1.4009832736426109,-0.972966908071013,1.285457508245002,-1.2854575082450022,-2.122805334998216,-2.258424416316015,-2.2383311003958246
117,-1.0325608024462793,1.315472639849601,-1.0166428377552188,1.305805722148696,-1.3058057221486956,-2.338366524594975,-2.3224485599039144,-2.3480334422958804
118,-1.1232033105966834,1.2775104959783004,-1.060776903276179,1.3254090177098727,-1.3254090177098727,-2.448612328306556,-2.3861859209860516,-2.400713806574984
119,-1.1990645135572924,1.2530334047806038,-1.1057752489968453,1.3432400215149212,-1.3432400215149207,-2.542304535072213,-2.449015270511766,-2.452097918337896
120,-1.0795028891590084,1.422634723874201,-1.1522258157315939,1.3582111890291393,-1.3582111890291393,-2.4377140781881477,-2.510437004760733,-2.5021376130332094
121,-1.0907388617970533,1.460055378601893,-1.200797760394865,1.3693157823247657,-1.3693157823247657,-2.460054644121819,-2.5701135427196307,-2.5507942403989463
123,-1.3767591755468316,1.2686776714211279,-1.2520339197025847,1.375823144444527,-1.375823144444527,-2.7525823199913586,-2.6278570641471117,-2.6454368469679594
124,-1.2605982742884265,1.4293437116149894,-1.3061191534356673,1.3774701059505154,-1.3774701059505154,-2.638068380238942,-2.6835892593861828,-2.689941985903416
125,-1.3104832953812895,1.4225099448169332,-1.36272984347944,1.3745700027846999,-1.3745700027846999,-2.6850532981659896,-2.73729984626414,-2.7329932401982227
126,-1.4224320365870116,1.3521596999106322,-1.421044445432086,1.3679762871362757,-1.3679762871362753,-2.7904083237232866,-2.7890207325683614,-2.774591736497644
128,-1.5209972267044347,1.3345718837040668,-1.4799328774654013,1.3588849518272763,-1.3588849518272768,-2.8798821785317115,-2.838817829292678,-2.8555691104085015
129,-1.5664444922497107,1.3265423209819678,-1.5382674538255432,1.3485230431853568,-1.3485230431853572,-2.9149675354350677,-2.8867904970109004,-2.8929868132316785
130,-1.6152677348971511,1.3137378344361001,-1.59524343375926,1.3378215842940522,-1.3378215842940526,-2.9530893191912035,-2.9330650180533127,-2.9290055693332513
131,-1.6110454646383725,1.3526069298975698,-1.6505886624082073,1.3271855817328444,-1.3271855817328444,-2.938231046371217,-2.9777742441410515,-2.9636523945359423
133,-1.7070547610457203,1.3243547523385517,-1.7045824263655378,1.316443941219866,-1.3164439412198663,-3.0234987022655866,-3.021026367585404,-3.031409513384272
134,-1.727066240479789,1.335125114495692,-1.7578757924128672,1.304999070545067,-1.3049990705450671,-3.032065311024856,-3.0628748629579343,-3.062191354975481
135,-1.8697532043841774,1.2219708954777615,-1.81117972374369,1.2921240523938002,-1.2921240523938007,-3.161877256777978,-3.1033037761374906,-3.091724099861939
137,-1.8964258657912854,1.2533685995466166,-1.8649355415582471,1.2773011315266167,-1.2773011315266167,-3.1737269973179023,-3.142236673084864,-3.149794465337902
138,-1.7981805854700263,1.3776545521497294,-1.9190878586285973,1.260479240235699,-1.260479240235699,-3.0586598257057256,-3.1795670988642963,-3.1758351376197558
140,-1.9888978487400115,1.2383911213199805,-1.9730402761407342,1.2421582433111849,-1.242158243311185,-3.2310560920511966,-3.2151985194519193,-3.227288970059992
141,-2.0365718405798816,1.2135660958524088,-2.0258069681626028,1.2232705294709891,-1.2232705294709891,-3.2598423700508707,-3.249077497633592,-3.2501379364322904
142,-2.085223904601574,1.186761154752126,-2.0763058227979623,1.2049016265012202,-1.2049016265012202,-3.2901255311027944,-3.2812074492991825,-3.2719850593537
144,-2.1854436606935814,1.1300651975970801,-2.123695371435627,1.1879443002126917,-1.1879443002126915,-3.373387960906273,-3.3116396716483183,-3.3155088582906616
145,-2.186180597056235,1.1483840575542463,-2.1676520329972444,1.172796517343386,-1.1727965173433863,-3.358977114399621,-3.3404485503406307,-3.3345646546104812
147,-2.1873688148615438,1.1854400865114356,-2.2085128502614184,1.1591911767361667,-1.1591911767361665,-3.3465599915977102,-3.367704026997585,-3.3728089013729794
148,-2.20237369282587,1.1869791029679249,-2.2472559755226005,1.146198119947532,-1.1461981199475315,-3.3485718127734017,-3.393454095470132,-3.389352795793795
150,-2.2881852851245195,1.134669642009778,-2.285336394504321,1.132387742631898,-1.1323877426318978,-3.4205730277564173,-3.4177241371362186,-3.4228549271342974
