frequency,raw,error,smoothed,error_smoothed,equalization,parametric_eq,fixed_band_eq,equalized_raw,equalized_smoothed,target
20.00,-4.30,1.00,-4.29,1.01,-0.96,-0.14,0.68,-5.26,-5.25,-5.30
20.20,-4.38,0.87,-4.39,0.86,-0.85,-0.11,0.70,-5.23,-5.23,-5.25
20.40,-4.47,0.73,-4.47,0.73,-0.74,-0.08,0.72,-5.21,-5.21,-5.20
20.61,-4.55,0.62,-4.55,0.61,-0.64,-0.05,0.74,-5.19,-5.19,-5.17
20.81,-4.63,0.49,-4.63,0.49,-0.54,-0.01,0.76,-5.17,-5.17,-5.12
21.02,-4.71,0.37,-4.69,0.39,-0.45,0.02,0.78,-5.16,-5.14,-5.08
21.23,-4.74,0.32,-4.74,0.32,-0.36,0.05,0.80,-5.10,-5.10,-5.06
21.44,-4.77,0.27,-4.77,0.27,-0.27,0.09,0.82,-5.04,-5.04,-5.04
21.66,-4.80,0.22,-4.80,0.23,-0.20,0.12,0.84,-5.00,-5.00,-5.02
21.87,-4.83,0.18,-4.84,0.17,-0.13,0.16,0.87,-4.96,-4.96,-5.01
22.09,-4.89,0.10,-4.90,0.10,-0.05,0.19,0.89,-4.94,-4.95,-4.99
22.31,-4.98,0.00,-4.98,0.01,0.01,0.23,0.91,-4.97,-4.96,-4.98
22.54,-5.08,-0.09,-5.08,-0.10,0.08,0.27,0.94,-5.00,-5.00,-4.98
22.76,-5.17,-0.19,-5.18,-0.19,0.15,0.31,0.97,-5.02,-5.03,-4.98
22.99,-5.27,-0.27,-5.25,-0.25,0.21,0.34,0.99,-5.06,-5.04,-4.99
23.22,-5.29,-0.29,-5.29,-0.30,0.26,0.38,1.02,-5.02,-5.03,-4.99
23.45,-5.31,-0.31,-5.31,-0.32,0.32,0.42,1.05,-4.99,-4.99,-4.99
23.69,-5.33,-0.34,-5.32,-0.34,0.37,0.46,1.08,-4.96,-4.95,-4.99
23.92,-5.35,-0.36,-5.36,-0.38,0.42,0.50,1.10,-4.93,-4.94,-4.99
24.16,-5.42,-0.44,-5.42,-0.45,0.48,0.54,1.13,-4.94,-4.94,-4.98
24.40,-5.51,-0.54,-5.50,-0.53,0.54,0.58,1.16,-4.97,-4.96,-4.97
24.65,-5.59,-0.61,-5.59,-0.62,0.61,0.63,1.19,-4.98,-4.98,-4.98
24.89,-5.68,-0.70,-5.68,-0.70,0.68,0.67,1.22,-5.00,-4.99,-4.98
25.14,-5.75,-0.77,-5.75,-0.78,0.76,0.71,1.26,-4.99,-4.99,-4.98
25.39,-5.82,-0.85,-5.82,-0.85,0.83,0.75,1.29,-4.99,-4.99,-4.97
25.65,-5.88,-0.91,-5.88,-0.91,0.90,0.80,1.32,-4.98,-4.98,-4.97
25.91,-5.94,-0.96,-5.94,-0.97,0.97,0.84,1.35,-4.97,-4.97,-4.98
26.16,-6.00,-1.02,-6.00,-1.02,1.03,0.89,1.39,-4.97,-4.97,-4.98
26.43,-6.07,-1.09,-6.07,-1.08,1.10,0.93,1.42,-4.97,-4.97,-4.98
26.69,-6.13,-1.15,-6.13,-1.15,1.16,0.98,1.45,-4.97,-4.97,-4.98
26.96,-6.20,-1.23,-6.20,-1.23,1.22,1.03,1.48,-4.97,-4.97,-4.97
27.23,-6.27,-1.30,-6.27,-1.29,1.29,1.07,1.52,-4.98,-4.98,-4.97
27.50,-6.34,-1.37,-6.34,-1.36,1.35,1.12,1.55,-4.99,-4.98,-4.97
27.77,-6.40,-1.42,-6.40,-1.42,1.42,1.17,1.58,-4.98,-4.99,-4.98
28.05,-6.47,-1.48,-6.47,-1.48,1.48,1.22,1.61,-4.99,-4.99,-4.98
28.33,-6.53,-1.53,-6.53,-1.53,1.53,1.27,1.64,-4.99,-4.99,-5.00
28.62,-6.58,-1.58,-6.58,-1.59,1.59,1.32,1.68,-4.99,-4.99,-5.00
28.90,-6.64,-1.65,-6.64,-1.64,1.64,1.37,1.71,-5.00,-4.99,-4.99
29.19,-6.69,-1.69,-6.69,-1.70,1.70,1.42,1.74,-4.99,-4.99,-5.00
29.48,-6.74,-1.76,-6.74,-1.75,1.75,1.47,1.76,-4.99,-4.98,-4.98
29.78,-6.78,-1.79,-6.78,-1.80,1.81,1.52,1.79,-4.97,-4.98,-4.99
30.08,-6.84,-1.86,-6.84,-1.85,1.86,1.57,1.82,-4.98,-4.98,-4.98
30.38,-6.90,-1.91,-6.90,-1.91,1.91,1.63,1.84,-4.98,-4.99,-4.99
30.68,-6.97,-1.98,-6.97,-1.98,1.97,1.68,1.87,-5.00,-5.00,-4.99
30.99,-7.04,-2.04,-7.03,-2.03,2.02,1.73,1.89,-5.02,-5.01,-4.99
31.30,-7.08,-2.08,-7.08,-2.08,2.07,1.79,1.92,-5.00,-5.00,-5.00
31.61,-7.12,-2.12,-7.12,-2.12,2.13,1.84,1.94,-4.99,-4.99,-5.00
31.93,-7.16,-2.16,-7.16,-2.16,2.18,1.89,1.96,-4.98,-4.98,-5.00
32.24,-7.22,-2.21,-7.22,-2.22,2.23,1.95,1.98,-4.99,-4.99,-5.01
32.57,-7.28,-2.28,-7.28,-2.28,2.27,2.00,2.00,-5.01,-5.01,-5.00
32.89,-7.35,-2.35,-7.34,-2.33,2.32,2.06,2.02,-5.03,-5.02,-5.00
33.22,-7.39,-2.38,-7.39,-2.38,2.36,2.11,2.04,-5.03,-5.03,-5.01
33.55,-7.43,-2.41,-7.43,-2.41,2.41,2.17,2.05,-5.02,-5.02,-5.02
33.89,-7.47,-2.44,-7.47,-2.45,2.47,2.23,2.07,-5.00,-5.01,-5.03
34.23,-7.52,-2.50,-7.52,-2.50,2.52,2.28,2.09,-5.00,-5.00,-5.02
34.57,-7.59,-2.56,-7.58,-2.55,2.57,2.34,2.10,-5.01,-5.01,-5.03
34.92,-7.65,-2.62,-7.65,-2.62,2.63,2.39,2.12,-5.02,-5.02,-5.03
35.27,-7.72,-2.68,-7.72,-2.69,2.67,2.45,2.14,-5.04,-5.05,-5.03
35.62,-7.79,-2.75,-7.79,-2.76,2.72,2.51,2.15,-5.07,-5.07,-5.04
35.97,-7.86,-2.82,-7.84,-2.81,2.77,2.56,2.17,-5.09,-5.08,-5.04
36.33,-7.88,-2.85,-7.87,-2.83,2.82,2.62,2.19,-5.06,-5.05,-5.03
36.70,-7.88,-2.84,-7.89,-2.85,2.87,2.68,2.21,-5.00,-5.01,-5.04
37.06,-7.90,-2.85,-7.91,-2.88,2.93,2.73,2.23,-4.97,-4.98,-5.05
37.43,-7.97,-2.94,-7.96,-2.93,2.99,2.79,2.25,-4.98,-4.98,-5.03
37.81,-8.04,-3.01,-8.04,-3.00,3.03,2.84,2.27,-5.01,-5.01,-5.03
38.19,-8.12,-3.09,-8.14,-3.11,3.06,2.90,2.29,-5.06,-5.08,-5.03
38.57,-8.21,-3.18,-8.22,-3.19,3.10,2.96,2.31,-5.11,-5.12,-5.03
38.95,-8.30,-3.28,-8.24,-3.22,3.14,3.01,2.34,-5.16,-5.10,-5.02
39.34,-8.22,-3.20,-8.20,-3.18,3.18,3.06,2.37,-5.04,-5.02,-5.02
39.74,-8.12,-3.09,-8.15,-3.13,3.22,3.12,2.39,-4.90,-4.93,-5.02
40.14,-8.11,-3.09,-8.17,-3.15,3.25,3.17,2.42,-4.86,-4.92,-5.02
40.54,-8.28,-3.26,-8.27,-3.25,3.28,3.23,2.46,-5.00,-4.99,-5.02
40.94,-8.44,-3.41,-8.38,-3.35,3.31,3.28,2.49,-5.13,-5.07,-5.02
41.35,-8.45,-3.42,-8.44,-3.42,3.34,3.33,2.52,-5.10,-5.10,-5.03
41.76,-8.43,-3.40,-8.45,-3.42,3.39,3.38,2.56,-5.04,-5.06,-5.03
42.18,-8.44,-3.41,-8.45,-3.42,3.44,3.43,2.60,-5.00,-5.01,-5.03
42.60,-8.49,-3.45,-8.48,-3.44,3.48,3.48,2.64,-5.01,-5.00,-5.04
43.03,-8.53,-3.48,-8.54,-3.49,3.51,3.53,2.69,-5.02,-5.03,-5.04
43.46,-8.59,-3.54,-8.60,-3.54,3.52,3.57,2.73,-5.07,-5.07,-5.05
43.90,-8.66,-3.59,-8.64,-3.57,3.54,3.62,2.78,-5.12,-5.10,-5.07
44.33,-8.67,-3.58,-8.66,-3.58,3.56,3.66,2.83,-5.11,-5.10,-5.09
44.78,-8.67,-3.57,-8.68,-3.58,3.59,3.71,2.88,-5.08,-5.09,-5.10
45.23,-8.69,-3.58,-8.70,-3.58,3.62,3.75,2.94,-5.07,-5.07,-5.11
45.68,-8.74,-3.62,-8.73,-3.61,3.64,3.79,2.99,-5.10,-5.09,-5.12
46.13,-8.78,-3.64,-8.79,-3.65,3.65,3.83,3.05,-5.13,-5.13,-5.14
46.60,-8.84,-3.70,-8.84,-3.69,3.66,3.87,3.11,-5.18,-5.18,-5.13
47.06,-8.88,-3.73,-8.87,-3.72,3.67,3.91,3.18,-5.21,-5.21,-5.15
47.53,-8.88,-3.72,-8.89,-3.73,3.68,3.94,3.24,-5.20,-5.20,-5.16
48.01,-8.88,-3.73,-8.85,-3.69,3.71,3.97,3.31,-5.17,-5.14,-5.15
48.49,-8.83,-3.66,-8.82,-3.65,3.73,4.01,3.37,-5.10,-5.09,-5.17
48.97,-8.77,-3.58,-8.86,-3.67,3.75,4.04,3.44,-5.02,-5.11,-5.19
49.46,-8.94,-3.74,-8.94,-3.74,3.76,4.06,3.52,-5.18,-5.18,-5.20
49.96,-9.12,-3.90,-9.04,-3.83,3.78,4.09,3.59,-5.34,-5.26,-5.22
50.46,-9.11,-3.89,-9.11,-3.89,3.80,4.12,3.66,-5.31,-5.31,-5.22
50.96,-9.08,-3.85,-9.10,-3.87,3.83,4.14,3.73,-5.25,-5.27,-5.23
51.47,-9.08,-3.83,-9.08,-3.84,3.87,4.16,3.81,-5.21,-5.21,-5.24
51.99,-9.08,-3.83,-9.09,-3.84,3.90,4.18,3.88,-5.18,-5.19,-5.25
52.51,-9.13,-3.88,-9.13,-3.88,3.92,4.19,3.96,-5.21,-5.21,-5.25
53.03,-9.18,-3.93,-9.18,-3.93,3.92,4.21,4.03,-5.26,-5.26,-5.25
53.56,-9.24,-3.98,-9.24,-3.98,3.92,4.22,4.10,-5.31,-5.31,-5.26
54.10,-9.28,-4.01,-9.27,-4.00,3.94,4.23,4.18,-5.34,-5.33,-5.27
54.64,-9.28,-4.00,-9.27,-3.99,3.97,4.24,4.25,-5.31,-5.30,-5.28
55.18,-9.26,-3.98,-9.24,-3.95,4.01,4.25,4.31,-5.25,-5.23,-5.28
55.74,-9.20,-3.91,-9.25,-3.96,4.04,4.25,4.38,-5.16,-5.21,-5.29
56.29,-9.27,-3.98,-9.31,-4.01,4.07,4.26,4.44,-5.20,-5.24,-5.29
56.86,-9.45,-4.14,-9.40,-4.10,4.09,4.26,4.50,-5.36,-5.31,-5.30
57.42,-9.51,-4.18,-9.49,-4.18,4.11,4.25,4.55,-5.40,-5.39,-5.33
58.00,-9.53,-4.20,-9.53,-4.20,4.12,4.25,4.60,-5.41,-5.40,-5.33
58.58,-9.50,-4.17,-9.51,-4.17,4.13,4.25,4.65,-5.36,-5.37,-5.33
59.16,-9.48,-4.13,-9.49,-4.15,4.14,4.24,4.69,-5.34,-5.35,-5.34
59.76,-9.48,-4.12,-9.47,-4.11,4.14,4.23,4.72,-5.34,-5.33,-5.36
60.35,-9.48,-4.09,-9.47,-4.09,4.13,4.22,4.75,-5.35,-5.34,-5.39
60.96,-9.48,-4.06,-9.50,-4.08,4.12,4.20,4.77,-5.36,-5.38,-5.42
61.57,-9.54,-4.09,-9.54,-4.09,4.10,4.19,4.78,-5.43,-5.44,-5.45
62.18,-9.61,-4.12,-9.60,-4.11,4.09,4.17,4.79,-5.52,-5.51,-5.49
62.80,-9.66,-4.14,-9.65,-4.13,4.09,4.16,4.79,-5.57,-5.56,-5.52
63.43,-9.68,-4.12,-9.67,-4.11,4.08,4.14,4.78,-5.60,-5.59,-5.56
64.07,-9.68,-4.08,-9.68,-4.08,4.08,4.11,4.77,-5.60,-5.60,-5.60
64.71,-9.68,-4.05,-9.68,-4.05,4.08,4.09,4.75,-5.60,-5.61,-5.63
65.35,-9.70,-4.04,-9.70,-4.04,4.07,4.07,4.72,-5.63,-5.63,-5.66
66.01,-9.73,-4.03,-9.74,-4.04,4.06,4.04,4.69,-5.67,-5.69,-5.70
66.67,-9.80,-4.06,-9.79,-4.06,4.05,4.02,4.65,-5.75,-5.74,-5.74
67.33,-9.85,-4.07,-9.84,-4.06,4.05,3.99,4.61,-5.80,-5.79,-5.78
68.01,-9.88,-4.07,-9.87,-4.06,4.06,3.96,4.56,-5.82,-5.81,-5.81
68.69,-9.88,-4.03,-9.88,-4.03,4.05,3.93,4.51,-5.83,-5.82,-5.85
69.37,-9.90,-4.01,-9.92,-4.03,4.04,3.90,4.45,-5.86,-5.88,-5.89
70.07,-9.94,-4.01,-9.98,-4.05,4.02,3.86,4.39,-5.92,-5.96,-5.93
70.77,-10.08,-4.11,-10.03,-4.06,3.99,3.83,4.32,-6.09,-6.04,-5.97
71.48,-10.05,-4.04,-10.00,-3.99,3.96,3.80,4.26,-6.09,-6.05,-6.01
72.19,-9.95,-3.89,-9.96,-3.90,3.92,3.76,4.19,-6.02,-6.04,-6.06
72.91,-9.85,-3.74,-9.94,-3.83,3.89,3.73,4.12,-5.96,-6.05,-6.11
73.64,-9.99,-3.84,-9.97,-3.82,3.86,3.69,4.04,-6.13,-6.11,-6.15
74.38,-10.08,-3.88,-10.03,-3.84,3.83,3.66,3.97,-6.25,-6.20,-6.20
75.12,-10.08,-3.84,-10.08,-3.84,3.81,3.62,3.90,-6.26,-6.27,-6.24
75.87,-10.08,-3.79,-10.08,-3.80,3.81,3.58,3.82,-6.27,-6.28,-6.29
76.63,-10.08,-3.75,-10.10,-3.77,3.80,3.54,3.75,-6.28,-6.30,-6.33
77.40,-10.14,-3.77,-10.16,-3.79,3.79,3.51,3.67,-6.35,-6.37,-6.36
78.17,-10.23,-3.82,-10.22,-3.81,3.78,3.47,3.60,-6.45,-6.44,-6.41
78.95,-10.30,-3.87,-10.25,-3.81,3.76,3.43,3.53,-6.54,-6.49,-6.43
79.74,-10.21,-3.74,-10.23,-3.76,3.74,3.39,3.46,-6.47,-6.50,-6.47
80.54,-10.18,-3.68,-10.20,-3.70,3.72,3.35,3.39,-6.46,-6.48,-6.50
81.35,-10.18,-3.64,-10.16,-3.62,3.69,3.32,3.32,-6.49,-6.47,-6.54
82.16,-10.18,-3.61,-10.19,-3.62,3.65,3.28,3.26,-6.53,-6.54,-6.57
82.98,-10.18,-3.58,-10.22,-3.62,3.59,3.24,3.19,-6.58,-6.63,-6.59
83.81,-10.29,-3.65,-10.24,-3.60,3.55,3.20,3.13,-6.74,-6.69,-6.64
84.65,-10.24,-3.57,-10.21,-3.55,3.51,3.16,3.07,-6.73,-6.70,-6.67
85.50,-10.14,-3.45,-10.16,-3.47,3.48,3.13,3.01,-6.66,-6.68,-6.69
86.35,-10.08,-3.35,-10.09,-3.36,3.44,3.09,2.95,-6.64,-6.65,-6.73
87.22,-10.08,-3.32,-10.08,-3.32,3.39,3.05,2.90,-6.69,-6.69,-6.76
88.09,-10.09,-3.29,-10.13,-3.34,3.32,3.01,2.85,-6.77,-6.82,-6.80
88.97,-10.20,-3.37,-10.17,-3.34,3.24,2.98,2.80,-6.96,-6.93,-6.83
89.86,-10.20,-3.33,-10.13,-3.27,3.17,2.94,2.75,-7.03,-6.97,-6.87
90.76,-10.03,-3.13,-10.02,-3.11,3.10,2.90,2.71,-6.93,-6.92,-6.90
91.66,-9.83,-2.90,-9.89,-2.95,3.03,2.87,2.66,-6.80,-6.86,-6.93
92.58,-9.78,-2.80,-9.84,-2.87,2.96,2.83,2.62,-6.82,-6.88,-6.98
93.51,-9.90,-2.89,-9.84,-2.84,2.88,2.80,2.58,-7.02,-6.96,-7.00
94.44,-9.91,-2.88,-9.86,-2.82,2.80,2.76,2.54,-7.11,-7.06,-7.03
95.39,-9.79,-2.73,-9.84,-2.78,2.73,2.73,2.51,-7.06,-7.11,-7.06
96.34,-9.78,-2.68,-9.79,-2.70,2.67,2.70,2.48,-7.11,-7.13,-7.10
97.30,-9.77,-2.64,-9.75,-2.63,2.61,2.66,2.44,-7.16,-7.14,-7.13
98.28,-9.74,-2.58,-9.73,-2.57,2.56,2.63,2.41,-7.17,-7.16,-7.16
99.26,-9.68,-2.49,-9.69,-2.50,2.51,2.60,2.39,-7.17,-7.17,-7.18
100.25,-9.64,-2.43,-9.65,-2.44,2.47,2.57,2.36,-7.17,-7.19,-7.21
101.25,-9.64,-2.40,-9.64,-2.39,2.42,2.54,2.34,-7.22,-7.22,-7.24
102.27,-9.65,-2.38,-9.65,-2.37,2.38,2.51,2.31,-7.27,-7.27,-7.27
103.29,-9.67,-2.36,-9.67,-2.36,2.35,2.48,2.29,-7.32,-7.32,-7.31
104.32,-9.69,-2.36,-9.69,-2.36,2.32,2.45,2.27,-7.37,-7.37,-7.33
105.37,-9.71,-2.35,-9.71,-2.35,2.31,2.42,2.25,-7.40,-7.40,-7.36
106.42,-9.73,-2.34,-9.71,-2.32,2.32,2.39,2.24,-7.41,-7.39,-7.39
107.48,-9.73,-2.30,-9.71,-2.29,2.35,2.36,2.22,-7.38,-7.37,-7.43
108.56,-9.70,-2.23,-9.75,-2.28,2.37,2.33,2.20,-7.33,-7.38,-7.47
109.64,-9.83,-2.33,-9.84,-2.34,2.39,2.31,2.19,-7.44,-7.45,-7.50
110.74,-9.97,-2.43,-9.97,-2.44,2.40,2.28,2.17,-7.57,-7.57,-7.54
111.85,-10.12,-2.56,-10.07,-2.51,2.41,2.25,2.16,-7.71,-7.66,-7.56
112.97,-10.11,-2.51,-10.11,-2.51,2.41,2.23,2.15,-7.70,-7.69,-7.60
114.10,-10.06,-2.43,-10.09,-2.46,2.41,2.20,2.13,-7.65,-7.68,-7.63
115.24,-10.05,-2.39,-10.02,-2.36,2.40,2.18,2.12,-7.65,-7.62,-7.66
116.39,-9.99,-2.29,-10.00,-2.30,2.37,2.15,2.11,-7.62,-7.63,-7.70
117.55,-9.95,-2.23,-10.02,-2.30,2.32,2.13,2.10,-7.63,-7.69,-7.72
118.73,-10.07,-2.33,-10.01,-2.27,2.28,2.11,2.08,-7.79,-7.73,-7.74
119.92,-10.06,-2.31,-10.01,-2.25,2.24,2.08,2.07,-7.82,-7.78,-7.75
121.12,-9.93,-2.15,-10.00,-2.23,2.21,2.06,2.06,-7.72,-7.80,-7.78
122.33,-9.98,-2.18,-9.96,-2.17,2.19,2.04,2.05,-7.79,-7.77,-7.79
123.55,-9.97,-2.17,-9.96,-2.15,2.17,2.02,2.03,-7.80,-7.78,-7.80
124.79,-9.94,-2.12,-9.97,-2.16,2.15,1.99,2.02,-7.79,-7.82,-7.82
126.03,-10.00,-2.17,-9.96,-2.13,2.14,1.97,2.00,-7.86,-7.82,-7.83
127.29,-9.95,-2.11,-9.97,-2.12,2.12,1.95,1.99,-7.83,-7.84,-7.83
128.57,-9.96,-2.10,-9.97,-2.12,2.11,1.93,1.97,-7.85,-7.86,-7.86
129.85,-9.99,-2.12,-9.97,-2.10,2.11,1.91,1.96,-7.88,-7.87,-7.87
131.15,-9.98,-2.09,-9.98,-2.10,2.10,1.89,1.94,-7.88,-7.88,-7.89
132.46,-9.98,-2.08,-9.98,-2.08,2.09,1.87,1.93,-7.89,-7.89,-7.90
133.79,-9.97,-2.06,-9.97,-2.06,2.06,1.85,1.91,-7.91,-7.91,-7.91
135.12,-9.97,-2.04,-9.97,-2.05,2.03,1.83,1.89,-7.94,-7.94,-7.93
136.48,-9.96,-2.03,-9.96,-2.03,1.99,1.81,1.88,-7.97,-7.98,-7.93
137.84,-9.95,-2.00,-9.94,-1.98,1.94,1.79,1.86,-8.01,-8.00,-7.95
139.22,-9.90,-1.93,-9.89,-1.92,1.90,1.77,1.84,-8.00,-7.98,-7.97
140.61,-9.82,-1.83,-9.83,-1.84,1.87,1.76,1.83,-7.95,-7.96,-7.99
142.02,-9.76,-1.77,-9.76,-1.77,1.85,1.74,1.81,-7.91,-7.92,-7.99
143.44,-9.76,-1.75,-9.76,-1.74,1.83,1.72,1.79,-7.93,-7.93,-8.01
144.87,-9.76,-1.72,-9.81,-1.78,1.80,1.70,1.78,-7.96,-8.01,-8.04
146.32,-9.91,-1.85,-9.88,-1.82,1.78,1.68,1.76,-8.13,-8.10,-8.06
147.78,-9.96,-1.88,-9.91,-1.83,1.74,1.66,1.75,-8.22,-8.17,-8.08
149.26,-9.89,-1.78,-9.91,-1.79,1.71,1.65,1.73,-8.18,-8.21,-8.11
150.75,-9.86,-1.69,-9.88,-1.72,1.68,1.63,1.72,-8.18,-8.21,-8.17
152.26,-9.86,-1.64,-9.85,-1.63,1.65,1.61,1.71,-8.21,-8.20,-8.22
153.78,-9.86,-1.58,-9.81,-1.53,1.61,1.59,1.69,-8.25,-8.20,-8.28
155.32,-9.79,-1.45,-9.84,-1.50,1.57,1.57,1.68,-8.22,-8.26,-8.34
156.88,-9.83,-1.43,-9.89,-1.49,1.54,1.55,1.67,-8.29,-8.35,-8.40
158.44,-10.07,-1.59,-9.99,-1.51,1.52,1.53,1.66,-8.55,-8.47,-8.47
160.03,-10.09,-1.54,-10.11,-1.56,1.51,1.51,1.65,-8.58,-8.60,-8.55
161.63,-10.16,-1.55,-10.15,-1.54,1.50,1.49,1.65,-8.66,-8.65,-8.61
163.24,-10.18,-1.52,-10.14,-1.49,1.48,1.47,1.64,-8.70,-8.66,-8.66
164.88,-10.08,-1.38,-10.16,-1.46,1.45,1.45,1.64,-8.63,-8.71,-8.70
166.53,-10.19,-1.45,-10.18,-1.45,1.40,1.43,1.63,-8.79,-8.78,-8.74
168.19,-10.19,-1.42,-10.16,-1.39,1.35,1.41,1.63,-8.84,-8.80,-8.76
169.87,-10.17,-1.38,-10.09,-1.31,1.30,1.39,1.63,-8.87,-8.80,-8.79
171.57,-9.92,-1.12,-10.01,-1.21,1.25,1.37,1.63,-8.67,-8.75,-8.80
173.29,-9.92,-1.11,-9.96,-1.15,1.22,1.35,1.63,-8.70,-8.73,-8.81
175.02,-10.00,-1.19,-9.95,-1.14,1.20,1.33,1.63,-8.80,-8.75,-8.80
176.77,-10.00,-1.19,-10.00,-1.19,1.18,1.30,1.63,-8.82,-8.81,-8.81
178.54,-10.00,-1.19,-10.01,-1.21,1.18,1.28,1.64,-8.82,-8.83,-8.81
180.32,-10.00,-1.21,-10.00,-1.20,1.18,1.26,1.64,-8.82,-8.82,-8.79
182.13,-9.99,-1.21,-9.99,-1.21,1.19,1.24,1.65,-8.80,-8.80,-8.78
183.95,-9.98,-1.20,-9.98,-1.20,1.18,1.22,1.66,-8.79,-8.80,-8.78
185.79,-9.97,-1.20,-9.97,-1.19,1.18,1.21,1.67,-8.79,-8.79,-8.77
187.65,-9.96,-1.17,-9.96,-1.17,1.16,1.19,1.68,-8.80,-8.79,-8.79
189.52,-9.94,-1.15,-9.94,-1.15,1.15,1.18,1.69,-8.79,-8.79,-8.79
191.42,-9.93,-1.13,-9.92,-1.12,1.15,1.17,1.70,-8.78,-8.78,-8.80
193.33,-9.92,-1.10,-9.90,-1.09,1.14,1.17,1.72,-8.77,-8.76,-8.81
195.27,-9.90,-1.07,-9.92,-1.09,1.14,1.17,1.73,-8.76,-8.78,-8.83
197.22,-9.94,-1.10,-9.98,-1.14,1.13,1.17,1.75,-8.81,-8.85,-8.84
199.19,-10.07,-1.21,-10.04,-1.19,1.13,1.18,1.76,-8.94,-8.91,-8.86
201.18,-10.12,-1.25,-10.06,-1.19,1.13,1.19,1.78,-8.99,-8.94,-8.87
203.19,-10.02,-1.14,-10.04,-1.15,1.13,1.20,1.80,-8.89,-8.90,-8.88
205.23,-9.96,-1.06,-9.98,-1.08,1.14,1.22,1.82,-8.82,-8.84,-8.90
207.28,-9.96,-1.06,-9.98,-1.07,1.14,1.24,1.84,-8.82,-8.84,-8.90
209.35,-10.02,-1.10,-10.06,-1.14,1.14,1.26,1.86,-8.88,-8.92,-8.92
211.44,-10.19,-1.24,-10.12,-1.19,1.14,1.29,1.88,-9.05,-8.98,-8.95
213.56,-10.18,-1.23,-10.13,-1.18,1.16,1.31,1.90,-9.02,-8.97,-8.95
215.69,-10.08,-1.13,-10.13,-1.18,1.18,1.34,1.92,-8.90,-8.95,-8.95
217.85,-10.08,-1.12,-10.16,-1.20,1.22,1.37,1.93,-8.86,-8.94,-8.96
220.03,-10.28,-1.31,-10.19,-1.22,1.26,1.40,1.95,-9.02,-8.94,-8.97
222.23,-10.32,-1.33,-10.26,-1.28,1.29,1.43,1.97,-9.03,-8.97,-8.99
224.45,-10.21,-1.24,-10.34,-1.36,1.32,1.45,1.99,-8.89,-9.02,-8.97
226.70,-10.38,-1.41,-10.36,-1.39,1.37,1.48,2.01,-9.01,-8.99,-8.97
228.96,-10.49,-1.53,-10.35,-1.40,1.42,1.51,2.03,-9.07,-8.94,-8.96
231.25,-10.32,-1.38,-10.41,-1.46,1.47,1.54,2.04,-8.85,-8.94,-8.94
233.57,-10.33,-1.40,-10.43,-1.50,1.51,1.57,2.06,-8.82,-8.92,-8.93
235.90,-10.58,-1.66,-10.45,-1.53,1.55,1.60,2.07,-9.03,-8.90,-8.92
238.26,-10.52,-1.62,-10.54,-1.64,1.58,1.63,2.08,-8.94,-8.96,-8.90
240.64,-10.49,-1.61,-10.55,-1.68,1.61,1.66,2.09,-8.88,-8.94,-8.88
243.05,-10.59,-1.75,-10.49,-1.64,1.67,1.69,2.10,-8.92,-8.82,-8.84
245.48,-10.46,-1.64,-10.51,-1.69,1.73,1.72,2.11,-8.73,-8.78,-8.82
247.93,-10.44,-1.66,-10.53,-1.74,1.79,1.75,2.12,-8.65,-8.74,-8.78
250.41,-10.67,-1.90,-10.55,-1.79,1.86,1.78,2.12,-8.81,-8.69,-8.77
252.92,-10.60,-1.87,-10.63,-1.89,1.92,1.81,2.12,-8.68,-8.70,-8.73
255.45,-10.69,-1.98,-10.75,-2.04,1.98,1.84,2.13,-8.71,-8.77,-8.71
258.00,-10.80,-2.12,-10.82,-2.14,2.05,1.87,2.13,-8.75,-8.77,-8.68
260.58,-10.98,-2.31,-10.82,-2.16,2.12,1.91,2.12,-8.86,-8.70,-8.66
263.19,-10.80,-2.17,-10.82,-2.18,2.18,1.94,2.12,-8.62,-8.64,-8.63
265.82,-10.61,-2.00,-10.83,-2.22,2.24,1.97,2.12,-8.37,-8.60,-8.61
268.48,-10.96,-2.37,-10.78,-2.20,2.29,2.00,2.11,-8.66,-8.49,-8.59
271.16,-10.93,-2.38,-10.84,-2.29,2.34,2.04,2.10,-8.59,-8.50,-8.55
273.87,-10.72,-2.19,-10.95,-2.42,2.38,2.07,2.10,-8.34,-8.57,-8.53
276.61,-11.03,-2.53,-10.93,-2.43,2.41,2.11,2.09,-8.62,-8.51,-8.50
279.38,-11.08,-2.61,-10.96,-2.49,2.46,2.14,2.08,-8.62,-8.50,-8.47
282.17,-10.88,-2.44,-11.04,-2.60,2.52,2.18,2.07,-8.36,-8.52,-8.44
284.99,-11.02,-2.61,-10.99,-2.58,2.59,2.21,2.06,-8.43,-8.40,-8.41
287.84,-11.06,-2.67,-10.95,-2.57,2.66,2.25,2.05,-8.39,-8.28,-8.39
290.72,-10.90,-2.55,-10.97,-2.62,2.73,2.28,2.04,-8.17,-8.24,-8.35
293.63,-10.95,-2.63,-11.05,-2.73,2.78,2.32,2.03,-8.17,-8.27,-8.32
296.57,-11.16,-2.87,-11.15,-2.86,2.81,2.36,2.02,-8.35,-8.34,-8.29
299.53,-11.39,-3.13,-11.22,-2.96,2.82,2.39,2.01,-8.57,-8.41,-8.26
302.53,-11.15,-2.91,-11.21,-2.98,2.82,2.43,2.00,-8.33,-8.39,-8.24
305.55,-11.04,-2.85,-11.12,-2.92,2.84,2.46,2.00,-8.20,-8.28,-8.19
308.61,-11.02,-2.84,-10.96,-2.79,2.86,2.50,1.99,-8.16,-8.10,-8.18
311.69,-10.95,-2.80,-10.87,-2.73,2.88,2.54,1.98,-8.07,-7.99,-8.15
314.81,-10.71,-2.59,-10.82,-2.70,2.88,2.57,1.98,-7.83,-7.94,-8.12
317.96,-10.86,-2.76,-10.92,-2.81,2.89,2.60,1.98,-7.97,-8.03,-8.10
321.14,-11.07,-2.98,-11.08,-2.99,2.91,2.64,1.98,-8.16,-8.16,-8.09
324.35,-11.37,-3.29,-11.19,-3.11,2.96,2.67,1.98,-8.41,-8.23,-8.07
327.59,-11.16,-3.10,-11.17,-3.11,3.01,2.70,1.98,-8.15,-8.16,-8.06
330.87,-10.98,-2.93,-11.11,-3.06,3.07,2.73,1.98,-7.91,-8.04,-8.05
334.18,-11.06,-3.03,-11.02,-2.99,3.10,2.76,1.98,-7.96,-7.92,-8.03
337.52,-11.11,-3.09,-11.10,-3.08,3.11,2.79,1.99,-8.00,-7.99,-8.02
340.90,-11.11,-3.11,-11.20,-3.19,3.12,2.81,2.00,-7.99,-8.08,-8.00
344.30,-11.31,-3.32,-11.14,-3.14,3.13,2.84,2.01,-8.18,-8.01,-7.99
347.75,-11.12,-3.12,-11.08,-3.08,3.14,2.86,2.02,-7.98,-7.93,-8.00
351.23,-10.84,-2.85,-11.10,-3.11,3.15,2.88,2.03,-7.69,-7.95,-7.99
354.74,-11.16,-3.17,-11.10,-3.12,3.14,2.89,2.05,-8.02,-7.96,-7.99
358.28,-11.36,-3.38,-11.16,-3.18,3.13,2.91,2.06,-8.23,-8.04,-7.98
361.87,-11.10,-3.12,-11.24,-3.26,3.11,2.92,2.08,-7.99,-8.13,-7.98
365.49,-11.10,-3.13,-11.11,-3.13,3.10,2.93,2.10,-8.00,-8.00,-7.97
369.14,-11.11,-3.13,-10.96,-2.98,3.10,2.93,2.12,-8.01,-7.86,-7.98
372.83,-10.78,-2.80,-10.94,-2.95,3.08,2.93,2.15,-7.70,-7.86,-7.98
376.56,-10.90,-2.92,-10.95,-2.97,3.03,2.93,2.17,-7.87,-7.92,-7.98
380.33,-11.11,-3.13,-11.05,-3.07,2.99,2.92,2.20,-8.12,-8.05,-7.97
384.13,-11.14,-3.16,-11.09,-3.11,2.95,2.91,2.22,-8.19,-8.14,-7.98
387.97,-11.06,-3.07,-10.95,-2.97,2.91,2.90,2.25,-8.15,-8.04,-7.99
391.85,-10.67,-2.67,-10.79,-2.80,2.87,2.88,2.28,-7.79,-7.92,-8.00
395.77,-10.60,-2.61,-10.70,-2.71,2.82,2.86,2.31,-7.78,-7.88,-7.99
399.73,-10.79,-2.79,-10.72,-2.72,2.75,2.84,2.34,-8.04,-7.97,-8.00
403.72,-10.80,-2.80,-10.76,-2.75,2.67,2.81,2.37,-8.13,-8.09,-8.00
407.76,-10.74,-2.73,-10.66,-2.66,2.59,2.78,2.40,-8.15,-8.07,-8.01
411.84,-10.44,-2.43,-10.51,-2.50,2.52,2.74,2.43,-7.92,-7.99,-8.01
415.96,-10.34,-2.33,-10.42,-2.41,2.47,2.70,2.46,-7.87,-7.95,-8.01
420.12,-10.43,-2.42,-10.37,-2.36,2.42,2.66,2.49,-8.01,-7.95,-8.01
424.32,-10.42,-2.41,-10.37,-2.36,2.36,2.62,2.52,-8.06,-8.01,-8.01
428.56,-10.31,-2.31,-10.34,-2.34,2.29,2.57,2.55,-8.02,-8.06,-8.00
