frequency,raw
20.00,-12.08
20.20,-11.96
20.40,-11.84
20.61,-11.71
20.81,-11.59
21.02,-11.47
21.23,-11.34
21.44,-11.22
21.66,-11.10
21.87,-10.97
22.09,-10.85
22.31,-10.72
22.54,-10.59
22.76,-10.46
22.99,-10.34
23.22,-10.21
23.45,-10.08
23.69,-9.95
23.92,-9.82
24.16,-9.69
24.40,-9.57
24.65,-9.44
24.89,-9.31
25.14,-9.19
25.39,-9.06
25.65,-8.93
25.91,-8.80
26.16,-8.67
26.43,-8.53
26.69,-8.40
26.96,-8.27
27.23,-8.14
27.50,-8.01
27.77,-7.88
28.05,-7.76
28.33,-7.63
28.62,-7.50
28.90,-7.36
29.19,-7.24
29.48,-7.11
29.78,-6.98
30.08,-6.85
30.38,-6.73
30.68,-6.61
30.99,-6.49
31.30,-6.37
31.61,-6.25
31.93,-6.13
32.24,-6.01
32.57,-5.88
32.89,-5.76
33.22,-5.64
33.55,-5.52
33.89,-5.41
34.23,-5.29
34.57,-5.17
34.92,-5.05
35.27,-4.93
35.62,-4.81
35.97,-4.69
36.33,-4.57
36.70,-4.46
37.06,-4.34
37.43,-4.22
37.81,-4.11
38.19,-3.99
38.57,-3.88
38.95,-3.76
39.34,-3.64
39.74,-3.51
40.14,-3.39
40.54,-3.27
40.94,-3.15
41.35,-3.02
41.76,-2.90
42.18,-2.78
42.60,-2.66
43.03,-2.54
43.46,-2.42
43.90,-2.30
44.33,-2.19
44.78,-2.08
45.23,-1.96
45.68,-1.85
46.13,-1.74
46.60,-1.64
47.06,-1.54
47.53,-1.42
48.01,-1.31
48.49,-1.20
48.97,-1.09
49.46,-0.99
49.96,-0.89
50.46,-0.78
50.96,-0.68
51.47,-0.58
51.99,-0.49
52.51,-0.40
53.03,-0.32
53.56,-0.23
54.10,-0.14
54.64,-0.05
55.18,0.03
55.74,0.11
56.29,0.18
56.86,0.24
57.42,0.32
58.00,0.40
58.58,0.47
59.16,0.54
59.76,0.60
60.35,0.67
60.96,0.74
61.57,0.80
62.18,0.87
62.80,0.94
63.43,1.01
64.07,1.08
64.71,1.13
65.35,1.18
66.01,1.24
66.67,1.29
67.33,1.34
68.01,1.40
68.69,1.46
69.37,1.51
70.07,1.56
70.77,1.61
71.48,1.66
72.19,1.70
72.91,1.74
73.64,1.79
74.38,1.83
75.12,1.86
75.87,1.89
76.63,1.92
77.40,1.94
78.17,1.96
78.95,1.98
79.74,1.99
80.54,2.00
81.35,2.01
82.16,2.02
82.98,2.02
83.81,2.02
84.65,2.01
85.50,2.01
86.35,2.00
87.22,2.00
88.09,2.00
88.97,2.00
89.86,2.00
90.76,2.00
91.66,2.00
92.58,2.00
93.51,2.00
94.44,2.00
95.39,2.00
96.34,2.00
97.30,2.00
98.28,2.00
99.26,2.00
100.25,2.00
101.25,2.00
102.27,2.00
103.29,2.00
104.32,2.00
105.37,2.01
106.42,2.02
107.48,2.02
108.56,2.01
109.64,1.99
110.74,1.97
111.85,1.93
112.97,1.90
114.10,1.87
115.24,1.83
116.39,1.81
117.55,1.78
118.73,1.75
119.92,1.72
121.12,1.70
122.33,1.69
123.55,1.67
124.79,1.65
126.03,1.63
127.29,1.62
128.57,1.61
129.85,1.57
131.15,1.53
132.46,1.51
133.79,1.48
135.12,1.45
136.48,1.43
137.84,1.40
139.22,1.38
140.61,1.35
142.02,1.31
143.44,1.30
144.87,1.26
146.32,1.25
147.78,1.22
149.26,1.19
150.75,1.16
152.26,1.14
153.78,1.11
155.32,1.09
156.88,1.04
158.44,1.02
160.03,0.98
161.63,0.96
163.24,0.93
164.88,0.90
166.53,0.88
168.19,0.86
169.87,0.83
171.57,0.80
173.29,0.77
175.02,0.72
176.77,0.68
178.54,0.64
180.32,0.61
182.13,0.58
183.95,0.55
185.79,0.53
187.65,0.51
189.52,0.49
191.42,0.45
193.33,0.41
195.27,0.37
197.22,0.33
199.19,0.29
201.18,0.25
203.19,0.22
205.23,0.20
207.28,0.17
209.35,0.14
211.44,0.12
213.56,0.09
215.69,0.07
217.85,0.05
220.03,0.03
222.23,0.00
224.45,-0.02
226.70,-0.05
228.96,-0.06
231.25,-0.08
233.57,-0.10
235.90,-0.11
238.26,-0.12
240.64,-0.11
243.05,-0.10
245.48,-0.08
247.93,-0.03
250.41,0.01
252.92,0.09
255.45,0.16
258.00,0.22
260.58,0.30
263.19,0.37
265.82,0.45
268.48,0.52
271.16,0.58
273.87,0.67
276.61,0.74
279.38,0.80
282.17,0.85
284.99,0.90
287.84,0.95
290.72,0.99
293.63,1.01
296.57,1.02
299.53,1.04
302.53,1.06
305.55,1.07
308.61,1.07
311.69,1.05
314.81,1.03
317.96,1.01
321.14,0.99
324.35,0.96
327.59,0.92
330.87,0.91
334.18,0.88
337.52,0.84
340.90,0.80
344.30,0.76
347.75,0.72
351.23,0.66
354.74,0.62
358.28,0.57
361.87,0.54
365.49,0.51
369.14,0.48
372.83,0.47
376.56,0.44
380.33,0.42
384.13,0.39
387.97,0.37
391.85,0.34
395.77,0.31
399.73,0.29
403.72,0.27
407.76,0.24
411.84,0.21
415.96,0.17
420.12,0.14
424.32,0.11
428.56,0.09
432.85,0.07
437.18,0.04
441.55,0.03
445.96,0.03
450.42,0.04
454.93,0.04
459.48,0.05
464.07,0.05
468.71,0.05
473.40,0.05
478.13,0.06
482.91,0.07
487.74,0.07
492.62,0.07
497.55,0.06
502.52,0.05
507.55,0.02
512.62,-0.01
517.75,-0.04
522.93,-0.07
528.16,-0.11
533.44,-0.14
538.77,-0.17
544.16,-0.20
549.60,-0.23
555.10,-0.26
560.65,-0.28
566.25,-0.29
571.92,-0.30
577.64,-0.29
583.41,-0.28
589.25,-0.27
595.14,-0.27
601.09,-0.27
607.10,-0.27
613.17,-0.27
619.30,-0.27
625.50,-0.27
631.75,-0.27
638.07,-0.27
644.45,-0.27
650.89,-0.27
657.40,-0.27
663.98,-0.27
670.62,-0.27
677.32,-0.27
684.10,-0.27
690.94,-0.27
697.85,-0.27
704.83,-0.27
711.87,-0.27
718.99,-0.27
726.18,-0.27
733.44,-0.27
740.78,-0.27
748.19,-0.27
755.67,-0.27
763.23,-0.27
770.86,-0.27
778.57,-0.27
786.35,-0.27
794.22,-0.27
802.16,-0.27
810.18,-0.27
818.28,-0.27
826.46,-0.27
834.73,-0.27
843.08,-0.27
851.51,-0.27
860.02,-0.27
868.62,-0.28
877.31,-0.29
886.08,-0.30
894.94,-0.30
903.89,-0.29
912.93,-0.27
922.06,-0.25
931.28,-0.23
940.59,-0.20
950.00,-0.17
959.50,-0.14
969.09,-0.10
978.78,-0.07
988.57,-0.04
998.46,-0.01
1008.44,0.02
1018.53,0.05
1028.71,0.05
1039.00,0.06
1049.39,0.05
1059.88,0.05
1070.48,0.05
1081.19,0.06
1092.00,0.08
1102.92,0.11
1113.95,0.13
1125.09,0.17
1136.34,0.20
1147.70,0.23
1159.18,0.25
1170.77,0.28
1182.48,0.31
1194.30,0.35
1206.25,0.38
1218.31,0.41
1230.49,0.44
1242.80,0.46
1255.22,0.49
1267.78,0.54
1280.45,0.57
1293.26,0.62
1306.19,0.68
1319.25,0.74
1332.45,0.81
1345.77,0.87
1359.23,0.93
1372.82,0.99
1386.55,1.06
1400.41,1.12
1414.42,1.18
1428.56,1.26
1442.85,1.34
1457.28,1.41
1471.85,1.48
1486.57,1.54
1501.43,1.60
1516.45,1.67
1531.61,1.75
1546.93,1.83
1562.40,1.90
1578.02,2.00
1593.80,2.13
1609.74,2.28
1625.84,2.45
1642.10,2.64
1658.52,2.88
1675.10,3.13
1691.85,3.41
1708.77,3.71
1725.86,4.05
1743.12,4.41
1760.55,4.78
1778.15,5.12
1795.94,5.46
1813.90,5.80
1832.03,6.14
1850.36,6.47
1868.86,6.77
1887.55,7.04
1906.42,7.31
1925.49,7.55
1944.74,7.79
1964.19,7.99
1983.83,8.18
2003.67,8.34
2023.71,8.46
2043.94,8.58
2064.38,8.66
2085.03,8.74
2105.88,8.81
2126.94,8.84
2148.20,8.87
2169.69,8.88
2191.38,8.86
2213.30,8.82
2235.43,8.79
2257.78,8.74
2280.36,8.67
2303.17,8.61
2326.20,8.54
2349.46,8.47
2372.95,8.38
2396.68,8.28
2420.65,8.19
2444.86,8.10
2469.31,8.00
2494.00,7.90
2518.94,7.81
2544.13,7.73
2569.57,7.64
2595.27,7.54
2621.22,7.44
2647.43,7.32
2673.90,7.17
2700.64,7.03
2727.65,6.90
2754.93,6.75
2782.48,6.60
2810.30,6.44
2838.40,6.27
2866.79,6.08
2895.46,5.89
2924.41,5.71
2953.65,5.53
2983.19,5.34
3013.02,5.15
3043.15,4.94
3073.58,4.72
3104.32,4.51
3135.36,4.28
3166.72,4.03
3198.38,3.76
3230.37,3.49
3262.67,3.22
3295.30,2.95
3328.25,2.68
3361.53,2.42
3395.15,2.18
3429.10,1.95
3463.39,1.75
3498.03,1.60
3533.01,1.50
3568.34,1.46
3604.02,1.50
3640.06,1.61
3676.46,1.80
3713.22,2.08
3750.36,2.40
3787.86,2.80
3825.74,3.23
3864.00,3.70
3902.64,4.22
3941.66,4.76
3981.08,5.27
4020.89,5.75
4061.10,6.21
4101.71,6.63
4142.73,7.01
4184.15,7.35
4226.00,7.63
4268.26,7.88
4310.94,8.08
4354.05,8.25
4397.59,8.41
4441.56,8.54
4485.98,8.66
4530.84,8.77
4576.15,8.84
4621.91,8.90
4668.13,8.93
4714.81,8.96
4761.96,8.99
4809.58,8.99
4857.67,8.97
4906.25,8.95
4955.31,8.92
5004.87,8.89
5054.91,8.86
5105.46,8.84
5156.52,8.82
5208.08,8.81
5260.16,8.83
5312.77,8.86
5365.89,8.92
5419.55,8.98
5473.75,9.07
5528.49,9.15
5583.77,9.24
5639.61,9.35
5696.00,9.46
5752.96,9.56
5810.49,9.68
5868.60,9.80
5927.28,9.92
5986.56,10.03
6046.42,10.14
6106.89,10.26
6167.96,10.38
6229.64,10.49
6291.93,10.61
6354.85,10.72
6418.40,10.82
6482.58,10.91
6547.41,10.98
6612.88,11.01
6679.01,11.02
6745.80,11.00
6813.26,10.94
6881.39,10.84
6950.21,10.70
7019.71,10.54
7089.91,10.35
7160.81,10.12
7232.41,9.86
7304.74,9.57
7377.79,9.24
7451.56,8.89
7526.08,8.50
7601.34,8.08
7677.35,7.61
7754.13,7.12
7831.67,6.61
7909.98,6.05
7989.08,5.46
8068.98,4.85
8149.67,4.24
8231.16,3.65
8313.47,3.08
8396.61,2.57
8480.57,2.12
8565.38,1.76
8651.03,1.50
8737.54,1.32
8824.92,1.22
8913.17,1.20
9002.30,1.25
9092.32,1.35
9183.25,1.49
9275.08,1.67
9367.83,1.86
9461.51,2.05
9556.12,2.25
9651.68,2.42
9748.20,2.58
9845.68,2.73
9944.14,2.85
10043.58,2.94
10144.02,3.02
10245.46,3.10
10347.91,3.17
10451.39,3.23
10555.91,3.29
10661.46,3.32
10768.08,3.33
10875.76,3.32
10984.52,3.30
11094.36,3.25
11205.31,3.20
11317.36,3.14
11430.53,3.08
11544.84,3.00
11660.29,2.90
11776.89,2.79
11894.66,2.65
12013.60,2.50
12133.74,2.32
12255.08,2.13
12377.63,1.92
12501.41,1.69
12626.42,1.44
12752.68,1.15
12880.21,0.86
13009.01,0.55
13139.10,0.22
13270.49,-0.14
13403.20,-0.53
13537.23,-0.95
13672.60,-1.37
13809.33,-1.83
13947.42,-2.30
14086.90,-2.80
14227.77,-3.31
14370.04,-3.81
14513.74,-4.30
14658.88,-4.77
14805.47,-5.21
14953.52,-5.62
15103.06,-5.99
15254.09,-6.32
15406.63,-6.60
15560.70,-6.85
15716.30,-7.06
15873.47,-7.26
16032.20,-7.46
16192.52,-7.65
16354.45,-7.87
16517.99,-8.10
16683.17,-8.35
16850.01,-8.62
17018.51,-8.91
17188.69,-9.20
17360.58,-9.53
17534.18,-9.86
17709.53,-10.21
17886.62,-10.56
18065.49,-10.91
18246.14,-11.23
18428.60,-11.55
18612.89,-11.86
18799.02,-12.17
18987.01,-12.47
19176.88,-12.78
19368.65,-13.08
19562.33,-13.37
19757.96,-13.67
19955.54,-13.97
