frequency,raw
20,-11.25
21,-10.54
22,-9.85
23,-9.19
24,-8.71
25,-8.16
26,-7.60
27,-7.07
28,-6.57
29,-6.11
30,-5.67
31,-5.25
32,-4.81
33,-4.44
34,-3.97
35,-3.48
36,-3.16
37,-2.71
38,-2.39
39,-2.01
40,-1.76
41,-1.36
42,-1.20
43,-0.88
44,-0.58
45,-0.55
46,-0.23
47,-0.15
48,0.09
49,0.16
50,0.39
51,0.48
52,0.75
53,0.89
54,1.10
55,1.30
56,1.62
57,1.72
58,2.07
59,2.26
60,2.53
61,2.80
62,2.98
63,3.31
64,3.50
65,3.68
66,3.85
67,4.05
68,4.31
69,4.39
70,4.64
71,4.71
72,4.96
73,4.99
74,5.14
75,5.29
76,5.29
77,5.43
78,5.57
79,5.61
80,5.61
81,5.74
82,5.93
83,5.93
84,5.93
85,5.93
86,6.03
87,6.16
88,6.26
89,6.26
90,6.26
91,6.34
92,6.46
93,6.58
94,6.58
95,6.58
96,6.58
97,6.58
98,6.80
99,6.91
100,6.91
101,6.91
102,6.91
104,6.91
105,6.91
106,6.91
107,6.91
108,6.91
109,6.91
110,6.91
111,6.91
112,6.91
113,6.91
114,6.91
115,6.91
117,6.91
118,6.91
119,6.91
120,6.91
121,6.91
123,6.91
124,6.91
125,6.91
126,6.91
128,6.91
129,6.91
130,6.85
131,6.77
133,6.75
134,6.67
135,6.59
137,6.58
138,6.58
140,6.58
141,6.58
142,6.58
144,6.51
145,6.43
147,6.28
148,6.26
150,6.26
151,6.26
153,6.26
154,6.24
156,6.09
157,6.02
159,5.93
160,5.93
162,5.93
164,5.93
165,5.93
167,5.81
169,5.67
170,5.61
172,5.61
174,5.61
175,5.61
177,5.61
179,5.51
181,5.39
183,5.29
184,5.29
186,5.29
188,5.28
190,5.16
192,5.04
194,4.96
196,4.96
198,4.96
200,4.96
202,4.95
204,4.73
206,4.64
208,4.64
210,4.64
212,4.57
214,4.47
216,4.36
218,4.31
221,4.27
223,4.17
225,4.06
227,3.99
229,3.99
232,3.99
234,3.95
236,3.85
239,3.71
241,3.66
244,3.66
246,3.66
248,3.61
251,3.48
253,3.39
256,3.34
259,3.34
261,3.34
264,3.23
266,3.15
269,3.02
272,3.02
274,3.02
277,3.02
280,3.02
283,2.93
286,2.82
288,2.74
291,2.69
294,2.69
297,2.69
300,2.69
303,2.69
306,2.69
309,2.59
312,2.48
316,2.37
319,2.37
322,2.37
325,2.37
328,2.37
332,2.27
335,2.16
338,2.06
342,2.04
345,2.04
349,2.04
352,2.04
356,2.04
359,2.03
363,1.91
366,1.81
370,1.72
374,1.72
377,1.72
381,1.72
385,1.72
389,1.72
393,1.72
397,1.71
401,1.59
405,1.48
409,1.39
413,1.39
417,1.39
421,1.39
425,1.39
430,1.39
434,1.39
438,1.39
443,1.28
447,1.18
451,1.08
456,1.07
460,1.07
465,1.07
470,1.07
474,1.07
479,1.05
484,0.93
489,0.91
494,0.86
499,0.75
504,0.75
509,0.75
514,0.75
519,0.75
524,0.75
529,0.74
535,0.61
540,0.50
545,0.42
551,0.42
556,0.42
562,0.42
568,0.42
573,0.42
579,0.42
585,0.42
591,0.42
596,0.36
602,0.25
608,0.14
615,0.10
621,0.10
627,0.10
633,0.10
639,0.10
646,0.10
652,0.10
659,0.10
665,0.10
672,0.10
679,0.10
686,0.10
692,0.10
699,0.10
706,0.10
713,0.10
721,0.10
728,0.10
735,0.10
742,0.10
750,0.10
757,0.10
765,0.10
773,0.10
780,0.10
788,0.10
796,0.10
804,0.10
812,0.10
820,0.10
828,0.10
837,0.10
845,-0.01
853,-0.12
862,-0.23
871,-0.23
879,-0.23
888,-0.23
897,-0.23
906,-0.23
915,-0.23
924,-0.23
933,-0.23
943,-0.23
952,-0.23
962,-0.23
971,-0.23
981,-0.22
991,-0.10
1001,0.01
1011,0.10
1021,0.10
1031,0.10
1041,0.10
1052,0.10
1062,0.10
1073,0.10
1084,0.10
1094,0.10
1105,0.15
1116,0.26
1128,0.26
1139,0.33
1150,0.40
1162,0.28
1173,0.34
1185,0.42
1197,0.42
1209,0.42
1221,0.42
1233,0.42
1246,0.42
1258,0.42
1271,0.42
1283,0.42
1296,0.42
1309,0.42
1322,0.42
1335,0.42
1349,0.42
1362,0.42
1376,0.42
1390,0.42
1404,0.42
1418,0.42
1432,0.42
1446,0.42
1461,0.42
1475,0.42
1490,0.42
1505,0.42
1520,0.42
1535,0.42
1550,0.42
1566,0.32
1582,0.20
1597,0.10
1613,0.10
1629,0.10
1646,0.06
1662,-0.15
1679,-0.23
1696,-0.26
1713,-0.37
1730,-0.48
1747,-0.55
1764,-0.55
1782,-0.55
1800,-0.61
1818,-0.72
1836,-0.83
1854,-0.88
1873,-0.86
1892,-0.75
1911,-0.71
1930,-0.68
1949,-0.57
1969,-0.55
1988,-0.55
2008,-0.55
2028,-0.35
2048,-0.23
2069,-0.22
2090,0.01
2111,0.10
2132,0.14
2153,0.36
2175,0.42
2196,0.42
2218,0.42
2240,0.60
2263,0.75
2285,0.75
2308,0.75
2331,0.85
2355,1.07
2378,1.07
2402,1.07
2426,1.09
2450,1.20
2475,1.23
2500,1.20
2525,1.09
2550,1.07
2575,1.07
2601,1.07
2627,1.07
2653,1.07
2680,1.08
2707,1.31
2734,1.54
2761,1.78
2789,2.12
2817,2.46
2845,2.79
2873,3.12
2902,3.46
2931,3.80
2960,4.13
2990,4.48
3020,4.81
3050,5.14
3080,5.36
3111,5.73
3142,6.14
3174,6.36
3206,6.59
3238,6.82
3270,7.04
3303,7.26
3336,7.49
3369,7.71
3403,7.83
3437,8.00
3471,8.21
3506,8.21
3541,8.21
3576,8.21
3612,8.21
3648,8.21
3685,8.21
3721,8.21
3759,8.11
3796,8.00
3834,7.88
3873,7.88
3911,7.76
3950,7.56
3990,7.56
4030,7.41
4070,7.21
4111,7.10
4152,6.90
4193,6.64
4235,6.30
4278,5.96
4321,5.67
4364,5.45
4407,5.01
4451,4.62
4496,4.28
4541,3.94
4586,3.53
4632,3.11
4679,2.76
4725,2.35
4773,1.89
4820,1.45
4868,0.80
4917,0.17
4966,-0.39
5016,-0.95
5066,-1.45
5117,-1.85
5168,-1.85
5220,-1.70
5272,-1.42
5325,-0.97
5378,-0.43
5432,0.17
5486,0.84
5541,1.41
5596,1.97
5652,2.53
5709,3.10
5766,3.60
5823,4.04
5882,4.50
5940,4.94
6000,5.39
6060,5.84
6120,6.20
6182,6.58
6244,7.03
6306,7.48
6369,7.82
6433,8.05
6497,8.27
6562,8.43
6628,8.55
6694,8.66
6761,8.69
6828,8.72
6897,8.83
6966,8.85
7035,8.85
7106,8.85
7177,8.96
7249,9.12
7321,9.34
7394,9.46
7468,9.63
7543,9.83
7618,9.83
7694,9.83
7771,9.83
7849,9.83
7928,9.83
8007,9.83
8087,9.83
8168,9.83
8250,9.83
8332,9.83
8415,9.83
8499,9.83
8584,9.83
8670,9.83
8757,9.75
8845,9.63
8933,9.52
9022,9.41
9113,9.30
9204,9.18
9296,8.97
9389,8.85
9483,8.85
9577,8.85
9673,8.85
9770,8.85
9868,8.85
9966,8.85
10066,8.85
10167,8.85
10268,9.04
10371,9.18
10475,9.18
10579,9.28
10685,9.40
10792,9.50
10900,9.50
11009,9.50
11119,9.50
11230,9.50
11343,9.34
11456,9.15
11571,9.03
11686,8.92
11803,8.76
11921,8.54
12040,8.42
12161,8.31
12282,8.20
12405,8.08
12529,7.90
12655,7.68
12781,7.45
12909,7.23
13038,6.94
13168,6.49
13300,6.23
13433,5.96
13567,5.62
13703,5.39
13840,5.23
13978,5.12
14118,5.00
14259,4.96
14402,4.96
14546,4.96
14692,5.13
14838,5.29
14987,5.29
15137,5.29
15288,5.24
15441,5.13
15595,4.90
15751,4.68
15909,4.43
16068,3.98
16229,3.68
16391,3.43
16555,3.10
16720,2.85
16888,2.62
17056,2.40
17227,2.17
17399,1.95
17573,1.72
17749,1.50
17926,1.21
18106,0.86
18287,0.41
18470,0.04
18654,-0.32
18841,-0.77
19029,-1.22
19220,-1.67
19412,-2.12
19606,-2.47
19802,-2.81
20000,-3.15
