frequency,raw,error,smoothed,error_smoothed,equalization,parametric_eq,fixed_band_eq,equalized_raw,equalized_smoothed,target
20.00,3.52,-1.92,3.52,-1.92,1.92,1.55,0.28,5.45,5.45,5.45
20.20,3.58,-1.90,3.59,-1.90,1.90,1.52,0.29,5.49,5.49,5.49
20.40,3.66,-1.87,3.65,-1.87,1.88,1.49,0.30,5.53,5.53,5.53
20.61,3.71,-1.84,3.71,-1.85,1.85,1.46,0.31,5.56,5.56,5.56
20.81,3.78,-1.82,3.78,-1.82,1.82,1.42,0.32,5.59,5.60,5.60
21.02,3.84,-1.79,3.84,-1.79,1.78,1.39,0.33,5.63,5.63,5.64
21.23,3.90,-1.75,3.90,-1.75,1.75,1.35,0.34,5.65,5.65,5.66
21.44,3.97,-1.71,3.97,-1.71,1.71,1.32,0.35,5.68,5.68,5.68
21.66,4.02,-1.67,4.02,-1.67,1.67,1.28,0.36,5.69,5.69,5.70
21.87,4.09,-1.62,4.09,-1.62,1.62,1.25,0.37,5.71,5.71,5.71
22.09,4.15,-1.58,4.15,-1.58,1.58,1.21,0.39,5.72,5.72,5.73
22.31,4.21,-1.53,4.21,-1.53,1.53,1.18,0.40,5.73,5.73,5.73
22.54,4.26,-1.48,4.26,-1.48,1.48,1.15,0.41,5.74,5.74,5.74
22.76,4.33,-1.43,4.33,-1.43,1.43,1.11,0.42,5.75,5.75,5.75
22.99,4.38,-1.37,4.38,-1.37,1.38,1.08,0.44,5.76,5.76,5.75
23.22,4.44,-1.32,4.44,-1.32,1.33,1.05,0.45,5.77,5.77,5.76
23.45,4.50,-1.28,4.50,-1.27,1.28,1.02,0.46,5.77,5.78,5.77
23.69,4.55,-1.23,4.56,-1.23,1.23,0.99,0.48,5.78,5.79,5.78
23.92,4.62,-1.18,4.61,-1.18,1.18,0.97,0.49,5.80,5.80,5.79
24.16,4.68,-1.14,4.67,-1.14,1.14,0.94,0.51,5.81,5.81,5.81
24.40,4.73,-1.11,4.73,-1.10,1.09,0.91,0.52,5.82,5.82,5.83
24.65,4.77,-1.06,4.78,-1.06,1.05,0.89,0.54,5.83,5.83,5.83
24.89,4.84,-1.01,4.83,-1.01,1.01,0.87,0.55,5.85,5.84,5.84
25.14,4.89,-0.96,4.88,-0.97,0.97,0.84,0.57,5.86,5.85,5.85
25.39,4.94,-0.92,4.93,-0.93,0.93,0.82,0.58,5.87,5.86,5.86
25.65,4.97,-0.90,4.98,-0.89,0.89,0.80,0.60,5.87,5.87,5.88
25.91,5.02,-0.85,5.03,-0.86,0.85,0.78,0.62,5.88,5.88,5.88
26.16,5.08,-0.81,5.07,-0.82,0.82,0.76,0.63,5.89,5.89,5.89
26.43,5.12,-0.77,5.12,-0.77,0.78,0.75,0.65,5.90,5.90,5.90
26.69,5.16,-0.74,5.17,-0.74,0.74,0.73,0.66,5.91,5.91,5.91
26.96,5.21,-0.71,5.21,-0.71,0.71,0.71,0.68,5.92,5.92,5.93
27.23,5.25,-0.68,5.26,-0.68,0.67,0.70,0.69,5.93,5.93,5.94
27.50,5.30,-0.64,5.30,-0.64,0.64,0.68,0.71,5.94,5.94,5.94
27.77,5.35,-0.60,5.34,-0.61,0.61,0.67,0.72,5.95,5.95,5.94
28.05,5.38,-0.58,5.38,-0.57,0.57,0.66,0.74,5.96,5.96,5.96
28.33,5.41,-0.55,5.42,-0.55,0.54,0.65,0.75,5.96,5.96,5.96
28.62,5.45,-0.52,5.46,-0.51,0.52,0.64,0.76,5.97,5.97,5.97
28.90,5.49,-0.49,5.49,-0.49,0.49,0.63,0.78,5.98,5.98,5.98
29.19,5.52,-0.45,5.53,-0.46,0.47,0.62,0.79,5.99,5.99,5.98
29.48,5.55,-0.45,5.56,-0.44,0.44,0.61,0.80,6.00,6.00,6.01
29.78,5.58,-0.42,5.58,-0.42,0.43,0.60,0.81,6.01,6.01,6.01
30.08,5.60,-0.41,5.60,-0.41,0.41,0.59,0.82,6.02,6.02,6.02
30.38,5.62,-0.39,5.62,-0.40,0.40,0.59,0.83,6.02,6.02,6.02
30.68,5.63,-0.40,5.64,-0.39,0.39,0.58,0.83,6.02,6.03,6.03
30.99,5.65,-0.38,5.65,-0.38,0.38,0.58,0.84,6.04,6.03,6.03
31.30,5.66,-0.38,5.67,-0.38,0.38,0.57,0.84,6.04,6.04,6.04
31.61,5.67,-0.38,5.68,-0.37,0.38,0.57,0.85,6.05,6.05,6.05
31.93,5.68,-0.37,5.68,-0.38,0.37,0.56,0.85,6.06,6.06,6.06
32.24,5.68,-0.37,5.69,-0.38,0.38,0.56,0.85,6.06,6.06,6.06
32.57,5.69,-0.38,5.70,-0.38,0.38,0.56,0.86,6.07,6.07,6.08
32.89,5.70,-0.38,5.70,-0.38,0.38,0.56,0.86,6.09,6.08,6.09
33.22,5.70,-0.39,5.71,-0.39,0.39,0.56,0.86,6.09,6.10,6.09
33.55,5.70,-0.40,5.71,-0.40,0.40,0.55,0.85,6.10,6.10,6.10
33.89,5.70,-0.41,5.70,-0.41,0.41,0.56,0.85,6.11,6.11,6.11
34.23,5.70,-0.41,5.70,-0.42,0.42,0.56,0.85,6.12,6.12,6.12
34.57,5.69,-0.43,5.70,-0.43,0.43,0.56,0.85,6.12,6.12,6.13
34.92,5.69,-0.43,5.69,-0.44,0.44,0.56,0.84,6.13,6.13,6.13
35.27,5.68,-0.45,5.69,-0.45,0.45,0.56,0.84,6.13,6.13,6.13
35.62,5.68,-0.46,5.68,-0.46,0.46,0.57,0.83,6.14,6.14,6.14
35.97,5.67,-0.46,5.67,-0.47,0.47,0.57,0.83,6.14,6.14,6.14
36.33,5.66,-0.48,5.67,-0.48,0.48,0.57,0.82,6.14,6.15,6.15
36.70,5.66,-0.48,5.66,-0.49,0.49,0.58,0.82,6.15,6.15,6.14
37.06,5.65,-0.50,5.66,-0.50,0.50,0.58,0.81,6.15,6.15,6.15
37.43,5.64,-0.52,5.65,-0.51,0.51,0.59,0.81,6.16,6.16,6.16
37.81,5.63,-0.52,5.63,-0.53,0.52,0.60,0.80,6.16,6.16,6.16
38.19,5.61,-0.54,5.62,-0.54,0.54,0.60,0.80,6.15,6.15,6.15
38.57,5.60,-0.55,5.60,-0.55,0.55,0.61,0.79,6.15,6.15,6.15
38.95,5.58,-0.56,5.59,-0.56,0.56,0.62,0.79,6.15,6.15,6.15
39.34,5.57,-0.57,5.57,-0.57,0.58,0.63,0.78,6.15,6.15,6.15
39.74,5.55,-0.59,5.56,-0.59,0.59,0.64,0.78,6.14,6.15,6.14
40.14,5.54,-0.60,5.54,-0.60,0.60,0.65,0.77,6.15,6.14,6.15
40.54,5.52,-0.62,5.53,-0.62,0.62,0.66,0.77,6.14,6.14,6.15
40.94,5.51,-0.63,5.52,-0.63,0.63,0.67,0.77,6.14,6.15,6.14
41.35,5.50,-0.63,5.50,-0.64,0.64,0.68,0.77,6.15,6.15,6.14
41.76,5.49,-0.65,5.49,-0.65,0.66,0.69,0.76,6.15,6.15,6.15
42.18,5.47,-0.68,5.48,-0.67,0.67,0.70,0.76,6.14,6.15,6.15
42.60,5.46,-0.68,5.47,-0.69,0.68,0.71,0.76,6.14,6.14,6.15
43.03,5.45,-0.70,5.45,-0.70,0.69,0.73,0.76,6.14,6.14,6.15
43.46,5.44,-0.70,5.44,-0.70,0.70,0.74,0.76,6.14,6.14,6.15
43.90,5.43,-0.70,5.44,-0.71,0.71,0.75,0.76,6.14,6.14,6.13
44.33,5.42,-0.72,5.42,-0.71,0.72,0.76,0.76,6.14,6.14,6.14
44.78,5.41,-0.72,5.41,-0.72,0.73,0.78,0.77,6.14,6.14,6.13
45.23,5.39,-0.73,5.40,-0.73,0.74,0.79,0.77,6.13,6.14,6.13
45.68,5.38,-0.75,5.38,-0.75,0.75,0.80,0.77,6.14,6.14,6.13
46.13,5.36,-0.76,5.37,-0.77,0.77,0.81,0.78,6.13,6.14,6.13
46.60,5.35,-0.79,5.35,-0.78,0.79,0.82,0.78,6.14,6.14,6.14
47.06,5.33,-0.80,5.33,-0.81,0.80,0.84,0.78,6.14,6.13,6.14
47.53,5.31,-0.82,5.32,-0.82,0.82,0.85,0.79,6.13,6.13,6.13
48.01,5.29,-0.85,5.30,-0.84,0.83,0.86,0.80,6.13,6.13,6.14
48.49,5.28,-0.84,5.28,-0.85,0.84,0.87,0.80,6.13,6.13,6.13
48.97,5.26,-0.85,5.26,-0.85,0.85,0.88,0.81,6.12,6.12,6.11
49.46,5.24,-0.86,5.25,-0.86,0.86,0.88,0.82,6.11,6.11,6.10
49.96,5.22,-0.86,5.23,-0.87,0.87,0.89,0.82,6.09,6.09,6.09
50.46,5.21,-0.87,5.21,-0.87,0.87,0.89,0.83,6.08,6.08,6.09
50.96,5.19,-0.89,5.20,-0.88,0.87,0.90,0.84,6.07,6.07,6.08
51.47,5.18,-0.87,5.19,-0.88,0.88,0.90,0.85,6.06,6.06,6.05
51.99,5.17,-0.87,5.17,-0.87,0.88,0.90,0.86,6.05,6.05,6.04
52.51,5.16,-0.88,5.17,-0.87,0.88,0.91,0.86,6.04,6.04,6.05
53.03,5.15,-0.87,5.15,-0.88,0.88,0.90,0.87,6.04,6.03,6.03
53.56,5.13,-0.88,5.13,-0.88,0.88,0.90,0.88,6.02,6.02,6.02
54.10,5.11,-0.88,5.12,-0.89,0.88,0.90,0.89,6.00,6.00,6.00
54.64,5.09,-0.89,5.10,-0.88,0.88,0.90,0.90,5.98,5.98,5.99
55.18,5.08,-0.88,5.08,-0.88,0.88,0.89,0.90,5.97,5.97,5.97
55.74,5.07,-0.87,5.07,-0.88,0.88,0.88,0.91,5.96,5.95,5.95
56.29,5.05,-0.89,5.06,-0.88,0.88,0.88,0.92,5.93,5.94,5.95
56.86,5.04,-0.88,5.05,-0.88,0.88,0.87,0.92,5.92,5.92,5.92
57.42,5.03,-0.87,5.03,-0.87,0.87,0.86,0.93,5.91,5.91,5.90
58.00,5.02,-0.86,5.03,-0.86,0.87,0.85,0.93,5.90,5.90,5.89
58.58,5.01,-0.86,5.02,-0.86,0.87,0.84,0.94,5.88,5.88,5.88
59.16,5.00,-0.86,5.00,-0.86,0.86,0.83,0.94,5.87,5.87,5.86
59.76,4.98,-0.86,4.99,-0.86,0.86,0.81,0.94,5.84,5.84,5.85
60.35,4.96,-0.86,4.97,-0.86,0.85,0.80,0.94,5.81,5.82,5.83
60.96,4.95,-0.85,4.95,-0.85,0.84,0.79,0.94,5.79,5.79,5.80
61.57,4.93,-0.83,4.94,-0.83,0.82,0.78,0.94,5.76,5.76,5.77
62.18,4.92,-0.81,4.93,-0.81,0.81,0.77,0.94,5.73,5.73,5.73
62.80,4.91,-0.80,4.92,-0.79,0.79,0.75,0.94,5.70,5.71,5.71
63.43,4.91,-0.76,4.91,-0.77,0.77,0.74,0.93,5.69,5.68,5.68
64.07,4.90,-0.75,4.91,-0.75,0.76,0.73,0.93,5.66,5.66,5.65
64.71,4.89,-0.73,4.89,-0.73,0.74,0.72,0.92,5.64,5.63,5.62
65.35,4.87,-0.72,4.87,-0.73,0.73,0.71,0.91,5.61,5.60,5.60
66.01,4.84,-0.72,4.85,-0.72,0.72,0.70,0.90,5.57,5.57,5.57
66.67,4.81,-0.73,4.82,-0.73,0.72,0.69,0.89,5.53,5.54,5.55
67.33,4.79,-0.72,4.79,-0.73,0.72,0.68,0.88,5.51,5.51,5.52
68.01,4.76,-0.72,4.76,-0.72,0.72,0.67,0.87,5.49,5.49,5.49
68.69,4.73,-0.72,4.73,-0.72,0.73,0.66,0.86,5.46,5.46,5.46
69.37,4.69,-0.73,4.69,-0.73,0.74,0.65,0.85,5.43,5.43,5.43
70.07,4.65,-0.74,4.66,-0.74,0.74,0.65,0.83,5.40,5.40,5.39
70.77,4.61,-0.76,4.62,-0.75,0.75,0.64,0.82,5.37,5.37,5.37
71.48,4.58,-0.76,4.58,-0.76,0.76,0.64,0.81,5.35,5.34,5.35
72.19,4.54,-0.77,4.55,-0.77,0.77,0.63,0.79,5.31,5.31,5.32
72.91,4.51,-0.78,4.51,-0.78,0.77,0.63,0.77,5.29,5.29,5.29
73.64,4.48,-0.78,4.49,-0.78,0.78,0.63,0.76,5.26,5.26,5.27
74.38,4.46,-0.79,4.46,-0.78,0.78,0.63,0.74,5.25,5.24,5.25
75.12,4.44,-0.78,4.44,-0.78,0.78,0.63,0.73,5.23,5.23,5.23
75.87,4.42,-0.78,4.43,-0.78,0.79,0.63,0.71,5.21,5.21,5.21
76.63,4.41,-0.78,4.41,-0.78,0.79,0.64,0.70,5.20,5.20,5.19
77.40,4.39,-0.78,4.39,-0.78,0.79,0.64,0.68,5.19,5.18,5.17
78.17,4.36,-0.79,4.37,-0.79,0.79,0.65,0.67,5.16,5.16,5.16
78.95,4.34,-0.80,4.35,-0.80,0.80,0.66,0.65,5.14,5.14,5.15
79.74,4.33,-0.80,4.33,-0.80,0.79,0.66,0.64,5.13,5.13,5.14
80.54,4.32,-0.80,4.32,-0.80,0.79,0.67,0.62,5.11,5.11,5.13
81.35,4.32,-0.79,4.32,-0.79,0.78,0.69,0.61,5.10,5.10,5.12
82.16,4.32,-0.78,4.33,-0.78,0.77,0.70,0.59,5.09,5.10,5.10
82.98,4.34,-0.76,4.34,-0.76,0.76,0.71,0.58,5.10,5.10,5.10
83.81,4.35,-0.74,4.35,-0.74,0.75,0.73,0.57,5.10,5.10,5.09
84.65,4.35,-0.72,4.36,-0.73,0.74,0.75,0.55,5.10,5.10,5.08
85.50,4.35,-0.73,4.35,-0.73,0.74,0.76,0.54,5.10,5.09,5.08
86.35,4.33,-0.75,4.34,-0.74,0.75,0.78,0.53,5.08,5.09,5.08
87.22,4.31,-0.76,4.32,-0.76,0.76,0.80,0.52,5.08,5.08,5.08
88.09,4.29,-0.78,4.29,-0.79,0.78,0.82,0.50,5.07,5.07,5.07
88.97,4.26,-0.81,4.27,-0.81,0.80,0.85,0.49,5.07,5.07,5.08
89.86,4.23,-0.85,4.24,-0.83,0.83,0.87,0.48,5.07,5.07,5.08
90.76,4.21,-0.85,4.21,-0.86,0.86,0.89,0.47,5.08,5.07,5.06
91.66,4.17,-0.89,4.18,-0.89,0.89,0.91,0.46,5.07,5.07,5.07
92.58,4.14,-0.92,4.15,-0.92,0.92,0.93,0.45,5.07,5.07,5.06
93.51,4.11,-0.96,4.11,-0.96,0.95,0.94,0.44,5.07,5.07,5.07
94.44,4.08,-0.98,4.08,-0.98,0.98,0.96,0.44,5.06,5.06,5.07
95.39,4.05,-1.01,4.06,-1.01,1.00,0.97,0.43,5.05,5.06,5.07
96.34,4.03,-1.01,4.03,-1.02,1.01,0.98,0.42,5.05,5.05,5.05
97.30,4.01,-1.03,4.02,-1.03,1.02,0.98,0.41,5.04,5.04,5.04
98.28,4.00,-1.03,4.00,-1.03,1.03,0.98,0.40,5.03,5.03,5.03
99.26,3.99,-1.03,4.00,-1.03,1.02,0.98,0.40,5.02,5.02,5.02
100.25,3.99,-1.02,4.00,-1.02,1.01,0.97,0.39,5.01,5.01,5.01
101.25,4.00,-1.00,4.00,-1.00,1.00,0.95,0.38,5.00,5.00,5.01
102.27,4.01,-0.97,4.01,-0.98,0.98,0.94,0.38,5.00,4.99,4.99
103.29,4.01,-0.95,4.02,-0.96,0.96,0.91,0.37,4.98,4.98,4.97
104.32,4.01,-0.94,4.02,-0.94,0.94,0.88,0.36,4.96,4.96,4.96
105.37,4.01,-0.92,4.01,-0.92,0.92,0.85,0.36,4.93,4.93,4.94
106.42,4.01,-0.89,4.01,-0.90,0.89,0.82,0.35,4.91,4.91,4.91
107.48,4.01,-0.87,4.01,-0.87,0.87,0.78,0.34,4.88,4.88,4.89
108.56,4.01,-0.84,4.01,-0.84,0.84,0.74,0.34,4.85,4.85,4.85
109.64,4.01,-0.81,4.01,-0.81,0.81,0.70,0.33,4.82,4.82,4.82
110.74,4.01,-0.78,4.01,-0.77,0.77,0.66,0.32,4.79,4.79,4.79
111.85,4.01,-0.74,4.01,-0.74,0.73,0.62,0.31,4.75,4.75,4.75
112.97,4.01,-0.69,4.01,-0.70,0.69,0.58,0.31,4.71,4.71,4.70
114.10,4.01,-0.66,4.01,-0.65,0.65,0.53,0.30,4.67,4.67,4.68
115.24,4.01,-0.61,4.01,-0.61,0.61,0.49,0.29,4.62,4.62,4.63
116.39,4.01,-0.56,4.01,-0.57,0.57,0.45,0.28,4.58,4.58,4.58
117.55,4.01,-0.53,4.01,-0.52,0.53,0.41,0.27,4.54,4.54,4.54
118.73,4.01,-0.48,4.02,-0.48,0.49,0.37,0.26,4.50,4.51,4.49
119.92,4.01,-0.45,4.02,-0.44,0.46,0.33,0.25,4.47,4.47,4.47
121.12,4.01,-0.41,4.01,-0.41,0.42,0.29,0.24,4.44,4.43,4.42
122.33,4.00,-0.38,4.00,-0.38,0.39,0.25,0.22,4.39,4.39,4.38
123.55,3.99,-0.36,4.00,-0.36,0.35,0.22,0.21,4.35,4.35,4.36
124.79,3.99,-0.33,3.99,-0.33,0.32,0.18,0.20,4.31,4.31,4.32
126.03,3.99,-0.29,4.00,-0.29,0.28,0.14,0.18,4.27,4.27,4.29
127.29,4.00,-0.25,4.01,-0.24,0.24,0.11,0.17,4.24,4.24,4.25
128.57,4.02,-0.18,4.03,-0.19,0.19,0.07,0.15,4.21,4.21,4.21
129.85,4.05,-0.13,4.05,-0.13,0.14,0.04,0.13,4.19,4.19,4.19
131.15,4.08,-0.07,4.08,-0.07,0.08,0.01,0.11,4.16,4.16,4.15
132.46,4.10,-0.03,4.11,-0.02,0.02,-0.03,0.09,4.12,4.13,4.13
133.79,4.14,0.04,4.14,0.04,-0.04,-0.06,0.08,4.10,4.10,4.11
135.12,4.18,0.11,4.18,0.10,-0.11,-0.09,0.05,4.08,4.08,4.08
136.48,4.21,0.16,4.22,0.16,-0.17,-0.13,0.03,4.05,4.05,4.06
137.84,4.25,0.23,4.25,0.23,-0.22,-0.16,0.01,4.03,4.03,4.03
139.22,4.27,0.28,4.28,0.28,-0.28,-0.19,-0.01,4.00,4.00,4.00
140.61,4.30,0.34,4.31,0.33,-0.33,-0.23,-0.04,3.98,3.98,3.97
142.02,4.33,0.38,4.33,0.37,-0.37,-0.26,-0.06,3.96,3.96,3.96
143.44,4.34,0.40,4.35,0.42,-0.41,-0.30,-0.08,3.94,3.94,3.94
144.87,4.36,0.45,4.36,0.45,-0.44,-0.33,-0.11,3.92,3.92,3.91
146.32,4.36,0.48,4.36,0.47,-0.47,-0.37,-0.14,3.89,3.89,3.89
147.78,4.35,0.48,4.36,0.49,-0.49,-0.40,-0.16,3.86,3.87,3.87
149.26,4.35,0.51,4.35,0.52,-0.52,-0.44,-0.19,3.84,3.84,3.84
150.75,4.34,0.55,4.34,0.53,-0.54,-0.48,-0.22,3.81,3.81,3.80
152.26,4.33,0.56,4.34,0.56,-0.56,-0.52,-0.25,3.78,3.78,3.77
153.78,4.32,0.57,4.33,0.58,-0.58,-0.56,-0.28,3.74,3.74,3.75
155.32,4.32,0.62,4.32,0.60,-0.61,-0.60,-0.31,3.71,3.71,3.71
156.88,4.31,0.63,4.32,0.64,-0.64,-0.65,-0.34,3.67,3.68,3.69
158.44,4.32,0.67,4.32,0.68,-0.68,-0.69,-0.37,3.64,3.64,3.65
160.03,4.33,0.72,4.33,0.72,-0.73,-0.74,-0.40,3.61,3.61,3.61
161.63,4.35,0.78,4.36,0.78,-0.78,-0.79,-0.43,3.58,3.58,3.57
163.24,4.37,0.83,4.38,0.84,-0.84,-0.84,-0.46,3.54,3.54,3.54
164.88,4.41,0.90,4.41,0.90,-0.90,-0.89,-0.50,3.52,3.51,3.51
166.53,4.43,0.96,4.44,0.96,-0.97,-0.94,-0.53,3.47,3.47,3.47
168.19,4.46,1.03,4.47,1.03,-1.04,-1.00,-0.57,3.43,3.43,3.43
169.87,4.50,1.11,4.50,1.11,-1.11,-1.06,-0.60,3.40,3.39,3.39
171.57,4.53,1.18,4.53,1.18,-1.18,-1.12,-0.64,3.35,3.35,3.36
173.29,4.56,1.25,4.57,1.26,-1.26,-1.18,-0.68,3.31,3.31,3.31
175.02,4.60,1.33,4.60,1.34,-1.33,-1.25,-0.71,3.27,3.27,3.27
176.77,4.63,1.42,4.63,1.41,-1.41,-1.32,-0.75,3.23,3.23,3.22
178.54,4.65,1.48,4.65,1.48,-1.47,-1.39,-0.79,3.18,3.18,3.17
180.32,4.66,1.54,4.67,1.54,-1.54,-1.46,-0.83,3.13,3.13,3.13
182.13,4.68,1.60,4.68,1.60,-1.60,-1.53,-0.87,3.09,3.08,3.08
183.95,4.68,1.66,4.69,1.66,-1.65,-1.60,-0.91,3.03,3.03,3.03
185.79,4.68,1.70,4.68,1.70,-1.70,-1.68,-0.95,2.98,2.98,2.98
187.65,4.67,1.75,4.67,1.75,-1.75,-1.75,-0.99,2.93,2.93,2.92
189.52,4.66,1.79,4.67,1.79,-1.79,-1.83,-1.03,2.87,2.88,2.88
191.42,4.66,1.83,4.66,1.83,-1.84,-1.90,-1.07,2.83,2.83,2.84
193.33,4.66,1.87,4.66,1.87,-1.88,-1.98,-1.12,2.79,2.78,2.79
195.27,4.66,1.91,4.66,1.92,-1.92,-2.05,-1.16,2.74,2.74,2.75
197.22,4.66,1.96,4.66,1.97,-1.96,-2.12,-1.20,2.70,2.70,2.70
199.19,4.66,2.02,4.66,2.01,-2.01,-2.18,-1.25,2.66,2.66,2.65
201.18,4.66,2.06,4.66,2.06,-2.05,-2.24,-1.29,2.62,2.62,2.61
203.19,4.66,2.09,4.66,2.09,-2.09,-2.29,-1.33,2.57,2.57,2.58
205.23,4.66,2.14,4.67,2.13,-2.14,-2.34,-1.38,2.53,2.53,2.53
207.28,4.66,2.16,4.67,2.17,-2.18,-2.37,-1.42,2.49,2.49,2.51
209.35,4.67,2.21,4.67,2.22,-2.22,-2.40,-1.46,2.46,2.45,2.46
211.44,4.67,2.26,4.68,2.26,-2.26,-2.42,-1.50,2.42,2.42,2.41
213.56,4.68,2.30,4.68,2.30,-2.29,-2.43,-1.54,2.39,2.39,2.38
215.69,4.68,2.32,4.68,2.33,-2.33,-2.43,-1.58,2.36,2.36,2.36
217.85,4.67,2.35,4.68,2.35,-2.35,-2.42,-1.62,2.32,2.32,2.33
220.03,4.66,2.38,4.67,2.37,-2.37,-2.40,-1.66,2.29,2.29,2.29
222.23,4.65,2.39,4.66,2.39,-2.39,-2.37,-1.69,2.27,2.27,2.26
224.45,4.64,2.40,4.64,2.40,-2.39,-2.33,-1.73,2.25,2.25,2.24
226.70,4.61,2.39,4.61,2.39,-2.39,-2.29,-1.76,2.23,2.22,2.23
228.96,4.57,2.37,4.58,2.38,-2.37,-2.23,-1.78,2.20,2.21,2.20
231.25,4.54,2.35,4.54,2.35,-2.35,-2.18,-1.81,2.19,2.19,2.19
233.57,4.50,2.33,4.50,2.32,-2.32,-2.11,-1.83,2.19,2.18,2.18
235.90,4.43,2.27,4.44,2.28,-2.28,-2.05,-1.85,2.16,2.17,2.16
238.26,4.38,2.23,4.38,2.23,-2.22,-1.98,-1.87,2.16,2.16,2.16
240.64,4.31,2.16,4.32,2.17,-2.16,-1.90,-1.88,2.15,2.16,2.15
243.05,4.25,2.10,4.25,2.10,-2.09,-1.83,-1.89,2.16,2.15,2.16
245.48,4.17,2.02,4.17,2.02,-2.02,-1.76,-1.89,2.15,2.15,2.15
247.93,4.07,1.92,4.09,1.94,-1.94,-1.68,-1.90,2.13,2.15,2.15
250.41,4.01,1.86,4.00,1.85,-1.86,-1.61,-1.89,2.15,2.14,2.15
252.92,3.92,1.76,3.93,1.77,-1.77,-1.54,-1.89,2.15,2.16,2.17
255.45,3.85,1.67,3.86,1.68,-1.68,-1.46,-1.88,2.17,2.18,2.18
258.00,3.79,1.61,3.78,1.59,-1.59,-1.39,-1.86,2.21,2.20,2.19
260.58,3.69,1.50,3.70,1.50,-1.49,-1.33,-1.85,2.21,2.21,2.19
263.19,3.60,1.40,3.60,1.40,-1.39,-1.26,-1.83,2.22,2.21,2.21
265.82,3.49,1.28,3.51,1.28,-1.29,-1.20,-1.80,2.21,2.22,2.22
268.48,3.41,1.17,3.42,1.18,-1.18,-1.14,-1.77,2.23,2.23,2.24
271.16,3.33,1.08,3.32,1.07,-1.08,-1.08,-1.74,2.26,2.25,2.26
273.87,3.23,0.97,3.24,0.97,-0.97,-1.02,-1.71,2.26,2.27,2.26
276.61,3.14,0.85,3.15,0.86,-0.87,-0.97,-1.67,2.28,2.28,2.29
279.38,3.06,0.77,3.07,0.77,-0.76,-0.92,-1.64,2.30,2.30,2.30
282.17,2.98,0.67,2.98,0.67,-0.66,-0.87,-1.60,2.32,2.32,2.32
284.99,2.91,0.58,2.90,0.57,-0.56,-0.82,-1.55,2.35,2.34,2.33
287.84,2.80,0.47,2.82,0.47,-0.47,-0.78,-1.51,2.33,2.35,2.34
290.72,2.73,0.38,2.74,0.38,-0.38,-0.73,-1.46,2.35,2.35,2.36
293.63,2.66,0.29,2.66,0.29,-0.30,-0.69,-1.41,2.37,2.36,2.37
296.57,2.60,0.21,2.60,0.22,-0.22,-0.65,-1.37,2.38,2.38,2.39
299.53,2.54,0.15,2.55,0.15,-0.15,-0.61,-1.32,2.39,2.40,2.40
302.53,2.50,0.10,2.50,0.09,-0.09,-0.58,-1.27,2.41,2.41,2.41
305.55,2.46,0.03,2.46,0.04,-0.04,-0.54,-1.22,2.43,2.43,2.43
308.61,2.43,-0.01,2.44,-0.01,0.01,-0.51,-1.16,2.44,2.44,2.44
311.69,2.41,-0.04,2.42,-0.04,0.04,-0.48,-1.11,2.46,2.46,2.45
314.81,2.40,-0.07,2.40,-0.07,0.07,-0.45,-1.06,2.47,2.47,2.48
317.96,2.38,-0.09,2.39,-0.09,0.09,-0.42,-1.01,2.48,2.48,2.48
321.14,2.37,-0.11,2.37,-0.11,0.10,-0.39,-0.96,2.48,2.48,2.48
324.35,2.36,-0.12,2.37,-0.12,0.11,-0.36,-0.90,2.48,2.48,2.48
327.59,2.37,-0.13,2.37,-0.12,0.12,-0.33,-0.85,2.49,2.49,2.50
330.87,2.38,-0.12,2.38,-0.12,0.12,-0.31,-0.80,2.50,2.50,2.50
334.18,2.39,-0.10,2.39,-0.11,0.12,-0.28,-0.75,2.52,2.51,2.50
337.52,2.39,-0.11,2.40,-0.11,0.12,-0.26,-0.70,2.52,2.52,2.51
340.90,2.39,-0.12,2.40,-0.12,0.13,-0.24,-0.65,2.52,2.52,2.52
344.30,2.39,-0.12,2.39,-0.12,0.13,-0.21,-0.60,2.52,2.52,2.51
347.75,2.38,-0.13,2.38,-0.13,0.13,-0.19,-0.55,2.51,2.51,2.51
351.23,2.37,-0.14,2.38,-0.13,0.13,-0.17,-0.50,2.50,2.51,2.51
354.74,2.37,-0.14,2.37,-0.13,0.13,-0.15,-0.45,2.50,2.50,2.51
358.28,2.37,-0.12,2.38,-0.13,0.12,-0.13,-0.40,2.50,2.50,2.50
361.87,2.38,-0.11,2.39,-0.11,0.11,-0.11,-0.35,2.49,2.50,2.50
365.49,2.40,-0.09,2.40,-0.09,0.09,-0.09,-0.31,2.50,2.50,2.50
369.14,2.42,-0.06,2.42,-0.07,0.07,-0.07,-0.26,2.50,2.49,2.49
372.83,2.43,-0.05,2.44,-0.04,0.05,-0.05,-0.21,2.48,2.48,2.48
376.56,2.46,-0.01,2.46,-0.02,0.01,-0.03,-0.17,2.48,2.47,2.47
380.33,2.48,0.01,2.49,0.02,-0.02,-0.01,-0.12,2.46,2.46,2.47
384.13,2.52,0.06,2.52,0.06,-0.07,0.00,-0.07,2.46,2.46,2.46
387.97,2.56,0.11,2.57,0.11,-0.12,0.02,-0.03,2.45,2.45,2.45
391.85,2.61,0.17,2.61,0.17,-0.17,0.04,0.02,2.45,2.44,2.44
395.77,2.66,0.21,2.66,0.22,-0.23,0.06,0.06,2.44,2.44,2.45
399.73,2.71,0.28,2.72,0.28,-0.28,0.08,0.10,2.43,2.43,2.44
403.72,2.77,0.35,2.77,0.34,-0.34,0.09,0.15,2.43,2.43,2.43
407.76,2.82,0.41,2.83,0.41,-0.40,0.11,0.19,2.43,2.43,2.42
411.84,2.88,0.46,2.88,0.46,-0.45,0.13,0.23,2.44,2.43,2.43
415.96,2.92,0.51,2.92,0.50,-0.49,0.15,0.27,2.43,2.43,2.42
420.12,2.95,0.54,2.96,0.54,-0.54,0.17,0.32,2.42,2.42,2.42
424.32,2.98,0.57,2.98,0.57,-0.57,0.19,0.36,2.41,2.40,2.42
428.56,2.99,0.59,3.00,0.60,-0.61,0.20,0.40,2.39,2.40,2.40
432.85,3.02,0.62,3.03,0.62,-0.63,0.22,0.44,2.39,2.40,2.40
437.18,3.05,0.65,3.05,0.65,-0.65,0.24,0.48,2.41,2.40,2.40
441.55,3.07,0.66,3.07,0.67,-0.66,0.26,0.51,2.42,2.42,2.41
445.96,3.08,0.67,3.08,0.67,-0.66,0.28,0.55,2.42,2.42,2.41
450.42,3.07,0.67,3.07,0.66,-0.66,0.30,0.59,2.42,2.41,2.40
454.93,3.05,0.64,3.06,0.65,-0.65,0.32,0.62,2.41,2.41,2.41
459.48,3.03,0.62,3.04,0.62,-0.63,0.34,0.66,2.41,2.41,2.41
464.07,3.01,0.59,3.01,0.59,-0.60,0.37,0.69,2.42,2.41,2.42
468.71,2.97,0.54,2.98,0.55,-0.55,0.39,0.73,2.42,2.42,2.43
473.40,2.93,0.50,2.94,0.50,-0.50,0.41,0.76,2.43,2.43,2.43
478.13,2.88,0.44,2.88,0.45,-0.44,0.44,0.79,2.44,2.44,2.44
482.91,2.82,0.39,2.82,0.38,-0.37,0.46,0.82,2.45,2.45,2.44
487.74,2.74,0.30,2.75,0.30,-0.29,0.49,0.85,2.45,2.46,2.45
492.62,2.66,0.21,2.66,0.21,-0.20,0.52,0.87,2.46,2.46,2.46
497.55,2.56,0.11,2.57,0.10,-0.11,0.55,0.90,2.46,2.46,2.46
502.52,2.46,-0.00,2.46,-0.00,-0.00,0.58,0.92,2.46,2.46,2.47
507.55,2.35,-0.11,2.36,-0.11,0.11,0.61,0.95,2.46,2.46,2.47
512.62,2.24,-0.22,2.24,-0.23,0.23,0.64,0.97,2.47,2.47,2.47
517.75,2.12,-0.35,2.12,-0.35,0.35,0.68,0.99,2.47,2.47,2.48
522.93,2.00,-0.47,2.01,-0.47,0.47,0.71,1.02,2.48,2.48,2.48
528.16,1.87,-0.60,1.88,-0.60,0.60,0.75,1.04,2.48,2.48,2.48
533.44,1.75,-0.72,1.75,-0.73,0.74,0.79,1.06,2.49,2.48,2.48
538.77,1.60,-0.87,1.61,-0.87,0.87,0.84,1.07,2.47,2.48,2.48
544.16,1.46,-1.01,1.47,-1.01,1.00,0.88,1.09,2.47,2.48,2.48
549.60,1.33,-1.14,1.33,-1.14,1.14,0.94,1.11,2.47,2.47,2.48
555.10,1.19,-1.27,1.19,-1.28,1.27,0.99,1.13,2.47,2.47,2.47
560.65,1.05,-1.41,1.06,-1.41,1.40,1.05,1.15,2.46,2.46,2.47
566.25,0.93,-1.54,0.93,-1.54,1.53,1.11,1.16,2.47,2.46,2.48
