frequency,raw
20.00,-11.10
20.20,-11.00
20.40,-10.90
20.61,-10.80
20.81,-10.70
21.02,-10.60
21.23,-10.50
21.44,-10.39
21.66,-10.29
21.87,-10.19
22.09,-10.09
22.31,-9.98
22.54,-9.88
22.76,-9.77
22.99,-9.66
23.22,-9.56
23.45,-9.45
23.69,-9.34
23.92,-9.23
24.16,-9.13
24.40,-9.02
24.65,-8.91
24.89,-8.80
25.14,-8.69
25.39,-8.58
25.65,-8.47
25.91,-8.36
26.16,-8.25
26.43,-8.13
26.69,-8.02
26.96,-7.91
27.23,-7.80
27.50,-7.68
27.77,-7.57
28.05,-7.46
28.33,-7.35
28.62,-7.23
28.90,-7.12
29.19,-7.00
29.48,-6.89
29.78,-6.78
30.08,-6.66
30.38,-6.54
30.68,-6.42
30.99,-6.30
31.30,-6.18
31.61,-6.07
31.93,-5.96
32.24,-5.84
32.57,-5.72
32.89,-5.61
33.22,-5.49
33.55,-5.37
33.89,-5.25
34.23,-5.14
34.57,-5.03
34.92,-4.92
35.27,-4.81
35.62,-4.70
35.97,-4.59
36.33,-4.49
36.70,-4.38
37.06,-4.28
37.43,-4.19
37.81,-4.10
38.19,-4.00
38.57,-3.91
38.95,-3.82
39.34,-3.73
39.74,-3.65
40.14,-3.56
40.54,-3.48
40.94,-3.40
41.35,-3.32
41.76,-3.24
42.18,-3.16
42.60,-3.08
43.03,-3.01
43.46,-2.94
43.90,-2.87
44.33,-2.80
44.78,-2.73
45.23,-2.66
45.68,-2.59
46.13,-2.53
46.60,-2.47
47.06,-2.40
47.53,-2.34
48.01,-2.27
48.49,-2.21
48.97,-2.14
49.46,-2.08
49.96,-2.03
50.46,-1.97
50.96,-1.91
51.47,-1.86
51.99,-1.80
52.51,-1.75
53.03,-1.71
53.56,-1.66
54.10,-1.61
54.64,-1.56
55.18,-1.50
55.74,-1.45
56.29,-1.39
56.86,-1.34
57.42,-1.29
58.00,-1.23
58.58,-1.18
59.16,-1.12
59.76,-1.06
60.35,-1.01
60.96,-0.95
61.57,-0.90
62.18,-0.85
62.80,-0.80
63.43,-0.74
64.07,-0.69
64.71,-0.64
65.35,-0.59
66.01,-0.54
66.67,-0.47
67.33,-0.41
68.01,-0.36
68.69,-0.30
69.37,-0.25
70.07,-0.19
70.77,-0.13
71.48,-0.07
72.19,-0.01
72.91,0.04
73.64,0.12
74.38,0.20
75.12,0.27
75.87,0.34
76.63,0.41
77.40,0.48
78.17,0.55
78.95,0.64
79.74,0.71
80.54,0.78
81.35,0.85
82.16,0.91
82.98,0.98
83.81,1.04
84.65,1.10
85.50,1.15
86.35,1.21
87.22,1.26
88.09,1.30
88.97,1.35
89.86,1.40
90.76,1.46
91.66,1.50
92.58,1.55
93.51,1.60
94.44,1.65
95.39,1.70
96.34,1.76
97.30,1.82
98.28,1.89
99.26,1.95
100.25,2.01
101.25,2.07
102.27,2.12
103.29,2.15
104.32,2.19
105.37,2.27
106.42,2.34
107.48,2.39
108.56,2.44
109.64,2.49
110.74,2.52
111.85,2.56
112.97,2.59
114.10,2.62
115.24,2.65
116.39,2.68
117.55,2.71
118.73,2.74
119.92,2.77
121.12,2.79
122.33,2.80
123.55,2.83
124.79,2.88
126.03,2.93
127.29,2.96
128.57,2.99
129.85,3.04
131.15,3.08
132.46,3.10
133.79,3.13
135.12,3.16
136.48,3.18
137.84,3.22
139.22,3.24
140.61,3.26
142.02,3.28
143.44,3.29
144.87,3.30
146.32,3.30
147.78,3.30
149.26,3.29
150.75,3.27
152.26,3.27
153.78,3.26
155.32,3.24
156.88,3.20
158.44,3.16
160.03,3.10
161.63,3.06
163.24,3.02
164.88,2.95
166.53,2.89
168.19,2.83
169.87,2.73
171.57,2.66
173.29,2.61
175.02,2.53
176.77,2.49
178.54,2.45
180.32,2.41
182.13,2.38
183.95,2.33
185.79,2.32
187.65,2.30
189.52,2.28
191.42,2.27
193.33,2.27
195.27,2.27
197.22,2.28
199.19,2.29
201.18,2.29
203.19,2.29
205.23,2.29
207.28,2.28
209.35,2.28
211.44,2.28
213.56,2.28
215.69,2.30
217.85,2.32
220.03,2.34
222.23,2.37
224.45,2.40
226.70,2.44
228.96,2.47
231.25,2.50
233.57,2.53
235.90,2.57
238.26,2.59
240.64,2.61
243.05,2.62
245.48,2.64
247.93,2.64
250.41,2.63
252.92,2.63
255.45,2.62
258.00,2.62
260.58,2.62
263.19,2.62
265.82,2.62
268.48,2.62
271.16,2.62
273.87,2.62
276.61,2.62
279.38,2.62
282.17,2.62
284.99,2.62
287.84,2.62
290.72,2.62
293.63,2.62
296.57,2.62
299.53,2.62
302.53,2.62
305.55,2.62
308.61,2.62
311.69,2.62
314.81,2.62
317.96,2.62
321.14,2.62
324.35,2.62
327.59,2.62
330.87,2.62
334.18,2.62
337.52,2.62
340.90,2.62
344.30,2.62
347.75,2.62
351.23,2.62
354.74,2.62
358.28,2.62
361.87,2.62
365.49,2.62
369.14,2.62
372.83,2.62
376.56,2.62
380.33,2.62
384.13,2.62
387.97,2.62
391.85,2.62
395.77,2.62
399.73,2.62
403.72,2.62
407.76,2.63
411.84,2.64
415.96,2.65
420.12,2.66
424.32,2.65
428.56,2.64
432.85,2.63
437.18,2.58
441.55,2.54
445.96,2.49
450.42,2.39
454.93,2.32
459.48,2.21
464.07,2.11
468.71,2.01
473.40,1.87
478.13,1.74
482.91,1.62
487.74,1.49
492.62,1.36
497.55,1.24
502.52,1.14
507.55,1.04
512.62,0.95
517.75,0.87
522.93,0.79
528.16,0.74
533.44,0.69
538.77,0.65
544.16,0.63
549.60,0.63
555.10,0.64
560.65,0.66
566.25,0.69
571.92,0.74
577.64,0.80
583.41,0.85
589.25,0.91
595.14,0.98
601.09,1.04
607.10,1.11
613.17,1.16
619.30,1.21
625.50,1.26
631.75,1.29
638.07,1.32
644.45,1.33
650.89,1.34
657.40,1.34
663.98,1.34
670.62,1.34
677.32,1.34
684.10,1.34
690.94,1.34
697.85,1.34
704.83,1.32
711.87,1.30
718.99,1.28
726.18,1.25
733.44,1.22
740.78,1.19
748.19,1.17
755.67,1.14
763.23,1.11
770.86,1.06
778.57,1.02
786.35,0.97
794.22,0.93
802.16,0.90
810.18,0.87
818.28,0.84
826.46,0.82
834.73,0.78
843.08,0.73
851.51,0.68
860.02,0.63
868.62,0.59
877.31,0.55
886.08,0.51
894.94,0.46
903.89,0.43
912.93,0.38
922.06,0.33
931.28,0.28
940.59,0.24
950.00,0.20
959.50,0.16
969.09,0.12
978.78,0.09
988.57,0.05
998.46,0.01
1008.44,-0.04
1018.53,-0.11
1028.71,-0.16
1039.00,-0.20
1049.39,-0.25
1059.88,-0.30
1070.48,-0.36
1081.19,-0.42
1092.00,-0.50
1102.92,-0.58
1113.95,-0.65
1125.09,-0.71
1136.34,-0.78
1147.70,-0.87
1159.18,-0.95
1170.77,-1.03
1182.48,-1.12
1194.30,-1.20
1206.25,-1.28
1218.31,-1.37
1230.49,-1.47
1242.80,-1.55
1255.22,-1.62
1267.78,-1.70
1280.45,-1.78
1293.26,-1.86
1306.19,-1.95
1319.25,-2.04
1332.45,-2.13
1345.77,-2.22
1359.23,-2.32
1372.82,-2.42
1386.55,-2.52
1400.41,-2.61
1414.42,-2.71
1428.56,-2.82
1442.85,-2.93
1457.28,-3.03
1471.85,-3.12
1486.57,-3.21
1501.43,-3.29
1516.45,-3.36
1531.61,-3.41
1546.93,-3.46
1562.40,-3.50
1578.02,-3.55
1593.80,-3.58
1609.74,-3.60
1625.84,-3.61
1642.10,-3.60
1658.52,-3.58
1675.10,-3.53
1691.85,-3.48
1708.77,-3.42
1725.86,-3.36
1743.12,-3.27
1760.55,-3.16
1778.15,-3.04
1795.94,-2.89
1813.90,-2.73
1832.03,-2.56
1850.36,-2.38
1868.86,-2.21
1887.55,-2.04
1906.42,-1.87
1925.49,-1.68
1944.74,-1.49
1964.19,-1.31
1983.83,-1.12
2003.67,-0.92
2023.71,-0.71
2043.94,-0.52
2064.38,-0.34
2085.03,-0.15
2105.88,0.03
2126.94,0.23
2148.20,0.43
2169.69,0.64
2191.38,0.83
2213.30,1.02
2235.43,1.21
2257.78,1.38
2280.36,1.56
2303.17,1.73
2326.20,1.90
2349.46,2.06
2372.95,2.22
2396.68,2.36
2420.65,2.49
2444.86,2.61
2469.31,2.70
2494.00,2.78
2518.94,2.85
2544.13,2.92
2569.57,2.96
2595.27,2.99
2621.22,2.98
2647.43,2.96
2673.90,2.94
2700.64,2.90
2727.65,2.85
2754.93,2.78
2782.48,2.68
2810.30,2.56
2838.40,2.42
2866.79,2.25
2895.46,2.05
2924.41,1.84
2953.65,1.59
2983.19,1.33
3013.02,1.05
3043.15,0.75
3073.58,0.44
3104.32,0.14
3135.36,-0.16
3166.72,-0.44
3198.38,-0.69
3230.37,-0.91
3262.67,-1.07
3295.30,-1.17
3328.25,-1.21
3361.53,-1.20
3395.15,-1.13
3429.10,-1.01
3463.39,-0.85
3498.03,-0.64
3533.01,-0.40
3568.34,-0.14
3604.02,0.14
3640.06,0.41
3676.46,0.68
3713.22,0.94
3750.36,1.19
3787.86,1.40
3825.74,1.58
3864.00,1.73
3902.64,1.85
3941.66,1.93
3981.08,1.97
4020.89,1.97
4061.10,1.93
4101.71,1.86
4142.73,1.74
4184.15,1.58
4226.00,1.39
4268.26,1.19
4310.94,0.97
4354.05,0.75
4397.59,0.51
4441.56,0.27
4485.98,0.05
4530.84,-0.17
4576.15,-0.36
4621.91,-0.51
4668.13,-0.63
4714.81,-0.73
4761.96,-0.78
4809.58,-0.79
4857.67,-0.75
4906.25,-0.67
4955.31,-0.56
5004.87,-0.43
5054.91,-0.28
5105.46,-0.09
5156.52,0.10
5208.08,0.30
5260.16,0.51
5312.77,0.72
5365.89,0.92
5419.55,1.12
5473.75,1.30
5528.49,1.46
5583.77,1.62
5639.61,1.77
5696.00,1.90
5752.96,2.02
5810.49,2.14
5868.60,2.26
5927.28,2.38
5986.56,2.48
6046.42,2.57
6106.89,2.67
6167.96,2.78
6229.64,2.88
6291.93,2.99
6354.85,3.09
6418.40,3.20
6482.58,3.32
6547.41,3.41
6612.88,3.48
6679.01,3.54
6745.80,3.57
6813.26,3.55
6881.39,3.52
6950.21,3.45
7019.71,3.35
7089.91,3.22
7160.81,3.07
7232.41,2.90
7304.74,2.72
7377.79,2.52
7451.56,2.30
7526.08,2.06
7601.34,1.80
7677.35,1.52
7754.13,1.22
7831.67,0.89
7909.98,0.50
7989.08,0.07
8068.98,-0.39
8149.67,-0.90
8231.16,-1.43
8313.47,-1.98
8396.61,-2.54
8480.57,-3.07
8565.38,-3.56
8651.03,-3.99
8737.54,-4.35
8824.92,-4.62
8913.17,-4.82
9002.30,-4.93
9092.32,-4.94
9183.25,-4.87
9275.08,-4.71
9367.83,-4.48
9461.51,-4.21
9556.12,-3.88
9651.68,-3.50
9748.20,-3.09
9845.68,-2.64
9944.14,-2.17
10043.58,-1.68
10144.02,-1.18
10245.46,-0.66
10347.91,-0.12
10451.39,0.41
10555.91,0.96
10661.46,1.49
10768.08,2.01
10875.76,2.48
10984.52,2.92
11094.36,3.32
11205.31,3.66
11317.36,3.94
11430.53,4.18
11544.84,4.36
11660.29,4.49
11776.89,4.60
11894.66,4.67
12013.60,4.70
12133.74,4.68
12255.08,4.65
12377.63,4.59
12501.41,4.50
12626.42,4.37
12752.68,4.19
12880.21,3.97
13009.01,3.70
13139.10,3.36
13270.49,2.94
13403.20,2.44
13537.23,1.87
13672.60,1.23
13809.33,0.52
13947.42,-0.26
14086.90,-1.09
14227.77,-1.96
14370.04,-2.84
14513.74,-3.74
14658.88,-4.62
14805.47,-5.49
14953.52,-6.31
15103.06,-7.09
15254.09,-7.83
15406.63,-8.51
15560.70,-9.13
15716.30,-9.70
15873.47,-10.20
16032.20,-10.66
16192.52,-11.07
16354.45,-11.43
16517.99,-11.77
16683.17,-12.08
16850.01,-12.38
17018.51,-12.69
17188.69,-13.01
17360.58,-13.35
17534.18,-13.73
17709.53,-14.18
17886.62,-14.67
18065.49,-15.21
18246.14,-15.76
18428.60,-16.35
18612.89,-16.98
18799.02,-17.64
18987.01,-18.33
19176.88,-19.06
19368.65,-19.83
19562.33,-20.62
19757.96,-21.46
19955.54,-22.33
