frequency,raw,error,smoothed,error_smoothed,equalization,parametric_eq,fixed_band_eq,equalized_raw,equalized_smoothed,target
20.00,-6.21,-8.22,-6.21,-8.22,6.00,5.52,1.89,-0.21,-0.21,2.01
20.20,-6.12,-8.17,-6.12,-8.17,6.00,5.48,1.95,-0.12,-0.12,2.05
20.40,-6.02,-8.10,-6.03,-8.11,6.00,5.45,2.00,-0.02,-0.03,2.08
20.61,-5.93,-8.04,-5.93,-8.05,6.00,5.41,2.07,0.07,0.07,2.11
20.81,-5.83,-7.98,-5.84,-7.99,6.00,5.37,2.13,0.17,0.16,2.15
21.02,-5.74,-7.93,-5.72,-7.90,6.00,5.34,2.19,0.26,0.28,2.19
21.23,-5.59,-7.79,-5.59,-7.80,6.00,5.30,2.25,0.41,0.41,2.20
21.44,-5.44,-7.66,-5.45,-7.67,6.00,5.26,2.32,0.56,0.55,2.22
21.66,-5.29,-7.53,-5.29,-7.52,6.00,5.23,2.39,0.71,0.71,2.24
21.87,-5.14,-7.39,-5.14,-7.39,6.00,5.19,2.46,0.86,0.86,2.25
22.09,-5.00,-7.27,-5.01,-7.27,6.00,5.15,2.53,1.00,0.99,2.27
22.31,-4.89,-7.16,-4.89,-7.16,6.00,5.11,2.61,1.11,1.11,2.27
22.54,-4.78,-7.06,-4.78,-7.06,6.00,5.08,2.68,1.22,1.22,2.28
22.76,-4.67,-6.95,-4.68,-6.96,6.00,5.04,2.76,1.33,1.32,2.28
22.99,-4.57,-6.86,-4.56,-6.84,6.00,5.00,2.84,1.43,1.44,2.28
23.22,-4.42,-6.71,-4.42,-6.72,6.01,4.96,2.93,1.59,1.59,2.29
23.45,-4.27,-6.57,-4.27,-6.58,6.02,4.92,3.01,1.75,1.74,2.30
23.69,-4.12,-6.43,-4.12,-6.43,6.02,4.88,3.10,1.90,1.90,2.31
23.92,-3.98,-6.30,-3.98,-6.31,6.02,4.84,3.18,2.04,2.03,2.32
24.16,-3.86,-6.19,-3.87,-6.20,6.00,4.81,3.27,2.14,2.14,2.33
24.40,-3.76,-6.10,-3.76,-6.09,5.97,4.77,3.36,2.21,2.21,2.34
24.65,-3.66,-5.99,-3.66,-5.99,5.91,4.73,3.46,2.25,2.26,2.33
24.89,-3.55,-5.88,-3.55,-5.88,5.84,4.69,3.55,2.29,2.29,2.33
25.14,-3.44,-5.77,-3.43,-5.76,5.75,4.65,3.64,2.32,2.32,2.33
25.39,-3.31,-5.63,-3.31,-5.64,5.65,4.61,3.73,2.34,2.34,2.33
25.65,-3.19,-5.52,-3.19,-5.51,5.53,4.57,3.83,2.34,2.34,2.32
25.91,-3.07,-5.39,-3.07,-5.39,5.41,4.52,3.92,2.34,2.34,2.31
26.16,-2.95,-5.27,-2.96,-5.28,5.29,4.48,4.02,2.34,2.33,2.32
26.43,-2.85,-5.17,-2.84,-5.16,5.17,4.44,4.11,2.32,2.33,2.32
26.69,-2.74,-5.06,-2.74,-5.06,5.07,4.40,4.20,2.33,2.33,2.32
26.96,-2.64,-4.96,-2.65,-4.97,4.97,4.36,4.29,2.33,2.32,2.32
27.23,-2.56,-4.88,-2.56,-4.88,4.88,4.32,4.38,2.32,2.33,2.32
27.50,-2.48,-4.80,-2.48,-4.80,4.80,4.28,4.46,2.32,2.32,2.32
27.77,-2.41,-4.71,-2.41,-4.72,4.73,4.24,4.54,2.32,2.32,2.30
28.05,-2.34,-4.64,-2.34,-4.64,4.65,4.19,4.62,2.31,2.31,2.30
28.33,-2.27,-4.56,-2.27,-4.57,4.56,4.15,4.69,2.29,2.29,2.29
28.62,-2.20,-4.50,-2.20,-4.50,4.47,4.11,4.76,2.27,2.27,2.30
28.90,-2.12,-4.42,-2.12,-4.41,4.38,4.07,4.82,2.26,2.26,2.30
29.19,-2.02,-4.31,-2.01,-4.31,4.28,4.03,4.88,2.26,2.27,2.29
29.48,-1.89,-4.18,-1.89,-4.18,4.19,3.98,4.93,2.30,2.30,2.30
29.78,-1.76,-4.06,-1.77,-4.06,4.09,3.94,4.98,2.33,2.32,2.29
30.08,-1.66,-3.95,-1.67,-3.96,4.00,3.90,5.01,2.34,2.33,2.29
30.38,-1.60,-3.88,-1.60,-3.89,3.91,3.85,5.04,2.30,2.30,2.28
30.68,-1.55,-3.83,-1.55,-3.82,3.81,3.81,5.06,2.26,2.27,2.28
30.99,-1.49,-3.76,-1.48,-3.75,3.72,3.77,5.07,2.23,2.24,2.27
31.30,-1.40,-3.67,-1.40,-3.67,3.63,3.72,5.07,2.23,2.23,2.26
31.61,-1.31,-3.57,-1.31,-3.57,3.55,3.68,5.06,2.24,2.24,2.26
31.93,-1.21,-3.46,-1.22,-3.47,3.47,3.64,5.05,2.26,2.25,2.25
32.24,-1.14,-3.38,-1.14,-3.38,3.40,3.59,5.03,2.26,2.27,2.24
32.57,-1.07,-3.31,-1.06,-3.30,3.34,3.55,4.99,2.27,2.28,2.23
32.89,-1.00,-3.23,-1.01,-3.24,3.28,3.50,4.96,2.28,2.27,2.23
33.22,-0.98,-3.21,-0.99,-3.21,3.23,3.46,4.91,2.25,2.25,2.23
33.55,-0.97,-3.20,-0.97,-3.20,3.18,3.41,4.86,2.21,2.21,2.23
33.89,-0.96,-3.18,-0.95,-3.17,3.13,3.37,4.80,2.17,2.18,2.22
34.23,-0.91,-3.13,-0.90,-3.12,3.07,3.32,4.73,2.16,2.17,2.22
34.57,-0.83,-3.04,-0.84,-3.05,3.01,3.28,4.66,2.18,2.17,2.21
34.92,-0.76,-2.97,-0.76,-2.96,2.95,3.23,4.58,2.19,2.19,2.20
35.27,-0.68,-2.88,-0.67,-2.87,2.89,3.19,4.50,2.21,2.21,2.20
35.62,-0.60,-2.79,-0.60,-2.79,2.83,3.14,4.42,2.23,2.23,2.19
35.97,-0.53,-2.71,-0.55,-2.73,2.78,3.10,4.33,2.25,2.23,2.18
36.33,-0.52,-2.70,-0.52,-2.69,2.73,3.05,4.24,2.21,2.22,2.18
36.70,-0.51,-2.69,-0.51,-2.68,2.70,3.01,4.15,2.19,2.19,2.18
37.06,-0.51,-2.67,-0.51,-2.68,2.66,2.96,4.06,2.15,2.15,2.16
37.43,-0.51,-2.67,-0.52,-2.67,2.63,2.91,3.96,2.12,2.11,2.16
37.81,-0.51,-2.66,-0.50,-2.65,2.59,2.87,3.87,2.08,2.09,2.15
38.19,-0.47,-2.61,-0.45,-2.59,2.56,2.82,3.77,2.09,2.11,2.14
38.57,-0.38,-2.51,-0.38,-2.52,2.52,2.77,3.68,2.14,2.14,2.13
38.95,-0.29,-2.42,-0.32,-2.44,2.48,2.73,3.58,2.19,2.16,2.13
39.34,-0.28,-2.39,-0.28,-2.39,2.44,2.68,3.49,2.16,2.16,2.11
39.74,-0.28,-2.38,-0.27,-2.38,2.41,2.63,3.40,2.13,2.14,2.10
40.14,-0.28,-2.38,-0.28,-2.38,2.39,2.58,3.30,2.10,2.11,2.10
40.54,-0.28,-2.38,-0.28,-2.38,2.37,2.54,3.21,2.09,2.09,2.10
40.94,-0.28,-2.37,-0.28,-2.37,2.37,2.49,3.12,2.09,2.09,2.09
41.35,-0.28,-2.36,-0.28,-2.36,2.36,2.44,3.03,2.08,2.08,2.08
41.76,-0.28,-2.34,-0.28,-2.34,2.34,2.39,2.95,2.06,2.06,2.06
42.18,-0.28,-2.32,-0.29,-2.33,2.30,2.34,2.86,2.02,2.01,2.04
42.60,-0.28,-2.30,-0.28,-2.30,2.25,2.30,2.78,1.97,1.97,2.02
43.03,-0.27,-2.27,-0.24,-2.23,2.20,2.25,2.70,1.93,1.96,2.00
43.46,-0.17,-2.14,-0.17,-2.14,2.14,2.20,2.62,1.97,1.97,1.97
43.90,-0.07,-2.00,-0.10,-2.03,2.08,2.15,2.54,2.00,1.97,1.92
44.33,-0.05,-1.95,-0.05,-1.95,2.01,2.10,2.47,1.96,1.96,1.90
44.78,-0.05,-1.91,-0.05,-1.90,1.93,2.06,2.39,1.88,1.89,1.86
45.23,-0.05,-1.88,-0.06,-1.89,1.86,2.01,2.32,1.81,1.80,1.83
45.68,-0.05,-1.85,-0.04,-1.85,1.79,1.96,2.25,1.74,1.75,1.80
46.13,-0.02,-1.80,0.01,-1.77,1.74,1.91,2.18,1.72,1.75,1.78
46.60,0.09,-1.69,0.08,-1.69,1.69,1.87,2.12,1.78,1.77,1.77
47.06,0.18,-1.57,0.15,-1.61,1.65,1.82,2.05,1.82,1.79,1.75
47.53,0.18,-1.56,0.19,-1.56,1.61,1.77,1.99,1.79,1.79,1.74
48.01,0.18,-1.56,0.19,-1.55,1.57,1.73,1.93,1.75,1.76,1.74
48.49,0.18,-1.55,0.18,-1.55,1.55,1.68,1.87,1.73,1.73,1.73
48.97,0.18,-1.54,0.18,-1.54,1.53,1.63,1.82,1.71,1.71,1.72
49.46,0.18,-1.53,0.18,-1.53,1.53,1.59,1.76,1.71,1.71,1.71
49.96,0.18,-1.53,0.18,-1.53,1.53,1.54,1.71,1.71,1.71,1.71
50.46,0.18,-1.54,0.18,-1.54,1.54,1.50,1.66,1.72,1.72,1.72
50.96,0.18,-1.54,0.18,-1.54,1.54,1.46,1.60,1.71,1.71,1.72
51.47,0.18,-1.53,0.18,-1.53,1.53,1.42,1.55,1.71,1.71,1.71
51.99,0.18,-1.52,0.18,-1.52,1.51,1.37,1.51,1.69,1.69,1.70
52.51,0.18,-1.50,0.18,-1.50,1.50,1.33,1.46,1.68,1.68,1.68
53.03,0.18,-1.48,0.18,-1.48,1.47,1.29,1.41,1.65,1.65,1.66
53.56,0.18,-1.44,0.18,-1.44,1.44,1.25,1.37,1.62,1.62,1.62
54.10,0.18,-1.40,0.18,-1.40,1.40,1.22,1.33,1.58,1.58,1.58
54.64,0.18,-1.35,0.18,-1.35,1.36,1.18,1.28,1.54,1.54,1.53
55.18,0.18,-1.31,0.18,-1.30,1.31,1.14,1.24,1.49,1.49,1.49
55.74,0.18,-1.25,0.18,-1.25,1.25,1.11,1.20,1.43,1.43,1.43
56.29,0.18,-1.20,0.18,-1.20,1.20,1.07,1.16,1.38,1.38,1.38
56.86,0.18,-1.14,0.18,-1.14,1.14,1.04,1.12,1.32,1.32,1.32
57.42,0.18,-1.08,0.18,-1.08,1.07,1.01,1.08,1.25,1.25,1.25
58.00,0.18,-1.02,0.18,-1.02,1.01,0.97,1.05,1.19,1.19,1.20
58.58,0.18,-0.96,0.18,-0.96,0.95,0.94,1.01,1.13,1.13,1.14
59.16,0.18,-0.91,0.18,-0.90,0.90,0.91,0.97,1.08,1.08,1.08
59.76,0.18,-0.84,0.19,-0.83,0.86,0.88,0.93,1.04,1.05,1.02
60.35,0.18,-0.77,0.18,-0.78,0.82,0.85,0.90,1.00,1.01,0.95
60.96,0.18,-0.72,0.13,-0.76,0.80,0.82,0.86,0.98,0.93,0.90
61.57,0.05,-0.78,0.06,-0.77,0.77,0.79,0.83,0.82,0.83,0.83
62.18,-0.05,-0.81,-0.01,-0.78,0.75,0.77,0.79,0.70,0.74,0.76
62.80,-0.05,-0.77,-0.06,-0.77,0.72,0.74,0.76,0.67,0.66,0.72
63.43,-0.05,-0.71,-0.06,-0.72,0.70,0.71,0.72,0.65,0.64,0.66
64.07,-0.05,-0.67,-0.05,-0.67,0.66,0.69,0.69,0.61,0.61,0.62
64.71,-0.05,-0.62,-0.05,-0.62,0.62,0.66,0.65,0.57,0.57,0.57
65.35,-0.05,-0.57,-0.05,-0.58,0.58,0.63,0.62,0.53,0.53,0.52
66.01,-0.05,-0.54,-0.05,-0.53,0.54,0.61,0.59,0.48,0.48,0.49
66.67,-0.05,-0.50,-0.05,-0.50,0.50,0.58,0.55,0.45,0.46,0.45
67.33,-0.05,-0.47,-0.04,-0.46,0.49,0.55,0.52,0.44,0.45,0.42
68.01,-0.05,-0.44,-0.05,-0.44,0.48,0.53,0.48,0.43,0.43,0.39
68.69,-0.07,-0.43,-0.10,-0.45,0.49,0.50,0.45,0.42,0.39,0.35
69.37,-0.16,-0.48,-0.17,-0.49,0.49,0.48,0.41,0.33,0.32,0.32
70.07,-0.28,-0.57,-0.24,-0.53,0.50,0.45,0.38,0.22,0.26,0.29
70.77,-0.28,-0.56,-0.28,-0.55,0.50,0.43,0.35,0.22,0.22,0.28
71.48,-0.28,-0.52,-0.29,-0.54,0.50,0.40,0.31,0.22,0.21,0.24
72.19,-0.28,-0.50,-0.28,-0.50,0.49,0.37,0.28,0.21,0.21,0.22
72.91,-0.28,-0.46,-0.28,-0.46,0.47,0.35,0.24,0.19,0.19,0.18
73.64,-0.28,-0.43,-0.28,-0.43,0.45,0.32,0.21,0.17,0.17,0.15
74.38,-0.28,-0.41,-0.28,-0.40,0.42,0.29,0.17,0.14,0.14,0.13
75.12,-0.28,-0.37,-0.28,-0.37,0.39,0.27,0.14,0.11,0.11,0.09
75.87,-0.28,-0.34,-0.28,-0.34,0.35,0.24,0.10,0.07,0.07,0.06
76.63,-0.28,-0.31,-0.28,-0.31,0.31,0.21,0.07,0.03,0.03,0.03
77.40,-0.28,-0.29,-0.30,-0.30,0.26,0.19,0.03,-0.02,-0.04,0.01
78.17,-0.28,-0.26,-0.28,-0.26,0.21,0.16,-0.00,-0.07,-0.07,-0.02
78.95,-0.28,-0.24,-0.22,-0.18,0.15,0.13,-0.04,-0.13,-0.07,-0.04
79.74,-0.11,-0.06,-0.15,-0.09,0.10,0.11,-0.07,-0.01,-0.05,-0.05
80.54,-0.05,0.02,-0.08,-0.01,0.05,0.08,-0.11,0.00,-0.03,-0.07
81.35,-0.05,0.04,-0.04,0.05,0.02,0.05,-0.15,-0.03,-0.02,-0.09
82.16,-0.05,0.04,-0.05,0.05,-0.01,0.03,-0.18,-0.06,-0.06,-0.10
82.98,-0.05,0.04,-0.05,0.05,-0.04,-0.00,-0.22,-0.09,-0.09,-0.09
83.81,-0.05,0.05,-0.05,0.05,-0.06,-0.03,-0.26,-0.11,-0.11,-0.10
84.65,-0.05,0.06,-0.06,0.04,-0.08,-0.06,-0.29,-0.13,-0.13,-0.11
85.50,-0.05,0.04,-0.07,0.03,-0.10,-0.08,-0.33,-0.15,-0.16,-0.10
86.35,-0.05,0.04,-0.03,0.07,-0.12,-0.11,-0.37,-0.17,-0.14,-0.09
87.22,-0.00,0.09,0.04,0.13,-0.14,-0.14,-0.41,-0.15,-0.10,-0.09
88.09,0.18,0.27,0.12,0.20,-0.18,-0.16,-0.45,0.00,-0.06,-0.09
88.97,0.18,0.25,0.18,0.26,-0.21,-0.19,-0.49,-0.03,-0.03,-0.08
89.86,0.18,0.26,0.20,0.28,-0.24,-0.22,-0.53,-0.06,-0.04,-0.08
90.76,0.18,0.27,0.18,0.26,-0.26,-0.25,-0.57,-0.08,-0.08,-0.09
91.66,0.18,0.26,0.18,0.27,-0.28,-0.28,-0.61,-0.10,-0.10,-0.08
92.58,0.18,0.28,0.18,0.28,-0.28,-0.30,-0.65,-0.10,-0.10,-0.10
93.51,0.18,0.28,0.18,0.28,-0.28,-0.33,-0.69,-0.10,-0.10,-0.10
94.44,0.18,0.29,0.18,0.29,-0.29,-0.37,-0.73,-0.11,-0.11,-0.11
95.39,0.18,0.31,0.18,0.31,-0.31,-0.40,-0.77,-0.13,-0.13,-0.13
96.34,0.18,0.34,0.17,0.33,-0.35,-0.43,-0.81,-0.17,-0.17,-0.16
97.30,0.18,0.36,0.17,0.35,-0.39,-0.47,-0.86,-0.21,-0.23,-0.18
98.28,0.18,0.38,0.21,0.41,-0.45,-0.51,-0.90,-0.27,-0.24,-0.20
99.26,0.24,0.47,0.27,0.50,-0.51,-0.54,-0.94,-0.27,-0.24,-0.23
100.25,0.40,0.65,0.34,0.60,-0.58,-0.59,-0.99,-0.18,-0.24,-0.25
101.25,0.40,0.69,0.40,0.69,-0.65,-0.63,-1.03,-0.25,-0.25,-0.29
102.27,0.40,0.73,0.41,0.74,-0.71,-0.67,-1.07,-0.31,-0.30,-0.33
103.29,0.40,0.77,0.40,0.77,-0.77,-0.72,-1.12,-0.37,-0.37,-0.37
104.32,0.40,0.81,0.41,0.82,-0.81,-0.77,-1.16,-0.41,-0.40,-0.41
105.37,0.40,0.85,0.41,0.86,-0.84,-0.82,-1.20,-0.44,-0.43,-0.45
106.42,0.40,0.91,0.36,0.88,-0.86,-0.88,-1.25,-0.46,-0.49,-0.51
107.48,0.31,0.89,0.30,0.88,-0.88,-0.93,-1.29,-0.57,-0.58,-0.58
108.56,0.19,0.84,0.23,0.88,-0.91,-0.99,-1.33,-0.72,-0.68,-0.65
109.64,0.18,0.90,0.18,0.90,-0.94,-1.05,-1.37,-0.76,-0.76,-0.72
110.74,0.18,0.96,0.17,0.96,-0.98,-1.11,-1.41,-0.80,-0.81,-0.79
111.85,0.18,1.03,0.18,1.04,-1.03,-1.17,-1.45,-0.85,-0.85,-0.85
112.97,0.18,1.12,0.18,1.11,-1.10,-1.24,-1.49,-0.93,-0.93,-0.94
114.10,0.18,1.18,0.18,1.18,-1.19,-1.30,-1.53,-1.01,-1.01,-1.00
115.24,0.18,1.26,0.16,1.24,-1.28,-1.36,-1.57,-1.11,-1.12,-1.08
116.39,0.18,1.33,0.19,1.34,-1.37,-1.43,-1.61,-1.19,-1.18,-1.15
117.55,0.19,1.41,0.26,1.48,-1.44,-1.49,-1.64,-1.25,-1.18,-1.22
118.73,0.35,1.63,0.30,1.57,-1.51,-1.56,-1.67,-1.16,-1.21,-1.28
119.92,0.39,1.71,0.30,1.63,-1.56,-1.62,-1.70,-1.17,-1.26,-1.32
121.12,0.18,1.56,0.26,1.64,-1.60,-1.68,-1.73,-1.42,-1.34,-1.38
122.33,0.18,1.60,0.19,1.60,-1.64,-1.74,-1.76,-1.46,-1.44,-1.42
123.55,0.18,1.62,0.16,1.61,-1.66,-1.80,-1.79,-1.48,-1.50,-1.44
124.79,0.18,1.66,0.18,1.66,-1.68,-1.86,-1.81,-1.50,-1.50,-1.48
126.03,0.18,1.69,0.18,1.69,-1.70,-1.92,-1.84,-1.52,-1.52,-1.51
127.29,0.18,1.72,0.18,1.72,-1.72,-1.98,-1.86,-1.54,-1.54,-1.54
128.57,0.18,1.76,0.18,1.76,-1.75,-2.03,-1.88,-1.57,-1.57,-1.58
129.85,0.18,1.79,0.18,1.79,-1.78,-2.08,-1.90,-1.60,-1.60,-1.61
131.15,0.18,1.82,0.18,1.82,-1.82,-2.14,-1.91,-1.64,-1.64,-1.64
132.46,0.18,1.85,0.18,1.85,-1.85,-2.18,-1.93,-1.67,-1.67,-1.67
133.79,0.18,1.88,0.18,1.89,-1.89,-2.23,-1.94,-1.71,-1.71,-1.70
135.12,0.18,1.93,0.18,1.92,-1.92,-2.28,-1.96,-1.74,-1.74,-1.75
136.48,0.18,1.95,0.18,1.95,-1.96,-2.32,-1.97,-1.78,-1.78,-1.77
137.84,0.18,1.99,0.18,2.00,-1.99,-2.37,-1.98,-1.81,-1.81,-1.81
139.22,0.18,2.04,0.18,2.03,-2.02,-2.41,-1.99,-1.84,-1.84,-1.86
140.61,0.18,2.08,0.18,2.07,-2.05,-2.45,-2.00,-1.87,-1.87,-1.90
142.02,0.18,2.10,0.18,2.11,-2.10,-2.48,-2.01,-1.92,-1.92,-1.92
143.44,0.18,2.15,0.17,2.14,-2.15,-2.52,-2.02,-1.97,-1.98,-1.97
144.87,0.18,2.19,0.17,2.18,-2.22,-2.55,-2.04,-2.04,-2.05,-2.01
146.32,0.18,2.24,0.20,2.25,-2.30,-2.58,-2.05,-2.12,-2.10,-2.06
147.78,0.23,2.32,0.25,2.36,-2.38,-2.61,-2.06,-2.15,-2.13,-2.09
149.26,0.34,2.50,0.32,2.48,-2.48,-2.64,-2.07,-2.14,-2.16,-2.16
150.75,0.40,2.64,0.38,2.61,-2.58,-2.67,-2.08,-2.18,-2.20,-2.24
152.26,0.40,2.71,0.41,2.72,-2.69,-2.69,-2.09,-2.29,-2.28,-2.31
153.78,0.40,2.78,0.40,2.79,-2.80,-2.72,-2.11,-2.40,-2.39,-2.38
155.32,0.40,2.88,0.40,2.87,-2.90,-2.74,-2.12,-2.50,-2.50,-2.48
156.88,0.40,2.95,0.40,2.95,-2.97,-2.76,-2.14,-2.57,-2.57,-2.55
158.44,0.40,3.02,0.41,3.04,-3.01,-2.78,-2.16,-2.61,-2.60,-2.62
160.03,0.40,3.09,0.40,3.09,-3.03,-2.79,-2.18,-2.63,-2.63,-2.70
161.63,0.40,3.16,0.37,3.12,-3.03,-2.81,-2.20,-2.63,-2.66,-2.76
163.24,0.26,3.07,0.28,3.08,-3.02,-2.82,-2.22,-2.76,-2.74,-2.81
164.88,0.18,3.03,0.15,3.00,-3.01,-2.83,-2.24,-2.83,-2.86,-2.85
166.53,-0.00,2.89,0.02,2.91,-3.00,-2.85,-2.27,-3.00,-2.98,-2.89
168.19,-0.05,2.86,-0.01,2.90,-3.00,-2.85,-2.30,-3.05,-3.01,-2.92
169.87,-0.00,2.93,0.02,2.95,-3.01,-2.86,-2.33,-3.01,-3.00,-2.93
171.57,0.14,3.08,0.08,3.02,-3.05,-2.87,-2.36,-2.91,-2.96,-2.94
173.29,0.18,3.12,0.17,3.10,-3.09,-2.88,-2.39,-2.91,-2.92,-2.94
175.02,0.18,3.10,0.26,3.18,-3.14,-2.88,-2.43,-2.96,-2.88,-2.92
176.77,0.37,3.30,0.32,3.24,-3.19,-2.88,-2.46,-2.82,-2.87,-2.93
178.54,0.40,3.32,0.38,3.30,-3.24,-2.88,-2.50,-2.84,-2.86,-2.92
180.32,0.40,3.31,0.42,3.33,-3.28,-2.89,-2.54,-2.88,-2.87,-2.91
182.13,0.40,3.31,0.40,3.31,-3.33,-2.89,-2.59,-2.93,-2.93,-2.91
183.95,0.40,3.31,0.38,3.29,-3.37,-2.88,-2.63,-2.98,-2.99,-2.91
185.79,0.40,3.32,0.40,3.32,-3.41,-2.88,-2.68,-3.01,-3.01,-2.92
187.65,0.40,3.34,0.46,3.40,-3.43,-2.88,-2.73,-3.03,-2.97,-2.94
189.52,0.58,3.54,0.55,3.51,-3.45,-2.87,-2.78,-2.88,-2.91,-2.96
191.42,0.63,3.61,0.61,3.59,-3.48,-2.87,-2.83,-2.85,-2.87,-2.98
193.33,0.63,3.63,0.61,3.60,-3.51,-2.86,-2.88,-2.88,-2.90,-3.00
195.27,0.53,3.54,0.52,3.53,-3.54,-2.85,-2.94,-3.01,-3.02,-3.01
197.22,0.43,3.45,0.46,3.49,-3.58,-2.85,-2.99,-3.15,-3.12,-3.02
199.19,0.41,3.47,0.46,3.51,-3.61,-2.84,-3.05,-3.20,-3.15,-3.06
201.18,0.54,3.61,0.52,3.59,-3.63,-2.83,-3.11,-3.09,-3.11,-3.07
203.19,0.63,3.71,0.59,3.68,-3.65,-2.82,-3.17,-3.02,-3.06,-3.08
205.23,0.63,3.74,0.64,3.74,-3.68,-2.80,-3.22,-3.05,-3.04,-3.11
207.28,0.63,3.74,0.64,3.76,-3.72,-2.79,-3.28,-3.09,-3.08,-3.11
209.35,0.63,3.77,0.63,3.77,-3.76,-2.78,-3.34,-3.13,-3.13,-3.14
211.44,0.63,3.79,0.63,3.78,-3.80,-2.76,-3.40,-3.17,-3.17,-3.16
213.56,0.63,3.80,0.63,3.80,-3.82,-2.75,-3.46,-3.19,-3.19,-3.17
215.69,0.63,3.80,0.63,3.81,-3.83,-2.74,-3.52,-3.21,-3.21,-3.17
217.85,0.63,3.82,0.63,3.82,-3.84,-2.72,-3.57,-3.21,-3.21,-3.19
220.03,0.63,3.83,0.63,3.84,-3.83,-2.70,-3.63,-3.20,-3.20,-3.21
222.23,0.63,3.86,0.64,3.87,-3.82,-2.69,-3.68,-3.19,-3.18,-3.23
224.45,0.63,3.86,0.63,3.86,-3.81,-2.67,-3.73,-3.18,-3.18,-3.23
226.70,0.63,3.86,0.58,3.81,-3.79,-2.65,-3.77,-3.16,-3.21,-3.23
228.96,0.47,3.71,0.50,3.74,-3.77,-2.63,-3.81,-3.30,-3.26,-3.24
231.25,0.42,3.66,0.44,3.68,-3.74,-2.61,-3.85,-3.32,-3.31,-3.24
233.57,0.40,3.65,0.39,3.65,-3.71,-2.60,-3.89,-3.31,-3.31,-3.25
235.90,0.40,3.66,0.41,3.67,-3.66,-2.58,-3.91,-3.26,-3.25,-3.26
238.26,0.40,3.66,0.40,3.66,-3.61,-2.56,-3.94,-3.21,-3.21,-3.26
240.64,0.40,3.66,0.35,3.60,-3.56,-2.54,-3.96,-3.16,-3.21,-3.26
243.05,0.25,3.50,0.29,3.54,-3.50,-2.51,-3.97,-3.25,-3.21,-3.25
245.48,0.18,3.43,0.20,3.45,-3.44,-2.49,-3.98,-3.27,-3.24,-3.25
247.93,0.18,3.41,0.10,3.34,-3.38,-2.47,-3.98,-3.20,-3.28,-3.23
250.41,-0.01,3.23,0.03,3.27,-3.31,-2.45,-3.97,-3.32,-3.28,-3.24
252.92,-0.05,3.18,-0.02,3.21,-3.23,-2.43,-3.96,-3.28,-3.25,-3.23
255.45,-0.05,3.16,-0.07,3.15,-3.16,-2.41,-3.94,-3.21,-3.22,-3.21
258.00,-0.05,3.15,-0.10,3.10,-3.08,-2.38,-3.92,-3.13,-3.19,-3.20
260.58,-0.19,3.01,-0.17,3.03,-3.01,-2.36,-3.89,-3.20,-3.17,-3.20
263.19,-0.27,2.92,-0.23,2.96,-2.94,-2.34,-3.86,-3.21,-3.17,-3.19
265.82,-0.28,2.90,-0.30,2.87,-2.87,-2.32,-3.82,-3.15,-3.17,-3.18
268.48,-0.33,2.83,-0.37,2.80,-2.79,-2.29,-3.77,-3.12,-3.16,-3.16
271.16,-0.46,2.69,-0.43,2.71,-2.72,-2.27,-3.72,-3.18,-3.15,-3.15
273.87,-0.51,2.62,-0.49,2.63,-2.65,-2.25,-3.67,-3.16,-3.14,-3.13
276.61,-0.51,2.59,-0.52,2.58,-2.58,-2.22,-3.61,-3.09,-3.10,-3.10
279.38,-0.51,2.57,-0.52,2.57,-2.54,-2.20,-3.55,-3.05,-3.06,-3.08
282.17,-0.51,2.55,-0.52,2.54,-2.54,-2.18,-3.48,-3.05,-3.05,-3.06
284.99,-0.51,2.52,-0.53,2.50,-2.57,-2.15,-3.42,-3.08,-3.10,-3.03
287.84,-0.51,2.50,-0.49,2.52,-2.62,-2.13,-3.35,-3.13,-3.11,-3.01
290.72,-0.44,2.53,-0.39,2.58,-2.70,-2.10,-3.28,-3.14,-3.09,-2.97
293.63,-0.19,2.76,-0.23,2.71,-2.76,-2.08,-3.20,-2.95,-2.99,-2.95
296.57,-0.07,2.85,-0.03,2.89,-2.81,-2.06,-3.13,-2.88,-2.84,-2.92
299.53,0.12,3.01,0.09,2.99,-2.83,-2.03,-3.05,-2.71,-2.74,-2.89
302.53,0.17,3.05,0.10,2.97,-2.82,-2.01,-2.97,-2.66,-2.72,-2.88
305.55,-0.02,2.82,0.04,2.89,-2.79,-1.98,-2.90,-2.81,-2.75,-2.84
308.61,-0.11,2.72,-0.12,2.71,-2.71,-1.96,-2.82,-2.82,-2.83,-2.83
311.69,-0.26,2.55,-0.28,2.52,-2.60,-1.93,-2.74,-2.86,-2.88,-2.81
314.81,-0.42,2.36,-0.38,2.41,-2.47,-1.91,-2.67,-2.89,-2.85,-2.78
317.96,-0.50,2.29,-0.49,2.30,-2.34,-1.89,-2.59,-2.85,-2.84,-2.79
321.14,-0.52,2.27,-0.58,2.20,-2.24,-1.86,-2.52,-2.76,-2.82,-2.79
324.35,-0.69,2.09,-0.66,2.13,-2.15,-1.84,-2.44,-2.84,-2.81,-2.78
327.59,-0.74,2.03,-0.72,2.06,-2.09,-1.81,-2.37,-2.83,-2.81,-2.78
330.87,-0.74,2.03,-0.75,2.02,-2.03,-1.79,-2.29,-2.78,-2.79,-2.77
334.18,-0.74,2.02,-0.73,2.03,-1.99,-1.77,-2.22,-2.73,-2.71,-2.76
337.52,-0.74,2.01,-0.74,2.00,-1.94,-1.74,-2.15,-2.68,-2.68,-2.75
340.90,-0.74,1.99,-0.80,1.93,-1.89,-1.72,-2.08,-2.63,-2.69,-2.73
344.30,-0.91,1.81,-0.87,1.85,-1.84,-1.69,-2.02,-2.75,-2.71,-2.72
347.75,-0.96,1.74,-0.94,1.76,-1.80,-1.67,-1.95,-2.76,-2.73,-2.70
351.23,-0.96,1.71,-0.97,1.70,-1.75,-1.64,-1.89,-2.71,-2.72,-2.67
354.74,-0.96,1.69,-0.97,1.69,-1.70,-1.62,-1.82,-2.66,-2.66,-2.66
358.28,-0.96,1.67,-0.96,1.67,-1.65,-1.60,-1.76,-2.61,-2.61,-2.63
361.87,-0.96,1.65,-0.96,1.65,-1.62,-1.57,-1.70,-2.58,-2.58,-2.61
365.49,-0.96,1.62,-0.96,1.62,-1.60,-1.55,-1.64,-2.56,-2.56,-2.58
369.14,-0.96,1.60,-0.97,1.59,-1.59,-1.52,-1.58,-2.56,-2.56,-2.56
372.83,-0.96,1.57,-0.97,1.57,-1.60,-1.50,-1.53,-2.56,-2.57,-2.53
376.56,-0.96,1.56,-0.93,1.59,-1.62,-1.48,-1.47,-2.58,-2.54,-2.52
380.33,-0.87,1.62,-0.86,1.63,-1.64,-1.45,-1.42,-2.51,-2.51,-2.49
384.13,-0.76,1.71,-0.81,1.66,-1.68,-1.43,-1.36,-2.44,-2.49,-2.47
387.97,-0.74,1.72,-0.74,1.72,-1.73,-1.40,-1.31,-2.47,-2.47,-2.46
391.85,-0.73,1.72,-0.67,1.78,-1.78,-1.38,-1.26,-2.51,-2.44,-2.45
395.77,-0.57,1.87,-0.60,1.84,-1.83,-1.36,-1.22,-2.40,-2.43,-2.44
399.73,-0.51,1.93,-0.54,1.90,-1.87,-1.33,-1.17,-2.38,-2.41,-2.44
403.72,-0.51,1.92,-0.50,1.93,-1.91,-1.31,-1.12,-2.42,-2.41,-2.43
407.76,-0.51,1.91,-0.51,1.91,-1.94,-1.28,-1.08,-2.45,-2.44,-2.42
411.84,-0.51,1.90,-0.51,1.90,-1.93,-1.26,-1.04,-2.44,-2.44,-2.41
415.96,-0.51,1.89,-0.50,1.91,-1.90,-1.23,-0.99,-2.41,-2.40,-2.40
420.12,-0.51,1.89,-0.51,1.89,-1.84,-1.21,-0.95,-2.35,-2.35,-2.40
424.32,-0.53,1.87,-0.56,1.84,-1.75,-1.18,-0.92,-2.28,-2.31,-2.40
428.56,-0.68,1.72,-0.68,1.73,-1.64,-1.16,-0.88,-2.32,-2.32,-2.40
432.85,-0.83,1.57,-0.85,1.55,-1.53,-1.13,-0.84,-2.37,-2.39,-2.41
437.18,-1.05,1.35,-1.02,1.37,-1.43,-1.11,-0.81,-2.48,-2.45,-2.40
441.55,-1.16,1.23,-1.14,1.25,-1.34,-1.08,-0.77,-2.51,-2.48,-2.39
445.96,-1.19,1.20,-1.20,1.18,-1.28,-1.05,-0.74,-2.47,-2.49,-2.39
450.42,-1.19,1.19,-1.21,1.17,-1.26,-1.03,-0.71,-2.45,-2.47,-2.38
454.93,-1.19,1.18,-1.17,1.20,-1.26,-1.00,-0.68,-2.45,-2.43,-2.37
459.48,-1.14,1.22,-1.11,1.25,-1.28,-0.97,-0.66,-2.42,-2.39,-2.36
464.07,-0.99,1.35,-1.03,1.31,-1.29,-0.94,-0.63,-2.29,-2.33,-2.34
468.71,-0.96,1.36,-0.95,1.37,-1.28,-0.91,-0.61,-2.24,-2.23,-2.32
473.40,-0.96,1.35,-0.93,1.38,-1.22,-0.88,-0.59,-2.18,-2.15,-2.31
478.13,-0.96,1.32,-1.01,1.28,-1.12,-0.85,-0.57,-2.08,-2.13,-2.28
