frequency,raw,error,smoothed,error_smoothed,equalization,parametric_eq,fixed_band_eq,equalized_raw,equalized_smoothed,target
20.00,15.78,7.16,15.78,7.16,-7.16,-7.23,-3.14,8.62,8.63,8.62
20.20,15.79,7.18,15.79,7.18,-7.18,-7.23,-3.22,8.61,8.61,8.61
20.40,15.79,7.19,15.79,7.20,-7.20,-7.22,-3.31,8.60,8.60,8.60
20.61,15.79,7.20,15.80,7.21,-7.21,-7.22,-3.41,8.58,8.58,8.59
20.81,15.79,7.22,15.79,7.22,-7.22,-7.21,-3.50,8.57,8.57,8.57
21.02,15.79,7.23,15.79,7.23,-7.23,-7.21,-3.60,8.56,8.56,8.56
21.23,15.78,7.23,15.79,7.24,-7.23,-7.20,-3.70,8.55,8.55,8.55
21.44,15.78,7.23,15.78,7.23,-7.23,-7.19,-3.81,8.55,8.55,8.56
21.66,15.77,7.24,15.77,7.23,-7.23,-7.19,-3.91,8.54,8.54,8.54
21.87,15.75,7.22,15.76,7.23,-7.23,-7.18,-4.02,8.53,8.53,8.54
22.09,15.74,7.23,15.74,7.22,-7.22,-7.18,-4.14,8.53,8.53,8.52
22.31,15.72,7.21,15.72,7.21,-7.20,-7.17,-4.25,8.52,8.52,8.52
22.54,15.69,7.19,15.70,7.19,-7.18,-7.16,-4.37,8.51,8.51,8.51
22.76,15.66,7.16,15.66,7.16,-7.16,-7.15,-4.49,8.50,8.50,8.51
22.99,15.63,7.14,15.63,7.14,-7.14,-7.15,-4.62,8.49,8.49,8.50
23.22,15.60,7.12,15.60,7.11,-7.11,-7.14,-4.75,8.49,8.49,8.48
23.45,15.57,7.08,15.57,7.09,-7.09,-7.13,-4.88,8.49,8.49,8.49
23.69,15.54,7.06,15.54,7.06,-7.06,-7.12,-5.01,8.49,8.49,8.48
23.92,15.51,7.04,15.52,7.03,-7.03,-7.11,-5.15,8.48,8.48,8.47
24.16,15.49,7.01,15.49,7.01,-7.01,-7.10,-5.29,8.48,8.48,8.48
24.40,15.46,6.98,15.47,6.99,-6.99,-7.09,-5.43,8.47,8.47,8.48
24.65,15.45,6.97,15.45,6.97,-6.98,-7.08,-5.57,8.47,8.47,8.48
24.89,15.44,6.96,15.44,6.96,-6.97,-7.07,-5.72,8.47,8.47,8.48
25.14,15.43,6.96,15.44,6.96,-6.97,-7.07,-5.86,8.47,8.47,8.47
25.39,15.43,6.97,15.44,6.97,-6.97,-7.06,-6.01,8.47,8.47,8.47
25.65,15.44,6.98,15.44,6.98,-6.97,-7.05,-6.16,8.48,8.47,8.47
25.91,15.45,6.99,15.45,6.98,-6.97,-7.04,-6.31,8.48,8.48,8.47
26.16,15.45,6.98,15.45,6.98,-6.98,-7.03,-6.46,8.48,8.47,8.48
26.43,15.45,6.98,15.45,6.98,-6.99,-7.02,-6.61,8.47,8.47,8.47
26.69,15.45,6.98,15.46,6.98,-6.99,-7.01,-6.76,8.46,8.47,8.47
26.96,15.46,6.99,15.46,6.99,-7.00,-7.00,-6.91,8.47,8.47,8.47
27.23,15.47,7.00,15.47,7.00,-7.00,-6.99,-7.05,8.48,8.47,8.47
27.50,15.47,7.00,15.48,7.00,-7.00,-6.98,-7.20,8.48,8.48,8.47
27.77,15.48,7.00,15.48,7.00,-7.00,-6.97,-7.33,8.49,8.48,8.48
28.05,15.47,7.00,15.47,6.99,-6.99,-6.95,-7.47,8.49,8.49,8.48
28.33,15.46,6.98,15.47,6.98,-6.98,-6.94,-7.59,8.49,8.49,8.49
28.62,15.45,6.97,15.45,6.96,-6.96,-6.93,-7.71,8.49,8.49,8.49
28.90,15.43,6.94,15.43,6.94,-6.94,-6.92,-7.83,8.49,8.49,8.49
29.19,15.41,6.92,15.41,6.92,-6.92,-6.91,-7.93,8.49,8.49,8.49
29.48,15.38,6.89,15.38,6.89,-6.89,-6.90,-8.03,8.49,8.49,8.49
29.78,15.35,6.86,15.35,6.87,-6.87,-6.89,-8.11,8.49,8.49,8.49
30.08,15.32,6.84,15.32,6.84,-6.84,-6.88,-8.19,8.49,8.49,8.49
30.38,15.29,6.82,15.29,6.81,-6.81,-6.87,-8.25,8.48,8.48,8.48
30.68,15.26,6.79,15.26,6.79,-6.79,-6.86,-8.30,8.47,8.47,8.47
30.99,15.23,6.76,15.23,6.76,-6.77,-6.85,-8.34,8.47,8.47,8.47
31.30,15.20,6.73,15.21,6.74,-6.75,-6.84,-8.36,8.46,8.46,8.47
31.61,15.19,6.72,15.19,6.73,-6.73,-6.83,-8.38,8.46,8.46,8.47
31.93,15.17,6.73,15.17,6.72,-6.71,-6.82,-8.38,8.46,8.46,8.45
32.24,15.15,6.70,15.15,6.71,-6.70,-6.81,-8.37,8.45,8.46,8.45
32.57,15.13,6.69,15.13,6.69,-6.69,-6.80,-8.35,8.45,8.45,8.44
32.89,15.11,6.67,15.11,6.67,-6.68,-6.79,-8.31,8.44,8.44,8.44
33.22,15.09,6.66,15.10,6.66,-6.67,-6.78,-8.27,8.43,8.43,8.44
33.55,15.08,6.65,15.08,6.65,-6.65,-6.77,-8.22,8.43,8.43,8.44
33.89,15.06,6.64,15.06,6.64,-6.64,-6.76,-8.16,8.43,8.43,8.42
34.23,15.04,6.63,15.04,6.63,-6.62,-6.75,-8.09,8.43,8.43,8.41
34.57,15.01,6.61,15.02,6.61,-6.60,-6.74,-8.02,8.42,8.42,8.41
34.92,14.98,6.59,14.98,6.58,-6.57,-6.73,-7.94,8.41,8.41,8.39
35.27,14.95,6.54,14.95,6.55,-6.55,-6.72,-7.86,8.40,8.40,8.41
35.62,14.91,6.53,14.92,6.52,-6.53,-6.71,-7.77,8.38,8.39,8.39
35.97,14.88,6.50,14.89,6.50,-6.51,-6.70,-7.68,8.37,8.38,8.39
36.33,14.86,6.49,14.86,6.49,-6.50,-6.69,-7.59,8.37,8.36,8.37
36.70,14.83,6.49,14.83,6.48,-6.49,-6.68,-7.50,8.35,8.35,8.35
37.06,14.81,6.48,14.82,6.48,-6.49,-6.67,-7.41,8.33,8.33,8.33
37.43,14.80,6.48,14.80,6.48,-6.49,-6.66,-7.31,8.31,8.31,8.32
37.81,14.80,6.50,14.80,6.50,-6.51,-6.65,-7.22,8.30,8.30,8.31
38.19,14.80,6.52,14.81,6.52,-6.52,-6.64,-7.13,8.28,8.28,8.28
38.57,14.81,6.55,14.81,6.54,-6.54,-6.63,-7.05,8.27,8.27,8.27
38.95,14.81,6.56,14.81,6.56,-6.56,-6.62,-6.96,8.26,8.26,8.25
39.34,14.81,6.58,14.81,6.58,-6.57,-6.61,-6.88,8.24,8.24,8.23
39.74,14.80,6.60,14.80,6.60,-6.59,-6.60,-6.80,8.22,8.22,8.20
40.14,14.79,6.60,14.79,6.60,-6.59,-6.59,-6.73,8.20,8.20,8.19
40.54,14.76,6.59,14.77,6.60,-6.60,-6.58,-6.65,8.17,8.17,8.17
40.94,14.74,6.59,14.74,6.59,-6.60,-6.57,-6.59,8.15,8.15,8.15
41.35,14.71,6.58,14.72,6.59,-6.59,-6.56,-6.52,8.12,8.12,8.13
41.76,14.69,6.59,14.70,6.58,-6.58,-6.55,-6.46,8.11,8.11,8.11
42.18,14.67,6.57,14.67,6.57,-6.57,-6.54,-6.41,8.10,8.10,8.10
42.60,14.64,6.57,14.64,6.56,-6.56,-6.53,-6.36,8.09,8.08,8.07
43.03,14.60,6.55,14.61,6.55,-6.54,-6.52,-6.31,8.06,8.06,8.06
43.46,14.56,6.53,14.56,6.53,-6.53,-6.51,-6.27,8.04,8.04,8.03
43.90,14.52,6.51,14.52,6.51,-6.51,-6.50,-6.24,8.01,8.01,8.01
44.33,14.47,6.49,14.48,6.49,-6.50,-6.49,-6.20,7.98,7.98,7.99
44.78,14.44,6.47,14.44,6.47,-6.48,-6.48,-6.18,7.96,7.96,7.97
45.23,14.40,6.45,14.41,6.46,-6.47,-6.47,-6.15,7.94,7.94,7.95
45.68,14.37,6.46,14.37,6.45,-6.45,-6.46,-6.14,7.92,7.92,7.91
46.13,14.33,6.45,14.33,6.45,-6.44,-6.46,-6.12,7.89,7.89,7.88
46.60,14.29,6.44,14.30,6.44,-6.44,-6.45,-6.12,7.86,7.86,7.86
47.06,14.25,6.43,14.25,6.43,-6.43,-6.44,-6.11,7.82,7.82,7.83
47.53,14.21,6.42,14.21,6.42,-6.42,-6.43,-6.11,7.79,7.79,7.80
48.01,14.16,6.42,14.17,6.41,-6.42,-6.42,-6.11,7.75,7.75,7.75
48.49,14.12,6.41,14.12,6.41,-6.41,-6.41,-6.12,7.72,7.72,7.72
48.97,14.08,6.41,14.08,6.40,-6.40,-6.40,-6.13,7.68,7.68,7.68
49.46,14.03,6.39,14.03,6.39,-6.39,-6.39,-6.15,7.64,7.64,7.65
49.96,13.98,6.39,13.99,6.38,-6.38,-6.38,-6.17,7.60,7.61,7.59
50.46,13.94,6.37,13.94,6.37,-6.37,-6.37,-6.19,7.57,7.57,7.57
50.96,13.89,6.35,13.90,6.36,-6.36,-6.36,-6.21,7.53,7.54,7.54
51.47,13.85,6.35,13.85,6.35,-6.35,-6.35,-6.24,7.50,7.50,7.51
51.99,13.81,6.35,13.81,6.34,-6.34,-6.34,-6.27,7.47,7.47,7.46
52.51,13.77,6.33,13.77,6.33,-6.33,-6.33,-6.30,7.44,7.44,7.44
53.03,13.73,6.32,13.73,6.32,-6.33,-6.32,-6.33,7.41,7.41,7.42
53.56,13.69,6.31,13.69,6.31,-6.32,-6.31,-6.37,7.37,7.37,7.38
54.10,13.65,6.32,13.66,6.31,-6.31,-6.30,-6.40,7.34,7.34,7.34
54.64,13.62,6.31,13.62,6.31,-6.31,-6.29,-6.43,7.32,7.31,7.31
55.18,13.58,6.31,13.59,6.31,-6.30,-6.28,-6.47,7.28,7.28,7.28
55.74,13.55,6.31,13.55,6.30,-6.30,-6.27,-6.50,7.26,7.25,7.24
56.29,13.50,6.28,13.51,6.29,-6.29,-6.26,-6.53,7.22,7.22,7.22
56.86,13.46,6.27,13.47,6.28,-6.28,-6.25,-6.56,7.19,7.19,7.19
57.42,13.42,6.27,13.43,6.27,-6.27,-6.24,-6.58,7.16,7.16,7.16
58.00,13.39,6.27,13.39,6.26,-6.26,-6.23,-6.61,7.14,7.13,7.13
58.58,13.35,6.25,13.36,6.25,-6.25,-6.22,-6.62,7.10,7.11,7.11
59.16,13.32,6.24,13.32,6.24,-6.25,-6.20,-6.64,7.08,7.08,7.09
59.76,13.29,6.24,13.29,6.23,-6.25,-6.19,-6.65,7.05,7.04,7.06
60.35,13.25,6.24,13.25,6.24,-6.25,-6.18,-6.66,7.01,7.01,7.01
60.96,13.21,6.24,13.22,6.25,-6.25,-6.17,-6.66,6.96,6.97,6.97
61.57,13.18,6.26,13.18,6.26,-6.25,-6.16,-6.65,6.93,6.93,6.92
62.18,13.14,6.27,13.14,6.27,-6.26,-6.15,-6.64,6.89,6.89,6.88
62.80,13.10,6.27,13.10,6.27,-6.26,-6.14,-6.63,6.84,6.84,6.83
63.43,13.05,6.27,13.05,6.26,-6.26,-6.13,-6.60,6.79,6.79,6.79
64.07,13.00,6.25,13.01,6.26,-6.27,-6.11,-6.58,6.74,6.74,6.75
64.71,12.96,6.25,12.97,6.26,-6.26,-6.10,-6.54,6.70,6.71,6.71
65.35,12.93,6.26,12.93,6.25,-6.25,-6.09,-6.51,6.68,6.68,6.68
66.01,12.89,6.26,12.89,6.25,-6.24,-6.08,-6.46,6.65,6.65,6.64
66.67,12.84,6.23,12.84,6.24,-6.23,-6.07,-6.42,6.62,6.61,6.61
67.33,12.78,6.22,12.78,6.22,-6.21,-6.05,-6.36,6.57,6.57,6.56
68.01,12.71,6.18,12.72,6.19,-6.20,-6.04,-6.31,6.52,6.52,6.53
68.69,12.66,6.18,12.66,6.17,-6.18,-6.03,-6.25,6.48,6.48,6.49
69.37,12.60,6.15,12.61,6.15,-6.16,-6.01,-6.19,6.44,6.44,6.46
70.07,12.55,6.14,12.55,6.14,-6.15,-6.00,-6.12,6.41,6.41,6.41
70.77,12.50,6.13,12.50,6.13,-6.13,-5.99,-6.06,6.37,6.37,6.37
71.48,12.44,6.11,12.45,6.12,-6.11,-5.98,-5.99,6.33,6.33,6.33
72.19,12.39,6.10,12.39,6.10,-6.10,-5.96,-5.92,6.29,6.29,6.29
72.91,12.33,6.09,12.33,6.09,-6.08,-5.95,-5.85,6.25,6.25,6.24
73.64,12.27,6.07,12.27,6.07,-6.07,-5.93,-5.78,6.21,6.21,6.21
74.38,12.21,6.05,12.21,6.04,-6.04,-5.92,-5.72,6.17,6.17,6.17
75.12,12.15,6.02,12.15,6.02,-6.02,-5.91,-5.65,6.13,6.13,6.14
75.87,12.09,5.99,12.10,5.99,-5.99,-5.89,-5.58,6.10,6.10,6.11
76.63,12.04,5.98,12.04,5.97,-5.97,-5.88,-5.52,6.08,6.08,6.07
77.40,11.98,5.94,11.98,5.94,-5.94,-5.86,-5.45,6.05,6.05,6.05
78.17,11.92,5.92,11.92,5.91,-5.91,-5.85,-5.39,6.02,6.02,6.00
78.95,11.85,5.86,11.86,5.87,-5.87,-5.83,-5.33,5.98,5.98,5.99
79.74,11.79,5.84,11.79,5.84,-5.84,-5.82,-5.28,5.95,5.95,5.96
80.54,11.73,5.80,11.74,5.81,-5.81,-5.80,-5.23,5.92,5.93,5.93
81.35,11.68,5.79,11.68,5.78,-5.78,-5.78,-5.18,5.91,5.90,5.90
82.16,11.62,5.74,11.62,5.75,-5.75,-5.77,-5.13,5.88,5.88,5.88
82.98,11.56,5.72,11.56,5.72,-5.72,-5.75,-5.08,5.85,5.84,5.84
83.81,11.49,5.68,11.50,5.68,-5.69,-5.73,-5.04,5.80,5.81,5.81
84.65,11.43,5.66,11.44,5.66,-5.66,-5.72,-5.01,5.77,5.77,5.78
85.50,11.38,5.64,11.38,5.64,-5.64,-5.70,-4.98,5.75,5.74,5.75
86.35,11.33,5.62,11.33,5.62,-5.61,-5.68,-4.95,5.72,5.72,5.72
87.22,11.27,5.59,11.28,5.59,-5.59,-5.67,-4.92,5.68,5.69,5.68
88.09,11.22,5.57,11.22,5.57,-5.57,-5.65,-4.90,5.65,5.65,5.65
88.97,11.17,5.55,11.17,5.55,-5.55,-5.63,-4.88,5.63,5.62,5.62
89.86,11.11,5.53,11.12,5.53,-5.53,-5.61,-4.86,5.59,5.59,5.59
90.76,11.06,5.51,11.06,5.51,-5.51,-5.59,-4.85,5.56,5.55,5.55
91.66,11.00,5.49,11.01,5.49,-5.49,-5.57,-4.85,5.51,5.52,5.51
92.58,10.95,5.47,10.95,5.47,-5.47,-5.55,-4.84,5.48,5.48,5.49
93.51,10.90,5.45,10.90,5.45,-5.46,-5.53,-4.84,5.44,5.44,5.45
94.44,10.85,5.44,10.86,5.44,-5.45,-5.51,-4.84,5.41,5.41,5.42
95.39,10.81,5.44,10.81,5.43,-5.44,-5.49,-4.85,5.38,5.37,5.37
96.34,10.75,5.42,10.76,5.43,-5.43,-5.47,-4.86,5.33,5.33,5.33
97.30,10.71,5.42,10.71,5.42,-5.42,-5.45,-4.87,5.30,5.30,5.30
98.28,10.66,5.41,10.66,5.41,-5.41,-5.43,-4.89,5.26,5.26,5.25
99.26,10.61,5.40,10.61,5.40,-5.39,-5.41,-4.90,5.22,5.22,5.21
100.25,10.55,5.38,10.56,5.38,-5.37,-5.39,-4.92,5.18,5.18,5.18
101.25,10.50,5.35,10.50,5.36,-5.35,-5.37,-4.95,5.15,5.15,5.15
102.27,10.45,5.33,10.45,5.33,-5.33,-5.35,-4.97,5.12,5.12,5.12
103.29,10.39,5.31,10.39,5.31,-5.31,-5.32,-5.00,5.09,5.09,5.08
104.32,10.33,5.28,10.33,5.27,-5.28,-5.30,-5.02,5.06,5.05,5.06
105.37,10.26,5.24,10.27,5.24,-5.25,-5.28,-5.05,5.02,5.02,5.03
106.42,10.20,5.20,10.21,5.21,-5.22,-5.25,-5.08,4.99,4.99,5.00
107.48,10.15,5.19,10.15,5.19,-5.18,-5.23,-5.11,4.97,4.97,4.96
108.56,10.10,5.17,10.09,5.16,-5.15,-5.21,-5.14,4.95,4.94,4.93
109.64,10.02,5.12,10.03,5.13,-5.12,-5.18,-5.17,4.90,4.91,4.91
110.74,9.95,5.08,9.95,5.08,-5.09,-5.16,-5.19,4.87,4.87,4.87
111.85,9.88,5.05,9.88,5.05,-5.06,-5.13,-5.22,4.83,4.83,4.83
112.97,9.81,5.01,9.82,5.02,-5.03,-5.11,-5.24,4.79,4.79,4.80
114.10,9.76,5.00,9.76,5.00,-5.00,-5.08,-5.26,4.77,4.76,4.77
115.24,9.70,4.98,9.70,4.97,-4.97,-5.06,-5.28,4.73,4.73,4.72
116.39,9.63,4.95,9.63,4.95,-4.94,-5.03,-5.30,4.69,4.69,4.69
117.55,9.56,4.91,9.57,4.92,-4.92,-5.00,-5.31,4.65,4.65,4.65
118.73,9.50,4.89,9.51,4.89,-4.89,-4.98,-5.32,4.62,4.62,4.62
119.92,9.45,4.86,9.45,4.86,-4.86,-4.95,-5.32,4.59,4.59,4.59
121.12,9.40,4.84,9.40,4.83,-4.83,-4.92,-5.32,4.57,4.57,4.57
122.33,9.33,4.80,9.34,4.80,-4.80,-4.89,-5.31,4.53,4.54,4.53
123.55,9.27,4.76,9.28,4.77,-4.77,-4.87,-5.30,4.50,4.51,4.51
124.79,9.21,4.74,9.21,4.73,-4.74,-4.84,-5.28,4.47,4.47,4.48
126.03,9.15,4.71,9.15,4.71,-4.71,-4.81,-5.26,4.44,4.44,4.45
127.29,9.09,4.68,9.09,4.68,-4.68,-4.78,-5.23,4.41,4.41,4.42
128.57,9.03,4.66,9.03,4.65,-4.65,-4.75,-5.20,4.38,4.38,4.37
129.85,8.96,4.62,8.96,4.62,-4.62,-4.72,-5.16,4.34,4.34,4.34
131.15,8.89,4.59,8.90,4.59,-4.59,-4.69,-5.11,4.31,4.31,4.31
132.46,8.83,4.56,8.83,4.56,-4.55,-4.66,-5.06,4.28,4.28,4.28
133.79,8.77,4.53,8.77,4.52,-4.52,-4.63,-5.01,4.26,4.25,4.24
135.12,8.69,4.48,8.69,4.48,-4.48,-4.59,-4.95,4.21,4.21,4.21
136.48,8.61,4.43,8.62,4.44,-4.44,-4.56,-4.89,4.17,4.18,4.19
137.84,8.54,4.39,8.54,4.39,-4.40,-4.53,-4.83,4.15,4.15,4.15
139.22,8.47,4.36,8.47,4.35,-4.35,-4.50,-4.76,4.12,4.13,4.12
140.61,8.40,4.31,8.40,4.31,-4.30,-4.46,-4.69,4.10,4.10,4.09
142.02,8.33,4.27,8.33,4.26,-4.25,-4.43,-4.62,4.08,4.07,4.06
143.44,8.24,4.20,8.25,4.21,-4.21,-4.40,-4.55,4.04,4.04,4.04
144.87,8.16,4.14,8.17,4.15,-4.16,-4.36,-4.47,4.00,4.01,4.02
146.32,8.09,4.10,8.09,4.10,-4.11,-4.33,-4.40,3.98,3.98,3.99
147.78,8.03,4.06,8.03,4.07,-4.07,-4.29,-4.32,3.96,3.96,3.97
149.26,7.97,4.03,7.98,4.03,-4.03,-4.26,-4.24,3.94,3.94,3.94
150.75,7.92,4.01,7.92,4.00,-4.00,-4.22,-4.17,3.93,3.92,3.91
152.26,7.86,3.97,7.87,3.97,-3.97,-4.18,-4.09,3.89,3.90,3.90
153.78,7.81,3.94,7.81,3.94,-3.94,-4.15,-4.02,3.87,3.87,3.87
155.32,7.76,3.92,7.77,3.92,-3.92,-4.11,-3.94,3.84,3.84,3.85
156.88,7.72,3.90,7.72,3.90,-3.90,-4.07,-3.87,3.82,3.82,3.82
158.44,7.67,3.88,7.68,3.88,-3.88,-4.04,-3.80,3.79,3.79,3.79
160.03,7.63,3.87,7.63,3.87,-3.87,-4.00,-3.73,3.77,3.77,3.77
161.63,7.59,3.86,7.59,3.85,-3.85,-3.96,-3.66,3.74,3.74,3.73
163.24,7.54,3.84,7.54,3.84,-3.84,-3.92,-3.60,3.71,3.71,3.70
164.88,7.49,3.82,7.49,3.82,-3.83,-3.88,-3.53,3.67,3.67,3.67
166.53,7.44,3.81,7.45,3.80,-3.81,-3.84,-3.47,3.63,3.64,3.64
168.19,7.40,3.79,7.41,3.80,-3.80,-3.80,-3.41,3.61,3.61,3.62
169.87,7.36,3.78,7.36,3.79,-3.78,-3.76,-3.36,3.58,3.58,3.58
171.57,7.32,3.78,7.32,3.77,-3.76,-3.72,-3.30,3.56,3.56,3.54
173.29,7.26,3.75,7.26,3.75,-3.74,-3.68,-3.25,3.52,3.52,3.52
175.02,7.20,3.72,7.21,3.72,-3.73,-3.64,-3.20,3.48,3.48,3.48
176.77,7.14,3.70,7.15,3.70,-3.71,-3.59,-3.15,3.44,3.44,3.45
178.54,7.09,3.68,7.09,3.68,-3.69,-3.55,-3.11,3.41,3.40,3.41
180.32,7.03,3.66,7.04,3.66,-3.66,-3.51,-3.06,3.37,3.37,3.37
182.13,6.98,3.64,6.99,3.64,-3.64,-3.46,-3.02,3.34,3.34,3.35
183.95,6.93,3.62,6.93,3.62,-3.62,-3.42,-2.99,3.31,3.31,3.32
185.79,6.88,3.61,6.88,3.60,-3.60,-3.38,-2.95,3.29,3.28,3.27
187.65,6.82,3.58,6.82,3.58,-3.58,-3.33,-2.92,3.25,3.25,3.24
189.52,6.75,3.54,6.76,3.55,-3.55,-3.29,-2.89,3.20,3.21,3.21
191.42,6.70,3.52,6.70,3.52,-3.52,-3.24,-2.86,3.18,3.18,3.18
193.33,6.64,3.49,6.64,3.49,-3.49,-3.20,-2.83,3.16,3.15,3.16
195.27,6.57,3.46,6.57,3.45,-3.45,-3.15,-2.80,3.13,3.13,3.12
197.22,6.49,3.41,6.50,3.41,-3.40,-3.10,-2.78,3.09,3.09,3.08
199.19,6.42,3.36,6.42,3.36,-3.36,-3.06,-2.76,3.07,3.06,3.06
201.18,6.34,3.32,6.34,3.31,-3.31,-3.01,-2.74,3.04,3.03,3.03
203.19,6.26,3.25,6.26,3.25,-3.25,-2.96,-2.72,3.01,3.01,3.01
205.23,6.18,3.19,6.18,3.19,-3.20,-2.92,-2.70,2.99,2.99,3.00
207.28,6.10,3.13,6.11,3.14,-3.14,-2.87,-2.68,2.97,2.97,2.97
209.35,6.03,3.09,6.03,3.08,-3.08,-2.82,-2.67,2.96,2.95,2.95
211.44,5.95,3.03,5.95,3.02,-3.02,-2.77,-2.65,2.93,2.93,2.92
213.56,5.86,2.95,5.86,2.96,-2.96,-2.72,-2.64,2.90,2.90,2.91
215.69,5.77,2.89,5.78,2.89,-2.90,-2.67,-2.62,2.87,2.88,2.89
217.85,5.70,2.84,5.70,2.84,-2.84,-2.62,-2.61,2.86,2.86,2.87
220.03,5.63,2.79,5.63,2.78,-2.78,-2.57,-2.59,2.85,2.85,2.84
222.23,5.55,2.73,5.55,2.73,-2.72,-2.52,-2.57,2.84,2.83,2.82
224.45,5.46,2.65,5.47,2.66,-2.66,-2.47,-2.56,2.81,2.81,2.81
226.70,5.38,2.59,5.39,2.59,-2.60,-2.42,-2.54,2.79,2.79,2.79
228.96,5.31,2.52,5.31,2.53,-2.53,-2.36,-2.52,2.78,2.78,2.79
231.25,5.24,2.47,5.24,2.47,-2.47,-2.31,-2.50,2.77,2.77,2.77
233.57,5.16,2.40,5.17,2.41,-2.40,-2.26,-2.48,2.76,2.76,2.76
235.90,5.09,2.34,5.09,2.35,-2.34,-2.21,-2.45,2.75,2.75,2.75
238.26,5.02,2.29,5.02,2.28,-2.28,-2.15,-2.43,2.75,2.74,2.73
240.64,4.94,2.20,4.95,2.21,-2.21,-2.10,-2.40,2.73,2.74,2.74
243.05,4.87,2.14,4.88,2.15,-2.15,-2.05,-2.37,2.73,2.73,2.74
245.48,4.81,2.09,4.81,2.08,-2.08,-1.99,-2.33,2.73,2.73,2.73
247.93,4.75,2.03,4.75,2.02,-2.02,-1.94,-2.30,2.73,2.73,2.72
250.41,4.68,1.95,4.68,1.95,-1.96,-1.88,-2.26,2.73,2.73,2.73
252.92,4.61,1.88,4.62,1.89,-1.89,-1.83,-2.22,2.72,2.73,2.74
255.45,4.56,1.84,4.56,1.83,-1.83,-1.77,-2.17,2.73,2.73,2.73
258.00,4.51,1.78,4.51,1.77,-1.77,-1.72,-2.12,2.74,2.74,2.73
260.58,4.45,1.72,4.45,1.72,-1.71,-1.66,-2.07,2.74,2.74,2.74
263.19,4.38,1.64,4.39,1.65,-1.65,-1.60,-2.02,2.73,2.73,2.74
265.82,4.32,1.59,4.33,1.59,-1.59,-1.55,-1.96,2.73,2.73,2.73
268.48,4.27,1.54,4.27,1.54,-1.53,-1.49,-1.90,2.74,2.74,2.74
271.16,4.22,1.48,4.22,1.48,-1.47,-1.43,-1.84,2.75,2.74,2.74
273.87,4.15,1.42,4.15,1.41,-1.41,-1.37,-1.78,2.74,2.74,2.74
276.61,4.08,1.34,4.09,1.35,-1.35,-1.31,-1.71,2.74,2.74,2.74
279.38,4.01,1.29,4.02,1.28,-1.28,-1.26,-1.65,2.73,2.73,2.73
282.17,3.95,1.22,3.95,1.22,-1.22,-1.20,-1.58,2.74,2.74,2.73
284.99,3.89,1.15,3.90,1.15,-1.15,-1.14,-1.50,2.74,2.74,2.75
287.84,3.84,1.09,3.84,1.09,-1.09,-1.08,-1.43,2.76,2.75,2.75
290.72,3.77,1.02,3.78,1.02,-1.02,-1.02,-1.36,2.75,2.76,2.75
293.63,3.71,0.95,3.71,0.95,-0.95,-0.96,-1.28,2.76,2.76,2.77
296.57,3.65,0.88,3.66,0.89,-0.89,-0.90,-1.21,2.76,2.77,2.77
299.53,3.60,0.83,3.60,0.82,-0.82,-0.84,-1.13,2.78,2.78,2.78
302.53,3.55,0.76,3.55,0.76,-0.76,-0.78,-1.05,2.80,2.79,2.79
305.55,3.49,0.70,3.49,0.70,-0.69,-0.72,-0.97,2.80,2.80,2.79
308.61,3.43,0.63,3.43,0.63,-0.63,-0.66,-0.89,2.81,2.81,2.81
311.69,3.37,0.56,3.37,0.56,-0.56,-0.60,-0.81,2.81,2.81,2.81
314.81,3.31,0.49,3.32,0.49,-0.50,-0.53,-0.73,2.81,2.82,2.82
317.96,3.26,0.44,3.26,0.43,-0.43,-0.47,-0.65,2.83,2.83,2.83
321.14,3.21,0.37,3.21,0.37,-0.37,-0.41,-0.57,2.85,2.84,2.85
324.35,3.15,0.31,3.16,0.31,-0.30,-0.35,-0.48,2.85,2.85,2.84
327.59,3.10,0.23,3.10,0.24,-0.24,-0.29,-0.40,2.87,2.86,2.87
330.87,3.04,0.18,3.04,0.17,-0.17,-0.22,-0.32,2.87,2.87,2.87
334.18,2.98,0.11,2.99,0.11,-0.11,-0.16,-0.24,2.88,2.88,2.88
337.52,2.92,0.04,2.93,0.04,-0.04,-0.10,-0.15,2.88,2.88,2.88
340.90,2.87,-0.03,2.87,-0.03,0.02,-0.03,-0.07,2.90,2.90,2.90
344.30,2.81,-0.09,2.82,-0.09,0.09,0.03,0.01,2.90,2.90,2.91
347.75,2.76,-0.15,2.76,-0.16,0.15,0.09,0.10,2.92,2.91,2.92
351.23,2.70,-0.21,2.71,-0.22,0.22,0.16,0.18,2.92,2.92,2.91
354.74,2.65,-0.29,2.65,-0.28,0.28,0.22,0.26,2.93,2.93,2.94
358.28,2.60,-0.34,2.60,-0.34,0.34,0.29,0.35,2.95,2.94,2.94
361.87,2.54,-0.41,2.55,-0.40,0.40,0.35,0.43,2.95,2.95,2.95
365.49,2.49,-0.46,2.49,-0.47,0.46,0.41,0.52,2.96,2.96,2.96
369.14,2.44,-0.53,2.44,-0.53,0.53,0.48,0.60,2.97,2.97,2.98
372.83,2.39,-0.59,2.39,-0.59,0.59,0.54,0.69,2.98,2.98,2.98
376.56,2.34,-0.64,2.34,-0.65,0.65,0.61,0.77,3.00,2.99,2.98
380.33,2.28,-0.71,2.28,-0.71,0.71,0.67,0.86,3.00,3.00,2.99
384.13,2.22,-0.79,2.23,-0.78,0.78,0.74,0.94,3.00,3.00,3.01
387.97,2.17,-0.84,2.17,-0.84,0.84,0.80,1.03,3.01,3.01,3.02
391.85,2.12,-0.90,2.12,-0.90,0.90,0.87,1.12,3.03,3.03,3.03
395.77,2.07,-0.96,2.07,-0.96,0.97,0.93,1.20,3.04,3.04,3.04
399.73,2.02,-1.02,2.02,-1.03,1.03,1.00,1.29,3.05,3.05,3.04
403.72,1.97,-1.10,1.97,-1.09,1.09,1.06,1.37,3.07,3.06,3.07
407.76,1.91,-1.16,1.92,-1.16,1.16,1.13,1.46,3.07,3.07,3.07
411.84,1.86,-1.22,1.87,-1.22,1.22,1.19,1.54,3.08,3.08,3.08
415.96,1.81,-1.29,1.81,-1.28,1.28,1.25,1.63,3.10,3.10,3.10
420.12,1.76,-1.34,1.76,-1.34,1.35,1.32,1.71,3.11,3.11,3.10
424.32,1.70,-1.40,1.70,-1.41,1.41,1.38,1.79,3.12,3.11,3.11
428.56,1.64,-1.48,1.65,-1.48,1.48,1.45,1.87,3.12,3.12,3.13
432.85,1.58,-1.55,1.59,-1.55,1.54,1.51,1.95,3.13,3.13,3.14
437.18,1.53,-1.60,1.53,-1.61,1.61,1.58,2.03,3.14,3.14,3.14
441.55,1.47,-1.67,1.47,-1.67,1.68,1.64,2.11,3.15,3.15,3.15
445.96,1.41,-1.74,1.41,-1.74,1.75,1.70,2.18,3.16,3.16,3.15
450.42,1.35,-1.81,1.35,-1.81,1.82,1.77,2.25,3.17,3.17,3.16
454.93,1.29,-1.88,1.29,-1.88,1.88,1.83,2.32,3.18,3.18,3.17
459.48,1.23,-1.95,1.23,-1.95,1.95,1.89,2.39,3.18,3.18,3.18
464.07,1.17,-2.03,1.18,-2.02,2.01,1.96,2.45,3.19,3.19,3.20
468.71,1.12,-2.09,1.13,-2.08,2.07,2.02,2.51,3.20,3.20,3.21
473.40,1.08,-2.14,1.08,-2.14,2.13,2.08,2.57,3.22,3.22,3.22
478.13,1.04,-2.19,1.04,-2.19,2.19,2.14,2.62,3.23,3.23,3.23
482.91,1.00,-2.24,1.00,-2.24,2.24,2.21,2.67,3.25,3.25,3.24
487.74,0.95,-2.30,0.96,-2.29,2.30,2.27,2.71,3.25,3.25,3.25
492.62,0.91,-2.34,0.91,-2.34,2.35,2.33,2.75,3.26,3.26,3.26
497.55,0.87,-2.39,0.87,-2.40,2.40,2.39,2.79,3.27,3.27,3.27
502.52,0.83,-2.44,0.83,-2.45,2.45,2.45,2.83,3.28,3.28,3.28
507.55,0.79,-2.50,0.80,-2.50,2.49,2.51,2.85,3.29,3.29,3.30
512.62,0.76,-2.54,0.76,-2.55,2.54,2.57,2.88,3.30,3.30,3.31
517.75,0.73,-2.59,0.74,-2.59,2.58,2.62,2.90,3.31,3.31,3.33
