frequency,raw,error,smoothed,error_smoothed,equalization,parametric_eq,equalized_raw,equalized_smoothed,target
20.00,-9.60,-13.58,-9.60,-13.58,6.00,2.77,-3.60,-3.60,3.98
20.20,-9.52,-13.50,-9.52,-13.50,6.00,2.85,-3.52,-3.52,3.98
20.40,-9.44,-13.42,-9.44,-13.42,6.00,2.93,-3.44,-3.44,3.98
20.61,-9.36,-13.34,-9.36,-13.33,6.00,3.01,-3.36,-3.36,3.98
20.81,-9.27,-13.25,-9.27,-13.25,6.00,3.10,-3.27,-3.27,3.98
21.02,-9.19,-13.17,-9.19,-13.16,6.00,3.18,-3.19,-3.19,3.98
21.23,-9.09,-13.07,-9.10,-13.08,6.00,3.28,-3.09,-3.10,3.97
21.44,-9.01,-12.99,-9.02,-12.99,6.00,3.37,-3.01,-3.02,3.97
21.66,-8.93,-12.91,-8.93,-12.90,6.00,3.47,-2.93,-2.93,3.97
21.87,-8.84,-12.81,-8.84,-12.81,6.00,3.56,-2.84,-2.84,3.97
22.09,-8.75,-12.72,-8.75,-12.73,6.00,3.67,-2.75,-2.75,3.97
22.31,-8.66,-12.63,-8.67,-12.63,6.00,3.77,-2.66,-2.67,3.97
22.54,-8.58,-12.55,-8.58,-12.54,6.00,3.88,-2.58,-2.58,3.97
22.76,-8.48,-12.45,-8.49,-12.45,6.00,3.99,-2.48,-2.49,3.97
22.99,-8.39,-12.36,-8.39,-12.36,6.00,4.10,-2.39,-2.39,3.97
23.22,-8.30,-12.27,-8.30,-12.27,6.00,4.21,-2.30,-2.30,3.96
23.45,-8.21,-12.18,-8.21,-12.17,6.00,4.33,-2.21,-2.21,3.96
23.69,-8.11,-12.08,-8.12,-12.08,6.00,4.45,-2.11,-2.12,3.96
23.92,-8.02,-11.98,-8.02,-11.98,6.00,4.58,-2.02,-2.02,3.96
24.16,-7.92,-11.88,-7.92,-11.88,6.00,4.70,-1.92,-1.92,3.96
24.40,-7.83,-11.79,-7.83,-11.78,6.00,4.83,-1.83,-1.83,3.96
24.65,-7.73,-11.69,-7.73,-11.68,6.00,4.96,-1.73,-1.73,3.96
24.89,-7.63,-11.59,-7.63,-11.58,6.00,5.09,-1.63,-1.63,3.96
25.14,-7.52,-11.48,-7.53,-11.48,6.00,5.22,-1.52,-1.53,3.95
25.39,-7.42,-11.37,-7.43,-11.38,6.00,5.35,-1.42,-1.43,3.95
25.65,-7.32,-11.27,-7.33,-11.28,6.00,5.49,-1.32,-1.33,3.95
25.91,-7.22,-11.17,-7.22,-11.17,6.00,5.62,-1.22,-1.22,3.95
26.16,-7.12,-11.07,-7.12,-11.07,6.00,5.76,-1.12,-1.12,3.95
26.43,-7.02,-10.97,-7.02,-10.96,6.00,5.89,-1.02,-1.02,3.95
26.69,-6.91,-10.86,-6.92,-10.86,6.00,6.02,-0.91,-0.92,3.94
26.96,-6.81,-10.76,-6.81,-10.75,6.00,6.16,-0.81,-0.81,3.94
27.23,-6.70,-10.64,-6.71,-10.65,6.00,6.28,-0.70,-0.71,3.94
27.50,-6.61,-10.55,-6.61,-10.54,6.00,6.41,-0.61,-0.61,3.94
27.77,-6.50,-10.44,-6.50,-10.44,6.00,6.53,-0.50,-0.50,3.94
28.05,-6.39,-10.33,-6.40,-10.33,6.00,6.65,-0.39,-0.40,3.93
28.33,-6.29,-10.22,-6.30,-10.23,6.00,6.76,-0.29,-0.30,3.93
28.62,-6.18,-10.12,-6.19,-10.12,6.00,6.87,-0.18,-0.19,3.93
28.90,-6.09,-10.02,-6.09,-10.02,6.00,6.97,-0.09,-0.09,3.93
29.19,-5.99,-9.92,-5.98,-9.91,6.00,7.06,0.01,0.02,3.93
29.48,-5.88,-9.81,-5.88,-9.81,6.00,7.14,0.12,0.12,3.92
29.78,-5.78,-9.71,-5.78,-9.70,6.00,7.21,0.22,0.22,3.92
30.08,-5.68,-9.60,-5.68,-9.60,6.00,7.27,0.32,0.32,3.92
30.38,-5.58,-9.50,-5.58,-9.50,6.00,7.33,0.42,0.42,3.92
30.68,-5.47,-9.39,-5.48,-9.40,6.00,7.37,0.53,0.52,3.91
30.99,-5.37,-9.29,-5.38,-9.29,6.00,7.40,0.63,0.62,3.91
31.30,-5.28,-9.19,-5.29,-9.19,6.00,7.41,0.72,0.71,3.91
31.61,-5.18,-9.09,-5.19,-9.10,6.00,7.42,0.82,0.81,3.91
31.93,-5.09,-9.00,-5.10,-9.00,6.00,7.42,0.91,0.90,3.90
32.24,-5.00,-8.90,-5.00,-8.90,6.00,7.40,1.00,1.00,3.90
32.57,-4.91,-8.81,-4.91,-8.80,6.00,7.37,1.09,1.09,3.90
32.89,-4.82,-8.72,-4.82,-8.71,6.00,7.33,1.18,1.18,3.89
33.22,-4.72,-8.61,-4.72,-8.61,6.00,7.29,1.28,1.28,3.89
33.55,-4.63,-8.52,-4.63,-8.52,6.00,7.23,1.37,1.37,3.89
33.89,-4.54,-8.43,-4.54,-8.42,6.00,7.17,1.46,1.46,3.88
34.23,-4.45,-8.33,-4.45,-8.33,6.00,7.09,1.55,1.55,3.88
34.57,-4.36,-8.24,-4.36,-8.23,6.00,7.02,1.64,1.64,3.88
34.92,-4.27,-8.15,-4.27,-8.14,6.00,6.93,1.73,1.73,3.87
35.27,-4.17,-8.04,-4.18,-8.05,6.00,6.84,1.83,1.82,3.87
35.62,-4.08,-7.95,-4.09,-7.95,6.00,6.75,1.92,1.91,3.86
35.97,-4.00,-7.86,-4.00,-7.86,6.00,6.66,2.00,2.00,3.86
36.33,-3.90,-7.76,-3.91,-7.77,6.00,6.56,2.10,2.09,3.86
36.70,-3.83,-7.69,-3.83,-7.68,6.00,6.46,2.17,2.17,3.85
37.06,-3.73,-7.58,-3.74,-7.59,6.00,6.36,2.27,2.26,3.85
37.43,-3.65,-7.50,-3.65,-7.50,6.00,6.26,2.35,2.35,3.84
37.81,-3.57,-7.41,-3.57,-7.41,6.00,6.16,2.43,2.43,3.84
38.19,-3.48,-7.32,-3.49,-7.32,6.00,6.06,2.52,2.51,3.83
38.57,-3.40,-7.23,-3.40,-7.23,6.00,5.96,2.60,2.60,3.83
38.95,-3.32,-7.15,-3.32,-7.14,6.00,5.86,2.68,2.68,3.82
39.34,-3.24,-7.06,-3.24,-7.06,6.00,5.77,2.76,2.76,3.82
39.74,-3.16,-6.98,-3.16,-6.97,6.00,5.67,2.84,2.84,3.81
40.14,-3.08,-6.89,-3.08,-6.89,6.00,5.58,2.92,2.92,3.81
40.54,-3.00,-6.81,-3.00,-6.80,6.00,5.49,3.00,3.00,3.80
40.94,-2.92,-6.72,-2.92,-6.72,6.00,5.41,3.08,3.08,3.80
41.35,-2.84,-6.63,-2.85,-6.64,6.00,5.33,3.16,3.15,3.79
41.76,-2.76,-6.55,-2.77,-6.55,6.00,5.25,3.24,3.23,3.78
42.18,-2.69,-6.47,-2.69,-6.47,6.00,5.18,3.31,3.31,3.78
42.60,-2.62,-6.39,-2.62,-6.39,6.00,5.11,3.38,3.38,3.77
43.03,-2.54,-6.31,-2.54,-6.31,6.00,5.04,3.46,3.46,3.76
43.46,-2.47,-6.23,-2.47,-6.22,5.99,4.98,3.52,3.52,3.76
43.90,-2.39,-6.14,-2.39,-6.14,5.97,4.92,3.58,3.58,3.75
44.33,-2.32,-6.06,-2.32,-6.06,5.94,4.86,3.62,3.62,3.74
44.78,-2.25,-5.99,-2.25,-5.98,5.91,4.81,3.65,3.66,3.73
45.23,-2.18,-5.91,-2.18,-5.91,5.86,4.76,3.68,3.68,3.73
45.68,-2.11,-5.83,-2.11,-5.83,5.81,4.71,3.69,3.69,3.72
46.13,-2.03,-5.74,-2.04,-5.75,5.74,4.67,3.71,3.70,3.71
46.60,-1.97,-5.67,-1.97,-5.67,5.67,4.63,3.70,3.70,3.70
47.06,-1.90,-5.60,-1.91,-5.60,5.60,4.60,3.70,3.69,3.69
47.53,-1.84,-5.53,-1.84,-5.53,5.53,4.57,3.68,3.68,3.68
48.01,-1.77,-5.45,-1.78,-5.45,5.45,4.54,3.68,3.67,3.67
48.49,-1.71,-5.38,-1.72,-5.38,5.38,4.51,3.67,3.66,3.66
48.97,-1.65,-5.31,-1.66,-5.31,5.31,4.49,3.66,3.65,3.65
49.46,-1.60,-5.25,-1.59,-5.24,5.24,4.47,3.64,3.64,3.64
49.96,-1.54,-5.18,-1.54,-5.17,5.17,4.46,3.63,3.63,3.63
50.46,-1.47,-5.10,-1.48,-5.10,5.10,4.44,3.63,3.62,3.62
50.96,-1.42,-5.04,-1.42,-5.03,5.03,4.43,3.61,3.61,3.61
51.47,-1.36,-4.96,-1.37,-4.97,4.97,4.42,3.60,3.60,3.60
51.99,-1.31,-4.90,-1.31,-4.90,4.90,4.41,3.59,3.59,3.59
52.51,-1.26,-4.84,-1.26,-4.83,4.83,4.41,3.57,3.58,3.58
53.03,-1.20,-4.77,-1.20,-4.77,4.77,4.40,3.57,3.56,3.57
53.56,-1.15,-4.71,-1.15,-4.70,4.70,4.40,3.55,3.55,3.55
54.10,-1.09,-4.63,-1.10,-4.64,4.64,4.40,3.55,3.54,3.54
54.64,-1.05,-4.58,-1.05,-4.58,4.58,4.39,3.52,3.53,3.53
55.18,-1.00,-4.52,-1.00,-4.52,4.52,4.39,3.51,3.51,3.51
55.74,-0.95,-4.45,-0.95,-4.45,4.45,4.39,3.50,3.50,3.50
56.29,-0.91,-4.40,-0.91,-4.39,4.39,4.38,3.48,3.48,3.49
56.86,-0.86,-4.33,-0.86,-4.33,4.33,4.38,3.47,3.47,3.47
57.42,-0.81,-4.27,-0.82,-4.28,4.28,4.37,3.46,3.46,3.46
58.00,-0.77,-4.21,-0.78,-4.22,4.22,4.36,3.44,3.44,3.44
58.58,-0.73,-4.16,-0.74,-4.16,4.16,4.35,3.43,3.43,3.43
59.16,-0.69,-4.10,-0.70,-4.11,4.11,4.34,3.41,3.41,3.41
59.76,-0.66,-4.06,-0.66,-4.05,4.05,4.33,3.39,3.39,3.39
60.35,-0.62,-4.00,-0.62,-4.00,4.00,4.31,3.37,3.38,3.38
60.96,-0.59,-3.95,-0.59,-3.95,3.95,4.29,3.35,3.36,3.36
61.57,-0.55,-3.89,-0.55,-3.89,3.89,4.27,3.34,3.34,3.34
62.18,-0.51,-3.84,-0.52,-3.84,3.84,4.25,3.33,3.32,3.32
62.80,-0.48,-3.79,-0.49,-3.79,3.79,4.22,3.31,3.30,3.30
63.43,-0.46,-3.75,-0.46,-3.75,3.75,4.19,3.28,3.29,3.29
64.07,-0.43,-3.70,-0.43,-3.70,3.70,4.15,3.27,3.27,3.27
64.71,-0.40,-3.65,-0.41,-3.65,3.65,4.12,3.25,3.25,3.25
65.35,-0.38,-3.61,-0.38,-3.61,3.61,4.08,3.22,3.23,3.23
66.01,-0.36,-3.57,-0.35,-3.56,3.56,4.03,3.20,3.21,3.21
66.67,-0.33,-3.52,-0.33,-3.52,3.52,3.99,3.18,3.18,3.19
67.33,-0.30,-3.47,-0.31,-3.47,3.47,3.94,3.17,3.16,3.16
68.01,-0.29,-3.44,-0.29,-3.43,3.43,3.89,3.14,3.14,3.14
68.69,-0.26,-3.38,-0.27,-3.39,3.39,3.83,3.12,3.12,3.12
69.37,-0.25,-3.35,-0.25,-3.35,3.35,3.78,3.09,3.10,3.10
70.07,-0.23,-3.31,-0.23,-3.31,3.31,3.72,3.07,3.07,3.07
70.77,-0.21,-3.26,-0.22,-3.27,3.27,3.67,3.05,3.05,3.05
71.48,-0.20,-3.23,-0.20,-3.23,3.23,3.61,3.02,3.03,3.03
72.19,-0.19,-3.19,-0.19,-3.19,3.19,3.55,3.00,3.00,3.00
72.91,-0.17,-3.15,-0.18,-3.15,3.15,3.49,2.98,2.98,2.98
73.64,-0.16,-3.11,-0.16,-3.12,3.12,3.43,2.95,2.95,2.95
74.38,-0.15,-3.08,-0.15,-3.08,3.08,3.37,2.93,2.92,2.93
75.12,-0.14,-3.04,-0.15,-3.04,3.04,3.31,2.90,2.90,2.90
75.87,-0.13,-3.01,-0.14,-3.01,3.01,3.25,2.88,2.87,2.87
76.63,-0.13,-2.98,-0.13,-2.98,2.98,3.19,2.84,2.85,2.85
77.40,-0.12,-2.94,-0.12,-2.94,2.94,3.14,2.82,2.82,2.82
78.17,-0.12,-2.91,-0.12,-2.91,2.91,3.08,2.79,2.79,2.79
78.95,-0.11,-2.88,-0.11,-2.88,2.88,3.03,2.76,2.76,2.76
79.74,-0.11,-2.85,-0.11,-2.84,2.84,2.97,2.73,2.73,2.73
80.54,-0.11,-2.82,-0.11,-2.81,2.81,2.92,2.70,2.71,2.71
81.35,-0.10,-2.78,-0.11,-2.78,2.78,2.87,2.68,2.68,2.68
82.16,-0.10,-2.75,-0.11,-2.75,2.75,2.82,2.65,2.65,2.65
82.98,-0.10,-2.72,-0.11,-2.72,2.72,2.77,2.62,2.62,2.62
83.81,-0.10,-2.69,-0.11,-2.69,2.69,2.73,2.59,2.59,2.59
84.65,-0.11,-2.67,-0.11,-2.67,2.67,2.68,2.55,2.56,2.56
85.50,-0.11,-2.64,-0.11,-2.64,2.64,2.64,2.53,2.53,2.53
86.35,-0.11,-2.61,-0.12,-2.61,2.61,2.60,2.50,2.49,2.49
87.22,-0.12,-2.59,-0.12,-2.59,2.59,2.56,2.46,2.46,2.46
88.09,-0.12,-2.55,-0.13,-2.56,2.56,2.52,2.44,2.43,2.43
88.97,-0.13,-2.53,-0.13,-2.53,2.53,2.49,2.40,2.40,2.40
89.86,-0.14,-2.51,-0.14,-2.51,2.51,2.45,2.37,2.37,2.37
90.76,-0.15,-2.49,-0.15,-2.49,2.49,2.42,2.33,2.33,2.34
91.66,-0.16,-2.47,-0.16,-2.46,2.46,2.39,2.30,2.30,2.30
92.58,-0.17,-2.44,-0.17,-2.44,2.44,2.36,2.27,2.27,2.27
93.51,-0.18,-2.42,-0.18,-2.42,2.42,2.34,2.23,2.24,2.24
94.44,-0.18,-2.39,-0.19,-2.39,2.39,2.31,2.21,2.20,2.21
95.39,-0.19,-2.37,-0.20,-2.37,2.37,2.29,2.18,2.17,2.17
96.34,-0.21,-2.35,-0.21,-2.35,2.35,2.27,2.13,2.14,2.14
97.30,-0.22,-2.33,-0.22,-2.33,2.33,2.25,2.10,2.11,2.11
98.28,-0.23,-2.31,-0.23,-2.31,2.31,2.23,2.07,2.07,2.07
99.26,-0.24,-2.28,-0.25,-2.29,2.29,2.21,2.04,2.04,2.04
100.25,-0.25,-2.26,-0.26,-2.27,2.27,2.20,2.01,2.01,2.01
101.25,-0.27,-2.25,-0.27,-2.25,2.25,2.18,1.97,1.97,1.97
102.27,-0.28,-2.22,-0.29,-2.23,2.23,2.17,1.94,1.94,1.94
103.29,-0.30,-2.21,-0.30,-2.21,2.21,2.16,1.91,1.91,1.91
104.32,-0.31,-2.19,-0.32,-2.19,2.19,2.15,1.88,1.87,1.87
105.37,-0.33,-2.17,-0.33,-2.17,2.17,2.14,1.84,1.84,1.84
106.42,-0.35,-2.16,-0.35,-2.16,2.16,2.13,1.80,1.81,1.81
107.48,-0.37,-2.15,-0.37,-2.14,2.14,2.12,1.77,1.78,1.78
108.56,-0.38,-2.13,-0.38,-2.12,2.12,2.12,1.74,1.74,1.74
109.64,-0.40,-2.11,-0.40,-2.11,2.11,2.11,1.71,1.71,1.71
110.74,-0.41,-2.09,-0.42,-2.09,2.09,2.10,1.68,1.68,1.68
111.85,-0.43,-2.08,-0.43,-2.08,2.08,2.10,1.64,1.65,1.65
112.97,-0.45,-2.07,-0.45,-2.06,2.06,2.09,1.61,1.61,1.61
114.10,-0.47,-2.06,-0.47,-2.05,2.05,2.08,1.58,1.58,1.58
115.24,-0.48,-2.03,-0.48,-2.03,2.03,2.08,1.55,1.55,1.55
116.39,-0.49,-2.01,-0.50,-2.02,2.02,2.07,1.53,1.52,1.52
117.55,-0.51,-2.00,-0.52,-2.01,2.01,2.07,1.49,1.49,1.49
118.73,-0.53,-1.99,-0.54,-1.99,1.99,2.06,1.46,1.46,1.46
119.92,-0.55,-1.98,-0.56,-1.98,1.98,2.05,1.43,1.43,1.43
121.12,-0.57,-1.97,-0.57,-1.97,1.97,2.04,1.40,1.40,1.40
122.33,-0.59,-1.96,-0.59,-1.96,1.96,2.04,1.37,1.37,1.37
123.55,-0.61,-1.95,-0.61,-1.95,1.95,2.03,1.34,1.34,1.34
124.79,-0.63,-1.94,-0.63,-1.94,1.94,2.02,1.31,1.31,1.31
126.03,-0.65,-1.93,-0.65,-1.93,1.93,2.01,1.28,1.28,1.28
127.29,-0.67,-1.93,-0.67,-1.92,1.92,2.00,1.25,1.25,1.25
128.57,-0.69,-1.92,-0.69,-1.91,1.91,1.98,1.22,1.22,1.23
129.85,-0.70,-1.90,-0.71,-1.91,1.91,1.97,1.20,1.20,1.20
131.15,-0.73,-1.90,-0.73,-1.90,1.90,1.96,1.16,1.17,1.17
132.46,-0.74,-1.89,-0.75,-1.89,1.89,1.95,1.15,1.14,1.14
133.79,-0.76,-1.88,-0.77,-1.88,1.88,1.93,1.12,1.12,1.12
135.12,-0.78,-1.88,-0.78,-1.87,1.87,1.92,1.09,1.09,1.09
136.48,-0.80,-1.87,-0.80,-1.87,1.87,1.90,1.06,1.07,1.07
137.84,-0.82,-1.86,-0.82,-1.86,1.86,1.89,1.04,1.04,1.04
139.22,-0.83,-1.85,-0.84,-1.85,1.85,1.88,1.02,1.02,1.02
140.61,-0.85,-1.85,-0.85,-1.85,1.85,1.86,0.99,0.99,0.99
142.02,-0.87,-1.84,-0.87,-1.84,1.84,1.85,0.97,0.97,0.97
143.44,-0.89,-1.84,-0.89,-1.83,1.83,1.83,0.94,0.95,0.95
144.87,-0.90,-1.83,-0.90,-1.83,1.83,1.82,0.92,0.92,0.92
146.32,-0.91,-1.81,-0.92,-1.82,1.82,1.80,0.91,0.90,0.90
147.78,-0.94,-1.82,-0.94,-1.82,1.82,1.79,0.87,0.88,0.88
149.26,-0.95,-1.81,-0.96,-1.81,1.81,1.78,0.86,0.86,0.86
150.75,-0.97,-1.81,-0.97,-1.81,1.81,1.76,0.84,0.83,0.83
152.26,-0.99,-1.81,-0.99,-1.81,1.81,1.75,0.81,0.81,0.81
153.78,-1.01,-1.81,-1.01,-1.80,1.80,1.74,0.79,0.79,0.79
155.32,-1.02,-1.80,-1.03,-1.80,1.80,1.73,0.78,0.77,0.77
156.88,-1.04,-1.80,-1.05,-1.80,1.80,1.72,0.76,0.75,0.75
158.44,-1.06,-1.80,-1.06,-1.80,1.80,1.71,0.73,0.73,0.74
160.03,-1.08,-1.80,-1.08,-1.80,1.80,1.70,0.71,0.72,0.72
161.63,-1.10,-1.80,-1.10,-1.79,1.79,1.70,0.69,0.70,0.70
163.24,-1.11,-1.79,-1.11,-1.79,1.79,1.69,0.68,0.68,0.68
164.88,-1.13,-1.80,-1.13,-1.79,1.79,1.69,0.66,0.66,0.66
166.53,-1.14,-1.79,-1.15,-1.79,1.79,1.68,0.65,0.64,0.65
168.19,-1.16,-1.79,-1.16,-1.79,1.79,1.68,0.62,0.63,0.63
169.87,-1.18,-1.80,-1.18,-1.79,1.79,1.68,0.60,0.61,0.61
171.57,-1.19,-1.79,-1.19,-1.78,1.78,1.68,0.59,0.59,0.60
173.29,-1.21,-1.79,-1.20,-1.78,1.78,1.68,0.57,0.58,0.58
175.02,-1.21,-1.78,-1.22,-1.78,1.78,1.69,0.57,0.56,0.57
176.77,-1.23,-1.78,-1.23,-1.78,1.78,1.69,0.55,0.55,0.55
178.54,-1.24,-1.78,-1.24,-1.78,1.78,1.70,0.54,0.54,0.54
180.32,-1.26,-1.79,-1.26,-1.78,1.78,1.70,0.52,0.52,0.52
182.13,-1.27,-1.78,-1.28,-1.78,1.78,1.71,0.51,0.51,0.51
183.95,-1.29,-1.79,-1.29,-1.79,1.79,1.72,0.50,0.50,0.50
185.79,-1.30,-1.79,-1.32,-1.80,1.80,1.73,0.50,0.48,0.48
187.65,-1.32,-1.79,-1.34,-1.81,1.81,1.74,0.49,0.47,0.47
189.52,-1.36,-1.82,-1.37,-1.82,1.82,1.75,0.46,0.46,0.46
191.42,-1.38,-1.83,-1.39,-1.84,1.84,1.77,0.46,0.45,0.45
193.33,-1.41,-1.85,-1.43,-1.86,1.86,1.78,0.45,0.43,0.43
195.27,-1.45,-1.88,-1.46,-1.88,1.88,1.80,0.43,0.42,0.42
197.22,-1.49,-1.91,-1.49,-1.90,1.90,1.81,0.41,0.41,0.41
199.19,-1.53,-1.93,-1.53,-1.93,1.93,1.83,0.40,0.40,0.40
201.18,-1.56,-1.95,-1.57,-1.96,1.96,1.85,0.39,0.39,0.39
203.19,-1.61,-1.99,-1.60,-1.98,1.98,1.87,0.37,0.38,0.38
205.23,-1.65,-2.02,-1.64,-2.01,2.01,1.89,0.35,0.37,0.37
207.28,-1.68,-2.04,-1.68,-2.03,2.03,1.91,0.35,0.36,0.36
209.35,-1.72,-2.07,-1.71,-2.06,2.06,1.93,0.34,0.35,0.35
211.44,-1.74,-2.09,-1.74,-2.08,2.08,1.94,0.34,0.34,0.34
213.56,-1.77,-2.11,-1.77,-2.10,2.10,1.96,0.33,0.33,0.33
215.69,-1.80,-2.13,-1.80,-2.12,2.12,1.98,0.32,0.32,0.33
217.85,-1.83,-2.15,-1.83,-2.14,2.14,2.00,0.31,0.31,0.32
220.03,-1.85,-2.16,-1.85,-2.16,2.16,2.02,0.31,0.31,0.31
222.23,-1.87,-2.17,-1.88,-2.18,2.18,2.04,0.30,0.30,0.30
224.45,-1.89,-2.19,-1.90,-2.19,2.19,2.06,0.30,0.29,0.29
226.70,-1.91,-2.20,-1.92,-2.21,2.21,2.07,0.29,0.29,0.29
228.96,-1.93,-2.21,-1.94,-2.22,2.22,2.09,0.29,0.28,0.28
231.25,-1.95,-2.22,-1.95,-2.23,2.23,2.10,0.28,0.28,0.27
233.57,-1.96,-2.23,-1.97,-2.24,2.24,2.11,0.27,0.27,0.26
235.90,-1.97,-2.23,-1.98,-2.24,2.24,2.12,0.27,0.26,0.26
238.26,-1.98,-2.23,-1.99,-2.24,2.24,2.13,0.26,0.25,0.25
240.64,-1.99,-2.24,-2.00,-2.24,2.24,2.14,0.24,0.24,0.24
243.05,-1.99,-2.23,-2.00,-2.23,2.23,2.15,0.23,0.23,0.24
245.48,-1.99,-2.23,-1.99,-2.21,2.21,2.15,0.21,0.22,0.23
247.93,-1.98,-2.21,-1.98,-2.18,2.18,2.15,0.20,0.21,0.23
250.41,-1.96,-2.18,-1.95,-2.15,2.15,2.15,0.18,0.20,0.22
252.92,-1.94,-2.16,-1.91,-2.11,2.11,2.14,0.16,0.19,0.22
255.45,-1.91,-2.12,-1.87,-2.05,2.05,2.14,0.14,0.18,0.21
258.00,-1.86,-2.07,-1.81,-1.99,1.99,2.13,0.13,0.18,0.20
260.58,-1.79,-1.99,-1.75,-1.93,1.93,2.12,0.13,0.17,0.20
263.19,-1.72,-1.92,-1.68,-1.85,1.85,2.11,0.13,0.17,0.19
265.82,-1.64,-1.83,-1.61,-1.78,1.78,2.10,0.14,0.17,0.19
268.48,-1.55,-1.74,-1.53,-1.71,1.71,2.08,0.15,0.17,0.19
271.16,-1.45,-1.63,-1.46,-1.63,1.63,2.06,0.18,0.17,0.18
273.87,-1.37,-1.55,-1.40,-1.57,1.57,2.04,0.20,0.17,0.18
276.61,-1.29,-1.47,-1.34,-1.51,1.51,2.02,0.22,0.17,0.17
279.38,-1.23,-1.40,-1.29,-1.46,1.46,2.00,0.23,0.17,0.17
282.17,-1.19,-1.36,-1.26,-1.43,1.43,1.98,0.24,0.17,0.16
284.99,-1.17,-1.33,-1.24,-1.40,1.40,1.96,0.23,0.17,0.16
287.84,-1.18,-1.34,-1.23,-1.39,1.39,1.94,0.21,0.16,0.16
290.72,-1.19,-1.35,-1.24,-1.39,1.39,1.91,0.20,0.15,0.15
293.63,-1.23,-1.38,-1.26,-1.41,1.41,1.89,0.17,0.15,0.15
296.57,-1.29,-1.44,-1.29,-1.43,1.43,1.86,0.14,0.14,0.15
299.53,-1.34,-1.49,-1.33,-1.46,1.46,1.84,0.12,0.13,0.14
302.53,-1.40,-1.54,-1.37,-1.50,1.50,1.81,0.10,0.13,0.14
305.55,-1.46,-1.60,-1.42,-1.54,1.54,1.79,0.08,0.12,0.14
308.61,-1.50,-1.64,-1.47,-1.58,1.58,1.77,0.08,0.11,0.13
311.69,-1.54,-1.67,-1.52,-1.63,1.63,1.74,0.09,0.11,0.13
314.81,-1.58,-1.71,-1.56,-1.67,1.67,1.72,0.09,0.11,0.13
317.96,-1.61,-1.74,-1.60,-1.71,1.71,1.70,0.10,0.11,0.12
321.14,-1.64,-1.76,-1.64,-1.74,1.74,1.68,0.10,0.11,0.12
324.35,-1.67,-1.79,-1.67,-1.77,1.77,1.66,0.10,0.11,0.12
327.59,-1.69,-1.81,-1.69,-1.80,1.80,1.64,0.11,0.11,0.12
330.87,-1.71,-1.83,-1.71,-1.82,1.82,1.62,0.11,0.11,0.11
334.18,-1.73,-1.84,-1.73,-1.84,1.84,1.60,0.11,0.11,0.11
337.52,-1.74,-1.85,-1.75,-1.86,1.86,1.58,0.11,0.11,0.11
340.90,-1.75,-1.86,-1.76,-1.87,1.87,1.57,0.12,0.11,0.11
344.30,-1.77,-1.88,-1.78,-1.88,1.88,1.55,0.11,0.10,0.10
347.75,-1.78,-1.88,-1.79,-1.89,1.89,1.54,0.11,0.10,0.10
351.23,-1.79,-1.89,-1.80,-1.90,1.90,1.53,0.10,0.10,0.10
354.74,-1.80,-1.90,-1.80,-1.90,1.90,1.52,0.10,0.10,0.10
358.28,-1.81,-1.91,-1.81,-1.91,1.91,1.51,0.09,0.09,0.10
361.87,-1.82,-1.92,-1.82,-1.91,1.91,1.50,0.08,0.09,0.09
365.49,-1.82,-1.91,-1.82,-1.91,1.91,1.49,0.09,0.09,0.09
369.14,-1.82,-1.91,-1.82,-1.91,1.91,1.49,0.09,0.09,0.09
372.83,-1.82,-1.91,-1.82,-1.91,1.91,1.48,0.08,0.09,0.09
376.56,-1.81,-1.90,-1.82,-1.90,1.90,1.48,0.09,0.08,0.09
380.33,-1.81,-1.90,-1.81,-1.90,1.90,1.47,0.08,0.08,0.08
384.13,-1.80,-1.89,-1.81,-1.89,1.89,1.47,0.09,0.08,0.08
387.97,-1.80,-1.88,-1.80,-1.88,1.88,1.47,0.08,0.08,0.08
391.85,-1.79,-1.87,-1.79,-1.87,1.87,1.47,0.08,0.08,0.08
395.77,-1.78,-1.86,-1.78,-1.86,1.86,1.47,0.08,0.08,0.08
399.73,-1.76,-1.84,-1.77,-1.84,1.84,1.47,0.08,0.07,0.08
403.72,-1.76,-1.84,-1.76,-1.83,1.83,1.47,0.07,0.07,0.07
407.76,-1.75,-1.83,-1.74,-1.81,1.81,1.48,0.06,0.07,0.07
411.84,-1.73,-1.80,-1.73,-1.80,1.80,1.48,0.06,0.07,0.07
415.96,-1.71,-1.78,-1.71,-1.78,1.78,1.49,0.07,0.07,0.07
420.12,-1.70,-1.77,-1.70,-1.76,1.76,1.49,0.06,0.06,0.07
424.32,-1.68,-1.75,-1.68,-1.74,1.74,1.50,0.06,0.06,0.07
428.56,-1.66,-1.73,-1.66,-1.72,1.72,1.51,0.06,0.06,0.06
432.85,-1.64,-1.71,-1.64,-1.71,1.71,1.51,0.06,0.06,0.06
437.18,-1.62,-1.69,-1.63,-1.69,1.69,1.52,0.07,0.06,0.06
441.55,-1.60,-1.67,-1.61,-1.67,1.67,1.53,0.07,0.06,0.06
445.96,-1.58,-1.65,-1.59,-1.66,1.66,1.54,0.08,0.07,0.07
450.42,-1.56,-1.63,-1.58,-1.65,1.65,1.55,0.08,0.07,0.07
454.93,-1.56,-1.64,-1.56,-1.64,1.64,1.56,0.07,0.07,0.07
459.48,-1.54,-1.62,-1.55,-1.63,1.63,1.56,0.08,0.08,0.08
464.07,-1.53,-1.62,-1.53,-1.62,1.62,1.57,0.08,0.09,0.08
468.71,-1.52,-1.62,-1.52,-1.61,1.61,1.58,0.09,0.09,0.09
473.40,-1.50,-1.60,-1.50,-1.60,1.60,1.59,0.10,0.10,0.10
478.13,-1.49,-1.61,-1.49,-1.60,1.60,1.60,0.11,0.11,0.11
482.91,-1.48,-1.61,-1.48,-1.60,1.60,1.60,0.11,0.12,0.12
487.74,-1.46,-1.60,-1.46,-1.60,1.60,1.61,0.13,0.13,0.14
492.62,-1.44,-1.59,-1.45,-1.59,1.59,1.62,0.15,0.15,0.15
497.55,-1.42,-1.59,-1.43,-1.59,1.59,1.63,0.17,0.16,0.16
502.52,-1.42,-1.60,-1.42,-1.59,1.59,1.63,0.17,0.18,0.18
507.55,-1.40,-1.60,-1.40,-1.59,1.59,1.64,0.19,0.19,0.19
512.62,-1.38,-1.59,-1.38,-1.59,1.59,1.64,0.21,0.21,0.21
517.75,-1.36,-1.59,-1.37,-1.59,1.59,1.65,0.23,0.23,0.23
522.93,-1.35,-1.60,-1.35,-1.59,1.59,1.66,0.24,0.24,0.24
528.16,-1.33,-1.60,-1.33,-1.60,1.60,1.66,0.26,0.26,0.26
533.44,-1.31,-1.59,-1.32,-1.60,1.60,1.67,0.29,0.28,0.28
538.77,-1.30,-1.60,-1.30,-1.60,1.60,1.67,0.30,0.31,0.30
544.16,-1.28,-1.61,-1.28,-1.61,1.61,1.67,0.33,0.33,0.32
549.60,-1.26,-1.61,-1.27,-1.62,1.62,1.68,0.35,0.35,0.35
555.10,-1.24,-1.62,-1.25,-1.62,1.62,1.69,0.38,0.37,0.37
560.65,-1.23,-1.63,-1.23,-1.63,1.63,1.69,0.40,0.40,0.40
566.25,-1.21,-1.64,-1.21,-1.64,1.64,1.70,0.43,0.43,0.43
571.92,-1.19,-1.65,-1.20,-1.65,1.65,1.70,0.46,0.45,0.45
577.64,-1.18,-1.67,-1.18,-1.66,1.66,1.71,0.48,0.48,0.48
583.41,-1.16,-1.68,-1.16,-1.67,1.67,1.72,0.51,0.51,0.51
589.25,-1.13,-1.68,-1.14,-1.68,1.68,1.73,0.55,0.54,0.54
595.14,-1.12,-1.70,-1.13,-1.70,1.70,1.74,0.57,0.57,0.57
601.09,-1.11,-1.71,-1.11,-1.71,1.71,1.75,0.60,0.60,0.60
607.10,-1.09,-1.73,-1.09,-1.72,1.72,1.76,0.63,0.63,0.63
613.17,-1.07,-1.74,-1.07,-1.73,1.73,1.77,0.66,0.66,0.66
619.30,-1.05,-1.75,-1.05,-1.75,1.75,1.78,0.69,0.69,0.70
625.50,-1.03,-1.76,-1.04,-1.76,1.76,1.80,0.73,0.73,0.73
631.75,-1.01,-1.77,-1.02,-1.78,1.78,1.81,0.76,0.76,0.76
638.07,-0.99,-1.79,-1.00,-1.79,1.79,1.83,0.80,0.79,0.79
644.45,-0.98,-1.81,-0.98,-1.80,1.80,1.85,0.82,0.82,0.82
650.89,-0.96,-1.82,-0.96,-1.82,1.82,1.87,0.86,0.86,0.86
657.40,-0.94,-1.83,-0.94,-1.83,1.83,1.89,0.89,0.89,0.89
663.98,-0.92,-1.85,-0.92,-1.85,1.85,1.92,0.92,0.93,0.92
670.62,-0.90,-1.86,-0.90,-1.86,1.86,1.94,0.96,0.96,0.96
677.32,-0.88,-1.88,-0.88,-1.88,1.88,1.97,1.00,1.00,1.00
