frequency,raw,error,smoothed,error_smoothed,equalization,parametric_eq,equalized_raw,equalized_smoothed,target
20,-9.70,-13.63,-9.76,-13.68,6.00,2.84,-3.70,-3.76,3.93
21,-9.29,-13.21,-9.31,-13.22,6.00,3.25,-3.29,-3.31,3.93
22,-8.88,-12.80,-8.87,-12.78,6.00,3.70,-2.88,-2.87,3.92
23,-8.49,-12.40,-8.45,-12.35,6.00,4.19,-2.49,-2.45,3.92
24,-8.09,-12.00,-8.03,-11.93,6.00,4.70,-2.09,-2.03,3.91
25,-7.68,-11.58,-7.63,-11.52,6.00,5.23,-1.68,-1.63,3.91
26,-7.28,-11.18,-7.25,-11.13,6.00,5.75,-1.28,-1.25,3.90
27,-6.89,-10.78,-6.87,-10.75,6.00,6.25,-0.89,-0.87,3.89
28,-6.51,-10.39,-6.51,-10.38,6.00,6.69,-0.51,-0.51,3.89
29,-6.15,-10.02,-6.16,-10.03,6.00,7.05,-0.15,-0.16,3.88
30,-5.81,-9.68,-5.83,-9.69,6.00,7.30,0.19,0.17,3.87
31,-5.47,-9.33,-5.50,-9.35,6.00,7.43,0.53,0.50,3.86
32,-5.17,-9.02,-5.18,-9.04,6.00,7.43,0.83,0.82,3.85
33,-4.89,-8.73,-4.89,-8.73,6.00,7.32,1.11,1.11,3.84
34,-4.61,-8.44,-4.60,-8.44,6.00,7.14,1.39,1.40,3.83
35,-4.34,-8.16,-4.34,-8.16,6.00,6.90,1.66,1.66,3.82
36,-4.09,-7.90,-4.08,-7.90,6.00,6.63,1.91,1.92,3.81
37,-3.85,-7.65,-3.85,-7.64,6.00,6.36,2.15,2.15,3.80
38,-3.63,-7.41,-3.62,-7.40,6.00,6.08,2.37,2.38,3.79
39,-3.41,-7.18,-3.40,-7.17,6.00,5.83,2.59,2.60,3.77
40,-3.20,-6.96,-3.20,-6.95,6.00,5.59,2.80,2.80,3.76
41,-3.01,-6.75,-3.00,-6.74,6.00,5.38,2.99,3.00,3.75
42,-2.82,-6.55,-2.81,-6.54,6.00,5.19,3.18,3.19,3.73
43,-2.64,-6.35,-2.64,-6.35,5.98,5.02,3.34,3.34,3.72
44,-2.47,-6.16,-2.47,-6.16,5.92,4.88,3.46,3.46,3.70
45,-2.31,-5.99,-2.31,-5.99,5.85,4.76,3.54,3.54,3.68
46,-2.16,-5.82,-2.15,-5.82,5.75,4.66,3.60,3.60,3.66
47,-2.01,-5.65,-2.01,-5.66,5.64,4.58,3.63,3.62,3.64
48,-1.88,-5.50,-1.87,-5.50,5.50,4.51,3.62,3.63,3.63
49,-1.75,-5.35,-1.74,-5.35,5.35,4.46,3.61,3.61,3.61
50,-1.63,-5.21,-1.62,-5.21,5.21,4.43,3.58,3.59,3.58
51,-1.51,-5.07,-1.51,-5.07,5.07,4.40,3.57,3.56,3.56
52,-1.40,-4.94,-1.40,-4.94,4.94,4.38,3.55,3.54,3.54
53,-1.30,-4.81,-1.30,-4.82,4.82,4.37,3.52,3.52,3.52
54,-1.21,-4.70,-1.20,-4.69,4.69,4.36,3.49,3.49,3.49
55,-1.11,-4.58,-1.11,-4.58,4.58,4.35,3.47,3.46,3.47
56,-1.03,-4.47,-1.02,-4.46,4.46,4.35,3.44,3.44,3.44
57,-0.95,-4.37,-0.94,-4.35,4.35,4.34,3.41,3.41,3.42
58,-0.87,-4.26,-0.86,-4.24,4.24,4.32,3.38,3.39,3.39
59,-0.80,-4.16,-0.78,-4.14,4.14,4.31,3.34,3.36,3.37
60,-0.73,-4.06,-0.71,-4.04,4.04,4.28,3.31,3.33,3.34
61,-0.66,-3.97,-0.64,-3.95,3.95,4.25,3.29,3.31,3.31
62,-0.59,-3.87,-0.58,-3.85,3.85,4.21,3.27,3.28,3.28
63,-0.52,-3.77,-0.52,-3.77,3.77,4.17,3.25,3.25,3.25
64,-0.45,-3.67,-0.47,-3.69,3.69,4.11,3.24,3.21,3.22
65,-0.40,-3.59,-0.43,-3.61,3.61,4.06,3.21,3.18,3.19
66,-0.36,-3.51,-0.39,-3.54,3.54,3.99,3.18,3.15,3.16
67,-0.34,-3.46,-0.35,-3.47,3.47,3.92,3.13,3.12,3.13
68,-0.32,-3.41,-0.32,-3.41,3.41,3.85,3.09,3.09,3.09
69,-0.31,-3.37,-0.29,-3.35,3.35,3.77,3.04,3.06,3.06
70,-0.30,-3.32,-0.27,-3.29,3.29,3.69,3.00,3.02,3.03
71,-0.28,-3.27,-0.25,-3.24,3.24,3.61,2.97,2.99,2.99
72,-0.26,-3.22,-0.24,-3.19,3.19,3.53,2.94,2.95,2.96
73,-0.24,-3.16,-0.23,-3.15,3.15,3.45,2.91,2.92,2.92
74,-0.21,-3.10,-0.22,-3.10,3.10,3.37,2.89,2.88,2.89
75,-0.19,-3.04,-0.21,-3.05,3.05,3.29,2.87,2.85,2.86
76,-0.19,-3.01,-0.19,-3.01,3.01,3.21,2.82,2.81,2.82
77,-0.19,-2.97,-0.18,-2.96,2.96,3.14,2.78,2.78,2.78
78,-0.19,-2.93,-0.17,-2.92,2.92,3.07,2.74,2.75,2.75
79,-0.18,-2.89,-0.17,-2.88,2.88,3.00,2.70,2.71,2.71
80,-0.17,-2.84,-0.16,-2.84,2.84,2.93,2.67,2.68,2.68
81,-0.16,-2.80,-0.16,-2.80,2.80,2.87,2.65,2.64,2.64
82,-0.16,-2.76,-0.16,-2.76,2.76,2.81,2.61,2.60,2.60
83,-0.16,-2.72,-0.16,-2.73,2.73,2.75,2.57,2.57,2.57
84,-0.16,-2.69,-0.16,-2.69,2.69,2.69,2.54,2.53,2.53
85,-0.17,-2.66,-0.17,-2.66,2.66,2.64,2.49,2.49,2.50
86,-0.18,-2.63,-0.17,-2.63,2.63,2.60,2.45,2.46,2.46
87,-0.19,-2.61,-0.18,-2.60,2.60,2.55,2.41,2.42,2.42
88,-0.19,-2.57,-0.18,-2.57,2.57,2.51,2.38,2.39,2.39
89,-0.19,-2.54,-0.19,-2.54,2.54,2.47,2.35,2.35,2.35
90,-0.20,-2.51,-0.20,-2.51,2.51,2.43,2.31,2.31,2.31
91,-0.21,-2.48,-0.21,-2.48,2.48,2.40,2.28,2.28,2.28
92,-0.22,-2.46,-0.21,-2.45,2.45,2.37,2.24,2.24,2.24
93,-0.23,-2.43,-0.22,-2.43,2.43,2.34,2.20,2.21,2.21
94,-0.24,-2.41,-0.23,-2.40,2.40,2.31,2.17,2.18,2.17
95,-0.25,-2.38,-0.24,-2.38,2.38,2.29,2.13,2.14,2.14
96,-0.26,-2.36,-0.25,-2.36,2.36,2.27,2.10,2.10,2.10
97,-0.26,-2.32,-0.27,-2.34,2.34,2.25,2.08,2.07,2.07
98,-0.28,-2.31,-0.29,-2.32,2.32,2.23,2.04,2.03,2.03
99,-0.29,-2.29,-0.31,-2.30,2.30,2.21,2.01,1.99,2.00
100,-0.31,-2.27,-0.33,-2.28,2.28,2.20,1.97,1.95,1.97
101,-0.34,-2.27,-0.34,-2.26,2.26,2.18,1.92,1.92,1.93
102,-0.37,-2.27,-0.36,-2.24,2.24,2.17,1.88,1.88,1.90
104,-0.42,-2.25,-0.38,-2.22,2.22,2.15,1.81,1.84,1.84
105,-0.43,-2.23,-0.40,-2.21,2.21,2.14,1.78,1.81,1.80
106,-0.44,-2.21,-0.41,-2.19,2.19,2.13,1.75,1.78,1.77
107,-0.44,-2.18,-0.43,-2.17,2.17,2.12,1.73,1.74,1.74
108,-0.44,-2.15,-0.44,-2.15,2.15,2.12,1.72,1.71,1.71
109,-0.45,-2.13,-0.46,-2.14,2.14,2.11,1.69,1.68,1.68
110,-0.46,-2.11,-0.47,-2.12,2.12,2.10,1.66,1.65,1.65
111,-0.47,-2.09,-0.49,-2.10,2.10,2.10,1.64,1.61,1.62
112,-0.49,-2.08,-0.50,-2.09,2.09,2.09,1.60,1.58,1.59
113,-0.51,-2.07,-0.52,-2.07,2.07,2.09,1.56,1.55,1.56
114,-0.53,-2.06,-0.53,-2.05,2.05,2.08,1.53,1.52,1.54
115,-0.54,-2.05,-0.54,-2.04,2.04,2.08,1.50,1.49,1.51
117,-0.59,-2.04,-0.56,-2.02,2.02,2.07,1.43,1.46,1.46
118,-0.61,-2.04,-0.57,-2.00,2.00,2.06,1.40,1.43,1.43
119,-0.62,-2.02,-0.59,-1.99,1.99,2.06,1.37,1.40,1.40
120,-0.62,-1.99,-0.60,-1.97,1.97,2.05,1.36,1.37,1.38
121,-0.63,-1.98,-0.62,-1.96,1.96,2.05,1.33,1.34,1.35
123,-0.63,-1.93,-0.64,-1.94,1.94,2.03,1.32,1.30,1.30
124,-0.63,-1.91,-0.66,-1.93,1.93,2.03,1.31,1.27,1.28
125,-0.64,-1.89,-0.68,-1.92,1.92,2.02,1.28,1.24,1.26
126,-0.66,-1.89,-0.69,-1.91,1.91,2.01,1.25,1.22,1.23
128,-0.71,-1.90,-0.71,-1.90,1.90,1.99,1.19,1.19,1.19
129,-0.74,-1.90,-0.72,-1.89,1.89,1.98,1.15,1.17,1.17
130,-0.78,-1.92,-0.74,-1.88,1.88,1.98,1.10,1.14,1.15
131,-0.79,-1.91,-0.76,-1.87,1.87,1.97,1.09,1.11,1.13
133,-0.82,-1.90,-0.78,-1.87,1.87,1.95,1.05,1.08,1.08
134,-0.82,-1.88,-0.80,-1.86,1.86,1.94,1.04,1.05,1.07
135,-0.81,-1.85,-0.83,-1.85,1.85,1.93,1.05,1.03,1.05
137,-0.82,-1.82,-0.85,-1.85,1.85,1.90,1.03,1.00,1.01
138,-0.84,-1.83,-0.87,-1.84,1.84,1.89,1.01,0.97,0.99
140,-0.88,-1.83,-0.88,-1.84,1.84,1.87,0.96,0.95,0.95
141,-0.90,-1.83,-0.90,-1.83,1.83,1.86,0.93,0.93,0.94
142,-0.93,-1.85,-0.91,-1.82,1.82,1.85,0.89,0.91,0.92
144,-0.96,-1.84,-0.93,-1.81,1.81,1.83,0.86,0.89,0.89
145,-0.97,-1.84,-0.94,-1.81,1.81,1.82,0.84,0.87,0.87
147,-0.99,-1.83,-0.96,-1.80,1.80,1.80,0.82,0.84,0.84
148,-0.98,-1.80,-0.98,-1.80,1.80,1.79,0.82,0.81,0.83
150,-0.99,-1.78,-1.01,-1.80,1.80,1.78,0.81,0.79,0.80
151,-0.99,-1.77,-1.02,-1.79,1.79,1.77,0.81,0.77,0.78
153,-1.02,-1.77,-1.04,-1.79,1.79,1.75,0.77,0.75,0.76
154,-1.04,-1.78,-1.06,-1.79,1.79,1.75,0.75,0.73,0.74
156,-1.09,-1.80,-1.07,-1.78,1.78,1.73,0.70,0.71,0.72
157,-1.11,-1.81,-1.09,-1.78,1.78,1.73,0.67,0.69,0.70
159,-1.14,-1.82,-1.10,-1.78,1.78,1.72,0.64,0.68,0.68
160,-1.15,-1.81,-1.12,-1.78,1.78,1.71,0.63,0.66,0.67
162,-1.16,-1.80,-1.14,-1.78,1.78,1.70,0.62,0.64,0.65
164,-1.15,-1.77,-1.16,-1.78,1.78,1.70,0.63,0.62,0.62
165,-1.16,-1.77,-1.17,-1.78,1.78,1.70,0.62,0.60,0.61
167,-1.17,-1.76,-1.19,-1.78,1.78,1.69,0.61,0.59,0.59
169,-1.20,-1.77,-1.21,-1.78,1.78,1.69,0.58,0.57,0.57
170,-1.21,-1.77,-1.23,-1.78,1.78,1.69,0.57,0.55,0.56
172,-1.25,-1.79,-1.24,-1.78,1.78,1.69,0.54,0.54,0.54
174,-1.27,-1.79,-1.26,-1.78,1.78,1.69,0.52,0.52,0.53
175,-1.28,-1.79,-1.28,-1.78,1.78,1.70,0.51,0.51,0.52
177,-1.31,-1.81,-1.29,-1.78,1.78,1.70,0.48,0.49,0.50
179,-1.34,-1.82,-1.31,-1.79,1.79,1.71,0.45,0.48,0.49
181,-1.36,-1.83,-1.33,-1.79,1.79,1.72,0.43,0.46,0.47
183,-1.38,-1.83,-1.34,-1.80,1.80,1.73,0.42,0.45,0.45
184,-1.38,-1.82,-1.36,-1.80,1.80,1.73,0.43,0.44,0.45
186,-1.38,-1.81,-1.39,-1.81,1.81,1.74,0.44,0.43,0.43
188,-1.38,-1.80,-1.41,-1.83,1.83,1.75,0.45,0.41,0.42
190,-1.40,-1.80,-1.44,-1.84,1.84,1.77,0.45,0.40,0.41
192,-1.44,-1.83,-1.47,-1.86,1.86,1.78,0.43,0.39,0.39
194,-1.48,-1.86,-1.51,-1.89,1.89,1.80,0.41,0.38,0.38
196,-1.54,-1.91,-1.55,-1.91,1.91,1.82,0.37,0.36,0.37
198,-1.60,-1.96,-1.59,-1.94,1.94,1.83,0.34,0.35,0.36
200,-1.65,-1.99,-1.63,-1.97,1.97,1.85,0.32,0.34,0.35
202,-1.70,-2.03,-1.67,-1.99,1.99,1.87,0.30,0.33,0.34
204,-1.74,-2.06,-1.71,-2.02,2.02,1.89,0.28,0.32,0.33
206,-1.77,-2.08,-1.74,-2.05,2.05,1.91,0.28,0.30,0.32
208,-1.80,-2.11,-1.78,-2.07,2.07,1.93,0.28,0.30,0.31
210,-1.82,-2.12,-1.80,-2.09,2.09,1.95,0.28,0.29,0.30
212,-1.84,-2.13,-1.83,-2.11,2.11,1.96,0.28,0.28,0.29
214,-1.85,-2.13,-1.85,-2.13,2.13,1.98,0.28,0.27,0.28
216,-1.86,-2.13,-1.88,-2.14,2.14,2.00,0.29,0.27,0.28
218,-1.87,-2.13,-1.90,-2.16,2.16,2.02,0.29,0.26,0.27
221,-1.90,-2.15,-1.92,-2.17,2.17,2.05,0.28,0.26,0.26
223,-1.93,-2.18,-1.94,-2.19,2.19,2.06,0.26,0.25,0.25
225,-1.96,-2.20,-1.96,-2.20,2.20,2.08,0.25,0.24,0.24
227,-1.98,-2.21,-1.98,-2.22,2.22,2.09,0.24,0.24,0.24
229,-2.01,-2.24,-2.00,-2.23,2.23,2.10,0.22,0.23,0.23
232,-2.04,-2.26,-2.02,-2.24,2.24,2.12,0.21,0.22,0.22
234,-2.06,-2.27,-2.04,-2.26,2.26,2.13,0.20,0.21,0.21
236,-2.06,-2.26,-2.06,-2.26,2.26,2.14,0.21,0.21,0.21
239,-2.07,-2.27,-2.07,-2.27,2.27,2.15,0.20,0.20,0.20
241,-2.07,-2.26,-2.08,-2.27,2.27,2.16,0.20,0.19,0.19
244,-2.07,-2.25,-2.08,-2.26,2.26,2.16,0.19,0.18,0.19
246,-2.07,-2.25,-2.07,-2.24,2.24,2.16,0.18,0.17,0.18
248,-2.06,-2.23,-2.06,-2.22,2.22,2.16,0.16,0.16,0.18
251,-2.04,-2.21,-2.03,-2.18,2.18,2.16,0.15,0.15,0.17
253,-2.02,-2.18,-1.99,-2.14,2.14,2.16,0.12,0.14,0.17
256,-1.98,-2.14,-1.95,-2.08,2.08,2.15,0.11,0.14,0.16
259,-1.92,-2.07,-1.89,-2.02,2.02,2.14,0.10,0.13,0.15
261,-1.88,-2.03,-1.82,-1.95,1.95,2.13,0.07,0.13,0.15
264,-1.78,-1.92,-1.74,-1.87,1.87,2.12,0.09,0.12,0.14
266,-1.72,-1.86,-1.66,-1.78,1.78,2.11,0.07,0.12,0.14
269,-1.60,-1.73,-1.58,-1.70,1.70,2.09,0.10,0.12,0.14
272,-1.49,-1.62,-1.50,-1.62,1.62,2.07,0.13,0.12,0.13
274,-1.42,-1.54,-1.43,-1.55,1.55,2.06,0.13,0.12,0.13
277,-1.32,-1.44,-1.36,-1.49,1.49,2.03,0.17,0.12,0.12
280,-1.25,-1.36,-1.31,-1.44,1.44,2.01,0.19,0.12,0.12
283,-1.22,-1.33,-1.28,-1.40,1.40,1.99,0.18,0.12,0.11
286,-1.20,-1.31,-1.26,-1.38,1.38,1.96,0.18,0.11,0.11
288,-1.22,-1.32,-1.26,-1.37,1.37,1.94,0.15,0.11,0.11
291,-1.25,-1.35,-1.27,-1.38,1.38,1.92,0.13,0.10,0.10
294,-1.30,-1.40,-1.30,-1.40,1.40,1.89,0.10,0.10,0.10
297,-1.36,-1.45,-1.34,-1.43,1.43,1.87,0.07,0.09,0.10
300,-1.42,-1.51,-1.39,-1.47,1.47,1.84,0.05,0.08,0.09
303,-1.48,-1.57,-1.44,-1.52,1.52,1.82,0.04,0.07,0.09
306,-1.53,-1.61,-1.50,-1.56,1.56,1.79,0.04,0.07,0.09
309,-1.58,-1.66,-1.55,-1.61,1.61,1.77,0.03,0.06,0.08
312,-1.61,-1.69,-1.59,-1.65,1.65,1.75,0.05,0.06,0.08
316,-1.66,-1.73,-1.63,-1.69,1.69,1.72,0.04,0.06,0.08
319,-1.68,-1.75,-1.67,-1.73,1.73,1.69,0.05,0.06,0.07
322,-1.71,-1.78,-1.70,-1.76,1.76,1.67,0.05,0.06,0.07
325,-1.73,-1.80,-1.72,-1.79,1.79,1.65,0.06,0.06,0.07
328,-1.74,-1.80,-1.75,-1.81,1.81,1.64,0.07,0.06,0.07
332,-1.76,-1.82,-1.76,-1.83,1.83,1.61,0.07,0.06,0.06
335,-1.78,-1.84,-1.78,-1.84,1.84,1.60,0.07,0.06,0.06
338,-1.79,-1.85,-1.79,-1.85,1.85,1.58,0.07,0.06,0.06
342,-1.81,-1.86,-1.81,-1.87,1.87,1.56,0.06,0.06,0.06
345,-1.82,-1.87,-1.82,-1.87,1.87,1.55,0.06,0.06,0.05
349,-1.83,-1.88,-1.83,-1.88,1.88,1.53,0.05,0.05,0.05
352,-1.84,-1.89,-1.84,-1.89,1.89,1.52,0.05,0.05,0.05
356,-1.85,-1.89,-1.84,-1.89,1.89,1.51,0.04,0.05,0.05
359,-1.86,-1.90,-1.85,-1.89,1.89,1.50,0.04,0.04,0.05
363,-1.86,-1.90,-1.85,-1.90,1.90,1.49,0.04,0.04,0.04
366,-1.86,-1.90,-1.85,-1.89,1.89,1.48,0.04,0.04,0.04
370,-1.86,-1.90,-1.85,-1.89,1.89,1.48,0.04,0.04,0.04
374,-1.85,-1.88,-1.85,-1.89,1.89,1.47,0.04,0.04,0.04
377,-1.85,-1.88,-1.85,-1.88,1.88,1.47,0.04,0.04,0.04
381,-1.85,-1.88,-1.84,-1.88,1.88,1.46,0.03,0.03,0.04
385,-1.84,-1.87,-1.83,-1.87,1.87,1.46,0.03,0.03,0.03
389,-1.83,-1.86,-1.83,-1.86,1.86,1.46,0.03,0.03,0.03
393,-1.82,-1.85,-1.82,-1.85,1.85,1.46,0.03,0.03,0.03
397,-1.81,-1.83,-1.81,-1.84,1.84,1.46,0.03,0.03,0.03
401,-1.80,-1.82,-1.80,-1.83,1.83,1.46,0.03,0.03,0.03
405,-1.79,-1.81,-1.79,-1.81,1.81,1.46,0.03,0.03,0.03
409,-1.78,-1.80,-1.78,-1.80,1.80,1.46,0.03,0.03,0.02
413,-1.77,-1.79,-1.77,-1.79,1.79,1.47,0.02,0.02,0.02
417,-1.76,-1.78,-1.76,-1.78,1.78,1.47,0.02,0.02,0.02
421,-1.75,-1.76,-1.75,-1.76,1.76,1.48,0.02,0.02,0.02
425,-1.73,-1.74,-1.74,-1.75,1.75,1.48,0.02,0.01,0.02
430,-1.72,-1.73,-1.73,-1.74,1.74,1.49,0.02,0.01,0.01
434,-1.71,-1.72,-1.71,-1.72,1.72,1.50,0.01,0.00,0.01
438,-1.70,-1.71,-1.70,-1.70,1.70,1.50,0.01,0.00,0.01
443,-1.69,-1.70,-1.68,-1.68,1.68,1.51,-0.00,0.01,0.01
447,-1.69,-1.70,-1.65,-1.66,1.66,1.52,-0.02,0.01,0.02
451,-1.67,-1.68,-1.63,-1.65,1.65,1.53,-0.02,0.01,0.02
456,-1.64,-1.66,-1.61,-1.63,1.63,1.54,-0.01,0.02,0.02
460,-1.61,-1.63,-1.59,-1.61,1.61,1.54,0.01,0.03,0.03
465,-1.56,-1.59,-1.57,-1.60,1.60,1.55,0.04,0.03,0.04
470,-1.51,-1.55,-1.55,-1.58,1.58,1.56,0.08,0.04,0.04
474,-1.49,-1.54,-1.53,-1.57,1.57,1.57,0.09,0.05,0.05
479,-1.47,-1.53,-1.51,-1.56,1.56,1.58,0.10,0.06,0.06
484,-1.47,-1.54,-1.49,-1.56,1.56,1.58,0.09,0.07,0.08
489,-1.48,-1.56,-1.47,-1.56,1.56,1.59,0.08,0.08,0.09
494,-1.48,-1.58,-1.46,-1.55,1.55,1.60,0.08,0.10,0.10
499,-1.47,-1.58,-1.44,-1.55,1.55,1.60,0.09,0.11,0.12
504,-1.46,-1.59,-1.43,-1.56,1.56,1.61,0.10,0.13,0.13
509,-1.44,-1.58,-1.42,-1.56,1.56,1.62,0.12,0.14,0.15
514,-1.42,-1.58,-1.41,-1.56,1.56,1.62,0.15,0.15,0.16
519,-1.39,-1.57,-1.40,-1.57,1.57,1.63,0.18,0.17,0.18
524,-1.38,-1.57,-1.38,-1.57,1.57,1.63,0.20,0.19,0.20
529,-1.36,-1.57,-1.37,-1.58,1.58,1.64,0.22,0.21,0.22
535,-1.34,-1.57,-1.35,-1.58,1.58,1.64,0.25,0.24,0.24
540,-1.33,-1.58,-1.33,-1.59,1.59,1.65,0.26,0.26,0.26
545,-1.31,-1.59,-1.31,-1.59,1.59,1.65,0.29,0.28,0.28
551,-1.30,-1.60,-1.29,-1.60,1.60,1.66,0.30,0.31,0.30
556,-1.28,-1.61,-1.28,-1.61,1.61,1.66,0.33,0.33,0.33
562,-1.27,-1.62,-1.26,-1.62,1.62,1.67,0.35,0.36,0.36
568,-1.25,-1.63,-1.24,-1.63,1.63,1.68,0.38,0.38,0.38
573,-1.23,-1.64,-1.23,-1.64,1.64,1.68,0.41,0.41,0.41
579,-1.22,-1.66,-1.21,-1.65,1.65,1.69,0.43,0.44,0.44
585,-1.19,-1.66,-1.19,-1.66,1.66,1.70,0.48,0.47,0.47
591,-1.18,-1.68,-1.18,-1.68,1.68,1.71,0.50,0.50,0.50
596,-1.16,-1.69,-1.16,-1.69,1.69,1.72,0.53,0.53,0.53
602,-1.15,-1.71,-1.14,-1.70,1.70,1.73,0.56,0.56,0.56
608,-1.13,-1.72,-1.12,-1.71,1.71,1.74,0.59,0.59,0.59
615,-1.11,-1.73,-1.11,-1.73,1.73,1.75,0.62,0.62,0.62
621,-1.09,-1.74,-1.09,-1.74,1.74,1.77,0.65,0.65,0.66
627,-1.07,-1.75,-1.07,-1.75,1.75,1.78,0.69,0.68,0.69
633,-1.06,-1.77,-1.05,-1.77,1.77,1.80,0.71,0.72,0.72
639,-1.04,-1.79,-1.03,-1.78,1.78,1.82,0.75,0.75,0.75
646,-1.02,-1.80,-1.01,-1.80,1.80,1.84,0.78,0.78,0.78
652,-0.99,-1.80,-0.99,-1.81,1.81,1.86,0.83,0.82,0.82
659,-0.98,-1.83,-0.98,-1.83,1.83,1.88,0.85,0.85,0.85
665,-0.96,-1.84,-0.96,-1.85,1.85,1.91,0.89,0.89,0.89
672,-0.94,-1.86,-0.94,-1.86,1.86,1.93,0.93,0.92,0.92
679,-0.92,-1.87,-0.93,-1.88,1.88,1.96,0.97,0.95,0.96
686,-0.90,-1.89,-0.91,-1.90,1.90,1.99,1.00,0.99,0.99
692,-0.89,-1.92,-0.89,-1.92,1.92,2.02,1.03,1.03,1.03
699,-0.88,-1.95,-0.87,-1.93,1.93,2.05,1.06,1.06,1.07
706,-0.86,-1.96,-0.84,-1.95,1.95,2.09,1.09,1.10,1.11
713,-0.84,-1.98,-0.82,-1.96,1.96,2.13,1.12,1.14,1.15
721,-0.82,-2.00,-0.79,-1.97,1.97,2.17,1.16,1.18,1.18
728,-0.79,-2.01,-0.77,-1.98,1.98,2.21,1.20,1.22,1.22
735,-0.76,-2.02,-0.74,-2.00,2.00,2.25,1.24,1.26,1.26
742,-0.71,-2.01,-0.71,-2.01,2.01,2.29,1.30,1.30,1.30
750,-0.67,-2.01,-0.68,-2.02,2.02,2.33,1.36,1.34,1.34
757,-0.64,-2.02,-0.66,-2.04,2.04,2.38,1.40,1.38,1.38
765,-0.62,-2.03,-0.64,-2.06,2.06,2.43,1.44,1.42,1.42
773,-0.60,-2.05,-0.62,-2.07,2.07,2.48,1.48,1.46,1.46
780,-0.59,-2.08,-0.60,-2.10,2.10,2.52,1.51,1.49,1.49
788,-0.58,-2.10,-0.59,-2.12,2.12,2.57,1.54,1.52,1.53
796,-0.57,-2.13,-0.58,-2.14,2.14,2.63,1.57,1.56,1.56
804,-0.58,-2.17,-0.57,-2.16,2.16,2.68,1.59,1.59,1.59
812,-0.57,-2.19,-0.56,-2.19,2.19,2.73,1.62,1.62,1.63
820,-0.58,-2.24,-0.56,-2.21,2.21,2.78,1.63,1.65,1.66
828,-0.58,-2.27,-0.54,-2.23,2.23,2.83,1.65,1.68,1.69
837,-0.56,-2.28,-0.53,-2.24,2.24,2.89,1.69,1.71,1.72
845,-0.54,-2.29,-0.51,-2.26,2.26,2.93,1.72,1.75,1.75
853,-0.51,-2.29,-0.49,-2.27,2.27,2.98,1.76,1.78,1.78
862,-0.47,-2.28,-0.47,-2.27,2.27,3.03,1.81,1.81,1.81
871,-0.42,-2.26,-0.44,-2.28,2.28,3.08,1.86,1.84,1.84
879,-0.40,-2.27,-0.41,-2.28,2.28,3.11,1.89,1.87,1.87
888,-0.37,-2.27,-0.39,-2.29,2.29,3.15,1.92,1.90,1.90
897,-0.35,-2.27,-0.36,-2.29,2.29,3.19,1.94,1.93,1.93
906,-0.32,-2.27,-0.33,-2.28,2.28,3.22,1.97,1.95,1.96
915,-0.30,-2.28,-0.30,-2.28,2.28,3.25,1.99,1.98,1.98
924,-0.28,-2.29,-0.27,-2.28,2.28,3.27,2.00,2.01,2.01
933,-0.26,-2.29,-0.24,-2.27,2.27,3.29,2.02,2.03,2.04
943,-0.23,-2.29,-0.21,-2.27,2.27,3.30,2.04,2.06,2.06
952,-0.20,-2.28,-0.18,-2.26,2.26,3.30,2.07,2.08,2.09
962,-0.17,-2.28,-0.15,-2.26,2.26,3.30,2.09,2.11,2.11
971,-0.13,-2.27,-0.11,-2.25,2.25,3.29,2.12,2.14,2.14
981,-0.08,-2.24,-0.08,-2.24,2.24,3.27,2.17,2.16,2.17
991,-0.04,-2.23,-0.04,-2.23,2.23,3.25,2.20,2.19,2.19
1001,0.00,-2.21,-0.01,-2.23,2.23,3.22,2.23,2.22,2.22
1011,0.05,-2.19,0.02,-2.22,2.22,3.18,2.27,2.25,2.25
1021,0.07,-2.20,0.06,-2.21,2.21,3.13,2.29,2.27,2.27
1031,0.10,-2.20,0.09,-2.21,2.21,3.08,2.31,2.30,2.30
1041,0.12,-2.20,0.13,-2.21,2.21,3.02,2.33,2.33,2.33
1052,0.15,-2.20,0.16,-2.20,2.20,2.95,2.36,2.36,2.35
1062,0.17,-2.21,0.19,-2.20,2.20,2.87,2.37,2.39,2.38
1073,0.21,-2.20,0.22,-2.20,2.20,2.79,2.41,2.41,2.41
1084,0.25,-2.19,0.25,-2.19,2.19,2.70,2.44,2.44,2.44
1094,0.28,-2.19,0.28,-2.18,2.18,2.61,2.47,2.47,2.47
1105,0.32,-2.18,0.32,-2.17,2.17,2.51,2.50,2.49,2.50
1116,0.36,-2.17,0.36,-2.16,2.16,2.40,2.53,2.52,2.53
1128,0.40,-2.16,0.41,-2.14,2.14,2.28,2.55,2.55,2.56
1139,0.45,-2.14,0.46,-2.12,2.12,2.17,2.58,2.59,2.59
1150,0.50,-2.12,0.52,-2.10,2.10,2.05,2.60,2.62,2.63
1162,0.56,-2.09,0.58,-2.07,2.07,1.93,2.64,2.65,2.66
1173,0.62,-2.07,0.64,-2.04,2.04,1.81,2.67,2.68,2.69
1185,0.70,-2.02,0.71,-2.01,2.01,1.68,2.71,2.72,2.72
1197,0.78,-1.97,0.78,-1.97,1.97,1.54,2.75,2.75,2.75
1209,0.86,-1.92,0.85,-1.93,1.93,1.41,2.80,2.78,2.79
1221,0.94,-1.87,0.93,-1.89,1.89,1.27,2.84,2.82,2.82
1233,1.01,-1.84,1.00,-1.85,1.85,1.14,2.86,2.85,2.85
1246,1.09,-1.79,1.08,-1.81,1.81,0.99,2.90,2.89,2.88
1258,1.15,-1.76,1.15,-1.77,1.77,0.86,2.92,2.92,2.91
1271,1.23,-1.71,1.23,-1.73,1.73,0.71,2.96,2.96,2.95
1283,1.31,-1.67,1.31,-1.68,1.68,0.58,3.00,2.99,2.98
1296,1.38,-1.63,1.38,-1.64,1.64,0.43,3.02,3.02,3.02
1309,1.46,-1.59,1.46,-1.59,1.59,0.29,3.05,3.05,3.05
1322,1.54,-1.55,1.54,-1.54,1.54,0.15,3.08,3.08,3.09
1335,1.62,-1.50,1.63,-1.49,1.49,0.00,3.11,3.12,3.13
1349,1.72,-1.44,1.73,-1.43,1.43,-0.15,3.15,3.16,3.16
1362,1.80,-1.40,1.83,-1.37,1.37,-0.29,3.17,3.19,3.20
1376,1.90,-1.33,1.93,-1.30,1.30,-0.44,3.21,3.23,3.24
1390,2.02,-1.25,2.04,-1.23,1.23,-0.60,3.26,3.28,3.28
1404,2.13,-1.18,2.16,-1.16,1.16,-0.75,3.29,3.32,3.31
1418,2.26,-1.09,2.27,-1.08,1.08,-0.90,3.35,3.36,3.35
1432,2.40,-0.99,2.39,-1.00,1.00,-1.04,3.41,3.39,3.39
1446,2.53,-0.90,2.51,-0.92,0.92,-1.19,3.45,3.43,3.43
1461,2.66,-0.81,2.63,-0.83,0.83,-1.35,3.50,3.47,3.47
1475,2.78,-0.72,2.76,-0.75,0.75,-1.49,3.53,3.51,3.51
1490,2.90,-0.64,2.88,-0.66,0.66,-1.65,3.57,3.54,3.55
1505,3.01,-0.57,3.00,-0.58,0.58,-1.80,3.59,3.58,3.59
1520,3.12,-0.50,3.12,-0.49,0.49,-1.96,3.62,3.62,3.63
1535,3.23,-0.44,3.24,-0.41,0.41,-2.11,3.64,3.65,3.67
1550,3.34,-0.37,3.36,-0.32,0.32,-2.26,3.67,3.68,3.71
1566,3.48,-0.27,3.47,-0.24,0.24,-2.42,3.72,3.71,3.76
1582,3.61,-0.19,3.59,-0.15,0.15,-2.58,3.76,3.74,3.80
1597,3.74,-0.10,3.71,-0.05,0.05,-2.73,3.80,3.76,3.85
1613,3.88,-0.01,3.83,0.05,-0.05,-2.88,3.83,3.78,3.89
1629,4.01,0.08,3.96,0.17,-0.17,-3.03,3.84,3.78,3.94
1646,4.16,0.18,4.10,0.32,-0.32,-3.19,3.85,3.78,3.98
1662,4.30,0.27,4.27,0.48,-0.48,-3.34,3.82,3.78,4.03
1679,4.48,0.41,4.47,0.68,-0.68,-3.50,3.81,3.79,4.08
1696,4.68,0.56,4.71,0.90,-0.90,-3.65,3.78,3.81,4.12
1713,4.91,0.74,4.99,1.16,-1.16,-3.79,3.76,3.84,4.17
1730,5.19,0.98,5.33,1.45,-1.45,-3.93,3.74,3.88,4.22
1747,5.54,1.28,5.73,1.79,-1.79,-4.07,3.75,3.94,4.27
1764,5.95,1.64,6.18,2.16,-2.16,-4.20,3.79,4.02,4.31
1782,6.46,2.10,6.68,2.57,-2.57,-4.34,3.89,4.11,4.36
1800,7.07,2.66,7.21,3.00,-3.00,-4.46,4.07,4.21,4.42
1818,7.70,3.23,7.77,3.46,-3.46,-4.58,4.25,4.32,4.47
1836,8.36,3.84,8.35,3.91,-3.91,-4.69,4.45,4.43,4.53
1854,9.00,4.42,8.92,4.37,-4.37,-4.79,4.63,4.55,4.59
1873,9.64,5.00,9.47,4.82,-4.82,-4.89,4.83,4.65,4.65
1892,10.23,5.52,10.00,5.24,-5.24,-4.98,5.00,4.76,4.72
