frequency,raw,smoothed,error,error_smoothed,equalization,parametric_eq,fixed_band_eq,equalized_raw,equalized_smoothed,target
20.00,-4.62,-4.61,-9.38,-9.38,6.00,6.25,2.71,1.38,1.39,4.76
20.20,-4.50,-4.50,-9.26,-9.27,6.00,6.25,2.79,1.50,1.50,4.76
20.40,-4.38,-4.39,-9.14,-9.15,6.00,6.24,2.87,1.62,1.61,4.76
20.61,-4.26,-4.26,-9.02,-9.03,6.00,6.24,2.95,1.74,1.74,4.76
20.81,-4.14,-4.14,-8.90,-8.90,6.00,6.23,3.04,1.86,1.86,4.76
21.02,-4.01,-4.00,-8.77,-8.76,6.00,6.23,3.12,1.99,2.00,4.76
21.23,-3.85,-3.85,-8.61,-8.61,6.00,6.22,3.21,2.15,2.15,4.76
21.44,-3.69,-3.68,-8.45,-8.44,6.00,6.21,3.31,2.31,2.32,4.76
21.66,-3.53,-3.51,-8.29,-8.27,6.00,6.21,3.40,2.47,2.49,4.76
21.87,-3.36,-3.39,-8.12,-8.14,6.00,6.20,3.50,2.64,2.61,4.76
22.09,-3.30,-3.33,-8.06,-8.09,6.00,6.20,3.60,2.70,2.67,4.76
22.31,-3.37,-3.35,-8.13,-8.11,6.00,6.19,3.70,2.63,2.65,4.76
22.54,-3.44,-3.44,-8.19,-8.20,6.00,6.18,3.80,2.56,2.56,4.76
22.76,-3.51,-3.52,-8.26,-8.27,6.00,6.18,3.91,2.49,2.48,4.75
22.99,-3.58,-3.54,-8.33,-8.30,6.00,6.17,4.02,2.42,2.46,4.75
23.22,-3.52,-3.52,-8.27,-8.28,6.00,6.16,4.14,2.48,2.48,4.75
23.45,-3.45,-3.47,-8.20,-8.22,6.00,6.16,4.25,2.55,2.53,4.75
23.69,-3.39,-3.39,-8.14,-8.14,6.00,6.15,4.37,2.61,2.61,4.75
23.92,-3.32,-3.31,-8.07,-8.06,6.00,6.14,4.49,2.68,2.69,4.75
24.16,-3.21,-3.21,-7.96,-7.96,6.00,6.13,4.61,2.79,2.79,4.75
24.40,-3.09,-3.08,-7.83,-7.83,6.00,6.13,4.74,2.91,2.92,4.75
24.65,-2.96,-2.95,-7.71,-7.70,6.00,6.12,4.87,3.04,3.05,4.75
24.89,-2.83,-2.85,-7.57,-7.60,6.00,6.11,4.99,3.17,3.15,4.74
25.14,-2.79,-2.80,-7.53,-7.54,6.00,6.10,5.13,3.21,3.20,4.74
25.39,-2.80,-2.78,-7.54,-7.53,6.00,6.09,5.26,3.20,3.22,4.74
25.65,-2.81,-2.80,-7.55,-7.54,6.00,6.09,5.39,3.19,3.20,4.74
25.91,-2.83,-2.84,-7.57,-7.58,6.00,6.08,5.52,3.17,3.16,4.74
26.16,-2.89,-2.90,-7.63,-7.63,6.00,6.07,5.65,3.11,3.10,4.74
26.43,-2.98,-2.99,-7.71,-7.73,6.00,6.06,5.79,3.02,3.01,4.74
26.69,-3.07,-3.08,-7.80,-7.81,6.00,6.05,5.92,2.93,2.92,4.73
26.96,-3.16,-3.11,-7.89,-7.84,6.00,6.04,6.05,2.84,2.89,4.73
27.23,-3.08,-3.08,-7.81,-7.81,6.00,6.03,6.17,2.92,2.92,4.73
27.50,-2.98,-3.00,-7.71,-7.73,6.00,6.02,6.30,3.02,3.00,4.73
27.77,-2.87,-2.88,-7.59,-7.60,6.00,6.01,6.42,3.13,3.12,4.73
28.05,-2.77,-2.76,-7.49,-7.48,6.00,6.00,6.53,3.23,3.24,4.72
28.33,-2.63,-2.63,-7.35,-7.35,6.00,5.99,6.64,3.37,3.37,4.72
28.62,-2.50,-2.50,-7.22,-7.22,6.00,5.98,6.75,3.50,3.50,4.72
28.90,-2.37,-2.39,-7.09,-7.10,6.00,5.97,6.84,3.63,3.61,4.72
29.19,-2.30,-2.31,-7.02,-7.02,6.00,5.96,6.94,3.70,3.69,4.72
29.48,-2.27,-2.26,-6.98,-6.97,6.00,5.95,7.02,3.73,3.74,4.71
29.78,-2.23,-2.23,-6.94,-6.94,6.00,5.94,7.09,3.77,3.77,4.71
30.08,-2.21,-2.21,-6.92,-6.92,6.00,5.93,7.15,3.79,3.79,4.71
30.38,-2.19,-2.20,-6.90,-6.90,6.00,5.92,7.21,3.81,3.80,4.70
30.68,-2.17,-2.18,-6.87,-6.88,6.00,5.91,7.24,3.83,3.82,4.70
30.99,-2.15,-2.12,-6.85,-6.82,6.00,5.89,7.28,3.85,3.88,4.70
31.30,-2.03,-2.01,-6.73,-6.71,6.00,5.88,7.29,3.97,3.99,4.70
31.61,-1.90,-1.90,-6.59,-6.59,6.00,5.87,7.31,4.10,4.10,4.69
31.93,-1.78,-1.84,-6.47,-6.53,6.00,5.86,7.30,4.22,4.16,4.69
32.24,-1.88,-1.91,-6.57,-6.60,6.00,5.84,7.29,4.12,4.09,4.69
32.57,-2.04,-2.04,-6.72,-6.73,6.00,5.83,7.26,3.96,3.96,4.68
32.89,-2.21,-2.13,-6.89,-6.81,6.00,5.82,7.23,3.79,3.87,4.68
33.22,-2.12,-2.08,-6.79,-6.76,6.00,5.80,7.19,3.88,3.92,4.68
33.55,-1.90,-1.92,-6.57,-6.59,6.00,5.79,7.14,4.10,4.08,4.67
33.89,-1.69,-1.73,-6.36,-6.40,6.00,5.78,7.07,4.31,4.27,4.67
34.23,-1.60,-1.60,-6.26,-6.26,6.00,5.76,7.01,4.40,4.40,4.66
34.57,-1.56,-1.54,-6.22,-6.20,6.00,5.75,6.93,4.44,4.46,4.66
34.92,-1.53,-1.55,-6.18,-6.21,6.00,5.73,6.86,4.47,4.45,4.65
35.27,-1.61,-1.64,-6.26,-6.29,6.00,5.72,6.77,4.39,4.36,4.65
35.62,-1.73,-1.73,-6.37,-6.38,6.00,5.70,6.69,4.27,4.27,4.64
35.97,-1.85,-1.76,-6.49,-6.40,6.00,5.68,6.60,4.16,4.25,4.64
36.33,-1.68,-1.66,-6.31,-6.29,6.01,5.67,6.50,4.34,4.36,4.63
36.70,-1.48,-1.51,-6.11,-6.14,6.02,5.65,6.41,4.54,4.50,4.63
37.06,-1.34,-1.43,-5.96,-6.05,6.01,5.64,6.32,4.67,4.58,4.62
37.43,-1.46,-1.47,-6.08,-6.08,5.99,5.62,6.22,4.53,4.52,4.62
37.81,-1.58,-1.52,-6.19,-6.13,5.96,5.60,6.13,4.38,4.45,4.61
38.19,-1.54,-1.48,-6.15,-6.08,5.94,5.58,6.03,4.40,4.46,4.60
38.57,-1.33,-1.34,-5.93,-5.94,5.91,5.57,5.94,4.58,4.57,4.60
38.95,-1.12,-1.21,-5.71,-5.80,5.86,5.55,5.85,4.74,4.66,4.59
39.34,-1.15,-1.15,-5.74,-5.74,5.80,5.53,5.76,4.65,4.65,4.58
39.74,-1.20,-1.17,-5.78,-5.74,5.73,5.51,5.67,4.53,4.57,4.58
40.14,-1.20,-1.18,-5.77,-5.75,5.67,5.49,5.59,4.47,4.49,4.57
40.54,-1.12,-1.12,-5.68,-5.69,5.63,5.47,5.51,4.51,4.50,4.56
40.94,-1.03,-1.03,-5.58,-5.59,5.61,5.45,5.43,4.58,4.58,4.55
41.35,-0.96,-0.94,-5.50,-5.48,5.61,5.43,5.36,4.65,4.67,4.55
41.76,-0.89,-0.92,-5.43,-5.46,5.60,5.41,5.28,4.71,4.68,4.54
42.18,-0.94,-1.02,-5.47,-5.55,5.58,5.39,5.22,4.64,4.56,4.53
42.60,-1.15,-1.14,-5.67,-5.66,5.55,5.36,5.15,4.39,4.41,4.52
43.03,-1.32,-1.18,-5.83,-5.68,5.51,5.34,5.09,4.19,4.34,4.51
43.46,-1.09,-1.10,-5.59,-5.60,5.49,5.32,5.04,4.40,4.39,4.50
43.90,-0.86,-0.95,-5.35,-5.44,5.46,5.30,4.98,4.59,4.51,4.49
44.33,-0.81,-0.82,-5.29,-5.29,5.42,5.27,4.94,4.61,4.60,4.48
44.78,-0.81,-0.79,-5.28,-5.26,5.36,5.25,4.89,4.54,4.56,4.47
45.23,-0.81,-0.81,-5.26,-5.26,5.28,5.22,4.85,4.47,4.47,4.45
45.68,-0.81,-0.81,-5.25,-5.25,5.21,5.20,4.81,4.40,4.40,4.44
46.13,-0.79,-0.77,-5.22,-5.20,5.15,5.17,4.78,4.36,4.38,4.43
46.60,-0.72,-0.72,-5.14,-5.14,5.11,5.15,4.75,4.39,4.39,4.42
47.06,-0.66,-0.67,-5.06,-5.07,5.09,5.12,4.72,4.43,4.42,4.40
47.53,-0.63,-0.63,-5.02,-5.02,5.06,5.09,4.70,4.43,4.43,4.39
48.01,-0.61,-0.61,-4.99,-4.99,5.02,5.07,4.68,4.41,4.41,4.38
48.49,-0.61,-0.61,-4.97,-4.97,4.99,5.04,4.66,4.37,4.38,4.36
48.97,-0.61,-0.61,-4.96,-4.96,4.95,5.01,4.65,4.34,4.33,4.35
49.46,-0.61,-0.61,-4.94,-4.94,4.91,4.98,4.64,4.30,4.30,4.33
49.96,-0.61,-0.60,-4.92,-4.91,4.87,4.95,4.63,4.26,4.27,4.31
50.46,-0.56,-0.56,-4.86,-4.86,4.83,4.92,4.62,4.27,4.27,4.30
50.96,-0.51,-0.51,-4.79,-4.79,4.79,4.89,4.62,4.28,4.28,4.28
51.47,-0.46,-0.46,-4.72,-4.72,4.74,4.86,4.61,4.28,4.28,4.26
51.99,-0.41,-0.42,-4.65,-4.67,4.69,4.83,4.61,4.28,4.27,4.24
52.51,-0.41,-0.41,-4.63,-4.63,4.64,4.79,4.61,4.23,4.23,4.22
53.03,-0.41,-0.41,-4.61,-4.61,4.61,4.76,4.61,4.20,4.20,4.20
53.56,-0.41,-0.41,-4.59,-4.59,4.60,4.73,4.62,4.19,4.19,4.18
54.10,-0.41,-0.41,-4.57,-4.57,4.61,4.69,4.62,4.20,4.20,4.16
54.64,-0.41,-0.40,-4.55,-4.54,4.60,4.66,4.62,4.19,4.21,4.14
55.18,-0.41,-0.40,-4.53,-4.51,4.57,4.62,4.62,4.16,4.18,4.12
55.74,-0.41,-0.50,-4.50,-4.59,4.52,4.58,4.62,4.11,4.02,4.09
56.29,-0.53,-0.60,-4.60,-4.67,4.46,4.55,4.62,3.92,3.86,4.07
56.86,-0.75,-0.50,-4.79,-4.54,4.39,4.51,4.62,3.64,3.89,4.04
57.42,-0.38,-0.31,-4.39,-4.33,4.32,4.47,4.61,3.95,4.01,4.02
58.00,0.19,-0.12,-3.80,-4.11,4.25,4.43,4.60,4.44,4.13,3.99
58.58,-0.04,-0.01,-4.00,-3.98,4.19,4.39,4.59,4.15,4.18,3.96
59.16,-0.21,-0.09,-4.15,-4.02,4.12,4.35,4.58,3.91,4.03,3.94
59.76,-0.21,-0.22,-4.12,-4.13,4.06,4.31,4.56,3.85,3.84,3.91
60.35,-0.21,-0.23,-4.09,-4.10,4.03,4.26,4.54,3.82,3.80,3.88
60.96,-0.21,-0.21,-4.06,-4.06,4.03,4.22,4.52,3.82,3.82,3.85
61.57,-0.21,-0.21,-4.03,-4.03,4.02,4.18,4.49,3.81,3.81,3.82
62.18,-0.21,-0.21,-3.99,-3.99,4.00,4.13,4.45,3.79,3.79,3.78
62.80,-0.21,-0.21,-3.96,-3.96,3.95,4.08,4.41,3.74,3.74,3.75
63.43,-0.21,-0.23,-3.93,-3.94,3.88,4.04,4.37,3.67,3.65,3.72
64.07,-0.21,-0.23,-3.89,-3.91,3.83,3.99,4.32,3.62,3.59,3.68
64.71,-0.21,-0.08,-3.85,-3.72,3.78,3.94,4.27,3.57,3.70,3.64
65.35,-0.02,0.01,-3.63,-3.60,3.73,3.89,4.21,3.71,3.74,3.61
66.01,0.30,-0.03,-3.27,-3.60,3.68,3.84,4.15,3.98,3.65,3.57
66.67,-0.24,-0.09,-3.77,-3.62,3.62,3.79,4.08,3.38,3.53,3.53
67.33,-0.36,-0.17,-3.85,-3.66,3.56,3.74,4.01,3.21,3.40,3.49
68.01,-0.07,-0.20,-3.52,-3.65,3.51,3.69,3.94,3.44,3.31,3.45
68.69,-0.03,-0.06,-3.44,-3.47,3.46,3.63,3.86,3.43,3.40,3.41
69.37,-0.01,0.01,-3.37,-3.36,3.42,3.58,3.78,3.41,3.43,3.36
70.07,-0.01,-0.01,-3.33,-3.33,3.37,3.52,3.70,3.36,3.36,3.32
70.77,-0.01,-0.01,-3.29,-3.28,3.30,3.47,3.62,3.29,3.30,3.27
71.48,-0.01,-0.01,-3.24,-3.24,3.25,3.41,3.53,3.24,3.24,3.23
72.19,-0.01,-0.01,-3.19,-3.19,3.20,3.35,3.44,3.19,3.19,3.18
72.91,-0.01,-0.01,-3.14,-3.14,3.15,3.30,3.35,3.14,3.14,3.13
73.64,-0.01,-0.01,-3.09,-3.09,3.11,3.24,3.26,3.10,3.10,3.08
74.38,-0.01,-0.01,-3.04,-3.04,3.03,3.18,3.17,3.02,3.02,3.03
75.12,-0.01,-0.03,-2.99,-3.01,2.93,3.11,3.08,2.92,2.90,2.98
75.87,-0.01,-0.03,-2.94,-2.96,2.84,3.05,2.99,2.83,2.81,2.93
76.63,-0.01,0.09,-2.89,-2.79,2.75,2.99,2.90,2.74,2.84,2.88
77.40,0.20,0.23,-2.62,-2.59,2.66,2.93,2.81,2.86,2.90,2.82
78.17,0.48,0.32,-2.29,-2.45,2.59,2.86,2.71,3.07,2.91,2.77
78.95,0.32,0.32,-2.39,-2.39,2.52,2.80,2.62,2.84,2.84,2.71
79.74,0.15,0.22,-2.50,-2.43,2.46,2.73,2.53,2.61,2.68,2.65
80.54,0.09,0.10,-2.51,-2.49,2.41,2.66,2.44,2.50,2.51,2.60
81.35,0.09,0.08,-2.45,-2.46,2.37,2.60,2.36,2.46,2.45,2.54
82.16,0.09,0.08,-2.39,-2.39,2.35,2.53,2.27,2.44,2.43,2.48
82.98,0.09,0.09,-2.33,-2.33,2.32,2.46,2.18,2.41,2.41,2.42
83.81,0.09,0.09,-2.26,-2.26,2.28,2.39,2.10,2.37,2.37,2.35
84.65,0.09,0.09,-2.20,-2.20,2.22,2.32,2.01,2.31,2.31,2.29
85.50,0.09,0.09,-2.14,-2.14,2.15,2.25,1.93,2.24,2.24,2.23
86.35,0.09,0.09,-2.07,-2.07,2.07,2.18,1.85,2.16,2.16,2.16
87.22,0.09,0.09,-2.01,-2.01,2.01,2.10,1.77,2.10,2.10,2.10
88.09,0.09,0.09,-1.94,-1.94,1.94,2.03,1.69,2.03,2.03,2.03
88.97,0.09,0.09,-1.87,-1.87,1.87,1.96,1.61,1.96,1.96,1.96
89.86,0.09,0.09,-1.81,-1.80,1.80,1.89,1.53,1.89,1.90,1.90
90.76,0.10,0.10,-1.73,-1.73,1.73,1.81,1.46,1.83,1.83,1.83
91.66,0.10,0.10,-1.66,-1.66,1.66,1.74,1.38,1.76,1.76,1.76
92.58,0.10,0.10,-1.59,-1.59,1.59,1.66,1.31,1.69,1.69,1.69
93.51,0.10,0.10,-1.52,-1.52,1.52,1.59,1.24,1.62,1.62,1.62
94.44,0.10,0.10,-1.45,-1.45,1.45,1.51,1.17,1.55,1.55,1.55
95.39,0.10,0.10,-1.38,-1.38,1.38,1.44,1.10,1.48,1.48,1.48
96.34,0.09,0.09,-1.32,-1.31,1.32,1.36,1.03,1.41,1.41,1.41
97.30,0.09,0.09,-1.25,-1.25,1.25,1.29,0.96,1.34,1.34,1.34
98.28,0.08,0.08,-1.19,-1.19,1.19,1.21,0.90,1.27,1.27,1.27
99.26,0.06,0.06,-1.13,-1.13,1.13,1.14,0.83,1.19,1.19,1.19
100.25,0.05,0.05,-1.07,-1.07,1.07,1.06,0.77,1.12,1.12,1.12
101.25,0.03,0.03,-1.02,-1.02,1.01,0.98,0.70,1.04,1.05,1.05
102.27,0.02,0.02,-0.96,-0.96,0.96,0.91,0.64,0.98,0.98,0.98
103.29,-0.00,-0.00,-0.90,-0.90,0.90,0.83,0.58,0.90,0.90,0.90
104.32,-0.02,-0.02,-0.85,-0.85,0.85,0.76,0.52,0.83,0.83,0.83
105.37,-0.04,-0.04,-0.80,-0.80,0.80,0.68,0.46,0.76,0.76,0.76
106.42,-0.06,-0.06,-0.74,-0.75,0.75,0.61,0.40,0.69,0.69,0.68
107.48,-0.09,-0.09,-0.70,-0.70,0.70,0.53,0.34,0.61,0.61,0.61
108.56,-0.11,-0.11,-0.65,-0.65,0.65,0.46,0.29,0.54,0.54,0.54
109.64,-0.13,-0.13,-0.60,-0.60,0.60,0.38,0.23,0.47,0.46,0.47
110.74,-0.15,-0.15,-0.54,-0.54,0.54,0.31,0.18,0.39,0.39,0.39
111.85,-0.17,-0.17,-0.49,-0.49,0.49,0.24,0.13,0.32,0.32,0.32
112.97,-0.18,-0.18,-0.43,-0.43,0.42,0.17,0.08,0.24,0.24,0.25
114.10,-0.19,-0.19,-0.37,-0.37,0.36,0.10,0.03,0.17,0.17,0.18
115.24,-0.19,-0.19,-0.30,-0.30,0.29,0.02,-0.02,0.10,0.10,0.11
116.39,-0.19,-0.19,-0.22,-0.22,0.22,-0.05,-0.07,0.03,0.03,0.03
117.55,-0.18,-0.18,-0.14,-0.15,0.15,-0.12,-0.11,-0.03,-0.04,-0.04
118.73,-0.18,-0.18,-0.07,-0.07,0.07,-0.18,-0.16,-0.11,-0.10,-0.11
119.92,-0.17,-0.17,0.01,0.01,-0.00,-0.25,-0.20,-0.17,-0.17,-0.18
121.12,-0.16,-0.16,0.08,0.08,-0.08,-0.32,-0.24,-0.24,-0.24,-0.24
122.33,-0.16,-0.16,0.15,0.16,-0.16,-0.39,-0.28,-0.32,-0.31,-0.31
123.55,-0.15,-0.15,0.23,0.23,-0.23,-0.45,-0.32,-0.38,-0.38,-0.38
124.79,-0.14,-0.14,0.31,0.31,-0.31,-0.51,-0.36,-0.45,-0.45,-0.45
126.03,-0.13,-0.13,0.38,0.38,-0.38,-0.58,-0.40,-0.51,-0.51,-0.51
127.29,-0.13,-0.13,0.45,0.45,-0.45,-0.64,-0.43,-0.58,-0.58,-0.58
128.57,-0.12,-0.12,0.52,0.52,-0.52,-0.70,-0.47,-0.64,-0.64,-0.64
129.85,-0.12,-0.12,0.59,0.59,-0.59,-0.76,-0.50,-0.71,-0.71,-0.71
131.15,-0.11,-0.11,0.66,0.66,-0.66,-0.82,-0.53,-0.77,-0.77,-0.77
132.46,-0.11,-0.11,0.72,0.72,-0.72,-0.88,-0.56,-0.83,-0.83,-0.83
133.79,-0.10,-0.10,0.79,0.79,-0.79,-0.94,-0.59,-0.89,-0.89,-0.89
135.12,-0.10,-0.10,0.85,0.86,-0.87,-0.99,-0.62,-0.97,-0.96,-0.95
136.48,-0.09,-0.09,0.92,0.92,-0.94,-1.05,-0.65,-1.03,-1.03,-1.01
137.84,-0.09,-0.09,0.98,0.98,-1.00,-1.10,-0.68,-1.09,-1.09,-1.07
139.22,-0.09,-0.09,1.04,1.04,-1.05,-1.15,-0.71,-1.14,-1.13,-1.13
140.61,-0.09,-0.09,1.10,1.10,-1.07,-1.20,-0.73,-1.16,-1.16,-1.19
142.02,-0.09,-0.06,1.15,1.19,-1.08,-1.25,-0.76,-1.17,-1.13,-1.24
143.44,-0.09,-0.10,1.21,1.20,-1.10,-1.30,-0.79,-1.19,-1.19,-1.30
144.87,-0.09,-0.24,1.26,1.11,-1.12,-1.35,-0.81,-1.21,-1.35,-1.35
146.32,-0.45,-0.36,0.95,1.04,-1.14,-1.40,-0.84,-1.59,-1.50,-1.40
147.78,-0.54,-0.41,0.90,1.04,-1.18,-1.44,-0.87,-1.72,-1.59,-1.44
149.26,-0.31,-0.38,1.18,1.12,-1.22,-1.48,-0.90,-1.53,-1.59,-1.49
150.75,-0.19,-0.25,1.35,1.29,-1.27,-1.53,-0.92,-1.46,-1.52,-1.54
152.26,-0.19,-0.17,1.40,1.42,-1.32,-1.57,-0.95,-1.51,-1.50,-1.59
153.78,-0.19,-0.18,1.45,1.46,-1.40,-1.61,-0.98,-1.59,-1.58,-1.64
155.32,-0.19,-0.19,1.50,1.50,-1.47,-1.64,-1.01,-1.66,-1.66,-1.69
156.88,-0.19,-0.19,1.54,1.54,-1.53,-1.68,-1.04,-1.72,-1.72,-1.73
158.44,-0.19,-0.19,1.59,1.59,-1.59,-1.72,-1.07,-1.78,-1.78,-1.78
160.03,-0.19,-0.19,1.63,1.63,-1.64,-1.75,-1.10,-1.83,-1.83,-1.82
161.63,-0.19,-0.19,1.68,1.68,-1.71,-1.79,-1.13,-1.90,-1.90,-1.87
163.24,-0.19,-0.20,1.72,1.71,-1.78,-1.82,-1.16,-1.97,-1.98,-1.91
164.88,-0.19,-0.21,1.76,1.74,-1.84,-1.85,-1.20,-2.03,-2.05,-1.95
166.53,-0.20,-0.11,1.79,1.88,-1.89,-1.88,-1.23,-2.09,-2.00,-1.99
168.19,-0.05,-0.01,1.98,2.03,-1.93,-1.91,-1.27,-1.98,-1.93,-2.03
169.87,0.21,0.03,2.28,2.10,-1.95,-1.93,-1.31,-1.74,-1.92,-2.07
171.57,-0.05,-0.03,2.05,2.07,-1.96,-1.96,-1.35,-2.01,-2.00,-2.11
173.29,-0.25,-0.17,1.89,1.97,-1.97,-1.98,-1.38,-2.22,-2.14,-2.14
175.02,-0.33,-0.32,1.85,1.86,-1.97,-2.01,-1.43,-2.30,-2.29,-2.18
176.77,-0.33,-0.35,1.88,1.86,-1.96,-2.03,-1.47,-2.29,-2.31,-2.21
178.54,-0.33,-0.34,1.91,1.90,-1.95,-2.05,-1.51,-2.28,-2.29,-2.24
180.32,-0.33,-0.33,1.94,1.95,-1.94,-2.07,-1.56,-2.27,-2.26,-2.27
182.13,-0.32,-0.32,1.98,1.98,-1.95,-2.09,-1.60,-2.27,-2.27,-2.30
183.95,-0.31,-0.31,2.02,2.02,-1.99,-2.11,-1.65,-2.30,-2.30,-2.33
185.79,-0.30,-0.30,2.06,2.06,-2.05,-2.13,-1.70,-2.35,-2.35,-2.36
187.65,-0.29,-0.29,2.10,2.10,-2.13,-2.14,-1.74,-2.42,-2.42,-2.39
189.52,-0.27,-0.29,2.15,2.13,-2.20,-2.16,-1.80,-2.47,-2.50,-2.42
191.42,-0.26,-0.27,2.19,2.18,-2.26,-2.17,-1.85,-2.52,-2.53,-2.45
193.33,-0.25,-0.15,2.22,2.32,-2.31,-2.18,-1.90,-2.56,-2.46,-2.47
195.27,-0.04,-0.05,2.46,2.45,-2.34,-2.20,-1.95,-2.38,-2.39,-2.50
197.22,0.12,-0.03,2.64,2.49,-2.35,-2.21,-2.01,-2.23,-2.38,-2.52
199.19,-0.12,-0.09,2.42,2.46,-2.36,-2.22,-2.06,-2.48,-2.45,-2.54
201.18,-0.30,-0.21,2.27,2.36,-2.38,-2.22,-2.11,-2.68,-2.59,-2.57
203.19,-0.29,-0.31,2.30,2.28,-2.41,-2.23,-2.17,-2.70,-2.72,-2.59
205.23,-0.29,-0.31,2.32,2.30,-2.44,-2.24,-2.23,-2.73,-2.75,-2.61
207.28,-0.29,-0.31,2.34,2.32,-2.44,-2.25,-2.28,-2.73,-2.75,-2.63
209.35,-0.29,-0.25,2.36,2.41,-2.43,-2.25,-2.34,-2.72,-2.67,-2.65
211.44,-0.23,-0.14,2.44,2.53,-2.40,-2.26,-2.39,-2.63,-2.54,-2.67
213.56,0.03,-0.08,2.72,2.61,-2.36,-2.26,-2.44,-2.33,-2.44,-2.69
215.69,-0.09,-0.17,2.62,2.54,-2.34,-2.26,-2.50,-2.43,-2.51,-2.71
217.85,-0.39,-0.40,2.34,2.32,-2.31,-2.26,-2.55,-2.70,-2.72,-2.73
220.03,-0.75,-0.64,1.99,2.10,-2.30,-2.27,-2.60,-3.05,-2.94,-2.74
222.23,-0.80,-0.72,1.96,2.04,-2.29,-2.27,-2.64,-3.09,-3.01,-2.76
224.45,-0.57,-0.68,2.21,2.09,-2.28,-2.27,-2.69,-2.85,-2.96,-2.78
226.70,-0.51,-0.54,2.28,2.25,-2.26,-2.27,-2.73,-2.77,-2.81,-2.79
228.96,-0.51,-0.36,2.30,2.44,-2.28,-2.26,-2.78,-2.79,-2.64,-2.81
231.25,-0.25,-0.31,2.57,2.51,-2.33,-2.26,-2.81,-2.58,-2.64,-2.82
233.57,-0.15,-0.32,2.68,2.51,-2.40,-2.26,-2.85,-2.55,-2.73,-2.83
235.90,-0.53,-0.41,2.33,2.44,-2.47,-2.26,-2.88,-3.00,-2.89,-2.86
238.26,-0.56,-0.53,2.31,2.34,-2.50,-2.25,-2.90,-3.06,-3.03,-2.87
240.64,-0.55,-0.49,2.33,2.40,-2.49,-2.25,-2.92,-3.04,-2.98,-2.88
243.05,-0.35,-0.36,2.55,2.54,-2.48,-2.24,-2.94,-2.83,-2.83,-2.90
245.48,-0.16,-0.32,2.75,2.58,-2.47,-2.24,-2.96,-2.63,-2.79,-2.91
247.93,-0.42,-0.37,2.50,2.56,-2.48,-2.23,-2.97,-2.90,-2.84,-2.92
250.41,-0.54,-0.48,2.39,2.45,-2.50,-2.22,-2.97,-3.04,-2.99,-2.93
252.92,-0.55,-0.58,2.39,2.36,-2.52,-2.22,-2.97,-3.07,-3.10,-2.94
255.45,-0.54,-0.49,2.40,2.45,-2.52,-2.21,-2.96,-3.06,-3.01,-2.94
258.00,-0.44,-0.38,2.51,2.57,-2.49,-2.20,-2.96,-2.93,-2.88,-2.95
260.58,-0.21,-0.36,2.75,2.60,-2.47,-2.19,-2.94,-2.68,-2.83,-2.96
263.19,-0.38,-0.40,2.59,2.57,-2.47,-2.18,-2.93,-2.85,-2.87,-2.97
265.82,-0.61,-0.51,2.37,2.47,-2.47,-2.17,-2.90,-3.08,-2.98,-2.98
268.48,-0.63,-0.65,2.36,2.33,-2.48,-2.16,-2.88,-3.11,-3.13,-2.99
271.16,-0.63,-0.64,2.36,2.35,-2.47,-2.15,-2.85,-3.10,-3.12,-2.99
273.87,-0.64,-0.54,2.36,2.47,-2.46,-2.14,-2.82,-3.10,-2.99,-3.00
276.61,-0.40,-0.49,2.61,2.52,-2.45,-2.13,-2.78,-2.85,-2.94,-3.01
279.38,-0.41,-0.52,2.61,2.50,-2.44,-2.12,-2.74,-2.85,-2.96,-3.02
282.17,-0.65,-0.58,2.37,2.44,-2.44,-2.11,-2.70,-3.09,-3.01,-3.02
284.99,-0.73,-0.59,2.29,2.43,-2.43,-2.09,-2.66,-3.16,-3.02,-3.02
287.84,-0.55,-0.59,2.47,2.43,-2.43,-2.08,-2.61,-2.98,-3.02,-3.02
290.72,-0.40,-0.58,2.62,2.44,-2.41,-2.07,-2.57,-2.81,-2.99,-3.02
293.63,-0.74,-0.64,2.29,2.38,-2.38,-2.05,-2.52,-3.12,-3.03,-3.03
296.57,-0.79,-0.75,2.24,2.28,-2.36,-2.04,-2.47,-3.15,-3.11,-3.03
299.53,-0.77,-0.74,2.25,2.28,-2.35,-2.03,-2.43,-3.13,-3.10,-3.02
302.53,-0.66,-0.64,2.37,2.39,-2.35,-2.01,-2.38,-3.01,-2.99,-3.03
305.55,-0.48,-0.63,2.54,2.40,-2.35,-2.00,-2.33,-2.83,-2.98,-3.02
308.61,-0.69,-0.67,2.34,2.35,-2.33,-1.98,-2.28,-3.02,-3.01,-3.03
311.69,-0.83,-0.71,2.19,2.31,-2.31,-1.97,-2.23,-3.14,-3.02,-3.02
314.81,-0.75,-0.73,2.28,2.29,-2.29,-1.96,-2.18,-3.04,-3.02,-3.03
317.96,-0.61,-0.72,2.41,2.31,-2.27,-1.94,-2.13,-2.88,-2.99,-3.02
321.14,-0.73,-0.75,2.30,2.27,-2.25,-1.92,-2.09,-2.98,-3.00,-3.03
324.35,-0.90,-0.85,2.12,2.17,-2.23,-1.91,-2.04,-3.13,-3.08,-3.02
327.59,-0.93,-0.91,2.08,2.11,-2.22,-1.89,-1.99,-3.15,-3.12,-3.01
330.87,-0.91,-0.87,2.10,2.14,-2.20,-1.88,-1.95,-3.11,-3.07,-3.01
334.18,-0.74,-0.80,2.26,2.20,-2.16,-1.86,-1.91,-2.90,-2.97,-3.00
337.52,-0.76,-0.76,2.25,2.25,-2.13,-1.85,-1.86,-2.89,-2.88,-3.01
340.90,-0.80,-0.79,2.20,2.20,-2.09,-1.83,-1.82,-2.89,-2.88,-3.00
344.30,-0.87,-0.91,2.12,2.08,-2.06,-1.81,-1.78,-2.93,-2.97,-2.99
347.75,-1.06,-1.03,1.93,1.96,-2.03,-1.80,-1.74,-3.09,-3.06,-2.99
351.23,-1.14,-1.11,1.85,1.87,-1.99,-1.78,-1.71,-3.13,-3.10,-2.99
354.74,-1.14,-1.10,1.83,1.88,-1.94,-1.77,-1.67,-3.08,-3.04,-2.97
358.28,-1.03,-1.06,1.95,1.91,-1.90,-1.75,-1.64,-2.93,-2.97,-2.98
361.87,-0.96,-1.06,2.01,1.91,-1.87,-1.73,-1.60,-2.83,-2.93,-2.97
365.49,-1.16,-1.06,1.80,1.91,-1.85,-1.72,-1.57,-3.01,-2.91,-2.96
369.14,-1.13,-1.10,1.83,1.86,-1.84,-1.70,-1.54,-2.97,-2.94,-2.97
372.83,-1.04,-1.15,1.91,1.80,-1.83,-1.68,-1.51,-2.87,-2.98,-2.95
376.56,-1.19,-1.14,1.76,1.81,-1.81,-1.67,-1.48,-3.00,-2.95,-2.95
380.33,-1.23,-1.17,1.71,1.77,-1.77,-1.65,-1.46,-3.00,-2.94,-2.94
384.13,-1.14,-1.23,1.80,1.71,-1.72,-1.63,-1.43,-2.86,-2.95,-2.94
387.97,-1.26,-1.24,1.67,1.69,-1.67,-1.62,-1.41,-2.93,-2.91,-2.93
391.85,-1.32,-1.26,1.59,1.66,-1.63,-1.60,-1.39,-2.95,-2.89,-2.91
395.77,-1.25,-1.31,1.66,1.59,-1.59,-1.58,-1.36,-2.84,-2.91,-2.91
399.73,-1.34,-1.37,1.56,1.54,-1.56,-1.57,-1.34,-2.90,-2.93,-2.90
403.72,-1.45,-1.41,1.44,1.49,-1.53,-1.55,-1.32,-2.98,-2.94,-2.89
407.76,-1.48,-1.43,1.42,1.46,-1.50,-1.53,-1.31,-2.98,-2.93,-2.90
411.84,-1.39,-1.42,1.50,1.47,-1.46,-1.52,-1.29,-2.85,-2.88,-2.89
415.96,-1.35,-1.41,1.53,1.47,-1.43,-1.50,-1.27,-2.78,-2.84,-2.88
420.12,-1.47,-1.42,1.41,1.46,-1.40,-1.48,-1.26,-2.87,-2.82,-2.88
424.32,-1.49,-1.49,1.38,1.38,-1.37,-1.47,-1.24,-2.86,-2.86,-2.87
428.56,-1.51,-1.55,1.35,1.32,-1.34,-1.45,-1.23,-2.85,-2.89,-2.86
432.85,-1.61,-1.55,1.25,1.30,-1.32,-1.44,-1.21,-2.93,-2.87,-2.86
437.18,-1.57,-1.58,1.28,1.27,-1.29,-1.42,-1.20,-2.86,-2.87,-2.85
441.55,-1.53,-1.59,1.31,1.25,-1.28,-1.40,-1.19,-2.81,-2.86,-2.84
445.96,-1.61,-1.56,1.22,1.27,-1.27,-1.39,-1.18,-2.88,-2.82,-2.83
450.42,-1.56,-1.54,1.25,1.27,-1.27,-1.37,-1.17,-2.83,-2.82,-2.81
454.93,-1.47,-1.53,1.33,1.27,-1.29,-1.36,-1.16,-2.76,-2.82,-2.80
459.48,-1.52,-1.49,1.27,1.31,-1.30,-1.34,-1.15,-2.82,-2.79,-2.79
464.07,-1.49,-1.46,1.31,1.33,-1.32,-1.33,-1.14,-2.81,-2.78,-2.80
468.71,-1.41,-1.46,1.38,1.33,-1.33,-1.31,-1.13,-2.74,-2.79,-2.79
473.40,-1.43,-1.42,1.35,1.36,-1.34,-1.30,-1.13,-2.77,-2.76,-2.78
478.13,-1.43,-1.40,1.34,1.36,-1.35,-1.28,-1.12,-2.78,-2.75,-2.77
