frequency,raw,error,smoothed,error_smoothed,equalization,parametric_eq,fixed_band_eq,equalized_raw,equalized_smoothed,target
20.00,-4.62,-11.84,-4.61,-11.84,6.00,6.34,2.73,1.38,1.39,7.22
20.20,-4.50,-11.70,-4.50,-11.71,6.00,6.34,2.81,1.50,1.50,7.20
20.40,-4.38,-11.56,-4.39,-11.57,6.00,6.33,2.89,1.62,1.61,7.18
20.61,-4.26,-11.43,-4.26,-11.43,6.00,6.33,2.97,1.74,1.74,7.17
20.81,-4.14,-11.29,-4.14,-11.29,6.00,6.33,3.06,1.86,1.86,7.15
21.02,-4.01,-11.15,-4.00,-11.14,6.00,6.33,3.14,1.99,2.00,7.14
21.23,-3.85,-10.97,-3.85,-10.98,6.00,6.33,3.23,2.15,2.15,7.12
21.44,-3.69,-10.80,-3.68,-10.79,6.00,6.33,3.32,2.31,2.32,7.11
21.66,-3.53,-10.63,-3.51,-10.60,6.00,6.33,3.42,2.47,2.49,7.10
21.87,-3.36,-10.44,-3.39,-10.47,6.00,6.32,3.52,2.64,2.61,7.08
22.09,-3.30,-10.37,-3.33,-10.40,6.00,6.32,3.62,2.70,2.67,7.06
22.31,-3.37,-10.42,-3.35,-10.41,6.00,6.32,3.72,2.63,2.65,7.05
22.54,-3.44,-10.48,-3.44,-10.48,6.00,6.32,3.82,2.56,2.56,7.04
22.76,-3.51,-10.54,-3.52,-10.55,6.00,6.32,3.93,2.49,2.48,7.03
22.99,-3.58,-10.60,-3.54,-10.56,6.00,6.32,4.04,2.42,2.46,7.02
23.22,-3.52,-10.53,-3.52,-10.54,6.00,6.31,4.16,2.48,2.48,7.01
23.45,-3.45,-10.46,-3.47,-10.47,6.00,6.31,4.27,2.55,2.53,7.01
23.69,-3.39,-10.39,-3.39,-10.39,6.00,6.31,4.39,2.61,2.61,7.00
23.92,-3.32,-10.31,-3.31,-10.30,6.00,6.31,4.51,2.68,2.69,7.00
24.16,-3.21,-10.20,-3.21,-10.20,6.00,6.31,4.63,2.79,2.79,6.99
24.40,-3.09,-10.08,-3.08,-10.07,6.00,6.31,4.76,2.91,2.92,6.99
24.65,-2.96,-9.95,-2.95,-9.94,6.00,6.30,4.89,3.04,3.05,6.99
24.89,-2.83,-9.82,-2.85,-9.84,6.00,6.30,5.01,3.17,3.15,6.99
25.14,-2.79,-9.78,-2.80,-9.79,6.00,6.30,5.15,3.21,3.20,6.99
25.39,-2.80,-9.79,-2.78,-9.77,6.00,6.30,5.28,3.20,3.22,6.99
25.65,-2.81,-9.79,-2.80,-9.79,6.00,6.29,5.41,3.19,3.20,6.98
25.91,-2.83,-9.82,-2.84,-9.83,6.00,6.29,5.54,3.17,3.16,6.99
26.16,-2.89,-9.88,-2.90,-9.89,6.00,6.29,5.68,3.11,3.10,6.99
26.43,-2.98,-9.97,-2.99,-9.98,6.00,6.29,5.81,3.02,3.01,6.99
26.69,-3.07,-10.06,-3.08,-10.06,6.00,6.28,5.94,2.93,2.92,6.99
26.96,-3.16,-10.14,-3.11,-10.10,6.00,6.28,6.07,2.84,2.89,6.98
27.23,-3.08,-10.06,-3.08,-10.06,6.00,6.28,6.20,2.92,2.92,6.98
27.50,-2.98,-9.96,-3.00,-9.98,6.00,6.28,6.32,3.02,3.00,6.98
27.77,-2.87,-9.85,-2.88,-9.85,6.00,6.27,6.44,3.13,3.12,6.98
28.05,-2.77,-9.74,-2.76,-9.73,6.00,6.27,6.56,3.23,3.24,6.97
28.33,-2.63,-9.59,-2.63,-9.59,6.00,6.27,6.68,3.37,3.37,6.96
28.62,-2.50,-9.46,-2.50,-9.46,6.00,6.26,6.78,3.50,3.50,6.96
28.90,-2.37,-9.33,-2.39,-9.34,6.00,6.26,6.88,3.63,3.61,6.96
29.19,-2.30,-9.25,-2.31,-9.26,6.00,6.26,6.98,3.70,3.69,6.95
29.48,-2.27,-9.22,-2.26,-9.21,6.00,6.25,7.06,3.73,3.74,6.95
29.78,-2.23,-9.18,-2.23,-9.18,6.00,6.25,7.14,3.77,3.77,6.95
30.08,-2.21,-9.15,-2.21,-9.15,6.00,6.25,7.21,3.79,3.79,6.94
30.38,-2.19,-9.13,-2.20,-9.14,6.00,6.24,7.27,3.81,3.80,6.94
30.68,-2.17,-9.10,-2.18,-9.11,6.00,6.24,7.32,3.83,3.82,6.93
30.99,-2.15,-9.07,-2.12,-9.04,6.00,6.23,7.36,3.85,3.88,6.92
31.30,-2.03,-8.94,-2.01,-8.92,6.00,6.23,7.38,3.97,3.99,6.91
31.61,-1.90,-8.81,-1.90,-8.80,6.00,6.23,7.40,4.10,4.10,6.91
31.93,-1.78,-8.68,-1.84,-8.74,6.00,6.22,7.41,4.22,4.16,6.90
32.24,-1.88,-8.77,-1.91,-8.80,6.00,6.22,7.41,4.12,4.09,6.89
32.57,-2.04,-8.92,-2.04,-8.93,6.00,6.21,7.39,3.96,3.96,6.88
32.89,-2.21,-9.09,-2.13,-9.01,6.00,6.21,7.37,3.79,3.87,6.88
33.22,-2.12,-8.99,-2.08,-8.95,6.00,6.20,7.34,3.88,3.92,6.87
33.55,-1.90,-8.77,-1.92,-8.79,6.00,6.20,7.30,4.10,4.08,6.87
33.89,-1.69,-8.56,-1.73,-8.60,6.00,6.19,7.26,4.31,4.27,6.87
34.23,-1.60,-8.47,-1.60,-8.47,6.00,6.19,7.21,4.40,4.40,6.87
34.57,-1.56,-8.42,-1.54,-8.41,6.00,6.18,7.15,4.44,4.46,6.86
34.92,-1.53,-8.40,-1.55,-8.42,6.00,6.18,7.09,4.47,4.45,6.87
35.27,-1.61,-8.47,-1.64,-8.51,6.00,6.17,7.02,4.39,4.36,6.86
35.62,-1.73,-8.59,-1.73,-8.60,6.00,6.16,6.95,4.27,4.27,6.87
35.97,-1.85,-8.71,-1.76,-8.62,6.00,6.16,6.88,4.15,4.24,6.86
36.33,-1.68,-8.53,-1.66,-8.51,6.00,6.15,6.80,4.32,4.34,6.85
36.70,-1.48,-8.33,-1.51,-8.36,6.00,6.14,6.73,4.52,4.49,6.85
37.06,-1.34,-8.18,-1.43,-8.27,6.00,6.14,6.65,4.66,4.57,6.84
37.43,-1.46,-8.28,-1.47,-8.29,6.00,6.13,6.58,4.54,4.53,6.82
37.81,-1.58,-8.39,-1.52,-8.33,6.00,6.12,6.50,4.42,4.48,6.81
38.19,-1.54,-8.34,-1.48,-8.27,6.00,6.11,6.43,4.46,4.52,6.80
38.57,-1.33,-8.11,-1.34,-8.12,6.00,6.11,6.36,4.67,4.66,6.78
38.95,-1.12,-7.88,-1.21,-7.97,6.00,6.10,6.29,4.88,4.79,6.76
39.34,-1.15,-7.89,-1.15,-7.90,6.00,6.09,6.22,4.85,4.85,6.74
39.74,-1.20,-7.93,-1.17,-7.89,6.00,6.08,6.16,4.80,4.83,6.73
40.14,-1.20,-7.91,-1.18,-7.89,6.00,6.07,6.10,4.80,4.82,6.71
40.54,-1.12,-7.81,-1.12,-7.82,6.00,6.06,6.04,4.88,4.88,6.69
40.94,-1.03,-7.71,-1.03,-7.71,6.00,6.05,5.98,4.97,4.97,6.68
41.35,-0.96,-7.63,-0.94,-7.61,6.00,6.04,5.93,5.04,5.06,6.67
41.76,-0.89,-7.54,-0.92,-7.57,6.00,6.03,5.89,5.11,5.08,6.65
42.18,-0.94,-7.58,-1.02,-7.66,6.00,6.02,5.84,5.06,4.98,6.64
42.60,-1.15,-7.79,-1.14,-7.77,6.00,6.01,5.81,4.85,4.86,6.64
43.03,-1.32,-7.95,-1.18,-7.80,6.00,6.00,5.77,4.68,4.82,6.63
43.46,-1.09,-7.70,-1.10,-7.72,6.00,5.99,5.74,4.91,4.90,6.61
43.90,-0.86,-7.47,-0.95,-7.55,6.00,5.98,5.72,5.14,5.05,6.61
44.33,-0.81,-7.41,-0.82,-7.41,6.00,5.97,5.70,5.19,5.18,6.60
44.78,-0.81,-7.39,-0.79,-7.38,6.00,5.96,5.68,5.19,5.21,6.58
45.23,-0.81,-7.39,-0.81,-7.39,6.00,5.94,5.67,5.19,5.19,6.58
45.68,-0.81,-7.37,-0.81,-7.37,6.00,5.93,5.66,5.19,5.19,6.56
46.13,-0.79,-7.34,-0.77,-7.32,6.00,5.92,5.65,5.21,5.23,6.55
46.60,-0.72,-7.25,-0.72,-7.26,6.00,5.90,5.66,5.28,5.28,6.53
47.06,-0.66,-7.18,-0.67,-7.19,6.00,5.89,5.66,5.34,5.33,6.52
47.53,-0.63,-7.13,-0.63,-7.13,6.00,5.87,5.67,5.37,5.37,6.50
48.01,-0.61,-7.09,-0.61,-7.09,6.00,5.86,5.68,5.39,5.39,6.48
48.49,-0.61,-7.06,-0.61,-7.07,6.00,5.84,5.70,5.39,5.39,6.45
48.97,-0.61,-7.04,-0.61,-7.05,6.00,5.82,5.71,5.39,5.39,6.43
49.46,-0.61,-7.03,-0.61,-7.02,6.00,5.81,5.74,5.39,5.39,6.42
49.96,-0.61,-7.00,-0.60,-6.98,6.00,5.79,5.76,5.39,5.40,6.39
50.46,-0.56,-6.92,-0.56,-6.93,6.00,5.77,5.79,5.44,5.44,6.36
50.96,-0.51,-6.85,-0.51,-6.85,6.00,5.75,5.82,5.49,5.49,6.34
51.47,-0.46,-6.78,-0.46,-6.78,6.00,5.73,5.85,5.54,5.54,6.32
51.99,-0.41,-6.71,-0.42,-6.72,6.00,5.71,5.89,5.59,5.58,6.30
52.51,-0.41,-6.68,-0.41,-6.68,6.00,5.69,5.92,5.59,5.59,6.27
53.03,-0.41,-6.66,-0.41,-6.66,6.00,5.67,5.96,5.59,5.59,6.25
53.56,-0.41,-6.63,-0.41,-6.63,6.00,5.65,5.99,5.59,5.59,6.22
54.10,-0.41,-6.61,-0.41,-6.61,6.00,5.63,6.03,5.59,5.59,6.20
54.64,-0.41,-6.58,-0.40,-6.57,6.00,5.61,6.06,5.59,5.60,6.17
55.18,-0.41,-6.55,-0.40,-6.54,6.00,5.58,6.10,5.59,5.61,6.14
55.74,-0.41,-6.53,-0.50,-6.61,6.00,5.56,6.13,5.59,5.50,6.12
56.29,-0.53,-6.62,-0.60,-6.68,6.00,5.53,6.15,5.47,5.40,6.09
56.86,-0.75,-6.80,-0.50,-6.55,6.00,5.51,6.18,5.25,5.50,6.06
57.42,-0.38,-6.40,-0.31,-6.34,6.00,5.48,6.20,5.62,5.69,6.02
58.00,0.19,-5.81,-0.12,-6.12,6.00,5.46,6.22,6.19,5.88,6.00
58.58,-0.04,-6.01,-0.01,-5.98,6.00,5.43,6.23,5.96,5.99,5.97
59.16,-0.21,-6.15,-0.09,-6.03,6.00,5.40,6.24,5.79,5.92,5.94
59.76,-0.21,-6.11,-0.22,-6.12,6.00,5.37,6.24,5.79,5.78,5.90
60.35,-0.21,-6.07,-0.23,-6.09,6.01,5.34,6.23,5.80,5.78,5.86
60.96,-0.21,-6.04,-0.21,-6.04,6.01,5.31,6.22,5.80,5.80,5.83
61.57,-0.21,-6.00,-0.21,-6.00,5.98,5.28,6.20,5.77,5.77,5.79
62.18,-0.21,-5.96,-0.21,-5.96,5.94,5.24,6.17,5.73,5.73,5.75
62.80,-0.21,-5.91,-0.21,-5.91,5.89,5.21,6.14,5.68,5.68,5.70
63.43,-0.21,-5.87,-0.23,-5.89,5.82,5.18,6.09,5.61,5.59,5.66
64.07,-0.21,-5.83,-0.23,-5.84,5.77,5.14,6.04,5.56,5.54,5.62
64.71,-0.21,-5.77,-0.08,-5.65,5.71,5.10,5.98,5.50,5.63,5.56
65.35,-0.02,-5.54,0.01,-5.51,5.64,5.07,5.92,5.63,5.65,5.52
66.01,0.30,-5.16,-0.03,-5.49,5.57,5.03,5.85,5.87,5.55,5.46
66.67,-0.24,-5.65,-0.09,-5.50,5.50,4.99,5.77,5.27,5.42,5.42
67.33,-0.36,-5.72,-0.17,-5.53,5.43,4.95,5.69,5.08,5.27,5.36
68.01,-0.07,-5.38,-0.20,-5.50,5.37,4.91,5.60,5.30,5.17,5.31
68.69,-0.03,-5.28,-0.06,-5.31,5.31,4.86,5.50,5.28,5.24,5.25
69.37,-0.01,-5.21,0.01,-5.19,5.25,4.82,5.40,5.24,5.26,5.20
70.07,-0.01,-5.14,-0.01,-5.14,5.19,4.78,5.30,5.18,5.18,5.13
70.77,-0.01,-5.09,-0.01,-5.09,5.11,4.73,5.19,5.10,5.10,5.08
71.48,-0.01,-5.04,-0.01,-5.03,5.04,4.68,5.08,5.03,5.03,5.03
72.19,-0.01,-4.97,-0.01,-4.97,4.98,4.64,4.97,4.97,4.97,4.96
72.91,-0.01,-4.91,-0.01,-4.91,4.92,4.59,4.86,4.91,4.91,4.90
73.64,-0.01,-4.85,-0.01,-4.85,4.86,4.54,4.74,4.85,4.85,4.84
74.38,-0.01,-4.79,-0.01,-4.79,4.77,4.49,4.63,4.76,4.76,4.78
75.12,-0.01,-4.72,-0.03,-4.75,4.66,4.43,4.51,4.65,4.63,4.71
75.87,-0.01,-4.66,-0.03,-4.68,4.56,4.38,4.39,4.55,4.53,4.65
76.63,-0.01,-4.60,0.09,-4.50,4.46,4.33,4.28,4.45,4.55,4.59
77.40,0.20,-4.32,0.23,-4.29,4.37,4.27,4.16,4.57,4.60,4.52
78.17,0.48,-3.98,0.32,-4.14,4.28,4.22,4.04,4.76,4.60,4.46
78.95,0.32,-4.07,0.32,-4.07,4.20,4.16,3.93,4.52,4.52,4.39
79.74,0.15,-4.18,0.22,-4.10,4.13,4.10,3.82,4.28,4.35,4.32
80.54,0.09,-4.17,0.10,-4.15,4.07,4.04,3.70,4.16,4.17,4.26
81.35,0.09,-4.10,0.08,-4.11,4.02,3.98,3.59,4.11,4.10,4.19
82.16,0.09,-4.03,0.08,-4.03,3.99,3.92,3.48,4.08,4.07,4.12
82.98,0.09,-3.95,0.09,-3.96,3.95,3.86,3.38,4.04,4.04,4.04
83.81,0.09,-3.88,0.09,-3.88,3.90,3.79,3.27,3.99,3.99,3.97
84.65,0.09,-3.81,0.09,-3.81,3.83,3.73,3.17,3.91,3.91,3.90
85.50,0.09,-3.72,0.09,-3.73,3.74,3.66,3.07,3.83,3.83,3.81
86.35,0.09,-3.65,0.09,-3.65,3.65,3.60,2.97,3.74,3.74,3.74
87.22,0.09,-3.57,0.09,-3.57,3.57,3.53,2.87,3.66,3.66,3.66
88.09,0.09,-3.50,0.09,-3.50,3.49,3.46,2.78,3.58,3.58,3.59
88.97,0.09,-3.42,0.09,-3.42,3.41,3.39,2.68,3.50,3.50,3.51
89.86,0.09,-3.33,0.09,-3.33,3.33,3.32,2.59,3.42,3.42,3.42
90.76,0.10,-3.24,0.10,-3.24,3.24,3.25,2.50,3.34,3.34,3.34
91.66,0.10,-3.15,0.10,-3.15,3.16,3.18,2.42,3.26,3.26,3.25
92.58,0.10,-3.07,0.10,-3.07,3.07,3.10,2.33,3.17,3.17,3.17
93.51,0.10,-2.98,0.10,-2.98,2.98,3.03,2.25,3.08,3.08,3.08
94.44,0.10,-2.89,0.10,-2.89,2.89,2.96,2.17,2.99,2.99,2.99
95.39,0.10,-2.80,0.10,-2.80,2.80,2.88,2.09,2.90,2.90,2.90
96.34,0.09,-2.71,0.09,-2.71,2.71,2.80,2.01,2.80,2.80,2.80
97.30,0.09,-2.61,0.09,-2.62,2.62,2.73,1.94,2.71,2.71,2.70
98.28,0.08,-2.53,0.08,-2.53,2.53,2.65,1.86,2.61,2.61,2.61
99.26,0.06,-2.44,0.06,-2.44,2.44,2.57,1.79,2.50,2.50,2.50
100.25,0.05,-2.35,0.05,-2.35,2.35,2.49,1.72,2.40,2.40,2.40
101.25,0.03,-2.27,0.03,-2.26,2.26,2.42,1.65,2.29,2.29,2.29
102.27,0.02,-2.17,0.02,-2.17,2.17,2.34,1.58,2.19,2.19,2.19
103.29,-0.00,-2.09,-0.00,-2.09,2.09,2.26,1.52,2.09,2.09,2.09
104.32,-0.02,-2.00,-0.02,-2.00,2.00,2.18,1.45,1.98,1.98,1.98
105.37,-0.04,-1.92,-0.04,-1.91,1.92,2.10,1.39,1.88,1.88,1.88
106.42,-0.06,-1.82,-0.06,-1.83,1.83,2.02,1.33,1.77,1.77,1.76
107.48,-0.09,-1.75,-0.09,-1.75,1.75,1.93,1.27,1.66,1.66,1.66
108.56,-0.11,-1.67,-0.11,-1.67,1.67,1.85,1.21,1.56,1.56,1.56
109.64,-0.13,-1.59,-0.13,-1.59,1.59,1.77,1.15,1.46,1.46,1.46
110.74,-0.15,-1.51,-0.15,-1.51,1.51,1.69,1.09,1.36,1.36,1.35
111.85,-0.17,-1.43,-0.17,-1.43,1.43,1.61,1.04,1.26,1.26,1.26
112.97,-0.18,-1.35,-0.18,-1.35,1.34,1.52,0.98,1.16,1.16,1.17
114.10,-0.19,-1.26,-0.19,-1.26,1.26,1.44,0.93,1.07,1.07,1.07
115.24,-0.19,-1.17,-0.19,-1.17,1.17,1.36,0.87,0.98,0.98,0.98
116.39,-0.19,-1.08,-0.19,-1.08,1.08,1.28,0.82,0.89,0.89,0.89
117.55,-0.18,-0.99,-0.18,-0.99,0.99,1.19,0.77,0.81,0.81,0.81
118.73,-0.18,-0.90,-0.18,-0.90,0.90,1.11,0.72,0.72,0.72,0.72
119.92,-0.17,-0.81,-0.17,-0.81,0.81,1.03,0.67,0.64,0.64,0.64
121.12,-0.16,-0.72,-0.16,-0.72,0.72,0.95,0.62,0.56,0.56,0.56
122.33,-0.16,-0.64,-0.16,-0.63,0.63,0.87,0.57,0.47,0.48,0.48
123.55,-0.15,-0.55,-0.15,-0.55,0.55,0.78,0.53,0.40,0.40,0.40
124.79,-0.14,-0.46,-0.14,-0.46,0.46,0.70,0.48,0.32,0.32,0.32
126.03,-0.13,-0.37,-0.13,-0.38,0.38,0.62,0.43,0.25,0.24,0.24
127.29,-0.13,-0.30,-0.13,-0.29,0.30,0.54,0.39,0.16,0.17,0.17
128.57,-0.12,-0.21,-0.12,-0.21,0.21,0.46,0.34,0.09,0.09,0.09
129.85,-0.12,-0.14,-0.12,-0.13,0.13,0.38,0.30,0.01,0.02,0.02
131.15,-0.11,-0.05,-0.11,-0.05,0.05,0.30,0.25,-0.06,-0.06,-0.06
132.46,-0.11,0.02,-0.11,0.02,-0.02,0.22,0.21,-0.13,-0.13,-0.13
133.79,-0.10,0.10,-0.10,0.10,-0.10,0.14,0.17,-0.20,-0.20,-0.20
135.12,-0.10,0.17,-0.10,0.17,-0.19,0.06,0.12,-0.29,-0.28,-0.27
136.48,-0.09,0.25,-0.09,0.25,-0.27,-0.02,0.08,-0.36,-0.37,-0.34
137.84,-0.09,0.32,-0.09,0.32,-0.35,-0.09,0.04,-0.44,-0.44,-0.41
139.22,-0.09,0.40,-0.09,0.40,-0.40,-0.17,-0.01,-0.49,-0.49,-0.49
140.61,-0.09,0.47,-0.09,0.47,-0.44,-0.25,-0.05,-0.53,-0.53,-0.56
142.02,-0.09,0.54,-0.06,0.58,-0.47,-0.32,-0.09,-0.56,-0.52,-0.63
143.44,-0.09,0.62,-0.10,0.61,-0.50,-0.40,-0.14,-0.59,-0.60,-0.71
144.87,-0.09,0.69,-0.24,0.54,-0.54,-0.47,-0.18,-0.64,-0.78,-0.78
146.32,-0.45,0.39,-0.36,0.48,-0.59,-0.55,-0.22,-1.04,-0.95,-0.84
147.78,-0.54,0.37,-0.41,0.50,-0.64,-0.62,-0.27,-1.18,-1.05,-0.91
149.26,-0.31,0.67,-0.38,0.61,-0.70,-0.69,-0.31,-1.01,-1.08,-0.98
150.75,-0.19,0.86,-0.25,0.80,-0.77,-0.76,-0.36,-0.96,-1.02,-1.05
152.26,-0.19,0.93,-0.17,0.94,-0.85,-0.83,-0.40,-1.04,-1.02,-1.12
153.78,-0.19,0.99,-0.18,1.00,-0.94,-0.90,-0.45,-1.13,-1.12,-1.18
155.32,-0.19,1.05,-0.19,1.05,-1.03,-0.97,-0.49,-1.22,-1.22,-1.24
156.88,-0.19,1.12,-0.19,1.11,-1.11,-1.04,-0.54,-1.30,-1.30,-1.31
158.44,-0.19,1.18,-0.19,1.18,-1.18,-1.11,-0.59,-1.37,-1.37,-1.37
160.03,-0.19,1.24,-0.19,1.24,-1.25,-1.17,-0.63,-1.44,-1.44,-1.43
161.63,-0.19,1.31,-0.19,1.31,-1.33,-1.24,-0.68,-1.52,-1.52,-1.50
163.24,-0.19,1.37,-0.20,1.35,-1.42,-1.30,-0.73,-1.61,-1.63,-1.56
164.88,-0.19,1.43,-0.21,1.41,-1.51,-1.36,-0.78,-1.70,-1.72,-1.62
166.53,-0.20,1.48,-0.11,1.57,-1.58,-1.43,-0.83,-1.78,-1.68,-1.68
168.19,-0.05,1.68,-0.01,1.73,-1.63,-1.49,-0.89,-1.68,-1.63,-1.73
169.87,0.21,2.00,0.03,1.81,-1.67,-1.55,-0.94,-1.46,-1.64,-1.79
171.57,-0.05,1.79,-0.03,1.81,-1.70,-1.60,-0.99,-1.75,-1.73,-1.84
173.29,-0.25,1.64,-0.17,1.72,-1.72,-1.66,-1.05,-1.97,-1.89,-1.89
175.02,-0.33,1.60,-0.32,1.62,-1.73,-1.71,-1.11,-2.06,-2.05,-1.93
176.77,-0.33,1.66,-0.35,1.64,-1.74,-1.77,-1.16,-2.07,-2.08,-1.99
178.54,-0.33,1.70,-0.34,1.69,-1.74,-1.82,-1.22,-2.07,-2.07,-2.03
180.32,-0.33,1.74,-0.33,1.75,-1.74,-1.87,-1.28,-2.07,-2.06,-2.07
182.13,-0.32,1.79,-0.32,1.79,-1.75,-1.92,-1.34,-2.07,-2.07,-2.11
183.95,-0.31,1.84,-0.31,1.83,-1.80,-1.97,-1.40,-2.11,-2.11,-2.15
185.79,-0.30,1.88,-0.30,1.88,-1.87,-2.01,-1.46,-2.17,-2.17,-2.18
187.65,-0.29,1.93,-0.29,1.93,-1.95,-2.06,-1.53,-2.24,-2.24,-2.22
189.52,-0.27,1.98,-0.29,1.95,-2.03,-2.10,-1.59,-2.30,-2.32,-2.25
191.42,-0.26,2.01,-0.27,2.01,-2.09,-2.14,-1.65,-2.35,-2.36,-2.27
193.33,-0.25,2.05,-0.15,2.15,-2.14,-2.18,-1.72,-2.39,-2.29,-2.30
195.27,-0.04,2.29,-0.05,2.28,-2.18,-2.22,-1.78,-2.22,-2.23,-2.33
197.22,0.12,2.48,-0.03,2.33,-2.20,-2.26,-1.85,-2.08,-2.23,-2.36
199.19,-0.12,2.27,-0.09,2.31,-2.21,-2.29,-1.92,-2.33,-2.30,-2.39
201.18,-0.30,2.12,-0.21,2.21,-2.23,-2.32,-1.99,-2.53,-2.44,-2.42
203.19,-0.29,2.16,-0.31,2.14,-2.27,-2.36,-2.05,-2.56,-2.58,-2.45
205.23,-0.29,2.18,-0.31,2.16,-2.30,-2.38,-2.12,-2.59,-2.62,-2.47
207.28,-0.29,2.21,-0.31,2.19,-2.31,-2.41,-2.19,-2.60,-2.62,-2.50
209.35,-0.29,2.23,-0.25,2.28,-2.31,-2.44,-2.25,-2.60,-2.55,-2.52
211.44,-0.23,2.33,-0.14,2.41,-2.28,-2.46,-2.32,-2.51,-2.43,-2.56
213.56,0.03,2.61,-0.08,2.50,-2.26,-2.48,-2.38,-2.23,-2.34,-2.58
215.69,-0.09,2.52,-0.17,2.44,-2.24,-2.50,-2.45,-2.33,-2.41,-2.61
217.85,-0.39,2.24,-0.40,2.23,-2.23,-2.52,-2.51,-2.62,-2.63,-2.64
220.03,-0.75,1.92,-0.64,2.03,-2.22,-2.53,-2.57,-2.97,-2.86,-2.67
222.23,-0.80,1.89,-0.72,1.97,-2.22,-2.55,-2.62,-3.02,-2.93,-2.69
224.45,-0.57,2.14,-0.68,2.02,-2.21,-2.56,-2.68,-2.78,-2.89,-2.71
226.70,-0.51,2.22,-0.54,2.18,-2.20,-2.57,-2.73,-2.71,-2.74,-2.73
228.96,-0.51,2.23,-0.36,2.38,-2.21,-2.57,-2.78,-2.72,-2.58,-2.74
231.25,-0.25,2.50,-0.31,2.44,-2.26,-2.58,-2.82,-2.51,-2.57,-2.75
233.57,-0.15,2.62,-0.32,2.44,-2.33,-2.58,-2.86,-2.48,-2.66,-2.77
235.90,-0.53,2.26,-0.41,2.37,-2.40,-2.59,-2.90,-2.93,-2.81,-2.79
238.26,-0.56,2.23,-0.53,2.26,-2.42,-2.59,-2.93,-2.98,-2.95,-2.79
240.64,-0.55,2.25,-0.49,2.31,-2.41,-2.59,-2.96,-2.96,-2.89,-2.80
243.05,-0.35,2.45,-0.36,2.44,-2.38,-2.58,-2.98,-2.73,-2.74,-2.80
245.48,-0.16,2.65,-0.32,2.48,-2.36,-2.58,-3.00,-2.52,-2.69,-2.81
247.93,-0.42,2.39,-0.37,2.44,-2.37,-2.57,-3.01,-2.79,-2.73,-2.81
250.41,-0.54,2.27,-0.48,2.33,-2.39,-2.56,-3.02,-2.93,-2.87,-2.81
252.92,-0.55,2.27,-0.58,2.24,-2.41,-2.56,-3.02,-2.96,-2.99,-2.82
255.45,-0.54,2.29,-0.49,2.33,-2.40,-2.54,-3.02,-2.94,-2.89,-2.83
258.00,-0.44,2.39,-0.38,2.45,-2.38,-2.53,-3.01,-2.82,-2.76,-2.83
260.58,-0.21,2.63,-0.36,2.49,-2.36,-2.52,-3.00,-2.57,-2.71,-2.84
263.19,-0.38,2.47,-0.40,2.45,-2.36,-2.50,-2.98,-2.74,-2.76,-2.85
265.82,-0.61,2.27,-0.51,2.36,-2.37,-2.49,-2.96,-2.98,-2.88,-2.88
268.48,-0.63,2.26,-0.65,2.24,-2.38,-2.47,-2.93,-3.01,-3.03,-2.89
271.16,-0.63,2.28,-0.64,2.26,-2.38,-2.45,-2.90,-3.01,-3.03,-2.91
273.87,-0.64,2.28,-0.54,2.38,-2.38,-2.43,-2.87,-3.01,-2.91,-2.92
276.61,-0.40,2.54,-0.49,2.45,-2.37,-2.41,-2.83,-2.77,-2.86,-2.94
279.38,-0.41,2.54,-0.52,2.43,-2.38,-2.39,-2.79,-2.79,-2.90,-2.96
282.17,-0.65,2.31,-0.58,2.38,-2.38,-2.37,-2.75,-3.03,-2.95,-2.96
284.99,-0.73,2.24,-0.59,2.38,-2.38,-2.35,-2.70,-3.11,-2.97,-2.97
287.84,-0.55,2.42,-0.59,2.38,-2.38,-2.32,-2.65,-2.93,-2.97,-2.97
290.72,-0.40,2.58,-0.58,2.40,-2.36,-2.30,-2.60,-2.76,-2.95,-2.98
293.63,-0.74,2.25,-0.64,2.34,-2.34,-2.28,-2.55,-3.08,-2.98,-2.99
296.57,-0.79,2.19,-0.75,2.24,-2.32,-2.25,-2.50,-3.11,-3.07,-2.98
299.53,-0.77,2.21,-0.74,2.24,-2.31,-2.23,-2.44,-3.08,-3.06,-2.98
302.53,-0.66,2.33,-0.64,2.34,-2.31,-2.20,-2.39,-2.97,-2.95,-2.99
305.55,-0.48,2.50,-0.63,2.36,-2.31,-2.17,-2.34,-2.79,-2.94,-2.98
308.61,-0.69,2.30,-0.67,2.32,-2.30,-2.15,-2.28,-2.99,-2.97,-2.99
311.69,-0.83,2.17,-0.71,2.28,-2.28,-2.12,-2.23,-3.11,-2.99,-3.00
314.81,-0.75,2.25,-0.73,2.27,-2.26,-2.09,-2.17,-3.01,-2.99,-3.00
317.96,-0.61,2.40,-0.72,2.29,-2.25,-2.06,-2.12,-2.86,-2.97,-3.01
321.14,-0.73,2.28,-0.75,2.26,-2.24,-2.03,-2.07,-2.97,-2.99,-3.01
324.35,-0.90,2.11,-0.85,2.16,-2.23,-2.01,-2.02,-3.13,-3.08,-3.01
327.59,-0.93,2.08,-0.91,2.11,-2.22,-1.98,-1.97,-3.15,-3.13,-3.01
330.87,-0.91,2.11,-0.87,2.15,-2.21,-1.95,-1.91,-3.12,-3.08,-3.02
334.18,-0.74,2.28,-0.80,2.22,-2.18,-1.92,-1.87,-2.92,-2.98,-3.02
337.52,-0.76,2.27,-0.76,2.27,-2.15,-1.89,-1.82,-2.91,-2.91,-3.03
340.90,-0.80,2.23,-0.79,2.23,-2.12,-1.86,-1.77,-2.92,-2.91,-3.03
344.30,-0.87,2.16,-0.91,2.12,-2.09,-1.84,-1.73,-2.96,-3.00,-3.03
347.75,-1.06,1.96,-1.03,1.99,-2.07,-1.81,-1.68,-3.13,-3.10,-3.02
351.23,-1.14,1.90,-1.11,1.91,-2.03,-1.78,-1.64,-3.17,-3.14,-3.04
354.74,-1.14,1.88,-1.10,1.93,-1.99,-1.75,-1.60,-3.13,-3.08,-3.02
358.28,-1.03,1.99,-1.06,1.96,-1.95,-1.72,-1.55,-2.98,-3.01,-3.02
361.87,-0.96,2.06,-1.06,1.95,-1.92,-1.70,-1.52,-2.88,-2.98,-3.02
365.49,-1.16,1.85,-1.06,1.96,-1.90,-1.67,-1.48,-3.06,-2.96,-3.01
369.14,-1.13,1.88,-1.10,1.91,-1.89,-1.64,-1.44,-3.02,-2.99,-3.01
372.83,-1.04,1.96,-1.15,1.85,-1.88,-1.61,-1.41,-2.92,-3.03,-3.00
376.56,-1.19,1.81,-1.14,1.86,-1.86,-1.59,-1.37,-3.05,-3.00,-3.00
380.33,-1.23,1.77,-1.17,1.83,-1.83,-1.56,-1.34,-3.06,-3.00,-3.00
384.13,-1.14,1.87,-1.23,1.77,-1.79,-1.54,-1.31,-2.93,-3.02,-3.01
387.97,-1.26,1.75,-1.24,1.77,-1.75,-1.51,-1.28,-3.01,-2.99,-3.01
391.85,-1.32,1.68,-1.26,1.75,-1.72,-1.48,-1.25,-3.04,-2.97,-3.00
395.77,-1.25,1.76,-1.31,1.69,-1.70,-1.46,-1.22,-2.95,-3.01,-3.01
399.73,-1.34,1.68,-1.37,1.65,-1.68,-1.43,-1.19,-3.02,-3.04,-3.02
403.72,-1.45,1.57,-1.41,1.61,-1.66,-1.41,-1.17,-3.11,-3.07,-3.02
407.76,-1.48,1.56,-1.43,1.60,-1.64,-1.38,-1.14,-3.12,-3.07,-3.04
411.84,-1.39,1.65,-1.42,1.62,-1.62,-1.36,-1.12,-3.01,-3.04,-3.04
415.96,-1.35,1.69,-1.41,1.64,-1.59,-1.34,-1.09,-2.94,-3.00,-3.04
420.12,-1.47,1.59,-1.42,1.63,-1.57,-1.31,-1.07,-3.04,-2.99,-3.06
424.32,-1.49,1.56,-1.49,1.56,-1.55,-1.29,-1.05,-3.04,-3.04,-3.05
428.56,-1.51,1.53,-1.55,1.49,-1.52,-1.27,-1.03,-3.03,-3.07,-3.04
432.85,-1.61,1.41,-1.55,1.47,-1.48,-1.24,-1.01,-3.09,-3.04,-3.02
437.18,-1.57,1.44,-1.58,1.43,-1.45,-1.22,-0.99,-3.02,-3.02,-3.01
441.55,-1.53,1.45,-1.59,1.39,-1.41,-1.20,-0.98,-2.94,-3.00,-2.98
445.96,-1.61,1.33,-1.56,1.38,-1.37,-1.18,-0.96,-2.98,-2.93,-2.94
450.42,-1.56,1.33,-1.54,1.34,-1.34,-1.16,-0.94,-2.90,-2.89,-2.89
454.93,-1.47,1.37,-1.53,1.31,-1.32,-1.14,-0.93,-2.79,-2.85,-2.84
459.48,-1.52,1.26,-1.49,1.30,-1.29,-1.12,-0.91,-2.81,-2.78,-2.78
464.07,-1.49,1.24,-1.46,1.27,-1.26,-1.10,-0.90,-2.75,-2.72,-2.73
468.71,-1.41,1.27,-1.46,1.22,-1.23,-1.08,-0.89,-2.64,-2.68,-2.68
473.40,-1.43,1.20,-1.42,1.21,-1.19,-1.06,-0.87,-2.63,-2.61,-2.63
478.13,-1.43,1.14,-1.40,1.17,-1.16,-1.04,-0.86,-2.59,-2.56,-2.57
