frequency,raw
10,-14.906220685468199
11,-14.168969777972425
12,-13.469773628076371
13,-12.890207676841467
14,-12.30247744810848
15,-11.684192181579213
16,-11.144654643858228
17,-10.676217606295864
18,-10.22346931800579
19,-9.846505514228449
20,-9.393775459669518
21,-9.000363900670251
22,-8.698383412987626
23,-8.28386850054607
24,-8.117019838196468
25,-7.603852149198929
26,-7.415729742718197
27,-7.166090463694707
28,-6.818357659644418
29,-6.572360307214799
30,-6.342073341703873
31,-6.118920418560024
32,-5.85985241193254
33,-5.725964486020296
34,-5.600805839893694
35,-5.289530825928431
36,-5.169736911804353
37,-4.937754388806124
38,-4.6835149391200375
39,-4.696150839772255
40,-4.484323158622
41,-4.296876179562131
42,-4.020989922913377
43,-3.9262589576150804
44,-3.7673544709829803
45,-3.6669584302968294
46,-3.5971637792558577
47,-3.413068958026196
48,-3.3043978172809245
49,-3.1499489904835665
50,-3.08096022686727
51,-2.9726485733878247
52,-2.988831541086533
53,-2.7050584868120375
54,-2.848231903537455
55,-2.8575103827502044
56,-2.650517047619535
57,-2.6933222288879595
58,-2.878700147189237
59,-2.814153082720165
60,-2.810783089648085
61,-2.6931501509743003
62,-2.4940628407281586
63,-2.480644321729014
64,-2.267781554006564
65,-2.1486777824336682
66,-2.0706593377283102
67,-1.8873204357351199
68,-1.9615618911463715
69,-1.8315976772749454
70,-1.9487209833109707
71,-1.8645185965919406
72,-2.1207253211370225
73,-2.116532968901152
74,-2.131187418028747
75,-2.0030303584579596
76,-1.8867087798551179
77,-1.811702825321864
78,-1.6885081290983983
79,-1.5716167730843926
80,-1.4016840866099685
81,-1.1986242713317434
82,-1.0516627595913945
83,-0.938081491641845
84,-0.8208177892301087
85,-0.7314009738650102
86,-0.5839354288871652
87,-0.46715308692299695
88,-0.46464812039666015
89,-0.32838664017965913
90,-0.17750231144513506
91,-0.22526765890738387
92,-0.13710856819055373
93,-0.15105041420253507
94,-0.06920558959344447
95,-0.07856387444637036
96,0.017570559586972845
97,0.026094676920481064
98,0.1352610969478123
99,0.1453868376859715
100,0.16431839700967732
101,0.312538414638718
102,0.27412055872163243
104,0.16045552245323602
105,0.2955120106852078
106,0.29918498963112183
107,0.48606263777725456
108,0.503863597181017
109,0.4433203121410223
110,0.45126752384187263
111,0.42633263103622365
112,0.36666183059284574
113,0.408715008583588
114,0.688703326864156
115,0.652905236390902
117,0.5892395450261589
118,0.5818906460573858
119,0.5774659130336621
120,0.5757208189923717
121,0.5758141535817636
123,0.6728576291280084
124,0.7031966919772716
125,0.7682684671058126
126,0.7672536669747254
128,0.7678880675634483
129,0.771493818846051
130,0.7779335653420505
131,0.7853172052493393
133,0.7908416381738101
134,0.7923511616364358
135,0.7896799040603186
137,0.784903751494336
138,0.7812806550789482
140,0.7814802696423988
141,0.7861512555698118
142,0.8427712869900228
144,0.9920543278832312
145,0.9421339900834864
147,0.9020976858535734
148,0.898878569967704
150,0.8944122518729305
151,0.8916991698658121
153,0.8936192482658765
154,0.9020732503954267
156,0.9171912161145306
157,0.9368452377735297
159,1.0239137599533619
160,1.0688678636416977
162,0.8542096941699544
164,0.6886862684079866
165,0.717644883534815
167,0.6694380456348545
169,0.7927735807043925
170,0.8503363629492489
172,0.6926014703109957
174,0.6898838778488248
175,0.7496840511682414
177,0.7635873160835773
179,0.7641643724599616
181,0.7644436864755386
183,0.7652571613690684
184,0.7665366566099561
186,0.7674252183598602
188,0.8603689530445306
190,0.904339469420461
192,0.9577254081804192
194,0.9597566192778197
196,0.9667165858059841
198,0.9791356953961481
200,0.995609039159306
202,1.013382136695295
204,1.0296109916537004
206,1.042577558081069
208,1.052216489037776
210,1.0730492520660215
212,1.161854362095121
214,0.9755927306270218
216,0.7930615955306388
218,0.808033999590406
221,0.9013663108555923
223,0.9020081905507666
225,0.8979219111270655
227,0.8898158457042724
229,0.8798828779804255
232,0.8713567797275674
234,0.8675383214037602
236,0.8705836180419686
239,0.674092248419643
241,0.7962761716939255
244,0.8572896748211969
246,0.7331107869956419
248,0.7431276050997901
251,0.6442837622171389
253,0.5376975958456516
256,0.657938354198722
259,0.7644762776908038
261,0.65021556236798
264,0.5423236371786109
266,0.5370832017249745
269,0.4732943399478118
272,0.43678554682658266
274,0.44042181257868984
277,0.35173019066801103
280,0.36164789656231644
283,0.4265294876645056
286,0.4772601197557398
288,0.379283432167834
291,0.29778480571284405
294,0.304356082852272
297,0.31224988050330005
300,0.38742475009004096
303,0.3699438352184541
306,0.23993658705459397
309,0.24405955363089937
312,0.246816121880562
316,0.25044365305752914
319,0.25690905544242515
322,0.26656582719596233
325,0.2777765265803702
328,0.2877928030911292
332,0.2943572425246632
335,0.2970394162294756
338,0.34500889211577634
342,0.3086910153718101
345,0.20696309176656635
349,0.21632195872444981
352,0.22986695082304287
356,0.24582616092526433
359,0.26222390546872276
363,0.27777285886727476
366,0.29214145931260527
370,0.30556139358829526
374,0.3158690366142447
377,0.25681406274431096
381,0.2218374639670806
385,0.15574753432940236
389,0.16403001766618885
393,0.17327352814474217
397,0.18432994891643606
401,0.1965317197813845
405,0.2076026645804765
409,0.21470698767636076
413,0.2546335500821133
417,0.2506572265490612
421,0.14215425106773072
425,0.10212799054332011
430,0.09892511848000662
434,0.10168931487949573
438,0.12465770272731191
443,0.13118362461775046
447,0.04503834815658747
451,0.0394825907799321
456,0.05102266396040367
460,0.06494097012384437
465,0.08049578920465983
470,0.09611742588907468
474,0.11079474382492593
479,0.12523189021511882
484,0.14540286636749578
489,0.1530665656757204
494,0.09368918805863169
499,0.08105662425220217
504,0.061802628435033036
509,0.08969795685299964
514,0.1166534164965154
519,0.1340272907339477
524,0.14417403152509367
529,0.1480826325205049
535,0.14896149180027152
540,0.12460422312020336
545,0.042971496512431706
551,0.040061362157599145
556,0.04061182180169398
562,0.04636490600665644
568,0.05852637476404832
573,0.07742500367642347
579,0.10206121078459462
585,0.12976224573455042
591,0.15635512780503058
596,0.1536551412874756
602,0.0925118321665459
608,0.0949113531369048
615,0.09161522345514594
621,0.08908621061292199
627,0.09384356362901825
633,0.10920847485140817
639,0.13331830674551903
646,0.1596863254932308
652,0.18022239076802915
659,0.18917496541286072
665,0.1858525159700788
672,0.1746776976407065
679,0.12472220859107885
686,0.059840749029999696
692,0.06204230873504546
699,-0.01016707109832149
706,-0.007324748920106927
713,0.012219624009004892
721,0.03206709673034558
728,0.049216341800561336
735,0.05989549970432151
742,0.06008900369513981
750,0.04733955838123105
757,0.022808825547927736
765,-0.008004502493830667
773,-0.03687421847390571
780,-0.05632051858819054
788,-0.06319943090964086
796,0.03599046526448335
804,0.040567263500579376
812,0.13403359785919555
820,0.23127265543139863
828,0.1992484800865455
837,0.13966259871808173
845,0.0856549489573788
853,0.12497112237674202
862,0.1394981067997234
871,0.13213544331074534
879,0.16846468598196918
888,0.24456933126450986
897,0.28885244597565585
906,0.3681870606200206
915,0.4249314724157782
924,0.473654965484533
933,0.5157305615244605
943,0.4920764090608245
952,0.41647445274285544
962,0.44179343392636006
971,0.42365659203414996
981,0.41517929739731585
991,0.3131013284222952
1001,-0.0346149453488529
1011,-0.15358092107044818
1021,-0.09716740166032078
1031,-0.06031830218667711
1041,0.08293032232117525
1052,0.31030851074785426
1062,0.42927027091280046
1073,0.5156940958099732
1084,0.6228046398189231
1094,0.7846765709634189
1105,1.0397685594972028
1116,1.0931476386206163
1128,1.1341277086583468
1139,1.185487054783456
1150,1.2362035156403657
1162,1.3285889569403682
1173,1.3535214140078105
1185,1.3556321083311733
1197,1.4537919097639147
1209,1.441333090215803
1221,1.420694238477377
1233,1.4103155790317126
1246,1.4486841999101716
1258,1.5498777677182711
1271,1.6036349067090576
1283,1.6193341617634176
1296,1.6346958776401435
1309,1.6520052981991968
1322,1.7185102297319117
1335,1.7262062207190634
1349,1.7307664451998526
1362,1.7725218536146428
1376,1.7809148864671518
1390,1.7945965171534897
1404,1.8372643983877914
1418,1.8660294464156633
1432,1.828131579570039
1446,1.903716547022733
1461,2.007486049527196
1475,1.9782702719763132
1490,1.9839165287253424
1505,2.0033198534592245
1520,2.0747598612044795
1535,2.068215401697815
1550,2.13129451583022
1566,2.183490092753303
1582,2.229802109444097
1597,2.276523682101562
1613,2.4249619335551373
1629,2.484086958960705
1646,2.5130358193622135
1662,2.521728869730822
1679,2.593127925212376
1696,2.6679438204705086
1713,2.6976873760535973
1730,2.7435115948707343
1747,2.7653750432008617
1764,2.8623776583032816
1782,2.9673715660240974
1800,3.007632908124012
1818,3.0809776010093772
1836,3.1492907634239544
1854,3.190515372344451
1873,3.2401412117364177
1892,3.2996472139791675
1911,3.286989453269763
1930,3.3232710636781793
1949,3.3101576517443925
1969,3.339575641067497
1988,3.4222895162792657
2008,3.4934191643958155
2028,3.4422701786598786
2048,3.519352292715671
2069,3.595780836142569
2090,3.67295716963198
2111,3.7838455741020818
2132,3.841067474631833
2153,3.9857781620794963
2175,4.097835406535909
2196,4.170791780059702
2218,4.289985447243579
2240,4.409631308937719
2263,4.5223031097698625
2285,4.520047526094122
2308,4.563895709866891
2331,4.761619773491082
2355,4.933031897713586
2378,5.077409218406698
2402,5.26807876453028
2426,5.437437728670226
2450,5.559994130889079
2475,5.785336781345155
2500,5.955466136064275
2525,6.144210454942523
2550,6.246448217606935
2575,6.307828541287701
2601,6.297376013959959
2627,6.4078319808520865
2653,6.500278593565195
2680,6.595384619170771
2707,6.791478941855089
2734,6.980713432476233
2761,7.15730533358214
2789,7.44228249151608
2817,7.7468790957872855
2845,8.042575475048029
2873,8.358189681274135
2902,8.450929587147394
2931,8.653668860534882
2960,8.90537711347727
2990,9.099013395112822
3020,9.362350515641161
3050,9.559085439684791
3080,9.736919909201877
3111,9.75266993825408
3142,9.778938247623012
3174,9.856688701804735
3206,10.003858902872093
3238,10.086140475409206
3270,10.150752493313501
3303,10.256815667205053
3336,10.264290385906452
3369,10.264576709917604
3403,10.284968291479315
3437,10.286250728632742
3471,10.33015005443854
3506,10.382456720946651
3541,10.38158396240935
3576,10.295384955918713
3612,10.227012708689816
3648,10.140521338979054
3685,9.90222549022405
3721,9.671044321668713
3759,9.515561736531748
3796,9.300575400432407
3834,8.956772630870914
3873,8.697307107616526
3911,8.44047494702544
3950,8.18540326261924
3990,7.8074902732883515
4030,7.339394241949798
4070,6.95389766762193
4111,6.5361073912839895
4152,6.0849543746039565
4193,5.730873882922565
4235,5.423555923872697
4278,5.089704859255611
4321,4.765030305412363
4364,4.49122798472225
4407,4.297101397710113
4451,4.2424227389791795
4496,4.203102032575292
4541,3.9846942416747737
4586,3.6903365481534793
4632,3.486249217418833
4679,3.2662888419805878
4725,3.147394540420475
4773,3.0335394253381747
4820,2.8359900561163487
4868,2.6379677305058777
4917,2.4959039844609228
4966,2.352376971325824
5016,1.972594029641603
5066,1.774657038612209
5117,1.5335189695057023
5168,1.2853086276203207
5220,1.0940686618507156
5272,0.9177324583805566
5325,0.6822711274662892
5378,0.490898884849126
5432,0.42472198924131455
5486,0.31727306398178534
5541,0.13736586894424097
5596,-0.10198074636561483
5652,-0.4419651834813303
5709,-0.6950611658676982
5766,-0.8619266008771307
5823,-1.0372478556569922
5882,-1.2496409439842546
5940,-1.5129531241795862
6000,-1.8921811323319808
6060,-2.2092337661649406
6120,-2.333942756908092
6182,-2.541991196418703
6244,-2.740360402331379
6306,-3.1505985455026453
6369,-3.362962655854224
6433,-3.466011697747107
6497,-3.585533653459872
6562,-3.9122473617062408
6628,-4.284391734720483
6694,-4.514648589430551
6761,-4.6235549483826315
6828,-4.683590315552464
6897,-4.801744445194296
6966,-4.849495876377103
7035,-4.990370728420949
7106,-5.086835311761868
7177,-5.169273139186437
7249,-5.104535333910853
7321,-5.150569893053872
7394,-5.409017113831938
7468,-5.56459763095408
7543,-5.676560956572088
7618,-5.6740461526000825
7694,-5.500433751593534
7771,-5.62715190566476
7849,-5.8126823087024695
7928,-5.876178213889669
8007,-5.936816290719871
8087,-6.0428620890683415
8168,-5.895166849897365
8250,-5.5166744567107155
8332,-5.160363342151505
8415,-4.810455668704841
8499,-4.04472683013948
8584,-3.598329750801789
8670,-3.407436390891537
8757,-3.4107258314996933
8845,-3.1275236660459775
8933,-2.2838255683601183
9022,-1.7492515795213817
9113,-1.6958249031204211
9204,-1.8663307174025183
9296,-1.8965481772441444
9389,-1.9501124832777355
9483,-2.1753110789054793
9577,-2.5079879078718323
9673,-2.7213700478570226
9770,-2.875340416734498
9868,-3.065943877504495
9966,-3.282607731999561
10066,-2.9666832025316823
10167,-2.8630940875660396
10268,-2.9832264314648063
10371,-3.232248955074142
10475,-3.8808574945390104
10579,-4.155344373500877
10685,-3.8034985887788717
10792,-3.89756652659912
10900,-4.5852198129864865
11009,-4.858953670510102
11119,-5.465434654001837
11230,-5.845578876040561
11343,-5.969992695678265
11456,-6.044455247620048
11571,-6.162635771137694
11686,-6.157045319867628
11803,-6.021450947742677
11921,-5.695697007586895
12040,-5.7398146238321885
12161,-5.377442385075525
12282,-5.083599317925032
12405,-4.869901029041145
12529,-4.852070064753378
12655,-5.109714596103996
12781,-5.583289550981125
12909,-6.547104217922491
13038,-7.926217995310082
13168,-9.336387853125125
13300,-10.199355693326101
13433,-10.326634677983012
13567,-10.900862764162554
13703,-12.083237703997572
13840,-12.853158894217106
13978,-13.259959702941998
14118,-13.796087316282234
14259,-14.133426917576163
14402,-14.056763022353621
14546,-13.926852684147345
14692,-14.25873763459103
14838,-13.93801923835175
14987,-13.160211465112543
15137,-11.385613402573199
15288,-12.343358257232797
15441,-12.402833834686543
15595,-12.04926648847665
15751,-11.441159707801248
15909,-11.666083251680162
16068,-12.071773590897237
16229,-13.183631741649256
16391,-14.996792340602408
16555,-16.281941832696713
16720,-16.740254810335635
16888,-16.442684860400377
17056,-15.65341236257689
17227,-16.051273738915143
17399,-15.84302639850598
17573,-14.817915887994204
17749,-13.69149343299637
17926,-12.210761856273187
18106,-10.890403484562697
18287,-9.711513894526625
18470,-8.460494256499082
18654,-8.000780341062399
18841,-7.769368373494059
19029,-7.438317361113027
19220,-7.75751009094803
19412,-8.164883142395267
19606,-8.228955112648514
19802,-8.176830342512584
20000,-8.259830756936356
20200,-8.323468921448605
20402,-8.272227314538291
20606,-8.448149941608724
20812,-8.727661945281785
21020,-9.123268875897367
21230,-9.377787286218
21443,-9.680719061725583
21657,-9.88766885929271
21874,-9.987755453054108
22092,-10.002371380928249
22313,-10.052578193827788
22537,-10.820523462035464
22762,-11.870356764866433
22989,-13.148077166992088
23219,-14.947960673050353
23452,-16.28925643040686
23686,-16.54127753061371
23923,-16.732927993783104
24162,-16.455499016302756
24404,-16.178632379447716
24648,-15.902711837396993
24894,-15.627545227014831
25143,-15.352438414427688
25395,-15.07721358769335
25649,-14.802212586349858
25905,-14.527350466503075
26164,-14.25213423259929
26426,-13.976587142733548
26690,-13.70121156206932
26957,-13.425609153859485
27227,-13.14984266225898
27499,-12.874400742238777
27774,-12.598868686794708
28052,-12.323263611338788
28332,-12.048018565579202
28615,-11.772698292584996
28902,-11.49689968710674
29191,-11.221474016601569
29482,-10.946423683289456
29777,-10.670938909803109
