frequency,raw,error,smoothed,error_smoothed,equalization,parametric_eq,fixed_band_eq,equalized_raw,equalized_smoothed,target
20.00,-15.53,-21.25,-15.54,-21.25,6.00,5.97,2.74,-9.53,-9.54,5.72
20.20,-15.41,-21.17,-15.41,-21.17,6.00,5.97,2.82,-9.41,-9.41,5.76
20.40,-15.28,-21.08,-15.29,-21.08,6.00,5.97,2.90,-9.28,-9.29,5.80
20.61,-15.17,-20.99,-15.16,-20.99,6.00,5.97,2.98,-9.17,-9.16,5.82
20.81,-15.03,-20.90,-15.04,-20.90,6.00,5.97,3.07,-9.03,-9.04,5.87
21.02,-14.91,-20.82,-14.91,-20.81,6.00,5.97,3.15,-8.91,-8.91,5.90
21.23,-14.78,-20.71,-14.79,-20.71,6.00,5.97,3.24,-8.78,-8.79,5.92
21.44,-14.66,-20.61,-14.66,-20.61,6.00,5.97,3.34,-8.66,-8.66,5.94
21.66,-14.54,-20.50,-14.53,-20.50,6.00,5.97,3.43,-8.54,-8.53,5.96
21.87,-14.40,-20.38,-14.41,-20.39,6.00,5.97,3.53,-8.40,-8.41,5.97
22.09,-14.28,-20.28,-14.28,-20.27,6.00,5.97,3.63,-8.28,-8.28,5.99
22.31,-14.15,-20.16,-14.15,-20.16,6.00,5.97,3.73,-8.15,-8.15,6.00
22.54,-14.03,-20.04,-14.03,-20.04,6.00,5.97,3.83,-8.03,-8.03,6.01
22.76,-13.89,-19.92,-13.90,-19.92,6.00,5.97,3.94,-7.89,-7.90,6.02
22.99,-13.77,-19.80,-13.77,-19.80,6.00,5.97,4.05,-7.77,-7.77,6.02
23.22,-13.64,-19.68,-13.64,-19.67,6.00,5.97,4.17,-7.64,-7.64,6.03
23.45,-13.50,-19.55,-13.51,-19.55,6.00,5.97,4.28,-7.50,-7.51,6.04
23.69,-13.38,-19.43,-13.38,-19.43,6.00,5.97,4.40,-7.38,-7.38,6.05
23.92,-13.24,-19.30,-13.24,-19.31,6.00,5.97,4.52,-7.24,-7.24,6.06
24.16,-13.11,-19.19,-13.11,-19.19,6.00,5.97,4.65,-7.11,-7.11,6.08
24.40,-12.98,-19.08,-12.98,-19.07,6.00,5.97,4.77,-6.98,-6.98,6.10
24.65,-12.85,-18.95,-12.85,-18.95,6.00,5.97,4.90,-6.85,-6.85,6.10
24.89,-12.71,-18.82,-12.71,-18.82,6.00,5.97,5.03,-6.71,-6.71,6.11
25.14,-12.57,-18.69,-12.58,-18.69,6.00,5.97,5.16,-6.57,-6.58,6.12
25.39,-12.44,-18.57,-12.45,-18.58,6.00,5.97,5.29,-6.44,-6.45,6.13
25.65,-12.32,-18.46,-12.31,-18.45,6.00,5.96,5.42,-6.32,-6.31,6.15
25.91,-12.19,-18.33,-12.18,-18.33,6.00,5.96,5.56,-6.19,-6.18,6.15
26.16,-12.04,-18.20,-12.05,-18.21,6.00,5.96,5.69,-6.04,-6.05,6.16
26.43,-11.92,-18.08,-11.91,-18.08,6.00,5.96,5.82,-5.92,-5.91,6.17
26.69,-11.77,-17.95,-11.78,-17.95,6.00,5.96,5.95,-5.77,-5.78,6.18
26.96,-11.64,-17.83,-11.64,-17.83,6.00,5.96,6.08,-5.64,-5.64,6.19
27.23,-11.51,-17.71,-11.50,-17.70,6.00,5.96,6.21,-5.51,-5.50,6.20
27.50,-11.37,-17.58,-11.37,-17.58,6.00,5.96,6.34,-5.37,-5.37,6.21
27.77,-11.23,-17.45,-11.23,-17.45,6.00,5.96,6.46,-5.23,-5.23,6.21
28.05,-11.09,-17.33,-11.10,-17.32,6.00,5.96,6.58,-5.09,-5.10,6.23
28.33,-10.96,-17.19,-10.96,-17.20,6.00,5.96,6.69,-4.96,-4.96,6.23
28.62,-10.83,-17.07,-10.83,-17.07,6.00,5.96,6.80,-4.83,-4.83,6.24
28.90,-10.69,-16.94,-10.69,-16.94,6.00,5.96,6.90,-4.69,-4.69,6.25
29.19,-10.55,-16.80,-10.55,-16.81,6.00,5.96,7.00,-4.55,-4.55,6.25
29.48,-10.41,-16.69,-10.41,-16.68,6.00,5.95,7.08,-4.41,-4.41,6.28
29.78,-10.28,-16.55,-10.28,-16.55,6.00,5.95,7.16,-4.28,-4.28,6.28
30.08,-10.15,-16.43,-10.14,-16.43,6.00,5.95,7.22,-4.15,-4.14,6.28
30.38,-10.02,-16.30,-10.02,-16.31,6.00,5.95,7.29,-4.02,-4.02,6.28
30.68,-9.88,-16.19,-9.89,-16.19,6.00,5.95,7.33,-3.88,-3.89,6.30
30.99,-9.77,-16.07,-9.76,-16.07,6.00,5.95,7.37,-3.77,-3.76,6.30
31.30,-9.64,-15.95,-9.64,-15.95,6.00,5.95,7.40,-3.64,-3.64,6.31
31.61,-9.50,-15.82,-9.51,-15.82,6.00,5.95,7.42,-3.50,-3.51,6.32
31.93,-9.38,-15.70,-9.38,-15.70,6.00,5.94,7.42,-3.38,-3.38,6.33
32.24,-9.24,-15.57,-9.24,-15.58,6.00,5.94,7.42,-3.24,-3.24,6.33
32.57,-9.12,-15.46,-9.11,-15.45,6.00,5.94,7.41,-3.12,-3.11,6.35
32.89,-8.97,-15.33,-8.98,-15.33,6.00,5.94,7.39,-2.97,-2.98,6.35
33.22,-8.84,-15.21,-8.84,-15.20,6.00,5.94,7.36,-2.84,-2.84,6.36
33.55,-8.70,-15.07,-8.70,-15.07,6.00,5.94,7.32,-2.70,-2.70,6.37
33.89,-8.56,-14.94,-8.57,-14.95,6.00,5.94,7.28,-2.56,-2.57,6.38
34.23,-8.44,-14.82,-8.43,-14.82,6.00,5.93,7.23,-2.44,-2.43,6.39
34.57,-8.29,-14.69,-8.30,-14.69,6.00,5.93,7.17,-2.29,-2.30,6.40
34.92,-8.16,-14.55,-8.16,-14.56,6.00,5.93,7.10,-2.16,-2.16,6.39
35.27,-8.03,-14.43,-8.02,-14.42,6.00,5.93,7.04,-2.03,-2.02,6.40
35.62,-7.89,-14.30,-7.88,-14.29,6.00,5.93,6.97,-1.89,-1.88,6.41
35.97,-7.74,-14.15,-7.74,-14.15,6.00,5.92,6.90,-1.74,-1.74,6.41
36.33,-7.60,-14.02,-7.60,-14.02,6.00,5.92,6.82,-1.60,-1.60,6.42
36.70,-7.47,-13.88,-7.47,-13.88,6.00,5.92,6.75,-1.47,-1.47,6.41
37.06,-7.33,-13.75,-7.33,-13.75,6.00,5.92,6.67,-1.33,-1.33,6.42
37.43,-7.19,-13.62,-7.19,-13.62,6.00,5.92,6.59,-1.19,-1.19,6.43
37.81,-7.05,-13.48,-7.05,-13.48,6.00,5.91,6.52,-1.05,-1.05,6.43
38.19,-6.92,-13.34,-6.92,-13.34,6.00,5.91,6.45,-0.92,-0.92,6.42
38.57,-6.77,-13.20,-6.78,-13.20,6.00,5.91,6.37,-0.77,-0.78,6.42
38.95,-6.64,-13.06,-6.64,-13.05,6.00,5.91,6.30,-0.64,-0.64,6.42
39.34,-6.49,-12.91,-6.50,-12.91,6.00,5.90,6.24,-0.49,-0.50,6.41
39.74,-6.36,-12.77,-6.36,-12.77,6.00,5.90,6.17,-0.36,-0.36,6.41
40.14,-6.22,-12.63,-6.22,-12.63,6.00,5.90,6.11,-0.22,-0.22,6.42
40.54,-6.09,-12.50,-6.08,-12.49,6.00,5.90,6.05,-0.09,-0.08,6.41
40.94,-5.94,-12.36,-5.94,-12.36,6.00,5.89,6.00,0.06,0.06,6.41
41.35,-5.80,-12.21,-5.81,-12.22,6.00,5.89,5.95,0.20,0.19,6.41
41.76,-5.67,-12.09,-5.67,-12.08,6.00,5.89,5.90,0.33,0.33,6.41
42.18,-5.53,-11.95,-5.54,-11.95,6.00,5.89,5.86,0.47,0.46,6.42
42.60,-5.40,-11.82,-5.40,-11.82,6.00,5.88,5.82,0.60,0.60,6.42
43.03,-5.26,-11.69,-5.27,-11.68,6.00,5.88,5.79,0.74,0.73,6.42
43.46,-5.13,-11.55,-5.14,-11.55,6.00,5.88,5.75,0.87,0.86,6.42
43.90,-5.01,-11.41,-5.01,-11.42,6.00,5.87,5.73,0.99,0.99,6.40
44.33,-4.88,-11.29,-4.88,-11.29,6.00,5.87,5.71,1.12,1.12,6.41
44.78,-4.76,-11.16,-4.75,-11.16,6.00,5.87,5.69,1.24,1.25,6.40
45.23,-4.63,-11.02,-4.62,-11.03,6.00,5.87,5.68,1.37,1.38,6.40
45.68,-4.50,-10.90,-4.49,-10.90,6.00,5.87,5.67,1.50,1.51,6.40
46.13,-4.36,-10.76,-4.37,-10.77,6.00,5.86,5.66,1.64,1.63,6.40
46.60,-4.25,-10.66,-4.24,-10.65,6.00,5.86,5.67,1.75,1.76,6.41
47.06,-4.12,-10.53,-4.12,-10.53,6.00,5.86,5.67,1.88,1.88,6.41
47.53,-4.00,-10.40,-4.00,-10.41,6.00,5.86,5.68,2.00,2.00,6.40
48.01,-3.89,-10.30,-3.89,-10.29,6.00,5.86,5.69,2.11,2.11,6.41
48.49,-3.77,-10.16,-3.77,-10.16,6.00,5.86,5.70,2.23,2.23,6.40
48.97,-3.65,-10.03,-3.65,-10.03,6.00,5.86,5.72,2.35,2.35,6.38
49.46,-3.53,-9.91,-3.53,-9.90,6.00,5.86,5.74,2.47,2.47,6.37
49.96,-3.42,-9.77,-3.42,-9.78,6.00,5.87,5.77,2.58,2.58,6.36
50.46,-3.31,-9.66,-3.31,-9.66,6.00,5.87,5.80,2.69,2.69,6.36
50.96,-3.19,-9.54,-3.19,-9.54,6.00,5.87,5.83,2.81,2.81,6.35
51.47,-3.08,-9.41,-3.08,-9.41,6.00,5.88,5.86,2.92,2.92,6.32
51.99,-2.97,-9.28,-2.96,-9.28,6.00,5.88,5.89,3.03,3.04,6.31
52.51,-2.85,-9.16,-2.85,-9.15,6.00,5.89,5.93,3.15,3.15,6.31
53.03,-2.72,-9.02,-2.73,-9.03,6.00,5.90,5.96,3.28,3.27,6.30
53.56,-2.62,-8.91,-2.62,-8.91,6.00,5.91,6.00,3.38,3.38,6.29
54.10,-2.52,-8.78,-2.51,-8.78,6.00,5.93,6.03,3.48,3.49,6.27
54.64,-2.41,-8.66,-2.41,-8.66,6.00,5.94,6.07,3.59,3.59,6.26
55.18,-2.29,-8.53,-2.29,-8.53,6.00,5.96,6.10,3.71,3.71,6.24
55.74,-2.19,-8.40,-2.18,-8.41,6.00,5.98,6.13,3.81,3.82,6.22
56.29,-2.07,-8.29,-2.07,-8.28,6.00,6.00,6.16,3.93,3.93,6.21
56.86,-1.97,-8.16,-1.97,-8.16,6.00,6.02,6.19,4.03,4.03,6.19
57.42,-1.85,-8.02,-1.85,-8.03,6.00,6.04,6.22,4.15,4.15,6.17
58.00,-1.74,-7.90,-1.74,-7.90,6.00,6.07,6.24,4.26,4.26,6.16
58.58,-1.62,-7.77,-1.63,-7.77,6.00,6.09,6.25,4.38,4.37,6.15
59.16,-1.51,-7.65,-1.51,-7.65,6.00,6.11,6.26,4.49,4.49,6.13
59.76,-1.41,-7.52,-1.40,-7.52,6.00,6.12,6.27,4.59,4.60,6.12
60.35,-1.28,-7.38,-1.29,-7.38,6.00,6.14,6.27,4.72,4.71,6.09
60.96,-1.18,-7.24,-1.17,-7.24,6.00,6.14,6.26,4.82,4.83,6.07
61.57,-1.06,-7.09,-1.06,-7.09,6.00,6.14,6.24,4.94,4.94,6.03
62.18,-0.94,-6.94,-0.94,-6.95,6.00,6.12,6.22,5.06,5.06,6.00
62.80,-0.83,-6.82,-0.83,-6.81,6.01,6.09,6.20,5.18,5.18,5.98
63.43,-0.71,-6.66,-0.72,-6.67,6.02,6.06,6.16,5.31,5.30,5.95
64.07,-0.61,-6.53,-0.60,-6.53,6.03,6.01,6.12,5.42,5.42,5.92
64.71,-0.50,-6.39,-0.49,-6.38,6.02,5.95,6.07,5.52,5.53,5.89
65.35,-0.38,-6.25,-0.39,-6.25,6.00,5.88,6.02,5.61,5.61,5.86
66.01,-0.28,-6.12,-0.28,-6.12,5.96,5.80,5.96,5.67,5.68,5.84
66.67,-0.18,-5.99,-0.17,-5.99,5.90,5.72,5.89,5.72,5.73,5.82
67.33,-0.06,-5.85,-0.07,-5.86,5.82,5.63,5.82,5.76,5.75,5.79
68.01,0.04,-5.72,0.04,-5.72,5.72,5.54,5.75,5.76,5.76,5.76
68.69,0.14,-5.59,0.14,-5.59,5.61,5.45,5.67,5.75,5.75,5.73
69.37,0.24,-5.46,0.24,-5.46,5.49,5.36,5.58,5.72,5.72,5.69
70.07,0.34,-5.33,0.33,-5.33,5.36,5.27,5.49,5.69,5.69,5.66
70.77,0.43,-5.22,0.43,-5.21,5.22,5.18,5.40,5.65,5.65,5.64
71.48,0.51,-5.10,0.52,-5.10,5.10,5.09,5.31,5.61,5.61,5.62
72.19,0.61,-4.98,0.60,-4.98,4.98,5.00,5.21,5.59,5.58,5.58
72.91,0.69,-4.87,0.69,-4.87,4.87,4.91,5.12,5.56,5.56,5.56
73.64,0.77,-4.77,0.77,-4.77,4.77,4.83,5.02,5.53,5.54,5.54
74.38,0.86,-4.66,0.85,-4.66,4.67,4.74,4.92,5.52,5.52,5.52
75.12,0.94,-4.56,0.93,-4.56,4.57,4.65,4.82,5.50,5.50,5.49
75.87,1.01,-4.47,1.01,-4.47,4.47,4.57,4.72,5.48,5.48,5.48
76.63,1.08,-4.38,1.08,-4.38,4.38,4.49,4.62,5.46,5.46,5.46
77.40,1.15,-4.30,1.15,-4.30,4.29,4.40,4.53,5.44,5.44,5.44
78.17,1.22,-4.21,1.22,-4.21,4.20,4.32,4.43,5.42,5.42,5.42
78.95,1.30,-4.12,1.29,-4.12,4.12,4.24,4.34,5.41,5.41,5.42
79.74,1.37,-4.04,1.37,-4.04,4.04,4.16,4.24,5.40,5.40,5.41
80.54,1.44,-3.96,1.44,-3.95,3.96,4.08,4.15,5.39,5.40,5.40
81.35,1.52,-3.87,1.51,-3.88,3.88,4.00,4.06,5.40,5.39,5.38
82.16,1.58,-3.80,1.57,-3.80,3.81,3.92,3.98,5.39,5.38,5.37
82.98,1.63,-3.75,1.63,-3.73,3.74,3.84,3.89,5.36,5.37,5.37
83.81,1.69,-3.67,1.68,-3.67,3.67,3.76,3.81,5.36,5.36,5.36
84.65,1.75,-3.60,1.74,-3.61,3.60,3.68,3.73,5.35,5.35,5.35
85.50,1.80,-3.56,1.80,-3.55,3.54,3.60,3.65,5.34,5.34,5.35
86.35,1.87,-3.48,1.87,-3.48,3.48,3.53,3.57,5.34,5.34,5.35
87.22,1.93,-3.41,1.93,-3.42,3.41,3.46,3.50,5.35,5.34,5.34
88.09,2.00,-3.34,1.99,-3.35,3.35,3.39,3.43,5.35,5.35,5.34
88.97,2.05,-3.30,2.05,-3.29,3.29,3.32,3.36,5.34,5.34,5.34
89.86,2.11,-3.24,2.10,-3.24,3.24,3.26,3.30,5.35,5.34,5.35
90.76,2.16,-3.18,2.15,-3.18,3.19,3.19,3.23,5.35,5.34,5.33
91.66,2.20,-3.14,2.20,-3.14,3.15,3.13,3.17,5.34,5.35,5.34
92.58,2.24,-3.09,2.23,-3.10,3.11,3.08,3.12,5.35,5.34,5.33
93.51,2.27,-3.08,2.26,-3.07,3.07,3.03,3.06,5.34,5.34,5.34
94.44,2.29,-3.05,2.29,-3.05,3.04,2.98,3.01,5.33,5.33,5.33
95.39,2.32,-3.02,2.31,-3.02,3.01,2.93,2.95,5.32,5.32,5.34
96.34,2.34,-2.98,2.34,-2.98,2.97,2.89,2.91,5.31,5.31,5.32
97.30,2.37,-2.94,2.36,-2.95,2.94,2.85,2.86,5.31,5.30,5.31
98.28,2.40,-2.91,2.40,-2.90,2.91,2.81,2.82,5.30,5.30,5.30
99.26,2.43,-2.87,2.43,-2.86,2.87,2.78,2.77,5.30,5.30,5.29
100.25,2.47,-2.82,2.46,-2.82,2.83,2.75,2.73,5.30,5.29,5.28
101.25,2.49,-2.79,2.48,-2.79,2.80,2.72,2.69,5.28,5.28,5.27
102.27,2.51,-2.75,2.50,-2.75,2.76,2.69,2.66,5.26,5.26,5.25
103.29,2.52,-2.72,2.52,-2.72,2.72,2.66,2.62,5.23,5.23,5.24
104.32,2.54,-2.69,2.54,-2.68,2.67,2.64,2.59,5.21,5.21,5.23
105.37,2.57,-2.64,2.57,-2.64,2.62,2.61,2.56,5.19,5.19,5.21
106.42,2.61,-2.57,2.60,-2.58,2.57,2.59,2.53,5.18,5.17,5.18
107.48,2.64,-2.52,2.64,-2.52,2.51,2.57,2.50,5.15,5.15,5.16
108.56,2.67,-2.45,2.67,-2.46,2.46,2.54,2.47,5.12,5.12,5.12
109.64,2.70,-2.39,2.69,-2.40,2.40,2.52,2.44,5.09,5.09,5.09
110.74,2.72,-2.34,2.72,-2.33,2.34,2.50,2.42,5.06,5.06,5.06
111.85,2.75,-2.28,2.74,-2.28,2.29,2.47,2.39,5.04,5.03,5.02
112.97,2.75,-2.23,2.74,-2.24,2.25,2.45,2.37,4.99,4.99,4.97
114.10,2.73,-2.22,2.73,-2.21,2.21,2.43,2.35,4.94,4.94,4.94
115.24,2.71,-2.19,2.71,-2.19,2.19,2.40,2.32,4.89,4.89,4.90
116.39,2.69,-2.16,2.69,-2.16,2.16,2.38,2.30,4.85,4.85,4.85
117.55,2.67,-2.14,2.66,-2.15,2.15,2.36,2.28,4.81,4.81,4.81
118.73,2.64,-2.13,2.63,-2.14,2.14,2.33,2.26,4.77,4.77,4.76
119.92,2.59,-2.15,2.59,-2.13,2.13,2.31,2.24,4.72,4.73,4.74
121.12,2.56,-2.13,2.56,-2.13,2.13,2.28,2.22,4.69,4.69,4.69
122.33,2.54,-2.12,2.53,-2.13,2.13,2.26,2.20,4.66,4.66,4.65
123.55,2.51,-2.12,2.50,-2.12,2.13,2.23,2.18,4.63,4.63,4.63
124.79,2.47,-2.13,2.47,-2.13,2.12,2.21,2.15,4.59,4.59,4.59
126.03,2.43,-2.13,2.43,-2.12,2.12,2.18,2.13,4.54,4.55,4.56
127.29,2.41,-2.12,2.40,-2.12,2.11,2.16,2.11,4.51,4.51,4.52
128.57,2.39,-2.09,2.38,-2.10,2.09,2.13,2.09,4.48,4.48,4.48
129.85,2.37,-2.09,2.37,-2.08,2.07,2.11,2.07,4.44,4.44,4.45
131.15,2.37,-2.06,2.36,-2.06,2.05,2.09,2.05,4.42,4.41,4.42
132.46,2.37,-2.03,2.37,-2.03,2.03,2.06,2.03,4.39,4.39,4.40
133.79,2.38,-2.00,2.38,-2.00,2.00,2.04,2.01,4.37,4.38,4.38
135.12,2.39,-1.96,2.38,-1.97,1.98,2.02,1.99,4.36,4.35,4.35
136.48,2.38,-1.95,2.37,-1.95,1.96,1.99,1.97,4.33,4.33,4.32
137.84,2.36,-1.94,2.36,-1.93,1.94,1.97,1.95,4.30,4.31,4.29
139.22,2.35,-1.92,2.34,-1.93,1.94,1.95,1.93,4.28,4.28,4.26
140.61,2.32,-1.92,2.31,-1.93,1.94,1.93,1.91,4.25,4.25,4.24
142.02,2.28,-1.95,2.28,-1.94,1.94,1.90,1.89,4.22,4.23,4.23
143.44,2.26,-1.95,2.25,-1.95,1.95,1.88,1.87,4.21,4.20,4.21
144.87,2.22,-1.97,2.22,-1.97,1.96,1.86,1.85,4.17,4.18,4.18
146.32,2.19,-1.97,2.19,-1.97,1.97,1.84,1.84,4.15,4.15,4.15
147.78,2.16,-1.98,2.15,-1.98,1.97,1.83,1.82,4.13,4.13,4.14
149.26,2.13,-1.99,2.13,-1.98,1.97,1.81,1.80,4.10,4.10,4.11
150.75,2.10,-1.97,2.10,-1.98,1.97,1.79,1.79,4.07,4.07,4.07
152.26,2.09,-1.96,2.08,-1.96,1.97,1.77,1.77,4.05,4.05,4.04
153.78,2.06,-1.96,2.06,-1.95,1.96,1.76,1.76,4.01,4.02,4.02
155.32,2.05,-1.93,2.04,-1.94,1.94,1.74,1.75,3.99,3.98,3.98
156.88,2.02,-1.94,2.02,-1.93,1.93,1.73,1.74,3.94,3.95,3.95
158.44,2.01,-1.92,2.00,-1.92,1.91,1.71,1.73,3.92,3.91,3.92
160.03,1.98,-1.90,1.98,-1.90,1.90,1.70,1.71,3.87,3.88,3.88
161.63,1.96,-1.88,1.96,-1.88,1.89,1.69,1.71,3.84,3.85,3.84
163.24,1.95,-1.86,1.94,-1.87,1.88,1.68,1.70,3.82,3.81,3.81
164.88,1.91,-1.87,1.91,-1.86,1.87,1.67,1.69,3.78,3.78,3.78
166.53,1.89,-1.85,1.88,-1.86,1.87,1.66,1.69,3.75,3.75,3.74
168.19,1.85,-1.86,1.84,-1.86,1.87,1.65,1.68,3.72,3.71,3.70
169.87,1.80,-1.87,1.80,-1.86,1.87,1.64,1.68,3.67,3.67,3.66
171.57,1.75,-1.88,1.75,-1.88,1.88,1.63,1.68,3.62,3.62,3.63
173.29,1.71,-1.87,1.69,-1.89,1.88,1.62,1.68,3.58,3.57,3.58
175.02,1.64,-1.91,1.64,-1.89,1.87,1.62,1.68,3.51,3.52,3.54
176.77,1.60,-1.89,1.60,-1.89,1.87,1.61,1.68,3.46,3.47,3.49
178.54,1.58,-1.86,1.57,-1.87,1.86,1.61,1.68,3.43,3.43,3.44
180.32,1.56,-1.84,1.55,-1.84,1.84,1.60,1.69,3.40,3.40,3.39
182.13,1.54,-1.82,1.53,-1.82,1.83,1.60,1.69,3.37,3.36,3.35
183.95,1.50,-1.80,1.50,-1.80,1.82,1.60,1.70,3.31,3.31,3.30
185.79,1.46,-1.80,1.46,-1.79,1.80,1.60,1.70,3.26,3.26,3.25
187.65,1.42,-1.77,1.41,-1.78,1.79,1.60,1.71,3.21,3.20,3.19
189.52,1.38,-1.77,1.37,-1.78,1.78,1.60,1.72,3.15,3.15,3.15
191.42,1.33,-1.78,1.33,-1.78,1.77,1.60,1.73,3.09,3.09,3.10
193.33,1.29,-1.78,1.29,-1.77,1.75,1.60,1.75,3.04,3.04,3.06
195.27,1.26,-1.76,1.26,-1.76,1.74,1.60,1.76,3.00,3.00,3.02
197.22,1.24,-1.73,1.23,-1.73,1.73,1.60,1.77,2.96,2.96,2.97
199.19,1.22,-1.70,1.21,-1.71,1.71,1.61,1.79,2.93,2.93,2.92
201.18,1.20,-1.68,1.19,-1.68,1.70,1.61,1.80,2.90,2.89,2.88
203.19,1.17,-1.68,1.17,-1.67,1.69,1.62,1.82,2.85,2.85,2.85
205.23,1.14,-1.66,1.13,-1.67,1.68,1.62,1.83,2.81,2.81,2.80
207.28,1.10,-1.68,1.10,-1.67,1.67,1.63,1.85,2.77,2.77,2.78
209.35,1.06,-1.67,1.06,-1.67,1.66,1.64,1.87,2.72,2.72,2.73
211.44,1.03,-1.65,1.02,-1.67,1.66,1.64,1.88,2.69,2.68,2.68
213.56,0.99,-1.67,0.99,-1.67,1.66,1.65,1.90,2.64,2.65,2.65
215.69,0.96,-1.68,0.96,-1.66,1.66,1.66,1.92,2.61,2.62,2.63
217.85,0.94,-1.66,0.94,-1.66,1.66,1.67,1.94,2.59,2.59,2.59
220.03,0.92,-1.64,0.91,-1.65,1.66,1.68,1.95,2.57,2.57,2.56
222.23,0.89,-1.64,0.88,-1.65,1.66,1.69,1.97,2.55,2.54,2.53
224.45,0.85,-1.67,0.85,-1.66,1.66,1.70,1.99,2.51,2.51,2.51
226.70,0.82,-1.68,0.82,-1.67,1.67,1.72,2.00,2.48,2.49,2.50
228.96,0.80,-1.67,0.79,-1.68,1.67,1.73,2.02,2.47,2.46,2.47
231.25,0.78,-1.69,0.77,-1.68,1.68,1.75,2.03,2.45,2.45,2.46
233.57,0.76,-1.69,0.76,-1.69,1.68,1.76,2.05,2.44,2.44,2.45
235.90,0.75,-1.68,0.74,-1.69,1.69,1.78,2.06,2.43,2.43,2.43
238.26,0.73,-1.70,0.73,-1.70,1.70,1.79,2.07,2.42,2.43,2.42
240.64,0.72,-1.70,0.72,-1.70,1.71,1.81,2.08,2.43,2.43,2.42
243.05,0.71,-1.72,0.70,-1.72,1.73,1.83,2.09,2.43,2.43,2.42
245.48,0.69,-1.73,0.68,-1.74,1.75,1.84,2.10,2.44,2.43,2.42
247.93,0.65,-1.78,0.65,-1.77,1.78,1.86,2.10,2.42,2.43,2.42
250.41,0.62,-1.80,0.61,-1.81,1.81,1.88,2.11,2.43,2.43,2.42
252.92,0.58,-1.86,0.58,-1.85,1.85,1.90,2.11,2.42,2.43,2.43
255.45,0.56,-1.89,0.55,-1.89,1.89,1.92,2.11,2.45,2.44,2.45
258.00,0.53,-1.93,0.52,-1.93,1.93,1.95,2.11,2.46,2.46,2.46
260.58,0.50,-1.97,0.49,-1.97,1.97,1.97,2.11,2.47,2.47,2.46
263.19,0.47,-2.01,0.46,-2.01,2.01,1.99,2.11,2.47,2.47,2.48
265.82,0.44,-2.05,0.44,-2.05,2.04,2.02,2.10,2.47,2.48,2.48
268.48,0.43,-2.08,0.43,-2.08,2.06,2.04,2.10,2.49,2.49,2.51
271.16,0.43,-2.10,0.43,-2.10,2.09,2.07,2.09,2.51,2.51,2.53
273.87,0.44,-2.10,0.43,-2.11,2.11,2.10,2.08,2.54,2.54,2.53
276.61,0.44,-2.12,0.43,-2.12,2.13,2.13,2.08,2.56,2.56,2.56
279.38,0.43,-2.14,0.43,-2.14,2.15,2.15,2.07,2.58,2.58,2.57
282.17,0.42,-2.17,0.42,-2.17,2.18,2.18,2.06,2.59,2.60,2.58
284.99,0.41,-2.20,0.40,-2.20,2.21,2.21,2.05,2.61,2.61,2.60
287.84,0.37,-2.24,0.37,-2.24,2.25,2.25,2.04,2.61,2.61,2.61
290.72,0.34,-2.29,0.34,-2.29,2.29,2.28,2.03,2.62,2.62,2.63
293.63,0.31,-2.34,0.31,-2.34,2.33,2.31,2.02,2.64,2.64,2.64
296.57,0.28,-2.38,0.27,-2.38,2.38,2.34,2.02,2.66,2.66,2.66
299.53,0.25,-2.42,0.24,-2.43,2.43,2.38,2.01,2.68,2.67,2.67
302.53,0.21,-2.47,0.21,-2.47,2.48,2.41,2.00,2.68,2.69,2.68
305.55,0.18,-2.53,0.17,-2.52,2.52,2.45,1.99,2.70,2.70,2.70
308.61,0.15,-2.57,0.14,-2.57,2.57,2.48,1.99,2.71,2.71,2.71
311.69,0.12,-2.60,0.12,-2.61,2.60,2.52,1.98,2.72,2.72,2.72
314.81,0.11,-2.64,0.10,-2.64,2.63,2.55,1.98,2.73,2.73,2.75
317.96,0.09,-2.66,0.09,-2.66,2.65,2.58,1.97,2.74,2.74,2.75
321.14,0.08,-2.68,0.08,-2.67,2.66,2.61,1.97,2.74,2.75,2.75
324.35,0.09,-2.67,0.08,-2.67,2.67,2.64,1.97,2.76,2.76,2.75
327.59,0.10,-2.67,0.09,-2.67,2.68,2.67,1.97,2.77,2.77,2.77
330.87,0.10,-2.67,0.10,-2.67,2.67,2.70,1.97,2.77,2.77,2.77
334.18,0.11,-2.66,0.11,-2.67,2.67,2.72,1.98,2.77,2.77,2.77
337.52,0.12,-2.66,0.11,-2.66,2.66,2.74,1.98,2.78,2.78,2.78
340.90,0.12,-2.67,0.12,-2.66,2.66,2.76,1.99,2.78,2.78,2.78
344.30,0.13,-2.66,0.12,-2.66,2.66,2.78,1.99,2.78,2.78,2.78
347.75,0.13,-2.66,0.12,-2.66,2.66,2.79,2.00,2.79,2.79,2.78
351.23,0.12,-2.66,0.12,-2.66,2.67,2.80,2.01,2.78,2.79,2.78
354.74,0.11,-2.67,0.10,-2.67,2.68,2.81,2.03,2.79,2.78,2.78
358.28,0.08,-2.69,0.08,-2.69,2.70,2.82,2.04,2.77,2.78,2.77
361.87,0.06,-2.71,0.05,-2.71,2.72,2.82,2.05,2.77,2.77,2.77
365.49,0.03,-2.74,0.03,-2.74,2.74,2.82,2.07,2.76,2.76,2.77
369.14,-0.00,-2.76,-0.01,-2.77,2.77,2.82,2.09,2.76,2.76,2.75
372.83,-0.04,-2.80,-0.04,-2.79,2.79,2.82,2.11,2.75,2.75,2.75
376.56,-0.08,-2.83,-0.08,-2.82,2.82,2.82,2.13,2.74,2.74,2.74
380.33,-0.10,-2.85,-0.11,-2.85,2.85,2.81,2.15,2.74,2.73,2.74
384.13,-0.14,-2.88,-0.14,-2.87,2.87,2.81,2.18,2.73,2.73,2.73
387.97,-0.17,-2.89,-0.17,-2.89,2.90,2.80,2.20,2.72,2.72,2.72
391.85,-0.19,-2.90,-0.20,-2.91,2.91,2.80,2.23,2.72,2.72,2.71
395.77,-0.21,-2.93,-0.22,-2.93,2.93,2.79,2.25,2.72,2.71,2.72
399.73,-0.23,-2.94,-0.24,-2.94,2.94,2.79,2.28,2.71,2.70,2.71
403.72,-0.25,-2.95,-0.25,-2.95,2.95,2.78,2.31,2.69,2.69,2.70
407.76,-0.26,-2.95,-0.26,-2.95,2.95,2.78,2.34,2.68,2.68,2.69
411.84,-0.25,-2.95,-0.26,-2.95,2.94,2.77,2.37,2.68,2.68,2.70
415.96,-0.24,-2.93,-0.24,-2.93,2.93,2.77,2.40,2.68,2.68,2.68
420.12,-0.22,-2.91,-0.22,-2.91,2.91,2.76,2.44,2.68,2.69,2.68
424.32,-0.19,-2.88,-0.20,-2.88,2.89,2.76,2.47,2.69,2.68,2.68
428.56,-0.18,-2.86,-0.18,-2.86,2.86,2.75,2.50,2.67,2.68,2.67
432.85,-0.15,-2.83,-0.15,-2.83,2.83,2.75,2.53,2.67,2.67,2.67
437.18,-0.12,-2.80,-0.12,-2.80,2.79,2.75,2.56,2.67,2.67,2.67
441.55,-0.08,-2.77,-0.09,-2.76,2.76,2.74,2.59,2.68,2.67,2.68
445.96,-0.05,-2.74,-0.05,-2.73,2.73,2.74,2.63,2.67,2.67,2.68
450.42,-0.01,-2.69,-0.02,-2.69,2.69,2.73,2.65,2.68,2.68,2.67
454.93,0.02,-2.66,0.02,-2.66,2.66,2.73,2.68,2.68,2.68,2.68
459.48,0.06,-2.62,0.05,-2.63,2.64,2.72,2.71,2.69,2.69,2.68
464.07,0.08,-2.61,0.08,-2.61,2.62,2.72,2.74,2.69,2.69,2.69
468.71,0.10,-2.60,0.10,-2.60,2.60,2.71,2.76,2.70,2.70,2.70
473.40,0.12,-2.58,0.11,-2.59,2.59,2.70,2.78,2.71,2.71,2.70
478.13,0.13,-2.58,0.12,-2.58,2.59,2.70,2.80,2.72,2.71,2.71
482.91,0.13,-2.58,0.12,-2.59,2.59,2.69,2.82,2.72,2.72,2.71
487.74,0.12,-2.60,0.12,-2.60,2.60,2.68,2.84,2.72,2.72,2.72
492.62,0.11,-2.62,0.11,-2.61,2.61,2.68,2.85,2.71,2.72,2.73
497.55,0.11,-2.62,0.10,-2.63,2.62,2.67,2.86,2.72,2.72,2.73
502.52,0.11,-2.63,0.10,-2.63,2.62,2.66,2.87,2.73,2.73,2.74
507.55,0.11,-2.63,0.11,-2.63,2.63,2.65,2.88,2.74,2.74,2.74
512.62,0.11,-2.63,0.11,-2.63,2.64,2.65,2.88,2.74,2.74,2.74
