frequency,raw
10,-7.180320396499737
11,-6.251178174325634
12,-5.367744155058864
13,-4.657883199349024
14,-3.939412921710019
15,-3.326425415847461
16,-2.881251791847071
17,-2.2876158582756942
18,-1.8288297410646126
19,-1.5175828242198177
20,-1.1921872018322022
21,-0.7791496586336635
22,-0.4743064587883765
23,-0.19672996327112058
24,-0.04592798340076776
25,0.31979783852736077
26,0.4995500688211596
27,0.7056375827962618
28,0.8657506743699335
29,1.0713105549367619
30,1.2685643198591618
31,1.3734138022028723
32,1.5748227401166428
33,1.680781891923174
34,1.8278530725670423
35,1.8995558287913124
36,1.9630432526089772
37,2.047348010439989
38,2.1481064232740286
39,2.183003727147118
40,2.383936601350743
41,2.404605905855215
42,2.55015485530122
43,2.6267937209286645
44,2.725423994268513
45,2.808604713104841
46,2.8097116954406305
47,2.860153639293954
48,2.9045698223097434
49,3.0133173788457617
50,3.028519448951564
51,3.148212293143094
52,3.1668882086114687
53,3.1810072471106414
54,3.1880197237006147
55,3.3886914459358133
56,3.382237045851631
57,3.372370769061501
58,3.3617660006601993
59,3.3525159173931796
60,3.345789624584219
61,3.341765471292546
62,3.440360963310394
63,3.4393214479217606
64,3.538820376956637
65,3.537417754971395
66,3.536300657148141
67,3.5366657276515028
68,3.5395592584661477
69,3.5451422800190135
70,3.552400166301549
71,3.559467566794682
72,3.5643553803777133
73,3.565641134491595
74,3.463273147849004
75,3.4553673181803033
76,3.340576490455641
77,3.173101087967887
78,3.065085057800859
79,3.005504780199427
80,2.9972043316923855
81,2.8298258460839527
82,2.79677771586364
83,2.805734498660626
84,2.818295052530039
85,2.8824777417311953
86,2.947757045278469
87,2.962348849532651
88,3.076856530520181
89,3.0737147768898527
90,2.994999007266969
91,2.9947192644298406
92,2.9864596223643023
93,2.972517776352321
94,2.9579438681790435
95,2.9485855833261176
96,2.9876843984672723
97,3.1194518564263056
98,3.0542511033404116
99,3.0860145947806927
100,3.0983667216793336
101,3.003569943198163
102,2.9200004662250922
104,2.7385408391595476
105,2.7362268860408747
106,2.6143974192347104
107,2.5486635393366077
108,2.608187593142488
109,2.6900173185468423
110,2.6945991797714814
111,2.7688195166660163
112,2.8017604634398774
113,2.7768037717978773
114,2.796144329755088
115,2.8509664086649913
117,2.9734739150077614
118,3.034683686996968
119,3.0302589539732443
120,3.0285138599319543
121,3.0286071945213457
123,3.0898805351608436
124,3.1297800649206273
125,3.179086111446175
126,3.260246051358643
128,3.371329597191207
129,3.43374824479561
130,3.4401879912916096
131,3.4475716311988984
133,3.4530960641233692
134,3.454605587585995
135,3.4519343300098777
137,3.447158177443895
138,3.4435350810285072
140,3.4437346955919574
141,3.4654759688913153
142,3.540973311790844
144,3.56381285172844
145,3.5682420798872228
147,3.5685080916644383
148,3.565288975778569
150,3.5608226576837954
151,3.558109575676677
153,3.5600296540767413
154,3.5576755330910528
156,3.483026909281718
157,3.4570885425766784
159,3.4221590019108943
160,3.4377101113828363
162,3.399486653906864
164,3.2796014343276
165,3.1916216285756924
167,3.0859248126051027
169,3.0132799005995103
170,3.0161967576132573
172,3.111308685543105
174,3.1941304955605974
175,3.2186443015398796
177,3.220536336884469
179,3.221113393260853
181,3.22139270727643
183,3.22220618216996
184,3.2234856774108476
186,3.2243742391607517
188,3.2629516188043466
190,3.323268916635719
192,3.2512410653327475
194,3.2238681745139717
196,3.230828141042136
198,3.2432472506323
200,3.259720594395458
202,3.277493691931447
204,3.2937225468898523
206,3.262311434367785
208,3.1286925287593066
210,3.122721401614876
212,3.1297657643602372
214,3.137320974270489
216,3.14527992382654
218,3.152470781292233
221,3.1571659063691255
223,3.1578077860643
225,3.153721506640599
227,3.1456154412178057
229,3.135682473493959
232,3.1271563752411007
234,3.1233379169172935
236,3.126383213555502
239,3.104769769965479
241,3.0506714833777737
244,3.0669378363217286
246,3.0811731354302374
248,3.0911899535343856
251,3.0964997594516737
253,3.097881156401458
256,3.0732422250322022
259,2.992680166925247
261,2.988073023674837
264,2.982648738534265
266,2.9774083030806286
269,2.9265446485949766
272,2.872954668320931
274,2.8767358096195705
277,2.8843180449447274
280,2.894235750839033
283,2.8215600804286574
286,2.8128545286064073
288,2.8200328700772754
291,2.8262166801282476
294,2.732213244623998
297,2.695442850828062
300,2.6484670751218564
303,2.6570295944898783
306,2.663637768965015
309,2.5939742621862543
312,2.5699425911473055
316,2.535670332785368
319,2.479460812065491
322,2.489117583819028
325,2.5003282832034364
328,2.510344559714196
332,2.456320056850145
335,2.4190164602088604
338,2.4194998729241277
342,2.326007833890573
345,2.3247841558846423
349,2.3341430228425244
352,2.3476880149411183
356,2.335480635996766
359,2.2208433907940366
363,2.1944444976979955
366,2.2088130981433265
370,2.222233032419016
374,2.184651655514256
377,2.1458476633887216
381,2.0781786964527527
385,2.064107213437503
389,2.07238969677429
393,2.0816332072528434
397,2.071665805600656
401,2.004316686245809
405,1.9532520318759579
409,1.9219172414971082
413,1.9232763107899098
417,1.8276361039623792
421,1.7791957320592688
425,1.7046075518590778
430,1.6160679285906188
434,1.6035941635515751
438,1.6104567469190965
443,1.5991296991623596
447,1.5275009203095449
451,1.4959531737005243
456,1.4481968201274968
460,1.3815690603472532
465,1.377095232728073
470,1.3566669243877802
474,1.239510890760127
479,1.2206819084511755
484,1.237221336858343
489,1.1578960661171749
494,1.1725856671506865
499,1.057030001590042
504,1.04427832325204
509,0.9795606375484263
514,0.9603657923810105
519,0.7645977689551695
524,0.47421973194846023
529,0.210396163650878
535,-0.33980288382956303
540,-0.7271244339055727
545,-0.9215208938605182
551,-0.938808014339751
556,-0.900336068104084
562,-0.9381008735355114
568,-0.8131717042091071
573,-0.9074054470516542
579,-0.8434078077498564
585,-0.8550607122931675
591,-0.6937707627537661
596,-0.6105144192170817
602,-0.6727676505446651
608,-0.7371820883021605
615,-0.7203632754551867
621,-0.7835745357142094
627,-0.833237106417966
633,-0.8234596792313371
639,-0.9247407608430744
646,-1.003208936996883
652,-1.0541699012457482
659,-1.1151493332303715
665,-1.155396834689876
672,-1.2608640196604282
679,-1.2840398160959121
686,-1.3798569481324408
692,-1.377655388427395
699,-1.4676770055528277
706,-1.4511784259438567
713,-1.431634053014745
721,-1.4920347146434652
728,-1.4952120478668658
735,-1.4845328899631065
742,-1.4843393859722882
750,-1.4396903485701849
757,-1.421044851475822
765,-1.4015708231957418
773,-1.3801531828539781
780,-1.3168162867924895
788,-1.2556163263241964
796,-1.1758266111576474
804,-1.0974062957308264
812,-1.0500713378327422
820,-1.0170748288518197
828,-0.9869762491116338
837,-0.9954258090201145
845,-1.0635339110162216
853,-0.9883990434699088
862,-0.9222494507100851
871,-0.9435607099903134
879,-0.8523102411605228
888,-0.7325162952285194
897,-0.7352126859825834
906,-0.7649655619722675
915,-0.689754799998906
924,-0.6320095361658824
933,-0.5312359931778614
943,-0.46634534184353216
952,-0.3948390893896634
962,-0.37077313656711874
971,-0.31233611287816787
981,-0.13399585922945167
991,-0.08054676545679262
1001,0.00890485485437953
1011,0.0741534359556244
1021,0.1808164251871136
1031,0.25676518449237484
1041,0.3357159112152144
1052,0.40625800591048833
1062,0.53279068802021
1073,0.7431111966183148
1084,0.8096520561639342
1094,0.8635136693981522
1105,1.020543876512027
1116,1.0771940759481677
1128,1.131567847536565
1139,1.1279758945028342
1150,1.133000095506393
1162,1.0915362150360273
1173,1.029837475563629
1185,0.9472128014544081
1197,0.9249187590059575
1209,0.9070561254102718
1221,0.8795899062205783
1233,0.8735058335586467
1246,0.954296281802272
1258,1.0363134282664128
1271,1.0857749524936935
1283,1.2360591872297646
1296,1.348512329377615
1309,1.454039800980497
1322,1.5257258435244825
1335,1.529479721698228
1349,1.5178970176274014
1362,1.5732654937589103
1376,1.5689108478415572
1390,1.6291742906298623
1404,1.7319793196626114
1418,1.8683402641565716
1432,1.9938144354344152
1446,2.107293287021877
1461,2.2479067203495813
1475,2.40963039888987
1490,2.5798241020103116
1505,2.6263823668089072
1520,2.6808025978258216
1535,2.758041785470109
1550,2.821120899602514
1566,2.9355405280415474
1582,3.0772510866844898
1597,3.1577775537030632
1613,3.287029022374464
1629,3.4554982781885997
1646,3.6227059448670915
1662,3.7847050931804755
1679,4.071940658381894
1696,4.34063112655552
1713,4.613720306954747
1730,4.840772305803911
1747,4.989882963903776
1764,5.153087484651814
1782,5.050439778206435
1800,4.943130164207362
1818,4.9223334687720826
1836,5.019236592731884
1854,5.429529688093635
1873,5.861841087592861
1892,6.291713684332085
1911,6.5217257808792315
1930,6.740655746605295
1949,6.956610742364598
1969,7.166049100290185
1988,7.419966749779583
2008,7.624558681354164
2028,7.747794869974608
2048,7.890309060951396
2069,8.078463535569572
2090,8.347908100950537
2111,8.552819470277885
2132,8.688536111657665
2153,8.83324679910533
2175,8.892080492062181
2196,8.993216826251524
2218,9.020692458343738
2240,9.05955954692427
2263,9.220121683752797
2285,9.338614754462638
2308,9.462530496890821
2331,9.477253513128552
2355,9.568601355723718
2378,9.695958903480838
2402,9.89278438234517
2426,10.051069018604537
2450,10.125367354205949
2475,10.114693764449488
2500,10.033250385278343
2525,10.046052024307723
2550,10.03404081495028
2575,9.96736286975678
2601,9.946374608786135
2627,9.903937913783956
2653,9.857116060119877
2680,9.769139764028642
2707,9.753555001932838
2734,9.677908174887335
2761,9.651023817056377
2789,9.747352272568609
2817,9.90875354643524
2845,10.088788652847185
2873,10.218512687776748
2902,10.227919873026325
2931,10.21178643865964
2960,10.117966666298205
2990,10.07012670562265
3020,10.001952302930311
3050,9.908775947422997
3080,9.794043048998422
3111,9.70577549806033
3142,9.66824095181538
3174,9.652870112422349
3206,9.647657004124358
3238,9.773793197936039
3270,9.898855516368886
3303,9.93382260155188
3336,9.942089495895985
3369,9.934799205902076
3403,9.939289782922668
3437,9.953681909991976
3471,9.847023147861076
3506,9.8337896108985
3541,9.724665050127042
3576,9.675120067467557
3612,9.695289960175597
3648,9.636875592816837
3685,9.666621356731465
3721,9.639637808935348
3759,9.51853148177743
3796,9.384842928322069
3834,9.31937808030162
3873,9.347049647399162
3911,9.264879982745517
3950,9.123686336701361
3990,9.069592375842827
4030,9.020101027403669
4070,8.899518410826069
4111,8.875701054495625
4152,8.84200707162185
4193,8.77544860119308
4235,8.671642123504267
4278,8.511107032592317
4321,8.482776959314425
4364,8.35826440488044
4407,8.179581873320009
4451,8.17003837659112
4496,7.869150919282535
4541,7.901233946688169
4586,7.818782393122302
4632,7.602890235007163
4679,7.502625729028111
4725,7.364327563179895
4773,7.341582214186911
4820,7.267056614374824
4868,7.271910638284185
4917,7.2767944581801425
4966,7.207859817357055
5016,7.09038528045449
5066,6.934214430017193
5117,6.789065041512896
5168,6.658130164641753
5220,6.500143821178901
5272,6.437724637587027
5325,6.477599213529936
5378,6.526844303065107
5432,6.602839858924053
5486,6.678201018219886
5541,6.897252345892965
5596,6.987505828183008
5652,7.114004291971152
5709,7.378400871942099
5766,7.671836184552498
5823,7.831943571093512
5882,8.028770602876367
5940,8.227211804209151
6000,8.35293246458918
6060,8.630013669134367
6120,8.658473257204584
6182,8.734555679288146
6244,8.927213465356594
6306,9.056021477316527
6369,8.954795750446525
6433,8.823655373818909
6497,8.833469979018176
6562,8.758772348562186
6628,8.676618135250635
6694,8.633464876450967
6761,8.52926441773286
6828,8.533338319754911
6897,8.547257971182619
6966,8.508642400003767
7035,8.306272211937497
7106,8.087674239725532
7177,7.777813905056689
7249,7.427560125986856
7321,7.13076185667243
7394,6.84648396797566
7468,6.327868395135242
7543,6.004812955583326
7618,5.7118024693406095
7694,5.38199635714812
7771,5.372304690470193
7849,5.218480663947061
7928,4.856668267477824
8007,4.571395642316054
8087,4.630164847630617
8168,4.509134446702341
8250,4.4403462610832
8332,4.870753062965968
8415,5.046821187086515
8499,5.194212720070386
8584,5.358904024254969
8670,5.699907073768858
8757,5.942553986722477
8845,6.12190672817374
8933,6.32976053496801
9022,6.174576195791948
9113,5.634181338362611
9204,5.201131311664241
9296,4.814857580334115
9389,4.333906834570726
9483,4.059155002501466
9577,3.666447658636019
9673,2.9619063665004317
9770,1.9730382695670192
9868,1.1274255659519041
9966,0.36413549920326016
10066,-1.0569944459990634
10167,-1.7252888675197666
10268,-2.419921103813375
10371,-3.2836867829526435
10475,-4.652435544446184
10579,-5.4470167164603405
10685,-6.1669478229866
10792,-6.5978411028242965
10900,-6.357138604190978
11009,-5.980840108471202
11119,-5.45463415712102
11230,-4.9043853956292836
11343,-4.0799164953323945
11456,-3.2103776745707564
11571,-1.8892357988167388
11686,-0.7172838591902706
11803,0.6405095248134693
11921,1.6999000714747963
12040,2.172639534030845
12161,1.7514419521707891
12282,0.8291905473930696
12405,-1.2405388318772048
12529,-1.4564689253279282
12655,0.7983316977230368
12781,-0.4013207169597264
12909,-3.737206413452495
13038,-5.090016839523561
13168,-3.2541228284295736
13300,-3.903558908921801
13433,-4.956250011132168
13567,-5.677384878661028
13703,-6.528945207565703
13840,-7.432637405259418
13978,-8.276577811953086
14118,-9.152836763148317
14259,-10.108646280910094
14402,-10.965481609595095
14546,-11.717051767082818
14692,-12.223569345536768
14838,-12.415791063279173
14987,-11.931515011776739
15137,-10.596903816745606
15288,-9.61417745100377
15441,-8.262225946855594
15595,-7.343671492456633
15751,-6.851030663976193
15909,-6.228097160298049
16068,-5.012968380275578
16229,-4.35046849402357
16391,-4.172578404330706
16555,-3.934720162412419
16720,-3.3715347381523717
16888,-2.921705342022886
17056,-1.6564327196232114
17227,-1.616755872860396
17399,-1.548655361243859
17573,-1.5240470379489262
17749,-1.604140430414005
17926,-1.5975138181020219
18106,-1.6629420579661467
18287,-1.9331046487970012
18470,-1.9970665415782642
18654,-1.5553301156050985
18841,-1.0948408074394091
19029,-0.9188334428682321
19220,-0.783217545858439
19412,-1.4178413989372682
19606,-2.3483674543231308
19802,-3.0304514816839534
20000,-3.1882773477208195
20200,-3.297516752811691
20402,-3.4269100814330455
20606,-3.406343643043659
20812,-3.1274231538972463
21020,-3.5832211812090105
21230,-3.8720587121282897
21443,-4.53673024029657
21657,-5.350123117392058
21874,-5.779318811070919
22092,-6.2998878274454855
22313,-7.102585470640816
22537,-8.417896961499427
22762,-9.56960778898554
22989,-10.572624181662988
23219,-11.092558237131101
23452,-10.48497967864666
23686,-9.552005123922871
23923,-11.735053297685145
24162,-8.782850983573962
24404,-5.086851064259181
24648,-1.397696276034007
24894,2.2846461708291015
25143,5.974362719078923
25395,9.67107927668457
25649,13.36054010100142
25905,17.042703790556608
26164,20.731055403485108
26426,24.425067347160514
26690,28.110891825742343
26957,31.801557959753545
27227,35.49653387500136
27499,39.18239825430097
27774,42.87184485465194
28052,46.56442082978342
28332,50.24716006997289
28615,53.932434702036154
28902,57.632114457136566
29191,61.321096084946845
29482,64.99934789487212
29777,68.69069760787406
