frequency,raw
20.00,1.15
20.20,1.18
20.40,1.20
20.61,1.23
20.81,1.26
21.02,1.28
21.23,1.31
21.44,1.33
21.66,1.36
21.87,1.39
22.09,1.41
22.31,1.43
22.54,1.46
22.76,1.48
22.99,1.51
23.22,1.53
23.45,1.56
23.69,1.59
23.92,1.61
24.16,1.63
24.40,1.66
24.65,1.68
24.89,1.70
25.14,1.72
25.39,1.75
25.65,1.77
25.91,1.79
26.16,1.81
26.43,1.83
26.69,1.86
26.96,1.88
27.23,1.89
27.50,1.91
27.77,1.93
28.05,1.94
28.33,1.96
28.62,1.98
28.90,1.99
29.19,2.01
29.48,2.03
29.78,2.05
30.08,2.06
30.38,2.07
30.68,2.08
30.99,2.09
31.30,2.10
31.61,2.11
31.93,2.12
32.24,2.12
32.57,2.13
32.89,2.14
33.22,2.14
33.55,2.15
33.89,2.16
34.23,2.16
34.57,2.15
34.92,2.15
35.27,2.15
35.62,2.14
35.97,2.14
36.33,2.14
36.70,2.14
37.06,2.14
37.43,2.14
37.81,2.13
38.19,2.13
38.57,2.13
38.95,2.13
39.34,2.13
39.74,2.14
40.14,2.14
40.54,2.15
40.94,2.16
41.35,2.17
41.76,2.18
42.18,2.20
42.60,2.21
43.03,2.22
43.46,2.24
43.90,2.26
44.33,2.27
44.78,2.28
45.23,2.30
45.68,2.32
46.13,2.35
46.60,2.36
47.06,2.38
47.53,2.40
48.01,2.41
48.49,2.42
48.97,2.43
49.46,2.43
49.96,2.44
50.46,2.44
50.96,2.43
51.47,2.42
51.99,2.41
52.51,2.39
53.03,2.38
53.56,2.37
54.10,2.36
54.64,2.34
55.18,2.32
55.74,2.31
56.29,2.30
56.86,2.30
57.42,2.30
58.00,2.29
58.58,2.30
59.16,2.30
59.76,2.31
60.35,2.31
60.96,2.32
61.57,2.33
62.18,2.34
62.80,2.36
63.43,2.38
64.07,2.40
64.71,2.44
65.35,2.46
66.01,2.48
66.67,2.49
67.33,2.50
68.01,2.49
68.69,2.48
69.37,2.46
70.07,2.44
70.77,2.41
71.48,2.38
72.19,2.35
72.91,2.33
73.64,2.31
74.38,2.28
75.12,2.26
75.87,2.23
76.63,2.21
77.40,2.19
78.17,2.17
78.95,2.15
79.74,2.14
80.54,2.12
81.35,2.12
82.16,2.11
82.98,2.12
83.81,2.13
84.65,2.14
85.50,2.14
86.35,2.14
87.22,2.14
88.09,2.14
88.97,2.14
89.86,2.14
90.76,2.14
91.66,2.14
92.58,2.14
93.51,2.14
94.44,2.14
95.39,2.14
96.34,2.14
97.30,2.14
98.28,2.14
99.26,2.14
100.25,2.14
101.25,2.14
102.27,2.14
103.29,2.14
104.32,2.14
105.37,2.15
106.42,2.16
107.48,2.16
108.56,2.15
109.64,2.14
110.74,2.11
111.85,2.07
112.97,2.04
114.10,2.01
115.24,1.98
116.39,1.95
117.55,1.92
118.73,1.89
119.92,1.85
121.12,1.82
122.33,1.81
123.55,1.80
124.79,1.81
126.03,1.82
127.29,1.82
128.57,1.82
129.85,1.81
131.15,1.78
132.46,1.77
133.79,1.74
135.12,1.70
136.48,1.68
137.84,1.64
139.22,1.62
140.61,1.59
142.02,1.54
143.44,1.51
144.87,1.47
146.32,1.44
147.78,1.41
149.26,1.37
150.75,1.34
152.26,1.30
153.78,1.25
155.32,1.21
156.88,1.14
158.44,1.09
160.03,1.00
161.63,0.95
163.24,0.90
164.88,0.83
166.53,0.77
168.19,0.74
169.87,0.68
171.57,0.63
173.29,0.59
175.02,0.54
176.77,0.51
178.54,0.50
180.32,0.49
182.13,0.49
183.95,0.51
185.79,0.54
187.65,0.56
189.52,0.59
191.42,0.62
193.33,0.66
195.27,0.70
197.22,0.75
199.19,0.80
201.18,0.86
203.19,0.91
205.23,0.96
207.28,1.01
209.35,1.05
211.44,1.08
213.56,1.11
215.69,1.13
217.85,1.15
220.03,1.16
222.23,1.18
224.45,1.19
226.70,1.18
228.96,1.17
231.25,1.17
233.57,1.16
235.90,1.16
238.26,1.16
240.64,1.16
243.05,1.16
245.48,1.17
247.93,1.18
250.41,1.19
252.92,1.19
255.45,1.18
258.00,1.17
260.58,1.14
263.19,1.13
265.82,1.09
268.48,1.06
271.16,1.03
273.87,0.99
276.61,0.96
279.38,0.93
282.17,0.90
284.99,0.87
287.84,0.84
290.72,0.83
293.63,0.82
296.57,0.82
299.53,0.83
302.53,0.85
305.55,0.86
308.61,0.86
311.69,0.86
314.81,0.85
317.96,0.83
321.14,0.80
324.35,0.77
327.59,0.74
330.87,0.71
334.18,0.68
337.52,0.64
340.90,0.61
344.30,0.58
347.75,0.55
351.23,0.53
354.74,0.52
358.28,0.52
361.87,0.52
365.49,0.51
369.14,0.51
372.83,0.50
376.56,0.47
380.33,0.45
384.13,0.41
387.97,0.38
391.85,0.35
395.77,0.31
399.73,0.28
403.72,0.25
407.76,0.22
411.84,0.20
415.96,0.18
420.12,0.17
424.32,0.17
428.56,0.18
432.85,0.19
437.18,0.20
441.55,0.21
445.96,0.22
450.42,0.21
454.93,0.20
459.48,0.18
464.07,0.16
468.71,0.14
473.40,0.10
478.13,0.08
482.91,0.05
487.74,0.01
492.62,-0.02
497.55,-0.05
502.52,-0.08
507.55,-0.11
512.62,-0.13
517.75,-0.15
522.93,-0.16
528.16,-0.15
533.44,-0.14
538.77,-0.14
544.16,-0.13
549.60,-0.13
555.10,-0.13
560.65,-0.13
566.25,-0.13
571.92,-0.13
577.64,-0.13
583.41,-0.13
589.25,-0.13
595.14,-0.13
601.09,-0.13
607.10,-0.13
613.17,-0.13
619.30,-0.13
625.50,-0.13
631.75,-0.13
638.07,-0.13
644.45,-0.13
650.89,-0.13
657.40,-0.13
663.98,-0.13
670.62,-0.13
677.32,-0.13
684.10,-0.13
690.94,-0.13
697.85,-0.13
704.83,-0.13
711.87,-0.13
718.99,-0.13
726.18,-0.13
733.44,-0.13
740.78,-0.13
748.19,-0.13
755.67,-0.13
763.23,-0.13
770.86,-0.13
778.57,-0.13
786.35,-0.13
794.22,-0.13
802.16,-0.13
810.18,-0.13
818.28,-0.13
826.46,-0.13
834.73,-0.13
843.08,-0.13
851.51,-0.13
860.02,-0.13
868.62,-0.13
877.31,-0.13
886.08,-0.13
894.94,-0.13
903.89,-0.14
912.93,-0.15
922.06,-0.15
931.28,-0.16
940.59,-0.15
950.00,-0.14
959.50,-0.12
969.09,-0.10
978.78,-0.07
988.57,-0.04
998.46,-0.01
1008.44,0.03
1018.53,0.06
1028.71,0.09
1039.00,0.13
1049.39,0.16
1059.88,0.18
1070.48,0.20
1081.19,0.21
1092.00,0.21
1102.92,0.21
1113.95,0.20
1125.09,0.19
1136.34,0.19
1147.70,0.19
1159.18,0.19
1170.77,0.19
1182.48,0.19
1194.30,0.19
1206.25,0.19
1218.31,0.19
1230.49,0.19
1242.80,0.19
1255.22,0.19
1267.78,0.19
1280.45,0.18
1293.26,0.18
1306.19,0.17
1319.25,0.17
1332.45,0.18
1345.77,0.19
1359.23,0.21
1372.82,0.24
1386.55,0.26
1400.41,0.30
1414.42,0.33
1428.56,0.36
1442.85,0.40
1457.28,0.43
1471.85,0.46
1486.57,0.49
1501.43,0.51
1516.45,0.53
1531.61,0.54
1546.93,0.53
1562.40,0.51
1578.02,0.50
1593.80,0.50
1609.74,0.51
1625.84,0.52
1642.10,0.54
1658.52,0.57
1675.10,0.59
1691.85,0.63
1708.77,0.66
1725.86,0.70
1743.12,0.73
1760.55,0.76
1778.15,0.79
1795.94,0.82
1813.90,0.82
1832.03,0.82
1850.36,0.81
1868.86,0.80
1887.55,0.80
1906.42,0.81
1925.49,0.84
1944.74,0.90
1964.19,0.97
1983.83,1.07
2003.67,1.19
2023.71,1.34
2043.94,1.52
2064.38,1.72
2085.03,1.95
2105.88,2.21
2126.94,2.48
2148.20,2.77
2169.69,3.04
2191.38,3.30
2213.30,3.55
2235.43,3.80
2257.78,4.03
2280.36,4.25
2303.17,4.47
2326.20,4.68
2349.46,4.87
2372.95,5.04
2396.68,5.20
2420.65,5.34
2444.86,5.46
2469.31,5.58
2494.00,5.68
2518.94,5.77
2544.13,5.86
2569.57,5.94
2595.27,6.01
2621.22,6.08
2647.43,6.12
2673.90,6.16
2700.64,6.20
2727.65,6.23
2754.93,6.26
2782.48,6.29
2810.30,6.31
2838.40,6.33
2866.79,6.35
2895.46,6.37
2924.41,6.38
2953.65,6.38
2983.19,6.37
3013.02,6.36
3043.15,6.35
3073.58,6.36
3104.32,6.37
3135.36,6.38
3166.72,6.38
3198.38,6.37
3230.37,6.35
3262.67,6.33
3295.30,6.31
3328.25,6.28
3361.53,6.25
3395.15,6.22
3429.10,6.18
3463.39,6.15
3498.03,6.12
3533.01,6.09
3568.34,6.06
3604.02,6.03
3640.06,6.02
3676.46,6.01
3713.22,6.01
3750.36,6.01
3787.86,6.02
3825.74,6.03
3864.00,6.03
3902.64,6.03
3941.66,6.03
3981.08,6.03
4020.89,6.03
4061.10,6.03
4101.71,6.03
4142.73,6.04
4184.15,6.05
4226.00,6.06
4268.26,6.06
4310.94,6.07
4354.05,6.06
4397.59,6.04
4441.56,6.02
4485.98,5.97
4530.84,5.91
4576.15,5.85
4621.91,5.77
4668.13,5.67
4714.81,5.55
4761.96,5.41
4809.58,5.26
4857.67,5.10
4906.25,4.92
4955.31,4.74
5004.87,4.54
5054.91,4.34
5105.46,4.12
5156.52,3.88
5208.08,3.65
5260.16,3.41
5312.77,3.15
5365.89,2.88
5419.55,2.60
5473.75,2.33
5528.49,2.06
5583.77,1.79
5639.61,1.50
5696.00,1.22
5752.96,0.94
5810.49,0.66
5868.60,0.38
5927.28,0.09
5986.56,-0.20
6046.42,-0.48
6106.89,-0.78
6167.96,-1.08
6229.64,-1.39
6291.93,-1.69
6354.85,-1.99
6418.40,-2.27
6482.58,-2.55
6547.41,-2.84
6612.88,-3.14
6679.01,-3.45
6745.80,-3.78
6813.26,-4.12
6881.39,-4.45
6950.21,-4.78
7019.71,-5.11
7089.91,-5.44
7160.81,-5.76
7232.41,-6.08
7304.74,-6.40
7377.79,-6.72
7451.56,-7.03
7526.08,-7.33
7601.34,-7.63
7677.35,-7.90
7754.13,-8.16
7831.67,-8.40
7909.98,-8.64
7989.08,-8.88
8068.98,-9.11
8149.67,-9.34
8231.16,-9.57
8313.47,-9.79
8396.61,-9.99
8480.57,-10.18
8565.38,-10.35
8651.03,-10.51
8737.54,-10.67
8824.92,-10.83
8913.17,-10.96
9002.30,-11.08
9092.32,-11.19
9183.25,-11.28
9275.08,-11.35
9367.83,-11.42
9461.51,-11.49
9556.12,-11.52
9651.68,-11.55
9748.20,-11.58
9845.68,-11.59
9944.14,-11.59
10043.58,-11.57
10144.02,-11.52
10245.46,-11.45
10347.91,-11.33
10451.39,-11.15
10555.91,-10.90
10661.46,-10.58
10768.08,-10.18
10875.76,-9.72
10984.52,-9.19
11094.36,-8.62
11205.31,-8.03
11317.36,-7.45
11430.53,-6.87
11544.84,-6.32
11660.29,-5.81
11776.89,-5.36
11894.66,-4.96
12013.60,-4.63
12133.74,-4.38
12255.08,-4.20
12377.63,-4.07
12501.41,-4.00
12626.42,-3.98
12752.68,-3.98
12880.21,-4.00
13009.01,-4.04
13139.10,-4.12
13270.49,-4.24
13403.20,-4.40
13537.23,-4.63
13672.60,-4.92
13809.33,-5.28
13947.42,-5.70
14086.90,-6.18
14227.77,-6.70
14370.04,-7.26
14513.74,-7.84
14658.88,-8.44
14805.47,-9.04
14953.52,-9.60
15103.06,-10.16
15254.09,-10.67
15406.63,-11.12
15560.70,-11.52
15716.30,-11.84
15873.47,-12.11
16032.20,-12.35
16192.52,-12.55
16354.45,-12.72
16517.99,-12.88
16683.17,-13.04
16850.01,-13.19
17018.51,-13.38
17188.69,-13.58
17360.58,-13.81
17534.18,-14.11
17709.53,-14.48
17886.62,-14.95
18065.49,-15.51
18246.14,-16.18
18428.60,-16.95
18612.89,-17.80
18799.02,-18.73
18987.01,-19.75
19176.88,-20.84
19368.65,-22.02
19562.33,-23.29
19757.96,-24.64
19955.54,-26.07
