frequency,raw
20,-4.17
21,-4.03
22,-3.90
23,-3.80
24,-3.68
25,-3.58
26,-3.50
27,-3.44
28,-3.37
29,-3.28
30,-3.22
31,-3.15
32,-3.06
33,-3.02
34,-2.95
35,-2.89
36,-2.85
37,-2.80
38,-2.76
39,-2.72
40,-2.72
41,-2.67
42,-2.63
43,-2.63
44,-2.59
45,-2.54
46,-2.54
47,-2.50
48,-2.46
49,-2.41
50,-2.41
51,-2.37
52,-2.33
53,-2.33
54,-2.28
55,-2.28
56,-2.24
57,-2.24
58,-2.20
59,-2.20
60,-2.20
61,-2.15
62,-2.15
63,-2.11
64,-2.11
65,-2.11
66,-2.07
67,-2.07
68,-2.07
69,-2.07
70,-2.06
71,-2.02
72,-2.02
73,-2.02
74,-2.02
75,-2.02
76,-2.02
77,-2.00
78,-1.98
79,-1.98
80,-1.98
81,-1.98
82,-1.98
83,-1.98
84,-1.96
85,-1.96
86,-1.94
87,-1.94
88,-1.94
89,-1.94
90,-1.94
91,-1.94
92,-1.94
93,-1.94
94,-1.94
95,-1.94
96,-1.94
97,-1.94
98,-1.94
99,-1.94
100,-1.95
101,-1.96
102,-1.96
104,-1.98
105,-1.98
106,-1.98
107,-1.98
108,-1.98
109,-1.98
110,-1.98
111,-1.98
112,-1.98
113,-1.98
114,-1.98
115,-1.98
117,-1.98
118,-2.00
119,-2.00
120,-2.02
121,-2.02
123,-2.02
124,-2.02
125,-2.02
126,-2.02
128,-2.02
129,-2.06
130,-2.07
131,-2.07
133,-2.07
134,-2.07
135,-2.07
137,-2.09
138,-2.11
140,-2.11
141,-2.11
142,-2.11
144,-2.11
145,-2.15
147,-2.15
148,-2.15
150,-2.15
151,-2.16
153,-2.20
154,-2.20
156,-2.20
157,-2.20
159,-2.24
160,-2.24
162,-2.24
164,-2.24
165,-2.28
167,-2.28
169,-2.28
170,-2.28
172,-2.33
174,-2.33
175,-2.33
177,-2.33
179,-2.37
181,-2.37
183,-2.37
184,-2.37
186,-2.41
188,-2.41
190,-2.41
192,-2.41
194,-2.46
196,-2.46
198,-2.46
200,-2.46
202,-2.48
204,-2.50
206,-2.50
208,-2.50
210,-2.51
212,-2.54
214,-2.54
216,-2.54
218,-2.54
221,-2.59
223,-2.59
225,-2.59
227,-2.59
229,-2.61
232,-2.63
234,-2.63
236,-2.63
239,-2.63
241,-2.67
244,-2.67
246,-2.67
248,-2.67
251,-2.67
253,-2.72
256,-2.72
259,-2.72
261,-2.72
264,-2.72
266,-2.75
269,-2.76
272,-2.76
274,-2.76
277,-2.76
280,-2.76
283,-2.80
286,-2.80
288,-2.80
291,-2.80
294,-2.80
297,-2.80
300,-2.80
303,-2.83
306,-2.85
309,-2.85
312,-2.85
316,-2.85
319,-2.85
322,-2.85
325,-2.85
328,-2.85
332,-2.85
335,-2.85
338,-2.85
342,-2.85
345,-2.85
349,-2.85
352,-2.85
356,-2.87
359,-2.87
363,-2.87
366,-2.89
370,-2.89
374,-2.89
377,-2.89
381,-2.89
385,-2.89
389,-2.89
393,-2.89
397,-2.89
401,-2.89
405,-2.89
409,-2.89
413,-2.89
417,-2.89
421,-2.89
425,-2.89
430,-2.89
434,-2.89
438,-2.89
443,-2.89
447,-2.89
451,-2.89
456,-2.85
460,-2.85
465,-2.85
470,-2.85
474,-2.80
479,-2.80
484,-2.80
489,-2.76
494,-2.76
499,-2.76
504,-2.76
509,-2.72
514,-2.72
519,-2.72
524,-2.68
529,-2.67
535,-2.67
540,-2.67
545,-2.63
551,-2.63
556,-2.59
562,-2.59
568,-2.54
573,-2.54
579,-2.51
585,-2.49
591,-2.46
596,-2.44
602,-2.41
608,-2.38
615,-2.37
621,-2.36
627,-2.33
633,-2.30
639,-2.28
646,-2.22
652,-2.19
659,-2.15
665,-2.11
672,-2.08
679,-2.03
686,-1.99
692,-1.97
699,-1.94
706,-1.91
713,-1.87
721,-1.82
728,-1.76
735,-1.71
742,-1.66
750,-1.61
757,-1.57
765,-1.52
773,-1.48
780,-1.44
788,-1.41
796,-1.35
804,-1.30
812,-1.24
820,-1.18
828,-1.14
837,-1.09
845,-1.02
853,-0.96
862,-0.92
871,-0.86
879,-0.80
888,-0.75
897,-0.70
906,-0.64
915,-0.57
924,-0.52
933,-0.47
943,-0.39
952,-0.32
962,-0.26
971,-0.19
981,-0.12
991,-0.06
1001,0.01
1011,0.10
1021,0.16
1031,0.26
1041,0.34
1052,0.45
1062,0.53
1073,0.63
1084,0.72
1094,0.81
1105,0.92
1116,1.02
1128,1.13
1139,1.23
1150,1.33
1162,1.44
1173,1.51
1185,1.62
1197,1.69
1209,1.78
1221,1.86
1233,1.98
1246,2.10
1258,2.22
1271,2.31
1283,2.40
1296,2.47
1309,2.56
1322,2.64
1335,2.72
1349,2.79
1362,2.83
1376,2.83
1390,2.83
1404,2.83
1418,2.85
1432,2.87
1446,2.89
1461,2.92
1475,2.93
1490,2.97
1505,3.02
1520,3.05
1535,3.00
1550,2.93
1566,2.86
1582,2.83
1597,2.84
1613,2.83
1629,2.83
1646,2.83
1662,2.85
1679,2.89
1696,2.90
1713,2.87
1730,2.83
1747,2.83
1764,2.87
1782,2.91
1800,2.92
1818,2.95
1836,2.98
1854,3.01
1873,3.05
1892,3.05
1911,3.08
1930,3.11
1949,3.16
1969,3.22
1988,3.28
2008,3.33
2028,3.38
2048,3.41
2069,3.44
2090,3.47
2111,3.51
2132,3.56
2153,3.63
2175,3.68
2196,3.77
2218,3.83
2240,3.93
2263,4.03
2285,4.14
2308,4.26
2331,4.38
2355,4.51
2378,4.65
2402,4.78
2426,4.93
2450,5.05
2475,5.16
2500,5.28
2525,5.41
2550,5.52
2575,5.63
2601,5.76
2627,5.88
2653,5.99
2680,6.13
2707,6.27
2734,6.38
2761,6.53
2789,6.67
2817,6.78
2845,6.90
2873,7.03
2902,7.10
2931,7.19
2960,7.25
2990,7.33
3020,7.39
3050,7.45
3080,7.47
3111,7.47
3142,7.44
3174,7.40
3206,7.33
3238,7.28
3270,7.23
3303,7.21
3336,7.21
3369,7.21
3403,7.19
3437,7.16
3471,7.14
3506,7.09
3541,7.06
3576,7.00
3612,6.93
3648,6.86
3685,6.74
3721,6.61
3759,6.40
3796,6.13
3834,5.73
3873,5.17
3911,4.51
3950,3.70
3990,2.87
4030,2.10
4070,1.49
4111,1.07
4152,0.84
4193,0.94
4235,1.09
4278,1.28
4321,1.45
4364,1.59
4407,1.69
4451,1.70
4496,1.66
4541,1.60
4586,1.50
4632,1.39
4679,1.33
4725,1.25
4773,1.22
4820,1.18
4868,1.14
4917,1.13
4966,1.10
5016,1.07
5066,1.05
5117,1.03
5168,1.03
5220,1.05
5272,1.05
5325,1.08
5378,1.12
5432,1.22
5486,1.39
5541,1.62
5596,1.98
5652,2.46
5709,3.02
5766,3.60
5823,4.08
5882,4.44
5940,4.42
6000,3.99
6060,3.33
6120,2.48
6182,1.48
6244,0.45
6306,-0.54
6369,-1.41
6433,-2.18
6497,-2.73
6562,-3.12
6628,-3.33
6694,-3.41
6761,-3.34
6828,-3.24
6897,-3.18
6966,-3.10
7035,-3.06
7106,-3.02
7177,-3.02
7249,-3.05
7321,-3.08
7394,-3.11
7468,-3.07
7543,-2.93
7618,-2.77
7694,-2.58
7771,-2.44
7849,-2.36
7928,-2.52
8007,-2.81
8087,-3.24
8168,-3.78
8250,-4.35
8332,-4.85
8415,-5.24
8499,-5.53
8584,-5.57
8670,-5.44
8757,-5.24
8845,-4.98
8933,-4.71
9022,-4.48
9113,-4.32
9204,-4.45
9296,-4.78
9389,-5.33
9483,-6.17
9577,-7.21
9673,-8.43
9770,-9.60
9868,-10.50
9966,-11.01
10066,-10.46
10167,-9.62
10268,-8.49
10371,-7.20
10475,-6.10
10579,-5.27
10685,-4.68
10792,-4.55
10900,-4.88
11009,-5.29
11119,-5.70
11230,-6.01
11343,-6.14
11456,-5.94
11571,-5.74
11686,-5.49
11803,-5.37
11921,-5.16
12040,-4.78
12161,-4.17
12282,-3.36
12405,-2.49
12529,-1.64
12655,-1.10
12781,-0.91
12909,-1.50
13038,-2.34
13168,-3.52
13300,-4.77
13433,-6.06
13567,-7.28
13703,-8.44
13840,-9.62
13978,-10.92
14118,-12.32
14259,-13.38
14402,-14.34
14546,-14.80
14692,-14.63
14838,-14.23
14987,-13.55
15137,-12.70
15288,-11.57
15441,-10.23
15595,-8.83
15751,-7.58
15909,-6.59
16068,-5.90
16229,-5.53
16391,-5.34
16555,-5.42
16720,-5.78
16888,-6.34
17056,-7.02
17227,-7.72
17399,-8.33
17573,-8.75
17749,-8.95
17926,-8.93
18106,-9.07
18287,-9.45
18470,-9.97
18654,-10.62
18841,-11.20
19029,-11.79
19220,-12.15
19412,-12.41
19606,-12.57
19802,-12.69
20000,-12.79
