frequency,raw,smoothed,error,error_smoothed,equalization,parametric_eq,fixed_band_eq,equalized_raw,equalized_smoothed,target
20.00,10.23,10.24,2.08,2.08,-2.07,-2.91,-1.52,8.17,8.17,8.15
20.20,10.27,10.27,2.12,2.12,-2.12,-2.92,-1.56,8.16,8.15,8.15
20.40,10.31,10.31,2.16,2.16,-2.17,-2.94,-1.61,8.15,8.15,8.15
20.61,10.35,10.36,2.20,2.20,-2.22,-2.95,-1.66,8.14,8.14,8.15
20.81,10.40,10.40,2.25,2.25,-2.26,-2.96,-1.70,8.14,8.14,8.15
21.02,10.45,10.46,2.30,2.31,-2.31,-2.97,-1.75,8.14,8.14,8.15
21.23,10.51,10.51,2.36,2.36,-2.36,-2.98,-1.80,8.15,8.15,8.15
21.44,10.56,10.56,2.42,2.42,-2.41,-2.99,-1.86,8.15,8.15,8.15
21.66,10.61,10.61,2.47,2.47,-2.46,-3.00,-1.91,8.15,8.15,8.15
21.87,10.66,10.66,2.52,2.52,-2.51,-3.02,-1.97,8.15,8.15,8.15
22.09,10.70,10.71,2.56,2.56,-2.56,-3.03,-2.03,8.14,8.15,8.15
22.31,10.75,10.75,2.61,2.61,-2.61,-3.04,-2.08,8.15,8.14,8.14
22.54,10.79,10.80,2.65,2.65,-2.66,-3.05,-2.14,8.14,8.14,8.14
22.76,10.84,10.84,2.70,2.70,-2.70,-3.06,-2.21,8.14,8.14,8.14
22.99,10.88,10.89,2.74,2.74,-2.75,-3.07,-2.27,8.14,8.14,8.14
23.22,10.93,10.93,2.79,2.79,-2.79,-3.09,-2.34,8.14,8.14,8.14
23.45,10.97,10.98,2.83,2.84,-2.84,-3.10,-2.40,8.14,8.14,8.14
23.69,11.02,11.02,2.88,2.88,-2.88,-3.11,-2.47,8.15,8.14,8.14
23.92,11.05,11.06,2.92,2.92,-2.92,-3.12,-2.54,8.14,8.14,8.14
24.16,11.09,11.09,2.96,2.96,-2.95,-3.13,-2.61,8.14,8.14,8.14
24.40,11.12,11.12,2.99,2.99,-2.99,-3.14,-2.68,8.14,8.14,8.14
24.65,11.15,11.15,3.02,3.02,-3.02,-3.15,-2.75,8.13,8.13,8.13
24.89,11.18,11.18,3.05,3.05,-3.05,-3.17,-2.83,8.13,8.13,8.13
25.14,11.20,11.21,3.07,3.08,-3.08,-3.18,-2.90,8.13,8.13,8.13
25.39,11.23,11.23,3.10,3.10,-3.11,-3.19,-2.97,8.13,8.13,8.13
25.65,11.26,11.26,3.13,3.13,-3.13,-3.20,-3.05,8.13,8.13,8.13
25.91,11.28,11.29,3.16,3.16,-3.16,-3.21,-3.12,8.12,8.13,8.13
26.16,11.31,11.31,3.19,3.19,-3.19,-3.22,-3.20,8.13,8.13,8.13
26.43,11.33,11.34,3.21,3.21,-3.21,-3.24,-3.27,8.12,8.12,8.12
26.69,11.36,11.36,3.24,3.24,-3.24,-3.25,-3.35,8.12,8.12,8.12
26.96,11.38,11.39,3.26,3.27,-3.27,-3.26,-3.42,8.12,8.12,8.12
27.23,11.41,11.41,3.29,3.29,-3.29,-3.27,-3.49,8.12,8.12,8.12
27.50,11.43,11.43,3.32,3.32,-3.32,-3.28,-3.56,8.12,8.12,8.12
27.77,11.45,11.46,3.34,3.34,-3.34,-3.29,-3.63,8.11,8.12,8.11
28.05,11.48,11.48,3.37,3.37,-3.37,-3.30,-3.69,8.11,8.11,8.11
28.33,11.50,11.50,3.39,3.39,-3.39,-3.31,-3.75,8.11,8.11,8.11
28.62,11.52,11.53,3.41,3.42,-3.42,-3.33,-3.81,8.10,8.11,8.11
28.90,11.55,11.55,3.45,3.44,-3.44,-3.34,-3.87,8.11,8.11,8.11
29.19,11.57,11.57,3.47,3.47,-3.47,-3.35,-3.92,8.11,8.11,8.10
29.48,11.59,11.59,3.49,3.49,-3.49,-3.36,-3.97,8.10,8.11,8.10
29.78,11.61,11.61,3.51,3.51,-3.51,-3.37,-4.01,8.10,8.10,8.10
30.08,11.62,11.63,3.53,3.53,-3.53,-3.38,-4.05,8.09,8.10,8.10
30.38,11.64,11.64,3.55,3.55,-3.55,-3.39,-4.08,8.09,8.09,8.09
30.68,11.66,11.66,3.57,3.57,-3.57,-3.40,-4.11,8.09,8.09,8.09
30.99,11.67,11.68,3.59,3.59,-3.59,-3.41,-4.14,8.08,8.09,8.09
31.30,11.69,11.69,3.61,3.61,-3.61,-3.42,-4.15,8.08,8.08,8.08
31.61,11.71,11.71,3.63,3.63,-3.63,-3.43,-4.17,8.08,8.08,8.08
31.93,11.72,11.73,3.65,3.65,-3.65,-3.44,-4.17,8.08,8.08,8.08
32.24,11.74,11.74,3.67,3.67,-3.66,-3.45,-4.18,8.08,8.08,8.08
32.57,11.75,11.75,3.68,3.68,-3.68,-3.46,-4.17,8.07,8.07,8.07
32.89,11.76,11.76,3.70,3.70,-3.69,-3.47,-4.17,8.07,8.07,8.07
33.22,11.77,11.77,3.71,3.71,-3.71,-3.48,-4.16,8.07,8.06,8.06
33.55,11.77,11.78,3.71,3.72,-3.72,-3.49,-4.14,8.06,8.06,8.06
33.89,11.78,11.78,3.73,3.73,-3.73,-3.50,-4.12,8.05,8.05,8.06
34.23,11.79,11.79,3.74,3.74,-3.74,-3.51,-4.10,8.05,8.05,8.05
34.57,11.79,11.80,3.75,3.75,-3.75,-3.52,-4.08,8.05,8.05,8.05
34.92,11.80,11.80,3.76,3.76,-3.76,-3.53,-4.05,8.05,8.04,8.04
35.27,11.80,11.81,3.77,3.77,-3.77,-3.54,-4.02,8.04,8.04,8.04
35.62,11.81,11.81,3.78,3.78,-3.78,-3.55,-3.98,8.03,8.03,8.03
35.97,11.81,11.82,3.79,3.79,-3.79,-3.55,-3.95,8.02,8.03,8.03
36.33,11.82,11.82,3.80,3.80,-3.80,-3.56,-3.92,8.02,8.02,8.02
36.70,11.82,11.83,3.81,3.81,-3.81,-3.57,-3.88,8.01,8.02,8.02
37.06,11.83,11.83,3.82,3.82,-3.82,-3.58,-3.85,8.02,8.01,8.01
37.43,11.83,11.83,3.83,3.83,-3.83,-3.59,-3.81,8.01,8.01,8.01
37.81,11.83,11.83,3.83,3.83,-3.83,-3.59,-3.77,8.00,8.00,8.00
38.19,11.83,11.83,3.84,3.84,-3.84,-3.60,-3.74,7.99,7.99,7.99
38.57,11.83,11.83,3.85,3.85,-3.85,-3.61,-3.71,7.99,7.99,7.99
38.95,11.83,11.83,3.85,3.85,-3.85,-3.61,-3.67,7.98,7.98,7.98
39.34,11.82,11.83,3.85,3.85,-3.85,-3.62,-3.64,7.97,7.97,7.97
39.74,11.82,11.82,3.86,3.86,-3.86,-3.63,-3.61,7.97,7.96,7.97
40.14,11.81,11.82,3.86,3.86,-3.86,-3.63,-3.58,7.95,7.96,7.96
40.54,11.81,11.81,3.86,3.86,-3.86,-3.64,-3.56,7.95,7.95,7.95
40.94,11.80,11.81,3.86,3.86,-3.86,-3.65,-3.53,7.94,7.94,7.94
41.35,11.80,11.80,3.87,3.87,-3.87,-3.65,-3.51,7.94,7.94,7.93
41.76,11.79,11.79,3.87,3.87,-3.87,-3.66,-3.49,7.93,7.93,7.93
42.18,11.78,11.79,3.87,3.87,-3.87,-3.66,-3.48,7.92,7.92,7.92
42.60,11.77,11.77,3.87,3.87,-3.87,-3.67,-3.46,7.91,7.91,7.91
43.03,11.76,11.76,3.87,3.86,-3.87,-3.67,-3.45,7.90,7.89,7.90
43.46,11.74,11.75,3.86,3.86,-3.87,-3.68,-3.44,7.88,7.88,7.89
43.90,11.73,11.74,3.86,3.86,-3.87,-3.68,-3.44,7.87,7.87,7.88
44.33,11.73,11.73,3.87,3.86,-3.87,-3.68,-3.43,7.87,7.86,7.87
44.78,11.72,11.72,3.87,3.87,-3.86,-3.69,-3.43,7.86,7.86,7.85
45.23,11.71,11.71,3.87,3.87,-3.86,-3.69,-3.43,7.85,7.85,7.84
45.68,11.69,11.69,3.86,3.86,-3.86,-3.69,-3.44,7.84,7.84,7.83
46.13,11.67,11.67,3.86,3.85,-3.85,-3.70,-3.45,7.82,7.82,7.82
46.60,11.64,11.65,3.84,3.84,-3.84,-3.70,-3.46,7.80,7.80,7.81
47.06,11.62,11.62,3.83,3.83,-3.84,-3.70,-3.47,7.79,7.79,7.79
47.53,11.60,11.60,3.83,3.82,-3.83,-3.70,-3.48,7.77,7.77,7.78
48.01,11.58,11.58,3.82,3.82,-3.83,-3.70,-3.50,7.76,7.76,7.76
48.49,11.56,11.57,3.81,3.82,-3.82,-3.71,-3.52,7.74,7.75,7.75
48.97,11.55,11.55,3.82,3.82,-3.81,-3.71,-3.54,7.74,7.74,7.73
49.46,11.53,11.53,3.82,3.81,-3.81,-3.71,-3.56,7.73,7.72,7.72
49.96,11.50,11.51,3.80,3.80,-3.80,-3.71,-3.59,7.71,7.71,7.70
50.46,11.47,11.48,3.79,3.79,-3.79,-3.71,-3.61,7.69,7.69,7.68
50.96,11.44,11.44,3.78,3.77,-3.77,-3.71,-3.64,7.67,7.67,7.67
51.47,11.40,11.40,3.75,3.75,-3.76,-3.70,-3.67,7.65,7.65,7.65
51.99,11.36,11.37,3.73,3.74,-3.74,-3.70,-3.70,7.62,7.62,7.63
52.51,11.33,11.33,3.72,3.72,-3.73,-3.70,-3.73,7.61,7.61,7.61
53.03,11.30,11.30,3.71,3.71,-3.71,-3.70,-3.76,7.59,7.59,7.59
53.56,11.27,11.27,3.70,3.70,-3.70,-3.70,-3.79,7.58,7.57,7.57
54.10,11.23,11.24,3.68,3.69,-3.68,-3.69,-3.82,7.55,7.55,7.55
54.64,11.20,11.20,3.68,3.67,-3.67,-3.69,-3.85,7.53,7.53,7.53
55.18,11.16,11.16,3.66,3.66,-3.66,-3.69,-3.88,7.51,7.51,7.50
55.74,11.12,11.12,3.64,3.64,-3.64,-3.68,-3.91,7.48,7.48,7.48
56.29,11.08,11.08,3.63,3.63,-3.63,-3.68,-3.93,7.45,7.45,7.46
56.86,11.04,11.05,3.61,3.61,-3.62,-3.67,-3.96,7.43,7.43,7.43
57.42,11.01,11.01,3.61,3.60,-3.60,-3.67,-3.98,7.41,7.41,7.41
58.00,10.97,10.97,3.59,3.59,-3.59,-3.66,-3.99,7.38,7.38,7.38
58.58,10.93,10.94,3.58,3.58,-3.58,-3.65,-4.01,7.35,7.36,7.35
59.16,10.89,10.89,3.57,3.57,-3.57,-3.65,-4.02,7.33,7.33,7.33
59.76,10.85,10.85,3.56,3.56,-3.55,-3.64,-4.03,7.30,7.30,7.30
60.35,10.80,10.81,3.54,3.54,-3.54,-3.63,-4.03,7.26,7.27,7.27
60.96,10.76,10.76,3.53,3.53,-3.52,-3.62,-4.03,7.24,7.24,7.24
61.57,10.71,10.71,3.51,3.51,-3.51,-3.61,-4.02,7.21,7.20,7.20
62.18,10.66,10.66,3.49,3.49,-3.49,-3.61,-4.01,7.17,7.17,7.17
62.80,10.61,10.61,3.47,3.47,-3.48,-3.60,-4.00,7.14,7.14,7.14
63.43,10.56,10.56,3.46,3.46,-3.46,-3.58,-3.98,7.10,7.10,7.10
64.07,10.51,10.51,3.44,3.44,-3.45,-3.57,-3.96,7.07,7.07,7.07
64.71,10.46,10.46,3.43,3.43,-3.43,-3.56,-3.93,7.03,7.03,7.03
65.35,10.41,10.41,3.42,3.42,-3.41,-3.55,-3.90,7.00,7.00,7.00
66.01,10.36,10.36,3.41,3.40,-3.40,-3.54,-3.86,6.97,6.96,6.96
66.67,10.30,10.30,3.38,3.38,-3.38,-3.52,-3.82,6.92,6.92,6.92
67.33,10.24,10.24,3.36,3.36,-3.36,-3.51,-3.78,6.88,6.88,6.88
68.01,10.17,10.18,3.34,3.34,-3.34,-3.50,-3.73,6.83,6.83,6.84
68.69,10.11,10.11,3.32,3.32,-3.32,-3.48,-3.68,6.79,6.79,6.80
69.37,10.05,10.05,3.30,3.30,-3.31,-3.46,-3.62,6.75,6.75,6.75
70.07,9.99,9.99,3.29,3.28,-3.29,-3.45,-3.57,6.71,6.71,6.71
70.77,9.93,9.93,3.27,3.27,-3.27,-3.43,-3.51,6.66,6.66,6.66
71.48,9.87,9.87,3.26,3.26,-3.25,-3.41,-3.45,6.62,6.62,6.62
72.19,9.81,9.81,3.24,3.24,-3.24,-3.40,-3.39,6.58,6.57,6.57
72.91,9.74,9.74,3.22,3.22,-3.22,-3.38,-3.33,6.52,6.52,6.52
73.64,9.67,9.67,3.20,3.20,-3.20,-3.36,-3.26,6.47,6.47,6.47
74.38,9.60,9.60,3.18,3.18,-3.18,-3.34,-3.20,6.42,6.42,6.42
75.12,9.53,9.53,3.16,3.16,-3.16,-3.32,-3.13,6.37,6.37,6.37
75.87,9.46,9.46,3.14,3.14,-3.14,-3.29,-3.07,6.32,6.32,6.32
76.63,9.39,9.39,3.13,3.13,-3.12,-3.27,-3.01,6.27,6.27,6.27
77.40,9.31,9.32,3.10,3.10,-3.10,-3.25,-2.94,6.21,6.21,6.21
78.17,9.24,9.24,3.09,3.09,-3.09,-3.23,-2.88,6.16,6.16,6.16
78.95,9.16,9.17,3.06,3.07,-3.07,-3.20,-2.82,6.10,6.10,6.10
79.74,9.09,9.09,3.05,3.05,-3.05,-3.18,-2.76,6.04,6.04,6.04
80.54,9.01,9.02,3.03,3.03,-3.03,-3.15,-2.70,5.98,5.98,5.98
81.35,8.94,8.94,3.02,3.02,-3.02,-3.12,-2.64,5.93,5.92,5.93
82.16,8.86,8.86,3.00,3.00,-3.00,-3.10,-2.58,5.86,5.87,5.87
82.98,8.78,8.79,2.98,2.98,-2.98,-3.07,-2.53,5.80,5.81,5.80
83.81,8.71,8.71,2.97,2.97,-2.96,-3.04,-2.48,5.75,5.74,5.74
84.65,8.62,8.63,2.94,2.95,-2.94,-3.01,-2.42,5.68,5.68,5.68
85.50,8.54,8.54,2.93,2.93,-2.92,-2.98,-2.37,5.62,5.62,5.62
86.35,8.45,8.45,2.90,2.90,-2.90,-2.95,-2.32,5.55,5.55,5.55
87.22,8.36,8.36,2.88,2.88,-2.88,-2.92,-2.28,5.48,5.49,5.49
88.09,8.27,8.27,2.85,2.85,-2.86,-2.89,-2.23,5.42,5.42,5.42
88.97,8.18,8.18,2.83,2.83,-2.83,-2.86,-2.19,5.35,5.35,5.35
89.86,8.09,8.09,2.81,2.81,-2.81,-2.82,-2.15,5.29,5.29,5.29
90.76,7.99,8.00,2.78,2.78,-2.78,-2.79,-2.11,5.22,5.22,5.22
91.66,7.90,7.90,2.75,2.75,-2.75,-2.75,-2.07,5.15,5.15,5.15
92.58,7.80,7.80,2.72,2.72,-2.73,-2.72,-2.03,5.08,5.08,5.08
93.51,7.70,7.71,2.69,2.70,-2.70,-2.68,-2.00,5.01,5.01,5.01
94.44,7.61,7.61,2.67,2.67,-2.67,-2.64,-1.96,4.95,4.94,4.94
95.39,7.50,7.51,2.63,2.64,-2.64,-2.61,-1.93,4.87,4.87,4.87
96.34,7.40,7.41,2.61,2.61,-2.60,-2.57,-1.90,4.80,4.80,4.80
97.30,7.30,7.30,2.58,2.57,-2.57,-2.53,-1.87,4.73,4.73,4.73
98.28,7.19,7.19,2.54,2.54,-2.54,-2.49,-1.85,4.65,4.65,4.65
99.26,7.08,7.09,2.50,2.50,-2.50,-2.45,-1.82,4.58,4.58,4.58
100.25,6.97,6.98,2.46,2.47,-2.47,-2.41,-1.79,4.50,4.51,4.51
101.25,6.87,6.87,2.44,2.43,-2.43,-2.37,-1.77,4.44,4.44,4.44
102.27,6.76,6.76,2.40,2.40,-2.40,-2.32,-1.75,4.37,4.37,4.36
103.29,6.65,6.65,2.36,2.36,-2.36,-2.28,-1.72,4.29,4.29,4.29
104.32,6.54,6.54,2.32,2.32,-2.32,-2.23,-1.70,4.22,4.22,4.22
105.37,6.42,6.43,2.28,2.28,-2.28,-2.19,-1.68,4.14,4.15,4.15
106.42,6.31,6.31,2.24,2.24,-2.24,-2.14,-1.66,4.07,4.07,4.07
107.48,6.20,6.20,2.20,2.20,-2.20,-2.10,-1.64,4.00,4.00,4.00
108.56,6.08,6.08,2.16,2.16,-2.16,-2.05,-1.62,3.93,3.93,3.93
109.64,5.96,5.97,2.11,2.11,-2.11,-2.00,-1.60,3.85,3.86,3.85
110.74,5.85,5.85,2.07,2.07,-2.07,-1.95,-1.57,3.79,3.78,3.78
111.85,5.73,5.73,2.02,2.02,-2.02,-1.90,-1.55,3.71,3.71,3.71
112.97,5.60,5.61,1.97,1.97,-1.97,-1.85,-1.53,3.63,3.64,3.64
114.10,5.48,5.48,1.92,1.92,-1.92,-1.80,-1.51,3.56,3.56,3.57
115.24,5.36,5.36,1.87,1.87,-1.87,-1.75,-1.49,3.50,3.49,3.49
116.39,5.23,5.24,1.81,1.81,-1.81,-1.70,-1.46,3.42,3.42,3.42
117.55,5.11,5.11,1.76,1.76,-1.76,-1.64,-1.44,3.36,3.35,3.35
118.73,4.98,4.98,1.70,1.70,-1.70,-1.59,-1.41,3.28,3.28,3.28
119.92,4.85,4.86,1.64,1.64,-1.64,-1.53,-1.38,3.21,3.21,3.21
121.12,4.72,4.72,1.58,1.58,-1.58,-1.48,-1.35,3.14,3.14,3.14
122.33,4.59,4.60,1.52,1.52,-1.52,-1.42,-1.32,3.08,3.08,3.08
123.55,4.46,4.46,1.45,1.46,-1.45,-1.36,-1.29,3.01,3.01,3.01
124.79,4.33,4.33,1.39,1.39,-1.39,-1.30,-1.26,2.95,2.94,2.94
126.03,4.19,4.19,1.32,1.32,-1.32,-1.24,-1.22,2.88,2.88,2.88
127.29,4.05,4.05,1.24,1.24,-1.24,-1.18,-1.18,2.81,2.81,2.81
128.57,3.91,3.91,1.17,1.17,-1.17,-1.12,-1.14,2.74,2.74,2.75
129.85,3.77,3.77,1.09,1.09,-1.09,-1.06,-1.10,2.68,2.68,2.68
131.15,3.63,3.63,1.01,1.01,-1.01,-0.99,-1.06,2.62,2.62,2.62
132.46,3.49,3.49,0.94,0.93,-0.93,-0.93,-1.01,2.56,2.56,2.56
133.79,3.34,3.35,0.85,0.85,-0.85,-0.86,-0.97,2.49,2.50,2.50
135.12,3.20,3.20,0.77,0.77,-0.77,-0.79,-0.92,2.43,2.44,2.44
136.48,3.06,3.06,0.69,0.68,-0.69,-0.72,-0.87,2.38,2.37,2.38
137.84,2.91,2.92,0.60,0.60,-0.60,-0.65,-0.82,2.31,2.32,2.32
139.22,2.77,2.77,0.51,0.51,-0.52,-0.58,-0.77,2.26,2.26,2.26
140.61,2.63,2.63,0.43,0.43,-0.43,-0.51,-0.71,2.20,2.20,2.20
142.02,2.49,2.49,0.35,0.35,-0.35,-0.43,-0.66,2.15,2.15,2.15
143.44,2.35,2.35,0.26,0.26,-0.26,-0.36,-0.60,2.09,2.09,2.09
144.87,2.21,2.21,0.17,0.17,-0.17,-0.28,-0.54,2.04,2.04,2.04
146.32,2.07,2.07,0.09,0.09,-0.09,-0.20,-0.48,1.99,1.99,1.99
147.78,1.93,1.93,-0.00,-0.00,0.00,-0.12,-0.42,1.94,1.94,1.93
149.26,1.79,1.79,-0.09,-0.09,0.09,-0.04,-0.36,1.88,1.88,1.88
150.75,1.65,1.65,-0.18,-0.18,0.18,0.04,-0.30,1.83,1.83,1.83
152.26,1.51,1.51,-0.27,-0.27,0.27,0.13,-0.24,1.79,1.79,1.79
153.78,1.37,1.38,-0.37,-0.36,0.36,0.21,-0.18,1.74,1.74,1.74
155.32,1.24,1.24,-0.45,-0.45,0.45,0.30,-0.11,1.70,1.70,1.69
156.88,1.10,1.10,-0.54,-0.55,0.55,0.39,-0.05,1.65,1.65,1.65
158.44,0.96,0.96,-0.64,-0.64,0.64,0.48,0.02,1.60,1.60,1.60
160.03,0.82,0.83,-0.74,-0.73,0.72,0.57,0.08,1.55,1.55,1.56
161.63,0.69,0.69,-0.81,-0.82,0.81,0.67,0.15,1.51,1.51,1.51
163.24,0.56,0.57,-0.90,-0.90,0.90,0.76,0.22,1.46,1.47,1.47
164.88,0.44,0.44,-0.98,-0.98,0.99,0.86,0.28,1.43,1.43,1.42
166.53,0.31,0.31,-1.07,-1.07,1.07,0.96,0.35,1.39,1.39,1.39
168.19,0.19,0.19,-1.15,-1.16,1.16,1.06,0.42,1.35,1.35,1.35
169.87,0.06,0.07,-1.25,-1.24,1.24,1.15,0.49,1.30,1.31,1.31
171.57,-0.05,-0.05,-1.32,-1.32,1.32,1.25,0.56,1.28,1.27,1.27
173.29,-0.17,-0.17,-1.40,-1.41,1.41,1.35,0.63,1.24,1.24,1.24
175.02,-0.29,-0.29,-1.49,-1.49,1.49,1.45,0.70,1.20,1.20,1.20
176.77,-0.41,-0.40,-1.58,-1.57,1.57,1.55,0.78,1.16,1.17,1.17
178.54,-0.52,-0.52,-1.65,-1.65,1.65,1.65,0.85,1.14,1.14,1.14
180.32,-0.63,-0.63,-1.73,-1.73,1.74,1.75,0.92,1.11,1.11,1.11
182.13,-0.74,-0.74,-1.81,-1.81,1.82,1.85,1.00,1.09,1.08,1.07
183.95,-0.86,-0.85,-1.90,-1.90,1.91,1.95,1.07,1.05,1.06,1.04
185.79,-0.98,-0.98,-1.99,-1.99,2.00,2.04,1.15,1.02,1.02,1.02
187.65,-1.10,-1.10,-2.08,-2.09,2.09,2.13,1.22,1.00,0.99,0.99
189.52,-1.23,-1.22,-2.19,-2.18,2.18,2.22,1.30,0.95,0.96,0.96
191.42,-1.34,-1.34,-2.27,-2.27,2.27,2.30,1.38,0.93,0.93,0.93
193.33,-1.45,-1.45,-2.35,-2.35,2.35,2.38,1.45,0.90,0.90,0.91
195.27,-1.55,-1.55,-2.43,-2.43,2.42,2.46,1.53,0.87,0.87,0.88
197.22,-1.64,-1.63,-2.49,-2.49,2.48,2.53,1.61,0.85,0.85,0.86
199.19,-1.71,-1.71,-2.54,-2.54,2.53,2.60,1.69,0.83,0.82,0.83
201.18,-1.77,-1.77,-2.58,-2.58,2.57,2.66,1.76,0.81,0.80,0.81
203.19,-1.82,-1.82,-2.61,-2.60,2.60,2.71,1.84,0.78,0.79,0.79
205.23,-1.86,-1.85,-2.62,-2.62,2.62,2.76,1.92,0.77,0.77,0.77
207.28,-1.89,-1.89,-2.63,-2.63,2.64,2.80,1.99,0.75,0.75,0.75
209.35,-1.92,-1.92,-2.64,-2.64,2.65,2.83,2.07,0.73,0.73,0.73
211.44,-1.95,-1.95,-2.65,-2.65,2.66,2.86,2.15,0.71,0.71,0.71
213.56,-1.98,-1.97,-2.66,-2.66,2.66,2.88,2.22,0.69,0.69,0.69
215.69,-2.00,-2.00,-2.67,-2.67,2.67,2.90,2.29,0.68,0.67,0.67
217.85,-2.03,-2.03,-2.68,-2.68,2.68,2.91,2.36,0.66,0.66,0.65
220.03,-2.06,-2.06,-2.69,-2.69,2.70,2.91,2.43,0.64,0.64,0.64
222.23,-2.09,-2.09,-2.71,-2.71,2.71,2.90,2.50,0.62,0.62,0.62
224.45,-2.12,-2.12,-2.72,-2.72,2.72,2.90,2.56,0.60,0.60,0.60
226.70,-2.15,-2.15,-2.73,-2.73,2.73,2.88,2.62,0.59,0.59,0.59
228.96,-2.18,-2.18,-2.75,-2.75,2.75,2.86,2.68,0.57,0.57,0.57
231.25,-2.21,-2.20,-2.76,-2.76,2.76,2.84,2.73,0.55,0.55,0.56
233.57,-2.23,-2.23,-2.77,-2.77,2.76,2.81,2.78,0.54,0.54,0.54
235.90,-2.25,-2.25,-2.77,-2.77,2.77,2.78,2.83,0.53,0.53,0.52
238.26,-2.27,-2.26,-2.77,-2.77,2.78,2.75,2.87,0.51,0.51,0.51
240.64,-2.28,-2.28,-2.77,-2.77,2.78,2.71,2.90,0.50,0.50,0.50
243.05,-2.30,-2.29,-2.78,-2.78,2.78,2.67,2.94,0.48,0.49,0.48
245.48,-2.31,-2.31,-2.78,-2.78,2.78,2.63,2.96,0.47,0.47,0.47
247.93,-2.32,-2.31,-2.78,-2.77,2.77,2.59,2.99,0.45,0.45,0.46
250.41,-2.32,-2.31,-2.77,-2.76,2.76,2.55,3.00,0.44,0.44,0.45
252.92,-2.31,-2.31,-2.74,-2.75,2.74,2.51,3.01,0.44,0.44,0.44
255.45,-2.30,-2.29,-2.72,-2.72,2.72,2.47,3.02,0.43,0.43,0.43
258.00,-2.28,-2.28,-2.69,-2.70,2.70,2.43,3.02,0.42,0.42,0.42
260.58,-2.26,-2.26,-2.66,-2.67,2.67,2.39,3.02,0.41,0.41,0.41
263.19,-2.24,-2.23,-2.64,-2.63,2.63,2.35,3.01,0.40,0.40,0.40
265.82,-2.21,-2.20,-2.60,-2.60,2.59,2.31,3.00,0.38,0.39,0.39
268.48,-2.17,-2.17,-2.55,-2.55,2.54,2.27,2.98,0.38,0.38,0.38
271.16,-2.13,-2.12,-2.50,-2.50,2.49,2.24,2.96,0.37,0.37,0.37
273.87,-2.08,-2.07,-2.44,-2.44,2.44,2.20,2.94,0.36,0.36,0.37
276.61,-2.02,-2.02,-2.37,-2.38,2.38,2.17,2.91,0.36,0.36,0.36
279.38,-1.97,-1.96,-2.32,-2.31,2.32,2.13,2.89,0.35,0.36,0.35
282.17,-1.91,-1.90,-2.25,-2.25,2.26,2.10,2.85,0.35,0.35,0.34
284.99,-1.85,-1.85,-2.19,-2.19,2.20,2.07,2.82,0.35,0.35,0.35
287.84,-1.79,-1.79,-2.14,-2.13,2.14,2.05,2.78,0.35,0.35,0.35
290.72,-1.74,-1.74,-2.08,-2.08,2.08,2.02,2.75,0.35,0.34,0.34
293.63,-1.69,-1.69,-2.02,-2.03,2.02,1.99,2.71,0.34,0.34,0.34
296.57,-1.64,-1.63,-1.98,-1.97,1.96,1.97,2.67,0.33,0.33,0.34
299.53,-1.58,-1.58,-1.92,-1.92,1.91,1.95,2.63,0.33,0.33,0.35
302.53,-1.52,-1.52,-1.86,-1.86,1.85,1.92,2.59,0.34,0.33,0.34
305.55,-1.46,-1.46,-1.80,-1.80,1.80,1.90,2.55,0.34,0.34,0.35
308.61,-1.41,-1.40,-1.75,-1.75,1.75,1.89,2.51,0.35,0.35,0.34
311.69,-1.36,-1.36,-1.70,-1.70,1.71,1.87,2.47,0.36,0.36,0.35
314.81,-1.33,-1.33,-1.67,-1.67,1.68,1.85,2.43,0.36,0.36,0.34
317.96,-1.31,-1.31,-1.65,-1.65,1.66,1.84,2.39,0.36,0.36,0.35
321.14,-1.31,-1.30,-1.65,-1.65,1.65,1.82,2.35,0.35,0.35,0.34
324.35,-1.31,-1.31,-1.65,-1.65,1.65,1.81,2.31,0.35,0.35,0.35
327.59,-1.32,-1.31,-1.67,-1.66,1.66,1.80,2.28,0.35,0.35,0.35
330.87,-1.33,-1.33,-1.68,-1.68,1.67,1.79,2.24,0.35,0.35,0.35
334.18,-1.34,-1.34,-1.69,-1.69,1.69,1.78,2.21,0.35,0.35,0.36
337.52,-1.36,-1.35,-1.71,-1.71,1.70,1.77,2.18,0.35,0.35,0.35
340.90,-1.37,-1.36,-1.72,-1.72,1.72,1.77,2.15,0.35,0.35,0.36
344.30,-1.37,-1.37,-1.73,-1.73,1.73,1.76,2.12,0.36,0.36,0.36
347.75,-1.38,-1.37,-1.75,-1.74,1.74,1.76,2.09,0.36,0.37,0.37
351.23,-1.38,-1.37,-1.74,-1.75,1.75,1.75,2.07,0.37,0.37,0.37
354.74,-1.38,-1.38,-1.76,-1.76,1.76,1.75,2.04,0.38,0.38,0.39
358.28,-1.38,-1.38,-1.76,-1.76,1.77,1.74,2.02,0.39,0.39,0.38
361.87,-1.39,-1.38,-1.78,-1.77,1.77,1.74,2.00,0.39,0.39,0.39
365.49,-1.39,-1.39,-1.78,-1.78,1.78,1.74,1.98,0.40,0.40,0.40
369.14,-1.39,-1.39,-1.78,-1.79,1.79,1.74,1.96,0.41,0.40,0.39
372.83,-1.40,-1.40,-1.81,-1.80,1.81,1.74,1.95,0.41,0.41,0.41
376.56,-1.41,-1.41,-1.82,-1.82,1.82,1.74,1.93,0.41,0.41,0.41
380.33,-1.42,-1.42,-1.83,-1.83,1.83,1.74,1.92,0.41,0.41,0.42
384.13,-1.43,-1.42,-1.84,-1.84,1.84,1.74,1.91,0.41,0.42,0.41
387.97,-1.43,-1.42,-1.85,-1.85,1.84,1.74,1.90,0.42,0.42,0.42
391.85,-1.42,-1.42,-1.86,-1.85,1.84,1.74,1.89,0.43,0.43,0.44
395.77,-1.41,-1.41,-1.84,-1.85,1.84,1.75,1.88,0.43,0.43,0.44
399.73,-1.39,-1.39,-1.83,-1.83,1.83,1.75,1.88,0.44,0.44,0.45
403.72,-1.37,-1.36,-1.82,-1.81,1.81,1.75,1.87,0.44,0.44,0.45
407.76,-1.34,-1.34,-1.79,-1.79,1.79,1.76,1.87,0.45,0.45,0.45
411.84,-1.31,-1.31,-1.77,-1.77,1.77,1.76,1.87,0.46,0.46,0.46
415.96,-1.28,-1.28,-1.74,-1.74,1.75,1.76,1.87,0.48,0.47,0.47
420.12,-1.26,-1.26,-1.72,-1.73,1.74,1.77,1.87,0.48,0.48,0.47
424.32,-1.25,-1.24,-1.72,-1.72,1.73,1.77,1.86,0.48,0.48,0.48
428.56,-1.24,-1.24,-1.72,-1.72,1.72,1.78,1.87,0.49,0.49,0.48
432.85,-1.24,-1.24,-1.73,-1.72,1.73,1.78,1.87,0.49,0.49,0.49
437.18,-1.24,-1.24,-1.73,-1.73,1.74,1.79,1.87,0.50,0.50,0.49
441.55,-1.25,-1.25,-1.75,-1.75,1.75,1.79,1.87,0.50,0.51,0.50
445.96,-1.26,-1.26,-1.76,-1.77,1.77,1.80,1.87,0.51,0.51,0.51
450.42,-1.27,-1.27,-1.79,-1.79,1.78,1.80,1.87,0.52,0.52,0.53
454.93,-1.28,-1.28,-1.81,-1.81,1.80,1.81,1.87,0.53,0.53,0.54
459.48,-1.29,-1.28,-1.83,-1.83,1.82,1.81,1.87,0.53,0.54,0.54
464.07,-1.29,-1.29,-1.83,-1.84,1.83,1.82,1.88,0.55,0.54,0.54
468.71,-1.30,-1.29,-1.85,-1.85,1.85,1.83,1.88,0.55,0.55,0.55
473.40,-1.30,-1.30,-1.86,-1.86,1.86,1.83,1.88,0.56,0.56,0.56
478.13,-1.30,-1.30,-1.87,-1.87,1.87,1.84,1.88,0.57,0.57,0.57
482.91,-1.30,-1.30,-1.88,-1.88,1.88,1.84,1.87,0.58,0.58,0.58
487.74,-1.30,-1.30,-1.88,-1.88,1.89,1.85,1.87,0.59,0.59,0.59
492.62,-1.30,-1.30,-1.89,-1.89,1.90,1.86,1.87,0.60,0.60,0.60
497.55,-1.30,-1.30,-1.90,-1.90,1.91,1.86,1.86,0.61,0.61,0.61
502.52,-1.30,-1.30,-1.91,-1.92,1.92,1.87,1.86,0.63,0.62,0.62
507.55,-1.31,-1.30,-1.94,-1.93,1.93,1.87,1.85,0.63,0.63,0.64
512.62,-1.31,-1.30,-1.95,-1.95,1.94,1.88,1.85,0.63,0.64,0.64
