frequency,raw,smoothed,error,error_smoothed,equalization,parametric_eq,fixed_band_eq,equalized_raw,equalized_smoothed,target
20.00,4.66,4.66,-3.34,-3.34,3.32,2.99,1.31,7.98,7.98,8.00
20.20,4.69,4.69,-3.31,-3.30,3.30,2.99,1.35,7.99,7.99,8.00
20.40,4.72,4.72,-3.28,-3.27,3.28,2.99,1.39,8.00,8.00,8.00
20.61,4.75,4.75,-3.25,-3.25,3.26,2.98,1.43,8.01,8.01,8.00
20.81,4.77,4.77,-3.23,-3.23,3.24,2.98,1.47,8.01,8.01,7.99
21.02,4.78,4.78,-3.21,-3.21,3.23,2.98,1.52,8.01,8.01,7.99
21.23,4.79,4.79,-3.20,-3.21,3.22,2.98,1.56,8.01,8.00,7.99
21.44,4.79,4.79,-3.20,-3.20,3.20,2.97,1.61,7.99,7.99,7.99
21.66,4.79,4.79,-3.20,-3.20,3.20,2.97,1.66,7.99,7.99,7.99
21.87,4.79,4.79,-3.20,-3.20,3.20,2.97,1.71,7.99,7.99,7.99
22.09,4.79,4.79,-3.20,-3.20,3.19,2.97,1.76,7.98,7.98,7.99
22.31,4.80,4.80,-3.19,-3.19,3.19,2.97,1.81,7.99,7.98,7.99
22.54,4.81,4.81,-3.18,-3.18,3.18,2.96,1.86,7.98,7.98,7.99
22.76,4.82,4.82,-3.17,-3.17,3.16,2.96,1.92,7.98,7.98,7.99
22.99,4.84,4.84,-3.15,-3.15,3.14,2.96,1.97,7.98,7.98,7.99
23.22,4.86,4.86,-3.13,-3.13,3.13,2.96,2.03,7.98,7.98,7.99
23.45,4.88,4.88,-3.11,-3.10,3.11,2.95,2.09,7.99,7.99,7.98
23.69,4.90,4.90,-3.08,-3.08,3.09,2.95,2.15,7.99,7.99,7.98
23.92,4.92,4.92,-3.06,-3.06,3.07,2.95,2.21,7.99,7.99,7.98
24.16,4.93,4.93,-3.05,-3.05,3.06,2.94,2.27,7.99,7.99,7.98
24.40,4.94,4.94,-3.04,-3.04,3.05,2.94,2.34,7.99,7.99,7.98
24.65,4.94,4.94,-3.04,-3.04,3.04,2.94,2.40,7.98,7.98,7.98
24.89,4.94,4.94,-3.04,-3.03,3.03,2.94,2.46,7.97,7.98,7.98
25.14,4.95,4.95,-3.03,-3.03,3.03,2.93,2.53,7.97,7.97,7.98
25.39,4.95,4.95,-3.03,-3.02,3.02,2.93,2.59,7.97,7.97,7.97
25.65,4.96,4.96,-3.01,-3.01,3.01,2.93,2.66,7.97,7.97,7.97
25.91,4.97,4.97,-3.00,-3.00,3.00,2.92,2.72,7.97,7.97,7.97
26.16,4.99,4.99,-2.98,-2.98,2.98,2.92,2.79,7.97,7.97,7.97
26.43,5.00,5.00,-2.97,-2.97,2.97,2.92,2.85,7.97,7.97,7.97
26.69,5.02,5.02,-2.95,-2.95,2.95,2.91,2.92,7.97,7.97,7.97
26.96,5.03,5.03,-2.94,-2.93,2.93,2.91,2.98,7.96,7.96,7.96
27.23,5.05,5.05,-2.91,-2.91,2.91,2.90,3.04,7.96,7.96,7.96
27.50,5.07,5.07,-2.89,-2.89,2.89,2.90,3.10,7.96,7.96,7.96
27.77,5.09,5.09,-2.87,-2.87,2.87,2.90,3.16,7.96,7.96,7.96
28.05,5.10,5.10,-2.86,-2.86,2.86,2.89,3.21,7.95,7.96,7.96
28.33,5.12,5.12,-2.84,-2.84,2.84,2.89,3.26,7.96,7.95,7.96
28.62,5.13,5.13,-2.82,-2.82,2.82,2.88,3.32,7.95,7.95,7.95
28.90,5.15,5.15,-2.80,-2.80,2.80,2.88,3.36,7.95,7.95,7.95
29.19,5.16,5.16,-2.79,-2.79,2.79,2.88,3.40,7.95,7.95,7.95
29.48,5.17,5.17,-2.78,-2.78,2.78,2.87,3.44,7.95,7.95,7.95
29.78,5.18,5.18,-2.76,-2.77,2.77,2.87,3.47,7.95,7.95,7.94
30.08,5.18,5.18,-2.76,-2.76,2.77,2.86,3.50,7.95,7.95,7.94
30.38,5.18,5.18,-2.76,-2.76,2.76,2.86,3.53,7.94,7.94,7.94
30.68,5.17,5.17,-2.77,-2.76,2.76,2.85,3.55,7.93,7.93,7.94
30.99,5.17,5.17,-2.76,-2.76,2.75,2.85,3.56,7.92,7.92,7.93
31.30,5.17,5.17,-2.76,-2.76,2.75,2.84,3.57,7.92,7.92,7.93
31.61,5.18,5.18,-2.75,-2.75,2.74,2.84,3.58,7.92,7.92,7.93
31.93,5.19,5.19,-2.73,-2.74,2.74,2.83,3.57,7.92,7.92,7.92
32.24,5.20,5.20,-2.72,-2.72,2.73,2.83,3.57,7.93,7.92,7.92
32.57,5.20,5.20,-2.72,-2.71,2.72,2.82,3.56,7.92,7.92,7.92
32.89,5.21,5.21,-2.70,-2.71,2.71,2.82,3.54,7.92,7.92,7.91
33.22,5.21,5.21,-2.70,-2.70,2.70,2.81,3.52,7.91,7.91,7.91
33.55,5.21,5.21,-2.70,-2.70,2.69,2.80,3.50,7.90,7.90,7.90
33.89,5.21,5.21,-2.69,-2.69,2.69,2.80,3.47,7.90,7.90,7.90
34.23,5.21,5.21,-2.69,-2.68,2.68,2.79,3.44,7.89,7.89,7.90
34.57,5.22,5.22,-2.67,-2.68,2.67,2.79,3.41,7.89,7.89,7.89
34.92,5.22,5.22,-2.67,-2.67,2.66,2.78,3.37,7.88,7.89,7.89
35.27,5.23,5.23,-2.65,-2.66,2.66,2.77,3.33,7.88,7.88,7.88
35.62,5.23,5.23,-2.65,-2.65,2.65,2.77,3.29,7.88,7.88,7.88
35.97,5.24,5.24,-2.63,-2.64,2.64,2.76,3.25,7.88,7.88,7.87
36.33,5.24,5.24,-2.63,-2.63,2.63,2.75,3.21,7.87,7.87,7.87
36.70,5.24,5.24,-2.62,-2.62,2.63,2.74,3.16,7.86,7.87,7.86
37.06,5.24,5.24,-2.62,-2.62,2.62,2.74,3.11,7.86,7.86,7.86
37.43,5.24,5.24,-2.61,-2.61,2.62,2.73,3.07,7.85,7.85,7.85
37.81,5.23,5.23,-2.62,-2.61,2.61,2.72,3.02,7.84,7.84,7.84
38.19,5.23,5.23,-2.61,-2.61,2.60,2.71,2.98,7.83,7.83,7.84
38.57,5.23,5.23,-2.60,-2.60,2.60,2.70,2.93,7.83,7.83,7.83
38.95,5.23,5.23,-2.60,-2.60,2.59,2.70,2.88,7.82,7.82,7.82
39.34,5.23,5.23,-2.59,-2.59,2.59,2.69,2.84,7.82,7.82,7.82
39.74,5.24,5.24,-2.57,-2.57,2.58,2.68,2.80,7.82,7.81,7.81
40.14,5.24,5.24,-2.56,-2.56,2.57,2.67,2.76,7.81,7.81,7.80
40.54,5.24,5.24,-2.56,-2.56,2.56,2.66,2.71,7.80,7.80,7.79
40.94,5.23,5.23,-2.56,-2.55,2.55,2.65,2.68,7.78,7.78,7.79
41.35,5.23,5.23,-2.55,-2.55,2.54,2.64,2.64,7.77,7.78,7.78
41.76,5.24,5.24,-2.53,-2.53,2.53,2.63,2.60,7.77,7.77,7.77
42.18,5.24,5.24,-2.52,-2.52,2.53,2.62,2.57,7.76,7.76,7.76
42.60,5.24,5.24,-2.51,-2.51,2.52,2.61,2.53,7.76,7.75,7.75
43.03,5.23,5.23,-2.51,-2.51,2.51,2.60,2.50,7.74,7.74,7.74
43.46,5.23,5.23,-2.50,-2.50,2.50,2.59,2.47,7.73,7.73,7.73
43.90,5.23,5.23,-2.49,-2.49,2.49,2.58,2.45,7.72,7.72,7.72
44.33,5.23,5.23,-2.48,-2.48,2.48,2.57,2.42,7.71,7.71,7.71
44.78,5.23,5.23,-2.47,-2.47,2.47,2.55,2.40,7.70,7.70,7.70
45.23,5.23,5.23,-2.46,-2.46,2.47,2.54,2.38,7.70,7.69,7.69
45.68,5.22,5.22,-2.46,-2.46,2.46,2.53,2.36,7.68,7.68,7.68
46.13,5.21,5.21,-2.45,-2.45,2.45,2.52,2.34,7.65,7.66,7.66
46.60,5.21,5.20,-2.44,-2.45,2.43,2.50,2.33,7.64,7.64,7.65
47.06,5.20,5.20,-2.44,-2.44,2.42,2.49,2.31,7.62,7.63,7.64
47.53,5.20,5.21,-2.42,-2.42,2.42,2.48,2.30,7.62,7.62,7.62
48.01,5.21,5.21,-2.40,-2.40,2.41,2.46,2.29,7.62,7.62,7.61
48.49,5.22,5.21,-2.37,-2.38,2.40,2.45,2.28,7.62,7.61,7.59
48.97,5.20,5.19,-2.38,-2.38,2.40,2.43,2.27,7.59,7.59,7.58
49.46,5.17,5.17,-2.39,-2.39,2.39,2.42,2.27,7.56,7.56,7.56
49.96,5.14,5.15,-2.41,-2.40,2.38,2.40,2.26,7.52,7.52,7.55
50.46,5.14,5.14,-2.39,-2.39,2.37,2.39,2.26,7.51,7.51,7.53
50.96,5.15,5.15,-2.36,-2.36,2.36,2.37,2.26,7.51,7.51,7.51
51.47,5.17,5.16,-2.32,-2.33,2.35,2.36,2.26,7.52,7.51,7.49
51.99,5.16,5.16,-2.32,-2.32,2.33,2.34,2.26,7.49,7.49,7.47
52.51,5.15,5.15,-2.31,-2.31,2.31,2.32,2.25,7.46,7.46,7.46
53.03,5.13,5.14,-2.31,-2.30,2.29,2.30,2.25,7.42,7.43,7.44
53.56,5.14,5.14,-2.28,-2.28,2.27,2.29,2.25,7.41,7.41,7.42
54.10,5.15,5.14,-2.24,-2.25,2.25,2.27,2.25,7.40,7.39,7.39
54.64,5.15,5.15,-2.22,-2.22,2.23,2.25,2.25,7.38,7.38,7.37
55.18,5.14,5.15,-2.21,-2.20,2.21,2.23,2.25,7.35,7.36,7.35
55.74,5.15,5.14,-2.18,-2.18,2.19,2.21,2.25,7.33,7.33,7.33
56.29,5.14,5.14,-2.16,-2.16,2.17,2.19,2.25,7.30,7.31,7.30
56.86,5.13,5.12,-2.15,-2.15,2.15,2.17,2.25,7.28,7.27,7.28
57.42,5.11,5.11,-2.14,-2.14,2.14,2.15,2.24,7.25,7.25,7.25
58.00,5.08,5.11,-2.15,-2.12,2.13,2.12,2.24,7.21,7.24,7.22
58.58,5.11,5.10,-2.09,-2.10,2.12,2.10,2.23,7.23,7.22,7.20
59.16,5.11,5.07,-2.06,-2.10,2.10,2.08,2.22,7.21,7.17,7.17
59.76,5.02,5.03,-2.12,-2.11,2.08,2.06,2.21,7.10,7.11,7.14
60.35,4.98,5.01,-2.13,-2.10,2.06,2.03,2.19,7.04,7.07,7.11
60.96,5.00,5.02,-2.08,-2.06,2.04,2.01,2.17,7.04,7.06,7.08
61.57,5.09,5.06,-1.96,-1.99,2.02,1.98,2.16,7.10,7.07,7.05
62.18,5.10,5.07,-1.92,-1.95,1.99,1.96,2.13,7.09,7.06,7.02
62.80,5.03,5.05,-1.95,-1.93,1.95,1.93,2.11,6.98,7.00,6.98
63.43,5.01,5.02,-1.94,-1.93,1.91,1.90,2.08,6.92,6.93,6.95
64.07,5.00,5.00,-1.91,-1.92,1.88,1.88,2.05,6.88,6.88,6.91
64.71,5.01,5.01,-1.87,-1.87,1.85,1.85,2.02,6.86,6.86,6.88
65.35,5.02,5.03,-1.82,-1.81,1.83,1.82,1.99,6.85,6.86,6.84
66.01,5.05,5.03,-1.75,-1.77,1.81,1.79,1.95,6.86,6.84,6.80
66.67,5.02,5.01,-1.74,-1.76,1.78,1.76,1.91,6.80,6.79,6.76
67.33,4.97,4.97,-1.75,-1.75,1.75,1.73,1.87,6.72,6.72,6.72
68.01,4.91,4.93,-1.77,-1.75,1.71,1.70,1.82,6.62,6.64,6.68
68.69,4.92,4.92,-1.72,-1.72,1.68,1.67,1.78,6.60,6.60,6.64
69.37,4.93,4.93,-1.67,-1.67,1.65,1.64,1.73,6.58,6.58,6.60
70.07,4.96,4.95,-1.59,-1.61,1.62,1.60,1.68,6.58,6.57,6.55
70.77,4.95,4.95,-1.56,-1.56,1.59,1.57,1.63,6.54,6.54,6.51
71.48,4.93,4.93,-1.53,-1.53,1.55,1.54,1.58,6.48,6.48,6.46
72.19,4.90,4.90,-1.52,-1.51,1.52,1.50,1.52,6.42,6.42,6.41
72.91,4.87,4.88,-1.50,-1.49,1.48,1.47,1.47,6.35,6.36,6.37
73.64,4.86,4.85,-1.46,-1.46,1.45,1.43,1.41,6.31,6.30,6.32
74.38,4.84,4.84,-1.43,-1.43,1.42,1.39,1.36,6.26,6.26,6.27
75.12,4.83,4.83,-1.39,-1.39,1.38,1.36,1.30,6.21,6.21,6.22
75.87,4.82,4.82,-1.34,-1.35,1.35,1.32,1.24,6.17,6.16,6.16
76.63,4.80,4.81,-1.31,-1.30,1.31,1.28,1.19,6.11,6.12,6.11
77.40,4.80,4.79,-1.26,-1.26,1.27,1.24,1.13,6.07,6.06,6.06
78.17,4.78,4.78,-1.22,-1.22,1.23,1.20,1.07,6.01,6.01,6.00
78.95,4.76,4.76,-1.19,-1.19,1.19,1.16,1.01,5.95,5.95,5.94
79.74,4.73,4.73,-1.16,-1.16,1.15,1.12,0.95,5.88,5.88,5.89
80.54,4.71,4.71,-1.12,-1.12,1.11,1.08,0.89,5.82,5.82,5.83
81.35,4.70,4.70,-1.07,-1.07,1.07,1.03,0.84,5.77,5.76,5.77
82.16,4.69,4.69,-1.02,-1.02,1.02,0.99,0.78,5.71,5.71,5.71
82.98,4.67,4.67,-0.98,-0.98,0.98,0.95,0.72,5.65,5.65,5.65
83.81,4.66,4.66,-0.93,-0.93,0.93,0.90,0.66,5.59,5.59,5.59
84.65,4.64,4.64,-0.88,-0.88,0.89,0.86,0.60,5.52,5.52,5.52
85.50,4.62,4.62,-0.84,-0.84,0.84,0.81,0.55,5.46,5.46,5.46
86.35,4.61,4.61,-0.79,-0.79,0.79,0.77,0.49,5.40,5.39,5.40
87.22,4.59,4.59,-0.74,-0.74,0.74,0.72,0.43,5.33,5.33,5.33
88.09,4.57,4.57,-0.70,-0.69,0.69,0.67,0.38,5.26,5.26,5.26
88.97,4.55,4.55,-0.65,-0.65,0.65,0.63,0.32,5.20,5.20,5.20
89.86,4.53,4.53,-0.60,-0.60,0.60,0.58,0.26,5.13,5.13,5.13
90.76,4.51,4.51,-0.55,-0.55,0.56,0.53,0.21,5.07,5.07,5.06
91.66,4.49,4.49,-0.50,-0.51,0.51,0.48,0.15,5.00,5.00,4.99
92.58,4.46,4.46,-0.47,-0.47,0.47,0.43,0.10,4.93,4.93,4.92
93.51,4.43,4.43,-0.43,-0.42,0.42,0.38,0.04,4.85,4.85,4.85
94.44,4.40,4.40,-0.39,-0.38,0.38,0.33,-0.01,4.78,4.78,4.78
95.39,4.38,4.38,-0.33,-0.34,0.34,0.28,-0.07,4.72,4.72,4.71
96.34,4.35,4.35,-0.29,-0.29,0.30,0.23,-0.12,4.64,4.65,4.64
97.30,4.33,4.33,-0.24,-0.25,0.25,0.18,-0.17,4.58,4.57,4.57
98.28,4.30,4.30,-0.20,-0.20,0.20,0.13,-0.23,4.50,4.49,4.50
99.26,4.27,4.27,-0.16,-0.15,0.14,0.08,-0.28,4.41,4.42,4.43
100.25,4.25,4.26,-0.11,-0.10,0.09,0.03,-0.33,4.34,4.34,4.35
101.25,4.26,4.25,-0.02,-0.03,0.03,-0.02,-0.39,4.29,4.28,4.28
102.27,4.25,4.25,0.04,0.04,-0.04,-0.07,-0.44,4.21,4.21,4.21
103.29,4.24,4.24,0.10,0.11,-0.10,-0.12,-0.49,4.14,4.14,4.14
104.32,4.23,4.23,0.17,0.17,-0.16,-0.17,-0.54,4.07,4.07,4.06
105.37,4.22,4.22,0.23,0.23,-0.22,-0.22,-0.59,3.99,3.99,3.99
106.42,4.20,4.20,0.28,0.29,-0.29,-0.27,-0.64,3.91,3.92,3.92
107.48,4.19,4.19,0.35,0.34,-0.34,-0.33,-0.69,3.85,3.84,3.84
108.56,4.17,4.17,0.40,0.40,-0.40,-0.38,-0.73,3.77,3.77,3.77
109.64,4.15,4.15,0.45,0.45,-0.45,-0.43,-0.78,3.70,3.70,3.70
110.74,4.12,4.13,0.49,0.50,-0.50,-0.48,-0.82,3.62,3.62,3.63
111.85,4.11,4.10,0.56,0.55,-0.55,-0.53,-0.87,3.56,3.56,3.55
112.97,4.08,4.08,0.60,0.60,-0.59,-0.58,-0.91,3.49,3.49,3.48
114.10,4.05,4.05,0.64,0.64,-0.63,-0.63,-0.95,3.42,3.42,3.41
115.24,4.01,4.01,0.67,0.68,-0.66,-0.67,-0.99,3.35,3.35,3.34
116.39,3.98,3.98,0.71,0.71,-0.70,-0.72,-1.02,3.28,3.27,3.27
117.55,3.94,3.93,0.74,0.73,-0.75,-0.77,-1.06,3.19,3.18,3.20
118.73,3.89,3.89,0.76,0.76,-0.79,-0.82,-1.09,3.10,3.10,3.13
119.92,3.86,3.88,0.80,0.82,-0.84,-0.86,-1.12,3.02,3.03,3.06
121.12,3.87,3.88,0.88,0.89,-0.90,-0.91,-1.15,2.97,2.98,2.99
122.33,3.91,3.88,0.99,0.96,-0.95,-0.96,-1.17,2.96,2.93,2.92
123.55,3.88,3.88,1.03,1.03,-1.01,-1.00,-1.20,2.87,2.87,2.85
124.79,3.86,3.87,1.07,1.08,-1.07,-1.04,-1.22,2.79,2.80,2.79
126.03,3.85,3.84,1.13,1.12,-1.12,-1.09,-1.24,2.73,2.72,2.72
127.29,3.83,3.83,1.17,1.17,-1.18,-1.13,-1.25,2.65,2.65,2.65
128.57,3.81,3.81,1.22,1.22,-1.22,-1.17,-1.27,2.59,2.59,2.59
129.85,3.79,3.79,1.26,1.26,-1.27,-1.21,-1.28,2.52,2.52,2.53
131.15,3.77,3.77,1.31,1.31,-1.31,-1.25,-1.29,2.46,2.46,2.46
132.46,3.75,3.75,1.35,1.34,-1.35,-1.29,-1.30,2.40,2.40,2.40
133.79,3.72,3.72,1.38,1.38,-1.38,-1.33,-1.31,2.34,2.34,2.34
135.12,3.70,3.70,1.42,1.42,-1.42,-1.37,-1.31,2.28,2.28,2.28
136.48,3.68,3.68,1.46,1.46,-1.45,-1.40,-1.32,2.23,2.22,2.22
137.84,3.65,3.65,1.49,1.49,-1.49,-1.44,-1.32,2.16,2.16,2.16
139.22,3.62,3.62,1.52,1.52,-1.52,-1.47,-1.32,2.10,2.10,2.10
140.61,3.59,3.59,1.54,1.54,-1.54,-1.50,-1.32,2.04,2.04,2.05
142.02,3.56,3.56,1.57,1.57,-1.57,-1.53,-1.32,1.99,1.99,1.99
143.44,3.54,3.54,1.60,1.60,-1.60,-1.56,-1.32,1.94,1.94,1.94
144.87,3.51,3.50,1.63,1.62,-1.62,-1.59,-1.32,1.89,1.88,1.88
146.32,3.47,3.47,1.64,1.64,-1.64,-1.62,-1.31,1.83,1.83,1.83
147.78,3.44,3.44,1.66,1.66,-1.67,-1.65,-1.31,1.77,1.78,1.78
149.26,3.42,3.41,1.69,1.69,-1.69,-1.67,-1.31,1.73,1.73,1.73
150.75,3.39,3.39,1.71,1.71,-1.70,-1.70,-1.31,1.69,1.68,1.68
152.26,3.35,3.35,1.72,1.72,-1.72,-1.72,-1.30,1.63,1.63,1.63
153.78,3.32,3.32,1.74,1.74,-1.74,-1.74,-1.30,1.58,1.58,1.58
155.32,3.29,3.29,1.75,1.75,-1.75,-1.76,-1.30,1.53,1.53,1.54
156.88,3.26,3.26,1.77,1.77,-1.77,-1.78,-1.30,1.49,1.49,1.49
158.44,3.23,3.23,1.78,1.78,-1.79,-1.80,-1.30,1.44,1.44,1.45
160.03,3.20,3.20,1.80,1.80,-1.80,-1.82,-1.30,1.40,1.40,1.40
161.63,3.17,3.17,1.82,1.81,-1.81,-1.83,-1.30,1.36,1.36,1.35
163.24,3.14,3.14,1.83,1.83,-1.83,-1.84,-1.30,1.31,1.31,1.31
164.88,3.11,3.11,1.84,1.84,-1.84,-1.86,-1.30,1.27,1.27,1.27
166.53,3.08,3.08,1.85,1.85,-1.85,-1.87,-1.30,1.23,1.23,1.23
168.19,3.05,3.05,1.86,1.86,-1.86,-1.88,-1.31,1.19,1.19,1.19
169.87,3.02,3.02,1.86,1.86,-1.87,-1.89,-1.31,1.15,1.15,1.15
171.57,2.99,2.99,1.87,1.87,-1.87,-1.89,-1.32,1.12,1.12,1.12
173.29,2.96,2.96,1.88,1.88,-1.87,-1.90,-1.33,1.08,1.08,1.08
175.02,2.93,2.93,1.88,1.88,-1.88,-1.90,-1.34,1.05,1.05,1.05
176.77,2.89,2.89,1.87,1.88,-1.88,-1.91,-1.34,1.01,1.02,1.01
178.54,2.86,2.86,1.88,1.88,-1.88,-1.91,-1.36,0.98,0.98,0.98
180.32,2.82,2.82,1.87,1.87,-1.87,-1.91,-1.37,0.95,0.95,0.95
182.13,2.79,2.79,1.87,1.87,-1.87,-1.91,-1.38,0.92,0.92,0.92
183.95,2.75,2.75,1.86,1.86,-1.86,-1.91,-1.39,0.88,0.89,0.89
185.79,2.72,2.72,1.86,1.86,-1.86,-1.91,-1.41,0.86,0.86,0.86
187.65,2.69,2.68,1.86,1.85,-1.85,-1.90,-1.43,0.84,0.83,0.83
189.52,2.65,2.65,1.84,1.85,-1.84,-1.90,-1.44,0.81,0.81,0.80
191.42,2.61,2.61,1.83,1.84,-1.83,-1.89,-1.46,0.78,0.78,0.78
193.33,2.58,2.57,1.83,1.82,-1.82,-1.89,-1.48,0.75,0.75,0.75
195.27,2.54,2.54,1.81,1.81,-1.81,-1.88,-1.50,0.72,0.72,0.73
197.22,2.50,2.50,1.80,1.80,-1.80,-1.87,-1.52,0.69,0.70,0.70
199.19,2.47,2.47,1.79,1.79,-1.79,-1.86,-1.54,0.67,0.67,0.68
201.18,2.44,2.44,1.78,1.78,-1.78,-1.85,-1.56,0.66,0.66,0.66
203.19,2.41,2.41,1.78,1.78,-1.77,-1.84,-1.58,0.64,0.64,0.63
205.23,2.38,2.38,1.77,1.76,-1.76,-1.82,-1.61,0.62,0.62,0.61
207.28,2.34,2.34,1.75,1.75,-1.75,-1.81,-1.63,0.59,0.59,0.59
209.35,2.31,2.31,1.74,1.74,-1.74,-1.79,-1.65,0.57,0.57,0.57
211.44,2.27,2.27,1.72,1.72,-1.72,-1.78,-1.67,0.55,0.55,0.55
213.56,2.24,2.24,1.71,1.70,-1.70,-1.76,-1.69,0.54,0.53,0.53
215.69,2.20,2.20,1.68,1.68,-1.68,-1.74,-1.71,0.52,0.51,0.51
217.85,2.16,2.16,1.66,1.66,-1.66,-1.73,-1.73,0.50,0.50,0.50
220.03,2.12,2.12,1.64,1.64,-1.64,-1.71,-1.75,0.48,0.48,0.48
222.23,2.09,2.08,1.63,1.62,-1.62,-1.69,-1.77,0.47,0.46,0.46
224.45,2.05,2.05,1.60,1.60,-1.60,-1.67,-1.79,0.45,0.45,0.45
226.70,2.01,2.01,1.58,1.58,-1.58,-1.65,-1.80,0.43,0.43,0.43
228.96,1.98,1.98,1.56,1.56,-1.57,-1.62,-1.81,0.41,0.41,0.42
231.25,1.95,1.95,1.55,1.55,-1.55,-1.60,-1.82,0.40,0.40,0.40
233.57,1.92,1.92,1.53,1.53,-1.54,-1.58,-1.83,0.38,0.38,0.39
235.90,1.89,1.89,1.52,1.52,-1.52,-1.55,-1.84,0.37,0.37,0.37
238.26,1.86,1.86,1.51,1.51,-1.51,-1.53,-1.84,0.35,0.35,0.35
240.64,1.84,1.84,1.50,1.50,-1.49,-1.50,-1.84,0.35,0.34,0.34
243.05,1.81,1.81,1.48,1.48,-1.48,-1.48,-1.84,0.33,0.33,0.33
245.48,1.78,1.78,1.46,1.46,-1.46,-1.45,-1.83,0.32,0.32,0.32
247.93,1.75,1.75,1.44,1.44,-1.44,-1.43,-1.82,0.31,0.31,0.30
250.41,1.71,1.71,1.42,1.42,-1.42,-1.40,-1.81,0.29,0.29,0.29
252.92,1.68,1.68,1.40,1.39,-1.40,-1.37,-1.79,0.28,0.28,0.28
255.45,1.64,1.64,1.37,1.37,-1.37,-1.34,-1.77,0.27,0.27,0.27
258.00,1.61,1.61,1.35,1.34,-1.34,-1.32,-1.75,0.27,0.27,0.26
260.58,1.57,1.57,1.32,1.32,-1.31,-1.29,-1.73,0.25,0.25,0.25
263.19,1.53,1.53,1.29,1.29,-1.29,-1.26,-1.70,0.24,0.24,0.24
265.82,1.49,1.49,1.25,1.25,-1.26,-1.23,-1.67,0.23,0.23,0.24
268.48,1.45,1.45,1.22,1.23,-1.23,-1.20,-1.63,0.22,0.22,0.23
271.16,1.42,1.42,1.20,1.20,-1.20,-1.17,-1.60,0.22,0.22,0.22
273.87,1.39,1.39,1.18,1.18,-1.17,-1.14,-1.56,0.22,0.22,0.21
276.61,1.36,1.35,1.16,1.15,-1.14,-1.11,-1.51,0.22,0.21,0.20
279.38,1.31,1.31,1.11,1.12,-1.11,-1.08,-1.47,0.20,0.20,0.20
282.17,1.27,1.27,1.08,1.08,-1.08,-1.05,-1.42,0.19,0.19,0.19
284.99,1.23,1.23,1.04,1.04,-1.05,-1.02,-1.38,0.18,0.18,0.19
287.84,1.20,1.20,1.00,1.01,-1.02,-0.98,-1.33,0.18,0.18,0.19
290.72,1.17,1.17,0.98,0.98,-0.99,-0.95,-1.28,0.18,0.18,0.19
293.63,1.14,1.15,0.96,0.96,-0.96,-0.92,-1.22,0.18,0.19,0.18
296.57,1.12,1.12,0.93,0.94,-0.92,-0.89,-1.17,0.20,0.20,0.19
299.53,1.11,1.09,0.92,0.90,-0.89,-0.85,-1.12,0.22,0.20,0.19
302.53,1.05,1.05,0.86,0.86,-0.86,-0.82,-1.06,0.19,0.19,0.19
305.55,1.00,1.01,0.81,0.82,-0.82,-0.79,-1.00,0.18,0.18,0.19
308.61,0.96,0.96,0.77,0.78,-0.79,-0.76,-0.95,0.17,0.18,0.18
311.69,0.93,0.93,0.74,0.74,-0.75,-0.72,-0.89,0.18,0.18,0.19
314.81,0.90,0.90,0.71,0.71,-0.71,-0.69,-0.83,0.19,0.19,0.18
317.96,0.86,0.86,0.67,0.67,-0.67,-0.65,-0.78,0.19,0.19,0.19
321.14,0.83,0.83,0.64,0.64,-0.63,-0.62,-0.72,0.20,0.19,0.19
324.35,0.79,0.79,0.60,0.60,-0.60,-0.59,-0.66,0.19,0.19,0.19
327.59,0.76,0.76,0.56,0.56,-0.56,-0.55,-0.61,0.20,0.19,0.20
330.87,0.72,0.72,0.53,0.52,-0.53,-0.52,-0.55,0.19,0.19,0.19
334.18,0.68,0.68,0.48,0.49,-0.49,-0.48,-0.49,0.19,0.20,0.20
337.52,0.65,0.65,0.45,0.45,-0.45,-0.45,-0.43,0.20,0.20,0.20
340.90,0.62,0.62,0.42,0.41,-0.41,-0.41,-0.38,0.21,0.20,0.20
344.30,0.58,0.58,0.37,0.38,-0.37,-0.38,-0.32,0.21,0.21,0.21
347.75,0.55,0.55,0.33,0.33,-0.34,-0.34,-0.26,0.21,0.21,0.22
351.23,0.51,0.51,0.30,0.29,-0.30,-0.31,-0.20,0.21,0.22,0.21
354.74,0.48,0.48,0.25,0.26,-0.26,-0.27,-0.15,0.22,0.23,0.23
358.28,0.46,0.45,0.23,0.22,-0.22,-0.23,-0.09,0.24,0.23,0.23
361.87,0.42,0.42,0.19,0.18,-0.18,-0.20,-0.03,0.24,0.24,0.23
365.49,0.38,0.38,0.14,0.14,-0.14,-0.16,0.02,0.24,0.24,0.24
369.14,0.34,0.34,0.10,0.10,-0.10,-0.12,0.08,0.24,0.24,0.24
372.83,0.31,0.31,0.05,0.06,-0.07,-0.09,0.14,0.24,0.24,0.26
376.56,0.28,0.28,0.03,0.02,-0.03,-0.05,0.19,0.25,0.25,0.25
380.33,0.25,0.25,-0.01,-0.01,0.01,-0.01,0.25,0.26,0.26,0.26
384.13,0.22,0.22,-0.04,-0.04,0.05,0.02,0.30,0.27,0.27,0.26
387.97,0.19,0.18,-0.08,-0.09,0.09,0.06,0.36,0.28,0.27,0.27
391.85,0.15,0.15,-0.14,-0.13,0.13,0.10,0.41,0.28,0.28,0.28
395.77,0.11,0.12,-0.17,-0.17,0.17,0.14,0.47,0.27,0.28,0.28
399.73,0.09,0.08,-0.20,-0.21,0.20,0.17,0.52,0.29,0.29,0.29
403.72,0.05,0.05,-0.25,-0.24,0.24,0.21,0.58,0.29,0.29,0.30
407.76,0.02,0.02,-0.28,-0.28,0.28,0.25,0.63,0.30,0.30,0.30
411.84,-0.02,-0.02,-0.33,-0.32,0.32,0.29,0.68,0.30,0.31,0.30
415.96,-0.04,-0.05,-0.35,-0.35,0.36,0.33,0.73,0.32,0.31,0.31
420.12,-0.08,-0.08,-0.39,-0.39,0.40,0.37,0.79,0.32,0.32,0.31
424.32,-0.11,-0.11,-0.43,-0.43,0.43,0.41,0.84,0.32,0.32,0.32
428.56,-0.15,-0.15,-0.48,-0.48,0.47,0.45,0.89,0.32,0.32,0.33
432.85,-0.18,-0.18,-0.52,-0.51,0.51,0.49,0.93,0.33,0.33,0.34
437.18,-0.21,-0.21,-0.55,-0.55,0.55,0.53,0.98,0.34,0.34,0.34
441.55,-0.24,-0.24,-0.58,-0.59,0.59,0.57,1.03,0.35,0.35,0.34
445.96,-0.27,-0.27,-0.62,-0.63,0.63,0.61,1.07,0.36,0.36,0.35
450.42,-0.30,-0.30,-0.67,-0.67,0.67,0.65,1.11,0.36,0.36,0.37
454.93,-0.33,-0.33,-0.71,-0.71,0.70,0.69,1.16,0.37,0.38,0.38
459.48,-0.35,-0.35,-0.74,-0.74,0.74,0.73,1.19,0.39,0.39,0.39
464.07,-0.38,-0.38,-0.77,-0.78,0.78,0.77,1.23,0.40,0.40,0.39
468.71,-0.42,-0.42,-0.82,-0.81,0.82,0.81,1.27,0.40,0.40,0.40
473.40,-0.45,-0.45,-0.86,-0.86,0.86,0.85,1.30,0.41,0.41,0.41
478.13,-0.48,-0.48,-0.90,-0.90,0.89,0.89,1.33,0.41,0.41,0.41
482.91,-0.51,-0.51,-0.93,-0.94,0.93,0.93,1.36,0.42,0.42,0.42
487.74,-0.54,-0.54,-0.97,-0.97,0.97,0.97,1.39,0.43,0.43,0.43
492.62,-0.57,-0.57,-1.01,-1.01,1.01,1.01,1.41,0.44,0.44,0.44
497.55,-0.59,-0.59,-1.04,-1.05,1.05,1.05,1.43,0.46,0.45,0.45
502.52,-0.62,-0.62,-1.08,-1.08,1.09,1.10,1.45,0.46,0.47,0.46
507.55,-0.64,-0.64,-1.12,-1.12,1.12,1.14,1.46,0.48,0.48,0.48
512.62,-0.67,-0.67,-1.16,-1.16,1.16,1.18,1.48,0.49,0.49,0.49
517.75,-0.70,-0.70,-1.20,-1.20,1.20,1.22,1.49,0.50,0.50,0.50
522.93,-0.73,-0.73,-1.24,-1.24,1.23,1.26,1.50,0.50,0.50,0.51
528.16,-0.76,-0.76,-1.28,-1.28,1.27,1.30,1.50,0.51,0.51,0.52
533.44,-0.79,-0.79,-1.32,-1.31,1.31,1.34,1.51,0.52,0.52,0.53
538.77,-0.81,-0.81,-1.34,-1.34,1.34,1.38,1.51,0.53,0.53,0.53
544.16,-0.83,-0.83,-1.38,-1.37,1.38,1.42,1.51,0.55,0.55,0.54
549.60,-0.85,-0.85,-1.40,-1.41,1.41,1.46,1.51,0.56,0.56,0.55
555.10,-0.88,-0.88,-1.45,-1.45,1.45,1.50,1.51,0.57,0.57,0.57
560.65,-0.90,-0.90,-1.48,-1.49,1.48,1.54,1.50,0.58,0.58,0.58
