frequency,raw
20.00,-7.86
20.20,-7.79
20.40,-7.72
20.61,-7.65
20.81,-7.57
21.02,-7.50
21.23,-7.43
21.44,-7.35
21.66,-7.28
21.87,-7.20
22.09,-7.13
22.31,-7.05
22.54,-6.97
22.76,-6.89
22.99,-6.81
23.22,-6.73
23.45,-6.65
23.69,-6.58
23.92,-6.50
24.16,-6.42
24.40,-6.35
24.65,-6.28
24.89,-6.21
25.14,-6.13
25.39,-6.06
25.65,-5.98
25.91,-5.90
26.16,-5.83
26.43,-5.76
26.69,-5.69
26.96,-5.62
27.23,-5.55
27.50,-5.48
27.77,-5.41
28.05,-5.34
28.33,-5.27
28.62,-5.20
28.90,-5.13
29.19,-5.06
29.48,-4.99
29.78,-4.92
30.08,-4.85
30.38,-4.79
30.68,-4.73
30.99,-4.66
31.30,-4.60
31.61,-4.53
31.93,-4.47
32.24,-4.41
32.57,-4.35
32.89,-4.29
33.22,-4.24
33.55,-4.19
33.89,-4.15
34.23,-4.10
34.57,-4.07
34.92,-4.03
35.27,-4.00
35.62,-3.96
35.97,-3.93
36.33,-3.92
36.70,-3.90
37.06,-3.89
37.43,-3.87
37.81,-3.86
38.19,-3.84
38.57,-3.82
38.95,-3.80
39.34,-3.79
39.74,-3.77
40.14,-3.75
40.54,-3.74
40.94,-3.72
41.35,-3.70
41.76,-3.67
42.18,-3.64
42.60,-3.61
43.03,-3.59
43.46,-3.55
43.90,-3.52
44.33,-3.49
44.78,-3.46
45.23,-3.42
45.68,-3.39
46.13,-3.36
46.60,-3.33
47.06,-3.30
47.53,-3.27
48.01,-3.24
48.49,-3.22
48.97,-3.20
49.46,-3.18
49.96,-3.15
50.46,-3.13
50.96,-3.10
51.47,-3.07
51.99,-3.04
52.51,-3.01
53.03,-2.98
53.56,-2.94
54.10,-2.90
54.64,-2.87
55.18,-2.84
55.74,-2.82
56.29,-2.79
56.86,-2.75
57.42,-2.72
58.00,-2.70
58.58,-2.68
59.16,-2.66
59.76,-2.64
60.35,-2.62
60.96,-2.59
61.57,-2.59
62.18,-2.58
62.80,-2.56
63.43,-2.55
64.07,-2.55
64.71,-2.54
65.35,-2.53
66.01,-2.53
66.67,-2.54
67.33,-2.55
68.01,-2.56
68.69,-2.58
69.37,-2.61
70.07,-2.63
70.77,-2.63
71.48,-2.65
72.19,-2.68
72.91,-2.68
73.64,-2.66
74.38,-2.64
75.12,-2.63
75.87,-2.60
76.63,-2.56
77.40,-2.53
78.17,-2.49
78.95,-2.45
79.74,-2.41
80.54,-2.37
81.35,-2.34
82.16,-2.31
82.98,-2.28
83.81,-2.23
84.65,-2.19
85.50,-2.16
86.35,-2.12
87.22,-2.06
88.09,-2.01
88.97,-1.96
89.86,-1.92
90.76,-1.88
91.66,-1.83
92.58,-1.79
93.51,-1.75
94.44,-1.71
95.39,-1.66
96.34,-1.63
97.30,-1.60
98.28,-1.56
99.26,-1.53
100.25,-1.50
101.25,-1.46
102.27,-1.45
103.29,-1.43
104.32,-1.41
105.37,-1.38
106.42,-1.38
107.48,-1.36
108.56,-1.33
109.64,-1.33
110.74,-1.32
111.85,-1.29
112.97,-1.29
114.10,-1.29
115.24,-1.29
116.39,-1.29
117.55,-1.29
118.73,-1.29
119.92,-1.28
121.12,-1.27
122.33,-1.27
123.55,-1.28
124.79,-1.29
126.03,-1.29
127.29,-1.30
128.57,-1.32
129.85,-1.34
131.15,-1.38
132.46,-1.41
133.79,-1.45
135.12,-1.46
136.48,-1.50
137.84,-1.51
139.22,-1.48
140.61,-1.46
142.02,-1.46
143.44,-1.43
144.87,-1.42
146.32,-1.42
147.78,-1.42
149.26,-1.42
150.75,-1.42
152.26,-1.42
153.78,-1.45
155.32,-1.46
156.88,-1.46
158.44,-1.48
160.03,-1.51
161.63,-1.51
163.24,-1.53
164.88,-1.56
166.53,-1.58
168.19,-1.62
169.87,-1.64
171.57,-1.64
173.29,-1.64
175.02,-1.64
176.77,-1.60
178.54,-1.59
180.32,-1.58
182.13,-1.57
183.95,-1.58
185.79,-1.59
187.65,-1.59
189.52,-1.63
191.42,-1.64
193.33,-1.67
195.27,-1.68
197.22,-1.68
199.19,-1.68
201.18,-1.68
203.19,-1.66
205.23,-1.64
207.28,-1.64
209.35,-1.64
211.44,-1.64
213.56,-1.64
215.69,-1.64
217.85,-1.64
220.03,-1.64
222.23,-1.64
224.45,-1.64
226.70,-1.64
228.96,-1.64
231.25,-1.64
233.57,-1.64
235.90,-1.64
238.26,-1.64
240.64,-1.64
243.05,-1.64
245.48,-1.64
247.93,-1.64
250.41,-1.64
252.92,-1.64
255.45,-1.64
258.00,-1.64
260.58,-1.64
263.19,-1.64
265.82,-1.64
268.48,-1.63
271.16,-1.60
273.87,-1.59
276.61,-1.59
279.38,-1.59
282.17,-1.56
284.99,-1.55
287.84,-1.51
290.72,-1.48
293.63,-1.44
296.57,-1.41
299.53,-1.37
302.53,-1.30
305.55,-1.21
308.61,-1.15
311.69,-1.07
314.81,-1.02
317.96,-1.00
321.14,-1.00
324.35,-1.03
327.59,-1.08
330.87,-1.15
334.18,-1.21
337.52,-1.28
340.90,-1.34
344.30,-1.39
347.75,-1.43
351.23,-1.45
354.74,-1.49
358.28,-1.51
361.87,-1.51
365.49,-1.54
369.14,-1.55
372.83,-1.55
376.56,-1.55
380.33,-1.55
384.13,-1.55
387.97,-1.55
391.85,-1.55
395.77,-1.55
399.73,-1.55
403.72,-1.55
407.76,-1.55
411.84,-1.55
415.96,-1.55
420.12,-1.55
424.32,-1.55
428.56,-1.55
432.85,-1.55
437.18,-1.55
441.55,-1.55
445.96,-1.55
450.42,-1.55
454.93,-1.55
459.48,-1.53
464.07,-1.49
468.71,-1.42
473.40,-1.35
478.13,-1.28
482.91,-1.25
487.74,-1.29
492.62,-1.34
497.55,-1.39
502.52,-1.41
507.55,-1.42
512.62,-1.40
517.75,-1.35
522.93,-1.27
528.16,-1.18
533.44,-1.06
538.77,-0.89
544.16,-0.73
549.60,-0.51
555.10,-0.32
560.65,-0.14
566.25,-0.09
571.92,-0.24
577.64,-0.47
583.41,-0.71
589.25,-0.93
595.14,-1.04
601.09,-0.97
607.10,-0.87
613.17,-0.76
619.30,-0.63
625.50,-0.54
631.75,-0.46
638.07,-0.40
644.45,-0.38
650.89,-0.38
657.40,-0.42
663.98,-0.48
670.62,-0.55
677.32,-0.67
684.10,-0.78
690.94,-0.90
697.85,-1.00
704.83,-1.12
711.87,-1.22
718.99,-1.28
726.18,-1.34
733.44,-1.41
740.78,-1.44
748.19,-1.46
755.67,-1.46
763.23,-1.44
770.86,-1.41
778.57,-1.38
786.35,-1.36
794.22,-1.30
802.16,-1.25
810.18,-1.19
818.28,-1.15
826.46,-1.08
834.73,-1.01
843.08,-0.91
851.51,-0.84
860.02,-0.77
868.62,-0.71
877.31,-0.66
886.08,-0.63
894.94,-0.60
903.89,-0.57
912.93,-0.53
922.06,-0.47
931.28,-0.42
940.59,-0.36
950.00,-0.30
959.50,-0.22
969.09,-0.16
978.78,-0.11
988.57,-0.05
998.46,-0.01
1008.44,0.01
1018.53,0.02
1028.71,0.01
1039.00,-0.03
1049.39,-0.11
1059.88,-0.23
1070.48,-0.37
1081.19,-0.55
1092.00,-0.75
1102.92,-0.93
1113.95,-1.06
1125.09,-1.18
1136.34,-1.24
1147.70,-1.28
1159.18,-1.32
1170.77,-1.39
1182.48,-1.47
1194.30,-1.61
1206.25,-1.78
1218.31,-1.96
1230.49,-2.15
1242.80,-2.33
1255.22,-2.46
1267.78,-2.50
1280.45,-2.48
1293.26,-2.42
1306.19,-2.38
1319.25,-2.34
1332.45,-2.33
1345.77,-2.33
1359.23,-2.34
1372.82,-2.38
1386.55,-2.41
1400.41,-2.45
1414.42,-2.49
1428.56,-2.53
1442.85,-2.59
1457.28,-2.66
1471.85,-2.75
1486.57,-2.82
1501.43,-2.90
1516.45,-2.97
1531.61,-3.01
1546.93,-3.03
1562.40,-3.03
1578.02,-3.02
1593.80,-2.98
1609.74,-2.93
1625.84,-2.86
1642.10,-2.76
1658.52,-2.65
1675.10,-2.52
1691.85,-2.38
1708.77,-2.26
1725.86,-2.12
1743.12,-1.98
1760.55,-1.83
1778.15,-1.66
1795.94,-1.50
1813.90,-1.31
1832.03,-1.13
1850.36,-0.96
1868.86,-0.79
1887.55,-0.60
1906.42,-0.43
1925.49,-0.25
1944.74,-0.05
1964.19,0.12
1983.83,0.32
2003.67,0.50
2023.71,0.70
2043.94,0.92
2064.38,1.15
2085.03,1.38
2105.88,1.67
2126.94,1.97
2148.20,2.29
2169.69,2.63
2191.38,2.98
2213.30,3.32
2235.43,3.65
2257.78,4.00
2280.36,4.32
2303.17,4.64
2326.20,4.96
2349.46,5.26
2372.95,5.55
2396.68,5.84
2420.65,6.14
2444.86,6.43
2469.31,6.72
2494.00,7.01
2518.94,7.31
2544.13,7.57
2569.57,7.85
2595.27,8.11
2621.22,8.36
2647.43,8.59
2673.90,8.82
2700.64,9.04
2727.65,9.22
2754.93,9.38
2782.48,9.54
2810.30,9.65
2838.40,9.73
2866.79,9.76
2895.46,9.76
2924.41,9.76
2953.65,9.72
2983.19,9.68
3013.02,9.61
3043.15,9.53
3073.58,9.43
3104.32,9.31
3135.36,9.16
3166.72,9.00
3198.38,8.82
3230.37,8.63
3262.67,8.41
3295.30,8.18
3328.25,7.93
3361.53,7.67
3395.15,7.41
3429.10,7.16
3463.39,6.90
3498.03,6.64
3533.01,6.38
3568.34,6.12
3604.02,5.88
3640.06,5.63
3676.46,5.41
3713.22,5.20
3750.36,5.02
3787.86,4.86
3825.74,4.72
3864.00,4.61
3902.64,4.51
3941.66,4.39
3981.08,4.26
4020.89,4.12
4061.10,3.95
4101.71,3.76
4142.73,3.58
4184.15,3.38
4226.00,3.19
4268.26,3.03
4310.94,2.85
4354.05,2.69
4397.59,2.56
4441.56,2.45
4485.98,2.37
4530.84,2.30
4576.15,2.25
4621.91,2.22
4668.13,2.23
4714.81,2.27
4761.96,2.36
4809.58,2.51
4857.67,2.68
4906.25,2.95
4955.31,3.27
5004.87,3.64
5054.91,4.08
5105.46,4.55
5156.52,5.06
5208.08,5.56
5260.16,6.03
5312.77,6.42
5365.89,6.71
5419.55,6.87
5473.75,6.74
5528.49,6.40
5583.77,5.89
5639.61,5.19
5696.00,4.37
5752.96,3.46
5810.49,2.55
5868.60,1.63
5927.28,0.76
5986.56,-0.06
6046.42,-0.80
6106.89,-1.48
6167.96,-2.08
6229.64,-2.64
6291.93,-3.11
6354.85,-3.52
6418.40,-3.89
6482.58,-4.20
6547.41,-4.51
6612.88,-4.82
6679.01,-5.11
6745.80,-5.38
6813.26,-5.64
6881.39,-5.91
6950.21,-6.21
7019.71,-6.54
7089.91,-6.96
7160.81,-7.29
7232.41,-7.53
7304.74,-7.32
7377.79,-6.89
7451.56,-6.29
7526.08,-5.72
7601.34,-5.18
7677.35,-4.72
7754.13,-4.24
7831.67,-3.73
7909.98,-3.18
7989.08,-2.64
8068.98,-2.23
8149.67,-1.90
8231.16,-1.64
8313.47,-1.45
8396.61,-1.30
8480.57,-1.22
8565.38,-1.23
8651.03,-1.33
8737.54,-1.44
8824.92,-1.54
8913.17,-1.59
9002.30,-1.64
9092.32,-1.89
9183.25,-2.38
9275.08,-3.12
9367.83,-4.09
9461.51,-5.24
9556.12,-6.44
9651.68,-7.55
9748.20,-8.47
9845.68,-9.16
9944.14,-9.59
10043.58,-9.76
10144.02,-9.52
10245.46,-9.01
10347.91,-8.21
10451.39,-7.19
10555.91,-6.05
10661.46,-5.06
10768.08,-4.28
10875.76,-4.03
10984.52,-4.41
11094.36,-5.03
11205.31,-5.70
11317.36,-6.29
11430.53,-6.67
11544.84,-6.67
11660.29,-6.29
11776.89,-5.64
11894.66,-4.67
12013.60,-3.47
12133.74,-2.14
12255.08,-0.86
12377.63,0.19
12501.41,0.96
12626.42,1.39
12752.68,1.18
12880.21,0.50
13009.01,-0.53
13139.10,-1.87
13270.49,-3.35
13403.20,-4.83
13537.23,-6.16
13672.60,-7.19
13809.33,-7.88
13947.42,-7.91
14086.90,-7.33
14227.77,-6.52
14370.04,-5.65
14513.74,-4.96
14658.88,-4.53
14805.47,-4.73
14953.52,-5.25
15103.06,-5.89
15254.09,-6.51
15406.63,-6.98
15560.70,-6.70
15716.30,-5.86
15873.47,-4.64
16032.20,-3.20
16192.52,-1.79
16354.45,-0.59
16517.99,0.21
16683.17,0.63
16850.01,0.49
17018.51,0.12
17188.69,-0.38
17360.58,-0.94
17534.18,-1.49
17709.53,-2.02
17886.62,-2.54
18065.49,-3.06
18246.14,-3.55
18428.60,-3.97
18612.89,-4.36
18799.02,-4.73
18987.01,-5.05
19176.88,-5.40
19368.65,-5.76
19562.33,-6.08
19757.96,-6.38
19955.54,-6.58
