frequency,raw,smoothed,error,error_smoothed,equalization,parametric_eq,fixed_band_eq,equalized_raw,equalized_smoothed,target
20.00,7.72,7.72,4.30,4.30,-4.30,-3.82,-1.05,3.42,3.42,3.42
20.20,7.66,7.66,4.21,4.21,-4.21,-3.78,-1.08,3.45,3.45,3.45
20.40,7.60,7.60,4.12,4.12,-4.12,-3.75,-1.11,3.48,3.48,3.48
20.61,7.54,7.54,4.04,4.03,-4.03,-3.71,-1.15,3.51,3.51,3.50
20.81,7.47,7.47,3.94,3.94,-3.94,-3.67,-1.18,3.53,3.53,3.53
21.02,7.41,7.41,3.85,3.86,-3.86,-3.63,-1.22,3.55,3.55,3.56
21.23,7.35,7.35,3.78,3.78,-3.79,-3.59,-1.26,3.56,3.56,3.57
21.44,7.29,7.29,3.71,3.71,-3.71,-3.55,-1.30,3.58,3.58,3.58
21.66,7.23,7.23,3.64,3.64,-3.64,-3.51,-1.34,3.59,3.58,3.59
21.87,7.17,7.17,3.58,3.58,-3.58,-3.47,-1.38,3.59,3.59,3.59
22.09,7.11,7.11,3.51,3.52,-3.52,-3.43,-1.42,3.59,3.59,3.60
22.31,7.06,7.06,3.46,3.46,-3.46,-3.39,-1.46,3.60,3.60,3.60
22.54,7.00,7.00,3.41,3.40,-3.40,-3.35,-1.51,3.60,3.60,3.59
22.76,6.94,6.94,3.34,3.35,-3.35,-3.31,-1.55,3.59,3.59,3.59
22.99,6.88,6.88,3.30,3.29,-3.29,-3.27,-1.60,3.59,3.59,3.58
23.22,6.82,6.82,3.24,3.24,-3.24,-3.22,-1.65,3.58,3.58,3.58
23.45,6.77,6.77,3.19,3.19,-3.19,-3.18,-1.70,3.58,3.58,3.58
23.69,6.72,6.71,3.14,3.13,-3.13,-3.13,-1.75,3.59,3.58,3.58
23.92,6.66,6.66,3.08,3.08,-3.08,-3.09,-1.80,3.58,3.58,3.58
24.16,6.61,6.61,3.02,3.02,-3.03,-3.05,-1.85,3.58,3.58,3.59
24.40,6.56,6.56,2.97,2.97,-2.97,-3.00,-1.90,3.59,3.58,3.59
24.65,6.50,6.50,2.92,2.92,-2.92,-2.96,-1.95,3.58,3.58,3.58
24.89,6.45,6.45,2.87,2.87,-2.87,-2.91,-2.01,3.58,3.58,3.58
25.14,6.39,6.39,2.81,2.81,-2.81,-2.86,-2.06,3.57,3.57,3.58
25.39,6.33,6.33,2.75,2.76,-2.76,-2.82,-2.11,3.57,3.57,3.57
25.65,6.28,6.28,2.71,2.71,-2.71,-2.77,-2.17,3.57,3.57,3.57
25.91,6.22,6.22,2.66,2.65,-2.65,-2.72,-2.22,3.57,3.57,3.56
26.16,6.16,6.16,2.60,2.60,-2.59,-2.67,-2.27,3.57,3.57,3.56
26.43,6.10,6.10,2.54,2.54,-2.54,-2.63,-2.32,3.56,3.56,3.56
26.69,6.04,6.04,2.48,2.48,-2.48,-2.58,-2.37,3.56,3.56,3.56
26.96,5.98,5.98,2.42,2.42,-2.43,-2.53,-2.42,3.55,3.55,3.56
27.23,5.92,5.92,2.36,2.37,-2.37,-2.48,-2.47,3.55,3.55,3.56
27.50,5.87,5.87,2.31,2.32,-2.32,-2.43,-2.51,3.55,3.54,3.56
27.77,5.82,5.82,2.27,2.27,-2.27,-2.38,-2.55,3.54,3.54,3.54
28.05,5.77,5.77,2.23,2.23,-2.23,-2.33,-2.59,3.54,3.54,3.54
28.33,5.72,5.72,2.19,2.18,-2.18,-2.28,-2.62,3.54,3.54,3.53
28.62,5.67,5.67,2.14,2.14,-2.13,-2.22,-2.66,3.54,3.54,3.53
28.90,5.61,5.61,2.08,2.09,-2.08,-2.17,-2.68,3.53,3.53,3.53
29.19,5.56,5.56,2.04,2.03,-2.03,-2.12,-2.71,3.53,3.52,3.52
29.48,5.50,5.50,1.97,1.98,-1.98,-2.07,-2.73,3.52,3.52,3.52
29.78,5.44,5.44,1.93,1.93,-1.93,-2.01,-2.74,3.51,3.51,3.51
30.08,5.38,5.38,1.87,1.87,-1.88,-1.96,-2.75,3.50,3.50,3.51
30.38,5.33,5.33,1.83,1.83,-1.83,-1.91,-2.75,3.50,3.50,3.50
30.68,5.28,5.28,1.78,1.78,-1.78,-1.85,-2.75,3.50,3.49,3.50
30.99,5.22,5.22,1.74,1.74,-1.73,-1.80,-2.74,3.49,3.49,3.48
31.30,5.17,5.17,1.69,1.69,-1.69,-1.74,-2.73,3.48,3.48,3.48
31.61,5.12,5.12,1.64,1.64,-1.64,-1.69,-2.71,3.48,3.48,3.48
31.93,5.06,5.06,1.59,1.59,-1.59,-1.63,-2.68,3.47,3.47,3.47
32.24,5.01,5.01,1.55,1.55,-1.55,-1.58,-2.65,3.46,3.46,3.46
32.57,4.95,4.95,1.50,1.50,-1.50,-1.52,-2.61,3.45,3.45,3.45
32.89,4.90,4.90,1.45,1.45,-1.45,-1.47,-2.57,3.45,3.45,3.45
33.22,4.85,4.85,1.41,1.40,-1.40,-1.41,-2.52,3.44,3.44,3.44
33.55,4.79,4.79,1.35,1.36,-1.36,-1.35,-2.47,3.43,3.43,3.43
33.89,4.73,4.73,1.31,1.31,-1.31,-1.30,-2.41,3.42,3.42,3.42
34.23,4.67,4.67,1.25,1.25,-1.26,-1.24,-2.35,3.41,3.41,3.42
34.57,4.61,4.61,1.20,1.20,-1.20,-1.18,-2.28,3.41,3.41,3.41
34.92,4.55,4.55,1.16,1.15,-1.15,-1.13,-2.21,3.40,3.40,3.39
35.27,4.48,4.48,1.09,1.10,-1.09,-1.07,-2.14,3.39,3.39,3.39
35.62,4.41,4.41,1.03,1.03,-1.03,-1.01,-2.06,3.38,3.38,3.38
35.97,4.34,4.34,0.98,0.97,-0.97,-0.95,-1.98,3.37,3.37,3.36
36.33,4.26,4.26,0.90,0.91,-0.91,-0.89,-1.90,3.35,3.35,3.36
36.70,4.19,4.19,0.85,0.84,-0.84,-0.84,-1.81,3.35,3.34,3.34
37.06,4.11,4.11,0.78,0.78,-0.78,-0.78,-1.72,3.33,3.33,3.33
37.43,4.04,4.04,0.71,0.72,-0.72,-0.72,-1.63,3.32,3.32,3.33
37.81,3.97,3.97,0.66,0.66,-0.66,-0.66,-1.54,3.31,3.31,3.31
38.19,3.90,3.90,0.60,0.60,-0.60,-0.60,-1.45,3.30,3.30,3.30
38.57,3.83,3.83,0.54,0.54,-0.54,-0.54,-1.36,3.29,3.29,3.29
38.95,3.76,3.76,0.48,0.49,-0.48,-0.48,-1.26,3.28,3.28,3.28
39.34,3.70,3.69,0.44,0.43,-0.43,-0.43,-1.17,3.27,3.27,3.26
39.74,3.63,3.63,0.38,0.38,-0.38,-0.37,-1.07,3.25,3.25,3.25
40.14,3.56,3.56,0.32,0.32,-0.33,-0.31,-0.98,3.23,3.24,3.24
40.54,3.50,3.50,0.27,0.27,-0.28,-0.25,-0.88,3.22,3.22,3.23
40.94,3.44,3.44,0.22,0.22,-0.23,-0.19,-0.78,3.21,3.21,3.22
41.35,3.39,3.39,0.18,0.18,-0.19,-0.13,-0.69,3.20,3.20,3.20
41.76,3.34,3.34,0.14,0.14,-0.14,-0.07,-0.59,3.20,3.20,3.20
42.18,3.29,3.29,0.10,0.10,-0.09,-0.02,-0.49,3.20,3.20,3.19
42.60,3.24,3.23,0.06,0.05,-0.04,0.04,-0.39,3.20,3.19,3.18
43.03,3.17,3.17,0.00,0.00,0.01,0.10,-0.30,3.18,3.18,3.17
43.46,3.09,3.09,-0.06,-0.06,0.07,0.16,-0.20,3.16,3.16,3.15
43.90,3.00,3.00,-0.12,-0.13,0.13,0.21,-0.10,3.13,3.12,3.12
44.33,2.90,2.91,-0.21,-0.20,0.19,0.27,-0.00,3.09,3.10,3.11
44.78,2.83,2.83,-0.26,-0.26,0.24,0.33,0.10,3.07,3.07,3.09
45.23,2.76,2.76,-0.31,-0.31,0.30,0.38,0.19,3.06,3.06,3.07
45.68,2.70,2.70,-0.35,-0.35,0.35,0.44,0.29,3.05,3.05,3.05
46.13,2.64,2.64,-0.39,-0.40,0.40,0.49,0.39,3.04,3.03,3.03
46.60,2.58,2.58,-0.44,-0.44,0.44,0.55,0.49,3.02,3.02,3.02
47.06,2.52,2.52,-0.48,-0.48,0.48,0.60,0.59,3.00,3.00,3.00
47.53,2.47,2.47,-0.51,-0.52,0.52,0.66,0.68,2.99,2.99,2.98
48.01,2.42,2.41,-0.55,-0.55,0.56,0.71,0.78,2.98,2.97,2.97
48.49,2.35,2.35,-0.59,-0.59,0.60,0.76,0.88,2.95,2.95,2.94
48.97,2.28,2.27,-0.63,-0.64,0.64,0.81,0.97,2.92,2.92,2.91
49.46,2.19,2.19,-0.69,-0.69,0.69,0.86,1.07,2.88,2.88,2.88
49.96,2.11,2.12,-0.74,-0.74,0.73,0.91,1.16,2.84,2.85,2.85
50.46,2.05,2.05,-0.79,-0.78,0.77,0.96,1.26,2.82,2.82,2.84
50.96,1.99,1.99,-0.82,-0.82,0.82,1.01,1.35,2.81,2.81,2.81
51.47,1.93,1.93,-0.85,-0.86,0.86,1.06,1.44,2.79,2.79,2.78
51.99,1.86,1.86,-0.90,-0.90,0.91,1.11,1.53,2.77,2.77,2.76
52.51,1.79,1.79,-0.95,-0.95,0.95,1.15,1.62,2.74,2.74,2.74
53.03,1.72,1.72,-1.00,-0.99,0.99,1.20,1.71,2.71,2.72,2.72
53.56,1.66,1.66,-1.03,-1.04,1.03,1.24,1.79,2.69,2.69,2.69
54.10,1.59,1.59,-1.08,-1.08,1.08,1.28,1.87,2.67,2.67,2.67
54.64,1.52,1.52,-1.12,-1.12,1.12,1.32,1.95,2.64,2.64,2.64
55.18,1.45,1.45,-1.17,-1.16,1.16,1.36,2.03,2.61,2.61,2.62
55.74,1.39,1.39,-1.20,-1.20,1.20,1.40,2.10,2.59,2.59,2.59
56.29,1.33,1.33,-1.24,-1.24,1.24,1.44,2.16,2.57,2.57,2.57
56.86,1.27,1.26,-1.27,-1.28,1.28,1.47,2.22,2.54,2.54,2.54
57.42,1.20,1.20,-1.32,-1.32,1.31,1.51,2.28,2.51,2.51,2.51
58.00,1.13,1.14,-1.37,-1.35,1.35,1.54,2.33,2.48,2.49,2.49
58.58,1.09,1.09,-1.39,-1.38,1.39,1.57,2.38,2.48,2.48,2.47
59.16,1.05,1.04,-1.41,-1.41,1.43,1.60,2.42,2.48,2.47,2.45
59.76,0.98,0.98,-1.45,-1.45,1.47,1.63,2.45,2.45,2.45,2.43
60.35,0.90,0.90,-1.50,-1.51,1.51,1.66,2.48,2.41,2.41,2.40
60.96,0.81,0.81,-1.57,-1.56,1.55,1.68,2.50,2.36,2.37,2.38
61.57,0.73,0.73,-1.61,-1.60,1.59,1.70,2.51,2.32,2.33,2.34
62.18,0.67,0.66,-1.63,-1.65,1.64,1.72,2.51,2.30,2.30,2.30
62.80,0.59,0.59,-1.69,-1.68,1.68,1.74,2.51,2.27,2.27,2.28
63.43,0.53,0.53,-1.71,-1.71,1.72,1.76,2.50,2.25,2.25,2.24
64.07,0.47,0.47,-1.75,-1.75,1.76,1.77,2.48,2.23,2.22,2.22
64.71,0.41,0.41,-1.78,-1.78,1.79,1.78,2.46,2.20,2.20,2.19
65.35,0.34,0.34,-1.82,-1.82,1.82,1.79,2.43,2.16,2.16,2.16
66.01,0.27,0.27,-1.86,-1.86,1.86,1.80,2.39,2.12,2.13,2.13
66.67,0.21,0.21,-1.90,-1.89,1.88,1.80,2.35,2.09,2.10,2.11
67.33,0.16,0.16,-1.92,-1.92,1.91,1.81,2.30,2.07,2.07,2.08
68.01,0.11,0.11,-1.94,-1.94,1.94,1.81,2.24,2.05,2.04,2.05
68.69,0.06,0.06,-1.95,-1.95,1.96,1.80,2.18,2.02,2.02,2.01
69.37,0.01,0.01,-1.97,-1.97,1.98,1.80,2.11,1.99,1.99,1.98
70.07,-0.03,-0.04,-1.98,-1.99,2.00,1.79,2.04,1.96,1.96,1.95
70.77,-0.09,-0.09,-2.02,-2.01,2.01,1.78,1.96,1.92,1.92,1.93
71.48,-0.14,-0.13,-2.03,-2.03,2.02,1.77,1.88,1.88,1.89,1.89
72.19,-0.18,-0.18,-2.04,-2.03,2.03,1.75,1.80,1.85,1.85,1.86
72.91,-0.20,-0.21,-2.02,-2.03,2.03,1.73,1.71,1.83,1.82,1.82
73.64,-0.25,-0.24,-2.03,-2.03,2.03,1.71,1.63,1.78,1.79,1.78
74.38,-0.27,-0.27,-2.03,-2.02,2.02,1.69,1.53,1.75,1.76,1.75
75.12,-0.28,-0.30,-2.00,-2.02,2.01,1.66,1.44,1.73,1.72,1.72
75.87,-0.32,-0.31,-2.01,-2.00,2.00,1.63,1.34,1.68,1.69,1.69
76.63,-0.33,-0.32,-1.99,-1.97,1.98,1.59,1.25,1.65,1.66,1.66
77.40,-0.31,-0.33,-1.94,-1.95,1.95,1.56,1.15,1.64,1.62,1.63
78.17,-0.33,-0.33,-1.92,-1.92,1.92,1.52,1.05,1.59,1.59,1.58
78.95,-0.34,-0.33,-1.90,-1.88,1.88,1.47,0.95,1.54,1.56,1.56
79.74,-0.31,-0.32,-1.84,-1.84,1.84,1.42,0.84,1.53,1.52,1.53
80.54,-0.29,-0.30,-1.79,-1.79,1.79,1.37,0.74,1.50,1.50,1.49
81.35,-0.27,-0.28,-1.73,-1.74,1.74,1.32,0.64,1.47,1.46,1.46
82.16,-0.26,-0.25,-1.68,-1.67,1.68,1.26,0.53,1.42,1.43,1.42
82.98,-0.22,-0.22,-1.62,-1.61,1.61,1.20,0.43,1.39,1.39,1.40
83.81,-0.16,-0.19,-1.51,-1.54,1.54,1.13,0.32,1.38,1.35,1.35
84.65,-0.16,-0.14,-1.47,-1.46,1.46,1.06,0.22,1.30,1.31,1.31
85.50,-0.11,-0.09,-1.39,-1.37,1.37,0.99,0.11,1.26,1.28,1.28
86.35,-0.02,-0.04,-1.27,-1.28,1.28,0.91,0.01,1.25,1.24,1.24
87.22,0.04,0.03,-1.17,-1.18,1.18,0.83,-0.10,1.21,1.21,1.20
88.09,0.09,0.11,-1.08,-1.06,1.07,0.75,-0.20,1.16,1.18,1.16
88.97,0.17,0.18,-0.96,-0.95,0.96,0.66,-0.31,1.13,1.14,1.13
89.86,0.28,0.25,-0.81,-0.83,0.84,0.56,-0.42,1.12,1.09,1.09
90.76,0.33,0.33,-0.71,-0.72,0.72,0.46,-0.52,1.05,1.05,1.04
91.66,0.40,0.41,-0.61,-0.59,0.59,0.36,-0.63,0.99,1.00,1.01
92.58,0.49,0.50,-0.46,-0.46,0.45,0.26,-0.74,0.94,0.95,0.95
93.51,0.62,0.60,-0.30,-0.31,0.31,0.15,-0.84,0.93,0.92,0.92
94.44,0.72,0.71,-0.16,-0.17,0.16,0.04,-0.95,0.88,0.87,0.88
95.39,0.80,0.81,-0.03,-0.02,0.01,-0.08,-1.06,0.81,0.82,0.83
96.34,0.91,0.92,0.13,0.14,-0.15,-0.20,-1.16,0.76,0.78,0.78
97.30,1.05,1.04,0.32,0.31,-0.31,-0.33,-1.27,0.74,0.74,0.73
98.28,1.18,1.17,0.49,0.48,-0.47,-0.46,-1.38,0.71,0.70,0.69
99.26,1.29,1.28,0.65,0.64,-0.64,-0.59,-1.48,0.65,0.65,0.64
100.25,1.39,1.39,0.79,0.80,-0.80,-0.72,-1.59,0.59,0.59,0.60
101.25,1.50,1.51,0.95,0.96,-0.97,-0.86,-1.69,0.53,0.54,0.55
102.27,1.64,1.64,1.14,1.14,-1.13,-1.00,-1.79,0.51,0.51,0.50
103.29,1.77,1.76,1.32,1.30,-1.29,-1.15,-1.90,0.47,0.46,0.45
104.32,1.87,1.86,1.46,1.45,-1.45,-1.29,-2.00,0.41,0.40,0.41
105.37,1.95,1.97,1.58,1.60,-1.61,-1.44,-2.10,0.34,0.36,0.36
106.42,2.06,2.08,1.74,1.76,-1.77,-1.59,-2.19,0.29,0.31,0.32
107.48,2.23,2.19,1.96,1.93,-1.92,-1.73,-2.29,0.31,0.27,0.27
108.56,2.30,2.30,2.08,2.08,-2.07,-1.88,-2.38,0.23,0.23,0.22
109.64,2.38,2.39,2.21,2.22,-2.21,-2.03,-2.47,0.17,0.18,0.17
110.74,2.46,2.47,2.34,2.35,-2.36,-2.17,-2.56,0.10,0.11,0.12
111.85,2.57,2.56,2.49,2.49,-2.50,-2.31,-2.64,0.07,0.06,0.08
112.97,2.65,2.64,2.64,2.62,-2.63,-2.45,-2.72,0.02,0.01,0.01
114.10,2.72,2.72,2.75,2.75,-2.76,-2.59,-2.79,-0.04,-0.04,-0.03
115.24,2.78,2.79,2.87,2.88,-2.87,-2.71,-2.86,-0.09,-0.08,-0.09
116.39,2.86,2.86,3.00,3.00,-2.98,-2.84,-2.93,-0.12,-0.12,-0.14
117.55,2.93,2.91,3.13,3.10,-3.08,-2.95,-2.98,-0.15,-0.18,-0.20
118.73,2.94,2.93,3.19,3.18,-3.18,-3.06,-3.04,-0.24,-0.25,-0.25
119.92,2.92,2.95,3.21,3.25,-3.26,-3.15,-3.08,-0.34,-0.31,-0.29
121.12,2.96,2.97,3.31,3.32,-3.34,-3.25,-3.12,-0.38,-0.37,-0.35
122.33,3.03,3.01,3.43,3.40,-3.40,-3.32,-3.15,-0.38,-0.40,-0.40
123.55,3.04,3.03,3.48,3.48,-3.46,-3.39,-3.18,-0.43,-0.43,-0.44
124.79,3.03,3.04,3.52,3.53,-3.52,-3.45,-3.20,-0.49,-0.48,-0.49
126.03,3.02,3.02,3.56,3.56,-3.57,-3.50,-3.22,-0.55,-0.54,-0.54
127.29,3.01,3.01,3.60,3.60,-3.61,-3.53,-3.22,-0.60,-0.60,-0.59
128.57,2.99,2.99,3.64,3.64,-3.64,-3.56,-3.22,-0.65,-0.65,-0.65
129.85,2.96,2.96,3.66,3.66,-3.66,-3.57,-3.21,-0.70,-0.70,-0.70
131.15,2.93,2.93,3.68,3.68,-3.67,-3.58,-3.20,-0.74,-0.74,-0.75
132.46,2.89,2.89,3.68,3.68,-3.68,-3.57,-3.18,-0.79,-0.79,-0.80
133.79,2.84,2.84,3.67,3.68,-3.67,-3.56,-3.16,-0.83,-0.83,-0.83
135.12,2.78,2.78,3.67,3.66,-3.66,-3.54,-3.12,-0.88,-0.88,-0.89
136.48,2.71,2.71,3.63,3.63,-3.64,-3.52,-3.09,-0.93,-0.93,-0.92
137.84,2.63,2.63,3.60,3.61,-3.61,-3.48,-3.05,-0.98,-0.97,-0.97
139.22,2.55,2.55,3.57,3.57,-3.57,-3.44,-3.00,-1.02,-1.02,-1.02
140.61,2.47,2.47,3.53,3.52,-3.52,-3.40,-2.95,-1.05,-1.06,-1.06
142.02,2.38,2.38,3.47,3.47,-3.47,-3.35,-2.90,-1.09,-1.09,-1.09
143.44,2.29,2.29,3.42,3.42,-3.42,-3.30,-2.85,-1.13,-1.13,-1.13
144.87,2.20,2.19,3.37,3.36,-3.36,-3.25,-2.79,-1.16,-1.17,-1.17
146.32,2.09,2.09,3.30,3.30,-3.30,-3.19,-2.73,-1.21,-1.20,-1.21
147.78,1.99,1.99,3.22,3.23,-3.23,-3.13,-2.67,-1.24,-1.24,-1.24
149.26,1.88,1.88,3.15,3.16,-3.16,-3.07,-2.61,-1.28,-1.28,-1.27
150.75,1.77,1.77,3.09,3.09,-3.08,-3.01,-2.54,-1.31,-1.31,-1.32
152.26,1.66,1.65,3.02,3.01,-3.00,-2.95,-2.48,-1.35,-1.35,-1.36
153.78,1.53,1.53,2.92,2.93,-2.93,-2.89,-2.42,-1.40,-1.39,-1.39
155.32,1.41,1.41,2.85,2.85,-2.85,-2.83,-2.35,-1.44,-1.44,-1.44
156.88,1.30,1.29,2.77,2.77,-2.78,-2.77,-2.29,-1.48,-1.48,-1.47
158.44,1.18,1.18,2.69,2.70,-2.70,-2.71,-2.22,-1.52,-1.52,-1.51
160.03,1.07,1.07,2.63,2.63,-2.63,-2.65,-2.16,-1.56,-1.56,-1.56
161.63,0.97,0.96,2.57,2.56,-2.56,-2.59,-2.09,-1.59,-1.60,-1.60
163.24,0.86,0.86,2.50,2.50,-2.49,-2.53,-2.03,-1.63,-1.63,-1.64
164.88,0.76,0.76,2.43,2.43,-2.42,-2.47,-1.97,-1.66,-1.66,-1.67
166.53,0.66,0.65,2.37,2.36,-2.36,-2.41,-1.91,-1.70,-1.70,-1.71
168.19,0.55,0.55,2.30,2.29,-2.29,-2.35,-1.85,-1.75,-1.75,-1.75
169.87,0.44,0.44,2.22,2.23,-2.23,-2.29,-1.79,-1.79,-1.79,-1.78
171.57,0.34,0.34,2.16,2.16,-2.17,-2.23,-1.73,-1.83,-1.83,-1.82
173.29,0.25,0.25,2.11,2.10,-2.11,-2.18,-1.67,-1.86,-1.86,-1.86
175.02,0.16,0.16,2.05,2.05,-2.05,-2.12,-1.62,-1.89,-1.90,-1.89
176.77,0.07,0.07,2.01,2.00,-2.00,-2.06,-1.56,-1.93,-1.93,-1.94
178.54,-0.03,-0.03,1.95,1.95,-1.94,-2.00,-1.51,-1.98,-1.97,-1.98
180.32,-0.12,-0.12,1.89,1.89,-1.89,-1.94,-1.46,-2.01,-2.01,-2.01
182.13,-0.21,-0.21,1.84,1.84,-1.84,-1.89,-1.41,-2.05,-2.05,-2.05
183.95,-0.30,-0.30,1.79,1.79,-1.79,-1.83,-1.36,-2.09,-2.09,-2.09
185.79,-0.38,-0.39,1.74,1.74,-1.74,-1.77,-1.31,-2.12,-2.12,-2.12
187.65,-0.47,-0.47,1.69,1.69,-1.68,-1.71,-1.27,-2.15,-2.15,-2.16
189.52,-0.56,-0.56,1.63,1.63,-1.63,-1.65,-1.22,-2.19,-2.19,-2.19
191.42,-0.64,-0.64,1.58,1.58,-1.58,-1.60,-1.18,-2.22,-2.22,-2.22
193.33,-0.72,-0.72,1.53,1.53,-1.53,-1.54,-1.13,-2.25,-2.25,-2.25
195.27,-0.80,-0.80,1.48,1.48,-1.48,-1.48,-1.09,-2.28,-2.28,-2.28
197.22,-0.87,-0.87,1.43,1.44,-1.44,-1.42,-1.05,-2.31,-2.31,-2.31
199.19,-0.94,-0.94,1.40,1.39,-1.40,-1.36,-1.01,-2.34,-2.34,-2.34
201.18,-1.00,-1.00,1.36,1.36,-1.36,-1.31,-0.97,-2.36,-2.36,-2.36
203.19,-1.06,-1.05,1.31,1.32,-1.33,-1.25,-0.94,-2.39,-2.38,-2.38
205.23,-1.10,-1.11,1.30,1.29,-1.29,-1.19,-0.90,-2.39,-2.40,-2.40
207.28,-1.15,-1.16,1.25,1.26,-1.26,-1.13,-0.86,-2.41,-2.41,-2.41
209.35,-1.21,-1.21,1.22,1.23,-1.22,-1.08,-0.83,-2.43,-2.43,-2.43
211.44,-1.26,-1.26,1.19,1.19,-1.18,-1.02,-0.79,-2.45,-2.44,-2.45
213.56,-1.31,-1.31,1.15,1.15,-1.15,-0.96,-0.76,-2.46,-2.46,-2.46
215.69,-1.36,-1.36,1.10,1.10,-1.10,-0.91,-0.72,-2.46,-2.47,-2.46
217.85,-1.42,-1.42,1.05,1.06,-1.06,-0.85,-0.69,-2.48,-2.47,-2.47
220.03,-1.47,-1.47,1.02,1.01,-1.01,-0.80,-0.66,-2.48,-2.48,-2.49
222.23,-1.53,-1.53,0.97,0.96,-0.95,-0.74,-0.63,-2.49,-2.48,-2.50
224.45,-1.59,-1.59,0.90,0.90,-0.90,-0.69,-0.60,-2.49,-2.49,-2.49
226.70,-1.65,-1.65,0.84,0.84,-0.84,-0.64,-0.57,-2.49,-2.49,-2.49
228.96,-1.72,-1.71,0.77,0.77,-0.78,-0.58,-0.53,-2.50,-2.49,-2.49
231.25,-1.77,-1.77,0.71,0.72,-0.71,-0.53,-0.50,-2.49,-2.48,-2.48
233.57,-1.82,-1.82,0.66,0.66,-0.66,-0.48,-0.47,-2.48,-2.48,-2.48
235.90,-1.87,-1.89,0.61,0.59,-0.60,-0.43,-0.44,-2.47,-2.49,-2.48
238.26,-1.95,-1.94,0.53,0.54,-0.55,-0.38,-0.41,-2.50,-2.49,-2.48
240.64,-2.01,-1.98,0.46,0.49,-0.50,-0.33,-0.38,-2.52,-2.49,-2.47
243.05,-1.99,-2.01,0.47,0.45,-0.46,-0.28,-0.35,-2.45,-2.47,-2.46
245.48,-2.02,-2.03,0.43,0.42,-0.42,-0.23,-0.32,-2.44,-2.44,-2.45
247.93,-2.05,-2.05,0.38,0.39,-0.37,-0.18,-0.29,-2.42,-2.42,-2.44
250.41,-2.08,-2.08,0.35,0.34,-0.33,-0.13,-0.26,-2.41,-2.41,-2.43
252.92,-2.12,-2.12,0.29,0.29,-0.28,-0.08,-0.23,-2.41,-2.40,-2.41
255.45,-2.16,-2.16,0.23,0.23,-0.23,-0.04,-0.20,-2.40,-2.39,-2.39
258.00,-2.20,-2.20,0.17,0.17,-0.18,0.01,-0.17,-2.38,-2.38,-2.38
260.58,-2.24,-2.24,0.12,0.12,-0.12,0.06,-0.14,-2.36,-2.36,-2.36
263.19,-2.28,-2.28,0.06,0.06,-0.06,0.10,-0.11,-2.34,-2.34,-2.34
265.82,-2.33,-2.33,-0.01,-0.01,0.01,0.15,-0.08,-2.32,-2.32,-2.33
268.48,-2.37,-2.37,-0.07,-0.07,0.07,0.19,-0.04,-2.30,-2.30,-2.30
271.16,-2.42,-2.42,-0.14,-0.14,0.14,0.23,-0.01,-2.28,-2.28,-2.28
273.87,-2.46,-2.46,-0.20,-0.20,0.20,0.28,0.02,-2.26,-2.26,-2.26
276.61,-2.51,-2.51,-0.27,-0.27,0.27,0.32,0.05,-2.24,-2.24,-2.24
279.38,-2.56,-2.56,-0.34,-0.34,0.34,0.37,0.09,-2.22,-2.22,-2.22
282.17,-2.61,-2.61,-0.40,-0.40,0.40,0.41,0.12,-2.21,-2.21,-2.21
284.99,-2.65,-2.65,-0.47,-0.47,0.47,0.45,0.16,-2.18,-2.19,-2.18
287.84,-2.70,-2.70,-0.53,-0.53,0.53,0.49,0.19,-2.17,-2.17,-2.17
290.72,-2.74,-2.74,-0.60,-0.60,0.60,0.54,0.23,-2.14,-2.15,-2.14
293.63,-2.79,-2.79,-0.66,-0.66,0.66,0.58,0.26,-2.13,-2.13,-2.13
296.57,-2.83,-2.83,-0.73,-0.73,0.73,0.62,0.30,-2.10,-2.10,-2.10
299.53,-2.87,-2.88,-0.79,-0.79,0.79,0.66,0.33,-2.08,-2.08,-2.09
302.53,-2.92,-2.92,-0.85,-0.85,0.86,0.71,0.37,-2.06,-2.06,-2.07
305.55,-2.96,-2.96,-0.93,-0.92,0.92,0.75,0.41,-2.04,-2.04,-2.03
308.61,-3.00,-3.00,-0.98,-0.99,0.99,0.79,0.45,-2.01,-2.01,-2.02
311.69,-3.04,-3.04,-1.05,-1.06,1.05,0.83,0.49,-1.99,-1.99,-1.99
314.81,-3.08,-3.08,-1.13,-1.12,1.12,0.88,0.53,-1.96,-1.96,-1.95
317.96,-3.12,-3.12,-1.18,-1.18,1.18,0.92,0.57,-1.94,-1.94,-1.94
321.14,-3.16,-3.16,-1.24,-1.24,1.24,0.96,0.61,-1.92,-1.92,-1.92
324.35,-3.19,-3.19,-1.29,-1.29,1.30,1.01,0.65,-1.89,-1.90,-1.90
327.59,-3.23,-3.23,-1.35,-1.35,1.35,1.05,0.69,-1.88,-1.88,-1.88
330.87,-3.26,-3.26,-1.40,-1.40,1.39,1.09,0.74,-1.87,-1.87,-1.86
334.18,-3.29,-3.29,-1.45,-1.45,1.44,1.14,0.78,-1.85,-1.85,-1.84
337.52,-3.30,-3.30,-1.48,-1.48,1.48,1.18,0.83,-1.82,-1.82,-1.82
340.90,-3.31,-3.31,-1.51,-1.51,1.52,1.23,0.87,-1.79,-1.79,-1.80
344.30,-3.31,-3.32,-1.53,-1.54,1.55,1.27,0.92,-1.76,-1.76,-1.78
347.75,-3.33,-3.33,-1.57,-1.57,1.58,1.32,0.97,-1.75,-1.75,-1.76
351.23,-3.35,-3.35,-1.61,-1.61,1.61,1.36,1.02,-1.74,-1.74,-1.74
354.74,-3.38,-3.38,-1.65,-1.65,1.63,1.41,1.06,-1.75,-1.74,-1.73
358.28,-3.39,-3.38,-1.68,-1.68,1.65,1.45,1.12,-1.74,-1.73,-1.71
361.87,-3.38,-3.38,-1.69,-1.69,1.67,1.50,1.17,-1.71,-1.71,-1.69
365.49,-3.36,-3.36,-1.69,-1.69,1.69,1.54,1.22,-1.67,-1.67,-1.67
369.14,-3.35,-3.36,-1.69,-1.69,1.72,1.59,1.27,-1.64,-1.64,-1.66
372.83,-3.36,-3.36,-1.71,-1.71,1.74,1.64,1.32,-1.62,-1.62,-1.65
376.56,-3.38,-3.38,-1.74,-1.75,1.76,1.68,1.38,-1.62,-1.62,-1.64
380.33,-3.40,-3.40,-1.79,-1.79,1.79,1.72,1.43,-1.61,-1.62,-1.61
384.13,-3.43,-3.43,-1.83,-1.82,1.82,1.77,1.49,-1.61,-1.61,-1.60
387.97,-3.45,-3.45,-1.86,-1.86,1.85,1.81,1.54,-1.60,-1.60,-1.59
391.85,-3.47,-3.47,-1.89,-1.89,1.88,1.85,1.60,-1.59,-1.59,-1.58
395.77,-3.49,-3.49,-1.93,-1.92,1.92,1.89,1.66,-1.57,-1.57,-1.57
399.73,-3.50,-3.50,-1.94,-1.94,1.95,1.93,1.71,-1.56,-1.56,-1.56
403.72,-3.51,-3.52,-1.96,-1.97,1.97,1.97,1.77,-1.54,-1.55,-1.55
407.76,-3.53,-3.53,-1.99,-1.99,1.99,2.00,1.83,-1.54,-1.54,-1.54
411.84,-3.54,-3.54,-2.02,-2.01,2.01,2.04,1.89,-1.53,-1.53,-1.52
415.96,-3.54,-3.54,-2.03,-2.03,2.03,2.07,1.94,-1.51,-1.52,-1.51
420.12,-3.54,-3.55,-2.04,-2.04,2.04,2.10,2.00,-1.50,-1.50,-1.50
424.32,-3.55,-3.55,-2.06,-2.05,2.06,2.13,2.05,-1.49,-1.49,-1.49
428.56,-3.55,-3.55,-2.07,-2.06,2.07,2.15,2.10,-1.48,-1.48,-1.49
432.85,-3.55,-3.55,-2.07,-2.08,2.08,2.17,2.16,-1.47,-1.47,-1.48
437.18,-3.55,-3.55,-2.08,-2.08,2.09,2.19,2.21,-1.47,-1.46,-1.47
441.55,-3.54,-3.55,-2.09,-2.09,2.09,2.20,2.25,-1.45,-1.45,-1.45
445.96,-3.54,-3.54,-2.10,-2.10,2.10,2.21,2.30,-1.44,-1.44,-1.44
450.42,-3.53,-3.53,-2.10,-2.10,2.10,2.22,2.34,-1.43,-1.43,-1.43
454.93,-3.51,-3.52,-2.10,-2.10,2.10,2.22,2.38,-1.41,-1.41,-1.41
459.48,-3.50,-3.50,-2.10,-2.10,2.10,2.22,2.42,-1.40,-1.40,-1.40
464.07,-3.48,-3.48,-2.10,-2.10,2.10,2.21,2.45,-1.39,-1.38,-1.38
468.71,-3.46,-3.46,-2.10,-2.09,2.09,2.20,2.48,-1.37,-1.37,-1.36
473.40,-3.43,-3.43,-2.08,-2.08,2.08,2.19,2.51,-1.35,-1.35,-1.35
478.13,-3.41,-3.41,-2.08,-2.07,2.07,2.18,2.53,-1.34,-1.34,-1.34
482.91,-3.38,-3.38,-2.06,-2.06,2.06,2.16,2.55,-1.32,-1.32,-1.33
487.74,-3.36,-3.36,-2.05,-2.05,2.05,2.13,2.56,-1.31,-1.30,-1.31
492.62,-3.33,-3.33,-2.04,-2.04,2.04,2.11,2.57,-1.29,-1.29,-1.29
497.55,-3.31,-3.31,-2.03,-2.03,2.03,2.08,2.57,-1.28,-1.28,-1.28
