frequency,raw,error,smoothed,error_smoothed,equalization,parametric_eq,equalized_raw,equalized_smoothed,target
20.00,-10.39,-13.18,-10.39,-13.18,6.00,2.73,-4.39,-4.39,2.79
20.20,-10.31,-13.11,-10.31,-13.11,6.00,2.81,-4.31,-4.31,2.80
20.40,-10.24,-13.05,-10.24,-13.05,6.00,2.89,-4.24,-4.24,2.81
20.61,-10.16,-12.98,-10.16,-12.98,6.00,2.97,-4.16,-4.16,2.82
20.81,-10.09,-12.92,-10.09,-12.92,6.00,3.06,-4.09,-4.09,2.83
21.02,-10.01,-12.85,-10.01,-12.85,6.00,3.15,-4.01,-4.01,2.84
21.23,-9.94,-12.79,-9.93,-12.78,6.00,3.24,-3.94,-3.93,2.85
21.44,-9.86,-12.72,-9.86,-12.72,6.00,3.33,-3.86,-3.86,2.86
21.66,-9.78,-12.65,-9.78,-12.65,6.00,3.42,-3.78,-3.78,2.87
21.87,-9.70,-12.58,-9.70,-12.58,6.00,3.52,-3.70,-3.70,2.88
22.09,-9.63,-12.52,-9.62,-12.51,6.00,3.62,-3.63,-3.62,2.89
22.31,-9.55,-12.45,-9.54,-12.45,6.00,3.73,-3.55,-3.54,2.90
22.54,-9.46,-12.38,-9.47,-12.38,6.00,3.83,-3.46,-3.47,2.92
22.76,-9.38,-12.31,-9.38,-12.31,6.00,3.94,-3.38,-3.38,2.93
22.99,-9.30,-12.24,-9.30,-12.24,6.00,4.05,-3.30,-3.30,2.94
23.22,-9.22,-12.17,-9.22,-12.17,6.00,4.17,-3.22,-3.22,2.95
23.45,-9.14,-12.10,-9.14,-12.10,6.00,4.28,-3.14,-3.14,2.96
23.69,-9.07,-12.04,-9.06,-12.04,6.00,4.40,-3.07,-3.06,2.97
23.92,-8.99,-11.97,-8.98,-11.97,6.00,4.52,-2.99,-2.98,2.98
24.16,-8.91,-11.90,-8.91,-11.90,6.00,4.65,-2.91,-2.91,2.99
24.40,-8.83,-11.83,-8.83,-11.83,6.00,4.77,-2.83,-2.83,3.01
24.65,-8.74,-11.76,-8.75,-11.76,6.00,4.90,-2.74,-2.75,3.02
24.89,-8.66,-11.68,-8.67,-11.69,6.00,5.03,-2.66,-2.67,3.03
25.14,-8.58,-11.62,-8.59,-11.62,6.00,5.16,-2.58,-2.59,3.04
25.39,-8.51,-11.56,-8.51,-11.55,6.00,5.29,-2.51,-2.51,3.05
25.65,-8.43,-11.49,-8.43,-11.48,6.00,5.43,-2.43,-2.43,3.06
25.91,-8.35,-11.42,-8.35,-11.41,6.00,5.56,-2.35,-2.35,3.07
26.16,-8.27,-11.35,-8.26,-11.34,6.00,5.69,-2.27,-2.26,3.08
26.43,-8.19,-11.28,-8.18,-11.27,6.00,5.83,-2.19,-2.18,3.09
26.69,-8.10,-11.20,-8.10,-11.20,6.00,5.96,-2.10,-2.10,3.10
26.96,-8.02,-11.13,-8.02,-11.13,6.00,6.09,-2.02,-2.02,3.11
27.23,-7.94,-11.06,-7.94,-11.06,6.00,6.22,-1.94,-1.94,3.12
27.50,-7.86,-10.99,-7.86,-10.99,6.00,6.34,-1.86,-1.86,3.13
27.77,-7.78,-10.92,-7.79,-10.92,6.00,6.46,-1.78,-1.79,3.14
28.05,-7.70,-10.85,-7.70,-10.85,6.00,6.58,-1.70,-1.70,3.15
28.33,-7.62,-10.78,-7.62,-10.78,6.00,6.70,-1.62,-1.62,3.16
28.62,-7.54,-10.71,-7.54,-10.71,6.00,6.80,-1.54,-1.54,3.17
28.90,-7.46,-10.64,-7.46,-10.63,6.00,6.90,-1.46,-1.46,3.18
29.19,-7.38,-10.57,-7.37,-10.56,6.00,7.00,-1.38,-1.37,3.19
29.48,-7.29,-10.49,-7.29,-10.49,6.00,7.08,-1.29,-1.29,3.20
29.78,-7.21,-10.42,-7.20,-10.41,6.00,7.16,-1.21,-1.20,3.21
30.08,-7.13,-10.36,-7.11,-10.33,6.00,7.23,-1.13,-1.11,3.22
30.38,-7.03,-10.27,-7.03,-10.26,6.00,7.29,-1.03,-1.03,3.23
30.68,-6.94,-10.18,-6.94,-10.18,6.00,7.34,-0.94,-0.94,3.24
30.99,-6.84,-10.10,-6.85,-10.10,6.00,7.38,-0.84,-0.85,3.25
31.30,-6.76,-10.03,-6.76,-10.03,6.00,7.40,-0.76,-0.76,3.26
31.61,-6.67,-9.95,-6.68,-9.95,6.00,7.42,-0.67,-0.68,3.28
31.93,-6.58,-9.87,-6.59,-9.87,6.00,7.43,-0.58,-0.59,3.28
32.24,-6.50,-9.79,-6.51,-9.80,6.00,7.43,-0.50,-0.51,3.29
32.57,-6.42,-9.72,-6.43,-9.73,6.00,7.42,-0.42,-0.43,3.30
32.89,-6.35,-9.66,-6.34,-9.66,6.00,7.39,-0.35,-0.34,3.31
33.22,-6.27,-9.59,-6.27,-9.59,6.00,7.36,-0.27,-0.27,3.32
33.55,-6.19,-9.52,-6.19,-9.52,6.00,7.33,-0.19,-0.19,3.33
33.89,-6.12,-9.46,-6.12,-9.45,6.00,7.28,-0.12,-0.12,3.34
34.23,-6.04,-9.39,-6.04,-9.39,6.00,7.23,-0.04,-0.04,3.35
34.57,-5.98,-9.33,-5.98,-9.33,6.00,7.17,0.02,0.02,3.35
34.92,-5.91,-9.27,-5.91,-9.27,6.00,7.11,0.09,0.09,3.36
35.27,-5.84,-9.21,-5.84,-9.21,6.00,7.04,0.16,0.16,3.37
35.62,-5.78,-9.16,-5.78,-9.16,6.00,6.97,0.22,0.22,3.38
35.97,-5.71,-9.10,-5.72,-9.10,6.00,6.90,0.29,0.28,3.39
36.33,-5.66,-9.05,-5.66,-9.05,6.00,6.83,0.34,0.34,3.39
36.70,-5.60,-9.00,-5.60,-9.00,6.00,6.75,0.40,0.40,3.40
37.06,-5.54,-8.95,-5.55,-8.95,6.00,6.68,0.46,0.45,3.41
37.43,-5.49,-8.90,-5.50,-8.91,6.00,6.60,0.51,0.50,3.41
37.81,-5.44,-8.86,-5.45,-8.87,6.00,6.53,0.56,0.55,3.42
38.19,-5.40,-8.83,-5.40,-8.83,6.00,6.45,0.60,0.60,3.43
38.57,-5.35,-8.78,-5.35,-8.79,6.00,6.38,0.65,0.65,3.43
38.95,-5.31,-8.75,-5.31,-8.75,6.00,6.31,0.69,0.69,3.44
39.34,-5.27,-8.71,-5.27,-8.71,6.00,6.25,0.73,0.73,3.44
39.74,-5.23,-8.68,-5.23,-8.68,6.00,6.18,0.77,0.77,3.45
40.14,-5.19,-8.64,-5.19,-8.64,6.00,6.12,0.81,0.81,3.45
40.54,-5.15,-8.61,-5.15,-8.61,6.00,6.06,0.85,0.85,3.46
40.94,-5.11,-8.57,-5.11,-8.57,6.00,6.01,0.89,0.89,3.46
41.35,-5.07,-8.54,-5.07,-8.54,6.00,5.96,0.93,0.93,3.47
41.76,-5.03,-8.50,-5.03,-8.50,6.00,5.91,0.97,0.97,3.47
42.18,-4.99,-8.47,-4.99,-8.46,6.00,5.87,1.01,1.01,3.48
42.60,-4.95,-8.43,-4.95,-8.43,6.00,5.83,1.05,1.05,3.48
43.03,-4.91,-8.39,-4.90,-8.39,6.00,5.80,1.09,1.10,3.48
43.46,-4.86,-8.35,-4.86,-8.35,6.00,5.77,1.14,1.14,3.49
43.90,-4.81,-8.30,-4.81,-8.30,6.00,5.74,1.19,1.19,3.49
44.33,-4.76,-8.26,-4.76,-8.26,6.00,5.72,1.24,1.24,3.50
44.78,-4.71,-8.21,-4.71,-8.21,6.00,5.70,1.29,1.29,3.50
45.23,-4.66,-8.17,-4.66,-8.16,6.00,5.69,1.34,1.34,3.51
45.68,-4.60,-8.11,-4.60,-8.11,6.00,5.68,1.40,1.40,3.51
46.13,-4.54,-8.05,-4.54,-8.05,6.00,5.68,1.46,1.46,3.51
46.60,-4.48,-8.00,-4.48,-7.99,6.00,5.68,1.52,1.52,3.52
47.06,-4.41,-7.93,-4.41,-7.93,6.00,5.68,1.59,1.59,3.52
47.53,-4.35,-7.88,-4.34,-7.87,6.00,5.69,1.65,1.66,3.53
48.01,-4.28,-7.81,-4.27,-7.80,6.00,5.70,1.72,1.73,3.53
48.49,-4.20,-7.73,-4.20,-7.73,6.00,5.72,1.80,1.80,3.53
48.97,-4.12,-7.65,-4.12,-7.65,6.00,5.74,1.88,1.88,3.53
49.46,-4.04,-7.57,-4.04,-7.57,6.00,5.76,1.96,1.96,3.53
49.96,-3.96,-7.49,-3.96,-7.49,6.00,5.78,2.04,2.04,3.53
50.46,-3.87,-7.40,-3.87,-7.41,6.00,5.81,2.13,2.13,3.53
50.96,-3.79,-7.32,-3.79,-7.32,6.00,5.84,2.21,2.21,3.53
51.47,-3.70,-7.23,-3.70,-7.23,6.00,5.87,2.30,2.30,3.53
51.99,-3.61,-7.14,-3.61,-7.13,6.00,5.90,2.39,2.39,3.53
52.51,-3.52,-7.04,-3.52,-7.04,6.00,5.94,2.48,2.48,3.52
53.03,-3.43,-6.95,-3.42,-6.94,6.00,5.97,2.57,2.58,3.52
53.56,-3.33,-6.84,-3.33,-6.84,6.00,6.01,2.67,2.67,3.51
54.10,-3.23,-6.73,-3.24,-6.74,6.00,6.04,2.77,2.76,3.50
54.64,-3.14,-6.64,-3.14,-6.64,6.00,6.08,2.86,2.86,3.49
55.18,-3.05,-6.53,-3.05,-6.53,6.00,6.11,2.95,2.95,3.49
55.74,-2.96,-6.44,-2.96,-6.43,6.00,6.14,3.04,3.04,3.47
56.29,-2.87,-6.33,-2.86,-6.33,6.00,6.17,3.13,3.14,3.46
56.86,-2.77,-6.22,-2.77,-6.22,5.99,6.19,3.22,3.21,3.45
57.42,-2.69,-6.12,-2.68,-6.12,5.95,6.21,3.27,3.27,3.43
58.00,-2.60,-6.02,-2.60,-6.01,5.91,6.22,3.31,3.31,3.42
58.58,-2.51,-5.91,-2.51,-5.91,5.84,6.23,3.33,3.33,3.40
59.16,-2.42,-5.80,-2.43,-5.81,5.77,6.24,3.35,3.34,3.39
59.76,-2.34,-5.71,-2.34,-5.71,5.69,6.23,3.35,3.34,3.37
60.35,-2.26,-5.61,-2.27,-5.61,5.60,6.23,3.34,3.34,3.35
60.96,-2.19,-5.51,-2.19,-5.51,5.51,6.21,3.32,3.32,3.32
61.57,-2.12,-5.42,-2.12,-5.42,5.42,6.18,3.30,3.30,3.30
62.18,-2.05,-5.33,-2.05,-5.33,5.33,6.15,3.28,3.28,3.28
62.80,-1.99,-5.24,-1.99,-5.24,5.24,6.11,3.25,3.25,3.25
63.43,-1.93,-5.16,-1.93,-5.16,5.16,6.07,3.23,3.23,3.23
64.07,-1.87,-5.07,-1.88,-5.08,5.08,6.01,3.21,3.20,3.20
64.71,-1.82,-4.99,-1.83,-5.00,5.00,5.95,3.18,3.17,3.17
65.35,-1.78,-4.93,-1.78,-4.93,4.93,5.88,3.15,3.15,3.15
66.01,-1.74,-4.86,-1.75,-4.86,4.86,5.80,3.12,3.12,3.12
66.67,-1.71,-4.80,-1.71,-4.80,4.80,5.71,3.09,3.09,3.09
67.33,-1.68,-4.74,-1.69,-4.75,4.75,5.62,3.07,3.06,3.06
68.01,-1.66,-4.69,-1.66,-4.70,4.70,5.52,3.04,3.03,3.03
68.69,-1.64,-4.64,-1.65,-4.65,4.65,5.42,3.01,3.00,3.00
69.37,-1.63,-4.60,-1.64,-4.61,4.61,5.31,2.98,2.97,2.97
70.07,-1.62,-4.56,-1.63,-4.57,4.57,5.20,2.95,2.94,2.94
70.77,-1.62,-4.53,-1.63,-4.54,4.54,5.08,2.92,2.91,2.91
71.48,-1.62,-4.50,-1.63,-4.50,4.50,4.97,2.88,2.88,2.88
72.19,-1.63,-4.48,-1.63,-4.48,4.48,4.84,2.85,2.85,2.85
72.91,-1.63,-4.45,-1.63,-4.45,4.45,4.72,2.82,2.82,2.82
73.64,-1.64,-4.43,-1.63,-4.42,4.42,4.59,2.78,2.79,2.79
74.38,-1.64,-4.41,-1.63,-4.40,4.40,4.47,2.76,2.76,2.77
75.12,-1.65,-4.39,-1.63,-4.37,4.37,4.34,2.72,2.74,2.74
75.87,-1.64,-4.35,-1.63,-4.34,4.34,4.21,2.70,2.71,2.71
76.63,-1.63,-4.32,-1.63,-4.31,4.31,4.08,2.68,2.68,2.69
77.40,-1.62,-4.28,-1.62,-4.28,4.28,3.95,2.66,2.66,2.66
78.17,-1.61,-4.25,-1.61,-4.24,4.24,3.82,2.63,2.63,2.64
78.95,-1.59,-4.21,-1.59,-4.20,4.20,3.70,2.61,2.61,2.62
79.74,-1.57,-4.17,-1.57,-4.16,4.16,3.57,2.59,2.59,2.60
80.54,-1.54,-4.12,-1.54,-4.11,4.11,3.44,2.57,2.57,2.58
81.35,-1.51,-4.07,-1.51,-4.06,4.06,3.32,2.55,2.55,2.56
82.16,-1.48,-4.02,-1.47,-4.01,4.01,3.20,2.53,2.54,2.54
82.98,-1.44,-3.96,-1.43,-3.95,3.95,3.07,2.51,2.52,2.52
83.81,-1.39,-3.90,-1.38,-3.89,3.89,2.95,2.50,2.51,2.51
84.65,-1.33,-3.82,-1.33,-3.82,3.82,2.83,2.49,2.49,2.49
85.50,-1.28,-3.76,-1.28,-3.76,3.76,2.72,2.48,2.48,2.48
86.35,-1.22,-3.68,-1.22,-3.69,3.69,2.60,2.47,2.46,2.46
87.22,-1.15,-3.60,-1.16,-3.61,3.61,2.49,2.46,2.45,2.45
88.09,-1.09,-3.53,-1.10,-3.54,3.54,2.37,2.45,2.44,2.44
88.97,-1.02,-3.45,-1.03,-3.46,3.46,2.26,2.44,2.43,2.43
89.86,-0.95,-3.37,-0.96,-3.38,3.38,2.15,2.43,2.42,2.42
90.76,-0.88,-3.30,-0.88,-3.29,3.29,2.05,2.41,2.41,2.42
91.66,-0.80,-3.21,-0.80,-3.20,3.20,1.94,2.40,2.40,2.41
92.58,-0.72,-3.12,-0.71,-3.11,3.11,1.84,2.39,2.40,2.40
93.51,-0.64,-3.04,-0.62,-3.01,3.01,1.73,2.37,2.39,2.39
94.44,-0.55,-2.94,-0.53,-2.91,2.91,1.63,2.36,2.38,2.39
95.39,-0.45,-2.83,-0.44,-2.81,2.81,1.53,2.36,2.38,2.38
96.34,-0.35,-2.72,-0.34,-2.70,2.70,1.44,2.35,2.36,2.37
97.30,-0.24,-2.60,-0.24,-2.59,2.59,1.34,2.35,2.35,2.36
98.28,-0.13,-2.48,-0.14,-2.48,2.48,1.25,2.35,2.34,2.35
99.26,-0.02,-2.35,-0.03,-2.36,2.36,1.15,2.34,2.32,2.33
100.25,0.10,-2.22,0.07,-2.23,2.23,1.06,2.33,2.31,2.32
101.25,0.22,-2.08,0.18,-2.11,2.11,0.97,2.33,2.29,2.30
102.27,0.33,-1.95,0.29,-1.98,1.98,0.88,2.30,2.27,2.28
103.29,0.39,-1.87,0.41,-1.84,1.84,0.80,2.23,2.25,2.26
104.32,0.48,-1.76,0.53,-1.70,1.70,0.72,2.18,2.23,2.24
105.37,0.61,-1.61,0.65,-1.56,1.56,0.63,2.17,2.21,2.22
106.42,0.73,-1.46,0.76,-1.42,1.42,0.55,2.15,2.18,2.19
107.48,0.86,-1.30,0.88,-1.27,1.27,0.48,2.13,2.15,2.16
108.56,0.99,-1.14,0.99,-1.12,1.12,0.40,2.11,2.12,2.13
109.64,1.12,-0.98,1.11,-0.97,0.97,0.33,2.09,2.08,2.10
110.74,1.25,-0.81,1.23,-0.82,0.82,0.26,2.07,2.05,2.06
111.85,1.37,-0.66,1.34,-0.67,0.67,0.19,2.04,2.02,2.03
112.97,1.49,-0.50,1.46,-0.53,0.53,0.13,2.02,1.98,1.99
114.10,1.59,-0.37,1.57,-0.38,0.38,0.07,1.97,1.95,1.96
115.24,1.69,-0.23,1.68,-0.24,0.24,0.01,1.93,1.92,1.92
116.39,1.76,-0.12,1.79,-0.10,0.10,-0.04,1.86,1.89,1.88
117.55,1.84,-0.01,1.88,0.04,-0.04,-0.10,1.81,1.85,1.85
118.73,1.96,0.15,1.98,0.16,-0.16,-0.14,1.80,1.81,1.81
119.92,2.07,0.29,2.06,0.29,-0.29,-0.19,1.78,1.78,1.78
121.12,2.17,0.43,2.15,0.40,-0.40,-0.23,1.77,1.74,1.74
122.33,2.22,0.51,2.22,0.51,-0.51,-0.27,1.71,1.71,1.71
123.55,2.29,0.61,2.29,0.61,-0.61,-0.30,1.68,1.68,1.68
124.79,2.37,0.72,2.35,0.70,-0.70,-0.33,1.66,1.65,1.65
126.03,2.44,0.82,2.41,0.79,-0.79,-0.35,1.65,1.62,1.62
127.29,2.47,0.88,2.47,0.87,-0.87,-0.38,1.60,1.60,1.59
128.57,2.50,0.93,2.51,0.94,-0.94,-0.39,1.56,1.57,1.57
129.85,2.54,0.99,2.55,1.00,-1.00,-0.41,1.54,1.55,1.55
131.15,2.57,1.05,2.57,1.05,-1.05,-0.42,1.52,1.53,1.52
132.46,2.59,1.09,2.59,1.09,-1.09,-0.43,1.50,1.50,1.50
133.79,2.61,1.13,2.60,1.13,-1.13,-0.43,1.48,1.48,1.48
135.12,2.62,1.16,2.61,1.15,-1.15,-0.43,1.47,1.46,1.46
136.48,2.62,1.18,2.61,1.18,-1.18,-0.43,1.44,1.44,1.44
137.84,2.61,1.19,2.60,1.19,-1.19,-0.43,1.42,1.41,1.42
139.22,2.59,1.20,2.59,1.20,-1.20,-0.42,1.39,1.39,1.39
140.61,2.56,1.19,2.57,1.20,-1.20,-0.41,1.36,1.37,1.37
142.02,2.54,1.19,2.55,1.20,-1.20,-0.40,1.34,1.35,1.35
143.44,2.53,1.20,2.52,1.19,-1.19,-0.38,1.34,1.33,1.33
144.87,2.49,1.18,2.49,1.18,-1.18,-0.37,1.31,1.31,1.31
146.32,2.46,1.17,2.45,1.17,-1.17,-0.35,1.29,1.28,1.29
147.78,2.41,1.15,2.41,1.15,-1.15,-0.33,1.26,1.26,1.26
149.26,2.37,1.13,2.36,1.13,-1.13,-0.31,1.24,1.23,1.24
150.75,2.31,1.09,2.32,1.11,-1.11,-0.29,1.20,1.21,1.22
152.26,2.27,1.07,2.27,1.08,-1.08,-0.27,1.19,1.19,1.20
153.78,2.21,1.04,2.23,1.06,-1.06,-0.25,1.15,1.16,1.17
155.32,2.17,1.02,2.18,1.04,-1.04,-0.23,1.13,1.14,1.15
156.88,2.10,0.98,2.13,1.01,-1.01,-0.20,1.09,1.12,1.12
158.44,2.05,0.95,2.08,0.98,-0.98,-0.18,1.07,1.09,1.10
160.03,1.99,0.91,2.02,0.95,-0.95,-0.15,1.04,1.07,1.08
161.63,1.97,0.92,1.97,0.92,-0.92,-0.13,1.05,1.04,1.05
163.24,1.93,0.90,1.91,0.89,-0.89,-0.10,1.04,1.02,1.03
164.88,1.86,0.86,1.85,0.85,-0.85,-0.08,1.01,1.00,1.00
166.53,1.80,0.82,1.79,0.81,-0.81,-0.05,0.99,0.97,0.98
168.19,1.74,0.79,1.72,0.77,-0.77,-0.02,0.97,0.95,0.95
169.87,1.64,0.72,1.64,0.72,-0.72,0.00,0.92,0.92,0.92
171.57,1.57,0.68,1.56,0.66,-0.66,0.03,0.91,0.89,0.89
173.29,1.50,0.64,1.47,0.60,-0.60,0.05,0.90,0.86,0.86
175.02,1.37,0.54,1.37,0.54,-0.54,0.08,0.83,0.83,0.83
176.77,1.27,0.47,1.27,0.47,-0.47,0.11,0.80,0.80,0.80
178.54,1.18,0.41,1.16,0.39,-0.39,0.13,0.79,0.77,0.77
180.32,1.07,0.33,1.05,0.31,-0.31,0.16,0.76,0.73,0.74
182.13,0.96,0.26,0.93,0.23,-0.23,0.18,0.73,0.70,0.70
183.95,0.80,0.13,0.81,0.14,-0.14,0.21,0.66,0.67,0.67
185.79,0.68,0.04,0.69,0.06,-0.06,0.24,0.62,0.64,0.64
187.65,0.55,-0.05,0.57,-0.03,0.03,0.26,0.58,0.60,0.60
189.52,0.43,-0.14,0.45,-0.11,0.11,0.29,0.54,0.57,0.57
191.42,0.32,-0.22,0.34,-0.20,0.20,0.31,0.52,0.53,0.54
193.33,0.22,-0.28,0.22,-0.27,0.27,0.34,0.49,0.50,0.50
195.27,0.12,-0.35,0.11,-0.35,0.35,0.36,0.47,0.46,0.47
197.22,0.02,-0.41,0.01,-0.42,0.42,0.39,0.44,0.43,0.43
199.19,-0.08,-0.48,-0.09,-0.48,0.48,0.41,0.40,0.39,0.40
201.18,-0.18,-0.54,-0.18,-0.53,0.53,0.44,0.35,0.35,0.36
203.19,-0.27,-0.60,-0.26,-0.58,0.58,0.46,0.31,0.32,0.33
205.23,-0.35,-0.64,-0.34,-0.62,0.62,0.49,0.27,0.28,0.29
207.28,-0.42,-0.68,-0.41,-0.65,0.65,0.51,0.23,0.25,0.26
209.35,-0.48,-0.70,-0.47,-0.68,0.68,0.54,0.20,0.21,0.22
211.44,-0.54,-0.72,-0.52,-0.69,0.69,0.56,0.15,0.17,0.18
213.56,-0.58,-0.72,-0.57,-0.70,0.70,0.58,0.12,0.13,0.14
215.69,-0.62,-0.73,-0.60,-0.70,0.70,0.61,0.08,0.10,0.11
217.85,-0.64,-0.71,-0.63,-0.70,0.70,0.63,0.06,0.06,0.07
220.03,-0.65,-0.69,-0.65,-0.68,0.68,0.65,0.03,0.03,0.04
222.23,-0.66,-0.67,-0.67,-0.67,0.67,0.67,0.01,0.00,0.01
224.45,-0.67,-0.64,-0.67,-0.65,0.65,0.69,-0.02,-0.03,-0.03
226.70,-0.69,-0.64,-0.68,-0.63,0.63,0.71,-0.06,-0.05,-0.05
228.96,-0.69,-0.61,-0.68,-0.60,0.60,0.73,-0.09,-0.08,-0.08
231.25,-0.68,-0.58,-0.67,-0.58,0.58,0.75,-0.10,-0.10,-0.10
233.57,-0.67,-0.55,-0.67,-0.55,0.55,0.77,-0.12,-0.11,-0.12
235.90,-0.66,-0.52,-0.66,-0.53,0.53,0.78,-0.13,-0.13,-0.14
238.26,-0.65,-0.50,-0.66,-0.52,0.52,0.80,-0.13,-0.14,-0.15
240.64,-0.64,-0.48,-0.66,-0.50,0.50,0.81,-0.14,-0.15,-0.16
243.05,-0.65,-0.48,-0.66,-0.49,0.49,0.83,-0.16,-0.16,-0.17
245.48,-0.66,-0.49,-0.66,-0.49,0.49,0.84,-0.17,-0.17,-0.17
247.93,-0.67,-0.49,-0.67,-0.50,0.50,0.85,-0.17,-0.17,-0.18
250.41,-0.68,-0.50,-0.69,-0.51,0.51,0.86,-0.17,-0.18,-0.18
252.92,-0.70,-0.52,-0.71,-0.53,0.53,0.87,-0.17,-0.18,-0.18
255.45,-0.72,-0.54,-0.74,-0.56,0.56,0.88,-0.16,-0.18,-0.18
258.00,-0.76,-0.58,-0.78,-0.60,0.60,0.89,-0.16,-0.18,-0.18
260.58,-0.81,-0.63,-0.82,-0.65,0.65,0.90,-0.16,-0.18,-0.18
263.19,-0.86,-0.68,-0.88,-0.70,0.70,0.91,-0.16,-0.18,-0.18
265.82,-0.92,-0.74,-0.93,-0.76,0.76,0.91,-0.16,-0.17,-0.18
268.48,-0.98,-0.81,-0.99,-0.82,0.82,0.92,-0.16,-0.17,-0.17
271.16,-1.04,-0.87,-1.06,-0.89,0.89,0.92,-0.15,-0.16,-0.17
273.87,-1.13,-0.97,-1.12,-0.96,0.96,0.93,-0.17,-0.16,-0.16
276.61,-1.20,-1.05,-1.19,-1.04,1.04,0.93,-0.16,-0.15,-0.15
279.38,-1.27,-1.13,-1.26,-1.11,1.11,0.93,-0.16,-0.15,-0.14
282.17,-1.33,-1.20,-1.32,-1.18,1.18,0.94,-0.15,-0.14,-0.13
284.99,-1.39,-1.27,-1.38,-1.25,1.25,0.94,-0.14,-0.13,-0.12
287.84,-1.46,-1.35,-1.44,-1.32,1.32,0.94,-0.14,-0.12,-0.11
290.72,-1.51,-1.41,-1.49,-1.38,1.38,0.94,-0.14,-0.11,-0.10
293.63,-1.55,-1.46,-1.53,-1.43,1.43,0.95,-0.12,-0.10,-0.09
296.57,-1.58,-1.50,-1.57,-1.47,1.47,0.95,-0.11,-0.09,-0.08
299.53,-1.62,-1.55,-1.60,-1.51,1.51,0.95,-0.11,-0.08,-0.07
302.53,-1.63,-1.57,-1.62,-1.55,1.55,0.96,-0.08,-0.08,-0.06
305.55,-1.64,-1.59,-1.64,-1.57,1.57,0.96,-0.07,-0.07,-0.05
308.61,-1.65,-1.60,-1.65,-1.59,1.59,0.96,-0.06,-0.06,-0.05
311.69,-1.66,-1.62,-1.65,-1.60,1.60,0.97,-0.06,-0.05,-0.04
314.81,-1.66,-1.62,-1.66,-1.62,1.62,0.97,-0.04,-0.04,-0.04
317.96,-1.65,-1.62,-1.66,-1.62,1.62,0.98,-0.03,-0.04,-0.03
321.14,-1.64,-1.61,-1.66,-1.62,1.62,0.98,-0.02,-0.03,-0.03
324.35,-1.64,-1.61,-1.65,-1.63,1.63,0.99,-0.01,-0.03,-0.03
327.59,-1.64,-1.61,-1.65,-1.63,1.63,1.00,-0.01,-0.02,-0.03
330.87,-1.64,-1.61,-1.65,-1.63,1.63,1.01,-0.01,-0.02,-0.03
334.18,-1.64,-1.61,-1.64,-1.62,1.62,1.02,-0.02,-0.02,-0.03
337.52,-1.64,-1.62,-1.64,-1.62,1.62,1.03,-0.02,-0.02,-0.02
340.90,-1.64,-1.62,-1.64,-1.62,1.62,1.04,-0.02,-0.02,-0.02
344.30,-1.64,-1.62,-1.64,-1.62,1.62,1.05,-0.02,-0.02,-0.02
347.75,-1.64,-1.62,-1.64,-1.62,1.62,1.06,-0.02,-0.02,-0.02
351.23,-1.64,-1.62,-1.64,-1.61,1.61,1.07,-0.03,-0.02,-0.02
354.74,-1.64,-1.62,-1.64,-1.61,1.61,1.09,-0.03,-0.03,-0.02
358.28,-1.64,-1.61,-1.64,-1.61,1.61,1.10,-0.03,-0.03,-0.03
361.87,-1.64,-1.61,-1.64,-1.61,1.61,1.12,-0.03,-0.03,-0.03
365.49,-1.64,-1.60,-1.64,-1.60,1.60,1.13,-0.04,-0.04,-0.04
369.14,-1.64,-1.60,-1.64,-1.59,1.59,1.15,-0.05,-0.05,-0.04
372.83,-1.64,-1.59,-1.64,-1.59,1.59,1.17,-0.05,-0.05,-0.05
376.56,-1.64,-1.58,-1.64,-1.58,1.58,1.19,-0.06,-0.06,-0.06
380.33,-1.64,-1.57,-1.64,-1.57,1.57,1.21,-0.07,-0.07,-0.07
384.13,-1.64,-1.56,-1.64,-1.56,1.56,1.23,-0.08,-0.08,-0.08
387.97,-1.64,-1.55,-1.64,-1.55,1.55,1.25,-0.09,-0.09,-0.09
391.85,-1.64,-1.54,-1.64,-1.54,1.54,1.27,-0.10,-0.10,-0.10
395.77,-1.64,-1.53,-1.64,-1.53,1.53,1.29,-0.11,-0.11,-0.11
399.73,-1.64,-1.52,-1.64,-1.52,1.52,1.31,-0.12,-0.12,-0.12
403.72,-1.64,-1.51,-1.64,-1.50,1.50,1.34,-0.14,-0.14,-0.13
407.76,-1.64,-1.49,-1.64,-1.49,1.49,1.36,-0.15,-0.15,-0.15
411.84,-1.64,-1.48,-1.64,-1.48,1.48,1.38,-0.16,-0.16,-0.16
415.96,-1.64,-1.47,-1.64,-1.47,1.47,1.41,-0.17,-0.17,-0.17
420.12,-1.64,-1.46,-1.64,-1.46,1.46,1.43,-0.18,-0.18,-0.18
424.32,-1.64,-1.45,-1.64,-1.45,1.45,1.45,-0.19,-0.19,-0.19
428.56,-1.64,-1.44,-1.64,-1.44,1.44,1.47,-0.20,-0.20,-0.20
432.85,-1.64,-1.44,-1.64,-1.44,1.44,1.50,-0.20,-0.20,-0.20
437.18,-1.64,-1.43,-1.64,-1.43,1.43,1.52,-0.21,-0.21,-0.21
441.55,-1.64,-1.42,-1.64,-1.43,1.43,1.54,-0.21,-0.21,-0.22
445.96,-1.64,-1.42,-1.64,-1.43,1.43,1.56,-0.21,-0.21,-0.22
450.42,-1.64,-1.42,-1.64,-1.43,1.43,1.57,-0.21,-0.21,-0.22
454.93,-1.64,-1.42,-1.64,-1.43,1.43,1.59,-0.21,-0.21,-0.22
459.48,-1.64,-1.43,-1.64,-1.43,1.43,1.60,-0.21,-0.21,-0.21
464.07,-1.64,-1.43,-1.65,-1.44,1.44,1.62,-0.20,-0.21,-0.21
468.71,-1.64,-1.43,-1.65,-1.44,1.44,1.63,-0.20,-0.21,-0.21
473.40,-1.64,-1.44,-1.65,-1.44,1.44,1.64,-0.20,-0.21,-0.20
478.13,-1.64,-1.44,-1.65,-1.45,1.45,1.64,-0.19,-0.21,-0.20
482.91,-1.65,-1.45,-1.66,-1.45,1.45,1.65,-0.20,-0.21,-0.20
487.74,-1.65,-1.46,-1.65,-1.45,1.45,1.65,-0.20,-0.20,-0.19
492.62,-1.66,-1.47,-1.65,-1.45,1.45,1.65,-0.21,-0.20,-0.19
497.55,-1.66,-1.47,-1.64,-1.44,1.44,1.65,-0.22,-0.20,-0.19
502.52,-1.65,-1.46,-1.63,-1.43,1.43,1.64,-0.22,-0.20,-0.19
507.55,-1.64,-1.45,-1.62,-1.42,1.42,1.64,-0.22,-0.19,-0.19
512.62,-1.62,-1.44,-1.60,-1.41,1.41,1.63,-0.21,-0.19,-0.18
517.75,-1.59,-1.41,-1.58,-1.39,1.39,1.61,-0.20,-0.19,-0.18
522.93,-1.56,-1.38,-1.55,-1.37,1.37,1.60,-0.19,-0.18,-0.18
528.16,-1.53,-1.36,-1.53,-1.35,1.35,1.58,-0.18,-0.18,-0.17
533.44,-1.50,-1.33,-1.50,-1.33,1.33,1.56,-0.17,-0.17,-0.17
538.77,-1.46,-1.29,-1.47,-1.31,1.31,1.54,-0.15,-0.17,-0.17
544.16,-1.43,-1.27,-1.44,-1.28,1.28,1.51,-0.15,-0.16,-0.16
549.60,-1.40,-1.24,-1.42,-1.26,1.26,1.49,-0.14,-0.16,-0.16
555.10,-1.37,-1.22,-1.39,-1.24,1.24,1.46,-0.13,-0.15,-0.15
560.65,-1.34,-1.19,-1.37,-1.22,1.22,1.43,-0.12,-0.15,-0.15
566.25,-1.33,-1.18,-1.35,-1.20,1.20,1.40,-0.13,-0.15,-0.15
571.92,-1.32,-1.18,-1.32,-1.18,1.18,1.37,-0.14,-0.15,-0.14
577.64,-1.31,-1.17,-1.30,-1.16,1.16,1.34,-0.15,-0.15,-0.14
583.41,-1.30,-1.16,-1.28,-1.14,1.14,1.31,-0.16,-0.14,-0.14
589.25,-1.28,-1.14,-1.26,-1.12,1.12,1.27,-0.16,-0.14,-0.14
595.14,-1.26,-1.13,-1.24,-1.10,1.10,1.24,-0.16,-0.14,-0.13
601.09,-1.24,-1.11,-1.22,-1.09,1.09,1.20,-0.15,-0.14,-0.13
607.10,-1.21,-1.08,-1.20,-1.07,1.07,1.17,-0.14,-0.14,-0.13
613.17,-1.18,-1.05,-1.18,-1.05,1.05,1.13,-0.13,-0.13,-0.13
619.30,-1.15,-1.02,-1.15,-1.03,1.03,1.10,-0.12,-0.13,-0.13
625.50,-1.12,-1.00,-1.13,-1.01,1.01,1.06,-0.11,-0.12,-0.12
631.75,-1.09,-0.97,-1.10,-0.99,0.99,1.03,-0.10,-0.11,-0.12
638.07,-1.07,-0.96,-1.07,-0.96,0.96,0.99,-0.11,-0.11,-0.11
644.45,-1.05,-0.95,-1.04,-0.94,0.94,0.96,-0.11,-0.10,-0.10
650.89,-1.01,-0.92,-1.01,-0.92,0.92,0.92,-0.09,-0.09,-0.09
