frequency,raw,error,smoothed,error_smoothed,equalization,parametric_eq,fixed_band_eq,equalized_raw,equalized_smoothed,target
20.00,4.39,0.36,4.38,0.33,-0.33,0.25,0.27,4.06,4.05,4.03
20.20,4.38,0.35,4.37,0.32,-0.32,0.25,0.28,4.06,4.05,4.03
20.40,4.35,0.32,4.35,0.32,-0.32,0.26,0.29,4.04,4.04,4.03
20.61,4.33,0.30,4.34,0.31,-0.31,0.26,0.29,4.03,4.03,4.03
20.81,4.31,0.28,4.32,0.30,-0.30,0.27,0.30,4.01,4.02,4.03
21.02,4.28,0.25,4.30,0.29,-0.29,0.27,0.31,3.99,4.01,4.03
21.23,4.27,0.26,4.28,0.28,-0.28,0.28,0.32,3.99,3.99,4.01
21.44,4.24,0.24,4.25,0.27,-0.27,0.28,0.33,3.97,3.98,4.00
21.66,4.21,0.23,4.23,0.26,-0.26,0.29,0.34,3.95,3.97,3.98
21.87,4.19,0.23,4.20,0.25,-0.25,0.29,0.35,3.94,3.95,3.96
22.09,4.17,0.23,4.17,0.24,-0.24,0.30,0.36,3.94,3.94,3.95
22.31,4.14,0.23,4.15,0.23,-0.23,0.30,0.37,3.92,3.92,3.92
22.54,4.11,0.22,4.12,0.22,-0.22,0.31,0.38,3.90,3.90,3.90
22.76,4.09,0.22,4.09,0.21,-0.21,0.32,0.39,3.88,3.88,3.88
22.99,4.05,0.21,4.05,0.20,-0.20,0.32,0.40,3.85,3.85,3.85
23.22,4.02,0.21,4.02,0.19,-0.19,0.33,0.42,3.84,3.83,3.82
23.45,3.99,0.20,3.98,0.17,-0.17,0.33,0.43,3.82,3.81,3.80
23.69,3.94,0.16,3.94,0.15,-0.15,0.34,0.44,3.79,3.79,3.79
23.92,3.90,0.14,3.90,0.13,-0.13,0.35,0.45,3.77,3.77,3.77
24.16,3.86,0.11,3.86,0.11,-0.11,0.35,0.46,3.76,3.75,3.76
24.40,3.81,0.08,3.81,0.08,-0.08,0.36,0.48,3.73,3.73,3.73
24.65,3.76,0.05,3.76,0.05,-0.05,0.37,0.49,3.71,3.71,3.71
24.89,3.71,0.02,3.72,0.02,-0.02,0.37,0.50,3.69,3.70,3.69
25.14,3.66,-0.02,3.67,-0.01,0.01,0.38,0.52,3.67,3.68,3.68
25.39,3.61,-0.05,3.62,-0.05,0.05,0.39,0.53,3.66,3.66,3.66
25.65,3.56,-0.09,3.57,-0.08,0.08,0.39,0.54,3.64,3.65,3.65
25.91,3.51,-0.11,3.52,-0.11,0.11,0.40,0.55,3.63,3.63,3.62
26.16,3.46,-0.15,3.47,-0.15,0.15,0.41,0.57,3.61,3.62,3.61
26.43,3.41,-0.19,3.42,-0.18,0.18,0.42,0.58,3.59,3.60,3.60
26.69,3.36,-0.22,3.37,-0.21,0.21,0.42,0.59,3.58,3.58,3.58
26.96,3.32,-0.25,3.32,-0.25,0.25,0.43,0.61,3.57,3.57,3.57
27.23,3.27,-0.28,3.28,-0.28,0.28,0.44,0.62,3.55,3.56,3.56
27.50,3.22,-0.32,3.23,-0.31,0.31,0.45,0.63,3.54,3.54,3.55
27.77,3.18,-0.34,3.18,-0.35,0.35,0.45,0.64,3.53,3.53,3.53
28.05,3.13,-0.38,3.13,-0.39,0.39,0.46,0.65,3.52,3.51,3.52
28.33,3.08,-0.41,3.08,-0.43,0.43,0.47,0.66,3.51,3.50,3.50
28.62,3.03,-0.45,3.02,-0.47,0.47,0.48,0.67,3.50,3.49,3.49
28.90,2.97,-0.50,2.97,-0.51,0.51,0.49,0.68,3.48,3.48,3.47
29.19,2.91,-0.54,2.92,-0.55,0.55,0.49,0.69,3.46,3.46,3.45
29.48,2.86,-0.59,2.86,-0.59,0.59,0.50,0.70,3.45,3.45,3.45
29.78,2.80,-0.64,2.81,-0.63,0.63,0.51,0.70,3.44,3.44,3.44
30.08,2.75,-0.68,2.75,-0.67,0.67,0.52,0.71,3.43,3.42,3.43
30.38,2.68,-0.72,2.69,-0.72,0.72,0.53,0.71,3.40,3.41,3.41
30.68,2.63,-0.76,2.64,-0.76,0.76,0.54,0.72,3.39,3.39,3.40
30.99,2.58,-0.79,2.58,-0.80,0.80,0.55,0.72,3.38,3.38,3.38
31.30,2.52,-0.84,2.52,-0.84,0.84,0.55,0.72,3.36,3.36,3.37
31.61,2.47,-0.88,2.47,-0.88,0.88,0.56,0.73,3.35,3.35,3.35
31.93,2.41,-0.92,2.42,-0.91,0.91,0.57,0.73,3.33,3.33,3.33
32.24,2.36,-0.94,2.37,-0.94,0.94,0.58,0.73,3.31,3.31,3.30
32.57,2.31,-0.98,2.32,-0.97,0.97,0.59,0.73,3.29,3.29,3.29
32.89,2.26,-1.02,2.27,-1.00,1.00,0.60,0.72,3.26,3.27,3.28
33.22,2.22,-1.02,2.23,-1.03,1.03,0.61,0.72,3.25,3.25,3.25
33.55,2.18,-1.05,2.18,-1.05,1.05,0.62,0.72,3.23,3.23,3.24
33.89,2.14,-1.07,2.14,-1.07,1.07,0.63,0.72,3.21,3.21,3.21
34.23,2.10,-1.09,2.11,-1.09,1.09,0.64,0.71,3.19,3.19,3.19
34.57,2.07,-1.10,2.07,-1.10,1.10,0.64,0.71,3.18,3.17,3.17
34.92,2.03,-1.11,2.03,-1.12,1.12,0.65,0.70,3.15,3.15,3.15
35.27,2.00,-1.13,2.00,-1.13,1.13,0.66,0.70,3.14,3.13,3.14
35.62,1.97,-1.14,1.97,-1.14,1.14,0.67,0.69,3.12,3.12,3.12
35.97,1.94,-1.15,1.94,-1.15,1.15,0.68,0.69,3.10,3.10,3.09
36.33,1.92,-1.16,1.92,-1.16,1.16,0.69,0.68,3.08,3.08,3.08
36.70,1.88,-1.17,1.89,-1.16,1.16,0.70,0.67,3.05,3.06,3.06
37.06,1.87,-1.16,1.87,-1.17,1.17,0.71,0.67,3.04,3.04,3.04
37.43,1.85,-1.17,1.85,-1.17,1.17,0.72,0.66,3.02,3.02,3.02
37.81,1.82,-1.18,1.83,-1.17,1.17,0.73,0.66,2.99,3.00,3.00
38.19,1.81,-1.16,1.81,-1.17,1.17,0.73,0.65,2.98,2.98,2.98
38.57,1.79,-1.17,1.80,-1.16,1.16,0.74,0.65,2.96,2.96,2.97
38.95,1.78,-1.16,1.78,-1.16,1.16,0.75,0.64,2.94,2.94,2.94
39.34,1.77,-1.15,1.77,-1.15,1.15,0.76,0.64,2.92,2.93,2.92
39.74,1.76,-1.13,1.77,-1.14,1.14,0.77,0.64,2.90,2.91,2.90
40.14,1.76,-1.13,1.76,-1.13,1.13,0.78,0.63,2.89,2.89,2.89
40.54,1.75,-1.12,1.76,-1.11,1.11,0.78,0.63,2.87,2.87,2.87
40.94,1.76,-1.09,1.76,-1.09,1.09,0.79,0.63,2.86,2.86,2.86
41.35,1.76,-1.07,1.77,-1.07,1.07,0.80,0.63,2.84,2.84,2.83
41.76,1.77,-1.06,1.77,-1.05,1.05,0.81,0.63,2.82,2.82,2.83
42.18,1.78,-1.03,1.78,-1.02,1.02,0.81,0.63,2.81,2.81,2.82
42.60,1.79,-1.00,1.80,-1.00,1.00,0.82,0.63,2.79,2.79,2.79
43.03,1.80,-0.98,1.81,-0.96,0.96,0.82,0.63,2.77,2.77,2.79
43.46,1.82,-0.94,1.83,-0.93,0.93,0.83,0.63,2.76,2.76,2.76
43.90,1.84,-0.89,1.84,-0.90,0.90,0.84,0.63,2.74,2.74,2.74
44.33,1.86,-0.86,1.86,-0.86,0.86,0.84,0.64,2.73,2.73,2.72
44.78,1.88,-0.82,1.88,-0.83,0.83,0.84,0.64,2.71,2.71,2.71
45.23,1.90,-0.78,1.91,-0.79,0.79,0.85,0.65,2.69,2.69,2.68
45.68,1.92,-0.74,1.93,-0.75,0.75,0.85,0.65,2.67,2.68,2.67
46.13,1.95,-0.70,1.95,-0.71,0.71,0.85,0.66,2.66,2.66,2.65
46.60,1.97,-0.67,1.97,-0.67,0.67,0.86,0.66,2.64,2.64,2.65
47.06,1.99,-0.64,2.00,-0.63,0.63,0.86,0.67,2.62,2.63,2.63
47.53,2.02,-0.59,2.02,-0.59,0.59,0.86,0.68,2.62,2.61,2.62
48.01,2.03,-0.57,2.04,-0.55,0.55,0.86,0.69,2.59,2.59,2.61
48.49,2.05,-0.53,2.05,-0.52,0.52,0.86,0.69,2.57,2.57,2.58
48.97,2.07,-0.48,2.07,-0.49,0.49,0.86,0.70,2.56,2.56,2.56
49.46,2.08,-0.44,2.08,-0.45,0.45,0.86,0.71,2.54,2.54,2.53
49.96,2.09,-0.41,2.09,-0.43,0.43,0.85,0.72,2.52,2.52,2.50
50.46,2.10,-0.40,2.10,-0.40,0.40,0.85,0.73,2.50,2.50,2.50
50.96,2.11,-0.37,2.11,-0.37,0.37,0.84,0.74,2.49,2.48,2.49
51.47,2.11,-0.34,2.11,-0.35,0.35,0.84,0.74,2.47,2.46,2.46
51.99,2.10,-0.33,2.11,-0.34,0.34,0.83,0.75,2.44,2.44,2.44
52.51,2.10,-0.33,2.10,-0.32,0.32,0.82,0.76,2.43,2.42,2.43
53.03,2.09,-0.32,2.09,-0.31,0.31,0.82,0.77,2.41,2.41,2.41
53.56,2.08,-0.31,2.08,-0.31,0.31,0.81,0.77,2.39,2.39,2.39
54.10,2.07,-0.30,2.06,-0.31,0.31,0.79,0.78,2.38,2.37,2.37
54.64,2.04,-0.31,2.04,-0.31,0.31,0.78,0.78,2.35,2.35,2.35
55.18,2.02,-0.31,2.02,-0.32,0.32,0.77,0.78,2.34,2.33,2.33
55.74,1.99,-0.32,1.99,-0.33,0.33,0.75,0.78,2.32,2.32,2.31
56.29,1.95,-0.35,1.96,-0.34,0.34,0.74,0.78,2.29,2.30,2.30
56.86,1.92,-0.35,1.92,-0.36,0.36,0.72,0.77,2.28,2.28,2.28
57.42,1.89,-0.36,1.89,-0.37,0.37,0.70,0.77,2.27,2.26,2.26
58.00,1.85,-0.39,1.85,-0.39,0.39,0.68,0.76,2.25,2.24,2.24
58.58,1.80,-0.42,1.81,-0.41,0.41,0.65,0.75,2.22,2.22,2.22
59.16,1.77,-0.43,1.77,-0.43,0.43,0.63,0.73,2.21,2.20,2.21
59.76,1.72,-0.47,1.73,-0.46,0.46,0.60,0.71,2.18,2.18,2.19
60.35,1.69,-0.48,1.69,-0.48,0.48,0.58,0.69,2.17,2.17,2.17
60.96,1.64,-0.52,1.64,-0.50,0.50,0.55,0.67,2.15,2.15,2.16
61.57,1.61,-0.52,1.61,-0.52,0.52,0.51,0.64,2.14,2.13,2.13
62.18,1.57,-0.53,1.57,-0.54,0.54,0.48,0.61,2.11,2.11,2.10
62.80,1.54,-0.54,1.54,-0.56,0.56,0.44,0.58,2.10,2.09,2.09
63.43,1.51,-0.55,1.51,-0.57,0.57,0.41,0.54,2.08,2.07,2.06
64.07,1.47,-0.57,1.48,-0.57,0.57,0.37,0.50,2.05,2.06,2.05
64.71,1.46,-0.57,1.47,-0.57,0.57,0.32,0.45,2.04,2.04,2.04
65.35,1.44,-0.58,1.46,-0.57,0.57,0.28,0.40,2.01,2.02,2.02
66.01,1.43,-0.58,1.45,-0.56,0.56,0.23,0.35,1.99,2.01,2.01
66.67,1.44,-0.55,1.46,-0.53,0.53,0.18,0.29,1.98,1.99,1.99
67.33,1.46,-0.52,1.47,-0.51,0.51,0.13,0.23,1.97,1.98,1.98
68.01,1.48,-0.48,1.49,-0.47,0.47,0.08,0.17,1.95,1.96,1.96
68.69,1.52,-0.43,1.53,-0.42,0.42,0.02,0.11,1.95,1.95,1.95
69.37,1.55,-0.38,1.57,-0.37,0.37,-0.04,0.04,1.92,1.93,1.93
70.07,1.61,-0.30,1.62,-0.30,0.30,-0.10,-0.03,1.91,1.92,1.92
70.77,1.67,-0.23,1.68,-0.22,0.22,-0.17,-0.11,1.90,1.90,1.91
71.48,1.74,-0.14,1.75,-0.13,0.13,-0.24,-0.19,1.88,1.88,1.88
72.19,1.81,-0.06,1.82,-0.04,0.04,-0.31,-0.26,1.85,1.86,1.87
72.91,1.90,0.06,1.91,0.06,-0.06,-0.38,-0.35,1.84,1.84,1.85
73.64,1.99,0.17,1.99,0.17,-0.17,-0.46,-0.43,1.82,1.82,1.82
74.38,2.08,0.28,2.09,0.29,-0.29,-0.54,-0.52,1.80,1.80,1.80
75.12,2.19,0.43,2.19,0.41,-0.41,-0.62,-0.60,1.79,1.78,1.77
75.87,2.29,0.54,2.29,0.53,-0.53,-0.71,-0.69,1.76,1.76,1.75
76.63,2.39,0.66,2.39,0.66,-0.66,-0.80,-0.79,1.73,1.73,1.74
77.40,2.50,0.80,2.50,0.80,-0.80,-0.89,-0.88,1.71,1.71,1.71
78.17,2.61,0.95,2.61,0.93,-0.93,-0.98,-0.98,1.68,1.68,1.67
78.95,2.72,1.06,2.72,1.07,-1.07,-1.08,-1.07,1.65,1.65,1.66
79.74,2.83,1.20,2.84,1.21,-1.21,-1.19,-1.17,1.62,1.63,1.63
80.54,2.94,1.34,2.95,1.35,-1.35,-1.29,-1.27,1.59,1.60,1.60
81.35,3.06,1.49,3.06,1.49,-1.49,-1.40,-1.38,1.57,1.57,1.57
82.16,3.17,1.64,3.17,1.63,-1.63,-1.51,-1.48,1.54,1.54,1.54
82.98,3.28,1.77,3.28,1.77,-1.77,-1.63,-1.59,1.51,1.51,1.52
83.81,3.39,1.92,3.39,1.91,-1.91,-1.75,-1.69,1.48,1.48,1.47
84.65,3.49,2.05,3.50,2.05,-2.05,-1.87,-1.80,1.45,1.45,1.44
85.50,3.60,2.19,3.60,2.19,-2.19,-2.00,-1.91,1.42,1.42,1.42
86.35,3.70,2.32,3.70,2.32,-2.32,-2.13,-2.02,1.38,1.38,1.38
87.22,3.80,2.45,3.80,2.45,-2.45,-2.26,-2.14,1.35,1.35,1.35
88.09,3.90,2.59,3.90,2.58,-2.58,-2.39,-2.25,1.32,1.32,1.31
88.97,3.99,2.70,3.99,2.71,-2.71,-2.53,-2.37,1.29,1.28,1.29
89.86,4.08,2.83,4.08,2.83,-2.83,-2.67,-2.49,1.25,1.25,1.25
90.76,4.17,2.97,4.17,2.95,-2.95,-2.81,-2.61,1.22,1.22,1.21
91.66,4.25,3.07,4.25,3.07,-3.07,-2.95,-2.73,1.18,1.18,1.18
92.58,4.33,3.20,4.33,3.19,-3.19,-3.09,-2.86,1.15,1.15,1.13
93.51,4.40,3.29,4.41,3.30,-3.30,-3.23,-2.98,1.11,1.11,1.12
94.44,4.48,3.40,4.48,3.41,-3.41,-3.37,-3.11,1.07,1.07,1.08
95.39,4.55,3.51,4.55,3.52,-3.52,-3.51,-3.24,1.04,1.03,1.04
96.34,4.61,3.62,4.62,3.62,-3.62,-3.65,-3.37,0.99,0.99,0.99
97.30,4.67,3.72,4.68,3.73,-3.73,-3.78,-3.50,0.95,0.95,0.95
98.28,4.74,3.83,4.74,3.83,-3.83,-3.92,-3.63,0.92,0.91,0.92
99.26,4.79,3.93,4.80,3.92,-3.92,-4.04,-3.76,0.87,0.87,0.87
100.25,4.85,4.03,4.85,4.02,-4.02,-4.17,-3.90,0.83,0.83,0.83
101.25,4.90,4.12,4.90,4.11,-4.11,-4.29,-4.03,0.79,0.79,0.79
102.27,4.95,4.21,4.95,4.21,-4.21,-4.40,-4.17,0.75,0.74,0.74
103.29,4.99,4.30,4.99,4.30,-4.30,-4.51,-4.30,0.70,0.70,0.69
104.32,5.03,4.38,5.04,4.38,-4.38,-4.60,-4.44,0.65,0.65,0.65
105.37,5.07,4.46,5.08,4.47,-4.47,-4.70,-4.57,0.60,0.61,0.61
106.42,5.10,4.54,5.11,4.55,-4.55,-4.78,-4.70,0.55,0.56,0.56
107.48,5.14,4.63,5.15,4.64,-4.64,-4.86,-4.83,0.51,0.51,0.51
108.56,5.18,4.72,5.18,4.72,-4.72,-4.93,-4.96,0.47,0.46,0.46
109.64,5.21,4.80,5.21,4.80,-4.80,-4.99,-5.09,0.42,0.41,0.41
110.74,5.24,4.87,5.24,4.88,-4.88,-5.05,-5.21,0.37,0.37,0.38
111.85,5.26,4.94,5.27,4.95,-4.95,-5.10,-5.33,0.31,0.32,0.33
112.97,5.29,5.04,5.29,5.03,-5.03,-5.15,-5.45,0.27,0.27,0.26
114.10,5.31,5.09,5.32,5.10,-5.10,-5.19,-5.56,0.22,0.22,0.22
115.24,5.34,5.17,5.34,5.17,-5.17,-5.23,-5.67,0.18,0.17,0.17
116.39,5.36,5.25,5.36,5.24,-5.24,-5.26,-5.77,0.13,0.12,0.11
117.55,5.37,5.31,5.37,5.30,-5.30,-5.29,-5.86,0.07,0.07,0.07
118.73,5.38,5.37,5.39,5.36,-5.36,-5.32,-5.95,0.02,0.03,0.02
119.92,5.40,5.42,5.40,5.42,-5.42,-5.34,-6.03,-0.02,-0.02,-0.02
121.12,5.41,5.48,5.41,5.48,-5.48,-5.37,-6.10,-0.06,-0.07,-0.07
122.33,5.42,5.54,5.42,5.53,-5.53,-5.39,-6.16,-0.11,-0.11,-0.11
123.55,5.43,5.58,5.43,5.59,-5.59,-5.42,-6.21,-0.15,-0.16,-0.15
124.79,5.43,5.63,5.44,5.64,-5.64,-5.44,-6.26,-0.20,-0.20,-0.19
126.03,5.44,5.67,5.45,5.68,-5.68,-5.47,-6.30,-0.24,-0.24,-0.23
127.29,5.45,5.73,5.45,5.73,-5.73,-5.50,-6.33,-0.28,-0.28,-0.27
128.57,5.45,5.78,5.46,5.78,-5.78,-5.53,-6.35,-0.32,-0.32,-0.33
129.85,5.46,5.82,5.46,5.82,-5.82,-5.56,-6.36,-0.36,-0.36,-0.36
131.15,5.47,5.87,5.47,5.86,-5.86,-5.59,-6.37,-0.39,-0.39,-0.39
132.46,5.47,5.91,5.48,5.90,-5.90,-5.63,-6.37,-0.43,-0.43,-0.44
133.79,5.48,5.94,5.48,5.94,-5.94,-5.66,-6.36,-0.46,-0.46,-0.46
135.12,5.48,5.98,5.49,5.98,-5.98,-5.70,-6.34,-0.50,-0.49,-0.50
136.48,5.49,6.01,5.50,6.02,-6.02,-5.74,-6.32,-0.52,-0.52,-0.52
137.84,5.50,6.04,5.51,6.05,-6.05,-5.79,-6.30,-0.55,-0.55,-0.54
139.22,5.51,6.09,5.52,6.09,-6.09,-5.83,-6.27,-0.57,-0.57,-0.58
140.61,5.52,6.13,5.53,6.12,-6.12,-5.88,-6.24,-0.60,-0.59,-0.61
142.02,5.53,6.14,5.54,6.15,-6.15,-5.93,-6.20,-0.62,-0.61,-0.61
143.44,5.54,6.17,5.55,6.18,-6.18,-5.98,-6.17,-0.64,-0.63,-0.63
144.87,5.55,6.21,5.56,6.21,-6.21,-6.04,-6.13,-0.66,-0.65,-0.65
146.32,5.57,6.24,5.57,6.24,-6.24,-6.09,-6.09,-0.67,-0.67,-0.67
147.78,5.58,6.26,5.58,6.27,-6.27,-6.15,-6.05,-0.68,-0.68,-0.68
149.26,5.60,6.30,5.60,6.30,-6.30,-6.20,-6.01,-0.69,-0.70,-0.69
150.75,5.60,6.32,5.61,6.32,-6.32,-6.26,-5.97,-0.72,-0.72,-0.72
152.26,5.61,6.35,5.62,6.35,-6.35,-6.32,-5.93,-0.73,-0.73,-0.73
153.78,5.63,6.38,5.63,6.37,-6.37,-6.38,-5.89,-0.74,-0.75,-0.75
155.32,5.64,6.40,5.64,6.40,-6.40,-6.44,-5.86,-0.75,-0.76,-0.76
156.88,5.64,6.42,5.64,6.42,-6.42,-6.49,-5.83,-0.78,-0.78,-0.77
158.44,5.64,6.44,5.65,6.44,-6.44,-6.55,-5.80,-0.80,-0.79,-0.79
160.03,5.65,6.47,5.65,6.46,-6.46,-6.61,-5.77,-0.81,-0.81,-0.81
161.63,5.65,6.49,5.66,6.48,-6.48,-6.67,-5.75,-0.83,-0.83,-0.84
163.24,5.65,6.50,5.66,6.50,-6.50,-6.73,-5.73,-0.85,-0.84,-0.85
164.88,5.66,6.52,5.66,6.52,-6.52,-6.78,-5.71,-0.86,-0.86,-0.86
166.53,5.66,6.54,5.66,6.54,-6.54,-6.84,-5.70,-0.87,-0.88,-0.87
168.19,5.65,6.56,5.65,6.55,-6.55,-6.89,-5.69,-0.90,-0.90,-0.90
169.87,5.64,6.57,5.65,6.57,-6.57,-6.94,-5.69,-0.93,-0.92,-0.92
171.57,5.64,6.58,5.64,6.59,-6.59,-6.99,-5.69,-0.94,-0.94,-0.94
173.29,5.63,6.59,5.64,6.60,-6.60,-7.03,-5.69,-0.97,-0.97,-0.96
175.02,5.63,6.62,5.63,6.62,-6.62,-7.07,-5.70,-0.99,-0.99,-0.98
176.77,5.61,6.63,5.62,6.64,-6.64,-7.11,-5.72,-1.02,-1.02,-1.02
178.54,5.60,6.65,5.61,6.65,-6.65,-7.15,-5.73,-1.05,-1.04,-1.04
180.32,5.59,6.66,5.59,6.66,-6.66,-7.18,-5.76,-1.07,-1.07,-1.07
182.13,5.58,6.68,5.58,6.68,-6.68,-7.21,-5.78,-1.09,-1.10,-1.09
183.95,5.56,6.69,5.57,6.69,-6.69,-7.24,-5.81,-1.13,-1.12,-1.13
185.79,5.55,6.71,5.55,6.70,-6.70,-7.26,-5.85,-1.15,-1.15,-1.15
187.65,5.53,6.72,5.54,6.71,-6.71,-7.27,-5.89,-1.18,-1.18,-1.19
189.52,5.51,6.72,5.52,6.72,-6.72,-7.29,-5.93,-1.21,-1.20,-1.21
191.42,5.50,6.74,5.50,6.73,-6.73,-7.30,-5.98,-1.22,-1.23,-1.23
193.33,5.48,6.73,5.48,6.73,-6.73,-7.30,-6.03,-1.25,-1.25,-1.24
195.27,5.46,6.73,5.46,6.74,-6.74,-7.30,-6.08,-1.27,-1.27,-1.26
197.22,5.44,6.73,5.44,6.74,-6.74,-7.29,-6.14,-1.29,-1.29,-1.29
199.19,5.42,6.75,5.42,6.73,-6.73,-7.28,-6.20,-1.31,-1.31,-1.33
201.18,5.40,6.74,5.40,6.73,-6.73,-7.27,-6.27,-1.33,-1.33,-1.34
203.19,5.37,6.72,5.38,6.73,-6.73,-7.25,-6.33,-1.35,-1.35,-1.35
205.23,5.35,6.72,5.35,6.72,-6.72,-7.22,-6.40,-1.37,-1.37,-1.37
207.28,5.33,6.70,5.33,6.71,-6.71,-7.19,-6.47,-1.38,-1.38,-1.37
209.35,5.30,6.70,5.31,6.70,-6.70,-7.16,-6.54,-1.40,-1.40,-1.40
211.44,5.28,6.70,5.28,6.69,-6.69,-7.12,-6.61,-1.41,-1.41,-1.42
213.56,5.25,6.68,5.26,6.68,-6.68,-7.08,-6.68,-1.42,-1.42,-1.42
215.69,5.23,6.66,5.24,6.66,-6.66,-7.03,-6.75,-1.43,-1.43,-1.42
217.85,5.20,6.63,5.21,6.65,-6.65,-6.98,-6.82,-1.44,-1.44,-1.43
220.03,5.18,6.63,5.19,6.63,-6.63,-6.93,-6.88,-1.45,-1.44,-1.45
222.23,5.16,6.62,5.17,6.61,-6.61,-6.87,-6.94,-1.45,-1.44,-1.46
224.45,5.14,6.59,5.14,6.59,-6.59,-6.80,-7.00,-1.44,-1.44,-1.44
226.70,5.12,6.57,5.12,6.57,-6.57,-6.74,-7.06,-1.44,-1.44,-1.45
228.96,5.10,6.55,5.10,6.54,-6.54,-6.67,-7.10,-1.44,-1.44,-1.45
231.25,5.07,6.51,5.08,6.51,-6.51,-6.60,-7.15,-1.44,-1.44,-1.43
233.57,5.05,6.47,5.06,6.48,-6.48,-6.53,-7.18,-1.43,-1.43,-1.42
235.90,5.03,6.45,5.03,6.45,-6.45,-6.45,-7.20,-1.41,-1.41,-1.41
238.26,5.01,6.42,5.01,6.41,-6.41,-6.37,-7.22,-1.40,-1.40,-1.41
240.64,4.98,6.37,4.99,6.37,-6.37,-6.29,-7.23,-1.39,-1.39,-1.39
243.05,4.97,6.35,4.97,6.33,-6.33,-6.20,-7.22,-1.36,-1.37,-1.37
245.48,4.93,6.28,4.94,6.29,-6.29,-6.12,-7.21,-1.36,-1.35,-1.35
247.93,4.91,6.25,4.92,6.25,-6.25,-6.03,-7.18,-1.33,-1.33,-1.33
250.41,4.89,6.21,4.89,6.20,-6.20,-5.94,-7.14,-1.30,-1.31,-1.32
252.92,4.86,6.14,4.86,6.15,-6.15,-5.85,-7.10,-1.28,-1.28,-1.28
255.45,4.83,6.09,4.84,6.10,-6.10,-5.76,-7.03,-1.26,-1.26,-1.26
258.00,4.80,6.03,4.81,6.05,-6.05,-5.67,-6.96,-1.24,-1.24,-1.23
260.58,4.78,6.00,4.78,5.99,-5.99,-5.58,-6.88,-1.21,-1.21,-1.21
263.19,4.74,5.93,4.75,5.93,-5.93,-5.48,-6.78,-1.19,-1.19,-1.19
265.82,4.71,5.88,4.71,5.87,-5.87,-5.39,-6.68,-1.16,-1.16,-1.16
268.48,4.68,5.82,4.68,5.81,-5.81,-5.29,-6.57,-1.13,-1.13,-1.13
271.16,4.64,5.74,4.64,5.75,-5.75,-5.20,-6.45,-1.11,-1.11,-1.10
273.87,4.60,5.69,4.61,5.69,-5.69,-5.10,-6.32,-1.08,-1.08,-1.08
276.61,4.56,5.61,4.57,5.62,-5.62,-5.00,-6.18,-1.06,-1.05,-1.05
279.38,4.53,5.56,4.53,5.55,-5.55,-4.91,-6.04,-1.02,-1.03,-1.03
282.17,4.48,5.49,4.48,5.48,-5.48,-4.81,-5.89,-1.00,-1.00,-1.00
284.99,4.43,5.41,4.44,5.41,-5.41,-4.72,-5.73,-0.98,-0.97,-0.97
287.84,4.38,5.33,4.39,5.34,-5.34,-4.62,-5.57,-0.95,-0.94,-0.95
290.72,4.34,5.25,4.34,5.26,-5.26,-4.52,-5.41,-0.91,-0.91,-0.91
293.63,4.29,5.19,4.29,5.18,-5.18,-4.42,-5.25,-0.88,-0.88,-0.89
296.57,4.24,5.10,4.24,5.09,-5.09,-4.33,-5.08,-0.85,-0.85,-0.85
299.53,4.18,5.01,4.18,5.01,-5.01,-4.23,-4.92,-0.82,-0.82,-0.83
302.53,4.12,4.92,4.12,4.91,-4.91,-4.14,-4.75,-0.79,-0.79,-0.80
305.55,4.06,4.82,4.06,4.82,-4.82,-4.04,-4.58,-0.75,-0.76,-0.75
308.61,4.00,4.73,4.00,4.72,-4.72,-3.94,-4.41,-0.71,-0.72,-0.72
311.69,3.93,4.62,3.92,4.61,-4.61,-3.85,-4.24,-0.68,-0.69,-0.69
314.81,3.86,4.51,3.85,4.51,-4.51,-3.75,-4.07,-0.64,-0.66,-0.65
317.96,3.77,4.39,3.78,4.40,-4.40,-3.65,-3.90,-0.62,-0.62,-0.62
321.14,3.70,4.30,3.70,4.29,-4.29,-3.56,-3.73,-0.59,-0.59,-0.59
324.35,3.61,4.18,3.62,4.18,-4.18,-3.46,-3.57,-0.57,-0.56,-0.56
327.59,3.52,4.05,3.54,4.07,-4.07,-3.37,-3.40,-0.55,-0.53,-0.52
330.87,3.43,3.93,3.46,3.96,-3.96,-3.27,-3.24,-0.53,-0.50,-0.50
334.18,3.33,3.81,3.37,3.84,-3.84,-3.17,-3.08,-0.51,-0.47,-0.48
337.52,3.25,3.70,3.27,3.72,-3.72,-3.08,-2.91,-0.47,-0.45,-0.45
340.90,3.15,3.57,3.17,3.60,-3.60,-2.98,-2.75,-0.44,-0.42,-0.42
344.30,3.06,3.47,3.06,3.46,-3.46,-2.88,-2.60,-0.40,-0.40,-0.40
347.75,2.96,3.34,2.95,3.33,-3.33,-2.79,-2.44,-0.36,-0.38,-0.37
351.23,2.88,3.24,2.82,3.18,-3.18,-2.69,-2.29,-0.30,-0.36,-0.35
354.74,2.76,3.10,2.69,3.03,-3.03,-2.59,-2.13,-0.26,-0.34,-0.34
358.28,2.59,2.91,2.55,2.87,-2.87,-2.49,-1.98,-0.27,-0.32,-0.32
361.87,2.42,2.72,2.40,2.70,-2.70,-2.39,-1.83,-0.28,-0.30,-0.30
365.49,2.25,2.52,2.25,2.53,-2.53,-2.29,-1.68,-0.27,-0.28,-0.27
369.14,2.08,2.34,2.09,2.35,-2.35,-2.19,-1.54,-0.26,-0.26,-0.26
372.83,1.90,2.15,1.92,2.16,-2.16,-2.08,-1.39,-0.25,-0.24,-0.24
376.56,1.74,1.97,1.75,1.97,-1.97,-1.98,-1.25,-0.22,-0.22,-0.22
380.33,1.56,1.76,1.58,1.78,-1.78,-1.87,-1.10,-0.21,-0.20,-0.19
384.13,1.39,1.57,1.41,1.58,-1.58,-1.76,-0.96,-0.19,-0.17,-0.17
387.97,1.22,1.38,1.24,1.39,-1.39,-1.65,-0.82,-0.17,-0.15,-0.15
391.85,1.06,1.20,1.07,1.20,-1.20,-1.53,-0.69,-0.14,-0.13,-0.14
395.77,0.90,1.01,0.91,1.02,-1.02,-1.42,-0.55,-0.12,-0.11,-0.11
399.73,0.75,0.84,0.76,0.85,-0.85,-1.30,-0.42,-0.10,-0.09,-0.09
403.72,0.60,0.67,0.61,0.68,-0.68,-1.17,-0.28,-0.08,-0.07,-0.07
407.76,0.46,0.51,0.47,0.52,-0.52,-1.05,-0.15,-0.06,-0.05,-0.05
411.84,0.32,0.34,0.34,0.36,-0.36,-0.92,-0.02,-0.04,-0.02,-0.02
415.96,0.21,0.21,0.21,0.21,-0.21,-0.78,0.10,0.00,-0.00,0.00
420.12,0.08,0.06,0.09,0.07,-0.07,-0.64,0.23,0.01,0.02,0.02
424.32,-0.03,-0.07,-0.02,-0.07,0.07,-0.50,0.35,0.04,0.04,0.05
428.56,-0.14,-0.20,-0.13,-0.20,0.20,-0.35,0.47,0.06,0.07,0.07
432.85,-0.25,-0.33,-0.23,-0.32,0.32,-0.19,0.58,0.08,0.09,0.09
437.18,-0.35,-0.46,-0.33,-0.45,0.45,-0.03,0.69,0.10,0.12,0.12
441.55,-0.44,-0.58,-0.43,-0.57,0.57,0.13,0.80,0.13,0.14,0.15
445.96,-0.54,-0.70,-0.52,-0.69,0.69,0.31,0.91,0.15,0.17,0.17
450.42,-0.61,-0.79,-0.61,-0.81,0.81,0.49,1.01,0.20,0.20,0.19
454.93,-0.70,-0.92,-0.71,-0.93,0.93,0.67,1.11,0.23,0.22,0.23
459.48,-0.78,-1.02,-0.80,-1.05,1.05,0.86,1.20,0.27,0.25,0.24
464.07,-0.88,-1.15,-0.90,-1.18,1.18,1.06,1.29,0.30,0.28,0.27
468.71,-0.98,-1.29,-1.00,-1.30,1.30,1.27,1.37,0.33,0.31,0.31
473.40,-1.08,-1.41,-1.10,-1.43,1.43,1.47,1.45,0.36,0.33,0.33
478.13,-1.19,-1.55,-1.20,-1.57,1.57,1.69,1.53,0.38,0.36,0.36
482.91,-1.31,-1.70,-1.31,-1.70,1.70,1.90,1.59,0.40,0.39,0.39
487.74,-1.42,-1.84,-1.42,-1.84,1.84,2.11,1.66,0.43,0.42,0.42
492.62,-1.53,-1.98,-1.54,-1.99,1.99,2.32,1.71,0.46,0.45,0.45
497.55,-1.64,-2.11,-1.65,-2.13,2.13,2.53,1.77,0.49,0.48,0.47
502.52,-1.77,-2.28,-1.77,-2.27,2.27,2.72,1.81,0.51,0.51,0.51
507.55,-1.88,-2.41,-1.88,-2.41,2.41,2.90,1.85,0.53,0.53,0.53
512.62,-1.99,-2.55,-1.99,-2.55,2.55,3.06,1.89,0.56,0.56,0.56
517.75,-2.09,-2.68,-2.09,-2.68,2.68,3.20,1.91,0.59,0.59,0.59
522.93,-2.19,-2.81,-2.19,-2.80,2.80,3.31,1.94,0.62,0.62,0.62
