frequency,raw,smoothed,error,error_smoothed,equalization,parametric_eq,fixed_band_eq,equalized_raw,equalized_smoothed,target
20.00,-1.07,-1.07,-8.00,-8.00,6.00,6.49,2.48,4.93,4.93,6.93
20.20,-1.01,-1.02,-7.94,-7.95,6.00,6.47,2.56,4.99,4.98,6.93
20.40,-0.96,-0.96,-7.89,-7.90,6.00,6.45,2.63,5.04,5.04,6.93
20.61,-0.91,-0.91,-7.84,-7.84,6.00,6.43,2.71,5.09,5.09,6.93
20.81,-0.86,-0.86,-7.79,-7.79,6.00,6.40,2.78,5.14,5.14,6.93
21.02,-0.81,-0.81,-7.74,-7.74,6.00,6.38,2.87,5.19,5.19,6.93
21.23,-0.76,-0.77,-7.67,-7.68,6.00,6.36,2.95,5.24,5.23,6.91
21.44,-0.72,-0.72,-7.62,-7.62,6.00,6.33,3.03,5.28,5.28,6.90
21.66,-0.68,-0.68,-7.56,-7.56,6.00,6.31,3.12,5.32,5.32,6.88
21.87,-0.63,-0.63,-7.49,-7.50,6.00,6.28,3.21,5.37,5.37,6.86
22.09,-0.59,-0.59,-7.44,-7.43,6.00,6.26,3.31,5.41,5.41,6.85
22.31,-0.55,-0.55,-7.37,-7.37,6.00,6.23,3.40,5.45,5.45,6.82
22.54,-0.51,-0.51,-7.31,-7.31,6.00,6.21,3.50,5.49,5.49,6.80
22.76,-0.47,-0.47,-7.25,-7.24,6.00,6.18,3.60,5.53,5.53,6.78
22.99,-0.42,-0.42,-7.17,-7.17,6.00,6.15,3.70,5.58,5.58,6.75
23.22,-0.37,-0.37,-7.09,-7.09,6.00,6.13,3.81,5.63,5.63,6.71
23.45,-0.31,-0.32,-7.00,-7.01,6.00,6.10,3.92,5.69,5.68,6.69
23.69,-0.26,-0.26,-6.95,-6.94,6.00,6.07,4.03,5.74,5.74,6.68
23.92,-0.21,-0.21,-6.87,-6.87,6.00,6.04,4.14,5.79,5.79,6.66
24.16,-0.16,-0.16,-6.81,-6.81,6.00,6.02,4.26,5.84,5.84,6.65
24.40,-0.12,-0.12,-6.75,-6.75,6.00,5.99,4.37,5.88,5.88,6.63
24.65,-0.08,-0.08,-6.69,-6.69,6.00,5.96,4.49,5.92,5.92,6.61
24.89,-0.05,-0.05,-6.64,-6.64,6.00,5.93,4.61,5.95,5.95,6.59
25.14,-0.02,-0.02,-6.60,-6.59,6.00,5.90,4.73,5.98,5.98,6.58
25.39,0.01,0.01,-6.55,-6.55,6.00,5.87,4.85,6.01,6.01,6.56
25.65,0.04,0.04,-6.51,-6.50,6.00,5.84,4.98,6.04,6.04,6.55
25.91,0.06,0.06,-6.46,-6.46,6.00,5.81,5.10,6.06,6.06,6.52
26.16,0.09,0.09,-6.41,-6.42,6.00,5.77,5.22,6.09,6.09,6.50
26.43,0.12,0.11,-6.37,-6.37,6.00,5.74,5.34,6.12,6.11,6.49
26.69,0.14,0.14,-6.33,-6.33,6.00,5.71,5.46,6.14,6.14,6.47
26.96,0.17,0.17,-6.29,-6.29,6.01,5.68,5.58,6.17,6.18,6.46
27.23,0.20,0.20,-6.25,-6.25,6.01,5.64,5.70,6.21,6.21,6.45
27.50,0.24,0.23,-6.20,-6.20,6.01,5.61,5.81,6.25,6.25,6.44
27.77,0.27,0.27,-6.15,-6.15,6.01,5.58,5.92,6.28,6.28,6.42
28.05,0.31,0.31,-6.10,-6.09,6.00,5.54,6.02,6.30,6.30,6.40
28.33,0.35,0.35,-6.03,-6.04,5.97,5.51,6.12,6.32,6.32,6.38
28.62,0.39,0.39,-5.98,-5.98,5.95,5.47,6.21,6.33,6.34,6.37
28.90,0.44,0.44,-5.92,-5.92,5.91,5.44,6.29,6.34,6.35,6.36
29.19,0.49,0.49,-5.85,-5.85,5.86,5.40,6.37,6.35,6.35,6.34
29.48,0.55,0.54,-5.79,-5.79,5.80,5.36,6.44,6.35,6.34,6.34
29.78,0.59,0.59,-5.74,-5.73,5.74,5.33,6.50,6.33,6.33,6.32
30.08,0.64,0.64,-5.68,-5.67,5.68,5.29,6.54,6.32,6.32,6.31
30.38,0.69,0.68,-5.60,-5.61,5.61,5.25,6.58,6.30,6.30,6.29
30.68,0.73,0.73,-5.55,-5.55,5.55,5.21,6.61,6.28,6.28,6.28
30.99,0.77,0.77,-5.49,-5.49,5.49,5.18,6.63,6.26,6.26,6.26
31.30,0.81,0.81,-5.44,-5.44,5.44,5.14,6.63,6.24,6.24,6.24
31.61,0.85,0.85,-5.38,-5.38,5.38,5.10,6.62,6.23,6.22,6.23
31.93,0.89,0.89,-5.32,-5.32,5.32,5.06,6.60,6.21,6.20,6.21
32.24,0.93,0.93,-5.25,-5.26,5.26,5.02,6.57,6.19,6.19,6.18
32.57,0.97,0.97,-5.20,-5.19,5.19,4.98,6.53,6.16,6.16,6.17
32.89,1.02,1.01,-5.13,-5.13,5.13,4.94,6.48,6.15,6.14,6.15
33.22,1.06,1.06,-5.06,-5.07,5.06,4.89,6.41,6.12,6.12,6.12
33.55,1.11,1.11,-5.00,-5.00,4.99,4.85,6.34,6.10,6.10,6.11
33.89,1.16,1.16,-4.93,-4.92,4.92,4.81,6.26,6.08,6.08,6.08
34.23,1.21,1.21,-4.85,-4.85,4.85,4.77,6.17,6.06,6.06,6.06
34.57,1.26,1.26,-4.78,-4.78,4.78,4.72,6.08,6.04,6.04,6.04
34.92,1.31,1.31,-4.71,-4.71,4.71,4.68,5.98,6.02,6.02,6.01
35.27,1.36,1.36,-4.64,-4.64,4.64,4.63,5.87,6.00,6.00,6.00
35.62,1.41,1.41,-4.57,-4.57,4.57,4.59,5.76,5.98,5.98,5.98
35.97,1.46,1.46,-4.49,-4.50,4.50,4.54,5.65,5.96,5.96,5.95
36.33,1.51,1.51,-4.43,-4.43,4.43,4.50,5.53,5.94,5.94,5.94
36.70,1.55,1.55,-4.37,-4.36,4.37,4.45,5.41,5.91,5.92,5.92
37.06,1.60,1.60,-4.29,-4.30,4.30,4.41,5.29,5.90,5.89,5.89
37.43,1.64,1.64,-4.24,-4.23,4.23,4.36,5.17,5.87,5.87,5.88
37.81,1.69,1.69,-4.17,-4.17,4.17,4.31,5.05,5.85,5.85,5.85
38.19,1.73,1.73,-4.10,-4.10,4.10,4.26,4.92,5.83,5.83,5.83
38.57,1.78,1.78,-4.04,-4.04,4.04,4.21,4.80,5.81,5.81,5.81
38.95,1.82,1.82,-3.97,-3.97,3.97,4.17,4.68,5.79,5.79,5.79
39.34,1.86,1.86,-3.91,-3.91,3.91,4.12,4.56,5.77,5.77,5.76
39.74,1.90,1.90,-3.84,-3.85,3.85,4.07,4.44,5.75,5.75,5.74
40.14,1.94,1.94,-3.80,-3.79,3.79,4.02,4.32,5.73,5.72,5.73
40.54,1.98,1.98,-3.73,-3.73,3.73,3.96,4.20,5.71,5.71,5.71
40.94,2.02,2.02,-3.67,-3.67,3.67,3.91,4.09,5.69,5.69,5.69
41.35,2.07,2.07,-3.60,-3.61,3.61,3.86,3.98,5.68,5.68,5.67
41.76,2.11,2.11,-3.55,-3.55,3.55,3.81,3.87,5.66,5.66,5.66
42.18,2.15,2.15,-3.50,-3.49,3.49,3.76,3.76,5.64,5.64,5.64
42.60,2.19,2.19,-3.43,-3.44,3.43,3.70,3.66,5.62,5.62,5.62
43.03,2.23,2.23,-3.38,-3.38,3.37,3.65,3.56,5.60,5.60,5.61
43.46,2.27,2.27,-3.31,-3.31,3.31,3.59,3.46,5.58,5.58,5.58
43.90,2.31,2.31,-3.25,-3.25,3.25,3.54,3.36,5.56,5.56,5.56
44.33,2.35,2.35,-3.19,-3.19,3.19,3.48,3.27,5.54,5.54,5.54
44.78,2.39,2.39,-3.13,-3.13,3.13,3.43,3.17,5.52,5.52,5.52
45.23,2.43,2.43,-3.06,-3.07,3.07,3.37,3.08,5.50,5.50,5.49
45.68,2.46,2.46,-3.01,-3.01,3.02,3.31,3.00,5.47,5.48,5.47
46.13,2.50,2.50,-2.95,-2.96,2.96,3.26,2.91,5.46,5.46,5.45
46.60,2.54,2.53,-2.91,-2.91,2.91,3.20,2.83,5.45,5.44,5.44
47.06,2.57,2.57,-2.86,-2.86,2.86,3.14,2.75,5.42,5.42,5.42
47.53,2.60,2.60,-2.81,-2.81,2.80,3.08,2.68,5.40,5.40,5.40
48.01,2.63,2.63,-2.77,-2.76,2.75,3.02,2.60,5.38,5.38,5.39
48.49,2.66,2.66,-2.71,-2.71,2.70,2.96,2.53,5.36,5.36,5.36
48.97,2.68,2.68,-2.65,-2.65,2.65,2.90,2.46,5.33,5.33,5.33
49.46,2.71,2.71,-2.59,-2.59,2.60,2.84,2.39,5.31,5.31,5.30
49.96,2.74,2.73,-2.53,-2.55,2.55,2.78,2.32,5.29,5.28,5.27
50.46,2.76,2.76,-2.51,-2.50,2.50,2.71,2.26,5.26,5.26,5.27
50.96,2.79,2.79,-2.46,-2.45,2.45,2.65,2.19,5.24,5.24,5.24
51.47,2.82,2.81,-2.39,-2.40,2.40,2.59,2.13,5.22,5.21,5.21
51.99,2.84,2.84,-2.35,-2.35,2.35,2.52,2.07,5.19,5.19,5.19
52.51,2.87,2.87,-2.31,-2.30,2.30,2.46,2.01,5.17,5.17,5.17
53.03,2.90,2.90,-2.25,-2.25,2.25,2.39,1.95,5.15,5.15,5.15
53.56,2.92,2.92,-2.21,-2.20,2.20,2.33,1.89,5.12,5.12,5.12
54.10,2.95,2.95,-2.15,-2.15,2.15,2.26,1.84,5.10,5.10,5.10
54.64,2.97,2.97,-2.11,-2.10,2.10,2.19,1.78,5.07,5.08,5.07
55.18,3.00,3.00,-2.05,-2.05,2.05,2.13,1.73,5.05,5.05,5.05
55.74,3.02,3.02,-2.00,-2.01,2.01,2.06,1.67,5.02,5.02,5.02
56.29,3.04,3.04,-1.96,-1.96,1.96,1.99,1.62,4.99,5.00,5.00
56.86,3.07,3.06,-1.91,-1.91,1.91,1.92,1.56,4.98,4.97,4.97
57.42,3.09,3.09,-1.86,-1.86,1.86,1.85,1.51,4.95,4.95,4.95
58.00,3.12,3.12,-1.81,-1.80,1.81,1.78,1.46,4.93,4.93,4.93
58.58,3.15,3.14,-1.75,-1.76,1.76,1.71,1.40,4.91,4.90,4.90
59.16,3.17,3.17,-1.71,-1.70,1.70,1.64,1.35,4.87,4.88,4.88
59.76,3.20,3.20,-1.66,-1.65,1.65,1.56,1.29,4.85,4.85,4.85
60.35,3.23,3.23,-1.59,-1.60,1.59,1.49,1.24,4.82,4.82,4.82
60.96,3.27,3.26,-1.54,-1.54,1.53,1.42,1.18,4.80,4.80,4.81
61.57,3.30,3.30,-1.47,-1.47,1.47,1.34,1.12,4.77,4.77,4.77
62.18,3.33,3.33,-1.41,-1.41,1.41,1.27,1.07,4.74,4.74,4.73
62.80,3.37,3.36,-1.34,-1.34,1.34,1.19,1.01,4.71,4.71,4.71
63.43,3.40,3.40,-1.28,-1.28,1.28,1.12,0.95,4.68,4.68,4.67
64.07,3.44,3.44,-1.21,-1.21,1.22,1.04,0.89,4.65,4.65,4.65
64.71,3.48,3.48,-1.15,-1.15,1.15,0.96,0.82,4.63,4.63,4.63
65.35,3.52,3.52,-1.09,-1.09,1.09,0.89,0.76,4.60,4.60,4.60
66.01,3.56,3.56,-1.03,-1.03,1.02,0.81,0.70,4.58,4.58,4.59
66.67,3.60,3.60,-0.96,-0.96,0.96,0.73,0.63,4.56,4.56,4.56
67.33,3.65,3.65,-0.89,-0.89,0.89,0.65,0.56,4.54,4.54,4.54
68.01,3.69,3.69,-0.82,-0.82,0.83,0.57,0.50,4.51,4.51,4.51
68.69,3.73,3.73,-0.76,-0.75,0.76,0.49,0.43,4.49,4.49,4.49
69.37,3.77,3.77,-0.69,-0.69,0.69,0.41,0.36,4.46,4.46,4.45
70.07,3.81,3.81,-0.62,-0.62,0.62,0.33,0.29,4.42,4.43,4.43
70.77,3.86,3.86,-0.55,-0.55,0.54,0.24,0.22,4.40,4.40,4.41
71.48,3.91,3.91,-0.46,-0.47,0.47,0.16,0.14,4.37,4.37,4.37
72.19,3.96,3.96,-0.39,-0.39,0.39,0.08,0.07,4.34,4.34,4.35
72.91,4.01,4.01,-0.30,-0.30,0.30,-0.01,-0.01,4.31,4.31,4.31
73.64,4.06,4.06,-0.22,-0.22,0.22,-0.09,-0.08,4.28,4.28,4.27
74.38,4.11,4.11,-0.14,-0.13,0.13,-0.17,-0.16,4.24,4.24,4.25
75.12,4.17,4.16,-0.03,-0.04,0.04,-0.26,-0.24,4.21,4.21,4.20
75.87,4.22,4.22,0.05,0.05,-0.05,-0.34,-0.32,4.17,4.17,4.17
76.63,4.28,4.28,0.14,0.15,-0.14,-0.43,-0.40,4.13,4.13,4.14
77.40,4.34,4.33,0.24,0.24,-0.24,-0.52,-0.48,4.10,4.10,4.10
78.17,4.39,4.39,0.34,0.33,-0.33,-0.60,-0.56,4.05,4.06,4.05
78.95,4.45,4.45,0.43,0.43,-0.43,-0.69,-0.64,4.02,4.02,4.02
79.74,4.51,4.51,0.53,0.53,-0.53,-0.78,-0.73,3.98,3.98,3.98
80.54,4.57,4.57,0.63,0.63,-0.63,-0.86,-0.81,3.94,3.94,3.94
81.35,4.62,4.62,0.73,0.73,-0.73,-0.95,-0.90,3.89,3.89,3.89
82.16,4.68,4.68,0.83,0.83,-0.83,-1.04,-0.98,3.84,3.85,3.85
82.98,4.74,4.74,0.93,0.94,-0.94,-1.13,-1.07,3.80,3.80,3.81
83.81,4.80,4.80,1.05,1.04,-1.04,-1.22,-1.16,3.76,3.76,3.75
84.65,4.86,4.86,1.15,1.15,-1.15,-1.30,-1.25,3.71,3.71,3.70
85.50,4.92,4.92,1.25,1.26,-1.25,-1.39,-1.35,3.67,3.67,3.67
86.35,4.98,4.98,1.36,1.36,-1.36,-1.48,-1.44,3.62,3.62,3.62
87.22,5.03,5.03,1.46,1.46,-1.46,-1.57,-1.53,3.56,3.57,3.57
88.09,5.09,5.09,1.57,1.57,-1.57,-1.66,-1.63,3.52,3.52,3.52
88.97,5.14,5.14,1.66,1.67,-1.67,-1.74,-1.73,3.47,3.47,3.48
89.86,5.20,5.20,1.77,1.77,-1.78,-1.83,-1.83,3.42,3.42,3.42
90.76,5.25,5.25,1.89,1.88,-1.88,-1.92,-1.93,3.37,3.37,3.36
91.66,5.30,5.30,1.98,1.99,-1.98,-2.01,-2.03,3.32,3.32,3.32
92.58,5.36,5.35,2.10,2.09,-2.08,-2.10,-2.13,3.27,3.27,3.26
93.51,5.40,5.40,2.18,2.18,-2.19,-2.18,-2.23,3.21,3.21,3.22
94.44,5.45,5.45,2.28,2.28,-2.29,-2.27,-2.34,3.16,3.16,3.17
95.39,5.50,5.50,2.38,2.39,-2.39,-2.36,-2.44,3.11,3.11,3.11
96.34,5.55,5.55,2.50,2.49,-2.49,-2.44,-2.55,3.06,3.05,3.05
97.30,5.59,5.59,2.59,2.59,-2.59,-2.53,-2.66,3.00,3.00,2.99
98.28,5.63,5.63,2.69,2.69,-2.69,-2.62,-2.77,2.94,2.94,2.94
99.26,5.67,5.67,2.80,2.79,-2.79,-2.70,-2.88,2.88,2.88,2.87
100.25,5.71,5.71,2.89,2.89,-2.89,-2.78,-2.99,2.82,2.82,2.82
101.25,5.75,5.74,2.99,2.99,-2.99,-2.87,-3.10,2.76,2.76,2.76
102.27,5.78,5.78,3.08,3.09,-3.08,-2.95,-3.21,2.69,2.70,2.70
103.29,5.81,5.81,3.18,3.18,-3.18,-3.03,-3.32,2.63,2.63,2.63
104.32,5.85,5.84,3.28,3.27,-3.27,-3.12,-3.43,2.58,2.57,2.57
105.37,5.87,5.87,3.35,3.36,-3.36,-3.20,-3.54,2.51,2.51,2.52
106.42,5.90,5.90,3.45,3.45,-3.45,-3.28,-3.65,2.45,2.45,2.45
107.48,5.92,5.92,3.53,3.53,-3.53,-3.36,-3.76,2.39,2.39,2.38
108.56,5.94,5.94,3.62,3.62,-3.62,-3.43,-3.86,2.32,2.32,2.32
109.64,5.95,5.95,3.70,3.69,-3.70,-3.51,-3.97,2.25,2.25,2.25
110.74,5.96,5.96,3.76,3.77,-3.78,-3.59,-4.07,2.18,2.18,2.20
111.85,5.97,5.97,3.84,3.85,-3.85,-3.67,-4.17,2.12,2.12,2.13
112.97,5.98,5.98,3.93,3.92,-3.92,-3.74,-4.26,2.05,2.05,2.04
114.10,5.98,5.98,3.99,3.99,-3.99,-3.81,-4.35,1.99,1.99,1.99
115.24,5.98,5.98,4.05,4.06,-4.05,-3.89,-4.43,1.93,1.92,1.92
116.39,5.97,5.97,4.12,4.11,-4.11,-3.96,-4.52,1.86,1.86,1.85
117.55,5.95,5.95,4.16,4.16,-4.16,-4.03,-4.59,1.79,1.79,1.79
118.73,5.93,5.93,4.21,4.20,-4.19,-4.10,-4.66,1.73,1.73,1.72
119.92,5.90,5.90,4.23,4.24,-4.23,-4.17,-4.72,1.67,1.67,1.67
121.12,5.87,5.87,4.26,4.26,-4.25,-4.23,-4.78,1.62,1.61,1.61
122.33,5.83,5.83,4.29,4.28,-4.28,-4.30,-4.83,1.55,1.55,1.54
123.55,5.79,5.79,4.30,4.30,-4.30,-4.36,-4.88,1.49,1.49,1.49
124.79,5.76,5.76,4.33,4.32,-4.33,-4.43,-4.91,1.42,1.42,1.43
126.03,5.73,5.73,4.35,4.36,-4.37,-4.49,-4.95,1.36,1.36,1.38
127.29,5.72,5.72,4.40,4.41,-4.42,-4.55,-4.97,1.30,1.30,1.32
128.57,5.73,5.73,4.48,4.47,-4.48,-4.61,-4.99,1.25,1.24,1.25
129.85,5.75,5.75,4.55,4.55,-4.55,-4.67,-5.00,1.19,1.19,1.20
131.15,5.78,5.78,4.62,4.63,-4.63,-4.73,-5.01,1.14,1.15,1.15
132.46,5.82,5.82,4.72,4.72,-4.72,-4.78,-5.00,1.10,1.10,1.10
133.79,5.87,5.87,4.81,4.82,-4.81,-4.84,-5.00,1.06,1.06,1.06
135.12,5.92,5.92,4.91,4.90,-4.90,-4.89,-4.99,1.02,1.02,1.00
136.48,5.96,5.96,4.99,4.99,-4.98,-4.94,-4.97,0.98,0.98,0.97
137.84,5.99,5.99,5.05,5.07,-5.05,-4.99,-4.95,0.93,0.94,0.93
139.22,6.02,6.02,5.14,5.13,-5.12,-5.04,-4.93,0.90,0.90,0.88
140.61,6.04,6.04,5.20,5.19,-5.18,-5.09,-4.90,0.86,0.86,0.84
142.02,6.05,6.05,5.22,5.23,-5.22,-5.14,-4.87,0.83,0.82,0.83
143.44,6.05,6.05,5.25,5.26,-5.26,-5.18,-4.84,0.79,0.79,0.80
144.87,6.05,6.05,5.29,5.29,-5.29,-5.23,-4.81,0.75,0.75,0.75
146.32,6.05,6.05,5.32,5.32,-5.32,-5.27,-4.78,0.73,0.73,0.73
147.78,6.05,6.05,5.34,5.35,-5.35,-5.31,-4.75,0.70,0.70,0.71
149.26,6.05,6.04,5.37,5.37,-5.37,-5.35,-4.71,0.67,0.67,0.68
150.75,6.04,6.04,5.40,5.40,-5.40,-5.39,-4.68,0.64,0.64,0.64
152.26,6.04,6.04,5.42,5.43,-5.43,-5.42,-4.65,0.61,0.61,0.61
153.78,6.05,6.04,5.46,5.46,-5.46,-5.46,-4.62,0.59,0.59,0.59
155.32,6.05,6.05,5.48,5.49,-5.49,-5.49,-4.59,0.56,0.56,0.56
156.88,6.06,6.06,5.52,5.52,-5.52,-5.53,-4.56,0.54,0.53,0.54
158.44,6.06,6.06,5.55,5.55,-5.55,-5.56,-4.54,0.51,0.51,0.51
160.03,6.07,6.07,5.59,5.59,-5.59,-5.59,-4.51,0.48,0.48,0.48
161.63,6.07,6.07,5.62,5.62,-5.62,-5.61,-4.49,0.45,0.45,0.44
163.24,6.07,6.07,5.65,5.64,-5.64,-5.64,-4.48,0.42,0.43,0.42
164.88,6.07,6.07,5.67,5.67,-5.67,-5.67,-4.46,0.40,0.40,0.40
166.53,6.06,6.06,5.68,5.69,-5.69,-5.69,-4.45,0.37,0.37,0.37
168.19,6.06,6.05,5.72,5.71,-5.71,-5.71,-4.44,0.35,0.34,0.34
169.87,6.04,6.04,5.73,5.73,-5.73,-5.73,-4.44,0.31,0.31,0.31
171.57,6.03,6.03,5.75,5.74,-5.74,-5.74,-4.43,0.28,0.28,0.28
173.29,6.01,6.01,5.75,5.75,-5.76,-5.76,-4.43,0.25,0.25,0.26
175.02,5.98,5.98,5.76,5.77,-5.77,-5.77,-4.44,0.21,0.21,0.22
176.77,5.96,5.96,5.78,5.78,-5.78,-5.78,-4.45,0.18,0.18,0.18
178.54,5.93,5.93,5.79,5.79,-5.79,-5.79,-4.46,0.14,0.14,0.14
180.32,5.90,5.90,5.79,5.79,-5.79,-5.80,-4.48,0.10,0.11,0.11
182.13,5.87,5.87,5.79,5.80,-5.80,-5.80,-4.50,0.07,0.07,0.08
183.95,5.84,5.84,5.81,5.80,-5.80,-5.80,-4.52,0.04,0.03,0.03
185.79,5.80,5.80,5.80,5.80,-5.80,-5.80,-4.55,-0.00,0.00,0.00
187.65,5.77,5.77,5.81,5.80,-5.80,-5.80,-4.57,-0.03,-0.03,-0.04
189.52,5.73,5.73,5.80,5.79,-5.79,-5.79,-4.61,-0.06,-0.06,-0.07
191.42,5.68,5.68,5.78,5.78,-5.78,-5.78,-4.64,-0.10,-0.09,-0.10
193.33,5.64,5.64,5.76,5.75,-5.76,-5.77,-4.68,-0.12,-0.13,-0.12
195.27,5.59,5.59,5.73,5.74,-5.74,-5.75,-4.72,-0.15,-0.16,-0.15
197.22,5.54,5.54,5.71,5.72,-5.72,-5.73,-4.77,-0.18,-0.18,-0.17
199.19,5.49,5.49,5.71,5.70,-5.69,-5.71,-4.81,-0.21,-0.21,-0.22
201.18,5.44,5.44,5.68,5.67,-5.67,-5.69,-4.86,-0.23,-0.23,-0.24
203.19,5.38,5.38,5.63,5.64,-5.64,-5.66,-4.91,-0.26,-0.25,-0.25
205.23,5.33,5.33,5.61,5.60,-5.60,-5.63,-4.96,-0.27,-0.28,-0.28
207.28,5.27,5.27,5.55,5.56,-5.57,-5.59,-5.01,-0.30,-0.30,-0.28
209.35,5.21,5.21,5.53,5.53,-5.53,-5.56,-5.06,-0.32,-0.32,-0.32
211.44,5.15,5.15,5.49,5.49,-5.48,-5.52,-5.12,-0.33,-0.33,-0.34
213.56,5.09,5.09,5.44,5.44,-5.44,-5.47,-5.17,-0.35,-0.35,-0.36
215.69,5.03,5.03,5.39,5.39,-5.39,-5.43,-5.22,-0.36,-0.36,-0.36
217.85,4.96,4.96,5.33,5.34,-5.34,-5.38,-5.27,-0.38,-0.38,-0.37
220.03,4.90,4.90,5.29,5.29,-5.29,-5.33,-5.32,-0.39,-0.39,-0.39
222.23,4.84,4.84,5.24,5.24,-5.24,-5.27,-5.36,-0.40,-0.40,-0.41
224.45,4.78,4.78,5.18,5.19,-5.19,-5.22,-5.41,-0.41,-0.41,-0.40
226.70,4.73,4.73,5.14,5.14,-5.15,-5.16,-5.44,-0.42,-0.42,-0.41
228.96,4.69,4.69,5.10,5.09,-5.11,-5.10,-5.48,-0.42,-0.42,-0.41
231.25,4.66,4.66,5.06,5.06,-5.07,-5.04,-5.50,-0.41,-0.41,-0.40
233.57,4.63,4.63,5.02,5.03,-5.03,-4.97,-5.53,-0.40,-0.40,-0.39
235.90,4.61,4.61,5.00,5.00,-5.00,-4.90,-5.54,-0.39,-0.39,-0.39
238.26,4.58,4.58,4.97,4.96,-4.96,-4.84,-5.56,-0.38,-0.38,-0.39
240.64,4.55,4.55,4.92,4.92,-4.91,-4.77,-5.56,-0.36,-0.36,-0.37
243.05,4.51,4.51,4.87,4.86,-4.85,-4.70,-5.55,-0.34,-0.35,-0.36
245.48,4.46,4.46,4.79,4.80,-4.79,-4.62,-5.54,-0.33,-0.33,-0.34
247.93,4.40,4.40,4.72,4.72,-4.71,-4.55,-5.52,-0.31,-0.31,-0.32
250.41,4.33,4.32,4.64,4.63,-4.62,-4.47,-5.49,-0.29,-0.29,-0.31
252.92,4.24,4.24,4.52,4.52,-4.52,-4.40,-5.45,-0.28,-0.28,-0.28
255.45,4.15,4.15,4.40,4.41,-4.41,-4.32,-5.40,-0.26,-0.26,-0.26
258.00,4.06,4.06,4.29,4.30,-4.31,-4.24,-5.35,-0.25,-0.25,-0.23
260.58,3.98,3.97,4.20,4.19,-4.20,-4.16,-5.28,-0.22,-0.23,-0.22
263.19,3.89,3.89,4.09,4.09,-4.10,-4.08,-5.21,-0.21,-0.20,-0.20
265.82,3.82,3.82,3.99,3.99,-4.00,-4.01,-5.13,-0.18,-0.18,-0.17
268.48,3.75,3.75,3.90,3.90,-3.91,-3.93,-5.05,-0.16,-0.15,-0.15
271.16,3.70,3.69,3.81,3.81,-3.82,-3.85,-4.96,-0.12,-0.13,-0.12
273.87,3.64,3.64,3.74,3.73,-3.74,-3.76,-4.86,-0.10,-0.10,-0.10
276.61,3.59,3.59,3.65,3.66,-3.66,-3.68,-4.75,-0.07,-0.07,-0.07
279.38,3.54,3.54,3.59,3.59,-3.58,-3.60,-4.65,-0.04,-0.04,-0.05
282.17,3.49,3.49,3.51,3.51,-3.51,-3.52,-4.53,-0.02,-0.02,-0.03
284.99,3.44,3.43,3.44,3.44,-3.43,-3.44,-4.41,0.01,0.01,-0.00
287.84,3.38,3.38,3.35,3.35,-3.35,-3.36,-4.29,0.03,0.03,0.02
290.72,3.32,3.32,3.26,3.27,-3.27,-3.28,-4.17,0.05,0.05,0.06
293.63,3.27,3.26,3.19,3.18,-3.19,-3.20,-4.04,0.08,0.08,0.07
296.57,3.21,3.21,3.10,3.10,-3.11,-3.12,-3.92,0.10,0.10,0.11
299.53,3.16,3.16,3.02,3.03,-3.03,-3.04,-3.79,0.13,0.13,0.14
302.53,3.12,3.11,2.96,2.94,-2.95,-2.96,-3.66,0.17,0.17,0.16
305.55,3.07,3.07,2.86,2.87,-2.87,-2.88,-3.52,0.20,0.20,0.21
308.61,3.03,3.03,2.79,2.79,-2.79,-2.80,-3.39,0.23,0.24,0.24
311.69,2.99,2.99,2.72,2.71,-2.72,-2.72,-3.26,0.27,0.27,0.27
314.81,2.95,2.95,2.64,2.64,-2.64,-2.64,-3.13,0.31,0.31,0.31
317.96,2.90,2.90,2.56,2.56,-2.56,-2.56,-3.00,0.34,0.34,0.33
321.14,2.85,2.85,2.49,2.48,-2.48,-2.48,-2.87,0.37,0.37,0.36
324.35,2.79,2.79,2.40,2.40,-2.39,-2.40,-2.74,0.39,0.39,0.39
327.59,2.73,2.73,2.30,2.31,-2.31,-2.32,-2.61,0.42,0.42,0.43
330.87,2.67,2.67,2.22,2.22,-2.22,-2.24,-2.48,0.44,0.44,0.45
334.18,2.61,2.61,2.14,2.13,-2.14,-2.16,-2.36,0.47,0.47,0.47
337.52,2.55,2.55,2.05,2.05,-2.05,-2.08,-2.23,0.50,0.50,0.50
340.90,2.49,2.49,1.96,1.96,-1.96,-2.00,-2.11,0.53,0.53,0.52
344.30,2.42,2.42,1.88,1.87,-1.88,-1.93,-1.98,0.54,0.55,0.54
347.75,2.36,2.36,1.79,1.79,-1.79,-1.85,-1.86,0.57,0.57,0.57
351.23,2.29,2.29,1.70,1.70,-1.71,-1.77,-1.74,0.58,0.58,0.59
354.74,2.23,2.23,1.62,1.62,-1.62,-1.69,-1.62,0.60,0.60,0.61
358.28,2.17,2.17,1.54,1.54,-1.54,-1.61,-1.50,0.62,0.62,0.62
361.87,2.11,2.11,1.47,1.46,-1.46,-1.54,-1.38,0.65,0.65,0.64
365.49,2.05,2.05,1.38,1.39,-1.38,-1.46,-1.27,0.66,0.66,0.67
369.14,1.99,1.99,1.31,1.31,-1.31,-1.38,-1.15,0.68,0.68,0.68
372.83,1.93,1.93,1.23,1.23,-1.23,-1.30,-1.04,0.70,0.70,0.70
376.56,1.87,1.87,1.15,1.15,-1.15,-1.23,-0.93,0.72,0.72,0.71
380.33,1.82,1.82,1.08,1.08,-1.08,-1.15,-0.82,0.74,0.74,0.74
384.13,1.76,1.76,1.00,1.00,-1.00,-1.07,-0.71,0.76,0.76,0.76
387.97,1.71,1.71,0.93,0.92,-0.93,-1.00,-0.60,0.78,0.78,0.78
391.85,1.65,1.65,0.85,0.85,-0.85,-0.92,-0.49,0.80,0.80,0.80
395.77,1.60,1.60,0.77,0.78,-0.78,-0.84,-0.39,0.82,0.82,0.83
399.73,1.55,1.55,0.70,0.70,-0.71,-0.77,-0.28,0.84,0.84,0.84
403.72,1.50,1.50,0.63,0.63,-0.63,-0.69,-0.18,0.87,0.87,0.86
407.76,1.45,1.45,0.57,0.56,-0.56,-0.61,-0.08,0.89,0.89,0.88
411.84,1.40,1.40,0.49,0.49,-0.49,-0.54,0.02,0.91,0.91,0.91
415.96,1.35,1.35,0.42,0.42,-0.41,-0.46,0.12,0.93,0.93,0.93
420.12,1.29,1.29,0.34,0.34,-0.34,-0.39,0.22,0.95,0.95,0.95
424.32,1.24,1.24,0.26,0.27,-0.27,-0.31,0.31,0.97,0.97,0.98
428.56,1.19,1.18,0.19,0.19,-0.19,-0.23,0.41,1.00,0.99,1.00
432.85,1.13,1.13,0.11,0.11,-0.11,-0.16,0.50,1.02,1.02,1.02
437.18,1.08,1.08,0.03,0.03,-0.03,-0.08,0.59,1.04,1.04,1.04
441.55,1.03,1.03,-0.04,-0.04,0.04,-0.01,0.67,1.07,1.07,1.07
445.96,0.97,0.97,-0.12,-0.12,0.12,0.07,0.76,1.09,1.10,1.09
450.42,0.92,0.92,-0.19,-0.20,0.20,0.15,0.84,1.12,1.12,1.11
454.93,0.86,0.86,-0.29,-0.28,0.28,0.22,0.92,1.14,1.15,1.15
459.48,0.81,0.81,-0.36,-0.37,0.36,0.30,0.99,1.17,1.17,1.17
464.07,0.76,0.76,-0.44,-0.45,0.44,0.37,1.07,1.20,1.20,1.20
468.71,0.71,0.71,-0.53,-0.52,0.52,0.45,1.14,1.23,1.23,1.24
473.40,0.67,0.66,-0.59,-0.60,0.59,0.52,1.20,1.26,1.26,1.26
478.13,0.62,0.62,-0.67,-0.67,0.67,0.60,1.26,1.28,1.29,1.29
482.91,0.58,0.58,-0.74,-0.74,0.74,0.67,1.32,1.32,1.32,1.32
487.74,0.54,0.54,-0.81,-0.81,0.81,0.75,1.38,1.35,1.34,1.35
492.62,0.50,0.50,-0.88,-0.87,0.88,0.82,1.43,1.37,1.37,1.37
497.55,0.46,0.46,-0.94,-0.94,0.94,0.90,1.48,1.40,1.40,1.39
502.52,0.42,0.42,-1.02,-1.01,1.01,0.97,1.52,1.43,1.43,1.43
507.55,0.38,0.38,-1.07,-1.08,1.08,1.04,1.56,1.46,1.46,1.45
512.62,0.34,0.34,-1.14,-1.15,1.15,1.12,1.60,1.48,1.48,1.48
517.75,0.30,0.30,-1.21,-1.21,1.21,1.19,1.63,1.51,1.51,1.51
522.93,0.26,0.26,-1.28,-1.28,1.28,1.26,1.66,1.54,1.54,1.54
528.16,0.22,0.22,-1.34,-1.35,1.34,1.33,1.69,1.56,1.56,1.56
533.44,0.18,0.18,-1.41,-1.41,1.41,1.40,1.71,1.59,1.59,1.59
538.77,0.15,0.15,-1.47,-1.47,1.47,1.47,1.73,1.62,1.62,1.62
544.16,0.11,0.11,-1.54,-1.54,1.54,1.54,1.75,1.65,1.65,1.65
