frequency,raw,smoothed,error,error_smoothed,equalization,parametric_eq,fixed_band_eq,equalized_raw,equalized_smoothed,target
20.00,-4.63,-4.63,-9.31,-9.30,6.00,6.19,2.74,1.37,1.37,4.68
20.20,-4.63,-4.63,-9.31,-9.30,6.00,6.19,2.82,1.37,1.37,4.68
20.40,-4.62,-4.62,-9.29,-9.30,6.00,6.19,2.90,1.38,1.38,4.67
20.61,-4.61,-4.61,-9.28,-9.29,6.00,6.19,2.98,1.39,1.39,4.67
20.81,-4.61,-4.61,-9.28,-9.28,6.00,6.19,3.07,1.39,1.39,4.67
21.02,-4.60,-4.60,-9.27,-9.27,6.00,6.19,3.16,1.40,1.40,4.67
21.23,-4.59,-4.59,-9.24,-9.25,6.00,6.19,3.24,1.41,1.41,4.65
21.44,-4.58,-4.58,-9.22,-9.22,6.00,6.19,3.34,1.42,1.42,4.64
21.66,-4.56,-4.56,-9.18,-9.19,6.00,6.19,3.43,1.44,1.44,4.62
21.87,-4.55,-4.55,-9.15,-9.15,6.00,6.19,3.53,1.45,1.45,4.60
22.09,-4.53,-4.53,-9.12,-9.12,6.00,6.19,3.63,1.47,1.47,4.59
22.31,-4.52,-4.52,-9.08,-9.08,6.00,6.19,3.73,1.48,1.48,4.56
22.54,-4.50,-4.50,-9.04,-9.04,6.00,6.18,3.84,1.50,1.50,4.54
22.76,-4.49,-4.49,-9.01,-9.00,6.00,6.18,3.95,1.51,1.51,4.52
22.99,-4.47,-4.47,-8.96,-8.96,6.00,6.18,4.06,1.53,1.53,4.49
23.22,-4.46,-4.46,-8.92,-8.92,6.00,6.18,4.17,1.54,1.54,4.46
23.45,-4.44,-4.44,-8.88,-8.88,6.00,6.18,4.29,1.56,1.56,4.44
23.69,-4.42,-4.42,-8.85,-8.85,6.00,6.18,4.41,1.58,1.58,4.43
23.92,-4.41,-4.41,-8.81,-8.81,6.00,6.18,4.53,1.59,1.59,4.40
24.16,-4.39,-4.39,-8.78,-8.78,6.00,6.18,4.65,1.61,1.61,4.39
24.40,-4.37,-4.37,-8.74,-8.74,6.00,6.18,4.78,1.63,1.63,4.37
24.65,-4.34,-4.34,-8.69,-8.70,6.00,6.18,4.90,1.66,1.66,4.35
24.89,-4.32,-4.32,-8.65,-8.65,6.00,6.17,5.03,1.68,1.68,4.33
25.14,-4.30,-4.30,-8.62,-8.62,6.00,6.17,5.16,1.70,1.70,4.32
25.39,-4.28,-4.28,-8.58,-8.58,6.00,6.17,5.30,1.72,1.72,4.30
25.65,-4.25,-4.25,-8.54,-8.54,6.00,6.17,5.43,1.75,1.75,4.29
25.91,-4.23,-4.23,-8.49,-8.49,6.00,6.17,5.56,1.77,1.77,4.26
26.16,-4.21,-4.21,-8.46,-8.45,6.00,6.17,5.70,1.79,1.79,4.25
26.43,-4.18,-4.18,-8.42,-8.41,6.00,6.17,5.83,1.82,1.82,4.23
26.69,-4.16,-4.16,-8.37,-8.38,6.00,6.17,5.96,1.84,1.84,4.21
26.96,-4.14,-4.14,-8.34,-8.34,6.00,6.16,6.09,1.86,1.86,4.20
27.23,-4.11,-4.11,-8.30,-8.30,6.00,6.16,6.22,1.89,1.89,4.19
27.50,-4.09,-4.09,-8.27,-8.27,6.00,6.16,6.35,1.91,1.91,4.18
27.77,-4.06,-4.06,-8.22,-8.22,6.00,6.16,6.47,1.94,1.94,4.16
28.05,-4.04,-4.04,-8.19,-8.18,6.00,6.16,6.59,1.96,1.96,4.15
28.33,-4.01,-4.01,-8.14,-8.14,6.00,6.16,6.70,1.99,1.99,4.13
28.62,-3.99,-3.99,-8.10,-8.10,6.00,6.15,6.81,2.01,2.01,4.11
28.90,-3.97,-3.97,-8.07,-8.07,6.00,6.15,6.91,2.03,2.03,4.10
29.19,-3.94,-3.94,-8.02,-8.03,6.00,6.15,7.00,2.06,2.06,4.08
29.48,-3.92,-3.92,-8.00,-7.99,6.00,6.15,7.09,2.08,2.08,4.08
29.78,-3.89,-3.89,-7.96,-7.96,6.00,6.15,7.17,2.11,2.11,4.07
30.08,-3.87,-3.87,-7.93,-7.92,6.00,6.14,7.23,2.13,2.13,4.06
30.38,-3.85,-3.85,-7.88,-7.88,6.00,6.14,7.29,2.15,2.15,4.03
30.68,-3.82,-3.82,-7.84,-7.84,6.00,6.14,7.34,2.18,2.18,4.02
30.99,-3.80,-3.80,-7.80,-7.81,6.00,6.14,7.38,2.20,2.20,4.00
31.30,-3.79,-3.79,-7.78,-7.77,6.00,6.13,7.41,2.21,2.21,3.99
31.61,-3.77,-3.77,-7.74,-7.74,6.00,6.13,7.43,2.23,2.23,3.97
31.93,-3.76,-3.76,-7.71,-7.71,6.00,6.13,7.43,2.24,2.24,3.95
32.24,-3.75,-3.75,-7.67,-7.67,6.00,6.13,7.43,2.25,2.25,3.92
32.57,-3.73,-3.73,-7.64,-7.64,6.00,6.12,7.41,2.27,2.27,3.91
32.89,-3.72,-3.72,-7.61,-7.61,6.00,6.12,7.40,2.28,2.28,3.89
33.22,-3.71,-3.71,-7.57,-7.58,6.00,6.12,7.36,2.29,2.29,3.86
33.55,-3.70,-3.70,-7.55,-7.54,6.00,6.11,7.33,2.30,2.30,3.85
33.89,-3.68,-3.68,-7.51,-7.51,6.00,6.11,7.28,2.32,2.32,3.83
34.23,-3.67,-3.67,-7.47,-7.47,6.00,6.11,7.23,2.33,2.33,3.80
34.57,-3.66,-3.66,-7.44,-7.44,6.00,6.10,7.17,2.34,2.34,3.78
34.92,-3.65,-3.65,-7.41,-7.41,6.00,6.10,7.11,2.35,2.35,3.76
35.27,-3.63,-3.63,-7.37,-7.37,6.00,6.10,7.04,2.37,2.37,3.74
35.62,-3.62,-3.62,-7.34,-7.34,6.00,6.09,6.97,2.38,2.38,3.72
35.97,-3.61,-3.61,-7.31,-7.31,6.00,6.09,6.89,2.39,2.39,3.70
36.33,-3.60,-3.60,-7.28,-7.28,6.00,6.08,6.82,2.40,2.40,3.68
36.70,-3.59,-3.59,-7.25,-7.25,6.00,6.08,6.74,2.41,2.41,3.66
37.06,-3.58,-3.58,-7.21,-7.22,6.00,6.07,6.67,2.42,2.42,3.63
37.43,-3.56,-3.56,-7.18,-7.18,6.00,6.07,6.59,2.44,2.44,3.62
37.81,-3.55,-3.55,-7.15,-7.15,6.00,6.06,6.51,2.45,2.45,3.60
38.19,-3.54,-3.54,-7.11,-7.12,6.00,6.06,6.44,2.46,2.46,3.57
38.57,-3.53,-3.53,-7.09,-7.08,6.00,6.05,6.37,2.47,2.47,3.56
38.95,-3.52,-3.52,-7.05,-7.05,6.00,6.05,6.30,2.48,2.48,3.53
39.34,-3.51,-3.51,-7.02,-7.02,6.00,6.04,6.23,2.49,2.49,3.51
39.74,-3.50,-3.50,-6.98,-6.99,6.00,6.04,6.16,2.50,2.50,3.48
40.14,-3.49,-3.49,-6.97,-6.96,6.00,6.03,6.10,2.51,2.51,3.48
40.54,-3.48,-3.48,-6.93,-6.93,6.00,6.02,6.04,2.52,2.52,3.45
40.94,-3.47,-3.47,-6.91,-6.90,6.00,6.02,5.98,2.53,2.53,3.44
41.35,-3.46,-3.46,-6.87,-6.88,6.00,6.01,5.93,2.54,2.54,3.41
41.76,-3.45,-3.45,-6.85,-6.85,6.00,6.00,5.89,2.55,2.55,3.40
42.18,-3.44,-3.44,-6.83,-6.82,6.00,6.00,5.84,2.56,2.56,3.39
42.60,-3.43,-3.43,-6.79,-6.80,6.00,5.99,5.80,2.57,2.57,3.36
43.03,-3.42,-3.42,-6.77,-6.76,6.00,5.98,5.77,2.58,2.58,3.35
43.46,-3.40,-3.40,-6.73,-6.73,6.00,5.97,5.74,2.60,2.60,3.33
43.90,-3.39,-3.39,-6.69,-6.69,6.00,5.97,5.71,2.61,2.61,3.30
44.33,-3.38,-3.38,-6.66,-6.66,6.00,5.96,5.69,2.62,2.62,3.28
44.78,-3.38,-3.38,-6.64,-6.63,6.00,5.95,5.67,2.62,2.62,3.26
45.23,-3.37,-3.37,-6.60,-6.61,6.00,5.94,5.66,2.63,2.63,3.23
45.68,-3.36,-3.36,-6.58,-6.58,6.00,5.93,5.65,2.64,2.64,3.22
46.13,-3.35,-3.35,-6.55,-6.55,6.00,5.92,5.64,2.65,2.65,3.20
46.60,-3.34,-3.34,-6.53,-6.53,6.00,5.91,5.64,2.66,2.66,3.19
47.06,-3.34,-3.34,-6.51,-6.51,6.00,5.90,5.64,2.66,2.66,3.17
47.53,-3.33,-3.33,-6.48,-6.48,6.00,5.89,5.65,2.67,2.67,3.15
48.01,-3.33,-3.33,-6.47,-6.46,6.00,5.88,5.66,2.67,2.67,3.14
48.49,-3.32,-3.32,-6.43,-6.43,6.00,5.86,5.67,2.68,2.68,3.11
48.97,-3.32,-3.32,-6.40,-6.39,6.00,5.85,5.69,2.68,2.68,3.08
49.46,-3.31,-3.31,-6.35,-6.36,6.00,5.84,5.71,2.69,2.69,3.04
49.96,-3.31,-3.31,-6.32,-6.33,6.00,5.83,5.74,2.69,2.69,3.01
50.46,-3.31,-3.31,-6.32,-6.31,6.00,5.81,5.76,2.69,2.69,3.01
50.96,-3.30,-3.30,-6.29,-6.29,6.00,5.80,5.79,2.70,2.70,2.99
51.47,-3.30,-3.30,-6.25,-6.26,6.00,5.78,5.82,2.70,2.70,2.95
51.99,-3.30,-3.30,-6.23,-6.23,6.00,5.77,5.85,2.70,2.70,2.93
52.51,-3.29,-3.29,-6.21,-6.21,6.00,5.75,5.89,2.71,2.71,2.92
53.03,-3.29,-3.29,-6.18,-6.18,6.00,5.74,5.92,2.71,2.71,2.89
53.56,-3.29,-3.29,-6.16,-6.16,6.00,5.72,5.96,2.71,2.71,2.87
54.10,-3.29,-3.29,-6.13,-6.13,6.00,5.70,5.99,2.71,2.72,2.84
54.64,-3.28,-3.28,-6.10,-6.10,6.01,5.69,6.03,2.73,2.72,2.82
55.18,-3.28,-3.28,-6.07,-6.07,6.00,5.67,6.06,2.72,2.72,2.79
55.74,-3.28,-3.28,-6.04,-6.05,6.00,5.65,6.09,2.72,2.72,2.76
56.29,-3.28,-3.28,-6.03,-6.02,5.99,5.63,6.12,2.71,2.71,2.75
56.86,-3.28,-3.28,-6.00,-5.99,5.98,5.61,6.15,2.70,2.70,2.72
57.42,-3.27,-3.27,-5.96,-5.97,5.96,5.59,6.17,2.69,2.69,2.69
58.00,-3.27,-3.27,-5.94,-5.94,5.94,5.57,6.19,2.67,2.67,2.67
58.58,-3.27,-3.27,-5.91,-5.91,5.92,5.55,6.20,2.65,2.65,2.64
59.16,-3.26,-3.26,-5.88,-5.88,5.89,5.52,6.21,2.63,2.62,2.62
59.76,-3.26,-3.26,-5.86,-5.85,5.85,5.50,6.21,2.59,2.60,2.60
60.35,-3.25,-3.25,-5.82,-5.82,5.82,5.48,6.21,2.57,2.57,2.57
60.96,-3.24,-3.24,-5.79,-5.79,5.78,5.45,6.20,2.54,2.54,2.55
61.57,-3.24,-3.24,-5.75,-5.75,5.75,5.43,6.18,2.51,2.51,2.51
62.18,-3.23,-3.23,-5.71,-5.71,5.71,5.40,6.16,2.48,2.48,2.48
62.80,-3.22,-3.22,-5.67,-5.67,5.67,5.37,6.13,2.45,2.45,2.45
63.43,-3.21,-3.21,-5.63,-5.63,5.64,5.35,6.09,2.43,2.43,2.42
64.07,-3.20,-3.20,-5.59,-5.59,5.60,5.32,6.05,2.40,2.40,2.39
64.71,-3.19,-3.19,-5.56,-5.56,5.56,5.29,6.00,2.37,2.37,2.37
65.35,-3.18,-3.18,-5.53,-5.53,5.52,5.26,5.94,2.35,2.35,2.35
66.01,-3.16,-3.16,-5.49,-5.49,5.49,5.23,5.88,2.33,2.33,2.33
66.67,-3.15,-3.15,-5.45,-5.45,5.45,5.20,5.81,2.30,2.30,2.30
67.33,-3.14,-3.14,-5.42,-5.42,5.42,5.16,5.74,2.28,2.28,2.28
68.01,-3.13,-3.13,-5.38,-5.38,5.38,5.13,5.66,2.25,2.25,2.25
68.69,-3.11,-3.11,-5.34,-5.34,5.34,5.10,5.57,2.23,2.23,2.23
69.37,-3.09,-3.09,-5.29,-5.29,5.30,5.06,5.49,2.21,2.20,2.20
70.07,-3.08,-3.08,-5.25,-5.25,5.25,5.02,5.39,2.17,2.18,2.17
70.77,-3.06,-3.06,-5.21,-5.21,5.21,4.99,5.30,2.15,2.15,2.15
71.48,-3.05,-3.05,-5.17,-5.17,5.16,4.95,5.20,2.11,2.11,2.12
72.19,-3.03,-3.03,-5.12,-5.12,5.11,4.91,5.10,2.08,2.09,2.09
72.91,-3.01,-3.01,-5.06,-5.07,5.07,4.87,5.00,2.06,2.05,2.05
73.64,-2.99,-2.99,-5.01,-5.01,5.01,4.83,4.90,2.02,2.02,2.02
74.38,-2.98,-2.98,-4.97,-4.96,4.96,4.79,4.80,1.98,1.98,1.99
75.12,-2.96,-2.96,-4.90,-4.91,4.91,4.75,4.69,1.95,1.95,1.94
75.87,-2.94,-2.94,-4.85,-4.85,4.85,4.70,4.59,1.91,1.91,1.91
76.63,-2.92,-2.92,-4.80,-4.79,4.80,4.66,4.49,1.88,1.88,1.88
77.40,-2.90,-2.90,-4.74,-4.74,4.74,4.61,4.39,1.84,1.84,1.84
78.17,-2.88,-2.88,-4.67,-4.68,4.68,4.57,4.29,1.80,1.80,1.79
78.95,-2.87,-2.87,-4.64,-4.63,4.63,4.52,4.19,1.76,1.76,1.77
79.74,-2.85,-2.85,-4.57,-4.57,4.57,4.47,4.09,1.72,1.72,1.72
80.54,-2.83,-2.83,-4.51,-4.51,4.51,4.42,4.00,1.68,1.68,1.68
81.35,-2.81,-2.81,-4.44,-4.45,4.45,4.37,3.90,1.64,1.63,1.63
82.16,-2.80,-2.80,-4.39,-4.39,4.39,4.32,3.81,1.59,1.59,1.59
82.98,-2.78,-2.78,-4.33,-4.32,4.32,4.27,3.72,1.54,1.54,1.55
83.81,-2.76,-2.76,-4.25,-4.26,4.26,4.22,3.63,1.50,1.50,1.49
84.65,-2.74,-2.74,-4.19,-4.19,4.20,4.17,3.55,1.46,1.46,1.45
85.50,-2.73,-2.73,-4.14,-4.13,4.13,4.11,3.46,1.40,1.41,1.41
86.35,-2.71,-2.71,-4.07,-4.07,4.07,4.06,3.38,1.36,1.36,1.36
87.22,-2.70,-2.70,-4.01,-4.01,4.01,4.00,3.30,1.31,1.31,1.31
88.09,-2.68,-2.68,-3.94,-3.95,3.94,3.95,3.23,1.26,1.26,1.26
88.97,-2.67,-2.67,-3.89,-3.88,3.88,3.89,3.15,1.21,1.21,1.22
89.86,-2.65,-2.65,-3.82,-3.82,3.81,3.83,3.08,1.16,1.16,1.17
90.76,-2.64,-2.64,-3.74,-3.75,3.75,3.77,3.01,1.11,1.11,1.10
91.66,-2.62,-2.62,-3.68,-3.68,3.68,3.72,2.95,1.06,1.06,1.06
92.58,-2.61,-2.61,-3.61,-3.62,3.62,3.66,2.88,1.01,1.01,1.00
93.51,-2.59,-2.59,-3.56,-3.55,3.55,3.59,2.82,0.96,0.96,0.96
94.44,-2.58,-2.58,-3.49,-3.49,3.48,3.53,2.76,0.90,0.91,0.91
95.39,-2.56,-2.56,-3.42,-3.42,3.41,3.47,2.70,0.85,0.85,0.86
96.34,-2.55,-2.55,-3.34,-3.35,3.34,3.41,2.65,0.79,0.79,0.79
97.30,-2.54,-2.54,-3.28,-3.27,3.27,3.35,2.59,0.73,0.74,0.74
98.28,-2.52,-2.52,-3.20,-3.20,3.20,3.28,2.54,0.68,0.68,0.68
99.26,-2.51,-2.51,-3.13,-3.13,3.13,3.22,2.49,0.62,0.62,0.62
100.25,-2.49,-2.49,-3.05,-3.05,3.05,3.16,2.44,0.56,0.56,0.56
101.25,-2.48,-2.48,-2.98,-2.98,2.98,3.09,2.40,0.50,0.50,0.50
102.27,-2.47,-2.47,-2.91,-2.90,2.91,3.03,2.35,0.44,0.44,0.44
103.29,-2.45,-2.45,-2.82,-2.83,2.83,2.96,2.31,0.38,0.38,0.37
104.32,-2.44,-2.44,-2.76,-2.76,2.76,2.89,2.27,0.32,0.32,0.32
105.37,-2.43,-2.43,-2.69,-2.68,2.68,2.83,2.23,0.25,0.25,0.26
106.42,-2.42,-2.42,-2.61,-2.61,2.61,2.76,2.19,0.19,0.19,0.19
107.48,-2.40,-2.40,-2.53,-2.53,2.53,2.70,2.15,0.13,0.13,0.13
108.56,-2.39,-2.39,-2.45,-2.45,2.45,2.63,2.11,0.06,0.06,0.06
109.64,-2.38,-2.38,-2.37,-2.37,2.37,2.56,2.08,-0.01,-0.00,-0.01
110.74,-2.36,-2.36,-2.30,-2.30,2.30,2.49,2.04,-0.06,-0.07,-0.06
111.85,-2.35,-2.35,-2.22,-2.22,2.22,2.43,2.01,-0.13,-0.14,-0.13
112.97,-2.34,-2.34,-2.13,-2.14,2.14,2.36,1.97,-0.20,-0.20,-0.21
114.10,-2.33,-2.33,-2.06,-2.06,2.06,2.29,1.94,-0.27,-0.27,-0.27
115.24,-2.31,-2.31,-1.98,-1.97,1.98,2.22,1.91,-0.33,-0.34,-0.33
116.39,-2.30,-2.30,-1.89,-1.90,1.90,2.16,1.87,-0.40,-0.40,-0.41
117.55,-2.29,-2.29,-1.82,-1.82,1.82,2.09,1.84,-0.47,-0.47,-0.47
118.73,-2.28,-2.28,-1.74,-1.74,1.75,2.02,1.81,-0.53,-0.53,-0.54
119.92,-2.26,-2.26,-1.67,-1.67,1.67,1.95,1.77,-0.59,-0.59,-0.59
121.12,-2.25,-2.25,-1.60,-1.60,1.60,1.88,1.74,-0.65,-0.65,-0.65
122.33,-2.24,-2.24,-1.53,-1.53,1.53,1.82,1.71,-0.71,-0.71,-0.71
123.55,-2.23,-2.23,-1.46,-1.46,1.46,1.75,1.67,-0.77,-0.77,-0.77
124.79,-2.22,-2.22,-1.39,-1.40,1.39,1.68,1.64,-0.83,-0.83,-0.83
126.03,-2.21,-2.21,-1.33,-1.33,1.32,1.61,1.60,-0.89,-0.89,-0.88
127.29,-2.20,-2.20,-1.26,-1.26,1.26,1.54,1.57,-0.94,-0.94,-0.94
128.57,-2.19,-2.19,-1.18,-1.19,1.19,1.48,1.53,-1.00,-1.00,-1.01
129.85,-2.18,-2.18,-1.12,-1.12,1.13,1.41,1.49,-1.05,-1.05,-1.06
131.15,-2.17,-2.17,-1.07,-1.06,1.07,1.34,1.46,-1.10,-1.10,-1.10
132.46,-2.16,-2.16,-1.00,-1.01,1.00,1.27,1.42,-1.16,-1.16,-1.16
133.79,-2.15,-2.15,-0.95,-0.95,0.94,1.21,1.38,-1.21,-1.21,-1.20
135.12,-2.14,-2.14,-0.89,-0.89,0.89,1.14,1.35,-1.25,-1.25,-1.25
136.48,-2.12,-2.12,-0.83,-0.84,0.83,1.07,1.31,-1.29,-1.29,-1.29
137.84,-2.11,-2.11,-0.79,-0.78,0.78,1.01,1.27,-1.33,-1.33,-1.32
139.22,-2.10,-2.10,-0.72,-0.73,0.73,0.94,1.23,-1.37,-1.37,-1.38
140.61,-2.09,-2.09,-0.67,-0.68,0.69,0.87,1.19,-1.40,-1.40,-1.42
142.02,-2.08,-2.08,-0.65,-0.64,0.64,0.81,1.15,-1.44,-1.44,-1.43
143.44,-2.07,-2.07,-0.61,-0.60,0.60,0.74,1.11,-1.47,-1.47,-1.46
144.87,-2.06,-2.06,-0.56,-0.56,0.56,0.67,1.07,-1.50,-1.50,-1.50
146.32,-2.05,-2.05,-0.52,-0.52,0.52,0.61,1.03,-1.53,-1.53,-1.53
147.78,-2.04,-2.04,-0.49,-0.48,0.48,0.54,0.99,-1.56,-1.56,-1.55
149.26,-2.03,-2.03,-0.45,-0.45,0.45,0.48,0.95,-1.58,-1.58,-1.58
150.75,-2.02,-2.02,-0.40,-0.41,0.41,0.42,0.91,-1.61,-1.61,-1.62
152.26,-2.01,-2.01,-0.37,-0.37,0.37,0.35,0.87,-1.64,-1.64,-1.64
153.78,-2.00,-2.00,-0.33,-0.33,0.33,0.29,0.83,-1.67,-1.67,-1.67
155.32,-1.99,-1.99,-0.30,-0.30,0.30,0.23,0.79,-1.69,-1.69,-1.69
156.88,-1.98,-1.98,-0.26,-0.26,0.26,0.17,0.75,-1.72,-1.72,-1.72
158.44,-1.97,-1.97,-0.22,-0.22,0.22,0.11,0.71,-1.75,-1.75,-1.75
160.03,-1.97,-1.97,-0.19,-0.19,0.19,0.05,0.67,-1.78,-1.78,-1.78
161.63,-1.96,-1.96,-0.15,-0.15,0.15,-0.00,0.63,-1.81,-1.81,-1.81
163.24,-1.95,-1.95,-0.12,-0.12,0.12,-0.06,0.59,-1.83,-1.83,-1.83
164.88,-1.94,-1.94,-0.09,-0.08,0.08,-0.11,0.55,-1.86,-1.86,-1.85
166.53,-1.93,-1.93,-0.05,-0.05,0.05,-0.16,0.51,-1.88,-1.89,-1.88
168.19,-1.93,-1.93,-0.01,-0.01,0.01,-0.20,0.47,-1.92,-1.92,-1.92
169.87,-1.92,-1.92,0.03,0.03,-0.02,-0.25,0.43,-1.94,-1.95,-1.95
171.57,-1.92,-1.92,0.06,0.06,-0.06,-0.29,0.39,-1.98,-1.98,-1.98
173.29,-1.91,-1.91,0.09,0.09,-0.10,-0.33,0.35,-2.01,-2.01,-2.00
175.02,-1.91,-1.91,0.13,0.13,-0.13,-0.37,0.31,-2.04,-2.04,-2.04
176.77,-1.91,-1.91,0.17,0.17,-0.17,-0.40,0.27,-2.08,-2.08,-2.08
178.54,-1.91,-1.91,0.21,0.21,-0.21,-0.43,0.23,-2.12,-2.12,-2.12
180.32,-1.91,-1.91,0.24,0.25,-0.24,-0.46,0.20,-2.15,-2.15,-2.15
182.13,-1.90,-1.90,0.28,0.28,-0.28,-0.49,0.16,-2.18,-2.19,-2.18
183.95,-1.90,-1.90,0.32,0.32,-0.32,-0.51,0.12,-2.22,-2.22,-2.22
185.79,-1.91,-1.90,0.35,0.36,-0.35,-0.53,0.08,-2.26,-2.25,-2.26
187.65,-1.90,-1.91,0.40,0.39,-0.38,-0.54,0.04,-2.28,-2.29,-2.30
189.52,-1.91,-1.91,0.42,0.42,-0.42,-0.55,0.00,-2.33,-2.32,-2.33
191.42,-1.91,-1.91,0.45,0.44,-0.45,-0.56,-0.03,-2.36,-2.35,-2.36
193.33,-1.91,-1.91,0.46,0.47,-0.47,-0.57,-0.07,-2.38,-2.38,-2.37
195.27,-1.91,-1.91,0.49,0.49,-0.50,-0.57,-0.11,-2.41,-2.41,-2.40
197.22,-1.91,-1.91,0.52,0.52,-0.52,-0.57,-0.15,-2.43,-2.44,-2.43
199.19,-1.92,-1.92,0.56,0.55,-0.55,-0.57,-0.18,-2.47,-2.46,-2.48
201.18,-1.92,-1.92,0.57,0.57,-0.57,-0.57,-0.22,-2.49,-2.49,-2.49
203.19,-1.93,-1.93,0.58,0.59,-0.59,-0.56,-0.26,-2.52,-2.51,-2.51
205.23,-1.93,-1.93,0.61,0.60,-0.60,-0.55,-0.29,-2.53,-2.53,-2.54
207.28,-1.94,-1.94,0.60,0.61,-0.62,-0.55,-0.33,-2.56,-2.56,-2.54
209.35,-1.94,-1.94,0.64,0.63,-0.63,-0.54,-0.36,-2.57,-2.57,-2.58
211.44,-1.95,-1.95,0.65,0.64,-0.64,-0.52,-0.40,-2.59,-2.59,-2.60
213.56,-1.96,-1.96,0.65,0.65,-0.65,-0.51,-0.43,-2.61,-2.61,-2.61
215.69,-1.96,-1.96,0.66,0.66,-0.66,-0.50,-0.46,-2.62,-2.62,-2.62
217.85,-1.97,-1.97,0.66,0.67,-0.67,-0.49,-0.49,-2.64,-2.64,-2.63
220.03,-1.97,-1.97,0.68,0.67,-0.67,-0.47,-0.52,-2.64,-2.65,-2.65
222.23,-1.98,-1.98,0.68,0.68,-0.68,-0.46,-0.55,-2.66,-2.65,-2.66
224.45,-1.98,-1.98,0.68,0.68,-0.68,-0.44,-0.58,-2.66,-2.66,-2.66
226.70,-1.99,-1.99,0.68,0.68,-0.68,-0.43,-0.60,-2.67,-2.66,-2.67
228.96,-1.99,-1.99,0.68,0.67,-0.68,-0.41,-0.63,-2.67,-2.66,-2.67
231.25,-1.99,-1.99,0.67,0.67,-0.67,-0.40,-0.65,-2.66,-2.66,-2.66
233.57,-1.99,-1.99,0.66,0.66,-0.66,-0.38,-0.67,-2.65,-2.65,-2.65
235.90,-1.99,-1.99,0.66,0.66,-0.66,-0.37,-0.69,-2.65,-2.65,-2.65
238.26,-1.99,-1.99,0.66,0.65,-0.65,-0.35,-0.70,-2.64,-2.64,-2.65
240.64,-1.99,-1.99,0.64,0.64,-0.64,-0.34,-0.72,-2.63,-2.63,-2.63
243.05,-1.99,-1.99,0.62,0.62,-0.62,-0.32,-0.73,-2.61,-2.61,-2.61
245.48,-1.99,-1.99,0.60,0.61,-0.61,-0.31,-0.74,-2.60,-2.60,-2.59
247.93,-1.99,-1.99,0.59,0.59,-0.59,-0.29,-0.74,-2.58,-2.58,-2.58
250.41,-1.99,-1.99,0.58,0.57,-0.57,-0.28,-0.75,-2.56,-2.56,-2.57
252.92,-1.98,-1.98,0.56,0.55,-0.56,-0.27,-0.75,-2.54,-2.54,-2.54
255.45,-1.98,-1.98,0.53,0.54,-0.54,-0.25,-0.75,-2.52,-2.52,-2.51
258.00,-1.98,-1.98,0.51,0.52,-0.52,-0.24,-0.75,-2.50,-2.50,-2.49
260.58,-1.97,-1.97,0.51,0.50,-0.50,-0.23,-0.74,-2.47,-2.47,-2.48
263.19,-1.97,-1.97,0.48,0.48,-0.48,-0.22,-0.74,-2.45,-2.45,-2.45
265.82,-1.97,-1.97,0.46,0.46,-0.46,-0.21,-0.73,-2.43,-2.43,-2.43
268.48,-1.96,-1.96,0.45,0.44,-0.44,-0.19,-0.71,-2.40,-2.40,-2.41
271.16,-1.96,-1.96,0.41,0.42,-0.42,-0.18,-0.70,-2.38,-2.38,-2.37
273.87,-1.95,-1.95,0.41,0.40,-0.40,-0.17,-0.69,-2.35,-2.36,-2.36
276.61,-1.95,-1.95,0.37,0.38,-0.38,-0.16,-0.67,-2.33,-2.33,-2.32
279.38,-1.95,-1.95,0.36,0.36,-0.36,-0.15,-0.65,-2.31,-2.31,-2.31
282.17,-1.94,-1.94,0.34,0.34,-0.34,-0.14,-0.63,-2.28,-2.28,-2.28
284.99,-1.94,-1.94,0.32,0.32,-0.32,-0.13,-0.61,-2.26,-2.26,-2.26
287.84,-1.94,-1.94,0.29,0.29,-0.29,-0.12,-0.59,-2.23,-2.23,-2.23
290.72,-1.94,-1.94,0.26,0.27,-0.27,-0.11,-0.56,-2.21,-2.21,-2.20
293.63,-1.93,-1.93,0.25,0.24,-0.24,-0.10,-0.54,-2.17,-2.18,-2.18
296.57,-1.93,-1.93,0.22,0.22,-0.22,-0.09,-0.51,-2.15,-2.15,-2.15
299.53,-1.93,-1.93,0.19,0.19,-0.19,-0.08,-0.49,-2.12,-2.12,-2.12
302.53,-1.93,-1.93,0.16,0.16,-0.16,-0.07,-0.46,-2.09,-2.09,-2.09
305.55,-1.93,-1.93,0.12,0.13,-0.12,-0.06,-0.43,-2.05,-2.05,-2.05
308.61,-1.93,-1.93,0.09,0.09,-0.09,-0.05,-0.40,-2.02,-2.02,-2.02
311.69,-1.93,-1.93,0.06,0.05,-0.06,-0.04,-0.38,-1.99,-1.99,-1.99
314.81,-1.93,-1.93,0.02,0.02,-0.03,-0.04,-0.35,-1.96,-1.96,-1.95
317.96,-1.93,-1.93,-0.01,-0.01,0.01,-0.03,-0.32,-1.92,-1.92,-1.92
321.14,-1.93,-1.93,-0.03,-0.03,0.04,-0.02,-0.29,-1.89,-1.89,-1.90
324.35,-1.93,-1.93,-0.06,-0.07,0.07,-0.01,-0.26,-1.86,-1.86,-1.87
327.59,-1.93,-1.93,-0.10,-0.10,0.10,-0.00,-0.23,-1.83,-1.84,-1.83
330.87,-1.94,-1.94,-0.14,-0.13,0.13,0.01,-0.20,-1.81,-1.81,-1.80
334.18,-1.94,-1.94,-0.15,-0.16,0.16,0.02,-0.17,-1.78,-1.78,-1.79
337.52,-1.94,-1.94,-0.18,-0.18,0.19,0.03,-0.14,-1.75,-1.76,-1.76
340.90,-1.95,-1.95,-0.22,-0.21,0.22,0.04,-0.11,-1.73,-1.73,-1.73
344.30,-1.95,-1.95,-0.24,-0.24,0.24,0.04,-0.08,-1.71,-1.71,-1.71
347.75,-1.96,-1.96,-0.27,-0.27,0.27,0.05,-0.05,-1.69,-1.69,-1.69
351.23,-1.96,-1.96,-0.29,-0.29,0.28,0.06,-0.02,-1.68,-1.68,-1.67
354.74,-1.96,-1.96,-0.31,-0.31,0.30,0.07,0.01,-1.66,-1.66,-1.65
358.28,-1.95,-1.95,-0.32,-0.32,0.31,0.08,0.03,-1.64,-1.64,-1.63
361.87,-1.93,-1.93,-0.31,-0.32,0.32,0.09,0.06,-1.61,-1.62,-1.62
365.49,-1.91,-1.91,-0.32,-0.32,0.32,0.10,0.09,-1.59,-1.59,-1.59
369.14,-1.89,-1.89,-0.31,-0.31,0.32,0.11,0.12,-1.57,-1.57,-1.58
372.83,-1.87,-1.87,-0.31,-0.31,0.32,0.12,0.15,-1.55,-1.55,-1.56
376.56,-1.85,-1.85,-0.31,-0.31,0.31,0.14,0.18,-1.54,-1.54,-1.54
380.33,-1.83,-1.83,-0.32,-0.31,0.31,0.15,0.21,-1.52,-1.52,-1.51
384.13,-1.80,-1.80,-0.30,-0.31,0.30,0.16,0.24,-1.50,-1.50,-1.50
387.97,-1.78,-1.78,-0.30,-0.30,0.30,0.17,0.27,-1.48,-1.48,-1.48
391.85,-1.75,-1.75,-0.29,-0.29,0.29,0.18,0.29,-1.46,-1.46,-1.46
395.77,-1.72,-1.72,-0.29,-0.29,0.29,0.20,0.32,-1.43,-1.43,-1.43
399.73,-1.69,-1.69,-0.28,-0.28,0.28,0.21,0.35,-1.41,-1.41,-1.41
403.72,-1.67,-1.67,-0.28,-0.27,0.27,0.22,0.38,-1.40,-1.39,-1.39
407.76,-1.64,-1.64,-0.26,-0.27,0.27,0.24,0.41,-1.37,-1.37,-1.38
411.84,-1.61,-1.61,-0.26,-0.26,0.26,0.25,0.43,-1.35,-1.35,-1.35
415.96,-1.58,-1.58,-0.25,-0.25,0.25,0.27,0.46,-1.33,-1.33,-1.33
420.12,-1.55,-1.55,-0.24,-0.25,0.24,0.28,0.49,-1.31,-1.31,-1.31
424.32,-1.52,-1.52,-0.24,-0.24,0.23,0.30,0.51,-1.29,-1.29,-1.28
428.56,-1.49,-1.49,-0.23,-0.23,0.22,0.32,0.54,-1.27,-1.27,-1.26
432.85,-1.46,-1.46,-0.22,-0.22,0.21,0.34,0.56,-1.25,-1.25,-1.24
437.18,-1.42,-1.42,-0.21,-0.21,0.21,0.35,0.58,-1.21,-1.21,-1.21
441.55,-1.39,-1.39,-0.21,-0.20,0.21,0.37,0.61,-1.18,-1.18,-1.18
445.96,-1.36,-1.37,-0.20,-0.20,0.22,0.39,0.63,-1.14,-1.15,-1.16
450.42,-1.36,-1.36,-0.21,-0.22,0.23,0.42,0.65,-1.13,-1.13,-1.15
454.93,-1.37,-1.37,-0.26,-0.25,0.26,0.44,0.67,-1.11,-1.10,-1.11
459.48,-1.38,-1.38,-0.29,-0.30,0.30,0.46,0.69,-1.08,-1.08,-1.09
464.07,-1.40,-1.40,-0.34,-0.35,0.35,0.48,0.71,-1.05,-1.05,-1.06
468.71,-1.43,-1.43,-0.41,-0.40,0.40,0.51,0.72,-1.03,-1.02,-1.02
473.40,-1.46,-1.46,-0.46,-0.46,0.47,0.53,0.74,-0.99,-1.00,-1.00
