frequency,raw
20,-4.74
21,-4.25
22,-3.80
23,-3.32
24,-2.94
25,-2.44
26,-2.15
27,-1.88
28,-1.48
29,-1.19
30,-0.96
31,-0.63
32,-0.43
33,-0.15
34,0.08
35,0.28
36,0.48
37,0.68
38,0.80
39,0.88
40,1.05
41,1.28
42,1.28
43,1.49
44,1.49
45,1.66
46,1.69
47,1.79
48,1.89
49,1.89
50,1.89
51,1.99
52,2.09
53,2.09
54,2.09
55,2.09
56,2.09
57,2.19
58,2.19
59,2.29
60,2.29
61,2.29
62,2.29
63,2.29
64,2.29
65,2.29
66,2.29
67,2.29
68,2.29
69,2.29
70,2.27
71,2.19
72,2.09
73,2.09
74,2.09
75,2.09
76,2.09
77,2.09
78,2.04
79,1.99
80,1.99
81,1.99
82,1.87
83,1.79
84,1.79
85,1.79
86,1.79
87,1.74
88,1.69
89,1.69
90,1.69
91,1.61
92,1.56
93,1.49
94,1.49
95,1.49
96,1.49
97,1.48
98,1.47
99,1.46
100,1.45
101,1.33
102,1.31
104,1.28
105,1.17
106,1.14
107,1.11
108,1.02
109,0.97
110,0.95
111,0.83
112,0.72
113,0.71
114,0.71
115,0.70
117,0.60
118,0.61
119,0.53
120,0.52
121,0.53
123,0.53
124,0.54
125,0.54
126,0.47
128,0.51
129,0.57
130,0.58
131,0.58
133,0.59
134,0.59
135,0.59
137,0.60
138,0.60
140,0.60
141,0.60
142,0.60
144,0.60
145,0.60
147,0.60
148,0.60
150,0.60
151,0.60
153,0.50
154,0.50
156,0.50
157,0.50
159,0.40
160,0.40
162,0.36
164,0.24
165,0.15
167,0.09
169,0.09
170,0.08
172,0.07
174,0.07
175,0.06
177,0.06
179,0.06
181,0.06
183,0.07
184,0.07
186,0.09
188,0.08
190,0.02
192,0.03
194,0.05
196,-0.01
198,-0.03
200,-0.02
202,-0.01
204,-0.00
206,-0.00
208,-0.00
210,-0.00
212,-0.01
214,-0.01
216,-0.01
218,-0.02
221,-0.09
223,-0.12
225,-0.13
227,-0.12
229,-0.12
232,-0.11
234,-0.04
236,0.01
239,0.09
241,0.14
244,0.16
246,0.19
248,0.21
251,0.22
253,0.24
256,0.25
259,0.26
261,0.27
264,0.27
266,0.27
269,0.22
272,0.16
274,0.15
277,0.07
280,0.02
283,-0.05
286,-0.04
288,-0.08
291,-0.12
294,-0.11
297,-0.10
300,-0.17
303,-0.21
306,-0.26
309,-0.25
312,-0.26
316,-0.34
319,-0.42
322,-0.44
325,-0.45
328,-0.54
332,-0.61
335,-0.65
338,-0.71
342,-0.75
345,-0.86
349,-0.95
352,-1.02
356,-1.08
359,-1.15
363,-1.21
366,-1.28
370,-1.44
374,-1.42
377,-1.43
381,-1.56
385,-1.66
389,-1.78
393,-1.78
397,-1.82
401,-1.98
405,-2.13
409,-2.23
413,-2.31
417,-2.41
421,-2.56
425,-2.66
430,-2.76
434,-2.74
438,-2.64
443,-2.75
447,-2.76
451,-2.62
456,-2.55
460,-2.49
465,-2.51
470,-2.59
474,-2.46
479,-2.40
484,-2.55
489,-2.47
494,-2.63
499,-2.64
504,-2.65
509,-2.39
514,-2.38
519,-2.79
524,-2.80
529,-2.67
535,-2.76
540,-2.83
545,-2.96
551,-3.06
556,-3.16
562,-3.30
568,-3.36
573,-3.40
579,-3.44
585,-3.52
591,-3.66
596,-3.51
602,-3.38
608,-3.52
615,-3.36
621,-3.22
627,-3.11
633,-3.04
639,-2.94
646,-2.98
652,-3.00
659,-2.90
665,-2.77
672,-2.51
679,-2.50
686,-2.34
692,-2.19
699,-2.08
706,-2.06
713,-2.11
721,-2.02
728,-1.83
735,-1.82
742,-1.78
750,-1.57
757,-1.65
765,-1.68
773,-1.63
780,-1.58
788,-1.43
796,-1.38
804,-1.31
812,-1.23
820,-1.20
828,-1.16
837,-0.98
845,-0.89
853,-0.92
862,-0.81
871,-0.77
879,-0.71
888,-0.65
897,-0.61
906,-0.54
915,-0.48
924,-0.44
933,-0.45
943,-0.30
952,-0.24
962,-0.24
971,-0.23
981,-0.17
991,-0.08
1001,0.01
1011,0.03
1021,0.05
1031,0.08
1041,0.11
1052,0.14
1062,0.18
1073,0.23
1084,0.28
1094,0.33
1105,0.39
1116,0.45
1128,0.52
1139,0.54
1150,0.48
1162,0.56
1173,0.66
1185,0.67
1197,0.66
1209,0.70
1221,0.72
1233,0.70
1246,0.78
1258,0.82
1271,0.78
1283,0.90
1296,0.96
1309,0.94
1322,1.09
1335,1.31
1349,1.36
1362,1.48
1376,1.66
1390,1.71
1404,1.67
1418,1.85
1432,1.84
1446,1.86
1461,1.93
1475,1.98
1490,2.09
1505,2.23
1520,2.40
1535,2.47
1550,2.55
1566,2.73
1582,2.78
1597,2.82
1613,2.98
1629,3.07
1646,3.13
1662,3.19
1679,3.27
1696,3.40
1713,3.52
1730,3.60
1747,3.69
1764,3.78
1782,3.80
1800,3.85
1818,3.90
1836,4.02
1854,4.02
1873,4.00
1892,3.99
1911,4.07
1930,4.11
1949,4.10
1969,4.13
1988,4.16
2008,4.16
2028,4.15
2048,4.19
2069,4.17
2090,4.16
2111,4.15
2132,4.10
2153,4.07
2175,4.08
2196,4.11
2218,4.12
2240,4.10
2263,4.04
2285,4.06
2308,3.93
2331,3.85
2355,3.89
2378,3.85
2402,3.70
2426,3.51
2450,3.46
2475,3.40
2500,3.41
2525,3.48
2550,3.50
2575,3.57
2601,3.72
2627,3.86
2653,3.91
2680,3.90
2707,3.90
2734,3.93
2761,3.98
2789,4.00
2817,3.99
2845,3.90
2873,3.82
2902,3.80
2931,3.54
2960,3.51
2990,3.55
3020,3.58
3050,3.67
3080,3.76
3111,3.84
3142,4.12
3174,4.32
3206,4.35
3238,4.31
3270,4.13
3303,4.02
3336,3.98
3369,3.88
3403,3.83
3437,4.06
3471,4.47
3506,4.87
3541,5.17
3576,5.45
3612,5.54
3648,5.59
3685,5.40
3721,4.96
3759,4.54
3796,4.19
3834,3.80
3873,3.42
3911,3.01
3950,2.06
3990,1.48
4030,1.04
4070,0.85
4111,0.69
4152,0.50
4193,0.19
4235,-0.21
4278,-0.67
4321,-1.11
4364,-1.84
4407,-3.00
4451,-3.70
4496,-4.61
4541,-5.86
4586,-6.62
4632,-7.99
4679,-10.10
4725,-12.62
4773,-15.81
4820,-18.77
4868,-15.81
4917,-14.81
4966,-13.37
5016,-11.01
5066,-9.99
5117,-8.96
5168,-7.76
5220,-6.77
5272,-5.96
5325,-5.13
5378,-4.52
5432,-4.00
5486,-3.25
5541,-2.78
5596,-2.45
5652,-2.10
5709,-1.90
5766,-1.86
5823,-1.84
5882,-1.82
5940,-2.07
6000,-2.31
6060,-2.49
6120,-2.33
6182,-2.26
6244,-2.33
6306,-2.45
6369,-2.55
6433,-2.70
6497,-2.80
6562,-2.86
6628,-3.04
6694,-3.14
6761,-3.16
6828,-3.30
6897,-3.34
6966,-3.61
7035,-3.88
7106,-4.02
7177,-3.95
7249,-4.03
7321,-4.11
7394,-4.19
7468,-4.27
7543,-4.36
7618,-4.58
7694,-4.56
7771,-4.51
7849,-4.54
7928,-4.55
8007,-4.36
8087,-3.94
8168,-3.52
8250,-2.96
8332,-2.57
8415,-2.31
8499,-2.26
8584,-2.15
8670,-1.84
8757,-1.58
8845,-1.03
8933,-0.38
9022,0.21
9113,1.05
9204,1.65
9296,1.76
9389,1.90
9483,1.81
9577,1.49
9673,1.05
9770,0.50
9868,-0.34
9966,-0.91
10066,-1.22
10167,-1.81
10268,-2.60
10371,-3.65
10475,-4.42
10579,-4.69
10685,-4.28
10792,-2.34
10900,-1.48
11009,-1.71
11119,-1.46
11230,-0.99
11343,-0.95
11456,-1.02
11571,-1.34
11686,-1.41
11803,-1.95
11921,-2.73
12040,-3.00
12161,-3.11
12282,-3.37
12405,-3.67
12529,-3.91
12655,-3.65
12781,-3.92
12909,-4.56
13038,-5.74
13168,-7.16
13300,-8.44
13433,-10.19
13567,-11.87
13703,-12.11
13840,-12.42
13978,-12.52
14118,-12.84
14259,-12.72
14402,-12.87
14546,-13.60
14692,-13.91
14838,-13.76
14987,-13.30
15137,-12.94
15288,-12.60
15441,-12.98
15595,-14.22
15751,-14.65
15909,-14.72
16068,-13.89
16229,-13.68
16391,-14.58
16555,-15.18
16720,-15.55
16888,-15.49
17056,-15.17
17227,-15.00
17399,-15.42
17573,-16.12
17749,-17.42
17926,-18.26
18106,-18.64
18287,-18.87
18470,-18.30
18654,-18.30
18841,-18.85
19029,-19.59
19220,-20.72
19412,-22.13
19606,-21.89
19802,-20.28
20000,-19.29
