frequency,raw
20.00,-4.74
20.20,-4.64
20.40,-4.54
20.61,-4.44
20.81,-4.34
21.02,-4.24
21.23,-4.14
21.44,-4.05
21.66,-3.95
21.87,-3.86
22.09,-3.75
22.31,-3.65
22.54,-3.54
22.76,-3.43
22.99,-3.32
23.22,-3.24
23.45,-3.15
23.69,-3.06
23.92,-2.97
24.16,-2.86
24.40,-2.74
24.65,-2.61
24.89,-2.49
25.14,-2.40
25.39,-2.32
25.65,-2.25
25.91,-2.18
26.16,-2.10
26.43,-2.03
26.69,-1.96
26.96,-1.89
27.23,-1.79
27.50,-1.68
27.77,-1.57
28.05,-1.46
28.33,-1.38
28.62,-1.30
28.90,-1.22
29.19,-1.15
29.48,-1.08
29.78,-1.01
30.08,-0.93
30.38,-0.83
30.68,-0.73
30.99,-0.63
31.30,-0.57
31.61,-0.51
31.93,-0.44
32.24,-0.36
32.57,-0.27
32.89,-0.18
33.22,-0.10
33.55,-0.02
33.89,0.05
34.23,0.13
34.57,0.19
34.92,0.26
35.27,0.33
35.62,0.40
35.97,0.47
36.33,0.55
36.70,0.62
37.06,0.69
37.43,0.73
37.81,0.78
38.19,0.82
38.57,0.85
38.95,0.88
39.34,0.94
39.74,1.01
40.14,1.08
40.54,1.17
40.94,1.27
41.35,1.28
41.76,1.28
42.18,1.32
42.60,1.41
43.03,1.49
43.46,1.49
43.90,1.49
44.33,1.55
44.78,1.62
45.23,1.67
45.68,1.68
46.13,1.70
46.60,1.75
47.06,1.80
47.53,1.84
48.01,1.89
48.49,1.89
48.97,1.89
49.46,1.89
49.96,1.89
50.46,1.94
50.96,1.99
51.47,2.04
51.99,2.09
52.51,2.09
53.03,2.09
53.56,2.09
54.10,2.09
54.64,2.09
55.18,2.09
55.74,2.09
56.29,2.12
56.86,2.18
57.42,2.19
58.00,2.19
58.58,2.25
59.16,2.29
59.76,2.29
60.35,2.29
60.96,2.29
61.57,2.29
62.18,2.29
62.80,2.29
63.43,2.29
64.07,2.29
64.71,2.29
65.35,2.29
66.01,2.29
66.67,2.29
67.33,2.29
68.01,2.29
68.69,2.29
69.37,2.28
70.07,2.26
70.77,2.21
71.48,2.14
72.19,2.09
72.91,2.09
73.64,2.09
74.38,2.09
75.12,2.09
75.87,2.09
76.63,2.09
77.40,2.07
78.17,2.03
78.95,1.99
79.74,1.99
80.54,1.99
81.35,1.95
82.16,1.86
82.98,1.79
83.81,1.79
84.65,1.79
85.50,1.79
86.35,1.77
87.22,1.73
88.09,1.69
88.97,1.69
89.86,1.69
90.76,1.63
91.66,1.58
92.58,1.52
93.51,1.49
94.44,1.49
95.39,1.49
96.34,1.49
97.30,1.48
98.28,1.47
99.26,1.46
100.25,1.42
101.25,1.32
102.27,1.31
103.29,1.29
104.32,1.24
105.37,1.16
106.42,1.13
107.48,1.07
108.56,0.99
109.64,0.96
110.74,0.86
111.85,0.74
112.97,0.71
114.10,0.71
115.24,0.69
116.39,0.63
117.55,0.61
118.73,0.55
119.92,0.52
121.12,0.53
122.33,0.53
123.55,0.54
124.79,0.54
126.03,0.47
127.29,0.50
128.57,0.54
129.85,0.58
131.15,0.58
132.46,0.59
133.79,0.59
135.12,0.59
136.48,0.60
137.84,0.60
139.22,0.60
140.61,0.60
142.02,0.60
143.44,0.60
144.87,0.60
146.32,0.60
147.78,0.60
149.26,0.60
150.75,0.60
152.26,0.54
153.78,0.50
155.32,0.50
156.88,0.50
158.44,0.43
160.03,0.40
161.63,0.37
163.24,0.29
164.88,0.16
166.53,0.10
168.19,0.09
169.87,0.08
171.57,0.07
173.29,0.07
175.02,0.06
176.77,0.06
178.54,0.06
180.32,0.06
182.13,0.07
183.95,0.07
185.79,0.09
187.65,0.08
189.52,0.03
191.42,0.03
193.33,0.04
195.27,0.01
197.22,-0.02
199.19,-0.02
201.18,-0.01
203.19,-0.00
205.23,0.00
207.28,0.00
209.35,0.00
211.44,-0.01
213.56,-0.01
215.69,-0.01
217.85,-0.02
220.03,-0.07
222.23,-0.11
224.45,-0.13
226.70,-0.12
228.96,-0.12
231.25,-0.11
233.57,-0.06
235.90,0.01
238.26,0.07
240.64,0.13
243.05,0.15
245.48,0.18
247.93,0.21
250.41,0.22
252.92,0.24
255.45,0.25
258.00,0.26
260.58,0.27
263.19,0.27
265.82,0.27
268.48,0.23
271.16,0.18
273.87,0.15
276.61,0.08
279.38,0.03
282.17,-0.03
284.99,-0.04
287.84,-0.08
290.72,-0.12
293.63,-0.11
296.57,-0.10
299.53,-0.16
302.53,-0.20
305.55,-0.25
308.61,-0.25
311.69,-0.26
314.81,-0.32
317.96,-0.39
321.14,-0.43
324.35,-0.45
327.59,-0.53
330.87,-0.59
334.18,-0.64
337.52,-0.70
340.90,-0.74
344.30,-0.83
347.75,-0.92
351.23,-1.00
354.74,-1.06
358.28,-1.13
361.87,-1.19
365.49,-1.27
369.14,-1.41
372.83,-1.43
376.56,-1.43
380.33,-1.54
384.13,-1.64
387.97,-1.75
391.85,-1.78
395.77,-1.81
399.73,-1.93
403.72,-2.08
407.76,-2.20
411.84,-2.29
415.96,-2.38
420.12,-2.53
424.32,-2.64
428.56,-2.73
432.85,-2.75
437.18,-2.66
441.55,-2.72
445.96,-2.76
450.42,-2.64
454.93,-2.56
459.48,-2.50
464.07,-2.51
468.71,-2.57
473.40,-2.48
478.13,-2.41
482.91,-2.52
487.74,-2.49
492.62,-2.59
497.55,-2.64
502.52,-2.65
507.55,-2.47
512.62,-2.38
517.75,-2.69
522.93,-2.80
528.16,-2.69
533.44,-2.74
538.77,-2.81
544.16,-2.94
549.60,-3.04
555.10,-3.14
560.65,-3.27
566.25,-3.34
571.92,-3.39
577.64,-3.43
583.41,-3.50
589.25,-3.62
595.14,-3.54
601.09,-3.40
607.10,-3.50
613.17,-3.40
619.30,-3.26
625.50,-3.14
631.75,-3.05
638.07,-2.96
644.45,-2.97
650.89,-3.00
657.40,-2.92
663.98,-2.79
670.62,-2.56
677.32,-2.50
684.10,-2.38
690.94,-2.22
697.85,-2.10
704.83,-2.06
711.87,-2.10
718.99,-2.04
726.18,-1.88
733.44,-1.82
740.78,-1.79
748.19,-1.62
755.67,-1.63
763.23,-1.67
770.86,-1.64
778.57,-1.59
786.35,-1.46
794.22,-1.39
802.16,-1.33
810.18,-1.25
818.28,-1.21
826.46,-1.17
834.73,-1.03
843.08,-0.91
851.51,-0.91
860.02,-0.83
868.62,-0.78
877.31,-0.72
886.08,-0.66
894.94,-0.62
903.89,-0.56
912.93,-0.49
922.06,-0.45
931.28,-0.45
940.59,-0.34
950.00,-0.25
959.50,-0.24
969.09,-0.23
978.78,-0.18
988.57,-0.10
998.46,-0.01
1008.44,0.02
1018.53,0.05
1028.71,0.07
1039.00,0.10
1049.39,0.13
1059.88,0.17
1070.48,0.22
1081.19,0.27
1092.00,0.32
1102.92,0.38
1113.95,0.44
1125.09,0.50
1136.34,0.54
1147.70,0.49
1159.18,0.54
1170.77,0.64
1182.48,0.67
1194.30,0.66
1206.25,0.69
1218.31,0.72
1230.49,0.70
1242.80,0.76
1255.22,0.81
1267.78,0.79
1280.45,0.87
1293.26,0.95
1306.19,0.94
1319.25,1.06
1332.45,1.27
1345.77,1.35
1359.23,1.45
1372.82,1.62
1386.55,1.70
1400.41,1.68
1414.42,1.80
1428.56,1.84
1442.85,1.86
1457.28,1.91
1471.85,1.97
1486.57,2.06
1501.43,2.20
1516.45,2.36
1531.61,2.45
1546.93,2.53
1562.40,2.69
1578.02,2.77
1593.80,2.81
1609.74,2.95
1625.84,3.05
1642.10,3.12
1658.52,3.18
1675.10,3.25
1691.85,3.37
1708.77,3.49
1725.86,3.58
1743.12,3.67
1760.55,3.76
1778.15,3.80
1795.94,3.84
1813.90,3.89
1832.03,3.99
1850.36,4.02
1868.86,4.00
1887.55,3.99
1906.42,4.05
1925.49,4.10
1944.74,4.10
1964.19,4.12
1983.83,4.15
2003.67,4.16
2023.71,4.15
2043.94,4.18
2064.38,4.17
2085.03,4.16
2105.88,4.15
2126.94,4.11
2148.20,4.08
2169.69,4.08
2191.38,4.10
2213.30,4.12
2235.43,4.10
2257.78,4.05
2280.36,4.06
2303.17,3.96
2326.20,3.87
2349.46,3.88
2372.95,3.86
2396.68,3.73
2420.65,3.55
2444.86,3.47
2469.31,3.41
2494.00,3.41
2518.94,3.46
2544.13,3.50
2569.57,3.55
2595.27,3.69
2621.22,3.83
2647.43,3.90
2673.90,3.90
2700.64,3.90
2727.65,3.92
2754.93,3.97
2782.48,4.00
2810.30,3.99
2838.40,3.92
2866.79,3.84
2895.46,3.80
2924.41,3.60
2953.65,3.52
2983.19,3.54
3013.02,3.57
3043.15,3.65
3073.58,3.74
3104.32,3.82
3135.36,4.06
3166.72,4.27
3198.38,4.34
3230.37,4.32
3262.67,4.17
3295.30,4.05
3328.25,3.99
3361.53,3.90
3395.15,3.84
3429.10,4.01
3463.39,4.38
3498.03,4.78
3533.01,5.10
3568.34,5.39
3604.02,5.52
3640.06,5.58
3676.46,5.44
3713.22,5.05
3750.36,4.64
3787.86,4.27
3825.74,3.88
3864.00,3.51
3902.64,3.10
3941.66,2.26
3981.08,1.61
4020.89,1.14
4061.10,0.89
4101.71,0.73
4142.73,0.54
4184.15,0.26
4226.00,-0.12
4268.26,-0.57
4310.94,-1.01
4354.05,-1.67
4397.59,-2.75
4441.56,-3.55
4485.98,-4.41
4530.84,-5.58
4576.15,-6.45
4621.91,-7.69
4668.13,-9.61
4714.81,-12.06
4761.96,-15.08
4809.58,-18.12
4857.67,-16.44
4906.25,-15.03
4955.31,-13.68
5004.87,-11.53
5054.91,-10.22
5105.46,-9.19
5156.52,-8.03
5208.08,-7.00
5260.16,-6.14
5312.77,-5.32
5365.89,-4.66
5419.55,-4.12
5473.75,-3.42
5528.49,-2.89
5583.77,-2.52
5639.61,-2.18
5696.00,-1.95
5752.96,-1.87
5810.49,-1.84
5868.60,-1.82
5927.28,-2.02
5986.56,-2.26
6046.42,-2.45
6106.89,-2.36
6167.96,-2.28
6229.64,-2.31
6291.93,-2.42
6354.85,-2.53
6418.40,-2.67
6482.58,-2.78
6547.41,-2.85
6612.88,-3.00
6679.01,-3.12
6745.80,-3.16
6813.26,-3.27
6881.39,-3.33
6950.21,-3.55
7019.71,-3.82
7089.91,-3.99
7160.81,-3.97
7232.41,-4.01
7304.74,-4.09
7377.79,-4.17
7451.56,-4.25
7526.08,-4.34
7601.34,-4.53
7677.35,-4.56
7754.13,-4.52
7831.67,-4.53
7909.98,-4.55
7989.08,-4.40
8068.98,-4.03
8149.67,-3.61
8231.16,-3.09
8313.47,-2.66
8396.61,-2.37
8480.57,-2.27
8565.38,-2.17
8651.03,-1.91
8737.54,-1.64
8824.92,-1.16
8913.17,-0.53
9002.30,0.08
9092.32,0.86
9183.25,1.51
9275.08,1.74
9367.83,1.87
9461.51,1.83
9556.12,1.56
9651.68,1.15
9748.20,0.62
9845.68,-0.15
9944.14,-0.78
10043.58,-1.15
10144.02,-1.68
10245.46,-2.42
10347.91,-3.42
10451.39,-4.25
10555.91,-4.63
10661.46,-4.37
10768.08,-2.77
10875.76,-1.67
10984.52,-1.66
11094.36,-1.52
11205.31,-1.09
11317.36,-0.96
11430.53,-1.00
11544.84,-1.27
11660.29,-1.39
11776.89,-1.83
11894.66,-2.56
12013.60,-2.94
12133.74,-3.09
12255.08,-3.31
12377.63,-3.60
12501.41,-3.86
12626.42,-3.71
12752.68,-3.86
12880.21,-4.42
13009.01,-5.48
13139.10,-6.85
13270.49,-8.15
13403.20,-9.80
13537.23,-11.50
13672.60,-12.06
13809.33,-12.35
13947.42,-12.50
14086.90,-12.77
14227.77,-12.75
14370.04,-12.84
14513.74,-13.44
14658.88,-13.84
14805.47,-13.79
14953.52,-13.40
15103.06,-13.02
15254.09,-12.68
15406.63,-12.89
15560.70,-13.94
15716.30,-14.55
15873.47,-14.70
16032.20,-14.08
16192.52,-13.73
16354.45,-14.38
16517.99,-15.05
16683.17,-15.47
16850.01,-15.50
17018.51,-15.24
17188.69,-15.04
17360.58,-15.33
17534.18,-15.96
17709.53,-17.13
17886.62,-18.07
18065.49,-18.55
18246.14,-18.82
18428.60,-18.43
18612.89,-18.30
18799.02,-18.73
18987.01,-19.43
19176.88,-20.47
19368.65,-21.81
19562.33,-21.94
19757.96,-20.64
19955.54,-19.51
