frequency,raw,error,smoothed,error_smoothed,equalization,parametric_eq,equalized_raw,equalized_smoothed,target
20,-16.97,-18.61,-16.88,-18.52,6.00,2.95,-10.97,-10.88,1.64
21,-16.10,-17.74,-16.21,-17.85,6.00,3.38,-10.10,-10.21,1.64
22,-15.49,-17.13,-15.56,-17.20,6.00,3.84,-9.49,-9.56,1.64
23,-15.00,-16.63,-14.93,-16.56,6.00,4.34,-9.00,-8.93,1.63
24,-14.28,-15.91,-14.32,-15.95,6.00,4.87,-8.28,-8.32,1.63
25,-13.75,-15.38,-13.72,-15.35,6.00,5.41,-7.75,-7.72,1.63
26,-13.26,-14.89,-13.15,-14.77,6.00,5.95,-7.26,-7.15,1.62
27,-12.49,-14.11,-12.59,-14.21,6.00,6.46,-6.49,-6.59,1.62
28,-12.00,-13.62,-12.05,-13.67,6.00,6.92,-6.00,-6.05,1.62
29,-11.57,-13.18,-11.54,-13.15,6.00,7.28,-5.57,-5.54,1.61
30,-11.06,-12.67,-11.05,-12.66,6.00,7.53,-5.06,-5.05,1.61
31,-10.53,-12.13,-10.58,-12.19,6.00,7.65,-4.53,-4.58,1.60
32,-10.12,-11.72,-10.14,-11.74,6.00,7.64,-4.12,-4.14,1.60
33,-9.73,-11.32,-9.71,-11.30,6.00,7.51,-3.73,-3.71,1.59
34,-9.26,-10.84,-9.30,-10.88,6.00,7.30,-3.26,-3.30,1.58
35,-8.90,-10.48,-8.90,-10.47,6.00,7.03,-2.90,-2.90,1.58
36,-8.77,-10.34,-8.50,-10.07,6.00,6.72,-2.77,-2.50,1.57
37,-7.98,-9.54,-8.12,-9.68,6.00,6.41,-1.98,-2.12,1.56
38,-7.65,-9.20,-7.74,-9.29,6.00,6.09,-1.65,-1.74,1.55
39,-7.32,-8.86,-7.38,-8.92,6.00,5.80,-1.32,-1.38,1.54
40,-7.29,-8.82,-7.04,-8.57,6.00,5.52,-1.29,-1.04,1.53
41,-6.70,-8.22,-6.71,-8.23,6.00,5.26,-0.70,-0.71,1.52
42,-6.34,-7.85,-6.41,-7.91,6.00,5.02,-0.34,-0.41,1.51
43,-5.84,-7.33,-6.13,-7.62,6.00,4.81,0.16,-0.13,1.49
44,-5.83,-7.31,-5.87,-7.35,6.00,4.63,0.17,0.13,1.48
45,-5.76,-7.23,-5.62,-7.09,6.00,4.46,0.24,0.38,1.46
46,-5.42,-6.87,-5.38,-6.83,6.00,4.32,0.58,0.62,1.45
47,-5.25,-6.68,-5.15,-6.58,6.00,4.19,0.75,0.85,1.43
48,-4.91,-6.33,-4.91,-6.32,5.95,4.08,1.03,1.04,1.42
49,-4.77,-6.17,-4.66,-6.06,5.83,3.99,1.06,1.17,1.40
50,-4.29,-5.67,-4.41,-5.79,5.66,3.90,1.37,1.24,1.38
51,-4.01,-5.37,-4.16,-5.52,5.45,3.83,1.44,1.29,1.36
52,-4.15,-5.49,-3.91,-5.24,5.22,3.77,1.07,1.32,1.34
53,-3.70,-5.02,-3.66,-4.97,4.97,3.71,1.27,1.32,1.32
54,-3.21,-4.50,-3.42,-4.71,4.71,3.65,1.50,1.29,1.29
55,-3.23,-4.50,-3.19,-4.46,4.46,3.60,1.23,1.27,1.27
56,-2.95,-4.20,-2.97,-4.22,4.22,3.55,1.27,1.25,1.25
57,-2.79,-4.01,-2.77,-3.99,3.99,3.50,1.20,1.22,1.22
58,-2.60,-3.80,-2.58,-3.78,3.78,3.44,1.18,1.19,1.19
59,-2.31,-3.48,-2.41,-3.58,3.58,3.38,1.27,1.17,1.17
60,-2.30,-3.44,-2.25,-3.39,3.39,3.32,1.09,1.14,1.14
61,-2.20,-3.31,-2.11,-3.22,3.22,3.24,1.02,1.11,1.11
62,-1.98,-3.06,-1.97,-3.05,3.05,3.17,1.07,1.08,1.08
63,-1.76,-2.81,-1.84,-2.89,2.89,3.08,1.13,1.05,1.05
64,-1.59,-2.61,-1.73,-2.75,2.75,2.99,1.15,1.02,1.02
65,-1.67,-2.66,-1.62,-2.60,2.60,2.90,0.93,0.99,0.99
66,-1.54,-2.49,-1.51,-2.46,2.46,2.80,0.92,0.95,0.95
67,-1.50,-2.42,-1.40,-2.32,2.32,2.69,0.82,0.92,0.92
68,-1.27,-2.16,-1.29,-2.17,2.17,2.58,0.90,0.88,0.88
69,-1.26,-2.11,-1.18,-2.03,2.03,2.47,0.76,0.85,0.85
70,-0.93,-1.74,-1.06,-1.87,1.87,2.35,0.94,0.81,0.81
71,-0.92,-1.70,-0.94,-1.72,1.72,2.23,0.80,0.78,0.78
72,-0.79,-1.53,-0.82,-1.56,1.56,2.11,0.77,0.74,0.74
73,-0.74,-1.44,-0.70,-1.40,1.40,1.99,0.66,0.70,0.70
74,-0.68,-1.34,-0.57,-1.24,1.24,1.87,0.56,0.66,0.66
75,-0.47,-1.10,-0.45,-1.08,1.08,1.74,0.60,0.62,0.62
76,-0.33,-0.92,-0.33,-0.92,0.92,1.62,0.59,0.59,0.59
77,-0.04,-0.59,-0.22,-0.77,0.77,1.50,0.73,0.55,0.55
78,-0.15,-0.66,-0.12,-0.62,0.62,1.38,0.47,0.51,0.51
79,-0.10,-0.57,-0.02,-0.49,0.49,1.26,0.39,0.47,0.47
80,0.13,-0.30,0.07,-0.36,0.36,1.15,0.49,0.42,0.42
81,0.21,-0.17,0.15,-0.24,0.24,1.03,0.45,0.38,0.38
82,0.16,-0.18,0.22,-0.12,0.12,0.92,0.28,0.34,0.34
83,0.22,-0.08,0.29,-0.01,0.01,0.80,0.23,0.30,0.30
84,0.33,0.07,0.36,0.10,-0.10,0.69,0.23,0.26,0.26
85,0.50,0.28,0.43,0.21,-0.21,0.58,0.29,0.22,0.22
86,0.50,0.32,0.49,0.31,-0.31,0.47,0.19,0.18,0.18
87,0.60,0.46,0.55,0.41,-0.41,0.36,0.19,0.14,0.14
88,0.60,0.51,0.60,0.51,-0.51,0.26,0.09,0.09,0.09
89,0.61,0.56,0.66,0.61,-0.61,0.15,0.00,0.05,0.05
90,0.71,0.70,0.71,0.70,-0.70,0.05,0.01,0.01,0.01
91,0.71,0.74,0.76,0.79,-0.79,-0.06,-0.08,-0.03,-0.03
92,0.81,0.88,0.80,0.88,-0.88,-0.16,-0.07,-0.07,-0.07
93,0.88,0.99,0.85,0.96,-0.96,-0.26,-0.08,-0.11,-0.11
94,0.91,1.06,0.88,1.04,-1.04,-0.36,-0.13,-0.15,-0.15
95,0.91,1.10,0.92,1.11,-1.11,-0.45,-0.20,-0.19,-0.20
96,0.94,1.17,0.95,1.18,-1.18,-0.55,-0.24,-0.23,-0.24
97,1.00,1.28,0.97,1.24,-1.24,-0.65,-0.24,-0.27,-0.28
98,0.99,1.31,0.99,1.30,-1.30,-0.74,-0.31,-0.32,-0.32
99,0.98,1.33,1.00,1.36,-1.36,-0.83,-0.38,-0.36,-0.36
100,0.98,1.37,1.01,1.41,-1.41,-0.93,-0.43,-0.40,-0.39
101,1.05,1.48,1.02,1.46,-1.46,-1.02,-0.41,-0.44,-0.43
102,1.03,1.50,1.03,1.51,-1.51,-1.10,-0.49,-0.49,-0.47
104,1.01,1.55,1.03,1.56,-1.56,-1.27,-0.55,-0.53,-0.55
105,1.01,1.59,1.03,1.60,-1.60,-1.36,-0.60,-0.57,-0.58
106,1.06,1.68,1.03,1.64,-1.64,-1.44,-0.58,-0.61,-0.62
107,1.04,1.69,1.02,1.67,-1.67,-1.52,-0.63,-0.65,-0.65
108,1.01,1.70,1.00,1.69,-1.69,-1.59,-0.68,-0.69,-0.69
109,0.99,1.71,0.98,1.70,-1.70,-1.67,-0.71,-0.72,-0.72
110,0.97,1.72,0.96,1.71,-1.71,-1.74,-0.74,-0.75,-0.75
111,0.96,1.74,0.93,1.71,-1.71,-1.80,-0.75,-0.78,-0.78
112,0.90,1.71,0.90,1.72,-1.72,-1.87,-0.82,-0.81,-0.81
113,0.84,1.68,0.88,1.72,-1.72,-1.93,-0.88,-0.84,-0.84
114,0.83,1.70,0.86,1.73,-1.73,-1.99,-0.90,-0.88,-0.87
115,0.83,1.72,0.84,1.75,-1.75,-2.04,-0.92,-0.91,-0.90
117,0.83,1.78,0.83,1.77,-1.77,-2.14,-0.94,-0.94,-0.95
118,0.83,1.80,0.83,1.80,-1.80,-2.18,-0.97,-0.97,-0.98
119,0.84,1.84,0.84,1.83,-1.83,-2.23,-0.99,-1.00,-1.00
120,0.84,1.86,0.84,1.87,-1.87,-2.26,-1.03,-1.02,-1.02
121,0.85,1.89,0.85,1.90,-1.90,-2.29,-1.05,-1.05,-1.04
123,0.86,1.95,0.85,1.93,-1.93,-2.35,-1.07,-1.08,-1.09
124,0.87,1.98,0.85,1.96,-1.96,-2.37,-1.09,-1.10,-1.11
125,0.88,2.00,0.85,1.98,-1.98,-2.39,-1.10,-1.13,-1.12
126,0.88,2.02,0.85,2.00,-2.00,-2.40,-1.12,-1.15,-1.14
128,0.79,1.97,0.84,2.01,-2.01,-2.42,-1.22,-1.17,-1.18
129,0.79,1.99,0.83,2.02,-2.02,-2.43,-1.23,-1.19,-1.20
130,0.80,2.01,0.81,2.03,-2.03,-2.43,-1.23,-1.22,-1.21
131,0.81,2.04,0.79,2.03,-2.03,-2.43,-1.22,-1.24,-1.23
133,0.81,2.07,0.77,2.03,-2.03,-2.42,-1.22,-1.26,-1.26
134,0.80,2.08,0.74,2.02,-2.02,-2.41,-1.22,-1.28,-1.28
135,0.70,1.99,0.71,2.01,-2.01,-2.40,-1.31,-1.30,-1.29
137,0.62,1.95,0.68,2.00,-2.00,-2.37,-1.38,-1.32,-1.33
138,0.62,1.96,0.64,1.99,-1.99,-2.36,-1.37,-1.34,-1.34
140,0.63,2.00,0.61,1.97,-1.97,-2.32,-1.34,-1.36,-1.37
141,0.57,1.95,0.58,1.96,-1.96,-2.30,-1.39,-1.38,-1.38
142,0.51,1.91,0.55,1.95,-1.95,-2.28,-1.44,-1.40,-1.40
144,0.54,1.97,0.52,1.94,-1.94,-2.23,-1.40,-1.42,-1.43
145,0.55,1.99,0.49,1.93,-1.93,-2.20,-1.38,-1.45,-1.44
147,0.43,1.90,0.45,1.92,-1.92,-2.15,-1.49,-1.47,-1.47
148,0.43,1.91,0.42,1.91,-1.91,-2.13,-1.48,-1.49,-1.48
150,0.37,1.88,0.39,1.89,-1.89,-2.08,-1.52,-1.51,-1.51
151,0.30,1.82,0.35,1.87,-1.87,-2.05,-1.58,-1.53,-1.52
153,0.33,1.88,0.31,1.86,-1.86,-2.00,-1.53,-1.55,-1.55
154,0.35,1.91,0.27,1.84,-1.84,-1.97,-1.49,-1.56,-1.56
156,0.24,1.83,0.23,1.82,-1.82,-1.92,-1.58,-1.58,-1.59
157,0.13,1.73,0.19,1.79,-1.79,-1.90,-1.67,-1.60,-1.60
159,0.11,1.73,0.15,1.77,-1.77,-1.85,-1.66,-1.62,-1.62
160,0.13,1.76,0.11,1.75,-1.75,-1.82,-1.62,-1.64,-1.63
162,0.14,1.79,0.07,1.73,-1.73,-1.77,-1.59,-1.65,-1.65
164,0.09,1.76,0.04,1.71,-1.71,-1.73,-1.62,-1.67,-1.67
165,-0.05,1.63,-0.00,1.68,-1.68,-1.71,-1.74,-1.69,-1.68
167,-0.11,1.59,-0.04,1.66,-1.66,-1.66,-1.77,-1.70,-1.70
169,-0.09,1.63,-0.07,1.64,-1.64,-1.62,-1.73,-1.71,-1.72
170,-0.10,1.62,-0.11,1.62,-1.62,-1.60,-1.72,-1.73,-1.72
172,-0.09,1.65,-0.14,1.59,-1.59,-1.56,-1.68,-1.74,-1.74
174,-0.11,1.64,-0.18,1.57,-1.57,-1.53,-1.68,-1.75,-1.75
175,-0.20,1.55,-0.22,1.54,-1.54,-1.51,-1.74,-1.76,-1.75
177,-0.34,1.42,-0.26,1.50,-1.50,-1.48,-1.84,-1.76,-1.76
179,-0.33,1.44,-0.30,1.47,-1.47,-1.45,-1.80,-1.77,-1.77
181,-0.32,1.46,-0.34,1.44,-1.44,-1.42,-1.76,-1.78,-1.78
183,-0.36,1.42,-0.38,1.40,-1.40,-1.39,-1.76,-1.78,-1.78
184,-0.40,1.38,-0.41,1.37,-1.37,-1.38,-1.77,-1.78,-1.78
186,-0.45,1.33,-0.44,1.34,-1.34,-1.35,-1.79,-1.79,-1.79
188,-0.48,1.31,-0.47,1.32,-1.32,-1.33,-1.80,-1.79,-1.79
190,-0.46,1.33,-0.49,1.30,-1.30,-1.31,-1.76,-1.79,-1.79
192,-0.46,1.33,-0.50,1.29,-1.29,-1.29,-1.75,-1.79,-1.79
194,-0.57,1.22,-0.51,1.29,-1.29,-1.27,-1.86,-1.79,-1.79
196,-0.55,1.25,-0.50,1.29,-1.29,-1.25,-1.84,-1.80,-1.80
198,-0.55,1.25,-0.49,1.31,-1.31,-1.24,-1.86,-1.80,-1.80
200,-0.47,1.33,-0.47,1.33,-1.33,-1.22,-1.80,-1.80,-1.80
202,-0.39,1.41,-0.45,1.35,-1.35,-1.21,-1.74,-1.80,-1.80
204,-0.36,1.44,-0.43,1.37,-1.37,-1.20,-1.73,-1.80,-1.80
206,-0.41,1.39,-0.41,1.39,-1.39,-1.19,-1.80,-1.80,-1.80
208,-0.46,1.34,-0.40,1.40,-1.40,-1.17,-1.86,-1.80,-1.80
210,-0.38,1.42,-0.40,1.41,-1.41,-1.16,-1.79,-1.80,-1.80
212,-0.39,1.41,-0.40,1.41,-1.41,-1.15,-1.80,-1.80,-1.80
214,-0.39,1.41,-0.40,1.40,-1.40,-1.15,-1.79,-1.80,-1.80
216,-0.39,1.41,-0.41,1.39,-1.39,-1.14,-1.78,-1.80,-1.80
218,-0.40,1.40,-0.43,1.37,-1.37,-1.13,-1.77,-1.80,-1.80
221,-0.50,1.30,-0.45,1.35,-1.35,-1.12,-1.85,-1.80,-1.80
223,-0.50,1.30,-0.47,1.33,-1.33,-1.11,-1.83,-1.80,-1.80
225,-0.50,1.30,-0.50,1.30,-1.30,-1.10,-1.80,-1.80,-1.80
227,-0.50,1.30,-0.52,1.28,-1.28,-1.09,-1.78,-1.80,-1.80
229,-0.50,1.29,-0.55,1.25,-1.25,-1.09,-1.75,-1.79,-1.79
232,-0.51,1.28,-0.57,1.22,-1.22,-1.07,-1.73,-1.79,-1.79
234,-0.64,1.15,-0.59,1.20,-1.20,-1.07,-1.84,-1.79,-1.79
236,-0.67,1.11,-0.61,1.17,-1.17,-1.06,-1.85,-1.78,-1.78
239,-0.65,1.13,-0.62,1.16,-1.16,-1.05,-1.81,-1.78,-1.78
241,-0.64,1.13,-0.63,1.14,-1.14,-1.04,-1.79,-1.77,-1.77
244,-0.62,1.14,-0.63,1.13,-1.13,-1.02,-1.76,-1.76,-1.77
246,-0.60,1.16,-0.63,1.12,-1.12,-1.01,-1.73,-1.76,-1.76
248,-0.59,1.16,-0.64,1.11,-1.11,-1.00,-1.70,-1.75,-1.75
251,-0.66,1.08,-0.64,1.10,-1.10,-0.99,-1.76,-1.74,-1.74
253,-0.64,1.09,-0.66,1.08,-1.08,-0.98,-1.72,-1.74,-1.73
256,-0.69,1.04,-0.67,1.06,-1.06,-0.96,-1.75,-1.73,-1.73
259,-0.72,1.00,-0.70,1.03,-1.03,-0.94,-1.75,-1.72,-1.72
261,-0.72,0.99,-0.72,0.99,-0.99,-0.93,-1.71,-1.71,-1.71
264,-0.72,0.98,-0.76,0.95,-0.95,-0.91,-1.67,-1.71,-1.71
266,-0.80,0.90,-0.80,0.90,-0.90,-0.90,-1.70,-1.70,-1.70
269,-0.82,0.87,-0.84,0.85,-0.85,-0.88,-1.67,-1.69,-1.69
272,-0.87,0.81,-0.89,0.80,-0.80,-0.86,-1.67,-1.68,-1.68
274,-0.93,0.74,-0.93,0.75,-0.75,-0.85,-1.68,-1.68,-1.68
277,-1.00,0.67,-0.97,0.70,-0.70,-0.83,-1.70,-1.67,-1.67
280,-1.03,0.63,-1.01,0.65,-0.65,-0.81,-1.68,-1.66,-1.66
283,-1.05,0.61,-1.05,0.61,-0.61,-0.79,-1.66,-1.66,-1.66
286,-1.12,0.53,-1.07,0.58,-0.58,-0.77,-1.70,-1.65,-1.65
288,-1.11,0.53,-1.10,0.55,-0.55,-0.75,-1.66,-1.64,-1.64
291,-1.10,0.54,-1.12,0.52,-0.52,-0.73,-1.62,-1.64,-1.64
294,-1.09,0.54,-1.15,0.49,-0.49,-0.71,-1.58,-1.63,-1.63
297,-1.12,0.51,-1.17,0.46,-0.46,-0.69,-1.58,-1.63,-1.63
300,-1.25,0.37,-1.20,0.42,-0.42,-0.67,-1.67,-1.62,-1.62
303,-1.26,0.35,-1.23,0.38,-0.38,-0.65,-1.64,-1.62,-1.62
306,-1.25,0.36,-1.27,0.34,-0.34,-0.63,-1.59,-1.61,-1.61
309,-1.30,0.30,-1.31,0.30,-0.30,-0.61,-1.60,-1.60,-1.60
312,-1.33,0.27,-1.35,0.25,-0.25,-0.59,-1.58,-1.60,-1.60
316,-1.33,0.26,-1.39,0.21,-0.21,-0.57,-1.54,-1.59,-1.59
319,-1.40,0.19,-1.42,0.17,-0.17,-0.55,-1.57,-1.59,-1.59
322,-1.43,0.15,-1.44,0.15,-0.15,-0.53,-1.58,-1.58,-1.58
325,-1.52,0.06,-1.44,0.14,-0.14,-0.51,-1.66,-1.58,-1.58
328,-1.53,0.04,-1.42,0.15,-0.15,-0.49,-1.68,-1.57,-1.57
332,-1.43,0.14,-1.39,0.18,-0.18,-0.47,-1.61,-1.57,-1.57
335,-1.35,0.22,-1.35,0.22,-0.22,-0.45,-1.57,-1.57,-1.57
338,-1.23,0.33,-1.29,0.27,-0.27,-0.44,-1.50,-1.56,-1.56
342,-1.18,0.38,-1.24,0.32,-0.32,-0.42,-1.50,-1.56,-1.56
345,-1.21,0.34,-1.18,0.38,-0.38,-0.40,-1.59,-1.56,-1.56
349,-1.12,0.43,-1.13,0.42,-0.42,-0.38,-1.54,-1.55,-1.55
352,-1.12,0.43,-1.09,0.46,-0.46,-0.37,-1.58,-1.55,-1.55
356,-0.99,0.56,-1.07,0.48,-0.48,-0.35,-1.47,-1.55,-1.55
359,-0.98,0.57,-1.06,0.49,-0.49,-0.33,-1.47,-1.55,-1.55
363,-1.03,0.51,-1.05,0.49,-0.49,-0.31,-1.52,-1.55,-1.54
366,-1.15,0.39,-1.06,0.49,-0.49,-0.30,-1.64,-1.54,-1.54
370,-1.15,0.39,-1.07,0.48,-0.48,-0.28,-1.63,-1.54,-1.54
374,-1.10,0.44,-1.08,0.46,-0.46,-0.27,-1.56,-1.54,-1.54
377,-1.09,0.45,-1.09,0.45,-0.45,-0.25,-1.54,-1.54,-1.54
381,-1.03,0.50,-1.11,0.42,-0.42,-0.24,-1.46,-1.54,-1.54
385,-1.05,0.48,-1.13,0.40,-0.40,-0.22,-1.45,-1.53,-1.53
389,-1.17,0.36,-1.16,0.37,-0.37,-0.21,-1.54,-1.53,-1.53
393,-1.17,0.35,-1.19,0.33,-0.33,-0.19,-1.50,-1.52,-1.52
397,-1.28,0.23,-1.22,0.30,-0.30,-0.18,-1.58,-1.51,-1.51
401,-1.32,0.18,-1.25,0.26,-0.26,-0.16,-1.58,-1.50,-1.50
405,-1.27,0.22,-1.27,0.22,-0.22,-0.15,-1.49,-1.49,-1.49
409,-1.27,0.21,-1.29,0.18,-0.18,-0.13,-1.46,-1.48,-1.48
413,-1.28,0.18,-1.31,0.15,-0.15,-0.12,-1.43,-1.46,-1.46
417,-1.28,0.16,-1.33,0.11,-0.11,-0.11,-1.40,-1.44,-1.44
421,-1.33,0.09,-1.34,0.08,-0.08,-0.09,-1.41,-1.42,-1.42
425,-1.45,-0.06,-1.35,0.04,-0.04,-0.08,-1.49,-1.39,-1.40
430,-1.35,0.02,-1.36,0.01,-0.01,-0.07,-1.36,-1.37,-1.37
434,-1.26,0.08,-1.36,-0.02,0.02,-0.06,-1.24,-1.34,-1.34
438,-1.33,-0.03,-1.35,-0.05,0.05,-0.04,-1.28,-1.30,-1.30
443,-1.38,-0.11,-1.33,-0.07,0.07,-0.03,-1.31,-1.27,-1.27
447,-1.33,-0.10,-1.30,-0.08,0.08,-0.02,-1.26,-1.23,-1.23
451,-1.28,-0.09,-1.26,-0.07,0.07,-0.01,-1.21,-1.19,-1.19
456,-1.28,-0.13,-1.20,-0.05,0.05,0.00,-1.23,-1.15,-1.15
460,-1.18,-0.07,-1.13,-0.02,0.02,0.01,-1.16,-1.11,-1.11
465,-1.00,0.06,-1.06,0.01,-0.01,0.02,-1.01,-1.07,-1.07
470,-0.94,0.08,-0.98,0.04,-0.04,0.03,-0.98,-1.03,-1.03
474,-0.88,0.11,-0.92,0.07,-0.07,0.04,-0.95,-0.99,-0.99
479,-0.83,0.12,-0.86,0.09,-0.09,0.05,-0.92,-0.95,-0.95
484,-0.78,0.13,-0.82,0.10,-0.10,0.06,-0.88,-0.92,-0.92
489,-0.74,0.14,-0.79,0.10,-0.10,0.07,-0.84,-0.89,-0.88
494,-0.81,0.05,-0.77,0.09,-0.09,0.08,-0.90,-0.86,-0.86
499,-0.83,0.00,-0.75,0.08,-0.08,0.08,-0.92,-0.84,-0.83
504,-0.75,0.06,-0.74,0.08,-0.08,0.09,-0.83,-0.82,-0.81
509,-0.73,0.07,-0.73,0.07,-0.07,0.10,-0.80,-0.80,-0.80
514,-0.72,0.07,-0.73,0.06,-0.06,0.10,-0.78,-0.79,-0.79
519,-0.72,0.06,-0.73,0.06,-0.06,0.11,-0.78,-0.78,-0.78
524,-0.72,0.06,-0.73,0.05,-0.05,0.11,-0.77,-0.78,-0.78
529,-0.73,0.05,-0.74,0.04,-0.04,0.12,-0.77,-0.78,-0.78
535,-0.75,0.04,-0.76,0.03,-0.03,0.13,-0.78,-0.79,-0.79
540,-0.78,0.01,-0.79,0.01,-0.01,0.13,-0.79,-0.80,-0.80
545,-0.82,-0.02,-0.82,-0.01,0.01,0.14,-0.81,-0.81,-0.80
551,-0.87,-0.06,-0.86,-0.05,0.05,0.14,-0.83,-0.82,-0.82
556,-0.92,-0.09,-0.91,-0.08,0.08,0.14,-0.84,-0.83,-0.83
562,-0.97,-0.13,-0.96,-0.12,0.12,0.15,-0.85,-0.84,-0.84
568,-0.96,-0.11,-1.01,-0.17,0.17,0.15,-0.80,-0.85,-0.85
573,-1.00,-0.14,-1.07,-0.21,0.21,0.16,-0.79,-0.86,-0.86
579,-1.14,-0.28,-1.12,-0.25,0.25,0.16,-0.89,-0.86,-0.86
585,-1.22,-0.35,-1.16,-0.29,0.29,0.17,-0.93,-0.86,-0.87
591,-1.24,-0.37,-1.19,-0.33,0.33,0.17,-0.91,-0.86,-0.87
596,-1.24,-0.38,-1.22,-0.36,0.36,0.18,-0.88,-0.86,-0.86
602,-1.24,-0.39,-1.24,-0.39,0.39,0.18,-0.86,-0.85,-0.86
608,-1.23,-0.39,-1.25,-0.41,0.41,0.19,-0.82,-0.84,-0.84
615,-1.21,-0.38,-1.25,-0.43,0.43,0.19,-0.79,-0.83,-0.83
621,-1.19,-0.38,-1.25,-0.44,0.44,0.20,-0.75,-0.81,-0.81
627,-1.24,-0.45,-1.24,-0.45,0.45,0.20,-0.79,-0.79,-0.79
633,-1.30,-0.54,-1.22,-0.46,0.46,0.21,-0.84,-0.76,-0.76
639,-1.22,-0.49,-1.20,-0.47,0.47,0.21,-0.76,-0.73,-0.73
646,-1.17,-0.47,-1.17,-0.46,0.46,0.22,-0.71,-0.70,-0.70
652,-1.12,-0.45,-1.13,-0.46,0.46,0.23,-0.66,-0.67,-0.67
659,-1.08,-0.44,-1.08,-0.45,0.45,0.24,-0.63,-0.64,-0.64
665,-1.03,-0.43,-1.04,-0.44,0.44,0.24,-0.60,-0.60,-0.60
672,-0.97,-0.40,-0.99,-0.42,0.42,0.25,-0.55,-0.57,-0.57
679,-0.92,-0.39,-0.94,-0.40,0.40,0.26,-0.52,-0.53,-0.53
686,-0.88,-0.38,-0.89,-0.39,0.39,0.27,-0.49,-0.50,-0.50
692,-0.90,-0.43,-0.85,-0.38,0.38,0.28,-0.53,-0.47,-0.47
699,-0.82,-0.38,-0.80,-0.36,0.36,0.29,-0.46,-0.44,-0.44
706,-0.70,-0.29,-0.76,-0.35,0.35,0.30,-0.35,-0.41,-0.41
713,-0.69,-0.31,-0.72,-0.34,0.34,0.31,-0.35,-0.38,-0.38
721,-0.70,-0.34,-0.69,-0.33,0.33,0.32,-0.37,-0.36,-0.36
728,-0.75,-0.41,-0.66,-0.33,0.33,0.33,-0.43,-0.34,-0.34
735,-0.71,-0.39,-0.65,-0.33,0.33,0.34,-0.38,-0.32,-0.32
742,-0.53,-0.23,-0.64,-0.34,0.34,0.35,-0.19,-0.30,-0.30
750,-0.57,-0.29,-0.64,-0.36,0.36,0.37,-0.21,-0.28,-0.28
757,-0.60,-0.33,-0.66,-0.39,0.39,0.38,-0.22,-0.27,-0.27
765,-0.61,-0.35,-0.67,-0.42,0.42,0.39,-0.19,-0.26,-0.26
773,-0.77,-0.53,-0.69,-0.45,0.45,0.40,-0.32,-0.25,-0.25
780,-0.78,-0.55,-0.71,-0.48,0.48,0.41,-0.31,-0.24,-0.24
788,-0.78,-0.55,-0.72,-0.49,0.49,0.43,-0.29,-0.23,-0.23
796,-0.74,-0.52,-0.71,-0.50,0.50,0.44,-0.24,-0.22,-0.22
804,-0.64,-0.43,-0.70,-0.49,0.49,0.45,-0.15,-0.21,-0.21
812,-0.67,-0.47,-0.67,-0.47,0.47,0.46,-0.20,-0.20,-0.20
820,-0.71,-0.51,-0.63,-0.44,0.44,0.47,-0.27,-0.20,-0.20
828,-0.61,-0.42,-0.59,-0.40,0.40,0.49,-0.21,-0.19,-0.19
837,-0.42,-0.24,-0.55,-0.36,0.36,0.50,-0.06,-0.18,-0.18
845,-0.44,-0.27,-0.50,-0.33,0.33,0.51,-0.11,-0.18,-0.18
853,-0.51,-0.34,-0.46,-0.29,0.29,0.51,-0.22,-0.17,-0.17
862,-0.46,-0.30,-0.42,-0.26,0.26,0.52,-0.20,-0.16,-0.16
871,-0.40,-0.25,-0.38,-0.23,0.23,0.53,-0.17,-0.15,-0.15
879,-0.35,-0.21,-0.35,-0.20,0.20,0.53,-0.15,-0.15,-0.15
888,-0.30,-0.16,-0.32,-0.18,0.18,0.53,-0.12,-0.14,-0.14
897,-0.28,-0.15,-0.29,-0.16,0.16,0.53,-0.12,-0.13,-0.13
906,-0.23,-0.11,-0.27,-0.15,0.15,0.53,-0.08,-0.12,-0.12
915,-0.25,-0.14,-0.25,-0.14,0.14,0.53,-0.11,-0.11,-0.11
924,-0.22,-0.12,-0.24,-0.14,0.14,0.52,-0.08,-0.10,-0.10
933,-0.22,-0.13,-0.23,-0.14,0.14,0.51,-0.08,-0.09,-0.09
943,-0.22,-0.14,-0.22,-0.14,0.14,0.50,-0.08,-0.08,-0.08
952,-0.22,-0.15,-0.21,-0.14,0.14,0.48,-0.08,-0.07,-0.07
962,-0.21,-0.16,-0.19,-0.13,0.13,0.47,-0.08,-0.05,-0.05
971,-0.21,-0.17,-0.16,-0.12,0.12,0.45,-0.09,-0.04,-0.04
981,-0.16,-0.14,-0.12,-0.10,0.10,0.42,-0.06,-0.02,-0.02
991,-0.08,-0.07,-0.08,-0.07,0.07,0.39,-0.01,-0.01,-0.01
1001,0.01,-0.00,-0.03,-0.05,0.05,0.36,0.05,0.01,0.01
1011,0.05,0.02,0.01,-0.02,0.02,0.32,0.07,0.03,0.03
1021,0.08,0.02,0.06,0.00,-0.00,0.28,0.08,0.06,0.06
1031,0.10,0.02,0.10,0.02,-0.02,0.24,0.08,0.08,0.08
1041,0.13,0.02,0.13,0.03,-0.03,0.20,0.10,0.10,0.10
1052,0.17,0.04,0.16,0.03,-0.03,0.14,0.14,0.13,0.13
1062,0.21,0.05,0.19,0.03,-0.03,0.09,0.18,0.16,0.16
1073,0.25,0.06,0.22,0.03,-0.03,0.03,0.22,0.19,0.19
1084,0.26,0.04,0.25,0.03,-0.03,-0.03,0.23,0.22,0.22
1094,0.25,-0.01,0.30,0.04,-0.04,-0.09,0.21,0.25,0.25
1105,0.31,0.02,0.35,0.06,-0.06,-0.15,0.25,0.29,0.29
1116,0.38,0.06,0.41,0.09,-0.09,-0.22,0.29,0.32,0.32
1128,0.47,0.11,0.49,0.13,-0.13,-0.30,0.34,0.36,0.36
1139,0.62,0.23,0.57,0.18,-0.18,-0.37,0.44,0.39,0.39
1150,0.70,0.28,0.66,0.24,-0.24,-0.45,0.46,0.42,0.42
1162,0.73,0.27,0.76,0.31,-0.31,-0.53,0.42,0.46,0.46
1173,0.83,0.34,0.87,0.38,-0.38,-0.61,0.45,0.49,0.49
1185,0.98,0.46,0.97,0.45,-0.45,-0.70,0.53,0.52,0.52
1197,1.09,0.54,1.07,0.52,-0.52,-0.79,0.57,0.55,0.55
1209,1.20,0.62,1.17,0.59,-0.59,-0.88,0.61,0.57,0.57
1221,1.29,0.69,1.26,0.66,-0.66,-0.97,0.63,0.60,0.60
1233,1.34,0.72,1.35,0.73,-0.73,-1.06,0.61,0.62,0.62
1246,1.40,0.76,1.43,0.79,-0.79,-1.16,0.61,0.64,0.64
1258,1.51,0.85,1.51,0.86,-0.86,-1.25,0.65,0.65,0.65
1271,1.64,0.97,1.60,0.93,-0.93,-1.36,0.71,0.67,0.67
1283,1.74,1.06,1.68,1.01,-1.01,-1.45,0.73,0.68,0.68
1296,1.74,1.06,1.78,1.09,-1.09,-1.55,0.64,0.68,0.68
1309,1.85,1.16,1.88,1.19,-1.19,-1.66,0.65,0.69,0.69
1322,1.94,1.25,1.99,1.31,-1.31,-1.76,0.63,0.69,0.69
1335,2.06,1.37,2.12,1.44,-1.44,-1.87,0.62,0.68,0.68
1349,2.27,1.59,2.26,1.58,-1.58,-1.98,0.69,0.68,0.68
1362,2.50,1.82,2.41,1.74,-1.74,-2.09,0.76,0.67,0.67
1376,2.60,1.93,2.57,1.90,-1.90,-2.21,0.70,0.67,0.67
1390,2.67,2.01,2.73,2.07,-2.07,-2.33,0.59,0.66,0.66
1404,2.91,2.26,2.90,2.25,-2.25,-2.44,0.66,0.65,0.65
1418,3.08,2.44,3.07,2.43,-2.43,-2.56,0.65,0.64,0.64
1432,3.16,2.53,3.24,2.61,-2.61,-2.68,0.55,0.63,0.63
1446,3.47,2.84,3.41,2.78,-2.78,-2.80,0.69,0.63,0.63
1461,3.58,2.96,3.56,2.94,-2.94,-2.93,0.64,0.62,0.62
1475,3.68,3.06,3.70,3.09,-3.09,-3.05,0.59,0.62,0.62
1490,3.84,3.22,3.83,3.22,-3.22,-3.18,0.62,0.62,0.62
1505,4.03,3.41,3.95,3.33,-3.33,-3.31,0.70,0.62,0.62
1520,4.11,3.49,4.06,3.43,-3.43,-3.44,0.67,0.62,0.62
1535,4.27,3.64,4.16,3.53,-3.53,-3.58,0.74,0.63,0.63
1550,4.23,3.58,4.27,3.62,-3.62,-3.71,0.61,0.65,0.65
1566,4.29,3.62,4.38,3.71,-3.71,-3.85,0.58,0.67,0.67
1582,4.33,3.64,4.50,3.81,-3.81,-3.99,0.52,0.69,0.69
1597,4.45,3.73,4.63,3.91,-3.91,-4.12,0.54,0.72,0.72
1613,4.70,3.94,4.75,4.00,-4.00,-4.26,0.70,0.76,0.75
1629,4.99,4.19,4.87,4.07,-4.07,-4.40,0.92,0.80,0.79
1646,5.23,4.39,4.96,4.12,-4.12,-4.54,1.11,0.84,0.84
1662,5.29,4.40,5.03,4.13,-4.13,-4.68,1.15,0.89,0.89
1679,5.20,4.25,5.08,4.13,-4.13,-4.82,1.07,0.95,0.95
1696,5.10,4.09,5.12,4.11,-4.11,-4.96,0.99,1.01,1.01
