frequency,raw,smoothed,error,error_smoothed,equalization,parametric_eq,fixed_band_eq,equalized_raw,equalized_smoothed,target
20.00,-0.50,-0.50,-6.21,-6.21,5.98,6.53,2.10,5.48,5.48,5.71
20.20,-0.45,-0.45,-6.19,-6.19,6.00,6.48,2.16,5.55,5.55,5.74
20.40,-0.40,-0.40,-6.17,-6.17,6.01,6.43,2.23,5.61,5.61,5.77
20.61,-0.35,-0.35,-6.14,-6.15,6.01,6.39,2.29,5.66,5.66,5.79
20.81,-0.31,-0.31,-6.13,-6.13,6.02,6.34,2.36,5.71,5.71,5.82
21.02,-0.26,-0.26,-6.11,-6.10,6.01,6.29,2.43,5.75,5.75,5.85
21.23,-0.21,-0.21,-6.07,-6.07,6.00,6.24,2.50,5.79,5.79,5.86
21.44,-0.17,-0.17,-6.04,-6.04,5.99,6.19,2.57,5.82,5.82,5.87
21.66,-0.12,-0.12,-6.00,-6.00,5.97,6.14,2.65,5.85,5.85,5.88
21.87,-0.08,-0.08,-5.96,-5.96,5.95,6.09,2.73,5.87,5.87,5.88
22.09,-0.04,-0.04,-5.93,-5.92,5.92,6.04,2.81,5.88,5.88,5.89
22.31,0.00,0.00,-5.89,-5.89,5.89,5.99,2.89,5.89,5.89,5.89
22.54,0.04,0.04,-5.85,-5.85,5.85,5.94,2.97,5.89,5.89,5.89
22.76,0.08,0.08,-5.80,-5.80,5.81,5.88,3.06,5.89,5.89,5.88
22.99,0.12,0.12,-5.75,-5.76,5.76,5.83,3.15,5.88,5.88,5.87
23.22,0.16,0.16,-5.71,-5.71,5.72,5.78,3.24,5.88,5.88,5.87
23.45,0.20,0.20,-5.67,-5.67,5.68,5.73,3.33,5.88,5.88,5.87
23.69,0.24,0.24,-5.63,-5.63,5.63,5.68,3.42,5.87,5.87,5.87
23.92,0.28,0.28,-5.59,-5.60,5.59,5.63,3.52,5.87,5.87,5.87
24.16,0.32,0.32,-5.56,-5.56,5.55,5.57,3.62,5.87,5.87,5.88
24.40,0.36,0.36,-5.52,-5.52,5.51,5.52,3.72,5.87,5.87,5.88
24.65,0.40,0.40,-5.47,-5.47,5.47,5.47,3.82,5.87,5.87,5.87
24.89,0.44,0.44,-5.43,-5.43,5.43,5.42,3.92,5.87,5.87,5.87
25.14,0.48,0.48,-5.39,-5.39,5.39,5.36,4.02,5.87,5.87,5.87
25.39,0.52,0.52,-5.34,-5.34,5.34,5.31,4.13,5.86,5.86,5.87
25.65,0.56,0.56,-5.30,-5.30,5.30,5.26,4.23,5.86,5.86,5.86
25.91,0.60,0.60,-5.25,-5.26,5.26,5.21,4.33,5.86,5.86,5.85
26.16,0.64,0.64,-5.21,-5.21,5.22,5.15,4.44,5.86,5.86,5.85
26.43,0.68,0.68,-5.17,-5.17,5.17,5.10,4.54,5.85,5.85,5.85
26.69,0.72,0.72,-5.13,-5.13,5.13,5.05,4.64,5.85,5.85,5.85
26.96,0.76,0.76,-5.09,-5.09,5.09,4.99,4.74,5.85,5.85,5.85
27.23,0.80,0.80,-5.05,-5.05,5.04,4.94,4.84,5.84,5.84,5.85
27.50,0.84,0.84,-5.01,-5.00,5.00,4.89,4.93,5.84,5.84,5.85
27.77,0.88,0.88,-4.95,-4.95,4.95,4.83,5.02,5.83,5.84,5.83
28.05,0.93,0.93,-4.90,-4.90,4.91,4.78,5.11,5.84,5.83,5.83
28.33,0.97,0.97,-4.85,-4.85,4.86,4.73,5.19,5.83,5.83,5.82
28.62,1.01,1.01,-4.81,-4.81,4.81,4.68,5.27,5.82,5.82,5.82
28.90,1.06,1.06,-4.76,-4.76,4.76,4.62,5.34,5.82,5.82,5.82
29.19,1.10,1.10,-4.71,-4.71,4.71,4.57,5.40,5.81,5.81,5.81
29.48,1.15,1.15,-4.66,-4.66,4.66,4.52,5.46,5.81,5.81,5.82
29.78,1.19,1.19,-4.61,-4.61,4.61,4.46,5.51,5.80,5.80,5.80
30.08,1.24,1.24,-4.56,-4.56,4.56,4.41,5.55,5.80,5.80,5.80
30.38,1.28,1.28,-4.51,-4.51,4.51,4.36,5.58,5.79,5.79,5.79
30.68,1.33,1.33,-4.46,-4.46,4.46,4.31,5.61,5.79,5.79,5.79
30.99,1.38,1.38,-4.40,-4.40,4.40,4.25,5.62,5.78,5.78,5.78
31.30,1.42,1.42,-4.35,-4.35,4.35,4.20,5.63,5.77,5.77,5.77
31.61,1.47,1.47,-4.30,-4.30,4.30,4.15,5.62,5.77,5.77,5.77
31.93,1.51,1.51,-4.25,-4.25,4.25,4.10,5.61,5.76,5.76,5.76
32.24,1.56,1.56,-4.19,-4.19,4.19,4.05,5.59,5.75,5.75,5.75
32.57,1.60,1.60,-4.14,-4.14,4.14,3.99,5.55,5.74,5.74,5.74
32.89,1.65,1.65,-4.09,-4.09,4.09,3.94,5.52,5.74,5.74,5.74
33.22,1.70,1.70,-4.03,-4.03,4.03,3.89,5.47,5.73,5.73,5.73
33.55,1.74,1.74,-3.99,-3.98,3.98,3.84,5.41,5.72,5.72,5.73
33.89,1.79,1.79,-3.92,-3.93,3.93,3.79,5.35,5.72,5.72,5.71
34.23,1.83,1.83,-3.88,-3.87,3.87,3.74,5.28,5.70,5.71,5.71
34.57,1.88,1.88,-3.82,-3.82,3.82,3.69,5.21,5.70,5.70,5.70
34.92,1.92,1.92,-3.76,-3.77,3.76,3.64,5.13,5.68,5.69,5.68
35.27,1.97,1.97,-3.71,-3.71,3.71,3.59,5.05,5.68,5.68,5.68
35.62,2.01,2.01,-3.66,-3.65,3.65,3.54,4.96,5.66,5.67,5.67
35.97,2.06,2.06,-3.59,-3.60,3.60,3.49,4.87,5.66,5.66,5.65
36.33,2.10,2.10,-3.55,-3.54,3.55,3.44,4.77,5.65,5.65,5.65
36.70,2.14,2.14,-3.50,-3.49,3.49,3.40,4.68,5.63,5.64,5.64
37.06,2.19,2.19,-3.43,-3.44,3.44,3.35,4.58,5.63,5.62,5.62
37.43,2.23,2.23,-3.39,-3.38,3.38,3.30,4.48,5.62,5.61,5.62
37.81,2.27,2.27,-3.33,-3.33,3.33,3.26,4.39,5.60,5.60,5.60
38.19,2.31,2.31,-3.28,-3.28,3.28,3.21,4.29,5.59,5.59,5.59
38.57,2.35,2.35,-3.23,-3.23,3.23,3.16,4.19,5.58,5.58,5.58
38.95,2.39,2.39,-3.18,-3.18,3.18,3.12,4.09,5.57,5.57,5.57
39.34,2.42,2.42,-3.13,-3.13,3.13,3.07,3.99,5.55,5.55,5.55
39.74,2.46,2.46,-3.08,-3.08,3.08,3.03,3.90,5.54,5.54,5.54
40.14,2.50,2.50,-3.03,-3.03,3.03,2.98,3.80,5.53,5.53,5.53
40.54,2.53,2.53,-2.99,-2.99,2.99,2.94,3.71,5.52,5.52,5.52
40.94,2.57,2.57,-2.94,-2.94,2.95,2.90,3.62,5.52,5.51,5.51
41.35,2.60,2.60,-2.90,-2.90,2.90,2.85,3.53,5.50,5.50,5.50
41.76,2.63,2.63,-2.86,-2.86,2.86,2.81,3.44,5.49,5.49,5.49
42.18,2.66,2.66,-2.82,-2.82,2.82,2.77,3.36,5.48,5.48,5.48
42.60,2.69,2.69,-2.78,-2.78,2.77,2.73,3.27,5.46,5.46,5.47
43.03,2.72,2.72,-2.74,-2.74,2.73,2.69,3.19,5.45,5.45,5.46
43.46,2.75,2.75,-2.69,-2.69,2.69,2.65,3.11,5.44,5.44,5.44
43.90,2.78,2.78,-2.63,-2.64,2.64,2.61,3.04,5.42,5.42,5.41
44.33,2.80,2.80,-2.60,-2.59,2.60,2.57,2.96,5.40,5.40,5.40
44.78,2.83,2.83,-2.55,-2.55,2.56,2.53,2.89,5.39,5.38,5.38
45.23,2.85,2.85,-2.51,-2.51,2.51,2.49,2.82,5.36,5.36,5.36
45.68,2.87,2.87,-2.47,-2.47,2.47,2.45,2.75,5.34,5.35,5.34
46.13,2.89,2.89,-2.43,-2.44,2.44,2.42,2.69,5.33,5.33,5.32
46.60,2.91,2.91,-2.40,-2.40,2.40,2.38,2.63,5.31,5.31,5.31
47.06,2.93,2.93,-2.36,-2.36,2.36,2.35,2.57,5.29,5.29,5.29
47.53,2.95,2.95,-2.32,-2.33,2.32,2.31,2.51,5.27,5.27,5.27
48.01,2.97,2.97,-2.29,-2.29,2.28,2.28,2.45,5.25,5.25,5.26
48.49,2.98,2.98,-2.25,-2.25,2.25,2.24,2.40,5.23,5.23,5.23
48.97,3.00,3.00,-2.20,-2.20,2.21,2.21,2.34,5.21,5.20,5.20
49.46,3.01,3.01,-2.16,-2.16,2.17,2.17,2.29,5.18,5.18,5.17
49.96,3.02,3.02,-2.12,-2.12,2.13,2.14,2.24,5.15,5.15,5.14
50.46,3.03,3.03,-2.10,-2.09,2.09,2.11,2.20,5.12,5.12,5.13
50.96,3.04,3.04,-2.06,-2.06,2.06,2.08,2.15,5.10,5.10,5.10
51.47,3.05,3.05,-2.02,-2.02,2.02,2.04,2.11,5.07,5.08,5.07
51.99,3.06,3.06,-1.99,-1.99,1.99,2.01,2.07,5.05,5.05,5.05
52.51,3.07,3.07,-1.96,-1.96,1.96,1.98,2.03,5.03,5.03,5.03
53.03,3.07,3.07,-1.94,-1.93,1.93,1.95,1.99,5.00,5.01,5.01
53.56,3.08,3.08,-1.90,-1.90,1.90,1.92,1.95,4.98,4.98,4.98
54.10,3.09,3.09,-1.87,-1.87,1.87,1.89,1.91,4.96,4.96,4.96
54.64,3.09,3.09,-1.84,-1.84,1.84,1.86,1.87,4.93,4.93,4.93
55.18,3.09,3.09,-1.82,-1.81,1.81,1.83,1.84,4.90,4.91,4.91
55.74,3.10,3.10,-1.78,-1.79,1.79,1.81,1.80,4.89,4.88,4.88
56.29,3.10,3.10,-1.76,-1.76,1.76,1.78,1.77,4.86,4.86,4.86
56.86,3.10,3.10,-1.73,-1.73,1.73,1.75,1.74,4.83,4.84,4.83
57.42,3.10,3.10,-1.70,-1.71,1.71,1.72,1.70,4.81,4.81,4.80
58.00,3.10,3.10,-1.69,-1.69,1.69,1.69,1.67,4.79,4.79,4.79
58.58,3.10,3.10,-1.67,-1.67,1.67,1.67,1.64,4.77,4.77,4.77
59.16,3.10,3.10,-1.65,-1.64,1.64,1.64,1.61,4.74,4.74,4.75
59.76,3.10,3.10,-1.62,-1.62,1.62,1.61,1.58,4.72,4.72,4.72
60.35,3.10,3.10,-1.59,-1.59,1.59,1.59,1.54,4.69,4.69,4.69
60.96,3.10,3.10,-1.57,-1.56,1.56,1.56,1.51,4.66,4.66,4.67
61.57,3.10,3.10,-1.53,-1.53,1.53,1.53,1.48,4.63,4.63,4.63
62.18,3.09,3.09,-1.50,-1.50,1.51,1.50,1.45,4.60,4.60,4.59
62.80,3.09,3.09,-1.48,-1.47,1.48,1.48,1.42,4.57,4.57,4.57
63.43,3.09,3.09,-1.44,-1.45,1.45,1.45,1.38,4.54,4.54,4.53
64.07,3.09,3.09,-1.42,-1.42,1.42,1.42,1.35,4.51,4.51,4.51
64.71,3.08,3.08,-1.40,-1.40,1.39,1.40,1.32,4.47,4.48,4.48
65.35,3.08,3.08,-1.37,-1.37,1.37,1.37,1.29,4.45,4.45,4.45
66.01,3.08,3.08,-1.35,-1.34,1.34,1.34,1.25,4.42,4.42,4.43
66.67,3.09,3.09,-1.31,-1.31,1.31,1.32,1.22,4.40,4.40,4.40
67.33,3.09,3.09,-1.28,-1.28,1.28,1.29,1.19,4.37,4.37,4.37
68.01,3.09,3.09,-1.25,-1.25,1.25,1.26,1.15,4.34,4.34,4.34
68.69,3.09,3.09,-1.21,-1.21,1.22,1.23,1.12,4.31,4.31,4.30
69.37,3.09,3.09,-1.18,-1.18,1.18,1.20,1.09,4.27,4.27,4.27
70.07,3.10,3.10,-1.14,-1.15,1.15,1.18,1.05,4.25,4.24,4.24
70.77,3.10,3.10,-1.12,-1.11,1.11,1.15,1.02,4.21,4.21,4.22
71.48,3.10,3.10,-1.08,-1.08,1.07,1.12,0.98,4.17,4.18,4.18
72.19,3.11,3.11,-1.04,-1.04,1.04,1.09,0.95,4.15,4.14,4.15
72.91,3.11,3.11,-1.00,-1.00,1.00,1.06,0.92,4.11,4.11,4.11
73.64,3.12,3.12,-0.95,-0.96,0.96,1.03,0.88,4.08,4.08,4.07
74.38,3.12,3.12,-0.93,-0.92,0.92,1.00,0.85,4.04,4.04,4.05
75.12,3.13,3.13,-0.88,-0.88,0.88,0.97,0.81,4.01,4.01,4.01
75.87,3.13,3.13,-0.85,-0.85,0.84,0.94,0.78,3.97,3.98,3.98
76.63,3.14,3.14,-0.81,-0.81,0.81,0.91,0.75,3.95,3.95,3.95
77.40,3.15,3.15,-0.77,-0.77,0.77,0.87,0.71,3.92,3.92,3.92
78.17,3.15,3.15,-0.73,-0.73,0.73,0.84,0.68,3.88,3.89,3.88
78.95,3.16,3.16,-0.69,-0.69,0.69,0.81,0.65,3.85,3.85,3.85
79.74,3.16,3.16,-0.66,-0.66,0.66,0.77,0.61,3.82,3.82,3.82
80.54,3.16,3.16,-0.63,-0.62,0.62,0.74,0.58,3.78,3.78,3.79
81.35,3.17,3.17,-0.58,-0.59,0.58,0.71,0.55,3.75,3.75,3.75
82.16,3.17,3.17,-0.54,-0.55,0.54,0.67,0.52,3.71,3.71,3.71
82.98,3.17,3.17,-0.52,-0.51,0.51,0.64,0.48,3.68,3.68,3.69
83.81,3.18,3.18,-0.46,-0.47,0.47,0.60,0.45,3.65,3.65,3.64
84.65,3.18,3.18,-0.42,-0.43,0.43,0.57,0.42,3.61,3.61,3.60
85.50,3.18,3.18,-0.39,-0.39,0.39,0.53,0.39,3.57,3.57,3.57
86.35,3.18,3.18,-0.36,-0.35,0.35,0.49,0.36,3.53,3.53,3.54
87.22,3.18,3.18,-0.32,-0.32,0.32,0.46,0.33,3.50,3.50,3.50
88.09,3.18,3.18,-0.28,-0.28,0.28,0.42,0.30,3.46,3.46,3.46
88.97,3.18,3.18,-0.24,-0.24,0.24,0.38,0.27,3.42,3.42,3.42
89.86,3.17,3.17,-0.21,-0.21,0.21,0.34,0.23,3.38,3.38,3.38
90.76,3.17,3.17,-0.16,-0.17,0.17,0.31,0.20,3.34,3.34,3.33
91.66,3.16,3.16,-0.14,-0.13,0.13,0.27,0.17,3.29,3.29,3.30
92.58,3.16,3.16,-0.08,-0.09,0.09,0.23,0.14,3.25,3.25,3.24
93.51,3.15,3.15,-0.06,-0.06,0.06,0.19,0.11,3.21,3.21,3.21
94.44,3.14,3.14,-0.03,-0.02,0.02,0.15,0.08,3.16,3.16,3.17
95.39,3.14,3.14,0.02,0.02,-0.02,0.11,0.05,3.12,3.12,3.12
96.34,3.13,3.13,0.06,0.06,-0.05,0.07,0.02,3.08,3.07,3.07
97.30,3.12,3.12,0.10,0.09,-0.09,0.03,-0.01,3.03,3.03,3.02
98.28,3.10,3.10,0.12,0.13,-0.13,-0.01,-0.04,2.97,2.98,2.98
99.26,3.09,3.09,0.16,0.16,-0.16,-0.05,-0.07,2.93,2.93,2.93
100.25,3.08,3.08,0.19,0.19,-0.19,-0.09,-0.09,2.89,2.88,2.89
101.25,3.06,3.06,0.22,0.22,-0.22,-0.13,-0.12,2.84,2.84,2.84
102.27,3.05,3.05,0.26,0.26,-0.25,-0.17,-0.15,2.80,2.79,2.79
103.29,3.03,3.03,0.29,0.29,-0.28,-0.21,-0.18,2.75,2.75,2.74
104.32,3.01,3.01,0.31,0.31,-0.31,-0.25,-0.21,2.70,2.70,2.70
105.37,2.99,2.99,0.33,0.34,-0.34,-0.29,-0.24,2.65,2.65,2.66
106.42,2.97,2.97,0.36,0.36,-0.36,-0.33,-0.26,2.61,2.61,2.61
107.48,2.95,2.95,0.39,0.39,-0.39,-0.37,-0.29,2.56,2.56,2.56
108.56,2.92,2.92,0.41,0.41,-0.41,-0.41,-0.32,2.51,2.51,2.51
109.64,2.90,2.90,0.44,0.43,-0.43,-0.45,-0.34,2.47,2.46,2.46
110.74,2.87,2.87,0.46,0.46,-0.46,-0.48,-0.37,2.41,2.41,2.41
111.85,2.84,2.84,0.47,0.48,-0.48,-0.52,-0.39,2.36,2.36,2.37
112.97,2.81,2.81,0.51,0.50,-0.50,-0.56,-0.42,2.31,2.30,2.30
114.10,2.78,2.78,0.52,0.52,-0.53,-0.60,-0.44,2.25,2.25,2.26
115.24,2.75,2.75,0.55,0.55,-0.55,-0.64,-0.46,2.20,2.20,2.20
116.39,2.73,2.73,0.58,0.58,-0.58,-0.67,-0.49,2.15,2.15,2.15
117.55,2.70,2.70,0.61,0.60,-0.60,-0.71,-0.51,2.10,2.10,2.09
118.73,2.67,2.67,0.63,0.63,-0.62,-0.74,-0.53,2.05,2.05,2.04
119.92,2.64,2.64,0.64,0.65,-0.64,-0.78,-0.55,2.00,2.00,2.00
121.12,2.61,2.61,0.67,0.67,-0.66,-0.81,-0.56,1.95,1.95,1.94
122.33,2.58,2.58,0.69,0.68,-0.69,-0.85,-0.58,1.89,1.89,1.89
123.55,2.55,2.55,0.70,0.70,-0.71,-0.88,-0.60,1.84,1.84,1.85
124.79,2.52,2.52,0.72,0.72,-0.73,-0.91,-0.61,1.79,1.80,1.80
126.03,2.50,2.50,0.75,0.75,-0.75,-0.94,-0.63,1.75,1.75,1.75
127.29,2.47,2.47,0.77,0.77,-0.77,-0.98,-0.64,1.70,1.70,1.70
128.57,2.44,2.44,0.80,0.80,-0.80,-1.01,-0.65,1.64,1.65,1.64
129.85,2.42,2.42,0.83,0.83,-0.82,-1.03,-0.67,1.60,1.59,1.59
131.15,2.39,2.39,0.85,0.85,-0.85,-1.06,-0.68,1.54,1.54,1.54
132.46,2.37,2.37,0.87,0.87,-0.87,-1.09,-0.69,1.50,1.50,1.50
133.79,2.35,2.35,0.89,0.90,-0.90,-1.12,-0.70,1.45,1.45,1.46
135.12,2.33,2.33,0.93,0.92,-0.92,-1.14,-0.70,1.41,1.41,1.40
136.48,2.31,2.31,0.94,0.94,-0.95,-1.17,-0.71,1.36,1.36,1.37
137.84,2.29,2.29,0.97,0.97,-0.97,-1.19,-0.72,1.32,1.32,1.32
139.22,2.27,2.27,1.00,0.99,-0.99,-1.22,-0.73,1.28,1.28,1.27
140.61,2.25,2.25,1.02,1.02,-1.01,-1.24,-0.73,1.24,1.24,1.23
142.02,2.23,2.23,1.02,1.04,-1.03,-1.26,-0.74,1.20,1.20,1.21
143.44,2.22,2.22,1.06,1.05,-1.05,-1.28,-0.75,1.17,1.16,1.16
144.87,2.20,2.20,1.08,1.07,-1.07,-1.30,-0.75,1.13,1.13,1.12
146.32,2.18,2.18,1.10,1.09,-1.09,-1.32,-0.76,1.09,1.09,1.08
147.78,2.16,2.16,1.10,1.11,-1.11,-1.34,-0.77,1.05,1.05,1.06
149.26,2.14,2.14,1.12,1.13,-1.13,-1.35,-0.77,1.01,1.01,1.02
150.75,2.13,2.13,1.16,1.15,-1.15,-1.37,-0.78,0.98,0.97,0.97
152.26,2.11,2.11,1.18,1.18,-1.17,-1.38,-0.79,0.94,0.94,0.93
153.78,2.09,2.09,1.19,1.20,-1.20,-1.40,-0.79,0.89,0.90,0.90
155.32,2.08,2.08,1.23,1.22,-1.22,-1.41,-0.80,0.86,0.85,0.85
156.88,2.06,2.06,1.24,1.24,-1.25,-1.42,-0.81,0.81,0.81,0.82
158.44,2.05,2.05,1.27,1.27,-1.27,-1.43,-0.82,0.78,0.78,0.78
160.03,2.03,2.03,1.30,1.30,-1.30,-1.44,-0.83,0.73,0.73,0.73
161.63,2.02,2.02,1.33,1.32,-1.32,-1.45,-0.84,0.70,0.70,0.69
163.24,2.00,2.00,1.35,1.35,-1.34,-1.46,-0.85,0.66,0.66,0.65
164.88,1.99,1.99,1.37,1.37,-1.37,-1.46,-0.86,0.62,0.62,0.62
166.53,1.97,1.97,1.39,1.39,-1.39,-1.47,-0.87,0.58,0.58,0.58
168.19,1.95,1.95,1.41,1.41,-1.41,-1.47,-0.88,0.54,0.55,0.54
169.87,1.93,1.93,1.42,1.42,-1.42,-1.48,-0.90,0.51,0.51,0.51
171.57,1.91,1.91,1.44,1.44,-1.44,-1.48,-0.91,0.47,0.47,0.47
173.29,1.89,1.89,1.46,1.46,-1.46,-1.48,-0.93,0.43,0.43,0.43
175.02,1.87,1.87,1.47,1.47,-1.48,-1.48,-0.94,0.39,0.39,0.40
176.77,1.85,1.85,1.50,1.49,-1.49,-1.48,-0.96,0.36,0.36,0.35
178.54,1.82,1.82,1.51,1.51,-1.51,-1.48,-0.98,0.31,0.32,0.31
180.32,1.80,1.80,1.52,1.52,-1.52,-1.48,-0.99,0.28,0.28,0.28
182.13,1.77,1.77,1.53,1.53,-1.53,-1.48,-1.01,0.24,0.24,0.24
183.95,1.74,1.74,1.54,1.54,-1.54,-1.48,-1.03,0.20,0.20,0.20
185.79,1.71,1.71,1.54,1.54,-1.54,-1.47,-1.05,0.17,0.17,0.17
187.65,1.68,1.68,1.55,1.54,-1.54,-1.47,-1.08,0.14,0.14,0.13
189.52,1.64,1.64,1.54,1.54,-1.54,-1.46,-1.10,0.10,0.10,0.10
191.42,1.60,1.60,1.53,1.53,-1.53,-1.45,-1.12,0.07,0.07,0.07
193.33,1.56,1.56,1.52,1.52,-1.52,-1.45,-1.14,0.04,0.04,0.04
195.27,1.52,1.52,1.51,1.51,-1.51,-1.44,-1.17,0.01,0.01,0.01
197.22,1.48,1.48,1.49,1.50,-1.49,-1.43,-1.19,-0.01,-0.01,-0.01
199.19,1.43,1.43,1.48,1.48,-1.47,-1.42,-1.22,-0.04,-0.04,-0.05
201.18,1.39,1.39,1.46,1.46,-1.45,-1.41,-1.24,-0.06,-0.06,-0.07
203.19,1.34,1.34,1.42,1.43,-1.43,-1.40,-1.27,-0.09,-0.09,-0.08
205.23,1.30,1.30,1.41,1.40,-1.41,-1.39,-1.29,-0.11,-0.11,-0.11
207.28,1.27,1.26,1.38,1.39,-1.39,-1.38,-1.32,-0.12,-0.13,-0.11
209.35,1.23,1.23,1.37,1.38,-1.38,-1.37,-1.34,-0.15,-0.14,-0.14
211.44,1.21,1.21,1.37,1.36,-1.37,-1.35,-1.37,-0.16,-0.16,-0.16
213.56,1.19,1.19,1.36,1.36,-1.36,-1.34,-1.39,-0.17,-0.17,-0.17
215.69,1.18,1.18,1.35,1.36,-1.36,-1.33,-1.42,-0.18,-0.18,-0.17
217.85,1.18,1.18,1.36,1.36,-1.37,-1.31,-1.44,-0.19,-0.19,-0.18
220.03,1.18,1.18,1.38,1.37,-1.37,-1.30,-1.46,-0.19,-0.19,-0.20
222.23,1.18,1.18,1.39,1.38,-1.38,-1.28,-1.48,-0.20,-0.20,-0.21
224.45,1.18,1.18,1.38,1.39,-1.38,-1.27,-1.50,-0.20,-0.20,-0.20
226.70,1.19,1.19,1.39,1.39,-1.38,-1.25,-1.52,-0.19,-0.20,-0.20
228.96,1.19,1.19,1.39,1.39,-1.39,-1.23,-1.53,-0.20,-0.20,-0.20
231.25,1.19,1.19,1.38,1.38,-1.38,-1.22,-1.54,-0.19,-0.19,-0.19
233.57,1.18,1.18,1.37,1.38,-1.38,-1.20,-1.56,-0.20,-0.19,-0.19
235.90,1.18,1.18,1.37,1.37,-1.37,-1.18,-1.57,-0.19,-0.19,-0.19
238.26,1.17,1.17,1.36,1.36,-1.35,-1.16,-1.57,-0.18,-0.18,-0.19
240.64,1.16,1.16,1.34,1.34,-1.34,-1.14,-1.58,-0.18,-0.18,-0.18
243.05,1.15,1.15,1.32,1.32,-1.32,-1.13,-1.58,-0.17,-0.17,-0.17
245.48,1.14,1.14,1.30,1.29,-1.30,-1.11,-1.58,-0.16,-0.16,-0.16
247.93,1.12,1.12,1.26,1.27,-1.27,-1.09,-1.57,-0.15,-0.15,-0.14
250.41,1.11,1.11,1.25,1.25,-1.25,-1.07,-1.56,-0.14,-0.14,-0.14
252.92,1.10,1.10,1.22,1.22,-1.22,-1.05,-1.55,-0.12,-0.12,-0.12
255.45,1.09,1.09,1.19,1.19,-1.19,-1.03,-1.54,-0.10,-0.11,-0.10
258.00,1.08,1.08,1.16,1.16,-1.17,-1.01,-1.53,-0.09,-0.09,-0.08
260.58,1.07,1.07,1.14,1.14,-1.14,-0.99,-1.51,-0.07,-0.07,-0.07
263.19,1.07,1.07,1.12,1.12,-1.11,-0.97,-1.49,-0.04,-0.05,-0.05
265.82,1.06,1.06,1.09,1.09,-1.09,-0.95,-1.46,-0.03,-0.03,-0.03
268.48,1.05,1.05,1.06,1.06,-1.06,-0.92,-1.44,-0.01,-0.01,-0.01
271.16,1.04,1.04,1.03,1.03,-1.03,-0.90,-1.41,0.01,0.01,0.01
273.87,1.03,1.03,1.00,1.00,-1.01,-0.88,-1.37,0.02,0.03,0.03
276.61,1.03,1.03,0.98,0.98,-0.98,-0.86,-1.34,0.05,0.05,0.05
279.38,1.02,1.02,0.95,0.95,-0.95,-0.84,-1.31,0.07,0.07,0.07
282.17,1.01,1.01,0.93,0.93,-0.92,-0.82,-1.27,0.09,0.09,0.08
284.99,1.00,1.00,0.89,0.90,-0.90,-0.79,-1.23,0.10,0.11,0.11
287.84,1.00,1.00,0.88,0.87,-0.87,-0.77,-1.19,0.13,0.13,0.12
290.72,0.99,0.99,0.84,0.84,-0.84,-0.75,-1.15,0.15,0.15,0.15
293.63,0.98,0.98,0.82,0.81,-0.82,-0.73,-1.11,0.16,0.16,0.16
296.57,0.97,0.97,0.78,0.79,-0.79,-0.70,-1.06,0.18,0.18,0.19
299.53,0.96,0.96,0.75,0.76,-0.76,-0.68,-1.02,0.20,0.21,0.21
302.53,0.96,0.96,0.74,0.73,-0.73,-0.66,-0.98,0.23,0.23,0.22
305.55,0.95,0.95,0.69,0.70,-0.69,-0.63,-0.93,0.26,0.26,0.26
308.61,0.94,0.94,0.67,0.66,-0.66,-0.61,-0.88,0.28,0.28,0.27
311.69,0.93,0.93,0.63,0.62,-0.63,-0.59,-0.84,0.30,0.30,0.30
314.81,0.92,0.92,0.58,0.59,-0.59,-0.57,-0.79,0.33,0.33,0.34
317.96,0.91,0.91,0.56,0.56,-0.56,-0.54,-0.75,0.35,0.35,0.35
321.14,0.90,0.90,0.53,0.53,-0.53,-0.52,-0.70,0.37,0.37,0.37
324.35,0.89,0.89,0.50,0.50,-0.49,-0.50,-0.65,0.40,0.39,0.39
327.59,0.87,0.87,0.46,0.46,-0.46,-0.47,-0.61,0.41,0.41,0.41
330.87,0.86,0.86,0.43,0.43,-0.43,-0.45,-0.56,0.43,0.43,0.43
334.18,0.85,0.85,0.40,0.40,-0.40,-0.43,-0.52,0.45,0.45,0.45
337.52,0.84,0.84,0.37,0.37,-0.37,-0.40,-0.47,0.47,0.47,0.47
340.90,0.83,0.83,0.34,0.34,-0.34,-0.38,-0.42,0.49,0.49,0.49
344.30,0.81,0.81,0.30,0.30,-0.30,-0.35,-0.38,0.51,0.51,0.51
347.75,0.80,0.80,0.27,0.27,-0.27,-0.33,-0.33,0.53,0.53,0.53
351.23,0.79,0.79,0.24,0.24,-0.24,-0.31,-0.29,0.55,0.55,0.55
354.74,0.78,0.78,0.22,0.21,-0.21,-0.28,-0.24,0.57,0.57,0.56
358.28,0.76,0.76,0.18,0.18,-0.18,-0.26,-0.20,0.58,0.58,0.58
361.87,0.75,0.75,0.15,0.15,-0.15,-0.24,-0.16,0.60,0.59,0.60
365.49,0.73,0.73,0.12,0.12,-0.13,-0.21,-0.11,0.60,0.61,0.61
369.14,0.72,0.72,0.10,0.10,-0.10,-0.19,-0.07,0.62,0.62,0.62
372.83,0.71,0.71,0.08,0.08,-0.07,-0.16,-0.02,0.64,0.64,0.63
376.56,0.70,0.70,0.06,0.05,-0.05,-0.14,0.02,0.65,0.65,0.64
380.33,0.69,0.69,0.02,0.02,-0.03,-0.12,0.06,0.66,0.66,0.67
384.13,0.68,0.68,0.00,0.00,-0.00,-0.09,0.11,0.68,0.68,0.68
387.97,0.67,0.67,-0.02,-0.02,0.02,-0.07,0.15,0.69,0.69,0.69
391.85,0.66,0.66,-0.04,-0.04,0.04,-0.04,0.19,0.70,0.70,0.70
395.77,0.66,0.66,-0.06,-0.05,0.05,-0.02,0.23,0.71,0.71,0.72
399.73,0.65,0.65,-0.07,-0.07,0.07,0.01,0.27,0.72,0.72,0.72
403.72,0.65,0.65,-0.08,-0.09,0.09,0.03,0.31,0.74,0.74,0.73
407.76,0.64,0.64,-0.10,-0.10,0.10,0.05,0.36,0.74,0.75,0.74
411.84,0.64,0.64,-0.12,-0.12,0.12,0.08,0.40,0.76,0.76,0.76
415.96,0.63,0.63,-0.14,-0.14,0.13,0.10,0.44,0.76,0.77,0.77
420.12,0.63,0.63,-0.15,-0.15,0.15,0.13,0.47,0.78,0.77,0.78
424.32,0.62,0.62,-0.17,-0.16,0.16,0.15,0.51,0.78,0.79,0.79
428.56,0.62,0.62,-0.18,-0.17,0.18,0.18,0.55,0.80,0.80,0.80
432.85,0.62,0.62,-0.18,-0.19,0.19,0.20,0.59,0.81,0.81,0.80
437.18,0.61,0.61,-0.20,-0.20,0.21,0.23,0.63,0.82,0.82,0.81
441.55,0.61,0.61,-0.22,-0.22,0.22,0.25,0.66,0.83,0.83,0.83
445.96,0.60,0.60,-0.24,-0.24,0.24,0.27,0.70,0.84,0.84,0.84
450.42,0.60,0.60,-0.25,-0.26,0.26,0.30,0.73,0.86,0.86,0.85
454.93,0.59,0.59,-0.28,-0.28,0.28,0.32,0.76,0.87,0.87,0.87
459.48,0.58,0.58,-0.30,-0.30,0.30,0.35,0.79,0.88,0.88,0.88
464.07,0.57,0.57,-0.33,-0.32,0.32,0.37,0.82,0.89,0.90,0.90
468.71,0.57,0.57,-0.35,-0.35,0.35,0.40,0.85,0.92,0.91,0.92
473.40,0.56,0.56,-0.37,-0.37,0.37,0.42,0.88,0.93,0.93,0.93
478.13,0.55,0.55,-0.40,-0.39,0.39,0.45,0.91,0.94,0.94,0.95
482.91,0.54,0.54,-0.42,-0.42,0.42,0.47,0.93,0.96,0.96,0.96
487.74,0.53,0.53,-0.44,-0.44,0.44,0.50,0.96,0.97,0.98,0.97
492.62,0.52,0.52,-0.47,-0.47,0.47,0.52,0.98,0.99,0.99,0.99
497.55,0.51,0.51,-0.49,-0.50,0.50,0.55,1.00,1.01,1.00,1.00
502.52,0.49,0.49,-0.53,-0.53,0.53,0.57,1.02,1.02,1.02,1.02
507.55,0.48,0.48,-0.55,-0.55,0.55,0.60,1.03,1.03,1.03,1.03
512.62,0.47,0.47,-0.58,-0.58,0.58,0.62,1.05,1.05,1.05,1.05
517.75,0.46,0.46,-0.61,-0.61,0.61,0.65,1.07,1.07,1.07,1.07
522.93,0.44,0.44,-0.65,-0.64,0.64,0.67,1.08,1.08,1.09,1.09
528.16,0.43,0.43,-0.67,-0.67,0.67,0.70,1.09,1.10,1.11,1.10
533.44,0.42,0.42,-0.70,-0.70,0.71,0.72,1.10,1.13,1.12,1.12
538.77,0.40,0.40,-0.74,-0.74,0.74,0.75,1.11,1.14,1.14,1.14
544.16,0.38,0.38,-0.78,-0.78,0.78,0.78,1.12,1.16,1.16,1.16
549.60,0.36,0.36,-0.82,-0.81,0.81,0.80,1.13,1.17,1.17,1.18
555.10,0.34,0.34,-0.85,-0.85,0.85,0.83,1.14,1.19,1.19,1.19
