frequency,raw,error,smoothed,error_smoothed,equalization,parametric_eq,equalized_raw,equalized_smoothed,target
20.00,11.27,3.64,11.27,3.64,-3.64,-1.83,7.63,7.63,7.63
20.20,11.28,3.65,11.28,3.65,-3.65,-1.88,7.63,7.63,7.63
20.40,11.29,3.66,11.29,3.66,-3.66,-1.93,7.63,7.63,7.63
20.61,11.30,3.67,11.30,3.67,-3.67,-1.98,7.62,7.63,7.63
20.81,11.32,3.69,11.31,3.69,-3.69,-2.04,7.63,7.62,7.62
21.02,11.33,3.70,11.32,3.70,-3.70,-2.10,7.63,7.62,7.62
21.23,11.33,3.71,11.33,3.71,-3.71,-2.16,7.62,7.62,7.62
21.44,11.34,3.72,11.34,3.72,-3.72,-2.22,7.62,7.62,7.62
21.66,11.35,3.73,11.35,3.73,-3.73,-2.28,7.62,7.62,7.62
21.87,11.36,3.74,11.36,3.74,-3.74,-2.35,7.62,7.62,7.62
22.09,11.37,3.75,11.37,3.75,-3.75,-2.41,7.61,7.62,7.62
22.31,11.38,3.76,11.38,3.77,-3.77,-2.48,7.61,7.61,7.61
22.54,11.39,3.78,11.39,3.78,-3.78,-2.55,7.61,7.61,7.61
22.76,11.40,3.79,11.40,3.79,-3.79,-2.62,7.61,7.61,7.61
22.99,11.41,3.80,11.41,3.80,-3.80,-2.69,7.61,7.61,7.61
23.22,11.42,3.81,11.42,3.81,-3.81,-2.77,7.61,7.61,7.61
23.45,11.43,3.82,11.43,3.82,-3.82,-2.85,7.61,7.60,7.61
23.69,11.44,3.84,11.44,3.83,-3.83,-2.92,7.60,7.60,7.60
23.92,11.45,3.85,11.45,3.84,-3.84,-3.00,7.60,7.60,7.60
24.16,11.46,3.86,11.45,3.86,-3.86,-3.08,7.60,7.60,7.60
24.40,11.46,3.86,11.46,3.87,-3.87,-3.17,7.59,7.60,7.60
24.65,11.47,3.87,11.47,3.88,-3.88,-3.25,7.59,7.59,7.59
24.89,11.48,3.89,11.48,3.89,-3.89,-3.33,7.59,7.59,7.59
25.14,11.49,3.90,11.49,3.90,-3.90,-3.42,7.59,7.59,7.59
25.39,11.50,3.91,11.50,3.91,-3.91,-3.51,7.59,7.59,7.59
25.65,11.51,3.92,11.51,3.92,-3.92,-3.59,7.59,7.59,7.59
25.91,11.52,3.94,11.52,3.93,-3.93,-3.68,7.58,7.58,7.58
26.16,11.53,3.95,11.52,3.94,-3.94,-3.76,7.58,7.58,7.58
26.43,11.54,3.96,11.53,3.96,-3.96,-3.85,7.58,7.58,7.58
26.69,11.54,3.96,11.54,3.97,-3.97,-3.93,7.57,7.57,7.58
26.96,11.55,3.98,11.55,3.98,-3.98,-4.02,7.57,7.57,7.57
27.23,11.56,3.99,11.56,3.99,-3.99,-4.10,7.57,7.57,7.57
27.50,11.56,3.99,11.56,4.00,-4.00,-4.18,7.56,7.57,7.57
27.77,11.57,4.00,11.57,4.01,-4.01,-4.26,7.56,7.56,7.56
28.05,11.58,4.02,11.58,4.02,-4.02,-4.33,7.56,7.56,7.56
28.33,11.58,4.02,11.58,4.03,-4.03,-4.41,7.55,7.56,7.56
28.62,11.59,4.03,11.59,4.04,-4.04,-4.48,7.55,7.55,7.55
28.90,11.60,4.05,11.60,4.05,-4.05,-4.54,7.55,7.55,7.55
29.19,11.61,4.06,11.60,4.06,-4.06,-4.60,7.55,7.55,7.55
29.48,11.61,4.06,11.61,4.07,-4.07,-4.66,7.54,7.54,7.54
29.78,11.62,4.08,11.61,4.07,-4.07,-4.71,7.54,7.54,7.54
30.08,11.62,4.08,11.62,4.08,-4.08,-4.75,7.53,7.54,7.54
30.38,11.63,4.10,11.63,4.09,-4.09,-4.79,7.53,7.53,7.53
30.68,11.63,4.10,11.63,4.10,-4.10,-4.83,7.52,7.53,7.53
30.99,11.64,4.11,11.64,4.11,-4.11,-4.86,7.52,7.52,7.52
31.30,11.64,4.12,11.64,4.12,-4.12,-4.88,7.51,7.52,7.52
31.61,11.65,4.13,11.65,4.13,-4.13,-4.90,7.51,7.52,7.52
31.93,11.66,4.15,11.66,4.14,-4.14,-4.91,7.51,7.51,7.51
32.24,11.66,4.15,11.66,4.16,-4.16,-4.91,7.50,7.51,7.51
32.57,11.67,4.17,11.67,4.17,-4.17,-4.92,7.50,7.50,7.50
32.89,11.68,4.18,11.67,4.18,-4.18,-4.91,7.50,7.50,7.50
33.22,11.68,4.19,11.68,4.19,-4.19,-4.90,7.49,7.49,7.49
33.55,11.68,4.19,11.69,4.20,-4.20,-4.89,7.48,7.49,7.49
33.89,11.69,4.21,11.69,4.21,-4.21,-4.87,7.48,7.48,7.48
34.23,11.70,4.22,11.70,4.22,-4.22,-4.85,7.48,7.48,7.48
34.57,11.71,4.24,11.70,4.23,-4.23,-4.82,7.48,7.47,7.47
34.92,11.71,4.24,11.71,4.24,-4.24,-4.79,7.47,7.47,7.47
35.27,11.71,4.25,11.71,4.25,-4.25,-4.76,7.46,7.46,7.46
35.62,11.72,4.26,11.71,4.26,-4.26,-4.73,7.46,7.45,7.45
35.97,11.71,4.26,11.72,4.27,-4.27,-4.69,7.44,7.45,7.45
36.33,11.72,4.28,11.72,4.28,-4.28,-4.66,7.44,7.44,7.44
36.70,11.72,4.28,11.72,4.29,-4.29,-4.62,7.43,7.43,7.43
37.06,11.73,4.30,11.73,4.30,-4.30,-4.59,7.43,7.43,7.43
37.43,11.73,4.31,11.73,4.31,-4.31,-4.55,7.42,7.42,7.42
37.81,11.74,4.33,11.73,4.32,-4.32,-4.52,7.42,7.41,7.41
38.19,11.73,4.32,11.74,4.33,-4.33,-4.48,7.40,7.41,7.41
38.57,11.74,4.34,11.74,4.34,-4.34,-4.45,7.40,7.40,7.40
38.95,11.74,4.35,11.74,4.35,-4.35,-4.42,7.39,7.39,7.39
39.34,11.75,4.37,11.74,4.36,-4.36,-4.39,7.39,7.38,7.38
39.74,11.75,4.37,11.75,4.37,-4.37,-4.36,7.37,7.37,7.37
40.14,11.75,4.38,11.75,4.38,-4.38,-4.34,7.36,7.37,7.37
40.54,11.75,4.39,11.75,4.40,-4.40,-4.32,7.35,7.36,7.36
40.94,11.76,4.41,11.76,4.41,-4.41,-4.30,7.35,7.35,7.35
41.35,11.76,4.42,11.76,4.42,-4.42,-4.28,7.34,7.34,7.34
41.76,11.76,4.43,11.76,4.43,-4.43,-4.26,7.33,7.33,7.33
42.18,11.76,4.44,11.76,4.44,-4.44,-4.25,7.32,7.32,7.32
42.60,11.76,4.45,11.76,4.45,-4.45,-4.24,7.31,7.31,7.31
43.03,11.77,4.47,11.76,4.46,-4.46,-4.24,7.31,7.30,7.30
43.46,11.76,4.47,11.76,4.47,-4.47,-4.24,7.28,7.29,7.29
43.90,11.77,4.49,11.76,4.49,-4.49,-4.24,7.28,7.28,7.28
44.33,11.76,4.49,11.76,4.50,-4.50,-4.24,7.26,7.26,7.27
44.78,11.76,4.50,11.76,4.51,-4.51,-4.25,7.25,7.25,7.25
45.23,11.76,4.52,11.76,4.52,-4.52,-4.26,7.24,7.24,7.24
45.68,11.76,4.53,11.76,4.53,-4.53,-4.27,7.23,7.23,7.23
46.13,11.76,4.54,11.76,4.55,-4.55,-4.29,7.21,7.22,7.22
46.60,11.76,4.56,11.76,4.56,-4.56,-4.31,7.20,7.20,7.20
47.06,11.76,4.57,11.76,4.57,-4.57,-4.33,7.19,7.19,7.19
47.53,11.76,4.58,11.76,4.58,-4.58,-4.36,7.18,7.18,7.18
48.01,11.76,4.60,11.76,4.60,-4.60,-4.39,7.16,7.16,7.16
48.49,11.76,4.61,11.75,4.61,-4.61,-4.42,7.15,7.15,7.15
48.97,11.76,4.63,11.75,4.62,-4.62,-4.45,7.14,7.13,7.13
49.46,11.76,4.64,11.75,4.63,-4.63,-4.49,7.12,7.12,7.12
49.96,11.75,4.65,11.75,4.65,-4.65,-4.53,7.10,7.10,7.10
50.46,11.74,4.65,11.75,4.66,-4.66,-4.57,7.08,7.08,7.08
50.96,11.74,4.67,11.74,4.68,-4.68,-4.61,7.06,7.07,7.07
51.47,11.74,4.69,11.74,4.69,-4.69,-4.66,7.05,7.05,7.05
51.99,11.74,4.70,11.74,4.70,-4.70,-4.70,7.03,7.03,7.03
52.51,11.74,4.72,11.73,4.72,-4.72,-4.75,7.02,7.01,7.02
53.03,11.73,4.73,11.73,4.73,-4.73,-4.80,6.99,7.00,7.00
53.56,11.72,4.74,11.73,4.75,-4.75,-4.85,6.97,6.98,6.98
54.10,11.73,4.77,11.72,4.76,-4.76,-4.89,6.96,6.96,6.96
54.64,11.72,4.78,11.72,4.78,-4.78,-4.94,6.94,6.94,6.94
55.18,11.72,4.80,11.71,4.80,-4.80,-4.99,6.92,6.92,6.92
55.74,11.71,4.81,11.71,4.81,-4.81,-5.04,6.89,6.90,6.90
56.29,11.71,4.83,11.71,4.83,-4.83,-5.09,6.88,6.88,6.88
56.86,11.70,4.85,11.70,4.85,-4.85,-5.13,6.85,6.85,6.85
57.42,11.70,4.87,11.70,4.87,-4.87,-5.17,6.83,6.83,6.83
58.00,11.70,4.89,11.69,4.89,-4.89,-5.21,6.81,6.81,6.81
58.58,11.69,4.90,11.69,4.90,-4.90,-5.25,6.78,6.78,6.78
59.16,11.68,4.92,11.68,4.92,-4.92,-5.29,6.76,6.76,6.76
59.76,11.68,4.94,11.68,4.94,-4.94,-5.32,6.74,6.73,6.73
60.35,11.67,4.96,11.67,4.96,-4.96,-5.35,6.71,6.71,6.71
60.96,11.67,4.99,11.67,4.98,-4.98,-5.37,6.69,6.68,6.68
61.57,11.66,5.00,11.66,5.00,-5.00,-5.39,6.66,6.66,6.66
62.18,11.65,5.02,11.65,5.02,-5.02,-5.41,6.63,6.63,6.63
62.80,11.65,5.05,11.65,5.04,-5.04,-5.42,6.60,6.60,6.60
63.43,11.64,5.07,11.64,5.07,-5.07,-5.43,6.57,6.57,6.57
64.07,11.63,5.08,11.63,5.09,-5.09,-5.44,6.54,6.54,6.54
64.71,11.63,5.11,11.62,5.11,-5.11,-5.44,6.52,6.51,6.51
65.35,11.61,5.12,11.62,5.13,-5.13,-5.44,6.48,6.48,6.48
66.01,11.61,5.16,11.61,5.16,-5.16,-5.44,6.45,6.45,6.45
66.67,11.61,5.19,11.60,5.18,-5.18,-5.43,6.43,6.42,6.42
67.33,11.59,5.20,11.59,5.20,-5.20,-5.42,6.38,6.39,6.39
68.01,11.58,5.22,11.58,5.23,-5.23,-5.40,6.35,6.36,6.36
68.69,11.58,5.26,11.58,5.25,-5.25,-5.39,6.32,6.32,6.32
69.37,11.57,5.28,11.57,5.28,-5.28,-5.37,6.29,6.29,6.29
70.07,11.56,5.30,11.56,5.31,-5.31,-5.35,6.25,6.25,6.25
70.77,11.55,5.33,11.55,5.33,-5.33,-5.33,6.22,6.22,6.22
71.48,11.55,5.37,11.54,5.36,-5.36,-5.31,6.19,6.18,6.18
72.19,11.53,5.38,11.53,5.39,-5.39,-5.29,6.14,6.15,6.15
72.91,11.53,5.42,11.52,5.41,-5.41,-5.28,6.11,6.11,6.11
73.64,11.51,5.44,11.51,5.44,-5.44,-5.26,6.07,6.07,6.07
74.38,11.50,5.47,11.50,5.47,-5.47,-5.24,6.03,6.03,6.03
75.12,11.49,5.49,11.49,5.50,-5.50,-5.22,5.99,5.99,5.99
75.87,11.48,5.52,11.48,5.53,-5.53,-5.21,5.95,5.95,5.95
76.63,11.47,5.55,11.47,5.55,-5.55,-5.19,5.91,5.91,5.91
77.40,11.46,5.59,11.45,5.58,-5.58,-5.18,5.88,5.87,5.87
78.17,11.45,5.62,11.44,5.61,-5.61,-5.17,5.84,5.83,5.83
78.95,11.43,5.64,11.43,5.64,-5.64,-5.17,5.79,5.79,5.79
79.74,11.42,5.67,11.42,5.67,-5.67,-5.16,5.75,5.75,5.75
80.54,11.40,5.69,11.40,5.70,-5.70,-5.16,5.70,5.71,5.71
81.35,11.39,5.73,11.39,5.73,-5.73,-5.17,5.66,5.66,5.66
82.16,11.37,5.75,11.37,5.75,-5.75,-5.17,5.61,5.62,5.62
82.98,11.35,5.77,11.36,5.78,-5.78,-5.18,5.56,5.57,5.57
83.81,11.35,5.82,11.34,5.81,-5.81,-5.20,5.54,5.53,5.53
84.65,11.33,5.84,11.33,5.84,-5.84,-5.21,5.49,5.48,5.48
85.50,11.31,5.87,11.31,5.87,-5.87,-5.23,5.44,5.44,5.44
86.35,11.30,5.91,11.29,5.90,-5.90,-5.26,5.40,5.39,5.39
87.22,11.28,5.93,11.28,5.93,-5.93,-5.29,5.35,5.34,5.35
88.09,11.26,5.96,11.26,5.96,-5.96,-5.32,5.30,5.30,5.30
88.97,11.24,5.99,11.25,5.99,-5.99,-5.36,5.24,5.25,5.25
89.86,11.23,6.02,11.23,6.02,-6.02,-5.40,5.20,5.20,5.21
90.76,11.21,6.05,11.21,6.06,-6.06,-5.44,5.15,5.16,5.16
91.66,11.20,6.09,11.20,6.09,-6.09,-5.49,5.11,5.11,5.11
92.58,11.18,6.12,11.18,6.12,-6.12,-5.55,5.06,5.06,5.06
93.51,11.16,6.14,11.16,6.15,-6.15,-5.60,5.01,5.01,5.01
94.44,11.14,6.17,11.14,6.18,-6.18,-5.66,4.96,4.96,4.97
95.39,11.13,6.21,11.12,6.21,-6.21,-5.73,4.92,4.92,4.92
96.34,11.11,6.24,11.10,6.24,-6.24,-5.79,4.87,4.87,4.87
97.30,11.09,6.27,11.08,6.27,-6.27,-5.87,4.82,4.82,4.82
98.28,11.07,6.30,11.07,6.30,-6.30,-5.94,4.77,4.77,4.77
99.26,11.04,6.32,11.05,6.32,-6.32,-6.02,4.71,4.72,4.72
100.25,11.03,6.36,11.02,6.35,-6.35,-6.10,4.68,4.67,4.67
101.25,11.00,6.38,11.00,6.38,-6.38,-6.18,4.62,4.62,4.62
102.27,10.98,6.40,10.98,6.41,-6.41,-6.26,4.57,4.57,4.57
103.29,10.96,6.43,10.96,6.44,-6.44,-6.35,4.52,4.52,4.53
104.32,10.94,6.46,10.94,6.46,-6.46,-6.44,4.47,4.48,4.48
105.37,10.92,6.49,10.92,6.49,-6.49,-6.52,4.43,4.43,4.43
106.42,10.90,6.52,10.90,6.52,-6.52,-6.61,4.38,4.38,4.38
107.48,10.88,6.55,10.87,6.54,-6.54,-6.70,4.33,4.33,4.33
108.56,10.85,6.57,10.85,6.57,-6.57,-6.79,4.28,4.28,4.28
109.64,10.83,6.59,10.83,6.59,-6.59,-6.88,4.23,4.23,4.24
110.74,10.80,6.61,10.81,6.62,-6.62,-6.96,4.18,4.19,4.19
111.85,10.79,6.65,10.78,6.64,-6.64,-7.04,4.15,4.14,4.14
112.97,10.76,6.67,10.76,6.66,-6.66,-7.12,4.10,4.09,4.09
114.10,10.74,6.69,10.73,6.68,-6.68,-7.19,4.05,4.05,4.05
115.24,10.70,6.70,10.70,6.71,-6.71,-7.26,3.99,4.00,4.00
116.39,10.68,6.73,10.68,6.73,-6.73,-7.33,3.95,3.95,3.95
117.55,10.65,6.74,10.65,6.74,-6.74,-7.39,3.90,3.91,3.91
118.73,10.63,6.77,10.62,6.76,-6.76,-7.44,3.87,3.86,3.86
119.92,10.59,6.77,10.60,6.78,-6.78,-7.49,3.81,3.82,3.82
121.12,10.57,6.80,10.57,6.80,-6.80,-7.52,3.77,3.77,3.77
122.33,10.54,6.81,10.54,6.81,-6.81,-7.55,3.73,3.73,3.73
123.55,10.51,6.82,10.51,6.83,-6.83,-7.57,3.68,3.68,3.69
124.79,10.49,6.85,10.48,6.84,-6.84,-7.59,3.65,3.64,3.64
126.03,10.45,6.85,10.45,6.85,-6.85,-7.59,3.60,3.60,3.60
127.29,10.42,6.86,10.42,6.86,-6.86,-7.59,3.55,3.56,3.56
128.57,10.40,6.88,10.39,6.87,-6.87,-7.57,3.52,3.52,3.52
129.85,10.36,6.88,10.36,6.88,-6.88,-7.55,3.47,3.47,3.48
131.15,10.33,6.89,10.33,6.89,-6.89,-7.53,3.44,3.43,3.43
132.46,10.29,6.89,10.29,6.90,-6.90,-7.49,3.39,3.39,3.39
133.79,10.26,6.90,10.26,6.91,-6.91,-7.45,3.35,3.36,3.36
135.12,10.23,6.91,10.23,6.91,-6.91,-7.40,3.32,3.32,3.32
136.48,10.20,6.92,10.20,6.92,-6.92,-7.35,3.28,3.28,3.28
137.84,10.17,6.93,10.16,6.92,-6.92,-7.29,3.25,3.24,3.24
139.22,10.13,6.92,10.13,6.92,-6.92,-7.23,3.20,3.20,3.20
140.61,10.09,6.92,10.09,6.93,-6.93,-7.16,3.16,3.17,3.17
142.02,10.06,6.93,10.06,6.93,-6.93,-7.09,3.13,3.13,3.13
143.44,10.03,6.93,10.02,6.93,-6.93,-7.02,3.10,3.10,3.10
144.87,9.99,6.93,9.99,6.92,-6.92,-6.95,3.06,3.06,3.06
146.32,9.95,6.92,9.95,6.92,-6.92,-6.88,3.03,3.03,3.03
147.78,9.92,6.92,9.91,6.92,-6.92,-6.80,3.00,3.00,3.00
149.26,9.88,6.91,9.88,6.91,-6.91,-6.73,2.97,2.96,2.96
150.75,9.84,6.91,9.84,6.91,-6.91,-6.66,2.93,2.93,2.93
152.26,9.80,6.90,9.80,6.90,-6.90,-6.59,2.90,2.90,2.90
153.78,9.76,6.89,9.76,6.89,-6.89,-6.52,2.87,2.87,2.87
155.32,9.73,6.89,9.72,6.88,-6.88,-6.46,2.85,2.84,2.84
156.88,9.68,6.87,9.68,6.87,-6.87,-6.39,2.81,2.81,2.81
158.44,9.64,6.86,9.64,6.86,-6.86,-6.33,2.78,2.78,2.78
160.03,9.61,6.85,9.60,6.85,-6.85,-6.28,2.76,2.75,2.75
161.63,9.56,6.83,9.56,6.84,-6.84,-6.23,2.72,2.72,2.73
163.24,9.52,6.82,9.52,6.83,-6.83,-6.18,2.69,2.70,2.70
164.88,9.49,6.82,9.49,6.82,-6.82,-6.13,2.67,2.67,2.67
166.53,9.45,6.80,9.45,6.81,-6.81,-6.09,2.64,2.64,2.65
168.19,9.41,6.79,9.41,6.80,-6.80,-6.05,2.61,2.62,2.62
169.87,9.37,6.77,9.38,6.78,-6.78,-6.02,2.58,2.59,2.60
171.57,9.34,6.77,9.34,6.77,-6.77,-5.99,2.57,2.57,2.57
173.29,9.31,6.76,9.31,6.76,-6.76,-5.97,2.55,2.55,2.55
175.02,9.27,6.74,9.27,6.75,-6.75,-5.95,2.52,2.53,2.53
176.77,9.24,6.73,9.24,6.73,-6.73,-5.93,2.50,2.50,2.50
178.54,9.21,6.73,9.20,6.72,-6.72,-5.92,2.49,2.48,2.48
180.32,9.18,6.72,9.16,6.70,-6.70,-5.91,2.48,2.46,2.46
182.13,9.13,6.69,9.13,6.69,-6.69,-5.91,2.44,2.44,2.44
183.95,9.09,6.67,9.09,6.67,-6.67,-5.91,2.42,2.42,2.42
185.79,9.06,6.66,9.05,6.65,-6.65,-5.92,2.41,2.40,2.40
187.65,9.01,6.63,9.01,6.62,-6.62,-5.93,2.38,2.38,2.38
189.52,8.96,6.60,8.96,6.60,-6.60,-5.95,2.36,2.36,2.36
191.42,8.92,6.57,8.92,6.58,-6.58,-5.97,2.34,2.34,2.34
193.33,8.88,6.55,8.88,6.55,-6.55,-5.99,2.33,2.33,2.33
195.27,8.83,6.52,8.83,6.53,-6.53,-6.02,2.30,2.31,2.31
197.22,8.79,6.50,8.79,6.50,-6.50,-6.05,2.29,2.29,2.29
199.19,8.74,6.46,8.75,6.47,-6.47,-6.08,2.27,2.27,2.28
201.18,8.70,6.44,8.70,6.45,-6.45,-6.11,2.25,2.26,2.26
203.19,8.67,6.42,8.66,6.42,-6.42,-6.15,2.25,2.24,2.24
205.23,8.62,6.39,8.62,6.39,-6.39,-6.19,2.23,2.23,2.23
207.28,8.58,6.36,8.58,6.37,-6.37,-6.24,2.21,2.21,2.21
209.35,8.54,6.34,8.54,6.34,-6.34,-6.28,2.20,2.20,2.20
211.44,8.50,6.31,8.50,6.32,-6.32,-6.32,2.18,2.18,2.19
213.56,8.47,6.30,8.47,6.29,-6.29,-6.37,2.17,2.17,2.17
215.69,8.43,6.27,8.43,6.27,-6.27,-6.41,2.16,2.16,2.16
217.85,8.39,6.24,8.39,6.25,-6.25,-6.46,2.14,2.14,2.15
220.03,8.36,6.22,8.36,6.23,-6.23,-6.50,2.13,2.13,2.13
222.23,8.33,6.21,8.32,6.20,-6.20,-6.54,2.12,2.12,2.12
224.45,8.29,6.18,8.29,6.18,-6.18,-6.58,2.10,2.11,2.11
226.70,8.25,6.15,8.26,6.16,-6.16,-6.62,2.09,2.10,2.10
228.96,8.23,6.14,8.23,6.14,-6.14,-6.65,2.09,2.09,2.09
231.25,8.20,6.12,8.20,6.12,-6.12,-6.67,2.08,2.07,2.08
233.57,8.16,6.09,8.16,6.10,-6.10,-6.70,2.06,2.06,2.07
235.90,8.13,6.07,8.13,6.08,-6.08,-6.71,2.05,2.05,2.06
238.26,8.10,6.05,8.10,6.05,-6.05,-6.72,2.04,2.04,2.05
240.64,8.07,6.03,8.07,6.03,-6.03,-6.72,2.04,2.03,2.04
243.05,8.04,6.01,8.03,6.01,-6.01,-6.72,2.03,2.03,2.03
245.48,8.00,5.98,8.00,5.98,-5.98,-6.71,2.02,2.02,2.02
247.93,7.96,5.95,7.96,5.95,-5.95,-6.69,2.01,2.01,2.01
250.41,7.93,5.93,7.92,5.92,-5.92,-6.66,2.01,2.00,2.00
252.92,7.88,5.89,7.88,5.89,-5.89,-6.62,1.99,1.99,1.99
255.45,7.84,5.86,7.84,5.86,-5.86,-6.58,1.98,1.98,1.98
258.00,7.80,5.82,7.80,5.82,-5.82,-6.52,1.98,1.98,1.97
260.58,7.75,5.78,7.75,5.78,-5.78,-6.46,1.97,1.97,1.97
263.19,7.71,5.75,7.70,5.74,-5.74,-6.39,1.97,1.96,1.96
265.82,7.66,5.71,7.65,5.70,-5.70,-6.32,1.96,1.95,1.95
268.48,7.60,5.65,7.60,5.65,-5.65,-6.24,1.95,1.94,1.94
271.16,7.55,5.61,7.54,5.60,-5.60,-6.15,1.94,1.94,1.94
273.87,7.48,5.55,7.49,5.55,-5.55,-6.06,1.92,1.93,1.93
276.61,7.43,5.50,7.43,5.50,-5.50,-5.96,1.92,1.92,1.92
279.38,7.36,5.44,7.37,5.45,-5.45,-5.86,1.91,1.92,1.92
282.17,7.31,5.40,7.31,5.40,-5.40,-5.75,1.91,1.91,1.91
284.99,7.25,5.34,7.25,5.34,-5.34,-5.64,1.91,1.91,1.91
287.84,7.18,5.28,7.18,5.28,-5.28,-5.53,1.89,1.90,1.90
290.72,7.12,5.22,7.12,5.23,-5.23,-5.42,1.89,1.89,1.89
293.63,7.06,5.17,7.06,5.17,-5.17,-5.30,1.89,1.89,1.89
296.57,6.99,5.10,6.99,5.11,-5.11,-5.19,1.88,1.88,1.88
299.53,6.93,5.05,6.93,5.05,-5.05,-5.07,1.88,1.88,1.88
302.53,6.86,4.98,6.86,4.99,-4.99,-4.96,1.87,1.87,1.87
305.55,6.80,4.93,6.80,4.93,-4.93,-4.84,1.87,1.87,1.87
308.61,6.73,4.86,6.73,4.87,-4.87,-4.72,1.86,1.86,1.86
311.69,6.67,4.81,6.67,4.81,-4.81,-4.61,1.86,1.86,1.86
314.81,6.60,4.74,6.60,4.74,-4.74,-4.50,1.86,1.85,1.85
317.96,6.53,4.68,6.53,4.68,-4.68,-4.39,1.85,1.85,1.85
321.14,6.47,4.62,6.46,4.62,-4.62,-4.28,1.85,1.85,1.85
324.35,6.39,4.55,6.40,4.55,-4.55,-4.17,1.83,1.84,1.84
327.59,6.33,4.49,6.33,4.49,-4.49,-4.06,1.84,1.84,1.84
330.87,6.26,4.42,6.26,4.43,-4.43,-3.96,1.83,1.83,1.83
334.18,6.20,4.37,6.19,4.36,-4.36,-3.86,1.84,1.83,1.83
337.52,6.12,4.29,6.12,4.30,-4.30,-3.76,1.82,1.83,1.83
340.90,6.06,4.24,6.05,4.23,-4.23,-3.67,1.83,1.82,1.82
344.30,5.98,4.16,5.98,4.16,-4.16,-3.57,1.81,1.82,1.82
347.75,5.91,4.09,5.91,4.10,-4.10,-3.48,1.81,1.82,1.82
351.23,5.85,4.04,5.85,4.03,-4.03,-3.39,1.82,1.81,1.81
354.74,5.78,3.97,5.78,3.97,-3.97,-3.31,1.81,1.81,1.81
358.28,5.70,3.89,5.71,3.90,-3.90,-3.22,1.80,1.81,1.81
361.87,5.64,3.83,5.63,3.83,-3.83,-3.14,1.81,1.80,1.80
365.49,5.57,3.77,5.56,3.76,-3.76,-3.07,1.80,1.80,1.80
369.14,5.49,3.69,5.49,3.70,-3.70,-2.99,1.79,1.80,1.80
372.83,5.43,3.63,5.42,3.63,-3.63,-2.92,1.80,1.79,1.80
376.56,5.35,3.56,5.35,3.56,-3.56,-2.85,1.79,1.79,1.79
380.33,5.28,3.49,5.28,3.49,-3.49,-2.78,1.79,1.79,1.79
384.13,5.21,3.42,5.21,3.42,-3.42,-2.71,1.79,1.79,1.79
387.97,5.14,3.35,5.14,3.35,-3.35,-2.65,1.79,1.78,1.78
391.85,5.06,3.28,5.06,3.28,-3.28,-2.58,1.78,1.78,1.78
395.77,4.99,3.21,4.99,3.21,-3.21,-2.52,1.78,1.78,1.78
399.73,4.92,3.14,4.92,3.14,-3.14,-2.46,1.78,1.78,1.78
403.72,4.85,3.07,4.84,3.07,-3.07,-2.41,1.78,1.77,1.78
407.76,4.77,3.00,4.77,3.00,-3.00,-2.35,1.77,1.77,1.77
411.84,4.70,2.93,4.70,2.93,-2.93,-2.30,1.77,1.77,1.77
415.96,4.63,2.86,4.62,2.86,-2.86,-2.24,1.77,1.77,1.77
420.12,4.55,2.78,4.55,2.79,-2.79,-2.19,1.76,1.76,1.76
424.32,4.47,2.71,4.48,2.71,-2.71,-2.14,1.75,1.76,1.76
428.56,4.40,2.64,4.40,2.64,-2.64,-2.09,1.76,1.76,1.76
432.85,4.33,2.57,4.32,2.57,-2.57,-2.04,1.76,1.76,1.76
437.18,4.25,2.49,4.25,2.49,-2.49,-1.99,1.76,1.76,1.76
441.55,4.18,2.42,4.17,2.41,-2.41,-1.94,1.77,1.76,1.76
445.96,4.10,2.34,4.09,2.34,-2.34,-1.90,1.76,1.76,1.76
450.42,4.02,2.26,4.02,2.26,-2.26,-1.85,1.76,1.76,1.76
454.93,3.94,2.17,3.94,2.17,-2.17,-1.80,1.76,1.77,1.77
459.48,3.86,2.09,3.86,2.09,-2.09,-1.75,1.77,1.77,1.77
464.07,3.78,2.00,3.79,2.01,-2.01,-1.70,1.77,1.78,1.78
468.71,3.71,1.93,3.71,1.92,-1.92,-1.65,1.79,1.78,1.78
473.40,3.63,1.84,3.63,1.84,-1.84,-1.60,1.79,1.79,1.79
478.13,3.55,1.75,3.55,1.75,-1.75,-1.55,1.80,1.80,1.80
482.91,3.48,1.67,3.47,1.66,-1.66,-1.50,1.82,1.81,1.81
487.74,3.40,1.57,3.39,1.57,-1.57,-1.44,1.83,1.82,1.82
492.62,3.31,1.47,3.31,1.48,-1.48,-1.39,1.83,1.84,1.84
497.55,3.24,1.39,3.23,1.38,-1.38,-1.33,1.86,1.85,1.85
502.52,3.15,1.28,3.15,1.29,-1.29,-1.28,1.86,1.86,1.87
507.55,3.07,1.19,3.07,1.19,-1.19,-1.22,1.88,1.88,1.88
512.62,2.99,1.09,2.99,1.10,-1.10,-1.16,1.89,1.90,1.90
517.75,2.92,1.00,2.91,1.00,-1.00,-1.10,1.92,1.91,1.91
522.93,2.83,0.90,2.83,0.90,-0.90,-1.03,1.93,1.93,1.93
528.16,2.75,0.80,2.75,0.80,-0.80,-0.97,1.95,1.95,1.95
533.44,2.67,0.70,2.67,0.70,-0.70,-0.90,1.97,1.97,1.97
538.77,2.59,0.60,2.58,0.59,-0.59,-0.84,1.99,1.99,1.99
544.16,2.50,0.49,2.50,0.49,-0.49,-0.77,2.01,2.01,2.01
549.60,2.42,0.39,2.42,0.39,-0.39,-0.70,2.03,2.04,2.03
555.10,2.34,0.28,2.34,0.28,-0.28,-0.63,2.06,2.06,2.06
560.65,2.26,0.18,2.26,0.17,-0.17,-0.55,2.08,2.08,2.08
566.25,2.18,0.07,2.18,0.07,-0.07,-0.48,2.11,2.11,2.11
571.92,2.10,-0.04,2.10,-0.04,0.04,-0.40,2.14,2.14,2.14
577.64,2.02,-0.15,2.02,-0.15,0.15,-0.33,2.16,2.16,2.17
583.41,1.94,-0.26,1.94,-0.25,0.25,-0.25,2.19,2.19,2.19
589.25,1.87,-0.36,1.86,-0.36,0.36,-0.17,2.23,2.22,2.22
595.14,1.79,-0.47,1.79,-0.47,0.47,-0.09,2.25,2.25,2.25
601.09,1.71,-0.57,1.71,-0.57,0.57,-0.01,2.28,2.28,2.28
607.10,1.64,-0.67,1.64,-0.68,0.68,0.07,2.31,2.31,2.31
613.17,1.56,-0.79,1.56,-0.78,0.78,0.16,2.34,2.34,2.34
619.30,1.49,-0.89,1.49,-0.88,0.88,0.24,2.37,2.37,2.38
625.50,1.42,-0.99,1.42,-0.98,0.98,0.33,2.40,2.41,2.41
631.75,1.35,-1.09,1.35,-1.09,1.09,0.41,2.43,2.44,2.44
638.07,1.29,-1.18,1.28,-1.19,1.19,0.50,2.48,2.47,2.47
644.45,1.22,-1.29,1.22,-1.29,1.29,0.59,2.50,2.50,2.50
650.89,1.15,-1.39,1.15,-1.38,1.38,0.68,2.53,2.54,2.54
657.40,1.09,-1.48,1.09,-1.48,1.48,0.77,2.57,2.57,2.57
663.98,1.03,-1.57,1.02,-1.58,1.58,0.86,2.61,2.60,2.60
670.62,0.97,-1.67,0.96,-1.68,1.68,0.95,2.64,2.64,2.64
677.32,0.90,-1.78,0.90,-1.77,1.77,1.05,2.67,2.68,2.67
684.10,0.85,-1.86,0.85,-1.87,1.87,1.14,2.72,2.71,2.71
690.94,0.79,-1.96,0.79,-1.96,1.96,1.24,2.75,2.75,2.75
697.85,0.73,-2.06,0.73,-2.05,2.05,1.33,2.78,2.79,2.79
704.83,0.68,-2.15,0.68,-2.15,2.15,1.43,2.82,2.82,2.82
711.87,0.63,-2.23,0.62,-2.24,2.24,1.53,2.87,2.86,2.86
718.99,0.57,-2.33,0.57,-2.33,2.33,1.63,2.90,2.90,2.90
726.18,0.52,-2.42,0.52,-2.42,2.42,1.73,2.94,2.94,2.94
733.44,0.48,-2.50,0.47,-2.51,2.51,1.84,2.98,2.98,2.98
