frequency,raw,error,smoothed,error_smoothed,equalization,parametric_eq,equalized_raw,equalized_smoothed,target
20,11.26,3.66,11.27,3.67,-3.67,-1.73,7.59,7.60,7.60
21,11.31,3.72,11.31,3.72,-3.72,-2.00,7.59,7.59,7.60
22,11.35,3.76,11.36,3.77,-3.77,-2.29,7.58,7.59,7.59
23,11.40,3.82,11.40,3.82,-3.82,-2.61,7.58,7.58,7.58
24,11.44,3.87,11.43,3.86,-3.86,-2.95,7.58,7.57,7.57
25,11.47,3.91,11.47,3.91,-3.91,-3.30,7.57,7.56,7.56
26,11.51,3.96,11.50,3.95,-3.95,-3.65,7.56,7.55,7.55
27,11.54,4.00,11.53,3.99,-3.99,-3.99,7.55,7.54,7.54
28,11.56,4.03,11.56,4.03,-4.03,-4.30,7.53,7.53,7.53
29,11.59,4.07,11.59,4.07,-4.07,-4.56,7.52,7.52,7.52
30,11.61,4.10,11.61,4.10,-4.10,-4.76,7.51,7.51,7.51
31,11.63,4.13,11.63,4.14,-4.14,-4.89,7.49,7.50,7.50
32,11.65,4.17,11.65,4.17,-4.17,-4.96,7.48,7.48,7.48
33,11.66,4.19,11.67,4.20,-4.20,-4.97,7.46,7.47,7.47
34,11.68,4.23,11.68,4.23,-4.23,-4.93,7.45,7.45,7.45
35,11.69,4.25,11.69,4.26,-4.26,-4.86,7.43,7.44,7.44
36,11.71,4.29,11.70,4.29,-4.29,-4.77,7.42,7.42,7.42
37,11.72,4.32,11.71,4.31,-4.31,-4.68,7.41,7.40,7.40
38,11.72,4.34,11.72,4.34,-4.34,-4.59,7.38,7.38,7.38
39,11.73,4.37,11.73,4.37,-4.37,-4.50,7.36,7.36,7.36
40,11.73,4.39,11.74,4.40,-4.40,-4.43,7.33,7.34,7.34
41,11.74,4.42,11.74,4.43,-4.43,-4.38,7.31,7.31,7.32
42,11.74,4.45,11.75,4.46,-4.46,-4.34,7.28,7.29,7.30
43,11.75,4.48,11.75,4.48,-4.48,-4.32,7.27,7.27,7.27
44,11.75,4.51,11.76,4.51,-4.51,-4.32,7.24,7.25,7.25
45,11.75,4.53,11.76,4.54,-4.54,-4.33,7.21,7.22,7.22
46,11.75,4.56,11.75,4.57,-4.57,-4.36,7.19,7.19,7.19
47,11.75,4.59,11.75,4.59,-4.59,-4.41,7.16,7.16,7.16
48,11.74,4.61,11.75,4.62,-4.62,-4.46,7.13,7.13,7.13
49,11.75,4.65,11.74,4.64,-4.64,-4.53,7.11,7.10,7.10
50,11.77,4.70,11.73,4.66,-4.66,-4.61,7.11,7.07,7.07
51,11.77,4.73,11.72,4.68,-4.68,-4.69,7.09,7.04,7.04
52,11.71,4.71,11.71,4.71,-4.71,-4.78,7.00,7.00,7.01
53,11.64,4.67,11.69,4.73,-4.73,-4.87,6.91,6.96,6.97
54,11.63,4.70,11.68,4.75,-4.75,-4.97,6.88,6.93,6.93
55,11.66,4.76,11.67,4.78,-4.78,-5.06,6.89,6.89,6.90
56,11.68,4.82,11.65,4.80,-4.80,-5.14,6.88,6.85,6.86
57,11.66,4.84,11.64,4.83,-4.83,-5.22,6.83,6.82,6.82
58,11.62,4.84,11.63,4.86,-4.86,-5.30,6.76,6.78,6.78
59,11.59,4.85,11.62,4.89,-4.89,-5.36,6.70,6.73,6.74
60,11.60,4.90,11.61,4.92,-4.92,-5.41,6.68,6.69,6.70
61,11.61,4.96,11.61,4.96,-4.96,-5.45,6.65,6.65,6.65
62,11.62,5.01,11.60,5.00,-5.00,-5.49,6.63,6.61,6.61
63,11.61,5.05,11.60,5.03,-5.03,-5.51,6.58,6.56,6.56
64,11.60,5.08,11.59,5.07,-5.07,-5.52,6.53,6.52,6.52
65,11.59,5.12,11.58,5.11,-5.11,-5.52,6.48,6.47,6.47
66,11.57,5.15,11.57,5.15,-5.15,-5.51,6.42,6.42,6.43
67,11.55,5.17,11.57,5.19,-5.19,-5.49,6.36,6.37,6.38
68,11.54,5.21,11.56,5.23,-5.23,-5.47,6.31,6.33,6.33
69,11.53,5.25,11.55,5.27,-5.27,-5.45,6.26,6.28,6.28
70,11.53,5.30,11.54,5.31,-5.31,-5.42,6.22,6.23,6.23
71,11.52,5.34,11.52,5.35,-5.35,-5.39,6.17,6.17,6.18
72,11.52,5.39,11.50,5.38,-5.38,-5.36,6.14,6.12,6.13
73,11.52,5.44,11.49,5.42,-5.42,-5.33,6.10,6.07,6.08
74,11.50,5.48,11.47,5.45,-5.45,-5.30,6.05,6.02,6.02
75,11.46,5.49,11.45,5.49,-5.49,-5.27,5.97,5.96,5.97
76,11.43,5.51,11.44,5.52,-5.52,-5.25,5.91,5.91,5.92
77,11.39,5.52,11.42,5.56,-5.56,-5.23,5.83,5.86,5.87
78,11.37,5.56,11.40,5.59,-5.59,-5.22,5.78,5.81,5.81
79,11.35,5.59,11.38,5.63,-5.63,-5.21,5.72,5.75,5.76
80,11.35,5.64,11.36,5.66,-5.66,-5.20,5.69,5.70,5.71
81,11.35,5.70,11.34,5.70,-5.70,-5.20,5.65,5.65,5.65
82,11.34,5.74,11.32,5.73,-5.73,-5.20,5.61,5.59,5.60
83,11.32,5.78,11.31,5.77,-5.77,-5.21,5.55,5.54,5.55
84,11.31,5.82,11.29,5.81,-5.81,-5.23,5.50,5.48,5.49
85,11.30,5.86,11.28,5.85,-5.85,-5.25,5.45,5.43,5.44
86,11.26,5.88,11.26,5.89,-5.89,-5.27,5.37,5.38,5.38
87,11.24,5.91,11.25,5.92,-5.92,-5.30,5.32,5.33,5.33
88,11.22,5.94,11.24,5.96,-5.96,-5.34,5.26,5.27,5.28
89,11.20,5.98,11.22,6.00,-6.00,-5.38,5.20,5.22,5.22
90,11.19,6.02,11.20,6.04,-6.04,-5.42,5.16,5.17,5.17
91,11.18,6.06,11.19,6.07,-6.07,-5.47,5.11,5.11,5.12
92,11.17,6.11,11.17,6.10,-6.10,-5.53,5.07,5.06,5.06
93,11.16,6.15,11.15,6.14,-6.14,-5.58,5.02,5.01,5.01
94,11.13,6.17,11.13,6.17,-6.17,-5.64,4.96,4.96,4.96
95,11.12,6.21,11.10,6.20,-6.20,-5.71,4.92,4.90,4.91
96,11.10,6.24,11.08,6.23,-6.23,-5.78,4.87,4.85,4.86
97,11.07,6.26,11.06,6.26,-6.26,-5.85,4.81,4.80,4.81
98,11.04,6.28,11.04,6.29,-6.29,-5.92,4.75,4.75,4.76
99,11.01,6.30,11.01,6.32,-6.32,-6.00,4.69,4.69,4.71
100,10.97,6.31,10.99,6.35,-6.35,-6.08,4.62,4.64,4.66
101,10.94,6.33,10.97,6.38,-6.38,-6.16,4.56,4.58,4.61
102,10.92,6.36,10.94,6.41,-6.41,-6.24,4.51,4.53,4.56
104,10.91,6.45,10.92,6.44,-6.44,-6.40,4.47,4.48,4.46
105,10.90,6.48,10.89,6.47,-6.47,-6.49,4.44,4.43,4.42
106,10.88,6.51,10.87,6.49,-6.49,-6.57,4.39,4.38,4.37
107,10.86,6.54,10.85,6.52,-6.52,-6.65,4.34,4.33,4.33
108,10.84,6.56,10.83,6.55,-6.55,-6.73,4.29,4.28,4.28
109,10.81,6.58,10.80,6.57,-6.57,-6.81,4.24,4.23,4.24
110,10.77,6.58,10.78,6.60,-6.60,-6.89,4.17,4.18,4.19
111,10.75,6.60,10.76,6.62,-6.62,-6.96,4.13,4.14,4.15
112,10.73,6.63,10.74,6.65,-6.65,-7.04,4.08,4.10,4.11
113,10.71,6.65,10.72,6.67,-6.67,-7.10,4.04,4.05,4.06
114,10.70,6.68,10.69,6.69,-6.69,-7.17,4.01,4.00,4.02
115,10.68,6.70,10.67,6.71,-6.71,-7.23,3.97,3.96,3.98
117,10.64,6.74,10.64,6.73,-6.73,-7.34,3.91,3.91,3.90
118,10.63,6.77,10.62,6.75,-6.75,-7.39,3.88,3.87,3.86
119,10.60,6.78,10.59,6.77,-6.77,-7.43,3.83,3.82,3.82
120,10.58,6.79,10.57,6.79,-6.79,-7.46,3.79,3.78,3.79
121,10.55,6.80,10.54,6.81,-6.81,-7.49,3.74,3.73,3.75
123,10.50,6.82,10.52,6.83,-6.83,-7.54,3.67,3.69,3.68
124,10.47,6.83,10.49,6.85,-6.85,-7.55,3.62,3.64,3.64
125,10.45,6.84,10.47,6.87,-6.87,-7.56,3.58,3.60,3.61
126,10.43,6.86,10.44,6.88,-6.88,-7.56,3.55,3.56,3.57
128,10.40,6.89,10.41,6.90,-6.90,-7.55,3.51,3.52,3.51
129,10.38,6.91,10.38,6.91,-6.91,-7.54,3.47,3.48,3.47
130,10.36,6.92,10.35,6.92,-6.92,-7.52,3.44,3.44,3.44
131,10.35,6.94,10.32,6.92,-6.92,-7.50,3.43,3.39,3.41
133,10.30,6.95,10.29,6.93,-6.93,-7.45,3.37,3.35,3.35
134,10.27,6.95,10.25,6.93,-6.93,-7.41,3.34,3.32,3.32
135,10.23,6.94,10.22,6.94,-6.94,-7.38,3.29,3.28,3.29
137,10.16,6.92,10.18,6.94,-6.94,-7.30,3.22,3.24,3.24
138,10.13,6.92,10.14,6.94,-6.94,-7.25,3.20,3.20,3.21
140,10.08,6.92,10.10,6.93,-6.93,-7.16,3.15,3.16,3.16
141,10.04,6.91,10.06,6.93,-6.93,-7.11,3.11,3.13,3.13
142,10.01,6.91,10.02,6.92,-6.92,-7.07,3.09,3.09,3.11
144,9.96,6.90,9.98,6.92,-6.92,-6.97,3.04,3.06,3.06
145,9.94,6.91,9.94,6.92,-6.92,-6.92,3.03,3.02,3.03
147,9.90,6.92,9.90,6.91,-6.91,-6.82,2.99,2.99,2.99
148,9.87,6.91,9.86,6.90,-6.90,-6.77,2.97,2.96,2.96
150,9.82,6.90,9.82,6.90,-6.90,-6.67,2.92,2.93,2.92
151,9.79,6.89,9.79,6.89,-6.89,-6.63,2.90,2.90,2.90
153,9.75,6.89,9.75,6.88,-6.88,-6.54,2.87,2.86,2.86
154,9.72,6.88,9.71,6.88,-6.88,-6.49,2.84,2.83,2.84
156,9.67,6.87,9.67,6.87,-6.87,-6.41,2.80,2.80,2.80
157,9.64,6.86,9.63,6.86,-6.86,-6.37,2.78,2.77,2.78
159,9.58,6.84,9.59,6.85,-6.85,-6.30,2.73,2.74,2.74
160,9.56,6.83,9.55,6.84,-6.84,-6.26,2.72,2.71,2.73
162,9.51,6.82,9.51,6.83,-6.83,-6.20,2.68,2.69,2.69
164,9.46,6.80,9.48,6.82,-6.82,-6.14,2.64,2.66,2.66
165,9.44,6.80,9.45,6.81,-6.81,-6.11,2.63,2.64,2.64
167,9.40,6.79,9.41,6.80,-6.80,-6.06,2.60,2.61,2.61
169,9.36,6.78,9.38,6.79,-6.79,-6.02,2.57,2.59,2.58
170,9.34,6.77,9.34,6.78,-6.78,-6.00,2.56,2.56,2.57
172,9.31,6.77,9.31,6.77,-6.77,-5.97,2.54,2.54,2.54
174,9.27,6.76,9.27,6.76,-6.76,-5.94,2.52,2.51,2.51
175,9.25,6.75,9.23,6.74,-6.74,-5.93,2.51,2.49,2.50
177,9.22,6.75,9.19,6.72,-6.72,-5.92,2.50,2.47,2.47
179,9.17,6.72,9.15,6.71,-6.71,-5.91,2.46,2.45,2.45
181,9.12,6.70,9.11,6.69,-6.69,-5.90,2.43,2.42,2.43
183,9.05,6.65,9.07,6.67,-6.67,-5.90,2.38,2.40,2.40
184,9.02,6.63,9.03,6.65,-6.65,-5.90,2.38,2.38,2.39
186,8.97,6.60,8.99,6.62,-6.62,-5.91,2.35,2.36,2.37
188,8.93,6.58,8.95,6.60,-6.60,-5.93,2.33,2.34,2.35
190,8.89,6.56,8.90,6.58,-6.58,-5.94,2.31,2.32,2.33
192,8.86,6.55,8.86,6.55,-6.55,-5.97,2.31,2.31,2.31
194,8.82,6.53,8.82,6.53,-6.53,-5.99,2.29,2.29,2.29
196,8.79,6.52,8.78,6.51,-6.51,-6.02,2.28,2.27,2.27
198,8.75,6.49,8.74,6.49,-6.49,-6.05,2.26,2.25,2.26
200,8.71,6.47,8.70,6.47,-6.47,-6.09,2.25,2.24,2.24
202,8.66,6.44,8.67,6.44,-6.44,-6.13,2.22,2.23,2.23
204,8.62,6.41,8.63,6.42,-6.42,-6.17,2.20,2.21,2.21
206,8.58,6.39,8.59,6.39,-6.39,-6.21,2.19,2.20,2.20
208,8.54,6.36,8.55,6.37,-6.37,-6.25,2.17,2.18,2.18
210,8.51,6.34,8.51,6.34,-6.34,-6.29,2.17,2.17,2.17
212,8.48,6.33,8.46,6.32,-6.32,-6.34,2.17,2.15,2.15
214,8.44,6.30,8.42,6.29,-6.29,-6.38,2.15,2.14,2.14
216,8.41,6.28,8.38,6.26,-6.26,-6.42,2.15,2.12,2.13
218,8.35,6.23,8.34,6.23,-6.23,-6.46,2.12,2.11,2.12
221,8.29,6.19,8.31,6.21,-6.21,-6.52,2.08,2.10,2.10
223,8.24,6.15,8.27,6.18,-6.18,-6.56,2.06,2.09,2.09
225,8.21,6.13,8.23,6.16,-6.16,-6.59,2.05,2.07,2.08
227,8.18,6.11,8.20,6.14,-6.14,-6.62,2.04,2.06,2.07
229,8.16,6.10,8.17,6.11,-6.11,-6.65,2.05,2.05,2.06
232,8.13,6.09,8.13,6.09,-6.09,-6.69,2.04,2.04,2.04
234,8.11,6.08,8.10,6.07,-6.07,-6.70,2.04,2.03,2.04
236,8.08,6.05,8.07,6.05,-6.05,-6.72,2.03,2.02,2.03
239,8.05,6.04,8.05,6.04,-6.04,-6.73,2.02,2.01,2.01
241,8.02,6.01,8.02,6.02,-6.02,-6.73,2.01,2.00,2.01
244,7.99,6.00,7.99,6.00,-6.00,-6.72,2.00,2.00,1.99
246,7.97,5.98,7.96,5.97,-5.97,-6.71,2.00,1.99,1.99
248,7.93,5.95,7.93,5.95,-5.95,-6.69,1.98,1.98,1.98
251,7.89,5.92,7.89,5.92,-5.92,-6.66,1.97,1.97,1.97
253,7.86,5.90,7.86,5.89,-5.89,-6.63,1.97,1.96,1.96
256,7.82,5.87,7.82,5.86,-5.86,-6.57,1.96,1.95,1.95
259,7.77,5.83,7.77,5.83,-5.83,-6.51,1.94,1.95,1.94
261,7.73,5.79,7.73,5.79,-5.79,-6.46,1.94,1.94,1.94
264,7.68,5.75,7.68,5.75,-5.75,-6.38,1.93,1.93,1.93
266,7.64,5.72,7.63,5.71,-5.71,-6.32,1.93,1.92,1.92
269,7.58,5.67,7.58,5.66,-5.66,-6.23,1.92,1.91,1.92
272,7.51,5.60,7.52,5.61,-5.61,-6.13,1.90,1.91,1.91
274,7.47,5.57,7.47,5.56,-5.56,-6.06,1.91,1.90,1.90
277,7.41,5.51,7.41,5.51,-5.51,-5.96,1.90,1.89,1.90
280,7.34,5.45,7.35,5.46,-5.46,-5.85,1.88,1.89,1.89
283,7.28,5.40,7.29,5.41,-5.41,-5.73,1.88,1.88,1.88
286,7.21,5.33,7.23,5.35,-5.35,-5.62,1.86,1.88,1.88
288,7.17,5.30,7.16,5.29,-5.29,-5.54,1.88,1.87,1.87
291,7.10,5.23,7.10,5.24,-5.24,-5.42,1.87,1.86,1.87
294,7.04,5.18,7.04,5.18,-5.18,-5.30,1.86,1.86,1.86
297,6.97,5.12,6.97,5.12,-5.12,-5.18,1.85,1.85,1.86
300,6.91,5.06,6.91,5.06,-5.06,-5.07,1.85,1.85,1.85
303,6.84,5.00,6.84,5.00,-5.00,-4.95,1.84,1.84,1.85
306,6.78,4.94,6.78,4.94,-4.94,-4.84,1.84,1.84,1.84
309,6.72,4.89,6.71,4.88,-4.88,-4.72,1.84,1.84,1.84
312,6.65,4.82,6.65,4.82,-4.82,-4.61,1.83,1.83,1.83
316,6.57,4.75,6.58,4.76,-4.76,-4.47,1.81,1.83,1.83
319,6.51,4.69,6.52,4.69,-4.69,-4.37,1.82,1.82,1.82
322,6.45,4.63,6.45,4.63,-4.63,-4.26,1.82,1.82,1.82
325,6.38,4.57,6.38,4.57,-4.57,-4.16,1.81,1.81,1.81
328,6.32,4.51,6.31,4.51,-4.51,-4.07,1.82,1.81,1.81
332,6.24,4.44,6.25,4.44,-4.44,-3.94,1.80,1.80,1.81
335,6.18,4.38,6.18,4.38,-4.38,-3.85,1.80,1.80,1.80
338,6.12,4.32,6.11,4.32,-4.32,-3.77,1.81,1.80,1.80
342,6.04,4.25,6.04,4.25,-4.25,-3.65,1.79,1.79,1.79
345,5.98,4.19,5.98,4.19,-4.19,-3.57,1.79,1.79,1.79
349,5.90,4.11,5.91,4.12,-4.12,-3.47,1.78,1.79,1.79
352,5.84,4.06,5.84,4.06,-4.06,-3.39,1.78,1.78,1.78
356,5.77,3.99,5.77,3.99,-3.99,-3.30,1.78,1.78,1.78
359,5.71,3.93,5.71,3.93,-3.93,-3.23,1.78,1.78,1.78
363,5.63,3.86,5.64,3.86,-3.86,-3.14,1.77,1.77,1.77
366,5.57,3.80,5.57,3.80,-3.80,-3.08,1.78,1.77,1.77
370,5.50,3.73,5.50,3.73,-3.73,-3.00,1.77,1.77,1.77
374,5.42,3.65,5.43,3.66,-3.66,-2.92,1.76,1.77,1.77
377,5.36,3.60,5.36,3.59,-3.59,-2.86,1.77,1.76,1.76
381,5.29,3.53,5.28,3.52,-3.52,-2.79,1.77,1.76,1.76
385,5.21,3.45,5.21,3.45,-3.45,-2.72,1.76,1.76,1.76
389,5.14,3.38,5.14,3.38,-3.38,-2.65,1.76,1.76,1.76
393,5.06,3.31,5.07,3.31,-3.31,-2.59,1.75,1.75,1.75
397,4.99,3.24,4.99,3.24,-3.24,-2.53,1.75,1.75,1.75
401,4.91,3.16,4.92,3.17,-3.17,-2.47,1.74,1.75,1.75
405,4.84,3.09,4.84,3.10,-3.10,-2.42,1.74,1.75,1.75
409,4.76,3.02,4.76,3.02,-3.02,-2.36,1.74,1.74,1.74
413,4.69,2.95,4.69,2.95,-2.95,-2.31,1.74,1.74,1.74
417,4.62,2.88,4.61,2.88,-2.88,-2.26,1.75,1.74,1.74
421,4.54,2.80,4.53,2.80,-2.80,-2.21,1.74,1.73,1.74
425,4.47,2.74,4.46,2.73,-2.73,-2.16,1.74,1.73,1.73
430,4.37,2.64,4.38,2.65,-2.65,-2.11,1.72,1.73,1.73
434,4.30,2.57,4.30,2.58,-2.58,-2.06,1.73,1.73,1.73
438,4.22,2.49,4.23,2.50,-2.50,-2.02,1.72,1.73,1.73
443,4.14,2.41,4.15,2.42,-2.42,-1.96,1.72,1.73,1.73
447,4.07,2.34,4.08,2.35,-2.35,-1.92,1.72,1.73,1.73
451,4.01,2.28,4.00,2.27,-2.27,-1.88,1.74,1.73,1.73
456,3.92,2.19,3.93,2.19,-2.19,-1.82,1.73,1.73,1.74
460,3.85,2.11,3.85,2.11,-2.11,-1.78,1.74,1.74,1.74
465,3.78,2.03,3.78,2.03,-2.03,-1.73,1.75,1.75,1.75
470,3.70,1.95,3.71,1.95,-1.95,-1.68,1.75,1.76,1.76
474,3.64,1.88,3.64,1.87,-1.87,-1.63,1.77,1.77,1.76
479,3.56,1.79,3.56,1.78,-1.78,-1.58,1.78,1.78,1.77
484,3.48,1.70,3.48,1.69,-1.69,-1.53,1.79,1.79,1.79
489,3.41,1.61,3.40,1.60,-1.60,-1.47,1.81,1.80,1.80
494,3.33,1.52,3.32,1.51,-1.51,-1.41,1.82,1.81,1.81
499,3.25,1.43,3.23,1.41,-1.41,-1.36,1.84,1.82,1.83
504,3.16,1.32,3.15,1.31,-1.31,-1.30,1.85,1.84,1.84
509,3.07,1.21,3.06,1.21,-1.21,-1.24,1.86,1.85,1.86
514,2.98,1.11,2.98,1.11,-1.11,-1.18,1.87,1.87,1.87
519,2.89,1.00,2.89,1.01,-1.01,-1.12,1.88,1.88,1.89
524,2.79,0.89,2.80,0.90,-0.90,-1.06,1.89,1.90,1.91
529,2.70,0.78,2.72,0.80,-0.80,-1.00,1.90,1.92,1.92
535,2.61,0.67,2.64,0.70,-0.70,-0.92,1.92,1.94,1.94
540,2.53,0.57,2.55,0.59,-0.59,-0.86,1.94,1.96,1.96
545,2.47,0.49,2.47,0.49,-0.49,-0.79,1.98,1.98,1.99
551,2.40,0.39,2.39,0.39,-0.39,-0.72,2.01,2.00,2.01
556,2.33,0.30,2.31,0.28,-0.28,-0.65,2.05,2.03,2.03
562,2.25,0.19,2.24,0.18,-0.18,-0.57,2.07,2.06,2.06
568,2.16,0.07,2.16,0.08,-0.08,-0.49,2.08,2.09,2.09
573,2.10,-0.02,2.09,-0.02,0.02,-0.42,2.13,2.12,2.12
579,2.01,-0.13,2.02,-0.13,0.13,-0.34,2.14,2.15,2.14
585,1.93,-0.24,1.94,-0.23,0.23,-0.26,2.17,2.18,2.17
591,1.85,-0.35,1.87,-0.34,0.34,-0.18,2.19,2.21,2.20
596,1.79,-0.44,1.79,-0.45,0.45,-0.11,2.24,2.23,2.23
602,1.72,-0.54,1.70,-0.55,0.55,-0.03,2.28,2.26,2.26
608,1.65,-0.64,1.63,-0.66,0.66,0.05,2.31,2.29,2.29
615,1.56,-0.76,1.55,-0.77,0.77,0.15,2.33,2.32,2.33
621,1.48,-0.88,1.47,-0.88,0.88,0.23,2.36,2.35,2.36
627,1.40,-0.99,1.40,-0.98,0.98,0.32,2.38,2.38,2.39
633,1.31,-1.11,1.33,-1.09,1.09,0.40,2.40,2.41,2.42
639,1.23,-1.22,1.26,-1.19,1.19,0.48,2.42,2.45,2.45
646,1.16,-1.32,1.19,-1.29,1.29,0.58,2.45,2.48,2.48
652,1.10,-1.42,1.12,-1.39,1.39,0.66,2.49,2.51,2.52
659,1.05,-1.50,1.05,-1.49,1.49,0.76,2.54,2.54,2.55
665,1.01,-1.57,0.99,-1.59,1.59,0.85,2.60,2.58,2.58
672,0.95,-1.67,0.93,-1.68,1.68,0.94,2.63,2.61,2.62
679,0.89,-1.77,0.87,-1.78,1.78,1.04,2.67,2.65,2.66
686,0.82,-1.87,0.82,-1.87,1.87,1.14,2.69,2.69,2.69
692,0.77,-1.96,0.77,-1.96,1.96,1.23,2.73,2.73,2.73
699,0.70,-2.07,0.72,-2.05,2.05,1.32,2.75,2.77,2.77
706,0.65,-2.16,0.67,-2.14,2.14,1.42,2.79,2.81,2.81
713,0.60,-2.24,0.62,-2.23,2.23,1.52,2.83,2.85,2.85
721,0.56,-2.32,0.57,-2.32,2.32,1.64,2.88,2.88,2.88
728,0.52,-2.40,0.51,-2.41,2.41,1.74,2.93,2.92,2.92
735,0.48,-2.48,0.46,-2.50,2.50,1.84,2.98,2.96,2.96
742,0.44,-2.56,0.41,-2.59,2.59,1.94,3.03,2.99,3.00
750,0.38,-2.66,0.36,-2.68,2.68,2.05,3.06,3.03,3.04
757,0.32,-2.76,0.31,-2.76,2.76,2.15,3.08,3.07,3.08
765,0.25,-2.86,0.26,-2.85,2.85,2.26,3.10,3.11,3.12
773,0.19,-2.96,0.22,-2.93,2.93,2.38,3.12,3.15,3.15
780,0.15,-3.04,0.17,-3.01,3.01,2.48,3.17,3.18,3.19
788,0.11,-3.11,0.13,-3.09,3.09,2.59,3.20,3.22,3.22
796,0.07,-3.19,0.08,-3.17,3.17,2.70,3.24,3.25,3.26
804,0.05,-3.24,0.04,-3.24,3.24,2.82,3.30,3.29,3.29
812,0.01,-3.31,0.00,-3.31,3.31,2.93,3.33,3.32,3.32
820,-0.02,-3.38,-0.03,-3.38,3.38,3.04,3.36,3.35,3.36
828,-0.05,-3.44,-0.06,-3.45,3.45,3.14,3.40,3.38,3.39
837,-0.08,-3.50,-0.09,-3.50,3.50,3.26,3.43,3.42,3.42
845,-0.11,-3.56,-0.11,-3.56,3.56,3.37,3.45,3.45,3.45
853,-0.13,-3.61,-0.13,-3.61,3.61,3.47,3.48,3.48,3.48
862,-0.16,-3.67,-0.15,-3.66,3.66,3.58,3.50,3.51,3.51
871,-0.17,-3.71,-0.17,-3.70,3.70,3.69,3.53,3.53,3.54
879,-0.19,-3.76,-0.18,-3.74,3.74,3.79,3.55,3.56,3.57
888,-0.19,-3.79,-0.18,-3.77,3.77,3.89,3.58,3.59,3.60
897,-0.19,-3.81,-0.19,-3.80,3.80,3.99,3.61,3.61,3.62
906,-0.18,-3.83,-0.18,-3.82,3.82,4.08,3.64,3.64,3.65
915,-0.18,-3.86,-0.17,-3.84,3.84,4.16,3.66,3.67,3.68
924,-0.17,-3.87,-0.16,-3.85,3.85,4.25,3.69,3.70,3.70
933,-0.16,-3.89,-0.14,-3.87,3.87,4.32,3.71,3.73,3.73
943,-0.13,-3.89,-0.12,-3.88,3.88,4.40,3.75,3.76,3.76
952,-0.11,-3.89,-0.10,-3.89,3.89,4.46,3.78,3.78,3.78
962,-0.07,-3.88,-0.08,-3.89,3.89,4.52,3.83,3.81,3.81
971,-0.05,-3.88,-0.07,-3.90,3.90,4.57,3.85,3.84,3.83
981,-0.02,-3.88,-0.05,-3.91,3.91,4.62,3.89,3.86,3.86
991,-0.01,-3.90,-0.03,-3.92,3.92,4.66,3.91,3.89,3.89
1001,0.00,-3.91,-0.02,-3.93,3.93,4.69,3.93,3.91,3.91
1011,0.00,-3.94,-0.00,-3.94,3.94,4.71,3.94,3.94,3.94
1021,0.01,-3.96,0.01,-3.95,3.95,4.73,3.96,3.96,3.97
1031,0.00,-3.99,0.03,-3.96,3.96,4.74,3.96,3.99,3.99
1041,0.02,-4.00,0.05,-3.97,3.97,4.74,3.99,4.02,4.02
1052,0.04,-4.01,0.06,-3.98,3.98,4.74,4.02,4.04,4.05
1062,0.05,-4.03,0.08,-3.99,3.99,4.73,4.04,4.07,4.08
1073,0.09,-4.01,0.10,-4.00,4.00,4.72,4.09,4.10,4.11
1084,0.12,-4.01,0.12,-4.01,4.01,4.70,4.13,4.13,4.13
1094,0.14,-4.02,0.14,-4.02,4.02,4.67,4.16,4.16,4.16
1105,0.16,-4.03,0.16,-4.04,4.04,4.64,4.20,4.20,4.19
1116,0.18,-4.04,0.17,-4.06,4.06,4.61,4.24,4.23,4.22
1128,0.20,-4.06,0.18,-4.09,4.09,4.57,4.29,4.26,4.26
1139,0.19,-4.10,0.18,-4.12,4.12,4.54,4.31,4.30,4.29
1150,0.19,-4.13,0.17,-4.16,4.16,4.50,4.35,4.33,4.32
1162,0.16,-4.19,0.15,-4.21,4.21,4.45,4.37,4.36,4.35
1173,0.14,-4.24,0.13,-4.26,4.26,4.41,4.40,4.39,4.38
1185,0.10,-4.31,0.09,-4.32,4.32,4.37,4.42,4.41,4.42
1197,0.06,-4.39,0.06,-4.39,4.39,4.32,4.45,4.45,4.45
1209,0.02,-4.46,0.02,-4.46,4.46,4.28,4.48,4.48,4.48
1221,-0.04,-4.55,-0.03,-4.55,4.55,4.23,4.51,4.52,4.51
1233,-0.10,-4.64,-0.08,-4.63,4.63,4.19,4.53,4.55,4.54
1246,-0.15,-4.72,-0.14,-4.72,4.72,4.15,4.57,4.59,4.57
1258,-0.20,-4.81,-0.20,-4.81,4.81,4.11,4.62,4.62,4.61
1271,-0.24,-4.88,-0.26,-4.91,4.91,4.07,4.67,4.65,4.64
1283,-0.29,-4.96,-0.33,-5.00,5.00,4.04,4.71,4.67,4.68
1296,-0.34,-5.05,-0.39,-5.09,5.09,4.00,4.75,4.70,4.71
1309,-0.40,-5.15,-0.45,-5.18,5.18,3.97,4.78,4.72,4.75
1322,-0.47,-5.25,-0.51,-5.26,5.26,3.94,4.79,4.75,4.78
1335,-0.54,-5.36,-0.55,-5.32,5.32,3.91,4.78,4.77,4.82
1349,-0.60,-5.45,-0.58,-5.38,5.38,3.89,4.78,4.79,4.86
1362,-0.63,-5.52,-0.60,-5.41,5.41,3.87,4.78,4.81,4.89
1376,-0.64,-5.57,-0.59,-5.42,5.42,3.85,4.78,4.83,4.93
1390,-0.61,-5.58,-0.56,-5.40,5.40,3.84,4.80,4.85,4.97
1404,-0.53,-5.54,-0.49,-5.36,5.36,3.83,4.83,4.87,5.01
1418,-0.43,-5.47,-0.39,-5.29,5.29,3.82,4.86,4.90,5.05
1432,-0.29,-5.37,-0.26,-5.19,5.19,3.81,4.90,4.93,5.08
1446,-0.12,-5.24,-0.08,-5.06,5.06,3.81,4.94,4.98,5.12
1461,0.08,-5.08,0.13,-4.89,4.89,3.81,4.97,5.03,5.16
1475,0.31,-4.89,0.38,-4.70,4.70,3.81,5.01,5.09,5.20
1490,0.59,-4.65,0.66,-4.49,4.49,3.82,5.08,5.15,5.24
1505,0.90,-4.38,0.95,-4.26,4.26,3.83,5.16,5.21,5.28
1520,1.23,-4.09,1.26,-4.01,4.01,3.84,5.24,5.27,5.32
1535,1.58,-3.78,1.58,-3.76,3.76,3.86,5.34,5.33,5.36
1550,1.92,-3.48,1.89,-3.50,3.50,3.88,5.42,5.39,5.41
1566,2.27,-3.18,2.20,-3.25,3.25,3.90,5.52,5.45,5.45
1582,2.58,-2.91,2.50,-3.01,3.01,3.92,5.59,5.51,5.49
1597,2.85,-2.69,2.78,-2.79,2.79,3.94,5.64,5.57,5.54
1613,3.10,-2.48,3.03,-2.58,2.58,3.97,5.68,5.62,5.58
1629,3.31,-2.32,3.26,-2.40,2.40,4.00,5.71,5.67,5.63
1646,3.51,-2.16,3.46,-2.24,2.24,4.03,5.75,5.71,5.67
1662,3.66,-2.06,3.64,-2.11,2.11,4.06,5.77,5.75,5.72
1679,3.79,-1.98,3.78,-2.00,2.00,4.09,5.80,5.79,5.77
1696,3.90,-1.91,3.90,-1.92,1.92,4.12,5.82,5.82,5.81
1713,3.99,-1.87,4.00,-1.86,1.86,4.15,5.85,5.86,5.86
1730,4.06,-1.85,4.08,-1.83,1.83,4.18,5.89,5.90,5.91
1747,4.13,-1.83,4.14,-1.81,1.81,4.21,5.94,5.95,5.96
1764,4.18,-1.83,4.19,-1.81,1.81,4.24,5.99,6.00,6.01
1782,4.23,-1.83,4.23,-1.82,1.82,4.27,6.05,6.05,6.06
1800,4.26,-1.85,4.26,-1.84,1.84,4.29,6.10,6.10,6.11
1818,4.29,-1.87,4.29,-1.87,1.87,4.32,6.16,6.16,6.16
1836,4.30,-1.92,4.30,-1.91,1.91,4.33,6.21,6.22,6.22
1854,4.31,-1.97,4.32,-1.96,1.96,4.35,6.27,6.28,6.28
1873,4.32,-2.02,4.33,-2.01,2.01,4.36,6.33,6.34,6.34
1892,4.33,-2.08,4.33,-2.07,2.07,4.37,6.40,6.40,6.41
1911,4.34,-2.13,4.34,-2.13,2.13,4.38,6.47,6.47,6.48
1930,4.35,-2.20,4.35,-2.19,2.19,4.37,6.54,6.54,6.55
1949,4.36,-2.26,4.36,-2.26,2.26,4.37,6.62,6.61,6.62
1969,4.36,-2.34,4.37,-2.32,2.32,4.35,6.68,6.69,6.70
1988,4.36,-2.42,4.38,-2.39,2.39,4.34,6.75,6.77,6.79
2008,4.38,-2.49,4.40,-2.46,2.46,4.31,6.84,6.86,6.87
2028,4.40,-2.56,4.43,-2.52,2.52,4.29,6.92,6.95,6.96
