frequency,raw,error,smoothed,error_smoothed,equalization,parametric_eq,fixed_band_eq,equalized_raw,equalized_smoothed,target
20.00,1.36,4.82,1.36,4.82,-4.82,-5.39,-2.50,-3.46,-3.46,-3.46
20.20,1.42,4.79,1.42,4.80,-4.80,-5.39,-2.57,-3.38,-3.37,-3.37
20.40,1.49,4.78,1.49,4.78,-4.78,-5.39,-2.64,-3.29,-3.29,-3.29
20.61,1.55,4.77,1.55,4.76,-4.76,-5.39,-2.72,-3.21,-3.21,-3.22
20.81,1.61,4.74,1.61,4.75,-4.75,-5.39,-2.79,-3.14,-3.13,-3.13
21.02,1.68,4.73,1.68,4.74,-4.74,-5.39,-2.88,-3.06,-3.06,-3.05
21.23,1.74,4.73,1.74,4.73,-4.74,-5.39,-2.96,-3.00,-3.00,-2.99
21.44,1.80,4.73,1.80,4.73,-4.74,-5.39,-3.04,-2.94,-2.94,-2.93
21.66,1.86,4.74,1.86,4.74,-4.74,-5.39,-3.13,-2.88,-2.88,-2.88
21.87,1.92,4.75,1.92,4.76,-4.75,-5.40,-3.22,-2.83,-2.83,-2.83
22.09,1.99,4.77,1.99,4.77,-4.77,-5.40,-3.31,-2.78,-2.78,-2.78
22.31,2.05,4.79,2.05,4.79,-4.79,-5.40,-3.41,-2.74,-2.74,-2.73
22.54,2.11,4.81,2.11,4.81,-4.81,-5.40,-3.50,-2.70,-2.70,-2.70
22.76,2.17,4.83,2.17,4.83,-4.83,-5.40,-3.60,-2.66,-2.66,-2.66
22.99,2.24,4.87,2.24,4.86,-4.86,-5.40,-3.70,-2.62,-2.62,-2.63
23.22,2.30,4.89,2.30,4.89,-4.88,-5.40,-3.81,-2.58,-2.58,-2.59
23.45,2.36,4.91,2.36,4.91,-4.90,-5.40,-3.91,-2.54,-2.54,-2.55
23.69,2.42,4.93,2.42,4.93,-4.92,-5.41,-4.02,-2.51,-2.51,-2.51
23.92,2.48,4.95,2.48,4.94,-4.95,-5.41,-4.13,-2.47,-2.47,-2.47
24.16,2.54,4.96,2.54,4.96,-4.97,-5.41,-4.25,-2.43,-2.43,-2.42
24.40,2.60,4.99,2.60,4.99,-4.99,-5.41,-4.36,-2.39,-2.39,-2.39
24.65,2.66,5.02,2.66,5.02,-5.02,-5.41,-4.48,-2.36,-2.36,-2.36
24.89,2.72,5.05,2.72,5.04,-5.04,-5.41,-4.60,-2.32,-2.32,-2.33
25.14,2.77,5.06,2.77,5.06,-5.06,-5.41,-4.72,-2.29,-2.29,-2.29
25.39,2.83,5.09,2.83,5.09,-5.09,-5.41,-4.84,-2.26,-2.26,-2.26
25.65,2.88,5.10,2.88,5.11,-5.11,-5.42,-4.96,-2.23,-2.23,-2.22
25.91,2.94,5.14,2.94,5.14,-5.14,-5.42,-5.08,-2.20,-2.20,-2.20
26.16,3.00,5.17,3.00,5.16,-5.16,-5.42,-5.20,-2.16,-2.17,-2.17
26.43,3.05,5.18,3.05,5.19,-5.18,-5.42,-5.32,-2.14,-2.13,-2.13
26.69,3.11,5.21,3.11,5.21,-5.21,-5.42,-5.44,-2.10,-2.10,-2.10
26.96,3.16,5.23,3.16,5.23,-5.23,-5.43,-5.56,-2.07,-2.07,-2.07
27.23,3.21,5.24,3.21,5.25,-5.25,-5.43,-5.67,-2.04,-2.04,-2.04
27.50,3.26,5.27,3.26,5.27,-5.27,-5.43,-5.79,-2.01,-2.01,-2.01
27.77,3.31,5.30,3.31,5.29,-5.29,-5.43,-5.90,-1.98,-1.98,-1.99
28.05,3.36,5.31,3.36,5.31,-5.31,-5.43,-6.01,-1.95,-1.95,-1.95
28.33,3.41,5.34,3.41,5.33,-5.33,-5.43,-6.11,-1.92,-1.92,-1.93
28.62,3.46,5.36,3.46,5.35,-5.35,-5.44,-6.21,-1.89,-1.89,-1.90
28.90,3.50,5.36,3.50,5.37,-5.37,-5.44,-6.29,-1.87,-1.86,-1.86
29.19,3.55,5.39,3.55,5.38,-5.38,-5.44,-6.38,-1.83,-1.83,-1.84
29.48,3.59,5.38,3.59,5.39,-5.40,-5.44,-6.45,-1.81,-1.80,-1.79
29.78,3.64,5.41,3.64,5.41,-5.41,-5.45,-6.53,-1.77,-1.77,-1.77
30.08,3.68,5.42,3.68,5.42,-5.42,-5.45,-6.58,-1.74,-1.74,-1.74
30.38,3.72,5.43,3.72,5.44,-5.44,-5.45,-6.64,-1.72,-1.71,-1.71
30.68,3.76,5.45,3.76,5.45,-5.45,-5.45,-6.68,-1.69,-1.69,-1.69
30.99,3.80,5.47,3.80,5.46,-5.46,-5.46,-6.71,-1.66,-1.66,-1.67
31.30,3.83,5.47,3.83,5.47,-5.47,-5.46,-6.74,-1.64,-1.64,-1.64
31.61,3.87,5.48,3.87,5.48,-5.48,-5.46,-6.75,-1.61,-1.61,-1.61
31.93,3.90,5.49,3.90,5.49,-5.49,-5.47,-6.76,-1.59,-1.59,-1.59
32.24,3.93,5.50,3.93,5.50,-5.50,-5.47,-6.75,-1.57,-1.56,-1.57
32.57,3.96,5.50,3.96,5.50,-5.50,-5.47,-6.74,-1.54,-1.54,-1.54
32.89,3.99,5.50,3.99,5.51,-5.51,-5.48,-6.72,-1.52,-1.52,-1.51
33.22,4.02,5.52,4.02,5.51,-5.52,-5.48,-6.69,-1.50,-1.50,-1.50
33.55,4.04,5.52,4.04,5.52,-5.52,-5.48,-6.65,-1.48,-1.48,-1.48
33.89,4.07,5.54,4.07,5.53,-5.53,-5.49,-6.61,-1.46,-1.46,-1.47
34.23,4.09,5.53,4.09,5.54,-5.54,-5.49,-6.56,-1.45,-1.45,-1.44
34.57,4.11,5.54,4.11,5.55,-5.55,-5.49,-6.50,-1.44,-1.43,-1.43
34.92,4.14,5.56,4.13,5.55,-5.55,-5.50,-6.44,-1.41,-1.42,-1.42
35.27,4.15,5.56,4.15,5.56,-5.56,-5.50,-6.38,-1.41,-1.41,-1.41
35.62,4.16,5.57,4.17,5.57,-5.57,-5.51,-6.31,-1.41,-1.40,-1.41
35.97,4.18,5.58,4.18,5.57,-5.57,-5.51,-6.24,-1.39,-1.40,-1.40
36.33,4.19,5.57,4.19,5.58,-5.58,-5.52,-6.17,-1.39,-1.39,-1.38
36.70,4.20,5.59,4.20,5.59,-5.59,-5.52,-6.10,-1.39,-1.39,-1.39
37.06,4.21,5.60,4.21,5.59,-5.60,-5.53,-6.03,-1.39,-1.39,-1.39
37.43,4.22,5.60,4.22,5.60,-5.60,-5.53,-5.95,-1.38,-1.38,-1.38
37.81,4.23,5.61,4.23,5.61,-5.61,-5.54,-5.88,-1.38,-1.38,-1.38
38.19,4.24,5.63,4.24,5.62,-5.62,-5.54,-5.81,-1.38,-1.38,-1.39
38.57,4.25,5.63,4.25,5.63,-5.63,-5.55,-5.74,-1.38,-1.38,-1.38
38.95,4.25,5.63,4.25,5.64,-5.64,-5.56,-5.67,-1.39,-1.39,-1.38
39.34,4.26,5.65,4.26,5.65,-5.65,-5.56,-5.60,-1.39,-1.39,-1.39
39.74,4.26,5.66,4.26,5.66,-5.65,-5.57,-5.54,-1.39,-1.39,-1.40
40.14,4.27,5.67,4.26,5.67,-5.66,-5.57,-5.47,-1.39,-1.40,-1.40
40.54,4.26,5.66,4.26,5.67,-5.66,-5.58,-5.42,-1.40,-1.40,-1.40
40.94,4.26,5.67,4.26,5.67,-5.67,-5.59,-5.36,-1.41,-1.41,-1.41
41.35,4.26,5.67,4.26,5.67,-5.67,-5.59,-5.31,-1.41,-1.41,-1.41
41.76,4.26,5.67,4.26,5.68,-5.68,-5.60,-5.26,-1.42,-1.42,-1.41
42.18,4.26,5.68,4.26,5.68,-5.68,-5.61,-5.21,-1.42,-1.42,-1.42
42.60,4.26,5.69,4.26,5.69,-5.69,-5.61,-5.17,-1.43,-1.42,-1.43
43.03,4.26,5.69,4.26,5.69,-5.69,-5.62,-5.13,-1.43,-1.43,-1.43
43.46,4.26,5.70,4.26,5.70,-5.70,-5.62,-5.10,-1.44,-1.44,-1.44
43.90,4.25,5.71,4.25,5.71,-5.71,-5.63,-5.07,-1.46,-1.45,-1.46
44.33,4.25,5.72,4.25,5.71,-5.72,-5.63,-5.04,-1.47,-1.47,-1.47
44.78,4.24,5.71,4.24,5.72,-5.72,-5.64,-5.02,-1.48,-1.48,-1.47
45.23,4.24,5.73,4.24,5.73,-5.73,-5.64,-5.00,-1.49,-1.49,-1.49
45.68,4.25,5.75,4.25,5.74,-5.74,-5.65,-4.98,-1.49,-1.49,-1.50
46.13,4.25,5.75,4.25,5.75,-5.75,-5.65,-4.97,-1.50,-1.49,-1.50
46.60,4.26,5.76,4.26,5.76,-5.76,-5.65,-4.96,-1.50,-1.50,-1.50
47.06,4.26,5.76,4.26,5.76,-5.76,-5.65,-4.96,-1.50,-1.50,-1.50
47.53,4.26,5.77,4.26,5.77,-5.77,-5.65,-4.96,-1.51,-1.51,-1.51
48.01,4.26,5.76,4.26,5.77,-5.77,-5.65,-4.96,-1.51,-1.51,-1.50
48.49,4.26,5.77,4.26,5.77,-5.78,-5.65,-4.97,-1.52,-1.52,-1.51
48.97,4.26,5.78,4.26,5.78,-5.78,-5.64,-4.98,-1.52,-1.52,-1.52
49.46,4.25,5.79,4.25,5.78,-5.77,-5.64,-4.99,-1.52,-1.52,-1.54
49.96,4.24,5.78,4.24,5.78,-5.77,-5.63,-5.00,-1.53,-1.53,-1.54
50.46,4.23,5.76,4.23,5.76,-5.76,-5.63,-5.02,-1.53,-1.53,-1.53
50.96,4.22,5.74,4.22,5.75,-5.75,-5.62,-5.04,-1.53,-1.53,-1.52
51.47,4.21,5.74,4.21,5.73,-5.74,-5.61,-5.06,-1.53,-1.53,-1.53
51.99,4.20,5.73,4.20,5.72,-5.72,-5.60,-5.08,-1.52,-1.52,-1.52
52.51,4.19,5.70,4.19,5.71,-5.71,-5.59,-5.11,-1.52,-1.52,-1.51
53.03,4.18,5.69,4.18,5.69,-5.70,-5.58,-5.13,-1.52,-1.51,-1.51
53.56,4.17,5.68,4.17,5.68,-5.68,-5.57,-5.16,-1.51,-1.51,-1.51
54.10,4.16,5.67,4.16,5.67,-5.67,-5.55,-5.19,-1.51,-1.51,-1.51
54.64,4.14,5.66,4.14,5.66,-5.66,-5.54,-5.22,-1.52,-1.52,-1.52
55.18,4.12,5.64,4.12,5.65,-5.65,-5.52,-5.24,-1.53,-1.52,-1.52
55.74,4.10,5.63,4.10,5.63,-5.63,-5.51,-5.27,-1.53,-1.53,-1.53
56.29,4.08,5.61,4.08,5.62,-5.62,-5.49,-5.29,-1.54,-1.54,-1.53
56.86,4.06,5.61,4.06,5.60,-5.60,-5.48,-5.32,-1.54,-1.54,-1.55
57.42,4.03,5.59,4.03,5.59,-5.58,-5.46,-5.34,-1.55,-1.55,-1.56
58.00,4.01,5.57,4.01,5.57,-5.57,-5.44,-5.36,-1.56,-1.56,-1.56
58.58,3.98,5.55,3.98,5.55,-5.55,-5.43,-5.38,-1.57,-1.57,-1.57
59.16,3.95,5.53,3.95,5.53,-5.53,-5.41,-5.39,-1.58,-1.58,-1.58
59.76,3.92,5.51,3.92,5.51,-5.52,-5.39,-5.40,-1.60,-1.60,-1.59
60.35,3.89,5.50,3.89,5.49,-5.50,-5.37,-5.41,-1.61,-1.61,-1.61
60.96,3.85,5.47,3.85,5.48,-5.49,-5.35,-5.41,-1.64,-1.63,-1.62
61.57,3.82,5.47,3.82,5.47,-5.47,-5.34,-5.41,-1.65,-1.65,-1.65
62.18,3.78,5.46,3.78,5.45,-5.45,-5.32,-5.40,-1.67,-1.67,-1.68
62.80,3.75,5.43,3.75,5.44,-5.44,-5.30,-5.39,-1.69,-1.69,-1.69
63.43,3.71,5.42,3.71,5.42,-5.42,-5.28,-5.38,-1.71,-1.70,-1.71
64.07,3.68,5.40,3.68,5.40,-5.39,-5.26,-5.36,-1.71,-1.72,-1.72
64.71,3.64,5.37,3.64,5.37,-5.37,-5.24,-5.34,-1.73,-1.73,-1.73
65.35,3.60,5.33,3.61,5.34,-5.34,-5.22,-5.32,-1.74,-1.73,-1.73
66.01,3.57,5.30,3.57,5.30,-5.30,-5.21,-5.29,-1.73,-1.73,-1.73
66.67,3.53,5.26,3.53,5.26,-5.26,-5.19,-5.26,-1.73,-1.73,-1.73
67.33,3.48,5.21,3.48,5.21,-5.21,-5.17,-5.22,-1.73,-1.73,-1.73
68.01,3.43,5.16,3.43,5.16,-5.15,-5.15,-5.18,-1.72,-1.72,-1.73
68.69,3.37,5.10,3.37,5.10,-5.10,-5.13,-5.14,-1.73,-1.72,-1.73
69.37,3.32,5.04,3.31,5.04,-5.04,-5.11,-5.10,-1.72,-1.72,-1.72
70.07,3.25,4.98,3.25,4.97,-4.98,-5.09,-5.06,-1.73,-1.72,-1.73
70.77,3.19,4.90,3.19,4.90,-4.92,-5.07,-5.01,-1.73,-1.73,-1.71
71.48,3.13,4.84,3.13,4.84,-4.86,-5.05,-4.96,-1.73,-1.72,-1.71
72.19,3.08,4.79,3.08,4.79,-4.80,-5.03,-4.92,-1.72,-1.72,-1.71
72.91,3.04,4.75,3.03,4.74,-4.74,-5.01,-4.87,-1.70,-1.71,-1.71
73.64,2.98,4.69,2.98,4.69,-4.69,-4.99,-4.82,-1.71,-1.71,-1.71
74.38,2.93,4.64,2.93,4.64,-4.64,-4.97,-4.77,-1.71,-1.71,-1.71
75.12,2.88,4.59,2.88,4.59,-4.59,-4.95,-4.73,-1.71,-1.71,-1.71
75.87,2.83,4.54,2.83,4.54,-4.54,-4.94,-4.68,-1.71,-1.71,-1.71
76.63,2.78,4.49,2.78,4.49,-4.49,-4.92,-4.64,-1.71,-1.71,-1.71
77.40,2.73,4.45,2.73,4.44,-4.44,-4.90,-4.60,-1.71,-1.71,-1.72
78.17,2.68,4.40,2.68,4.39,-4.39,-4.88,-4.56,-1.71,-1.71,-1.72
78.95,2.63,4.33,2.63,4.34,-4.34,-4.86,-4.52,-1.71,-1.71,-1.70
79.74,2.58,4.28,2.58,4.28,-4.29,-4.84,-4.49,-1.71,-1.71,-1.70
80.54,2.53,4.23,2.53,4.23,-4.24,-4.82,-4.46,-1.71,-1.71,-1.70
81.35,2.49,4.18,2.49,4.19,-4.19,-4.80,-4.43,-1.70,-1.70,-1.69
82.16,2.46,4.14,2.46,4.14,-4.14,-4.78,-4.40,-1.68,-1.68,-1.68
82.98,2.43,4.10,2.43,4.10,-4.10,-4.76,-4.38,-1.67,-1.67,-1.67
83.81,2.40,4.06,2.40,4.06,-4.05,-4.75,-4.35,-1.65,-1.66,-1.66
84.65,2.37,4.02,2.37,4.02,-4.01,-4.73,-4.34,-1.64,-1.64,-1.65
85.50,2.35,3.98,2.35,3.98,-3.97,-4.71,-4.32,-1.62,-1.62,-1.63
86.35,2.33,3.94,2.33,3.94,-3.93,-4.69,-4.31,-1.60,-1.60,-1.61
87.22,2.30,3.90,2.30,3.90,-3.90,-4.68,-4.30,-1.60,-1.59,-1.60
88.09,2.28,3.87,2.28,3.86,-3.87,-4.66,-4.30,-1.59,-1.59,-1.59
88.97,2.26,3.83,2.26,3.84,-3.85,-4.64,-4.30,-1.59,-1.59,-1.57
89.86,2.25,3.82,2.25,3.82,-3.84,-4.63,-4.30,-1.59,-1.59,-1.57
90.76,2.26,3.84,2.26,3.83,-3.84,-4.61,-4.30,-1.58,-1.59,-1.58
91.66,2.27,3.84,2.28,3.85,-3.86,-4.60,-4.31,-1.59,-1.58,-1.57
92.58,2.30,3.89,2.30,3.88,-3.88,-4.59,-4.32,-1.58,-1.58,-1.59
93.51,2.34,3.93,2.33,3.92,-3.92,-4.57,-4.34,-1.58,-1.59,-1.59
94.44,2.36,3.96,2.37,3.97,-3.97,-4.56,-4.35,-1.61,-1.60,-1.60
95.39,2.40,4.02,2.40,4.02,-4.02,-4.55,-4.37,-1.62,-1.63,-1.62
96.34,2.43,4.08,2.43,4.08,-4.09,-4.54,-4.40,-1.66,-1.66,-1.65
97.30,2.46,4.15,2.46,4.15,-4.15,-4.53,-4.42,-1.69,-1.69,-1.69
98.28,2.50,4.22,2.50,4.22,-4.22,-4.52,-4.45,-1.72,-1.72,-1.72
99.26,2.53,4.29,2.53,4.29,-4.28,-4.52,-4.48,-1.75,-1.75,-1.76
100.25,2.56,4.36,2.56,4.36,-4.35,-4.51,-4.51,-1.79,-1.79,-1.80
101.25,2.59,4.42,2.58,4.42,-4.41,-4.50,-4.54,-1.82,-1.83,-1.83
102.27,2.60,4.47,2.60,4.48,-4.47,-4.50,-4.58,-1.87,-1.87,-1.87
103.29,2.61,4.53,2.61,4.53,-4.53,-4.50,-4.62,-1.92,-1.92,-1.92
104.32,2.62,4.57,2.62,4.58,-4.58,-4.49,-4.65,-1.96,-1.96,-1.95
105.37,2.63,4.63,2.63,4.63,-4.63,-4.49,-4.69,-2.00,-2.00,-2.00
106.42,2.64,4.68,2.64,4.68,-4.67,-4.49,-4.73,-2.03,-2.04,-2.04
107.48,2.64,4.72,2.63,4.72,-4.71,-4.49,-4.77,-2.07,-2.08,-2.08
108.56,2.62,4.74,2.63,4.75,-4.75,-4.49,-4.80,-2.13,-2.13,-2.12
109.64,2.62,4.78,2.62,4.78,-4.79,-4.50,-4.84,-2.17,-2.17,-2.16
110.74,2.63,4.82,2.63,4.82,-4.83,-4.50,-4.87,-2.20,-2.20,-2.19
111.85,2.64,4.86,2.64,4.86,-4.86,-4.50,-4.90,-2.22,-2.22,-2.22
112.97,2.64,4.91,2.64,4.89,-4.89,-4.51,-4.93,-2.25,-2.25,-2.27
114.10,2.63,4.91,2.63,4.92,-4.92,-4.51,-4.96,-2.29,-2.29,-2.28
115.24,2.61,4.93,2.62,4.94,-4.93,-4.51,-4.98,-2.32,-2.32,-2.32
116.39,2.60,4.95,2.60,4.95,-4.95,-4.52,-5.00,-2.35,-2.34,-2.35
117.55,2.59,4.96,2.58,4.96,-4.95,-4.52,-5.01,-2.36,-2.37,-2.37
118.73,2.56,4.96,2.55,4.94,-4.94,-4.53,-5.02,-2.38,-2.39,-2.40
119.92,2.51,4.91,2.52,4.92,-4.92,-4.53,-5.02,-2.41,-2.41,-2.40
121.12,2.47,4.89,2.48,4.90,-4.90,-4.53,-5.02,-2.43,-2.42,-2.42
122.33,2.44,4.88,2.43,4.87,-4.86,-4.54,-5.01,-2.42,-2.43,-2.44
123.55,2.39,4.83,2.38,4.82,-4.82,-4.54,-5.00,-2.43,-2.44,-2.44
124.79,2.31,4.77,2.32,4.77,-4.77,-4.53,-4.97,-2.46,-2.46,-2.46
126.03,2.24,4.70,2.25,4.72,-4.72,-4.53,-4.95,-2.48,-2.47,-2.46
127.29,2.19,4.67,2.19,4.67,-4.66,-4.53,-4.91,-2.47,-2.48,-2.48
128.57,2.13,4.63,2.11,4.60,-4.60,-4.52,-4.87,-2.47,-2.49,-2.50
129.85,2.03,4.53,2.03,4.54,-4.54,-4.51,-4.82,-2.51,-2.51,-2.50
131.15,1.93,4.45,1.95,4.47,-4.48,-4.50,-4.77,-2.55,-2.53,-2.52
132.46,1.89,4.43,1.88,4.41,-4.42,-4.48,-4.71,-2.53,-2.54,-2.54
133.79,1.82,4.36,1.81,4.36,-4.36,-4.46,-4.65,-2.54,-2.55,-2.54
135.12,1.73,4.29,1.74,4.30,-4.30,-4.44,-4.58,-2.57,-2.56,-2.56
136.48,1.67,4.24,1.66,4.24,-4.24,-4.41,-4.51,-2.57,-2.58,-2.57
137.84,1.58,4.17,1.59,4.19,-4.19,-4.38,-4.43,-2.61,-2.59,-2.59
139.22,1.53,4.15,1.52,4.14,-4.13,-4.34,-4.35,-2.60,-2.61,-2.62
140.61,1.46,4.10,1.45,4.08,-4.07,-4.30,-4.26,-2.61,-2.63,-2.64
142.02,1.35,4.00,1.37,4.02,-4.02,-4.26,-4.17,-2.67,-2.65,-2.65
143.44,1.29,3.96,1.28,3.96,-3.97,-4.21,-4.08,-2.68,-2.68,-2.67
144.87,1.20,3.90,1.20,3.90,-3.92,-4.16,-3.99,-2.72,-2.71,-2.70
146.32,1.14,3.86,1.14,3.86,-3.87,-4.11,-3.89,-2.73,-2.73,-2.72
147.78,1.07,3.81,1.07,3.81,-3.82,-4.05,-3.80,-2.75,-2.75,-2.74
149.26,1.01,3.78,1.01,3.77,-3.77,-3.98,-3.70,-2.76,-2.77,-2.77
150.75,0.93,3.73,0.93,3.73,-3.72,-3.92,-3.60,-2.79,-2.79,-2.80
152.26,0.86,3.68,0.86,3.69,-3.68,-3.85,-3.51,-2.82,-2.81,-2.82
153.78,0.78,3.63,0.78,3.63,-3.63,-3.78,-3.41,-2.85,-2.85,-2.85
155.32,0.71,3.59,0.70,3.58,-3.57,-3.70,-3.31,-2.86,-2.87,-2.88
156.88,0.60,3.50,0.61,3.52,-3.52,-3.62,-3.21,-2.92,-2.91,-2.90
158.44,0.52,3.47,0.51,3.45,-3.46,-3.54,-3.12,-2.94,-2.95,-2.95
160.03,0.39,3.37,0.41,3.39,-3.40,-3.46,-3.02,-3.01,-2.99,-2.98
161.63,0.32,3.34,0.32,3.33,-3.33,-3.38,-2.93,-3.01,-3.02,-3.02
163.24,0.24,3.29,0.22,3.26,-3.27,-3.30,-2.83,-3.03,-3.05,-3.05
164.88,0.10,3.18,0.12,3.20,-3.19,-3.21,-2.74,-3.09,-3.07,-3.08
166.53,0.01,3.12,0.01,3.12,-3.11,-3.12,-2.65,-3.10,-3.10,-3.11
168.19,-0.08,3.06,-0.10,3.04,-3.03,-3.04,-2.56,-3.11,-3.13,-3.14
169.87,-0.22,2.94,-0.21,2.96,-2.95,-2.95,-2.48,-3.17,-3.15,-3.17
171.57,-0.33,2.86,-0.33,2.86,-2.86,-2.87,-2.39,-3.19,-3.19,-3.19
173.29,-0.44,2.78,-0.46,2.76,-2.77,-2.78,-2.31,-3.21,-3.23,-3.22
175.02,-0.59,2.66,-0.58,2.67,-2.68,-2.69,-2.22,-3.27,-3.26,-3.25
176.77,-0.70,2.57,-0.69,2.58,-2.59,-2.61,-2.14,-3.29,-3.28,-3.27
178.54,-0.79,2.51,-0.79,2.50,-2.50,-2.52,-2.06,-3.29,-3.29,-3.30
180.32,-0.89,2.42,-0.89,2.42,-2.41,-2.44,-1.98,-3.30,-3.30,-3.31
182.13,-0.98,2.35,-1.00,2.33,-2.32,-2.36,-1.91,-3.30,-3.32,-3.33
183.95,-1.13,2.21,-1.11,2.23,-2.23,-2.28,-1.83,-3.36,-3.34,-3.34
185.79,-1.23,2.13,-1.22,2.13,-2.14,-2.20,-1.76,-3.37,-3.36,-3.36
187.65,-1.31,2.06,-1.32,2.05,-2.05,-2.12,-1.69,-3.36,-3.37,-3.37
189.52,-1.41,1.96,-1.41,1.97,-1.97,-2.04,-1.62,-3.38,-3.37,-3.37
191.42,-1.49,1.89,-1.50,1.89,-1.88,-1.96,-1.55,-3.37,-3.38,-3.38
193.33,-1.59,1.80,-1.59,1.80,-1.80,-1.89,-1.48,-3.39,-3.39,-3.39
195.27,-1.68,1.71,-1.68,1.72,-1.72,-1.81,-1.42,-3.40,-3.40,-3.39
197.22,-1.76,1.64,-1.76,1.64,-1.65,-1.74,-1.35,-3.41,-3.41,-3.40
199.19,-1.83,1.59,-1.83,1.58,-1.58,-1.67,-1.29,-3.41,-3.41,-3.42
201.18,-1.90,1.52,-1.90,1.52,-1.51,-1.60,-1.23,-3.41,-3.41,-3.42
203.19,-1.97,1.45,-1.97,1.45,-1.45,-1.53,-1.16,-3.42,-3.42,-3.42
205.23,-2.04,1.39,-2.04,1.39,-1.39,-1.46,-1.10,-3.43,-3.43,-3.43
207.28,-2.11,1.32,-2.11,1.33,-1.33,-1.39,-1.05,-3.44,-3.44,-3.43
209.35,-2.17,1.27,-2.17,1.27,-1.27,-1.33,-0.99,-3.44,-3.44,-3.44
211.44,-2.23,1.23,-2.23,1.22,-1.22,-1.26,-0.93,-3.45,-3.45,-3.46
213.56,-2.29,1.17,-2.29,1.17,-1.17,-1.20,-0.88,-3.46,-3.46,-3.46
215.69,-2.35,1.11,-2.35,1.12,-1.12,-1.14,-0.82,-3.47,-3.47,-3.46
217.85,-2.40,1.07,-2.40,1.07,-1.07,-1.07,-0.77,-3.47,-3.47,-3.47
220.03,-2.44,1.04,-2.45,1.03,-1.03,-1.01,-0.72,-3.47,-3.48,-3.48
222.23,-2.50,1.00,-2.50,0.99,-0.99,-0.95,-0.67,-3.49,-3.49,-3.50
224.45,-2.56,0.94,-2.55,0.95,-0.94,-0.89,-0.62,-3.50,-3.50,-3.50
226.70,-2.60,0.90,-2.60,0.90,-0.90,-0.84,-0.57,-3.50,-3.51,-3.50
228.96,-2.65,0.86,-2.65,0.86,-0.86,-0.78,-0.52,-3.51,-3.51,-3.51
231.25,-2.69,0.83,-2.69,0.82,-0.83,-0.72,-0.47,-3.52,-3.52,-3.52
233.57,-2.74,0.79,-2.75,0.79,-0.80,-0.66,-0.42,-3.54,-3.54,-3.53
235.90,-2.80,0.75,-2.79,0.75,-0.77,-0.61,-0.38,-3.57,-3.56,-3.55
238.26,-2.84,0.72,-2.84,0.73,-0.73,-0.55,-0.33,-3.57,-3.57,-3.56
240.64,-2.87,0.71,-2.87,0.71,-0.70,-0.49,-0.29,-3.57,-3.57,-3.58
243.05,-2.90,0.68,-2.91,0.68,-0.66,-0.44,-0.24,-3.56,-3.57,-3.58
245.48,-2.95,0.64,-2.95,0.64,-0.62,-0.38,-0.20,-3.57,-3.58,-3.59
247.93,-3.02,0.57,-3.01,0.58,-0.58,-0.33,-0.16,-3.60,-3.59,-3.59
250.41,-3.07,0.54,-3.08,0.52,-0.53,-0.27,-0.12,-3.60,-3.61,-3.61
252.92,-3.14,0.45,-3.13,0.47,-0.48,-0.22,-0.07,-3.62,-3.61,-3.59
255.45,-3.18,0.41,-3.18,0.41,-0.42,-0.16,-0.03,-3.60,-3.60,-3.59
258.00,-3.22,0.36,-3.22,0.36,-0.36,-0.10,0.01,-3.58,-3.58,-3.58
260.58,-3.27,0.31,-3.27,0.31,-0.29,-0.05,0.05,-3.56,-3.56,-3.58
263.19,-3.32,0.24,-3.32,0.24,-0.23,0.01,0.09,-3.55,-3.55,-3.56
265.82,-3.38,0.17,-3.38,0.17,-0.16,0.07,0.12,-3.54,-3.54,-3.55
268.48,-3.44,0.09,-3.44,0.09,-0.10,0.13,0.16,-3.54,-3.54,-3.53
271.16,-3.49,0.02,-3.49,0.02,-0.04,0.19,0.20,-3.53,-3.53,-3.51
273.87,-3.54,-0.04,-3.53,-0.04,0.03,0.25,0.24,-3.51,-3.51,-3.50
276.61,-3.57,-0.10,-3.57,-0.10,0.09,0.31,0.28,-3.48,-3.48,-3.47
279.38,-3.61,-0.15,-3.61,-0.15,0.16,0.37,0.32,-3.45,-3.45,-3.46
282.17,-3.66,-0.22,-3.66,-0.21,0.22,0.43,0.36,-3.44,-3.44,-3.44
284.99,-3.70,-0.27,-3.71,-0.28,0.28,0.50,0.40,-3.42,-3.43,-3.43
287.84,-3.77,-0.36,-3.76,-0.35,0.35,0.57,0.44,-3.42,-3.41,-3.41
290.72,-3.82,-0.44,-3.81,-0.42,0.42,0.63,0.47,-3.40,-3.39,-3.38
293.63,-3.86,-0.48,-3.87,-0.50,0.50,0.70,0.51,-3.36,-3.37,-3.38
296.57,-3.92,-0.57,-3.93,-0.57,0.58,0.78,0.56,-3.33,-3.34,-3.35
299.53,-4.00,-0.67,-4.00,-0.66,0.67,0.85,0.60,-3.33,-3.32,-3.33
302.53,-4.08,-0.76,-4.08,-0.77,0.77,0.92,0.64,-3.31,-3.31,-3.32
305.55,-4.16,-0.88,-4.16,-0.87,0.86,1.00,0.68,-3.30,-3.30,-3.28
308.61,-4.24,-0.97,-4.24,-0.97,0.96,1.08,0.72,-3.28,-3.28,-3.27
311.69,-4.32,-1.08,-4.31,-1.08,1.07,1.17,0.77,-3.25,-3.24,-3.24
314.81,-4.38,-1.18,-4.38,-1.18,1.18,1.25,0.81,-3.20,-3.20,-3.20
317.96,-4.46,-1.28,-4.47,-1.28,1.29,1.34,0.86,-3.17,-3.17,-3.18
321.14,-4.56,-1.40,-4.56,-1.40,1.41,1.43,0.90,-3.15,-3.16,-3.16
324.35,-4.67,-1.52,-4.67,-1.52,1.52,1.52,0.95,-3.15,-3.14,-3.15
327.59,-4.78,-1.66,-4.77,-1.65,1.64,1.62,1.00,-3.14,-3.13,-3.12
330.87,-4.86,-1.76,-4.87,-1.77,1.76,1.72,1.05,-3.10,-3.10,-3.10
334.18,-4.96,-1.89,-4.96,-1.89,1.89,1.82,1.10,-3.07,-3.08,-3.07
337.52,-5.07,-2.02,-5.07,-2.02,2.02,1.92,1.15,-3.05,-3.05,-3.05
340.90,-5.17,-2.15,-5.17,-2.15,2.15,2.03,1.20,-3.02,-3.02,-3.02
344.30,-5.28,-2.28,-5.28,-2.28,2.28,2.14,1.25,-3.00,-3.00,-3.00
347.75,-5.38,-2.40,-5.38,-2.41,2.42,2.25,1.31,-2.96,-2.97,-2.98
351.23,-5.50,-2.55,-5.50,-2.55,2.56,2.36,1.37,-2.94,-2.94,-2.95
354.74,-5.61,-2.69,-5.61,-2.69,2.70,2.48,1.42,-2.91,-2.92,-2.92
358.28,-5.73,-2.83,-5.73,-2.84,2.83,2.59,1.48,-2.90,-2.90,-2.90
361.87,-5.85,-2.98,-5.85,-2.98,2.97,2.71,1.54,-2.88,-2.88,-2.87
365.49,-5.96,-3.12,-5.96,-3.11,3.10,2.83,1.60,-2.86,-2.86,-2.84
369.14,-6.06,-3.23,-6.06,-3.23,3.23,2.94,1.66,-2.83,-2.83,-2.83
372.83,-6.14,-3.34,-6.15,-3.34,3.34,3.06,1.73,-2.80,-2.80,-2.80
376.56,-6.23,-3.44,-6.23,-3.45,3.45,3.17,1.79,-2.78,-2.78,-2.79
380.33,-6.30,-3.55,-6.30,-3.54,3.54,3.28,1.86,-2.76,-2.76,-2.75
384.13,-6.36,-3.62,-6.36,-3.63,3.62,3.38,1.92,-2.74,-2.74,-2.74
387.97,-6.41,-3.69,-6.41,-3.69,3.69,3.48,1.99,-2.72,-2.72,-2.72
391.85,-6.45,-3.74,-6.45,-3.75,3.74,3.57,2.06,-2.71,-2.71,-2.71
395.77,-6.47,-3.79,-6.47,-3.79,3.78,3.65,2.13,-2.69,-2.69,-2.68
399.73,-6.49,-3.82,-6.48,-3.81,3.81,3.73,2.20,-2.68,-2.68,-2.67
403.72,-6.48,-3.81,-6.48,-3.82,3.81,3.79,2.26,-2.67,-2.67,-2.67
407.76,-6.47,-3.81,-6.47,-3.81,3.81,3.84,2.33,-2.66,-2.66,-2.66
411.84,-6.45,-3.80,-6.45,-3.80,3.79,3.87,2.40,-2.66,-2.66,-2.65
415.96,-6.43,-3.78,-6.43,-3.77,3.77,3.90,2.47,-2.66,-2.66,-2.65
420.12,-6.39,-3.74,-6.39,-3.73,3.73,3.91,2.53,-2.66,-2.65,-2.65
424.32,-6.34,-3.69,-6.34,-3.69,3.69,3.90,2.60,-2.65,-2.65,-2.65
428.56,-6.29,-3.63,-6.29,-3.64,3.64,3.88,2.66,-2.65,-2.65,-2.66
432.85,-6.25,-3.58,-6.25,-3.59,3.59,3.85,2.72,-2.66,-2.66,-2.67
437.18,-6.20,-3.53,-6.20,-3.53,3.53,3.80,2.78,-2.67,-2.67,-2.67
441.55,-6.15,-3.48,-6.15,-3.48,3.48,3.74,2.84,-2.67,-2.67,-2.67
445.96,-6.09,-3.41,-6.09,-3.42,3.42,3.67,2.89,-2.67,-2.67,-2.68
450.42,-6.03,-3.35,-6.03,-3.35,3.36,3.59,2.94,-2.67,-2.67,-2.68
454.93,-5.97,-3.29,-5.97,-3.29,3.30,3.50,2.98,-2.67,-2.67,-2.68
