frequency,raw
20.00,4.24
20.20,4.28
20.40,4.31
20.61,4.36
20.81,4.40
21.02,4.44
21.23,4.48
21.44,4.52
21.66,4.56
21.87,4.60
22.09,4.65
22.31,4.69
22.54,4.72
22.76,4.76
22.99,4.78
23.22,4.80
23.45,4.82
23.69,4.82
23.92,4.81
24.16,4.80
24.40,4.78
24.65,4.76
24.89,4.74
25.14,4.71
25.39,4.69
25.65,4.66
25.91,4.62
26.16,4.59
26.43,4.56
26.69,4.52
26.96,4.49
27.23,4.48
27.50,4.46
27.77,4.48
28.05,4.52
28.33,4.58
28.62,4.68
28.90,4.79
29.19,4.92
29.48,5.08
29.78,5.22
30.08,5.36
30.38,5.48
30.68,5.59
30.99,5.67
31.30,5.72
31.61,5.74
31.93,5.75
32.24,5.73
32.57,5.71
32.89,5.67
33.22,5.62
33.55,5.56
33.89,5.48
34.23,5.41
34.57,5.33
34.92,5.24
35.27,5.16
35.62,5.09
35.97,5.04
36.33,5.02
36.70,4.99
37.06,5.00
37.43,5.01
37.81,5.02
38.19,5.04
38.57,5.06
38.95,5.08
39.34,5.09
39.74,5.09
40.14,5.09
40.54,5.08
40.94,5.08
41.35,5.07
41.76,5.06
42.18,5.05
42.60,5.03
43.03,5.02
43.46,5.01
43.90,5.01
44.33,4.99
44.78,4.97
45.23,4.96
45.68,4.93
46.13,4.90
46.60,4.85
47.06,4.79
47.53,4.72
48.01,4.63
48.49,4.53
48.97,4.43
49.46,4.32
49.96,4.23
50.46,4.16
50.96,4.11
51.47,4.11
51.99,4.15
52.51,4.26
53.03,4.46
53.56,4.71
54.10,5.03
54.64,5.41
55.18,5.82
55.74,6.27
56.29,6.72
56.86,7.17
57.42,7.61
58.00,8.02
58.58,8.39
59.16,8.76
59.76,9.07
60.35,9.38
60.96,9.65
61.57,9.91
62.18,10.14
62.80,10.35
63.43,10.53
64.07,10.68
64.71,10.82
65.35,10.93
66.01,11.01
66.67,11.08
67.33,11.14
68.01,11.16
68.69,11.17
69.37,11.16
70.07,11.15
70.77,11.12
71.48,11.09
72.19,11.04
72.91,11.00
73.64,10.95
74.38,10.89
75.12,10.85
75.87,10.79
76.63,10.73
77.40,10.67
78.17,10.60
78.95,10.54
79.74,10.46
80.54,10.38
81.35,10.30
82.16,10.21
82.98,10.11
83.81,10.01
84.65,9.90
85.50,9.79
86.35,9.68
87.22,9.56
88.09,9.44
88.97,9.31
89.86,9.18
90.76,9.06
91.66,8.93
92.58,8.80
93.51,8.68
94.44,8.56
95.39,8.45
96.34,8.33
97.30,8.21
98.28,8.10
99.26,7.98
100.25,7.86
101.25,7.73
102.27,7.60
103.29,7.47
104.32,7.35
105.37,7.22
106.42,7.08
107.48,6.96
108.56,6.83
109.64,6.71
110.74,6.58
111.85,6.45
112.97,6.33
114.10,6.19
115.24,6.07
116.39,5.95
117.55,5.82
118.73,5.69
119.92,5.57
121.12,5.45
122.33,5.33
123.55,5.22
124.79,5.10
126.03,4.99
127.29,4.88
128.57,4.76
129.85,4.66
131.15,4.53
132.46,4.42
133.79,4.30
135.12,4.17
136.48,4.05
137.84,3.92
139.22,3.80
140.61,3.67
142.02,3.55
143.44,3.41
144.87,3.29
146.32,3.17
147.78,3.04
149.26,2.93
150.75,2.81
152.26,2.70
153.78,2.59
155.32,2.48
156.88,2.38
158.44,2.27
160.03,2.16
161.63,2.04
163.24,1.92
164.88,1.80
166.53,1.67
168.19,1.52
169.87,1.37
171.57,1.21
173.29,1.04
175.02,0.88
176.77,0.71
178.54,0.54
180.32,0.37
182.13,0.20
183.95,0.01
185.79,-0.18
187.65,-0.38
189.52,-0.62
191.42,-0.87
193.33,-1.15
195.27,-1.46
197.22,-1.81
199.19,-2.16
201.18,-2.54
203.19,-2.93
205.23,-3.32
207.28,-3.70
209.35,-4.07
211.44,-4.39
213.56,-4.70
215.69,-4.94
217.85,-5.14
220.03,-5.29
222.23,-5.36
224.45,-5.38
226.70,-5.37
228.96,-5.29
231.25,-5.18
233.57,-5.04
235.90,-4.88
238.26,-4.70
240.64,-4.53
243.05,-4.34
245.48,-4.17
247.93,-4.00
250.41,-3.83
252.92,-3.67
255.45,-3.52
258.00,-3.37
260.58,-3.23
263.19,-3.12
265.82,-3.00
268.48,-2.91
271.16,-2.84
273.87,-2.79
276.61,-2.74
279.38,-2.70
282.17,-2.68
284.99,-2.66
287.84,-2.65
290.72,-2.63
293.63,-2.63
296.57,-2.63
299.53,-2.63
302.53,-2.64
305.55,-2.65
308.61,-2.65
311.69,-2.66
314.81,-2.67
317.96,-2.69
321.14,-2.70
324.35,-2.71
327.59,-2.72
330.87,-2.73
334.18,-2.75
337.52,-2.75
340.90,-2.77
344.30,-2.78
347.75,-2.80
351.23,-2.81
354.74,-2.84
358.28,-2.86
361.87,-2.88
365.49,-2.90
369.14,-2.92
372.83,-2.94
376.56,-2.95
380.33,-2.97
384.13,-2.97
387.97,-2.99
391.85,-3.00
395.77,-3.01
399.73,-3.02
403.72,-3.03
407.76,-3.04
411.84,-3.05
415.96,-3.05
420.12,-3.07
424.32,-3.07
428.56,-3.08
432.85,-3.09
437.18,-3.10
441.55,-3.10
445.96,-3.11
450.42,-3.11
454.93,-3.12
459.48,-3.12
464.07,-3.13
468.71,-3.13
473.40,-3.14
478.13,-3.15
482.91,-3.16
487.74,-3.17
492.62,-3.18
497.55,-3.19
502.52,-3.21
507.55,-3.23
512.62,-3.24
517.75,-3.25
522.93,-3.27
528.16,-3.28
533.44,-3.29
538.77,-3.31
544.16,-3.31
549.60,-3.31
555.10,-3.32
560.65,-3.31
566.25,-3.30
571.92,-3.28
577.64,-3.28
583.41,-3.25
589.25,-3.22
595.14,-3.20
601.09,-3.17
607.10,-3.13
613.17,-3.10
619.30,-3.06
625.50,-3.02
631.75,-2.98
638.07,-2.93
644.45,-2.89
650.89,-2.84
657.40,-2.79
663.98,-2.74
670.62,-2.68
677.32,-2.62
684.10,-2.56
690.94,-2.50
697.85,-2.43
704.83,-2.36
711.87,-2.29
718.99,-2.22
726.18,-2.16
733.44,-2.08
740.78,-2.01
748.19,-1.93
755.67,-1.85
763.23,-1.78
770.86,-1.70
778.57,-1.63
786.35,-1.55
794.22,-1.47
802.16,-1.40
810.18,-1.33
818.28,-1.25
826.46,-1.19
834.73,-1.12
843.08,-1.05
851.51,-0.98
860.02,-0.91
868.62,-0.84
877.31,-0.78
886.08,-0.72
894.94,-0.66
903.89,-0.60
912.93,-0.56
922.06,-0.50
931.28,-0.46
940.59,-0.41
950.00,-0.36
959.50,-0.32
969.09,-0.25
978.78,-0.18
988.57,-0.10
998.46,-0.01
1008.44,0.08
1018.53,0.19
1028.71,0.30
1039.00,0.42
1049.39,0.55
1059.88,0.68
1070.48,0.82
1081.19,0.96
1092.00,1.11
1102.92,1.27
1113.95,1.42
1125.09,1.59
1136.34,1.75
1147.70,1.92
1159.18,2.09
1170.77,2.26
1182.48,2.44
1194.30,2.63
1206.25,2.81
1218.31,3.00
1230.49,3.17
1242.80,3.36
1255.22,3.56
1267.78,3.75
1280.45,3.94
1293.26,4.14
1306.19,4.33
1319.25,4.53
1332.45,4.74
1345.77,4.93
1359.23,5.14
1372.82,5.35
1386.55,5.55
1400.41,5.76
1414.42,5.96
1428.56,6.17
1442.85,6.38
1457.28,6.59
1471.85,6.80
1486.57,7.01
1501.43,7.22
1516.45,7.43
1531.61,7.64
1546.93,7.85
1562.40,8.06
1578.02,8.27
1593.80,8.48
1609.74,8.68
1625.84,8.88
1642.10,9.08
1658.52,9.27
1675.10,9.46
1691.85,9.64
1708.77,9.83
1725.86,10.01
1743.12,10.19
1760.55,10.36
1778.15,10.53
1795.94,10.69
1813.90,10.86
1832.03,11.00
1850.36,11.16
1868.86,11.30
1887.55,11.43
1906.42,11.56
1925.49,11.68
1944.74,11.80
1964.19,11.90
1983.83,11.99
2003.67,12.08
2023.71,12.17
2043.94,12.25
2064.38,12.32
2085.03,12.38
2105.88,12.44
2126.94,12.49
2148.20,12.54
2169.69,12.59
2191.38,12.63
2213.30,12.67
2235.43,12.70
2257.78,12.74
2280.36,12.77
2303.17,12.79
2326.20,12.82
2349.46,12.84
2372.95,12.86
2396.68,12.88
2420.65,12.89
2444.86,12.91
2469.31,12.92
2494.00,12.95
2518.94,12.96
2544.13,12.99
2569.57,13.01
2595.27,13.05
2621.22,13.10
2647.43,13.14
2673.90,13.18
2700.64,13.24
2727.65,13.29
2754.93,13.35
2782.48,13.42
2810.30,13.48
2838.40,13.54
2866.79,13.61
2895.46,13.67
2924.41,13.73
2953.65,13.79
2983.19,13.84
3013.02,13.89
3043.15,13.94
3073.58,13.98
3104.32,14.01
3135.36,14.03
3166.72,14.04
3198.38,14.05
3230.37,14.04
3262.67,14.02
3295.30,13.99
3328.25,13.95
3361.53,13.89
3395.15,13.83
3429.10,13.76
3463.39,13.68
3498.03,13.59
3533.01,13.50
3568.34,13.41
3604.02,13.32
3640.06,13.23
3676.46,13.14
3713.22,13.06
3750.36,12.98
3787.86,12.91
3825.74,12.84
3864.00,12.79
3902.64,12.73
3941.66,12.67
3981.08,12.62
4020.89,12.55
4061.10,12.49
4101.71,12.40
4142.73,12.31
4184.15,12.20
4226.00,12.06
4268.26,11.92
4310.94,11.77
4354.05,11.60
4397.59,11.44
4441.56,11.27
4485.98,11.10
4530.84,10.93
4576.15,10.77
4621.91,10.62
4668.13,10.47
4714.81,10.34
4761.96,10.21
4809.58,10.11
4857.67,10.02
4906.25,9.94
4955.31,9.88
5004.87,9.83
5054.91,9.75
5105.46,9.65
5156.52,9.51
5208.08,9.31
5260.16,9.05
5312.77,8.72
5365.89,8.35
5419.55,7.94
5473.75,7.51
5528.49,7.09
5583.77,6.66
5639.61,6.28
5696.00,5.94
5752.96,5.61
5810.49,5.35
5868.60,5.12
5927.28,4.91
5986.56,4.74
6046.42,4.58
6106.89,4.46
6167.96,4.35
6229.64,4.29
6291.93,4.25
6354.85,4.24
6418.40,4.27
6482.58,4.33
6547.41,4.40
6612.88,4.50
6679.01,4.61
6745.80,4.71
6813.26,4.81
6881.39,4.90
6950.21,4.97
7019.71,5.05
7089.91,5.13
7160.81,5.21
7232.41,5.31
7304.74,5.43
7377.79,5.55
7451.56,5.71
7526.08,5.90
7601.34,6.11
7677.35,6.32
7754.13,6.59
7831.67,6.87
7909.98,7.17
7989.08,7.49
8068.98,7.84
8149.67,8.17
8231.16,8.51
8313.47,8.81
8396.61,9.08
8480.57,9.33
8565.38,9.49
8651.03,9.62
8737.54,9.70
8824.92,9.73
8913.17,9.75
9002.30,9.75
9092.32,9.76
9183.25,9.79
9275.08,9.83
9367.83,9.91
9461.51,9.99
9556.12,10.05
9651.68,10.10
9748.20,10.04
9845.68,9.89
9944.14,9.62
10043.58,9.11
10144.02,8.47
10245.46,7.70
10347.91,6.77
10451.39,5.80
10555.91,4.85
10661.46,3.95
10768.08,3.18
10875.76,2.51
10984.52,2.02
11094.36,1.67
11205.31,1.41
11317.36,1.26
11430.53,1.17
11544.84,1.09
11660.29,1.01
11776.89,0.94
11894.66,0.87
12013.60,0.79
12133.74,0.73
12255.08,0.69
12377.63,0.67
12501.41,0.69
12626.42,0.77
12752.68,0.90
12880.21,1.11
13009.01,1.41
13139.10,1.80
13270.49,2.26
13403.20,2.86
13537.23,3.51
13672.60,4.20
13809.33,4.90
13947.42,5.58
14086.90,6.20
14227.77,6.70
14370.04,7.08
14513.74,7.37
14658.88,7.52
14805.47,7.59
14953.52,7.60
15103.06,7.57
15254.09,7.51
15406.63,7.40
15560.70,7.24
15716.30,6.89
15873.47,6.37
16032.20,5.67
16192.52,4.51
16354.45,2.95
16517.99,1.06
16683.17,-1.15
16850.01,-3.34
17018.51,-5.40
17188.69,-7.16
17360.58,-8.32
17534.18,-9.08
17709.53,-9.33
17886.62,-9.05
18065.49,-8.58
18246.14,-7.93
18428.60,-7.30
18612.89,-6.89
18799.02,-6.71
18987.01,-7.08
19176.88,-7.96
19368.65,-9.32
19562.33,-11.51
19757.96,-14.55
19955.54,-18.19
