frequency,raw,error,smoothed,error_smoothed,equalization,parametric_eq,fixed_band_eq,equalized_raw,equalized_smoothed,target
20.00,-10.24,-14.31,-10.19,-14.28,6.00,4.02,3.02,-4.24,-4.19,4.07
20.20,-10.15,-14.26,-10.12,-14.23,6.00,4.11,3.11,-4.15,-4.12,4.11
20.40,-10.06,-14.20,-10.04,-14.19,6.00,4.20,3.19,-4.06,-4.04,4.14
20.61,-9.96,-14.13,-9.96,-14.13,6.00,4.30,3.28,-3.96,-3.96,4.17
20.81,-9.87,-14.08,-9.88,-14.08,6.00,4.40,3.38,-3.87,-3.88,4.21
21.02,-9.78,-14.03,-9.80,-14.02,6.00,4.50,3.47,-3.78,-3.80,4.25
21.23,-9.68,-13.94,-9.72,-13.96,6.00,4.60,3.57,-3.68,-3.72,4.26
21.44,-9.58,-13.86,-9.63,-13.90,6.00,4.70,3.67,-3.58,-3.63,4.28
21.66,-9.49,-13.79,-9.55,-13.83,6.00,4.80,3.77,-3.49,-3.55,4.30
21.87,-9.39,-13.70,-9.46,-13.76,6.00,4.91,3.88,-3.39,-3.46,4.31
22.09,-9.30,-13.63,-9.37,-13.69,6.00,5.01,3.99,-3.30,-3.37,4.33
22.31,-9.24,-13.57,-9.28,-13.61,6.00,5.12,4.10,-3.24,-3.28,4.33
22.54,-9.18,-13.52,-9.20,-13.54,6.00,5.23,4.22,-3.18,-3.20,4.34
22.76,-9.12,-13.47,-9.11,-13.46,6.00,5.33,4.34,-3.12,-3.11,4.35
22.99,-9.06,-13.41,-9.02,-13.38,6.00,5.44,4.46,-3.06,-3.02,4.35
23.22,-8.97,-13.33,-8.92,-13.29,6.00,5.54,4.58,-2.97,-2.92,4.36
23.45,-8.87,-13.24,-8.82,-13.19,6.00,5.65,4.71,-2.87,-2.82,4.37
23.69,-8.78,-13.16,-8.72,-13.09,6.00,5.76,4.84,-2.78,-2.72,4.38
23.92,-8.68,-13.06,-8.61,-12.99,6.00,5.86,4.97,-2.68,-2.61,4.39
24.16,-8.54,-12.93,-8.50,-12.88,6.00,5.96,5.11,-2.54,-2.50,4.39
24.40,-8.38,-12.78,-8.38,-12.77,6.00,6.06,5.24,-2.38,-2.38,4.40
24.65,-8.23,-12.63,-8.27,-12.66,6.00,6.16,5.38,-2.23,-2.27,4.39
24.89,-8.07,-12.46,-8.15,-12.54,6.00,6.26,5.53,-2.07,-2.15,4.39
25.14,-7.95,-12.34,-8.03,-12.43,6.00,6.35,5.67,-1.95,-2.03,4.39
25.39,-7.86,-12.25,-7.91,-12.31,6.00,6.44,5.81,-1.86,-1.91,4.39
25.65,-7.77,-12.16,-7.79,-12.19,6.00,6.53,5.96,-1.77,-1.79,4.39
25.91,-7.68,-12.06,-7.68,-12.07,6.00,6.61,6.10,-1.68,-1.68,4.38
26.16,-7.59,-11.98,-7.57,-11.96,6.00,6.69,6.25,-1.59,-1.57,4.39
26.43,-7.49,-11.88,-7.47,-11.86,6.00,6.76,6.39,-1.49,-1.47,4.39
26.69,-7.39,-11.78,-7.37,-11.76,6.00,6.83,6.54,-1.39,-1.37,4.39
26.96,-7.30,-11.69,-7.28,-11.67,6.00,6.89,6.68,-1.30,-1.28,4.39
27.23,-7.18,-11.57,-7.19,-11.57,6.00,6.94,6.82,-1.18,-1.19,4.39
27.50,-7.06,-11.45,-7.08,-11.47,6.00,6.99,6.95,-1.06,-1.08,4.39
27.77,-6.94,-11.32,-6.98,-11.36,6.00,7.03,7.08,-0.94,-0.98,4.38
28.05,-6.83,-11.21,-6.86,-11.24,6.00,7.07,7.21,-0.83,-0.86,4.38
28.33,-6.76,-11.13,-6.75,-11.13,6.00,7.09,7.32,-0.76,-0.75,4.36
28.62,-6.69,-11.07,-6.64,-11.01,6.00,7.11,7.43,-0.69,-0.64,4.37
28.90,-6.62,-10.99,-6.52,-10.89,6.00,7.12,7.54,-0.62,-0.52,4.37
29.19,-6.47,-10.83,-6.39,-10.76,6.00,7.13,7.63,-0.47,-0.39,4.36
29.48,-6.28,-10.65,-6.27,-10.64,6.00,7.13,7.71,-0.28,-0.27,4.37
29.78,-6.09,-10.46,-6.14,-10.51,6.00,7.12,7.78,-0.09,-0.14,4.37
30.08,-5.92,-10.29,-6.02,-10.38,6.00,7.10,7.83,0.08,-0.02,4.37
30.38,-5.85,-10.21,-5.89,-10.25,6.00,7.07,7.87,0.15,0.11,4.36
30.68,-5.77,-10.13,-5.77,-10.12,6.00,7.04,7.90,0.23,0.23,4.36
30.99,-5.69,-10.04,-5.66,-10.00,6.00,7.00,7.92,0.31,0.34,4.35
31.30,-5.55,-9.90,-5.54,-9.89,6.00,6.96,7.91,0.45,0.46,4.34
31.61,-5.41,-9.76,-5.43,-9.77,6.00,6.91,7.90,0.59,0.57,4.34
31.93,-5.26,-9.60,-5.33,-9.67,6.00,6.86,7.87,0.74,0.67,4.33
32.24,-5.17,-9.49,-5.23,-9.56,6.00,6.80,7.83,0.83,0.77,4.32
32.57,-5.10,-9.42,-5.14,-9.47,6.00,6.74,7.77,0.90,0.86,4.32
32.89,-5.02,-9.34,-5.04,-9.36,6.00,6.68,7.70,0.98,0.96,4.32
33.22,-4.95,-9.27,-4.94,-9.25,6.00,6.61,7.61,1.05,1.06,4.32
33.55,-4.87,-9.19,-4.83,-9.14,6.00,6.54,7.52,1.13,1.17,4.31
33.89,-4.80,-9.11,-4.71,-9.02,6.00,6.47,7.41,1.20,1.29,4.31
34.23,-4.68,-8.99,-4.59,-8.90,6.00,6.40,7.30,1.32,1.41,4.31
34.57,-4.55,-8.85,-4.48,-8.78,6.00,6.33,7.18,1.45,1.52,4.30
34.92,-4.41,-8.71,-4.36,-8.66,6.00,6.26,7.05,1.59,1.64,4.30
35.27,-4.24,-8.54,-4.25,-8.54,6.00,6.19,6.91,1.76,1.75,4.30
35.62,-4.06,-8.35,-4.12,-8.41,6.00,6.12,6.77,1.94,1.88,4.28
35.97,-3.88,-8.16,-3.99,-8.28,6.00,6.05,6.63,2.12,2.01,4.28
36.33,-3.78,-8.06,-3.87,-8.15,6.00,5.99,6.48,2.22,2.13,4.28
36.70,-3.69,-7.97,-3.74,-8.01,6.00,5.93,6.33,2.31,2.26,4.28
37.06,-3.59,-7.86,-3.61,-7.88,6.00,5.87,6.18,2.41,2.39,4.27
37.43,-3.50,-7.76,-3.48,-7.74,6.00,5.82,6.03,2.50,2.52,4.26
37.81,-3.41,-7.67,-3.34,-7.60,6.00,5.77,5.88,2.59,2.66,4.26
38.19,-3.28,-7.53,-3.22,-7.47,6.00,5.73,5.72,2.72,2.78,4.25
38.57,-3.13,-7.38,-3.10,-7.34,6.00,5.70,5.57,2.87,2.90,4.24
38.95,-2.97,-7.21,-2.98,-7.22,6.00,5.67,5.42,3.03,3.02,4.24
39.34,-2.86,-7.09,-2.87,-7.11,6.00,5.64,5.27,3.14,3.13,4.23
39.74,-2.76,-6.98,-2.75,-6.98,6.00,5.62,5.13,3.24,3.25,4.22
40.14,-2.63,-6.86,-2.62,-6.85,6.00,5.61,4.98,3.37,3.38,4.22
40.54,-2.46,-6.68,-2.49,-6.71,6.00,5.60,4.84,3.54,3.51,4.22
40.94,-2.29,-6.51,-2.36,-6.56,6.00,5.60,4.69,3.71,3.64,4.22
41.35,-2.21,-6.41,-2.23,-6.43,6.00,5.60,4.56,3.79,3.77,4.20
41.76,-2.13,-6.32,-2.11,-6.29,5.98,5.61,4.42,3.85,3.87,4.19
42.18,-2.04,-6.22,-2.00,-6.16,5.94,5.62,4.29,3.90,3.94,4.17
42.60,-1.92,-6.07,-1.88,-6.02,5.88,5.63,4.16,3.96,4.00,4.15
43.03,-1.80,-5.94,-1.76,-5.88,5.79,5.63,4.03,3.99,4.03,4.14
43.46,-1.60,-5.71,-1.65,-5.74,5.69,5.63,3.90,4.09,4.04,4.11
43.90,-1.41,-5.48,-1.53,-5.60,5.58,5.62,3.78,4.17,4.05,4.07
44.33,-1.36,-5.40,-1.43,-5.47,5.47,5.60,3.66,4.10,4.04,4.04
44.78,-1.36,-5.37,-1.32,-5.34,5.34,5.57,3.54,3.98,4.02,4.01
45.23,-1.29,-5.27,-1.22,-5.22,5.22,5.51,3.43,3.92,4.00,3.98
45.68,-1.16,-5.12,-1.11,-5.08,5.08,5.44,3.32,3.92,3.98,3.96
46.13,-1.01,-4.95,-0.99,-4.95,4.95,5.35,3.21,3.94,3.96,3.94
46.60,-0.83,-4.77,-0.87,-4.81,4.81,5.24,3.10,3.98,3.94,3.94
47.06,-0.67,-4.59,-0.76,-4.68,4.68,5.11,3.00,4.01,3.93,3.92
47.53,-0.65,-4.57,-0.65,-4.57,4.57,4.96,2.90,3.92,3.92,3.91
48.01,-0.63,-4.55,-0.54,-4.45,4.45,4.80,2.80,3.82,3.92,3.92
48.49,-0.47,-4.38,-0.43,-4.34,4.34,4.62,2.71,3.87,3.91,3.91
48.97,-0.32,-4.22,-0.31,-4.22,4.22,4.44,2.61,3.90,3.91,3.90
49.46,-0.16,-4.06,-0.18,-4.10,4.10,4.25,2.52,3.94,3.92,3.90
49.96,-0.00,-3.90,-0.05,-3.96,3.96,4.05,2.43,3.96,3.92,3.90
50.46,0.12,-3.79,0.08,-3.84,3.84,3.86,2.34,3.95,3.91,3.91
50.96,0.23,-3.70,0.19,-3.72,3.72,3.66,2.26,3.95,3.91,3.92
51.47,0.29,-3.63,0.31,-3.60,3.60,3.47,2.18,3.89,3.90,3.92
51.99,0.34,-3.57,0.43,-3.46,3.46,3.28,2.10,3.80,3.89,3.91
52.51,0.52,-3.38,0.55,-3.33,3.33,3.10,2.02,3.84,3.88,3.90
53.03,0.71,-3.17,0.68,-3.18,3.18,2.92,1.94,3.89,3.86,3.88
53.56,0.82,-3.03,0.79,-3.04,3.04,2.74,1.86,3.86,3.83,3.85
54.10,0.94,-2.87,0.91,-2.90,2.90,2.58,1.79,3.83,3.80,3.81
54.64,1.07,-2.70,1.02,-2.75,2.75,2.41,1.72,3.81,3.77,3.77
55.18,1.15,-2.58,1.13,-2.60,2.60,2.26,1.65,3.75,3.73,3.73
55.74,1.15,-2.53,1.24,-2.45,2.45,2.10,1.58,3.60,3.69,3.68
56.29,1.29,-2.35,1.34,-2.29,2.29,1.96,1.52,3.58,3.64,3.64
56.86,1.54,-2.05,1.45,-2.14,2.14,1.82,1.45,3.67,3.59,3.59
57.42,1.61,-1.92,1.56,-1.97,1.97,1.68,1.39,3.58,3.53,3.52
58.00,1.61,-1.86,1.66,-1.82,1.82,1.55,1.33,3.43,3.48,3.47
58.58,1.74,-1.68,1.75,-1.67,1.67,1.42,1.26,3.41,3.42,3.42
59.16,1.88,-1.50,1.85,-1.52,1.52,1.30,1.21,3.40,3.37,3.38
59.76,2.01,-1.32,1.95,-1.36,1.36,1.17,1.15,3.37,3.31,3.32
60.35,2.06,-1.20,2.05,-1.21,1.21,1.06,1.09,3.27,3.26,3.26
60.96,2.06,-1.16,2.15,-1.06,1.06,0.94,1.04,3.12,3.21,3.21
61.57,2.19,-0.96,2.25,-0.90,0.90,0.83,0.98,3.09,3.16,3.15
62.18,2.33,-0.76,2.36,-0.75,0.75,0.72,0.93,3.08,3.11,3.09
62.80,2.48,-0.58,2.44,-0.62,0.62,0.61,0.88,3.10,3.06,3.06
63.43,2.56,-0.45,2.54,-0.48,0.48,0.51,0.83,3.04,3.02,3.01
64.07,2.63,-0.35,2.64,-0.34,0.34,0.40,0.78,2.97,2.98,2.97
64.71,2.75,-0.19,2.73,-0.21,0.21,0.30,0.73,2.96,2.94,2.94
65.35,2.86,-0.04,2.82,-0.09,0.09,0.20,0.69,2.95,2.91,2.90
66.01,2.97,0.10,2.91,0.03,-0.03,0.11,0.64,2.94,2.87,2.87
66.67,2.97,0.13,2.99,0.14,-0.14,0.01,0.60,2.82,2.85,2.84
67.33,3.05,0.23,3.08,0.26,-0.26,-0.09,0.55,2.79,2.82,2.82
68.01,3.20,0.40,3.18,0.38,-0.38,-0.18,0.51,2.82,2.80,2.80
68.69,3.22,0.44,3.25,0.47,-0.47,-0.27,0.47,2.74,2.78,2.78
69.37,3.31,0.55,3.33,0.57,-0.57,-0.36,0.42,2.74,2.76,2.76
70.07,3.43,0.69,3.40,0.66,-0.66,-0.45,0.38,2.77,2.74,2.74
70.77,3.43,0.69,3.48,0.76,-0.76,-0.54,0.34,2.67,2.72,2.74
71.48,3.54,0.83,3.56,0.86,-0.86,-0.63,0.30,2.68,2.70,2.71
72.19,3.66,0.96,3.63,0.94,-0.94,-0.71,0.26,2.72,2.69,2.70
72.91,3.66,0.98,3.69,1.02,-1.02,-0.80,0.22,2.64,2.67,2.67
73.64,3.81,1.15,3.76,1.10,-1.10,-0.88,0.18,2.70,2.65,2.66
74.38,3.89,1.24,3.82,1.19,-1.19,-0.96,0.14,2.70,2.63,2.64
75.12,3.89,1.27,3.88,1.27,-1.27,-1.04,0.10,2.62,2.62,2.62
75.87,3.89,1.29,3.94,1.34,-1.34,-1.11,0.06,2.55,2.60,2.60
76.63,4.00,1.41,4.00,1.41,-1.41,-1.19,0.02,2.59,2.59,2.58
77.40,4.09,1.51,4.05,1.48,-1.48,-1.26,-0.03,2.61,2.58,2.58
78.17,4.11,1.55,4.10,1.53,-1.53,-1.33,-0.07,2.58,2.57,2.56
78.95,4.11,1.55,4.14,1.58,-1.58,-1.40,-0.11,2.53,2.56,2.56
79.74,4.11,1.55,4.17,1.61,-1.61,-1.46,-0.15,2.49,2.56,2.56
80.54,4.19,1.64,4.20,1.64,-1.64,-1.52,-0.19,2.54,2.56,2.55
81.35,4.29,1.74,4.23,1.67,-1.67,-1.58,-0.23,2.62,2.56,2.55
82.16,4.34,1.78,4.26,1.70,-1.70,-1.64,-0.28,2.64,2.57,2.56
82.98,4.34,1.76,4.29,1.72,-1.72,-1.69,-0.32,2.62,2.58,2.58
83.81,4.34,1.75,4.33,1.74,-1.74,-1.74,-0.36,2.60,2.59,2.58
84.65,4.34,1.75,4.36,1.76,-1.76,-1.78,-0.41,2.58,2.60,2.59
85.50,4.34,1.72,4.39,1.77,-1.77,-1.83,-0.45,2.56,2.62,2.62
86.35,4.34,1.71,4.43,1.79,-1.79,-1.86,-0.50,2.55,2.63,2.63
87.22,4.35,1.70,4.46,1.81,-1.81,-1.90,-0.54,2.54,2.65,2.65
88.09,4.41,1.74,4.48,1.81,-1.81,-1.93,-0.59,2.59,2.67,2.66
88.97,4.56,1.86,4.50,1.81,-1.81,-1.95,-0.64,2.75,2.69,2.70
89.86,4.57,1.86,4.50,1.80,-1.80,-1.97,-0.68,2.77,2.70,2.71
90.76,4.57,1.85,4.50,1.79,-1.79,-1.99,-0.73,2.78,2.72,2.72
91.66,4.57,1.83,4.50,1.77,-1.77,-2.00,-0.78,2.79,2.73,2.74
92.58,4.57,1.84,4.50,1.76,-1.76,-2.01,-0.83,2.81,2.74,2.73
93.51,4.57,1.81,4.50,1.75,-1.75,-2.01,-0.88,2.82,2.75,2.76
94.44,4.57,1.81,4.49,1.74,-1.74,-2.01,-0.93,2.83,2.75,2.76
95.39,4.47,1.71,4.48,1.73,-1.73,-2.01,-0.98,2.74,2.75,2.76
96.34,4.34,1.60,4.47,1.72,-1.72,-2.00,-1.04,2.62,2.75,2.74
97.30,4.34,1.59,4.44,1.69,-1.69,-1.99,-1.09,2.64,2.75,2.74
98.28,4.34,1.60,4.41,1.67,-1.67,-1.98,-1.14,2.67,2.74,2.74
99.26,4.34,1.61,4.38,1.64,-1.64,-1.96,-1.19,2.69,2.73,2.73
100.25,4.34,1.62,4.35,1.63,-1.63,-1.94,-1.24,2.71,2.72,2.72
101.25,4.34,1.64,4.32,1.62,-1.62,-1.91,-1.30,2.72,2.70,2.70
102.27,4.34,1.66,4.30,1.62,-1.62,-1.89,-1.35,2.71,2.68,2.68
103.29,4.34,1.69,4.28,1.63,-1.63,-1.86,-1.40,2.71,2.65,2.65
104.32,4.34,1.71,4.26,1.65,-1.65,-1.83,-1.45,2.69,2.62,2.63
105.37,4.28,1.68,4.25,1.66,-1.66,-1.80,-1.50,2.62,2.58,2.60
106.42,4.15,1.59,4.23,1.68,-1.68,-1.76,-1.55,2.47,2.54,2.56
107.48,4.11,1.60,4.20,1.69,-1.69,-1.73,-1.60,2.41,2.50,2.51
108.56,4.11,1.66,4.15,1.70,-1.70,-1.69,-1.65,2.41,2.45,2.45
109.64,4.11,1.71,4.11,1.71,-1.71,-1.65,-1.69,2.40,2.40,2.40
110.74,4.11,1.75,4.07,1.72,-1.72,-1.61,-1.73,2.39,2.35,2.35
111.85,4.11,1.80,4.02,1.72,-1.72,-1.57,-1.77,2.39,2.29,2.31
112.97,4.09,1.85,3.97,1.73,-1.73,-1.53,-1.81,2.36,2.24,2.24
114.10,3.89,1.70,3.92,1.73,-1.73,-1.49,-1.85,2.16,2.19,2.19
115.24,3.86,1.73,3.86,1.73,-1.73,-1.45,-1.88,2.13,2.14,2.13
116.39,3.73,1.66,3.82,1.73,-1.73,-1.41,-1.91,2.00,2.09,2.07
117.55,3.66,1.63,3.76,1.72,-1.72,-1.36,-1.93,1.94,2.04,2.02
118.73,3.66,1.68,3.70,1.70,-1.70,-1.32,-1.95,1.96,2.00,1.98
119.92,3.66,1.71,3.64,1.67,-1.67,-1.28,-1.97,1.99,1.96,1.95
121.12,3.65,1.74,3.57,1.64,-1.64,-1.24,-1.98,2.01,1.93,1.91
122.33,3.51,1.62,3.50,1.59,-1.59,-1.20,-1.99,1.91,1.90,1.89
123.55,3.43,1.55,3.43,1.55,-1.55,-1.16,-1.99,1.88,1.88,1.88
124.79,3.43,1.57,3.36,1.50,-1.50,-1.12,-1.99,1.93,1.85,1.86
126.03,3.28,1.44,3.28,1.45,-1.45,-1.08,-1.99,1.83,1.83,1.84
127.29,3.23,1.40,3.22,1.40,-1.40,-1.04,-1.98,1.83,1.82,1.83
128.57,3.15,1.35,3.15,1.35,-1.35,-1.00,-1.96,1.80,1.80,1.80
129.85,2.99,1.20,3.07,1.29,-1.29,-0.96,-1.94,1.70,1.78,1.79
131.15,2.97,1.19,2.99,1.22,-1.22,-0.92,-1.92,1.75,1.77,1.78
132.46,2.97,1.22,2.90,1.15,-1.15,-0.88,-1.89,1.82,1.75,1.75
133.79,2.84,1.10,2.82,1.09,-1.09,-0.85,-1.86,1.75,1.73,1.74
135.12,2.74,1.03,2.75,1.03,-1.03,-0.81,-1.82,1.70,1.72,1.71
136.48,2.69,0.99,2.68,0.98,-0.98,-0.77,-1.78,1.71,1.70,1.70
137.84,2.54,0.86,2.61,0.94,-0.94,-0.74,-1.74,1.60,1.68,1.68
139.22,2.52,0.88,2.55,0.89,-0.89,-0.70,-1.69,1.63,1.66,1.64
140.61,2.52,0.91,2.49,0.86,-0.86,-0.67,-1.64,1.66,1.63,1.61
142.02,2.41,0.81,2.43,0.82,-0.82,-0.64,-1.59,1.58,1.60,1.60
143.44,2.32,0.75,2.37,0.80,-0.80,-0.60,-1.54,1.52,1.57,1.57
144.87,2.29,0.74,2.31,0.77,-0.77,-0.57,-1.48,1.52,1.53,1.55
146.32,2.29,0.78,2.24,0.75,-0.75,-0.54,-1.42,1.54,1.49,1.51
147.78,2.24,0.76,2.18,0.73,-0.73,-0.51,-1.36,1.50,1.45,1.48
149.26,2.12,0.69,2.12,0.72,-0.72,-0.48,-1.30,1.39,1.40,1.43
150.75,2.06,0.70,2.05,0.71,-0.71,-0.45,-1.24,1.35,1.34,1.36
152.26,2.05,0.74,1.98,0.70,-0.70,-0.42,-1.18,1.35,1.29,1.31
153.78,1.91,0.66,1.92,0.70,-0.70,-0.39,-1.11,1.21,1.23,1.24
155.32,1.85,0.69,1.85,0.68,-0.68,-0.36,-1.05,1.16,1.17,1.16
156.88,1.82,0.72,1.78,0.67,-0.67,-0.33,-0.98,1.15,1.11,1.10
158.44,1.67,0.63,1.72,0.67,-0.67,-0.30,-0.92,1.00,1.05,1.04
160.03,1.61,0.63,1.65,0.66,-0.66,-0.28,-0.85,0.95,1.00,0.97
161.63,1.61,0.68,1.59,0.64,-0.64,-0.25,-0.79,0.97,0.95,0.92
163.24,1.47,0.58,1.52,0.61,-0.61,-0.22,-0.72,0.85,0.91,0.88
164.88,1.38,0.53,1.45,0.58,-0.58,-0.20,-0.66,0.80,0.87,0.85
166.53,1.38,0.55,1.39,0.54,-0.54,-0.17,-0.59,0.84,0.85,0.82
168.19,1.38,0.57,1.32,0.49,-0.49,-0.14,-0.53,0.89,0.83,0.81
169.87,1.33,0.53,1.25,0.43,-0.43,-0.12,-0.46,0.90,0.82,0.80
171.57,1.19,0.39,1.19,0.38,-0.38,-0.09,-0.40,0.81,0.82,0.80
173.29,1.15,0.34,1.13,0.31,-0.31,-0.07,-0.33,0.84,0.82,0.81
175.02,1.15,0.31,1.06,0.23,-0.23,-0.04,-0.27,0.92,0.83,0.84
176.77,0.96,0.12,0.99,0.16,-0.16,-0.02,-0.20,0.80,0.83,0.84
178.54,0.92,0.06,0.93,0.09,-0.09,0.00,-0.14,0.83,0.84,0.85
180.32,0.85,-0.02,0.87,0.02,-0.02,0.03,-0.07,0.83,0.85,0.87
182.13,0.75,-0.14,0.81,-0.05,0.05,0.05,-0.01,0.79,0.86,0.88
183.95,0.70,-0.19,0.75,-0.12,0.12,0.08,0.05,0.81,0.86,0.89
185.79,0.70,-0.19,0.68,-0.19,0.19,0.10,0.12,0.89,0.86,0.89
187.65,0.70,-0.17,0.61,-0.25,0.25,0.12,0.18,0.95,0.86,0.87
189.52,0.52,-0.34,0.56,-0.30,0.30,0.15,0.24,0.81,0.86,0.86
191.42,0.47,-0.38,0.52,-0.33,0.33,0.17,0.30,0.80,0.85,0.85
193.33,0.47,-0.37,0.48,-0.37,0.37,0.19,0.37,0.84,0.84,0.84
195.27,0.47,-0.37,0.44,-0.39,0.39,0.22,0.43,0.86,0.83,0.83
197.22,0.47,-0.35,0.41,-0.41,0.41,0.24,0.49,0.88,0.82,0.82
199.19,0.33,-0.46,0.36,-0.44,0.44,0.26,0.55,0.77,0.81,0.79
201.18,0.24,-0.55,0.32,-0.48,0.48,0.28,0.61,0.72,0.79,0.79
203.19,0.24,-0.54,0.27,-0.51,0.51,0.31,0.67,0.75,0.78,0.78
205.23,0.24,-0.52,0.21,-0.55,0.55,0.33,0.73,0.79,0.77,0.76
207.28,0.24,-0.52,0.17,-0.59,0.59,0.35,0.79,0.83,0.75,0.76
209.35,0.24,-0.50,0.12,-0.62,0.62,0.38,0.85,0.86,0.74,0.74
211.44,0.11,-0.62,0.08,-0.66,0.66,0.40,0.90,0.76,0.73,0.72
213.56,0.02,-0.71,0.02,-0.70,0.70,0.42,0.96,0.72,0.73,0.73
215.69,0.01,-0.72,-0.03,-0.75,0.75,0.45,1.02,0.76,0.72,0.73
217.85,-0.20,-0.91,-0.09,-0.80,0.80,0.47,1.07,0.59,0.71,0.71
220.03,-0.22,-0.92,-0.14,-0.84,0.84,0.49,1.12,0.62,0.70,0.70
222.23,-0.22,-0.91,-0.18,-0.88,0.88,0.52,1.18,0.66,0.69,0.68
224.45,-0.22,-0.91,-0.23,-0.92,0.92,0.54,1.23,0.70,0.69,0.69
226.70,-0.22,-0.91,-0.28,-0.96,0.96,0.57,1.28,0.74,0.69,0.69
228.96,-0.22,-0.90,-0.31,-0.99,0.99,0.59,1.32,0.77,0.68,0.68
231.25,-0.39,-1.08,-0.34,-1.02,1.02,0.62,1.37,0.63,0.68,0.69
233.57,-0.44,-1.12,-0.37,-1.05,1.05,0.64,1.42,0.61,0.68,0.68
235.90,-0.44,-1.12,-0.39,-1.07,1.07,0.67,1.46,0.63,0.68,0.67
238.26,-0.44,-1.12,-0.41,-1.10,1.10,0.69,1.50,0.66,0.69,0.68
240.64,-0.44,-1.12,-0.44,-1.13,1.13,0.72,1.54,0.69,0.69,0.68
243.05,-0.44,-1.14,-0.46,-1.15,1.15,0.74,1.57,0.71,0.70,0.70
245.48,-0.44,-1.14,-0.48,-1.18,1.18,0.77,1.61,0.74,0.70,0.70
247.93,-0.44,-1.16,-0.50,-1.21,1.21,0.80,1.64,0.77,0.71,0.72
250.41,-0.44,-1.15,-0.52,-1.24,1.24,0.82,1.67,0.80,0.72,0.71
252.92,-0.49,-1.22,-0.55,-1.28,1.28,0.85,1.70,0.78,0.73,0.73
255.45,-0.64,-1.40,-0.57,-1.31,1.31,0.88,1.73,0.67,0.74,0.75
258.00,-0.67,-1.43,-0.59,-1.35,1.35,0.91,1.75,0.67,0.75,0.76
260.58,-0.67,-1.44,-0.62,-1.39,1.39,0.94,1.77,0.72,0.77,0.77
263.19,-0.67,-1.45,-0.65,-1.43,1.43,0.96,1.80,0.76,0.78,0.78
265.82,-0.67,-1.46,-0.68,-1.48,1.48,0.99,1.81,0.81,0.80,0.79
268.48,-0.67,-1.49,-0.72,-1.53,1.53,1.02,1.83,0.86,0.82,0.81
271.16,-0.67,-1.50,-0.75,-1.59,1.59,1.05,1.85,0.92,0.84,0.83
273.87,-0.76,-1.61,-0.79,-1.65,1.65,1.08,1.86,0.89,0.86,0.85
276.61,-0.88,-1.77,-0.83,-1.71,1.71,1.11,1.88,0.83,0.88,0.88
279.38,-0.90,-1.80,-0.86,-1.76,1.76,1.15,1.89,0.86,0.91,0.90
282.17,-0.90,-1.83,-0.88,-1.82,1.82,1.18,1.90,0.91,0.93,0.93
284.99,-0.90,-1.86,-0.92,-1.87,1.87,1.21,1.92,0.97,0.96,0.96
287.84,-0.90,-1.88,-0.96,-1.95,1.95,1.24,1.93,1.04,0.99,0.98
290.72,-0.97,-1.99,-1.00,-2.02,2.02,1.28,1.94,1.05,1.02,1.02
293.63,-1.11,-2.16,-1.05,-2.09,2.09,1.31,1.95,0.98,1.05,1.05
296.57,-1.13,-2.21,-1.08,-2.16,2.16,1.35,1.96,1.03,1.07,1.07
299.53,-1.13,-2.23,-1.12,-2.22,2.22,1.38,1.98,1.09,1.10,1.10
302.53,-1.13,-2.25,-1.16,-2.28,2.28,1.42,1.99,1.15,1.12,1.12
305.55,-1.13,-2.29,-1.19,-2.34,2.34,1.45,2.00,1.20,1.14,1.16
308.61,-1.18,-2.36,-1.22,-2.38,2.38,1.49,2.02,1.20,1.16,1.18
311.69,-1.34,-2.54,-1.26,-2.44,2.44,1.53,2.03,1.10,1.18,1.19
314.81,-1.36,-2.58,-1.30,-2.49,2.49,1.57,2.05,1.13,1.20,1.22
317.96,-1.36,-2.58,-1.34,-2.55,2.55,1.61,2.07,1.19,1.21,1.22
321.14,-1.36,-2.58,-1.38,-2.60,2.60,1.65,2.09,1.24,1.22,1.22
324.35,-1.36,-2.59,-1.42,-2.65,2.65,1.69,2.11,1.29,1.23,1.23
327.59,-1.39,-2.63,-1.46,-2.70,2.70,1.73,2.13,1.31,1.24,1.23
330.87,-1.53,-2.77,-1.51,-2.76,2.76,1.77,2.15,1.23,1.25,1.24
334.18,-1.58,-2.83,-1.56,-2.83,2.83,1.81,2.18,1.24,1.26,1.25
337.52,-1.58,-2.84,-1.62,-2.90,2.90,1.85,2.21,1.31,1.28,1.26
340.90,-1.59,-2.88,-1.69,-2.98,2.98,1.89,2.23,1.38,1.29,1.29
344.30,-1.76,-3.06,-1.75,-3.05,3.05,1.94,2.26,1.29,1.31,1.30
347.75,-1.81,-3.13,-1.80,-3.12,3.12,1.98,2.30,1.31,1.32,1.32
351.23,-1.81,-3.16,-1.85,-3.19,3.19,2.03,2.33,1.38,1.34,1.34
354.74,-1.81,-3.17,-1.89,-3.26,3.26,2.07,2.37,1.45,1.37,1.36
358.28,-1.92,-3.31,-1.92,-3.31,3.31,2.12,2.40,1.39,1.39,1.39
361.87,-2.01,-3.42,-1.94,-3.35,3.35,2.16,2.44,1.34,1.41,1.41
365.49,-2.04,-3.48,-1.93,-3.37,3.37,2.21,2.48,1.32,1.44,1.44
369.14,-2.04,-3.50,-1.90,-3.36,3.36,2.26,2.53,1.32,1.46,1.46
372.83,-2.04,-3.53,-1.87,-3.36,3.36,2.30,2.57,1.31,1.48,1.49
376.56,-1.99,-3.50,-1.83,-3.34,3.34,2.35,2.62,1.34,1.50,1.51
380.33,-1.75,-3.29,-1.78,-3.30,3.30,2.40,2.67,1.55,1.52,1.54
384.13,-1.61,-3.17,-1.72,-3.26,3.26,2.45,2.72,1.65,1.54,1.55
387.97,-1.58,-3.15,-1.66,-3.22,3.22,2.50,2.77,1.64,1.56,1.56
391.85,-1.57,-3.14,-1.60,-3.17,3.17,2.55,2.82,1.60,1.57,1.57
395.77,-1.42,-3.00,-1.54,-3.12,3.12,2.60,2.87,1.70,1.58,1.58
399.73,-1.36,-2.95,-1.48,-3.07,3.07,2.64,2.93,1.71,1.59,1.59
403.72,-1.36,-2.96,-1.42,-3.03,3.03,2.69,2.99,1.66,1.60,1.60
407.76,-1.36,-2.97,-1.38,-2.99,2.99,2.74,3.04,1.63,1.61,1.61
411.84,-1.36,-2.98,-1.35,-2.97,2.97,2.79,3.10,1.61,1.62,1.62
415.96,-1.36,-2.99,-1.34,-2.96,2.96,2.84,3.16,1.59,1.62,1.63
420.12,-1.36,-2.99,-1.33,-2.96,2.96,2.89,3.21,1.59,1.62,1.63
424.32,-1.36,-2.99,-1.34,-2.97,2.97,2.93,3.27,1.60,1.63,1.63
428.56,-1.36,-2.99,-1.34,-2.97,2.97,2.98,3.33,1.61,1.63,1.63
432.85,-1.36,-2.99,-1.34,-2.98,2.98,3.03,3.38,1.62,1.63,1.63
437.18,-1.36,-3.00,-1.35,-2.99,2.99,3.07,3.44,1.63,1.64,1.64
441.55,-1.36,-3.01,-1.36,-3.00,3.00,3.12,3.49,1.64,1.64,1.65
445.96,-1.36,-3.01,-1.36,-3.01,3.01,3.16,3.54,1.65,1.65,1.65
450.42,-1.36,-3.02,-1.36,-3.02,3.02,3.21,3.59,1.66,1.66,1.65
454.93,-1.36,-3.03,-1.36,-3.03,3.03,3.25,3.64,1.67,1.67,1.66
459.48,-1.36,-3.04,-1.36,-3.04,3.04,3.29,3.68,1.68,1.68,1.67
464.07,-1.36,-3.06,-1.36,-3.06,3.06,3.33,3.72,1.70,1.70,1.69
468.71,-1.36,-3.07,-1.36,-3.08,3.08,3.36,3.75,1.71,1.71,1.71
473.40,-1.36,-3.08,-1.36,-3.10,3.10,3.40,3.79,1.73,1.73,1.72
478.13,-1.36,-3.11,-1.36,-3.12,3.12,3.44,3.81,1.76,1.76,1.75
482.91,-1.36,-3.13,-1.36,-3.14,3.14,3.47,3.84,1.78,1.78,1.77
487.74,-1.36,-3.16,-1.36,-3.16,3.16,3.50,3.86,1.80,1.80,1.80
492.62,-1.36,-3.19,-1.36,-3.19,3.19,3.53,3.87,1.83,1.83,1.83
497.55,-1.36,-3.21,-1.36,-3.21,3.21,3.56,3.88,1.85,1.85,1.85
502.52,-1.36,-3.24,-1.36,-3.24,3.24,3.58,3.89,1.88,1.88,1.88
507.55,-1.36,-3.26,-1.36,-3.26,3.26,3.60,3.88,1.90,1.90,1.90
512.62,-1.36,-3.29,-1.36,-3.29,3.29,3.62,3.88,1.93,1.93,1.93
517.75,-1.36,-3.31,-1.36,-3.31,3.31,3.64,3.87,1.95,1.95,1.95
