frequency,raw,smoothed,error,error_smoothed,equalization,parametric_eq,fixed_band_eq,equalized_raw,equalized_smoothed,target
20.00,-5.80,-5.80,-5.81,-5.81,5.79,2.88,1.20,-0.01,-0.01,0.01
20.20,-5.66,-5.65,-5.70,-5.69,5.69,2.88,1.23,0.03,0.04,0.04
20.40,-5.51,-5.51,-5.58,-5.58,5.59,2.88,1.27,0.08,0.08,0.07
20.61,-5.38,-5.38,-5.47,-5.47,5.49,2.88,1.31,0.11,0.11,0.09
20.81,-5.25,-5.25,-5.37,-5.37,5.39,2.88,1.34,0.14,0.14,0.12
21.02,-5.13,-5.13,-5.28,-5.27,5.28,2.88,1.38,0.16,0.16,0.15
21.23,-5.01,-5.01,-5.17,-5.17,5.18,2.87,1.42,0.17,0.17,0.16
21.44,-4.90,-4.90,-5.07,-5.07,5.07,2.87,1.47,0.17,0.17,0.17
21.66,-4.79,-4.79,-4.97,-4.96,4.96,2.87,1.51,0.17,0.18,0.18
21.87,-4.68,-4.67,-4.85,-4.85,4.85,2.87,1.55,0.18,0.18,0.18
22.09,-4.56,-4.56,-4.74,-4.74,4.74,2.87,1.60,0.18,0.18,0.19
22.31,-4.44,-4.44,-4.62,-4.63,4.62,2.86,1.65,0.18,0.18,0.19
22.54,-4.32,-4.31,-4.51,-4.50,4.49,2.86,1.70,0.17,0.18,0.19
22.76,-4.18,-4.18,-4.36,-4.36,4.35,2.86,1.75,0.18,0.17,0.18
22.99,-4.04,-4.04,-4.21,-4.22,4.22,2.86,1.80,0.18,0.17,0.17
23.22,-3.90,-3.90,-4.07,-4.07,4.07,2.85,1.85,0.18,0.18,0.17
23.45,-3.76,-3.75,-3.93,-3.92,3.93,2.85,1.90,0.18,0.18,0.17
23.69,-3.61,-3.61,-3.78,-3.78,3.79,2.85,1.95,0.18,0.18,0.17
23.92,-3.47,-3.47,-3.64,-3.64,3.65,2.84,2.01,0.18,0.18,0.17
24.16,-3.34,-3.34,-3.52,-3.51,3.51,2.84,2.07,0.18,0.18,0.18
24.40,-3.21,-3.21,-3.39,-3.38,3.38,2.84,2.12,0.17,0.17,0.18
24.65,-3.09,-3.08,-3.26,-3.26,3.25,2.83,2.18,0.16,0.17,0.17
24.89,-2.96,-2.96,-3.12,-3.13,3.13,2.83,2.24,0.17,0.17,0.17
25.14,-2.85,-2.84,-3.01,-3.01,3.01,2.83,2.30,0.16,0.17,0.17
25.39,-2.73,-2.73,-2.89,-2.89,2.90,2.82,2.36,0.17,0.17,0.17
25.65,-2.63,-2.63,-2.79,-2.79,2.80,2.82,2.41,0.17,0.17,0.16
25.91,-2.54,-2.54,-2.69,-2.69,2.70,2.81,2.47,0.16,0.17,0.15
26.16,-2.46,-2.46,-2.61,-2.61,2.62,2.81,2.53,0.17,0.16,0.15
26.43,-2.39,-2.39,-2.54,-2.54,2.55,2.80,2.59,0.16,0.16,0.15
26.69,-2.34,-2.34,-2.49,-2.49,2.48,2.80,2.65,0.15,0.15,0.15
26.96,-2.29,-2.29,-2.44,-2.44,2.42,2.79,2.71,0.14,0.14,0.15
27.23,-2.24,-2.24,-2.39,-2.39,2.37,2.79,2.76,0.13,0.13,0.15
27.50,-2.20,-2.20,-2.34,-2.34,2.33,2.78,2.82,0.13,0.13,0.15
27.77,-2.16,-2.16,-2.29,-2.30,2.29,2.78,2.87,0.13,0.13,0.13
28.05,-2.13,-2.13,-2.26,-2.26,2.26,2.77,2.92,0.14,0.14,0.13
28.33,-2.11,-2.11,-2.23,-2.23,2.24,2.76,2.97,0.14,0.14,0.12
28.62,-2.10,-2.10,-2.22,-2.22,2.24,2.76,3.01,0.14,0.14,0.12
28.90,-2.11,-2.11,-2.23,-2.23,2.24,2.75,3.05,0.13,0.13,0.12
29.19,-2.14,-2.13,-2.24,-2.25,2.26,2.74,3.09,0.12,0.12,0.11
29.48,-2.17,-2.17,-2.28,-2.28,2.28,2.73,3.13,0.11,0.11,0.12
29.78,-2.21,-2.21,-2.31,-2.32,2.31,2.72,3.16,0.10,0.10,0.10
30.08,-2.26,-2.26,-2.36,-2.36,2.34,2.71,3.19,0.09,0.09,0.10
30.38,-2.30,-2.30,-2.39,-2.39,2.38,2.70,3.21,0.08,0.08,0.09
30.68,-2.34,-2.33,-2.43,-2.42,2.40,2.69,3.23,0.07,0.07,0.09
30.99,-2.36,-2.36,-2.43,-2.44,2.43,2.68,3.25,0.07,0.07,0.08
31.30,-2.38,-2.38,-2.45,-2.45,2.45,2.67,3.26,0.07,0.07,0.07
31.61,-2.39,-2.39,-2.46,-2.46,2.47,2.66,3.27,0.08,0.08,0.07
31.93,-2.41,-2.41,-2.47,-2.47,2.49,2.64,3.27,0.08,0.08,0.06
32.24,-2.43,-2.43,-2.47,-2.48,2.50,2.63,3.27,0.07,0.07,0.05
32.57,-2.45,-2.45,-2.49,-2.50,2.51,2.62,3.26,0.06,0.05,0.04
32.89,-2.48,-2.48,-2.52,-2.52,2.51,2.60,3.25,0.03,0.03,0.04
33.22,-2.50,-2.49,-2.53,-2.53,2.50,2.58,3.23,0.00,0.01,0.03
33.55,-2.50,-2.49,-2.52,-2.52,2.48,2.57,3.22,-0.02,-0.01,0.03
33.89,-2.47,-2.47,-2.48,-2.48,2.46,2.55,3.20,-0.01,-0.01,0.01
34.23,-2.43,-2.42,-2.44,-2.43,2.42,2.53,3.17,-0.01,-0.00,0.01
34.57,-2.37,-2.37,-2.36,-2.37,2.38,2.51,3.15,0.01,0.01,-0.00
34.92,-2.32,-2.33,-2.30,-2.32,2.34,2.49,3.12,0.02,0.01,-0.02
35.27,-2.30,-2.30,-2.28,-2.27,2.30,2.47,3.09,-0.00,0.00,-0.02
35.62,-2.28,-2.28,-2.24,-2.24,2.26,2.44,3.06,-0.02,-0.02,-0.03
35.97,-2.27,-2.27,-2.22,-2.22,2.22,2.42,3.02,-0.04,-0.04,-0.05
36.33,-2.26,-2.26,-2.21,-2.20,2.20,2.40,2.99,-0.06,-0.06,-0.05
36.70,-2.25,-2.25,-2.18,-2.18,2.17,2.37,2.95,-0.07,-0.07,-0.06
37.06,-2.24,-2.23,-2.16,-2.16,2.16,2.35,2.92,-0.08,-0.08,-0.08
37.43,-2.22,-2.22,-2.13,-2.13,2.14,2.32,2.88,-0.08,-0.08,-0.08
37.81,-2.21,-2.21,-2.11,-2.11,2.12,2.30,2.84,-0.09,-0.09,-0.10
38.19,-2.21,-2.21,-2.10,-2.10,2.10,2.28,2.81,-0.11,-0.11,-0.11
38.57,-2.21,-2.20,-2.09,-2.09,2.08,2.25,2.77,-0.13,-0.13,-0.12
38.95,-2.20,-2.20,-2.07,-2.07,2.05,2.23,2.74,-0.14,-0.14,-0.13
39.34,-2.19,-2.19,-2.04,-2.04,2.03,2.21,2.70,-0.16,-0.15,-0.15
39.74,-2.17,-2.17,-2.01,-2.01,2.01,2.19,2.67,-0.16,-0.16,-0.16
40.14,-2.16,-2.16,-1.99,-1.99,1.99,2.18,2.64,-0.16,-0.16,-0.17
40.54,-2.15,-2.15,-1.97,-1.97,1.98,2.16,2.61,-0.17,-0.17,-0.18
40.94,-2.15,-2.15,-1.96,-1.96,1.97,2.15,2.58,-0.18,-0.18,-0.19
41.35,-2.16,-2.16,-1.95,-1.96,1.96,2.14,2.55,-0.20,-0.19,-0.20
41.76,-2.17,-2.17,-1.96,-1.96,1.96,2.14,2.52,-0.21,-0.21,-0.21
42.18,-2.19,-2.19,-1.97,-1.97,1.96,2.14,2.50,-0.22,-0.22,-0.22
42.60,-2.21,-2.21,-1.97,-1.98,1.97,2.14,2.48,-0.23,-0.24,-0.23
43.03,-2.24,-2.24,-2.00,-1.99,1.99,2.14,2.46,-0.25,-0.25,-0.24
43.46,-2.27,-2.27,-2.01,-2.00,2.00,2.15,2.44,-0.27,-0.26,-0.26
43.90,-2.30,-2.30,-2.01,-2.02,2.02,2.16,2.42,-0.28,-0.28,-0.29
44.33,-2.34,-2.34,-2.03,-2.03,2.04,2.17,2.41,-0.29,-0.29,-0.30
44.78,-2.38,-2.38,-2.06,-2.06,2.07,2.19,2.39,-0.31,-0.31,-0.32
45.23,-2.44,-2.43,-2.10,-2.09,2.10,2.20,2.38,-0.34,-0.34,-0.34
45.68,-2.49,-2.48,-2.13,-2.13,2.13,2.22,2.37,-0.36,-0.36,-0.36
46.13,-2.53,-2.53,-2.15,-2.15,2.16,2.23,2.36,-0.37,-0.37,-0.38
46.60,-2.57,-2.57,-2.18,-2.18,2.18,2.25,2.36,-0.39,-0.39,-0.39
47.06,-2.61,-2.61,-2.20,-2.21,2.20,2.27,2.35,-0.41,-0.42,-0.41
47.53,-2.66,-2.65,-2.23,-2.23,2.21,2.29,2.35,-0.45,-0.44,-0.43
48.01,-2.69,-2.68,-2.25,-2.24,2.22,2.30,2.35,-0.47,-0.46,-0.44
48.49,-2.70,-2.70,-2.23,-2.23,2.22,2.32,2.35,-0.47,-0.47,-0.47
48.97,-2.71,-2.71,-2.21,-2.21,2.22,2.33,2.35,-0.48,-0.49,-0.50
49.46,-2.72,-2.73,-2.19,-2.20,2.22,2.35,2.36,-0.50,-0.51,-0.53
49.96,-2.78,-2.77,-2.22,-2.22,2.23,2.36,2.36,-0.55,-0.55,-0.56
50.46,-2.82,-2.81,-2.24,-2.23,2.24,2.38,2.37,-0.58,-0.57,-0.57
50.96,-2.85,-2.84,-2.25,-2.24,2.25,2.39,2.38,-0.60,-0.59,-0.60
51.47,-2.86,-2.87,-2.23,-2.24,2.26,2.40,2.39,-0.59,-0.60,-0.63
51.99,-2.91,-2.92,-2.25,-2.27,2.28,2.41,2.39,-0.63,-0.64,-0.65
52.51,-2.98,-2.98,-2.31,-2.31,2.29,2.42,2.40,-0.69,-0.69,-0.67
53.03,-3.06,-3.03,-2.37,-2.34,2.30,2.42,2.41,-0.76,-0.73,-0.69
53.56,-3.06,-3.05,-2.34,-2.34,2.31,2.43,2.43,-0.75,-0.75,-0.72
54.10,-3.05,-3.06,-2.31,-2.31,2.32,2.44,2.44,-0.73,-0.74,-0.74
54.64,-3.05,-3.06,-2.28,-2.29,2.32,2.44,2.45,-0.73,-0.74,-0.77
55.18,-3.09,-3.09,-2.29,-2.29,2.33,2.44,2.46,-0.76,-0.76,-0.79
55.74,-3.14,-3.14,-2.32,-2.32,2.33,2.45,2.47,-0.81,-0.81,-0.82
56.29,-3.19,-3.19,-2.35,-2.35,2.33,2.45,2.48,-0.86,-0.86,-0.84
56.86,-3.24,-3.23,-2.37,-2.36,2.34,2.45,2.49,-0.89,-0.89,-0.87
57.42,-3.27,-3.26,-2.37,-2.37,2.37,2.45,2.49,-0.90,-0.90,-0.90
58.00,-3.29,-3.29,-2.37,-2.38,2.39,2.45,2.50,-0.89,-0.90,-0.91
58.58,-3.33,-3.33,-2.39,-2.39,2.42,2.45,2.50,-0.91,-0.91,-0.93
59.16,-3.38,-3.38,-2.42,-2.43,2.45,2.44,2.51,-0.93,-0.94,-0.95
59.76,-3.45,-3.45,-2.47,-2.48,2.47,2.44,2.51,-0.98,-0.99,-0.98
60.35,-3.53,-3.53,-2.52,-2.52,2.49,2.44,2.51,-1.04,-1.04,-1.01
60.96,-3.60,-3.58,-2.57,-2.54,2.52,2.43,2.51,-1.08,-1.06,-1.03
61.57,-3.62,-3.61,-2.54,-2.54,2.54,2.43,2.50,-1.08,-1.07,-1.07
62.18,-3.61,-3.63,-2.50,-2.53,2.55,2.42,2.50,-1.06,-1.08,-1.11
62.80,-3.67,-3.68,-2.54,-2.54,2.56,2.41,2.49,-1.11,-1.12,-1.13
63.43,-3.74,-3.73,-2.57,-2.57,2.56,2.40,2.48,-1.18,-1.17,-1.17
64.07,-3.81,-3.77,-2.61,-2.58,2.56,2.40,2.47,-1.25,-1.21,-1.19
64.71,-3.77,-3.78,-2.55,-2.56,2.55,2.39,2.45,-1.22,-1.23,-1.22
65.35,-3.77,-3.79,-2.52,-2.54,2.55,2.38,2.44,-1.22,-1.24,-1.25
66.01,-3.81,-3.81,-2.53,-2.53,2.55,2.37,2.42,-1.26,-1.26,-1.27
66.67,-3.86,-3.85,-2.55,-2.54,2.55,2.36,2.40,-1.31,-1.29,-1.30
67.33,-3.89,-3.88,-2.55,-2.55,2.55,2.35,2.38,-1.34,-1.33,-1.33
68.01,-3.91,-3.92,-2.54,-2.56,2.56,2.33,2.35,-1.35,-1.36,-1.36
68.69,-3.96,-3.95,-2.56,-2.56,2.56,2.32,2.33,-1.39,-1.39,-1.40
69.37,-4.00,-4.00,-2.57,-2.57,2.57,2.31,2.30,-1.42,-1.42,-1.43
70.07,-4.04,-4.04,-2.58,-2.59,2.58,2.29,2.27,-1.46,-1.46,-1.46
70.77,-4.09,-4.08,-2.60,-2.59,2.58,2.28,2.25,-1.50,-1.49,-1.48
71.48,-4.11,-4.11,-2.59,-2.59,2.58,2.27,2.22,-1.52,-1.53,-1.52
72.19,-4.14,-4.15,-2.58,-2.59,2.58,2.25,2.19,-1.56,-1.57,-1.55
72.91,-4.18,-4.17,-2.59,-2.58,2.57,2.23,2.16,-1.60,-1.60,-1.59
73.64,-4.20,-4.19,-2.57,-2.56,2.57,2.22,2.13,-1.63,-1.62,-1.63
74.38,-4.20,-4.20,-2.54,-2.55,2.56,2.20,2.10,-1.64,-1.64,-1.65
75.12,-4.21,-4.23,-2.52,-2.54,2.55,2.18,2.07,-1.66,-1.68,-1.69
75.87,-4.27,-4.25,-2.55,-2.53,2.54,2.16,2.04,-1.73,-1.71,-1.72
76.63,-4.30,-4.29,-2.55,-2.53,2.53,2.15,2.02,-1.76,-1.75,-1.75
77.40,-4.31,-4.32,-2.52,-2.54,2.53,2.13,1.99,-1.78,-1.80,-1.78
78.17,-4.35,-4.35,-2.52,-2.53,2.52,2.11,1.96,-1.83,-1.83,-1.82
78.95,-4.38,-4.37,-2.53,-2.52,2.51,2.09,1.94,-1.87,-1.85,-1.85
79.74,-4.38,-4.38,-2.50,-2.50,2.50,2.07,1.91,-1.88,-1.88,-1.88
80.54,-4.39,-4.40,-2.47,-2.48,2.48,2.04,1.89,-1.90,-1.91,-1.91
81.35,-4.41,-4.42,-2.46,-2.47,2.47,2.02,1.86,-1.94,-1.95,-1.95
82.16,-4.45,-4.43,-2.46,-2.45,2.45,2.00,1.84,-2.00,-1.99,-1.99
82.98,-4.46,-4.45,-2.45,-2.43,2.43,1.98,1.82,-2.03,-2.02,-2.01
83.81,-4.45,-4.46,-2.39,-2.41,2.41,1.95,1.80,-2.04,-2.05,-2.06
84.65,-4.48,-4.47,-2.38,-2.38,2.40,1.93,1.78,-2.08,-2.08,-2.10
85.50,-4.50,-4.50,-2.37,-2.37,2.38,1.90,1.77,-2.11,-2.12,-2.13
86.35,-4.53,-4.53,-2.36,-2.37,2.37,1.88,1.75,-2.16,-2.16,-2.16
87.22,-4.57,-4.56,-2.36,-2.36,2.35,1.85,1.74,-2.22,-2.21,-2.20
88.09,-4.59,-4.58,-2.34,-2.34,2.33,1.83,1.72,-2.26,-2.25,-2.24
88.97,-4.60,-4.60,-2.32,-2.32,2.31,1.80,1.71,-2.29,-2.29,-2.28
89.86,-4.61,-4.62,-2.29,-2.30,2.28,1.78,1.70,-2.32,-2.33,-2.32
90.76,-4.64,-4.63,-2.27,-2.26,2.26,1.75,1.69,-2.38,-2.37,-2.37
91.66,-4.64,-4.63,-2.24,-2.22,2.23,1.72,1.69,-2.41,-2.40,-2.40
92.58,-4.62,-4.63,-2.16,-2.18,2.20,1.69,1.68,-2.42,-2.43,-2.45
93.51,-4.64,-4.64,-2.15,-2.15,2.17,1.67,1.68,-2.47,-2.47,-2.49
94.44,-4.67,-4.67,-2.14,-2.13,2.14,1.64,1.67,-2.53,-2.53,-2.53
95.39,-4.70,-4.69,-2.12,-2.11,2.11,1.61,1.67,-2.59,-2.59,-2.58
96.34,-4.72,-4.72,-2.09,-2.09,2.07,1.58,1.67,-2.64,-2.64,-2.63
97.30,-4.73,-4.73,-2.05,-2.06,2.04,1.55,1.67,-2.69,-2.69,-2.68
98.28,-4.75,-4.74,-2.03,-2.01,2.01,1.52,1.67,-2.74,-2.73,-2.72
99.26,-4.74,-4.73,-1.97,-1.96,1.97,1.49,1.67,-2.77,-2.76,-2.77
100.25,-4.72,-4.73,-1.90,-1.92,1.94,1.46,1.67,-2.78,-2.80,-2.81
101.25,-4.74,-4.75,-1.88,-1.89,1.90,1.43,1.67,-2.84,-2.85,-2.86
102.27,-4.78,-4.76,-1.87,-1.85,1.86,1.40,1.68,-2.92,-2.90,-2.91
103.29,-4.80,-4.78,-1.84,-1.82,1.82,1.37,1.68,-2.98,-2.96,-2.96
104.32,-4.76,-4.79,-1.76,-1.79,1.78,1.34,1.68,-2.98,-3.01,-3.00
105.37,-4.80,-4.80,-1.75,-1.75,1.74,1.31,1.69,-3.05,-3.05,-3.04
106.42,-4.82,-4.80,-1.73,-1.71,1.71,1.28,1.69,-3.11,-3.09,-3.09
107.48,-4.81,-4.81,-1.67,-1.67,1.67,1.25,1.70,-3.14,-3.14,-3.14
108.56,-4.80,-4.81,-1.60,-1.62,1.63,1.22,1.70,-3.17,-3.18,-3.19
109.64,-4.81,-4.82,-1.57,-1.58,1.59,1.19,1.70,-3.22,-3.23,-3.24
110.74,-4.84,-4.84,-1.55,-1.55,1.54,1.16,1.70,-3.29,-3.29,-3.29
111.85,-4.87,-4.85,-1.54,-1.51,1.50,1.13,1.70,-3.37,-3.35,-3.33
112.97,-4.85,-4.85,-1.45,-1.46,1.45,1.10,1.70,-3.39,-3.40,-3.40
114.10,-4.84,-4.85,-1.40,-1.40,1.41,1.07,1.70,-3.43,-3.44,-3.44
115.24,-4.85,-4.85,-1.35,-1.35,1.36,1.04,1.70,-3.49,-3.49,-3.50
116.39,-4.87,-4.86,-1.32,-1.31,1.31,1.01,1.69,-3.56,-3.55,-3.55
117.55,-4.88,-4.87,-1.27,-1.26,1.26,0.98,1.69,-3.62,-3.61,-3.61
118.73,-4.86,-4.86,-1.20,-1.20,1.21,0.95,1.68,-3.65,-3.65,-3.66
119.92,-4.85,-4.86,-1.15,-1.15,1.16,0.92,1.67,-3.68,-3.70,-3.70
121.12,-4.86,-4.86,-1.10,-1.11,1.12,0.89,1.65,-3.74,-3.75,-3.76
122.33,-4.90,-4.88,-1.09,-1.08,1.07,0.86,1.64,-3.83,-3.81,-3.81
123.55,-4.88,-4.89,-1.03,-1.04,1.02,0.83,1.62,-3.85,-3.87,-3.85
124.79,-4.90,-4.89,-1.00,-0.99,0.98,0.80,1.60,-3.92,-3.91,-3.90
126.03,-4.89,-4.88,-0.94,-0.93,0.93,0.77,1.57,-3.96,-3.95,-3.95
127.29,-4.88,-4.89,-0.88,-0.88,0.89,0.74,1.55,-3.99,-4.00,-4.00
128.57,-4.89,-4.89,-0.83,-0.83,0.84,0.71,1.52,-4.05,-4.05,-4.06
129.85,-4.90,-4.89,-0.79,-0.78,0.80,0.68,1.49,-4.10,-4.10,-4.11
131.15,-4.91,-4.90,-0.75,-0.75,0.75,0.65,1.45,-4.16,-4.15,-4.16
132.46,-4.90,-4.91,-0.69,-0.71,0.70,0.62,1.42,-4.19,-4.21,-4.20
133.79,-4.92,-4.91,-0.68,-0.67,0.66,0.59,1.38,-4.26,-4.26,-4.24
135.12,-4.92,-4.91,-0.62,-0.62,0.61,0.57,1.34,-4.31,-4.31,-4.30
136.48,-4.91,-4.91,-0.58,-0.58,0.56,0.54,1.29,-4.35,-4.35,-4.33
137.84,-4.91,-4.90,-0.53,-0.52,0.52,0.51,1.25,-4.39,-4.38,-4.38
139.22,-4.89,-4.89,-0.46,-0.46,0.48,0.48,1.20,-4.41,-4.41,-4.43
140.61,-4.88,-4.88,-0.41,-0.41,0.44,0.46,1.15,-4.44,-4.44,-4.47
142.02,-4.87,-4.88,-0.37,-0.38,0.40,0.43,1.10,-4.47,-4.48,-4.49
143.44,-4.89,-4.90,-0.35,-0.36,0.36,0.40,1.05,-4.52,-4.54,-4.54
144.87,-4.94,-4.92,-0.36,-0.34,0.33,0.38,1.00,-4.61,-4.59,-4.58
146.32,-4.93,-4.92,-0.31,-0.31,0.29,0.35,0.94,-4.64,-4.63,-4.62
147.78,-4.91,-4.92,-0.26,-0.27,0.26,0.32,0.89,-4.65,-4.66,-4.64
149.26,-4.91,-4.91,-0.23,-0.22,0.22,0.30,0.83,-4.69,-4.69,-4.68
150.75,-4.91,-4.91,-0.18,-0.18,0.18,0.27,0.77,-4.73,-4.73,-4.73
152.26,-4.91,-4.89,-0.14,-0.13,0.14,0.25,0.72,-4.77,-4.75,-4.77
153.78,-4.88,-4.89,-0.08,-0.08,0.10,0.22,0.66,-4.78,-4.79,-4.80
155.32,-4.87,-4.89,-0.02,-0.04,0.05,0.20,0.60,-4.81,-4.83,-4.85
156.88,-4.91,-4.90,-0.03,-0.01,0.01,0.17,0.54,-4.89,-4.88,-4.88
158.44,-4.92,-4.91,0.01,0.02,-0.02,0.14,0.48,-4.94,-4.93,-4.92
160.03,-4.91,-4.91,0.06,0.05,-0.06,0.12,0.42,-4.97,-4.97,-4.97
161.63,-4.91,-4.91,0.10,0.09,-0.10,0.09,0.36,-5.00,-5.01,-5.01
163.24,-4.91,-4.91,0.14,0.13,-0.13,0.07,0.29,-5.04,-5.04,-5.05
164.88,-4.92,-4.91,0.16,0.18,-0.17,0.04,0.23,-5.09,-5.08,-5.08
166.53,-4.90,-4.90,0.22,0.21,-0.22,0.02,0.17,-5.11,-5.12,-5.12
168.19,-4.89,-4.90,0.27,0.25,-0.26,-0.01,0.11,-5.15,-5.16,-5.16
169.87,-4.91,-4.90,0.28,0.29,-0.31,-0.03,0.05,-5.22,-5.21,-5.19
171.57,-4.90,-4.88,0.33,0.35,-0.35,-0.06,-0.02,-5.25,-5.23,-5.23
173.29,-4.87,-4.87,0.40,0.40,-0.39,-0.08,-0.08,-5.26,-5.26,-5.27
175.02,-4.83,-4.86,0.47,0.45,-0.43,-0.11,-0.14,-5.25,-5.28,-5.30
176.77,-4.87,-4.86,0.48,0.49,-0.46,-0.13,-0.20,-5.33,-5.32,-5.35
178.54,-4.89,-4.88,0.50,0.50,-0.50,-0.16,-0.27,-5.39,-5.38,-5.39
180.32,-4.90,-4.91,0.53,0.52,-0.54,-0.18,-0.33,-5.44,-5.44,-5.42
182.13,-4.92,-4.91,0.54,0.55,-0.57,-0.21,-0.39,-5.49,-5.48,-5.46
183.95,-4.91,-4.90,0.59,0.59,-0.61,-0.24,-0.46,-5.51,-5.51,-5.50
185.79,-4.89,-4.89,0.64,0.64,-0.64,-0.26,-0.52,-5.53,-5.53,-5.53
187.65,-4.87,-4.87,0.70,0.69,-0.68,-0.29,-0.59,-5.55,-5.55,-5.57
189.52,-4.87,-4.86,0.73,0.74,-0.72,-0.32,-0.65,-5.59,-5.58,-5.60
191.42,-4.86,-4.86,0.77,0.77,-0.76,-0.35,-0.71,-5.62,-5.62,-5.63
193.33,-4.86,-4.86,0.80,0.80,-0.81,-0.37,-0.78,-5.66,-5.67,-5.66
195.27,-4.86,-4.85,0.83,0.84,-0.85,-0.40,-0.84,-5.71,-5.70,-5.69
197.22,-4.84,-4.84,0.88,0.88,-0.89,-0.43,-0.91,-5.73,-5.73,-5.71
199.19,-4.81,-4.82,0.94,0.93,-0.93,-0.46,-0.97,-5.74,-5.75,-5.75
201.18,-4.80,-4.79,0.97,0.98,-0.97,-0.49,-1.03,-5.77,-5.77,-5.77
203.19,-4.78,-4.77,1.01,1.02,-1.01,-0.52,-1.10,-5.79,-5.78,-5.78
205.23,-4.74,-4.74,1.07,1.06,-1.04,-0.56,-1.16,-5.78,-5.79,-5.81
207.28,-4.72,-4.73,1.10,1.09,-1.08,-0.59,-1.22,-5.80,-5.81,-5.81
209.35,-4.73,-4.73,1.11,1.11,-1.11,-0.62,-1.28,-5.84,-5.84,-5.84
211.44,-4.75,-4.73,1.12,1.12,-1.14,-0.66,-1.34,-5.89,-5.87,-5.86
213.56,-4.73,-4.73,1.14,1.14,-1.16,-0.69,-1.40,-5.89,-5.89,-5.87
215.69,-4.70,-4.70,1.17,1.18,-1.17,-0.73,-1.46,-5.87,-5.87,-5.87
217.85,-4.68,-4.67,1.21,1.21,-1.19,-0.76,-1.51,-5.87,-5.86,-5.88
220.03,-4.64,-4.67,1.26,1.23,-1.21,-0.80,-1.56,-5.85,-5.88,-5.90
222.23,-4.68,-4.68,1.23,1.22,-1.23,-0.84,-1.62,-5.91,-5.91,-5.91
224.45,-4.71,-4.68,1.19,1.22,-1.25,-0.88,-1.67,-5.95,-5.92,-5.90
226.70,-4.67,-4.66,1.23,1.24,-1.26,-0.92,-1.71,-5.93,-5.92,-5.90
228.96,-4.61,-4.62,1.29,1.28,-1.28,-0.96,-1.76,-5.88,-5.89,-5.90
231.25,-4.58,-4.59,1.31,1.30,-1.29,-1.01,-1.80,-5.86,-5.88,-5.89
233.57,-4.58,-4.59,1.31,1.31,-1.30,-1.05,-1.84,-5.87,-5.88,-5.89
235.90,-4.61,-4.59,1.28,1.30,-1.30,-1.09,-1.87,-5.91,-5.89,-5.89
238.26,-4.59,-4.58,1.30,1.31,-1.31,-1.14,-1.90,-5.90,-5.89,-5.89
240.64,-4.56,-4.56,1.32,1.32,-1.31,-1.19,-1.93,-5.86,-5.87,-5.88
243.05,-4.53,-4.55,1.34,1.32,-1.30,-1.23,-1.95,-5.83,-5.85,-5.87
245.48,-4.56,-4.55,1.30,1.30,-1.29,-1.28,-1.97,-5.85,-5.84,-5.86
247.93,-4.57,-4.56,1.28,1.29,-1.28,-1.33,-1.99,-5.85,-5.85,-5.84
250.41,-4.57,-4.56,1.27,1.28,-1.29,-1.38,-2.00,-5.86,-5.84,-5.84
252.92,-4.52,-4.53,1.30,1.29,-1.31,-1.43,-2.01,-5.82,-5.84,-5.82
255.45,-4.49,-4.50,1.31,1.31,-1.34,-1.48,-2.01,-5.82,-5.83,-5.80
258.00,-4.46,-4.44,1.33,1.34,-1.38,-1.53,-2.01,-5.84,-5.82,-5.78
260.58,-4.37,-4.36,1.40,1.41,-1.44,-1.58,-2.01,-5.80,-5.80,-5.77
263.19,-4.26,-4.26,1.49,1.49,-1.50,-1.63,-2.00,-5.76,-5.76,-5.75
265.82,-4.14,-4.15,1.60,1.59,-1.57,-1.67,-1.99,-5.70,-5.71,-5.73
268.48,-4.05,-4.04,1.66,1.67,-1.63,-1.72,-1.98,-5.68,-5.67,-5.71
271.16,-3.96,-3.97,1.73,1.72,-1.69,-1.77,-1.96,-5.64,-5.65,-5.69
273.87,-3.91,-3.91,1.76,1.76,-1.73,-1.81,-1.94,-5.64,-5.64,-5.67
276.61,-3.88,-3.87,1.77,1.78,-1.77,-1.85,-1.92,-5.65,-5.64,-5.65
279.38,-3.85,-3.85,1.78,1.79,-1.79,-1.89,-1.89,-5.64,-5.64,-5.63
282.17,-3.82,-3.82,1.80,1.79,-1.80,-1.92,-1.87,-5.62,-5.62,-5.62
284.99,-3.80,-3.80,1.79,1.80,-1.81,-1.96,-1.84,-5.61,-5.61,-5.59
287.84,-3.77,-3.77,1.81,1.81,-1.82,-1.98,-1.81,-5.58,-5.58,-5.58
290.72,-3.74,-3.73,1.81,1.82,-1.83,-2.01,-1.77,-5.56,-5.56,-5.55
293.63,-3.69,-3.70,1.85,1.84,-1.84,-2.03,-1.74,-5.53,-5.54,-5.54
296.57,-3.65,-3.66,1.86,1.86,-1.86,-2.04,-1.71,-5.51,-5.52,-5.51
299.53,-3.63,-3.61,1.87,1.89,-1.89,-2.05,-1.67,-5.52,-5.50,-5.49
302.53,-3.55,-3.56,1.93,1.92,-1.92,-2.06,-1.64,-5.47,-5.48,-5.48
305.55,-3.49,-3.49,1.95,1.96,-1.96,-2.06,-1.60,-5.44,-5.45,-5.44
308.61,-3.43,-3.42,2.00,2.00,-2.00,-2.06,-1.56,-5.43,-5.42,-5.43
311.69,-3.35,-3.35,2.05,2.04,-2.05,-2.05,-1.53,-5.39,-5.40,-5.40
314.81,-3.28,-3.28,2.08,2.09,-2.10,-2.04,-1.49,-5.38,-5.38,-5.36
317.96,-3.20,-3.20,2.15,2.15,-2.16,-2.02,-1.45,-5.36,-5.36,-5.35
321.14,-3.12,-3.12,2.21,2.21,-2.22,-2.00,-1.42,-5.34,-5.34,-5.33
324.35,-3.04,-3.04,2.27,2.27,-2.29,-1.98,-1.38,-5.33,-5.33,-5.31
327.59,-2.96,-2.96,2.33,2.33,-2.35,-1.95,-1.34,-5.31,-5.31,-5.29
330.87,-2.89,-2.88,2.38,2.39,-2.40,-1.92,-1.31,-5.29,-5.28,-5.27
334.18,-2.81,-2.81,2.44,2.44,-2.42,-1.89,-1.27,-5.23,-5.22,-5.25
337.52,-2.75,-2.75,2.49,2.48,-2.41,-1.86,-1.24,-5.16,-5.16,-5.23
340.90,-2.73,-2.74,2.48,2.47,-2.38,-1.82,-1.21,-5.11,-5.12,-5.21
344.30,-2.77,-2.78,2.42,2.41,-2.33,-1.78,-1.18,-5.10,-5.11,-5.19
347.75,-2.87,-2.87,2.30,2.30,-2.28,-1.74,-1.14,-5.15,-5.16,-5.17
351.23,-2.98,-2.98,2.18,2.17,-2.23,-1.70,-1.11,-5.21,-5.21,-5.15
354.74,-3.08,-3.05,2.06,2.08,-2.20,-1.66,-1.08,-5.27,-5.25,-5.14
358.28,-3.07,-3.06,2.05,2.06,-2.17,-1.62,-1.05,-5.24,-5.23,-5.12
361.87,-3.00,-2.99,2.10,2.11,-2.16,-1.58,-1.03,-5.16,-5.15,-5.10
365.49,-2.89,-2.89,2.19,2.19,-2.16,-1.54,-1.00,-5.05,-5.06,-5.08
369.14,-2.79,-2.82,2.29,2.26,-2.18,-1.50,-0.97,-4.97,-5.00,-5.07
372.83,-2.77,-2.76,2.29,2.30,-2.21,-1.46,-0.95,-4.98,-4.97,-5.05
376.56,-2.75,-2.74,2.30,2.30,-2.24,-1.42,-0.92,-4.99,-4.98,-5.05
380.33,-2.72,-2.73,2.30,2.29,-2.28,-1.38,-0.90,-5.00,-5.01,-5.02
384.13,-2.72,-2.72,2.29,2.29,-2.34,-1.34,-0.88,-5.06,-5.06,-5.01
387.97,-2.71,-2.70,2.29,2.30,-2.42,-1.30,-0.85,-5.12,-5.12,-5.00
391.85,-2.65,-2.64,2.35,2.35,-2.49,-1.26,-0.83,-5.14,-5.13,-4.99
395.77,-2.55,-2.52,2.43,2.46,-2.56,-1.22,-0.81,-5.11,-5.08,-4.97
399.73,-2.36,-2.36,2.61,2.61,-2.61,-1.18,-0.79,-4.97,-4.97,-4.97
403.72,-2.20,-2.19,2.76,2.76,-2.63,-1.14,-0.78,-4.83,-4.82,-4.96
407.76,-2.13,-2.13,2.82,2.82,-2.61,-1.10,-0.76,-4.73,-4.73,-4.95
411.84,-2.20,-2.25,2.73,2.68,-2.53,-1.05,-0.74,-4.73,-4.78,-4.93
415.96,-2.60,-2.62,2.32,2.30,-2.40,-1.01,-0.73,-5.00,-5.02,-4.92
420.12,-3.20,-3.21,1.71,1.70,-2.22,-0.97,-0.71,-5.41,-5.42,-4.91
424.32,-3.99,-3.96,0.92,0.95,-1.98,-0.93,-0.70,-5.97,-5.94,-4.90
428.56,-4.78,-4.81,0.12,0.08,-1.71,-0.88,-0.69,-6.49,-6.52,-4.89
432.85,-5.60,-5.65,-0.71,-0.76,-1.42,-0.83,-0.68,-7.02,-7.07,-4.89
437.18,-6.44,-6.34,-1.56,-1.47,-1.14,-0.78,-0.67,-7.58,-7.49,-4.88
441.55,-6.82,-6.80,-1.96,-1.94,-0.87,-0.73,-0.66,-7.69,-7.67,-4.86
445.96,-6.97,-6.93,-2.12,-2.09,-0.58,-0.68,-0.65,-7.55,-7.52,-4.85
450.42,-6.81,-6.80,-1.97,-1.97,-0.30,-0.62,-0.65,-7.11,-7.10,-4.84
