frequency,raw
20.00,10.66
20.20,10.68
20.40,10.71
20.61,10.73
20.81,10.76
21.02,10.78
21.23,10.81
21.44,10.85
21.66,10.88
21.87,10.92
22.09,10.95
22.31,10.98
22.54,11.02
22.76,11.05
22.99,11.08
23.22,11.12
23.45,11.15
23.69,11.19
23.92,11.23
24.16,11.27
24.40,11.30
24.65,11.33
24.89,11.35
25.14,11.38
25.39,11.40
25.65,11.42
25.91,11.43
26.16,11.45
26.43,11.46
26.69,11.47
26.96,11.48
27.23,11.48
27.50,11.48
27.77,11.48
28.05,11.48
28.33,11.48
28.62,11.48
28.90,11.48
29.19,11.48
29.48,11.48
29.78,11.49
30.08,11.50
30.38,11.51
30.68,11.51
30.99,11.52
31.30,11.52
31.61,11.53
31.93,11.53
32.24,11.53
32.57,11.53
32.89,11.53
33.22,11.53
33.55,11.53
33.89,11.53
34.23,11.52
34.57,11.51
34.92,11.51
35.27,11.50
35.62,11.50
35.97,11.49
36.33,11.49
36.70,11.49
37.06,11.48
37.43,11.47
37.81,11.46
38.19,11.46
38.57,11.46
38.95,11.46
39.34,11.45
39.74,11.44
40.14,11.43
40.54,11.42
40.94,11.40
41.35,11.38
41.76,11.36
42.18,11.35
42.60,11.33
43.03,11.31
43.46,11.29
43.90,11.26
44.33,11.23
44.78,11.20
45.23,11.17
45.68,11.13
46.13,11.08
46.60,11.03
47.06,10.99
47.53,10.94
48.01,10.90
48.49,10.86
48.97,10.81
49.46,10.76
49.96,10.71
50.46,10.65
50.96,10.60
51.47,10.54
51.99,10.49
52.51,10.43
53.03,10.37
53.56,10.31
54.10,10.25
54.64,10.19
55.18,10.13
55.74,10.08
56.29,10.03
56.86,9.98
57.42,9.94
58.00,9.90
58.58,9.87
59.16,9.84
59.76,9.81
60.35,9.79
60.96,9.77
61.57,9.77
62.18,9.77
62.80,9.78
63.43,9.81
64.07,9.83
64.71,9.86
65.35,9.90
66.01,9.95
66.67,10.01
67.33,10.07
68.01,10.14
68.69,10.21
69.37,10.29
70.07,10.38
70.77,10.47
71.48,10.58
72.19,10.68
72.91,10.78
73.64,10.90
74.38,11.02
75.12,11.14
75.87,11.26
76.63,11.39
77.40,11.50
78.17,11.62
78.95,11.74
79.74,11.84
80.54,11.94
81.35,12.03
82.16,12.11
82.98,12.18
83.81,12.25
84.65,12.32
85.50,12.41
86.35,12.49
87.22,12.57
88.09,12.67
88.97,12.77
89.86,12.87
90.76,12.98
91.66,13.09
92.58,13.19
93.51,13.30
94.44,13.40
95.39,13.50
96.34,13.60
97.30,13.68
98.28,13.77
99.26,13.85
100.25,13.92
101.25,13.99
102.27,14.04
103.29,14.09
104.32,14.14
105.37,14.17
106.42,14.20
107.48,14.21
108.56,14.22
109.64,14.22
110.74,14.21
111.85,14.18
112.97,14.14
114.10,14.10
115.24,14.05
116.39,13.97
117.55,13.89
118.73,13.80
119.92,13.71
121.12,13.62
122.33,13.52
123.55,13.43
124.79,13.34
126.03,13.28
127.29,13.22
128.57,13.18
129.85,13.16
131.15,13.13
132.46,13.14
133.79,13.16
135.12,13.18
136.48,13.19
137.84,13.21
139.22,13.21
140.61,13.21
142.02,13.19
143.44,13.17
144.87,13.12
146.32,13.05
147.78,12.96
149.26,12.84
150.75,12.70
152.26,12.54
153.78,12.36
155.32,12.18
156.88,12.01
158.44,11.89
160.03,11.80
161.63,11.84
163.24,11.90
164.88,11.99
166.53,12.05
168.19,12.09
169.87,12.09
171.57,12.06
173.29,12.00
175.02,11.92
176.77,11.82
178.54,11.72
180.32,11.61
182.13,11.49
183.95,11.37
185.79,11.24
187.65,11.11
189.52,10.98
191.42,10.84
193.33,10.71
195.27,10.58
197.22,10.44
199.19,10.31
201.18,10.18
203.19,10.04
205.23,9.91
207.28,9.78
209.35,9.65
211.44,9.52
213.56,9.40
215.69,9.27
217.85,9.14
220.03,9.00
222.23,8.88
224.45,8.76
226.70,8.64
228.96,8.51
231.25,8.40
233.57,8.28
235.90,8.18
238.26,8.07
240.64,7.97
243.05,7.86
245.48,7.77
247.93,7.67
250.41,7.57
252.92,7.47
255.45,7.37
258.00,7.28
260.58,7.19
263.19,7.10
265.82,7.00
268.48,6.90
271.16,6.82
273.87,6.76
276.61,6.70
279.38,6.63
282.17,6.56
284.99,6.49
287.84,6.42
290.72,6.35
293.63,6.28
296.57,6.21
299.53,6.15
302.53,6.08
305.55,6.02
308.61,5.97
311.69,5.91
314.81,5.85
317.96,5.79
321.14,5.74
324.35,5.69
327.59,5.64
330.87,5.60
334.18,5.55
337.52,5.51
340.90,5.46
344.30,5.41
347.75,5.37
351.23,5.32
354.74,5.26
358.28,5.21
361.87,5.15
365.49,5.09
369.14,5.05
372.83,5.05
376.56,5.04
380.33,5.02
384.13,4.95
387.97,4.86
391.85,4.82
395.77,4.79
399.73,4.81
403.72,4.82
407.76,4.83
411.84,4.83
415.96,4.82
420.12,4.80
424.32,4.78
428.56,4.76
432.85,4.74
437.18,4.72
441.55,4.70
445.96,4.69
450.42,4.67
454.93,4.64
459.48,4.63
464.07,4.60
468.71,4.58
473.40,4.55
478.13,4.52
482.91,4.50
487.74,4.47
492.62,4.45
497.55,4.42
502.52,4.40
507.55,4.38
512.62,4.35
517.75,4.33
522.93,4.31
528.16,4.29
533.44,4.26
538.77,4.22
544.16,4.20
549.60,4.17
555.10,4.15
560.65,4.12
566.25,4.09
571.92,4.06
577.64,4.02
583.41,3.99
589.25,3.96
595.14,3.92
601.09,3.88
607.10,3.85
613.17,3.80
619.30,3.75
625.50,3.71
631.75,3.66
638.07,3.60
644.45,3.56
650.89,3.51
657.40,3.45
663.98,3.39
670.62,3.34
677.32,3.28
684.10,3.21
690.94,3.14
697.85,3.08
704.83,3.01
711.87,2.93
718.99,2.85
726.18,2.77
733.44,2.70
740.78,2.61
748.19,2.53
755.67,2.45
763.23,2.36
770.86,2.28
778.57,2.19
786.35,2.09
794.22,2.00
802.16,1.91
810.18,1.81
818.28,1.71
826.46,1.61
834.73,1.51
843.08,1.40
851.51,1.29
860.02,1.18
868.62,1.08
877.31,0.97
886.08,0.84
894.94,0.73
903.89,0.61
912.93,0.50
922.06,0.40
931.28,0.29
940.59,0.17
950.00,0.06
959.50,-0.01
969.09,-0.04
978.78,-0.04
988.57,-0.04
998.46,0.01
1008.44,-0.08
1018.53,-0.21
1028.71,-0.35
1039.00,-0.47
1049.39,-0.56
1059.88,-0.63
1070.48,-0.66
1081.19,-0.68
1092.00,-0.68
1102.92,-0.65
1113.95,-0.61
1125.09,-0.59
1136.34,-0.59
1147.70,-0.61
1159.18,-0.68
1170.77,-0.76
1182.48,-0.87
1194.30,-0.99
1206.25,-1.12
1218.31,-1.26
1230.49,-1.40
1242.80,-1.53
1255.22,-1.68
1267.78,-1.80
1280.45,-1.92
1293.26,-2.05
1306.19,-2.18
1319.25,-2.30
1332.45,-2.41
1345.77,-2.52
1359.23,-2.60
1372.82,-2.69
1386.55,-2.78
1400.41,-2.88
1414.42,-2.98
1428.56,-3.07
1442.85,-3.16
1457.28,-3.24
1471.85,-3.31
1486.57,-3.37
1501.43,-3.43
1516.45,-3.49
1531.61,-3.54
1546.93,-3.56
1562.40,-3.58
1578.02,-3.58
1593.80,-3.56
1609.74,-3.53
1625.84,-3.49
1642.10,-3.47
1658.52,-3.45
1675.10,-3.43
1691.85,-3.43
1708.77,-3.44
1725.86,-3.45
1743.12,-3.46
1760.55,-3.47
1778.15,-3.48
1795.94,-3.46
1813.90,-3.45
1832.03,-3.43
1850.36,-3.39
1868.86,-3.36
1887.55,-3.31
1906.42,-3.24
1925.49,-3.16
1944.74,-3.10
1964.19,-2.99
1983.83,-2.91
2003.67,-2.85
2023.71,-2.59
2043.94,-2.36
2064.38,-2.14
2085.03,-1.91
2105.88,-1.68
2126.94,-1.46
2148.20,-1.23
2169.69,-0.98
2191.38,-0.69
2213.30,-0.40
2235.43,-0.12
2257.78,0.11
2280.36,0.29
2303.17,0.48
2326.20,1.00
2349.46,1.53
2372.95,2.01
2396.68,2.46
2420.65,2.85
2444.86,3.22
2469.31,3.59
2494.00,3.94
2518.94,4.29
2544.13,4.62
2569.57,4.93
2595.27,5.22
2621.22,5.50
2647.43,5.77
2673.90,6.03
2700.64,6.29
2727.65,6.57
2754.93,6.84
2782.48,7.12
2810.30,7.37
2838.40,7.57
2866.79,7.74
2895.46,7.87
2924.41,7.90
2953.65,7.90
2983.19,7.81
3013.02,7.64
3043.15,7.34
3073.58,6.97
3104.32,6.52
3135.36,6.02
3166.72,5.51
3198.38,5.02
3230.37,4.42
3262.67,3.67
3295.30,2.69
3328.25,1.88
3361.53,1.21
3395.15,0.72
3429.10,0.26
3463.39,0.07
3498.03,0.29
3533.01,0.50
3568.34,0.45
3604.02,0.13
3640.06,-0.42
3676.46,-1.09
3713.22,-1.78
3750.36,-2.43
3787.86,-2.81
3825.74,-3.12
3864.00,-3.02
3902.64,-2.53
3941.66,-1.96
3981.08,-1.21
4020.89,-0.36
4061.10,0.53
4101.71,1.44
4142.73,2.39
4184.15,3.35
4226.00,4.27
4268.26,5.11
4310.94,5.84
4354.05,6.45
4397.59,6.92
4441.56,7.32
4485.98,7.50
4530.84,7.56
4576.15,7.49
4621.91,7.37
4668.13,7.22
4714.81,7.22
4761.96,7.27
4809.58,7.35
4857.67,7.43
4906.25,7.52
4955.31,7.51
5004.87,7.24
5054.91,6.75
5105.46,6.34
5156.52,6.02
5208.08,5.82
5260.16,5.67
5312.77,5.57
5365.89,5.53
5419.55,5.48
5473.75,5.42
5528.49,5.33
5583.77,5.23
5639.61,5.12
5696.00,5.00
5752.96,4.75
5810.49,4.47
5868.60,4.07
5927.28,3.69
5986.56,3.33
6046.42,3.04
6106.89,2.85
6167.96,2.79
6229.64,2.83
6291.93,2.96
6354.85,3.39
6418.40,3.97
6482.58,4.81
6547.41,5.59
6612.88,6.31
6679.01,6.80
6745.80,7.17
6813.26,7.47
6881.39,7.68
6950.21,7.82
7019.71,7.87
7089.91,7.81
7160.81,7.59
7232.41,7.26
7304.74,6.83
7377.79,6.37
7451.56,5.93
7526.08,5.51
7601.34,5.11
7677.35,4.81
7754.13,4.56
7831.67,4.47
7909.98,4.45
7989.08,4.55
8068.98,4.83
8149.67,5.23
8231.16,5.81
8313.47,6.51
8396.61,7.25
8480.57,8.05
8565.38,8.57
8651.03,8.54
8737.54,7.68
8824.92,6.09
8913.17,4.41
9002.30,2.76
9092.32,1.40
9183.25,0.07
9275.08,-1.30
9367.83,-2.81
9461.51,-5.01
9556.12,-7.79
9651.68,-11.10
9748.20,-14.83
9845.68,-17.09
9944.14,-17.33
10043.58,-15.76
10144.02,-13.26
10245.46,-10.44
10347.91,-7.64
10451.39,-4.89
10555.91,-2.23
10661.46,0.06
10768.08,1.91
10875.76,2.91
10984.52,3.23
11094.36,3.20
11205.31,2.84
11317.36,2.14
11430.53,1.49
11544.84,1.16
11660.29,1.24
11776.89,1.48
11894.66,1.97
12013.60,2.47
12133.74,2.98
12255.08,3.22
12377.63,3.13
12501.41,2.53
12626.42,1.35
12752.68,-0.31
12880.21,-2.91
13009.01,-6.01
13139.10,-9.11
13270.49,-10.22
13403.20,-10.44
13537.23,-10.79
13672.60,-11.83
13809.33,-13.26
13947.42,-12.07
14086.90,-11.04
14227.77,-10.12
14370.04,-9.68
14513.74,-9.75
14658.88,-9.80
14805.47,-9.68
14953.52,-9.27
15103.06,-8.78
15254.09,-8.30
15406.63,-9.22
15560.70,-10.02
15716.30,-10.64
15873.47,-10.39
16032.20,-9.84
16192.52,-9.02
16354.45,-8.25
16517.99,-7.56
16683.17,-7.31
16850.01,-6.86
17018.51,-6.42
17188.69,-7.10
17360.58,-8.29
17534.18,-10.00
17709.53,-12.70
17886.62,-16.42
18065.49,-20.32
18246.14,-24.01
18428.60,-22.27
18612.89,-20.25
18799.02,-17.99
18987.01,-15.33
19176.88,-13.24
19368.65,-11.60
19562.33,-10.72
19757.96,-10.91
19955.54,-11.10
