frequency,raw
20.00,0.20
20.20,0.12
20.40,0.05
20.61,-0.01
20.81,-0.02
21.02,-0.00
21.23,0.04
21.44,0.10
21.66,0.17
21.87,0.24
22.09,0.30
22.31,0.35
22.54,0.40
22.76,0.46
22.99,0.52
23.22,0.61
23.45,0.70
23.69,0.80
23.92,0.90
24.16,0.99
24.40,1.06
24.65,1.13
24.89,1.20
25.14,1.28
25.39,1.36
25.65,1.46
25.91,1.56
26.16,1.65
26.43,1.73
26.69,1.78
26.96,1.82
27.23,1.84
27.50,1.84
27.77,1.84
28.05,1.83
28.33,1.82
28.62,1.82
28.90,1.81
29.19,1.81
29.48,1.82
29.78,1.84
30.08,1.87
30.38,1.90
30.68,1.93
30.99,1.96
31.30,1.99
31.61,2.03
31.93,2.07
32.24,2.11
32.57,2.15
32.89,2.19
33.22,2.22
33.55,2.24
33.89,2.28
34.23,2.32
34.57,2.37
34.92,2.42
35.27,2.46
35.62,2.49
35.97,2.51
36.33,2.52
36.70,2.54
37.06,2.55
37.43,2.57
37.81,2.59
38.19,2.60
38.57,2.61
38.95,2.62
39.34,2.63
39.74,2.64
40.14,2.64
40.54,2.64
40.94,2.66
41.35,2.67
41.76,2.70
42.18,2.71
42.60,2.71
43.03,2.71
43.46,2.70
43.90,2.69
44.33,2.69
44.78,2.69
45.23,2.68
45.68,2.67
46.13,2.66
46.60,2.65
47.06,2.65
47.53,2.63
48.01,2.62
48.49,2.60
48.97,2.57
49.46,2.54
49.96,2.52
50.46,2.51
50.96,2.51
51.47,2.50
51.99,2.46
52.51,2.42
53.03,2.37
53.56,2.36
54.10,2.35
54.64,2.33
55.18,2.30
55.74,2.28
56.29,2.27
56.86,2.28
57.42,2.27
58.00,2.27
58.58,2.26
59.16,2.25
59.76,2.23
60.35,2.22
60.96,2.23
61.57,2.25
62.18,2.26
62.80,2.26
63.43,2.29
64.07,2.32
64.71,2.35
65.35,2.37
66.01,2.40
66.67,2.42
67.33,2.43
68.01,2.43
68.69,2.46
69.37,2.47
70.07,2.46
70.77,2.44
71.48,2.41
72.19,2.37
72.91,2.32
73.64,2.31
74.38,2.32
75.12,2.35
75.87,2.39
76.63,2.43
77.40,2.48
78.17,2.54
78.95,2.60
79.74,2.64
80.54,2.69
81.35,2.74
82.16,2.76
82.98,2.80
83.81,2.85
84.65,2.84
85.50,2.85
86.35,2.86
87.22,2.89
88.09,2.90
88.97,2.89
89.86,2.88
90.76,2.88
91.66,2.85
92.58,2.82
93.51,2.84
94.44,2.79
95.39,2.72
96.34,2.68
97.30,2.64
98.28,2.59
99.26,2.55
100.25,2.51
101.25,2.49
102.27,2.53
103.29,2.57
104.32,2.51
105.37,2.51
106.42,2.50
107.48,2.48
108.56,2.51
109.64,2.52
110.74,2.51
111.85,2.40
112.97,2.47
114.10,2.50
115.24,2.39
116.39,2.36
117.55,2.33
118.73,2.33
119.92,2.33
121.12,2.34
122.33,2.33
123.55,2.29
124.79,2.25
126.03,2.24
127.29,2.21
128.57,2.18
129.85,2.15
131.15,2.13
132.46,2.11
133.79,2.11
135.12,2.07
136.48,2.03
137.84,2.01
139.22,1.97
140.61,1.94
142.02,1.90
143.44,1.87
144.87,1.85
146.32,1.82
147.78,1.79
149.26,1.76
150.75,1.73
152.26,1.69
153.78,1.67
155.32,1.66
156.88,1.62
158.44,1.60
160.03,1.57
161.63,1.53
163.24,1.49
164.88,1.47
166.53,1.45
168.19,1.43
169.87,1.41
171.57,1.37
173.29,1.33
175.02,1.31
176.77,1.29
178.54,1.26
180.32,1.22
182.13,1.22
183.95,1.21
185.79,1.18
187.65,1.14
189.52,1.12
191.42,1.11
193.33,1.10
195.27,1.09
197.22,1.05
199.19,1.02
201.18,1.01
203.19,0.99
205.23,0.97
207.28,0.95
209.35,0.94
211.44,0.92
213.56,0.91
215.69,0.90
217.85,0.88
220.03,0.85
222.23,0.84
224.45,0.82
226.70,0.80
228.96,0.75
231.25,0.73
233.57,0.73
235.90,0.70
238.26,0.70
240.64,0.70
243.05,0.67
245.48,0.63
247.93,0.61
250.41,0.60
252.92,0.56
255.45,0.53
258.00,0.50
260.58,0.48
263.19,0.46
265.82,0.45
268.48,0.43
271.16,0.42
273.87,0.38
276.61,0.36
279.38,0.38
282.17,0.38
284.99,0.38
287.84,0.37
290.72,0.36
293.63,0.36
296.57,0.36
299.53,0.36
302.53,0.37
305.55,0.39
308.61,0.39
311.69,0.38
314.81,0.40
317.96,0.39
321.14,0.39
324.35,0.39
327.59,0.39
330.87,0.38
334.18,0.39
337.52,0.38
340.90,0.36
344.30,0.36
347.75,0.35
351.23,0.34
354.74,0.32
358.28,0.31
361.87,0.31
365.49,0.30
369.14,0.30
372.83,0.29
376.56,0.28
380.33,0.27
384.13,0.25
387.97,0.22
391.85,0.22
395.77,0.21
399.73,0.20
403.72,0.18
407.76,0.18
411.84,0.20
415.96,0.19
420.12,0.18
424.32,0.17
428.56,0.17
432.85,0.17
437.18,0.15
441.55,0.17
445.96,0.16
450.42,0.14
454.93,0.12
459.48,0.09
464.07,0.06
468.71,0.05
473.40,0.07
478.13,0.08
482.91,0.08
487.74,0.09
492.62,0.10
497.55,0.07
502.52,0.05
507.55,0.04
512.62,0.04
517.75,0.03
522.93,0.00
528.16,-0.02
533.44,-0.04
538.77,-0.06
544.16,-0.06
549.60,-0.07
555.10,-0.09
560.65,-0.10
566.25,-0.14
571.92,-0.18
577.64,-0.23
583.41,-0.26
589.25,-0.29
595.14,-0.30
601.09,-0.30
607.10,-0.27
613.17,-0.24
619.30,-0.20
625.50,-0.18
631.75,-0.15
638.07,-0.11
644.45,-0.07
650.89,-0.04
657.40,-0.05
663.98,-0.01
670.62,0.04
677.32,0.05
684.10,0.07
690.94,0.10
697.85,0.13
704.83,0.15
711.87,0.17
718.99,0.20
726.18,0.22
733.44,0.25
740.78,0.27
748.19,0.29
755.67,0.30
763.23,0.31
770.86,0.33
778.57,0.36
786.35,0.39
794.22,0.39
802.16,0.39
810.18,0.40
818.28,0.41
826.46,0.41
834.73,0.42
843.08,0.42
851.51,0.41
860.02,0.40
868.62,0.38
877.31,0.36
886.08,0.35
894.94,0.32
903.89,0.32
912.93,0.33
922.06,0.31
931.28,0.28
940.59,0.24
950.00,0.19
959.50,0.16
969.09,0.13
978.78,0.09
988.57,0.04
998.46,0.01
1008.44,-0.04
1018.53,-0.08
1028.71,-0.11
1039.00,-0.16
1049.39,-0.23
1059.88,-0.31
1070.48,-0.31
1081.19,-0.35
1092.00,-0.41
1102.92,-0.47
1113.95,-0.53
1125.09,-0.57
1136.34,-0.61
1147.70,-0.67
1159.18,-0.72
1170.77,-0.77
1182.48,-0.83
1194.30,-0.91
1206.25,-0.99
1218.31,-1.02
1230.49,-1.06
1242.80,-1.10
1255.22,-1.14
1267.78,-1.18
1280.45,-1.26
1293.26,-1.29
1306.19,-1.31
1319.25,-1.35
1332.45,-1.46
1345.77,-1.55
1359.23,-1.59
1372.82,-1.57
1386.55,-1.55
1400.41,-1.56
1414.42,-1.59
1428.56,-1.62
1442.85,-1.63
1457.28,-1.62
1471.85,-1.60
1486.57,-1.61
1501.43,-1.62
1516.45,-1.58
1531.61,-1.57
1546.93,-1.58
1562.40,-1.53
1578.02,-1.47
1593.80,-1.46
1609.74,-1.44
1625.84,-1.41
1642.10,-1.43
1658.52,-1.44
1675.10,-1.42
1691.85,-1.44
1708.77,-1.45
1725.86,-1.45
1743.12,-1.36
1760.55,-1.26
1778.15,-1.17
1795.94,-1.15
1813.90,-1.01
1832.03,-0.86
1850.36,-0.75
1868.86,-0.61
1887.55,-0.52
1906.42,-0.42
1925.49,-0.27
1944.74,-0.09
1964.19,0.04
1983.83,0.16
2003.67,0.28
2023.71,0.38
2043.94,0.53
2064.38,0.71
2085.03,0.92
2105.88,1.16
2126.94,1.41
2148.20,1.67
2169.69,1.96
2191.38,2.25
2213.30,2.51
2235.43,2.75
2257.78,3.11
2280.36,3.47
2303.17,3.80
2326.20,4.15
2349.46,4.48
2372.95,4.78
2396.68,5.07
2420.65,5.50
2444.86,5.86
2469.31,6.17
2494.00,6.52
2518.94,6.83
2544.13,7.13
2569.57,7.43
2595.27,7.73
2621.22,8.03
2647.43,8.37
2673.90,8.66
2700.64,8.88
2727.65,8.99
2754.93,9.13
2782.48,9.27
2810.30,9.39
2838.40,9.50
2866.79,9.59
2895.46,9.65
2924.41,9.72
2953.65,9.77
2983.19,9.71
3013.02,9.63
3043.15,9.53
3073.58,9.36
3104.32,9.20
3135.36,9.05
3166.72,8.90
3198.38,8.75
3230.37,8.47
3262.67,8.16
3295.30,7.84
3328.25,7.59
3361.53,7.34
3395.15,7.07
3429.10,6.88
3463.39,6.76
3498.03,6.71
3533.01,6.83
3568.34,7.04
3604.02,7.33
3640.06,7.78
3676.46,8.18
3713.22,8.54
3750.36,8.84
3787.86,8.98
3825.74,9.08
3864.00,9.04
3902.64,8.87
3941.66,8.67
3981.08,8.42
4020.89,8.08
4061.10,7.69
4101.71,7.31
4142.73,6.94
4184.15,6.58
4226.00,6.30
4268.26,6.09
4310.94,5.98
4354.05,5.97
4397.59,5.98
4441.56,5.99
4485.98,6.04
4530.84,6.05
4576.15,6.02
4621.91,5.97
4668.13,5.90
4714.81,5.89
4761.96,5.93
4809.58,6.05
4857.67,6.22
4906.25,6.46
4955.31,6.74
5004.87,7.05
5054.91,7.41
5105.46,7.81
5156.52,8.23
5208.08,8.53
5260.16,8.78
5312.77,8.99
5365.89,9.10
5419.55,9.09
5473.75,8.94
5528.49,8.61
5583.77,8.04
5639.61,7.37
5696.00,6.64
5752.96,5.84
5810.49,5.02
5868.60,4.19
5927.28,3.42
5986.56,2.72
6046.42,2.10
6106.89,1.52
6167.96,1.02
6229.64,0.63
6291.93,0.31
6354.85,0.16
6418.40,0.10
6482.58,0.21
6547.41,0.35
6612.88,0.61
6679.01,1.31
6745.80,2.22
6813.26,3.22
6881.39,4.20
6950.21,4.98
7019.71,5.60
7089.91,6.00
7160.81,6.07
7232.41,5.94
7304.74,5.62
7377.79,5.13
7451.56,4.63
7526.08,4.16
7601.34,3.76
7677.35,3.50
7754.13,3.29
7831.67,3.16
7909.98,3.08
7989.08,3.11
8068.98,3.31
8149.67,3.59
8231.16,4.00
8313.47,4.32
8396.61,4.54
8480.57,4.50
8565.38,3.92
8651.03,2.78
8737.54,0.92
8824.92,-1.40
8913.17,-3.67
9002.30,-5.88
9092.32,-7.97
9183.25,-10.05
9275.08,-11.27
9367.83,-10.25
9461.51,-8.80
9556.12,-7.64
9651.68,-6.69
9748.20,-5.64
9845.68,-4.29
9944.14,-2.76
10043.58,-1.44
10144.02,-0.49
10245.46,-0.29
10347.91,-0.16
10451.39,-0.04
10555.91,0.21
10661.46,0.35
10768.08,0.39
10875.76,0.32
10984.52,0.60
11094.36,1.12
11205.31,1.97
11317.36,2.95
11430.53,3.77
11544.84,3.87
11660.29,3.13
11776.89,1.57
11894.66,-1.01
12013.60,-3.64
12133.74,-4.86
12255.08,-4.92
12377.63,-4.64
12501.41,-3.97
12626.42,-3.11
12752.68,-2.55
12880.21,-2.36
13009.01,-2.36
13139.10,-2.35
13270.49,-3.03
13403.20,-3.90
13537.23,-4.72
13672.60,-4.91
13809.33,-4.49
13947.42,-3.19
14086.90,-1.97
14227.77,-0.80
14370.04,0.40
14513.74,1.57
14658.88,2.00
14805.47,1.99
14953.52,1.26
15103.06,0.27
15254.09,-0.83
15406.63,-1.54
15560.70,-2.00
15716.30,-2.10
15873.47,-2.07
16032.20,-1.90
16192.52,-1.27
16354.45,-0.86
16517.99,-0.68
16683.17,-1.43
16850.01,-2.90
17018.51,-4.86
17188.69,-6.96
17360.58,-8.61
17534.18,-9.81
17709.53,-10.22
17886.62,-10.52
18065.49,-10.88
18246.14,-11.41
18428.60,-11.72
18612.89,-11.80
18799.02,-11.77
18987.01,-11.81
19176.88,-11.55
19368.65,-11.26
19562.33,-10.97
19757.96,-10.74
19955.54,-10.51
