frequency,raw
20.00,1.48
20.20,1.49
20.40,1.51
20.61,1.52
20.81,1.54
21.02,1.55
21.23,1.56
21.44,1.57
21.66,1.58
21.87,1.57
22.09,1.56
22.31,1.52
22.54,1.49
22.76,1.44
22.99,1.39
23.22,1.33
23.45,1.26
23.69,1.20
23.92,1.14
24.16,1.09
24.40,1.04
24.65,1.00
24.89,0.96
25.14,0.93
25.39,0.91
25.65,0.89
25.91,0.88
26.16,0.88
26.43,0.90
26.69,0.92
26.96,0.95
27.23,0.99
27.50,1.05
27.77,1.10
28.05,1.16
28.33,1.19
28.62,1.23
28.90,1.25
29.19,1.28
29.48,1.30
29.78,1.31
30.08,1.32
30.38,1.32
30.68,1.31
30.99,1.30
31.30,1.29
31.61,1.28
31.93,1.27
32.24,1.26
32.57,1.25
32.89,1.25
33.22,1.25
33.55,1.26
33.89,1.29
34.23,1.31
34.57,1.35
34.92,1.39
35.27,1.42
35.62,1.46
35.97,1.50
36.33,1.56
36.70,1.62
37.06,1.68
37.43,1.72
37.81,1.75
38.19,1.77
38.57,1.78
38.95,1.78
39.34,1.78
39.74,1.78
40.14,1.77
40.54,1.76
40.94,1.73
41.35,1.70
41.76,1.67
42.18,1.65
42.60,1.64
43.03,1.64
43.46,1.63
43.90,1.63
44.33,1.63
44.78,1.64
45.23,1.64
45.68,1.65
46.13,1.66
46.60,1.67
47.06,1.69
47.53,1.72
48.01,1.75
48.49,1.77
48.97,1.79
49.46,1.81
49.96,1.83
50.46,1.83
50.96,1.83
51.47,1.83
51.99,1.83
52.51,1.85
53.03,1.87
53.56,1.86
54.10,1.85
54.64,1.85
55.18,1.86
55.74,1.88
56.29,1.89
56.86,1.90
57.42,1.91
58.00,1.93
58.58,1.94
59.16,1.95
59.76,1.97
60.35,2.00
60.96,2.03
61.57,2.04
62.18,2.06
62.80,2.08
63.43,2.09
64.07,2.11
64.71,2.12
65.35,2.14
66.01,2.16
66.67,2.16
67.33,2.17
68.01,2.19
68.69,2.22
69.37,2.24
70.07,2.24
70.77,2.25
71.48,2.25
72.19,2.26
72.91,2.26
73.64,2.27
74.38,2.27
75.12,2.27
75.87,2.26
76.63,2.26
77.40,2.26
78.17,2.26
78.95,2.27
79.74,2.27
80.54,2.28
81.35,2.29
82.16,2.29
82.98,2.30
83.81,2.30
84.65,2.30
85.50,2.31
86.35,2.32
87.22,2.32
88.09,2.33
88.97,2.33
89.86,2.33
90.76,2.33
91.66,2.34
92.58,2.35
93.51,2.36
94.44,2.36
95.39,2.36
96.34,2.37
97.30,2.37
98.28,2.37
99.26,2.37
100.25,2.37
101.25,2.39
102.27,2.40
103.29,2.40
104.32,2.41
105.37,2.41
106.42,2.42
107.48,2.42
108.56,2.43
109.64,2.44
110.74,2.44
111.85,2.46
112.97,2.47
114.10,2.48
115.24,2.50
116.39,2.51
117.55,2.53
118.73,2.55
119.92,2.55
121.12,2.56
122.33,2.57
123.55,2.59
124.79,2.61
126.03,2.63
127.29,2.64
128.57,2.66
129.85,2.68
131.15,2.70
132.46,2.72
133.79,2.74
135.12,2.76
136.48,2.78
137.84,2.80
139.22,2.82
140.61,2.83
142.02,2.85
143.44,2.86
144.87,2.88
146.32,2.90
147.78,2.92
149.26,2.94
150.75,2.96
152.26,2.97
153.78,2.99
155.32,3.00
156.88,3.01
158.44,3.03
160.03,3.05
161.63,3.06
163.24,3.07
164.88,3.08
166.53,3.09
168.19,3.10
169.87,3.11
171.57,3.12
173.29,3.12
175.02,3.13
176.77,3.12
178.54,3.11
180.32,3.10
182.13,3.10
183.95,3.08
185.79,3.07
187.65,3.07
189.52,3.06
191.42,3.05
193.33,3.05
195.27,3.04
197.22,3.04
199.19,3.04
201.18,3.03
203.19,3.02
205.23,2.99
207.28,2.97
209.35,2.95
211.44,2.91
213.56,2.89
215.69,2.85
217.85,2.81
220.03,2.78
222.23,2.72
224.45,2.67
226.70,2.62
228.96,2.55
231.25,2.49
233.57,2.43
235.90,2.35
238.26,2.28
240.64,2.20
243.05,2.08
245.48,2.00
247.93,1.91
250.41,1.84
252.92,1.77
255.45,1.70
258.00,1.64
260.58,1.59
263.19,1.54
265.82,1.48
268.48,1.44
271.16,1.40
273.87,1.35
276.61,1.30
279.38,1.27
282.17,1.22
284.99,1.17
287.84,1.12
290.72,1.06
293.63,1.01
296.57,0.96
299.53,0.91
302.53,0.85
305.55,0.82
308.61,0.79
311.69,0.75
314.81,0.72
317.96,0.73
321.14,0.75
324.35,0.75
327.59,0.76
330.87,0.77
334.18,0.78
337.52,0.78
340.90,0.78
344.30,0.77
347.75,0.75
351.23,0.73
354.74,0.73
358.28,0.74
361.87,0.76
365.49,0.78
369.14,0.81
372.83,0.85
376.56,0.88
380.33,0.92
384.13,0.96
387.97,0.99
391.85,1.01
395.77,1.02
399.73,1.01
403.72,1.00
407.76,0.98
411.84,0.94
415.96,0.91
420.12,0.88
424.32,0.85
428.56,0.81
432.85,0.77
437.18,0.75
441.55,0.67
445.96,0.61
450.42,0.56
454.93,0.50
459.48,0.42
464.07,0.33
468.71,0.24
473.40,0.20
478.13,0.17
482.91,0.14
487.74,0.12
492.62,0.12
497.55,0.13
502.52,0.13
507.55,0.13
512.62,0.15
517.75,0.18
522.93,0.21
528.16,0.22
533.44,0.23
538.77,0.26
544.16,0.32
549.60,0.37
555.10,0.43
560.65,0.48
566.25,0.51
571.92,0.54
577.64,0.54
583.41,0.55
589.25,0.57
595.14,0.52
601.09,0.47
607.10,0.44
613.17,0.41
619.30,0.33
625.50,0.27
631.75,0.26
638.07,0.28
644.45,0.31
650.89,0.34
657.40,0.40
663.98,0.46
670.62,0.52
677.32,0.56
684.10,0.57
690.94,0.56
697.85,0.53
704.83,0.50
711.87,0.46
718.99,0.41
726.18,0.39
733.44,0.35
740.78,0.28
748.19,0.22
755.67,0.19
763.23,0.18
770.86,0.20
778.57,0.23
786.35,0.28
794.22,0.30
802.16,0.31
810.18,0.35
818.28,0.39
826.46,0.43
834.73,0.52
843.08,0.53
851.51,0.50
860.02,0.54
868.62,0.59
877.31,0.63
886.08,0.65
894.94,0.64
903.89,0.62
912.93,0.58
922.06,0.57
931.28,0.50
940.59,0.42
950.00,0.36
959.50,0.30
969.09,0.22
978.78,0.14
988.57,0.06
998.46,-0.00
1008.44,0.02
1018.53,0.01
1028.71,-0.08
1039.00,-0.05
1049.39,0.02
1059.88,0.12
1070.48,0.19
1081.19,0.28
1092.00,0.36
1102.92,0.33
1113.95,0.36
1125.09,0.38
1136.34,0.37
1147.70,0.28
1159.18,0.28
1170.77,0.31
1182.48,0.28
1194.30,0.23
1206.25,0.18
1218.31,-0.03
1230.49,-0.10
1242.80,-0.11
1255.22,-0.05
1267.78,-0.19
1280.45,-0.26
1293.26,-0.33
1306.19,-0.40
1319.25,-0.46
1332.45,-0.53
1345.77,-0.59
1359.23,-0.64
1372.82,-0.46
1386.55,-0.32
1400.41,-0.25
1414.42,-0.30
1428.56,-0.35
1442.85,-0.20
1457.28,-0.04
1471.85,0.11
1486.57,0.12
1501.43,0.12
1516.45,0.24
1531.61,0.33
1546.93,0.39
1562.40,0.43
1578.02,0.48
1593.80,0.59
1609.74,0.65
1625.84,0.70
1642.10,0.76
1658.52,0.85
1675.10,0.94
1691.85,0.91
1708.77,0.85
1725.86,0.77
1743.12,0.74
1760.55,0.78
1778.15,0.87
1795.94,1.01
1813.90,1.26
1832.03,1.44
1850.36,1.46
1868.86,1.56
1887.55,1.64
1906.42,1.74
1925.49,1.88
1944.74,1.90
1964.19,2.04
1983.83,2.21
2003.67,2.36
2023.71,2.51
2043.94,2.62
2064.38,2.71
2085.03,2.86
2105.88,2.92
2126.94,2.92
2148.20,2.88
2169.69,2.83
2191.38,3.07
2213.30,3.28
2235.43,3.30
2257.78,3.57
2280.36,3.89
2303.17,4.14
2326.20,4.17
2349.46,4.28
2372.95,4.46
2396.68,4.68
2420.65,4.93
2444.86,5.12
2469.31,5.27
2494.00,5.51
2518.94,5.54
2544.13,5.55
2569.57,5.83
2595.27,6.08
2621.22,6.31
2647.43,6.53
2673.90,6.59
2700.64,6.68
2727.65,6.82
2754.93,6.96
2782.48,6.86
2810.30,6.77
2838.40,6.79
2866.79,6.76
2895.46,6.71
2924.41,6.59
2953.65,6.48
2983.19,6.48
3013.02,6.46
3043.15,6.42
3073.58,6.34
3104.32,6.31
3135.36,6.22
3166.72,6.15
3198.38,6.09
3230.37,6.03
3262.67,5.96
3295.30,5.89
3328.25,5.78
3361.53,5.66
3395.15,5.53
3429.10,5.42
3463.39,5.29
3498.03,5.14
3533.01,4.92
3568.34,4.78
3604.02,4.72
3640.06,4.55
3676.46,4.36
3713.22,4.20
3750.36,4.10
3787.86,3.91
3825.74,3.72
3864.00,3.56
3902.64,3.49
3941.66,3.43
3981.08,3.35
4020.89,3.27
4061.10,3.21
4101.71,3.14
4142.73,3.07
4184.15,3.00
4226.00,2.90
4268.26,2.84
4310.94,2.85
4354.05,2.75
4397.59,2.70
4441.56,2.68
4485.98,2.58
4530.84,2.51
4576.15,2.53
4621.91,2.61
4668.13,2.63
4714.81,2.65
4761.96,2.65
4809.58,2.57
4857.67,2.45
4906.25,2.38
4955.31,2.30
5004.87,2.18
5054.91,2.13
5105.46,2.06
5156.52,1.98
5208.08,1.92
5260.16,1.87
5312.77,1.81
5365.89,1.75
5419.55,1.64
5473.75,1.53
5528.49,1.44
5583.77,1.26
5639.61,1.11
5696.00,0.97
5752.96,0.82
5810.49,0.66
5868.60,0.41
5927.28,0.24
5986.56,0.16
6046.42,0.04
6106.89,-0.10
6167.96,-0.27
6229.64,-0.48
6291.93,-0.69
6354.85,-0.92
6418.40,-1.17
6482.58,-1.45
6547.41,-1.77
6612.88,-2.12
6679.01,-2.50
6745.80,-2.82
6813.26,-3.13
6881.39,-3.51
6950.21,-3.72
7019.71,-3.84
7089.91,-3.91
7160.81,-3.90
7232.41,-3.78
7304.74,-3.54
7377.79,-3.24
7451.56,-2.70
7526.08,-2.03
7601.34,-1.29
7677.35,-0.56
7754.13,0.15
7831.67,0.54
7909.98,0.84
7989.08,0.97
8068.98,0.66
8149.67,0.16
8231.16,-0.54
8313.47,-1.27
8396.61,-1.99
8480.57,-2.61
8565.38,-3.67
8651.03,-4.98
8737.54,-6.54
8824.92,-8.42
8913.17,-9.88
9002.30,-11.13
9092.32,-11.35
9183.25,-11.60
9275.08,-11.90
9367.83,-12.29
9461.51,-12.36
9556.12,-11.89
9651.68,-10.58
9748.20,-8.22
9845.68,-5.32
9944.14,-3.10
10043.58,-1.59
10144.02,-0.54
10245.46,0.11
10347.91,0.71
10451.39,1.20
10555.91,1.09
10661.46,0.51
10768.08,-0.44
10875.76,-1.58
10984.52,-2.62
11094.36,-3.58
11205.31,-4.38
11317.36,-4.86
11430.53,-5.12
11544.84,-4.98
11660.29,-4.58
11776.89,-3.82
11894.66,-2.66
12013.60,-1.50
12133.74,-0.62
12255.08,-0.19
12377.63,-0.11
12501.41,-0.22
12626.42,-0.69
12752.68,-1.22
12880.21,-1.97
13009.01,-2.82
13139.10,-3.68
13270.49,-4.45
13403.20,-5.15
13537.23,-5.26
13672.60,-5.03
13809.33,-4.46
13947.42,-3.24
14086.90,-1.95
14227.77,-0.63
14370.04,0.37
14513.74,1.01
14658.88,1.36
14805.47,1.50
14953.52,1.28
15103.06,0.90
15254.09,0.45
15406.63,-0.22
15560.70,-0.90
15716.30,-1.62
15873.47,-1.92
16032.20,-1.90
16192.52,-1.08
16354.45,-0.92
16517.99,-1.26
16683.17,-2.73
16850.01,-4.16
17018.51,-5.51
17188.69,-6.43
17360.58,-6.90
17534.18,-7.02
17709.53,-6.75
17886.62,-6.92
18065.49,-7.26
18246.14,-7.65
18428.60,-8.04
18612.89,-8.66
18799.02,-9.60
18987.01,-11.00
19176.88,-12.65
19368.65,-14.09
19562.33,-15.15
19757.96,-15.70
19955.54,-16.25
