frequency,raw
20.00,-5.79
20.20,-5.72
20.40,-5.65
20.61,-5.59
20.81,-5.53
21.02,-5.48
21.23,-5.42
21.44,-5.37
21.66,-5.33
21.87,-5.28
22.09,-5.24
22.31,-5.19
22.54,-5.14
22.76,-5.10
22.99,-5.06
23.22,-5.02
23.45,-4.98
23.69,-4.94
23.92,-4.91
24.16,-4.87
24.40,-4.83
24.65,-4.79
24.89,-4.75
25.14,-4.71
25.39,-4.66
25.65,-4.62
25.91,-4.58
26.16,-4.54
26.43,-4.49
26.69,-4.45
26.96,-4.40
27.23,-4.35
27.50,-4.30
27.77,-4.25
28.05,-4.20
28.33,-4.16
28.62,-4.11
28.90,-4.06
29.19,-4.01
29.48,-3.97
29.78,-3.92
30.08,-3.88
30.38,-3.84
30.68,-3.80
30.99,-3.76
31.30,-3.73
31.61,-3.70
31.93,-3.68
32.24,-3.66
32.57,-3.63
32.89,-3.60
33.22,-3.57
33.55,-3.53
33.89,-3.50
34.23,-3.46
34.57,-3.42
34.92,-3.38
35.27,-3.35
35.62,-3.31
35.97,-3.28
36.33,-3.24
36.70,-3.20
37.06,-3.16
37.43,-3.11
37.81,-3.08
38.19,-3.05
38.57,-3.02
38.95,-3.00
39.34,-2.97
39.74,-2.94
40.14,-2.91
40.54,-2.88
40.94,-2.85
41.35,-2.82
41.76,-2.80
42.18,-2.78
42.60,-2.75
43.03,-2.73
43.46,-2.70
43.90,-2.67
44.33,-2.64
44.78,-2.61
45.23,-2.58
45.68,-2.56
46.13,-2.53
46.60,-2.51
47.06,-2.48
47.53,-2.46
48.01,-2.43
48.49,-2.41
48.97,-2.41
49.46,-2.40
49.96,-2.39
50.46,-2.36
50.96,-2.33
51.47,-2.30
51.99,-2.28
52.51,-2.26
53.03,-2.24
53.56,-2.21
54.10,-2.19
54.64,-2.18
55.18,-2.17
55.74,-2.15
56.29,-2.13
56.86,-2.12
57.42,-2.11
58.00,-2.10
58.58,-2.10
59.16,-2.09
59.76,-2.08
60.35,-2.08
60.96,-2.09
61.57,-2.11
62.18,-2.13
62.80,-2.16
63.43,-2.20
64.07,-2.26
64.71,-2.32
65.35,-2.38
66.01,-2.44
66.67,-2.50
67.33,-2.56
68.01,-2.61
68.69,-2.64
69.37,-2.65
70.07,-2.64
70.77,-2.60
71.48,-2.55
72.19,-2.49
72.91,-2.44
73.64,-2.41
74.38,-2.39
75.12,-2.39
75.87,-2.42
76.63,-2.47
77.40,-2.52
78.17,-2.53
78.95,-2.53
79.74,-2.47
80.54,-2.40
81.35,-2.34
82.16,-2.27
82.98,-2.17
83.81,-2.05
84.65,-1.98
85.50,-1.90
86.35,-1.81
87.22,-1.74
88.09,-1.69
88.97,-1.64
89.86,-1.59
90.76,-1.56
91.66,-1.53
92.58,-1.49
93.51,-1.46
94.44,-1.42
95.39,-1.40
96.34,-1.37
97.30,-1.36
98.28,-1.33
99.26,-1.31
100.25,-1.30
101.25,-1.28
102.27,-1.27
103.29,-1.26
104.32,-1.25
105.37,-1.24
106.42,-1.22
107.48,-1.21
108.56,-1.19
109.64,-1.18
110.74,-1.17
111.85,-1.15
112.97,-1.14
114.10,-1.13
115.24,-1.12
116.39,-1.10
117.55,-1.08
118.73,-1.07
119.92,-1.07
121.12,-1.06
122.33,-1.04
123.55,-1.03
124.79,-1.01
126.03,-1.01
127.29,-1.00
128.57,-0.98
129.85,-0.97
131.15,-0.96
132.46,-0.96
133.79,-0.95
135.12,-0.96
136.48,-0.96
137.84,-0.94
139.22,-0.95
140.61,-0.96
142.02,-0.94
143.44,-0.93
144.87,-0.91
146.32,-0.90
147.78,-0.90
149.26,-0.90
150.75,-0.90
152.26,-0.89
153.78,-0.89
155.32,-0.89
156.88,-0.88
158.44,-0.88
160.03,-0.89
161.63,-0.89
163.24,-0.88
164.88,-0.88
166.53,-0.89
168.19,-0.90
169.87,-0.90
171.57,-0.91
173.29,-0.91
175.02,-0.92
176.77,-0.91
178.54,-0.91
180.32,-0.91
182.13,-0.91
183.95,-0.90
185.79,-0.89
187.65,-0.87
189.52,-0.87
191.42,-0.86
193.33,-0.85
195.27,-0.84
197.22,-0.83
199.19,-0.82
201.18,-0.81
203.19,-0.80
205.23,-0.81
207.28,-0.80
209.35,-0.78
211.44,-0.79
213.56,-0.79
215.69,-0.80
217.85,-0.81
220.03,-0.82
222.23,-0.83
224.45,-0.85
226.70,-0.88
228.96,-0.89
231.25,-0.90
233.57,-0.90
235.90,-0.90
238.26,-0.90
240.64,-0.90
243.05,-0.90
245.48,-0.92
247.93,-0.93
250.41,-0.93
252.92,-0.93
255.45,-0.93
258.00,-0.93
260.58,-0.95
263.19,-0.96
265.82,-0.97
268.48,-0.98
271.16,-0.98
273.87,-0.99
276.61,-1.00
279.38,-1.00
282.17,-1.01
284.99,-1.01
287.84,-1.03
290.72,-1.04
293.63,-1.04
296.57,-1.04
299.53,-1.04
302.53,-1.02
305.55,-1.02
308.61,-1.01
311.69,-1.00
314.81,-1.00
317.96,-1.00
321.14,-1.01
324.35,-1.02
327.59,-1.02
330.87,-1.01
334.18,-1.00
337.52,-0.99
340.90,-0.99
344.30,-0.99
347.75,-1.00
351.23,-1.01
354.74,-1.00
358.28,-1.00
361.87,-1.00
365.49,-1.01
369.14,-1.04
372.83,-1.07
376.56,-1.10
380.33,-1.10
384.13,-1.08
387.97,-1.07
391.85,-1.06
395.77,-1.06
399.73,-1.07
403.72,-1.08
407.76,-1.08
411.84,-1.10
415.96,-1.06
420.12,-1.06
424.32,-1.10
428.56,-1.11
432.85,-1.11
437.18,-1.12
441.55,-1.11
445.96,-1.12
450.42,-1.13
454.93,-1.11
459.48,-1.11
464.07,-1.13
468.71,-1.16
473.40,-1.16
478.13,-1.15
482.91,-1.16
487.74,-1.19
492.62,-1.18
497.55,-1.20
502.52,-1.22
507.55,-1.22
512.62,-1.23
517.75,-1.24
522.93,-1.25
528.16,-1.26
533.44,-1.26
538.77,-1.25
544.16,-1.25
549.60,-1.24
555.10,-1.23
560.65,-1.23
566.25,-1.23
571.92,-1.22
577.64,-1.20
583.41,-1.18
589.25,-1.15
595.14,-1.11
601.09,-1.07
607.10,-1.02
613.17,-0.99
619.30,-0.94
625.50,-0.91
631.75,-0.88
638.07,-0.85
644.45,-0.82
650.89,-0.78
657.40,-0.75
663.98,-0.73
670.62,-0.71
677.32,-0.67
684.10,-0.64
690.94,-0.63
697.85,-0.59
704.83,-0.56
711.87,-0.53
718.99,-0.48
726.18,-0.45
733.44,-0.42
740.78,-0.39
748.19,-0.38
755.67,-0.34
763.23,-0.31
770.86,-0.30
778.57,-0.29
786.35,-0.27
794.22,-0.26
802.16,-0.26
810.18,-0.24
818.28,-0.20
826.46,-0.17
834.73,-0.15
843.08,-0.15
851.51,-0.17
860.02,-0.20
868.62,-0.29
877.31,-0.41
886.08,-0.57
894.94,-0.66
903.89,-0.70
912.93,-0.66
922.06,-0.56
931.28,-0.47
940.59,-0.39
950.00,-0.29
959.50,-0.23
969.09,-0.17
978.78,-0.09
988.57,0.00
998.46,-0.01
1008.44,0.07
1018.53,0.15
1028.71,0.20
1039.00,0.27
1049.39,0.32
1059.88,0.35
1070.48,0.38
1081.19,0.40
1092.00,0.44
1102.92,0.52
1113.95,0.62
1125.09,0.70
1136.34,0.73
1147.70,0.74
1159.18,0.82
1170.77,0.91
1182.48,1.04
1194.30,1.08
1206.25,1.12
1218.31,1.10
1230.49,1.13
1242.80,1.19
1255.22,1.22
1267.78,1.22
1280.45,1.29
1293.26,1.27
1306.19,1.24
1319.25,1.14
1332.45,1.27
1345.77,1.37
1359.23,1.39
1372.82,1.42
1386.55,1.43
1400.41,1.41
1414.42,1.51
1428.56,1.60
1442.85,1.52
1457.28,1.48
1471.85,1.50
1486.57,1.58
1501.43,1.65
1516.45,1.58
1531.61,1.60
1546.93,1.72
1562.40,1.75
1578.02,1.76
1593.80,1.77
1609.74,1.75
1625.84,1.72
1642.10,1.69
1658.52,1.69
1675.10,1.72
1691.85,1.64
1708.77,1.62
1725.86,1.65
1743.12,1.62
1760.55,1.63
1778.15,1.67
1795.94,1.74
1813.90,1.75
1832.03,1.76
1850.36,1.77
1868.86,1.85
1887.55,1.85
1906.42,1.84
1925.49,1.90
1944.74,1.88
1964.19,1.93
1983.83,2.02
2003.67,2.13
2023.71,2.31
2043.94,2.38
2064.38,2.38
2085.03,2.29
2105.88,2.29
2126.94,2.35
2148.20,2.45
2169.69,2.56
2191.38,2.68
2213.30,2.69
2235.43,2.64
2257.78,2.61
2280.36,2.68
2303.17,2.87
2326.20,3.08
2349.46,3.41
2372.95,3.59
2396.68,3.61
2420.65,3.68
2444.86,3.80
2469.31,3.94
2494.00,4.22
2518.94,4.45
2544.13,4.64
2569.57,4.73
2595.27,4.88
2621.22,5.07
2647.43,5.27
2673.90,5.46
2700.64,5.55
2727.65,5.51
2754.93,5.55
2782.48,5.83
2810.30,6.09
2838.40,6.27
2866.79,6.36
2895.46,6.39
2924.41,6.53
2953.65,6.68
2983.19,6.76
3013.02,6.87
3043.15,7.03
3073.58,7.16
3104.32,7.31
3135.36,7.34
3166.72,7.39
3198.38,7.48
3230.37,7.49
3262.67,7.47
3295.30,7.41
3328.25,7.32
3361.53,7.25
3395.15,7.24
3429.10,7.09
3463.39,6.96
3498.03,6.89
3533.01,6.84
3568.34,6.73
3604.02,6.55
3640.06,6.35
3676.46,6.19
3713.22,6.04
3750.36,5.89
3787.86,5.71
3825.74,5.53
3864.00,5.33
3902.64,5.11
3941.66,4.89
3981.08,4.73
4020.89,4.53
4061.10,4.29
4101.71,4.13
4142.73,3.96
4184.15,3.77
4226.00,3.51
4268.26,3.24
4310.94,2.95
4354.05,2.64
4397.59,2.37
4441.56,2.12
4485.98,1.83
4530.84,1.58
4576.15,1.39
4621.91,1.23
4668.13,1.36
4714.81,1.55
4761.96,1.80
4809.58,2.16
4857.67,2.70
4906.25,3.24
4955.31,3.78
5004.87,4.33
5054.91,5.01
5105.46,5.54
5156.52,5.93
5208.08,6.28
5260.16,6.69
5312.77,7.05
5365.89,7.22
5419.55,7.38
5473.75,7.56
5528.49,7.76
5583.77,7.91
5639.61,8.04
5696.00,8.15
5752.96,8.06
5810.49,7.93
5868.60,7.68
5927.28,7.27
5986.56,6.70
6046.42,6.16
6106.89,5.52
6167.96,4.72
6229.64,3.87
6291.93,3.18
6354.85,2.42
6418.40,1.71
6482.58,1.12
6547.41,0.49
6612.88,-0.10
6679.01,-0.51
6745.80,-0.93
6813.26,-1.31
6881.39,-1.53
6950.21,-1.79
7019.71,-2.04
7089.91,-2.22
7160.81,-2.45
7232.41,-2.69
7304.74,-2.93
7377.79,-3.25
7451.56,-3.56
7526.08,-3.86
7601.34,-4.18
7677.35,-4.40
7754.13,-4.59
7831.67,-4.82
7909.98,-5.04
7989.08,-5.23
8068.98,-5.33
8149.67,-5.36
8231.16,-5.31
8313.47,-4.99
8396.61,-4.56
8480.57,-3.97
8565.38,-3.09
8651.03,-2.15
8737.54,-1.30
8824.92,-1.20
8913.17,-2.00
9002.30,-3.12
9092.32,-4.73
9183.25,-6.07
9275.08,-7.20
9367.83,-8.10
9461.51,-8.65
9556.12,-9.02
9651.68,-9.32
9748.20,-9.65
9845.68,-9.70
9944.14,-9.45
10043.58,-8.92
10144.02,-8.22
10245.46,-6.97
10347.91,-5.49
10451.39,-3.79
10555.91,-2.15
10661.46,-0.83
10768.08,0.05
10875.76,-0.01
10984.52,-0.82
11094.36,-1.91
11205.31,-3.14
11317.36,-4.31
11430.53,-5.41
11544.84,-6.30
11660.29,-7.00
11776.89,-7.38
11894.66,-7.15
12013.60,-6.84
12133.74,-6.14
12255.08,-5.03
12377.63,-3.71
12501.41,-2.31
12626.42,-0.78
12752.68,0.40
12880.21,0.63
13009.01,0.35
13139.10,0.07
13270.49,-0.83
13403.20,-1.85
13537.23,-2.72
13672.60,-3.46
13809.33,-4.08
13947.42,-4.44
14086.90,-4.67
14227.77,-4.83
14370.04,-4.94
14513.74,-4.99
14658.88,-4.93
14805.47,-5.25
14953.52,-6.17
15103.06,-7.96
15254.09,-10.13
15406.63,-11.88
15560.70,-12.85
15716.30,-12.62
15873.47,-11.60
16032.20,-10.28
16192.52,-8.63
16354.45,-7.23
16517.99,-6.04
16683.17,-5.37
16850.01,-5.04
17018.51,-4.96
17188.69,-5.04
17360.58,-5.24
17534.18,-5.57
17709.53,-6.13
17886.62,-7.21
18065.49,-8.75
18246.14,-10.86
18428.60,-13.37
18612.89,-15.10
18799.02,-15.64
18987.01,-14.25
19176.88,-11.99
19368.65,-10.40
19562.33,-9.40
19757.96,-8.69
19955.54,-7.97
