frequency,raw
20.00,-3.00
20.20,-2.88
20.40,-2.77
20.61,-2.66
20.81,-2.56
21.02,-2.46
21.23,-2.37
21.44,-2.29
21.66,-2.21
21.87,-2.13
22.09,-2.05
22.31,-1.98
22.54,-1.91
22.76,-1.85
22.99,-1.79
23.22,-1.74
23.45,-1.70
23.69,-1.65
23.92,-1.61
24.16,-1.57
24.40,-1.53
24.65,-1.49
24.89,-1.44
25.14,-1.40
25.39,-1.35
25.65,-1.30
25.91,-1.25
26.16,-1.20
26.43,-1.13
26.69,-1.06
26.96,-0.99
27.23,-0.91
27.50,-0.84
27.77,-0.76
28.05,-0.68
28.33,-0.61
28.62,-0.53
28.90,-0.45
29.19,-0.38
29.48,-0.31
29.78,-0.24
30.08,-0.18
30.38,-0.12
30.68,-0.06
30.99,-0.01
31.30,0.04
31.61,0.08
31.93,0.13
32.24,0.17
32.57,0.21
32.89,0.25
33.22,0.30
33.55,0.34
33.89,0.38
34.23,0.41
34.57,0.45
34.92,0.49
35.27,0.54
35.62,0.59
35.97,0.64
36.33,0.69
36.70,0.74
37.06,0.79
37.43,0.85
37.81,0.89
38.19,0.94
38.57,0.99
38.95,1.03
39.34,1.06
39.74,1.10
40.14,1.13
40.54,1.17
40.94,1.20
41.35,1.23
41.76,1.26
42.18,1.29
42.60,1.32
43.03,1.36
43.46,1.39
43.90,1.42
44.33,1.44
44.78,1.47
45.23,1.50
45.68,1.53
46.13,1.56
46.60,1.58
47.06,1.60
47.53,1.63
48.01,1.66
48.49,1.69
48.97,1.72
49.46,1.74
49.96,1.76
50.46,1.78
50.96,1.81
51.47,1.84
51.99,1.86
52.51,1.88
53.03,1.91
53.56,1.93
54.10,1.94
54.64,1.96
55.18,1.97
55.74,1.99
56.29,2.00
56.86,2.01
57.42,2.02
58.00,2.03
58.58,2.04
59.16,2.06
59.76,2.08
60.35,2.09
60.96,2.10
61.57,2.10
62.18,2.11
62.80,2.12
63.43,2.12
64.07,2.12
64.71,2.13
65.35,2.13
66.01,2.12
66.67,2.13
67.33,2.13
68.01,2.13
68.69,2.13
69.37,2.13
70.07,2.13
70.77,2.12
71.48,2.11
72.19,2.11
72.91,2.10
73.64,2.09
74.38,2.08
75.12,2.07
75.87,2.06
76.63,2.04
77.40,2.03
78.17,2.02
78.95,2.01
79.74,2.00
80.54,1.98
81.35,1.96
82.16,1.95
82.98,1.94
83.81,1.93
84.65,1.93
85.50,1.91
86.35,1.89
87.22,1.89
88.09,1.88
88.97,1.87
89.86,1.85
90.76,1.84
91.66,1.84
92.58,1.83
93.51,1.81
94.44,1.80
95.39,1.78
96.34,1.77
97.30,1.75
98.28,1.73
99.26,1.72
100.25,1.70
101.25,1.67
102.27,1.66
103.29,1.65
104.32,1.64
105.37,1.63
106.42,1.62
107.48,1.61
108.56,1.59
109.64,1.59
110.74,1.58
111.85,1.57
112.97,1.56
114.10,1.56
115.24,1.56
116.39,1.56
117.55,1.55
118.73,1.55
119.92,1.56
121.12,1.56
122.33,1.54
123.55,1.53
124.79,1.53
126.03,1.53
127.29,1.53
128.57,1.52
129.85,1.52
131.15,1.51
132.46,1.50
133.79,1.49
135.12,1.49
136.48,1.49
137.84,1.47
139.22,1.46
140.61,1.45
142.02,1.44
143.44,1.43
144.87,1.43
146.32,1.43
147.78,1.43
149.26,1.41
150.75,1.40
152.26,1.40
153.78,1.39
155.32,1.37
156.88,1.36
158.44,1.35
160.03,1.35
161.63,1.33
163.24,1.32
164.88,1.31
166.53,1.30
168.19,1.29
169.87,1.28
171.57,1.27
173.29,1.25
175.02,1.23
176.77,1.22
178.54,1.22
180.32,1.22
182.13,1.23
183.95,1.23
185.79,1.23
187.65,1.23
189.52,1.23
191.42,1.23
193.33,1.23
195.27,1.23
197.22,1.23
199.19,1.24
201.18,1.24
203.19,1.24
205.23,1.24
207.28,1.24
209.35,1.24
211.44,1.22
213.56,1.21
215.69,1.21
217.85,1.19
220.03,1.19
222.23,1.18
224.45,1.18
226.70,1.18
228.96,1.19
231.25,1.20
233.57,1.20
235.90,1.20
238.26,1.20
240.64,1.20
243.05,1.19
245.48,1.20
247.93,1.20
250.41,1.20
252.92,1.22
255.45,1.23
258.00,1.22
260.58,1.23
263.19,1.23
265.82,1.23
268.48,1.23
271.16,1.24
273.87,1.24
276.61,1.24
279.38,1.24
282.17,1.25
284.99,1.26
287.84,1.27
290.72,1.28
293.63,1.28
296.57,1.29
299.53,1.30
302.53,1.31
305.55,1.32
308.61,1.33
311.69,1.34
314.81,1.36
317.96,1.37
321.14,1.38
324.35,1.39
327.59,1.40
330.87,1.42
334.18,1.45
337.52,1.45
340.90,1.46
344.30,1.49
347.75,1.49
351.23,1.49
354.74,1.50
358.28,1.50
361.87,1.49
365.49,1.45
369.14,1.36
372.83,1.27
376.56,1.25
380.33,1.34
384.13,1.40
387.97,1.44
391.85,1.46
395.77,1.48
399.73,1.48
403.72,1.49
407.76,1.48
411.84,1.45
415.96,1.46
420.12,1.45
424.32,1.42
428.56,1.39
432.85,1.37
437.18,1.36
441.55,1.30
445.96,1.25
450.42,1.21
454.93,1.18
459.48,1.12
464.07,1.07
468.71,1.03
473.40,1.03
478.13,1.02
482.91,1.01
487.74,1.01
492.62,1.01
497.55,1.02
502.52,1.02
507.55,1.03
512.62,1.04
517.75,1.05
522.93,1.06
528.16,1.07
533.44,1.09
538.77,1.11
544.16,1.11
549.60,1.11
555.10,1.10
560.65,1.08
566.25,1.07
571.92,1.06
577.64,1.05
583.41,1.05
589.25,1.06
595.14,1.04
601.09,1.02
607.10,0.99
613.17,0.94
619.30,0.92
625.50,0.91
631.75,0.88
638.07,0.85
644.45,0.82
650.89,0.79
657.40,0.78
663.98,0.76
670.62,0.74
677.32,0.72
684.10,0.70
690.94,0.68
697.85,0.66
704.83,0.64
711.87,0.62
718.99,0.58
726.18,0.52
733.44,0.49
740.78,0.50
748.19,0.50
755.67,0.48
763.23,0.45
770.86,0.44
778.57,0.43
786.35,0.42
794.22,0.39
802.16,0.36
810.18,0.38
818.28,0.39
826.46,0.40
834.73,0.41
843.08,0.42
851.51,0.43
860.02,0.41
868.62,0.37
877.31,0.34
886.08,0.34
894.94,0.28
903.89,0.22
912.93,0.17
922.06,0.08
931.28,-0.00
940.59,-0.05
950.00,-0.02
959.50,-0.04
969.09,-0.01
978.78,0.01
988.57,-0.00
998.46,-0.01
1008.44,0.05
1018.53,0.10
1028.71,0.10
1039.00,0.03
1049.39,0.01
1059.88,0.03
1070.48,0.09
1081.19,0.13
1092.00,0.13
1102.92,0.12
1113.95,0.05
1125.09,0.04
1136.34,0.12
1147.70,0.17
1159.18,0.16
1170.77,0.13
1182.48,0.08
1194.30,0.11
1206.25,0.14
1218.31,0.19
1230.49,0.11
1242.80,0.02
1255.22,0.04
1267.78,0.11
1280.45,0.24
1293.26,0.24
1306.19,0.23
1319.25,0.15
1332.45,0.06
1345.77,-0.01
1359.23,-0.05
1372.82,0.05
1386.55,0.12
1400.41,0.13
1414.42,0.11
1428.56,0.10
1442.85,0.18
1457.28,0.23
1471.85,0.23
1486.57,0.24
1501.43,0.26
1516.45,0.32
1531.61,0.37
1546.93,0.41
1562.40,0.42
1578.02,0.43
1593.80,0.46
1609.74,0.45
1625.84,0.42
1642.10,0.46
1658.52,0.47
1675.10,0.45
1691.85,0.39
1708.77,0.35
1725.86,0.34
1743.12,0.53
1760.55,0.73
1778.15,0.93
1795.94,1.10
1813.90,1.25
1832.03,1.38
1850.36,1.51
1868.86,1.60
1887.55,1.71
1906.42,1.82
1925.49,1.91
1944.74,2.01
1964.19,2.14
1983.83,2.23
2003.67,2.29
2023.71,2.40
2043.94,2.50
2064.38,2.60
2085.03,2.69
2105.88,2.75
2126.94,2.82
2148.20,2.88
2169.69,2.94
2191.38,3.01
2213.30,3.10
2235.43,3.20
2257.78,3.26
2280.36,3.31
2303.17,3.34
2326.20,3.39
2349.46,3.45
2372.95,3.53
2396.68,3.64
2420.65,3.84
2444.86,4.08
2469.31,4.34
2494.00,4.57
2518.94,4.82
2544.13,5.04
2569.57,5.16
2595.27,5.30
2621.22,5.44
2647.43,5.59
2673.90,5.72
2700.64,5.84
2727.65,5.95
2754.93,6.05
2782.48,6.15
2810.30,6.25
2838.40,6.34
2866.79,6.42
2895.46,6.49
2924.41,6.54
2953.65,6.59
2983.19,6.64
3013.02,6.66
3043.15,6.63
3073.58,6.63
3104.32,6.64
3135.36,6.65
3166.72,6.63
3198.38,6.59
3230.37,6.51
3262.67,6.43
3295.30,6.32
3328.25,6.15
3361.53,5.97
3395.15,5.77
3429.10,5.54
3463.39,5.30
3498.03,5.04
3533.01,4.75
3568.34,4.45
3604.02,4.13
3640.06,3.78
3676.46,3.43
3713.22,3.07
3750.36,2.69
3787.86,2.34
3825.74,1.98
3864.00,1.64
3902.64,1.28
3941.66,0.91
3981.08,0.52
4020.89,0.16
4061.10,-0.16
4101.71,-0.50
4142.73,-0.83
4184.15,-1.11
4226.00,-1.12
4268.26,-1.12
4310.94,-1.11
4354.05,-1.36
4397.59,-1.59
4441.56,-1.80
4485.98,-1.73
4530.84,-1.35
4576.15,-0.46
4621.91,0.74
4668.13,2.55
4714.81,4.29
4761.96,5.78
4809.58,6.59
4857.67,6.72
4906.25,6.39
4955.31,5.96
5004.87,5.52
5054.91,5.24
5105.46,5.06
5156.52,4.98
5208.08,5.06
5260.16,5.32
5312.77,5.69
5365.89,6.23
5419.55,6.79
5473.75,7.31
5528.49,7.78
5583.77,8.12
5639.61,8.17
5696.00,8.11
5752.96,7.55
5810.49,6.90
5868.60,5.99
5927.28,5.03
5986.56,4.00
6046.42,2.94
6106.89,1.90
6167.96,0.87
6229.64,-0.13
6291.93,-1.03
6354.85,-1.88
6418.40,-2.69
6482.58,-3.41
6547.41,-4.11
6612.88,-4.77
6679.01,-5.36
6745.80,-5.93
6813.26,-6.46
6881.39,-6.88
6950.21,-7.15
7019.71,-7.38
7089.91,-7.63
7160.81,-7.60
7232.41,-7.37
7304.74,-6.94
7377.79,-6.26
7451.56,-5.51
7526.08,-4.70
7601.34,-3.84
7677.35,-3.16
7754.13,-2.56
7831.67,-2.30
7909.98,-2.16
7989.08,-2.20
8068.98,-2.31
8149.67,-2.43
8231.16,-2.55
8313.47,-2.48
8396.61,-2.33
8480.57,-2.14
8565.38,-1.84
8651.03,-1.45
8737.54,-0.93
8824.92,-0.32
8913.17,0.24
9002.30,0.77
9092.32,0.77
9183.25,0.28
9275.08,-0.59
9367.83,-1.94
9461.51,-3.44
9556.12,-5.00
9651.68,-6.57
9748.20,-8.14
9845.68,-9.63
9944.14,-11.07
10043.58,-12.32
10144.02,-13.37
10245.46,-13.66
10347.91,-13.37
10451.39,-12.39
10555.91,-10.73
10661.46,-8.95
10768.08,-7.11
10875.76,-5.33
10984.52,-4.39
11094.36,-4.05
11205.31,-4.53
11317.36,-5.69
11430.53,-6.93
11544.84,-8.09
11660.29,-8.96
11776.89,-9.60
11894.66,-8.94
12013.60,-8.03
12133.74,-6.49
12255.08,-4.66
12377.63,-2.96
12501.41,-1.53
12626.42,-0.48
12752.68,0.27
12880.21,0.38
13009.01,0.16
13139.10,-0.07
13270.49,-0.69
13403.20,-1.29
13537.23,-1.85
13672.60,-2.60
13809.33,-3.53
13947.42,-4.64
14086.90,-5.54
14227.77,-6.32
14370.04,-6.92
14513.74,-7.36
14658.88,-8.10
14805.47,-9.33
14953.52,-11.36
15103.06,-14.22
15254.09,-17.41
15406.63,-18.70
15560.70,-19.30
15716.30,-18.85
15873.47,-17.56
16032.20,-16.17
16192.52,-15.29
16354.45,-14.88
16517.99,-14.72
16683.17,-14.42
16850.01,-13.88
17018.51,-13.25
17188.69,-13.25
17360.58,-13.68
17534.18,-14.50
17709.53,-15.91
17886.62,-17.77
18065.49,-19.84
18246.14,-22.07
18428.60,-21.66
18612.89,-19.95
18799.02,-17.71
18987.01,-16.23
19176.88,-16.08
19368.65,-16.48
19562.33,-17.09
19757.96,-17.53
19955.54,-17.97
