frequency,raw
20.00,-2.41
20.20,-2.39
20.40,-2.37
20.61,-2.35
20.81,-2.32
21.02,-2.30
21.23,-2.27
21.44,-2.24
21.66,-2.21
21.87,-2.18
22.09,-2.15
22.31,-2.12
22.54,-2.08
22.76,-2.05
22.99,-2.01
23.22,-1.97
23.45,-1.93
23.69,-1.89
23.92,-1.84
24.16,-1.81
24.40,-1.77
24.65,-1.74
24.89,-1.71
25.14,-1.69
25.39,-1.66
25.65,-1.62
25.91,-1.59
26.16,-1.56
26.43,-1.54
26.69,-1.52
26.96,-1.51
27.23,-1.50
27.50,-1.49
27.77,-1.48
28.05,-1.47
28.33,-1.45
28.62,-1.44
28.90,-1.44
29.19,-1.44
29.48,-1.44
29.78,-1.44
30.08,-1.43
30.38,-1.40
30.68,-1.37
30.99,-1.33
31.30,-1.30
31.61,-1.27
31.93,-1.26
32.24,-1.24
32.57,-1.22
32.89,-1.19
33.22,-1.15
33.55,-1.11
33.89,-1.09
34.23,-1.07
34.57,-1.07
34.92,-1.06
35.27,-1.04
35.62,-1.01
35.97,-0.99
36.33,-0.97
36.70,-0.98
37.06,-0.99
37.43,-1.00
37.81,-0.99
38.19,-0.98
38.57,-0.96
38.95,-0.95
39.34,-0.94
39.74,-0.94
40.14,-0.95
40.54,-0.95
40.94,-0.95
41.35,-0.93
41.76,-0.91
42.18,-0.90
42.60,-0.90
43.03,-0.92
43.46,-0.94
43.90,-0.95
44.33,-0.95
44.78,-0.95
45.23,-0.94
45.68,-0.94
46.13,-0.95
46.60,-0.96
47.06,-0.98
47.53,-1.01
48.01,-1.03
48.49,-1.03
48.97,-1.02
49.46,-1.00
49.96,-0.99
50.46,-0.99
50.96,-0.99
51.47,-0.99
51.99,-0.98
52.51,-0.97
53.03,-0.97
53.56,-0.97
54.10,-0.95
54.64,-0.93
55.18,-0.91
55.74,-0.89
56.29,-0.88
56.86,-0.86
57.42,-0.85
58.00,-0.83
58.58,-0.84
59.16,-0.86
59.76,-0.89
60.35,-0.92
60.96,-0.96
61.57,-1.00
62.18,-1.04
62.80,-1.09
63.43,-1.14
64.07,-1.19
64.71,-1.24
65.35,-1.28
66.01,-1.31
66.67,-1.36
67.33,-1.40
68.01,-1.44
68.69,-1.48
69.37,-1.52
70.07,-1.54
70.77,-1.56
71.48,-1.57
72.19,-1.58
72.91,-1.58
73.64,-1.55
74.38,-1.53
75.12,-1.50
75.87,-1.47
76.63,-1.41
77.40,-1.33
78.17,-1.26
78.95,-1.18
79.74,-1.11
80.54,-1.02
81.35,-0.93
82.16,-0.84
82.98,-0.74
83.81,-0.64
84.65,-0.53
85.50,-0.43
86.35,-0.33
87.22,-0.23
88.09,-0.13
88.97,-0.04
89.86,0.05
90.76,0.13
91.66,0.20
92.58,0.27
93.51,0.35
94.44,0.41
95.39,0.46
96.34,0.51
97.30,0.56
98.28,0.60
99.26,0.63
100.25,0.66
101.25,0.69
102.27,0.72
103.29,0.75
104.32,0.78
105.37,0.81
106.42,0.84
107.48,0.86
108.56,0.89
109.64,0.91
110.74,0.93
111.85,0.94
112.97,0.97
114.10,1.00
115.24,1.02
116.39,1.05
117.55,1.07
118.73,1.08
119.92,1.09
121.12,1.10
122.33,1.10
123.55,1.12
124.79,1.17
126.03,1.18
127.29,1.20
128.57,1.22
129.85,1.23
131.15,1.25
132.46,1.26
133.79,1.27
135.12,1.28
136.48,1.30
137.84,1.31
139.22,1.33
140.61,1.34
142.02,1.36
143.44,1.38
144.87,1.39
146.32,1.39
147.78,1.40
149.26,1.41
150.75,1.41
152.26,1.40
153.78,1.41
155.32,1.41
156.88,1.41
158.44,1.42
160.03,1.41
161.63,1.40
163.24,1.38
164.88,1.37
166.53,1.35
168.19,1.32
169.87,1.30
171.57,1.27
173.29,1.24
175.02,1.20
176.77,1.15
178.54,1.11
180.32,1.07
182.13,1.01
183.95,0.99
185.79,0.96
187.65,0.92
189.52,0.87
191.42,0.82
193.33,0.78
195.27,0.73
197.22,0.69
199.19,0.64
201.18,0.60
203.19,0.56
205.23,0.55
207.28,0.55
209.35,0.55
211.44,0.51
213.56,0.49
215.69,0.46
217.85,0.42
220.03,0.40
222.23,0.37
224.45,0.34
226.70,0.30
228.96,0.28
231.25,0.25
233.57,0.22
235.90,0.21
238.26,0.18
240.64,0.16
243.05,0.13
245.48,0.11
247.93,0.10
250.41,0.08
252.92,0.05
255.45,0.03
258.00,0.02
260.58,0.00
263.19,-0.02
265.82,-0.03
268.48,-0.05
271.16,-0.07
273.87,-0.09
276.61,-0.10
279.38,-0.12
282.17,-0.13
284.99,-0.15
287.84,-0.15
290.72,-0.16
293.63,-0.15
296.57,-0.16
299.53,-0.16
302.53,-0.17
305.55,-0.17
308.61,-0.17
311.69,-0.17
314.81,-0.18
317.96,-0.19
321.14,-0.19
324.35,-0.20
327.59,-0.20
330.87,-0.20
334.18,-0.22
337.52,-0.24
340.90,-0.25
344.30,-0.28
347.75,-0.29
351.23,-0.31
354.74,-0.35
358.28,-0.39
361.87,-0.46
365.49,-0.53
369.14,-0.64
372.83,-0.68
376.56,-0.63
380.33,-0.49
384.13,-0.43
387.97,-0.43
391.85,-0.45
395.77,-0.47
399.73,-0.49
403.72,-0.52
407.76,-0.54
411.84,-0.57
415.96,-0.61
420.12,-0.64
424.32,-0.66
428.56,-0.69
432.85,-0.71
437.18,-0.73
441.55,-0.73
445.96,-0.75
450.42,-0.79
454.93,-0.80
459.48,-0.83
464.07,-0.87
468.71,-0.90
473.40,-0.95
478.13,-0.99
482.91,-1.03
487.74,-1.08
492.62,-1.15
497.55,-1.21
502.52,-1.27
507.55,-1.33
512.62,-1.40
517.75,-1.46
522.93,-1.52
528.16,-1.57
533.44,-1.62
538.77,-1.67
544.16,-1.71
549.60,-1.74
555.10,-1.75
560.65,-1.76
566.25,-1.78
571.92,-1.79
577.64,-1.78
583.41,-1.77
589.25,-1.77
595.14,-1.76
601.09,-1.74
607.10,-1.72
613.17,-1.73
619.30,-1.75
625.50,-1.76
631.75,-1.76
638.07,-1.78
644.45,-1.79
650.89,-1.80
657.40,-1.79
663.98,-1.78
670.62,-1.77
677.32,-1.76
684.10,-1.74
690.94,-1.71
697.85,-1.67
704.83,-1.60
711.87,-1.52
718.99,-1.44
726.18,-1.33
733.44,-1.22
740.78,-1.12
748.19,-1.01
755.67,-0.89
763.23,-0.78
770.86,-0.67
778.57,-0.56
786.35,-0.45
794.22,-0.35
802.16,-0.26
810.18,-0.17
818.28,-0.09
826.46,-0.01
834.73,0.05
843.08,0.10
851.51,0.14
860.02,0.18
868.62,0.20
877.31,0.22
886.08,0.24
894.94,0.24
903.89,0.24
912.93,0.24
922.06,0.25
931.28,0.24
940.59,0.23
950.00,0.21
959.50,0.19
969.09,0.16
978.78,0.12
988.57,0.08
998.46,0.00
1008.44,-0.02
1018.53,-0.04
1028.71,-0.08
1039.00,-0.13
1049.39,-0.18
1059.88,-0.23
1070.48,-0.27
1081.19,-0.31
1092.00,-0.35
1102.92,-0.38
1113.95,-0.41
1125.09,-0.42
1136.34,-0.42
1147.70,-0.44
1159.18,-0.45
1170.77,-0.45
1182.48,-0.44
1194.30,-0.44
1206.25,-0.43
1218.31,-0.42
1230.49,-0.41
1242.80,-0.39
1255.22,-0.39
1267.78,-0.39
1280.45,-0.41
1293.26,-0.46
1306.19,-0.51
1319.25,-0.57
1332.45,-0.72
1345.77,-0.92
1359.23,-1.16
1372.82,-1.57
1386.55,-2.10
1400.41,-2.73
1414.42,-3.59
1428.56,-4.45
1442.85,-5.39
1457.28,-6.20
1471.85,-6.89
1486.57,-7.31
1501.43,-7.64
1516.45,-7.83
1531.61,-7.93
1546.93,-7.91
1562.40,-7.76
1578.02,-7.56
1593.80,-7.27
1609.74,-6.98
1625.84,-6.70
1642.10,-6.37
1658.52,-6.04
1675.10,-5.72
1691.85,-5.44
1708.77,-5.19
1725.86,-4.95
1743.12,-4.70
1760.55,-4.45
1778.15,-4.20
1795.94,-3.98
1813.90,-3.76
1832.03,-3.55
1850.36,-3.35
1868.86,-3.13
1887.55,-2.91
1906.42,-2.70
1925.49,-2.53
1944.74,-2.34
1964.19,-2.16
1983.83,-1.98
2003.67,-1.78
2023.71,-1.64
2043.94,-1.44
2064.38,-1.21
2085.03,-0.95
2105.88,-0.67
2126.94,-0.39
2148.20,-0.10
2169.69,0.22
2191.38,0.53
2213.30,0.84
2235.43,1.15
2257.78,1.45
2280.36,1.76
2303.17,2.06
2326.20,2.36
2349.46,2.64
2372.95,2.91
2396.68,3.19
2420.65,3.45
2444.86,3.70
2469.31,3.95
2494.00,4.18
2518.94,4.39
2544.13,4.59
2569.57,4.78
2595.27,4.95
2621.22,5.12
2647.43,5.28
2673.90,5.43
2700.64,5.57
2727.65,5.69
2754.93,5.80
2782.48,5.89
2810.30,5.98
2838.40,6.05
2866.79,6.10
2895.46,6.13
2924.41,6.13
2953.65,6.12
2983.19,6.07
3013.02,6.03
3043.15,5.99
3073.58,5.94
3104.32,5.87
3135.36,5.77
3166.72,5.64
3198.38,5.49
3230.37,5.33
3262.67,5.16
3295.30,4.98
3328.25,4.77
3361.53,4.55
3395.15,4.32
3429.10,4.09
3463.39,3.85
3498.03,3.60
3533.01,3.34
3568.34,3.09
3604.02,2.84
3640.06,2.60
3676.46,2.40
3713.22,2.25
3750.36,2.18
3787.86,2.29
3825.74,2.43
3864.00,2.72
3902.64,3.07
3941.66,3.43
3981.08,3.73
4020.89,3.95
4061.10,4.09
4101.71,4.10
4142.73,4.08
4184.15,4.05
4226.00,4.04
4268.26,4.06
4310.94,4.12
4354.05,4.19
4397.59,4.22
4441.56,4.23
4485.98,4.16
4530.84,4.07
4576.15,3.97
4621.91,3.87
4668.13,3.80
4714.81,3.79
4761.96,3.84
4809.58,3.99
4857.67,4.28
4906.25,4.68
4955.31,5.11
5004.87,5.57
5054.91,5.98
5105.46,6.39
5156.52,6.80
5208.08,7.22
5260.16,7.68
5312.77,8.17
5365.89,8.71
5419.55,9.30
5473.75,9.92
5528.49,10.53
5583.77,11.09
5639.61,11.38
5696.00,11.56
5752.96,11.13
5810.49,10.58
5868.60,9.63
5927.28,8.56
5986.56,7.35
6046.42,6.01
6106.89,4.65
6167.96,3.30
6229.64,1.96
6291.93,0.61
6354.85,-0.90
6418.40,-2.52
6482.58,-4.35
6547.41,-6.34
6612.88,-8.32
6679.01,-10.07
6745.80,-11.15
6813.26,-11.70
6881.39,-11.29
6950.21,-10.63
7019.71,-10.05
7089.91,-9.91
7160.81,-10.38
7232.41,-11.06
7304.74,-11.83
7377.79,-12.22
7451.56,-11.40
7526.08,-9.81
7601.34,-7.77
7677.35,-5.95
7754.13,-4.22
7831.67,-2.88
7909.98,-1.72
7989.08,-0.84
8068.98,-0.40
8149.67,-0.46
8231.16,-1.25
8313.47,-3.34
8396.61,-5.88
8480.57,-8.66
8565.38,-9.67
8651.03,-9.96
8737.54,-9.91
8824.92,-10.91
8913.17,-12.68
9002.30,-14.70
9092.32,-16.78
9183.25,-17.41
9275.08,-16.96
9367.83,-15.35
9461.51,-13.77
9556.12,-12.60
9651.68,-11.65
9748.20,-10.60
9845.68,-9.45
9944.14,-8.32
10043.58,-7.24
10144.02,-6.18
10245.46,-5.60
10347.91,-5.33
10451.39,-5.40
10555.91,-5.59
10661.46,-5.84
10768.08,-6.13
10875.76,-6.39
10984.52,-6.62
11094.36,-6.86
11205.31,-7.15
11317.36,-7.77
11430.53,-8.51
11544.84,-9.42
11660.29,-10.36
11776.89,-10.76
11894.66,-9.43
12013.60,-7.82
12133.74,-5.75
12255.08,-3.85
12377.63,-2.50
12501.41,-1.89
12626.42,-2.10
12752.68,-2.48
12880.21,-3.85
13009.01,-5.79
13139.10,-7.74
13270.49,-9.15
13403.20,-9.91
13537.23,-9.34
13672.60,-9.14
13809.33,-9.30
13947.42,-9.76
14086.90,-9.54
14227.77,-8.91
14370.04,-7.59
14513.74,-5.64
14658.88,-4.34
14805.47,-3.88
14953.52,-4.79
15103.06,-7.11
15254.09,-10.12
15406.63,-14.48
15560.70,-17.07
15716.30,-16.95
15873.47,-15.38
16032.20,-13.44
16192.52,-11.64
16354.45,-10.29
16517.99,-9.24
16683.17,-8.62
16850.01,-8.50
17018.51,-8.68
17188.69,-8.70
17360.58,-8.84
17534.18,-9.22
17709.53,-10.35
17886.62,-11.62
18065.49,-13.27
18246.14,-15.52
18428.60,-18.17
18612.89,-18.62
18799.02,-17.64
18987.01,-16.58
19176.88,-16.03
19368.65,-14.01
19562.33,-11.37
19757.96,-9.45
19955.54,-7.53
