frequency,raw
20.00,-1.47
20.20,-1.45
20.40,-1.43
20.61,-1.41
20.81,-1.38
21.02,-1.35
21.23,-1.30
21.44,-1.24
21.66,-1.17
21.87,-1.11
22.09,-1.05
22.31,-0.99
22.54,-0.94
22.76,-0.89
22.99,-0.85
23.22,-0.81
23.45,-0.77
23.69,-0.74
23.92,-0.72
24.16,-0.69
24.40,-0.68
24.65,-0.66
24.89,-0.64
25.14,-0.61
25.39,-0.57
25.65,-0.53
25.91,-0.49
26.16,-0.44
26.43,-0.40
26.69,-0.36
26.96,-0.31
27.23,-0.26
27.50,-0.21
27.77,-0.16
28.05,-0.11
28.33,-0.08
28.62,-0.04
28.90,-0.00
29.19,0.03
29.48,0.07
29.78,0.10
30.08,0.13
30.38,0.16
30.68,0.18
30.99,0.20
31.30,0.23
31.61,0.25
31.93,0.27
32.24,0.28
32.57,0.28
32.89,0.28
33.22,0.29
33.55,0.30
33.89,0.32
34.23,0.35
34.57,0.39
34.92,0.43
35.27,0.45
35.62,0.47
35.97,0.48
36.33,0.50
36.70,0.53
37.06,0.56
37.43,0.60
37.81,0.65
38.19,0.69
38.57,0.72
38.95,0.74
39.34,0.76
39.74,0.77
40.14,0.78
40.54,0.80
40.94,0.81
41.35,0.83
41.76,0.85
42.18,0.85
42.60,0.85
43.03,0.85
43.46,0.86
43.90,0.87
44.33,0.90
44.78,0.93
45.23,0.96
45.68,0.98
46.13,1.00
46.60,1.03
47.06,1.06
47.53,1.08
48.01,1.11
48.49,1.14
48.97,1.18
49.46,1.21
49.96,1.24
50.46,1.24
50.96,1.25
51.47,1.27
51.99,1.31
52.51,1.32
53.03,1.32
53.56,1.32
54.10,1.32
54.64,1.33
55.18,1.34
55.74,1.34
56.29,1.33
56.86,1.32
57.42,1.33
58.00,1.35
58.58,1.36
59.16,1.36
59.76,1.34
60.35,1.34
60.96,1.36
61.57,1.36
62.18,1.36
62.80,1.35
63.43,1.34
64.07,1.33
64.71,1.33
65.35,1.33
66.01,1.34
66.67,1.33
67.33,1.33
68.01,1.34
68.69,1.36
69.37,1.37
70.07,1.38
70.77,1.40
71.48,1.42
72.19,1.43
72.91,1.44
73.64,1.44
74.38,1.45
75.12,1.46
75.87,1.47
76.63,1.49
77.40,1.51
78.17,1.52
78.95,1.54
79.74,1.55
80.54,1.57
81.35,1.58
82.16,1.60
82.98,1.62
83.81,1.63
84.65,1.65
85.50,1.66
86.35,1.68
87.22,1.70
88.09,1.72
88.97,1.74
89.86,1.76
90.76,1.78
91.66,1.80
92.58,1.81
93.51,1.83
94.44,1.84
95.39,1.86
96.34,1.87
97.30,1.89
98.28,1.90
99.26,1.91
100.25,1.93
101.25,1.93
102.27,1.95
103.29,1.96
104.32,1.98
105.37,1.99
106.42,2.00
107.48,2.01
108.56,2.02
109.64,2.03
110.74,2.04
111.85,2.05
112.97,2.06
114.10,2.08
115.24,2.09
116.39,2.09
117.55,2.10
118.73,2.11
119.92,2.12
121.12,2.13
122.33,2.14
123.55,2.14
124.79,2.15
126.03,2.15
127.29,2.15
128.57,2.15
129.85,2.15
131.15,2.15
132.46,2.16
133.79,2.16
135.12,2.16
136.48,2.17
137.84,2.17
139.22,2.17
140.61,2.17
142.02,2.16
143.44,2.16
144.87,2.17
146.32,2.16
147.78,2.15
149.26,2.14
150.75,2.13
152.26,2.12
153.78,2.11
155.32,2.11
156.88,2.09
158.44,2.08
160.03,2.08
161.63,2.07
163.24,2.06
164.88,2.07
166.53,2.06
168.19,2.06
169.87,2.08
171.57,2.08
173.29,2.09
175.02,2.09
176.77,2.10
178.54,2.11
180.32,2.12
182.13,2.15
183.95,2.16
185.79,2.17
187.65,2.19
189.52,2.19
191.42,2.20
193.33,2.22
195.27,2.24
197.22,2.25
199.19,2.26
201.18,2.26
203.19,2.27
205.23,2.29
207.28,2.30
209.35,2.30
211.44,2.31
213.56,2.32
215.69,2.33
217.85,2.34
220.03,2.33
222.23,2.33
224.45,2.34
226.70,2.35
228.96,2.36
231.25,2.37
233.57,2.38
235.90,2.39
238.26,2.39
240.64,2.39
243.05,2.40
245.48,2.41
247.93,2.42
250.41,2.43
252.92,2.44
255.45,2.45
258.00,2.45
260.58,2.47
263.19,2.48
265.82,2.49
268.48,2.49
271.16,2.50
273.87,2.52
276.61,2.53
279.38,2.53
282.17,2.54
284.99,2.55
287.84,2.56
290.72,2.58
293.63,2.59
296.57,2.60
299.53,2.61
302.53,2.63
305.55,2.65
308.61,2.66
311.69,2.68
314.81,2.70
317.96,2.72
321.14,2.73
324.35,2.75
327.59,2.77
330.87,2.79
334.18,2.80
337.52,2.82
340.90,2.83
344.30,2.85
347.75,2.85
351.23,2.86
354.74,2.87
358.28,2.88
361.87,2.89
365.49,2.89
369.14,2.90
372.83,2.90
376.56,2.89
380.33,2.88
384.13,2.87
387.97,2.84
391.85,2.80
395.77,2.76
399.73,2.71
403.72,2.67
407.76,2.66
411.84,2.68
415.96,2.73
420.12,2.76
424.32,2.78
428.56,2.79
432.85,2.79
437.18,2.79
441.55,2.77
445.96,2.75
450.42,2.71
454.93,2.66
459.48,2.63
464.07,2.59
468.71,2.54
473.40,2.51
478.13,2.47
482.91,2.44
487.74,2.40
492.62,2.36
497.55,2.32
502.52,2.28
507.55,2.24
512.62,2.21
517.75,2.16
522.93,2.11
528.16,2.07
533.44,2.02
538.77,1.97
544.16,1.93
549.60,1.88
555.10,1.82
560.65,1.77
566.25,1.71
571.92,1.65
577.64,1.59
583.41,1.52
589.25,1.44
595.14,1.36
601.09,1.28
607.10,1.21
613.17,1.11
619.30,1.01
625.50,0.92
631.75,0.84
638.07,0.75
644.45,0.67
650.89,0.58
657.40,0.52
663.98,0.45
670.62,0.38
677.32,0.30
684.10,0.23
690.94,0.17
697.85,0.14
704.83,0.09
711.87,0.05
718.99,0.04
726.18,0.05
733.44,0.05
740.78,0.03
748.19,0.04
755.67,0.07
763.23,0.12
770.86,0.14
778.57,0.16
786.35,0.17
794.22,0.18
802.16,0.18
810.18,0.16
818.28,0.18
826.46,0.22
834.73,0.26
843.08,0.29
851.51,0.26
860.02,0.00
868.62,0.02
877.31,0.10
886.08,0.16
894.94,0.19
903.89,0.21
912.93,0.21
922.06,0.20
931.28,0.17
940.59,0.13
950.00,0.08
959.50,0.05
969.09,0.04
978.78,0.03
988.57,-0.02
998.46,0.01
1008.44,-0.04
1018.53,-0.10
1028.71,-0.16
1039.00,-0.22
1049.39,-0.26
1059.88,-0.29
1070.48,-0.31
1081.19,-0.35
1092.00,-0.41
1102.92,-0.44
1113.95,-0.53
1125.09,-0.56
1136.34,-0.51
1147.70,-0.56
1159.18,-0.62
1170.77,-0.68
1182.48,-0.68
1194.30,-0.82
1206.25,-0.95
1218.31,-1.02
1230.49,-1.01
1242.80,-0.99
1255.22,-1.02
1267.78,-0.98
1280.45,-0.87
1293.26,-0.84
1306.19,-0.82
1319.25,-0.79
1332.45,-0.82
1345.77,-0.79
1359.23,-0.67
1372.82,-0.65
1386.55,-0.62
1400.41,-0.55
1414.42,-0.42
1428.56,-0.29
1442.85,-0.20
1457.28,-0.14
1471.85,-0.12
1486.57,0.01
1501.43,0.16
1516.45,0.21
1531.61,0.29
1546.93,0.42
1562.40,0.49
1578.02,0.56
1593.80,0.71
1609.74,0.83
1625.84,0.94
1642.10,1.09
1658.52,1.23
1675.10,1.36
1691.85,1.54
1708.77,1.67
1725.86,1.74
1743.12,1.81
1760.55,1.85
1778.15,1.89
1795.94,1.99
1813.90,2.06
1832.03,2.11
1850.36,2.15
1868.86,2.20
1887.55,2.26
1906.42,2.30
1925.49,2.33
1944.74,2.42
1964.19,2.49
1983.83,2.54
2003.67,2.58
2023.71,2.64
2043.94,2.73
2064.38,2.82
2085.03,2.89
2105.88,2.97
2126.94,3.08
2148.20,3.25
2169.69,3.40
2191.38,3.55
2213.30,3.72
2235.43,3.90
2257.78,4.05
2280.36,4.21
2303.17,4.37
2326.20,4.52
2349.46,4.68
2372.95,4.86
2396.68,5.06
2420.65,5.23
2444.86,5.40
2469.31,5.57
2494.00,5.75
2518.94,5.94
2544.13,6.13
2569.57,6.31
2595.27,6.48
2621.22,6.64
2647.43,6.72
2673.90,6.79
2700.64,6.83
2727.65,6.85
2754.93,6.87
2782.48,6.79
2810.30,6.64
2838.40,6.44
2866.79,6.16
2895.46,5.82
2924.41,5.26
2953.65,4.59
2983.19,3.45
3013.02,2.25
3043.15,0.92
3073.58,-0.68
3104.32,-2.38
3135.36,-3.70
3166.72,-4.35
3198.38,-4.49
3230.37,-4.10
3262.67,-3.68
3295.30,-3.27
3328.25,-2.80
3361.53,-2.30
3395.15,-1.78
3429.10,-1.26
3463.39,-0.76
3498.03,-0.29
3533.01,0.10
3568.34,0.42
3604.02,0.69
3640.06,0.90
3676.46,1.09
3713.22,1.25
3750.36,1.39
3787.86,1.51
3825.74,1.62
3864.00,1.71
3902.64,1.84
3941.66,1.98
3981.08,2.13
4020.89,2.25
4061.10,2.34
4101.71,2.42
4142.73,2.50
4184.15,2.57
4226.00,2.65
4268.26,2.71
4310.94,2.77
4354.05,2.85
4397.59,2.96
4441.56,3.07
4485.98,3.22
4530.84,3.37
4576.15,3.52
4621.91,3.66
4668.13,3.78
4714.81,3.88
4761.96,3.98
4809.58,4.09
4857.67,4.20
4906.25,4.33
4955.31,4.48
5004.87,4.64
5054.91,4.85
5105.46,5.07
5156.52,5.33
5208.08,5.62
5260.16,5.93
5312.77,6.24
5365.89,6.56
5419.55,6.86
5473.75,7.14
5528.49,7.38
5583.77,7.56
5639.61,7.67
5696.00,7.76
5752.96,7.77
5810.49,7.75
5868.60,7.70
5927.28,7.61
5986.56,7.48
6046.42,7.29
6106.89,7.07
6167.96,6.82
6229.64,6.51
6291.93,6.16
6354.85,5.70
6418.40,5.17
6482.58,4.51
6547.41,3.62
6612.88,2.56
6679.01,1.15
6745.80,-0.51
6813.26,-2.32
6881.39,-4.25
6950.21,-5.88
7019.71,-7.14
7089.91,-7.70
7160.81,-7.64
7232.41,-7.43
7304.74,-7.15
7377.79,-6.81
7451.56,-6.49
7526.08,-6.17
7601.34,-5.85
7677.35,-5.59
7754.13,-5.37
7831.67,-5.36
7909.98,-5.42
7989.08,-5.60
8068.98,-6.25
8149.67,-7.26
8231.16,-8.72
8313.47,-10.37
8396.61,-11.53
8480.57,-10.44
8565.38,-8.35
8651.03,-6.31
8737.54,-4.90
8824.92,-3.98
8913.17,-3.24
9002.30,-2.54
9092.32,-1.97
9183.25,-1.58
9275.08,-1.33
9367.83,-1.22
9461.51,-1.29
9556.12,-1.47
9651.68,-1.70
9748.20,-1.96
9845.68,-2.23
9944.14,-2.45
10043.58,-2.67
10144.02,-2.89
10245.46,-3.00
10347.91,-3.06
10451.39,-3.07
10555.91,-3.02
10661.46,-2.89
10768.08,-2.73
10875.76,-2.60
10984.52,-2.41
11094.36,-2.15
11205.31,-1.76
11317.36,-1.43
11430.53,-1.36
11544.84,-1.85
11660.29,-2.68
11776.89,-3.56
11894.66,-4.48
12013.60,-5.38
12133.74,-6.25
12255.08,-7.07
12377.63,-7.88
12501.41,-8.67
12626.42,-9.44
12752.68,-10.13
12880.21,-10.69
13009.01,-11.19
13139.10,-11.68
13270.49,-11.62
13403.20,-11.45
13537.23,-11.17
13672.60,-11.24
13809.33,-11.65
13947.42,-12.60
14086.90,-13.77
14227.77,-15.07
14370.04,-16.07
14513.74,-16.59
14658.88,-15.53
14805.47,-14.60
14953.52,-13.88
15103.06,-13.03
15254.09,-12.11
15406.63,-10.40
15560.70,-8.45
15716.30,-6.11
15873.47,-3.95
16032.20,-2.11
16192.52,-1.41
16354.45,-1.15
16517.99,-1.19
16683.17,-1.71
16850.01,-2.72
17018.51,-4.15
17188.69,-6.39
17360.58,-8.66
17534.18,-10.56
17709.53,-10.88
17886.62,-9.42
18065.49,-7.63
18246.14,-6.22
18428.60,-5.75
18612.89,-5.85
18799.02,-6.21
18987.01,-6.29
19176.88,-5.33
19368.65,-4.48
19562.33,-3.90
19757.96,-3.66
19955.54,-3.42
