frequency,raw
20.00,-4.34
20.20,-4.32
20.40,-4.31
20.61,-4.29
20.81,-4.26
21.02,-4.23
21.23,-4.20
21.44,-4.16
21.66,-4.12
21.87,-4.08
22.09,-4.04
22.31,-4.00
22.54,-3.97
22.76,-3.93
22.99,-3.89
23.22,-3.86
23.45,-3.82
23.69,-3.78
23.92,-3.74
24.16,-3.70
24.40,-3.67
24.65,-3.64
24.89,-3.62
25.14,-3.60
25.39,-3.58
25.65,-3.55
25.91,-3.52
26.16,-3.49
26.43,-3.47
26.69,-3.46
26.96,-3.45
27.23,-3.46
27.50,-3.46
27.77,-3.46
28.05,-3.47
28.33,-3.46
28.62,-3.45
28.90,-3.44
29.19,-3.43
29.48,-3.42
29.78,-3.40
30.08,-3.39
30.38,-3.37
30.68,-3.35
30.99,-3.33
31.30,-3.31
31.61,-3.28
31.93,-3.26
32.24,-3.24
32.57,-3.22
32.89,-3.20
33.22,-3.18
33.55,-3.16
33.89,-3.15
34.23,-3.15
34.57,-3.14
34.92,-3.14
35.27,-3.13
35.62,-3.11
35.97,-3.09
36.33,-3.08
36.70,-3.08
37.06,-3.08
37.43,-3.08
37.81,-3.08
38.19,-3.08
38.57,-3.08
38.95,-3.07
39.34,-3.06
39.74,-3.05
40.14,-3.04
40.54,-3.03
40.94,-3.02
41.35,-3.00
41.76,-2.97
42.18,-2.96
42.60,-2.95
43.03,-2.94
43.46,-2.92
43.90,-2.90
44.33,-2.88
44.78,-2.86
45.23,-2.85
45.68,-2.84
46.13,-2.82
46.60,-2.81
47.06,-2.81
47.53,-2.82
48.01,-2.82
48.49,-2.81
48.97,-2.79
49.46,-2.78
49.96,-2.79
50.46,-2.81
50.96,-2.83
51.47,-2.84
51.99,-2.85
52.51,-2.87
53.03,-2.89
53.56,-2.91
54.10,-2.92
54.64,-2.93
55.18,-2.96
55.74,-2.98
56.29,-3.00
56.86,-3.02
57.42,-3.05
58.00,-3.08
58.58,-3.12
59.16,-3.16
59.76,-3.19
60.35,-3.22
60.96,-3.25
61.57,-3.28
62.18,-3.31
62.80,-3.32
63.43,-3.31
64.07,-3.31
64.71,-3.31
65.35,-3.32
66.01,-3.33
66.67,-3.31
67.33,-3.29
68.01,-3.27
68.69,-3.25
69.37,-3.22
70.07,-3.19
70.77,-3.15
71.48,-3.12
72.19,-3.08
72.91,-3.04
73.64,-2.98
74.38,-2.93
75.12,-2.89
75.87,-2.84
76.63,-2.79
77.40,-2.74
78.17,-2.69
78.95,-2.64
79.74,-2.59
80.54,-2.54
81.35,-2.50
82.16,-2.47
82.98,-2.43
83.81,-2.38
84.65,-2.36
85.50,-2.33
86.35,-2.30
87.22,-2.26
88.09,-2.24
88.97,-2.22
89.86,-2.19
90.76,-2.17
91.66,-2.14
92.58,-2.12
93.51,-2.08
94.44,-2.05
95.39,-2.02
96.34,-2.00
97.30,-1.98
98.28,-1.97
99.26,-1.95
100.25,-1.93
101.25,-1.92
102.27,-1.91
103.29,-1.90
104.32,-1.90
105.37,-1.88
106.42,-1.87
107.48,-1.86
108.56,-1.85
109.64,-1.83
110.74,-1.82
111.85,-1.80
112.97,-1.79
114.10,-1.78
115.24,-1.78
116.39,-1.78
117.55,-1.78
118.73,-1.79
119.92,-1.80
121.12,-1.81
122.33,-1.81
123.55,-1.81
124.79,-1.79
126.03,-1.79
127.29,-1.79
128.57,-1.79
129.85,-1.78
131.15,-1.78
132.46,-1.80
133.79,-1.82
135.12,-1.82
136.48,-1.81
137.84,-1.80
139.22,-1.81
140.61,-1.82
142.02,-1.83
143.44,-1.84
144.87,-1.83
146.32,-1.82
147.78,-1.81
149.26,-1.82
150.75,-1.82
152.26,-1.81
153.78,-1.81
155.32,-1.81
156.88,-1.80
158.44,-1.81
160.03,-1.81
161.63,-1.82
163.24,-1.84
164.88,-1.85
166.53,-1.86
168.19,-1.87
169.87,-1.90
171.57,-1.92
173.29,-1.93
175.02,-1.93
176.77,-1.94
178.54,-1.96
180.32,-1.97
182.13,-1.98
183.95,-1.99
185.79,-2.00
187.65,-2.01
189.52,-2.03
191.42,-2.04
193.33,-2.04
195.27,-2.05
197.22,-2.07
199.19,-2.08
201.18,-2.08
203.19,-2.08
205.23,-2.08
207.28,-2.09
209.35,-2.11
211.44,-2.10
213.56,-2.09
215.69,-2.08
217.85,-2.07
220.03,-2.06
222.23,-2.05
224.45,-2.04
226.70,-2.04
228.96,-2.04
231.25,-2.03
233.57,-2.02
235.90,-2.00
238.26,-1.99
240.64,-1.98
243.05,-1.97
245.48,-1.96
247.93,-1.95
250.41,-1.94
252.92,-1.93
255.45,-1.92
258.00,-1.91
260.58,-1.91
263.19,-1.90
265.82,-1.89
268.48,-1.88
271.16,-1.88
273.87,-1.87
276.61,-1.86
279.38,-1.85
282.17,-1.84
284.99,-1.83
287.84,-1.82
290.72,-1.81
293.63,-1.80
296.57,-1.79
299.53,-1.80
302.53,-1.77
305.55,-1.75
308.61,-1.74
311.69,-1.73
314.81,-1.72
317.96,-1.72
321.14,-1.71
324.35,-1.69
327.59,-1.68
330.87,-1.68
334.18,-1.67
337.52,-1.67
340.90,-1.67
344.30,-1.68
347.75,-1.67
351.23,-1.66
354.74,-1.65
358.28,-1.65
361.87,-1.64
365.49,-1.64
369.14,-1.64
372.83,-1.63
376.56,-1.64
380.33,-1.66
384.13,-1.68
387.97,-1.70
391.85,-1.73
395.77,-1.76
399.73,-1.82
403.72,-1.85
407.76,-1.86
411.84,-1.85
415.96,-1.80
420.12,-1.75
424.32,-1.71
428.56,-1.68
432.85,-1.66
437.18,-1.63
441.55,-1.60
445.96,-1.57
450.42,-1.53
454.93,-1.49
459.48,-1.45
464.07,-1.40
468.71,-1.35
473.40,-1.31
478.13,-1.27
482.91,-1.22
487.74,-1.19
492.62,-1.15
497.55,-1.10
502.52,-1.06
507.55,-1.02
512.62,-0.96
517.75,-0.90
522.93,-0.84
528.16,-0.79
533.44,-0.73
538.77,-0.68
544.16,-0.63
549.60,-0.59
555.10,-0.56
560.65,-0.52
566.25,-0.49
571.92,-0.47
577.64,-0.44
583.41,-0.42
589.25,-0.40
595.14,-0.38
601.09,-0.35
607.10,-0.31
613.17,-0.29
619.30,-0.27
625.50,-0.25
631.75,-0.22
638.07,-0.21
644.45,-0.20
650.89,-0.19
657.40,-0.18
663.98,-0.18
670.62,-0.18
677.32,-0.18
684.10,-0.17
690.94,-0.16
697.85,-0.14
704.83,-0.13
711.87,-0.12
718.99,-0.09
726.18,-0.08
733.44,-0.06
740.78,-0.04
748.19,-0.05
755.67,-0.05
763.23,-0.04
770.86,-0.03
778.57,-0.03
786.35,-0.04
794.22,-0.03
802.16,-0.03
810.18,-0.03
818.28,-0.02
826.46,-0.01
834.73,-0.01
843.08,-0.01
851.51,0.01
860.02,0.01
868.62,0.01
877.31,0.00
886.08,0.00
894.94,0.00
903.89,-0.01
912.93,-0.02
922.06,-0.02
931.28,-0.02
940.59,-0.01
950.00,-0.01
959.50,-0.02
969.09,-0.02
978.78,-0.02
988.57,-0.02
998.46,0.01
1008.44,-0.03
1018.53,-0.06
1028.71,-0.08
1039.00,-0.10
1049.39,-0.12
1059.88,-0.15
1070.48,-0.18
1081.19,-0.22
1092.00,-0.27
1102.92,-0.31
1113.95,-0.35
1125.09,-0.38
1136.34,-0.41
1147.70,-0.45
1159.18,-0.49
1170.77,-0.53
1182.48,-0.54
1194.30,-0.55
1206.25,-0.55
1218.31,-0.55
1230.49,-0.56
1242.80,-0.58
1255.22,-0.59
1267.78,-0.58
1280.45,-0.58
1293.26,-0.60
1306.19,-0.61
1319.25,-0.64
1332.45,-0.71
1345.77,-0.81
1359.23,-0.96
1372.82,-1.22
1386.55,-1.55
1400.41,-1.98
1414.42,-2.64
1428.56,-3.29
1442.85,-4.11
1457.28,-4.91
1471.85,-5.67
1486.57,-6.19
1501.43,-6.63
1516.45,-6.84
1531.61,-6.97
1546.93,-7.01
1562.40,-6.87
1578.02,-6.67
1593.80,-6.37
1609.74,-6.04
1625.84,-5.69
1642.10,-5.33
1658.52,-4.97
1675.10,-4.61
1691.85,-4.27
1708.77,-3.94
1725.86,-3.62
1743.12,-3.32
1760.55,-3.04
1778.15,-2.76
1795.94,-2.47
1813.90,-2.20
1832.03,-1.93
1850.36,-1.66
1868.86,-1.41
1887.55,-1.16
1906.42,-0.92
1925.49,-0.68
1944.74,-0.45
1964.19,-0.24
1983.83,-0.07
2003.67,0.07
2023.71,0.27
2043.94,0.45
2064.38,0.62
2085.03,0.82
2105.88,1.04
2126.94,1.27
2148.20,1.51
2169.69,1.75
2191.38,1.98
2213.30,2.22
2235.43,2.44
2257.78,2.67
2280.36,2.90
2303.17,3.12
2326.20,3.36
2349.46,3.58
2372.95,3.81
2396.68,4.05
2420.65,4.28
2444.86,4.52
2469.31,4.76
2494.00,4.99
2518.94,5.23
2544.13,5.46
2569.57,5.69
2595.27,5.92
2621.22,6.13
2647.43,6.35
2673.90,6.56
2700.64,6.75
2727.65,6.94
2754.93,7.11
2782.48,7.26
2810.30,7.41
2838.40,7.54
2866.79,7.65
2895.46,7.76
2924.41,7.83
2953.65,7.89
2983.19,7.93
3013.02,7.93
3043.15,7.91
3073.58,7.89
3104.32,7.86
3135.36,7.84
3166.72,7.80
3198.38,7.74
3230.37,7.65
3262.67,7.55
3295.30,7.44
3328.25,7.32
3361.53,7.20
3395.15,7.06
3429.10,6.94
3463.39,6.83
3498.03,6.72
3533.01,6.62
3568.34,6.53
3604.02,6.44
3640.06,6.37
3676.46,6.30
3713.22,6.22
3750.36,6.13
3787.86,6.04
3825.74,5.95
3864.00,5.84
3902.64,5.71
3941.66,5.58
3981.08,5.40
4020.89,5.24
4061.10,5.09
4101.71,4.94
4142.73,4.79
4184.15,4.64
4226.00,4.53
4268.26,4.44
4310.94,4.37
4354.05,4.31
4397.59,4.30
4441.56,4.30
4485.98,4.33
4530.84,4.39
4576.15,4.48
4621.91,4.59
4668.13,4.73
4714.81,4.91
4761.96,5.10
4809.58,5.34
4857.67,5.61
4906.25,5.91
4955.31,6.24
5004.87,6.62
5054.91,7.07
5105.46,7.54
5156.52,8.07
5208.08,8.64
5260.16,9.23
5312.77,9.84
5365.89,10.42
5419.55,10.91
5473.75,11.27
5528.49,11.47
5583.77,11.43
5639.61,11.17
5696.00,10.81
5752.96,10.23
5810.49,9.60
5868.60,8.86
5927.28,8.07
5986.56,7.24
6046.42,6.37
6106.89,5.42
6167.96,4.40
6229.64,3.30
6291.93,2.10
6354.85,0.82
6418.40,-0.50
6482.58,-1.86
6547.41,-3.19
6612.88,-4.41
6679.01,-5.29
6745.80,-5.84
6813.26,-6.17
6881.39,-6.23
6950.21,-6.07
7019.71,-5.79
7089.91,-5.40
7160.81,-5.06
7232.41,-4.82
7304.74,-4.71
7377.79,-4.90
7451.56,-5.25
7526.08,-5.74
7601.34,-6.34
7677.35,-6.61
7754.13,-6.74
7831.67,-6.38
7909.98,-5.89
7989.08,-5.21
8068.98,-4.48
8149.67,-3.85
8231.16,-3.42
8313.47,-3.29
8396.61,-3.30
8480.57,-3.50
8565.38,-3.81
8651.03,-4.23
8737.54,-4.78
8824.92,-5.44
8913.17,-6.06
9002.30,-6.65
9092.32,-7.00
9183.25,-7.17
9275.08,-7.23
9367.83,-7.21
9461.51,-7.24
9556.12,-7.44
9651.68,-7.83
9748.20,-8.38
9845.68,-9.02
9944.14,-9.67
10043.58,-10.23
10144.02,-10.67
10245.46,-10.79
10347.91,-10.79
10451.39,-10.63
10555.91,-10.09
10661.46,-9.42
10768.08,-8.61
10875.76,-7.55
10984.52,-6.63
11094.36,-5.94
11205.31,-5.72
11317.36,-6.05
11430.53,-6.44
11544.84,-6.90
11660.29,-7.35
11776.89,-7.77
11894.66,-8.30
12013.60,-8.87
12133.74,-9.42
12255.08,-9.68
12377.63,-9.61
12501.41,-8.78
12626.42,-7.43
12752.68,-6.18
12880.21,-5.46
13009.01,-5.02
13139.10,-4.59
13270.49,-5.44
13403.20,-6.71
13537.23,-8.25
13672.60,-9.95
13809.33,-11.76
13947.42,-13.21
14086.90,-13.90
14227.77,-14.12
14370.04,-13.94
14513.74,-13.31
14658.88,-12.45
14805.47,-12.08
14953.52,-12.50
15103.06,-13.29
15254.09,-14.21
15406.63,-13.86
15560.70,-13.22
15716.30,-12.14
15873.47,-11.14
16032.20,-10.25
16192.52,-9.77
16354.45,-9.69
16517.99,-9.81
16683.17,-9.69
16850.01,-9.47
17018.51,-9.17
17188.69,-8.76
17360.58,-8.66
17534.18,-8.95
17709.53,-10.15
17886.62,-11.86
18065.49,-13.98
18246.14,-16.54
18428.60,-18.42
18612.89,-18.44
18799.02,-16.94
18987.01,-14.46
19176.88,-12.21
19368.65,-10.81
19562.33,-10.24
19757.96,-10.35
19955.54,-10.45
