frequency,raw
20.00,-0.24
20.20,-0.16
20.40,-0.09
20.61,-0.03
20.81,0.03
21.02,0.09
21.23,0.15
21.44,0.21
21.66,0.27
21.87,0.33
22.09,0.39
22.31,0.45
22.54,0.51
22.76,0.57
22.99,0.62
23.22,0.67
23.45,0.71
23.69,0.76
23.92,0.80
24.16,0.84
24.40,0.89
24.65,0.94
24.89,0.99
25.14,1.04
25.39,1.09
25.65,1.14
25.91,1.18
26.16,1.23
26.43,1.28
26.69,1.32
26.96,1.37
27.23,1.42
27.50,1.47
27.77,1.53
28.05,1.58
28.33,1.63
28.62,1.68
28.90,1.72
29.19,1.75
29.48,1.79
29.78,1.84
30.08,1.89
30.38,1.94
30.68,1.99
30.99,2.03
31.30,2.06
31.61,2.08
31.93,2.10
32.24,2.13
32.57,2.16
32.89,2.21
33.22,2.26
33.55,2.31
33.89,2.34
34.23,2.37
34.57,2.39
34.92,2.42
35.27,2.46
35.62,2.51
35.97,2.56
36.33,2.60
36.70,2.64
37.06,2.67
37.43,2.70
37.81,2.72
38.19,2.75
38.57,2.78
38.95,2.80
39.34,2.82
39.74,2.84
40.14,2.86
40.54,2.90
40.94,2.93
41.35,2.96
41.76,2.98
42.18,3.00
42.60,3.02
43.03,3.04
43.46,3.07
43.90,3.09
44.33,3.11
44.78,3.12
45.23,3.14
45.68,3.16
46.13,3.18
46.60,3.20
47.06,3.22
47.53,3.25
48.01,3.27
48.49,3.28
48.97,3.28
49.46,3.29
49.96,3.31
50.46,3.35
50.96,3.38
51.47,3.40
51.99,3.41
52.51,3.41
53.03,3.42
53.56,3.43
54.10,3.44
54.64,3.44
55.18,3.44
55.74,3.45
56.29,3.46
56.86,3.46
57.42,3.45
58.00,3.43
58.58,3.42
59.16,3.41
59.76,3.41
60.35,3.40
60.96,3.37
61.57,3.35
62.18,3.32
62.80,3.28
63.43,3.25
64.07,3.21
64.71,3.17
65.35,3.12
66.01,3.07
66.67,3.01
67.33,2.95
68.01,2.89
68.69,2.82
69.37,2.75
70.07,2.68
70.77,2.63
71.48,2.56
72.19,2.49
72.91,2.42
73.64,2.38
74.38,2.34
75.12,2.28
75.87,2.22
76.63,2.17
77.40,2.14
78.17,2.11
78.95,2.08
79.74,2.06
80.54,2.05
81.35,2.04
82.16,2.03
82.98,2.02
83.81,2.02
84.65,2.05
85.50,2.08
86.35,2.11
87.22,2.13
88.09,2.16
88.97,2.21
89.86,2.27
90.76,2.32
91.66,2.37
92.58,2.42
93.51,2.47
94.44,2.52
95.39,2.56
96.34,2.60
97.30,2.65
98.28,2.69
99.26,2.73
100.25,2.77
101.25,2.78
102.27,2.82
103.29,2.86
104.32,2.88
105.37,2.92
106.42,2.95
107.48,2.98
108.56,3.01
109.64,3.04
110.74,3.07
111.85,3.09
112.97,3.14
114.10,3.18
115.24,3.19
116.39,3.20
117.55,3.22
118.73,3.24
119.92,3.26
121.12,3.28
122.33,3.31
123.55,3.34
124.79,3.35
126.03,3.32
127.29,3.29
128.57,3.27
129.85,3.25
131.15,3.23
132.46,3.20
133.79,3.15
135.12,3.10
136.48,3.05
137.84,3.00
139.22,2.94
140.61,2.87
142.02,2.78
143.44,2.69
144.87,2.62
146.32,2.51
147.78,2.40
149.26,2.27
150.75,2.15
152.26,2.04
153.78,1.93
155.32,1.81
156.88,1.68
158.44,1.57
160.03,1.46
161.63,1.30
163.24,1.16
164.88,1.04
166.53,0.88
168.19,0.72
169.87,0.57
171.57,0.40
173.29,0.23
175.02,0.06
176.77,-0.11
178.54,-0.24
180.32,-0.34
182.13,-0.43
183.95,-0.51
185.79,-0.60
187.65,-0.71
189.52,-0.82
191.42,-0.91
193.33,-1.01
195.27,-1.10
197.22,-1.20
199.19,-1.27
201.18,-1.33
203.19,-1.38
205.23,-1.41
207.28,-1.43
209.35,-1.45
211.44,-1.47
213.56,-1.46
215.69,-1.44
217.85,-1.41
220.03,-1.40
222.23,-1.37
224.45,-1.34
226.70,-1.29
228.96,-1.25
231.25,-1.20
233.57,-1.15
235.90,-1.08
238.26,-1.03
240.64,-0.98
243.05,-0.90
245.48,-0.81
247.93,-0.72
250.41,-0.64
252.92,-0.59
255.45,-0.53
258.00,-0.45
260.58,-0.35
263.19,-0.27
265.82,-0.20
268.48,-0.11
271.16,-0.04
273.87,0.04
276.61,0.13
279.38,0.22
282.17,0.30
284.99,0.39
287.84,0.47
290.72,0.56
293.63,0.64
296.57,0.72
299.53,0.81
302.53,0.88
305.55,0.95
308.61,1.04
311.69,1.13
314.81,1.21
317.96,1.28
321.14,1.35
324.35,1.43
327.59,1.51
330.87,1.58
334.18,1.66
337.52,1.72
340.90,1.79
344.30,1.85
347.75,1.92
351.23,1.99
354.74,2.04
358.28,2.07
361.87,2.09
365.49,2.12
369.14,2.11
372.83,2.18
376.56,2.31
380.33,2.48
384.13,2.61
387.97,2.68
391.85,2.72
395.77,2.75
399.73,2.79
403.72,2.84
407.76,2.87
411.84,2.89
415.96,2.90
420.12,2.92
424.32,2.94
428.56,2.94
432.85,2.93
437.18,2.92
441.55,2.91
445.96,2.90
450.42,2.88
454.93,2.87
459.48,2.86
464.07,2.84
468.71,2.81
473.40,2.79
478.13,2.77
482.91,2.75
487.74,2.72
492.62,2.70
497.55,2.68
502.52,2.66
507.55,2.63
512.62,2.61
517.75,2.57
522.93,2.51
528.16,2.47
533.44,2.42
538.77,2.36
544.16,2.31
549.60,2.25
555.10,2.19
560.65,2.13
566.25,2.08
571.92,2.02
577.64,1.96
583.41,1.90
589.25,1.84
595.14,1.78
601.09,1.73
607.10,1.66
613.17,1.58
619.30,1.51
625.50,1.43
631.75,1.36
638.07,1.28
644.45,1.22
650.89,1.16
657.40,1.10
663.98,1.04
670.62,0.99
677.32,0.94
684.10,0.89
690.94,0.85
697.85,0.81
704.83,0.78
711.87,0.76
718.99,0.73
726.18,0.69
733.44,0.66
740.78,0.64
748.19,0.61
755.67,0.59
763.23,0.57
770.86,0.54
778.57,0.53
786.35,0.51
794.22,0.50
802.16,0.48
810.18,0.48
818.28,0.47
826.46,0.46
834.73,0.47
843.08,0.47
851.51,0.47
860.02,0.46
868.62,0.47
877.31,0.47
886.08,0.46
894.94,0.45
903.89,0.44
912.93,0.43
922.06,0.39
931.28,0.36
940.59,0.32
950.00,0.30
959.50,0.25
969.09,0.19
978.78,0.13
988.57,0.06
998.46,0.01
1008.44,-0.07
1018.53,-0.16
1028.71,-0.24
1039.00,-0.30
1049.39,-0.36
1059.88,-0.43
1070.48,-0.49
1081.19,-0.54
1092.00,-0.59
1102.92,-0.62
1113.95,-0.66
1125.09,-0.70
1136.34,-0.74
1147.70,-0.79
1159.18,-0.84
1170.77,-0.90
1182.48,-0.93
1194.30,-0.95
1206.25,-0.97
1218.31,-1.00
1230.49,-1.00
1242.80,-1.00
1255.22,-0.99
1267.78,-0.99
1280.45,-0.99
1293.26,-0.96
1306.19,-0.93
1319.25,-0.91
1332.45,-0.88
1345.77,-0.84
1359.23,-0.78
1372.82,-0.72
1386.55,-0.68
1400.41,-0.65
1414.42,-0.60
1428.56,-0.54
1442.85,-0.48
1457.28,-0.42
1471.85,-0.37
1486.57,-0.31
1501.43,-0.25
1516.45,-0.20
1531.61,-0.13
1546.93,-0.06
1562.40,0.01
1578.02,0.09
1593.80,0.14
1609.74,0.20
1625.84,0.27
1642.10,0.34
1658.52,0.41
1675.10,0.48
1691.85,0.54
1708.77,0.61
1725.86,0.68
1743.12,0.75
1760.55,0.81
1778.15,0.86
1795.94,0.92
1813.90,1.00
1832.03,1.07
1850.36,1.14
1868.86,1.20
1887.55,1.27
1906.42,1.35
1925.49,1.44
1944.74,1.53
1964.19,1.63
1983.83,1.72
2003.67,1.81
2023.71,1.94
2043.94,2.07
2064.38,2.19
2085.03,2.32
2105.88,2.45
2126.94,2.59
2148.20,2.75
2169.69,2.91
2191.38,3.08
2213.30,3.25
2235.43,3.42
2257.78,3.60
2280.36,3.79
2303.17,4.00
2326.20,4.18
2349.46,4.38
2372.95,4.58
2396.68,4.79
2420.65,5.00
2444.86,5.22
2469.31,5.43
2494.00,5.65
2518.94,5.87
2544.13,6.07
2569.57,6.26
2595.27,6.43
2621.22,6.59
2647.43,6.73
2673.90,6.83
2700.64,6.90
2727.65,6.94
2754.93,6.93
2782.48,6.85
2810.30,6.69
2838.40,6.44
2866.79,6.07
2895.46,5.62
2924.41,4.96
2953.65,4.23
2983.19,3.20
3013.02,2.04
3043.15,0.73
3073.58,-0.47
3104.32,-1.23
3135.36,-1.34
3166.72,-1.10
3198.38,-0.69
3230.37,-0.29
3262.67,0.06
3295.30,0.33
3328.25,0.59
3361.53,0.83
3395.15,1.06
3429.10,1.22
3463.39,1.34
3498.03,1.43
3533.01,1.46
3568.34,1.47
3604.02,1.47
3640.06,1.45
3676.46,1.43
3713.22,1.43
3750.36,1.45
3787.86,1.52
3825.74,1.59
3864.00,1.69
3902.64,1.78
3941.66,1.88
3981.08,2.00
4020.89,2.14
4061.10,2.30
4101.71,2.50
4142.73,2.70
4184.15,2.89
4226.00,3.04
4268.26,3.18
4310.94,3.27
4354.05,3.28
4397.59,3.24
4441.56,3.17
4485.98,3.10
4530.84,3.04
4576.15,3.00
4621.91,2.98
4668.13,2.99
4714.81,3.06
4761.96,3.18
4809.58,3.36
4857.67,3.62
4906.25,3.99
4955.31,4.43
5004.87,4.99
5054.91,5.70
5105.46,6.48
5156.52,7.34
5208.08,8.24
5260.16,9.09
5312.77,9.86
5365.89,10.45
5419.55,10.73
5473.75,10.64
5528.49,10.15
5583.77,9.22
5639.61,8.10
5696.00,6.91
5752.96,5.73
5810.49,4.58
5868.60,3.57
5927.28,2.62
5986.56,1.76
6046.42,0.95
6106.89,0.19
6167.96,-0.56
6229.64,-1.36
6291.93,-2.22
6354.85,-3.19
6418.40,-4.26
6482.58,-5.55
6547.41,-7.08
6612.88,-8.75
6679.01,-10.62
6745.80,-12.44
6813.26,-14.09
6881.39,-15.06
6950.21,-15.65
7019.71,-15.93
7089.91,-15.75
7160.81,-15.25
7232.41,-14.48
7304.74,-13.40
7377.79,-11.85
7451.56,-9.97
7526.08,-7.80
7601.34,-5.38
7677.35,-3.07
7754.13,-0.84
7831.67,0.51
7909.98,1.45
7989.08,1.73
8068.98,1.49
8149.67,1.09
8231.16,0.56
8313.47,-0.23
8396.61,-1.11
8480.57,-2.14
8565.38,-2.79
8651.03,-3.11
8737.54,-3.06
8824.92,-2.86
8913.17,-2.65
9002.30,-2.46
9092.32,-2.60
9183.25,-3.12
9275.08,-3.92
9367.83,-4.99
9461.51,-6.16
9556.12,-7.32
9651.68,-8.02
9748.20,-7.78
9845.68,-7.01
9944.14,-6.39
10043.58,-6.00
10144.02,-5.84
10245.46,-5.92
10347.91,-6.34
10451.39,-7.16
10555.91,-8.23
10661.46,-9.19
10768.08,-9.88
10875.76,-9.64
10984.52,-7.78
11094.36,-5.38
11205.31,-2.95
11317.36,-3.37
11430.53,-4.53
11544.84,-6.99
11660.29,-10.05
11776.89,-13.48
11894.66,-15.12
12013.60,-16.23
12133.74,-15.69
12255.08,-14.30
12377.63,-13.13
12501.41,-11.98
12626.42,-10.14
12752.68,-8.32
12880.21,-7.08
13009.01,-6.17
13139.10,-5.26
13270.49,-6.14
13403.20,-7.51
13537.23,-8.97
13672.60,-10.30
13809.33,-11.48
13947.42,-11.98
14086.90,-11.25
14227.77,-9.76
14370.04,-7.91
14513.74,-5.85
14658.88,-5.39
14805.47,-5.97
14953.52,-8.24
15103.06,-10.61
15254.09,-12.97
15406.63,-13.49
15560.70,-13.67
15716.30,-13.34
15873.47,-13.06
16032.20,-12.58
16192.52,-11.26
16354.45,-9.68
16517.99,-8.11
16683.17,-7.84
16850.01,-7.25
17018.51,-6.45
17188.69,-5.55
17360.58,-5.12
17534.18,-5.15
17709.53,-5.98
17886.62,-7.86
18065.49,-10.11
18246.14,-12.42
18428.60,-14.40
18612.89,-13.63
18799.02,-11.12
18987.01,-8.67
19176.88,-5.93
19368.65,-3.84
19562.33,-2.73
19757.96,-2.79
19955.54,-2.85
