frequency,raw
20.00,1.82
20.20,1.83
20.40,1.83
20.61,1.84
20.81,1.85
21.02,1.87
21.23,1.89
21.44,1.91
21.66,1.93
21.87,1.96
22.09,1.98
22.31,2.00
22.54,2.02
22.76,2.05
22.99,2.07
23.22,2.09
23.45,2.12
23.69,2.15
23.92,2.17
24.16,2.20
24.40,2.21
24.65,2.23
24.89,2.24
25.14,2.25
25.39,2.27
25.65,2.28
25.91,2.29
26.16,2.31
26.43,2.32
26.69,2.32
26.96,2.32
27.23,2.32
27.50,2.32
27.77,2.31
28.05,2.31
28.33,2.30
28.62,2.30
28.90,2.30
29.19,2.30
29.48,2.31
29.78,2.31
30.08,2.32
30.38,2.33
30.68,2.34
30.99,2.35
31.30,2.35
31.61,2.36
31.93,2.37
32.24,2.39
32.57,2.40
32.89,2.42
33.22,2.43
33.55,2.44
33.89,2.44
34.23,2.43
34.57,2.43
34.92,2.44
35.27,2.46
35.62,2.47
35.97,2.47
36.33,2.46
36.70,2.45
37.06,2.44
37.43,2.45
37.81,2.46
38.19,2.47
38.57,2.47
38.95,2.46
39.34,2.45
39.74,2.46
40.14,2.47
40.54,2.49
40.94,2.50
41.35,2.50
41.76,2.49
42.18,2.49
42.60,2.49
43.03,2.49
43.46,2.49
43.90,2.49
44.33,2.48
44.78,2.49
45.23,2.49
45.68,2.50
46.13,2.50
46.60,2.51
47.06,2.51
47.53,2.50
48.01,2.51
48.49,2.51
48.97,2.53
49.46,2.55
49.96,2.56
50.46,2.56
50.96,2.56
51.47,2.55
51.99,2.57
52.51,2.59
53.03,2.61
53.56,2.62
54.10,2.62
54.64,2.61
55.18,2.61
55.74,2.61
56.29,2.61
56.86,2.61
57.42,2.61
58.00,2.61
58.58,2.61
59.16,2.61
59.76,2.60
60.35,2.60
60.96,2.61
61.57,2.61
62.18,2.62
62.80,2.63
63.43,2.63
64.07,2.64
64.71,2.64
65.35,2.65
66.01,2.65
66.67,2.66
67.33,2.66
68.01,2.67
68.69,2.67
69.37,2.67
70.07,2.68
70.77,2.68
71.48,2.69
72.19,2.70
72.91,2.72
73.64,2.71
74.38,2.71
75.12,2.72
75.87,2.72
76.63,2.73
77.40,2.73
78.17,2.73
78.95,2.73
79.74,2.74
80.54,2.73
81.35,2.73
82.16,2.76
82.98,2.77
83.81,2.77
84.65,2.77
85.50,2.77
86.35,2.78
87.22,2.77
88.09,2.76
88.97,2.77
89.86,2.77
90.76,2.77
91.66,2.76
92.58,2.76
93.51,2.76
94.44,2.77
95.39,2.78
96.34,2.78
97.30,2.78
98.28,2.78
99.26,2.78
100.25,2.78
101.25,2.78
102.27,2.78
103.29,2.78
104.32,2.78
105.37,2.79
106.42,2.79
107.48,2.78
108.56,2.79
109.64,2.80
110.74,2.80
111.85,2.81
112.97,2.82
114.10,2.82
115.24,2.82
116.39,2.83
117.55,2.84
118.73,2.84
119.92,2.83
121.12,2.83
122.33,2.83
123.55,2.83
124.79,2.81
126.03,2.83
127.29,2.83
128.57,2.83
129.85,2.84
131.15,2.85
132.46,2.86
133.79,2.88
135.12,2.88
136.48,2.87
137.84,2.86
139.22,2.86
140.61,2.86
142.02,2.86
143.44,2.86
144.87,2.87
146.32,2.87
147.78,2.87
149.26,2.88
150.75,2.89
152.26,2.89
153.78,2.89
155.32,2.89
156.88,2.89
158.44,2.89
160.03,2.88
161.63,2.89
163.24,2.89
164.88,2.89
166.53,2.89
168.19,2.89
169.87,2.89
171.57,2.88
173.29,2.88
175.02,2.88
176.77,2.88
178.54,2.87
180.32,2.87
182.13,2.87
183.95,2.88
185.79,2.89
187.65,2.90
189.52,2.89
191.42,2.89
193.33,2.89
195.27,2.89
197.22,2.90
199.19,2.90
201.18,2.89
203.19,2.88
205.23,2.90
207.28,2.90
209.35,2.89
211.44,2.88
213.56,2.88
215.69,2.88
217.85,2.89
220.03,2.86
222.23,2.84
224.45,2.83
226.70,2.81
228.96,2.81
231.25,2.79
233.57,2.76
235.90,2.75
238.26,2.72
240.64,2.69
243.05,2.67
245.48,2.63
247.93,2.60
250.41,2.57
252.92,2.55
255.45,2.52
258.00,2.48
260.58,2.44
263.19,2.39
265.82,2.36
268.48,2.33
271.16,2.30
273.87,2.25
276.61,2.22
279.38,2.21
282.17,2.20
284.99,2.19
287.84,2.16
290.72,2.13
293.63,2.11
296.57,2.09
299.53,2.08
302.53,2.07
305.55,2.06
308.61,2.05
311.69,2.05
314.81,2.04
317.96,2.03
321.14,2.03
324.35,2.01
327.59,1.99
330.87,1.96
334.18,1.93
337.52,1.91
340.90,1.89
344.30,1.83
347.75,1.78
351.23,1.72
354.74,1.65
358.28,1.56
361.87,1.47
365.49,1.38
369.14,1.28
372.83,1.21
376.56,1.17
380.33,1.18
384.13,1.16
387.97,1.13
391.85,1.11
395.77,1.08
399.73,1.06
403.72,1.03
407.76,1.01
411.84,1.00
415.96,1.01
420.12,1.01
424.32,1.02
428.56,1.05
432.85,1.10
437.18,1.15
441.55,1.20
445.96,1.25
450.42,1.29
454.93,1.35
459.48,1.41
464.07,1.45
468.71,1.47
473.40,1.50
478.13,1.53
482.91,1.56
487.74,1.57
492.62,1.60
497.55,1.61
502.52,1.62
507.55,1.61
512.62,1.60
517.75,1.61
522.93,1.61
528.16,1.63
533.44,1.64
538.77,1.66
544.16,1.70
549.60,1.71
555.10,1.73
560.65,1.74
566.25,1.76
571.92,1.77
577.64,1.78
583.41,1.76
589.25,1.74
595.14,1.72
601.09,1.69
607.10,1.61
613.17,1.54
619.30,1.47
625.50,1.41
631.75,1.36
638.07,1.31
644.45,1.27
650.89,1.23
657.40,1.16
663.98,1.11
670.62,1.05
677.32,0.99
684.10,0.94
690.94,0.91
697.85,0.85
704.83,0.83
711.87,0.83
718.99,0.86
726.18,0.87
733.44,0.86
740.78,0.84
748.19,0.85
755.67,0.85
763.23,0.84
770.86,0.82
778.57,0.80
786.35,0.79
794.22,0.74
802.16,0.67
810.18,0.60
818.28,0.50
826.46,0.42
834.73,0.44
843.08,0.40
851.51,0.33
860.02,0.26
868.62,0.13
877.31,-0.00
886.08,-0.05
894.94,0.01
903.89,0.04
912.93,0.01
922.06,0.02
931.28,-0.00
940.59,-0.05
950.00,-0.14
959.50,-0.01
969.09,0.01
978.78,0.00
988.57,0.03
998.46,0.01
1008.44,-0.07
1018.53,-0.17
1028.71,-0.26
1039.00,-0.43
1049.39,-0.60
1059.88,-0.76
1070.48,-0.87
1081.19,-0.90
1092.00,-0.89
1102.92,-1.07
1113.95,-1.26
1125.09,-1.38
1136.34,-1.44
1147.70,-1.62
1159.18,-1.76
1170.77,-1.89
1182.48,-1.77
1194.30,-1.79
1206.25,-1.81
1218.31,-2.12
1230.49,-2.15
1242.80,-2.13
1255.22,-2.14
1267.78,-2.27
1280.45,-2.52
1293.26,-2.55
1306.19,-2.59
1319.25,-2.72
1332.45,-2.68
1345.77,-2.53
1359.23,-2.25
1372.82,-2.04
1386.55,-2.03
1400.41,-2.22
1414.42,-1.98
1428.56,-1.74
1442.85,-1.67
1457.28,-1.62
1471.85,-1.58
1486.57,-1.46
1501.43,-1.33
1516.45,-1.14
1531.61,-0.94
1546.93,-0.72
1562.40,-0.58
1578.02,-0.43
1593.80,-0.14
1609.74,0.15
1625.84,0.44
1642.10,0.65
1658.52,0.87
1675.10,1.11
1691.85,1.40
1708.77,1.70
1725.86,2.03
1743.12,2.34
1760.55,2.56
1778.15,2.69
1795.94,2.75
1813.90,2.77
1832.03,2.83
1850.36,2.96
1868.86,3.06
1887.55,3.33
1906.42,3.66
1925.49,3.94
1944.74,4.37
1964.19,4.63
1983.83,4.90
2003.67,5.26
2023.71,5.67
2043.94,5.92
2064.38,6.14
2085.03,6.49
2105.88,6.78
2126.94,7.03
2148.20,7.29
2169.69,7.60
2191.38,7.88
2213.30,8.08
2235.43,8.26
2257.78,8.48
2280.36,8.70
2303.17,8.91
2326.20,9.08
2349.46,9.31
2372.95,9.49
2396.68,9.63
2420.65,9.68
2444.86,9.61
2469.31,9.47
2494.00,9.56
2518.94,9.65
2544.13,9.76
2569.57,9.95
2595.27,10.09
2621.22,10.19
2647.43,10.34
2673.90,10.49
2700.64,10.63
2727.65,10.74
2754.93,10.78
2782.48,10.79
2810.30,10.85
2838.40,11.00
2866.79,11.05
2895.46,11.03
2924.41,11.00
2953.65,10.96
2983.19,10.81
3013.02,10.65
3043.15,10.48
3073.58,10.46
3104.32,10.22
3135.36,10.04
3166.72,9.92
3198.38,9.85
3230.37,9.69
3262.67,9.53
3295.30,9.35
3328.25,9.14
3361.53,8.96
3395.15,8.83
3429.10,8.67
3463.39,8.49
3498.03,8.27
3533.01,8.02
3568.34,7.85
3604.02,7.76
3640.06,7.66
3676.46,7.59
3713.22,7.54
3750.36,7.50
3787.86,7.56
3825.74,7.63
3864.00,7.75
3902.64,7.83
3941.66,7.91
3981.08,8.02
4020.89,8.09
4061.10,8.12
4101.71,8.24
4142.73,8.33
4184.15,8.41
4226.00,8.53
4268.26,8.62
4310.94,8.69
4354.05,8.84
4397.59,8.96
4441.56,9.05
4485.98,9.18
4530.84,9.35
4576.15,9.48
4621.91,9.59
4668.13,9.68
4714.81,9.83
4761.96,10.01
4809.58,10.23
4857.67,10.43
4906.25,10.66
4955.31,10.86
5004.87,10.98
5054.91,11.16
5105.46,11.33
5156.52,11.43
5208.08,11.28
5260.16,11.40
5312.77,11.59
5365.89,11.77
5419.55,11.43
5473.75,10.97
5528.49,10.56
5583.77,10.00
5639.61,9.54
5696.00,9.14
5752.96,8.56
5810.49,8.00
5868.60,7.62
5927.28,7.12
5986.56,6.49
6046.42,6.14
6106.89,5.84
6167.96,5.61
6229.64,5.67
6291.93,5.74
6354.85,5.50
6418.40,5.33
6482.58,5.43
6547.41,5.25
6612.88,5.08
6679.01,5.37
6745.80,5.47
6813.26,5.51
6881.39,5.71
6950.21,5.95
7019.71,6.11
7089.91,6.08
7160.81,6.02
7232.41,5.94
7304.74,5.83
7377.79,5.84
7451.56,5.87
7526.08,5.77
7601.34,5.43
7677.35,5.20
7754.13,5.02
7831.67,4.99
7909.98,4.97
7989.08,4.97
8068.98,4.36
8149.67,4.20
8231.16,4.98
8313.47,5.45
8396.61,5.65
8480.57,5.19
8565.38,4.81
8651.03,4.67
8737.54,4.94
8824.92,4.31
8913.17,3.64
9002.30,2.92
9092.32,-1.35
9183.25,-2.65
9275.08,-3.04
9367.83,-4.47
9461.51,-7.15
9556.12,-8.18
9651.68,-7.34
9748.20,-5.30
9845.68,-5.13
9944.14,-5.92
10043.58,-7.65
10144.02,-9.93
10245.46,-6.59
10347.91,-4.78
10451.39,-5.07
10555.91,-4.99
10661.46,-4.79
10768.08,-4.32
10875.76,-2.87
10984.52,-0.97
11094.36,0.74
11205.31,1.86
11317.36,5.80
11430.53,7.28
11544.84,4.78
11660.29,0.84
11776.89,0.24
11894.66,1.51
12013.60,2.37
12133.74,2.98
12255.08,1.88
12377.63,-1.09
12501.41,1.15
12626.42,0.98
12752.68,1.00
12880.21,-0.22
13009.01,-2.21
13139.10,-4.20
13270.49,-7.47
13403.20,-10.76
13537.23,-7.96
13672.60,-5.36
13809.33,-2.96
13947.42,-0.77
14086.90,-0.31
14227.77,-0.91
14370.04,-0.76
14513.74,0.36
14658.88,3.46
14805.47,5.98
14953.52,7.56
15103.06,3.71
15254.09,-2.42
15406.63,-1.80
15560.70,-1.39
15716.30,-1.29
15873.47,-2.74
16032.20,-4.69
16192.52,-7.02
16354.45,-6.93
16517.99,-5.99
16683.17,-8.97
16850.01,-10.66
17018.51,-11.41
17188.69,-11.52
17360.58,-12.23
17534.18,-12.91
17709.53,-12.11
17886.62,-14.56
18065.49,-16.80
18246.14,-16.97
18428.60,-14.05
18612.89,-11.89
18799.02,-10.06
18987.01,-7.63
19176.88,-6.08
19368.65,-5.57
19562.33,-5.14
19757.96,-3.55
19955.54,-1.96
