frequency,raw,smoothed,error,error_smoothed,equalization,parametric_eq,fixed_band_eq,equalized_raw,equalized_smoothed,target
20.00,3.64,3.65,-3.14,-3.13,3.15,2.92,0.66,6.79,6.80,6.78
20.20,3.66,3.65,-3.12,-3.12,3.13,2.88,0.68,6.79,6.78,6.78
20.40,3.67,3.67,-3.11,-3.10,3.10,2.84,0.70,6.77,6.77,6.78
20.61,3.69,3.70,-3.09,-3.08,3.06,2.80,0.72,6.75,6.76,6.78
20.81,3.74,3.74,-3.03,-3.04,3.02,2.76,0.74,6.77,6.76,6.78
21.02,3.79,3.79,-2.98,-2.99,2.98,2.73,0.77,6.77,6.77,6.78
21.23,3.84,3.84,-2.93,-2.93,2.93,2.69,0.79,6.77,6.78,6.78
21.44,3.90,3.90,-2.87,-2.88,2.88,2.65,0.82,6.78,6.78,6.77
21.66,3.95,3.96,-2.82,-2.82,2.82,2.61,0.84,6.77,6.77,6.77
21.87,4.02,4.02,-2.75,-2.75,2.75,2.57,0.87,6.77,6.77,6.77
22.09,4.08,4.08,-2.69,-2.69,2.68,2.53,0.90,6.76,6.77,6.77
22.31,4.15,4.16,-2.62,-2.61,2.61,2.49,0.93,6.76,6.77,6.77
22.54,4.23,4.23,-2.54,-2.54,2.54,2.45,0.96,6.77,6.77,6.77
22.76,4.30,4.30,-2.47,-2.47,2.47,2.41,0.99,6.77,6.77,6.77
22.99,4.37,4.37,-2.40,-2.40,2.40,2.37,1.02,6.78,6.77,6.77
23.22,4.43,4.43,-2.34,-2.33,2.34,2.33,1.05,6.77,6.78,6.77
23.45,4.49,4.49,-2.27,-2.28,2.29,2.29,1.08,6.78,6.78,6.77
23.69,4.54,4.54,-2.22,-2.22,2.23,2.25,1.11,6.78,6.78,6.77
23.92,4.58,4.58,-2.18,-2.18,2.19,2.21,1.14,6.77,6.77,6.76
24.16,4.62,4.62,-2.14,-2.14,2.15,2.17,1.18,6.77,6.77,6.76
24.40,4.65,4.65,-2.11,-2.11,2.10,2.13,1.21,6.76,6.76,6.76
24.65,4.69,4.69,-2.07,-2.07,2.06,2.09,1.25,6.75,6.75,6.76
24.89,4.73,4.74,-2.03,-2.02,2.01,2.05,1.28,6.74,6.75,6.76
25.14,4.79,4.79,-1.96,-1.97,1.96,2.01,1.31,6.75,6.74,6.76
25.39,4.84,4.85,-1.91,-1.91,1.90,1.97,1.35,6.74,6.74,6.76
25.65,4.91,4.91,-1.84,-1.84,1.83,1.93,1.38,6.74,6.74,6.75
25.91,4.98,4.98,-1.77,-1.77,1.77,1.89,1.42,6.75,6.75,6.75
26.16,5.05,5.05,-1.70,-1.70,1.70,1.85,1.45,6.75,6.75,6.75
26.43,5.12,5.12,-1.63,-1.63,1.64,1.81,1.48,6.76,6.76,6.75
26.69,5.17,5.18,-1.58,-1.57,1.59,1.77,1.52,6.76,6.76,6.75
26.96,5.22,5.22,-1.53,-1.53,1.55,1.73,1.55,6.77,6.76,6.75
27.23,5.24,5.24,-1.50,-1.50,1.52,1.69,1.58,6.76,6.76,6.74
27.50,5.25,5.25,-1.49,-1.49,1.51,1.65,1.61,6.76,6.76,6.74
27.77,5.25,5.25,-1.49,-1.49,1.51,1.61,1.63,6.76,6.76,6.74
28.05,5.23,5.23,-1.51,-1.51,1.52,1.57,1.66,6.75,6.75,6.74
28.33,5.21,5.21,-1.52,-1.52,1.53,1.53,1.68,6.74,6.74,6.74
28.62,5.19,5.19,-1.54,-1.54,1.53,1.49,1.70,6.72,6.73,6.73
28.90,5.19,5.19,-1.54,-1.54,1.52,1.45,1.72,6.71,6.71,6.73
29.19,5.20,5.20,-1.53,-1.53,1.49,1.41,1.74,6.69,6.70,6.73
29.48,5.24,5.25,-1.48,-1.48,1.44,1.37,1.75,6.68,6.69,6.73
29.78,5.32,5.32,-1.40,-1.40,1.37,1.33,1.76,6.69,6.69,6.73
30.08,5.42,5.42,-1.30,-1.30,1.27,1.29,1.76,6.69,6.70,6.72
30.38,5.54,5.54,-1.18,-1.18,1.17,1.25,1.77,6.71,6.71,6.72
30.68,5.67,5.67,-1.05,-1.05,1.06,1.21,1.77,6.74,6.73,6.72
30.99,5.78,5.78,-0.93,-0.93,0.96,1.18,1.76,6.74,6.75,6.71
31.30,5.88,5.88,-0.83,-0.84,0.88,1.14,1.75,6.76,6.75,6.71
31.61,5.94,5.94,-0.77,-0.77,0.81,1.10,1.74,6.75,6.75,6.71
31.93,5.97,5.97,-0.73,-0.73,0.77,1.06,1.73,6.74,6.74,6.70
32.24,5.98,5.98,-0.72,-0.72,0.74,1.02,1.71,6.72,6.72,6.70
32.57,5.97,5.97,-0.73,-0.73,0.73,0.98,1.69,6.70,6.70,6.70
32.89,5.95,5.95,-0.74,-0.74,0.72,0.94,1.66,6.67,6.67,6.69
33.22,5.94,5.95,-0.75,-0.74,0.71,0.90,1.63,6.65,6.65,6.69
33.55,5.95,5.96,-0.73,-0.73,0.69,0.87,1.60,6.64,6.65,6.69
33.89,5.99,5.99,-0.69,-0.69,0.67,0.83,1.56,6.66,6.66,6.68
34.23,6.03,6.04,-0.65,-0.64,0.64,0.79,1.53,6.67,6.67,6.68
34.57,6.08,6.08,-0.59,-0.59,0.61,0.75,1.49,6.69,6.69,6.67
34.92,6.13,6.12,-0.54,-0.54,0.57,0.72,1.44,6.70,6.70,6.67
35.27,6.15,6.15,-0.51,-0.51,0.54,0.68,1.40,6.69,6.69,6.66
35.62,6.17,6.17,-0.49,-0.49,0.51,0.64,1.35,6.68,6.68,6.66
35.97,6.17,6.18,-0.48,-0.48,0.48,0.60,1.30,6.65,6.66,6.65
36.33,6.18,6.18,-0.47,-0.47,0.46,0.57,1.25,6.64,6.64,6.65
36.70,6.19,6.19,-0.45,-0.45,0.43,0.53,1.20,6.62,6.62,6.64
37.06,6.21,6.22,-0.43,-0.42,0.40,0.49,1.15,6.61,6.62,6.64
37.43,6.25,6.25,-0.38,-0.38,0.36,0.45,1.09,6.61,6.62,6.63
37.81,6.30,6.30,-0.32,-0.33,0.32,0.42,1.04,6.62,6.62,6.63
38.19,6.35,6.35,-0.27,-0.27,0.28,0.38,0.98,6.63,6.62,6.62
38.57,6.39,6.39,-0.22,-0.22,0.23,0.35,0.93,6.62,6.63,6.61
38.95,6.43,6.44,-0.17,-0.17,0.19,0.31,0.87,6.62,6.62,6.61
39.34,6.47,6.47,-0.13,-0.13,0.15,0.27,0.81,6.62,6.61,6.60
39.74,6.49,6.49,-0.10,-0.10,0.11,0.24,0.75,6.61,6.60,6.59
40.14,6.50,6.50,-0.08,-0.08,0.08,0.20,0.70,6.58,6.59,6.58
40.54,6.51,6.52,-0.06,-0.06,0.05,0.17,0.64,6.57,6.57,6.58
40.94,6.53,6.53,-0.04,-0.04,0.03,0.13,0.58,6.56,6.56,6.57
41.35,6.55,6.55,-0.01,-0.01,-0.00,0.09,0.52,6.55,6.55,6.56
41.76,6.57,6.58,0.02,0.02,-0.03,0.06,0.47,6.54,6.54,6.55
42.18,6.60,6.60,0.06,0.06,-0.06,0.02,0.41,6.54,6.54,6.54
42.60,6.63,6.63,0.10,0.10,-0.09,-0.01,0.35,6.54,6.54,6.53
43.03,6.66,6.66,0.14,0.13,-0.12,-0.05,0.29,6.54,6.54,6.52
43.46,6.67,6.67,0.16,0.16,-0.15,-0.08,0.24,6.53,6.53,6.51
43.90,6.68,6.68,0.18,0.18,-0.17,-0.12,0.18,6.51,6.51,6.50
44.33,6.69,6.69,0.20,0.20,-0.19,-0.15,0.12,6.50,6.50,6.49
44.78,6.69,6.69,0.21,0.21,-0.21,-0.18,0.07,6.48,6.48,6.48
45.23,6.69,6.70,0.22,0.23,-0.24,-0.22,0.01,6.45,6.46,6.47
45.68,6.71,6.71,0.26,0.25,-0.27,-0.25,-0.05,6.44,6.44,6.46
46.13,6.73,6.74,0.29,0.29,-0.31,-0.29,-0.10,6.42,6.43,6.44
46.60,6.77,6.77,0.34,0.34,-0.35,-0.32,-0.16,6.42,6.42,6.43
47.06,6.81,6.81,0.39,0.39,-0.40,-0.36,-0.21,6.42,6.42,6.42
47.53,6.85,6.85,0.45,0.45,-0.44,-0.39,-0.27,6.41,6.41,6.40
48.01,6.89,6.89,0.50,0.50,-0.49,-0.42,-0.32,6.41,6.40,6.39
48.49,6.92,6.92,0.55,0.54,-0.53,-0.46,-0.38,6.40,6.39,6.38
48.97,6.93,6.93,0.57,0.57,-0.56,-0.49,-0.43,6.37,6.37,6.36
49.46,6.94,6.94,0.60,0.60,-0.59,-0.53,-0.49,6.35,6.35,6.34
49.96,6.94,6.94,0.61,0.61,-0.62,-0.56,-0.54,6.33,6.33,6.33
50.46,6.94,6.94,0.63,0.63,-0.64,-0.59,-0.60,6.31,6.31,6.31
50.96,6.94,6.94,0.65,0.65,-0.65,-0.63,-0.65,6.29,6.29,6.29
51.47,6.94,6.94,0.67,0.67,-0.67,-0.66,-0.70,6.27,6.27,6.28
51.99,6.94,6.94,0.69,0.69,-0.69,-0.70,-0.76,6.25,6.25,6.26
52.51,6.95,6.95,0.71,0.71,-0.71,-0.73,-0.81,6.24,6.24,6.24
53.03,6.95,6.95,0.73,0.74,-0.74,-0.77,-0.86,6.22,6.22,6.22
53.56,6.96,6.96,0.77,0.76,-0.77,-0.80,-0.91,6.20,6.19,6.20
54.10,6.96,6.97,0.79,0.79,-0.80,-0.83,-0.96,6.17,6.17,6.18
54.64,6.98,6.98,0.83,0.83,-0.83,-0.87,-1.01,6.15,6.15,6.15
55.18,6.99,6.99,0.86,0.86,-0.86,-0.90,-1.06,6.13,6.13,6.13
55.74,7.01,7.01,0.90,0.90,-0.90,-0.94,-1.11,6.11,6.11,6.11
56.29,7.02,7.02,0.94,0.94,-0.94,-0.97,-1.16,6.09,6.09,6.08
56.86,7.03,7.03,0.97,0.97,-0.97,-1.01,-1.20,6.06,6.06,6.06
57.42,7.04,7.04,1.01,1.01,-1.01,-1.04,-1.25,6.03,6.03,6.03
58.00,7.05,7.05,1.05,1.05,-1.05,-1.08,-1.29,6.00,6.00,6.01
58.58,7.06,7.06,1.08,1.08,-1.08,-1.11,-1.33,5.98,5.98,5.98
59.16,7.07,7.07,1.12,1.12,-1.12,-1.15,-1.37,5.95,5.95,5.95
59.76,7.08,7.08,1.16,1.16,-1.15,-1.18,-1.41,5.93,5.93,5.92
60.35,7.08,7.08,1.19,1.19,-1.19,-1.22,-1.45,5.90,5.90,5.89
60.96,7.08,7.08,1.22,1.22,-1.22,-1.25,-1.49,5.86,5.87,5.86
61.57,7.08,7.08,1.25,1.25,-1.25,-1.29,-1.52,5.83,5.83,5.83
62.18,7.08,7.08,1.28,1.28,-1.28,-1.33,-1.56,5.80,5.80,5.80
62.80,7.07,7.07,1.31,1.31,-1.31,-1.36,-1.59,5.76,5.76,5.76
63.43,7.06,7.07,1.33,1.34,-1.34,-1.40,-1.62,5.72,5.73,5.73
64.07,7.06,7.06,1.37,1.37,-1.37,-1.44,-1.65,5.69,5.69,5.70
64.71,7.06,7.06,1.40,1.40,-1.40,-1.48,-1.68,5.66,5.66,5.66
65.35,7.05,7.06,1.43,1.43,-1.43,-1.51,-1.70,5.62,5.62,5.62
66.01,7.05,7.05,1.47,1.47,-1.47,-1.55,-1.73,5.59,5.58,5.58
66.67,7.04,7.05,1.50,1.50,-1.50,-1.59,-1.75,5.54,5.55,5.55
67.33,7.04,7.04,1.54,1.53,-1.53,-1.63,-1.78,5.51,5.51,5.51
68.01,7.03,7.03,1.57,1.57,-1.57,-1.67,-1.80,5.47,5.47,5.46
68.69,7.02,7.02,1.60,1.60,-1.60,-1.71,-1.82,5.42,5.43,5.42
69.37,7.01,7.01,1.63,1.63,-1.63,-1.75,-1.84,5.38,5.38,5.38
70.07,7.00,7.00,1.67,1.66,-1.66,-1.79,-1.86,5.34,5.34,5.34
70.77,6.98,6.99,1.69,1.70,-1.70,-1.83,-1.88,5.29,5.29,5.29
71.48,6.97,6.97,1.73,1.73,-1.73,-1.87,-1.90,5.24,5.24,5.24
72.19,6.96,6.96,1.77,1.76,-1.76,-1.91,-1.93,5.20,5.20,5.20
72.91,6.94,6.94,1.79,1.80,-1.80,-1.95,-1.95,5.14,5.15,5.15
73.64,6.93,6.93,1.83,1.83,-1.84,-1.99,-1.97,5.10,5.10,5.10
74.38,6.92,6.92,1.87,1.88,-1.88,-2.04,-1.99,5.04,5.05,5.05
75.12,6.92,6.92,1.92,1.92,-1.92,-2.08,-2.01,5.00,5.00,5.00
75.87,6.91,6.91,1.97,1.97,-1.97,-2.12,-2.04,4.94,4.94,4.95
76.63,6.90,6.91,2.01,2.01,-2.02,-2.16,-2.06,4.88,4.89,4.89
77.40,6.90,6.90,2.06,2.07,-2.07,-2.21,-2.09,4.83,4.83,4.84
78.17,6.90,6.90,2.12,2.12,-2.12,-2.25,-2.11,4.78,4.78,4.78
78.95,6.90,6.90,2.18,2.17,-2.17,-2.30,-2.14,4.73,4.73,4.73
79.74,6.89,6.89,2.22,2.22,-2.22,-2.34,-2.17,4.67,4.68,4.67
80.54,6.88,6.88,2.27,2.27,-2.26,-2.39,-2.20,4.62,4.62,4.61
81.35,6.86,6.86,2.31,2.31,-2.31,-2.43,-2.24,4.56,4.56,4.55
82.16,6.84,6.84,2.35,2.35,-2.35,-2.48,-2.27,4.50,4.49,4.49
82.98,6.81,6.82,2.38,2.38,-2.39,-2.52,-2.31,4.43,4.43,4.43
83.81,6.79,6.79,2.42,2.42,-2.43,-2.57,-2.34,4.37,4.36,4.37
84.65,6.76,6.76,2.46,2.46,-2.47,-2.61,-2.38,4.30,4.30,4.31
85.50,6.74,6.74,2.50,2.50,-2.51,-2.66,-2.43,4.24,4.24,4.24
86.35,6.72,6.72,2.54,2.54,-2.55,-2.71,-2.47,4.17,4.17,4.18
87.22,6.70,6.70,2.59,2.59,-2.59,-2.75,-2.51,4.11,4.11,4.11
88.09,6.68,6.68,2.64,2.64,-2.64,-2.80,-2.56,4.05,4.05,4.05
88.97,6.66,6.66,2.68,2.68,-2.68,-2.85,-2.61,3.98,3.98,3.98
89.86,6.64,6.64,2.73,2.73,-2.72,-2.90,-2.66,3.92,3.92,3.91
90.76,6.61,6.61,2.77,2.77,-2.76,-2.94,-2.71,3.85,3.85,3.84
91.66,6.58,6.58,2.81,2.80,-2.80,-2.99,-2.77,3.78,3.78,3.78
92.58,6.54,6.55,2.84,2.84,-2.84,-3.04,-2.83,3.70,3.71,3.71
93.51,6.51,6.51,2.88,2.88,-2.88,-3.08,-2.89,3.64,3.64,3.64
94.44,6.48,6.48,2.92,2.91,-2.91,-3.13,-2.95,3.57,3.57,3.57
95.39,6.45,6.45,2.96,2.95,-2.95,-3.18,-3.01,3.50,3.50,3.50
96.34,6.41,6.42,2.99,2.99,-2.99,-3.23,-3.07,3.42,3.42,3.42
97.30,6.38,6.38,3.03,3.03,-3.04,-3.27,-3.14,3.35,3.35,3.35
98.28,6.36,6.36,3.08,3.08,-3.09,-3.32,-3.21,3.28,3.27,3.28
99.26,6.34,6.34,3.13,3.13,-3.14,-3.37,-3.28,3.20,3.20,3.21
100.25,6.33,6.33,3.20,3.19,-3.20,-3.41,-3.35,3.13,3.13,3.14
101.25,6.32,6.32,3.26,3.26,-3.27,-3.46,-3.42,3.06,3.06,3.06
102.27,6.32,6.32,3.33,3.33,-3.33,-3.50,-3.49,2.99,2.99,2.99
103.29,6.32,6.32,3.40,3.40,-3.40,-3.55,-3.56,2.92,2.92,2.92
104.32,6.32,6.32,3.48,3.48,-3.48,-3.59,-3.63,2.85,2.85,2.84
105.37,6.32,6.32,3.55,3.55,-3.55,-3.64,-3.70,2.78,2.78,2.77
106.42,6.32,6.32,3.62,3.62,-3.61,-3.68,-3.78,2.71,2.70,2.70
107.48,6.30,6.31,3.68,3.68,-3.68,-3.73,-3.85,2.62,2.63,2.63
108.56,6.29,6.29,3.74,3.74,-3.74,-3.77,-3.92,2.56,2.55,2.55
109.64,6.27,6.27,3.79,3.79,-3.79,-3.81,-3.99,2.48,2.48,2.48
110.74,6.25,6.25,3.84,3.84,-3.84,-3.85,-4.05,2.41,2.41,2.41
111.85,6.22,6.22,3.89,3.88,-3.88,-3.89,-4.12,2.34,2.34,2.34
112.97,6.18,6.18,3.92,3.92,-3.92,-3.93,-4.18,2.26,2.26,2.26
114.10,6.14,6.14,3.95,3.95,-3.95,-3.97,-4.24,2.19,2.19,2.19
115.24,6.10,6.10,3.98,3.98,-3.98,-4.01,-4.30,2.12,2.12,2.12
116.39,6.06,6.06,4.01,4.01,-4.01,-4.05,-4.35,2.06,2.05,2.05
117.55,6.01,6.01,4.03,4.03,-4.03,-4.08,-4.40,1.98,1.98,1.98
118.73,5.96,5.96,4.05,4.05,-4.05,-4.12,-4.45,1.91,1.91,1.91
119.92,5.90,5.90,4.06,4.06,-4.08,-4.16,-4.49,1.83,1.83,1.84
121.12,5.85,5.86,4.08,4.09,-4.10,-4.19,-4.52,1.75,1.76,1.77
122.33,5.81,5.82,4.11,4.11,-4.12,-4.22,-4.55,1.69,1.69,1.70
123.55,5.78,5.78,4.15,4.14,-4.14,-4.26,-4.58,1.64,1.64,1.64
124.79,5.74,5.74,4.17,4.17,-4.16,-4.29,-4.60,1.58,1.58,1.57
126.03,5.69,5.69,4.19,4.19,-4.18,-4.32,-4.62,1.52,1.52,1.50
127.29,5.63,5.63,4.20,4.19,-4.19,-4.35,-4.63,1.45,1.44,1.44
128.57,5.56,5.56,4.19,4.19,-4.19,-4.37,-4.63,1.37,1.37,1.37
129.85,5.49,5.50,4.18,4.19,-4.19,-4.40,-4.63,1.30,1.31,1.31
131.15,5.43,5.43,4.19,4.18,-4.18,-4.43,-4.63,1.25,1.25,1.25
132.46,5.36,5.36,4.18,4.18,-4.16,-4.45,-4.62,1.20,1.20,1.18
133.79,5.29,5.29,4.17,4.17,-4.15,-4.48,-4.61,1.15,1.14,1.12
135.12,5.21,5.21,4.15,4.15,-4.13,-4.50,-4.59,1.08,1.08,1.06
136.48,5.14,5.13,4.14,4.13,-4.13,-4.52,-4.57,1.01,1.01,1.00
137.84,5.06,5.06,4.12,4.12,-4.14,-4.54,-4.54,0.92,0.93,0.94
139.22,5.01,5.02,4.13,4.13,-4.17,-4.56,-4.52,0.85,0.85,0.89
140.61,5.00,5.00,4.17,4.17,-4.22,-4.57,-4.49,0.78,0.78,0.83
142.02,5.03,5.03,4.26,4.25,-4.30,-4.59,-4.46,0.74,0.73,0.77
143.44,5.07,5.08,4.35,4.36,-4.39,-4.61,-4.43,0.68,0.69,0.72
144.87,5.16,5.16,4.50,4.50,-4.51,-4.62,-4.39,0.65,0.65,0.67
146.32,5.26,5.26,4.65,4.64,-4.63,-4.63,-4.36,0.63,0.62,0.61
147.78,5.35,5.35,4.79,4.79,-4.76,-4.64,-4.33,0.59,0.59,0.56
149.26,5.42,5.42,4.91,4.91,-4.88,-4.65,-4.30,0.55,0.55,0.51
150.75,5.47,5.47,5.01,5.01,-4.98,-4.66,-4.26,0.49,0.49,0.46
152.26,5.50,5.50,5.09,5.09,-5.06,-4.67,-4.23,0.44,0.44,0.41
153.78,5.50,5.50,5.14,5.14,-5.12,-4.68,-4.20,0.38,0.38,0.36
155.32,5.48,5.49,5.16,5.17,-5.17,-4.68,-4.17,0.32,0.32,0.32
156.88,5.46,5.46,5.19,5.18,-5.19,-4.69,-4.14,0.27,0.27,0.27
158.44,5.42,5.42,5.19,5.20,-5.21,-4.69,-4.12,0.22,0.22,0.23
160.03,5.38,5.38,5.20,5.20,-5.21,-4.69,-4.09,0.17,0.17,0.19
161.63,5.34,5.34,5.21,5.21,-5.22,-4.69,-4.07,0.13,0.13,0.13
163.24,5.30,5.30,5.21,5.21,-5.22,-4.69,-4.06,0.09,0.09,0.09
164.88,5.26,5.26,5.21,5.21,-5.21,-4.69,-4.04,0.05,0.05,0.05
166.53,5.22,5.22,5.21,5.21,-5.21,-4.69,-4.03,0.01,0.01,0.01
168.19,5.18,5.18,5.21,5.21,-5.21,-4.68,-4.02,-0.02,-0.03,-0.03
169.87,5.13,5.14,5.20,5.20,-5.20,-4.68,-4.01,-0.07,-0.06,-0.06
171.57,5.09,5.09,5.19,5.19,-5.19,-4.67,-4.00,-0.10,-0.10,-0.10
173.29,5.04,5.04,5.18,5.18,-5.18,-4.67,-4.00,-0.13,-0.13,-0.14
175.02,4.99,4.99,5.16,5.16,-5.16,-4.66,-4.01,-0.17,-0.17,-0.17
176.77,4.94,4.94,5.15,5.15,-5.15,-4.65,-4.01,-0.21,-0.21,-0.20
178.54,4.89,4.89,5.13,5.13,-5.13,-4.64,-4.02,-0.24,-0.24,-0.24
180.32,4.84,4.84,5.11,5.11,-5.12,-4.63,-4.03,-0.27,-0.27,-0.27
182.13,4.80,4.80,5.10,5.10,-5.10,-4.62,-4.04,-0.30,-0.30,-0.30
183.95,4.75,4.75,5.08,5.08,-5.08,-4.60,-4.06,-0.33,-0.33,-0.33
185.79,4.71,4.71,5.07,5.07,-5.07,-4.59,-4.08,-0.36,-0.36,-0.36
187.65,4.66,4.66,5.05,5.05,-5.05,-4.58,-4.10,-0.39,-0.39,-0.39
189.52,4.62,4.62,5.04,5.03,-5.03,-4.56,-4.13,-0.41,-0.41,-0.41
191.42,4.57,4.58,5.01,5.02,-5.01,-4.54,-4.16,-0.44,-0.44,-0.44
193.33,4.53,4.53,5.00,5.00,-4.99,-4.53,-4.19,-0.46,-0.46,-0.47
195.27,4.48,4.48,4.97,4.97,-4.97,-4.51,-4.22,-0.49,-0.49,-0.49
197.22,4.43,4.43,4.95,4.95,-4.95,-4.49,-4.26,-0.52,-0.52,-0.52
199.19,4.38,4.38,4.92,4.92,-4.93,-4.47,-4.30,-0.55,-0.54,-0.54
201.18,4.34,4.34,4.90,4.90,-4.90,-4.45,-4.34,-0.56,-0.56,-0.56
203.19,4.29,4.30,4.88,4.88,-4.88,-4.43,-4.38,-0.59,-0.58,-0.58
205.23,4.25,4.25,4.86,4.86,-4.85,-4.41,-4.42,-0.60,-0.61,-0.61
207.28,4.20,4.20,4.83,4.83,-4.83,-4.38,-4.46,-0.63,-0.63,-0.63
209.35,4.15,4.16,4.80,4.80,-4.80,-4.36,-4.51,-0.65,-0.65,-0.65
211.44,4.11,4.11,4.78,4.77,-4.78,-4.34,-4.55,-0.66,-0.67,-0.67
213.56,4.06,4.06,4.75,4.75,-4.75,-4.31,-4.60,-0.69,-0.69,-0.69
215.69,4.01,4.02,4.72,4.72,-4.72,-4.29,-4.64,-0.71,-0.70,-0.70
217.85,3.97,3.97,4.69,4.69,-4.69,-4.26,-4.68,-0.72,-0.72,-0.72
220.03,3.92,3.92,4.66,4.66,-4.66,-4.24,-4.73,-0.74,-0.74,-0.74
222.23,3.87,3.87,4.63,4.63,-4.63,-4.21,-4.77,-0.75,-0.75,-0.75
224.45,3.82,3.82,4.59,4.59,-4.60,-4.18,-4.80,-0.77,-0.77,-0.77
226.70,3.77,3.78,4.56,4.56,-4.56,-4.15,-4.84,-0.79,-0.79,-0.79
228.96,3.73,3.73,4.53,4.53,-4.53,-4.13,-4.87,-0.80,-0.80,-0.80
231.25,3.68,3.68,4.50,4.50,-4.50,-4.10,-4.90,-0.82,-0.82,-0.82
233.57,3.63,3.63,4.46,4.47,-4.47,-4.07,-4.92,-0.83,-0.83,-0.83
235.90,3.58,3.58,4.44,4.43,-4.43,-4.04,-4.94,-0.85,-0.85,-0.85
238.26,3.53,3.53,4.40,4.40,-4.40,-4.01,-4.96,-0.86,-0.86,-0.87
240.64,3.48,3.48,4.36,4.36,-4.36,-3.98,-4.96,-0.88,-0.88,-0.88
243.05,3.43,3.43,4.32,4.32,-4.32,-3.95,-4.97,-0.89,-0.89,-0.89
245.48,3.38,3.38,4.28,4.28,-4.28,-3.91,-4.96,-0.90,-0.90,-0.90
247.93,3.33,3.33,4.25,4.25,-4.25,-3.88,-4.96,-0.91,-0.92,-0.91
250.41,3.28,3.28,4.21,4.21,-4.21,-3.85,-4.94,-0.93,-0.93,-0.92
252.92,3.23,3.23,4.17,4.17,-4.17,-3.82,-4.92,-0.94,-0.94,-0.94
255.45,3.19,3.19,4.14,4.14,-4.13,-3.79,-4.89,-0.94,-0.94,-0.95
258.00,3.14,3.14,4.10,4.10,-4.10,-3.75,-4.86,-0.96,-0.95,-0.96
260.58,3.10,3.10,4.07,4.06,-4.06,-3.72,-4.82,-0.96,-0.96,-0.97
263.19,3.05,3.06,4.03,4.03,-4.03,-3.69,-4.77,-0.98,-0.98,-0.97
265.82,3.02,3.02,4.01,4.00,-4.01,-3.65,-4.72,-0.98,-0.99,-0.98
268.48,2.98,2.98,3.97,3.97,-3.98,-3.62,-4.67,-1.00,-1.00,-0.99
271.16,2.95,2.95,3.95,3.95,-3.96,-3.58,-4.60,-1.01,-1.00,-1.00
273.87,2.92,2.92,3.93,3.93,-3.94,-3.55,-4.54,-1.01,-1.01,-1.01
276.61,2.90,2.90,3.92,3.92,-3.92,-3.52,-4.47,-1.01,-1.02,-1.02
279.38,2.87,2.88,3.90,3.90,-3.89,-3.48,-4.40,-1.02,-1.02,-1.02
282.17,2.85,2.85,3.88,3.88,-3.87,-3.45,-4.32,-1.02,-1.02,-1.03
284.99,2.82,2.82,3.85,3.85,-3.84,-3.41,-4.25,-1.02,-1.02,-1.03
287.84,2.79,2.79,3.82,3.82,-3.81,-3.38,-4.17,-1.02,-1.02,-1.02
290.72,2.75,2.75,3.78,3.78,-3.78,-3.34,-4.08,-1.03,-1.03,-1.03
293.63,2.71,2.71,3.75,3.75,-3.74,-3.30,-4.00,-1.03,-1.03,-1.04
296.57,2.67,2.67,3.70,3.70,-3.70,-3.27,-3.92,-1.03,-1.03,-1.03
299.53,2.63,2.63,3.66,3.66,-3.66,-3.23,-3.83,-1.03,-1.03,-1.03
302.53,2.58,2.59,3.62,3.62,-3.62,-3.20,-3.75,-1.04,-1.03,-1.03
305.55,2.54,2.54,3.57,3.57,-3.58,-3.16,-3.66,-1.03,-1.03,-1.03
308.61,2.50,2.50,3.54,3.53,-3.53,-3.13,-3.58,-1.03,-1.03,-1.03
311.69,2.45,2.46,3.48,3.49,-3.49,-3.09,-3.49,-1.03,-1.03,-1.03
314.81,2.41,2.41,3.45,3.44,-3.44,-3.05,-3.41,-1.03,-1.03,-1.03
317.96,2.36,2.37,3.39,3.40,-3.39,-3.02,-3.33,-1.03,-1.03,-1.03
321.14,2.32,2.32,3.35,3.35,-3.35,-2.98,-3.25,-1.03,-1.03,-1.03
324.35,2.27,2.27,3.30,3.30,-3.30,-2.94,-3.17,-1.03,-1.03,-1.03
327.59,2.22,2.23,3.24,3.25,-3.25,-2.91,-3.09,-1.03,-1.03,-1.02
330.87,2.18,2.18,3.21,3.20,-3.21,-2.87,-3.01,-1.02,-1.03,-1.02
334.18,2.14,2.14,3.16,3.16,-3.16,-2.84,-2.94,-1.02,-1.02,-1.02
337.52,2.09,2.10,3.11,3.11,-3.11,-2.80,-2.87,-1.02,-1.02,-1.02
340.90,2.05,2.05,3.07,3.06,-3.06,-2.76,-2.79,-1.01,-1.01,-1.02
344.30,2.00,2.00,3.01,3.02,-3.01,-2.73,-2.73,-1.01,-1.01,-1.01
347.75,1.96,1.96,2.96,2.96,-2.97,-2.69,-2.66,-1.00,-1.01,-1.00
351.23,1.91,1.92,2.92,2.92,-2.92,-2.65,-2.59,-1.00,-1.00,-1.01
354.74,1.87,1.87,2.86,2.87,-2.87,-2.62,-2.53,-1.00,-1.00,-0.99
358.28,1.83,1.83,2.82,2.82,-2.82,-2.58,-2.47,-0.99,-0.99,-0.99
361.87,1.78,1.79,2.77,2.77,-2.77,-2.55,-2.41,-0.99,-0.99,-0.98
365.49,1.74,1.74,2.72,2.72,-2.72,-2.51,-2.35,-0.98,-0.98,-0.98
369.14,1.70,1.70,2.68,2.68,-2.68,-2.47,-2.30,-0.97,-0.97,-0.98
372.83,1.66,1.66,2.62,2.63,-2.63,-2.44,-2.24,-0.97,-0.97,-0.96
376.56,1.62,1.62,2.59,2.58,-2.58,-2.40,-2.19,-0.96,-0.96,-0.96
380.33,1.57,1.58,2.53,2.54,-2.53,-2.37,-2.14,-0.96,-0.96,-0.96
384.13,1.53,1.53,2.49,2.49,-2.49,-2.33,-2.09,-0.95,-0.95,-0.96
387.97,1.49,1.49,2.44,2.44,-2.44,-2.29,-2.05,-0.95,-0.95,-0.95
391.85,1.45,1.45,2.39,2.39,-2.39,-2.26,-2.00,-0.94,-0.94,-0.93
395.77,1.41,1.41,2.35,2.34,-2.34,-2.22,-1.96,-0.93,-0.93,-0.94
399.73,1.36,1.37,2.29,2.29,-2.30,-2.19,-1.92,-0.93,-0.93,-0.93
403.72,1.32,1.32,2.24,2.25,-2.25,-2.15,-1.88,-0.93,-0.93,-0.92
407.76,1.28,1.28,2.20,2.20,-2.20,-2.11,-1.84,-0.92,-0.92,-0.92
411.84,1.24,1.24,2.16,2.16,-2.16,-2.08,-1.80,-0.91,-0.91,-0.91
415.96,1.20,1.20,2.11,2.11,-2.11,-2.04,-1.76,-0.91,-0.91,-0.91
420.12,1.16,1.16,2.07,2.07,-2.06,-2.01,-1.73,-0.90,-0.90,-0.91
424.32,1.12,1.12,2.02,2.02,-2.02,-1.97,-1.70,-0.90,-0.90,-0.90
428.56,1.08,1.08,1.97,1.97,-1.97,-1.93,-1.66,-0.89,-0.89,-0.89
432.85,1.04,1.04,1.92,1.93,-1.93,-1.90,-1.63,-0.88,-0.88,-0.88
437.18,1.00,1.00,1.89,1.88,-1.88,-1.86,-1.60,-0.88,-0.88,-0.88
441.55,0.96,0.96,1.84,1.84,-1.83,-1.83,-1.57,-0.87,-0.87,-0.87
445.96,0.92,0.92,1.79,1.78,-1.78,-1.79,-1.54,-0.86,-0.86,-0.87
450.42,0.88,0.88,1.73,1.73,-1.74,-1.76,-1.51,-0.85,-0.85,-0.85
454.93,0.84,0.85,1.68,1.68,-1.69,-1.72,-1.49,-0.85,-0.84,-0.84
459.48,0.81,0.81,1.64,1.64,-1.64,-1.68,-1.46,-0.83,-0.83,-0.83
464.07,0.77,0.77,1.60,1.60,-1.60,-1.65,-1.43,-0.83,-0.83,-0.83
468.71,0.73,0.73,1.55,1.55,-1.55,-1.61,-1.41,-0.82,-0.82,-0.82
473.40,0.69,0.70,1.50,1.51,-1.51,-1.58,-1.38,-0.81,-0.81,-0.81
478.13,0.66,0.66,1.47,1.46,-1.46,-1.54,-1.35,-0.80,-0.80,-0.80
482.91,0.62,0.62,1.42,1.42,-1.42,-1.51,-1.33,-0.79,-0.80,-0.79
487.74,0.58,0.58,1.37,1.37,-1.37,-1.47,-1.30,-0.79,-0.79,-0.79
492.62,0.54,0.54,1.32,1.32,-1.32,-1.43,-1.28,-0.78,-0.78,-0.78
497.55,0.51,0.51,1.28,1.28,-1.27,-1.40,-1.25,-0.76,-0.76,-0.77
502.52,0.47,0.48,1.23,1.23,-1.23,-1.36,-1.23,-0.75,-0.75,-0.76
507.55,0.44,0.44,1.18,1.18,-1.18,-1.32,-1.20,-0.74,-0.74,-0.74
512.62,0.40,0.40,1.13,1.13,-1.14,-1.29,-1.18,-0.73,-0.73,-0.73
517.75,0.36,0.37,1.08,1.09,-1.09,-1.25,-1.15,-0.73,-0.72,-0.72
522.93,0.33,0.33,1.04,1.04,-1.05,-1.21,-1.13,-0.71,-0.71,-0.71
