frequency,raw,error,smoothed,error_smoothed,equalization,parametric_eq,fixed_band_eq,equalized_raw,equalized_smoothed,target
20.00,10.75,4.50,10.75,4.50,-4.51,-4.49,-2.10,6.24,6.24,6.25
20.20,10.77,4.54,10.78,4.54,-4.55,-4.49,-2.16,6.23,6.23,6.23
20.40,10.79,4.58,10.80,4.58,-4.58,-4.49,-2.22,6.21,6.21,6.21
20.61,10.81,4.61,10.82,4.62,-4.62,-4.50,-2.29,6.20,6.20,6.20
20.81,10.83,4.66,10.83,4.65,-4.65,-4.50,-2.35,6.19,6.19,6.18
21.02,10.85,4.69,10.85,4.68,-4.67,-4.51,-2.42,6.18,6.18,6.17
21.23,10.85,4.71,10.85,4.70,-4.70,-4.51,-2.49,6.16,6.16,6.15
21.44,10.85,4.72,10.86,4.72,-4.72,-4.51,-2.56,6.14,6.14,6.14
21.66,10.85,4.73,10.85,4.73,-4.73,-4.52,-2.63,6.12,6.12,6.13
21.87,10.85,4.75,10.85,4.74,-4.75,-4.52,-2.71,6.11,6.11,6.11
22.09,10.85,4.76,10.85,4.76,-4.76,-4.53,-2.79,6.09,6.09,6.10
22.31,10.85,4.77,10.85,4.77,-4.77,-4.53,-2.87,6.08,6.08,6.08
22.54,10.85,4.78,10.85,4.78,-4.78,-4.53,-2.95,6.07,6.07,6.07
22.76,10.85,4.79,10.85,4.79,-4.79,-4.54,-3.03,6.06,6.06,6.06
22.99,10.85,4.80,10.85,4.80,-4.80,-4.54,-3.12,6.05,6.05,6.05
23.22,10.85,4.81,10.85,4.81,-4.81,-4.55,-3.20,6.05,6.05,6.04
23.45,10.85,4.81,10.85,4.82,-4.81,-4.55,-3.29,6.04,6.04,6.04
23.69,10.85,4.82,10.85,4.82,-4.82,-4.56,-3.39,6.03,6.03,6.03
23.92,10.85,4.82,10.85,4.82,-4.82,-4.56,-3.48,6.03,6.03,6.03
24.16,10.85,4.83,10.85,4.83,-4.83,-4.57,-3.57,6.03,6.03,6.03
24.40,10.85,4.83,10.85,4.83,-4.83,-4.57,-3.67,6.03,6.03,6.03
24.65,10.85,4.83,10.85,4.83,-4.83,-4.58,-3.77,6.03,6.03,6.03
24.89,10.85,4.83,10.85,4.83,-4.83,-4.58,-3.87,6.03,6.03,6.03
25.14,10.85,4.83,10.85,4.83,-4.83,-4.59,-3.97,6.03,6.03,6.03
25.39,10.85,4.83,10.85,4.83,-4.83,-4.59,-4.07,6.03,6.03,6.02
25.65,10.85,4.83,10.85,4.83,-4.83,-4.60,-4.17,6.03,6.03,6.02
25.91,10.85,4.82,10.85,4.83,-4.83,-4.60,-4.27,6.03,6.03,6.03
26.16,10.85,4.82,10.85,4.82,-4.83,-4.61,-4.37,6.03,6.03,6.03
26.43,10.85,4.82,10.85,4.82,-4.83,-4.62,-4.47,6.03,6.03,6.03
26.69,10.85,4.83,10.85,4.83,-4.82,-4.62,-4.57,6.03,6.03,6.03
26.96,10.85,4.83,10.85,4.83,-4.83,-4.63,-4.67,6.03,6.03,6.03
27.23,10.85,4.83,10.85,4.83,-4.83,-4.63,-4.77,6.03,6.03,6.03
27.50,10.85,4.83,10.85,4.83,-4.83,-4.64,-4.87,6.02,6.02,6.02
27.77,10.85,4.83,10.85,4.83,-4.83,-4.65,-4.96,6.02,6.02,6.02
28.05,10.85,4.83,10.85,4.84,-4.84,-4.65,-5.05,6.02,6.02,6.02
28.33,10.85,4.84,10.85,4.84,-4.84,-4.66,-5.13,6.01,6.01,6.01
28.62,10.85,4.85,10.85,4.84,-4.84,-4.67,-5.22,6.01,6.01,6.01
28.90,10.85,4.85,10.85,4.85,-4.84,-4.67,-5.29,6.01,6.01,6.01
29.19,10.85,4.85,10.85,4.85,-4.85,-4.68,-5.36,6.01,6.01,6.01
29.48,10.85,4.85,10.85,4.85,-4.85,-4.69,-5.43,6.00,6.00,6.00
29.78,10.85,4.85,10.85,4.85,-4.85,-4.69,-5.49,6.00,6.00,6.00
30.08,10.85,4.85,10.85,4.85,-4.86,-4.70,-5.54,6.00,6.00,6.00
30.38,10.85,4.86,10.85,4.86,-4.86,-4.71,-5.59,5.99,5.99,6.00
30.68,10.85,4.87,10.85,4.86,-4.87,-4.71,-5.63,5.99,5.99,5.99
30.99,10.85,4.87,10.85,4.87,-4.87,-4.72,-5.66,5.98,5.98,5.98
31.30,10.85,4.88,10.85,4.88,-4.88,-4.73,-5.69,5.98,5.98,5.97
31.61,10.85,4.88,10.85,4.88,-4.88,-4.74,-5.71,5.97,5.97,5.97
31.93,10.85,4.89,10.85,4.89,-4.89,-4.75,-5.71,5.96,5.96,5.97
32.24,10.85,4.90,10.85,4.90,-4.90,-4.75,-5.72,5.96,5.96,5.95
32.57,10.85,4.90,10.85,4.90,-4.90,-4.76,-5.72,5.95,5.95,5.95
32.89,10.85,4.90,10.85,4.91,-4.90,-4.77,-5.71,5.95,5.95,5.95
33.22,10.85,4.91,10.85,4.91,-4.91,-4.78,-5.69,5.95,5.95,5.95
33.55,10.85,4.91,10.85,4.91,-4.91,-4.79,-5.67,5.95,5.95,5.94
33.89,10.85,4.90,10.85,4.91,-4.91,-4.80,-5.64,5.95,5.95,5.95
34.23,10.85,4.91,10.85,4.91,-4.91,-4.80,-5.61,5.95,5.95,5.95
34.57,10.85,4.91,10.85,4.91,-4.90,-4.81,-5.58,5.95,5.95,5.95
34.92,10.85,4.90,10.85,4.90,-4.90,-4.82,-5.54,5.95,5.95,5.95
35.27,10.85,4.91,10.85,4.90,-4.90,-4.83,-5.50,5.95,5.95,5.95
35.62,10.85,4.90,10.85,4.90,-4.90,-4.84,-5.45,5.95,5.95,5.96
35.97,10.85,4.90,10.85,4.90,-4.91,-4.85,-5.40,5.95,5.95,5.95
36.33,10.85,4.91,10.85,4.90,-4.91,-4.86,-5.36,5.94,5.94,5.95
36.70,10.85,4.91,10.85,4.91,-4.91,-4.87,-5.31,5.94,5.94,5.94
37.06,10.85,4.91,10.85,4.92,-4.92,-4.88,-5.26,5.94,5.94,5.94
37.43,10.85,4.93,10.86,4.93,-4.92,-4.89,-5.21,5.93,5.94,5.93
37.81,10.85,4.93,10.85,4.93,-4.92,-4.90,-5.16,5.93,5.93,5.92
38.19,10.84,4.94,10.84,4.93,-4.92,-4.91,-5.11,5.92,5.92,5.91
38.57,10.81,4.92,10.81,4.92,-4.92,-4.92,-5.07,5.89,5.90,5.89
38.95,10.78,4.91,10.79,4.91,-4.92,-4.93,-5.02,5.87,5.87,5.88
39.34,10.77,4.91,10.77,4.91,-4.92,-4.94,-4.98,5.86,5.85,5.86
39.74,10.76,4.91,10.76,4.91,-4.92,-4.95,-4.94,5.85,5.84,5.86
40.14,10.75,4.91,10.76,4.92,-4.92,-4.96,-4.90,5.83,5.84,5.84
40.54,10.75,4.93,10.75,4.92,-4.92,-4.97,-4.87,5.83,5.83,5.83
40.94,10.75,4.93,10.75,4.93,-4.93,-4.98,-4.83,5.82,5.82,5.82
41.35,10.75,4.94,10.75,4.94,-4.94,-4.99,-4.80,5.81,5.81,5.81
41.76,10.75,4.96,10.75,4.95,-4.95,-5.00,-4.78,5.81,5.81,5.80
42.18,10.75,4.96,10.75,4.96,-4.96,-5.02,-4.75,5.80,5.80,5.79
42.60,10.75,4.96,10.75,4.96,-4.97,-5.03,-4.73,5.79,5.79,5.79
43.03,10.75,4.97,10.75,4.97,-4.97,-5.04,-4.71,5.78,5.78,5.79
43.46,10.75,4.97,10.75,4.97,-4.97,-5.05,-4.70,5.78,5.78,5.78
43.90,10.75,4.97,10.76,4.98,-4.97,-5.06,-4.69,5.78,5.78,5.78
44.33,10.75,4.98,10.76,4.98,-4.96,-5.07,-4.68,5.79,5.79,5.78
44.78,10.75,4.99,10.75,4.98,-4.96,-5.09,-4.68,5.80,5.79,5.77
45.23,10.73,4.97,10.72,4.96,-4.95,-5.10,-4.68,5.79,5.77,5.77
45.68,10.68,4.92,10.69,4.93,-4.94,-5.11,-4.68,5.74,5.75,5.76
46.13,10.65,4.90,10.66,4.91,-4.93,-5.12,-4.69,5.72,5.73,5.75
46.60,10.65,4.91,10.65,4.91,-4.93,-5.14,-4.70,5.73,5.72,5.74
47.06,10.65,4.92,10.65,4.92,-4.93,-5.15,-4.72,5.73,5.72,5.73
47.53,10.65,4.93,10.65,4.93,-4.93,-5.16,-4.73,5.72,5.72,5.72
48.01,10.65,4.94,10.65,4.95,-4.94,-5.17,-4.75,5.71,5.71,5.71
48.49,10.65,4.96,10.65,4.96,-4.95,-5.19,-4.78,5.70,5.70,5.69
48.97,10.65,4.97,10.65,4.97,-4.97,-5.20,-4.80,5.68,5.68,5.68
49.46,10.65,4.98,10.65,4.99,-4.99,-5.21,-4.83,5.67,5.67,5.67
49.96,10.65,5.01,10.65,5.00,-5.00,-5.23,-4.86,5.65,5.65,5.65
50.46,10.65,5.02,10.65,5.02,-5.02,-5.24,-4.90,5.64,5.64,5.64
50.96,10.65,5.03,10.65,5.03,-5.03,-5.25,-4.94,5.62,5.62,5.62
51.47,10.65,5.04,10.65,5.04,-5.04,-5.27,-4.97,5.61,5.61,5.61
51.99,10.65,5.06,10.65,5.06,-5.06,-5.28,-5.01,5.60,5.60,5.60
52.51,10.65,5.07,10.65,5.07,-5.07,-5.29,-5.06,5.58,5.58,5.58
53.03,10.65,5.09,10.65,5.09,-5.09,-5.31,-5.10,5.56,5.56,5.57
53.56,10.65,5.10,10.65,5.10,-5.11,-5.32,-5.14,5.54,5.54,5.55
54.10,10.65,5.12,10.65,5.12,-5.13,-5.34,-5.19,5.53,5.53,5.54
54.64,10.65,5.13,10.65,5.13,-5.14,-5.35,-5.23,5.51,5.52,5.52
55.18,10.65,5.15,10.66,5.15,-5.15,-5.36,-5.27,5.51,5.51,5.50
55.74,10.65,5.17,10.65,5.17,-5.14,-5.38,-5.32,5.51,5.51,5.49
56.29,10.64,5.17,10.64,5.17,-5.14,-5.39,-5.36,5.51,5.50,5.47
56.86,10.61,5.16,10.60,5.15,-5.13,-5.41,-5.40,5.49,5.48,5.45
57.42,10.55,5.12,10.55,5.11,-5.11,-5.42,-5.44,5.44,5.44,5.43
58.00,10.48,5.06,10.50,5.08,-5.10,-5.43,-5.48,5.38,5.40,5.42
58.58,10.46,5.06,10.46,5.06,-5.09,-5.45,-5.51,5.37,5.37,5.40
59.16,10.45,5.07,10.45,5.07,-5.09,-5.46,-5.54,5.36,5.36,5.38
59.76,10.45,5.09,10.45,5.09,-5.09,-5.48,-5.57,5.36,5.36,5.36
60.35,10.45,5.11,10.45,5.11,-5.11,-5.49,-5.60,5.35,5.35,5.34
60.96,10.45,5.14,10.45,5.13,-5.13,-5.51,-5.62,5.33,5.33,5.32
61.57,10.45,5.16,10.45,5.16,-5.16,-5.52,-5.64,5.30,5.30,5.30
62.18,10.45,5.18,10.45,5.19,-5.19,-5.53,-5.66,5.27,5.27,5.27
62.80,10.45,5.22,10.45,5.21,-5.22,-5.55,-5.67,5.24,5.24,5.24
63.43,10.45,5.24,10.46,5.24,-5.24,-5.56,-5.68,5.21,5.22,5.21
64.07,10.45,5.27,10.46,5.27,-5.26,-5.58,-5.68,5.19,5.20,5.19
64.71,10.45,5.30,10.45,5.30,-5.28,-5.59,-5.69,5.17,5.17,5.15
65.35,10.43,5.31,10.43,5.31,-5.30,-5.61,-5.68,5.13,5.13,5.12
66.01,10.39,5.31,10.40,5.31,-5.32,-5.62,-5.68,5.08,5.08,5.08
66.67,10.36,5.31,10.37,5.31,-5.34,-5.64,-5.67,5.03,5.03,5.05
67.33,10.34,5.33,10.35,5.34,-5.35,-5.65,-5.66,4.99,5.00,5.01
68.01,10.35,5.37,10.35,5.37,-5.36,-5.66,-5.65,4.99,4.99,4.98
68.69,10.35,5.41,10.34,5.40,-5.38,-5.68,-5.63,4.97,4.96,4.94
69.37,10.32,5.41,10.32,5.41,-5.40,-5.69,-5.62,4.92,4.92,4.91
70.07,10.28,5.42,10.29,5.42,-5.43,-5.71,-5.60,4.86,4.87,4.87
70.77,10.26,5.43,10.27,5.43,-5.45,-5.72,-5.58,4.81,4.82,4.83
71.48,10.25,5.45,10.25,5.46,-5.47,-5.74,-5.57,4.78,4.78,4.80
72.19,10.25,5.50,10.26,5.50,-5.50,-5.75,-5.55,4.76,4.76,4.76
72.91,10.25,5.53,10.26,5.54,-5.52,-5.76,-5.53,4.74,4.74,4.72
73.64,10.25,5.57,10.24,5.56,-5.54,-5.78,-5.51,4.72,4.71,4.68
74.38,10.22,5.58,10.21,5.57,-5.56,-5.79,-5.50,4.66,4.65,4.64
75.12,10.17,5.58,10.18,5.58,-5.59,-5.81,-5.48,4.58,4.59,4.60
75.87,10.14,5.59,10.16,5.60,-5.63,-5.82,-5.47,4.52,4.53,4.56
76.63,10.15,5.64,10.15,5.63,-5.66,-5.84,-5.46,4.49,4.49,4.52
77.40,10.15,5.68,10.15,5.68,-5.69,-5.85,-5.45,4.46,4.46,4.48
78.17,10.15,5.72,10.16,5.72,-5.72,-5.87,-5.45,4.44,4.44,4.43
78.95,10.15,5.76,10.16,5.77,-5.74,-5.88,-5.44,4.42,4.42,4.39
79.74,10.15,5.81,10.14,5.80,-5.76,-5.89,-5.44,4.39,4.38,4.35
80.54,10.11,5.81,10.11,5.81,-5.78,-5.91,-5.45,4.34,4.34,4.30
81.35,10.06,5.81,10.06,5.80,-5.79,-5.92,-5.46,4.27,4.27,4.26
82.16,10.00,5.79,10.00,5.79,-5.81,-5.94,-5.47,4.19,4.19,4.21
82.98,9.94,5.78,9.96,5.79,-5.83,-5.95,-5.48,4.11,4.13,4.17
83.81,9.94,5.82,9.94,5.82,-5.86,-5.97,-5.50,4.08,4.08,4.12
84.65,9.94,5.87,9.94,5.87,-5.89,-5.98,-5.52,4.05,4.04,4.07
85.50,9.94,5.93,9.94,5.93,-5.93,-6.00,-5.55,4.01,4.01,4.01
86.35,9.94,5.98,9.95,5.98,-5.97,-6.01,-5.58,3.97,3.98,3.96
87.22,9.95,6.04,9.96,6.04,-6.01,-6.03,-5.61,3.95,3.95,3.91
88.09,9.95,6.09,9.95,6.09,-6.04,-6.04,-5.65,3.91,3.91,3.86
88.97,9.93,6.12,9.92,6.11,-6.08,-6.06,-5.70,3.86,3.84,3.81
89.86,9.86,6.11,9.86,6.11,-6.11,-6.08,-5.74,3.76,3.76,3.75
90.76,9.79,6.09,9.81,6.11,-6.14,-6.09,-5.79,3.65,3.67,3.70
91.66,9.76,6.13,9.77,6.13,-6.17,-6.11,-5.85,3.59,3.60,3.64
92.58,9.75,6.17,9.75,6.17,-6.20,-6.13,-5.91,3.55,3.55,3.58
93.51,9.75,6.23,9.75,6.23,-6.24,-6.14,-5.97,3.51,3.51,3.52
94.44,9.75,6.30,9.76,6.30,-6.28,-6.16,-6.04,3.47,3.47,3.46
95.39,9.75,6.36,9.75,6.36,-6.33,-6.18,-6.11,3.42,3.42,3.39
96.34,9.73,6.41,9.72,6.39,-6.38,-6.20,-6.19,3.35,3.34,3.33
97.30,9.67,6.42,9.68,6.43,-6.43,-6.22,-6.26,3.25,3.26,3.25
98.28,9.62,6.44,9.66,6.47,-6.47,-6.23,-6.35,3.15,3.19,3.19
99.26,9.64,6.53,9.61,6.50,-6.50,-6.25,-6.43,3.14,3.11,3.11
100.25,9.59,6.56,9.57,6.53,-6.53,-6.27,-6.52,3.06,3.03,3.03
101.25,9.48,6.53,9.53,6.57,-6.56,-6.29,-6.61,2.92,2.96,2.96
102.27,9.47,6.59,9.48,6.60,-6.60,-6.31,-6.70,2.88,2.88,2.88
103.29,9.45,6.65,9.43,6.62,-6.63,-6.34,-6.80,2.82,2.80,2.81
104.32,9.40,6.67,9.39,6.66,-6.67,-6.36,-6.90,2.73,2.72,2.73
105.37,9.30,6.65,9.33,6.68,-6.70,-6.38,-6.99,2.60,2.63,2.65
106.42,9.28,6.72,9.29,6.72,-6.73,-6.40,-7.09,2.56,2.57,2.57
107.48,9.27,6.78,9.27,6.77,-6.75,-6.42,-7.19,2.53,2.52,2.49
108.56,9.25,6.83,9.23,6.82,-6.77,-6.45,-7.28,2.49,2.47,2.42
109.64,9.16,6.81,9.17,6.82,-6.79,-6.47,-7.38,2.37,2.37,2.35
110.74,9.08,6.81,9.08,6.80,-6.82,-6.50,-7.47,2.26,2.26,2.27
111.85,8.98,6.78,9.00,6.80,-6.85,-6.52,-7.56,2.14,2.16,2.21
112.97,8.95,6.81,8.97,6.83,-6.87,-6.55,-7.65,2.08,2.10,2.14
114.10,8.97,6.90,8.96,6.88,-6.89,-6.57,-7.73,2.08,2.06,2.08
115.24,8.96,6.95,8.97,6.96,-6.92,-6.60,-7.81,2.04,2.05,2.01
116.39,8.95,7.01,8.94,6.99,-6.95,-6.63,-7.88,2.00,1.99,1.95
117.55,8.91,7.02,8.89,7.00,-6.99,-6.66,-7.94,1.93,1.90,1.89
118.73,8.80,6.97,8.84,7.00,-7.02,-6.69,-8.00,1.78,1.82,1.83
119.92,8.78,7.01,8.80,7.02,-7.04,-6.71,-8.05,1.74,1.75,1.78
121.12,8.79,7.07,8.78,7.06,-7.06,-6.74,-8.09,1.73,1.72,1.72
122.33,8.78,7.11,8.78,7.10,-7.08,-6.77,-8.12,1.70,1.69,1.67
123.55,8.74,7.12,8.74,7.12,-7.10,-6.80,-8.15,1.64,1.64,1.62
124.79,8.69,7.13,8.69,7.12,-7.13,-6.84,-8.16,1.57,1.56,1.57
126.03,8.62,7.11,8.65,7.13,-7.16,-6.87,-8.17,1.47,1.49,1.52
127.29,8.62,7.16,8.63,7.16,-7.19,-6.90,-8.16,1.43,1.44,1.47
128.57,8.63,7.22,8.63,7.21,-7.22,-6.93,-8.15,1.41,1.41,1.42
129.85,8.63,7.26,8.62,7.25,-7.24,-6.96,-8.12,1.39,1.38,1.37
131.15,8.61,7.29,8.61,7.29,-7.26,-6.99,-8.10,1.35,1.35,1.32
132.46,8.55,7.28,8.59,7.31,-7.28,-7.03,-8.06,1.27,1.31,1.27
133.79,8.57,7.35,8.55,7.32,-7.30,-7.06,-8.01,1.27,1.25,1.23
135.12,8.51,7.33,8.49,7.31,-7.32,-7.09,-7.96,1.20,1.17,1.18
136.48,8.42,7.29,8.43,7.29,-7.32,-7.12,-7.90,1.10,1.10,1.14
137.84,8.33,7.24,8.38,7.29,-7.32,-7.16,-7.83,1.01,1.05,1.09
139.22,8.36,7.33,8.37,7.33,-7.33,-7.19,-7.77,1.04,1.05,1.04
140.61,8.39,7.40,8.36,7.36,-7.33,-7.22,-7.69,1.06,1.02,1.00
142.02,8.35,7.41,8.31,7.36,-7.34,-7.25,-7.62,1.01,0.96,0.94
143.44,8.18,7.29,8.23,7.33,-7.35,-7.28,-7.54,0.83,0.88,0.89
144.87,8.13,7.29,8.17,7.33,-7.36,-7.31,-7.46,0.78,0.81,0.84
146.32,8.16,7.36,8.16,7.36,-7.36,-7.34,-7.38,0.80,0.80,0.80
147.78,8.19,7.44,8.16,7.40,-7.37,-7.37,-7.31,0.82,0.79,0.75
149.26,8.13,7.43,8.11,7.40,-7.37,-7.40,-7.23,0.76,0.73,0.71
150.75,7.99,7.34,8.03,7.37,-7.38,-7.43,-7.15,0.61,0.65,0.66
152.26,7.94,7.33,7.97,7.35,-7.39,-7.46,-7.07,0.56,0.58,0.61
153.78,7.95,7.38,7.95,7.37,-7.39,-7.48,-7.00,0.56,0.55,0.58
155.32,7.96,7.43,7.95,7.41,-7.40,-7.51,-6.93,0.56,0.55,0.53
156.88,7.92,7.44,7.92,7.43,-7.41,-7.53,-6.86,0.52,0.51,0.49
158.44,7.86,7.42,7.86,7.42,-7.41,-7.55,-6.79,0.45,0.45,0.45
160.03,7.78,7.38,7.80,7.40,-7.42,-7.57,-6.73,0.36,0.38,0.40
161.63,7.76,7.41,7.77,7.42,-7.43,-7.59,-6.67,0.33,0.34,0.35
163.24,7.75,7.44,7.75,7.44,-7.43,-7.61,-6.62,0.32,0.32,0.31
164.88,7.73,7.46,7.72,7.45,-7.43,-7.62,-6.57,0.31,0.29,0.27
166.53,7.67,7.44,7.66,7.43,-7.42,-7.64,-6.52,0.26,0.24,0.23
168.19,7.58,7.39,7.60,7.41,-7.41,-7.65,-6.48,0.17,0.19,0.19
169.87,7.53,7.38,7.55,7.39,-7.40,-7.66,-6.44,0.13,0.15,0.16
171.57,7.51,7.39,7.50,7.38,-7.39,-7.67,-6.41,0.13,0.11,0.12
173.29,7.45,7.37,7.44,7.36,-7.37,-7.68,-6.38,0.09,0.08,0.08
175.02,7.38,7.33,7.39,7.34,-7.34,-7.68,-6.36,0.04,0.05,0.06
176.77,7.32,7.30,7.34,7.32,-7.31,-7.68,-6.34,0.01,0.03,0.02
178.54,7.31,7.33,7.29,7.30,-7.28,-7.68,-6.33,0.03,0.01,-0.01
180.32,7.24,7.28,7.25,7.28,-7.26,-7.68,-6.32,-0.02,-0.01,-0.03
182.13,7.18,7.24,7.19,7.25,-7.24,-7.67,-6.32,-0.06,-0.05,-0.06
183.95,7.13,7.21,7.11,7.19,-7.23,-7.66,-6.31,-0.10,-0.12,-0.08
185.79,7.04,7.14,7.06,7.16,-7.22,-7.65,-6.32,-0.17,-0.15,-0.10
187.65,7.01,7.14,7.06,7.18,-7.20,-7.64,-6.33,-0.19,-0.15,-0.12
189.52,7.09,7.24,7.07,7.21,-7.19,-7.62,-6.35,-0.10,-0.12,-0.14
191.42,7.11,7.26,7.08,7.23,-7.18,-7.61,-6.36,-0.06,-0.10,-0.15
193.33,7.04,7.21,7.04,7.21,-7.17,-7.59,-6.39,-0.12,-0.13,-0.17
195.27,6.94,7.13,6.97,7.16,-7.16,-7.57,-6.41,-0.21,-0.19,-0.19
197.22,6.89,7.10,6.91,7.12,-7.14,-7.54,-6.44,-0.25,-0.23,-0.21
199.19,6.89,7.12,6.87,7.09,-7.13,-7.51,-6.47,-0.23,-0.26,-0.22
201.18,6.85,7.09,6.84,7.08,-7.10,-7.48,-6.51,-0.25,-0.27,-0.24
203.19,6.78,7.04,6.82,7.07,-7.07,-7.45,-6.55,-0.29,-0.25,-0.26
205.23,6.77,7.05,6.80,7.07,-7.04,-7.42,-6.59,-0.27,-0.24,-0.27
207.28,6.80,7.09,6.74,7.03,-7.01,-7.38,-6.63,-0.20,-0.26,-0.29
209.35,6.69,6.99,6.68,6.98,-6.97,-7.34,-6.68,-0.27,-0.29,-0.30
211.44,6.54,6.87,6.63,6.95,-6.93,-7.30,-6.72,-0.38,-0.30,-0.32
213.56,6.55,6.89,6.53,6.87,-6.88,-7.26,-6.77,-0.33,-0.35,-0.34
215.69,6.53,6.90,6.45,6.81,-6.84,-7.21,-6.82,-0.30,-0.38,-0.36
217.85,6.31,6.69,6.39,6.77,-6.79,-7.16,-6.86,-0.47,-0.39,-0.37
220.03,6.30,6.70,6.32,6.72,-6.74,-7.12,-6.91,-0.43,-0.42,-0.40
222.23,6.31,6.72,6.27,6.68,-6.69,-7.06,-6.95,-0.38,-0.42,-0.41
224.45,6.25,6.67,6.26,6.68,-6.65,-7.01,-6.99,-0.39,-0.39,-0.42
226.70,6.20,6.64,6.20,6.63,-6.61,-6.96,-7.02,-0.40,-0.40,-0.43
228.96,6.13,6.58,6.14,6.58,-6.57,-6.90,-7.06,-0.44,-0.43,-0.44
231.25,6.07,6.52,6.07,6.52,-6.54,-6.85,-7.08,-0.46,-0.46,-0.44
233.57,6.03,6.49,6.02,6.48,-6.50,-6.79,-7.11,-0.47,-0.48,-0.45
235.90,5.96,6.43,5.99,6.45,-6.47,-6.73,-7.12,-0.50,-0.48,-0.46
238.26,5.97,6.44,5.97,6.43,-6.43,-6.67,-7.13,-0.46,-0.46,-0.46
240.64,5.95,6.41,5.94,6.40,-6.39,-6.61,-7.13,-0.44,-0.45,-0.46
243.05,5.91,6.37,5.92,6.38,-6.35,-6.55,-7.13,-0.44,-0.44,-0.46
245.48,5.86,6.32,5.87,6.33,-6.32,-6.49,-7.12,-0.45,-0.44,-0.46
247.93,5.83,6.29,5.83,6.28,-6.28,-6.42,-7.10,-0.44,-0.45,-0.46
250.41,5.78,6.24,5.78,6.24,-6.24,-6.36,-7.06,-0.45,-0.46,-0.45
252.92,5.72,6.18,5.72,6.17,-6.19,-6.30,-7.03,-0.47,-0.48,-0.45
255.45,5.66,6.12,5.67,6.12,-6.14,-6.23,-6.98,-0.48,-0.48,-0.46
258.00,5.59,6.05,5.64,6.10,-6.09,-6.17,-6.93,-0.50,-0.45,-0.46
260.58,5.63,6.10,5.58,6.05,-6.04,-6.10,-6.86,-0.40,-0.45,-0.46
263.19,5.57,6.04,5.52,5.99,-5.98,-6.04,-6.79,-0.41,-0.46,-0.47
265.82,5.36,5.85,5.48,5.96,-5.93,-5.97,-6.71,-0.56,-0.45,-0.49
268.48,5.41,5.91,5.39,5.88,-5.88,-5.91,-6.63,-0.47,-0.49,-0.49
271.16,5.39,5.90,5.30,5.80,-5.83,-5.84,-6.54,-0.44,-0.54,-0.51
273.87,5.17,5.69,5.25,5.76,-5.79,-5.78,-6.44,-0.61,-0.54,-0.51
276.61,5.13,5.66,5.17,5.70,-5.74,-5.71,-6.34,-0.60,-0.56,-0.53
279.38,5.18,5.73,5.14,5.68,-5.69,-5.65,-6.23,-0.50,-0.55,-0.54
282.17,5.13,5.68,5.13,5.68,-5.64,-5.58,-6.12,-0.50,-0.51,-0.55
284.99,5.08,5.64,5.08,5.63,-5.58,-5.52,-6.01,-0.50,-0.51,-0.55
287.84,4.97,5.52,4.99,5.54,-5.54,-5.46,-5.90,-0.56,-0.54,-0.55
290.72,4.92,5.48,4.92,5.47,-5.49,-5.39,-5.78,-0.56,-0.57,-0.55
293.63,4.84,5.40,4.86,5.41,-5.43,-5.33,-5.66,-0.59,-0.58,-0.56
296.57,4.80,5.36,4.81,5.36,-5.37,-5.27,-5.54,-0.57,-0.56,-0.55
299.53,4.77,5.32,4.76,5.30,-5.31,-5.21,-5.42,-0.53,-0.55,-0.55
302.53,4.69,5.24,4.71,5.25,-5.24,-5.15,-5.30,-0.55,-0.53,-0.55
305.55,4.65,5.20,4.65,5.20,-5.18,-5.09,-5.18,-0.53,-0.53,-0.54
308.61,4.59,5.14,4.60,5.15,-5.13,-5.03,-5.06,-0.54,-0.53,-0.55
311.69,4.54,5.09,4.52,5.07,-5.08,-4.97,-4.94,-0.54,-0.56,-0.55
314.81,4.45,5.01,4.44,4.99,-5.03,-4.91,-4.83,-0.58,-0.60,-0.55
317.96,4.34,4.90,4.41,4.97,-4.99,-4.85,-4.71,-0.64,-0.58,-0.56
321.14,4.36,4.92,4.39,4.94,-4.95,-4.80,-4.60,-0.58,-0.56,-0.56
324.35,4.46,5.02,4.34,4.90,-4.90,-4.74,-4.49,-0.44,-0.56,-0.55
327.59,4.26,4.82,4.32,4.87,-4.85,-4.69,-4.38,-0.59,-0.54,-0.56
330.87,4.18,4.74,4.26,4.82,-4.79,-4.63,-4.28,-0.61,-0.54,-0.56
334.18,4.25,4.82,4.18,4.74,-4.72,-4.58,-4.17,-0.47,-0.55,-0.56
337.52,4.13,4.70,4.13,4.70,-4.65,-4.53,-4.07,-0.51,-0.51,-0.56
340.90,4.01,4.58,4.03,4.60,-4.56,-4.47,-3.97,-0.55,-0.53,-0.57
344.30,3.91,4.47,3.89,4.45,-4.47,-4.42,-3.88,-0.56,-0.59,-0.56
347.75,3.75,4.31,3.78,4.34,-4.38,-4.37,-3.79,-0.63,-0.61,-0.55
351.23,3.67,4.24,3.70,4.25,-4.30,-4.31,-3.70,-0.62,-0.60,-0.56
354.74,3.66,4.21,3.64,4.19,-4.22,-4.26,-3.61,-0.56,-0.58,-0.55
358.28,3.61,4.16,3.61,4.16,-4.15,-4.20,-3.52,-0.54,-0.54,-0.55
361.87,3.55,4.09,3.56,4.10,-4.08,-4.15,-3.44,-0.52,-0.51,-0.54
365.49,3.51,4.05,3.50,4.04,-4.01,-4.10,-3.36,-0.50,-0.51,-0.53
369.14,3.43,3.97,3.44,3.97,-3.96,-4.04,-3.29,-0.52,-0.51,-0.53
372.83,3.38,3.90,3.39,3.91,-3.90,-3.98,-3.21,-0.52,-0.52,-0.52
376.56,3.33,3.85,3.33,3.85,-3.85,-3.92,-3.14,-0.51,-0.52,-0.52
380.33,3.26,3.78,3.25,3.77,-3.79,-3.87,-3.07,-0.53,-0.54,-0.52
384.13,3.19,3.72,3.17,3.69,-3.73,-3.81,-3.00,-0.54,-0.57,-0.52
387.97,3.06,3.59,3.15,3.67,-3.67,-3.74,-2.94,-0.61,-0.53,-0.52
391.85,3.11,3.63,3.13,3.65,-3.62,-3.68,-2.88,-0.51,-0.49,-0.51
395.77,3.20,3.73,3.07,3.60,-3.56,-3.62,-2.82,-0.36,-0.49,-0.53
399.73,2.98,3.51,3.00,3.53,-3.51,-3.55,-2.76,-0.52,-0.50,-0.53
403.72,2.80,3.33,2.90,3.44,-3.45,-3.49,-2.70,-0.64,-0.54,-0.53
407.76,2.83,3.38,2.81,3.35,-3.38,-3.42,-2.65,-0.55,-0.58,-0.55
411.84,2.81,3.37,2.76,3.31,-3.32,-3.35,-2.60,-0.51,-0.56,-0.55
415.96,2.68,3.24,2.71,3.27,-3.26,-3.28,-2.55,-0.57,-0.55,-0.55
420.12,2.61,3.18,2.62,3.18,-3.19,-3.21,-2.50,-0.57,-0.56,-0.56
424.32,2.55,3.11,2.55,3.10,-3.11,-3.14,-2.45,-0.56,-0.56,-0.55
428.56,2.49,3.04,2.50,3.05,-3.04,-3.07,-2.40,-0.54,-0.54,-0.55
432.85,2.46,2.99,2.46,2.99,-2.96,-3.00,-2.36,-0.50,-0.50,-0.53
437.18,2.41,2.93,2.42,2.93,-2.89,-2.93,-2.31,-0.48,-0.47,-0.52
441.55,2.37,2.85,2.34,2.82,-2.82,-2.86,-2.27,-0.45,-0.48,-0.48
445.96,2.29,2.73,2.25,2.70,-2.76,-2.79,-2.23,-0.46,-0.50,-0.44
450.42,2.14,2.53,2.25,2.64,-2.70,-2.72,-2.19,-0.55,-0.45,-0.39
454.93,2.25,2.60,2.28,2.62,-2.64,-2.64,-2.14,-0.39,-0.36,-0.34
459.48,2.44,2.73,2.30,2.58,-2.59,-2.57,-2.10,-0.14,-0.29,-0.28
464.07,2.31,2.55,2.34,2.57,-2.53,-2.50,-2.06,-0.22,-0.19,-0.23
468.71,2.21,2.40,2.35,2.53,-2.47,-2.43,-2.02,-0.26,-0.13,-0.18
473.40,2.38,2.51,2.28,2.41,-2.41,-2.36,-1.98,-0.03,-0.13,-0.12
478.13,2.34,2.41,2.28,2.35,-2.34,-2.29,-1.94,0.00,-0.06,-0.07
482.91,2.13,2.15,2.28,2.30,-2.26,-2.22,-1.90,-0.13,0.02,-0.02
487.74,2.25,2.23,2.19,2.17,-2.18,-2.16,-1.85,0.08,0.02,0.02
492.62,2.21,2.15,2.13,2.07,-2.09,-2.09,-1.81,0.12,0.04,0.06
497.55,2.00,1.90,2.10,2.00,-2.01,-2.02,-1.77,-0.01,0.09,0.10
