frequency,raw,smoothed,error,error_smoothed,equalization,parametric_eq,fixed_band_eq,equalized_raw,equalized_smoothed,target
20.00,1.85,1.85,-3.14,-3.14,3.14,2.25,0.97,4.99,4.99,4.99
20.20,1.88,1.88,-3.11,-3.11,3.11,2.25,1.00,4.99,4.99,4.99
20.40,1.91,1.91,-3.08,-3.07,3.07,2.24,1.03,4.98,4.99,4.99
20.61,1.95,1.95,-3.04,-3.04,3.04,2.24,1.07,4.99,4.99,4.99
20.81,1.98,1.98,-3.01,-3.01,3.01,2.24,1.10,4.99,4.99,4.99
21.02,2.01,2.01,-2.98,-2.97,2.98,2.23,1.13,4.99,4.99,4.99
21.23,2.04,2.04,-2.94,-2.94,2.94,2.23,1.16,4.98,4.98,4.99
21.44,2.07,2.07,-2.91,-2.91,2.91,2.23,1.20,4.98,4.98,4.98
21.66,2.10,2.10,-2.88,-2.88,2.88,2.22,1.24,4.98,4.99,4.98
21.87,2.13,2.13,-2.85,-2.85,2.85,2.22,1.27,4.99,4.98,4.98
22.09,2.16,2.16,-2.82,-2.82,2.82,2.22,1.31,4.99,4.98,4.98
22.31,2.18,2.18,-2.80,-2.80,2.80,2.21,1.35,4.98,4.98,4.98
22.54,2.21,2.21,-2.77,-2.77,2.77,2.21,1.39,4.98,4.98,4.98
22.76,2.24,2.24,-2.74,-2.74,2.74,2.21,1.43,4.98,4.98,4.98
22.99,2.27,2.27,-2.71,-2.71,2.71,2.20,1.47,4.98,4.98,4.98
23.22,2.30,2.30,-2.68,-2.68,2.68,2.20,1.52,4.98,4.98,4.98
23.45,2.33,2.33,-2.65,-2.65,2.65,2.19,1.56,4.98,4.98,4.98
23.69,2.36,2.36,-2.61,-2.61,2.61,2.19,1.61,4.97,4.97,4.97
23.92,2.39,2.39,-2.58,-2.58,2.58,2.18,1.65,4.97,4.97,4.97
24.16,2.42,2.42,-2.55,-2.55,2.55,2.18,1.70,4.97,4.97,4.97
24.40,2.45,2.45,-2.52,-2.52,2.52,2.18,1.74,4.97,4.97,4.97
24.65,2.48,2.48,-2.49,-2.49,2.49,2.17,1.79,4.97,4.97,4.97
24.89,2.51,2.51,-2.46,-2.46,2.46,2.17,1.84,4.97,4.97,4.97
25.14,2.54,2.54,-2.43,-2.43,2.43,2.16,1.89,4.97,4.97,4.97
25.39,2.56,2.56,-2.40,-2.40,2.40,2.16,1.94,4.96,4.96,4.97
25.65,2.59,2.59,-2.37,-2.37,2.37,2.15,1.99,4.96,4.96,4.96
25.91,2.62,2.62,-2.34,-2.34,2.34,2.14,2.04,4.96,4.96,4.96
26.16,2.65,2.65,-2.31,-2.31,2.32,2.14,2.08,4.97,4.97,4.96
26.43,2.67,2.67,-2.29,-2.29,2.29,2.13,2.13,4.96,4.96,4.96
26.69,2.69,2.69,-2.27,-2.27,2.27,2.13,2.18,4.96,4.96,4.96
26.96,2.71,2.71,-2.25,-2.25,2.24,2.12,2.23,4.95,4.95,4.96
27.23,2.73,2.73,-2.22,-2.22,2.22,2.11,2.27,4.95,4.95,4.95
27.50,2.76,2.76,-2.19,-2.20,2.20,2.11,2.31,4.96,4.95,4.95
27.77,2.78,2.78,-2.17,-2.17,2.17,2.10,2.36,4.95,4.95,4.95
28.05,2.80,2.80,-2.15,-2.15,2.15,2.09,2.40,4.95,4.95,4.95
28.33,2.82,2.82,-2.13,-2.13,2.13,2.09,2.44,4.95,4.95,4.95
28.62,2.84,2.84,-2.10,-2.10,2.10,2.08,2.47,4.94,4.94,4.94
28.90,2.86,2.86,-2.08,-2.08,2.08,2.07,2.50,4.94,4.94,4.94
29.19,2.88,2.88,-2.06,-2.06,2.06,2.06,2.54,4.94,4.94,4.94
29.48,2.90,2.90,-2.04,-2.04,2.04,2.06,2.56,4.94,4.94,4.94
29.78,2.92,2.92,-2.01,-2.02,2.02,2.05,2.59,4.94,4.93,4.94
30.08,2.93,2.93,-2.00,-2.00,2.00,2.04,2.61,4.93,4.93,4.93
30.38,2.95,2.95,-1.98,-1.98,1.98,2.03,2.62,4.93,4.93,4.93
30.68,2.97,2.97,-1.96,-1.96,1.96,2.02,2.64,4.93,4.93,4.93
30.99,2.98,2.98,-1.94,-1.94,1.94,2.01,2.65,4.92,4.93,4.92
31.30,3.00,3.00,-1.92,-1.92,1.93,2.00,2.65,4.93,4.92,4.92
31.61,3.01,3.01,-1.91,-1.91,1.91,1.99,2.65,4.92,4.92,4.92
31.93,3.02,3.02,-1.89,-1.89,1.89,1.98,2.65,4.91,4.91,4.91
32.24,3.03,3.03,-1.88,-1.88,1.88,1.97,2.64,4.91,4.91,4.91
32.57,3.04,3.04,-1.87,-1.86,1.86,1.96,2.63,4.90,4.91,4.91
32.89,3.06,3.06,-1.84,-1.85,1.85,1.95,2.62,4.91,4.90,4.90
33.22,3.07,3.07,-1.83,-1.83,1.83,1.94,2.60,4.90,4.90,4.90
33.55,3.08,3.08,-1.82,-1.81,1.82,1.93,2.58,4.90,4.90,4.90
33.89,3.09,3.09,-1.80,-1.80,1.80,1.91,2.56,4.89,4.89,4.89
34.23,3.10,3.10,-1.79,-1.79,1.79,1.90,2.54,4.89,4.89,4.89
34.57,3.11,3.11,-1.77,-1.77,1.77,1.89,2.51,4.88,4.88,4.88
34.92,3.12,3.12,-1.76,-1.76,1.76,1.88,2.48,4.88,4.88,4.88
35.27,3.13,3.13,-1.74,-1.74,1.75,1.86,2.44,4.88,4.88,4.87
35.62,3.14,3.14,-1.73,-1.73,1.73,1.85,2.41,4.87,4.87,4.87
35.97,3.14,3.15,-1.72,-1.72,1.72,1.84,2.37,4.86,4.86,4.86
36.33,3.15,3.15,-1.71,-1.71,1.71,1.82,2.34,4.86,4.86,4.86
36.70,3.16,3.16,-1.69,-1.70,1.70,1.81,2.30,4.86,4.85,4.85
37.06,3.16,3.16,-1.69,-1.68,1.68,1.80,2.26,4.85,4.85,4.85
37.43,3.17,3.17,-1.67,-1.67,1.67,1.78,2.22,4.84,4.84,4.84
37.81,3.17,3.17,-1.67,-1.66,1.66,1.77,2.18,4.83,4.84,4.84
38.19,3.18,3.18,-1.65,-1.65,1.65,1.76,2.15,4.83,4.83,4.83
38.57,3.18,3.18,-1.64,-1.64,1.64,1.74,2.11,4.82,4.82,4.82
38.95,3.18,3.18,-1.64,-1.63,1.63,1.73,2.07,4.81,4.82,4.82
39.34,3.18,3.18,-1.63,-1.63,1.62,1.72,2.03,4.80,4.81,4.81
39.74,3.19,3.19,-1.61,-1.61,1.61,1.71,1.99,4.81,4.80,4.80
40.14,3.19,3.19,-1.60,-1.60,1.61,1.69,1.96,4.80,4.80,4.79
40.54,3.19,3.19,-1.60,-1.59,1.60,1.68,1.92,4.79,4.79,4.79
40.94,3.19,3.19,-1.59,-1.59,1.59,1.67,1.89,4.78,4.78,4.78
41.35,3.19,3.19,-1.58,-1.58,1.58,1.66,1.85,4.77,4.77,4.77
41.76,3.19,3.19,-1.57,-1.57,1.57,1.65,1.82,4.76,4.76,4.76
42.18,3.19,3.19,-1.56,-1.56,1.56,1.64,1.79,4.75,4.75,4.75
42.60,3.19,3.19,-1.55,-1.55,1.55,1.63,1.76,4.74,4.74,4.74
43.03,3.19,3.19,-1.54,-1.54,1.54,1.62,1.73,4.73,4.73,4.73
43.46,3.19,3.19,-1.53,-1.54,1.54,1.61,1.70,4.73,4.72,4.72
43.90,3.18,3.19,-1.53,-1.53,1.53,1.60,1.68,4.71,4.71,4.71
44.33,3.18,3.18,-1.52,-1.52,1.52,1.59,1.65,4.70,4.70,4.70
44.78,3.18,3.18,-1.51,-1.51,1.51,1.58,1.63,4.69,4.69,4.69
45.23,3.17,3.17,-1.51,-1.51,1.50,1.58,1.61,4.68,4.68,4.68
45.68,3.17,3.17,-1.50,-1.50,1.50,1.57,1.59,4.67,4.67,4.67
46.13,3.16,3.16,-1.49,-1.49,1.49,1.56,1.57,4.65,4.66,4.65
46.60,3.16,3.16,-1.48,-1.48,1.49,1.55,1.55,4.65,4.64,4.64
47.06,3.15,3.15,-1.48,-1.48,1.48,1.54,1.53,4.63,4.63,4.63
47.53,3.14,3.14,-1.47,-1.47,1.47,1.54,1.52,4.61,4.61,4.61
48.01,3.13,3.13,-1.47,-1.47,1.47,1.53,1.50,4.60,4.60,4.60
48.49,3.12,3.12,-1.46,-1.46,1.46,1.52,1.49,4.58,4.58,4.59
48.97,3.11,3.11,-1.46,-1.46,1.45,1.51,1.48,4.56,4.57,4.57
49.46,3.11,3.11,-1.44,-1.45,1.45,1.51,1.46,4.56,4.55,4.55
49.96,3.10,3.10,-1.44,-1.44,1.44,1.50,1.45,4.54,4.54,4.54
50.46,3.09,3.09,-1.43,-1.43,1.43,1.49,1.44,4.52,4.53,4.52
50.96,3.08,3.08,-1.42,-1.43,1.43,1.48,1.43,4.51,4.50,4.50
51.47,3.06,3.06,-1.42,-1.42,1.42,1.47,1.43,4.48,4.48,4.49
51.99,3.05,3.05,-1.42,-1.42,1.41,1.46,1.42,4.46,4.46,4.47
52.51,3.04,3.04,-1.41,-1.41,1.40,1.45,1.41,4.45,4.44,4.45
53.03,3.03,3.03,-1.40,-1.40,1.40,1.44,1.40,4.43,4.43,4.43
53.56,3.02,3.02,-1.39,-1.39,1.39,1.43,1.40,4.41,4.41,4.41
54.10,3.01,3.01,-1.37,-1.38,1.38,1.41,1.39,4.39,4.39,4.39
54.64,2.99,3.00,-1.37,-1.37,1.37,1.40,1.38,4.36,4.36,4.36
55.18,2.98,2.98,-1.36,-1.36,1.36,1.39,1.38,4.34,4.34,4.34
55.74,2.97,2.97,-1.35,-1.35,1.35,1.37,1.37,4.32,4.32,4.32
56.29,2.95,2.95,-1.34,-1.34,1.34,1.36,1.36,4.29,4.30,4.29
56.86,2.94,2.94,-1.33,-1.33,1.33,1.34,1.35,4.27,4.27,4.27
57.42,2.92,2.92,-1.32,-1.32,1.32,1.33,1.34,4.24,4.24,4.24
58.00,2.90,2.90,-1.32,-1.31,1.31,1.31,1.33,4.21,4.22,4.22
58.58,2.89,2.89,-1.30,-1.30,1.30,1.30,1.32,4.19,4.19,4.19
59.16,2.87,2.87,-1.29,-1.29,1.29,1.28,1.31,4.16,4.16,4.16
59.76,2.85,2.85,-1.28,-1.28,1.28,1.26,1.30,4.13,4.13,4.13
60.35,2.84,2.84,-1.26,-1.27,1.27,1.24,1.28,4.11,4.10,4.10
60.96,2.82,2.82,-1.25,-1.25,1.25,1.22,1.27,4.07,4.07,4.07
61.57,2.80,2.80,-1.24,-1.24,1.24,1.21,1.25,4.04,4.04,4.04
62.18,2.78,2.78,-1.23,-1.23,1.23,1.19,1.23,4.01,4.01,4.01
62.80,2.76,2.76,-1.21,-1.21,1.21,1.17,1.21,3.97,3.97,3.97
63.43,2.74,2.74,-1.20,-1.20,1.20,1.14,1.19,3.94,3.94,3.94
64.07,2.72,2.72,-1.18,-1.18,1.18,1.12,1.17,3.90,3.90,3.91
64.71,2.70,2.70,-1.17,-1.17,1.17,1.10,1.15,3.87,3.87,3.87
65.35,2.68,2.68,-1.15,-1.15,1.15,1.08,1.12,3.83,3.83,3.83
66.01,2.66,2.66,-1.13,-1.13,1.13,1.05,1.09,3.80,3.80,3.79
66.67,2.64,2.64,-1.11,-1.12,1.12,1.03,1.07,3.76,3.76,3.76
67.33,2.62,2.62,-1.09,-1.10,1.10,1.01,1.04,3.72,3.72,3.72
68.01,2.59,2.59,-1.08,-1.08,1.08,0.98,1.01,3.67,3.67,3.67
68.69,2.57,2.57,-1.06,-1.06,1.06,0.95,0.97,3.63,3.63,3.63
69.37,2.55,2.55,-1.04,-1.04,1.04,0.93,0.94,3.59,3.59,3.59
70.07,2.52,2.52,-1.02,-1.02,1.02,0.90,0.91,3.54,3.55,3.54
70.77,2.50,2.50,-1.00,-1.00,1.00,0.87,0.87,3.50,3.50,3.50
71.48,2.48,2.48,-0.97,-0.98,0.98,0.85,0.84,3.46,3.45,3.45
72.19,2.45,2.45,-0.96,-0.95,0.95,0.82,0.80,3.40,3.41,3.41
72.91,2.43,2.43,-0.93,-0.93,0.93,0.79,0.76,3.36,3.36,3.36
73.64,2.40,2.40,-0.91,-0.91,0.91,0.76,0.73,3.31,3.31,3.31
74.38,2.38,2.38,-0.88,-0.88,0.88,0.73,0.69,3.26,3.26,3.26
75.12,2.35,2.35,-0.86,-0.85,0.85,0.70,0.65,3.20,3.21,3.21
75.87,2.33,2.33,-0.82,-0.83,0.83,0.67,0.61,3.16,3.16,3.16
76.63,2.30,2.30,-0.80,-0.80,0.80,0.64,0.57,3.10,3.10,3.10
77.40,2.28,2.28,-0.77,-0.77,0.77,0.60,0.53,3.05,3.05,3.05
78.17,2.25,2.25,-0.74,-0.74,0.74,0.57,0.49,2.99,2.99,2.99
78.95,2.22,2.22,-0.72,-0.71,0.71,0.54,0.45,2.93,2.94,2.94
79.74,2.20,2.20,-0.68,-0.68,0.68,0.51,0.41,2.88,2.88,2.88
80.54,2.17,2.17,-0.65,-0.65,0.65,0.47,0.37,2.82,2.82,2.82
81.35,2.14,2.14,-0.62,-0.62,0.62,0.44,0.33,2.76,2.76,2.76
82.16,2.11,2.11,-0.59,-0.59,0.59,0.40,0.29,2.70,2.70,2.70
82.98,2.08,2.08,-0.56,-0.56,0.56,0.37,0.25,2.64,2.64,2.64
83.81,2.05,2.05,-0.53,-0.53,0.52,0.33,0.21,2.58,2.57,2.58
84.65,2.02,2.02,-0.49,-0.49,0.49,0.30,0.17,2.51,2.51,2.52
85.50,1.99,1.99,-0.46,-0.46,0.46,0.26,0.13,2.45,2.45,2.45
86.35,1.97,1.97,-0.42,-0.42,0.42,0.23,0.09,2.39,2.39,2.39
87.22,1.94,1.94,-0.38,-0.38,0.39,0.19,0.05,2.33,2.33,2.32
88.09,1.91,1.91,-0.35,-0.35,0.35,0.15,0.00,2.26,2.26,2.26
88.97,1.87,1.87,-0.32,-0.32,0.31,0.11,-0.04,2.19,2.19,2.19
89.86,1.84,1.84,-0.28,-0.28,0.28,0.08,-0.08,2.12,2.12,2.12
90.76,1.81,1.81,-0.24,-0.24,0.24,0.04,-0.12,2.05,2.05,2.05
91.66,1.78,1.78,-0.20,-0.20,0.20,0.00,-0.16,1.98,1.98,1.99
92.58,1.75,1.75,-0.17,-0.17,0.17,-0.04,-0.20,1.92,1.92,1.92
93.51,1.72,1.72,-0.13,-0.13,0.13,-0.07,-0.24,1.85,1.85,1.85
94.44,1.69,1.69,-0.09,-0.09,0.09,-0.11,-0.28,1.78,1.78,1.78
95.39,1.66,1.66,-0.04,-0.04,0.04,-0.15,-0.32,1.70,1.70,1.71
96.34,1.63,1.63,-0.00,-0.00,0.00,-0.19,-0.36,1.63,1.63,1.63
97.30,1.60,1.60,0.04,0.04,-0.04,-0.22,-0.40,1.56,1.56,1.56
98.28,1.57,1.57,0.08,0.08,-0.08,-0.26,-0.44,1.49,1.49,1.49
99.26,1.54,1.54,0.12,0.12,-0.12,-0.30,-0.48,1.42,1.42,1.42
100.25,1.51,1.51,0.16,0.16,-0.16,-0.34,-0.52,1.35,1.35,1.35
101.25,1.47,1.47,0.20,0.20,-0.20,-0.38,-0.56,1.27,1.27,1.27
102.27,1.44,1.44,0.24,0.24,-0.24,-0.41,-0.60,1.20,1.20,1.20
103.29,1.40,1.40,0.27,0.28,-0.28,-0.45,-0.64,1.12,1.12,1.13
104.32,1.37,1.37,0.32,0.32,-0.32,-0.49,-0.68,1.05,1.05,1.05
105.37,1.34,1.34,0.36,0.36,-0.36,-0.52,-0.72,0.98,0.98,0.98
106.42,1.31,1.31,0.40,0.40,-0.40,-0.56,-0.76,0.91,0.91,0.91
107.48,1.27,1.27,0.44,0.44,-0.44,-0.60,-0.79,0.83,0.84,0.84
108.56,1.24,1.24,0.48,0.48,-0.48,-0.63,-0.83,0.76,0.76,0.76
109.64,1.21,1.21,0.52,0.52,-0.52,-0.67,-0.87,0.69,0.69,0.69
110.74,1.17,1.17,0.55,0.56,-0.56,-0.70,-0.90,0.62,0.62,0.62
111.85,1.14,1.14,0.60,0.59,-0.59,-0.74,-0.93,0.55,0.54,0.55
112.97,1.10,1.10,0.63,0.63,-0.63,-0.77,-0.96,0.47,0.47,0.47
114.10,1.07,1.07,0.67,0.67,-0.67,-0.80,-1.00,0.40,0.40,0.40
115.24,1.04,1.04,0.71,0.71,-0.71,-0.84,-1.02,0.33,0.33,0.33
116.39,1.01,1.01,0.75,0.75,-0.75,-0.87,-1.05,0.26,0.26,0.26
117.55,0.97,0.98,0.78,0.79,-0.79,-0.90,-1.08,0.18,0.19,0.19
118.73,0.94,0.94,0.82,0.83,-0.82,-0.93,-1.10,0.12,0.12,0.12
119.92,0.92,0.91,0.87,0.86,-0.86,-0.96,-1.12,0.06,0.05,0.05
121.12,0.88,0.88,0.90,0.90,-0.89,-0.99,-1.14,-0.01,-0.01,-0.02
122.33,0.84,0.84,0.93,0.93,-0.93,-1.02,-1.16,-0.09,-0.09,-0.09
123.55,0.80,0.80,0.96,0.96,-0.96,-1.05,-1.18,-0.16,-0.16,-0.16
124.79,0.76,0.76,0.98,0.99,-0.99,-1.07,-1.19,-0.23,-0.23,-0.22
126.03,0.73,0.73,1.02,1.02,-1.02,-1.10,-1.20,-0.29,-0.29,-0.29
127.29,0.70,0.70,1.05,1.05,-1.05,-1.12,-1.21,-0.35,-0.35,-0.35
128.57,0.66,0.66,1.08,1.08,-1.08,-1.15,-1.22,-0.42,-0.42,-0.42
129.85,0.63,0.63,1.11,1.11,-1.11,-1.17,-1.23,-0.48,-0.48,-0.48
131.15,0.59,0.59,1.14,1.14,-1.14,-1.20,-1.23,-0.55,-0.54,-0.55
132.46,0.56,0.56,1.17,1.17,-1.17,-1.22,-1.23,-0.60,-0.61,-0.61
133.79,0.52,0.52,1.19,1.19,-1.19,-1.24,-1.23,-0.67,-0.67,-0.67
135.12,0.49,0.49,1.22,1.22,-1.22,-1.26,-1.23,-0.73,-0.73,-0.73
136.48,0.45,0.45,1.24,1.24,-1.24,-1.28,-1.23,-0.79,-0.79,-0.79
137.84,0.42,0.42,1.27,1.27,-1.27,-1.30,-1.23,-0.85,-0.85,-0.85
139.22,0.39,0.39,1.30,1.29,-1.29,-1.32,-1.22,-0.90,-0.91,-0.90
140.61,0.35,0.36,1.31,1.32,-1.31,-1.33,-1.22,-0.96,-0.96,-0.96
142.02,0.32,0.32,1.34,1.34,-1.34,-1.35,-1.21,-1.02,-1.02,-1.02
143.44,0.29,0.29,1.36,1.36,-1.36,-1.37,-1.20,-1.07,-1.07,-1.07
144.87,0.25,0.25,1.38,1.38,-1.38,-1.38,-1.19,-1.13,-1.12,-1.12
146.32,0.22,0.22,1.40,1.40,-1.40,-1.39,-1.19,-1.18,-1.18,-1.18
147.78,0.18,0.18,1.41,1.41,-1.41,-1.41,-1.18,-1.23,-1.23,-1.23
149.26,0.15,0.15,1.43,1.43,-1.43,-1.42,-1.17,-1.28,-1.28,-1.28
150.75,0.12,0.12,1.45,1.45,-1.44,-1.43,-1.16,-1.32,-1.33,-1.33
152.26,0.08,0.08,1.46,1.46,-1.46,-1.44,-1.15,-1.38,-1.38,-1.38
153.78,0.04,0.05,1.47,1.47,-1.47,-1.45,-1.14,-1.43,-1.43,-1.43
155.32,0.01,0.01,1.48,1.48,-1.48,-1.46,-1.13,-1.47,-1.47,-1.47
156.88,-0.02,-0.02,1.50,1.49,-1.50,-1.47,-1.12,-1.51,-1.52,-1.52
158.44,-0.06,-0.06,1.50,1.51,-1.51,-1.48,-1.12,-1.57,-1.56,-1.56
160.03,-0.09,-0.09,1.52,1.52,-1.52,-1.48,-1.11,-1.61,-1.61,-1.60
161.63,-0.13,-0.13,1.53,1.53,-1.53,-1.49,-1.10,-1.66,-1.65,-1.66
163.24,-0.16,-0.16,1.54,1.54,-1.54,-1.49,-1.10,-1.70,-1.70,-1.70
164.88,-0.19,-0.19,1.55,1.55,-1.55,-1.50,-1.09,-1.73,-1.74,-1.74
166.53,-0.23,-0.23,1.55,1.55,-1.55,-1.50,-1.09,-1.78,-1.78,-1.78
168.19,-0.26,-0.26,1.56,1.56,-1.56,-1.51,-1.08,-1.82,-1.82,-1.82
169.87,-0.29,-0.29,1.56,1.56,-1.56,-1.51,-1.08,-1.85,-1.85,-1.85
171.57,-0.32,-0.32,1.57,1.57,-1.57,-1.51,-1.08,-1.89,-1.89,-1.89
173.29,-0.36,-0.36,1.57,1.57,-1.57,-1.51,-1.07,-1.93,-1.92,-1.93
175.02,-0.39,-0.39,1.57,1.57,-1.57,-1.51,-1.07,-1.96,-1.96,-1.96
176.77,-0.43,-0.43,1.56,1.57,-1.57,-1.51,-1.07,-2.00,-1.99,-1.99
178.54,-0.46,-0.46,1.57,1.57,-1.57,-1.51,-1.07,-2.03,-2.03,-2.03
180.32,-0.49,-0.49,1.57,1.56,-1.57,-1.51,-1.08,-2.06,-2.06,-2.06
182.13,-0.53,-0.53,1.56,1.56,-1.56,-1.51,-1.08,-2.09,-2.09,-2.09
183.95,-0.56,-0.56,1.56,1.56,-1.56,-1.51,-1.08,-2.12,-2.12,-2.12
185.79,-0.59,-0.59,1.56,1.56,-1.56,-1.51,-1.09,-2.15,-2.15,-2.15
187.65,-0.62,-0.62,1.56,1.55,-1.55,-1.51,-1.09,-2.17,-2.18,-2.18
189.52,-0.66,-0.66,1.54,1.55,-1.55,-1.50,-1.10,-2.21,-2.21,-2.20
191.42,-0.69,-0.69,1.54,1.54,-1.54,-1.50,-1.10,-2.23,-2.23,-2.23
193.33,-0.72,-0.72,1.54,1.54,-1.54,-1.50,-1.11,-2.26,-2.26,-2.26
195.27,-0.75,-0.75,1.53,1.53,-1.53,-1.49,-1.12,-2.28,-2.28,-2.28
197.22,-0.78,-0.78,1.53,1.53,-1.52,-1.49,-1.13,-2.30,-2.30,-2.31
199.19,-0.81,-0.81,1.52,1.52,-1.52,-1.48,-1.14,-2.33,-2.33,-2.33
201.18,-0.85,-0.85,1.50,1.51,-1.51,-1.47,-1.15,-2.36,-2.35,-2.35
203.19,-0.88,-0.88,1.50,1.50,-1.50,-1.47,-1.16,-2.38,-2.38,-2.37
205.23,-0.91,-0.91,1.49,1.49,-1.49,-1.46,-1.17,-2.40,-2.40,-2.40
207.28,-0.94,-0.94,1.48,1.48,-1.48,-1.45,-1.18,-2.41,-2.41,-2.42
209.35,-0.97,-0.97,1.47,1.46,-1.46,-1.44,-1.19,-2.43,-2.44,-2.44
211.44,-1.01,-1.01,1.45,1.45,-1.45,-1.43,-1.20,-2.46,-2.46,-2.46
213.56,-1.04,-1.04,1.44,1.44,-1.44,-1.42,-1.21,-2.48,-2.48,-2.48
215.69,-1.07,-1.07,1.42,1.42,-1.43,-1.41,-1.22,-2.50,-2.50,-2.49
217.85,-1.10,-1.10,1.41,1.41,-1.41,-1.40,-1.23,-2.51,-2.51,-2.51
220.03,-1.13,-1.13,1.40,1.40,-1.40,-1.39,-1.25,-2.53,-2.53,-2.53
222.23,-1.16,-1.16,1.39,1.39,-1.39,-1.37,-1.26,-2.55,-2.55,-2.55
224.45,-1.18,-1.18,1.38,1.38,-1.38,-1.36,-1.27,-2.56,-2.56,-2.56
226.70,-1.21,-1.21,1.37,1.37,-1.36,-1.34,-1.27,-2.57,-2.57,-2.58
228.96,-1.24,-1.24,1.35,1.35,-1.35,-1.33,-1.28,-2.59,-2.59,-2.59
231.25,-1.27,-1.27,1.34,1.34,-1.34,-1.31,-1.29,-2.61,-2.61,-2.61
233.57,-1.30,-1.30,1.32,1.32,-1.32,-1.30,-1.30,-2.62,-2.62,-2.62
235.90,-1.33,-1.33,1.31,1.31,-1.31,-1.28,-1.30,-2.64,-2.64,-2.64
238.26,-1.37,-1.37,1.29,1.29,-1.29,-1.27,-1.31,-2.66,-2.66,-2.66
240.64,-1.40,-1.40,1.27,1.27,-1.27,-1.25,-1.31,-2.67,-2.67,-2.67
243.05,-1.43,-1.43,1.25,1.25,-1.25,-1.23,-1.31,-2.68,-2.68,-2.68
245.48,-1.46,-1.46,1.23,1.24,-1.24,-1.22,-1.31,-2.70,-2.69,-2.69
247.93,-1.48,-1.48,1.22,1.22,-1.22,-1.20,-1.31,-2.70,-2.70,-2.70
250.41,-1.51,-1.51,1.21,1.20,-1.20,-1.18,-1.31,-2.71,-2.71,-2.72
252.92,-1.54,-1.54,1.19,1.19,-1.19,-1.16,-1.30,-2.73,-2.73,-2.73
255.45,-1.57,-1.57,1.17,1.17,-1.17,-1.15,-1.30,-2.74,-2.74,-2.74
258.00,-1.59,-1.59,1.16,1.15,-1.15,-1.13,-1.29,-2.74,-2.75,-2.75
260.58,-1.62,-1.62,1.14,1.14,-1.14,-1.11,-1.28,-2.76,-2.75,-2.76
263.19,-1.64,-1.64,1.13,1.12,-1.12,-1.09,-1.27,-2.76,-2.76,-2.76
265.82,-1.67,-1.67,1.10,1.10,-1.10,-1.07,-1.26,-2.77,-2.77,-2.77
268.48,-1.70,-1.70,1.08,1.08,-1.08,-1.05,-1.25,-2.78,-2.78,-2.78
271.16,-1.73,-1.73,1.06,1.06,-1.07,-1.04,-1.24,-2.79,-2.79,-2.79
273.87,-1.75,-1.75,1.05,1.04,-1.05,-1.02,-1.22,-2.79,-2.80,-2.80
276.61,-1.78,-1.78,1.03,1.03,-1.02,-1.00,-1.21,-2.80,-2.80,-2.81
279.38,-1.81,-1.81,1.00,1.01,-1.00,-0.98,-1.19,-2.81,-2.81,-2.81
282.17,-1.83,-1.83,0.99,0.98,-0.98,-0.96,-1.18,-2.81,-2.82,-2.82
284.99,-1.86,-1.86,0.96,0.96,-0.96,-0.94,-1.16,-2.82,-2.82,-2.82
287.84,-1.88,-1.88,0.93,0.94,-0.94,-0.92,-1.14,-2.82,-2.82,-2.81
290.72,-1.90,-1.90,0.92,0.92,-0.92,-0.90,-1.12,-2.82,-2.82,-2.82
293.63,-1.92,-1.92,0.91,0.90,-0.90,-0.89,-1.11,-2.82,-2.82,-2.83
296.57,-1.94,-1.94,0.88,0.88,-0.88,-0.87,-1.09,-2.82,-2.82,-2.82
299.53,-1.97,-1.97,0.85,0.86,-0.85,-0.85,-1.07,-2.82,-2.82,-2.82
302.53,-1.99,-1.99,0.83,0.83,-0.83,-0.83,-1.05,-2.82,-2.82,-2.82
305.55,-2.01,-2.01,0.81,0.81,-0.81,-0.81,-1.03,-2.82,-2.82,-2.82
308.61,-2.04,-2.04,0.78,0.79,-0.79,-0.79,-1.01,-2.83,-2.82,-2.82
311.69,-2.06,-2.06,0.76,0.76,-0.76,-0.77,-0.99,-2.82,-2.82,-2.82
314.81,-2.08,-2.08,0.74,0.74,-0.74,-0.75,-0.98,-2.82,-2.82,-2.82
317.96,-2.10,-2.10,0.72,0.72,-0.72,-0.73,-0.96,-2.82,-2.82,-2.82
321.14,-2.11,-2.11,0.71,0.71,-0.71,-0.71,-0.94,-2.81,-2.82,-2.82
324.35,-2.13,-2.13,0.69,0.69,-0.69,-0.69,-0.92,-2.82,-2.82,-2.82
327.59,-2.15,-2.15,0.66,0.67,-0.67,-0.66,-0.91,-2.82,-2.81,-2.81
330.87,-2.16,-2.16,0.66,0.65,-0.65,-0.64,-0.89,-2.81,-2.81,-2.81
334.18,-2.18,-2.18,0.63,0.64,-0.63,-0.62,-0.88,-2.81,-2.81,-2.81
337.52,-2.19,-2.19,0.62,0.62,-0.61,-0.60,-0.86,-2.80,-2.81,-2.81
340.90,-2.21,-2.21,0.60,0.59,-0.59,-0.58,-0.85,-2.80,-2.80,-2.81
344.30,-2.23,-2.23,0.57,0.58,-0.58,-0.56,-0.83,-2.81,-2.80,-2.80
347.75,-2.24,-2.24,0.55,0.55,-0.56,-0.54,-0.82,-2.80,-2.80,-2.79
351.23,-2.25,-2.25,0.55,0.54,-0.54,-0.52,-0.81,-2.79,-2.79,-2.80
354.74,-2.26,-2.26,0.52,0.53,-0.52,-0.51,-0.80,-2.78,-2.78,-2.78
358.28,-2.27,-2.27,0.51,0.51,-0.51,-0.49,-0.78,-2.78,-2.78,-2.78
361.87,-2.28,-2.28,0.50,0.49,-0.49,-0.47,-0.77,-2.77,-2.77,-2.77
365.49,-2.29,-2.29,0.48,0.48,-0.48,-0.46,-0.76,-2.77,-2.77,-2.77
369.14,-2.30,-2.30,0.47,0.47,-0.47,-0.45,-0.75,-2.77,-2.77,-2.77
372.83,-2.30,-2.30,0.45,0.46,-0.46,-0.44,-0.74,-2.76,-2.76,-2.75
376.56,-2.31,-2.31,0.45,0.45,-0.45,-0.43,-0.74,-2.76,-2.75,-2.76
380.33,-2.31,-2.31,0.44,0.44,-0.44,-0.42,-0.73,-2.75,-2.75,-2.75
384.13,-2.32,-2.32,0.43,0.43,-0.43,-0.42,-0.72,-2.75,-2.74,-2.75
387.97,-2.32,-2.32,0.42,0.42,-0.42,-0.41,-0.71,-2.74,-2.74,-2.74
391.85,-2.32,-2.32,0.40,0.41,-0.41,-0.41,-0.71,-2.73,-2.73,-2.72
395.77,-2.32,-2.32,0.41,0.40,-0.41,-0.42,-0.70,-2.73,-2.73,-2.73
399.73,-2.32,-2.32,0.40,0.40,-0.40,-0.42,-0.70,-2.72,-2.72,-2.72
403.72,-2.31,-2.31,0.40,0.40,-0.40,-0.42,-0.69,-2.71,-2.71,-2.71
407.76,-2.31,-2.31,0.40,0.40,-0.40,-0.43,-0.69,-2.71,-2.71,-2.71
411.84,-2.31,-2.31,0.39,0.40,-0.40,-0.44,-0.69,-2.71,-2.70,-2.70
415.96,-2.30,-2.30,0.40,0.40,-0.40,-0.45,-0.68,-2.70,-2.70,-2.70
420.12,-2.29,-2.29,0.41,0.40,-0.40,-0.46,-0.68,-2.69,-2.70,-2.70
424.32,-2.28,-2.28,0.41,0.41,-0.41,-0.47,-0.68,-2.69,-2.69,-2.69
428.56,-2.27,-2.27,0.41,0.41,-0.42,-0.48,-0.68,-2.68,-2.68,-2.68
432.85,-2.25,-2.25,0.42,0.42,-0.42,-0.49,-0.67,-2.67,-2.67,-2.67
437.18,-2.24,-2.24,0.43,0.43,-0.43,-0.50,-0.67,-2.67,-2.67,-2.67
441.55,-2.22,-2.22,0.44,0.44,-0.44,-0.51,-0.67,-2.65,-2.66,-2.66
445.96,-2.21,-2.21,0.45,0.45,-0.44,-0.53,-0.67,-2.65,-2.65,-2.66
450.42,-2.19,-2.19,0.45,0.45,-0.45,-0.54,-0.67,-2.64,-2.64,-2.64
454.93,-2.17,-2.17,0.46,0.46,-0.46,-0.55,-0.67,-2.63,-2.64,-2.63
459.48,-2.15,-2.15,0.47,0.47,-0.48,-0.56,-0.67,-2.63,-2.63,-2.62
464.07,-2.13,-2.13,0.49,0.49,-0.49,-0.57,-0.67,-2.62,-2.62,-2.62
468.71,-2.10,-2.10,0.51,0.51,-0.51,-0.58,-0.67,-2.61,-2.61,-2.61
473.40,-2.08,-2.08,0.52,0.53,-0.52,-0.59,-0.67,-2.60,-2.60,-2.60
478.13,-2.05,-2.05,0.54,0.55,-0.54,-0.60,-0.68,-2.59,-2.59,-2.59
482.91,-2.02,-2.02,0.57,0.56,-0.56,-0.61,-0.68,-2.58,-2.58,-2.58
487.74,-1.99,-1.99,0.59,0.58,-0.58,-0.62,-0.68,-2.57,-2.57,-2.58
492.62,-1.97,-1.96,0.60,0.60,-0.60,-0.63,-0.68,-2.57,-2.57,-2.57
497.55,-1.93,-1.93,0.63,0.62,-0.62,-0.64,-0.68,-2.55,-2.56,-2.56
502.52,-1.90,-1.90,0.65,0.64,-0.65,-0.65,-0.68,-2.54,-2.55,-2.55
