frequency,raw
20,3.35
21,3.42
22,3.53
23,3.63
24,3.75
25,3.84
26,3.92
27,4.01
28,4.08
29,4.12
30,4.19
31,4.23
32,4.22
33,4.19
34,4.18
35,4.14
36,4.06
37,4.00
38,3.94
39,3.90
40,3.81
41,3.74
42,3.67
43,3.56
44,3.49
45,3.44
46,3.37
47,3.25
48,3.18
49,3.10
50,3.01
51,2.93
52,2.82
53,2.74
54,2.70
55,2.57
56,2.50
57,2.43
58,2.36
59,2.32
60,2.21
61,2.18
62,2.14
63,2.04
64,1.99
65,1.94
66,1.88
67,1.77
68,1.68
69,1.61
70,1.54
71,1.45
72,1.36
73,1.27
74,1.22
75,1.16
76,1.12
77,1.07
78,1.04
79,1.00
80,0.93
81,0.89
82,0.85
83,0.77
84,0.71
85,0.63
86,0.60
87,0.56
88,0.53
89,0.49
90,0.46
91,0.42
92,0.38
93,0.33
94,0.26
95,0.22
96,0.18
97,0.14
98,0.11
99,0.07
100,0.03
101,-0.01
102,-0.04
104,-0.12
105,-0.16
106,-0.19
107,-0.28
108,-0.37
109,-0.41
110,-0.44
111,-0.47
112,-0.50
113,-0.53
114,-0.57
115,-0.60
117,-0.64
118,-0.67
119,-0.71
120,-0.75
121,-0.79
123,-0.83
124,-0.86
125,-0.90
126,-0.94
128,-1.00
129,-1.04
130,-1.08
131,-1.13
133,-1.20
134,-1.24
135,-1.28
137,-1.32
138,-1.37
140,-1.40
141,-1.44
142,-1.48
144,-1.52
145,-1.56
147,-1.60
148,-1.63
150,-1.67
151,-1.71
153,-1.75
154,-1.78
156,-1.82
157,-1.86
159,-1.90
160,-1.94
162,-1.98
164,-2.02
165,-2.02
167,-1.98
169,-2.01
170,-2.02
172,-2.01
174,-2.01
175,-2.02
177,-2.06
179,-2.09
181,-2.13
183,-2.16
184,-2.19
186,-2.22
188,-2.24
190,-2.18
192,-2.18
194,-2.21
196,-2.17
198,-2.20
200,-2.23
202,-2.26
204,-2.29
206,-2.29
208,-2.28
210,-2.29
212,-2.30
214,-2.34
216,-2.40
218,-2.46
221,-2.47
223,-2.51
225,-2.53
227,-2.57
229,-2.62
232,-2.64
234,-2.66
236,-2.71
239,-2.75
241,-2.76
244,-2.81
246,-2.85
248,-2.86
251,-2.93
253,-2.95
256,-2.98
259,-2.99
261,-2.99
264,-2.95
266,-2.95
269,-2.84
272,-2.72
274,-2.67
277,-2.55
280,-2.29
283,-2.10
286,-2.00
288,-1.96
291,-1.90
294,-1.85
297,-1.80
300,-1.76
303,-1.77
306,-1.72
309,-1.71
312,-1.71
316,-1.71
319,-1.72
322,-1.74
325,-1.71
328,-1.71
332,-1.74
335,-1.76
338,-1.78
342,-1.78
345,-1.78
349,-1.81
352,-1.85
356,-1.94
359,-2.07
363,-2.20
366,-2.33
370,-2.48
374,-2.58
377,-2.67
381,-2.81
385,-2.92
389,-3.05
393,-3.12
397,-3.23
401,-3.34
405,-3.40
409,-3.50
413,-3.51
417,-3.66
421,-3.66
425,-3.66
430,-3.81
434,-3.81
438,-3.81
443,-3.82
447,-3.79
451,-3.75
456,-3.68
460,-3.60
465,-3.52
470,-3.42
474,-3.35
479,-3.27
484,-3.20
489,-3.08
494,-3.07
499,-2.94
504,-2.89
509,-2.83
514,-2.75
519,-2.68
524,-2.61
529,-2.57
535,-2.48
540,-2.39
545,-2.37
551,-2.33
556,-2.31
562,-2.25
568,-2.21
573,-2.22
579,-2.26
585,-2.32
591,-2.43
596,-2.46
602,-2.53
608,-2.55
615,-2.57
621,-2.52
627,-2.43
633,-2.38
639,-2.30
646,-2.13
652,-2.12
659,-2.13
665,-2.06
672,-1.91
679,-1.78
686,-1.59
692,-1.38
699,-1.12
706,-0.94
713,-0.74
721,-0.52
728,-0.41
735,-0.24
742,-0.05
750,0.13
757,0.22
765,0.33
773,0.42
780,0.45
788,0.49
796,0.53
804,0.56
812,0.59
820,0.60
828,0.57
837,0.57
845,0.60
853,0.60
862,0.58
871,0.57
879,0.54
888,0.55
897,0.48
906,0.46
915,0.45
924,0.36
933,0.35
943,0.29
952,0.25
962,0.21
971,0.16
981,0.10
991,0.05
1001,-0.01
1011,-0.03
1021,-0.12
1031,-0.13
1041,-0.22
1052,-0.25
1062,-0.33
1073,-0.32
1084,-0.40
1094,-0.40
1105,-0.44
1116,-0.49
1128,-0.55
1139,-0.59
1150,-0.65
1162,-0.72
1173,-0.77
1185,-0.83
1197,-0.82
1209,-0.91
1221,-0.91
1233,-1.00
1246,-1.02
1258,-1.06
1271,-1.09
1283,-1.11
1296,-1.16
1309,-1.18
1322,-1.23
1335,-1.26
1349,-1.31
1362,-1.31
1376,-1.35
1390,-1.36
1404,-1.42
1418,-1.45
1432,-1.45
1446,-1.53
1461,-1.54
1475,-1.61
1490,-1.62
1505,-1.66
1520,-1.70
1535,-1.74
1550,-1.77
1566,-1.81
1582,-1.84
1597,-1.87
1613,-1.90
1629,-1.91
1646,-1.90
1662,-1.95
1679,-1.96
1696,-1.91
1713,-1.92
1730,-1.97
1747,-1.92
1764,-1.91
1782,-1.87
1800,-1.85
1818,-1.84
1836,-1.85
1854,-1.85
1873,-1.81
1892,-1.79
1911,-1.73
1930,-1.65
1949,-1.61
1969,-1.57
1988,-1.48
2008,-1.46
2028,-1.42
2048,-1.42
2069,-1.35
2090,-1.31
2111,-1.27
2132,-1.25
2153,-1.21
2175,-1.19
2196,-1.19
2218,-1.14
2240,-1.13
2263,-1.14
2285,-1.10
2308,-1.01
2331,-1.02
2355,-0.95
2378,-0.83
2402,-0.71
2426,-0.57
2450,-0.36
2475,-0.13
2500,0.06
2525,0.33
2550,0.57
2575,0.75
2601,0.95
2627,1.10
2653,1.22
2680,1.40
2707,1.55
2734,1.70
2761,1.91
2789,2.06
2817,2.24
2845,2.43
2873,2.60
2902,2.75
2931,2.91
2960,3.07
2990,3.24
3020,3.37
3050,3.48
3080,3.53
3111,3.57
3142,3.60
3174,3.55
3206,3.52
3238,3.43
3270,3.39
3303,3.30
3336,3.17
3369,3.02
3403,2.84
3437,2.70
3471,2.52
3506,2.28
3541,2.02
3576,1.76
3612,1.48
3648,1.16
3685,0.85
3721,0.55
3759,0.22
3796,-0.09
3834,-0.37
3873,-0.64
3911,-0.88
3950,-1.17
3990,-1.43
4030,-1.71
4070,-1.99
4111,-2.24
4152,-2.48
4193,-2.71
4235,-2.88
4278,-3.06
4321,-3.34
4364,-3.57
4407,-3.71
4451,-3.94
4496,-4.24
4541,-4.51
4586,-4.79
4632,-5.06
4679,-5.43
4725,-5.86
4773,-6.31
4820,-6.74
4868,-7.19
4917,-7.64
4966,-8.00
5016,-8.43
5066,-8.98
5117,-9.45
5168,-9.94
5220,-10.44
5272,-10.93
5325,-11.37
5378,-11.82
5432,-12.22
5486,-12.58
5541,-12.92
5596,-13.13
5652,-13.19
5709,-13.14
5766,-13.00
5823,-12.70
5882,-12.29
5940,-11.80
6000,-11.33
6060,-10.76
6120,-10.19
6182,-9.64
6244,-9.16
6306,-8.72
6369,-8.29
6433,-7.91
6497,-7.57
6562,-7.23
6628,-6.85
6694,-6.51
6761,-6.20
6828,-5.86
6897,-5.47
6966,-5.12
7035,-4.72
7106,-4.35
7177,-3.98
7249,-3.61
7321,-3.31
7394,-3.12
7468,-3.00
7543,-2.94
7618,-2.99
7694,-3.04
7771,-3.07
7849,-3.05
7928,-3.01
8007,-2.94
8087,-2.77
8168,-2.58
8250,-2.34
8332,-2.16
8415,-2.01
8499,-1.94
8584,-2.01
8670,-2.20
8757,-2.50
8845,-2.93
8933,-3.32
9022,-3.71
9113,-4.18
9204,-4.76
9296,-5.52
9389,-6.35
9483,-7.00
9577,-7.58
9673,-8.06
9770,-8.43
9868,-8.74
9966,-8.94
10066,-9.13
10167,-9.25
10268,-9.29
10371,-9.26
10475,-9.24
10579,-9.23
10685,-9.09
10792,-9.04
10900,-9.09
11009,-9.13
11119,-9.23
11230,-9.27
11343,-9.32
11456,-9.62
11571,-10.17
11686,-10.49
11803,-10.47
11921,-10.16
12040,-9.74
12161,-9.11
12282,-8.61
12405,-8.25
12529,-8.08
12655,-8.08
12781,-8.29
12909,-8.52
13038,-8.91
13168,-9.33
13300,-9.78
13433,-10.20
13567,-10.60
13703,-10.96
13840,-11.21
13978,-11.35
14118,-11.23
14259,-10.94
14402,-10.64
14546,-10.36
14692,-10.16
14838,-10.19
14987,-10.38
15137,-10.76
15288,-11.51
15441,-12.60
15595,-13.93
15751,-15.58
15909,-17.44
16068,-19.50
16229,-21.73
16391,-24.01
16555,-26.09
16720,-27.76
16888,-29.00
17056,-29.37
17227,-29.07
17399,-28.28
17573,-27.32
17749,-26.39
17926,-25.62
18106,-25.24
18287,-25.29
18470,-25.47
18654,-25.82
18841,-26.35
19029,-26.80
19220,-27.09
19412,-27.07
19606,-26.80
19802,-26.45
20000,-26.08
