frequency,raw,error,smoothed,error_smoothed,equalization,parametric_eq,equalized_raw,equalized_smoothed,target
20.00,-7.58,-4.17,-7.89,-4.42,4.42,0.94,-3.17,-3.48,-3.41
20.20,-7.65,-4.24,-7.80,-4.33,4.33,0.97,-3.32,-3.47,-3.41
20.40,-7.71,-4.30,-7.71,-4.24,4.24,1.00,-3.47,-3.47,-3.41
20.61,-7.78,-4.37,-7.63,-4.16,4.16,1.03,-3.62,-3.47,-3.41
20.81,-7.84,-4.43,-7.54,-4.07,4.07,1.06,-3.77,-3.47,-3.41
21.02,-7.88,-4.47,-7.46,-3.99,3.99,1.09,-3.89,-3.47,-3.41
21.23,-7.63,-4.22,-7.38,-3.91,3.91,1.13,-3.72,-3.47,-3.41
21.44,-7.38,-3.97,-7.30,-3.84,3.84,1.16,-3.54,-3.47,-3.41
21.66,-7.13,-3.72,-7.23,-3.76,3.76,1.20,-3.37,-3.47,-3.41
21.87,-6.88,-3.46,-7.15,-3.69,3.69,1.23,-3.19,-3.47,-3.41
22.09,-6.76,-3.35,-7.08,-3.62,3.62,1.27,-3.15,-3.47,-3.42
22.31,-6.80,-3.39,-7.01,-3.55,3.55,1.31,-3.26,-3.47,-3.42
22.54,-6.84,-3.42,-6.92,-3.47,3.47,1.35,-3.37,-3.45,-3.42
22.76,-6.89,-3.47,-6.84,-3.41,3.41,1.39,-3.48,-3.43,-3.42
22.99,-6.93,-3.51,-6.77,-3.35,3.35,1.43,-3.59,-3.42,-3.42
23.22,-6.83,-3.41,-6.71,-3.29,3.29,1.47,-3.54,-3.42,-3.42
23.45,-6.73,-3.31,-6.67,-3.23,3.23,1.52,-3.50,-3.44,-3.42
23.69,-6.63,-3.21,-6.63,-3.17,3.17,1.56,-3.46,-3.46,-3.42
23.92,-6.53,-3.11,-6.58,-3.10,3.10,1.60,-3.43,-3.48,-3.42
24.16,-6.48,-3.05,-6.52,-3.03,3.03,1.65,-3.45,-3.49,-3.43
24.40,-6.46,-3.03,-6.45,-2.96,2.96,1.69,-3.50,-3.49,-3.43
24.65,-6.43,-3.00,-6.35,-2.87,2.87,1.74,-3.56,-3.48,-3.43
24.89,-6.41,-2.98,-6.24,-2.78,2.78,1.78,-3.62,-3.46,-3.43
25.14,-6.29,-2.86,-6.13,-2.69,2.69,1.83,-3.60,-3.45,-3.43
25.39,-6.10,-2.66,-6.03,-2.59,2.59,1.88,-3.50,-3.44,-3.43
25.65,-5.91,-2.48,-5.95,-2.50,2.50,1.92,-3.41,-3.45,-3.43
25.91,-5.72,-2.29,-5.87,-2.41,2.41,1.97,-3.31,-3.46,-3.44
26.16,-5.62,-2.18,-5.80,-2.33,2.33,2.01,-3.29,-3.47,-3.44
26.43,-5.59,-2.15,-5.73,-2.25,2.25,2.05,-3.34,-3.48,-3.44
26.69,-5.55,-2.11,-5.65,-2.18,2.18,2.09,-3.37,-3.47,-3.44
26.96,-5.51,-2.07,-5.58,-2.11,2.11,2.13,-3.40,-3.46,-3.44
27.23,-5.52,-2.08,-5.51,-2.06,2.06,2.17,-3.46,-3.46,-3.45
27.50,-5.54,-2.09,-5.47,-2.01,2.01,2.21,-3.53,-3.45,-3.45
27.77,-5.55,-2.10,-5.43,-1.97,1.97,2.24,-3.58,-3.46,-3.45
28.05,-5.55,-2.10,-5.40,-1.94,1.94,2.27,-3.61,-3.47,-3.45
28.33,-5.44,-1.99,-5.38,-1.90,1.90,2.30,-3.54,-3.47,-3.45
28.62,-5.33,-1.88,-5.35,-1.87,1.87,2.33,-3.46,-3.48,-3.46
28.90,-5.22,-1.76,-5.32,-1.84,1.84,2.35,-3.38,-3.48,-3.46
29.19,-5.19,-1.73,-5.29,-1.80,1.80,2.36,-3.39,-3.49,-3.46
29.48,-5.21,-1.75,-5.26,-1.77,1.77,2.38,-3.45,-3.49,-3.46
29.78,-5.23,-1.77,-5.22,-1.72,1.72,2.38,-3.51,-3.50,-3.46
30.08,-5.23,-1.76,-5.17,-1.67,1.67,2.39,-3.56,-3.50,-3.47
30.38,-5.13,-1.66,-5.11,-1.61,1.61,2.38,-3.52,-3.50,-3.47
30.68,-5.03,-1.56,-5.04,-1.55,1.55,2.38,-3.48,-3.50,-3.47
30.99,-4.93,-1.46,-4.97,-1.48,1.48,2.37,-3.45,-3.49,-3.47
31.30,-4.92,-1.44,-4.90,-1.40,1.40,2.35,-3.52,-3.49,-3.48
31.61,-4.91,-1.43,-4.82,-1.32,1.32,2.33,-3.59,-3.50,-3.48
31.93,-4.90,-1.42,-4.75,-1.24,1.24,2.30,-3.66,-3.51,-3.48
32.24,-4.78,-1.29,-4.68,-1.17,1.17,2.27,-3.61,-3.52,-3.49
32.57,-4.61,-1.12,-4.60,-1.09,1.09,2.23,-3.52,-3.52,-3.49
32.89,-4.45,-0.96,-4.53,-1.01,1.01,2.19,-3.44,-3.51,-3.49
33.22,-4.35,-0.85,-4.45,-0.94,0.94,2.14,-3.41,-3.51,-3.50
33.55,-4.27,-0.77,-4.38,-0.88,0.88,2.09,-3.39,-3.50,-3.50
33.89,-4.19,-0.69,-4.31,-0.81,0.81,2.03,-3.38,-3.50,-3.50
34.23,-4.18,-0.68,-4.26,-0.76,0.76,1.97,-3.42,-3.50,-3.51
34.57,-4.22,-0.71,-4.22,-0.71,0.71,1.91,-3.51,-3.50,-3.51
34.92,-4.25,-0.74,-4.18,-0.67,0.67,1.84,-3.58,-3.52,-3.51
35.27,-4.21,-0.69,-4.15,-0.62,0.62,1.77,-3.59,-3.52,-3.52
35.62,-4.14,-0.62,-4.11,-0.59,0.59,1.70,-3.56,-3.53,-3.52
35.97,-4.07,-0.55,-4.09,-0.55,0.55,1.62,-3.52,-3.54,-3.52
36.33,-4.03,-0.50,-4.06,-0.51,0.51,1.55,-3.52,-3.55,-3.53
36.70,-3.99,-0.46,-4.04,-0.46,0.46,1.47,-3.53,-3.57,-3.53
37.06,-3.97,-0.43,-4.00,-0.41,0.41,1.38,-3.56,-3.58,-3.54
37.43,-4.02,-0.48,-3.94,-0.35,0.35,1.30,-3.67,-3.59,-3.54
37.81,-4.07,-0.52,-3.88,-0.29,0.29,1.22,-3.78,-3.59,-3.55
38.19,-3.99,-0.44,-3.80,-0.23,0.23,1.13,-3.77,-3.58,-3.55
38.57,-3.76,-0.20,-3.73,-0.16,0.16,1.04,-3.60,-3.57,-3.56
38.95,-3.54,0.02,-3.67,-0.10,0.10,0.95,-3.44,-3.57,-3.56
39.34,-3.53,0.04,-3.62,-0.04,0.04,0.87,-3.49,-3.58,-3.57
39.74,-3.55,0.02,-3.58,0.02,-0.02,0.78,-3.57,-3.60,-3.57
40.14,-3.52,0.06,-3.53,0.08,-0.08,0.69,-3.60,-3.61,-3.58
40.54,-3.39,0.19,-3.49,0.13,-0.13,0.60,-3.52,-3.62,-3.58
40.94,-3.26,0.33,-3.44,0.17,-0.17,0.51,-3.43,-3.62,-3.59
41.35,-3.28,0.32,-3.40,0.22,-0.22,0.42,-3.50,-3.61,-3.60
41.76,-3.33,0.27,-3.37,0.26,-0.26,0.32,-3.59,-3.62,-3.60
42.18,-3.39,0.22,-3.34,0.30,-0.30,0.23,-3.69,-3.64,-3.61
42.60,-3.46,0.15,-3.32,0.34,-0.34,0.14,-3.80,-3.66,-3.62
43.03,-3.51,0.11,-3.30,0.37,-0.37,0.05,-3.89,-3.68,-3.62
43.46,-3.38,0.25,-3.26,0.42,-0.42,-0.04,-3.80,-3.68,-3.63
43.90,-3.25,0.38,-3.21,0.46,-0.46,-0.13,-3.71,-3.67,-3.64
44.33,-3.17,0.47,-3.17,0.49,-0.49,-0.23,-3.66,-3.67,-3.64
44.78,-3.10,0.55,-3.14,0.54,-0.54,-0.32,-3.64,-3.68,-3.65
45.23,-3.07,0.59,-3.11,0.58,-0.58,-0.41,-3.65,-3.69,-3.66
45.68,-3.09,0.58,-3.07,0.63,-0.63,-0.50,-3.72,-3.70,-3.67
46.13,-3.06,0.62,-3.03,0.67,-0.67,-0.59,-3.73,-3.70,-3.68
46.60,-2.88,0.80,-3.00,0.72,-0.72,-0.69,-3.60,-3.72,-3.68
47.06,-2.73,0.96,-2.96,0.76,-0.76,-0.78,-3.49,-3.72,-3.69
47.53,-2.79,0.91,-2.92,0.79,-0.79,-0.87,-3.58,-3.71,-3.70
48.01,-2.85,0.86,-2.89,0.83,-0.83,-0.96,-3.68,-3.72,-3.71
48.49,-2.96,0.76,-2.87,0.87,-0.87,-1.06,-3.83,-3.74,-3.72
48.97,-3.07,0.66,-2.86,0.90,-0.90,-1.15,-3.97,-3.77,-3.73
49.46,-2.93,0.81,-2.84,0.94,-0.94,-1.24,-3.87,-3.78,-3.74
49.96,-2.76,0.99,-2.80,0.98,-0.98,-1.33,-3.74,-3.78,-3.75
50.46,-2.84,0.92,-2.76,1.02,-1.02,-1.42,-3.86,-3.78,-3.76
50.96,-2.94,0.83,-2.72,1.07,-1.07,-1.51,-4.01,-3.79,-3.77
51.47,-2.68,1.10,-2.69,1.12,-1.12,-1.60,-3.80,-3.81,-3.78
51.99,-2.38,1.41,-2.66,1.17,-1.17,-1.69,-3.55,-3.83,-3.80
52.51,-2.54,1.27,-2.62,1.22,-1.22,-1.77,-3.76,-3.85,-3.81
53.03,-2.70,1.12,-2.57,1.28,-1.28,-1.86,-3.98,-3.85,-3.82
53.56,-2.56,1.27,-2.51,1.33,-1.33,-1.94,-3.90,-3.85,-3.83
54.10,-2.42,1.42,-2.46,1.39,-1.39,-2.03,-3.81,-3.85,-3.84
54.64,-2.26,1.60,-2.40,1.45,-1.45,-2.10,-3.71,-3.85,-3.86
55.18,-2.22,1.65,-2.36,1.50,-1.50,-2.18,-3.72,-3.86,-3.87
55.74,-2.44,1.45,-2.33,1.55,-1.55,-2.26,-3.99,-3.88,-3.89
56.29,-2.46,1.44,-2.30,1.60,-1.60,-2.33,-4.06,-3.90,-3.90
56.86,-2.29,1.62,-2.28,1.65,-1.65,-2.40,-3.94,-3.93,-3.91
57.42,-2.23,1.70,-2.25,1.70,-1.70,-2.46,-3.93,-3.95,-3.93
58.00,-2.21,1.73,-2.21,1.75,-1.75,-2.52,-3.96,-3.96,-3.94
58.58,-2.15,1.81,-2.16,1.79,-1.79,-2.58,-3.94,-3.95,-3.96
59.16,-2.09,1.89,-2.13,1.84,-1.84,-2.63,-3.93,-3.97,-3.98
59.76,-2.06,1.93,-2.11,1.89,-1.89,-2.68,-3.95,-4.00,-3.99
60.35,-2.07,1.94,-2.08,1.95,-1.95,-2.72,-4.02,-4.03,-4.01
60.96,-2.10,1.93,-2.05,2.00,-2.00,-2.76,-4.10,-4.05,-4.03
61.57,-2.13,1.91,-2.00,2.05,-2.05,-2.79,-4.18,-4.05,-4.04
62.18,-2.06,2.00,-1.96,2.10,-2.10,-2.82,-4.16,-4.06,-4.06
62.80,-1.76,2.32,-1.93,2.15,-2.15,-2.84,-3.91,-4.08,-4.08
63.43,-1.75,2.35,-1.90,2.20,-2.20,-2.86,-3.95,-4.10,-4.10
64.07,-1.86,2.26,-1.88,2.25,-2.25,-2.87,-4.11,-4.12,-4.12
64.71,-1.98,2.16,-1.85,2.29,-2.29,-2.88,-4.27,-4.14,-4.14
65.35,-1.93,2.23,-1.83,2.33,-2.33,-2.88,-4.26,-4.16,-4.16
66.01,-1.75,2.43,-1.81,2.37,-2.37,-2.88,-4.12,-4.18,-4.18
66.67,-1.75,2.45,-1.79,2.41,-2.41,-2.88,-4.16,-4.21,-4.20
67.33,-1.75,2.47,-1.78,2.45,-2.45,-2.87,-4.20,-4.23,-4.22
68.01,-1.75,2.49,-1.77,2.49,-2.49,-2.85,-4.24,-4.26,-4.24
68.69,-1.75,2.52,-1.75,2.52,-2.52,-2.83,-4.27,-4.28,-4.27
69.37,-1.75,2.54,-1.74,2.55,-2.55,-2.81,-4.30,-4.30,-4.29
70.07,-1.75,2.56,-1.74,2.58,-2.58,-2.79,-4.33,-4.33,-4.31
70.77,-1.75,2.58,-1.73,2.61,-2.61,-2.77,-4.36,-4.34,-4.34
71.48,-1.75,2.61,-1.72,2.64,-2.64,-2.74,-4.39,-4.36,-4.36
72.19,-1.75,2.63,-1.72,2.67,-2.67,-2.71,-4.42,-4.39,-4.38
72.91,-1.75,2.66,-1.73,2.70,-2.70,-2.68,-4.45,-4.42,-4.41
73.64,-1.75,2.68,-1.73,2.72,-2.72,-2.64,-4.47,-4.46,-4.43
74.38,-1.69,2.77,-1.73,2.75,-2.75,-2.61,-4.44,-4.48,-4.46
75.12,-1.59,2.90,-1.73,2.78,-2.78,-2.58,-4.37,-4.51,-4.49
75.87,-1.59,2.92,-1.72,2.81,-2.81,-2.54,-4.40,-4.53,-4.51
76.63,-1.75,2.79,-1.72,2.83,-2.83,-2.51,-4.59,-4.55,-4.54
77.40,-1.85,2.72,-1.71,2.86,-2.86,-2.47,-4.72,-4.57,-4.57
78.17,-1.83,2.76,-1.70,2.89,-2.89,-2.44,-4.72,-4.60,-4.59
78.95,-1.75,2.87,-1.70,2.92,-2.92,-2.41,-4.67,-4.63,-4.62
79.74,-1.70,2.95,-1.70,2.96,-2.96,-2.37,-4.66,-4.66,-4.65
80.54,-1.66,3.02,-1.70,2.99,-2.99,-2.34,-4.65,-4.69,-4.68
81.35,-1.65,3.06,-1.70,3.03,-3.03,-2.31,-4.68,-4.73,-4.71
82.16,-1.65,3.09,-1.70,3.06,-3.06,-2.28,-4.71,-4.76,-4.74
82.98,-1.65,3.12,-1.69,3.10,-3.10,-2.25,-4.75,-4.80,-4.77
83.81,-1.65,3.15,-1.68,3.15,-3.15,-2.23,-4.80,-4.83,-4.80
84.65,-1.65,3.18,-1.67,3.19,-3.19,-2.20,-4.84,-4.86,-4.83
85.50,-1.66,3.20,-1.64,3.24,-3.24,-2.17,-4.90,-4.88,-4.86
86.35,-1.71,3.18,-1.61,3.29,-3.29,-2.15,-5.00,-4.91,-4.89
87.22,-1.75,3.17,-1.60,3.34,-3.34,-2.13,-5.10,-4.94,-4.92
88.09,-1.59,3.36,-1.58,3.40,-3.40,-2.11,-4.99,-4.98,-4.95
88.97,-1.54,3.44,-1.56,3.45,-3.45,-2.09,-4.99,-5.01,-4.99
89.86,-1.54,3.48,-1.54,3.50,-3.50,-2.07,-5.04,-5.04,-5.02
90.76,-1.54,3.51,-1.53,3.54,-3.54,-2.06,-5.08,-5.07,-5.05
91.66,-1.54,3.54,-1.52,3.58,-3.58,-2.04,-5.12,-5.10,-5.08
92.58,-1.54,3.57,-1.52,3.61,-3.61,-2.03,-5.15,-5.13,-5.11
93.51,-1.49,3.66,-1.53,3.62,-3.62,-2.02,-5.11,-5.15,-5.15
94.44,-1.45,3.73,-1.56,3.62,-3.62,-2.01,-5.07,-5.18,-5.18
95.39,-1.51,3.70,-1.61,3.60,-3.60,-2.01,-5.11,-5.21,-5.21
96.34,-1.62,3.63,-1.68,3.57,-3.57,-2.00,-5.19,-5.25,-5.25
97.30,-1.72,3.56,-1.76,3.52,-3.52,-1.99,-5.24,-5.28,-5.28
98.28,-1.81,3.50,-1.85,3.46,-3.46,-1.99,-5.27,-5.31,-5.31
99.26,-1.93,3.41,-1.96,3.38,-3.38,-1.99,-5.31,-5.34,-5.35
100.25,-2.12,3.26,-2.09,3.29,-3.29,-1.99,-5.41,-5.38,-5.38
101.25,-2.25,3.16,-2.22,3.19,-3.19,-1.99,-5.44,-5.41,-5.41
102.27,-2.41,3.03,-2.37,3.07,-3.07,-1.99,-5.48,-5.44,-5.44
103.29,-2.55,2.93,-2.53,2.96,-2.96,-2.00,-5.51,-5.48,-5.48
104.32,-2.71,2.80,-2.69,2.84,-2.84,-2.00,-5.55,-5.53,-5.51
105.37,-2.87,2.67,-2.86,2.72,-2.72,-2.01,-5.59,-5.58,-5.54
106.42,-2.92,2.66,-3.00,2.61,-2.61,-2.02,-5.53,-5.61,-5.58
107.48,-3.01,2.60,-3.14,2.50,-2.50,-2.02,-5.51,-5.64,-5.61
108.56,-3.24,2.40,-3.26,2.40,-2.40,-2.03,-5.64,-5.67,-5.64
109.64,-3.51,2.17,-3.38,2.32,-2.32,-2.04,-5.83,-5.70,-5.68
110.74,-3.61,2.10,-3.49,2.25,-2.25,-2.06,-5.86,-5.74,-5.71
111.85,-3.57,2.17,-3.58,2.19,-2.19,-2.07,-5.76,-5.77,-5.74
112.97,-3.70,2.07,-3.65,2.15,-2.15,-2.08,-5.85,-5.80,-5.77
114.10,-3.89,1.91,-3.70,2.12,-2.12,-2.09,-6.01,-5.82,-5.80
115.24,-3.74,2.09,-3.74,2.11,-2.11,-2.11,-5.85,-5.85,-5.83
116.39,-3.73,2.12,-3.76,2.11,-2.11,-2.12,-5.84,-5.87,-5.85
117.55,-3.73,2.15,-3.79,2.13,-2.13,-2.14,-5.86,-5.91,-5.88
118.73,-3.73,2.17,-3.79,2.15,-2.15,-2.15,-5.88,-5.95,-5.90
119.92,-3.73,2.20,-3.78,2.19,-2.19,-2.17,-5.92,-5.97,-5.93
121.12,-3.86,2.09,-3.74,2.24,-2.24,-2.19,-6.10,-5.98,-5.95
122.33,-3.71,2.26,-3.69,2.29,-2.29,-2.21,-6.00,-5.98,-5.97
123.55,-3.61,2.38,-3.64,2.35,-2.35,-2.22,-5.96,-5.99,-5.99
124.79,-3.59,2.42,-3.61,2.40,-2.40,-2.24,-5.99,-6.01,-6.01
126.03,-3.58,2.45,-3.58,2.45,-2.45,-2.26,-6.03,-6.03,-6.03
127.29,-3.61,2.43,-3.55,2.49,-2.49,-2.28,-6.10,-6.04,-6.04
128.57,-3.68,2.38,-3.55,2.52,-2.52,-2.30,-6.21,-6.07,-6.06
129.85,-3.58,2.50,-3.55,2.55,-2.55,-2.32,-6.13,-6.10,-6.08
131.15,-3.34,2.76,-3.56,2.57,-2.57,-2.34,-5.91,-6.13,-6.10
132.46,-3.41,2.71,-3.58,2.57,-2.57,-2.36,-5.98,-6.15,-6.12
133.79,-3.42,2.72,-3.61,2.56,-2.56,-2.38,-5.98,-6.17,-6.14
135.12,-3.54,2.62,-3.64,2.54,-2.54,-2.41,-6.08,-6.18,-6.16
136.48,-3.72,2.46,-3.69,2.51,-2.51,-2.43,-6.23,-6.20,-6.18
137.84,-3.91,2.29,-3.76,2.48,-2.48,-2.45,-6.39,-6.24,-6.20
139.22,-3.88,2.34,-3.82,2.44,-2.44,-2.48,-6.32,-6.26,-6.22
140.61,-3.91,2.33,-3.88,2.39,-2.39,-2.51,-6.30,-6.27,-6.24
142.02,-4.09,2.17,-3.95,2.34,-2.34,-2.53,-6.43,-6.29,-6.26
143.44,-4.15,2.13,-4.02,2.28,-2.28,-2.56,-6.43,-6.30,-6.28
144.87,-4.14,2.16,-4.12,2.21,-2.21,-2.59,-6.35,-6.33,-6.31
146.32,-4.06,2.26,-4.22,2.15,-2.15,-2.62,-6.21,-6.37,-6.32
147.78,-4.17,2.17,-4.29,2.08,-2.08,-2.66,-6.25,-6.37,-6.34
149.26,-4.35,2.01,-4.38,2.00,-2.00,-2.69,-6.36,-6.38,-6.36
150.75,-4.52,1.86,-4.46,1.93,-1.93,-2.73,-6.45,-6.39,-6.38
152.26,-4.54,1.86,-4.53,1.85,-1.85,-2.77,-6.39,-6.38,-6.40
153.78,-4.47,1.95,-4.62,1.77,-1.77,-2.81,-6.24,-6.39,-6.42
155.32,-4.66,1.77,-4.73,1.69,-1.69,-2.85,-6.35,-6.42,-6.43
156.88,-4.81,1.64,-4.84,1.62,-1.62,-2.90,-6.43,-6.45,-6.45
158.44,-4.90,1.57,-4.94,1.55,-1.55,-2.94,-6.45,-6.49,-6.47
160.03,-5.14,1.34,-5.04,1.48,-1.48,-2.99,-6.62,-6.52,-6.48
161.63,-5.11,1.39,-5.12,1.43,-1.43,-3.04,-6.55,-6.55,-6.50
163.24,-5.08,1.44,-5.18,1.40,-1.40,-3.10,-6.48,-6.58,-6.52
164.88,-5.25,1.29,-5.21,1.39,-1.39,-3.15,-6.64,-6.60,-6.54
166.53,-5.25,1.31,-5.21,1.40,-1.40,-3.21,-6.65,-6.61,-6.56
168.19,-5.23,1.35,-5.19,1.44,-1.44,-3.27,-6.67,-6.63,-6.58
169.87,-5.42,1.17,-5.15,1.50,-1.50,-3.33,-6.92,-6.65,-6.59
171.57,-5.30,1.31,-5.09,1.59,-1.59,-3.40,-6.89,-6.68,-6.61
173.29,-5.08,1.55,-4.98,1.70,-1.70,-3.47,-6.78,-6.68,-6.63
175.02,-4.82,1.82,-4.86,1.83,-1.83,-3.54,-6.65,-6.69,-6.64
176.77,-4.62,2.04,-4.71,1.98,-1.98,-3.61,-6.60,-6.69,-6.66
178.54,-4.49,2.18,-4.54,2.14,-2.14,-3.69,-6.63,-6.69,-6.67
180.32,-4.32,2.36,-4.38,2.32,-2.32,-3.77,-6.64,-6.70,-6.68
182.13,-4.10,2.58,-4.19,2.51,-2.51,-3.85,-6.61,-6.70,-6.68
183.95,-3.91,2.77,-3.99,2.70,-2.70,-3.93,-6.61,-6.69,-6.68
185.79,-3.81,2.87,-3.79,2.89,-2.89,-4.02,-6.70,-6.68,-6.68
187.65,-3.59,3.09,-3.58,3.08,-3.08,-4.11,-6.68,-6.67,-6.68
189.52,-3.37,3.30,-3.38,3.28,-3.28,-4.20,-6.65,-6.66,-6.67
191.42,-3.19,3.48,-3.19,3.47,-3.47,-4.30,-6.66,-6.66,-6.67
193.33,-3.07,3.59,-3.02,3.65,-3.65,-4.39,-6.72,-6.67,-6.66
195.27,-2.81,3.85,-2.84,3.83,-3.83,-4.49,-6.64,-6.67,-6.66
197.22,-2.65,4.01,-2.66,4.00,-4.00,-4.59,-6.65,-6.67,-6.66
199.19,-2.53,4.12,-2.49,4.17,-4.17,-4.70,-6.70,-6.66,-6.65
201.18,-2.33,4.32,-2.33,4.33,-4.33,-4.80,-6.66,-6.66,-6.65
203.19,-2.10,4.55,-2.17,4.49,-4.49,-4.91,-6.59,-6.66,-6.65
205.23,-1.99,4.67,-2.03,4.64,-4.64,-5.01,-6.63,-6.68,-6.66
207.28,-1.89,4.77,-1.89,4.79,-4.79,-5.12,-6.68,-6.68,-6.66
209.35,-1.71,4.96,-1.76,4.93,-4.93,-5.23,-6.64,-6.69,-6.67
211.44,-1.58,5.10,-1.62,5.07,-5.07,-5.33,-6.65,-6.69,-6.68
213.56,-1.53,5.16,-1.49,5.20,-5.20,-5.44,-6.74,-6.70,-6.69
215.69,-1.36,5.34,-1.37,5.33,-5.33,-5.55,-6.70,-6.70,-6.70
217.85,-1.30,5.41,-1.26,5.46,-5.46,-5.65,-6.76,-6.72,-6.71
220.03,-1.19,5.53,-1.15,5.58,-5.58,-5.75,-6.77,-6.73,-6.72
222.23,-1.07,5.66,-1.04,5.70,-5.70,-5.85,-6.77,-6.73,-6.73
224.45,-0.99,5.74,-0.93,5.81,-5.81,-5.95,-6.80,-6.74,-6.73
226.70,-0.89,5.84,-0.83,5.91,-5.91,-6.04,-6.80,-6.74,-6.74
228.96,-0.60,6.13,-0.72,6.02,-6.02,-6.13,-6.62,-6.74,-6.74
231.25,-0.55,6.18,-0.62,6.11,-6.11,-6.22,-6.66,-6.73,-6.73
233.57,-0.52,6.21,-0.52,6.20,-6.20,-6.30,-6.72,-6.72,-6.73
235.90,-0.47,6.25,-0.43,6.29,-6.29,-6.37,-6.76,-6.71,-6.72
238.26,-0.40,6.31,-0.34,6.36,-6.36,-6.44,-6.76,-6.70,-6.71
240.64,-0.26,6.44,-0.27,6.43,-6.43,-6.50,-6.69,-6.70,-6.70
243.05,-0.18,6.51,-0.19,6.49,-6.49,-6.55,-6.67,-6.68,-6.69
245.48,-0.09,6.58,-0.13,6.55,-6.55,-6.59,-6.64,-6.67,-6.67
247.93,-0.01,6.65,-0.07,6.59,-6.59,-6.63,-6.60,-6.67,-6.66
250.41,0.01,6.66,-0.03,6.63,-6.63,-6.66,-6.62,-6.66,-6.65
252.92,0.02,6.66,0.01,6.66,-6.66,-6.69,-6.65,-6.65,-6.64
255.45,0.04,6.67,0.04,6.69,-6.69,-6.70,-6.65,-6.65,-6.63
258.00,0.04,6.66,0.07,6.71,-6.71,-6.71,-6.67,-6.64,-6.62
260.58,0.05,6.67,0.10,6.73,-6.73,-6.71,-6.68,-6.63,-6.62
263.19,0.09,6.70,0.12,6.74,-6.74,-6.70,-6.65,-6.62,-6.62
265.82,0.15,6.76,0.13,6.75,-6.75,-6.69,-6.60,-6.61,-6.61
268.48,0.15,6.76,0.13,6.75,-6.75,-6.67,-6.60,-6.62,-6.61
271.16,0.14,6.76,0.12,6.75,-6.75,-6.65,-6.61,-6.63,-6.62
273.87,0.14,6.76,0.11,6.75,-6.75,-6.62,-6.61,-6.63,-6.62
276.61,0.14,6.76,0.11,6.75,-6.75,-6.59,-6.61,-6.63,-6.62
279.38,0.14,6.76,0.12,6.74,-6.74,-6.55,-6.60,-6.62,-6.62
282.17,0.14,6.76,0.13,6.74,-6.74,-6.52,-6.60,-6.62,-6.62
284.99,0.15,6.76,0.13,6.74,-6.74,-6.48,-6.59,-6.61,-6.61
287.84,0.16,6.77,0.13,6.74,-6.74,-6.43,-6.58,-6.61,-6.61
290.72,0.07,6.67,0.14,6.75,-6.75,-6.39,-6.68,-6.61,-6.60
293.63,0.06,6.65,0.16,6.76,-6.76,-6.35,-6.70,-6.60,-6.59
296.57,0.07,6.65,0.17,6.77,-6.77,-6.30,-6.70,-6.60,-6.58
299.53,0.18,6.75,0.20,6.80,-6.80,-6.26,-6.62,-6.60,-6.57
302.53,0.32,6.88,0.24,6.83,-6.83,-6.22,-6.51,-6.59,-6.57
305.55,0.34,6.90,0.28,6.86,-6.86,-6.18,-6.52,-6.58,-6.56
308.61,0.33,6.88,0.33,6.90,-6.90,-6.14,-6.58,-6.57,-6.55
311.69,0.32,6.86,0.39,6.95,-6.95,-6.11,-6.64,-6.57,-6.54
314.81,0.41,6.95,0.45,7.01,-7.01,-6.07,-6.60,-6.56,-6.54
317.96,0.52,7.05,0.52,7.06,-7.06,-6.04,-6.55,-6.55,-6.53
321.14,0.58,7.11,0.59,7.12,-7.12,-6.02,-6.54,-6.54,-6.53
324.35,0.64,7.17,0.65,7.18,-7.18,-5.99,-6.54,-6.53,-6.53
327.59,0.68,7.21,0.70,7.23,-7.23,-5.97,-6.55,-6.53,-6.53
330.87,0.80,7.33,0.75,7.28,-7.28,-5.96,-6.48,-6.53,-6.53
334.18,0.85,7.38,0.79,7.32,-7.32,-5.95,-6.48,-6.54,-6.53
337.52,0.84,7.37,0.83,7.36,-7.36,-5.94,-6.52,-6.53,-6.53
340.90,0.91,7.44,0.87,7.39,-7.39,-5.94,-6.48,-6.53,-6.53
344.30,0.94,7.47,0.89,7.42,-7.42,-5.94,-6.48,-6.52,-6.53
347.75,0.94,7.47,0.91,7.43,-7.43,-5.94,-6.49,-6.52,-6.53
351.23,0.90,7.43,0.91,7.44,-7.44,-5.95,-6.54,-6.52,-6.53
354.74,0.86,7.38,0.91,7.43,-7.43,-5.97,-6.58,-6.52,-6.52
358.28,0.85,7.37,0.91,7.43,-7.43,-5.99,-6.58,-6.51,-6.52
361.87,0.93,7.44,0.91,7.42,-7.42,-6.01,-6.49,-6.51,-6.51
365.49,0.96,7.47,0.89,7.40,-7.40,-6.04,-6.44,-6.51,-6.51
369.14,0.90,7.40,0.87,7.38,-7.38,-6.07,-6.48,-6.51,-6.50
372.83,0.84,7.33,0.86,7.36,-7.36,-6.11,-6.52,-6.50,-6.49
376.56,0.79,7.27,0.84,7.34,-7.34,-6.15,-6.55,-6.50,-6.48
380.33,0.79,7.27,0.82,7.31,-7.31,-6.19,-6.52,-6.50,-6.48
384.13,0.80,7.27,0.80,7.29,-7.29,-6.24,-6.49,-6.49,-6.47
387.97,0.80,7.27,0.78,7.27,-7.27,-6.29,-6.47,-6.48,-6.47
391.85,0.81,7.28,0.77,7.25,-7.25,-6.35,-6.44,-6.48,-6.47
395.77,0.76,7.23,0.75,7.23,-7.23,-6.41,-6.47,-6.47,-6.47
399.73,0.72,7.19,0.73,7.21,-7.21,-6.47,-6.49,-6.48,-6.47
403.72,0.70,7.17,0.71,7.19,-7.19,-6.54,-6.49,-6.48,-6.47
407.76,0.70,7.17,0.70,7.18,-7.18,-6.61,-6.48,-6.48,-6.47
411.84,0.70,7.17,0.69,7.17,-7.17,-6.68,-6.47,-6.47,-6.47
415.96,0.70,7.16,0.69,7.16,-7.16,-6.75,-6.46,-6.47,-6.46
420.12,0.70,7.16,0.69,7.15,-7.15,-6.83,-6.45,-6.45,-6.46
424.32,0.70,7.15,0.70,7.14,-7.14,-6.90,-6.44,-6.44,-6.45
428.56,0.71,7.14,0.71,7.14,-7.14,-6.98,-6.43,-6.43,-6.43
432.85,0.71,7.11,0.74,7.14,-7.14,-7.05,-6.43,-6.40,-6.41
437.18,0.68,7.05,0.77,7.14,-7.14,-7.13,-6.46,-6.36,-6.38
441.55,0.76,7.10,0.81,7.14,-7.14,-7.20,-6.38,-6.33,-6.34
445.96,0.84,7.14,0.85,7.14,-7.14,-7.27,-6.30,-6.29,-6.30
450.42,0.89,7.14,0.89,7.14,-7.14,-7.34,-6.25,-6.24,-6.25
454.93,0.94,7.14,0.94,7.13,-7.13,-7.40,-6.19,-6.20,-6.20
459.48,1.01,7.15,0.99,7.13,-7.13,-7.46,-6.12,-6.14,-6.14
464.07,1.07,7.15,1.04,7.12,-7.12,-7.52,-6.05,-6.09,-6.08
468.71,1.12,7.15,1.08,7.12,-7.12,-7.57,-6.00,-6.03,-6.03
473.40,1.19,7.16,1.13,7.11,-7.11,-7.61,-5.92,-5.98,-5.97
478.13,1.18,7.10,1.18,7.10,-7.10,-7.65,-5.92,-5.92,-5.92
482.91,1.17,7.03,1.21,7.08,-7.08,-7.68,-5.91,-5.87,-5.86
487.74,1.21,7.03,1.24,7.06,-7.06,-7.70,-5.85,-5.82,-5.82
492.62,1.26,7.04,1.26,7.05,-7.05,-7.71,-5.79,-5.79,-5.78
497.55,1.29,7.03,1.26,7.03,-7.03,-7.71,-5.74,-5.76,-5.74
502.52,1.31,7.02,1.27,7.01,-7.01,-7.71,-5.70,-5.74,-5.71
507.55,1.28,6.97,1.26,6.98,-6.98,-7.70,-5.70,-5.72,-5.69
512.62,1.23,6.91,1.25,6.96,-6.96,-7.68,-5.73,-5.70,-5.68
517.75,1.24,6.92,1.24,6.93,-6.93,-7.65,-5.70,-5.70,-5.68
522.93,1.25,6.93,1.21,6.91,-6.91,-7.61,-5.66,-5.70,-5.69
528.16,1.22,6.92,1.18,6.89,-6.89,-7.56,-5.67,-5.71,-5.70
533.44,1.10,6.82,1.14,6.86,-6.86,-7.51,-5.76,-5.73,-5.72
538.77,1.06,6.80,1.09,6.84,-6.84,-7.45,-5.78,-5.75,-5.74
544.16,1.05,6.82,1.03,6.81,-6.81,-7.39,-5.76,-5.78,-5.77
549.60,1.01,6.81,0.97,6.79,-6.79,-7.32,-5.78,-5.81,-5.80
555.10,0.96,6.79,0.91,6.76,-6.76,-7.25,-5.80,-5.85,-5.83
560.65,0.91,6.77,0.86,6.74,-6.74,-7.17,-5.83,-5.88,-5.86
566.25,0.86,6.75,0.82,6.72,-6.72,-7.09,-5.86,-5.89,-5.89
571.92,0.70,6.62,0.79,6.70,-6.70,-7.01,-6.00,-5.91,-5.92
577.64,0.62,6.56,0.74,6.68,-6.68,-6.93,-6.06,-5.94,-5.94
583.41,0.64,6.59,0.70,6.66,-6.66,-6.84,-6.02,-5.96,-5.95
589.25,0.64,6.60,0.68,6.64,-6.64,-6.76,-6.00,-5.97,-5.96
595.14,0.63,6.59,0.66,6.63,-6.63,-6.68,-6.00,-5.97,-5.96
601.09,0.63,6.58,0.64,6.61,-6.61,-6.59,-5.98,-5.96,-5.95
