frequency,raw,error,smoothed,error_smoothed,equalization,parametric_eq,fixed_band_eq,equalized_raw,equalized_smoothed,target
20.00,0.89,-7.59,0.89,-7.59,6.00,5.86,2.52,6.89,6.89,8.48
20.20,0.94,-7.53,0.94,-7.53,6.00,5.86,2.60,6.94,6.94,8.47
20.40,0.98,-7.48,0.98,-7.47,6.00,5.85,2.67,6.98,6.98,8.45
20.61,1.03,-7.42,1.03,-7.42,6.00,5.85,2.75,7.03,7.03,8.44
20.81,1.08,-7.35,1.07,-7.36,6.00,5.84,2.83,7.08,7.07,8.43
21.02,1.12,-7.30,1.12,-7.30,6.00,5.83,2.91,7.12,7.12,8.42
21.23,1.16,-7.25,1.16,-7.25,6.00,5.83,2.99,7.16,7.16,8.41
21.44,1.20,-7.20,1.20,-7.20,6.00,5.82,3.08,7.20,7.20,8.40
21.66,1.25,-7.14,1.24,-7.14,6.00,5.81,3.17,7.25,7.24,8.39
21.87,1.29,-7.09,1.29,-7.09,6.00,5.81,3.26,7.29,7.29,8.38
22.09,1.33,-7.04,1.33,-7.04,6.00,5.80,3.35,7.33,7.33,8.37
22.31,1.37,-6.99,1.37,-6.98,6.00,5.79,3.45,7.37,7.37,8.36
22.54,1.42,-6.93,1.41,-6.93,6.00,5.78,3.55,7.42,7.41,8.35
22.76,1.46,-6.88,1.46,-6.88,6.00,5.78,3.65,7.46,7.46,8.33
22.99,1.50,-6.84,1.50,-6.83,6.00,5.77,3.75,7.50,7.50,8.33
23.22,1.54,-6.78,1.54,-6.78,6.00,5.76,3.86,7.54,7.54,8.32
23.45,1.58,-6.73,1.58,-6.73,6.00,5.75,3.97,7.58,7.58,8.31
23.69,1.62,-6.68,1.62,-6.68,6.00,5.75,4.08,7.62,7.62,8.30
23.92,1.66,-6.63,1.65,-6.63,6.00,5.74,4.19,7.66,7.65,8.29
24.16,1.69,-6.59,1.69,-6.59,6.00,5.73,4.31,7.69,7.69,8.28
24.40,1.72,-6.55,1.72,-6.55,6.00,5.72,4.43,7.72,7.72,8.26
24.65,1.76,-6.51,1.75,-6.51,6.00,5.71,4.55,7.76,7.75,8.26
24.89,1.79,-6.47,1.79,-6.47,6.00,5.70,4.67,7.79,7.79,8.26
25.14,1.83,-6.43,1.83,-6.43,6.00,5.69,4.79,7.83,7.83,8.26
25.39,1.86,-6.39,1.86,-6.39,6.00,5.68,4.91,7.86,7.86,8.25
25.65,1.90,-6.35,1.90,-6.35,6.00,5.67,5.03,7.90,7.90,8.25
25.91,1.94,-6.31,1.93,-6.31,6.00,5.67,5.16,7.94,7.93,8.24
26.16,1.97,-6.27,1.97,-6.27,6.00,5.66,5.28,7.97,7.97,8.24
26.43,2.01,-6.23,2.01,-6.23,6.00,5.65,5.41,8.01,8.01,8.24
26.69,2.04,-6.20,2.04,-6.20,6.01,5.64,5.53,8.04,8.05,8.24
26.96,2.08,-6.16,2.07,-6.16,6.01,5.62,5.65,8.08,8.08,8.24
27.23,2.11,-6.13,2.11,-6.13,6.01,5.61,5.76,8.11,8.11,8.23
27.50,2.14,-6.09,2.14,-6.09,6.00,5.60,5.88,8.14,8.14,8.23
27.77,2.18,-6.05,2.17,-6.05,5.99,5.59,5.99,8.17,8.17,8.23
28.05,2.21,-6.01,2.21,-6.01,5.98,5.58,6.10,8.19,8.19,8.22
28.33,2.24,-5.98,2.24,-5.97,5.96,5.57,6.20,8.19,8.20,8.21
28.62,2.28,-5.92,2.27,-5.93,5.93,5.56,6.30,8.20,8.20,8.20
28.90,2.30,-5.90,2.30,-5.89,5.90,5.55,6.38,8.19,8.20,8.20
29.19,2.34,-5.85,2.33,-5.85,5.86,5.53,6.47,8.20,8.19,8.19
29.48,2.36,-5.81,2.36,-5.81,5.82,5.52,6.54,8.18,8.18,8.17
29.78,2.40,-5.77,2.40,-5.77,5.78,5.51,6.60,8.18,8.17,8.17
30.08,2.43,-5.73,2.42,-5.74,5.74,5.50,6.66,8.17,8.16,8.16
30.38,2.45,-5.71,2.45,-5.70,5.70,5.48,6.71,8.15,8.15,8.15
30.68,2.48,-5.67,2.48,-5.67,5.67,5.47,6.74,8.15,8.15,8.15
30.99,2.51,-5.64,2.51,-5.64,5.64,5.46,6.76,8.14,8.14,8.15
31.30,2.54,-5.60,2.54,-5.60,5.61,5.44,6.78,8.14,8.14,8.14
31.61,2.57,-5.57,2.57,-5.57,5.58,5.43,6.78,8.14,8.14,8.14
31.93,2.60,-5.55,2.59,-5.55,5.55,5.41,6.77,8.14,8.14,8.14
32.24,2.62,-5.52,2.62,-5.52,5.52,5.40,6.76,8.14,8.14,8.14
32.57,2.65,-5.49,2.65,-5.49,5.49,5.38,6.73,8.14,8.14,8.13
32.89,2.68,-5.46,2.67,-5.47,5.46,5.37,6.69,8.14,8.14,8.14
33.22,2.70,-5.44,2.70,-5.44,5.43,5.35,6.64,8.13,8.13,8.14
33.55,2.72,-5.41,2.72,-5.41,5.40,5.34,6.59,8.12,8.13,8.13
33.89,2.75,-5.37,2.75,-5.37,5.37,5.32,6.52,8.12,8.12,8.12
34.23,2.78,-5.33,2.77,-5.34,5.34,5.30,6.45,8.12,8.11,8.11
34.57,2.80,-5.31,2.80,-5.30,5.30,5.29,6.38,8.10,8.10,8.11
34.92,2.83,-5.26,2.82,-5.26,5.27,5.27,6.30,8.09,8.09,8.09
35.27,2.85,-5.23,2.85,-5.23,5.23,5.25,6.21,8.08,8.08,8.07
35.62,2.87,-5.19,2.87,-5.19,5.19,5.24,6.12,8.06,8.06,8.06
35.97,2.89,-5.15,2.89,-5.15,5.15,5.22,6.02,8.04,8.04,8.04
36.33,2.91,-5.12,2.91,-5.11,5.11,5.20,5.93,8.02,8.02,8.02
36.70,2.94,-5.06,2.93,-5.07,5.07,5.18,5.83,8.00,8.00,8.00
37.06,2.96,-5.02,2.96,-5.02,5.02,5.16,5.73,7.98,7.98,7.98
37.43,2.98,-4.98,2.98,-4.98,4.98,5.14,5.63,7.96,7.96,7.95
37.81,3.00,-4.94,3.00,-4.94,4.94,5.12,5.53,7.93,7.93,7.94
38.19,3.02,-4.89,3.02,-4.89,4.89,5.10,5.43,7.91,7.91,7.91
38.57,3.04,-4.85,3.04,-4.85,4.85,5.08,5.34,7.89,7.89,7.89
38.95,3.06,-4.81,3.06,-4.81,4.81,5.06,5.24,7.87,7.87,7.87
39.34,3.08,-4.77,3.08,-4.77,4.77,5.04,5.14,7.85,7.85,7.85
39.74,3.10,-4.74,3.10,-4.74,4.74,5.01,5.05,7.83,7.83,7.83
40.14,3.12,-4.70,3.11,-4.70,4.70,4.99,4.96,7.82,7.82,7.81
40.54,3.13,-4.68,3.13,-4.67,4.67,4.97,4.87,7.79,7.80,7.80
40.94,3.16,-4.64,3.15,-4.63,4.63,4.95,4.79,7.79,7.79,7.79
41.35,3.18,-4.60,3.18,-4.60,4.60,4.92,4.70,7.78,7.78,7.77
41.76,3.20,-4.57,3.20,-4.57,4.57,4.90,4.62,7.77,7.77,7.76
42.18,3.22,-4.54,3.21,-4.54,4.55,4.87,4.55,7.76,7.76,7.76
42.60,3.23,-4.52,3.23,-4.52,4.52,4.85,4.47,7.75,7.75,7.75
43.03,3.25,-4.49,3.25,-4.49,4.49,4.82,4.40,7.74,7.74,7.74
43.46,3.27,-4.47,3.27,-4.47,4.47,4.80,4.33,7.74,7.73,7.74
43.90,3.29,-4.45,3.28,-4.44,4.44,4.77,4.27,7.73,7.73,7.73
44.33,3.30,-4.42,3.30,-4.42,4.42,4.74,4.21,7.72,7.72,7.72
44.78,3.32,-4.40,3.32,-4.40,4.39,4.71,4.15,7.71,7.71,7.72
45.23,3.34,-4.37,3.34,-4.37,4.37,4.68,4.10,7.71,7.71,7.71
45.68,3.36,-4.34,3.36,-4.34,4.34,4.66,4.05,7.70,7.70,7.70
46.13,3.38,-4.30,3.38,-4.31,4.31,4.63,4.00,7.69,7.69,7.68
46.60,3.39,-4.29,3.39,-4.28,4.28,4.60,3.95,7.67,7.67,7.68
47.06,3.41,-4.25,3.41,-4.25,4.25,4.57,3.91,7.66,7.66,7.66
47.53,3.42,-4.22,3.42,-4.22,4.22,4.53,3.87,7.64,7.64,7.64
48.01,3.44,-4.19,3.43,-4.19,4.19,4.50,3.84,7.63,7.62,7.62
48.49,3.45,-4.16,3.45,-4.16,4.16,4.47,3.80,7.60,7.60,7.61
48.97,3.46,-4.13,3.46,-4.12,4.12,4.44,3.77,7.58,7.59,7.59
49.46,3.48,-4.09,3.47,-4.09,4.09,4.40,3.74,7.57,7.56,7.57
49.96,3.49,-4.05,3.49,-4.05,4.05,4.37,3.72,7.54,7.54,7.54
50.46,3.50,-4.02,3.50,-4.02,4.02,4.33,3.69,7.51,7.51,7.52
50.96,3.51,-3.98,3.51,-3.98,3.98,4.30,3.67,7.49,7.49,7.49
51.47,3.52,-3.95,3.52,-3.94,3.94,4.26,3.65,7.46,7.46,7.46
51.99,3.54,-3.90,3.53,-3.90,3.91,4.22,3.63,7.44,7.44,7.44
52.51,3.55,-3.87,3.55,-3.87,3.87,4.19,3.61,7.42,7.42,7.42
53.03,3.56,-3.83,3.56,-3.83,3.83,4.15,3.59,7.39,7.39,7.39
53.56,3.57,-3.80,3.57,-3.80,3.80,4.11,3.58,7.36,7.37,7.37
54.10,3.59,-3.75,3.58,-3.76,3.76,4.07,3.56,7.35,7.34,7.34
54.64,3.59,-3.73,3.59,-3.72,3.72,4.03,3.54,7.31,7.31,7.31
55.18,3.60,-3.69,3.60,-3.69,3.69,3.98,3.53,7.28,7.29,7.29
55.74,3.61,-3.65,3.61,-3.65,3.65,3.94,3.51,7.26,7.25,7.26
56.29,3.62,-3.61,3.62,-3.61,3.61,3.90,3.49,7.23,7.23,7.23
56.86,3.63,-3.57,3.63,-3.57,3.57,3.85,3.48,7.20,7.20,7.20
57.42,3.64,-3.53,3.64,-3.53,3.53,3.81,3.45,7.17,7.17,7.17
58.00,3.65,-3.49,3.65,-3.49,3.49,3.76,3.43,7.14,7.14,7.13
58.58,3.66,-3.44,3.65,-3.45,3.45,3.72,3.41,7.11,7.10,7.10
59.16,3.66,-3.41,3.66,-3.41,3.41,3.67,3.38,7.06,7.07,7.07
59.76,3.67,-3.37,3.67,-3.37,3.36,3.62,3.35,7.03,7.03,7.03
60.35,3.68,-3.32,3.68,-3.32,3.31,3.57,3.32,6.99,6.99,7.00
60.96,3.69,-3.27,3.69,-3.27,3.27,3.52,3.29,6.95,6.95,6.96
61.57,3.70,-3.21,3.70,-3.22,3.22,3.47,3.25,6.92,6.92,6.91
62.18,3.71,-3.16,3.71,-3.17,3.17,3.42,3.21,6.88,6.87,6.87
62.80,3.72,-3.11,3.71,-3.11,3.12,3.37,3.17,6.83,6.83,6.83
63.43,3.72,-3.06,3.72,-3.06,3.06,3.31,3.12,6.78,6.79,6.78
64.07,3.73,-3.01,3.73,-3.01,3.01,3.26,3.07,6.74,6.74,6.74
64.71,3.74,-2.96,3.73,-2.96,2.96,3.20,3.02,6.70,6.69,6.69
65.35,3.74,-2.91,3.74,-2.91,2.91,3.14,2.96,6.65,6.65,6.65
66.01,3.75,-2.86,3.75,-2.86,2.86,3.09,2.90,6.60,6.60,6.60
66.67,3.76,-2.80,3.75,-2.80,2.80,3.03,2.84,6.56,6.56,6.56
67.33,3.76,-2.75,3.76,-2.75,2.75,2.97,2.78,6.51,6.51,6.51
68.01,3.77,-2.69,3.77,-2.69,2.69,2.91,2.71,6.46,6.46,6.46
68.69,3.78,-2.63,3.77,-2.64,2.64,2.85,2.64,6.42,6.41,6.41
69.37,3.78,-2.58,3.78,-2.58,2.58,2.78,2.56,6.36,6.36,6.36
70.07,3.79,-2.53,3.79,-2.53,2.53,2.72,2.49,6.31,6.31,6.32
70.77,3.79,-2.47,3.79,-2.47,2.47,2.66,2.41,6.26,6.26,6.26
71.48,3.80,-2.41,3.80,-2.41,2.41,2.59,2.34,6.21,6.21,6.21
72.19,3.80,-2.35,3.80,-2.35,2.36,2.53,2.26,6.15,6.16,6.15
72.91,3.81,-2.30,3.80,-2.30,2.30,2.46,2.18,6.10,6.10,6.10
73.64,3.81,-2.24,3.81,-2.24,2.24,2.39,2.09,6.04,6.04,6.05
74.38,3.81,-2.18,3.81,-2.18,2.17,2.32,2.01,5.98,5.99,5.99
75.12,3.82,-2.11,3.81,-2.11,2.11,2.25,1.93,5.93,5.93,5.93
75.87,3.82,-2.06,3.82,-2.05,2.05,2.18,1.84,5.87,5.87,5.87
76.63,3.83,-1.98,3.83,-1.98,1.99,2.11,1.76,5.81,5.81,5.81
77.40,3.83,-1.92,3.83,-1.92,1.92,2.03,1.68,5.75,5.75,5.75
78.17,3.84,-1.84,3.83,-1.85,1.85,1.96,1.59,5.69,5.69,5.68
78.95,3.83,-1.80,3.83,-1.79,1.79,1.89,1.51,5.61,5.62,5.62
79.74,3.84,-1.72,3.84,-1.72,1.72,1.81,1.42,5.56,5.56,5.56
80.54,3.84,-1.65,3.84,-1.65,1.65,1.73,1.34,5.49,5.49,5.49
81.35,3.85,-1.58,3.84,-1.58,1.58,1.66,1.26,5.43,5.42,5.43
82.16,3.85,-1.51,3.85,-1.51,1.51,1.58,1.17,5.36,5.36,5.36
82.98,3.85,-1.44,3.85,-1.44,1.44,1.50,1.09,5.29,5.29,5.29
83.81,3.86,-1.37,3.86,-1.36,1.37,1.42,1.01,5.23,5.22,5.22
84.65,3.87,-1.28,3.86,-1.29,1.30,1.34,0.93,5.16,5.16,5.15
85.50,3.86,-1.23,3.86,-1.22,1.22,1.26,0.84,5.08,5.09,5.09
86.35,3.87,-1.15,3.86,-1.16,1.15,1.18,0.76,5.02,5.02,5.02
87.22,3.86,-1.09,3.86,-1.09,1.08,1.10,0.68,4.94,4.95,4.95
88.09,3.87,-1.01,3.87,-1.01,1.01,1.01,0.60,4.88,4.88,4.88
88.97,3.87,-0.93,3.87,-0.94,0.94,0.93,0.52,4.81,4.80,4.80
89.86,3.87,-0.86,3.87,-0.86,0.86,0.85,0.44,4.73,4.73,4.73
90.76,3.87,-0.79,3.87,-0.79,0.79,0.76,0.36,4.65,4.65,4.65
91.66,3.87,-0.72,3.87,-0.71,0.71,0.68,0.28,4.58,4.58,4.58
92.58,3.87,-0.64,3.87,-0.63,0.63,0.59,0.20,4.50,4.50,4.50
93.51,3.88,-0.54,3.87,-0.55,0.55,0.51,0.13,4.43,4.42,4.42
94.44,3.88,-0.46,3.88,-0.46,0.46,0.42,0.05,4.34,4.34,4.34
95.39,3.88,-0.38,3.88,-0.38,0.38,0.34,-0.03,4.26,4.26,4.26
96.34,3.88,-0.30,3.88,-0.30,0.30,0.25,-0.11,4.17,4.18,4.18
97.30,3.88,-0.21,3.88,-0.21,0.21,0.17,-0.18,4.09,4.09,4.09
98.28,3.88,-0.12,3.88,-0.13,0.13,0.08,-0.26,4.01,4.00,4.00
99.26,3.87,-0.05,3.87,-0.04,0.04,-0.01,-0.34,3.91,3.92,3.92
100.25,3.88,0.05,3.87,0.04,-0.04,-0.09,-0.41,3.84,3.83,3.83
101.25,3.86,0.12,3.86,0.12,-0.12,-0.18,-0.48,3.73,3.74,3.74
102.27,3.86,0.20,3.86,0.21,-0.21,-0.27,-0.56,3.65,3.65,3.65
103.29,3.86,0.29,3.86,0.29,-0.29,-0.35,-0.63,3.57,3.57,3.57
104.32,3.86,0.37,3.85,0.37,-0.37,-0.44,-0.70,3.49,3.48,3.48
105.37,3.85,0.45,3.85,0.45,-0.45,-0.52,-0.78,3.40,3.40,3.40
106.42,3.85,0.53,3.85,0.53,-0.53,-0.61,-0.85,3.32,3.32,3.31
107.48,3.85,0.62,3.84,0.61,-0.61,-0.69,-0.92,3.23,3.23,3.23
108.56,3.84,0.69,3.84,0.69,-0.69,-0.78,-0.99,3.14,3.15,3.15
109.64,3.84,0.77,3.84,0.77,-0.77,-0.86,-1.05,3.06,3.07,3.07
110.74,3.84,0.85,3.84,0.85,-0.85,-0.94,-1.12,2.99,2.99,2.99
111.85,3.84,0.93,3.84,0.93,-0.93,-1.03,-1.18,2.91,2.91,2.90
112.97,3.84,1.02,3.83,1.01,-1.01,-1.11,-1.25,2.83,2.82,2.82
114.10,3.83,1.09,3.83,1.09,-1.09,-1.19,-1.31,2.74,2.74,2.74
115.24,3.82,1.16,3.82,1.17,-1.17,-1.27,-1.37,2.65,2.65,2.65
116.39,3.82,1.26,3.81,1.25,-1.25,-1.35,-1.42,2.57,2.56,2.56
117.55,3.81,1.33,3.81,1.33,-1.33,-1.43,-1.48,2.48,2.47,2.48
118.73,3.80,1.41,3.80,1.41,-1.41,-1.51,-1.53,2.39,2.39,2.39
119.92,3.79,1.49,3.79,1.49,-1.49,-1.58,-1.58,2.29,2.30,2.30
121.12,3.79,1.58,3.78,1.58,-1.57,-1.66,-1.63,2.21,2.21,2.21
122.33,3.78,1.66,3.78,1.66,-1.66,-1.73,-1.68,2.12,2.12,2.12
123.55,3.77,1.74,3.77,1.74,-1.74,-1.81,-1.72,2.03,2.03,2.03
124.79,3.77,1.83,3.76,1.82,-1.82,-1.88,-1.76,1.95,1.94,1.94
126.03,3.75,1.89,3.75,1.90,-1.90,-1.95,-1.80,1.84,1.85,1.85
127.29,3.75,1.99,3.74,1.98,-1.98,-2.02,-1.84,1.76,1.76,1.76
128.57,3.74,2.06,3.74,2.06,-2.06,-2.09,-1.87,1.67,1.67,1.67
129.85,3.73,2.14,3.73,2.14,-2.14,-2.16,-1.91,1.59,1.59,1.59
131.15,3.73,2.22,3.72,2.21,-2.21,-2.23,-1.94,1.51,1.51,1.50
132.46,3.71,2.29,3.71,2.29,-2.29,-2.30,-1.96,1.42,1.42,1.42
133.79,3.70,2.35,3.70,2.36,-2.36,-2.36,-1.99,1.34,1.35,1.35
135.12,3.70,2.43,3.69,2.42,-2.42,-2.42,-2.02,1.28,1.27,1.27
136.48,3.69,2.49,3.69,2.49,-2.49,-2.49,-2.04,1.20,1.20,1.20
137.84,3.68,2.55,3.68,2.55,-2.55,-2.55,-2.06,1.13,1.13,1.13
139.22,3.67,2.60,3.67,2.60,-2.61,-2.61,-2.09,1.06,1.06,1.06
140.61,3.66,2.66,3.66,2.66,-2.66,-2.67,-2.11,0.99,0.99,1.00
142.02,3.65,2.72,3.65,2.72,-2.72,-2.73,-2.13,0.93,0.93,0.93
143.44,3.64,2.77,3.64,2.77,-2.77,-2.78,-2.15,0.86,0.86,0.87
144.87,3.63,2.82,3.63,2.82,-2.83,-2.84,-2.17,0.80,0.80,0.80
146.32,3.62,2.88,3.62,2.88,-2.88,-2.89,-2.19,0.74,0.74,0.74
147.78,3.61,2.93,3.61,2.93,-2.93,-2.94,-2.21,0.68,0.68,0.68
149.26,3.60,2.98,3.60,2.98,-2.97,-3.00,-2.23,0.62,0.62,0.62
150.75,3.58,3.02,3.58,3.02,-3.02,-3.05,-2.25,0.56,0.56,0.56
152.26,3.58,3.07,3.57,3.07,-3.07,-3.10,-2.27,0.51,0.50,0.50
153.78,3.56,3.11,3.56,3.11,-3.11,-3.15,-2.29,0.44,0.45,0.45
155.32,3.55,3.16,3.55,3.16,-3.16,-3.19,-2.32,0.39,0.39,0.39
156.88,3.54,3.20,3.54,3.20,-3.20,-3.24,-2.34,0.33,0.33,0.34
158.44,3.53,3.24,3.53,3.25,-3.25,-3.28,-2.37,0.28,0.28,0.28
160.03,3.53,3.30,3.52,3.29,-3.29,-3.33,-2.40,0.23,0.23,0.23
161.63,3.51,3.34,3.51,3.34,-3.34,-3.37,-2.43,0.17,0.17,0.17
163.24,3.50,3.39,3.50,3.38,-3.38,-3.42,-2.46,0.12,0.12,0.11
164.88,3.49,3.42,3.49,3.43,-3.42,-3.46,-2.50,0.06,0.07,0.06
166.53,3.49,3.47,3.48,3.47,-3.47,-3.50,-2.53,0.02,0.02,0.02
168.19,3.48,3.51,3.48,3.51,-3.51,-3.54,-2.57,-0.03,-0.03,-0.03
169.87,3.47,3.54,3.47,3.55,-3.55,-3.57,-2.61,-0.08,-0.08,-0.07
171.57,3.46,3.59,3.46,3.58,-3.59,-3.61,-2.65,-0.13,-0.13,-0.13
173.29,3.46,3.63,3.45,3.63,-3.63,-3.65,-2.69,-0.17,-0.17,-0.17
175.02,3.45,3.66,3.45,3.66,-3.66,-3.68,-2.74,-0.21,-0.21,-0.21
176.77,3.45,3.70,3.45,3.70,-3.70,-3.72,-2.79,-0.25,-0.25,-0.25
178.54,3.44,3.73,3.44,3.73,-3.73,-3.75,-2.84,-0.29,-0.29,-0.29
180.32,3.44,3.77,3.43,3.76,-3.76,-3.78,-2.89,-0.32,-0.33,-0.33
182.13,3.42,3.79,3.42,3.79,-3.79,-3.81,-2.95,-0.37,-0.37,-0.37
183.95,3.41,3.81,3.41,3.82,-3.82,-3.84,-3.00,-0.41,-0.41,-0.40
185.79,3.41,3.85,3.40,3.84,-3.85,-3.87,-3.06,-0.44,-0.45,-0.44
187.65,3.40,3.87,3.40,3.87,-3.88,-3.89,-3.12,-0.48,-0.48,-0.47
189.52,3.39,3.90,3.39,3.90,-3.90,-3.92,-3.19,-0.52,-0.51,-0.51
191.42,3.39,3.94,3.38,3.93,-3.93,-3.94,-3.25,-0.54,-0.55,-0.55
193.33,3.38,3.96,3.38,3.96,-3.96,-3.97,-3.32,-0.58,-0.58,-0.58
195.27,3.37,3.98,3.37,3.99,-3.98,-3.99,-3.39,-0.61,-0.61,-0.61
197.22,3.37,4.01,3.36,4.01,-4.01,-4.01,-3.46,-0.64,-0.64,-0.64
199.19,3.36,4.03,3.36,4.03,-4.03,-4.03,-3.53,-0.67,-0.67,-0.67
201.18,3.35,4.05,3.35,4.05,-4.05,-4.05,-3.60,-0.70,-0.70,-0.70
203.19,3.35,4.07,3.34,4.07,-4.07,-4.07,-3.68,-0.72,-0.72,-0.73
205.23,3.34,4.09,3.34,4.09,-4.09,-4.08,-3.75,-0.75,-0.75,-0.75
207.28,3.33,4.10,3.33,4.10,-4.11,-4.10,-3.83,-0.78,-0.78,-0.78
209.35,3.32,4.12,3.32,4.12,-4.13,-4.11,-3.90,-0.81,-0.81,-0.80
211.44,3.31,4.13,3.31,4.14,-4.14,-4.12,-3.98,-0.84,-0.83,-0.83
213.56,3.31,4.17,3.30,4.16,-4.16,-4.14,-4.05,-0.85,-0.85,-0.86
215.69,3.30,4.18,3.30,4.18,-4.17,-4.15,-4.12,-0.88,-0.88,-0.88
217.85,3.29,4.19,3.29,4.19,-4.19,-4.16,-4.19,-0.90,-0.90,-0.90
220.03,3.28,4.20,3.28,4.20,-4.20,-4.16,-4.26,-0.92,-0.92,-0.92
222.23,3.26,4.20,3.26,4.20,-4.20,-4.17,-4.33,-0.95,-0.94,-0.94
224.45,3.25,4.21,3.24,4.21,-4.21,-4.18,-4.39,-0.96,-0.97,-0.96
226.70,3.23,4.21,3.23,4.21,-4.22,-4.18,-4.45,-0.99,-0.99,-0.98
228.96,3.22,4.22,3.22,4.22,-4.22,-4.19,-4.51,-1.01,-1.00,-1.00
231.25,3.21,4.23,3.20,4.22,-4.23,-4.19,-4.56,-1.02,-1.03,-1.02
233.57,3.19,4.22,3.19,4.23,-4.23,-4.19,-4.61,-1.04,-1.04,-1.04
235.90,3.17,4.24,3.17,4.24,-4.24,-4.20,-4.65,-1.07,-1.06,-1.07
238.26,3.16,4.25,3.15,4.24,-4.24,-4.20,-4.69,-1.08,-1.08,-1.09
240.64,3.14,4.24,3.14,4.24,-4.24,-4.20,-4.72,-1.10,-1.10,-1.10
243.05,3.12,4.24,3.12,4.24,-4.24,-4.19,-4.74,-1.12,-1.12,-1.12
245.48,3.10,4.23,3.10,4.23,-4.23,-4.19,-4.76,-1.13,-1.13,-1.13
247.93,3.08,4.23,3.08,4.23,-4.23,-4.19,-4.77,-1.15,-1.15,-1.15
250.41,3.06,4.22,3.06,4.22,-4.22,-4.19,-4.78,-1.16,-1.16,-1.16
252.92,3.04,4.21,3.03,4.21,-4.21,-4.18,-4.77,-1.17,-1.18,-1.17
255.45,3.01,4.19,3.01,4.20,-4.20,-4.18,-4.76,-1.19,-1.19,-1.19
258.00,2.99,4.19,2.99,4.19,-4.19,-4.17,-4.75,-1.21,-1.20,-1.20
260.58,2.97,4.18,2.97,4.18,-4.18,-4.16,-4.73,-1.22,-1.22,-1.21
263.19,2.95,4.18,2.95,4.18,-4.18,-4.16,-4.70,-1.23,-1.23,-1.23
265.82,2.93,4.17,2.93,4.17,-4.17,-4.15,-4.66,-1.24,-1.24,-1.24
268.48,2.90,4.15,2.90,4.16,-4.16,-4.14,-4.62,-1.26,-1.25,-1.25
271.16,2.88,4.15,2.88,4.15,-4.15,-4.13,-4.58,-1.27,-1.27,-1.27
273.87,2.85,4.13,2.85,4.13,-4.13,-4.12,-4.53,-1.29,-1.29,-1.28
276.61,2.82,4.12,2.82,4.12,-4.12,-4.10,-4.48,-1.30,-1.30,-1.30
279.38,2.79,4.10,2.79,4.11,-4.11,-4.09,-4.42,-1.32,-1.32,-1.31
282.17,2.77,4.10,2.76,4.09,-4.09,-4.08,-4.36,-1.32,-1.33,-1.33
284.99,2.74,4.07,2.74,4.07,-4.07,-4.06,-4.30,-1.34,-1.34,-1.33
287.84,2.71,4.05,2.71,4.06,-4.06,-4.05,-4.23,-1.35,-1.34,-1.34
290.72,2.69,4.04,2.68,4.04,-4.04,-4.03,-4.16,-1.35,-1.35,-1.36
293.63,2.66,4.02,2.66,4.02,-4.01,-4.01,-4.09,-1.36,-1.36,-1.36
296.57,2.63,4.00,2.63,4.00,-3.99,-3.99,-4.02,-1.37,-1.36,-1.37
299.53,2.60,3.97,2.59,3.97,-3.97,-3.97,-3.95,-1.37,-1.38,-1.37
302.53,2.56,3.94,2.56,3.94,-3.95,-3.95,-3.88,-1.39,-1.38,-1.39
305.55,2.53,3.91,2.53,3.91,-3.92,-3.93,-3.81,-1.39,-1.39,-1.38
308.61,2.50,3.90,2.50,3.89,-3.89,-3.90,-3.74,-1.40,-1.40,-1.40
311.69,2.47,3.86,2.47,3.87,-3.86,-3.88,-3.68,-1.40,-1.40,-1.39
314.81,2.44,3.85,2.44,3.84,-3.84,-3.85,-3.61,-1.40,-1.40,-1.41
317.96,2.40,3.80,2.40,3.81,-3.81,-3.83,-3.54,-1.41,-1.41,-1.41
321.14,2.37,3.78,2.37,3.78,-3.78,-3.80,-3.48,-1.41,-1.41,-1.41
324.35,2.33,3.74,2.33,3.74,-3.75,-3.77,-3.41,-1.42,-1.42,-1.42
327.59,2.30,3.71,2.30,3.71,-3.71,-3.74,-3.35,-1.42,-1.42,-1.41
330.87,2.26,3.67,2.26,3.68,-3.68,-3.70,-3.29,-1.42,-1.42,-1.42
334.18,2.23,3.65,2.23,3.65,-3.65,-3.67,-3.23,-1.42,-1.42,-1.42
337.52,2.19,3.61,2.19,3.62,-3.61,-3.64,-3.18,-1.43,-1.42,-1.43
340.90,2.16,3.59,2.15,3.58,-3.58,-3.60,-3.13,-1.42,-1.43,-1.43
344.30,2.12,3.54,2.12,3.55,-3.55,-3.57,-3.08,-1.43,-1.43,-1.43
347.75,2.09,3.51,2.09,3.51,-3.51,-3.53,-3.03,-1.43,-1.42,-1.42
351.23,2.06,3.49,2.05,3.48,-3.48,-3.49,-2.98,-1.42,-1.43,-1.43
354.74,2.02,3.43,2.02,3.44,-3.44,-3.45,-2.94,-1.43,-1.42,-1.42
358.28,1.98,3.41,1.98,3.41,-3.41,-3.41,-2.89,-1.43,-1.43,-1.43
361.87,1.95,3.37,1.94,3.37,-3.37,-3.37,-2.85,-1.42,-1.43,-1.42
365.49,1.91,3.34,1.91,3.34,-3.34,-3.33,-2.82,-1.43,-1.43,-1.43
369.14,1.87,3.30,1.87,3.30,-3.30,-3.29,-2.78,-1.43,-1.43,-1.43
372.83,1.84,3.26,1.83,3.26,-3.26,-3.25,-2.75,-1.42,-1.43,-1.42
376.56,1.79,3.21,1.79,3.22,-3.22,-3.21,-2.72,-1.44,-1.43,-1.43
380.33,1.76,3.19,1.76,3.19,-3.18,-3.16,-2.69,-1.43,-1.43,-1.43
384.13,1.72,3.16,1.71,3.15,-3.14,-3.12,-2.67,-1.43,-1.43,-1.44
387.97,1.67,3.10,1.67,3.11,-3.10,-3.08,-2.64,-1.44,-1.43,-1.44
391.85,1.63,3.06,1.63,3.06,-3.06,-3.03,-2.62,-1.44,-1.44,-1.43
395.77,1.59,3.02,1.59,3.02,-3.02,-2.99,-2.60,-1.44,-1.44,-1.43
399.73,1.55,2.98,1.55,2.98,-2.98,-2.95,-2.58,-1.44,-1.44,-1.43
403.72,1.51,2.94,1.51,2.94,-2.94,-2.90,-2.56,-1.44,-1.44,-1.44
407.76,1.47,2.91,1.47,2.91,-2.90,-2.86,-2.55,-1.43,-1.43,-1.44
411.84,1.43,2.87,1.43,2.86,-2.86,-2.82,-2.53,-1.43,-1.43,-1.44
415.96,1.39,2.82,1.39,2.82,-2.82,-2.77,-2.52,-1.43,-1.44,-1.43
420.12,1.34,2.78,1.34,2.78,-2.78,-2.73,-2.50,-1.45,-1.44,-1.44
424.32,1.30,2.74,1.30,2.74,-2.74,-2.68,-2.49,-1.45,-1.45,-1.45
428.56,1.25,2.70,1.25,2.70,-2.70,-2.64,-2.48,-1.45,-1.45,-1.45
432.85,1.21,2.66,1.21,2.66,-2.66,-2.60,-2.47,-1.45,-1.45,-1.45
437.18,1.16,2.62,1.16,2.62,-2.61,-2.55,-2.46,-1.46,-1.45,-1.46
441.55,1.12,2.58,1.12,2.58,-2.57,-2.51,-2.45,-1.45,-1.45,-1.46
445.96,1.07,2.53,1.07,2.53,-2.52,-2.47,-2.44,-1.46,-1.46,-1.47
450.42,1.02,2.47,1.02,2.48,-2.48,-2.42,-2.43,-1.46,-1.46,-1.46
454.93,0.97,2.43,0.97,2.43,-2.43,-2.38,-2.41,-1.47,-1.47,-1.46
459.48,0.92,2.38,0.92,2.38,-2.39,-2.34,-2.40,-1.47,-1.47,-1.46
464.07,0.87,2.34,0.87,2.34,-2.34,-2.29,-2.39,-1.47,-1.47,-1.47
468.71,0.83,2.30,0.82,2.30,-2.29,-2.25,-2.37,-1.47,-1.47,-1.47
473.40,0.78,2.25,0.78,2.25,-2.25,-2.21,-2.36,-1.47,-1.47,-1.47
478.13,0.73,2.20,0.73,2.21,-2.20,-2.16,-2.34,-1.47,-1.47,-1.48
482.91,0.69,2.16,0.68,2.15,-2.15,-2.12,-2.32,-1.46,-1.47,-1.48
487.74,0.63,2.10,0.63,2.10,-2.10,-2.08,-2.30,-1.47,-1.47,-1.47
492.62,0.58,2.05,0.58,2.05,-2.05,-2.04,-2.28,-1.47,-1.47,-1.47
497.55,0.53,2.00,0.53,1.99,-2.00,-1.99,-2.25,-1.47,-1.47,-1.47
502.52,0.48,1.95,0.48,1.95,-1.94,-1.95,-2.23,-1.47,-1.47,-1.47
507.55,0.43,1.89,0.43,1.89,-1.89,-1.91,-2.20,-1.46,-1.46,-1.46
512.62,0.38,1.84,0.38,1.84,-1.84,-1.87,-2.17,-1.46,-1.46,-1.46
517.75,0.33,1.78,0.32,1.78,-1.79,-1.82,-2.14,-1.46,-1.46,-1.45
522.93,0.27,1.72,0.27,1.73,-1.73,-1.78,-2.11,-1.47,-1.46,-1.45
528.16,0.23,1.68,0.22,1.68,-1.68,-1.74,-2.07,-1.45,-1.46,-1.46
