frequency,raw,error,smoothed,error_smoothed,equalization,parametric_eq,fixed_band_eq,equalized_raw,equalized_smoothed,target
20.00,9.63,1.82,9.63,1.82,-1.84,-1.79,-1.00,7.79,7.78,7.81
20.20,9.68,1.83,9.68,1.84,-1.84,-1.80,-1.03,7.84,7.84,7.85
20.40,9.72,1.84,9.73,1.85,-1.85,-1.80,-1.06,7.87,7.88,7.88
20.61,9.77,1.86,9.78,1.86,-1.85,-1.81,-1.09,7.92,7.93,7.91
20.81,9.82,1.87,9.82,1.87,-1.85,-1.82,-1.12,7.97,7.97,7.95
21.02,9.86,1.87,9.85,1.87,-1.85,-1.82,-1.15,8.01,8.00,7.99
21.23,9.86,1.87,9.86,1.86,-1.85,-1.83,-1.18,8.01,8.02,8.00
21.44,9.86,1.85,9.86,1.85,-1.84,-1.84,-1.22,8.02,8.02,8.02
21.66,9.86,1.83,9.86,1.83,-1.83,-1.84,-1.25,8.03,8.03,8.03
21.87,9.86,1.82,9.86,1.81,-1.82,-1.85,-1.29,8.04,8.04,8.04
22.09,9.86,1.80,9.86,1.81,-1.81,-1.86,-1.32,8.05,8.05,8.06
22.31,9.87,1.81,9.87,1.80,-1.81,-1.87,-1.36,8.06,8.06,8.06
22.54,9.88,1.81,9.88,1.80,-1.81,-1.87,-1.40,8.07,8.07,8.07
22.76,9.89,1.81,9.89,1.81,-1.82,-1.88,-1.44,8.07,8.07,8.08
22.99,9.90,1.82,9.91,1.83,-1.84,-1.89,-1.48,8.06,8.07,8.08
23.22,9.94,1.85,9.94,1.85,-1.86,-1.90,-1.52,8.08,8.08,8.09
23.45,9.98,1.88,9.98,1.88,-1.88,-1.91,-1.57,8.10,8.10,8.10
23.69,10.02,1.91,10.03,1.92,-1.90,-1.91,-1.61,8.12,8.12,8.11
23.92,10.07,1.95,10.06,1.94,-1.92,-1.92,-1.65,8.15,8.14,8.12
24.16,10.08,1.95,10.08,1.95,-1.94,-1.93,-1.70,8.14,8.14,8.13
24.40,10.08,1.94,10.09,1.96,-1.95,-1.94,-1.74,8.13,8.14,8.14
24.65,10.08,1.96,10.08,1.95,-1.95,-1.95,-1.79,8.13,8.13,8.13
24.89,10.08,1.96,10.08,1.96,-1.95,-1.96,-1.84,8.13,8.13,8.12
25.14,10.08,1.96,10.08,1.96,-1.95,-1.97,-1.88,8.13,8.13,8.12
25.39,10.08,1.96,10.08,1.96,-1.96,-1.98,-1.93,8.12,8.11,8.12
25.65,10.08,1.96,10.08,1.96,-1.98,-1.99,-1.98,8.10,8.10,8.12
25.91,10.08,1.97,10.09,1.97,-2.01,-2.00,-2.03,8.08,8.09,8.11
26.16,10.12,2.00,10.12,2.01,-2.04,-2.01,-2.07,8.09,8.09,8.12
26.43,10.18,2.06,10.18,2.06,-2.07,-2.02,-2.12,8.11,8.11,8.12
26.69,10.24,2.12,10.24,2.12,-2.11,-2.03,-2.17,8.14,8.14,8.12
26.96,10.30,2.18,10.29,2.17,-2.14,-2.04,-2.22,8.16,8.15,8.12
27.23,10.31,2.20,10.31,2.20,-2.17,-2.05,-2.26,8.14,8.14,8.11
27.50,10.31,2.20,10.32,2.21,-2.19,-2.06,-2.31,8.12,8.12,8.11
27.77,10.31,2.21,10.31,2.21,-2.21,-2.07,-2.35,8.10,8.10,8.10
28.05,10.31,2.21,10.31,2.21,-2.22,-2.08,-2.40,8.09,8.09,8.10
28.33,10.31,2.22,10.31,2.22,-2.22,-2.09,-2.44,8.09,8.09,8.09
28.62,10.31,2.21,10.31,2.22,-2.22,-2.10,-2.48,8.09,8.09,8.10
28.90,10.31,2.22,10.31,2.22,-2.22,-2.11,-2.51,8.09,8.09,8.10
29.19,10.31,2.23,10.31,2.22,-2.22,-2.13,-2.55,8.09,8.09,8.08
29.48,10.31,2.22,10.31,2.22,-2.22,-2.14,-2.58,8.09,8.09,8.09
29.78,10.31,2.22,10.31,2.22,-2.22,-2.15,-2.61,8.09,8.09,8.09
30.08,10.31,2.22,10.31,2.22,-2.22,-2.16,-2.64,8.09,8.09,8.09
30.38,10.31,2.23,10.31,2.23,-2.22,-2.18,-2.67,8.09,8.09,8.08
30.68,10.31,2.24,10.31,2.24,-2.23,-2.19,-2.69,8.09,8.09,8.07
30.99,10.31,2.25,10.31,2.25,-2.24,-2.20,-2.71,8.07,8.07,8.06
31.30,10.31,2.25,10.30,2.24,-2.26,-2.22,-2.72,8.05,8.05,8.06
31.61,10.31,2.25,10.31,2.25,-2.29,-2.23,-2.74,8.02,8.02,8.06
31.93,10.31,2.27,10.33,2.28,-2.32,-2.24,-2.75,7.99,8.00,8.05
32.24,10.37,2.34,10.38,2.34,-2.36,-2.26,-2.76,8.01,8.02,8.03
32.57,10.44,2.41,10.44,2.41,-2.40,-2.27,-2.76,8.04,8.04,8.03
32.89,10.52,2.49,10.50,2.48,-2.44,-2.29,-2.77,8.08,8.07,8.03
33.22,10.54,2.52,10.54,2.51,-2.47,-2.30,-2.77,8.07,8.06,8.03
33.55,10.54,2.52,10.55,2.52,-2.50,-2.32,-2.77,8.04,8.04,8.02
33.89,10.54,2.52,10.54,2.52,-2.53,-2.33,-2.76,8.01,8.02,8.02
34.23,10.54,2.52,10.54,2.53,-2.54,-2.35,-2.76,8.00,8.00,8.02
34.57,10.54,2.54,10.54,2.53,-2.55,-2.36,-2.75,7.99,7.99,8.00
34.92,10.54,2.54,10.54,2.54,-2.55,-2.38,-2.74,7.99,7.99,8.00
35.27,10.54,2.54,10.54,2.55,-2.55,-2.39,-2.73,7.99,7.99,8.00
35.62,10.54,2.56,10.54,2.55,-2.55,-2.41,-2.72,7.99,7.99,7.98
35.97,10.54,2.56,10.54,2.56,-2.56,-2.43,-2.71,7.98,7.98,7.98
36.33,10.54,2.56,10.54,2.57,-2.57,-2.44,-2.70,7.97,7.97,7.98
36.70,10.54,2.57,10.54,2.57,-2.57,-2.46,-2.69,7.97,7.97,7.97
37.06,10.54,2.58,10.54,2.58,-2.58,-2.48,-2.68,7.96,7.96,7.96
37.43,10.54,2.59,10.54,2.59,-2.59,-2.50,-2.66,7.95,7.95,7.95
37.81,10.54,2.59,10.54,2.60,-2.60,-2.51,-2.65,7.95,7.95,7.95
38.19,10.54,2.61,10.54,2.60,-2.60,-2.53,-2.64,7.94,7.94,7.93
38.57,10.54,2.61,10.54,2.61,-2.61,-2.55,-2.63,7.93,7.93,7.93
38.95,10.54,2.62,10.54,2.62,-2.62,-2.57,-2.62,7.92,7.92,7.93
39.34,10.54,2.63,10.54,2.63,-2.63,-2.59,-2.62,7.91,7.91,7.91
39.74,10.54,2.65,10.54,2.64,-2.63,-2.61,-2.61,7.91,7.91,7.90
40.14,10.54,2.64,10.54,2.64,-2.64,-2.63,-2.60,7.90,7.90,7.90
40.54,10.54,2.65,10.54,2.65,-2.65,-2.65,-2.60,7.89,7.89,7.89
40.94,10.54,2.65,10.54,2.65,-2.66,-2.67,-2.60,7.88,7.88,7.89
41.35,10.54,2.67,10.54,2.67,-2.67,-2.69,-2.60,7.87,7.87,7.87
41.76,10.54,2.68,10.54,2.68,-2.69,-2.71,-2.60,7.86,7.86,7.86
42.18,10.54,2.70,10.54,2.70,-2.70,-2.73,-2.60,7.84,7.84,7.84
42.60,10.54,2.73,10.54,2.72,-2.73,-2.75,-2.61,7.81,7.81,7.81
43.03,10.54,2.75,10.54,2.75,-2.75,-2.77,-2.61,7.79,7.79,7.80
43.46,10.54,2.77,10.54,2.78,-2.78,-2.79,-2.62,7.76,7.76,7.77
43.90,10.54,2.82,10.54,2.81,-2.82,-2.81,-2.63,7.72,7.72,7.72
44.33,10.54,2.85,10.54,2.85,-2.85,-2.84,-2.64,7.69,7.69,7.69
44.78,10.54,2.89,10.54,2.88,-2.87,-2.86,-2.66,7.67,7.67,7.66
45.23,10.54,2.91,10.54,2.91,-2.90,-2.88,-2.67,7.64,7.64,7.63
45.68,10.54,2.94,10.54,2.94,-2.92,-2.91,-2.69,7.62,7.62,7.60
46.13,10.54,2.96,10.54,2.96,-2.95,-2.93,-2.71,7.59,7.59,7.58
46.60,10.54,2.97,10.54,2.98,-2.98,-2.95,-2.73,7.56,7.56,7.57
47.06,10.54,2.99,10.54,2.99,-3.03,-2.98,-2.76,7.51,7.51,7.55
47.53,10.56,3.02,10.56,3.01,-3.07,-3.00,-2.78,7.49,7.48,7.54
48.01,10.58,3.04,10.61,3.07,-3.11,-3.03,-2.81,7.47,7.49,7.54
48.49,10.67,3.14,10.67,3.14,-3.14,-3.05,-2.84,7.53,7.53,7.53
48.97,10.76,3.24,10.74,3.22,-3.16,-3.08,-2.87,7.60,7.59,7.52
49.46,10.77,3.26,10.78,3.27,-3.16,-3.10,-2.90,7.61,7.61,7.51
49.96,10.77,3.27,10.74,3.23,-3.16,-3.13,-2.94,7.61,7.58,7.51
50.46,10.66,3.15,10.66,3.15,-3.15,-3.15,-2.97,7.52,7.52,7.51
50.96,10.55,3.03,10.59,3.08,-3.12,-3.18,-3.01,7.43,7.46,7.52
51.47,10.54,3.03,10.54,3.03,-3.10,-3.21,-3.05,7.44,7.44,7.51
51.99,10.54,3.05,10.53,3.03,-3.08,-3.23,-3.08,7.46,7.45,7.49
52.51,10.54,3.06,10.54,3.06,-3.07,-3.26,-3.12,7.47,7.47,7.48
53.03,10.54,3.09,10.54,3.09,-3.08,-3.29,-3.16,7.46,7.46,7.46
53.56,10.54,3.12,10.54,3.12,-3.11,-3.31,-3.20,7.43,7.43,7.42
54.10,10.54,3.17,10.54,3.16,-3.15,-3.34,-3.24,7.39,7.39,7.38
54.64,10.54,3.21,10.54,3.21,-3.21,-3.37,-3.28,7.34,7.34,7.33
55.18,10.54,3.26,10.54,3.26,-3.26,-3.40,-3.32,7.28,7.28,7.28
55.74,10.54,3.31,10.54,3.31,-3.32,-3.43,-3.36,7.22,7.22,7.23
56.29,10.54,3.36,10.54,3.37,-3.38,-3.46,-3.40,7.16,7.16,7.18
56.86,10.54,3.42,10.54,3.42,-3.43,-3.49,-3.44,7.11,7.11,7.12
57.42,10.54,3.49,10.54,3.49,-3.48,-3.52,-3.48,7.07,7.07,7.05
58.00,10.54,3.55,10.55,3.56,-3.51,-3.55,-3.52,7.03,7.04,6.99
58.58,10.54,3.61,10.53,3.59,-3.54,-3.58,-3.55,7.00,6.98,6.93
59.16,10.50,3.62,10.47,3.59,-3.58,-3.61,-3.59,6.92,6.89,6.88
59.76,10.37,3.55,10.40,3.58,-3.61,-3.64,-3.62,6.76,6.79,6.82
60.35,10.32,3.57,10.34,3.58,-3.64,-3.67,-3.65,6.68,6.69,6.75
60.96,10.31,3.61,10.30,3.62,-3.67,-3.70,-3.68,6.64,6.63,6.70
61.57,10.31,3.69,10.31,3.68,-3.69,-3.73,-3.70,6.62,6.62,6.62
62.18,10.31,3.75,10.31,3.75,-3.71,-3.76,-3.73,6.60,6.60,6.56
62.80,10.31,3.80,10.30,3.79,-3.73,-3.79,-3.75,6.58,6.57,6.51
63.43,10.27,3.81,10.26,3.80,-3.76,-3.83,-3.77,6.51,6.50,6.46
64.07,10.20,3.79,10.20,3.78,-3.78,-3.86,-3.79,6.42,6.42,6.41
64.71,10.12,3.75,10.13,3.77,-3.80,-3.89,-3.80,6.33,6.34,6.37
65.35,10.08,3.76,10.09,3.77,-3.81,-3.93,-3.82,6.27,6.28,6.32
66.01,10.08,3.80,10.08,3.79,-3.82,-3.96,-3.83,6.26,6.25,6.28
66.67,10.08,3.84,10.08,3.83,-3.84,-3.99,-3.84,6.24,6.24,6.24
67.33,10.08,3.87,10.08,3.87,-3.86,-4.03,-3.85,6.22,6.22,6.21
68.01,10.08,3.90,10.08,3.90,-3.89,-4.06,-3.86,6.19,6.19,6.18
68.69,10.08,3.93,10.08,3.93,-3.92,-4.09,-3.87,6.16,6.16,6.15
69.37,10.08,3.96,10.08,3.96,-3.96,-4.13,-3.88,6.13,6.13,6.12
70.07,10.08,3.99,10.08,3.99,-3.98,-4.16,-3.88,6.10,6.10,6.09
70.77,10.08,4.01,10.08,4.01,-4.01,-4.20,-3.89,6.07,6.07,6.07
71.48,10.08,4.04,10.08,4.04,-4.03,-4.23,-3.90,6.05,6.05,6.04
72.19,10.08,4.07,10.08,4.07,-4.06,-4.27,-3.90,6.02,6.02,6.01
72.91,10.08,4.10,10.08,4.10,-4.09,-4.30,-3.91,5.99,5.99,5.98
73.64,10.08,4.13,10.08,4.13,-4.13,-4.34,-3.92,5.95,5.95,5.95
74.38,10.08,4.16,10.08,4.16,-4.19,-4.37,-3.93,5.89,5.89,5.92
75.12,10.09,4.21,10.10,4.22,-4.26,-4.41,-3.94,5.83,5.84,5.88
75.87,10.14,4.29,10.16,4.30,-4.34,-4.44,-3.96,5.80,5.82,5.85
76.63,10.25,4.43,10.23,4.41,-4.43,-4.48,-3.97,5.83,5.81,5.82
77.40,10.33,4.53,10.33,4.53,-4.51,-4.52,-3.99,5.82,5.82,5.80
78.17,10.40,4.63,10.43,4.65,-4.60,-4.55,-4.01,5.80,5.83,5.77
78.95,10.53,4.77,10.50,4.74,-4.69,-4.59,-4.03,5.85,5.81,5.76
79.74,10.54,4.79,10.53,4.79,-4.77,-4.63,-4.05,5.77,5.76,5.75
80.54,10.54,4.82,10.54,4.81,-4.84,-4.67,-4.08,5.70,5.69,5.72
81.35,10.54,4.83,10.57,4.86,-4.90,-4.70,-4.10,5.64,5.67,5.71
82.16,10.59,4.89,10.63,4.93,-4.95,-4.74,-4.14,5.65,5.69,5.70
82.98,10.77,5.07,10.71,5.01,-4.98,-4.78,-4.17,5.79,5.73,5.70
83.81,10.77,5.07,10.77,5.07,-5.02,-4.82,-4.21,5.75,5.75,5.70
84.65,10.77,5.08,10.78,5.09,-5.06,-4.85,-4.25,5.71,5.72,5.69
85.50,10.77,5.07,10.76,5.06,-5.11,-4.89,-4.29,5.66,5.65,5.70
86.35,10.77,5.07,10.80,5.10,-5.15,-4.93,-4.34,5.62,5.65,5.70
87.22,10.82,5.12,10.86,5.16,-5.18,-4.97,-4.39,5.64,5.68,5.70
88.09,10.99,5.29,10.93,5.22,-5.21,-5.01,-4.44,5.78,5.72,5.70
88.97,10.99,5.27,10.99,5.27,-5.24,-5.05,-4.50,5.75,5.75,5.72
89.86,10.99,5.27,11.01,5.29,-5.26,-5.09,-4.56,5.73,5.74,5.72
90.76,10.99,5.28,10.99,5.28,-5.29,-5.13,-4.62,5.70,5.70,5.71
91.66,10.99,5.28,10.99,5.28,-5.30,-5.17,-4.68,5.69,5.69,5.71
92.58,10.99,5.30,11.00,5.30,-5.30,-5.21,-4.75,5.69,5.70,5.69
93.51,10.99,5.29,11.00,5.30,-5.28,-5.25,-4.83,5.71,5.72,5.70
94.44,10.99,5.31,10.95,5.27,-5.26,-5.29,-4.90,5.73,5.70,5.68
95.39,10.90,5.23,10.89,5.23,-5.22,-5.33,-4.98,5.68,5.67,5.67
96.34,10.77,5.14,10.83,5.19,-5.18,-5.37,-5.06,5.59,5.65,5.63
97.30,10.77,5.15,10.75,5.13,-5.13,-5.41,-5.15,5.64,5.61,5.62
98.28,10.72,5.13,10.68,5.09,-5.08,-5.45,-5.23,5.64,5.60,5.59
99.26,10.57,5.00,10.62,5.05,-5.02,-5.49,-5.32,5.55,5.60,5.57
100.25,10.53,4.99,10.52,4.97,-4.97,-5.53,-5.41,5.56,5.54,5.54
101.25,10.46,4.95,10.42,4.91,-4.94,-5.57,-5.51,5.52,5.49,5.51
102.27,10.31,4.84,10.36,4.89,-4.91,-5.61,-5.60,5.40,5.45,5.47
103.29,10.31,4.89,10.31,4.88,-4.91,-5.66,-5.70,5.41,5.41,5.42
104.32,10.31,4.92,10.30,4.91,-4.93,-5.70,-5.80,5.39,5.37,5.39
105.37,10.31,4.97,10.31,4.97,-4.97,-5.74,-5.89,5.34,5.34,5.34
106.42,10.31,5.03,10.30,5.01,-5.03,-5.78,-5.99,5.28,5.26,5.29
107.48,10.31,5.09,10.31,5.09,-5.12,-5.83,-6.09,5.19,5.19,5.22
108.56,10.31,5.17,10.36,5.22,-5.22,-5.87,-6.19,5.09,5.14,5.14
109.64,10.46,5.38,10.44,5.36,-5.34,-5.91,-6.29,5.12,5.10,5.08
110.74,10.54,5.53,10.50,5.49,-5.47,-5.96,-6.38,5.07,5.04,5.01
111.85,10.54,5.60,10.54,5.60,-5.59,-6.00,-6.47,4.95,4.94,4.95
112.97,10.54,5.68,10.57,5.70,-5.72,-6.04,-6.56,4.82,4.85,4.86
114.10,10.58,5.79,10.63,5.84,-5.84,-6.09,-6.65,4.74,4.79,4.79
115.24,10.77,6.05,10.71,5.99,-5.97,-6.13,-6.73,4.80,4.74,4.72
116.39,10.77,6.13,10.76,6.12,-6.08,-6.18,-6.81,4.69,4.68,4.65
117.55,10.77,6.19,10.77,6.19,-6.19,-6.22,-6.88,4.58,4.57,4.58
118.73,10.77,6.25,10.78,6.26,-6.30,-6.27,-6.95,4.48,4.49,4.52
119.92,10.78,6.31,10.85,6.38,-6.39,-6.31,-7.01,4.39,4.46,4.47
121.12,10.99,6.57,10.92,6.50,-6.47,-6.36,-7.07,4.52,4.45,4.42
122.33,10.99,6.61,10.98,6.60,-6.55,-6.40,-7.12,4.44,4.43,4.38
123.55,10.99,6.63,11.00,6.65,-6.63,-6.45,-7.16,4.36,4.37,4.36
124.79,10.99,6.67,10.99,6.67,-6.71,-6.49,-7.20,4.28,4.28,4.32
126.03,10.99,6.71,11.02,6.73,-6.78,-6.54,-7.23,4.21,4.24,4.29
127.29,11.07,6.82,11.08,6.83,-6.85,-6.58,-7.25,4.22,4.23,4.26
128.57,11.17,6.95,11.15,6.93,-6.91,-6.63,-7.26,4.27,4.25,4.22
129.85,11.22,7.03,11.21,7.02,-6.97,-6.67,-7.27,4.25,4.24,4.19
131.15,11.22,7.06,11.23,7.07,-7.03,-6.72,-7.28,4.19,4.19,4.16
132.46,11.22,7.10,11.21,7.09,-7.11,-6.77,-7.27,4.11,4.10,4.12
133.79,11.22,7.13,11.23,7.14,-7.18,-6.81,-7.27,4.04,4.04,4.10
135.12,11.23,7.18,11.28,7.23,-7.26,-6.86,-7.25,3.97,4.03,4.05
136.48,11.39,7.37,11.36,7.33,-7.34,-6.90,-7.24,4.05,4.02,4.02
137.84,11.45,7.46,11.41,7.43,-7.42,-6.95,-7.21,4.03,3.99,3.99
139.22,11.45,7.51,11.46,7.52,-7.51,-7.00,-7.19,3.94,3.95,3.94
140.61,11.45,7.56,11.49,7.59,-7.60,-7.04,-7.17,3.85,3.89,3.89
142.02,11.56,7.69,11.56,7.69,-7.69,-7.09,-7.14,3.87,3.86,3.87
143.44,11.65,7.82,11.63,7.80,-7.78,-7.13,-7.11,3.87,3.85,3.83
144.87,11.68,7.89,11.68,7.89,-7.86,-7.18,-7.08,3.82,3.82,3.79
146.32,11.68,7.94,11.69,7.94,-7.94,-7.22,-7.05,3.74,3.75,3.74
147.78,11.68,7.98,11.68,7.99,-8.02,-7.27,-7.02,3.66,3.66,3.70
149.26,11.68,8.05,11.68,8.05,-8.10,-7.31,-6.99,3.59,3.59,3.63
150.75,11.68,8.12,11.69,8.12,-8.15,-7.36,-6.97,3.53,3.53,3.56
152.26,11.68,8.19,11.70,8.21,-8.19,-7.40,-6.94,3.49,3.51,3.49
153.78,11.68,8.27,11.67,8.26,-8.21,-7.44,-6.92,3.47,3.47,3.41
155.32,11.63,8.31,11.59,8.26,-8.20,-7.49,-6.90,3.43,3.39,3.32
156.88,11.45,8.20,11.46,8.22,-8.18,-7.53,-6.89,3.28,3.29,3.25
158.44,11.28,8.11,11.31,8.14,-8.13,-7.57,-6.88,3.15,3.18,3.17
160.03,11.16,8.06,11.14,8.04,-8.06,-7.62,-6.87,3.10,3.08,3.10
161.63,11.02,7.98,11.01,7.97,-7.99,-7.66,-6.86,3.04,3.03,3.04
163.24,10.85,7.86,10.87,7.88,-7.91,-7.70,-6.86,2.94,2.97,2.99
164.88,10.77,7.82,10.73,7.78,-7.83,-7.74,-6.87,2.94,2.90,2.95
166.53,10.59,7.68,10.62,7.71,-7.75,-7.78,-6.87,2.84,2.87,2.91
168.19,10.54,7.66,10.57,7.69,-7.69,-7.82,-6.89,2.85,2.88,2.88
169.87,10.54,7.68,10.53,7.66,-7.63,-7.86,-6.90,2.91,2.90,2.86
171.57,10.54,7.68,10.48,7.63,-7.58,-7.89,-6.93,2.96,2.91,2.86
173.29,10.40,7.54,10.42,7.56,-7.54,-7.93,-6.96,2.87,2.88,2.86
175.02,10.31,7.44,10.35,7.48,-7.50,-7.97,-6.99,2.81,2.85,2.88
176.77,10.31,7.44,10.30,7.43,-7.47,-8.00,-7.03,2.84,2.83,2.87
178.54,10.31,7.43,10.30,7.42,-7.44,-8.03,-7.07,2.87,2.86,2.88
180.32,10.31,7.43,10.31,7.43,-7.41,-8.07,-7.12,2.90,2.90,2.88
182.13,10.31,7.42,10.31,7.42,-7.40,-8.10,-7.18,2.91,2.91,2.89
183.95,10.31,7.42,10.31,7.42,-7.40,-8.13,-7.23,2.91,2.91,2.89
185.79,10.31,7.43,10.31,7.43,-7.43,-8.16,-7.30,2.88,2.88,2.88
187.65,10.31,7.45,10.30,7.44,-7.47,-8.19,-7.37,2.84,2.83,2.86
189.52,10.31,7.47,10.32,7.49,-7.53,-8.22,-7.45,2.78,2.79,2.84
191.42,10.37,7.55,10.39,7.57,-7.60,-8.25,-7.52,2.77,2.78,2.82
193.33,10.49,7.69,10.50,7.70,-7.69,-8.27,-7.61,2.80,2.80,2.80
195.27,10.64,7.85,10.61,7.83,-7.80,-8.30,-7.70,2.84,2.81,2.79
197.22,10.74,7.97,10.72,7.95,-7.93,-8.32,-7.79,2.81,2.79,2.77
199.19,10.78,8.05,10.81,8.07,-8.07,-8.34,-7.89,2.71,2.74,2.74
201.18,10.90,8.17,10.91,8.18,-8.22,-8.36,-7.99,2.68,2.69,2.73
203.19,11.04,8.33,11.03,8.32,-8.36,-8.38,-8.09,2.68,2.67,2.71
205.23,11.16,8.47,11.17,8.48,-8.48,-8.40,-8.20,2.68,2.69,2.69
207.28,11.30,8.62,11.30,8.63,-8.59,-8.42,-8.31,2.71,2.71,2.68
209.35,11.42,8.76,11.40,8.74,-8.68,-8.43,-8.42,2.74,2.72,2.66
211.44,11.45,8.82,11.45,8.81,-8.76,-8.44,-8.53,2.69,2.69,2.63
213.56,11.45,8.82,11.46,8.83,-8.81,-8.46,-8.64,2.64,2.65,2.63
215.69,11.45,8.82,11.45,8.83,-8.85,-8.47,-8.76,2.60,2.60,2.63
217.85,11.45,8.85,11.45,8.84,-8.87,-8.47,-8.87,2.58,2.58,2.60
220.03,11.45,8.86,11.45,8.86,-8.88,-8.48,-8.98,2.57,2.57,2.59
222.23,11.45,8.88,11.45,8.88,-8.89,-8.49,-9.08,2.56,2.56,2.57
224.45,11.45,8.88,11.45,8.88,-8.90,-8.49,-9.18,2.55,2.55,2.57
226.70,11.45,8.88,11.45,8.89,-8.91,-8.49,-9.28,2.54,2.54,2.57
228.96,11.45,8.89,11.45,8.89,-8.91,-8.49,-9.37,2.54,2.54,2.56
231.25,11.45,8.90,11.46,8.91,-8.90,-8.49,-9.45,2.55,2.56,2.56
233.57,11.45,8.91,11.45,8.91,-8.87,-8.49,-9.53,2.58,2.58,2.55
235.90,11.45,8.91,11.41,8.87,-8.84,-8.48,-9.59,2.62,2.58,2.54
238.26,11.34,8.80,11.36,8.82,-8.78,-8.48,-9.64,2.56,2.57,2.54
240.64,11.24,8.70,11.27,8.73,-8.72,-8.47,-9.68,2.52,2.55,2.54
243.05,11.22,8.67,11.17,8.62,-8.65,-8.46,-9.71,2.57,2.52,2.55
245.48,11.06,8.51,11.09,8.53,-8.56,-8.45,-9.72,2.50,2.52,2.55
247.93,10.99,8.43,11.03,8.48,-8.48,-8.43,-9.73,2.51,2.55,2.56
250.41,10.99,8.44,10.96,8.40,-8.40,-8.42,-9.71,2.59,2.56,2.55
252.92,10.95,8.38,10.91,8.33,-8.33,-8.40,-9.69,2.62,2.58,2.57
255.45,10.80,8.21,10.84,8.26,-8.27,-8.38,-9.64,2.53,2.57,2.59
258.00,10.77,8.18,10.78,8.19,-8.23,-8.36,-9.59,2.55,2.56,2.59
260.58,10.77,8.18,10.76,8.16,-8.20,-8.34,-9.52,2.57,2.56,2.60
263.19,10.77,8.16,10.77,8.16,-8.17,-8.31,-9.44,2.60,2.59,2.61
265.82,10.77,8.16,10.77,8.15,-8.15,-8.29,-9.35,2.62,2.62,2.61
268.48,10.77,8.13,10.77,8.14,-8.13,-8.26,-9.25,2.64,2.64,2.64
271.16,10.77,8.12,10.77,8.12,-8.10,-8.23,-9.13,2.67,2.67,2.65
273.87,10.77,8.11,10.79,8.12,-8.07,-8.20,-9.01,2.70,2.72,2.66
276.61,10.77,8.07,10.77,8.08,-8.02,-8.17,-8.88,2.75,2.75,2.70
279.38,10.77,8.06,10.71,8.00,-7.97,-8.13,-8.75,2.80,2.74,2.71
282.17,10.60,7.86,10.64,7.90,-7.91,-8.10,-8.61,2.69,2.73,2.74
284.99,10.54,7.78,10.57,7.81,-7.85,-8.06,-8.47,2.69,2.72,2.76
287.84,10.54,7.75,10.53,7.73,-7.79,-8.02,-8.32,2.75,2.74,2.79
290.72,10.54,7.72,10.54,7.71,-7.73,-7.98,-8.17,2.81,2.80,2.82
293.63,10.54,7.69,10.54,7.69,-7.69,-7.94,-8.02,2.85,2.85,2.85
296.57,10.54,7.66,10.54,7.67,-7.66,-7.89,-7.86,2.88,2.88,2.88
299.53,10.54,7.64,10.54,7.64,-7.64,-7.85,-7.71,2.90,2.90,2.90
302.53,10.54,7.62,10.54,7.62,-7.62,-7.80,-7.56,2.92,2.92,2.92
305.55,10.54,7.59,10.54,7.59,-7.59,-7.75,-7.41,2.95,2.95,2.95
308.61,10.54,7.57,10.55,7.58,-7.55,-7.70,-7.27,2.99,3.00,2.97
311.69,10.54,7.55,10.54,7.55,-7.51,-7.65,-7.12,3.03,3.03,2.99
314.81,10.54,7.53,10.49,7.49,-7.47,-7.60,-6.98,3.07,3.02,3.01
317.96,10.40,7.39,10.42,7.41,-7.43,-7.54,-6.84,2.97,2.99,3.01
321.14,10.31,7.30,10.35,7.33,-7.39,-7.49,-6.70,2.92,2.96,3.01
324.35,10.31,7.30,10.30,7.29,-7.34,-7.43,-6.57,2.97,2.96,3.01
327.59,10.31,7.29,10.31,7.29,-7.28,-7.37,-6.44,3.03,3.03,3.02
330.87,10.31,7.28,10.31,7.29,-7.23,-7.31,-6.32,3.08,3.08,3.03
334.18,10.31,7.27,10.27,7.23,-7.18,-7.25,-6.19,3.13,3.09,3.04
337.52,10.18,7.14,10.20,7.15,-7.14,-7.19,-6.08,3.04,3.06,3.04
340.90,10.10,7.03,10.13,7.06,-7.10,-7.13,-5.96,3.00,3.03,3.07
344.30,10.08,7.00,10.08,7.00,-7.06,-7.06,-5.86,3.02,3.02,3.08
347.75,10.08,6.98,10.07,6.97,-7.01,-7.00,-5.75,3.07,3.06,3.10
351.23,10.08,6.96,10.08,6.96,-6.96,-6.93,-5.65,3.12,3.12,3.12
354.74,10.08,6.94,10.10,6.95,-6.91,-6.86,-5.56,3.17,3.19,3.14
358.28,10.08,6.91,10.08,6.91,-6.86,-6.79,-5.46,3.22,3.22,3.17
361.87,10.08,6.89,10.03,6.84,-6.81,-6.72,-5.38,3.27,3.21,3.19
365.49,9.92,6.71,9.96,6.74,-6.75,-6.65,-5.29,3.17,3.20,3.22
369.14,9.87,6.64,9.90,6.67,-6.69,-6.58,-5.21,3.18,3.21,3.23
372.83,9.86,6.60,9.86,6.60,-6.61,-6.50,-5.14,3.25,3.24,3.26
376.56,9.86,6.58,9.82,6.54,-6.54,-6.43,-5.06,3.32,3.28,3.28
380.33,9.76,6.45,9.76,6.45,-6.45,-6.35,-5.00,3.31,3.30,3.31
384.13,9.65,6.32,9.70,6.38,-6.37,-6.27,-4.93,3.28,3.33,3.33
387.97,9.63,6.30,9.63,6.29,-6.29,-6.19,-4.87,3.34,3.34,3.33
391.85,9.62,6.28,9.57,6.22,-6.21,-6.11,-4.81,3.41,3.36,3.34
395.77,9.46,6.11,9.50,6.15,-6.12,-6.03,-4.75,3.34,3.38,3.35
399.73,9.40,6.04,9.39,6.03,-6.04,-5.95,-4.70,3.36,3.36,3.36
403.72,9.31,5.94,9.29,5.92,-5.95,-5.87,-4.65,3.36,3.34,3.37
407.76,9.20,5.82,9.24,5.86,-5.87,-5.78,-4.60,3.33,3.37,3.38
411.84,9.17,5.78,9.17,5.79,-5.79,-5.70,-4.56,3.38,3.38,3.39
415.96,9.17,5.78,9.10,5.71,-5.72,-5.61,-4.51,3.45,3.38,3.40
420.12,8.99,5.60,9.04,5.65,-5.64,-5.52,-4.47,3.35,3.40,3.39
424.32,8.94,5.55,8.97,5.58,-5.57,-5.44,-4.43,3.37,3.40,3.39
428.56,8.94,5.55,8.89,5.50,-5.50,-5.35,-4.39,3.44,3.39,3.39
432.85,8.85,5.46,8.85,5.46,-5.44,-5.25,-4.35,3.41,3.42,3.39
437.18,8.74,5.34,8.77,5.38,-5.36,-5.16,-4.31,3.38,3.41,3.40
441.55,8.72,5.31,8.67,5.26,-5.29,-5.07,-4.27,3.43,3.38,3.41
445.96,8.56,5.15,8.59,5.17,-5.20,-4.97,-4.23,3.36,3.39,3.41
450.42,8.49,5.07,8.54,5.12,-5.10,-4.88,-4.19,3.39,3.44,3.42
454.93,8.49,5.06,8.46,5.04,-5.01,-4.78,-4.14,3.48,3.45,3.43
459.48,8.44,5.01,8.36,4.92,-4.91,-4.68,-4.10,3.53,3.45,3.44
464.07,8.19,4.74,8.23,4.78,-4.80,-4.58,-4.05,3.39,3.43,3.45
468.71,8.06,4.59,8.12,4.65,-4.68,-4.48,-4.00,3.38,3.44,3.47
473.40,8.03,4.55,8.02,4.54,-4.55,-4.37,-3.95,3.48,3.47,3.48
478.13,8.03,4.52,7.98,4.47,-4.42,-4.27,-3.90,3.61,3.56,3.51
482.91,7.85,4.32,7.88,4.34,-4.28,-4.16,-3.84,3.57,3.60,3.53
487.74,7.75,4.19,7.71,4.15,-4.15,-4.05,-3.78,3.60,3.56,3.56
492.62,7.53,3.94,7.54,3.95,-4.02,-3.94,-3.72,3.51,3.52,3.59
497.55,7.38,3.77,7.44,3.83,-3.89,-3.83,-3.65,3.49,3.55,3.61
