frequency,raw,smoothed,error,error_smoothed,equalization,parametric_eq,fixed_band_eq,equalized_raw,equalized_smoothed,target
20.00,-4.24,-4.24,-6.18,-6.17,6.01,6.24,2.25,1.77,1.77,1.94
20.20,-4.20,-4.20,-6.14,-6.14,6.01,6.21,2.31,1.81,1.81,1.94
20.40,-4.17,-4.17,-6.11,-6.11,6.01,6.18,2.38,1.84,1.84,1.94
20.61,-4.14,-4.14,-6.08,-6.08,6.00,6.14,2.45,1.86,1.86,1.94
20.81,-4.11,-4.11,-6.04,-6.04,5.99,6.11,2.52,1.88,1.88,1.94
21.02,-4.08,-4.08,-6.01,-6.01,5.97,6.08,2.60,1.89,1.89,1.94
21.23,-4.05,-4.05,-5.96,-5.97,5.95,6.05,2.67,1.90,1.90,1.92
21.44,-4.03,-4.02,-5.93,-5.93,5.93,6.02,2.75,1.90,1.90,1.91
21.66,-4.00,-4.00,-5.88,-5.89,5.89,5.99,2.83,1.89,1.89,1.89
21.87,-3.98,-3.98,-5.84,-5.85,5.85,5.95,2.92,1.88,1.88,1.86
22.09,-3.96,-3.96,-5.81,-5.80,5.81,5.92,3.00,1.85,1.86,1.85
22.31,-3.94,-3.94,-5.76,-5.77,5.77,5.89,3.09,1.83,1.83,1.82
22.54,-3.92,-3.92,-5.72,-5.73,5.72,5.85,3.18,1.80,1.80,1.80
22.76,-3.91,-3.90,-5.69,-5.68,5.68,5.82,3.27,1.77,1.78,1.78
22.99,-3.89,-3.89,-5.64,-5.64,5.64,5.79,3.37,1.75,1.75,1.75
23.22,-3.87,-3.87,-5.59,-5.60,5.60,5.75,3.47,1.73,1.73,1.72
23.45,-3.86,-3.85,-5.56,-5.56,5.56,5.72,3.56,1.71,1.71,1.70
23.69,-3.84,-3.84,-5.53,-5.53,5.53,5.68,3.67,1.69,1.69,1.69
23.92,-3.83,-3.83,-5.50,-5.50,5.49,5.65,3.77,1.66,1.67,1.67
24.16,-3.81,-3.81,-5.47,-5.46,5.46,5.61,3.87,1.65,1.65,1.66
24.40,-3.79,-3.79,-5.42,-5.42,5.42,5.57,3.98,1.63,1.63,1.64
24.65,-3.77,-3.77,-5.38,-5.39,5.39,5.54,4.09,1.62,1.62,1.62
24.89,-3.75,-3.75,-5.34,-5.35,5.35,5.50,4.20,1.60,1.60,1.59
25.14,-3.74,-3.73,-5.32,-5.32,5.32,5.46,4.31,1.58,1.58,1.58
25.39,-3.72,-3.72,-5.28,-5.28,5.28,5.43,4.42,1.56,1.56,1.56
25.65,-3.71,-3.70,-5.26,-5.25,5.25,5.39,4.53,1.54,1.54,1.55
25.91,-3.69,-3.69,-5.21,-5.22,5.22,5.35,4.64,1.53,1.53,1.52
26.16,-3.68,-3.68,-5.19,-5.19,5.19,5.31,4.75,1.51,1.51,1.51
26.43,-3.67,-3.67,-5.17,-5.16,5.17,5.27,4.86,1.50,1.50,1.50
26.69,-3.66,-3.66,-5.14,-5.14,5.14,5.24,4.97,1.48,1.48,1.48
26.96,-3.65,-3.65,-5.11,-5.12,5.12,5.20,5.08,1.47,1.47,1.47
27.23,-3.64,-3.64,-5.09,-5.09,5.09,5.16,5.18,1.45,1.45,1.46
27.50,-3.64,-3.63,-5.08,-5.08,5.07,5.12,5.29,1.43,1.43,1.44
27.77,-3.63,-3.63,-5.05,-5.05,5.05,5.08,5.38,1.42,1.42,1.42
28.05,-3.62,-3.62,-5.03,-5.03,5.02,5.04,5.48,1.41,1.41,1.41
28.33,-3.61,-3.61,-5.00,-5.00,5.00,5.00,5.56,1.39,1.40,1.39
28.62,-3.60,-3.60,-4.98,-4.98,4.98,4.96,5.65,1.38,1.38,1.38
28.90,-3.59,-3.59,-4.95,-4.95,4.96,4.92,5.72,1.37,1.37,1.37
29.19,-3.59,-3.58,-4.93,-4.93,4.94,4.88,5.79,1.35,1.35,1.34
29.48,-3.58,-3.58,-4.92,-4.92,4.92,4.83,5.85,1.34,1.34,1.34
29.78,-3.57,-3.57,-4.90,-4.90,4.90,4.79,5.90,1.33,1.33,1.33
30.08,-3.57,-3.56,-4.89,-4.88,4.88,4.75,5.94,1.31,1.31,1.32
30.38,-3.56,-3.56,-4.86,-4.86,4.86,4.71,5.98,1.30,1.30,1.30
30.68,-3.55,-3.55,-4.83,-4.83,4.83,4.67,6.00,1.28,1.28,1.29
30.99,-3.54,-3.54,-4.80,-4.80,4.81,4.62,6.02,1.27,1.27,1.26
31.30,-3.53,-3.53,-4.78,-4.78,4.78,4.58,6.02,1.25,1.25,1.25
31.61,-3.52,-3.52,-4.76,-4.75,4.75,4.54,6.01,1.23,1.23,1.24
31.93,-3.51,-3.51,-4.72,-4.72,4.72,4.49,5.99,1.21,1.21,1.22
32.24,-3.50,-3.50,-4.68,-4.69,4.69,4.45,5.96,1.19,1.19,1.18
32.57,-3.49,-3.49,-4.66,-4.66,4.66,4.41,5.92,1.17,1.17,1.17
32.89,-3.48,-3.48,-4.64,-4.63,4.63,4.36,5.88,1.15,1.15,1.16
33.22,-3.47,-3.47,-4.59,-4.60,4.60,4.32,5.82,1.13,1.13,1.13
33.55,-3.46,-3.46,-4.57,-4.57,4.57,4.27,5.75,1.11,1.11,1.11
33.89,-3.45,-3.45,-4.54,-4.54,4.54,4.23,5.68,1.09,1.09,1.09
34.23,-3.45,-3.45,-4.52,-4.51,4.51,4.18,5.60,1.06,1.07,1.07
34.57,-3.44,-3.44,-4.48,-4.48,4.48,4.14,5.51,1.04,1.04,1.04
34.92,-3.43,-3.43,-4.45,-4.45,4.45,4.09,5.42,1.02,1.02,1.02
35.27,-3.41,-3.41,-4.42,-4.42,4.41,4.05,5.32,1.01,1.00,1.01
35.62,-3.40,-3.40,-4.38,-4.38,4.38,4.00,5.22,0.98,0.98,0.98
35.97,-3.38,-3.38,-4.34,-4.34,4.34,3.95,5.12,0.96,0.97,0.96
36.33,-3.36,-3.36,-4.30,-4.30,4.30,3.91,5.01,0.95,0.94,0.95
36.70,-3.34,-3.34,-4.26,-4.26,4.26,3.86,4.90,0.92,0.92,0.92
37.06,-3.32,-3.32,-4.22,-4.22,4.22,3.81,4.79,0.90,0.90,0.90
37.43,-3.29,-3.29,-4.17,-4.17,4.17,3.76,4.67,0.88,0.88,0.88
37.81,-3.27,-3.26,-4.13,-4.13,4.12,3.72,4.56,0.85,0.86,0.86
38.19,-3.24,-3.23,-4.07,-4.08,4.07,3.67,4.45,0.83,0.84,0.84
38.57,-3.20,-3.20,-4.02,-4.02,4.02,3.62,4.33,0.82,0.82,0.82
38.95,-3.17,-3.17,-3.96,-3.96,3.96,3.57,4.22,0.80,0.80,0.80
39.34,-3.13,-3.13,-3.90,-3.90,3.91,3.52,4.11,0.78,0.77,0.77
39.74,-3.10,-3.09,-3.84,-3.85,3.85,3.48,4.00,0.75,0.75,0.75
40.14,-3.06,-3.05,-3.80,-3.79,3.79,3.43,3.89,0.73,0.73,0.74
40.54,-3.01,-3.01,-3.72,-3.73,3.73,3.38,3.78,0.72,0.71,0.72
40.94,-2.97,-2.97,-3.67,-3.67,3.67,3.33,3.67,0.70,0.70,0.70
41.35,-2.93,-2.92,-3.60,-3.60,3.61,3.28,3.57,0.68,0.68,0.67
41.76,-2.88,-2.88,-3.54,-3.54,3.55,3.23,3.47,0.67,0.67,0.67
42.18,-2.84,-2.84,-3.49,-3.48,3.48,3.18,3.37,0.64,0.65,0.65
42.60,-2.79,-2.79,-3.41,-3.42,3.42,3.13,3.27,0.63,0.63,0.62
43.03,-2.75,-2.75,-3.36,-3.36,3.35,3.07,3.17,0.60,0.61,0.62
43.46,-2.70,-2.70,-3.29,-3.29,3.28,3.02,3.08,0.59,0.59,0.59
43.90,-2.65,-2.65,-3.21,-3.22,3.21,2.97,2.99,0.57,0.57,0.56
44.33,-2.60,-2.60,-3.14,-3.14,3.14,2.92,2.90,0.55,0.55,0.54
44.78,-2.55,-2.55,-3.07,-3.07,3.07,2.87,2.81,0.53,0.53,0.53
45.23,-2.50,-2.50,-3.00,-3.00,3.00,2.82,2.73,0.50,0.50,0.50
45.68,-2.45,-2.45,-2.93,-2.93,2.93,2.76,2.65,0.48,0.48,0.48
46.13,-2.40,-2.40,-2.86,-2.86,2.86,2.71,2.57,0.46,0.47,0.46
46.60,-2.34,-2.34,-2.79,-2.79,2.79,2.66,2.49,0.45,0.45,0.45
47.06,-2.29,-2.29,-2.72,-2.72,2.71,2.60,2.41,0.43,0.43,0.43
47.53,-2.23,-2.23,-2.64,-2.65,2.64,2.55,2.34,0.41,0.41,0.41
48.01,-2.18,-2.18,-2.58,-2.57,2.56,2.49,2.27,0.38,0.39,0.40
48.49,-2.12,-2.12,-2.49,-2.49,2.49,2.44,2.20,0.37,0.37,0.37
48.97,-2.07,-2.06,-2.41,-2.40,2.41,2.38,2.13,0.34,0.34,0.34
49.46,-2.01,-2.01,-2.32,-2.32,2.33,2.33,2.07,0.32,0.32,0.31
49.96,-1.96,-1.96,-2.23,-2.24,2.25,2.27,2.00,0.29,0.29,0.28
50.46,-1.91,-1.90,-2.18,-2.17,2.17,2.22,1.94,0.26,0.27,0.27
50.96,-1.85,-1.85,-2.10,-2.10,2.09,2.16,1.88,0.25,0.24,0.25
51.47,-1.80,-1.80,-2.02,-2.02,2.02,2.10,1.82,0.22,0.22,0.22
51.99,-1.74,-1.74,-1.93,-1.94,1.94,2.05,1.76,0.20,0.20,0.19
52.51,-1.69,-1.69,-1.87,-1.86,1.86,1.99,1.70,0.17,0.18,0.18
53.03,-1.63,-1.63,-1.78,-1.79,1.78,1.93,1.65,0.16,0.15,0.16
53.56,-1.58,-1.58,-1.71,-1.71,1.71,1.87,1.59,0.13,0.13,0.13
54.10,-1.52,-1.52,-1.62,-1.63,1.62,1.81,1.54,0.11,0.10,0.11
54.64,-1.47,-1.46,-1.55,-1.54,1.54,1.75,1.48,0.08,0.08,0.08
55.18,-1.41,-1.41,-1.46,-1.46,1.46,1.69,1.43,0.06,0.06,0.05
55.74,-1.35,-1.35,-1.37,-1.38,1.38,1.63,1.38,0.03,0.03,0.03
56.29,-1.30,-1.29,-1.31,-1.30,1.30,1.57,1.33,0.00,0.01,0.01
56.86,-1.24,-1.24,-1.22,-1.22,1.22,1.51,1.27,-0.02,-0.02,-0.02
57.42,-1.19,-1.19,-1.14,-1.14,1.14,1.45,1.22,-0.05,-0.04,-0.05
58.00,-1.13,-1.13,-1.06,-1.06,1.06,1.38,1.17,-0.07,-0.07,-0.07
58.58,-1.08,-1.08,-0.98,-0.98,0.98,1.32,1.12,-0.10,-0.09,-0.10
59.16,-1.02,-1.02,-0.90,-0.90,0.90,1.26,1.06,-0.11,-0.12,-0.12
59.76,-0.97,-0.97,-0.83,-0.83,0.82,1.19,1.01,-0.15,-0.14,-0.14
60.35,-0.91,-0.91,-0.74,-0.75,0.74,1.13,0.96,-0.17,-0.17,-0.17
60.96,-0.86,-0.86,-0.68,-0.66,0.66,1.06,0.90,-0.20,-0.20,-0.18
61.57,-0.80,-0.80,-0.57,-0.58,0.58,1.00,0.85,-0.22,-0.22,-0.23
62.18,-0.75,-0.75,-0.49,-0.49,0.49,0.93,0.79,-0.25,-0.25,-0.26
62.80,-0.70,-0.70,-0.41,-0.41,0.41,0.86,0.73,-0.28,-0.28,-0.28
63.43,-0.65,-0.65,-0.33,-0.33,0.34,0.80,0.68,-0.31,-0.31,-0.32
64.07,-0.60,-0.60,-0.25,-0.26,0.26,0.73,0.62,-0.34,-0.34,-0.35
64.71,-0.55,-0.55,-0.19,-0.18,0.18,0.66,0.56,-0.37,-0.37,-0.36
65.35,-0.50,-0.50,-0.11,-0.11,0.11,0.59,0.50,-0.39,-0.39,-0.39
66.01,-0.45,-0.45,-0.04,-0.04,0.04,0.52,0.44,-0.41,-0.41,-0.41
66.67,-0.40,-0.40,0.04,0.03,-0.03,0.45,0.38,-0.43,-0.44,-0.44
67.33,-0.36,-0.35,0.10,0.10,-0.11,0.38,0.31,-0.46,-0.46,-0.46
68.01,-0.31,-0.31,0.18,0.17,-0.18,0.30,0.25,-0.48,-0.49,-0.49
68.69,-0.27,-0.26,0.24,0.25,-0.25,0.23,0.18,-0.51,-0.51,-0.51
69.37,-0.22,-0.22,0.32,0.32,-0.32,0.16,0.12,-0.53,-0.54,-0.54
70.07,-0.18,-0.18,0.38,0.39,-0.38,0.08,0.05,-0.56,-0.56,-0.56
70.77,-0.14,-0.14,0.45,0.45,-0.45,0.01,-0.02,-0.59,-0.59,-0.59
71.48,-0.10,-0.10,0.52,0.52,-0.52,-0.07,-0.09,-0.62,-0.62,-0.62
72.19,-0.07,-0.07,0.58,0.58,-0.58,-0.14,-0.16,-0.65,-0.65,-0.65
72.91,-0.04,-0.04,0.64,0.65,-0.65,-0.22,-0.23,-0.69,-0.68,-0.68
73.64,-0.01,-0.01,0.71,0.71,-0.71,-0.30,-0.30,-0.72,-0.72,-0.72
74.38,0.02,0.02,0.77,0.77,-0.77,-0.37,-0.38,-0.75,-0.75,-0.75
75.12,0.04,0.04,0.84,0.83,-0.83,-0.45,-0.45,-0.79,-0.78,-0.80
75.87,0.06,0.06,0.89,0.89,-0.88,-0.53,-0.53,-0.82,-0.82,-0.82
76.63,0.08,0.08,0.94,0.94,-0.94,-0.61,-0.60,-0.85,-0.86,-0.85
77.40,0.09,0.09,0.99,0.99,-0.99,-0.69,-0.68,-0.90,-0.90,-0.90
78.17,0.10,0.10,1.05,1.04,-1.04,-0.77,-0.76,-0.94,-0.94,-0.95
78.95,0.11,0.11,1.08,1.09,-1.09,-0.86,-0.84,-0.98,-0.98,-0.97
79.74,0.12,0.12,1.14,1.14,-1.14,-0.94,-0.92,-1.02,-1.02,-1.01
80.54,0.13,0.13,1.19,1.19,-1.19,-1.02,-1.00,-1.06,-1.06,-1.06
81.35,0.14,0.14,1.24,1.24,-1.25,-1.10,-1.09,-1.10,-1.11,-1.10
82.16,0.15,0.16,1.30,1.30,-1.30,-1.19,-1.17,-1.15,-1.15,-1.15
82.98,0.17,0.17,1.36,1.36,-1.36,-1.27,-1.26,-1.19,-1.19,-1.18
83.81,0.19,0.19,1.43,1.43,-1.43,-1.36,-1.34,-1.24,-1.24,-1.24
84.65,0.21,0.21,1.50,1.50,-1.49,-1.44,-1.43,-1.28,-1.28,-1.29
85.50,0.23,0.23,1.56,1.56,-1.56,-1.53,-1.52,-1.33,-1.33,-1.33
86.35,0.25,0.25,1.63,1.63,-1.63,-1.61,-1.61,-1.38,-1.38,-1.38
87.22,0.27,0.27,1.70,1.70,-1.70,-1.70,-1.70,-1.43,-1.43,-1.43
88.09,0.30,0.30,1.78,1.77,-1.78,-1.78,-1.80,-1.47,-1.48,-1.48
88.97,0.32,0.33,1.84,1.85,-1.85,-1.87,-1.89,-1.53,-1.52,-1.52
89.86,0.35,0.35,1.92,1.92,-1.92,-1.96,-1.99,-1.57,-1.57,-1.57
90.76,0.37,0.37,2.00,2.00,-1.99,-2.04,-2.09,-1.62,-1.62,-1.63
91.66,0.39,0.40,2.07,2.08,-2.07,-2.13,-2.18,-1.68,-1.67,-1.67
92.58,0.42,0.42,2.16,2.15,-2.14,-2.22,-2.29,-1.72,-1.72,-1.74
93.51,0.44,0.44,2.21,2.22,-2.22,-2.30,-2.39,-1.78,-1.78,-1.77
94.44,0.46,0.46,2.29,2.29,-2.29,-2.39,-2.49,-1.83,-1.83,-1.83
95.39,0.48,0.48,2.36,2.36,-2.37,-2.48,-2.59,-1.89,-1.89,-1.88
96.34,0.50,0.51,2.45,2.45,-2.45,-2.57,-2.70,-1.95,-1.94,-1.94
97.30,0.53,0.53,2.53,2.53,-2.53,-2.65,-2.81,-1.99,-2.00,-2.00
98.28,0.55,0.55,2.61,2.61,-2.61,-2.74,-2.92,-2.05,-2.05,-2.05
99.26,0.57,0.57,2.69,2.69,-2.69,-2.83,-3.02,-2.12,-2.12,-2.12
100.25,0.59,0.59,2.77,2.77,-2.77,-2.91,-3.13,-2.18,-2.18,-2.18
101.25,0.61,0.62,2.84,2.85,-2.85,-3.00,-3.24,-2.24,-2.24,-2.23
102.27,0.64,0.64,2.94,2.94,-2.94,-3.08,-3.35,-2.29,-2.30,-2.30
103.29,0.66,0.66,3.03,3.02,-3.02,-3.17,-3.46,-2.36,-2.36,-2.36
104.32,0.68,0.68,3.10,3.10,-3.10,-3.25,-3.57,-2.42,-2.42,-2.42
105.37,0.70,0.70,3.18,3.18,-3.18,-3.34,-3.68,-2.48,-2.48,-2.48
106.42,0.72,0.72,3.27,3.27,-3.27,-3.42,-3.79,-2.55,-2.55,-2.54
107.48,0.74,0.74,3.35,3.35,-3.35,-3.51,-3.90,-2.61,-2.61,-2.61
108.56,0.76,0.76,3.44,3.44,-3.44,-3.59,-4.00,-2.67,-2.67,-2.68
109.64,0.78,0.78,3.52,3.52,-3.52,-3.67,-4.11,-2.74,-2.74,-2.74
110.74,0.80,0.80,3.60,3.61,-3.61,-3.75,-4.21,-2.80,-2.80,-2.80
111.85,0.82,0.82,3.69,3.69,-3.69,-3.83,-4.31,-2.87,-2.87,-2.86
112.97,0.84,0.84,3.79,3.78,-3.78,-3.91,-4.40,-2.94,-2.94,-2.95
114.10,0.85,0.86,3.86,3.86,-3.86,-3.99,-4.50,-3.01,-3.01,-3.00
115.24,0.87,0.87,3.94,3.95,-3.95,-4.07,-4.58,-3.07,-3.07,-3.07
116.39,0.89,0.89,4.04,4.03,-4.03,-4.14,-4.67,-3.14,-3.14,-3.14
117.55,0.90,0.90,4.11,4.11,-4.11,-4.22,-4.75,-3.20,-3.20,-3.21
118.73,0.91,0.92,4.18,4.19,-4.18,-4.29,-4.82,-3.27,-3.27,-3.27
119.92,0.93,0.93,4.26,4.26,-4.26,-4.37,-4.89,-3.32,-3.33,-3.32
121.12,0.94,0.94,4.33,4.33,-4.33,-4.44,-4.95,-3.39,-3.39,-3.39
122.33,0.95,0.95,4.40,4.40,-4.40,-4.51,-5.01,-3.45,-3.45,-3.45
123.55,0.96,0.96,4.46,4.47,-4.47,-4.58,-5.06,-3.51,-3.51,-3.50
124.79,0.97,0.97,4.54,4.53,-4.54,-4.65,-5.10,-3.56,-3.56,-3.56
126.03,0.98,0.98,4.60,4.60,-4.60,-4.72,-5.14,-3.62,-3.62,-3.61
127.29,0.99,0.99,4.67,4.67,-4.67,-4.78,-5.17,-3.68,-3.68,-3.67
128.57,1.00,1.00,4.75,4.73,-4.73,-4.85,-5.20,-3.73,-3.73,-3.74
129.85,1.00,1.01,4.79,4.80,-4.79,-4.91,-5.22,-3.79,-3.79,-3.79
131.15,1.01,1.01,4.85,4.86,-4.85,-4.98,-5.23,-3.84,-3.84,-3.84
132.46,1.02,1.02,4.92,4.91,-4.91,-5.04,-5.24,-3.89,-3.89,-3.90
133.79,1.02,1.03,4.96,4.97,-4.97,-5.10,-5.25,-3.94,-3.94,-3.93
135.12,1.03,1.03,5.02,5.02,-5.02,-5.15,-5.25,-3.98,-3.98,-3.99
136.48,1.04,1.04,5.07,5.06,-5.06,-5.21,-5.24,-4.02,-4.03,-4.02
137.84,1.04,1.04,5.10,5.11,-5.11,-5.26,-5.24,-4.07,-4.07,-4.06
139.22,1.04,1.05,5.15,5.15,-5.15,-5.32,-5.23,-4.11,-4.10,-4.11
140.61,1.05,1.05,5.21,5.19,-5.19,-5.37,-5.21,-4.14,-4.14,-4.16
142.02,1.05,1.05,5.22,5.23,-5.23,-5.42,-5.20,-4.17,-4.17,-4.17
143.44,1.05,1.05,5.25,5.26,-5.26,-5.47,-5.18,-4.21,-4.21,-4.20
144.87,1.05,1.06,5.29,5.29,-5.29,-5.52,-5.17,-4.24,-4.24,-4.24
146.32,1.06,1.06,5.33,5.32,-5.32,-5.56,-5.15,-4.26,-4.27,-4.27
147.78,1.06,1.06,5.35,5.35,-5.36,-5.60,-5.13,-4.29,-4.29,-4.29
149.26,1.06,1.07,5.38,5.38,-5.39,-5.65,-5.11,-4.32,-4.32,-4.32
150.75,1.07,1.07,5.42,5.42,-5.42,-5.69,-5.10,-4.35,-4.35,-4.35
152.26,1.07,1.08,5.45,5.45,-5.45,-5.73,-5.08,-4.38,-4.37,-4.38
153.78,1.08,1.08,5.49,5.48,-5.48,-5.76,-5.07,-4.40,-4.40,-4.40
155.32,1.08,1.08,5.51,5.51,-5.51,-5.80,-5.06,-4.43,-4.43,-4.43
156.88,1.08,1.09,5.53,5.54,-5.54,-5.83,-5.05,-4.46,-4.46,-4.45
158.44,1.09,1.09,5.58,5.58,-5.58,-5.86,-5.04,-4.48,-4.49,-4.49
160.03,1.09,1.09,5.61,5.61,-5.61,-5.90,-5.04,-4.51,-4.51,-4.52
161.63,1.09,1.09,5.64,5.64,-5.64,-5.92,-5.04,-4.54,-4.54,-4.55
163.24,1.09,1.10,5.66,5.66,-5.67,-5.95,-5.04,-4.57,-4.57,-4.57
164.88,1.10,1.10,5.69,5.69,-5.70,-5.98,-5.04,-4.59,-4.60,-4.59
166.53,1.10,1.10,5.72,5.72,-5.73,-6.00,-5.05,-4.62,-4.62,-4.62
168.19,1.10,1.10,5.76,5.76,-5.75,-6.03,-5.06,-4.65,-4.65,-4.66
169.87,1.10,1.10,5.79,5.79,-5.79,-6.05,-5.08,-4.68,-4.68,-4.69
171.57,1.10,1.10,5.81,5.81,-5.82,-6.07,-5.10,-4.71,-4.71,-4.71
173.29,1.10,1.10,5.84,5.84,-5.85,-6.09,-5.12,-4.75,-4.74,-4.74
175.02,1.10,1.10,5.88,5.88,-5.88,-6.10,-5.15,-4.78,-4.78,-4.77
176.77,1.10,1.10,5.92,5.91,-5.91,-6.12,-5.18,-4.81,-4.81,-4.82
178.54,1.09,1.10,5.94,5.95,-5.95,-6.13,-5.22,-4.85,-4.85,-4.85
180.32,1.09,1.09,5.98,5.98,-5.98,-6.14,-5.26,-4.89,-4.89,-4.89
182.13,1.09,1.09,6.01,6.01,-6.01,-6.15,-5.30,-4.92,-4.92,-4.92
183.95,1.08,1.08,6.04,6.04,-6.04,-6.16,-5.35,-4.96,-4.96,-4.96
185.79,1.07,1.08,6.06,6.07,-6.07,-6.17,-5.40,-5.00,-4.99,-4.99
187.65,1.07,1.07,6.10,6.10,-6.09,-6.18,-5.45,-5.02,-5.03,-5.03
189.52,1.06,1.06,6.12,6.12,-6.12,-6.18,-5.51,-5.06,-5.06,-5.06
191.42,1.05,1.05,6.14,6.14,-6.14,-6.18,-5.58,-5.09,-5.09,-5.09
193.33,1.04,1.04,6.15,6.16,-6.16,-6.19,-5.64,-5.12,-5.12,-5.11
195.27,1.03,1.03,6.17,6.17,-6.18,-6.19,-5.71,-5.15,-5.15,-5.14
197.22,1.02,1.02,6.19,6.19,-6.19,-6.19,-5.78,-5.17,-5.17,-5.17
199.19,1.00,1.01,6.22,6.21,-6.21,-6.18,-5.86,-5.20,-5.20,-5.21
201.18,0.99,0.99,6.22,6.23,-6.22,-6.18,-5.94,-5.23,-5.22,-5.23
203.19,0.98,0.98,6.23,6.23,-6.23,-6.18,-6.01,-5.25,-5.25,-5.25
205.23,0.97,0.97,6.24,6.23,-6.24,-6.17,-6.10,-5.27,-5.27,-5.27
207.28,0.95,0.96,6.23,6.24,-6.25,-6.16,-6.18,-5.30,-5.29,-5.28
209.35,0.94,0.94,6.25,6.25,-6.26,-6.16,-6.26,-5.31,-5.31,-5.31
211.44,0.93,0.93,6.27,6.26,-6.26,-6.15,-6.34,-5.33,-5.33,-5.34
213.56,0.92,0.92,6.27,6.27,-6.27,-6.13,-6.43,-5.34,-5.34,-5.35
215.69,0.91,0.91,6.27,6.27,-6.27,-6.12,-6.51,-5.36,-5.36,-5.35
217.85,0.90,0.90,6.27,6.27,-6.27,-6.11,-6.59,-5.37,-5.37,-5.37
220.03,0.89,0.89,6.28,6.27,-6.28,-6.10,-6.67,-5.38,-5.38,-5.39
222.23,0.88,0.88,6.28,6.27,-6.27,-6.08,-6.74,-5.39,-5.39,-5.40
224.45,0.87,0.87,6.26,6.27,-6.27,-6.06,-6.82,-5.40,-5.40,-5.39
226.70,0.86,0.87,6.26,6.27,-6.27,-6.05,-6.88,-5.40,-5.40,-5.40
228.96,0.86,0.86,6.27,6.26,-6.26,-6.03,-6.95,-5.39,-5.40,-5.40
231.25,0.85,0.85,6.25,6.25,-6.25,-6.01,-7.00,-5.39,-5.39,-5.39
233.57,0.84,0.84,6.23,6.23,-6.23,-5.99,-7.05,-5.39,-5.39,-5.38
235.90,0.83,0.83,6.22,6.22,-6.22,-5.96,-7.09,-5.38,-5.38,-5.38
238.26,0.82,0.82,6.21,6.20,-6.20,-5.94,-7.12,-5.37,-5.37,-5.38
240.64,0.81,0.81,6.17,6.18,-6.18,-5.92,-7.14,-5.36,-5.36,-5.36
243.05,0.80,0.80,6.15,6.15,-6.15,-5.89,-7.16,-5.35,-5.35,-5.35
245.48,0.79,0.79,6.12,6.13,-6.13,-5.87,-7.16,-5.33,-5.33,-5.33
247.93,0.78,0.78,6.10,6.10,-6.10,-5.84,-7.16,-5.32,-5.32,-5.32
250.41,0.77,0.77,6.08,6.07,-6.07,-5.81,-7.14,-5.30,-5.30,-5.30
252.92,0.76,0.76,6.03,6.04,-6.04,-5.78,-7.11,-5.28,-5.28,-5.27
255.45,0.75,0.75,6.00,6.00,-6.01,-5.75,-7.07,-5.25,-5.25,-5.25
258.00,0.74,0.74,5.97,5.97,-5.97,-5.72,-7.02,-5.23,-5.23,-5.23
260.58,0.73,0.73,5.95,5.94,-5.94,-5.69,-6.96,-5.21,-5.21,-5.21
263.19,0.71,0.72,5.90,5.91,-5.90,-5.66,-6.89,-5.19,-5.19,-5.19
265.82,0.70,0.70,5.87,5.87,-5.87,-5.63,-6.81,-5.17,-5.16,-5.17
268.48,0.69,0.69,5.83,5.83,-5.83,-5.59,-6.73,-5.14,-5.14,-5.14
271.16,0.68,0.68,5.79,5.79,-5.79,-5.56,-6.63,-5.11,-5.11,-5.11
273.87,0.66,0.66,5.76,5.75,-5.75,-5.52,-6.53,-5.09,-5.09,-5.09
276.61,0.64,0.65,5.70,5.71,-5.71,-5.49,-6.42,-5.07,-5.07,-5.06
279.38,0.63,0.63,5.68,5.67,-5.67,-5.45,-6.31,-5.04,-5.04,-5.05
282.17,0.61,0.61,5.63,5.63,-5.63,-5.41,-6.19,-5.02,-5.02,-5.02
284.99,0.59,0.59,5.59,5.59,-5.58,-5.37,-6.07,-4.99,-4.99,-4.99
287.84,0.57,0.57,5.54,5.54,-5.54,-5.33,-5.94,-4.97,-4.97,-4.97
290.72,0.55,0.55,5.49,5.49,-5.49,-5.29,-5.81,-4.94,-4.94,-4.93
293.63,0.53,0.53,5.45,5.45,-5.45,-5.25,-5.68,-4.92,-4.92,-4.92
296.57,0.51,0.51,5.40,5.40,-5.40,-5.21,-5.55,-4.89,-4.89,-4.88
299.53,0.50,0.50,5.36,5.36,-5.36,-5.16,-5.41,-4.85,-4.86,-4.86
302.53,0.48,0.48,5.31,5.31,-5.31,-5.12,-5.28,-4.83,-4.83,-4.83
305.55,0.47,0.47,5.26,5.27,-5.27,-5.08,-5.14,-4.79,-4.79,-4.78
308.61,0.46,0.46,5.22,5.22,-5.22,-5.03,-5.01,-4.76,-4.76,-4.76
311.69,0.46,0.46,5.18,5.18,-5.18,-4.99,-4.88,-4.72,-4.72,-4.72
314.81,0.44,0.45,5.13,5.13,-5.13,-4.94,-4.75,-4.69,-4.69,-4.69
317.96,0.43,0.43,5.09,5.09,-5.09,-4.89,-4.62,-4.66,-4.66,-4.66
321.14,0.41,0.41,5.04,5.04,-5.04,-4.84,-4.49,-4.63,-4.63,-4.63
324.35,0.39,0.39,5.00,4.99,-4.99,-4.79,-4.36,-4.60,-4.60,-4.60
327.59,0.36,0.36,4.93,4.94,-4.93,-4.75,-4.24,-4.57,-4.57,-4.57
330.87,0.33,0.33,4.87,4.88,-4.88,-4.69,-4.11,-4.54,-4.54,-4.54
334.18,0.30,0.30,4.83,4.82,-4.81,-4.64,-3.99,-4.51,-4.52,-4.52
337.52,0.25,0.26,4.75,4.75,-4.75,-4.59,-3.87,-4.50,-4.49,-4.50
340.90,0.21,0.21,4.68,4.68,-4.68,-4.54,-3.76,-4.47,-4.47,-4.47
344.30,0.16,0.16,4.61,4.61,-4.61,-4.49,-3.64,-4.45,-4.45,-4.45
347.75,0.11,0.11,4.54,4.54,-4.54,-4.43,-3.53,-4.43,-4.43,-4.42
351.23,0.06,0.06,4.47,4.47,-4.47,-4.38,-3.42,-4.41,-4.41,-4.41
354.74,0.01,0.01,4.40,4.40,-4.40,-4.32,-3.32,-4.38,-4.39,-4.39
358.28,-0.05,-0.04,4.32,4.32,-4.32,-4.26,-3.22,-4.37,-4.37,-4.37
361.87,-0.10,-0.10,4.25,4.25,-4.25,-4.21,-3.11,-4.35,-4.35,-4.35
365.49,-0.16,-0.15,4.17,4.18,-4.18,-4.15,-3.02,-4.34,-4.33,-4.32
369.14,-0.21,-0.21,4.11,4.11,-4.11,-4.09,-2.92,-4.31,-4.31,-4.32
372.83,-0.26,-0.26,4.04,4.03,-4.03,-4.03,-2.83,-4.29,-4.29,-4.30
376.56,-0.32,-0.31,3.96,3.96,-3.96,-3.97,-2.73,-4.28,-4.27,-4.28
380.33,-0.37,-0.37,3.88,3.88,-3.88,-3.91,-2.65,-4.25,-4.25,-4.25
384.13,-0.43,-0.42,3.80,3.81,-3.81,-3.84,-2.56,-4.24,-4.23,-4.23
387.97,-0.48,-0.48,3.74,3.73,-3.73,-3.78,-2.47,-4.21,-4.21,-4.21
391.85,-0.54,-0.54,3.66,3.65,-3.66,-3.72,-2.39,-4.19,-4.19,-4.20
395.77,-0.60,-0.59,3.57,3.58,-3.58,-3.65,-2.31,-4.18,-4.17,-4.17
399.73,-0.65,-0.65,3.50,3.50,-3.50,-3.58,-2.23,-4.14,-4.15,-4.15
403.72,-0.71,-0.71,3.42,3.42,-3.42,-3.52,-2.16,-4.12,-4.13,-4.13
407.76,-0.78,-0.77,3.33,3.34,-3.33,-3.45,-2.09,-4.11,-4.11,-4.11
411.84,-0.84,-0.84,3.24,3.25,-3.25,-3.38,-2.01,-4.09,-4.09,-4.08
415.96,-0.90,-0.90,3.17,3.16,-3.16,-3.31,-1.95,-4.06,-4.07,-4.06
420.12,-0.97,-0.97,3.08,3.07,-3.08,-3.23,-1.88,-4.04,-4.04,-4.04
424.32,-1.04,-1.03,2.98,2.99,-2.99,-3.16,-1.81,-4.03,-4.02,-4.02
428.56,-1.10,-1.10,2.90,2.90,-2.90,-3.09,-1.75,-4.00,-4.00,-4.00
432.85,-1.17,-1.17,2.81,2.81,-2.81,-3.01,-1.69,-3.98,-3.98,-3.98
437.18,-1.24,-1.23,2.71,2.72,-2.72,-2.93,-1.63,-3.95,-3.95,-3.95
441.55,-1.30,-1.30,2.62,2.62,-2.62,-2.85,-1.58,-3.92,-3.92,-3.92
445.96,-1.37,-1.37,2.53,2.53,-2.52,-2.77,-1.52,-3.89,-3.90,-3.90
450.42,-1.45,-1.44,2.43,2.43,-2.43,-2.69,-1.47,-3.87,-3.87,-3.88
454.93,-1.52,-1.52,2.33,2.33,-2.33,-2.60,-1.42,-3.84,-3.85,-3.84
459.48,-1.60,-1.60,2.23,2.22,-2.23,-2.51,-1.37,-3.82,-3.82,-3.82
464.07,-1.67,-1.67,2.13,2.12,-2.13,-2.43,-1.33,-3.79,-3.79,-3.79
468.71,-1.74,-1.74,2.02,2.02,-2.03,-2.33,-1.29,-3.76,-3.77,-3.76
473.40,-1.81,-1.81,1.93,1.93,-1.93,-2.24,-1.25,-3.74,-3.73,-3.74
478.13,-1.88,-1.88,1.83,1.83,-1.83,-2.15,-1.21,-3.71,-3.71,-3.71
