frequency,raw,error,smoothed,error_smoothed,equalization,parametric_eq,fixed_band_eq,equalized_raw,equalized_smoothed,target
20.00,-20.78,-23.99,-20.77,-23.99,6.00,6.52,2.74,-14.78,-14.77,3.21
20.20,-20.66,-23.92,-20.66,-23.92,6.00,6.52,2.82,-14.66,-14.66,3.26
20.40,-20.53,-23.85,-20.54,-23.85,6.00,6.52,2.89,-14.53,-14.54,3.31
20.61,-20.42,-23.76,-20.42,-23.77,6.00,6.51,2.98,-14.42,-14.42,3.34
20.81,-20.29,-23.69,-20.30,-23.69,6.00,6.51,3.06,-14.29,-14.30,3.39
21.02,-20.18,-23.61,-20.17,-23.60,6.00,6.51,3.15,-14.18,-14.17,3.43
21.23,-20.05,-23.50,-20.05,-23.50,6.00,6.51,3.24,-14.05,-14.05,3.45
21.44,-19.92,-23.39,-19.92,-23.39,6.00,6.51,3.33,-13.92,-13.92,3.47
21.66,-19.80,-23.29,-19.79,-23.28,6.00,6.50,3.43,-13.80,-13.79,3.49
21.87,-19.66,-23.16,-19.67,-23.17,6.00,6.50,3.52,-13.66,-13.67,3.50
22.09,-19.54,-23.06,-19.54,-23.06,6.00,6.50,3.62,-13.54,-13.54,3.52
22.31,-19.41,-22.94,-19.41,-22.94,6.00,6.49,3.73,-13.41,-13.41,3.53
22.54,-19.29,-22.81,-19.29,-22.82,6.00,6.49,3.83,-13.29,-13.29,3.53
22.76,-19.15,-22.68,-19.16,-22.68,6.00,6.49,3.94,-13.15,-13.16,3.53
22.99,-19.03,-22.54,-19.02,-22.54,6.00,6.49,4.05,-13.03,-13.02,3.51
23.22,-18.88,-22.39,-18.88,-22.39,6.00,6.48,4.17,-12.88,-12.88,3.51
23.45,-18.72,-22.24,-18.73,-22.24,6.00,6.48,4.28,-12.72,-12.73,3.51
23.69,-18.58,-22.10,-18.58,-22.10,6.00,6.48,4.40,-12.58,-12.58,3.52
23.92,-18.43,-21.96,-18.43,-21.96,6.00,6.47,4.52,-12.43,-12.43,3.52
24.16,-18.28,-21.82,-18.28,-21.82,6.00,6.47,4.65,-12.28,-12.28,3.53
24.40,-18.13,-21.67,-18.13,-21.66,6.00,6.47,4.77,-12.13,-12.13,3.54
24.65,-17.99,-21.52,-17.98,-21.51,6.00,6.46,4.90,-11.99,-11.98,3.53
24.89,-17.83,-21.36,-17.85,-21.38,6.00,6.46,5.03,-11.83,-11.85,3.53
25.14,-17.72,-21.25,-17.73,-21.26,6.00,6.46,5.16,-11.72,-11.73,3.53
25.39,-17.63,-21.17,-17.63,-21.16,6.00,6.45,5.29,-11.63,-11.63,3.54
25.65,-17.54,-21.07,-17.54,-21.07,6.00,6.45,5.43,-11.54,-11.54,3.54
25.91,-17.45,-20.97,-17.44,-20.96,6.00,6.44,5.56,-11.45,-11.44,3.52
26.16,-17.31,-20.84,-17.31,-20.83,6.00,6.44,5.69,-11.31,-11.31,3.52
26.43,-17.16,-20.68,-17.16,-20.68,6.00,6.44,5.83,-11.16,-11.16,3.52
26.69,-17.00,-20.52,-17.00,-20.53,6.00,6.43,5.96,-11.00,-11.00,3.52
26.96,-16.85,-20.38,-16.85,-20.38,6.00,6.43,6.09,-10.85,-10.85,3.53
27.23,-16.71,-20.24,-16.70,-20.23,6.00,6.42,6.22,-10.71,-10.70,3.53
27.50,-16.57,-20.09,-16.57,-20.09,6.00,6.42,6.34,-10.57,-10.57,3.53
27.77,-16.42,-19.94,-16.43,-19.94,6.00,6.41,6.46,-10.42,-10.43,3.52
28.05,-16.28,-19.80,-16.28,-19.79,6.00,6.41,6.58,-10.28,-10.28,3.51
28.33,-16.11,-19.62,-16.11,-19.62,6.00,6.40,6.70,-10.11,-10.11,3.50
28.62,-15.95,-19.45,-15.95,-19.45,6.00,6.40,6.81,-9.95,-9.95,3.50
28.90,-15.77,-19.28,-15.78,-19.29,6.00,6.39,6.90,-9.77,-9.78,3.51
29.19,-15.64,-19.13,-15.64,-19.14,6.00,6.39,7.00,-9.64,-9.64,3.50
29.48,-15.50,-19.02,-15.50,-19.01,6.00,6.38,7.08,-9.50,-9.50,3.52
29.78,-15.38,-18.88,-15.38,-18.89,6.00,6.38,7.16,-9.38,-9.38,3.50
30.08,-15.26,-18.77,-15.25,-18.76,6.00,6.37,7.23,-9.26,-9.25,3.51
30.38,-15.13,-18.63,-15.13,-18.63,6.00,6.37,7.29,-9.13,-9.13,3.50
30.68,-15.00,-18.49,-15.00,-18.50,6.00,6.36,7.33,-9.00,-9.00,3.50
30.99,-14.87,-18.36,-14.87,-18.36,6.00,6.35,7.37,-8.87,-8.87,3.50
31.30,-14.74,-18.23,-14.74,-18.23,6.00,6.35,7.40,-8.74,-8.74,3.49
31.61,-14.61,-18.10,-14.61,-18.10,6.00,6.34,7.42,-8.61,-8.61,3.49
31.93,-14.48,-17.97,-14.48,-17.96,6.00,6.33,7.42,-8.48,-8.48,3.49
32.24,-14.34,-17.82,-14.35,-17.83,6.00,6.33,7.42,-8.34,-8.35,3.48
32.57,-14.23,-17.71,-14.22,-17.70,6.00,6.32,7.40,-8.23,-8.22,3.48
32.89,-14.09,-17.58,-14.09,-17.57,6.00,6.31,7.38,-8.09,-8.09,3.48
33.22,-13.95,-17.42,-13.95,-17.43,6.00,6.31,7.35,-7.95,-7.95,3.47
33.55,-13.80,-17.27,-13.81,-17.27,6.00,6.30,7.31,-7.80,-7.81,3.47
33.89,-13.66,-17.11,-13.65,-17.11,6.00,6.29,7.26,-7.66,-7.65,3.45
34.23,-13.50,-16.96,-13.49,-16.95,6.00,6.28,7.20,-7.50,-7.49,3.46
34.57,-13.34,-16.78,-13.34,-16.79,6.00,6.27,7.14,-7.34,-7.34,3.45
34.92,-13.18,-16.62,-13.18,-16.63,6.00,6.27,7.08,-7.18,-7.18,3.44
35.27,-13.04,-16.48,-13.03,-16.47,6.00,6.26,7.01,-7.04,-7.03,3.44
35.62,-12.90,-16.33,-12.89,-16.33,6.00,6.25,6.94,-6.90,-6.89,3.44
35.97,-12.75,-16.19,-12.76,-16.20,6.00,6.24,6.86,-6.75,-6.76,3.43
36.33,-12.64,-16.08,-12.65,-16.08,6.00,6.23,6.78,-6.64,-6.65,3.44
36.70,-12.53,-15.95,-12.52,-15.95,6.00,6.22,6.70,-6.53,-6.52,3.43
37.06,-12.40,-15.83,-12.39,-15.82,6.00,6.21,6.62,-6.40,-6.39,3.42
37.43,-12.22,-15.66,-12.23,-15.66,6.00,6.20,6.55,-6.22,-6.23,3.44
37.81,-12.06,-15.49,-12.07,-15.50,6.00,6.19,6.47,-6.06,-6.07,3.43
38.19,-11.91,-15.34,-11.92,-15.35,6.00,6.18,6.39,-5.91,-5.92,3.43
38.57,-11.79,-15.22,-11.78,-15.22,6.00,6.17,6.32,-5.79,-5.78,3.43
38.95,-11.65,-15.09,-11.64,-15.07,6.00,6.16,6.24,-5.65,-5.64,3.44
39.34,-11.48,-14.92,-11.48,-14.92,6.00,6.15,6.17,-5.48,-5.48,3.43
39.74,-11.31,-14.74,-11.31,-14.74,6.00,6.14,6.10,-5.31,-5.31,3.43
40.14,-11.14,-14.57,-11.14,-14.58,6.00,6.12,6.04,-5.14,-5.14,3.43
40.54,-11.00,-14.42,-10.99,-14.42,6.00,6.11,5.98,-5.00,-4.99,3.43
40.94,-10.85,-14.28,-10.85,-14.28,6.00,6.10,5.92,-4.85,-4.85,3.42
41.35,-10.73,-14.14,-10.72,-14.14,6.00,6.09,5.87,-4.73,-4.72,3.42
41.76,-10.59,-14.00,-10.60,-14.01,6.00,6.07,5.82,-4.59,-4.60,3.41
42.18,-10.47,-13.89,-10.48,-13.89,6.00,6.06,5.77,-4.47,-4.48,3.41
42.60,-10.36,-13.76,-10.37,-13.77,6.00,6.05,5.73,-4.36,-4.37,3.40
43.03,-10.26,-13.65,-10.23,-13.62,6.00,6.03,5.69,-4.26,-4.23,3.39
43.46,-10.08,-13.46,-10.08,-13.46,6.00,6.02,5.66,-4.08,-4.08,3.38
43.90,-9.91,-13.26,-9.92,-13.28,6.00,6.01,5.63,-3.91,-3.92,3.36
44.33,-9.75,-13.09,-9.76,-13.10,6.00,5.99,5.60,-3.75,-3.76,3.34
44.78,-9.61,-12.93,-9.60,-12.92,6.00,5.98,5.58,-3.61,-3.60,3.32
45.23,-9.45,-12.76,-9.44,-12.74,6.00,5.97,5.57,-3.45,-3.44,3.31
45.68,-9.27,-12.56,-9.28,-12.57,6.00,5.95,5.55,-3.27,-3.28,3.29
46.13,-9.11,-12.39,-9.13,-12.41,6.00,5.94,5.55,-3.11,-3.13,3.27
46.60,-9.01,-12.28,-9.00,-12.26,6.00,5.92,5.54,-3.01,-3.00,3.27
47.06,-8.89,-12.14,-8.89,-12.15,6.00,5.91,5.54,-2.89,-2.89,3.25
47.53,-8.76,-12.01,-8.77,-12.02,6.00,5.90,5.55,-2.76,-2.77,3.24
48.01,-8.64,-11.88,-8.62,-11.85,6.00,5.88,5.55,-2.64,-2.62,3.24
48.49,-8.45,-11.67,-8.45,-11.68,6.00,5.87,5.57,-2.45,-2.45,3.22
48.97,-8.26,-11.47,-8.27,-11.47,6.00,5.85,5.58,-2.26,-2.27,3.20
49.46,-8.09,-11.28,-8.09,-11.27,6.00,5.84,5.60,-2.09,-2.09,3.18
49.96,-7.93,-11.09,-7.94,-11.11,6.00,5.83,5.62,-1.93,-1.94,3.16
50.46,-7.81,-10.96,-7.81,-10.96,6.00,5.82,5.64,-1.81,-1.81,3.16
50.96,-7.69,-10.83,-7.66,-10.80,6.00,5.81,5.67,-1.69,-1.66,3.14
51.47,-7.51,-10.63,-7.51,-10.63,6.00,5.80,5.69,-1.51,-1.51,3.12
51.99,-7.33,-10.44,-7.32,-10.43,6.00,5.79,5.72,-1.33,-1.32,3.11
52.51,-7.14,-10.24,-7.13,-10.24,6.00,5.78,5.75,-1.14,-1.13,3.10
53.03,-6.95,-10.05,-6.97,-10.07,6.00,5.78,5.78,-0.95,-0.97,3.10
53.56,-6.84,-9.92,-6.83,-9.91,6.00,5.77,5.81,-0.84,-0.83,3.08
54.10,-6.72,-9.79,-6.70,-9.77,6.00,5.77,5.84,-0.72,-0.70,3.07
54.64,-6.58,-9.63,-6.58,-9.64,6.00,5.77,5.86,-0.58,-0.58,3.05
55.18,-6.44,-9.49,-6.46,-9.50,6.00,5.78,5.89,-0.44,-0.46,3.05
55.74,-6.35,-9.38,-6.33,-9.37,6.00,5.78,5.91,-0.35,-0.33,3.03
56.29,-6.19,-9.22,-6.19,-9.21,6.00,5.80,5.93,-0.19,-0.19,3.02
56.86,-6.02,-9.02,-6.02,-9.02,6.00,5.81,5.95,-0.02,-0.02,3.00
57.42,-5.82,-8.80,-5.83,-8.81,6.00,5.83,5.96,0.18,0.17,2.98
58.00,-5.64,-8.60,-5.63,-8.59,6.00,5.85,5.97,0.36,0.37,2.97
58.58,-5.44,-8.39,-5.45,-8.40,6.00,5.88,5.97,0.56,0.55,2.96
59.16,-5.27,-8.21,-5.30,-8.23,6.00,5.91,5.96,0.73,0.70,2.94
59.76,-5.19,-8.10,-5.18,-8.09,6.00,5.94,5.95,0.81,0.82,2.91
60.35,-5.06,-7.94,-5.06,-7.94,6.00,5.98,5.93,0.94,0.94,2.87
60.96,-4.94,-7.78,-4.91,-7.75,6.00,6.01,5.91,1.06,1.09,2.84
61.57,-4.74,-7.53,-4.74,-7.54,6.00,6.03,5.87,1.26,1.26,2.80
62.18,-4.55,-7.31,-4.57,-7.33,6.00,6.05,5.83,1.45,1.43,2.75
62.80,-4.41,-7.12,-4.42,-7.13,6.02,6.05,5.78,1.60,1.60,2.71
63.43,-4.30,-6.96,-4.30,-6.96,6.03,6.04,5.72,1.74,1.74,2.66
64.07,-4.19,-6.80,-4.18,-6.80,6.04,6.00,5.65,1.86,1.86,2.62
64.71,-4.05,-6.62,-4.03,-6.61,6.03,5.94,5.57,1.99,2.00,2.57
65.35,-3.87,-6.41,-3.87,-6.41,6.00,5.86,5.49,2.13,2.13,2.53
66.01,-3.69,-6.17,-3.71,-6.19,5.94,5.76,5.40,2.25,2.23,2.49
66.67,-3.56,-5.99,-3.54,-5.98,5.84,5.63,5.30,2.29,2.30,2.44
67.33,-3.39,-5.78,-3.38,-5.77,5.72,5.48,5.19,2.32,2.34,2.39
68.01,-3.21,-5.55,-3.22,-5.56,5.56,5.32,5.08,2.35,2.34,2.35
68.69,-3.05,-5.34,-3.05,-5.34,5.37,5.15,4.96,2.33,2.32,2.30
69.37,-2.88,-5.13,-2.88,-5.13,5.16,4.97,4.84,2.28,2.28,2.24
70.07,-2.73,-4.92,-2.72,-4.91,4.94,4.80,4.71,2.22,2.23,2.19
70.77,-2.55,-4.69,-2.55,-4.70,4.72,4.61,4.58,2.17,2.16,2.15
71.48,-2.40,-4.49,-2.40,-4.49,4.50,4.43,4.44,2.10,2.09,2.09
72.19,-2.27,-4.29,-2.27,-4.30,4.31,4.25,4.30,2.04,2.04,2.03
72.91,-2.15,-4.13,-2.14,-4.11,4.12,4.08,4.15,1.97,1.98,1.97
73.64,-2.01,-3.92,-2.00,-3.92,3.94,3.90,4.01,1.93,1.94,1.91
74.38,-1.88,-3.73,-1.90,-3.75,3.76,3.73,3.86,1.88,1.86,1.86
75.12,-1.78,-3.57,-1.80,-3.59,3.58,3.55,3.71,1.81,1.79,1.80
75.87,-1.73,-3.47,-1.69,-3.44,3.40,3.38,3.56,1.67,1.71,1.74
76.63,-1.57,-3.26,-1.57,-3.25,3.22,3.21,3.41,1.65,1.65,1.69
77.40,-1.41,-3.04,-1.42,-3.05,3.04,3.04,3.26,1.64,1.62,1.64
78.17,-1.24,-2.82,-1.26,-2.84,2.86,2.87,3.11,1.61,1.60,1.58
78.95,-1.11,-2.66,-1.12,-2.66,2.68,2.69,2.96,1.56,1.56,1.54
79.74,-1.00,-2.49,-0.99,-2.49,2.50,2.52,2.81,1.49,1.50,1.49
80.54,-0.88,-2.32,-0.87,-2.31,2.31,2.35,2.66,1.44,1.45,1.45
81.35,-0.74,-2.13,-0.74,-2.14,2.14,2.18,2.50,1.40,1.40,1.39
82.16,-0.61,-1.95,-0.63,-1.97,1.97,2.00,2.36,1.36,1.34,1.35
82.98,-0.53,-1.83,-0.51,-1.81,1.81,1.83,2.21,1.28,1.29,1.31
83.81,-0.42,-1.67,-0.39,-1.65,1.65,1.66,2.06,1.23,1.25,1.25
84.65,-0.27,-1.47,-0.27,-1.48,1.49,1.49,1.91,1.22,1.22,1.20
85.50,-0.14,-1.30,-0.16,-1.32,1.33,1.33,1.76,1.19,1.17,1.17
86.35,-0.06,-1.17,-0.05,-1.17,1.17,1.17,1.62,1.11,1.11,1.12
87.22,0.01,-1.05,0.04,-1.03,1.01,1.01,1.47,1.02,1.05,1.07
88.09,0.15,-0.86,0.15,-0.87,0.85,0.86,1.33,1.01,1.00,1.02
88.97,0.26,-0.70,0.27,-0.69,0.70,0.72,1.18,0.96,0.97,0.97
89.86,0.40,-0.51,0.39,-0.52,0.55,0.58,1.04,0.95,0.94,0.91
90.76,0.49,-0.37,0.48,-0.38,0.39,0.45,0.90,0.89,0.88,0.86
91.66,0.55,-0.26,0.56,-0.25,0.24,0.33,0.76,0.80,0.81,0.82
92.58,0.62,-0.13,0.64,-0.12,0.10,0.21,0.62,0.72,0.74,0.76
93.51,0.74,0.03,0.74,0.03,-0.04,0.09,0.48,0.70,0.70,0.71
94.44,0.86,0.20,0.85,0.19,-0.18,-0.02,0.34,0.68,0.67,0.67
95.39,0.95,0.33,0.95,0.33,-0.31,-0.13,0.20,0.64,0.63,0.62
96.34,1.02,0.46,1.02,0.45,-0.44,-0.23,0.07,0.58,0.58,0.57
97.30,1.06,0.54,1.09,0.56,-0.57,-0.34,-0.07,0.50,0.52,0.52
98.28,1.16,0.69,1.14,0.67,-0.69,-0.44,-0.20,0.48,0.46,0.48
99.26,1.21,0.78,1.22,0.79,-0.79,-0.55,-0.33,0.42,0.43,0.43
100.25,1.26,0.88,1.29,0.90,-0.89,-0.66,-0.47,0.38,0.41,0.39
101.25,1.37,1.03,1.34,1.00,-0.97,-0.76,-0.60,0.40,0.36,0.34
102.27,1.36,1.07,1.36,1.07,-1.05,-0.87,-0.72,0.31,0.31,0.29
103.29,1.35,1.12,1.37,1.13,-1.13,-0.98,-0.85,0.23,0.25,0.24
104.32,1.36,1.16,1.37,1.17,-1.20,-1.09,-0.98,0.17,0.17,0.20
105.37,1.40,1.25,1.39,1.24,-1.26,-1.20,-1.10,0.15,0.13,0.16
106.42,1.40,1.29,1.42,1.31,-1.31,-1.31,-1.22,0.09,0.10,0.11
107.48,1.43,1.38,1.43,1.37,-1.36,-1.41,-1.34,0.07,0.07,0.05
108.56,1.43,1.44,1.43,1.43,-1.41,-1.52,-1.45,0.03,0.02,-0.00
109.64,1.41,1.46,1.42,1.47,-1.45,-1.63,-1.56,-0.04,-0.03,-0.05
110.74,1.39,1.50,1.39,1.50,-1.49,-1.73,-1.67,-0.10,-0.10,-0.10
111.85,1.37,1.52,1.38,1.53,-1.54,-1.84,-1.77,-0.16,-0.16,-0.14
112.97,1.36,1.57,1.37,1.57,-1.58,-1.94,-1.87,-0.21,-0.21,-0.21
114.10,1.36,1.62,1.36,1.61,-1.62,-2.03,-1.97,-0.26,-0.26,-0.25
115.24,1.36,1.66,1.36,1.66,-1.67,-2.12,-2.05,-0.31,-0.32,-0.30
116.39,1.36,1.72,1.37,1.71,-1.73,-2.21,-2.14,-0.37,-0.36,-0.35
117.55,1.37,1.76,1.40,1.78,-1.79,-2.30,-2.22,-0.41,-0.39,-0.38
118.73,1.44,1.87,1.43,1.85,-1.85,-2.38,-2.29,-0.40,-0.42,-0.43
119.92,1.47,1.93,1.46,1.92,-1.91,-2.45,-2.35,-0.43,-0.44,-0.45
121.12,1.48,1.98,1.49,1.98,-1.96,-2.52,-2.42,-0.47,-0.47,-0.49
122.33,1.49,2.02,1.50,2.02,-2.01,-2.58,-2.47,-0.51,-0.51,-0.53
123.55,1.50,2.05,1.50,2.05,-2.05,-2.63,-2.52,-0.55,-0.55,-0.55
124.79,1.50,2.08,1.51,2.09,-2.10,-2.68,-2.56,-0.59,-0.59,-0.58
126.03,1.51,2.12,1.51,2.12,-2.14,-2.73,-2.59,-0.62,-0.62,-0.61
127.29,1.52,2.15,1.52,2.16,-2.17,-2.76,-2.62,-0.65,-0.65,-0.63
128.57,1.52,2.19,1.53,2.19,-2.21,-2.79,-2.64,-0.68,-0.68,-0.67
129.85,1.53,2.23,1.53,2.23,-2.23,-2.81,-2.65,-0.70,-0.70,-0.70
131.15,1.53,2.26,1.54,2.27,-2.25,-2.83,-2.66,-0.72,-0.71,-0.73
132.46,1.54,2.30,1.55,2.30,-2.27,-2.84,-2.66,-0.72,-0.72,-0.75
133.79,1.54,2.32,1.53,2.31,-2.28,-2.85,-2.66,-0.73,-0.75,-0.78
135.12,1.49,2.31,1.49,2.30,-2.28,-2.85,-2.65,-0.79,-0.79,-0.82
136.48,1.43,2.27,1.43,2.27,-2.29,-2.85,-2.63,-0.86,-0.86,-0.83
137.84,1.36,2.23,1.38,2.25,-2.29,-2.83,-2.61,-0.93,-0.91,-0.87
139.22,1.35,2.25,1.36,2.26,-2.29,-2.82,-2.59,-0.94,-0.93,-0.90
140.61,1.36,2.30,1.36,2.28,-2.29,-2.80,-2.57,-0.93,-0.93,-0.93
142.02,1.36,2.31,1.36,2.31,-2.29,-2.78,-2.54,-0.92,-0.92,-0.94
143.44,1.36,2.34,1.35,2.33,-2.29,-2.75,-2.50,-0.93,-0.94,-0.98
144.87,1.30,2.32,1.31,2.32,-2.30,-2.72,-2.47,-0.99,-0.99,-1.02
146.32,1.26,2.32,1.26,2.31,-2.31,-2.69,-2.43,-1.05,-1.05,-1.06
147.78,1.19,2.28,1.21,2.30,-2.33,-2.65,-2.40,-1.13,-1.12,-1.08
149.26,1.16,2.30,1.17,2.31,-2.34,-2.61,-2.36,-1.18,-1.17,-1.13
150.75,1.15,2.35,1.14,2.33,-2.36,-2.58,-2.32,-1.20,-1.22,-1.20
152.26,1.12,2.39,1.12,2.38,-2.38,-2.53,-2.27,-1.25,-1.26,-1.27
153.78,1.06,2.40,1.09,2.43,-2.40,-2.49,-2.23,-1.34,-1.31,-1.33
155.32,1.06,2.47,1.05,2.45,-2.44,-2.45,-2.19,-1.37,-1.39,-1.41
156.88,1.02,2.50,0.99,2.47,-2.48,-2.40,-2.15,-1.45,-1.49,-1.48
158.44,0.90,2.47,0.93,2.49,-2.51,-2.36,-2.11,-1.61,-1.58,-1.56
160.03,0.85,2.50,0.88,2.52,-2.54,-2.31,-2.07,-1.68,-1.66,-1.64
161.63,0.85,2.57,0.85,2.56,-2.56,-2.26,-2.03,-1.71,-1.71,-1.72
163.24,0.84,2.62,0.82,2.59,-2.58,-2.22,-1.99,-1.73,-1.76,-1.78
164.88,0.77,2.60,0.76,2.59,-2.58,-2.17,-1.95,-1.81,-1.82,-1.83
166.53,0.67,2.55,0.71,2.59,-2.58,-2.12,-1.91,-1.90,-1.87,-1.88
168.19,0.64,2.56,0.65,2.57,-2.56,-2.08,-1.88,-1.92,-1.91,-1.91
169.87,0.63,2.59,0.60,2.55,-2.53,-2.03,-1.84,-1.90,-1.94,-1.95
171.57,0.53,2.50,0.54,2.51,-2.50,-1.99,-1.81,-1.96,-1.96,-1.97
173.29,0.45,2.44,0.46,2.44,-2.45,-1.94,-1.78,-1.99,-1.99,-1.98
175.02,0.38,2.37,0.39,2.38,-2.39,-1.90,-1.75,-2.01,-2.01,-1.99
176.77,0.32,2.33,0.34,2.34,-2.34,-1.85,-1.72,-2.02,-2.00,-2.01
178.54,0.31,2.32,0.29,2.30,-2.29,-1.81,-1.69,-1.98,-2.00,-2.01
180.32,0.24,2.25,0.24,2.24,-2.25,-1.77,-1.66,-2.00,-2.01,-2.00
182.13,0.18,2.18,0.19,2.19,-2.21,-1.73,-1.64,-2.03,-2.03,-2.00
183.95,0.12,2.13,0.15,2.16,-2.19,-1.68,-1.61,-2.06,-2.04,-2.01
185.79,0.14,2.15,0.14,2.15,-2.17,-1.64,-1.59,-2.03,-2.04,-2.01
187.65,0.15,2.18,0.13,2.15,-2.16,-1.60,-1.57,-2.01,-2.04,-2.03
189.52,0.10,2.14,0.12,2.16,-2.15,-1.56,-1.55,-2.05,-2.03,-2.04
191.42,0.08,2.14,0.10,2.15,-2.14,-1.53,-1.53,-2.05,-2.04,-2.06
193.33,0.08,2.16,0.05,2.13,-2.11,-1.49,-1.52,-2.02,-2.06,-2.08
195.27,-0.01,2.09,0.01,2.11,-2.07,-1.45,-1.50,-2.07,-2.06,-2.10
197.22,-0.07,2.05,-0.05,2.07,-2.02,-1.42,-1.49,-2.09,-2.07,-2.11
199.19,-0.12,2.03,-0.15,1.99,-1.97,-1.38,-1.47,-2.09,-2.12,-2.14
201.18,-0.25,1.91,-0.26,1.90,-1.92,-1.35,-1.46,-2.17,-2.18,-2.16
203.19,-0.40,1.78,-0.36,1.81,-1.87,-1.31,-1.45,-2.26,-2.23,-2.17
205.23,-0.46,1.74,-0.44,1.75,-1.82,-1.28,-1.44,-2.28,-2.26,-2.20
207.28,-0.46,1.75,-0.46,1.76,-1.78,-1.25,-1.43,-2.23,-2.23,-2.20
209.35,-0.46,1.77,-0.46,1.77,-1.74,-1.22,-1.42,-2.20,-2.20,-2.23
211.44,-0.47,1.80,-0.50,1.75,-1.71,-1.19,-1.41,-2.18,-2.22,-2.26
213.56,-0.59,1.68,-0.56,1.71,-1.69,-1.16,-1.41,-2.27,-2.25,-2.27
215.69,-0.66,1.62,-0.63,1.65,-1.65,-1.13,-1.40,-2.31,-2.28,-2.28
217.85,-0.67,1.63,-0.69,1.61,-1.61,-1.10,-1.39,-2.28,-2.30,-2.29
220.03,-0.73,1.58,-0.73,1.58,-1.57,-1.07,-1.38,-2.29,-2.30,-2.30
222.23,-0.80,1.53,-0.79,1.53,-1.51,-1.05,-1.38,-2.30,-2.30,-2.33
224.45,-0.87,1.45,-0.87,1.45,-1.45,-1.02,-1.37,-2.32,-2.32,-2.32
226.70,-0.94,1.38,-0.95,1.37,-1.39,-0.99,-1.36,-2.33,-2.34,-2.32
228.96,-1.03,1.28,-1.01,1.30,-1.33,-0.97,-1.35,-2.36,-2.34,-2.31
231.25,-1.06,1.24,-1.04,1.26,-1.26,-0.94,-1.35,-2.32,-2.31,-2.30
233.57,-1.07,1.22,-1.07,1.22,-1.20,-0.92,-1.34,-2.26,-2.27,-2.29
235.90,-1.09,1.19,-1.11,1.17,-1.13,-0.89,-1.33,-2.22,-2.25,-2.28
238.26,-1.17,1.10,-1.18,1.08,-1.08,-0.87,-1.32,-2.24,-2.26,-2.27
240.64,-1.30,0.95,-1.25,0.99,-1.02,-0.85,-1.31,-2.32,-2.28,-2.25
243.05,-1.31,0.91,-1.29,0.93,-0.97,-0.83,-1.29,-2.27,-2.26,-2.22
245.48,-1.29,0.91,-1.30,0.89,-0.91,-0.80,-1.28,-2.19,-2.21,-2.20
247.93,-1.28,0.89,-1.30,0.87,-0.84,-0.78,-1.27,-2.12,-2.14,-2.16
250.41,-1.36,0.80,-1.32,0.82,-0.78,-0.76,-1.25,-2.13,-2.10,-2.15
252.92,-1.36,0.76,-1.37,0.76,-0.72,-0.74,-1.23,-2.08,-2.09,-2.12
255.45,-1.42,0.68,-1.43,0.67,-0.67,-0.72,-1.21,-2.08,-2.10,-2.10
258.00,-1.48,0.60,-1.49,0.59,-0.61,-0.70,-1.20,-2.08,-2.09,-2.07
260.58,-1.57,0.49,-1.53,0.52,-0.54,-0.68,-1.18,-2.10,-2.07,-2.06
263.19,-1.55,0.48,-1.53,0.50,-0.47,-0.66,-1.15,-2.02,-2.00,-2.03
265.82,-1.50,0.52,-1.53,0.48,-0.44,-0.64,-1.13,-1.93,-1.96,-2.01
268.48,-1.50,0.49,-1.53,0.45,-0.44,-0.62,-1.11,-1.94,-1.97,-1.99
271.16,-1.57,0.39,-1.55,0.41,-0.49,-0.61,-1.08,-2.05,-2.03,-1.96
273.87,-1.56,0.39,-1.52,0.41,-0.57,-0.59,-1.06,-2.12,-2.09,-1.94
276.61,-1.40,0.51,-1.38,0.53,-0.67,-0.57,-1.03,-2.07,-2.05,-1.91
279.38,-1.17,0.72,-1.13,0.75,-0.79,-0.55,-1.00,-1.95,-1.92,-1.88
282.17,-0.83,1.03,-0.86,0.99,-0.90,-0.54,-0.98,-1.73,-1.77,-1.86
284.99,-0.63,1.20,-0.68,1.15,-1.01,-0.52,-0.95,-1.63,-1.69,-1.82
287.84,-0.59,1.22,-0.57,1.23,-1.10,-0.50,-0.92,-1.68,-1.67,-1.81
290.72,-0.60,1.18,-0.56,1.21,-1.16,-0.49,-0.89,-1.75,-1.71,-1.77
293.63,-0.56,1.19,-0.57,1.17,-1.17,-0.47,-0.86,-1.73,-1.74,-1.75
296.57,-0.59,1.12,-0.59,1.12,-1.15,-0.45,-0.83,-1.73,-1.74,-1.71
299.53,-0.63,1.06,-0.63,1.06,-1.09,-0.44,-0.80,-1.72,-1.72,-1.68
302.53,-0.69,0.98,-0.68,0.98,-1.02,-0.42,-0.77,-1.70,-1.69,-1.67
305.55,-0.73,0.90,-0.72,0.91,-0.94,-0.41,-0.74,-1.66,-1.66,-1.62
308.61,-0.76,0.85,-0.76,0.84,-0.86,-0.39,-0.71,-1.61,-1.62,-1.61
311.69,-0.80,0.78,-0.79,0.79,-0.78,-0.38,-0.68,-1.57,-1.57,-1.58
314.81,-0.83,0.73,-0.82,0.74,-0.70,-0.36,-0.65,-1.53,-1.52,-1.55
317.96,-0.86,0.68,-0.88,0.66,-0.64,-0.35,-0.62,-1.49,-1.52,-1.54
321.14,-0.95,0.58,-0.96,0.56,-0.57,-0.33,-0.59,-1.52,-1.53,-1.53
324.35,-1.07,0.45,-1.03,0.48,-0.51,-0.32,-0.56,-1.58,-1.55,-1.51
327.59,-1.10,0.40,-1.09,0.41,-0.45,-0.30,-0.53,-1.55,-1.54,-1.49
330.87,-1.10,0.39,-1.10,0.38,-0.39,-0.29,-0.50,-1.49,-1.50,-1.49
334.18,-1.10,0.37,-1.11,0.36,-0.34,-0.27,-0.47,-1.44,-1.45,-1.47
337.52,-1.13,0.34,-1.13,0.33,-0.30,-0.26,-0.44,-1.42,-1.43,-1.46
340.90,-1.19,0.26,-1.18,0.27,-0.26,-0.24,-0.41,-1.44,-1.44,-1.45
344.30,-1.23,0.21,-1.23,0.21,-0.22,-0.23,-0.38,-1.45,-1.45,-1.44
347.75,-1.29,0.15,-1.27,0.17,-0.18,-0.22,-0.35,-1.47,-1.45,-1.44
351.23,-1.31,0.13,-1.29,0.14,-0.14,-0.20,-0.32,-1.44,-1.43,-1.43
354.74,-1.30,0.14,-1.32,0.12,-0.10,-0.19,-0.29,-1.39,-1.41,-1.43
358.28,-1.35,0.08,-1.35,0.08,-0.06,-0.17,-0.26,-1.41,-1.41,-1.43
361.87,-1.40,0.03,-1.40,0.03,-0.03,-0.16,-0.23,-1.43,-1.43,-1.43
365.49,-1.47,-0.04,-1.45,-0.02,-0.00,-0.14,-0.20,-1.47,-1.45,-1.42
369.14,-1.48,-0.04,-1.47,-0.04,0.02,-0.13,-0.18,-1.45,-1.45,-1.43
372.83,-1.47,-0.03,-1.47,-0.04,0.04,-0.12,-0.15,-1.42,-1.43,-1.43
376.56,-1.47,-0.03,-1.48,-0.04,0.06,-0.10,-0.12,-1.41,-1.42,-1.44
380.33,-1.49,-0.06,-1.50,-0.07,0.07,-0.09,-0.09,-1.41,-1.43,-1.43
384.13,-1.54,-0.11,-1.52,-0.09,0.08,-0.07,-0.06,-1.46,-1.44,-1.43
387.97,-1.55,-0.10,-1.54,-0.10,0.08,-0.06,-0.04,-1.46,-1.46,-1.44
391.85,-1.54,-0.08,-1.54,-0.10,0.09,-0.04,-0.01,-1.45,-1.45,-1.45
395.77,-1.54,-0.09,-1.53,-0.08,0.10,-0.03,0.02,-1.44,-1.43,-1.44
399.73,-1.54,-0.08,-1.54,-0.08,0.11,-0.01,0.04,-1.43,-1.43,-1.46
403.72,-1.55,-0.09,-1.57,-0.11,0.11,-0.00,0.07,-1.43,-1.45,-1.46
407.76,-1.62,-0.15,-1.60,-0.14,0.13,0.01,0.09,-1.49,-1.48,-1.47
411.84,-1.65,-0.18,-1.63,-0.16,0.15,0.03,0.12,-1.50,-1.49,-1.47
415.96,-1.65,-0.18,-1.64,-0.17,0.17,0.04,0.14,-1.47,-1.47,-1.47
420.12,-1.65,-0.17,-1.65,-0.17,0.21,0.06,0.17,-1.44,-1.44,-1.47
424.32,-1.65,-0.17,-1.68,-0.21,0.24,0.07,0.19,-1.41,-1.44,-1.47
428.56,-1.73,-0.26,-1.73,-0.26,0.26,0.09,0.21,-1.46,-1.46,-1.46
432.85,-1.80,-0.34,-1.77,-0.31,0.29,0.11,0.24,-1.51,-1.49,-1.45
437.18,-1.80,-0.35,-1.79,-0.35,0.31,0.12,0.26,-1.49,-1.48,-1.45
