frequency,raw
20,13.07
21,13.11
22,13.15
23,13.18
24,13.22
25,13.24
26,13.27
27,13.29
28,13.31
29,13.32
30,13.34
31,13.33
32,13.32
33,13.31
34,13.31
35,13.31
36,13.31
37,13.31
38,13.31
39,13.31
40,13.31
41,13.31
42,13.31
43,13.31
44,13.31
45,13.31
46,13.31
47,13.31
48,13.31
49,13.31
50,13.31
51,13.31
52,13.31
53,13.31
54,13.31
55,13.31
56,13.31
57,13.31
58,13.31
59,13.31
60,13.31
61,13.32
62,13.33
63,13.33
64,13.33
65,13.31
66,13.29
67,13.27
68,13.24
69,13.21
70,13.17
71,13.14
72,13.10
73,13.07
74,13.04
75,13.01
76,12.99
77,12.97
78,12.96
79,12.96
80,12.97
81,12.98
82,12.98
83,12.99
84,12.99
85,13.00
86,13.01
87,13.01
88,13.00
89,12.98
90,12.96
91,12.93
92,12.90
93,12.87
94,12.84
95,12.80
96,12.77
97,12.73
98,12.71
99,12.68
100,12.66
101,12.64
102,12.64
104,12.65
105,12.67
106,12.68
107,12.68
108,12.66
109,12.64
110,12.62
111,12.59
112,12.56
113,12.52
114,12.49
115,12.45
117,12.42
118,12.39
119,12.37
120,12.36
121,12.35
123,12.33
124,12.32
125,12.31
126,12.29
128,12.27
129,12.24
130,12.21
131,12.17
133,12.15
134,12.12
135,12.10
137,12.07
138,12.03
140,12.00
141,11.97
142,11.94
144,11.91
145,11.89
147,11.87
148,11.84
150,11.82
151,11.78
153,11.75
154,11.70
156,11.66
157,11.62
159,11.58
160,11.56
162,11.55
164,11.52
165,11.49
167,11.45
169,11.40
170,11.36
172,11.31
174,11.27
175,11.23
177,11.21
179,11.18
181,11.15
183,11.11
184,11.06
186,11.01
188,10.96
190,10.93
192,10.90
194,10.87
196,10.84
198,10.80
200,10.75
202,10.71
204,10.67
206,10.62
208,10.57
210,10.53
212,10.48
214,10.44
216,10.40
218,10.35
221,10.30
223,10.24
225,10.18
227,10.13
229,10.09
232,10.05
234,10.00
236,9.94
239,9.88
241,9.82
244,9.76
246,9.73
248,9.68
251,9.63
253,9.57
256,9.51
259,9.46
261,9.42
264,9.38
266,9.34
269,9.29
272,9.23
274,9.18
277,9.14
280,9.11
283,9.06
286,9.00
288,8.94
291,8.87
294,8.82
297,8.78
300,8.74
303,8.69
306,8.62
309,8.56
312,8.51
316,8.46
319,8.42
322,8.37
325,8.31
328,8.25
332,8.20
335,8.15
338,8.09
342,8.03
345,7.97
349,7.91
352,7.84
356,7.78
359,7.72
363,7.65
366,7.59
370,7.53
374,7.46
377,7.40
381,7.34
385,7.29
389,7.23
393,7.16
397,7.09
401,7.04
405,6.98
409,6.91
413,6.83
417,6.76
421,6.70
425,6.63
430,6.56
434,6.47
438,6.39
443,6.33
447,6.27
451,6.21
456,6.13
460,6.06
465,6.01
470,5.95
474,5.87
479,5.80
484,5.74
489,5.68
494,5.61
499,5.52
504,5.45
509,5.38
514,5.31
519,5.24
524,5.16
529,5.08
535,5.00
540,4.93
545,4.86
551,4.78
556,4.69
562,4.61
568,4.53
573,4.44
579,4.35
585,4.25
591,4.18
596,4.10
602,4.01
608,3.93
615,3.86
621,3.78
627,3.69
633,3.62
639,3.55
646,3.47
652,3.38
659,3.30
665,3.23
672,3.13
679,3.04
686,2.96
692,2.88
699,2.79
706,2.69
713,2.61
721,2.54
728,2.45
735,2.36
742,2.28
750,2.20
757,2.11
765,2.02
773,1.94
780,1.87
788,1.78
796,1.69
804,1.61
812,1.54
820,1.46
828,1.38
837,1.30
845,1.23
853,1.16
862,1.09
871,1.01
879,0.94
888,0.86
897,0.79
906,0.72
915,0.64
924,0.56
933,0.48
943,0.42
952,0.34
962,0.26
971,0.18
981,0.12
991,0.06
1001,-0.01
1011,-0.08
1021,-0.14
1031,-0.20
1041,-0.25
1052,-0.31
1062,-0.37
1073,-0.42
1084,-0.47
1094,-0.54
1105,-0.61
1116,-0.66
1128,-0.72
1139,-0.76
1150,-0.81
1162,-0.86
1173,-0.90
1185,-0.92
1197,-0.94
1209,-0.96
1221,-0.97
1233,-0.98
1246,-0.98
1258,-0.98
1271,-0.97
1283,-0.96
1296,-0.96
1309,-0.96
1322,-0.97
1335,-0.98
1349,-0.98
1362,-0.98
1376,-0.97
1390,-0.96
1404,-0.93
1418,-0.91
1432,-0.88
1446,-0.84
1461,-0.82
1475,-0.79
1490,-0.77
1505,-0.73
1520,-0.69
1535,-0.65
1550,-0.61
1566,-0.57
1582,-0.53
1597,-0.50
1613,-0.48
1629,-0.45
1646,-0.43
1662,-0.41
1679,-0.38
1696,-0.35
1713,-0.32
1730,-0.29
1747,-0.25
1764,-0.22
1782,-0.20
1800,-0.18
1818,-0.15
1836,-0.11
1854,-0.08
1873,-0.06
1892,-0.04
1911,-0.02
1930,0.00
1949,0.02
1969,0.05
1988,0.07
2008,0.09
2028,0.11
2048,0.13
2069,0.15
2090,0.19
2111,0.23
2132,0.27
2153,0.32
2175,0.36
2196,0.40
2218,0.44
2240,0.48
2263,0.52
2285,0.56
2308,0.60
2331,0.65
2355,0.71
2378,0.77
2402,0.84
2426,0.90
2450,0.95
2475,1.00
2500,1.06
2525,1.12
2550,1.20
2575,1.27
2601,1.32
2627,1.37
2653,1.41
2680,1.46
2707,1.52
2734,1.57
2761,1.62
2789,1.66
2817,1.70
2845,1.74
2873,1.79
2902,1.84
2931,1.88
2960,1.92
2990,1.97
3020,2.02
3050,2.08
3080,2.13
3111,2.17
3142,2.21
3174,2.24
3206,2.26
3238,2.27
3270,2.27
3303,2.27
3336,2.26
3369,2.24
3403,2.20
3437,2.15
3471,2.09
3506,2.04
3541,1.99
3576,1.93
3612,1.87
3648,1.82
3685,1.77
3721,1.73
3759,1.70
3796,1.66
3834,1.63
3873,1.61
3911,1.61
3950,1.61
3990,1.62
4030,1.65
4070,1.68
4111,1.72
4152,1.76
4193,1.81
4235,1.86
4278,1.92
4321,1.98
4364,2.04
4407,2.10
4451,2.15
4496,2.19
4541,2.23
4586,2.25
4632,2.27
4679,2.28
4725,2.30
4773,2.31
4820,2.31
4868,2.29
4917,2.27
4966,2.26
5016,2.26
5066,2.26
5117,2.27
5168,2.28
5220,2.30
5272,2.33
5325,2.38
5378,2.44
5432,2.51
5486,2.61
5541,2.72
5596,2.85
5652,3.00
5709,3.17
5766,3.35
5823,3.55
5882,3.77
5940,4.00
6000,4.25
6060,4.52
6120,4.80
6182,5.08
6244,5.37
6306,5.65
6369,5.92
6433,6.18
6497,6.43
6562,6.64
6628,6.81
6694,6.95
6761,7.05
6828,7.10
6897,7.11
6966,7.09
7035,7.04
7106,6.95
7177,6.82
7249,6.67
7321,6.49
7394,6.30
7468,6.08
7543,5.83
7618,5.55
7694,5.24
7771,4.92
7849,4.55
7928,4.16
8007,3.72
8087,3.25
8168,2.77
8250,2.28
8332,1.77
8415,1.26
8499,0.77
8584,0.29
8670,-0.17
8757,-0.61
8845,-1.00
8933,-1.37
9022,-1.71
9113,-2.02
9204,-2.29
9296,-2.52
9389,-2.71
9483,-2.87
9577,-3.00
9673,-3.09
9770,-3.14
9868,-3.14
9966,-3.07
10066,-2.92
10167,-2.70
10268,-2.40
10371,-2.02
10475,-1.55
10579,-1.02
10685,-0.42
10792,0.23
10900,0.89
11009,1.58
11119,2.28
11230,2.96
11343,3.59
11456,4.17
11571,4.67
11686,5.10
11803,5.46
11921,5.74
12040,5.95
12161,6.12
12282,6.24
12405,6.32
12529,6.34
12655,6.31
12781,6.26
12909,6.16
13038,6.02
13168,5.82
13300,5.57
13433,5.27
13567,4.92
13703,4.48
13840,3.95
13978,3.31
14118,2.58
14259,1.72
14402,0.70
14546,-0.48
14692,-1.81
14838,-3.31
14987,-4.95
15137,-6.75
15288,-8.67
15441,-10.71
15595,-12.80
15751,-14.92
15909,-17.05
16068,-19.15
16229,-21.17
16391,-23.09
16555,-24.88
16720,-26.55
16888,-28.08
17056,-29.45
17227,-30.68
17399,-31.80
17573,-32.81
17749,-33.74
17926,-34.54
18106,-35.22
18287,-35.73
18470,-36.12
18654,-36.38
18841,-36.51
19029,-36.52
19220,-36.41
19412,-36.17
19606,-35.80
19802,-35.32
20000,-34.70
