frequency,raw,error,smoothed,error_smoothed,equalization,parametric_eq,equalized_raw,equalized_smoothed,target
20,-28.96,-30.06,-28.92,-30.02,6.00,2.50,-22.96,-22.92,1.11
21,-28.27,-29.37,-28.30,-29.40,6.00,2.87,-22.27,-22.30,1.11
22,-27.68,-28.78,-27.70,-28.80,6.00,3.28,-21.68,-21.70,1.10
23,-27.11,-28.21,-27.12,-28.22,6.00,3.73,-21.11,-21.12,1.10
24,-26.56,-27.66,-26.56,-27.66,6.00,4.20,-20.56,-20.56,1.10
25,-25.95,-27.04,-26.01,-27.11,6.00,4.69,-19.95,-20.01,1.10
26,-25.52,-26.61,-25.49,-26.58,6.00,5.18,-19.52,-19.49,1.09
27,-24.99,-26.08,-24.98,-26.07,6.00,5.65,-18.99,-18.98,1.09
28,-24.50,-25.58,-24.49,-25.57,6.00,6.09,-18.50,-18.49,1.08
29,-24.02,-25.10,-24.00,-25.08,6.00,6.45,-18.02,-18.00,1.08
30,-23.57,-24.64,-23.53,-24.61,6.00,6.74,-17.57,-17.53,1.08
31,-23.04,-24.11,-23.07,-24.14,6.00,6.92,-17.04,-17.07,1.07
32,-22.63,-23.69,-22.62,-23.68,6.00,7.01,-16.63,-16.62,1.06
33,-22.14,-23.20,-22.17,-23.23,6.00,7.01,-16.14,-16.17,1.06
34,-21.76,-22.81,-21.74,-22.79,6.00,6.95,-15.76,-15.74,1.05
35,-21.33,-22.37,-21.32,-22.36,6.00,6.85,-15.33,-15.32,1.04
36,-20.92,-21.95,-20.90,-21.94,6.00,6.72,-14.92,-14.90,1.04
37,-20.49,-21.51,-20.49,-21.52,6.00,6.59,-14.49,-14.49,1.03
38,-20.05,-21.06,-20.10,-21.11,6.00,6.46,-14.05,-14.10,1.02
39,-19.73,-20.73,-19.71,-20.71,6.00,6.34,-13.73,-13.71,1.01
40,-19.40,-20.39,-19.32,-20.32,6.00,6.25,-13.40,-13.32,1.00
41,-18.97,-19.95,-18.95,-19.94,6.00,6.18,-12.97,-12.95,0.99
42,-18.50,-19.47,-18.59,-19.56,6.00,6.14,-12.50,-12.59,0.97
43,-18.21,-19.17,-18.23,-19.19,6.00,6.12,-12.21,-12.23,0.96
44,-17.91,-18.85,-17.89,-18.83,6.00,6.13,-11.91,-11.89,0.95
45,-17.62,-18.55,-17.55,-18.48,6.00,6.16,-11.62,-11.55,0.93
46,-17.15,-18.06,-17.22,-18.14,6.00,6.22,-11.15,-11.22,0.92
47,-16.89,-17.79,-16.90,-17.80,6.00,6.29,-10.89,-10.90,0.90
48,-16.59,-17.47,-16.58,-17.46,6.00,6.38,-10.59,-10.58,0.88
49,-16.34,-17.20,-16.26,-17.13,6.00,6.49,-10.34,-10.26,0.87
50,-16.00,-16.84,-15.95,-16.79,6.00,6.61,-10.00,-9.95,0.85
51,-15.56,-16.38,-15.63,-16.46,6.00,6.74,-9.56,-9.63,0.83
52,-15.29,-16.09,-15.33,-16.13,6.00,6.87,-9.29,-9.33,0.81
53,-15.04,-15.82,-15.02,-15.81,6.00,7.01,-9.04,-9.02,0.78
54,-14.72,-15.48,-14.72,-15.48,6.00,7.14,-8.72,-8.72,0.76
55,-14.47,-15.21,-14.43,-15.17,6.00,7.27,-8.47,-8.43,0.74
56,-14.15,-14.86,-14.14,-14.86,6.00,7.38,-8.15,-8.14,0.71
57,-13.83,-14.52,-13.86,-14.55,6.00,7.48,-7.83,-7.86,0.69
58,-13.60,-14.26,-13.58,-14.25,6.00,7.56,-7.60,-7.58,0.66
59,-13.30,-13.93,-13.31,-13.95,6.00,7.62,-7.30,-7.31,0.64
60,-13.05,-13.65,-13.05,-13.66,6.00,7.65,-7.05,-7.05,0.61
61,-12.78,-13.36,-12.79,-13.37,6.00,7.65,-6.78,-6.79,0.58
62,-12.57,-13.12,-12.54,-13.08,6.00,7.63,-6.57,-6.54,0.55
63,-12.31,-12.82,-12.29,-12.80,6.00,7.58,-6.31,-6.29,0.52
64,-12.00,-12.48,-12.04,-12.52,6.00,7.50,-6.00,-6.04,0.49
65,-11.76,-12.21,-11.79,-12.25,6.00,7.39,-5.76,-5.79,0.45
66,-11.57,-11.99,-11.55,-11.97,6.00,7.27,-5.57,-5.55,0.42
67,-11.37,-11.75,-11.30,-11.69,6.00,7.12,-5.37,-5.30,0.39
68,-11.09,-11.44,-11.06,-11.41,6.00,6.96,-5.09,-5.06,0.35
69,-10.76,-11.07,-10.81,-11.13,6.00,6.79,-4.76,-4.81,0.32
70,-10.53,-10.81,-10.57,-10.85,6.00,6.60,-4.53,-4.57,0.28
71,-10.36,-10.60,-10.33,-10.58,6.00,6.41,-4.36,-4.33,0.24
72,-10.14,-10.34,-10.09,-10.30,6.00,6.22,-4.14,-4.09,0.21
73,-9.88,-10.05,-9.86,-10.03,6.00,6.02,-3.88,-3.86,0.17
74,-9.61,-9.74,-9.63,-9.76,6.00,5.82,-3.61,-3.63,0.13
75,-9.38,-9.47,-9.41,-9.50,6.00,5.62,-3.38,-3.41,0.09
76,-9.20,-9.25,-9.20,-9.25,6.00,5.43,-3.20,-3.20,0.05
77,-9.00,-9.01,-8.99,-9.01,6.00,5.24,-3.00,-2.99,0.01
78,-8.75,-8.72,-8.80,-8.77,6.00,5.05,-2.75,-2.80,-0.03
79,-8.58,-8.51,-8.60,-8.53,6.00,4.86,-2.58,-2.60,-0.07
80,-8.45,-8.34,-8.40,-8.30,6.00,4.68,-2.45,-2.40,-0.11
81,-8.28,-8.13,-8.21,-8.06,6.00,4.51,-2.28,-2.21,-0.15
82,-8.04,-7.85,-8.01,-7.82,6.00,4.34,-2.04,-2.01,-0.19
83,-7.85,-7.62,-7.81,-7.58,6.00,4.18,-1.85,-1.81,-0.23
84,-7.57,-7.29,-7.62,-7.35,6.00,4.02,-1.57,-1.62,-0.27
85,-7.36,-7.04,-7.43,-7.11,6.00,3.87,-1.36,-1.43,-0.31
86,-7.24,-6.88,-7.24,-6.88,6.00,3.72,-1.24,-1.24,-0.36
87,-7.10,-6.70,-7.06,-6.66,6.00,3.58,-1.10,-1.06,-0.40
88,-6.87,-6.43,-6.88,-6.44,6.00,3.44,-0.87,-0.88,-0.44
89,-6.69,-6.21,-6.71,-6.23,5.96,3.31,-0.73,-0.76,-0.48
90,-6.55,-6.03,-6.55,-6.03,5.87,3.18,-0.68,-0.68,-0.52
91,-6.38,-5.81,-6.38,-5.82,5.74,3.05,-0.64,-0.65,-0.56
92,-6.27,-5.66,-6.22,-5.61,5.57,2.93,-0.69,-0.65,-0.60
93,-6.11,-5.46,-6.05,-5.41,5.40,2.82,-0.71,-0.66,-0.65
94,-5.91,-5.22,-5.89,-5.21,5.21,2.71,-0.70,-0.69,-0.69
95,-5.70,-4.97,-5.73,-5.00,5.00,2.60,-0.69,-0.73,-0.73
96,-5.51,-4.74,-5.57,-4.80,4.80,2.50,-0.70,-0.77,-0.77
97,-5.36,-4.55,-5.41,-4.61,4.61,2.40,-0.75,-0.81,-0.81
98,-5.27,-4.42,-5.26,-4.41,4.41,2.30,-0.86,-0.85,-0.85
99,-5.16,-4.27,-5.10,-4.21,4.21,2.21,-0.94,-0.89,-0.89
100,-4.98,-4.05,-4.95,-4.02,4.02,2.11,-0.96,-0.93,-0.93
101,-4.84,-3.87,-4.79,-3.82,3.82,2.03,-1.02,-0.98,-0.97
102,-4.67,-3.66,-4.63,-3.61,3.61,1.94,-1.05,-1.02,-1.00
104,-4.43,-3.35,-4.48,-3.41,3.41,1.78,-1.01,-1.06,-1.08
105,-4.31,-3.19,-4.32,-3.22,3.22,1.70,-1.09,-1.10,-1.11
106,-4.15,-3.00,-4.18,-3.03,3.03,1.63,-1.12,-1.14,-1.15
107,-4.02,-2.83,-4.04,-2.85,2.85,1.56,-1.16,-1.18,-1.18
108,-3.91,-2.69,-3.90,-2.69,2.69,1.49,-1.22,-1.22,-1.22
109,-3.78,-2.53,-3.78,-2.53,2.53,1.42,-1.25,-1.25,-1.25
110,-3.63,-2.34,-3.66,-2.38,2.38,1.35,-1.25,-1.28,-1.28
111,-3.52,-2.20,-3.54,-2.23,2.23,1.29,-1.29,-1.32,-1.31
112,-3.46,-2.11,-3.42,-2.08,2.08,1.23,-1.38,-1.35,-1.34
113,-3.35,-1.97,-3.30,-1.92,1.92,1.17,-1.43,-1.38,-1.37
114,-3.22,-1.82,-3.16,-1.75,1.75,1.11,-1.46,-1.41,-1.40
115,-3.03,-1.60,-3.02,-1.58,1.58,1.06,-1.45,-1.44,-1.43
117,-2.82,-1.33,-2.87,-1.40,1.40,0.96,-1.42,-1.47,-1.48
118,-2.72,-1.21,-2.72,-1.22,1.22,0.91,-1.50,-1.50,-1.51
119,-2.59,-1.06,-2.56,-1.03,1.03,0.86,-1.56,-1.53,-1.53
120,-2.41,-0.85,-2.41,-0.85,0.85,0.81,-1.56,-1.56,-1.55
121,-2.27,-0.69,-2.26,-0.68,0.68,0.77,-1.59,-1.58,-1.57
123,-2.04,-0.42,-2.12,-0.51,0.51,0.68,-1.53,-1.61,-1.62
124,-1.95,-0.31,-1.99,-0.35,0.35,0.64,-1.60,-1.64,-1.64
125,-1.88,-0.22,-1.86,-0.20,0.20,0.61,-1.68,-1.66,-1.66
126,-1.80,-0.12,-1.74,-0.06,0.06,0.57,-1.74,-1.68,-1.67
128,-1.63,0.09,-1.62,0.08,-0.08,0.50,-1.71,-1.70,-1.71
129,-1.51,0.22,-1.51,0.22,-0.22,0.47,-1.73,-1.73,-1.73
130,-1.39,0.36,-1.40,0.35,-0.35,0.43,-1.74,-1.75,-1.75
131,-1.35,0.41,-1.29,0.48,-0.48,0.40,-1.82,-1.77,-1.76
133,-1.15,0.65,-1.19,0.60,-0.60,0.34,-1.75,-1.79,-1.80
134,-1.07,0.74,-1.10,0.71,-0.71,0.32,-1.78,-1.81,-1.81
135,-1.05,0.78,-1.01,0.82,-0.82,0.29,-1.87,-1.83,-1.82
137,-0.90,0.96,-0.93,0.92,-0.92,0.24,-1.82,-1.85,-1.86
138,-0.87,1.00,-0.86,1.01,-1.01,0.21,-1.88,-1.87,-1.87
140,-0.77,1.14,-0.80,1.10,-1.10,0.17,-1.86,-1.90,-1.90
141,-0.78,1.14,-0.74,1.17,-1.17,0.14,-1.95,-1.92,-1.92
142,-0.72,1.21,-0.69,1.25,-1.25,0.12,-1.96,-1.94,-1.93
144,-0.60,1.36,-0.64,1.32,-1.32,0.08,-1.91,-1.96,-1.96
145,-0.58,1.40,-0.59,1.39,-1.39,0.06,-1.96,-1.98,-1.97
147,-0.61,1.39,-0.54,1.45,-1.45,0.01,-2.06,-2.00,-2.00
148,-0.61,1.41,-0.50,1.52,-1.52,-0.01,-2.13,-2.02,-2.01
150,-0.37,1.68,-0.46,1.58,-1.58,-0.04,-1.95,-2.04,-2.04
151,-0.37,1.69,-0.43,1.63,-1.63,-0.06,-2.00,-2.06,-2.06
153,-0.39,1.69,-0.40,1.68,-1.68,-0.10,-2.07,-2.08,-2.08
154,-0.38,1.72,-0.38,1.72,-1.72,-0.12,-2.09,-2.10,-2.09
156,-0.38,1.74,-0.37,1.75,-1.75,-0.16,-2.12,-2.12,-2.12
157,-0.38,1.75,-0.37,1.77,-1.77,-0.18,-2.15,-2.13,-2.13
159,-0.38,1.78,-0.37,1.79,-1.79,-0.21,-2.16,-2.15,-2.15
160,-0.38,1.79,-0.37,1.80,-1.80,-0.23,-2.18,-2.17,-2.16
162,-0.38,1.81,-0.38,1.81,-1.81,-0.27,-2.19,-2.19,-2.19
164,-0.37,1.84,-0.38,1.82,-1.82,-0.31,-2.19,-2.20,-2.21
165,-0.37,1.85,-0.39,1.83,-1.83,-0.32,-2.20,-2.22,-2.22
167,-0.48,1.76,-0.39,1.84,-1.84,-0.36,-2.32,-2.23,-2.23
169,-0.38,1.87,-0.40,1.85,-1.85,-0.40,-2.22,-2.25,-2.25
170,-0.39,1.87,-0.40,1.85,-1.85,-0.42,-2.24,-2.26,-2.26
172,-0.41,1.86,-0.41,1.86,-1.86,-0.46,-2.26,-2.27,-2.27
174,-0.42,1.86,-0.42,1.86,-1.86,-0.49,-2.27,-2.28,-2.28
175,-0.43,1.86,-0.43,1.85,-1.85,-0.51,-2.28,-2.29,-2.28
177,-0.43,1.87,-0.45,1.85,-1.85,-0.55,-2.27,-2.30,-2.29
179,-0.43,1.88,-0.46,1.84,-1.84,-0.59,-2.27,-2.30,-2.30
181,-0.57,1.74,-0.48,1.83,-1.83,-0.63,-2.40,-2.31,-2.31
183,-0.54,1.78,-0.49,1.82,-1.82,-0.67,-2.36,-2.31,-2.32
184,-0.51,1.81,-0.51,1.81,-1.81,-0.69,-2.31,-2.32,-2.31
186,-0.47,1.85,-0.53,1.79,-1.79,-0.73,-2.26,-2.32,-2.32
188,-0.47,1.85,-0.54,1.78,-1.78,-0.77,-2.25,-2.32,-2.32
190,-0.57,1.76,-0.56,1.76,-1.76,-0.81,-2.33,-2.32,-2.32
192,-0.65,1.68,-0.58,1.74,-1.74,-0.85,-2.39,-2.33,-2.33
194,-0.67,1.66,-0.61,1.72,-1.72,-0.89,-2.39,-2.33,-2.33
196,-0.62,1.71,-0.63,1.70,-1.70,-0.93,-2.31,-2.33,-2.33
198,-0.61,1.72,-0.66,1.67,-1.67,-0.97,-2.28,-2.33,-2.33
200,-0.66,1.67,-0.68,1.65,-1.65,-1.01,-2.30,-2.33,-2.33
202,-0.70,1.63,-0.71,1.62,-1.62,-1.05,-2.32,-2.33,-2.33
204,-0.79,1.54,-0.74,1.59,-1.59,-1.09,-2.38,-2.33,-2.33
206,-0.79,1.54,-0.77,1.56,-1.56,-1.12,-2.35,-2.33,-2.33
208,-0.79,1.55,-0.80,1.54,-1.54,-1.16,-2.32,-2.33,-2.33
210,-0.79,1.55,-0.83,1.51,-1.51,-1.20,-2.29,-2.33,-2.33
212,-0.83,1.51,-0.85,1.48,-1.48,-1.23,-2.31,-2.33,-2.33
214,-0.96,1.38,-0.88,1.46,-1.46,-1.27,-2.41,-2.33,-2.33
216,-0.94,1.40,-0.90,1.43,-1.43,-1.30,-2.37,-2.33,-2.33
218,-0.85,1.49,-0.92,1.41,-1.41,-1.34,-2.26,-2.33,-2.33
221,-0.95,1.39,-0.95,1.39,-1.39,-1.38,-2.33,-2.33,-2.33
223,-1.01,1.33,-0.97,1.36,-1.36,-1.41,-2.37,-2.33,-2.33
225,-1.01,1.32,-1.00,1.33,-1.33,-1.44,-2.34,-2.33,-2.33
227,-0.98,1.35,-1.02,1.30,-1.30,-1.47,-2.28,-2.33,-2.33
229,-0.98,1.35,-1.05,1.27,-1.27,-1.49,-2.25,-2.33,-2.33
232,-1.10,1.23,-1.08,1.24,-1.24,-1.52,-2.34,-2.32,-2.32
234,-1.13,1.19,-1.11,1.21,-1.21,-1.54,-2.34,-2.32,-2.32
236,-1.22,1.10,-1.13,1.18,-1.18,-1.56,-2.40,-2.31,-2.31
239,-1.19,1.12,-1.15,1.16,-1.16,-1.58,-2.35,-2.31,-2.31
241,-1.12,1.19,-1.16,1.15,-1.15,-1.59,-2.26,-2.30,-2.30
244,-1.10,1.20,-1.16,1.14,-1.14,-1.60,-2.23,-2.30,-2.30
246,-1.19,1.10,-1.16,1.13,-1.13,-1.61,-2.32,-2.29,-2.29
248,-1.19,1.10,-1.15,1.13,-1.13,-1.61,-2.32,-2.28,-2.28
251,-1.17,1.11,-1.15,1.13,-1.13,-1.62,-2.29,-2.28,-2.28
253,-1.15,1.12,-1.15,1.12,-1.12,-1.62,-2.27,-2.27,-2.27
256,-1.13,1.13,-1.15,1.11,-1.11,-1.61,-2.24,-2.26,-2.26
259,-1.11,1.15,-1.16,1.09,-1.09,-1.60,-2.20,-2.25,-2.25
261,-1.17,1.08,-1.18,1.07,-1.07,-1.59,-2.24,-2.24,-2.24
264,-1.22,1.02,-1.20,1.03,-1.03,-1.58,-2.25,-2.24,-2.24
266,-1.23,1.00,-1.24,0.99,-0.99,-1.56,-2.22,-2.23,-2.23
269,-1.23,1.00,-1.27,0.95,-0.95,-1.54,-2.18,-2.22,-2.22
272,-1.29,0.93,-1.31,0.90,-0.90,-1.52,-2.19,-2.22,-2.22
274,-1.41,0.80,-1.35,0.86,-0.86,-1.50,-2.27,-2.21,-2.21
277,-1.44,0.76,-1.38,0.82,-0.82,-1.47,-2.26,-2.20,-2.20
280,-1.44,0.76,-1.41,0.79,-0.79,-1.44,-2.23,-2.20,-2.20
283,-1.44,0.75,-1.43,0.76,-0.76,-1.41,-2.20,-2.19,-2.19
286,-1.43,0.76,-1.45,0.74,-0.74,-1.38,-2.16,-2.18,-2.18
288,-1.42,0.76,-1.46,0.71,-0.71,-1.35,-2.13,-2.18,-2.18
291,-1.41,0.76,-1.48,0.69,-0.69,-1.32,-2.10,-2.17,-2.17
294,-1.50,0.67,-1.49,0.67,-0.67,-1.28,-2.17,-2.17,-2.17
297,-1.53,0.63,-1.51,0.65,-0.65,-1.24,-2.18,-2.16,-2.16
300,-1.58,0.58,-1.52,0.63,-0.63,-1.21,-2.21,-2.15,-2.15
303,-1.57,0.58,-1.53,0.62,-0.62,-1.17,-2.19,-2.15,-2.15
306,-1.55,0.60,-1.54,0.61,-0.61,-1.13,-2.15,-2.14,-2.14
309,-1.54,0.60,-1.54,0.59,-0.59,-1.09,-2.13,-2.14,-2.14
312,-1.54,0.59,-1.55,0.58,-0.58,-1.06,-2.12,-2.13,-2.13
316,-1.53,0.60,-1.57,0.56,-0.56,-1.01,-2.09,-2.13,-2.13
319,-1.53,0.59,-1.59,0.54,-0.54,-0.97,-2.06,-2.12,-2.12
322,-1.60,0.52,-1.61,0.51,-0.51,-0.94,-2.10,-2.12,-2.12
325,-1.64,0.47,-1.64,0.47,-0.47,-0.90,-2.11,-2.11,-2.11
328,-1.73,0.38,-1.67,0.44,-0.44,-0.87,-2.17,-2.11,-2.11
332,-1.74,0.37,-1.70,0.40,-0.40,-0.82,-2.14,-2.10,-2.10
335,-1.74,0.36,-1.73,0.37,-0.37,-0.79,-2.11,-2.10,-2.10
338,-1.74,0.36,-1.75,0.34,-0.34,-0.75,-2.08,-2.09,-2.09
342,-1.74,0.35,-1.77,0.32,-0.32,-0.71,-2.06,-2.09,-2.09
345,-1.77,0.32,-1.79,0.30,-0.30,-0.68,-2.07,-2.09,-2.09
349,-1.84,0.25,-1.80,0.28,-0.28,-0.64,-2.12,-2.09,-2.09
352,-1.84,0.25,-1.82,0.27,-0.27,-0.61,-2.10,-2.08,-2.08
356,-1.84,0.24,-1.83,0.25,-0.25,-0.57,-2.09,-2.08,-2.08
359,-1.83,0.25,-1.84,0.24,-0.24,-0.54,-2.06,-2.08,-2.08
363,-1.83,0.25,-1.85,0.23,-0.23,-0.50,-2.05,-2.08,-2.08
366,-1.82,0.26,-1.86,0.21,-0.21,-0.48,-2.03,-2.08,-2.08
370,-1.91,0.17,-1.87,0.20,-0.20,-0.44,-2.11,-2.07,-2.07
374,-1.91,0.17,-1.87,0.20,-0.20,-0.41,-2.10,-2.07,-2.07
377,-1.90,0.17,-1.88,0.19,-0.19,-0.38,-2.09,-2.07,-2.07
381,-1.89,0.18,-1.88,0.19,-0.19,-0.35,-2.08,-2.07,-2.07
385,-1.84,0.23,-1.88,0.19,-0.19,-0.32,-2.02,-2.06,-2.06
389,-1.88,0.18,-1.88,0.18,-0.18,-0.29,-2.06,-2.06,-2.06
393,-1.88,0.18,-1.88,0.18,-0.18,-0.26,-2.05,-2.05,-2.05
397,-1.88,0.17,-1.88,0.17,-0.17,-0.23,-2.05,-2.05,-2.05
401,-1.88,0.16,-1.88,0.16,-0.16,-0.20,-2.04,-2.04,-2.04
405,-1.88,0.15,-1.88,0.14,-0.14,-0.17,-2.02,-2.02,-2.03
409,-1.88,0.13,-1.88,0.13,-0.13,-0.15,-2.00,-2.01,-2.01
413,-1.88,0.12,-1.89,0.11,-0.11,-0.12,-1.98,-1.99,-1.99
417,-1.89,0.09,-1.89,0.09,-0.09,-0.10,-1.97,-1.97,-1.98
421,-1.89,0.07,-1.88,0.07,-0.07,-0.07,-1.95,-1.95,-1.95
425,-1.88,0.05,-1.88,0.05,-0.05,-0.05,-1.93,-1.93,-1.93
430,-1.87,0.03,-1.86,0.04,-0.04,-0.02,-1.91,-1.90,-1.90
434,-1.85,0.02,-1.84,0.03,-0.03,-0.00,-1.88,-1.87,-1.87
438,-1.87,-0.03,-1.81,0.03,-0.03,0.02,-1.89,-1.83,-1.83
443,-1.78,0.02,-1.77,0.03,-0.03,0.04,-1.80,-1.80,-1.80
447,-1.70,0.06,-1.73,0.03,-0.03,0.05,-1.72,-1.76,-1.76
451,-1.69,0.03,-1.69,0.03,-0.03,0.07,-1.71,-1.72,-1.72
456,-1.63,0.05,-1.66,0.02,-0.02,0.09,-1.65,-1.68,-1.68
460,-1.57,0.07,-1.62,0.02,-0.02,0.10,-1.59,-1.64,-1.64
465,-1.56,0.04,-1.58,0.02,-0.02,0.12,-1.57,-1.60,-1.60
470,-1.61,-0.05,-1.54,0.02,-0.02,0.13,-1.63,-1.56,-1.56
474,-1.51,0.01,-1.49,0.03,-0.03,0.14,-1.53,-1.52,-1.52
479,-1.44,0.04,-1.44,0.04,-0.04,0.15,-1.48,-1.48,-1.48
484,-1.39,0.06,-1.38,0.07,-0.07,0.16,-1.46,-1.45,-1.45
489,-1.41,0.01,-1.31,0.10,-0.10,0.17,-1.51,-1.42,-1.42
494,-1.35,0.04,-1.25,0.15,-0.15,0.17,-1.49,-1.39,-1.39
499,-1.02,0.35,-1.18,0.19,-0.19,0.18,-1.21,-1.37,-1.37
504,-1.02,0.33,-1.12,0.23,-0.23,0.18,-1.25,-1.35,-1.35
509,-1.04,0.29,-1.07,0.27,-0.27,0.18,-1.31,-1.33,-1.33
514,-1.09,0.23,-1.02,0.30,-0.30,0.18,-1.39,-1.32,-1.32
519,-1.03,0.29,-0.99,0.33,-0.33,0.18,-1.36,-1.32,-1.32
524,-0.93,0.39,-0.96,0.35,-0.35,0.17,-1.28,-1.31,-1.31
529,-0.97,0.35,-0.94,0.37,-0.37,0.17,-1.34,-1.32,-1.32
535,-0.97,0.35,-0.93,0.39,-0.39,0.16,-1.36,-1.32,-1.32
540,-0.89,0.44,-0.92,0.40,-0.40,0.15,-1.29,-1.33,-1.33
545,-0.93,0.41,-0.92,0.41,-0.41,0.14,-1.34,-1.34,-1.34
551,-0.96,0.39,-0.93,0.42,-0.42,0.13,-1.37,-1.35,-1.35
556,-0.89,0.47,-0.95,0.41,-0.41,0.12,-1.30,-1.36,-1.36
562,-0.94,0.43,-0.97,0.40,-0.40,0.11,-1.34,-1.37,-1.37
568,-1.03,0.35,-1.00,0.38,-0.38,0.09,-1.41,-1.38,-1.38
573,-1.02,0.37,-1.03,0.35,-0.35,0.08,-1.37,-1.39,-1.39
579,-1.10,0.30,-1.07,0.32,-0.32,0.06,-1.42,-1.39,-1.39
585,-1.19,0.21,-1.12,0.28,-0.28,0.05,-1.47,-1.40,-1.40
591,-1.20,0.20,-1.16,0.24,-0.24,0.03,-1.43,-1.40,-1.40
596,-1.15,0.25,-1.20,0.19,-0.19,0.01,-1.34,-1.39,-1.39
602,-1.10,0.29,-1.25,0.14,-0.14,-0.01,-1.24,-1.39,-1.39
608,-1.26,0.12,-1.29,0.09,-0.09,-0.03,-1.35,-1.37,-1.38
615,-1.37,-0.01,-1.32,0.04,-0.04,-0.05,-1.41,-1.36,-1.36
621,-1.50,-0.15,-1.34,0.00,-0.00,-0.07,-1.50,-1.34,-1.34
627,-1.38,-0.06,-1.34,-0.03,0.03,-0.09,-1.35,-1.32,-1.32
633,-1.24,0.06,-1.34,-0.05,0.05,-0.11,-1.19,-1.29,-1.29
639,-1.43,-0.16,-1.32,-0.06,0.06,-0.13,-1.37,-1.27,-1.27
646,-1.41,-0.17,-1.30,-0.06,0.06,-0.15,-1.35,-1.23,-1.23
652,-1.10,0.11,-1.26,-0.06,0.06,-0.17,-1.04,-1.20,-1.20
659,-1.05,0.12,-1.23,-0.06,0.06,-0.20,-0.99,-1.17,-1.17
665,-1.23,-0.09,-1.19,-0.05,0.05,-0.22,-1.17,-1.13,-1.13
672,-1.18,-0.08,-1.15,-0.05,0.05,-0.24,-1.13,-1.10,-1.10
679,-1.15,-0.08,-1.10,-0.04,0.04,-0.27,-1.11,-1.07,-1.07
686,-1.25,-0.21,-1.05,-0.02,0.02,-0.29,-1.23,-1.03,-1.03
692,-1.11,-0.11,-1.00,-0.00,0.00,-0.31,-1.11,-1.00,-1.00
699,-0.66,0.31,-0.95,0.02,-0.02,-0.34,-0.68,-0.97,-0.97
706,-0.82,0.12,-0.90,0.04,-0.04,-0.36,-0.86,-0.94,-0.94
713,-0.98,-0.06,-0.85,0.06,-0.06,-0.38,-1.04,-0.92,-0.92
721,-0.87,0.02,-0.82,0.08,-0.08,-0.41,-0.94,-0.89,-0.89
728,-0.78,0.09,-0.79,0.08,-0.08,-0.44,-0.86,-0.87,-0.87
735,-0.63,0.22,-0.77,0.08,-0.08,-0.46,-0.71,-0.85,-0.85
742,-0.78,0.05,-0.76,0.07,-0.07,-0.49,-0.85,-0.83,-0.83
750,-0.80,0.02,-0.75,0.06,-0.06,-0.51,-0.86,-0.82,-0.82
757,-0.73,0.07,-0.75,0.05,-0.05,-0.54,-0.78,-0.80,-0.80
765,-0.83,-0.04,-0.75,0.04,-0.04,-0.57,-0.86,-0.79,-0.79
773,-0.77,0.01,-0.75,0.03,-0.03,-0.59,-0.79,-0.78,-0.78
780,-0.68,0.09,-0.75,0.02,-0.02,-0.62,-0.70,-0.77,-0.77
788,-0.69,0.07,-0.74,0.02,-0.02,-0.65,-0.71,-0.76,-0.76
796,-0.72,0.03,-0.71,0.04,-0.04,-0.67,-0.75,-0.75,-0.75
804,-0.75,-0.00,-0.68,0.06,-0.06,-0.70,-0.81,-0.74,-0.74
812,-0.69,0.05,-0.63,0.10,-0.10,-0.73,-0.79,-0.74,-0.74
820,-0.58,0.15,-0.57,0.16,-0.16,-0.75,-0.74,-0.73,-0.73
828,-0.52,0.20,-0.50,0.23,-0.23,-0.78,-0.74,-0.72,-0.72
837,-0.46,0.26,-0.42,0.30,-0.30,-0.81,-0.76,-0.71,-0.71
845,-0.33,0.38,-0.34,0.37,-0.37,-0.84,-0.70,-0.71,-0.71
853,-0.29,0.41,-0.26,0.44,-0.44,-0.86,-0.73,-0.70,-0.70
862,-0.11,0.59,-0.20,0.49,-0.49,-0.89,-0.60,-0.69,-0.69
871,-0.02,0.67,-0.15,0.53,-0.53,-0.91,-0.55,-0.69,-0.69
879,-0.12,0.56,-0.12,0.56,-0.56,-0.94,-0.67,-0.68,-0.68
888,-0.10,0.57,-0.11,0.56,-0.56,-0.96,-0.66,-0.67,-0.67
897,-0.09,0.57,-0.11,0.55,-0.55,-0.99,-0.64,-0.66,-0.66
906,-0.34,0.32,-0.12,0.54,-0.54,-1.01,-0.87,-0.65,-0.65
915,-0.06,0.59,-0.13,0.51,-0.51,-1.03,-0.57,-0.64,-0.64
924,-0.13,0.51,-0.14,0.49,-0.49,-1.05,-0.62,-0.63,-0.63
933,-0.15,0.48,-0.15,0.47,-0.47,-1.07,-0.62,-0.62,-0.62
943,-0.03,0.58,-0.15,0.46,-0.46,-1.09,-0.49,-0.61,-0.61
952,-0.24,0.36,-0.15,0.45,-0.45,-1.11,-0.69,-0.60,-0.60
962,-0.22,0.37,-0.14,0.45,-0.45,-1.13,-0.67,-0.59,-0.59
971,-0.11,0.46,-0.12,0.45,-0.45,-1.14,-0.56,-0.57,-0.57
981,-0.18,0.38,-0.10,0.46,-0.46,-1.15,-0.64,-0.56,-0.56
991,-0.12,0.42,-0.08,0.46,-0.46,-1.17,-0.58,-0.54,-0.54
1001,0.01,0.53,-0.06,0.46,-0.46,-1.18,-0.44,-0.52,-0.52
1011,0.05,0.55,-0.06,0.44,-0.44,-1.19,-0.38,-0.50,-0.50
1021,0.01,0.49,-0.07,0.41,-0.41,-1.20,-0.39,-0.48,-0.48
1031,-0.06,0.40,-0.09,0.36,-0.36,-1.20,-0.42,-0.45,-0.45
1041,-0.16,0.27,-0.12,0.31,-0.31,-1.21,-0.47,-0.43,-0.43
1052,-0.13,0.27,-0.14,0.26,-0.26,-1.22,-0.39,-0.40,-0.40
1062,-0.19,0.19,-0.16,0.22,-0.22,-1.22,-0.40,-0.37,-0.37
1073,-0.24,0.10,-0.15,0.19,-0.19,-1.22,-0.43,-0.34,-0.34
1084,-0.21,0.10,-0.13,0.18,-0.18,-1.22,-0.39,-0.31,-0.31
1094,-0.09,0.19,-0.07,0.20,-0.20,-1.23,-0.29,-0.28,-0.28
1105,0.00,0.25,0.00,0.25,-0.25,-1.23,-0.24,-0.24,-0.24
1116,0.08,0.29,0.10,0.31,-0.31,-1.23,-0.23,-0.21,-0.21
1128,0.25,0.43,0.21,0.38,-0.38,-1.23,-0.13,-0.18,-0.18
1139,0.37,0.52,0.33,0.47,-0.47,-1.22,-0.10,-0.14,-0.14
1150,0.49,0.60,0.45,0.56,-0.56,-1.22,-0.07,-0.11,-0.11
1162,0.58,0.66,0.58,0.66,-0.66,-1.22,-0.07,-0.08,-0.08
1173,0.67,0.72,0.71,0.76,-0.76,-1.22,-0.08,-0.04,-0.04
1185,0.84,0.86,0.84,0.86,-0.86,-1.22,-0.01,-0.01,-0.01
1197,0.98,0.97,0.98,0.97,-0.97,-1.22,0.02,0.02,0.02
1209,1.09,1.05,1.12,1.08,-1.08,-1.22,0.01,0.04,0.04
1221,1.25,1.19,1.26,1.20,-1.20,-1.22,0.05,0.07,0.07
1233,1.44,1.36,1.41,1.32,-1.32,-1.22,0.12,0.09,0.09
1246,1.57,1.47,1.56,1.45,-1.45,-1.22,0.12,0.11,0.11
1258,1.71,1.59,1.71,1.59,-1.59,-1.22,0.12,0.12,0.12
1271,1.85,1.72,1.86,1.73,-1.73,-1.22,0.13,0.13,0.13
1283,1.99,1.85,2.01,1.87,-1.87,-1.23,0.13,0.14,0.14
1296,2.14,1.99,2.16,2.01,-2.01,-1.23,0.14,0.15,0.15
1309,2.35,2.20,2.30,2.15,-2.15,-1.24,0.20,0.15,0.15
1322,2.44,2.29,2.45,2.29,-2.29,-1.24,0.15,0.15,0.15
1335,2.59,2.44,2.59,2.44,-2.44,-1.25,0.15,0.15,0.15
1349,2.74,2.59,2.74,2.59,-2.59,-1.26,0.15,0.15,0.15
1362,2.89,2.75,2.88,2.74,-2.74,-1.27,0.15,0.14,0.14
1376,3.04,2.91,3.04,2.90,-2.90,-1.28,0.14,0.13,0.14
1390,3.19,3.07,3.20,3.07,-3.07,-1.29,0.12,0.13,0.13
1404,3.33,3.22,3.37,3.25,-3.25,-1.30,0.08,0.12,0.12
1418,3.47,3.36,3.55,3.44,-3.44,-1.31,0.03,0.11,0.11
1432,3.69,3.59,3.73,3.63,-3.63,-1.33,0.07,0.10,0.10
1446,3.87,3.78,3.90,3.81,-3.81,-1.34,0.06,0.09,0.09
1461,4.11,4.03,4.07,3.99,-3.99,-1.36,0.13,0.09,0.09
1475,4.30,4.22,4.23,4.14,-4.14,-1.38,0.16,0.08,0.08
1490,4.47,4.39,4.37,4.28,-4.28,-1.40,0.19,0.08,0.08
1505,4.60,4.52,4.49,4.40,-4.40,-1.42,0.20,0.09,0.09
1520,4.61,4.52,4.60,4.51,-4.51,-1.44,0.11,0.09,0.09
1535,4.60,4.50,4.70,4.60,-4.60,-1.46,0.00,0.10,0.10
