frequency,raw,error,smoothed,error_smoothed,equalization,parametric_eq,fixed_band_eq,equalized_raw,equalized_smoothed,target
20.00,18.98,17.87,18.99,17.86,-17.86,-17.85,-6.62,1.12,1.13,1.11
20.20,18.88,17.73,18.90,17.73,-17.73,-17.70,-6.77,1.15,1.16,1.15
20.40,18.79,17.60,18.80,17.60,-17.60,-17.55,-6.93,1.19,1.19,1.19
20.61,18.70,17.48,18.70,17.47,-17.47,-17.40,-7.09,1.22,1.22,1.22
20.81,18.60,17.34,18.60,17.35,-17.35,-17.26,-7.25,1.26,1.25,1.26
21.02,18.50,17.20,18.49,17.22,-17.22,-17.11,-7.42,1.28,1.27,1.30
21.23,18.40,17.08,18.39,17.09,-17.09,-16.96,-7.60,1.31,1.30,1.32
21.44,18.29,16.95,18.29,16.97,-16.97,-16.82,-7.77,1.33,1.32,1.34
21.66,18.20,16.84,18.18,16.84,-16.84,-16.67,-7.96,1.36,1.34,1.36
21.87,18.08,16.71,18.08,16.71,-16.71,-16.53,-8.14,1.37,1.36,1.37
22.09,17.98,16.59,17.97,16.59,-16.59,-16.39,-8.34,1.39,1.38,1.39
22.31,17.87,16.47,17.86,16.47,-16.47,-16.25,-8.54,1.41,1.40,1.40
22.54,17.75,16.34,17.75,16.34,-16.34,-16.12,-8.74,1.40,1.41,1.41
22.76,17.62,16.21,17.64,16.22,-16.22,-15.98,-8.95,1.40,1.42,1.42
22.99,17.51,16.10,17.52,16.10,-16.10,-15.85,-9.16,1.42,1.43,1.42
23.22,17.40,15.98,17.41,15.98,-15.98,-15.72,-9.38,1.43,1.44,1.43
23.45,17.29,15.86,17.30,15.85,-15.85,-15.60,-9.61,1.44,1.44,1.44
23.69,17.19,15.74,17.19,15.73,-15.73,-15.47,-9.84,1.45,1.45,1.44
23.92,17.07,15.62,17.07,15.61,-15.61,-15.35,-10.08,1.46,1.46,1.45
24.16,16.96,15.49,16.96,15.49,-15.49,-15.23,-10.33,1.47,1.47,1.47
24.40,16.85,15.36,16.85,15.37,-15.37,-15.11,-10.58,1.49,1.48,1.49
24.65,16.73,15.24,16.74,15.24,-15.24,-15.00,-10.84,1.49,1.49,1.49
24.89,16.62,15.12,16.63,15.12,-15.12,-14.88,-11.11,1.50,1.50,1.50
25.14,16.51,15.00,16.51,15.00,-15.00,-14.77,-11.38,1.51,1.51,1.51
25.39,16.40,14.88,16.40,14.88,-14.88,-14.66,-11.66,1.52,1.52,1.52
25.65,16.29,14.75,16.29,14.76,-14.76,-14.55,-11.95,1.54,1.53,1.54
25.91,16.19,14.65,16.18,14.63,-14.63,-14.45,-12.24,1.55,1.55,1.54
26.16,16.06,14.51,16.07,14.51,-14.51,-14.34,-12.54,1.55,1.56,1.55
26.43,15.96,14.40,15.95,14.39,-14.39,-14.24,-12.85,1.57,1.56,1.56
26.69,15.84,14.27,15.84,14.27,-14.27,-14.13,-13.16,1.58,1.57,1.57
26.96,15.73,14.14,15.73,14.14,-14.14,-14.03,-13.47,1.58,1.58,1.59
27.23,15.62,14.02,15.61,14.02,-14.02,-13.93,-13.79,1.59,1.59,1.60
27.50,15.50,13.90,15.50,13.90,-13.90,-13.84,-14.11,1.61,1.60,1.61
27.77,15.38,13.78,15.39,13.78,-13.78,-13.74,-14.43,1.61,1.61,1.61
28.05,15.27,13.65,15.27,13.65,-13.65,-13.64,-14.74,1.62,1.62,1.63
28.33,15.15,13.53,15.16,13.53,-13.53,-13.54,-15.05,1.62,1.63,1.62
28.62,15.05,13.41,15.05,13.41,-13.41,-13.45,-15.35,1.64,1.64,1.63
28.90,14.93,13.29,14.93,13.29,-13.29,-13.35,-15.64,1.64,1.65,1.64
29.19,14.82,13.18,14.82,13.17,-13.17,-13.25,-15.92,1.65,1.65,1.64
29.48,14.70,13.03,14.71,13.05,-13.05,-13.16,-16.17,1.65,1.66,1.67
29.78,14.59,12.92,14.60,12.93,-12.93,-13.06,-16.39,1.67,1.67,1.67
30.08,14.49,12.81,14.49,12.81,-12.81,-12.97,-16.58,1.67,1.67,1.68
30.38,14.38,12.70,14.37,12.69,-12.69,-12.87,-16.74,1.68,1.68,1.68
30.68,14.26,12.57,14.26,12.57,-12.57,-12.77,-16.85,1.69,1.69,1.70
30.99,14.16,12.46,14.15,12.45,-12.45,-12.68,-16.92,1.70,1.70,1.70
31.30,14.05,12.34,14.04,12.33,-12.33,-12.58,-16.94,1.71,1.71,1.70
31.61,13.93,12.22,13.93,12.22,-12.22,-12.48,-16.92,1.72,1.72,1.71
31.93,13.82,12.09,13.82,12.10,-12.10,-12.38,-16.84,1.72,1.72,1.72
32.24,13.70,11.98,13.71,11.98,-11.98,-12.28,-16.73,1.73,1.73,1.72
32.57,13.59,11.86,13.59,11.86,-11.86,-12.18,-16.58,1.74,1.74,1.74
32.89,13.48,11.74,13.48,11.73,-11.73,-12.08,-16.39,1.75,1.75,1.75
33.22,13.37,11.62,13.37,11.61,-11.61,-11.98,-16.17,1.76,1.76,1.76
33.55,13.25,11.49,13.25,11.49,-11.49,-11.88,-15.92,1.76,1.76,1.76
33.89,13.14,11.37,13.14,11.37,-11.37,-11.77,-15.66,1.78,1.77,1.77
34.23,13.03,11.25,13.02,11.25,-11.25,-11.67,-15.38,1.79,1.78,1.78
34.57,12.92,11.13,12.91,11.12,-11.12,-11.56,-15.09,1.80,1.78,1.79
34.92,12.80,11.01,12.80,11.00,-11.00,-11.45,-14.79,1.79,1.79,1.79
35.27,12.68,10.88,12.68,10.89,-10.89,-11.34,-14.49,1.79,1.80,1.80
35.62,12.56,10.76,12.57,10.77,-10.77,-11.23,-14.19,1.79,1.80,1.80
35.97,12.45,10.65,12.46,10.66,-10.66,-11.12,-13.89,1.79,1.81,1.80
36.33,12.34,10.53,12.36,10.55,-10.55,-11.01,-13.59,1.79,1.81,1.81
36.70,12.24,10.44,12.25,10.44,-10.44,-10.90,-13.29,1.80,1.81,1.81
37.06,12.14,10.33,12.15,10.33,-10.33,-10.78,-13.00,1.81,1.81,1.81
37.43,12.03,10.21,12.04,10.23,-10.23,-10.67,-12.71,1.80,1.81,1.82
37.81,11.95,10.13,11.94,10.13,-10.13,-10.55,-12.43,1.82,1.81,1.82
38.19,11.84,10.03,11.84,10.03,-10.03,-10.44,-12.16,1.81,1.81,1.82
38.57,11.74,9.93,11.75,9.93,-9.93,-10.32,-11.89,1.81,1.81,1.81
38.95,11.66,9.85,11.65,9.84,-9.84,-10.20,-11.64,1.83,1.81,1.81
39.34,11.55,9.74,11.55,9.74,-9.74,-10.08,-11.38,1.81,1.81,1.81
39.74,11.45,9.65,11.45,9.64,-9.64,-9.96,-11.14,1.82,1.81,1.81
40.14,11.35,9.54,11.35,9.54,-9.54,-9.84,-10.90,1.82,1.81,1.81
40.54,11.25,9.45,11.25,9.44,-9.44,-9.72,-10.67,1.82,1.81,1.81
40.94,11.15,9.35,11.15,9.34,-9.34,-9.60,-10.45,1.82,1.81,1.81
41.35,11.05,9.25,11.05,9.24,-9.24,-9.48,-10.23,1.82,1.81,1.80
41.76,10.95,9.14,10.94,9.14,-9.14,-9.36,-10.02,1.82,1.81,1.81
42.18,10.84,9.03,10.84,9.03,-9.03,-9.24,-9.82,1.81,1.81,1.81
42.60,10.73,8.92,10.74,8.93,-8.93,-9.12,-9.63,1.80,1.81,1.81
43.03,10.62,8.81,10.63,8.83,-8.83,-9.00,-9.44,1.80,1.80,1.82
43.46,10.51,8.70,10.53,8.72,-8.72,-8.87,-9.25,1.79,1.80,1.81
43.90,10.41,8.62,10.43,8.62,-8.62,-8.75,-9.07,1.79,1.80,1.80
44.33,10.32,8.52,10.32,8.52,-8.52,-8.63,-8.90,1.80,1.80,1.80
44.78,10.21,8.42,10.22,8.42,-8.42,-8.51,-8.74,1.80,1.80,1.80
45.23,10.11,8.32,10.12,8.32,-8.32,-8.39,-8.58,1.80,1.80,1.79
45.68,10.02,8.23,10.02,8.22,-8.22,-8.27,-8.42,1.81,1.80,1.80
46.13,9.91,8.12,9.92,8.12,-8.12,-8.15,-8.27,1.80,1.80,1.79
46.60,9.82,8.02,9.82,8.02,-8.02,-8.03,-8.13,1.81,1.80,1.81
47.06,9.72,7.92,9.72,7.92,-7.92,-7.91,-7.99,1.80,1.79,1.80
47.53,9.61,7.82,9.61,7.82,-7.82,-7.80,-7.85,1.79,1.79,1.79
48.01,9.51,7.71,9.51,7.72,-7.72,-7.68,-7.72,1.79,1.79,1.81
48.49,9.41,7.62,9.40,7.62,-7.62,-7.56,-7.60,1.79,1.78,1.79
48.97,9.29,7.52,9.30,7.52,-7.52,-7.45,-7.48,1.77,1.78,1.77
49.46,9.19,7.43,9.19,7.42,-7.42,-7.33,-7.36,1.77,1.77,1.77
49.96,9.08,7.33,9.08,7.32,-7.32,-7.22,-7.25,1.76,1.76,1.75
50.46,8.97,7.22,8.97,7.22,-7.22,-7.10,-7.13,1.75,1.75,1.75
50.96,8.86,7.12,8.86,7.12,-7.12,-6.99,-7.03,1.74,1.74,1.74
51.47,8.75,7.04,8.75,7.02,-7.02,-6.88,-6.92,1.73,1.73,1.72
51.99,8.63,6.93,8.64,6.93,-6.93,-6.77,-6.82,1.71,1.71,1.71
52.51,8.52,6.82,8.53,6.83,-6.83,-6.66,-6.73,1.70,1.70,1.71
53.03,8.41,6.72,8.42,6.73,-6.73,-6.55,-6.63,1.69,1.69,1.69
53.56,8.30,6.62,8.30,6.63,-6.63,-6.44,-6.54,1.67,1.67,1.68
54.10,8.19,6.53,8.19,6.53,-6.53,-6.34,-6.45,1.66,1.66,1.66
54.64,8.07,6.42,8.08,6.43,-6.43,-6.23,-6.36,1.64,1.65,1.65
55.18,7.96,6.33,7.97,6.33,-6.33,-6.13,-6.27,1.63,1.63,1.63
55.74,7.85,6.25,7.85,6.23,-6.23,-6.03,-6.18,1.62,1.62,1.61
56.29,7.74,6.14,7.74,6.13,-6.13,-5.92,-6.10,1.61,1.61,1.61
56.86,7.62,6.04,7.63,6.04,-6.04,-5.82,-6.01,1.59,1.59,1.59
57.42,7.51,5.95,7.51,5.94,-5.94,-5.72,-5.93,1.58,1.57,1.56
58.00,7.40,5.85,7.40,5.84,-5.84,-5.62,-5.85,1.56,1.56,1.55
58.58,7.28,5.75,7.29,5.75,-5.75,-5.52,-5.76,1.54,1.54,1.54
59.16,7.17,5.65,7.17,5.65,-5.65,-5.43,-5.68,1.52,1.52,1.53
59.76,7.05,5.54,7.06,5.56,-5.56,-5.33,-5.60,1.49,1.50,1.51
60.35,6.94,5.46,6.94,5.47,-5.47,-5.24,-5.51,1.47,1.47,1.49
60.96,6.83,5.37,6.83,5.38,-5.38,-5.14,-5.43,1.45,1.45,1.46
61.57,6.71,5.29,6.72,5.29,-5.29,-5.05,-5.34,1.42,1.43,1.43
62.18,6.60,5.21,6.61,5.20,-5.20,-4.96,-5.26,1.40,1.40,1.39
62.80,6.49,5.12,6.49,5.12,-5.12,-4.87,-5.17,1.38,1.38,1.38
63.43,6.38,5.04,6.38,5.03,-5.03,-4.78,-5.08,1.35,1.35,1.34
64.07,6.27,4.96,6.27,4.95,-4.95,-4.69,-4.99,1.33,1.32,1.31
64.71,6.15,4.87,6.16,4.87,-4.87,-4.60,-4.90,1.29,1.29,1.29
65.35,6.04,4.78,6.05,4.79,-4.79,-4.52,-4.81,1.26,1.26,1.26
66.01,5.93,4.70,5.94,4.70,-4.70,-4.43,-4.72,1.23,1.23,1.23
66.67,5.82,4.61,5.83,4.62,-4.62,-4.35,-4.63,1.20,1.20,1.21
67.33,5.71,4.53,5.71,4.54,-4.54,-4.26,-4.53,1.17,1.17,1.18
68.01,5.60,4.45,5.60,4.46,-4.46,-4.18,-4.44,1.15,1.15,1.15
68.69,5.49,4.37,5.49,4.37,-4.37,-4.10,-4.34,1.12,1.12,1.12
69.37,5.38,4.29,5.38,4.29,-4.29,-4.01,-4.25,1.10,1.09,1.09
70.07,5.26,4.21,5.26,4.20,-4.20,-3.93,-4.15,1.06,1.06,1.06
70.77,5.15,4.12,5.15,4.11,-4.11,-3.85,-4.06,1.04,1.04,1.03
71.48,5.04,4.03,5.04,4.03,-4.03,-3.78,-3.96,1.02,1.01,1.01
72.19,4.92,3.95,4.92,3.94,-3.94,-3.70,-3.86,0.98,0.98,0.98
72.91,4.81,3.86,4.81,3.85,-3.85,-3.62,-3.77,0.96,0.96,0.95
73.64,4.69,3.76,4.70,3.77,-3.77,-3.54,-3.67,0.93,0.93,0.93
74.38,4.57,3.66,4.59,3.68,-3.68,-3.47,-3.58,0.90,0.91,0.91
75.12,4.47,3.59,4.48,3.59,-3.59,-3.39,-3.48,0.89,0.89,0.89
75.87,4.37,3.50,4.37,3.50,-3.50,-3.32,-3.39,0.88,0.87,0.87
76.63,4.25,3.40,4.26,3.41,-3.41,-3.24,-3.29,0.84,0.85,0.85
77.40,4.16,3.33,4.16,3.32,-3.32,-3.17,-3.20,0.84,0.84,0.84
78.17,4.06,3.25,4.06,3.23,-3.23,-3.10,-3.11,0.83,0.82,0.82
78.95,3.95,3.14,3.96,3.15,-3.15,-3.02,-3.02,0.81,0.81,0.81
79.74,3.85,3.05,3.86,3.06,-3.06,-2.95,-2.93,0.79,0.80,0.80
80.54,3.75,2.96,3.76,2.98,-2.98,-2.88,-2.84,0.77,0.79,0.79
81.35,3.66,2.89,3.67,2.89,-2.89,-2.81,-2.75,0.77,0.78,0.78
82.16,3.57,2.81,3.58,2.81,-2.81,-2.74,-2.66,0.77,0.77,0.77
82.98,3.48,2.72,3.48,2.72,-2.72,-2.67,-2.57,0.76,0.76,0.77
83.81,3.39,2.64,3.39,2.63,-2.63,-2.59,-2.49,0.76,0.76,0.75
84.65,3.30,2.56,3.30,2.55,-2.55,-2.52,-2.40,0.76,0.75,0.74
85.50,3.21,2.47,3.20,2.46,-2.46,-2.45,-2.32,0.76,0.75,0.75
86.35,3.12,2.38,3.11,2.37,-2.37,-2.39,-2.23,0.75,0.74,0.74
87.22,3.03,2.30,3.02,2.28,-2.28,-2.32,-2.15,0.76,0.74,0.74
88.09,2.93,2.20,2.93,2.19,-2.19,-2.25,-2.07,0.74,0.74,0.73
88.97,2.83,2.10,2.83,2.10,-2.10,-2.18,-1.99,0.74,0.74,0.74
89.86,2.73,1.99,2.74,2.01,-2.01,-2.11,-1.91,0.73,0.74,0.74
90.76,2.64,1.92,2.65,1.91,-1.91,-2.04,-1.83,0.73,0.73,0.73
91.66,2.55,1.82,2.56,1.82,-1.82,-1.97,-1.76,0.73,0.73,0.73
92.58,2.45,1.73,2.46,1.73,-1.73,-1.90,-1.68,0.72,0.73,0.72
93.51,2.37,1.64,2.37,1.65,-1.65,-1.84,-1.60,0.73,0.73,0.74
94.44,2.28,1.56,2.28,1.56,-1.56,-1.77,-1.53,0.72,0.72,0.73
95.39,2.20,1.47,2.20,1.48,-1.48,-1.70,-1.45,0.73,0.72,0.73
96.34,2.11,1.40,2.11,1.40,-1.40,-1.63,-1.38,0.72,0.71,0.71
97.30,2.02,1.32,2.03,1.32,-1.32,-1.57,-1.31,0.70,0.71,0.70
98.28,1.93,1.24,1.95,1.25,-1.25,-1.50,-1.24,0.69,0.70,0.69
99.26,1.86,1.18,1.87,1.18,-1.18,-1.43,-1.17,0.68,0.69,0.69
100.25,1.79,1.12,1.79,1.11,-1.11,-1.37,-1.10,0.68,0.68,0.68
101.25,1.71,1.05,1.72,1.05,-1.05,-1.30,-1.03,0.66,0.67,0.67
102.27,1.63,0.99,1.64,0.99,-0.99,-1.24,-0.97,0.64,0.65,0.65
103.29,1.56,0.93,1.57,0.94,-0.94,-1.18,-0.90,0.63,0.63,0.63
104.32,1.50,0.88,1.50,0.89,-0.89,-1.11,-0.84,0.62,0.61,0.62
105.37,1.44,0.84,1.43,0.84,-0.84,-1.05,-0.78,0.60,0.59,0.60
106.42,1.37,0.80,1.37,0.80,-0.80,-0.99,-0.72,0.57,0.57,0.57
107.48,1.31,0.76,1.31,0.76,-0.76,-0.93,-0.66,0.55,0.54,0.55
108.56,1.24,0.73,1.24,0.73,-0.73,-0.87,-0.60,0.51,0.51,0.51
109.64,1.17,0.69,1.18,0.70,-0.70,-0.82,-0.55,0.47,0.48,0.48
110.74,1.11,0.66,1.12,0.68,-0.68,-0.77,-0.50,0.44,0.44,0.45
111.85,1.06,0.65,1.06,0.66,-0.66,-0.71,-0.45,0.41,0.41,0.42
112.97,1.01,0.65,1.01,0.64,-0.64,-0.66,-0.40,0.38,0.37,0.37
114.10,0.95,0.62,0.95,0.62,-0.62,-0.62,-0.35,0.33,0.33,0.34
115.24,0.89,0.60,0.90,0.61,-0.61,-0.57,-0.31,0.29,0.29,0.29
116.39,0.84,0.60,0.84,0.59,-0.59,-0.53,-0.27,0.25,0.25,0.24
117.55,0.78,0.58,0.79,0.58,-0.58,-0.49,-0.23,0.20,0.21,0.20
118.73,0.73,0.58,0.74,0.57,-0.57,-0.46,-0.20,0.16,0.17,0.16
119.92,0.68,0.55,0.69,0.56,-0.56,-0.43,-0.17,0.12,0.13,0.13
121.12,0.64,0.56,0.64,0.55,-0.55,-0.40,-0.14,0.10,0.09,0.08
122.33,0.60,0.56,0.59,0.53,-0.53,-0.37,-0.11,0.07,0.05,0.05
123.55,0.55,0.53,0.54,0.52,-0.52,-0.35,-0.09,0.03,0.01,0.02
124.79,0.49,0.51,0.49,0.51,-0.51,-0.33,-0.07,-0.01,-0.02,-0.01
126.03,0.44,0.49,0.44,0.49,-0.49,-0.32,-0.06,-0.05,-0.05,-0.05
127.29,0.38,0.47,0.39,0.48,-0.48,-0.31,-0.05,-0.10,-0.09,-0.08
128.57,0.34,0.47,0.35,0.47,-0.47,-0.30,-0.04,-0.13,-0.12,-0.13
129.85,0.30,0.46,0.31,0.46,-0.46,-0.30,-0.04,-0.16,-0.15,-0.15
131.15,0.25,0.44,0.27,0.45,-0.45,-0.29,-0.03,-0.19,-0.18,-0.19
132.46,0.21,0.42,0.23,0.44,-0.44,-0.30,-0.04,-0.22,-0.21,-0.21
133.79,0.17,0.40,0.19,0.43,-0.43,-0.30,-0.04,-0.26,-0.23,-0.23
135.12,0.15,0.41,0.16,0.42,-0.42,-0.31,-0.05,-0.26,-0.26,-0.26
136.48,0.13,0.42,0.12,0.41,-0.41,-0.32,-0.06,-0.28,-0.29,-0.28
137.84,0.10,0.42,0.09,0.40,-0.40,-0.33,-0.07,-0.30,-0.31,-0.31
139.22,0.08,0.43,0.07,0.40,-0.40,-0.34,-0.09,-0.32,-0.33,-0.34
140.61,0.05,0.42,0.04,0.39,-0.39,-0.36,-0.10,-0.34,-0.36,-0.37
142.02,0.01,0.39,0.01,0.39,-0.39,-0.37,-0.12,-0.38,-0.38,-0.38
143.44,-0.02,0.38,-0.02,0.39,-0.39,-0.39,-0.15,-0.40,-0.40,-0.40
144.87,-0.06,0.37,-0.05,0.38,-0.38,-0.41,-0.17,-0.44,-0.43,-0.42
146.32,-0.08,0.38,-0.07,0.38,-0.38,-0.43,-0.19,-0.45,-0.45,-0.45
147.78,-0.11,0.36,-0.10,0.38,-0.38,-0.46,-0.22,-0.48,-0.48,-0.47
149.26,-0.13,0.37,-0.13,0.37,-0.37,-0.48,-0.25,-0.50,-0.51,-0.49
150.75,-0.15,0.39,-0.16,0.37,-0.37,-0.50,-0.28,-0.52,-0.53,-0.54
152.26,-0.18,0.39,-0.19,0.37,-0.37,-0.53,-0.31,-0.55,-0.56,-0.56
153.78,-0.21,0.38,-0.21,0.38,-0.38,-0.55,-0.34,-0.59,-0.59,-0.59
155.32,-0.24,0.39,-0.23,0.39,-0.39,-0.58,-0.38,-0.63,-0.62,-0.63
156.88,-0.26,0.40,-0.25,0.41,-0.41,-0.60,-0.41,-0.66,-0.65,-0.65
158.44,-0.28,0.41,-0.26,0.42,-0.42,-0.63,-0.44,-0.70,-0.69,-0.68
160.03,-0.30,0.43,-0.28,0.45,-0.45,-0.66,-0.48,-0.74,-0.72,-0.73
161.63,-0.31,0.46,-0.28,0.47,-0.47,-0.68,-0.52,-0.78,-0.76,-0.77
163.24,-0.31,0.49,-0.29,0.50,-0.50,-0.71,-0.55,-0.81,-0.79,-0.80
164.88,-0.31,0.52,-0.30,0.53,-0.53,-0.74,-0.59,-0.84,-0.83,-0.83
166.53,-0.30,0.57,-0.30,0.57,-0.57,-0.77,-0.63,-0.86,-0.87,-0.87
168.19,-0.29,0.62,-0.30,0.60,-0.60,-0.80,-0.67,-0.89,-0.90,-0.90
169.87,-0.29,0.66,-0.30,0.65,-0.65,-0.82,-0.71,-0.93,-0.95,-0.94
171.57,-0.29,0.69,-0.30,0.69,-0.69,-0.85,-0.75,-0.98,-0.99,-0.98
173.29,-0.29,0.74,-0.29,0.74,-0.74,-0.88,-0.79,-1.02,-1.03,-1.03
175.02,-0.29,0.78,-0.29,0.78,-0.78,-0.91,-0.83,-1.07,-1.07,-1.06
176.77,-0.29,0.83,-0.29,0.83,-0.83,-0.94,-0.87,-1.12,-1.12,-1.12
178.54,-0.29,0.88,-0.29,0.88,-0.88,-0.97,-0.91,-1.17,-1.16,-1.17
180.32,-0.29,0.92,-0.28,0.93,-0.93,-1.00,-0.96,-1.21,-1.21,-1.21
182.13,-0.29,0.97,-0.28,0.98,-0.98,-1.03,-1.00,-1.26,-1.26,-1.26
183.95,-0.29,1.02,-0.28,1.02,-1.02,-1.05,-1.04,-1.31,-1.31,-1.31
185.79,-0.29,1.07,-0.29,1.07,-1.07,-1.08,-1.09,-1.36,-1.36,-1.35
187.65,-0.29,1.13,-0.29,1.12,-1.12,-1.12,-1.13,-1.41,-1.41,-1.42
189.52,-0.29,1.17,-0.29,1.17,-1.17,-1.15,-1.18,-1.45,-1.45,-1.46
191.42,-0.29,1.22,-0.29,1.21,-1.21,-1.18,-1.22,-1.50,-1.50,-1.50
193.33,-0.29,1.26,-0.29,1.26,-1.26,-1.21,-1.27,-1.55,-1.55,-1.54
195.27,-0.29,1.30,-0.29,1.31,-1.31,-1.24,-1.31,-1.59,-1.59,-1.59
197.22,-0.29,1.35,-0.29,1.35,-1.35,-1.27,-1.36,-1.64,-1.64,-1.64
199.19,-0.29,1.40,-0.29,1.39,-1.39,-1.30,-1.40,-1.68,-1.68,-1.69
201.18,-0.29,1.44,-0.29,1.44,-1.44,-1.34,-1.45,-1.72,-1.72,-1.73
203.19,-0.29,1.47,-0.29,1.48,-1.48,-1.37,-1.49,-1.77,-1.77,-1.76
205.23,-0.29,1.52,-0.29,1.52,-1.52,-1.40,-1.54,-1.80,-1.80,-1.81
207.28,-0.29,1.54,-0.29,1.56,-1.56,-1.43,-1.58,-1.84,-1.84,-1.83
209.35,-0.29,1.59,-0.29,1.59,-1.59,-1.47,-1.63,-1.88,-1.88,-1.88
211.44,-0.29,1.64,-0.29,1.63,-1.63,-1.50,-1.67,-1.92,-1.92,-1.93
213.56,-0.29,1.67,-0.29,1.67,-1.67,-1.53,-1.71,-1.95,-1.95,-1.96
215.69,-0.29,1.69,-0.29,1.70,-1.70,-1.56,-1.75,-1.98,-1.98,-1.97
217.85,-0.29,1.73,-0.29,1.73,-1.73,-1.59,-1.79,-2.01,-2.01,-2.01
220.03,-0.29,1.76,-0.29,1.76,-1.76,-1.63,-1.83,-2.04,-2.04,-2.05
222.23,-0.29,1.79,-0.29,1.78,-1.78,-1.66,-1.87,-2.07,-2.07,-2.08
224.45,-0.29,1.81,-0.29,1.81,-1.81,-1.69,-1.91,-2.09,-2.09,-2.09
226.70,-0.29,1.82,-0.29,1.83,-1.83,-1.72,-1.94,-2.11,-2.11,-2.11
228.96,-0.29,1.85,-0.29,1.85,-1.85,-1.75,-1.97,-2.13,-2.13,-2.14
231.25,-0.29,1.86,-0.29,1.86,-1.86,-1.77,-2.00,-2.15,-2.15,-2.14
233.57,-0.29,1.87,-0.29,1.87,-1.87,-1.80,-2.03,-2.16,-2.16,-2.16
235.90,-0.29,1.89,-0.29,1.88,-1.88,-1.83,-2.05,-2.17,-2.17,-2.18
238.26,-0.29,1.90,-0.29,1.89,-1.89,-1.85,-2.07,-2.18,-2.18,-2.18
240.64,-0.29,1.90,-0.29,1.90,-1.90,-1.87,-2.09,-2.18,-2.18,-2.19
243.05,-0.29,1.90,-0.29,1.90,-1.90,-1.89,-2.11,-2.19,-2.19,-2.18
245.48,-0.29,1.90,-0.29,1.90,-1.90,-1.91,-2.12,-2.18,-2.18,-2.19
247.93,-0.29,1.90,-0.29,1.90,-1.90,-1.92,-2.13,-2.18,-2.18,-2.18
250.41,-0.29,1.90,-0.29,1.89,-1.89,-1.94,-2.13,-2.18,-2.18,-2.19
252.92,-0.29,1.89,-0.29,1.89,-1.89,-1.95,-2.14,-2.17,-2.17,-2.17
255.45,-0.29,1.87,-0.29,1.88,-1.88,-1.96,-2.14,-2.16,-2.16,-2.16
258.00,-0.29,1.86,-0.29,1.87,-1.87,-1.96,-2.13,-2.15,-2.15,-2.15
260.58,-0.29,1.86,-0.29,1.85,-1.85,-1.97,-2.12,-2.14,-2.14,-2.14
263.19,-0.29,1.84,-0.29,1.84,-1.84,-1.97,-2.11,-2.13,-2.13,-2.13
265.82,-0.29,1.84,-0.29,1.83,-1.83,-1.97,-2.10,-2.11,-2.11,-2.12
268.48,-0.29,1.81,-0.29,1.81,-1.81,-1.96,-2.09,-2.10,-2.10,-2.10
271.16,-0.29,1.79,-0.29,1.80,-1.80,-1.96,-2.07,-2.09,-2.09,-2.08
273.87,-0.29,1.79,-0.29,1.78,-1.78,-1.95,-2.05,-2.07,-2.07,-2.07
276.61,-0.29,1.76,-0.29,1.77,-1.77,-1.94,-2.02,-2.06,-2.06,-2.05
279.38,-0.29,1.75,-0.29,1.75,-1.75,-1.92,-2.00,-2.04,-2.04,-2.04
282.17,-0.29,1.74,-0.29,1.74,-1.74,-1.91,-1.97,-2.02,-2.02,-2.02
284.99,-0.29,1.72,-0.29,1.72,-1.72,-1.89,-1.94,-2.01,-2.01,-2.01
287.84,-0.29,1.71,-0.29,1.71,-1.71,-1.87,-1.92,-1.99,-1.99,-2.00
290.72,-0.29,1.69,-0.29,1.69,-1.69,-1.86,-1.89,-1.98,-1.98,-1.98
293.63,-0.29,1.68,-0.29,1.68,-1.68,-1.83,-1.85,-1.96,-1.96,-1.96
296.57,-0.29,1.66,-0.29,1.66,-1.66,-1.81,-1.82,-1.95,-1.95,-1.95
299.53,-0.29,1.65,-0.29,1.65,-1.65,-1.79,-1.79,-1.93,-1.93,-1.94
302.53,-0.29,1.64,-0.29,1.63,-1.63,-1.76,-1.76,-1.92,-1.92,-1.93
305.55,-0.29,1.62,-0.29,1.62,-1.62,-1.74,-1.72,-1.91,-1.91,-1.90
308.61,-0.29,1.61,-0.29,1.61,-1.61,-1.71,-1.69,-1.90,-1.90,-1.89
311.69,-0.29,1.60,-0.29,1.60,-1.60,-1.69,-1.66,-1.88,-1.88,-1.89
314.81,-0.29,1.57,-0.29,1.59,-1.59,-1.66,-1.63,-1.87,-1.87,-1.86
317.96,-0.29,1.57,-0.29,1.58,-1.58,-1.64,-1.60,-1.86,-1.86,-1.86
321.14,-0.29,1.57,-0.29,1.57,-1.57,-1.61,-1.56,-1.85,-1.85,-1.85
324.35,-0.29,1.57,-0.29,1.56,-1.56,-1.58,-1.53,-1.85,-1.85,-1.85
327.59,-0.29,1.55,-0.29,1.55,-1.55,-1.56,-1.50,-1.84,-1.84,-1.84
330.87,-0.29,1.55,-0.29,1.55,-1.55,-1.53,-1.47,-1.84,-1.84,-1.84
334.18,-0.29,1.55,-0.29,1.54,-1.54,-1.51,-1.44,-1.83,-1.83,-1.84
337.52,-0.29,1.54,-0.29,1.54,-1.54,-1.48,-1.42,-1.83,-1.83,-1.83
340.90,-0.29,1.54,-0.29,1.54,-1.54,-1.46,-1.39,-1.83,-1.83,-1.82
344.30,-0.29,1.54,-0.29,1.54,-1.54,-1.44,-1.36,-1.82,-1.83,-1.82
347.75,-0.29,1.54,-0.29,1.54,-1.54,-1.42,-1.34,-1.83,-1.83,-1.82
351.23,-0.29,1.54,-0.29,1.54,-1.54,-1.39,-1.31,-1.83,-1.83,-1.83
354.74,-0.29,1.54,-0.28,1.55,-1.55,-1.37,-1.29,-1.83,-1.83,-1.83
358.28,-0.29,1.55,-0.28,1.55,-1.55,-1.35,-1.27,-1.84,-1.83,-1.84
361.87,-0.29,1.55,-0.28,1.56,-1.56,-1.33,-1.25,-1.85,-1.84,-1.84
365.49,-0.29,1.55,-0.27,1.57,-1.57,-1.31,-1.22,-1.86,-1.84,-1.84
369.14,-0.29,1.57,-0.27,1.58,-1.58,-1.29,-1.20,-1.86,-1.85,-1.85
372.83,-0.28,1.58,-0.27,1.59,-1.59,-1.28,-1.19,-1.86,-1.85,-1.85
376.56,-0.28,1.59,-0.27,1.59,-1.59,-1.26,-1.17,-1.87,-1.86,-1.86
380.33,-0.27,1.60,-0.27,1.60,-1.60,-1.24,-1.15,-1.87,-1.87,-1.86
384.13,-0.26,1.62,-0.27,1.60,-1.60,-1.23,-1.14,-1.86,-1.88,-1.88
387.97,-0.27,1.62,-0.28,1.60,-1.60,-1.22,-1.12,-1.87,-1.88,-1.89
391.85,-0.27,1.63,-0.29,1.60,-1.60,-1.20,-1.11,-1.87,-1.89,-1.90
395.77,-0.29,1.60,-0.30,1.59,-1.59,-1.19,-1.09,-1.88,-1.90,-1.89
399.73,-0.31,1.59,-0.32,1.58,-1.58,-1.18,-1.08,-1.89,-1.90,-1.90
403.72,-0.33,1.58,-0.34,1.57,-1.57,-1.17,-1.07,-1.89,-1.91,-1.91
407.76,-0.36,1.56,-0.36,1.55,-1.55,-1.16,-1.06,-1.91,-1.91,-1.92
411.84,-0.39,1.52,-0.39,1.53,-1.53,-1.15,-1.05,-1.91,-1.92,-1.91
415.96,-0.42,1.51,-0.42,1.50,-1.50,-1.14,-1.04,-1.92,-1.92,-1.92
420.12,-0.45,1.48,-0.45,1.48,-1.48,-1.13,-1.03,-1.92,-1.92,-1.92
424.32,-0.48,1.45,-0.48,1.45,-1.45,-1.12,-1.02,-1.93,-1.93,-1.92
428.56,-0.51,1.43,-0.51,1.42,-1.42,-1.12,-1.02,-1.93,-1.93,-1.93
432.85,-0.54,1.40,-0.53,1.40,-1.40,-1.11,-1.01,-1.94,-1.93,-1.93
437.18,-0.57,1.37,-0.55,1.38,-1.38,-1.10,-1.00,-1.94,-1.93,-1.93
441.55,-0.59,1.34,-0.57,1.36,-1.36,-1.10,-1.00,-1.95,-1.93,-1.92
445.96,-0.61,1.32,-0.58,1.35,-1.35,-1.10,-0.99,-1.95,-1.93,-1.93
450.42,-0.62,1.32,-0.59,1.34,-1.34,-1.09,-0.99,-1.95,-1.93,-1.94
454.93,-0.63,1.30,-0.60,1.33,-1.33,-1.09,-0.99,-1.95,-1.92,-1.93
