frequency,raw
20.00,10.56
20.20,10.53
20.40,10.51
20.61,10.49
20.81,10.47
21.02,10.45
21.23,10.42
21.44,10.40
21.66,10.38
21.87,10.36
22.09,10.33
22.31,10.31
22.54,10.29
22.76,10.27
22.99,10.24
23.22,10.22
23.45,10.20
23.69,10.18
23.92,10.15
24.16,10.13
24.40,10.11
24.65,10.08
24.89,10.06
25.14,10.04
25.39,10.01
25.65,9.99
25.91,9.97
26.16,9.94
26.43,9.92
26.69,9.90
26.96,9.87
27.23,9.85
27.50,9.83
27.77,9.80
28.05,9.78
28.33,9.75
28.62,9.73
28.90,9.71
29.19,9.68
29.48,9.66
29.78,9.63
30.08,9.61
30.38,9.59
30.68,9.56
30.99,9.54
31.30,9.51
31.61,9.49
31.93,9.47
32.24,9.44
32.57,9.42
32.89,9.40
33.22,9.37
33.55,9.35
33.89,9.32
34.23,9.30
34.57,9.28
34.92,9.25
35.27,9.23
35.62,9.20
35.97,9.18
36.33,9.16
36.70,9.13
37.06,9.11
37.43,9.08
37.81,9.06
38.19,9.03
38.57,9.01
38.95,8.98
39.34,8.96
39.74,8.93
40.14,8.91
40.54,8.88
40.94,8.86
41.35,8.83
41.76,8.81
42.18,8.78
42.60,8.75
43.03,8.73
43.46,8.70
43.90,8.68
44.33,8.65
44.78,8.62
45.23,8.60
45.68,8.57
46.13,8.54
46.60,8.52
47.06,8.49
47.53,8.46
48.01,8.44
48.49,8.41
48.97,8.38
49.46,8.35
49.96,8.33
50.46,8.30
50.96,8.27
51.47,8.24
51.99,8.22
52.51,8.19
53.03,8.16
53.56,8.13
54.10,8.10
54.64,8.08
55.18,8.05
55.74,8.02
56.29,7.99
56.86,7.96
57.42,7.93
58.00,7.90
58.58,7.88
59.16,7.85
59.76,7.82
60.35,7.79
60.96,7.76
61.57,7.73
62.18,7.70
62.80,7.68
63.43,7.65
64.07,7.62
64.71,7.59
65.35,7.56
66.01,7.53
66.67,7.50
67.33,7.48
68.01,7.45
68.69,7.42
69.37,7.39
70.07,7.36
70.77,7.33
71.48,7.30
72.19,7.28
72.91,7.25
73.64,7.22
74.38,7.19
75.12,7.16
75.87,7.13
76.63,7.10
77.40,7.07
78.17,7.04
78.95,7.01
79.74,6.98
80.54,6.95
81.35,6.92
82.16,6.89
82.98,6.86
83.81,6.83
84.65,6.79
85.50,6.76
86.35,6.73
87.22,6.70
88.09,6.67
88.97,6.64
89.86,6.60
90.76,6.57
91.66,6.54
92.58,6.51
93.51,6.48
94.44,6.45
95.39,6.41
96.34,6.38
97.30,6.35
98.28,6.32
99.26,6.29
100.25,6.26
101.25,6.22
102.27,6.19
103.29,6.16
104.32,6.13
105.37,6.10
106.42,6.07
107.48,6.04
108.56,6.01
109.64,5.98
110.74,5.95
111.85,5.91
112.97,5.88
114.10,5.85
115.24,5.82
116.39,5.79
117.55,5.76
118.73,5.73
119.92,5.70
121.12,5.66
122.33,5.63
123.55,5.60
124.79,5.57
126.03,5.54
127.29,5.50
128.57,5.47
129.85,5.44
131.15,5.41
132.46,5.37
133.79,5.34
135.12,5.31
136.48,5.27
137.84,5.24
139.22,5.21
140.61,5.17
142.02,5.14
143.44,5.11
144.87,5.07
146.32,5.04
147.78,5.01
149.26,4.97
150.75,4.94
152.26,4.91
153.78,4.87
155.32,4.84
156.88,4.81
158.44,4.77
160.03,4.74
161.63,4.71
163.24,4.68
164.88,4.64
166.53,4.61
168.19,4.58
169.87,4.55
171.57,4.52
173.29,4.48
175.02,4.45
176.77,4.42
178.54,4.39
180.32,4.36
182.13,4.33
183.95,4.30
185.79,4.26
187.65,4.23
189.52,4.20
191.42,4.17
193.33,4.14
195.27,4.10
197.22,4.07
199.19,4.04
201.18,4.01
203.19,3.98
205.23,3.94
207.28,3.91
209.35,3.88
211.44,3.85
213.56,3.81
215.69,3.78
217.85,3.75
220.03,3.72
222.23,3.68
224.45,3.65
226.70,3.62
228.96,3.59
231.25,3.55
233.57,3.52
235.90,3.49
238.26,3.45
240.64,3.42
243.05,3.39
245.48,3.36
247.93,3.33
250.41,3.29
252.92,3.26
255.45,3.23
258.00,3.20
260.58,3.16
263.19,3.13
265.82,3.10
268.48,3.07
271.16,3.04
273.87,3.01
276.61,2.97
279.38,2.94
282.17,2.91
284.99,2.88
287.84,2.85
290.72,2.82
293.63,2.78
296.57,2.75
299.53,2.72
302.53,2.69
305.55,2.66
308.61,2.63
311.69,2.59
314.81,2.56
317.96,2.53
321.14,2.50
324.35,2.47
327.59,2.44
330.87,2.40
334.18,2.37
337.52,2.34
340.90,2.31
344.30,2.28
347.75,2.25
351.23,2.22
354.74,2.18
358.28,2.15
361.87,2.12
365.49,2.09
369.14,2.06
372.83,2.03
376.56,2.00
380.33,1.97
384.13,1.94
387.97,1.91
391.85,1.88
395.77,1.85
399.73,1.82
403.72,1.80
407.76,1.77
411.84,1.74
415.96,1.71
420.12,1.68
424.32,1.66
428.56,1.63
432.85,1.60
437.18,1.57
441.55,1.55
445.96,1.52
450.42,1.50
454.93,1.47
459.48,1.44
464.07,1.42
468.71,1.39
473.40,1.37
478.13,1.34
482.91,1.31
487.74,1.29
492.62,1.26
497.55,1.24
502.52,1.21
507.55,1.19
512.62,1.16
517.75,1.14
522.93,1.11
528.16,1.09
533.44,1.06
538.77,1.04
544.16,1.01
549.60,0.99
555.10,0.96
560.65,0.94
566.25,0.91
571.92,0.89
577.64,0.86
583.41,0.84
589.25,0.82
595.14,0.79
601.09,0.77
607.10,0.75
613.17,0.73
619.30,0.70
625.50,0.68
631.75,0.66
638.07,0.64
644.45,0.62
650.89,0.59
657.40,0.57
663.98,0.55
670.62,0.53
677.32,0.51
684.10,0.49
690.94,0.47
697.85,0.45
704.83,0.43
711.87,0.41
718.99,0.40
726.18,0.38
733.44,0.36
740.78,0.34
748.19,0.33
755.67,0.31
763.23,0.29
770.86,0.28
778.57,0.26
786.35,0.25
794.22,0.24
802.16,0.22
810.18,0.21
818.28,0.20
826.46,0.19
834.73,0.18
843.08,0.16
851.51,0.15
860.02,0.14
868.62,0.14
877.31,0.13
886.08,0.12
894.94,0.11
903.89,0.10
912.93,0.09
922.06,0.09
931.28,0.08
940.59,0.07
950.00,0.06
959.50,0.05
969.09,0.04
978.78,0.03
988.57,0.01
998.46,0.00
1008.44,-0.01
1018.53,-0.02
1028.71,-0.04
1039.00,-0.05
1049.39,-0.06
1059.88,-0.08
1070.48,-0.09
1081.19,-0.11
1092.00,-0.12
1102.92,-0.14
1113.95,-0.16
1125.09,-0.17
1136.34,-0.19
1147.70,-0.21
1159.18,-0.22
1170.77,-0.24
1182.48,-0.25
1194.30,-0.27
1206.25,-0.28
1218.31,-0.29
1230.49,-0.31
1242.80,-0.32
1255.22,-0.33
1267.78,-0.34
1280.45,-0.36
1293.26,-0.37
1306.19,-0.38
1319.25,-0.39
1332.45,-0.40
1345.77,-0.41
1359.23,-0.42
1372.82,-0.42
1386.55,-0.43
1400.41,-0.44
1414.42,-0.45
1428.56,-0.45
1442.85,-0.46
1457.28,-0.47
1471.85,-0.48
1486.57,-0.48
1501.43,-0.49
1516.45,-0.49
1531.61,-0.50
1546.93,-0.51
1562.40,-0.51
1578.02,-0.52
1593.80,-0.52
1609.74,-0.53
1625.84,-0.53
1642.10,-0.54
1658.52,-0.54
1675.10,-0.55
1691.85,-0.55
1708.77,-0.56
1725.86,-0.56
1743.12,-0.56
1760.55,-0.57
1778.15,-0.57
1795.94,-0.58
1813.90,-0.58
1832.03,-0.58
1850.36,-0.59
1868.86,-0.59
1887.55,-0.59
1906.42,-0.59
1925.49,-0.60
1944.74,-0.60
1964.19,-0.60
1983.83,-0.60
2003.67,-0.60
2023.71,-0.61
2043.94,-0.61
2064.38,-0.61
2085.03,-0.61
2105.88,-0.61
2126.94,-0.61
2148.20,-0.61
2169.69,-0.61
2191.38,-0.61
2213.30,-0.61
2235.43,-0.61
2257.78,-0.61
2280.36,-0.61
2303.17,-0.61
2326.20,-0.61
2349.46,-0.61
2372.95,-0.61
2396.68,-0.61
2420.65,-0.61
2444.86,-0.61
2469.31,-0.61
2494.00,-0.61
2518.94,-0.61
2544.13,-0.61
2569.57,-0.61
2595.27,-0.61
2621.22,-0.60
2647.43,-0.60
2673.90,-0.60
2700.64,-0.60
2727.65,-0.60
2754.93,-0.60
2782.48,-0.60
2810.30,-0.60
2838.40,-0.60
2866.79,-0.60
2895.46,-0.61
2924.41,-0.61
2953.65,-0.61
2983.19,-0.61
3013.02,-0.61
3043.15,-0.61
3073.58,-0.61
3104.32,-0.61
3135.36,-0.62
3166.72,-0.62
3198.38,-0.62
3230.37,-0.62
3262.67,-0.63
3295.30,-0.63
3328.25,-0.63
3361.53,-0.64
3395.15,-0.64
3429.10,-0.65
3463.39,-0.65
3498.03,-0.65
3533.01,-0.66
3568.34,-0.66
3604.02,-0.67
3640.06,-0.67
3676.46,-0.68
3713.22,-0.68
3750.36,-0.69
3787.86,-0.69
3825.74,-0.69
3864.00,-0.70
3902.64,-0.70
3941.66,-0.70
3981.08,-0.71
4020.89,-0.71
4061.10,-0.71
4101.71,-0.71
4142.73,-0.71
4184.15,-0.72
4226.00,-0.72
4268.26,-0.72
4310.94,-0.72
4354.05,-0.72
4397.59,-0.72
4441.56,-0.72
4485.98,-0.72
4530.84,-0.72
4576.15,-0.72
4621.91,-0.72
4668.13,-0.72
4714.81,-0.72
4761.96,-0.72
4809.58,-0.72
4857.67,-0.71
4906.25,-0.71
4955.31,-0.70
5004.87,-0.70
5054.91,-0.69
5105.46,-0.69
5156.52,-0.68
5208.08,-0.67
5260.16,-0.67
5312.77,-0.66
5365.89,-0.65
5419.55,-0.64
5473.75,-0.63
5528.49,-0.62
5583.77,-0.61
5639.61,-0.60
5696.00,-0.59
5752.96,-0.58
5810.49,-0.57
5868.60,-0.55
5927.28,-0.54
5986.56,-0.52
6046.42,-0.50
6106.89,-0.49
6167.96,-0.47
6229.64,-0.45
6291.93,-0.43
6354.85,-0.41
6418.40,-0.39
6482.58,-0.37
6547.41,-0.35
6612.88,-0.32
6679.01,-0.30
6745.80,-0.28
6813.26,-0.25
6881.39,-0.22
6950.21,-0.20
7019.71,-0.17
7089.91,-0.14
7160.81,-0.11
7232.41,-0.08
7304.74,-0.05
7377.79,-0.02
7451.56,0.02
7526.08,0.05
7601.34,0.09
7677.35,0.12
7754.13,0.16
7831.67,0.20
7909.98,0.24
7989.08,0.28
8068.98,0.32
8149.67,0.36
8231.16,0.41
8313.47,0.45
8396.61,0.50
8480.57,0.54
8565.38,0.59
8651.03,0.64
8737.54,0.69
8824.92,0.74
8913.17,0.79
9002.30,0.84
9092.32,0.90
9183.25,0.95
9275.08,1.01
9367.83,1.07
9461.51,1.12
9556.12,1.19
9651.68,1.25
9748.20,1.31
9845.68,1.37
9944.14,1.44
10043.58,1.51
10144.02,1.57
10245.46,1.64
10347.91,1.71
10451.39,1.79
10555.91,1.86
10661.46,1.93
10768.08,2.01
10875.76,2.09
10984.52,2.16
11094.36,2.24
11205.31,2.32
11317.36,2.41
11430.53,2.49
11544.84,2.57
11660.29,2.66
11776.89,2.75
11894.66,2.84
12013.60,2.93
12133.74,3.02
12255.08,3.11
12377.63,3.20
12501.41,3.30
12626.42,3.39
12752.68,3.49
12880.21,3.59
13009.01,3.69
13139.10,3.79
13270.49,3.89
13403.20,4.00
13537.23,4.10
13672.60,4.21
13809.33,4.32
13947.42,4.43
14086.90,4.54
14227.77,4.65
14370.04,4.76
14513.74,4.87
14658.88,4.99
14805.47,5.11
14953.52,5.22
15103.06,5.34
15254.09,5.46
15406.63,5.59
15560.70,5.71
15716.30,5.83
15873.47,5.96
16032.20,6.09
16192.52,6.21
16354.45,6.34
16517.99,6.47
16683.17,6.61
16850.01,6.74
17018.51,6.87
17188.69,7.01
17360.58,7.15
17534.18,7.28
17709.53,7.42
17886.62,7.56
18065.49,7.71
18246.14,7.85
18428.60,8.00
18612.89,8.14
18799.02,8.29
18987.01,8.44
19176.88,8.59
19368.65,8.74
19562.33,8.89
19757.96,9.04
19955.54,9.20
