frequency,raw
20,-30.07
21,-29.36
22,-28.57
23,-27.89
24,-27.20
25,-26.42
26,-25.77
27,-25.06
28,-24.42
29,-23.79
30,-23.19
31,-22.69
32,-22.17
33,-21.66
34,-21.16
35,-20.68
36,-20.35
37,-19.88
38,-19.47
39,-19.13
40,-18.68
41,-18.40
42,-17.97
43,-17.65
44,-17.28
45,-16.95
46,-16.61
47,-16.29
48,-15.97
49,-15.67
50,-15.48
51,-15.15
52,-14.98
53,-14.83
54,-14.50
55,-14.43
56,-14.23
57,-14.18
58,-13.86
59,-13.80
60,-13.61
61,-13.53
62,-13.53
63,-13.24
64,-13.21
65,-13.20
66,-13.02
67,-12.88
68,-12.85
69,-12.68
70,-12.56
71,-12.52
72,-12.37
73,-12.23
74,-12.20
75,-11.91
76,-11.91
77,-11.77
78,-11.62
79,-11.48
80,-11.34
81,-11.26
82,-11.18
83,-10.94
84,-10.94
85,-10.82
86,-10.68
87,-10.61
88,-10.59
89,-10.46
90,-10.33
91,-10.21
92,-10.08
93,-9.96
94,-9.96
95,-9.88
96,-9.77
97,-9.65
98,-9.64
99,-9.64
100,-9.63
101,-9.52
102,-9.41
104,-9.32
105,-9.32
106,-9.27
107,-9.06
108,-8.99
109,-8.99
110,-8.99
111,-8.99
112,-8.99
113,-8.90
114,-8.80
115,-8.70
117,-8.67
118,-8.67
119,-8.67
120,-8.67
121,-8.67
123,-8.59
124,-8.50
125,-8.50
126,-8.48
128,-8.34
129,-8.34
130,-8.34
131,-8.34
133,-8.34
134,-8.34
135,-8.34
137,-8.34
138,-8.34
140,-8.34
141,-8.34
142,-8.26
144,-8.11
145,-8.03
147,-8.02
148,-8.02
150,-8.02
151,-8.02
153,-8.02
154,-8.02
156,-8.02
157,-8.02
159,-8.02
160,-8.02
162,-8.02
164,-8.02
165,-8.02
167,-8.02
169,-8.02
170,-8.02
172,-8.02
174,-8.02
175,-8.02
177,-8.02
179,-8.02
181,-8.08
183,-8.16
184,-8.10
186,-8.06
188,-8.18
190,-8.30
192,-8.34
194,-8.34
196,-8.34
198,-8.34
200,-8.34
202,-8.34
204,-8.34
206,-8.34
208,-8.34
210,-8.34
212,-8.34
214,-8.34
216,-8.34
218,-8.34
221,-8.34
223,-8.34
225,-8.34
227,-8.34
229,-8.34
232,-8.34
234,-8.34
236,-8.34
239,-8.34
241,-8.34
244,-8.34
246,-8.34
248,-8.29
251,-8.16
253,-8.07
256,-8.02
259,-8.02
261,-8.02
264,-8.02
266,-7.96
269,-7.70
272,-7.69
274,-7.69
277,-7.69
280,-7.45
283,-7.37
286,-7.33
288,-7.25
291,-7.14
294,-7.02
297,-6.90
300,-6.79
303,-6.68
306,-6.57
309,-6.46
312,-6.35
316,-6.20
319,-6.10
322,-5.91
325,-5.73
328,-5.62
332,-5.38
335,-5.22
338,-5.12
342,-4.88
345,-4.68
349,-4.43
352,-4.34
356,-4.13
359,-3.94
363,-3.69
366,-3.51
370,-3.26
374,-3.02
377,-2.84
381,-2.63
385,-2.52
389,-2.29
393,-2.06
397,-1.83
401,-1.61
405,-1.38
409,-1.16
413,-0.94
417,-0.72
421,-0.53
425,-0.43
430,-0.19
434,-0.03
438,0.08
443,0.32
447,0.47
451,0.57
456,0.69
460,0.85
465,1.06
470,1.06
474,1.20
479,1.39
484,1.39
489,1.48
494,1.60
499,1.71
504,1.71
509,1.77
514,1.88
519,1.99
524,2.04
529,2.04
535,2.04
540,2.04
545,2.04
551,2.04
556,2.04
562,2.04
568,2.04
573,2.04
579,2.04
585,2.04
591,2.04
596,2.04
602,2.03
608,1.91
615,1.78
621,1.71
627,1.71
633,1.71
639,1.64
646,1.39
652,1.39
659,1.39
665,1.39
672,1.27
679,1.15
686,1.06
692,1.06
699,1.06
706,1.01
713,0.79
721,0.74
728,0.74
735,0.74
742,0.64
750,0.52
757,0.41
765,0.41
773,0.41
780,0.40
788,0.28
796,0.17
804,0.09
812,0.09
820,0.09
828,0.09
837,0.09
845,0.09
853,0.09
862,0.08
871,-0.04
879,-0.00
888,0.07
897,-0.05
906,0.01
915,0.09
924,0.09
933,0.09
943,0.09
952,0.09
962,0.09
971,0.09
981,0.08
991,-0.04
1001,0.00
1011,0.09
1021,0.09
1031,0.09
1041,0.09
1052,0.09
1062,0.09
1073,0.09
1084,0.09
1094,0.09
1105,0.03
1116,-0.08
1128,-0.20
1139,-0.23
1150,-0.23
1162,-0.23
1173,-0.23
1185,-0.23
1197,-0.23
1209,-0.23
1221,-0.23
1233,-0.23
1246,-0.23
1258,-0.23
1271,-0.23
1283,-0.23
1296,-0.23
1309,-0.23
1322,-0.23
1335,-0.23
1349,-0.23
1362,-0.23
1376,-0.23
1390,-0.23
1404,-0.23
1418,-0.23
1432,-0.23
1446,-0.23
1461,-0.23
1475,-0.23
1490,-0.23
1505,-0.23
1520,-0.23
1535,-0.23
1550,-0.23
1566,-0.13
1582,-0.02
1597,0.09
1613,0.09
1629,0.09
1646,0.12
1662,0.34
1679,0.41
1696,0.41
1713,0.41
1730,0.60
1747,0.74
1764,0.74
1782,0.94
1800,1.06
1818,1.07
1836,1.18
1854,1.29
1873,1.40
1892,1.52
1911,1.63
1930,1.71
1949,1.71
1969,1.81
1988,1.91
2008,2.03
2028,2.04
2048,2.04
2069,2.04
2090,2.15
2111,2.27
2132,2.36
2153,2.36
2175,2.36
2196,2.36
2218,2.36
2240,2.36
2263,2.36
2285,2.36
2308,2.46
2331,2.58
2355,2.68
2378,2.68
2402,2.62
2426,2.50
2450,2.39
2475,2.36
2500,2.36
2525,2.36
2550,2.36
2575,2.36
2601,2.36
2627,2.25
2653,2.14
2680,2.04
2707,2.04
2734,2.04
2761,2.04
2789,2.04
2817,2.04
2845,2.04
2873,2.04
2902,1.94
2931,1.87
2960,1.87
2990,1.77
3020,1.71
3050,1.71
3080,1.71
3111,1.71
3142,1.71
3174,1.71
3206,1.71
3238,1.71
3270,1.71
3303,1.71
3336,1.71
3369,1.71
3403,1.71
3437,1.71
3471,1.71
3506,1.71
3541,1.64
3576,1.53
3612,1.42
3648,1.39
3685,1.39
3721,1.39
3759,1.19
3796,1.02
3834,0.90
3873,0.79
3911,0.62
3950,0.40
3990,0.29
4030,0.18
4070,0.04
4111,-0.18
4152,-0.32
4193,-0.43
4235,-0.54
4278,-0.76
4321,-0.98
4364,-1.21
4407,-1.43
4451,-1.65
4496,-1.87
4541,-1.98
4586,-2.09
4632,-2.20
4679,-2.32
4725,-2.43
4773,-2.50
4820,-2.50
4868,-2.50
4917,-2.50
4966,-2.50
5016,-2.50
5066,-2.50
5117,-2.53
5168,-2.75
5220,-2.83
5272,-2.83
5325,-2.83
5378,-2.83
5432,-2.83
5486,-2.83
5541,-2.83
5596,-2.83
5652,-2.83
5709,-2.83
5766,-2.77
5823,-2.65
5882,-2.54
5940,-2.43
6000,-2.32
6060,-2.20
6120,-2.00
6182,-1.78
6244,-1.55
6306,-1.43
6369,-1.27
6433,-1.04
6497,-0.82
6562,-0.59
6628,-0.37
6694,-0.14
6761,0.08
6828,0.31
6897,0.53
6966,0.85
7035,1.18
7106,1.52
7177,1.86
7249,2.25
7321,2.69
7394,3.03
7468,3.43
7543,3.88
7618,4.33
7694,4.62
7771,4.91
7849,5.36
7928,5.63
8007,5.85
8087,6.07
8168,6.19
8250,6.36
8332,6.58
8415,6.69
8499,6.80
8584,6.90
8670,6.90
8757,6.90
8845,6.90
8933,6.90
9022,6.90
9113,6.90
9204,6.90
9296,6.90
9389,6.84
9483,6.73
9577,6.62
9673,6.51
9770,6.40
9868,6.28
9966,6.17
10066,6.06
10167,5.95
10268,5.93
10371,5.84
10475,5.61
10579,5.60
10685,5.60
10792,5.60
10900,5.60
11009,5.53
11119,5.42
11230,5.31
11343,5.36
11456,5.47
11571,5.59
11686,5.60
11803,5.60
11921,5.60
12040,5.82
12161,5.93
12282,5.93
12405,5.93
12529,5.79
12655,5.60
12781,5.60
12909,5.44
13038,5.21
13168,4.99
13300,4.76
13433,4.49
13567,4.16
13703,3.93
13840,3.52
13978,2.96
14118,2.28
14259,1.61
14402,0.91
14546,0.12
14692,-0.84
14838,-2.01
14987,-3.59
15137,-5.17
15288,-6.74
15441,-8.31
15595,-9.66
15751,-10.83
15909,-11.79
16068,-12.24
16229,-12.62
16391,-12.91
16555,-13.02
16720,-13.13
16888,-13.21
17056,-13.21
17227,-13.40
17399,-13.58
17573,-13.69
17749,-13.81
17926,-13.98
18106,-14.19
18287,-14.30
18470,-14.42
18654,-14.53
18841,-14.64
19029,-14.84
19220,-15.07
19412,-15.29
19606,-15.52
19802,-15.74
20000,-15.96
