frequency,raw,smoothed,error,error_smoothed,equalization,parametric_eq,fixed_band_eq,equalized_raw,equalized_smoothed,target
20.00,4.13,4.14,-3.41,-3.41,3.41,2.97,1.15,7.54,7.55,7.54
20.20,4.14,4.14,-3.40,-3.40,3.40,2.97,1.18,7.55,7.54,7.54
20.40,4.14,4.14,-3.40,-3.40,3.39,2.97,1.22,7.54,7.54,7.54
20.61,4.15,4.15,-3.39,-3.39,3.38,2.96,1.25,7.53,7.53,7.54
20.81,4.16,4.16,-3.38,-3.37,3.37,2.96,1.29,7.53,7.53,7.54
21.02,4.18,4.18,-3.35,-3.36,3.35,2.95,1.33,7.54,7.53,7.54
21.23,4.20,4.20,-3.33,-3.34,3.34,2.95,1.37,7.54,7.54,7.54
21.44,4.22,4.22,-3.31,-3.31,3.32,2.95,1.41,7.54,7.54,7.54
21.66,4.24,4.24,-3.29,-3.29,3.29,2.94,1.45,7.53,7.53,7.53
21.87,4.26,4.27,-3.27,-3.27,3.27,2.94,1.49,7.53,7.53,7.53
22.09,4.29,4.29,-3.24,-3.24,3.24,2.93,1.54,7.53,7.53,7.53
22.31,4.32,4.32,-3.21,-3.21,3.21,2.93,1.58,7.54,7.53,7.53
22.54,4.34,4.35,-3.19,-3.19,3.19,2.92,1.63,7.53,7.53,7.53
22.76,4.37,4.37,-3.16,-3.16,3.16,2.92,1.68,7.53,7.53,7.53
22.99,4.40,4.40,-3.13,-3.13,3.13,2.91,1.73,7.53,7.53,7.53
23.22,4.43,4.43,-3.10,-3.10,3.10,2.91,1.78,7.53,7.53,7.53
23.45,4.45,4.45,-3.08,-3.07,3.08,2.90,1.83,7.53,7.53,7.53
23.69,4.47,4.48,-3.05,-3.05,3.05,2.90,1.88,7.52,7.53,7.53
23.92,4.50,4.50,-3.02,-3.03,3.03,2.89,1.94,7.53,7.53,7.53
24.16,4.52,4.52,-3.00,-3.01,3.01,2.89,1.99,7.53,7.53,7.52
24.40,4.53,4.54,-2.99,-2.99,2.99,2.88,2.05,7.52,7.52,7.52
24.65,4.55,4.55,-2.97,-2.97,2.97,2.88,2.10,7.52,7.52,7.52
24.89,4.57,4.57,-2.95,-2.95,2.95,2.87,2.16,7.52,7.52,7.52
25.14,4.59,4.59,-2.93,-2.93,2.93,2.87,2.22,7.52,7.52,7.52
25.39,4.61,4.61,-2.91,-2.90,2.90,2.86,2.27,7.52,7.52,7.52
25.65,4.63,4.64,-2.88,-2.88,2.88,2.86,2.33,7.51,7.51,7.52
25.91,4.66,4.66,-2.85,-2.86,2.85,2.85,2.39,7.52,7.51,7.51
26.16,4.68,4.68,-2.83,-2.83,2.83,2.84,2.44,7.51,7.51,7.51
26.43,4.70,4.71,-2.81,-2.81,2.80,2.84,2.50,7.51,7.51,7.51
26.69,4.73,4.73,-2.78,-2.78,2.78,2.83,2.56,7.51,7.51,7.51
26.96,4.75,4.75,-2.76,-2.76,2.76,2.82,2.61,7.51,7.51,7.51
27.23,4.77,4.77,-2.73,-2.74,2.74,2.82,2.66,7.51,7.51,7.51
27.50,4.78,4.78,-2.72,-2.72,2.72,2.81,2.72,7.51,7.51,7.50
27.77,4.79,4.79,-2.71,-2.71,2.72,2.80,2.77,7.51,7.51,7.50
28.05,4.80,4.80,-2.70,-2.70,2.71,2.80,2.81,7.52,7.51,7.50
28.33,4.79,4.79,-2.71,-2.70,2.72,2.79,2.86,7.51,7.51,7.50
28.62,4.78,4.78,-2.71,-2.71,2.73,2.78,2.90,7.51,7.51,7.50
28.90,4.76,4.76,-2.73,-2.73,2.74,2.78,2.94,7.50,7.50,7.49
29.19,4.74,4.74,-2.75,-2.75,2.74,2.77,2.98,7.49,7.49,7.49
29.48,4.72,4.73,-2.77,-2.76,2.75,2.76,3.01,7.47,7.48,7.49
29.78,4.73,4.73,-2.75,-2.76,2.74,2.75,3.04,7.47,7.47,7.49
30.08,4.73,4.74,-2.75,-2.75,2.73,2.75,3.06,7.46,7.46,7.48
30.38,4.76,4.76,-2.72,-2.72,2.70,2.74,3.09,7.46,7.47,7.48
30.68,4.80,4.80,-2.68,-2.68,2.67,2.73,3.10,7.47,7.47,7.48
30.99,4.85,4.85,-2.62,-2.63,2.63,2.72,3.12,7.48,7.48,7.48
31.30,4.89,4.89,-2.58,-2.58,2.59,2.71,3.12,7.48,7.49,7.47
31.61,4.93,4.93,-2.54,-2.54,2.55,2.70,3.13,7.49,7.48,7.47
31.93,4.96,4.96,-2.50,-2.51,2.52,2.69,3.12,7.48,7.48,7.47
32.24,4.98,4.98,-2.48,-2.48,2.49,2.69,3.12,7.47,7.47,7.46
32.57,5.00,5.00,-2.46,-2.46,2.46,2.68,3.11,7.46,7.46,7.46
32.89,5.01,5.02,-2.44,-2.44,2.44,2.67,3.09,7.45,7.45,7.46
33.22,5.03,5.03,-2.42,-2.42,2.42,2.66,3.08,7.45,7.45,7.45
33.55,5.04,5.04,-2.41,-2.41,2.40,2.65,3.06,7.44,7.44,7.45
33.89,5.05,5.05,-2.39,-2.39,2.39,2.64,3.03,7.44,7.44,7.44
34.23,5.06,5.07,-2.38,-2.37,2.37,2.63,3.00,7.43,7.44,7.44
34.57,5.08,5.08,-2.35,-2.36,2.36,2.62,2.97,7.44,7.44,7.44
34.92,5.09,5.09,-2.34,-2.34,2.34,2.61,2.94,7.44,7.44,7.43
35.27,5.10,5.10,-2.32,-2.33,2.33,2.60,2.90,7.43,7.43,7.43
35.62,5.10,5.10,-2.32,-2.32,2.32,2.59,2.87,7.42,7.43,7.42
35.97,5.10,5.10,-2.31,-2.31,2.31,2.58,2.83,7.42,7.42,7.42
36.33,5.10,5.10,-2.31,-2.31,2.31,2.56,2.79,7.41,7.41,7.41
36.70,5.10,5.10,-2.30,-2.30,2.30,2.55,2.74,7.40,7.40,7.41
37.06,5.10,5.10,-2.30,-2.30,2.29,2.54,2.70,7.40,7.40,7.40
37.43,5.10,5.10,-2.29,-2.29,2.29,2.53,2.66,7.39,7.39,7.39
37.81,5.11,5.11,-2.28,-2.28,2.28,2.52,2.62,7.39,7.38,7.39
38.19,5.11,5.11,-2.27,-2.27,2.26,2.51,2.58,7.38,7.38,7.38
38.57,5.12,5.12,-2.25,-2.25,2.25,2.49,2.53,7.37,7.38,7.37
38.95,5.13,5.13,-2.24,-2.24,2.24,2.48,2.49,7.37,7.37,7.37
39.34,5.14,5.14,-2.22,-2.22,2.22,2.47,2.45,7.37,7.36,7.36
39.74,5.14,5.15,-2.21,-2.21,2.21,2.45,2.41,7.35,7.36,7.35
40.14,5.15,5.15,-2.19,-2.20,2.20,2.44,2.37,7.35,7.35,7.35
40.54,5.15,5.15,-2.19,-2.18,2.18,2.43,2.34,7.33,7.34,7.34
40.94,5.16,5.16,-2.17,-2.17,2.17,2.41,2.30,7.33,7.33,7.33
41.35,5.16,5.17,-2.16,-2.16,2.16,2.40,2.26,7.32,7.32,7.32
41.76,5.17,5.17,-2.14,-2.14,2.15,2.38,2.23,7.32,7.32,7.31
42.18,5.17,5.17,-2.13,-2.13,2.13,2.37,2.20,7.31,7.31,7.30
42.60,5.17,5.17,-2.12,-2.12,2.12,2.36,2.17,7.30,7.30,7.29
43.03,5.17,5.17,-2.11,-2.11,2.11,2.34,2.14,7.28,7.28,7.28
43.46,5.17,5.17,-2.10,-2.10,2.10,2.32,2.11,7.27,7.27,7.27
43.90,5.17,5.17,-2.09,-2.09,2.09,2.31,2.09,7.26,7.26,7.26
44.33,5.17,5.18,-2.08,-2.08,2.08,2.29,2.06,7.25,7.25,7.25
44.78,5.18,5.18,-2.06,-2.06,2.06,2.28,2.04,7.25,7.24,7.24
45.23,5.18,5.18,-2.05,-2.05,2.05,2.26,2.02,7.23,7.23,7.23
45.68,5.18,5.18,-2.04,-2.04,2.04,2.24,2.00,7.22,7.22,7.22
46.13,5.18,5.18,-2.02,-2.02,2.02,2.23,1.98,7.21,7.21,7.21
46.60,5.18,5.18,-2.01,-2.01,2.01,2.21,1.96,7.19,7.19,7.19
47.06,5.18,5.18,-2.00,-2.00,2.00,2.19,1.95,7.18,7.18,7.18
47.53,5.18,5.18,-1.98,-1.99,1.99,2.17,1.94,7.17,7.17,7.17
48.01,5.17,5.17,-1.98,-1.98,1.98,2.15,1.93,7.15,7.15,7.15
48.49,5.16,5.17,-1.97,-1.97,1.97,2.13,1.91,7.13,7.14,7.14
48.97,5.16,5.16,-1.96,-1.96,1.96,2.12,1.91,7.12,7.12,7.12
49.46,5.15,5.15,-1.95,-1.95,1.95,2.10,1.90,7.10,7.10,7.11
49.96,5.14,5.15,-1.95,-1.94,1.94,2.08,1.89,7.08,7.09,7.09
50.46,5.14,5.14,-1.93,-1.93,1.93,2.06,1.89,7.07,7.07,7.07
50.96,5.13,5.14,-1.92,-1.92,1.92,2.04,1.88,7.05,7.06,7.05
51.47,5.13,5.13,-1.90,-1.91,1.91,2.01,1.88,7.04,7.04,7.04
51.99,5.12,5.12,-1.90,-1.90,1.90,1.99,1.87,7.02,7.02,7.02
52.51,5.11,5.12,-1.89,-1.88,1.88,1.97,1.87,6.99,7.00,7.00
53.03,5.11,5.11,-1.87,-1.87,1.87,1.95,1.87,6.98,6.97,6.98
53.56,5.10,5.11,-1.86,-1.85,1.85,1.93,1.86,6.95,6.96,6.96
54.10,5.10,5.10,-1.83,-1.83,1.83,1.90,1.86,6.94,6.94,6.94
54.64,5.10,5.10,-1.81,-1.82,1.82,1.88,1.86,6.92,6.92,6.92
55.18,5.09,5.09,-1.80,-1.80,1.80,1.86,1.85,6.89,6.90,6.89
55.74,5.08,5.08,-1.79,-1.79,1.79,1.83,1.85,6.87,6.87,6.87
56.29,5.07,5.07,-1.77,-1.77,1.77,1.81,1.84,6.84,6.84,6.84
56.86,5.06,5.06,-1.76,-1.76,1.76,1.78,1.84,6.82,6.82,6.82
57.42,5.05,5.05,-1.74,-1.74,1.75,1.76,1.83,6.80,6.80,6.79
58.00,5.04,5.04,-1.73,-1.73,1.73,1.73,1.82,6.78,6.77,6.77
58.58,5.02,5.02,-1.72,-1.72,1.72,1.71,1.81,6.74,6.74,6.74
59.16,5.00,5.01,-1.71,-1.71,1.70,1.68,1.80,6.70,6.71,6.71
59.76,4.99,4.99,-1.69,-1.69,1.68,1.65,1.79,6.68,6.67,6.68
60.35,4.98,4.99,-1.67,-1.67,1.66,1.63,1.78,6.64,6.65,6.65
60.96,4.98,4.98,-1.64,-1.64,1.64,1.60,1.76,6.62,6.62,6.62
61.57,4.98,4.98,-1.61,-1.61,1.62,1.57,1.74,6.60,6.59,6.59
62.18,4.97,4.98,-1.59,-1.58,1.59,1.54,1.72,6.56,6.56,6.56
62.80,4.97,4.97,-1.55,-1.56,1.56,1.51,1.70,6.53,6.53,6.53
63.43,4.96,4.96,-1.53,-1.53,1.53,1.48,1.67,6.49,6.49,6.49
64.07,4.95,4.95,-1.50,-1.50,1.50,1.45,1.64,6.46,6.46,6.46
64.71,4.94,4.94,-1.48,-1.48,1.48,1.42,1.61,6.42,6.42,6.42
65.35,4.93,4.93,-1.45,-1.45,1.45,1.39,1.58,6.38,6.38,6.38
66.01,4.92,4.92,-1.42,-1.42,1.42,1.36,1.55,6.35,6.35,6.35
66.67,4.91,4.91,-1.39,-1.40,1.40,1.33,1.51,6.31,6.31,6.31
67.33,4.89,4.90,-1.37,-1.37,1.37,1.29,1.47,6.26,6.27,6.27
68.01,4.88,4.88,-1.34,-1.34,1.34,1.26,1.43,6.22,6.22,6.23
68.69,4.87,4.87,-1.31,-1.31,1.32,1.23,1.39,6.19,6.18,6.18
69.37,4.85,4.86,-1.29,-1.28,1.29,1.19,1.35,6.14,6.14,6.14
70.07,4.84,4.84,-1.25,-1.26,1.26,1.16,1.30,6.10,6.10,6.10
70.77,4.82,4.82,-1.23,-1.23,1.23,1.12,1.26,6.05,6.05,6.05
71.48,4.80,4.81,-1.20,-1.20,1.20,1.09,1.21,6.00,6.00,6.01
72.19,4.79,4.79,-1.17,-1.17,1.17,1.05,1.16,5.96,5.96,5.96
72.91,4.77,4.77,-1.14,-1.14,1.13,1.02,1.11,5.91,5.91,5.91
73.64,4.76,4.76,-1.10,-1.10,1.10,0.98,1.06,5.86,5.86,5.86
74.38,4.74,4.75,-1.07,-1.07,1.07,0.94,1.01,5.81,5.81,5.81
75.12,4.73,4.73,-1.03,-1.03,1.03,0.90,0.96,5.76,5.76,5.76
75.87,4.71,4.71,-0.99,-0.99,0.99,0.87,0.91,5.71,5.71,5.71
76.63,4.69,4.70,-0.96,-0.96,0.96,0.83,0.85,5.65,5.65,5.65
77.40,4.68,4.68,-0.92,-0.92,0.92,0.79,0.80,5.60,5.60,5.60
78.17,4.66,4.66,-0.88,-0.88,0.88,0.75,0.75,5.55,5.55,5.54
78.95,4.64,4.64,-0.85,-0.84,0.85,0.71,0.69,5.49,5.49,5.49
79.74,4.62,4.62,-0.81,-0.81,0.81,0.67,0.64,5.43,5.43,5.43
80.54,4.60,4.60,-0.77,-0.77,0.77,0.63,0.59,5.37,5.37,5.37
81.35,4.58,4.58,-0.73,-0.73,0.73,0.59,0.53,5.31,5.31,5.31
82.16,4.56,4.56,-0.69,-0.69,0.69,0.55,0.48,5.25,5.25,5.25
82.98,4.54,4.54,-0.65,-0.65,0.64,0.50,0.43,5.19,5.19,5.19
83.81,4.53,4.53,-0.60,-0.60,0.60,0.46,0.37,5.13,5.13,5.13
84.65,4.51,4.52,-0.55,-0.55,0.55,0.42,0.32,5.06,5.07,5.07
85.50,4.50,4.50,-0.50,-0.50,0.51,0.38,0.26,5.01,5.01,5.00
86.35,4.48,4.48,-0.46,-0.46,0.46,0.33,0.21,4.94,4.94,4.94
87.22,4.46,4.46,-0.41,-0.41,0.41,0.29,0.16,4.87,4.88,4.87
88.09,4.44,4.44,-0.37,-0.36,0.37,0.25,0.10,4.81,4.81,4.81
88.97,4.42,4.42,-0.32,-0.32,0.32,0.20,0.05,4.74,4.74,4.74
89.86,4.40,4.40,-0.27,-0.27,0.27,0.16,-0.00,4.68,4.67,4.67
90.76,4.37,4.38,-0.23,-0.23,0.23,0.12,-0.06,4.60,4.60,4.61
91.66,4.35,4.35,-0.18,-0.18,0.18,0.07,-0.11,4.53,4.54,4.54
92.58,4.33,4.33,-0.14,-0.14,0.14,0.03,-0.16,4.47,4.47,4.47
93.51,4.31,4.31,-0.09,-0.09,0.09,-0.02,-0.22,4.40,4.40,4.40
94.44,4.28,4.29,-0.05,-0.04,0.05,-0.06,-0.27,4.33,4.33,4.33
95.39,4.26,4.26,0.01,0.00,0.00,-0.10,-0.32,4.26,4.26,4.26
96.34,4.23,4.23,0.05,0.04,-0.04,-0.15,-0.38,4.19,4.19,4.19
97.30,4.20,4.20,0.09,0.09,-0.09,-0.19,-0.43,4.11,4.11,4.11
98.28,4.17,4.17,0.13,0.13,-0.13,-0.24,-0.48,4.04,4.04,4.04
99.26,4.15,4.15,0.18,0.18,-0.18,-0.28,-0.53,3.97,3.97,3.97
100.25,4.12,4.12,0.22,0.23,-0.23,-0.33,-0.59,3.89,3.90,3.90
101.25,4.10,4.10,0.28,0.27,-0.28,-0.37,-0.64,3.83,3.82,3.83
102.27,4.07,4.07,0.32,0.32,-0.32,-0.41,-0.69,3.75,3.75,3.75
103.29,4.05,4.05,0.37,0.37,-0.37,-0.46,-0.74,3.68,3.68,3.68
104.32,4.03,4.03,0.43,0.42,-0.42,-0.50,-0.79,3.61,3.61,3.61
105.37,4.01,4.01,0.48,0.48,-0.47,-0.54,-0.84,3.54,3.54,3.53
106.42,3.98,3.99,0.52,0.53,-0.52,-0.59,-0.89,3.46,3.46,3.46
107.48,3.96,3.96,0.58,0.57,-0.57,-0.63,-0.94,3.39,3.39,3.39
108.56,3.93,3.93,0.62,0.62,-0.62,-0.67,-0.98,3.31,3.31,3.31
109.64,3.91,3.91,0.67,0.67,-0.67,-0.71,-1.03,3.24,3.24,3.24
110.74,3.88,3.89,0.71,0.72,-0.72,-0.75,-1.07,3.17,3.17,3.17
111.85,3.86,3.86,0.77,0.76,-0.76,-0.79,-1.12,3.10,3.10,3.10
112.97,3.83,3.83,0.81,0.81,-0.81,-0.83,-1.16,3.02,3.02,3.02
114.10,3.80,3.81,0.85,0.85,-0.85,-0.87,-1.20,2.95,2.95,2.95
115.24,3.78,3.78,0.90,0.90,-0.90,-0.91,-1.24,2.89,2.88,2.88
116.39,3.75,3.75,0.94,0.94,-0.94,-0.95,-1.27,2.81,2.81,2.81
117.55,3.72,3.72,0.98,0.98,-0.98,-0.99,-1.31,2.74,2.74,2.74
118.73,3.69,3.69,1.02,1.02,-1.02,-1.03,-1.34,2.67,2.67,2.67
119.92,3.66,3.66,1.06,1.06,-1.06,-1.06,-1.37,2.60,2.60,2.60
121.12,3.63,3.64,1.10,1.10,-1.10,-1.10,-1.40,2.53,2.53,2.53
122.33,3.61,3.61,1.15,1.14,-1.14,-1.14,-1.42,2.47,2.46,2.46
123.55,3.58,3.58,1.19,1.18,-1.18,-1.17,-1.44,2.40,2.40,2.40
124.79,3.55,3.55,1.22,1.22,-1.22,-1.20,-1.46,2.33,2.33,2.33
126.03,3.52,3.53,1.26,1.26,-1.26,-1.24,-1.48,2.26,2.26,2.26
127.29,3.50,3.50,1.30,1.30,-1.30,-1.27,-1.50,2.20,2.20,2.20
128.57,3.47,3.47,1.34,1.34,-1.34,-1.30,-1.51,2.14,2.14,2.13
129.85,3.44,3.44,1.37,1.37,-1.37,-1.33,-1.52,2.07,2.07,2.07
131.15,3.41,3.41,1.41,1.41,-1.41,-1.36,-1.53,2.01,2.01,2.01
132.46,3.38,3.38,1.44,1.44,-1.44,-1.39,-1.54,1.94,1.94,1.94
133.79,3.35,3.35,1.47,1.47,-1.47,-1.42,-1.54,1.88,1.88,1.88
135.12,3.32,3.33,1.50,1.50,-1.50,-1.45,-1.54,1.82,1.82,1.82
136.48,3.30,3.30,1.54,1.54,-1.54,-1.48,-1.54,1.77,1.76,1.76
137.84,3.27,3.27,1.57,1.57,-1.56,-1.50,-1.54,1.71,1.71,1.70
139.22,3.24,3.24,1.60,1.60,-1.59,-1.53,-1.54,1.65,1.65,1.65
140.61,3.21,3.21,1.62,1.62,-1.62,-1.55,-1.54,1.59,1.59,1.59
142.02,3.18,3.18,1.65,1.65,-1.65,-1.57,-1.54,1.53,1.53,1.53
143.44,3.15,3.15,1.67,1.67,-1.67,-1.60,-1.53,1.48,1.48,1.48
144.87,3.12,3.12,1.70,1.70,-1.70,-1.62,-1.53,1.43,1.43,1.43
146.32,3.09,3.09,1.72,1.72,-1.72,-1.64,-1.52,1.37,1.37,1.37
147.78,3.06,3.06,1.74,1.74,-1.74,-1.66,-1.51,1.32,1.32,1.32
149.26,3.03,3.03,1.76,1.76,-1.76,-1.68,-1.51,1.27,1.27,1.27
150.75,3.00,3.00,1.78,1.78,-1.78,-1.69,-1.50,1.23,1.23,1.22
152.26,2.97,2.97,1.80,1.80,-1.79,-1.71,-1.50,1.18,1.18,1.17
153.78,2.93,2.94,1.81,1.81,-1.81,-1.73,-1.49,1.12,1.13,1.13
155.32,2.90,2.90,1.82,1.82,-1.83,-1.74,-1.49,1.08,1.08,1.08
156.88,2.87,2.87,1.84,1.84,-1.84,-1.76,-1.48,1.03,1.03,1.03
158.44,2.84,2.84,1.85,1.85,-1.85,-1.77,-1.48,0.99,0.99,0.99
160.03,2.81,2.81,1.87,1.87,-1.87,-1.78,-1.48,0.94,0.94,0.95
161.63,2.78,2.78,1.89,1.88,-1.88,-1.79,-1.47,0.90,0.90,0.89
163.24,2.75,2.75,1.90,1.90,-1.90,-1.80,-1.47,0.85,0.85,0.85
164.88,2.72,2.72,1.91,1.91,-1.91,-1.81,-1.47,0.81,0.81,0.81
166.53,2.69,2.70,1.92,1.92,-1.92,-1.82,-1.47,0.77,0.77,0.77
168.19,2.67,2.67,1.94,1.93,-1.93,-1.83,-1.47,0.74,0.73,0.73
169.87,2.64,2.64,1.94,1.94,-1.94,-1.84,-1.48,0.70,0.70,0.70
171.57,2.61,2.61,1.95,1.95,-1.95,-1.85,-1.48,0.66,0.66,0.66
173.29,2.58,2.58,1.96,1.96,-1.96,-1.85,-1.49,0.63,0.63,0.63
175.02,2.55,2.55,1.96,1.96,-1.96,-1.86,-1.49,0.59,0.59,0.59
176.77,2.52,2.52,1.96,1.97,-1.96,-1.86,-1.50,0.56,0.56,0.56
178.54,2.49,2.49,1.97,1.97,-1.97,-1.86,-1.51,0.53,0.53,0.52
180.32,2.46,2.46,1.97,1.97,-1.97,-1.87,-1.52,0.50,0.49,0.49
182.13,2.42,2.43,1.96,1.96,-1.96,-1.87,-1.53,0.46,0.46,0.46
183.95,2.39,2.39,1.96,1.96,-1.96,-1.87,-1.54,0.43,0.43,0.43
185.79,2.36,2.36,1.96,1.96,-1.96,-1.87,-1.56,0.40,0.40,0.40
187.65,2.33,2.33,1.96,1.96,-1.96,-1.87,-1.57,0.37,0.37,0.37
189.52,2.30,2.30,1.95,1.95,-1.95,-1.87,-1.59,0.35,0.35,0.35
191.42,2.27,2.27,1.95,1.95,-1.95,-1.87,-1.60,0.32,0.32,0.32
193.33,2.24,2.24,1.95,1.95,-1.95,-1.86,-1.62,0.29,0.29,0.29
195.27,2.21,2.22,1.94,1.95,-1.95,-1.86,-1.64,0.27,0.27,0.27
197.22,2.19,2.19,1.95,1.94,-1.94,-1.86,-1.66,0.25,0.25,0.25
199.19,2.16,2.16,1.94,1.94,-1.94,-1.85,-1.68,0.22,0.22,0.22
201.18,2.13,2.13,1.93,1.93,-1.93,-1.85,-1.70,0.20,0.20,0.20
203.19,2.10,2.10,1.93,1.93,-1.93,-1.84,-1.72,0.18,0.18,0.18
205.23,2.07,2.07,1.92,1.92,-1.92,-1.84,-1.74,0.16,0.16,0.16
207.28,2.04,2.04,1.91,1.91,-1.91,-1.83,-1.77,0.13,0.13,0.13
209.35,2.01,2.01,1.90,1.90,-1.90,-1.82,-1.79,0.11,0.11,0.11
211.44,1.98,1.98,1.89,1.89,-1.89,-1.82,-1.81,0.09,0.10,0.09
213.56,1.95,1.95,1.88,1.88,-1.88,-1.81,-1.83,0.08,0.08,0.08
215.69,1.92,1.92,1.86,1.86,-1.87,-1.80,-1.85,0.06,0.06,0.06
217.85,1.89,1.89,1.85,1.85,-1.85,-1.79,-1.88,0.04,0.04,0.04
220.03,1.86,1.87,1.84,1.84,-1.84,-1.78,-1.90,0.02,0.02,0.02
222.23,1.84,1.84,1.84,1.83,-1.83,-1.77,-1.91,0.01,0.01,0.01
224.45,1.81,1.81,1.82,1.82,-1.82,-1.76,-1.93,-0.01,-0.01,-0.01
226.70,1.78,1.78,1.81,1.81,-1.81,-1.75,-1.95,-0.03,-0.02,-0.02
228.96,1.75,1.76,1.79,1.79,-1.80,-1.74,-1.97,-0.05,-0.04,-0.04
231.25,1.73,1.73,1.79,1.78,-1.79,-1.73,-1.98,-0.05,-0.06,-0.05
233.57,1.70,1.70,1.77,1.77,-1.77,-1.72,-1.99,-0.07,-0.07,-0.07
235.90,1.67,1.68,1.76,1.77,-1.76,-1.70,-2.00,-0.09,-0.09,-0.09
238.26,1.65,1.65,1.76,1.75,-1.75,-1.69,-2.01,-0.10,-0.10,-0.10
240.64,1.62,1.62,1.74,1.74,-1.74,-1.68,-2.01,-0.12,-0.12,-0.12
243.05,1.59,1.60,1.72,1.73,-1.72,-1.66,-2.01,-0.13,-0.13,-0.13
245.48,1.57,1.57,1.71,1.71,-1.71,-1.65,-2.01,-0.14,-0.14,-0.14
247.93,1.54,1.54,1.69,1.69,-1.70,-1.64,-2.01,-0.15,-0.15,-0.15
250.41,1.51,1.52,1.68,1.68,-1.68,-1.62,-2.00,-0.17,-0.16,-0.16
252.92,1.49,1.49,1.67,1.66,-1.66,-1.61,-1.99,-0.17,-0.18,-0.17
255.45,1.46,1.46,1.65,1.65,-1.65,-1.59,-1.98,-0.19,-0.19,-0.18
258.00,1.44,1.44,1.64,1.63,-1.63,-1.58,-1.97,-0.19,-0.19,-0.19
260.58,1.41,1.41,1.62,1.62,-1.62,-1.56,-1.95,-0.21,-0.20,-0.20
263.19,1.39,1.39,1.61,1.60,-1.60,-1.55,-1.93,-0.21,-0.21,-0.21
265.82,1.36,1.36,1.58,1.59,-1.59,-1.53,-1.91,-0.22,-0.22,-0.22
268.48,1.34,1.34,1.57,1.57,-1.57,-1.52,-1.89,-0.23,-0.23,-0.23
271.16,1.31,1.31,1.55,1.55,-1.55,-1.50,-1.86,-0.24,-0.24,-0.24
273.87,1.29,1.29,1.54,1.54,-1.54,-1.48,-1.83,-0.25,-0.25,-0.25
276.61,1.26,1.26,1.52,1.52,-1.52,-1.47,-1.80,-0.26,-0.26,-0.25
279.38,1.24,1.24,1.50,1.51,-1.50,-1.45,-1.77,-0.26,-0.26,-0.26
282.17,1.22,1.22,1.49,1.49,-1.48,-1.43,-1.73,-0.26,-0.26,-0.27
284.99,1.20,1.20,1.47,1.46,-1.46,-1.42,-1.70,-0.26,-0.26,-0.27
287.84,1.17,1.18,1.43,1.44,-1.44,-1.40,-1.66,-0.27,-0.27,-0.26
290.72,1.15,1.15,1.42,1.42,-1.42,-1.38,-1.63,-0.27,-0.27,-0.27
293.63,1.13,1.13,1.41,1.40,-1.40,-1.36,-1.59,-0.27,-0.27,-0.27
296.57,1.10,1.11,1.37,1.38,-1.38,-1.35,-1.55,-0.27,-0.27,-0.27
299.53,1.08,1.08,1.35,1.35,-1.35,-1.33,-1.51,-0.27,-0.27,-0.27
302.53,1.06,1.06,1.33,1.33,-1.33,-1.31,-1.47,-0.27,-0.27,-0.27
305.55,1.04,1.04,1.31,1.31,-1.31,-1.29,-1.43,-0.27,-0.27,-0.27
308.61,1.01,1.02,1.28,1.29,-1.29,-1.27,-1.39,-0.27,-0.27,-0.27
311.69,0.99,0.99,1.26,1.26,-1.26,-1.26,-1.35,-0.27,-0.27,-0.27
314.81,0.97,0.97,1.24,1.24,-1.24,-1.24,-1.31,-0.27,-0.27,-0.27
317.96,0.95,0.95,1.22,1.22,-1.22,-1.22,-1.28,-0.27,-0.27,-0.27
321.14,0.93,0.93,1.20,1.20,-1.20,-1.20,-1.24,-0.27,-0.27,-0.27
324.35,0.91,0.91,1.18,1.18,-1.18,-1.18,-1.20,-0.27,-0.27,-0.27
327.59,0.89,0.89,1.15,1.15,-1.16,-1.16,-1.16,-0.26,-0.26,-0.26
330.87,0.87,0.87,1.14,1.13,-1.13,-1.15,-1.12,-0.26,-0.26,-0.26
334.18,0.85,0.85,1.11,1.11,-1.11,-1.13,-1.09,-0.26,-0.26,-0.26
337.52,0.83,0.83,1.09,1.09,-1.09,-1.11,-1.05,-0.26,-0.26,-0.26
340.90,0.81,0.81,1.07,1.07,-1.06,-1.09,-1.02,-0.25,-0.25,-0.25
344.30,0.79,0.79,1.04,1.04,-1.04,-1.07,-0.98,-0.25,-0.25,-0.25
347.75,0.77,0.77,1.01,1.01,-1.02,-1.05,-0.95,-0.25,-0.25,-0.24
351.23,0.75,0.75,1.00,0.99,-0.99,-1.03,-0.92,-0.24,-0.24,-0.24
354.74,0.73,0.74,0.96,0.97,-0.97,-1.01,-0.88,-0.24,-0.23,-0.23
358.28,0.72,0.72,0.95,0.95,-0.95,-0.99,-0.85,-0.22,-0.23,-0.23
361.87,0.70,0.70,0.93,0.92,-0.92,-0.97,-0.82,-0.22,-0.22,-0.22
365.49,0.68,0.68,0.90,0.90,-0.90,-0.96,-0.79,-0.22,-0.22,-0.22
369.14,0.66,0.66,0.88,0.87,-0.88,-0.94,-0.76,-0.21,-0.21,-0.22
372.83,0.64,0.64,0.84,0.85,-0.85,-0.92,-0.73,-0.21,-0.21,-0.20
376.56,0.62,0.63,0.83,0.83,-0.83,-0.90,-0.70,-0.21,-0.20,-0.20
380.33,0.61,0.61,0.81,0.81,-0.81,-0.88,-0.68,-0.19,-0.20,-0.20
384.13,0.59,0.59,0.79,0.79,-0.78,-0.86,-0.65,-0.19,-0.19,-0.20
387.97,0.57,0.58,0.76,0.76,-0.76,-0.84,-0.62,-0.19,-0.18,-0.19
391.85,0.56,0.56,0.73,0.74,-0.74,-0.82,-0.60,-0.18,-0.18,-0.17
395.77,0.54,0.54,0.72,0.71,-0.72,-0.80,-0.57,-0.17,-0.17,-0.17
399.73,0.52,0.53,0.69,0.69,-0.69,-0.78,-0.55,-0.17,-0.17,-0.17
403.72,0.51,0.51,0.67,0.67,-0.67,-0.76,-0.52,-0.16,-0.16,-0.16
407.76,0.49,0.50,0.65,0.65,-0.65,-0.74,-0.50,-0.16,-0.16,-0.16
411.84,0.48,0.48,0.63,0.63,-0.63,-0.72,-0.48,-0.15,-0.15,-0.15
415.96,0.46,0.46,0.61,0.61,-0.61,-0.70,-0.46,-0.15,-0.15,-0.14
420.12,0.44,0.45,0.59,0.59,-0.59,-0.68,-0.43,-0.15,-0.14,-0.15
424.32,0.43,0.43,0.57,0.56,-0.57,-0.66,-0.41,-0.13,-0.14,-0.14
428.56,0.41,0.41,0.54,0.54,-0.54,-0.64,-0.39,-0.13,-0.13,-0.13
432.85,0.39,0.40,0.51,0.52,-0.52,-0.62,-0.37,-0.13,-0.12,-0.12
437.18,0.38,0.38,0.50,0.50,-0.50,-0.60,-0.35,-0.11,-0.12,-0.12
441.55,0.36,0.37,0.48,0.48,-0.47,-0.58,-0.33,-0.11,-0.11,-0.11
445.96,0.35,0.35,0.46,0.45,-0.45,-0.56,-0.31,-0.09,-0.10,-0.10
450.42,0.33,0.33,0.42,0.42,-0.42,-0.53,-0.30,-0.09,-0.09,-0.09
454.93,0.31,0.32,0.39,0.39,-0.40,-0.51,-0.28,-0.09,-0.08,-0.08
459.48,0.30,0.30,0.37,0.37,-0.37,-0.49,-0.26,-0.07,-0.08,-0.07
464.07,0.28,0.28,0.35,0.35,-0.35,-0.47,-0.24,-0.07,-0.07,-0.07
468.71,0.27,0.27,0.33,0.33,-0.33,-0.45,-0.23,-0.05,-0.06,-0.06
473.40,0.25,0.25,0.30,0.31,-0.30,-0.43,-0.21,-0.05,-0.05,-0.05
478.13,0.24,0.24,0.28,0.28,-0.28,-0.40,-0.19,-0.04,-0.04,-0.04
482.91,0.22,0.22,0.26,0.26,-0.26,-0.38,-0.18,-0.04,-0.03,-0.03
487.74,0.21,0.21,0.24,0.23,-0.23,-0.36,-0.16,-0.02,-0.02,-0.02
492.62,0.19,0.19,0.21,0.21,-0.21,-0.33,-0.15,-0.02,-0.01,-0.01
497.55,0.18,0.18,0.19,0.19,-0.18,-0.31,-0.13,-0.00,-0.00,-0.01
502.52,0.16,0.16,0.16,0.16,-0.16,-0.29,-0.12,0.01,0.01,0.00
507.55,0.15,0.15,0.13,0.13,-0.13,-0.26,-0.10,0.02,0.02,0.02
512.62,0.13,0.14,0.10,0.10,-0.11,-0.24,-0.09,0.03,0.03,0.03
517.75,0.12,0.12,0.08,0.08,-0.08,-0.21,-0.07,0.04,0.04,0.04
522.93,0.10,0.10,0.05,0.05,-0.05,-0.19,-0.06,0.05,0.05,0.05
528.16,0.08,0.09,0.02,0.03,-0.03,-0.16,-0.04,0.05,0.06,0.06
533.44,0.07,0.07,0.00,0.00,-0.00,-0.13,-0.03,0.07,0.07,0.07
538.77,0.05,0.05,-0.02,-0.02,0.02,-0.11,-0.02,0.08,0.08,0.07
