frequency,raw,error,smoothed,error_smoothed,equalization,parametric_eq,equalized_raw,equalized_smoothed,target
20,-13.44,-11.09,-13.41,-11.06,6.00,4.17,-7.44,-7.41,-2.35
21,-12.76,-10.41,-12.84,-10.48,6.00,4.76,-6.76,-6.84,-2.35
22,-12.29,-9.94,-12.28,-9.93,6.00,5.34,-6.29,-6.28,-2.35
23,-11.81,-9.46,-11.74,-9.39,6.00,5.89,-5.81,-5.74,-2.35
24,-11.18,-8.83,-11.22,-8.87,6.00,6.35,-5.18,-5.22,-2.35
25,-10.73,-8.37,-10.72,-8.37,6.00,6.66,-4.73,-4.72,-2.35
26,-10.19,-7.83,-10.24,-7.89,6.00,6.80,-4.19,-4.24,-2.35
27,-9.82,-7.47,-9.78,-7.43,6.00,6.75,-3.82,-3.78,-2.35
28,-9.38,-7.03,-9.33,-6.98,6.00,6.55,-3.38,-3.33,-2.35
29,-8.91,-6.56,-8.91,-6.56,5.93,6.23,-2.98,-2.98,-2.35
30,-8.48,-6.13,-8.50,-6.15,5.77,5.85,-2.71,-2.73,-2.35
31,-8.08,-5.73,-8.11,-5.76,5.55,5.44,-2.53,-2.56,-2.35
32,-7.79,-5.44,-7.74,-5.39,5.29,5.03,-2.50,-2.46,-2.35
33,-7.36,-5.01,-7.40,-5.04,5.01,4.64,-2.35,-2.38,-2.35
34,-7.12,-4.77,-7.07,-4.72,4.72,4.27,-2.40,-2.35,-2.35
35,-6.74,-4.39,-6.77,-4.42,4.42,3.93,-2.32,-2.35,-2.35
36,-6.46,-4.11,-6.50,-4.14,4.14,3.62,-2.32,-2.35,-2.35
37,-6.24,-3.89,-6.25,-3.89,3.89,3.33,-2.35,-2.35,-2.35
38,-5.97,-3.62,-6.02,-3.67,3.67,3.07,-2.31,-2.35,-2.35
39,-5.80,-3.45,-5.81,-3.46,3.46,2.84,-2.34,-2.35,-2.35
40,-5.57,-3.22,-5.61,-3.26,3.26,2.63,-2.31,-2.35,-2.35
41,-5.35,-3.00,-5.42,-3.07,3.07,2.43,-2.28,-2.35,-2.35
42,-5.34,-2.99,-5.22,-2.87,2.87,2.26,-2.47,-2.35,-2.35
43,-5.11,-2.76,-5.02,-2.66,2.66,2.09,-2.45,-2.35,-2.35
44,-4.88,-2.52,-4.80,-2.45,2.45,1.94,-2.43,-2.35,-2.35
45,-4.64,-2.29,-4.57,-2.22,2.22,1.80,-2.43,-2.35,-2.35
46,-4.35,-2.00,-4.34,-1.98,1.98,1.67,-2.36,-2.35,-2.35
47,-3.95,-1.60,-4.10,-1.75,1.75,1.55,-2.20,-2.35,-2.35
48,-3.91,-1.55,-3.88,-1.53,1.53,1.43,-2.38,-2.35,-2.35
49,-3.59,-1.24,-3.67,-1.32,1.32,1.32,-2.27,-2.35,-2.35
50,-3.49,-1.14,-3.48,-1.13,1.13,1.21,-2.36,-2.35,-2.35
51,-3.26,-0.91,-3.32,-0.97,0.97,1.11,-2.30,-2.35,-2.35
52,-3.16,-0.81,-3.17,-0.82,0.82,1.00,-2.34,-2.35,-2.35
53,-3.04,-0.69,-3.05,-0.70,0.70,0.90,-2.34,-2.35,-2.35
54,-3.04,-0.69,-2.94,-0.59,0.59,0.79,-2.45,-2.35,-2.35
55,-2.81,-0.46,-2.84,-0.49,0.49,0.69,-2.33,-2.35,-2.35
56,-2.81,-0.46,-2.75,-0.40,0.40,0.58,-2.42,-2.35,-2.35
57,-2.59,-0.23,-2.66,-0.31,0.31,0.47,-2.27,-2.35,-2.35
58,-2.59,-0.23,-2.59,-0.23,0.23,0.36,-2.35,-2.35,-2.35
59,-2.59,-0.23,-2.51,-0.16,0.16,0.24,-2.42,-2.35,-2.35
60,-2.37,-0.01,-2.45,-0.09,0.09,0.13,-2.27,-2.35,-2.35
61,-2.36,-0.01,-2.38,-0.03,0.03,0.02,-2.33,-2.35,-2.35
62,-2.36,-0.01,-2.33,0.03,-0.03,-0.09,-2.38,-2.35,-2.35
63,-2.36,-0.01,-2.27,0.08,-0.08,-0.19,-2.44,-2.35,-2.35
64,-2.26,0.09,-2.23,0.12,-0.12,-0.28,-2.38,-2.35,-2.35
65,-2.12,0.23,-2.19,0.16,-0.16,-0.35,-2.29,-2.35,-2.35
66,-2.12,0.23,-2.16,0.19,-0.19,-0.40,-2.31,-2.35,-2.35
67,-2.12,0.23,-2.14,0.21,-0.21,-0.42,-2.34,-2.35,-2.35
68,-2.13,0.23,-2.12,0.23,-0.23,-0.43,-2.35,-2.35,-2.35
69,-2.13,0.22,-2.12,0.23,-0.23,-0.41,-2.36,-2.35,-2.35
70,-2.14,0.21,-2.13,0.23,-0.23,-0.38,-2.37,-2.35,-2.35
71,-2.16,0.20,-2.14,0.21,-0.21,-0.34,-2.37,-2.35,-2.35
72,-2.17,0.18,-2.16,0.19,-0.19,-0.29,-2.36,-2.35,-2.35
73,-2.19,0.17,-2.19,0.16,-0.16,-0.23,-2.34,-2.35,-2.35
74,-2.20,0.15,-2.23,0.12,-0.12,-0.17,-2.32,-2.35,-2.35
75,-2.21,0.14,-2.27,0.08,-0.08,-0.11,-2.29,-2.35,-2.35
76,-2.28,0.07,-2.32,0.03,-0.03,-0.06,-2.31,-2.35,-2.35
77,-2.45,-0.10,-2.36,-0.01,0.01,-0.01,-2.44,-2.35,-2.35
78,-2.45,-0.10,-2.40,-0.05,0.05,0.04,-2.41,-2.35,-2.35
79,-2.46,-0.11,-2.43,-0.08,0.08,0.09,-2.38,-2.35,-2.35
80,-2.47,-0.11,-2.46,-0.11,0.11,0.13,-2.36,-2.35,-2.35
81,-2.48,-0.13,-2.48,-0.13,0.13,0.16,-2.35,-2.35,-2.35
82,-2.50,-0.15,-2.51,-0.16,0.16,0.20,-2.34,-2.35,-2.35
83,-2.52,-0.17,-2.54,-0.18,0.18,0.23,-2.34,-2.35,-2.35
84,-2.54,-0.19,-2.57,-0.22,0.22,0.26,-2.33,-2.35,-2.35
85,-2.56,-0.21,-2.61,-0.25,0.25,0.28,-2.31,-2.35,-2.35
86,-2.58,-0.23,-2.65,-0.29,0.29,0.31,-2.29,-2.35,-2.35
87,-2.59,-0.24,-2.69,-0.33,0.33,0.33,-2.26,-2.35,-2.35
88,-2.83,-0.48,-2.72,-0.37,0.37,0.35,-2.47,-2.35,-2.35
89,-2.84,-0.49,-2.74,-0.39,0.39,0.37,-2.45,-2.35,-2.35
90,-2.85,-0.50,-2.75,-0.40,0.40,0.39,-2.45,-2.35,-2.35
91,-2.84,-0.48,-2.75,-0.40,0.40,0.41,-2.44,-2.35,-2.35
92,-2.64,-0.29,-2.74,-0.39,0.39,0.42,-2.25,-2.35,-2.35
93,-2.65,-0.30,-2.73,-0.37,0.37,0.44,-2.28,-2.35,-2.35
94,-2.67,-0.32,-2.71,-0.36,0.36,0.45,-2.31,-2.35,-2.35
95,-2.69,-0.33,-2.71,-0.35,0.35,0.47,-2.33,-2.35,-2.35
96,-2.71,-0.35,-2.71,-0.36,0.36,0.48,-2.35,-2.35,-2.35
97,-2.73,-0.38,-2.72,-0.36,0.36,0.49,-2.37,-2.35,-2.35
98,-2.75,-0.40,-2.74,-0.38,0.38,0.51,-2.37,-2.36,-2.36
99,-2.77,-0.42,-2.76,-0.40,0.40,0.52,-2.37,-2.36,-2.36
100,-2.79,-0.43,-2.78,-0.42,0.42,0.53,-2.37,-2.36,-2.36
101,-2.81,-0.45,-2.80,-0.45,0.45,0.54,-2.36,-2.36,-2.36
102,-2.82,-0.47,-2.83,-0.47,0.47,0.55,-2.35,-2.36,-2.36
104,-2.84,-0.49,-2.85,-0.49,0.49,0.58,-2.35,-2.36,-2.36
105,-2.87,-0.51,-2.87,-0.52,0.52,0.59,-2.35,-2.36,-2.36
106,-2.89,-0.54,-2.90,-0.54,0.54,0.60,-2.35,-2.36,-2.36
107,-2.92,-0.57,-2.92,-0.56,0.56,0.61,-2.36,-2.36,-2.36
108,-2.95,-0.60,-2.94,-0.59,0.59,0.62,-2.36,-2.35,-2.35
109,-2.98,-0.62,-2.96,-0.61,0.61,0.63,-2.37,-2.35,-2.35
110,-3.00,-0.65,-2.99,-0.64,0.64,0.65,-2.36,-2.35,-2.35
111,-3.02,-0.67,-3.02,-0.67,0.67,0.66,-2.36,-2.35,-2.35
112,-3.04,-0.69,-3.05,-0.70,0.70,0.67,-2.34,-2.35,-2.35
113,-3.05,-0.71,-3.08,-0.74,0.74,0.68,-2.31,-2.34,-2.34
114,-3.06,-0.73,-3.12,-0.79,0.79,0.69,-2.28,-2.34,-2.34
115,-3.07,-0.74,-3.16,-0.83,0.83,0.70,-2.24,-2.33,-2.33
117,-3.30,-0.97,-3.20,-0.87,0.87,0.73,-2.43,-2.33,-2.33
118,-3.30,-0.98,-3.24,-0.91,0.91,0.74,-2.39,-2.32,-2.32
119,-3.30,-0.98,-3.27,-0.95,0.95,0.75,-2.35,-2.32,-2.32
120,-3.29,-0.98,-3.28,-0.97,0.97,0.77,-2.32,-2.31,-2.31
121,-3.29,-0.98,-3.29,-0.99,0.99,0.78,-2.30,-2.30,-2.30
123,-3.28,-0.98,-3.29,-0.99,0.99,0.80,-2.29,-2.30,-2.30
124,-3.27,-0.98,-3.28,-0.99,0.99,0.82,-2.28,-2.29,-2.29
125,-3.27,-0.98,-3.27,-0.99,0.99,0.83,-2.28,-2.28,-2.28
126,-3.26,-0.99,-3.26,-0.98,0.98,0.85,-2.28,-2.28,-2.28
128,-3.26,-0.99,-3.25,-0.98,0.98,0.87,-2.27,-2.27,-2.27
129,-3.25,-0.99,-3.25,-0.99,0.99,0.89,-2.27,-2.26,-2.26
130,-3.25,-1.00,-3.25,-1.00,1.00,0.90,-2.26,-2.25,-2.25
131,-3.25,-1.01,-3.26,-1.01,1.01,0.92,-2.24,-2.24,-2.24
133,-3.25,-1.01,-3.28,-1.04,1.04,0.95,-2.21,-2.24,-2.24
134,-3.25,-1.02,-3.30,-1.07,1.07,0.96,-2.18,-2.23,-2.23
135,-3.25,-1.03,-3.34,-1.11,1.11,0.98,-2.14,-2.22,-2.22
137,-3.48,-1.26,-3.37,-1.16,1.16,1.01,-2.32,-2.22,-2.22
138,-3.48,-1.27,-3.42,-1.21,1.21,1.03,-2.28,-2.21,-2.21
140,-3.48,-1.28,-3.46,-1.25,1.25,1.06,-2.23,-2.21,-2.21
141,-3.48,-1.28,-3.51,-1.30,1.30,1.08,-2.18,-2.20,-2.20
142,-3.48,-1.29,-3.55,-1.35,1.35,1.09,-2.13,-2.20,-2.20
144,-3.51,-1.31,-3.59,-1.40,1.40,1.13,-2.11,-2.19,-2.19
145,-3.69,-1.50,-3.62,-1.43,1.43,1.15,-2.25,-2.19,-2.19
147,-3.71,-1.52,-3.65,-1.47,1.47,1.18,-2.24,-2.19,-2.19
148,-3.71,-1.53,-3.68,-1.49,1.49,1.20,-2.22,-2.18,-2.18
150,-3.71,-1.53,-3.69,-1.51,1.51,1.24,-2.20,-2.18,-2.18
151,-3.71,-1.53,-3.71,-1.52,1.52,1.26,-2.19,-2.18,-2.18
153,-3.72,-1.54,-3.72,-1.54,1.54,1.30,-2.18,-2.18,-2.18
154,-3.72,-1.54,-3.73,-1.55,1.55,1.32,-2.17,-2.18,-2.18
156,-3.72,-1.54,-3.75,-1.57,1.57,1.36,-2.15,-2.18,-2.18
157,-3.73,-1.55,-3.77,-1.59,1.59,1.38,-2.13,-2.18,-2.18
159,-3.73,-1.55,-3.81,-1.63,1.63,1.42,-2.10,-2.18,-2.18
160,-3.80,-1.62,-3.84,-1.67,1.67,1.44,-2.13,-2.18,-2.18
162,-3.97,-1.79,-3.89,-1.71,1.71,1.48,-2.26,-2.18,-2.18
164,-3.98,-1.80,-3.92,-1.75,1.75,1.53,-2.23,-2.18,-2.18
165,-3.99,-1.81,-3.96,-1.78,1.78,1.55,-2.21,-2.17,-2.17
167,-4.00,-1.82,-3.98,-1.81,1.81,1.59,-2.19,-2.17,-2.17
169,-4.00,-1.83,-4.00,-1.83,1.83,1.64,-2.18,-2.17,-2.17
170,-4.01,-1.84,-4.01,-1.84,1.84,1.66,-2.17,-2.17,-2.17
172,-4.01,-1.85,-4.02,-1.86,1.86,1.71,-2.16,-2.16,-2.16
174,-4.02,-1.86,-4.03,-1.87,1.87,1.76,-2.15,-2.16,-2.16
175,-4.02,-1.86,-4.05,-1.89,1.89,1.78,-2.13,-2.15,-2.15
177,-4.02,-1.87,-4.07,-1.92,1.92,1.83,-2.10,-2.15,-2.15
179,-4.02,-1.88,-4.09,-1.95,1.95,1.88,-2.07,-2.14,-2.14
181,-4.13,-2.00,-4.12,-1.98,1.98,1.92,-2.15,-2.13,-2.13
183,-4.24,-2.11,-4.14,-2.02,2.02,1.97,-2.22,-2.13,-2.13
184,-4.23,-2.11,-4.17,-2.05,2.05,2.00,-2.18,-2.12,-2.12
186,-4.22,-2.11,-4.19,-2.08,2.08,2.05,-2.14,-2.11,-2.11
188,-4.21,-2.11,-4.21,-2.11,2.11,2.10,-2.10,-2.10,-2.10
190,-4.20,-2.11,-4.23,-2.13,2.13,2.15,-2.07,-2.09,-2.09
192,-4.19,-2.11,-4.25,-2.16,2.16,2.20,-2.03,-2.08,-2.08
194,-4.19,-2.11,-4.28,-2.20,2.20,2.24,-1.99,-2.07,-2.07
196,-4.34,-2.28,-4.31,-2.24,2.24,2.29,-2.10,-2.07,-2.07
198,-4.41,-2.35,-4.35,-2.30,2.30,2.34,-2.11,-2.06,-2.06
200,-4.41,-2.36,-4.40,-2.35,2.35,2.39,-2.05,-2.05,-2.05
202,-4.41,-2.37,-4.46,-2.42,2.42,2.44,-1.99,-2.04,-2.04
204,-4.49,-2.46,-4.51,-2.48,2.48,2.48,-2.01,-2.03,-2.03
206,-4.65,-2.62,-4.57,-2.55,2.55,2.53,-2.10,-2.02,-2.02
208,-4.65,-2.63,-4.63,-2.62,2.62,2.57,-2.03,-2.02,-2.02
210,-4.65,-2.64,-4.69,-2.68,2.68,2.61,-1.97,-2.01,-2.01
212,-4.65,-2.65,-4.74,-2.74,2.74,2.66,-1.91,-2.00,-2.00
214,-4.85,-2.85,-4.79,-2.80,2.80,2.70,-2.05,-2.00,-2.00
216,-4.88,-2.89,-4.83,-2.84,2.84,2.74,-2.04,-1.99,-1.99
218,-4.89,-2.91,-4.87,-2.89,2.89,2.77,-2.01,-1.98,-1.98
221,-4.90,-2.92,-4.89,-2.92,2.92,2.83,-1.98,-1.98,-1.98
223,-4.91,-2.94,-4.91,-2.94,2.94,2.86,-1.96,-1.97,-1.97
225,-4.92,-2.95,-4.92,-2.96,2.96,2.89,-1.95,-1.96,-1.96
227,-4.92,-2.97,-4.93,-2.98,2.98,2.92,-1.94,-1.95,-1.95
229,-4.92,-2.98,-4.93,-2.99,2.99,2.95,-1.94,-1.95,-1.95
232,-4.92,-2.99,-4.93,-2.99,2.99,2.99,-1.93,-1.94,-1.94
234,-4.92,-3.00,-4.93,-3.00,3.00,3.01,-1.93,-1.93,-1.93
236,-4.92,-3.00,-4.92,-3.00,3.00,3.03,-1.92,-1.92,-1.92
239,-4.92,-3.01,-4.91,-3.01,3.01,3.06,-1.91,-1.91,-1.91
241,-4.91,-3.01,-4.90,-3.01,3.01,3.08,-1.90,-1.90,-1.90
244,-4.90,-3.01,-4.89,-3.01,3.01,3.10,-1.89,-1.89,-1.89
246,-4.88,-3.01,-4.88,-3.01,3.01,3.11,-1.88,-1.87,-1.87
248,-4.87,-3.00,-4.87,-3.00,3.00,3.12,-1.86,-1.86,-1.86
251,-4.85,-3.00,-4.85,-3.00,3.00,3.14,-1.85,-1.85,-1.85
253,-4.84,-3.00,-4.84,-3.00,3.00,3.14,-1.83,-1.84,-1.84
256,-4.83,-3.00,-4.83,-3.01,3.01,3.15,-1.82,-1.83,-1.83
259,-4.82,-3.00,-4.83,-3.01,3.01,3.16,-1.81,-1.82,-1.82
261,-4.82,-3.02,-4.83,-3.02,3.02,3.16,-1.80,-1.81,-1.81
264,-4.83,-3.03,-4.83,-3.03,3.03,3.16,-1.79,-1.80,-1.80
266,-4.83,-3.05,-4.83,-3.05,3.05,3.15,-1.78,-1.78,-1.78
269,-4.84,-3.07,-4.84,-3.07,3.07,3.15,-1.77,-1.77,-1.77
272,-4.85,-3.09,-4.85,-3.09,3.09,3.15,-1.76,-1.76,-1.76
274,-4.86,-3.10,-4.86,-3.11,3.11,3.14,-1.75,-1.75,-1.75
277,-4.86,-3.11,-4.87,-3.12,3.12,3.13,-1.74,-1.74,-1.74
280,-4.86,-3.13,-4.87,-3.13,3.13,3.12,-1.73,-1.74,-1.74
283,-4.86,-3.14,-4.86,-3.13,3.13,3.12,-1.73,-1.73,-1.73
286,-4.87,-3.15,-4.85,-3.13,3.13,3.11,-1.74,-1.72,-1.72
288,-4.87,-3.16,-4.83,-3.12,3.12,3.10,-1.76,-1.71,-1.71
291,-4.88,-3.18,-4.80,-3.10,3.10,3.09,-1.78,-1.70,-1.70
294,-4.76,-3.07,-4.77,-3.08,3.08,3.08,-1.68,-1.69,-1.69
297,-4.66,-2.98,-4.75,-3.06,3.06,3.07,-1.60,-1.68,-1.68
300,-4.67,-2.99,-4.72,-3.05,3.05,3.06,-1.62,-1.68,-1.68
303,-4.68,-3.01,-4.71,-3.04,3.04,3.05,-1.64,-1.67,-1.67
306,-4.69,-3.02,-4.70,-3.04,3.04,3.04,-1.65,-1.66,-1.66
309,-4.70,-3.04,-4.69,-3.03,3.03,3.03,-1.66,-1.65,-1.65
312,-4.71,-3.06,-4.68,-3.03,3.03,3.03,-1.67,-1.65,-1.65
316,-4.72,-3.08,-4.67,-3.03,3.03,3.02,-1.68,-1.64,-1.64
319,-4.73,-3.09,-4.66,-3.03,3.03,3.01,-1.70,-1.63,-1.63
322,-4.73,-3.10,-4.64,-3.02,3.02,3.01,-1.71,-1.63,-1.63
325,-4.53,-2.91,-4.63,-3.01,3.01,3.01,-1.52,-1.62,-1.62
328,-4.55,-2.94,-4.62,-3.00,3.00,3.00,-1.55,-1.61,-1.61
332,-4.58,-2.97,-4.61,-3.00,3.00,3.00,-1.57,-1.61,-1.61
335,-4.60,-3.00,-4.61,-3.01,3.01,3.00,-1.59,-1.60,-1.60
338,-4.63,-3.03,-4.62,-3.02,3.02,3.00,-1.60,-1.60,-1.60
342,-4.65,-3.06,-4.63,-3.04,3.04,3.01,-1.61,-1.59,-1.59
345,-4.67,-3.08,-4.65,-3.06,3.06,3.01,-1.60,-1.59,-1.59
349,-4.68,-3.10,-4.67,-3.08,3.08,3.02,-1.60,-1.58,-1.58
352,-4.70,-3.12,-4.68,-3.10,3.10,3.03,-1.59,-1.58,-1.58
356,-4.71,-3.13,-4.70,-3.12,3.12,3.04,-1.59,-1.58,-1.58
359,-4.72,-3.15,-4.71,-3.13,3.13,3.05,-1.59,-1.57,-1.57
363,-4.73,-3.16,-4.72,-3.15,3.15,3.06,-1.58,-1.57,-1.57
366,-4.74,-3.18,-4.74,-3.17,3.17,3.07,-1.58,-1.57,-1.57
370,-4.75,-3.19,-4.76,-3.19,3.19,3.09,-1.56,-1.57,-1.57
374,-4.76,-3.20,-4.79,-3.23,3.23,3.11,-1.53,-1.56,-1.56
377,-4.76,-3.20,-4.84,-3.28,3.28,3.13,-1.49,-1.56,-1.56
381,-4.88,-3.32,-4.90,-3.34,3.34,3.15,-1.54,-1.56,-1.56
385,-5.00,-3.44,-4.96,-3.41,3.41,3.17,-1.59,-1.55,-1.55
389,-5.00,-3.46,-5.03,-3.49,3.49,3.20,-1.52,-1.55,-1.55
393,-5.03,-3.49,-5.10,-3.56,3.56,3.22,-1.46,-1.54,-1.54
397,-5.25,-3.72,-5.17,-3.63,3.63,3.25,-1.62,-1.53,-1.53
401,-5.26,-3.74,-5.22,-3.69,3.69,3.28,-1.57,-1.52,-1.52
405,-5.27,-3.76,-5.25,-3.73,3.73,3.31,-1.54,-1.51,-1.51
409,-5.28,-3.79,-5.26,-3.76,3.76,3.34,-1.52,-1.50,-1.50
413,-5.29,-3.82,-5.25,-3.77,3.77,3.37,-1.53,-1.48,-1.48
417,-5.30,-3.84,-5.22,-3.76,3.76,3.41,-1.54,-1.46,-1.46
421,-5.08,-3.64,-5.18,-3.75,3.75,3.44,-1.33,-1.44,-1.44
425,-5.08,-3.67,-5.14,-3.73,3.73,3.48,-1.35,-1.41,-1.41
430,-5.07,-3.69,-5.09,-3.71,3.71,3.52,-1.36,-1.38,-1.38
434,-5.05,-3.70,-5.05,-3.70,3.70,3.56,-1.35,-1.35,-1.35
438,-5.02,-3.71,-5.01,-3.69,3.69,3.60,-1.33,-1.31,-1.32
443,-4.99,-3.71,-4.97,-3.69,3.69,3.65,-1.30,-1.28,-1.28
447,-4.95,-3.71,-4.94,-3.70,3.70,3.69,-1.25,-1.24,-1.24
451,-4.91,-3.71,-4.92,-3.72,3.72,3.73,-1.19,-1.20,-1.20
456,-4.86,-3.70,-4.90,-3.74,3.74,3.77,-1.12,-1.16,-1.16
460,-4.81,-3.70,-4.88,-3.77,3.77,3.81,-1.05,-1.12,-1.12
465,-4.88,-3.80,-4.87,-3.79,3.79,3.87,-1.09,-1.08,-1.08
470,-4.94,-3.91,-4.86,-3.82,3.82,3.92,-1.12,-1.04,-1.04
474,-4.90,-3.90,-4.84,-3.85,3.85,3.96,-1.05,-1.00,-1.00
479,-4.85,-3.89,-4.83,-3.87,3.87,4.01,-0.98,-0.96,-0.96
484,-4.82,-3.89,-4.83,-3.90,3.90,4.06,-0.92,-0.93,-0.92
489,-4.78,-3.89,-4.82,-3.93,3.93,4.10,-0.85,-0.89,-0.89
494,-4.76,-3.90,-4.83,-3.96,3.96,4.15,-0.80,-0.87,-0.87
499,-4.75,-3.91,-4.85,-4.00,4.00,4.20,-0.74,-0.84,-0.84
504,-4.92,-4.10,-4.87,-4.04,4.04,4.25,-0.88,-0.82,-0.82
509,-4.96,-4.16,-4.90,-4.09,4.09,4.29,-0.88,-0.81,-0.81
514,-4.97,-4.17,-4.93,-4.13,4.13,4.34,-0.84,-0.80,-0.80
519,-4.98,-4.19,-4.96,-4.17,4.17,4.38,-0.80,-0.79,-0.79
524,-5.00,-4.21,-5.00,-4.21,4.21,4.42,-0.78,-0.79,-0.79
529,-5.03,-4.24,-5.04,-4.25,4.25,4.46,-0.77,-0.79,-0.79
535,-5.07,-4.27,-5.09,-4.29,4.29,4.50,-0.77,-0.79,-0.79
540,-5.12,-4.32,-5.13,-4.33,4.33,4.54,-0.78,-0.80,-0.80
545,-5.17,-4.36,-5.19,-4.38,4.38,4.57,-0.80,-0.81,-0.81
551,-5.24,-4.42,-5.24,-4.42,4.42,4.60,-0.82,-0.82,-0.82
556,-5.31,-4.47,-5.30,-4.47,4.47,4.63,-0.83,-0.83,-0.83
562,-5.37,-4.53,-5.36,-4.52,4.52,4.66,-0.85,-0.84,-0.84
568,-5.43,-4.58,-5.42,-4.57,4.57,4.68,-0.86,-0.85,-0.85
573,-5.49,-4.62,-5.48,-4.62,4.62,4.70,-0.87,-0.86,-0.86
579,-5.53,-4.67,-5.52,-4.66,4.66,4.72,-0.87,-0.87,-0.87
585,-5.57,-4.70,-5.57,-4.70,4.70,4.73,-0.88,-0.87,-0.87
591,-5.60,-4.73,-5.60,-4.73,4.73,4.73,-0.87,-0.87,-0.87
596,-5.62,-4.76,-5.62,-4.76,4.76,4.74,-0.86,-0.87,-0.87
602,-5.64,-4.78,-5.64,-4.78,4.78,4.74,-0.85,-0.86,-0.86
608,-5.64,-4.79,-5.65,-4.81,4.81,4.73,-0.84,-0.85,-0.85
615,-5.64,-4.81,-5.65,-4.82,4.82,4.72,-0.82,-0.83,-0.83
621,-5.63,-4.82,-5.65,-4.83,4.83,4.70,-0.80,-0.81,-0.81
627,-5.62,-4.83,-5.63,-4.84,4.84,4.68,-0.79,-0.79,-0.79
633,-5.61,-4.84,-5.59,-4.83,4.83,4.65,-0.78,-0.76,-0.76
639,-5.59,-4.85,-5.55,-4.81,4.81,4.63,-0.78,-0.74,-0.74
646,-5.56,-4.86,-5.49,-4.78,4.78,4.59,-0.78,-0.71,-0.71
652,-5.41,-4.74,-5.42,-4.75,4.75,4.55,-0.66,-0.67,-0.67
659,-5.27,-4.63,-5.34,-4.70,4.70,4.50,-0.57,-0.64,-0.64
665,-5.23,-4.62,-5.25,-4.64,4.64,4.45,-0.58,-0.61,-0.60
672,-5.18,-4.61,-5.15,-4.58,4.58,4.39,-0.60,-0.57,-0.57
679,-5.08,-4.54,-5.05,-4.52,4.52,4.33,-0.56,-0.54,-0.54
686,-4.86,-4.36,-4.95,-4.45,4.45,4.26,-0.42,-0.50,-0.50
692,-4.83,-4.36,-4.84,-4.37,4.37,4.20,-0.46,-0.47,-0.47
699,-4.81,-4.37,-4.73,-4.29,4.29,4.12,-0.52,-0.44,-0.44
706,-4.63,-4.22,-4.62,-4.20,4.20,4.04,-0.43,-0.41,-0.41
713,-4.58,-4.19,-4.50,-4.11,4.11,3.96,-0.47,-0.39,-0.39
721,-4.33,-3.97,-4.38,-4.01,4.01,3.86,-0.31,-0.36,-0.36
728,-4.17,-3.83,-4.25,-3.91,3.91,3.77,-0.25,-0.34,-0.34
735,-4.11,-3.79,-4.13,-3.81,3.81,3.68,-0.30,-0.32,-0.32
742,-4.00,-3.70,-4.00,-3.70,3.70,3.59,-0.30,-0.30,-0.30
750,-3.88,-3.59,-3.88,-3.59,3.59,3.48,-0.28,-0.29,-0.29
757,-3.85,-3.58,-3.75,-3.48,3.48,3.39,-0.36,-0.27,-0.27
765,-3.64,-3.39,-3.63,-3.37,3.37,3.28,-0.28,-0.26,-0.26
773,-3.44,-3.19,-3.50,-3.25,3.25,3.16,-0.19,-0.25,-0.25
780,-3.40,-3.16,-3.37,-3.13,3.13,3.06,-0.26,-0.24,-0.24
788,-3.23,-3.01,-3.25,-3.02,3.02,2.95,-0.22,-0.23,-0.23
796,-3.10,-2.88,-3.12,-2.90,2.90,2.83,-0.20,-0.22,-0.22
804,-3.01,-2.80,-3.00,-2.79,2.79,2.72,-0.21,-0.21,-0.21
812,-2.80,-2.59,-2.89,-2.68,2.68,2.60,-0.12,-0.20,-0.20
820,-2.77,-2.57,-2.77,-2.57,2.57,2.48,-0.20,-0.20,-0.20
828,-2.73,-2.54,-2.65,-2.46,2.46,2.37,-0.27,-0.19,-0.19
837,-2.53,-2.35,-2.52,-2.34,2.34,2.24,-0.19,-0.18,-0.18
845,-2.41,-2.23,-2.39,-2.21,2.21,2.12,-0.20,-0.18,-0.18
853,-2.28,-2.11,-2.25,-2.08,2.08,2.00,-0.20,-0.17,-0.17
862,-2.09,-1.92,-2.10,-1.94,1.94,1.88,-0.15,-0.16,-0.16
871,-2.03,-1.88,-1.95,-1.80,1.80,1.75,-0.23,-0.15,-0.15
879,-1.78,-1.64,-1.81,-1.66,1.66,1.63,-0.12,-0.15,-0.15
888,-1.56,-1.42,-1.67,-1.53,1.53,1.50,-0.03,-0.14,-0.14
897,-1.47,-1.34,-1.54,-1.41,1.41,1.38,-0.06,-0.13,-0.13
906,-1.33,-1.21,-1.42,-1.30,1.30,1.25,-0.04,-0.12,-0.12
915,-1.34,-1.22,-1.30,-1.19,1.19,1.13,-0.14,-0.11,-0.11
924,-1.34,-1.24,-1.19,-1.09,1.09,1.01,-0.25,-0.10,-0.10
933,-1.13,-1.03,-1.07,-0.98,0.98,0.88,-0.14,-0.09,-0.09
943,-0.89,-0.81,-0.95,-0.87,0.87,0.75,-0.02,-0.08,-0.08
952,-0.83,-0.76,-0.82,-0.75,0.75,0.63,-0.07,-0.07,-0.07
962,-0.66,-0.61,-0.68,-0.63,0.63,0.50,-0.04,-0.05,-0.05
971,-0.54,-0.50,-0.53,-0.49,0.49,0.39,-0.05,-0.04,-0.04
981,-0.44,-0.41,-0.38,-0.36,0.36,0.26,-0.08,-0.02,-0.02
991,-0.23,-0.22,-0.22,-0.22,0.22,0.13,-0.01,-0.01,-0.01
1001,0.03,0.01,-0.06,-0.07,0.07,0.01,0.10,0.01,0.01
1011,0.09,0.05,0.10,0.07,-0.07,-0.11,0.02,0.03,0.03
1021,0.28,0.22,0.26,0.20,-0.20,-0.23,0.07,0.06,0.05
1031,0.40,0.32,0.42,0.34,-0.34,-0.35,0.06,0.08,0.08
1041,0.53,0.43,0.58,0.48,-0.48,-0.46,0.06,0.10,0.10
1052,0.73,0.60,0.74,0.61,-0.61,-0.59,0.12,0.13,0.13
1062,0.99,0.83,0.90,0.74,-0.74,-0.70,0.25,0.16,0.16
1073,1.04,0.85,1.07,0.88,-0.88,-0.81,0.16,0.19,0.19
1084,1.25,1.03,1.23,1.01,-1.01,-0.93,0.24,0.22,0.22
1094,1.34,1.09,1.40,1.14,-1.14,-1.03,0.20,0.25,0.25
1105,1.51,1.22,1.56,1.27,-1.27,-1.14,0.23,0.29,0.29
1116,1.67,1.35,1.72,1.40,-1.40,-1.25,0.27,0.32,0.32
1128,1.97,1.61,1.87,1.51,-1.51,-1.36,0.45,0.36,0.36
1139,2.02,1.63,2.01,1.62,-1.62,-1.46,0.40,0.39,0.39
1150,2.26,1.84,2.14,1.72,-1.72,-1.55,0.54,0.42,0.42
1162,2.27,1.82,2.26,1.80,-1.80,-1.65,0.47,0.46,0.46
1173,2.28,1.79,2.36,1.87,-1.87,-1.74,0.41,0.49,0.49
1185,2.41,1.89,2.46,1.94,-1.94,-1.83,0.47,0.52,0.52
1197,2.51,1.96,2.54,1.99,-1.99,-1.91,0.52,0.55,0.55
1209,2.51,1.94,2.61,2.04,-2.04,-1.99,0.47,0.57,0.57
1221,2.74,2.15,2.66,2.07,-2.07,-2.07,0.68,0.60,0.60
1233,2.75,2.13,2.70,2.08,-2.08,-2.14,0.67,0.62,0.62
1246,2.76,2.12,2.71,2.07,-2.07,-2.21,0.69,0.64,0.64
1258,2.77,2.12,2.70,2.05,-2.05,-2.26,0.73,0.65,0.65
1271,2.78,2.12,2.68,2.01,-2.01,-2.32,0.77,0.67,0.67
1283,2.62,1.95,2.64,1.97,-1.97,-2.37,0.66,0.68,0.68
1296,2.57,1.89,2.61,1.93,-1.93,-2.41,0.64,0.68,0.68
1309,2.57,1.89,2.59,1.91,-1.91,-2.45,0.66,0.69,0.69
1322,2.37,1.68,2.60,1.91,-1.91,-2.48,0.46,0.69,0.69
1335,2.46,1.77,2.62,1.94,-1.94,-2.50,0.52,0.68,0.68
1349,2.62,1.94,2.66,1.98,-1.98,-2.52,0.64,0.68,0.68
1362,2.78,2.10,2.71,2.03,-2.03,-2.53,0.75,0.67,0.67
1376,2.87,2.20,2.75,2.08,-2.08,-2.53,0.78,0.67,0.67
1390,2.87,2.21,2.77,2.12,-2.12,-2.52,0.75,0.66,0.66
1404,2.87,2.22,2.78,2.13,-2.13,-2.51,0.74,0.65,0.65
1418,2.80,2.16,2.75,2.11,-2.11,-2.49,0.69,0.64,0.64
1432,2.63,2.00,2.69,2.06,-2.06,-2.47,0.58,0.63,0.63
1446,2.63,2.01,2.61,1.98,-1.98,-2.44,0.65,0.63,0.63
1461,2.46,1.84,2.51,1.89,-1.89,-2.39,0.57,0.62,0.62
1475,2.41,1.79,2.40,1.78,-1.78,-2.35,0.62,0.62,0.62
1490,2.18,1.56,2.28,1.67,-1.67,-2.30,0.51,0.62,0.61
1505,2.18,1.56,2.17,1.56,-1.56,-2.24,0.62,0.62,0.62
1520,2.18,1.55,2.07,1.45,-1.45,-2.17,0.73,0.62,0.62
1535,2.07,1.44,1.98,1.35,-1.35,-2.10,0.73,0.63,0.63
1550,1.82,1.17,1.90,1.25,-1.25,-2.02,0.57,0.65,0.65
1566,1.73,1.07,1.84,1.17,-1.17,-1.94,0.56,0.67,0.67
1582,1.75,1.06,1.80,1.11,-1.11,-1.85,0.64,0.69,0.69
1597,1.77,1.05,1.77,1.05,-1.05,-1.76,0.72,0.72,0.72
