frequency,raw,error,smoothed,error_smoothed,equalization,parametric_eq,equalized_raw,equalized_smoothed,target
20,-15.24,-15.92,-15.09,-15.74,6.00,2.89,-9.24,-9.09,0.68
21,-14.37,-15.05,-14.40,-15.05,6.00,3.31,-8.37,-8.40,0.68
22,-13.68,-14.36,-13.73,-14.39,6.00,3.77,-7.68,-7.73,0.68
23,-13.02,-13.70,-13.08,-13.74,6.00,4.27,-7.02,-7.08,0.68
24,-12.42,-13.10,-12.45,-13.12,6.00,4.80,-6.42,-6.45,0.68
25,-11.83,-12.51,-11.85,-12.52,6.00,5.35,-5.83,-5.85,0.68
26,-11.26,-11.94,-11.27,-11.94,6.00,5.90,-5.26,-5.27,0.68
27,-10.72,-11.40,-10.71,-11.39,6.00,6.42,-4.72,-4.71,0.68
28,-10.15,-10.83,-10.17,-10.85,6.00,6.89,-4.15,-4.17,0.68
29,-9.59,-10.27,-9.66,-10.34,6.00,7.26,-3.59,-3.66,0.68
30,-9.21,-9.89,-9.17,-9.85,6.00,7.51,-3.21,-3.17,0.68
31,-8.67,-9.35,-8.73,-9.39,6.00,7.62,-2.67,-2.73,0.68
32,-8.20,-8.88,-8.29,-8.95,6.00,7.59,-2.20,-2.29,0.68
33,-7.83,-8.51,-7.88,-8.54,6.00,7.43,-1.83,-1.88,0.68
34,-7.47,-8.15,-7.47,-8.14,6.00,7.17,-1.47,-1.47,0.68
35,-7.14,-7.82,-7.10,-7.76,6.00,6.85,-1.14,-1.10,0.68
36,-6.81,-7.49,-6.74,-7.39,6.00,6.49,-0.81,-0.74,0.68
37,-6.49,-7.17,-6.38,-7.04,6.00,6.11,-0.49,-0.38,0.68
38,-6.05,-6.73,-6.04,-6.70,6.00,5.73,-0.05,-0.04,0.68
39,-5.67,-6.35,-5.71,-6.37,5.94,5.36,0.27,0.23,0.68
40,-5.43,-6.11,-5.39,-6.06,5.80,5.01,0.37,0.41,0.68
41,-5.03,-5.71,-5.09,-5.75,5.61,4.68,0.58,0.52,0.68
42,-4.76,-5.44,-4.78,-5.44,5.38,4.37,0.62,0.60,0.68
43,-4.49,-5.17,-4.49,-5.15,5.13,4.09,0.64,0.65,0.68
44,-4.23,-4.91,-4.19,-4.87,4.87,3.82,0.64,0.68,0.68
45,-3.89,-4.57,-3.91,-4.59,4.59,3.58,0.70,0.68,0.68
46,-3.57,-4.25,-3.65,-4.32,4.32,3.36,0.75,0.68,0.68
47,-3.41,-4.09,-3.39,-4.07,4.07,3.15,0.66,0.68,0.68
48,-3.24,-3.92,-3.15,-3.82,3.82,2.96,0.58,0.67,0.68
49,-2.92,-3.60,-2.91,-3.58,3.58,2.78,0.66,0.67,0.68
50,-2.66,-3.34,-2.68,-3.35,3.35,2.62,0.69,0.67,0.68
51,-2.40,-3.08,-2.45,-3.13,3.13,2.46,0.73,0.67,0.68
52,-2.27,-2.95,-2.23,-2.91,2.91,2.32,0.64,0.68,0.68
53,-1.99,-2.67,-2.03,-2.70,2.70,2.19,0.71,0.68,0.68
54,-1.89,-2.57,-1.82,-2.50,2.50,2.07,0.61,0.68,0.68
55,-1.62,-2.30,-1.64,-2.31,2.31,1.95,0.69,0.67,0.68
56,-1.40,-2.08,-1.45,-2.12,2.12,1.84,0.72,0.67,0.68
57,-1.30,-1.98,-1.26,-1.94,1.94,1.74,0.64,0.68,0.68
58,-1.11,-1.79,-1.09,-1.77,1.77,1.64,0.66,0.68,0.68
59,-0.92,-1.60,-0.94,-1.61,1.61,1.55,0.69,0.67,0.68
60,-0.73,-1.41,-0.78,-1.45,1.45,1.46,0.72,0.67,0.68
61,-0.65,-1.33,-0.63,-1.31,1.31,1.37,0.66,0.68,0.68
62,-0.52,-1.20,-0.49,-1.17,1.17,1.29,0.65,0.68,0.68
63,-0.34,-1.02,-0.36,-1.04,1.04,1.21,0.70,0.67,0.68
64,-0.32,-1.00,-0.24,-0.91,0.91,1.13,0.59,0.68,0.68
65,0.00,-0.68,-0.12,-0.80,0.80,1.06,0.80,0.68,0.68
66,0.00,-0.68,-0.02,-0.69,0.69,0.99,0.69,0.67,0.68
67,0.03,-0.65,0.08,-0.59,0.59,0.92,0.62,0.67,0.68
68,0.20,-0.48,0.17,-0.49,0.49,0.85,0.69,0.66,0.68
69,0.32,-0.36,0.27,-0.39,0.39,0.78,0.71,0.66,0.68
70,0.32,-0.36,0.36,-0.30,0.30,0.72,0.62,0.66,0.68
71,0.36,-0.32,0.45,-0.22,0.22,0.65,0.58,0.67,0.68
72,0.52,-0.16,0.53,-0.14,0.14,0.59,0.66,0.68,0.68
73,0.65,-0.03,0.61,-0.07,0.07,0.53,0.72,0.67,0.68
74,0.65,-0.03,0.67,0.00,-0.00,0.47,0.65,0.67,0.68
75,0.65,-0.03,0.72,0.06,-0.06,0.41,0.59,0.65,0.68
76,0.80,0.12,0.78,0.12,-0.12,0.35,0.68,0.66,0.68
77,0.95,0.27,0.83,0.18,-0.18,0.29,0.77,0.66,0.68
78,0.97,0.29,0.88,0.23,-0.23,0.23,0.74,0.65,0.68
79,0.97,0.29,0.94,0.28,-0.28,0.17,0.69,0.66,0.68
80,0.97,0.29,0.99,0.32,-0.32,0.12,0.65,0.67,0.68
81,0.97,0.29,1.03,0.36,-0.36,0.06,0.61,0.67,0.68
82,0.97,0.29,1.06,0.40,-0.40,0.01,0.57,0.66,0.68
83,0.99,0.31,1.09,0.44,-0.44,-0.05,0.55,0.65,0.68
84,1.12,0.44,1.13,0.48,-0.48,-0.11,0.64,0.66,0.68
85,1.26,0.58,1.17,0.51,-0.51,-0.16,0.75,0.66,0.68
86,1.30,0.62,1.21,0.56,-0.56,-0.22,0.74,0.65,0.68
87,1.30,0.62,1.25,0.60,-0.60,-0.27,0.70,0.65,0.68
88,1.30,0.62,1.31,0.65,-0.65,-0.32,0.65,0.66,0.68
89,1.30,0.62,1.36,0.69,-0.69,-0.38,0.61,0.67,0.68
90,1.30,0.62,1.41,0.73,-0.73,-0.43,0.57,0.68,0.68
91,1.38,0.70,1.45,0.77,-0.77,-0.49,0.61,0.68,0.68
92,1.50,0.82,1.49,0.81,-0.81,-0.54,0.69,0.67,0.68
93,1.62,0.94,1.51,0.85,-0.85,-0.60,0.77,0.66,0.68
94,1.62,0.94,1.53,0.88,-0.88,-0.65,0.74,0.65,0.68
95,1.62,0.94,1.56,0.91,-0.91,-0.70,0.71,0.64,0.68
96,1.62,0.94,1.59,0.95,-0.95,-0.76,0.67,0.64,0.68
97,1.62,0.94,1.64,0.99,-0.99,-0.81,0.63,0.65,0.68
98,1.62,0.94,1.68,1.02,-1.02,-0.86,0.60,0.65,0.68
99,1.62,0.94,1.72,1.06,-1.06,-0.92,0.56,0.66,0.68
100,1.63,0.95,1.75,1.09,-1.09,-0.97,0.54,0.66,0.68
101,1.75,1.07,1.78,1.12,-1.12,-1.02,0.63,0.66,0.68
102,1.78,1.10,1.80,1.15,-1.15,-1.07,0.63,0.65,0.68
104,1.91,1.23,1.83,1.17,-1.17,-1.17,0.74,0.65,0.68
105,1.95,1.27,1.85,1.20,-1.20,-1.22,0.75,0.66,0.68
106,1.95,1.27,1.88,1.22,-1.22,-1.26,0.73,0.66,0.68
107,1.95,1.27,1.91,1.25,-1.25,-1.31,0.70,0.66,0.68
108,1.95,1.27,1.93,1.27,-1.27,-1.35,0.68,0.67,0.68
109,1.95,1.27,1.95,1.28,-1.28,-1.40,0.67,0.67,0.68
110,1.95,1.27,1.97,1.30,-1.30,-1.44,0.65,0.67,0.68
111,1.95,1.27,1.98,1.32,-1.32,-1.48,0.63,0.66,0.68
112,1.95,1.27,2.00,1.34,-1.34,-1.52,0.61,0.66,0.68
113,1.95,1.27,2.01,1.36,-1.36,-1.55,0.59,0.66,0.68
114,1.98,1.30,2.03,1.38,-1.38,-1.59,0.60,0.65,0.68
115,2.08,1.40,2.06,1.40,-1.40,-1.62,0.68,0.66,0.68
117,2.11,1.43,2.09,1.43,-1.43,-1.68,0.68,0.66,0.68
118,2.11,1.43,2.13,1.46,-1.46,-1.71,0.65,0.67,0.68
119,2.14,1.46,2.16,1.49,-1.49,-1.73,0.65,0.67,0.68
120,2.23,1.55,2.19,1.52,-1.52,-1.75,0.71,0.67,0.68
121,2.27,1.59,2.21,1.54,-1.54,-1.77,0.73,0.67,0.68
123,2.27,1.59,2.24,1.56,-1.56,-1.81,0.71,0.68,0.68
124,2.27,1.59,2.26,1.58,-1.58,-1.82,0.69,0.68,0.68
125,2.27,1.59,2.27,1.59,-1.59,-1.83,0.68,0.68,0.68
126,2.27,1.59,2.28,1.60,-1.60,-1.84,0.67,0.68,0.68
128,2.27,1.59,2.28,1.61,-1.61,-1.85,0.66,0.67,0.68
129,2.27,1.59,2.28,1.61,-1.61,-1.86,0.66,0.67,0.68
130,2.27,1.59,2.28,1.61,-1.61,-1.86,0.66,0.68,0.68
131,2.27,1.59,2.28,1.60,-1.60,-1.86,0.67,0.67,0.68
133,2.27,1.59,2.27,1.60,-1.60,-1.85,0.67,0.67,0.68
134,2.27,1.59,2.27,1.60,-1.60,-1.84,0.67,0.67,0.68
135,2.27,1.59,2.27,1.60,-1.60,-1.84,0.67,0.67,0.68
137,2.27,1.59,2.27,1.59,-1.59,-1.82,0.68,0.68,0.68
138,2.27,1.59,2.27,1.59,-1.59,-1.81,0.68,0.68,0.68
140,2.27,1.59,2.27,1.59,-1.59,-1.79,0.68,0.68,0.68
141,2.27,1.59,2.27,1.59,-1.59,-1.78,0.68,0.68,0.68
142,2.27,1.59,2.27,1.59,-1.59,-1.77,0.68,0.68,0.68
144,2.27,1.59,2.27,1.59,-1.59,-1.74,0.68,0.68,0.68
145,2.27,1.59,2.27,1.59,-1.59,-1.72,0.68,0.68,0.68
147,2.27,1.59,2.27,1.59,-1.59,-1.70,0.68,0.68,0.68
148,2.27,1.59,2.27,1.59,-1.59,-1.68,0.68,0.68,0.68
150,2.27,1.59,2.27,1.59,-1.59,-1.65,0.68,0.68,0.68
151,2.27,1.59,2.27,1.59,-1.59,-1.64,0.68,0.68,0.68
153,2.27,1.59,2.27,1.59,-1.59,-1.61,0.68,0.68,0.68
154,2.27,1.59,2.27,1.59,-1.59,-1.59,0.68,0.68,0.68
156,2.27,1.59,2.27,1.59,-1.59,-1.57,0.68,0.68,0.68
157,2.27,1.59,2.27,1.59,-1.59,-1.55,0.68,0.68,0.68
159,2.27,1.59,2.27,1.59,-1.59,-1.53,0.68,0.68,0.68
160,2.27,1.59,2.27,1.59,-1.59,-1.51,0.68,0.68,0.68
162,2.27,1.59,2.27,1.59,-1.59,-1.49,0.68,0.68,0.68
164,2.27,1.59,2.27,1.59,-1.59,-1.46,0.68,0.68,0.68
165,2.27,1.59,2.27,1.59,-1.59,-1.45,0.68,0.68,0.68
167,2.27,1.59,2.27,1.59,-1.59,-1.43,0.68,0.68,0.68
169,2.27,1.59,2.27,1.59,-1.59,-1.41,0.68,0.68,0.68
170,2.27,1.59,2.27,1.59,-1.59,-1.41,0.68,0.68,0.68
172,2.27,1.59,2.27,1.59,-1.59,-1.39,0.68,0.68,0.68
174,2.27,1.59,2.27,1.59,-1.59,-1.37,0.68,0.68,0.68
175,2.27,1.59,2.27,1.59,-1.59,-1.37,0.68,0.68,0.68
177,2.27,1.59,2.27,1.59,-1.59,-1.36,0.68,0.68,0.68
179,2.27,1.59,2.27,1.59,-1.59,-1.34,0.68,0.68,0.68
181,2.27,1.59,2.27,1.59,-1.59,-1.34,0.68,0.68,0.68
183,2.27,1.59,2.27,1.59,-1.59,-1.33,0.68,0.68,0.68
184,2.27,1.59,2.27,1.59,-1.59,-1.32,0.68,0.68,0.68
186,2.27,1.59,2.27,1.59,-1.59,-1.32,0.68,0.68,0.68
188,2.27,1.59,2.27,1.59,-1.59,-1.31,0.68,0.68,0.68
190,2.27,1.59,2.27,1.59,-1.59,-1.31,0.68,0.68,0.68
192,2.27,1.59,2.27,1.59,-1.59,-1.31,0.68,0.68,0.68
194,2.27,1.59,2.27,1.60,-1.60,-1.31,0.67,0.67,0.68
196,2.27,1.59,2.27,1.60,-1.60,-1.31,0.67,0.67,0.68
198,2.27,1.59,2.27,1.60,-1.60,-1.31,0.67,0.67,0.68
200,2.27,1.59,2.28,1.60,-1.60,-1.31,0.67,0.68,0.68
202,2.27,1.59,2.28,1.61,-1.61,-1.31,0.66,0.68,0.68
204,2.27,1.59,2.28,1.61,-1.61,-1.32,0.66,0.67,0.68
206,2.27,1.59,2.28,1.60,-1.60,-1.32,0.67,0.67,0.68
208,2.27,1.59,2.27,1.60,-1.60,-1.32,0.67,0.68,0.68
210,2.27,1.59,2.27,1.59,-1.59,-1.33,0.68,0.68,0.68
212,2.27,1.59,2.25,1.57,-1.57,-1.33,0.70,0.68,0.68
214,2.27,1.59,2.23,1.56,-1.56,-1.34,0.71,0.68,0.68
216,2.27,1.59,2.21,1.54,-1.54,-1.34,0.73,0.67,0.68
218,2.22,1.54,2.18,1.51,-1.51,-1.35,0.71,0.67,0.68
221,2.11,1.43,2.15,1.48,-1.48,-1.36,0.63,0.67,0.68
223,2.11,1.43,2.12,1.45,-1.45,-1.36,0.66,0.67,0.68
225,2.11,1.43,2.09,1.42,-1.42,-1.37,0.69,0.67,0.68
227,2.08,1.40,2.06,1.39,-1.39,-1.37,0.69,0.67,0.68
229,1.98,1.30,2.03,1.36,-1.36,-1.37,0.62,0.67,0.68
232,1.95,1.27,2.00,1.34,-1.34,-1.38,0.61,0.67,0.68
234,1.95,1.27,1.98,1.31,-1.31,-1.38,0.64,0.66,0.68
236,1.95,1.27,1.96,1.30,-1.30,-1.38,0.65,0.66,0.68
239,1.95,1.27,1.95,1.29,-1.29,-1.38,0.66,0.66,0.68
241,1.95,1.27,1.94,1.28,-1.28,-1.39,0.67,0.67,0.68
244,1.95,1.27,1.94,1.27,-1.27,-1.38,0.68,0.67,0.68
246,1.95,1.27,1.94,1.27,-1.27,-1.38,0.68,0.67,0.68
248,1.95,1.27,1.95,1.27,-1.27,-1.38,0.68,0.68,0.68
251,1.95,1.27,1.95,1.27,-1.27,-1.38,0.68,0.67,0.68
253,1.95,1.27,1.95,1.27,-1.27,-1.37,0.68,0.68,0.68
256,1.95,1.27,1.95,1.27,-1.27,-1.37,0.68,0.68,0.68
259,1.95,1.27,1.95,1.27,-1.27,-1.36,0.68,0.68,0.68
261,1.95,1.27,1.94,1.26,-1.26,-1.35,0.69,0.68,0.68
264,1.95,1.27,1.93,1.25,-1.25,-1.34,0.70,0.68,0.68
266,1.95,1.27,1.92,1.24,-1.24,-1.34,0.71,0.68,0.68
269,1.95,1.27,1.90,1.23,-1.23,-1.32,0.72,0.67,0.68
272,1.83,1.15,1.89,1.22,-1.22,-1.31,0.61,0.67,0.68
274,1.83,1.15,1.87,1.20,-1.20,-1.30,0.63,0.67,0.68
277,1.94,1.26,1.85,1.19,-1.19,-1.29,0.75,0.66,0.68
280,1.82,1.14,1.84,1.17,-1.17,-1.27,0.65,0.67,0.68
283,1.78,1.10,1.83,1.16,-1.16,-1.26,0.62,0.67,0.68
286,1.78,1.10,1.82,1.15,-1.15,-1.25,0.63,0.67,0.68
288,1.78,1.10,1.80,1.13,-1.13,-1.24,0.65,0.67,0.68
291,1.78,1.10,1.79,1.12,-1.12,-1.22,0.66,0.67,0.68
294,1.78,1.10,1.77,1.10,-1.10,-1.21,0.68,0.67,0.68
297,1.78,1.10,1.76,1.09,-1.09,-1.19,0.69,0.67,0.68
300,1.78,1.10,1.74,1.07,-1.07,-1.18,0.71,0.67,0.68
303,1.78,1.10,1.72,1.06,-1.06,-1.16,0.72,0.67,0.68
306,1.78,1.10,1.71,1.04,-1.04,-1.15,0.74,0.66,0.68
309,1.68,1.00,1.70,1.03,-1.03,-1.14,0.65,0.67,0.68
312,1.62,0.94,1.68,1.01,-1.01,-1.13,0.61,0.67,0.68
316,1.62,0.94,1.66,0.99,-0.99,-1.11,0.63,0.67,0.68
319,1.62,0.94,1.65,0.98,-0.98,-1.10,0.64,0.67,0.68
322,1.62,0.94,1.64,0.97,-0.97,-1.09,0.65,0.67,0.68
325,1.62,0.94,1.62,0.96,-0.96,-1.08,0.66,0.67,0.68
328,1.62,0.94,1.61,0.95,-0.95,-1.07,0.67,0.67,0.68
332,1.62,0.94,1.61,0.94,-0.94,-1.06,0.68,0.67,0.68
335,1.62,0.94,1.61,0.94,-0.94,-1.06,0.68,0.67,0.68
338,1.62,0.94,1.61,0.94,-0.94,-1.05,0.68,0.67,0.68
342,1.62,0.94,1.62,0.94,-0.94,-1.04,0.68,0.68,0.68
345,1.62,0.94,1.62,0.94,-0.94,-1.04,0.68,0.68,0.68
349,1.62,0.94,1.62,0.94,-0.94,-1.03,0.68,0.68,0.68
352,1.62,0.94,1.62,0.94,-0.94,-1.03,0.68,0.68,0.68
356,1.62,0.94,1.62,0.94,-0.94,-1.03,0.68,0.68,0.68
359,1.62,0.94,1.62,0.94,-0.94,-1.03,0.68,0.68,0.68
363,1.62,0.94,1.62,0.94,-0.94,-1.03,0.68,0.68,0.68
366,1.62,0.94,1.62,0.94,-0.94,-1.02,0.68,0.68,0.68
370,1.62,0.94,1.62,0.94,-0.94,-1.03,0.68,0.68,0.68
374,1.62,0.94,1.62,0.94,-0.94,-1.03,0.68,0.68,0.68
377,1.62,0.94,1.62,0.94,-0.94,-1.03,0.68,0.68,0.68
381,1.62,0.94,1.62,0.94,-0.94,-1.03,0.68,0.68,0.68
385,1.62,0.94,1.62,0.94,-0.94,-1.03,0.68,0.68,0.68
389,1.62,0.94,1.62,0.94,-0.94,-1.04,0.68,0.68,0.68
393,1.62,0.94,1.62,0.95,-0.95,-1.04,0.67,0.67,0.68
397,1.62,0.94,1.62,0.95,-0.95,-1.05,0.67,0.67,0.68
401,1.62,0.94,1.63,0.95,-0.95,-1.05,0.67,0.68,0.68
405,1.62,0.94,1.63,0.94,-0.94,-1.06,0.68,0.68,0.68
409,1.62,0.94,1.62,0.94,-0.94,-1.07,0.68,0.68,0.68
413,1.62,0.94,1.62,0.94,-0.94,-1.07,0.68,0.68,0.68
417,1.62,0.94,1.61,0.94,-0.94,-1.08,0.68,0.67,0.68
421,1.62,0.94,1.61,0.94,-0.94,-1.08,0.68,0.67,0.68
425,1.62,0.94,1.60,0.93,-0.93,-1.09,0.69,0.67,0.68
430,1.62,0.94,1.60,0.93,-0.93,-1.10,0.69,0.67,0.68
434,1.62,0.94,1.60,0.93,-0.93,-1.10,0.69,0.66,0.68
438,1.62,0.94,1.60,0.93,-0.93,-1.11,0.69,0.66,0.68
443,1.51,0.83,1.60,0.94,-0.94,-1.11,0.57,0.66,0.68
447,1.51,0.83,1.61,0.94,-0.94,-1.12,0.57,0.67,0.68
451,1.61,0.93,1.61,0.94,-0.94,-1.12,0.67,0.67,0.68
456,1.62,0.94,1.61,0.94,-0.94,-1.12,0.68,0.67,0.68
460,1.62,0.94,1.62,0.94,-0.94,-1.12,0.68,0.67,0.68
465,1.62,0.94,1.61,0.93,-0.93,-1.12,0.69,0.68,0.68
470,1.62,0.94,1.60,0.92,-0.92,-1.12,0.70,0.67,0.68
474,1.62,0.94,1.58,0.91,-0.91,-1.12,0.71,0.67,0.68
479,1.62,0.94,1.56,0.89,-0.89,-1.12,0.73,0.67,0.68
484,1.62,0.94,1.54,0.87,-0.87,-1.11,0.75,0.67,0.68
489,1.53,0.85,1.51,0.84,-0.84,-1.10,0.69,0.68,0.68
494,1.46,0.78,1.48,0.81,-0.81,-1.09,0.65,0.67,0.68
499,1.46,0.78,1.44,0.78,-0.78,-1.08,0.68,0.66,0.68
504,1.35,0.67,1.41,0.74,-0.74,-1.07,0.61,0.66,0.68
509,1.30,0.62,1.38,0.71,-0.71,-1.06,0.59,0.66,0.68
514,1.30,0.62,1.35,0.69,-0.69,-1.04,0.61,0.66,0.68
519,1.30,0.62,1.32,0.66,-0.66,-1.02,0.64,0.66,0.68
524,1.30,0.62,1.30,0.64,-0.64,-1.00,0.66,0.66,0.68
529,1.30,0.62,1.29,0.63,-0.63,-0.98,0.67,0.66,0.68
535,1.30,0.62,1.28,0.62,-0.62,-0.96,0.68,0.66,0.68
540,1.30,0.62,1.29,0.61,-0.61,-0.93,0.69,0.67,0.68
545,1.30,0.62,1.29,0.61,-0.61,-0.91,0.69,0.67,0.68
551,1.30,0.62,1.29,0.61,-0.61,-0.88,0.69,0.68,0.68
556,1.30,0.62,1.30,0.61,-0.61,-0.85,0.69,0.68,0.68
562,1.30,0.62,1.30,0.62,-0.62,-0.82,0.68,0.68,0.68
568,1.30,0.62,1.30,0.62,-0.62,-0.79,0.68,0.68,0.68
573,1.30,0.62,1.30,0.62,-0.62,-0.76,0.68,0.68,0.68
579,1.30,0.62,1.30,0.62,-0.62,-0.73,0.68,0.68,0.68
585,1.30,0.62,1.30,0.62,-0.62,-0.69,0.68,0.68,0.68
591,1.30,0.62,1.30,0.62,-0.62,-0.66,0.68,0.68,0.68
596,1.30,0.62,1.30,0.62,-0.62,-0.63,0.68,0.68,0.68
602,1.30,0.62,1.30,0.62,-0.62,-0.59,0.68,0.68,0.68
608,1.30,0.62,1.30,0.62,-0.62,-0.56,0.68,0.68,0.68
615,1.30,0.62,1.30,0.62,-0.62,-0.52,0.68,0.68,0.68
621,1.30,0.62,1.30,0.62,-0.62,-0.48,0.68,0.68,0.68
627,1.30,0.62,1.30,0.62,-0.62,-0.45,0.68,0.68,0.68
633,1.30,0.62,1.30,0.62,-0.62,-0.41,0.68,0.68,0.68
639,1.30,0.62,1.30,0.62,-0.62,-0.38,0.68,0.68,0.68
646,1.30,0.62,1.30,0.62,-0.62,-0.34,0.68,0.68,0.68
652,1.30,0.62,1.30,0.62,-0.62,-0.30,0.68,0.68,0.68
659,1.30,0.62,1.30,0.62,-0.62,-0.26,0.68,0.68,0.68
665,1.30,0.62,1.30,0.62,-0.62,-0.23,0.68,0.68,0.68
672,1.30,0.62,1.30,0.62,-0.62,-0.19,0.68,0.68,0.68
679,1.30,0.62,1.30,0.62,-0.62,-0.15,0.68,0.68,0.68
686,1.30,0.62,1.30,0.62,-0.62,-0.11,0.68,0.68,0.68
692,1.30,0.62,1.30,0.62,-0.62,-0.08,0.68,0.68,0.68
699,1.30,0.62,1.30,0.62,-0.62,-0.04,0.68,0.68,0.68
706,1.30,0.62,1.30,0.63,-0.63,-0.01,0.67,0.67,0.68
713,1.30,0.62,1.30,0.63,-0.63,0.03,0.67,0.67,0.68
721,1.30,0.62,1.30,0.63,-0.63,0.07,0.67,0.67,0.68
728,1.30,0.62,1.30,0.64,-0.64,0.11,0.66,0.67,0.68
735,1.30,0.62,1.31,0.64,-0.64,0.14,0.66,0.67,0.68
742,1.30,0.62,1.32,0.64,-0.64,0.18,0.66,0.68,0.68
750,1.30,0.62,1.32,0.64,-0.64,0.22,0.66,0.68,0.68
757,1.30,0.62,1.32,0.63,-0.63,0.25,0.67,0.69,0.68
765,1.30,0.62,1.31,0.63,-0.63,0.29,0.67,0.68,0.68
773,1.30,0.62,1.29,0.61,-0.61,0.33,0.69,0.68,0.68
780,1.30,0.62,1.27,0.60,-0.60,0.36,0.70,0.67,0.68
788,1.30,0.62,1.24,0.58,-0.58,0.40,0.72,0.66,0.68
796,1.30,0.62,1.21,0.55,-0.55,0.44,0.75,0.66,0.68
804,1.26,0.58,1.19,0.52,-0.52,0.47,0.74,0.66,0.68
812,1.15,0.47,1.16,0.49,-0.49,0.51,0.66,0.67,0.68
820,1.04,0.36,1.13,0.45,-0.45,0.55,0.59,0.67,0.68
828,0.97,0.29,1.09,0.42,-0.42,0.58,0.55,0.67,0.68
837,0.97,0.29,1.04,0.38,-0.38,0.62,0.59,0.66,0.68
845,0.97,0.29,1.00,0.34,-0.34,0.65,0.63,0.66,0.68
853,0.97,0.29,0.96,0.30,-0.30,0.68,0.67,0.66,0.68
862,0.97,0.29,0.92,0.26,-0.26,0.72,0.71,0.66,0.68
871,0.97,0.29,0.88,0.21,-0.21,0.75,0.76,0.66,0.68
879,0.90,0.22,0.84,0.17,-0.17,0.78,0.73,0.67,0.68
888,0.79,0.11,0.80,0.12,-0.12,0.81,0.67,0.68,0.68
897,0.68,0.00,0.76,0.07,-0.07,0.85,0.61,0.69,0.68
906,0.65,-0.03,0.71,0.01,-0.01,0.87,0.64,0.70,0.68
915,0.65,-0.03,0.64,-0.04,0.04,0.90,0.69,0.69,0.68
924,0.65,-0.03,0.56,-0.11,0.11,0.93,0.76,0.67,0.68
933,0.56,-0.12,0.49,-0.17,0.17,0.96,0.73,0.66,0.68
943,0.44,-0.24,0.42,-0.24,0.24,0.98,0.68,0.66,0.68
952,0.33,-0.35,0.35,-0.31,0.31,1.00,0.64,0.67,0.68
962,0.32,-0.36,0.28,-0.39,0.39,1.03,0.71,0.67,0.68
971,0.21,-0.47,0.22,-0.46,0.46,1.05,0.67,0.67,0.68
981,0.00,-0.68,0.15,-0.53,0.53,1.06,0.53,0.68,0.68
991,0.00,-0.68,0.08,-0.59,0.59,1.08,0.59,0.68,0.68
1001,0.00,-0.68,0.01,-0.66,0.66,1.10,0.66,0.67,0.68
1011,0.00,-0.68,-0.06,-0.71,0.71,1.11,0.71,0.66,0.68
1021,0.00,-0.68,-0.11,-0.76,0.76,1.12,0.76,0.65,0.68
1031,-0.09,-0.77,-0.16,-0.81,0.81,1.14,0.72,0.65,0.68
1041,-0.19,-0.87,-0.20,-0.85,0.85,1.14,0.66,0.65,0.68
1052,-0.31,-0.99,-0.23,-0.88,0.88,1.15,0.57,0.65,0.68
1062,-0.32,-1.00,-0.25,-0.91,0.91,1.16,0.59,0.66,0.68
1073,-0.32,-1.00,-0.26,-0.93,0.93,1.17,0.61,0.67,0.68
1084,-0.32,-1.00,-0.27,-0.95,0.95,1.17,0.63,0.68,0.68
1094,-0.32,-1.00,-0.29,-0.96,0.96,1.17,0.64,0.67,0.68
1105,-0.32,-1.00,-0.31,-0.98,0.98,1.18,0.66,0.67,0.68
1116,-0.32,-1.00,-0.33,-1.00,1.00,1.18,0.68,0.67,0.68
1128,-0.32,-1.00,-0.36,-1.02,1.02,1.18,0.70,0.66,0.68
1139,-0.32,-1.00,-0.38,-1.05,1.05,1.18,0.73,0.67,0.68
1150,-0.32,-1.00,-0.40,-1.08,1.08,1.18,0.76,0.68,0.68
1162,-0.32,-1.00,-0.44,-1.12,1.12,1.18,0.80,0.68,0.68
1173,-0.49,-1.17,-0.49,-1.17,1.17,1.18,0.68,0.68,0.68
1185,-0.65,-1.33,-0.55,-1.24,1.24,1.18,0.59,0.69,0.68
1197,-0.65,-1.33,-0.62,-1.31,1.31,1.18,0.66,0.69,0.68
1209,-0.75,-1.43,-0.70,-1.39,1.39,1.18,0.64,0.69,0.68
1221,-0.86,-1.54,-0.80,-1.49,1.49,1.18,0.63,0.69,0.68
1233,-0.97,-1.65,-0.92,-1.61,1.61,1.18,0.64,0.69,0.68
1246,-0.97,-1.65,-1.05,-1.74,1.74,1.18,0.77,0.68,0.68
1258,-1.10,-1.78,-1.19,-1.88,1.88,1.19,0.78,0.69,0.68
1271,-1.31,-1.99,-1.34,-2.03,2.03,1.19,0.72,0.69,0.68
1283,-1.42,-2.10,-1.50,-2.19,2.19,1.19,0.77,0.69,0.68
1296,-1.61,-2.29,-1.67,-2.36,2.36,1.19,0.75,0.69,0.68
1309,-1.83,-2.51,-1.85,-2.54,2.54,1.20,0.71,0.69,0.68
1322,-2.06,-2.74,-2.05,-2.72,2.72,1.20,0.66,0.68,0.68
1335,-2.28,-2.96,-2.24,-2.91,2.91,1.21,0.63,0.67,0.68
1349,-2.47,-3.15,-2.43,-3.09,3.09,1.22,0.62,0.66,0.68
1362,-2.58,-3.26,-2.62,-3.27,3.27,1.22,0.69,0.65,0.68
1376,-2.80,-3.48,-2.80,-3.44,3.44,1.23,0.64,0.63,0.68
1390,-3.03,-3.71,-2.97,-3.59,3.59,1.24,0.56,0.63,0.68
1404,-3.24,-3.92,-3.11,-3.73,3.73,1.25,0.49,0.62,0.68
1418,-3.24,-3.92,-3.24,-3.85,3.85,1.26,0.61,0.61,0.68
1432,-3.31,-3.99,-3.35,-3.95,3.95,1.27,0.64,0.60,0.68
1446,-3.42,-4.10,-3.44,-4.03,4.03,1.29,0.61,0.59,0.68
1461,-3.54,-4.22,-3.50,-4.10,4.10,1.30,0.56,0.59,0.68
1475,-3.57,-4.25,-3.55,-4.14,4.14,1.31,0.57,0.60,0.68
1490,-3.57,-4.25,-3.57,-4.17,4.17,1.33,0.60,0.59,0.68
1505,-3.57,-4.25,-3.58,-4.18,4.18,1.35,0.61,0.59,0.68
1520,-3.57,-4.25,-3.56,-4.17,4.17,1.37,0.60,0.60,0.68
1535,-3.57,-4.25,-3.53,-4.15,4.15,1.39,0.58,0.62,0.68
1550,-3.57,-4.25,-3.50,-4.11,4.11,1.40,0.54,0.61,0.68
1566,-3.46,-4.14,-3.46,-4.07,4.07,1.43,0.61,0.60,0.68
1582,-3.35,-4.03,-3.40,-4.01,4.01,1.45,0.66,0.61,0.68
1597,-3.24,-3.92,-3.33,-3.95,3.95,1.47,0.71,0.61,0.68
1613,-3.24,-3.92,-3.25,-3.87,3.87,1.49,0.63,0.62,0.68
1629,-3.18,-3.86,-3.17,-3.79,3.79,1.52,0.61,0.63,0.68
1646,-3.06,-3.74,-3.07,-3.71,3.71,1.54,0.65,0.64,0.68
1662,-2.96,-3.64,-2.98,-3.62,3.62,1.57,0.66,0.64,0.68
1679,-2.92,-3.60,-2.88,-3.52,3.52,1.59,0.60,0.64,0.68
1696,-2.86,-3.54,-2.77,-3.42,3.42,1.62,0.56,0.65,0.68
1713,-2.63,-3.31,-2.66,-3.31,3.31,1.65,0.68,0.65,0.68
1730,-2.50,-3.18,-2.54,-3.19,3.19,1.67,0.69,0.65,0.68
1747,-2.39,-3.07,-2.42,-3.07,3.07,1.70,0.68,0.65,0.68
1764,-2.28,-2.96,-2.29,-2.95,2.95,1.73,0.67,0.66,0.68
1782,-2.17,-2.85,-2.15,-2.82,2.82,1.75,0.65,0.67,0.68
1800,-2.05,-2.73,-2.01,-2.69,2.69,1.78,0.64,0.68,0.68
1818,-1.94,-2.62,-1.88,-2.56,2.56,1.81,0.62,0.68,0.68
1836,-1.72,-2.40,-1.74,-2.43,2.43,1.84,0.71,0.68,0.68
1854,-1.56,-2.24,-1.61,-2.29,2.29,1.86,0.73,0.69,0.68
1873,-1.44,-2.12,-1.48,-2.16,2.16,1.89,0.72,0.68,0.68
1892,-1.33,-2.01,-1.35,-2.03,2.03,1.91,0.70,0.68,0.68
1911,-1.22,-1.90,-1.22,-1.90,1.90,1.94,0.68,0.68,0.68
1930,-1.10,-1.78,-1.10,-1.78,1.78,1.97,0.68,0.68,0.68
1949,-0.99,-1.67,-0.98,-1.66,1.66,1.99,0.67,0.68,0.68
1969,-0.88,-1.56,-0.86,-1.54,1.54,2.01,0.66,0.68,0.68
1988,-0.77,-1.45,-0.75,-1.43,1.43,2.04,0.66,0.68,0.68
2008,-0.66,-1.34,-0.64,-1.32,1.32,2.06,0.66,0.68,0.68
2028,-0.55,-1.23,-0.55,-1.22,1.22,2.08,0.67,0.67,0.68
2048,-0.43,-1.11,-0.45,-1.13,1.13,2.10,0.70,0.68,0.68
