frequency,raw,error,smoothed,error_smoothed,equalization,equalized_raw,equalized_smoothed,target
20,-0.3866400821557212,-0.4031192445499099,-0.35230745251958995,-0.3687722390440518,0.3687722390440517,-0.0178678431116695,0.01646478652446176,0.016479162394188673
21,0.1052321709193804,0.08758608445008241,0.1137218763083625,0.09607415869214397,-0.096074158692144,0.009158012227236403,0.0176477176162185,0.017646086469297995
22,0.6067885430954891,0.588025972102918,0.5345269160367068,0.5157532880362907,-0.5157532880362906,0.09103525505919852,0.018773628000416154,0.01876257099257117
23,0.918452204925114,0.8986249951899721,0.9101076666654428,0.8902651489883886,-0.8902651489883887,0.028187055936725325,0.01984251767705414,0.01982720973514196
24,1.249579107558834,1.2287407640110475,1.2404641281945699,1.2196097415484366,-1.2196097415484366,0.029969366010397458,0.02085438664613326,0.020838343547786575
25,1.5678117212687332,1.5460176923540179,1.5217835512048028,1.4999722511529603,-1.4999722511529603,0.06783947011577296,0.021811300051842508,0.02179402891471538
26,1.8416838516216862,1.8189918474117093,1.7584914908943476,1.735780120001143,-1.7357801200011433,0.1059037316205429,0.022711370893204297,0.022692004209976968
27,1.9371051507600756,1.9135710032130724,1.9547095322154693,1.9311571254042041,-1.9311571254042037,0.005948025355871911,0.02355240681126558,0.023534147547003226
28,2.018982337433202,1.9946688624652693,2.116239886480048,2.0919093156419564,-2.091909315641956,-0.07292697820875382,0.02433057083809187,0.02431347496793279
29,2.2574202434110027,2.232395524066228,2.2499227089463627,2.224882498910226,-2.2248824989102265,0.03253774450077618,0.025040210036136212,0.02502471934477457
30,2.35840696273846,2.332745709267497,2.3614279718682765,2.3357534278679126,-2.335753427867913,0.022653534870547,0.025674544000363397,0.025661253470963263
31,2.452377560912501,2.4261625013523282,2.455565724173823,2.429340295271551,-2.4293402952715506,0.023037265640950544,0.02622542890227253,0.026215059560172893
32,2.4510712562720482,2.424394447329913,2.5357368369986863,2.509053126805409,-2.5090531268054086,-0.05798187053336035,0.026683710193277754,0.0266768089421352
33,2.6907781501040704,2.663742084730433,2.6040497469042383,2.577010268077484,-2.5770102680774833,0.11376788202658705,0.027039478826754948,0.027036065373637452
34,2.6799261691089615,2.6526437831167584,2.661817704442177,2.6345354298227037,-2.6345354298227033,0.04539073928625825,0.027282274619473856,0.027282385992203118
35,2.6893549696314816,2.661950177336845,2.709858178859799,2.682456777657724,-2.6824567776577246,0.006898191973756962,0.02740140120207446,0.02740479229463677
36,2.6848751278499807,2.6574828005360858,2.74884961476969,2.7214634350028466,-2.7214634350028466,-0.03658830715286587,0.027386179766843544,0.02739232731389496
37,2.8085513125520816,2.7813169609462816,2.77949416483254,2.7522679660553235,-2.7522679660553235,0.056283346496758035,0.02722619877721666,0.02723435160580001
38,2.8164521853608306,2.7895314075458275,2.8025149178293245,2.7756033843270975,-2.7756033843270975,0.04084880103373312,0.02691153350222697,0.026920777815003127
39,2.8220418870819683,2.795599668952807,2.8185858897573866,2.7921529894401234,-2.7921529894401234,0.02988889764184499,0.026432900317263197,0.026442218129161255
40,2.8245076193579854,2.798717589763783,2.8282234095259406,2.8024416623176,-2.8024416623176,0.02206595704038561,0.02578174720834081,0.0257900295942024
41,2.823725830801091,2.7987694427938767,2.8317255203344804,2.806775258942527,-2.806775258942526,0.016950571858564967,0.02495026139195433,0.024956388007214336
42,2.820364540206024,2.7964303546421627,2.829195656607622,2.8052643675839297,-2.8052643675839306,0.0151001726220934,0.02393128902369135,0.023934185563861288
43,2.8156093693332287,2.7928925118120143,2.8206532464354557,2.797935078822123,-2.797935078822123,0.017674290511105806,0.022718167613332785,0.02271685752121444
44,2.8106770417167763,2.789378916664765,2.806212398536765,2.784907925488622,-2.7849079254886218,0.025769116228154587,0.02130447304814309,0.02129812505201123
45,2.8063838639018837,2.7867122021917226,2.7862785922205964,2.766594902210324,-2.7665949022103233,0.03978896169156032,0.019683690010273036,0.019671661710161104
46,2.802981740761413,2.7851510489348628,2.761704074007983,2.743855256693183,-2.743855256693184,0.05912648406822907,0.017848817314798815,0.017830691826550282
47,2.6997283918735806,2.683960862257388,2.7338460679369447,2.718054145043013,-2.718054145043013,-0.018325753169432524,0.01579192289393161,0.015767529616192544
48,2.6975075967849467,2.6840345053987082,2.704493367665833,2.6909897015855964,-2.690989701585597,0.006517895199349866,0.013503666080236343,0.013473091386238423
49,2.695663260559007,2.684726868380367,2.675666247964438,2.6646934416165946,-2.6646934416165933,0.030969818942413685,0.010972806347844699,0.010936392178639842
50,2.645984908677866,2.6378408597729543,2.649335954400244,2.6411502357408176,-2.641150235740817,0.004834672937048978,0.008185718659426744,0.008144048904911827
51,2.5933442058005802,2.588264394926876,2.627138376119203,2.622012440656462,-2.622012440656462,-0.02866823485588199,0.0051259354627406495,0.005079810873704016
52,2.5938491120463554,2.5921249743298724,2.610159028325206,2.6083852940494197,-2.6083852940494197,-0.01453618200306428,0.0017737342757864205,0.001724137716482943
53,2.595106602857762,2.5970527604921765,2.5988394135487516,2.600733625675339,-2.6007336256753395,-0.005627022817577654,-0.001894212126587913,-0.0019461576344146359
54,2.596622753933477,2.6025809411910776,2.593007472668437,2.5989125813051617,-2.5989125813051612,-0.002289827371684261,-0.005905108636724332,-0.005958187257600667
55,2.5978597884724697,2.6082029643969933,2.5919877033747563,2.6022779262358826,-2.6022779262358826,-0.004418137763412933,-0.010290222861126352,-0.010343175924523607
56,2.5985239228010584,2.6136604736995466,2.594722479555588,2.609807454559943,-2.6098074545599435,-0.01128353175888508,-0.01508497500435535,-0.015136550898488199
57,2.5987069730198793,2.6190849036243318,2.5998472602051677,2.62017618942163,-2.6201761894216298,-0.02146921640175048,-0.02032892921646212,-0.020377930604452477
58,2.598781022878347,2.6248920358584407,2.605702935762376,2.631768622695783,-2.6317686226957835,-0.032987599817436486,-0.026065686933407495,-0.026111012980093662
59,2.5991038931885884,2.6314872612792293,2.6103182588705707,2.642660945308924,-2.642660945308924,-0.04355705212033545,-0.03234268643835314,-0.03238336809064091
60,2.599722340353231,2.6389684833041898,2.611428693858887,2.650639610039962,-2.6506396100399625,-0.050917269686731714,-0.03921091618107564,-0.03924614295095896
61,2.6002710561629345,2.6470247456250333,2.6065958776142013,2.653320429771128,-2.6533204297711293,-0.05304937360819473,-0.046724552156927945,-0.04675368946209879
62,2.600149018388183,2.6551121468304983,2.593452292023562,2.648392823772295,-2.648392823772295,-0.048243805384112104,-0.05494053174873326,-0.05496312844231532
63,2.5988862743639505,2.6628201384641743,2.570036785660128,2.6339548634609526,-2.6339548634609526,-0.03506858909700217,-0.06391807780082459,-0.06393386410022384
64,2.5865236466470907,2.6602507105064657,2.5351370265609203,2.6088552138193855,-2.608855213819386,-0.02233156717229523,-0.07371818725846557,-0.073727063859375
65,2.493056180170487,2.577461298394985,2.488539213982029,2.5729423126990936,-2.572942312699093,-0.07988613252860599,-0.0844030987170643,-0.08440511822449803
66,2.4362246914195573,2.53225578585469,2.4311115068443128,2.5271472589023523,-2.527147258902353,-0.09092256748279581,-0.09603575205804038,-0.09603109443513258
67,2.3416048452790768,2.4502730413606124,2.364704000306487,2.4733832521484835,-2.473383252148483,-0.13177840686940634,-0.10867925184199612,-0.10866819608153566
68,2.2924071008800353,2.41478633970043,2.291908664119158,2.414305009130053,-2.414305009130052,-0.12189790825001667,-0.1223963450108938,-0.12237923882039459
69,2.2189953114917915,2.3562214614509673,2.215759702243103,2.353008623853932,-2.3530086238539316,-0.1340133123621401,-0.13724892161082858,-0.1372261499591758
70,2.1412318719772423,2.294501369126408,2.1394538623142334,2.292751405628577,-2.292751405628577,-0.15151953365133464,-0.15329754331434353,-0.1532694971491657
71,2.068507061535017,2.2390751104372257,2.066136854210759,2.2367378539046348,-2.2367378539046348,-0.1682307923696178,-0.17060099969387554,-0.17056804890220878
72,1.9994875616256782,2.1886659289034536,1.9987569305486843,2.1879728208084637,-2.1879728208084637,-0.18848525918278547,-0.18921589025977936,-0.18917836727777537
73,1.9324299399761056,2.141584370981805,1.9399538941401449,2.1491501290869075,-2.1491501290869075,-0.21672018911080193,-0.20919623494676265,-0.20915443100569986
74,1.8644461584425842,2.094993444059339,1.891946332251676,2.122539451447968,-2.1225394514479685,-0.2580932930053843,-0.23059311919629244,-0.2305472856167552
75,1.8751512065175024,2.1285559224372284,1.856400734444923,2.1098551168134247,-2.1098551168134243,-0.23470391029592186,-0.2534543823685014,-0.2534047159197259
76,1.8279600967637688,2.1057310321885137,1.8342976236693338,2.112121973496787,-2.1121219734967873,-0.2841618767330185,-0.2778243498274535,-0.2777709354247446
77,1.7861339211494496,2.089820208219387,1.8258316500770855,2.129575223497832,-2.1295752234978322,-0.34344130234838266,-0.30374357342074676,-0.3036862870699375
78,1.7894626800975537,2.1206496299308863,1.8303825800166678,2.161631073445304,-2.161631073445303,-0.3721683933477493,-0.33124849342863527,-0.33118694983333263
79,1.869105807165465,2.2294104536159733,1.846574051115094,2.206944978722013,-2.2069449787220132,-0.3378391715565483,-0.36037092760691913,-0.3603046464505084
80,1.9032592618953241,2.2943256103339946,1.8724097768244774,2.263547179094247,-2.2635471790942474,-0.3602879171989233,-0.39113740226977,-0.3910663484386703
81,1.9168333181733295,2.3403272940392044,1.9054583342290645,2.3290269059769892,-2.3290269059769892,-0.4121935878036598,-0.4235685717479247,-0.4234939758658749
82,1.9353633071854859,2.392967397898457,1.9430565457903364,2.400735733694139,-2.400735733694139,-0.46537242650865296,-0.45767918790380246,-0.4576040907129708
83,1.9572094751661537,2.4506170593370458,1.9825147070374605,2.475993789923063,-2.4759937899230633,-0.5187843147569096,-0.4934790828856028,-0.49340758417089203
84,1.991491395408735,2.522400755129921,2.021321764322213,2.5522969249756513,-2.552296924975652,-0.5608055295669172,-0.5309751606534392,-0.530909359721186
85,2.1011959811662577,2.671303996465204,2.0573518479586985,2.6275252259994737,-2.627525225999474,-0.5263292448332164,-0.5701733780407756,-0.5701080152989464
86,2.118530556225102,2.7295260854097254,2.0890610342844704,2.700139563603484,-2.700139563603483,-0.5816090073783813,-0.6110785293190126,-0.6109955291846236
87,2.132023455302609,2.785580410781411,2.1156422466305336,2.7693314920238095,-2.7693314920238095,-0.6373080367212003,-0.6536892453932759,-0.6535569554788019
88,2.142494788522138,2.840264924580848,2.13709157161822,2.835078544181834,-2.8350785441818345,-0.6925837556596965,-0.6979869725636143,-0.6977701360587099
89,2.1514270283772667,2.895032465161166,2.1541446459615337,2.8980657780745087,-2.8980657780745087,-0.746638749697242,-0.7439211321129751,-0.7436054367838993
90,2.1603635810100243,2.9513890974142347,2.168070845231151,2.9594680651312943,-2.959468065131295,-0.7991044841212704,-0.7913972199001438,-0.7910255164042104
91,2.170507882175014,3.0104930192962724,2.180356718378156,3.0206347987821998,-3.0206347987821998,-0.8501269166071856,-0.840278080404044,-0.8399851371212583
92,2.1825933488219404,3.073024374881497,2.1923503181854764,3.082758316644007,-3.0827583166440067,-0.9001649678220662,-0.8904079984585302,-0.8904310260595567
93,2.196899346327846,3.139201143332792,2.2049570371048492,3.1466195760419677,-3.146619576041968,-0.9497202297141221,-0.9416625389371189,-0.9423017970049461
94,2.213246188566982,3.2087741302176576,2.21846645564513,3.21248143065037,-3.2124814306503704,-0.9992352420833885,-0.9940149750052405,-0.9955279416506757
95,2.230920990299297,3.280952889532432,2.2325520640293095,3.2801490610360418,-3.2801490610360418,-1.0492280707367447,-1.0475969970067323,-1.0500318992331348
96,2.248642326937448,3.3543705397508927,2.2464350815773058,3.349158827326643,-3.349158827326642,-1.100516500389194,-1.1027237457493362,-1.1057282128134447
97,2.264722733592437,3.427246513130996,2.2591573384902652,3.419014306694831,-3.4190143066948315,-1.1542915731023946,-1.1598569682045663,-1.1625237795385592
98,2.277483214802635,3.4978014157716397,2.2698803545366015,3.4893776110870243,-3.4893776110870243,-1.2118943962843893,-1.2194972565504227,-1.2203182009690048
99,2.285793385100112,3.564797623069176,2.278125202532663,3.5601481760792755,-3.5601481760792755,-1.2743547909791633,-1.2820229735466127,-1.2790042379690636
100,2.289494361937289,3.627962734646777,2.2838889426516618,3.631408703200384,-3.631408703200384,-1.3419143412630952,-1.3475197605487224,-1.338468372709488
101,2.289493525964843,3.6880850040044924,2.2876109909810127,3.7032696075418157,-3.7032696075418157,-1.4137760815769727,-1.415658616560803,-1.3985914780396493
102,2.287474575124228,3.74672416699738,2.290006126461586,3.7756801669492486,-3.7756801669492486,-1.4882055918250208,-1.4856740404876625,-1.459249591873152
104,2.28534477611924,3.8676241926306285,2.2918184014748046,3.84828461822735,-3.84828461822735,-1.56293984210811,-1.5564662167525452,-1.5822794165113887
105,2.284646182703287,3.9283478465514277,2.293571782371199,3.920382838232465,-3.9203828382324644,-1.6357366555291772,-1.6268110558612654,-1.6437016638481405
106,2.2861532239950733,3.991297959996078,2.295392514134872,3.991015973430396,-3.991015973430395,-1.7048627494353217,-1.6956234592955228,-1.7051447360010048
107,2.2897885625830803,4.0562661192908545,2.2969549642688074,4.059152349329011,-4.059152349329011,-1.7693637867459309,-1.7621973850602037,-1.7664775567077742
108,2.294857627460542,4.122427838700501,2.2975642546990884,4.123914631805473,-4.123914631805472,-1.82905700434493,-1.8263503771063836,-1.8275702112399594
109,2.3004744121477145,4.188769472973899,2.2963475155432014,4.18477685933701,-4.184776859337011,-1.8843024471892962,-1.8884293437938093,-1.888295060826184
110,2.305973900815523,4.254501754202126,2.2924948072648723,4.241672891011312,-4.241672891011312,-1.9356989901957893,-1.9491780837464399,-1.9485278533866035
111,2.311119516063721,4.319268324846188,2.285480214703073,4.294989915764376,-4.2949899157643765,-1.9838703997006557,-2.0095097010613037,-2.008148808782467
112,2.3019705284981016,4.369014184473574,2.2752048239488096,4.3454588433904835,-4.345458843390484,-2.043488314892383,-2.0702540194416748,-2.067043655975472
113,2.221306465258071,4.346411064696429,2.2620295751311588,4.393982386467584,-4.3939823864675835,-2.1726759212095126,-2.131952811336425,-2.125104599438359
114,2.2251616430541534,4.4073928359859735,2.246696741426435,4.441451282763856,-4.441451282763856,-2.2162896397097023,-2.1947545413374208,-2.1822311929318197
115,2.2297151724071913,4.468046272803016,2.230165184547737,4.488589600863752,-4.488589600863753,-2.2588744284565614,-2.2584244163160156,-2.2383311003958246
117,2.233601469729055,4.581634912024935,2.2134019719377322,4.535850531841648,-4.535850531841646,-2.3022490621125913,-2.322448559903914,-2.3480334422958804
118,2.2365618397225187,4.637275646297502,2.1971805161419358,4.583366437127987,-4.583366437127986,-2.3468045974054674,-2.3861859209860503,-2.400713806574984
119,2.1501195457520748,4.602217464089971,2.18193424829878,4.630949518810547,-4.630949518810546,-2.480829973058471,-2.449015270511766,-2.452097918337896
120,2.1394592895359077,4.641596902569117,2.1677049710380496,4.678141975798782,-4.678141975798781,-2.5386826862628737,-2.510437004760732,-2.5021376130332094
121,2.140573075722349,4.691367316121296,2.1542051173028067,4.724318660022438,-4.724318660022439,-2.5837455843000896,-2.570113542719632,-2.5507942403989463
123,2.141625093212905,4.787061940180864,2.1409832462084015,4.768840310355515,-4.768840310355515,-2.6272152171426097,-2.627857064147113,-2.6454368469679594
124,2.142727298225061,4.832669284128476,2.127648215465197,4.81123747485138,-4.81123747485138,-2.668510176626319,-2.6835892593861828,-2.689941985903416
125,2.1439545198992866,4.87694776009751,2.114082053707542,4.851381899971683,-4.851381899971685,-2.707427380072398,-2.7372998462641425,-2.7329932401982227
126,2.1454543735193594,4.920046110017003,2.1005676602142884,4.889588392782651,-4.88958839278265,-2.7441340192632904,-2.7890207325683614,-2.774591736497644
128,2.0554147234018934,4.910983833810395,2.087781225016784,4.926599054309462,-4.926599054309463,-2.8711843309075697,-2.838817829292679,-2.8555691104085015
129,2.0496351367830923,4.942621950014771,2.076645225497079,4.963435722507979,-4.963435722507981,-2.9138005857248888,-2.886790497010902,-2.8929868132316785
130,2.0531933878528967,4.982198957186148,2.0680886974056394,5.001153715458951,-5.001153715458951,-2.9479603276060544,-2.9330650180533118,-2.9290055693332513
131,2.057415658111675,5.0210680526476175,2.062795149305797,5.040569393446848,-5.040569393446848,-2.983153735335173,-2.977774244141051,-2.9636523945359423
133,2.0619810743480076,5.09339058773228,2.061019184902367,5.082045552487771,-5.082045552487773,-3.020064478139765,-3.0210263675854057,-3.031409513384272
134,2.0665410493036775,5.128732404279159,2.0625209310573784,5.125395794015313,-5.125395794015313,-3.0588547447116357,-3.0628748629579348,-3.062191354975481
135,2.070862202941201,5.16258630280314,2.066619395936322,5.169923172073813,-5.169923172073813,-3.0990609691326116,-3.1033037761374906,-3.091724099861939
137,2.074870716348294,5.224665181686196,2.0723251126249727,5.214561785709837,-5.214561785709837,-3.1396910693615436,-3.1422366730848648,-3.149794465337902
138,2.0785653506170805,5.254400488236836,2.0784962696646243,5.258063368528921,-5.258063368528921,-3.1794980179118406,-3.179567098864297,-3.1758351376197558
140,2.0818621245847484,5.30915109464474,2.0839743633044585,5.299172882756379,-5.299172882756379,-3.2173107581716303,-3.21519851945192,-3.227288970059992
141,2.084499245947997,5.334637182380288,2.087683363948986,5.3367608615825795,-5.3367608615825795,-3.2522616156345823,-3.2490774976335937,-3.2501379364322904
142,2.0861107813668633,5.358095840720564,2.0887010115004596,5.369908460799643,-5.3699084607996435,-3.28379767943278,-3.281207449299184,-3.2719850593537
144,2.0864657379185374,5.4019745962091985,2.086317158050955,5.397956829699275,-5.3979568296992735,-3.311491091780736,-3.3116396716483183,-3.3155088582906616
145,2.085728801555884,5.420293456166365,2.0800816109908347,5.420530161331465,-5.420530161331465,-3.334801359775581,-3.3404485503406303,-3.3345646546104812
147,2.084540583750575,5.4573494851235544,2.069826150766898,5.437530177764483,-5.437530177764482,-3.352989594013907,-3.367704026997584,-3.3728089013729794
148,2.0838086599023598,5.473161455696155,2.055639343245285,5.449093438715417,-5.449093438715417,-3.3652847788130575,-3.3934540954701324,-3.389352795793795
150,2.0250014391517994,5.447856366286096,2.037787278180217,5.455511415316436,-5.455511415316437,-3.4305099761646374,-3.41772413713622,-3.4228549271342974
151,1.9857009038133728,5.422845228846131,2.0166031231999284,5.457134388545411,-5.457134388545412,-3.4714334847320387,-3.4405312653454834,-3.437144325032758
153,1.9888586982741638,5.45526208845885,1.9923955301067808,5.454300383008059,-5.454300383008058,-3.4654416847338942,-3.4619048529012773,-3.466403390184687
154,1.9925965504396363,5.471267770598496,1.9654300202081496,5.447332233431562,-5.447332233431563,-3.454735682991927,-3.481902213223414,-3.47867122015886
156,1.9117711578317271,5.415914183554108,1.9360088421873898,5.436620364493196,-5.436620364493197,-3.52484920666147,-3.500611522305807,-3.504143025722381
157,1.8998326514231494,5.414430140214569,1.9046234688362524,5.422763966919469,-5.422763966919468,-3.5229313154963187,-3.5181404980832154,-3.5145974887914195
