frequency,raw,error,smoothed,error_smoothed,equalization,parametric_eq,equalized_raw,equalized_smoothed,target
20,-8.75,-13.18,-8.74,-13.17,6.00,2.82,-2.75,-2.74,4.43
21,-8.31,-12.73,-8.31,-12.74,6.00,3.24,-2.31,-2.31,4.43
22,-7.90,-12.32,-7.89,-12.32,6.00,3.71,-1.90,-1.89,4.43
23,-7.48,-11.90,-7.48,-11.91,6.00,4.21,-1.48,-1.48,4.42
24,-7.08,-11.50,-7.08,-11.50,6.00,4.75,-1.08,-1.08,4.42
25,-6.70,-11.11,-6.68,-11.10,6.00,5.30,-0.70,-0.68,4.42
26,-6.32,-10.73,-6.29,-10.70,6.00,5.86,-0.32,-0.29,4.41
27,-5.90,-10.31,-5.91,-10.32,6.00,6.41,0.10,0.09,4.41
28,-5.55,-9.95,-5.54,-9.94,6.00,6.89,0.45,0.46,4.41
29,-5.18,-9.58,-5.18,-9.58,6.00,7.29,0.82,0.82,4.40
30,-4.83,-9.22,-4.84,-9.24,6.00,7.58,1.17,1.16,4.40
31,-4.49,-8.88,-4.51,-8.90,6.00,7.73,1.51,1.49,4.39
32,-4.18,-8.56,-4.20,-8.59,6.00,7.73,1.82,1.80,4.39
33,-3.93,-8.31,-3.91,-8.29,6.00,7.62,2.07,2.09,4.38
34,-3.65,-8.02,-3.64,-8.01,6.00,7.41,2.35,2.36,4.37
35,-3.36,-7.72,-3.38,-7.75,6.00,7.14,2.64,2.62,4.37
36,-3.15,-7.50,-3.13,-7.49,6.00,6.84,2.85,2.87,4.36
37,-2.93,-7.28,-2.90,-7.25,6.00,6.52,3.07,3.10,4.35
38,-2.68,-7.02,-2.67,-7.01,6.00,6.21,3.32,3.33,4.34
39,-2.46,-6.79,-2.46,-6.79,6.00,5.91,3.54,3.54,4.33
40,-2.24,-6.56,-2.25,-6.57,6.00,5.63,3.76,3.75,4.32
41,-2.06,-6.36,-2.05,-6.36,5.97,5.38,3.92,3.92,4.31
42,-1.87,-6.16,-1.86,-6.16,5.91,5.15,4.05,4.05,4.30
43,-1.66,-5.94,-1.68,-5.96,5.82,4.95,4.17,4.14,4.28
44,-1.50,-5.76,-1.51,-5.78,5.71,4.77,4.21,4.20,4.27
45,-1.36,-5.61,-1.34,-5.60,5.58,4.61,4.22,4.23,4.25
46,-1.20,-5.43,-1.19,-5.43,5.43,4.48,4.23,4.24,4.24
47,-1.04,-5.26,-1.04,-5.26,5.26,4.37,4.22,4.22,4.22
48,-0.90,-5.10,-0.89,-5.10,5.10,4.27,4.20,4.21,4.21
49,-0.78,-4.96,-0.76,-4.95,4.95,4.19,4.17,4.19,4.19
50,-0.64,-4.80,-0.63,-4.80,4.80,4.12,4.16,4.17,4.17
51,-0.50,-4.64,-0.51,-4.66,4.66,4.06,4.16,4.15,4.15
52,-0.36,-4.48,-0.40,-4.52,4.52,4.01,4.17,4.13,4.13
53,-0.30,-4.40,-0.29,-4.40,4.40,3.97,4.10,4.11,4.11
54,-0.21,-4.29,-0.19,-4.27,4.27,3.94,4.07,4.08,4.08
55,-0.08,-4.14,-0.09,-4.15,4.15,3.90,4.08,4.06,4.06
56,-0.03,-4.06,-0.00,-4.04,4.04,3.87,4.01,4.04,4.04
57,0.07,-3.94,0.09,-3.92,3.92,3.84,4.00,4.01,4.01
58,0.20,-3.78,0.17,-3.81,3.81,3.81,4.01,3.98,3.98
59,0.23,-3.72,0.26,-3.70,3.70,3.77,3.93,3.96,3.96
60,0.35,-3.58,0.34,-3.59,3.59,3.73,3.94,3.93,3.93
61,0.40,-3.50,0.42,-3.48,3.48,3.68,3.88,3.90,3.90
62,0.50,-3.37,0.50,-3.37,3.37,3.63,3.88,3.87,3.87
63,0.55,-3.29,0.57,-3.27,3.27,3.58,3.82,3.84,3.84
64,0.64,-3.16,0.64,-3.17,3.17,3.52,3.81,3.81,3.81
65,0.70,-3.07,0.70,-3.08,3.08,3.46,3.78,3.78,3.78
66,0.77,-2.97,0.76,-2.99,2.99,3.39,3.76,3.74,3.74
67,0.79,-2.92,0.81,-2.90,2.90,3.31,3.70,3.71,3.71
68,0.88,-2.79,0.85,-2.82,2.82,3.24,3.71,3.67,3.67
69,0.87,-2.77,0.89,-2.75,2.75,3.16,3.62,3.64,3.64
70,0.93,-2.67,0.92,-2.68,2.68,3.08,3.62,3.60,3.60
71,0.92,-2.64,0.95,-2.62,2.62,3.00,3.54,3.57,3.57
72,0.97,-2.56,0.97,-2.56,2.56,2.92,3.53,3.53,3.53
73,1.00,-2.49,0.99,-2.50,2.50,2.84,3.51,3.49,3.49
74,0.97,-2.48,1.01,-2.45,2.45,2.76,3.42,3.45,3.45
75,1.03,-2.38,1.02,-2.39,2.39,2.68,3.43,3.41,3.41
76,1.04,-2.33,1.04,-2.34,2.34,2.61,3.38,3.38,3.38
77,1.02,-2.31,1.05,-2.29,2.29,2.53,3.31,3.34,3.34
78,1.08,-2.21,1.06,-2.24,2.24,2.46,3.32,3.30,3.30
79,1.07,-2.18,1.07,-2.19,2.19,2.39,3.26,3.26,3.26
80,1.04,-2.17,1.08,-2.14,2.14,2.32,3.18,3.21,3.21
81,1.10,-2.07,1.08,-2.09,2.09,2.26,3.19,3.17,3.17
82,1.10,-2.03,1.09,-2.04,2.04,2.19,3.15,3.13,3.13
83,1.06,-2.03,1.09,-2.00,2.00,2.13,3.06,3.09,3.09
84,1.08,-1.97,1.09,-1.96,1.96,2.07,3.04,3.05,3.05
85,1.12,-1.88,1.09,-1.92,1.92,2.02,3.04,3.01,3.01
86,1.10,-1.86,1.09,-1.88,1.88,1.96,2.98,2.97,2.97
87,1.06,-1.86,1.08,-1.84,1.84,1.91,2.90,2.93,2.93
88,1.07,-1.81,1.08,-1.81,1.81,1.86,2.88,2.88,2.88
89,1.07,-1.77,1.07,-1.77,1.77,1.82,2.85,2.84,2.84
90,1.06,-1.74,1.06,-1.74,1.74,1.77,2.81,2.80,2.80
91,1.04,-1.72,1.05,-1.71,1.71,1.73,2.76,2.76,2.76
92,1.01,-1.70,1.04,-1.68,1.68,1.69,2.70,2.72,2.72
93,1.02,-1.65,1.02,-1.66,1.66,1.65,2.68,2.68,2.68
94,1.03,-1.60,1.01,-1.63,1.63,1.61,2.66,2.64,2.64
95,1.00,-1.59,0.99,-1.60,1.60,1.58,2.61,2.60,2.60
96,0.98,-1.57,0.98,-1.58,1.58,1.55,2.56,2.56,2.56
97,0.95,-1.56,0.97,-1.55,1.55,1.52,2.51,2.52,2.52
98,0.93,-1.54,0.95,-1.52,1.52,1.49,2.46,2.48,2.48
99,0.90,-1.53,0.94,-1.49,1.49,1.46,2.40,2.44,2.44
100,0.95,-1.45,0.93,-1.46,1.46,1.43,2.42,2.39,2.40
101,0.92,-1.44,0.92,-1.43,1.43,1.40,2.36,2.35,2.36
102,0.92,-1.40,0.91,-1.40,1.40,1.38,2.33,2.31,2.32
104,0.90,-1.34,0.89,-1.37,1.37,1.34,2.28,2.26,2.25
105,0.87,-1.34,0.87,-1.35,1.35,1.31,2.22,2.22,2.21
106,0.85,-1.32,0.85,-1.33,1.33,1.29,2.18,2.18,2.18
107,0.82,-1.32,0.83,-1.31,1.31,1.28,2.14,2.14,2.14
108,0.80,-1.30,0.81,-1.30,1.30,1.26,2.10,2.11,2.11
109,0.78,-1.29,0.79,-1.29,1.29,1.24,2.07,2.07,2.07
110,0.76,-1.27,0.76,-1.28,1.28,1.23,2.04,2.04,2.04
111,0.74,-1.26,0.74,-1.26,1.26,1.21,2.01,2.00,2.00
112,0.72,-1.25,0.72,-1.25,1.25,1.20,1.97,1.97,1.97
113,0.70,-1.24,0.70,-1.23,1.23,1.18,1.94,1.94,1.94
114,0.67,-1.23,0.69,-1.21,1.21,1.17,1.89,1.90,1.91
115,0.65,-1.22,0.67,-1.19,1.19,1.16,1.85,1.87,1.88
117,0.64,-1.17,0.66,-1.17,1.17,1.13,1.81,1.83,1.82
118,0.66,-1.12,0.65,-1.15,1.15,1.12,1.81,1.79,1.79
119,0.64,-1.11,0.63,-1.12,1.12,1.11,1.77,1.76,1.76
120,0.63,-1.10,0.62,-1.11,1.11,1.10,1.74,1.73,1.73
121,0.61,-1.09,0.60,-1.09,1.09,1.10,1.71,1.69,1.70
123,0.57,-1.07,0.58,-1.08,1.08,1.08,1.66,1.66,1.65
124,0.55,-1.07,0.55,-1.08,1.08,1.07,1.63,1.63,1.62
125,0.51,-1.08,0.52,-1.07,1.07,1.07,1.59,1.59,1.60
126,0.48,-1.09,0.49,-1.07,1.07,1.06,1.56,1.56,1.57
128,0.46,-1.06,0.46,-1.07,1.07,1.05,1.54,1.53,1.52
129,0.42,-1.08,0.43,-1.07,1.07,1.04,1.49,1.50,1.50
130,0.39,-1.08,0.41,-1.07,1.07,1.04,1.46,1.47,1.48
131,0.36,-1.09,0.38,-1.06,1.06,1.03,1.43,1.45,1.45
133,0.36,-1.05,0.36,-1.06,1.06,1.02,1.42,1.42,1.41
134,0.34,-1.05,0.33,-1.06,1.06,1.02,1.40,1.39,1.39
135,0.32,-1.04,0.31,-1.05,1.05,1.02,1.38,1.36,1.37
137,0.29,-1.03,0.28,-1.05,1.05,1.01,1.35,1.33,1.33
138,0.24,-1.07,0.25,-1.05,1.05,1.01,1.30,1.31,1.31
140,0.22,-1.05,0.22,-1.06,1.06,1.01,1.28,1.28,1.27
141,0.19,-1.06,0.20,-1.06,1.06,1.01,1.25,1.26,1.25
142,0.16,-1.07,0.17,-1.06,1.06,1.01,1.22,1.23,1.24
144,0.13,-1.07,0.15,-1.06,1.06,1.01,1.19,1.21,1.20
145,0.10,-1.08,0.12,-1.06,1.06,1.01,1.16,1.18,1.19
147,0.09,-1.06,0.10,-1.06,1.06,1.01,1.15,1.16,1.16
148,0.09,-1.05,0.08,-1.06,1.06,1.01,1.15,1.14,1.14
150,0.07,-1.04,0.05,-1.06,1.06,1.01,1.13,1.11,1.11
151,0.04,-1.05,0.03,-1.06,1.06,1.02,1.11,1.09,1.10
153,0.00,-1.07,0.00,-1.07,1.07,1.02,1.07,1.07,1.07
154,-0.03,-1.08,-0.02,-1.08,1.08,1.02,1.05,1.05,1.06
156,-0.06,-1.09,-0.05,-1.08,1.08,1.03,1.03,1.03,1.03
157,-0.09,-1.10,-0.08,-1.09,1.09,1.03,1.01,1.01,1.02
159,-0.11,-1.10,-0.11,-1.10,1.10,1.04,1.00,1.00,0.99
160,-0.14,-1.12,-0.13,-1.11,1.11,1.05,0.98,0.98,0.98
162,-0.16,-1.12,-0.16,-1.12,1.12,1.06,0.96,0.96,0.96
164,-0.19,-1.13,-0.18,-1.13,1.13,1.07,0.94,0.94,0.94
165,-0.21,-1.14,-0.21,-1.13,1.13,1.08,0.93,0.93,0.93
167,-0.23,-1.14,-0.23,-1.14,1.14,1.09,0.91,0.91,0.91
169,-0.25,-1.14,-0.25,-1.14,1.14,1.10,0.90,0.89,0.89
170,-0.27,-1.15,-0.27,-1.15,1.15,1.11,0.89,0.88,0.88
172,-0.30,-1.16,-0.29,-1.16,1.16,1.13,0.86,0.86,0.86
174,-0.32,-1.16,-0.31,-1.17,1.17,1.14,0.85,0.85,0.85
175,-0.34,-1.18,-0.34,-1.17,1.17,1.15,0.84,0.84,0.84
177,-0.36,-1.18,-0.36,-1.18,1.18,1.17,0.82,0.82,0.82
179,-0.38,-1.19,-0.38,-1.19,1.19,1.19,0.81,0.81,0.81
181,-0.40,-1.19,-0.39,-1.19,1.19,1.21,0.79,0.80,0.80
183,-0.42,-1.20,-0.41,-1.20,1.20,1.23,0.78,0.79,0.78
184,-0.44,-1.21,-0.43,-1.20,1.20,1.24,0.76,0.77,0.78
186,-0.45,-1.21,-0.45,-1.21,1.21,1.26,0.76,0.76,0.76
188,-0.46,-1.21,-0.46,-1.21,1.21,1.29,0.76,0.75,0.75
190,-0.48,-1.22,-0.48,-1.22,1.22,1.31,0.75,0.74,0.74
192,-0.50,-1.22,-0.51,-1.23,1.23,1.33,0.74,0.73,0.73
194,-0.53,-1.24,-0.53,-1.25,1.25,1.36,0.72,0.72,0.72
196,-0.56,-1.26,-0.55,-1.26,1.26,1.38,0.71,0.71,0.71
198,-0.59,-1.28,-0.58,-1.28,1.28,1.40,0.69,0.70,0.70
200,-0.62,-1.30,-0.61,-1.30,1.30,1.43,0.68,0.69,0.69
202,-0.65,-1.33,-0.64,-1.32,1.32,1.45,0.67,0.68,0.68
204,-0.68,-1.35,-0.67,-1.34,1.34,1.48,0.66,0.67,0.67
206,-0.70,-1.36,-0.70,-1.37,1.37,1.50,0.67,0.66,0.66
208,-0.73,-1.38,-0.74,-1.39,1.39,1.53,0.67,0.66,0.66
210,-0.75,-1.39,-0.78,-1.42,1.42,1.55,0.68,0.65,0.65
212,-0.80,-1.44,-0.81,-1.46,1.46,1.58,0.66,0.64,0.64
214,-0.87,-1.50,-0.85,-1.49,1.49,1.60,0.62,0.63,0.63
216,-0.92,-1.54,-0.89,-1.51,1.51,1.62,0.60,0.63,0.63
218,-0.96,-1.58,-0.92,-1.54,1.54,1.64,0.59,0.62,0.62
221,-0.97,-1.58,-0.95,-1.57,1.57,1.68,0.60,0.61,0.61
223,-0.98,-1.58,-0.98,-1.59,1.59,1.70,0.61,0.61,0.61
225,-1.00,-1.60,-1.01,-1.61,1.61,1.72,0.61,0.60,0.60
227,-1.01,-1.60,-1.03,-1.63,1.63,1.73,0.62,0.60,0.60
229,-1.02,-1.61,-1.06,-1.65,1.65,1.75,0.64,0.59,0.59
232,-1.11,-1.69,-1.09,-1.67,1.67,1.77,0.57,0.58,0.58
234,-1.12,-1.70,-1.11,-1.69,1.69,1.79,0.58,0.58,0.58
236,-1.17,-1.74,-1.14,-1.71,1.71,1.80,0.55,0.57,0.57
239,-1.18,-1.74,-1.16,-1.73,1.73,1.82,0.55,0.57,0.57
241,-1.19,-1.75,-1.17,-1.74,1.74,1.83,0.55,0.56,0.56
244,-1.19,-1.74,-1.19,-1.75,1.75,1.84,0.56,0.56,0.56
246,-1.20,-1.75,-1.19,-1.75,1.75,1.84,0.55,0.56,0.56
248,-1.20,-1.75,-1.20,-1.75,1.75,1.85,0.56,0.55,0.55
251,-1.20,-1.74,-1.21,-1.75,1.75,1.85,0.56,0.55,0.55
253,-1.20,-1.74,-1.21,-1.76,1.76,1.85,0.56,0.54,0.54
256,-1.21,-1.74,-1.22,-1.76,1.76,1.85,0.55,0.54,0.54
259,-1.23,-1.76,-1.23,-1.76,1.76,1.85,0.54,0.54,0.53
261,-1.24,-1.77,-1.24,-1.77,1.77,1.84,0.54,0.53,0.53
264,-1.26,-1.78,-1.25,-1.78,1.78,1.83,0.52,0.53,0.53
266,-1.27,-1.79,-1.25,-1.78,1.78,1.83,0.51,0.52,0.53
269,-1.27,-1.79,-1.26,-1.78,1.78,1.82,0.51,0.52,0.52
272,-1.27,-1.78,-1.26,-1.77,1.77,1.80,0.51,0.52,0.52
274,-1.27,-1.78,-1.25,-1.77,1.77,1.79,0.50,0.52,0.52
277,-1.24,-1.75,-1.24,-1.76,1.76,1.78,0.52,0.51,0.51
280,-1.24,-1.75,-1.23,-1.74,1.74,1.76,0.51,0.51,0.51
283,-1.21,-1.71,-1.22,-1.73,1.73,1.74,0.52,0.51,0.51
286,-1.20,-1.70,-1.21,-1.72,1.72,1.73,0.52,0.50,0.50
288,-1.20,-1.70,-1.20,-1.70,1.70,1.71,0.51,0.50,0.50
291,-1.19,-1.69,-1.20,-1.70,1.70,1.69,0.51,0.50,0.50
294,-1.21,-1.70,-1.19,-1.69,1.69,1.68,0.48,0.50,0.50
297,-1.19,-1.68,-1.18,-1.68,1.68,1.66,0.49,0.50,0.50
300,-1.18,-1.67,-1.18,-1.67,1.67,1.64,0.50,0.49,0.49
303,-1.18,-1.67,-1.17,-1.67,1.67,1.62,0.49,0.49,0.49
306,-1.18,-1.67,-1.17,-1.66,1.66,1.60,0.48,0.49,0.49
309,-1.15,-1.63,-1.16,-1.65,1.65,1.58,0.50,0.49,0.49
312,-1.16,-1.64,-1.15,-1.63,1.63,1.57,0.48,0.49,0.49
316,-1.17,-1.65,-1.14,-1.62,1.62,1.54,0.45,0.48,0.48
319,-1.14,-1.62,-1.13,-1.61,1.61,1.53,0.47,0.48,0.48
322,-1.12,-1.60,-1.12,-1.60,1.60,1.51,0.48,0.48,0.48
325,-1.08,-1.56,-1.11,-1.59,1.59,1.50,0.52,0.48,0.48
328,-1.11,-1.58,-1.11,-1.59,1.59,1.49,0.49,0.48,0.48
332,-1.12,-1.59,-1.12,-1.60,1.60,1.47,0.48,0.48,0.48
335,-1.12,-1.59,-1.13,-1.61,1.61,1.46,0.49,0.47,0.47
338,-1.16,-1.63,-1.15,-1.63,1.63,1.45,0.47,0.47,0.47
342,-1.18,-1.65,-1.17,-1.65,1.65,1.44,0.47,0.47,0.47
345,-1.18,-1.65,-1.20,-1.67,1.67,1.43,0.49,0.47,0.47
349,-1.24,-1.71,-1.22,-1.69,1.69,1.42,0.46,0.47,0.47
352,-1.25,-1.71,-1.24,-1.71,1.71,1.41,0.46,0.47,0.47
356,-1.29,-1.75,-1.26,-1.72,1.72,1.40,0.44,0.47,0.47
359,-1.29,-1.75,-1.26,-1.73,1.73,1.40,0.44,0.47,0.47
363,-1.26,-1.72,-1.27,-1.73,1.73,1.40,0.48,0.46,0.46
366,-1.29,-1.75,-1.27,-1.73,1.73,1.39,0.44,0.46,0.46
370,-1.25,-1.71,-1.26,-1.72,1.72,1.39,0.48,0.46,0.46
374,-1.23,-1.69,-1.25,-1.71,1.71,1.39,0.49,0.46,0.46
377,-1.25,-1.71,-1.24,-1.70,1.70,1.39,0.45,0.46,0.46
381,-1.22,-1.67,-1.23,-1.69,1.69,1.39,0.47,0.46,0.46
385,-1.22,-1.67,-1.22,-1.67,1.67,1.39,0.46,0.46,0.46
389,-1.22,-1.67,-1.21,-1.66,1.66,1.40,0.45,0.46,0.46
393,-1.22,-1.67,-1.20,-1.65,1.65,1.40,0.44,0.45,0.45
397,-1.20,-1.65,-1.19,-1.64,1.64,1.40,0.44,0.45,0.45
401,-1.19,-1.64,-1.18,-1.63,1.63,1.41,0.45,0.45,0.45
405,-1.16,-1.61,-1.17,-1.62,1.62,1.42,0.47,0.45,0.45
409,-1.15,-1.60,-1.17,-1.62,1.62,1.42,0.47,0.45,0.45
413,-1.15,-1.59,-1.17,-1.62,1.62,1.43,0.47,0.45,0.45
417,-1.19,-1.63,-1.17,-1.62,1.62,1.44,0.43,0.45,0.45
421,-1.20,-1.64,-1.17,-1.62,1.62,1.45,0.42,0.45,0.45
425,-1.16,-1.60,-1.17,-1.62,1.62,1.46,0.46,0.45,0.45
430,-1.19,-1.64,-1.17,-1.62,1.62,1.47,0.44,0.45,0.45
434,-1.18,-1.63,-1.17,-1.62,1.62,1.48,0.45,0.45,0.45
438,-1.17,-1.62,-1.17,-1.62,1.62,1.49,0.46,0.45,0.45
443,-1.16,-1.61,-1.16,-1.62,1.62,1.50,0.46,0.46,0.46
447,-1.16,-1.61,-1.15,-1.61,1.61,1.51,0.46,0.46,0.46
451,-1.15,-1.61,-1.14,-1.60,1.60,1.53,0.46,0.46,0.46
456,-1.13,-1.59,-1.12,-1.59,1.59,1.54,0.47,0.47,0.47
460,-1.12,-1.59,-1.11,-1.58,1.58,1.55,0.47,0.47,0.47
465,-1.10,-1.58,-1.09,-1.57,1.57,1.56,0.47,0.48,0.48
470,-1.07,-1.56,-1.07,-1.56,1.56,1.57,0.49,0.49,0.49
474,-1.05,-1.54,-1.05,-1.55,1.55,1.58,0.50,0.50,0.50
479,-1.02,-1.52,-1.04,-1.54,1.54,1.60,0.53,0.51,0.51
484,-1.03,-1.55,-1.02,-1.54,1.54,1.61,0.51,0.52,0.52
489,-1.01,-1.54,-1.01,-1.54,1.54,1.62,0.54,0.53,0.53
494,-1.00,-1.54,-1.00,-1.55,1.55,1.63,0.55,0.54,0.54
499,-0.98,-1.53,-1.00,-1.56,1.56,1.64,0.58,0.56,0.56
504,-1.01,-1.58,-0.99,-1.56,1.56,1.65,0.56,0.57,0.57
509,-1.00,-1.59,-0.98,-1.57,1.57,1.66,0.58,0.59,0.59
514,-0.99,-1.59,-0.98,-1.58,1.58,1.67,0.60,0.61,0.61
519,-0.98,-1.60,-0.97,-1.59,1.59,1.68,0.62,0.63,0.63
524,-0.96,-1.60,-0.96,-1.60,1.60,1.69,0.65,0.65,0.65
529,-0.95,-1.61,-0.94,-1.61,1.61,1.70,0.66,0.67,0.67
535,-0.94,-1.62,-0.93,-1.62,1.62,1.71,0.68,0.69,0.69
540,-0.91,-1.62,-0.92,-1.63,1.63,1.72,0.73,0.71,0.71
545,-0.90,-1.63,-0.91,-1.65,1.65,1.72,0.75,0.73,0.73
551,-0.89,-1.64,-0.91,-1.66,1.66,1.73,0.78,0.76,0.76
556,-0.90,-1.68,-0.90,-1.68,1.68,1.74,0.79,0.78,0.78
562,-0.91,-1.71,-0.89,-1.70,1.70,1.75,0.79,0.81,0.81
568,-0.91,-1.74,-0.88,-1.72,1.72,1.77,0.81,0.83,0.83
573,-0.89,-1.75,-0.87,-1.73,1.73,1.78,0.84,0.86,0.86
579,-0.86,-1.75,-0.85,-1.74,1.74,1.79,0.89,0.89,0.89
585,-0.84,-1.76,-0.84,-1.76,1.76,1.80,0.92,0.92,0.92
591,-0.82,-1.76,-0.82,-1.77,1.77,1.81,0.95,0.95,0.95
596,-0.79,-1.76,-0.80,-1.78,1.78,1.83,0.99,0.98,0.98
602,-0.77,-1.78,-0.79,-1.80,1.80,1.84,1.03,1.01,1.01
608,-0.76,-1.80,-0.77,-1.81,1.81,1.86,1.06,1.04,1.04
615,-0.78,-1.85,-0.76,-1.84,1.84,1.88,1.06,1.07,1.07
621,-0.78,-1.88,-0.76,-1.86,1.86,1.90,1.08,1.10,1.10
627,-0.76,-1.89,-0.75,-1.89,1.89,1.92,1.13,1.14,1.14
633,-0.75,-1.92,-0.74,-1.92,1.92,1.94,1.17,1.17,1.17
639,-0.72,-1.92,-0.74,-1.95,1.95,1.96,1.23,1.21,1.21
646,-0.73,-1.97,-0.74,-1.98,1.98,1.99,1.25,1.24,1.24
652,-0.74,-2.01,-0.73,-2.01,2.01,2.01,1.27,1.27,1.27
659,-0.75,-2.06,-0.73,-2.04,2.04,2.04,1.29,1.31,1.31
665,-0.73,-2.07,-0.72,-2.07,2.07,2.07,1.34,1.35,1.35
672,-0.72,-2.10,-0.72,-2.10,2.10,2.11,1.38,1.38,1.38
679,-0.71,-2.13,-0.71,-2.13,2.13,2.14,1.42,1.42,1.42
686,-0.71,-2.16,-0.70,-2.16,2.16,2.18,1.45,1.46,1.46
692,-0.69,-2.18,-0.69,-2.19,2.19,2.21,1.50,1.49,1.49
699,-0.68,-2.21,-0.68,-2.22,2.22,2.25,1.54,1.53,1.53
706,-0.68,-2.25,-0.68,-2.25,2.25,2.29,1.57,1.57,1.57
713,-0.67,-2.27,-0.67,-2.27,2.27,2.33,1.61,1.61,1.61
721,-0.66,-2.30,-0.66,-2.30,2.30,2.38,1.65,1.65,1.65
728,-0.65,-2.33,-0.65,-2.33,2.33,2.43,1.68,1.68,1.68
735,-0.65,-2.37,-0.64,-2.36,2.36,2.48,1.71,1.72,1.72
742,-0.64,-2.40,-0.62,-2.38,2.38,2.52,1.75,1.76,1.76
750,-0.62,-2.41,-0.61,-2.41,2.41,2.58,1.79,1.80,1.80
757,-0.60,-2.43,-0.60,-2.43,2.43,2.63,1.84,1.83,1.83
765,-0.58,-2.45,-0.59,-2.46,2.46,2.69,1.88,1.87,1.87
773,-0.56,-2.46,-0.58,-2.48,2.48,2.74,1.93,1.91,1.91
780,-0.56,-2.50,-0.57,-2.51,2.51,2.80,1.96,1.94,1.94
788,-0.57,-2.55,-0.56,-2.54,2.54,2.86,1.98,1.98,1.98
796,-0.57,-2.58,-0.56,-2.57,2.57,2.92,2.00,2.01,2.02
804,-0.56,-2.61,-0.55,-2.60,2.60,2.98,2.04,2.05,2.05
812,-0.55,-2.63,-0.54,-2.62,2.62,3.04,2.08,2.08,2.08
820,-0.54,-2.65,-0.53,-2.65,2.65,3.09,2.11,2.12,2.12
828,-0.52,-2.67,-0.52,-2.67,2.67,3.15,2.15,2.15,2.15
837,-0.51,-2.69,-0.51,-2.69,2.69,3.22,2.18,2.18,2.18
845,-0.50,-2.71,-0.49,-2.71,2.71,3.27,2.21,2.21,2.21
853,-0.48,-2.72,-0.48,-2.72,2.72,3.33,2.24,2.24,2.24
862,-0.46,-2.73,-0.46,-2.73,2.73,3.39,2.28,2.27,2.27
871,-0.45,-2.75,-0.44,-2.74,2.74,3.44,2.30,2.30,2.30
879,-0.42,-2.75,-0.42,-2.75,2.75,3.49,2.34,2.33,2.33
888,-0.39,-2.75,-0.40,-2.76,2.76,3.54,2.37,2.36,2.36
897,-0.38,-2.77,-0.37,-2.76,2.76,3.58,2.38,2.39,2.39
906,-0.36,-2.77,-0.34,-2.76,2.76,3.62,2.40,2.42,2.42
915,-0.32,-2.76,-0.32,-2.76,2.76,3.66,2.44,2.44,2.44
924,-0.29,-2.76,-0.28,-2.76,2.76,3.68,2.47,2.47,2.47
933,-0.25,-2.74,-0.25,-2.75,2.75,3.71,2.50,2.50,2.50
943,-0.22,-2.74,-0.22,-2.74,2.74,3.73,2.53,2.53,2.53
952,-0.18,-2.73,-0.18,-2.73,2.73,3.74,2.56,2.55,2.55
962,-0.15,-2.72,-0.15,-2.72,2.72,3.74,2.58,2.58,2.58
971,-0.12,-2.72,-0.11,-2.71,2.71,3.74,2.60,2.61,2.61
981,-0.08,-2.71,-0.07,-2.70,2.70,3.73,2.63,2.63,2.63
991,-0.04,-2.69,-0.04,-2.69,2.69,3.71,2.66,2.66,2.66
1001,0.00,-2.68,0.00,-2.68,2.68,3.68,2.69,2.69,2.69
1011,0.04,-2.67,0.04,-2.68,2.68,3.65,2.72,2.71,2.71
1021,0.07,-2.67,0.07,-2.67,2.67,3.61,2.74,2.74,2.74
1031,0.11,-2.65,0.11,-2.66,2.66,3.56,2.77,2.77,2.77
1041,0.14,-2.65,0.14,-2.65,2.65,3.50,2.80,2.79,2.79
1052,0.17,-2.65,0.18,-2.64,2.64,3.43,2.82,2.82,2.82
1062,0.21,-2.64,0.21,-2.64,2.64,3.36,2.85,2.85,2.85
1073,0.24,-2.64,0.25,-2.63,2.63,3.28,2.87,2.88,2.88
1084,0.28,-2.63,0.29,-2.62,2.62,3.19,2.91,2.91,2.91
1094,0.32,-2.61,0.33,-2.61,2.61,3.10,2.94,2.94,2.94
1105,0.37,-2.59,0.37,-2.60,2.60,3.00,2.98,2.97,2.97
1116,0.41,-2.58,0.41,-2.59,2.59,2.90,3.00,3.00,3.00
1128,0.45,-2.57,0.45,-2.58,2.58,2.78,3.03,3.03,3.03
1139,0.49,-2.57,0.49,-2.56,2.56,2.67,3.06,3.06,3.06
1150,0.53,-2.56,0.54,-2.55,2.55,2.56,3.08,3.09,3.09
1162,0.57,-2.55,0.59,-2.53,2.53,2.43,3.11,3.12,3.12
1173,0.63,-2.52,0.64,-2.51,2.51,2.32,3.15,3.15,3.15
1185,0.71,-2.47,0.69,-2.49,2.49,2.19,3.21,3.18,3.18
1197,0.76,-2.45,0.75,-2.47,2.47,2.06,3.23,3.22,3.22
1209,0.80,-2.45,0.80,-2.44,2.44,1.92,3.25,3.25,3.25
1221,0.84,-2.44,0.87,-2.42,2.42,1.79,3.26,3.28,3.28
1233,0.92,-2.39,0.93,-2.38,2.38,1.66,3.31,3.32,3.32
1246,1.01,-2.34,1.00,-2.35,2.35,1.52,3.36,3.35,3.35
1258,1.07,-2.31,1.08,-2.31,2.31,1.39,3.38,3.38,3.38
1271,1.14,-2.27,1.16,-2.26,2.26,1.24,3.41,3.42,3.42
1283,1.23,-2.22,1.24,-2.21,2.21,1.11,3.45,3.45,3.45
1296,1.33,-2.15,1.33,-2.16,2.16,0.97,3.49,3.49,3.49
1309,1.41,-2.11,1.42,-2.10,2.10,0.83,3.52,3.52,3.52
1322,1.51,-2.04,1.51,-2.05,2.05,0.70,3.56,3.56,3.56
1335,1.60,-1.99,1.60,-1.99,1.99,0.56,3.59,3.59,3.59
1349,1.70,-1.93,1.70,-1.93,1.93,0.41,3.64,3.63,3.63
1362,1.79,-1.87,1.79,-1.88,1.88,0.27,3.67,3.67,3.67
1376,1.89,-1.81,1.88,-1.83,1.83,0.13,3.72,3.71,3.71
1390,1.99,-1.75,1.97,-1.77,1.77,-0.01,3.77,3.74,3.74
1404,2.06,-1.72,2.06,-1.72,1.72,-0.16,3.78,3.78,3.78
1418,2.12,-1.70,2.16,-1.66,1.66,-0.30,3.79,3.82,3.82
1432,2.25,-1.60,2.26,-1.60,1.60,-0.44,3.86,3.86,3.86
1446,2.32,-1.57,2.36,-1.53,1.53,-0.58,3.86,3.90,3.90
1461,2.49,-1.44,2.48,-1.46,1.46,-0.72,3.95,3.94,3.94
1475,2.58,-1.39,2.60,-1.38,1.38,-0.86,3.96,3.98,3.98
1490,2.74,-1.27,2.72,-1.29,1.29,-1.01,4.04,4.02,4.02
1505,2.86,-1.19,2.86,-1.20,1.20,-1.15,4.07,4.06,4.06
1520,3.00,-1.10,2.99,-1.11,1.11,-1.29,4.11,4.10,4.10
1535,3.15,-0.99,3.14,-1.01,1.01,-1.43,4.16,4.14,4.14
1550,3.26,-0.92,3.28,-0.90,0.90,-1.57,4.16,4.18,4.18
1566,3.43,-0.79,3.44,-0.79,0.79,-1.72,4.22,4.23,4.23
1582,3.61,-0.65,3.60,-0.67,0.67,-1.86,4.28,4.27,4.27
1597,3.75,-0.56,3.77,-0.54,0.54,-2.00,4.30,4.31,4.31
1613,3.94,-0.41,3.95,-0.41,0.41,-2.14,4.35,4.35,4.35
1629,4.13,-0.26,4.14,-0.26,0.26,-2.28,4.40,4.40,4.40
1646,4.36,-0.08,4.34,-0.11,0.11,-2.42,4.47,4.44,4.44
1662,4.56,0.08,4.55,0.06,-0.06,-2.56,4.50,4.49,4.49
1679,4.82,0.29,4.78,0.25,-0.25,-2.70,4.58,4.53,4.53
1696,5.09,0.51,5.04,0.46,-0.46,-2.83,4.63,4.58,4.58
1713,5.35,0.73,5.33,0.70,-0.70,-2.96,4.65,4.63,4.63
1730,5.63,0.96,5.66,0.99,-0.99,-3.09,4.65,4.67,4.68
1747,5.96,1.24,6.05,1.33,-1.33,-3.21,4.64,4.72,4.72
1764,6.38,1.61,6.50,1.72,-1.72,-3.33,4.66,4.77,4.77
1782,6.91,2.09,7.01,2.18,-2.18,-3.45,4.73,4.82,4.82
1800,7.49,2.62,7.57,2.70,-2.70,-3.56,4.80,4.88,4.88
1818,8.09,3.16,8.18,3.25,-3.25,-3.67,4.84,4.93,4.93
1836,8.71,3.73,8.81,3.83,-3.83,-3.76,4.89,4.98,4.99
1854,9.40,4.36,9.44,4.40,-4.40,-3.85,5.01,5.04,5.04
1873,10.15,5.05,10.04,4.94,-4.94,-3.94,5.22,5.10,5.10
1892,10.83,5.67,10.58,5.42,-5.42,-4.02,5.42,5.17,5.17
1911,11.25,6.02,11.05,5.82,-5.82,-4.08,5.43,5.23,5.23
1930,11.56,6.26,11.44,6.14,-6.14,-4.14,5.43,5.30,5.30
1949,11.73,6.36,11.75,6.37,-6.37,-4.19,5.36,5.38,5.38
1969,11.96,6.51,11.99,6.53,-6.53,-4.23,5.44,5.46,5.46
