frequency,raw,error,smoothed,error_smoothed,equalization,parametric_eq,equalized_raw,equalized_smoothed,target
20,-8.29,-11.53,-8.28,-11.47,6.00,2.82,-2.29,-2.28,3.24
21,-7.91,-11.15,-7.90,-11.10,6.00,3.24,-1.91,-1.90,3.24
22,-7.63,-10.87,-7.53,-10.73,6.00,3.69,-1.63,-1.53,3.23
23,-7.34,-10.57,-7.18,-10.39,6.00,4.18,-1.34,-1.18,3.23
24,-6.86,-10.09,-6.85,-10.05,6.00,4.69,-0.86,-0.85,3.22
25,-6.42,-9.64,-6.53,-9.73,6.00,5.22,-0.42,-0.53,3.22
26,-6.10,-9.31,-6.23,-9.43,6.00,5.74,-0.10,-0.23,3.21
27,-5.84,-9.05,-5.94,-9.14,6.00,6.24,0.16,0.06,3.20
28,-5.55,-8.75,-5.67,-8.86,6.00,6.68,0.45,0.33,3.20
29,-5.30,-8.49,-5.42,-8.60,6.00,7.04,0.70,0.58,3.19
30,-5.13,-8.31,-5.18,-8.35,6.00,7.28,0.87,0.82,3.18
31,-4.94,-8.12,-4.99,-8.14,6.00,7.40,1.06,1.01,3.17
32,-4.77,-7.94,-4.81,-7.94,6.00,7.40,1.23,1.19,3.16
33,-4.61,-7.77,-4.64,-7.75,6.00,7.29,1.39,1.36,3.15
34,-4.47,-7.62,-4.48,-7.57,6.00,7.10,1.53,1.52,3.14
35,-4.37,-7.51,-4.32,-7.39,6.00,6.85,1.63,1.68,3.13
36,-4.27,-7.40,-4.15,-7.20,6.00,6.57,1.73,1.85,3.12
37,-4.17,-7.28,-3.97,-7.02,6.00,6.29,1.83,2.03,3.11
38,-3.98,-7.08,-3.79,-6.83,6.00,6.01,2.02,2.21,3.10
39,-3.68,-6.77,-3.60,-6.64,6.00,5.74,2.32,2.40,3.08
40,-3.39,-6.46,-3.42,-6.45,6.00,5.49,2.61,2.58,3.07
41,-3.14,-6.20,-3.25,-6.27,5.97,5.26,2.83,2.72,3.06
42,-2.95,-5.99,-3.08,-6.09,5.92,5.06,2.96,2.83,3.04
43,-2.81,-5.84,-2.92,-5.93,5.83,4.89,3.02,2.91,3.02
44,-2.67,-5.68,-2.78,-5.78,5.73,4.73,3.06,2.95,3.01
45,-2.55,-5.55,-2.65,-5.64,5.62,4.60,3.07,2.98,2.99
46,-2.48,-5.46,-2.53,-5.51,5.51,4.49,3.03,2.98,2.97
47,-2.42,-5.38,-2.44,-5.39,5.39,4.39,2.97,2.95,2.95
48,-2.39,-5.33,-2.36,-5.28,5.28,4.31,2.89,2.92,2.94
49,-2.37,-5.29,-2.30,-5.18,5.18,4.25,2.81,2.88,2.92
50,-2.27,-5.17,-2.23,-5.07,5.07,4.20,2.80,2.84,2.89
51,-2.16,-5.04,-2.14,-4.97,4.97,4.16,2.80,2.82,2.87
52,-2.09,-4.94,-2.04,-4.85,4.85,4.12,2.75,2.80,2.85
53,-2.05,-4.88,-1.93,-4.72,4.72,4.09,2.66,2.78,2.83
54,-1.88,-4.69,-1.82,-4.58,4.58,4.07,2.69,2.76,2.80
55,-1.76,-4.54,-1.69,-4.43,4.43,4.04,2.67,2.74,2.78
56,-1.63,-4.39,-1.56,-4.28,4.28,4.02,2.65,2.72,2.75
57,-1.40,-4.13,-1.43,-4.13,4.13,3.99,2.72,2.70,2.73
58,-1.26,-3.97,-1.30,-3.98,3.98,3.96,2.71,2.68,2.70
59,-0.99,-3.67,-1.17,-3.83,3.83,3.92,2.83,2.66,2.68
60,-0.88,-3.53,-1.06,-3.69,3.69,3.88,2.80,2.63,2.65
61,-0.92,-3.54,-0.95,-3.55,3.55,3.83,2.63,2.60,2.62
62,-0.84,-3.43,-0.85,-3.43,3.43,3.77,2.58,2.58,2.59
63,-0.77,-3.33,-0.76,-3.31,3.31,3.70,2.54,2.56,2.56
64,-0.71,-3.24,-0.68,-3.20,3.20,3.63,2.49,2.52,2.53
65,-0.66,-3.16,-0.61,-3.10,3.10,3.54,2.44,2.49,2.50
66,-0.59,-3.06,-0.56,-3.01,3.01,3.45,2.42,2.45,2.47
67,-0.52,-2.96,-0.50,-2.92,2.92,3.36,2.40,2.42,2.44
68,-0.46,-2.87,-0.45,-2.84,2.84,3.26,2.37,2.39,2.40
69,-0.40,-2.77,-0.40,-2.75,2.75,3.16,2.35,2.35,2.37
70,-0.33,-2.67,-0.34,-2.67,2.67,3.05,2.34,2.33,2.34
71,-0.28,-2.59,-0.28,-2.58,2.58,2.94,2.30,2.30,2.30
72,-0.23,-2.50,-0.23,-2.50,2.50,2.83,2.27,2.27,2.27
73,-0.17,-2.41,-0.18,-2.42,2.42,2.72,2.24,2.23,2.23
74,-0.11,-2.31,-0.14,-2.33,2.33,2.61,2.22,2.20,2.20
75,-0.06,-2.23,-0.09,-2.25,2.25,2.50,2.19,2.16,2.17
76,-0.02,-2.15,-0.05,-2.17,2.17,2.39,2.15,2.13,2.13
77,-0.00,-2.10,-0.01,-2.09,2.09,2.28,2.09,2.09,2.09
78,0.02,-2.04,0.04,-2.02,2.02,2.17,2.03,2.05,2.06
79,0.05,-1.98,0.08,-1.94,1.94,2.07,1.98,2.01,2.02
80,0.10,-1.89,0.12,-1.86,1.86,1.97,1.95,1.98,1.99
81,0.15,-1.80,0.16,-1.78,1.78,1.87,1.93,1.94,1.95
82,0.20,-1.72,0.21,-1.70,1.70,1.77,1.90,1.91,1.91
83,0.25,-1.63,0.25,-1.62,1.62,1.67,1.87,1.87,1.88
84,0.30,-1.55,0.29,-1.54,1.54,1.58,1.84,1.83,1.84
85,0.36,-1.45,0.34,-1.46,1.46,1.49,1.82,1.80,1.80
86,0.40,-1.37,0.38,-1.38,1.38,1.40,1.77,1.76,1.77
87,0.45,-1.29,0.43,-1.30,1.30,1.31,1.74,1.73,1.73
88,0.49,-1.21,0.48,-1.22,1.22,1.23,1.70,1.69,1.70
89,0.53,-1.13,0.52,-1.14,1.14,1.14,1.67,1.66,1.66
90,0.56,-1.07,0.56,-1.06,1.06,1.06,1.62,1.62,1.62
91,0.60,-0.99,0.60,-0.99,0.99,0.99,1.58,1.59,1.59
92,0.64,-0.92,0.64,-0.91,0.91,0.91,1.55,1.55,1.55
93,0.67,-0.85,0.68,-0.84,0.84,0.83,1.50,1.52,1.52
94,0.73,-0.76,0.72,-0.76,0.76,0.76,1.49,1.48,1.48
95,0.76,-0.69,0.76,-0.69,0.69,0.69,1.44,1.44,1.45
96,0.80,-0.62,0.79,-0.62,0.62,0.62,1.41,1.41,1.41
97,0.85,-0.53,0.83,-0.54,0.54,0.55,1.39,1.37,1.38
98,0.88,-0.47,0.87,-0.47,0.47,0.48,1.34,1.33,1.34
99,0.92,-0.39,0.91,-0.39,0.39,0.42,1.31,1.30,1.31
100,0.95,-0.33,0.95,-0.31,0.31,0.36,1.26,1.26,1.28
101,0.98,-0.27,0.99,-0.24,0.24,0.29,1.21,1.23,1.24
102,1.00,-0.21,1.03,-0.16,0.16,0.23,1.15,1.19,1.21
104,1.07,-0.08,1.07,-0.08,0.08,0.12,1.15,1.16,1.15
105,1.11,-0.01,1.12,-0.00,0.00,0.06,1.11,1.12,1.11
106,1.15,0.06,1.16,0.07,-0.07,0.00,1.08,1.09,1.08
107,1.20,0.14,1.20,0.14,-0.14,-0.05,1.05,1.05,1.05
108,1.25,0.22,1.23,0.21,-0.21,-0.10,1.03,1.02,1.02
109,1.30,0.30,1.27,0.28,-0.28,-0.15,1.01,0.99,0.99
110,1.33,0.36,1.30,0.35,-0.35,-0.20,0.98,0.96,0.96
111,1.36,0.42,1.33,0.41,-0.41,-0.25,0.95,0.93,0.93
112,1.37,0.46,1.36,0.47,-0.47,-0.30,0.90,0.89,0.90
113,1.39,0.51,1.39,0.52,-0.52,-0.34,0.86,0.86,0.87
114,1.40,0.55,1.41,0.58,-0.58,-0.39,0.82,0.83,0.85
115,1.42,0.60,1.43,0.63,-0.63,-0.43,0.79,0.80,0.82
117,1.44,0.67,1.45,0.68,-0.68,-0.51,0.76,0.77,0.77
118,1.45,0.71,1.46,0.72,-0.72,-0.55,0.72,0.74,0.74
119,1.46,0.74,1.48,0.77,-0.77,-0.58,0.69,0.71,0.71
120,1.48,0.79,1.49,0.81,-0.81,-0.62,0.67,0.68,0.69
121,1.48,0.81,1.49,0.84,-0.84,-0.65,0.63,0.65,0.66
123,1.52,0.90,1.49,0.88,-0.88,-0.72,0.64,0.61,0.61
124,1.53,0.94,1.49,0.91,-0.91,-0.75,0.62,0.58,0.59
125,1.53,0.96,1.48,0.93,-0.93,-0.77,0.59,0.55,0.57
126,1.52,0.97,1.48,0.96,-0.96,-0.80,0.56,0.52,0.54
128,1.48,0.98,1.47,0.98,-0.98,-0.85,0.50,0.50,0.50
129,1.44,0.96,1.46,0.99,-0.99,-0.88,0.44,0.47,0.48
130,1.40,0.94,1.45,1.00,-1.00,-0.90,0.40,0.45,0.46
131,1.39,0.95,1.42,1.00,-1.00,-0.92,0.38,0.42,0.44
133,1.34,0.94,1.39,1.00,-1.00,-0.96,0.34,0.39,0.39
134,1.35,0.97,1.35,0.99,-0.99,-0.98,0.36,0.36,0.37
135,1.36,1.00,1.30,0.97,-0.97,-1.00,0.38,0.33,0.36
137,1.36,1.04,1.26,0.95,-0.95,-1.03,0.40,0.30,0.32
138,1.34,1.04,1.21,0.93,-0.93,-1.05,0.40,0.27,0.30
140,1.19,0.92,1.16,0.91,-0.91,-1.08,0.27,0.25,0.26
141,1.11,0.86,1.12,0.89,-0.89,-1.10,0.22,0.23,0.25
142,1.03,0.80,1.08,0.87,-0.87,-1.11,0.16,0.21,0.23
144,0.97,0.77,1.04,0.85,-0.85,-1.14,0.11,0.19,0.20
145,0.94,0.75,1.00,0.84,-0.84,-1.16,0.09,0.16,0.18
147,0.93,0.78,0.97,0.84,-0.84,-1.19,0.09,0.13,0.15
148,0.94,0.80,0.94,0.84,-0.84,-1.20,0.10,0.10,0.14
150,0.96,0.85,0.93,0.85,-0.85,-1.23,0.10,0.07,0.11
151,0.97,0.87,0.93,0.88,-0.88,-1.25,0.09,0.05,0.09
153,0.98,0.91,0.95,0.92,-0.92,-1.28,0.05,0.03,0.07
154,0.98,0.92,0.99,0.97,-0.97,-1.29,0.00,0.02,0.05
156,1.00,0.97,1.05,1.03,-1.03,-1.32,-0.03,0.02,0.03
157,1.02,1.00,1.10,1.09,-1.09,-1.34,-0.07,0.01,0.01
159,1.08,1.09,1.14,1.15,-1.15,-1.37,-0.07,-0.01,-0.01
160,1.13,1.15,1.17,1.21,-1.21,-1.39,-0.08,-0.04,-0.02
162,1.23,1.27,1.20,1.27,-1.27,-1.42,-0.04,-0.07,-0.04
164,1.35,1.41,1.22,1.32,-1.32,-1.46,0.03,-0.10,-0.07
165,1.40,1.47,1.25,1.37,-1.37,-1.48,0.02,-0.12,-0.08
167,1.47,1.56,1.29,1.42,-1.42,-1.52,0.04,-0.13,-0.10
169,1.40,1.51,1.33,1.47,-1.47,-1.56,-0.08,-0.14,-0.12
170,1.33,1.45,1.36,1.52,-1.52,-1.58,-0.19,-0.16,-0.13
172,1.22,1.36,1.39,1.57,-1.57,-1.62,-0.35,-0.17,-0.15
174,1.28,1.44,1.43,1.62,-1.62,-1.66,-0.34,-0.19,-0.16
175,1.34,1.51,1.46,1.67,-1.67,-1.68,-0.33,-0.21,-0.17
177,1.46,1.64,1.49,1.72,-1.72,-1.73,-0.26,-0.22,-0.19
179,1.58,1.78,1.53,1.77,-1.77,-1.78,-0.19,-0.24,-0.21
181,1.70,1.92,1.58,1.83,-1.83,-1.82,-0.13,-0.25,-0.22
183,1.71,1.94,1.63,1.90,-1.90,-1.87,-0.19,-0.26,-0.24
184,1.69,1.93,1.69,1.96,-1.96,-1.90,-0.28,-0.27,-0.24
186,1.72,1.97,1.77,2.03,-2.03,-1.95,-0.32,-0.27,-0.26
188,1.82,2.09,1.83,2.10,-2.10,-2.00,-0.29,-0.27,-0.27
190,1.90,2.18,1.89,2.17,-2.17,-2.05,-0.27,-0.27,-0.28
192,1.96,2.25,1.94,2.23,-2.23,-2.11,-0.27,-0.29,-0.30
194,2.01,2.31,1.98,2.29,-2.29,-2.16,-0.28,-0.30,-0.31
196,2.04,2.36,2.02,2.34,-2.34,-2.22,-0.30,-0.32,-0.32
198,2.06,2.39,2.05,2.39,-2.39,-2.27,-0.33,-0.34,-0.33
200,2.09,2.43,2.08,2.43,-2.43,-2.33,-0.35,-0.35,-0.34
202,2.11,2.46,2.12,2.47,-2.47,-2.38,-0.37,-0.36,-0.35
204,2.14,2.50,2.15,2.51,-2.51,-2.44,-0.37,-0.36,-0.36
206,2.17,2.54,2.17,2.55,-2.55,-2.49,-0.38,-0.37,-0.37
208,2.19,2.57,2.19,2.58,-2.58,-2.54,-0.39,-0.38,-0.38
210,2.23,2.62,2.21,2.60,-2.60,-2.60,-0.38,-0.39,-0.39
212,2.23,2.62,2.23,2.63,-2.63,-2.65,-0.40,-0.40,-0.40
214,2.23,2.63,2.24,2.65,-2.65,-2.70,-0.43,-0.41,-0.41
216,2.25,2.66,2.26,2.67,-2.67,-2.75,-0.43,-0.42,-0.42
218,2.28,2.70,2.27,2.69,-2.69,-2.80,-0.42,-0.43,-0.42
221,2.30,2.73,2.28,2.71,-2.71,-2.86,-0.42,-0.43,-0.43
223,2.30,2.74,2.28,2.73,-2.73,-2.90,-0.43,-0.44,-0.44
225,2.30,2.74,2.29,2.74,-2.74,-2.94,-0.44,-0.45,-0.45
227,2.29,2.74,2.29,2.75,-2.75,-2.98,-0.46,-0.46,-0.45
229,2.29,2.75,2.29,2.76,-2.76,-3.01,-0.47,-0.47,-0.46
232,2.29,2.76,2.29,2.77,-2.77,-3.06,-0.48,-0.47,-0.47
234,2.28,2.75,2.29,2.77,-2.77,-3.09,-0.49,-0.48,-0.48
236,2.28,2.76,2.29,2.77,-2.77,-3.11,-0.50,-0.49,-0.48
239,2.28,2.77,2.28,2.77,-2.77,-3.14,-0.50,-0.49,-0.49
241,2.27,2.76,2.27,2.77,-2.77,-3.15,-0.50,-0.50,-0.50
244,2.26,2.76,2.25,2.76,-2.76,-3.16,-0.50,-0.51,-0.50
246,2.25,2.75,2.24,2.75,-2.75,-3.17,-0.50,-0.51,-0.51
248,2.24,2.75,2.22,2.73,-2.73,-3.17,-0.50,-0.51,-0.51
251,2.21,2.73,2.20,2.72,-2.72,-3.17,-0.51,-0.52,-0.52
253,2.19,2.71,2.17,2.69,-2.69,-3.16,-0.51,-0.52,-0.52
256,2.15,2.68,2.14,2.67,-2.67,-3.14,-0.52,-0.53,-0.53
259,2.11,2.64,2.10,2.64,-2.64,-3.12,-0.53,-0.54,-0.54
261,2.07,2.61,2.06,2.60,-2.60,-3.10,-0.54,-0.54,-0.54
264,2.02,2.56,2.02,2.57,-2.57,-3.07,-0.55,-0.55,-0.55
266,1.99,2.54,1.98,2.53,-2.53,-3.04,-0.55,-0.55,-0.55
269,1.93,2.48,1.94,2.49,-2.49,-3.00,-0.57,-0.56,-0.55
272,1.88,2.44,1.89,2.46,-2.46,-2.95,-0.58,-0.56,-0.56
274,1.85,2.41,1.86,2.42,-2.42,-2.92,-0.58,-0.57,-0.56
277,1.81,2.37,1.82,2.39,-2.39,-2.86,-0.58,-0.57,-0.57
280,1.78,2.35,1.78,2.36,-2.36,-2.81,-0.58,-0.58,-0.57
283,1.76,2.33,1.75,2.33,-2.33,-2.75,-0.58,-0.58,-0.58
286,1.73,2.31,1.73,2.31,-2.31,-2.69,-0.59,-0.59,-0.58
288,1.72,2.30,1.70,2.29,-2.29,-2.64,-0.58,-0.59,-0.58
291,1.70,2.28,1.69,2.28,-2.28,-2.58,-0.58,-0.59,-0.59
294,1.68,2.27,1.67,2.27,-2.27,-2.51,-0.60,-0.60,-0.59
297,1.66,2.25,1.67,2.27,-2.27,-2.45,-0.61,-0.60,-0.59
300,1.65,2.24,1.67,2.27,-2.27,-2.38,-0.62,-0.60,-0.60
303,1.65,2.25,1.67,2.27,-2.27,-2.32,-0.62,-0.61,-0.60
306,1.66,2.26,1.67,2.28,-2.28,-2.25,-0.62,-0.61,-0.60
309,1.67,2.27,1.68,2.29,-2.29,-2.18,-0.62,-0.61,-0.61
312,1.69,2.30,1.68,2.30,-2.30,-2.12,-0.61,-0.61,-0.61
316,1.71,2.32,1.69,2.31,-2.31,-2.04,-0.60,-0.62,-0.61
319,1.72,2.33,1.70,2.32,-2.32,-1.97,-0.60,-0.62,-0.62
322,1.73,2.34,1.71,2.33,-2.33,-1.91,-0.61,-0.62,-0.62
325,1.74,2.36,1.72,2.35,-2.35,-1.85,-0.61,-0.62,-0.62
328,1.75,2.37,1.74,2.36,-2.36,-1.79,-0.61,-0.62,-0.62
332,1.75,2.37,1.75,2.37,-2.37,-1.71,-0.63,-0.63,-0.63
335,1.76,2.38,1.75,2.38,-2.38,-1.66,-0.63,-0.63,-0.63
338,1.76,2.39,1.76,2.40,-2.40,-1.60,-0.64,-0.63,-0.63
342,1.76,2.39,1.77,2.41,-2.41,-1.53,-0.65,-0.64,-0.63
345,1.77,2.40,1.77,2.41,-2.41,-1.48,-0.65,-0.64,-0.64
349,1.77,2.40,1.78,2.42,-2.42,-1.41,-0.66,-0.64,-0.64
352,1.78,2.42,1.79,2.43,-2.43,-1.36,-0.65,-0.64,-0.64
356,1.79,2.43,1.79,2.44,-2.44,-1.30,-0.65,-0.65,-0.64
359,1.80,2.44,1.79,2.44,-2.44,-1.25,-0.65,-0.65,-0.64
363,1.80,2.44,1.79,2.45,-2.45,-1.20,-0.65,-0.65,-0.65
366,1.80,2.44,1.79,2.45,-2.45,-1.15,-0.66,-0.66,-0.65
370,1.80,2.45,1.79,2.45,-2.45,-1.10,-0.66,-0.66,-0.65
374,1.79,2.44,1.78,2.45,-2.45,-1.04,-0.66,-0.67,-0.65
377,1.77,2.42,1.77,2.44,-2.44,-1.00,-0.68,-0.67,-0.65
381,1.74,2.39,1.76,2.43,-2.43,-0.95,-0.69,-0.67,-0.66
385,1.71,2.36,1.74,2.41,-2.41,-0.90,-0.70,-0.66,-0.66
389,1.67,2.32,1.71,2.37,-2.37,-0.85,-0.70,-0.66,-0.66
393,1.63,2.29,1.66,2.32,-2.32,-0.81,-0.69,-0.66,-0.66
397,1.58,2.24,1.58,2.24,-2.24,-0.76,-0.66,-0.66,-0.66
401,1.53,2.19,1.49,2.15,-2.15,-0.72,-0.62,-0.66,-0.66
405,1.46,2.12,1.37,2.03,-2.03,-0.67,-0.57,-0.66,-0.66
409,1.36,2.02,1.23,1.89,-1.89,-0.63,-0.54,-0.66,-0.67
413,1.22,1.88,1.07,1.74,-1.74,-0.59,-0.52,-0.67,-0.67
417,1.01,1.68,0.89,1.57,-1.57,-0.55,-0.56,-0.68,-0.67
421,0.75,1.42,0.70,1.39,-1.39,-0.52,-0.64,-0.69,-0.67
425,0.48,1.15,0.49,1.20,-1.20,-0.48,-0.72,-0.70,-0.67
430,0.21,0.88,0.29,1.01,-1.01,-0.44,-0.80,-0.72,-0.68
434,0.04,0.71,0.09,0.82,-0.82,-0.40,-0.78,-0.73,-0.68
438,-0.12,0.55,-0.09,0.65,-0.65,-0.37,-0.77,-0.73,-0.68
443,-0.34,0.33,-0.25,0.48,-0.48,-0.33,-0.83,-0.74,-0.68
447,-0.52,0.15,-0.39,0.34,-0.34,-0.30,-0.87,-0.74,-0.68
451,-0.64,0.03,-0.51,0.22,-0.22,-0.27,-0.86,-0.73,-0.67
456,-0.70,-0.04,-0.60,0.12,-0.12,-0.23,-0.82,-0.72,-0.67
460,-0.71,-0.05,-0.67,0.03,-0.03,-0.20,-0.74,-0.70,-0.66
465,-0.70,-0.05,-0.73,-0.04,0.04,-0.16,-0.66,-0.68,-0.65
470,-0.69,-0.05,-0.77,-0.10,0.10,-0.13,-0.59,-0.66,-0.65
474,-0.70,-0.07,-0.81,-0.16,0.16,-0.10,-0.54,-0.65,-0.64
479,-0.73,-0.11,-0.84,-0.21,0.21,-0.07,-0.52,-0.63,-0.63
484,-0.78,-0.17,-0.88,-0.26,0.26,-0.04,-0.53,-0.62,-0.61
489,-0.86,-0.26,-0.91,-0.31,0.31,-0.01,-0.56,-0.60,-0.60
494,-0.93,-0.35,-0.94,-0.35,0.35,0.02,-0.58,-0.58,-0.59
499,-0.99,-0.42,-0.98,-0.40,0.40,0.05,-0.59,-0.58,-0.57
504,-1.06,-0.51,-1.02,-0.45,0.45,0.07,-0.62,-0.57,-0.56
509,-1.10,-0.56,-1.06,-0.49,0.49,0.10,-0.61,-0.56,-0.54
514,-1.13,-0.61,-1.09,-0.53,0.53,0.13,-0.60,-0.56,-0.53
519,-1.14,-0.64,-1.12,-0.57,0.57,0.15,-0.57,-0.54,-0.51
524,-1.15,-0.66,-1.13,-0.60,0.60,0.18,-0.55,-0.53,-0.49
529,-1.15,-0.68,-1.13,-0.63,0.63,0.20,-0.53,-0.51,-0.47
535,-1.14,-0.69,-1.13,-0.65,0.65,0.23,-0.50,-0.48,-0.45
540,-1.13,-0.70,-1.11,-0.66,0.66,0.25,-0.47,-0.45,-0.43
545,-1.11,-0.70,-1.10,-0.69,0.69,0.28,-0.43,-0.41,-0.41
551,-1.10,-0.72,-1.09,-0.72,0.72,0.31,-0.39,-0.38,-0.39
556,-1.09,-0.73,-1.09,-0.75,0.75,0.33,-0.34,-0.34,-0.36
562,-1.08,-0.75,-1.12,-0.81,0.81,0.35,-0.28,-0.31,-0.33
568,-1.09,-0.79,-1.16,-0.87,0.87,0.38,-0.22,-0.29,-0.31
573,-1.11,-0.84,-1.22,-0.95,0.95,0.40,-0.16,-0.27,-0.28
579,-1.16,-0.92,-1.29,-1.04,1.04,0.43,-0.12,-0.25,-0.25
585,-1.25,-1.03,-1.38,-1.15,1.15,0.46,-0.11,-0.23,-0.22
591,-1.39,-1.20,-1.47,-1.26,1.26,0.48,-0.14,-0.21,-0.19
596,-1.53,-1.37,-1.56,-1.37,1.37,0.50,-0.16,-0.19,-0.16
602,-1.70,-1.58,-1.65,-1.49,1.49,0.53,-0.22,-0.16,-0.13
608,-1.84,-1.75,-1.73,-1.60,1.60,0.55,-0.25,-0.14,-0.10
615,-1.95,-1.89,-1.80,-1.69,1.69,0.59,-0.26,-0.11,-0.07
621,-1.99,-1.96,-1.86,-1.78,1.78,0.61,-0.22,-0.08,-0.03
627,-1.97,-1.97,-1.89,-1.84,1.84,0.64,-0.13,-0.05,-0.00
633,-1.93,-1.96,-1.91,-1.89,1.89,0.66,-0.05,-0.02,0.03
639,-1.88,-1.94,-1.89,-1.91,1.91,0.69,0.02,0.01,0.06
646,-1.81,-1.91,-1.85,-1.91,1.91,0.72,0.09,0.06,0.09
652,-1.75,-1.88,-1.79,-1.89,1.89,0.75,0.13,0.10,0.13
659,-1.67,-1.83,-1.70,-1.85,1.85,0.78,0.17,0.14,0.16
665,-1.61,-1.81,-1.61,-1.80,1.80,0.81,0.18,0.19,0.19
672,-1.51,-1.74,-1.50,-1.73,1.73,0.84,0.22,0.23,0.23
679,-1.40,-1.67,-1.39,-1.66,1.66,0.88,0.25,0.27,0.27
686,-1.28,-1.59,-1.28,-1.58,1.58,0.91,0.29,0.30,0.30
692,-1.17,-1.52,-1.16,-1.49,1.49,0.94,0.32,0.33,0.34
699,-1.05,-1.43,-1.04,-1.41,1.41,0.97,0.36,0.37,0.38
706,-0.93,-1.35,-0.92,-1.34,1.34,1.01,0.40,0.41,0.42
713,-0.83,-1.29,-0.81,-1.28,1.28,1.05,0.44,0.47,0.46
721,-0.72,-1.22,-0.71,-1.23,1.23,1.09,0.50,0.52,0.49
728,-0.62,-1.16,-0.63,-1.20,1.20,1.12,0.57,0.57,0.53
735,-0.54,-1.12,-0.58,-1.18,1.18,1.16,0.64,0.61,0.57
742,-0.47,-1.09,-0.55,-1.18,1.18,1.20,0.71,0.63,0.61
750,-0.40,-1.05,-0.55,-1.20,1.20,1.24,0.80,0.66,0.65
757,-0.38,-1.07,-0.56,-1.23,1.23,1.28,0.85,0.67,0.69
765,-0.42,-1.15,-0.58,-1.27,1.27,1.32,0.85,0.70,0.73
773,-0.51,-1.28,-0.60,-1.32,1.32,1.37,0.81,0.72,0.77
780,-0.63,-1.44,-0.62,-1.37,1.37,1.40,0.73,0.75,0.80
788,-0.76,-1.60,-0.63,-1.41,1.41,1.45,0.64,0.77,0.84
796,-0.84,-1.71,-0.63,-1.44,1.44,1.49,0.59,0.80,0.87
804,-0.85,-1.76,-0.62,-1.46,1.46,1.54,0.60,0.84,0.90
812,-0.76,-1.70,-0.59,-1.46,1.46,1.58,0.69,0.87,0.94
820,-0.63,-1.60,-0.54,-1.45,1.45,1.63,0.81,0.90,0.97
828,-0.49,-1.50,-0.48,-1.42,1.42,1.67,0.92,0.94,1.00
837,-0.33,-1.37,-0.39,-1.37,1.37,1.72,1.04,0.98,1.03
845,-0.20,-1.27,-0.29,-1.32,1.32,1.76,1.11,1.02,1.06
853,-0.09,-1.19,-0.19,-1.26,1.26,1.81,1.17,1.07,1.09
862,0.01,-1.12,-0.08,-1.20,1.20,1.86,1.21,1.12,1.12
871,0.10,-1.06,0.02,-1.15,1.15,1.90,1.24,1.17,1.15
879,0.15,-1.04,0.11,-1.10,1.10,1.94,1.25,1.21,1.18
888,0.19,-1.02,0.18,-1.06,1.06,1.99,1.25,1.24,1.21
897,0.21,-1.03,0.23,-1.04,1.04,2.03,1.24,1.26,1.24
906,0.24,-1.03,0.26,-1.02,1.02,2.08,1.26,1.28,1.27
915,0.25,-1.05,0.27,-1.03,1.03,2.12,1.27,1.30,1.29
924,0.27,-1.05,0.27,-1.04,1.04,2.16,1.31,1.32,1.32
933,0.28,-1.07,0.27,-1.07,1.07,2.19,1.35,1.34,1.35
943,0.29,-1.09,0.25,-1.11,1.11,2.23,1.40,1.36,1.37
952,0.28,-1.12,0.23,-1.16,1.16,2.27,1.44,1.39,1.40
962,0.22,-1.21,0.20,-1.21,1.21,2.30,1.43,1.41,1.42
971,0.17,-1.28,0.17,-1.27,1.27,2.33,1.44,1.44,1.45
981,0.11,-1.37,0.13,-1.34,1.34,2.37,1.45,1.47,1.48
991,0.04,-1.47,0.09,-1.41,1.41,2.40,1.45,1.50,1.50
1001,-0.00,-1.53,0.04,-1.48,1.48,2.42,1.48,1.52,1.53
1011,-0.03,-1.59,-0.01,-1.56,1.56,2.45,1.53,1.55,1.56
1021,-0.07,-1.66,-0.07,-1.65,1.65,2.47,1.57,1.58,1.58
1031,-0.11,-1.72,-0.13,-1.74,1.74,2.50,1.62,1.61,1.61
1041,-0.18,-1.82,-0.20,-1.84,1.84,2.52,1.65,1.64,1.64
1052,-0.25,-1.92,-0.27,-1.94,1.94,2.54,1.68,1.67,1.66
1062,-0.32,-2.02,-0.34,-2.05,2.05,2.55,1.72,1.70,1.69
1073,-0.40,-2.13,-0.43,-2.16,2.16,2.57,1.76,1.73,1.72
1084,-0.48,-2.23,-0.52,-2.28,2.28,2.59,1.79,1.76,1.75
1094,-0.57,-2.35,-0.61,-2.40,2.40,2.60,1.83,1.79,1.78
1105,-0.67,-2.48,-0.71,-2.52,2.52,2.61,1.85,1.81,1.81
1116,-0.79,-2.64,-0.82,-2.64,2.64,2.63,1.85,1.83,1.84
1128,-0.92,-2.80,-0.92,-2.76,2.76,2.64,1.84,1.85,1.87
1139,-1.03,-2.94,-1.01,-2.88,2.88,2.66,1.85,1.87,1.90
1150,-1.13,-3.07,-1.09,-2.99,2.99,2.67,1.85,1.90,1.94
1162,-1.22,-3.19,-1.16,-3.09,3.09,2.68,1.87,1.93,1.97
1173,-1.28,-3.28,-1.22,-3.18,3.18,2.70,1.90,1.96,2.00
1185,-1.32,-3.36,-1.27,-3.27,3.27,2.71,1.94,2.00,2.03
1197,-1.35,-3.42,-1.31,-3.34,3.34,2.73,1.99,2.04,2.06
1209,-1.36,-3.46,-1.34,-3.42,3.42,2.75,2.05,2.07,2.10
1221,-1.36,-3.49,-1.37,-3.48,3.48,2.77,2.12,2.11,2.13
1233,-1.36,-3.52,-1.39,-3.55,3.55,2.79,2.18,2.15,2.16
1246,-1.35,-3.55,-1.42,-3.61,3.61,2.81,2.26,2.20,2.19
1258,-1.37,-3.60,-1.44,-3.68,3.68,2.83,2.30,2.24,2.22
1271,-1.40,-3.66,-1.47,-3.75,3.75,2.86,2.34,2.27,2.26
1283,-1.45,-3.75,-1.51,-3.81,3.81,2.89,2.36,2.31,2.29
1296,-1.53,-3.86,-1.55,-3.89,3.89,2.92,2.35,2.34,2.33
1309,-1.59,-3.96,-1.59,-3.96,3.96,2.95,2.37,2.37,2.36
1322,-1.65,-4.05,-1.64,-4.03,4.03,2.98,2.38,2.40,2.40
1335,-1.70,-4.14,-1.68,-4.10,4.10,3.02,2.40,2.42,2.44
1349,-1.74,-4.22,-1.72,-4.17,4.17,3.06,2.43,2.45,2.47
1362,-1.78,-4.29,-1.75,-4.23,4.23,3.10,2.45,2.48,2.51
1376,-1.81,-4.36,-1.77,-4.29,4.29,3.14,2.47,2.51,2.55
1390,-1.81,-4.40,-1.78,-4.34,4.34,3.19,2.52,2.55,2.59
1404,-1.81,-4.44,-1.78,-4.38,4.38,3.24,2.56,2.60,2.62
1418,-1.79,-4.46,-1.77,-4.41,4.41,3.29,2.62,2.64,2.66
1432,-1.76,-4.47,-1.75,-4.44,4.44,3.35,2.68,2.69,2.70
1446,-1.73,-4.47,-1.73,-4.47,4.47,3.40,2.73,2.74,2.74
1461,-1.70,-4.48,-1.71,-4.50,4.50,3.46,2.79,2.79,2.78
1475,-1.66,-4.48,-1.69,-4.52,4.52,3.52,2.86,2.83,2.82
1490,-1.62,-4.48,-1.68,-4.55,4.55,3.59,2.93,2.87,2.86
1505,-1.60,-4.50,-1.67,-4.58,4.58,3.66,2.98,2.91,2.90
1520,-1.60,-4.54,-1.66,-4.61,4.61,3.73,3.01,2.95,2.94
1535,-1.61,-4.59,-1.66,-4.65,4.65,3.80,3.04,2.99,2.98
1550,-1.65,-4.68,-1.67,-4.69,4.69,3.87,3.04,3.03,3.02
1566,-1.68,-4.75,-1.67,-4.74,4.74,3.95,3.05,3.07,3.07
1582,-1.70,-4.82,-1.67,-4.78,4.78,4.03,3.08,3.11,3.11
1597,-1.71,-4.87,-1.67,-4.83,4.83,4.10,3.11,3.16,3.16
1613,-1.72,-4.93,-1.67,-4.87,4.87,4.19,3.15,3.20,3.20
1629,-1.71,-4.96,-1.67,-4.91,4.91,4.27,3.20,3.24,3.25
1646,-1.69,-4.99,-1.66,-4.95,4.95,4.35,3.26,3.28,3.29
1662,-1.65,-4.99,-1.66,-4.98,4.98,4.43,3.33,3.33,3.34
1679,-1.60,-4.99,-1.64,-5.01,5.01,4.52,3.40,3.37,3.39
1696,-1.56,-5.00,-1.62,-5.03,5.03,4.60,3.47,3.41,3.43
1713,-1.53,-5.01,-1.59,-5.05,5.05,4.68,3.51,3.45,3.48
1730,-1.51,-5.04,-1.56,-5.06,5.06,4.76,3.54,3.50,3.53
1747,-1.51,-5.09,-1.52,-5.06,5.06,4.84,3.55,3.55,3.58
1764,-1.50,-5.13,-1.47,-5.07,5.07,4.91,3.56,3.60,3.62
1782,-1.47,-5.15,-1.42,-5.06,5.06,4.98,3.59,3.64,3.67
1800,-1.41,-5.14,-1.36,-5.05,5.05,5.05,3.64,3.69,3.73
1818,-1.33,-5.11,-1.30,-5.04,5.04,5.11,3.70,3.73,3.78
1836,-1.24,-5.08,-1.24,-5.02,5.02,5.17,3.77,3.78,3.84
1854,-1.14,-5.04,-1.16,-4.99,4.99,5.21,3.85,3.83,3.90
