frequency,raw
20,-23.04
21,-22.14
22,-21.28
23,-20.45
24,-19.64
25,-18.86
26,-18.11
27,-17.39
28,-16.70
29,-16.03
30,-15.40
31,-14.82
32,-14.26
33,-13.73
34,-13.21
35,-12.72
36,-12.23
37,-11.78
38,-11.33
39,-10.92
40,-10.51
41,-10.12
42,-9.73
43,-9.36
44,-9.00
45,-8.66
46,-8.33
47,-8.04
48,-7.73
49,-7.45
50,-7.18
51,-6.92
52,-6.67
53,-6.44
54,-6.23
55,-6.03
56,-5.84
57,-5.68
58,-5.50
59,-5.36
60,-5.20
61,-5.05
62,-4.91
63,-4.77
64,-4.65
65,-4.52
66,-4.38
67,-4.27
68,-4.13
69,-4.00
70,-3.89
71,-3.77
72,-3.65
73,-3.52
74,-3.42
75,-3.30
76,-3.20
77,-3.09
78,-2.99
79,-2.88
80,-2.77
81,-2.66
82,-2.57
83,-2.48
84,-2.39
85,-2.30
86,-2.20
87,-2.13
88,-2.05
89,-1.98
90,-1.91
91,-1.84
92,-1.76
93,-1.70
94,-1.65
95,-1.59
96,-1.54
97,-1.50
98,-1.46
99,-1.42
100,-1.38
101,-1.34
102,-1.30
104,-1.26
105,-1.22
106,-1.18
107,-1.15
108,-1.13
109,-1.10
110,-1.07
111,-1.04
112,-1.02
113,-1.00
114,-0.98
115,-0.98
117,-0.98
118,-0.99
119,-1.00
120,-1.02
121,-1.02
123,-1.02
124,-1.01
125,-0.99
126,-0.96
128,-0.93
129,-0.90
130,-0.87
131,-0.83
133,-0.80
134,-0.77
135,-0.74
137,-0.71
138,-0.68
140,-0.67
141,-0.66
142,-0.65
144,-0.66
145,-0.66
147,-0.67
148,-0.67
150,-0.67
151,-0.67
153,-0.67
154,-0.67
156,-0.67
157,-0.67
159,-0.67
160,-0.67
162,-0.67
164,-0.67
165,-0.67
167,-0.67
169,-0.67
170,-0.67
172,-0.67
174,-0.67
175,-0.67
177,-0.67
179,-0.67
181,-0.67
183,-0.66
184,-0.66
186,-0.65
188,-0.66
190,-0.67
192,-0.69
194,-0.71
196,-0.74
198,-0.77
200,-0.80
202,-0.84
204,-0.87
206,-0.91
208,-0.94
210,-0.96
212,-0.99
214,-1.00
216,-1.00
218,-1.00
221,-1.00
223,-1.00
225,-1.01
227,-1.03
229,-1.06
232,-1.09
234,-1.12
236,-1.16
239,-1.19
241,-1.23
244,-1.25
246,-1.27
248,-1.29
251,-1.31
253,-1.33
256,-1.36
259,-1.38
261,-1.40
264,-1.42
266,-1.45
269,-1.48
272,-1.52
274,-1.55
277,-1.57
280,-1.59
283,-1.61
286,-1.64
288,-1.66
291,-1.68
294,-1.70
297,-1.72
300,-1.74
303,-1.77
306,-1.80
309,-1.82
312,-1.85
316,-1.89
319,-1.93
322,-1.97
325,-2.01
328,-2.03
332,-2.06
335,-2.09
338,-2.13
342,-2.17
345,-2.22
349,-2.27
352,-2.31
356,-2.37
359,-2.42
363,-2.48
366,-2.53
370,-2.57
374,-2.62
377,-2.66
381,-2.71
385,-2.78
389,-2.85
393,-2.92
397,-2.98
401,-3.05
405,-3.13
409,-3.21
413,-3.30
417,-3.39
421,-3.47
425,-3.56
430,-3.67
434,-3.78
438,-3.88
443,-3.98
447,-4.07
451,-4.16
456,-4.26
460,-4.35
465,-4.44
470,-4.53
474,-4.62
479,-4.68
484,-4.73
489,-4.79
494,-4.82
499,-4.86
504,-4.89
509,-4.91
514,-4.92
519,-4.93
524,-4.93
529,-4.91
535,-4.88
540,-4.84
545,-4.78
551,-4.73
556,-4.67
562,-4.60
568,-4.52
573,-4.42
579,-4.30
585,-4.17
591,-4.03
596,-3.89
602,-3.75
608,-3.59
615,-3.42
621,-3.26
627,-3.09
633,-2.92
639,-2.74
646,-2.56
652,-2.39
659,-2.21
665,-2.06
672,-1.91
679,-1.76
686,-1.61
692,-1.47
699,-1.33
706,-1.21
713,-1.09
721,-0.99
728,-0.89
735,-0.79
742,-0.70
750,-0.63
757,-0.57
765,-0.51
773,-0.46
780,-0.42
788,-0.40
796,-0.37
804,-0.36
812,-0.35
820,-0.34
828,-0.33
837,-0.33
845,-0.34
853,-0.35
862,-0.35
871,-0.36
879,-0.37
888,-0.37
897,-0.37
906,-0.36
915,-0.35
924,-0.34
933,-0.33
943,-0.30
952,-0.25
962,-0.21
971,-0.17
981,-0.11
991,-0.06
1001,0.01
1011,0.08
1021,0.17
1031,0.25
1041,0.33
1052,0.42
1062,0.50
1073,0.58
1084,0.67
1094,0.77
1105,0.86
1116,0.96
1128,1.03
1139,1.12
1150,1.21
1162,1.29
1173,1.37
1185,1.45
1197,1.51
1209,1.57
1221,1.64
1233,1.71
1246,1.78
1258,1.84
1271,1.90
1283,1.96
1296,2.02
1309,2.07
1322,2.11
1335,2.16
1349,2.19
1362,2.22
1376,2.23
1390,2.24
1404,2.26
1418,2.28
1432,2.29
1446,2.29
1461,2.27
1475,2.25
1490,2.24
1505,2.23
1520,2.20
1535,2.17
1550,2.13
1566,2.09
1582,2.03
1597,1.97
1613,1.90
1629,1.82
1646,1.73
1662,1.65
1679,1.56
1696,1.48
1713,1.40
1730,1.32
1747,1.23
1764,1.13
1782,1.03
1800,0.93
1818,0.83
1836,0.73
1854,0.62
1873,0.52
1892,0.41
1911,0.30
1930,0.21
1949,0.11
1969,0.01
1988,-0.09
2008,-0.18
2028,-0.26
2048,-0.33
2069,-0.39
2090,-0.44
2111,-0.51
2132,-0.56
2153,-0.61
2175,-0.66
2196,-0.71
2218,-0.76
2240,-0.81
2263,-0.86
2285,-0.93
2308,-0.99
2331,-1.05
2355,-1.10
2378,-1.18
2402,-1.25
2426,-1.32
2450,-1.40
2475,-1.47
2500,-1.54
2525,-1.63
2550,-1.73
2575,-1.82
2601,-1.92
2627,-2.01
2653,-2.11
2680,-2.22
2707,-2.33
2734,-2.43
2761,-2.53
2789,-2.64
2817,-2.75
2845,-2.87
2873,-2.98
2902,-3.13
2931,-3.28
2960,-3.43
2990,-3.60
3020,-3.77
3050,-3.95
3080,-4.15
3111,-4.35
3142,-4.57
3174,-4.80
3206,-5.01
3238,-5.20
3270,-5.36
3303,-5.46
3336,-5.49
3369,-5.44
3403,-5.31
3437,-5.08
3471,-4.76
3506,-4.32
3541,-3.78
3576,-3.15
3612,-2.41
3648,-1.62
3685,-0.78
3721,0.07
3759,0.93
3796,1.76
3834,2.55
3873,3.30
3911,3.99
3950,4.59
3990,5.13
4030,5.61
4070,6.01
4111,6.35
4152,6.62
4193,6.85
4235,7.04
4278,7.21
4321,7.33
4364,7.43
4407,7.49
4451,7.51
4496,7.48
4541,7.43
4586,7.34
4632,7.21
4679,7.05
4725,6.85
4773,6.62
4820,6.34
4868,6.06
4917,5.76
4966,5.43
5016,5.11
5066,4.81
5117,4.53
5168,4.29
5220,4.10
5272,3.96
5325,3.86
5378,3.80
5432,3.80
5486,3.84
5541,3.92
5596,4.02
5652,4.14
5709,4.28
5766,4.42
5823,4.55
5882,4.66
5940,4.76
6000,4.82
6060,4.85
6120,4.86
6182,4.83
6244,4.78
6306,4.70
6369,4.60
6433,4.47
6497,4.29
6562,4.08
6628,3.84
6694,3.56
6761,3.24
6828,2.86
6897,2.44
6966,1.98
7035,1.47
7106,0.93
7177,0.38
7249,-0.19
7321,-0.77
7394,-1.34
7468,-1.89
7543,-2.43
7618,-2.93
7694,-3.42
7771,-3.88
7849,-4.32
7928,-4.74
8007,-5.13
8087,-5.48
8168,-5.80
8250,-6.09
8332,-6.37
8415,-6.60
8499,-6.79
8584,-6.94
8670,-7.06
8757,-7.14
8845,-7.18
8933,-7.19
9022,-7.16
9113,-7.10
9204,-7.01
9296,-6.92
9389,-6.82
9483,-6.72
9577,-6.62
9673,-6.51
9770,-6.41
9868,-6.30
9966,-6.20
10066,-6.11
10167,-6.05
10268,-5.99
10371,-5.94
10475,-5.92
10579,-5.93
10685,-5.94
10792,-5.97
10900,-6.02
11009,-6.07
11119,-6.12
11230,-6.18
11343,-6.21
11456,-6.22
11571,-6.18
11686,-6.10
11803,-5.99
11921,-5.84
12040,-5.66
12161,-5.44
12282,-5.20
12405,-4.94
12529,-4.65
12655,-4.34
12781,-4.02
12909,-3.70
13038,-3.39
13168,-3.10
13300,-2.82
13433,-2.57
13567,-2.33
13703,-2.11
13840,-1.90
13978,-1.72
14118,-1.56
14259,-1.44
14402,-1.36
14546,-1.32
14692,-1.32
14838,-1.35
14987,-1.43
15137,-1.55
15288,-1.72
15441,-1.94
15595,-2.19
15751,-2.50
15909,-2.87
16068,-3.27
16229,-3.73
16391,-4.23
16555,-4.78
16720,-5.36
16888,-5.99
17056,-6.66
17227,-7.37
17399,-8.11
17573,-8.86
17749,-9.61
17926,-10.35
18106,-11.08
18287,-11.75
18470,-12.40
18654,-13.04
18841,-13.67
19029,-14.28
19220,-14.89
19412,-15.48
19606,-16.06
19802,-16.63
20000,-17.19
