frequency,raw
20.00,7.72
20.20,7.66
20.40,7.60
20.61,7.54
20.81,7.47
21.02,7.41
21.23,7.35
21.44,7.29
21.66,7.23
21.87,7.17
22.09,7.11
22.31,7.06
22.54,7.00
22.76,6.94
22.99,6.88
23.22,6.82
23.45,6.77
23.69,6.72
23.92,6.66
24.16,6.61
24.40,6.56
24.65,6.50
24.89,6.45
25.14,6.39
25.39,6.33
25.65,6.28
25.91,6.22
26.16,6.16
26.43,6.10
26.69,6.04
26.96,5.98
27.23,5.92
27.50,5.87
27.77,5.82
28.05,5.77
28.33,5.72
28.62,5.67
28.90,5.61
29.19,5.56
29.48,5.50
29.78,5.44
30.08,5.38
30.38,5.33
30.68,5.28
30.99,5.22
31.30,5.17
31.61,5.12
31.93,5.06
32.24,5.01
32.57,4.95
32.89,4.90
33.22,4.85
33.55,4.79
33.89,4.73
34.23,4.67
34.57,4.61
34.92,4.55
35.27,4.48
35.62,4.41
35.97,4.34
36.33,4.26
36.70,4.19
37.06,4.11
37.43,4.04
37.81,3.97
38.19,3.90
38.57,3.83
38.95,3.76
39.34,3.70
39.74,3.63
40.14,3.56
40.54,3.50
40.94,3.44
41.35,3.39
41.76,3.34
42.18,3.29
42.60,3.24
43.03,3.17
43.46,3.09
43.90,3.00
44.33,2.90
44.78,2.83
45.23,2.76
45.68,2.70
46.13,2.64
46.60,2.58
47.06,2.52
47.53,2.47
48.01,2.42
48.49,2.35
48.97,2.28
49.46,2.19
49.96,2.11
50.46,2.05
50.96,1.99
51.47,1.93
51.99,1.86
52.51,1.79
53.03,1.72
53.56,1.66
54.10,1.59
54.64,1.52
55.18,1.45
55.74,1.39
56.29,1.33
56.86,1.27
57.42,1.20
58.00,1.13
58.58,1.09
59.16,1.05
59.76,0.98
60.35,0.90
60.96,0.81
61.57,0.73
62.18,0.67
62.80,0.59
63.43,0.53
64.07,0.47
64.71,0.41
65.35,0.34
66.01,0.27
66.67,0.21
67.33,0.16
68.01,0.11
68.69,0.06
69.37,0.01
70.07,-0.03
70.77,-0.09
71.48,-0.14
72.19,-0.18
72.91,-0.20
73.64,-0.25
74.38,-0.27
75.12,-0.28
75.87,-0.32
76.63,-0.33
77.40,-0.31
78.17,-0.33
78.95,-0.34
79.74,-0.31
80.54,-0.29
81.35,-0.27
82.16,-0.26
82.98,-0.22
83.81,-0.16
84.65,-0.16
85.50,-0.11
86.35,-0.02
87.22,0.04
88.09,0.09
88.97,0.17
89.86,0.28
90.76,0.33
91.66,0.40
92.58,0.49
93.51,0.62
94.44,0.72
95.39,0.80
96.34,0.91
97.30,1.05
98.28,1.18
99.26,1.29
100.25,1.39
101.25,1.50
102.27,1.64
103.29,1.77
104.32,1.87
105.37,1.95
106.42,2.06
107.48,2.23
108.56,2.30
109.64,2.38
110.74,2.46
111.85,2.57
112.97,2.65
114.10,2.72
115.24,2.78
116.39,2.86
117.55,2.93
118.73,2.94
119.92,2.92
121.12,2.96
122.33,3.03
123.55,3.04
124.79,3.03
126.03,3.02
127.29,3.01
128.57,2.99
129.85,2.96
131.15,2.93
132.46,2.89
133.79,2.84
135.12,2.78
136.48,2.71
137.84,2.63
139.22,2.55
140.61,2.47
142.02,2.38
143.44,2.29
144.87,2.20
146.32,2.09
147.78,1.99
149.26,1.88
150.75,1.77
152.26,1.66
153.78,1.53
155.32,1.41
156.88,1.30
158.44,1.18
160.03,1.07
161.63,0.97
163.24,0.86
164.88,0.76
166.53,0.66
168.19,0.55
169.87,0.44
171.57,0.34
173.29,0.25
175.02,0.16
176.77,0.07
178.54,-0.03
180.32,-0.12
182.13,-0.21
183.95,-0.30
185.79,-0.38
187.65,-0.47
189.52,-0.56
191.42,-0.64
193.33,-0.72
195.27,-0.80
197.22,-0.87
199.19,-0.94
201.18,-1.00
203.19,-1.06
205.23,-1.10
207.28,-1.15
209.35,-1.21
211.44,-1.26
213.56,-1.31
215.69,-1.36
217.85,-1.42
220.03,-1.47
222.23,-1.53
224.45,-1.59
226.70,-1.65
228.96,-1.72
231.25,-1.77
233.57,-1.82
235.90,-1.87
238.26,-1.95
240.64,-2.01
243.05,-1.99
245.48,-2.02
247.93,-2.05
250.41,-2.08
252.92,-2.12
255.45,-2.16
258.00,-2.20
260.58,-2.24
263.19,-2.28
265.82,-2.33
268.48,-2.37
271.16,-2.42
273.87,-2.46
276.61,-2.51
279.38,-2.56
282.17,-2.61
284.99,-2.65
287.84,-2.70
290.72,-2.74
293.63,-2.79
296.57,-2.83
299.53,-2.87
302.53,-2.92
305.55,-2.96
308.61,-3.00
311.69,-3.04
314.81,-3.08
317.96,-3.12
321.14,-3.16
324.35,-3.19
327.59,-3.23
330.87,-3.26
334.18,-3.29
337.52,-3.30
340.90,-3.31
344.30,-3.31
347.75,-3.33
351.23,-3.35
354.74,-3.38
358.28,-3.39
361.87,-3.38
365.49,-3.36
369.14,-3.35
372.83,-3.36
376.56,-3.38
380.33,-3.40
384.13,-3.43
387.97,-3.45
391.85,-3.47
395.77,-3.49
399.73,-3.50
403.72,-3.51
407.76,-3.53
411.84,-3.54
415.96,-3.54
420.12,-3.54
424.32,-3.55
428.56,-3.55
432.85,-3.55
437.18,-3.55
441.55,-3.54
445.96,-3.54
450.42,-3.53
454.93,-3.51
459.48,-3.50
464.07,-3.48
468.71,-3.46
473.40,-3.43
478.13,-3.41
482.91,-3.38
487.74,-3.36
492.62,-3.33
497.55,-3.31
502.52,-3.28
507.55,-3.26
512.62,-3.23
517.75,-3.20
522.93,-3.17
528.16,-3.14
533.44,-3.11
538.77,-3.08
544.16,-3.04
549.60,-3.01
555.10,-2.98
560.65,-2.94
566.25,-2.90
571.92,-2.87
577.64,-2.83
583.41,-2.80
589.25,-2.76
595.14,-2.72
601.09,-2.68
607.10,-2.63
613.17,-2.59
619.30,-2.55
625.50,-2.50
631.75,-2.46
638.07,-2.41
644.45,-2.37
650.89,-2.31
657.40,-2.25
663.98,-2.20
670.62,-2.18
677.32,-2.13
684.10,-2.08
690.94,-2.03
697.85,-1.97
704.83,-1.92
711.87,-1.87
718.99,-1.83
726.18,-1.78
733.44,-1.73
740.78,-1.69
748.19,-1.65
755.67,-1.60
763.23,-1.56
770.86,-1.51
778.57,-1.46
786.35,-1.42
794.22,-1.37
802.16,-1.32
810.18,-1.27
818.28,-1.22
826.46,-1.17
834.73,-1.12
843.08,-1.07
851.51,-1.03
860.02,-0.97
868.62,-0.92
877.31,-0.86
886.08,-0.81
894.94,-0.78
903.89,-0.73
912.93,-0.66
922.06,-0.58
931.28,-0.50
940.59,-0.43
950.00,-0.36
959.50,-0.29
969.09,-0.22
978.78,-0.15
988.57,-0.08
998.46,-0.01
1008.44,0.06
1018.53,0.13
1028.71,0.20
1039.00,0.26
1049.39,0.33
1059.88,0.40
1070.48,0.46
1081.19,0.51
1092.00,0.57
1102.92,0.62
1113.95,0.67
1125.09,0.71
1136.34,0.75
1147.70,0.77
1159.18,0.79
1170.77,0.81
1182.48,0.84
1194.30,0.88
1206.25,0.92
1218.31,0.97
1230.49,1.01
1242.80,1.04
1255.22,1.05
1267.78,1.05
1280.45,1.04
1293.26,1.04
1306.19,1.03
1319.25,1.04
1332.45,1.05
1345.77,1.05
1359.23,1.06
1372.82,1.05
1386.55,1.04
1400.41,1.02
1414.42,1.00
1428.56,0.97
1442.85,0.97
1457.28,0.97
1471.85,0.96
1486.57,0.94
1501.43,0.92
1516.45,0.91
1531.61,0.89
1546.93,0.87
1562.40,0.85
1578.02,0.84
1593.80,0.82
1609.74,0.81
1625.84,0.79
1642.10,0.78
1658.52,0.76
1675.10,0.74
1691.85,0.72
1708.77,0.70
1725.86,0.68
1743.12,0.67
1760.55,0.65
1778.15,0.65
1795.94,0.64
1813.90,0.64
1832.03,0.66
1850.36,0.68
1868.86,0.70
1887.55,0.74
1906.42,0.80
1925.49,0.86
1944.74,0.95
1964.19,1.04
1983.83,1.15
2003.67,1.27
2023.71,1.41
2043.94,1.56
2064.38,1.72
2085.03,1.90
2105.88,2.07
2126.94,2.26
2148.20,2.45
2169.69,2.65
2191.38,2.85
2213.30,3.05
2235.43,3.25
2257.78,3.47
2280.36,3.76
2303.17,4.11
2326.20,4.48
2349.46,4.84
2372.95,5.21
2396.68,5.59
2420.65,5.98
2444.86,6.37
2469.31,6.75
2494.00,7.11
2518.94,7.43
2544.13,7.73
2569.57,8.00
2595.27,8.24
2621.22,8.47
2647.43,8.64
2673.90,8.77
2700.64,8.89
2727.65,9.02
2754.93,9.21
2782.48,9.43
2810.30,9.62
2838.40,9.77
2866.79,9.86
2895.46,9.90
2924.41,9.90
2953.65,9.88
2983.19,9.84
3013.02,9.81
3043.15,9.78
3073.58,9.76
3104.32,9.74
3135.36,9.75
3166.72,9.77
3198.38,9.81
3230.37,9.88
3262.67,9.99
3295.30,10.13
3328.25,10.31
3361.53,10.49
3395.15,10.70
3429.10,10.92
3463.39,11.13
3498.03,11.34
3533.01,11.49
3568.34,11.59
3604.02,11.65
3640.06,11.62
3676.46,11.53
3713.22,11.38
3750.36,11.16
3787.86,10.85
3825.74,10.53
3864.00,10.16
3902.64,9.78
3941.66,9.39
3981.08,9.00
4020.89,8.61
4061.10,8.24
4101.71,7.87
4142.73,7.53
4184.15,7.20
4226.00,6.87
4268.26,6.52
4310.94,6.16
4354.05,5.83
4397.59,5.50
4441.56,5.16
4485.98,4.85
4530.84,4.56
4576.15,4.28
4621.91,4.01
4668.13,3.76
4714.81,3.52
4761.96,3.29
4809.58,3.04
4857.67,2.77
4906.25,2.48
4955.31,2.21
5004.87,1.99
5054.91,1.90
5105.46,1.92
5156.52,2.06
5208.08,2.37
5260.16,2.81
5312.77,3.32
5365.89,3.93
5419.55,4.56
5473.75,5.16
5528.49,5.70
5583.77,6.21
5639.61,6.55
5696.00,6.84
5752.96,6.95
5810.49,7.02
5868.60,6.95
5927.28,6.86
5986.56,6.72
6046.42,6.55
6106.89,6.37
6167.96,6.18
6229.64,6.02
6291.93,5.90
6354.85,5.79
6418.40,5.69
6482.58,5.58
6547.41,5.47
6612.88,5.35
6679.01,5.21
6745.80,5.09
6813.26,4.97
6881.39,4.86
6950.21,4.74
7019.71,4.61
7089.91,4.46
7160.81,4.25
7232.41,3.98
7304.74,3.61
7377.79,3.10
7451.56,2.63
7526.08,2.24
7601.34,1.97
7677.35,1.95
7754.13,2.03
7831.67,2.45
7909.98,2.85
7989.08,3.19
8068.98,3.56
8149.67,3.96
8231.16,4.38
8313.47,4.44
8396.61,4.22
8480.57,3.26
8565.38,1.47
8651.03,-0.77
8737.54,-3.40
8824.92,-5.25
8913.17,-5.33
9002.30,-4.74
9092.32,-3.36
9183.25,-1.93
9275.08,-0.58
9367.83,0.53
9461.51,1.26
9556.12,1.63
9651.68,1.62
9748.20,1.28
9845.68,0.57
9944.14,-0.25
10043.58,-1.14
10144.02,-2.04
10245.46,-2.90
10347.91,-3.77
10451.39,-4.63
10555.91,-5.30
10661.46,-5.68
10768.08,-5.81
10875.76,-5.72
10984.52,-5.65
11094.36,-5.62
11205.31,-5.63
11317.36,-5.59
11430.53,-5.53
11544.84,-5.52
11660.29,-5.59
11776.89,-5.66
11894.66,-5.72
12013.60,-5.78
12133.74,-6.70
12255.08,-8.41
12377.63,-10.42
12501.41,-11.70
12626.42,-10.62
12752.68,-9.81
12880.21,-9.12
13009.01,-8.47
13139.10,-7.82
13270.49,-7.64
13403.20,-7.57
13537.23,-7.75
13672.60,-7.85
13809.33,-7.88
13947.42,-8.11
14086.90,-8.41
14227.77,-8.76
14370.04,-8.52
14513.74,-7.62
14658.88,-6.24
14805.47,-5.24
14953.52,-4.84
15103.06,-4.75
15254.09,-4.78
15406.63,-4.63
15560.70,-4.24
15716.30,-3.46
15873.47,-2.37
16032.20,-1.16
16192.52,0.15
16354.45,1.19
16517.99,1.89
16683.17,1.05
16850.01,-0.52
17018.51,-2.54
17188.69,-4.25
17360.58,-5.59
17534.18,-6.56
17709.53,-6.88
17886.62,-7.11
18065.49,-7.69
18246.14,-8.93
18428.60,-10.54
18612.89,-11.85
18799.02,-12.87
18987.01,-13.62
19176.88,-14.52
19368.65,-16.07
19562.33,-18.68
19757.96,-22.65
19955.54,-26.62
