frequency,raw
20.00,2.64
20.20,2.67
20.40,2.70
20.61,2.73
20.81,2.75
21.02,2.78
21.23,2.81
21.44,2.84
21.66,2.87
21.87,2.90
22.09,2.92
22.31,2.94
22.54,2.96
22.76,2.99
22.99,3.01
23.22,3.04
23.45,3.08
23.69,3.12
23.92,3.17
24.16,3.21
24.40,3.24
24.65,3.27
24.89,3.29
25.14,3.30
25.39,3.31
25.65,3.32
25.91,3.32
26.16,3.33
26.43,3.35
26.69,3.37
26.96,3.38
27.23,3.40
27.50,3.42
27.77,3.44
28.05,3.46
28.33,3.48
28.62,3.50
28.90,3.53
29.19,3.55
29.48,3.57
29.78,3.58
30.08,3.59
30.38,3.60
30.68,3.61
30.99,3.62
31.30,3.63
31.61,3.64
31.93,3.65
32.24,3.66
32.57,3.67
32.89,3.69
33.22,3.71
33.55,3.72
33.89,3.73
34.23,3.74
34.57,3.75
34.92,3.75
35.27,3.76
35.62,3.77
35.97,3.77
36.33,3.78
36.70,3.79
37.06,3.80
37.43,3.81
37.81,3.81
38.19,3.82
38.57,3.83
38.95,3.84
39.34,3.84
39.74,3.85
40.14,3.86
40.54,3.87
40.94,3.88
41.35,3.89
41.76,3.89
42.18,3.89
42.60,3.90
43.03,3.90
43.46,3.90
43.90,3.89
44.33,3.89
44.78,3.89
45.23,3.90
45.68,3.90
46.13,3.91
46.60,3.91
47.06,3.91
47.53,3.90
48.01,3.88
48.49,3.88
48.97,3.87
49.46,3.87
49.96,3.86
50.46,3.85
50.96,3.83
51.47,3.82
51.99,3.82
52.51,3.81
53.03,3.80
53.56,3.79
54.10,3.78
54.64,3.77
55.18,3.77
55.74,3.76
56.29,3.74
56.86,3.71
57.42,3.69
58.00,3.67
58.58,3.69
59.16,3.70
59.76,3.70
60.35,3.68
60.96,3.63
61.57,3.58
62.18,3.56
62.80,3.55
63.43,3.54
64.07,3.53
64.71,3.51
65.35,3.49
66.01,3.47
66.67,3.46
67.33,3.44
68.01,3.43
68.69,3.42
69.37,3.41
70.07,3.39
70.77,3.38
71.48,3.38
72.19,3.37
72.91,3.37
73.64,3.36
74.38,3.35
75.12,3.35
75.87,3.35
76.63,3.35
77.40,3.36
78.17,3.37
78.95,3.38
79.74,3.38
80.54,3.39
81.35,3.40
82.16,3.42
82.98,3.44
83.81,3.45
84.65,3.47
85.50,3.49
86.35,3.51
87.22,3.53
88.09,3.55
88.97,3.57
89.86,3.59
90.76,3.62
91.66,3.64
92.58,3.65
93.51,3.68
94.44,3.71
95.39,3.73
96.34,3.76
97.30,3.77
98.28,3.80
99.26,3.83
100.25,3.85
101.25,3.87
102.27,3.89
103.29,3.91
104.32,3.92
105.37,3.93
106.42,3.94
107.48,3.95
108.56,3.95
109.64,3.94
110.74,3.93
111.85,3.91
112.97,3.88
114.10,3.84
115.24,3.80
116.39,3.78
117.55,3.75
118.73,3.73
119.92,3.71
121.12,3.73
122.33,3.78
123.55,3.78
124.79,3.79
126.03,3.80
127.29,3.81
128.57,3.82
129.85,3.83
131.15,3.84
132.46,3.84
133.79,3.84
135.12,3.84
136.48,3.83
137.84,3.82
139.22,3.82
140.61,3.81
142.02,3.80
143.44,3.79
144.87,3.77
146.32,3.75
147.78,3.74
149.26,3.72
150.75,3.70
152.26,3.68
153.78,3.66
155.32,3.63
156.88,3.61
158.44,3.57
160.03,3.54
161.63,3.50
163.24,3.46
164.88,3.41
166.53,3.36
168.19,3.30
169.87,3.24
171.57,3.20
173.29,3.17
175.02,3.15
176.77,3.13
178.54,3.10
180.32,3.08
182.13,3.06
183.95,3.04
185.79,3.00
187.65,2.97
189.52,2.94
191.42,2.90
193.33,2.87
195.27,2.83
197.22,2.79
199.19,2.75
201.18,2.71
203.19,2.67
205.23,2.63
207.28,2.59
209.35,2.54
211.44,2.50
213.56,2.46
215.69,2.41
217.85,2.36
220.03,2.31
222.23,2.26
224.45,2.21
226.70,2.16
228.96,2.12
231.25,2.07
233.57,2.02
235.90,1.97
238.26,1.88
240.64,1.81
243.05,1.82
245.48,1.77
247.93,1.72
250.41,1.67
252.92,1.62
255.45,1.57
258.00,1.52
260.58,1.48
263.19,1.44
265.82,1.41
268.48,1.37
271.16,1.34
273.87,1.32
276.61,1.30
279.38,1.28
282.17,1.28
284.99,1.27
287.84,1.26
290.72,1.25
293.63,1.23
296.57,1.23
299.53,1.22
302.53,1.18
305.55,1.15
308.61,1.12
311.69,1.08
314.81,1.06
317.96,1.01
321.14,0.97
324.35,0.92
327.59,0.88
330.87,0.84
334.18,0.79
337.52,0.74
340.90,0.71
344.30,0.70
347.75,0.69
351.23,0.66
354.74,0.63
358.28,0.61
361.87,0.59
365.49,0.56
369.14,0.53
372.83,0.52
376.56,0.52
380.33,0.54
384.13,0.53
387.97,0.51
391.85,0.48
395.77,0.45
399.73,0.43
403.72,0.41
407.76,0.39
411.84,0.37
415.96,0.35
420.12,0.32
424.32,0.28
428.56,0.25
432.85,0.21
437.18,0.17
441.55,0.13
445.96,0.09
450.42,0.07
454.93,0.05
459.48,0.03
464.07,0.02
468.71,0.01
473.40,0.01
478.13,0.00
482.91,-0.00
487.74,-0.02
492.62,-0.04
497.55,-0.06
502.52,-0.08
507.55,-0.10
512.62,-0.12
517.75,-0.14
522.93,-0.16
528.16,-0.18
533.44,-0.21
538.77,-0.23
544.16,-0.24
549.60,-0.26
555.10,-0.32
560.65,-0.39
566.25,-0.40
571.92,-0.39
577.64,-0.36
583.41,-0.35
589.25,-0.34
595.14,-0.32
601.09,-0.32
607.10,-0.34
613.17,-0.36
619.30,-0.37
625.50,-0.37
631.75,-0.37
638.07,-0.37
644.45,-0.39
650.89,-0.41
657.40,-0.42
663.98,-0.44
670.62,-0.44
677.32,-0.44
684.10,-0.44
690.94,-0.45
697.85,-0.44
704.83,-0.45
711.87,-0.46
718.99,-0.47
726.18,-0.47
733.44,-0.46
740.78,-0.46
748.19,-0.46
755.67,-0.47
763.23,-0.48
770.86,-0.47
778.57,-0.47
786.35,-0.47
794.22,-0.46
802.16,-0.46
810.18,-0.45
818.28,-0.45
826.46,-0.44
834.73,-0.43
843.08,-0.43
851.51,-0.45
860.02,-0.42
868.62,-0.40
877.31,-0.37
886.08,-0.34
894.94,-0.30
903.89,-0.28
912.93,-0.26
922.06,-0.23
931.28,-0.20
940.59,-0.18
950.00,-0.16
959.50,-0.12
969.09,-0.09
978.78,-0.08
988.57,-0.06
998.46,-0.01
1008.44,0.04
1018.53,0.09
1028.71,0.15
1039.00,0.19
1049.39,0.21
1059.88,0.23
1070.48,0.25
1081.19,0.27
1092.00,0.29
1102.92,0.36
1113.95,0.45
1125.09,0.52
1136.34,0.57
1147.70,0.60
1159.18,0.66
1170.77,0.71
1182.48,0.70
1194.30,0.72
1206.25,0.75
1218.31,0.83
1230.49,0.91
1242.80,0.98
1255.22,0.98
1267.78,1.01
1280.45,1.08
1293.26,1.10
1306.19,1.12
1319.25,1.17
1332.45,1.23
1345.77,1.28
1359.23,1.33
1372.82,1.37
1386.55,1.42
1400.41,1.48
1414.42,1.53
1428.56,1.58
1442.85,1.63
1457.28,1.70
1471.85,1.79
1486.57,1.82
1501.43,1.84
1516.45,1.94
1531.61,2.03
1546.93,2.11
1562.40,2.18
1578.02,2.25
1593.80,2.32
1609.74,2.43
1625.84,2.55
1642.10,2.59
1658.52,2.64
1675.10,2.72
1691.85,2.81
1708.77,2.90
1725.86,2.99
1743.12,3.15
1760.55,3.23
1778.15,3.27
1795.94,3.37
1813.90,3.48
1832.03,3.60
1850.36,3.74
1868.86,3.86
1887.55,3.94
1906.42,4.01
1925.49,4.14
1944.74,4.21
1964.19,4.48
1983.83,4.70
2003.67,4.79
2023.71,5.00
2043.94,5.14
2064.38,5.28
2085.03,5.55
2105.88,5.79
2126.94,6.00
2148.20,6.19
2169.69,6.42
2191.38,6.67
2213.30,6.91
2235.43,7.11
2257.78,7.41
2280.36,7.67
2303.17,7.87
2326.20,8.12
2349.46,8.33
2372.95,8.54
2396.68,8.75
2420.65,8.94
2444.86,9.13
2469.31,9.32
2494.00,9.53
2518.94,9.72
2544.13,9.89
2569.57,10.04
2595.27,10.14
2621.22,10.22
2647.43,10.30
2673.90,10.41
2700.64,10.49
2727.65,10.51
2754.93,10.53
2782.48,10.52
2810.30,10.50
2838.40,10.46
2866.79,10.39
2895.46,10.28
2924.41,10.18
2953.65,10.07
2983.19,9.93
3013.02,9.77
3043.15,9.58
3073.58,9.35
3104.32,9.18
3135.36,8.96
3166.72,8.71
3198.38,8.42
3230.37,8.13
3262.67,7.84
3295.30,7.53
3328.25,7.21
3361.53,6.89
3395.15,6.57
3429.10,6.29
3463.39,6.00
3498.03,5.70
3533.01,5.41
3568.34,5.11
3604.02,4.82
3640.06,4.52
3676.46,4.24
3713.22,4.03
3750.36,3.88
3787.86,3.75
3825.74,3.62
3864.00,3.50
3902.64,3.42
3941.66,3.34
3981.08,3.28
4020.89,3.23
4061.10,3.18
4101.71,3.15
4142.73,3.08
4184.15,2.98
4226.00,2.81
4268.26,2.63
4310.94,2.43
4354.05,2.23
4397.59,2.02
4441.56,1.81
4485.98,1.63
4530.84,1.45
4576.15,1.30
4621.91,1.15
4668.13,1.03
4714.81,0.92
4761.96,0.82
4809.58,0.72
4857.67,0.66
4906.25,0.61
4955.31,0.57
5004.87,0.55
5054.91,0.56
5105.46,0.58
5156.52,0.63
5208.08,0.73
5260.16,0.85
5312.77,1.00
5365.89,1.19
5419.55,1.41
5473.75,1.66
5528.49,1.94
5583.77,2.22
5639.61,2.55
5696.00,2.90
5752.96,3.28
5810.49,3.65
5868.60,4.02
5927.28,4.38
5986.56,4.72
6046.42,4.98
6106.89,5.15
6167.96,5.21
6229.64,5.17
6291.93,5.00
6354.85,4.73
6418.40,4.43
6482.58,4.08
6547.41,3.70
6612.88,3.32
6679.01,2.93
6745.80,2.56
6813.26,2.19
6881.39,1.80
6950.21,1.42
7019.71,1.06
7089.91,0.70
7160.81,0.33
7232.41,-0.01
7304.74,-0.31
7377.79,-0.47
7451.56,-0.51
7526.08,-0.41
7601.34,-0.12
7677.35,0.40
7754.13,1.02
7831.67,1.88
7909.98,2.81
7989.08,3.82
8068.98,4.97
8149.67,6.13
8231.16,7.29
8313.47,7.81
8396.61,7.83
8480.57,6.63
8565.38,4.83
8651.03,2.83
8737.54,0.80
8824.92,-1.07
8913.17,-2.71
9002.30,-4.25
9092.32,-5.31
9183.25,-5.90
9275.08,-6.12
9367.83,-5.88
9461.51,-5.27
9556.12,-4.53
9651.68,-3.84
9748.20,-3.34
9845.68,-3.32
9944.14,-3.46
10043.58,-3.70
10144.02,-3.96
10245.46,-4.19
10347.91,-4.40
10451.39,-4.60
10555.91,-4.81
10661.46,-5.00
10768.08,-5.12
10875.76,-5.06
10984.52,-4.77
11094.36,-4.32
11205.31,-3.66
11317.36,-2.73
11430.53,-1.72
11544.84,-0.58
11660.29,0.57
11776.89,1.61
11894.66,2.04
12013.60,2.34
12133.74,1.88
12255.08,0.63
12377.63,-0.98
12501.41,-2.61
12626.42,-4.18
12752.68,-5.65
12880.21,-7.08
13009.01,-8.52
13139.10,-9.95
13270.49,-11.25
13403.20,-12.44
13537.23,-12.91
13672.60,-12.78
13809.33,-12.08
13947.42,-10.57
14086.90,-8.97
14227.77,-7.31
14370.04,-5.88
14513.74,-4.86
14658.88,-5.47
14805.47,-6.34
14953.52,-7.62
15103.06,-8.75
15254.09,-9.80
15406.63,-10.45
15560.70,-10.82
15716.30,-10.78
15873.47,-9.77
16032.20,-8.25
16192.52,-5.75
16354.45,-4.71
16517.99,-4.73
16683.17,-6.92
16850.01,-8.93
17018.51,-10.74
17188.69,-11.90
17360.58,-12.87
17534.18,-13.72
17709.53,-14.51
17886.62,-13.84
18065.49,-12.67
18246.14,-11.35
18428.60,-10.99
18612.89,-11.21
18799.02,-12.16
18987.01,-14.16
19176.88,-17.24
19368.65,-20.34
19562.33,-22.77
19757.96,-23.85
19955.54,-24.94
