frequency,raw
20.00,-12.96
20.20,-12.81
20.40,-12.66
20.61,-12.51
20.81,-12.38
21.02,-12.25
21.23,-12.13
21.44,-12.00
21.66,-11.88
21.87,-11.75
22.09,-11.62
22.31,-11.49
22.54,-11.36
22.76,-11.23
22.99,-11.10
23.22,-10.97
23.45,-10.84
23.69,-10.71
23.92,-10.57
24.16,-10.43
24.40,-10.28
24.65,-10.13
24.89,-9.97
25.14,-9.80
25.39,-9.63
25.65,-9.48
25.91,-9.33
26.16,-9.20
26.43,-9.09
26.69,-8.99
26.96,-8.89
27.23,-8.77
27.50,-8.62
27.77,-8.44
28.05,-8.23
28.33,-8.03
28.62,-7.83
28.90,-7.66
29.19,-7.53
29.48,-7.41
29.78,-7.31
30.08,-7.21
30.38,-7.10
30.68,-6.99
30.99,-6.86
31.30,-6.74
31.61,-6.62
31.93,-6.50
32.24,-6.37
32.57,-6.23
32.89,-6.08
33.22,-5.94
33.55,-5.79
33.89,-5.65
34.23,-5.50
34.57,-5.35
34.92,-5.19
35.27,-5.05
35.62,-4.91
35.97,-4.79
36.33,-4.69
36.70,-4.59
37.06,-4.47
37.43,-4.35
37.81,-4.22
38.19,-4.09
38.57,-3.97
38.95,-3.84
39.34,-3.71
39.74,-3.56
40.14,-3.41
40.54,-3.26
40.94,-3.14
41.35,-3.03
41.76,-2.93
42.18,-2.82
42.60,-2.72
43.03,-2.61
43.46,-2.50
43.90,-2.39
44.33,-2.27
44.78,-2.15
45.23,-2.03
45.68,-1.91
46.13,-1.82
46.60,-1.72
47.06,-1.62
47.53,-1.51
48.01,-1.41
48.49,-1.31
48.97,-1.21
49.46,-1.10
49.96,-0.98
50.46,-0.88
50.96,-0.80
51.47,-0.74
51.99,-0.66
52.51,-0.57
53.03,-0.46
53.56,-0.38
54.10,-0.29
54.64,-0.21
55.18,-0.11
55.74,-0.02
56.29,0.07
56.86,0.15
57.42,0.26
58.00,0.38
58.58,0.42
59.16,0.47
59.76,0.51
60.35,0.61
60.96,0.73
61.57,0.83
62.18,0.90
62.80,0.98
63.43,1.06
64.07,1.14
64.71,1.21
65.35,1.29
66.01,1.37
66.67,1.42
67.33,1.48
68.01,1.54
68.69,1.61
69.37,1.68
70.07,1.73
70.77,1.78
71.48,1.81
72.19,1.85
72.91,1.89
73.64,1.94
74.38,1.98
75.12,2.01
75.87,2.03
76.63,2.04
77.40,2.06
78.17,2.05
78.95,2.04
79.74,2.04
80.54,2.03
81.35,2.03
82.16,2.04
82.98,2.07
83.81,2.11
84.65,2.16
85.50,2.20
86.35,2.24
87.22,2.30
88.09,2.36
88.97,2.41
89.86,2.47
90.76,2.52
91.66,2.56
92.58,2.61
93.51,2.67
94.44,2.70
95.39,2.72
96.34,2.74
97.30,2.76
98.28,2.79
99.26,2.81
100.25,2.82
101.25,2.84
102.27,2.87
103.29,2.89
104.32,2.91
105.37,2.92
106.42,2.94
107.48,2.95
108.56,2.95
109.64,2.94
110.74,2.93
111.85,2.94
112.97,2.94
114.10,2.94
115.24,2.95
116.39,2.97
117.55,2.99
118.73,3.00
119.92,3.02
121.12,3.01
122.33,2.97
123.55,2.92
124.79,2.88
126.03,2.86
127.29,2.84
128.57,2.86
129.85,2.89
131.15,2.92
132.46,2.94
133.79,2.95
135.12,2.97
136.48,2.99
137.84,3.01
139.22,3.02
140.61,3.03
142.02,3.04
143.44,3.05
144.87,3.05
146.32,3.06
147.78,3.06
149.26,3.04
150.75,3.03
152.26,3.03
153.78,3.01
155.32,2.99
156.88,2.98
158.44,2.98
160.03,2.98
161.63,2.97
163.24,2.96
164.88,2.92
166.53,2.91
168.19,2.91
169.87,2.91
171.57,2.90
173.29,2.89
175.02,2.87
176.77,2.87
178.54,2.86
180.32,2.83
182.13,2.83
183.95,2.84
185.79,2.83
187.65,2.80
189.52,2.79
191.42,2.78
193.33,2.76
195.27,2.74
197.22,2.71
199.19,2.67
201.18,2.65
203.19,2.62
205.23,2.60
207.28,2.56
209.35,2.52
211.44,2.48
213.56,2.46
215.69,2.42
217.85,2.36
220.03,2.33
222.23,2.30
224.45,2.26
226.70,2.21
228.96,2.19
231.25,2.18
233.57,2.16
235.90,2.14
238.26,2.13
240.64,2.12
243.05,2.14
245.48,2.11
247.93,2.09
250.41,2.07
252.92,2.06
255.45,2.04
258.00,2.01
260.58,1.99
263.19,1.97
265.82,1.96
268.48,1.93
271.16,1.91
273.87,1.88
276.61,1.86
279.38,1.81
282.17,1.78
284.99,1.76
287.84,1.71
290.72,1.67
293.63,1.64
296.57,1.58
299.53,1.50
302.53,1.52
305.55,1.53
308.61,1.50
311.69,1.46
314.81,1.41
317.96,1.38
321.14,1.34
324.35,1.30
327.59,1.25
330.87,1.21
334.18,1.17
337.52,1.11
340.90,1.05
344.30,0.98
347.75,0.93
351.23,0.88
354.74,0.84
358.28,0.82
361.87,0.81
365.49,0.81
369.14,0.81
372.83,0.81
376.56,0.80
380.33,0.79
384.13,0.78
387.97,0.77
391.85,0.77
395.77,0.76
399.73,0.74
403.72,0.73
407.76,0.71
411.84,0.69
415.96,0.68
420.12,0.66
424.32,0.61
428.56,0.61
432.85,0.60
437.18,0.57
441.55,0.56
445.96,0.55
450.42,0.54
454.93,0.50
459.48,0.49
464.07,0.48
468.71,0.46
473.40,0.44
478.13,0.41
482.91,0.38
487.74,0.36
492.62,0.36
497.55,0.33
502.52,0.31
507.55,0.30
512.62,0.29
517.75,0.27
522.93,0.24
528.16,0.22
533.44,0.20
538.77,0.17
544.16,0.16
549.60,0.15
555.10,0.15
560.65,0.16
566.25,0.15
571.92,0.15
577.64,0.15
583.41,0.15
589.25,0.14
595.14,0.13
601.09,0.13
607.10,0.11
613.17,0.09
619.30,0.07
625.50,0.05
631.75,0.04
638.07,0.02
644.45,0.01
650.89,-0.00
657.40,-0.03
663.98,-0.04
670.62,-0.04
677.32,-0.06
684.10,-0.08
690.94,-0.09
697.85,-0.10
704.83,-0.12
711.87,-0.13
718.99,-0.13
726.18,-0.14
733.44,-0.15
740.78,-0.15
748.19,-0.16
755.67,-0.16
763.23,-0.16
770.86,-0.17
778.57,-0.18
786.35,-0.17
794.22,-0.17
802.16,-0.18
810.18,-0.18
818.28,-0.19
826.46,-0.18
834.73,-0.16
843.08,-0.16
851.51,-0.16
860.02,-0.16
868.62,-0.15
877.31,-0.15
886.08,-0.14
894.94,-0.13
903.89,-0.13
912.93,-0.16
922.06,-0.13
931.28,-0.10
940.59,-0.09
950.00,-0.10
959.50,-0.08
969.09,-0.06
978.78,-0.04
988.57,-0.03
998.46,-0.00
1008.44,0.01
1018.53,0.03
1028.71,0.07
1039.00,0.09
1049.39,0.12
1059.88,0.17
1070.48,0.20
1081.19,0.23
1092.00,0.26
1102.92,0.29
1113.95,0.30
1125.09,0.33
1136.34,0.37
1147.70,0.42
1159.18,0.46
1170.77,0.50
1182.48,0.54
1194.30,0.59
1206.25,0.64
1218.31,0.71
1230.49,0.76
1242.80,0.81
1255.22,0.88
1267.78,0.94
1280.45,0.94
1293.26,1.01
1306.19,1.07
1319.25,1.15
1332.45,1.24
1345.77,1.30
1359.23,1.35
1372.82,1.45
1386.55,1.55
1400.41,1.64
1414.42,1.71
1428.56,1.77
1442.85,1.87
1457.28,1.97
1471.85,2.09
1486.57,2.20
1501.43,2.31
1516.45,2.37
1531.61,2.45
1546.93,2.54
1562.40,2.66
1578.02,2.78
1593.80,2.90
1609.74,3.03
1625.84,3.18
1642.10,3.20
1658.52,3.32
1675.10,3.53
1691.85,3.64
1708.77,3.76
1725.86,3.87
1743.12,3.95
1760.55,4.02
1778.15,4.10
1795.94,4.27
1813.90,4.28
1832.03,4.33
1850.36,4.51
1868.86,4.60
1887.55,4.68
1906.42,4.79
1925.49,4.98
1944.74,4.98
1964.19,4.99
1983.83,5.12
2003.67,5.34
2023.71,5.34
2043.94,5.46
2064.38,5.60
2085.03,5.54
2105.88,5.57
2126.94,5.64
2148.20,5.78
2169.69,5.91
2191.38,5.88
2213.30,5.89
2235.43,6.04
2257.78,5.98
2280.36,5.99
2303.17,6.12
2326.20,6.12
2349.46,6.25
2372.95,6.32
2396.68,6.32
2420.65,6.40
2444.86,6.45
2469.31,6.46
2494.00,6.42
2518.94,6.43
2544.13,6.46
2569.57,6.49
2595.27,6.44
2621.22,6.35
2647.43,6.31
2673.90,6.46
2700.64,6.52
2727.65,6.44
2754.93,6.43
2782.48,6.45
2810.30,6.49
2838.40,6.58
2866.79,6.54
2895.46,6.43
2924.41,6.41
2953.65,6.39
2983.19,6.22
3013.02,6.14
3043.15,6.17
3073.58,6.12
3104.32,6.03
3135.36,6.09
3166.72,6.20
3198.38,6.32
3230.37,6.29
3262.67,6.26
3295.30,6.23
3328.25,6.16
3361.53,6.08
3395.15,5.98
3429.10,5.78
3463.39,5.61
3498.03,5.51
3533.01,5.29
3568.34,5.06
3604.02,4.84
3640.06,4.67
3676.46,4.45
3713.22,4.18
3750.36,3.84
3787.86,3.40
3825.74,2.95
3864.00,2.40
3902.64,2.10
3941.66,1.85
3981.08,1.63
4020.89,1.31
4061.10,0.86
4101.71,0.32
4142.73,-0.38
4184.15,-1.27
4226.00,-2.69
4268.26,-4.36
4310.94,-6.37
4354.05,-8.80
4397.59,-11.38
4441.56,-13.89
4485.98,-12.21
4530.84,-10.06
4576.15,-8.07
4621.91,-6.41
4668.13,-5.37
4714.81,-4.39
4761.96,-3.42
4809.58,-2.44
4857.67,-1.45
4906.25,-0.47
4955.31,0.50
5004.87,1.46
5054.91,2.29
5105.46,2.93
5156.52,3.41
5208.08,3.94
5260.16,4.29
5312.77,4.53
5365.89,4.61
5419.55,4.57
5473.75,4.45
5528.49,4.27
5583.77,4.01
5639.61,3.71
5696.00,3.38
5752.96,2.83
5810.49,2.20
5868.60,1.22
5927.28,0.19
5986.56,-0.89
6046.42,-1.96
6106.89,-2.81
6167.96,-3.20
6229.64,-3.18
6291.93,-3.00
6354.85,-2.85
6418.40,-2.69
6482.58,-2.48
6547.41,-2.21
6612.88,-1.91
6679.01,-1.55
6745.80,-1.14
6813.26,-0.78
6881.39,-0.73
6950.21,-0.73
7019.71,-0.76
7089.91,-0.80
7160.81,-0.95
7232.41,-1.03
7304.74,-0.98
7377.79,-0.87
7451.56,-0.68
7526.08,-0.39
7601.34,-0.00
7677.35,0.37
7754.13,0.73
7831.67,1.06
7909.98,1.34
7989.08,1.52
8068.98,1.50
8149.67,1.41
8231.16,1.26
8313.47,1.03
8396.61,0.78
8480.57,0.48
8565.38,0.17
8651.03,-0.10
8737.54,-0.33
8824.92,-0.50
8913.17,-0.73
9002.30,-0.98
9092.32,-1.42
9183.25,-2.12
9275.08,-3.04
9367.83,-4.27
9461.51,-5.57
9556.12,-6.90
9651.68,-8.33
9748.20,-9.92
9845.68,-12.26
9944.14,-14.80
10043.58,-17.46
10144.02,-20.13
10245.46,-19.79
10347.91,-18.51
10451.39,-16.46
10555.91,-14.94
10661.46,-13.60
10768.08,-12.41
10875.76,-11.22
10984.52,-9.94
11094.36,-8.68
11205.31,-7.51
11317.36,-6.41
11430.53,-5.40
11544.84,-4.65
11660.29,-4.13
11776.89,-3.77
11894.66,-3.84
12013.60,-3.96
12133.74,-3.86
12255.08,-3.54
12377.63,-3.13
12501.41,-2.90
12626.42,-3.13
12752.68,-3.89
12880.21,-5.36
13009.01,-7.19
13139.10,-9.01
13270.49,-10.96
13403.20,-12.93
13537.23,-15.12
13672.60,-15.57
13809.33,-14.49
13947.42,-12.86
14086.90,-11.39
14227.77,-10.01
14370.04,-8.90
14513.74,-8.10
14658.88,-7.63
14805.47,-7.28
14953.52,-7.11
15103.06,-7.01
15254.09,-6.94
15406.63,-6.89
15560.70,-6.82
15716.30,-6.69
15873.47,-6.25
16032.20,-5.62
16192.52,-4.62
16354.45,-3.95
16517.99,-3.66
16683.17,-4.86
16850.01,-6.41
17018.51,-8.15
17188.69,-9.42
17360.58,-10.11
17534.18,-10.30
17709.53,-9.82
17886.62,-9.26
18065.49,-8.81
18246.14,-8.56
18428.60,-8.70
18612.89,-9.20
18799.02,-10.07
18987.01,-11.33
19176.88,-13.04
19368.65,-15.05
19562.33,-17.37
19757.96,-20.00
19955.54,-22.62
