frequency,raw
20.00,-1.24
20.20,-1.15
20.40,-1.07
20.61,-0.99
20.81,-0.90
21.02,-0.82
21.23,-0.73
21.44,-0.64
21.66,-0.54
21.87,-0.45
22.09,-0.35
22.31,-0.26
22.54,-0.18
22.76,-0.09
22.99,-0.02
23.22,0.06
23.45,0.14
23.69,0.22
23.92,0.31
24.16,0.40
24.40,0.49
24.65,0.58
24.89,0.67
25.14,0.74
25.39,0.82
25.65,0.88
25.91,0.94
26.16,0.99
26.43,1.05
26.69,1.11
26.96,1.18
27.23,1.25
27.50,1.33
27.77,1.40
28.05,1.47
28.33,1.54
28.62,1.61
28.90,1.66
29.19,1.72
29.48,1.77
29.78,1.82
30.08,1.86
30.38,1.91
30.68,1.95
30.99,1.99
31.30,2.02
31.61,2.05
31.93,2.08
32.24,2.11
32.57,2.13
32.89,2.16
33.22,2.19
33.55,2.21
33.89,2.23
34.23,2.24
34.57,2.25
34.92,2.25
35.27,2.25
35.62,2.24
35.97,2.24
36.33,2.23
36.70,2.23
37.06,2.22
37.43,2.22
37.81,2.20
38.19,2.18
38.57,2.16
38.95,2.13
39.34,2.11
39.74,2.09
40.14,2.06
40.54,2.04
40.94,2.02
41.35,2.00
41.76,1.99
42.18,1.99
42.60,1.98
43.03,1.97
43.46,1.95
43.90,1.94
44.33,1.93
44.78,1.93
45.23,1.92
45.68,1.90
46.13,1.87
46.60,1.83
47.06,1.79
47.53,1.74
48.01,1.68
48.49,1.60
48.97,1.51
49.46,1.42
49.96,1.33
50.46,1.23
50.96,1.13
51.47,1.00
51.99,0.87
52.51,0.74
53.03,0.62
53.56,0.50
54.10,0.37
54.64,0.24
55.18,0.11
55.74,-0.02
56.29,-0.15
56.86,-0.28
57.42,-0.41
58.00,-0.53
58.58,-0.62
59.16,-0.71
59.76,-0.81
60.35,-0.90
60.96,-0.99
61.57,-1.06
62.18,-1.11
62.80,-1.17
63.43,-1.22
64.07,-1.26
64.71,-1.28
65.35,-1.29
66.01,-1.29
66.67,-1.29
67.33,-1.27
68.01,-1.23
68.69,-1.18
69.37,-1.12
70.07,-1.04
70.77,-0.94
71.48,-0.82
72.19,-0.69
72.91,-0.56
73.64,-0.41
74.38,-0.25
75.12,-0.07
75.87,0.11
76.63,0.30
77.40,0.50
78.17,0.70
78.95,0.90
79.74,1.11
80.54,1.33
81.35,1.54
82.16,1.77
82.98,2.00
83.81,2.22
84.65,2.46
85.50,2.69
86.35,2.91
87.22,3.14
88.09,3.35
88.97,3.57
89.86,3.79
90.76,3.99
91.66,4.19
92.58,4.37
93.51,4.54
94.44,4.71
95.39,4.88
96.34,5.03
97.30,5.17
98.28,5.30
99.26,5.42
100.25,5.54
101.25,5.64
102.27,5.73
103.29,5.80
104.32,5.87
105.37,5.92
106.42,5.96
107.48,6.00
108.56,6.03
109.64,6.05
110.74,6.05
111.85,6.05
112.97,6.05
114.10,6.03
115.24,6.00
116.39,5.96
117.55,5.92
118.73,5.85
119.92,5.78
121.12,5.71
122.33,5.63
123.55,5.54
124.79,5.45
126.03,5.35
127.29,5.24
128.57,5.13
129.85,5.02
131.15,4.91
132.46,4.79
133.79,4.67
135.12,4.55
136.48,4.43
137.84,4.30
139.22,4.17
140.61,4.03
142.02,3.90
143.44,3.76
144.87,3.63
146.32,3.49
147.78,3.35
149.26,3.21
150.75,3.07
152.26,2.93
153.78,2.79
155.32,2.65
156.88,2.51
158.44,2.37
160.03,2.23
161.63,2.09
163.24,1.95
164.88,1.81
166.53,1.66
168.19,1.52
169.87,1.38
171.57,1.24
173.29,1.10
175.02,0.96
176.77,0.82
178.54,0.68
180.32,0.53
182.13,0.39
183.95,0.25
185.79,0.11
187.65,-0.03
189.52,-0.17
191.42,-0.31
193.33,-0.46
195.27,-0.60
197.22,-0.75
199.19,-0.90
201.18,-1.05
203.19,-1.19
205.23,-1.30
207.28,-1.41
209.35,-1.51
211.44,-1.65
213.56,-1.79
215.69,-1.92
217.85,-2.04
220.03,-2.15
222.23,-2.25
224.45,-2.34
226.70,-2.43
228.96,-2.53
231.25,-2.63
233.57,-2.74
235.90,-2.85
238.26,-2.94
240.64,-3.05
243.05,-3.18
245.48,-3.28
247.93,-3.38
250.41,-3.49
252.92,-3.60
255.45,-3.71
258.00,-3.81
260.58,-3.92
263.19,-4.03
265.82,-4.14
268.48,-4.24
271.16,-4.35
273.87,-4.46
276.61,-4.57
279.38,-4.67
282.17,-4.78
284.99,-4.89
287.84,-4.99
290.72,-5.09
293.63,-5.19
296.57,-5.29
299.53,-5.39
302.53,-5.48
305.55,-5.56
308.61,-5.65
311.69,-5.74
314.81,-5.82
317.96,-5.91
321.14,-6.00
324.35,-6.09
327.59,-6.19
330.87,-6.29
334.18,-6.40
337.52,-6.52
340.90,-6.62
344.30,-6.68
347.75,-6.69
351.23,-6.71
354.74,-6.77
358.28,-6.79
361.87,-6.73
365.49,-6.63
369.14,-6.68
372.83,-6.76
376.56,-6.85
380.33,-6.93
384.13,-7.00
387.97,-7.06
391.85,-7.12
395.77,-7.17
399.73,-7.22
403.72,-7.25
407.76,-7.28
411.84,-7.31
415.96,-7.34
420.12,-7.35
424.32,-7.37
428.56,-7.38
432.85,-7.39
437.18,-7.40
441.55,-7.40
445.96,-7.40
450.42,-7.39
454.93,-7.39
459.48,-7.37
464.07,-7.36
468.71,-7.34
473.40,-7.32
478.13,-7.29
482.91,-7.26
487.74,-7.23
492.62,-7.19
497.55,-7.15
502.52,-7.10
507.55,-7.06
512.62,-7.01
517.75,-6.96
522.93,-6.91
528.16,-6.85
533.44,-6.79
538.77,-6.72
544.16,-6.66
549.60,-6.59
555.10,-6.52
560.65,-6.45
566.25,-6.38
571.92,-6.31
577.64,-6.23
583.41,-6.15
589.25,-6.07
595.14,-5.97
601.09,-5.88
607.10,-5.78
613.17,-5.68
619.30,-5.57
625.50,-5.47
631.75,-5.36
638.07,-5.25
644.45,-5.14
650.89,-5.02
657.40,-4.91
663.98,-4.78
670.62,-4.66
677.32,-4.54
684.10,-4.41
690.94,-4.27
697.85,-4.14
704.83,-4.00
711.87,-3.86
718.99,-3.72
726.18,-3.58
733.44,-3.44
740.78,-3.30
748.19,-3.16
755.67,-3.02
763.23,-2.89
770.86,-2.75
778.57,-2.62
786.35,-2.49
794.22,-2.36
802.16,-2.23
810.18,-2.11
818.28,-1.98
826.46,-1.86
834.73,-1.74
843.08,-1.62
851.51,-1.51
860.02,-1.40
868.62,-1.29
877.31,-1.18
886.08,-1.08
894.94,-0.98
903.89,-0.88
912.93,-0.78
922.06,-0.69
931.28,-0.60
940.59,-0.52
950.00,-0.44
959.50,-0.36
969.09,-0.28
978.78,-0.19
988.57,-0.10
998.46,-0.01
1008.44,0.07
1018.53,0.15
1028.71,0.22
1039.00,0.28
1049.39,0.34
1059.88,0.39
1070.48,0.44
1081.19,0.49
1092.00,0.54
1102.92,0.59
1113.95,0.64
1125.09,0.71
1136.34,0.80
1147.70,0.94
1159.18,1.09
1170.77,1.24
1182.48,1.33
1194.30,1.39
1206.25,1.46
1218.31,1.64
1230.49,1.81
1242.80,1.98
1255.22,2.11
1267.78,2.19
1280.45,2.23
1293.26,2.25
1306.19,2.27
1319.25,2.30
1332.45,2.36
1345.77,2.44
1359.23,2.54
1372.82,2.65
1386.55,2.77
1400.41,2.88
1414.42,2.97
1428.56,3.06
1442.85,3.13
1457.28,3.21
1471.85,3.28
1486.57,3.38
1501.43,3.48
1516.45,3.59
1531.61,3.70
1546.93,3.82
1562.40,3.98
1578.02,4.17
1593.80,4.42
1609.74,4.67
1625.84,4.92
1642.10,5.12
1658.52,5.28
1675.10,5.42
1691.85,5.54
1708.77,5.66
1725.86,5.78
1743.12,5.90
1760.55,6.04
1778.15,6.18
1795.94,6.32
1813.90,6.46
1832.03,6.59
1850.36,6.72
1868.86,6.84
1887.55,6.96
1906.42,7.08
1925.49,7.18
1944.74,7.29
1964.19,7.39
1983.83,7.48
2003.67,7.58
2023.71,7.66
2043.94,7.73
2064.38,7.80
2085.03,7.86
2105.88,7.91
2126.94,7.95
2148.20,7.97
2169.69,7.99
2191.38,8.00
2213.30,7.98
2235.43,7.96
2257.78,7.92
2280.36,7.86
2303.17,7.80
2326.20,7.72
2349.46,7.65
2372.95,7.58
2396.68,7.52
2420.65,7.49
2444.86,7.48
2469.31,7.49
2494.00,7.54
2518.94,7.63
2544.13,7.74
2569.57,7.93
2595.27,8.18
2621.22,8.49
2647.43,8.87
2673.90,9.31
2700.64,9.77
2727.65,10.24
2754.93,10.72
2782.48,11.16
2810.30,11.54
2838.40,11.84
2866.79,12.04
2895.46,12.18
2924.41,12.29
2953.65,12.41
2983.19,12.54
3013.02,12.63
3043.15,12.64
3073.58,12.54
3104.32,12.37
3135.36,12.14
3166.72,11.86
3198.38,11.54
3230.37,11.15
3262.67,10.74
3295.30,10.29
3328.25,9.82
3361.53,9.34
3395.15,8.86
3429.10,8.39
3463.39,7.92
3498.03,7.46
3533.01,6.98
3568.34,6.49
3604.02,6.01
3640.06,5.55
3676.46,5.16
3713.22,4.81
3750.36,4.52
3787.86,4.34
3825.74,4.17
3864.00,4.09
3902.64,4.03
3941.66,3.99
3981.08,3.96
4020.89,3.95
4061.10,3.95
4101.71,3.98
4142.73,4.06
4184.15,4.18
4226.00,4.42
4268.26,4.71
4310.94,5.09
4354.05,5.60
4397.59,6.18
4441.56,6.79
4485.98,7.31
4530.84,7.69
4576.15,7.88
4621.91,7.95
4668.13,7.86
4714.81,7.69
4761.96,7.50
4809.58,7.29
4857.67,7.08
4906.25,6.90
4955.31,6.74
5004.87,6.60
5054.91,6.49
5105.46,6.40
5156.52,6.34
5208.08,6.31
5260.16,6.32
5312.77,6.34
5365.89,6.38
5419.55,6.43
5473.75,6.46
5528.49,6.47
5583.77,6.41
5639.61,6.28
5696.00,6.13
5752.96,5.92
5810.49,5.71
5868.60,5.52
5927.28,5.31
5986.56,5.10
6046.42,4.90
6106.89,4.72
6167.96,4.54
6229.64,4.34
6291.93,4.16
6354.85,4.03
6418.40,3.91
6482.58,3.79
6547.41,3.63
6612.88,3.45
6679.01,3.24
6745.80,3.04
6813.26,2.87
6881.39,2.75
6950.21,2.67
7019.71,2.62
7089.91,2.61
7160.81,2.63
7232.41,2.67
7304.74,2.73
7377.79,2.85
7451.56,3.05
7526.08,3.35
7601.34,3.72
7677.35,4.15
7754.13,4.60
7831.67,5.16
7909.98,5.76
7989.08,6.43
8068.98,7.04
8149.67,7.46
8231.16,7.57
8313.47,6.94
8396.61,5.88
8480.57,4.02
8565.38,1.67
8651.03,-0.87
8737.54,-3.47
8824.92,-5.05
8913.17,-5.32
9002.30,-5.12
9092.32,-4.23
9183.25,-3.13
9275.08,-1.84
9367.83,-0.28
9461.51,1.17
9556.12,2.21
9651.68,2.75
9748.20,2.85
9845.68,2.53
9944.14,2.06
10043.58,1.51
10144.02,0.94
10245.46,0.42
10347.91,-0.05
10451.39,-0.45
10555.91,-0.70
10661.46,-0.95
10768.08,-1.19
10875.76,-1.41
10984.52,-1.35
11094.36,-1.10
11205.31,-0.58
11317.36,0.10
11430.53,0.75
11544.84,1.31
11660.29,1.78
11776.89,2.22
11894.66,2.61
12013.60,2.98
12133.74,3.10
12255.08,2.69
12377.63,1.82
12501.41,0.56
12626.42,-0.98
12752.68,-2.36
12880.21,-3.29
13009.01,-3.96
13139.10,-4.63
13270.49,-5.42
13403.20,-6.36
13537.23,-7.64
13672.60,-8.91
13809.33,-10.24
13947.42,-12.71
14086.90,-16.83
14227.77,-21.96
14370.04,-24.09
14513.74,-23.01
14658.88,-20.97
14805.47,-18.75
14953.52,-16.21
15103.06,-13.69
15254.09,-11.22
15406.63,-10.01
15560.70,-9.36
15716.30,-9.58
15873.47,-7.73
16032.20,-5.28
16192.52,-2.72
16354.45,-1.26
16517.99,-0.66
16683.17,-1.96
16850.01,-3.57
17018.51,-5.35
17188.69,-6.90
17360.58,-8.05
17534.18,-8.90
17709.53,-9.39
17886.62,-9.79
18065.49,-10.18
18246.14,-10.63
18428.60,-11.17
18612.89,-11.74
18799.02,-21.64
18987.01,-57.75
19176.88,-64.37
19368.65,-65.48
19562.33,-65.68
19757.96,-68.28
19955.54,-70.88
