frequency,raw
20.00,15.93
20.20,15.92
20.40,15.91
20.61,15.90
20.81,15.89
21.02,15.88
21.23,15.87
21.44,15.85
21.66,15.84
21.87,15.83
22.09,15.82
22.31,15.80
22.54,15.79
22.76,15.78
22.99,15.77
23.22,15.76
23.45,15.75
23.69,15.74
23.92,15.72
24.16,15.71
24.40,15.70
24.65,15.68
24.89,15.67
25.14,15.65
25.39,15.64
25.65,15.63
25.91,15.61
26.16,15.60
26.43,15.58
26.69,15.57
26.96,15.55
27.23,15.54
27.50,15.52
27.77,15.50
28.05,15.49
28.33,15.47
28.62,15.46
28.90,15.44
29.19,15.43
29.48,15.41
29.78,15.39
30.08,15.38
30.38,15.36
30.68,15.34
30.99,15.32
31.30,15.30
31.61,15.28
31.93,15.26
32.24,15.24
32.57,15.22
32.89,15.20
33.22,15.18
33.55,15.16
33.89,15.14
34.23,15.12
34.57,15.10
34.92,15.07
35.27,15.05
35.62,15.03
35.97,15.01
36.33,14.99
36.70,14.96
37.06,14.94
37.43,14.91
37.81,14.89
38.19,14.87
38.57,14.84
38.95,14.81
39.34,14.79
39.74,14.77
40.14,14.74
40.54,14.71
40.94,14.68
41.35,14.66
41.76,14.63
42.18,14.60
42.60,14.57
43.03,14.55
43.46,14.52
43.90,14.49
44.33,14.46
44.78,14.43
45.23,14.39
45.68,14.36
46.13,14.33
46.60,14.30
47.06,14.28
47.53,14.24
48.01,14.21
48.49,14.18
48.97,14.15
49.46,14.13
49.96,14.11
50.46,14.08
50.96,14.05
51.47,13.99
51.99,13.93
52.51,13.86
53.03,13.79
53.56,13.76
54.10,13.73
54.64,13.71
55.18,13.69
55.74,13.66
56.29,13.63
56.86,13.58
57.42,13.53
58.00,13.47
58.58,13.42
59.16,13.37
59.76,13.34
60.35,13.32
60.96,13.29
61.57,13.26
62.18,13.23
62.80,13.19
63.43,13.15
64.07,13.11
64.71,13.07
65.35,13.03
66.01,12.98
66.67,12.93
67.33,12.89
68.01,12.84
68.69,12.79
69.37,12.75
70.07,12.72
70.77,12.67
71.48,12.64
72.19,12.60
72.91,12.56
73.64,12.51
74.38,12.46
75.12,12.39
75.87,12.33
76.63,12.27
77.40,12.21
78.17,12.15
78.95,12.10
79.74,12.07
80.54,12.03
81.35,11.99
82.16,11.95
82.98,11.90
83.81,11.86
84.65,11.81
85.50,11.76
86.35,11.70
87.22,11.64
88.09,11.58
88.97,11.53
89.86,11.49
90.76,11.44
91.66,11.40
92.58,11.35
93.51,11.30
94.44,11.25
95.39,11.20
96.34,11.14
97.30,11.07
98.28,11.01
99.26,10.94
100.25,10.86
101.25,10.80
102.27,10.75
103.29,10.71
104.32,10.67
105.37,10.62
106.42,10.57
107.48,10.51
108.56,10.45
109.64,10.37
110.74,10.31
111.85,10.25
112.97,10.20
114.10,10.16
115.24,10.10
116.39,10.05
117.55,10.00
118.73,9.94
119.92,9.88
121.12,9.81
122.33,9.75
123.55,9.69
124.79,9.63
126.03,9.57
127.29,9.52
128.57,9.47
129.85,9.42
131.15,9.36
132.46,9.30
133.79,9.23
135.12,9.15
136.48,9.08
137.84,9.01
139.22,8.94
140.61,8.87
142.02,8.80
143.44,8.74
144.87,8.68
146.32,8.62
147.78,8.55
149.26,8.49
150.75,8.42
152.26,8.37
153.78,8.30
155.32,8.23
156.88,8.16
158.44,8.09
160.03,8.04
161.63,7.97
163.24,7.90
164.88,7.83
166.53,7.78
168.19,7.72
169.87,7.66
171.57,7.59
173.29,7.53
175.02,7.46
176.77,7.40
178.54,7.32
180.32,7.25
182.13,7.16
183.95,7.08
185.79,7.01
187.65,6.94
189.52,6.88
191.42,6.82
193.33,6.76
195.27,6.71
197.22,6.65
199.19,6.59
201.18,6.53
203.19,6.46
205.23,6.40
207.28,6.35
209.35,6.30
211.44,6.24
213.56,6.19
215.69,6.14
217.85,6.07
220.03,6.00
222.23,5.93
224.45,5.87
226.70,5.82
228.96,5.77
231.25,5.73
233.57,5.69
235.90,5.64
238.26,5.59
240.64,5.54
243.05,5.49
245.48,5.44
247.93,5.38
250.41,5.32
252.92,5.27
255.45,5.21
258.00,5.15
260.58,5.09
263.19,5.02
265.82,4.95
268.48,4.88
271.16,4.82
273.87,4.75
276.61,4.68
279.38,4.61
282.17,4.54
284.99,4.47
287.84,4.40
290.72,4.34
293.63,4.27
296.57,4.20
299.53,4.13
302.53,4.06
305.55,3.99
308.61,3.92
311.69,3.86
314.81,3.79
317.96,3.71
321.14,3.65
324.35,3.58
327.59,3.51
330.87,3.44
334.18,3.38
337.52,3.31
340.90,3.24
344.30,3.17
347.75,3.10
351.23,3.04
354.74,2.97
358.28,2.90
361.87,2.84
365.49,2.77
369.14,2.70
372.83,2.64
376.56,2.57
380.33,2.50
384.13,2.44
387.97,2.37
391.85,2.30
395.77,2.24
399.73,2.17
403.72,2.10
407.76,2.03
411.84,1.97
415.96,1.90
420.12,1.83
424.32,1.76
428.56,1.69
432.85,1.62
437.18,1.54
441.55,1.48
445.96,1.42
450.42,1.36
454.93,1.29
459.48,1.23
464.07,1.17
468.71,1.12
473.40,1.06
478.13,1.00
482.91,0.94
487.74,0.89
492.62,0.83
497.55,0.77
502.52,0.69
507.55,0.62
512.62,0.55
517.75,0.47
522.93,0.39
528.16,0.31
533.44,0.26
538.77,0.19
544.16,0.15
549.60,0.10
555.10,0.05
560.65,0.00
566.25,-0.06
571.92,-0.11
577.64,-0.17
583.41,-0.23
589.25,-0.29
595.14,-0.34
601.09,-0.39
607.10,-0.44
613.17,-0.49
619.30,-0.56
625.50,-0.63
631.75,-0.71
638.07,-0.77
644.45,-0.83
650.89,-0.88
657.40,-0.91
663.98,-0.95
670.62,-0.99
677.32,-1.05
684.10,-1.10
690.94,-1.15
697.85,-1.21
704.83,-1.26
711.87,-1.30
718.99,-1.33
726.18,-1.36
733.44,-1.39
740.78,-1.42
748.19,-1.47
755.67,-1.51
763.23,-1.55
770.86,-1.58
778.57,-1.60
786.35,-1.61
794.22,-1.60
802.16,-1.58
810.18,-1.56
818.28,-1.54
826.46,-1.51
834.73,-1.46
843.08,-1.42
851.51,-1.37
860.02,-1.31
868.62,-1.24
877.31,-1.17
886.08,-1.09
894.94,-1.01
903.89,-0.92
912.93,-0.84
922.06,-0.76
931.28,-0.68
940.59,-0.58
950.00,-0.48
959.50,-0.38
969.09,-0.28
978.78,-0.19
988.57,-0.10
998.46,-0.01
1008.44,0.07
1018.53,0.15
1028.71,0.23
1039.00,0.33
1049.39,0.44
1059.88,0.55
1070.48,0.67
1081.19,0.79
1092.00,0.91
1102.92,1.04
1113.95,1.16
1125.09,1.28
1136.34,1.39
1147.70,1.49
1159.18,1.58
1170.77,1.66
1182.48,1.75
1194.30,1.83
1206.25,1.91
1218.31,1.98
1230.49,2.06
1242.80,2.15
1255.22,2.23
1267.78,2.33
1280.45,2.42
1293.26,2.51
1306.19,2.59
1319.25,2.66
1332.45,2.71
1345.77,2.75
1359.23,2.81
1372.82,2.87
1386.55,2.93
1400.41,3.00
1414.42,3.06
1428.56,3.13
1442.85,3.18
1457.28,3.21
1471.85,3.24
1486.57,3.28
1501.43,3.33
1516.45,3.38
1531.61,3.44
1546.93,3.51
1562.40,3.57
1578.02,3.63
1593.80,3.68
1609.74,3.72
1625.84,3.78
1642.10,3.83
1658.52,3.87
1675.10,3.93
1691.85,3.98
1708.77,4.04
1725.86,4.09
1743.12,4.15
1760.55,4.23
1778.15,4.30
1795.94,4.36
1813.90,4.44
1832.03,4.51
1850.36,4.58
1868.86,4.65
1887.55,4.72
1906.42,4.81
1925.49,4.89
1944.74,4.98
1964.19,5.06
1983.83,5.15
2003.67,5.25
2023.71,5.36
2043.94,5.48
2064.38,5.60
2085.03,5.74
2105.88,5.87
2126.94,6.00
2148.20,6.13
2169.69,6.26
2191.38,6.38
2213.30,6.53
2235.43,6.66
2257.78,6.81
2280.36,6.97
2303.17,7.13
2326.20,7.29
2349.46,7.44
2372.95,7.57
2396.68,7.72
2420.65,7.88
2444.86,8.04
2469.31,8.22
2494.00,8.42
2518.94,8.64
2544.13,8.87
2569.57,9.09
2595.27,9.32
2621.22,9.54
2647.43,9.75
2673.90,9.94
2700.64,10.12
2727.65,10.29
2754.93,10.46
2782.48,10.62
2810.30,10.80
2838.40,11.00
2866.79,11.20
2895.46,11.41
2924.41,11.62
2953.65,11.83
2983.19,12.03
3013.02,12.21
3043.15,12.38
3073.58,12.53
3104.32,12.66
3135.36,12.78
3166.72,12.87
3198.38,12.93
3230.37,12.96
3262.67,12.98
3295.30,12.96
3328.25,12.94
3361.53,12.90
3395.15,12.84
3429.10,12.75
3463.39,12.67
3498.03,12.56
3533.01,12.42
3568.34,12.26
3604.02,12.07
3640.06,11.87
3676.46,11.66
3713.22,11.45
3750.36,11.23
3787.86,11.01
3825.74,10.79
3864.00,10.58
3902.64,10.37
3941.66,10.17
3981.08,9.97
4020.89,9.74
4061.10,9.52
4101.71,9.30
4142.73,9.08
4184.15,8.86
4226.00,8.65
4268.26,8.45
4310.94,8.25
4354.05,8.07
4397.59,7.90
4441.56,7.76
4485.98,7.64
4530.84,7.52
4576.15,7.41
4621.91,7.31
4668.13,7.20
4714.81,7.10
4761.96,7.00
4809.58,6.88
4857.67,6.75
4906.25,6.62
4955.31,6.49
5004.87,6.37
5054.91,6.25
5105.46,6.16
5156.52,6.10
5208.08,6.07
5260.16,6.04
5312.77,6.04
5365.89,6.05
5419.55,6.06
5473.75,6.07
5528.49,6.09
5583.77,6.11
5639.61,6.14
5696.00,6.20
5752.96,6.25
5810.49,6.30
5868.60,6.37
5927.28,6.46
5986.56,6.55
6046.42,6.68
6106.89,6.84
6167.96,7.01
6229.64,7.22
6291.93,7.45
6354.85,7.69
6418.40,7.96
6482.58,8.26
6547.41,8.61
6612.88,9.00
6679.01,9.42
6745.80,9.88
6813.26,10.37
6881.39,10.90
6950.21,11.48
7019.71,12.10
7089.91,12.78
7160.81,13.54
7232.41,14.33
7304.74,15.16
7377.79,15.98
7451.56,16.76
7526.08,17.48
7601.34,18.08
7677.35,18.55
7754.13,18.86
7831.67,18.93
7909.98,18.78
7989.08,18.44
8068.98,17.85
8149.67,17.13
8231.16,16.32
8313.47,15.46
8396.61,14.63
8480.57,13.81
8565.38,12.97
8651.03,12.14
8737.54,11.31
8824.92,10.54
8913.17,9.96
9002.30,9.36
9092.32,8.95
9183.25,8.72
9275.08,8.53
9367.83,8.32
9461.51,8.14
9556.12,7.99
9651.68,7.89
9748.20,7.89
9845.68,7.96
9944.14,8.09
10043.58,8.28
10144.02,8.54
10245.46,8.87
10347.91,9.25
10451.39,9.68
10555.91,10.22
10661.46,10.86
10768.08,11.57
10875.76,12.27
10984.52,12.93
11094.36,13.48
11205.31,13.88
11317.36,14.18
11430.53,14.43
11544.84,13.98
11660.29,12.86
11776.89,12.00
11894.66,10.95
12013.60,9.76
12133.74,8.72
12255.08,7.46
12377.63,6.17
12501.41,4.99
12626.42,3.92
12752.68,2.97
12880.21,2.07
13009.01,1.27
13139.10,0.52
13270.49,-0.17
13403.20,-0.69
13537.23,-1.16
13672.60,-1.59
13809.33,-2.06
13947.42,-2.47
14086.90,-2.85
14227.77,-3.18
14370.04,-3.46
14513.74,-3.70
14658.88,-3.90
14805.47,-4.06
14953.52,-4.18
15103.06,-4.25
15254.09,-4.25
15406.63,-4.21
15560.70,-4.13
15716.30,-3.98
15873.47,-3.75
16032.20,-3.46
16192.52,-3.10
16354.45,-2.62
16517.99,-2.06
16683.17,-1.41
16850.01,-0.60
17018.51,0.30
17188.69,1.27
17360.58,2.26
17534.18,3.16
17709.53,3.95
17886.62,4.45
18065.49,4.64
18246.14,4.55
18428.60,4.08
18612.89,3.30
18799.02,2.31
18987.01,1.15
19176.88,-0.11
19368.65,-1.38
19562.33,-2.62
19757.96,-3.82
19955.54,-5.02
