frequency,raw,smoothed,error,error_smoothed,equalization,parametric_eq,fixed_band_eq,equalized_raw,equalized_smoothed,target
20.00,3.80,3.80,-3.11,-3.11,3.11,2.45,1.06,6.91,6.91,6.91
20.20,3.83,3.83,-3.08,-3.08,3.08,2.45,1.10,6.91,6.91,6.91
20.40,3.86,3.86,-3.05,-3.05,3.05,2.45,1.13,6.91,6.91,6.91
20.61,3.89,3.89,-3.02,-3.02,3.02,2.45,1.16,6.90,6.90,6.91
20.81,3.92,3.92,-2.99,-2.99,2.99,2.44,1.20,6.90,6.90,6.90
21.02,3.95,3.95,-2.96,-2.96,2.96,2.44,1.23,6.90,6.90,6.90
21.23,3.98,3.98,-2.93,-2.93,2.93,2.44,1.27,6.90,6.91,6.90
21.44,4.01,4.01,-2.90,-2.90,2.90,2.43,1.31,6.90,6.90,6.90
21.66,4.04,4.03,-2.87,-2.87,2.87,2.43,1.35,6.90,6.90,6.90
21.87,4.06,4.06,-2.84,-2.84,2.84,2.43,1.39,6.90,6.90,6.90
22.09,4.09,4.09,-2.81,-2.81,2.81,2.43,1.43,6.90,6.90,6.90
22.31,4.12,4.11,-2.78,-2.78,2.78,2.42,1.47,6.90,6.90,6.90
22.54,4.15,4.14,-2.75,-2.76,2.76,2.42,1.51,6.90,6.90,6.90
22.76,4.17,4.17,-2.73,-2.73,2.73,2.42,1.56,6.89,6.90,6.90
22.99,4.20,4.20,-2.70,-2.70,2.70,2.41,1.61,6.90,6.90,6.90
23.22,4.23,4.22,-2.67,-2.67,2.67,2.41,1.65,6.90,6.90,6.90
23.45,4.25,4.25,-2.65,-2.65,2.65,2.41,1.70,6.89,6.89,6.89
23.69,4.28,4.27,-2.62,-2.62,2.62,2.40,1.75,6.89,6.89,6.89
23.92,4.30,4.30,-2.60,-2.59,2.59,2.40,1.80,6.89,6.89,6.89
24.16,4.33,4.32,-2.56,-2.57,2.57,2.40,1.85,6.89,6.89,6.89
24.40,4.35,4.35,-2.54,-2.54,2.54,2.39,1.90,6.89,6.89,6.89
24.65,4.38,4.37,-2.51,-2.51,2.52,2.39,1.95,6.89,6.89,6.89
24.89,4.40,4.39,-2.49,-2.49,2.49,2.39,2.00,6.89,6.89,6.89
25.14,4.42,4.42,-2.47,-2.47,2.47,2.38,2.06,6.88,6.88,6.89
25.39,4.44,4.44,-2.45,-2.44,2.44,2.38,2.11,6.88,6.88,6.88
25.65,4.47,4.46,-2.42,-2.42,2.42,2.37,2.16,6.89,6.88,6.88
25.91,4.49,4.49,-2.40,-2.40,2.40,2.37,2.22,6.88,6.88,6.88
26.16,4.51,4.51,-2.37,-2.37,2.38,2.37,2.27,6.88,6.88,6.88
26.43,4.53,4.52,-2.35,-2.36,2.36,2.36,2.32,6.88,6.88,6.88
26.69,4.54,4.54,-2.34,-2.34,2.34,2.36,2.37,6.87,6.87,6.88
26.96,4.56,4.56,-2.32,-2.32,2.32,2.35,2.42,6.87,6.87,6.87
27.23,4.58,4.57,-2.30,-2.30,2.30,2.35,2.47,6.87,6.87,6.87
27.50,4.60,4.59,-2.28,-2.28,2.28,2.34,2.52,6.87,6.87,6.87
27.77,4.61,4.61,-2.26,-2.26,2.26,2.34,2.57,6.87,6.87,6.87
28.05,4.63,4.62,-2.24,-2.24,2.24,2.33,2.61,6.87,6.87,6.87
28.33,4.64,4.64,-2.23,-2.23,2.23,2.33,2.65,6.86,6.87,6.87
28.62,4.66,4.65,-2.21,-2.21,2.21,2.32,2.69,6.87,6.86,6.86
28.90,4.67,4.67,-2.19,-2.19,2.19,2.32,2.73,6.86,6.86,6.86
29.19,4.68,4.68,-2.18,-2.18,2.18,2.31,2.76,6.85,6.86,6.86
29.48,4.70,4.69,-2.16,-2.16,2.16,2.31,2.79,6.86,6.86,6.86
29.78,4.71,4.71,-2.15,-2.15,2.15,2.30,2.82,6.86,6.85,6.85
30.08,4.72,4.72,-2.13,-2.13,2.14,2.30,2.84,6.85,6.85,6.85
30.38,4.73,4.73,-2.12,-2.12,2.12,2.29,2.86,6.85,6.85,6.85
30.68,4.74,4.74,-2.11,-2.11,2.11,2.29,2.88,6.84,6.84,6.85
30.99,4.75,4.75,-2.10,-2.10,2.10,2.28,2.89,6.84,6.84,6.84
31.30,4.76,4.76,-2.08,-2.08,2.08,2.27,2.89,6.84,6.84,6.84
31.61,4.77,4.77,-2.07,-2.07,2.07,2.27,2.90,6.84,6.84,6.84
31.93,4.78,4.78,-2.06,-2.06,2.06,2.26,2.89,6.83,6.83,6.83
32.24,4.79,4.78,-2.04,-2.05,2.05,2.26,2.89,6.83,6.83,6.83
32.57,4.79,4.79,-2.04,-2.04,2.04,2.25,2.88,6.82,6.83,6.83
32.89,4.80,4.80,-2.03,-2.03,2.03,2.24,2.86,6.82,6.82,6.82
33.22,4.81,4.80,-2.01,-2.02,2.02,2.24,2.85,6.82,6.82,6.82
33.55,4.81,4.81,-2.01,-2.01,2.01,2.23,2.83,6.81,6.82,6.81
33.89,4.82,4.81,-1.99,-2.00,2.00,2.22,2.80,6.81,6.81,6.81
34.23,4.82,4.82,-1.99,-1.99,1.99,2.21,2.77,6.80,6.81,6.81
34.57,4.83,4.82,-1.98,-1.98,1.98,2.21,2.74,6.80,6.80,6.80
34.92,4.83,4.83,-1.97,-1.97,1.97,2.20,2.71,6.79,6.80,6.80
35.27,4.84,4.83,-1.96,-1.96,1.96,2.19,2.68,6.79,6.79,6.79
35.62,4.84,4.84,-1.95,-1.95,1.95,2.18,2.64,6.79,6.79,6.79
35.97,4.85,4.84,-1.94,-1.94,1.94,2.18,2.60,6.79,6.78,6.78
36.33,4.85,4.85,-1.93,-1.93,1.93,2.17,2.57,6.78,6.78,6.78
36.70,4.85,4.85,-1.93,-1.92,1.92,2.16,2.53,6.77,6.77,6.77
37.06,4.86,4.85,-1.91,-1.91,1.91,2.15,2.49,6.77,6.77,6.77
37.43,4.86,4.86,-1.90,-1.90,1.91,2.14,2.45,6.76,6.76,6.76
37.81,4.86,4.86,-1.90,-1.90,1.90,2.13,2.40,6.75,6.76,6.75
38.19,4.86,4.86,-1.89,-1.89,1.89,2.12,2.36,6.75,6.75,6.75
38.57,4.86,4.86,-1.89,-1.89,1.89,2.12,2.32,6.74,6.74,6.74
38.95,4.86,4.86,-1.88,-1.88,1.88,2.11,2.28,6.73,6.73,6.73
39.34,4.86,4.86,-1.87,-1.87,1.87,2.10,2.24,6.73,6.73,6.73
39.74,4.86,4.86,-1.86,-1.86,1.86,2.09,2.20,6.72,6.72,6.72
40.14,4.86,4.86,-1.86,-1.86,1.85,2.08,2.17,6.71,6.71,6.71
40.54,4.86,4.86,-1.85,-1.85,1.85,2.07,2.13,6.70,6.70,6.70
40.94,4.86,4.86,-1.84,-1.84,1.84,2.06,2.09,6.69,6.69,6.70
41.35,4.87,4.86,-1.82,-1.83,1.83,2.05,2.06,6.69,6.69,6.69
41.76,4.87,4.87,-1.81,-1.81,1.82,2.03,2.02,6.68,6.68,6.68
42.18,4.87,4.87,-1.80,-1.80,1.81,2.02,1.99,6.67,6.67,6.67
42.60,4.87,4.87,-1.80,-1.80,1.80,2.01,1.96,6.66,6.66,6.66
43.03,4.87,4.86,-1.79,-1.79,1.79,2.00,1.93,6.66,6.65,6.65
43.46,4.86,4.86,-1.79,-1.78,1.78,1.99,1.90,6.64,6.64,6.64
43.90,4.86,4.85,-1.77,-1.78,1.78,1.98,1.88,6.63,6.63,6.63
44.33,4.85,4.85,-1.77,-1.77,1.77,1.96,1.85,6.62,6.62,6.62
44.78,4.85,4.84,-1.76,-1.77,1.77,1.95,1.83,6.61,6.61,6.61
45.23,4.84,4.84,-1.76,-1.76,1.76,1.94,1.81,6.60,6.60,6.60
45.68,4.83,4.83,-1.76,-1.75,1.76,1.93,1.79,6.58,6.59,6.59
46.13,4.83,4.82,-1.75,-1.75,1.75,1.91,1.77,6.58,6.57,6.57
46.60,4.82,4.82,-1.74,-1.74,1.74,1.90,1.75,6.56,6.56,6.56
47.06,4.81,4.81,-1.74,-1.74,1.74,1.89,1.73,6.54,6.55,6.55
47.53,4.81,4.80,-1.73,-1.73,1.73,1.87,1.72,6.54,6.53,6.53
48.01,4.80,4.80,-1.72,-1.72,1.72,1.86,1.71,6.52,6.52,6.52
48.49,4.79,4.79,-1.72,-1.71,1.71,1.84,1.69,6.50,6.50,6.50
48.97,4.79,4.78,-1.70,-1.71,1.71,1.83,1.68,6.49,6.49,6.49
49.46,4.78,4.78,-1.70,-1.70,1.70,1.81,1.67,6.47,6.47,6.47
49.96,4.77,4.77,-1.69,-1.69,1.69,1.80,1.66,6.45,6.46,6.46
50.46,4.77,4.76,-1.67,-1.68,1.68,1.78,1.65,6.44,6.44,6.44
50.96,4.76,4.75,-1.67,-1.67,1.67,1.76,1.65,6.42,6.42,6.42
51.47,4.75,4.75,-1.66,-1.66,1.66,1.75,1.64,6.40,6.40,6.40
51.99,4.74,4.74,-1.65,-1.65,1.64,1.73,1.63,6.38,6.38,6.38
52.51,4.74,4.73,-1.63,-1.63,1.63,1.71,1.63,6.37,6.37,6.37
53.03,4.73,4.73,-1.62,-1.62,1.62,1.69,1.62,6.35,6.35,6.35
53.56,4.72,4.72,-1.61,-1.61,1.61,1.68,1.62,6.33,6.33,6.33
54.10,4.71,4.71,-1.60,-1.60,1.60,1.66,1.61,6.30,6.30,6.30
54.64,4.70,4.70,-1.59,-1.59,1.59,1.64,1.61,6.28,6.28,6.28
55.18,4.69,4.69,-1.57,-1.57,1.57,1.62,1.60,6.26,6.26,6.26
55.74,4.68,4.68,-1.56,-1.56,1.56,1.60,1.59,6.24,6.24,6.24
56.29,4.67,4.66,-1.55,-1.55,1.55,1.58,1.59,6.21,6.21,6.21
56.86,4.65,4.65,-1.54,-1.54,1.54,1.56,1.58,6.18,6.19,6.19
57.42,4.64,4.64,-1.53,-1.52,1.52,1.54,1.57,6.16,6.16,6.16
58.00,4.63,4.62,-1.51,-1.51,1.51,1.52,1.56,6.14,6.13,6.13
58.58,4.62,4.61,-1.49,-1.49,1.50,1.50,1.55,6.11,6.11,6.11
59.16,4.60,4.60,-1.48,-1.48,1.48,1.47,1.54,6.08,6.08,6.08
59.76,4.59,4.59,-1.46,-1.46,1.46,1.45,1.53,6.05,6.05,6.05
60.35,4.58,4.57,-1.44,-1.45,1.45,1.43,1.51,6.02,6.02,6.02
60.96,4.56,4.56,-1.43,-1.43,1.43,1.41,1.50,5.99,5.99,5.99
61.57,4.55,4.55,-1.41,-1.41,1.41,1.38,1.48,5.96,5.96,5.96
62.18,4.54,4.53,-1.39,-1.39,1.39,1.36,1.46,5.93,5.93,5.93
62.80,4.52,4.52,-1.38,-1.37,1.38,1.33,1.44,5.89,5.90,5.89
63.43,4.51,4.50,-1.35,-1.36,1.36,1.31,1.41,5.86,5.86,5.86
64.07,4.49,4.49,-1.34,-1.34,1.34,1.28,1.39,5.82,5.82,5.82
64.71,4.47,4.47,-1.32,-1.32,1.32,1.26,1.36,5.78,5.79,5.79
65.35,4.46,4.45,-1.29,-1.30,1.30,1.23,1.33,5.75,5.75,5.75
66.01,4.44,4.44,-1.28,-1.27,1.27,1.20,1.30,5.71,5.71,5.71
66.67,4.43,4.42,-1.25,-1.25,1.25,1.18,1.27,5.68,5.67,5.67
67.33,4.41,4.41,-1.23,-1.23,1.23,1.15,1.24,5.63,5.63,5.63
68.01,4.39,4.39,-1.21,-1.20,1.20,1.12,1.20,5.59,5.59,5.59
68.69,4.38,4.37,-1.17,-1.18,1.18,1.09,1.17,5.55,5.55,5.55
69.37,4.36,4.36,-1.15,-1.15,1.15,1.06,1.13,5.51,5.51,5.51
70.07,4.34,4.34,-1.13,-1.13,1.13,1.03,1.09,5.46,5.46,5.46
70.77,4.32,4.32,-1.10,-1.10,1.10,1.00,1.05,5.42,5.42,5.42
71.48,4.30,4.30,-1.08,-1.08,1.07,0.97,1.01,5.37,5.37,5.37
72.19,4.28,4.28,-1.05,-1.05,1.05,0.94,0.97,5.32,5.32,5.32
72.91,4.26,4.26,-1.02,-1.02,1.02,0.91,0.92,5.28,5.28,5.28
73.64,4.24,4.24,-0.99,-0.99,0.99,0.88,0.88,5.23,5.23,5.23
74.38,4.22,4.22,-0.96,-0.96,0.96,0.85,0.84,5.18,5.18,5.18
75.12,4.20,4.20,-0.93,-0.93,0.93,0.82,0.79,5.13,5.13,5.13
75.87,4.18,4.17,-0.90,-0.90,0.90,0.78,0.75,5.08,5.07,5.07
76.63,4.15,4.15,-0.87,-0.87,0.87,0.75,0.70,5.02,5.02,5.02
77.40,4.13,4.13,-0.84,-0.84,0.84,0.71,0.66,4.96,4.97,4.97
78.17,4.11,4.10,-0.80,-0.81,0.80,0.68,0.61,4.91,4.91,4.91
78.95,4.09,4.08,-0.77,-0.77,0.77,0.65,0.56,4.86,4.85,4.85
79.74,4.06,4.06,-0.74,-0.74,0.74,0.61,0.52,4.79,4.80,4.80
80.54,4.04,4.04,-0.70,-0.70,0.70,0.57,0.47,4.74,4.74,4.74
81.35,4.02,4.01,-0.66,-0.66,0.67,0.54,0.42,4.68,4.68,4.68
82.16,4.00,3.99,-0.62,-0.63,0.63,0.50,0.38,4.62,4.62,4.62
82.98,3.97,3.97,-0.59,-0.59,0.59,0.47,0.33,4.56,4.56,4.56
83.81,3.95,3.94,-0.55,-0.55,0.55,0.43,0.28,4.50,4.50,4.50
84.65,3.92,3.92,-0.52,-0.51,0.51,0.39,0.24,4.43,4.43,4.43
85.50,3.90,3.90,-0.47,-0.47,0.47,0.35,0.19,4.37,4.37,4.37
86.35,3.88,3.87,-0.43,-0.43,0.43,0.32,0.14,4.31,4.31,4.31
87.22,3.85,3.85,-0.39,-0.39,0.39,0.28,0.10,4.24,4.24,4.24
88.09,3.83,3.82,-0.35,-0.35,0.35,0.24,0.05,4.18,4.18,4.17
88.97,3.80,3.80,-0.31,-0.31,0.31,0.20,0.00,4.10,4.11,4.11
89.86,3.78,3.77,-0.26,-0.27,0.27,0.16,-0.05,4.04,4.04,4.04
90.76,3.75,3.75,-0.23,-0.22,0.22,0.12,-0.09,3.97,3.97,3.97
91.66,3.73,3.72,-0.18,-0.18,0.18,0.09,-0.14,3.90,3.90,3.90
92.58,3.70,3.70,-0.14,-0.14,0.14,0.05,-0.19,3.83,3.83,3.83
93.51,3.68,3.67,-0.09,-0.09,0.09,0.01,-0.23,3.77,3.77,3.76
94.44,3.65,3.65,-0.05,-0.05,0.05,-0.03,-0.28,3.70,3.70,3.69
95.39,3.62,3.62,-0.01,-0.01,0.01,-0.07,-0.33,3.63,3.63,3.62
96.34,3.59,3.58,0.03,0.03,-0.03,-0.11,-0.37,3.56,3.55,3.55
97.30,3.55,3.55,0.06,0.07,-0.07,-0.15,-0.42,3.48,3.48,3.48
98.28,3.52,3.52,0.11,0.11,-0.11,-0.19,-0.47,3.41,3.41,3.41
99.26,3.49,3.49,0.15,0.15,-0.15,-0.23,-0.51,3.33,3.33,3.34
100.25,3.46,3.46,0.19,0.19,-0.19,-0.27,-0.56,3.26,3.26,3.26
101.25,3.43,3.43,0.23,0.23,-0.23,-0.31,-0.60,3.19,3.19,3.19
102.27,3.40,3.40,0.28,0.28,-0.28,-0.35,-0.65,3.12,3.12,3.12
103.29,3.37,3.37,0.32,0.32,-0.32,-0.38,-0.69,3.05,3.05,3.05
104.32,3.34,3.34,0.36,0.36,-0.36,-0.42,-0.74,2.97,2.97,2.97
105.37,3.31,3.31,0.41,0.41,-0.41,-0.46,-0.78,2.90,2.90,2.90
106.42,3.28,3.28,0.45,0.45,-0.45,-0.50,-0.82,2.83,2.83,2.83
107.48,3.25,3.25,0.49,0.49,-0.49,-0.54,-0.87,2.75,2.75,2.75
108.56,3.22,3.22,0.54,0.54,-0.54,-0.57,-0.91,2.68,2.68,2.68
109.64,3.19,3.19,0.58,0.58,-0.58,-0.61,-0.95,2.61,2.61,2.61
110.74,3.16,3.16,0.62,0.62,-0.62,-0.65,-0.99,2.54,2.54,2.54
111.85,3.13,3.13,0.66,0.66,-0.66,-0.68,-1.02,2.46,2.46,2.46
112.97,3.10,3.10,0.70,0.70,-0.71,-0.72,-1.06,2.39,2.39,2.39
114.10,3.07,3.07,0.75,0.75,-0.75,-0.75,-1.09,2.32,2.32,2.32
115.24,3.04,3.04,0.79,0.79,-0.79,-0.79,-1.13,2.25,2.25,2.25
116.39,3.01,3.01,0.83,0.83,-0.83,-0.82,-1.16,2.18,2.18,2.18
117.55,2.98,2.97,0.87,0.87,-0.86,-0.85,-1.18,2.11,2.11,2.11
118.73,2.94,2.94,0.90,0.90,-0.90,-0.89,-1.21,2.03,2.04,2.04
119.92,2.91,2.91,0.94,0.94,-0.94,-0.92,-1.24,1.97,1.97,1.97
121.12,2.88,2.87,0.98,0.97,-0.98,-0.95,-1.26,1.90,1.90,1.90
122.33,2.84,2.84,1.01,1.01,-1.01,-0.98,-1.28,1.83,1.83,1.83
123.55,2.81,2.81,1.04,1.04,-1.04,-1.01,-1.30,1.76,1.76,1.76
124.79,2.78,2.77,1.08,1.08,-1.08,-1.04,-1.31,1.70,1.70,1.70
126.03,2.74,2.74,1.11,1.11,-1.11,-1.07,-1.32,1.63,1.63,1.63
127.29,2.71,2.70,1.14,1.14,-1.14,-1.09,-1.33,1.57,1.57,1.56
128.57,2.67,2.67,1.17,1.17,-1.17,-1.12,-1.34,1.50,1.50,1.50
129.85,2.63,2.63,1.19,1.19,-1.19,-1.15,-1.35,1.43,1.43,1.44
131.15,2.60,2.59,1.22,1.22,-1.22,-1.17,-1.35,1.37,1.37,1.37
132.46,2.56,2.56,1.24,1.25,-1.25,-1.20,-1.35,1.31,1.31,1.31
133.79,2.53,2.53,1.28,1.28,-1.28,-1.22,-1.36,1.25,1.25,1.25
135.12,2.50,2.49,1.31,1.31,-1.31,-1.24,-1.35,1.19,1.19,1.19
136.48,2.47,2.46,1.34,1.33,-1.33,-1.26,-1.35,1.13,1.13,1.13
137.84,2.43,2.43,1.35,1.36,-1.36,-1.28,-1.34,1.07,1.07,1.07
139.22,2.40,2.39,1.38,1.38,-1.38,-1.30,-1.34,1.02,1.01,1.01
140.61,2.36,2.36,1.40,1.40,-1.40,-1.32,-1.33,0.96,0.96,0.96
142.02,2.33,2.32,1.42,1.42,-1.42,-1.34,-1.32,0.91,0.90,0.90
143.44,2.29,2.29,1.44,1.44,-1.44,-1.36,-1.31,0.85,0.85,0.85
144.87,2.25,2.25,1.45,1.45,-1.45,-1.37,-1.30,0.79,0.79,0.79
146.32,2.21,2.21,1.47,1.47,-1.47,-1.39,-1.29,0.74,0.74,0.74
147.78,2.17,2.17,1.48,1.48,-1.48,-1.40,-1.28,0.68,0.69,0.69
149.26,2.14,2.13,1.50,1.49,-1.50,-1.42,-1.27,0.64,0.64,0.64
150.75,2.10,2.10,1.51,1.51,-1.51,-1.43,-1.26,0.59,0.59,0.59
152.26,2.07,2.06,1.53,1.52,-1.52,-1.44,-1.24,0.54,0.54,0.54
153.78,2.03,2.03,1.53,1.54,-1.53,-1.45,-1.23,0.49,0.50,0.49
155.32,2.00,1.99,1.55,1.55,-1.55,-1.46,-1.22,0.45,0.45,0.45
156.88,1.96,1.96,1.56,1.55,-1.56,-1.47,-1.21,0.40,0.40,0.40
158.44,1.92,1.92,1.56,1.56,-1.57,-1.48,-1.20,0.35,0.35,0.36
160.03,1.89,1.89,1.57,1.58,-1.58,-1.48,-1.19,0.31,0.31,0.31
161.63,1.86,1.85,1.60,1.59,-1.58,-1.49,-1.18,0.27,0.27,0.26
163.24,1.82,1.82,1.60,1.60,-1.59,-1.49,-1.17,0.23,0.23,0.22
164.88,1.78,1.78,1.60,1.60,-1.59,-1.50,-1.16,0.18,0.18,0.18
166.53,1.74,1.74,1.60,1.60,-1.60,-1.50,-1.16,0.14,0.14,0.14
168.19,1.70,1.70,1.59,1.60,-1.60,-1.50,-1.15,0.10,0.10,0.10
169.87,1.67,1.66,1.60,1.60,-1.60,-1.51,-1.15,0.07,0.06,0.06
171.57,1.63,1.63,1.60,1.60,-1.60,-1.51,-1.14,0.03,0.03,0.03
173.29,1.59,1.59,1.59,1.60,-1.60,-1.51,-1.14,-0.01,-0.01,-0.01
175.02,1.56,1.55,1.60,1.59,-1.60,-1.51,-1.13,-0.04,-0.05,-0.04
176.77,1.52,1.52,1.59,1.60,-1.60,-1.50,-1.13,-0.08,-0.08,-0.08
178.54,1.49,1.49,1.59,1.59,-1.60,-1.50,-1.13,-0.11,-0.11,-0.11
180.32,1.46,1.45,1.60,1.59,-1.59,-1.50,-1.13,-0.13,-0.14,-0.14
182.13,1.42,1.42,1.59,1.59,-1.59,-1.49,-1.13,-0.17,-0.16,-0.17
183.95,1.39,1.38,1.59,1.58,-1.58,-1.49,-1.13,-0.19,-0.19,-0.20
185.79,1.35,1.34,1.58,1.57,-1.57,-1.48,-1.14,-0.22,-0.23,-0.23
187.65,1.30,1.30,1.55,1.56,-1.56,-1.48,-1.14,-0.27,-0.26,-0.26
189.52,1.26,1.26,1.54,1.54,-1.55,-1.47,-1.15,-0.30,-0.29,-0.29
191.42,1.23,1.22,1.54,1.53,-1.54,-1.46,-1.15,-0.31,-0.32,-0.31
193.33,1.19,1.19,1.52,1.53,-1.53,-1.46,-1.16,-0.34,-0.34,-0.34
195.27,1.16,1.16,1.52,1.52,-1.52,-1.45,-1.16,-0.36,-0.36,-0.36
197.22,1.13,1.12,1.51,1.51,-1.50,-1.44,-1.17,-0.38,-0.38,-0.39
199.19,1.09,1.09,1.50,1.50,-1.49,-1.43,-1.18,-0.41,-0.41,-0.41
201.18,1.05,1.05,1.48,1.48,-1.48,-1.42,-1.19,-0.43,-0.43,-0.43
203.19,1.01,1.01,1.46,1.46,-1.46,-1.41,-1.20,-0.46,-0.46,-0.46
205.23,0.97,0.97,1.44,1.45,-1.45,-1.39,-1.20,-0.48,-0.48,-0.48
207.28,0.94,0.93,1.43,1.43,-1.43,-1.38,-1.21,-0.50,-0.50,-0.50
209.35,0.90,0.90,1.41,1.42,-1.42,-1.37,-1.22,-0.52,-0.52,-0.52
211.44,0.87,0.87,1.40,1.40,-1.40,-1.36,-1.23,-0.54,-0.54,-0.54
213.56,0.84,0.83,1.39,1.39,-1.39,-1.34,-1.24,-0.56,-0.56,-0.56
215.69,0.80,0.80,1.37,1.38,-1.38,-1.33,-1.25,-0.58,-0.58,-0.58
217.85,0.77,0.77,1.36,1.36,-1.37,-1.31,-1.26,-0.60,-0.60,-0.59
220.03,0.75,0.74,1.36,1.35,-1.35,-1.30,-1.27,-0.61,-0.61,-0.61
222.23,0.72,0.72,1.34,1.34,-1.34,-1.28,-1.27,-0.62,-0.62,-0.63
224.45,0.69,0.69,1.33,1.33,-1.32,-1.27,-1.28,-0.63,-0.63,-0.64
226.70,0.65,0.65,1.30,1.30,-1.30,-1.25,-1.29,-0.65,-0.65,-0.66
228.96,0.61,0.60,1.28,1.28,-1.28,-1.23,-1.29,-0.67,-0.67,-0.67
231.25,0.56,0.56,1.24,1.25,-1.25,-1.22,-1.29,-0.70,-0.69,-0.69
233.57,0.52,0.52,1.22,1.22,-1.23,-1.20,-1.29,-0.71,-0.71,-0.70
235.90,0.48,0.48,1.20,1.20,-1.20,-1.18,-1.29,-0.73,-0.73,-0.73
238.26,0.45,0.44,1.18,1.18,-1.18,-1.16,-1.29,-0.73,-0.74,-0.74
240.64,0.41,0.41,1.16,1.16,-1.16,-1.15,-1.29,-0.75,-0.75,-0.75
243.05,0.38,0.37,1.14,1.14,-1.14,-1.13,-1.28,-0.76,-0.76,-0.76
245.48,0.34,0.34,1.11,1.11,-1.11,-1.11,-1.28,-0.78,-0.77,-0.77
247.93,0.31,0.31,1.09,1.09,-1.09,-1.09,-1.27,-0.78,-0.78,-0.79
250.41,0.28,0.27,1.07,1.07,-1.07,-1.07,-1.26,-0.79,-0.79,-0.80
252.92,0.24,0.24,1.04,1.04,-1.04,-1.05,-1.24,-0.81,-0.81,-0.81
255.45,0.20,0.20,1.01,1.02,-1.02,-1.03,-1.23,-0.82,-0.82,-0.82
258.00,0.17,0.16,0.99,0.99,-0.99,-1.01,-1.21,-0.83,-0.83,-0.83
260.58,0.13,0.13,0.96,0.97,-0.97,-0.99,-1.19,-0.84,-0.84,-0.84
263.19,0.10,0.10,0.94,0.94,-0.94,-0.97,-1.17,-0.85,-0.85,-0.85
265.82,0.07,0.07,0.92,0.92,-0.92,-0.95,-1.14,-0.85,-0.85,-0.85
268.48,0.04,0.04,0.90,0.90,-0.90,-0.92,-1.12,-0.86,-0.86,-0.86
271.16,0.01,0.00,0.88,0.87,-0.87,-0.90,-1.09,-0.87,-0.87,-0.87
273.87,-0.03,-0.03,0.85,0.85,-0.85,-0.88,-1.06,-0.88,-0.88,-0.88
276.61,-0.06,-0.06,0.82,0.82,-0.83,-0.86,-1.03,-0.89,-0.89,-0.89
279.38,-0.09,-0.09,0.80,0.80,-0.80,-0.84,-1.00,-0.89,-0.89,-0.89
282.17,-0.12,-0.12,0.78,0.77,-0.77,-0.81,-0.97,-0.90,-0.90,-0.90
284.99,-0.15,-0.15,0.74,0.75,-0.74,-0.79,-0.94,-0.90,-0.90,-0.90
287.84,-0.18,-0.18,0.71,0.72,-0.71,-0.77,-0.90,-0.90,-0.90,-0.90
290.72,-0.21,-0.22,0.69,0.68,-0.68,-0.75,-0.87,-0.90,-0.90,-0.90
293.63,-0.25,-0.25,0.65,0.65,-0.65,-0.72,-0.83,-0.91,-0.90,-0.91
296.57,-0.28,-0.28,0.62,0.62,-0.62,-0.70,-0.79,-0.91,-0.91,-0.90
299.53,-0.31,-0.32,0.59,0.59,-0.59,-0.68,-0.75,-0.91,-0.91,-0.90
302.53,-0.34,-0.34,0.56,0.56,-0.56,-0.65,-0.72,-0.91,-0.91,-0.91
305.55,-0.37,-0.37,0.53,0.53,-0.53,-0.63,-0.68,-0.91,-0.90,-0.90
308.61,-0.39,-0.40,0.51,0.51,-0.50,-0.60,-0.64,-0.90,-0.90,-0.91
311.69,-0.42,-0.42,0.48,0.48,-0.48,-0.58,-0.60,-0.90,-0.90,-0.90
314.81,-0.45,-0.45,0.45,0.45,-0.45,-0.55,-0.56,-0.90,-0.90,-0.91
317.96,-0.48,-0.48,0.42,0.42,-0.42,-0.53,-0.52,-0.90,-0.90,-0.90
321.14,-0.51,-0.51,0.39,0.39,-0.39,-0.50,-0.48,-0.91,-0.90,-0.90
324.35,-0.53,-0.54,0.36,0.36,-0.36,-0.48,-0.44,-0.90,-0.90,-0.90
327.59,-0.56,-0.56,0.33,0.33,-0.33,-0.45,-0.40,-0.90,-0.90,-0.89
330.87,-0.59,-0.59,0.30,0.30,-0.30,-0.43,-0.36,-0.90,-0.89,-0.90
334.18,-0.61,-0.62,0.28,0.28,-0.27,-0.40,-0.32,-0.89,-0.89,-0.89
337.52,-0.64,-0.65,0.25,0.25,-0.24,-0.38,-0.28,-0.89,-0.89,-0.89
340.90,-0.67,-0.67,0.21,0.21,-0.21,-0.35,-0.24,-0.89,-0.89,-0.89
344.30,-0.70,-0.70,0.18,0.18,-0.18,-0.32,-0.20,-0.89,-0.88,-0.88
347.75,-0.72,-0.72,0.15,0.15,-0.15,-0.30,-0.15,-0.88,-0.88,-0.87
351.23,-0.74,-0.75,0.13,0.12,-0.12,-0.27,-0.11,-0.87,-0.87,-0.88
354.74,-0.77,-0.77,0.09,0.09,-0.09,-0.24,-0.07,-0.87,-0.87,-0.86
358.28,-0.80,-0.80,0.06,0.06,-0.06,-0.22,-0.03,-0.87,-0.86,-0.86
361.87,-0.82,-0.82,0.03,0.03,-0.03,-0.19,0.01,-0.86,-0.86,-0.86
365.49,-0.84,-0.85,0.01,0.00,-0.00,-0.16,0.05,-0.85,-0.85,-0.85
369.14,-0.87,-0.87,-0.02,-0.02,0.02,-0.13,0.09,-0.85,-0.84,-0.85
372.83,-0.89,-0.89,-0.06,-0.05,0.05,-0.10,0.13,-0.84,-0.84,-0.83
376.56,-0.91,-0.92,-0.08,-0.08,0.08,-0.07,0.17,-0.83,-0.84,-0.84
380.33,-0.94,-0.94,-0.11,-0.11,0.11,-0.04,0.21,-0.83,-0.83,-0.83
384.13,-0.96,-0.96,-0.13,-0.14,0.14,-0.02,0.25,-0.83,-0.83,-0.83
387.97,-0.98,-0.98,-0.16,-0.16,0.16,0.01,0.28,-0.82,-0.82,-0.82
391.85,-1.00,-1.00,-0.20,-0.19,0.19,0.04,0.32,-0.81,-0.81,-0.81
395.77,-1.02,-1.02,-0.22,-0.22,0.22,0.07,0.36,-0.80,-0.80,-0.81
399.73,-1.04,-1.05,-0.24,-0.25,0.25,0.10,0.40,-0.80,-0.80,-0.80
403.72,-1.07,-1.07,-0.28,-0.27,0.27,0.13,0.44,-0.80,-0.80,-0.79
407.76,-1.09,-1.09,-0.30,-0.30,0.30,0.17,0.48,-0.79,-0.79,-0.79
411.84,-1.11,-1.11,-0.33,-0.33,0.33,0.20,0.52,-0.79,-0.79,-0.79
415.96,-1.13,-1.13,-0.36,-0.35,0.35,0.23,0.55,-0.78,-0.78,-0.78
420.12,-1.15,-1.15,-0.38,-0.38,0.38,0.26,0.59,-0.77,-0.77,-0.78
424.32,-1.17,-1.17,-0.40,-0.41,0.40,0.29,0.63,-0.77,-0.77,-0.77
428.56,-1.19,-1.19,-0.43,-0.43,0.43,0.32,0.66,-0.77,-0.77,-0.76
432.85,-1.21,-1.21,-0.46,-0.45,0.45,0.36,0.70,-0.76,-0.76,-0.75
437.18,-1.22,-1.23,-0.47,-0.48,0.48,0.39,0.73,-0.74,-0.75,-0.75
441.55,-1.24,-1.25,-0.50,-0.50,0.51,0.42,0.76,-0.74,-0.74,-0.75
445.96,-1.26,-1.26,-0.53,-0.53,0.53,0.46,0.79,-0.73,-0.73,-0.74
450.42,-1.28,-1.28,-0.57,-0.56,0.56,0.49,0.82,-0.73,-0.72,-0.72
454.93,-1.29,-1.30,-0.58,-0.59,0.58,0.52,0.85,-0.71,-0.72,-0.71
459.48,-1.31,-1.31,-0.61,-0.61,0.61,0.56,0.88,-0.71,-0.71,-0.70
464.07,-1.33,-1.33,-0.63,-0.63,0.63,0.59,0.90,-0.70,-0.70,-0.70
468.71,-1.34,-1.35,-0.65,-0.65,0.66,0.63,0.93,-0.69,-0.69,-0.69
473.40,-1.36,-1.36,-0.68,-0.68,0.68,0.66,0.95,-0.69,-0.68,-0.68
478.13,-1.37,-1.38,-0.70,-0.70,0.70,0.69,0.97,-0.67,-0.68,-0.68
482.91,-1.39,-1.39,-0.73,-0.73,0.72,0.73,0.99,-0.67,-0.67,-0.67
487.74,-1.40,-1.40,-0.75,-0.75,0.75,0.76,1.00,-0.66,-0.66,-0.66
492.62,-1.41,-1.42,-0.77,-0.77,0.77,0.80,1.02,-0.64,-0.65,-0.65
497.55,-1.42,-1.43,-0.78,-0.79,0.79,0.83,1.03,-0.63,-0.63,-0.64
502.52,-1.44,-1.44,-0.81,-0.81,0.82,0.87,1.04,-0.63,-0.62,-0.63
507.55,-1.45,-1.46,-0.84,-0.84,0.84,0.90,1.04,-0.61,-0.61,-0.61
512.62,-1.47,-1.47,-0.87,-0.87,0.86,0.93,1.05,-0.61,-0.61,-0.60
517.75,-1.48,-1.48,-0.89,-0.89,0.89,0.97,1.05,-0.60,-0.60,-0.59
522.93,-1.49,-1.49,-0.91,-0.91,0.91,1.00,1.06,-0.59,-0.59,-0.58
