frequency,raw,smoothed,error,error_smoothed,equalization,parametric_eq,fixed_band_eq,equalized_raw,equalized_smoothed,target
20.00,5.02,5.02,-2.16,-2.16,2.16,1.69,0.41,7.18,7.18,7.18
20.20,5.06,5.06,-2.12,-2.12,2.12,1.67,0.42,7.18,7.18,7.18
20.40,5.10,5.10,-2.08,-2.08,2.08,1.66,0.44,7.18,7.18,7.18
20.61,5.14,5.14,-2.04,-2.04,2.04,1.64,0.45,7.18,7.18,7.18
20.81,5.18,5.18,-2.00,-2.00,2.00,1.63,0.46,7.18,7.18,7.18
21.02,5.22,5.22,-1.96,-1.96,1.96,1.61,0.48,7.18,7.18,7.18
21.23,5.25,5.25,-1.93,-1.92,1.92,1.60,0.49,7.17,7.18,7.18
21.44,5.29,5.29,-1.89,-1.89,1.88,1.58,0.51,7.17,7.17,7.18
21.66,5.33,5.33,-1.85,-1.85,1.85,1.57,0.53,7.18,7.17,7.17
21.87,5.36,5.36,-1.81,-1.81,1.81,1.55,0.54,7.17,7.17,7.17
22.09,5.40,5.40,-1.77,-1.77,1.77,1.54,0.56,7.17,7.17,7.17
22.31,5.44,5.44,-1.73,-1.74,1.74,1.52,0.58,7.18,7.17,7.17
22.54,5.47,5.47,-1.70,-1.70,1.70,1.50,0.59,7.17,7.17,7.17
22.76,5.51,5.51,-1.66,-1.66,1.66,1.49,0.61,7.17,7.17,7.17
22.99,5.54,5.54,-1.63,-1.63,1.63,1.47,0.63,7.17,7.17,7.17
23.22,5.57,5.57,-1.60,-1.60,1.59,1.46,0.65,7.16,7.17,7.17
23.45,5.61,5.61,-1.56,-1.56,1.56,1.44,0.67,7.17,7.17,7.17
23.69,5.64,5.64,-1.53,-1.52,1.52,1.42,0.69,7.16,7.17,7.17
23.92,5.68,5.68,-1.49,-1.49,1.49,1.41,0.71,7.17,7.17,7.16
24.16,5.71,5.71,-1.45,-1.46,1.45,1.39,0.73,7.16,7.16,7.16
24.40,5.74,5.74,-1.42,-1.42,1.42,1.37,0.75,7.16,7.16,7.16
24.65,5.77,5.77,-1.39,-1.39,1.39,1.36,0.77,7.16,7.16,7.16
24.89,5.81,5.81,-1.35,-1.35,1.35,1.34,0.79,7.16,7.16,7.16
25.14,5.84,5.84,-1.32,-1.32,1.32,1.32,0.81,7.16,7.16,7.16
25.39,5.87,5.87,-1.29,-1.29,1.29,1.31,0.83,7.16,7.16,7.16
25.65,5.90,5.90,-1.26,-1.26,1.26,1.29,0.86,7.16,7.16,7.16
25.91,5.92,5.92,-1.24,-1.23,1.23,1.27,0.88,7.15,7.15,7.15
26.16,5.95,5.95,-1.20,-1.20,1.20,1.25,0.90,7.15,7.15,7.15
26.43,5.98,5.98,-1.17,-1.17,1.17,1.24,0.92,7.15,7.15,7.15
26.69,6.01,6.01,-1.14,-1.14,1.14,1.22,0.94,7.15,7.15,7.15
26.96,6.03,6.03,-1.12,-1.11,1.11,1.20,0.96,7.14,7.15,7.15
27.23,6.06,6.06,-1.09,-1.09,1.09,1.18,0.98,7.15,7.15,7.15
27.50,6.09,6.09,-1.05,-1.06,1.06,1.17,1.00,7.15,7.14,7.14
27.77,6.11,6.11,-1.03,-1.03,1.03,1.15,1.01,7.14,7.14,7.14
28.05,6.14,6.14,-1.00,-1.00,1.00,1.13,1.03,7.14,7.14,7.14
28.33,6.16,6.16,-0.98,-0.98,0.98,1.11,1.04,7.14,7.14,7.14
28.62,6.18,6.18,-0.96,-0.95,0.95,1.10,1.06,7.13,7.14,7.14
28.90,6.21,6.21,-0.92,-0.93,0.93,1.08,1.07,7.14,7.13,7.13
29.19,6.23,6.23,-0.90,-0.90,0.90,1.06,1.08,7.13,7.13,7.13
29.48,6.25,6.25,-0.88,-0.88,0.88,1.04,1.09,7.13,7.13,7.13
29.78,6.27,6.27,-0.86,-0.86,0.86,1.03,1.10,7.13,7.13,7.13
30.08,6.29,6.29,-0.83,-0.83,0.83,1.01,1.11,7.12,7.12,7.12
30.38,6.31,6.31,-0.81,-0.81,0.81,0.99,1.11,7.12,7.12,7.12
30.68,6.33,6.33,-0.79,-0.79,0.79,0.97,1.11,7.12,7.12,7.12
30.99,6.35,6.35,-0.77,-0.77,0.77,0.95,1.12,7.11,7.11,7.11
31.30,6.37,6.37,-0.74,-0.74,0.74,0.94,1.11,7.11,7.11,7.11
31.61,6.39,6.39,-0.72,-0.72,0.72,0.92,1.11,7.11,7.11,7.11
31.93,6.41,6.41,-0.70,-0.70,0.70,0.90,1.11,7.11,7.11,7.11
32.24,6.42,6.42,-0.68,-0.68,0.68,0.88,1.10,7.10,7.10,7.10
32.57,6.44,6.44,-0.66,-0.66,0.66,0.87,1.09,7.10,7.10,7.10
32.89,6.46,6.46,-0.64,-0.64,0.64,0.85,1.08,7.10,7.09,7.09
33.22,6.47,6.47,-0.62,-0.62,0.62,0.83,1.07,7.09,7.09,7.09
33.55,6.49,6.49,-0.60,-0.60,0.60,0.81,1.05,7.09,7.09,7.09
33.89,6.50,6.50,-0.58,-0.58,0.58,0.79,1.04,7.08,7.08,7.08
34.23,6.51,6.51,-0.57,-0.57,0.56,0.78,1.02,7.07,7.08,7.08
34.57,6.53,6.53,-0.55,-0.55,0.55,0.76,1.00,7.08,7.07,7.07
34.92,6.54,6.54,-0.53,-0.53,0.53,0.74,0.98,7.07,7.07,7.07
35.27,6.55,6.55,-0.52,-0.52,0.52,0.72,0.96,7.07,7.07,7.07
35.62,6.56,6.56,-0.50,-0.50,0.50,0.70,0.94,7.06,7.06,7.06
35.97,6.57,6.57,-0.49,-0.49,0.49,0.69,0.92,7.06,7.06,7.06
36.33,6.58,6.58,-0.47,-0.47,0.48,0.67,0.90,7.05,7.05,7.05
36.70,6.58,6.58,-0.47,-0.46,0.46,0.65,0.87,7.04,7.04,7.04
37.06,6.59,6.59,-0.45,-0.45,0.45,0.63,0.85,7.04,7.04,7.04
37.43,6.60,6.60,-0.43,-0.44,0.43,0.61,0.83,7.03,7.03,7.03
37.81,6.61,6.61,-0.42,-0.42,0.41,0.60,0.80,7.02,7.02,7.03
38.19,6.62,6.62,-0.40,-0.40,0.40,0.58,0.78,7.02,7.02,7.02
38.57,6.64,6.64,-0.37,-0.38,0.38,0.56,0.75,7.02,7.01,7.01
38.95,6.65,6.65,-0.36,-0.36,0.36,0.54,0.73,7.01,7.01,7.01
39.34,6.66,6.66,-0.34,-0.34,0.34,0.52,0.70,7.00,7.00,7.00
39.74,6.67,6.67,-0.32,-0.33,0.33,0.51,0.68,7.00,6.99,6.99
40.14,6.67,6.67,-0.32,-0.31,0.31,0.49,0.65,6.98,6.99,6.99
40.54,6.68,6.68,-0.30,-0.30,0.30,0.47,0.63,6.98,6.98,6.98
40.94,6.68,6.68,-0.29,-0.29,0.29,0.45,0.60,6.97,6.97,6.97
41.35,6.68,6.68,-0.28,-0.28,0.28,0.43,0.58,6.96,6.96,6.96
41.76,6.68,6.68,-0.27,-0.27,0.27,0.42,0.55,6.95,6.95,6.95
42.18,6.68,6.68,-0.26,-0.27,0.27,0.40,0.53,6.95,6.94,6.94
42.60,6.67,6.67,-0.26,-0.26,0.26,0.38,0.51,6.93,6.93,6.93
43.03,6.67,6.67,-0.25,-0.25,0.25,0.36,0.48,6.92,6.92,6.92
43.46,6.67,6.67,-0.24,-0.25,0.24,0.35,0.46,6.91,6.91,6.91
43.90,6.67,6.67,-0.23,-0.23,0.23,0.33,0.44,6.90,6.90,6.90
44.33,6.67,6.67,-0.22,-0.22,0.23,0.31,0.42,6.89,6.89,6.89
44.78,6.67,6.67,-0.21,-0.22,0.22,0.29,0.39,6.89,6.88,6.88
45.23,6.66,6.66,-0.21,-0.21,0.21,0.28,0.37,6.87,6.87,6.87
45.68,6.66,6.66,-0.20,-0.20,0.20,0.26,0.35,6.86,6.86,6.86
46.13,6.66,6.66,-0.19,-0.19,0.19,0.24,0.33,6.85,6.85,6.85
46.60,6.65,6.65,-0.18,-0.18,0.18,0.22,0.31,6.83,6.83,6.83
47.06,6.65,6.65,-0.17,-0.17,0.17,0.20,0.29,6.82,6.82,6.82
47.53,6.64,6.64,-0.17,-0.17,0.17,0.19,0.27,6.80,6.80,6.81
48.01,6.63,6.63,-0.16,-0.16,0.16,0.17,0.25,6.79,6.79,6.79
48.49,6.63,6.62,-0.15,-0.15,0.15,0.15,0.23,6.78,6.77,6.78
48.97,6.62,6.62,-0.14,-0.14,0.14,0.13,0.21,6.76,6.76,6.76
49.46,6.61,6.61,-0.14,-0.13,0.13,0.12,0.20,6.74,6.75,6.74
49.96,6.61,6.61,-0.12,-0.12,0.12,0.10,0.18,6.73,6.73,6.73
50.46,6.60,6.60,-0.11,-0.11,0.11,0.08,0.16,6.71,6.71,6.71
50.96,6.59,6.59,-0.11,-0.10,0.11,0.06,0.14,6.69,6.70,6.69
51.47,6.58,6.58,-0.10,-0.10,0.10,0.04,0.13,6.68,6.68,6.68
51.99,6.57,6.57,-0.09,-0.09,0.09,0.03,0.11,6.66,6.66,6.66
52.51,6.56,6.56,-0.08,-0.08,0.08,0.01,0.09,6.64,6.64,6.64
53.03,6.55,6.55,-0.07,-0.07,0.07,-0.01,0.07,6.62,6.62,6.62
53.56,6.54,6.54,-0.06,-0.06,0.06,-0.03,0.06,6.60,6.60,6.60
54.10,6.53,6.53,-0.05,-0.05,0.05,-0.05,0.04,6.58,6.58,6.58
54.64,6.52,6.52,-0.04,-0.04,0.04,-0.06,0.02,6.56,6.55,6.55
55.18,6.50,6.50,-0.03,-0.03,0.03,-0.08,0.01,6.53,6.53,6.53
55.74,6.49,6.49,-0.02,-0.02,0.02,-0.10,-0.01,6.51,6.51,6.51
56.29,6.48,6.48,-0.01,-0.01,0.01,-0.12,-0.03,6.48,6.48,6.48
56.86,6.47,6.47,0.01,0.01,-0.01,-0.14,-0.04,6.46,6.46,6.46
57.42,6.45,6.45,0.02,0.02,-0.02,-0.16,-0.06,6.43,6.43,6.43
58.00,6.44,6.44,0.03,0.03,-0.03,-0.17,-0.07,6.41,6.41,6.41
58.58,6.43,6.43,0.05,0.05,-0.05,-0.19,-0.09,6.38,6.38,6.38
59.16,6.41,6.41,0.06,0.06,-0.06,-0.21,-0.11,6.35,6.35,6.35
59.76,6.40,6.40,0.08,0.07,-0.07,-0.23,-0.12,6.33,6.32,6.32
60.35,6.38,6.38,0.09,0.09,-0.09,-0.25,-0.14,6.29,6.29,6.29
60.96,6.37,6.37,0.11,0.10,-0.10,-0.27,-0.16,6.27,6.26,6.26
61.57,6.35,6.35,0.12,0.12,-0.12,-0.29,-0.18,6.23,6.23,6.23
62.18,6.33,6.33,0.13,0.13,-0.13,-0.31,-0.19,6.19,6.20,6.20
62.80,6.32,6.32,0.15,0.15,-0.15,-0.33,-0.21,6.17,6.17,6.17
63.43,6.30,6.30,0.17,0.17,-0.17,-0.35,-0.23,6.13,6.13,6.13
64.07,6.28,6.28,0.18,0.18,-0.18,-0.37,-0.25,6.10,6.10,6.10
64.71,6.26,6.26,0.20,0.20,-0.20,-0.39,-0.26,6.06,6.06,6.06
65.35,6.24,6.24,0.22,0.22,-0.22,-0.41,-0.28,6.02,6.02,6.02
66.01,6.22,6.22,0.23,0.23,-0.23,-0.43,-0.30,5.99,5.99,5.99
66.67,6.20,6.20,0.25,0.25,-0.25,-0.45,-0.32,5.95,5.95,5.95
67.33,6.17,6.17,0.26,0.27,-0.27,-0.47,-0.34,5.90,5.90,5.91
68.01,6.15,6.15,0.28,0.28,-0.29,-0.49,-0.36,5.86,5.86,5.86
68.69,6.13,6.13,0.31,0.31,-0.31,-0.51,-0.38,5.82,5.82,5.82
69.37,6.11,6.11,0.33,0.33,-0.33,-0.53,-0.40,5.78,5.78,5.78
70.07,6.09,6.09,0.35,0.35,-0.35,-0.55,-0.42,5.74,5.74,5.74
70.77,6.06,6.06,0.37,0.37,-0.37,-0.57,-0.44,5.69,5.69,5.69
71.48,6.04,6.04,0.39,0.39,-0.39,-0.60,-0.46,5.65,5.64,5.64
72.19,6.01,6.01,0.41,0.41,-0.42,-0.62,-0.49,5.59,5.60,5.60
72.91,5.99,5.99,0.44,0.44,-0.44,-0.64,-0.51,5.55,5.55,5.55
73.64,5.96,5.96,0.46,0.46,-0.46,-0.66,-0.53,5.50,5.50,5.50
74.38,5.94,5.94,0.49,0.49,-0.49,-0.69,-0.55,5.45,5.45,5.45
75.12,5.91,5.91,0.51,0.51,-0.51,-0.71,-0.58,5.40,5.40,5.40
75.87,5.88,5.88,0.53,0.54,-0.54,-0.73,-0.60,5.34,5.35,5.35
76.63,5.86,5.85,0.57,0.56,-0.56,-0.75,-0.63,5.29,5.29,5.29
77.40,5.83,5.83,0.59,0.59,-0.59,-0.78,-0.65,5.24,5.24,5.24
78.17,5.80,5.80,0.62,0.62,-0.62,-0.80,-0.68,5.18,5.18,5.18
78.95,5.78,5.78,0.65,0.65,-0.65,-0.83,-0.71,5.13,5.13,5.13
79.74,5.75,5.75,0.68,0.68,-0.68,-0.85,-0.74,5.07,5.07,5.07
80.54,5.72,5.72,0.71,0.71,-0.71,-0.87,-0.76,5.01,5.01,5.01
81.35,5.69,5.69,0.74,0.74,-0.74,-0.90,-0.79,4.95,4.95,4.95
82.16,5.66,5.66,0.77,0.77,-0.77,-0.92,-0.82,4.89,4.89,4.89
82.98,5.63,5.63,0.80,0.80,-0.80,-0.95,-0.85,4.83,4.83,4.83
83.81,5.60,5.60,0.83,0.83,-0.83,-0.97,-0.89,4.77,4.77,4.77
84.65,5.57,5.57,0.86,0.86,-0.86,-1.00,-0.92,4.71,4.71,4.71
85.50,5.54,5.54,0.90,0.89,-0.89,-1.02,-0.95,4.65,4.64,4.64
86.35,5.50,5.50,0.92,0.93,-0.92,-1.05,-0.99,4.57,4.58,4.58
87.22,5.47,5.47,0.96,0.96,-0.96,-1.07,-1.02,4.51,4.51,4.51
88.09,5.44,5.44,0.99,0.99,-0.99,-1.10,-1.06,4.45,4.45,4.45
88.97,5.40,5.40,1.02,1.02,-1.02,-1.12,-1.09,4.38,4.38,4.38
89.86,5.37,5.37,1.06,1.05,-1.05,-1.15,-1.13,4.32,4.31,4.31
90.76,5.33,5.33,1.08,1.09,-1.09,-1.18,-1.17,4.24,4.24,4.24
91.66,5.30,5.30,1.12,1.12,-1.12,-1.20,-1.21,4.18,4.18,4.18
92.58,5.26,5.26,1.15,1.15,-1.15,-1.23,-1.25,4.10,4.11,4.11
93.51,5.23,5.23,1.19,1.19,-1.19,-1.25,-1.29,4.04,4.04,4.04
94.44,5.19,5.19,1.22,1.22,-1.22,-1.28,-1.33,3.96,3.97,3.97
95.39,5.16,5.16,1.26,1.26,-1.26,-1.31,-1.37,3.90,3.90,3.90
96.34,5.12,5.12,1.29,1.30,-1.30,-1.33,-1.41,3.82,3.82,3.83
97.30,5.09,5.09,1.34,1.33,-1.33,-1.36,-1.46,3.75,3.75,3.75
98.28,5.05,5.05,1.37,1.37,-1.37,-1.38,-1.50,3.68,3.68,3.68
99.26,5.02,5.02,1.41,1.41,-1.41,-1.41,-1.55,3.61,3.61,3.61
100.25,4.98,4.98,1.44,1.44,-1.44,-1.43,-1.59,3.53,3.54,3.54
101.25,4.95,4.95,1.48,1.48,-1.48,-1.46,-1.64,3.47,3.47,3.46
102.27,4.91,4.91,1.52,1.52,-1.52,-1.49,-1.68,3.39,3.39,3.39
103.29,4.87,4.87,1.55,1.55,-1.55,-1.51,-1.73,3.32,3.32,3.32
104.32,4.83,4.83,1.58,1.58,-1.58,-1.54,-1.77,3.24,3.25,3.25
105.37,4.79,4.79,1.62,1.62,-1.62,-1.56,-1.82,3.17,3.17,3.17
106.42,4.75,4.75,1.65,1.65,-1.65,-1.58,-1.86,3.10,3.10,3.10
107.48,4.71,4.71,1.68,1.68,-1.68,-1.61,-1.90,3.03,3.03,3.03
108.56,4.67,4.67,1.72,1.72,-1.72,-1.63,-1.95,2.95,2.95,2.95
109.64,4.63,4.63,1.75,1.75,-1.75,-1.66,-1.99,2.88,2.88,2.88
110.74,4.59,4.59,1.78,1.78,-1.78,-1.68,-2.03,2.81,2.81,2.81
111.85,4.55,4.55,1.81,1.81,-1.81,-1.70,-2.07,2.74,2.74,2.74
112.97,4.51,4.51,1.85,1.85,-1.85,-1.73,-2.10,2.66,2.66,2.66
114.10,4.47,4.47,1.88,1.88,-1.88,-1.75,-2.14,2.59,2.59,2.59
115.24,4.43,4.43,1.91,1.91,-1.91,-1.77,-2.17,2.52,2.52,2.52
116.39,4.39,4.39,1.94,1.94,-1.94,-1.79,-2.20,2.45,2.45,2.45
117.55,4.35,4.35,1.97,1.97,-1.97,-1.81,-2.23,2.38,2.38,2.38
118.73,4.31,4.31,2.00,2.00,-2.00,-1.83,-2.26,2.31,2.31,2.31
119.92,4.27,4.27,2.03,2.03,-2.03,-1.86,-2.28,2.24,2.24,2.24
121.12,4.23,4.23,2.06,2.06,-2.06,-1.88,-2.30,2.17,2.17,2.17
122.33,4.19,4.19,2.09,2.08,-2.08,-1.89,-2.32,2.11,2.10,2.10
123.55,4.14,4.14,2.10,2.11,-2.11,-1.91,-2.33,2.03,2.04,2.04
124.79,4.10,4.10,2.13,2.13,-2.13,-1.93,-2.34,1.97,1.97,1.97
126.03,4.06,4.05,2.16,2.15,-2.15,-1.95,-2.35,1.91,1.90,1.90
127.29,4.01,4.01,2.17,2.18,-2.18,-1.97,-2.36,1.83,1.84,1.84
128.57,3.97,3.97,2.20,2.20,-2.20,-1.98,-2.36,1.77,1.77,1.77
129.85,3.93,3.92,2.22,2.22,-2.22,-2.00,-2.36,1.71,1.71,1.71
131.15,3.88,3.88,2.23,2.24,-2.24,-2.02,-2.36,1.64,1.65,1.65
132.46,3.84,3.84,2.26,2.26,-2.26,-2.03,-2.35,1.58,1.58,1.58
133.79,3.80,3.79,2.28,2.27,-2.27,-2.04,-2.34,1.53,1.52,1.52
135.12,3.75,3.75,2.29,2.29,-2.29,-2.06,-2.33,1.46,1.46,1.46
136.48,3.71,3.71,2.31,2.31,-2.31,-2.07,-2.31,1.40,1.40,1.40
137.84,3.67,3.66,2.33,2.32,-2.32,-2.08,-2.30,1.35,1.34,1.34
139.22,3.62,3.62,2.33,2.34,-2.34,-2.10,-2.28,1.28,1.29,1.29
140.61,3.58,3.58,2.35,2.35,-2.35,-2.11,-2.26,1.23,1.23,1.23
142.02,3.54,3.53,2.37,2.36,-2.36,-2.12,-2.24,1.18,1.17,1.17
143.44,3.49,3.49,2.37,2.37,-2.37,-2.13,-2.22,1.11,1.12,1.12
144.87,3.45,3.45,2.38,2.38,-2.39,-2.14,-2.20,1.06,1.07,1.07
146.32,3.41,3.41,2.40,2.39,-2.39,-2.15,-2.18,1.01,1.01,1.01
147.78,3.37,3.37,2.41,2.41,-2.40,-2.15,-2.16,0.97,0.96,0.96
149.26,3.32,3.32,2.41,2.41,-2.41,-2.16,-2.13,0.91,0.91,0.91
150.75,3.28,3.28,2.42,2.42,-2.41,-2.17,-2.11,0.87,0.86,0.86
152.26,3.23,3.23,2.42,2.42,-2.42,-2.17,-2.09,0.81,0.81,0.81
153.78,3.19,3.19,2.42,2.42,-2.42,-2.18,-2.06,0.77,0.77,0.77
155.32,3.14,3.14,2.42,2.42,-2.42,-2.18,-2.04,0.72,0.72,0.72
156.88,3.09,3.09,2.42,2.42,-2.42,-2.19,-2.02,0.67,0.67,0.67
158.44,3.05,3.05,2.42,2.42,-2.42,-2.19,-2.00,0.63,0.62,0.63
160.03,3.00,3.00,2.41,2.42,-2.42,-2.20,-1.98,0.58,0.58,0.59
161.63,2.96,2.96,2.43,2.42,-2.42,-2.20,-1.96,0.54,0.54,0.53
163.24,2.92,2.91,2.43,2.42,-2.42,-2.20,-1.95,0.50,0.49,0.49
164.88,2.87,2.87,2.42,2.42,-2.42,-2.20,-1.93,0.45,0.45,0.45
166.53,2.83,2.83,2.42,2.42,-2.42,-2.20,-1.91,0.41,0.41,0.41
168.19,2.79,2.79,2.41,2.41,-2.41,-2.20,-1.90,0.38,0.37,0.37
169.87,2.74,2.74,2.40,2.41,-2.40,-2.20,-1.89,0.33,0.34,0.34
171.57,2.70,2.70,2.40,2.40,-2.40,-2.20,-1.88,0.30,0.30,0.30
173.29,2.65,2.65,2.38,2.39,-2.39,-2.20,-1.87,0.26,0.26,0.26
175.02,2.61,2.61,2.38,2.38,-2.38,-2.19,-1.86,0.23,0.23,0.23
176.77,2.56,2.56,2.36,2.36,-2.36,-2.19,-1.86,0.19,0.20,0.20
178.54,2.52,2.52,2.36,2.35,-2.35,-2.18,-1.85,0.17,0.16,0.16
180.32,2.47,2.47,2.34,2.34,-2.34,-2.18,-1.85,0.13,0.13,0.13
182.13,2.43,2.43,2.33,2.33,-2.33,-2.17,-1.85,0.10,0.10,0.10
183.95,2.38,2.38,2.31,2.31,-2.31,-2.17,-1.85,0.07,0.07,0.07
185.79,2.34,2.34,2.30,2.29,-2.29,-2.16,-1.85,0.05,0.04,0.04
187.65,2.29,2.29,2.28,2.28,-2.28,-2.15,-1.85,0.01,0.01,0.01
189.52,2.25,2.25,2.26,2.26,-2.26,-2.15,-1.85,-0.01,-0.01,-0.01
191.42,2.20,2.20,2.24,2.24,-2.24,-2.14,-1.86,-0.04,-0.04,-0.04
193.33,2.16,2.16,2.23,2.22,-2.22,-2.13,-1.86,-0.07,-0.07,-0.07
195.27,2.11,2.11,2.20,2.20,-2.21,-2.12,-1.87,-0.10,-0.09,-0.09
197.22,2.07,2.07,2.18,2.19,-2.19,-2.11,-1.88,-0.12,-0.12,-0.12
199.19,2.03,2.03,2.17,2.17,-2.17,-2.10,-1.89,-0.14,-0.14,-0.14
201.18,1.99,1.99,2.15,2.15,-2.15,-2.09,-1.90,-0.16,-0.16,-0.16
203.19,1.95,1.95,2.13,2.13,-2.13,-2.08,-1.91,-0.18,-0.18,-0.18
205.23,1.90,1.90,2.10,2.10,-2.10,-2.06,-1.92,-0.20,-0.20,-0.21
207.28,1.85,1.85,2.08,2.08,-2.08,-2.05,-1.93,-0.23,-0.23,-0.23
209.35,1.81,1.81,2.06,2.06,-2.06,-2.04,-1.94,-0.25,-0.25,-0.25
211.44,1.77,1.77,2.03,2.03,-2.03,-2.02,-1.96,-0.26,-0.27,-0.27
213.56,1.73,1.73,2.01,2.01,-2.01,-2.01,-1.97,-0.28,-0.28,-0.28
215.69,1.68,1.68,1.98,1.99,-1.99,-1.99,-1.98,-0.31,-0.30,-0.30
217.85,1.64,1.64,1.96,1.96,-1.96,-1.98,-1.99,-0.32,-0.32,-0.32
220.03,1.60,1.60,1.94,1.94,-1.94,-1.96,-2.00,-0.34,-0.34,-0.34
222.23,1.56,1.56,1.91,1.91,-1.91,-1.95,-2.01,-0.35,-0.35,-0.35
224.45,1.52,1.52,1.89,1.89,-1.89,-1.93,-2.02,-0.37,-0.37,-0.37
226.70,1.48,1.48,1.86,1.86,-1.86,-1.91,-2.03,-0.38,-0.38,-0.39
228.96,1.44,1.44,1.84,1.84,-1.84,-1.89,-2.03,-0.40,-0.40,-0.40
231.25,1.39,1.39,1.80,1.81,-1.81,-1.87,-2.04,-0.42,-0.42,-0.42
233.57,1.35,1.35,1.78,1.78,-1.79,-1.85,-2.04,-0.44,-0.44,-0.43
235.90,1.31,1.31,1.76,1.76,-1.76,-1.83,-2.04,-0.45,-0.45,-0.45
238.26,1.27,1.27,1.73,1.74,-1.73,-1.81,-2.04,-0.46,-0.46,-0.47
240.64,1.23,1.23,1.71,1.71,-1.70,-1.79,-2.03,-0.47,-0.47,-0.48
243.05,1.19,1.19,1.68,1.68,-1.67,-1.77,-2.03,-0.48,-0.49,-0.49
245.48,1.14,1.14,1.64,1.64,-1.65,-1.75,-2.01,-0.51,-0.50,-0.50
247.93,1.10,1.10,1.61,1.61,-1.62,-1.73,-2.00,-0.52,-0.52,-0.51
250.41,1.06,1.06,1.58,1.58,-1.59,-1.71,-1.99,-0.53,-0.53,-0.52
252.92,1.02,1.02,1.55,1.56,-1.56,-1.68,-1.97,-0.54,-0.53,-0.53
255.45,0.98,0.98,1.52,1.53,-1.52,-1.66,-1.95,-0.54,-0.54,-0.55
258.00,0.95,0.94,1.50,1.50,-1.49,-1.63,-1.92,-0.54,-0.55,-0.55
260.58,0.90,0.90,1.46,1.47,-1.46,-1.61,-1.90,-0.56,-0.56,-0.56
263.19,0.86,0.86,1.43,1.43,-1.44,-1.58,-1.87,-0.58,-0.58,-0.57
265.82,0.82,0.82,1.40,1.40,-1.41,-1.56,-1.84,-0.59,-0.59,-0.58
268.48,0.78,0.78,1.37,1.37,-1.38,-1.53,-1.80,-0.60,-0.60,-0.59
271.16,0.75,0.75,1.35,1.35,-1.35,-1.51,-1.77,-0.60,-0.60,-0.60
273.87,0.72,0.71,1.33,1.32,-1.32,-1.48,-1.73,-0.60,-0.61,-0.61
276.61,0.68,0.68,1.29,1.30,-1.29,-1.45,-1.69,-0.61,-0.61,-0.61
279.38,0.64,0.64,1.26,1.27,-1.26,-1.42,-1.64,-0.62,-0.62,-0.62
282.17,0.61,0.61,1.24,1.23,-1.23,-1.39,-1.60,-0.62,-0.62,-0.63
284.99,0.57,0.57,1.20,1.19,-1.20,-1.36,-1.55,-0.63,-0.63,-0.63
287.84,0.53,0.53,1.15,1.16,-1.16,-1.33,-1.51,-0.63,-0.63,-0.62
290.72,0.49,0.49,1.12,1.12,-1.12,-1.30,-1.46,-0.64,-0.63,-0.63
293.63,0.46,0.46,1.09,1.09,-1.09,-1.27,-1.41,-0.63,-0.63,-0.64
296.57,0.42,0.42,1.05,1.05,-1.05,-1.24,-1.36,-0.63,-0.63,-0.63
299.53,0.39,0.39,1.02,1.02,-1.01,-1.21,-1.31,-0.63,-0.63,-0.63
302.53,0.35,0.35,0.98,0.98,-0.98,-1.18,-1.26,-0.63,-0.63,-0.63
305.55,0.31,0.31,0.94,0.94,-0.94,-1.15,-1.21,-0.64,-0.63,-0.63
308.61,0.28,0.28,0.91,0.91,-0.91,-1.11,-1.16,-0.63,-0.63,-0.63
311.69,0.24,0.24,0.87,0.87,-0.87,-1.08,-1.10,-0.64,-0.63,-0.63
314.81,0.21,0.21,0.84,0.84,-0.84,-1.05,-1.05,-0.63,-0.63,-0.63
317.96,0.18,0.18,0.81,0.81,-0.80,-1.01,-1.00,-0.63,-0.63,-0.63
321.14,0.15,0.15,0.78,0.78,-0.77,-0.98,-0.95,-0.62,-0.62,-0.63
324.35,0.11,0.11,0.74,0.74,-0.74,-0.94,-0.89,-0.63,-0.62,-0.63
327.59,0.08,0.08,0.70,0.70,-0.70,-0.91,-0.84,-0.62,-0.63,-0.62
330.87,0.04,0.04,0.66,0.66,-0.67,-0.87,-0.79,-0.63,-0.63,-0.62
334.18,0.01,0.01,0.63,0.63,-0.63,-0.83,-0.74,-0.62,-0.62,-0.62
337.52,-0.02,-0.02,0.60,0.60,-0.60,-0.80,-0.69,-0.62,-0.62,-0.62
340.90,-0.05,-0.05,0.56,0.56,-0.56,-0.76,-0.64,-0.61,-0.61,-0.62
344.30,-0.08,-0.08,0.53,0.53,-0.53,-0.72,-0.59,-0.61,-0.61,-0.61
347.75,-0.11,-0.11,0.49,0.49,-0.49,-0.68,-0.54,-0.60,-0.60,-0.60
351.23,-0.14,-0.14,0.46,0.46,-0.46,-0.64,-0.49,-0.60,-0.60,-0.61
354.74,-0.17,-0.17,0.42,0.42,-0.42,-0.60,-0.44,-0.59,-0.59,-0.59
358.28,-0.20,-0.20,0.39,0.39,-0.39,-0.56,-0.39,-0.59,-0.59,-0.59
361.87,-0.23,-0.23,0.35,0.35,-0.35,-0.52,-0.34,-0.58,-0.58,-0.58
365.49,-0.26,-0.26,0.32,0.32,-0.32,-0.48,-0.29,-0.58,-0.58,-0.58
369.14,-0.29,-0.29,0.29,0.28,-0.29,-0.44,-0.24,-0.58,-0.58,-0.58
372.83,-0.32,-0.32,0.24,0.25,-0.25,-0.40,-0.19,-0.57,-0.57,-0.56
376.56,-0.34,-0.34,0.22,0.22,-0.22,-0.36,-0.15,-0.56,-0.56,-0.56
380.33,-0.37,-0.37,0.19,0.19,-0.19,-0.32,-0.10,-0.56,-0.56,-0.56
384.13,-0.40,-0.40,0.16,0.16,-0.15,-0.28,-0.05,-0.55,-0.55,-0.56
387.97,-0.43,-0.43,0.12,0.12,-0.12,-0.23,-0.01,-0.55,-0.55,-0.55
391.85,-0.45,-0.46,0.08,0.09,-0.09,-0.19,0.04,-0.54,-0.54,-0.53
395.77,-0.48,-0.48,0.05,0.05,-0.05,-0.15,0.09,-0.53,-0.53,-0.54
399.73,-0.51,-0.51,0.02,0.02,-0.02,-0.11,0.13,-0.53,-0.53,-0.53
403.72,-0.53,-0.54,-0.01,-0.01,0.01,-0.06,0.18,-0.52,-0.52,-0.52
407.76,-0.56,-0.56,-0.04,-0.04,0.04,-0.02,0.22,-0.52,-0.52,-0.52
411.84,-0.59,-0.59,-0.08,-0.07,0.08,0.02,0.26,-0.52,-0.51,-0.51
415.96,-0.61,-0.61,-0.11,-0.10,0.11,0.07,0.31,-0.50,-0.51,-0.50
420.12,-0.64,-0.64,-0.13,-0.14,0.14,0.11,0.35,-0.51,-0.50,-0.51
424.32,-0.66,-0.66,-0.16,-0.17,0.17,0.15,0.39,-0.50,-0.50,-0.50
428.56,-0.69,-0.69,-0.20,-0.20,0.20,0.20,0.43,-0.50,-0.49,-0.49
432.85,-0.71,-0.71,-0.23,-0.23,0.23,0.24,0.47,-0.48,-0.48,-0.48
437.18,-0.73,-0.73,-0.25,-0.25,0.26,0.29,0.51,-0.47,-0.48,-0.48
441.55,-0.75,-0.75,-0.28,-0.28,0.29,0.33,0.55,-0.46,-0.47,-0.47
445.96,-0.78,-0.78,-0.32,-0.32,0.32,0.37,0.58,-0.46,-0.46,-0.46
450.42,-0.80,-0.80,-0.35,-0.35,0.35,0.42,0.62,-0.45,-0.45,-0.45
454.93,-0.82,-0.82,-0.38,-0.38,0.38,0.46,0.65,-0.44,-0.44,-0.44
459.48,-0.84,-0.84,-0.41,-0.41,0.41,0.50,0.68,-0.43,-0.43,-0.43
464.07,-0.86,-0.86,-0.43,-0.44,0.44,0.54,0.72,-0.42,-0.42,-0.43
468.71,-0.88,-0.89,-0.46,-0.46,0.47,0.58,0.74,-0.41,-0.42,-0.42
473.40,-0.91,-0.91,-0.50,-0.49,0.49,0.62,0.77,-0.42,-0.41,-0.41
478.13,-0.93,-0.93,-0.53,-0.52,0.52,0.66,0.80,-0.41,-0.40,-0.40
482.91,-0.94,-0.95,-0.55,-0.55,0.55,0.70,0.82,-0.39,-0.39,-0.39
487.74,-0.96,-0.96,-0.58,-0.58,0.58,0.74,0.84,-0.38,-0.38,-0.38
492.62,-0.98,-0.98,-0.61,-0.60,0.61,0.78,0.86,-0.37,-0.37,-0.38
497.55,-1.00,-1.00,-0.63,-0.64,0.64,0.82,0.88,-0.36,-0.36,-0.37
502.52,-1.02,-1.02,-0.66,-0.67,0.67,0.86,0.90,-0.35,-0.35,-0.36
507.55,-1.04,-1.04,-0.70,-0.70,0.69,0.89,0.91,-0.35,-0.34,-0.34
512.62,-1.05,-1.05,-0.72,-0.72,0.72,0.93,0.93,-0.33,-0.33,-0.33
517.75,-1.07,-1.07,-0.75,-0.75,0.75,0.96,0.94,-0.33,-0.32,-0.32
522.93,-1.08,-1.08,-0.77,-0.77,0.77,0.99,0.95,-0.31,-0.31,-0.31
