frequency,raw,error,smoothed,error_smoothed,equalization,parametric_eq,fixed_band_eq,equalized_raw,equalized_smoothed,target
20.00,-37.59,-34.70,-37.59,-34.70,6.00,6.23,2.65,-31.59,-31.59,-2.89
20.20,-37.79,-34.89,-37.79,-34.89,6.00,6.23,2.72,-31.79,-31.79,-2.90
20.40,-37.94,-35.03,-37.93,-35.02,6.00,6.23,2.80,-31.94,-31.93,-2.91
20.61,-38.03,-35.10,-38.02,-35.10,6.00,6.23,2.88,-32.03,-32.02,-2.92
20.81,-38.05,-35.11,-38.05,-35.11,6.00,6.23,2.96,-32.05,-32.05,-2.93
21.02,-38.02,-35.08,-38.02,-35.07,6.00,6.23,3.05,-32.02,-32.02,-2.94
21.23,-37.95,-35.00,-37.95,-35.00,6.00,6.22,3.13,-31.95,-31.95,-2.95
21.44,-37.86,-34.89,-37.86,-34.90,6.00,6.22,3.22,-31.86,-31.86,-2.96
21.66,-37.77,-34.80,-37.77,-34.80,6.00,6.22,3.31,-31.77,-31.77,-2.97
21.87,-37.69,-34.70,-37.68,-34.70,6.00,6.22,3.41,-31.69,-31.68,-2.98
22.09,-37.60,-34.60,-37.60,-34.61,6.00,6.22,3.50,-31.60,-31.60,-2.99
22.31,-37.51,-34.50,-37.51,-34.51,6.00,6.22,3.60,-31.51,-31.51,-3.00
22.54,-37.41,-34.40,-37.40,-34.39,6.00,6.22,3.70,-31.41,-31.40,-3.01
22.76,-37.27,-34.24,-37.26,-34.25,6.00,6.22,3.81,-31.27,-31.26,-3.02
22.99,-37.11,-34.09,-37.11,-34.08,6.00,6.22,3.91,-31.11,-31.11,-3.02
23.22,-36.95,-33.92,-36.94,-33.91,6.00,6.22,4.02,-30.95,-30.94,-3.03
23.45,-36.79,-33.74,-36.80,-33.76,6.00,6.21,4.13,-30.79,-30.80,-3.04
23.69,-36.69,-33.64,-36.69,-33.64,6.00,6.21,4.25,-30.69,-30.69,-3.05
23.92,-36.63,-33.57,-36.63,-33.56,6.00,6.21,4.37,-30.63,-30.63,-3.06
24.16,-36.61,-33.54,-36.62,-33.54,6.00,6.21,4.49,-30.61,-30.62,-3.07
24.40,-36.65,-33.57,-36.64,-33.56,6.00,6.21,4.61,-30.65,-30.64,-3.08
24.65,-36.70,-33.61,-36.70,-33.62,6.00,6.21,4.73,-30.70,-30.70,-3.08
24.89,-36.77,-33.69,-36.77,-33.69,6.00,6.21,4.85,-30.77,-30.77,-3.08
25.14,-36.86,-33.78,-36.85,-33.77,6.00,6.20,4.98,-30.86,-30.85,-3.08
25.39,-36.94,-33.85,-36.94,-33.85,6.00,6.20,5.11,-30.94,-30.94,-3.09
25.65,-37.02,-33.92,-37.02,-33.93,6.00,6.20,5.23,-31.02,-31.02,-3.09
25.91,-37.10,-34.00,-37.10,-34.01,6.00,6.20,5.36,-31.10,-31.10,-3.09
26.16,-37.19,-34.10,-37.19,-34.10,6.00,6.20,5.49,-31.19,-31.19,-3.09
26.43,-37.28,-34.18,-37.28,-34.19,6.00,6.20,5.62,-31.28,-31.28,-3.09
26.69,-37.37,-34.28,-37.37,-34.28,6.00,6.19,5.75,-31.37,-31.37,-3.09
26.96,-37.44,-34.34,-37.44,-34.35,6.00,6.19,5.87,-31.44,-31.44,-3.09
27.23,-37.47,-34.37,-37.47,-34.38,6.00,6.19,6.00,-31.47,-31.47,-3.09
27.50,-37.44,-34.35,-37.41,-34.32,6.00,6.19,6.12,-31.44,-31.41,-3.09
27.77,-37.25,-34.16,-37.26,-34.16,6.00,6.19,6.24,-31.25,-31.26,-3.09
28.05,-37.01,-33.90,-37.01,-33.91,6.00,6.19,6.35,-31.01,-31.01,-3.10
28.33,-36.70,-33.60,-36.70,-33.59,6.00,6.18,6.46,-30.70,-30.70,-3.10
28.62,-36.35,-33.24,-36.36,-33.25,6.00,6.18,6.57,-30.35,-30.36,-3.11
28.90,-36.02,-32.90,-36.02,-32.91,6.00,6.18,6.66,-30.02,-30.02,-3.11
29.19,-35.71,-32.58,-35.71,-32.58,6.00,6.18,6.76,-29.71,-29.71,-3.12
29.48,-35.43,-32.29,-35.43,-32.31,6.00,6.17,6.84,-29.43,-29.43,-3.13
29.78,-35.21,-32.08,-35.21,-32.07,6.00,6.17,6.92,-29.21,-29.21,-3.13
30.08,-35.03,-31.89,-35.03,-31.89,6.00,6.17,6.99,-29.03,-29.03,-3.14
30.38,-34.90,-31.76,-34.90,-31.76,6.00,6.17,7.05,-28.90,-28.90,-3.14
30.68,-34.81,-31.67,-34.81,-31.66,6.00,6.16,7.10,-28.81,-28.81,-3.14
30.99,-34.76,-31.62,-34.77,-31.62,6.00,6.16,7.15,-28.76,-28.77,-3.14
31.30,-34.77,-31.63,-34.77,-31.63,6.00,6.16,7.18,-28.77,-28.77,-3.14
31.61,-34.81,-31.67,-34.81,-31.67,6.00,6.16,7.20,-28.81,-28.81,-3.14
31.93,-34.87,-31.73,-34.87,-31.73,6.00,6.15,7.22,-28.87,-28.87,-3.13
32.24,-34.93,-31.80,-34.92,-31.79,6.00,6.15,7.22,-28.93,-28.92,-3.13
32.57,-34.96,-31.83,-34.96,-31.84,6.00,6.15,7.22,-28.96,-28.96,-3.13
32.89,-34.97,-31.85,-34.97,-31.85,6.00,6.14,7.21,-28.97,-28.97,-3.12
33.22,-34.94,-31.81,-34.92,-31.80,6.00,6.14,7.19,-28.94,-28.92,-3.12
33.55,-34.81,-31.68,-34.81,-31.68,6.00,6.14,7.16,-28.81,-28.81,-3.12
33.89,-34.62,-31.49,-34.62,-31.50,6.00,6.13,7.13,-28.62,-28.62,-3.13
34.23,-34.38,-31.25,-34.38,-31.25,6.00,6.13,7.09,-28.38,-28.38,-3.13
34.57,-34.09,-30.95,-34.08,-30.94,6.00,6.13,7.05,-28.09,-28.08,-3.13
34.92,-33.72,-30.58,-33.71,-30.57,6.00,6.12,7.00,-27.72,-27.71,-3.14
35.27,-33.31,-30.16,-33.31,-30.16,6.00,6.12,6.95,-27.31,-27.31,-3.15
35.62,-32.88,-29.72,-32.89,-29.73,6.00,6.12,6.89,-26.88,-26.89,-3.16
35.97,-32.49,-29.32,-32.50,-29.32,6.00,6.11,6.83,-26.49,-26.50,-3.17
36.33,-32.15,-28.97,-32.16,-28.97,6.00,6.11,6.78,-26.15,-26.16,-3.18
36.70,-31.88,-28.68,-31.88,-28.69,6.00,6.10,6.72,-25.88,-25.88,-3.20
37.06,-31.68,-28.46,-31.68,-28.47,6.00,6.10,6.66,-25.68,-25.68,-3.21
37.43,-31.55,-28.31,-31.54,-28.31,6.00,6.09,6.60,-25.55,-25.54,-3.23
37.81,-31.46,-28.22,-31.45,-28.21,6.00,6.09,6.54,-25.46,-25.45,-3.24
38.19,-31.40,-28.14,-31.40,-28.14,6.00,6.08,6.48,-25.40,-25.40,-3.26
38.57,-31.37,-28.10,-31.37,-28.10,6.00,6.08,6.43,-25.37,-25.37,-3.27
38.95,-31.35,-28.07,-31.36,-28.07,6.00,6.07,6.38,-25.35,-25.36,-3.28
39.34,-31.36,-28.06,-31.35,-28.06,6.00,6.07,6.33,-25.36,-25.35,-3.29
39.74,-31.33,-28.03,-31.33,-28.03,6.00,6.06,6.28,-25.33,-25.33,-3.30
40.14,-31.27,-27.96,-31.26,-27.95,6.00,6.06,6.24,-25.27,-25.26,-3.31
40.54,-31.14,-27.83,-31.12,-27.81,6.00,6.05,6.20,-25.14,-25.12,-3.31
40.94,-30.92,-27.60,-30.92,-27.61,6.00,6.05,6.16,-24.92,-24.92,-3.31
41.35,-30.70,-27.37,-30.70,-27.38,6.00,6.04,6.13,-24.70,-24.70,-3.32
41.76,-30.47,-27.14,-30.48,-27.16,6.00,6.03,6.10,-24.47,-24.48,-3.32
42.18,-30.30,-26.98,-30.30,-26.98,6.00,6.03,6.08,-24.30,-24.30,-3.31
42.60,-30.16,-26.84,-30.15,-26.84,6.00,6.02,6.06,-24.16,-24.15,-3.31
43.03,-30.04,-26.73,-30.04,-26.73,6.00,6.01,6.05,-24.04,-24.04,-3.31
43.46,-29.95,-26.65,-29.95,-26.64,6.00,6.01,6.03,-23.95,-23.95,-3.30
43.90,-29.90,-26.61,-29.90,-26.61,6.00,6.00,6.03,-23.90,-23.90,-3.29
44.33,-29.89,-26.60,-29.90,-26.62,6.00,5.99,6.03,-23.89,-23.90,-3.29
44.78,-29.95,-26.67,-29.95,-26.66,6.00,5.98,6.03,-23.95,-23.95,-3.28
45.23,-30.00,-26.72,-30.00,-26.72,6.00,5.98,6.04,-24.00,-24.00,-3.27
45.68,-30.03,-26.76,-30.02,-26.75,6.00,5.97,6.05,-24.03,-24.02,-3.27
46.13,-29.98,-26.70,-29.97,-26.70,6.00,5.96,6.07,-23.98,-23.97,-3.27
46.60,-29.84,-26.58,-29.83,-26.57,6.00,5.95,6.09,-23.84,-23.83,-3.26
47.06,-29.62,-26.35,-29.61,-26.35,6.00,5.94,6.12,-23.62,-23.61,-3.26
47.53,-29.32,-26.05,-29.32,-26.06,6.00,5.93,6.15,-23.32,-23.32,-3.26
48.01,-28.98,-25.72,-28.99,-25.72,6.00,5.92,6.18,-22.98,-22.99,-3.26
48.49,-28.63,-25.37,-28.62,-25.36,6.00,5.91,6.22,-22.63,-22.62,-3.26
48.97,-28.25,-24.98,-28.25,-24.98,6.00,5.91,6.26,-22.25,-22.25,-3.26
49.46,-27.87,-24.60,-27.87,-24.61,6.00,5.90,6.31,-21.87,-21.87,-3.26
49.96,-27.50,-24.23,-27.50,-24.23,6.00,5.89,6.35,-21.50,-21.50,-3.27
50.46,-27.15,-23.88,-27.15,-23.88,6.00,5.87,6.41,-21.15,-21.15,-3.27
50.96,-26.82,-23.53,-26.82,-23.54,6.00,5.86,6.46,-20.82,-20.82,-3.28
51.47,-26.51,-23.22,-26.50,-23.22,6.00,5.85,6.51,-20.51,-20.50,-3.28
51.99,-26.20,-22.92,-26.20,-22.92,6.00,5.84,6.57,-20.20,-20.20,-3.28
52.51,-25.92,-22.64,-25.92,-22.63,6.00,5.83,6.63,-19.92,-19.92,-3.28
53.03,-25.65,-22.37,-25.65,-22.36,6.00,5.82,6.69,-19.65,-19.65,-3.28
53.56,-25.40,-22.12,-25.40,-22.12,6.00,5.81,6.75,-19.40,-19.40,-3.28
54.10,-25.18,-21.90,-25.18,-21.90,6.00,5.80,6.81,-19.18,-19.18,-3.28
54.64,-24.99,-21.71,-24.98,-21.70,6.00,5.78,6.87,-18.99,-18.98,-3.28
55.18,-24.80,-21.51,-24.79,-21.51,6.00,5.77,6.93,-18.80,-18.79,-3.28
55.74,-24.59,-21.31,-24.59,-21.31,6.00,5.76,6.98,-18.59,-18.59,-3.28
56.29,-24.38,-21.09,-24.38,-21.10,6.00,5.75,7.04,-18.38,-18.38,-3.28
56.86,-24.17,-20.89,-24.17,-20.89,6.00,5.73,7.09,-18.17,-18.17,-3.28
57.42,-23.97,-20.68,-23.97,-20.68,6.00,5.72,7.13,-17.97,-17.97,-3.28
58.00,-23.77,-20.49,-23.76,-20.48,6.00,5.71,7.17,-17.77,-17.76,-3.28
58.58,-23.57,-20.29,-23.56,-20.28,6.00,5.70,7.20,-17.57,-17.56,-3.28
59.16,-23.38,-20.09,-23.39,-20.10,6.00,5.68,7.23,-17.38,-17.39,-3.28
59.76,-23.24,-19.96,-23.24,-19.96,6.00,5.67,7.25,-17.24,-17.24,-3.28
60.35,-23.13,-19.85,-23.13,-19.85,6.00,5.66,7.27,-17.13,-17.13,-3.28
60.96,-23.07,-19.79,-23.06,-19.78,6.00,5.64,7.27,-17.07,-17.06,-3.28
61.57,-23.03,-19.74,-23.03,-19.75,6.00,5.63,7.27,-17.03,-17.03,-3.29
62.18,-23.04,-19.75,-23.04,-19.74,6.00,5.61,7.26,-17.04,-17.04,-3.29
62.80,-23.06,-19.77,-23.06,-19.76,6.00,5.60,7.25,-17.06,-17.06,-3.29
63.43,-23.09,-19.79,-23.08,-19.78,6.00,5.59,7.22,-17.09,-17.08,-3.30
64.07,-23.11,-19.81,-23.10,-19.80,6.00,5.57,7.19,-17.11,-17.10,-3.30
64.71,-23.12,-19.82,-23.12,-19.82,6.00,5.56,7.14,-17.12,-17.12,-3.30
65.35,-23.14,-19.84,-23.14,-19.84,6.00,5.55,7.09,-17.14,-17.14,-3.30
66.01,-23.16,-19.86,-23.15,-19.85,6.00,5.54,7.03,-17.16,-17.15,-3.30
66.67,-23.17,-19.87,-23.17,-19.86,6.00,5.52,6.97,-17.17,-17.17,-3.30
67.33,-23.18,-19.88,-23.19,-19.89,6.00,5.51,6.90,-17.18,-17.19,-3.30
68.01,-23.23,-19.93,-23.22,-19.92,6.00,5.50,6.82,-17.23,-17.22,-3.30
68.69,-23.28,-19.98,-23.28,-19.98,6.00,5.49,6.74,-17.28,-17.28,-3.30
69.37,-23.35,-20.05,-23.35,-20.05,6.00,5.48,6.65,-17.35,-17.35,-3.30
70.07,-23.43,-20.14,-23.42,-20.13,6.00,5.47,6.56,-17.43,-17.42,-3.29
70.77,-23.51,-20.22,-23.51,-20.22,6.00,5.46,6.47,-17.51,-17.51,-3.29
71.48,-23.60,-20.30,-23.60,-20.31,6.00,5.45,6.37,-17.60,-17.60,-3.29
72.19,-23.70,-20.41,-23.69,-20.40,6.00,5.45,6.27,-17.70,-17.69,-3.29
72.91,-23.76,-20.48,-23.77,-20.48,6.00,5.44,6.17,-17.76,-17.77,-3.28
73.64,-23.83,-20.55,-23.83,-20.55,6.00,5.44,6.07,-17.83,-17.83,-3.28
74.38,-23.88,-20.60,-23.86,-20.58,6.00,5.43,5.97,-17.88,-17.86,-3.28
75.12,-23.85,-20.57,-23.85,-20.58,6.00,5.43,5.87,-17.85,-17.85,-3.28
75.87,-23.81,-20.54,-23.81,-20.54,6.00,5.43,5.77,-17.81,-17.81,-3.27
76.63,-23.75,-20.47,-23.74,-20.47,6.00,5.43,5.67,-17.75,-17.74,-3.27
77.40,-23.65,-20.38,-23.65,-20.38,6.00,5.44,5.58,-17.65,-17.65,-3.27
78.17,-23.54,-20.26,-23.54,-20.27,6.00,5.44,5.48,-17.54,-17.54,-3.27
78.95,-23.42,-20.15,-23.42,-20.16,6.00,5.45,5.39,-17.42,-17.42,-3.26
79.74,-23.32,-20.05,-23.32,-20.06,6.00,5.46,5.30,-17.32,-17.32,-3.26
80.54,-23.23,-19.97,-23.22,-19.96,6.00,5.48,5.21,-17.23,-17.22,-3.26
81.35,-23.14,-19.89,-23.13,-19.87,6.00,5.49,5.13,-17.14,-17.13,-3.25
82.16,-23.04,-19.79,-23.05,-19.80,6.00,5.52,5.05,-17.04,-17.05,-3.25
82.98,-22.99,-19.74,-22.99,-19.74,6.00,5.54,4.97,-16.99,-16.99,-3.25
83.81,-22.96,-19.72,-22.96,-19.72,6.00,5.56,4.89,-16.96,-16.96,-3.24
84.65,-22.97,-19.73,-22.96,-19.72,6.00,5.59,4.82,-16.97,-16.96,-3.24
85.50,-22.97,-19.74,-22.97,-19.74,6.00,5.63,4.75,-16.97,-16.97,-3.23
86.35,-22.99,-19.77,-22.99,-19.76,6.00,5.67,4.69,-16.99,-16.99,-3.22
87.22,-23.02,-19.80,-23.02,-19.80,6.00,5.71,4.63,-17.02,-17.02,-3.22
88.09,-23.07,-19.86,-23.07,-19.85,6.00,5.75,4.57,-17.07,-17.07,-3.21
88.97,-23.13,-19.92,-23.13,-19.92,6.00,5.80,4.52,-17.13,-17.13,-3.21
89.86,-23.21,-20.01,-23.21,-20.01,6.00,5.86,4.47,-17.21,-17.21,-3.20
90.76,-23.31,-20.11,-23.31,-20.11,6.00,5.92,4.42,-17.31,-17.31,-3.20
91.66,-23.41,-20.22,-23.41,-20.21,6.00,5.98,4.38,-17.41,-17.41,-3.19
92.58,-23.51,-20.32,-23.50,-20.31,6.00,6.04,4.34,-17.51,-17.50,-3.19
93.51,-23.58,-20.39,-23.58,-20.39,6.00,6.11,4.30,-17.58,-17.58,-3.19
94.44,-23.63,-20.44,-23.64,-20.45,6.00,6.18,4.27,-17.63,-17.64,-3.19
95.39,-23.67,-20.48,-23.66,-20.47,6.00,6.25,4.24,-17.67,-17.66,-3.19
96.34,-23.66,-20.47,-23.65,-20.46,6.00,6.31,4.21,-17.66,-17.65,-3.19
97.30,-23.58,-20.38,-23.58,-20.39,6.00,6.38,4.18,-17.58,-17.58,-3.19
98.28,-23.44,-20.24,-23.43,-20.24,6.00,6.44,4.16,-17.44,-17.43,-3.20
99.26,-23.22,-20.02,-23.21,-20.00,6.00,6.50,4.14,-17.22,-17.21,-3.20
100.25,-22.89,-19.68,-22.90,-19.69,6.00,6.55,4.12,-16.89,-16.90,-3.20
101.25,-22.51,-19.29,-22.51,-19.30,6.00,6.60,4.10,-16.51,-16.51,-3.21
102.27,-22.05,-18.84,-22.04,-18.83,6.00,6.62,4.09,-16.05,-16.04,-3.21
103.29,-21.52,-18.31,-21.52,-18.30,6.00,6.64,4.08,-15.52,-15.52,-3.21
104.32,-20.93,-17.71,-20.94,-17.72,6.00,6.63,4.06,-14.93,-14.94,-3.21
105.37,-20.31,-17.10,-20.31,-17.09,6.00,6.62,4.05,-14.31,-14.31,-3.21
106.42,-19.65,-16.44,-19.64,-16.43,6.00,6.57,4.04,-13.65,-13.64,-3.21
107.48,-18.94,-15.72,-18.94,-15.73,6.00,6.51,4.02,-12.94,-12.94,-3.21
108.56,-18.22,-15.01,-18.22,-15.01,6.00,6.41,4.01,-12.22,-12.22,-3.21
109.64,-17.47,-14.27,-17.48,-14.27,6.00,6.31,4.00,-11.47,-11.48,-3.20
110.74,-16.73,-13.53,-16.73,-13.53,6.00,6.17,3.98,-10.73,-10.73,-3.20
111.85,-15.98,-12.78,-15.98,-12.78,6.00,6.02,3.96,-9.98,-9.98,-3.20
112.97,-15.23,-12.03,-15.23,-12.03,6.00,5.83,3.94,-9.23,-9.23,-3.20
114.10,-14.49,-11.29,-14.48,-11.28,6.00,5.64,3.92,-8.49,-8.48,-3.20
115.24,-13.74,-10.54,-13.74,-10.54,6.02,5.42,3.89,-7.72,-7.72,-3.20
116.39,-13.01,-9.80,-13.01,-9.80,6.07,5.19,3.86,-6.94,-6.95,-3.21
117.55,-12.30,-9.08,-12.29,-9.08,6.10,4.95,3.82,-6.19,-6.19,-3.21
118.73,-11.60,-8.38,-11.60,-8.37,6.11,4.70,3.78,-5.49,-5.49,-3.22
119.92,-10.91,-7.68,-10.91,-7.68,6.05,4.44,3.73,-4.86,-4.87,-3.23
121.12,-10.25,-7.01,-10.25,-7.01,5.92,4.17,3.68,-4.33,-4.33,-3.24
122.33,-9.61,-6.36,-9.60,-6.35,5.71,3.90,3.62,-3.90,-3.90,-3.25
123.55,-8.98,-5.72,-8.99,-5.72,5.42,3.63,3.56,-3.56,-3.57,-3.26
124.79,-8.39,-5.12,-8.39,-5.11,5.04,3.36,3.49,-3.35,-3.34,-3.27
126.03,-7.82,-4.53,-7.82,-4.53,4.60,3.09,3.42,-3.22,-3.22,-3.28
127.29,-7.27,-3.96,-7.27,-3.97,4.10,2.81,3.33,-3.17,-3.18,-3.30
128.57,-6.75,-3.44,-6.75,-3.43,3.56,2.54,3.25,-3.19,-3.19,-3.31
129.85,-6.25,-2.92,-6.25,-2.92,3.00,2.27,3.15,-3.25,-3.24,-3.32
131.15,-5.77,-2.44,-5.77,-2.44,2.46,2.00,3.05,-3.31,-3.31,-3.33
132.46,-5.31,-1.96,-5.31,-1.97,1.97,1.73,2.94,-3.34,-3.34,-3.34
133.79,-4.88,-1.54,-4.87,-1.52,1.52,1.47,2.83,-3.35,-3.35,-3.34
135.12,-4.45,-1.09,-4.45,-1.10,1.10,1.20,2.71,-3.35,-3.35,-3.35
136.48,-4.05,-0.70,-4.05,-0.70,0.69,0.93,2.59,-3.36,-3.36,-3.35
137.84,-3.67,-0.32,-3.66,-0.31,0.31,0.66,2.46,-3.36,-3.36,-3.35
139.22,-3.30,0.05,-3.30,0.05,-0.06,0.39,2.32,-3.36,-3.36,-3.35
140.61,-2.95,0.40,-2.95,0.40,-0.41,0.12,2.18,-3.35,-3.35,-3.35
142.02,-2.62,0.73,-2.62,0.73,-0.73,-0.15,2.04,-3.35,-3.35,-3.35
143.44,-2.32,1.03,-2.31,1.04,-1.03,-0.42,1.90,-3.35,-3.35,-3.35
144.87,-2.04,1.31,-2.03,1.32,-1.31,-0.70,1.75,-3.35,-3.35,-3.35
146.32,-1.77,1.58,-1.77,1.58,-1.57,-0.96,1.60,-3.34,-3.35,-3.35
147.78,-1.55,1.81,-1.54,1.81,-1.80,-1.22,1.44,-3.35,-3.34,-3.35
149.26,-1.33,2.02,-1.33,2.02,-2.01,-1.44,1.28,-3.34,-3.35,-3.35
150.75,-1.16,2.20,-1.16,2.20,-2.20,-1.67,1.13,-3.35,-3.35,-3.35
152.26,-1.00,2.35,-0.99,2.36,-2.36,-1.85,0.96,-3.35,-3.35,-3.35
153.78,-0.86,2.49,-0.85,2.50,-2.50,-2.02,0.80,-3.35,-3.35,-3.35
155.32,-0.73,2.62,-0.73,2.62,-2.62,-2.14,0.64,-3.35,-3.35,-3.35
156.88,-0.63,2.72,-0.63,2.72,-2.72,-2.26,0.47,-3.35,-3.35,-3.35
158.44,-0.55,2.80,-0.54,2.81,-2.81,-2.35,0.30,-3.36,-3.35,-3.35
160.03,-0.47,2.88,-0.47,2.88,-2.89,-2.44,0.13,-3.35,-3.36,-3.35
161.63,-0.42,2.94,-0.41,2.95,-2.95,-2.51,-0.04,-3.37,-3.36,-3.36
163.24,-0.37,3.00,-0.37,3.00,-3.00,-2.59,-0.21,-3.37,-3.36,-3.37
164.88,-0.33,3.04,-0.33,3.04,-3.04,-2.67,-0.38,-3.37,-3.37,-3.37
166.53,-0.30,3.07,-0.30,3.07,-3.07,-2.75,-0.56,-3.37,-3.37,-3.37
168.19,-0.28,3.09,-0.28,3.09,-3.10,-2.84,-0.73,-3.37,-3.37,-3.37
169.87,-0.27,3.10,-0.26,3.11,-3.12,-2.92,-0.91,-3.38,-3.38,-3.37
171.57,-0.25,3.13,-0.25,3.13,-3.13,-3.02,-1.09,-3.38,-3.38,-3.38
173.29,-0.24,3.14,-0.24,3.15,-3.15,-3.11,-1.27,-3.39,-3.38,-3.38
175.02,-0.22,3.16,-0.22,3.16,-3.16,-3.21,-1.45,-3.38,-3.38,-3.38
176.77,-0.21,3.17,-0.21,3.18,-3.18,-3.31,-1.63,-3.38,-3.38,-3.38
178.54,-0.19,3.19,-0.19,3.19,-3.20,-3.42,-1.81,-3.38,-3.38,-3.38
180.32,-0.17,3.21,-0.17,3.21,-3.22,-3.52,-1.99,-3.38,-3.39,-3.38
182.13,-0.15,3.23,-0.14,3.24,-3.24,-3.63,-2.18,-3.39,-3.38,-3.38
183.95,-0.12,3.26,-0.11,3.27,-3.27,-3.73,-2.36,-3.38,-3.38,-3.38
185.79,-0.08,3.30,-0.08,3.30,-3.30,-3.84,-2.55,-3.38,-3.38,-3.38
187.65,-0.05,3.33,-0.05,3.33,-3.34,-3.94,-2.74,-3.38,-3.39,-3.38
189.52,-0.02,3.36,-0.01,3.38,-3.38,-4.05,-2.93,-3.40,-3.39,-3.38
191.42,0.04,3.43,0.04,3.43,-3.43,-4.15,-3.12,-3.39,-3.39,-3.39
193.33,0.09,3.48,0.09,3.48,-3.48,-4.26,-3.31,-3.39,-3.39,-3.39
195.27,0.15,3.54,0.15,3.54,-3.54,-4.36,-3.50,-3.39,-3.39,-3.39
197.22,0.21,3.60,0.21,3.61,-3.61,-4.46,-3.70,-3.39,-3.39,-3.39
199.19,0.28,3.67,0.28,3.68,-3.68,-4.56,-3.89,-3.39,-3.39,-3.39
201.18,0.36,3.75,0.36,3.75,-3.75,-4.65,-4.09,-3.39,-3.39,-3.39
203.19,0.43,3.82,0.44,3.83,-3.83,-4.75,-4.28,-3.40,-3.39,-3.39
205.23,0.51,3.90,0.52,3.91,-3.91,-4.84,-4.47,-3.40,-3.39,-3.39
207.28,0.60,3.99,0.60,3.99,-3.99,-4.93,-4.67,-3.39,-3.39,-3.39
209.35,0.68,4.07,0.68,4.08,-4.08,-5.02,-4.86,-3.39,-3.39,-3.39
211.44,0.77,4.16,0.77,4.17,-4.16,-5.10,-5.05,-3.39,-3.39,-3.39
213.56,0.85,4.25,0.85,4.25,-4.25,-5.18,-5.24,-3.40,-3.40,-3.40
215.69,0.94,4.34,0.94,4.34,-4.34,-5.26,-5.42,-3.40,-3.40,-3.40
217.85,1.02,4.42,1.03,4.43,-4.43,-5.34,-5.60,-3.41,-3.40,-3.40
220.03,1.11,4.51,1.11,4.52,-4.51,-5.41,-5.78,-3.40,-3.40,-3.40
222.23,1.20,4.60,1.20,4.60,-4.60,-5.47,-5.95,-3.40,-3.40,-3.40
224.45,1.28,4.68,1.28,4.69,-4.68,-5.54,-6.11,-3.40,-3.40,-3.40
226.70,1.36,4.76,1.36,4.77,-4.77,-5.60,-6.27,-3.40,-3.40,-3.40
228.96,1.44,4.84,1.44,4.84,-4.85,-5.66,-6.42,-3.40,-3.41,-3.40
231.25,1.51,4.91,1.51,4.92,-4.92,-5.71,-6.56,-3.41,-3.41,-3.40
233.57,1.58,4.98,1.59,4.99,-5.00,-5.75,-6.69,-3.42,-3.41,-3.40
235.90,1.65,5.07,1.65,5.07,-5.07,-5.80,-6.80,-3.41,-3.41,-3.42
238.26,1.72,5.14,1.72,5.14,-5.13,-5.84,-6.91,-3.41,-3.41,-3.42
240.64,1.77,5.19,1.77,5.20,-5.19,-5.87,-6.99,-3.41,-3.41,-3.42
243.05,1.82,5.24,1.82,5.24,-5.24,-5.90,-7.07,-3.42,-3.42,-3.42
245.48,1.85,5.27,1.86,5.28,-5.28,-5.92,-7.13,-3.43,-3.42,-3.42
247.93,1.89,5.31,1.90,5.32,-5.32,-5.95,-7.18,-3.42,-3.42,-3.42
250.41,1.93,5.35,1.93,5.35,-5.34,-5.96,-7.21,-3.41,-3.42,-3.42
252.92,1.95,5.37,1.95,5.37,-5.37,-5.97,-7.23,-3.42,-3.42,-3.42
255.45,1.96,5.38,1.97,5.39,-5.39,-5.98,-7.23,-3.42,-3.42,-3.42
258.00,1.97,5.39,1.98,5.40,-5.40,-5.99,-7.22,-3.43,-3.43,-3.42
260.58,1.99,5.41,1.99,5.41,-5.42,-5.98,-7.19,-3.43,-3.43,-3.42
263.19,2.00,5.43,2.00,5.43,-5.43,-5.98,-7.15,-3.43,-3.43,-3.43
265.82,2.01,5.44,2.01,5.45,-5.45,-5.97,-7.09,-3.44,-3.43,-3.43
268.48,2.02,5.45,2.02,5.46,-5.46,-5.96,-7.03,-3.44,-3.44,-3.43
271.16,2.04,5.48,2.04,5.48,-5.48,-5.94,-6.95,-3.44,-3.44,-3.44
273.87,2.05,5.49,2.05,5.50,-5.50,-5.92,-6.87,-3.45,-3.45,-3.44
276.61,2.07,5.52,2.07,5.52,-5.52,-5.90,-6.77,-3.45,-3.45,-3.45
279.38,2.09,5.54,2.09,5.55,-5.54,-5.87,-6.67,-3.45,-3.45,-3.45
282.17,2.11,5.57,2.11,5.57,-5.57,-5.84,-6.56,-3.46,-3.46,-3.46
284.99,2.13,5.58,2.13,5.59,-5.59,-5.81,-6.45,-3.46,-3.46,-3.45
287.84,2.15,5.60,2.15,5.61,-5.61,-5.77,-6.33,-3.46,-3.46,-3.45
290.72,2.17,5.63,2.17,5.63,-5.63,-5.73,-6.20,-3.46,-3.46,-3.46
293.63,2.19,5.65,2.19,5.65,-5.65,-5.69,-6.08,-3.46,-3.46,-3.46
296.57,2.21,5.67,2.21,5.67,-5.67,-5.65,-5.95,-3.45,-3.46,-3.46
299.53,2.22,5.67,2.22,5.68,-5.68,-5.61,-5.82,-3.46,-3.46,-3.45
302.53,2.23,5.69,2.23,5.69,-5.69,-5.56,-5.69,-3.46,-3.46,-3.46
305.55,2.23,5.68,2.24,5.69,-5.70,-5.52,-5.56,-3.47,-3.46,-3.45
308.61,2.24,5.70,2.24,5.70,-5.70,-5.47,-5.43,-3.46,-3.46,-3.46
311.69,2.24,5.69,2.24,5.70,-5.69,-5.42,-5.31,-3.45,-3.45,-3.45
314.81,2.23,5.69,2.23,5.69,-5.68,-5.38,-5.18,-3.45,-3.45,-3.46
317.96,2.21,5.66,2.22,5.67,-5.67,-5.33,-5.06,-3.45,-3.45,-3.45
321.14,2.19,5.64,2.19,5.64,-5.64,-5.28,-4.93,-3.45,-3.45,-3.45
324.35,2.16,5.61,2.16,5.61,-5.61,-5.23,-4.81,-3.45,-3.45,-3.45
327.59,2.12,5.56,2.12,5.57,-5.57,-5.18,-4.69,-3.45,-3.45,-3.44
330.87,2.08,5.52,2.08,5.53,-5.53,-5.14,-4.58,-3.44,-3.44,-3.44
334.18,2.03,5.47,2.03,5.48,-5.47,-5.09,-4.47,-3.44,-3.44,-3.44
337.52,1.98,5.42,1.98,5.42,-5.41,-5.05,-4.36,-3.43,-3.43,-3.44
340.90,1.91,5.35,1.91,5.35,-5.35,-5.00,-4.25,-3.43,-3.43,-3.44
344.30,1.84,5.27,1.84,5.28,-5.27,-4.96,-4.14,-3.43,-3.43,-3.43
347.75,1.77,5.19,1.77,5.20,-5.20,-4.92,-4.04,-3.42,-3.43,-3.42
351.23,1.69,5.12,1.69,5.12,-5.12,-4.88,-3.95,-3.43,-3.43,-3.43
354.74,1.61,5.02,1.61,5.03,-5.04,-4.85,-3.85,-3.42,-3.42,-3.41
358.28,1.53,4.95,1.54,4.95,-4.96,-4.81,-3.76,-3.42,-3.42,-3.42
361.87,1.46,4.87,1.46,4.88,-4.88,-4.78,-3.67,-3.42,-3.42,-3.41
365.49,1.39,4.80,1.39,4.80,-4.80,-4.75,-3.58,-3.41,-3.41,-3.41
369.14,1.32,4.73,1.33,4.73,-4.73,-4.72,-3.50,-3.41,-3.41,-3.41
372.83,1.26,4.66,1.26,4.66,-4.67,-4.69,-3.42,-3.41,-3.41,-3.40
376.56,1.20,4.60,1.20,4.61,-4.61,-4.66,-3.34,-3.40,-3.41,-3.40
380.33,1.14,4.54,1.15,4.55,-4.55,-4.63,-3.26,-3.41,-3.40,-3.40
