frequency,raw,error,smoothed,error_smoothed,equalization,parametric_eq,equalized_raw,equalized_smoothed,target
20.00,-3.67,-5.01,-3.56,-4.86,4.86,1.37,1.19,1.31,1.33
20.20,-3.60,-4.94,-3.54,-4.84,4.84,1.41,1.24,1.30,1.33
20.40,-3.54,-4.87,-3.52,-4.81,4.81,1.45,1.27,1.30,1.33
20.61,-3.47,-4.81,-3.49,-4.78,4.78,1.49,1.31,1.30,1.33
20.81,-3.40,-4.73,-3.46,-4.75,4.75,1.54,1.35,1.29,1.33
21.02,-3.34,-4.67,-3.42,-4.71,4.71,1.58,1.37,1.29,1.33
21.23,-3.29,-4.62,-3.38,-4.67,4.67,1.63,1.38,1.29,1.33
21.44,-3.24,-4.57,-3.34,-4.63,4.63,1.68,1.38,1.29,1.33
21.66,-3.19,-4.52,-3.29,-4.58,4.58,1.73,1.38,1.28,1.33
21.87,-3.15,-4.48,-3.24,-4.52,4.52,1.79,1.37,1.28,1.33
22.09,-3.12,-4.45,-3.19,-4.47,4.47,1.84,1.35,1.28,1.32
22.31,-3.13,-4.46,-3.13,-4.41,4.41,1.89,1.28,1.28,1.32
22.54,-3.13,-4.45,-3.07,-4.34,4.34,1.95,1.21,1.27,1.32
22.76,-3.14,-4.46,-3.00,-4.27,4.27,2.01,1.13,1.27,1.32
22.99,-3.14,-4.46,-2.93,-4.20,4.20,2.07,1.06,1.27,1.32
23.22,-2.99,-4.31,-2.85,-4.13,4.13,2.13,1.13,1.28,1.32
23.45,-2.83,-4.15,-2.77,-4.05,4.05,2.19,1.22,1.29,1.32
23.69,-2.68,-4.00,-2.69,-3.98,3.98,2.25,1.29,1.29,1.32
23.92,-2.52,-3.84,-2.62,-3.90,3.90,2.32,1.38,1.29,1.32
24.16,-2.42,-3.74,-2.55,-3.83,3.83,2.38,1.41,1.28,1.31
24.40,-2.35,-3.66,-2.48,-3.76,3.76,2.45,1.41,1.28,1.31
24.65,-2.28,-3.59,-2.42,-3.69,3.69,2.51,1.41,1.27,1.31
24.89,-2.21,-3.52,-2.36,-3.63,3.63,2.58,1.42,1.27,1.31
25.14,-2.19,-3.50,-2.30,-3.57,3.57,2.64,1.38,1.27,1.31
25.39,-2.22,-3.53,-2.24,-3.52,3.52,2.71,1.29,1.28,1.31
25.65,-2.25,-3.56,-2.18,-3.46,3.46,2.78,1.21,1.27,1.31
25.91,-2.27,-3.58,-2.14,-3.40,3.40,2.84,1.13,1.26,1.30
26.16,-2.23,-3.53,-2.08,-3.33,3.33,2.91,1.10,1.25,1.30
26.43,-2.14,-3.44,-2.02,-3.27,3.27,2.97,1.13,1.25,1.30
26.69,-2.06,-3.36,-1.96,-3.20,3.20,3.03,1.14,1.24,1.30
26.96,-1.97,-3.27,-1.88,-3.13,3.13,3.09,1.16,1.25,1.30
27.23,-1.83,-3.13,-1.81,-3.05,3.05,3.14,1.22,1.25,1.29
27.50,-1.68,-2.98,-1.72,-2.97,2.97,3.19,1.29,1.25,1.29
27.77,-1.53,-2.82,-1.63,-2.88,2.88,3.24,1.35,1.25,1.29
28.05,-1.40,-2.69,-1.53,-2.80,2.80,3.29,1.39,1.26,1.29
28.33,-1.35,-2.64,-1.43,-2.71,2.71,3.33,1.36,1.28,1.29
28.62,-1.29,-2.58,-1.33,-2.63,2.63,3.36,1.34,1.30,1.28
28.90,-1.24,-2.52,-1.25,-2.56,2.56,3.39,1.31,1.31,1.28
29.19,-1.19,-2.47,-1.19,-2.48,2.48,3.41,1.29,1.30,1.28
29.48,-1.14,-2.42,-1.14,-2.42,2.42,3.43,1.27,1.28,1.28
29.78,-1.09,-2.37,-1.09,-2.35,2.35,3.44,1.26,1.26,1.28
30.08,-1.03,-2.31,-1.03,-2.29,2.29,3.44,1.26,1.26,1.27
30.38,-0.96,-2.23,-0.98,-2.23,2.23,3.44,1.27,1.25,1.27
30.68,-0.89,-2.16,-0.92,-2.17,2.17,3.42,1.28,1.25,1.27
30.99,-0.81,-2.08,-0.87,-2.10,2.10,3.40,1.29,1.24,1.27
31.30,-0.82,-2.08,-0.81,-2.03,2.03,3.37,1.21,1.22,1.26
31.61,-0.84,-2.10,-0.73,-1.96,1.96,3.33,1.11,1.22,1.26
31.93,-0.86,-2.12,-0.65,-1.87,1.87,3.29,1.01,1.23,1.26
32.24,-0.69,-1.94,-0.56,-1.79,1.79,3.23,1.10,1.23,1.25
32.57,-0.47,-1.73,-0.46,-1.69,1.69,3.17,1.22,1.23,1.25
32.89,-0.24,-1.49,-0.37,-1.60,1.60,3.10,1.36,1.23,1.25
33.22,-0.17,-1.42,-0.28,-1.51,1.51,3.03,1.34,1.22,1.24
33.55,-0.16,-1.40,-0.20,-1.42,1.42,2.94,1.25,1.21,1.24
33.89,-0.16,-1.40,-0.13,-1.32,1.32,2.85,1.16,1.19,1.24
34.23,-0.05,-1.29,-0.04,-1.23,1.23,2.76,1.18,1.19,1.23
34.57,0.12,-1.11,0.06,-1.14,1.14,2.65,1.26,1.20,1.23
34.92,0.29,-0.94,0.17,-1.06,1.06,2.55,1.35,1.23,1.23
35.27,0.30,-0.93,0.25,-0.99,0.99,2.43,1.29,1.24,1.22
35.62,0.26,-0.96,0.31,-0.93,0.93,2.32,1.18,1.24,1.22
35.97,0.22,-1.00,0.35,-0.87,0.87,2.20,1.09,1.22,1.21
36.33,0.29,-0.92,0.37,-0.82,0.82,2.07,1.11,1.20,1.21
36.70,0.36,-0.85,0.40,-0.78,0.78,1.95,1.13,1.18,1.21
37.06,0.45,-0.75,0.43,-0.74,0.74,1.82,1.19,1.17,1.20
37.43,0.61,-0.59,0.46,-0.71,0.71,1.68,1.31,1.17,1.20
37.81,0.77,-0.43,0.49,-0.67,0.67,1.55,1.43,1.16,1.19
38.19,0.75,-0.44,0.52,-0.62,0.62,1.41,1.37,1.14,1.19
38.57,0.54,-0.64,0.55,-0.58,0.58,1.27,1.12,1.13,1.18
38.95,0.32,-0.86,0.60,-0.53,0.53,1.13,0.85,1.12,1.18
39.34,0.44,-0.73,0.66,-0.47,0.47,0.99,0.91,1.13,1.17
39.74,0.60,-0.57,0.73,-0.40,0.40,0.85,0.99,1.13,1.17
40.14,0.73,-0.44,0.80,-0.32,0.32,0.71,1.05,1.12,1.16
40.54,0.82,-0.34,0.87,-0.24,0.24,0.57,1.06,1.11,1.16
40.94,0.91,-0.24,0.96,-0.15,0.15,0.42,1.06,1.11,1.15
41.35,1.06,-0.09,1.04,-0.06,0.06,0.28,1.12,1.10,1.14
41.76,1.23,0.09,1.12,0.04,-0.04,0.13,1.19,1.08,1.14
42.18,1.35,0.22,1.21,0.14,-0.14,-0.01,1.20,1.07,1.13
42.60,1.43,0.30,1.33,0.25,-0.25,-0.16,1.18,1.09,1.12
43.03,1.51,0.39,1.47,0.35,-0.35,-0.30,1.16,1.13,1.12
43.46,1.58,0.47,1.59,0.45,-0.45,-0.45,1.13,1.14,1.11
43.90,1.65,0.54,1.67,0.54,-0.54,-0.60,1.10,1.12,1.10
44.33,1.75,0.65,1.74,0.64,-0.64,-0.75,1.11,1.10,1.10
44.78,1.86,0.77,1.81,0.74,-0.74,-0.90,1.12,1.08,1.09
45.23,1.90,0.82,1.90,0.83,-0.83,-1.04,1.07,1.07,1.08
45.68,1.87,0.80,1.98,0.92,-0.92,-1.19,0.95,1.07,1.07
46.13,1.94,0.88,2.06,1.01,-1.01,-1.34,0.93,1.05,1.06
46.60,2.24,1.19,2.12,1.11,-1.11,-1.49,1.13,1.01,1.06
47.06,2.50,1.45,2.22,1.21,-1.21,-1.64,1.28,1.00,1.05
47.53,2.31,1.27,2.33,1.32,-1.32,-1.79,0.99,1.01,1.04
48.01,2.12,1.09,2.44,1.42,-1.42,-1.95,0.69,1.02,1.03
48.49,2.37,1.35,2.56,1.53,-1.53,-2.10,0.83,1.02,1.02
48.97,2.63,1.62,2.65,1.65,-1.65,-2.25,0.98,1.00,1.01
49.46,2.79,1.79,2.73,1.76,-1.76,-2.40,1.03,0.98,1.00
49.96,2.96,1.97,2.81,1.87,-1.87,-2.55,1.09,0.94,0.99
50.46,2.96,1.98,2.90,1.98,-1.98,-2.70,0.98,0.93,0.98
50.96,2.95,1.98,3.00,2.08,-2.08,-2.85,0.87,0.92,0.97
51.47,3.22,2.26,3.11,2.19,-2.19,-3.00,1.03,0.92,0.96
51.99,3.51,2.56,3.22,2.30,-2.30,-3.15,1.21,0.92,0.94
52.51,3.41,2.48,3.31,2.40,-2.40,-3.29,1.01,0.91,0.93
53.03,3.31,2.39,3.41,2.50,-2.50,-3.44,0.80,0.90,0.92
53.56,3.24,2.33,3.51,2.61,-2.61,-3.58,0.63,0.90,0.91
54.10,3.24,2.34,3.58,2.71,-2.71,-3.72,0.53,0.88,0.90
54.64,3.55,2.66,3.66,2.81,-2.81,-3.86,0.74,0.85,0.88
55.18,3.84,2.97,3.74,2.91,-2.91,-3.99,0.93,0.83,0.87
55.74,4.11,3.25,3.84,3.02,-3.02,-4.12,1.09,0.82,0.85
56.29,4.19,3.35,3.94,3.12,-3.12,-4.24,1.07,0.82,0.84
56.86,4.10,3.27,4.04,3.23,-3.23,-4.36,0.87,0.81,0.83
57.42,3.99,3.18,4.12,3.34,-3.34,-4.47,0.65,0.78,0.81
58.00,3.88,3.08,4.22,3.45,-3.45,-4.58,0.43,0.77,0.80
58.58,4.35,3.57,4.33,3.56,-3.56,-4.68,0.79,0.77,0.78
59.16,4.64,3.87,4.44,3.66,-3.66,-4.77,0.97,0.77,0.76
59.76,4.47,3.72,4.51,3.76,-3.76,-4.85,0.70,0.74,0.75
60.35,4.54,3.81,4.58,3.86,-3.86,-4.93,0.67,0.71,0.73
60.96,4.77,4.05,4.66,3.96,-3.96,-5.00,0.81,0.70,0.71
61.57,4.77,4.07,4.72,4.05,-4.05,-5.06,0.72,0.67,0.70
62.18,4.78,4.10,4.78,4.14,-4.14,-5.11,0.64,0.64,0.68
62.80,4.83,4.17,4.85,4.22,-4.22,-5.15,0.61,0.63,0.66
63.43,4.89,4.25,4.93,4.30,-4.30,-5.18,0.59,0.63,0.64
64.07,4.95,4.33,5.01,4.38,-4.38,-5.20,0.57,0.63,0.62
64.71,4.99,4.39,5.07,4.45,-4.45,-5.22,0.54,0.62,0.60
65.35,5.04,4.46,5.08,4.51,-4.51,-5.22,0.53,0.57,0.58
66.01,5.10,4.54,5.11,4.57,-4.57,-5.22,0.53,0.54,0.56
66.67,5.47,4.93,5.16,4.62,-4.62,-5.22,0.85,0.53,0.54
67.33,5.37,4.86,5.18,4.67,-4.67,-5.20,0.71,0.51,0.52
68.01,4.82,4.32,5.18,4.71,-4.71,-5.18,0.11,0.47,0.50
68.69,5.18,4.70,5.20,4.74,-4.74,-5.15,0.43,0.46,0.47
69.37,5.34,4.89,5.23,4.78,-4.78,-5.12,0.56,0.45,0.45
70.07,5.34,4.91,5.23,4.81,-4.81,-5.09,0.53,0.43,0.43
70.77,5.34,4.93,5.23,4.83,-4.83,-5.05,0.51,0.40,0.40
71.48,5.15,4.77,5.23,4.86,-4.86,-5.00,0.29,0.37,0.38
72.19,5.01,4.65,5.22,4.88,-4.88,-4.96,0.13,0.34,0.36
72.91,5.26,4.93,5.22,4.91,-4.91,-4.91,0.35,0.31,0.33
73.64,5.24,4.93,5.22,4.94,-4.94,-4.87,0.30,0.29,0.31
74.38,5.19,4.91,5.23,4.97,-4.97,-4.82,0.22,0.26,0.28
75.12,5.19,4.93,5.25,5.01,-5.01,-4.77,0.18,0.24,0.25
75.87,5.48,5.25,5.28,5.05,-5.05,-4.72,0.42,0.23,0.23
76.63,5.28,5.08,5.28,5.11,-5.11,-4.67,0.17,0.17,0.20
77.40,5.18,5.00,5.30,5.17,-5.17,-4.62,0.01,0.14,0.17
78.17,5.30,5.15,5.34,5.23,-5.23,-4.58,0.07,0.11,0.15
78.95,5.47,5.35,5.39,5.31,-5.31,-4.54,0.16,0.08,0.12
79.74,5.49,5.40,5.47,5.39,-5.39,-4.49,0.10,0.08,0.09
80.54,5.50,5.44,5.53,5.47,-5.47,-4.45,0.02,0.06,0.06
81.35,5.52,5.49,5.57,5.57,-5.57,-4.42,-0.05,0.01,0.03
82.16,5.56,5.56,5.64,5.66,-5.66,-4.38,-0.10,-0.02,0.00
82.98,5.51,5.54,5.70,5.75,-5.75,-4.35,-0.24,-0.05,-0.03
83.81,5.84,5.90,5.76,5.84,-5.84,-4.32,-0.00,-0.07,-0.06
84.65,5.92,6.01,5.83,5.93,-5.93,-4.30,-0.01,-0.10,-0.09
85.50,5.92,6.04,5.89,6.01,-6.01,-4.28,-0.09,-0.12,-0.12
86.35,5.96,6.11,5.93,6.09,-6.09,-4.26,-0.13,-0.16,-0.15
87.22,6.06,6.24,5.95,6.15,-6.15,-4.24,-0.10,-0.20,-0.18
88.09,6.18,6.39,5.98,6.21,-6.21,-4.23,-0.04,-0.24,-0.21
88.97,5.87,6.11,6.00,6.26,-6.26,-4.22,-0.39,-0.26,-0.25
89.86,5.95,6.23,6.01,6.30,-6.30,-4.22,-0.36,-0.30,-0.28
90.76,6.05,6.36,6.01,6.34,-6.34,-4.21,-0.29,-0.32,-0.31
91.66,6.05,6.39,6.01,6.36,-6.36,-4.21,-0.31,-0.35,-0.34
92.58,6.02,6.39,5.99,6.37,-6.37,-4.22,-0.35,-0.38,-0.37
93.51,5.83,6.24,5.94,6.36,-6.36,-4.23,-0.53,-0.42,-0.41
94.44,5.70,6.14,5.89,6.34,-6.34,-4.24,-0.65,-0.45,-0.44
95.39,5.81,6.28,5.82,6.32,-6.32,-4.25,-0.51,-0.49,-0.47
96.34,5.88,6.38,5.75,6.28,-6.28,-4.27,-0.40,-0.53,-0.51
97.30,5.78,6.32,5.67,6.24,-6.24,-4.29,-0.46,-0.56,-0.54
98.28,5.63,6.20,5.60,6.18,-6.18,-4.31,-0.55,-0.59,-0.57
99.26,5.58,6.18,5.52,6.12,-6.12,-4.33,-0.54,-0.60,-0.61
100.25,5.53,6.17,5.40,6.05,-6.05,-4.36,-0.52,-0.65,-0.64
101.25,5.32,5.99,5.29,5.97,-5.97,-4.38,-0.66,-0.69,-0.67
102.27,5.06,5.76,5.17,5.89,-5.89,-4.41,-0.83,-0.72,-0.71
103.29,4.95,5.69,5.05,5.80,-5.80,-4.44,-0.85,-0.75,-0.74
104.32,4.82,5.59,4.93,5.71,-5.71,-4.47,-0.89,-0.78,-0.77
105.37,4.74,5.54,4.80,5.61,-5.61,-4.50,-0.88,-0.81,-0.80
106.42,4.79,5.63,4.66,5.52,-5.52,-4.54,-0.73,-0.86,-0.84
107.48,4.62,5.49,4.52,5.42,-5.42,-4.57,-0.80,-0.90,-0.87
108.56,4.39,5.29,4.39,5.32,-5.32,-4.60,-0.93,-0.93,-0.91
109.64,4.15,5.09,4.27,5.22,-5.22,-4.63,-1.07,-0.95,-0.94
110.74,4.09,5.06,4.14,5.13,-5.13,-4.65,-1.04,-0.98,-0.97
111.85,4.06,5.06,4.02,5.03,-5.03,-4.68,-0.97,-1.01,-1.00
112.97,3.91,4.94,3.90,4.94,-4.94,-4.70,-1.03,-1.03,-1.03
114.10,3.78,4.84,3.78,4.84,-4.84,-4.71,-1.06,-1.05,-1.06
115.24,3.68,4.77,3.65,4.74,-4.74,-4.73,-1.06,-1.08,-1.09
116.39,3.54,4.65,3.52,4.63,-4.63,-4.74,-1.10,-1.12,-1.11
117.55,3.39,4.53,3.38,4.53,-4.53,-4.74,-1.15,-1.15,-1.14
118.73,3.25,4.41,3.24,4.43,-4.43,-4.74,-1.18,-1.19,-1.16
119.92,3.16,4.34,3.12,4.33,-4.33,-4.73,-1.17,-1.20,-1.19
121.12,3.03,4.24,3.01,4.22,-4.22,-4.72,-1.19,-1.21,-1.21
122.33,2.85,4.08,2.89,4.11,-4.11,-4.70,-1.26,-1.22,-1.23
123.55,2.69,3.94,2.75,4.00,-4.00,-4.67,-1.31,-1.25,-1.25
124.79,2.56,3.83,2.61,3.88,-3.88,-4.64,-1.32,-1.27,-1.27
126.03,2.50,3.78,2.47,3.77,-3.77,-4.60,-1.27,-1.30,-1.29
127.29,2.34,3.64,2.33,3.65,-3.65,-4.55,-1.32,-1.32,-1.30
128.57,2.19,3.51,2.20,3.54,-3.54,-4.49,-1.35,-1.34,-1.32
129.85,2.12,3.46,2.06,3.42,-3.42,-4.43,-1.30,-1.36,-1.34
131.15,2.00,3.36,1.93,3.31,-3.31,-4.36,-1.31,-1.38,-1.36
132.46,1.87,3.25,1.79,3.19,-3.19,-4.29,-1.33,-1.40,-1.38
133.79,1.70,3.10,1.66,3.08,-3.08,-4.20,-1.38,-1.42,-1.40
135.12,1.44,2.86,1.53,2.97,-2.97,-4.12,-1.54,-1.44,-1.42
136.48,1.30,2.74,1.41,2.86,-2.86,-4.02,-1.57,-1.46,-1.44
137.84,1.21,2.67,1.28,2.76,-2.76,-3.93,-1.55,-1.47,-1.46
139.22,1.15,2.63,1.16,2.65,-2.65,-3.82,-1.50,-1.49,-1.48
140.61,1.04,2.54,1.03,2.54,-2.54,-3.72,-1.50,-1.52,-1.50
142.02,0.92,2.44,0.90,2.43,-2.43,-3.61,-1.51,-1.53,-1.52
143.44,0.78,2.32,0.77,2.32,-2.32,-3.49,-1.55,-1.55,-1.54
144.87,0.69,2.25,0.64,2.21,-2.21,-3.38,-1.53,-1.57,-1.57
146.32,0.56,2.14,0.51,2.11,-2.11,-3.26,-1.55,-1.60,-1.58
147.78,0.41,2.01,0.36,1.99,-1.99,-3.14,-1.59,-1.63,-1.60
149.26,0.26,1.88,0.24,1.88,-1.88,-3.02,-1.62,-1.64,-1.62
150.75,0.16,1.80,0.12,1.77,-1.77,-2.89,-1.61,-1.64,-1.64
152.26,0.04,1.70,0.01,1.66,-1.66,-2.77,-1.62,-1.65,-1.66
153.78,-0.16,1.51,-0.14,1.54,-1.54,-2.64,-1.71,-1.68,-1.68
155.32,-0.36,1.33,-0.28,1.43,-1.43,-2.52,-1.79,-1.71,-1.69
156.88,-0.40,1.31,-0.40,1.32,-1.32,-2.39,-1.73,-1.72,-1.71
158.44,-0.56,1.16,-0.52,1.22,-1.22,-2.26,-1.78,-1.74,-1.73
160.03,-0.74,1.00,-0.65,1.11,-1.11,-2.14,-1.86,-1.76,-1.74
161.63,-0.86,0.90,-0.77,1.02,-1.02,-2.01,-1.88,-1.78,-1.76
163.24,-0.82,0.96,-0.88,0.93,-0.93,-1.89,-1.75,-1.81,-1.78
164.88,-0.70,1.10,-0.98,0.84,-0.84,-1.76,-1.55,-1.83,-1.80
166.53,-1.00,0.82,-1.08,0.77,-0.77,-1.64,-1.77,-1.85,-1.82
168.19,-1.26,0.57,-1.17,0.70,-0.70,-1.51,-1.96,-1.86,-1.84
169.87,-1.47,0.38,-1.25,0.63,-0.63,-1.39,-2.10,-1.88,-1.86
171.57,-1.27,0.60,-1.31,0.57,-0.57,-1.27,-1.84,-1.88,-1.87
173.29,-1.26,0.63,-1.37,0.51,-0.51,-1.14,-1.77,-1.89,-1.89
175.02,-1.62,0.28,-1.45,0.45,-0.45,-1.02,-2.08,-1.91,-1.90
176.77,-1.61,0.31,-1.52,0.40,-0.40,-0.90,-2.01,-1.92,-1.92
178.54,-1.56,0.37,-1.59,0.35,-0.35,-0.78,-1.91,-1.93,-1.93
180.32,-1.60,0.33,-1.66,0.29,-0.29,-0.66,-1.90,-1.95,-1.94
182.13,-1.63,0.31,-1.73,0.24,-0.24,-0.54,-1.87,-1.97,-1.94
183.95,-1.71,0.23,-1.80,0.19,-0.19,-0.43,-1.90,-1.98,-1.94
185.79,-1.70,0.24,-1.82,0.13,-0.13,-0.31,-1.83,-1.96,-1.94
187.65,-1.92,0.02,-1.85,0.08,-0.08,-0.19,-2.00,-1.93,-1.94
189.52,-1.90,0.03,-1.91,0.03,-0.03,-0.08,-1.93,-1.93,-1.93
191.42,-2.06,-0.13,-1.98,-0.03,0.03,0.04,-2.03,-1.95,-1.93
193.33,-2.19,-0.27,-2.03,-0.09,0.09,0.15,-2.11,-1.94,-1.92
195.27,-2.08,-0.16,-2.07,-0.14,0.14,0.27,-1.95,-1.93,-1.92
197.22,-2.10,-0.19,-2.12,-0.19,0.19,0.38,-1.91,-1.93,-1.92
199.19,-2.21,-0.30,-2.18,-0.24,0.24,0.49,-1.97,-1.93,-1.91
201.18,-2.22,-0.31,-2.25,-0.29,0.29,0.60,-1.93,-1.95,-1.91
203.19,-2.16,-0.25,-2.30,-0.34,0.34,0.71,-1.82,-1.96,-1.91
205.23,-2.12,-0.20,-2.33,-0.39,0.39,0.82,-1.74,-1.94,-1.92
207.28,-2.45,-0.53,-2.39,-0.43,0.43,0.93,-2.02,-1.96,-1.92
209.35,-2.61,-0.68,-2.44,-0.48,0.48,1.04,-2.14,-1.96,-1.93
211.44,-2.50,-0.56,-2.48,-0.52,0.52,1.14,-1.98,-1.96,-1.94
213.56,-2.51,-0.56,-2.51,-0.57,0.57,1.24,-1.94,-1.94,-1.95
215.69,-2.56,-0.60,-2.57,-0.63,0.63,1.34,-1.94,-1.94,-1.96
217.85,-2.58,-0.61,-2.65,-0.68,0.68,1.44,-1.90,-1.97,-1.97
220.03,-2.86,-0.88,-2.73,-0.74,0.74,1.53,-2.13,-1.99,-1.98
222.23,-2.90,-0.91,-2.80,-0.79,0.79,1.63,-2.11,-2.01,-1.99
224.45,-2.58,-0.59,-2.88,-0.86,0.86,1.72,-1.72,-2.02,-1.99
226.70,-2.80,-0.81,-2.95,-0.93,0.93,1.80,-1.88,-2.02,-2.00
228.96,-3.24,-1.25,-3.02,-0.99,0.99,1.88,-2.25,-2.03,-2.00
231.25,-2.90,-0.91,-3.06,-1.05,1.05,1.96,-1.85,-2.01,-1.99
233.57,-2.94,-0.95,-3.13,-1.11,1.11,2.04,-1.83,-2.02,-1.99
235.90,-3.30,-1.32,-3.19,-1.17,1.17,2.11,-2.13,-2.01,-1.98
238.26,-3.53,-1.56,-3.22,-1.24,1.24,2.17,-2.30,-1.98,-1.97
240.64,-3.48,-1.52,-3.26,-1.30,1.30,2.24,-2.18,-1.97,-1.96
243.05,-3.35,-1.40,-3.33,-1.36,1.36,2.29,-1.99,-1.97,-1.95
245.48,-3.32,-1.39,-3.40,-1.42,1.42,2.34,-1.90,-1.97,-1.93
247.93,-3.38,-1.46,-3.46,-1.49,1.49,2.39,-1.90,-1.97,-1.92
250.41,-3.46,-1.55,-3.51,-1.55,1.55,2.43,-1.91,-1.96,-1.91
252.92,-3.47,-1.57,-3.55,-1.61,1.61,2.47,-1.86,-1.93,-1.90
255.45,-3.43,-1.54,-3.59,-1.68,1.68,2.50,-1.76,-1.91,-1.89
258.00,-3.59,-1.71,-3.66,-1.74,1.74,2.53,-1.85,-1.91,-1.88
260.58,-3.51,-1.63,-3.71,-1.81,1.81,2.55,-1.70,-1.90,-1.88
263.19,-3.78,-1.91,-3.76,-1.88,1.88,2.57,-1.90,-1.88,-1.88
265.82,-4.21,-2.34,-3.83,-1.95,1.95,2.58,-2.26,-1.88,-1.87
268.48,-4.15,-2.28,-3.92,-2.02,2.02,2.60,-2.13,-1.89,-1.87
271.16,-3.94,-2.07,-4.00,-2.09,2.09,2.60,-1.85,-1.90,-1.88
273.87,-3.73,-1.86,-4.07,-2.16,2.16,2.61,-1.57,-1.91,-1.88
276.61,-4.09,-2.21,-4.12,-2.23,2.23,2.61,-1.86,-1.89,-1.88
279.38,-4.32,-2.44,-4.19,-2.30,2.30,2.61,-2.02,-1.88,-1.88
282.17,-4.27,-2.40,-4.25,-2.37,2.37,2.60,-1.90,-1.88,-1.88
284.99,-4.41,-2.54,-4.32,-2.44,2.44,2.60,-1.97,-1.87,-1.87
287.84,-4.51,-2.65,-4.38,-2.51,2.51,2.59,-2.00,-1.86,-1.87
290.72,-4.43,-2.57,-4.46,-2.59,2.59,2.58,-1.84,-1.86,-1.86
293.63,-4.38,-2.53,-4.52,-2.67,2.67,2.57,-1.71,-1.84,-1.85
296.57,-4.51,-2.67,-4.59,-2.76,2.76,2.56,-1.76,-1.83,-1.84
299.53,-4.56,-2.73,-4.69,-2.84,2.84,2.55,-1.72,-1.84,-1.83
302.53,-4.64,-2.82,-4.79,-2.93,2.93,2.54,-1.71,-1.86,-1.83
305.55,-4.81,-3.00,-4.88,-3.02,3.02,2.53,-1.79,-1.86,-1.82
308.61,-5.01,-3.20,-4.94,-3.11,3.11,2.52,-1.91,-1.84,-1.81
311.69,-5.09,-3.29,-5.02,-3.19,3.19,2.51,-1.90,-1.83,-1.80
314.81,-5.19,-3.40,-5.10,-3.27,3.27,2.50,-1.92,-1.83,-1.80
317.96,-5.32,-3.53,-5.17,-3.35,3.35,2.49,-1.98,-1.82,-1.79
321.14,-5.33,-3.54,-5.24,-3.42,3.42,2.49,-1.92,-1.82,-1.79
324.35,-5.24,-3.45,-5.30,-3.48,3.48,2.48,-1.76,-1.83,-1.79
327.59,-5.32,-3.53,-5.36,-3.53,3.53,2.48,-1.79,-1.83,-1.79
330.87,-5.43,-3.64,-5.40,-3.58,3.58,2.48,-1.85,-1.82,-1.79
334.18,-5.48,-3.69,-5.43,-3.61,3.61,2.48,-1.87,-1.82,-1.79
337.52,-5.39,-3.60,-5.45,-3.63,3.63,2.48,-1.76,-1.82,-1.79
340.90,-5.40,-3.61,-5.45,-3.65,3.65,2.49,-1.75,-1.80,-1.79
344.30,-5.43,-3.64,-5.44,-3.66,3.66,2.49,-1.77,-1.78,-1.79
347.75,-5.38,-3.59,-5.44,-3.67,3.67,2.50,-1.72,-1.78,-1.79
351.23,-5.44,-3.65,-5.44,-3.66,3.66,2.51,-1.78,-1.77,-1.79
354.74,-5.48,-3.70,-5.43,-3.66,3.66,2.52,-1.82,-1.77,-1.78
358.28,-5.47,-3.69,-5.43,-3.65,3.65,2.54,-1.82,-1.78,-1.78
361.87,-5.47,-3.70,-5.42,-3.64,3.64,2.55,-1.83,-1.78,-1.77
365.49,-5.38,-3.62,-5.39,-3.62,3.62,2.57,-1.76,-1.77,-1.77
369.14,-5.36,-3.60,-5.36,-3.61,3.61,2.59,-1.75,-1.75,-1.76
372.83,-5.28,-3.53,-5.34,-3.59,3.59,2.62,-1.69,-1.75,-1.75
376.56,-5.24,-3.50,-5.33,-3.57,3.57,2.64,-1.67,-1.76,-1.75
380.33,-5.32,-3.58,-5.30,-3.54,3.54,2.67,-1.78,-1.76,-1.74
384.13,-5.33,-3.60,-5.27,-3.52,3.52,2.70,-1.82,-1.76,-1.73
387.97,-5.24,-3.51,-5.24,-3.49,3.49,2.73,-1.76,-1.75,-1.73
391.85,-5.22,-3.49,-5.20,-3.45,3.45,2.76,-1.77,-1.74,-1.73
395.77,-5.09,-3.36,-5.16,-3.42,3.42,2.79,-1.67,-1.74,-1.73
399.73,-5.06,-3.33,-5.12,-3.39,3.39,2.82,-1.68,-1.74,-1.73
403.72,-5.10,-3.37,-5.09,-3.35,3.35,2.86,-1.75,-1.74,-1.73
407.76,-5.10,-3.37,-5.05,-3.32,3.32,2.89,-1.79,-1.74,-1.73
411.84,-5.08,-3.35,-5.01,-3.28,3.28,2.93,-1.80,-1.73,-1.73
415.96,-4.97,-3.25,-4.98,-3.25,3.25,2.97,-1.73,-1.73,-1.73
420.12,-4.91,-3.19,-4.93,-3.21,3.21,3.01,-1.70,-1.72,-1.72
424.32,-4.87,-3.17,-4.88,-3.18,3.18,3.04,-1.69,-1.70,-1.71
428.56,-4.75,-3.06,-4.82,-3.15,3.15,3.08,-1.60,-1.68,-1.69
432.85,-4.71,-3.05,-4.77,-3.12,3.12,3.12,-1.59,-1.65,-1.67
437.18,-4.78,-3.15,-4.72,-3.09,3.09,3.15,-1.69,-1.63,-1.64
441.55,-4.69,-3.09,-4.66,-3.07,3.07,3.19,-1.62,-1.59,-1.60
445.96,-4.61,-3.06,-4.59,-3.05,3.05,3.22,-1.57,-1.55,-1.56
450.42,-4.56,-3.05,-4.52,-3.03,3.03,3.25,-1.54,-1.50,-1.51
454.93,-4.50,-3.05,-4.45,-3.01,3.01,3.28,-1.50,-1.44,-1.46
459.48,-4.39,-2.99,-4.38,-2.99,2.99,3.30,-1.40,-1.39,-1.40
464.07,-4.29,-2.95,-4.32,-2.98,2.98,3.32,-1.32,-1.35,-1.34
468.71,-4.23,-2.94,-4.26,-2.96,2.96,3.34,-1.27,-1.30,-1.29
473.40,-4.16,-2.93,-4.19,-2.95,2.95,3.36,-1.22,-1.25,-1.23
478.13,-4.11,-2.94,-4.13,-2.93,2.93,3.37,-1.18,-1.20,-1.18
482.91,-4.05,-2.93,-4.06,-2.92,2.92,3.37,-1.14,-1.15,-1.13
487.74,-3.96,-2.88,-3.99,-2.90,2.90,3.38,-1.07,-1.10,-1.08
492.62,-3.96,-2.93,-3.94,-2.88,2.88,3.37,-1.09,-1.06,-1.04
497.55,-3.88,-2.88,-3.88,-2.86,2.86,3.37,-1.03,-1.03,-1.00
502.52,-3.84,-2.87,-3.83,-2.83,2.83,3.36,-1.01,-0.99,-0.97
507.55,-3.82,-2.87,-3.78,-2.81,2.81,3.34,-1.01,-0.97,-0.95
512.62,-3.80,-2.86,-3.75,-2.79,2.79,3.32,-1.01,-0.96,-0.94
517.75,-3.72,-2.78,-3.73,-2.76,2.76,3.29,-0.96,-0.96,-0.94
522.93,-3.67,-2.73,-3.71,-2.74,2.74,3.26,-0.93,-0.97,-0.95
528.16,-3.63,-2.67,-3.70,-2.71,2.71,3.23,-0.92,-0.98,-0.96
533.44,-3.63,-2.65,-3.69,-2.69,2.69,3.19,-0.94,-1.00,-0.98
538.77,-3.63,-2.63,-3.69,-2.67,2.67,3.15,-0.97,-1.02,-1.00
544.16,-3.61,-2.58,-3.69,-2.64,2.64,3.10,-0.97,-1.05,-1.03
549.60,-3.65,-2.59,-3.69,-2.62,2.62,3.05,-1.04,-1.07,-1.06
555.10,-3.70,-2.61,-3.69,-2.59,2.59,3.00,-1.11,-1.10,-1.09
560.65,-3.75,-2.63,-3.69,-2.57,2.57,2.94,-1.19,-1.12,-1.12
566.25,-3.77,-2.62,-3.69,-2.54,2.54,2.88,-1.23,-1.15,-1.15
571.92,-3.76,-2.59,-3.69,-2.51,2.51,2.82,-1.25,-1.17,-1.18
577.64,-3.74,-2.55,-3.68,-2.48,2.48,2.76,-1.26,-1.20,-1.20
583.41,-3.65,-2.44,-3.66,-2.45,2.45,2.70,-1.20,-1.21,-1.21
589.25,-3.63,-2.41,-3.64,-2.42,2.42,2.64,-1.22,-1.22,-1.22
595.14,-3.60,-2.38,-3.60,-2.38,2.38,2.57,-1.22,-1.22,-1.22
601.09,-3.52,-2.31,-3.55,-2.34,2.34,2.51,-1.18,-1.21,-1.21
607.10,-3.44,-2.24,-3.50,-2.30,2.30,2.44,-1.14,-1.20,-1.20
613.17,-3.42,-2.24,-3.43,-2.25,2.25,2.38,-1.17,-1.18,-1.18
619.30,-3.41,-2.26,-3.35,-2.21,2.21,2.31,-1.21,-1.15,-1.15
625.50,-3.29,-2.17,-3.27,-2.16,2.16,2.25,-1.13,-1.11,-1.12
631.75,-3.17,-2.09,-3.18,-2.11,2.11,2.18,-1.06,-1.07,-1.08
638.07,-3.11,-2.08,-3.08,-2.06,2.06,2.12,-1.05,-1.03,-1.03
644.45,-3.01,-2.03,-2.99,-2.00,2.00,2.05,-1.01,-0.99,-0.99
650.89,-2.91,-1.98,-2.89,-1.95,1.95,1.99,-0.96,-0.94,-0.94
657.40,-2.82,-1.94,-2.79,-1.90,1.90,1.93,-0.92,-0.89,-0.89
