frequency,raw,error,smoothed,error_smoothed,equalization,equalized_raw,equalized_smoothed,target
20,-12.883206837965052,-14.531050593434399,-12.872598428869907,-14.520426837672147,5.999999999999999,-6.883206837965052,-6.872598428869908,1.647843755469347
21,-11.488611359066955,-13.136436155085132,-11.432196149524131,-13.080023299693176,5.999999999999999,-5.488611359066955,-5.432196149524132,1.6478247960181784
22,-10.039564291411867,-11.68736428989721,-10.053537990346497,-11.701350302751887,6.0,-4.0395642914118675,-4.053537990346497,1.6477999984853424
23,-8.644710314070128,-10.2924782707121,-8.736623951337002,-10.38440784684828,6.0,-2.644710314070128,-2.736623951337002,1.6477679566419732
24,-7.413562517105607,-9.061289528444455,-7.481454032495642,-9.129195931982347,5.999999999999999,-1.4135625171056079,-1.481454032495643,1.647727011338847
25,-6.227616554108282,-7.875291773168456,-6.290287292283301,-7.937975092932772,5.8316454717494235,-0.3959710823588587,-0.45864182053387736,1.647675219060174
26,-5.19701534077509,-6.8446256589550885,-5.160353562057507,-6.8079737065598245,5.487430749902977,0.29041540912788655,0.3270771878454699,1.6476103181799977
27,-4.204780532553997,-5.852310225754287,-4.089225192670016,-5.736762555097822,4.987790530807326,0.7830099982533287,0.8985653381373098,1.647529693200291
28,-3.028490210655095,-4.675920546166452,-3.0737106970956125,-4.721147567874631,4.367657717088789,1.3391675064336939,1.2939470199931762,1.6474303355113573
29,-2.0999052252338286,-3.747214028159097,-2.110347788528757,-3.7576628383184625,3.6494972674126336,1.549592042178805,1.5391494788838767,1.6473088029252683
30,-1.2121034310276455,-2.859264607129392,-1.196782350137373,-2.843950170298258,2.8439501702982577,1.6318467392706122,1.6471678201608846,1.6471611761017466
31,-0.35555321950825114,-2.0025362321063938,-0.33145768791826097,-1.9784481237330556,1.9784481237330551,1.622894904224804,1.6469904358147942,1.6469830125981426
32,0.4721305619262992,-1.1746387364901825,0.4862279441872842,-1.1605496979725731,1.1605496979725731,1.6326802598988723,1.6467776421598574,1.6467692984164817
33,1.2733251330261108,-0.3731892640340835,1.2562167780942493,-0.3903068966737206,0.39030689667372065,1.6636320296998315,1.64652367476797,1.6465143970601943
34,2.050020774279074,0.403808778104636,1.978291819696758,0.3320696642522268,-0.33206966425222667,1.7179511100268474,1.6462221554445313,1.6462119961744381
35,2.575845701630716,0.9299906499146369,2.6523544588546186,1.0064884160697805,-1.0064884160697807,1.5693572855609352,1.645866042784838,1.645855051716079
36,3.308028180100804,1.6625924502899103,3.2786187793317545,1.6331712497430089,-1.6331712497430089,1.674856930357795,1.6454475295887456,1.6454357298108935
37,3.7923278773194697,2.14738253096931,3.857561907272304,2.2126039491520837,-2.2126039491520837,1.579723928167386,1.6449579581202203,1.6449453463501595
38,4.486539491983734,2.84216518754127,4.389684046107567,2.7452962956130866,-2.745296295613086,1.741243196370648,1.6443877504944804,1.6443743044424641
39,4.889053889604337,3.2453418597510555,4.875197413830541,3.2314710754053095,-3.2314710754053095,1.6575828141990279,1.6437263384252319,1.643712029853282
40,5.14515568431267,3.502208779724082,5.31372403413296,3.670761932441898,-3.6707619324418976,1.474393751870772,1.6429621016910625,1.6429469045885874
41,5.79603613119591,4.153969932386377,5.70411662375183,4.062034319159364,-4.062034319159364,1.7340018120365457,1.6420823045924653,1.642066198809533
42,6.030332376081289,4.389276374795026,6.044467671188812,4.403394642076746,-4.403394642076748,1.6269377340045414,1.6410730291120643,1.6410560012862638
43,6.263007774875923,4.62310662623941,6.332330217875244,4.692411112050392,-4.692411112050392,1.5705966628255315,1.639919105824852,1.6399011486365138
44,6.723780558336447,5.085195404703933,6.565138887465363,4.926534845604669,-4.926534845604667,1.7972457127317796,1.6386040418606953,1.6385851536325138
45,6.728073736151959,5.090983603243852,6.7407760189569235,5.103666071113716,-5.103666071113715,1.6244076650382437,1.637109947843208,1.6370901329081073
46,6.795004125777199,5.159607391318996,6.858195265688877,5.222777801022469,-5.222777801022469,1.5722263247547303,1.6354174646664088,1.6353967344582032
47,6.962074723397133,5.328590657998859,6.917989303844736,5.284483613179955,-5.284483613179955,1.677591110217178,1.6335056906647818,1.6334840653982736
48,6.964295518436039,5.332965897889625,6.922780252609458,5.291428142730707,-5.291428142730706,1.6728673757053327,1.631352109878752,1.6313296205464143
49,6.966139854694438,5.337230642187434,6.87732988622928,5.248397364336524,-5.2483973643365225,1.7177424903579155,1.6289325218927573,1.6289092125070037
50,6.739509526849711,5.113312622773893,6.788315311561595,5.162094337555462,-5.162094337555462,1.577415189294249,1.6262209740061326,1.626196904075818
51,6.69487916014327,5.071714216190642,6.66379121713334,5.04060152040258,-5.04060152040258,1.6542776397406893,1.6231896967307602,1.6231649439526268
52,6.5115388361295,4.89175512919136,6.512442563706231,4.892633519890835,-4.892633519890835,1.6189053162386644,1.6198090438153958,1.61978370693814
53,6.282361117375962,4.666339477371331,6.342792728775554,4.726745290523111,-4.7267452905231115,1.5556158268528506,1.6160474382524423,1.616021640004631
54,6.0529247366031464,4.4410795207451494,6.162543549246166,4.550672223315338,-4.550672223315337,1.502252513287809,1.6118713259308288,1.611845215857997
55,6.05168769757224,4.444468801727495,5.978176922355745,4.370931783533148,-4.370931783533148,1.680755914039092,1.6072451388225968,1.6072188958447455
56,5.822818960756859,4.220713856468139,5.794855618346471,4.192724348532335,-4.192724348532336,1.6300946122245223,1.6021312698141346,1.6021051042887193
57,5.595000044309629,3.9985358277548833,5.616556756132079,4.02006669464179,-4.0200666946417885,1.5749333496678402,1.5964900614902904,1.5964642165547454
58,5.367005768203666,3.7767512048907883,5.446300396079165,3.8560205847347913,-3.8560205847347904,1.5109851834688754,1.5902798113443746,1.5902545633128775
59,5.366682917175604,3.783250463576607,5.286329151011454,3.702872355019408,-3.702872355019408,1.663810562156196,1.5834567959920465,1.5834324535989968
60,5.14480102172028,3.568848802403699,5.138154199760984,3.562178882766185,-3.5621788827661853,1.5826221389540946,1.5759753169947985,1.575952219316581
61,4.9096754172110595,3.341909133428429,5.002479146776599,3.4346913759413074,-3.434691375941308,1.4749840412697517,1.5677877708352912,1.5677662837826305
62,4.9097975356628645,3.3509722788895338,4.8790975603919335,3.320252814973896,-3.320252814973896,1.5895447206889686,1.5588447454180376,1.5588252567733307
63,4.68314009101328,3.1340620327515327,4.766891566287136,3.2177964211016192,-3.21779642110162,1.4653436699116602,1.5490951451855155,1.5490780582617476
64,4.685528315357323,3.1470562427003634,4.664019133465499,3.1255327868882796,-3.12553278688828,1.559995528469043,1.5384863465772187,1.5384720726569596
65,4.6389968377523525,3.112043502896665,4.568285570082494,3.0413211851917965,-3.0413211851917956,1.5976756525605569,1.526964384890698,1.5269533348556874
66,4.462671920033847,2.9482051712167716,4.477598662825616,2.9631244894958337,-2.9631244894958346,1.499547430538012,1.5144741733297815,1.514466748817075
67,4.462878219895453,2.9619218812035757,4.390355383569951,2.8893956291434924,-2.8893956291434915,1.5734825907519614,1.50095975442646,1.5009563386918772
68,4.23205182668252,2.745686294870918,4.305628751026134,2.8192641684933153,-2.8192641684933157,1.4127876581892043,1.4863645825328184,1.486365531811602
69,4.225396767210607,2.7547592950983746,4.2231080576332545,2.752476222640022,-2.7524762226400217,1.4729205445705853,1.4706318349932328,1.4706374721122324
70,4.214994357966921,2.7612789960883473,4.142852772601563,2.6891480221040567,-2.6891480221040567,1.5258463358628642,1.453704750497506,1.4537153618785736
71,3.973599105128585,2.5380562760286187,4.064997170270343,2.6294701752815506,-2.6294701752815515,1.3441289298470336,1.4355269949887912,1.4355428290999663
72,3.9583307000980374,2.542266382821572,3.989550027544452,2.5735069727816313,-2.573506972781631,1.3848237273164066,1.416043054762821,1.4160643172764655
73,3.9429599943102875,2.547734500058293,3.9163700867662063,2.521171437271673,-2.5211714372716734,1.4217885570386142,1.395198649494533,1.3952254942519944
74,3.9292469931503797,2.556273316537716,3.845297861761675,2.4723567089523204,-2.472356708952321,1.4568902841980589,1.372941152809354,1.3729736766126637
75,3.748368126020272,2.39910985962547,3.7763381035259624,2.42711809909096,-2.427118099090959,1.321250026929313,1.3492200044350033,1.349258266394802
76,3.683443617641591,2.3594124203425264,3.709759913860694,2.3857728078036384,-2.3857728078036393,1.2976708098379515,1.3239871060570545,1.3240311972990644
77,3.679073898444326,2.3818265101621936,3.646026920752379,2.348829691757591,-2.348829691757591,1.3302442066867348,1.2971972289947882,1.2972473882821323
78,3.612544325360286,2.343679122111465,3.5855632226035605,2.3167547081733955,-2.3167547081733946,1.2957896171868915,1.268808514430166,1.2688652032488212
79,3.4429969459185523,2.204150029396365,3.528453557254287,2.289670401430346,-2.289670401430347,1.1533265444882055,1.2387831558239402,1.2388469165221871
80,3.4344292422674902,2.2272700575358835,3.4742215963310903,2.2671333507298823,-2.2671333507298823,1.167295891537608,1.207088245601208,1.2071591847316068
81,3.4207366286656145,2.2469631020517067,3.4218069586804667,2.2481104199783535,-2.248110419978354,1.1726262086872605,1.1736965387021128,1.1737735266139078
82,3.4020748867337165,2.2634080738904943,3.3697808473110187,2.2311941752311926,-2.2311941752311926,1.170880711502524,1.1385866720798261,1.1386668128432222
83,3.380115292498836,2.278293524237789,3.3167390419719025,2.2149966626837916,-2.2149966626837916,1.1651186298150442,1.101742379288111,1.101821768261047
84,3.357465285496238,2.294237796850152,3.261735876422752,2.1985851683704443,-2.1985851683704447,1.1588801171257934,1.0631507080523073,1.0632274886460862
85,3.1088197562738604,2.0859397829335293,3.2046039035847906,2.181803639608443,-2.181803639608443,0.9270161166654174,1.0228002639763476,1.022879973340331
86,3.0917686997504243,2.1109860261889164,3.1460437550849947,2.165362084987086,-2.1653620849870854,0.926406614763339,0.9806816700979093,0.980782673561508
87,3.0788253300723745,2.141878276019083,3.0874475781903516,2.1506547443639166,-2.1506547443639166,0.9281705857084579,0.9367928338264351,0.9369470540532916
88,3.0692128766194013,2.1778197137422204,3.03050674011012,2.1393564829098013,-2.1393564829098017,0.9298563937095996,0.891150257200318,0.891393162877181
89,3.0614491501392194,2.217298949422772,2.976720512941365,2.132916325364006,-2.132916325364006,0.9285328247752132,0.843804187577359,0.8441502007164474
90,2.869967093593723,2.0747100164051604,2.9269489335645096,2.1320980886690934,-2.132098088669094,0.737869004924629,0.7948508448954157,0.7952570771885625
91,2.817374288756869,2.072611351202412,2.8811362301728756,2.1367047472293463,-2.136704747229346,0.6806695415275232,0.7444314829435297,0.7447629375544573
92,2.8066577264149157,2.113930087283257,2.838280901090918,2.145572271349909,-2.145572271349909,0.6610854550650069,0.6927086297410092,0.6927276391316588
93,2.7932400336897114,2.1540178807219545,2.7966591597703268,2.1568425980582946,-2.1568425980582955,0.6363974356314159,0.6398165617120313,0.6392221529677569
94,2.7768800805723535,2.1925512173318302,2.754237166778755,2.1684420137239133,-2.1684420137239133,0.6084380668484402,0.5857951530548418,0.5843288632405232
95,2.7578122183933798,2.2296704836364145,2.709153973933616,2.1786245858529396,-2.178624585852939,0.5791876325404406,0.530529388080677,0.5281417347569652
96,2.7368200201950708,2.2660537020526625,2.660137568265629,2.1864130968144107,-2.1864130968144098,0.550406923380661,0.4737244714512192,0.4707663181424082
97,2.610467847648665,2.1981482845332914,2.606737085681157,2.1917943685857004,-2.1917943685857004,0.4186734790629645,0.4149427170954567,0.41231956311537354
98,2.4660846751555674,2.1131552623174863,2.5493112345491262,2.1955999993639805,-2.195599999363981,0.2704846757915864,0.35371123518514525,0.3529294128380811
99,2.4464196288498563,2.153685472023329,2.488790342462348,2.1991075449819926,-2.199107544981992,0.24731208386786419,0.28968279748035597,0.29273415682652715
100,2.428272546866186,2.196391020568771,2.42630382506131,2.203497852568958,-2.203497852568958,0.22477469429722774,0.22280597249235168,0.23188152629741499
101,2.410839501622902,2.240311977627028,2.362809802105276,2.209363266502576,-2.2093632665025766,0.20147623512032542,0.15344653560269927,0.17052752399587412
102,2.392744856477532,2.283909866246163,2.298860929014096,2.216452266612153,-2.2164522666121527,0.17629258986537932,0.08240866240194356,0.10883499023136878
104,2.1446636189569137,2.1596563264522657,2.2345892879988765,2.223757354831231,-2.223757354831231,-0.07909373587431734,0.010831933167645413,-0.014992707495351976
105,2.1215627577093117,2.198498724239292,2.169909106204096,2.229928753191415,-2.2299287531914147,-0.10836599548210302,-0.060019646987318875,-0.07693596652998025
106,2.0955385735655656,2.234122261854358,2.1048474774894377,2.233869435133216,-2.2338694351332156,-0.13833086156764995,-0.12902195764377788,-0.1385836882887923
107,2.0675272138017515,2.267294462018329,2.039855698556977,2.2352876458101187,-2.235287645810119,-0.16776043200836765,-0.19543194725314228,-0.19976724821657754
108,2.0390897942510136,2.2994121100247265,1.975953911849797,2.2349872294654243,-2.234987229465424,-0.19589743521441028,-0.25903331761562676,-0.2603223157737129
109,2.0119263965794163,2.3320175435009665,1.9146250258544888,2.2347684774659573,-2.2347684774659573,-0.222842080886541,-0.3201434516114685,-0.32009114692155016
110,1.7624248436349483,2.141349667980022,1.8574773395075914,2.2369593771551113,-2.2369593771551104,-0.47453453352016206,-0.379482037647519,-0.3789248243450736
111,1.738405613769333,2.17509099013701,1.8057960618708737,2.243740549335949,-2.2437405493359495,-0.5053349355666166,-0.43794448746507575,-0.43668537636767724
112,1.7210088524430045,2.214256558998285,1.7601569512374207,2.25650716479523,-2.2565071647952304,-0.5354983123522259,-0.4963502135578097,-0.4932477065552807
113,1.7072641689192731,2.255765439292801,1.72025351163153,2.275492055006752,-2.2754920550067514,-0.5682278860874783,-0.5552385433752214,-0.5485012703735279
114,1.6971206753923322,2.299472118271976,1.6849996351521601,2.2997635724943173,-2.299763572494318,-0.6026428971019859,-0.6147639373421581,-0.6023514428796437
115,1.6906077558247565,2.3453282878416633,1.652855422368222,2.3275617019612884,-2.3275617019612884,-0.6369539461365319,-0.6747062795930665,-0.6547205320169067
117,1.6877210263372846,2.4479821475950705,1.6222402096534285,2.3568152552261763,-2.356815255226176,-0.6690942288888913,-0.7345750455727473,-0.7602611212577859
118,1.6662044776005152,2.474585295358334,1.5918821699029118,2.3856431236520157,-2.385643123652015,-0.7194386460514997,-0.793760953749103,-0.8083808177578189
119,1.4635998078233152,2.3184452168959178,1.56100861824355,2.4126910828247605,-2.41269108282476,-0.9490912750014449,-0.85168246458121,-0.8548454090726025
120,1.4688615611097422,2.368515654698812,1.5293690807703308,2.4372559452560134,-2.4372559452560134,-0.9683943841462712,-0.9078868644856826,-0.8996540935890698
121,1.4752126589439398,2.418034601511094,1.4971521741209353,2.4592419257566416,-2.4592419257566416,-0.9840292668127018,-0.9620897516357063,-0.942821942567154
123,1.4819525386170982,2.513729519164089,1.4648707773383922,2.479032484415197,-2.479032484415197,-0.9970799457980988,-1.0141617070768048,-1.031776980546991
124,1.4886117965840122,2.559070574263063,1.4332499459487735,2.497336810427682,-2.497336810427683,-1.0087250138436707,-1.0640868644789094,-1.0704587776790508
125,1.4948691979544773,2.6024858856638917,1.403098128830751,2.5150183075662174,-2.5150183075662174,-1.02014910961174,-1.1119201787354664,-1.1076166877094145
126,1.3468383764438414,2.4901574328079046,1.3751212046546024,2.5328815211177886,-2.532881521117788,-1.1860431446739468,-1.1577603164631858,-1.1433190563640632
128,1.2770936807837723,2.49555858595231,1.3496733878542209,2.5514136028449412,-2.551413602844942,-1.2743199220611698,-1.2017402149907213,-1.218464905168538
129,1.280457318045329,2.5306393367203324,1.3265107536997756,2.57053608152416,-2.570536081524161,-1.290078763478832,-1.2440253278243854,-1.2501820186750034
130,1.2825534754249182,2.563248749315093,1.3046721039432945,2.589478080980656,-2.589478080980656,-1.306924605555738,-1.2848059770373617,-1.2806952738901747
131,1.2835529967399966,2.59364563853897,1.2826072428370923,2.6068832235626545,-2.606883223562654,-1.3233302268226574,-1.3242759807255617,-1.3100926417989736
133,1.2837795271316468,2.6566927346775424,1.2585879731018184,2.6211884853390766,-2.6211884853390774,-1.3374089582074307,-1.362600512237259,-1.3729132075458956
134,1.2835568271355173,2.682680214226617,1.2313057848948357,2.631191021976621,-2.6311910219766212,-1.347634194841104,-1.3998852370817856,-1.3991233870910995
135,1.2830690209242341,2.7075648225098012,1.2004496411379786,2.6366105361463306,-2.6366105361463315,-1.3535415152220973,-1.4361608950083529,-1.424495801585567
137,1.2043349375271735,2.6831924157652813,1.1670289969338679,2.638420620724732,-2.638420620724731,-1.4340856831975577,-1.4713916237908633,-1.4788574782381079
138,1.0533591472459234,2.5550339104800313,1.1332838638239577,2.6387887195436543,-2.6387887195436543,-1.585429572297731,-1.5055048557196966,-1.5016747632341079
140,1.0520524620719778,2.6024695039682184,1.1021754935086214,2.6406062327918423,-2.6406062327918423,-1.5885537707198645,-1.5384307392832208,-1.5504170418962406
141,1.0507544400680118,2.621839673904924,1.076610154874352,2.6467449749834278,-2.6467449749834273,-1.5959905349154155,-1.5701348201090752,-1.5710852338369121
142,1.0498821778783771,2.6411754460148704,1.058644100208365,2.659275416532597,-2.6592754165325974,-1.6093932386542202,-1.6006313163242323,-1.5912932681364933
144,1.0497648969634978,2.683486974363582,1.0489134706828582,2.678887148308537,-2.6788871483085366,-1.6291222513450387,-1.6299736776256784,-1.6337220774000842
145,1.0503756131215312,2.702596067562276,1.0464403290664919,2.7046696729825452,-2.7046696729825452,-1.654294059861014,-1.6582293439160534,-1.6522204544407448
147,1.0512363492504022,2.7416653081146607,1.0488328763706793,2.7342846822866944,-2.7342846822866944,-1.6830483330362922,-1.685451805916015,-1.6904289588642585
148,1.0516075595316536,2.75904072405778,1.0527797595892103,2.764442528908433,-2.7644425289084325,-1.7128349693767788,-1.7116627693192221,-1.7074331645261265
150,1.0508746830514442,2.7927307289515815,1.054674954320109,2.791526231053033,-2.7915262310530338,-1.7406515480015896,-1.7368512767329247,-1.7418560459001373
151,1.0488852595107776,2.80636618280177,1.05121084366835,2.812198853388609,-2.812198853388609,-1.7633135938778315,-1.760988009720259,-1.7574809232909923
153,1.0459977697400635,2.8344322791781136,1.039825057599483,2.8238710590616956,-2.8238710590616956,-1.777873289321632,-1.7840460014622126,-1.78843450943805
154,1.0427915629492146,2.845482194612175,1.0189524780379808,2.824969265018888,-2.824969265018888,-1.7821777020696734,-1.8060167869809072,-1.8026906316629603
156,1.0396238207707515,2.8699942020486864,0.988093077223129,2.8150072058186524,-2.8150072058186524,-1.7753833850479008,-1.8269141285955235,-1.8303703812779348
157,1.017526344602544,2.8606969312071153,0.9477452541468253,2.7945091265196926,-2.794509126519692,-1.7769827819171482,-1.846763872372867,-1.8431705866045713
159,0.8043612393262274,2.6720230562947767,0.8992680775537669,2.7648530618016873,-2.7648530618016878,-1.9604918224754604,-1.8655849842479209,-1.8676618169685493
160,0.7988309416904631,2.677671066704141,0.8447249283904927,2.7280955101449553,-2.7280955101449553,-1.9292645684544922,-1.8833705817544626,-1.878840125013678
