frequency,raw
20.00,12.77
20.20,12.72
20.40,12.68
20.61,12.64
20.81,12.60
21.02,12.56
21.23,12.53
21.44,12.50
21.66,12.47
21.87,12.45
22.09,12.42
22.31,12.40
22.54,12.38
22.76,12.36
22.99,12.34
23.22,12.33
23.45,12.33
23.69,12.33
23.92,12.34
24.16,12.35
24.40,12.36
24.65,12.37
24.89,12.37
25.14,12.37
25.39,12.36
25.65,12.35
25.91,12.33
26.16,12.31
26.43,12.28
26.69,12.25
26.96,12.23
27.23,12.21
27.50,12.19
27.77,12.15
28.05,12.12
28.33,12.08
28.62,12.05
28.90,12.01
29.19,11.96
29.48,11.91
29.78,11.86
30.08,11.81
30.38,11.77
30.68,11.73
30.99,11.68
31.30,11.63
31.61,11.59
31.93,11.57
32.24,11.56
32.57,11.58
32.89,11.61
33.22,11.67
33.55,11.75
33.89,11.84
34.23,11.93
34.57,12.04
34.92,12.16
35.27,12.29
35.62,12.42
35.97,12.55
36.33,12.68
36.70,12.82
37.06,12.95
37.43,13.07
37.81,13.19
38.19,13.28
38.57,13.36
38.95,13.43
39.34,13.51
39.74,13.58
40.14,13.62
40.54,13.66
40.94,13.68
41.35,13.68
41.76,13.67
42.18,13.65
42.60,13.63
43.03,13.61
43.46,13.57
43.90,13.52
44.33,13.48
44.78,13.43
45.23,13.38
45.68,13.32
46.13,13.27
46.60,13.22
47.06,13.17
47.53,13.13
48.01,13.10
48.49,13.07
48.97,13.06
49.46,13.05
49.96,13.03
50.46,13.01
50.96,12.99
51.47,12.97
51.99,12.95
52.51,12.94
53.03,12.92
53.56,12.90
54.10,12.87
54.64,12.84
55.18,12.81
55.74,12.78
56.29,12.75
56.86,12.73
57.42,12.70
58.00,12.68
58.58,12.67
59.16,12.66
59.76,12.66
60.35,12.66
60.96,12.67
61.57,12.68
62.18,12.69
62.80,12.70
63.43,12.70
64.07,12.69
64.71,12.68
65.35,12.66
66.01,12.64
66.67,12.61
67.33,12.58
68.01,12.55
68.69,12.52
69.37,12.49
70.07,12.47
70.77,12.44
71.48,12.42
72.19,12.40
72.91,12.37
73.64,12.34
74.38,12.31
75.12,12.29
75.87,12.26
76.63,12.24
77.40,12.22
78.17,12.19
78.95,12.16
79.74,12.14
80.54,12.12
81.35,12.10
82.16,12.07
82.98,12.05
83.81,12.02
84.65,11.99
85.50,11.96
86.35,11.94
87.22,11.93
88.09,11.92
88.97,11.89
89.86,11.86
90.76,11.82
91.66,11.77
92.58,11.72
93.51,11.68
94.44,11.64
95.39,11.60
96.34,11.57
97.30,11.53
98.28,11.50
99.26,11.47
100.25,11.43
101.25,11.38
102.27,11.34
103.29,11.29
104.32,11.25
105.37,11.22
106.42,11.20
107.48,11.18
108.56,11.15
109.64,11.12
110.74,11.08
111.85,11.05
112.97,11.01
114.10,10.97
115.24,10.93
116.39,10.89
117.55,10.85
118.73,10.81
119.92,10.77
121.12,10.72
122.33,10.67
123.55,10.61
124.79,10.55
126.03,10.49
127.29,10.43
128.57,10.38
129.85,10.34
131.15,10.29
132.46,10.25
133.79,10.21
135.12,10.17
136.48,10.15
137.84,10.13
139.22,10.11
140.61,10.09
142.02,10.08
143.44,10.06
144.87,10.06
146.32,10.06
147.78,10.07
149.26,10.08
150.75,10.08
152.26,10.08
153.78,10.08
155.32,10.08
156.88,10.08
158.44,10.08
160.03,10.08
161.63,10.08
163.24,10.09
164.88,10.10
166.53,10.11
168.19,10.10
169.87,10.10
171.57,10.08
173.29,10.07
175.02,10.05
176.77,10.03
178.54,10.01
180.32,9.98
182.13,9.95
183.95,9.90
185.79,9.86
187.65,9.82
189.52,9.78
191.42,9.72
193.33,9.66
195.27,9.61
197.22,9.56
199.19,9.51
201.18,9.46
203.19,9.40
205.23,9.34
207.28,9.28
209.35,9.22
211.44,9.16
213.56,9.09
215.69,9.03
217.85,8.97
220.03,8.91
222.23,8.85
224.45,8.80
226.70,8.74
228.96,8.68
231.25,8.63
233.57,8.58
235.90,8.53
238.26,8.48
240.64,8.42
243.05,8.37
245.48,8.32
247.93,8.27
250.41,8.20
252.92,8.14
255.45,8.07
258.00,8.02
260.58,7.96
263.19,7.90
265.82,7.83
268.48,7.76
271.16,7.70
273.87,7.65
276.61,7.59
279.38,7.52
282.17,7.45
284.99,7.39
287.84,7.33
290.72,7.28
293.63,7.21
296.57,7.13
299.53,7.06
302.53,7.00
305.55,6.94
308.61,6.88
311.69,6.80
314.81,6.73
317.96,6.67
321.14,6.62
324.35,6.56
327.59,6.50
330.87,6.43
334.18,6.37
337.52,6.32
340.90,6.26
344.30,6.20
347.75,6.13
351.23,6.07
354.74,6.03
358.28,5.97
361.87,5.90
365.49,5.83
369.14,5.77
372.83,5.72
376.56,5.67
380.33,5.61
384.13,5.54
387.97,5.48
391.85,5.42
395.77,5.36
399.73,5.29
403.72,5.21
407.76,5.14
411.84,5.07
415.96,5.01
420.12,4.94
424.32,4.87
428.56,4.80
432.85,4.74
437.18,4.68
441.55,4.63
445.96,4.56
450.42,4.49
454.93,4.42
459.48,4.37
464.07,4.32
468.71,4.26
473.40,4.19
478.13,4.14
482.91,4.08
487.74,4.03
492.62,3.96
497.55,3.89
502.52,3.83
507.55,3.77
512.62,3.71
517.75,3.66
522.93,3.59
528.16,3.53
533.44,3.47
538.77,3.42
544.16,3.36
549.60,3.30
555.10,3.23
560.65,3.17
566.25,3.12
571.92,3.08
577.64,3.02
583.41,2.96
589.25,2.89
595.14,2.83
601.09,2.78
607.10,2.73
613.17,2.66
619.30,2.60
625.50,2.53
631.75,2.47
638.07,2.42
644.45,2.37
650.89,2.30
657.40,2.24
663.98,2.18
670.62,2.13
677.32,2.08
684.10,2.02
690.94,1.96
697.85,1.89
704.83,1.84
711.87,1.79
718.99,1.73
726.18,1.66
733.44,1.60
740.78,1.53
748.19,1.48
755.67,1.43
763.23,1.36
770.86,1.30
778.57,1.24
786.35,1.18
794.22,1.13
802.16,1.08
810.18,1.02
818.28,0.96
826.46,0.91
834.73,0.85
843.08,0.79
851.51,0.73
860.02,0.68
868.62,0.63
877.31,0.58
886.08,0.53
894.94,0.48
903.89,0.42
912.93,0.36
922.06,0.32
931.28,0.29
940.59,0.25
950.00,0.21
959.50,0.16
969.09,0.11
978.78,0.07
988.57,0.04
998.46,0.01
1008.44,-0.04
1018.53,-0.09
1028.71,-0.14
1039.00,-0.19
1049.39,-0.24
1059.88,-0.28
1070.48,-0.31
1081.19,-0.36
1092.00,-0.41
1102.92,-0.47
1113.95,-0.53
1125.09,-0.58
1136.34,-0.63
1147.70,-0.66
1159.18,-0.70
1170.77,-0.74
1182.48,-0.78
1194.30,-0.82
1206.25,-0.86
1218.31,-0.90
1230.49,-0.94
1242.80,-0.98
1255.22,-1.03
1267.78,-1.07
1280.45,-1.11
1293.26,-1.15
1306.19,-1.17
1319.25,-1.19
1332.45,-1.21
1345.77,-1.24
1359.23,-1.26
1372.82,-1.27
1386.55,-1.29
1400.41,-1.29
1414.42,-1.29
1428.56,-1.28
1442.85,-1.28
1457.28,-1.27
1471.85,-1.27
1486.57,-1.27
1501.43,-1.27
1516.45,-1.28
1531.61,-1.29
1546.93,-1.29
1562.40,-1.29
1578.02,-1.28
1593.80,-1.27
1609.74,-1.25
1625.84,-1.22
1642.10,-1.20
1658.52,-1.17
1675.10,-1.14
1691.85,-1.11
1708.77,-1.07
1725.86,-1.04
1743.12,-1.02
1760.55,-0.99
1778.15,-0.98
1795.94,-0.97
1813.90,-0.96
1832.03,-0.94
1850.36,-0.93
1868.86,-0.92
1887.55,-0.91
1906.42,-0.89
1925.49,-0.87
1944.74,-0.84
1964.19,-0.82
1983.83,-0.80
2003.67,-0.77
2023.71,-0.74
2043.94,-0.70
2064.38,-0.66
2085.03,-0.62
2105.88,-0.57
2126.94,-0.53
2148.20,-0.50
2169.69,-0.46
2191.38,-0.44
2213.30,-0.42
2235.43,-0.39
2257.78,-0.37
2280.36,-0.34
2303.17,-0.32
2326.20,-0.30
2349.46,-0.28
2372.95,-0.27
2396.68,-0.27
2420.65,-0.28
2444.86,-0.28
2469.31,-0.28
2494.00,-0.28
2518.94,-0.27
2544.13,-0.27
2569.57,-0.28
2595.27,-0.30
2621.22,-0.31
2647.43,-0.32
2673.90,-0.34
2700.64,-0.37
2727.65,-0.41
2754.93,-0.44
2782.48,-0.48
2810.30,-0.52
2838.40,-0.57
2866.79,-0.62
2895.46,-0.69
2924.41,-0.75
2953.65,-0.82
2983.19,-0.90
3013.02,-0.97
3043.15,-1.04
3073.58,-1.12
3104.32,-1.20
3135.36,-1.31
3166.72,-1.43
3198.38,-1.55
3230.37,-1.68
3262.67,-1.81
3295.30,-1.95
3328.25,-2.10
3361.53,-2.25
3395.15,-2.40
3429.10,-2.56
3463.39,-2.72
3498.03,-2.88
3533.01,-3.05
3568.34,-3.21
3604.02,-3.37
3640.06,-3.53
3676.46,-3.68
3713.22,-3.82
3750.36,-3.96
3787.86,-4.08
3825.74,-4.21
3864.00,-4.34
3902.64,-4.48
3941.66,-4.60
3981.08,-4.70
4020.89,-4.82
4061.10,-4.92
4101.71,-5.02
4142.73,-5.12
4184.15,-5.21
4226.00,-5.30
4268.26,-5.41
4310.94,-5.50
4354.05,-5.59
4397.59,-5.70
4441.56,-5.79
4485.98,-5.88
4530.84,-5.98
4576.15,-6.08
4621.91,-6.19
4668.13,-6.31
4714.81,-6.43
4761.96,-6.55
4809.58,-6.69
4857.67,-6.82
4906.25,-6.94
4955.31,-7.07
5004.87,-7.21
5054.91,-7.33
5105.46,-7.46
5156.52,-7.59
5208.08,-7.72
5260.16,-7.84
5312.77,-7.95
5365.89,-8.06
5419.55,-8.17
5473.75,-8.28
5528.49,-8.38
5583.77,-8.48
5639.61,-8.57
5696.00,-8.67
5752.96,-8.74
5810.49,-8.82
5868.60,-8.88
5927.28,-8.93
5986.56,-8.98
6046.42,-9.02
6106.89,-9.06
6167.96,-9.08
6229.64,-9.11
6291.93,-9.12
6354.85,-9.11
6418.40,-9.09
6482.58,-9.05
6547.41,-9.01
6612.88,-8.96
6679.01,-8.92
6745.80,-8.87
6813.26,-8.81
6881.39,-8.75
6950.21,-8.68
7019.71,-8.58
7089.91,-8.47
7160.81,-8.36
7232.41,-8.25
7304.74,-8.12
7377.79,-7.98
7451.56,-7.84
7526.08,-7.70
7601.34,-7.56
7677.35,-7.40
7754.13,-7.25
7831.67,-7.09
7909.98,-6.92
7989.08,-6.76
8068.98,-6.61
8149.67,-6.47
8231.16,-6.33
8313.47,-6.21
8396.61,-6.11
8480.57,-6.04
8565.38,-5.97
8651.03,-5.92
8737.54,-5.88
8824.92,-5.86
8913.17,-5.87
9002.30,-5.89
9092.32,-5.93
9183.25,-5.98
9275.08,-6.05
9367.83,-6.12
9461.51,-6.22
9556.12,-6.32
9651.68,-6.43
9748.20,-6.55
9845.68,-6.66
9944.14,-6.76
10043.58,-6.85
10144.02,-6.93
10245.46,-6.98
10347.91,-7.03
10451.39,-7.05
10555.91,-7.04
10661.46,-6.99
10768.08,-6.91
10875.76,-6.83
10984.52,-6.71
11094.36,-6.60
11205.31,-6.47
11317.36,-6.33
11430.53,-6.20
11544.84,-6.08
11660.29,-5.98
11776.89,-5.89
11894.66,-5.81
12013.60,-5.77
12133.74,-5.76
12255.08,-5.77
12377.63,-5.80
12501.41,-5.87
12626.42,-5.96
12752.68,-6.09
12880.21,-6.26
13009.01,-6.46
13139.10,-6.71
13270.49,-7.01
13403.20,-7.38
13537.23,-7.81
13672.60,-8.32
13809.33,-8.91
13947.42,-9.56
14086.90,-10.28
14227.77,-11.07
14370.04,-11.89
14513.74,-12.74
14658.88,-13.60
14805.47,-14.47
14953.52,-15.33
15103.06,-16.16
15254.09,-16.94
15406.63,-17.67
15560.70,-18.35
15716.30,-18.94
15873.47,-19.47
16032.20,-19.94
16192.52,-20.32
16354.45,-20.65
16517.99,-20.94
16683.17,-21.18
16850.01,-21.38
17018.51,-21.57
17188.69,-21.76
17360.58,-21.92
17534.18,-22.08
17709.53,-22.23
17886.62,-22.39
18065.49,-22.62
18246.14,-22.86
18428.60,-23.11
18612.89,-23.36
18799.02,-23.62
18987.01,-23.89
19176.88,-24.17
19368.65,-24.45
19562.33,-24.75
19757.96,-25.05
19955.54,-25.36
