frequency,raw,error,smoothed,error_smoothed,equalization,parametric_eq,fixed_band_eq,equalized_raw,equalized_smoothed,target
20.00,6.19,2.81,6.19,2.81,-2.81,-2.80,-1.46,3.38,3.38,3.38
20.20,6.20,2.83,6.20,2.83,-2.83,-2.82,-1.50,3.36,3.37,3.37
20.40,6.22,2.86,6.22,2.86,-2.86,-2.85,-1.54,3.36,3.36,3.36
20.61,6.23,2.88,6.23,2.88,-2.88,-2.87,-1.59,3.34,3.35,3.35
20.81,6.25,2.92,6.24,2.91,-2.91,-2.90,-1.63,3.34,3.33,3.33
21.02,6.26,2.94,6.26,2.93,-2.93,-2.92,-1.68,3.33,3.32,3.32
21.23,6.27,2.96,6.27,2.96,-2.96,-2.94,-1.72,3.31,3.31,3.31
21.44,6.29,2.97,6.28,2.98,-2.98,-2.96,-1.77,3.31,3.30,3.32
21.66,6.30,3.00,6.30,3.00,-3.00,-2.98,-1.82,3.30,3.30,3.30
21.87,6.31,3.01,6.31,3.02,-3.02,-3.00,-1.87,3.29,3.29,3.30
22.09,6.32,3.04,6.32,3.04,-3.04,-3.02,-1.93,3.28,3.28,3.28
22.31,6.34,3.06,6.33,3.06,-3.06,-3.04,-1.98,3.28,3.27,3.28
22.54,6.35,3.08,6.35,3.08,-3.08,-3.05,-2.04,3.27,3.27,3.27
22.76,6.36,3.09,6.36,3.10,-3.10,-3.07,-2.09,3.26,3.26,3.26
22.99,6.37,3.11,6.37,3.12,-3.12,-3.09,-2.15,3.25,3.26,3.25
23.22,6.38,3.13,6.38,3.13,-3.13,-3.10,-2.21,3.25,3.25,3.24
23.45,6.40,3.15,6.40,3.15,-3.15,-3.12,-2.27,3.25,3.25,3.25
23.69,6.41,3.17,6.41,3.17,-3.17,-3.13,-2.33,3.24,3.24,3.24
23.92,6.43,3.20,6.42,3.18,-3.18,-3.14,-2.40,3.25,3.24,3.23
24.16,6.44,3.20,6.43,3.20,-3.20,-3.16,-2.46,3.24,3.24,3.24
24.40,6.45,3.21,6.45,3.21,-3.21,-3.17,-2.53,3.24,3.24,3.24
24.65,6.46,3.22,6.46,3.22,-3.22,-3.18,-2.59,3.23,3.23,3.24
24.89,6.47,3.23,6.47,3.24,-3.24,-3.19,-2.66,3.23,3.23,3.24
25.14,6.48,3.25,6.48,3.25,-3.25,-3.20,-2.73,3.23,3.23,3.23
25.39,6.49,3.26,6.49,3.26,-3.26,-3.22,-2.79,3.23,3.23,3.23
25.65,6.50,3.27,6.50,3.27,-3.27,-3.23,-2.86,3.22,3.23,3.23
25.91,6.52,3.29,6.51,3.28,-3.28,-3.24,-2.93,3.23,3.23,3.23
26.16,6.53,3.29,6.52,3.30,-3.30,-3.25,-3.00,3.23,3.23,3.23
26.43,6.54,3.30,6.54,3.31,-3.31,-3.26,-3.07,3.23,3.23,3.23
26.69,6.55,3.32,6.55,3.32,-3.32,-3.27,-3.13,3.23,3.23,3.23
26.96,6.56,3.33,6.56,3.33,-3.33,-3.28,-3.20,3.23,3.23,3.23
27.23,6.57,3.34,6.57,3.33,-3.33,-3.28,-3.27,3.23,3.23,3.23
27.50,6.58,3.35,6.58,3.34,-3.34,-3.29,-3.33,3.24,3.24,3.23
27.77,6.59,3.35,6.59,3.35,-3.35,-3.30,-3.39,3.24,3.24,3.24
28.05,6.60,3.36,6.60,3.36,-3.36,-3.31,-3.45,3.24,3.24,3.24
28.33,6.61,3.36,6.61,3.36,-3.36,-3.32,-3.51,3.24,3.24,3.25
28.62,6.62,3.37,6.62,3.37,-3.37,-3.33,-3.57,3.25,3.25,3.24
28.90,6.63,3.37,6.62,3.38,-3.38,-3.34,-3.62,3.25,3.25,3.25
29.19,6.64,3.39,6.63,3.39,-3.39,-3.35,-3.67,3.25,3.25,3.25
29.48,6.64,3.39,6.64,3.40,-3.40,-3.36,-3.72,3.24,3.25,3.25
29.78,6.65,3.40,6.65,3.40,-3.40,-3.37,-3.76,3.24,3.24,3.25
30.08,6.66,3.41,6.66,3.41,-3.41,-3.38,-3.80,3.24,3.24,3.25
30.38,6.67,3.43,6.66,3.42,-3.42,-3.39,-3.84,3.24,3.24,3.24
30.68,6.67,3.43,6.67,3.43,-3.43,-3.40,-3.87,3.23,3.24,3.23
30.99,6.68,3.45,6.68,3.45,-3.45,-3.42,-3.90,3.23,3.23,3.23
31.30,6.69,3.46,6.69,3.46,-3.46,-3.43,-3.92,3.23,3.23,3.23
31.61,6.69,3.46,6.69,3.47,-3.47,-3.44,-3.94,3.22,3.22,3.23
31.93,6.70,3.49,6.70,3.48,-3.48,-3.45,-3.95,3.21,3.22,3.21
32.24,6.71,3.49,6.71,3.50,-3.50,-3.46,-3.97,3.21,3.21,3.21
32.57,6.72,3.52,6.72,3.51,-3.51,-3.48,-3.98,3.21,3.21,3.20
32.89,6.73,3.53,6.72,3.52,-3.52,-3.49,-3.98,3.20,3.20,3.20
33.22,6.73,3.53,6.73,3.54,-3.54,-3.50,-3.98,3.19,3.20,3.20
33.55,6.74,3.54,6.74,3.55,-3.55,-3.52,-3.98,3.19,3.19,3.19
33.89,6.75,3.57,6.75,3.56,-3.56,-3.53,-3.98,3.19,3.18,3.18
34.23,6.75,3.58,6.75,3.57,-3.57,-3.55,-3.97,3.17,3.18,3.17
34.57,6.76,3.59,6.76,3.59,-3.59,-3.56,-3.96,3.17,3.17,3.17
34.92,6.77,3.61,6.76,3.60,-3.60,-3.58,-3.95,3.17,3.16,3.15
35.27,6.77,3.60,6.77,3.62,-3.62,-3.59,-3.94,3.15,3.15,3.17
35.62,6.78,3.63,6.77,3.63,-3.63,-3.61,-3.93,3.15,3.15,3.15
35.97,6.78,3.63,6.77,3.64,-3.64,-3.63,-3.91,3.14,3.13,3.14
36.33,6.78,3.65,6.77,3.65,-3.65,-3.64,-3.90,3.13,3.12,3.13
36.70,6.78,3.67,6.77,3.66,-3.66,-3.66,-3.88,3.11,3.11,3.11
37.06,6.78,3.68,6.77,3.68,-3.68,-3.68,-3.87,3.10,3.09,3.09
37.43,6.78,3.70,6.77,3.69,-3.69,-3.70,-3.86,3.09,3.08,3.08
37.81,6.77,3.70,6.77,3.70,-3.70,-3.72,-3.84,3.06,3.06,3.07
38.19,6.77,3.73,6.77,3.72,-3.72,-3.74,-3.83,3.05,3.05,3.04
38.57,6.76,3.73,6.76,3.73,-3.73,-3.76,-3.82,3.02,3.03,3.03
38.95,6.75,3.74,6.76,3.75,-3.75,-3.78,-3.81,3.00,3.01,3.01
39.34,6.75,3.76,6.76,3.77,-3.77,-3.80,-3.80,2.98,2.99,2.99
39.74,6.75,3.78,6.75,3.78,-3.78,-3.82,-3.80,2.97,2.97,2.96
40.14,6.75,3.80,6.75,3.80,-3.80,-3.84,-3.80,2.95,2.95,2.95
40.54,6.75,3.81,6.75,3.82,-3.82,-3.86,-3.79,2.93,2.93,2.93
40.94,6.75,3.84,6.75,3.83,-3.83,-3.88,-3.80,2.91,2.91,2.91
41.35,6.75,3.86,6.75,3.85,-3.85,-3.91,-3.80,2.90,2.89,2.89
41.76,6.75,3.88,6.75,3.87,-3.87,-3.93,-3.81,2.88,2.87,2.87
42.18,6.75,3.89,6.75,3.89,-3.89,-3.95,-3.81,2.86,2.85,2.86
42.60,6.75,3.91,6.75,3.91,-3.91,-3.98,-3.83,2.84,2.83,2.83
43.03,6.75,3.93,6.75,3.93,-3.93,-4.00,-3.84,2.82,2.81,2.82
43.46,6.75,3.96,6.75,3.95,-3.95,-4.02,-3.86,2.79,2.79,2.79
43.90,6.75,3.97,6.75,3.98,-3.98,-4.05,-3.88,2.77,2.77,2.77
44.33,6.75,4.00,6.75,4.00,-4.00,-4.07,-3.90,2.75,2.75,2.75
44.78,6.75,4.02,6.75,4.02,-4.02,-4.10,-3.92,2.73,2.73,2.73
45.23,6.75,4.04,6.75,4.05,-4.05,-4.12,-3.95,2.70,2.70,2.71
45.68,6.75,4.08,6.75,4.08,-4.08,-4.15,-3.98,2.67,2.67,2.67
46.13,6.75,4.10,6.75,4.11,-4.11,-4.18,-4.02,2.64,2.64,2.64
46.60,6.75,4.13,6.75,4.14,-4.14,-4.20,-4.06,2.61,2.61,2.62
47.06,6.75,4.16,6.75,4.17,-4.17,-4.23,-4.10,2.58,2.58,2.59
47.53,6.75,4.19,6.75,4.20,-4.20,-4.26,-4.14,2.54,2.54,2.56
48.01,6.75,4.24,6.75,4.24,-4.24,-4.28,-4.18,2.51,2.51,2.51
48.49,6.75,4.27,6.75,4.27,-4.27,-4.31,-4.23,2.48,2.48,2.48
48.97,6.75,4.31,6.75,4.31,-4.31,-4.34,-4.28,2.44,2.44,2.44
49.46,6.75,4.34,6.75,4.34,-4.34,-4.37,-4.33,2.41,2.41,2.40
49.96,6.75,4.39,6.75,4.38,-4.38,-4.40,-4.39,2.37,2.37,2.35
50.46,6.75,4.42,6.75,4.41,-4.41,-4.42,-4.44,2.33,2.33,2.33
50.96,6.75,4.45,6.75,4.45,-4.45,-4.45,-4.50,2.30,2.30,2.30
51.47,6.75,4.48,6.75,4.48,-4.48,-4.48,-4.56,2.27,2.27,2.27
51.99,6.75,4.52,6.75,4.52,-4.52,-4.51,-4.62,2.23,2.23,2.22
52.51,6.75,4.55,6.75,4.55,-4.55,-4.54,-4.68,2.20,2.20,2.20
53.03,6.75,4.57,6.75,4.58,-4.58,-4.57,-4.74,2.16,2.16,2.18
53.56,6.75,4.61,6.75,4.62,-4.62,-4.60,-4.80,2.13,2.13,2.14
54.10,6.75,4.65,6.75,4.65,-4.65,-4.63,-4.87,2.10,2.10,2.10
54.64,6.75,4.68,6.75,4.68,-4.68,-4.66,-4.93,2.07,2.07,2.07
55.18,6.75,4.71,6.75,4.71,-4.71,-4.69,-4.99,2.04,2.04,2.03
55.74,6.75,4.75,6.75,4.73,-4.73,-4.72,-5.05,2.01,2.01,2.00
56.29,6.75,4.77,6.75,4.76,-4.76,-4.75,-5.10,1.98,1.98,1.98
56.86,6.75,4.79,6.75,4.79,-4.79,-4.78,-5.16,1.96,1.96,1.95
57.42,6.75,4.83,6.75,4.82,-4.82,-4.81,-5.21,1.92,1.92,1.91
58.00,6.75,4.86,6.75,4.85,-4.85,-4.85,-5.26,1.89,1.89,1.89
58.58,6.75,4.88,6.75,4.89,-4.89,-4.88,-5.31,1.86,1.86,1.87
59.16,6.75,4.90,6.75,4.92,-4.92,-4.91,-5.35,1.83,1.83,1.85
59.76,6.75,4.93,6.75,4.96,-4.96,-4.94,-5.39,1.79,1.79,1.82
60.35,6.75,4.97,6.75,4.99,-4.99,-4.97,-5.43,1.76,1.76,1.77
60.96,6.75,5.02,6.75,5.03,-5.03,-5.00,-5.46,1.72,1.72,1.73
61.57,6.75,5.07,6.75,5.07,-5.07,-5.04,-5.49,1.68,1.68,1.68
62.18,6.75,5.11,6.75,5.11,-5.11,-5.07,-5.51,1.64,1.64,1.63
62.80,6.75,5.16,6.75,5.15,-5.15,-5.10,-5.53,1.60,1.60,1.59
63.43,6.75,5.20,6.75,5.19,-5.19,-5.13,-5.55,1.56,1.56,1.55
64.07,6.75,5.24,6.75,5.23,-5.23,-5.16,-5.56,1.52,1.52,1.51
64.71,6.75,5.27,6.75,5.27,-5.27,-5.20,-5.56,1.48,1.48,1.47
65.35,6.75,5.31,6.75,5.31,-5.31,-5.23,-5.56,1.44,1.44,1.44
66.01,6.75,5.35,6.75,5.35,-5.35,-5.26,-5.56,1.40,1.40,1.40
66.67,6.75,5.38,6.75,5.39,-5.39,-5.30,-5.56,1.36,1.36,1.37
67.33,6.75,5.43,6.75,5.43,-5.43,-5.33,-5.55,1.32,1.32,1.32
68.01,6.75,5.46,6.75,5.46,-5.46,-5.36,-5.54,1.28,1.28,1.29
68.69,6.75,5.50,6.75,5.50,-5.50,-5.39,-5.52,1.25,1.24,1.25
69.37,6.75,5.53,6.75,5.54,-5.54,-5.43,-5.51,1.20,1.20,1.21
70.07,6.75,5.58,6.75,5.58,-5.58,-5.46,-5.49,1.16,1.17,1.17
70.77,6.75,5.62,6.75,5.63,-5.63,-5.49,-5.47,1.12,1.13,1.13
71.48,6.75,5.65,6.75,5.67,-5.67,-5.52,-5.45,1.08,1.09,1.09
72.19,6.75,5.70,6.76,5.71,-5.71,-5.56,-5.43,1.04,1.05,1.05
72.91,6.75,5.75,6.76,5.75,-5.75,-5.59,-5.41,1.00,1.01,1.00
73.64,6.76,5.79,6.76,5.79,-5.79,-5.62,-5.39,0.97,0.97,0.96
74.38,6.76,5.83,6.76,5.83,-5.83,-5.66,-5.37,0.93,0.94,0.93
75.12,6.77,5.87,6.77,5.86,-5.86,-5.69,-5.36,0.90,0.90,0.90
75.87,6.78,5.91,6.76,5.90,-5.90,-5.72,-5.34,0.88,0.87,0.87
76.63,6.77,5.94,6.76,5.92,-5.92,-5.75,-5.33,0.84,0.83,0.83
77.40,6.77,5.96,6.75,5.95,-5.95,-5.79,-5.31,0.82,0.80,0.80
78.17,6.76,6.00,6.74,5.97,-5.97,-5.82,-5.31,0.79,0.77,0.76
78.95,6.74,5.99,6.73,5.99,-5.99,-5.85,-5.30,0.75,0.74,0.75
79.74,6.73,6.01,6.72,6.00,-6.00,-5.89,-5.30,0.72,0.71,0.72
80.54,6.70,6.01,6.70,6.01,-6.01,-5.92,-5.29,0.68,0.68,0.69
81.35,6.68,6.02,6.68,6.02,-6.02,-5.95,-5.30,0.66,0.66,0.65
82.16,6.66,6.02,6.65,6.02,-6.02,-5.98,-5.30,0.63,0.63,0.64
82.98,6.63,6.03,6.63,6.03,-6.03,-6.02,-5.31,0.60,0.60,0.60
83.81,6.60,6.02,6.60,6.03,-6.03,-6.05,-5.33,0.57,0.57,0.57
84.65,6.57,6.03,6.57,6.03,-6.03,-6.08,-5.34,0.54,0.54,0.53
85.50,6.55,6.04,6.54,6.03,-6.03,-6.11,-5.36,0.51,0.51,0.50
86.35,6.52,6.04,6.51,6.04,-6.04,-6.15,-5.39,0.48,0.48,0.47
87.22,6.49,6.04,6.49,6.05,-6.05,-6.18,-5.42,0.44,0.44,0.44
88.09,6.47,6.06,6.47,6.06,-6.06,-6.21,-5.45,0.41,0.41,0.41
88.97,6.44,6.06,6.45,6.07,-6.07,-6.24,-5.49,0.36,0.38,0.38
89.86,6.42,6.07,6.44,6.09,-6.09,-6.27,-5.53,0.32,0.35,0.35
90.76,6.41,6.09,6.43,6.12,-6.12,-6.30,-5.57,0.29,0.31,0.31
91.66,6.40,6.13,6.42,6.15,-6.15,-6.34,-5.62,0.25,0.27,0.27
92.58,6.41,6.16,6.42,6.18,-6.18,-6.37,-5.68,0.22,0.24,0.24
93.51,6.42,6.21,6.42,6.22,-6.22,-6.40,-5.73,0.20,0.20,0.21
94.44,6.42,6.24,6.42,6.26,-6.26,-6.43,-5.79,0.16,0.17,0.17
95.39,6.43,6.30,6.42,6.30,-6.30,-6.46,-5.86,0.13,0.13,0.13
96.34,6.44,6.35,6.43,6.34,-6.34,-6.49,-5.93,0.10,0.09,0.09
97.30,6.44,6.38,6.43,6.37,-6.37,-6.52,-6.00,0.06,0.05,0.06
98.28,6.45,6.44,6.43,6.41,-6.41,-6.55,-6.07,0.04,0.02,0.01
99.26,6.45,6.48,6.43,6.44,-6.44,-6.58,-6.15,0.00,-0.02,-0.03
100.25,6.43,6.49,6.42,6.47,-6.47,-6.61,-6.23,-0.04,-0.05,-0.07
101.25,6.41,6.50,6.41,6.49,-6.49,-6.64,-6.32,-0.09,-0.09,-0.09
102.27,6.40,6.52,6.39,6.51,-6.51,-6.67,-6.40,-0.11,-0.12,-0.12
103.29,6.38,6.54,6.37,6.52,-6.52,-6.70,-6.49,-0.14,-0.15,-0.16
104.32,6.36,6.54,6.34,6.53,-6.53,-6.73,-6.58,-0.17,-0.18,-0.19
105.37,6.33,6.54,6.31,6.53,-6.53,-6.76,-6.67,-0.20,-0.22,-0.21
106.42,6.30,6.54,6.28,6.53,-6.53,-6.79,-6.76,-0.23,-0.25,-0.24
107.48,6.26,6.54,6.25,6.53,-6.53,-6.82,-6.85,-0.27,-0.28,-0.28
108.56,6.22,6.53,6.22,6.53,-6.53,-6.85,-6.94,-0.32,-0.31,-0.31
109.64,6.19,6.52,6.19,6.54,-6.54,-6.88,-7.03,-0.35,-0.34,-0.33
110.74,6.16,6.53,6.17,6.55,-6.55,-6.90,-7.12,-0.39,-0.38,-0.37
111.85,6.12,6.53,6.15,6.56,-6.56,-6.93,-7.20,-0.44,-0.41,-0.41
112.97,6.10,6.53,6.13,6.57,-6.57,-6.96,-7.28,-0.48,-0.45,-0.44
114.10,6.09,6.56,6.11,6.59,-6.59,-6.99,-7.36,-0.50,-0.48,-0.47
115.24,6.08,6.60,6.10,6.61,-6.61,-7.01,-7.44,-0.53,-0.51,-0.52
116.39,6.08,6.63,6.09,6.64,-6.64,-7.04,-7.51,-0.56,-0.55,-0.56
117.55,6.09,6.68,6.09,6.66,-6.66,-7.07,-7.57,-0.58,-0.58,-0.59
118.73,6.10,6.72,6.08,6.69,-6.69,-7.09,-7.63,-0.60,-0.61,-0.63
119.92,6.10,6.75,6.08,6.73,-6.73,-7.12,-7.68,-0.63,-0.64,-0.65
121.12,6.10,6.77,6.08,6.76,-6.76,-7.15,-7.73,-0.66,-0.68,-0.67
122.33,6.10,6.81,6.08,6.79,-6.79,-7.17,-7.77,-0.69,-0.71,-0.71
123.55,6.10,6.83,6.08,6.82,-6.82,-7.20,-7.80,-0.73,-0.74,-0.73
124.79,6.10,6.86,6.09,6.86,-6.86,-7.22,-7.82,-0.76,-0.77,-0.76
126.03,6.10,6.89,6.09,6.89,-6.89,-7.24,-7.83,-0.79,-0.80,-0.80
127.29,6.10,6.92,6.09,6.92,-6.92,-7.27,-7.84,-0.82,-0.83,-0.83
128.57,6.09,6.95,6.09,6.96,-6.96,-7.29,-7.84,-0.87,-0.87,-0.87
129.85,6.09,6.98,6.09,6.99,-6.99,-7.32,-7.83,-0.90,-0.90,-0.90
131.15,6.09,7.02,6.10,7.03,-7.03,-7.34,-7.82,-0.94,-0.93,-0.94
132.46,6.09,7.05,6.11,7.07,-7.07,-7.36,-7.80,-0.98,-0.96,-0.96
133.79,6.11,7.11,6.12,7.12,-7.12,-7.38,-7.77,-1.01,-0.99,-1.00
135.12,6.13,7.16,6.14,7.17,-7.17,-7.41,-7.74,-1.04,-1.03,-1.03
136.48,6.14,7.19,6.16,7.22,-7.22,-7.43,-7.70,-1.08,-1.06,-1.05
137.84,6.18,7.27,6.18,7.27,-7.27,-7.45,-7.66,-1.09,-1.09,-1.09
139.22,6.20,7.32,6.21,7.33,-7.33,-7.47,-7.62,-1.13,-1.12,-1.12
140.61,6.23,7.37,6.24,7.38,-7.38,-7.49,-7.57,-1.15,-1.15,-1.15
142.02,6.28,7.46,6.27,7.44,-7.44,-7.51,-7.52,-1.16,-1.17,-1.18
143.44,6.30,7.50,6.30,7.50,-7.50,-7.53,-7.47,-1.20,-1.20,-1.20
144.87,6.34,7.56,6.33,7.55,-7.55,-7.55,-7.42,-1.22,-1.22,-1.22
146.32,6.36,7.61,6.36,7.61,-7.61,-7.57,-7.37,-1.25,-1.25,-1.25
147.78,6.39,7.66,6.38,7.66,-7.66,-7.58,-7.32,-1.27,-1.27,-1.27
149.26,6.41,7.71,6.41,7.70,-7.70,-7.60,-7.26,-1.30,-1.30,-1.30
150.75,6.44,7.77,6.42,7.75,-7.75,-7.62,-7.22,-1.31,-1.32,-1.33
152.26,6.45,7.79,6.44,7.79,-7.79,-7.64,-7.17,-1.34,-1.35,-1.34
153.78,6.46,7.83,6.45,7.82,-7.82,-7.65,-7.12,-1.36,-1.37,-1.37
155.32,6.46,7.85,6.45,7.85,-7.85,-7.67,-7.08,-1.39,-1.40,-1.39
156.88,6.46,7.88,6.45,7.87,-7.87,-7.68,-7.04,-1.41,-1.42,-1.42
158.44,6.45,7.90,6.44,7.89,-7.89,-7.70,-7.01,-1.44,-1.45,-1.45
160.03,6.43,7.90,6.43,7.90,-7.90,-7.71,-6.98,-1.48,-1.48,-1.47
161.63,6.41,7.91,6.41,7.91,-7.91,-7.73,-6.95,-1.51,-1.51,-1.51
163.24,6.40,7.93,6.38,7.92,-7.92,-7.74,-6.92,-1.52,-1.54,-1.54
164.88,6.36,7.92,6.35,7.92,-7.92,-7.75,-6.91,-1.56,-1.57,-1.57
166.53,6.34,7.94,6.32,7.92,-7.92,-7.77,-6.89,-1.59,-1.60,-1.61
168.19,6.31,7.93,6.29,7.92,-7.92,-7.78,-6.88,-1.62,-1.63,-1.62
169.87,6.26,7.92,6.26,7.93,-7.93,-7.79,-6.88,-1.67,-1.66,-1.66
171.57,6.23,7.93,6.23,7.93,-7.93,-7.80,-6.88,-1.70,-1.70,-1.70
173.29,6.20,7.92,6.21,7.94,-7.94,-7.81,-6.88,-1.74,-1.73,-1.72
175.02,6.16,7.92,6.18,7.95,-7.95,-7.82,-6.89,-1.79,-1.76,-1.76
176.77,6.13,7.92,6.16,7.96,-7.96,-7.83,-6.91,-1.83,-1.80,-1.79
178.54,6.12,7.95,6.15,7.98,-7.98,-7.84,-6.93,-1.86,-1.83,-1.83
180.32,6.11,7.98,6.13,7.99,-7.99,-7.84,-6.95,-1.89,-1.86,-1.87
182.13,6.10,7.99,6.12,8.01,-8.01,-7.85,-6.98,-1.91,-1.90,-1.89
183.95,6.10,8.02,6.10,8.03,-8.03,-7.86,-7.02,-1.94,-1.93,-1.93
185.79,6.11,8.07,6.09,8.05,-8.05,-7.86,-7.06,-1.95,-1.96,-1.97
187.65,6.10,8.10,6.08,8.07,-8.07,-7.87,-7.10,-1.98,-2.00,-2.00
189.52,6.09,8.11,6.06,8.09,-8.09,-7.87,-7.15,-2.00,-2.03,-2.03
191.42,6.08,8.13,6.05,8.11,-8.11,-7.88,-7.21,-2.03,-2.06,-2.06
193.33,6.06,8.14,6.03,8.12,-8.12,-7.88,-7.27,-2.07,-2.09,-2.08
195.27,6.03,8.15,6.01,8.13,-8.13,-7.88,-7.33,-2.11,-2.12,-2.12
197.22,6.00,8.16,5.99,8.14,-8.14,-7.89,-7.40,-2.14,-2.15,-2.16
199.19,5.96,8.13,5.97,8.14,-8.14,-7.89,-7.47,-2.18,-2.17,-2.18
201.18,5.93,8.14,5.94,8.14,-8.14,-7.89,-7.55,-2.22,-2.20,-2.21
203.19,5.90,8.13,5.92,8.14,-8.14,-7.89,-7.63,-2.24,-2.23,-2.23
205.23,5.88,8.12,5.89,8.14,-8.14,-7.89,-7.71,-2.26,-2.25,-2.24
207.28,5.85,8.12,5.86,8.13,-8.13,-7.89,-7.79,-2.28,-2.27,-2.27
209.35,5.83,8.12,5.83,8.13,-8.13,-7.89,-7.88,-2.30,-2.30,-2.29
211.44,5.81,8.12,5.80,8.12,-8.12,-7.88,-7.96,-2.31,-2.32,-2.32
213.56,5.78,8.11,5.77,8.11,-8.11,-7.88,-8.05,-2.33,-2.34,-2.33
215.69,5.74,8.09,5.75,8.10,-8.10,-7.88,-8.14,-2.37,-2.36,-2.35
217.85,5.72,8.09,5.72,8.10,-8.10,-7.87,-8.22,-2.38,-2.38,-2.38
220.03,5.71,8.10,5.69,8.09,-8.09,-7.87,-8.31,-2.38,-2.39,-2.40
222.23,5.68,8.10,5.67,8.08,-8.08,-7.86,-8.39,-2.40,-2.41,-2.42
224.45,5.65,8.08,5.64,8.07,-8.07,-7.85,-8.47,-2.42,-2.43,-2.43
226.70,5.61,8.06,5.62,8.06,-8.06,-7.85,-8.54,-2.45,-2.44,-2.45
228.96,5.58,8.03,5.59,8.05,-8.05,-7.84,-8.61,-2.47,-2.46,-2.45
231.25,5.56,8.03,5.56,8.03,-8.03,-7.83,-8.68,-2.47,-2.47,-2.47
233.57,5.53,8.01,5.53,8.01,-8.01,-7.82,-8.74,-2.49,-2.48,-2.48
235.90,5.51,8.00,5.51,8.00,-8.00,-7.81,-8.79,-2.49,-2.49,-2.49
238.26,5.49,8.00,5.48,7.98,-7.98,-7.80,-8.83,-2.49,-2.50,-2.51
240.64,5.46,7.95,5.45,7.96,-7.96,-7.79,-8.86,-2.50,-2.50,-2.50
243.05,5.43,7.93,5.43,7.93,-7.93,-7.78,-8.88,-2.50,-2.51,-2.51
245.48,5.41,7.92,5.40,7.91,-7.91,-7.76,-8.89,-2.50,-2.51,-2.51
247.93,5.37,7.89,5.37,7.88,-7.88,-7.75,-8.90,-2.52,-2.51,-2.52
250.41,5.35,7.86,5.35,7.86,-7.86,-7.73,-8.89,-2.51,-2.51,-2.51
252.92,5.32,7.82,5.32,7.83,-7.83,-7.72,-8.87,-2.51,-2.51,-2.51
255.45,5.30,7.81,5.30,7.81,-7.81,-7.70,-8.84,-2.51,-2.51,-2.51
258.00,5.27,7.78,5.27,7.78,-7.78,-7.69,-8.80,-2.51,-2.51,-2.51
260.58,5.24,7.74,5.24,7.75,-7.75,-7.67,-8.75,-2.52,-2.51,-2.51
263.19,5.22,7.72,5.22,7.73,-7.73,-7.65,-8.69,-2.51,-2.51,-2.50
265.82,5.19,7.70,5.19,7.70,-7.70,-7.63,-8.62,-2.51,-2.51,-2.51
268.48,5.17,7.67,5.17,7.67,-7.67,-7.61,-8.54,-2.51,-2.51,-2.50
271.16,5.15,7.65,5.14,7.65,-7.65,-7.59,-8.45,-2.50,-2.51,-2.50
273.87,5.11,7.61,5.11,7.62,-7.62,-7.57,-8.36,-2.51,-2.50,-2.50
276.61,5.08,7.58,5.08,7.59,-7.59,-7.55,-8.26,-2.51,-2.50,-2.50
279.38,5.06,7.57,5.06,7.56,-7.56,-7.53,-8.16,-2.50,-2.50,-2.51
282.17,5.05,7.56,5.03,7.53,-7.53,-7.51,-8.05,-2.48,-2.50,-2.51
284.99,5.02,7.51,5.00,7.49,-7.49,-7.48,-7.94,-2.48,-2.49,-2.49
287.84,4.98,7.47,4.97,7.46,-7.46,-7.46,-7.83,-2.48,-2.49,-2.49
290.72,4.95,7.44,4.95,7.43,-7.43,-7.44,-7.72,-2.48,-2.48,-2.49
293.63,4.91,7.38,4.92,7.40,-7.40,-7.41,-7.60,-2.49,-2.48,-2.48
296.57,4.88,7.35,4.90,7.37,-7.37,-7.38,-7.49,-2.49,-2.47,-2.47
299.53,4.86,7.32,4.87,7.34,-7.34,-7.36,-7.38,-2.48,-2.46,-2.46
302.53,4.84,7.28,4.85,7.31,-7.31,-7.33,-7.26,-2.47,-2.45,-2.45
305.55,4.83,7.28,4.83,7.28,-7.28,-7.30,-7.15,-2.45,-2.45,-2.45
308.61,4.81,7.24,4.81,7.25,-7.25,-7.27,-7.04,-2.44,-2.44,-2.43
311.69,4.79,7.21,4.79,7.22,-7.22,-7.24,-6.93,-2.43,-2.43,-2.43
314.81,4.78,7.20,4.77,7.19,-7.19,-7.21,-6.83,-2.41,-2.42,-2.42
317.96,4.76,7.17,4.75,7.16,-7.16,-7.18,-6.73,-2.40,-2.41,-2.41
321.14,4.74,7.13,4.73,7.13,-7.13,-7.15,-6.63,-2.39,-2.40,-2.40
324.35,4.72,7.12,4.71,7.10,-7.10,-7.12,-6.53,-2.38,-2.39,-2.40
327.59,4.68,7.05,4.68,7.06,-7.06,-7.09,-6.44,-2.38,-2.38,-2.37
330.87,4.67,7.04,4.65,7.02,-7.02,-7.05,-6.36,-2.36,-2.37,-2.37
334.18,4.64,7.00,4.62,6.98,-6.98,-7.02,-6.27,-2.35,-2.36,-2.37
337.52,4.60,6.96,4.59,6.94,-6.94,-6.99,-6.20,-2.35,-2.35,-2.36
340.90,4.57,6.91,4.56,6.90,-6.90,-6.95,-6.12,-2.33,-2.34,-2.34
344.30,4.52,6.85,4.53,6.86,-6.86,-6.92,-6.05,-2.34,-2.34,-2.33
347.75,4.48,6.80,4.49,6.82,-6.82,-6.88,-5.99,-2.34,-2.33,-2.32
351.23,4.43,6.75,4.45,6.77,-6.77,-6.84,-5.93,-2.34,-2.32,-2.33
354.74,4.40,6.70,4.42,6.73,-6.73,-6.81,-5.87,-2.33,-2.31,-2.30
358.28,4.37,6.67,4.38,6.68,-6.68,-6.77,-5.82,-2.31,-2.30,-2.30
361.87,4.35,6.64,4.34,6.63,-6.63,-6.73,-5.77,-2.28,-2.29,-2.29
365.49,4.32,6.60,4.30,6.58,-6.58,-6.69,-5.73,-2.27,-2.28,-2.28
369.14,4.29,6.55,4.26,6.54,-6.54,-6.65,-5.69,-2.25,-2.27,-2.27
372.83,4.25,6.50,4.23,6.49,-6.49,-6.61,-5.65,-2.24,-2.26,-2.26
376.56,4.20,6.46,4.19,6.44,-6.44,-6.57,-5.62,-2.25,-2.25,-2.26
380.33,4.15,6.40,4.15,6.40,-6.40,-6.53,-5.59,-2.25,-2.24,-2.25
384.13,4.10,6.33,4.12,6.35,-6.35,-6.49,-5.57,-2.25,-2.23,-2.23
387.97,4.06,6.28,4.08,6.30,-6.30,-6.45,-5.55,-2.24,-2.22,-2.22
391.85,4.03,6.24,4.04,6.25,-6.25,-6.40,-5.53,-2.23,-2.21,-2.21
395.77,4.00,6.20,4.00,6.20,-6.20,-6.36,-5.52,-2.21,-2.20,-2.21
399.73,3.98,6.17,3.97,6.16,-6.16,-6.32,-5.51,-2.18,-2.19,-2.20
403.72,3.94,6.11,3.93,6.11,-6.11,-6.28,-5.50,-2.17,-2.18,-2.17
407.76,3.90,6.07,3.89,6.06,-6.06,-6.23,-5.50,-2.16,-2.17,-2.17
411.84,3.86,6.02,3.85,6.01,-6.01,-6.19,-5.50,-2.15,-2.16,-2.16
415.96,3.81,5.95,3.81,5.96,-5.96,-6.14,-5.50,-2.16,-2.15,-2.14
420.12,3.77,5.91,3.78,5.92,-5.92,-6.10,-5.50,-2.15,-2.14,-2.14
424.32,3.74,5.87,3.74,5.87,-5.87,-6.05,-5.50,-2.13,-2.13,-2.13
428.56,3.70,5.81,3.70,5.82,-5.82,-6.00,-5.51,-2.12,-2.12,-2.11
432.85,3.67,5.77,3.66,5.77,-5.77,-5.96,-5.51,-2.10,-2.11,-2.10
437.18,3.63,5.73,3.62,5.72,-5.72,-5.91,-5.52,-2.09,-2.10,-2.11
441.55,3.58,5.67,3.57,5.66,-5.66,-5.86,-5.52,-2.09,-2.09,-2.10
445.96,3.53,5.61,3.53,5.61,-5.61,-5.81,-5.52,-2.08,-2.08,-2.09
450.42,3.48,5.55,3.49,5.56,-5.56,-5.77,-5.53,-2.08,-2.07,-2.08
454.93,3.44,5.51,3.44,5.51,-5.51,-5.72,-5.53,-2.07,-2.06,-2.07
459.48,3.40,5.46,3.40,5.46,-5.46,-5.67,-5.52,-2.06,-2.05,-2.06
464.07,3.36,5.40,3.36,5.40,-5.40,-5.62,-5.52,-2.05,-2.05,-2.04
468.71,3.32,5.35,3.32,5.35,-5.35,-5.57,-5.51,-2.03,-2.03,-2.03
473.40,3.28,5.30,3.27,5.30,-5.30,-5.52,-5.50,-2.02,-2.02,-2.02
478.13,3.23,5.24,3.23,5.24,-5.24,-5.47,-5.49,-2.02,-2.01,-2.01
482.91,3.19,5.19,3.19,5.19,-5.19,-5.42,-5.47,-2.00,-2.00,-2.00
487.74,3.14,5.13,3.15,5.14,-5.14,-5.37,-5.45,-2.00,-1.99,-1.99
492.62,3.10,5.08,3.11,5.09,-5.09,-5.32,-5.42,-1.99,-1.98,-1.98
497.55,3.06,5.03,3.06,5.03,-5.03,-5.27,-5.39,-1.98,-1.97,-1.97
502.52,3.03,4.99,3.02,4.98,-4.98,-5.22,-5.36,-1.95,-1.96,-1.96
