frequency,raw,smoothed,error,error_smoothed,equalization,parametric_eq,fixed_band_eq,equalized_raw,equalized_smoothed,target
20.00,5.68,5.68,0.10,0.10,-0.10,-0.23,-0.18,5.58,5.58,5.58
20.20,5.70,5.70,0.12,0.12,-0.12,-0.23,-0.18,5.57,5.57,5.57
20.40,5.72,5.72,0.14,0.14,-0.14,-0.24,-0.19,5.57,5.57,5.57
20.61,5.74,5.74,0.16,0.16,-0.16,-0.25,-0.20,5.57,5.57,5.57
20.81,5.76,5.76,0.18,0.18,-0.19,-0.25,-0.20,5.57,5.57,5.57
21.02,5.78,5.78,0.20,0.21,-0.20,-0.26,-0.21,5.57,5.57,5.57
21.23,5.80,5.80,0.23,0.23,-0.22,-0.26,-0.22,5.57,5.57,5.57
21.44,5.82,5.81,0.25,0.24,-0.24,-0.27,-0.22,5.57,5.57,5.57
21.66,5.83,5.83,0.26,0.26,-0.26,-0.28,-0.23,5.57,5.57,5.57
21.87,5.85,5.84,0.28,0.28,-0.28,-0.29,-0.24,5.57,5.57,5.57
22.09,5.86,5.86,0.29,0.29,-0.29,-0.29,-0.24,5.56,5.57,5.57
22.31,5.88,5.87,0.31,0.31,-0.31,-0.30,-0.25,5.57,5.57,5.57
22.54,5.89,5.89,0.32,0.32,-0.32,-0.31,-0.26,5.56,5.57,5.57
22.76,5.91,5.90,0.34,0.34,-0.34,-0.32,-0.27,5.57,5.57,5.57
22.99,5.92,5.92,0.35,0.35,-0.35,-0.33,-0.28,5.57,5.57,5.56
23.22,5.93,5.93,0.36,0.36,-0.36,-0.34,-0.28,5.56,5.56,5.56
23.45,5.94,5.94,0.37,0.37,-0.38,-0.35,-0.29,5.56,5.56,5.56
23.69,5.95,5.95,0.39,0.39,-0.39,-0.35,-0.30,5.56,5.56,5.56
23.92,5.96,5.96,0.40,0.40,-0.40,-0.36,-0.31,5.56,5.56,5.56
24.16,5.97,5.97,0.41,0.41,-0.41,-0.37,-0.32,5.56,5.56,5.56
24.40,5.98,5.98,0.42,0.42,-0.42,-0.38,-0.33,5.56,5.56,5.56
24.65,5.99,5.99,0.43,0.43,-0.43,-0.39,-0.34,5.56,5.56,5.56
24.89,6.00,5.99,0.44,0.44,-0.44,-0.40,-0.35,5.56,5.56,5.56
25.14,6.00,6.00,0.44,0.45,-0.45,-0.41,-0.35,5.55,5.55,5.55
25.39,6.01,6.00,0.45,0.45,-0.45,-0.42,-0.36,5.55,5.55,5.55
25.65,6.01,6.01,0.46,0.46,-0.46,-0.43,-0.37,5.55,5.55,5.55
25.91,6.02,6.01,0.47,0.47,-0.47,-0.44,-0.38,5.55,5.55,5.55
26.16,6.02,6.02,0.47,0.47,-0.47,-0.45,-0.39,5.55,5.55,5.55
26.43,6.03,6.02,0.48,0.48,-0.48,-0.46,-0.40,5.55,5.55,5.55
26.69,6.03,6.03,0.48,0.48,-0.48,-0.47,-0.41,5.54,5.54,5.54
26.96,6.03,6.03,0.48,0.49,-0.49,-0.48,-0.42,5.54,5.54,5.54
27.23,6.04,6.03,0.50,0.49,-0.49,-0.49,-0.42,5.54,5.54,5.54
27.50,6.04,6.04,0.50,0.50,-0.50,-0.49,-0.43,5.54,5.54,5.54
27.77,6.04,6.04,0.50,0.50,-0.50,-0.50,-0.44,5.54,5.54,5.54
28.05,6.04,6.04,0.50,0.50,-0.50,-0.51,-0.44,5.54,5.54,5.54
28.33,6.04,6.04,0.50,0.50,-0.50,-0.51,-0.45,5.53,5.53,5.53
28.62,6.04,6.03,0.51,0.50,-0.50,-0.52,-0.46,5.53,5.53,5.53
28.90,6.03,6.03,0.50,0.50,-0.50,-0.52,-0.46,5.52,5.53,5.53
29.19,6.03,6.03,0.50,0.50,-0.50,-0.52,-0.46,5.53,5.53,5.53
29.48,6.03,6.02,0.50,0.50,-0.50,-0.52,-0.47,5.53,5.52,5.52
29.78,6.02,6.02,0.50,0.50,-0.50,-0.52,-0.47,5.52,5.52,5.52
30.08,6.02,6.01,0.50,0.50,-0.50,-0.52,-0.47,5.52,5.52,5.52
30.38,6.01,6.01,0.49,0.49,-0.49,-0.52,-0.47,5.51,5.52,5.52
30.68,6.01,6.00,0.49,0.49,-0.49,-0.52,-0.47,5.52,5.51,5.51
30.99,6.00,6.00,0.49,0.49,-0.49,-0.51,-0.47,5.51,5.51,5.51
31.30,5.99,5.99,0.48,0.48,-0.48,-0.51,-0.47,5.50,5.51,5.51
31.61,5.99,5.98,0.48,0.48,-0.48,-0.50,-0.47,5.51,5.50,5.50
31.93,5.98,5.98,0.48,0.48,-0.47,-0.49,-0.46,5.50,5.50,5.50
32.24,5.97,5.97,0.47,0.47,-0.47,-0.48,-0.46,5.50,5.50,5.50
32.57,5.96,5.96,0.46,0.46,-0.46,-0.47,-0.45,5.49,5.49,5.49
32.89,5.95,5.95,0.46,0.46,-0.46,-0.47,-0.44,5.49,5.49,5.49
33.22,5.94,5.94,0.45,0.45,-0.45,-0.45,-0.43,5.49,5.49,5.49
33.55,5.93,5.93,0.44,0.44,-0.44,-0.44,-0.43,5.48,5.48,5.48
33.89,5.92,5.91,0.44,0.43,-0.44,-0.43,-0.42,5.48,5.48,5.48
34.23,5.90,5.90,0.42,0.43,-0.43,-0.42,-0.41,5.47,5.47,5.47
34.57,5.89,5.89,0.42,0.42,-0.42,-0.41,-0.40,5.47,5.47,5.47
34.92,5.88,5.87,0.41,0.41,-0.41,-0.39,-0.38,5.47,5.46,5.47
35.27,5.86,5.86,0.40,0.40,-0.40,-0.38,-0.37,5.46,5.46,5.46
35.62,5.85,5.84,0.39,0.39,-0.39,-0.37,-0.36,5.46,5.46,5.46
35.97,5.83,5.83,0.38,0.38,-0.38,-0.36,-0.34,5.45,5.45,5.45
36.33,5.82,5.81,0.37,0.37,-0.37,-0.34,-0.33,5.45,5.44,5.45
36.70,5.80,5.80,0.36,0.36,-0.36,-0.33,-0.32,5.44,5.44,5.44
37.06,5.78,5.78,0.34,0.35,-0.35,-0.32,-0.30,5.43,5.43,5.43
37.43,5.77,5.76,0.34,0.34,-0.33,-0.30,-0.29,5.43,5.43,5.43
37.81,5.75,5.75,0.32,0.32,-0.32,-0.29,-0.27,5.42,5.42,5.42
38.19,5.73,5.73,0.31,0.31,-0.31,-0.28,-0.26,5.42,5.42,5.42
38.57,5.71,5.71,0.30,0.30,-0.30,-0.26,-0.24,5.41,5.41,5.41
38.95,5.69,5.69,0.28,0.28,-0.29,-0.25,-0.22,5.40,5.40,5.40
39.34,5.67,5.67,0.27,0.27,-0.27,-0.24,-0.21,5.39,5.39,5.40
39.74,5.65,5.65,0.26,0.26,-0.26,-0.22,-0.19,5.39,5.39,5.39
40.14,5.63,5.63,0.25,0.25,-0.24,-0.21,-0.18,5.38,5.38,5.38
40.54,5.61,5.60,0.23,0.23,-0.23,-0.20,-0.16,5.38,5.38,5.37
40.94,5.58,5.58,0.21,0.21,-0.21,-0.19,-0.14,5.36,5.36,5.36
41.35,5.56,5.55,0.20,0.20,-0.20,-0.17,-0.13,5.36,5.35,5.36
41.76,5.53,5.53,0.18,0.18,-0.18,-0.16,-0.11,5.34,5.35,5.35
42.18,5.51,5.51,0.17,0.17,-0.17,-0.15,-0.09,5.34,5.34,5.34
42.60,5.49,5.48,0.16,0.15,-0.15,-0.14,-0.08,5.33,5.33,5.33
43.03,5.46,5.46,0.14,0.14,-0.14,-0.12,-0.06,5.32,5.32,5.32
43.46,5.44,5.43,0.13,0.12,-0.12,-0.11,-0.04,5.31,5.31,5.31
43.90,5.41,5.41,0.11,0.11,-0.11,-0.10,-0.03,5.30,5.30,5.30
44.33,5.38,5.38,0.09,0.09,-0.09,-0.09,-0.01,5.28,5.29,5.29
44.78,5.36,5.35,0.08,0.08,-0.08,-0.07,0.01,5.28,5.28,5.28
45.23,5.33,5.33,0.06,0.06,-0.06,-0.06,0.02,5.27,5.26,5.27
45.68,5.30,5.30,0.04,0.05,-0.05,-0.05,0.04,5.25,5.25,5.25
46.13,5.27,5.27,0.03,0.03,-0.03,-0.04,0.06,5.24,5.24,5.24
46.60,5.25,5.24,0.02,0.02,-0.02,-0.03,0.07,5.23,5.23,5.23
47.06,5.22,5.22,0.00,0.00,-0.00,-0.01,0.09,5.22,5.22,5.21
47.53,5.19,5.19,-0.01,-0.01,0.02,0.00,0.10,5.20,5.20,5.20
48.01,5.16,5.16,-0.03,-0.03,0.03,0.01,0.12,5.19,5.19,5.19
48.49,5.13,5.12,-0.04,-0.05,0.05,0.03,0.14,5.17,5.17,5.17
48.97,5.09,5.09,-0.07,-0.07,0.06,0.04,0.15,5.15,5.15,5.16
49.46,5.06,5.06,-0.08,-0.08,0.08,0.05,0.17,5.14,5.14,5.14
49.96,5.03,5.03,-0.10,-0.10,0.10,0.07,0.19,5.12,5.12,5.12
50.46,5.00,4.99,-0.11,-0.11,0.11,0.08,0.20,5.11,5.11,5.11
50.96,4.96,4.96,-0.13,-0.13,0.13,0.09,0.22,5.09,5.09,5.09
51.47,4.93,4.93,-0.14,-0.14,0.14,0.11,0.23,5.07,5.07,5.07
51.99,4.90,4.89,-0.16,-0.16,0.16,0.12,0.25,5.06,5.05,5.05
52.51,4.86,4.86,-0.18,-0.17,0.17,0.14,0.26,5.03,5.03,5.03
53.03,4.83,4.82,-0.19,-0.19,0.19,0.15,0.28,5.02,5.01,5.01
53.56,4.79,4.79,-0.21,-0.20,0.20,0.17,0.29,4.99,4.99,4.99
54.10,4.76,4.75,-0.21,-0.22,0.22,0.18,0.30,4.97,4.97,4.97
54.64,4.72,4.72,-0.23,-0.23,0.23,0.20,0.32,4.95,4.95,4.95
55.18,4.69,4.68,-0.24,-0.24,0.24,0.21,0.33,4.93,4.93,4.93
55.74,4.65,4.65,-0.26,-0.26,0.26,0.23,0.34,4.90,4.90,4.90
56.29,4.61,4.61,-0.27,-0.27,0.27,0.24,0.35,4.88,4.88,4.88
56.86,4.58,4.57,-0.28,-0.28,0.28,0.26,0.36,4.86,4.86,4.85
57.42,4.54,4.54,-0.29,-0.29,0.29,0.27,0.37,4.83,4.83,4.83
58.00,4.50,4.50,-0.31,-0.31,0.31,0.29,0.38,4.80,4.80,4.80
58.58,4.46,4.46,-0.32,-0.32,0.32,0.30,0.38,4.77,4.77,4.78
59.16,4.42,4.42,-0.33,-0.33,0.33,0.31,0.39,4.74,4.75,4.75
59.76,4.39,4.38,-0.33,-0.34,0.34,0.32,0.39,4.72,4.72,4.72
60.35,4.35,4.35,-0.34,-0.34,0.34,0.34,0.40,4.69,4.69,4.69
60.96,4.31,4.31,-0.35,-0.35,0.35,0.35,0.40,4.66,4.66,4.66
61.57,4.27,4.27,-0.36,-0.36,0.36,0.36,0.40,4.63,4.63,4.63
62.18,4.23,4.23,-0.37,-0.37,0.37,0.37,0.40,4.59,4.59,4.59
62.80,4.19,4.19,-0.37,-0.37,0.37,0.37,0.40,4.56,4.56,4.56
63.43,4.15,4.15,-0.38,-0.38,0.38,0.38,0.40,4.53,4.53,4.53
64.07,4.11,4.11,-0.38,-0.38,0.39,0.38,0.39,4.49,4.49,4.49
64.71,4.07,4.07,-0.39,-0.39,0.39,0.39,0.39,4.46,4.46,4.46
65.35,4.03,4.02,-0.39,-0.39,0.40,0.39,0.38,4.42,4.42,4.42
66.01,3.98,3.98,-0.40,-0.40,0.40,0.39,0.37,4.38,4.38,4.38
66.67,3.94,3.94,-0.40,-0.40,0.40,0.39,0.36,4.34,4.34,4.34
67.33,3.90,3.90,-0.40,-0.40,0.40,0.39,0.35,4.30,4.30,4.30
68.01,3.86,3.86,-0.40,-0.40,0.41,0.38,0.34,4.26,4.26,4.26
68.69,3.82,3.81,-0.40,-0.40,0.41,0.38,0.33,4.22,4.22,4.22
69.37,3.77,3.77,-0.41,-0.40,0.41,0.37,0.32,4.17,4.18,4.18
70.07,3.73,3.73,-0.40,-0.40,0.40,0.36,0.31,4.13,4.13,4.13
70.77,3.69,3.68,-0.40,-0.40,0.40,0.36,0.29,4.09,4.08,4.09
71.48,3.64,3.64,-0.40,-0.40,0.40,0.35,0.28,4.04,4.04,4.04
72.19,3.60,3.60,-0.40,-0.40,0.40,0.33,0.26,3.99,3.99,3.99
72.91,3.56,3.55,-0.39,-0.39,0.39,0.32,0.24,3.95,3.95,3.94
73.64,3.51,3.51,-0.39,-0.39,0.39,0.31,0.23,3.89,3.90,3.90
74.38,3.47,3.46,-0.38,-0.38,0.38,0.30,0.21,3.85,3.85,3.84
75.12,3.42,3.42,-0.38,-0.38,0.37,0.28,0.19,3.79,3.79,3.79
75.87,3.38,3.37,-0.36,-0.37,0.37,0.27,0.17,3.74,3.74,3.74
76.63,3.33,3.33,-0.36,-0.36,0.36,0.26,0.16,3.68,3.69,3.69
77.40,3.29,3.29,-0.35,-0.35,0.35,0.24,0.14,3.63,3.63,3.63
78.17,3.25,3.24,-0.33,-0.34,0.34,0.23,0.12,3.58,3.58,3.58
78.95,3.20,3.20,-0.33,-0.32,0.33,0.21,0.10,3.52,3.53,3.52
79.74,3.16,3.15,-0.31,-0.31,0.31,0.20,0.08,3.47,3.47,3.46
80.54,3.11,3.11,-0.30,-0.30,0.30,0.18,0.06,3.41,3.41,3.41
81.35,3.06,3.06,-0.29,-0.29,0.29,0.17,0.04,3.34,3.35,3.35
82.16,3.02,3.01,-0.27,-0.27,0.27,0.15,0.02,3.29,3.29,3.29
82.98,2.97,2.97,-0.26,-0.26,0.26,0.14,-0.00,3.22,3.22,3.23
83.81,2.93,2.92,-0.24,-0.24,0.24,0.13,-0.02,3.17,3.16,3.16
84.65,2.88,2.88,-0.22,-0.22,0.22,0.11,-0.04,3.10,3.10,3.10
85.50,2.84,2.83,-0.20,-0.20,0.21,0.10,-0.06,3.04,3.04,3.04
86.35,2.79,2.79,-0.19,-0.19,0.19,0.08,-0.09,2.97,2.97,2.97
87.22,2.74,2.74,-0.17,-0.17,0.17,0.07,-0.11,2.91,2.91,2.91
88.09,2.70,2.69,-0.15,-0.15,0.15,0.06,-0.13,2.85,2.84,2.84
88.97,2.65,2.65,-0.13,-0.13,0.13,0.04,-0.15,2.78,2.78,2.78
89.86,2.60,2.60,-0.11,-0.11,0.11,0.03,-0.17,2.71,2.71,2.71
90.76,2.56,2.55,-0.08,-0.09,0.09,0.02,-0.19,2.64,2.64,2.64
91.66,2.51,2.51,-0.07,-0.06,0.06,0.01,-0.21,2.57,2.57,2.57
92.58,2.46,2.46,-0.05,-0.04,0.04,-0.01,-0.23,2.50,2.50,2.50
93.51,2.42,2.41,-0.02,-0.02,0.02,-0.02,-0.26,2.43,2.43,2.43
94.44,2.37,2.37,0.00,0.01,-0.01,-0.03,-0.28,2.36,2.36,2.36
95.39,2.33,2.32,0.04,0.03,-0.03,-0.04,-0.30,2.30,2.29,2.29
96.34,2.28,2.28,0.06,0.06,-0.06,-0.05,-0.32,2.22,2.22,2.22
97.30,2.23,2.23,0.08,0.08,-0.08,-0.06,-0.34,2.15,2.15,2.15
98.28,2.19,2.18,0.11,0.11,-0.11,-0.08,-0.36,2.08,2.08,2.08
99.26,2.14,2.14,0.13,0.13,-0.13,-0.09,-0.39,2.00,2.00,2.00
100.25,2.09,2.09,0.15,0.16,-0.16,-0.10,-0.41,1.93,1.93,1.93
101.25,2.05,2.04,0.19,0.18,-0.19,-0.11,-0.43,1.86,1.86,1.86
102.27,2.00,2.00,0.21,0.21,-0.21,-0.12,-0.45,1.79,1.79,1.79
103.29,1.96,1.95,0.24,0.24,-0.24,-0.13,-0.47,1.72,1.71,1.71
104.32,1.91,1.91,0.27,0.27,-0.27,-0.15,-0.49,1.64,1.64,1.64
105.37,1.86,1.86,0.29,0.29,-0.29,-0.16,-0.51,1.56,1.57,1.57
106.42,1.82,1.81,0.32,0.32,-0.32,-0.17,-0.53,1.50,1.49,1.49
107.48,1.77,1.77,0.34,0.34,-0.34,-0.18,-0.55,1.42,1.42,1.42
108.56,1.72,1.72,0.37,0.37,-0.37,-0.20,-0.57,1.35,1.35,1.35
109.64,1.68,1.67,0.40,0.40,-0.40,-0.21,-0.59,1.28,1.28,1.28
110.74,1.63,1.63,0.42,0.42,-0.42,-0.22,-0.61,1.20,1.20,1.20
111.85,1.58,1.58,0.45,0.45,-0.45,-0.23,-0.63,1.13,1.13,1.13
112.97,1.54,1.53,0.48,0.47,-0.47,-0.25,-0.65,1.06,1.06,1.06
114.10,1.49,1.49,0.50,0.50,-0.50,-0.26,-0.66,0.99,0.99,0.99
115.24,1.45,1.44,0.53,0.53,-0.53,-0.28,-0.68,0.92,0.92,0.92
116.39,1.40,1.40,0.55,0.55,-0.55,-0.29,-0.69,0.84,0.84,0.85
117.55,1.35,1.35,0.57,0.58,-0.58,-0.31,-0.71,0.77,0.77,0.78
118.73,1.31,1.31,0.60,0.60,-0.60,-0.32,-0.72,0.70,0.70,0.71
119.92,1.27,1.26,0.63,0.63,-0.63,-0.34,-0.73,0.64,0.64,0.64
121.12,1.22,1.22,0.65,0.65,-0.65,-0.36,-0.74,0.57,0.57,0.57
122.33,1.18,1.17,0.68,0.68,-0.67,-0.37,-0.75,0.50,0.50,0.50
123.55,1.13,1.13,0.70,0.70,-0.70,-0.39,-0.76,0.43,0.43,0.43
124.79,1.09,1.08,0.72,0.72,-0.72,-0.41,-0.77,0.37,0.36,0.36
126.03,1.04,1.04,0.74,0.74,-0.74,-0.43,-0.77,0.29,0.30,0.30
127.29,1.00,1.00,0.76,0.76,-0.76,-0.45,-0.78,0.23,0.23,0.23
128.57,0.96,0.95,0.79,0.78,-0.79,-0.47,-0.78,0.17,0.17,0.17
129.85,0.91,0.91,0.80,0.81,-0.81,-0.49,-0.79,0.10,0.11,0.10
131.15,0.87,0.87,0.83,0.83,-0.82,-0.52,-0.79,0.04,0.04,0.04
132.46,0.83,0.82,0.85,0.84,-0.84,-0.54,-0.79,-0.02,-0.02,-0.02
133.79,0.78,0.78,0.86,0.86,-0.86,-0.56,-0.79,-0.09,-0.08,-0.08
135.12,0.74,0.74,0.88,0.88,-0.88,-0.59,-0.79,-0.14,-0.14,-0.14
136.48,0.70,0.69,0.90,0.89,-0.90,-0.62,-0.79,-0.20,-0.20,-0.20
137.84,0.65,0.65,0.91,0.91,-0.91,-0.64,-0.78,-0.26,-0.26,-0.26
139.22,0.61,0.61,0.93,0.93,-0.93,-0.67,-0.78,-0.32,-0.32,-0.32
140.61,0.57,0.57,0.94,0.94,-0.94,-0.70,-0.78,-0.37,-0.37,-0.37
142.02,0.53,0.52,0.96,0.95,-0.95,-0.73,-0.77,-0.43,-0.43,-0.43
143.44,0.48,0.48,0.96,0.97,-0.97,-0.76,-0.77,-0.49,-0.49,-0.49
144.87,0.44,0.44,0.98,0.98,-0.98,-0.79,-0.77,-0.54,-0.54,-0.54
146.32,0.40,0.40,0.99,0.99,-0.99,-0.82,-0.76,-0.59,-0.59,-0.59
147.78,0.36,0.36,1.00,1.00,-1.00,-0.86,-0.76,-0.64,-0.64,-0.64
149.26,0.32,0.31,1.01,1.01,-1.01,-0.89,-0.75,-0.69,-0.69,-0.69
150.75,0.27,0.27,1.01,1.01,-1.01,-0.92,-0.75,-0.75,-0.75,-0.74
152.26,0.23,0.23,1.02,1.02,-1.02,-0.95,-0.74,-0.80,-0.80,-0.79
153.78,0.19,0.19,1.03,1.03,-1.03,-0.99,-0.74,-0.84,-0.84,-0.84
155.32,0.16,0.15,1.04,1.04,-1.04,-1.02,-0.73,-0.88,-0.89,-0.89
156.88,0.12,0.12,1.05,1.05,-1.05,-1.05,-0.73,-0.93,-0.93,-0.93
158.44,0.08,0.08,1.05,1.05,-1.05,-1.08,-0.72,-0.98,-0.97,-0.98
160.03,0.04,0.04,1.06,1.06,-1.06,-1.11,-0.72,-1.02,-1.02,-1.02
161.63,-0.00,-0.00,1.07,1.06,-1.06,-1.13,-0.72,-1.07,-1.07,-1.07
163.24,-0.04,-0.04,1.07,1.07,-1.07,-1.15,-0.72,-1.11,-1.11,-1.11
164.88,-0.08,-0.08,1.07,1.07,-1.07,-1.17,-0.71,-1.15,-1.15,-1.15
166.53,-0.12,-0.12,1.07,1.07,-1.07,-1.19,-0.71,-1.19,-1.19,-1.19
168.19,-0.16,-0.16,1.07,1.07,-1.07,-1.20,-0.71,-1.23,-1.23,-1.23
169.87,-0.20,-0.20,1.06,1.07,-1.07,-1.21,-0.71,-1.27,-1.27,-1.27
171.57,-0.23,-0.24,1.07,1.07,-1.07,-1.22,-0.71,-1.30,-1.31,-1.30
173.29,-0.27,-0.27,1.07,1.07,-1.07,-1.22,-0.71,-1.34,-1.34,-1.34
175.02,-0.31,-0.31,1.06,1.06,-1.06,-1.22,-0.71,-1.38,-1.37,-1.37
176.77,-0.34,-0.35,1.06,1.06,-1.06,-1.22,-0.71,-1.40,-1.41,-1.41
178.54,-0.38,-0.38,1.06,1.06,-1.06,-1.21,-0.71,-1.44,-1.44,-1.44
180.32,-0.41,-0.42,1.06,1.06,-1.05,-1.19,-0.72,-1.47,-1.47,-1.47
182.13,-0.45,-0.45,1.05,1.05,-1.05,-1.18,-0.72,-1.50,-1.50,-1.50
183.95,-0.49,-0.49,1.04,1.04,-1.04,-1.16,-0.72,-1.54,-1.53,-1.53
185.79,-0.52,-0.53,1.04,1.04,-1.04,-1.14,-0.73,-1.56,-1.57,-1.56
187.65,-0.56,-0.56,1.03,1.03,-1.03,-1.12,-0.73,-1.60,-1.59,-1.59
189.52,-0.59,-0.59,1.02,1.02,-1.02,-1.09,-0.74,-1.62,-1.62,-1.62
191.42,-0.62,-0.63,1.02,1.02,-1.02,-1.07,-0.75,-1.64,-1.64,-1.64
193.33,-0.66,-0.66,1.01,1.01,-1.01,-1.04,-0.75,-1.67,-1.67,-1.67
195.27,-0.69,-0.70,1.00,1.00,-1.00,-1.01,-0.76,-1.69,-1.69,-1.70
197.22,-0.73,-0.73,0.99,0.99,-0.99,-0.98,-0.77,-1.72,-1.72,-1.72
199.19,-0.76,-0.77,0.98,0.98,-0.98,-0.95,-0.77,-1.74,-1.75,-1.74
201.18,-0.80,-0.80,0.96,0.97,-0.97,-0.92,-0.78,-1.77,-1.77,-1.77
203.19,-0.83,-0.83,0.96,0.96,-0.96,-0.89,-0.79,-1.79,-1.79,-1.79
205.23,-0.86,-0.86,0.95,0.95,-0.94,-0.87,-0.80,-1.81,-1.81,-1.81
207.28,-0.89,-0.90,0.94,0.93,-0.93,-0.84,-0.80,-1.83,-1.83,-1.83
209.35,-0.93,-0.93,0.92,0.92,-0.92,-0.81,-0.81,-1.85,-1.85,-1.85
211.44,-0.96,-0.96,0.91,0.91,-0.91,-0.79,-0.82,-1.87,-1.87,-1.87
213.56,-0.99,-0.99,0.90,0.90,-0.90,-0.76,-0.83,-1.89,-1.89,-1.89
215.69,-1.02,-1.02,0.88,0.88,-0.88,-0.74,-0.83,-1.91,-1.91,-1.91
217.85,-1.05,-1.05,0.87,0.87,-0.87,-0.71,-0.84,-1.92,-1.92,-1.93
220.03,-1.08,-1.08,0.86,0.86,-0.86,-0.69,-0.85,-1.94,-1.94,-1.94
222.23,-1.11,-1.11,0.85,0.85,-0.84,-0.67,-0.85,-1.96,-1.96,-1.96
224.45,-1.14,-1.14,0.83,0.83,-0.83,-0.65,-0.86,-1.98,-1.98,-1.97
226.70,-1.17,-1.17,0.82,0.82,-0.82,-0.63,-0.86,-1.99,-1.99,-1.99
228.96,-1.20,-1.20,0.80,0.80,-0.81,-0.61,-0.87,-2.01,-2.01,-2.01
231.25,-1.22,-1.23,0.80,0.79,-0.79,-0.59,-0.87,-2.02,-2.02,-2.02
233.57,-1.25,-1.25,0.78,0.78,-0.78,-0.57,-0.87,-2.04,-2.04,-2.03
235.90,-1.28,-1.28,0.77,0.77,-0.77,-0.55,-0.87,-2.05,-2.05,-2.06
238.26,-1.31,-1.31,0.76,0.76,-0.76,-0.54,-0.87,-2.07,-2.07,-2.07
240.64,-1.34,-1.34,0.74,0.74,-0.74,-0.52,-0.87,-2.08,-2.08,-2.08
243.05,-1.36,-1.37,0.73,0.73,-0.73,-0.51,-0.86,-2.09,-2.09,-2.09
245.48,-1.39,-1.39,0.71,0.71,-0.71,-0.49,-0.86,-2.11,-2.11,-2.11
247.93,-1.42,-1.42,0.69,0.70,-0.70,-0.48,-0.85,-2.12,-2.12,-2.12
250.41,-1.45,-1.45,0.68,0.68,-0.68,-0.47,-0.84,-2.13,-2.13,-2.13
252.92,-1.47,-1.48,0.67,0.66,-0.66,-0.46,-0.83,-2.14,-2.14,-2.14
255.45,-1.50,-1.50,0.65,0.65,-0.65,-0.44,-0.82,-2.15,-2.15,-2.15
258.00,-1.52,-1.53,0.64,0.63,-0.63,-0.43,-0.81,-2.16,-2.16,-2.16
260.58,-1.55,-1.55,0.62,0.62,-0.62,-0.42,-0.79,-2.17,-2.17,-2.17
263.19,-1.57,-1.58,0.60,0.60,-0.60,-0.41,-0.78,-2.18,-2.18,-2.18
265.82,-1.60,-1.60,0.58,0.59,-0.59,-0.40,-0.76,-2.19,-2.19,-2.19
268.48,-1.62,-1.63,0.57,0.57,-0.57,-0.39,-0.74,-2.19,-2.20,-2.20
271.16,-1.65,-1.65,0.55,0.55,-0.56,-0.38,-0.72,-2.21,-2.21,-2.20
273.87,-1.67,-1.67,0.54,0.54,-0.54,-0.37,-0.70,-2.21,-2.21,-2.21
276.61,-1.69,-1.70,0.53,0.52,-0.52,-0.37,-0.68,-2.21,-2.22,-2.22
279.38,-1.72,-1.72,0.50,0.51,-0.50,-0.36,-0.66,-2.23,-2.22,-2.23
282.17,-1.74,-1.74,0.49,0.49,-0.49,-0.35,-0.63,-2.23,-2.23,-2.23
284.99,-1.76,-1.76,0.47,0.47,-0.47,-0.34,-0.61,-2.23,-2.23,-2.23
287.84,-1.78,-1.79,0.44,0.45,-0.45,-0.33,-0.58,-2.23,-2.23,-2.23
290.72,-1.81,-1.81,0.42,0.42,-0.43,-0.33,-0.55,-2.24,-2.24,-2.23
293.63,-1.83,-1.83,0.41,0.40,-0.40,-0.32,-0.52,-2.24,-2.24,-2.24
296.57,-1.85,-1.85,0.38,0.38,-0.38,-0.31,-0.50,-2.24,-2.24,-2.24
299.53,-1.87,-1.87,0.36,0.36,-0.36,-0.30,-0.47,-2.24,-2.24,-2.23
302.53,-1.89,-1.89,0.34,0.34,-0.34,-0.30,-0.44,-2.23,-2.23,-2.24
305.55,-1.91,-1.91,0.32,0.32,-0.32,-0.29,-0.41,-2.23,-2.23,-2.23
308.61,-1.93,-1.93,0.30,0.30,-0.30,-0.28,-0.38,-2.23,-2.23,-2.24
311.69,-1.95,-1.95,0.28,0.28,-0.28,-0.27,-0.35,-2.23,-2.23,-2.23
314.81,-1.97,-1.97,0.26,0.26,-0.26,-0.27,-0.32,-2.23,-2.23,-2.24
317.96,-1.99,-1.99,0.24,0.24,-0.24,-0.26,-0.28,-2.23,-2.24,-2.23
321.14,-2.01,-2.01,0.22,0.22,-0.22,-0.25,-0.25,-2.23,-2.23,-2.24
324.35,-2.03,-2.03,0.20,0.20,-0.20,-0.24,-0.22,-2.23,-2.23,-2.23
327.59,-2.04,-2.05,0.18,0.18,-0.18,-0.23,-0.19,-2.23,-2.23,-2.22
330.87,-2.06,-2.06,0.17,0.16,-0.16,-0.23,-0.16,-2.23,-2.23,-2.23
334.18,-2.08,-2.08,0.14,0.14,-0.14,-0.22,-0.13,-2.23,-2.22,-2.22
337.52,-2.10,-2.10,0.12,0.12,-0.12,-0.21,-0.09,-2.22,-2.22,-2.23
340.90,-2.11,-2.12,0.11,0.10,-0.10,-0.20,-0.06,-2.21,-2.22,-2.22
344.30,-2.13,-2.13,0.08,0.08,-0.08,-0.19,-0.03,-2.21,-2.21,-2.21
347.75,-2.15,-2.15,0.05,0.06,-0.06,-0.18,0.00,-2.21,-2.21,-2.21
351.23,-2.16,-2.17,0.05,0.04,-0.04,-0.18,0.04,-2.20,-2.21,-2.21
354.74,-2.18,-2.18,0.01,0.02,-0.02,-0.17,0.07,-2.20,-2.20,-2.19
358.28,-2.19,-2.20,0.00,-0.00,0.00,-0.16,0.10,-2.19,-2.19,-2.20
361.87,-2.21,-2.21,-0.02,-0.02,0.02,-0.15,0.13,-2.19,-2.19,-2.19
365.49,-2.22,-2.23,-0.04,-0.04,0.04,-0.14,0.17,-2.18,-2.18,-2.18
369.14,-2.24,-2.24,-0.06,-0.06,0.06,-0.12,0.20,-2.18,-2.18,-2.18
372.83,-2.25,-2.26,-0.09,-0.08,0.08,-0.11,0.23,-2.17,-2.17,-2.17
376.56,-2.27,-2.27,-0.10,-0.10,0.10,-0.10,0.27,-2.17,-2.17,-2.17
380.33,-2.28,-2.28,-0.12,-0.12,0.12,-0.09,0.30,-2.16,-2.16,-2.16
384.13,-2.29,-2.30,-0.13,-0.14,0.14,-0.08,0.33,-2.15,-2.16,-2.16
387.97,-2.31,-2.31,-0.16,-0.16,0.16,-0.07,0.37,-2.15,-2.15,-2.16
391.85,-2.32,-2.32,-0.19,-0.18,0.18,-0.05,0.40,-2.15,-2.14,-2.14
395.77,-2.33,-2.33,-0.19,-0.20,0.20,-0.04,0.43,-2.14,-2.14,-2.14
399.73,-2.34,-2.35,-0.21,-0.22,0.21,-0.02,0.46,-2.13,-2.13,-2.13
403.72,-2.36,-2.36,-0.24,-0.23,0.23,-0.01,0.49,-2.13,-2.13,-2.12
407.76,-2.37,-2.37,-0.25,-0.25,0.25,0.01,0.53,-2.12,-2.12,-2.13
411.84,-2.38,-2.38,-0.27,-0.27,0.27,0.02,0.56,-2.12,-2.12,-2.12
415.96,-2.39,-2.39,-0.28,-0.28,0.28,0.04,0.59,-2.11,-2.11,-2.11
420.12,-2.40,-2.40,-0.29,-0.30,0.30,0.06,0.62,-2.11,-2.11,-2.11
424.32,-2.41,-2.41,-0.31,-0.31,0.31,0.07,0.65,-2.10,-2.10,-2.10
428.56,-2.42,-2.42,-0.33,-0.33,0.33,0.09,0.68,-2.10,-2.10,-2.09
432.85,-2.43,-2.43,-0.35,-0.34,0.34,0.11,0.70,-2.09,-2.09,-2.09
437.18,-2.44,-2.44,-0.36,-0.36,0.36,0.13,0.73,-2.08,-2.08,-2.09
441.55,-2.45,-2.45,-0.38,-0.38,0.38,0.15,0.76,-2.07,-2.07,-2.08
445.96,-2.46,-2.46,-0.39,-0.40,0.40,0.17,0.78,-2.06,-2.06,-2.07
450.42,-2.47,-2.47,-0.42,-0.42,0.42,0.19,0.80,-2.06,-2.06,-2.05
454.93,-2.48,-2.48,-0.44,-0.44,0.44,0.21,0.82,-2.05,-2.05,-2.04
459.48,-2.49,-2.49,-0.46,-0.46,0.45,0.24,0.84,-2.04,-2.04,-2.03
464.07,-2.50,-2.50,-0.47,-0.47,0.47,0.26,0.86,-2.03,-2.03,-2.03
468.71,-2.51,-2.51,-0.49,-0.49,0.49,0.28,0.87,-2.02,-2.02,-2.03
473.40,-2.52,-2.52,-0.51,-0.50,0.50,0.31,0.89,-2.02,-2.02,-2.02
478.13,-2.52,-2.53,-0.52,-0.52,0.52,0.33,0.90,-2.00,-2.01,-2.01
482.91,-2.53,-2.53,-0.53,-0.53,0.54,0.36,0.91,-2.00,-2.00,-2.00
487.74,-2.54,-2.54,-0.55,-0.55,0.55,0.39,0.91,-1.99,-1.99,-1.99
492.62,-2.54,-2.55,-0.56,-0.57,0.57,0.41,0.92,-1.98,-1.98,-1.98
497.55,-2.55,-2.55,-0.58,-0.58,0.59,0.44,0.92,-1.97,-1.97,-1.97
