frequency,raw,error,smoothed,error_smoothed,equalization,parametric_eq,fixed_band_eq,equalized_raw,equalized_smoothed,target
20.00,-11.61,-12.63,-11.62,-12.64,6.00,5.82,2.43,-5.61,-5.62,1.02
20.20,-11.52,-12.57,-11.52,-12.57,6.00,5.81,2.50,-5.52,-5.52,1.05
20.40,-11.41,-12.49,-11.40,-12.48,6.00,5.80,2.57,-5.41,-5.40,1.08
20.61,-11.25,-12.35,-11.25,-12.36,6.00,5.79,2.64,-5.25,-5.25,1.10
20.81,-11.08,-12.21,-11.08,-12.21,6.00,5.78,2.72,-5.08,-5.08,1.13
21.02,-10.89,-12.05,-10.89,-12.05,6.00,5.78,2.80,-4.89,-4.89,1.16
21.23,-10.69,-11.86,-10.70,-11.87,6.00,5.77,2.88,-4.69,-4.70,1.17
21.44,-10.52,-11.70,-10.50,-11.68,6.00,5.76,2.96,-4.52,-4.50,1.18
21.66,-10.30,-11.49,-10.30,-11.49,6.00,5.75,3.05,-4.30,-4.30,1.19
21.87,-10.08,-11.27,-10.10,-11.29,6.00,5.74,3.14,-4.08,-4.10,1.19
22.09,-9.91,-11.11,-9.90,-11.10,6.00,5.73,3.22,-3.91,-3.90,1.20
22.31,-9.72,-10.92,-9.72,-10.92,6.00,5.72,3.32,-3.72,-3.72,1.20
22.54,-9.54,-10.74,-9.55,-10.74,6.00,5.71,3.41,-3.54,-3.55,1.20
22.76,-9.37,-10.57,-9.35,-10.55,6.00,5.70,3.51,-3.37,-3.35,1.20
22.99,-9.16,-10.35,-9.17,-10.36,6.00,5.69,3.61,-3.16,-3.17,1.19
23.22,-8.96,-10.15,-8.98,-10.16,6.00,5.68,3.71,-2.96,-2.98,1.19
23.45,-8.79,-9.98,-8.77,-9.96,6.00,5.67,3.82,-2.79,-2.77,1.19
23.69,-8.57,-9.76,-8.57,-9.75,6.00,5.66,3.92,-2.57,-2.57,1.19
23.92,-8.35,-9.53,-8.36,-9.55,6.00,5.65,4.03,-2.35,-2.36,1.19
24.16,-8.14,-9.33,-8.15,-9.34,6.00,5.63,4.14,-2.14,-2.15,1.20
24.40,-7.97,-9.16,-7.95,-9.15,6.00,5.62,4.26,-1.97,-1.95,1.19
24.65,-7.76,-8.95,-7.77,-8.95,6.00,5.61,4.37,-1.76,-1.77,1.18
24.89,-7.58,-8.76,-7.58,-8.76,6.00,5.60,4.49,-1.58,-1.58,1.18
25.14,-7.39,-8.57,-7.39,-8.57,6.00,5.59,4.60,-1.39,-1.39,1.18
25.39,-7.21,-8.39,-7.21,-8.39,6.00,5.58,4.72,-1.21,-1.21,1.18
25.65,-7.02,-8.20,-7.02,-8.20,6.00,5.57,4.84,-1.02,-1.02,1.18
25.91,-6.83,-8.01,-6.83,-8.01,6.00,5.56,4.96,-0.83,-0.83,1.17
26.16,-6.63,-7.80,-6.63,-7.80,6.00,5.55,5.08,-0.63,-0.63,1.17
26.43,-6.43,-7.60,-6.43,-7.60,6.00,5.54,5.20,-0.43,-0.43,1.17
26.69,-6.22,-7.39,-6.23,-7.40,6.00,5.53,5.31,-0.22,-0.23,1.17
26.96,-6.04,-7.21,-6.04,-7.21,6.00,5.51,5.43,-0.04,-0.04,1.17
27.23,-5.85,-7.02,-5.85,-7.02,6.00,5.50,5.54,0.15,0.15,1.17
27.50,-5.68,-6.85,-5.68,-6.85,6.00,5.49,5.65,0.32,0.32,1.17
27.77,-5.52,-6.68,-5.52,-6.68,6.01,5.48,5.76,0.49,0.48,1.16
28.05,-5.38,-6.54,-5.38,-6.53,6.01,5.47,5.86,0.63,0.64,1.16
28.33,-5.25,-6.40,-5.25,-6.40,6.02,5.46,5.96,0.77,0.76,1.15
28.62,-5.13,-6.28,-5.14,-6.28,6.01,5.45,6.06,0.88,0.88,1.14
28.90,-5.04,-6.18,-5.03,-6.17,6.00,5.43,6.14,0.96,0.96,1.14
29.19,-4.93,-6.06,-4.94,-6.08,5.97,5.42,6.22,1.04,1.03,1.13
29.48,-4.86,-6.00,-4.86,-5.99,5.93,5.41,6.29,1.07,1.08,1.14
29.78,-4.78,-5.91,-4.78,-5.91,5.89,5.40,6.36,1.11,1.11,1.13
30.08,-4.69,-5.82,-4.70,-5.83,5.83,5.39,6.41,1.14,1.13,1.13
30.38,-4.63,-5.75,-4.62,-5.74,5.77,5.37,6.46,1.14,1.15,1.12
30.68,-4.55,-5.67,-4.56,-5.67,5.70,5.36,6.50,1.15,1.14,1.12
30.99,-4.50,-5.61,-4.51,-5.62,5.63,5.35,6.53,1.13,1.13,1.11
31.30,-4.46,-5.57,-4.45,-5.56,5.56,5.34,6.55,1.10,1.11,1.11
31.61,-4.41,-5.52,-4.41,-5.51,5.50,5.32,6.56,1.09,1.09,1.10
31.93,-4.35,-5.44,-4.36,-5.45,5.44,5.31,6.56,1.09,1.09,1.09
32.24,-4.30,-5.38,-4.30,-5.39,5.39,5.30,6.55,1.09,1.09,1.08
32.57,-4.26,-5.34,-4.25,-5.33,5.34,5.29,6.53,1.08,1.08,1.08
32.89,-4.21,-5.29,-4.21,-5.29,5.29,5.27,6.50,1.08,1.07,1.08
33.22,-4.16,-5.23,-4.17,-5.24,5.23,5.26,6.47,1.07,1.07,1.07
33.55,-4.13,-5.20,-4.12,-5.18,5.18,5.25,6.42,1.05,1.06,1.07
33.89,-4.07,-5.12,-4.07,-5.13,5.13,5.24,6.37,1.06,1.05,1.05
34.23,-4.02,-5.07,-4.03,-5.08,5.07,5.22,6.32,1.05,1.05,1.05
34.57,-3.99,-5.03,-3.98,-5.02,5.02,5.21,6.25,1.03,1.04,1.04
34.92,-3.93,-4.96,-3.94,-4.97,4.97,5.20,6.19,1.04,1.03,1.03
35.27,-3.90,-4.93,-3.90,-4.92,4.92,5.18,6.12,1.02,1.02,1.03
35.62,-3.85,-4.87,-3.85,-4.87,4.87,5.17,6.04,1.02,1.02,1.01
35.97,-3.82,-4.82,-3.82,-4.83,4.83,5.16,5.97,1.01,1.01,1.00
36.33,-3.78,-4.78,-3.78,-4.78,4.78,5.14,5.89,1.00,1.00,1.00
36.70,-3.75,-4.74,-3.75,-4.74,4.74,5.13,5.81,0.99,0.99,0.99
37.06,-3.72,-4.70,-3.72,-4.70,4.70,5.11,5.73,0.98,0.98,0.98
37.43,-3.69,-4.66,-3.70,-4.66,4.67,5.10,5.64,0.97,0.97,0.97
37.81,-3.68,-4.64,-3.67,-4.63,4.63,5.09,5.56,0.95,0.96,0.96
38.19,-3.64,-4.59,-3.65,-4.60,4.59,5.07,5.48,0.95,0.94,0.95
38.57,-3.62,-4.57,-3.62,-4.56,4.55,5.06,5.40,0.93,0.94,0.95
38.95,-3.59,-4.52,-3.59,-4.52,4.52,5.04,5.32,0.93,0.93,0.93
39.34,-3.55,-4.47,-3.56,-4.48,4.48,5.03,5.25,0.93,0.93,0.92
39.74,-3.53,-4.44,-3.53,-4.44,4.44,5.01,5.17,0.91,0.91,0.91
40.14,-3.50,-4.40,-3.51,-4.41,4.41,5.00,5.10,0.91,0.90,0.90
40.54,-3.50,-4.39,-3.49,-4.38,4.38,4.98,5.03,0.88,0.89,0.89
40.94,-3.46,-4.35,-3.47,-4.35,4.35,4.97,4.97,0.89,0.88,0.89
41.35,-3.45,-4.32,-3.45,-4.32,4.32,4.95,4.90,0.87,0.87,0.87
41.76,-3.42,-4.29,-3.42,-4.29,4.29,4.94,4.84,0.87,0.86,0.87
42.18,-3.41,-4.28,-3.41,-4.28,4.26,4.92,4.79,0.85,0.85,0.87
42.60,-3.41,-4.26,-3.41,-4.27,4.25,4.90,4.73,0.83,0.84,0.85
43.03,-3.41,-4.26,-3.40,-4.24,4.24,4.89,4.68,0.83,0.85,0.85
43.46,-3.41,-4.24,-3.40,-4.23,4.26,4.87,4.63,0.85,0.86,0.83
43.90,-3.39,-4.20,-3.42,-4.24,4.29,4.85,4.59,0.90,0.87,0.81
44.33,-3.49,-4.28,-3.49,-4.28,4.34,4.84,4.55,0.85,0.85,0.79
44.78,-3.59,-4.37,-3.59,-4.37,4.39,4.82,4.52,0.80,0.80,0.78
45.23,-3.72,-4.48,-3.72,-4.48,4.45,4.80,4.48,0.73,0.73,0.76
45.68,-3.82,-4.57,-3.80,-4.55,4.51,4.79,4.45,0.69,0.70,0.75
46.13,-3.87,-4.60,-3.86,-4.60,4.56,4.77,4.43,0.69,0.69,0.73
46.60,-3.87,-4.60,-3.89,-4.62,4.59,4.75,4.41,0.72,0.70,0.73
47.06,-3.91,-4.62,-3.90,-4.61,4.60,4.73,4.39,0.69,0.70,0.71
47.53,-3.90,-4.60,-3.90,-4.59,4.59,4.71,4.37,0.69,0.69,0.69
48.01,-3.87,-4.56,-3.88,-4.56,4.55,4.69,4.36,0.68,0.67,0.69
48.49,-3.85,-4.51,-3.85,-4.51,4.50,4.67,4.35,0.65,0.65,0.66
48.97,-3.81,-4.45,-3.81,-4.45,4.44,4.65,4.34,0.63,0.63,0.63
49.46,-3.78,-4.39,-3.77,-4.38,4.39,4.63,4.34,0.61,0.62,0.61
49.96,-3.73,-4.31,-3.73,-4.32,4.34,4.61,4.33,0.61,0.61,0.58
50.46,-3.71,-4.28,-3.71,-4.28,4.31,4.59,4.33,0.60,0.60,0.57
50.96,-3.69,-4.25,-3.70,-4.25,4.29,4.57,4.33,0.60,0.58,0.55
51.47,-3.72,-4.25,-3.72,-4.25,4.28,4.55,4.34,0.56,0.56,0.53
51.99,-3.76,-4.27,-3.75,-4.26,4.28,4.53,4.34,0.52,0.53,0.51
52.51,-3.78,-4.28,-3.79,-4.28,4.28,4.51,4.35,0.50,0.50,0.50
53.03,-3.82,-4.30,-3.82,-4.30,4.29,4.48,4.36,0.47,0.47,0.48
53.56,-3.85,-4.31,-3.85,-4.31,4.28,4.46,4.36,0.43,0.43,0.46
54.10,-3.87,-4.31,-3.86,-4.30,4.26,4.44,4.37,0.39,0.40,0.44
54.64,-3.85,-4.27,-3.85,-4.27,4.23,4.41,4.38,0.38,0.38,0.42
55.18,-3.80,-4.20,-3.81,-4.21,4.18,4.39,4.39,0.38,0.38,0.40
55.74,-3.75,-4.13,-3.75,-4.13,4.12,4.36,4.39,0.37,0.38,0.38
56.29,-3.68,-4.05,-3.68,-4.05,4.06,4.34,4.40,0.38,0.38,0.37
56.86,-3.62,-3.97,-3.62,-3.97,4.00,4.31,4.40,0.38,0.38,0.35
57.42,-3.57,-3.90,-3.58,-3.91,3.94,4.28,4.40,0.37,0.36,0.33
58.00,-3.55,-3.86,-3.55,-3.87,3.89,4.26,4.40,0.34,0.33,0.31
58.58,-3.55,-3.85,-3.55,-3.85,3.85,4.23,4.40,0.30,0.30,0.30
59.16,-3.55,-3.84,-3.55,-3.83,3.83,4.20,4.39,0.28,0.28,0.29
59.76,-3.55,-3.82,-3.55,-3.82,3.82,4.17,4.38,0.27,0.26,0.27
60.35,-3.55,-3.80,-3.56,-3.81,3.81,4.14,4.36,0.26,0.25,0.25
60.96,-3.59,-3.83,-3.58,-3.80,3.82,4.11,4.35,0.23,0.24,0.23
61.57,-3.59,-3.79,-3.61,-3.81,3.82,4.08,4.33,0.23,0.21,0.20
62.18,-3.64,-3.81,-3.64,-3.82,3.82,4.05,4.30,0.18,0.18,0.17
62.80,-3.67,-3.83,-3.67,-3.82,3.81,4.02,4.27,0.14,0.14,0.16
63.43,-3.69,-3.82,-3.69,-3.82,3.80,3.99,4.23,0.11,0.11,0.13
64.07,-3.69,-3.81,-3.68,-3.80,3.78,3.95,4.20,0.09,0.10,0.11
64.71,-3.64,-3.74,-3.66,-3.76,3.75,3.92,4.15,0.11,0.09,0.10
65.35,-3.64,-3.72,-3.63,-3.71,3.71,3.88,4.11,0.07,0.08,0.08
66.01,-3.60,-3.66,-3.60,-3.66,3.66,3.85,4.05,0.06,0.06,0.06
66.67,-3.56,-3.60,-3.57,-3.61,3.61,3.81,4.00,0.05,0.04,0.04
67.33,-3.53,-3.55,-3.53,-3.55,3.55,3.77,3.94,0.02,0.03,0.02
68.01,-3.50,-3.50,-3.49,-3.50,3.50,3.74,3.88,-0.00,0.01,0.00
68.69,-3.45,-3.43,-3.46,-3.44,3.45,3.70,3.82,0.00,-0.01,-0.02
69.37,-3.44,-3.40,-3.43,-3.39,3.41,3.66,3.75,-0.03,-0.03,-0.04
70.07,-3.41,-3.35,-3.42,-3.36,3.37,3.62,3.68,-0.04,-0.05,-0.06
70.77,-3.41,-3.34,-3.41,-3.33,3.34,3.58,3.61,-0.07,-0.08,-0.07
71.48,-3.41,-3.31,-3.41,-3.31,3.31,3.54,3.54,-0.10,-0.10,-0.10
72.19,-3.41,-3.29,-3.41,-3.29,3.28,3.50,3.46,-0.13,-0.13,-0.12
72.91,-3.41,-3.27,-3.41,-3.27,3.26,3.45,3.39,-0.15,-0.15,-0.15
73.64,-3.41,-3.24,-3.41,-3.24,3.24,3.41,3.31,-0.17,-0.17,-0.17
74.38,-3.41,-3.23,-3.41,-3.22,3.22,3.36,3.23,-0.19,-0.19,-0.19
75.12,-3.41,-3.20,-3.41,-3.20,3.20,3.32,3.16,-0.21,-0.21,-0.21
75.87,-3.41,-3.18,-3.41,-3.18,3.18,3.27,3.08,-0.23,-0.23,-0.23
76.63,-3.41,-3.17,-3.41,-3.16,3.16,3.22,3.00,-0.25,-0.25,-0.24
77.40,-3.41,-3.15,-3.41,-3.15,3.15,3.18,2.93,-0.27,-0.27,-0.26
78.17,-3.41,-3.12,-3.41,-3.13,3.13,3.13,2.85,-0.28,-0.28,-0.29
78.95,-3.41,-3.11,-3.41,-3.11,3.11,3.08,2.78,-0.30,-0.30,-0.30
79.74,-3.41,-3.09,-3.41,-3.09,3.09,3.03,2.70,-0.32,-0.32,-0.32
80.54,-3.41,-3.07,-3.41,-3.07,3.07,2.98,2.63,-0.34,-0.34,-0.34
81.35,-3.41,-3.05,-3.41,-3.05,3.05,2.93,2.56,-0.36,-0.36,-0.36
82.16,-3.41,-3.03,-3.41,-3.03,3.03,2.87,2.49,-0.38,-0.38,-0.38
82.98,-3.41,-3.02,-3.41,-3.01,3.01,2.82,2.42,-0.40,-0.40,-0.39
83.81,-3.41,-2.98,-3.42,-2.99,2.99,2.77,2.35,-0.42,-0.43,-0.43
84.65,-3.41,-2.96,-3.41,-2.96,2.96,2.71,2.29,-0.45,-0.45,-0.45
85.50,-3.41,-2.95,-3.39,-2.93,2.92,2.66,2.22,-0.49,-0.47,-0.46
86.35,-3.36,-2.87,-3.38,-2.89,2.89,2.60,2.16,-0.48,-0.50,-0.49
87.22,-3.36,-2.85,-3.36,-2.85,2.85,2.55,2.10,-0.51,-0.52,-0.51
88.09,-3.35,-2.82,-3.33,-2.80,2.81,2.49,2.04,-0.55,-0.53,-0.54
88.97,-3.31,-2.76,-3.31,-2.76,2.76,2.43,1.98,-0.55,-0.55,-0.55
89.86,-3.27,-2.69,-3.29,-2.71,2.72,2.38,1.92,-0.55,-0.56,-0.58
90.76,-3.27,-2.66,-3.27,-2.66,2.68,2.32,1.86,-0.59,-0.59,-0.61
91.66,-3.27,-2.64,-3.27,-2.63,2.63,2.26,1.81,-0.64,-0.63,-0.63
92.58,-3.27,-2.60,-3.27,-2.61,2.59,2.20,1.76,-0.68,-0.68,-0.67
93.51,-3.25,-2.57,-3.25,-2.56,2.54,2.14,1.70,-0.71,-0.70,-0.68
94.44,-3.22,-2.51,-3.22,-2.50,2.50,2.08,1.65,-0.72,-0.72,-0.71
95.39,-3.17,-2.43,-3.18,-2.44,2.45,2.02,1.61,-0.72,-0.73,-0.74
96.34,-3.16,-2.38,-3.16,-2.38,2.40,1.96,1.56,-0.76,-0.76,-0.78
97.30,-3.13,-2.33,-3.14,-2.33,2.34,1.90,1.51,-0.79,-0.80,-0.81
98.28,-3.13,-2.30,-3.12,-2.29,2.28,1.84,1.47,-0.85,-0.84,-0.83
99.26,-3.09,-2.23,-3.09,-2.23,2.21,1.78,1.42,-0.88,-0.88,-0.86
100.25,-3.06,-2.17,-3.05,-2.16,2.14,1.72,1.38,-0.92,-0.91,-0.89
101.25,-2.99,-2.07,-3.00,-2.08,2.08,1.65,1.34,-0.91,-0.92,-0.92
102.27,-2.95,-2.00,-2.95,-1.99,2.01,1.59,1.30,-0.95,-0.94,-0.95
103.29,-2.89,-1.90,-2.90,-1.91,1.93,1.53,1.26,-0.96,-0.97,-0.99
104.32,-2.86,-1.85,-2.86,-1.85,1.86,1.47,1.22,-1.00,-1.00,-1.01
105.37,-2.82,-1.78,-2.82,-1.78,1.78,1.41,1.18,-1.04,-1.04,-1.04
106.42,-2.78,-1.71,-2.78,-1.71,1.70,1.35,1.15,-1.08,-1.07,-1.07
107.48,-2.73,-1.63,-2.73,-1.63,1.63,1.29,1.11,-1.10,-1.11,-1.10
108.56,-2.68,-1.54,-2.68,-1.55,1.55,1.23,1.08,-1.13,-1.14,-1.14
109.64,-2.64,-1.47,-2.63,-1.47,1.46,1.16,1.04,-1.18,-1.17,-1.17
110.74,-2.57,-1.38,-2.57,-1.38,1.37,1.10,1.01,-1.20,-1.20,-1.20
111.85,-2.51,-1.29,-2.51,-1.28,1.28,1.04,0.98,-1.23,-1.23,-1.22
112.97,-2.45,-1.18,-2.45,-1.18,1.18,0.98,0.94,-1.27,-1.27,-1.27
114.10,-2.39,-1.09,-2.39,-1.08,1.08,0.92,0.91,-1.31,-1.30,-1.30
115.24,-2.32,-0.98,-2.32,-0.98,0.98,0.87,0.88,-1.34,-1.34,-1.34
116.39,-2.26,-0.88,-2.26,-0.88,0.89,0.81,0.85,-1.37,-1.38,-1.38
117.55,-2.20,-0.79,-2.20,-0.78,0.79,0.75,0.82,-1.41,-1.41,-1.42
118.73,-2.14,-0.69,-2.14,-0.69,0.70,0.69,0.79,-1.44,-1.44,-1.45
119.92,-2.08,-0.60,-2.08,-0.60,0.61,0.63,0.76,-1.47,-1.48,-1.48
121.12,-2.03,-0.51,-2.03,-0.52,0.52,0.58,0.72,-1.51,-1.51,-1.52
122.33,-1.99,-0.44,-1.98,-0.44,0.43,0.52,0.69,-1.56,-1.55,-1.55
123.55,-1.94,-0.36,-1.94,-0.36,0.35,0.47,0.66,-1.59,-1.59,-1.58
124.79,-1.88,-0.27,-1.89,-0.28,0.27,0.41,0.63,-1.61,-1.62,-1.61
126.03,-1.85,-0.20,-1.84,-0.20,0.19,0.36,0.60,-1.66,-1.65,-1.65
127.29,-1.80,-0.12,-1.80,-0.11,0.11,0.30,0.57,-1.69,-1.69,-1.68
128.57,-1.75,-0.02,-1.76,-0.03,0.03,0.25,0.54,-1.72,-1.72,-1.73
129.85,-1.71,0.05,-1.71,0.05,-0.04,0.20,0.51,-1.76,-1.76,-1.76
131.15,-1.68,0.11,-1.67,0.12,-0.12,0.15,0.48,-1.80,-1.79,-1.79
132.46,-1.64,0.19,-1.64,0.18,-0.19,0.10,0.45,-1.83,-1.83,-1.83
133.79,-1.59,0.26,-1.60,0.25,-0.25,0.05,0.42,-1.84,-1.85,-1.85
135.12,-1.59,0.30,-1.57,0.31,-0.31,0.00,0.39,-1.90,-1.88,-1.89
136.48,-1.54,0.37,-1.55,0.36,-0.36,-0.05,0.36,-1.90,-1.91,-1.91
137.84,-1.54,0.40,-1.54,0.40,-0.40,-0.09,0.33,-1.94,-1.95,-1.94
139.22,-1.54,0.44,-1.54,0.44,-0.44,-0.14,0.30,-1.98,-1.97,-1.98
140.61,-1.54,0.47,-1.54,0.46,-0.47,-0.18,0.27,-2.01,-2.00,-2.01
142.02,-1.54,0.48,-1.54,0.49,-0.49,-0.23,0.24,-2.03,-2.02,-2.02
143.44,-1.54,0.51,-1.54,0.50,-0.50,-0.27,0.20,-2.04,-2.04,-2.05
144.87,-1.56,0.51,-1.56,0.51,-0.50,-0.31,0.17,-2.06,-2.06,-2.07
146.32,-1.59,0.51,-1.59,0.50,-0.49,-0.35,0.14,-2.08,-2.09,-2.10
147.78,-1.64,0.48,-1.63,0.49,-0.48,-0.39,0.11,-2.13,-2.12,-2.12
149.26,-1.67,0.47,-1.67,0.47,-0.47,-0.43,0.07,-2.14,-2.15,-2.14
150.75,-1.71,0.47,-1.71,0.46,-0.46,-0.47,0.04,-2.17,-2.18,-2.18
152.26,-1.75,0.45,-1.75,0.45,-0.46,-0.51,0.01,-2.21,-2.21,-2.20
153.78,-1.79,0.43,-1.79,0.44,-0.45,-0.54,-0.03,-2.24,-2.24,-2.23
155.32,-1.82,0.44,-1.81,0.44,-0.46,-0.58,-0.06,-2.28,-2.27,-2.26
156.88,-1.82,0.46,-1.82,0.46,-0.47,-0.61,-0.09,-2.29,-2.29,-2.28
158.44,-1.82,0.49,-1.82,0.49,-0.49,-0.64,-0.13,-2.31,-2.31,-2.31
160.03,-1.82,0.52,-1.82,0.52,-0.52,-0.68,-0.16,-2.34,-2.34,-2.34
161.63,-1.82,0.55,-1.82,0.55,-0.55,-0.71,-0.20,-2.37,-2.37,-2.38
163.24,-1.82,0.59,-1.82,0.58,-0.58,-0.74,-0.23,-2.40,-2.40,-2.41
164.88,-1.82,0.61,-1.81,0.62,-0.62,-0.77,-0.27,-2.44,-2.43,-2.43
166.53,-1.78,0.67,-1.79,0.66,-0.66,-0.80,-0.31,-2.44,-2.45,-2.45
168.19,-1.78,0.70,-1.78,0.70,-0.69,-0.82,-0.34,-2.48,-2.48,-2.48
169.87,-1.78,0.73,-1.78,0.73,-0.73,-0.85,-0.38,-2.51,-2.51,-2.51
171.57,-1.78,0.76,-1.77,0.77,-0.77,-0.88,-0.42,-2.55,-2.54,-2.54
173.29,-1.76,0.81,-1.76,0.81,-0.81,-0.90,-0.46,-2.57,-2.57,-2.57
175.02,-1.73,0.86,-1.74,0.86,-0.85,-0.93,-0.49,-2.58,-2.59,-2.59
176.77,-1.73,0.90,-1.73,0.89,-0.89,-0.95,-0.53,-2.62,-2.63,-2.63
178.54,-1.73,0.93,-1.73,0.93,-0.93,-0.97,-0.57,-2.66,-2.66,-2.66
180.32,-1.73,0.96,-1.71,0.98,-0.97,-0.99,-0.61,-2.70,-2.69,-2.69
182.13,-1.68,1.03,-1.70,1.02,-1.02,-1.01,-0.65,-2.70,-2.72,-2.71
183.95,-1.68,1.07,-1.68,1.06,-1.07,-1.03,-0.69,-2.75,-2.75,-2.75
185.79,-1.68,1.09,-1.67,1.11,-1.11,-1.05,-0.74,-2.79,-2.78,-2.77
187.65,-1.65,1.16,-1.65,1.15,-1.16,-1.07,-0.78,-2.81,-2.81,-2.81
189.52,-1.62,1.21,-1.62,1.21,-1.21,-1.09,-0.82,-2.84,-2.83,-2.83
191.42,-1.57,1.28,-1.58,1.28,-1.27,-1.11,-0.86,-2.84,-2.84,-2.85
193.33,-1.54,1.33,-1.54,1.33,-1.32,-1.12,-0.91,-2.86,-2.86,-2.87
195.27,-1.51,1.38,-1.52,1.38,-1.38,-1.14,-0.95,-2.89,-2.89,-2.90
197.22,-1.50,1.42,-1.50,1.42,-1.43,-1.15,-0.99,-2.93,-2.92,-2.92
199.19,-1.47,1.48,-1.46,1.48,-1.48,-1.17,-1.04,-2.95,-2.95,-2.95
201.18,-1.43,1.53,-1.43,1.53,-1.53,-1.18,-1.08,-2.96,-2.96,-2.96
203.19,-1.38,1.59,-1.39,1.58,-1.58,-1.19,-1.12,-2.96,-2.97,-2.97
205.23,-1.36,1.63,-1.36,1.62,-1.62,-1.20,-1.17,-2.98,-2.98,-2.99
207.28,-1.32,1.67,-1.33,1.67,-1.67,-1.21,-1.21,-2.99,-2.99,-2.99
209.35,-1.31,1.70,-1.30,1.71,-1.71,-1.22,-1.25,-3.02,-3.01,-3.01
211.44,-1.26,1.76,-1.27,1.74,-1.75,-1.23,-1.29,-3.01,-3.02,-3.03
213.56,-1.25,1.77,-1.25,1.78,-1.78,-1.24,-1.34,-3.03,-3.03,-3.02
215.69,-1.22,1.80,-1.22,1.81,-1.82,-1.25,-1.38,-3.04,-3.03,-3.02
217.85,-1.19,1.84,-1.20,1.83,-1.84,-1.26,-1.41,-3.03,-3.04,-3.03
220.03,-1.17,1.87,-1.17,1.86,-1.87,-1.27,-1.45,-3.04,-3.04,-3.04
222.23,-1.17,1.87,-1.15,1.89,-1.88,-1.27,-1.49,-3.05,-3.03,-3.05
224.45,-1.12,1.91,-1.13,1.91,-1.89,-1.28,-1.53,-3.01,-3.02,-3.03
226.70,-1.12,1.91,-1.13,1.91,-1.89,-1.28,-1.56,-3.01,-3.01,-3.03
228.96,-1.12,1.91,-1.13,1.89,-1.88,-1.29,-1.59,-3.00,-3.02,-3.03
231.25,-1.17,1.84,-1.15,1.87,-1.87,-1.29,-1.62,-3.04,-3.02,-3.01
233.57,-1.17,1.84,-1.17,1.84,-1.85,-1.30,-1.65,-3.02,-3.02,-3.01
235.90,-1.17,1.83,-1.19,1.81,-1.83,-1.30,-1.67,-3.00,-3.02,-3.00
238.26,-1.22,1.78,-1.20,1.80,-1.80,-1.30,-1.69,-3.02,-3.00,-3.00
240.64,-1.22,1.77,-1.22,1.77,-1.77,-1.31,-1.71,-2.99,-2.99,-2.99
243.05,-1.22,1.75,-1.23,1.74,-1.74,-1.31,-1.73,-2.96,-2.97,-2.97
245.48,-1.26,1.70,-1.25,1.71,-1.70,-1.31,-1.74,-2.96,-2.95,-2.96
247.93,-1.26,1.68,-1.27,1.67,-1.67,-1.31,-1.75,-2.93,-2.94,-2.94
250.41,-1.31,1.63,-1.30,1.63,-1.63,-1.31,-1.76,-2.94,-2.93,-2.94
252.92,-1.31,1.60,-1.32,1.59,-1.59,-1.31,-1.76,-2.90,-2.91,-2.91
255.45,-1.36,1.52,-1.35,1.54,-1.55,-1.31,-1.76,-2.91,-2.90,-2.89
258.00,-1.36,1.51,-1.37,1.50,-1.50,-1.31,-1.76,-2.87,-2.88,-2.87
260.58,-1.40,1.45,-1.39,1.46,-1.46,-1.30,-1.75,-2.86,-2.85,-2.85
263.19,-1.40,1.43,-1.40,1.43,-1.42,-1.30,-1.75,-2.82,-2.82,-2.83
265.82,-1.40,1.41,-1.42,1.39,-1.38,-1.30,-1.74,-2.78,-2.81,-2.81
268.48,-1.45,1.33,-1.43,1.35,-1.35,-1.29,-1.72,-2.80,-2.78,-2.79
271.16,-1.45,1.31,-1.45,1.31,-1.32,-1.29,-1.71,-2.77,-2.77,-2.76
273.87,-1.45,1.29,-1.46,1.28,-1.29,-1.28,-1.69,-2.74,-2.75,-2.74
276.61,-1.45,1.26,-1.45,1.27,-1.27,-1.28,-1.67,-2.72,-2.72,-2.72
279.38,-1.45,1.25,-1.46,1.24,-1.25,-1.27,-1.65,-2.70,-2.70,-2.70
282.17,-1.45,1.23,-1.45,1.23,-1.23,-1.26,-1.63,-2.69,-2.68,-2.68
284.99,-1.45,1.20,-1.43,1.22,-1.22,-1.26,-1.60,-2.68,-2.66,-2.65
287.84,-1.40,1.24,-1.42,1.21,-1.22,-1.25,-1.58,-2.62,-2.64,-2.64
290.72,-1.40,1.21,-1.40,1.21,-1.21,-1.24,-1.55,-2.61,-2.61,-2.61
293.63,-1.40,1.19,-1.38,1.21,-1.20,-1.23,-1.52,-2.60,-2.58,-2.59
296.57,-1.36,1.20,-1.37,1.20,-1.19,-1.22,-1.49,-2.55,-2.56,-2.56
299.53,-1.36,1.19,-1.36,1.18,-1.17,-1.21,-1.46,-2.53,-2.53,-2.55
302.53,-1.36,1.17,-1.36,1.17,-1.15,-1.19,-1.43,-2.51,-2.51,-2.53
305.55,-1.36,1.13,-1.36,1.14,-1.13,-1.18,-1.40,-2.49,-2.49,-2.49
308.61,-1.36,1.11,-1.36,1.11,-1.11,-1.16,-1.37,-2.47,-2.47,-2.47
311.69,-1.36,1.09,-1.37,1.08,-1.09,-1.15,-1.35,-2.45,-2.46,-2.45
314.81,-1.36,1.05,-1.36,1.06,-1.07,-1.13,-1.32,-2.43,-2.43,-2.41
317.96,-1.36,1.03,-1.34,1.05,-1.05,-1.11,-1.29,-2.41,-2.40,-2.39
321.14,-1.31,1.06,-1.33,1.04,-1.04,-1.09,-1.26,-2.35,-2.37,-2.37
324.35,-1.31,1.04,-1.31,1.03,-1.03,-1.07,-1.23,-2.34,-2.35,-2.35
327.59,-1.31,1.01,-1.31,1.02,-1.02,-1.05,-1.20,-2.33,-2.33,-2.32
330.87,-1.31,1.00,-1.30,1.01,-1.01,-1.02,-1.17,-2.32,-2.32,-2.31
334.18,-1.29,1.00,-1.28,1.00,-1.00,-1.00,-1.15,-2.29,-2.29,-2.29
337.52,-1.26,1.01,-1.27,1.00,-0.98,-0.97,-1.12,-2.24,-2.26,-2.27
340.90,-1.26,0.98,-1.27,0.97,-0.96,-0.94,-1.10,-2.22,-2.23,-2.24
344.30,-1.29,0.93,-1.28,0.94,-0.93,-0.90,-1.07,-2.22,-2.22,-2.22
347.75,-1.31,0.89,-1.31,0.90,-0.90,-0.87,-1.05,-2.21,-2.21,-2.20
351.23,-1.32,0.86,-1.33,0.85,-0.86,-0.83,-1.02,-2.18,-2.19,-2.18
354.74,-1.36,0.81,-1.35,0.81,-0.82,-0.79,-1.00,-2.18,-2.17,-2.17
358.28,-1.38,0.77,-1.38,0.77,-0.76,-0.74,-0.98,-2.14,-2.14,-2.15
361.87,-1.41,0.72,-1.42,0.71,-0.70,-0.70,-0.96,-2.11,-2.12,-2.13
365.49,-1.46,0.65,-1.46,0.65,-0.64,-0.64,-0.94,-2.10,-2.10,-2.11
369.14,-1.52,0.58,-1.52,0.58,-0.58,-0.59,-0.92,-2.10,-2.09,-2.10
372.83,-1.58,0.50,-1.58,0.50,-0.51,-0.54,-0.90,-2.09,-2.09,-2.08
376.56,-1.63,0.44,-1.63,0.43,-0.45,-0.48,-0.89,-2.08,-2.08,-2.07
380.33,-1.68,0.36,-1.67,0.38,-0.38,-0.42,-0.87,-2.06,-2.06,-2.04
384.13,-1.71,0.32,-1.71,0.32,-0.32,-0.36,-0.85,-2.03,-2.04,-2.03
387.97,-1.74,0.28,-1.75,0.27,-0.26,-0.30,-0.84,-2.01,-2.02,-2.03
391.85,-1.80,0.22,-1.79,0.22,-0.21,-0.24,-0.82,-2.01,-2.00,-2.02
395.77,-1.83,0.17,-1.83,0.17,-0.17,-0.19,-0.81,-2.00,-2.00,-2.00
399.73,-1.87,0.12,-1.87,0.12,-0.13,-0.14,-0.80,-2.00,-2.00,-1.99
403.72,-1.89,0.09,-1.89,0.08,-0.09,-0.10,-0.78,-1.98,-1.99,-1.98
407.76,-1.92,0.05,-1.91,0.05,-0.06,-0.07,-0.77,-1.98,-1.97,-1.97
411.84,-1.92,0.03,-1.92,0.03,-0.03,-0.05,-0.76,-1.95,-1.95,-1.95
415.96,-1.92,0.02,-1.92,0.02,-0.01,-0.05,-0.75,-1.93,-1.93,-1.94
420.12,-1.92,0.01,-1.92,0.01,0.00,-0.05,-0.74,-1.92,-1.92,-1.93
424.32,-1.92,0.00,-1.92,-0.00,0.01,-0.07,-0.73,-1.91,-1.91,-1.92
428.56,-1.92,-0.01,-1.92,-0.01,0.01,-0.09,-0.73,-1.91,-1.92,-1.91
432.85,-1.92,-0.02,-1.91,-0.01,-0.00,-0.13,-0.72,-1.93,-1.92,-1.90
437.18,-1.88,0.01,-1.88,0.01,-0.02,-0.17,-0.71,-1.91,-1.91,-1.89
441.55,-1.84,0.03,-1.84,0.04,-0.05,-0.22,-0.70,-1.89,-1.89,-1.87
445.96,-1.78,0.08,-1.78,0.09,-0.09,-0.27,-0.70,-1.87,-1.86,-1.86
450.42,-1.71,0.14,-1.71,0.14,-0.13,-0.32,-0.69,-1.84,-1.84,-1.85
454.93,-1.64,0.19,-1.65,0.19,-0.18,-0.37,-0.69,-1.82,-1.82,-1.83
