frequency,raw,error,smoothed,error_smoothed,equalization,parametric_eq,equalized_raw,equalized_smoothed,target
20,-6.93,-6.67,-6.77,-6.52,6.00,2.50,-0.93,-0.77,-0.26
21,-6.75,-6.49,-6.75,-6.49,6.00,2.87,-0.75,-0.75,-0.26
22,-6.61,-6.34,-6.73,-6.45,6.00,3.28,-0.61,-0.73,-0.27
23,-6.56,-6.29,-6.70,-6.40,6.00,3.72,-0.56,-0.70,-0.27
24,-6.56,-6.28,-6.66,-6.35,6.00,4.19,-0.56,-0.66,-0.28
25,-6.56,-6.28,-6.61,-6.29,6.00,4.67,-0.56,-0.61,-0.28
26,-6.56,-6.27,-6.56,-6.23,6.00,5.15,-0.56,-0.56,-0.29
27,-6.56,-6.27,-6.50,-6.16,5.99,5.60,-0.57,-0.51,-0.29
28,-6.52,-6.22,-6.43,-6.08,5.96,6.01,-0.56,-0.47,-0.30
29,-6.48,-6.17,-6.36,-6.00,5.92,6.34,-0.56,-0.44,-0.31
30,-6.39,-6.07,-6.28,-5.91,5.87,6.57,-0.52,-0.41,-0.32
31,-6.31,-5.98,-6.19,-5.80,5.79,6.69,-0.52,-0.40,-0.33
32,-6.19,-5.86,-6.08,-5.69,5.69,6.71,-0.50,-0.39,-0.33
33,-6.02,-5.68,-5.96,-5.57,5.57,6.63,-0.45,-0.39,-0.34
34,-5.83,-5.48,-5.84,-5.45,5.45,6.47,-0.38,-0.39,-0.35
35,-5.64,-5.28,-5.73,-5.33,5.33,6.27,-0.31,-0.40,-0.36
36,-5.46,-5.08,-5.62,-5.22,5.22,6.04,-0.24,-0.40,-0.38
37,-5.35,-4.96,-5.52,-5.11,5.11,5.80,-0.24,-0.41,-0.39
38,-5.31,-4.91,-5.44,-5.02,5.02,5.57,-0.29,-0.42,-0.40
39,-5.31,-4.90,-5.36,-4.94,4.94,5.34,-0.37,-0.43,-0.41
40,-5.31,-4.88,-5.31,-4.86,4.86,5.14,-0.45,-0.44,-0.43
41,-5.31,-4.87,-5.26,-4.79,4.79,4.96,-0.52,-0.46,-0.44
42,-5.31,-4.85,-5.22,-4.73,4.73,4.79,-0.58,-0.48,-0.46
43,-5.26,-4.79,-5.19,-4.68,4.68,4.65,-0.58,-0.50,-0.47
44,-5.22,-4.73,-5.16,-4.63,4.63,4.54,-0.59,-0.52,-0.49
45,-5.18,-4.67,-5.13,-4.59,4.59,4.44,-0.59,-0.54,-0.51
46,-5.11,-4.59,-5.09,-4.54,4.54,4.36,-0.57,-0.56,-0.52
47,-5.05,-4.51,-5.05,-4.48,4.48,4.30,-0.57,-0.57,-0.54
48,-5.00,-4.44,-5.01,-4.42,4.42,4.25,-0.58,-0.59,-0.56
49,-4.94,-4.36,-4.96,-4.36,4.36,4.22,-0.58,-0.60,-0.58
50,-4.87,-4.27,-4.92,-4.30,4.30,4.20,-0.57,-0.61,-0.60
51,-4.84,-4.22,-4.87,-4.25,4.25,4.19,-0.59,-0.62,-0.62
52,-4.83,-4.18,-4.84,-4.20,4.20,4.19,-0.63,-0.64,-0.65
53,-4.79,-4.12,-4.81,-4.15,4.15,4.19,-0.64,-0.66,-0.67
54,-4.79,-4.10,-4.79,-4.10,4.10,4.20,-0.69,-0.69,-0.69
55,-4.79,-4.07,-4.77,-4.06,4.06,4.20,-0.73,-0.71,-0.72
56,-4.79,-4.05,-4.77,-4.02,4.02,4.20,-0.77,-0.74,-0.74
57,-4.76,-3.99,-4.77,-3.99,3.99,4.21,-0.77,-0.77,-0.77
58,-4.74,-3.94,-4.77,-3.97,3.97,4.20,-0.77,-0.80,-0.80
59,-4.74,-3.92,-4.77,-3.94,3.94,4.19,-0.80,-0.83,-0.82
60,-4.76,-3.91,-4.78,-3.91,3.91,4.18,-0.85,-0.86,-0.85
61,-4.79,-3.91,-4.78,-3.89,3.89,4.15,-0.90,-0.89,-0.88
62,-4.79,-3.88,-4.77,-3.86,3.86,4.12,-0.93,-0.92,-0.91
63,-4.81,-3.87,-4.77,-3.83,3.83,4.08,-0.98,-0.95,-0.94
64,-4.81,-3.84,-4.77,-3.79,3.79,4.03,-1.02,-0.98,-0.97
65,-4.79,-3.79,-4.76,-3.76,3.76,3.97,-1.03,-1.01,-1.00
66,-4.77,-3.74,-4.76,-3.72,3.72,3.91,-1.05,-1.04,-1.03
67,-4.74,-3.68,-4.75,-3.68,3.68,3.84,-1.06,-1.07,-1.06
68,-4.72,-3.63,-4.74,-3.64,3.64,3.77,-1.08,-1.11,-1.09
69,-4.70,-3.57,-4.73,-3.59,3.59,3.69,-1.11,-1.14,-1.13
70,-4.70,-3.54,-4.71,-3.54,3.54,3.61,-1.16,-1.17,-1.16
71,-4.70,-3.51,-4.69,-3.50,3.50,3.53,-1.20,-1.20,-1.19
72,-4.70,-3.47,-4.68,-3.45,3.45,3.44,-1.25,-1.23,-1.23
73,-4.66,-3.40,-4.66,-3.40,3.40,3.36,-1.26,-1.26,-1.26
74,-4.66,-3.36,-4.65,-3.35,3.35,3.28,-1.31,-1.30,-1.30
75,-4.66,-3.33,-4.64,-3.31,3.31,3.19,-1.35,-1.33,-1.33
76,-4.61,-3.24,-4.63,-3.26,3.26,3.11,-1.35,-1.37,-1.37
77,-4.61,-3.21,-4.63,-3.22,3.22,3.04,-1.39,-1.41,-1.40
78,-4.61,-3.17,-4.62,-3.18,3.18,2.96,-1.43,-1.44,-1.44
79,-4.61,-3.13,-4.62,-3.14,3.14,2.89,-1.47,-1.48,-1.48
80,-4.61,-3.10,-4.61,-3.10,3.10,2.81,-1.51,-1.51,-1.51
81,-4.61,-3.06,-4.61,-3.06,3.06,2.75,-1.55,-1.55,-1.55
82,-4.61,-3.03,-4.61,-3.02,3.02,2.68,-1.59,-1.59,-1.58
83,-4.61,-2.99,-4.61,-2.98,2.98,2.62,-1.63,-1.62,-1.62
84,-4.61,-2.95,-4.60,-2.94,2.94,2.56,-1.67,-1.66,-1.66
85,-4.61,-2.92,-4.60,-2.90,2.90,2.51,-1.71,-1.70,-1.69
86,-4.61,-2.88,-4.60,-2.86,2.86,2.45,-1.75,-1.74,-1.73
87,-4.61,-2.84,-4.59,-2.82,2.82,2.40,-1.79,-1.77,-1.77
88,-4.57,-2.77,-4.58,-2.78,2.78,2.36,-1.79,-1.81,-1.80
89,-4.57,-2.73,-4.57,-2.73,2.73,2.31,-1.84,-1.84,-1.84
90,-4.57,-2.70,-4.57,-2.69,2.69,2.27,-1.88,-1.88,-1.87
91,-4.57,-2.66,-4.56,-2.65,2.65,2.23,-1.92,-1.91,-1.91
92,-4.53,-2.59,-4.55,-2.61,2.61,2.20,-1.92,-1.94,-1.94
93,-4.53,-2.55,-4.54,-2.56,2.56,2.16,-1.97,-1.98,-1.98
94,-4.53,-2.51,-4.54,-2.52,2.52,2.13,-2.01,-2.01,-2.02
95,-4.53,-2.48,-4.53,-2.48,2.48,2.10,-2.05,-2.05,-2.05
96,-4.53,-2.44,-4.53,-2.45,2.45,2.07,-2.08,-2.09,-2.09
97,-4.53,-2.41,-4.53,-2.41,2.41,2.05,-2.12,-2.12,-2.12
98,-4.53,-2.38,-4.53,-2.37,2.37,2.02,-2.16,-2.16,-2.15
99,-4.53,-2.34,-4.53,-2.33,2.33,2.00,-2.20,-2.20,-2.19
100,-4.53,-2.31,-4.53,-2.29,2.29,1.98,-2.24,-2.23,-2.22
101,-4.53,-2.28,-4.52,-2.25,2.25,1.96,-2.28,-2.27,-2.25
102,-4.53,-2.24,-4.52,-2.22,2.22,1.94,-2.31,-2.31,-2.29
104,-4.53,-2.18,-4.52,-2.18,2.18,1.91,-2.35,-2.34,-2.35
105,-4.53,-2.15,-4.51,-2.14,2.14,1.90,-2.39,-2.38,-2.38
106,-4.51,-2.10,-4.51,-2.10,2.10,1.88,-2.41,-2.41,-2.41
107,-4.48,-2.03,-4.50,-2.06,2.06,1.87,-2.42,-2.44,-2.45
108,-4.48,-2.00,-4.49,-2.02,2.02,1.86,-2.46,-2.48,-2.48
109,-4.48,-1.97,-4.49,-1.98,1.98,1.84,-2.50,-2.51,-2.51
110,-4.48,-1.94,-4.48,-1.94,1.94,1.83,-2.54,-2.54,-2.54
111,-4.48,-1.91,-4.47,-1.90,1.90,1.82,-2.58,-2.57,-2.57
112,-4.48,-1.89,-4.46,-1.86,1.86,1.81,-2.62,-2.60,-2.59
113,-4.46,-1.84,-4.46,-1.83,1.83,1.80,-2.63,-2.63,-2.62
114,-4.44,-1.79,-4.45,-1.79,1.79,1.78,-2.65,-2.66,-2.65
115,-4.44,-1.76,-4.45,-1.75,1.75,1.77,-2.69,-2.69,-2.68
117,-4.44,-1.71,-4.45,-1.72,1.72,1.75,-2.72,-2.73,-2.73
118,-4.44,-1.68,-4.45,-1.69,1.69,1.73,-2.75,-2.76,-2.76
119,-4.43,-1.65,-4.44,-1.65,1.65,1.72,-2.78,-2.79,-2.78
120,-4.43,-1.62,-4.44,-1.62,1.62,1.71,-2.81,-2.82,-2.81
121,-4.44,-1.60,-4.43,-1.59,1.59,1.69,-2.85,-2.85,-2.84
123,-4.44,-1.56,-4.43,-1.55,1.55,1.67,-2.89,-2.88,-2.88
124,-4.44,-1.53,-4.43,-1.52,1.52,1.65,-2.92,-2.90,-2.91
125,-4.44,-1.51,-4.42,-1.49,1.49,1.63,-2.95,-2.94,-2.93
126,-4.44,-1.49,-4.42,-1.46,1.46,1.62,-2.98,-2.97,-2.95
128,-4.40,-1.40,-4.42,-1.43,1.43,1.58,-2.97,-2.99,-3.00
129,-4.40,-1.38,-4.42,-1.39,1.39,1.57,-3.01,-3.02,-3.02
130,-4.40,-1.36,-4.41,-1.36,1.36,1.55,-3.04,-3.05,-3.04
131,-4.40,-1.34,-4.41,-1.33,1.33,1.53,-3.07,-3.08,-3.06
133,-4.40,-1.30,-4.40,-1.30,1.30,1.49,-3.10,-3.10,-3.10
134,-4.40,-1.28,-4.39,-1.27,1.27,1.47,-3.13,-3.13,-3.12
135,-4.40,-1.26,-4.39,-1.23,1.23,1.45,-3.17,-3.15,-3.14
137,-4.40,-1.22,-4.38,-1.20,1.20,1.41,-3.20,-3.18,-3.18
138,-4.38,-1.18,-4.37,-1.17,1.17,1.39,-3.21,-3.20,-3.20
140,-4.37,-1.14,-4.37,-1.14,1.14,1.35,-3.23,-3.23,-3.23
141,-4.35,-1.10,-4.37,-1.11,1.11,1.33,-3.24,-3.25,-3.25
142,-4.35,-1.08,-4.36,-1.09,1.09,1.31,-3.26,-3.28,-3.27
144,-4.35,-1.05,-4.36,-1.06,1.06,1.26,-3.29,-3.30,-3.30
145,-4.35,-1.03,-4.35,-1.03,1.03,1.24,-3.32,-3.32,-3.32
147,-4.35,-1.00,-4.35,-1.01,1.01,1.20,-3.34,-3.34,-3.35
148,-4.35,-0.99,-4.35,-0.98,0.98,1.18,-3.37,-3.36,-3.36
150,-4.35,-0.96,-4.35,-0.96,0.96,1.14,-3.39,-3.39,-3.39
151,-4.35,-0.95,-4.35,-0.94,0.94,1.12,-3.41,-3.41,-3.41
153,-4.35,-0.92,-4.35,-0.92,0.92,1.08,-3.43,-3.43,-3.43
154,-4.35,-0.90,-4.35,-0.90,0.90,1.06,-3.45,-3.45,-3.45
156,-4.35,-0.88,-4.35,-0.88,0.88,1.02,-3.47,-3.47,-3.47
157,-4.35,-0.87,-4.35,-0.86,0.86,1.00,-3.49,-3.49,-3.48
159,-4.35,-0.84,-4.34,-0.83,0.83,0.96,-3.52,-3.51,-3.51
160,-4.35,-0.83,-4.34,-0.81,0.81,0.94,-3.54,-3.53,-3.52
162,-4.35,-0.81,-4.34,-0.79,0.79,0.91,-3.56,-3.55,-3.54
164,-4.33,-0.77,-4.33,-0.77,0.77,0.87,-3.56,-3.56,-3.56
165,-4.31,-0.74,-4.33,-0.75,0.75,0.86,-3.56,-3.58,-3.57
167,-4.31,-0.71,-4.32,-0.73,0.73,0.82,-3.58,-3.60,-3.60
169,-4.31,-0.69,-4.32,-0.70,0.70,0.79,-3.61,-3.61,-3.62
170,-4.31,-0.69,-4.31,-0.68,0.68,0.77,-3.63,-3.63,-3.62
172,-4.31,-0.67,-4.31,-0.66,0.66,0.74,-3.65,-3.65,-3.64
174,-4.31,-0.65,-4.30,-0.64,0.64,0.71,-3.67,-3.66,-3.66
175,-4.31,-0.64,-4.30,-0.62,0.62,0.70,-3.69,-3.67,-3.67
177,-4.30,-0.61,-4.29,-0.61,0.61,0.67,-3.69,-3.69,-3.69
179,-4.29,-0.59,-4.29,-0.59,0.59,0.64,-3.70,-3.70,-3.70
181,-4.29,-0.57,-4.29,-0.57,0.57,0.62,-3.72,-3.72,-3.72
183,-4.28,-0.55,-4.29,-0.55,0.55,0.59,-3.73,-3.74,-3.73
184,-4.27,-0.53,-4.28,-0.53,0.53,0.58,-3.74,-3.75,-3.74
186,-4.27,-0.52,-4.28,-0.52,0.52,0.55,-3.75,-3.76,-3.75
188,-4.27,-0.50,-4.27,-0.50,0.50,0.53,-3.77,-3.77,-3.77
190,-4.27,-0.49,-4.27,-0.48,0.48,0.51,-3.79,-3.78,-3.78
192,-4.27,-0.48,-4.26,-0.46,0.46,0.48,-3.81,-3.80,-3.79
194,-4.27,-0.46,-4.25,-0.45,0.45,0.46,-3.82,-3.81,-3.81
196,-4.27,-0.45,-4.25,-0.43,0.43,0.44,-3.84,-3.82,-3.82
198,-4.24,-0.41,-4.24,-0.41,0.41,0.42,-3.83,-3.83,-3.83
200,-4.22,-0.38,-4.24,-0.40,0.40,0.40,-3.82,-3.84,-3.84
202,-4.22,-0.37,-4.23,-0.38,0.38,0.38,-3.84,-3.85,-3.85
204,-4.22,-0.36,-4.23,-0.37,0.37,0.37,-3.85,-3.86,-3.86
206,-4.22,-0.35,-4.23,-0.35,0.35,0.35,-3.87,-3.87,-3.87
208,-4.22,-0.34,-4.22,-0.34,0.34,0.33,-3.88,-3.88,-3.88
210,-4.22,-0.33,-4.22,-0.33,0.33,0.32,-3.89,-3.89,-3.89
212,-4.22,-0.32,-4.22,-0.32,0.32,0.30,-3.90,-3.90,-3.90
214,-4.22,-0.31,-4.22,-0.31,0.31,0.28,-3.91,-3.91,-3.91
216,-4.22,-0.30,-4.22,-0.30,0.30,0.27,-3.92,-3.92,-3.92
218,-4.22,-0.30,-4.22,-0.29,0.29,0.26,-3.93,-3.93,-3.92
221,-4.22,-0.29,-4.22,-0.28,0.28,0.24,-3.94,-3.93,-3.93
223,-4.22,-0.28,-4.21,-0.27,0.27,0.23,-3.95,-3.94,-3.94
225,-4.20,-0.26,-4.21,-0.27,0.27,0.21,-3.93,-3.95,-3.94
227,-4.20,-0.25,-4.21,-0.26,0.26,0.20,-3.94,-3.95,-3.95
229,-4.20,-0.25,-4.20,-0.25,0.25,0.19,-3.95,-3.95,-3.95
232,-4.20,-0.25,-4.20,-0.25,0.25,0.18,-3.95,-3.95,-3.95
234,-4.20,-0.25,-4.19,-0.24,0.24,0.17,-3.96,-3.95,-3.95
236,-4.18,-0.24,-4.18,-0.23,0.23,0.16,-3.95,-3.95,-3.94
239,-4.18,-0.24,-4.17,-0.23,0.23,0.15,-3.95,-3.94,-3.94
241,-4.17,-0.24,-4.15,-0.22,0.22,0.15,-3.95,-3.93,-3.93
244,-4.14,-0.21,-4.14,-0.21,0.21,0.14,-3.93,-3.93,-3.93
246,-4.13,-0.21,-4.12,-0.20,0.20,0.13,-3.93,-3.92,-3.92
248,-4.09,-0.18,-4.11,-0.19,0.19,0.13,-3.90,-3.91,-3.91
251,-4.09,-0.19,-4.09,-0.18,0.18,0.12,-3.91,-3.90,-3.90
253,-4.06,-0.17,-4.07,-0.18,0.18,0.12,-3.88,-3.89,-3.89
256,-4.05,-0.17,-4.05,-0.17,0.17,0.12,-3.88,-3.88,-3.88
259,-4.03,-0.16,-4.04,-0.16,0.16,0.11,-3.87,-3.88,-3.87
261,-4.01,-0.15,-4.02,-0.15,0.15,0.11,-3.86,-3.87,-3.86
264,-4.01,-0.16,-4.00,-0.15,0.15,0.11,-3.86,-3.85,-3.85
266,-4.01,-0.17,-3.99,-0.15,0.15,0.11,-3.86,-3.84,-3.84
269,-3.96,-0.12,-3.98,-0.15,0.15,0.12,-3.82,-3.83,-3.84
272,-3.96,-0.13,-3.97,-0.15,0.15,0.12,-3.81,-3.82,-3.83
274,-3.96,-0.15,-3.96,-0.15,0.15,0.12,-3.81,-3.81,-3.81
277,-3.96,-0.16,-3.95,-0.15,0.15,0.12,-3.81,-3.80,-3.80
280,-3.94,-0.16,-3.94,-0.16,0.16,0.13,-3.78,-3.78,-3.78
283,-3.92,-0.15,-3.93,-0.17,0.17,0.13,-3.75,-3.76,-3.77
286,-3.92,-0.17,-3.93,-0.18,0.18,0.14,-3.74,-3.75,-3.75
288,-3.92,-0.19,-3.92,-0.19,0.19,0.14,-3.73,-3.73,-3.73
291,-3.92,-0.21,-3.91,-0.20,0.20,0.15,-3.72,-3.71,-3.71
294,-3.92,-0.23,-3.91,-0.21,0.21,0.16,-3.71,-3.69,-3.69
297,-3.90,-0.23,-3.90,-0.23,0.23,0.16,-3.67,-3.67,-3.67
300,-3.88,-0.23,-3.89,-0.24,0.24,0.17,-3.64,-3.66,-3.65
303,-3.88,-0.25,-3.88,-0.25,0.25,0.18,-3.63,-3.64,-3.63
306,-3.88,-0.27,-3.88,-0.26,0.26,0.19,-3.62,-3.62,-3.61
309,-3.88,-0.29,-3.87,-0.27,0.27,0.20,-3.61,-3.60,-3.59
312,-3.88,-0.30,-3.86,-0.28,0.28,0.21,-3.60,-3.58,-3.58
316,-3.83,-0.27,-3.85,-0.29,0.29,0.22,-3.54,-3.56,-3.56
319,-3.83,-0.29,-3.84,-0.30,0.30,0.23,-3.53,-3.54,-3.54
322,-3.83,-0.30,-3.83,-0.31,0.31,0.24,-3.52,-3.52,-3.53
325,-3.83,-0.32,-3.82,-0.32,0.32,0.25,-3.51,-3.51,-3.51
328,-3.81,-0.32,-3.81,-0.33,0.33,0.26,-3.48,-3.49,-3.49
332,-3.79,-0.32,-3.80,-0.34,0.34,0.28,-3.45,-3.47,-3.47
335,-3.79,-0.34,-3.79,-0.34,0.34,0.29,-3.45,-3.45,-3.45
338,-3.79,-0.36,-3.78,-0.35,0.35,0.30,-3.44,-3.43,-3.43
342,-3.79,-0.38,-3.77,-0.36,0.36,0.31,-3.43,-3.41,-3.41
345,-3.75,-0.37,-3.76,-0.37,0.37,0.33,-3.38,-3.39,-3.38
349,-3.75,-0.39,-3.75,-0.38,0.38,0.34,-3.37,-3.37,-3.36
352,-3.75,-0.41,-3.74,-0.39,0.39,0.35,-3.36,-3.35,-3.34
356,-3.72,-0.39,-3.72,-0.39,0.39,0.37,-3.33,-3.33,-3.33
359,-3.70,-0.39,-3.71,-0.40,0.40,0.38,-3.30,-3.31,-3.31
363,-3.70,-0.41,-3.70,-0.41,0.41,0.40,-3.29,-3.30,-3.29
366,-3.70,-0.42,-3.69,-0.41,0.41,0.41,-3.29,-3.28,-3.28
370,-3.66,-0.39,-3.68,-0.41,0.41,0.43,-3.25,-3.27,-3.27
374,-3.66,-0.41,-3.67,-0.41,0.41,0.44,-3.25,-3.25,-3.25
377,-3.66,-0.42,-3.66,-0.42,0.42,0.46,-3.24,-3.24,-3.24
381,-3.66,-0.43,-3.65,-0.42,0.42,0.47,-3.24,-3.23,-3.23
385,-3.65,-0.43,-3.63,-0.41,0.41,0.49,-3.24,-3.22,-3.22
389,-3.62,-0.41,-3.62,-0.41,0.41,0.51,-3.21,-3.21,-3.21
393,-3.62,-0.42,-3.61,-0.41,0.41,0.52,-3.21,-3.20,-3.20
397,-3.59,-0.40,-3.60,-0.41,0.41,0.54,-3.18,-3.19,-3.19
401,-3.57,-0.39,-3.59,-0.40,0.40,0.55,-3.17,-3.19,-3.18
405,-3.57,-0.39,-3.58,-0.40,0.40,0.57,-3.17,-3.18,-3.18
409,-3.57,-0.40,-3.57,-0.39,0.39,0.58,-3.18,-3.18,-3.17
413,-3.57,-0.40,-3.55,-0.38,0.38,0.60,-3.19,-3.17,-3.17
417,-3.53,-0.36,-3.54,-0.37,0.37,0.61,-3.16,-3.17,-3.17
421,-3.53,-0.37,-3.53,-0.37,0.37,0.63,-3.16,-3.16,-3.16
425,-3.53,-0.37,-3.52,-0.36,0.36,0.64,-3.17,-3.16,-3.16
430,-3.50,-0.34,-3.50,-0.35,0.35,0.66,-3.15,-3.15,-3.16
434,-3.49,-0.34,-3.49,-0.34,0.34,0.67,-3.15,-3.15,-3.15
438,-3.49,-0.35,-3.48,-0.34,0.34,0.68,-3.15,-3.14,-3.14
443,-3.45,-0.31,-3.46,-0.33,0.33,0.69,-3.12,-3.13,-3.14
447,-3.44,-0.31,-3.45,-0.32,0.32,0.70,-3.12,-3.12,-3.13
451,-3.44,-0.32,-3.43,-0.32,0.32,0.70,-3.12,-3.11,-3.12
456,-3.41,-0.31,-3.42,-0.32,0.32,0.71,-3.09,-3.10,-3.10
460,-3.40,-0.31,-3.40,-0.31,0.31,0.71,-3.09,-3.09,-3.09
465,-3.39,-0.31,-3.39,-0.31,0.31,0.72,-3.08,-3.08,-3.08
470,-3.36,-0.30,-3.37,-0.31,0.31,0.72,-3.05,-3.07,-3.06
474,-3.36,-0.31,-3.36,-0.31,0.31,0.72,-3.05,-3.05,-3.05
479,-3.36,-0.33,-3.34,-0.30,0.30,0.71,-3.06,-3.04,-3.03
484,-3.32,-0.30,-3.33,-0.30,0.30,0.71,-3.02,-3.03,-3.02
489,-3.31,-0.30,-3.31,-0.30,0.30,0.70,-3.01,-3.01,-3.01
494,-3.31,-0.31,-3.30,-0.30,0.30,0.69,-3.01,-3.00,-3.00
499,-3.27,-0.29,-3.28,-0.29,0.29,0.67,-2.98,-2.98,-2.98
504,-3.27,-0.30,-3.26,-0.29,0.29,0.66,-2.98,-2.97,-2.97
509,-3.23,-0.27,-3.24,-0.29,0.29,0.64,-2.94,-2.95,-2.96
514,-3.23,-0.29,-3.23,-0.29,0.29,0.62,-2.94,-2.94,-2.94
519,-3.19,-0.27,-3.21,-0.29,0.29,0.60,-2.90,-2.92,-2.92
524,-3.18,-0.28,-3.19,-0.28,0.28,0.58,-2.90,-2.90,-2.90
529,-3.18,-0.30,-3.16,-0.28,0.28,0.55,-2.90,-2.88,-2.88
535,-3.14,-0.28,-3.14,-0.28,0.28,0.52,-2.86,-2.86,-2.86
540,-3.12,-0.28,-3.12,-0.28,0.28,0.49,-2.84,-2.84,-2.84
545,-3.10,-0.28,-3.09,-0.27,0.27,0.46,-2.83,-2.82,-2.82
551,-3.06,-0.27,-3.06,-0.27,0.27,0.42,-2.79,-2.80,-2.79
556,-3.05,-0.28,-3.03,-0.26,0.26,0.39,-2.79,-2.77,-2.77
562,-3.01,-0.26,-3.00,-0.25,0.25,0.34,-2.76,-2.75,-2.75
568,-2.97,-0.25,-2.97,-0.24,0.24,0.30,-2.73,-2.73,-2.72
573,-2.94,-0.24,-2.94,-0.23,0.23,0.26,-2.71,-2.71,-2.70
579,-2.90,-0.22,-2.90,-0.22,0.22,0.22,-2.68,-2.69,-2.68
585,-2.86,-0.20,-2.87,-0.20,0.20,0.17,-2.66,-2.67,-2.66
591,-2.82,-0.17,-2.84,-0.18,0.18,0.13,-2.64,-2.65,-2.65
596,-2.80,-0.17,-2.80,-0.17,0.17,0.09,-2.63,-2.63,-2.63
602,-2.75,-0.13,-2.77,-0.15,0.15,0.04,-2.60,-2.62,-2.62
608,-2.74,-0.14,-2.74,-0.13,0.13,-0.01,-2.61,-2.61,-2.60
615,-2.71,-0.12,-2.71,-0.11,0.11,-0.07,-2.60,-2.59,-2.59
621,-2.67,-0.09,-2.68,-0.10,0.10,-0.12,-2.57,-2.58,-2.58
627,-2.65,-0.08,-2.64,-0.08,0.08,-0.17,-2.57,-2.56,-2.57
633,-2.62,-0.07,-2.60,-0.06,0.06,-0.22,-2.56,-2.55,-2.55
639,-2.59,-0.05,-2.57,-0.04,0.04,-0.27,-2.55,-2.53,-2.54
646,-2.56,-0.04,-2.54,-0.02,0.02,-0.33,-2.54,-2.52,-2.52
652,-2.51,-0.00,-2.51,0.00,-0.00,-0.38,-2.51,-2.51,-2.51
659,-2.47,0.02,-2.47,0.02,-0.02,-0.44,-2.49,-2.50,-2.49
665,-2.43,0.05,-2.44,0.04,-0.04,-0.49,-2.47,-2.49,-2.48
672,-2.37,0.10,-2.41,0.07,-0.07,-0.55,-2.44,-2.48,-2.47
679,-2.32,0.13,-2.38,0.09,-0.09,-0.61,-2.41,-2.47,-2.45
686,-2.32,0.12,-2.34,0.11,-0.11,-0.67,-2.43,-2.46,-2.44
692,-2.32,0.11,-2.31,0.14,-0.14,-0.72,-2.46,-2.45,-2.43
699,-2.32,0.11,-2.27,0.17,-0.17,-0.78,-2.49,-2.44,-2.43
706,-2.27,0.15,-2.23,0.20,-0.20,-0.84,-2.47,-2.43,-2.42
713,-2.23,0.18,-2.19,0.23,-0.23,-0.90,-2.46,-2.42,-2.41
721,-2.16,0.25,-2.15,0.27,-0.27,-0.97,-2.43,-2.42,-2.41
728,-2.10,0.31,-2.11,0.30,-0.30,-1.03,-2.40,-2.41,-2.41
735,-2.04,0.36,-2.07,0.34,-0.34,-1.09,-2.38,-2.41,-2.40
742,-1.99,0.41,-2.02,0.38,-0.38,-1.15,-2.37,-2.40,-2.40
750,-1.96,0.43,-1.98,0.42,-0.42,-1.22,-2.38,-2.40,-2.39
757,-1.91,0.47,-1.92,0.46,-0.46,-1.28,-2.37,-2.39,-2.38
765,-1.86,0.52,-1.87,0.51,-0.51,-1.35,-2.37,-2.38,-2.38
773,-1.82,0.55,-1.81,0.55,-0.55,-1.42,-2.37,-2.37,-2.37
780,-1.77,0.59,-1.76,0.60,-0.60,-1.48,-2.37,-2.36,-2.36
788,-1.73,0.62,-1.70,0.65,-0.65,-1.55,-2.38,-2.35,-2.35
796,-1.67,0.67,-1.64,0.71,-0.71,-1.62,-2.38,-2.35,-2.34
804,-1.60,0.73,-1.58,0.76,-0.76,-1.68,-2.36,-2.34,-2.33
812,-1.51,0.81,-1.51,0.82,-0.82,-1.75,-2.33,-2.34,-2.32
820,-1.45,0.87,-1.44,0.89,-0.89,-1.81,-2.34,-2.33,-2.32
828,-1.36,0.95,-1.37,0.95,-0.95,-1.88,-2.31,-2.32,-2.31
837,-1.28,1.03,-1.30,1.02,-1.02,-1.95,-2.30,-2.32,-2.31
845,-1.21,1.10,-1.22,1.09,-1.09,-2.01,-2.30,-2.32,-2.31
853,-1.14,1.17,-1.15,1.16,-1.16,-2.07,-2.30,-2.31,-2.31
862,-1.06,1.25,-1.07,1.24,-1.24,-2.14,-2.30,-2.31,-2.31
871,-1.01,1.30,-1.00,1.31,-1.31,-2.21,-2.32,-2.31,-2.31
879,-0.94,1.37,-0.93,1.38,-1.38,-2.26,-2.32,-2.31,-2.31
888,-0.86,1.45,-0.86,1.45,-1.45,-2.32,-2.31,-2.31,-2.31
897,-0.79,1.52,-0.79,1.52,-1.52,-2.38,-2.31,-2.31,-2.31
906,-0.72,1.59,-0.73,1.58,-1.58,-2.44,-2.30,-2.31,-2.31
915,-0.64,1.67,-0.66,1.65,-1.65,-2.49,-2.29,-2.31,-2.31
924,-0.58,1.73,-0.60,1.71,-1.71,-2.54,-2.29,-2.31,-2.31
933,-0.52,1.78,-0.53,1.77,-1.77,-2.59,-2.29,-2.30,-2.30
943,-0.47,1.82,-0.46,1.83,-1.83,-2.64,-2.30,-2.29,-2.29
952,-0.40,1.88,-0.39,1.89,-1.89,-2.68,-2.29,-2.28,-2.28
962,-0.32,1.95,-0.31,1.96,-1.96,-2.72,-2.28,-2.27,-2.27
971,-0.26,1.99,-0.24,2.02,-2.02,-2.75,-2.28,-2.25,-2.25
981,-0.16,2.08,-0.16,2.08,-2.08,-2.79,-2.24,-2.24,-2.24
991,-0.09,2.13,-0.07,2.14,-2.14,-2.81,-2.23,-2.22,-2.22
1001,0.01,2.20,0.01,2.21,-2.21,-2.84,-2.20,-2.20,-2.19
1011,0.11,2.28,0.10,2.27,-2.27,-2.86,-2.16,-2.17,-2.17
1021,0.19,2.33,0.19,2.34,-2.34,-2.88,-2.15,-2.15,-2.14
1031,0.29,2.41,0.29,2.41,-2.41,-2.89,-2.12,-2.12,-2.12
1041,0.39,2.48,0.38,2.48,-2.48,-2.90,-2.09,-2.10,-2.09
1052,0.50,2.57,0.48,2.55,-2.55,-2.91,-2.05,-2.07,-2.07
1062,0.58,2.62,0.58,2.62,-2.62,-2.92,-2.04,-2.04,-2.04
1073,0.69,2.70,0.67,2.69,-2.69,-2.92,-2.00,-2.01,-2.01
1084,0.77,2.75,0.77,2.76,-2.76,-2.92,-1.99,-1.98,-1.98
1094,0.87,2.82,0.88,2.83,-2.83,-2.92,-1.96,-1.95,-1.95
1105,0.97,2.89,0.98,2.90,-2.90,-2.91,-1.93,-1.92,-1.92
1116,1.07,2.96,1.08,2.97,-2.97,-2.91,-1.90,-1.89,-1.89
1128,1.18,3.04,1.18,3.05,-3.05,-2.90,-1.87,-1.87,-1.86
1139,1.30,3.13,1.29,3.13,-3.13,-2.89,-1.83,-1.84,-1.83
1150,1.41,3.20,1.40,3.21,-3.21,-2.88,-1.80,-1.81,-1.79
1162,1.53,3.28,1.52,3.29,-3.29,-2.87,-1.76,-1.77,-1.75
1173,1.65,3.37,1.65,3.38,-3.38,-2.86,-1.73,-1.73,-1.72
1185,1.78,3.45,1.78,3.47,-3.47,-2.85,-1.69,-1.69,-1.67
1197,1.90,3.53,1.92,3.56,-3.56,-2.84,-1.66,-1.64,-1.63
1209,2.01,3.60,2.06,3.66,-3.66,-2.83,-1.65,-1.60,-1.59
1221,2.18,3.72,2.21,3.76,-3.76,-2.82,-1.58,-1.55,-1.54
1233,2.33,3.82,2.36,3.86,-3.86,-2.81,-1.53,-1.50,-1.49
1246,2.52,3.96,2.51,3.96,-3.96,-2.81,-1.44,-1.44,-1.44
1258,2.69,4.07,2.67,4.06,-4.06,-2.80,-1.37,-1.38,-1.38
1271,2.85,4.18,2.83,4.15,-4.15,-2.80,-1.30,-1.32,-1.33
1283,3.02,4.29,2.99,4.25,-4.25,-2.79,-1.23,-1.26,-1.27
1296,3.15,4.36,3.14,4.34,-4.34,-2.79,-1.19,-1.20,-1.21
1309,3.29,4.43,3.29,4.43,-4.43,-2.79,-1.14,-1.13,-1.14
1322,3.46,4.54,3.44,4.51,-4.51,-2.80,-1.05,-1.07,-1.08
1335,3.60,4.61,3.59,4.60,-4.60,-2.80,-1.00,-1.01,-1.01
1349,3.75,4.69,3.74,4.68,-4.68,-2.81,-0.93,-0.95,-0.94
1362,3.89,4.76,3.88,4.76,-4.76,-2.82,-0.87,-0.89,-0.87
1376,4.00,4.81,4.02,4.84,-4.84,-2.83,-0.84,-0.83,-0.81
1390,4.13,4.87,4.16,4.92,-4.92,-2.84,-0.79,-0.76,-0.74
1404,4.25,4.91,4.31,5.00,-5.00,-2.86,-0.75,-0.69,-0.66
1418,4.40,4.99,4.45,5.07,-5.07,-2.88,-0.67,-0.61,-0.59
1432,4.55,5.07,4.60,5.13,-5.13,-2.90,-0.58,-0.53,-0.52
1446,4.70,5.15,4.74,5.18,-5.18,-2.92,-0.48,-0.44,-0.45
1461,4.84,5.21,4.86,5.21,-5.21,-2.95,-0.37,-0.35,-0.37
1475,4.96,5.26,4.96,5.22,-5.22,-2.97,-0.26,-0.26,-0.30
1490,5.06,5.29,5.04,5.21,-5.21,-3.00,-0.15,-0.17,-0.23
1505,5.17,5.32,5.08,5.19,-5.19,-3.04,-0.02,-0.10,-0.15
1520,5.28,5.36,5.10,5.14,-5.14,-3.07,0.14,-0.04,-0.08
1535,5.31,5.31,5.10,5.08,-5.08,-3.10,0.23,0.02,0.00
1550,5.23,5.14,5.08,5.00,-5.00,-3.14,0.23,0.08,0.09
1566,5.14,4.97,5.04,4.90,-4.90,-3.18,0.24,0.14,0.17
