frequency,raw,error,smoothed,error_smoothed,equalization,parametric_eq,fixed_band_eq,equalized_raw,equalized_smoothed,target
20.00,-4.45,-4.95,-4.45,-4.95,4.96,4.47,0.88,0.51,0.51,0.50
20.20,-4.36,-4.91,-4.36,-4.92,4.92,4.45,0.91,0.56,0.56,0.55
20.40,-4.27,-4.87,-4.28,-4.88,4.88,4.43,0.94,0.61,0.60,0.60
20.61,-4.19,-4.83,-4.19,-4.83,4.83,4.40,0.97,0.63,0.64,0.63
20.81,-4.10,-4.78,-4.10,-4.78,4.77,4.36,1.00,0.67,0.67,0.68
21.02,-4.01,-4.73,-4.01,-4.73,4.72,4.32,1.03,0.71,0.71,0.72
21.23,-3.92,-4.66,-3.92,-4.66,4.65,4.26,1.06,0.73,0.74,0.74
21.44,-3.82,-4.58,-3.82,-4.59,4.59,4.21,1.09,0.77,0.76,0.76
21.66,-3.73,-4.51,-3.73,-4.51,4.51,4.14,1.13,0.78,0.79,0.78
21.87,-3.63,-4.42,-3.63,-4.43,4.43,4.08,1.16,0.80,0.80,0.79
22.09,-3.54,-4.35,-3.54,-4.35,4.35,4.00,1.20,0.81,0.81,0.81
22.31,-3.45,-4.27,-3.45,-4.27,4.26,3.93,1.24,0.81,0.81,0.82
22.54,-3.36,-4.18,-3.36,-4.18,4.18,3.84,1.28,0.81,0.81,0.82
22.76,-3.27,-4.09,-3.27,-4.09,4.09,3.76,1.32,0.82,0.82,0.82
22.99,-3.18,-3.99,-3.18,-3.99,4.00,3.67,1.36,0.82,0.82,0.81
23.22,-3.09,-3.90,-3.09,-3.90,3.91,3.58,1.40,0.82,0.82,0.81
23.45,-3.00,-3.81,-3.00,-3.81,3.82,3.49,1.44,0.82,0.82,0.81
23.69,-2.91,-3.73,-2.91,-3.73,3.73,3.40,1.48,0.82,0.82,0.82
23.92,-2.82,-3.64,-2.82,-3.64,3.64,3.30,1.52,0.82,0.82,0.82
24.16,-2.72,-3.55,-2.72,-3.55,3.54,3.20,1.57,0.82,0.82,0.83
24.40,-2.62,-3.46,-2.62,-3.45,3.44,3.11,1.61,0.82,0.82,0.84
24.65,-2.52,-3.35,-2.52,-3.35,3.34,3.01,1.66,0.81,0.81,0.83
24.89,-2.42,-3.25,-2.42,-3.25,3.23,2.91,1.70,0.81,0.81,0.83
25.14,-2.31,-3.14,-2.31,-3.14,3.12,2.82,1.74,0.81,0.81,0.83
25.39,-2.19,-3.02,-2.19,-3.02,3.02,2.72,1.79,0.83,0.83,0.84
25.65,-2.07,-2.91,-2.07,-2.90,2.93,2.62,1.83,0.86,0.87,0.83
25.91,-1.95,-2.78,-1.97,-2.80,2.85,2.53,1.88,0.90,0.88,0.82
26.16,-1.89,-2.71,-1.90,-2.72,2.78,2.44,1.92,0.88,0.88,0.82
26.43,-1.86,-2.69,-1.86,-2.68,2.70,2.34,1.96,0.84,0.84,0.82
26.69,-1.83,-2.65,-1.84,-2.66,2.62,2.25,2.00,0.79,0.78,0.82
26.96,-1.80,-2.63,-1.78,-2.61,2.53,2.16,2.04,0.73,0.75,0.83
27.23,-1.69,-2.52,-1.69,-2.52,2.45,2.07,2.08,0.76,0.76,0.83
27.50,-1.55,-2.38,-1.55,-2.38,2.36,1.98,2.12,0.81,0.81,0.83
27.77,-1.41,-2.23,-1.42,-2.24,2.27,1.90,2.15,0.86,0.85,0.82
28.05,-1.29,-2.11,-1.31,-2.12,2.18,1.81,2.18,0.89,0.87,0.82
28.33,-1.23,-2.04,-1.23,-2.04,2.08,1.73,2.21,0.85,0.86,0.81
28.62,-1.17,-1.98,-1.17,-1.98,2.00,1.65,2.23,0.82,0.83,0.81
28.90,-1.11,-1.93,-1.11,-1.92,1.92,1.57,2.25,0.81,0.81,0.82
29.19,-1.05,-1.86,-1.05,-1.86,1.85,1.49,2.27,0.80,0.80,0.81
29.48,-0.98,-1.81,-0.99,-1.80,1.79,1.41,2.28,0.80,0.80,0.82
29.78,-0.92,-1.74,-0.92,-1.74,1.72,1.33,2.29,0.80,0.80,0.81
30.08,-0.85,-1.68,-0.85,-1.67,1.65,1.26,2.29,0.80,0.80,0.82
30.38,-0.76,-1.57,-0.76,-1.58,1.57,1.18,2.29,0.81,0.81,0.81
30.68,-0.67,-1.48,-0.67,-1.48,1.48,1.11,2.29,0.81,0.81,0.81
30.99,-0.57,-1.38,-0.58,-1.39,1.40,1.04,2.28,0.82,0.82,0.81
31.30,-0.49,-1.30,-0.49,-1.30,1.30,0.97,2.26,0.81,0.81,0.81
31.61,-0.40,-1.21,-0.40,-1.21,1.21,0.90,2.24,0.81,0.81,0.81
31.93,-0.32,-1.13,-0.32,-1.12,1.12,0.83,2.21,0.80,0.80,0.81
32.24,-0.23,-1.02,-0.23,-1.03,1.03,0.77,2.18,0.80,0.80,0.79
32.57,-0.15,-0.95,-0.15,-0.95,0.95,0.70,2.15,0.80,0.80,0.80
32.89,-0.06,-0.86,-0.07,-0.86,0.87,0.64,2.11,0.81,0.80,0.80
33.22,0.01,-0.78,0.01,-0.78,0.79,0.57,2.06,0.80,0.80,0.79
33.55,0.08,-0.71,0.08,-0.71,0.71,0.51,2.01,0.79,0.79,0.79
33.89,0.15,-0.63,0.15,-0.64,0.64,0.45,1.96,0.79,0.79,0.78
34.23,0.21,-0.58,0.21,-0.57,0.57,0.39,1.90,0.77,0.78,0.78
34.57,0.28,-0.49,0.27,-0.50,0.49,0.33,1.84,0.77,0.77,0.77
34.92,0.34,-0.43,0.34,-0.43,0.42,0.27,1.77,0.76,0.77,0.77
35.27,0.42,-0.35,0.42,-0.35,0.35,0.21,1.70,0.77,0.77,0.77
35.62,0.50,-0.27,0.50,-0.27,0.27,0.15,1.63,0.76,0.76,0.77
35.97,0.58,-0.19,0.57,-0.19,0.18,0.09,1.56,0.76,0.76,0.77
36.33,0.65,-0.12,0.65,-0.12,0.10,0.03,1.48,0.75,0.74,0.77
36.70,0.72,-0.04,0.72,-0.04,0.02,-0.02,1.41,0.74,0.75,0.76
37.06,0.80,0.04,0.81,0.05,-0.04,-0.08,1.33,0.76,0.78,0.76
37.43,0.90,0.12,0.91,0.14,-0.08,-0.14,1.24,0.82,0.83,0.78
37.81,1.00,0.23,0.98,0.21,-0.12,-0.19,1.16,0.87,0.85,0.77
38.19,1.02,0.25,0.99,0.21,-0.17,-0.25,1.08,0.85,0.82,0.77
38.57,0.97,0.19,0.97,0.19,-0.22,-0.30,0.99,0.74,0.75,0.78
38.95,0.92,0.13,0.97,0.19,-0.28,-0.36,0.91,0.64,0.69,0.78
39.34,1.02,0.24,1.02,0.24,-0.34,-0.41,0.82,0.68,0.68,0.78
39.74,1.15,0.37,1.13,0.35,-0.40,-0.47,0.73,0.75,0.74,0.78
40.14,1.28,0.49,1.28,0.50,-0.46,-0.52,0.64,0.82,0.82,0.79
40.54,1.39,0.61,1.39,0.61,-0.52,-0.58,0.55,0.87,0.87,0.78
40.94,1.49,0.71,1.46,0.68,-0.59,-0.63,0.46,0.90,0.87,0.78
41.35,1.48,0.70,1.47,0.69,-0.66,-0.68,0.37,0.82,0.81,0.78
41.76,1.45,0.68,1.47,0.70,-0.73,-0.74,0.28,0.72,0.74,0.77
42.18,1.47,0.69,1.49,0.72,-0.79,-0.79,0.19,0.68,0.70,0.78
42.60,1.57,0.81,1.56,0.79,-0.85,-0.85,0.10,0.72,0.71,0.76
43.03,1.67,0.91,1.65,0.89,-0.91,-0.90,0.01,0.76,0.75,0.76
43.46,1.74,0.98,1.74,0.99,-0.97,-0.95,-0.08,0.77,0.77,0.75
43.90,1.81,1.08,1.81,1.07,-1.05,-1.01,-0.17,0.76,0.76,0.73
44.33,1.86,1.14,1.86,1.14,-1.13,-1.06,-0.26,0.73,0.73,0.72
44.78,1.91,1.21,1.91,1.20,-1.20,-1.11,-0.35,0.71,0.71,0.70
45.23,1.95,1.25,1.95,1.26,-1.27,-1.17,-0.44,0.68,0.69,0.70
45.68,2.00,1.32,2.00,1.32,-1.32,-1.22,-0.54,0.68,0.68,0.68
46.13,2.04,1.37,2.05,1.37,-1.36,-1.28,-0.63,0.68,0.69,0.67
46.60,2.09,1.42,2.09,1.43,-1.40,-1.33,-0.72,0.69,0.69,0.67
47.06,2.13,1.48,2.11,1.45,-1.44,-1.38,-0.81,0.69,0.67,0.65
47.53,2.12,1.47,2.12,1.47,-1.48,-1.44,-0.90,0.64,0.64,0.65
48.01,2.11,1.46,2.14,1.50,-1.53,-1.49,-1.00,0.58,0.61,0.65
48.49,2.18,1.54,2.18,1.54,-1.58,-1.55,-1.09,0.60,0.60,0.63
48.97,2.25,1.63,2.23,1.61,-1.63,-1.60,-1.18,0.62,0.60,0.62
49.46,2.29,1.69,2.29,1.69,-1.68,-1.66,-1.27,0.61,0.61,0.60
49.96,2.34,1.76,2.34,1.75,-1.74,-1.71,-1.36,0.60,0.61,0.58
50.46,2.39,1.80,2.39,1.81,-1.79,-1.76,-1.46,0.60,0.60,0.59
50.96,2.44,1.86,2.42,1.85,-1.84,-1.82,-1.55,0.60,0.58,0.58
51.47,2.45,1.89,2.45,1.89,-1.88,-1.87,-1.64,0.56,0.56,0.56
51.99,2.46,1.91,2.48,1.93,-1.92,-1.93,-1.73,0.54,0.56,0.55
52.51,2.51,1.96,2.51,1.96,-1.95,-1.98,-1.82,0.56,0.56,0.55
53.03,2.56,2.01,2.52,1.97,-1.98,-2.03,-1.90,0.58,0.54,0.55
53.56,2.53,1.98,2.54,1.99,-2.00,-2.09,-1.99,0.53,0.54,0.54
54.10,2.52,1.98,2.55,2.02,-2.02,-2.14,-2.08,0.50,0.53,0.53
54.64,2.59,2.06,2.58,2.05,-2.05,-2.19,-2.16,0.54,0.53,0.52
55.18,2.63,2.11,2.61,2.09,-2.08,-2.24,-2.24,0.55,0.53,0.52
55.74,2.63,2.12,2.62,2.11,-2.11,-2.29,-2.32,0.51,0.51,0.51
56.29,2.63,2.12,2.62,2.11,-2.15,-2.34,-2.40,0.47,0.47,0.51
56.86,2.62,2.12,2.66,2.16,-2.20,-2.39,-2.47,0.42,0.46,0.50
57.42,2.71,2.23,2.72,2.24,-2.24,-2.44,-2.54,0.47,0.48,0.48
58.00,2.84,2.36,2.79,2.31,-2.28,-2.49,-2.61,0.56,0.51,0.48
58.58,2.83,2.36,2.83,2.36,-2.32,-2.54,-2.67,0.51,0.52,0.47
59.16,2.82,2.36,2.83,2.37,-2.35,-2.58,-2.73,0.47,0.48,0.46
59.76,2.82,2.37,2.82,2.38,-2.39,-2.63,-2.79,0.43,0.43,0.45
60.35,2.82,2.41,2.82,2.40,-2.42,-2.67,-2.84,0.40,0.40,0.41
60.96,2.82,2.43,2.82,2.43,-2.45,-2.71,-2.89,0.37,0.37,0.39
61.57,2.82,2.47,2.82,2.47,-2.47,-2.76,-2.94,0.34,0.34,0.35
62.18,2.82,2.50,2.82,2.50,-2.50,-2.80,-2.98,0.32,0.32,0.32
62.80,2.82,2.54,2.82,2.54,-2.53,-2.83,-3.01,0.29,0.29,0.28
63.43,2.82,2.57,2.82,2.58,-2.57,-2.87,-3.04,0.25,0.25,0.24
64.07,2.82,2.61,2.82,2.61,-2.61,-2.91,-3.07,0.21,0.21,0.21
64.71,2.82,2.65,2.82,2.65,-2.65,-2.94,-3.10,0.17,0.17,0.17
65.35,2.82,2.68,2.82,2.68,-2.69,-2.97,-3.12,0.13,0.13,0.14
66.01,2.82,2.72,2.82,2.72,-2.72,-3.00,-3.13,0.09,0.09,0.10
66.67,2.82,2.75,2.83,2.76,-2.75,-3.03,-3.14,0.06,0.07,0.06
67.33,2.83,2.80,2.83,2.80,-2.78,-3.06,-3.15,0.05,0.05,0.02
68.01,2.84,2.84,2.82,2.83,-2.81,-3.08,-3.16,0.03,0.02,-0.01
68.69,2.80,2.84,2.80,2.85,-2.83,-3.10,-3.16,-0.03,-0.04,-0.05
69.37,2.76,2.85,2.76,2.85,-2.86,-3.12,-3.17,-0.10,-0.10,-0.09
70.07,2.73,2.86,2.74,2.86,-2.89,-3.14,-3.17,-0.16,-0.15,-0.13
70.77,2.73,2.89,2.73,2.89,-2.92,-3.16,-3.17,-0.19,-0.20,-0.16
71.48,2.73,2.93,2.73,2.93,-2.95,-3.17,-3.16,-0.23,-0.23,-0.20
72.19,2.73,2.99,2.73,2.99,-2.98,-3.19,-3.16,-0.25,-0.25,-0.26
72.91,2.73,3.03,2.73,3.03,-3.01,-3.20,-3.15,-0.28,-0.28,-0.30
73.64,2.73,3.08,2.72,3.07,-3.04,-3.21,-3.15,-0.31,-0.31,-0.35
74.38,2.70,3.09,2.69,3.09,-3.06,-3.21,-3.14,-0.36,-0.37,-0.39
75.12,2.65,3.09,2.65,3.09,-3.08,-3.22,-3.14,-0.43,-0.43,-0.44
75.87,2.60,3.08,2.60,3.08,-3.10,-3.22,-3.14,-0.50,-0.50,-0.49
76.63,2.55,3.07,2.55,3.08,-3.12,-3.22,-3.13,-0.57,-0.56,-0.52
77.40,2.53,3.09,2.53,3.10,-3.13,-3.22,-3.13,-0.60,-0.59,-0.56
78.17,2.53,3.14,2.53,3.13,-3.13,-3.22,-3.13,-0.60,-0.60,-0.61
78.95,2.54,3.17,2.53,3.17,-3.14,-3.22,-3.13,-0.60,-0.60,-0.63
79.74,2.53,3.20,2.52,3.18,-3.14,-3.22,-3.13,-0.62,-0.63,-0.67
80.54,2.48,3.18,2.47,3.17,-3.15,-3.21,-3.14,-0.68,-0.68,-0.70
81.35,2.41,3.15,2.42,3.15,-3.16,-3.21,-3.14,-0.76,-0.75,-0.74
82.16,2.36,3.13,2.37,3.13,-3.17,-3.20,-3.15,-0.81,-0.80,-0.77
82.98,2.34,3.13,2.34,3.14,-3.17,-3.20,-3.16,-0.83,-0.83,-0.79
83.81,2.34,3.17,2.34,3.17,-3.17,-3.19,-3.17,-0.83,-0.83,-0.83
84.65,2.34,3.20,2.33,3.19,-3.16,-3.18,-3.19,-0.83,-0.84,-0.87
85.50,2.31,3.20,2.30,3.19,-3.16,-3.17,-3.21,-0.86,-0.86,-0.89
86.35,2.25,3.17,2.25,3.17,-3.17,-3.16,-3.23,-0.92,-0.92,-0.92
87.22,2.20,3.16,2.20,3.16,-3.18,-3.16,-3.25,-0.98,-0.98,-0.96
88.09,2.15,3.14,2.17,3.16,-3.18,-3.15,-3.28,-1.03,-1.01,-0.99
88.97,2.15,3.18,2.14,3.17,-3.18,-3.14,-3.30,-1.03,-1.04,-1.03
89.86,2.15,3.21,2.12,3.18,-3.19,-3.13,-3.33,-1.04,-1.07,-1.06
90.76,2.08,3.18,2.10,3.20,-3.19,-3.13,-3.37,-1.11,-1.09,-1.10
91.66,2.06,3.19,2.07,3.20,-3.20,-3.12,-3.40,-1.14,-1.13,-1.13
92.58,2.06,3.23,2.04,3.20,-3.21,-3.11,-3.44,-1.15,-1.17,-1.17
93.51,2.01,3.21,2.01,3.21,-3.21,-3.11,-3.48,-1.20,-1.19,-1.20
94.44,1.97,3.20,1.98,3.21,-3.20,-3.11,-3.52,-1.23,-1.22,-1.23
95.39,1.95,3.20,1.94,3.20,-3.19,-3.10,-3.57,-1.24,-1.25,-1.26
96.34,1.91,3.20,1.90,3.19,-3.18,-3.10,-3.62,-1.27,-1.28,-1.29
97.30,1.84,3.16,1.84,3.16,-3.17,-3.11,-3.66,-1.33,-1.33,-1.32
98.28,1.77,3.12,1.78,3.13,-3.15,-3.11,-3.72,-1.39,-1.37,-1.35
99.26,1.74,3.12,1.74,3.12,-3.14,-3.11,-3.77,-1.40,-1.40,-1.38
100.25,1.72,3.13,1.72,3.13,-3.12,-3.12,-3.82,-1.40,-1.41,-1.41
101.25,1.70,3.14,1.70,3.14,-3.11,-3.13,-3.88,-1.41,-1.42,-1.44
102.27,1.67,3.14,1.66,3.13,-3.11,-3.14,-3.93,-1.44,-1.45,-1.47
103.29,1.61,3.12,1.61,3.11,-3.11,-3.16,-3.99,-1.51,-1.50,-1.51
104.32,1.56,3.09,1.57,3.09,-3.12,-3.17,-4.05,-1.56,-1.56,-1.53
105.37,1.54,3.09,1.55,3.11,-3.13,-3.20,-4.11,-1.60,-1.59,-1.56
106.42,1.55,3.13,1.55,3.14,-3.15,-3.22,-4.16,-1.60,-1.60,-1.59
107.48,1.58,3.20,1.56,3.18,-3.17,-3.25,-4.22,-1.59,-1.60,-1.63
108.56,1.56,3.22,1.56,3.22,-3.19,-3.28,-4.27,-1.63,-1.63,-1.66
109.64,1.54,3.23,1.54,3.23,-3.22,-3.31,-4.33,-1.68,-1.68,-1.69
110.74,1.52,3.25,1.51,3.24,-3.26,-3.35,-4.38,-1.74,-1.74,-1.73
111.85,1.50,3.25,1.51,3.27,-3.29,-3.39,-4.43,-1.79,-1.78,-1.75
112.97,1.52,3.32,1.53,3.32,-3.33,-3.44,-4.47,-1.81,-1.80,-1.80
114.10,1.58,3.41,1.55,3.38,-3.37,-3.49,-4.51,-1.79,-1.82,-1.83
115.24,1.58,3.44,1.57,3.43,-3.42,-3.55,-4.55,-1.84,-1.85,-1.86
116.39,1.58,3.47,1.59,3.48,-3.48,-3.60,-4.58,-1.90,-1.89,-1.90
117.55,1.60,3.51,1.61,3.52,-3.55,-3.67,-4.61,-1.95,-1.94,-1.91
118.73,1.67,3.61,1.66,3.60,-3.61,-3.74,-4.63,-1.95,-1.95,-1.94
119.92,1.72,3.67,1.73,3.68,-3.68,-3.81,-4.65,-1.96,-1.95,-1.95
121.12,1.81,3.78,1.80,3.77,-3.75,-3.89,-4.65,-1.94,-1.95,-1.97
122.33,1.87,3.86,1.85,3.84,-3.82,-3.97,-4.66,-1.95,-1.97,-1.99
123.55,1.91,3.90,1.90,3.90,-3.89,-4.05,-4.65,-1.99,-1.99,-2.00
124.79,1.92,3.93,1.95,3.96,-3.97,-4.13,-4.64,-2.05,-2.02,-2.01
126.03,2.02,4.05,2.01,4.03,-4.04,-4.22,-4.62,-2.02,-2.04,-2.03
127.29,2.08,4.11,2.07,4.11,-4.12,-4.31,-4.60,-2.04,-2.05,-2.03
128.57,2.13,4.18,2.14,4.19,-4.19,-4.40,-4.57,-2.06,-2.05,-2.06
129.85,2.19,4.26,2.19,4.26,-4.26,-4.49,-4.53,-2.07,-2.07,-2.07
131.15,2.25,4.33,2.25,4.33,-4.33,-4.57,-4.48,-2.08,-2.09,-2.08
132.46,2.31,4.40,2.31,4.41,-4.40,-4.65,-4.43,-2.09,-2.09,-2.09
133.79,2.37,4.47,2.38,4.48,-4.46,-4.73,-4.37,-2.10,-2.09,-2.11
135.12,2.44,4.57,2.42,4.54,-4.52,-4.80,-4.31,-2.08,-2.10,-2.13
136.48,2.45,4.58,2.44,4.58,-4.58,-4.85,-4.24,-2.13,-2.13,-2.13
137.84,2.45,4.60,2.46,4.61,-4.62,-4.90,-4.17,-2.17,-2.16,-2.15
139.22,2.47,4.64,2.48,4.65,-4.67,-4.94,-4.09,-2.20,-2.19,-2.17
140.61,2.53,4.72,2.51,4.69,-4.71,-4.96,-4.01,-2.18,-2.20,-2.19
142.02,2.55,4.73,2.54,4.73,-4.74,-4.96,-3.92,-2.20,-2.20,-2.19
143.44,2.55,4.75,2.55,4.76,-4.77,-4.95,-3.84,-2.22,-2.22,-2.20
144.87,2.55,4.78,2.56,4.79,-4.79,-4.92,-3.75,-2.25,-2.23,-2.23
146.32,2.55,4.81,2.55,4.81,-4.80,-4.88,-3.66,-2.25,-2.25,-2.26
147.78,2.55,4.82,2.52,4.80,-4.80,-4.82,-3.56,-2.25,-2.27,-2.27
149.26,2.44,4.75,2.45,4.76,-4.76,-4.75,-3.47,-2.33,-2.32,-2.31
150.75,2.33,4.69,2.33,4.69,-4.70,-4.67,-3.37,-2.37,-2.37,-2.36
152.26,2.18,4.60,2.18,4.60,-4.59,-4.57,-3.28,-2.41,-2.41,-2.42
153.78,2.01,4.48,2.01,4.49,-4.44,-4.46,-3.18,-2.43,-2.43,-2.47
155.32,1.79,4.32,1.76,4.30,-4.24,-4.35,-3.08,-2.45,-2.47,-2.54
156.88,1.49,4.09,1.48,4.08,-3.99,-4.23,-2.99,-2.50,-2.51,-2.60
158.44,1.08,3.75,1.12,3.79,-3.71,-4.10,-2.89,-2.63,-2.59,-2.67
160.03,0.78,3.52,0.72,3.46,-3.42,-3.97,-2.80,-2.64,-2.70,-2.74
161.63,0.30,3.10,0.32,3.12,-3.13,-3.84,-2.70,-2.83,-2.81,-2.80
163.24,-0.05,2.80,-0.04,2.82,-2.88,-3.71,-2.61,-2.93,-2.91,-2.85
164.88,-0.33,2.56,-0.35,2.55,-2.68,-3.58,-2.52,-3.01,-3.03,-2.89
166.53,-0.54,2.39,-0.53,2.40,-2.56,-3.45,-2.43,-3.10,-3.09,-2.93
168.19,-0.62,2.34,-0.60,2.36,-2.50,-3.33,-2.34,-3.12,-3.10,-2.96
169.87,-0.57,2.42,-0.56,2.43,-2.51,-3.20,-2.25,-3.08,-3.06,-2.99
171.57,-0.40,2.60,-0.42,2.58,-2.57,-3.08,-2.16,-2.97,-2.99,-3.00
173.29,-0.26,2.74,-0.26,2.74,-2.66,-2.97,-2.08,-2.92,-2.92,-3.00
175.02,-0.11,2.89,-0.13,2.87,-2.76,-2.85,-1.99,-2.87,-2.90,-3.00
176.77,-0.06,2.95,-0.06,2.95,-2.86,-2.74,-1.91,-2.92,-2.92,-3.01
178.54,-0.01,2.99,-0.01,2.98,-2.93,-2.64,-1.83,-2.95,-2.95,-3.00
180.32,-0.00,2.99,0.01,3.00,-2.98,-2.53,-1.75,-2.98,-2.97,-2.99
182.13,0.01,2.98,0.01,2.99,-3.00,-2.44,-1.67,-2.99,-2.99,-2.97
183.95,0.02,2.99,-0.02,2.96,-3.00,-2.34,-1.59,-2.98,-3.01,-2.98
185.79,-0.07,2.90,-0.03,2.94,-2.98,-2.25,-1.52,-3.05,-3.01,-2.97
187.65,-0.07,2.91,-0.05,2.93,-2.94,-2.16,-1.44,-3.02,-3.00,-2.98
189.52,-0.05,2.93,-0.08,2.90,-2.90,-2.08,-1.37,-2.95,-2.99,-2.99
191.42,-0.11,2.89,-0.11,2.89,-2.85,-1.99,-1.30,-2.96,-2.96,-3.00
193.33,-0.19,2.82,-0.17,2.84,-2.79,-1.91,-1.23,-2.98,-2.96,-3.01
195.27,-0.25,2.77,-0.26,2.76,-2.73,-1.84,-1.16,-2.98,-2.99,-3.02
197.22,-0.35,2.68,-0.38,2.66,-2.67,-1.76,-1.09,-3.02,-3.05,-3.03
199.19,-0.50,2.55,-0.50,2.55,-2.60,-1.69,-1.03,-3.11,-3.11,-3.05
201.18,-0.65,2.41,-0.58,2.48,-2.54,-1.62,-0.96,-3.19,-3.12,-3.07
203.19,-0.64,2.43,-0.64,2.44,-2.47,-1.55,-0.90,-3.11,-3.10,-3.08
205.23,-0.61,2.48,-0.70,2.39,-2.39,-1.49,-0.84,-3.00,-3.09,-3.10
207.28,-0.78,2.31,-0.76,2.35,-2.31,-1.42,-0.78,-3.09,-3.06,-3.10
209.35,-0.90,2.21,-0.84,2.28,-2.22,-1.36,-0.72,-3.13,-3.07,-3.11
211.44,-0.92,2.22,-0.95,2.18,-2.14,-1.30,-0.66,-3.06,-3.10,-3.14
213.56,-1.03,2.11,-1.08,2.06,-2.06,-1.23,-0.61,-3.09,-3.14,-3.14
215.69,-1.23,1.92,-1.22,1.93,-1.97,-1.17,-0.55,-3.20,-3.19,-3.15
217.85,-1.43,1.73,-1.36,1.80,-1.87,-1.11,-0.50,-3.30,-3.22,-3.16
220.03,-1.43,1.73,-1.46,1.71,-1.76,-1.05,-0.45,-3.19,-3.21,-3.17
222.23,-1.49,1.69,-1.53,1.65,-1.64,-0.99,-0.40,-3.13,-3.17,-3.18
224.45,-1.62,1.55,-1.59,1.58,-1.52,-0.93,-0.36,-3.14,-3.11,-3.17
226.70,-1.72,1.45,-1.72,1.45,-1.39,-0.87,-0.31,-3.11,-3.11,-3.17
228.96,-1.83,1.32,-1.86,1.29,-1.26,-0.81,-0.27,-3.09,-3.12,-3.15
231.25,-2.03,1.11,-2.02,1.12,-1.13,-0.75,-0.23,-3.16,-3.15,-3.14
233.57,-2.20,0.93,-2.18,0.94,-0.98,-0.69,-0.19,-3.18,-3.17,-3.13
235.90,-2.33,0.78,-2.32,0.79,-0.83,-0.63,-0.16,-3.17,-3.15,-3.11
238.26,-2.41,0.69,-2.42,0.67,-0.68,-0.57,-0.12,-3.10,-3.11,-3.10
240.64,-2.51,0.56,-2.53,0.55,-0.54,-0.50,-0.09,-3.05,-3.07,-3.07
243.05,-2.63,0.41,-2.62,0.42,-0.40,-0.44,-0.06,-3.03,-3.03,-3.04
245.48,-2.74,0.27,-2.73,0.29,-0.27,-0.37,-0.04,-3.01,-3.00,-3.01
247.93,-2.81,0.17,-2.84,0.15,-0.15,-0.30,-0.01,-2.96,-2.98,-2.98
250.41,-2.93,0.03,-2.93,0.02,-0.02,-0.23,0.01,-2.96,-2.96,-2.96
252.92,-3.05,-0.12,-3.02,-0.09,0.09,-0.16,0.03,-2.97,-2.93,-2.93
255.45,-3.09,-0.19,-3.12,-0.21,0.19,-0.08,0.05,-2.90,-2.93,-2.90
258.00,-3.17,-0.29,-3.21,-0.33,0.28,-0.01,0.06,-2.89,-2.93,-2.88
260.58,-3.32,-0.46,-3.27,-0.41,0.39,0.07,0.07,-2.93,-2.88,-2.86
263.19,-3.34,-0.52,-3.31,-0.48,0.49,0.15,0.08,-2.85,-2.82,-2.83
265.82,-3.29,-0.48,-3.35,-0.55,0.60,0.24,0.09,-2.69,-2.75,-2.81
268.48,-3.40,-0.62,-3.40,-0.62,0.71,0.32,0.10,-2.69,-2.69,-2.78
271.16,-3.53,-0.79,-3.52,-0.76,0.82,0.41,0.10,-2.72,-2.70,-2.75
273.87,-3.64,-0.91,-3.68,-0.95,0.92,0.50,0.11,-2.73,-2.76,-2.73
276.61,-3.81,-1.12,-3.79,-1.09,1.01,0.59,0.11,-2.80,-2.78,-2.69
279.38,-3.89,-1.23,-3.83,-1.16,1.11,0.68,0.11,-2.79,-2.72,-2.67
282.17,-3.82,-1.18,-3.85,-1.21,1.19,0.78,0.11,-2.63,-2.66,-2.64
284.99,-3.78,-1.18,-3.86,-1.25,1.26,0.87,0.10,-2.52,-2.59,-2.60
287.84,-3.92,-1.34,-3.87,-1.29,1.32,0.97,0.10,-2.60,-2.54,-2.58
290.72,-3.92,-1.37,-3.89,-1.34,1.36,1.07,0.09,-2.56,-2.53,-2.55
293.63,-3.88,-1.36,-3.92,-1.40,1.40,1.16,0.09,-2.48,-2.52,-2.52
296.57,-3.90,-1.42,-3.92,-1.44,1.44,1.25,0.08,-2.46,-2.49,-2.48
299.53,-3.97,-1.52,-3.94,-1.49,1.49,1.35,0.07,-2.49,-2.46,-2.45
302.53,-3.97,-1.53,-3.95,-1.52,1.53,1.43,0.06,-2.44,-2.42,-2.44
305.55,-3.94,-1.55,-3.96,-1.56,1.58,1.51,0.05,-2.36,-2.38,-2.39
308.61,-3.93,-1.56,-3.97,-1.60,1.62,1.59,0.04,-2.31,-2.35,-2.37
311.69,-4.02,-1.68,-4.00,-1.66,1.65,1.66,0.03,-2.37,-2.35,-2.34
314.81,-4.03,-1.72,-4.02,-1.70,1.67,1.72,0.02,-2.36,-2.35,-2.32
317.96,-4.03,-1.73,-4.01,-1.71,1.69,1.77,0.01,-2.34,-2.33,-2.30
321.14,-3.96,-1.67,-3.98,-1.69,1.69,1.82,0.00,-2.27,-2.29,-2.29
324.35,-3.93,-1.66,-3.96,-1.69,1.68,1.85,-0.01,-2.25,-2.27,-2.27
327.59,-3.93,-1.68,-3.93,-1.67,1.67,1.87,-0.02,-2.26,-2.26,-2.25
330.87,-3.93,-1.69,-3.89,-1.64,1.64,1.87,-0.04,-2.29,-2.24,-2.24
334.18,-3.81,-1.59,-3.83,-1.61,1.61,1.86,-0.05,-2.20,-2.22,-2.23
337.52,-3.75,-1.53,-3.78,-1.57,1.59,1.85,-0.06,-2.17,-2.20,-2.22
340.90,-3.75,-1.55,-3.74,-1.53,1.56,1.81,-0.07,-2.19,-2.18,-2.20
344.30,-3.73,-1.54,-3.71,-1.52,1.53,1.77,-0.08,-2.20,-2.18,-2.19
347.75,-3.67,-1.48,-3.69,-1.51,1.50,1.72,-0.10,-2.17,-2.20,-2.19
351.23,-3.65,-1.47,-3.66,-1.48,1.46,1.65,-0.11,-2.19,-2.20,-2.18
354.74,-3.65,-1.47,-3.62,-1.44,1.42,1.58,-0.12,-2.23,-2.20,-2.18
358.28,-3.57,-1.40,-3.58,-1.40,1.38,1.50,-0.13,-2.19,-2.19,-2.17
361.87,-3.49,-1.32,-3.51,-1.33,1.34,1.42,-0.15,-2.16,-2.17,-2.18
365.49,-3.45,-1.28,-3.43,-1.26,1.28,1.32,-0.16,-2.17,-2.15,-2.17
369.14,-3.36,-1.18,-3.39,-1.21,1.22,1.23,-0.17,-2.15,-2.17,-2.18
372.83,-3.33,-1.15,-3.34,-1.16,1.15,1.13,-0.18,-2.18,-2.19,-2.18
376.56,-3.30,-1.12,-3.26,-1.09,1.08,1.03,-0.20,-2.22,-2.18,-2.18
380.33,-3.18,-1.01,-3.18,-1.01,1.01,0.93,-0.21,-2.17,-2.17,-2.17
384.13,-3.07,-0.90,-3.10,-0.93,0.93,0.83,-0.22,-2.14,-2.17,-2.17
387.97,-3.02,-0.84,-3.03,-0.85,0.86,0.73,-0.23,-2.16,-2.17,-2.18
391.85,-3.00,-0.81,-2.97,-0.78,0.78,0.63,-0.25,-2.22,-2.18,-2.19
395.77,-2.90,-0.72,-2.91,-0.72,0.70,0.53,-0.26,-2.20,-2.20,-2.18
399.73,-2.81,-0.62,-2.83,-0.64,0.63,0.43,-0.27,-2.19,-2.20,-2.20
403.72,-2.75,-0.56,-2.73,-0.54,0.55,0.34,-0.28,-2.20,-2.18,-2.20
407.76,-2.66,-0.46,-2.66,-0.46,0.47,0.25,-0.29,-2.19,-2.19,-2.21
411.84,-2.57,-0.36,-2.59,-0.39,0.39,0.16,-0.31,-2.18,-2.20,-2.21
415.96,-2.54,-0.33,-2.52,-0.31,0.31,0.08,-0.32,-2.24,-2.21,-2.21
420.12,-2.44,-0.23,-2.44,-0.23,0.22,-0.01,-0.33,-2.22,-2.22,-2.21
424.32,-2.34,-0.13,-2.36,-0.16,0.13,-0.09,-0.34,-2.21,-2.23,-2.21
428.56,-2.27,-0.07,-2.25,-0.05,0.05,-0.16,-0.35,-2.22,-2.20,-2.20
432.85,-2.15,0.04,-2.13,0.06,-0.04,-0.23,-0.37,-2.19,-2.17,-2.19
437.18,-1.98,0.20,-2.02,0.15,-0.13,-0.30,-0.38,-2.11,-2.15,-2.18
441.55,-1.90,0.24,-1.92,0.23,-0.23,-0.37,-0.39,-2.13,-2.15,-2.14
445.96,-1.84,0.27,-1.81,0.30,-0.33,-0.44,-0.40,-2.17,-2.14,-2.11
450.42,-1.72,0.36,-1.69,0.38,-0.42,-0.50,-0.41,-2.15,-2.11,-2.08
454.93,-1.50,0.53,-1.54,0.50,-0.51,-0.56,-0.42,-2.01,-2.05,-2.03
459.48,-1.36,0.62,-1.36,0.63,-0.60,-0.61,-0.43,-1.96,-1.95,-1.98
464.07,-1.21,0.72,-1.20,0.73,-0.68,-0.67,-0.44,-1.89,-1.89,-1.93
468.71,-1.06,0.81,-1.08,0.79,-0.77,-0.72,-0.45,-1.83,-1.85,-1.87
473.40,-0.99,0.84,-0.98,0.84,-0.86,-0.77,-0.46,-1.85,-1.84,-1.83
478.13,-0.88,0.89,-0.89,0.89,-0.94,-0.82,-0.47,-1.82,-1.83,-1.77
