frequency,raw,error,smoothed,error_smoothed,equalization,parametric_eq,equalized_raw,equalized_smoothed,target
20.00,1.26,-6.46,1.26,-6.46,6.00,1.44,7.26,7.26,7.72
20.20,1.36,-6.36,1.36,-6.36,6.00,1.48,7.36,7.36,7.72
20.40,1.47,-6.25,1.47,-6.25,5.99,1.53,7.46,7.45,7.72
20.61,1.57,-6.16,1.57,-6.15,5.96,1.57,7.53,7.53,7.72
20.81,1.68,-6.05,1.68,-6.05,5.92,1.62,7.60,7.59,7.73
21.02,1.78,-5.95,1.78,-5.95,5.86,1.67,7.64,7.64,7.73
21.23,1.88,-5.85,1.89,-5.84,5.79,1.72,7.67,7.68,7.73
21.44,1.99,-5.74,1.99,-5.74,5.72,1.77,7.71,7.71,7.73
21.66,2.09,-5.65,2.09,-5.64,5.63,1.82,7.72,7.73,7.73
21.87,2.20,-5.54,2.20,-5.54,5.54,1.88,7.74,7.74,7.74
22.09,2.30,-5.44,2.30,-5.44,5.44,1.93,7.74,7.74,7.74
22.31,2.41,-5.33,2.40,-5.34,5.34,1.99,7.75,7.74,7.74
22.54,2.51,-5.24,2.51,-5.23,5.23,2.05,7.74,7.74,7.74
22.76,2.61,-5.13,2.61,-5.13,5.13,2.11,7.74,7.74,7.74
22.99,2.72,-5.03,2.72,-5.03,5.03,2.17,7.75,7.75,7.75
23.22,2.82,-4.93,2.82,-4.93,4.93,2.24,7.75,7.75,7.75
23.45,2.92,-4.83,2.92,-4.83,4.83,2.30,7.75,7.75,7.75
23.69,3.02,-4.74,3.03,-4.73,4.73,2.36,7.75,7.75,7.75
23.92,3.13,-4.62,3.13,-4.63,4.63,2.43,7.76,7.75,7.76
24.16,3.23,-4.53,3.23,-4.53,4.53,2.50,7.76,7.76,7.76
24.40,3.33,-4.43,3.33,-4.43,4.43,2.57,7.76,7.76,7.76
24.65,3.43,-4.33,3.43,-4.33,4.33,2.64,7.76,7.76,7.76
24.89,3.54,-4.22,3.53,-4.23,4.23,2.70,7.77,7.76,7.76
25.14,3.64,-4.13,3.63,-4.13,4.13,2.77,7.77,7.77,7.77
25.39,3.74,-4.03,3.73,-4.03,4.03,2.84,7.77,7.77,7.77
25.65,3.83,-3.94,3.83,-3.94,3.94,2.91,7.77,7.77,7.77
25.91,3.93,-3.85,3.93,-3.84,3.84,2.98,7.77,7.77,7.77
26.16,4.03,-3.74,4.03,-3.74,3.74,3.05,7.77,7.77,7.78
26.43,4.13,-3.65,4.13,-3.65,3.65,3.12,7.78,7.78,7.78
26.69,4.23,-3.55,4.23,-3.55,3.55,3.18,7.78,7.78,7.78
26.96,4.32,-3.46,4.32,-3.46,3.46,3.25,7.78,7.78,7.78
27.23,4.42,-3.37,4.42,-3.36,3.36,3.31,7.78,7.78,7.78
27.50,4.51,-3.28,4.51,-3.27,3.27,3.37,7.78,7.78,7.78
27.77,4.60,-3.19,4.61,-3.18,3.18,3.42,7.78,7.78,7.79
28.05,4.70,-3.09,4.70,-3.09,3.09,3.47,7.79,7.79,7.79
28.33,4.79,-3.00,4.79,-3.00,3.00,3.52,7.79,7.79,7.79
28.62,4.88,-2.91,4.88,-2.91,2.91,3.56,7.79,7.79,7.79
28.90,4.97,-2.82,4.97,-2.82,2.82,3.60,7.79,7.79,7.79
29.19,5.06,-2.73,5.05,-2.74,2.74,3.63,7.80,7.79,7.79
29.48,5.15,-2.64,5.14,-2.65,2.65,3.66,7.80,7.79,7.79
29.78,5.23,-2.56,5.22,-2.57,2.57,3.68,7.80,7.79,7.79
30.08,5.32,-2.48,5.30,-2.49,2.49,3.70,7.81,7.79,7.79
30.38,5.38,-2.42,5.38,-2.42,2.42,3.70,7.79,7.79,7.79
30.68,5.45,-2.35,5.45,-2.34,2.34,3.70,7.79,7.79,7.79
30.99,5.52,-2.28,5.53,-2.27,2.27,3.70,7.79,7.79,7.79
31.30,5.59,-2.21,5.60,-2.19,2.19,3.68,7.78,7.79,7.79
31.61,5.66,-2.13,5.67,-2.12,2.12,3.66,7.78,7.79,7.79
31.93,5.73,-2.07,5.74,-2.05,2.05,3.63,7.78,7.79,7.79
32.24,5.80,-1.99,5.81,-1.98,1.98,3.60,7.78,7.79,7.79
32.57,5.88,-1.91,5.88,-1.91,1.91,3.56,7.79,7.79,7.79
32.89,5.95,-1.84,5.94,-1.85,1.85,3.51,7.80,7.79,7.79
33.22,6.01,-1.78,6.01,-1.78,1.78,3.45,7.79,7.79,7.79
33.55,6.08,-1.71,6.08,-1.71,1.71,3.39,7.79,7.79,7.79
33.89,6.15,-1.64,6.14,-1.65,1.65,3.32,7.79,7.79,7.79
34.23,6.21,-1.58,6.21,-1.58,1.58,3.25,7.79,7.79,7.79
34.57,6.27,-1.52,6.27,-1.51,1.51,3.17,7.78,7.79,7.79
34.92,6.34,-1.45,6.33,-1.45,1.45,3.09,7.79,7.79,7.78
35.27,6.40,-1.38,6.40,-1.39,1.39,3.01,7.79,7.78,7.78
35.62,6.46,-1.32,6.46,-1.32,1.32,2.92,7.78,7.78,7.78
35.97,6.52,-1.26,6.52,-1.26,1.26,2.83,7.78,7.78,7.78
36.33,6.57,-1.21,6.58,-1.20,1.20,2.73,7.77,7.77,7.78
36.70,6.63,-1.15,6.64,-1.14,1.14,2.64,7.76,7.77,7.78
37.06,6.69,-1.08,6.70,-1.07,1.07,2.54,7.76,7.77,7.77
37.43,6.75,-1.02,6.75,-1.01,1.01,2.44,7.76,7.77,7.77
37.81,6.81,-0.96,6.81,-0.95,0.95,2.34,7.76,7.76,7.77
38.19,6.87,-0.89,6.87,-0.89,0.89,2.23,7.76,7.76,7.76
38.57,6.93,-0.83,6.93,-0.83,0.83,2.13,7.76,7.76,7.76
38.95,6.98,-0.78,6.98,-0.77,0.77,2.03,7.75,7.75,7.76
39.34,7.04,-0.71,7.03,-0.71,0.71,1.92,7.75,7.75,7.75
39.74,7.10,-0.65,7.09,-0.66,0.66,1.82,7.75,7.74,7.75
40.14,7.16,-0.58,7.14,-0.60,0.60,1.71,7.76,7.74,7.74
40.54,7.20,-0.54,7.20,-0.54,0.54,1.61,7.74,7.74,7.74
40.94,7.24,-0.49,7.25,-0.48,0.48,1.51,7.72,7.73,7.73
41.35,7.29,-0.44,7.30,-0.43,0.43,1.40,7.72,7.73,7.73
41.76,7.34,-0.38,7.35,-0.37,0.37,1.30,7.71,7.72,7.72
42.18,7.39,-0.33,7.40,-0.32,0.32,1.20,7.71,7.72,7.72
42.60,7.44,-0.27,7.45,-0.27,0.27,1.10,7.71,7.71,7.71
43.03,7.49,-0.22,7.50,-0.21,0.21,0.99,7.70,7.71,7.71
43.46,7.55,-0.15,7.54,-0.16,0.16,0.89,7.71,7.70,7.70
43.90,7.60,-0.10,7.59,-0.11,0.11,0.79,7.71,7.69,7.70
44.33,7.64,-0.05,7.63,-0.05,0.05,0.69,7.69,7.69,7.69
44.78,7.69,0.01,7.68,-0.00,0.00,0.59,7.69,7.68,7.68
45.23,7.73,0.05,7.72,0.05,-0.05,0.50,7.68,7.67,7.68
45.68,7.77,0.10,7.77,0.10,-0.10,0.40,7.67,7.67,7.67
46.13,7.81,0.15,7.81,0.15,-0.15,0.30,7.66,7.66,7.66
46.60,7.85,0.20,7.85,0.21,-0.21,0.20,7.64,7.65,7.65
47.06,7.89,0.25,7.89,0.26,-0.26,0.11,7.63,7.64,7.64
47.53,7.93,0.30,7.94,0.31,-0.31,0.01,7.62,7.63,7.63
48.01,7.97,0.35,7.98,0.36,-0.36,-0.08,7.61,7.62,7.62
48.49,8.01,0.40,8.02,0.41,-0.41,-0.18,7.59,7.60,7.61
48.97,8.06,0.47,8.06,0.47,-0.47,-0.27,7.59,7.59,7.59
49.46,8.10,0.52,8.10,0.52,-0.52,-0.36,7.58,7.58,7.58
49.96,8.14,0.57,8.14,0.57,-0.57,-0.45,7.57,7.57,7.57
50.46,8.18,0.62,8.18,0.62,-0.62,-0.55,7.56,7.55,7.55
50.96,8.22,0.68,8.21,0.67,-0.67,-0.64,7.55,7.54,7.54
51.47,8.26,0.73,8.25,0.73,-0.73,-0.73,7.53,7.52,7.53
51.99,8.30,0.79,8.29,0.78,-0.78,-0.81,7.52,7.51,7.51
52.51,8.33,0.83,8.32,0.83,-0.83,-0.90,7.50,7.50,7.50
53.03,8.35,0.87,8.36,0.88,-0.88,-0.99,7.47,7.48,7.48
53.56,8.38,0.91,8.39,0.92,-0.92,-1.07,7.45,7.46,7.47
54.10,8.42,0.97,8.42,0.97,-0.97,-1.16,7.45,7.45,7.45
54.64,8.45,1.02,8.45,1.02,-1.02,-1.24,7.43,7.43,7.43
55.18,8.48,1.06,8.49,1.07,-1.07,-1.32,7.41,7.41,7.42
55.74,8.51,1.11,8.52,1.12,-1.12,-1.39,7.39,7.40,7.40
56.29,8.55,1.17,8.55,1.17,-1.17,-1.47,7.38,7.38,7.38
56.86,8.58,1.21,8.58,1.22,-1.22,-1.54,7.36,7.36,7.37
57.42,8.62,1.27,8.61,1.27,-1.27,-1.61,7.35,7.34,7.35
58.00,8.65,1.32,8.65,1.32,-1.32,-1.68,7.33,7.33,7.33
58.58,8.68,1.37,8.68,1.37,-1.37,-1.75,7.31,7.31,7.31
59.16,8.71,1.42,8.71,1.42,-1.42,-1.81,7.29,7.29,7.29
59.76,8.74,1.47,8.74,1.47,-1.47,-1.87,7.27,7.27,7.27
60.35,8.76,1.51,8.76,1.51,-1.51,-1.93,7.25,7.25,7.25
60.96,8.79,1.56,8.79,1.56,-1.56,-1.98,7.23,7.23,7.23
61.57,8.82,1.61,8.81,1.61,-1.61,-2.04,7.21,7.20,7.21
62.18,8.85,1.67,8.83,1.65,-1.65,-2.08,7.20,7.18,7.18
62.80,8.86,1.70,8.85,1.70,-1.70,-2.13,7.16,7.16,7.16
63.43,8.88,1.74,8.87,1.74,-1.74,-2.17,7.14,7.13,7.13
64.07,8.89,1.78,8.89,1.79,-1.79,-2.21,7.10,7.11,7.11
64.71,8.90,1.81,8.91,1.83,-1.83,-2.25,7.07,7.08,7.08
65.35,8.92,1.86,8.93,1.88,-1.88,-2.28,7.04,7.05,7.06
66.01,8.94,1.91,8.95,1.92,-1.92,-2.31,7.02,7.03,7.03
66.67,8.96,1.96,8.97,1.97,-1.97,-2.34,6.99,7.00,7.00
67.33,8.98,2.01,8.99,2.02,-2.02,-2.36,6.96,6.97,6.97
68.01,9.01,2.06,9.01,2.07,-2.07,-2.39,6.94,6.94,6.94
68.69,9.04,2.12,9.03,2.12,-2.12,-2.41,6.92,6.91,6.91
69.37,9.06,2.18,9.05,2.17,-2.17,-2.43,6.89,6.88,6.88
70.07,9.08,2.23,9.07,2.23,-2.23,-2.45,6.85,6.85,6.85
70.77,9.10,2.28,9.10,2.28,-2.28,-2.47,6.82,6.82,6.82
71.48,9.12,2.33,9.12,2.34,-2.34,-2.49,6.78,6.78,6.79
72.19,9.14,2.38,9.15,2.39,-2.39,-2.51,6.75,6.75,6.75
72.91,9.16,2.44,9.17,2.45,-2.45,-2.53,6.71,6.72,6.72
73.64,9.18,2.49,9.19,2.51,-2.51,-2.54,6.67,6.68,6.69
74.38,9.21,2.56,9.22,2.57,-2.57,-2.56,6.64,6.65,6.65
75.12,9.23,2.61,9.24,2.62,-2.62,-2.58,6.61,6.61,6.62
75.87,9.26,2.68,9.26,2.68,-2.68,-2.60,6.58,6.58,6.58
76.63,9.28,2.73,9.27,2.73,-2.73,-2.62,6.55,6.54,6.54
77.40,9.30,2.79,9.29,2.78,-2.78,-2.64,6.52,6.51,6.51
78.17,9.31,2.84,9.30,2.83,-2.83,-2.66,6.48,6.47,6.47
78.95,9.33,2.90,9.31,2.88,-2.88,-2.68,6.45,6.43,6.43
79.74,9.34,2.94,9.32,2.93,-2.93,-2.71,6.41,6.39,6.40
80.54,9.34,2.98,9.33,2.97,-2.97,-2.73,6.37,6.36,6.36
81.35,9.34,3.02,9.33,3.01,-3.01,-2.76,6.33,6.32,6.32
82.16,9.34,3.06,9.33,3.05,-3.05,-2.79,6.29,6.28,6.28
82.98,9.32,3.08,9.33,3.09,-3.09,-2.82,6.23,6.24,6.24
83.81,9.32,3.11,9.33,3.13,-3.13,-2.86,6.19,6.20,6.20
84.65,9.32,3.15,9.33,3.16,-3.16,-2.89,6.15,6.16,6.17
85.50,9.32,3.19,9.33,3.20,-3.20,-2.93,6.12,6.13,6.13
86.35,9.32,3.23,9.32,3.24,-3.24,-2.97,6.08,6.09,6.09
87.22,9.32,3.27,9.32,3.27,-3.27,-3.02,6.05,6.05,6.05
88.09,9.32,3.30,9.32,3.31,-3.31,-3.06,6.01,6.01,6.02
88.97,9.32,3.34,9.32,3.34,-3.34,-3.11,5.98,5.97,5.98
89.86,9.32,3.38,9.32,3.38,-3.38,-3.16,5.94,5.94,5.94
90.76,9.32,3.42,9.32,3.42,-3.42,-3.21,5.90,5.90,5.90
91.66,9.32,3.46,9.32,3.46,-3.46,-3.27,5.86,5.86,5.86
92.58,9.32,3.50,9.32,3.50,-3.50,-3.33,5.82,5.82,5.82
93.51,9.32,3.54,9.32,3.54,-3.54,-3.39,5.78,5.78,5.78
94.44,9.32,3.57,9.32,3.58,-3.58,-3.45,5.74,5.74,5.74
95.39,9.32,3.62,9.32,3.62,-3.62,-3.51,5.70,5.70,5.70
96.34,9.32,3.66,9.32,3.66,-3.66,-3.58,5.66,5.66,5.66
97.30,9.32,3.70,9.32,3.70,-3.70,-3.65,5.62,5.62,5.62
98.28,9.32,3.74,9.32,3.74,-3.74,-3.72,5.58,5.58,5.58
99.26,9.32,3.78,9.32,3.78,-3.78,-3.79,5.54,5.54,5.54
100.25,9.32,3.83,9.32,3.82,-3.82,-3.86,5.49,5.49,5.49
101.25,9.32,3.87,9.32,3.87,-3.87,-3.94,5.45,5.45,5.45
102.27,9.32,3.91,9.32,3.91,-3.91,-4.01,5.41,5.41,5.41
103.29,9.32,3.95,9.32,3.95,-3.95,-4.09,5.37,5.37,5.37
104.32,9.32,3.99,9.32,3.99,-3.99,-4.17,5.32,5.32,5.32
105.37,9.32,4.04,9.32,4.04,-4.04,-4.24,5.28,5.28,5.28
106.42,9.32,4.08,9.32,4.08,-4.08,-4.32,5.24,5.24,5.24
107.48,9.32,4.12,9.32,4.12,-4.12,-4.40,5.20,5.20,5.20
108.56,9.32,4.17,9.32,4.17,-4.17,-4.47,5.15,5.15,5.15
109.64,9.32,4.21,9.32,4.21,-4.21,-4.55,5.11,5.11,5.11
110.74,9.32,4.25,9.32,4.25,-4.25,-4.62,5.07,5.07,5.07
111.85,9.32,4.30,9.32,4.30,-4.30,-4.69,5.02,5.02,5.02
112.97,9.32,4.34,9.32,4.34,-4.34,-4.76,4.98,4.98,4.98
114.10,9.32,4.38,9.32,4.38,-4.38,-4.82,4.94,4.94,4.94
115.24,9.32,4.43,9.32,4.43,-4.43,-4.88,4.89,4.89,4.89
116.39,9.32,4.47,9.32,4.47,-4.47,-4.94,4.85,4.85,4.85
117.55,9.32,4.51,9.32,4.51,-4.51,-4.99,4.81,4.81,4.81
118.73,9.32,4.55,9.32,4.55,-4.55,-5.04,4.77,4.77,4.77
119.92,9.32,4.60,9.32,4.59,-4.59,-5.08,4.72,4.72,4.72
121.12,9.32,4.64,9.32,4.64,-4.64,-5.12,4.68,4.68,4.68
122.33,9.32,4.68,9.32,4.68,-4.68,-5.15,4.64,4.64,4.64
123.55,9.32,4.72,9.32,4.72,-4.72,-5.18,4.60,4.60,4.60
124.79,9.32,4.75,9.32,4.76,-4.76,-5.20,4.56,4.56,4.57
126.03,9.32,4.79,9.32,4.80,-4.80,-5.21,4.52,4.52,4.53
127.29,9.32,4.83,9.33,4.84,-4.84,-5.22,4.48,4.49,4.49
128.57,9.32,4.86,9.33,4.88,-4.88,-5.22,4.44,4.45,4.45
129.85,9.32,4.90,9.33,4.92,-4.92,-5.22,4.40,4.42,4.42
131.15,9.32,4.93,9.33,4.95,-4.95,-5.21,4.37,4.38,4.39
132.46,9.32,4.97,9.33,4.98,-4.98,-5.20,4.34,4.35,4.35
133.79,9.33,5.01,9.33,5.01,-5.01,-5.18,4.32,4.32,4.32
135.12,9.34,5.05,9.33,5.04,-5.04,-5.16,4.30,4.29,4.29
136.48,9.34,5.08,9.32,5.06,-5.06,-5.13,4.28,4.26,4.26
137.84,9.33,5.10,9.31,5.08,-5.08,-5.10,4.25,4.23,4.23
139.22,9.32,5.12,9.29,5.09,-5.09,-5.07,4.23,4.20,4.20
140.61,9.30,5.13,9.28,5.10,-5.10,-5.03,4.20,4.18,4.17
142.02,9.26,5.11,9.26,5.11,-5.11,-5.00,4.15,4.15,4.15
143.44,9.24,5.12,9.23,5.11,-5.11,-4.96,4.13,4.12,4.12
144.87,9.20,5.11,9.20,5.11,-5.11,-4.92,4.09,4.09,4.09
146.32,9.18,5.11,9.17,5.11,-5.11,-4.88,4.07,4.07,4.07
147.78,9.14,5.10,9.14,5.11,-5.11,-4.84,4.03,4.04,4.04
149.26,9.11,5.09,9.11,5.10,-5.10,-4.80,4.01,4.01,4.02
150.75,9.08,5.09,9.08,5.10,-5.10,-4.76,3.98,3.98,3.99
152.26,9.05,5.08,9.06,5.10,-5.10,-4.72,3.95,3.95,3.97
153.78,9.02,5.08,9.04,5.11,-5.11,-4.68,3.91,3.93,3.94
155.32,9.00,5.08,9.02,5.12,-5.12,-4.65,3.88,3.90,3.92
156.88,8.98,5.09,9.01,5.13,-5.13,-4.61,3.85,3.88,3.89
158.44,8.97,5.10,9.00,5.15,-5.15,-4.58,3.82,3.85,3.87
160.03,8.97,5.13,8.99,5.17,-5.17,-4.55,3.80,3.83,3.84
161.63,8.98,5.16,8.99,5.19,-5.19,-4.53,3.79,3.81,3.82
163.24,8.99,5.20,8.99,5.21,-5.21,-4.50,3.78,3.78,3.79
164.88,9.00,5.23,8.99,5.23,-5.23,-4.48,3.77,3.76,3.77
166.53,9.01,5.26,8.99,5.25,-5.25,-4.46,3.76,3.74,3.74
168.19,9.01,5.29,8.99,5.27,-5.27,-4.45,3.74,3.72,3.72
169.87,9.01,5.31,8.98,5.28,-5.28,-4.44,3.73,3.70,3.70
171.57,9.00,5.32,8.97,5.29,-5.29,-4.43,3.71,3.68,3.68
173.29,8.99,5.33,8.96,5.30,-5.30,-4.43,3.69,3.66,3.66
175.02,8.95,5.31,8.94,5.30,-5.30,-4.42,3.65,3.64,3.64
176.77,8.93,5.31,8.92,5.30,-5.30,-4.43,3.63,3.62,3.62
178.54,8.91,5.31,8.90,5.29,-5.29,-4.43,3.61,3.60,3.60
180.32,8.87,5.28,8.87,5.29,-5.29,-4.44,3.58,3.58,3.59
182.13,8.84,5.27,8.84,5.27,-5.27,-4.45,3.56,3.56,3.57
183.95,8.79,5.23,8.81,5.26,-5.26,-4.47,3.53,3.55,3.56
185.79,8.76,5.21,8.78,5.25,-5.25,-4.49,3.51,3.54,3.55
187.65,8.74,5.20,8.76,5.23,-5.23,-4.51,3.50,3.52,3.54
189.52,8.71,5.18,8.74,5.22,-5.22,-4.54,3.49,3.51,3.52
191.42,8.70,5.19,8.71,5.21,-5.21,-4.56,3.49,3.50,3.51
193.33,8.68,5.17,8.69,5.20,-5.20,-4.60,3.48,3.50,3.50
195.27,8.67,5.17,8.67,5.19,-5.19,-4.63,3.48,3.49,3.50
197.22,8.66,5.17,8.65,5.18,-5.18,-4.67,3.48,3.48,3.49
199.19,8.65,5.17,8.64,5.17,-5.17,-4.70,3.48,3.47,3.48
201.18,8.64,5.17,8.62,5.15,-5.15,-4.75,3.49,3.46,3.47
203.19,8.62,5.16,8.60,5.14,-5.14,-4.79,3.48,3.46,3.46
205.23,8.60,5.15,8.58,5.13,-5.13,-4.83,3.47,3.45,3.45
207.28,8.56,5.12,8.56,5.12,-5.12,-4.88,3.44,3.44,3.44
209.35,8.53,5.10,8.53,5.10,-5.10,-4.92,3.43,3.43,3.43
211.44,8.50,5.08,8.50,5.08,-5.08,-4.97,3.41,3.42,3.42
213.56,8.47,5.06,8.47,5.07,-5.07,-5.02,3.40,3.41,3.41
215.69,8.44,5.04,8.45,5.05,-5.05,-5.06,3.39,3.40,3.40
217.85,8.41,5.02,8.42,5.03,-5.03,-5.11,3.38,3.39,3.39
220.03,8.39,5.01,8.39,5.01,-5.01,-5.15,3.38,3.38,3.38
222.23,8.36,4.99,8.36,4.99,-4.99,-5.20,3.37,3.37,3.37
224.45,8.33,4.97,8.33,4.97,-4.97,-5.23,3.36,3.36,3.36
226.70,8.29,4.93,8.31,4.95,-4.95,-5.27,3.34,3.36,3.36
228.96,8.26,4.91,8.28,4.93,-4.93,-5.30,3.33,3.35,3.35
231.25,8.24,4.90,8.25,4.91,-4.91,-5.33,3.33,3.34,3.34
233.57,8.23,4.89,8.22,4.88,-4.88,-5.36,3.35,3.33,3.33
235.90,8.20,4.87,8.18,4.86,-4.86,-5.38,3.34,3.33,3.33
238.26,8.18,4.85,8.15,4.83,-4.83,-5.39,3.35,3.32,3.33
240.64,8.14,4.82,8.12,4.80,-4.80,-5.40,3.34,3.32,3.32
243.05,8.10,4.78,8.08,4.77,-4.77,-5.40,3.33,3.31,3.32
245.48,8.05,4.73,8.05,4.74,-4.74,-5.40,3.31,3.31,3.31
247.93,7.99,4.68,8.01,4.70,-4.70,-5.39,3.29,3.31,3.31
250.41,7.95,4.64,7.97,4.67,-4.67,-5.37,3.28,3.30,3.31
252.92,7.90,4.60,7.93,4.64,-4.64,-5.35,3.26,3.30,3.30
255.45,7.88,4.58,7.89,4.60,-4.60,-5.31,3.28,3.29,3.30
258.00,7.86,4.57,7.85,4.57,-4.57,-5.28,3.29,3.28,3.29
260.58,7.83,4.54,7.81,4.54,-4.54,-5.23,3.29,3.28,3.29
263.19,7.80,4.52,7.78,4.50,-4.50,-5.18,3.30,3.27,3.28
265.82,7.74,4.47,7.74,4.47,-4.47,-5.12,3.27,3.27,3.27
268.48,7.70,4.43,7.70,4.44,-4.44,-5.06,3.26,3.26,3.27
271.16,7.66,4.40,7.66,4.41,-4.41,-5.00,3.25,3.26,3.26
273.87,7.61,4.36,7.63,4.37,-4.37,-4.92,3.24,3.25,3.25
276.61,7.58,4.33,7.59,4.34,-4.34,-4.85,3.24,3.25,3.25
279.38,7.55,4.31,7.55,4.30,-4.30,-4.77,3.25,3.25,3.24
282.17,7.52,4.28,7.51,4.27,-4.27,-4.68,3.25,3.24,3.24
284.99,7.48,4.25,7.46,4.23,-4.23,-4.60,3.25,3.23,3.23
287.84,7.42,4.19,7.42,4.19,-4.19,-4.51,3.23,3.23,3.23
290.72,7.38,4.15,7.38,4.15,-4.15,-4.42,3.23,3.23,3.23
293.63,7.34,4.11,7.33,4.11,-4.11,-4.33,3.23,3.23,3.23
296.57,7.30,4.07,7.29,4.06,-4.06,-4.24,3.24,3.23,3.23
299.53,7.24,4.01,7.24,4.02,-4.02,-4.15,3.22,3.23,3.23
302.53,7.19,3.96,7.20,3.97,-3.97,-4.05,3.22,3.23,3.23
305.55,7.14,3.91,7.15,3.92,-3.92,-3.96,3.22,3.23,3.23
308.61,7.10,3.87,7.10,3.87,-3.87,-3.87,3.23,3.23,3.23
311.69,7.05,3.82,7.05,3.82,-3.82,-3.78,3.23,3.23,3.23
314.81,7.01,3.78,7.00,3.77,-3.77,-3.69,3.24,3.23,3.23
317.96,6.96,3.72,6.95,3.72,-3.72,-3.60,3.24,3.23,3.23
321.14,6.90,3.66,6.90,3.67,-3.67,-3.51,3.23,3.23,3.24
324.35,6.84,3.60,6.85,3.61,-3.61,-3.42,3.22,3.24,3.24
327.59,6.79,3.55,6.80,3.56,-3.56,-3.34,3.23,3.24,3.24
330.87,6.75,3.50,6.75,3.51,-3.51,-3.26,3.24,3.24,3.25
334.18,6.70,3.45,6.70,3.45,-3.45,-3.18,3.25,3.25,3.25
337.52,6.65,3.40,6.64,3.39,-3.39,-3.10,3.26,3.25,3.25
340.90,6.59,3.34,6.58,3.33,-3.33,-3.02,3.26,3.25,3.25
344.30,6.52,3.27,6.52,3.27,-3.27,-2.95,3.25,3.25,3.25
347.75,6.48,3.22,6.46,3.21,-3.21,-2.87,3.27,3.25,3.26
351.23,6.42,3.16,6.40,3.15,-3.15,-2.80,3.27,3.26,3.26
354.74,6.36,3.10,6.34,3.08,-3.08,-2.73,3.28,3.26,3.26
358.28,6.29,3.03,6.28,3.02,-3.02,-2.67,3.27,3.26,3.26
361.87,6.22,2.95,6.22,2.96,-2.96,-2.60,3.26,3.26,3.27
365.49,6.14,2.87,6.16,2.89,-2.89,-2.54,3.25,3.27,3.27
369.14,6.08,2.81,6.09,2.83,-2.83,-2.48,3.25,3.27,3.27
372.83,6.03,2.76,6.03,2.76,-2.76,-2.43,3.27,3.27,3.27
376.56,5.98,2.70,5.98,2.70,-2.70,-2.37,3.28,3.27,3.28
380.33,5.92,2.64,5.92,2.64,-2.64,-2.32,3.28,3.28,3.28
384.13,5.86,2.57,5.87,2.58,-2.58,-2.26,3.28,3.28,3.29
387.97,5.81,2.52,5.81,2.53,-2.53,-2.21,3.28,3.29,3.29
391.85,5.75,2.45,5.76,2.47,-2.47,-2.17,3.28,3.29,3.29
395.77,5.71,2.41,5.72,2.42,-2.42,-2.12,3.29,3.30,3.30
399.73,5.67,2.36,5.67,2.37,-2.37,-2.07,3.30,3.30,3.31
403.72,5.63,2.32,5.63,2.32,-2.32,-2.03,3.31,3.31,3.31
407.76,5.59,2.27,5.59,2.27,-2.27,-1.99,3.32,3.32,3.32
411.84,5.55,2.23,5.55,2.23,-2.23,-1.95,3.32,3.32,3.32
415.96,5.51,2.18,5.51,2.18,-2.18,-1.91,3.33,3.32,3.33
420.12,5.47,2.14,5.47,2.14,-2.14,-1.87,3.33,3.33,3.33
424.32,5.43,2.09,5.43,2.09,-2.09,-1.83,3.34,3.33,3.34
428.56,5.39,2.05,5.39,2.05,-2.05,-1.79,3.34,3.34,3.34
432.85,5.35,2.01,5.34,2.00,-2.00,-1.75,3.34,3.34,3.34
437.18,5.30,1.96,5.30,1.96,-1.96,-1.72,3.34,3.34,3.34
441.55,5.25,1.90,5.26,1.91,-1.91,-1.68,3.34,3.34,3.34
445.96,5.21,1.86,5.21,1.87,-1.87,-1.64,3.34,3.34,3.35
450.42,5.17,1.82,5.17,1.82,-1.82,-1.61,3.35,3.35,3.35
454.93,5.13,1.78,5.12,1.77,-1.77,-1.57,3.36,3.35,3.35
459.48,5.08,1.73,5.07,1.72,-1.72,-1.53,3.36,3.35,3.35
464.07,5.02,1.67,5.02,1.67,-1.67,-1.49,3.35,3.35,3.35
468.71,4.96,1.61,4.96,1.61,-1.61,-1.46,3.35,3.35,3.35
473.40,4.90,1.55,4.91,1.55,-1.55,-1.42,3.35,3.36,3.35
478.13,4.85,1.49,4.85,1.49,-1.49,-1.38,3.35,3.36,3.36
482.91,4.80,1.44,4.80,1.43,-1.43,-1.33,3.37,3.36,3.36
487.74,4.75,1.38,4.74,1.37,-1.37,-1.29,3.38,3.37,3.37
492.62,4.70,1.33,4.68,1.31,-1.31,-1.25,3.39,3.38,3.37
497.55,4.62,1.24,4.62,1.24,-1.24,-1.21,3.38,3.38,3.38
502.52,4.56,1.17,4.56,1.17,-1.17,-1.16,3.38,3.39,3.39
507.55,4.50,1.10,4.50,1.11,-1.11,-1.11,3.39,3.40,3.40
512.62,4.45,1.04,4.44,1.04,-1.04,-1.06,3.41,3.41,3.41
517.75,4.38,0.96,4.38,0.97,-0.97,-1.01,3.41,3.42,3.42
522.93,4.32,0.89,4.32,0.90,-0.90,-0.96,3.42,3.43,3.43
528.16,4.26,0.82,4.26,0.83,-0.83,-0.91,3.43,3.43,3.44
533.44,4.21,0.76,4.20,0.76,-0.76,-0.85,3.45,3.44,3.45
538.77,4.14,0.68,4.14,0.69,-0.69,-0.80,3.45,3.46,3.46
544.16,4.08,0.61,4.08,0.62,-0.62,-0.74,3.46,3.47,3.47
549.60,4.02,0.54,4.02,0.54,-0.54,-0.68,3.48,3.48,3.48
555.10,3.96,0.47,3.96,0.47,-0.47,-0.62,3.49,3.49,3.49
560.65,3.90,0.40,3.90,0.40,-0.40,-0.56,3.50,3.50,3.50
566.25,3.85,0.34,3.84,0.32,-0.32,-0.50,3.53,3.52,3.51
571.92,3.78,0.25,3.78,0.25,-0.25,-0.44,3.53,3.53,3.53
577.64,3.71,0.17,3.71,0.17,-0.17,-0.38,3.54,3.54,3.54
583.41,3.66,0.10,3.65,0.10,-0.10,-0.31,3.56,3.56,3.56
589.25,3.60,0.03,3.59,0.02,-0.02,-0.24,3.58,3.57,3.57
595.14,3.52,-0.06,3.52,-0.06,0.06,-0.18,3.58,3.58,3.58
601.09,3.44,-0.16,3.46,-0.14,0.14,-0.11,3.58,3.59,3.60
607.10,3.38,-0.23,3.39,-0.21,0.21,-0.04,3.59,3.60,3.61
613.17,3.33,-0.28,3.32,-0.29,0.29,0.03,3.62,3.61,3.61
619.30,3.26,-0.36,3.25,-0.37,0.37,0.10,3.63,3.61,3.62
625.50,3.18,-0.45,3.18,-0.44,0.44,0.17,3.62,3.62,3.63
631.75,3.10,-0.53,3.11,-0.52,0.52,0.24,3.62,3.62,3.63
638.07,3.03,-0.61,3.03,-0.59,0.59,0.31,3.62,3.63,3.63
644.45,2.97,-0.67,2.96,-0.67,0.67,0.39,3.64,3.63,3.63
650.89,2.88,-0.75,2.89,-0.74,0.74,0.46,3.62,3.63,3.63
657.40,2.81,-0.82,2.81,-0.82,0.82,0.54,3.63,3.63,3.63
663.98,2.73,-0.90,2.74,-0.89,0.89,0.61,3.62,3.63,3.63
670.62,2.66,-0.97,2.66,-0.97,0.97,0.69,3.63,3.63,3.63
677.32,2.60,-1.02,2.59,-1.04,1.04,0.77,3.64,3.63,3.62
684.10,2.52,-1.10,2.51,-1.12,1.12,0.84,3.64,3.63,3.62
690.94,2.43,-1.19,2.43,-1.20,1.20,0.92,3.63,3.63,3.62
697.85,2.35,-1.28,2.35,-1.28,1.28,1.00,3.63,3.63,3.62
704.83,2.27,-1.36,2.28,-1.36,1.36,1.08,3.62,3.63,3.63
711.87,2.20,-1.43,2.20,-1.44,1.44,1.17,3.63,3.63,3.63
718.99,2.13,-1.50,2.12,-1.52,1.52,1.25,3.65,3.63,3.63
726.18,2.04,-1.59,2.04,-1.60,1.60,1.33,3.64,3.63,3.63
733.44,1.96,-1.68,1.95,-1.68,1.68,1.42,3.64,3.63,3.64
740.78,1.87,-1.77,1.87,-1.76,1.76,1.50,3.63,3.63,3.64
748.19,1.79,-1.85,1.79,-1.84,1.84,1.59,3.63,3.64,3.64
755.67,1.71,-1.93,1.71,-1.92,1.92,1.68,3.63,3.64,3.64
763.23,1.64,-2.00,1.64,-2.00,2.00,1.76,3.64,3.64,3.64
770.86,1.57,-2.07,1.56,-2.08,2.08,1.85,3.65,3.64,3.64
778.57,1.49,-2.15,1.49,-2.15,2.15,1.94,3.64,3.64,3.64
786.35,1.40,-2.24,1.41,-2.23,2.23,2.03,3.63,3.64,3.64
794.22,1.33,-2.31,1.34,-2.30,2.30,2.12,3.63,3.64,3.64
