frequency,raw,error,smoothed,error_smoothed,equalization,parametric_eq,equalized_raw,equalized_smoothed,target
20,-10.80,-9.80,-10.67,-9.64,6.00,2.64,-4.80,-4.67,-0.99
21,-10.25,-9.25,-10.24,-9.22,6.00,3.03,-4.25,-4.24,-0.99
22,-9.82,-8.82,-9.84,-8.82,6.00,3.46,-3.82,-3.84,-0.99
23,-9.38,-8.38,-9.46,-8.45,6.00,3.92,-3.38,-3.46,-0.99
24,-9.06,-8.06,-9.11,-8.11,6.00,4.41,-3.06,-3.11,-0.99
25,-8.76,-7.76,-8.78,-7.79,6.00,4.91,-2.76,-2.78,-0.99
26,-8.48,-7.48,-8.48,-7.49,6.00,5.42,-2.48,-2.48,-0.99
27,-8.20,-7.20,-8.21,-7.22,6.00,5.90,-2.20,-2.21,-0.99
28,-7.88,-6.88,-7.96,-6.97,6.00,6.33,-1.88,-1.96,-0.99
29,-7.74,-6.74,-7.74,-6.75,6.00,6.69,-1.74,-1.74,-0.99
30,-7.55,-6.55,-7.54,-6.55,6.00,6.95,-1.55,-1.54,-0.99
31,-7.39,-6.39,-7.39,-6.39,6.00,7.10,-1.39,-1.39,-0.99
32,-7.23,-6.23,-7.26,-6.26,6.00,7.15,-1.23,-1.26,-0.99
33,-7.23,-6.23,-7.15,-6.15,5.99,7.10,-1.24,-1.16,-0.99
34,-7.07,-6.07,-7.06,-6.07,5.97,6.98,-1.09,-1.09,-0.99
35,-6.90,-5.90,-6.99,-6.00,5.95,6.82,-0.95,-1.04,-0.99
36,-6.90,-5.90,-6.94,-5.94,5.92,6.63,-0.97,-1.02,-0.99
37,-6.90,-5.90,-6.91,-5.91,5.90,6.43,-1.00,-1.01,-0.99
38,-6.90,-5.90,-6.89,-5.88,5.88,6.23,-1.02,-1.01,-0.99
39,-6.90,-5.90,-6.87,-5.87,5.87,6.05,-1.03,-1.01,-0.99
40,-6.90,-5.90,-6.87,-5.86,5.86,5.89,-1.04,-1.01,-0.99
41,-6.90,-5.90,-6.87,-5.86,5.86,5.76,-1.04,-1.01,-0.99
42,-6.90,-5.90,-6.87,-5.86,5.86,5.64,-1.04,-1.01,-0.99
43,-6.90,-5.90,-6.87,-5.86,5.86,5.55,-1.04,-1.01,-0.99
44,-6.90,-5.90,-6.88,-5.86,5.86,5.49,-1.04,-1.02,-0.99
45,-6.90,-5.90,-6.88,-5.87,5.87,5.45,-1.03,-1.02,-0.99
46,-6.90,-5.90,-6.88,-5.87,5.87,5.43,-1.03,-1.00,-0.99
47,-6.90,-5.90,-6.88,-5.88,5.88,5.42,-1.02,-1.00,-0.99
48,-6.90,-5.90,-6.89,-5.89,5.89,5.44,-1.01,-1.00,-0.99
49,-6.90,-5.90,-6.91,-5.91,5.91,5.47,-0.99,-1.00,-0.99
50,-6.90,-5.90,-6.93,-5.93,5.93,5.51,-0.97,-1.00,-0.99
51,-6.90,-5.90,-6.96,-5.95,5.95,5.57,-0.95,-1.01,-0.99
52,-6.90,-5.90,-6.99,-5.98,5.96,5.63,-0.93,-1.02,-0.99
53,-7.04,-6.04,-7.02,-6.01,5.98,5.69,-1.06,-1.04,-0.99
54,-6.93,-5.93,-7.05,-6.05,5.99,5.76,-0.94,-1.06,-0.99
55,-7.14,-6.14,-7.09,-6.09,6.00,5.83,-1.14,-1.09,-0.99
56,-7.23,-6.23,-7.12,-6.12,6.00,5.89,-1.23,-1.12,-0.99
57,-7.23,-6.23,-7.16,-6.16,6.00,5.95,-1.23,-1.16,-0.99
58,-7.23,-6.23,-7.20,-6.19,6.00,6.01,-1.23,-1.20,-0.99
59,-7.23,-6.23,-7.23,-6.21,6.00,6.05,-1.23,-1.23,-0.99
60,-7.23,-6.23,-7.25,-6.22,6.00,6.08,-1.23,-1.25,-0.99
61,-7.23,-6.23,-7.25,-6.23,6.00,6.11,-1.23,-1.25,-0.99
62,-7.23,-6.23,-7.24,-6.22,6.00,6.12,-1.23,-1.24,-0.99
63,-7.23,-6.23,-7.22,-6.20,6.00,6.12,-1.23,-1.22,-0.99
64,-7.23,-6.23,-7.19,-6.18,6.00,6.11,-1.23,-1.19,-0.99
65,-7.23,-6.23,-7.15,-6.15,6.00,6.09,-1.23,-1.15,-0.99
66,-7.21,-6.21,-7.11,-6.11,6.00,6.06,-1.21,-1.11,-0.99
67,-7.07,-6.07,-7.08,-6.08,6.00,6.03,-1.07,-1.08,-0.99
68,-7.03,-6.03,-7.05,-6.04,5.99,5.98,-1.03,-1.05,-0.99
69,-6.90,-5.90,-7.02,-6.01,5.98,5.94,-0.92,-1.04,-0.99
70,-6.90,-5.90,-6.99,-5.97,5.96,5.89,-0.94,-1.03,-0.99
71,-6.90,-5.90,-6.96,-5.94,5.94,5.84,-0.96,-1.02,-0.99
72,-6.90,-5.90,-6.93,-5.91,5.91,5.79,-0.98,-1.02,-0.99
73,-6.90,-5.90,-6.90,-5.89,5.89,5.74,-1.01,-1.02,-0.99
74,-6.90,-5.90,-6.87,-5.86,5.86,5.69,-1.04,-1.01,-0.99
75,-6.90,-5.90,-6.85,-5.84,5.84,5.64,-1.06,-1.01,-0.99
76,-6.90,-5.90,-6.82,-5.81,5.81,5.60,-1.09,-1.01,-0.99
77,-6.90,-5.90,-6.80,-5.78,5.78,5.56,-1.11,-1.02,-0.99
78,-6.78,-5.78,-6.78,-5.76,5.76,5.53,-1.02,-1.02,-0.99
79,-6.74,-5.74,-6.75,-5.73,5.73,5.50,-1.00,-1.02,-0.99
80,-6.74,-5.74,-6.72,-5.71,5.71,5.48,-1.03,-1.01,-0.99
81,-6.68,-5.68,-6.69,-5.68,5.68,5.46,-1.00,-1.01,-0.99
82,-6.58,-5.58,-6.66,-5.65,5.65,5.45,-0.93,-1.00,-0.99
83,-6.58,-5.58,-6.63,-5.63,5.63,5.44,-0.95,-1.00,-0.99
84,-6.58,-5.58,-6.60,-5.61,5.61,5.44,-0.97,-1.00,-0.99
85,-6.58,-5.58,-6.59,-5.59,5.59,5.45,-0.99,-0.99,-0.99
86,-6.58,-5.58,-6.57,-5.58,5.58,5.46,-1.00,-0.99,-0.99
87,-6.58,-5.58,-6.56,-5.57,5.57,5.47,-1.01,-1.00,-0.99
88,-6.58,-5.58,-6.57,-5.56,5.56,5.49,-1.02,-1.01,-0.99
89,-6.58,-5.58,-6.56,-5.55,5.55,5.52,-1.02,-1.01,-0.99
90,-6.58,-5.58,-6.56,-5.55,5.55,5.55,-1.02,-1.00,-0.99
91,-6.58,-5.58,-6.56,-5.55,5.55,5.59,-1.02,-1.01,-0.99
92,-6.58,-5.58,-6.56,-5.56,5.56,5.63,-1.02,-1.01,-0.99
93,-6.58,-5.58,-6.56,-5.56,5.56,5.67,-1.01,-1.00,-0.99
94,-6.58,-5.58,-6.57,-5.57,5.57,5.72,-1.00,-0.99,-0.99
95,-6.58,-5.58,-6.58,-5.59,5.59,5.77,-0.99,-1.00,-0.99
96,-6.58,-5.58,-6.60,-5.60,5.60,5.83,-0.98,-1.00,-0.99
97,-6.58,-5.58,-6.63,-5.62,5.62,5.89,-0.96,-1.01,-0.99
98,-6.58,-5.58,-6.65,-5.65,5.65,5.95,-0.93,-1.01,-0.99
99,-6.64,-5.64,-6.69,-5.67,5.67,6.02,-0.97,-1.01,-0.99
100,-6.74,-5.74,-6.71,-5.70,5.70,6.08,-1.04,-1.02,-0.99
101,-6.74,-5.74,-6.74,-5.72,5.72,6.15,-1.01,-1.02,-0.99
102,-6.81,-5.81,-6.77,-5.75,5.75,6.22,-1.05,-1.01,-0.99
104,-6.90,-5.90,-6.79,-5.78,5.78,6.36,-1.11,-1.01,-0.99
105,-6.90,-5.90,-6.83,-5.82,5.82,6.43,-1.08,-1.01,-0.99
106,-6.90,-5.90,-6.86,-5.85,5.85,6.50,-1.05,-1.01,-0.99
107,-6.90,-5.90,-6.90,-5.88,5.88,6.57,-1.02,-1.02,-0.99
108,-6.90,-5.90,-6.94,-5.91,5.91,6.64,-0.98,-1.02,-0.99
109,-6.90,-5.90,-6.97,-5.95,5.94,6.71,-0.96,-1.03,-0.99
110,-6.90,-5.90,-6.99,-5.98,5.96,6.77,-0.93,-1.03,-0.99
111,-6.96,-5.96,-7.02,-6.02,5.98,6.83,-0.98,-1.04,-0.99
112,-7.06,-6.06,-7.05,-6.05,5.99,6.89,-1.07,-1.06,-0.99
113,-7.16,-6.16,-7.09,-6.09,6.00,6.94,-1.16,-1.09,-0.99
114,-7.23,-6.23,-7.14,-6.14,6.00,6.99,-1.23,-1.14,-0.99
115,-7.23,-6.23,-7.19,-6.18,6.00,7.04,-1.23,-1.19,-0.99
117,-7.23,-6.23,-7.23,-6.23,6.00,7.11,-1.23,-1.23,-0.99
118,-7.23,-6.23,-7.28,-6.28,6.00,7.14,-1.23,-1.28,-0.99
119,-7.26,-6.26,-7.33,-6.33,6.00,7.17,-1.26,-1.33,-0.99
120,-7.35,-6.35,-7.37,-6.38,6.00,7.18,-1.35,-1.37,-0.99
121,-7.45,-6.45,-7.42,-6.42,6.00,7.19,-1.45,-1.42,-0.99
123,-7.55,-6.55,-7.47,-6.47,6.00,7.19,-1.55,-1.47,-0.99
124,-7.55,-6.55,-7.51,-6.52,6.00,7.18,-1.55,-1.51,-0.99
125,-7.55,-6.55,-7.56,-6.57,6.00,7.16,-1.55,-1.56,-0.99
126,-7.55,-6.55,-7.61,-6.62,6.00,7.14,-1.55,-1.61,-0.99
128,-7.59,-6.59,-7.67,-6.66,6.00,7.08,-1.59,-1.67,-0.99
129,-7.68,-6.68,-7.71,-6.70,6.00,7.04,-1.68,-1.71,-0.99
130,-7.77,-6.77,-7.76,-6.74,6.00,6.99,-1.77,-1.76,-0.99
131,-7.86,-6.86,-7.79,-6.78,6.00,6.94,-1.86,-1.79,-0.99
133,-7.88,-6.88,-7.81,-6.81,6.00,6.82,-1.88,-1.81,-0.99
134,-7.88,-6.88,-7.84,-6.83,6.00,6.76,-1.88,-1.84,-0.99
135,-7.88,-6.88,-7.86,-6.85,6.00,6.69,-1.88,-1.86,-0.99
137,-7.88,-6.88,-7.88,-6.87,6.00,6.54,-1.88,-1.88,-0.99
138,-7.88,-6.88,-7.89,-6.88,6.00,6.46,-1.88,-1.89,-0.99
140,-7.88,-6.88,-7.90,-6.89,6.00,6.30,-1.88,-1.90,-0.99
141,-7.88,-6.88,-7.90,-6.89,6.00,6.22,-1.88,-1.90,-0.99
142,-7.88,-6.88,-7.89,-6.90,6.00,6.13,-1.88,-1.89,-0.99
144,-7.88,-6.88,-7.89,-6.90,6.00,5.96,-1.88,-1.89,-0.99
145,-7.88,-6.88,-7.89,-6.90,6.00,5.87,-1.88,-1.89,-0.99
147,-7.88,-6.88,-7.89,-6.90,6.00,5.69,-1.88,-1.89,-0.99
148,-7.88,-6.88,-7.89,-6.90,6.00,5.60,-1.88,-1.89,-0.99
150,-7.88,-6.88,-7.90,-6.89,6.00,5.43,-1.88,-1.90,-0.99
151,-7.88,-6.88,-7.89,-6.89,6.00,5.34,-1.88,-1.89,-0.99
153,-7.88,-6.88,-7.88,-6.88,6.00,5.17,-1.88,-1.88,-0.99
154,-7.88,-6.88,-7.87,-6.87,6.00,5.08,-1.88,-1.87,-0.99
156,-7.88,-6.88,-7.85,-6.85,6.00,4.91,-1.88,-1.85,-0.99
157,-7.88,-6.88,-7.83,-6.83,6.00,4.83,-1.88,-1.83,-0.99
159,-7.82,-6.82,-7.80,-6.79,6.00,4.67,-1.82,-1.80,-0.99
160,-7.75,-6.75,-7.76,-6.76,6.00,4.59,-1.75,-1.76,-0.99
162,-7.71,-6.71,-7.71,-6.71,6.00,4.44,-1.71,-1.71,-0.99
164,-7.63,-6.63,-7.66,-6.65,6.00,4.29,-1.63,-1.66,-0.99
165,-7.56,-6.56,-7.59,-6.59,6.00,4.21,-1.56,-1.59,-0.99
167,-7.55,-6.55,-7.52,-6.52,6.00,4.07,-1.55,-1.52,-0.99
169,-7.45,-6.45,-7.43,-6.44,6.00,3.94,-1.45,-1.43,-0.99
170,-7.39,-6.39,-7.34,-6.35,6.00,3.87,-1.39,-1.34,-0.99
172,-7.26,-6.26,-7.25,-6.26,6.00,3.74,-1.26,-1.25,-0.99
174,-7.13,-6.13,-7.16,-6.16,6.00,3.62,-1.13,-1.16,-0.99
175,-7.06,-6.06,-7.07,-6.06,5.99,3.56,-1.07,-1.07,-0.99
177,-6.93,-5.93,-6.96,-5.95,5.98,3.44,-0.95,-0.98,-0.99
179,-6.81,-5.81,-6.84,-5.83,5.94,3.33,-0.87,-0.90,-0.99
181,-6.68,-5.68,-6.71,-5.70,5.80,3.22,-0.88,-0.91,-0.99
183,-6.56,-5.56,-6.58,-5.57,5.57,3.12,-0.99,-1.01,-0.99
184,-6.49,-5.49,-6.43,-5.43,5.43,3.07,-1.06,-1.01,-0.99
186,-6.37,-5.37,-6.29,-5.28,5.28,2.97,-1.08,-1.00,-0.99
188,-6.25,-5.25,-6.14,-5.13,5.13,2.88,-1.11,-1.01,-0.99
190,-6.01,-5.01,-5.99,-4.98,4.98,2.79,-1.03,-1.01,-0.99
192,-5.77,-4.77,-5.83,-4.82,4.82,2.70,-0.95,-1.01,-0.99
194,-5.57,-4.57,-5.66,-4.66,4.66,2.62,-0.91,-1.01,-0.99
196,-5.46,-4.46,-5.50,-4.49,4.49,2.54,-0.97,-1.01,-0.99
198,-5.34,-4.34,-5.33,-4.32,4.32,2.46,-1.01,-1.01,-0.99
200,-5.17,-4.17,-5.16,-4.15,4.15,2.39,-1.01,-1.01,-0.99
202,-4.95,-3.95,-4.98,-3.98,3.98,2.32,-0.96,-1.00,-0.99
204,-4.84,-3.84,-4.81,-3.81,3.81,2.25,-1.03,-0.99,-0.99
206,-4.67,-3.67,-4.64,-3.64,3.64,2.18,-1.03,-0.99,-0.99
208,-4.46,-3.46,-4.47,-3.47,3.47,2.12,-0.99,-1.00,-0.99
210,-4.35,-3.35,-4.30,-3.30,3.30,2.06,-1.05,-1.00,-0.99
212,-4.18,-3.18,-4.14,-3.14,3.14,2.00,-1.04,-1.01,-0.99
214,-3.97,-2.97,-3.98,-2.97,2.97,1.94,-1.00,-1.01,-0.99
216,-3.76,-2.76,-3.81,-2.81,2.81,1.89,-0.95,-1.00,-0.99
218,-3.61,-2.61,-3.64,-2.64,2.64,1.83,-0.97,-1.00,-0.99
221,-3.45,-2.45,-3.48,-2.48,2.48,1.75,-0.97,-1.00,-0.99
223,-3.35,-2.35,-3.32,-2.32,2.32,1.70,-1.03,-1.00,-0.99
225,-3.16,-2.16,-3.16,-2.16,2.16,1.66,-0.99,-0.99,-0.99
227,-2.99,-1.99,-3.00,-2.01,2.01,1.61,-0.98,-0.99,-0.99
229,-2.89,-1.89,-2.86,-1.86,1.86,1.56,-1.03,-1.00,-0.99
232,-2.74,-1.74,-2.71,-1.71,1.71,1.49,-1.03,-1.00,-0.99
234,-2.60,-1.60,-2.57,-1.57,1.57,1.45,-1.03,-1.00,-0.99
236,-2.41,-1.41,-2.43,-1.43,1.43,1.41,-0.98,-1.00,-0.99
239,-2.24,-1.24,-2.29,-1.29,1.29,1.35,-0.95,-1.00,-0.99
241,-2.15,-1.15,-2.15,-1.16,1.16,1.31,-0.99,-1.00,-0.99
244,-2.01,-1.01,-2.02,-1.03,1.03,1.25,-0.98,-0.99,-0.99
246,-1.92,-0.92,-1.89,-0.90,0.90,1.21,-1.02,-0.99,-0.99
248,-1.83,-0.83,-1.78,-0.78,0.78,1.17,-1.05,-1.00,-0.99
251,-1.67,-0.67,-1.66,-0.66,0.66,1.12,-1.01,-1.00,-0.99
253,-1.49,-0.49,-1.54,-0.55,0.55,1.08,-0.94,-0.99,-0.99
256,-1.39,-0.39,-1.44,-0.44,0.44,1.03,-0.95,-1.00,-0.99
259,-1.34,-0.34,-1.34,-0.33,0.33,0.98,-1.00,-1.01,-0.99
261,-1.25,-0.25,-1.24,-0.23,0.23,0.95,-1.02,-1.01,-0.99
264,-1.12,-0.12,-1.14,-0.13,0.13,0.90,-0.99,-1.00,-0.99
266,-1.07,-0.07,-1.03,-0.04,0.04,0.87,-1.03,-1.00,-0.99
269,-1.07,-0.07,-0.94,0.05,-0.05,0.82,-1.12,-1.00,-0.99
272,-0.83,0.17,-0.86,0.14,-0.14,0.77,-0.97,-1.00,-0.99
274,-0.74,0.26,-0.78,0.22,-0.22,0.74,-0.96,-1.00,-0.99
277,-0.74,0.26,-0.71,0.30,-0.30,0.69,-1.04,-1.01,-0.99
280,-0.62,0.38,-0.63,0.37,-0.37,0.65,-0.99,-1.00,-0.99
283,-0.50,0.50,-0.56,0.44,-0.44,0.61,-0.94,-1.00,-0.99
286,-0.42,0.58,-0.49,0.51,-0.51,0.56,-0.93,-1.00,-0.99
288,-0.42,0.58,-0.43,0.57,-0.57,0.53,-0.99,-1.00,-0.99
291,-0.42,0.58,-0.37,0.63,-0.63,0.49,-1.05,-1.00,-0.99
294,-0.39,0.61,-0.31,0.69,-0.69,0.45,-1.08,-1.00,-0.99
297,-0.28,0.72,-0.24,0.75,-0.75,0.41,-1.03,-0.99,-0.99
300,-0.16,0.84,-0.20,0.80,-0.80,0.37,-0.96,-1.00,-0.99
303,-0.09,0.91,-0.14,0.86,-0.86,0.33,-0.95,-1.00,-0.99
306,-0.09,0.91,-0.09,0.91,-0.91,0.28,-1.00,-1.00,-0.99
309,-0.09,0.91,-0.04,0.97,-0.97,0.24,-1.06,-1.01,-0.99
312,-0.05,0.95,0.02,1.03,-1.03,0.20,-1.07,-1.01,-0.99
316,0.10,1.10,0.08,1.08,-1.08,0.15,-0.98,-1.00,-0.99
319,0.21,1.21,0.15,1.14,-1.14,0.11,-0.93,-0.99,-0.99
322,0.23,1.23,0.21,1.19,-1.19,0.07,-0.96,-0.99,-0.99
325,0.23,1.23,0.26,1.25,-1.25,0.03,-1.02,-0.99,-0.99
328,0.23,1.23,0.30,1.30,-1.30,-0.00,-1.07,-1.00,-0.99
332,0.33,1.33,0.35,1.36,-1.36,-0.06,-1.02,-1.01,-0.99
335,0.43,1.43,0.40,1.41,-1.41,-0.09,-0.98,-1.01,-0.99
338,0.53,1.53,0.46,1.46,-1.46,-0.13,-0.93,-1.00,-0.99
342,0.56,1.56,0.52,1.51,-1.51,-0.18,-0.95,-1.00,-0.99
345,0.56,1.56,0.56,1.57,-1.57,-0.22,-1.00,-1.00,-0.99
349,0.56,1.56,0.61,1.62,-1.62,-0.27,-1.05,-1.01,-0.99
352,0.56,1.56,0.66,1.66,-1.66,-0.31,-1.10,-1.01,-0.99
356,0.63,1.63,0.70,1.70,-1.70,-0.36,-1.07,-1.00,-0.99
359,0.73,1.73,0.75,1.74,-1.74,-0.40,-1.01,-1.00,-0.99
363,0.85,1.85,0.78,1.78,-1.78,-0.45,-0.93,-1.00,-0.99
366,0.88,1.88,0.81,1.81,-1.81,-0.49,-0.93,-1.00,-0.99
370,0.88,1.88,0.83,1.84,-1.84,-0.54,-0.96,-1.01,-0.99
374,0.88,1.88,0.85,1.86,-1.86,-0.59,-0.98,-1.01,-0.99
377,0.88,1.88,0.87,1.88,-1.88,-0.63,-1.00,-1.01,-0.99
381,0.88,1.88,0.89,1.89,-1.89,-0.68,-1.01,-1.00,-0.99
385,0.88,1.88,0.90,1.90,-1.90,-0.73,-1.02,-1.00,-0.99
389,0.88,1.88,0.91,1.91,-1.91,-0.77,-1.03,-1.00,-0.99
393,0.88,1.88,0.91,1.91,-1.91,-0.82,-1.03,-1.00,-0.99
397,0.88,1.88,0.90,1.91,-1.91,-0.87,-1.03,-1.01,-0.99
401,0.88,1.88,0.90,1.91,-1.91,-0.92,-1.02,-1.01,-0.99
405,0.88,1.88,0.90,1.90,-1.90,-0.97,-1.02,-1.00,-0.99
409,0.88,1.88,0.89,1.89,-1.89,-1.02,-1.01,-1.00,-0.99
413,0.88,1.88,0.87,1.87,-1.87,-1.06,-0.99,-1.00,-0.99
417,0.88,1.88,0.85,1.86,-1.86,-1.11,-0.98,-1.01,-0.99
421,0.88,1.88,0.83,1.84,-1.84,-1.15,-0.95,-1.01,-0.99
425,0.88,1.88,0.81,1.81,-1.81,-1.19,-0.93,-1.01,-0.99
430,0.78,1.78,0.78,1.78,-1.78,-1.25,-1.00,-1.00,-0.99
434,0.72,1.72,0.76,1.75,-1.75,-1.29,-1.03,-1.00,-0.99
438,0.72,1.72,0.72,1.72,-1.72,-1.33,-0.99,-1.00,-0.99
443,0.60,1.60,0.68,1.68,-1.68,-1.37,-1.08,-1.00,-0.99
447,0.56,1.56,0.63,1.64,-1.64,-1.41,-1.07,-1.01,-0.99
451,0.56,1.56,0.58,1.59,-1.59,-1.44,-1.03,-1.01,-0.99
456,0.56,1.56,0.53,1.55,-1.55,-1.48,-0.99,-1.01,-0.99
460,0.56,1.56,0.49,1.50,-1.50,-1.51,-0.94,-1.01,-0.99
465,0.54,1.54,0.46,1.46,-1.46,-1.55,-0.91,-1.00,-0.99
470,0.42,1.42,0.41,1.41,-1.41,-1.58,-0.99,-1.00,-0.99
474,0.33,1.33,0.37,1.37,-1.37,-1.60,-1.03,-0.99,-0.99
479,0.23,1.23,0.32,1.32,-1.32,-1.63,-1.09,-1.00,-0.99
484,0.23,1.23,0.27,1.27,-1.27,-1.65,-1.04,-1.00,-0.99
489,0.23,1.23,0.23,1.23,-1.23,-1.67,-1.00,-1.00,-0.99
494,0.23,1.23,0.18,1.18,-1.18,-1.68,-0.95,-1.00,-0.99
499,0.23,1.23,0.13,1.14,-1.14,-1.70,-0.91,-1.00,-0.99
504,0.12,1.12,0.09,1.09,-1.09,-1.71,-0.97,-1.01,-0.99
509,0.01,1.01,0.05,1.05,-1.05,-1.71,-1.04,-1.00,-0.99
514,-0.09,0.91,0.01,1.00,-1.00,-1.71,-1.09,-1.00,-0.99
519,-0.09,0.91,-0.03,0.96,-0.96,-1.71,-1.05,-0.99,-0.99
524,-0.09,0.91,-0.07,0.92,-0.92,-1.71,-1.01,-0.99,-0.99
529,-0.09,0.91,-0.12,0.88,-0.88,-1.71,-0.96,-1.00,-0.99
535,-0.09,0.91,-0.17,0.83,-0.83,-1.70,-0.92,-1.00,-0.99
540,-0.17,0.83,-0.22,0.79,-0.79,-1.69,-0.96,-1.01,-0.99
545,-0.26,0.74,-0.26,0.75,-0.75,-1.68,-1.01,-1.01,-0.99
551,-0.26,0.74,-0.29,0.72,-0.72,-1.66,-0.98,-1.01,-0.99
556,-0.34,0.66,-0.32,0.69,-0.69,-1.64,-1.02,-1.01,-0.99
562,-0.42,0.58,-0.34,0.66,-0.66,-1.62,-1.08,-1.00,-0.99
568,-0.42,0.58,-0.37,0.63,-0.63,-1.60,-1.05,-1.00,-0.99
573,-0.42,0.58,-0.39,0.61,-0.61,-1.58,-1.03,-1.00,-0.99
579,-0.42,0.58,-0.41,0.60,-0.60,-1.56,-1.01,-1.01,-0.99
585,-0.42,0.58,-0.43,0.58,-0.58,-1.54,-1.00,-1.01,-0.99
591,-0.42,0.58,-0.43,0.57,-0.57,-1.51,-0.99,-1.01,-0.99
596,-0.42,0.58,-0.43,0.56,-0.56,-1.49,-0.98,-1.00,-0.99
602,-0.42,0.58,-0.43,0.56,-0.56,-1.47,-0.98,-0.99,-0.99
608,-0.42,0.58,-0.43,0.56,-0.56,-1.44,-0.98,-0.99,-0.99
615,-0.42,0.58,-0.43,0.56,-0.56,-1.41,-0.97,-0.98,-0.99
621,-0.42,0.58,-0.43,0.56,-0.56,-1.39,-0.98,-0.99,-0.99
627,-0.42,0.58,-0.44,0.56,-0.56,-1.37,-0.98,-1.00,-0.99
633,-0.42,0.58,-0.44,0.57,-0.57,-1.34,-0.99,-1.01,-0.99
639,-0.42,0.58,-0.44,0.58,-0.58,-1.32,-1.00,-1.01,-0.99
646,-0.42,0.58,-0.42,0.59,-0.59,-1.30,-1.01,-1.01,-0.99
652,-0.42,0.58,-0.40,0.61,-0.61,-1.27,-1.03,-1.01,-0.99
659,-0.42,0.58,-0.38,0.63,-0.63,-1.25,-1.05,-1.01,-0.99
665,-0.42,0.58,-0.35,0.66,-0.66,-1.23,-1.07,-1.00,-0.99
672,-0.42,0.58,-0.32,0.68,-0.68,-1.21,-1.10,-1.00,-0.99
679,-0.35,0.65,-0.29,0.71,-0.71,-1.19,-1.06,-1.00,-0.99
686,-0.23,0.77,-0.26,0.75,-0.75,-1.17,-0.98,-1.01,-0.99
692,-0.13,0.87,-0.23,0.78,-0.78,-1.16,-0.91,-1.01,-0.99
699,-0.09,0.91,-0.20,0.82,-0.82,-1.14,-0.91,-1.02,-0.99
706,-0.09,0.91,-0.17,0.85,-0.85,-1.12,-0.94,-1.02,-0.99
713,-0.09,0.91,-0.13,0.89,-0.89,-1.11,-0.98,-1.01,-0.99
721,-0.09,0.91,-0.08,0.93,-0.93,-1.09,-1.01,-1.01,-0.99
728,-0.09,0.91,-0.04,0.96,-0.96,-1.08,-1.05,-1.00,-0.99
735,-0.09,0.91,-0.00,1.00,-1.00,-1.07,-1.09,-1.00,-0.99
742,-0.09,0.91,0.03,1.03,-1.03,-1.06,-1.12,-1.00,-0.99
750,-0.03,0.97,0.06,1.07,-1.07,-1.05,-1.09,-1.01,-0.99
757,0.07,1.07,0.08,1.10,-1.10,-1.04,-1.02,-1.01,-0.99
765,0.19,1.19,0.11,1.13,-1.13,-1.03,-0.93,-1.02,-0.99
773,0.23,1.23,0.14,1.15,-1.15,-1.02,-0.92,-1.01,-0.99
780,0.23,1.23,0.17,1.18,-1.18,-1.01,-0.94,-1.00,-0.99
788,0.23,1.23,0.20,1.20,-1.20,-1.01,-0.96,-1.00,-0.99
796,0.23,1.23,0.22,1.21,-1.21,-1.00,-0.98,-0.99,-0.99
804,0.23,1.23,0.24,1.23,-1.23,-1.00,-0.99,-0.99,-0.99
812,0.23,1.23,0.25,1.24,-1.24,-0.99,-1.00,-0.99,-0.99
820,0.23,1.23,0.25,1.24,-1.24,-0.99,-1.01,-0.99,-0.99
828,0.23,1.23,0.25,1.25,-1.25,-0.98,-1.01,-1.00,-0.99
837,0.23,1.23,0.24,1.25,-1.25,-0.98,-1.02,-1.01,-0.99
845,0.23,1.23,0.23,1.25,-1.25,-0.98,-1.01,-1.01,-0.99
853,0.23,1.23,0.23,1.24,-1.24,-0.97,-1.01,-1.01,-0.99
862,0.23,1.23,0.24,1.24,-1.24,-0.97,-1.01,-1.00,-0.99
871,0.23,1.23,0.24,1.24,-1.24,-0.97,-1.01,-1.00,-0.99
879,0.23,1.23,0.24,1.24,-1.24,-0.97,-1.01,-0.99,-0.99
888,0.23,1.23,0.24,1.23,-1.23,-0.96,-1.00,-0.99,-0.99
897,0.23,1.23,0.23,1.23,-1.23,-0.96,-0.99,-1.00,-0.99
906,0.23,1.23,0.22,1.22,-1.22,-0.95,-0.98,-0.99,-0.99
915,0.23,1.23,0.21,1.20,-1.20,-0.95,-0.97,-0.99,-0.99
924,0.23,1.23,0.20,1.19,-1.19,-0.95,-0.96,-0.99,-0.99
933,0.23,1.23,0.18,1.17,-1.17,-0.94,-0.94,-0.99,-0.99
943,0.18,1.18,0.16,1.15,-1.15,-0.93,-0.97,-0.99,-0.99
952,0.07,1.07,0.13,1.12,-1.12,-0.93,-1.05,-0.99,-0.99
962,0.07,1.07,0.10,1.10,-1.10,-0.92,-1.03,-0.99,-0.99
971,0.07,1.07,0.07,1.07,-1.07,-0.91,-1.00,-1.00,-0.99
981,0.07,1.07,0.05,1.04,-1.04,-0.90,-0.97,-1.00,-0.99
991,0.07,1.07,0.02,1.02,-1.02,-0.89,-0.95,-1.00,-0.99
1001,-0.01,0.99,-0.01,0.99,-0.99,-0.87,-1.00,-1.00,-0.99
1011,-0.09,0.91,-0.03,0.97,-0.97,-0.86,-1.06,-1.00,-0.99
1021,-0.09,0.91,-0.05,0.95,-0.95,-0.85,-1.04,-1.01,-0.99
1031,-0.09,0.91,-0.07,0.94,-0.94,-0.83,-1.02,-1.00,-0.99
1041,-0.09,0.91,-0.08,0.92,-0.92,-0.81,-1.01,-1.00,-0.99
1052,-0.09,0.91,-0.08,0.92,-0.92,-0.80,-1.00,-1.00,-0.99
1062,-0.09,0.91,-0.09,0.91,-0.91,-0.78,-1.00,-1.00,-0.99
1073,-0.09,0.91,-0.10,0.91,-0.91,-0.76,-1.00,-1.01,-0.99
1084,-0.09,0.91,-0.10,0.91,-0.91,-0.74,-1.00,-1.01,-0.99
1094,-0.09,0.91,-0.09,0.91,-0.91,-0.72,-1.00,-1.00,-0.99
1105,-0.09,0.91,-0.08,0.91,-0.91,-0.69,-1.00,-0.99,-0.99
1116,-0.09,0.91,-0.07,0.92,-0.92,-0.67,-1.00,-0.99,-0.99
1128,-0.09,0.91,-0.07,0.92,-0.92,-0.64,-1.00,-0.99,-0.99
1139,-0.09,0.91,-0.07,0.91,-0.91,-0.62,-1.00,-0.99,-0.99
1150,-0.09,0.91,-0.08,0.91,-0.91,-0.59,-0.99,-0.99,-0.99
1162,-0.09,0.91,-0.10,0.90,-0.90,-0.57,-0.98,-0.99,-0.99
1173,-0.09,0.91,-0.12,0.88,-0.88,-0.54,-0.97,-1.00,-0.99
1185,-0.09,0.91,-0.13,0.86,-0.86,-0.51,-0.95,-1.00,-0.99
1197,-0.09,0.91,-0.15,0.84,-0.84,-0.48,-0.92,-0.99,-0.99
1209,-0.19,0.81,-0.19,0.81,-0.81,-0.46,-0.99,-0.99,-0.99
1221,-0.26,0.74,-0.22,0.77,-0.77,-0.43,-1.03,-0.99,-0.99
1233,-0.26,0.74,-0.26,0.73,-0.73,-0.40,-0.98,-0.99,-0.99
1246,-0.37,0.63,-0.31,0.68,-0.68,-0.37,-1.05,-0.99,-0.99
1258,-0.42,0.58,-0.36,0.63,-0.63,-0.34,-1.05,-0.99,-0.99
1271,-0.42,0.58,-0.42,0.58,-0.58,-0.31,-0.99,-1.00,-0.99
1283,-0.42,0.58,-0.48,0.52,-0.52,-0.28,-0.94,-1.00,-0.99
1296,-0.49,0.51,-0.54,0.46,-0.46,-0.25,-0.94,-1.00,-0.99
1309,-0.60,0.40,-0.61,0.39,-0.39,-0.22,-0.99,-1.00,-0.99
1322,-0.72,0.28,-0.68,0.32,-0.32,-0.19,-1.04,-1.00,-0.99
1335,-0.74,0.26,-0.74,0.25,-0.25,-0.16,-0.99,-0.99,-0.99
1349,-0.78,0.22,-0.80,0.18,-0.18,-0.13,-0.96,-0.98,-0.99
1362,-0.89,0.11,-0.88,0.11,-0.11,-0.10,-1.00,-0.99,-0.99
1376,-1.01,-0.01,-0.96,0.03,-0.03,-0.07,-1.04,-0.99,-0.99
1390,-1.07,-0.07,-1.04,-0.05,0.05,-0.04,-1.02,-1.00,-0.99
1404,-1.07,-0.07,-1.12,-0.13,0.13,-0.01,-0.94,-0.99,-0.99
1418,-1.18,-0.18,-1.20,-0.21,0.21,0.02,-0.97,-1.00,-0.99
1432,-1.29,-0.29,-1.29,-0.29,0.29,0.06,-1.00,-1.00,-0.99
1446,-1.39,-0.39,-1.37,-0.37,0.37,0.09,-1.02,-1.00,-0.99
1461,-1.39,-0.39,-1.45,-0.45,0.45,0.12,-0.93,-0.99,-0.99
1475,-1.54,-0.54,-1.53,-0.54,0.54,0.15,-1.00,-0.99,-0.99
1490,-1.71,-0.71,-1.61,-0.62,0.62,0.18,-1.09,-0.99,-0.99
1505,-1.71,-0.71,-1.69,-0.70,0.70,0.21,-1.01,-0.99,-0.99
1520,-1.71,-0.71,-1.77,-0.78,0.78,0.24,-0.93,-1.00,-0.99
1535,-1.79,-0.79,-1.85,-0.85,0.85,0.27,-0.93,-1.00,-0.99
1550,-2.01,-1.01,-1.92,-0.93,0.93,0.30,-1.08,-0.99,-0.99
1566,-2.04,-1.04,-2.00,-1.01,1.01,0.34,-1.03,-0.99,-0.99
1582,-2.04,-1.04,-2.07,-1.08,1.08,0.37,-0.96,-0.99,-0.99
