frequency,raw,smoothed,error,error_smoothed,equalization,parametric_eq,fixed_band_eq,equalized_raw,equalized_smoothed,target
20.00,-11.12,-11.11,-14.77,-14.76,6.00,6.22,2.88,-5.12,-5.11,3.65
20.20,-10.98,-10.98,-14.67,-14.67,6.00,6.22,2.96,-4.98,-4.98,3.69
20.40,-10.84,-10.85,-14.56,-14.57,6.00,6.22,3.04,-4.84,-4.85,3.72
20.61,-10.70,-10.70,-14.45,-14.46,6.00,6.22,3.13,-4.70,-4.70,3.75
20.81,-10.56,-10.56,-14.35,-14.35,6.00,6.21,3.21,-4.56,-4.56,3.79
21.02,-10.41,-10.39,-14.24,-14.22,6.00,6.21,3.31,-4.41,-4.39,3.83
21.23,-10.21,-10.21,-14.05,-14.06,6.00,6.21,3.40,-4.21,-4.21,3.84
21.44,-10.01,-10.01,-13.87,-13.88,6.00,6.21,3.50,-4.01,-4.01,3.86
21.66,-9.81,-9.81,-13.69,-13.69,6.00,6.20,3.60,-3.81,-3.81,3.88
21.87,-9.62,-9.61,-13.51,-13.51,6.00,6.20,3.70,-3.62,-3.61,3.89
22.09,-9.43,-9.44,-13.34,-13.34,6.00,6.20,3.80,-3.43,-3.44,3.91
22.31,-9.27,-9.27,-13.18,-13.18,6.00,6.20,3.91,-3.27,-3.27,3.91
22.54,-9.12,-9.11,-13.04,-13.03,6.00,6.19,4.02,-3.12,-3.11,3.92
22.76,-8.96,-8.96,-12.88,-12.88,6.00,6.19,4.14,-2.96,-2.96,3.93
22.99,-8.80,-8.80,-12.73,-12.73,6.00,6.19,4.25,-2.80,-2.80,3.93
23.22,-8.65,-8.65,-12.58,-12.58,6.00,6.19,4.37,-2.65,-2.65,3.94
23.45,-8.50,-8.50,-12.44,-12.44,6.00,6.18,4.49,-2.50,-2.50,3.94
23.69,-8.35,-8.35,-12.31,-12.30,6.00,6.18,4.62,-2.35,-2.35,3.95
23.92,-8.20,-8.19,-12.16,-12.16,6.00,6.18,4.74,-2.20,-2.19,3.96
24.16,-8.04,-8.04,-12.01,-12.01,6.00,6.17,4.87,-2.04,-2.04,3.97
24.40,-7.88,-7.88,-11.86,-11.86,6.00,6.17,5.01,-1.88,-1.88,3.98
24.65,-7.73,-7.72,-11.70,-11.70,6.00,6.17,5.14,-1.73,-1.72,3.97
24.89,-7.57,-7.57,-11.54,-11.54,6.00,6.16,5.27,-1.57,-1.57,3.97
25.14,-7.42,-7.42,-11.39,-11.39,6.00,6.16,5.41,-1.42,-1.42,3.97
25.39,-7.27,-7.27,-11.23,-11.23,6.00,6.15,5.55,-1.27,-1.27,3.97
25.65,-7.13,-7.12,-11.10,-11.09,6.00,6.15,5.69,-1.13,-1.12,3.97
25.91,-6.98,-6.99,-10.94,-10.95,6.00,6.15,5.83,-0.98,-0.99,3.96
26.16,-6.87,-6.87,-10.83,-10.83,6.00,6.14,5.97,-0.87,-0.87,3.96
26.43,-6.77,-6.77,-10.73,-10.73,6.00,6.14,6.11,-0.77,-0.77,3.96
26.69,-6.67,-6.67,-10.63,-10.64,6.00,6.13,6.25,-0.67,-0.67,3.96
26.96,-6.58,-6.57,-10.54,-10.53,6.00,6.13,6.38,-0.58,-0.57,3.96
27.23,-6.46,-6.46,-10.42,-10.42,6.00,6.12,6.52,-0.46,-0.46,3.96
27.50,-6.34,-6.34,-10.30,-10.29,6.00,6.12,6.65,-0.34,-0.34,3.96
27.77,-6.22,-6.22,-10.16,-10.17,6.00,6.11,6.77,-0.22,-0.22,3.95
28.05,-6.11,-6.12,-10.05,-10.06,6.00,6.11,6.90,-0.11,-0.12,3.95
28.33,-6.04,-6.04,-9.97,-9.98,6.00,6.10,7.01,-0.04,-0.04,3.93
28.62,-5.97,-5.97,-9.91,-9.90,6.00,6.10,7.12,0.03,0.03,3.94
28.90,-5.89,-5.88,-9.83,-9.82,6.00,6.09,7.22,0.11,0.12,3.94
29.19,-5.78,-5.78,-9.71,-9.71,6.00,6.09,7.32,0.22,0.22,3.93
29.48,-5.65,-5.65,-9.59,-9.59,6.00,6.08,7.40,0.35,0.35,3.94
29.78,-5.52,-5.52,-9.46,-9.46,6.00,6.07,7.48,0.48,0.48,3.94
30.08,-5.39,-5.39,-9.32,-9.32,6.00,6.07,7.54,0.61,0.61,3.93
30.38,-5.27,-5.28,-9.19,-9.20,6.00,6.06,7.60,0.73,0.72,3.92
30.68,-5.15,-5.15,-9.07,-9.07,6.00,6.05,7.64,0.85,0.85,3.92
30.99,-5.04,-5.02,-8.95,-8.93,6.00,6.05,7.67,0.96,0.98,3.91
31.30,-4.87,-4.87,-8.78,-8.78,6.00,6.04,7.69,1.13,1.13,3.91
31.61,-4.71,-4.71,-8.61,-8.61,6.00,6.03,7.70,1.29,1.29,3.90
31.93,-4.55,-4.55,-8.44,-8.44,6.00,6.02,7.69,1.45,1.45,3.89
32.24,-4.40,-4.40,-8.28,-8.28,6.00,6.01,7.67,1.60,1.60,3.88
32.57,-4.26,-4.25,-8.14,-8.13,6.00,6.00,7.64,1.74,1.75,3.88
32.89,-4.12,-4.12,-7.99,-8.00,6.00,6.00,7.60,1.88,1.88,3.87
33.22,-4.01,-4.02,-7.88,-7.89,6.00,5.99,7.55,1.99,1.98,3.87
33.55,-3.93,-3.92,-7.80,-7.79,6.00,5.98,7.49,2.07,2.08,3.87
33.89,-3.85,-3.85,-7.71,-7.71,6.00,5.97,7.42,2.15,2.15,3.86
34.23,-3.77,-3.78,-7.63,-7.63,6.00,5.96,7.34,2.23,2.22,3.86
34.57,-3.69,-3.69,-7.54,-7.55,6.00,5.95,7.26,2.31,2.31,3.85
34.92,-3.61,-3.59,-7.46,-7.44,6.00,5.93,7.17,2.39,2.41,3.85
35.27,-3.47,-3.46,-7.31,-7.29,6.00,5.92,7.07,2.53,2.54,3.84
35.62,-3.32,-3.32,-7.15,-7.15,6.00,5.91,6.97,2.68,2.68,3.83
35.97,-3.16,-3.20,-6.98,-7.03,6.00,5.90,6.87,2.84,2.80,3.83
36.33,-3.15,-3.15,-6.97,-6.97,6.00,5.89,6.77,2.85,2.85,3.82
36.70,-3.14,-3.13,-6.96,-6.94,6.00,5.87,6.66,2.86,2.87,3.82
37.06,-3.13,-3.10,-6.93,-6.91,6.00,5.86,6.55,2.87,2.90,3.80
37.43,-3.04,-3.04,-6.84,-6.84,6.00,5.84,6.45,2.96,2.96,3.80
37.81,-2.95,-2.97,-6.74,-6.76,6.00,5.83,6.34,3.05,3.03,3.79
38.19,-2.91,-2.92,-6.69,-6.70,6.00,5.81,6.23,3.09,3.08,3.78
38.57,-2.91,-2.90,-6.68,-6.68,6.00,5.80,6.13,3.09,3.10,3.78
38.95,-2.91,-2.91,-6.68,-6.67,6.00,5.78,6.02,3.09,3.09,3.77
39.34,-2.91,-2.91,-6.66,-6.67,6.00,5.76,5.92,3.09,3.09,3.76
39.74,-2.91,-2.91,-6.65,-6.66,6.00,5.75,5.82,3.09,3.09,3.74
40.14,-2.91,-2.90,-6.65,-6.64,6.00,5.73,5.72,3.09,3.10,3.74
40.54,-2.91,-2.90,-6.65,-6.64,6.00,5.71,5.63,3.09,3.10,3.74
40.94,-2.91,-2.94,-6.64,-6.67,6.00,5.69,5.54,3.09,3.06,3.73
41.35,-2.99,-3.00,-6.71,-6.72,6.00,5.67,5.45,3.01,3.00,3.72
41.76,-3.09,-3.07,-6.79,-6.77,6.00,5.65,5.37,2.91,2.93,3.70
42.18,-3.14,-3.14,-6.82,-6.83,6.01,5.62,5.29,2.87,2.86,3.68
42.60,-3.14,-3.15,-6.80,-6.82,6.01,5.60,5.21,2.87,2.86,3.66
43.03,-3.13,-3.07,-6.77,-6.71,6.01,5.57,5.14,2.88,2.94,3.64
43.46,-2.93,-2.93,-6.54,-6.54,6.01,5.55,5.07,3.08,3.08,3.61
43.90,-2.73,-2.76,-6.30,-6.34,6.00,5.52,5.00,3.27,3.24,3.57
44.33,-2.60,-2.60,-6.14,-6.14,5.98,5.50,4.94,3.39,3.38,3.54
44.78,-2.50,-2.50,-6.00,-6.00,5.95,5.47,4.88,3.45,3.45,3.50
45.23,-2.44,-2.45,-5.91,-5.92,5.91,5.44,4.82,3.47,3.46,3.47
45.68,-2.41,-2.40,-5.85,-5.85,5.85,5.41,4.77,3.44,3.45,3.44
46.13,-2.37,-2.36,-5.79,-5.79,5.78,5.37,4.72,3.41,3.42,3.42
46.60,-2.29,-2.30,-5.71,-5.71,5.69,5.34,4.68,3.40,3.39,3.42
47.06,-2.22,-2.21,-5.61,-5.60,5.59,5.31,4.64,3.38,3.39,3.40
47.53,-2.11,-2.11,-5.49,-5.50,5.50,5.27,4.60,3.39,3.39,3.39
48.01,-2.00,-2.02,-5.39,-5.40,5.41,5.23,4.57,3.41,3.39,3.39
48.49,-1.94,-1.93,-5.31,-5.31,5.33,5.19,4.54,3.39,3.40,3.37
48.97,-1.87,-1.87,-5.23,-5.23,5.27,5.15,4.51,3.40,3.40,3.36
49.46,-1.82,-1.82,-5.17,-5.17,5.21,5.11,4.49,3.39,3.39,3.35
49.96,-1.77,-1.79,-5.12,-5.14,5.16,5.07,4.46,3.39,3.37,3.35
50.46,-1.77,-1.77,-5.13,-5.13,5.12,5.03,4.44,3.35,3.35,3.36
50.96,-1.77,-1.75,-5.14,-5.11,5.08,4.98,4.43,3.31,3.33,3.37
51.47,-1.72,-1.72,-5.07,-5.08,5.04,4.93,4.41,3.32,3.32,3.35
51.99,-1.67,-1.66,-5.01,-5.01,4.99,4.88,4.40,3.32,3.33,3.34
52.51,-1.60,-1.60,-4.93,-4.93,4.93,4.83,4.39,3.33,3.33,3.33
53.03,-1.54,-1.57,-4.84,-4.87,4.85,4.78,4.38,3.32,3.29,3.30
53.56,-1.54,-1.53,-4.81,-4.79,4.77,4.72,4.37,3.23,3.24,3.27
54.10,-1.52,-1.47,-4.74,-4.70,4.68,4.67,4.36,3.16,3.21,3.22
54.64,-1.39,-1.41,-4.56,-4.58,4.60,4.61,4.35,3.21,3.19,3.17
55.18,-1.31,-1.34,-4.44,-4.47,4.51,4.55,4.34,3.20,3.17,3.13
55.74,-1.31,-1.30,-4.38,-4.38,4.43,4.49,4.34,3.12,3.13,3.07
56.29,-1.31,-1.30,-4.33,-4.32,4.34,4.43,4.33,3.03,3.04,3.02
56.86,-1.31,-1.32,-4.28,-4.28,4.24,4.37,4.32,2.93,2.92,2.97
57.42,-1.31,-1.31,-4.21,-4.21,4.15,4.30,4.31,2.84,2.84,2.90
58.00,-1.31,-1.26,-4.15,-4.10,4.06,4.24,4.30,2.75,2.80,2.84
58.58,-1.18,-1.19,-3.96,-3.97,3.97,4.17,4.29,2.79,2.77,2.78
59.16,-1.09,-1.13,-3.82,-3.85,3.87,4.11,4.27,2.78,2.75,2.73
59.76,-1.09,-1.08,-3.76,-3.74,3.78,4.04,4.26,2.69,2.70,2.67
60.35,-1.09,-1.08,-3.68,-3.68,3.69,3.98,4.24,2.60,2.61,2.59
60.96,-1.09,-1.09,-3.63,-3.62,3.62,3.91,4.22,2.53,2.53,2.54
61.57,-1.09,-1.08,-3.56,-3.55,3.57,3.85,4.19,2.48,2.49,2.47
62.18,-1.09,-1.08,-3.49,-3.49,3.54,3.79,4.17,2.45,2.45,2.40
62.80,-1.09,-1.13,-3.45,-3.48,3.52,3.73,4.14,2.43,2.39,2.36
63.43,-1.19,-1.20,-3.49,-3.50,3.50,3.67,4.11,2.31,2.31,2.31
64.07,-1.31,-1.26,-3.57,-3.52,3.49,3.61,4.07,2.18,2.22,2.26
64.71,-1.31,-1.31,-3.52,-3.52,3.47,3.56,4.04,2.16,2.16,2.21
65.35,-1.31,-1.32,-3.47,-3.49,3.46,3.51,4.00,2.15,2.14,2.17
66.01,-1.31,-1.31,-3.44,-3.44,3.44,3.46,3.95,2.13,2.13,2.13
66.67,-1.31,-1.31,-3.40,-3.40,3.41,3.41,3.91,2.10,2.10,2.09
67.33,-1.31,-1.31,-3.37,-3.37,3.37,3.37,3.86,2.06,2.06,2.06
68.01,-1.31,-1.31,-3.34,-3.34,3.33,3.34,3.81,2.02,2.02,2.03
68.69,-1.31,-1.31,-3.31,-3.30,3.29,3.30,3.76,1.98,1.98,2.00
69.37,-1.31,-1.31,-3.27,-3.27,3.27,3.27,3.71,1.96,1.96,1.96
70.07,-1.31,-1.30,-3.24,-3.24,3.26,3.25,3.66,1.95,1.95,1.93
70.77,-1.31,-1.30,-3.23,-3.21,3.26,3.22,3.60,1.95,1.96,1.92
71.48,-1.31,-1.33,-3.19,-3.22,3.26,3.20,3.55,1.95,1.93,1.88
72.19,-1.36,-1.40,-3.22,-3.25,3.26,3.19,3.49,1.91,1.87,1.86
72.91,-1.52,-1.47,-3.34,-3.30,3.27,3.18,3.44,1.75,1.80,1.82
73.64,-1.54,-1.53,-3.33,-3.33,3.27,3.16,3.38,1.73,1.74,1.80
74.38,-1.54,-1.55,-3.31,-3.32,3.27,3.16,3.32,1.73,1.72,1.77
75.12,-1.54,-1.54,-3.27,-3.27,3.27,3.15,3.27,1.73,1.72,1.73
75.87,-1.54,-1.54,-3.24,-3.24,3.25,3.14,3.21,1.71,1.71,1.70
76.63,-1.54,-1.54,-3.21,-3.21,3.23,3.14,3.16,1.69,1.69,1.67
77.40,-1.54,-1.54,-3.19,-3.18,3.20,3.14,3.11,1.66,1.66,1.65
78.17,-1.54,-1.54,-3.16,-3.16,3.17,3.13,3.06,1.63,1.63,1.62
78.95,-1.54,-1.54,-3.14,-3.14,3.14,3.13,3.01,1.60,1.60,1.60
79.74,-1.54,-1.54,-3.13,-3.12,3.12,3.13,2.96,1.58,1.58,1.59
80.54,-1.54,-1.54,-3.11,-3.11,3.11,3.12,2.91,1.57,1.57,1.57
81.35,-1.54,-1.54,-3.09,-3.10,3.10,3.12,2.86,1.56,1.56,1.55
82.16,-1.54,-1.54,-3.09,-3.09,3.09,3.11,2.82,1.55,1.55,1.55
82.98,-1.54,-1.54,-3.09,-3.08,3.08,3.11,2.77,1.55,1.55,1.55
83.81,-1.54,-1.54,-3.08,-3.08,3.08,3.10,2.73,1.54,1.54,1.54
84.65,-1.54,-1.54,-3.07,-3.08,3.08,3.09,2.69,1.54,1.54,1.54
85.50,-1.54,-1.54,-3.09,-3.08,3.08,3.08,2.66,1.54,1.54,1.55
86.35,-1.54,-1.54,-3.09,-3.08,3.09,3.07,2.62,1.55,1.55,1.55
87.22,-1.54,-1.54,-3.09,-3.09,3.09,3.06,2.59,1.55,1.55,1.55
88.09,-1.54,-1.54,-3.09,-3.09,3.09,3.04,2.56,1.55,1.55,1.55
88.97,-1.54,-1.54,-3.11,-3.10,3.10,3.02,2.53,1.56,1.56,1.57
89.86,-1.54,-1.54,-3.10,-3.10,3.10,3.00,2.50,1.56,1.56,1.56
90.76,-1.54,-1.54,-3.09,-3.10,3.10,2.98,2.47,1.56,1.56,1.55
91.66,-1.54,-1.54,-3.10,-3.09,3.09,2.96,2.45,1.55,1.55,1.56
92.58,-1.54,-1.54,-3.08,-3.09,3.09,2.94,2.42,1.55,1.55,1.54
93.51,-1.54,-1.54,-3.08,-3.08,3.07,2.91,2.40,1.53,1.53,1.54
94.44,-1.54,-1.54,-3.07,-3.07,3.05,2.88,2.39,1.52,1.52,1.53
95.39,-1.54,-1.54,-3.05,-3.05,3.03,2.86,2.37,1.49,1.49,1.51
96.34,-1.54,-1.54,-3.02,-3.03,3.02,2.83,2.35,1.48,1.48,1.48
97.30,-1.54,-1.54,-3.00,-3.00,3.00,2.79,2.34,1.46,1.47,1.47
98.28,-1.54,-1.53,-2.98,-2.97,3.00,2.76,2.32,1.46,1.47,1.44
99.26,-1.54,-1.53,-2.95,-2.95,3.00,2.73,2.31,1.46,1.47,1.41
100.25,-1.55,-1.58,-2.94,-2.96,3.00,2.69,2.30,1.45,1.43,1.39
101.25,-1.62,-1.65,-2.97,-3.00,3.00,2.65,2.29,1.38,1.36,1.35
102.27,-1.77,-1.72,-3.08,-3.03,3.00,2.62,2.29,1.23,1.28,1.32
103.29,-1.77,-1.77,-3.04,-3.04,2.99,2.58,2.28,1.22,1.22,1.27
104.32,-1.77,-1.78,-3.00,-3.02,2.97,2.54,2.27,1.21,1.19,1.23
105.37,-1.77,-1.77,-2.96,-2.95,2.94,2.50,2.27,1.18,1.18,1.19
106.42,-1.77,-1.77,-2.90,-2.90,2.90,2.45,2.26,1.13,1.13,1.13
107.48,-1.77,-1.77,-2.83,-2.83,2.85,2.41,2.26,1.08,1.08,1.06
108.56,-1.77,-1.77,-2.76,-2.76,2.79,2.37,2.25,1.02,1.02,0.99
109.64,-1.77,-1.77,-2.69,-2.69,2.72,2.32,2.25,0.95,0.95,0.92
110.74,-1.77,-1.77,-2.63,-2.62,2.63,2.28,2.24,0.87,0.87,0.86
111.85,-1.77,-1.77,-2.56,-2.56,2.54,2.23,2.23,0.78,0.77,0.79
112.97,-1.77,-1.78,-2.47,-2.49,2.45,2.19,2.23,0.68,0.67,0.71
114.10,-1.77,-1.76,-2.41,-2.40,2.34,2.14,2.22,0.58,0.58,0.64
115.24,-1.74,-1.70,-2.30,-2.27,2.24,2.10,2.21,0.50,0.54,0.57
116.39,-1.61,-1.63,-2.10,-2.12,2.14,2.05,2.20,0.53,0.51,0.49
117.55,-1.54,-1.57,-1.97,-1.99,2.04,2.00,2.19,0.50,0.48,0.43
118.73,-1.54,-1.53,-1.90,-1.90,1.95,1.96,2.18,0.41,0.42,0.36
119.92,-1.54,-1.53,-1.86,-1.85,1.87,1.91,2.17,0.33,0.33,0.32
121.12,-1.54,-1.54,-1.81,-1.81,1.80,1.86,2.15,0.26,0.26,0.27
122.33,-1.54,-1.54,-1.76,-1.77,1.75,1.82,2.13,0.21,0.21,0.22
123.55,-1.54,-1.54,-1.74,-1.73,1.73,1.77,2.11,0.19,0.19,0.20
124.79,-1.54,-1.53,-1.70,-1.70,1.72,1.72,2.09,0.18,0.18,0.16
126.03,-1.54,-1.53,-1.67,-1.66,1.71,1.68,2.07,0.17,0.18,0.13
127.29,-1.54,-1.57,-1.64,-1.66,1.70,1.63,2.04,0.16,0.13,0.10
128.57,-1.59,-1.64,-1.65,-1.70,1.67,1.58,2.02,0.08,0.04,0.06
129.85,-1.75,-1.68,-1.78,-1.71,1.65,1.54,1.99,-0.10,-0.04,0.03
131.15,-1.72,-1.68,-1.72,-1.68,1.61,1.49,1.96,-0.11,-0.07,0.00
132.46,-1.59,-1.63,-1.56,-1.60,1.58,1.44,1.92,-0.01,-0.06,-0.03
133.79,-1.54,-1.56,-1.48,-1.50,1.53,1.40,1.89,-0.01,-0.03,-0.06
135.12,-1.54,-1.53,-1.43,-1.43,1.48,1.35,1.85,-0.06,-0.05,-0.10
136.48,-1.54,-1.53,-1.41,-1.40,1.43,1.31,1.82,-0.11,-0.11,-0.13
137.84,-1.54,-1.54,-1.37,-1.37,1.37,1.26,1.78,-0.17,-0.17,-0.16
139.22,-1.54,-1.54,-1.32,-1.33,1.32,1.22,1.74,-0.22,-0.22,-0.22
140.61,-1.54,-1.54,-1.28,-1.29,1.28,1.18,1.69,-0.26,-0.26,-0.26
142.02,-1.54,-1.54,-1.26,-1.25,1.25,1.13,1.65,-0.29,-0.29,-0.28
143.44,-1.54,-1.54,-1.22,-1.21,1.21,1.09,1.61,-0.32,-0.32,-0.32
144.87,-1.54,-1.54,-1.17,-1.18,1.17,1.05,1.56,-0.37,-0.37,-0.36
146.32,-1.54,-1.54,-1.13,-1.13,1.12,1.00,1.52,-0.42,-0.42,-0.41
147.78,-1.54,-1.54,-1.09,-1.08,1.07,0.96,1.47,-0.47,-0.47,-0.45
149.26,-1.54,-1.54,-1.02,-1.02,1.01,0.92,1.43,-0.53,-0.53,-0.52
150.75,-1.54,-1.54,-0.94,-0.95,0.94,0.88,1.38,-0.60,-0.60,-0.60
152.26,-1.54,-1.54,-0.88,-0.87,0.87,0.84,1.33,-0.67,-0.67,-0.66
153.78,-1.54,-1.54,-0.80,-0.79,0.79,0.80,1.29,-0.75,-0.75,-0.74
155.32,-1.54,-1.54,-0.70,-0.71,0.71,0.76,1.24,-0.83,-0.83,-0.83
156.88,-1.54,-1.54,-0.63,-0.63,0.64,0.72,1.20,-0.90,-0.90,-0.91
158.44,-1.54,-1.54,-0.56,-0.55,0.56,0.68,1.15,-0.98,-0.98,-0.98
160.03,-1.54,-1.54,-0.49,-0.49,0.49,0.64,1.10,-1.05,-1.05,-1.05
161.63,-1.54,-1.54,-0.42,-0.43,0.43,0.60,1.06,-1.11,-1.11,-1.12
163.24,-1.54,-1.54,-0.37,-0.37,0.38,0.56,1.01,-1.16,-1.16,-1.17
164.88,-1.54,-1.54,-0.33,-0.33,0.34,0.52,0.97,-1.20,-1.20,-1.21
166.53,-1.54,-1.54,-0.29,-0.29,0.31,0.48,0.92,-1.23,-1.23,-1.24
168.19,-1.54,-1.54,-0.27,-0.27,0.29,0.45,0.88,-1.25,-1.25,-1.27
169.87,-1.54,-1.54,-0.25,-0.25,0.27,0.41,0.83,-1.27,-1.27,-1.29
171.57,-1.54,-1.54,-0.24,-0.24,0.25,0.37,0.79,-1.29,-1.29,-1.30
173.29,-1.54,-1.56,-0.25,-0.26,0.22,0.34,0.75,-1.32,-1.34,-1.29
175.02,-1.54,-1.54,-0.26,-0.25,0.19,0.30,0.70,-1.35,-1.34,-1.28
176.77,-1.54,-1.48,-0.26,-0.20,0.17,0.27,0.66,-1.37,-1.31,-1.28
178.54,-1.36,-1.40,-0.08,-0.13,0.14,0.23,0.62,-1.22,-1.27,-1.28
180.32,-1.31,-1.33,-0.04,-0.06,0.11,0.20,0.58,-1.20,-1.23,-1.27
182.13,-1.31,-1.29,-0.05,-0.03,0.08,0.16,0.54,-1.23,-1.22,-1.26
183.95,-1.31,-1.30,-0.04,-0.04,0.04,0.13,0.50,-1.26,-1.26,-1.27
185.79,-1.31,-1.31,-0.03,-0.03,0.02,0.10,0.46,-1.29,-1.29,-1.28
187.65,-1.31,-1.31,-0.01,-0.01,-0.00,0.07,0.42,-1.31,-1.31,-1.30
189.52,-1.31,-1.31,0.01,0.01,-0.02,0.04,0.38,-1.33,-1.33,-1.32
191.42,-1.31,-1.31,0.03,0.03,-0.03,0.01,0.34,-1.34,-1.34,-1.34
193.33,-1.31,-1.31,0.05,0.04,-0.04,-0.02,0.30,-1.35,-1.35,-1.36
195.27,-1.31,-1.31,0.06,0.06,-0.06,-0.05,0.26,-1.37,-1.37,-1.36
197.22,-1.31,-1.31,0.07,0.08,-0.08,-0.08,0.22,-1.39,-1.39,-1.38
199.19,-1.31,-1.31,0.11,0.10,-0.10,-0.10,0.19,-1.41,-1.41,-1.42
201.18,-1.31,-1.31,0.12,0.12,-0.12,-0.13,0.15,-1.43,-1.43,-1.43
203.19,-1.31,-1.31,0.13,0.14,-0.14,-0.15,0.12,-1.45,-1.45,-1.44
205.23,-1.31,-1.31,0.16,0.15,-0.15,-0.17,0.08,-1.46,-1.46,-1.47
207.28,-1.31,-1.31,0.16,0.17,-0.17,-0.19,0.05,-1.48,-1.48,-1.47
209.35,-1.31,-1.31,0.19,0.19,-0.19,-0.20,0.01,-1.50,-1.50,-1.50
211.44,-1.31,-1.31,0.21,0.20,-0.20,-0.22,-0.02,-1.51,-1.51,-1.52
213.56,-1.31,-1.31,0.22,0.22,-0.22,-0.23,-0.05,-1.53,-1.53,-1.53
215.69,-1.31,-1.31,0.22,0.23,-0.23,-0.24,-0.08,-1.54,-1.54,-1.53
217.85,-1.31,-1.31,0.24,0.24,-0.24,-0.25,-0.11,-1.55,-1.55,-1.55
220.03,-1.31,-1.31,0.25,0.26,-0.25,-0.26,-0.14,-1.56,-1.56,-1.56
222.23,-1.31,-1.31,0.28,0.27,-0.26,-0.27,-0.17,-1.57,-1.57,-1.59
224.45,-1.31,-1.31,0.28,0.28,-0.27,-0.27,-0.20,-1.58,-1.58,-1.59
226.70,-1.31,-1.31,0.28,0.28,-0.28,-0.28,-0.23,-1.59,-1.59,-1.59
228.96,-1.31,-1.31,0.29,0.29,-0.29,-0.28,-0.25,-1.60,-1.60,-1.60
231.25,-1.31,-1.31,0.29,0.29,-0.30,-0.28,-0.27,-1.61,-1.61,-1.60
233.57,-1.31,-1.31,0.30,0.30,-0.30,-0.28,-0.30,-1.61,-1.61,-1.61
235.90,-1.31,-1.31,0.31,0.31,-0.30,-0.28,-0.32,-1.61,-1.61,-1.62
238.26,-1.31,-1.31,0.31,0.31,-0.30,-0.28,-0.34,-1.61,-1.61,-1.62
240.64,-1.31,-1.31,0.31,0.31,-0.30,-0.27,-0.35,-1.61,-1.61,-1.62
243.05,-1.31,-1.31,0.30,0.30,-0.30,-0.27,-0.37,-1.61,-1.61,-1.61
245.48,-1.31,-1.31,0.30,0.29,-0.30,-0.26,-0.38,-1.61,-1.61,-1.60
247.93,-1.31,-1.31,0.28,0.29,-0.29,-0.26,-0.40,-1.60,-1.60,-1.59
250.41,-1.31,-1.31,0.29,0.28,-0.28,-0.25,-0.41,-1.59,-1.59,-1.60
252.92,-1.31,-1.31,0.28,0.27,-0.27,-0.24,-0.42,-1.58,-1.58,-1.59
255.45,-1.31,-1.31,0.26,0.27,-0.27,-0.24,-0.42,-1.58,-1.58,-1.57
258.00,-1.31,-1.31,0.25,0.25,-0.26,-0.23,-0.43,-1.57,-1.57,-1.56
260.58,-1.31,-1.31,0.25,0.25,-0.25,-0.22,-0.43,-1.56,-1.56,-1.56
263.19,-1.31,-1.31,0.24,0.24,-0.24,-0.22,-0.44,-1.55,-1.55,-1.55
265.82,-1.31,-1.31,0.23,0.23,-0.22,-0.21,-0.44,-1.53,-1.53,-1.54
268.48,-1.31,-1.31,0.21,0.21,-0.21,-0.20,-0.44,-1.52,-1.52,-1.52
271.16,-1.31,-1.31,0.19,0.20,-0.19,-0.20,-0.44,-1.50,-1.50,-1.50
273.87,-1.31,-1.31,0.18,0.17,-0.17,-0.19,-0.44,-1.48,-1.48,-1.49
276.61,-1.31,-1.31,0.15,0.15,-0.15,-0.18,-0.43,-1.46,-1.46,-1.46
279.38,-1.31,-1.31,0.13,0.13,-0.13,-0.18,-0.43,-1.44,-1.44,-1.44
282.17,-1.31,-1.31,0.11,0.11,-0.10,-0.17,-0.42,-1.41,-1.41,-1.42
284.99,-1.31,-1.31,0.08,0.08,-0.08,-0.16,-0.42,-1.39,-1.39,-1.39
287.84,-1.31,-1.31,0.06,0.05,-0.05,-0.16,-0.41,-1.36,-1.36,-1.37
290.72,-1.31,-1.31,0.02,0.02,-0.02,-0.15,-0.40,-1.33,-1.33,-1.33
293.63,-1.31,-1.31,-0.01,-0.01,0.00,-0.14,-0.39,-1.31,-1.31,-1.30
296.57,-1.31,-1.31,-0.03,-0.03,0.03,-0.14,-0.39,-1.28,-1.28,-1.28
299.53,-1.31,-1.31,-0.06,-0.05,0.06,-0.13,-0.38,-1.25,-1.25,-1.25
302.53,-1.31,-1.31,-0.07,-0.08,0.08,-0.13,-0.37,-1.23,-1.23,-1.24
305.55,-1.31,-1.31,-0.11,-0.10,0.11,-0.12,-0.36,-1.20,-1.20,-1.20
308.61,-1.31,-1.31,-0.13,-0.13,0.13,-0.12,-0.35,-1.17,-1.17,-1.18
311.69,-1.31,-1.31,-0.14,-0.15,0.15,-0.11,-0.34,-1.16,-1.16,-1.17
314.81,-1.31,-1.31,-0.17,-0.16,0.16,-0.11,-0.33,-1.15,-1.15,-1.14
317.96,-1.31,-1.31,-0.17,-0.17,0.15,-0.10,-0.32,-1.16,-1.16,-1.14
321.14,-1.31,-1.32,-0.16,-0.18,0.14,-0.10,-0.31,-1.17,-1.18,-1.15
324.35,-1.31,-1.30,-0.17,-0.16,0.11,-0.10,-0.30,-1.20,-1.18,-1.14
327.59,-1.28,-1.24,-0.15,-0.11,0.09,-0.09,-0.29,-1.19,-1.15,-1.13
330.87,-1.14,-1.17,-0.01,-0.04,0.07,-0.09,-0.28,-1.07,-1.10,-1.13
334.18,-1.09,-1.11,0.03,0.01,0.05,-0.08,-0.27,-1.04,-1.06,-1.12
337.52,-1.09,-1.08,0.02,0.03,0.03,-0.08,-0.26,-1.06,-1.05,-1.11
340.90,-1.09,-1.08,-0.01,0.01,0.01,-0.08,-0.25,-1.08,-1.07,-1.08
344.30,-1.09,-1.10,-0.01,-0.02,-0.00,-0.07,-0.24,-1.09,-1.10,-1.08
347.75,-1.09,-1.10,-0.03,-0.04,-0.01,-0.07,-0.23,-1.10,-1.11,-1.06
351.23,-1.09,-1.05,-0.06,-0.02,-0.02,-0.07,-0.22,-1.11,-1.07,-1.03
354.74,-0.99,-0.99,0.02,0.03,-0.03,-0.06,-0.21,-1.02,-1.01,-1.01
358.28,-0.88,-0.92,0.11,0.07,-0.05,-0.06,-0.21,-0.93,-0.96,-0.99
361.87,-0.86,-0.87,0.11,0.09,-0.07,-0.06,-0.20,-0.93,-0.95,-0.97
365.49,-0.86,-0.84,0.08,0.10,-0.10,-0.05,-0.19,-0.95,-0.94,-0.94
369.14,-0.84,-0.79,0.08,0.13,-0.12,-0.05,-0.18,-0.96,-0.91,-0.92
372.83,-0.69,-0.72,0.20,0.17,-0.15,-0.05,-0.17,-0.84,-0.87,-0.89
376.56,-0.63,-0.67,0.25,0.20,-0.19,-0.05,-0.17,-0.82,-0.86,-0.87
380.33,-0.63,-0.62,0.22,0.23,-0.24,-0.04,-0.16,-0.87,-0.86,-0.85
384.13,-0.63,-0.58,0.20,0.25,-0.30,-0.04,-0.15,-0.93,-0.89,-0.83
387.97,-0.48,-0.51,0.34,0.31,-0.38,-0.04,-0.15,-0.86,-0.89,-0.82
391.85,-0.40,-0.39,0.41,0.43,-0.47,-0.04,-0.14,-0.87,-0.86,-0.81
395.77,-0.24,-0.24,0.56,0.57,-0.56,-0.03,-0.14,-0.80,-0.80,-0.80
399.73,-0.11,-0.11,0.68,0.68,-0.64,-0.03,-0.13,-0.75,-0.76,-0.79
403.72,0.01,-0.01,0.80,0.78,-0.72,-0.03,-0.12,-0.71,-0.73,-0.79
407.76,0.05,0.04,0.83,0.82,-0.78,-0.03,-0.12,-0.73,-0.74,-0.78
411.84,0.05,0.06,0.82,0.83,-0.82,-0.02,-0.11,-0.77,-0.75,-0.77
415.96,0.05,0.07,0.81,0.83,-0.82,-0.02,-0.11,-0.77,-0.75,-0.76
420.12,0.05,0.04,0.81,0.80,-0.79,-0.02,-0.10,-0.74,-0.75,-0.76
424.32,0.03,-0.01,0.79,0.76,-0.74,-0.02,-0.10,-0.71,-0.74,-0.76
428.56,-0.12,-0.08,0.64,0.68,-0.67,-0.01,-0.09,-0.79,-0.75,-0.76
432.85,-0.18,-0.19,0.58,0.57,-0.59,-0.01,-0.09,-0.77,-0.78,-0.76
437.18,-0.28,-0.29,0.48,0.47,-0.51,-0.01,-0.08,-0.79,-0.80,-0.75
441.55,-0.37,-0.33,0.38,0.42,-0.42,-0.01,-0.08,-0.79,-0.75,-0.75
445.96,-0.40,-0.40,0.35,0.34,-0.34,-0.01,-0.08,-0.73,-0.73,-0.75
450.42,-0.40,-0.47,0.34,0.27,-0.26,-0.00,-0.07,-0.66,-0.73,-0.74
454.93,-0.58,-0.54,0.15,0.19,-0.19,-0.00,-0.07,-0.77,-0.72,-0.73
459.48,-0.63,-0.60,0.09,0.11,-0.13,0.00,-0.06,-0.76,-0.73,-0.72
464.07,-0.63,-0.64,0.07,0.06,-0.08,0.00,-0.06,-0.71,-0.73,-0.70
468.71,-0.63,-0.63,0.05,0.05,-0.05,0.01,-0.05,-0.68,-0.69,-0.68
