frequency,raw,error,smoothed,error_smoothed,equalization,parametric_eq,fixed_band_eq,equalized_raw,equalized_smoothed,target
20.00,17.56,9.88,17.55,9.86,-9.86,-9.79,-4.18,7.70,7.69,7.69
20.20,17.54,9.87,17.54,9.86,-9.86,-9.79,-4.29,7.69,7.68,7.68
20.40,17.52,9.86,17.52,9.85,-9.85,-9.78,-4.40,7.67,7.67,7.67
20.61,17.50,9.84,17.51,9.85,-9.85,-9.78,-4.52,7.66,7.66,7.67
20.81,17.48,9.84,17.49,9.84,-9.84,-9.77,-4.64,7.64,7.65,7.65
21.02,17.46,9.82,17.48,9.83,-9.83,-9.76,-4.76,7.63,7.65,7.65
21.23,17.45,9.82,17.46,9.82,-9.82,-9.75,-4.89,7.63,7.64,7.64
21.44,17.44,9.80,17.44,9.81,-9.81,-9.73,-5.02,7.63,7.63,7.65
21.66,17.43,9.80,17.42,9.80,-9.80,-9.72,-5.15,7.63,7.63,7.64
21.87,17.42,9.80,17.41,9.79,-9.79,-9.71,-5.29,7.64,7.62,7.62
22.09,17.40,9.79,17.39,9.77,-9.77,-9.69,-5.43,7.63,7.61,7.61
22.31,17.36,9.75,17.37,9.76,-9.76,-9.67,-5.58,7.61,7.61,7.61
22.54,17.33,9.73,17.35,9.74,-9.74,-9.66,-5.73,7.59,7.60,7.60
22.76,17.30,9.70,17.33,9.73,-9.73,-9.64,-5.88,7.57,7.60,7.60
22.99,17.26,9.67,17.31,9.71,-9.71,-9.62,-6.04,7.55,7.60,7.59
23.22,17.26,9.68,17.28,9.69,-9.69,-9.60,-6.20,7.58,7.59,7.58
23.45,17.26,9.67,17.26,9.67,-9.67,-9.58,-6.37,7.60,7.59,7.59
23.69,17.26,9.68,17.24,9.65,-9.65,-9.56,-6.53,7.62,7.59,7.58
23.92,17.26,9.68,17.21,9.63,-9.63,-9.54,-6.71,7.64,7.59,7.58
24.16,17.23,9.64,17.19,9.60,-9.60,-9.51,-6.88,7.63,7.59,7.59
24.40,17.17,9.57,17.17,9.58,-9.58,-9.49,-7.06,7.59,7.59,7.60
24.65,17.12,9.53,17.14,9.55,-9.55,-9.47,-7.24,7.57,7.59,7.60
24.89,17.07,9.48,17.12,9.53,-9.53,-9.44,-7.43,7.55,7.59,7.60
25.14,17.05,9.46,17.09,9.50,-9.50,-9.42,-7.62,7.56,7.60,7.60
25.39,17.05,9.46,17.07,9.47,-9.47,-9.39,-7.81,7.59,7.60,7.60
25.65,17.05,9.46,17.04,9.44,-9.44,-9.37,-8.00,7.62,7.60,7.60
25.91,17.05,9.45,17.02,9.41,-9.41,-9.34,-8.19,7.64,7.60,7.60
26.16,17.02,9.41,16.99,9.38,-9.38,-9.32,-8.39,7.64,7.61,7.61
26.43,16.96,9.35,16.96,9.35,-9.35,-9.29,-8.59,7.61,7.61,7.61
26.69,16.91,9.30,16.93,9.32,-9.32,-9.26,-8.78,7.59,7.61,7.61
26.96,16.86,9.25,16.90,9.29,-9.29,-9.24,-8.98,7.57,7.61,7.61
27.23,16.85,9.24,16.88,9.27,-9.27,-9.21,-9.17,7.58,7.61,7.61
27.50,16.85,9.25,16.86,9.25,-9.25,-9.18,-9.36,7.61,7.61,7.61
27.77,16.85,9.24,16.83,9.22,-9.22,-9.16,-9.54,7.63,7.61,7.62
28.05,16.84,9.23,16.80,9.19,-9.19,-9.13,-9.72,7.65,7.61,7.62
28.33,16.78,9.18,16.77,9.16,-9.16,-9.10,-9.90,7.63,7.61,7.60
28.62,16.73,9.13,16.74,9.12,-9.12,-9.08,-10.06,7.61,7.61,7.60
28.90,16.67,9.06,16.71,9.10,-9.10,-9.05,-10.22,7.58,7.61,7.61
29.19,16.65,9.04,16.68,9.07,-9.07,-9.02,-10.36,7.58,7.61,7.61
29.48,16.65,9.04,16.66,9.05,-9.05,-8.99,-10.50,7.60,7.61,7.61
29.78,16.65,9.05,16.63,9.03,-9.03,-8.97,-10.62,7.63,7.61,7.61
30.08,16.63,9.02,16.60,9.00,-9.00,-8.94,-10.72,7.63,7.60,7.62
30.38,16.57,8.97,16.57,8.97,-8.97,-8.91,-10.81,7.60,7.60,7.60
30.68,16.51,8.92,16.53,8.94,-8.94,-8.89,-10.88,7.57,7.59,7.59
30.99,16.45,8.86,16.50,8.91,-8.91,-8.86,-10.93,7.54,7.59,7.59
31.30,16.45,8.87,16.47,8.89,-8.89,-8.83,-10.97,7.57,7.58,7.58
31.61,16.45,8.88,16.44,8.86,-8.86,-8.81,-10.99,7.59,7.58,7.58
31.93,16.45,8.89,16.41,8.84,-8.84,-8.78,-10.99,7.62,7.57,7.56
32.24,16.40,8.84,16.37,8.81,-8.81,-8.75,-10.97,7.59,7.56,7.56
32.57,16.34,8.79,16.33,8.77,-8.77,-8.73,-10.94,7.57,7.56,7.55
32.89,16.27,8.73,16.30,8.74,-8.74,-8.70,-10.89,7.53,7.56,7.55
33.22,16.23,8.69,16.26,8.71,-8.71,-8.68,-10.82,7.53,7.55,7.55
33.55,16.21,8.67,16.22,8.67,-8.67,-8.65,-10.75,7.54,7.55,7.54
33.89,16.19,8.64,16.19,8.64,-8.64,-8.62,-10.66,7.55,7.55,7.55
34.23,16.15,8.62,16.15,8.61,-8.61,-8.60,-10.56,7.55,7.54,7.54
34.57,16.11,8.58,16.11,8.57,-8.57,-8.57,-10.45,7.54,7.54,7.54
34.92,16.06,8.53,16.07,8.54,-8.54,-8.55,-10.34,7.53,7.54,7.53
35.27,16.02,8.49,16.03,8.50,-8.50,-8.52,-10.22,7.52,7.53,7.54
35.62,15.99,8.47,15.99,8.47,-8.47,-8.50,-10.09,7.52,7.52,7.53
35.97,15.95,8.43,15.96,8.44,-8.44,-8.48,-9.97,7.51,7.51,7.52
36.33,15.92,8.41,15.92,8.42,-8.42,-8.45,-9.84,7.50,7.50,7.51
36.70,15.88,8.39,15.89,8.40,-8.40,-8.43,-9.71,7.49,7.49,7.50
37.06,15.84,8.36,15.85,8.38,-8.38,-8.40,-9.58,7.47,7.47,7.48
37.43,15.81,8.36,15.81,8.35,-8.35,-8.38,-9.45,7.46,7.46,7.46
37.81,15.77,8.33,15.77,8.33,-8.33,-8.36,-9.32,7.44,7.44,7.44
38.19,15.73,8.31,15.73,8.31,-8.31,-8.33,-9.19,7.43,7.42,7.42
38.57,15.69,8.30,15.68,8.29,-8.29,-8.31,-9.07,7.41,7.40,7.40
38.95,15.65,8.28,15.64,8.27,-8.27,-8.29,-8.95,7.39,7.37,7.37
39.34,15.60,8.27,15.59,8.25,-8.25,-8.27,-8.83,7.36,7.35,7.34
39.74,15.55,8.23,15.55,8.23,-8.23,-8.25,-8.72,7.33,7.32,7.32
40.14,15.50,8.21,15.50,8.21,-8.21,-8.22,-8.62,7.30,7.30,7.30
40.54,15.46,8.19,15.46,8.18,-8.18,-8.20,-8.51,7.28,7.27,7.27
40.94,15.41,8.17,15.42,8.16,-8.16,-8.18,-8.42,7.25,7.25,7.25
41.35,15.34,8.11,15.37,8.14,-8.14,-8.16,-8.33,7.20,7.23,7.23
41.76,15.28,8.09,15.32,8.12,-8.12,-8.14,-8.24,7.17,7.21,7.19
42.18,15.24,8.07,15.27,8.09,-8.09,-8.12,-8.16,7.15,7.18,7.18
42.60,15.24,8.08,15.23,8.07,-8.07,-8.10,-8.08,7.18,7.16,7.16
43.03,15.23,8.10,15.18,8.04,-8.04,-8.08,-8.01,7.19,7.14,7.14
43.46,15.16,8.05,15.14,8.02,-8.02,-8.06,-7.95,7.14,7.11,7.11
43.90,15.09,8.00,15.10,8.01,-8.01,-8.04,-7.89,7.09,7.09,7.09
44.33,15.05,7.99,15.06,7.99,-7.99,-8.02,-7.84,7.06,7.07,7.06
44.78,15.02,7.99,15.01,7.97,-7.97,-8.00,-7.79,7.05,7.04,7.04
45.23,14.96,7.94,14.97,7.96,-7.96,-7.98,-7.75,7.01,7.01,7.03
45.68,14.89,7.90,14.93,7.95,-7.95,-7.96,-7.71,6.95,6.98,6.99
46.13,14.84,7.89,14.89,7.94,-7.94,-7.94,-7.68,6.91,6.95,6.95
46.60,14.84,7.92,14.85,7.92,-7.92,-7.92,-7.66,6.92,6.92,6.92
47.06,14.83,7.94,14.80,7.91,-7.91,-7.90,-7.64,6.92,6.89,6.89
47.53,14.78,7.92,14.75,7.90,-7.90,-7.88,-7.62,6.88,6.85,6.86
48.01,14.73,7.92,14.71,7.89,-7.89,-7.87,-7.61,6.84,6.81,6.82
48.49,14.66,7.89,14.67,7.89,-7.89,-7.85,-7.61,6.77,6.78,6.78
48.97,14.59,7.86,14.63,7.89,-7.89,-7.83,-7.61,6.71,6.74,6.73
49.46,14.57,7.87,14.58,7.88,-7.88,-7.81,-7.61,6.69,6.70,6.70
49.96,14.54,7.90,14.53,7.87,-7.87,-7.79,-7.62,6.67,6.66,6.64
50.46,14.48,7.87,14.49,7.87,-7.87,-7.78,-7.63,6.62,6.62,6.61
50.96,14.41,7.84,14.44,7.85,-7.85,-7.76,-7.64,6.56,6.58,6.58
51.47,14.37,7.83,14.38,7.84,-7.84,-7.74,-7.66,6.54,6.54,6.55
51.99,14.34,7.84,14.32,7.82,-7.82,-7.72,-7.68,6.52,6.50,6.50
52.51,14.28,7.82,14.26,7.80,-7.80,-7.71,-7.70,6.49,6.46,6.47
53.03,14.23,7.79,14.20,7.78,-7.78,-7.69,-7.73,6.46,6.43,6.44
53.56,14.16,7.76,14.15,7.76,-7.76,-7.67,-7.75,6.41,6.39,6.40
54.10,14.09,7.74,14.09,7.73,-7.73,-7.66,-7.78,6.36,6.35,6.36
54.64,14.02,7.70,14.03,7.71,-7.71,-7.64,-7.81,6.32,6.32,6.32
55.18,13.96,7.69,13.97,7.68,-7.68,-7.62,-7.83,6.28,6.29,6.27
55.74,13.88,7.65,13.91,7.65,-7.65,-7.60,-7.86,6.23,6.25,6.24
56.29,13.82,7.61,13.85,7.62,-7.62,-7.59,-7.88,6.20,6.22,6.21
56.86,13.76,7.58,13.78,7.60,-7.60,-7.57,-7.91,6.17,6.19,6.18
57.42,13.70,7.57,13.72,7.57,-7.57,-7.56,-7.93,6.13,6.15,6.13
58.00,13.64,7.53,13.66,7.55,-7.55,-7.54,-7.94,6.10,6.12,6.11
58.58,13.62,7.53,13.61,7.53,-7.53,-7.52,-7.96,6.10,6.08,6.09
59.16,13.58,7.52,13.55,7.51,-7.51,-7.51,-7.97,6.08,6.04,6.06
59.76,13.52,7.49,13.50,7.49,-7.49,-7.49,-7.97,6.03,6.00,6.03
60.35,13.45,7.47,13.44,7.48,-7.48,-7.47,-7.97,5.97,5.97,5.98
60.96,13.38,7.44,13.40,7.47,-7.47,-7.46,-7.96,5.91,5.93,5.94
61.57,13.32,7.44,13.35,7.46,-7.46,-7.44,-7.95,5.86,5.89,5.89
62.18,13.27,7.44,13.30,7.46,-7.46,-7.42,-7.93,5.82,5.84,5.83
62.80,13.24,7.46,13.25,7.45,-7.45,-7.41,-7.91,5.79,5.80,5.78
63.43,13.20,7.47,13.20,7.45,-7.45,-7.39,-7.88,5.75,5.75,5.73
64.07,13.15,7.46,13.15,7.44,-7.44,-7.38,-7.84,5.71,5.71,5.70
64.71,13.07,7.42,13.10,7.44,-7.44,-7.36,-7.80,5.63,5.66,5.65
65.35,13.03,7.42,13.04,7.43,-7.43,-7.34,-7.75,5.60,5.61,5.61
66.01,13.03,7.47,12.99,7.42,-7.42,-7.33,-7.69,5.61,5.57,5.57
66.67,12.96,7.43,12.94,7.42,-7.42,-7.31,-7.64,5.55,5.52,5.54
67.33,12.90,7.43,12.88,7.41,-7.41,-7.29,-7.57,5.50,5.48,5.48
68.01,12.83,7.40,12.83,7.40,-7.40,-7.28,-7.51,5.44,5.43,5.44
68.69,12.77,7.39,12.77,7.38,-7.38,-7.26,-7.44,5.39,5.39,5.39
69.37,12.70,7.35,12.71,7.36,-7.36,-7.24,-7.36,5.34,5.34,5.35
70.07,12.63,7.33,12.64,7.35,-7.35,-7.23,-7.29,5.29,5.30,5.30
70.77,12.58,7.33,12.58,7.33,-7.33,-7.21,-7.21,5.25,5.25,5.26
71.48,12.50,7.29,12.51,7.31,-7.31,-7.19,-7.13,5.19,5.20,5.21
72.19,12.43,7.28,12.45,7.29,-7.29,-7.18,-7.05,5.14,5.16,5.16
72.91,12.41,7.30,12.38,7.27,-7.27,-7.16,-6.97,5.14,5.11,5.11
73.64,12.29,7.23,12.31,7.24,-7.24,-7.14,-6.90,5.05,5.07,5.06
74.38,12.23,7.21,12.25,7.22,-7.22,-7.12,-6.82,5.02,5.03,5.02
75.12,12.21,7.24,12.18,7.19,-7.19,-7.11,-6.74,5.02,4.99,4.98
75.87,12.09,7.15,12.12,7.17,-7.17,-7.09,-6.67,4.92,4.95,4.95
76.63,12.04,7.14,12.06,7.14,-7.14,-7.07,-6.59,4.90,4.91,4.91
77.40,12.01,7.14,11.99,7.12,-7.12,-7.05,-6.52,4.90,4.87,4.87
78.17,11.94,7.11,11.93,7.09,-7.09,-7.04,-6.45,4.85,4.84,4.83
78.95,11.83,7.03,11.86,7.06,-7.06,-7.02,-6.39,4.77,4.80,4.81
79.74,11.82,7.05,11.80,7.04,-7.04,-7.00,-6.33,4.79,4.77,4.77
80.54,11.73,6.99,11.74,7.01,-7.01,-6.98,-6.27,4.73,4.74,4.74
81.35,11.65,6.95,11.68,6.98,-6.98,-6.96,-6.21,4.67,4.70,4.70
82.16,11.62,6.95,11.62,6.95,-6.95,-6.94,-6.16,4.67,4.67,4.68
82.98,11.62,6.98,11.56,6.93,-6.93,-6.93,-6.11,4.70,4.63,4.64
83.81,11.46,6.86,11.50,6.90,-6.90,-6.91,-6.07,4.56,4.60,4.60
84.65,11.42,6.86,11.44,6.88,-6.88,-6.89,-6.03,4.54,4.56,4.56
85.50,11.38,6.87,11.38,6.85,-6.85,-6.87,-6.00,4.53,4.53,4.51
86.35,11.32,6.84,11.32,6.83,-6.83,-6.85,-5.97,4.49,4.49,4.48
87.22,11.26,6.81,11.26,6.81,-6.81,-6.83,-5.94,4.46,4.45,4.45
88.09,11.21,6.80,11.20,6.79,-6.79,-6.81,-5.92,4.43,4.41,4.41
88.97,11.12,6.75,11.14,6.77,-6.77,-6.79,-5.90,4.36,4.37,4.38
89.86,11.06,6.74,11.08,6.75,-6.75,-6.77,-5.89,4.31,4.33,4.33
90.76,11.01,6.72,11.02,6.73,-6.73,-6.75,-5.88,4.28,4.29,4.29
91.66,10.95,6.72,10.95,6.71,-6.71,-6.73,-5.88,4.24,4.24,4.24
92.58,10.88,6.68,10.89,6.69,-6.69,-6.71,-5.88,4.19,4.20,4.20
93.51,10.81,6.66,10.82,6.67,-6.67,-6.69,-5.88,4.14,4.15,4.16
94.44,10.76,6.65,10.75,6.65,-6.65,-6.67,-5.89,4.11,4.10,4.11
95.39,10.69,6.64,10.68,6.63,-6.63,-6.64,-5.90,4.07,4.05,4.06
96.34,10.61,6.61,10.60,6.61,-6.61,-6.62,-5.92,4.01,4.00,4.00
97.30,10.56,6.62,10.53,6.58,-6.58,-6.60,-5.94,3.98,3.94,3.94
98.28,10.47,6.59,10.45,6.56,-6.56,-6.58,-5.96,3.91,3.89,3.89
99.26,10.35,6.53,10.37,6.54,-6.54,-6.56,-5.99,3.82,3.83,3.82
100.25,10.26,6.50,10.28,6.51,-6.51,-6.53,-6.01,3.76,3.78,3.76
101.25,10.17,6.46,10.20,6.48,-6.48,-6.51,-6.05,3.69,3.72,3.72
102.27,10.10,6.45,10.11,6.45,-6.45,-6.49,-6.08,3.65,3.66,3.66
103.29,10.02,6.42,10.02,6.42,-6.42,-6.47,-6.11,3.60,3.60,3.60
104.32,9.94,6.39,9.94,6.39,-6.39,-6.44,-6.15,3.55,3.55,3.55
105.37,9.85,6.36,9.85,6.36,-6.36,-6.42,-6.19,3.49,3.49,3.49
106.42,9.75,6.32,9.76,6.33,-6.33,-6.39,-6.23,3.43,3.44,3.44
107.48,9.67,6.30,9.68,6.30,-6.30,-6.37,-6.27,3.38,3.38,3.37
108.56,9.58,6.25,9.59,6.26,-6.26,-6.35,-6.31,3.32,3.33,3.33
109.64,9.50,6.23,9.50,6.23,-6.23,-6.32,-6.35,3.27,3.27,3.27
110.74,9.41,6.20,9.42,6.20,-6.20,-6.30,-6.39,3.22,3.22,3.22
111.85,9.35,6.18,9.33,6.16,-6.16,-6.27,-6.42,3.19,3.17,3.17
112.97,9.24,6.12,9.24,6.13,-6.13,-6.25,-6.46,3.12,3.12,3.12
114.10,9.19,6.12,9.16,6.09,-6.09,-6.22,-6.49,3.10,3.07,3.08
115.24,9.10,6.08,9.08,6.05,-6.05,-6.19,-6.51,3.05,3.02,3.02
116.39,8.98,6.02,9.00,6.02,-6.02,-6.17,-6.54,2.96,2.98,2.96
117.55,8.88,5.96,8.92,5.99,-5.99,-6.14,-6.56,2.89,2.93,2.93
118.73,8.81,5.94,8.85,5.96,-5.96,-6.11,-6.57,2.85,2.89,2.87
119.92,8.75,5.92,8.78,5.93,-5.93,-6.09,-6.58,2.82,2.85,2.84
121.12,8.69,5.88,8.71,5.90,-5.90,-6.06,-6.58,2.79,2.81,2.81
122.33,8.63,5.86,8.64,5.88,-5.88,-6.03,-6.58,2.76,2.77,2.77
123.55,8.58,5.85,8.58,5.85,-5.85,-6.00,-6.57,2.73,2.73,2.74
124.79,8.52,5.82,8.52,5.83,-5.83,-5.97,-6.56,2.70,2.69,2.71
126.03,8.48,5.82,8.46,5.81,-5.81,-5.95,-6.54,2.68,2.65,2.66
127.29,8.42,5.80,8.40,5.79,-5.79,-5.92,-6.51,2.64,2.62,2.62
128.57,8.36,5.78,8.35,5.77,-5.77,-5.89,-6.47,2.59,2.58,2.58
129.85,8.30,5.76,8.30,5.75,-5.75,-5.86,-6.43,2.55,2.55,2.54
131.15,8.23,5.73,8.24,5.73,-5.73,-5.83,-6.39,2.50,2.51,2.50
132.46,8.17,5.71,8.18,5.71,-5.71,-5.80,-6.33,2.46,2.47,2.47
133.79,8.12,5.70,8.12,5.69,-5.69,-5.77,-6.28,2.43,2.43,2.43
135.12,8.06,5.67,8.06,5.66,-5.66,-5.74,-6.21,2.40,2.40,2.39
136.48,8.00,5.64,8.00,5.64,-5.64,-5.71,-6.15,2.37,2.36,2.36
137.84,7.93,5.60,7.93,5.61,-5.61,-5.68,-6.08,2.32,2.32,2.33
139.22,7.86,5.59,7.86,5.58,-5.58,-5.64,-6.00,2.28,2.28,2.28
140.61,7.81,5.56,7.79,5.55,-5.55,-5.61,-5.93,2.27,2.25,2.25
142.02,7.74,5.53,7.73,5.52,-5.52,-5.58,-5.85,2.23,2.21,2.21
143.44,7.65,5.49,7.66,5.48,-5.48,-5.55,-5.77,2.17,2.18,2.17
144.87,7.56,5.43,7.59,5.45,-5.45,-5.52,-5.69,2.11,2.14,2.14
146.32,7.52,5.42,7.52,5.42,-5.42,-5.48,-5.60,2.11,2.10,2.11
147.78,7.43,5.37,7.45,5.38,-5.38,-5.45,-5.52,2.05,2.07,2.07
149.26,7.35,5.32,7.38,5.35,-5.35,-5.42,-5.44,2.01,2.03,2.03
150.75,7.32,5.34,7.30,5.31,-5.31,-5.38,-5.36,2.01,1.99,1.98
152.26,7.23,5.28,7.23,5.28,-5.28,-5.35,-5.27,1.95,1.95,1.95
153.78,7.13,5.21,7.16,5.25,-5.25,-5.31,-5.19,1.88,1.91,1.92
155.32,7.12,5.24,7.09,5.22,-5.22,-5.28,-5.12,1.91,1.88,1.88
156.88,7.04,5.20,7.02,5.18,-5.18,-5.24,-5.04,1.86,1.83,1.84
158.44,6.94,5.15,6.95,5.15,-5.15,-5.21,-4.96,1.79,1.79,1.80
160.03,6.85,5.10,6.87,5.12,-5.12,-5.17,-4.89,1.73,1.75,1.75
161.63,6.78,5.07,6.80,5.09,-5.09,-5.14,-4.82,1.69,1.71,1.71
163.24,6.73,5.07,6.72,5.06,-5.06,-5.10,-4.76,1.68,1.66,1.66
164.88,6.65,5.03,6.64,5.02,-5.02,-5.07,-4.69,1.63,1.62,1.62
166.53,6.59,5.02,6.56,4.99,-4.99,-5.03,-4.63,1.61,1.58,1.57
168.19,6.50,4.97,6.49,4.96,-4.96,-4.99,-4.57,1.55,1.53,1.53
169.87,6.41,4.93,6.41,4.92,-4.92,-4.96,-4.52,1.49,1.49,1.49
171.57,6.31,4.87,6.33,4.89,-4.89,-4.92,-4.47,1.42,1.44,1.44
173.29,6.26,4.87,6.26,4.86,-4.86,-4.88,-4.42,1.40,1.40,1.39
175.02,6.16,4.81,6.19,4.83,-4.83,-4.84,-4.37,1.33,1.36,1.36
176.77,6.08,4.77,6.12,4.80,-4.80,-4.80,-4.33,1.28,1.32,1.31
178.54,6.07,4.80,6.06,4.78,-4.78,-4.77,-4.29,1.29,1.28,1.27
180.32,5.97,4.75,5.99,4.76,-4.76,-4.73,-4.26,1.22,1.24,1.23
182.13,5.90,4.71,5.93,4.73,-4.73,-4.69,-4.22,1.17,1.20,1.19
183.95,5.89,4.73,5.88,4.72,-4.72,-4.65,-4.20,1.18,1.16,1.16
185.79,5.83,4.71,5.82,4.70,-4.70,-4.61,-4.17,1.14,1.12,1.12
187.65,5.73,4.64,5.77,4.68,-4.68,-4.57,-4.15,1.05,1.09,1.09
189.52,5.73,4.68,5.72,4.67,-4.67,-4.53,-4.13,1.07,1.05,1.05
191.42,5.67,4.64,5.67,4.65,-4.65,-4.49,-4.11,1.03,1.02,1.03
193.33,5.59,4.60,5.62,4.63,-4.63,-4.45,-4.10,0.97,0.99,0.99
195.27,5.57,4.62,5.56,4.61,-4.61,-4.41,-4.08,0.97,0.96,0.96
197.22,5.55,4.64,5.51,4.59,-4.59,-4.37,-4.07,0.97,0.93,0.92
199.19,5.46,4.57,5.46,4.56,-4.56,-4.32,-4.07,0.90,0.89,0.89
201.18,5.40,4.55,5.39,4.53,-4.53,-4.28,-4.06,0.87,0.86,0.86
203.19,5.32,4.49,5.33,4.50,-4.50,-4.24,-4.06,0.83,0.83,0.83
205.23,5.23,4.43,5.26,4.46,-4.46,-4.20,-4.06,0.77,0.80,0.80
207.28,5.21,4.43,5.19,4.42,-4.42,-4.16,-4.06,0.79,0.77,0.78
209.35,5.14,4.40,5.11,4.37,-4.37,-4.11,-4.06,0.77,0.74,0.75
211.44,5.03,4.32,5.04,4.33,-4.33,-4.07,-4.06,0.71,0.71,0.71
213.56,4.99,4.31,4.96,4.28,-4.28,-4.03,-4.06,0.71,0.68,0.69
215.69,4.91,4.26,4.88,4.23,-4.23,-3.98,-4.06,0.68,0.65,0.66
217.85,4.80,4.17,4.81,4.18,-4.18,-3.94,-4.06,0.63,0.63,0.63
220.03,4.67,4.08,4.73,4.12,-4.12,-3.90,-4.06,0.55,0.60,0.59
222.23,4.60,4.03,4.65,4.07,-4.07,-3.85,-4.07,0.53,0.58,0.57
224.45,4.58,4.03,4.58,4.02,-4.02,-3.81,-4.06,0.56,0.56,0.55
226.70,4.50,3.98,4.51,3.97,-3.97,-3.77,-4.06,0.53,0.54,0.53
228.96,4.39,3.88,4.44,3.92,-3.92,-3.72,-4.06,0.47,0.52,0.52
231.25,4.39,3.89,4.38,3.87,-3.87,-3.68,-4.05,0.52,0.51,0.51
233.57,4.37,3.89,4.32,3.82,-3.82,-3.63,-4.04,0.55,0.50,0.49
235.90,4.23,3.75,4.26,3.78,-3.78,-3.59,-4.03,0.46,0.49,0.48
238.26,4.21,3.74,4.21,3.73,-3.73,-3.54,-4.01,0.48,0.48,0.47
240.64,4.13,3.65,4.16,3.69,-3.69,-3.49,-4.00,0.45,0.47,0.48
243.05,4.08,3.61,4.11,3.64,-3.64,-3.45,-3.97,0.44,0.47,0.47
245.48,4.08,3.62,4.07,3.60,-3.60,-3.40,-3.95,0.49,0.47,0.47
247.93,4.02,3.57,4.02,3.55,-3.55,-3.36,-3.92,0.47,0.47,0.46
250.41,3.95,3.48,3.96,3.50,-3.50,-3.31,-3.88,0.46,0.46,0.47
252.92,3.94,3.47,3.91,3.45,-3.45,-3.26,-3.84,0.49,0.46,0.47
255.45,3.87,3.42,3.86,3.40,-3.40,-3.22,-3.80,0.47,0.46,0.46
258.00,3.79,3.33,3.80,3.35,-3.35,-3.17,-3.75,0.45,0.45,0.46
260.58,3.77,3.32,3.74,3.30,-3.30,-3.12,-3.70,0.48,0.44,0.45
263.19,3.70,3.26,3.68,3.25,-3.25,-3.08,-3.64,0.46,0.44,0.45
265.82,3.59,3.16,3.62,3.20,-3.20,-3.03,-3.58,0.40,0.43,0.43
268.48,3.56,3.14,3.57,3.15,-3.15,-2.98,-3.52,0.42,0.42,0.43
271.16,3.52,3.11,3.50,3.09,-3.09,-2.93,-3.46,0.43,0.41,0.41
273.87,3.39,2.99,3.44,3.04,-3.04,-2.88,-3.39,0.36,0.40,0.40
276.61,3.35,2.96,3.37,2.98,-2.98,-2.84,-3.31,0.37,0.39,0.39
279.38,3.33,2.97,3.31,2.92,-2.92,-2.79,-3.24,0.41,0.39,0.36
282.17,3.21,2.84,3.24,2.86,-2.86,-2.74,-3.16,0.35,0.38,0.37
284.99,3.16,2.80,3.17,2.80,-2.80,-2.69,-3.08,0.36,0.37,0.37
287.84,3.12,2.75,3.11,2.74,-2.74,-2.64,-3.00,0.38,0.37,0.37
290.72,3.08,2.73,3.04,2.68,-2.68,-2.59,-2.92,0.41,0.37,0.36
293.63,3.00,2.64,2.98,2.62,-2.62,-2.54,-2.84,0.39,0.36,0.36
296.57,2.92,2.55,2.92,2.56,-2.56,-2.49,-2.75,0.37,0.36,0.37
299.53,2.83,2.47,2.85,2.49,-2.49,-2.44,-2.67,0.34,0.36,0.37
302.53,2.75,2.38,2.79,2.42,-2.42,-2.39,-2.58,0.33,0.36,0.37
305.55,2.71,2.35,2.72,2.36,-2.36,-2.34,-2.50,0.36,0.36,0.37
308.61,2.65,2.28,2.66,2.29,-2.29,-2.29,-2.41,0.36,0.36,0.38
311.69,2.59,2.23,2.59,2.23,-2.23,-2.24,-2.33,0.37,0.36,0.36
314.81,2.54,2.17,2.53,2.17,-2.17,-2.19,-2.24,0.37,0.36,0.37
317.96,2.47,2.12,2.47,2.11,-2.11,-2.14,-2.16,0.36,0.36,0.36
321.14,2.41,2.05,2.41,2.05,-2.05,-2.09,-2.07,0.36,0.36,0.36
324.35,2.36,2.00,2.35,1.99,-1.99,-2.04,-1.99,0.38,0.36,0.36
327.59,2.27,1.91,2.29,1.93,-1.93,-1.99,-1.91,0.34,0.36,0.37
330.87,2.21,1.85,2.23,1.87,-1.87,-1.94,-1.83,0.34,0.36,0.37
334.18,2.16,1.81,2.17,1.81,-1.81,-1.88,-1.75,0.35,0.36,0.35
337.52,2.15,1.79,2.12,1.75,-1.75,-1.83,-1.67,0.40,0.36,0.36
340.90,2.08,1.73,2.06,1.69,-1.69,-1.78,-1.59,0.39,0.36,0.36
344.30,2.00,1.64,2.00,1.64,-1.64,-1.73,-1.51,0.37,0.37,0.37
347.75,1.96,1.59,1.95,1.58,-1.58,-1.68,-1.43,0.39,0.37,0.37
351.23,1.87,1.51,1.89,1.52,-1.52,-1.62,-1.35,0.36,0.37,0.36
354.74,1.78,1.40,1.84,1.46,-1.46,-1.57,-1.28,0.32,0.38,0.38
358.28,1.75,1.38,1.78,1.40,-1.40,-1.52,-1.20,0.35,0.38,0.38
361.87,1.74,1.36,1.73,1.34,-1.34,-1.46,-1.13,0.40,0.39,0.39
365.49,1.68,1.29,1.68,1.28,-1.28,-1.41,-1.06,0.40,0.39,0.39
369.14,1.63,1.23,1.63,1.23,-1.23,-1.36,-0.99,0.41,0.40,0.40
372.83,1.59,1.18,1.57,1.17,-1.17,-1.30,-0.92,0.43,0.40,0.41
376.56,1.52,1.11,1.52,1.11,-1.11,-1.25,-0.85,0.41,0.41,0.41
380.33,1.47,1.07,1.46,1.06,-1.06,-1.19,-0.78,0.42,0.41,0.41
384.13,1.41,1.00,1.41,1.00,-1.00,-1.14,-0.71,0.41,0.41,0.42
387.97,1.34,0.93,1.35,0.95,-0.95,-1.08,-0.64,0.40,0.41,0.42
391.85,1.29,0.88,1.30,0.89,-0.89,-1.03,-0.58,0.40,0.41,0.41
395.77,1.22,0.82,1.24,0.84,-0.84,-0.97,-0.51,0.39,0.40,0.40
399.73,1.20,0.80,1.17,0.78,-0.78,-0.92,-0.45,0.43,0.40,0.40
403.72,1.15,0.74,1.11,0.72,-0.72,-0.86,-0.38,0.44,0.39,0.41
407.76,1.04,0.65,1.05,0.66,-0.66,-0.80,-0.32,0.39,0.39,0.39
411.84,0.99,0.60,0.98,0.60,-0.60,-0.75,-0.26,0.40,0.39,0.39
415.96,0.92,0.54,0.92,0.54,-0.54,-0.69,-0.20,0.39,0.39,0.39
420.12,0.85,0.48,0.87,0.47,-0.47,-0.63,-0.14,0.38,0.39,0.38
424.32,0.81,0.43,0.82,0.42,-0.42,-0.58,-0.08,0.40,0.40,0.39
428.56,0.75,0.35,0.77,0.36,-0.36,-0.52,-0.02,0.40,0.41,0.41
432.85,0.72,0.30,0.73,0.30,-0.30,-0.46,0.04,0.43,0.43,0.42
437.18,0.67,0.24,0.70,0.24,-0.24,-0.40,0.09,0.44,0.46,0.43
441.55,0.63,0.16,0.67,0.18,-0.18,-0.34,0.15,0.46,0.49,0.47
445.96,0.63,0.12,0.65,0.12,-0.12,-0.29,0.20,0.51,0.53,0.51
450.42,0.60,0.05,0.64,0.07,-0.07,-0.23,0.25,0.53,0.57,0.55
454.93,0.60,0.00,0.64,0.02,-0.02,-0.17,0.30,0.58,0.62,0.60
459.48,0.61,-0.05,0.64,-0.03,0.03,-0.11,0.35,0.64,0.67,0.66
464.07,0.66,-0.07,0.65,-0.08,0.08,-0.05,0.40,0.74,0.72,0.73
468.71,0.68,-0.10,0.65,-0.13,0.13,0.01,0.45,0.81,0.78,0.78
473.40,0.63,-0.20,0.65,-0.18,0.18,0.07,0.49,0.81,0.83,0.84
478.13,0.64,-0.25,0.65,-0.23,0.23,0.13,0.54,0.88,0.88,0.90
482.91,0.68,-0.26,0.65,-0.29,0.29,0.19,0.58,0.97,0.94,0.95
487.74,0.70,-0.28,0.64,-0.34,0.34,0.26,0.62,1.05,0.98,0.99
492.62,0.67,-0.35,0.63,-0.40,0.40,0.32,0.66,1.07,1.02,1.03
497.55,0.61,-0.45,0.60,-0.45,0.45,0.38,0.69,1.06,1.05,1.07
502.52,0.60,-0.48,0.58,-0.50,0.50,0.44,0.73,1.11,1.08,1.09
507.55,0.52,-0.59,0.55,-0.55,0.55,0.50,0.77,1.08,1.10,1.11
512.62,0.45,-0.67,0.50,-0.61,0.61,0.56,0.80,1.06,1.11,1.12
517.75,0.45,-0.68,0.45,-0.66,0.66,0.63,0.83,1.12,1.12,1.13
