frequency,raw,error,smoothed,error_smoothed,equalization,parametric_eq,fixed_band_eq,equalized_raw,equalized_smoothed,target
20.00,-10.28,-12.70,-10.29,-12.72,6.00,6.05,2.74,-4.28,-4.29,2.42
20.20,-10.23,-12.68,-10.21,-12.67,6.00,6.03,2.82,-4.23,-4.21,2.45
20.40,-10.13,-12.61,-10.12,-12.60,6.00,6.01,2.89,-4.13,-4.12,2.48
20.61,-10.02,-12.52,-10.02,-12.52,6.00,6.00,2.98,-4.02,-4.02,2.50
20.81,-9.88,-12.41,-9.89,-12.42,6.00,5.99,3.06,-3.88,-3.89,2.53
21.02,-9.76,-12.32,-9.76,-12.31,6.00,5.99,3.15,-3.76,-3.76,2.56
21.23,-9.63,-12.20,-9.63,-12.20,6.00,5.99,3.24,-3.63,-3.63,2.57
21.44,-9.51,-12.09,-9.51,-12.09,6.00,5.99,3.34,-3.51,-3.51,2.58
21.66,-9.38,-11.97,-9.38,-11.97,6.00,5.99,3.43,-3.38,-3.38,2.59
21.87,-9.27,-11.86,-9.26,-11.85,6.00,5.99,3.53,-3.27,-3.26,2.59
22.09,-9.13,-11.73,-9.13,-11.73,6.00,6.00,3.63,-3.13,-3.13,2.60
22.31,-9.00,-11.60,-9.00,-11.60,6.00,6.00,3.74,-3.00,-3.00,2.60
22.54,-8.88,-11.48,-8.87,-11.48,6.00,6.01,3.84,-2.88,-2.87,2.60
22.76,-8.74,-11.34,-8.75,-11.34,6.00,6.01,3.95,-2.74,-2.75,2.60
22.99,-8.63,-11.22,-8.62,-11.21,6.00,6.01,4.07,-2.63,-2.62,2.59
23.22,-8.48,-11.07,-8.49,-11.08,6.00,6.02,4.18,-2.48,-2.49,2.59
23.45,-8.38,-10.97,-8.37,-10.95,6.00,6.02,4.30,-2.38,-2.37,2.59
23.69,-8.23,-10.82,-8.23,-10.82,6.00,6.02,4.42,-2.23,-2.23,2.59
23.92,-8.10,-10.69,-8.10,-10.70,6.00,6.02,4.54,-2.10,-2.10,2.59
24.16,-7.98,-10.58,-7.97,-10.57,6.00,6.01,4.67,-1.98,-1.97,2.60
24.40,-7.84,-10.44,-7.85,-10.44,6.00,6.01,4.79,-1.84,-1.85,2.60
24.65,-7.73,-10.32,-7.72,-10.31,6.00,6.01,4.92,-1.73,-1.72,2.59
24.89,-7.59,-10.17,-7.59,-10.18,6.00,6.00,5.05,-1.59,-1.59,2.59
25.14,-7.47,-10.05,-7.46,-10.05,6.00,5.99,5.18,-1.47,-1.46,2.59
25.39,-7.34,-9.92,-7.33,-9.92,6.00,5.99,5.32,-1.34,-1.33,2.59
25.65,-7.19,-9.78,-7.20,-9.79,6.00,5.98,5.45,-1.19,-1.20,2.59
25.91,-7.09,-9.67,-7.07,-9.65,6.00,5.97,5.58,-1.09,-1.07,2.57
26.16,-6.94,-9.51,-6.95,-9.52,6.00,5.96,5.72,-0.94,-0.95,2.57
26.43,-6.82,-9.39,-6.82,-9.39,6.00,5.95,5.85,-0.82,-0.82,2.57
26.69,-6.69,-9.26,-6.69,-9.26,6.00,5.94,5.98,-0.69,-0.69,2.57
26.96,-6.55,-9.12,-6.56,-9.13,6.00,5.94,6.11,-0.55,-0.56,2.57
27.23,-6.44,-9.01,-6.43,-9.00,6.00,5.93,6.23,-0.44,-0.43,2.57
27.50,-6.30,-8.87,-6.31,-8.87,6.00,5.92,6.36,-0.30,-0.31,2.57
27.77,-6.18,-8.74,-6.17,-8.74,6.00,5.92,6.47,-0.18,-0.17,2.56
28.05,-6.05,-8.61,-6.04,-8.60,6.00,5.91,6.59,-0.05,-0.04,2.56
28.33,-5.90,-8.45,-5.91,-8.47,6.00,5.91,6.69,0.10,0.09,2.55
28.62,-5.80,-8.35,-5.79,-8.33,6.00,5.91,6.79,0.20,0.21,2.55
28.90,-5.65,-8.20,-5.66,-8.20,6.00,5.91,6.88,0.35,0.34,2.55
29.19,-5.54,-8.08,-5.53,-8.07,6.00,5.91,6.96,0.46,0.47,2.54
29.48,-5.40,-7.94,-5.40,-7.94,6.00,5.92,7.03,0.60,0.60,2.54
29.78,-5.26,-7.79,-5.27,-7.81,6.00,5.93,7.09,0.74,0.73,2.53
30.08,-5.15,-7.68,-5.14,-7.67,6.00,5.95,7.13,0.85,0.86,2.53
30.38,-5.01,-7.53,-5.02,-7.54,6.00,5.97,7.17,0.99,0.98,2.52
30.68,-4.90,-7.42,-4.89,-7.41,6.00,5.99,7.19,1.10,1.11,2.52
30.99,-4.76,-7.27,-4.76,-7.27,6.00,6.01,7.20,1.24,1.24,2.51
31.30,-4.61,-7.12,-4.63,-7.14,6.00,6.03,7.19,1.39,1.37,2.51
31.61,-4.50,-7.01,-4.49,-6.99,6.00,6.04,7.17,1.50,1.51,2.51
31.93,-4.36,-6.86,-4.36,-6.85,6.01,6.05,7.13,1.65,1.65,2.50
32.24,-4.21,-6.69,-4.23,-6.72,6.02,6.05,7.09,1.81,1.79,2.48
32.57,-4.11,-6.59,-4.09,-6.58,6.02,6.03,7.02,1.91,1.93,2.48
32.89,-3.96,-6.44,-3.97,-6.45,6.02,5.99,6.95,2.06,2.05,2.48
33.22,-3.85,-6.32,-3.84,-6.31,6.01,5.93,6.86,2.16,2.17,2.47
33.55,-3.71,-6.18,-3.71,-6.17,5.98,5.86,6.77,2.27,2.27,2.47
33.89,-3.57,-6.03,-3.58,-6.04,5.93,5.76,6.66,2.36,2.35,2.46
34.23,-3.46,-5.92,-3.46,-5.91,5.86,5.66,6.54,2.40,2.40,2.46
34.57,-3.33,-5.77,-3.33,-5.77,5.77,5.54,6.41,2.44,2.44,2.44
34.92,-3.22,-5.65,-3.21,-5.65,5.66,5.42,6.28,2.44,2.44,2.43
35.27,-3.07,-5.50,-3.08,-5.51,5.53,5.30,6.14,2.46,2.45,2.43
35.62,-2.97,-5.39,-2.96,-5.37,5.39,5.18,6.00,2.42,2.44,2.42
35.97,-2.82,-5.22,-2.82,-5.23,5.25,5.05,5.85,2.43,2.42,2.41
36.33,-2.70,-5.10,-2.70,-5.10,5.10,4.94,5.69,2.41,2.40,2.40
36.70,-2.57,-4.96,-2.57,-4.96,4.96,4.82,5.53,2.39,2.40,2.39
37.06,-2.45,-4.83,-2.45,-4.83,4.83,4.71,5.38,2.38,2.38,2.38
37.43,-2.32,-4.69,-2.32,-4.69,4.69,4.60,5.21,2.37,2.37,2.38
37.81,-2.19,-4.55,-2.19,-4.55,4.55,4.49,5.05,2.36,2.36,2.36
38.19,-2.07,-4.42,-2.07,-4.42,4.42,4.39,4.89,2.35,2.35,2.35
38.57,-1.93,-4.28,-1.93,-4.28,4.28,4.29,4.73,2.35,2.35,2.35
38.95,-1.82,-4.15,-1.81,-4.14,4.14,4.19,4.56,2.33,2.33,2.34
39.34,-1.67,-3.99,-1.68,-4.01,4.01,4.09,4.40,2.34,2.32,2.32
39.74,-1.57,-3.88,-1.56,-3.87,3.87,4.00,4.24,2.30,2.31,2.31
40.14,-1.43,-3.74,-1.43,-3.73,3.73,3.90,4.08,2.30,2.30,2.31
40.54,-1.29,-3.58,-1.30,-3.60,3.60,3.81,3.92,2.30,2.29,2.29
40.94,-1.18,-3.47,-1.17,-3.46,3.46,3.71,3.76,2.28,2.29,2.29
41.35,-1.04,-3.31,-1.05,-3.32,3.33,3.62,3.61,2.29,2.28,2.28
41.76,-0.93,-3.20,-0.92,-3.19,3.20,3.52,3.45,2.27,2.27,2.27
42.18,-0.80,-3.07,-0.80,-3.06,3.07,3.43,3.30,2.27,2.27,2.27
42.60,-0.68,-2.93,-0.68,-2.94,2.94,3.33,3.15,2.26,2.26,2.25
43.03,-0.57,-2.82,-0.56,-2.81,2.81,3.24,3.00,2.24,2.25,2.25
43.46,-0.45,-2.68,-0.45,-2.69,2.68,3.14,2.85,2.23,2.23,2.24
43.90,-0.35,-2.56,-0.35,-2.57,2.55,3.04,2.71,2.20,2.20,2.21
44.33,-0.24,-2.43,-0.24,-2.44,2.43,2.95,2.57,2.19,2.19,2.20
44.78,-0.14,-2.32,-0.12,-2.30,2.30,2.85,2.42,2.16,2.18,2.18
45.23,0.01,-2.16,-0.00,-2.17,2.18,2.75,2.28,2.19,2.18,2.17
45.68,0.11,-2.04,0.10,-2.05,2.06,2.65,2.15,2.17,2.16,2.15
46.13,0.20,-1.93,0.21,-1.93,1.94,2.55,2.01,2.14,2.15,2.14
46.60,0.29,-1.84,0.30,-1.83,1.83,2.45,1.88,2.12,2.13,2.13
47.06,0.40,-1.71,0.40,-1.72,1.71,2.35,1.75,2.11,2.11,2.11
47.53,0.50,-1.60,0.49,-1.61,1.60,2.24,1.62,2.10,2.09,2.10
48.01,0.58,-1.51,0.59,-1.49,1.49,2.14,1.49,2.07,2.08,2.09
48.49,0.69,-1.37,0.68,-1.38,1.38,2.03,1.36,2.07,2.06,2.06
48.97,0.77,-1.27,0.78,-1.26,1.26,1.93,1.24,2.03,2.04,2.04
49.46,0.87,-1.14,0.87,-1.14,1.15,1.82,1.11,2.02,2.02,2.01
49.96,0.96,-1.02,0.96,-1.03,1.03,1.72,0.99,1.99,1.99,1.98
50.46,1.05,-0.93,1.05,-0.92,0.92,1.61,0.87,1.97,1.97,1.98
50.96,1.14,-0.82,1.14,-0.81,0.81,1.50,0.76,1.95,1.95,1.96
51.47,1.24,-0.69,1.23,-0.70,0.70,1.39,0.64,1.94,1.93,1.93
51.99,1.32,-0.59,1.32,-0.59,0.59,1.29,0.53,1.91,1.92,1.91
52.51,1.40,-0.50,1.41,-0.49,0.49,1.18,0.42,1.89,1.90,1.90
53.03,1.50,-0.38,1.49,-0.39,0.39,1.07,0.31,1.89,1.88,1.88
53.56,1.57,-0.29,1.57,-0.29,0.29,0.96,0.20,1.86,1.86,1.86
54.10,1.65,-0.19,1.65,-0.19,0.19,0.85,0.10,1.84,1.84,1.84
54.64,1.72,-0.10,1.73,-0.10,0.10,0.74,0.00,1.82,1.82,1.82
55.18,1.80,-0.00,1.80,-0.00,0.01,0.63,-0.09,1.81,1.81,1.80
55.74,1.87,0.09,1.86,0.08,-0.07,0.53,-0.19,1.80,1.79,1.78
56.29,1.92,0.15,1.92,0.15,-0.15,0.42,-0.28,1.77,1.77,1.77
56.86,1.96,0.21,1.96,0.21,-0.21,0.31,-0.36,1.75,1.75,1.75
57.42,2.00,0.27,2.00,0.27,-0.27,0.21,-0.45,1.73,1.73,1.73
58.00,2.03,0.31,2.03,0.32,-0.32,0.11,-0.53,1.71,1.72,1.72
58.58,2.07,0.37,2.06,0.36,-0.36,0.01,-0.60,1.71,1.70,1.70
59.16,2.07,0.38,2.08,0.39,-0.39,-0.09,-0.67,1.68,1.69,1.69
59.76,2.09,0.41,2.09,0.41,-0.42,-0.19,-0.74,1.67,1.67,1.68
60.35,2.09,0.44,2.09,0.43,-0.43,-0.29,-0.80,1.66,1.65,1.65
60.96,2.07,0.43,2.08,0.45,-0.44,-0.38,-0.85,1.63,1.64,1.64
61.57,2.05,0.45,2.05,0.44,-0.43,-0.47,-0.91,1.62,1.62,1.60
62.18,2.02,0.44,2.02,0.43,-0.42,-0.56,-0.95,1.60,1.59,1.58
62.80,1.97,0.41,1.97,0.42,-0.40,-0.65,-1.00,1.57,1.57,1.56
63.43,1.92,0.39,1.92,0.39,-0.38,-0.73,-1.03,1.54,1.54,1.53
64.07,1.87,0.35,1.87,0.35,-0.35,-0.81,-1.07,1.52,1.52,1.52
64.71,1.83,0.33,1.83,0.33,-0.33,-0.88,-1.10,1.50,1.50,1.50
65.35,1.79,0.31,1.79,0.30,-0.31,-0.95,-1.12,1.48,1.47,1.48
66.01,1.76,0.30,1.75,0.29,-0.31,-1.02,-1.14,1.45,1.45,1.46
66.67,1.72,0.28,1.74,0.29,-0.32,-1.08,-1.16,1.40,1.42,1.44
67.33,1.75,0.33,1.75,0.32,-0.34,-1.14,-1.17,1.41,1.40,1.43
68.01,1.78,0.38,1.78,0.37,-0.39,-1.20,-1.18,1.39,1.39,1.40
68.69,1.83,0.45,1.83,0.45,-0.45,-1.25,-1.19,1.39,1.38,1.38
69.37,1.88,0.52,1.88,0.52,-0.51,-1.30,-1.19,1.37,1.37,1.36
70.07,1.94,0.60,1.94,0.60,-0.59,-1.34,-1.19,1.35,1.35,1.34
70.77,2.00,0.67,2.01,0.68,-0.67,-1.38,-1.19,1.33,1.33,1.33
71.48,2.08,0.77,2.07,0.77,-0.76,-1.41,-1.19,1.32,1.31,1.31
72.19,2.13,0.85,2.13,0.85,-0.84,-1.44,-1.18,1.29,1.29,1.28
72.91,2.18,0.92,2.18,0.92,-0.92,-1.47,-1.18,1.26,1.27,1.26
73.64,2.23,1.00,2.22,0.99,-0.99,-1.49,-1.17,1.24,1.23,1.23
74.38,2.26,1.04,2.27,1.06,-1.07,-1.50,-1.16,1.19,1.21,1.22
75.12,2.32,1.13,2.32,1.13,-1.14,-1.52,-1.15,1.18,1.19,1.19
75.87,2.38,1.21,2.37,1.20,-1.20,-1.53,-1.13,1.18,1.17,1.18
76.63,2.42,1.26,2.42,1.27,-1.26,-1.53,-1.12,1.16,1.16,1.16
77.40,2.46,1.32,2.46,1.32,-1.32,-1.54,-1.11,1.14,1.14,1.14
78.17,2.50,1.39,2.49,1.38,-1.37,-1.53,-1.10,1.13,1.13,1.11
78.95,2.51,1.41,2.52,1.42,-1.41,-1.53,-1.09,1.10,1.11,1.10
79.74,2.54,1.46,2.53,1.45,-1.45,-1.52,-1.07,1.09,1.09,1.08
80.54,2.54,1.48,2.54,1.48,-1.48,-1.51,-1.06,1.06,1.06,1.06
81.35,2.54,1.50,2.54,1.50,-1.51,-1.50,-1.05,1.03,1.04,1.04
82.16,2.54,1.52,2.54,1.52,-1.53,-1.49,-1.04,1.01,1.01,1.02
82.98,2.54,1.53,2.54,1.54,-1.54,-1.47,-1.03,1.00,1.00,1.01
83.81,2.54,1.56,2.54,1.56,-1.55,-1.46,-1.02,0.99,0.98,0.98
84.65,2.54,1.59,2.53,1.57,-1.56,-1.44,-1.01,0.98,0.97,0.95
85.50,2.50,1.56,2.51,1.58,-1.57,-1.42,-1.00,0.93,0.94,0.94
86.35,2.50,1.58,2.49,1.58,-1.58,-1.40,-1.00,0.92,0.91,0.92
87.22,2.46,1.57,2.47,1.58,-1.58,-1.37,-0.99,0.88,0.89,0.89
88.09,2.46,1.59,2.45,1.58,-1.58,-1.35,-0.98,0.88,0.87,0.87
88.97,2.42,1.57,2.43,1.58,-1.58,-1.32,-0.98,0.84,0.84,0.85
89.86,2.41,1.58,2.40,1.58,-1.58,-1.30,-0.98,0.83,0.82,0.83
90.76,2.37,1.58,2.38,1.58,-1.58,-1.27,-0.97,0.79,0.80,0.79
91.66,2.35,1.58,2.35,1.58,-1.58,-1.25,-0.97,0.78,0.77,0.77
92.58,2.32,1.58,2.32,1.57,-1.57,-1.22,-0.97,0.75,0.74,0.74
93.51,2.28,1.56,2.28,1.56,-1.57,-1.20,-0.97,0.71,0.71,0.72
94.44,2.24,1.55,2.25,1.56,-1.56,-1.17,-0.97,0.68,0.69,0.69
95.39,2.21,1.55,2.21,1.55,-1.55,-1.15,-0.97,0.66,0.66,0.66
96.34,2.18,1.55,2.17,1.54,-1.54,-1.12,-0.98,0.64,0.63,0.63
97.30,2.13,1.53,2.14,1.54,-1.53,-1.10,-0.98,0.60,0.60,0.60
98.28,2.09,1.52,2.09,1.52,-1.52,-1.07,-0.98,0.57,0.57,0.57
99.26,2.05,1.51,2.05,1.51,-1.51,-1.05,-0.99,0.54,0.54,0.54
100.25,2.00,1.49,2.01,1.49,-1.49,-1.03,-0.99,0.51,0.51,0.51
101.25,1.96,1.48,1.96,1.48,-1.47,-1.00,-1.00,0.49,0.49,0.48
102.27,1.91,1.46,1.91,1.46,-1.45,-0.98,-1.01,0.46,0.45,0.45
103.29,1.85,1.44,1.85,1.43,-1.43,-0.96,-1.01,0.42,0.42,0.41
104.32,1.79,1.40,1.79,1.40,-1.41,-0.94,-1.02,0.38,0.38,0.39
105.37,1.74,1.38,1.74,1.38,-1.39,-0.92,-1.03,0.35,0.36,0.36
106.42,1.70,1.37,1.70,1.36,-1.37,-0.90,-1.03,0.33,0.33,0.33
107.48,1.66,1.36,1.65,1.35,-1.35,-0.88,-1.04,0.31,0.31,0.31
108.56,1.60,1.33,1.60,1.33,-1.32,-0.86,-1.05,0.28,0.27,0.27
109.64,1.54,1.30,1.54,1.30,-1.30,-0.84,-1.05,0.24,0.24,0.24
110.74,1.48,1.27,1.49,1.29,-1.29,-0.83,-1.06,0.20,0.21,0.21
111.85,1.44,1.26,1.44,1.26,-1.27,-0.81,-1.06,0.17,0.17,0.18
112.97,1.40,1.27,1.38,1.25,-1.25,-0.80,-1.07,0.15,0.14,0.13
114.10,1.31,1.21,1.33,1.23,-1.23,-0.78,-1.07,0.08,0.10,0.10
115.24,1.27,1.21,1.27,1.21,-1.21,-0.77,-1.07,0.06,0.06,0.06
116.39,1.22,1.20,1.21,1.19,-1.19,-0.75,-1.07,0.03,0.02,0.03
117.55,1.16,1.17,1.16,1.17,-1.17,-0.74,-1.07,-0.01,-0.01,-0.01
118.73,1.10,1.15,1.11,1.15,-1.15,-0.73,-1.07,-0.05,-0.05,-0.05
119.92,1.05,1.13,1.05,1.13,-1.13,-0.71,-1.07,-0.08,-0.08,-0.08
121.12,1.01,1.12,1.00,1.11,-1.11,-0.70,-1.07,-0.10,-0.11,-0.11
122.33,0.94,1.09,0.94,1.09,-1.09,-0.69,-1.06,-0.15,-0.15,-0.15
123.55,0.88,1.06,0.89,1.07,-1.07,-0.68,-1.05,-0.19,-0.18,-0.18
124.79,0.83,1.04,0.83,1.04,-1.04,-0.67,-1.04,-0.21,-0.21,-0.21
126.03,0.77,1.02,0.76,1.01,-1.01,-0.66,-1.03,-0.24,-0.25,-0.25
127.29,0.69,0.97,0.69,0.98,-0.98,-0.64,-1.02,-0.29,-0.29,-0.28
128.57,0.62,0.95,0.62,0.94,-0.94,-0.63,-1.00,-0.32,-0.32,-0.32
129.85,0.54,0.90,0.54,0.90,-0.90,-0.62,-0.98,-0.36,-0.36,-0.36
131.15,0.47,0.86,0.47,0.86,-0.85,-0.61,-0.97,-0.38,-0.38,-0.39
132.46,0.38,0.80,0.38,0.80,-0.79,-0.60,-0.95,-0.41,-0.41,-0.42
133.79,0.28,0.73,0.29,0.74,-0.73,-0.59,-0.92,-0.45,-0.44,-0.45
135.12,0.19,0.68,0.18,0.66,-0.65,-0.58,-0.90,-0.46,-0.47,-0.49
136.48,0.07,0.58,0.07,0.58,-0.58,-0.57,-0.88,-0.51,-0.51,-0.51
137.84,-0.06,0.48,-0.05,0.50,-0.50,-0.56,-0.85,-0.55,-0.54,-0.54
139.22,-0.16,0.42,-0.16,0.41,-0.41,-0.55,-0.82,-0.57,-0.58,-0.58
140.61,-0.26,0.35,-0.26,0.34,-0.34,-0.54,-0.79,-0.60,-0.60,-0.61
142.02,-0.36,0.26,-0.36,0.26,-0.27,-0.53,-0.76,-0.63,-0.63,-0.62
143.44,-0.45,0.19,-0.45,0.19,-0.21,-0.52,-0.73,-0.66,-0.66,-0.64
144.87,-0.53,0.14,-0.53,0.14,-0.16,-0.51,-0.70,-0.69,-0.69,-0.67
146.32,-0.59,0.11,-0.58,0.11,-0.12,-0.50,-0.67,-0.71,-0.71,-0.70
147.78,-0.62,0.09,-0.63,0.09,-0.10,-0.49,-0.64,-0.72,-0.73,-0.71
149.26,-0.66,0.08,-0.66,0.08,-0.08,-0.48,-0.60,-0.74,-0.75,-0.74
150.75,-0.70,0.08,-0.69,0.08,-0.08,-0.47,-0.57,-0.78,-0.77,-0.77
152.26,-0.71,0.09,-0.72,0.08,-0.08,-0.45,-0.54,-0.79,-0.80,-0.80
153.78,-0.75,0.07,-0.74,0.08,-0.08,-0.44,-0.50,-0.83,-0.82,-0.82
155.32,-0.77,0.09,-0.77,0.08,-0.08,-0.43,-0.47,-0.85,-0.85,-0.86
156.88,-0.80,0.08,-0.81,0.07,-0.07,-0.42,-0.43,-0.87,-0.88,-0.88
158.44,-0.85,0.06,-0.84,0.07,-0.06,-0.40,-0.40,-0.91,-0.91,-0.91
160.03,-0.90,0.04,-0.89,0.05,-0.04,-0.39,-0.36,-0.94,-0.94,-0.94
161.63,-0.94,0.03,-0.95,0.02,-0.02,-0.38,-0.33,-0.96,-0.97,-0.97
163.24,-1.01,-0.01,-1.01,-0.01,0.01,-0.36,-0.30,-1.00,-0.99,-1.00
164.88,-1.08,-0.06,-1.07,-0.05,0.05,-0.35,-0.26,-1.02,-1.02,-1.02
166.53,-1.15,-0.10,-1.15,-0.10,0.10,-0.33,-0.23,-1.05,-1.05,-1.05
168.19,-1.23,-0.15,-1.23,-0.15,0.16,-0.32,-0.19,-1.07,-1.08,-1.08
169.87,-1.33,-0.22,-1.32,-0.21,0.21,-0.30,-0.16,-1.12,-1.11,-1.11
171.57,-1.41,-0.27,-1.41,-0.28,0.28,-0.28,-0.12,-1.13,-1.13,-1.14
173.29,-1.50,-0.34,-1.51,-0.34,0.34,-0.27,-0.09,-1.16,-1.17,-1.16
175.02,-1.60,-0.41,-1.60,-0.40,0.40,-0.25,-0.05,-1.20,-1.19,-1.19
176.77,-1.70,-0.47,-1.69,-0.47,0.47,-0.23,-0.02,-1.23,-1.23,-1.23
178.54,-1.78,-0.52,-1.78,-0.52,0.53,-0.21,0.02,-1.25,-1.26,-1.26
180.32,-1.86,-0.57,-1.87,-0.58,0.58,-0.20,0.05,-1.28,-1.29,-1.29
182.13,-1.95,-0.64,-1.94,-0.63,0.63,-0.18,0.08,-1.32,-1.31,-1.31
183.95,-2.02,-0.67,-2.01,-0.67,0.67,-0.16,0.12,-1.35,-1.34,-1.35
185.79,-2.07,-0.70,-2.08,-0.70,0.70,-0.14,0.15,-1.37,-1.38,-1.37
187.65,-2.12,-0.72,-2.12,-0.72,0.72,-0.12,0.19,-1.40,-1.41,-1.40
189.52,-2.17,-0.74,-2.16,-0.73,0.72,-0.09,0.22,-1.44,-1.43,-1.43
191.42,-2.18,-0.73,-2.18,-0.73,0.72,-0.07,0.25,-1.46,-1.47,-1.45
193.33,-2.18,-0.71,-2.18,-0.71,0.70,-0.05,0.29,-1.48,-1.49,-1.47
195.27,-2.18,-0.69,-2.17,-0.68,0.67,-0.03,0.32,-1.51,-1.50,-1.49
197.22,-2.14,-0.63,-2.15,-0.63,0.63,-0.00,0.35,-1.51,-1.52,-1.51
199.19,-2.12,-0.57,-2.12,-0.58,0.59,0.02,0.39,-1.53,-1.53,-1.54
201.18,-2.09,-0.53,-2.09,-0.53,0.54,0.04,0.42,-1.54,-1.55,-1.55
203.19,-2.06,-0.49,-2.06,-0.49,0.50,0.07,0.45,-1.56,-1.56,-1.57
205.23,-2.05,-0.46,-2.04,-0.46,0.47,0.09,0.49,-1.58,-1.57,-1.58
207.28,-2.01,-0.42,-2.02,-0.43,0.43,0.12,0.52,-1.57,-1.59,-1.58
209.35,-2.01,-0.41,-2.01,-0.40,0.41,0.15,0.55,-1.60,-1.60,-1.60
211.44,-2.01,-0.39,-2.01,-0.39,0.39,0.17,0.59,-1.62,-1.61,-1.62
213.56,-2.01,-0.39,-2.01,-0.39,0.38,0.20,0.62,-1.63,-1.63,-1.62
215.69,-2.01,-0.39,-2.01,-0.38,0.38,0.23,0.65,-1.63,-1.63,-1.62
217.85,-2.01,-0.38,-2.01,-0.38,0.38,0.26,0.68,-1.63,-1.63,-1.63
220.03,-2.01,-0.37,-2.02,-0.39,0.39,0.28,0.72,-1.62,-1.63,-1.64
222.23,-2.04,-0.40,-2.03,-0.39,0.40,0.31,0.75,-1.64,-1.63,-1.64
224.45,-2.05,-0.42,-2.05,-0.41,0.42,0.34,0.78,-1.63,-1.63,-1.63
226.70,-2.05,-0.42,-2.07,-0.44,0.43,0.37,0.81,-1.62,-1.63,-1.63
228.96,-2.09,-0.47,-2.07,-0.45,0.45,0.41,0.84,-1.64,-1.62,-1.62
231.25,-2.09,-0.48,-2.09,-0.48,0.47,0.44,0.87,-1.62,-1.62,-1.61
233.57,-2.09,-0.48,-2.11,-0.50,0.49,0.47,0.90,-1.59,-1.61,-1.61
235.90,-2.14,-0.54,-2.12,-0.52,0.52,0.50,0.93,-1.62,-1.60,-1.60
238.26,-2.14,-0.54,-2.13,-0.54,0.54,0.54,0.96,-1.60,-1.59,-1.60
240.64,-2.14,-0.56,-2.15,-0.56,0.56,0.57,0.98,-1.58,-1.58,-1.58
243.05,-2.14,-0.57,-2.15,-0.58,0.59,0.60,1.01,-1.55,-1.57,-1.57
245.48,-2.18,-0.63,-2.16,-0.61,0.61,0.64,1.04,-1.57,-1.55,-1.55
247.93,-2.18,-0.64,-2.18,-0.64,0.64,0.67,1.07,-1.54,-1.54,-1.54
250.41,-2.18,-0.65,-2.19,-0.67,0.67,0.71,1.09,-1.51,-1.53,-1.53
252.92,-2.21,-0.70,-2.20,-0.69,0.70,0.75,1.12,-1.51,-1.50,-1.51
255.45,-2.22,-0.74,-2.22,-0.73,0.73,0.79,1.14,-1.49,-1.49,-1.48
258.00,-2.22,-0.75,-2.24,-0.77,0.76,0.82,1.17,-1.46,-1.47,-1.47
260.58,-2.26,-0.81,-2.25,-0.80,0.80,0.86,1.19,-1.46,-1.45,-1.45
263.19,-2.27,-0.84,-2.27,-0.84,0.84,0.90,1.21,-1.43,-1.43,-1.42
265.82,-2.27,-0.86,-2.28,-0.88,0.88,0.94,1.24,-1.39,-1.41,-1.41
268.48,-2.31,-0.93,-2.30,-0.92,0.92,0.98,1.26,-1.39,-1.38,-1.38
271.16,-2.31,-0.95,-2.32,-0.96,0.96,1.02,1.29,-1.35,-1.36,-1.36
273.87,-2.34,-1.00,-2.33,-1.00,1.00,1.07,1.31,-1.34,-1.34,-1.34
276.61,-2.35,-1.04,-2.35,-1.04,1.04,1.11,1.33,-1.31,-1.31,-1.31
279.38,-2.37,-1.07,-2.37,-1.08,1.08,1.15,1.36,-1.29,-1.30,-1.30
282.17,-2.40,-1.12,-2.39,-1.12,1.12,1.19,1.38,-1.28,-1.27,-1.28
284.99,-2.42,-1.17,-2.42,-1.17,1.17,1.24,1.41,-1.25,-1.25,-1.25
287.84,-2.44,-1.21,-2.44,-1.21,1.21,1.28,1.43,-1.23,-1.23,-1.23
290.72,-2.48,-1.27,-2.47,-1.26,1.26,1.33,1.46,-1.22,-1.21,-1.21
293.63,-2.49,-1.30,-2.50,-1.31,1.31,1.38,1.48,-1.18,-1.19,-1.19
296.57,-2.53,-1.37,-2.53,-1.36,1.36,1.42,1.51,-1.17,-1.17,-1.16
299.53,-2.57,-1.43,-2.56,-1.42,1.42,1.47,1.54,-1.15,-1.14,-1.14
302.53,-2.59,-1.46,-2.60,-1.48,1.48,1.52,1.56,-1.11,-1.12,-1.13
305.55,-2.63,-1.54,-2.63,-1.53,1.54,1.57,1.59,-1.09,-1.09,-1.09
308.61,-2.66,-1.59,-2.66,-1.59,1.60,1.62,1.63,-1.06,-1.07,-1.07
311.69,-2.70,-1.66,-2.70,-1.66,1.66,1.67,1.66,-1.04,-1.04,-1.04
314.81,-2.74,-1.73,-2.74,-1.72,1.72,1.72,1.69,-1.02,-1.01,-1.00
317.96,-2.77,-1.78,-2.77,-1.79,1.79,1.77,1.72,-0.98,-0.99,-0.99
321.14,-2.82,-1.85,-2.82,-1.85,1.85,1.82,1.76,-0.97,-0.96,-0.97
324.35,-2.85,-1.90,-2.86,-1.91,1.91,1.87,1.80,-0.94,-0.95,-0.95
327.59,-2.91,-1.99,-2.90,-1.98,1.97,1.93,1.84,-0.94,-0.93,-0.92
330.87,-2.94,-2.04,-2.94,-2.03,2.03,1.98,1.88,-0.91,-0.91,-0.90
334.18,-2.97,-2.08,-2.98,-2.09,2.09,2.03,1.92,-0.88,-0.89,-0.89
337.52,-3.00,-2.13,-3.00,-2.14,2.14,2.09,1.96,-0.86,-0.86,-0.87
340.90,-3.04,-2.20,-3.03,-2.19,2.19,2.14,2.01,-0.85,-0.84,-0.84
344.30,-3.04,-2.22,-3.05,-2.23,2.23,2.20,2.05,-0.81,-0.82,-0.82
347.75,-3.09,-2.29,-3.08,-2.28,2.28,2.25,2.10,-0.81,-0.80,-0.80
351.23,-3.09,-2.31,-3.10,-2.32,2.32,2.31,2.15,-0.77,-0.78,-0.78
354.74,-3.13,-2.37,-3.12,-2.36,2.35,2.37,2.20,-0.77,-0.77,-0.76
358.28,-3.13,-2.38,-3.14,-2.39,2.39,2.42,2.26,-0.74,-0.74,-0.74
361.87,-3.16,-2.43,-3.15,-2.43,2.43,2.48,2.31,-0.73,-0.72,-0.73
365.49,-3.17,-2.46,-3.17,-2.46,2.46,2.54,2.37,-0.71,-0.71,-0.71
369.14,-3.18,-2.48,-3.19,-2.49,2.50,2.59,2.43,-0.68,-0.69,-0.70
372.83,-3.22,-2.54,-3.21,-2.53,2.53,2.65,2.49,-0.69,-0.68,-0.68
376.56,-3.22,-2.55,-3.23,-2.57,2.56,2.71,2.55,-0.66,-0.67,-0.67
380.33,-3.26,-2.62,-3.25,-2.60,2.59,2.76,2.61,-0.67,-0.65,-0.64
384.13,-3.26,-2.63,-3.26,-2.63,2.63,2.82,2.68,-0.63,-0.63,-0.63
387.97,-3.26,-2.64,-3.27,-2.65,2.66,2.87,2.74,-0.60,-0.62,-0.62
391.85,-3.30,-2.69,-3.29,-2.68,2.69,2.93,2.81,-0.61,-0.60,-0.61
395.77,-3.30,-2.71,-3.31,-2.72,2.71,2.98,2.88,-0.58,-0.60,-0.59
399.73,-3.35,-2.76,-3.33,-2.75,2.74,3.04,2.95,-0.61,-0.59,-0.58
403.72,-3.35,-2.77,-3.35,-2.77,2.77,3.09,3.02,-0.58,-0.58,-0.58
407.76,-3.35,-2.78,-3.36,-2.80,2.80,3.15,3.09,-0.55,-0.56,-0.57
411.84,-3.39,-2.84,-3.38,-2.83,2.83,3.20,3.16,-0.56,-0.55,-0.55
415.96,-3.39,-2.85,-3.40,-2.86,2.86,3.25,3.23,-0.53,-0.53,-0.54
420.12,-3.43,-2.90,-3.42,-2.90,2.89,3.30,3.30,-0.54,-0.53,-0.53
424.32,-3.43,-2.91,-3.44,-2.92,2.92,3.35,3.37,-0.51,-0.52,-0.52
428.56,-3.48,-2.97,-3.47,-2.96,2.96,3.39,3.43,-0.52,-0.51,-0.51
432.85,-3.48,-2.98,-3.49,-2.99,2.99,3.44,3.50,-0.49,-0.50,-0.50
437.18,-3.52,-3.03,-3.51,-3.03,3.02,3.48,3.57,-0.49,-0.49,-0.49
441.55,-3.54,-3.07,-3.54,-3.06,3.06,3.52,3.63,-0.48,-0.48,-0.47
445.96,-3.56,-3.10,-3.57,-3.10,3.10,3.56,3.69,-0.46,-0.47,-0.46
450.42,-3.60,-3.15,-3.59,-3.14,3.14,3.60,3.75,-0.46,-0.45,-0.45
454.93,-3.61,-3.18,-3.62,-3.18,3.18,3.64,3.80,-0.43,-0.44,-0.43
459.48,-3.65,-3.23,-3.65,-3.23,3.23,3.67,3.85,-0.42,-0.42,-0.42
464.07,-3.69,-3.29,-3.68,-3.28,3.28,3.70,3.90,-0.41,-0.40,-0.40
468.71,-3.73,-3.35,-3.74,-3.35,3.35,3.73,3.94,-0.38,-0.39,-0.38
473.40,-3.79,-3.42,-3.79,-3.42,3.42,3.76,3.97,-0.37,-0.37,-0.37
478.13,-3.87,-3.52,-3.86,-3.50,3.52,3.78,4.00,-0.35,-0.34,-0.35
