frequency,raw
20.00,-13.09
20.20,-13.01
20.40,-12.92
20.61,-12.84
20.81,-12.76
21.02,-12.67
21.23,-12.59
21.44,-12.51
21.66,-12.42
21.87,-12.34
22.09,-12.25
22.31,-12.17
22.54,-12.08
22.76,-11.99
22.99,-11.90
23.22,-11.82
23.45,-11.73
23.69,-11.64
23.92,-11.56
24.16,-11.47
24.40,-11.38
24.65,-11.30
24.89,-11.21
25.14,-11.12
25.39,-11.03
25.65,-10.94
25.91,-10.85
26.16,-10.76
26.43,-10.68
26.69,-10.59
26.96,-10.50
27.23,-10.41
27.50,-10.32
27.77,-10.23
28.05,-10.14
28.33,-10.06
28.62,-9.97
28.90,-9.88
29.19,-9.79
29.48,-9.70
29.78,-9.62
30.08,-9.53
30.38,-9.44
30.68,-9.35
30.99,-9.26
31.30,-9.19
31.61,-9.11
31.93,-9.03
32.24,-8.95
32.57,-8.86
32.89,-8.78
33.22,-8.69
33.55,-8.61
33.89,-8.53
34.23,-8.44
34.57,-8.36
34.92,-8.27
35.27,-8.19
35.62,-8.11
35.97,-8.04
36.33,-7.95
36.70,-7.86
37.06,-7.78
37.43,-7.69
37.81,-7.60
38.19,-7.52
38.57,-7.43
38.95,-7.35
39.34,-7.26
39.74,-7.18
40.14,-7.09
40.54,-7.00
40.94,-6.90
41.35,-6.81
41.76,-6.71
42.18,-6.61
42.60,-6.50
43.03,-6.40
43.46,-6.31
43.90,-6.21
44.33,-6.11
44.78,-6.01
45.23,-5.91
45.68,-5.80
46.13,-5.69
46.60,-5.58
47.06,-5.48
47.53,-5.37
48.01,-5.26
48.49,-5.16
48.97,-5.06
49.46,-4.95
49.96,-4.85
50.46,-4.75
50.96,-4.66
51.47,-4.56
51.99,-4.47
52.51,-4.38
53.03,-4.30
53.56,-4.22
54.10,-4.15
54.64,-4.07
55.18,-4.00
55.74,-3.92
56.29,-3.85
56.86,-3.79
57.42,-3.73
58.00,-3.68
58.58,-3.62
59.16,-3.57
59.76,-3.51
60.35,-3.45
60.96,-3.39
61.57,-3.34
62.18,-3.29
62.80,-3.24
63.43,-3.19
64.07,-3.15
64.71,-3.10
65.35,-3.05
66.01,-3.00
66.67,-2.95
67.33,-2.90
68.01,-2.85
68.69,-2.80
69.37,-2.75
70.07,-2.70
70.77,-2.65
71.48,-2.60
72.19,-2.56
72.91,-2.53
73.64,-2.52
74.38,-2.50
75.12,-2.49
75.87,-2.48
76.63,-2.49
77.40,-2.50
78.17,-2.51
78.95,-2.53
79.74,-2.54
80.54,-2.57
81.35,-2.61
82.16,-2.65
82.98,-2.69
83.81,-2.72
84.65,-2.74
85.50,-2.74
86.35,-2.75
87.22,-2.74
88.09,-2.72
88.97,-2.68
89.86,-2.65
90.76,-2.60
91.66,-2.57
92.58,-2.54
93.51,-2.51
94.44,-2.48
95.39,-2.45
96.34,-2.44
97.30,-2.43
98.28,-2.42
99.26,-2.41
100.25,-2.40
101.25,-2.39
102.27,-2.39
103.29,-2.38
104.32,-2.37
105.37,-2.34
106.42,-2.31
107.48,-2.27
108.56,-2.20
109.64,-2.12
110.74,-2.05
111.85,-1.97
112.97,-1.88
114.10,-1.79
115.24,-1.70
116.39,-1.64
117.55,-1.56
118.73,-1.45
119.92,-1.35
121.12,-1.23
122.33,-1.17
123.55,-1.10
124.79,-1.00
126.03,-0.91
127.29,-0.86
128.57,-0.79
129.85,-0.67
131.15,-0.57
132.46,-0.52
133.79,-0.45
135.12,-0.38
136.48,-0.34
137.84,-0.29
139.22,-0.26
140.61,-0.21
142.02,-0.16
143.44,-0.15
144.87,-0.13
146.32,-0.12
147.78,-0.12
149.26,-0.12
150.75,-0.13
152.26,-0.14
153.78,-0.14
155.32,-0.14
156.88,-0.14
158.44,-0.14
160.03,-0.14
161.63,-0.14
163.24,-0.14
164.88,-0.14
166.53,-0.14
168.19,-0.14
169.87,-0.14
171.57,-0.14
173.29,-0.14
175.02,-0.14
176.77,-0.14
178.54,-0.14
180.32,-0.14
182.13,-0.14
183.95,-0.14
185.79,-0.14
187.65,-0.14
189.52,-0.14
191.42,-0.14
193.33,-0.15
195.27,-0.16
197.22,-0.16
199.19,-0.16
201.18,-0.15
203.19,-0.14
205.23,-0.11
207.28,-0.08
209.35,-0.04
211.44,0.00
213.56,0.03
215.69,0.07
217.85,0.08
220.03,0.09
222.23,0.09
224.45,0.08
226.70,0.07
228.96,0.05
231.25,0.03
233.57,-0.01
235.90,-0.06
238.26,-0.09
240.64,-0.12
243.05,-0.13
245.48,-0.15
247.93,-0.16
250.41,-0.16
252.92,-0.15
255.45,-0.14
258.00,-0.14
260.58,-0.14
263.19,-0.14
265.82,-0.14
268.48,-0.14
271.16,-0.14
273.87,-0.14
276.61,-0.14
279.38,-0.14
282.17,-0.14
284.99,-0.14
287.84,-0.14
290.72,-0.14
293.63,-0.14
296.57,-0.13
299.53,-0.12
302.53,-0.12
305.55,-0.12
308.61,-0.12
311.69,-0.13
314.81,-0.14
317.96,-0.17
321.14,-0.20
324.35,-0.23
327.59,-0.28
330.87,-0.33
334.18,-0.40
337.52,-0.48
340.90,-0.56
344.30,-0.65
347.75,-0.73
351.23,-0.82
354.74,-0.91
358.28,-1.00
361.87,-1.08
365.49,-1.19
369.14,-1.29
372.83,-1.38
376.56,-1.49
380.33,-1.57
384.13,-1.67
387.97,-1.76
391.85,-1.85
395.77,-1.93
399.73,-2.02
403.72,-2.11
407.76,-2.20
411.84,-2.27
415.96,-2.34
420.12,-2.41
424.32,-2.47
428.56,-2.52
432.85,-2.58
437.18,-2.65
441.55,-2.71
445.96,-2.77
450.42,-2.83
454.93,-2.87
459.48,-2.92
464.07,-2.96
468.71,-3.00
473.40,-3.03
478.13,-3.04
482.91,-3.06
487.74,-3.07
492.62,-3.09
497.55,-3.10
502.52,-3.10
507.55,-3.09
512.62,-3.07
517.75,-3.06
522.93,-3.04
528.16,-3.02
533.44,-2.98
538.77,-2.94
544.16,-2.89
549.60,-2.83
555.10,-2.76
560.65,-2.69
566.25,-2.62
571.92,-2.54
577.64,-2.45
583.41,-2.36
589.25,-2.29
595.14,-2.21
601.09,-2.14
607.10,-2.07
613.17,-2.00
619.30,-1.92
625.50,-1.85
631.75,-1.77
638.07,-1.71
644.45,-1.66
650.89,-1.62
657.40,-1.58
663.98,-1.53
670.62,-1.48
677.32,-1.44
684.10,-1.40
690.94,-1.36
697.85,-1.32
704.83,-1.28
711.87,-1.25
718.99,-1.23
726.18,-1.22
733.44,-1.19
740.78,-1.16
748.19,-1.12
755.67,-1.08
763.23,-1.05
770.86,-1.02
778.57,-0.99
786.35,-0.98
794.22,-0.96
802.16,-0.92
810.18,-0.88
818.28,-0.83
826.46,-0.78
834.73,-0.74
843.08,-0.70
851.51,-0.67
860.02,-0.63
868.62,-0.60
877.31,-0.55
886.08,-0.50
894.94,-0.45
903.89,-0.40
912.93,-0.36
922.06,-0.32
931.28,-0.28
940.59,-0.25
950.00,-0.21
959.50,-0.17
969.09,-0.12
978.78,-0.08
988.57,-0.04
998.46,-0.01
1008.44,0.02
1018.53,0.05
1028.71,0.08
1039.00,0.12
1049.39,0.17
1059.88,0.22
1070.48,0.26
1081.19,0.31
1092.00,0.34
1102.92,0.37
1113.95,0.40
1125.09,0.42
1136.34,0.44
1147.70,0.46
1159.18,0.48
1170.77,0.50
1182.48,0.53
1194.30,0.55
1206.25,0.57
1218.31,0.59
1230.49,0.60
1242.80,0.62
1255.22,0.66
1267.78,0.70
1280.45,0.75
1293.26,0.80
1306.19,0.85
1319.25,0.90
1332.45,0.94
1345.77,0.97
1359.23,1.01
1372.82,1.04
1386.55,1.08
1400.41,1.13
1414.42,1.18
1428.56,1.23
1442.85,1.28
1457.28,1.32
1471.85,1.36
1486.57,1.39
1501.43,1.41
1516.45,1.43
1531.61,1.46
1546.93,1.48
1562.40,1.50
1578.02,1.52
1593.80,1.52
1609.74,1.52
1625.84,1.50
1642.10,1.48
1658.52,1.46
1675.10,1.44
1691.85,1.42
1708.77,1.39
1725.86,1.36
1743.12,1.34
1760.55,1.30
1778.15,1.26
1795.94,1.21
1813.90,1.16
1832.03,1.12
1850.36,1.07
1868.86,1.03
1887.55,0.99
1906.42,0.96
1925.49,0.93
1944.74,0.91
1964.19,0.88
1983.83,0.86
2003.67,0.83
2023.71,0.82
2043.94,0.81
2064.38,0.80
2085.03,0.80
2105.88,0.80
2126.94,0.81
2148.20,0.82
2169.69,0.84
2191.38,0.86
2213.30,0.89
2235.43,0.91
2257.78,0.95
2280.36,0.98
2303.17,1.00
2326.20,1.03
2349.46,1.06
2372.95,1.10
2396.68,1.14
2420.65,1.18
2444.86,1.22
2469.31,1.25
2494.00,1.28
2518.94,1.30
2544.13,1.32
2569.57,1.36
2595.27,1.41
2621.22,1.46
2647.43,1.52
2673.90,1.57
2700.64,1.61
2727.65,1.65
2754.93,1.69
2782.48,1.72
2810.30,1.74
2838.40,1.76
2866.79,1.79
2895.46,1.81
2924.41,1.83
2953.65,1.83
2983.19,1.83
3013.02,1.82
3043.15,1.80
3073.58,1.80
3104.32,1.81
3135.36,1.82
3166.72,1.82
3198.38,1.83
3230.37,1.82
3262.67,1.81
3295.30,1.80
3328.25,1.79
3361.53,1.77
3395.15,1.74
3429.10,1.70
3463.39,1.66
3498.03,1.61
3533.01,1.55
3568.34,1.48
3604.02,1.41
3640.06,1.34
3676.46,1.26
3713.22,1.19
3750.36,1.11
3787.86,1.03
3825.74,0.96
3864.00,0.89
3902.64,0.82
3941.66,0.74
3981.08,0.69
4020.89,0.64
4061.10,0.60
4101.71,0.55
4142.73,0.51
4184.15,0.48
4226.00,0.45
4268.26,0.43
4310.94,0.43
4354.05,0.45
4397.59,0.50
4441.56,0.57
4485.98,0.68
4530.84,0.80
4576.15,0.96
4621.91,1.16
4668.13,1.38
4714.81,1.63
4761.96,1.89
4809.58,2.15
4857.67,2.42
4906.25,2.68
4955.31,2.94
5004.87,3.19
5054.91,3.42
5105.46,3.63
5156.52,3.84
5208.08,4.03
5260.16,4.20
5312.77,4.36
5365.89,4.50
5419.55,4.63
5473.75,4.75
5528.49,4.86
5583.77,4.93
5639.61,5.00
5696.00,5.03
5752.96,5.02
5810.49,5.00
5868.60,4.96
5927.28,4.90
5986.56,4.81
6046.42,4.72
6106.89,4.62
6167.96,4.52
6229.64,4.43
6291.93,4.35
6354.85,4.28
6418.40,4.21
6482.58,4.15
6547.41,4.12
6612.88,4.08
6679.01,4.05
6745.80,4.04
6813.26,4.04
6881.39,4.05
6950.21,4.06
7019.71,4.09
7089.91,4.13
7160.81,4.18
7232.41,4.23
7304.74,4.29
7377.79,4.35
7451.56,4.42
7526.08,4.49
7601.34,4.55
7677.35,4.59
7754.13,4.62
7831.67,4.65
7909.98,4.65
7989.08,4.63
8068.98,4.58
8149.67,4.52
8231.16,4.45
8313.47,4.36
8396.61,4.25
8480.57,4.10
8565.38,3.95
8651.03,3.81
8737.54,3.67
8824.92,3.53
8913.17,3.38
9002.30,3.24
9092.32,3.10
9183.25,2.97
9275.08,2.85
9367.83,2.76
9461.51,2.68
9556.12,2.62
9651.68,2.57
9748.20,2.52
9845.68,2.49
9944.14,2.47
10043.58,2.46
10144.02,2.43
10245.46,2.38
10347.91,2.32
10451.39,2.26
10555.91,2.19
10661.46,2.10
10768.08,1.99
10875.76,1.88
10984.52,1.76
11094.36,1.64
11205.31,1.53
11317.36,1.43
11430.53,1.35
11544.84,1.28
11660.29,1.22
11776.89,1.17
11894.66,1.14
12013.60,1.12
12133.74,1.11
12255.08,1.13
12377.63,1.14
12501.41,1.16
12626.42,1.19
12752.68,1.23
12880.21,1.26
13009.01,1.27
13139.10,1.28
13270.49,1.29
13403.20,1.29
13537.23,1.28
13672.60,1.26
13809.33,1.21
13947.42,1.14
14086.90,1.03
14227.77,0.91
14370.04,0.75
14513.74,0.55
14658.88,0.34
14805.47,0.10
14953.52,-0.19
15103.06,-0.51
15254.09,-0.88
15406.63,-1.28
15560.70,-1.71
15716.30,-2.17
15873.47,-2.63
16032.20,-3.10
16192.52,-3.56
16354.45,-4.01
16517.99,-4.44
16683.17,-4.85
16850.01,-5.24
17018.51,-5.61
17188.69,-5.95
17360.58,-6.28
17534.18,-6.58
17709.53,-6.87
17886.62,-7.16
18065.49,-7.45
18246.14,-7.78
18428.60,-8.11
18612.89,-8.44
18799.02,-8.78
18987.01,-9.13
19176.88,-9.48
19368.65,-9.84
19562.33,-10.20
19757.96,-10.56
19955.54,-10.93
