frequency,raw
20,-10.86
21,-10.31
22,-9.73
23,-9.17
24,-8.64
25,-8.18
26,-7.70
27,-7.15
28,-6.67
29,-6.20
30,-5.84
31,-5.51
32,-5.19
33,-4.72
34,-4.39
35,-3.90
36,-3.59
37,-3.30
38,-3.02
39,-2.68
40,-2.51
41,-2.27
42,-1.95
43,-1.62
44,-1.33
45,-1.22
46,-0.97
47,-0.73
48,-0.49
49,-0.32
50,-0.06
51,-0.00
52,0.17
53,0.32
54,0.51
55,0.65
56,0.76
57,0.96
58,0.97
59,1.03
60,1.22
61,1.30
62,1.30
63,1.30
64,1.46
65,1.62
66,1.62
67,1.62
68,1.62
69,1.66
70,1.82
71,1.95
72,1.95
73,1.95
74,1.95
75,1.95
76,1.95
77,1.95
78,1.95
79,1.95
80,1.95
81,1.95
82,1.99
83,2.12
84,2.26
85,2.27
86,2.27
87,2.27
88,2.24
89,2.12
90,2.23
91,2.19
92,2.07
93,1.95
94,1.95
95,1.95
96,1.95
97,1.95
98,1.95
99,2.01
100,2.10
101,1.98
102,1.95
104,1.95
105,1.95
106,1.95
107,1.95
108,1.95
109,1.95
110,1.95
111,1.95
112,1.95
113,1.95
114,1.95
115,1.95
117,1.78
118,1.69
119,1.62
120,1.62
121,1.62
123,1.62
124,1.62
125,1.62
126,1.62
128,1.62
129,1.62
130,1.62
131,1.62
133,1.62
134,1.62
135,1.62
137,1.46
138,1.38
140,1.30
141,1.30
142,1.30
144,1.30
145,1.30
147,1.30
148,1.30
150,1.30
151,1.30
153,1.30
154,1.30
156,1.29
157,1.22
159,1.08
160,1.01
162,0.97
164,0.97
165,0.97
167,0.97
169,0.97
170,0.97
172,0.97
174,0.97
175,0.97
177,0.97
179,0.87
181,0.75
183,0.65
184,0.65
186,0.65
188,0.65
190,0.65
192,0.65
194,0.65
196,0.65
198,0.65
200,0.65
202,0.65
204,0.65
206,0.65
208,0.64
210,0.53
212,0.49
214,0.48
216,0.37
218,0.32
221,0.32
223,0.32
225,0.32
227,0.32
229,0.32
232,0.32
234,0.32
236,0.32
239,0.32
241,0.32
244,0.30
246,0.20
248,0.11
251,0.00
253,-0.00
256,0.00
259,-0.00
261,0.00
264,-0.00
266,0.00
269,0.00
272,0.00
274,-0.00
277,0.00
280,0.00
283,-0.00
286,-0.00
288,0.00
291,-0.00
294,-0.03
297,-0.14
300,-0.25
303,-0.32
306,-0.32
309,-0.32
312,-0.32
316,-0.32
319,-0.32
322,-0.32
325,-0.32
328,-0.32
332,-0.32
335,-0.32
338,-0.32
342,-0.32
345,-0.32
349,-0.32
352,-0.32
356,-0.32
359,-0.32
363,-0.32
366,-0.32
370,-0.32
374,-0.32
377,-0.32
381,-0.32
385,-0.32
389,-0.32
393,-0.32
397,-0.31
401,-0.20
405,-0.09
409,0.00
413,0.00
417,-0.00
421,0.00
425,-0.00
430,0.00
434,0.05
438,0.15
443,0.28
447,0.32
451,0.32
456,0.32
460,0.32
465,0.32
470,0.32
474,0.32
479,0.32
484,0.32
489,0.32
494,0.32
499,0.32
504,0.32
509,0.26
514,0.15
519,0.04
524,0.00
529,0.00
535,0.00
540,0.00
545,0.00
551,-0.00
556,-0.00
562,0.00
568,0.00
573,-0.00
579,0.00
585,0.00
591,-0.00
596,-0.06
602,-0.15
608,-0.04
615,-0.00
621,-0.00
627,-0.00
633,-0.09
639,-0.16
646,-0.16
652,-0.26
659,-0.32
665,-0.32
672,-0.32
679,-0.32
686,-0.32
692,-0.32
699,-0.32
706,-0.32
713,-0.32
721,-0.32
728,-0.32
735,-0.32
742,-0.32
750,-0.32
757,-0.32
765,-0.32
773,-0.32
780,-0.32
788,-0.32
796,-0.32
804,-0.32
812,-0.32
820,-0.32
828,-0.32
837,-0.32
845,-0.32
853,-0.32
862,-0.32
871,-0.32
879,-0.32
888,-0.30
897,-0.19
906,-0.08
915,0.00
924,0.00
933,-0.00
943,-0.00
952,0.00
962,-0.00
971,0.00
981,-0.00
991,-0.00
1001,0.00
1011,-0.00
1021,-0.00
1031,0.00
1041,-0.00
1052,-0.00
1062,-0.00
1073,-0.00
1084,0.00
1094,0.00
1105,0.06
1116,0.16
1128,0.16
1139,0.24
1150,0.32
1162,0.32
1173,0.32
1185,0.32
1197,0.32
1209,0.32
1221,0.32
1233,0.32
1246,0.32
1258,0.39
1271,0.50
1283,0.61
1296,0.65
1309,0.65
1322,0.65
1335,0.73
1349,0.85
1362,0.96
1376,0.97
1390,0.97
1404,0.98
1418,1.09
1432,1.20
1446,1.30
1461,1.30
1475,1.45
1490,1.62
1505,1.62
1520,1.62
1535,1.66
1550,1.77
1566,1.89
1582,2.00
1597,2.11
1613,2.22
1629,2.39
1646,2.63
1662,2.85
1679,3.15
1696,3.47
1713,3.69
1730,4.10
1747,4.46
1764,4.68
1782,5.11
1800,5.57
1818,6.01
1836,6.23
1854,6.58
1873,7.00
1892,7.23
1911,7.46
1930,7.68
1949,7.90
1969,8.04
1988,8.19
2008,8.41
2028,8.43
2048,8.48
2069,8.60
2090,8.71
2111,8.76
2132,8.76
2153,8.76
2175,8.76
2196,8.76
2218,8.76
2240,8.76
2263,8.76
2285,8.76
2308,8.55
2331,8.43
2355,8.42
2378,8.20
2402,8.11
2426,8.09
2450,7.98
2475,7.86
2500,7.78
2525,7.78
2550,7.78
2575,7.74
2601,7.63
2627,7.52
2653,7.40
2680,7.29
2707,7.18
2734,7.06
2761,6.93
2789,6.71
2817,6.48
2845,6.29
2873,6.18
2902,5.97
2931,5.79
2960,5.68
2990,5.57
3020,5.51
3050,5.51
3080,5.39
3111,5.28
3142,5.19
3174,5.19
3206,5.19
3238,5.19
3270,5.19
3303,5.29
3336,5.40
3369,5.51
3403,5.73
3437,5.90
3471,6.01
3506,6.12
3541,6.31
3576,6.49
3612,6.49
3648,6.57
3685,6.68
3721,6.79
3759,6.71
3796,6.60
3834,6.49
3873,6.49
3911,6.49
3950,6.47
3990,6.24
4030,6.09
4070,5.95
4111,5.73
4152,5.50
4193,5.28
4235,5.06
4278,4.83
4321,4.60
4364,4.38
4407,4.16
4451,3.99
4496,3.87
4541,3.64
4586,3.64
4632,3.75
4679,3.87
4725,4.15
4773,4.45
4820,4.68
4868,5.10
4917,5.45
4966,5.67
5016,6.01
5066,6.35
5117,6.67
5168,6.90
5220,7.12
5272,7.32
5325,7.44
5378,7.64
5432,7.86
5486,8.09
5541,8.11
5596,8.21
5652,8.43
5709,8.43
5766,8.56
5823,8.76
5882,8.76
5940,8.76
6000,8.76
6060,8.76
6120,8.76
6182,8.76
6244,8.76
6306,8.76
6369,8.76
6433,8.76
6497,8.76
6562,8.76
6628,8.76
6694,8.76
6761,8.60
6828,8.43
6897,8.43
6966,8.25
7035,7.95
7106,7.49
7177,7.15
7249,6.87
7321,6.64
7394,6.19
7468,5.87
7543,5.61
7618,5.16
7694,4.64
7771,4.10
7849,3.65
7928,3.20
8007,2.71
8087,2.15
8168,1.48
8250,0.86
8332,0.31
8415,-0.14
8499,-0.52
8584,-0.83
8670,-0.94
8757,-0.97
8845,-0.88
8933,-0.55
9022,-0.21
9113,0.13
9204,0.47
9296,0.91
9389,1.25
9483,1.48
9577,1.93
9673,2.24
9770,2.47
9868,2.70
9966,2.92
10066,3.11
10167,3.23
10268,3.43
10371,3.57
10475,3.57
10579,3.78
10685,3.89
10792,3.89
10900,3.89
11009,3.89
11119,3.85
11230,3.63
11343,3.48
11456,3.37
11571,3.26
11686,3.05
11803,2.83
11921,2.60
12040,2.27
12161,1.99
12282,1.77
12405,1.54
12529,1.32
12655,1.09
12781,0.87
12909,0.64
13038,0.39
13168,0.05
13300,-0.29
13433,-0.63
13567,-0.96
13703,-1.30
13840,-1.70
13978,-2.13
14118,-2.47
14259,-2.88
14402,-3.33
14546,-3.78
14692,-4.23
14838,-4.64
14987,-4.98
15137,-5.42
15288,-5.77
15441,-6.00
15595,-6.44
15751,-6.89
15909,-7.35
16068,-7.91
16229,-8.55
16391,-9.24
16555,-10.03
16720,-10.64
16888,-11.21
17056,-11.77
17227,-12.23
17399,-12.68
17573,-13.13
17749,-13.58
17926,-13.97
18106,-14.32
18287,-14.77
18470,-15.22
18654,-15.66
18841,-16.11
19029,-16.56
19220,-16.98
19412,-17.31
19606,-17.75
19802,-18.20
20000,-18.65
