frequency,raw
20.00,-6.58
20.20,-6.48
20.40,-6.39
20.61,-6.29
20.81,-6.19
21.02,-6.09
21.23,-5.98
21.44,-5.88
21.66,-5.77
21.87,-5.66
22.09,-5.54
22.31,-5.43
22.54,-5.30
22.76,-5.16
22.99,-5.03
23.22,-4.92
23.45,-4.78
23.69,-4.66
23.92,-4.54
24.16,-4.41
24.40,-4.29
24.65,-4.18
24.89,-4.05
25.14,-3.93
25.39,-3.82
25.65,-3.70
25.91,-3.59
26.16,-3.49
26.43,-3.37
26.69,-3.25
26.96,-3.14
27.23,-3.02
27.50,-2.91
27.77,-2.80
28.05,-2.68
28.33,-2.57
28.62,-2.46
28.90,-2.35
29.19,-2.24
29.48,-2.12
29.78,-2.01
30.08,-1.90
30.38,-1.79
30.68,-1.68
30.99,-1.58
31.30,-1.47
31.61,-1.36
31.93,-1.25
32.24,-1.13
32.57,-1.01
32.89,-0.90
33.22,-0.79
33.55,-0.67
33.89,-0.56
34.23,-0.45
34.57,-0.34
34.92,-0.23
35.27,-0.12
35.62,-0.01
35.97,0.10
36.33,0.21
36.70,0.33
37.06,0.44
37.43,0.55
37.81,0.67
38.19,0.78
38.57,0.89
38.95,1.02
39.34,1.12
39.74,1.22
40.14,1.33
40.54,1.43
40.94,1.53
41.35,1.63
41.76,1.73
42.18,1.83
42.60,1.93
43.03,2.03
43.46,2.13
43.90,2.23
44.33,2.31
44.78,2.40
45.23,2.49
45.68,2.58
46.13,2.67
46.60,2.75
47.06,2.84
47.53,2.92
48.01,3.00
48.49,3.08
48.97,3.15
49.46,3.23
49.96,3.30
50.46,3.37
50.96,3.45
51.47,3.53
51.99,3.61
52.51,3.68
53.03,3.76
53.56,3.84
54.10,3.92
54.64,3.98
55.18,4.04
55.74,4.12
56.29,4.19
56.86,4.26
57.42,4.32
58.00,4.39
58.58,4.47
59.16,4.54
59.76,4.62
60.35,4.69
60.96,4.76
61.57,4.83
62.18,4.90
62.80,4.97
63.43,5.05
64.07,5.12
64.71,5.18
65.35,5.23
66.01,5.29
66.67,5.35
67.33,5.41
68.01,5.46
68.69,5.51
69.37,5.57
70.07,5.61
70.77,5.65
71.48,5.68
72.19,5.73
72.91,5.78
73.64,5.82
74.38,5.87
75.12,5.90
75.87,5.94
76.63,5.99
77.40,6.03
78.17,6.06
78.95,6.08
79.74,6.09
80.54,6.11
81.35,6.14
82.16,6.17
82.98,6.21
83.81,6.25
84.65,6.28
85.50,6.31
86.35,6.34
87.22,6.36
88.09,6.38
88.97,6.41
89.86,6.44
90.76,6.47
91.66,6.50
92.58,6.52
93.51,6.53
94.44,6.55
95.39,6.55
96.34,6.55
97.30,6.55
98.28,6.54
99.26,6.53
100.25,6.53
101.25,6.53
102.27,6.53
103.29,6.53
104.32,6.53
105.37,6.53
106.42,6.53
107.48,6.54
108.56,6.55
109.64,6.55
110.74,6.55
111.85,6.55
112.97,6.54
114.10,6.52
115.24,6.50
116.39,6.47
117.55,6.44
118.73,6.41
119.92,6.38
121.12,6.35
122.33,6.32
123.55,6.29
124.79,6.26
126.03,6.24
127.29,6.22
128.57,6.20
129.85,6.20
131.15,6.20
132.46,6.21
133.79,6.22
135.12,6.22
136.48,6.21
137.84,6.19
139.22,6.17
140.61,6.14
142.02,6.11
143.44,6.08
144.87,6.05
146.32,6.02
147.78,5.99
149.26,5.96
150.75,5.94
152.26,5.92
153.78,5.91
155.32,5.89
156.88,5.88
158.44,5.86
160.03,5.85
161.63,5.83
163.24,5.82
164.88,5.79
166.53,5.76
168.19,5.73
169.87,5.70
171.57,5.68
173.29,5.66
175.02,5.64
176.77,5.61
178.54,5.58
180.32,5.54
182.13,5.51
183.95,5.48
185.79,5.46
187.65,5.44
189.52,5.42
191.42,5.40
193.33,5.38
195.27,5.34
197.22,5.30
199.19,5.26
201.18,5.22
203.19,5.19
205.23,5.16
207.28,5.12
209.35,5.09
211.44,5.06
213.56,5.02
215.69,4.98
217.85,4.93
220.03,4.89
222.23,4.84
224.45,4.79
226.70,4.74
228.96,4.69
231.25,4.65
233.57,4.62
235.90,4.58
238.26,4.53
240.64,4.47
243.05,4.41
245.48,4.35
247.93,4.31
250.41,4.27
252.92,4.22
255.45,4.17
258.00,4.11
260.58,4.04
263.19,3.98
265.82,3.93
268.48,3.89
271.16,3.85
273.87,3.81
276.61,3.76
279.38,3.71
282.17,3.66
284.99,3.61
287.84,3.57
290.72,3.53
293.63,3.48
296.57,3.44
299.53,3.41
302.53,3.39
305.55,3.38
308.61,3.36
311.69,3.33
314.81,3.29
317.96,3.26
321.14,3.22
324.35,3.19
327.59,3.18
330.87,3.16
334.18,3.14
337.52,3.11
340.90,3.07
344.30,3.02
347.75,2.97
351.23,2.93
354.74,2.89
358.28,2.85
361.87,2.82
365.49,2.79
369.14,2.75
372.83,2.72
376.56,2.68
380.33,2.63
384.13,2.59
387.97,2.54
391.85,2.50
395.77,2.48
399.73,2.45
403.72,2.43
407.76,2.40
411.84,2.37
415.96,2.33
420.12,2.28
424.32,2.24
428.56,2.20
432.85,2.18
437.18,2.16
441.55,2.14
445.96,2.12
450.42,2.09
454.93,2.05
459.48,2.01
464.07,1.96
468.71,1.92
473.40,1.88
478.13,1.85
482.91,1.83
487.74,1.82
492.62,1.80
497.55,1.77
502.52,1.73
507.55,1.69
512.62,1.64
517.75,1.60
522.93,1.57
528.16,1.54
533.44,1.52
538.77,1.50
544.16,1.47
549.60,1.43
555.10,1.38
560.65,1.34
566.25,1.30
571.92,1.26
577.64,1.22
583.41,1.18
589.25,1.14
595.14,1.10
601.09,1.05
607.10,1.01
613.17,0.96
619.30,0.92
625.50,0.88
631.75,0.84
638.07,0.80
644.45,0.76
650.89,0.73
657.40,0.69
663.98,0.65
670.62,0.61
677.32,0.57
684.10,0.53
690.94,0.50
697.85,0.48
704.83,0.46
711.87,0.43
718.99,0.41
726.18,0.39
733.44,0.37
740.78,0.36
748.19,0.35
755.67,0.35
763.23,0.35
770.86,0.36
778.57,0.37
786.35,0.37
794.22,0.37
802.16,0.37
810.18,0.37
818.28,0.38
826.46,0.39
834.73,0.39
843.08,0.39
851.51,0.38
860.02,0.37
868.62,0.35
877.31,0.32
886.08,0.30
894.94,0.27
903.89,0.24
912.93,0.20
922.06,0.17
931.28,0.14
940.59,0.11
950.00,0.09
959.50,0.06
969.09,0.05
978.78,0.03
988.57,0.01
998.46,-0.00
1008.44,0.00
1018.53,0.02
1028.71,0.03
1039.00,0.05
1049.39,0.07
1059.88,0.10
1070.48,0.13
1081.19,0.15
1092.00,0.19
1102.92,0.22
1113.95,0.25
1125.09,0.28
1136.34,0.31
1147.70,0.33
1159.18,0.35
1170.77,0.37
1182.48,0.39
1194.30,0.39
1206.25,0.38
1218.31,0.36
1230.49,0.35
1242.80,0.35
1255.22,0.36
1267.78,0.37
1280.45,0.39
1293.26,0.42
1306.19,0.44
1319.25,0.47
1332.45,0.50
1345.77,0.53
1359.23,0.55
1372.82,0.57
1386.55,0.60
1400.41,0.63
1414.42,0.67
1428.56,0.70
1442.85,0.74
1457.28,0.77
1471.85,0.79
1486.57,0.80
1501.43,0.83
1516.45,0.86
1531.61,0.90
1546.93,0.94
1562.40,0.99
1578.02,1.03
1593.80,1.07
1609.74,1.12
1625.84,1.18
1642.10,1.22
1658.52,1.26
1675.10,1.30
1691.85,1.35
1708.77,1.40
1725.86,1.45
1743.12,1.51
1760.55,1.58
1778.15,1.65
1795.94,1.71
1813.90,1.76
1832.03,1.82
1850.36,1.89
1868.86,1.97
1887.55,2.05
1906.42,2.13
1925.49,2.21
1944.74,2.29
1964.19,2.38
1983.83,2.47
2003.67,2.56
2023.71,2.65
2043.94,2.74
2064.38,2.83
2085.03,2.93
2105.88,3.02
2126.94,3.09
2148.20,3.18
2169.69,3.27
2191.38,3.36
2213.30,3.44
2235.43,3.51
2257.78,3.58
2280.36,3.64
2303.17,3.70
2326.20,3.75
2349.46,3.80
2372.95,3.84
2396.68,3.88
2420.65,3.91
2444.86,3.93
2469.31,3.95
2494.00,3.97
2518.94,3.98
2544.13,3.98
2569.57,3.99
2595.27,3.97
2621.22,3.95
2647.43,3.93
2673.90,3.91
2700.64,3.88
2727.65,3.84
2754.93,3.79
2782.48,3.71
2810.30,3.62
2838.40,3.51
2866.79,3.40
2895.46,3.27
2924.41,3.13
2953.65,2.98
2983.19,2.82
3013.02,2.65
3043.15,2.48
3073.58,2.30
3104.32,2.11
3135.36,1.91
3166.72,1.70
3198.38,1.49
3230.37,1.28
3262.67,1.07
3295.30,0.88
3328.25,0.70
3361.53,0.50
3395.15,0.30
3429.10,0.09
3463.39,-0.13
3498.03,-0.34
3533.01,-0.54
3568.34,-0.75
3604.02,-0.97
3640.06,-1.20
3676.46,-1.45
3713.22,-1.71
3750.36,-1.99
3787.86,-2.31
3825.74,-2.64
3864.00,-2.99
3902.64,-3.35
3941.66,-3.72
3981.08,-4.08
4020.89,-4.42
4061.10,-4.73
4101.71,-5.00
4142.73,-5.20
4184.15,-5.34
4226.00,-5.39
4268.26,-5.32
4310.94,-5.14
4354.05,-4.83
4397.59,-4.40
4441.56,-3.85
4485.98,-3.19
4530.84,-2.43
4576.15,-1.60
4621.91,-0.72
4668.13,0.19
4714.81,1.09
4761.96,1.98
4809.58,2.83
4857.67,3.63
4906.25,4.35
4955.31,5.00
5004.87,5.58
5054.91,6.06
5105.46,6.47
5156.52,6.81
5208.08,7.09
5260.16,7.32
5312.77,7.50
5365.89,7.64
5419.55,7.75
5473.75,7.83
5528.49,7.87
5583.77,7.87
5639.61,7.83
5696.00,7.74
5752.96,7.61
5810.49,7.42
5868.60,7.18
5927.28,6.90
5986.56,6.58
6046.42,6.21
6106.89,5.81
6167.96,5.40
6229.64,4.96
6291.93,4.52
6354.85,4.08
6418.40,3.64
6482.58,3.20
6547.41,2.76
6612.88,2.31
6679.01,1.85
6745.80,1.40
6813.26,0.95
6881.39,0.51
6950.21,0.09
7019.71,-0.33
7089.91,-0.73
7160.81,-1.13
7232.41,-1.52
7304.74,-1.89
7377.79,-2.24
7451.56,-2.58
7526.08,-2.90
7601.34,-3.20
7677.35,-3.48
7754.13,-3.75
7831.67,-4.02
7909.98,-4.28
7989.08,-4.57
8068.98,-4.89
8149.67,-5.22
8231.16,-5.57
8313.47,-5.93
8396.61,-6.27
8480.57,-6.59
8565.38,-6.88
8651.03,-7.13
8737.54,-7.33
8824.92,-7.47
8913.17,-7.53
9002.30,-7.51
9092.32,-7.41
9183.25,-7.23
9275.08,-6.98
9367.83,-6.65
9461.51,-6.28
9556.12,-5.87
9651.68,-5.44
9748.20,-5.00
9845.68,-4.58
9944.14,-4.18
10043.58,-3.81
10144.02,-3.47
10245.46,-3.20
10347.91,-2.97
10451.39,-2.79
10555.91,-2.67
10661.46,-2.60
10768.08,-2.56
10875.76,-2.56
10984.52,-2.57
11094.36,-2.61
11205.31,-2.69
11317.36,-2.78
11430.53,-2.90
11544.84,-3.03
11660.29,-3.17
11776.89,-3.34
11894.66,-3.53
12013.60,-3.73
12133.74,-3.94
12255.08,-4.16
12377.63,-4.38
12501.41,-4.59
12626.42,-4.80
12752.68,-5.00
12880.21,-5.20
13009.01,-5.39
13139.10,-5.57
13270.49,-5.71
13403.20,-5.85
13537.23,-5.99
13672.60,-6.13
13809.33,-6.29
13947.42,-6.46
14086.90,-6.65
14227.77,-6.88
14370.04,-7.13
14513.74,-7.41
14658.88,-7.74
14805.47,-8.09
14953.52,-8.46
15103.06,-8.85
15254.09,-9.24
15406.63,-9.62
15560.70,-9.98
15716.30,-10.32
15873.47,-10.63
16032.20,-10.91
16192.52,-11.13
16354.45,-11.30
16517.99,-11.43
16683.17,-11.53
16850.01,-11.61
17018.51,-11.66
17188.69,-11.69
17360.58,-11.70
17534.18,-11.71
17709.53,-11.71
17886.62,-11.73
18065.49,-11.80
18246.14,-11.89
18428.60,-11.98
18612.89,-12.08
18799.02,-12.19
18987.01,-12.30
19176.88,-12.42
19368.65,-12.55
19562.33,-12.69
19757.96,-12.84
19955.54,-12.99
