frequency,raw,smoothed,error,error_smoothed,equalization,parametric_eq,fixed_band_eq,equalized_raw,equalized_smoothed,target
20.00,2.05,2.05,0.12,0.12,-0.12,-0.47,-0.50,1.93,1.94,1.93
20.20,2.10,2.10,0.14,0.13,-0.13,-0.48,-0.52,1.97,1.96,1.96
20.40,2.14,2.14,0.15,0.15,-0.15,-0.49,-0.53,1.99,1.99,1.99
20.61,2.19,2.19,0.18,0.17,-0.17,-0.50,-0.55,2.02,2.02,2.01
20.81,2.23,2.23,0.19,0.19,-0.19,-0.51,-0.56,2.04,2.04,2.04
21.02,2.27,2.28,0.20,0.21,-0.22,-0.52,-0.58,2.05,2.06,2.07
21.23,2.32,2.32,0.24,0.23,-0.24,-0.53,-0.59,2.08,2.08,2.08
21.44,2.36,2.36,0.27,0.27,-0.27,-0.54,-0.61,2.09,2.09,2.09
21.66,2.39,2.40,0.29,0.30,-0.30,-0.55,-0.62,2.09,2.10,2.10
21.87,2.43,2.43,0.33,0.33,-0.33,-0.56,-0.64,2.10,2.10,2.10
22.09,2.47,2.47,0.36,0.36,-0.36,-0.57,-0.66,2.11,2.11,2.11
22.31,2.50,2.50,0.39,0.39,-0.39,-0.58,-0.68,2.11,2.11,2.11
22.54,2.53,2.53,0.42,0.42,-0.43,-0.60,-0.70,2.10,2.10,2.11
22.76,2.56,2.56,0.45,0.46,-0.46,-0.61,-0.71,2.10,2.10,2.11
22.99,2.59,2.59,0.50,0.49,-0.49,-0.62,-0.73,2.10,2.10,2.09
23.22,2.62,2.62,0.53,0.53,-0.52,-0.63,-0.75,2.10,2.10,2.09
23.45,2.65,2.65,0.56,0.56,-0.55,-0.65,-0.77,2.10,2.10,2.09
23.69,2.68,2.68,0.59,0.58,-0.58,-0.66,-0.79,2.10,2.10,2.09
23.92,2.70,2.70,0.61,0.61,-0.61,-0.67,-0.82,2.09,2.10,2.09
24.16,2.73,2.73,0.63,0.63,-0.64,-0.68,-0.84,2.09,2.10,2.10
24.40,2.76,2.76,0.66,0.66,-0.66,-0.70,-0.86,2.10,2.09,2.10
24.65,2.78,2.78,0.69,0.69,-0.69,-0.71,-0.88,2.09,2.09,2.09
24.89,2.80,2.80,0.71,0.71,-0.71,-0.73,-0.90,2.09,2.09,2.09
25.14,2.82,2.82,0.73,0.74,-0.74,-0.74,-0.93,2.08,2.09,2.09
25.39,2.85,2.85,0.76,0.76,-0.76,-0.75,-0.95,2.09,2.08,2.09
25.65,2.87,2.87,0.78,0.79,-0.79,-0.77,-0.97,2.08,2.08,2.09
25.91,2.89,2.89,0.82,0.81,-0.81,-0.78,-1.00,2.08,2.08,2.07
26.16,2.91,2.91,0.84,0.84,-0.83,-0.80,-1.02,2.08,2.08,2.07
26.43,2.93,2.93,0.86,0.86,-0.85,-0.81,-1.04,2.08,2.07,2.07
26.69,2.94,2.94,0.87,0.87,-0.87,-0.83,-1.07,2.07,2.07,2.07
26.96,2.96,2.96,0.89,0.89,-0.89,-0.84,-1.09,2.07,2.07,2.07
27.23,2.98,2.98,0.91,0.91,-0.91,-0.86,-1.11,2.06,2.06,2.07
27.50,3.00,3.00,0.93,0.93,-0.94,-0.88,-1.14,2.06,2.06,2.07
27.77,3.01,3.01,0.95,0.96,-0.96,-0.89,-1.16,2.05,2.06,2.06
28.05,3.03,3.03,0.98,0.98,-0.98,-0.91,-1.18,2.05,2.05,2.05
28.33,3.05,3.05,1.01,1.00,-1.00,-0.93,-1.21,2.05,2.05,2.04
28.62,3.06,3.06,1.02,1.02,-1.02,-0.94,-1.23,2.04,2.04,2.04
28.90,3.08,3.08,1.04,1.04,-1.04,-0.96,-1.25,2.04,2.04,2.04
29.19,3.10,3.10,1.07,1.06,-1.06,-0.98,-1.27,2.04,2.03,2.03
29.48,3.11,3.11,1.07,1.08,-1.09,-1.00,-1.29,2.02,2.03,2.04
29.78,3.13,3.13,1.11,1.11,-1.11,-1.01,-1.31,2.02,2.02,2.02
30.08,3.15,3.15,1.13,1.13,-1.13,-1.03,-1.33,2.02,2.02,2.02
30.38,3.17,3.17,1.16,1.15,-1.15,-1.05,-1.34,2.02,2.02,2.01
30.68,3.18,3.18,1.17,1.18,-1.17,-1.07,-1.36,2.01,2.01,2.01
30.99,3.20,3.20,1.20,1.20,-1.20,-1.09,-1.38,2.00,2.00,2.00
31.30,3.21,3.21,1.22,1.22,-1.22,-1.11,-1.39,1.99,1.99,1.99
31.61,3.23,3.23,1.24,1.24,-1.24,-1.13,-1.41,1.99,1.99,1.99
31.93,3.25,3.25,1.27,1.27,-1.27,-1.15,-1.42,1.98,1.98,1.98
32.24,3.26,3.26,1.29,1.29,-1.29,-1.17,-1.43,1.97,1.97,1.97
32.57,3.28,3.28,1.32,1.31,-1.31,-1.19,-1.44,1.97,1.97,1.96
32.89,3.29,3.29,1.33,1.33,-1.33,-1.21,-1.45,1.96,1.96,1.96
33.22,3.31,3.31,1.36,1.36,-1.36,-1.23,-1.47,1.95,1.95,1.95
33.55,3.32,3.32,1.37,1.38,-1.38,-1.25,-1.48,1.94,1.94,1.95
33.89,3.34,3.34,1.41,1.40,-1.40,-1.27,-1.48,1.94,1.94,1.93
34.23,3.35,3.35,1.42,1.43,-1.43,-1.29,-1.49,1.92,1.93,1.93
34.57,3.37,3.37,1.45,1.45,-1.45,-1.31,-1.50,1.92,1.92,1.92
34.92,3.38,3.38,1.48,1.47,-1.47,-1.34,-1.51,1.91,1.91,1.90
35.27,3.39,3.39,1.49,1.50,-1.49,-1.36,-1.52,1.89,1.90,1.90
35.62,3.41,3.41,1.52,1.52,-1.52,-1.38,-1.53,1.89,1.89,1.89
35.97,3.42,3.42,1.55,1.54,-1.54,-1.41,-1.54,1.88,1.88,1.87
36.33,3.43,3.43,1.56,1.56,-1.56,-1.43,-1.55,1.87,1.87,1.87
36.70,3.44,3.44,1.58,1.58,-1.59,-1.45,-1.56,1.85,1.85,1.86
37.06,3.45,3.45,1.61,1.61,-1.61,-1.48,-1.57,1.84,1.84,1.84
37.43,3.47,3.47,1.63,1.63,-1.63,-1.50,-1.58,1.84,1.84,1.84
37.81,3.48,3.48,1.66,1.66,-1.65,-1.52,-1.59,1.83,1.83,1.82
38.19,3.49,3.49,1.68,1.68,-1.68,-1.55,-1.60,1.81,1.81,1.81
38.57,3.50,3.50,1.70,1.70,-1.70,-1.57,-1.61,1.80,1.80,1.80
38.95,3.51,3.51,1.72,1.72,-1.72,-1.60,-1.62,1.79,1.78,1.79
39.34,3.52,3.52,1.75,1.74,-1.75,-1.63,-1.64,1.77,1.77,1.77
39.74,3.53,3.53,1.77,1.77,-1.77,-1.65,-1.65,1.76,1.76,1.76
40.14,3.55,3.55,1.80,1.80,-1.79,-1.68,-1.67,1.76,1.75,1.75
40.54,3.56,3.56,1.82,1.82,-1.82,-1.70,-1.69,1.74,1.74,1.74
40.94,3.57,3.57,1.84,1.84,-1.84,-1.73,-1.70,1.73,1.73,1.73
41.35,3.58,3.58,1.86,1.86,-1.86,-1.76,-1.72,1.72,1.72,1.72
41.76,3.59,3.59,1.88,1.88,-1.88,-1.78,-1.75,1.71,1.71,1.71
42.18,3.60,3.60,1.90,1.90,-1.90,-1.81,-1.77,1.70,1.70,1.70
42.60,3.61,3.61,1.92,1.92,-1.92,-1.84,-1.79,1.69,1.69,1.69
43.03,3.62,3.62,1.94,1.94,-1.95,-1.87,-1.82,1.67,1.67,1.68
43.46,3.63,3.63,1.97,1.97,-1.98,-1.90,-1.84,1.65,1.65,1.66
43.90,3.64,3.64,2.00,2.00,-2.01,-1.92,-1.87,1.63,1.64,1.64
44.33,3.66,3.66,2.04,2.04,-2.03,-1.95,-1.90,1.62,1.62,1.62
44.78,3.67,3.67,2.07,2.07,-2.06,-1.98,-1.93,1.61,1.60,1.60
45.23,3.68,3.68,2.10,2.10,-2.09,-2.01,-1.96,1.59,1.59,1.58
45.68,3.69,3.69,2.13,2.13,-2.12,-2.04,-1.99,1.57,1.57,1.56
46.13,3.70,3.70,2.16,2.15,-2.15,-2.07,-2.03,1.55,1.55,1.54
46.60,3.71,3.71,2.18,2.18,-2.18,-2.10,-2.06,1.53,1.53,1.53
47.06,3.72,3.72,2.21,2.20,-2.21,-2.13,-2.10,1.51,1.51,1.51
47.53,3.73,3.73,2.24,2.23,-2.24,-2.16,-2.14,1.49,1.49,1.49
48.01,3.75,3.75,2.27,2.27,-2.27,-2.19,-2.18,1.48,1.47,1.48
48.49,3.76,3.76,2.31,2.31,-2.31,-2.23,-2.22,1.45,1.45,1.45
48.97,3.77,3.77,2.35,2.35,-2.35,-2.26,-2.26,1.42,1.43,1.42
49.46,3.78,3.78,2.39,2.39,-2.38,-2.29,-2.30,1.40,1.40,1.39
49.96,3.79,3.79,2.43,2.42,-2.42,-2.32,-2.35,1.37,1.37,1.36
50.46,3.80,3.80,2.45,2.46,-2.46,-2.35,-2.39,1.34,1.34,1.35
50.96,3.81,3.81,2.49,2.49,-2.49,-2.39,-2.44,1.32,1.32,1.32
51.47,3.82,3.82,2.53,2.52,-2.52,-2.42,-2.48,1.30,1.30,1.29
51.99,3.83,3.83,2.56,2.56,-2.56,-2.45,-2.53,1.27,1.27,1.27
52.51,3.84,3.84,2.59,2.59,-2.59,-2.48,-2.58,1.25,1.25,1.25
53.03,3.85,3.85,2.62,2.62,-2.62,-2.52,-2.63,1.23,1.23,1.23
53.56,3.86,3.86,2.66,2.65,-2.66,-2.55,-2.67,1.20,1.20,1.20
54.10,3.87,3.87,2.69,2.69,-2.69,-2.58,-2.72,1.18,1.18,1.18
54.64,3.88,3.88,2.73,2.73,-2.72,-2.62,-2.77,1.15,1.15,1.15
55.18,3.89,3.89,2.76,2.76,-2.76,-2.65,-2.81,1.13,1.13,1.13
55.74,3.89,3.89,2.79,2.79,-2.79,-2.69,-2.86,1.10,1.10,1.10
56.29,3.90,3.90,2.82,2.82,-2.82,-2.72,-2.90,1.08,1.08,1.08
56.86,3.91,3.91,2.86,2.85,-2.85,-2.76,-2.95,1.06,1.05,1.05
57.42,3.91,3.91,2.88,2.88,-2.88,-2.79,-2.99,1.03,1.03,1.03
58.00,3.92,3.92,2.91,2.91,-2.91,-2.83,-3.03,1.01,1.01,1.01
58.58,3.92,3.92,2.93,2.94,-2.94,-2.86,-3.07,0.98,0.99,0.99
59.16,3.93,3.93,2.96,2.96,-2.96,-2.90,-3.11,0.97,0.96,0.97
59.76,3.93,3.93,2.99,2.99,-2.99,-2.93,-3.14,0.94,0.94,0.94
60.35,3.93,3.93,3.02,3.02,-3.02,-2.97,-3.18,0.91,0.91,0.91
60.96,3.94,3.94,3.05,3.05,-3.06,-3.01,-3.21,0.88,0.88,0.89
61.57,3.94,3.94,3.09,3.09,-3.09,-3.04,-3.24,0.85,0.85,0.85
62.18,3.94,3.94,3.13,3.12,-3.12,-3.08,-3.27,0.82,0.82,0.81
62.80,3.94,3.94,3.15,3.16,-3.15,-3.12,-3.29,0.79,0.79,0.79
63.43,3.94,3.94,3.19,3.18,-3.18,-3.15,-3.31,0.76,0.76,0.75
64.07,3.94,3.94,3.21,3.21,-3.21,-3.19,-3.33,0.73,0.73,0.73
64.71,3.94,3.94,3.24,3.24,-3.24,-3.23,-3.35,0.70,0.70,0.70
65.35,3.95,3.94,3.28,3.27,-3.27,-3.26,-3.37,0.68,0.67,0.67
66.01,3.94,3.94,3.29,3.30,-3.30,-3.30,-3.38,0.64,0.65,0.65
66.67,3.94,3.94,3.32,3.32,-3.33,-3.34,-3.40,0.61,0.62,0.62
67.33,3.94,3.94,3.35,3.35,-3.35,-3.38,-3.41,0.59,0.58,0.59
68.01,3.94,3.94,3.38,3.38,-3.38,-3.41,-3.42,0.56,0.56,0.56
68.69,3.94,3.94,3.41,3.42,-3.41,-3.45,-3.43,0.53,0.53,0.53
69.37,3.94,3.94,3.45,3.45,-3.44,-3.49,-3.44,0.50,0.50,0.49
70.07,3.94,3.94,3.48,3.48,-3.48,-3.53,-3.44,0.46,0.46,0.46
70.77,3.94,3.94,3.50,3.51,-3.51,-3.57,-3.45,0.43,0.43,0.44
71.48,3.94,3.94,3.54,3.54,-3.54,-3.61,-3.46,0.40,0.40,0.40
72.19,3.94,3.94,3.57,3.57,-3.57,-3.64,-3.47,0.37,0.37,0.37
72.91,3.94,3.94,3.61,3.60,-3.60,-3.68,-3.48,0.34,0.33,0.33
73.64,3.93,3.93,3.64,3.64,-3.64,-3.72,-3.48,0.29,0.30,0.29
74.38,3.93,3.93,3.66,3.67,-3.67,-3.76,-3.49,0.26,0.26,0.27
75.12,3.93,3.93,3.70,3.70,-3.70,-3.80,-3.50,0.23,0.23,0.23
75.87,3.93,3.93,3.73,3.73,-3.73,-3.84,-3.52,0.20,0.20,0.20
76.63,3.93,3.93,3.76,3.76,-3.76,-3.87,-3.53,0.17,0.17,0.17
77.40,3.93,3.93,3.79,3.80,-3.79,-3.91,-3.55,0.14,0.14,0.14
78.17,3.93,3.93,3.83,3.83,-3.82,-3.95,-3.56,0.11,0.11,0.10
78.95,3.93,3.93,3.86,3.86,-3.86,-3.99,-3.58,0.07,0.07,0.07
79.74,3.92,3.92,3.88,3.88,-3.89,-4.03,-3.60,0.03,0.04,0.04
80.54,3.92,3.92,3.91,3.91,-3.92,-4.07,-3.63,0.00,0.00,0.01
81.35,3.92,3.92,3.95,3.95,-3.95,-4.11,-3.65,-0.03,-0.03,-0.03
82.16,3.92,3.92,3.98,3.98,-3.98,-4.14,-3.68,-0.06,-0.06,-0.06
82.98,3.92,3.92,4.01,4.02,-4.01,-4.18,-3.71,-0.09,-0.10,-0.09
83.81,3.91,3.91,4.05,4.05,-4.05,-4.22,-3.75,-0.14,-0.14,-0.14
84.65,3.91,3.91,4.09,4.08,-4.08,-4.26,-3.78,-0.17,-0.17,-0.18
85.50,3.91,3.91,4.11,4.12,-4.12,-4.30,-3.82,-0.21,-0.21,-0.20
86.35,3.91,3.91,4.15,4.16,-4.15,-4.34,-3.86,-0.24,-0.24,-0.24
87.22,3.91,3.91,4.19,4.19,-4.19,-4.37,-3.91,-0.28,-0.28,-0.28
88.09,3.91,3.91,4.23,4.23,-4.23,-4.41,-3.96,-0.32,-0.32,-0.32
88.97,3.90,3.90,4.25,4.26,-4.27,-4.45,-4.01,-0.37,-0.36,-0.35
89.86,3.90,3.90,4.30,4.30,-4.30,-4.49,-4.06,-0.40,-0.40,-0.40
90.76,3.90,3.90,4.35,4.34,-4.34,-4.53,-4.12,-0.44,-0.44,-0.45
91.66,3.90,3.90,4.38,4.39,-4.38,-4.56,-4.18,-0.48,-0.48,-0.48
92.58,3.90,3.90,4.43,4.43,-4.42,-4.60,-4.25,-0.52,-0.52,-0.53
93.51,3.90,3.90,4.47,4.47,-4.47,-4.64,-4.31,-0.57,-0.57,-0.57
94.44,3.89,3.89,4.50,4.51,-4.51,-4.68,-4.38,-0.62,-0.62,-0.61
95.39,3.89,3.89,4.55,4.55,-4.55,-4.71,-4.45,-0.66,-0.66,-0.66
96.34,3.89,3.89,4.60,4.60,-4.60,-4.75,-4.53,-0.71,-0.71,-0.71
97.30,3.89,3.89,4.65,4.65,-4.64,-4.79,-4.61,-0.75,-0.75,-0.76
98.28,3.89,3.89,4.69,4.69,-4.69,-4.82,-4.69,-0.80,-0.80,-0.80
99.26,3.89,3.89,4.74,4.74,-4.74,-4.86,-4.77,-0.85,-0.85,-0.85
100.25,3.89,3.89,4.78,4.78,-4.78,-4.89,-4.85,-0.89,-0.89,-0.89
101.25,3.89,3.89,4.83,4.83,-4.83,-4.93,-4.94,-0.94,-0.94,-0.94
102.27,3.89,3.89,4.88,4.87,-4.87,-4.97,-5.02,-0.98,-0.99,-0.99
103.29,3.88,3.88,4.92,4.92,-4.92,-5.00,-5.11,-1.04,-1.03,-1.04
104.32,3.88,3.88,4.96,4.96,-4.96,-5.04,-5.20,-1.08,-1.08,-1.08
105.37,3.88,3.88,5.00,5.00,-5.01,-5.07,-5.29,-1.13,-1.13,-1.12
106.42,3.88,3.88,5.05,5.05,-5.05,-5.11,-5.37,-1.17,-1.17,-1.17
107.48,3.87,3.87,5.09,5.09,-5.09,-5.14,-5.46,-1.22,-1.22,-1.22
108.56,3.87,3.87,5.14,5.14,-5.14,-5.17,-5.55,-1.27,-1.27,-1.27
109.64,3.86,3.86,5.18,5.18,-5.18,-5.21,-5.64,-1.32,-1.32,-1.32
110.74,3.86,3.86,5.22,5.22,-5.22,-5.24,-5.72,-1.36,-1.37,-1.36
111.85,3.85,3.85,5.26,5.27,-5.27,-5.27,-5.80,-1.42,-1.42,-1.41
112.97,3.84,3.84,5.32,5.31,-5.31,-5.30,-5.88,-1.47,-1.47,-1.48
114.10,3.83,3.83,5.35,5.35,-5.36,-5.34,-5.95,-1.53,-1.53,-1.52
115.24,3.82,3.82,5.40,5.40,-5.40,-5.37,-6.02,-1.58,-1.58,-1.58
116.39,3.81,3.81,5.44,5.44,-5.44,-5.40,-6.09,-1.63,-1.63,-1.63
117.55,3.80,3.80,5.48,5.48,-5.48,-5.43,-6.14,-1.68,-1.68,-1.68
118.73,3.78,3.78,5.52,5.52,-5.52,-5.46,-6.20,-1.74,-1.73,-1.74
119.92,3.77,3.77,5.55,5.55,-5.55,-5.49,-6.24,-1.78,-1.78,-1.78
121.12,3.75,3.75,5.58,5.59,-5.59,-5.52,-6.29,-1.84,-1.84,-1.83
122.33,3.74,3.74,5.63,5.62,-5.62,-5.55,-6.32,-1.88,-1.88,-1.89
123.55,3.72,3.72,5.65,5.65,-5.66,-5.58,-6.35,-1.94,-1.93,-1.93
124.79,3.71,3.71,5.69,5.69,-5.69,-5.61,-6.37,-1.98,-1.98,-1.98
126.03,3.69,3.69,5.72,5.72,-5.72,-5.63,-6.38,-2.03,-2.03,-2.03
127.29,3.67,3.67,5.75,5.76,-5.75,-5.66,-6.38,-2.08,-2.08,-2.08
128.57,3.65,3.65,5.79,5.79,-5.78,-5.69,-6.38,-2.13,-2.13,-2.14
129.85,3.63,3.63,5.82,5.82,-5.81,-5.71,-6.37,-2.18,-2.18,-2.19
131.15,3.60,3.60,5.84,5.84,-5.84,-5.74,-6.36,-2.24,-2.24,-2.24
132.46,3.58,3.58,5.86,5.86,-5.86,-5.76,-6.33,-2.28,-2.28,-2.28
133.79,3.56,3.56,5.88,5.89,-5.89,-5.79,-6.31,-2.33,-2.33,-2.32
135.12,3.54,3.54,5.92,5.91,-5.91,-5.81,-6.27,-2.37,-2.37,-2.38
136.48,3.52,3.52,5.93,5.93,-5.93,-5.83,-6.23,-2.41,-2.42,-2.41
137.84,3.49,3.49,5.95,5.96,-5.95,-5.85,-6.19,-2.46,-2.46,-2.46
139.22,3.47,3.47,5.98,5.97,-5.97,-5.87,-6.15,-2.50,-2.50,-2.51
140.61,3.45,3.45,6.00,5.99,-5.99,-5.89,-6.10,-2.54,-2.54,-2.55
142.02,3.42,3.42,5.99,6.00,-6.00,-5.91,-6.05,-2.58,-2.58,-2.57
143.44,3.40,3.40,6.02,6.02,-6.02,-5.93,-5.99,-2.62,-2.62,-2.62
144.87,3.37,3.37,6.03,6.03,-6.03,-5.95,-5.94,-2.66,-2.66,-2.66
146.32,3.35,3.35,6.05,6.04,-6.04,-5.97,-5.88,-2.69,-2.69,-2.70
147.78,3.32,3.32,6.04,6.05,-6.05,-5.98,-5.83,-2.73,-2.73,-2.72
149.26,3.30,3.30,6.06,6.06,-6.06,-6.00,-5.77,-2.76,-2.76,-2.76
150.75,3.27,3.27,6.08,6.07,-6.07,-6.01,-5.72,-2.80,-2.80,-2.81
152.26,3.24,3.24,6.09,6.09,-6.08,-6.03,-5.67,-2.84,-2.84,-2.85
153.78,3.21,3.21,6.09,6.09,-6.09,-6.04,-5.61,-2.88,-2.88,-2.88
155.32,3.18,3.18,6.11,6.10,-6.10,-6.05,-5.57,-2.92,-2.92,-2.93
156.88,3.15,3.15,6.11,6.11,-6.11,-6.06,-5.52,-2.96,-2.96,-2.96
158.44,3.12,3.12,6.12,6.12,-6.12,-6.07,-5.48,-3.00,-3.00,-3.00
160.03,3.09,3.09,6.13,6.13,-6.13,-6.08,-5.43,-3.04,-3.04,-3.04
161.63,3.05,3.05,6.14,6.14,-6.14,-6.09,-5.40,-3.09,-3.08,-3.09
163.24,3.02,3.02,6.15,6.15,-6.14,-6.09,-5.36,-3.12,-3.12,-3.13
164.88,2.99,2.99,6.15,6.15,-6.15,-6.10,-5.33,-3.16,-3.16,-3.16
166.53,2.96,2.96,6.16,6.15,-6.15,-6.10,-5.30,-3.19,-3.20,-3.20
168.19,2.92,2.92,6.15,6.16,-6.16,-6.10,-5.28,-3.24,-3.23,-3.23
169.87,2.89,2.89,6.16,6.16,-6.16,-6.11,-5.25,-3.27,-3.27,-3.27
171.57,2.85,2.85,6.16,6.16,-6.16,-6.10,-5.24,-3.31,-3.31,-3.31
173.29,2.82,2.82,6.16,6.16,-6.16,-6.10,-5.23,-3.34,-3.35,-3.35
175.02,2.78,2.78,6.16,6.16,-6.17,-6.10,-5.22,-3.39,-3.39,-3.38
176.77,2.74,2.74,6.17,6.17,-6.16,-6.10,-5.21,-3.43,-3.42,-3.43
178.54,2.70,2.70,6.17,6.17,-6.16,-6.09,-5.21,-3.46,-3.46,-3.47
180.32,2.66,2.66,6.16,6.16,-6.16,-6.09,-5.22,-3.50,-3.50,-3.50
182.13,2.62,2.62,6.16,6.16,-6.16,-6.08,-5.22,-3.54,-3.54,-3.54
183.95,2.57,2.57,6.15,6.15,-6.15,-6.07,-5.23,-3.58,-3.58,-3.58
185.79,2.53,2.53,6.14,6.14,-6.14,-6.05,-5.25,-3.61,-3.61,-3.61
187.65,2.48,2.48,6.13,6.13,-6.13,-6.04,-5.27,-3.65,-3.65,-3.65
189.52,2.44,2.44,6.12,6.12,-6.11,-6.03,-5.29,-3.68,-3.68,-3.68
191.42,2.39,2.39,6.10,6.10,-6.10,-6.01,-5.32,-3.71,-3.71,-3.71
193.33,2.34,2.34,6.08,6.08,-6.08,-5.99,-5.35,-3.74,-3.74,-3.74
195.27,2.29,2.29,6.06,6.06,-6.06,-5.97,-5.38,-3.77,-3.77,-3.77
197.22,2.24,2.24,6.03,6.03,-6.03,-5.95,-5.42,-3.79,-3.80,-3.79
199.19,2.18,2.18,6.01,6.01,-6.00,-5.93,-5.45,-3.82,-3.82,-3.83
201.18,2.13,2.13,5.98,5.98,-5.97,-5.90,-5.50,-3.84,-3.85,-3.85
203.19,2.07,2.07,5.93,5.94,-5.94,-5.88,-5.54,-3.87,-3.87,-3.86
205.23,2.02,2.02,5.91,5.90,-5.90,-5.85,-5.58,-3.88,-3.89,-3.89
207.28,1.96,1.96,5.85,5.86,-5.86,-5.82,-5.63,-3.90,-3.90,-3.89
209.35,1.90,1.90,5.82,5.82,-5.82,-5.78,-5.67,-3.92,-3.92,-3.92
211.44,1.84,1.84,5.78,5.77,-5.77,-5.75,-5.72,-3.93,-3.93,-3.94
213.56,1.78,1.78,5.73,5.73,-5.73,-5.71,-5.76,-3.95,-3.95,-3.95
215.69,1.72,1.72,5.67,5.67,-5.68,-5.68,-5.80,-3.96,-3.96,-3.95
217.85,1.66,1.66,5.62,5.62,-5.62,-5.63,-5.85,-3.96,-3.97,-3.96
220.03,1.59,1.59,5.56,5.57,-5.57,-5.59,-5.89,-3.98,-3.97,-3.97
222.23,1.53,1.53,5.52,5.51,-5.51,-5.55,-5.92,-3.98,-3.98,-3.99
224.45,1.47,1.47,5.45,5.45,-5.45,-5.50,-5.96,-3.98,-3.98,-3.98
226.70,1.40,1.40,5.38,5.38,-5.38,-5.45,-5.98,-3.98,-3.98,-3.98
228.96,1.34,1.34,5.32,5.31,-5.32,-5.40,-6.01,-3.98,-3.98,-3.98
231.25,1.27,1.27,5.24,5.25,-5.25,-5.34,-6.02,-3.98,-3.98,-3.97
233.57,1.21,1.21,5.18,5.18,-5.18,-5.29,-6.03,-3.97,-3.97,-3.97
235.90,1.14,1.14,5.11,5.11,-5.11,-5.23,-6.03,-3.97,-3.97,-3.97
238.26,1.07,1.07,5.04,5.04,-5.03,-5.17,-6.02,-3.96,-3.96,-3.97
240.64,1.00,1.00,4.96,4.96,-4.96,-5.11,-6.00,-3.96,-3.96,-3.96
243.05,0.93,0.93,4.88,4.88,-4.88,-5.04,-5.98,-3.95,-3.95,-3.95
245.48,0.86,0.86,4.80,4.80,-4.80,-4.98,-5.94,-3.94,-3.94,-3.94
247.93,0.79,0.79,4.71,4.72,-4.72,-4.91,-5.90,-3.93,-3.93,-3.92
250.41,0.72,0.72,4.64,4.63,-4.63,-4.83,-5.84,-3.91,-3.91,-3.92
252.92,0.64,0.64,4.54,4.54,-4.54,-4.76,-5.77,-3.90,-3.90,-3.90
255.45,0.57,0.57,4.45,4.45,-4.45,-4.68,-5.69,-3.88,-3.88,-3.88
258.00,0.49,0.49,4.35,4.35,-4.36,-4.61,-5.60,-3.87,-3.87,-3.86
260.58,0.41,0.41,4.26,4.26,-4.26,-4.52,-5.50,-3.85,-3.85,-3.85
263.19,0.33,0.33,4.16,4.16,-4.16,-4.44,-5.40,-3.83,-3.83,-3.83
265.82,0.24,0.24,4.05,4.05,-4.05,-4.35,-5.27,-3.81,-3.81,-3.81
268.48,0.16,0.16,3.95,3.95,-3.94,-4.27,-5.15,-3.78,-3.79,-3.79
271.16,0.07,0.07,3.84,3.84,-3.83,-4.18,-5.01,-3.76,-3.77,-3.77
273.87,-0.03,-0.03,3.72,3.72,-3.72,-4.08,-4.87,-3.75,-3.75,-3.75
276.61,-0.12,-0.12,3.61,3.61,-3.60,-3.99,-4.71,-3.72,-3.73,-3.73
279.38,-0.22,-0.22,3.49,3.49,-3.49,-3.89,-4.56,-3.71,-3.71,-3.71
282.17,-0.31,-0.31,3.39,3.38,-3.38,-3.79,-4.39,-3.69,-3.69,-3.70
284.99,-0.41,-0.41,3.26,3.27,-3.27,-3.69,-4.22,-3.68,-3.67,-3.67
287.84,-0.49,-0.49,3.17,3.16,-3.17,-3.59,-4.05,-3.66,-3.66,-3.66
290.72,-0.57,-0.57,3.06,3.06,-3.07,-3.48,-3.87,-3.64,-3.64,-3.63
293.63,-0.64,-0.64,2.98,2.98,-2.98,-3.37,-3.69,-3.62,-3.62,-3.62
296.57,-0.69,-0.69,2.90,2.90,-2.91,-3.26,-3.51,-3.60,-3.60,-3.59
299.53,-0.73,-0.73,2.84,2.84,-2.84,-3.15,-3.32,-3.57,-3.57,-3.57
302.53,-0.76,-0.76,2.80,2.79,-2.79,-3.04,-3.13,-3.55,-3.55,-3.56
305.55,-0.78,-0.78,2.74,2.75,-2.75,-2.92,-2.94,-3.53,-3.53,-3.52
308.61,-0.78,-0.78,2.73,2.72,-2.73,-2.80,-2.75,-3.51,-3.51,-3.51
311.69,-0.78,-0.78,2.70,2.70,-2.71,-2.68,-2.56,-3.49,-3.49,-3.48
314.81,-0.76,-0.76,2.68,2.69,-2.71,-2.56,-2.36,-3.47,-3.47,-3.44
317.96,-0.73,-0.73,2.70,2.70,-2.72,-2.44,-2.17,-3.45,-3.45,-3.43
321.14,-0.69,-0.69,2.72,2.71,-2.72,-2.31,-1.97,-3.41,-3.41,-3.41
324.35,-0.66,-0.66,2.73,2.73,-2.73,-2.19,-1.78,-3.39,-3.38,-3.39
327.59,-0.63,-0.63,2.73,2.73,-2.72,-2.06,-1.58,-3.35,-3.36,-3.36
330.87,-0.63,-0.63,2.72,2.72,-2.71,-1.93,-1.39,-3.34,-3.33,-3.35
334.18,-0.64,-0.64,2.69,2.68,-2.67,-1.79,-1.19,-3.31,-3.32,-3.33
337.52,-0.69,-0.69,2.62,2.62,-2.61,-1.66,-1.00,-3.30,-3.30,-3.31
340.90,-0.77,-0.77,2.52,2.52,-2.52,-1.52,-0.80,-3.29,-3.28,-3.29
344.30,-0.87,-0.87,2.40,2.40,-2.39,-1.39,-0.61,-3.26,-3.26,-3.27
347.75,-1.00,-1.00,2.25,2.25,-2.23,-1.25,-0.41,-3.23,-3.22,-3.25
351.23,-1.16,-1.16,2.07,2.08,-2.04,-1.11,-0.21,-3.20,-3.20,-3.23
354.74,-1.34,-1.36,1.87,1.85,-1.82,-0.97,-0.02,-3.16,-3.18,-3.21
358.28,-1.61,-1.60,1.59,1.59,-1.58,-0.82,0.18,-3.19,-3.19,-3.20
361.87,-1.88,-1.87,1.30,1.32,-1.33,-0.68,0.37,-3.21,-3.20,-3.18
365.49,-2.13,-2.13,1.04,1.04,-1.07,-0.53,0.57,-3.20,-3.20,-3.17
369.14,-2.38,-2.38,0.78,0.78,-0.80,-0.39,0.76,-3.18,-3.18,-3.16
372.83,-2.62,-2.62,0.52,0.53,-0.54,-0.24,0.96,-3.16,-3.16,-3.14
376.56,-2.85,-2.85,0.29,0.28,-0.29,-0.09,1.15,-3.14,-3.14,-3.14
380.33,-3.08,-3.08,0.03,0.04,-0.04,0.06,1.35,-3.12,-3.12,-3.11
384.13,-3.29,-3.29,-0.19,-0.19,0.19,0.21,1.54,-3.10,-3.10,-3.10
387.97,-3.50,-3.50,-0.41,-0.41,0.41,0.36,1.74,-3.09,-3.09,-3.09
391.85,-3.70,-3.70,-0.62,-0.62,0.62,0.51,1.93,-3.08,-3.08,-3.08
395.77,-3.90,-3.90,-0.84,-0.83,0.83,0.67,2.13,-3.07,-3.07,-3.06
399.73,-4.09,-4.09,-1.03,-1.03,1.03,0.82,2.32,-3.06,-3.05,-3.06
403.72,-4.27,-4.27,-1.22,-1.23,1.23,0.97,2.51,-3.04,-3.04,-3.05
407.76,-4.45,-4.45,-1.41,-1.42,1.42,1.13,2.70,-3.03,-3.03,-3.04
411.84,-4.63,-4.63,-1.61,-1.61,1.61,1.28,2.89,-3.02,-3.02,-3.02
415.96,-4.80,-4.80,-1.79,-1.79,1.79,1.44,3.08,-3.01,-3.01,-3.01
420.12,-4.97,-4.97,-1.97,-1.97,1.97,1.59,3.26,-3.00,-3.00,-3.00
424.32,-5.13,-5.13,-2.14,-2.14,2.15,1.75,3.45,-2.98,-2.98,-2.99
428.56,-5.30,-5.30,-2.32,-2.31,2.32,1.90,3.62,-2.98,-2.97,-2.98
432.85,-5.45,-5.45,-2.48,-2.48,2.49,2.06,3.80,-2.96,-2.96,-2.97
437.18,-5.61,-5.62,-2.64,-2.65,2.65,2.21,3.97,-2.96,-2.97,-2.97
441.55,-5.76,-5.76,-2.81,-2.81,2.79,2.36,4.13,-2.97,-2.97,-2.95
445.96,-5.91,-5.89,-2.97,-2.95,2.93,2.52,4.29,-2.98,-2.96,-2.94
450.42,-5.99,-5.99,-3.06,-3.07,3.05,2.67,4.44,-2.94,-2.94,-2.93
454.93,-6.07,-6.08,-3.16,-3.17,3.17,2.82,4.58,-2.90,-2.91,-2.91
459.48,-6.16,-6.16,-3.26,-3.26,3.27,2.97,4.72,-2.89,-2.89,-2.90
464.07,-6.24,-6.24,-3.36,-3.36,3.37,3.12,4.84,-2.87,-2.87,-2.88
468.71,-6.32,-6.32,-3.46,-3.46,3.46,3.27,4.96,-2.86,-2.86,-2.86
473.40,-6.40,-6.40,-3.55,-3.55,3.55,3.41,5.06,-2.85,-2.85,-2.85
478.13,-6.48,-6.48,-3.65,-3.64,3.65,3.56,5.15,-2.83,-2.83,-2.83
482.91,-6.56,-6.56,-3.74,-3.74,3.74,3.70,5.23,-2.82,-2.82,-2.82
487.74,-6.64,-6.64,-3.84,-3.84,3.84,3.84,5.29,-2.81,-2.81,-2.80
492.62,-6.72,-6.72,-3.93,-3.93,3.93,3.98,5.34,-2.79,-2.79,-2.79
