frequency,raw,error,smoothed,error_smoothed,equalization,parametric_eq,equalized_raw,equalized_smoothed,target
20,-9.57,-11.55,-9.70,-11.69,6.00,2.68,-3.57,-3.70,1.98
21,-9.24,-11.22,-9.22,-11.20,6.00,3.08,-3.24,-3.22,1.98
22,-8.83,-10.81,-8.76,-10.74,6.00,3.51,-2.83,-2.76,1.98
23,-8.46,-10.44,-8.32,-10.30,6.00,3.97,-2.46,-2.32,1.98
24,-8.12,-10.09,-7.91,-9.88,6.00,4.45,-2.12,-1.91,1.97
25,-7.67,-9.64,-7.51,-9.48,6.00,4.95,-1.67,-1.51,1.97
26,-7.13,-9.10,-7.13,-9.10,6.00,5.45,-1.13,-1.13,1.97
27,-6.56,-8.52,-6.79,-8.76,6.00,5.92,-0.56,-0.79,1.97
28,-6.20,-8.16,-6.49,-8.45,6.00,6.33,-0.20,-0.49,1.96
29,-6.07,-8.03,-6.22,-8.18,6.00,6.67,-0.07,-0.22,1.96
30,-6.04,-7.99,-6.00,-7.95,6.00,6.91,-0.04,0.00,1.95
31,-6.00,-7.95,-5.81,-7.75,6.00,7.04,0.00,0.19,1.95
32,-5.81,-7.75,-5.64,-7.58,6.00,7.06,0.19,0.36,1.94
33,-5.51,-7.44,-5.49,-7.43,6.00,6.98,0.49,0.51,1.93
34,-5.28,-7.21,-5.35,-7.28,6.00,6.83,0.72,0.65,1.93
35,-5.16,-7.08,-5.22,-7.14,6.00,6.63,0.84,0.78,1.92
36,-5.05,-6.96,-5.08,-6.99,6.00,6.40,0.95,0.92,1.91
37,-4.98,-6.88,-4.94,-6.84,6.00,6.16,1.02,1.06,1.90
38,-4.83,-6.72,-4.79,-6.69,6.00,5.93,1.17,1.21,1.89
39,-4.68,-6.56,-4.65,-6.54,6.00,5.70,1.32,1.35,1.88
40,-4.51,-6.38,-4.51,-6.38,6.00,5.50,1.49,1.49,1.87
41,-4.37,-6.23,-4.36,-6.22,5.97,5.31,1.60,1.61,1.86
42,-4.21,-6.06,-4.22,-6.07,5.91,5.15,1.70,1.69,1.85
43,-4.07,-5.91,-4.08,-5.91,5.82,5.02,1.75,1.75,1.84
44,-3.94,-5.76,-3.94,-5.76,5.71,4.90,1.78,1.78,1.82
45,-3.79,-5.60,-3.80,-5.61,5.60,4.81,1.81,1.79,1.81
46,-3.67,-5.46,-3.67,-5.47,5.47,4.73,1.80,1.79,1.79
47,-3.55,-5.33,-3.55,-5.33,5.33,4.68,1.78,1.78,1.78
48,-3.45,-5.21,-3.44,-5.20,5.20,4.64,1.75,1.76,1.76
49,-3.33,-5.07,-3.34,-5.08,5.08,4.61,1.75,1.74,1.74
50,-3.24,-4.96,-3.24,-4.96,4.96,4.60,1.73,1.72,1.72
51,-3.14,-4.84,-3.15,-4.86,4.86,4.59,1.72,1.70,1.70
52,-3.08,-4.76,-3.07,-4.76,4.76,4.59,1.68,1.68,1.68
53,-3.01,-4.67,-3.00,-4.66,4.66,4.60,1.65,1.66,1.66
54,-2.92,-4.56,-2.93,-4.57,4.57,4.60,1.65,1.64,1.64
55,-2.84,-4.45,-2.86,-4.48,4.48,4.61,1.64,1.61,1.61
56,-2.81,-4.40,-2.80,-4.39,4.39,4.61,1.58,1.59,1.59
57,-2.74,-4.30,-2.73,-4.29,4.29,4.61,1.55,1.56,1.56
58,-2.68,-4.22,-2.66,-4.20,4.20,4.59,1.52,1.54,1.54
59,-2.59,-4.10,-2.59,-4.10,4.10,4.57,1.51,1.51,1.51
60,-2.51,-3.99,-2.51,-3.99,3.99,4.54,1.48,1.48,1.48
61,-2.43,-3.88,-2.42,-3.88,3.88,4.50,1.45,1.45,1.45
62,-2.36,-3.78,-2.34,-3.76,3.76,4.45,1.40,1.42,1.42
63,-2.28,-3.67,-2.25,-3.64,3.64,4.38,1.36,1.39,1.39
64,-2.16,-3.52,-2.16,-3.52,3.52,4.31,1.36,1.36,1.36
65,-2.08,-3.41,-2.08,-3.41,3.41,4.22,1.33,1.33,1.33
66,-2.00,-3.30,-2.01,-3.31,3.31,4.12,1.31,1.30,1.30
67,-1.96,-3.22,-1.96,-3.22,3.22,4.02,1.26,1.26,1.26
68,-1.92,-3.15,-1.93,-3.16,3.16,3.91,1.24,1.23,1.23
69,-1.92,-3.11,-1.93,-3.13,3.13,3.79,1.21,1.19,1.19
70,-1.92,-3.08,-1.97,-3.12,3.12,3.67,1.21,1.16,1.16
71,-1.98,-3.10,-2.04,-3.16,3.16,3.54,1.18,1.12,1.12
72,-2.06,-3.14,-2.14,-3.22,3.22,3.41,1.16,1.08,1.08
73,-2.21,-3.25,-2.27,-3.31,3.31,3.28,1.10,1.05,1.05
74,-2.38,-3.39,-2.41,-3.41,3.41,3.15,1.03,1.01,1.01
75,-2.54,-3.51,-2.54,-3.51,3.51,3.02,0.97,0.97,0.97
76,-2.70,-3.63,-2.66,-3.59,3.59,2.89,0.89,0.93,0.93
77,-2.84,-3.73,-2.75,-3.64,3.64,2.76,0.80,0.89,0.89
78,-2.90,-3.75,-2.79,-3.64,3.64,2.64,0.74,0.85,0.85
79,-2.88,-3.69,-2.78,-3.59,3.59,2.51,0.71,0.81,0.81
80,-2.79,-3.56,-2.72,-3.49,3.49,2.39,0.70,0.77,0.77
81,-2.64,-3.37,-2.61,-3.34,3.34,2.27,0.70,0.73,0.73
82,-2.44,-3.13,-2.46,-3.15,3.15,2.16,0.71,0.69,0.69
83,-2.26,-2.90,-2.28,-2.93,2.93,2.04,0.67,0.65,0.65
84,-2.05,-2.65,-2.09,-2.69,2.69,1.93,0.64,0.60,0.60
85,-1.86,-2.42,-1.89,-2.46,2.46,1.82,0.60,0.56,0.56
86,-1.68,-2.20,-1.71,-2.23,2.23,1.72,0.55,0.52,0.52
87,-1.51,-1.99,-1.54,-2.01,2.01,1.62,0.51,0.48,0.48
88,-1.37,-1.81,-1.38,-1.82,1.82,1.52,0.45,0.44,0.44
89,-1.24,-1.63,-1.25,-1.65,1.65,1.42,0.41,0.40,0.40
90,-1.12,-1.47,-1.15,-1.50,1.50,1.32,0.38,0.35,0.35
91,-1.05,-1.36,-1.06,-1.37,1.37,1.23,0.32,0.31,0.31
92,-0.99,-1.26,-0.99,-1.26,1.26,1.14,0.27,0.27,0.27
93,-0.94,-1.17,-0.93,-1.16,1.16,1.05,0.22,0.23,0.23
94,-0.88,-1.07,-0.88,-1.07,1.07,0.96,0.19,0.19,0.19
95,-0.85,-1.00,-0.84,-0.99,0.99,0.88,0.14,0.15,0.15
96,-0.82,-0.93,-0.80,-0.92,0.92,0.80,0.10,0.11,0.11
97,-0.78,-0.85,-0.77,-0.84,0.84,0.72,0.06,0.07,0.07
98,-0.75,-0.78,-0.74,-0.77,0.77,0.64,0.02,0.03,0.03
99,-0.70,-0.69,-0.70,-0.69,0.69,0.56,-0.01,-0.01,-0.01
100,-0.67,-0.62,-0.67,-0.62,0.62,0.49,-0.05,-0.05,-0.05
101,-0.64,-0.55,-0.64,-0.54,0.54,0.41,-0.10,-0.10,-0.09
102,-0.62,-0.50,-0.61,-0.47,0.47,0.34,-0.15,-0.14,-0.12
104,-0.58,-0.38,-0.58,-0.40,0.40,0.21,-0.18,-0.18,-0.20
105,-0.56,-0.33,-0.56,-0.34,0.34,0.14,-0.22,-0.22,-0.23
106,-0.53,-0.26,-0.54,-0.28,0.28,0.08,-0.25,-0.26,-0.27
107,-0.53,-0.22,-0.53,-0.23,0.23,0.02,-0.30,-0.30,-0.30
108,-0.53,-0.19,-0.53,-0.19,0.19,-0.04,-0.34,-0.34,-0.34
109,-0.51,-0.13,-0.52,-0.15,0.15,-0.10,-0.36,-0.37,-0.37
110,-0.52,-0.11,-0.52,-0.11,0.11,-0.16,-0.40,-0.41,-0.41
111,-0.53,-0.09,-0.53,-0.08,0.08,-0.21,-0.45,-0.44,-0.44
112,-0.53,-0.05,-0.53,-0.05,0.05,-0.26,-0.48,-0.48,-0.47
113,-0.53,-0.02,-0.53,-0.02,0.02,-0.31,-0.51,-0.51,-0.51
114,-0.53,0.01,-0.53,0.02,-0.02,-0.36,-0.55,-0.54,-0.54
115,-0.53,0.04,-0.52,0.06,-0.06,-0.41,-0.59,-0.58,-0.57
117,-0.53,0.10,-0.51,0.11,-0.11,-0.49,-0.63,-0.62,-0.63
118,-0.49,0.17,-0.49,0.16,-0.16,-0.53,-0.65,-0.65,-0.66
119,-0.48,0.21,-0.47,0.22,-0.22,-0.57,-0.70,-0.69,-0.69
120,-0.45,0.27,-0.44,0.28,-0.28,-0.60,-0.73,-0.72,-0.72
121,-0.42,0.33,-0.41,0.35,-0.35,-0.64,-0.76,-0.75,-0.74
123,-0.36,0.44,-0.37,0.41,-0.41,-0.70,-0.77,-0.79,-0.80
124,-0.33,0.50,-0.34,0.48,-0.48,-0.72,-0.81,-0.82,-0.82
125,-0.31,0.54,-0.30,0.55,-0.55,-0.75,-0.86,-0.85,-0.85
126,-0.27,0.61,-0.27,0.61,-0.61,-0.77,-0.88,-0.88,-0.87
128,-0.23,0.69,-0.24,0.67,-0.67,-0.81,-0.90,-0.91,-0.92
129,-0.19,0.76,-0.21,0.73,-0.73,-0.83,-0.92,-0.94,-0.95
130,-0.19,0.78,-0.18,0.79,-0.79,-0.85,-0.98,-0.97,-0.97
131,-0.16,0.83,-0.15,0.85,-0.85,-0.87,-1.01,-1.00,-0.99
133,-0.14,0.90,-0.13,0.90,-0.90,-0.89,-1.04,-1.03,-1.04
134,-0.11,0.95,-0.10,0.96,-0.96,-0.90,-1.07,-1.06,-1.06
135,-0.09,0.99,-0.07,1.01,-1.01,-0.91,-1.10,-1.09,-1.08
137,-0.03,1.09,-0.04,1.07,-1.07,-0.93,-1.10,-1.11,-1.12
138,-0.01,1.13,-0.02,1.12,-1.12,-0.94,-1.13,-1.14,-1.14
140,0.01,1.18,0.01,1.17,-1.17,-0.95,-1.16,-1.17,-1.17
141,0.03,1.22,0.03,1.22,-1.22,-0.96,-1.19,-1.19,-1.19
142,0.03,1.24,0.04,1.26,-1.26,-0.96,-1.23,-1.22,-1.21
144,0.07,1.31,0.05,1.29,-1.29,-0.97,-1.22,-1.24,-1.24
145,0.07,1.33,0.06,1.32,-1.32,-0.97,-1.25,-1.26,-1.26
147,0.07,1.36,0.06,1.34,-1.34,-0.98,-1.27,-1.29,-1.29
148,0.06,1.37,0.05,1.36,-1.36,-0.98,-1.30,-1.31,-1.31
150,0.03,1.37,0.05,1.38,-1.38,-0.98,-1.35,-1.33,-1.34
151,0.03,1.38,0.04,1.39,-1.39,-0.98,-1.36,-1.35,-1.35
153,0.02,1.40,0.03,1.40,-1.40,-0.99,-1.38,-1.37,-1.38
154,0.01,1.40,0.02,1.41,-1.41,-0.99,-1.40,-1.39,-1.39
156,0.01,1.43,0.02,1.43,-1.43,-1.00,-1.42,-1.41,-1.42
157,0.01,1.44,0.01,1.44,-1.44,-1.00,-1.43,-1.43,-1.43
159,0.01,1.46,0.01,1.46,-1.46,-1.00,-1.45,-1.45,-1.45
160,0.01,1.47,0.01,1.48,-1.48,-1.01,-1.47,-1.47,-1.46
162,0.01,1.50,0.01,1.49,-1.49,-1.01,-1.48,-1.49,-1.49
164,0.01,1.52,0.01,1.51,-1.51,-1.02,-1.50,-1.50,-1.51
165,0.01,1.53,0.01,1.53,-1.53,-1.02,-1.52,-1.52,-1.52
167,0.01,1.55,0.01,1.54,-1.54,-1.03,-1.53,-1.54,-1.54
169,-0.01,1.55,0.00,1.55,-1.55,-1.04,-1.56,-1.55,-1.55
170,-0.01,1.55,-0.01,1.56,-1.56,-1.05,-1.57,-1.57,-1.56
172,-0.01,1.57,-0.02,1.56,-1.56,-1.06,-1.57,-1.58,-1.58
174,-0.01,1.59,-0.03,1.57,-1.57,-1.07,-1.58,-1.60,-1.60
175,-0.04,1.57,-0.04,1.57,-1.57,-1.08,-1.61,-1.61,-1.61
177,-0.06,1.56,-0.05,1.57,-1.57,-1.09,-1.63,-1.62,-1.62
179,-0.06,1.58,-0.06,1.57,-1.57,-1.11,-1.63,-1.64,-1.64
181,-0.09,1.56,-0.08,1.57,-1.57,-1.12,-1.66,-1.65,-1.65
183,-0.10,1.57,-0.08,1.58,-1.58,-1.14,-1.68,-1.66,-1.66
184,-0.10,1.57,-0.09,1.58,-1.58,-1.15,-1.68,-1.67,-1.67
186,-0.10,1.59,-0.10,1.59,-1.59,-1.17,-1.69,-1.69,-1.68
188,-0.10,1.60,-0.10,1.59,-1.59,-1.19,-1.69,-1.70,-1.70
190,-0.10,1.61,-0.11,1.60,-1.60,-1.21,-1.70,-1.71,-1.71
192,-0.10,1.62,-0.11,1.61,-1.61,-1.23,-1.71,-1.72,-1.72
194,-0.11,1.62,-0.12,1.61,-1.61,-1.25,-1.72,-1.73,-1.73
196,-0.14,1.60,-0.12,1.62,-1.62,-1.27,-1.76,-1.74,-1.74
198,-0.14,1.61,-0.13,1.63,-1.63,-1.29,-1.76,-1.75,-1.75
200,-0.14,1.62,-0.13,1.63,-1.63,-1.32,-1.77,-1.76,-1.76
202,-0.14,1.63,-0.14,1.63,-1.63,-1.34,-1.77,-1.77,-1.77
204,-0.14,1.64,-0.14,1.64,-1.64,-1.36,-1.78,-1.78,-1.78
206,-0.14,1.65,-0.15,1.64,-1.64,-1.38,-1.78,-1.79,-1.79
208,-0.14,1.66,-0.16,1.64,-1.64,-1.41,-1.78,-1.80,-1.80
210,-0.17,1.63,-0.17,1.64,-1.64,-1.43,-1.81,-1.80,-1.80
212,-0.19,1.62,-0.18,1.63,-1.63,-1.45,-1.82,-1.81,-1.81
214,-0.19,1.63,-0.19,1.63,-1.63,-1.47,-1.82,-1.82,-1.82
216,-0.19,1.63,-0.20,1.62,-1.62,-1.50,-1.81,-1.82,-1.82
218,-0.23,1.60,-0.21,1.61,-1.61,-1.52,-1.84,-1.83,-1.82
221,-0.23,1.60,-0.22,1.61,-1.61,-1.54,-1.84,-1.83,-1.83
223,-0.23,1.60,-0.23,1.60,-1.60,-1.56,-1.83,-1.83,-1.83
225,-0.23,1.61,-0.24,1.59,-1.59,-1.58,-1.82,-1.83,-1.83
227,-0.27,1.57,-0.26,1.58,-1.58,-1.59,-1.85,-1.83,-1.83
229,-0.27,1.56,-0.27,1.57,-1.57,-1.61,-1.84,-1.83,-1.83
232,-0.27,1.57,-0.28,1.55,-1.55,-1.63,-1.82,-1.83,-1.83
234,-0.28,1.55,-0.29,1.54,-1.54,-1.64,-1.82,-1.83,-1.83
236,-0.32,1.51,-0.31,1.52,-1.52,-1.65,-1.84,-1.83,-1.83
239,-0.32,1.51,-0.32,1.50,-1.50,-1.66,-1.82,-1.82,-1.82
241,-0.36,1.46,-0.34,1.48,-1.48,-1.66,-1.84,-1.82,-1.82
244,-0.36,1.45,-0.35,1.46,-1.46,-1.67,-1.82,-1.81,-1.81
246,-0.36,1.45,-0.37,1.44,-1.44,-1.67,-1.80,-1.81,-1.81
248,-0.38,1.42,-0.38,1.41,-1.41,-1.67,-1.79,-1.80,-1.80
251,-0.40,1.39,-0.40,1.39,-1.39,-1.66,-1.79,-1.79,-1.79
253,-0.40,1.38,-0.41,1.37,-1.37,-1.66,-1.76,-1.78,-1.78
256,-0.44,1.33,-0.43,1.34,-1.34,-1.65,-1.78,-1.77,-1.77
259,-0.45,1.31,-0.44,1.31,-1.31,-1.63,-1.76,-1.76,-1.76
261,-0.45,1.30,-0.46,1.29,-1.29,-1.62,-1.74,-1.75,-1.74
264,-0.49,1.24,-0.47,1.26,-1.26,-1.60,-1.75,-1.73,-1.73
266,-0.49,1.23,-0.49,1.23,-1.23,-1.59,-1.72,-1.72,-1.72
269,-0.49,1.22,-0.50,1.21,-1.21,-1.56,-1.70,-1.70,-1.70
272,-0.49,1.20,-0.51,1.18,-1.18,-1.54,-1.67,-1.69,-1.69
274,-0.53,1.14,-0.52,1.16,-1.16,-1.52,-1.69,-1.67,-1.67
277,-0.53,1.13,-0.52,1.13,-1.13,-1.49,-1.66,-1.66,-1.66
280,-0.53,1.11,-0.53,1.12,-1.12,-1.46,-1.64,-1.64,-1.64
283,-0.53,1.10,-0.53,1.10,-1.10,-1.43,-1.63,-1.62,-1.62
286,-0.53,1.08,-0.52,1.08,-1.08,-1.40,-1.61,-1.61,-1.61
288,-0.53,1.06,-0.52,1.07,-1.07,-1.37,-1.60,-1.59,-1.59
291,-0.53,1.04,-0.51,1.06,-1.06,-1.34,-1.59,-1.57,-1.57
294,-0.49,1.06,-0.51,1.04,-1.04,-1.31,-1.53,-1.55,-1.55
297,-0.49,1.04,-0.50,1.03,-1.03,-1.27,-1.52,-1.53,-1.53
300,-0.49,1.02,-0.50,1.02,-1.02,-1.24,-1.51,-1.51,-1.51
303,-0.49,1.00,-0.49,1.00,-1.00,-1.20,-1.49,-1.49,-1.49
306,-0.49,0.98,-0.49,0.98,-0.98,-1.17,-1.47,-1.47,-1.47
309,-0.49,0.96,-0.49,0.96,-0.96,-1.13,-1.45,-1.45,-1.45
312,-0.49,0.94,-0.49,0.94,-0.94,-1.10,-1.43,-1.43,-1.43
316,-0.49,0.92,-0.49,0.92,-0.92,-1.05,-1.41,-1.41,-1.41
319,-0.49,0.90,-0.49,0.90,-0.90,-1.02,-1.39,-1.39,-1.39
322,-0.49,0.88,-0.49,0.88,-0.88,-0.99,-1.37,-1.37,-1.37
325,-0.49,0.86,-0.49,0.86,-0.86,-0.96,-1.35,-1.35,-1.35
328,-0.49,0.84,-0.49,0.84,-0.84,-0.93,-1.33,-1.33,-1.33
332,-0.49,0.82,-0.49,0.82,-0.82,-0.88,-1.31,-1.31,-1.31
335,-0.49,0.80,-0.49,0.80,-0.80,-0.86,-1.28,-1.29,-1.29
338,-0.49,0.78,-0.49,0.77,-0.77,-0.83,-1.26,-1.27,-1.27
342,-0.49,0.76,-0.50,0.75,-0.75,-0.79,-1.24,-1.25,-1.25
345,-0.49,0.74,-0.51,0.72,-0.72,-0.76,-1.21,-1.23,-1.23
349,-0.53,0.68,-0.51,0.70,-0.70,-0.73,-1.23,-1.21,-1.21
352,-0.53,0.66,-0.52,0.67,-0.67,-0.70,-1.20,-1.19,-1.19
356,-0.53,0.64,-0.52,0.65,-0.65,-0.67,-1.18,-1.17,-1.17
359,-0.53,0.63,-0.53,0.63,-0.63,-0.64,-1.16,-1.16,-1.16
363,-0.53,0.61,-0.53,0.61,-0.61,-0.61,-1.14,-1.14,-1.14
366,-0.53,0.59,-0.53,0.59,-0.59,-0.59,-1.12,-1.12,-1.12
370,-0.53,0.58,-0.53,0.58,-0.58,-0.56,-1.11,-1.11,-1.11
374,-0.53,0.57,-0.53,0.57,-0.57,-0.53,-1.09,-1.10,-1.10
377,-0.53,0.55,-0.53,0.55,-0.55,-0.51,-1.08,-1.08,-1.08
381,-0.53,0.54,-0.53,0.54,-0.54,-0.48,-1.07,-1.07,-1.07
385,-0.53,0.53,-0.53,0.53,-0.53,-0.45,-1.06,-1.06,-1.06
389,-0.53,0.52,-0.53,0.52,-0.52,-0.43,-1.05,-1.05,-1.05
393,-0.53,0.51,-0.53,0.51,-0.51,-0.40,-1.04,-1.04,-1.04
397,-0.53,0.50,-0.53,0.50,-0.50,-0.38,-1.03,-1.03,-1.03
401,-0.53,0.49,-0.53,0.49,-0.49,-0.36,-1.02,-1.02,-1.02
405,-0.53,0.48,-0.53,0.48,-0.48,-0.33,-1.01,-1.01,-1.01
409,-0.53,0.48,-0.53,0.47,-0.47,-0.31,-1.00,-1.01,-1.01
413,-0.53,0.47,-0.54,0.46,-0.46,-0.29,-0.99,-1.00,-1.00
417,-0.53,0.46,-0.55,0.44,-0.44,-0.27,-0.97,-0.99,-0.99
421,-0.56,0.42,-0.55,0.43,-0.43,-0.25,-0.99,-0.98,-0.98
425,-0.58,0.40,-0.56,0.41,-0.41,-0.23,-0.99,-0.98,-0.98
430,-0.58,0.39,-0.57,0.40,-0.40,-0.21,-0.98,-0.97,-0.97
434,-0.58,0.38,-0.58,0.38,-0.38,-0.19,-0.96,-0.96,-0.96
438,-0.58,0.37,-0.59,0.37,-0.37,-0.18,-0.95,-0.95,-0.95
443,-0.60,0.35,-0.59,0.35,-0.35,-0.16,-0.95,-0.94,-0.94
447,-0.60,0.34,-0.60,0.33,-0.33,-0.14,-0.93,-0.94,-0.94
451,-0.60,0.33,-0.61,0.32,-0.32,-0.12,-0.92,-0.93,-0.93
456,-0.62,0.30,-0.62,0.30,-0.30,-0.11,-0.92,-0.92,-0.92
460,-0.62,0.29,-0.63,0.28,-0.28,-0.09,-0.90,-0.91,-0.91
465,-0.63,0.27,-0.64,0.26,-0.26,-0.08,-0.89,-0.89,-0.89
470,-0.66,0.22,-0.64,0.24,-0.24,-0.06,-0.90,-0.88,-0.88
474,-0.66,0.21,-0.65,0.22,-0.22,-0.05,-0.88,-0.87,-0.87
479,-0.66,0.20,-0.66,0.20,-0.20,-0.04,-0.86,-0.86,-0.86
484,-0.66,0.18,-0.66,0.18,-0.18,-0.02,-0.84,-0.84,-0.84
489,-0.66,0.17,-0.66,0.17,-0.17,-0.01,-0.82,-0.83,-0.83
494,-0.66,0.15,-0.66,0.15,-0.15,0.00,-0.81,-0.81,-0.81
499,-0.66,0.14,-0.66,0.13,-0.13,0.01,-0.79,-0.79,-0.79
504,-0.66,0.12,-0.66,0.12,-0.12,0.02,-0.77,-0.78,-0.78
509,-0.66,0.10,-0.66,0.10,-0.10,0.03,-0.76,-0.76,-0.76
514,-0.66,0.08,-0.66,0.08,-0.08,0.04,-0.74,-0.74,-0.74
519,-0.66,0.06,-0.66,0.07,-0.07,0.05,-0.72,-0.72,-0.72
524,-0.66,0.04,-0.65,0.05,-0.05,0.06,-0.71,-0.70,-0.70
529,-0.66,0.03,-0.65,0.04,-0.04,0.07,-0.70,-0.68,-0.68
535,-0.66,0.01,-0.64,0.02,-0.02,0.07,-0.68,-0.66,-0.66
540,-0.64,0.01,-0.63,0.01,-0.01,0.08,-0.65,-0.64,-0.64
545,-0.62,0.00,-0.63,-0.01,0.01,0.09,-0.61,-0.62,-0.62
551,-0.62,-0.02,-0.63,-0.02,0.02,0.09,-0.59,-0.60,-0.60
556,-0.62,-0.04,-0.63,-0.05,0.05,0.10,-0.57,-0.58,-0.58
562,-0.62,-0.06,-0.64,-0.08,0.08,0.10,-0.54,-0.56,-0.56
568,-0.66,-0.12,-0.65,-0.11,0.11,0.11,-0.55,-0.54,-0.54
573,-0.66,-0.14,-0.67,-0.15,0.15,0.11,-0.51,-0.52,-0.52
579,-0.70,-0.20,-0.70,-0.20,0.20,0.12,-0.50,-0.50,-0.50
585,-0.73,-0.24,-0.72,-0.24,0.24,0.12,-0.49,-0.48,-0.48
591,-0.75,-0.28,-0.75,-0.28,0.28,0.13,-0.46,-0.47,-0.47
596,-0.79,-0.34,-0.77,-0.33,0.33,0.13,-0.46,-0.45,-0.45
602,-0.79,-0.36,-0.79,-0.36,0.36,0.14,-0.43,-0.43,-0.43
608,-0.80,-0.39,-0.80,-0.39,0.39,0.14,-0.41,-0.41,-0.41
615,-0.84,-0.44,-0.81,-0.41,0.41,0.14,-0.43,-0.40,-0.40
621,-0.83,-0.45,-0.81,-0.43,0.43,0.15,-0.40,-0.38,-0.38
627,-0.79,-0.42,-0.80,-0.43,0.43,0.15,-0.36,-0.36,-0.36
633,-0.79,-0.44,-0.78,-0.43,0.43,0.16,-0.35,-0.35,-0.35
639,-0.76,-0.42,-0.77,-0.43,0.43,0.16,-0.33,-0.34,-0.34
646,-0.75,-0.43,-0.75,-0.42,0.42,0.16,-0.33,-0.32,-0.32
652,-0.71,-0.40,-0.72,-0.42,0.42,0.17,-0.29,-0.31,-0.31
659,-0.71,-0.41,-0.70,-0.41,0.41,0.17,-0.30,-0.30,-0.30
665,-0.67,-0.38,-0.69,-0.40,0.40,0.17,-0.27,-0.29,-0.29
672,-0.66,-0.38,-0.67,-0.39,0.39,0.18,-0.27,-0.27,-0.27
679,-0.66,-0.40,-0.65,-0.39,0.39,0.18,-0.27,-0.26,-0.26
686,-0.66,-0.41,-0.64,-0.39,0.39,0.19,-0.27,-0.25,-0.25
692,-0.62,-0.38,-0.63,-0.38,0.38,0.19,-0.24,-0.24,-0.24
699,-0.62,-0.38,-0.62,-0.38,0.38,0.19,-0.24,-0.23,-0.23
706,-0.62,-0.39,-0.61,-0.38,0.38,0.20,-0.24,-0.22,-0.22
713,-0.60,-0.38,-0.60,-0.38,0.38,0.20,-0.22,-0.22,-0.22
721,-0.59,-0.38,-0.60,-0.39,0.39,0.21,-0.20,-0.21,-0.21
728,-0.58,-0.38,-0.60,-0.40,0.40,0.21,-0.18,-0.20,-0.20
735,-0.60,-0.41,-0.61,-0.41,0.41,0.22,-0.19,-0.19,-0.19
742,-0.62,-0.43,-0.62,-0.43,0.43,0.22,-0.19,-0.19,-0.19
750,-0.63,-0.45,-0.63,-0.45,0.45,0.23,-0.17,-0.18,-0.18
757,-0.66,-0.49,-0.65,-0.48,0.48,0.23,-0.18,-0.17,-0.17
765,-0.67,-0.50,-0.68,-0.51,0.51,0.24,-0.16,-0.17,-0.17
773,-0.71,-0.55,-0.70,-0.54,0.54,0.25,-0.17,-0.16,-0.16
780,-0.71,-0.55,-0.72,-0.57,0.57,0.25,-0.14,-0.15,-0.15
788,-0.75,-0.60,-0.75,-0.60,0.60,0.26,-0.15,-0.15,-0.15
796,-0.75,-0.60,-0.76,-0.62,0.62,0.27,-0.13,-0.15,-0.15
804,-0.79,-0.65,-0.78,-0.64,0.64,0.27,-0.15,-0.14,-0.14
812,-0.79,-0.65,-0.79,-0.65,0.65,0.28,-0.14,-0.14,-0.14
820,-0.79,-0.65,-0.78,-0.65,0.65,0.29,-0.14,-0.13,-0.13
828,-0.79,-0.66,-0.77,-0.64,0.64,0.29,-0.15,-0.13,-0.13
837,-0.75,-0.62,-0.75,-0.62,0.62,0.30,-0.13,-0.13,-0.13
845,-0.73,-0.60,-0.71,-0.59,0.59,0.31,-0.14,-0.13,-0.12
853,-0.69,-0.57,-0.67,-0.55,0.55,0.32,-0.14,-0.12,-0.12
862,-0.62,-0.50,-0.62,-0.50,0.50,0.33,-0.12,-0.12,-0.12
871,-0.55,-0.43,-0.56,-0.44,0.44,0.34,-0.11,-0.12,-0.12
879,-0.49,-0.38,-0.50,-0.39,0.39,0.34,-0.10,-0.11,-0.11
888,-0.43,-0.32,-0.44,-0.33,0.33,0.35,-0.10,-0.11,-0.11
897,-0.37,-0.27,-0.38,-0.28,0.28,0.36,-0.09,-0.10,-0.10
906,-0.32,-0.22,-0.33,-0.23,0.23,0.38,-0.09,-0.10,-0.10
915,-0.29,-0.20,-0.28,-0.19,0.19,0.39,-0.10,-0.09,-0.09
924,-0.24,-0.15,-0.24,-0.15,0.15,0.40,-0.09,-0.08,-0.08
933,-0.19,-0.11,-0.20,-0.12,0.12,0.41,-0.07,-0.08,-0.08
943,-0.16,-0.09,-0.16,-0.10,0.10,0.42,-0.06,-0.07,-0.07
952,-0.13,-0.07,-0.13,-0.07,0.07,0.43,-0.06,-0.06,-0.06
962,-0.10,-0.05,-0.10,-0.06,0.06,0.45,-0.04,-0.04,-0.04
971,-0.07,-0.04,-0.07,-0.04,0.04,0.46,-0.03,-0.03,-0.03
981,-0.06,-0.04,-0.04,-0.03,0.03,0.48,-0.03,-0.02,-0.02
991,-0.01,-0.01,-0.02,-0.02,0.02,0.49,0.01,0.00,0.00
1001,0.00,-0.02,0.01,-0.00,0.00,0.51,0.01,0.02,0.02
1011,0.03,-0.01,0.04,0.00,-0.00,0.52,0.03,0.04,0.04
1021,0.07,0.01,0.07,0.01,-0.01,0.54,0.06,0.06,0.06
1031,0.11,0.03,0.10,0.02,-0.02,0.56,0.09,0.08,0.08
1041,0.12,0.02,0.12,0.02,-0.02,0.57,0.10,0.10,0.10
1052,0.16,0.03,0.15,0.02,-0.02,0.59,0.14,0.13,0.13
1062,0.16,0.01,0.17,0.01,-0.01,0.61,0.15,0.16,0.16
1073,0.20,0.02,0.19,0.00,-0.00,0.63,0.20,0.18,0.18
1084,0.20,-0.01,0.20,-0.01,0.01,0.65,0.21,0.21,0.21
1094,0.22,-0.02,0.22,-0.03,0.03,0.67,0.25,0.24,0.24
1105,0.22,-0.05,0.23,-0.05,0.05,0.70,0.27,0.28,0.28
1116,0.22,-0.09,0.24,-0.07,0.07,0.72,0.29,0.31,0.31
1128,0.25,-0.09,0.24,-0.10,0.10,0.74,0.35,0.34,0.34
1139,0.25,-0.13,0.25,-0.13,0.13,0.77,0.38,0.38,0.38
1150,0.25,-0.17,0.26,-0.16,0.16,0.79,0.41,0.42,0.42
1162,0.25,-0.21,0.26,-0.20,0.20,0.82,0.45,0.46,0.46
1173,0.25,-0.25,0.26,-0.24,0.24,0.84,0.49,0.50,0.50
1185,0.25,-0.29,0.25,-0.29,0.29,0.87,0.54,0.54,0.54
1197,0.25,-0.34,0.24,-0.35,0.35,0.90,0.60,0.59,0.59
1209,0.23,-0.40,0.22,-0.42,0.42,0.93,0.65,0.63,0.63
1221,0.20,-0.48,0.19,-0.49,0.49,0.96,0.69,0.68,0.68
1233,0.16,-0.57,0.16,-0.57,0.57,0.99,0.73,0.73,0.73
1246,0.11,-0.67,0.12,-0.66,0.66,1.03,0.77,0.79,0.78
1258,0.08,-0.76,0.08,-0.76,0.76,1.06,0.84,0.84,0.84
1271,0.02,-0.87,0.02,-0.87,0.87,1.09,0.89,0.89,0.89
1283,-0.04,-0.99,-0.03,-0.99,0.99,1.13,0.95,0.95,0.95
1296,-0.09,-1.10,-0.10,-1.11,1.11,1.16,1.02,1.01,1.01
1309,-0.16,-1.23,-0.17,-1.24,1.24,1.20,1.08,1.07,1.07
1322,-0.24,-1.37,-0.24,-1.38,1.38,1.24,1.14,1.13,1.13
1335,-0.32,-1.51,-0.32,-1.52,1.52,1.28,1.20,1.19,1.19
1349,-0.41,-1.67,-0.40,-1.66,1.66,1.32,1.25,1.26,1.26
1362,-0.49,-1.81,-0.48,-1.81,1.81,1.36,1.32,1.32,1.33
1376,-0.57,-1.96,-0.57,-1.96,1.96,1.40,1.39,1.39,1.39
1390,-0.65,-2.11,-0.65,-2.11,2.11,1.45,1.46,1.46,1.46
1404,-0.73,-2.26,-0.72,-2.25,2.25,1.49,1.52,1.53,1.53
1418,-0.79,-2.39,-0.80,-2.40,2.40,1.54,1.61,1.60,1.60
1432,-0.87,-2.54,-0.87,-2.54,2.54,1.59,1.67,1.67,1.67
1446,-0.93,-2.67,-0.93,-2.67,2.67,1.64,1.75,1.74,1.75
1461,-0.99,-2.81,-0.99,-2.80,2.80,1.69,1.82,1.82,1.82
1475,-1.04,-2.93,-1.03,-2.93,2.93,1.74,1.89,1.89,1.89
1490,-1.09,-3.06,-1.08,-3.05,3.05,1.79,1.96,1.97,1.97
1505,-1.12,-3.17,-1.11,-3.16,3.16,1.84,2.04,2.05,2.05
1520,-1.14,-3.27,-1.14,-3.27,3.27,1.90,2.13,2.13,2.13
1535,-1.14,-3.35,-1.16,-3.37,3.37,1.95,2.23,2.21,2.21
1550,-1.18,-3.48,-1.17,-3.47,3.47,2.01,2.29,2.30,2.30
1566,-1.18,-3.56,-1.18,-3.57,3.57,2.07,2.39,2.38,2.38
1582,-1.18,-3.65,-1.19,-3.66,3.66,2.13,2.48,2.47,2.47
1597,-1.18,-3.74,-1.19,-3.75,3.75,2.18,2.57,2.56,2.56
1613,-1.18,-3.83,-1.18,-3.83,3.83,2.24,2.65,2.65,2.65
1629,-1.16,-3.91,-1.16,-3.91,3.91,2.30,2.75,2.75,2.75
1646,-1.14,-3.99,-1.14,-3.99,3.99,2.37,2.85,2.85,2.85
1662,-1.12,-4.07,-1.10,-4.05,4.05,2.42,2.93,2.95,2.95
1679,-1.06,-4.11,-1.05,-4.10,4.10,2.49,3.04,3.05,3.05
