frequency,raw,error,smoothed,error_smoothed,equalization,parametric_eq,equalized_raw,equalized_smoothed,target
20,11.76,6.59,11.80,6.67,-6.67,-3.56,5.08,5.13,5.16
21,12.03,6.86,12.06,6.93,-6.93,-4.06,5.10,5.13,5.16
22,12.29,7.13,12.31,7.17,-7.17,-4.61,5.12,5.14,5.16
23,12.54,7.38,12.53,7.39,-7.39,-5.19,5.15,5.14,5.16
24,12.75,7.59,12.73,7.58,-7.58,-5.82,5.16,5.14,5.15
25,12.94,7.78,12.90,7.76,-7.76,-6.46,5.18,5.15,5.15
26,13.11,7.96,13.06,7.92,-7.92,-7.11,5.19,5.15,5.15
27,13.25,8.10,13.20,8.05,-8.05,-7.73,5.19,5.14,5.14
28,13.36,8.22,13.31,8.17,-8.17,-8.30,5.19,5.14,5.14
29,13.44,8.30,13.40,8.26,-8.26,-8.77,5.17,5.14,5.14
30,13.51,8.37,13.47,8.34,-8.34,-9.12,5.17,5.13,5.13
31,13.54,8.41,13.50,8.38,-8.38,-9.32,5.16,5.13,5.13
32,13.53,8.41,13.52,8.40,-8.40,-9.38,5.13,5.12,5.12
33,13.51,8.39,13.51,8.40,-8.40,-9.32,5.11,5.11,5.11
34,13.48,8.37,13.48,8.38,-8.38,-9.16,5.10,5.10,5.11
35,13.43,8.33,13.44,8.35,-8.35,-8.95,5.08,5.09,5.10
36,13.38,8.28,13.39,8.31,-8.31,-8.70,5.07,5.08,5.09
37,13.32,8.23,13.33,8.26,-8.26,-8.46,5.06,5.07,5.08
38,13.25,8.17,13.26,8.20,-8.20,-8.22,5.05,5.06,5.07
39,13.18,8.11,13.19,8.14,-8.14,-8.00,5.04,5.05,5.06
40,13.11,8.05,13.11,8.07,-8.07,-7.82,5.03,5.04,5.05
41,13.04,7.99,13.04,8.01,-8.01,-7.66,5.03,5.03,5.04
42,12.96,7.93,12.96,7.94,-7.94,-7.54,5.01,5.02,5.03
43,12.89,7.87,12.89,7.88,-7.88,-7.45,5.01,5.01,5.02
44,12.82,7.81,12.82,7.82,-7.82,-7.39,5.00,5.00,5.00
45,12.75,7.76,12.74,7.76,-7.76,-7.36,4.99,4.98,4.99
46,12.67,7.69,12.67,7.70,-7.70,-7.36,4.96,4.97,4.97
47,12.60,7.64,12.60,7.65,-7.65,-7.38,4.95,4.96,4.96
48,12.54,7.60,12.54,7.60,-7.60,-7.43,4.94,4.94,4.94
49,12.48,7.56,12.47,7.55,-7.55,-7.49,4.92,4.92,4.92
50,12.42,7.51,12.41,7.51,-7.51,-7.57,4.90,4.90,4.90
51,12.36,7.47,12.36,7.47,-7.47,-7.67,4.88,4.88,4.88
52,12.31,7.44,12.30,7.44,-7.44,-7.77,4.86,4.86,4.86
53,12.25,7.41,12.25,7.42,-7.42,-7.88,4.83,4.84,4.84
54,12.21,7.39,12.21,7.39,-7.39,-7.99,4.81,4.81,4.82
55,12.17,7.37,12.17,7.38,-7.38,-8.09,4.79,4.79,4.79
56,12.13,7.36,12.13,7.37,-7.37,-8.19,4.76,4.76,4.77
57,12.10,7.35,12.10,7.37,-7.37,-8.28,4.73,4.74,4.74
58,12.07,7.35,12.08,7.37,-7.37,-8.36,4.70,4.71,4.72
59,12.05,7.36,12.06,7.38,-7.38,-8.42,4.67,4.68,4.69
60,12.03,7.36,12.05,7.39,-7.39,-8.46,4.64,4.66,4.66
61,12.02,7.38,12.03,7.40,-7.40,-8.47,4.61,4.63,4.63
62,12.02,7.41,12.02,7.42,-7.42,-8.47,4.60,4.60,4.60
63,12.02,7.44,12.00,7.44,-7.44,-8.45,4.58,4.57,4.57
64,12.02,7.47,11.99,7.45,-7.45,-8.40,4.56,4.54,4.54
65,12.01,7.50,11.97,7.47,-7.47,-8.34,4.54,4.50,4.51
66,11.99,7.51,11.96,7.49,-7.49,-8.25,4.50,4.47,4.48
67,11.96,7.51,11.94,7.50,-7.50,-8.16,4.45,4.44,4.44
68,11.93,7.52,11.92,7.52,-7.52,-8.05,4.41,4.40,4.41
69,11.89,7.51,11.90,7.53,-7.53,-7.93,4.35,4.37,4.37
70,11.86,7.52,11.88,7.54,-7.54,-7.81,4.31,4.33,4.34
71,11.83,7.53,11.85,7.56,-7.56,-7.68,4.27,4.29,4.30
72,11.81,7.54,11.82,7.57,-7.57,-7.56,4.24,4.26,4.26
73,11.79,7.56,11.80,7.58,-7.58,-7.43,4.21,4.22,4.23
74,11.78,7.59,11.77,7.59,-7.59,-7.30,4.19,4.18,4.19
75,11.76,7.61,11.74,7.60,-7.60,-7.18,4.16,4.14,4.15
76,11.73,7.62,11.71,7.61,-7.61,-7.06,4.12,4.10,4.11
77,11.68,7.61,11.68,7.61,-7.61,-6.94,4.06,4.07,4.07
78,11.65,7.62,11.65,7.62,-7.62,-6.83,4.02,4.03,4.03
79,11.61,7.62,11.62,7.63,-7.63,-6.73,3.98,3.99,3.99
80,11.58,7.63,11.58,7.63,-7.63,-6.64,3.95,3.95,3.95
81,11.55,7.64,11.54,7.63,-7.63,-6.55,3.92,3.91,3.91
82,11.50,7.63,11.49,7.62,-7.62,-6.47,3.87,3.87,3.87
83,11.45,7.62,11.44,7.61,-7.61,-6.39,3.83,3.82,3.82
84,11.40,7.61,11.39,7.60,-7.60,-6.32,3.79,3.78,3.78
85,11.34,7.59,11.33,7.59,-7.59,-6.26,3.75,3.74,3.74
86,11.27,7.57,11.27,7.57,-7.57,-6.21,3.69,3.70,3.70
87,11.21,7.55,11.21,7.55,-7.55,-6.16,3.65,3.66,3.66
88,11.14,7.52,11.15,7.53,-7.53,-6.12,3.60,3.61,3.62
89,11.09,7.51,11.08,7.51,-7.51,-6.09,3.58,3.57,3.58
90,11.02,7.48,11.01,7.48,-7.48,-6.06,3.53,3.53,3.53
91,10.94,7.44,10.94,7.46,-7.46,-6.04,3.48,3.49,3.49
92,10.87,7.41,10.87,7.43,-7.43,-6.03,3.44,3.45,3.45
93,10.80,7.39,10.80,7.39,-7.39,-6.02,3.40,3.41,3.41
94,10.73,7.36,10.73,7.36,-7.36,-6.01,3.37,3.37,3.37
95,10.64,7.31,10.65,7.32,-7.32,-6.01,3.32,3.33,3.33
96,10.57,7.28,10.57,7.28,-7.28,-6.01,3.29,3.29,3.29
97,10.50,7.25,10.48,7.23,-7.23,-6.02,3.26,3.25,3.25
98,10.41,7.20,10.39,7.18,-7.18,-6.03,3.22,3.20,3.21
99,10.32,7.14,10.29,7.13,-7.13,-6.05,3.18,3.16,3.17
100,10.23,7.09,10.19,7.08,-7.08,-6.07,3.15,3.11,3.13
101,10.13,7.03,10.09,7.02,-7.02,-6.09,3.10,3.07,3.09
102,10.03,6.97,9.99,6.96,-6.96,-6.11,3.06,3.03,3.06
104,9.83,6.84,9.89,6.91,-6.91,-6.16,2.92,2.99,2.98
105,9.74,6.79,9.79,6.85,-6.85,-6.19,2.89,2.94,2.95
106,9.65,6.74,9.70,6.79,-6.79,-6.22,2.86,2.91,2.91
107,9.57,6.69,9.60,6.72,-6.72,-6.24,2.84,2.87,2.87
108,9.49,6.65,9.50,6.66,-6.66,-6.27,2.83,2.84,2.84
109,9.41,6.60,9.39,6.59,-6.59,-6.30,2.81,2.80,2.81
110,9.31,6.53,9.29,6.53,-6.53,-6.32,2.78,2.76,2.77
111,9.22,6.48,9.18,6.46,-6.46,-6.35,2.76,2.72,2.74
112,9.11,6.40,9.08,6.39,-6.39,-6.37,2.72,2.69,2.71
113,9.01,6.33,8.97,6.31,-6.31,-6.39,2.69,2.66,2.67
114,8.90,6.25,8.86,6.24,-6.24,-6.41,2.66,2.62,2.64
115,8.80,6.19,8.75,6.16,-6.16,-6.42,2.64,2.59,2.61
117,8.58,6.03,8.63,6.08,-6.08,-6.44,2.50,2.56,2.55
118,8.46,5.94,8.52,5.99,-5.99,-6.44,2.46,2.52,2.52
119,8.36,5.86,8.39,5.91,-5.91,-6.44,2.45,2.48,2.49
120,8.26,5.79,8.27,5.82,-5.82,-6.43,2.44,2.45,2.46
121,8.17,5.73,8.15,5.73,-5.73,-6.42,2.44,2.42,2.44
123,8.00,5.61,8.02,5.64,-5.64,-6.39,2.36,2.38,2.38
124,7.92,5.56,7.89,5.55,-5.55,-6.37,2.37,2.35,2.36
125,7.82,5.49,7.77,5.45,-5.45,-6.34,2.36,2.31,2.33
126,7.72,5.41,7.65,5.36,-5.36,-6.31,2.36,2.29,2.30
128,7.51,5.25,7.53,5.27,-5.27,-6.23,2.24,2.26,2.26
129,7.39,5.15,7.41,5.17,-5.17,-6.18,2.22,2.24,2.23
130,7.27,5.06,7.28,5.08,-5.08,-6.13,2.19,2.21,2.21
131,7.17,4.98,7.16,4.98,-4.98,-6.08,2.18,2.18,2.19
133,6.98,4.83,7.03,4.89,-4.89,-5.96,2.09,2.15,2.14
134,6.91,4.78,6.91,4.80,-4.80,-5.90,2.11,2.11,2.12
135,6.84,4.73,6.79,4.71,-4.71,-5.84,2.13,2.09,2.10
137,6.68,4.61,6.67,4.62,-4.62,-5.70,2.06,2.05,2.06
138,6.60,4.55,6.57,4.54,-4.54,-5.63,2.06,2.03,2.04
140,6.44,4.43,6.47,4.46,-4.46,-5.48,1.97,2.00,2.01
141,6.36,4.37,6.37,4.39,-4.39,-5.40,1.96,1.98,1.99
142,6.28,4.31,6.28,4.32,-4.32,-5.33,1.95,1.96,1.97
144,6.16,4.22,6.19,4.26,-4.26,-5.17,1.90,1.94,1.94
145,6.10,4.18,6.11,4.19,-4.19,-5.09,1.90,1.91,1.92
147,6.00,4.11,6.02,4.13,-4.13,-4.94,1.86,1.89,1.89
148,5.97,4.09,5.93,4.07,-4.07,-4.86,1.89,1.86,1.87
150,5.88,4.03,5.85,4.02,-4.02,-4.70,1.86,1.84,1.84
151,5.83,4.00,5.78,3.96,-3.96,-4.62,1.87,1.82,1.83
153,5.73,3.92,5.70,3.91,-3.91,-4.47,1.82,1.80,1.80
154,5.66,3.87,5.63,3.85,-3.85,-4.39,1.80,1.78,1.79
156,5.54,3.77,5.56,3.81,-3.81,-4.25,1.73,1.76,1.76
157,5.49,3.73,5.50,3.76,-3.76,-4.17,1.73,1.74,1.75
159,5.39,3.66,5.44,3.71,-3.71,-4.03,1.67,1.72,1.73
160,5.35,3.63,5.37,3.67,-3.67,-3.96,1.67,1.70,1.72
162,5.30,3.60,5.32,3.63,-3.63,-3.82,1.66,1.69,1.69
164,5.26,3.58,5.26,3.59,-3.59,-3.69,1.66,1.67,1.67
165,5.23,3.56,5.21,3.56,-3.56,-3.63,1.67,1.65,1.66
167,5.19,3.54,5.16,3.53,-3.53,-3.50,1.66,1.63,1.64
169,5.14,3.51,5.11,3.50,-3.50,-3.38,1.64,1.62,1.62
170,5.11,3.49,5.07,3.47,-3.47,-3.32,1.64,1.60,1.62
172,5.05,3.45,5.03,3.44,-3.44,-3.21,1.60,1.59,1.60
174,4.99,3.40,4.99,3.42,-3.42,-3.10,1.57,1.57,1.58
175,4.97,3.39,4.96,3.40,-3.40,-3.04,1.57,1.56,1.57
177,4.91,3.35,4.93,3.38,-3.38,-2.94,1.52,1.54,1.56
179,4.86,3.31,4.90,3.37,-3.37,-2.84,1.49,1.53,1.54
181,4.83,3.30,4.87,3.36,-3.36,-2.74,1.47,1.52,1.53
183,4.81,3.29,4.85,3.34,-3.34,-2.65,1.46,1.50,1.52
184,4.81,3.30,4.82,3.33,-3.33,-2.61,1.48,1.49,1.51
186,4.81,3.31,4.80,3.32,-3.32,-2.52,1.49,1.48,1.50
188,4.81,3.32,4.77,3.30,-3.30,-2.44,1.50,1.47,1.48
190,4.80,3.32,4.75,3.28,-3.28,-2.36,1.51,1.46,1.47
192,4.76,3.29,4.72,3.26,-3.26,-2.28,1.49,1.45,1.46
194,4.72,3.26,4.68,3.24,-3.24,-2.20,1.48,1.44,1.45
196,4.66,3.22,4.64,3.20,-3.20,-2.13,1.45,1.44,1.44
198,4.60,3.16,4.60,3.17,-3.17,-2.06,1.43,1.43,1.43
200,4.53,3.10,4.55,3.13,-3.13,-1.99,1.40,1.42,1.42
202,4.47,3.05,4.49,3.08,-3.08,-1.93,1.39,1.41,1.41
204,4.41,3.00,4.43,3.03,-3.03,-1.87,1.38,1.40,1.40
206,4.35,2.95,4.36,2.97,-2.97,-1.81,1.38,1.39,1.40
208,4.28,2.89,4.29,2.91,-2.91,-1.75,1.37,1.38,1.39
210,4.22,2.83,4.22,2.84,-2.84,-1.69,1.37,1.38,1.38
212,4.15,2.77,4.14,2.77,-2.77,-1.64,1.37,1.37,1.37
214,4.08,2.71,4.06,2.70,-2.70,-1.58,1.37,1.36,1.37
216,4.01,2.65,3.98,2.63,-2.63,-1.53,1.38,1.36,1.36
218,3.94,2.58,3.90,2.55,-2.55,-1.48,1.39,1.35,1.35
221,3.82,2.47,3.81,2.47,-2.47,-1.40,1.35,1.34,1.35
223,3.72,2.38,3.72,2.38,-2.38,-1.36,1.33,1.34,1.34
225,3.62,2.28,3.63,2.30,-2.30,-1.31,1.32,1.33,1.33
227,3.53,2.20,3.53,2.21,-2.21,-1.26,1.32,1.32,1.33
229,3.44,2.11,3.44,2.12,-2.12,-1.22,1.32,1.32,1.32
232,3.31,1.99,3.34,2.03,-2.03,-1.15,1.28,1.31,1.32
234,3.23,1.91,3.25,1.94,-1.94,-1.11,1.29,1.31,1.31
236,3.15,1.84,3.15,1.85,-1.85,-1.07,1.30,1.30,1.31
239,3.05,1.74,3.05,1.76,-1.76,-1.01,1.29,1.30,1.30
241,2.97,1.67,2.96,1.67,-1.67,-0.96,1.30,1.29,1.30
244,2.86,1.56,2.87,1.58,-1.58,-0.90,1.28,1.29,1.29
246,2.78,1.49,2.77,1.48,-1.48,-0.86,1.29,1.29,1.29
248,2.70,1.41,2.67,1.39,-1.39,-0.83,1.31,1.28,1.29
251,2.58,1.30,2.57,1.29,-1.29,-0.77,1.28,1.28,1.28
253,2.49,1.21,2.47,1.19,-1.19,-0.73,1.29,1.28,1.28
256,2.37,1.09,2.37,1.09,-1.09,-0.67,1.27,1.27,1.27
259,2.24,0.97,2.26,0.99,-0.99,-0.61,1.25,1.27,1.27
261,2.15,0.88,2.14,0.88,-0.88,-0.58,1.27,1.26,1.27
264,2.02,0.75,2.03,0.77,-0.77,-0.52,1.25,1.26,1.26
266,1.93,0.67,1.91,0.65,-0.65,-0.48,1.27,1.26,1.26
269,1.79,0.53,1.79,0.53,-0.53,-0.43,1.25,1.25,1.26
272,1.65,0.39,1.66,0.41,-0.41,-0.37,1.23,1.25,1.25
274,1.56,0.31,1.54,0.29,-0.29,-0.34,1.27,1.25,1.25
277,1.42,0.17,1.41,0.16,-0.16,-0.28,1.25,1.25,1.25
280,1.28,0.03,1.27,0.03,-0.03,-0.23,1.24,1.24,1.24
283,1.13,-0.11,1.14,-0.10,0.10,-0.18,1.23,1.24,1.24
286,0.99,-0.25,1.01,-0.23,0.23,-0.12,1.22,1.24,1.24
288,0.89,-0.35,0.87,-0.37,0.37,-0.09,1.26,1.24,1.24
291,0.74,-0.50,0.73,-0.51,0.51,-0.03,1.25,1.23,1.23
294,0.59,-0.65,0.58,-0.65,0.65,0.02,1.24,1.23,1.23
297,0.45,-0.78,0.44,-0.79,0.79,0.07,1.24,1.23,1.23
300,0.30,-0.93,0.29,-0.93,0.93,0.13,1.23,1.23,1.23
303,0.15,-1.08,0.15,-1.08,1.08,0.18,1.22,1.22,1.22
306,0.01,-1.22,0.00,-1.22,1.22,0.24,1.22,1.22,1.22
309,-0.13,-1.35,-0.14,-1.36,1.36,0.29,1.23,1.22,1.22
312,-0.27,-1.49,-0.28,-1.50,1.50,0.34,1.22,1.22,1.22
316,-0.44,-1.66,-0.42,-1.63,1.63,0.41,1.19,1.21,1.22
319,-0.57,-1.79,-0.56,-1.77,1.77,0.47,1.19,1.21,1.22
322,-0.69,-1.91,-0.69,-1.90,1.90,0.52,1.20,1.21,1.21
325,-0.81,-2.03,-0.81,-2.02,2.02,0.58,1.21,1.21,1.21
328,-0.92,-2.13,-0.93,-2.14,2.14,0.63,1.22,1.21,1.21
332,-1.05,-2.26,-1.05,-2.25,2.25,0.70,1.20,1.21,1.21
335,-1.15,-2.36,-1.16,-2.36,2.36,0.76,1.21,1.21,1.21
338,-1.25,-2.46,-1.26,-2.46,2.46,0.81,1.21,1.20,1.21
342,-1.36,-2.57,-1.36,-2.56,2.56,0.89,1.20,1.20,1.21
345,-1.44,-2.65,-1.45,-2.65,2.65,0.94,1.21,1.20,1.20
349,-1.54,-2.75,-1.53,-2.73,2.73,1.02,1.19,1.20,1.20
352,-1.60,-2.81,-1.61,-2.81,2.81,1.07,1.21,1.20,1.20
356,-1.68,-2.88,-1.68,-2.88,2.88,1.15,1.20,1.20,1.20
359,-1.74,-2.94,-1.75,-2.94,2.94,1.20,1.20,1.20,1.20
363,-1.81,-3.01,-1.81,-3.00,3.00,1.28,1.19,1.19,1.20
366,-1.85,-3.05,-1.86,-3.05,3.05,1.34,1.20,1.19,1.20
370,-1.91,-3.11,-1.90,-3.10,3.10,1.41,1.18,1.19,1.20
374,-1.95,-3.15,-1.94,-3.13,3.13,1.49,1.18,1.19,1.20
377,-1.97,-3.17,-1.98,-3.17,3.17,1.55,1.19,1.19,1.19
381,-2.00,-3.20,-2.00,-3.20,3.20,1.62,1.19,1.19,1.19
385,-2.02,-3.22,-2.03,-3.22,3.22,1.70,1.20,1.19,1.19
389,-2.04,-3.24,-2.05,-3.24,3.24,1.78,1.19,1.19,1.19
393,-2.06,-3.26,-2.06,-3.25,3.25,1.85,1.19,1.19,1.19
397,-2.07,-3.26,-2.08,-3.27,3.27,1.93,1.19,1.19,1.19
401,-2.08,-3.27,-2.09,-3.28,3.28,2.00,1.19,1.19,1.19
405,-2.09,-3.28,-2.09,-3.29,3.29,2.08,1.19,1.19,1.19
409,-2.09,-3.28,-2.10,-3.29,3.29,2.15,1.20,1.19,1.19
413,-2.10,-3.29,-2.11,-3.30,3.30,2.23,1.19,1.19,1.19
417,-2.10,-3.29,-2.11,-3.30,3.30,2.30,1.19,1.19,1.19
421,-2.10,-3.29,-2.12,-3.30,3.30,2.37,1.19,1.18,1.19
425,-2.10,-3.29,-2.12,-3.30,3.30,2.44,1.19,1.18,1.18
430,-2.10,-3.29,-2.12,-3.29,3.29,2.53,1.19,1.17,1.18
434,-2.10,-3.29,-2.11,-3.28,3.28,2.59,1.18,1.17,1.18
438,-2.10,-3.29,-2.10,-3.27,3.27,2.66,1.16,1.17,1.18
443,-2.09,-3.28,-2.08,-3.25,3.25,2.74,1.16,1.17,1.18
447,-2.09,-3.28,-2.05,-3.23,3.23,2.80,1.14,1.18,1.19
451,-2.07,-3.26,-2.03,-3.21,3.21,2.85,1.14,1.18,1.19
456,-2.02,-3.22,-2.00,-3.19,3.19,2.92,1.16,1.19,1.19
460,-1.98,-3.18,-1.96,-3.16,3.16,2.97,1.18,1.20,1.20
465,-1.91,-3.12,-1.93,-3.13,3.13,3.03,1.22,1.20,1.21
470,-1.85,-3.07,-1.89,-3.10,3.10,3.08,1.25,1.21,1.22
474,-1.81,-3.04,-1.86,-3.08,3.08,3.12,1.26,1.22,1.23
479,-1.77,-3.01,-1.82,-3.05,3.05,3.17,1.28,1.23,1.24
484,-1.75,-3.01,-1.78,-3.03,3.03,3.21,1.27,1.25,1.25
489,-1.74,-3.01,-1.74,-3.00,3.00,3.24,1.26,1.26,1.26
494,-1.71,-2.99,-1.70,-2.98,2.98,3.27,1.26,1.28,1.28
499,-1.68,-2.98,-1.66,-2.95,2.95,3.30,1.27,1.29,1.29
504,-1.65,-2.96,-1.63,-2.93,2.93,3.32,1.28,1.30,1.31
509,-1.61,-2.94,-1.59,-2.91,2.91,3.33,1.29,1.32,1.33
514,-1.55,-2.90,-1.55,-2.88,2.88,3.34,1.33,1.33,1.34
519,-1.50,-2.86,-1.51,-2.86,2.86,3.35,1.36,1.35,1.36
524,-1.45,-2.83,-1.46,-2.83,2.83,3.35,1.38,1.37,1.38
529,-1.40,-2.80,-1.41,-2.81,2.81,3.35,1.40,1.39,1.40
535,-1.34,-2.76,-1.36,-2.78,2.78,3.34,1.43,1.41,1.42
540,-1.30,-2.74,-1.31,-2.75,2.75,3.34,1.44,1.44,1.44
545,-1.25,-2.72,-1.25,-2.72,2.72,3.32,1.46,1.46,1.46
551,-1.20,-2.69,-1.19,-2.68,2.68,3.31,1.48,1.49,1.49
556,-1.14,-2.66,-1.14,-2.65,2.65,3.29,1.51,1.51,1.51
562,-1.08,-2.62,-1.08,-2.62,2.62,3.27,1.53,1.54,1.54
568,-1.01,-2.58,-1.02,-2.58,2.58,3.25,1.57,1.57,1.57
573,-0.95,-2.55,-0.95,-2.55,2.55,3.23,1.59,1.59,1.60
579,-0.89,-2.52,-0.89,-2.51,2.51,3.20,1.62,1.62,1.63
585,-0.81,-2.47,-0.82,-2.48,2.48,3.18,1.66,1.65,1.66
591,-0.75,-2.44,-0.76,-2.44,2.44,3.15,1.68,1.68,1.69
596,-0.69,-2.41,-0.69,-2.40,2.40,3.13,1.71,1.71,1.72
602,-0.62,-2.37,-0.62,-2.36,2.36,3.10,1.74,1.75,1.75
608,-0.54,-2.32,-0.55,-2.32,2.32,3.08,1.78,1.78,1.78
615,-0.46,-2.27,-0.48,-2.28,2.28,3.05,1.82,1.81,1.81
621,-0.40,-2.25,-0.40,-2.24,2.24,3.03,1.84,1.84,1.84
627,-0.33,-2.21,-0.33,-2.20,2.20,3.01,1.87,1.87,1.87
633,-0.26,-2.17,-0.26,-2.16,2.16,2.99,1.90,1.90,1.91
639,-0.19,-2.13,-0.19,-2.13,2.13,2.97,1.93,1.94,1.94
646,-0.11,-2.09,-0.12,-2.09,2.09,2.95,1.98,1.97,1.97
652,-0.04,-2.05,-0.05,-2.05,2.05,2.93,2.01,2.01,2.00
659,0.03,-2.01,0.02,-2.02,2.02,2.92,2.04,2.04,2.04
665,0.09,-1.99,0.09,-1.99,1.99,2.91,2.07,2.08,2.07
672,0.16,-1.95,0.16,-1.95,1.95,2.90,2.11,2.11,2.11
679,0.24,-1.91,0.22,-1.92,1.92,2.89,2.16,2.14,2.15
686,0.30,-1.89,0.28,-1.89,1.89,2.88,2.19,2.18,2.18
692,0.36,-1.87,0.35,-1.87,1.87,2.88,2.22,2.22,2.22
699,0.41,-1.85,0.41,-1.84,1.84,2.88,2.25,2.25,2.26
706,0.47,-1.83,0.48,-1.82,1.82,2.88,2.28,2.29,2.30
713,0.52,-1.82,0.54,-1.79,1.79,2.88,2.31,2.33,2.34
721,0.58,-1.80,0.60,-1.77,1.77,2.89,2.35,2.37,2.38
728,0.64,-1.78,0.66,-1.75,1.75,2.90,2.39,2.41,2.42
735,0.70,-1.76,0.71,-1.74,1.74,2.91,2.43,2.45,2.45
742,0.77,-1.73,0.76,-1.73,1.73,2.92,2.50,2.49,2.49
750,0.83,-1.71,0.81,-1.73,1.73,2.94,2.55,2.53,2.53
757,0.87,-1.71,0.84,-1.73,1.73,2.96,2.60,2.57,2.57
765,0.90,-1.71,0.87,-1.74,1.74,2.98,2.63,2.61,2.61
773,0.93,-1.72,0.89,-1.76,1.76,3.00,2.68,2.65,2.65
780,0.93,-1.76,0.91,-1.78,1.78,3.02,2.71,2.69,2.68
788,0.93,-1.79,0.91,-1.81,1.81,3.04,2.74,2.72,2.72
796,0.92,-1.84,0.90,-1.85,1.85,3.07,2.77,2.75,2.75
804,0.89,-1.90,0.89,-1.90,1.90,3.10,2.78,2.79,2.79
812,0.87,-1.96,0.87,-1.95,1.95,3.13,2.81,2.82,2.82
820,0.84,-2.02,0.85,-2.00,2.00,3.15,2.84,2.85,2.85
828,0.80,-2.09,0.82,-2.06,2.06,3.18,2.85,2.88,2.89
837,0.77,-2.15,0.79,-2.12,2.12,3.21,2.89,2.91,2.92
845,0.74,-2.21,0.76,-2.18,2.18,3.24,2.92,2.94,2.95
853,0.72,-2.26,0.73,-2.25,2.25,3.27,2.97,2.98,2.98
862,0.70,-2.31,0.69,-2.32,2.32,3.30,3.01,3.01,3.01
871,0.67,-2.37,0.65,-2.39,2.39,3.33,3.05,3.04,3.04
879,0.64,-2.43,0.61,-2.46,2.46,3.35,3.10,3.07,3.07
888,0.59,-2.51,0.56,-2.53,2.53,3.37,3.12,3.09,3.10
897,0.53,-2.60,0.51,-2.61,2.61,3.39,3.13,3.12,3.12
906,0.48,-2.68,0.47,-2.68,2.68,3.41,3.16,3.15,3.15
915,0.42,-2.76,0.42,-2.76,2.76,3.42,3.17,3.17,3.18
924,0.36,-2.85,0.37,-2.83,2.83,3.43,3.19,3.20,3.21
933,0.30,-2.94,0.32,-2.91,2.91,3.44,3.21,3.23,3.23
943,0.24,-3.02,0.27,-2.99,2.99,3.44,3.22,3.25,3.26
952,0.20,-3.09,0.22,-3.07,3.07,3.43,3.26,3.29,3.28
962,0.14,-3.17,0.17,-3.15,3.15,3.42,3.29,3.32,3.31
971,0.11,-3.23,0.11,-3.23,3.23,3.41,3.34,3.35,3.34
981,0.08,-3.29,0.05,-3.32,3.32,3.39,3.39,3.37,3.36
991,0.04,-3.35,-0.01,-3.40,3.40,3.36,3.44,3.39,3.39
1001,-0.00,-3.42,-0.07,-3.48,3.48,3.33,3.48,3.41,3.42
1011,-0.05,-3.50,-0.12,-3.56,3.56,3.29,3.51,3.44,3.44
1021,-0.12,-3.59,-0.18,-3.64,3.64,3.24,3.51,3.46,3.47
1031,-0.19,-3.69,-0.22,-3.71,3.71,3.19,3.51,3.48,3.50
1041,-0.27,-3.80,-0.26,-3.77,3.77,3.13,3.49,3.51,3.52
1052,-0.34,-3.90,-0.29,-3.82,3.82,3.07,3.47,3.53,3.55
1062,-0.38,-3.97,-0.30,-3.86,3.86,3.00,3.47,3.56,3.58
1073,-0.37,-3.98,-0.30,-3.88,3.88,2.92,3.50,3.58,3.61
1084,-0.32,-3.96,-0.28,-3.88,3.88,2.84,3.56,3.60,3.64
1094,-0.26,-3.93,-0.24,-3.87,3.87,2.76,3.60,3.63,3.67
1105,-0.17,-3.87,-0.18,-3.83,3.83,2.67,3.66,3.65,3.70
1116,-0.07,-3.80,-0.09,-3.78,3.78,2.58,3.70,3.69,3.73
1128,0.05,-3.72,0.02,-3.70,3.70,2.47,3.75,3.72,3.76
1139,0.16,-3.64,0.15,-3.62,3.62,2.37,3.77,3.76,3.79
1150,0.28,-3.55,0.29,-3.51,3.51,2.27,3.79,3.81,3.83
1162,0.43,-3.43,0.45,-3.39,3.39,2.16,3.82,3.85,3.86
1173,0.59,-3.30,0.62,-3.26,3.26,2.06,3.85,3.89,3.89
1185,0.78,-3.15,0.79,-3.13,3.13,1.94,3.90,3.92,3.92
1197,0.98,-2.98,0.97,-2.98,2.98,1.83,3.96,3.95,3.95
1209,1.18,-2.81,1.15,-2.84,2.84,1.71,4.01,3.99,3.99
1221,1.37,-2.65,1.33,-2.69,2.69,1.60,4.06,4.02,4.02
1233,1.55,-2.50,1.51,-2.54,2.54,1.48,4.09,4.05,4.05
1246,1.74,-2.35,1.69,-2.40,2.40,1.35,4.13,4.09,4.08
1258,1.89,-2.23,1.87,-2.25,2.25,1.24,4.14,4.12,4.11
1271,2.07,-2.08,2.05,-2.11,2.11,1.11,4.18,4.16,4.15
1283,2.23,-1.96,2.22,-1.97,1.97,1.00,4.20,4.19,4.18
1296,2.39,-1.83,2.39,-1.83,1.83,0.87,4.22,4.22,4.22
1309,2.56,-1.70,2.57,-1.69,1.69,0.75,4.24,4.25,4.25
1322,2.73,-1.56,2.74,-1.54,1.54,0.63,4.27,4.28,4.29
1335,2.90,-1.43,2.92,-1.40,1.40,0.51,4.30,4.32,4.33
1349,3.10,-1.27,3.10,-1.25,1.25,0.38,4.35,4.35,4.36
1362,3.27,-1.14,3.29,-1.10,1.10,0.26,4.37,4.39,4.40
1376,3.46,-0.98,3.48,-0.95,0.95,0.13,4.41,4.43,4.44
1390,3.67,-0.81,3.68,-0.80,0.80,0.00,4.46,4.47,4.48
1404,3.87,-0.65,3.87,-0.64,0.64,-0.13,4.51,4.52,4.52
1418,4.08,-0.48,4.07,-0.49,0.49,-0.25,4.56,4.56,4.55
1432,4.29,-0.31,4.27,-0.33,0.33,-0.37,4.62,4.60,4.59
1446,4.49,-0.15,4.46,-0.18,0.18,-0.50,4.66,4.64,4.63
1461,4.69,0.01,4.66,-0.02,0.02,-0.63,4.71,4.68,4.67
1475,4.88,0.17,4.85,0.13,-0.13,-0.75,4.75,4.72,4.71
1490,5.06,0.31,5.03,0.28,-0.28,-0.88,4.78,4.75,4.75
1505,5.24,0.45,5.22,0.43,-0.43,-1.00,4.81,4.79,4.79
1520,5.41,0.58,5.40,0.58,-0.58,-1.13,4.83,4.82,4.83
1535,5.58,0.70,5.58,0.73,-0.73,-1.26,4.85,4.86,4.87
1550,5.75,0.83,5.76,0.87,-0.87,-1.38,4.87,4.89,4.92
1566,5.94,0.98,5.95,1.03,-1.03,-1.51,4.91,4.92,4.96
1582,6.13,1.12,6.14,1.18,-1.18,-1.64,4.95,4.96,5.00
1597,6.32,1.27,6.34,1.34,-1.34,-1.76,4.98,5.00,5.05
1613,6.52,1.42,6.54,1.50,-1.50,-1.88,5.02,5.05,5.09
1629,6.72,1.58,6.75,1.66,-1.66,-2.00,5.06,5.09,5.14
1646,6.95,1.76,6.96,1.82,-1.82,-2.13,5.12,5.14,5.19
1662,7.17,1.93,7.18,1.99,-1.99,-2.25,5.18,5.19,5.23
1679,7.40,2.12,7.40,2.15,-2.15,-2.37,5.24,5.25,5.28
1696,7.63,2.30,7.61,2.31,-2.31,-2.49,5.31,5.30,5.32
1713,7.86,2.48,7.83,2.47,-2.47,-2.60,5.38,5.35,5.37
1730,8.07,2.65,8.04,2.63,-2.63,-2.71,5.44,5.41,5.42
1747,8.27,2.80,8.24,2.78,-2.78,-2.82,5.49,5.46,5.47
1764,8.46,2.94,8.44,2.92,-2.92,-2.92,5.54,5.52,5.52
1782,8.65,3.08,8.63,3.06,-3.06,-3.02,5.59,5.57,5.57
1800,8.83,3.21,8.81,3.18,-3.18,-3.11,5.64,5.63,5.62
1818,8.99,3.31,8.99,3.30,-3.30,-3.20,5.68,5.68,5.67
1836,9.15,3.42,9.16,3.42,-3.42,-3.28,5.73,5.74,5.73
1854,9.30,3.51,9.32,3.53,-3.53,-3.35,5.77,5.79,5.79
1873,9.48,3.62,9.48,3.63,-3.63,-3.42,5.85,5.85,5.85
1892,9.64,3.72,9.64,3.73,-3.73,-3.48,5.91,5.91,5.92
1911,9.80,3.81,9.80,3.82,-3.82,-3.53,5.97,5.97,5.99
1930,9.95,3.89,9.95,3.91,-3.91,-3.57,6.04,6.04,6.06
1949,10.10,3.96,10.11,3.99,-3.99,-3.60,6.10,6.12,6.14
1969,10.24,4.02,10.27,4.07,-4.07,-3.62,6.17,6.20,6.22
1988,10.39,4.09,10.43,4.14,-4.14,-3.63,6.25,6.29,6.30
2008,10.55,4.16,10.58,4.20,-4.20,-3.63,6.35,6.38,6.38
2028,10.71,4.23,10.72,4.25,-4.25,-3.62,6.46,6.47,6.47
