frequency,raw
20.00,-13.67
20.20,-13.55
20.40,-13.42
20.61,-13.30
20.81,-13.17
21.02,-13.05
21.23,-12.93
21.44,-12.82
21.66,-12.70
21.87,-12.59
22.09,-12.45
22.31,-12.29
22.54,-12.13
22.76,-11.97
22.99,-11.81
23.22,-11.76
23.45,-11.72
23.69,-11.68
23.92,-11.63
24.16,-11.51
24.40,-11.35
24.65,-11.20
24.89,-11.04
25.14,-10.92
25.39,-10.83
25.65,-10.75
25.91,-10.66
26.16,-10.56
26.43,-10.44
26.69,-10.33
26.96,-10.22
27.23,-10.11
27.50,-10.00
27.77,-9.89
28.05,-9.77
28.33,-9.61
28.62,-9.45
28.90,-9.29
29.19,-9.12
29.48,-8.94
29.78,-8.77
30.08,-8.63
30.38,-8.59
30.68,-8.54
30.99,-8.50
31.30,-8.32
31.61,-8.13
31.93,-7.93
32.24,-7.80
32.57,-7.69
32.89,-7.58
33.22,-7.48
33.55,-7.40
33.89,-7.32
34.23,-7.20
34.57,-7.07
34.92,-6.93
35.27,-6.82
35.62,-6.72
35.97,-6.62
36.33,-6.52
36.70,-6.43
37.06,-6.33
37.43,-6.24
37.81,-6.15
38.19,-6.02
38.57,-5.87
38.95,-5.72
39.34,-5.61
39.74,-5.51
40.14,-5.38
40.54,-5.21
40.94,-5.04
41.35,-4.96
41.76,-4.88
42.18,-4.79
42.60,-4.67
43.03,-4.55
43.46,-4.45
43.90,-4.35
44.33,-4.25
44.78,-4.15
45.23,-4.05
45.68,-3.94
46.13,-3.84
46.60,-3.73
47.06,-3.63
47.53,-3.52
48.01,-3.42
48.49,-3.36
48.97,-3.29
49.46,-3.14
49.96,-2.97
50.46,-2.94
50.96,-2.92
51.47,-2.78
51.99,-2.63
52.51,-2.57
53.03,-2.50
53.56,-2.38
54.10,-2.26
54.64,-2.13
55.18,-2.05
55.74,-2.05
56.29,-1.91
56.86,-1.66
57.42,-1.59
58.00,-1.59
58.58,-1.46
59.16,-1.37
59.76,-1.37
60.35,-1.37
60.96,-1.37
61.57,-1.24
62.18,-1.14
62.80,-1.14
63.43,-1.14
64.07,-1.14
64.71,-1.14
65.35,-1.14
66.01,-1.14
66.67,-0.99
67.33,-0.83
68.01,-0.68
68.69,-0.67
69.37,-0.58
70.07,-0.43
70.77,-0.28
71.48,-0.23
72.19,-0.18
72.91,-0.02
73.64,0.00
74.38,0.06
75.12,0.18
75.87,0.22
76.63,0.23
77.40,0.25
78.17,0.32
78.95,0.45
79.74,0.46
80.54,0.46
81.35,0.46
82.16,0.51
82.98,0.69
83.81,0.69
84.65,0.69
85.50,0.75
86.35,0.85
87.22,0.91
88.09,0.91
88.97,0.91
89.86,0.91
90.76,0.91
91.66,0.91
92.58,0.91
93.51,0.91
94.44,0.92
95.39,1.01
96.34,1.14
97.30,1.14
98.28,1.14
99.26,1.14
100.25,1.14
101.25,1.14
102.27,1.14
103.29,1.14
104.32,1.14
105.37,1.14
106.42,1.14
107.48,1.14
108.56,1.14
109.64,1.14
110.74,1.14
111.85,1.14
112.97,1.14
114.10,1.14
115.24,1.11
116.39,0.98
117.55,0.91
118.73,0.91
119.92,0.91
121.12,0.91
122.33,0.91
123.55,0.91
124.79,0.91
126.03,0.91
127.29,0.91
128.57,0.86
129.85,0.71
131.15,0.69
132.46,0.69
133.79,0.69
135.12,0.68
136.48,0.63
137.84,0.48
139.22,0.46
140.61,0.46
142.02,0.46
143.44,0.46
144.87,0.46
146.32,0.46
147.78,0.41
149.26,0.29
150.75,0.23
152.26,0.23
153.78,0.23
155.32,0.23
156.88,0.21
158.44,0.06
160.03,0.00
161.63,0.00
163.24,0.00
164.88,0.00
166.53,-0.04
168.19,-0.16
169.87,-0.23
171.57,-0.23
173.29,-0.23
175.02,-0.23
176.77,-0.42
178.54,-0.45
180.32,-0.45
182.13,-0.45
183.95,-0.54
185.79,-0.67
187.65,-0.68
189.52,-0.68
191.42,-0.63
193.33,-0.50
195.27,-0.45
197.22,-0.45
199.19,-0.45
201.18,-0.45
203.19,-0.45
205.23,-0.45
207.28,-0.45
209.35,-0.45
211.44,-0.45
213.56,-0.45
215.69,-0.45
217.85,-0.45
220.03,-0.45
222.23,-0.45
224.45,-0.45
226.70,-0.45
228.96,-0.61
231.25,-0.66
233.57,-0.68
235.90,-0.68
238.26,-0.68
240.64,-0.68
243.05,-0.68
245.48,-0.68
247.93,-0.68
250.41,-0.87
252.92,-0.91
255.45,-0.91
258.00,-0.91
260.58,-0.91
263.19,-0.91
265.82,-0.91
268.48,-0.96
271.16,-1.09
273.87,-1.14
276.61,-1.14
279.38,-1.14
282.17,-1.31
284.99,-1.37
287.84,-1.37
290.72,-1.37
293.63,-1.37
296.57,-1.37
299.53,-1.37
302.53,-1.37
305.55,-1.37
308.61,-1.37
311.69,-1.37
314.81,-1.37
317.96,-1.22
321.14,-1.14
324.35,-1.14
327.59,-1.10
330.87,-0.96
334.18,-0.91
337.52,-0.91
340.90,-0.91
344.30,-0.91
347.75,-0.91
351.23,-0.91
354.74,-0.91
358.28,-0.91
361.87,-0.91
365.49,-0.91
369.14,-0.91
372.83,-0.91
376.56,-0.96
380.33,-1.11
384.13,-1.14
387.97,-1.14
391.85,-1.14
395.77,-1.14
399.73,-1.14
403.72,-1.14
407.76,-1.14
411.84,-1.14
415.96,-1.14
420.12,-1.14
424.32,-1.14
428.56,-1.14
432.85,-1.14
437.18,-1.14
441.55,-1.14
445.96,-1.14
450.42,-1.14
454.93,-1.14
459.48,-1.14
464.07,-1.14
468.71,-1.14
473.40,-1.14
478.13,-1.14
482.91,-1.14
487.74,-1.14
492.62,-1.14
497.55,-1.14
502.52,-1.14
507.55,-1.14
512.62,-1.14
517.75,-1.14
522.93,-1.14
528.16,-1.14
533.44,-1.14
538.77,-1.14
544.16,-1.14
549.60,-1.14
555.10,-1.14
560.65,-1.14
566.25,-1.14
571.92,-1.14
577.64,-1.14
583.41,-1.14
589.25,-1.14
595.14,-1.14
601.09,-1.14
607.10,-1.14
613.17,-1.14
619.30,-1.14
625.50,-1.14
631.75,-1.14
638.07,-1.14
644.45,-1.14
650.89,-1.14
657.40,-1.14
663.98,-1.14
670.62,-1.13
677.32,-0.96
684.10,-0.91
690.94,-0.91
697.85,-0.91
704.83,-0.91
711.87,-0.91
718.99,-0.91
726.18,-0.91
733.44,-0.91
740.78,-0.91
748.19,-0.78
755.67,-0.69
763.23,-0.68
770.86,-0.68
778.57,-0.68
786.35,-0.68
794.22,-0.68
802.16,-0.68
810.18,-0.68
818.28,-0.68
826.46,-0.66
834.73,-0.50
843.08,-0.45
851.51,-0.45
860.02,-0.45
868.62,-0.45
877.31,-0.45
886.08,-0.45
894.94,-0.45
903.89,-0.45
912.93,-0.45
922.06,-0.45
931.28,-0.28
940.59,-0.23
950.00,-0.23
959.50,-0.23
969.09,-0.23
978.78,-0.23
988.57,-0.07
998.46,-0.01
1008.44,0.00
1018.53,0.00
1028.71,0.00
1039.00,0.00
1049.39,0.00
1059.88,0.17
1070.48,0.23
1081.19,0.23
1092.00,0.23
1102.92,0.23
1113.95,0.34
1125.09,0.44
1136.34,0.46
1147.70,0.46
1159.18,0.51
1170.77,0.66
1182.48,0.69
1194.30,0.69
1206.25,0.69
1218.31,0.86
1230.49,0.91
1242.80,0.91
1255.22,0.91
1267.78,0.91
1280.45,1.04
1293.26,1.13
1306.19,1.15
1319.25,1.32
1332.45,1.37
1345.77,1.37
1359.23,1.49
1372.82,1.73
1386.55,1.82
1400.41,1.83
1414.42,1.87
1428.56,2.01
1442.85,2.05
1457.28,2.18
1471.85,2.27
1486.57,2.46
1501.43,2.54
1516.45,2.70
1531.61,2.74
1546.93,2.84
1562.40,2.94
1578.02,3.13
1593.80,3.20
1609.74,3.38
1625.84,3.48
1642.10,3.61
1658.52,3.76
1675.10,3.86
1691.85,3.88
1708.77,4.07
1725.86,4.33
1743.12,4.52
1760.55,4.66
1778.15,4.89
1795.94,5.00
1813.90,5.19
1832.03,5.56
1850.36,6.08
1868.86,6.71
1887.55,7.32
1906.42,7.86
1925.49,8.23
1944.74,8.68
1964.19,9.09
1983.83,9.49
2003.67,9.84
2023.71,10.18
2043.94,10.49
2064.38,10.84
2085.03,11.11
2105.88,11.22
2126.94,11.36
2148.20,11.40
2169.69,11.40
2191.38,11.40
2213.30,11.57
2235.43,11.63
2257.78,11.58
2280.36,11.35
2303.17,11.20
2326.20,11.17
2349.46,11.17
2372.95,11.17
2396.68,11.35
2420.65,11.34
2444.86,11.20
2469.31,11.17
2494.00,11.17
2518.94,11.17
2544.13,11.35
2569.57,11.40
2595.27,11.33
2621.22,11.20
2647.43,11.17
2673.90,11.17
2700.64,11.35
2727.65,11.40
2754.93,11.35
2782.48,11.21
2810.30,11.17
2838.40,11.17
2866.79,11.33
2895.46,11.39
2924.41,11.37
2953.65,11.21
2983.19,11.17
3013.02,11.17
3043.15,11.31
3073.58,11.39
3104.32,11.40
3135.36,11.40
3166.72,11.40
3198.38,11.40
3230.37,11.40
3262.67,11.40
3295.30,11.40
3328.25,11.42
3361.53,11.62
3395.15,11.81
3429.10,11.95
3463.39,12.12
3498.03,12.42
3533.01,12.88
3568.34,13.41
3604.02,13.93
3640.06,14.45
3676.46,14.98
3713.22,15.56
3750.36,16.13
3787.86,16.74
3825.74,17.19
3864.00,17.55
3902.64,17.75
3941.66,17.61
3981.08,17.33
4020.89,16.80
4061.10,16.35
4101.71,15.90
4142.73,15.51
4184.15,14.98
4226.00,14.28
4268.26,13.50
4310.94,12.71
4354.05,12.13
4397.59,11.61
4441.56,11.12
4485.98,10.82
4530.84,10.59
4576.15,10.42
4621.91,10.09
4668.13,9.60
4714.81,9.08
4761.96,8.56
4809.58,8.09
4857.67,7.61
4906.25,7.35
4955.31,7.48
5004.87,7.65
5054.91,7.93
5105.46,8.16
5156.52,8.21
5208.08,8.21
5260.16,8.47
5312.77,8.85
5365.89,9.24
5419.55,9.59
5473.75,9.87
5528.49,10.01
5583.77,9.87
5639.61,9.80
5696.00,9.49
5752.96,9.10
5810.49,8.78
5868.60,8.57
5927.28,8.59
5986.56,8.65
6046.42,8.85
6106.89,9.11
6167.96,9.31
6229.64,9.44
6291.93,9.55
6354.85,9.57
6418.40,9.57
6482.58,9.59
6547.41,9.76
6612.88,9.88
6679.01,10.10
6745.80,10.24
6813.26,10.10
6881.39,10.04
6950.21,10.03
7019.71,9.95
7089.91,9.66
7160.81,9.22
7232.41,8.67
7304.74,8.30
7377.79,7.93
7451.56,7.52
7526.08,6.99
7601.34,6.40
7677.35,5.80
7754.13,5.23
7831.67,4.70
7909.98,4.16
7989.08,3.54
8068.98,2.96
8149.67,2.52
8231.16,2.19
8313.47,2.30
8396.61,2.83
8480.57,3.58
8565.38,4.36
8651.03,5.07
8737.54,5.73
8824.92,6.43
8913.17,7.25
9002.30,7.96
9092.32,8.52
9183.25,9.05
9275.08,9.57
9367.83,10.21
9461.51,10.97
9556.12,11.76
9651.68,12.72
9748.20,13.64
9845.68,14.35
9944.14,14.47
10043.58,13.86
10144.02,12.91
10245.46,11.61
10347.91,9.96
10451.39,8.21
10555.91,6.60
10661.46,5.23
10768.08,4.12
10875.76,3.23
10984.52,2.43
11094.36,1.89
11205.31,1.58
11317.36,1.32
11430.53,1.06
11544.84,0.93
11660.29,0.91
11776.89,0.90
11894.66,0.74
12013.60,0.75
12133.74,1.07
12255.08,1.56
12377.63,2.01
12501.41,2.41
12626.42,1.67
12752.68,0.20
12880.21,-1.94
13009.01,-4.54
13139.10,-6.95
13270.49,-8.95
13403.20,-10.15
13537.23,-10.83
13672.60,-12.10
13809.33,-15.09
13947.42,-18.94
14086.90,-21.35
14227.77,-19.09
14370.04,-14.82
14513.74,-11.38
14658.88,-9.71
14805.47,-9.86
14953.52,-10.76
15103.06,-12.15
15254.09,-13.64
15406.63,-14.95
15560.70,-15.80
15716.30,-16.33
15873.47,-16.49
16032.20,-15.80
16192.52,-14.58
16354.45,-13.36
16517.99,-12.34
16683.17,-11.63
16850.01,-10.69
17018.51,-9.60
17188.69,-8.54
17360.58,-7.82
17534.18,-7.94
17709.53,-8.57
17886.62,-9.58
18065.49,-10.83
18246.14,-12.47
18428.60,-14.24
18612.89,-15.79
18799.02,-15.43
18987.01,-13.84
19176.88,-11.95
19368.65,-10.50
19562.33,-9.58
19757.96,-9.04
19955.54,-8.72
