frequency,raw,error,smoothed,error_smoothed,equalization,parametric_eq,fixed_band_eq,equalized_raw,equalized_smoothed,target
20.00,9.91,6.31,9.91,6.28,-6.28,-6.01,-2.91,3.63,3.63,3.61
20.20,9.92,6.29,9.92,6.27,-6.27,-6.03,-2.99,3.65,3.65,3.64
20.40,9.93,6.27,9.94,6.26,-6.26,-6.06,-3.07,3.67,3.67,3.67
20.61,9.95,6.27,9.95,6.26,-6.26,-6.09,-3.16,3.70,3.69,3.69
20.81,9.96,6.25,9.96,6.25,-6.25,-6.11,-3.25,3.71,3.71,3.72
21.02,9.97,6.23,9.97,6.25,-6.25,-6.14,-3.34,3.72,3.72,3.75
21.23,9.98,6.23,9.99,6.25,-6.25,-6.16,-3.43,3.74,3.74,3.76
21.44,9.99,6.23,10.00,6.25,-6.25,-6.18,-3.52,3.75,3.75,3.77
21.66,10.00,6.23,10.01,6.25,-6.25,-6.20,-3.62,3.76,3.76,3.78
21.87,10.01,6.24,10.02,6.25,-6.25,-6.23,-3.72,3.77,3.77,3.78
22.09,10.02,6.24,10.03,6.25,-6.25,-6.25,-3.83,3.78,3.78,3.79
22.31,10.03,6.25,10.04,6.25,-6.25,-6.27,-3.93,3.78,3.79,3.79
22.54,10.04,6.26,10.05,6.26,-6.26,-6.28,-4.04,3.78,3.79,3.79
22.76,10.05,6.27,10.06,6.27,-6.27,-6.30,-4.15,3.78,3.79,3.79
22.99,10.06,6.29,10.07,6.28,-6.28,-6.32,-4.27,3.78,3.79,3.78
23.22,10.07,6.30,10.07,6.29,-6.29,-6.34,-4.38,3.78,3.78,3.77
23.45,10.08,6.31,10.08,6.30,-6.30,-6.35,-4.50,3.79,3.78,3.77
23.69,10.09,6.32,10.09,6.31,-6.31,-6.37,-4.63,3.79,3.78,3.77
23.92,10.10,6.33,10.09,6.31,-6.31,-6.38,-4.75,3.79,3.78,3.77
24.16,10.10,6.32,10.09,6.32,-6.32,-6.39,-4.88,3.79,3.78,3.78
24.40,10.10,6.32,10.10,6.32,-6.32,-6.40,-5.01,3.78,3.77,3.78
24.65,10.10,6.33,10.10,6.33,-6.33,-6.41,-5.14,3.77,3.77,3.77
24.89,10.10,6.33,10.11,6.34,-6.34,-6.42,-5.27,3.77,3.77,3.77
25.14,10.10,6.33,10.11,6.34,-6.34,-6.43,-5.41,3.76,3.77,3.77
25.39,10.10,6.33,10.12,6.35,-6.35,-6.44,-5.54,3.76,3.77,3.77
25.65,10.10,6.33,10.12,6.35,-6.35,-6.45,-5.68,3.75,3.77,3.77
25.91,10.10,6.34,10.12,6.35,-6.35,-6.46,-5.82,3.75,3.77,3.76
26.16,10.11,6.35,10.12,6.36,-6.36,-6.46,-5.95,3.76,3.76,3.76
26.43,10.12,6.37,10.12,6.36,-6.36,-6.47,-6.09,3.76,3.76,3.76
26.69,10.13,6.38,10.12,6.36,-6.36,-6.47,-6.23,3.77,3.76,3.76
26.96,10.15,6.40,10.12,6.37,-6.37,-6.48,-6.36,3.79,3.75,3.76
27.23,10.14,6.39,10.12,6.37,-6.37,-6.48,-6.49,3.78,3.75,3.76
27.50,10.12,6.37,10.12,6.37,-6.37,-6.48,-6.62,3.75,3.75,3.76
27.77,10.11,6.37,10.12,6.37,-6.37,-6.48,-6.75,3.74,3.75,3.75
28.05,10.10,6.36,10.12,6.38,-6.38,-6.49,-6.87,3.73,3.74,3.74
28.33,10.10,6.37,10.12,6.38,-6.38,-6.49,-6.99,3.73,3.74,3.73
28.62,10.10,6.37,10.12,6.38,-6.38,-6.49,-7.10,3.72,3.74,3.73
28.90,10.10,6.37,10.11,6.38,-6.38,-6.48,-7.20,3.72,3.73,3.73
29.19,10.10,6.38,10.11,6.38,-6.38,-6.48,-7.30,3.72,3.73,3.72
29.48,10.10,6.37,10.11,6.38,-6.38,-6.48,-7.39,3.72,3.72,3.73
29.78,10.10,6.38,10.10,6.38,-6.38,-6.48,-7.46,3.72,3.72,3.72
30.08,10.10,6.39,10.10,6.39,-6.39,-6.47,-7.53,3.72,3.71,3.72
30.38,10.10,6.40,10.10,6.39,-6.39,-6.47,-7.59,3.71,3.71,3.71
30.68,10.10,6.40,10.10,6.39,-6.39,-6.47,-7.64,3.71,3.70,3.71
30.99,10.10,6.41,10.09,6.40,-6.40,-6.46,-7.68,3.71,3.70,3.69
31.30,10.09,6.40,10.09,6.40,-6.40,-6.46,-7.71,3.70,3.69,3.69
31.61,10.08,6.39,10.09,6.40,-6.40,-6.45,-7.72,3.69,3.69,3.69
31.93,10.06,6.38,10.08,6.40,-6.40,-6.44,-7.73,3.67,3.68,3.68
32.24,10.06,6.39,10.07,6.40,-6.40,-6.44,-7.72,3.67,3.68,3.67
32.57,10.06,6.40,10.06,6.39,-6.39,-6.43,-7.71,3.67,3.67,3.67
32.89,10.06,6.40,10.05,6.39,-6.39,-6.42,-7.69,3.67,3.66,3.67
33.22,10.05,6.40,10.04,6.39,-6.39,-6.42,-7.65,3.67,3.66,3.66
33.55,10.04,6.39,10.03,6.38,-6.38,-6.41,-7.61,3.66,3.65,3.65
33.89,10.02,6.38,10.02,6.38,-6.38,-6.40,-7.56,3.65,3.64,3.64
34.23,10.01,6.37,10.01,6.37,-6.37,-6.39,-7.51,3.64,3.64,3.64
34.57,9.99,6.37,10.00,6.37,-6.37,-6.38,-7.44,3.62,3.63,3.63
34.92,9.97,6.36,9.99,6.37,-6.37,-6.38,-7.38,3.61,3.62,3.62
35.27,9.96,6.35,9.97,6.36,-6.36,-6.37,-7.31,3.60,3.61,3.61
35.62,9.95,6.35,9.96,6.36,-6.36,-6.36,-7.23,3.60,3.60,3.60
35.97,9.93,6.34,9.94,6.35,-6.35,-6.35,-7.16,3.58,3.60,3.59
36.33,9.93,6.35,9.93,6.34,-6.34,-6.34,-7.08,3.59,3.59,3.59
36.70,9.92,6.35,9.92,6.34,-6.34,-6.33,-7.00,3.58,3.58,3.58
37.06,9.92,6.36,9.90,6.34,-6.34,-6.32,-6.92,3.59,3.57,3.56
37.43,9.89,6.33,9.89,6.33,-6.33,-6.31,-6.84,3.56,3.56,3.56
37.81,9.87,6.33,9.88,6.33,-6.33,-6.30,-6.76,3.55,3.55,3.55
38.19,9.85,6.32,9.86,6.32,-6.32,-6.29,-6.69,3.53,3.54,3.54
38.57,9.83,6.30,9.85,6.32,-6.32,-6.28,-6.61,3.51,3.53,3.53
38.95,9.81,6.29,9.83,6.31,-6.31,-6.28,-6.54,3.50,3.52,3.52
39.34,9.81,6.31,9.81,6.30,-6.30,-6.27,-6.47,3.51,3.51,3.51
39.74,9.80,6.31,9.80,6.29,-6.29,-6.26,-6.40,3.51,3.50,3.49
40.14,9.79,6.30,9.78,6.28,-6.28,-6.25,-6.34,3.51,3.49,3.49
40.54,9.77,6.30,9.76,6.27,-6.27,-6.24,-6.28,3.50,3.48,3.48
40.94,9.74,6.27,9.74,6.26,-6.26,-6.23,-6.22,3.48,3.48,3.47
41.35,9.72,6.26,9.72,6.25,-6.25,-6.23,-6.17,3.47,3.47,3.46
41.76,9.69,6.24,9.70,6.25,-6.25,-6.22,-6.12,3.45,3.46,3.46
42.18,9.67,6.22,9.68,6.24,-6.24,-6.21,-6.07,3.44,3.44,3.45
42.60,9.65,6.21,9.66,6.23,-6.23,-6.20,-6.03,3.43,3.43,3.44
43.03,9.63,6.20,9.64,6.22,-6.22,-6.20,-6.00,3.42,3.42,3.43
43.46,9.61,6.19,9.62,6.21,-6.21,-6.19,-5.96,3.41,3.41,3.42
43.90,9.59,6.20,9.60,6.20,-6.20,-6.19,-5.94,3.40,3.40,3.40
44.33,9.57,6.19,9.57,6.19,-6.19,-6.18,-5.91,3.39,3.39,3.38
44.78,9.55,6.19,9.55,6.18,-6.18,-6.18,-5.90,3.38,3.37,3.37
45.23,9.53,6.18,9.53,6.17,-6.17,-6.17,-5.88,3.36,3.36,3.35
45.68,9.51,6.18,9.51,6.16,-6.16,-6.17,-5.87,3.35,3.34,3.34
46.13,9.48,6.16,9.48,6.15,-6.15,-6.16,-5.87,3.33,3.33,3.32
46.60,9.46,6.15,9.46,6.15,-6.15,-6.16,-5.87,3.32,3.31,3.31
47.06,9.44,6.15,9.43,6.14,-6.14,-6.16,-5.87,3.30,3.29,3.30
47.53,9.41,6.13,9.41,6.13,-6.13,-6.15,-5.88,3.28,3.28,3.28
48.01,9.38,6.11,9.38,6.13,-6.13,-6.15,-5.89,3.26,3.26,3.28
48.49,9.35,6.10,9.36,6.12,-6.12,-6.15,-5.90,3.24,3.24,3.25
48.97,9.32,6.10,9.33,6.11,-6.11,-6.15,-5.92,3.21,3.22,3.22
49.46,9.30,6.11,9.31,6.11,-6.11,-6.15,-5.94,3.20,3.20,3.20
49.96,9.28,6.12,9.28,6.10,-6.10,-6.15,-5.97,3.18,3.18,3.17
50.46,9.26,6.10,9.26,6.10,-6.10,-6.15,-6.00,3.17,3.16,3.16
50.96,9.24,6.10,9.24,6.10,-6.10,-6.16,-6.03,3.15,3.14,3.14
51.47,9.22,6.11,9.22,6.10,-6.10,-6.16,-6.06,3.13,3.12,3.11
51.99,9.19,6.10,9.20,6.10,-6.10,-6.16,-6.10,3.09,3.10,3.10
52.51,9.17,6.09,9.18,6.10,-6.10,-6.17,-6.14,3.07,3.08,3.09
53.03,9.15,6.09,9.17,6.11,-6.11,-6.17,-6.18,3.05,3.06,3.07
53.56,9.15,6.10,9.15,6.11,-6.11,-6.17,-6.22,3.05,3.04,3.05
54.10,9.15,6.12,9.14,6.11,-6.11,-6.18,-6.26,3.04,3.03,3.03
54.64,9.12,6.11,9.12,6.11,-6.11,-6.19,-6.30,3.01,3.01,3.01
55.18,9.11,6.13,9.11,6.12,-6.12,-6.19,-6.35,3.00,2.99,2.99
55.74,9.10,6.14,9.09,6.12,-6.12,-6.20,-6.39,2.98,2.98,2.97
56.29,9.08,6.13,9.08,6.13,-6.13,-6.21,-6.43,2.96,2.96,2.96
56.86,9.06,6.13,9.07,6.13,-6.13,-6.22,-6.47,2.93,2.94,2.94
57.42,9.05,6.14,9.06,6.14,-6.14,-6.23,-6.50,2.92,2.92,2.91
58.00,9.04,6.14,9.05,6.15,-6.15,-6.24,-6.54,2.90,2.90,2.90
58.58,9.03,6.15,9.04,6.15,-6.15,-6.25,-6.57,2.88,2.89,2.89
59.16,9.02,6.15,9.03,6.16,-6.16,-6.26,-6.60,2.86,2.87,2.87
59.76,9.02,6.16,9.02,6.17,-6.17,-6.28,-6.63,2.85,2.85,2.86
60.35,9.02,6.19,9.01,6.18,-6.18,-6.29,-6.65,2.84,2.83,2.84
60.96,9.02,6.20,9.01,6.20,-6.20,-6.30,-6.67,2.83,2.81,2.82
61.57,9.00,6.22,9.00,6.21,-6.21,-6.32,-6.68,2.79,2.79,2.79
62.18,8.98,6.22,9.00,6.23,-6.23,-6.34,-6.69,2.76,2.77,2.76
62.80,8.98,6.24,8.99,6.24,-6.24,-6.35,-6.69,2.74,2.75,2.75
63.43,8.98,6.26,8.99,6.26,-6.26,-6.37,-6.69,2.72,2.73,2.72
64.07,8.98,6.28,8.99,6.28,-6.28,-6.39,-6.69,2.71,2.71,2.70
64.71,8.98,6.30,8.98,6.30,-6.30,-6.40,-6.68,2.69,2.69,2.69
65.35,8.98,6.32,8.98,6.31,-6.31,-6.42,-6.67,2.67,2.67,2.67
66.01,8.98,6.34,8.98,6.33,-6.33,-6.44,-6.65,2.65,2.65,2.65
66.67,8.98,6.35,8.98,6.35,-6.35,-6.46,-6.63,2.63,2.63,2.63
67.33,8.98,6.37,8.98,6.37,-6.37,-6.48,-6.61,2.61,2.61,2.61
68.01,8.98,6.39,8.98,6.39,-6.39,-6.51,-6.59,2.59,2.59,2.59
68.69,8.98,6.41,8.99,6.42,-6.42,-6.53,-6.56,2.57,2.57,2.57
69.37,8.98,6.44,8.99,6.44,-6.44,-6.55,-6.53,2.54,2.55,2.55
70.07,8.98,6.46,8.99,6.46,-6.46,-6.57,-6.50,2.52,2.53,2.53
70.77,8.98,6.47,8.99,6.49,-6.49,-6.60,-6.47,2.50,2.51,2.51
71.48,8.99,6.50,9.00,6.51,-6.51,-6.62,-6.43,2.48,2.49,2.49
72.19,9.00,6.54,9.00,6.54,-6.54,-6.65,-6.40,2.47,2.47,2.47
72.91,9.02,6.58,9.01,6.57,-6.57,-6.67,-6.37,2.46,2.44,2.44
73.64,9.02,6.61,9.02,6.59,-6.59,-6.70,-6.34,2.43,2.42,2.42
74.38,9.02,6.62,9.02,6.62,-6.62,-6.72,-6.31,2.41,2.40,2.40
75.12,9.02,6.65,9.03,6.64,-6.64,-6.75,-6.28,2.38,2.38,2.38
75.87,9.02,6.66,9.03,6.67,-6.67,-6.77,-6.25,2.36,2.36,2.36
76.63,9.03,6.69,9.04,6.70,-6.70,-6.80,-6.23,2.34,2.34,2.34
77.40,9.05,6.73,9.05,6.72,-6.72,-6.83,-6.21,2.33,2.32,2.33
78.17,9.06,6.77,9.05,6.75,-6.75,-6.85,-6.19,2.32,2.30,2.30
78.95,9.06,6.78,9.06,6.78,-6.78,-6.88,-6.17,2.29,2.28,2.29
79.74,9.06,6.80,9.07,6.80,-6.80,-6.91,-6.16,2.26,2.27,2.27
80.54,9.06,6.82,9.07,6.83,-6.83,-6.94,-6.15,2.24,2.25,2.25
81.35,9.06,6.84,9.08,6.85,-6.85,-6.96,-6.15,2.21,2.23,2.23
82.16,9.06,6.86,9.09,6.88,-6.88,-6.99,-6.15,2.19,2.21,2.21
82.98,9.09,6.90,9.09,6.90,-6.90,-7.02,-6.15,2.19,2.19,2.19
83.81,9.11,6.95,9.10,6.93,-6.93,-7.04,-6.16,2.18,2.17,2.16
84.65,9.11,6.97,9.10,6.96,-6.96,-7.07,-6.17,2.16,2.15,2.14
85.50,9.11,6.99,9.11,6.99,-6.99,-7.10,-6.19,2.13,2.12,2.13
86.35,9.11,7.01,9.11,7.01,-7.01,-7.12,-6.21,2.10,2.10,2.10
87.22,9.11,7.04,9.12,7.04,-7.04,-7.15,-6.24,2.08,2.08,2.08
88.09,9.11,7.06,9.12,7.06,-7.06,-7.18,-6.27,2.05,2.06,2.05
88.97,9.11,7.08,9.12,7.09,-7.09,-7.20,-6.30,2.03,2.03,2.04
89.86,9.11,7.10,9.12,7.11,-7.11,-7.22,-6.34,2.00,2.01,2.01
90.76,9.11,7.14,9.11,7.13,-7.13,-7.25,-6.38,1.98,1.98,1.98
91.66,9.11,7.16,9.11,7.15,-7.15,-7.27,-6.43,1.96,1.95,1.96
92.58,9.11,7.19,9.10,7.17,-7.17,-7.29,-6.49,1.94,1.93,1.92
93.51,9.11,7.21,9.09,7.19,-7.19,-7.32,-6.55,1.92,1.90,1.90
94.44,9.09,7.22,9.09,7.21,-7.21,-7.34,-6.61,1.88,1.87,1.88
95.39,9.06,7.21,9.08,7.24,-7.24,-7.36,-6.67,1.83,1.84,1.85
96.34,9.06,7.25,9.07,7.26,-7.26,-7.37,-6.74,1.81,1.81,1.81
97.30,9.05,7.27,9.06,7.27,-7.27,-7.39,-6.82,1.78,1.79,1.78
98.28,9.03,7.28,9.05,7.29,-7.29,-7.41,-6.90,1.74,1.76,1.75
99.26,9.02,7.30,9.04,7.31,-7.31,-7.42,-6.98,1.71,1.73,1.72
100.25,9.02,7.33,9.03,7.33,-7.33,-7.44,-7.06,1.69,1.70,1.70
101.25,9.02,7.36,9.02,7.35,-7.35,-7.45,-7.15,1.68,1.67,1.67
102.27,9.01,7.38,9.00,7.37,-7.37,-7.46,-7.24,1.65,1.64,1.64
103.29,8.99,7.40,8.99,7.38,-7.38,-7.47,-7.33,1.61,1.61,1.60
104.32,8.98,7.41,8.98,7.40,-7.40,-7.47,-7.43,1.58,1.58,1.58
105.37,8.97,7.42,8.97,7.42,-7.42,-7.48,-7.52,1.55,1.55,1.55
106.42,8.94,7.42,8.96,7.44,-7.44,-7.49,-7.62,1.51,1.52,1.52
107.48,8.93,7.44,8.94,7.46,-7.46,-7.49,-7.71,1.48,1.49,1.49
108.56,8.93,7.48,8.93,7.47,-7.47,-7.49,-7.80,1.46,1.45,1.45
109.64,8.90,7.48,8.91,7.49,-7.49,-7.49,-7.90,1.41,1.42,1.42
110.74,8.89,7.50,8.89,7.51,-7.51,-7.48,-7.98,1.39,1.39,1.39
111.85,8.87,7.51,8.87,7.52,-7.52,-7.48,-8.07,1.35,1.35,1.36
112.97,8.85,7.54,8.85,7.53,-7.53,-7.47,-8.15,1.32,1.32,1.32
114.10,8.83,7.55,8.83,7.55,-7.55,-7.46,-8.23,1.29,1.28,1.29
115.24,8.80,7.56,8.81,7.56,-7.56,-7.45,-8.29,1.24,1.25,1.25
116.39,8.77,7.56,8.78,7.57,-7.57,-7.44,-8.36,1.20,1.21,1.21
117.55,8.75,7.58,8.76,7.58,-7.58,-7.42,-8.41,1.17,1.18,1.17
118.73,8.73,7.60,8.73,7.58,-7.58,-7.41,-8.45,1.15,1.14,1.14
119.92,8.70,7.60,8.69,7.59,-7.59,-7.39,-8.49,1.12,1.11,1.11
121.12,8.65,7.58,8.66,7.59,-7.59,-7.37,-8.51,1.07,1.07,1.07
122.33,8.62,7.59,8.62,7.58,-7.58,-7.34,-8.52,1.04,1.04,1.04
123.55,8.59,7.58,8.58,7.58,-7.58,-7.32,-8.53,1.02,1.00,1.01
124.79,8.54,7.57,8.53,7.57,-7.57,-7.29,-8.51,0.98,0.97,0.97
126.03,8.49,7.55,8.49,7.55,-7.55,-7.26,-8.49,0.94,0.93,0.94
127.29,8.43,7.53,8.44,7.54,-7.54,-7.23,-8.46,0.90,0.90,0.90
128.57,8.37,7.51,8.38,7.52,-7.52,-7.20,-8.41,0.85,0.86,0.86
129.85,8.32,7.50,8.33,7.50,-7.50,-7.16,-8.35,0.83,0.83,0.83
131.15,8.25,7.46,8.27,7.47,-7.47,-7.12,-8.29,0.78,0.80,0.79
132.46,8.20,7.44,8.21,7.44,-7.44,-7.09,-8.21,0.76,0.77,0.76
133.79,8.14,7.40,8.15,7.41,-7.41,-7.04,-8.12,0.73,0.73,0.74
135.12,8.08,7.39,8.08,7.38,-7.38,-7.00,-8.02,0.71,0.70,0.70
136.48,8.02,7.35,8.01,7.34,-7.34,-6.96,-7.92,0.68,0.67,0.68
137.84,7.95,7.31,7.95,7.30,-7.30,-6.91,-7.80,0.65,0.64,0.65
139.22,7.87,7.27,7.88,7.26,-7.26,-6.86,-7.69,0.62,0.62,0.61
140.61,7.80,7.23,7.80,7.21,-7.21,-6.81,-7.56,0.59,0.59,0.58
142.02,7.72,7.15,7.73,7.17,-7.17,-6.76,-7.43,0.56,0.56,0.57
143.44,7.64,7.10,7.66,7.12,-7.12,-6.71,-7.30,0.53,0.54,0.54
144.87,7.58,7.07,7.58,7.06,-7.06,-6.66,-7.17,0.52,0.51,0.51
146.32,7.49,7.01,7.50,7.01,-7.01,-6.60,-7.03,0.48,0.49,0.49
147.78,7.42,6.95,7.42,6.95,-6.95,-6.54,-6.90,0.47,0.46,0.47
149.26,7.33,6.89,7.33,6.90,-6.90,-6.49,-6.76,0.44,0.44,0.45
150.75,7.25,6.84,7.25,6.84,-6.84,-6.43,-6.62,0.42,0.41,0.41
152.26,7.16,6.78,7.16,6.78,-6.78,-6.37,-6.48,0.39,0.38,0.39
153.78,7.06,6.70,7.07,6.72,-6.72,-6.31,-6.35,0.35,0.36,0.36
155.32,6.98,6.65,6.98,6.65,-6.65,-6.24,-6.21,0.33,0.33,0.33
156.88,6.89,6.59,6.89,6.59,-6.59,-6.18,-6.08,0.31,0.30,0.31
158.44,6.79,6.52,6.80,6.52,-6.52,-6.12,-5.95,0.27,0.27,0.27
160.03,6.71,6.47,6.70,6.45,-6.45,-6.05,-5.82,0.26,0.25,0.24
161.63,6.60,6.39,6.60,6.39,-6.39,-5.99,-5.70,0.22,0.22,0.21
163.24,6.51,6.33,6.51,6.32,-6.32,-5.92,-5.58,0.20,0.19,0.18
164.88,6.40,6.24,6.40,6.24,-6.24,-5.86,-5.46,0.16,0.16,0.16
166.53,6.29,6.16,6.30,6.17,-6.17,-5.79,-5.34,0.12,0.13,0.13
168.19,6.19,6.09,6.20,6.09,-6.09,-5.72,-5.23,0.10,0.10,0.10
169.87,6.09,6.02,6.09,6.02,-6.02,-5.65,-5.12,0.07,0.07,0.08
171.57,5.99,5.95,5.99,5.94,-5.94,-5.59,-5.01,0.05,0.05,0.05
173.29,5.88,5.86,5.88,5.86,-5.86,-5.52,-4.91,0.02,0.02,0.02
175.02,5.78,5.79,5.77,5.79,-5.79,-5.45,-4.81,-0.00,-0.01,-0.01
176.77,5.67,5.72,5.67,5.71,-5.71,-5.38,-4.72,-0.04,-0.04,-0.04
178.54,5.56,5.64,5.56,5.63,-5.63,-5.31,-4.62,-0.07,-0.07,-0.08
180.32,5.44,5.55,5.46,5.56,-5.56,-5.24,-4.54,-0.11,-0.10,-0.10
182.13,5.33,5.46,5.35,5.48,-5.48,-5.17,-4.45,-0.15,-0.13,-0.13
183.95,5.24,5.40,5.25,5.40,-5.40,-5.10,-4.37,-0.16,-0.16,-0.16
185.79,5.13,5.32,5.14,5.33,-5.33,-5.03,-4.29,-0.19,-0.19,-0.18
187.65,5.03,5.25,5.04,5.25,-5.25,-4.97,-4.21,-0.22,-0.21,-0.22
189.52,4.93,5.17,4.94,5.18,-5.18,-4.90,-4.14,-0.24,-0.24,-0.24
191.42,4.84,5.11,4.84,5.10,-5.10,-4.83,-4.07,-0.26,-0.26,-0.26
193.33,4.74,5.03,4.74,5.03,-5.03,-4.76,-4.01,-0.28,-0.29,-0.29
195.27,4.64,4.95,4.64,4.95,-4.95,-4.69,-3.94,-0.31,-0.31,-0.31
197.22,4.54,4.87,4.54,4.87,-4.87,-4.62,-3.88,-0.33,-0.33,-0.33
199.19,4.44,4.80,4.45,4.80,-4.80,-4.56,-3.83,-0.35,-0.35,-0.36
201.18,4.35,4.72,4.35,4.72,-4.72,-4.49,-3.77,-0.36,-0.37,-0.37
203.19,4.25,4.63,4.25,4.64,-4.64,-4.42,-3.72,-0.38,-0.38,-0.38
205.23,4.16,4.56,4.16,4.55,-4.55,-4.35,-3.67,-0.39,-0.40,-0.40
207.28,4.07,4.47,4.06,4.47,-4.47,-4.29,-3.62,-0.39,-0.41,-0.40
209.35,3.96,4.38,3.96,4.38,-4.38,-4.22,-3.58,-0.42,-0.42,-0.42
211.44,3.86,4.30,3.86,4.29,-4.29,-4.16,-3.53,-0.43,-0.43,-0.44
213.56,3.77,4.21,3.77,4.20,-4.20,-4.09,-3.49,-0.43,-0.44,-0.44
215.69,3.67,4.11,3.67,4.11,-4.11,-4.03,-3.45,-0.44,-0.44,-0.43
217.85,3.57,4.02,3.58,4.02,-4.02,-3.96,-3.41,-0.45,-0.44,-0.44
220.03,3.48,3.93,3.49,3.93,-3.93,-3.90,-3.37,-0.45,-0.45,-0.45
222.23,3.39,3.85,3.40,3.84,-3.84,-3.83,-3.34,-0.45,-0.45,-0.46
224.45,3.30,3.75,3.31,3.75,-3.75,-3.77,-3.30,-0.45,-0.45,-0.44
226.70,3.20,3.65,3.23,3.67,-3.67,-3.71,-3.27,-0.46,-0.44,-0.44
228.96,3.14,3.58,3.15,3.59,-3.59,-3.65,-3.24,-0.44,-0.44,-0.44
231.25,3.06,3.49,3.07,3.50,-3.50,-3.59,-3.20,-0.44,-0.43,-0.42
233.57,2.99,3.42,3.00,3.42,-3.42,-3.53,-3.17,-0.43,-0.43,-0.42
235.90,2.91,3.33,2.93,3.35,-3.35,-3.47,-3.14,-0.43,-0.42,-0.42
238.26,2.86,3.28,2.86,3.27,-3.27,-3.41,-3.11,-0.41,-0.41,-0.41
240.64,2.79,3.19,2.80,3.19,-3.19,-3.35,-3.07,-0.40,-0.40,-0.40
243.05,2.74,3.13,2.74,3.12,-3.12,-3.29,-3.04,-0.38,-0.38,-0.38
245.48,2.68,3.05,2.68,3.05,-3.05,-3.23,-3.01,-0.36,-0.37,-0.37
247.93,2.63,2.99,2.62,2.97,-2.97,-3.18,-2.98,-0.34,-0.35,-0.35
250.41,2.57,2.92,2.56,2.90,-2.90,-3.12,-2.95,-0.33,-0.34,-0.35
252.92,2.50,2.83,2.51,2.83,-2.83,-3.07,-2.91,-0.32,-0.32,-0.32
255.45,2.45,2.75,2.45,2.75,-2.75,-3.01,-2.88,-0.30,-0.30,-0.30
258.00,2.39,2.68,2.40,2.68,-2.68,-2.96,-2.85,-0.29,-0.28,-0.28
260.58,2.34,2.61,2.35,2.61,-2.61,-2.90,-2.81,-0.27,-0.26,-0.27
263.19,2.29,2.53,2.30,2.54,-2.54,-2.85,-2.78,-0.24,-0.24,-0.24
265.82,2.24,2.47,2.25,2.47,-2.47,-2.80,-2.74,-0.22,-0.22,-0.22
268.48,2.19,2.39,2.20,2.40,-2.40,-2.75,-2.71,-0.20,-0.20,-0.20
271.16,2.14,2.31,2.15,2.33,-2.33,-2.70,-2.68,-0.18,-0.18,-0.17
273.87,2.10,2.26,2.10,2.26,-2.26,-2.65,-2.64,-0.16,-0.16,-0.15
276.61,2.07,2.20,2.06,2.20,-2.20,-2.60,-2.61,-0.12,-0.13,-0.13
279.38,2.01,2.12,2.02,2.13,-2.13,-2.55,-2.57,-0.12,-0.11,-0.11
282.17,1.98,2.08,1.98,2.07,-2.07,-2.50,-2.54,-0.09,-0.09,-0.09
284.99,1.95,2.02,1.95,2.02,-2.02,-2.46,-2.51,-0.06,-0.07,-0.07
287.84,1.90,1.95,1.91,1.96,-1.96,-2.41,-2.47,-0.05,-0.05,-0.05
290.72,1.87,1.90,1.88,1.90,-1.90,-2.36,-2.44,-0.03,-0.02,-0.02
293.63,1.84,1.85,1.85,1.85,-1.85,-2.32,-2.41,-0.00,-0.00,-0.00
296.57,1.81,1.79,1.82,1.79,-1.79,-2.28,-2.38,0.02,0.02,0.02
299.53,1.79,1.75,1.79,1.74,-1.74,-2.23,-2.35,0.05,0.05,0.04
302.53,1.76,1.71,1.76,1.69,-1.69,-2.19,-2.32,0.07,0.07,0.06
305.55,1.74,1.65,1.74,1.65,-1.65,-2.15,-2.29,0.10,0.09,0.10
308.61,1.71,1.60,1.72,1.60,-1.60,-2.11,-2.27,0.11,0.12,0.11
311.69,1.70,1.56,1.70,1.56,-1.56,-2.07,-2.24,0.15,0.14,0.14
314.81,1.67,1.49,1.68,1.51,-1.51,-2.03,-2.22,0.16,0.17,0.18
317.96,1.66,1.47,1.67,1.47,-1.47,-1.99,-2.19,0.19,0.19,0.20
321.14,1.66,1.45,1.65,1.44,-1.44,-1.95,-2.17,0.23,0.21,0.22
324.35,1.64,1.41,1.64,1.40,-1.40,-1.92,-2.15,0.24,0.24,0.23
327.59,1.61,1.35,1.63,1.37,-1.37,-1.88,-2.13,0.25,0.26,0.26
330.87,1.61,1.33,1.62,1.34,-1.34,-1.84,-2.12,0.28,0.28,0.28
334.18,1.61,1.31,1.61,1.31,-1.31,-1.81,-2.10,0.30,0.30,0.30
337.52,1.61,1.30,1.61,1.28,-1.28,-1.78,-2.09,0.33,0.33,0.32
340.90,1.61,1.27,1.61,1.26,-1.26,-1.74,-2.07,0.35,0.34,0.35
344.30,1.61,1.25,1.61,1.24,-1.24,-1.71,-2.06,0.37,0.36,0.37
347.75,1.61,1.23,1.61,1.23,-1.23,-1.68,-2.05,0.39,0.38,0.38
351.23,1.61,1.21,1.62,1.21,-1.21,-1.65,-2.05,0.40,0.40,0.40
354.74,1.61,1.19,1.62,1.20,-1.20,-1.62,-2.04,0.41,0.42,0.42
358.28,1.61,1.17,1.63,1.19,-1.19,-1.60,-2.03,0.42,0.44,0.44
361.87,1.65,1.19,1.64,1.19,-1.19,-1.57,-2.03,0.47,0.46,0.46
365.49,1.66,1.19,1.66,1.18,-1.18,-1.54,-2.03,0.48,0.47,0.48
369.14,1.66,1.18,1.67,1.18,-1.18,-1.52,-2.03,0.48,0.49,0.49
372.83,1.69,1.19,1.69,1.18,-1.18,-1.50,-2.03,0.51,0.51,0.51
376.56,1.70,1.19,1.71,1.19,-1.19,-1.48,-2.03,0.52,0.52,0.52
380.33,1.73,1.19,1.73,1.19,-1.19,-1.46,-2.03,0.54,0.54,0.54
384.13,1.75,1.20,1.75,1.20,-1.20,-1.44,-2.04,0.55,0.55,0.55
387.97,1.78,1.22,1.78,1.21,-1.21,-1.42,-2.04,0.57,0.56,0.56
391.85,1.80,1.23,1.81,1.23,-1.23,-1.40,-2.05,0.57,0.58,0.57
395.77,1.83,1.24,1.84,1.25,-1.25,-1.39,-2.06,0.59,0.59,0.59
399.73,1.86,1.26,1.87,1.27,-1.27,-1.38,-2.07,0.60,0.60,0.60
403.72,1.89,1.28,1.90,1.29,-1.29,-1.37,-2.07,0.60,0.61,0.61
407.76,1.93,1.31,1.94,1.31,-1.31,-1.36,-2.08,0.62,0.62,0.62
411.84,1.97,1.34,1.98,1.34,-1.34,-1.35,-2.09,0.63,0.63,0.64
415.96,2.01,1.37,2.01,1.37,-1.37,-1.35,-2.10,0.64,0.64,0.65
420.12,2.05,1.40,2.06,1.40,-1.40,-1.35,-2.11,0.65,0.65,0.66
424.32,2.10,1.44,2.10,1.43,-1.43,-1.35,-2.12,0.67,0.67,0.67
428.56,2.14,1.47,2.14,1.47,-1.47,-1.35,-2.13,0.68,0.68,0.68
432.85,2.19,1.51,2.19,1.50,-1.50,-1.36,-2.14,0.69,0.69,0.69
437.18,2.23,1.54,2.24,1.54,-1.54,-1.37,-2.15,0.70,0.70,0.69
441.55,2.28,1.57,2.29,1.57,-1.57,-1.38,-2.16,0.71,0.71,0.71
445.96,2.34,1.62,2.34,1.61,-1.61,-1.40,-2.16,0.73,0.73,0.72
450.42,2.37,1.64,2.39,1.65,-1.65,-1.42,-2.17,0.73,0.74,0.73
454.93,2.43,1.68,2.44,1.68,-1.68,-1.44,-2.17,0.75,0.75,0.75
459.48,2.48,1.72,2.49,1.72,-1.72,-1.47,-2.17,0.76,0.77,0.76
464.07,2.53,1.75,2.54,1.76,-1.76,-1.50,-2.17,0.77,0.78,0.78
468.71,2.58,1.78,2.59,1.80,-1.80,-1.54,-2.16,0.79,0.80,0.80
473.40,2.66,1.85,2.65,1.84,-1.84,-1.58,-2.16,0.83,0.81,0.81
478.13,2.69,1.86,2.70,1.87,-1.87,-1.63,-2.15,0.82,0.83,0.83
482.91,2.75,1.91,2.76,1.91,-1.91,-1.68,-2.13,0.84,0.84,0.84
487.74,2.80,1.94,2.81,1.95,-1.95,-1.74,-2.12,0.86,0.86,0.86
492.62,2.84,1.96,2.85,1.98,-1.98,-1.80,-2.10,0.86,0.87,0.88
497.55,2.89,2.00,2.90,2.01,-2.01,-1.86,-2.08,0.88,0.89,0.89
502.52,2.94,2.03,2.94,2.04,-2.04,-1.92,-2.05,0.91,0.91,0.91
507.55,2.99,2.07,2.98,2.06,-2.06,-1.99,-2.02,0.94,0.92,0.92
512.62,3.02,2.08,3.01,2.07,-2.07,-2.05,-1.99,0.95,0.94,0.94
517.75,3.05,2.10,3.04,2.08,-2.08,-2.10,-1.95,0.97,0.96,0.96
522.93,3.08,2.11,3.06,2.08,-2.08,-2.15,-1.92,1.00,0.98,0.98
