frequency,raw,smoothed,error,error_smoothed,equalization,parametric_eq,fixed_band_eq,equalized_raw,equalized_smoothed,target
20.00,-1.18,-1.18,-7.03,-7.02,6.00,6.98,1.93,4.82,4.82,5.84
20.20,-1.13,-1.13,-6.98,-6.97,6.00,6.90,1.99,4.87,4.87,5.84
20.40,-1.07,-1.08,-6.91,-6.92,6.00,6.82,2.05,4.93,4.92,5.84
20.61,-1.03,-1.03,-6.87,-6.87,6.00,6.74,2.11,4.97,4.97,5.84
20.81,-0.97,-0.97,-6.81,-6.81,6.00,6.66,2.17,5.03,5.03,5.84
21.02,-0.92,-0.92,-6.76,-6.76,6.00,6.57,2.24,5.08,5.08,5.84
21.23,-0.86,-0.87,-6.68,-6.69,6.00,6.49,2.31,5.14,5.13,5.82
21.44,-0.81,-0.81,-6.62,-6.62,6.00,6.41,2.37,5.19,5.19,5.81
21.66,-0.76,-0.75,-6.54,-6.54,6.00,6.33,2.44,5.25,5.25,5.79
21.87,-0.69,-0.70,-6.46,-6.47,6.01,6.25,2.52,5.31,5.31,5.77
22.09,-0.64,-0.64,-6.40,-6.39,6.01,6.17,2.59,5.37,5.37,5.76
22.31,-0.58,-0.58,-6.31,-6.31,6.01,6.09,2.67,5.43,5.43,5.73
22.54,-0.53,-0.53,-6.23,-6.23,6.01,6.01,2.75,5.48,5.48,5.70
22.76,-0.46,-0.46,-6.15,-6.14,5.99,5.93,2.83,5.53,5.53,5.68
22.99,-0.40,-0.40,-6.06,-6.06,5.97,5.85,2.91,5.56,5.56,5.65
23.22,-0.34,-0.34,-5.97,-5.97,5.93,5.76,3.00,5.59,5.59,5.62
23.45,-0.28,-0.28,-5.89,-5.89,5.88,5.68,3.08,5.60,5.60,5.60
23.69,-0.23,-0.22,-5.82,-5.81,5.82,5.60,3.17,5.59,5.60,5.59
23.92,-0.16,-0.16,-5.73,-5.74,5.75,5.52,3.26,5.59,5.59,5.57
24.16,-0.10,-0.11,-5.66,-5.66,5.67,5.44,3.35,5.57,5.57,5.56
24.40,-0.04,-0.04,-5.58,-5.58,5.59,5.36,3.44,5.54,5.54,5.54
24.65,0.01,0.02,-5.50,-5.50,5.50,5.28,3.54,5.52,5.52,5.52
24.89,0.09,0.08,-5.41,-5.42,5.42,5.20,3.63,5.50,5.50,5.50
25.14,0.15,0.15,-5.34,-5.34,5.34,5.12,3.73,5.48,5.48,5.49
25.39,0.21,0.21,-5.26,-5.26,5.26,5.04,3.82,5.46,5.47,5.46
25.65,0.27,0.27,-5.18,-5.18,5.18,4.96,3.92,5.45,5.45,5.45
25.91,0.33,0.33,-5.09,-5.10,5.10,4.88,4.02,5.43,5.43,5.42
26.16,0.40,0.40,-5.02,-5.02,5.02,4.80,4.11,5.41,5.41,5.41
26.43,0.45,0.46,-4.95,-4.94,4.94,4.72,4.21,5.39,5.40,5.40
26.69,0.53,0.52,-4.85,-4.86,4.86,4.65,4.30,5.39,5.38,5.38
26.96,0.58,0.59,-4.78,-4.78,4.78,4.57,4.39,5.37,5.37,5.37
27.23,0.65,0.65,-4.70,-4.70,4.70,4.49,4.48,5.36,5.35,5.36
27.50,0.72,0.72,-4.63,-4.63,4.62,4.41,4.57,5.34,5.34,5.35
27.77,0.78,0.78,-4.55,-4.55,4.55,4.34,4.65,5.32,5.33,5.32
28.05,0.85,0.84,-4.47,-4.47,4.47,4.26,4.73,5.31,5.31,5.31
28.33,0.91,0.91,-4.39,-4.39,4.39,4.18,4.80,5.30,5.30,5.29
28.62,0.96,0.97,-4.32,-4.31,4.32,4.11,4.87,5.28,5.28,5.28
28.90,1.03,1.02,-4.24,-4.24,4.24,4.03,4.93,5.27,5.26,5.27
29.19,1.09,1.09,-4.16,-4.17,4.16,3.96,4.99,5.25,5.25,5.25
29.48,1.15,1.15,-4.10,-4.09,4.09,3.89,5.04,5.24,5.24,5.24
29.78,1.21,1.21,-4.02,-4.02,4.02,3.81,5.08,5.23,5.23,5.23
30.08,1.27,1.28,-3.95,-3.94,3.94,3.74,5.11,5.22,5.22,5.22
30.38,1.33,1.34,-3.86,-3.87,3.87,3.67,5.14,5.21,5.21,5.20
30.68,1.40,1.39,-3.79,-3.79,3.80,3.60,5.15,5.19,5.19,5.19
30.99,1.44,1.45,-3.72,-3.72,3.73,3.52,5.16,5.17,5.17,5.17
31.30,1.49,1.50,-3.66,-3.66,3.66,3.45,5.16,5.15,5.15,5.15
31.61,1.55,1.54,-3.60,-3.59,3.59,3.38,5.15,5.13,5.13,5.14
31.93,1.59,1.60,-3.52,-3.52,3.52,3.32,5.13,5.11,5.11,5.12
32.24,1.65,1.65,-3.44,-3.45,3.45,3.25,5.10,5.09,5.09,5.09
32.57,1.69,1.70,-3.38,-3.38,3.38,3.18,5.06,5.07,5.08,5.07
32.89,1.75,1.75,-3.31,-3.31,3.31,3.11,5.02,5.06,5.06,5.06
33.22,1.80,1.79,-3.23,-3.24,3.24,3.05,4.96,5.04,5.04,5.03
33.55,1.84,1.84,-3.18,-3.17,3.17,2.98,4.90,5.01,5.01,5.01
33.89,1.89,1.88,-3.11,-3.11,3.11,2.92,4.83,4.99,4.99,4.99
34.23,1.93,1.93,-3.04,-3.04,3.04,2.86,4.76,4.97,4.97,4.97
34.57,1.98,1.97,-2.97,-2.97,2.98,2.79,4.67,4.95,4.95,4.95
34.92,2.01,2.01,-2.91,-2.91,2.91,2.73,4.59,4.93,4.93,4.92
35.27,2.05,2.06,-2.85,-2.85,2.85,2.67,4.50,4.90,4.91,4.91
35.62,2.11,2.10,-2.78,-2.78,2.78,2.61,4.40,4.89,4.89,4.89
35.97,2.15,2.14,-2.72,-2.72,2.72,2.55,4.30,4.87,4.87,4.86
36.33,2.19,2.19,-2.66,-2.66,2.66,2.49,4.20,4.85,4.85,4.85
36.70,2.23,2.23,-2.60,-2.60,2.60,2.44,4.10,4.82,4.82,4.82
37.06,2.27,2.27,-2.53,-2.54,2.54,2.38,3.99,4.80,4.80,4.80
37.43,2.31,2.31,-2.48,-2.48,2.48,2.32,3.89,4.78,4.78,4.79
37.81,2.35,2.35,-2.42,-2.42,2.41,2.27,3.78,4.76,4.76,4.76
38.19,2.39,2.39,-2.35,-2.36,2.35,2.22,3.67,4.74,4.74,4.74
38.57,2.43,2.43,-2.30,-2.29,2.29,2.16,3.56,4.72,4.72,4.72
38.95,2.47,2.47,-2.23,-2.23,2.23,2.11,3.45,4.70,4.70,4.70
39.34,2.51,2.50,-2.17,-2.17,2.18,2.06,3.35,4.68,4.68,4.67
39.74,2.54,2.54,-2.11,-2.12,2.12,2.01,3.24,4.65,4.66,4.65
40.14,2.57,2.57,-2.07,-2.06,2.06,1.96,3.13,4.64,4.64,4.64
40.54,2.61,2.61,-2.01,-2.01,2.01,1.91,3.03,4.61,4.62,4.62
40.94,2.65,2.64,-1.96,-1.96,1.96,1.86,2.92,4.60,4.60,4.60
41.35,2.68,2.68,-1.90,-1.90,1.90,1.82,2.82,4.58,4.58,4.57
41.76,2.72,2.71,-1.85,-1.85,1.85,1.77,2.72,4.57,4.57,4.57
42.18,2.75,2.75,-1.81,-1.80,1.80,1.73,2.62,4.55,4.55,4.55
42.60,2.78,2.78,-1.75,-1.76,1.75,1.68,2.52,4.53,4.53,4.53
43.03,2.81,2.81,-1.71,-1.71,1.70,1.64,2.42,4.51,4.51,4.52
43.46,2.84,2.84,-1.66,-1.65,1.65,1.59,2.32,4.49,4.49,4.49
43.90,2.87,2.87,-1.60,-1.60,1.60,1.55,2.23,4.47,4.47,4.46
44.33,2.90,2.90,-1.55,-1.55,1.55,1.51,2.14,4.45,4.45,4.45
44.78,2.93,2.93,-1.50,-1.50,1.50,1.47,2.05,4.43,4.43,4.43
45.23,2.96,2.95,-1.44,-1.45,1.45,1.43,1.96,4.41,4.41,4.40
45.68,2.99,2.98,-1.40,-1.40,1.41,1.39,1.87,4.39,4.39,4.38
46.13,3.01,3.01,-1.36,-1.36,1.36,1.35,1.79,4.37,4.37,4.36
46.60,3.04,3.03,-1.32,-1.31,1.32,1.31,1.70,4.35,4.35,4.35
47.06,3.06,3.06,-1.28,-1.28,1.27,1.27,1.62,4.33,4.33,4.33
47.53,3.09,3.08,-1.23,-1.23,1.23,1.24,1.54,4.31,4.31,4.31
48.01,3.11,3.11,-1.20,-1.19,1.18,1.20,1.46,4.29,4.29,4.30
48.49,3.14,3.13,-1.14,-1.14,1.14,1.16,1.38,4.27,4.27,4.27
48.97,3.16,3.15,-1.09,-1.09,1.09,1.12,1.31,4.24,4.24,4.24
49.46,3.18,3.18,-1.03,-1.03,1.04,1.09,1.23,4.22,4.22,4.21
49.96,3.20,3.20,-0.98,-0.99,0.99,1.05,1.16,4.19,4.19,4.18
50.46,3.23,3.22,-0.95,-0.95,0.95,1.02,1.09,4.17,4.17,4.18
50.96,3.25,3.24,-0.91,-0.90,0.90,0.98,1.02,4.15,4.15,4.15
51.47,3.27,3.27,-0.85,-0.86,0.86,0.94,0.95,4.12,4.13,4.12
51.99,3.29,3.28,-0.81,-0.82,0.82,0.91,0.88,4.10,4.10,4.10
52.51,3.31,3.30,-0.78,-0.78,0.78,0.87,0.82,4.08,4.08,4.08
53.03,3.32,3.32,-0.74,-0.74,0.74,0.84,0.75,4.05,4.05,4.06
53.56,3.34,3.34,-0.70,-0.70,0.69,0.80,0.69,4.03,4.03,4.03
54.10,3.36,3.35,-0.65,-0.65,0.65,0.77,0.63,4.01,4.01,4.01
54.64,3.38,3.37,-0.61,-0.61,0.61,0.73,0.57,3.99,3.98,3.98
55.18,3.39,3.39,-0.57,-0.57,0.57,0.70,0.51,3.95,3.96,3.96
55.74,3.41,3.41,-0.52,-0.52,0.53,0.66,0.45,3.93,3.93,3.93
56.29,3.43,3.42,-0.49,-0.48,0.48,0.63,0.39,3.91,3.91,3.91
56.86,3.45,3.44,-0.44,-0.44,0.44,0.59,0.34,3.89,3.88,3.88
57.42,3.46,3.46,-0.40,-0.40,0.40,0.56,0.28,3.85,3.86,3.85
58.00,3.48,3.48,-0.36,-0.36,0.36,0.52,0.23,3.83,3.83,3.83
58.58,3.50,3.49,-0.31,-0.32,0.32,0.48,0.18,3.81,3.81,3.80
59.16,3.51,3.51,-0.28,-0.27,0.28,0.45,0.13,3.78,3.79,3.78
59.76,3.53,3.52,-0.24,-0.24,0.24,0.41,0.08,3.76,3.76,3.76
60.35,3.54,3.54,-0.20,-0.20,0.20,0.37,0.03,3.73,3.73,3.73
60.96,3.55,3.55,-0.17,-0.16,0.15,0.33,-0.02,3.70,3.70,3.72
61.57,3.57,3.56,-0.11,-0.12,0.11,0.29,-0.06,3.68,3.67,3.68
62.18,3.58,3.58,-0.07,-0.07,0.07,0.25,-0.11,3.65,3.65,3.64
62.80,3.59,3.59,-0.03,-0.02,0.03,0.22,-0.15,3.62,3.62,3.62
63.43,3.61,3.60,0.02,0.02,-0.01,0.18,-0.19,3.59,3.59,3.58
64.07,3.62,3.61,0.06,0.05,-0.05,0.13,-0.23,3.56,3.56,3.56
64.71,3.63,3.63,0.09,0.09,-0.09,0.09,-0.27,3.54,3.54,3.54
65.35,3.64,3.64,0.12,0.12,-0.13,0.05,-0.31,3.51,3.51,3.51
66.01,3.66,3.65,0.16,0.16,-0.16,0.01,-0.34,3.49,3.49,3.49
66.67,3.67,3.66,0.20,0.20,-0.20,-0.03,-0.38,3.47,3.47,3.47
67.33,3.68,3.68,0.23,0.23,-0.23,-0.08,-0.42,3.44,3.44,3.45
68.01,3.69,3.69,0.27,0.27,-0.27,-0.12,-0.45,3.42,3.42,3.42
68.69,3.70,3.70,0.30,0.31,-0.30,-0.16,-0.49,3.39,3.39,3.39
69.37,3.72,3.71,0.35,0.34,-0.34,-0.21,-0.52,3.37,3.37,3.36
70.07,3.72,3.72,0.38,0.38,-0.38,-0.25,-0.56,3.34,3.34,3.34
70.77,3.73,3.73,0.41,0.41,-0.42,-0.30,-0.59,3.31,3.31,3.32
71.48,3.74,3.73,0.45,0.45,-0.45,-0.35,-0.62,3.28,3.28,3.28
72.19,3.75,3.75,0.49,0.49,-0.49,-0.39,-0.66,3.25,3.25,3.26
72.91,3.76,3.75,0.54,0.53,-0.53,-0.44,-0.69,3.22,3.22,3.22
73.64,3.77,3.76,0.58,0.58,-0.58,-0.49,-0.72,3.19,3.19,3.18
74.38,3.77,3.77,0.61,0.62,-0.62,-0.54,-0.76,3.15,3.15,3.16
75.12,3.78,3.78,0.67,0.66,-0.66,-0.59,-0.79,3.11,3.11,3.11
75.87,3.79,3.78,0.71,0.70,-0.70,-0.64,-0.83,3.08,3.08,3.08
76.63,3.79,3.79,0.74,0.75,-0.75,-0.69,-0.86,3.04,3.04,3.05
77.40,3.80,3.79,0.79,0.79,-0.79,-0.74,-0.90,3.01,3.00,3.01
78.17,3.80,3.80,0.84,0.83,-0.83,-0.79,-0.93,2.96,2.97,2.95
78.95,3.81,3.80,0.87,0.88,-0.88,-0.84,-0.97,2.93,2.93,2.93
79.74,3.81,3.80,0.92,0.92,-0.92,-0.89,-1.01,2.89,2.88,2.89
80.54,3.81,3.81,0.96,0.96,-0.97,-0.94,-1.04,2.84,2.84,2.84
81.35,3.81,3.81,1.01,1.01,-1.01,-1.00,-1.08,2.79,2.80,2.80
82.16,3.82,3.81,1.06,1.06,-1.06,-1.05,-1.12,2.76,2.76,2.75
82.98,3.82,3.81,1.10,1.11,-1.10,-1.10,-1.16,2.71,2.71,2.72
83.81,3.82,3.82,1.15,1.15,-1.15,-1.16,-1.21,2.67,2.67,2.66
84.65,3.82,3.81,1.20,1.20,-1.19,-1.21,-1.25,2.62,2.62,2.61
85.50,3.82,3.81,1.24,1.24,-1.24,-1.26,-1.29,2.57,2.57,2.57
86.35,3.81,3.81,1.28,1.29,-1.29,-1.32,-1.34,2.52,2.52,2.52
87.22,3.81,3.81,1.33,1.33,-1.33,-1.37,-1.39,2.47,2.47,2.48
88.09,3.81,3.80,1.38,1.37,-1.38,-1.43,-1.43,2.43,2.42,2.42
88.97,3.81,3.80,1.42,1.42,-1.42,-1.48,-1.48,2.38,2.38,2.38
89.86,3.80,3.80,1.46,1.47,-1.47,-1.54,-1.53,2.33,2.33,2.33
90.76,3.80,3.79,1.53,1.52,-1.51,-1.59,-1.58,2.28,2.28,2.27
91.66,3.79,3.79,1.56,1.57,-1.56,-1.65,-1.64,2.23,2.23,2.23
92.58,3.79,3.78,1.62,1.61,-1.60,-1.70,-1.69,2.18,2.18,2.16
93.51,3.78,3.77,1.64,1.65,-1.65,-1.75,-1.74,2.12,2.12,2.13
94.44,3.77,3.77,1.69,1.69,-1.70,-1.81,-1.80,2.07,2.07,2.08
95.39,3.76,3.76,1.73,1.74,-1.74,-1.86,-1.86,2.01,2.01,2.02
96.34,3.75,3.75,1.79,1.79,-1.79,-1.92,-1.91,1.96,1.96,1.96
97.30,3.75,3.74,1.84,1.84,-1.84,-1.97,-1.97,1.91,1.91,1.90
98.28,3.74,3.73,1.89,1.89,-1.89,-2.02,-2.03,1.85,1.85,1.85
99.26,3.73,3.72,1.94,1.94,-1.93,-2.08,-2.09,1.79,1.79,1.78
100.25,3.71,3.71,1.98,1.98,-1.98,-2.13,-2.15,1.72,1.72,1.73
101.25,3.70,3.70,2.03,2.03,-2.03,-2.18,-2.21,1.66,1.66,1.67
102.27,3.69,3.68,2.08,2.08,-2.08,-2.23,-2.28,1.60,1.60,1.60
103.29,3.68,3.67,2.14,2.13,-2.13,-2.28,-2.34,1.55,1.54,1.54
104.32,3.66,3.66,2.17,2.18,-2.18,-2.33,-2.40,1.48,1.48,1.48
105.37,3.65,3.65,2.22,2.23,-2.23,-2.39,-2.46,1.42,1.42,1.42
106.42,3.64,3.63,2.28,2.27,-2.27,-2.43,-2.52,1.36,1.36,1.36
107.48,3.62,3.62,2.32,2.32,-2.32,-2.48,-2.58,1.29,1.29,1.29
108.56,3.60,3.60,2.37,2.37,-2.37,-2.53,-2.64,1.22,1.23,1.23
109.64,3.59,3.58,2.43,2.42,-2.42,-2.58,-2.70,1.16,1.16,1.16
110.74,3.57,3.57,2.46,2.47,-2.47,-2.63,-2.75,1.09,1.10,1.10
111.85,3.56,3.55,2.52,2.52,-2.52,-2.67,-2.81,1.03,1.03,1.04
112.97,3.54,3.53,2.58,2.57,-2.57,-2.72,-2.86,0.96,0.96,0.95
114.10,3.52,3.52,2.62,2.62,-2.62,-2.76,-2.91,0.89,0.89,0.90
115.24,3.50,3.50,2.66,2.67,-2.67,-2.80,-2.95,0.83,0.83,0.83
116.39,3.48,3.48,2.72,2.72,-2.72,-2.85,-3.00,0.76,0.76,0.76
117.55,3.47,3.46,2.77,2.77,-2.76,-2.89,-3.03,0.70,0.70,0.69
118.73,3.45,3.44,2.82,2.81,-2.81,-2.93,-3.07,0.64,0.64,0.63
119.92,3.43,3.43,2.85,2.85,-2.85,-2.97,-3.10,0.58,0.58,0.58
121.12,3.41,3.41,2.89,2.89,-2.89,-3.01,-3.13,0.51,0.51,0.51
122.33,3.39,3.38,2.93,2.93,-2.93,-3.04,-3.16,0.45,0.45,0.45
123.55,3.37,3.37,2.97,2.97,-2.97,-3.08,-3.18,0.39,0.39,0.40
124.79,3.35,3.35,3.01,3.01,-3.01,-3.11,-3.19,0.33,0.34,0.34
126.03,3.34,3.33,3.05,3.05,-3.05,-3.15,-3.20,0.28,0.28,0.29
127.29,3.32,3.31,3.09,3.09,-3.09,-3.18,-3.21,0.23,0.23,0.23
128.57,3.30,3.30,3.14,3.13,-3.13,-3.21,-3.22,0.17,0.17,0.16
129.85,3.28,3.28,3.17,3.17,-3.16,-3.24,-3.21,0.11,0.11,0.11
131.15,3.26,3.26,3.19,3.20,-3.19,-3.27,-3.21,0.06,0.06,0.06
132.46,3.24,3.24,3.23,3.23,-3.23,-3.30,-3.20,0.01,0.01,0.00
133.79,3.22,3.22,3.25,3.25,-3.25,-3.32,-3.19,-0.04,-0.04,-0.03
135.12,3.20,3.20,3.28,3.28,-3.28,-3.35,-3.17,-0.08,-0.08,-0.09
136.48,3.18,3.18,3.30,3.30,-3.30,-3.37,-3.16,-0.13,-0.13,-0.12
137.84,3.16,3.16,3.31,3.32,-3.32,-3.39,-3.13,-0.16,-0.16,-0.16
139.22,3.14,3.13,3.35,3.34,-3.34,-3.41,-3.11,-0.20,-0.20,-0.21
140.61,3.12,3.11,3.37,3.35,-3.35,-3.43,-3.08,-0.24,-0.24,-0.25
142.02,3.09,3.09,3.35,3.36,-3.36,-3.45,-3.06,-0.28,-0.27,-0.27
143.44,3.07,3.07,3.36,3.37,-3.37,-3.46,-3.03,-0.31,-0.30,-0.30
144.87,3.05,3.04,3.38,3.38,-3.38,-3.48,-3.00,-0.33,-0.34,-0.34
146.32,3.03,3.02,3.39,3.38,-3.38,-3.49,-2.97,-0.36,-0.36,-0.37
147.78,3.00,3.00,3.38,3.39,-3.39,-3.50,-2.94,-0.39,-0.39,-0.39
149.26,2.98,2.97,3.39,3.39,-3.39,-3.51,-2.91,-0.42,-0.42,-0.41
150.75,2.95,2.95,3.40,3.39,-3.39,-3.52,-2.88,-0.45,-0.45,-0.45
152.26,2.93,2.92,3.40,3.40,-3.40,-3.53,-2.85,-0.47,-0.47,-0.48
153.78,2.90,2.90,3.40,3.40,-3.40,-3.53,-2.82,-0.50,-0.50,-0.50
155.32,2.87,2.87,3.39,3.40,-3.40,-3.53,-2.79,-0.53,-0.53,-0.53
156.88,2.85,2.84,3.40,3.40,-3.40,-3.54,-2.76,-0.55,-0.56,-0.55
158.44,2.82,2.81,3.40,3.40,-3.40,-3.54,-2.73,-0.58,-0.58,-0.58
160.03,2.79,2.79,3.40,3.40,-3.40,-3.53,-2.71,-0.61,-0.61,-0.62
161.63,2.76,2.76,3.40,3.40,-3.40,-3.53,-2.68,-0.64,-0.64,-0.65
163.24,2.73,2.73,3.39,3.39,-3.39,-3.53,-2.66,-0.67,-0.67,-0.67
164.88,2.70,2.69,3.38,3.39,-3.39,-3.52,-2.64,-0.69,-0.69,-0.69
166.53,2.67,2.66,3.38,3.38,-3.38,-3.51,-2.62,-0.72,-0.72,-0.72
168.19,2.63,2.63,3.38,3.38,-3.38,-3.50,-2.60,-0.76,-0.75,-0.76
169.87,2.60,2.60,3.38,3.38,-3.38,-3.49,-2.59,-0.78,-0.78,-0.78
171.57,2.57,2.56,3.38,3.37,-3.37,-3.48,-2.57,-0.81,-0.81,-0.81
173.29,2.53,2.53,3.36,3.37,-3.37,-3.47,-2.56,-0.85,-0.84,-0.84
175.02,2.50,2.49,3.37,3.37,-3.37,-3.45,-2.55,-0.88,-0.88,-0.87
176.77,2.46,2.46,3.37,3.37,-3.37,-3.44,-2.54,-0.92,-0.91,-0.92
178.54,2.43,2.42,3.38,3.37,-3.37,-3.42,-2.54,-0.95,-0.95,-0.95
180.32,2.39,2.39,3.37,3.37,-3.37,-3.40,-2.53,-0.99,-0.98,-0.98
182.13,2.36,2.35,3.37,3.37,-3.37,-3.38,-2.53,-1.02,-1.02,-1.02
183.95,2.32,2.31,3.37,3.37,-3.37,-3.35,-2.53,-1.06,-1.06,-1.06
185.79,2.28,2.28,3.37,3.37,-3.37,-3.33,-2.54,-1.09,-1.09,-1.09
187.65,2.24,2.24,3.37,3.37,-3.36,-3.30,-2.54,-1.13,-1.13,-1.13
189.52,2.21,2.20,3.37,3.36,-3.36,-3.28,-2.55,-1.15,-1.15,-1.16
191.42,2.17,2.16,3.36,3.35,-3.35,-3.25,-2.55,-1.18,-1.18,-1.19
193.33,2.13,2.12,3.33,3.33,-3.34,-3.22,-2.56,-1.21,-1.22,-1.21
195.27,2.08,2.08,3.31,3.32,-3.32,-3.19,-2.57,-1.25,-1.25,-1.24
197.22,2.04,2.04,3.30,3.31,-3.31,-3.16,-2.59,-1.27,-1.27,-1.27
199.19,2.00,1.99,3.31,3.29,-3.29,-3.12,-2.60,-1.30,-1.30,-1.31
201.18,1.95,1.95,3.27,3.28,-3.27,-3.09,-2.62,-1.33,-1.32,-1.33
203.19,1.91,1.90,3.25,3.25,-3.25,-3.05,-2.63,-1.34,-1.35,-1.34
205.23,1.86,1.86,3.23,3.22,-3.23,-3.02,-2.65,-1.37,-1.37,-1.37
207.28,1.82,1.81,3.19,3.20,-3.20,-2.98,-2.67,-1.39,-1.39,-1.38
209.35,1.77,1.76,3.18,3.17,-3.17,-2.94,-2.68,-1.41,-1.41,-1.41
211.44,1.72,1.72,3.15,3.14,-3.14,-2.90,-2.70,-1.43,-1.43,-1.43
213.56,1.67,1.67,3.11,3.11,-3.11,-2.86,-2.72,-1.45,-1.45,-1.45
215.69,1.62,1.62,3.07,3.07,-3.08,-2.82,-2.74,-1.46,-1.46,-1.45
217.85,1.58,1.57,3.04,3.04,-3.04,-2.78,-2.75,-1.47,-1.47,-1.46
220.03,1.53,1.52,3.01,3.01,-3.00,-2.73,-2.77,-1.48,-1.48,-1.49
222.23,1.48,1.48,2.97,2.97,-2.96,-2.69,-2.78,-1.49,-1.49,-1.50
224.45,1.43,1.43,2.91,2.92,-2.92,-2.64,-2.79,-1.49,-1.49,-1.49
226.70,1.38,1.37,2.88,2.87,-2.87,-2.60,-2.80,-1.50,-1.50,-1.50
228.96,1.33,1.33,2.83,2.82,-2.83,-2.55,-2.81,-1.50,-1.50,-1.50
231.25,1.28,1.28,2.77,2.77,-2.77,-2.50,-2.82,-1.50,-1.50,-1.49
233.57,1.24,1.23,2.72,2.72,-2.72,-2.45,-2.82,-1.49,-1.49,-1.48
235.90,1.19,1.18,2.67,2.67,-2.67,-2.40,-2.82,-1.48,-1.48,-1.48
238.26,1.14,1.14,2.62,2.61,-2.61,-2.36,-2.82,-1.47,-1.47,-1.48
240.64,1.09,1.09,2.55,2.55,-2.55,-2.31,-2.81,-1.46,-1.46,-1.46
243.05,1.05,1.04,2.49,2.49,-2.49,-2.25,-2.80,-1.44,-1.45,-1.45
245.48,1.00,1.00,2.42,2.43,-2.43,-2.20,-2.79,-1.43,-1.43,-1.43
247.93,0.95,0.95,2.36,2.36,-2.36,-2.15,-2.77,-1.42,-1.41,-1.42
250.41,0.91,0.90,2.31,2.30,-2.30,-2.10,-2.75,-1.39,-1.40,-1.40
252.92,0.86,0.86,2.23,2.23,-2.23,-2.05,-2.72,-1.38,-1.38,-1.37
255.45,0.82,0.82,2.16,2.17,-2.17,-1.99,-2.69,-1.35,-1.35,-1.35
258.00,0.78,0.78,2.10,2.10,-2.11,-1.94,-2.66,-1.33,-1.33,-1.33
260.58,0.74,0.73,2.05,2.04,-2.04,-1.89,-2.62,-1.31,-1.31,-1.31
263.19,0.70,0.69,1.98,1.98,-1.98,-1.83,-2.58,-1.28,-1.29,-1.29
265.82,0.65,0.65,1.91,1.92,-1.91,-1.78,-2.53,-1.27,-1.26,-1.26
268.48,0.62,0.61,1.86,1.85,-1.85,-1.72,-2.48,-1.24,-1.24,-1.24
271.16,0.58,0.57,1.78,1.79,-1.79,-1.67,-2.43,-1.21,-1.21,-1.21
273.87,0.54,0.54,1.73,1.72,-1.72,-1.61,-2.37,-1.19,-1.19,-1.19
276.61,0.50,0.50,1.65,1.66,-1.66,-1.56,-2.31,-1.17,-1.17,-1.16
279.38,0.46,0.45,1.60,1.60,-1.60,-1.50,-2.25,-1.14,-1.14,-1.14
282.17,0.42,0.42,1.53,1.53,-1.53,-1.45,-2.19,-1.12,-1.12,-1.12
284.99,0.38,0.38,1.47,1.47,-1.47,-1.39,-2.12,-1.10,-1.09,-1.09
287.84,0.35,0.34,1.41,1.41,-1.41,-1.34,-2.05,-1.06,-1.07,-1.07
290.72,0.31,0.30,1.34,1.34,-1.34,-1.28,-1.99,-1.04,-1.04,-1.03
293.63,0.27,0.27,1.28,1.28,-1.28,-1.23,-1.91,-1.01,-1.01,-1.02
296.57,0.23,0.23,1.21,1.21,-1.21,-1.17,-1.84,-0.98,-0.98,-0.98
299.53,0.19,0.19,1.14,1.14,-1.14,-1.12,-1.77,-0.95,-0.95,-0.96
302.53,0.15,0.15,1.07,1.07,-1.07,-1.06,-1.70,-0.92,-0.92,-0.93
305.55,0.11,0.11,0.99,1.00,-0.99,-1.01,-1.62,-0.89,-0.89,-0.88
308.61,0.07,0.07,0.92,0.92,-0.92,-0.95,-1.55,-0.86,-0.85,-0.86
311.69,0.03,0.02,0.85,0.84,-0.85,-0.90,-1.47,-0.82,-0.82,-0.82
314.81,-0.01,-0.02,0.77,0.77,-0.77,-0.84,-1.40,-0.79,-0.79,-0.78
317.96,-0.06,-0.06,0.69,0.70,-0.70,-0.79,-1.32,-0.76,-0.76,-0.76
321.14,-0.10,-0.10,0.63,0.62,-0.62,-0.73,-1.24,-0.73,-0.73,-0.73
324.35,-0.14,-0.15,0.56,0.55,-0.55,-0.68,-1.17,-0.70,-0.70,-0.70
327.59,-0.19,-0.19,0.47,0.48,-0.48,-0.62,-1.09,-0.67,-0.67,-0.67
330.87,-0.23,-0.24,0.40,0.40,-0.41,-0.57,-1.02,-0.64,-0.64,-0.64
334.18,-0.28,-0.28,0.34,0.33,-0.33,-0.52,-0.94,-0.62,-0.62,-0.62
337.52,-0.33,-0.33,0.26,0.26,-0.26,-0.46,-0.87,-0.60,-0.59,-0.59
340.90,-0.37,-0.38,0.19,0.19,-0.19,-0.41,-0.80,-0.56,-0.57,-0.57
344.30,-0.42,-0.43,0.12,0.12,-0.12,-0.36,-0.72,-0.54,-0.54,-0.55
347.75,-0.47,-0.47,0.05,0.05,-0.05,-0.31,-0.65,-0.52,-0.52,-0.52
351.23,-0.52,-0.53,-0.02,-0.02,0.02,-0.25,-0.58,-0.51,-0.51,-0.50
354.74,-0.57,-0.57,-0.09,-0.09,0.08,-0.20,-0.50,-0.49,-0.49,-0.49
358.28,-0.61,-0.62,-0.15,-0.15,0.15,-0.15,-0.43,-0.47,-0.47,-0.47
361.87,-0.65,-0.66,-0.20,-0.21,0.21,-0.10,-0.36,-0.45,-0.45,-0.45
365.49,-0.69,-0.69,-0.27,-0.27,0.27,-0.05,-0.29,-0.43,-0.43,-0.42
369.14,-0.73,-0.73,-0.32,-0.32,0.32,-0.00,-0.22,-0.41,-0.41,-0.41
372.83,-0.76,-0.77,-0.37,-0.37,0.38,0.05,-0.15,-0.39,-0.39,-0.40
376.56,-0.80,-0.80,-0.43,-0.43,0.43,0.10,-0.08,-0.37,-0.37,-0.38
380.33,-0.83,-0.83,-0.49,-0.48,0.48,0.15,-0.01,-0.35,-0.35,-0.35
384.13,-0.86,-0.86,-0.53,-0.53,0.53,0.20,0.06,-0.33,-0.33,-0.33
387.97,-0.88,-0.89,-0.57,-0.58,0.58,0.24,0.13,-0.31,-0.31,-0.31
391.85,-0.91,-0.91,-0.62,-0.62,0.62,0.29,0.20,-0.29,-0.29,-0.29
395.77,-0.93,-0.93,-0.67,-0.66,0.66,0.34,0.26,-0.27,-0.27,-0.27
399.73,-0.94,-0.95,-0.70,-0.70,0.70,0.38,0.33,-0.25,-0.25,-0.25
403.72,-0.95,-0.95,-0.73,-0.73,0.73,0.43,0.40,-0.23,-0.23,-0.23
407.76,-0.95,-0.96,-0.75,-0.75,0.75,0.47,0.46,-0.20,-0.21,-0.21
411.84,-0.95,-0.95,-0.77,-0.77,0.77,0.52,0.53,-0.19,-0.19,-0.18
415.96,-0.94,-0.95,-0.78,-0.78,0.78,0.56,0.59,-0.16,-0.16,-0.16
420.12,-0.93,-0.93,-0.79,-0.79,0.79,0.61,0.65,-0.15,-0.14,-0.14
424.32,-0.90,-0.91,-0.79,-0.79,0.79,0.65,0.71,-0.12,-0.12,-0.11
428.56,-0.88,-0.88,-0.79,-0.79,0.79,0.69,0.77,-0.10,-0.10,-0.10
432.85,-0.85,-0.85,-0.78,-0.78,0.78,0.74,0.83,-0.07,-0.07,-0.08
437.18,-0.81,-0.82,-0.77,-0.77,0.77,0.78,0.89,-0.04,-0.04,-0.05
441.55,-0.77,-0.78,-0.76,-0.75,0.76,0.82,0.95,-0.01,-0.02,-0.02
445.96,-0.73,-0.74,-0.74,-0.74,0.75,0.86,1.00,0.01,0.01,0.00
450.42,-0.70,-0.70,-0.72,-0.73,0.73,0.90,1.06,0.02,0.02,0.02
454.93,-0.66,-0.66,-0.72,-0.71,0.71,0.94,1.11,0.04,0.04,0.06
459.48,-0.61,-0.61,-0.69,-0.69,0.68,0.98,1.16,0.07,0.07,0.08
464.07,-0.55,-0.56,-0.66,-0.67,0.65,1.01,1.20,0.10,0.10,0.11
468.71,-0.49,-0.49,-0.64,-0.63,0.63,1.05,1.25,0.13,0.13,0.15
473.40,-0.43,-0.43,-0.60,-0.60,0.60,1.09,1.29,0.17,0.17,0.17
478.13,-0.37,-0.38,-0.57,-0.57,0.58,1.13,1.33,0.20,0.20,0.20
482.91,-0.33,-0.33,-0.56,-0.55,0.57,1.16,1.37,0.23,0.24,0.22
487.74,-0.29,-0.30,-0.55,-0.55,0.56,1.20,1.40,0.27,0.27,0.25
492.62,-0.27,-0.28,-0.56,-0.56,0.58,1.23,1.43,0.30,0.29,0.28
497.55,-0.28,-0.28,-0.59,-0.59,0.60,1.26,1.46,0.32,0.32,0.30
502.52,-0.29,-0.30,-0.64,-0.63,0.64,1.30,1.48,0.34,0.34,0.34
507.55,-0.32,-0.32,-0.69,-0.69,0.69,1.33,1.51,0.36,0.37,0.36
512.62,-0.35,-0.36,-0.75,-0.75,0.75,1.36,1.53,0.39,0.39,0.39
