frequency,raw,smoothed,error,error_smoothed,equalization,parametric_eq,fixed_band_eq,equalized_raw,equalized_smoothed,target
20.00,0.87,0.87,-0.21,-0.21,0.21,-0.18,-0.66,1.08,1.08,1.08
20.20,0.92,0.92,-0.19,-0.19,0.19,-0.20,-0.68,1.12,1.12,1.11
20.40,0.97,0.97,-0.17,-0.17,0.17,-0.22,-0.70,1.14,1.14,1.14
20.61,1.02,1.02,-0.14,-0.15,0.15,-0.24,-0.72,1.17,1.17,1.16
20.81,1.07,1.07,-0.12,-0.12,0.12,-0.26,-0.74,1.19,1.19,1.19
21.02,1.12,1.12,-0.10,-0.09,0.09,-0.28,-0.77,1.21,1.21,1.22
21.23,1.17,1.17,-0.06,-0.06,0.06,-0.30,-0.79,1.23,1.23,1.23
21.44,1.22,1.22,-0.02,-0.02,0.02,-0.32,-0.81,1.24,1.24,1.24
21.66,1.27,1.27,0.02,0.03,-0.02,-0.34,-0.84,1.25,1.25,1.25
21.87,1.32,1.32,0.07,0.07,-0.06,-0.37,-0.86,1.26,1.26,1.25
22.09,1.37,1.37,0.11,0.11,-0.11,-0.39,-0.89,1.26,1.26,1.26
22.31,1.41,1.42,0.15,0.16,-0.16,-0.41,-0.91,1.25,1.26,1.26
22.54,1.46,1.46,0.20,0.20,-0.21,-0.43,-0.94,1.25,1.25,1.26
22.76,1.51,1.51,0.26,0.26,-0.26,-0.46,-0.97,1.25,1.25,1.26
22.99,1.56,1.57,0.32,0.32,-0.32,-0.48,-0.99,1.25,1.25,1.25
23.22,1.62,1.62,0.38,0.37,-0.37,-0.51,-1.02,1.25,1.25,1.25
23.45,1.67,1.67,0.43,0.43,-0.42,-0.53,-1.05,1.25,1.25,1.25
23.69,1.72,1.72,0.48,0.48,-0.47,-0.56,-1.08,1.25,1.25,1.24
23.92,1.77,1.77,0.53,0.52,-0.52,-0.58,-1.11,1.25,1.25,1.24
24.16,1.81,1.82,0.56,0.57,-0.56,-0.61,-1.14,1.25,1.25,1.25
24.40,1.86,1.86,0.61,0.61,-0.61,-0.63,-1.17,1.26,1.25,1.25
24.65,1.89,1.90,0.65,0.65,-0.65,-0.66,-1.20,1.24,1.25,1.24
24.89,1.93,1.93,0.69,0.69,-0.69,-0.69,-1.24,1.24,1.24,1.24
25.14,1.97,1.97,0.73,0.73,-0.74,-0.72,-1.27,1.24,1.23,1.24
25.39,2.01,2.02,0.77,0.78,-0.79,-0.75,-1.30,1.23,1.23,1.24
25.65,2.06,2.06,0.82,0.83,-0.84,-0.77,-1.33,1.23,1.22,1.24
25.91,2.11,2.11,0.88,0.88,-0.89,-0.80,-1.37,1.22,1.22,1.23
26.16,2.16,2.17,0.94,0.94,-0.94,-0.83,-1.40,1.22,1.22,1.23
26.43,2.22,2.22,1.00,1.00,-0.99,-0.86,-1.43,1.23,1.23,1.22
26.69,2.27,2.27,1.05,1.05,-1.04,-0.90,-1.46,1.23,1.23,1.22
26.96,2.32,2.32,1.10,1.10,-1.09,-0.93,-1.50,1.23,1.23,1.22
27.23,2.36,2.36,1.14,1.14,-1.13,-0.96,-1.53,1.23,1.23,1.22
27.50,2.39,2.39,1.17,1.18,-1.17,-0.99,-1.56,1.22,1.22,1.22
27.77,2.41,2.41,1.21,1.20,-1.20,-1.02,-1.59,1.21,1.22,1.21
28.05,2.43,2.43,1.23,1.23,-1.22,-1.06,-1.62,1.21,1.21,1.21
28.33,2.44,2.44,1.25,1.24,-1.25,-1.09,-1.64,1.20,1.20,1.19
28.62,2.45,2.46,1.26,1.26,-1.27,-1.12,-1.67,1.19,1.19,1.19
28.90,2.47,2.47,1.28,1.28,-1.29,-1.16,-1.69,1.18,1.18,1.19
29.19,2.49,2.49,1.31,1.31,-1.31,-1.19,-1.72,1.18,1.18,1.18
29.48,2.51,2.52,1.32,1.33,-1.34,-1.23,-1.74,1.18,1.18,1.19
29.78,2.54,2.54,1.37,1.36,-1.37,-1.26,-1.76,1.18,1.18,1.18
30.08,2.57,2.57,1.40,1.40,-1.40,-1.30,-1.78,1.17,1.17,1.17
30.38,2.60,2.60,1.44,1.44,-1.44,-1.34,-1.79,1.16,1.16,1.16
30.68,2.63,2.63,1.47,1.48,-1.48,-1.37,-1.81,1.15,1.15,1.16
30.99,2.67,2.67,1.52,1.52,-1.53,-1.41,-1.82,1.15,1.15,1.15
31.30,2.71,2.71,1.57,1.57,-1.57,-1.45,-1.83,1.14,1.14,1.15
31.61,2.76,2.76,1.62,1.62,-1.62,-1.48,-1.83,1.14,1.14,1.14
31.93,2.80,2.80,1.67,1.67,-1.67,-1.52,-1.84,1.14,1.14,1.13
32.24,2.84,2.84,1.72,1.72,-1.71,-1.56,-1.84,1.14,1.13,1.12
32.57,2.87,2.87,1.76,1.76,-1.75,-1.60,-1.84,1.13,1.13,1.12
32.89,2.90,2.90,1.79,1.79,-1.78,-1.63,-1.84,1.12,1.12,1.11
33.22,2.92,2.92,1.82,1.82,-1.82,-1.67,-1.84,1.11,1.11,1.10
33.55,2.94,2.94,1.84,1.84,-1.85,-1.71,-1.84,1.10,1.09,1.10
33.89,2.95,2.96,1.87,1.87,-1.88,-1.75,-1.83,1.08,1.08,1.09
34.23,2.97,2.98,1.89,1.90,-1.91,-1.78,-1.82,1.07,1.07,1.08
34.57,3.00,3.00,1.93,1.93,-1.93,-1.82,-1.82,1.07,1.06,1.07
34.92,3.02,3.02,1.97,1.96,-1.96,-1.86,-1.81,1.06,1.06,1.06
35.27,3.04,3.04,1.99,2.00,-1.99,-1.89,-1.80,1.05,1.05,1.05
35.62,3.06,3.06,2.02,2.02,-2.02,-1.93,-1.79,1.04,1.04,1.04
35.97,3.08,3.08,2.06,2.05,-2.04,-1.96,-1.77,1.04,1.04,1.03
36.33,3.09,3.09,2.07,2.07,-2.07,-2.00,-1.76,1.03,1.02,1.02
36.70,3.09,3.10,2.08,2.09,-2.09,-2.03,-1.75,1.01,1.01,1.01
37.06,3.10,3.10,2.11,2.10,-2.10,-2.07,-1.74,1.00,1.00,0.99
37.43,3.10,3.10,2.11,2.12,-2.12,-2.10,-1.73,0.98,0.98,0.99
37.81,3.10,3.11,2.13,2.13,-2.13,-2.13,-1.71,0.97,0.97,0.98
38.19,3.11,3.11,2.15,2.14,-2.15,-2.17,-1.70,0.96,0.96,0.96
38.57,3.11,3.11,2.16,2.16,-2.17,-2.20,-1.69,0.95,0.95,0.96
38.95,3.12,3.12,2.18,2.18,-2.19,-2.23,-1.68,0.94,0.94,0.94
39.34,3.13,3.13,2.21,2.20,-2.21,-2.25,-1.67,0.93,0.93,0.93
39.74,3.14,3.14,2.23,2.23,-2.23,-2.28,-1.66,0.91,0.91,0.91
40.14,3.15,3.15,2.25,2.25,-2.25,-2.31,-1.65,0.90,0.90,0.91
40.54,3.16,3.16,2.27,2.27,-2.27,-2.33,-1.65,0.89,0.89,0.89
40.94,3.17,3.17,2.29,2.29,-2.29,-2.36,-1.64,0.88,0.88,0.88
41.35,3.17,3.18,2.30,2.31,-2.30,-2.38,-1.64,0.87,0.87,0.87
41.76,3.18,3.18,2.32,2.32,-2.31,-2.40,-1.63,0.87,0.87,0.86
42.18,3.18,3.18,2.33,2.33,-2.32,-2.42,-1.63,0.86,0.86,0.86
42.60,3.17,3.17,2.33,2.33,-2.33,-2.44,-1.63,0.85,0.85,0.84
43.03,3.16,3.16,2.33,2.33,-2.33,-2.45,-1.63,0.84,0.83,0.83
43.46,3.14,3.14,2.33,2.33,-2.33,-2.47,-1.63,0.81,0.81,0.81
43.90,3.12,3.12,2.34,2.33,-2.33,-2.48,-1.63,0.79,0.79,0.79
44.33,3.10,3.10,2.33,2.33,-2.34,-2.49,-1.63,0.77,0.76,0.77
44.78,3.08,3.09,2.33,2.34,-2.35,-2.50,-1.64,0.73,0.74,0.75
45.23,3.08,3.08,2.35,2.35,-2.37,-2.50,-1.65,0.71,0.71,0.73
45.68,3.09,3.09,2.38,2.37,-2.39,-2.51,-1.65,0.70,0.70,0.71
46.13,3.10,3.11,2.41,2.41,-2.42,-2.51,-1.66,0.68,0.69,0.70
46.60,3.13,3.13,2.45,2.45,-2.45,-2.51,-1.67,0.68,0.68,0.69
47.06,3.15,3.15,2.49,2.49,-2.47,-2.51,-1.68,0.68,0.68,0.67
47.53,3.17,3.17,2.53,2.52,-2.49,-2.51,-1.70,0.68,0.67,0.65
48.01,3.16,3.16,2.53,2.53,-2.51,-2.50,-1.71,0.66,0.65,0.64
48.49,3.13,3.13,2.53,2.52,-2.51,-2.50,-1.72,0.62,0.62,0.61
48.97,3.08,3.08,2.51,2.51,-2.51,-2.49,-1.74,0.58,0.58,0.57
49.46,3.03,3.03,2.49,2.49,-2.49,-2.48,-1.76,0.54,0.54,0.54
49.96,2.98,2.98,2.47,2.47,-2.48,-2.46,-1.77,0.50,0.50,0.51
50.46,2.94,2.94,2.44,2.45,-2.46,-2.45,-1.79,0.48,0.48,0.50
50.96,2.90,2.91,2.43,2.43,-2.44,-2.43,-1.81,0.46,0.46,0.48
51.47,2.87,2.87,2.43,2.42,-2.43,-2.42,-1.83,0.45,0.45,0.44
51.99,2.84,2.84,2.42,2.41,-2.41,-2.40,-1.85,0.43,0.43,0.42
52.51,2.80,2.80,2.40,2.40,-2.40,-2.38,-1.87,0.41,0.41,0.41
53.03,2.76,2.76,2.38,2.38,-2.38,-2.35,-1.89,0.38,0.38,0.38
53.56,2.72,2.72,2.37,2.37,-2.37,-2.33,-1.91,0.36,0.36,0.36
54.10,2.68,2.68,2.35,2.35,-2.35,-2.30,-1.93,0.34,0.33,0.33
54.64,2.63,2.63,2.33,2.33,-2.32,-2.28,-1.94,0.31,0.31,0.31
55.18,2.58,2.58,2.30,2.30,-2.30,-2.25,-1.96,0.28,0.28,0.28
55.74,2.53,2.53,2.28,2.27,-2.27,-2.22,-1.98,0.26,0.25,0.25
56.29,2.47,2.48,2.24,2.25,-2.25,-2.19,-2.00,0.22,0.23,0.23
56.86,2.42,2.42,2.22,2.22,-2.22,-2.16,-2.01,0.20,0.20,0.21
57.42,2.37,2.37,2.19,2.19,-2.19,-2.13,-2.03,0.18,0.18,0.18
58.00,2.32,2.32,2.16,2.16,-2.16,-2.09,-2.04,0.16,0.16,0.16
58.58,2.27,2.27,2.13,2.13,-2.13,-2.06,-2.05,0.14,0.14,0.14
59.16,2.22,2.22,2.10,2.10,-2.11,-2.03,-2.06,0.11,0.11,0.12
59.76,2.17,2.17,2.08,2.08,-2.09,-1.99,-2.06,0.09,0.08,0.10
60.35,2.12,2.12,2.06,2.05,-2.07,-1.95,-2.07,0.05,0.05,0.06
60.96,2.07,2.08,2.03,2.04,-2.05,-1.92,-2.07,0.02,0.03,0.04
61.57,2.03,2.03,2.03,2.03,-2.03,-1.88,-2.07,-0.00,-0.00,-0.00
62.18,1.99,1.99,2.03,2.02,-2.01,-1.84,-2.07,-0.02,-0.03,-0.03
62.80,1.94,1.94,2.00,2.00,-1.99,-1.81,-2.07,-0.05,-0.05,-0.06
63.43,1.88,1.89,1.98,1.98,-1.97,-1.77,-2.06,-0.08,-0.08,-0.09
64.07,1.82,1.82,1.94,1.94,-1.93,-1.73,-2.05,-0.11,-0.11,-0.12
64.71,1.75,1.75,1.90,1.90,-1.89,-1.69,-2.04,-0.14,-0.14,-0.15
65.35,1.67,1.67,1.85,1.85,-1.84,-1.65,-2.02,-0.17,-0.17,-0.17
66.01,1.58,1.58,1.78,1.79,-1.79,-1.61,-2.01,-0.20,-0.20,-0.20
66.67,1.49,1.49,1.72,1.72,-1.73,-1.58,-1.99,-0.23,-0.23,-0.23
67.33,1.40,1.40,1.66,1.66,-1.66,-1.54,-1.97,-0.26,-0.26,-0.26
68.01,1.30,1.31,1.59,1.60,-1.60,-1.50,-1.95,-0.29,-0.29,-0.29
68.69,1.21,1.21,1.53,1.53,-1.53,-1.46,-1.93,-0.32,-0.32,-0.32
69.37,1.11,1.11,1.47,1.46,-1.47,-1.42,-1.90,-0.36,-0.36,-0.35
70.07,1.01,1.02,1.40,1.40,-1.41,-1.39,-1.88,-0.40,-0.40,-0.39
70.77,0.92,0.92,1.33,1.34,-1.36,-1.35,-1.85,-0.44,-0.43,-0.41
71.48,0.84,0.84,1.29,1.29,-1.30,-1.31,-1.82,-0.46,-0.46,-0.45
72.19,0.76,0.76,1.24,1.24,-1.24,-1.28,-1.79,-0.48,-0.48,-0.48
72.91,0.68,0.68,1.20,1.20,-1.18,-1.24,-1.76,-0.49,-0.49,-0.52
73.64,0.59,0.59,1.15,1.14,-1.11,-1.21,-1.73,-0.52,-0.52,-0.55
74.38,0.48,0.48,1.06,1.06,-1.04,-1.17,-1.70,-0.55,-0.56,-0.58
75.12,0.35,0.35,0.97,0.97,-0.96,-1.14,-1.67,-0.61,-0.61,-0.62
75.87,0.22,0.23,0.87,0.87,-0.89,-1.10,-1.65,-0.66,-0.66,-0.65
76.63,0.11,0.11,0.79,0.79,-0.81,-1.07,-1.62,-0.70,-0.70,-0.68
77.40,0.01,0.01,0.72,0.73,-0.75,-1.04,-1.59,-0.73,-0.73,-0.71
78.17,-0.07,-0.07,0.68,0.67,-0.69,-1.01,-1.56,-0.75,-0.76,-0.75
78.95,-0.15,-0.14,0.63,0.63,-0.64,-0.97,-1.53,-0.79,-0.78,-0.77
79.74,-0.21,-0.21,0.60,0.60,-0.60,-0.94,-1.50,-0.81,-0.81,-0.81
80.54,-0.26,-0.26,0.58,0.58,-0.58,-0.91,-1.48,-0.84,-0.84,-0.84
81.35,-0.31,-0.31,0.57,0.57,-0.57,-0.88,-1.45,-0.88,-0.88,-0.88
82.16,-0.35,-0.35,0.56,0.56,-0.56,-0.85,-1.43,-0.91,-0.91,-0.91
82.98,-0.39,-0.39,0.55,0.56,-0.56,-0.83,-1.40,-0.95,-0.95,-0.94
83.81,-0.42,-0.42,0.57,0.57,-0.56,-0.80,-1.38,-0.98,-0.98,-0.99
84.65,-0.45,-0.45,0.58,0.57,-0.56,-0.77,-1.36,-1.01,-1.01,-1.02
85.50,-0.48,-0.48,0.57,0.58,-0.57,-0.75,-1.34,-1.05,-1.05,-1.05
86.35,-0.52,-0.51,0.57,0.58,-0.58,-0.72,-1.32,-1.09,-1.09,-1.09
87.22,-0.55,-0.55,0.58,0.58,-0.58,-0.70,-1.30,-1.13,-1.13,-1.13
88.09,-0.58,-0.58,0.59,0.59,-0.59,-0.68,-1.28,-1.17,-1.17,-1.17
88.97,-0.61,-0.61,0.60,0.60,-0.61,-0.66,-1.26,-1.21,-1.21,-1.20
89.86,-0.63,-0.63,0.62,0.62,-0.62,-0.64,-1.25,-1.25,-1.25,-1.24
90.76,-0.66,-0.65,0.64,0.64,-0.63,-0.62,-1.23,-1.29,-1.29,-1.30
91.66,-0.68,-0.68,0.65,0.66,-0.65,-0.60,-1.22,-1.33,-1.33,-1.33
92.58,-0.70,-0.70,0.68,0.67,-0.67,-0.58,-1.21,-1.37,-1.37,-1.38
93.51,-0.73,-0.73,0.69,0.69,-0.69,-0.57,-1.19,-1.42,-1.42,-1.42
94.44,-0.76,-0.75,0.70,0.71,-0.71,-0.55,-1.18,-1.47,-1.47,-1.46
95.39,-0.78,-0.78,0.73,0.73,-0.74,-0.54,-1.17,-1.51,-1.52,-1.50
96.34,-0.81,-0.81,0.75,0.75,-0.76,-0.53,-1.16,-1.57,-1.56,-1.56
97.30,-0.83,-0.83,0.78,0.77,-0.78,-0.52,-1.16,-1.61,-1.61,-1.60
98.28,-0.86,-0.85,0.79,0.80,-0.79,-0.51,-1.15,-1.65,-1.64,-1.65
99.26,-0.88,-0.88,0.82,0.81,-0.80,-0.50,-1.14,-1.68,-1.68,-1.70
100.25,-0.92,-0.92,0.82,0.82,-0.80,-0.50,-1.13,-1.72,-1.72,-1.74
101.25,-0.98,-0.97,0.81,0.81,-0.80,-0.49,-1.13,-1.77,-1.77,-1.79
102.27,-1.04,-1.04,0.80,0.79,-0.78,-0.49,-1.12,-1.82,-1.83,-1.83
103.29,-1.12,-1.11,0.77,0.77,-0.77,-0.50,-1.11,-1.89,-1.88,-1.89
104.32,-1.19,-1.19,0.74,0.74,-0.75,-0.50,-1.11,-1.94,-1.94,-1.93
105.37,-1.26,-1.26,0.71,0.72,-0.73,-0.51,-1.10,-1.99,-1.99,-1.97
106.42,-1.32,-1.32,0.70,0.70,-0.71,-0.52,-1.10,-2.03,-2.03,-2.02
107.48,-1.38,-1.38,0.69,0.69,-0.70,-0.53,-1.09,-2.08,-2.07,-2.06
108.56,-1.43,-1.43,0.69,0.69,-0.69,-0.55,-1.08,-2.12,-2.12,-2.12
109.64,-1.47,-1.47,0.70,0.69,-0.69,-0.57,-1.07,-2.16,-2.16,-2.17
110.74,-1.52,-1.52,0.70,0.70,-0.69,-0.59,-1.06,-2.21,-2.21,-2.21
111.85,-1.56,-1.56,0.70,0.71,-0.71,-0.62,-1.05,-2.26,-2.27,-2.26
112.97,-1.60,-1.60,0.73,0.72,-0.73,-0.65,-1.04,-2.32,-2.32,-2.32
114.10,-1.63,-1.63,0.74,0.75,-0.75,-0.69,-1.03,-2.38,-2.38,-2.37
115.24,-1.65,-1.65,0.78,0.78,-0.78,-0.73,-1.01,-2.43,-2.43,-2.42
116.39,-1.66,-1.66,0.82,0.82,-0.82,-0.78,-0.99,-2.48,-2.48,-2.48
117.55,-1.67,-1.67,0.86,0.87,-0.87,-0.83,-0.97,-2.53,-2.53,-2.53
118.73,-1.67,-1.67,0.92,0.92,-0.91,-0.88,-0.95,-2.58,-2.58,-2.59
119.92,-1.67,-1.67,0.96,0.97,-0.97,-0.95,-0.93,-2.63,-2.63,-2.63
121.12,-1.66,-1.66,1.02,1.02,-1.02,-1.01,-0.90,-2.68,-2.68,-2.68
122.33,-1.66,-1.65,1.08,1.08,-1.08,-1.08,-0.87,-2.73,-2.73,-2.73
123.55,-1.65,-1.65,1.13,1.13,-1.13,-1.16,-0.84,-2.78,-2.78,-2.78
124.79,-1.65,-1.65,1.18,1.18,-1.19,-1.23,-0.81,-2.83,-2.83,-2.83
126.03,-1.65,-1.64,1.23,1.24,-1.24,-1.31,-0.77,-2.89,-2.88,-2.88
127.29,-1.64,-1.64,1.29,1.29,-1.29,-1.39,-0.73,-2.92,-2.93,-2.93
128.57,-1.65,-1.65,1.34,1.33,-1.33,-1.47,-0.69,-2.98,-2.98,-2.99
129.85,-1.67,-1.66,1.37,1.37,-1.37,-1.53,-0.64,-3.03,-3.03,-3.04
131.15,-1.69,-1.69,1.40,1.40,-1.40,-1.60,-0.60,-3.08,-3.09,-3.08
132.46,-1.72,-1.72,1.41,1.41,-1.42,-1.65,-0.55,-3.14,-3.14,-3.13
133.79,-1.75,-1.75,1.42,1.43,-1.43,-1.69,-0.49,-3.18,-3.18,-3.17
135.12,-1.79,-1.79,1.44,1.43,-1.44,-1.70,-0.44,-3.22,-3.22,-3.22
136.48,-1.84,-1.84,1.42,1.42,-1.42,-1.70,-0.38,-3.26,-3.26,-3.26
137.84,-1.90,-1.90,1.41,1.41,-1.40,-1.67,-0.32,-3.30,-3.30,-3.30
139.22,-1.99,-1.99,1.37,1.37,-1.36,-1.63,-0.25,-3.34,-3.34,-3.36
140.61,-2.09,-2.09,1.31,1.31,-1.30,-1.54,-0.19,-3.38,-3.38,-3.40
142.02,-2.21,-2.21,1.21,1.22,-1.22,-1.45,-0.12,-3.42,-3.42,-3.42
143.44,-2.34,-2.34,1.13,1.12,-1.12,-1.32,-0.05,-3.45,-3.46,-3.46
144.87,-2.50,-2.50,1.01,1.00,-1.00,-1.19,0.02,-3.50,-3.50,-3.50
146.32,-2.68,-2.68,0.87,0.86,-0.86,-1.02,0.09,-3.54,-3.54,-3.54
147.78,-2.87,-2.87,0.70,0.71,-0.71,-0.85,0.17,-3.57,-3.58,-3.57
149.26,-3.08,-3.08,0.53,0.54,-0.54,-0.66,0.25,-3.61,-3.61,-3.61
150.75,-3.30,-3.30,0.36,0.35,-0.35,-0.47,0.32,-3.65,-3.65,-3.66
152.26,-3.53,-3.53,0.17,0.16,-0.16,-0.27,0.40,-3.68,-3.69,-3.69
153.78,-3.77,-3.77,-0.04,-0.04,0.05,-0.07,0.49,-3.72,-3.72,-3.73
155.32,-4.02,-4.02,-0.24,-0.25,0.26,0.13,0.57,-3.76,-3.76,-3.77
156.88,-4.27,-4.27,-0.46,-0.46,0.47,0.34,0.65,-3.80,-3.80,-3.81
158.44,-4.53,-4.53,-0.68,-0.68,0.68,0.54,0.74,-3.85,-3.85,-3.85
160.03,-4.78,-4.77,-0.88,-0.88,0.87,0.73,0.83,-3.91,-3.90,-3.89
161.63,-5.01,-5.01,-1.07,-1.07,1.05,0.92,0.92,-3.96,-3.96,-3.93
163.24,-5.21,-5.21,-1.23,-1.24,1.21,1.12,1.01,-4.00,-4.00,-3.97
164.88,-5.39,-5.38,-1.38,-1.37,1.34,1.30,1.10,-4.05,-4.04,-4.00
166.53,-5.53,-5.53,-1.48,-1.48,1.45,1.48,1.19,-4.07,-4.07,-4.04
168.19,-5.65,-5.65,-1.57,-1.56,1.55,1.66,1.28,-4.10,-4.10,-4.08
169.87,-5.75,-5.75,-1.63,-1.63,1.63,1.83,1.38,-4.12,-4.12,-4.12
171.57,-5.85,-5.85,-1.69,-1.69,1.71,2.00,1.48,-4.14,-4.14,-4.16
173.29,-5.96,-5.96,-1.76,-1.76,1.78,2.16,1.57,-4.17,-4.17,-4.19
175.02,-6.08,-6.08,-1.85,-1.85,1.87,2.32,1.67,-4.21,-4.21,-4.23
176.77,-6.22,-6.22,-1.94,-1.95,1.97,2.48,1.77,-4.25,-4.25,-4.27
178.54,-6.38,-6.38,-2.06,-2.07,2.08,2.63,1.88,-4.29,-4.30,-4.32
180.32,-6.56,-6.56,-2.21,-2.21,2.22,2.78,1.98,-4.34,-4.34,-4.35
182.13,-6.75,-6.75,-2.36,-2.36,2.37,2.93,2.09,-4.38,-4.38,-4.38
183.95,-6.96,-6.95,-2.53,-2.53,2.53,3.08,2.19,-4.43,-4.42,-4.43
185.79,-7.17,-7.17,-2.71,-2.71,2.71,3.21,2.30,-4.46,-4.46,-4.46
187.65,-7.39,-7.39,-2.89,-2.89,2.89,3.35,2.41,-4.49,-4.49,-4.50
189.52,-7.62,-7.61,-3.09,-3.09,3.09,3.49,2.52,-4.53,-4.53,-4.53
191.42,-7.84,-7.84,-3.28,-3.28,3.28,3.62,2.63,-4.56,-4.56,-4.56
193.33,-8.07,-8.07,-3.48,-3.48,3.47,3.74,2.74,-4.60,-4.59,-4.59
195.27,-8.29,-8.29,-3.67,-3.67,3.67,3.87,2.85,-4.62,-4.62,-4.61
197.22,-8.51,-8.51,-3.87,-3.86,3.86,3.98,2.97,-4.65,-4.64,-4.64
199.19,-8.72,-8.72,-4.04,-4.05,4.05,4.10,3.08,-4.66,-4.67,-4.68
201.18,-8.93,-8.93,-4.23,-4.23,4.24,4.21,3.20,-4.69,-4.69,-4.70
203.19,-9.14,-9.14,-4.43,-4.42,4.43,4.31,3.31,-4.71,-4.71,-4.71
205.23,-9.34,-9.34,-4.60,-4.61,4.61,4.41,3.43,-4.73,-4.73,-4.74
207.28,-9.53,-9.53,-4.79,-4.78,4.78,4.50,3.54,-4.75,-4.75,-4.74
209.35,-9.71,-9.71,-4.94,-4.94,4.94,4.59,3.65,-4.77,-4.77,-4.77
211.44,-9.88,-9.88,-5.09,-5.09,5.09,4.67,3.76,-4.79,-4.78,-4.79
213.56,-10.03,-10.02,-5.23,-5.23,5.22,4.74,3.87,-4.80,-4.80,-4.79
215.69,-10.15,-10.15,-5.35,-5.35,5.34,4.81,3.98,-4.81,-4.81,-4.80
217.85,-10.26,-10.25,-5.45,-5.44,5.43,4.86,4.08,-4.82,-4.82,-4.81
220.03,-10.34,-10.33,-5.52,-5.51,5.51,4.92,4.19,-4.83,-4.82,-4.82
222.23,-10.38,-10.39,-5.54,-5.56,5.56,4.96,4.28,-4.82,-4.83,-4.83
224.45,-10.42,-10.42,-5.59,-5.59,5.59,4.99,4.38,-4.83,-4.83,-4.83
226.70,-10.43,-10.42,-5.60,-5.59,5.59,5.01,4.46,-4.84,-4.84,-4.83
228.96,-10.41,-10.41,-5.58,-5.58,5.57,5.03,4.55,-4.84,-4.84,-4.83
231.25,-10.36,-10.36,-5.54,-5.54,5.53,5.04,4.62,-4.83,-4.83,-4.82
233.57,-10.30,-10.30,-5.48,-5.48,5.47,5.04,4.69,-4.83,-4.82,-4.82
235.90,-10.22,-10.21,-5.40,-5.40,5.40,5.03,4.75,-4.82,-4.82,-4.82
238.26,-10.12,-10.12,-5.30,-5.31,5.31,5.02,4.81,-4.80,-4.81,-4.82
240.64,-10.02,-10.02,-5.21,-5.21,5.22,4.99,4.86,-4.80,-4.80,-4.81
243.05,-9.91,-9.91,-5.11,-5.11,5.12,4.96,4.90,-4.79,-4.79,-4.80
245.48,-9.80,-9.80,-5.01,-5.01,5.01,4.92,4.92,-4.79,-4.78,-4.78
247.93,-9.68,-9.68,-4.91,-4.90,4.91,4.88,4.94,-4.77,-4.77,-4.77
250.41,-9.56,-9.56,-4.79,-4.80,4.80,4.82,4.95,-4.76,-4.76,-4.77
252.92,-9.44,-9.44,-4.69,-4.69,4.69,4.77,4.95,-4.74,-4.74,-4.75
255.45,-9.32,-9.32,-4.59,-4.59,4.59,4.70,4.94,-4.73,-4.73,-4.72
258.00,-9.20,-9.20,-4.49,-4.49,4.48,4.64,4.93,-4.71,-4.71,-4.71
260.58,-9.08,-9.08,-4.38,-4.38,4.38,4.56,4.90,-4.70,-4.70,-4.70
263.19,-8.96,-8.96,-4.28,-4.28,4.28,4.49,4.87,-4.68,-4.68,-4.68
265.82,-8.84,-8.84,-4.18,-4.18,4.18,4.41,4.82,-4.66,-4.66,-4.66
268.48,-8.72,-8.72,-4.08,-4.08,4.08,4.33,4.77,-4.63,-4.64,-4.64
271.16,-8.61,-8.60,-3.99,-3.99,3.99,4.24,4.72,-4.62,-4.62,-4.61
273.87,-8.49,-8.49,-3.89,-3.89,3.89,4.16,4.65,-4.60,-4.60,-4.60
276.61,-8.38,-8.38,-3.80,-3.80,3.80,4.07,4.58,-4.58,-4.58,-4.57
279.38,-8.27,-8.27,-3.71,-3.71,3.71,3.98,4.51,-4.56,-4.56,-4.56
282.17,-8.17,-8.16,-3.62,-3.62,3.62,3.89,4.43,-4.54,-4.54,-4.54
284.99,-8.06,-8.06,-3.54,-3.54,3.54,3.80,4.35,-4.52,-4.52,-4.52
287.84,-7.96,-7.96,-3.45,-3.46,3.46,3.71,4.26,-4.50,-4.50,-4.50
290.72,-7.86,-7.86,-3.38,-3.38,3.38,3.62,4.17,-4.48,-4.48,-4.48
293.63,-7.77,-7.76,-3.30,-3.30,3.30,3.53,4.08,-4.46,-4.46,-4.46
296.57,-7.67,-7.67,-3.23,-3.23,3.23,3.44,3.98,-4.44,-4.44,-4.44
299.53,-7.58,-7.58,-3.16,-3.16,3.16,3.35,3.89,-4.42,-4.42,-4.42
302.53,-7.49,-7.49,-3.08,-3.09,3.09,3.26,3.79,-4.40,-4.40,-4.41
305.55,-7.40,-7.40,-3.03,-3.02,3.02,3.17,3.70,-4.38,-4.38,-4.37
308.61,-7.31,-7.31,-2.95,-2.96,2.95,3.09,3.60,-4.35,-4.35,-4.35
311.69,-7.21,-7.21,-2.88,-2.89,2.88,3.00,3.50,-4.32,-4.33,-4.33
314.81,-7.12,-7.11,-2.83,-2.82,2.81,2.92,3.41,-4.31,-4.30,-4.29
317.96,-7.02,-7.02,-2.74,-2.74,2.74,2.83,3.31,-4.28,-4.28,-4.27
321.14,-6.92,-6.92,-2.66,-2.67,2.67,2.75,3.22,-4.25,-4.26,-4.26
324.35,-6.83,-6.82,-2.59,-2.59,2.59,2.67,3.13,-4.24,-4.23,-4.24
327.59,-6.73,-6.73,-2.52,-2.51,2.52,2.59,3.04,-4.21,-4.21,-4.21
330.87,-6.64,-6.64,-2.44,-2.44,2.44,2.51,2.95,-4.20,-4.19,-4.20
334.18,-6.54,-6.54,-2.36,-2.37,2.37,2.44,2.86,-4.17,-4.18,-4.18
337.52,-6.46,-6.45,-2.30,-2.30,2.30,2.36,2.77,-4.16,-4.16,-4.16
340.90,-6.37,-6.37,-2.23,-2.23,2.23,2.29,2.69,-4.14,-4.14,-4.13
344.30,-6.28,-6.28,-2.16,-2.16,2.16,2.22,2.60,-4.11,-4.12,-4.12
347.75,-6.20,-6.20,-2.10,-2.10,2.10,2.15,2.52,-4.10,-4.10,-4.10
351.23,-6.12,-6.12,-2.04,-2.04,2.04,2.08,2.44,-4.08,-4.08,-4.08
354.74,-6.05,-6.04,-1.99,-1.98,1.98,2.01,2.36,-4.07,-4.06,-4.06
358.28,-5.97,-5.97,-1.92,-1.93,1.93,1.95,2.29,-4.04,-4.04,-4.04
361.87,-5.90,-5.90,-1.87,-1.87,1.87,1.88,2.21,-4.03,-4.03,-4.03
365.49,-5.83,-5.83,-1.82,-1.82,1.81,1.82,2.14,-4.01,-4.01,-4.01
369.14,-5.76,-5.76,-1.76,-1.76,1.76,1.76,2.07,-4.00,-4.00,-4.00
372.83,-5.69,-5.69,-1.71,-1.70,1.70,1.70,2.00,-3.98,-3.98,-3.98
376.56,-5.62,-5.62,-1.64,-1.65,1.65,1.64,1.94,-3.97,-3.97,-3.97
380.33,-5.55,-5.55,-1.60,-1.60,1.60,1.58,1.87,-3.95,-3.95,-3.95
384.13,-5.48,-5.48,-1.54,-1.54,1.54,1.53,1.81,-3.94,-3.94,-3.94
387.97,-5.42,-5.41,-1.49,-1.49,1.49,1.47,1.75,-3.93,-3.93,-3.93
391.85,-5.35,-5.35,-1.43,-1.43,1.43,1.42,1.69,-3.91,-3.92,-3.92
395.77,-5.29,-5.28,-1.39,-1.38,1.38,1.37,1.63,-3.91,-3.90,-3.90
399.73,-5.22,-5.22,-1.32,-1.33,1.33,1.32,1.57,-3.89,-3.89,-3.89
403.72,-5.16,-5.16,-1.27,-1.28,1.28,1.27,1.52,-3.88,-3.88,-3.88
407.76,-5.10,-5.10,-1.22,-1.22,1.23,1.22,1.46,-3.87,-3.87,-3.88
411.84,-5.04,-5.04,-1.18,-1.18,1.18,1.17,1.41,-3.86,-3.86,-3.86
415.96,-4.98,-4.98,-1.13,-1.13,1.12,1.12,1.36,-3.85,-3.85,-3.85
420.12,-4.92,-4.92,-1.08,-1.08,1.07,1.07,1.31,-3.84,-3.84,-3.84
424.32,-4.86,-4.86,-1.03,-1.03,1.02,1.03,1.26,-3.83,-3.83,-3.83
428.56,-4.80,-4.80,-0.98,-0.98,0.98,0.98,1.21,-3.82,-3.82,-3.82
432.85,-4.74,-4.74,-0.92,-0.92,0.93,0.94,1.17,-3.81,-3.81,-3.81
437.18,-4.68,-4.68,-0.87,-0.88,0.88,0.90,1.12,-3.80,-3.80,-3.80
441.55,-4.62,-4.62,-0.83,-0.83,0.83,0.85,1.07,-3.78,-3.79,-3.78
445.96,-4.57,-4.57,-0.79,-0.79,0.79,0.81,1.03,-3.78,-3.78,-3.78
450.42,-4.52,-4.51,-0.75,-0.75,0.75,0.77,0.99,-3.77,-3.76,-3.77
454.93,-4.46,-4.46,-0.71,-0.71,0.71,0.73,0.94,-3.75,-3.75,-3.75
459.48,-4.41,-4.41,-0.67,-0.67,0.68,0.69,0.90,-3.73,-3.73,-3.74
464.07,-4.36,-4.36,-0.64,-0.64,0.64,0.65,0.86,-3.72,-3.72,-3.72
468.71,-4.31,-4.31,-0.61,-0.60,0.60,0.61,0.82,-3.70,-3.70,-3.70
473.40,-4.26,-4.26,-0.57,-0.57,0.57,0.57,0.78,-3.69,-3.69,-3.69
