frequency,raw,smoothed,error,error_smoothed,equalization,parametric_eq,fixed_band_eq,equalized_raw,equalized_smoothed,target
20.00,-2.02,-2.02,-6.43,-6.43,6.00,5.01,2.45,3.98,3.98,4.41
20.20,-1.98,-1.99,-6.42,-6.42,6.00,5.01,2.52,4.02,4.01,4.44
20.40,-1.94,-1.95,-6.41,-6.41,6.00,5.00,2.59,4.06,4.05,4.47
20.61,-1.90,-1.91,-6.39,-6.40,6.00,5.00,2.67,4.10,4.09,4.49
20.81,-1.86,-1.86,-6.38,-6.38,6.00,5.00,2.75,4.14,4.14,4.52
21.02,-1.81,-1.81,-6.36,-6.35,6.00,5.00,2.83,4.19,4.19,4.55
21.23,-1.74,-1.75,-6.30,-6.31,6.00,5.00,2.91,4.26,4.25,4.56
21.44,-1.68,-1.68,-6.25,-6.24,6.00,5.00,2.99,4.32,4.32,4.56
21.66,-1.61,-1.61,-6.19,-6.18,6.00,5.00,3.08,4.39,4.39,4.57
21.87,-1.54,-1.56,-6.12,-6.13,6.00,5.00,3.17,4.46,4.44,4.57
22.09,-1.52,-1.54,-6.11,-6.12,6.00,5.00,3.26,4.48,4.46,4.58
22.31,-1.55,-1.55,-6.14,-6.13,6.00,4.99,3.35,4.45,4.45,4.58
22.54,-1.59,-1.59,-6.17,-6.18,6.00,4.99,3.45,4.41,4.41,4.58
22.76,-1.62,-1.63,-6.21,-6.21,6.01,4.99,3.55,4.38,4.37,4.58
22.99,-1.66,-1.64,-6.23,-6.21,6.01,4.99,3.65,4.35,4.37,4.57
23.22,-1.61,-1.61,-6.18,-6.18,6.01,4.99,3.75,4.39,4.39,4.57
23.45,-1.55,-1.56,-6.12,-6.13,6.00,4.99,3.85,4.45,4.44,4.57
23.69,-1.49,-1.50,-6.06,-6.07,5.98,4.99,3.96,4.49,4.49,4.57
23.92,-1.44,-1.44,-6.01,-6.02,5.96,4.99,4.07,4.52,4.52,4.57
24.16,-1.39,-1.40,-5.97,-5.97,5.94,4.98,4.18,4.54,4.54,4.58
24.40,-1.35,-1.35,-5.93,-5.92,5.92,4.98,4.30,4.56,4.57,4.58
24.65,-1.30,-1.30,-5.87,-5.87,5.90,4.98,4.41,4.60,4.60,4.56
24.89,-1.26,-1.27,-5.83,-5.84,5.89,4.98,4.53,4.62,4.61,4.56
25.14,-1.25,-1.26,-5.82,-5.83,5.87,4.98,4.65,4.62,4.61,4.56
25.39,-1.28,-1.28,-5.85,-5.85,5.86,4.98,4.77,4.58,4.58,4.56
25.65,-1.31,-1.31,-5.87,-5.87,5.85,4.97,4.89,4.53,4.54,4.56
25.91,-1.33,-1.32,-5.88,-5.87,5.83,4.97,5.01,4.50,4.51,4.55
26.16,-1.30,-1.30,-5.85,-5.85,5.81,4.97,5.13,4.51,4.51,4.55
26.43,-1.25,-1.26,-5.80,-5.80,5.78,4.97,5.25,4.52,4.52,4.55
26.69,-1.19,-1.20,-5.74,-5.74,5.73,4.97,5.36,4.53,4.53,4.55
26.96,-1.13,-1.14,-5.68,-5.68,5.67,4.96,5.48,4.54,4.54,4.54
27.23,-1.07,-1.07,-5.62,-5.62,5.62,4.96,5.60,4.54,4.55,4.54
27.50,-1.01,-1.01,-5.56,-5.55,5.57,4.96,5.71,4.56,4.57,4.54
27.77,-0.95,-0.95,-5.48,-5.49,5.54,4.96,5.81,4.59,4.59,4.53
28.05,-0.91,-0.94,-5.44,-5.46,5.52,4.96,5.92,4.61,4.58,4.53
28.33,-0.95,-0.96,-5.47,-5.48,5.51,4.95,6.02,4.55,4.55,4.52
28.62,-1.00,-1.00,-5.52,-5.51,5.50,4.95,6.11,4.49,4.50,4.52
28.90,-1.04,-1.03,-5.56,-5.54,5.49,4.95,6.20,4.45,4.46,4.51
29.19,-1.03,-1.03,-5.54,-5.54,5.48,4.94,6.28,4.45,4.45,4.50
29.48,-0.99,-1.00,-5.50,-5.50,5.47,4.94,6.35,4.48,4.47,4.51
29.78,-0.94,-0.95,-5.44,-5.45,5.45,4.94,6.42,4.51,4.50,4.50
30.08,-0.91,-0.92,-5.41,-5.41,5.44,4.94,6.47,4.52,4.52,4.50
30.38,-0.89,-0.89,-5.38,-5.38,5.42,4.93,6.52,4.52,4.53,4.49
30.68,-0.88,-0.88,-5.37,-5.36,5.40,4.93,6.55,4.51,4.52,4.48
30.99,-0.86,-0.87,-5.34,-5.35,5.38,4.93,6.58,4.51,4.50,4.47
31.30,-0.88,-0.89,-5.35,-5.36,5.35,4.92,6.59,4.47,4.47,4.47
31.61,-0.90,-0.91,-5.37,-5.37,5.33,4.92,6.60,4.43,4.43,4.47
31.93,-0.92,-0.91,-5.38,-5.36,5.31,4.92,6.60,4.38,4.40,4.46
32.24,-0.88,-0.87,-5.33,-5.32,5.28,4.91,6.59,4.40,4.41,4.44
32.57,-0.80,-0.81,-5.24,-5.25,5.25,4.91,6.56,4.45,4.44,4.44
32.89,-0.73,-0.75,-5.17,-5.18,5.22,4.90,6.53,4.48,4.47,4.44
33.22,-0.71,-0.72,-5.14,-5.14,5.18,4.90,6.49,4.47,4.47,4.42
33.55,-0.71,-0.71,-5.14,-5.13,5.15,4.90,6.44,4.44,4.44,4.42
33.89,-0.71,-0.71,-5.12,-5.12,5.13,4.89,6.39,4.41,4.41,4.41
34.23,-0.71,-0.71,-5.12,-5.12,5.11,4.89,6.33,4.39,4.39,4.41
34.57,-0.71,-0.71,-5.11,-5.11,5.10,4.88,6.26,4.38,4.38,4.39
34.92,-0.71,-0.71,-5.09,-5.10,5.09,4.88,6.18,4.37,4.37,4.38
35.27,-0.71,-0.71,-5.09,-5.09,5.08,4.87,6.11,4.37,4.37,4.38
35.62,-0.71,-0.71,-5.08,-5.08,5.08,4.87,6.03,4.37,4.37,4.36
35.97,-0.71,-0.71,-5.06,-5.07,5.08,4.86,5.94,4.37,4.37,4.35
36.33,-0.71,-0.71,-5.06,-5.06,5.07,4.86,5.86,4.36,4.36,4.35
36.70,-0.71,-0.71,-5.05,-5.04,5.06,4.85,5.77,4.34,4.34,4.33
37.06,-0.71,-0.72,-5.03,-5.04,5.03,4.84,5.68,4.31,4.31,4.32
37.43,-0.71,-0.73,-5.03,-5.03,4.98,4.84,5.59,4.27,4.26,4.31
37.81,-0.72,-0.71,-5.02,-5.01,4.94,4.83,5.50,4.22,4.23,4.30
38.19,-0.66,-0.64,-4.95,-4.92,4.89,4.82,5.41,4.23,4.26,4.28
38.57,-0.54,-0.55,-4.82,-4.82,4.85,4.82,5.33,4.30,4.30,4.28
38.95,-0.42,-0.47,-4.69,-4.73,4.80,4.81,5.24,4.38,4.33,4.26
39.34,-0.44,-0.45,-4.69,-4.70,4.76,4.80,5.16,4.32,4.32,4.25
39.74,-0.48,-0.47,-4.72,-4.71,4.73,4.79,5.07,4.25,4.26,4.23
40.14,-0.51,-0.50,-4.74,-4.73,4.71,4.79,4.99,4.20,4.21,4.23
40.54,-0.51,-0.52,-4.73,-4.73,4.70,4.78,4.92,4.19,4.18,4.21
40.94,-0.51,-0.52,-4.72,-4.72,4.70,4.77,4.84,4.19,4.18,4.21
41.35,-0.51,-0.51,-4.71,-4.71,4.70,4.76,4.77,4.19,4.19,4.19
41.76,-0.51,-0.51,-4.70,-4.70,4.70,4.75,4.70,4.19,4.19,4.19
42.18,-0.51,-0.51,-4.69,-4.69,4.69,4.74,4.64,4.18,4.18,4.18
42.60,-0.51,-0.51,-4.68,-4.68,4.68,4.73,4.57,4.17,4.17,4.16
43.03,-0.51,-0.51,-4.67,-4.67,4.66,4.72,4.51,4.15,4.15,4.16
43.46,-0.51,-0.51,-4.65,-4.65,4.64,4.71,4.46,4.13,4.13,4.14
43.90,-0.51,-0.51,-4.62,-4.63,4.63,4.70,4.40,4.11,4.11,4.11
44.33,-0.51,-0.51,-4.61,-4.61,4.61,4.69,4.35,4.10,4.10,4.09
44.78,-0.51,-0.51,-4.59,-4.59,4.59,4.68,4.31,4.08,4.08,4.07
45.23,-0.51,-0.51,-4.57,-4.57,4.57,4.66,4.27,4.06,4.06,4.06
45.68,-0.51,-0.51,-4.55,-4.55,4.56,4.65,4.23,4.04,4.04,4.04
46.13,-0.51,-0.51,-4.53,-4.54,4.54,4.64,4.19,4.02,4.02,4.02
46.60,-0.51,-0.51,-4.52,-4.52,4.52,4.62,4.16,4.01,4.01,4.01
47.06,-0.51,-0.51,-4.50,-4.50,4.50,4.61,4.13,3.99,3.99,3.99
47.53,-0.51,-0.51,-4.48,-4.49,4.48,4.59,4.10,3.97,3.97,3.97
48.01,-0.51,-0.51,-4.47,-4.47,4.46,4.58,4.08,3.95,3.95,3.96
48.49,-0.51,-0.51,-4.44,-4.44,4.44,4.56,4.05,3.92,3.92,3.93
48.97,-0.51,-0.51,-4.41,-4.41,4.41,4.55,4.04,3.90,3.90,3.90
49.46,-0.51,-0.51,-4.38,-4.38,4.39,4.53,4.02,3.87,3.87,3.87
49.96,-0.51,-0.51,-4.35,-4.36,4.36,4.51,4.01,3.85,3.85,3.83
50.46,-0.51,-0.51,-4.34,-4.33,4.33,4.49,3.99,3.82,3.82,3.82
50.96,-0.51,-0.51,-4.31,-4.31,4.31,4.47,3.98,3.80,3.80,3.80
51.47,-0.51,-0.51,-4.28,-4.29,4.29,4.45,3.98,3.77,3.77,3.77
51.99,-0.51,-0.51,-4.26,-4.26,4.26,4.43,3.97,3.75,3.75,3.74
52.51,-0.51,-0.51,-4.24,-4.24,4.24,4.41,3.97,3.72,3.72,3.73
53.03,-0.51,-0.51,-4.22,-4.22,4.22,4.39,3.96,3.70,3.70,3.70
53.56,-0.51,-0.51,-4.19,-4.19,4.19,4.37,3.96,3.68,3.68,3.68
54.10,-0.51,-0.51,-4.17,-4.17,4.17,4.34,3.96,3.65,3.65,3.65
54.64,-0.51,-0.51,-4.14,-4.14,4.14,4.32,3.96,3.63,3.63,3.63
55.18,-0.51,-0.51,-4.12,-4.12,4.12,4.30,3.95,3.60,3.60,3.60
55.74,-0.51,-0.51,-4.09,-4.09,4.09,4.27,3.95,3.58,3.58,3.58
56.29,-0.51,-0.51,-4.07,-4.07,4.07,4.24,3.95,3.55,3.55,3.56
56.86,-0.51,-0.51,-4.04,-4.04,4.04,4.22,3.94,3.53,3.53,3.53
57.42,-0.51,-0.51,-4.01,-4.02,4.02,4.19,3.94,3.51,3.51,3.50
58.00,-0.51,-0.51,-4.00,-4.00,4.00,4.16,3.93,3.49,3.49,3.48
58.58,-0.51,-0.51,-3.98,-3.98,3.98,4.13,3.92,3.46,3.46,3.46
59.16,-0.51,-0.51,-3.96,-3.95,3.95,4.10,3.91,3.44,3.44,3.44
59.76,-0.51,-0.51,-3.93,-3.93,3.93,4.07,3.90,3.41,3.41,3.42
60.35,-0.51,-0.51,-3.90,-3.91,3.90,4.03,3.88,3.38,3.38,3.39
60.96,-0.51,-0.51,-3.88,-3.87,3.87,4.00,3.87,3.36,3.36,3.37
61.57,-0.51,-0.51,-3.84,-3.84,3.84,3.97,3.85,3.33,3.33,3.32
62.18,-0.51,-0.51,-3.80,-3.81,3.81,3.93,3.82,3.30,3.30,3.29
62.80,-0.51,-0.51,-3.78,-3.77,3.78,3.89,3.79,3.27,3.27,3.26
63.43,-0.51,-0.51,-3.74,-3.75,3.75,3.86,3.76,3.23,3.23,3.23
64.07,-0.51,-0.51,-3.72,-3.72,3.72,3.82,3.73,3.21,3.21,3.20
64.71,-0.51,-0.51,-3.69,-3.69,3.69,3.78,3.70,3.18,3.18,3.18
65.35,-0.51,-0.51,-3.66,-3.66,3.66,3.75,3.66,3.15,3.15,3.15
66.01,-0.51,-0.51,-3.64,-3.64,3.63,3.71,3.61,3.12,3.12,3.12
66.67,-0.51,-0.51,-3.61,-3.61,3.60,3.67,3.57,3.09,3.09,3.09
67.33,-0.51,-0.51,-3.58,-3.58,3.57,3.63,3.52,3.05,3.05,3.06
68.01,-0.51,-0.51,-3.55,-3.55,3.53,3.59,3.48,3.02,3.02,3.03
68.69,-0.51,-0.51,-3.51,-3.51,3.50,3.55,3.42,2.99,2.99,3.00
69.37,-0.50,-0.49,-3.47,-3.46,3.48,3.52,3.37,2.98,2.98,2.97
70.07,-0.49,-0.47,-3.43,-3.41,3.46,3.48,3.32,2.97,2.99,2.94
70.77,-0.44,-0.49,-3.36,-3.40,3.44,3.44,3.26,3.00,2.96,2.91
71.48,-0.51,-0.53,-3.39,-3.40,3.42,3.40,3.21,2.91,2.89,2.88
72.19,-0.61,-0.58,-3.46,-3.42,3.39,3.37,3.15,2.77,2.81,2.84
72.91,-0.61,-0.62,-3.42,-3.43,3.35,3.33,3.09,2.74,2.73,2.81
73.64,-0.61,-0.61,-3.38,-3.38,3.31,3.29,3.03,2.70,2.70,2.77
74.38,-0.57,-0.55,-3.32,-3.29,3.28,3.26,2.97,2.71,2.73,2.74
75.12,-0.49,-0.50,-3.20,-3.20,3.25,3.22,2.92,2.76,2.75,2.70
75.87,-0.42,-0.46,-3.10,-3.14,3.21,3.19,2.86,2.79,2.75,2.67
76.63,-0.47,-0.46,-3.12,-3.10,3.17,3.16,2.80,2.70,2.71,2.64
77.40,-0.51,-0.50,-3.13,-3.11,3.12,3.12,2.74,2.61,2.62,2.61
78.17,-0.52,-0.55,-3.10,-3.13,3.08,3.09,2.69,2.56,2.53,2.57
78.95,-0.59,-0.56,-3.14,-3.11,3.04,3.06,2.63,2.45,2.48,2.55
79.74,-0.55,-0.53,-3.07,-3.05,3.00,3.03,2.58,2.45,2.47,2.52
80.54,-0.46,-0.49,-2.95,-2.97,2.96,3.00,2.53,2.50,2.48,2.48
81.35,-0.41,-0.43,-2.86,-2.88,2.91,2.96,2.48,2.50,2.48,2.45
82.16,-0.41,-0.41,-2.82,-2.82,2.86,2.93,2.43,2.45,2.45,2.41
82.98,-0.41,-0.41,-2.80,-2.79,2.81,2.90,2.38,2.39,2.40,2.38
83.81,-0.41,-0.41,-2.75,-2.75,2.75,2.87,2.33,2.34,2.34,2.34
84.65,-0.41,-0.41,-2.71,-2.72,2.71,2.84,2.28,2.29,2.29,2.30
85.50,-0.41,-0.41,-2.68,-2.68,2.67,2.81,2.24,2.25,2.25,2.27
86.35,-0.41,-0.41,-2.65,-2.64,2.63,2.78,2.20,2.22,2.22,2.23
87.22,-0.41,-0.41,-2.61,-2.61,2.60,2.75,2.16,2.18,2.18,2.19
88.09,-0.41,-0.41,-2.57,-2.57,2.57,2.72,2.12,2.15,2.15,2.15
88.97,-0.41,-0.41,-2.53,-2.53,2.54,2.68,2.08,2.12,2.13,2.12
89.86,-0.41,-0.42,-2.49,-2.49,2.52,2.65,2.04,2.11,2.11,2.08
90.76,-0.43,-0.44,-2.46,-2.48,2.51,2.62,2.01,2.08,2.07,2.03
91.66,-0.48,-0.49,-2.48,-2.48,2.51,2.58,1.98,2.03,2.02,1.99
92.58,-0.56,-0.55,-2.51,-2.50,2.50,2.55,1.94,1.94,1.95,1.94
93.51,-0.60,-0.59,-2.51,-2.50,2.48,2.51,1.91,1.88,1.89,1.91
94.44,-0.61,-0.63,-2.48,-2.49,2.45,2.48,1.89,1.83,1.82,1.86
95.39,-0.63,-0.66,-2.45,-2.48,2.40,2.44,1.86,1.77,1.74,1.82
96.34,-0.67,-0.64,-2.44,-2.41,2.34,2.40,1.83,1.67,1.70,1.76
97.30,-0.63,-0.57,-2.35,-2.29,2.28,2.36,1.81,1.64,1.70,1.72
98.28,-0.44,-0.49,-2.12,-2.16,2.21,2.32,1.78,1.76,1.72,1.67
99.26,-0.37,-0.43,-2.00,-2.06,2.13,2.28,1.76,1.76,1.71,1.63
100.25,-0.44,-0.42,-2.03,-2.00,2.07,2.24,1.74,1.62,1.65,1.58
101.25,-0.48,-0.46,-2.02,-2.00,2.01,2.20,1.72,1.52,1.54,1.54
102.27,-0.49,-0.50,-1.98,-1.99,1.96,2.16,1.70,1.47,1.46,1.49
103.29,-0.50,-0.51,-1.94,-1.95,1.93,2.12,1.68,1.43,1.42,1.43
104.32,-0.52,-0.52,-1.92,-1.92,1.91,2.07,1.66,1.39,1.39,1.40
105.37,-0.54,-0.55,-1.90,-1.90,1.90,2.03,1.65,1.35,1.35,1.35
106.42,-0.57,-0.57,-1.88,-1.88,1.88,1.99,1.63,1.30,1.31,1.30
107.48,-0.59,-0.60,-1.85,-1.85,1.85,1.94,1.61,1.26,1.25,1.26
108.56,-0.62,-0.62,-1.83,-1.83,1.82,1.90,1.60,1.19,1.19,1.20
109.64,-0.64,-0.64,-1.80,-1.80,1.79,1.85,1.58,1.14,1.15,1.16
110.74,-0.65,-0.66,-1.76,-1.77,1.76,1.81,1.56,1.11,1.10,1.11
111.85,-0.67,-0.67,-1.74,-1.73,1.74,1.76,1.55,1.07,1.07,1.06
112.97,-0.68,-0.67,-1.68,-1.68,1.72,1.71,1.53,1.03,1.04,1.00
114.10,-0.69,-0.70,-1.65,-1.65,1.69,1.67,1.51,0.99,0.99,0.95
115.24,-0.71,-0.76,-1.61,-1.66,1.65,1.62,1.50,0.93,0.89,0.90
116.39,-0.83,-0.82,-1.68,-1.67,1.61,1.57,1.48,0.78,0.79,0.84
117.55,-0.89,-0.83,-1.68,-1.62,1.57,1.52,1.46,0.68,0.74,0.79
118.73,-0.82,-0.81,-1.56,-1.55,1.54,1.48,1.44,0.71,0.72,0.74
119.92,-0.68,-0.77,-1.38,-1.46,1.50,1.43,1.42,0.82,0.73,0.69
121.12,-0.78,-0.76,-1.42,-1.40,1.46,1.38,1.40,0.68,0.71,0.64
122.33,-0.80,-0.79,-1.39,-1.38,1.42,1.33,1.37,0.61,0.63,0.59
123.55,-0.82,-0.83,-1.37,-1.38,1.36,1.28,1.35,0.54,0.53,0.55
124.79,-0.84,-0.84,-1.34,-1.33,1.30,1.23,1.32,0.46,0.46,0.50
126.03,-0.84,-0.84,-1.29,-1.29,1.24,1.19,1.30,0.39,0.39,0.45
127.29,-0.82,-0.83,-1.22,-1.22,1.18,1.14,1.27,0.35,0.35,0.40
128.57,-0.81,-0.80,-1.15,-1.14,1.12,1.09,1.24,0.30,0.32,0.34
129.85,-0.74,-0.74,-1.03,-1.02,1.06,1.04,1.21,0.31,0.32,0.29
131.15,-0.69,-0.69,-0.93,-0.93,1.00,0.99,1.18,0.30,0.30,0.24
132.46,-0.64,-0.69,-0.84,-0.88,0.94,0.94,1.14,0.30,0.25,0.19
133.79,-0.73,-0.73,-0.89,-0.87,0.90,0.89,1.11,0.17,0.17,0.16
135.12,-0.80,-0.77,-0.90,-0.88,0.86,0.84,1.07,0.05,0.09,0.10
136.48,-0.80,-0.81,-0.87,-0.87,0.82,0.80,1.04,0.02,0.02,0.06
137.84,-0.79,-0.80,-0.81,-0.82,0.79,0.75,1.00,-0.00,-0.01,0.02
139.22,-0.79,-0.80,-0.76,-0.77,0.76,0.70,0.96,-0.04,-0.04,-0.03
140.61,-0.79,-0.80,-0.72,-0.73,0.72,0.65,0.92,-0.07,-0.08,-0.08
142.02,-0.79,-0.77,-0.70,-0.67,0.68,0.60,0.88,-0.12,-0.10,-0.10
143.44,-0.76,-0.73,-0.62,-0.59,0.62,0.55,0.84,-0.15,-0.11,-0.14
144.87,-0.64,-0.72,-0.46,-0.55,0.55,0.50,0.80,-0.09,-0.17,-0.18
146.32,-0.71,-0.72,-0.49,-0.50,0.49,0.45,0.75,-0.22,-0.23,-0.22
147.78,-0.78,-0.70,-0.54,-0.45,0.43,0.40,0.71,-0.36,-0.27,-0.25
149.26,-0.66,-0.68,-0.38,-0.39,0.37,0.35,0.66,-0.30,-0.32,-0.29
150.75,-0.59,-0.63,-0.26,-0.30,0.31,0.30,0.62,-0.29,-0.32,-0.33
152.26,-0.59,-0.59,-0.22,-0.22,0.25,0.25,0.58,-0.34,-0.33,-0.37
153.78,-0.59,-0.59,-0.19,-0.18,0.20,0.20,0.53,-0.39,-0.39,-0.41
155.32,-0.59,-0.59,-0.14,-0.15,0.15,0.14,0.48,-0.45,-0.45,-0.45
156.88,-0.59,-0.59,-0.11,-0.11,0.10,0.09,0.44,-0.50,-0.50,-0.48
158.44,-0.59,-0.59,-0.07,-0.07,0.06,0.04,0.39,-0.54,-0.54,-0.53
160.03,-0.59,-0.59,-0.02,-0.02,0.02,-0.01,0.35,-0.58,-0.58,-0.57
161.63,-0.59,-0.59,0.02,0.02,-0.02,-0.07,0.30,-0.61,-0.61,-0.61
163.24,-0.59,-0.59,0.06,0.05,-0.04,-0.12,0.25,-0.64,-0.64,-0.65
164.88,-0.59,-0.60,0.09,0.09,-0.08,-0.18,0.21,-0.67,-0.67,-0.68
166.53,-0.60,-0.60,0.12,0.12,-0.11,-0.23,0.16,-0.72,-0.71,-0.72
168.19,-0.60,-0.61,0.16,0.15,-0.15,-0.29,0.11,-0.75,-0.76,-0.76
169.87,-0.61,-0.61,0.18,0.18,-0.19,-0.35,0.06,-0.80,-0.80,-0.80
171.57,-0.62,-0.64,0.21,0.20,-0.23,-0.40,0.02,-0.85,-0.86,-0.83
173.29,-0.62,-0.61,0.25,0.26,-0.27,-0.46,-0.03,-0.89,-0.88,-0.87
175.02,-0.63,-0.57,0.27,0.33,-0.32,-0.52,-0.08,-0.95,-0.89,-0.91
176.77,-0.47,-0.56,0.48,0.39,-0.37,-0.58,-0.13,-0.84,-0.93,-0.95
178.54,-0.54,-0.56,0.45,0.43,-0.43,-0.64,-0.18,-0.97,-0.99,-0.99
180.32,-0.61,-0.53,0.41,0.49,-0.50,-0.70,-0.23,-1.11,-1.03,-1.03
182.13,-0.51,-0.52,0.55,0.55,-0.58,-0.76,-0.28,-1.09,-1.09,-1.06
183.95,-0.41,-0.46,0.69,0.64,-0.66,-0.82,-0.32,-1.08,-1.12,-1.10
185.79,-0.40,-0.41,0.73,0.73,-0.75,-0.89,-0.37,-1.15,-1.15,-1.13
187.65,-0.39,-0.36,0.78,0.81,-0.82,-0.95,-0.42,-1.22,-1.18,-1.17
189.52,-0.31,-0.30,0.89,0.91,-0.89,-1.01,-0.47,-1.20,-1.19,-1.20
191.42,-0.19,-0.23,1.04,1.00,-0.95,-1.07,-0.52,-1.14,-1.18,-1.23
193.33,-0.17,-0.19,1.09,1.07,-1.00,-1.13,-0.57,-1.17,-1.19,-1.26
195.27,-0.21,-0.20,1.08,1.09,-1.05,-1.19,-0.62,-1.26,-1.25,-1.29
197.22,-0.23,-0.25,1.08,1.07,-1.10,-1.25,-0.67,-1.33,-1.35,-1.32
199.19,-0.28,-0.27,1.07,1.08,-1.15,-1.31,-0.72,-1.43,-1.42,-1.36
201.18,-0.28,-0.24,1.09,1.13,-1.20,-1.36,-0.77,-1.49,-1.45,-1.37
203.19,-0.16,-0.19,1.22,1.20,-1.25,-1.42,-0.82,-1.42,-1.45,-1.39
205.23,-0.09,-0.10,1.32,1.31,-1.30,-1.47,-0.87,-1.40,-1.40,-1.41
207.28,-0.04,-0.01,1.37,1.42,-1.35,-1.51,-0.91,-1.39,-1.36,-1.42
209.35,0.07,0.03,1.51,1.48,-1.40,-1.56,-0.96,-1.34,-1.37,-1.44
211.44,0.07,0.05,1.53,1.50,-1.45,-1.60,-1.01,-1.39,-1.41,-1.47
213.56,0.01,0.03,1.48,1.50,-1.50,-1.63,-1.05,-1.50,-1.47,-1.47
215.69,-0.00,-0.01,1.47,1.47,-1.54,-1.67,-1.09,-1.54,-1.55,-1.47
217.85,-0.00,-0.00,1.48,1.49,-1.56,-1.69,-1.14,-1.56,-1.56,-1.49
220.03,0.02,0.06,1.52,1.56,-1.57,-1.71,-1.18,-1.55,-1.51,-1.50
222.23,0.14,0.10,1.65,1.61,-1.57,-1.73,-1.22,-1.43,-1.46,-1.51
224.45,0.18,0.13,1.68,1.64,-1.58,-1.74,-1.25,-1.40,-1.44,-1.50
226.70,0.10,0.13,1.60,1.64,-1.59,-1.74,-1.29,-1.50,-1.46,-1.50
228.96,0.10,0.10,1.60,1.60,-1.62,-1.74,-1.32,-1.52,-1.52,-1.50
231.25,0.10,0.08,1.59,1.58,-1.65,-1.74,-1.35,-1.55,-1.57,-1.50
233.57,0.11,0.10,1.60,1.60,-1.67,-1.73,-1.38,-1.57,-1.57,-1.50
235.90,0.12,0.17,1.61,1.66,-1.69,-1.71,-1.40,-1.57,-1.52,-1.49
238.26,0.26,0.25,1.75,1.74,-1.71,-1.69,-1.43,-1.45,-1.46,-1.49
240.64,0.38,0.31,1.86,1.79,-1.73,-1.67,-1.44,-1.36,-1.43,-1.48
243.05,0.32,0.33,1.79,1.81,-1.76,-1.64,-1.46,-1.44,-1.42,-1.47
245.48,0.29,0.32,1.75,1.78,-1.78,-1.61,-1.47,-1.49,-1.46,-1.46
247.93,0.32,0.31,1.76,1.76,-1.79,-1.57,-1.48,-1.47,-1.48,-1.45
250.41,0.34,0.33,1.78,1.77,-1.79,-1.54,-1.49,-1.45,-1.46,-1.45
252.92,0.35,0.35,1.77,1.78,-1.78,-1.50,-1.49,-1.44,-1.43,-1.42
255.45,0.37,0.36,1.77,1.77,-1.77,-1.46,-1.49,-1.40,-1.41,-1.40
258.00,0.38,0.37,1.76,1.76,-1.76,-1.42,-1.48,-1.38,-1.39,-1.39
260.58,0.38,0.38,1.75,1.75,-1.75,-1.38,-1.47,-1.37,-1.37,-1.38
263.19,0.38,0.38,1.73,1.73,-1.74,-1.33,-1.46,-1.36,-1.36,-1.35
265.82,0.38,0.38,1.71,1.71,-1.71,-1.29,-1.45,-1.33,-1.33,-1.34
268.48,0.38,0.38,1.69,1.69,-1.67,-1.25,-1.43,-1.30,-1.29,-1.31
271.16,0.37,0.37,1.66,1.66,-1.64,-1.20,-1.41,-1.27,-1.27,-1.29
273.87,0.37,0.35,1.64,1.62,-1.60,-1.16,-1.39,-1.24,-1.26,-1.28
276.61,0.30,0.30,1.55,1.55,-1.56,-1.12,-1.36,-1.27,-1.26,-1.25
279.38,0.25,0.24,1.48,1.47,-1.52,-1.08,-1.34,-1.28,-1.29,-1.24
282.17,0.19,0.20,1.41,1.41,-1.48,-1.04,-1.31,-1.29,-1.28,-1.22
284.99,0.18,0.24,1.37,1.44,-1.43,-1.00,-1.28,-1.25,-1.19,-1.20
287.84,0.26,0.24,1.44,1.42,-1.37,-0.96,-1.24,-1.12,-1.13,-1.18
290.72,0.33,0.18,1.48,1.34,-1.31,-0.92,-1.21,-0.98,-1.12,-1.16
293.63,0.03,0.13,1.17,1.26,-1.23,-0.89,-1.18,-1.21,-1.11,-1.14
296.57,-0.04,0.04,1.07,1.16,-1.15,-0.85,-1.14,-1.20,-1.11,-1.11
299.53,0.07,-0.04,1.16,1.06,-1.07,-0.82,-1.10,-1.01,-1.11,-1.10
302.53,-0.08,-0.11,1.00,0.97,-0.98,-0.78,-1.07,-1.06,-1.09,-1.08
305.55,-0.22,-0.21,0.82,0.85,-0.87,-0.75,-1.03,-1.10,-1.08,-1.05
308.61,-0.38,-0.30,0.65,0.73,-0.76,-0.72,-0.99,-1.15,-1.06,-1.03
311.69,-0.30,-0.33,0.70,0.67,-0.66,-0.69,-0.95,-0.96,-0.99,-1.00
314.81,-0.32,-0.38,0.64,0.60,-0.56,-0.66,-0.91,-0.88,-0.93,-0.97
317.96,-0.45,-0.46,0.50,0.49,-0.46,-0.64,-0.87,-0.91,-0.92,-0.95
321.14,-0.62,-0.60,0.31,0.33,-0.36,-0.61,-0.83,-0.99,-0.96,-0.93
324.35,-0.72,-0.70,0.19,0.21,-0.25,-0.58,-0.80,-0.98,-0.95,-0.92
327.59,-0.77,-0.77,0.12,0.12,-0.14,-0.56,-0.76,-0.91,-0.91,-0.89
330.87,-0.77,-0.80,0.10,0.07,-0.02,-0.53,-0.72,-0.80,-0.82,-0.87
334.18,-0.89,-0.87,-0.04,-0.01,0.09,-0.51,-0.68,-0.80,-0.78,-0.85
337.52,-0.93,-1.00,-0.10,-0.16,0.19,-0.49,-0.64,-0.74,-0.81,-0.84
340.90,-1.14,-1.15,-0.33,-0.33,0.28,-0.47,-0.61,-0.87,-0.87,-0.81
344.30,-1.31,-1.23,-0.52,-0.44,0.35,-0.44,-0.57,-0.96,-0.88,-0.79
347.75,-1.27,-1.25,-0.50,-0.48,0.43,-0.42,-0.53,-0.85,-0.83,-0.77
351.23,-1.17,-1.23,-0.42,-0.47,0.49,-0.40,-0.50,-0.68,-0.74,-0.76
354.74,-1.17,-1.22,-0.43,-0.48,0.54,-0.39,-0.46,-0.63,-0.68,-0.74
358.28,-1.29,-1.26,-0.57,-0.54,0.58,-0.37,-0.43,-0.72,-0.68,-0.72
361.87,-1.33,-1.31,-0.63,-0.60,0.59,-0.35,-0.39,-0.74,-0.72,-0.70
365.49,-1.32,-1.33,-0.63,-0.64,0.60,-0.33,-0.36,-0.72,-0.73,-0.70
369.14,-1.31,-1.32,-0.63,-0.64,0.62,-0.31,-0.33,-0.70,-0.70,-0.69
372.83,-1.31,-1.31,-0.64,-0.64,0.64,-0.30,-0.29,-0.68,-0.67,-0.67
376.56,-1.30,-1.30,-0.64,-0.65,0.66,-0.28,-0.26,-0.64,-0.64,-0.66
380.33,-1.29,-1.30,-0.66,-0.66,0.68,-0.27,-0.23,-0.62,-0.62,-0.63
384.13,-1.29,-1.28,-0.67,-0.66,0.69,-0.25,-0.20,-0.60,-0.59,-0.62
387.97,-1.28,-1.29,-0.67,-0.67,0.70,-0.23,-0.17,-0.59,-0.59,-0.62
391.85,-1.28,-1.32,-0.68,-0.72,0.70,-0.22,-0.13,-0.58,-0.62,-0.61
395.77,-1.35,-1.34,-0.77,-0.75,0.71,-0.20,-0.10,-0.64,-0.62,-0.59
399.73,-1.38,-1.32,-0.80,-0.74,0.72,-0.19,-0.07,-0.66,-0.60,-0.58
403.72,-1.24,-1.28,-0.67,-0.71,0.71,-0.18,-0.04,-0.53,-0.57,-0.57
407.76,-1.19,-1.25,-0.63,-0.69,0.70,-0.16,-0.01,-0.50,-0.55,-0.56
411.84,-1.24,-1.21,-0.70,-0.66,0.67,-0.15,0.01,-0.57,-0.54,-0.54
415.96,-1.22,-1.19,-0.69,-0.65,0.63,-0.13,0.04,-0.59,-0.56,-0.54
420.12,-1.11,-1.14,-0.59,-0.61,0.59,-0.12,0.07,-0.52,-0.55,-0.53
424.32,-1.04,-1.06,-0.53,-0.54,0.55,-0.11,0.10,-0.50,-0.51,-0.52
428.56,-0.99,-0.98,-0.49,-0.47,0.51,-0.09,0.13,-0.49,-0.48,-0.51
432.85,-0.92,-0.91,-0.42,-0.42,0.45,-0.08,0.15,-0.47,-0.46,-0.50
437.18,-0.84,-0.85,-0.35,-0.37,0.39,-0.06,0.18,-0.46,-0.47,-0.49
441.55,-0.79,-0.83,-0.32,-0.36,0.31,-0.05,0.20,-0.48,-0.52,-0.47
445.96,-0.78,-0.77,-0.32,-0.31,0.23,-0.04,0.23,-0.55,-0.54,-0.46
450.42,-0.75,-0.65,-0.30,-0.20,0.16,-0.02,0.25,-0.60,-0.50,-0.45
454.93,-0.45,-0.51,-0.02,-0.07,0.08,-0.01,0.28,-0.38,-0.43,-0.43
459.48,-0.31,-0.37,0.11,0.05,0.00,0.01,0.30,-0.31,-0.37,-0.42
464.07,-0.30,-0.27,0.10,0.13,-0.06,0.02,0.32,-0.37,-0.34,-0.41
468.71,-0.26,-0.24,0.12,0.15,-0.12,0.04,0.35,-0.39,-0.37,-0.39
473.40,-0.19,-0.20,0.18,0.17,-0.18,0.05,0.37,-0.37,-0.38,-0.38
478.13,-0.14,-0.14,0.21,0.23,-0.22,0.07,0.39,-0.36,-0.35,-0.36
482.91,-0.09,-0.12,0.25,0.23,-0.25,0.08,0.41,-0.34,-0.37,-0.35
