frequency,raw,error,smoothed,error_smoothed,equalization,parametric_eq,fixed_band_eq,equalized_raw,equalized_smoothed,target
20.00,1.02,-4.34,1.02,-4.34,4.34,3.13,0.86,5.36,5.36,5.36
20.20,1.09,-4.27,1.10,-4.27,4.27,3.08,0.89,5.36,5.36,5.36
20.40,1.17,-4.19,1.17,-4.19,4.19,3.04,0.91,5.37,5.37,5.36
20.61,1.24,-4.12,1.24,-4.12,4.12,3.00,0.94,5.36,5.36,5.36
20.81,1.31,-4.04,1.31,-4.04,4.05,2.96,0.97,5.36,5.36,5.35
21.02,1.38,-3.97,1.38,-3.97,3.98,2.91,1.01,5.36,5.36,5.35
21.23,1.44,-3.91,1.45,-3.90,3.90,2.87,1.04,5.35,5.35,5.35
21.44,1.52,-3.84,1.52,-3.84,3.83,2.83,1.07,5.35,5.35,5.36
21.66,1.59,-3.76,1.59,-3.76,3.76,2.78,1.11,5.35,5.35,5.35
21.87,1.66,-3.69,1.66,-3.69,3.68,2.74,1.14,5.35,5.35,5.35
22.09,1.73,-3.61,1.73,-3.61,3.61,2.70,1.18,5.34,5.34,5.34
22.31,1.80,-3.54,1.80,-3.53,3.54,2.65,1.22,5.34,5.34,5.34
22.54,1.87,-3.46,1.87,-3.46,3.46,2.61,1.26,5.33,5.33,5.33
22.76,1.94,-3.39,1.94,-3.39,3.39,2.56,1.30,5.33,5.33,5.33
22.99,2.01,-3.32,2.01,-3.31,3.31,2.52,1.34,5.32,5.32,5.33
23.22,2.08,-3.23,2.08,-3.24,3.24,2.47,1.38,5.32,5.32,5.32
23.45,2.15,-3.16,2.15,-3.16,3.16,2.43,1.42,5.32,5.31,5.32
23.69,2.21,-3.09,2.22,-3.09,3.09,2.38,1.47,5.30,5.31,5.31
23.92,2.28,-3.01,2.28,-3.02,3.02,2.33,1.51,5.30,5.31,5.30
24.16,2.35,-2.94,2.35,-2.95,2.95,2.29,1.56,5.30,5.30,5.30
24.40,2.41,-2.88,2.41,-2.88,2.88,2.24,1.60,5.29,5.29,5.29
24.65,2.47,-2.82,2.48,-2.82,2.81,2.19,1.65,5.28,5.29,5.29
24.89,2.54,-2.75,2.54,-2.75,2.74,2.14,1.69,5.29,5.29,5.29
25.14,2.61,-2.68,2.61,-2.68,2.68,2.10,1.74,5.29,5.29,5.29
25.39,2.67,-2.61,2.68,-2.61,2.61,2.05,1.78,5.29,5.29,5.28
25.65,2.74,-2.54,2.74,-2.54,2.54,2.00,1.83,5.29,5.29,5.28
25.91,2.80,-2.48,2.80,-2.48,2.48,1.95,1.87,5.28,5.28,5.28
26.16,2.87,-2.41,2.87,-2.41,2.41,1.90,1.92,5.29,5.29,5.29
26.43,2.93,-2.36,2.94,-2.35,2.35,1.85,1.96,5.28,5.29,5.29
26.69,3.00,-2.28,3.00,-2.29,2.29,1.81,2.00,5.29,5.29,5.29
26.96,3.06,-2.22,3.06,-2.22,2.22,1.76,2.05,5.29,5.29,5.29
27.23,3.12,-2.16,3.12,-2.16,2.16,1.71,2.08,5.28,5.29,5.28
27.50,3.18,-2.10,3.19,-2.10,2.10,1.66,2.12,5.28,5.28,5.28
27.77,3.25,-2.04,3.25,-2.04,2.03,1.61,2.15,5.29,5.29,5.29
28.05,3.31,-1.97,3.31,-1.97,1.97,1.56,2.19,5.28,5.28,5.28
28.33,3.37,-1.91,3.37,-1.91,1.91,1.51,2.21,5.28,5.28,5.28
28.62,3.43,-1.84,3.43,-1.84,1.84,1.45,2.24,5.27,5.27,5.27
28.90,3.49,-1.78,3.49,-1.78,1.78,1.40,2.26,5.27,5.27,5.28
29.19,3.55,-1.71,3.55,-1.71,1.71,1.35,2.28,5.26,5.26,5.27
29.48,3.61,-1.64,3.61,-1.65,1.65,1.30,2.29,5.26,5.26,5.25
29.78,3.67,-1.58,3.67,-1.58,1.58,1.25,2.29,5.26,5.25,5.25
30.08,3.73,-1.52,3.73,-1.52,1.52,1.20,2.30,5.25,5.25,5.25
30.38,3.78,-1.46,3.79,-1.46,1.46,1.15,2.29,5.24,5.24,5.24
30.68,3.84,-1.40,3.84,-1.40,1.40,1.09,2.28,5.24,5.24,5.24
30.99,3.90,-1.33,3.90,-1.34,1.34,1.04,2.27,5.24,5.23,5.24
31.30,3.95,-1.28,3.96,-1.28,1.28,0.99,2.25,5.23,5.23,5.23
31.61,4.01,-1.22,4.01,-1.22,1.22,0.94,2.23,5.23,5.23,5.23
31.93,4.07,-1.16,4.07,-1.16,1.16,0.88,2.19,5.24,5.23,5.23
32.24,4.13,-1.10,4.13,-1.10,1.11,0.83,2.16,5.24,5.24,5.24
32.57,4.18,-1.04,4.19,-1.05,1.05,0.78,2.12,5.23,5.24,5.23
32.89,4.24,-0.99,4.24,-0.99,0.99,0.72,2.07,5.23,5.23,5.23
33.22,4.29,-0.94,4.29,-0.94,0.93,0.67,2.02,5.23,5.23,5.23
33.55,4.34,-0.89,4.35,-0.88,0.87,0.61,1.96,5.22,5.22,5.23
33.89,4.40,-0.81,4.40,-0.82,0.81,0.56,1.90,5.22,5.22,5.22
34.23,4.46,-0.74,4.46,-0.75,0.75,0.51,1.83,5.21,5.21,5.20
34.57,4.51,-0.69,4.51,-0.68,0.69,0.45,1.76,5.20,5.20,5.20
34.92,4.56,-0.62,4.56,-0.62,0.62,0.40,1.69,5.18,5.18,5.18
35.27,4.61,-0.56,4.62,-0.55,0.55,0.34,1.61,5.16,5.17,5.17
35.62,4.67,-0.47,4.67,-0.48,0.48,0.29,1.53,5.15,5.15,5.14
35.97,4.71,-0.41,4.72,-0.41,0.41,0.23,1.44,5.12,5.12,5.13
36.33,4.76,-0.34,4.76,-0.34,0.33,0.17,1.36,5.10,5.10,5.10
36.70,4.81,-0.26,4.81,-0.26,0.26,0.12,1.27,5.07,5.07,5.07
37.06,4.86,-0.18,4.86,-0.18,0.18,0.06,1.17,5.05,5.05,5.05
37.43,4.91,-0.10,4.91,-0.10,0.10,0.01,1.08,5.02,5.02,5.01
37.81,4.96,-0.03,4.96,-0.02,0.02,-0.05,0.99,4.99,4.99,4.99
38.19,5.01,0.06,5.01,0.05,-0.05,-0.11,0.89,4.96,4.96,4.96
38.57,5.06,0.13,5.06,0.13,-0.13,-0.16,0.79,4.93,4.93,4.93
38.95,5.11,0.21,5.11,0.21,-0.21,-0.22,0.69,4.91,4.91,4.91
39.34,5.16,0.29,5.16,0.29,-0.28,-0.28,0.59,4.88,4.88,4.87
39.74,5.20,0.36,5.21,0.36,-0.35,-0.34,0.49,4.85,4.85,4.85
40.14,5.25,0.43,5.25,0.43,-0.43,-0.40,0.39,4.83,4.83,4.82
40.54,5.29,0.49,5.29,0.49,-0.49,-0.45,0.29,4.80,4.80,4.81
40.94,5.34,0.56,5.34,0.56,-0.56,-0.51,0.18,4.78,4.78,4.78
41.35,5.38,0.63,5.39,0.63,-0.63,-0.57,0.08,4.76,4.76,4.76
41.76,5.43,0.70,5.43,0.69,-0.69,-0.63,-0.02,4.74,4.74,4.73
42.18,5.47,0.75,5.47,0.76,-0.76,-0.69,-0.13,4.72,4.72,4.72
42.60,5.51,0.82,5.52,0.82,-0.82,-0.75,-0.23,4.69,4.70,4.70
43.03,5.56,0.89,5.56,0.88,-0.88,-0.81,-0.34,4.68,4.68,4.67
43.46,5.60,0.95,5.60,0.95,-0.94,-0.87,-0.44,4.66,4.66,4.65
43.90,5.64,1.00,5.64,1.01,-1.01,-0.93,-0.55,4.64,4.64,4.64
44.33,5.68,1.07,5.68,1.07,-1.07,-1.00,-0.66,4.62,4.61,4.61
44.78,5.72,1.13,5.72,1.13,-1.13,-1.06,-0.76,4.59,4.59,4.59
45.23,5.76,1.18,5.76,1.19,-1.19,-1.12,-0.87,4.57,4.57,4.58
45.68,5.80,1.26,5.80,1.26,-1.26,-1.18,-0.98,4.54,4.54,4.55
46.13,5.84,1.34,5.84,1.33,-1.32,-1.25,-1.08,4.52,4.52,4.51
46.60,5.88,1.39,5.88,1.40,-1.39,-1.31,-1.19,4.49,4.49,4.49
47.06,5.92,1.46,5.92,1.46,-1.46,-1.38,-1.30,4.46,4.46,4.46
47.53,5.95,1.52,5.96,1.53,-1.53,-1.44,-1.41,4.42,4.42,4.43
48.01,5.99,1.61,5.99,1.61,-1.61,-1.51,-1.52,4.38,4.39,4.38
48.49,6.03,1.68,6.03,1.68,-1.68,-1.57,-1.63,4.35,4.35,4.35
48.97,6.06,1.75,6.07,1.76,-1.76,-1.64,-1.74,4.30,4.31,4.31
49.46,6.10,1.82,6.10,1.83,-1.83,-1.71,-1.85,4.27,4.27,4.28
49.96,6.14,1.92,6.14,1.91,-1.91,-1.78,-1.96,4.23,4.23,4.22
50.46,6.17,1.99,6.17,1.99,-1.98,-1.84,-2.06,4.19,4.19,4.19
50.96,6.20,2.06,6.21,2.06,-2.06,-1.91,-2.17,4.15,4.15,4.14
51.47,6.24,2.13,6.24,2.13,-2.13,-1.98,-2.28,4.11,4.11,4.11
51.99,6.27,2.20,6.28,2.20,-2.20,-2.06,-2.39,4.07,4.07,4.07
52.51,6.31,2.28,6.31,2.27,-2.27,-2.13,-2.50,4.04,4.04,4.03
53.03,6.33,2.32,6.34,2.33,-2.34,-2.20,-2.60,3.99,4.00,4.01
53.56,6.36,2.40,6.37,2.40,-2.41,-2.27,-2.71,3.96,3.96,3.97
54.10,6.40,2.48,6.40,2.47,-2.48,-2.35,-2.81,3.93,3.92,3.92
54.64,6.42,2.54,6.43,2.55,-2.54,-2.42,-2.91,3.88,3.89,3.89
55.18,6.46,2.62,6.46,2.62,-2.61,-2.50,-3.01,3.85,3.85,3.84
55.74,6.48,2.68,6.48,2.68,-2.68,-2.57,-3.10,3.81,3.81,3.80
56.29,6.51,2.74,6.51,2.74,-2.74,-2.65,-3.20,3.77,3.77,3.78
56.86,6.54,2.80,6.54,2.80,-2.80,-2.72,-3.29,3.74,3.74,3.75
57.42,6.57,2.87,6.57,2.87,-2.86,-2.80,-3.37,3.71,3.71,3.70
58.00,6.60,2.93,6.60,2.93,-2.92,-2.88,-3.46,3.69,3.68,3.67
58.58,6.63,2.98,6.63,2.98,-2.98,-2.95,-3.54,3.66,3.65,3.65
59.16,6.64,3.02,6.65,3.03,-3.04,-3.03,-3.61,3.60,3.61,3.62
59.76,6.67,3.08,6.68,3.09,-3.11,-3.11,-3.68,3.57,3.57,3.59
60.35,6.70,3.17,6.70,3.16,-3.17,-3.18,-3.75,3.53,3.53,3.54
60.96,6.73,3.24,6.73,3.24,-3.25,-3.26,-3.81,3.49,3.48,3.50
61.57,6.75,3.32,6.76,3.32,-3.32,-3.33,-3.87,3.43,3.44,3.43
62.18,6.78,3.40,6.78,3.40,-3.39,-3.41,-3.92,3.39,3.39,3.38
62.80,6.81,3.48,6.81,3.48,-3.47,-3.48,-3.97,3.35,3.34,3.33
63.43,6.83,3.55,6.84,3.55,-3.54,-3.55,-4.01,3.29,3.30,3.28
64.07,6.85,3.61,6.86,3.61,-3.61,-3.63,-4.05,3.25,3.25,3.24
64.71,6.88,3.68,6.88,3.67,-3.67,-3.69,-4.09,3.21,3.21,3.21
65.35,6.89,3.72,6.90,3.73,-3.73,-3.76,-4.12,3.16,3.17,3.17
66.01,6.92,3.79,6.92,3.79,-3.79,-3.83,-4.14,3.13,3.13,3.13
66.67,6.94,3.84,6.94,3.84,-3.85,-3.89,-4.16,3.09,3.09,3.10
67.33,6.95,3.90,6.96,3.91,-3.91,-3.95,-4.18,3.05,3.06,3.05
68.01,6.98,3.97,6.98,3.97,-3.96,-4.01,-4.20,3.02,3.02,3.01
68.69,7.00,4.03,7.00,4.02,-4.02,-4.07,-4.21,2.98,2.98,2.97
69.37,7.01,4.07,7.02,4.08,-4.08,-4.12,-4.22,2.94,2.94,2.94
70.07,7.03,4.13,7.03,4.13,-4.14,-4.18,-4.23,2.90,2.90,2.91
70.77,7.05,4.19,7.05,4.19,-4.20,-4.23,-4.23,2.86,2.86,2.86
71.48,7.07,4.26,7.07,4.25,-4.25,-4.28,-4.24,2.82,2.82,2.82
72.19,7.08,4.31,7.09,4.31,-4.31,-4.33,-4.24,2.77,2.78,2.77
72.91,7.10,4.37,7.10,4.37,-4.37,-4.37,-4.25,2.73,2.73,2.74
73.64,7.12,4.43,7.12,4.43,-4.43,-4.42,-4.25,2.70,2.69,2.69
74.38,7.13,4.48,7.14,4.48,-4.48,-4.46,-4.26,2.65,2.66,2.65
75.12,7.15,4.54,7.15,4.54,-4.53,-4.50,-4.26,2.62,2.62,2.61
75.87,7.16,4.57,7.17,4.58,-4.58,-4.54,-4.27,2.58,2.58,2.59
76.63,7.18,4.63,7.18,4.63,-4.63,-4.58,-4.28,2.55,2.55,2.55
77.40,7.19,4.67,7.19,4.67,-4.67,-4.62,-4.28,2.52,2.52,2.52
78.17,7.20,4.73,7.20,4.72,-4.72,-4.66,-4.29,2.49,2.49,2.48
78.95,7.21,4.75,7.21,4.76,-4.76,-4.70,-4.31,2.46,2.45,2.46
79.74,7.22,4.79,7.22,4.80,-4.80,-4.74,-4.32,2.42,2.42,2.43
80.54,7.23,4.84,7.24,4.84,-4.84,-4.78,-4.34,2.39,2.40,2.39
81.35,7.25,4.88,7.25,4.88,-4.88,-4.82,-4.36,2.37,2.37,2.37
82.16,7.26,4.92,7.26,4.92,-4.92,-4.86,-4.38,2.34,2.34,2.34
82.98,7.26,4.96,7.27,4.96,-4.96,-4.90,-4.41,2.30,2.31,2.31
83.81,7.28,5.01,7.28,5.01,-5.00,-4.95,-4.44,2.28,2.28,2.28
84.65,7.29,5.05,7.29,5.05,-5.04,-4.99,-4.47,2.25,2.25,2.24
85.50,7.29,5.08,7.30,5.08,-5.08,-5.03,-4.51,2.21,2.22,2.21
86.35,7.30,5.11,7.30,5.12,-5.12,-5.07,-4.54,2.18,2.18,2.19
87.22,7.30,5.15,7.31,5.15,-5.16,-5.11,-4.59,2.15,2.15,2.16
88.09,7.32,5.20,7.32,5.19,-5.19,-5.16,-4.63,2.13,2.12,2.13
88.97,7.32,5.23,7.32,5.23,-5.23,-5.20,-4.68,2.09,2.09,2.09
89.86,7.33,5.27,7.33,5.27,-5.27,-5.24,-4.73,2.06,2.06,2.06
90.76,7.33,5.31,7.34,5.31,-5.31,-5.29,-4.79,2.03,2.03,2.03
91.66,7.34,5.35,7.34,5.35,-5.35,-5.33,-4.85,2.00,2.00,1.99
92.58,7.34,5.38,7.35,5.39,-5.39,-5.38,-4.91,1.96,1.96,1.96
93.51,7.35,5.43,7.35,5.43,-5.43,-5.42,-4.98,1.93,1.92,1.92
94.44,7.35,5.46,7.35,5.47,-5.47,-5.47,-5.05,1.88,1.88,1.89
95.39,7.35,5.51,7.35,5.51,-5.51,-5.51,-5.12,1.84,1.84,1.84
96.34,7.35,5.56,7.35,5.55,-5.56,-5.56,-5.20,1.79,1.79,1.80
97.30,7.35,5.59,7.36,5.60,-5.61,-5.60,-5.28,1.75,1.75,1.76
98.28,7.36,5.66,7.36,5.65,-5.65,-5.65,-5.36,1.71,1.71,1.70
99.26,7.36,5.71,7.36,5.70,-5.70,-5.69,-5.45,1.67,1.67,1.66
100.25,7.36,5.74,7.36,5.75,-5.74,-5.74,-5.54,1.62,1.63,1.62
101.25,7.36,5.78,7.36,5.78,-5.78,-5.78,-5.62,1.58,1.58,1.58
102.27,7.36,5.82,7.36,5.82,-5.82,-5.82,-5.72,1.54,1.54,1.54
103.29,7.36,5.86,7.36,5.86,-5.85,-5.87,-5.81,1.51,1.51,1.51
104.32,7.36,5.88,7.36,5.89,-5.89,-5.91,-5.90,1.48,1.47,1.48
105.37,7.36,5.92,7.36,5.92,-5.92,-5.95,-6.00,1.44,1.44,1.44
106.42,7.35,5.94,7.36,5.95,-5.95,-6.00,-6.09,1.40,1.41,1.41
107.48,7.35,5.99,7.35,5.98,-5.98,-6.04,-6.19,1.37,1.37,1.37
108.56,7.35,6.02,7.35,6.01,-6.01,-6.08,-6.28,1.34,1.34,1.34
109.64,7.34,6.03,7.35,6.04,-6.04,-6.12,-6.37,1.30,1.31,1.31
110.74,7.34,6.07,7.34,6.07,-6.07,-6.16,-6.46,1.27,1.27,1.27
111.85,7.34,6.11,7.34,6.10,-6.10,-6.20,-6.55,1.24,1.24,1.24
112.97,7.33,6.14,7.34,6.14,-6.14,-6.23,-6.64,1.19,1.20,1.20
114.10,7.33,6.17,7.33,6.17,-6.17,-6.27,-6.72,1.16,1.15,1.16
115.24,7.31,6.20,7.32,6.21,-6.21,-6.31,-6.80,1.10,1.11,1.12
116.39,7.31,6.25,7.31,6.25,-6.25,-6.34,-6.87,1.06,1.07,1.06
117.55,7.31,6.29,7.31,6.29,-6.29,-6.38,-6.94,1.03,1.02,1.02
118.73,7.30,6.33,7.30,6.33,-6.32,-6.41,-7.00,0.98,0.98,0.97
119.92,7.29,6.37,7.29,6.37,-6.36,-6.44,-7.05,0.93,0.93,0.92
121.12,7.28,6.39,7.28,6.40,-6.40,-6.47,-7.10,0.88,0.88,0.89
122.33,7.27,6.44,7.27,6.43,-6.44,-6.50,-7.14,0.84,0.84,0.84
123.55,7.26,6.47,7.27,6.47,-6.48,-6.53,-7.18,0.79,0.79,0.79
124.79,7.26,6.51,7.26,6.51,-6.52,-6.56,-7.20,0.75,0.74,0.75
126.03,7.24,6.54,7.25,6.55,-6.55,-6.58,-7.22,0.69,0.69,0.70
127.29,7.23,6.59,7.24,6.59,-6.59,-6.61,-7.23,0.64,0.64,0.64
128.57,7.23,6.65,7.23,6.64,-6.63,-6.63,-7.24,0.60,0.59,0.59
129.85,7.21,6.67,7.22,6.68,-6.67,-6.65,-7.23,0.54,0.54,0.54
131.15,7.20,6.71,7.20,6.71,-6.71,-6.68,-7.22,0.49,0.49,0.49
132.46,7.18,6.74,7.19,6.74,-6.74,-6.70,-7.20,0.44,0.44,0.44
133.79,7.17,6.77,7.17,6.77,-6.77,-6.72,-7.19,0.40,0.40,0.40
135.12,7.16,6.81,7.16,6.80,-6.80,-6.74,-7.16,0.36,0.36,0.36
136.48,7.15,6.82,7.15,6.83,-6.83,-6.75,-7.12,0.33,0.33,0.33
137.84,7.14,6.85,7.14,6.85,-6.85,-6.77,-7.09,0.30,0.29,0.30
139.22,7.12,6.87,7.12,6.86,-6.86,-6.79,-7.05,0.26,0.26,0.25
140.61,7.10,6.88,7.11,6.88,-6.88,-6.81,-7.00,0.22,0.23,0.23
142.02,7.09,6.90,7.09,6.90,-6.90,-6.82,-6.96,0.20,0.20,0.20
143.44,7.08,6.92,7.08,6.91,-6.91,-6.84,-6.91,0.17,0.17,0.16
144.87,7.05,6.91,7.06,6.92,-6.92,-6.85,-6.87,0.13,0.14,0.14
146.32,7.04,6.93,7.04,6.93,-6.93,-6.87,-6.82,0.11,0.11,0.11
147.78,7.02,6.94,7.02,6.94,-6.94,-6.88,-6.77,0.08,0.08,0.08
149.26,7.01,6.96,7.01,6.96,-6.95,-6.90,-6.72,0.06,0.05,0.05
150.75,6.98,6.97,6.99,6.97,-6.96,-6.91,-6.68,0.02,0.03,0.02
152.26,6.97,6.97,6.97,6.98,-6.97,-6.92,-6.63,-0.00,-0.00,0.00
153.78,6.95,6.99,6.95,6.98,-6.98,-6.94,-6.59,-0.03,-0.03,-0.04
155.32,6.93,6.99,6.93,7.00,-7.00,-6.95,-6.55,-0.06,-0.06,-0.06
156.88,6.91,7.01,6.91,7.01,-7.01,-6.97,-6.51,-0.09,-0.09,-0.09
158.44,6.89,7.02,6.89,7.02,-7.02,-6.98,-6.48,-0.13,-0.13,-0.13
160.03,6.87,7.03,6.87,7.03,-7.03,-6.99,-6.45,-0.16,-0.16,-0.16
161.63,6.84,7.03,6.85,7.04,-7.05,-7.01,-6.43,-0.20,-0.20,-0.19
163.24,6.82,7.07,6.83,7.06,-7.06,-7.02,-6.40,-0.24,-0.24,-0.24
164.88,6.80,7.08,6.81,7.08,-7.08,-7.04,-6.39,-0.27,-0.27,-0.27
166.53,6.79,7.10,6.79,7.09,-7.09,-7.05,-6.37,-0.30,-0.31,-0.31
168.19,6.76,7.10,6.76,7.11,-7.11,-7.06,-6.36,-0.34,-0.34,-0.34
169.87,6.73,7.11,6.74,7.12,-7.12,-7.08,-6.36,-0.39,-0.38,-0.38
171.57,6.71,7.14,6.71,7.13,-7.14,-7.09,-6.36,-0.42,-0.42,-0.42
173.29,6.69,7.15,6.69,7.15,-7.15,-7.10,-6.36,-0.46,-0.46,-0.46
175.02,6.66,7.16,6.67,7.16,-7.16,-7.11,-6.37,-0.50,-0.49,-0.50
176.77,6.64,7.17,6.64,7.17,-7.17,-7.13,-6.38,-0.53,-0.53,-0.53
178.54,6.61,7.18,6.61,7.18,-7.18,-7.14,-6.40,-0.57,-0.57,-0.56
180.32,6.59,7.20,6.59,7.19,-7.19,-7.15,-6.43,-0.60,-0.60,-0.61
182.13,6.55,7.19,6.56,7.20,-7.20,-7.16,-6.46,-0.65,-0.64,-0.64
183.95,6.53,7.20,6.53,7.21,-7.21,-7.17,-6.49,-0.67,-0.68,-0.67
185.79,6.50,7.22,6.50,7.21,-7.21,-7.18,-6.53,-0.71,-0.71,-0.71
187.65,6.47,7.22,6.47,7.22,-7.22,-7.19,-6.57,-0.75,-0.75,-0.74
189.52,6.44,7.23,6.44,7.23,-7.23,-7.19,-6.62,-0.79,-0.79,-0.78
191.42,6.41,7.23,6.41,7.23,-7.24,-7.20,-6.67,-0.82,-0.82,-0.82
193.33,6.38,7.24,6.38,7.25,-7.24,-7.20,-6.72,-0.86,-0.86,-0.86
195.27,6.35,7.25,6.35,7.25,-7.25,-7.21,-6.78,-0.89,-0.89,-0.90
197.22,6.32,7.26,6.32,7.25,-7.25,-7.21,-6.85,-0.93,-0.93,-0.94
199.19,6.28,7.25,6.29,7.25,-7.25,-7.21,-6.91,-0.97,-0.96,-0.96
201.18,6.25,7.25,6.25,7.25,-7.25,-7.22,-6.98,-0.99,-0.99,-1.00
203.19,6.22,7.25,6.22,7.24,-7.24,-7.22,-7.05,-1.02,-1.02,-1.02
205.23,6.18,7.23,6.19,7.24,-7.24,-7.22,-7.13,-1.06,-1.05,-1.05
207.28,6.15,7.23,6.15,7.23,-7.23,-7.21,-7.21,-1.08,-1.08,-1.07
209.35,6.11,7.22,6.12,7.22,-7.23,-7.21,-7.28,-1.11,-1.11,-1.11
211.44,6.08,7.22,6.08,7.22,-7.22,-7.21,-7.36,-1.14,-1.13,-1.13
213.56,6.05,7.22,6.05,7.21,-7.21,-7.20,-7.44,-1.16,-1.16,-1.17
215.69,6.01,7.20,6.01,7.20,-7.20,-7.20,-7.52,-1.19,-1.19,-1.19
217.85,5.97,7.18,5.98,7.19,-7.19,-7.19,-7.60,-1.22,-1.21,-1.21
220.03,5.94,7.19,5.94,7.18,-7.18,-7.18,-7.68,-1.23,-1.24,-1.24
222.23,5.90,7.17,5.90,7.17,-7.16,-7.17,-7.75,-1.26,-1.26,-1.26
224.45,5.86,7.15,5.86,7.15,-7.14,-7.16,-7.82,-1.28,-1.28,-1.29
226.70,5.81,7.12,5.82,7.12,-7.12,-7.15,-7.89,-1.31,-1.30,-1.31
228.96,5.78,7.10,5.78,7.10,-7.10,-7.14,-7.95,-1.32,-1.32,-1.32
231.25,5.74,7.08,5.74,7.08,-7.08,-7.13,-8.01,-1.34,-1.34,-1.34
233.57,5.70,7.06,5.70,7.06,-7.06,-7.12,-8.06,-1.36,-1.36,-1.36
235.90,5.66,7.05,5.66,7.04,-7.04,-7.10,-8.10,-1.38,-1.38,-1.39
238.26,5.62,7.03,5.62,7.02,-7.02,-7.09,-8.13,-1.40,-1.40,-1.40
240.64,5.58,6.99,5.59,7.00,-7.00,-7.07,-8.16,-1.42,-1.41,-1.40
243.05,5.56,6.98,5.55,6.98,-6.98,-7.06,-8.17,-1.42,-1.43,-1.42
245.48,5.52,6.96,5.53,6.96,-6.96,-7.04,-8.18,-1.44,-1.44,-1.44
247.93,5.49,6.95,5.50,6.95,-6.94,-7.02,-8.17,-1.45,-1.44,-1.46
250.41,5.47,6.93,5.47,6.93,-6.92,-7.00,-8.16,-1.45,-1.46,-1.45
252.92,5.44,6.90,5.44,6.91,-6.91,-6.99,-8.13,-1.47,-1.47,-1.46
255.45,5.41,6.89,5.42,6.89,-6.89,-6.97,-8.09,-1.48,-1.48,-1.48
258.00,5.39,6.88,5.39,6.88,-6.88,-6.95,-8.05,-1.49,-1.49,-1.48
260.58,5.37,6.86,5.37,6.87,-6.87,-6.93,-7.99,-1.50,-1.50,-1.49
263.19,5.36,6.87,5.36,6.86,-6.86,-6.91,-7.93,-1.50,-1.50,-1.51
265.82,5.34,6.86,5.35,6.86,-6.86,-6.89,-7.85,-1.51,-1.51,-1.51
268.48,5.33,6.85,5.33,6.85,-6.85,-6.87,-7.77,-1.52,-1.52,-1.52
271.16,5.31,6.85,5.31,6.84,-6.85,-6.84,-7.68,-1.53,-1.53,-1.53
273.87,5.29,6.83,5.30,6.84,-6.84,-6.82,-7.58,-1.55,-1.54,-1.54
276.61,5.28,6.84,5.28,6.83,-6.83,-6.80,-7.48,-1.55,-1.55,-1.55
279.38,5.25,6.82,5.26,6.82,-6.82,-6.77,-7.37,-1.57,-1.56,-1.57
282.17,5.24,6.82,5.24,6.81,-6.81,-6.75,-7.25,-1.56,-1.57,-1.57
284.99,5.21,6.78,5.21,6.79,-6.79,-6.73,-7.14,-1.58,-1.58,-1.57
287.84,5.18,6.76,5.19,6.77,-6.77,-6.70,-7.02,-1.59,-1.58,-1.57
290.72,5.16,6.76,5.16,6.75,-6.75,-6.67,-6.90,-1.59,-1.59,-1.60
293.63,5.13,6.72,5.13,6.73,-6.72,-6.65,-6.78,-1.59,-1.59,-1.59
296.57,5.10,6.70,5.10,6.70,-6.69,-6.62,-6.66,-1.59,-1.59,-1.60
299.53,5.06,6.66,5.06,6.66,-6.66,-6.59,-6.53,-1.60,-1.60,-1.60
302.53,5.02,6.63,5.02,6.63,-6.63,-6.56,-6.41,-1.60,-1.60,-1.60
305.55,4.98,6.59,4.98,6.59,-6.59,-6.53,-6.29,-1.61,-1.61,-1.61
308.61,4.93,6.54,4.94,6.55,-6.55,-6.49,-6.17,-1.62,-1.61,-1.61
311.69,4.90,6.52,4.90,6.51,-6.51,-6.46,-6.05,-1.61,-1.61,-1.61
314.81,4.85,6.47,4.85,6.47,-6.47,-6.42,-5.93,-1.61,-1.61,-1.62
317.96,4.80,6.42,4.81,6.43,-6.42,-6.38,-5.82,-1.62,-1.61,-1.62
321.14,4.76,6.37,4.76,6.38,-6.38,-6.34,-5.71,-1.61,-1.61,-1.61
324.35,4.71,6.34,4.71,6.32,-6.33,-6.30,-5.60,-1.61,-1.62,-1.62
327.59,4.66,6.27,4.66,6.28,-6.28,-6.26,-5.50,-1.61,-1.62,-1.61
330.87,4.60,6.21,4.61,6.22,-6.23,-6.21,-5.40,-1.62,-1.62,-1.61
334.18,4.56,6.18,4.56,6.17,-6.17,-6.16,-5.30,-1.61,-1.61,-1.62
337.52,4.50,6.12,4.50,6.12,-6.12,-6.11,-5.20,-1.62,-1.61,-1.61
340.90,4.45,6.07,4.45,6.06,-6.06,-6.06,-5.11,-1.61,-1.61,-1.62
344.30,4.39,6.00,4.40,6.01,-6.01,-6.00,-5.02,-1.61,-1.61,-1.61
347.75,4.34,5.94,4.34,5.95,-5.95,-5.94,-4.94,-1.61,-1.61,-1.60
351.23,4.29,5.91,4.29,5.89,-5.89,-5.88,-4.86,-1.60,-1.61,-1.61
354.74,4.23,5.83,4.24,5.84,-5.83,-5.82,-4.78,-1.60,-1.60,-1.59
358.28,4.17,5.78,4.18,5.78,-5.78,-5.76,-4.71,-1.60,-1.60,-1.61
361.87,4.12,5.72,4.12,5.71,-5.72,-5.70,-4.64,-1.59,-1.60,-1.60
365.49,4.05,5.65,4.06,5.65,-5.66,-5.63,-4.58,-1.60,-1.60,-1.60
369.14,3.99,5.58,4.00,5.59,-5.59,-5.56,-4.51,-1.60,-1.60,-1.59
372.83,3.94,5.54,3.94,5.53,-5.53,-5.50,-4.45,-1.59,-1.60,-1.59
376.56,3.87,5.47,3.88,5.47,-5.47,-5.43,-4.40,-1.60,-1.59,-1.59
380.33,3.81,5.41,3.82,5.41,-5.41,-5.36,-4.35,-1.59,-1.59,-1.60
384.13,3.75,5.35,3.75,5.34,-5.34,-5.29,-4.30,-1.59,-1.59,-1.60
387.97,3.68,5.27,3.68,5.27,-5.28,-5.22,-4.25,-1.59,-1.59,-1.59
391.85,3.61,5.20,3.62,5.21,-5.21,-5.15,-4.21,-1.60,-1.59,-1.59
395.77,3.55,5.14,3.55,5.14,-5.14,-5.08,-4.17,-1.59,-1.59,-1.59
399.73,3.49,5.08,3.49,5.08,-5.08,-5.01,-4.13,-1.58,-1.59,-1.59
403.72,3.42,5.01,3.42,5.01,-5.01,-4.94,-4.09,-1.58,-1.58,-1.58
407.76,3.35,4.94,3.36,4.94,-4.94,-4.87,-4.06,-1.58,-1.58,-1.58
411.84,3.28,4.87,3.29,4.87,-4.87,-4.79,-4.03,-1.59,-1.58,-1.59
415.96,3.22,4.80,3.22,4.80,-4.80,-4.72,-4.00,-1.58,-1.58,-1.58
420.12,3.14,4.73,3.15,4.73,-4.73,-4.65,-3.97,-1.59,-1.59,-1.59
424.32,3.07,4.66,3.08,4.66,-4.66,-4.58,-3.94,-1.59,-1.59,-1.59
428.56,3.00,4.58,3.01,4.59,-4.59,-4.51,-3.91,-1.59,-1.59,-1.58
432.85,2.94,4.52,2.94,4.52,-4.52,-4.44,-3.89,-1.58,-1.58,-1.58
437.18,2.86,4.45,2.87,4.45,-4.45,-4.37,-3.86,-1.59,-1.58,-1.59
441.55,2.79,4.38,2.79,4.38,-4.38,-4.30,-3.84,-1.58,-1.58,-1.59
445.96,2.71,4.31,2.71,4.31,-4.30,-4.23,-3.81,-1.59,-1.59,-1.59
450.42,2.63,4.23,2.63,4.23,-4.23,-4.16,-3.78,-1.59,-1.59,-1.59
454.93,2.55,4.15,2.55,4.15,-4.15,-4.09,-3.76,-1.60,-1.60,-1.59
459.48,2.47,4.07,2.48,4.07,-4.07,-4.01,-3.73,-1.60,-1.59,-1.59
464.07,2.40,3.99,2.40,3.99,-3.99,-3.94,-3.70,-1.59,-1.59,-1.58
468.71,2.32,3.91,2.32,3.91,-3.91,-3.87,-3.67,-1.59,-1.59,-1.59
473.40,2.24,3.83,2.24,3.83,-3.83,-3.80,-3.64,-1.59,-1.59,-1.59
478.13,2.16,3.75,2.16,3.75,-3.75,-3.73,-3.60,-1.58,-1.58,-1.59
482.91,2.08,3.67,2.08,3.67,-3.67,-3.66,-3.56,-1.58,-1.58,-1.59
487.74,2.00,3.58,2.00,3.58,-3.58,-3.58,-3.52,-1.58,-1.58,-1.58
492.62,1.91,3.49,1.92,3.50,-3.49,-3.51,-3.48,-1.58,-1.58,-1.58
497.55,1.83,3.41,1.83,3.41,-3.41,-3.44,-3.43,-1.57,-1.58,-1.58
502.52,1.74,3.32,1.74,3.32,-3.32,-3.36,-3.39,-1.57,-1.57,-1.58
507.55,1.65,3.22,1.66,3.23,-3.23,-3.29,-3.33,-1.57,-1.57,-1.57
512.62,1.57,3.14,1.57,3.13,-3.14,-3.22,-3.28,-1.56,-1.57,-1.57
517.75,1.48,3.03,1.48,3.04,-3.04,-3.14,-3.22,-1.56,-1.56,-1.55
