frequency,raw
20.00,-1.65
20.20,-1.67
20.40,-1.68
20.61,-1.69
20.81,-1.69
21.02,-1.69
21.23,-1.68
21.44,-1.67
21.66,-1.66
21.87,-1.64
22.09,-1.62
22.31,-1.59
22.54,-1.56
22.76,-1.52
22.99,-1.48
23.22,-1.43
23.45,-1.38
23.69,-1.32
23.92,-1.27
24.16,-1.22
24.40,-1.18
24.65,-1.14
24.89,-1.12
25.14,-1.10
25.39,-1.09
25.65,-1.06
25.91,-1.03
26.16,-1.00
26.43,-0.97
26.69,-0.94
26.96,-0.91
27.23,-0.89
27.50,-0.87
27.77,-0.84
28.05,-0.81
28.33,-0.78
28.62,-0.76
28.90,-0.74
29.19,-0.73
29.48,-0.71
29.78,-0.70
30.08,-0.68
30.38,-0.66
30.68,-0.65
30.99,-0.64
31.30,-0.61
31.61,-0.58
31.93,-0.55
32.24,-0.52
32.57,-0.49
32.89,-0.47
33.22,-0.45
33.55,-0.43
33.89,-0.41
34.23,-0.39
34.57,-0.37
34.92,-0.35
35.27,-0.34
35.62,-0.32
35.97,-0.29
36.33,-0.26
36.70,-0.22
37.06,-0.18
37.43,-0.12
37.81,-0.06
38.19,0.01
38.57,0.07
38.95,0.14
39.34,0.21
39.74,0.28
40.14,0.36
40.54,0.43
40.94,0.49
41.35,0.55
41.76,0.62
42.18,0.69
42.60,0.74
43.03,0.78
43.46,0.82
43.90,0.86
44.33,0.89
44.78,0.92
45.23,0.93
45.68,0.93
46.13,0.94
46.60,0.95
47.06,0.95
47.53,0.94
48.01,0.93
48.49,0.93
48.97,0.93
49.46,0.93
49.96,0.93
50.46,0.93
50.96,0.93
51.47,0.93
51.99,0.93
52.51,0.93
53.03,0.93
53.56,0.93
54.10,0.93
54.64,0.93
55.18,0.93
55.74,0.93
56.29,0.93
56.86,0.93
57.42,0.93
58.00,0.93
58.58,0.93
59.16,0.93
59.76,0.93
60.35,0.93
60.96,0.93
61.57,0.93
62.18,0.93
62.80,0.93
63.43,0.93
64.07,0.93
64.71,0.93
65.35,0.93
66.01,0.93
66.67,0.93
67.33,0.93
68.01,0.93
68.69,0.93
69.37,0.93
70.07,0.93
70.77,0.93
71.48,0.93
72.19,0.93
72.91,0.93
73.64,0.93
74.38,0.94
75.12,0.94
75.87,0.95
76.63,0.95
77.40,0.94
78.17,0.92
78.95,0.90
79.74,0.88
80.54,0.85
81.35,0.82
82.16,0.79
82.98,0.77
83.81,0.74
84.65,0.72
85.50,0.69
86.35,0.66
87.22,0.63
88.09,0.59
88.97,0.55
89.86,0.52
90.76,0.49
91.66,0.47
92.58,0.44
93.51,0.42
94.44,0.39
95.39,0.36
96.34,0.33
97.30,0.31
98.28,0.29
99.26,0.28
100.25,0.28
101.25,0.28
102.27,0.27
103.29,0.27
104.32,0.26
105.37,0.25
106.42,0.23
107.48,0.20
108.56,0.17
109.64,0.14
110.74,0.11
111.85,0.07
112.97,0.04
114.10,0.02
115.24,-0.01
116.39,-0.03
117.55,-0.05
118.73,-0.07
119.92,-0.08
121.12,-0.09
122.33,-0.09
123.55,-0.07
124.79,-0.06
126.03,-0.04
127.29,-0.02
128.57,0.01
129.85,0.04
131.15,0.07
132.46,0.10
133.79,0.13
135.12,0.16
136.48,0.19
137.84,0.22
139.22,0.24
140.61,0.27
142.02,0.29
143.44,0.31
144.87,0.32
146.32,0.32
147.78,0.31
149.26,0.29
150.75,0.26
152.26,0.24
153.78,0.22
155.32,0.19
156.88,0.16
158.44,0.14
160.03,0.12
161.63,0.09
163.24,0.06
164.88,0.03
166.53,-0.01
168.19,-0.05
169.87,-0.08
171.57,-0.11
173.29,-0.13
175.02,-0.16
176.77,-0.19
178.54,-0.23
180.32,-0.27
182.13,-0.32
183.95,-0.37
185.79,-0.43
187.65,-0.47
189.52,-0.50
191.42,-0.54
193.33,-0.58
195.27,-0.62
197.22,-0.65
199.19,-0.69
201.18,-0.73
203.19,-0.77
205.23,-0.81
207.28,-0.85
209.35,-0.88
211.44,-0.90
213.56,-0.91
215.69,-0.93
217.85,-0.95
220.03,-0.99
222.23,-1.02
224.45,-1.05
226.70,-1.08
228.96,-1.11
231.25,-1.13
233.57,-1.15
235.90,-1.17
238.26,-1.21
240.64,-1.24
243.05,-1.27
245.48,-1.29
247.93,-1.32
250.41,-1.34
252.92,-1.35
255.45,-1.36
258.00,-1.37
260.58,-1.37
263.19,-1.36
265.82,-1.35
268.48,-1.35
271.16,-1.35
273.87,-1.35
276.61,-1.35
279.38,-1.35
282.17,-1.35
284.99,-1.35
287.84,-1.35
290.72,-1.35
293.63,-1.35
296.57,-1.35
299.53,-1.35
302.53,-1.35
305.55,-1.35
308.61,-1.35
311.69,-1.35
314.81,-1.35
317.96,-1.34
321.14,-1.34
324.35,-1.33
327.59,-1.32
330.87,-1.32
334.18,-1.33
337.52,-1.35
340.90,-1.36
344.30,-1.39
347.75,-1.41
351.23,-1.44
354.74,-1.47
358.28,-1.50
361.87,-1.54
365.49,-1.57
369.14,-1.60
372.83,-1.62
376.56,-1.65
380.33,-1.66
384.13,-1.67
387.97,-1.67
391.85,-1.67
395.77,-1.67
399.73,-1.67
403.72,-1.68
407.76,-1.70
411.84,-1.73
415.96,-1.76
420.12,-1.79
424.32,-1.82
428.56,-1.85
432.85,-1.88
437.18,-1.91
441.55,-1.94
445.96,-1.96
450.42,-1.98
454.93,-2.00
459.48,-2.01
464.07,-2.02
468.71,-2.02
473.40,-2.01
478.13,-2.00
482.91,-1.99
487.74,-1.99
492.62,-1.99
497.55,-1.99
502.52,-1.99
507.55,-1.99
512.62,-1.99
517.75,-2.00
522.93,-2.01
528.16,-2.02
533.44,-2.02
538.77,-2.01
544.16,-2.00
549.60,-1.98
555.10,-1.96
560.65,-1.94
566.25,-1.92
571.92,-1.90
577.64,-1.87
583.41,-1.83
589.25,-1.79
595.14,-1.76
601.09,-1.71
607.10,-1.66
613.17,-1.61
619.30,-1.55
625.50,-1.50
631.75,-1.45
638.07,-1.40
644.45,-1.34
650.89,-1.29
657.40,-1.23
663.98,-1.17
670.62,-1.09
677.32,-1.02
684.10,-0.94
690.94,-0.88
697.85,-0.83
704.83,-0.77
711.87,-0.70
718.99,-0.63
726.18,-0.57
733.44,-0.52
740.78,-0.47
748.19,-0.40
755.67,-0.33
763.23,-0.26
770.86,-0.20
778.57,-0.14
786.35,-0.08
794.22,-0.02
802.16,0.03
810.18,0.07
818.28,0.11
826.46,0.17
834.73,0.23
843.08,0.29
851.51,0.34
860.02,0.37
868.62,0.39
877.31,0.41
886.08,0.44
894.94,0.45
903.89,0.45
912.93,0.44
922.06,0.43
931.28,0.42
940.59,0.39
950.00,0.35
959.50,0.31
969.09,0.26
978.78,0.18
988.57,0.10
998.46,0.01
1008.44,-0.08
1018.53,-0.17
1028.71,-0.26
1039.00,-0.36
1049.39,-0.46
1059.88,-0.58
1070.48,-0.71
1081.19,-0.85
1092.00,-0.98
1102.92,-1.11
1113.95,-1.25
1125.09,-1.40
1136.34,-1.55
1147.70,-1.70
1159.18,-1.86
1170.77,-2.03
1182.48,-2.19
1194.30,-2.35
1206.25,-2.53
1218.31,-2.73
1230.49,-2.93
1242.80,-3.15
1255.22,-3.38
1267.78,-3.60
1280.45,-3.83
1293.26,-4.07
1306.19,-4.33
1319.25,-4.60
1332.45,-4.89
1345.77,-5.17
1359.23,-5.45
1372.82,-5.74
1386.55,-6.04
1400.41,-6.34
1414.42,-6.65
1428.56,-6.97
1442.85,-7.29
1457.28,-7.61
1471.85,-7.91
1486.57,-8.21
1501.43,-8.52
1516.45,-8.81
1531.61,-9.10
1546.93,-9.37
1562.40,-9.61
1578.02,-9.83
1593.80,-10.02
1609.74,-10.17
1625.84,-10.28
1642.10,-10.34
1658.52,-10.35
1675.10,-10.31
1691.85,-10.22
1708.77,-10.08
1725.86,-9.90
1743.12,-9.67
1760.55,-9.39
1778.15,-9.07
1795.94,-8.73
1813.90,-8.35
1832.03,-7.95
1850.36,-7.55
1868.86,-7.14
1887.55,-6.74
1906.42,-6.33
1925.49,-5.94
1944.74,-5.56
1964.19,-5.20
1983.83,-4.87
2003.67,-4.56
2023.71,-4.27
2043.94,-4.01
2064.38,-3.77
2085.03,-3.56
2105.88,-3.37
2126.94,-3.19
2148.20,-3.05
2169.69,-2.92
2191.38,-2.82
2213.30,-2.75
2235.43,-2.70
2257.78,-2.67
2280.36,-2.66
2303.17,-2.67
2326.20,-2.69
2349.46,-2.73
2372.95,-2.79
2396.68,-2.88
2420.65,-2.99
2444.86,-3.12
2469.31,-3.28
2494.00,-3.45
2518.94,-3.61
2544.13,-3.79
2569.57,-3.99
2595.27,-4.18
2621.22,-4.38
2647.43,-4.57
2673.90,-4.77
2700.64,-4.96
2727.65,-5.14
2754.93,-5.32
2782.48,-5.50
2810.30,-5.65
2838.40,-5.79
2866.79,-5.92
2895.46,-6.05
2924.41,-6.16
2953.65,-6.26
2983.19,-6.34
3013.02,-6.40
3043.15,-6.44
3073.58,-6.46
3104.32,-6.46
3135.36,-6.44
3166.72,-6.42
3198.38,-6.40
3230.37,-6.38
3262.67,-6.36
3295.30,-6.35
3328.25,-6.34
3361.53,-6.33
3395.15,-6.33
3429.10,-6.35
3463.39,-6.38
3498.03,-6.41
3533.01,-6.45
3568.34,-6.50
3604.02,-6.55
3640.06,-6.57
3676.46,-6.58
3713.22,-6.56
3750.36,-6.51
3787.86,-6.43
3825.74,-6.31
3864.00,-6.14
3902.64,-5.92
3941.66,-5.67
3981.08,-5.37
4020.89,-5.02
4061.10,-4.62
4101.71,-4.19
4142.73,-3.74
4184.15,-3.27
4226.00,-2.79
4268.26,-2.31
4310.94,-1.82
4354.05,-1.37
4397.59,-0.95
4441.56,-0.56
4485.98,-0.20
4530.84,0.11
4576.15,0.36
4621.91,0.57
4668.13,0.73
4714.81,0.83
4761.96,0.90
4809.58,0.93
4857.67,0.93
4906.25,0.90
4955.31,0.84
5004.87,0.76
5054.91,0.67
5105.46,0.56
5156.52,0.44
5208.08,0.34
5260.16,0.24
5312.77,0.15
5365.89,0.08
5419.55,0.03
5473.75,0.01
5528.49,0.01
5583.77,0.05
5639.61,0.11
5696.00,0.19
5752.96,0.29
5810.49,0.40
5868.60,0.52
5927.28,0.64
5986.56,0.78
6046.42,0.91
6106.89,1.03
6167.96,1.14
6229.64,1.23
6291.93,1.31
6354.85,1.35
6418.40,1.36
6482.58,1.33
6547.41,1.23
6612.88,1.09
6679.01,0.90
6745.80,0.67
6813.26,0.38
6881.39,0.06
6950.21,-0.29
7019.71,-0.69
7089.91,-1.12
7160.81,-1.58
7232.41,-2.06
7304.74,-2.56
7377.79,-3.07
7451.56,-3.57
7526.08,-4.06
7601.34,-4.53
7677.35,-4.99
7754.13,-5.41
7831.67,-5.81
7909.98,-6.19
7989.08,-6.54
8068.98,-6.88
8149.67,-7.19
8231.16,-7.49
8313.47,-7.77
8396.61,-8.03
8480.57,-8.28
8565.38,-8.52
8651.03,-8.77
8737.54,-9.02
8824.92,-9.28
8913.17,-9.54
9002.30,-9.81
9092.32,-10.08
9183.25,-10.34
9275.08,-10.59
9367.83,-10.82
9461.51,-11.03
9556.12,-11.19
9651.68,-11.32
9748.20,-11.38
9845.68,-11.36
9944.14,-11.25
10043.58,-11.04
10144.02,-10.73
10245.46,-10.34
10347.91,-9.86
10451.39,-9.30
10555.91,-8.68
10661.46,-8.02
10768.08,-7.33
10875.76,-6.63
10984.52,-5.94
11094.36,-5.26
11205.31,-4.61
11317.36,-3.99
11430.53,-3.42
11544.84,-2.89
11660.29,-2.41
11776.89,-1.97
11894.66,-1.58
12013.60,-1.23
12133.74,-0.91
12255.08,-0.61
12377.63,-0.34
12501.41,-0.08
12626.42,0.16
12752.68,0.36
12880.21,0.55
13009.01,0.71
13139.10,0.83
13270.49,0.91
13403.20,0.94
13537.23,0.94
13672.60,0.91
13809.33,0.84
13947.42,0.74
14086.90,0.61
14227.77,0.48
14370.04,0.32
14513.74,0.12
14658.88,-0.10
14805.47,-0.34
14953.52,-0.62
15103.06,-0.94
15254.09,-1.30
15406.63,-1.70
15560.70,-2.13
15716.30,-2.60
15873.47,-3.10
16032.20,-3.61
16192.52,-4.12
16354.45,-4.64
16517.99,-5.16
16683.17,-5.65
16850.01,-6.11
17018.51,-6.54
17188.69,-6.95
17360.58,-7.31
17534.18,-7.62
17709.53,-7.90
17886.62,-8.16
18065.49,-8.40
18246.14,-8.62
18428.60,-8.80
18612.89,-8.96
18799.02,-9.10
18987.01,-9.20
19176.88,-9.28
19368.65,-9.33
19562.33,-9.35
19757.96,-9.35
19955.54,-9.31
