frequency,raw,error,smoothed,error_smoothed,equalization,parametric_eq,fixed_band_eq,equalized_raw,equalized_smoothed,target
20.00,12.44,7.00,12.43,6.99,-6.99,-6.73,-3.09,5.45,5.44,5.44
20.20,12.44,6.99,12.44,6.99,-6.99,-6.75,-3.18,5.46,5.45,5.45
20.40,12.45,6.99,12.45,6.99,-6.99,-6.76,-3.27,5.47,5.46,5.46
20.61,12.45,6.98,12.46,6.99,-6.99,-6.77,-3.36,5.46,5.47,5.47
20.81,12.46,6.99,12.46,6.99,-6.99,-6.78,-3.46,5.47,5.48,5.47
21.02,12.46,6.98,12.47,6.99,-6.99,-6.80,-3.55,5.47,5.48,5.48
21.23,12.47,6.98,12.48,6.99,-6.99,-6.81,-3.65,5.48,5.49,5.49
21.44,12.48,6.97,12.49,6.99,-6.99,-6.82,-3.76,5.49,5.50,5.51
21.66,12.49,6.98,12.50,6.99,-6.99,-6.83,-3.86,5.50,5.51,5.51
21.87,12.50,6.98,12.51,7.00,-7.00,-6.84,-3.97,5.51,5.51,5.52
22.09,12.51,6.99,12.52,7.00,-7.00,-6.85,-4.08,5.51,5.52,5.52
22.31,12.52,7.00,12.52,7.00,-7.00,-6.86,-4.20,5.52,5.52,5.53
22.54,12.53,7.01,12.53,7.01,-7.01,-6.87,-4.32,5.53,5.53,5.53
22.76,12.54,7.01,12.54,7.01,-7.01,-6.88,-4.44,5.53,5.53,5.54
22.99,12.55,7.02,12.55,7.02,-7.02,-6.89,-4.56,5.54,5.54,5.54
23.22,12.56,7.03,12.56,7.02,-7.02,-6.90,-4.69,5.54,5.54,5.53
23.45,12.57,7.03,12.57,7.03,-7.03,-6.91,-4.82,5.55,5.54,5.54
23.69,12.58,7.04,12.58,7.03,-7.03,-6.92,-4.95,5.55,5.55,5.54
23.92,12.59,7.05,12.58,7.03,-7.03,-6.93,-5.09,5.56,5.55,5.54
24.16,12.59,7.04,12.59,7.03,-7.03,-6.94,-5.23,5.56,5.55,5.55
24.40,12.59,7.03,12.59,7.04,-7.04,-6.94,-5.37,5.56,5.55,5.56
24.65,12.59,7.03,12.59,7.04,-7.04,-6.95,-5.51,5.56,5.56,5.56
24.89,12.59,7.03,12.59,7.04,-7.04,-6.96,-5.66,5.56,5.56,5.56
25.14,12.59,7.03,12.59,7.04,-7.04,-6.97,-5.81,5.56,5.56,5.56
25.39,12.59,7.03,12.60,7.04,-7.04,-6.97,-5.96,5.56,5.56,5.56
25.65,12.59,7.03,12.60,7.03,-7.03,-6.98,-6.11,5.56,5.56,5.56
25.91,12.59,7.04,12.60,7.03,-7.03,-6.98,-6.26,5.56,5.56,5.56
26.16,12.59,7.03,12.60,7.03,-7.03,-6.99,-6.41,5.56,5.56,5.57
26.43,12.59,7.03,12.60,7.03,-7.03,-6.99,-6.56,5.56,5.56,5.57
26.69,12.59,7.03,12.59,7.03,-7.03,-7.00,-6.71,5.56,5.56,5.56
26.96,12.59,7.03,12.59,7.03,-7.03,-7.00,-6.86,5.56,5.56,5.56
27.23,12.59,7.03,12.59,7.03,-7.03,-7.01,-7.01,5.57,5.56,5.56
27.50,12.59,7.03,12.59,7.02,-7.02,-7.01,-7.15,5.57,5.57,5.56
27.77,12.59,7.02,12.58,7.02,-7.02,-7.02,-7.29,5.58,5.57,5.57
28.05,12.59,7.02,12.58,7.01,-7.01,-7.02,-7.43,5.58,5.57,5.57
28.33,12.58,7.01,12.57,7.00,-7.00,-7.02,-7.56,5.58,5.57,5.57
28.62,12.57,7.01,12.57,7.00,-7.00,-7.03,-7.69,5.57,5.57,5.57
28.90,12.55,6.98,12.56,6.99,-6.99,-7.03,-7.80,5.56,5.57,5.57
29.19,12.54,6.97,12.56,6.99,-6.99,-7.03,-7.91,5.56,5.57,5.57
29.48,12.54,6.97,12.55,6.98,-6.98,-7.03,-8.01,5.56,5.57,5.57
29.78,12.53,6.96,12.54,6.97,-6.97,-7.03,-8.10,5.56,5.57,5.57
30.08,12.52,6.94,12.53,6.96,-6.96,-7.04,-8.18,5.56,5.57,5.58
30.38,12.52,6.96,12.52,6.95,-6.95,-7.04,-8.25,5.57,5.57,5.57
30.68,12.51,6.95,12.51,6.94,-6.94,-7.04,-8.31,5.57,5.57,5.57
30.99,12.51,6.95,12.50,6.93,-6.93,-7.04,-8.35,5.58,5.56,5.56
31.30,12.49,6.93,12.48,6.92,-6.92,-7.04,-8.38,5.57,5.56,5.56
31.61,12.47,6.91,12.47,6.91,-6.91,-7.04,-8.40,5.56,5.56,5.56
31.93,12.45,6.90,12.45,6.90,-6.90,-7.04,-8.41,5.55,5.56,5.55
32.24,12.44,6.89,12.44,6.89,-6.89,-7.04,-8.40,5.55,5.55,5.56
32.57,12.42,6.88,12.42,6.87,-6.87,-7.04,-8.39,5.55,5.55,5.54
32.89,12.40,6.86,12.41,6.86,-6.86,-7.04,-8.36,5.54,5.54,5.54
33.22,12.38,6.84,12.39,6.85,-6.85,-7.03,-8.32,5.53,5.54,5.54
33.55,12.36,6.83,12.37,6.84,-6.84,-7.03,-8.28,5.53,5.53,5.54
33.89,12.34,6.81,12.35,6.82,-6.82,-7.03,-8.22,5.52,5.53,5.53
34.23,12.32,6.80,12.33,6.81,-6.81,-7.03,-8.16,5.51,5.52,5.52
34.57,12.31,6.79,12.31,6.80,-6.80,-7.02,-8.09,5.52,5.52,5.52
34.92,12.29,6.79,12.29,6.78,-6.78,-7.02,-8.02,5.51,5.51,5.51
35.27,12.28,6.77,12.27,6.77,-6.77,-7.02,-7.94,5.51,5.50,5.51
35.62,12.26,6.77,12.25,6.76,-6.76,-7.01,-7.85,5.50,5.49,5.49
35.97,12.24,6.76,12.23,6.75,-6.75,-7.01,-7.77,5.49,5.48,5.49
36.33,12.21,6.74,12.21,6.74,-6.74,-7.01,-7.68,5.47,5.47,5.47
36.70,12.18,6.72,12.19,6.73,-6.73,-7.00,-7.59,5.46,5.46,5.46
37.06,12.16,6.72,12.16,6.71,-6.71,-7.00,-7.50,5.45,5.45,5.44
37.43,12.13,6.70,12.13,6.70,-6.70,-6.99,-7.41,5.43,5.43,5.43
37.81,12.10,6.69,12.11,6.69,-6.69,-6.99,-7.33,5.41,5.42,5.42
38.19,12.08,6.68,12.08,6.68,-6.68,-6.98,-7.24,5.41,5.40,5.40
38.57,12.05,6.66,12.05,6.66,-6.66,-6.97,-7.16,5.39,5.39,5.39
38.95,12.02,6.65,12.02,6.65,-6.65,-6.97,-7.07,5.37,5.37,5.37
39.34,11.99,6.64,11.99,6.64,-6.64,-6.96,-7.00,5.35,5.36,5.35
39.74,11.96,6.63,11.97,6.63,-6.63,-6.95,-6.92,5.34,5.34,5.33
40.14,11.93,6.61,11.94,6.62,-6.62,-6.95,-6.85,5.32,5.32,5.32
40.54,11.90,6.60,11.91,6.61,-6.61,-6.94,-6.78,5.29,5.30,5.30
40.94,11.87,6.59,11.88,6.60,-6.60,-6.93,-6.72,5.27,5.28,5.28
41.35,11.85,6.59,11.85,6.59,-6.59,-6.92,-6.66,5.26,5.26,5.26
41.76,11.82,6.58,11.82,6.58,-6.58,-6.92,-6.60,5.24,5.24,5.24
42.18,11.80,6.58,11.79,6.57,-6.57,-6.91,-6.55,5.23,5.22,5.22
42.60,11.76,6.57,11.76,6.56,-6.56,-6.90,-6.51,5.20,5.19,5.20
43.03,11.73,6.56,11.73,6.56,-6.56,-6.89,-6.47,5.17,5.17,5.17
43.46,11.69,6.55,11.70,6.55,-6.55,-6.88,-6.43,5.14,5.14,5.14
43.90,11.66,6.55,11.67,6.55,-6.55,-6.87,-6.40,5.11,5.12,5.12
44.33,11.63,6.54,11.64,6.55,-6.55,-6.86,-6.37,5.09,5.09,5.09
44.78,11.60,6.54,11.60,6.54,-6.54,-6.85,-6.35,5.06,5.06,5.06
45.23,11.56,6.52,11.57,6.54,-6.54,-6.84,-6.33,5.02,5.03,5.04
45.68,11.53,6.53,11.54,6.54,-6.54,-6.83,-6.32,4.99,5.00,5.00
46.13,11.50,6.54,11.51,6.54,-6.54,-6.81,-6.31,4.96,4.97,4.97
46.60,11.47,6.54,11.47,6.54,-6.54,-6.80,-6.31,4.94,4.94,4.94
47.06,11.44,6.53,11.44,6.53,-6.53,-6.79,-6.31,4.91,4.90,4.91
47.53,11.41,6.53,11.40,6.53,-6.53,-6.78,-6.32,4.88,4.87,4.88
48.01,11.38,6.55,11.37,6.53,-6.53,-6.77,-6.33,4.85,4.83,4.83
48.49,11.34,6.54,11.33,6.53,-6.53,-6.75,-6.34,4.81,4.80,4.80
48.97,11.29,6.53,11.29,6.53,-6.53,-6.74,-6.36,4.76,4.76,4.76
49.46,11.25,6.53,11.25,6.53,-6.53,-6.73,-6.38,4.72,4.72,4.73
49.96,11.21,6.54,11.22,6.53,-6.53,-6.71,-6.41,4.68,4.69,4.68
50.46,11.17,6.53,11.18,6.53,-6.53,-6.70,-6.44,4.64,4.65,4.64
50.96,11.13,6.52,11.14,6.53,-6.53,-6.68,-6.47,4.60,4.61,4.61
51.47,11.09,6.51,11.10,6.53,-6.53,-6.67,-6.50,4.57,4.58,4.58
51.99,11.05,6.52,11.06,6.53,-6.53,-6.65,-6.54,4.53,4.54,4.54
52.51,11.02,6.52,11.03,6.53,-6.53,-6.64,-6.58,4.49,4.50,4.50
53.03,10.99,6.51,10.99,6.53,-6.53,-6.62,-6.62,4.46,4.46,4.48
53.56,10.95,6.52,10.95,6.53,-6.53,-6.60,-6.66,4.43,4.42,4.43
54.10,10.91,6.52,10.92,6.53,-6.53,-6.59,-6.70,4.39,4.39,4.39
54.64,10.88,6.53,10.88,6.53,-6.53,-6.57,-6.74,4.36,4.35,4.35
55.18,10.85,6.55,10.84,6.52,-6.52,-6.55,-6.77,4.33,4.32,4.31
55.74,10.81,6.54,10.81,6.52,-6.52,-6.54,-6.81,4.29,4.29,4.27
56.29,10.77,6.53,10.77,6.52,-6.52,-6.52,-6.85,4.26,4.25,4.24
56.86,10.72,6.51,10.73,6.51,-6.51,-6.50,-6.88,4.21,4.22,4.21
57.42,10.68,6.52,10.68,6.50,-6.50,-6.48,-6.91,4.18,4.18,4.17
58.00,10.63,6.50,10.64,6.50,-6.50,-6.46,-6.94,4.14,4.14,4.14
58.58,10.60,6.48,10.59,6.49,-6.49,-6.44,-6.96,4.11,4.11,4.12
59.16,10.56,6.47,10.55,6.48,-6.48,-6.42,-6.98,4.08,4.07,4.09
59.76,10.51,6.46,10.50,6.48,-6.48,-6.40,-6.99,4.04,4.03,4.06
60.35,10.46,6.46,10.46,6.47,-6.47,-6.38,-7.00,3.99,3.99,4.00
60.96,10.40,6.44,10.41,6.46,-6.46,-6.36,-7.00,3.94,3.95,3.96
61.57,10.35,6.44,10.36,6.45,-6.45,-6.34,-6.99,3.90,3.91,3.91
62.18,10.30,6.45,10.31,6.44,-6.44,-6.32,-6.98,3.86,3.87,3.86
62.80,10.25,6.44,10.26,6.44,-6.44,-6.30,-6.96,3.81,3.83,3.81
63.43,10.20,6.44,10.22,6.43,-6.43,-6.28,-6.94,3.77,3.78,3.77
64.07,10.17,6.44,10.17,6.42,-6.42,-6.26,-6.91,3.75,3.74,3.73
64.71,10.12,6.43,10.11,6.41,-6.41,-6.24,-6.87,3.71,3.70,3.69
65.35,10.07,6.41,10.06,6.40,-6.40,-6.21,-6.83,3.67,3.66,3.66
66.01,10.01,6.39,10.01,6.39,-6.39,-6.19,-6.78,3.62,3.62,3.62
66.67,9.96,6.37,9.95,6.38,-6.38,-6.17,-6.72,3.59,3.58,3.59
67.33,9.90,6.36,9.90,6.36,-6.36,-6.14,-6.66,3.54,3.54,3.54
68.01,9.85,6.35,9.85,6.35,-6.35,-6.12,-6.60,3.50,3.50,3.50
68.69,9.79,6.33,9.79,6.33,-6.33,-6.10,-6.53,3.46,3.46,3.46
69.37,9.73,6.31,9.73,6.32,-6.32,-6.07,-6.46,3.42,3.42,3.43
70.07,9.67,6.29,9.67,6.30,-6.30,-6.05,-6.38,3.37,3.38,3.38
70.77,9.61,6.27,9.62,6.28,-6.28,-6.02,-6.30,3.33,3.33,3.34
71.48,9.55,6.26,9.56,6.27,-6.27,-6.00,-6.23,3.29,3.29,3.29
72.19,9.49,6.24,9.50,6.25,-6.25,-5.97,-6.15,3.24,3.25,3.25
72.91,9.44,6.24,9.44,6.24,-6.24,-5.95,-6.06,3.21,3.21,3.20
73.64,9.38,6.23,9.39,6.22,-6.22,-5.92,-5.98,3.16,3.17,3.16
74.38,9.33,6.21,9.33,6.21,-6.21,-5.89,-5.90,3.13,3.13,3.12
75.12,9.27,6.19,9.28,6.19,-6.19,-5.87,-5.82,3.08,3.09,3.08
75.87,9.20,6.15,9.22,6.17,-6.17,-5.84,-5.74,3.03,3.05,3.05
76.63,9.16,6.15,9.16,6.15,-6.15,-5.81,-5.66,3.01,3.01,3.01
77.40,9.11,6.14,9.10,6.13,-6.13,-5.78,-5.59,2.98,2.98,2.98
78.17,9.05,6.12,9.05,6.11,-6.11,-5.76,-5.51,2.95,2.94,2.93
78.95,8.99,6.08,8.99,6.08,-6.08,-5.73,-5.44,2.91,2.91,2.91
79.74,8.94,6.07,8.93,6.06,-6.06,-5.70,-5.37,2.89,2.87,2.88
80.54,8.87,6.03,8.87,6.03,-6.03,-5.67,-5.31,2.84,2.84,2.84
81.35,8.80,6.00,8.80,6.00,-6.00,-5.64,-5.24,2.80,2.81,2.81
82.16,8.74,5.96,8.74,5.97,-5.97,-5.61,-5.18,2.77,2.77,2.78
82.98,8.67,5.93,8.67,5.94,-5.94,-5.58,-5.13,2.74,2.74,2.74
83.81,8.60,5.90,8.61,5.91,-5.91,-5.55,-5.07,2.70,2.70,2.70
84.65,8.53,5.87,8.54,5.87,-5.87,-5.52,-5.02,2.66,2.67,2.67
85.50,8.47,5.85,8.47,5.84,-5.84,-5.49,-4.97,2.64,2.63,2.63
86.35,8.40,5.81,8.40,5.80,-5.80,-5.46,-4.93,2.60,2.60,2.60
87.22,8.33,5.77,8.33,5.77,-5.77,-5.43,-4.89,2.57,2.56,2.56
88.09,8.25,5.73,8.25,5.73,-5.73,-5.40,-4.86,2.52,2.53,2.52
88.97,8.18,5.69,8.18,5.69,-5.69,-5.37,-4.82,2.49,2.49,2.49
89.86,8.11,5.66,8.11,5.66,-5.66,-5.34,-4.79,2.45,2.45,2.45
90.76,8.04,5.63,8.03,5.62,-5.62,-5.31,-4.77,2.42,2.41,2.41
91.66,7.95,5.58,7.96,5.59,-5.59,-5.27,-4.75,2.37,2.37,2.37
92.58,7.88,5.55,7.88,5.55,-5.55,-5.24,-4.73,2.33,2.33,2.34
93.51,7.80,5.50,7.81,5.51,-5.51,-5.21,-4.71,2.29,2.30,2.30
94.44,7.72,5.46,7.73,5.48,-5.48,-5.18,-4.70,2.25,2.26,2.27
95.39,7.65,5.43,7.65,5.44,-5.44,-5.14,-4.70,2.21,2.21,2.22
96.34,7.58,5.41,7.57,5.40,-5.40,-5.11,-4.69,2.18,2.18,2.17
97.30,7.49,5.35,7.50,5.36,-5.36,-5.08,-4.69,2.13,2.14,2.14
98.28,7.42,5.33,7.42,5.32,-5.32,-5.04,-4.69,2.10,2.10,2.09
99.26,7.33,5.29,7.34,5.28,-5.28,-5.01,-4.69,2.05,2.06,2.04
100.25,7.25,5.25,7.26,5.24,-5.24,-4.98,-4.70,2.01,2.02,2.01
101.25,7.18,5.20,7.18,5.19,-5.19,-4.94,-4.71,1.99,1.98,1.98
102.27,7.09,5.15,7.09,5.15,-5.15,-4.91,-4.72,1.94,1.94,1.94
103.29,7.01,5.11,7.01,5.10,-5.10,-4.87,-4.73,1.91,1.91,1.90
104.32,6.92,5.05,6.92,5.05,-5.05,-4.84,-4.74,1.87,1.87,1.88
105.37,6.83,4.99,6.83,5.00,-5.00,-4.81,-4.75,1.84,1.84,1.84
106.42,6.75,4.94,6.74,4.94,-4.94,-4.77,-4.77,1.81,1.80,1.81
107.48,6.66,4.90,6.65,4.88,-4.88,-4.74,-4.78,1.78,1.77,1.76
108.56,6.57,4.84,6.56,4.83,-4.83,-4.70,-4.80,1.75,1.73,1.73
109.64,6.47,4.78,6.46,4.77,-4.77,-4.67,-4.82,1.70,1.69,1.70
110.74,6.37,4.71,6.37,4.71,-4.71,-4.63,-4.83,1.66,1.66,1.66
111.85,6.28,4.66,6.27,4.66,-4.66,-4.59,-4.84,1.63,1.62,1.62
112.97,6.18,4.60,6.18,4.60,-4.60,-4.56,-4.86,1.58,1.58,1.59
114.10,6.08,4.53,6.09,4.55,-4.55,-4.52,-4.87,1.53,1.54,1.55
115.24,6.00,4.50,6.01,4.51,-4.51,-4.49,-4.87,1.50,1.50,1.50
116.39,5.91,4.46,5.93,4.47,-4.47,-4.45,-4.88,1.45,1.47,1.46
117.55,5.83,4.41,5.86,4.43,-4.43,-4.42,-4.88,1.40,1.43,1.42
118.73,5.76,4.39,5.78,4.40,-4.40,-4.38,-4.88,1.37,1.39,1.38
119.92,5.70,4.36,5.72,4.37,-4.37,-4.34,-4.87,1.33,1.35,1.34
121.12,5.64,4.33,5.66,4.35,-4.35,-4.31,-4.87,1.29,1.31,1.32
122.33,5.59,4.32,5.61,4.33,-4.33,-4.27,-4.85,1.26,1.27,1.27
123.55,5.55,4.31,5.55,4.32,-4.32,-4.23,-4.84,1.23,1.23,1.24
124.79,5.51,4.30,5.50,4.31,-4.31,-4.20,-4.82,1.21,1.20,1.21
126.03,5.46,4.30,5.46,4.30,-4.30,-4.16,-4.79,1.16,1.16,1.17
127.29,5.42,4.30,5.41,4.29,-4.29,-4.12,-4.76,1.13,1.12,1.13
128.57,5.38,4.30,5.37,4.28,-4.28,-4.09,-4.72,1.10,1.08,1.08
129.85,5.33,4.29,5.32,4.27,-4.27,-4.05,-4.69,1.06,1.05,1.05
131.15,5.27,4.27,5.27,4.26,-4.26,-4.01,-4.64,1.01,1.01,1.01
132.46,5.23,4.26,5.22,4.25,-4.25,-3.98,-4.60,0.98,0.97,0.97
133.79,5.17,4.24,5.17,4.23,-4.23,-3.94,-4.54,0.94,0.94,0.93
135.12,5.10,4.21,5.11,4.21,-4.21,-3.90,-4.49,0.89,0.90,0.89
136.48,5.05,4.18,5.05,4.19,-4.19,-3.87,-4.43,0.87,0.86,0.87
137.84,4.98,4.15,4.98,4.15,-4.15,-3.83,-4.37,0.83,0.83,0.83
139.22,4.92,4.13,4.91,4.11,-4.11,-3.79,-4.31,0.81,0.80,0.79
140.61,4.84,4.08,4.84,4.07,-4.07,-3.76,-4.25,0.77,0.77,0.76
142.02,4.77,4.04,4.76,4.02,-4.02,-3.72,-4.18,0.75,0.74,0.73
143.44,4.69,3.99,4.68,3.97,-3.97,-3.68,-4.11,0.72,0.71,0.70
144.87,4.60,3.92,4.59,3.91,-3.91,-3.65,-4.04,0.69,0.68,0.68
146.32,4.50,3.85,4.50,3.85,-3.85,-3.61,-3.97,0.65,0.65,0.65
147.78,4.41,3.79,4.41,3.79,-3.79,-3.57,-3.90,0.62,0.62,0.62
149.26,4.31,3.72,4.31,3.72,-3.72,-3.54,-3.83,0.59,0.59,0.59
150.75,4.21,3.66,4.22,3.66,-3.66,-3.50,-3.76,0.55,0.56,0.55
152.26,4.11,3.57,4.12,3.59,-3.59,-3.46,-3.69,0.52,0.53,0.54
153.78,4.02,3.52,4.03,3.52,-3.52,-3.43,-3.62,0.50,0.50,0.50
155.32,3.92,3.45,3.93,3.46,-3.46,-3.39,-3.55,0.47,0.47,0.48
156.88,3.82,3.38,3.83,3.39,-3.39,-3.35,-3.49,0.43,0.44,0.44
158.44,3.73,3.32,3.74,3.33,-3.33,-3.32,-3.42,0.40,0.41,0.41
160.03,3.64,3.27,3.64,3.27,-3.27,-3.28,-3.36,0.37,0.38,0.38
161.63,3.55,3.21,3.55,3.21,-3.21,-3.25,-3.29,0.34,0.34,0.35
163.24,3.46,3.16,3.46,3.16,-3.16,-3.21,-3.23,0.31,0.31,0.30
164.88,3.37,3.10,3.37,3.10,-3.10,-3.17,-3.17,0.27,0.27,0.27
166.53,3.29,3.06,3.29,3.05,-3.05,-3.14,-3.12,0.24,0.24,0.24
168.19,3.20,3.00,3.20,3.00,-3.00,-3.10,-3.06,0.20,0.20,0.21
169.87,3.13,2.96,3.12,2.95,-2.95,-3.07,-3.01,0.18,0.17,0.17
171.57,3.03,2.90,3.04,2.90,-2.90,-3.03,-2.96,0.13,0.13,0.13
173.29,2.95,2.86,2.96,2.86,-2.86,-3.00,-2.91,0.09,0.10,0.10
175.02,2.87,2.81,2.88,2.82,-2.82,-2.96,-2.86,0.06,0.06,0.06
176.77,2.80,2.78,2.80,2.77,-2.77,-2.93,-2.81,0.03,0.03,0.03
178.54,2.73,2.74,2.72,2.73,-2.73,-2.89,-2.77,-0.00,-0.01,-0.01
180.32,2.64,2.69,2.65,2.69,-2.69,-2.86,-2.73,-0.05,-0.05,-0.05
182.13,2.56,2.64,2.57,2.66,-2.66,-2.82,-2.69,-0.09,-0.08,-0.08
183.95,2.51,2.63,2.50,2.62,-2.62,-2.79,-2.65,-0.11,-0.12,-0.11
185.79,2.43,2.59,2.43,2.58,-2.58,-2.75,-2.62,-0.15,-0.15,-0.16
187.65,2.36,2.55,2.36,2.55,-2.55,-2.72,-2.59,-0.19,-0.19,-0.19
189.52,2.29,2.52,2.29,2.52,-2.52,-2.68,-2.56,-0.22,-0.23,-0.23
191.42,2.22,2.48,2.22,2.48,-2.48,-2.65,-2.53,-0.26,-0.26,-0.25
193.33,2.15,2.45,2.16,2.45,-2.45,-2.62,-2.50,-0.30,-0.29,-0.29
195.27,2.09,2.42,2.09,2.42,-2.42,-2.58,-2.47,-0.33,-0.33,-0.33
197.22,2.03,2.40,2.03,2.39,-2.39,-2.55,-2.45,-0.36,-0.36,-0.37
199.19,1.96,2.36,1.97,2.36,-2.36,-2.52,-2.43,-0.40,-0.39,-0.40
201.18,1.90,2.33,1.91,2.33,-2.33,-2.48,-2.41,-0.43,-0.42,-0.43
203.19,1.85,2.31,1.85,2.31,-2.31,-2.45,-2.39,-0.45,-0.45,-0.46
205.23,1.80,2.28,1.79,2.28,-2.28,-2.42,-2.37,-0.48,-0.48,-0.48
207.28,1.74,2.25,1.74,2.25,-2.25,-2.39,-2.35,-0.51,-0.51,-0.51
209.35,1.69,2.23,1.69,2.23,-2.23,-2.35,-2.33,-0.53,-0.54,-0.54
211.44,1.63,2.20,1.63,2.20,-2.20,-2.32,-2.32,-0.57,-0.57,-0.57
213.56,1.58,2.17,1.58,2.17,-2.17,-2.29,-2.30,-0.59,-0.59,-0.59
215.69,1.53,2.14,1.53,2.15,-2.15,-2.26,-2.29,-0.62,-0.62,-0.61
217.85,1.48,2.12,1.49,2.12,-2.12,-2.23,-2.28,-0.64,-0.64,-0.63
220.03,1.44,2.11,1.44,2.10,-2.10,-2.20,-2.26,-0.66,-0.66,-0.67
222.23,1.39,2.08,1.39,2.08,-2.08,-2.17,-2.25,-0.68,-0.68,-0.69
224.45,1.34,2.05,1.35,2.05,-2.05,-2.14,-2.24,-0.71,-0.70,-0.71
226.70,1.30,2.03,1.30,2.03,-2.03,-2.11,-2.22,-0.72,-0.72,-0.73
228.96,1.26,2.00,1.26,2.00,-2.00,-2.08,-2.21,-0.74,-0.74,-0.74
231.25,1.21,1.97,1.21,1.97,-1.97,-2.05,-2.20,-0.76,-0.76,-0.76
233.57,1.18,1.96,1.17,1.95,-1.95,-2.02,-2.18,-0.76,-0.78,-0.78
235.90,1.13,1.93,1.13,1.92,-1.92,-1.99,-2.17,-0.79,-0.79,-0.80
238.26,1.10,1.92,1.09,1.90,-1.90,-1.96,-2.15,-0.80,-0.81,-0.82
240.64,1.05,1.87,1.05,1.88,-1.88,-1.93,-2.13,-0.82,-0.82,-0.82
243.05,1.01,1.85,1.02,1.86,-1.86,-1.90,-2.11,-0.85,-0.84,-0.83
245.48,0.99,1.84,0.99,1.84,-1.84,-1.87,-2.09,-0.85,-0.85,-0.85
247.93,0.94,1.81,0.97,1.82,-1.82,-1.84,-2.07,-0.88,-0.86,-0.87
250.41,0.91,1.78,0.94,1.81,-1.81,-1.81,-2.05,-0.90,-0.87,-0.87
252.92,0.89,1.77,0.92,1.80,-1.80,-1.79,-2.03,-0.91,-0.88,-0.87
255.45,0.89,1.78,0.90,1.79,-1.79,-1.76,-2.00,-0.90,-0.89,-0.89
258.00,0.89,1.79,0.89,1.79,-1.79,-1.73,-1.98,-0.89,-0.90,-0.90
260.58,0.89,1.80,0.88,1.78,-1.78,-1.70,-1.95,-0.89,-0.90,-0.90
263.19,0.89,1.80,0.87,1.78,-1.78,-1.68,-1.92,-0.89,-0.91,-0.91
265.82,0.87,1.79,0.86,1.78,-1.78,-1.65,-1.89,-0.91,-0.92,-0.92
268.48,0.85,1.77,0.85,1.78,-1.78,-1.62,-1.86,-0.92,-0.92,-0.92
271.16,0.85,1.78,0.84,1.77,-1.77,-1.60,-1.83,-0.92,-0.93,-0.93
273.87,0.85,1.78,0.84,1.77,-1.77,-1.57,-1.80,-0.92,-0.93,-0.93
276.61,0.82,1.76,0.83,1.77,-1.77,-1.54,-1.77,-0.95,-0.94,-0.94
279.38,0.81,1.76,0.83,1.77,-1.77,-1.52,-1.73,-0.95,-0.94,-0.95
282.17,0.81,1.76,0.82,1.76,-1.76,-1.49,-1.70,-0.95,-0.94,-0.95
284.99,0.81,1.75,0.81,1.75,-1.75,-1.47,-1.66,-0.94,-0.94,-0.94
287.84,0.81,1.75,0.80,1.74,-1.74,-1.44,-1.63,-0.93,-0.94,-0.94
290.72,0.76,1.71,0.79,1.73,-1.73,-1.42,-1.59,-0.97,-0.94,-0.95
293.63,0.76,1.71,0.78,1.72,-1.72,-1.39,-1.55,-0.96,-0.94,-0.94
296.57,0.76,1.70,0.77,1.71,-1.71,-1.37,-1.52,-0.95,-0.94,-0.94
299.53,0.76,1.70,0.75,1.69,-1.69,-1.35,-1.48,-0.93,-0.94,-0.94
302.53,0.76,1.70,0.74,1.68,-1.68,-1.32,-1.45,-0.92,-0.94,-0.94
305.55,0.73,1.67,0.73,1.66,-1.66,-1.30,-1.41,-0.93,-0.94,-0.94
308.61,0.72,1.65,0.71,1.65,-1.65,-1.27,-1.38,-0.92,-0.94,-0.93
311.69,0.68,1.62,0.69,1.63,-1.63,-1.25,-1.34,-0.94,-0.93,-0.94
314.81,0.68,1.61,0.67,1.60,-1.60,-1.23,-1.31,-0.92,-0.93,-0.93
317.96,0.65,1.58,0.65,1.58,-1.58,-1.20,-1.27,-0.93,-0.93,-0.93
321.14,0.63,1.56,0.63,1.56,-1.56,-1.18,-1.24,-0.93,-0.92,-0.92
324.35,0.61,1.54,0.61,1.53,-1.53,-1.16,-1.20,-0.92,-0.92,-0.93
327.59,0.59,1.50,0.59,1.51,-1.51,-1.14,-1.17,-0.92,-0.92,-0.91
330.87,0.56,1.47,0.57,1.48,-1.48,-1.12,-1.14,-0.92,-0.91,-0.91
334.18,0.55,1.47,0.55,1.45,-1.45,-1.09,-1.11,-0.90,-0.91,-0.91
337.52,0.51,1.42,0.52,1.43,-1.43,-1.07,-1.08,-0.91,-0.90,-0.91
340.90,0.50,1.40,0.50,1.40,-1.40,-1.05,-1.05,-0.90,-0.90,-0.90
344.30,0.47,1.36,0.48,1.37,-1.37,-1.03,-1.02,-0.90,-0.89,-0.89
347.75,0.46,1.35,0.46,1.35,-1.35,-1.01,-0.99,-0.88,-0.89,-0.88
351.23,0.43,1.32,0.44,1.32,-1.32,-0.99,-0.96,-0.89,-0.88,-0.89
354.74,0.42,1.29,0.42,1.29,-1.29,-0.97,-0.93,-0.87,-0.87,-0.87
358.28,0.40,1.27,0.40,1.26,-1.26,-0.94,-0.91,-0.86,-0.87,-0.87
361.87,0.38,1.24,0.38,1.24,-1.24,-0.92,-0.88,-0.86,-0.86,-0.86
365.49,0.35,1.20,0.36,1.21,-1.21,-0.90,-0.86,-0.86,-0.85,-0.85
369.14,0.33,1.18,0.34,1.18,-1.18,-0.88,-0.83,-0.85,-0.85,-0.84
372.83,0.32,1.16,0.32,1.16,-1.16,-0.86,-0.81,-0.84,-0.84,-0.84
376.56,0.29,1.13,0.30,1.13,-1.13,-0.84,-0.78,-0.84,-0.83,-0.84
380.33,0.29,1.12,0.28,1.10,-1.10,-0.82,-0.76,-0.81,-0.83,-0.83
384.13,0.25,1.07,0.26,1.08,-1.08,-0.80,-0.74,-0.83,-0.82,-0.82
387.97,0.24,1.05,0.24,1.05,-1.05,-0.78,-0.72,-0.81,-0.81,-0.81
391.85,0.21,1.01,0.22,1.02,-1.02,-0.76,-0.70,-0.81,-0.81,-0.80
395.77,0.20,1.01,0.20,1.00,-1.00,-0.74,-0.68,-0.79,-0.80,-0.80
399.73,0.17,0.97,0.18,0.97,-0.97,-0.72,-0.66,-0.79,-0.79,-0.79
403.72,0.16,0.94,0.16,0.94,-0.94,-0.70,-0.64,-0.78,-0.78,-0.78
407.76,0.13,0.91,0.13,0.91,-0.91,-0.69,-0.62,-0.78,-0.78,-0.78
411.84,0.11,0.88,0.11,0.88,-0.88,-0.67,-0.60,-0.77,-0.77,-0.77
415.96,0.08,0.84,0.09,0.85,-0.85,-0.65,-0.58,-0.77,-0.76,-0.76
420.12,0.07,0.83,0.07,0.82,-0.82,-0.63,-0.56,-0.75,-0.75,-0.76
424.32,0.05,0.80,0.05,0.79,-0.79,-0.61,-0.54,-0.74,-0.75,-0.75
428.56,0.03,0.76,0.03,0.77,-0.77,-0.59,-0.53,-0.73,-0.74,-0.73
432.85,0.00,0.72,0.00,0.73,-0.73,-0.57,-0.51,-0.73,-0.73,-0.72
437.18,-0.02,0.71,-0.02,0.70,-0.70,-0.55,-0.49,-0.72,-0.72,-0.72
441.55,-0.04,0.68,-0.04,0.67,-0.67,-0.53,-0.48,-0.71,-0.71,-0.71
445.96,-0.06,0.65,-0.06,0.64,-0.64,-0.51,-0.46,-0.70,-0.70,-0.70
450.42,-0.09,0.61,-0.08,0.61,-0.61,-0.49,-0.44,-0.70,-0.69,-0.70
454.93,-0.10,0.59,-0.10,0.58,-0.58,-0.47,-0.43,-0.68,-0.68,-0.69
459.48,-0.13,0.55,-0.13,0.55,-0.55,-0.45,-0.41,-0.67,-0.67,-0.68
464.07,-0.15,0.51,-0.15,0.52,-0.52,-0.43,-0.40,-0.66,-0.66,-0.66
468.71,-0.18,0.47,-0.17,0.48,-0.48,-0.41,-0.38,-0.66,-0.65,-0.65
473.40,-0.19,0.45,-0.19,0.45,-0.45,-0.39,-0.36,-0.64,-0.64,-0.64
478.13,-0.22,0.41,-0.21,0.42,-0.42,-0.37,-0.35,-0.64,-0.63,-0.63
482.91,-0.23,0.39,-0.24,0.38,-0.38,-0.35,-0.33,-0.61,-0.62,-0.62
487.74,-0.27,0.34,-0.26,0.35,-0.35,-0.33,-0.32,-0.62,-0.61,-0.61
492.62,-0.28,0.32,-0.28,0.32,-0.32,-0.31,-0.30,-0.60,-0.60,-0.60
497.55,-0.31,0.28,-0.30,0.28,-0.28,-0.29,-0.28,-0.59,-0.59,-0.59
