frequency,raw,smoothed,error,error_smoothed,equalization,parametric_eq,fixed_band_eq,equalized_raw,equalized_smoothed,target
20.00,16.79,16.79,9.94,9.94,-9.94,-6.87,-3.77,6.85,6.85,6.85
20.20,16.75,16.75,9.90,9.90,-9.90,-6.87,-3.87,6.85,6.85,6.85
20.40,16.70,16.70,9.85,9.86,-9.86,-6.87,-3.98,6.84,6.85,6.85
20.61,16.66,16.66,9.82,9.81,-9.81,-6.87,-4.09,6.85,6.85,6.85
20.81,16.61,16.61,9.77,9.77,-9.77,-6.87,-4.20,6.84,6.84,6.84
21.02,16.57,16.57,9.73,9.72,-9.73,-6.86,-4.31,6.85,6.84,6.84
21.23,16.52,16.52,9.68,9.68,-9.68,-6.86,-4.43,6.84,6.84,6.84
21.44,16.48,16.48,9.64,9.64,-9.64,-6.86,-4.55,6.84,6.84,6.84
21.66,16.44,16.44,9.60,9.60,-9.60,-6.86,-4.68,6.85,6.84,6.84
21.87,16.39,16.40,9.55,9.55,-9.55,-6.86,-4.81,6.84,6.84,6.84
22.09,16.35,16.35,9.51,9.51,-9.51,-6.85,-4.94,6.84,6.84,6.84
22.31,16.31,16.31,9.47,9.47,-9.47,-6.85,-5.07,6.84,6.84,6.84
22.54,16.26,16.27,9.42,9.43,-9.42,-6.85,-5.21,6.84,6.84,6.84
22.76,16.22,16.22,9.38,9.38,-9.38,-6.85,-5.35,6.84,6.84,6.84
22.99,16.17,16.17,9.34,9.33,-9.33,-6.84,-5.50,6.84,6.84,6.84
23.22,16.12,16.12,9.29,9.29,-9.29,-6.84,-5.65,6.83,6.83,6.84
23.45,16.07,16.07,9.24,9.24,-9.24,-6.84,-5.80,6.83,6.83,6.83
23.69,16.02,16.02,9.19,9.19,-9.19,-6.84,-5.96,6.83,6.83,6.83
23.92,15.98,15.98,9.15,9.15,-9.15,-6.83,-6.12,6.83,6.83,6.83
24.16,15.93,15.93,9.10,9.10,-9.10,-6.83,-6.28,6.83,6.83,6.83
24.40,15.88,15.88,9.05,9.05,-9.05,-6.83,-6.45,6.83,6.83,6.83
24.65,15.83,15.83,9.00,9.00,-9.00,-6.82,-6.62,6.83,6.83,6.83
24.89,15.78,15.78,8.95,8.95,-8.95,-6.82,-6.79,6.83,6.83,6.83
25.14,15.73,15.73,8.90,8.90,-8.90,-6.82,-6.96,6.83,6.83,6.83
25.39,15.68,15.68,8.86,8.86,-8.86,-6.81,-7.14,6.82,6.82,6.82
25.65,15.63,15.63,8.81,8.81,-8.81,-6.81,-7.32,6.82,6.82,6.82
25.91,15.58,15.58,8.76,8.76,-8.77,-6.81,-7.50,6.81,6.81,6.82
26.16,15.53,15.54,8.71,8.72,-8.73,-6.80,-7.68,6.81,6.81,6.82
26.43,15.50,15.50,8.68,8.68,-8.68,-6.80,-7.86,6.82,6.82,6.82
26.69,15.46,15.46,8.64,8.64,-8.63,-6.79,-8.04,6.83,6.83,6.82
26.96,15.42,15.41,8.61,8.60,-8.58,-6.79,-8.22,6.84,6.84,6.81
27.23,15.35,15.35,8.54,8.54,-8.53,-6.79,-8.39,6.82,6.83,6.81
27.50,15.28,15.28,8.47,8.47,-8.48,-6.78,-8.57,6.80,6.80,6.81
27.77,15.22,15.22,8.41,8.41,-8.43,-6.78,-8.73,6.79,6.78,6.81
28.05,15.15,15.17,8.34,8.36,-8.39,-6.77,-8.90,6.76,6.78,6.81
28.33,15.13,15.13,8.33,8.32,-8.34,-6.77,-9.05,6.79,6.79,6.81
28.62,15.10,15.10,8.30,8.30,-8.29,-6.76,-9.20,6.81,6.81,6.80
28.90,15.07,15.06,8.27,8.26,-8.24,-6.76,-9.33,6.83,6.83,6.80
29.19,15.01,15.01,8.21,8.21,-8.18,-6.75,-9.46,6.83,6.82,6.80
29.48,14.93,14.94,8.13,8.14,-8.13,-6.75,-9.57,6.80,6.81,6.80
29.78,14.86,14.86,8.07,8.07,-8.07,-6.74,-9.68,6.80,6.79,6.79
30.08,14.78,14.79,7.99,8.00,-8.00,-6.73,-9.76,6.78,6.78,6.79
30.38,14.72,14.72,7.93,7.93,-7.94,-6.73,-9.83,6.78,6.77,6.79
30.68,14.65,14.65,7.87,7.86,-7.88,-6.72,-9.88,6.77,6.76,6.79
30.99,14.58,14.59,7.80,7.81,-7.83,-6.71,-9.92,6.76,6.76,6.78
31.30,14.54,14.55,7.76,7.77,-7.77,-6.71,-9.93,6.77,6.77,6.78
31.61,14.51,14.51,7.74,7.73,-7.72,-6.70,-9.94,6.79,6.78,6.78
31.93,14.47,14.47,7.70,7.69,-7.67,-6.69,-9.92,6.80,6.79,6.77
32.24,14.41,14.41,7.64,7.64,-7.62,-6.68,-9.89,6.79,6.79,6.77
32.57,14.34,14.34,7.58,7.58,-7.57,-6.68,-9.83,6.77,6.77,6.77
32.89,14.27,14.28,7.51,7.51,-7.52,-6.67,-9.77,6.76,6.76,6.76
33.22,14.21,14.21,7.45,7.45,-7.46,-6.66,-9.69,6.75,6.75,6.76
33.55,14.14,14.14,7.39,7.39,-7.39,-6.65,-9.60,6.75,6.75,6.75
33.89,14.07,14.08,7.32,7.33,-7.33,-6.64,-9.49,6.75,6.75,6.75
34.23,14.01,14.01,7.27,7.27,-7.25,-6.63,-9.38,6.76,6.76,6.75
34.57,13.95,13.95,7.21,7.21,-7.19,-6.62,-9.25,6.77,6.76,6.74
34.92,13.88,13.88,7.14,7.14,-7.12,-6.61,-9.12,6.76,6.75,6.74
35.27,13.80,13.79,7.07,7.06,-7.07,-6.60,-8.98,6.73,6.72,6.73
35.62,13.71,13.71,6.98,6.98,-7.02,-6.59,-8.83,6.69,6.69,6.73
35.97,13.63,13.65,6.91,6.93,-6.98,-6.57,-8.69,6.65,6.68,6.72
36.33,13.62,13.63,6.90,6.91,-6.93,-6.56,-8.54,6.69,6.70,6.72
36.70,13.63,13.62,6.92,6.91,-6.89,-6.55,-8.38,6.74,6.73,6.71
37.06,13.62,13.60,6.91,6.89,-6.85,-6.54,-8.23,6.77,6.75,6.71
37.43,13.54,13.55,6.84,6.85,-6.81,-6.52,-8.08,6.73,6.74,6.70
37.81,13.47,13.48,6.78,6.78,-6.77,-6.51,-7.93,6.71,6.71,6.69
38.19,13.40,13.40,6.71,6.71,-6.72,-6.49,-7.78,6.68,6.68,6.69
38.57,13.33,13.33,6.65,6.65,-6.67,-6.48,-7.63,6.66,6.66,6.68
38.95,13.26,13.26,6.59,6.59,-6.61,-6.46,-7.48,6.65,6.65,6.67
39.34,13.20,13.21,6.53,6.54,-6.55,-6.44,-7.34,6.65,6.66,6.67
39.74,13.15,13.15,6.49,6.49,-6.49,-6.42,-7.20,6.66,6.66,6.66
40.14,13.10,13.10,6.45,6.44,-6.43,-6.41,-7.06,6.67,6.66,6.65
40.54,13.03,13.03,6.39,6.39,-6.37,-6.39,-6.92,6.66,6.66,6.64
40.94,12.96,12.96,6.32,6.33,-6.32,-6.37,-6.79,6.64,6.64,6.64
41.35,12.89,12.89,6.26,6.26,-6.26,-6.35,-6.67,6.63,6.62,6.63
41.76,12.81,12.82,6.19,6.20,-6.21,-6.32,-6.55,6.61,6.61,6.62
42.18,12.75,12.75,6.14,6.14,-6.15,-6.30,-6.43,6.60,6.60,6.61
42.60,12.69,12.69,6.09,6.09,-6.09,-6.28,-6.32,6.60,6.60,6.60
43.03,12.63,12.63,6.04,6.04,-6.03,-6.25,-6.21,6.60,6.59,6.59
43.46,12.56,12.56,5.98,5.98,-5.98,-6.23,-6.10,6.58,6.58,6.58
43.90,12.49,12.50,5.92,5.92,-5.93,-6.20,-6.00,6.57,6.57,6.57
44.33,12.43,12.43,5.87,5.87,-5.87,-6.17,-5.91,6.56,6.56,6.56
44.78,12.37,12.37,5.82,5.82,-5.82,-6.14,-5.81,6.55,6.55,6.55
45.23,12.31,12.31,5.77,5.77,-5.77,-6.11,-5.73,6.55,6.54,6.54
45.68,12.24,12.24,5.72,5.72,-5.71,-6.08,-5.64,6.53,6.53,6.53
46.13,12.17,12.17,5.66,5.66,-5.66,-6.05,-5.56,6.51,6.51,6.51
46.60,12.10,12.10,5.60,5.60,-5.61,-6.01,-5.49,6.49,6.49,6.50
47.06,12.03,12.04,5.54,5.55,-5.56,-5.97,-5.42,6.47,6.48,6.49
47.53,11.98,11.98,5.51,5.51,-5.51,-5.94,-5.35,6.47,6.47,6.47
48.01,11.93,11.93,5.47,5.47,-5.45,-5.90,-5.29,6.48,6.47,6.46
48.49,11.86,11.86,5.42,5.42,-5.40,-5.86,-5.23,6.47,6.46,6.44
48.97,11.78,11.78,5.35,5.35,-5.34,-5.81,-5.17,6.44,6.44,6.43
49.46,11.69,11.69,5.28,5.28,-5.28,-5.77,-5.12,6.41,6.41,6.41
49.96,11.60,11.61,5.21,5.21,-5.22,-5.72,-5.07,6.38,6.38,6.40
50.46,11.53,11.53,5.15,5.15,-5.17,-5.67,-5.02,6.36,6.36,6.38
50.96,11.46,11.46,5.10,5.10,-5.11,-5.62,-4.98,6.35,6.35,6.36
51.47,11.40,11.40,5.06,5.06,-5.06,-5.57,-4.94,6.34,6.34,6.34
51.99,11.34,11.34,5.02,5.02,-5.02,-5.51,-4.90,6.33,6.33,6.32
52.51,11.28,11.29,4.98,4.98,-4.97,-5.46,-4.86,6.31,6.31,6.31
53.03,11.23,11.23,4.95,4.94,-4.93,-5.40,-4.83,6.30,6.29,6.29
53.56,11.16,11.16,4.90,4.90,-4.89,-5.34,-4.80,6.27,6.27,6.27
54.10,11.09,11.09,4.85,4.85,-4.84,-5.27,-4.77,6.25,6.25,6.24
54.64,11.02,11.02,4.80,4.80,-4.80,-5.21,-4.74,6.22,6.23,6.22
55.18,10.96,10.95,4.76,4.75,-4.75,-5.14,-4.71,6.21,6.20,6.20
55.74,10.88,10.88,4.71,4.71,-4.71,-5.07,-4.69,6.17,6.17,6.18
56.29,10.81,10.82,4.66,4.66,-4.68,-5.00,-4.66,6.13,6.14,6.15
56.86,10.75,10.75,4.62,4.62,-4.64,-4.93,-4.63,6.11,6.11,6.13
57.42,10.69,10.69,4.59,4.59,-4.61,-4.85,-4.61,6.09,6.09,6.10
58.00,10.63,10.64,4.56,4.57,-4.57,-4.78,-4.58,6.06,6.08,6.07
58.58,10.60,10.60,4.55,4.55,-4.53,-4.70,-4.56,6.08,6.07,6.05
59.16,10.55,10.54,4.53,4.52,-4.48,-4.63,-4.53,6.07,6.06,6.02
59.76,10.46,10.45,4.47,4.46,-4.44,-4.55,-4.51,6.02,6.01,5.99
60.35,10.35,10.35,4.39,4.39,-4.39,-4.47,-4.48,5.96,5.96,5.96
60.96,10.22,10.26,4.29,4.33,-4.35,-4.40,-4.45,5.88,5.91,5.93
61.57,10.18,10.17,4.28,4.27,-4.30,-4.32,-4.42,5.88,5.87,5.90
62.18,10.13,10.10,4.26,4.23,-4.26,-4.25,-4.39,5.88,5.84,5.87
62.80,10.02,10.06,4.19,4.22,-4.21,-4.18,-4.36,5.81,5.84,5.83
63.43,9.98,9.99,4.18,4.19,-4.18,-4.11,-4.33,5.80,5.81,5.80
64.07,9.98,9.92,4.22,4.16,-4.16,-4.05,-4.29,5.82,5.76,5.76
64.71,9.84,9.89,4.11,4.16,-4.14,-3.99,-4.26,5.70,5.74,5.73
65.35,9.79,9.82,4.10,4.13,-4.14,-3.94,-4.22,5.66,5.68,5.69
66.01,9.82,9.73,4.17,4.07,-4.13,-3.89,-4.19,5.70,5.60,5.65
66.67,9.64,9.72,4.03,4.10,-4.11,-3.84,-4.15,5.53,5.61,5.61
67.33,9.62,9.68,4.05,4.11,-4.09,-3.80,-4.11,5.54,5.60,5.57
68.01,9.75,9.61,4.22,4.08,-4.06,-3.77,-4.07,5.69,5.55,5.53
68.69,9.52,9.58,4.03,4.09,-4.03,-3.74,-4.03,5.50,5.55,5.49
69.37,9.42,9.47,3.97,4.02,-3.99,-3.72,-3.99,5.43,5.48,5.45
70.07,9.41,9.33,4.01,3.92,-3.95,-3.70,-3.96,5.46,5.37,5.40
70.77,9.20,9.24,3.84,3.89,-3.91,-3.69,-3.92,5.29,5.33,5.36
71.48,9.13,9.16,3.82,3.85,-3.87,-3.69,-3.88,5.26,5.29,5.31
72.19,9.10,9.07,3.84,3.81,-3.84,-3.69,-3.84,5.27,5.24,5.26
72.91,9.03,9.03,3.81,3.81,-3.81,-3.69,-3.80,5.22,5.22,5.22
73.64,8.96,8.96,3.79,3.80,-3.79,-3.69,-3.76,5.17,5.18,5.17
74.38,8.89,8.90,3.77,3.78,-3.78,-3.70,-3.73,5.11,5.12,5.12
75.12,8.84,8.84,3.78,3.77,-3.77,-3.71,-3.69,5.07,5.07,5.07
75.87,8.78,8.78,3.77,3.77,-3.76,-3.73,-3.66,5.02,5.02,5.01
76.63,8.72,8.72,3.76,3.76,-3.76,-3.74,-3.63,4.97,4.97,4.96
77.40,8.66,8.66,3.76,3.76,-3.75,-3.75,-3.60,4.91,4.91,4.91
78.17,8.60,8.59,3.75,3.74,-3.75,-3.77,-3.57,4.86,4.85,4.85
78.95,8.52,8.52,3.73,3.73,-3.74,-3.78,-3.54,4.78,4.78,4.79
79.74,8.45,8.46,3.71,3.72,-3.74,-3.79,-3.52,4.71,4.72,4.74
80.54,8.39,8.39,3.71,3.71,-3.72,-3.81,-3.50,4.67,4.67,4.68
81.35,8.34,8.34,3.72,3.72,-3.70,-3.82,-3.48,4.64,4.64,4.62
82.16,8.28,8.28,3.72,3.72,-3.67,-3.83,-3.46,4.61,4.61,4.56
82.98,8.22,8.20,3.72,3.71,-3.65,-3.84,-3.44,4.57,4.55,4.50
83.81,8.09,8.08,3.65,3.65,-3.64,-3.84,-3.43,4.45,4.44,4.44
84.65,7.96,7.94,3.59,3.57,-3.63,-3.85,-3.42,4.33,4.31,4.37
85.50,7.80,7.84,3.49,3.53,-3.62,-3.85,-3.41,4.18,4.22,4.31
86.35,7.76,7.81,3.52,3.57,-3.61,-3.85,-3.41,4.15,4.20,4.25
87.22,7.86,7.80,3.68,3.62,-3.60,-3.85,-3.40,4.26,4.21,4.18
88.09,7.81,7.79,3.70,3.68,-3.59,-3.85,-3.40,4.22,4.20,4.11
88.97,7.70,7.71,3.65,3.67,-3.60,-3.84,-3.40,4.10,4.12,4.05
89.86,7.60,7.57,3.62,3.59,-3.61,-3.84,-3.41,3.99,3.96,3.98
90.76,7.43,7.48,3.52,3.56,-3.62,-3.83,-3.41,3.81,3.85,3.91
91.66,7.38,7.44,3.54,3.59,-3.63,-3.82,-3.42,3.75,3.81,3.84
92.58,7.46,7.39,3.69,3.61,-3.63,-3.81,-3.43,3.83,3.76,3.77
93.51,7.39,7.35,3.69,3.64,-3.63,-3.80,-3.45,3.76,3.71,3.70
94.44,7.21,7.31,3.58,3.67,-3.64,-3.78,-3.46,3.58,3.67,3.63
95.39,7.22,7.22,3.66,3.65,-3.65,-3.77,-3.48,3.58,3.57,3.56
96.34,7.23,7.13,3.74,3.64,-3.65,-3.75,-3.50,3.58,3.48,3.49
97.30,7.01,7.09,3.59,3.67,-3.65,-3.74,-3.52,3.37,3.44,3.42
98.28,6.96,7.00,3.61,3.65,-3.63,-3.72,-3.55,3.33,3.36,3.35
99.26,6.97,6.89,3.69,3.61,-3.61,-3.70,-3.57,3.36,3.27,3.28
100.25,6.78,6.80,3.58,3.60,-3.59,-3.68,-3.60,3.19,3.21,3.20
101.25,6.66,6.70,3.53,3.56,-3.57,-3.66,-3.63,3.09,3.12,3.13
102.27,6.60,6.59,3.54,3.53,-3.56,-3.65,-3.66,3.05,3.03,3.06
103.29,6.52,6.52,3.54,3.53,-3.54,-3.63,-3.69,2.98,2.98,2.99
104.32,6.44,6.44,3.53,3.53,-3.52,-3.61,-3.72,2.93,2.92,2.91
105.37,6.35,6.35,3.51,3.51,-3.50,-3.59,-3.75,2.85,2.85,2.84
106.42,6.25,6.26,3.48,3.49,-3.49,-3.57,-3.78,2.77,2.77,2.77
107.48,6.17,6.17,3.48,3.47,-3.47,-3.56,-3.81,2.70,2.70,2.69
108.56,6.08,6.08,3.46,3.46,-3.46,-3.54,-3.84,2.62,2.62,2.62
109.64,5.99,5.99,3.44,3.45,-3.45,-3.52,-3.87,2.54,2.55,2.55
110.74,5.90,5.91,3.43,3.43,-3.44,-3.51,-3.90,2.47,2.47,2.48
111.85,5.84,5.83,3.44,3.42,-3.43,-3.50,-3.93,2.41,2.40,2.40
112.97,5.74,5.75,3.41,3.42,-3.43,-3.49,-3.96,2.31,2.32,2.33
114.10,5.69,5.68,3.43,3.42,-3.43,-3.48,-3.98,2.26,2.25,2.26
115.24,5.62,5.62,3.43,3.43,-3.44,-3.47,-4.00,2.18,2.18,2.19
116.39,5.56,5.58,3.44,3.46,-3.45,-3.46,-4.02,2.11,2.12,2.12
117.55,5.53,5.52,3.48,3.47,-3.46,-3.46,-4.04,2.07,2.05,2.05
118.73,5.47,5.46,3.49,3.48,-3.48,-3.46,-4.05,2.00,1.99,1.98
119.92,5.38,5.40,3.47,3.49,-3.49,-3.46,-4.06,1.89,1.91,1.91
121.12,5.34,5.33,3.50,3.50,-3.50,-3.46,-4.06,1.84,1.84,1.84
122.33,5.28,5.28,3.51,3.50,-3.51,-3.47,-4.06,1.78,1.77,1.77
123.55,5.21,5.22,3.51,3.52,-3.51,-3.47,-4.06,1.70,1.71,1.70
124.79,5.16,5.15,3.53,3.52,-3.52,-3.48,-4.05,1.64,1.63,1.64
126.03,5.09,5.09,3.52,3.52,-3.53,-3.49,-4.04,1.56,1.57,1.57
127.29,5.03,5.03,3.53,3.53,-3.53,-3.49,-4.03,1.50,1.50,1.50
128.57,4.98,4.98,3.54,3.54,-3.54,-3.50,-4.01,1.44,1.44,1.44
129.85,4.92,4.93,3.54,3.55,-3.55,-3.51,-3.98,1.37,1.38,1.38
131.15,4.88,4.87,3.57,3.56,-3.56,-3.52,-3.96,1.33,1.32,1.31
132.46,4.82,4.81,3.57,3.56,-3.56,-3.52,-3.93,1.26,1.25,1.25
133.79,4.74,4.76,3.55,3.57,-3.57,-3.53,-3.89,1.17,1.19,1.19
135.12,4.70,4.70,3.57,3.57,-3.57,-3.53,-3.85,1.13,1.13,1.13
136.48,4.64,4.64,3.57,3.57,-3.56,-3.53,-3.81,1.08,1.07,1.07
137.84,4.57,4.58,3.56,3.56,-3.56,-3.52,-3.77,1.02,1.02,1.01
139.22,4.51,4.51,3.56,3.56,-3.55,-3.51,-3.72,0.96,0.97,0.95
140.61,4.44,4.45,3.54,3.55,-3.54,-3.50,-3.68,0.90,0.91,0.90
142.02,4.39,4.36,3.55,3.52,-3.53,-3.49,-3.63,0.86,0.84,0.84
143.44,4.27,4.28,3.48,3.49,-3.52,-3.47,-3.58,0.75,0.76,0.79
144.87,4.19,4.22,3.46,3.48,-3.51,-3.45,-3.53,0.68,0.71,0.73
146.32,4.16,4.19,3.48,3.51,-3.50,-3.43,-3.47,0.66,0.69,0.68
147.78,4.19,4.14,3.55,3.51,-3.49,-3.41,-3.42,0.70,0.65,0.64
149.26,4.13,4.07,3.54,3.48,-3.48,-3.38,-3.37,0.65,0.59,0.59
150.75,3.92,4.02,3.38,3.48,-3.47,-3.36,-3.31,0.45,0.56,0.54
152.26,3.93,3.95,3.44,3.46,-3.46,-3.34,-3.26,0.48,0.50,0.49
153.78,3.99,3.86,3.55,3.42,-3.44,-3.33,-3.21,0.55,0.43,0.44
155.32,3.77,3.83,3.37,3.43,-3.41,-3.31,-3.16,0.36,0.41,0.40
156.88,3.67,3.76,3.32,3.41,-3.39,-3.30,-3.11,0.28,0.37,0.35
158.44,3.76,3.66,3.45,3.35,-3.38,-3.29,-3.06,0.38,0.28,0.31
160.03,3.61,3.60,3.35,3.34,-3.36,-3.28,-3.01,0.25,0.23,0.26
161.63,3.46,3.54,3.25,3.33,-3.34,-3.28,-2.97,0.12,0.20,0.21
163.24,3.48,3.48,3.31,3.31,-3.32,-3.28,-2.92,0.16,0.15,0.17
164.88,3.49,3.46,3.36,3.33,-3.30,-3.28,-2.88,0.19,0.16,0.13
166.53,3.43,3.41,3.34,3.32,-3.27,-3.28,-2.84,0.16,0.15,0.09
168.19,3.31,3.32,3.26,3.27,-3.24,-3.29,-2.80,0.07,0.08,0.05
169.87,3.20,3.22,3.19,3.21,-3.21,-3.29,-2.76,-0.01,0.01,0.01
171.57,3.13,3.13,3.15,3.15,-3.18,-3.30,-2.72,-0.05,-0.05,-0.02
173.29,3.07,3.06,3.13,3.12,-3.15,-3.31,-2.69,-0.08,-0.09,-0.06
175.02,2.99,2.99,3.08,3.08,-3.12,-3.32,-2.66,-0.13,-0.13,-0.09
176.77,2.94,2.94,3.07,3.07,-3.09,-3.33,-2.63,-0.15,-0.15,-0.13
178.54,2.88,2.94,3.04,3.09,-3.07,-3.34,-2.60,-0.18,-0.13,-0.16
180.32,2.94,2.89,3.13,3.08,-3.04,-3.35,-2.57,-0.10,-0.15,-0.19
182.13,2.89,2.82,3.11,3.04,-3.02,-3.35,-2.55,-0.13,-0.20,-0.22
183.95,2.66,2.78,2.91,3.03,-3.00,-3.36,-2.53,-0.34,-0.22,-0.25
185.79,2.68,2.71,2.96,2.99,-2.98,-3.36,-2.51,-0.30,-0.28,-0.28
187.65,2.76,2.63,3.07,2.94,-2.98,-3.36,-2.49,-0.22,-0.35,-0.31
189.52,2.55,2.59,2.89,2.92,-2.97,-3.35,-2.47,-0.42,-0.39,-0.34
191.42,2.47,2.54,2.83,2.90,-2.96,-3.34,-2.46,-0.49,-0.42,-0.36
193.33,2.53,2.54,2.92,2.93,-2.95,-3.32,-2.45,-0.42,-0.41,-0.39
195.27,2.62,2.58,3.03,2.99,-2.94,-3.31,-2.44,-0.31,-0.35,-0.41
197.22,2.62,2.58,3.06,3.01,-2.92,-3.28,-2.43,-0.30,-0.34,-0.44
199.19,2.46,2.50,2.92,2.96,-2.90,-3.25,-2.42,-0.44,-0.40,-0.46
201.18,2.38,2.37,2.87,2.86,-2.88,-3.22,-2.41,-0.50,-0.51,-0.48
203.19,2.28,2.28,2.79,2.78,-2.85,-3.18,-2.40,-0.57,-0.58,-0.51
205.23,2.18,2.24,2.71,2.77,-2.82,-3.13,-2.40,-0.63,-0.58,-0.53
207.28,2.24,2.21,2.79,2.75,-2.76,-3.09,-2.39,-0.52,-0.56,-0.55
209.35,2.20,2.17,2.77,2.74,-2.70,-3.03,-2.39,-0.50,-0.53,-0.57
211.44,2.10,2.12,2.69,2.71,-2.65,-2.97,-2.39,-0.55,-0.53,-0.59
213.56,2.02,2.04,2.63,2.65,-2.61,-2.91,-2.38,-0.59,-0.57,-0.61
215.69,1.96,1.95,2.59,2.57,-2.58,-2.85,-2.38,-0.62,-0.63,-0.63
217.85,1.89,1.85,2.53,2.49,-2.55,-2.78,-2.38,-0.66,-0.70,-0.64
220.03,1.75,1.79,2.41,2.45,-2.52,-2.71,-2.38,-0.77,-0.73,-0.66
222.23,1.71,1.78,2.39,2.46,-2.49,-2.64,-2.37,-0.78,-0.71,-0.68
224.45,1.83,1.78,2.52,2.47,-2.46,-2.57,-2.37,-0.63,-0.68,-0.69
226.70,1.84,1.78,2.55,2.49,-2.42,-2.50,-2.36,-0.58,-0.64,-0.71
228.96,1.69,1.74,2.41,2.46,-2.39,-2.42,-2.36,-0.70,-0.65,-0.72
231.25,1.63,1.65,2.37,2.38,-2.36,-2.35,-2.35,-0.73,-0.71,-0.74
233.57,1.59,1.56,2.34,2.31,-2.33,-2.28,-2.34,-0.73,-0.77,-0.75
235.90,1.48,1.49,2.26,2.26,-2.29,-2.20,-2.33,-0.81,-0.80,-0.77
238.26,1.42,1.42,2.21,2.21,-2.25,-2.13,-2.32,-0.83,-0.83,-0.79
240.64,1.36,1.37,2.16,2.18,-2.23,-2.06,-2.31,-0.86,-0.85,-0.80
243.05,1.36,1.37,2.17,2.18,-2.20,-1.99,-2.29,-0.84,-0.83,-0.81
245.48,1.38,1.38,2.21,2.20,-2.19,-1.92,-2.27,-0.81,-0.81,-0.82
247.93,1.39,1.37,2.23,2.20,-2.18,-1.85,-2.25,-0.79,-0.81,-0.84
250.41,1.34,1.34,2.19,2.19,-2.16,-1.79,-2.23,-0.82,-0.83,-0.85
252.92,1.28,1.32,2.14,2.17,-2.14,-1.72,-2.21,-0.86,-0.82,-0.86
255.45,1.28,1.28,2.14,2.14,-2.12,-1.66,-2.18,-0.83,-0.84,-0.86
258.00,1.28,1.21,2.15,2.08,-2.08,-1.60,-2.15,-0.80,-0.86,-0.87
260.58,1.11,1.15,1.99,2.03,-2.04,-1.54,-2.12,-0.92,-0.88,-0.88
263.19,1.04,1.08,1.93,1.97,-1.99,-1.48,-2.08,-0.95,-0.91,-0.89
265.82,1.07,1.03,1.97,1.92,-1.95,-1.43,-2.05,-0.88,-0.92,-0.89
268.48,0.99,0.98,1.89,1.88,-1.90,-1.37,-2.01,-0.91,-0.92,-0.90
271.16,0.93,0.94,1.84,1.85,-1.85,-1.32,-1.97,-0.92,-0.91,-0.91
273.87,0.85,0.91,1.77,1.83,-1.80,-1.27,-1.93,-0.95,-0.89,-0.92
276.61,0.91,0.88,1.84,1.81,-1.77,-1.22,-1.88,-0.86,-0.89,-0.93
279.38,0.89,0.80,1.83,1.74,-1.74,-1.17,-1.84,-0.85,-0.94,-0.93
282.17,0.68,0.73,1.62,1.67,-1.71,-1.13,-1.79,-1.02,-0.97,-0.94
284.99,0.60,0.69,1.54,1.63,-1.67,-1.08,-1.74,-1.07,-0.98,-0.94
287.84,0.71,0.67,1.65,1.61,-1.63,-1.04,-1.70,-0.92,-0.96,-0.94
290.72,0.76,0.69,1.70,1.63,-1.59,-1.00,-1.65,-0.83,-0.90,-0.94
293.63,0.62,0.67,1.57,1.61,-1.55,-0.96,-1.60,-0.93,-0.88,-0.95
296.57,0.57,0.58,1.52,1.53,-1.51,-0.92,-1.55,-0.94,-0.93,-0.94
299.53,0.53,0.51,1.47,1.45,-1.48,-0.88,-1.49,-0.95,-0.98,-0.94
302.53,0.45,0.47,1.40,1.42,-1.46,-0.85,-1.44,-1.00,-0.98,-0.94
305.55,0.44,0.45,1.38,1.40,-1.42,-0.81,-1.39,-0.98,-0.97,-0.94
308.61,0.45,0.44,1.40,1.38,-1.39,-0.78,-1.34,-0.93,-0.94,-0.95
311.69,0.44,0.42,1.38,1.37,-1.34,-0.75,-1.29,-0.90,-0.92,-0.94
314.81,0.38,0.37,1.33,1.32,-1.29,-0.72,-1.24,-0.91,-0.92,-0.95
317.96,0.31,0.34,1.25,1.28,-1.25,-0.69,-1.18,-0.94,-0.91,-0.94
321.14,0.27,0.29,1.22,1.23,-1.21,-0.66,-1.13,-0.94,-0.91,-0.94
324.35,0.30,0.23,1.24,1.16,-1.16,-0.63,-1.08,-0.86,-0.94,-0.94
327.59,0.13,0.15,1.05,1.08,-1.12,-0.60,-1.03,-0.99,-0.97,-0.92
330.87,0.04,0.08,0.97,1.01,-1.07,-0.57,-0.98,-1.03,-0.99,-0.93
334.18,0.04,0.05,0.96,0.97,-1.01,-0.55,-0.93,-0.97,-0.97,-0.92
337.52,0.08,0.08,1.01,1.00,-0.96,-0.52,-0.88,-0.88,-0.89,-0.92
340.90,0.10,0.07,1.02,0.98,-0.92,-0.50,-0.83,-0.82,-0.85,-0.92
344.30,0.04,0.00,0.95,0.92,-0.88,-0.47,-0.78,-0.84,-0.88,-0.91
347.75,-0.13,-0.07,0.78,0.83,-0.84,-0.45,-0.74,-0.97,-0.91,-0.90
351.23,-0.17,-0.15,0.74,0.75,-0.80,-0.43,-0.69,-0.97,-0.95,-0.91
354.74,-0.14,-0.19,0.75,0.70,-0.75,-0.40,-0.64,-0.89,-0.94,-0.89
358.28,-0.22,-0.18,0.67,0.71,-0.70,-0.38,-0.59,-0.91,-0.88,-0.89
361.87,-0.22,-0.20,0.67,0.69,-0.64,-0.36,-0.55,-0.86,-0.84,-0.89
365.49,-0.19,-0.26,0.69,0.62,-0.60,-0.34,-0.50,-0.78,-0.86,-0.88
369.14,-0.35,-0.33,0.53,0.55,-0.56,-0.32,-0.46,-0.90,-0.88,-0.88
372.83,-0.44,-0.39,0.43,0.48,-0.51,-0.30,-0.41,-0.95,-0.91,-0.86
376.56,-0.43,-0.42,0.44,0.45,-0.47,-0.28,-0.37,-0.90,-0.89,-0.87
380.33,-0.40,-0.42,0.46,0.44,-0.42,-0.26,-0.32,-0.82,-0.84,-0.86
384.13,-0.40,-0.45,0.46,0.40,-0.37,-0.24,-0.28,-0.77,-0.82,-0.86
387.97,-0.55,-0.50,0.29,0.34,-0.32,-0.22,-0.24,-0.87,-0.83,-0.84
391.85,-0.59,-0.55,0.24,0.28,-0.29,-0.20,-0.19,-0.87,-0.84,-0.83
395.77,-0.56,-0.60,0.27,0.23,-0.25,-0.18,-0.15,-0.81,-0.85,-0.83
399.73,-0.61,-0.62,0.21,0.20,-0.22,-0.17,-0.11,-0.83,-0.84,-0.82
403.72,-0.67,-0.65,0.14,0.16,-0.18,-0.15,-0.07,-0.85,-0.83,-0.81
407.76,-0.70,-0.68,0.11,0.13,-0.13,-0.13,-0.03,-0.83,-0.81,-0.81
411.84,-0.69,-0.68,0.12,0.12,-0.09,-0.11,0.01,-0.78,-0.78,-0.81
415.96,-0.68,-0.71,0.12,0.09,-0.05,-0.09,0.05,-0.73,-0.76,-0.80
420.12,-0.74,-0.76,0.06,0.04,-0.01,-0.07,0.09,-0.75,-0.77,-0.80
424.32,-0.86,-0.82,-0.07,-0.03,0.03,-0.06,0.13,-0.83,-0.78,-0.79
428.56,-0.88,-0.87,-0.10,-0.09,0.07,-0.04,0.16,-0.81,-0.81,-0.78
432.85,-0.87,-0.91,-0.10,-0.13,0.09,-0.02,0.20,-0.78,-0.81,-0.77
437.18,-0.93,-0.91,-0.16,-0.14,0.11,-0.00,0.24,-0.82,-0.80,-0.76
441.55,-0.91,-0.90,-0.15,-0.14,0.12,0.02,0.27,-0.79,-0.78,-0.76
445.96,-0.87,-0.87,-0.12,-0.12,0.11,0.03,0.30,-0.75,-0.75,-0.75
450.42,-0.81,-0.81,-0.08,-0.08,0.10,0.05,0.33,-0.71,-0.71,-0.73
454.93,-0.76,-0.77,-0.04,-0.05,0.09,0.07,0.36,-0.67,-0.69,-0.72
459.48,-0.76,-0.76,-0.05,-0.05,0.07,0.09,0.39,-0.69,-0.69,-0.71
464.07,-0.76,-0.75,-0.05,-0.04,0.05,0.11,0.42,-0.71,-0.70,-0.71
468.71,-0.76,-0.75,-0.06,-0.04,0.03,0.13,0.45,-0.73,-0.72,-0.70
473.40,-0.72,-0.73,-0.02,-0.04,0.02,0.15,0.47,-0.70,-0.71,-0.69
478.13,-0.72,-0.72,-0.03,-0.04,0.02,0.17,0.50,-0.70,-0.70,-0.69
482.91,-0.71,-0.69,-0.04,-0.02,0.03,0.19,0.52,-0.68,-0.66,-0.67
487.74,-0.68,-0.67,-0.02,-0.01,0.04,0.21,0.54,-0.64,-0.63,-0.66
492.62,-0.64,-0.67,0.01,-0.02,0.05,0.24,0.56,-0.59,-0.62,-0.65
