frequency,raw
20,-2.07
21,-1.55
22,-1.03
23,-0.54
24,-0.12
25,0.35
26,0.73
27,1.05
28,1.34
29,1.58
30,1.77
31,1.92
32,2.03
33,2.13
34,2.24
35,2.35
36,2.45
37,2.54
38,2.66
39,2.76
40,2.82
41,2.87
42,2.91
43,2.91
44,2.91
45,2.91
46,2.91
47,2.92
48,2.96
49,2.96
50,2.94
51,2.94
52,2.91
53,2.91
54,2.87
55,2.82
56,2.74
57,2.68
58,2.62
59,2.56
60,2.48
61,2.41
62,2.35
63,2.31
64,2.27
65,2.28
66,2.28
67,2.26
68,2.26
69,2.21
70,2.21
71,2.21
72,2.17
73,2.17
74,2.12
75,2.12
76,2.12
77,2.07
78,2.07
79,2.07
80,2.03
81,2.03
82,1.98
83,1.96
84,1.93
85,1.92
86,1.89
87,1.89
88,1.84
89,1.84
90,1.81
91,1.79
92,1.75
93,1.74
94,1.70
95,1.69
96,1.65
97,1.65
98,1.61
99,1.61
100,1.61
101,1.61
102,1.56
104,1.51
105,1.51
106,1.51
107,1.50
108,1.47
109,1.47
110,1.47
111,1.42
112,1.42
113,1.39
114,1.37
115,1.37
117,1.33
118,1.33
119,1.32
120,1.28
121,1.28
123,1.23
124,1.19
125,1.19
126,1.19
128,1.14
129,1.14
130,1.12
131,1.09
133,1.05
134,1.05
135,1.03
137,1.00
138,1.00
140,0.95
141,0.95
142,0.94
144,0.91
145,0.87
147,0.86
148,0.83
150,0.80
151,0.77
153,0.76
154,0.72
156,0.72
157,0.69
159,0.67
160,0.66
162,0.63
164,0.58
165,0.58
167,0.53
169,0.51
170,0.49
172,0.49
174,0.44
175,0.44
177,0.39
179,0.37
181,0.33
183,0.30
184,0.29
186,0.25
188,0.22
190,0.21
192,0.16
194,0.14
196,0.11
198,0.07
200,0.04
202,0.01
204,-0.02
206,-0.03
208,-0.07
210,-0.09
212,-0.12
214,-0.12
216,-0.16
218,-0.16
221,-0.21
223,-0.21
225,-0.25
227,-0.26
229,-0.26
232,-0.30
234,-0.30
236,-0.35
239,-0.35
241,-0.40
244,-0.40
246,-0.40
248,-0.43
251,-0.44
253,-0.45
256,-0.49
259,-0.53
261,-0.54
264,-0.58
266,-0.59
269,-0.63
272,-0.66
274,-0.70
277,-0.72
280,-0.77
283,-0.77
286,-0.77
288,-0.77
291,-0.77
294,-0.75
297,-0.72
300,-0.72
303,-0.72
306,-0.72
309,-0.72
312,-0.72
316,-0.72
319,-0.74
322,-0.75
325,-0.75
328,-0.72
332,-0.72
335,-0.72
338,-0.68
342,-0.68
345,-0.66
349,-0.68
352,-0.70
356,-0.74
359,-0.77
363,-0.82
366,-0.82
370,-0.86
374,-0.91
377,-0.93
381,-0.97
385,-1.00
389,-1.02
393,-1.05
397,-1.08
401,-1.10
405,-1.13
409,-1.14
413,-1.18
417,-1.19
421,-1.23
425,-1.26
430,-1.30
434,-1.33
438,-1.36
443,-1.40
447,-1.44
451,-1.49
456,-1.55
460,-1.59
465,-1.68
470,-1.73
474,-1.79
479,-1.87
484,-1.94
489,-2.03
494,-2.09
499,-2.19
504,-2.27
509,-2.37
514,-2.46
519,-2.54
524,-2.65
529,-2.74
535,-2.85
540,-2.98
545,-3.09
551,-3.24
556,-3.39
562,-3.51
568,-3.65
573,-3.76
579,-3.88
585,-3.97
591,-3.99
596,-3.99
602,-3.97
608,-3.89
615,-3.73
621,-3.61
627,-3.47
633,-3.31
639,-3.15
646,-3.00
652,-2.87
659,-2.75
665,-2.68
672,-2.60
679,-2.54
686,-2.54
692,-2.54
699,-2.52
706,-2.47
713,-2.38
721,-2.28
728,-2.20
735,-2.10
742,-1.99
750,-1.93
757,-1.89
765,-1.91
773,-2.02
780,-2.14
788,-2.26
796,-2.37
804,-2.44
812,-2.40
820,-2.27
828,-2.12
837,-1.90
845,-1.70
853,-1.54
862,-1.35
871,-1.18
879,-1.03
888,-0.89
897,-0.75
906,-0.62
915,-0.54
924,-0.43
933,-0.36
943,-0.28
952,-0.23
962,-0.17
971,-0.14
981,-0.09
991,-0.03
1001,0.00
1011,0.07
1021,0.11
1031,0.16
1041,0.19
1052,0.25
1062,0.30
1073,0.34
1084,0.41
1094,0.44
1105,0.49
1116,0.53
1128,0.56
1139,0.62
1150,0.68
1162,0.75
1173,0.81
1185,0.87
1197,0.93
1209,0.99
1221,1.06
1233,1.12
1246,1.18
1258,1.25
1271,1.33
1283,1.39
1296,1.47
1309,1.56
1322,1.64
1335,1.73
1349,1.80
1362,1.91
1376,2.02
1390,2.08
1404,2.19
1418,2.30
1432,2.38
1446,2.49
1461,2.58
1475,2.68
1490,2.75
1505,2.84
1520,2.92
1535,2.99
1550,3.06
1566,3.13
1582,3.19
1597,3.27
1613,3.34
1629,3.44
1646,3.51
1662,3.57
1679,3.67
1696,3.75
1713,3.83
1730,3.95
1747,4.07
1764,4.20
1782,4.31
1800,4.46
1818,4.55
1836,4.66
1854,4.77
1873,4.86
1892,4.97
1911,5.06
1930,5.16
1949,5.28
1969,5.40
1988,5.51
2008,5.62
2028,5.75
2048,5.88
2069,5.99
2090,6.10
2111,6.21
2132,6.32
2153,6.43
2175,6.54
2196,6.66
2218,6.78
2240,6.91
2263,7.03
2285,7.15
2308,7.28
2331,7.40
2355,7.53
2378,7.66
2402,7.77
2426,7.85
2450,7.96
2475,8.02
2500,8.07
2525,8.09
2550,8.09
2575,8.07
2601,8.02
2627,7.94
2653,7.80
2680,7.59
2707,7.33
2734,6.94
2761,6.47
2789,5.84
2817,5.12
2845,4.28
2873,3.37
2902,2.40
2931,1.45
2960,0.66
2990,0.04
3020,-0.36
3050,-0.46
3080,-0.33
3111,-0.18
3142,-0.02
3174,0.11
3206,0.24
3238,0.32
3270,0.39
3303,0.44
3336,0.44
3369,0.40
3403,0.29
3437,0.15
3471,0.00
3506,-0.16
3541,-0.29
3576,-0.40
3612,-0.48
3648,-0.53
3685,-0.54
3721,-0.55
3759,-0.52
3796,-0.47
3834,-0.41
3873,-0.30
3911,-0.21
3950,-0.05
3990,0.11
4030,0.30
4070,0.57
4111,0.85
4152,1.12
4193,1.45
4235,1.79
4278,2.10
4321,2.47
4364,2.86
4407,3.17
4451,3.56
4496,3.96
4541,4.29
4586,4.67
4632,5.02
4679,5.32
4725,5.57
4773,5.83
4820,6.02
4868,6.18
4917,6.34
4966,6.46
5016,6.59
5066,6.72
5117,6.84
5168,6.97
5220,7.09
5272,7.21
5325,7.34
5378,7.45
5432,7.53
5486,7.63
5541,7.69
5596,7.76
5652,7.75
5709,7.68
5766,7.57
5823,7.40
5882,7.16
5940,6.92
6000,6.61
6060,6.27
6120,5.89
6182,5.46
6244,5.01
6306,4.55
6369,4.15
6433,3.73
6497,3.37
6562,3.05
6628,2.78
6694,2.56
6761,2.39
6828,2.25
6897,2.14
6966,2.01
7035,1.94
7106,1.86
7177,1.81
7249,1.79
7321,1.82
7394,1.91
7468,2.04
7543,2.22
7618,2.42
7694,2.61
7771,2.81
7849,2.97
7928,3.11
8007,2.99
8087,2.68
8168,2.18
8250,1.56
8332,0.82
8415,0.08
8499,-0.67
8584,-1.34
8670,-2.00
8757,-2.68
8845,-3.17
8933,-3.56
9022,-3.86
9113,-3.88
9204,-3.79
9296,-3.65
9389,-3.43
9483,-3.19
9577,-2.92
9673,-2.67
9770,-2.42
9868,-2.17
9966,-1.88
10066,-1.56
10167,-1.16
10268,-0.78
10371,-0.46
10475,-0.15
10579,-0.01
10685,-0.07
10792,-0.31
10900,-0.61
11009,-1.00
11119,-1.61
11230,-2.32
11343,-2.98
11456,-3.72
11571,-4.32
11686,-4.67
11803,-4.88
11921,-4.60
12040,-4.29
12161,-3.59
12282,-2.71
12405,-1.79
12529,-0.71
12655,0.31
12781,0.98
12909,1.46
13038,1.51
13168,1.34
13300,1.03
13433,0.67
13567,0.32
13703,-0.04
13840,-0.34
13978,-0.60
14118,-0.83
14259,-1.16
14402,-1.68
14546,-2.46
14692,-3.55
14838,-4.79
14987,-6.15
15137,-7.65
15288,-9.06
15441,-10.36
15595,-11.17
15751,-11.88
15909,-11.50
16068,-10.97
16229,-10.21
16391,-9.53
16555,-8.98
16720,-8.66
16888,-8.61
17056,-8.86
17227,-9.23
17399,-9.67
17573,-10.18
17749,-10.65
17926,-11.17
18106,-11.72
18287,-12.24
18470,-12.65
18654,-12.92
18841,-12.55
19029,-12.12
19220,-11.44
19412,-10.85
19606,-10.36
19802,-10.00
20000,-9.82
