frequency,raw,error,smoothed,error_smoothed,equalization,equalized_raw,equalized_smoothed,target
20,-21.89935692819579,-26.019977678803702,-21.79647897981572,-25.917117974993968,5.999999999999999,-15.89935692819579,-15.79647897981572,4.120620750607913
21,-21.059238369566188,-25.211473514275518,-21.018430661638813,-25.170655182152412,6.0,-15.059238369566188,-15.018430661638813,4.152235144709332
22,-20.10102166985256,-24.281470149876057,-20.276781554851702,-24.457207973212814,6.0,-14.10102166985256,-14.276781554851702,4.180448480023496
23,-19.403143081139095,-23.608402431460632,-19.571531659454394,-23.776776348175165,5.999999999999999,-13.403143081139095,-13.571531659454394,4.205259350321538
24,-19.020922354618317,-23.247588451072552,-18.90268097544687,-23.129360307039434,5.999999999999998,-13.02092235461832,-12.902680975446872,4.2266660964542355
25,-18.077445843809805,-22.322112618715604,-18.27518186051612,-22.519920561250487,6.000000000000001,-12.077445843809805,-12.27518186051612,4.244666774905798
26,-17.73060531423729,-21.98986443828755,-17.68290172837328,-21.94232013461474,6.0,-11.730605314237291,-11.682901728373281,4.259259124050261
27,-17.194210961856655,-21.464720435567195,-17.120501958703926,-21.391212056433407,6.0,-11.194210961856655,-11.120501958703926,4.270509473710542
28,-16.473761095798206,-20.752122736384155,-16.58105753818199,-20.859651839370947,6.0,-10.473761095798206,-10.581057538181991,4.278361640585948
29,-16.226088865877664,-20.508875557389374,-16.057221950321534,-20.340257971212907,6.000000000000001,-10.226088865877664,-10.057221950321534,4.282786691511712
30,-15.569055227851669,-19.852792916512463,-15.544326039177022,-19.828309493814793,6.0,-9.569055227851669,-9.544326039177022,4.2837376886607945
31,-15.16834547217273,-19.44949233904761,-15.039720108810084,-19.32108513565,5.999999999999999,-9.168345472172732,-9.039720108810084,4.281146866874879
32,-14.422387821575498,-18.697312103101964,-14.543078139104617,-18.818167672071226,5.999999999999999,-8.422387821575498,-8.543078139104619,4.274924281526465
33,-13.995307575478826,-18.26026619588702,-14.055647329817223,-18.320695298202253,6.0,-7.995307575478826,-8.055647329817223,4.264958620408194
34,-13.528921004454455,-17.78005306038949,-13.579025170404705,-17.830142474772764,5.999999999999998,-7.528921004454457,-7.579025170404707,4.251132055935038
35,-13.148627462714678,-17.381942023972815,-13.114444845665963,-17.34761162547356,6.000000000000001,-7.1486274627146775,-7.114444845665962,4.233314561258136
36,-12.644365212164818,-16.855740329668144,-12.662290375466732,-16.87335671564297,5.999999999999998,-6.64436521216482,-6.662290375466734,4.211375117503325
37,-12.38798574286638,-16.573177947803202,-12.222167373133395,-16.40686472549644,6.0,-6.38798574286638,-6.222167373133395,4.185192204936822
38,-11.693774128202115,-15.84844057934156,-11.793343161852313,-15.947308634618073,6.000000000000001,-5.693774128202114,-5.793343161852312,4.154666451139444
39,-11.291259730581515,-15.41099482042728,-11.375218821216018,-15.494034217900374,6.0,-5.291259730581515,-5.375218821216018,4.119735089845765
40,-11.03515793587318,-15.115545697792644,-10.967631909068576,-15.046879040667502,5.999999999999999,-5.035157935873181,-4.967631909068577,4.0803877619194635
41,-10.612197716910169,-14.648882628951231,-10.57081988735985,-14.606153087588876,5.999999999999999,-4.6121977169101696,-4.570819887359851,4.036684912041063
42,-10.20232455867763,-14.191099986631215,-10.185092517528442,-14.172328520182957,6.000000000000003,-4.202324558677627,-4.18509251752844,3.9887754279535863
43,-9.861646286838191,-13.798560172217577,-9.810412328271457,-13.745636728756072,6.0,-3.861646286838191,-3.8104123282714575,3.9369138853793864
44,-9.228612833929171,-13.11008893674653,-9.446116147885164,-13.32580460466311,6.0,-3.228612833929171,-3.4461161478851636,3.881476102817359
45,-8.99639942819344,-12.81937126869251,-9.09094902021124,-12.912100226839511,5.999999999999998,-2.996399428193442,-3.0909490202112426,3.8229718404990702
46,-8.929469038568199,-12.691522473692567,-8.743421202344479,-12.503697541063755,6.0,-2.9294690385681985,-2.7434212023444786,3.762053435124368
47,-8.534478213028027,-12.233997401755033,-8.402335795216981,-12.10020654236243,6.0,-2.5344782130280272,-2.402335795216981,3.699519188727006
48,-8.031994864079419,-11.668305597383064,-8.06724417504897,-11.70212523986114,6.0,-2.0319948640794188,-2.0672441750489696,3.6363107333036453
49,-7.715213214965073,-11.2887167561317,-7.738611247431153,-11.310994757455386,5.999999999999999,-1.7152132149650736,-1.7386112474311535,3.573503541166627
50,-7.389522042054088,-10.901812196463169,-7.417604189163695,-10.929170849550504,5.999999999999999,-1.3895220420540886,-1.4176041891636961,3.5122901544090803
51,-7.116062561759697,-10.57001860036316,-7.105589494701403,-10.559296596108688,5.999999999999999,-1.1160625617596978,-1.1055894947014036,3.453956038603463
52,-6.705811821093389,-10.105660172571836,-6.803550399363402,-10.203688665124986,5.999999999999999,-0.7058118210933895,-0.8035503993634032,3.3998483514784477
53,-6.479149084006469,-9.830487399641775,-6.511662215864451,-9.863875379824735,6.000000000000002,-0.47914908400646716,-0.5116622158644493,3.351338315635306
54,-6.252745008938823,-9.562523276922896,-6.229181328292218,-9.540443414603722,6.0,-0.252745008938823,-0.22918132829221793,3.309778267984073
55,-6.0260618200495095,-9.302516666912094,-5.954661246088246,-9.233207952741356,6.0,-0.02606182004950952,0.04533875391175357,3.2764548468625856
56,-5.798521365570306,-9.051061452183834,-5.686378366181953,-8.94159068386646,6.000000000000002,0.20147863442969616,0.3136216338180491,3.2525400866135277
57,-5.343148333710977,-8.58219076753393,-5.4227920936926415,-8.665032248807062,5.999999999999999,0.6568516662890218,0.5772079063073576,3.239042433822953
58,-5.115302153976483,-8.35206200459881,-5.162893357269731,-8.403295263042137,6.0,0.8846978460235171,0.8371066427302694,3.2367598506223283
59,-4.8877047770843225,-8.133941992862946,-4.906379042584856,-8.15659757293329,6.0,1.1122952229156775,1.093620957415144,3.2462372157786232
60,-4.667059684106991,-7.9347898489590305,-4.653671360907991,-7.9255968179781195,6.000000000000001,1.3329403158930102,1.3463286390920102,3.26773016485204
61,-4.433031365367949,-7.734208688218814,-4.40583751229831,-7.711283529481683,6.000000000000002,1.5669686346320528,1.5941624877016913,3.301177322850865
62,-4.204989018995914,-7.551171604692616,-4.1644493045253315,-7.514824006460948,6.0,1.7950109810040864,1.8355506954746685,3.346182585696703
63,-3.975806007805055,-7.377814717688221,-3.931382286723365,-7.337353722439348,6.0,2.024193992194945,2.068617713276635,3.4020087098831655
64,-3.6484477751713897,-7.116030767336683,-3.7085320720052413,-7.179699670928644,6.000000000000001,2.351552224828611,2.2914679279947596,3.4675829921652936
65,-3.4653123161487787,-7.006827602887467,-3.4974496930334613,-7.042033712658444,6.000000000000001,2.5346876838512222,2.5025503069665396,3.541515286738689
66,-3.2845932671035687,-6.906721311231684,-3.2989588966799994,-6.923519509090442,6.000000000000002,2.715406732896433,2.7010411033200024,3.6221280441281154
67,-3.0564667393217335,-6.763964233544941,-3.112876666507399,-6.82207347059356,5.999999999999998,2.9435332606782647,2.887123333492599,3.707497494223208
68,-2.961660412773982,-6.757164978908575,-2.937969214889626,-6.734370592514573,6.000000000000001,3.038339587226019,3.062030785110375,3.7955045661345936
69,-2.8118835024335183,-6.6957771718598025,-2.772217708316399,-6.656167625570797,5.999999999999999,3.188116497566481,3.2277822916836003,3.8838936694262842
70,-2.620589917489585,-6.590926998467257,-2.613357522260551,-6.5829051973515735,5.999999999999999,3.379410082510414,3.386642477739448,3.970337080977672
71,-2.406144714487461,-6.458647125075615,-2.459539040743647,-6.5104344632190205,6.0,3.593855285512539,3.540460959256353,4.052502410588154
72,-2.4142950542168,-6.542415525785105,-2.3098933496656695,-6.435649057477008,6.0,3.5857049457832,3.6901066503343305,4.128120471568305
73,-2.2088635973855295,-6.403914465284312,-2.1648070673004733,-6.3568239884967115,5.999999999999999,3.7911364026144696,3.8351929326995258,4.195050867898782
74,-1.9946563706252083,-6.245999097984287,-2.025810683082485,-6.273563355732736,6.000000000000001,4.005343629374792,3.9741893169175158,4.251342727359079
75,-1.8351659128689257,-6.130454165794296,-1.895121963927176,-6.186396182040609,6.0,4.164834087131075,4.104878036072824,4.295288252925371
76,-1.784619290293552,-6.11008640847157,-1.7750031814681875,-6.096177193489049,5.980400494009752,4.1957812037162,4.205397312541564,4.325467118178018
77,-1.60969193909823,-5.950472114839881,-1.6671425291894262,-6.0035014531144615,5.93867155952575,4.32897962042752,4.271529030336325,4.340780175741651
78,-1.5644253111111568,-5.904896766512156,-1.5722405163224336,-5.90831271030768,5.875682299977198,4.311256988866042,4.3034417836547645,4.3404714554009995
79,-1.569225506176131,-5.893363478023426,-1.4898903849002725,-5.809794115719118,5.795866176330219,4.226640670154088,4.305975791429947,4.3241379718472945
80,-1.3498729819069641,-5.64160039296512,-1.4187319259031415,-5.70652070007321,5.702726282647617,4.3528533007406525,4.283994356744476,4.291727411058156
81,-1.3635655955088395,-5.607089885224207,-1.3567753225506685,-5.59677054335021,5.59677054335021,4.2332049478413705,4.239995220799542,4.243524289715368
82,-1.3699184142786356,-5.550044071077729,-1.3017624733537718,-5.47886263054204,5.47886263054204,4.108944216263405,4.177100157188269,4.180125656799094
83,-1.1762667037553889,-5.278674511250308,-1.2514597364790454,-5.351416269168025,5.351416269168025,4.175149565412636,4.09995653268898,4.102407807494919
84,-1.1989167107579863,-5.210402499728609,-1.2038383970158488,-5.213490076640298,5.213490076640299,4.014573365882312,4.00965167962445,4.011485788970623
85,-1.2196420120601346,-5.128309695758672,-1.1571657357961045,-5.0646263447026385,5.0646263447026385,3.844984332642504,3.907460608906534,3.908667683698537
86,-1.1100503021080188,-4.905456055768235,-1.1100693960229053,-4.90486767654825,4.90486767654825,3.794817374440231,3.7947982805253444,3.795405753660216
87,-1.0217162103413981,-4.694962729723525,-1.0616345584199172,-4.7348100109732405,4.734810010973242,3.713093800631844,3.673175452553325,3.673246519382126
88,-1.0313286637943713,-4.5751104026495755,-1.0115522274940643,-4.555713491555813,4.555713491555813,3.5243848277614416,3.5441612640617484,3.543781738855204
89,-1.0390923902745532,-4.447694446113459,-0.96027752661323,-4.369629619009074,4.369629619009074,3.3305372287345207,3.409352092395844,3.4086020558389056
90,-0.86265552392348,-4.131910345798302,-0.9091072066982504,-4.1794486269891795,4.17944862698918,3.3167931030657005,3.2703414202909302,3.2692548218748225
91,-0.8273267958164444,-3.95453407722254,-0.8600744724636187,-3.9887561485989975,3.9887561485989975,3.161429352782553,3.128681676135379,3.1272072814060956
92,-0.8380433581583971,-3.8218593241280323,-0.8156028837111298,-3.8014321588399147,3.8014321588399156,2.9633888006815186,2.985829275128786,2.9838159659696353
93,-0.8514610508836021,-3.6917638435658295,-0.777951393625929,-3.621021859154371,3.621021859154372,2.7695608082707697,2.843070465528443,2.8403027926822273
94,-0.6786015288133139,-3.376339552755058,-0.7485856195714258,-3.4500229659747053,3.4500229659747057,2.7714214371613917,2.7014373464032797,2.697738023941744
95,-0.6589686382597041,-3.2159985748571276,-0.7276805005945877,-3.2893167707525564,3.2893167707525555,2.6303481324928515,2.561636270157968,2.5570299365974236
96,-0.6799608364580134,-3.098881619981952,-0.7139575655150399,-3.137975794334428,3.1379757943344275,2.458014957876414,2.4240182288193877,2.4189207835239386
97,-0.7016595767775441,-2.985647995002684,-0.7049704921591583,-2.9935873472328876,2.9935873472328867,2.2919277704553425,2.2886168550737285,2.2839884182251398
98,-0.7227759535772876,-2.875428752727432,-0.6977973559806939,-2.853059702846019,2.853059702846019,2.1302837492687314,2.1552623468653254,2.152652799150144
99,-0.7424409998829988,-2.7676274958295153,-0.6899363386143135,-2.7136892178341183,2.7136892178341183,1.9712482179511195,2.023752879219805,2.0251864959465165
100,-0.7605880818666694,-2.6623163640185448,-0.6801043332666855,-2.5741430580054185,2.5741430580054185,1.8135549761387493,1.8940387247387331,1.9017282821518755
101,-0.7490803309529397,-2.5313792427762802,-0.6686527480014388,-2.4350129602888178,2.4350129602888178,1.685932629335878,1.766360212287379,1.7822989118233408
102,-0.5681955443350941,-2.235013777169384,-0.6574431175328083,-2.2987303088566127,2.2987303088566122,1.730534764521518,1.641287191323804,1.6668182328342898
104,-0.5883565539354891,-2.081514805727234,-0.6492198864499863,-2.168855141821841,2.1688551418218402,1.5804985878863511,1.519635255371854,1.493158251791745
105,-0.6114574151830913,-1.996395785411614,-0.6467010005493061,-2.0489752437975715,2.048975243797572,1.4375178286144807,1.4022742432482658,1.3849383702285227
106,-0.6374815993268373,-1.91760135893324,-0.651702739262404,-1.941585827255222,1.9415858272552216,1.3041042279283843,1.2898830879928176,1.2801197596064027
107,-0.6654929590906513,-1.843882593743321,-0.6645858778383127,-1.8473128670374415,1.8473128670374415,1.1818199079467901,1.1827269891991288,1.1783896346526697
108,-0.6939303786413898,-1.7733468319546075,-0.6841753772065706,-1.7647042832845565,1.7647042832845568,1.070773904643167,1.0805289060779861,1.0794164533132178
109,-0.7210937763129867,-1.703956938328163,-0.7081274301807297,-1.6906057752477324,1.6906057752477326,0.9695119989347459,0.9824783450670029,0.9828631620151764
110,-0.7456116779956972,-1.6340105094956976,-0.7335696672499594,-1.6209464542049563,1.620946454204956,0.8753347762092589,0.8873767869549967,0.8883988315000004
111,-0.7666943312028406,-1.5624029678049776,-0.7577760644603317,-1.551652587638491,1.5516525876384915,0.7849582564356509,0.7938765231781597,0.7957086366021369
112,-0.7840910925291692,-1.4885932737334882,-0.7786706724014718,-1.479413427869709,1.4794134278697093,0.6953223353405401,0.7007427554682375,0.7045021812043191
113,-0.7978357760529003,-1.412355977306544,-0.7950546921232682,-1.4021208360759139,1.4021208360759139,0.6042850600230135,0.6070661439526457,0.6145202012536437
114,-0.8079792695798412,-1.3335189668987213,-0.80656701342498,-1.3189411444257648,1.318941144425765,0.5109618748459238,0.512374131000785,0.5255396973188802
115,-0.8144921891474172,-1.2518697467318742,-0.8134709675605729,-1.2300962591066837,1.230096259106684,0.4156040699592668,0.41662529154611105,0.43737755758445696
117,-0.8173789186348889,-1.112558939037536,-0.8163871306176207,-1.1364950777006149,1.1364950777006144,0.31911615906572555,0.3201079470829937,0.2951800204026471
118,-0.8168801579676176,-1.0262791090770471,-0.8160682172349977,-1.0393577156869653,1.0393577156869651,0.22247755771934752,0.22328949845196744,0.20939895110942963
119,-0.8135799092286283,-0.9377679111557772,-0.8132611943134254,-0.939930393466106,0.9399303934661057,0.1263504842374774,0.12666919915268038,0.12418800192714885
120,-0.8083181559422022,-0.847843243024141,-0.8086521547664158,-0.8393268964828642,0.8393268964828643,0.03100874054066205,0.03067474171644846,0.0395250870819388
121,-0.8019670581080044,-0.7573932006740446,-0.8028609601431367,-0.7384799393381163,0.7384799393381164,-0.063487118769888,-0.06438102080502028,-0.04457385743395981
123,-0.7952271784348451,-0.6197701233639704,-0.7964495409772873,-0.6381577093403911,0.6381577093403911,-0.15706946909445407,-0.1582918316368962,-0.17545705507087472
124,-0.7885679204679318,-0.5316262128586703,-0.7899217050867082,-0.538998928703639,0.538998928703639,-0.2495689917642928,-0.25092277638306926,-0.2569417076092615
125,-0.7823105190974667,-0.44469116546978305,-0.7837105266361879,-0.44153594129472973,0.4415359412947298,-0.34077457780273696,-0.3421745853414581,-0.3376193536276837
126,-0.7767448104969193,-0.35937198220485567,-0.7781619951515307,-0.3461978404711944,0.3461978404711944,-0.43054697002572495,-0.43196415468033633,-0.4173728282920637
128,-0.772165808347942,-0.23526976602214555,-0.7735257952992017,-0.2533027430449187,0.25330274304491873,-0.5188630653030233,-0.520223052254283,-0.5368960423257965
129,-0.7688021710863867,-0.15570196435263284,-0.769957210167009,-0.16305347601724496,0.16305347601724499,-0.6057486950691418,-0.6069037341497641,-0.6131002067337539
130,-0.7667060137067963,-0.07871597490624271,-0.7675240470931584,-0.07554444622516004,0.07554444622516007,-0.6911615674816362,-0.6919796008679983,-0.6879900388005535
131,-0.7657064923917184,-0.004269404355004558,-0.7662064232037293,0.009224359758112895,-0.009224359758112893,-0.7749308521498313,-0.7754307829618422,-0.7614370880367138
133,-0.7654799620000675,0.10229430196512024,-0.7658804120842977,0.09133794899088996,-0.09133794899088998,-0.8568179109909575,-0.8572183610751877,-0.8677742639651878
134,-0.7657026619961974,0.17107485742874606,-0.7662896060933373,0.17096924786811446,-0.17096924786811446,-0.9366719098643119,-0.9372588539614517,-0.9367775194249435
135,-0.7661904682074808,0.2378585111793453,-0.7670267454894975,0.2483862349518311,-0.24838623495183113,-1.014576703159312,-1.0154129804413285,-1.0040489793868261
137,-0.7669311604340595,0.3323369150149217,-0.7675613193669166,0.3239355706918453,-0.3239355706918452,-1.0908667311259048,-1.0914968900587618,-1.0992680754489812
138,-0.767980113965561,0.3937979179724601,-0.7673469278846856,0.3979667293139859,-0.39796672931398597,-1.165946843279547,-1.1653136571986715,-1.161778031938021
140,-0.7692867991395066,0.479663031341259,-0.7660171507968669,0.47067587173434416,-0.4706758717343441,-1.2399626708738507,-1.236693022531211,-1.2489498304807656
141,-0.7705848211434726,0.5361249007025682,-0.7636344915596418,0.5418887213979264,-0.5418887213979265,-1.3124735425413991,-1.3055232129575685,-1.3067097218460408
142,-0.7714570833331071,0.5911615710115716,-0.760910272776073,0.6108520594123129,-0.610852059412313,-1.3823091427454202,-1.371762332188386,-1.3626186543446788
144,-0.7715743642479863,0.6677490107794114,-0.7592883364371086,0.6761378821333057,-0.6761378821333057,-1.447712246381292,-1.4354262185704143,-1.4393233750273977
145,-0.770963648089953,0.7196901564996895,-0.760802816236989,0.7357571148413673,-0.7357571148413674,-1.5067207629313204,-1.4965599310783564,-1.4906538045896425
147,-0.7701029119610808,0.7901402424297684,-0.767685422960072,0.7875208107940211,-0.7875208107940211,-1.557623722755102,-1.555206233754093,-1.5602431543908493
148,-0.7697317016798298,0.8374456627436474,-0.7817934851550197,0.8295906693728368,-0.8295906693728367,-1.5993223710526665,-1.6113841545278564,-1.6071773644234773
150,-0.7704645781600397,0.8996193591344872,-0.8040189175180956,0.8610658193584889,-0.8610658193584891,-1.631530397518529,-1.6650847368765849,-1.6700839372945269
151,-0.7724540017007068,0.9402978358416086,-0.8338781715554024,0.882404273188393,-0.8824042731883931,-1.6548582748890999,-1.7162824447437957,-1.7127518375423154
153,-0.7984459177757658,0.9708662878630622,-0.8694478230247025,0.8955058259802127,-0.8955058259802126,-1.6939517437559783,-1.764953649004915,-1.769312205638828
154,-0.9731684181869529,0.8345721946694473,-0.9077045497262852,0.9033868184715623,-0.9033868184715624,-1.8765552366585152,-1.8110913681978476,-1.8077406128564002
156,-1.009635668360962,0.8485210289148486,-0.9451884615330857,0.9095200251041671,-0.9095200251041671,-1.919155693465129,-1.8547084866372527,-1.8581566972758106
157,-1.0129282606196433,0.8793248370799316,-0.9787896915277007,0.9170383347150001,-0.9170383347149998,-1.9299665953346432,-1.8958280262427005,-1.8922530976995748
159,-1.016978021885266,0.9196168227917103,-1.0064095770845267,0.9280558988554282,-0.928055898855428,-1.945033920740694,-1.9344654759399549,-1.9365948446769763
160,-1.0225083195210303,0.9436649835380666,-1.027292014678498,0.9433198732265871,-0.943319873226587,-1.965828192747617,-1.970611887905085,-1.9661733030590969
