frequency,raw,smoothed,error,error_smoothed,equalization,parametric_eq,fixed_band_eq,equalized_raw,equalized_smoothed,target
20.00,-18.91,-18.92,-20.18,-20.19,6.00,5.77,2.70,-12.91,-12.92,1.27
20.20,-18.82,-18.82,-20.13,-20.12,6.00,5.78,2.78,-12.82,-12.82,1.31
20.40,-18.72,-18.72,-20.06,-20.06,6.00,5.78,2.85,-12.72,-12.72,1.34
20.61,-18.63,-18.62,-20.00,-20.00,6.00,5.78,2.94,-12.63,-12.62,1.37
20.81,-18.53,-18.53,-19.94,-19.94,6.00,5.78,3.02,-12.53,-12.53,1.41
21.02,-18.44,-18.45,-19.89,-19.89,6.00,5.78,3.11,-12.44,-12.45,1.45
21.23,-18.39,-18.39,-19.85,-19.85,6.00,5.79,3.19,-12.39,-12.39,1.46
21.44,-18.34,-18.34,-19.82,-19.82,6.00,5.79,3.28,-12.34,-12.34,1.48
21.66,-18.28,-18.29,-19.78,-19.78,6.00,5.79,3.38,-12.28,-12.29,1.50
21.87,-18.23,-18.22,-19.74,-19.73,6.00,5.79,3.47,-12.23,-12.22,1.51
22.09,-18.15,-18.15,-19.68,-19.67,6.00,5.80,3.57,-12.15,-12.15,1.53
22.31,-18.05,-18.05,-19.58,-19.58,6.00,5.80,3.67,-12.05,-12.05,1.53
22.54,-17.94,-17.94,-19.48,-19.48,6.00,5.80,3.77,-11.94,-11.94,1.53
22.76,-17.83,-17.83,-19.37,-19.37,6.00,5.80,3.88,-11.83,-11.83,1.54
22.99,-17.72,-17.73,-19.26,-19.27,6.00,5.81,3.99,-11.72,-11.73,1.54
23.22,-17.63,-17.63,-19.18,-19.18,6.00,5.81,4.10,-11.63,-11.63,1.55
23.45,-17.53,-17.53,-19.09,-19.10,6.00,5.81,4.21,-11.53,-11.53,1.56
23.69,-17.44,-17.44,-19.01,-19.01,6.00,5.81,4.33,-11.44,-11.44,1.57
23.92,-17.34,-17.34,-18.92,-18.92,6.00,5.82,4.45,-11.34,-11.34,1.58
24.16,-17.23,-17.23,-18.82,-18.82,6.00,5.82,4.57,-11.23,-11.23,1.59
24.40,-17.12,-17.12,-18.72,-18.71,6.00,5.82,4.69,-11.12,-11.12,1.60
24.65,-17.01,-17.01,-18.60,-18.60,6.00,5.82,4.82,-11.01,-11.01,1.59
24.89,-16.90,-16.91,-18.49,-18.50,6.00,5.83,4.95,-10.90,-10.91,1.59
25.14,-16.82,-16.83,-18.41,-18.41,6.00,5.83,5.07,-10.82,-10.83,1.59
25.39,-16.76,-16.76,-18.35,-18.35,6.00,5.83,5.20,-10.76,-10.76,1.58
25.65,-16.71,-16.71,-18.30,-18.29,6.00,5.84,5.33,-10.71,-10.71,1.58
25.91,-16.65,-16.64,-18.23,-18.22,6.00,5.84,5.46,-10.65,-10.64,1.57
26.16,-16.56,-16.56,-18.14,-18.14,6.00,5.84,5.59,-10.56,-10.56,1.58
26.43,-16.46,-16.46,-18.04,-18.04,6.00,5.85,5.73,-10.46,-10.46,1.58
26.69,-16.35,-16.36,-17.93,-17.94,6.00,5.85,5.85,-10.35,-10.36,1.58
26.96,-16.25,-16.26,-17.83,-17.84,6.00,5.85,5.98,-10.25,-10.26,1.58
27.23,-16.17,-16.16,-17.75,-17.74,6.00,5.86,6.11,-10.17,-10.16,1.58
27.50,-16.09,-16.07,-17.67,-17.64,6.00,5.86,6.23,-10.09,-10.07,1.58
27.77,-16.02,-16.03,-17.58,-17.59,6.00,5.86,6.35,-10.02,-10.03,1.56
28.05,-16.00,-16.06,-17.56,-17.62,6.00,5.87,6.47,-10.00,-10.06,1.56
28.33,-16.19,-16.21,-17.74,-17.77,6.00,5.87,6.58,-10.19,-10.21,1.55
28.62,-16.38,-16.40,-17.94,-17.95,6.00,5.87,6.69,-10.38,-10.40,1.56
28.90,-16.57,-16.47,-18.13,-18.02,6.00,5.88,6.78,-10.57,-10.47,1.56
29.19,-16.37,-16.33,-17.92,-17.88,6.00,5.88,6.88,-10.37,-10.33,1.55
29.48,-15.96,-16.01,-17.51,-17.56,6.00,5.88,6.96,-9.96,-10.01,1.55
29.78,-15.57,-15.59,-17.12,-17.14,6.00,5.89,7.04,-9.57,-9.59,1.55
30.08,-15.19,-15.19,-16.74,-16.74,6.00,5.89,7.11,-9.19,-9.19,1.55
30.38,-14.85,-14.79,-16.39,-16.33,6.00,5.90,7.17,-8.85,-8.79,1.54
30.68,-14.50,-14.47,-16.04,-16.01,6.00,5.90,7.22,-8.50,-8.47,1.54
30.99,-14.17,-14.31,-15.69,-15.84,6.00,5.90,7.26,-8.17,-8.31,1.52
31.30,-14.34,-14.34,-15.86,-15.87,6.00,5.91,7.29,-8.34,-8.34,1.52
31.61,-14.55,-14.51,-16.07,-16.03,6.00,5.91,7.31,-8.55,-8.51,1.52
31.93,-14.75,-14.69,-16.26,-16.20,6.00,5.91,7.32,-8.75,-8.69,1.51
32.24,-14.75,-14.74,-16.25,-16.24,6.00,5.92,7.32,-8.75,-8.74,1.50
32.57,-14.68,-14.70,-16.18,-16.20,6.00,5.92,7.31,-8.68,-8.70,1.49
32.89,-14.61,-14.62,-16.10,-16.11,6.00,5.93,7.29,-8.61,-8.62,1.49
33.22,-14.54,-14.53,-16.03,-16.02,6.00,5.93,7.26,-8.54,-8.53,1.49
33.55,-14.46,-14.46,-15.95,-15.94,6.00,5.94,7.23,-8.46,-8.46,1.48
33.89,-14.38,-14.40,-15.86,-15.88,6.00,5.94,7.19,-8.38,-8.40,1.48
34.23,-14.35,-14.36,-15.83,-15.83,6.00,5.94,7.15,-8.35,-8.36,1.48
34.57,-14.35,-14.35,-15.82,-15.82,6.00,5.95,7.09,-8.35,-8.35,1.47
34.92,-14.35,-14.35,-15.81,-15.81,6.00,5.95,7.04,-8.35,-8.35,1.46
35.27,-14.35,-14.35,-15.81,-15.80,6.00,5.96,6.97,-8.35,-8.35,1.46
35.62,-14.34,-14.34,-15.79,-15.79,6.00,5.96,6.91,-8.34,-8.34,1.45
35.97,-14.34,-14.34,-15.78,-15.79,6.00,5.97,6.85,-8.34,-8.34,1.44
36.33,-14.33,-14.35,-15.77,-15.78,6.00,5.97,6.78,-8.33,-8.35,1.44
36.70,-14.33,-14.33,-15.77,-15.76,6.00,5.98,6.71,-8.33,-8.33,1.43
37.06,-14.29,-14.25,-15.71,-15.67,6.00,5.98,6.64,-8.29,-8.25,1.42
37.43,-14.13,-14.13,-15.55,-15.54,6.00,5.99,6.57,-8.13,-8.13,1.42
37.81,-13.97,-14.00,-15.38,-15.41,6.00,5.99,6.50,-7.97,-8.00,1.41
38.19,-13.89,-13.92,-15.29,-15.32,6.00,5.99,6.43,-7.89,-7.92,1.40
38.57,-13.89,-13.89,-15.28,-15.28,6.00,6.00,6.37,-7.89,-7.89,1.39
38.95,-13.89,-13.86,-15.28,-15.24,6.00,6.00,6.31,-7.89,-7.86,1.39
39.34,-13.80,-13.80,-15.17,-15.17,6.00,6.01,6.25,-7.80,-7.80,1.37
39.74,-13.70,-13.71,-15.06,-15.07,6.00,6.01,6.19,-7.70,-7.71,1.36
40.14,-13.60,-13.61,-14.96,-14.97,6.00,6.02,6.13,-7.60,-7.61,1.36
40.54,-13.53,-13.53,-14.89,-14.88,6.00,6.02,6.08,-7.53,-7.53,1.36
40.94,-13.45,-13.44,-14.80,-14.79,6.00,6.03,6.03,-7.45,-7.44,1.35
41.35,-13.36,-13.35,-14.70,-14.69,6.00,6.03,5.99,-7.36,-7.35,1.33
41.76,-13.26,-13.28,-14.58,-14.59,6.00,6.04,5.95,-7.26,-7.28,1.32
42.18,-13.21,-13.23,-14.51,-14.53,6.00,6.04,5.91,-7.21,-7.23,1.30
42.60,-13.21,-13.21,-14.49,-14.49,6.00,6.05,5.88,-7.21,-7.21,1.28
43.03,-13.20,-13.17,-14.46,-14.43,6.00,6.05,5.85,-7.20,-7.17,1.26
43.46,-13.10,-13.11,-14.33,-14.33,6.00,6.06,5.83,-7.10,-7.11,1.23
43.90,-13.00,-13.01,-14.19,-14.20,6.00,6.06,5.81,-7.00,-7.01,1.18
44.33,-12.90,-12.90,-14.06,-14.06,6.00,6.07,5.79,-6.90,-6.90,1.16
44.78,-12.80,-12.80,-13.92,-13.92,6.00,6.07,5.78,-6.80,-6.80,1.12
45.23,-12.70,-12.69,-13.79,-13.78,6.00,6.08,5.78,-6.70,-6.69,1.09
45.68,-12.59,-12.60,-13.65,-13.66,6.00,6.08,5.78,-6.59,-6.60,1.06
46.13,-12.52,-12.54,-13.56,-13.59,6.00,6.09,5.78,-6.52,-6.54,1.04
46.60,-12.52,-12.52,-13.55,-13.54,6.00,6.09,5.79,-6.52,-6.52,1.03
47.06,-12.52,-12.52,-13.53,-13.53,6.00,6.10,5.80,-6.52,-6.52,1.01
47.53,-12.50,-12.51,-13.50,-13.51,6.00,6.10,5.81,-6.50,-6.51,1.00
48.01,-12.48,-12.45,-13.48,-13.45,6.00,6.11,5.83,-6.48,-6.45,1.00
48.49,-12.39,-12.39,-13.38,-13.38,6.00,6.11,5.85,-6.39,-6.39,0.99
48.97,-12.30,-12.34,-13.28,-13.32,6.00,6.12,5.88,-6.30,-6.34,0.98
49.46,-12.30,-12.30,-13.27,-13.27,6.00,6.12,5.91,-6.30,-6.30,0.97
49.96,-12.30,-12.26,-13.27,-13.23,6.00,6.12,5.94,-6.30,-6.26,0.97
50.46,-12.19,-12.19,-13.17,-13.17,6.00,6.13,5.97,-6.19,-6.19,0.98
50.96,-12.08,-12.11,-13.06,-13.08,6.00,6.13,6.01,-6.08,-6.11,0.98
51.47,-12.02,-12.02,-12.99,-12.99,6.00,6.14,6.05,-6.02,-6.02,0.97
51.99,-11.97,-11.97,-12.93,-12.93,6.00,6.14,6.09,-5.97,-5.97,0.96
52.51,-11.90,-11.90,-12.84,-12.84,6.00,6.14,6.14,-5.90,-5.90,0.94
53.03,-11.83,-11.81,-12.75,-12.72,6.00,6.15,6.18,-5.83,-5.81,0.92
53.56,-11.71,-11.72,-12.59,-12.60,6.00,6.15,6.23,-5.71,-5.72,0.88
54.10,-11.61,-11.64,-12.45,-12.48,6.00,6.16,6.27,-5.61,-5.64,0.84
54.64,-11.61,-11.61,-12.40,-12.40,6.00,6.16,6.32,-5.61,-5.61,0.79
55.18,-11.61,-11.61,-12.36,-12.35,6.00,6.16,6.36,-5.61,-5.61,0.74
55.74,-11.61,-11.59,-12.30,-12.29,6.00,6.17,6.41,-5.61,-5.59,0.69
56.29,-11.54,-11.53,-12.18,-12.17,6.00,6.17,6.45,-5.54,-5.53,0.64
56.86,-11.41,-11.41,-12.00,-11.99,6.00,6.17,6.49,-5.41,-5.41,0.58
57.42,-11.29,-11.29,-11.80,-11.80,6.00,6.18,6.53,-5.29,-5.29,0.51
58.00,-11.16,-11.20,-11.62,-11.65,6.00,6.18,6.56,-5.16,-5.20,0.45
58.58,-11.16,-11.16,-11.56,-11.55,6.00,6.18,6.59,-5.16,-5.16,0.39
59.16,-11.16,-11.15,-11.51,-11.49,6.00,6.18,6.62,-5.16,-5.15,0.34
59.76,-11.16,-11.17,-11.44,-11.45,6.00,6.18,6.64,-5.16,-5.17,0.28
60.35,-11.16,-11.16,-11.37,-11.38,6.00,6.19,6.65,-5.16,-5.16,0.21
60.96,-11.16,-11.11,-11.32,-11.26,6.00,6.19,6.66,-5.16,-5.11,0.16
61.57,-11.03,-11.04,-11.12,-11.13,6.00,6.19,6.67,-5.03,-5.04,0.09
62.18,-10.93,-10.97,-10.95,-11.00,6.00,6.19,6.67,-4.93,-4.97,0.02
62.80,-10.93,-10.92,-10.91,-10.90,6.00,6.19,6.66,-4.93,-4.92,-0.02
63.43,-10.93,-10.92,-10.85,-10.85,6.00,6.19,6.65,-4.93,-4.92,-0.08
64.07,-10.93,-10.93,-10.81,-10.81,6.00,6.19,6.63,-4.93,-4.93,-0.12
64.71,-10.93,-10.95,-10.76,-10.77,6.00,6.19,6.61,-4.93,-4.95,-0.17
65.35,-10.93,-10.93,-10.71,-10.72,6.00,6.19,6.58,-4.93,-4.93,-0.22
66.01,-10.93,-10.88,-10.68,-10.63,6.00,6.19,6.55,-4.93,-4.88,-0.26
66.67,-10.78,-10.80,-10.49,-10.51,6.00,6.19,6.51,-4.78,-4.80,-0.29
67.33,-10.67,-10.69,-10.35,-10.37,6.00,6.19,6.47,-4.67,-4.69,-0.32
68.01,-10.60,-10.58,-10.25,-10.23,6.00,6.19,6.42,-4.60,-4.58,-0.35
68.69,-10.51,-10.52,-10.13,-10.13,6.00,6.19,6.37,-4.51,-4.52,-0.39
69.37,-10.47,-10.49,-10.05,-10.08,6.00,6.19,6.32,-4.47,-4.49,-0.42
70.07,-10.47,-10.47,-10.02,-10.03,6.00,6.19,6.26,-4.47,-4.47,-0.45
70.77,-10.47,-10.43,-10.01,-9.95,6.00,6.19,6.20,-4.47,-4.43,-0.46
71.48,-10.36,-10.37,-9.86,-9.87,6.00,6.19,6.15,-4.36,-4.37,-0.50
72.19,-10.24,-10.29,-9.72,-9.76,6.00,6.18,6.09,-4.24,-4.29,-0.52
72.91,-10.24,-10.19,-9.68,-9.63,6.00,6.18,6.03,-4.24,-4.19,-0.56
73.64,-10.10,-10.11,-9.51,-9.53,6.00,6.18,5.97,-4.10,-4.11,-0.59
74.38,-10.02,-10.06,-9.41,-9.44,6.00,6.17,5.91,-4.02,-4.06,-0.62
75.12,-10.01,-9.99,-9.36,-9.34,6.00,6.17,5.85,-4.01,-3.99,-0.65
75.87,-9.96,-9.93,-9.28,-9.25,6.00,6.17,5.79,-3.96,-3.93,-0.68
76.63,-9.85,-9.87,-9.14,-9.16,6.00,6.16,5.74,-3.85,-3.87,-0.71
77.40,-9.79,-9.83,-9.06,-9.09,6.00,6.16,5.69,-3.79,-3.83,-0.73
78.17,-9.79,-9.78,-9.03,-9.02,6.00,6.15,5.64,-3.79,-3.78,-0.77
78.95,-9.79,-9.73,-9.01,-8.95,6.00,6.15,5.59,-3.79,-3.73,-0.78
79.74,-9.62,-9.66,-8.83,-8.87,6.00,6.15,5.54,-3.62,-3.66,-0.79
80.54,-9.56,-9.61,-8.75,-8.80,6.00,6.14,5.50,-3.56,-3.61,-0.82
81.35,-9.56,-9.53,-8.73,-8.70,6.00,6.13,5.46,-3.56,-3.53,-0.83
82.16,-9.50,-9.43,-8.66,-8.59,6.00,6.13,5.43,-3.50,-3.43,-0.84
82.98,-9.24,-9.30,-8.41,-8.46,6.00,6.12,5.39,-3.24,-3.30,-0.83
83.81,-9.12,-9.17,-8.28,-8.33,6.00,6.12,5.36,-3.12,-3.17,-0.84
84.65,-9.10,-9.06,-8.25,-8.22,6.00,6.11,5.34,-3.10,-3.06,-0.85
85.50,-9.04,-9.00,-8.21,-8.16,6.00,6.10,5.32,-3.04,-3.00,-0.84
86.35,-8.94,-8.97,-8.11,-8.13,6.00,6.10,5.30,-2.94,-2.97,-0.84
87.22,-8.94,-9.01,-8.11,-8.17,6.00,6.09,5.29,-2.94,-3.01,-0.84
88.09,-9.17,-9.14,-8.34,-8.31,6.00,6.08,5.28,-3.17,-3.14,-0.84
88.97,-9.32,-9.31,-8.50,-8.48,6.00,6.08,5.27,-3.32,-3.31,-0.82
89.86,-9.49,-9.48,-8.67,-8.66,6.00,6.07,5.27,-3.49,-3.48,-0.82
90.76,-9.57,-9.60,-8.74,-8.78,6.00,6.06,5.28,-3.57,-3.60,-0.83
91.66,-9.72,-9.71,-8.90,-8.88,6.00,6.05,5.28,-3.72,-3.71,-0.82
92.58,-9.79,-9.77,-8.95,-8.93,6.00,6.04,5.29,-3.79,-3.77,-0.85
93.51,-9.79,-9.80,-8.95,-8.96,6.00,6.04,5.31,-3.79,-3.80,-0.84
94.44,-9.79,-9.80,-8.94,-8.94,6.00,6.03,5.33,-3.79,-3.80,-0.85
95.39,-9.79,-9.79,-8.92,-8.91,6.00,6.02,5.35,-3.79,-3.79,-0.87
96.34,-9.79,-9.78,-8.89,-8.88,6.00,6.01,5.37,-3.79,-3.78,-0.90
97.30,-9.79,-9.81,-8.87,-8.89,6.00,6.00,5.40,-3.79,-3.81,-0.92
98.28,-9.84,-9.87,-8.90,-8.92,6.00,5.99,5.43,-3.84,-3.87,-0.94
99.26,-9.98,-9.94,-9.01,-8.97,6.00,5.98,5.47,-3.98,-3.94,-0.97
100.25,-10.03,-10.05,-9.04,-9.06,6.00,5.97,5.50,-4.03,-4.05,-0.99
101.25,-10.10,-10.13,-9.07,-9.10,6.00,5.96,5.54,-4.10,-4.13,-1.03
102.27,-10.21,-10.14,-9.14,-9.07,6.00,5.95,5.58,-4.21,-4.14,-1.07
103.29,-10.10,-10.11,-8.99,-9.00,6.00,5.94,5.63,-4.10,-4.11,-1.11
104.32,-10.02,-10.07,-8.87,-8.92,6.00,5.93,5.67,-4.02,-4.07,-1.15
105.37,-10.02,-10.02,-8.83,-8.82,6.00,5.92,5.72,-4.02,-4.02,-1.20
106.42,-10.02,-9.99,-8.77,-8.74,6.00,5.91,5.76,-4.02,-3.99,-1.25
107.48,-9.92,-9.91,-8.60,-8.59,6.00,5.90,5.81,-3.92,-3.91,-1.32
108.56,-9.80,-9.79,-8.41,-8.40,6.00,5.89,5.85,-3.80,-3.79,-1.39
109.64,-9.64,-9.66,-8.18,-8.21,6.00,5.87,5.90,-3.64,-3.66,-1.46
110.74,-9.56,-9.59,-8.03,-8.06,6.00,5.86,5.94,-3.56,-3.59,-1.53
111.85,-9.56,-9.56,-7.97,-7.97,6.00,5.85,5.98,-3.56,-3.56,-1.59
112.97,-9.56,-9.53,-7.88,-7.86,6.00,5.83,6.02,-3.56,-3.53,-1.68
114.10,-9.51,-9.47,-7.77,-7.72,6.00,5.82,6.06,-3.51,-3.47,-1.74
115.24,-9.33,-9.41,-7.51,-7.59,6.00,5.80,6.09,-3.33,-3.41,-1.82
116.39,-9.33,-9.33,-7.44,-7.44,6.00,5.79,6.12,-3.33,-3.33,-1.89
117.55,-9.32,-9.25,-7.36,-7.30,6.00,5.77,6.14,-3.32,-3.25,-1.96
118.73,-9.16,-9.21,-7.14,-7.19,6.00,5.76,6.17,-3.16,-3.21,-2.02
119.92,-9.10,-9.12,-7.04,-7.06,6.00,5.74,6.18,-3.10,-3.12,-2.06
121.12,-9.09,-9.03,-6.98,-6.92,6.00,5.72,6.19,-3.09,-3.03,-2.12
122.33,-8.95,-8.97,-6.79,-6.82,6.00,5.70,6.19,-2.95,-2.97,-2.16
123.55,-8.88,-8.92,-6.70,-6.73,6.00,5.68,6.19,-2.88,-2.92,-2.18
124.79,-8.88,-8.88,-6.66,-6.66,6.00,5.66,6.18,-2.88,-2.88,-2.22
126.03,-8.88,-8.85,-6.63,-6.60,6.00,5.64,6.16,-2.88,-2.84,-2.25
127.29,-8.80,-8.79,-6.52,-6.51,6.01,5.62,6.14,-2.79,-2.78,-2.28
128.57,-8.70,-8.72,-6.38,-6.40,6.02,5.60,6.11,-2.68,-2.70,-2.32
129.85,-8.65,-8.68,-6.30,-6.33,6.02,5.57,6.07,-2.63,-2.66,-2.35
131.15,-8.65,-8.65,-6.27,-6.27,6.00,5.55,6.03,-2.65,-2.64,-2.38
132.46,-8.65,-8.60,-6.24,-6.19,5.97,5.52,5.98,-2.68,-2.63,-2.42
133.79,-8.51,-8.54,-6.07,-6.09,5.93,5.49,5.94,-2.58,-2.61,-2.44
135.12,-8.41,-8.43,-5.92,-5.95,5.88,5.46,5.88,-2.53,-2.55,-2.49
136.48,-8.36,-8.32,-5.85,-5.80,5.82,5.43,5.82,-2.54,-2.50,-2.51
137.84,-8.21,-8.25,-5.66,-5.69,5.75,5.40,5.75,-2.46,-2.50,-2.55
139.22,-8.19,-8.20,-5.59,-5.61,5.66,5.37,5.68,-2.53,-2.54,-2.60
140.61,-8.19,-8.19,-5.55,-5.56,5.58,5.34,5.61,-2.61,-2.62,-2.64
142.02,-8.19,-8.18,-5.53,-5.51,5.49,5.31,5.54,-2.70,-2.69,-2.67
143.44,-8.18,-8.13,-5.47,-5.42,5.40,5.27,5.46,-2.78,-2.73,-2.71
144.87,-8.01,-8.06,-5.26,-5.31,5.31,5.24,5.39,-2.71,-2.75,-2.75
146.32,-7.98,-8.01,-5.18,-5.21,5.22,5.20,5.31,-2.76,-2.79,-2.80
147.78,-7.97,-7.96,-5.14,-5.12,5.12,5.16,5.23,-2.85,-2.85,-2.84
149.26,-7.97,-7.93,-5.07,-5.03,5.01,5.12,5.15,-2.96,-2.92,-2.90
150.75,-7.86,-7.87,-4.88,-4.89,4.89,5.08,5.08,-2.98,-2.98,-2.98
152.26,-7.77,-7.80,-4.72,-4.75,4.75,5.04,5.00,-3.02,-3.04,-3.05
153.78,-7.74,-7.76,-4.62,-4.63,4.62,5.00,4.93,-3.12,-3.14,-3.12
155.32,-7.74,-7.73,-4.52,-4.52,4.49,4.96,4.85,-3.25,-3.24,-3.22
156.88,-7.72,-7.67,-4.43,-4.38,4.36,4.91,4.78,-3.36,-3.31,-3.29
158.44,-7.57,-7.60,-4.21,-4.23,4.24,4.87,4.71,-3.33,-3.36,-3.36
160.03,-7.51,-7.54,-4.08,-4.10,4.13,4.82,4.64,-3.38,-3.40,-3.44
161.63,-7.51,-7.50,-4.01,-4.00,4.04,4.78,4.58,-3.47,-3.46,-3.50
163.24,-7.51,-7.51,-3.96,-3.96,3.96,4.73,4.51,-3.55,-3.55,-3.55
164.88,-7.51,-7.51,-3.92,-3.92,3.90,4.69,4.45,-3.61,-3.61,-3.59
166.53,-7.51,-7.51,-3.88,-3.88,3.87,4.64,4.40,-3.64,-3.64,-3.63
168.19,-7.51,-7.50,-3.86,-3.84,3.87,4.60,4.34,-3.64,-3.62,-3.66
169.87,-7.51,-7.51,-3.84,-3.84,3.89,4.55,4.29,-3.62,-3.62,-3.67
171.57,-7.51,-7.56,-3.83,-3.88,3.92,4.50,4.24,-3.59,-3.64,-3.68
173.29,-7.65,-7.63,-3.97,-3.96,3.96,4.46,4.20,-3.69,-3.67,-3.68
175.02,-7.74,-7.70,-4.08,-4.04,4.00,4.41,4.16,-3.74,-3.70,-3.66
176.77,-7.74,-7.75,-4.07,-4.09,4.05,4.37,4.12,-3.70,-3.71,-3.67
178.54,-7.74,-7.75,-4.08,-4.09,4.08,4.32,4.08,-3.67,-3.68,-3.66
180.32,-7.74,-7.74,-4.09,-4.09,4.09,4.28,4.05,-3.66,-3.66,-3.65
182.13,-7.74,-7.76,-4.09,-4.11,4.07,4.23,4.02,-3.67,-3.69,-3.65
183.95,-7.74,-7.74,-4.09,-4.09,4.03,4.19,3.99,-3.71,-3.70,-3.65
185.79,-7.74,-7.68,-4.08,-4.02,3.98,4.15,3.97,-3.76,-3.70,-3.66
187.65,-7.57,-7.61,-3.89,-3.93,3.93,4.10,3.95,-3.65,-3.68,-3.68
189.52,-7.51,-7.54,-3.81,-3.84,3.88,4.06,3.93,-3.64,-3.66,-3.70
191.42,-7.51,-7.50,-3.79,-3.78,3.84,4.02,3.92,-3.67,-3.66,-3.72
193.33,-7.51,-7.49,-3.77,-3.76,3.82,3.99,3.90,-3.69,-3.68,-3.74
195.27,-7.51,-7.51,-3.76,-3.76,3.80,3.95,3.89,-3.71,-3.71,-3.75
197.22,-7.51,-7.56,-3.75,-3.79,3.80,3.92,3.89,-3.71,-3.76,-3.77
199.19,-7.65,-7.63,-3.85,-3.84,3.81,3.88,3.88,-3.84,-3.82,-3.80
201.18,-7.74,-7.70,-3.93,-3.89,3.83,3.85,3.88,-3.91,-3.88,-3.81
203.19,-7.74,-7.75,-3.92,-3.92,3.85,3.82,3.87,-3.89,-3.90,-3.83
205.23,-7.74,-7.74,-3.89,-3.90,3.88,3.79,3.87,-3.86,-3.85,-3.85
207.28,-7.74,-7.74,-3.89,-3.87,3.92,3.77,3.87,-3.82,-3.81,-3.86
209.35,-7.74,-7.79,-3.86,-3.90,3.97,3.74,3.88,-3.77,-3.81,-3.88
211.44,-7.86,-7.84,-3.96,-3.94,4.02,3.72,3.88,-3.84,-3.82,-3.90
213.56,-7.96,-7.93,-4.05,-4.02,4.06,3.70,3.88,-3.90,-3.87,-3.91
215.69,-7.97,-8.04,-4.06,-4.12,4.10,3.68,3.88,-3.88,-3.95,-3.91
217.85,-8.17,-8.13,-4.24,-4.20,4.13,3.67,3.88,-4.05,-4.01,-3.93
220.03,-8.19,-8.18,-4.25,-4.23,4.15,3.65,3.88,-4.04,-4.03,-3.95
222.23,-8.19,-8.17,-4.22,-4.21,4.15,3.64,3.88,-4.04,-4.02,-3.97
224.45,-8.08,-8.09,-4.11,-4.12,4.13,3.63,3.88,-3.95,-3.96,-3.97
226.70,-7.98,-8.02,-4.01,-4.05,4.09,3.62,3.88,-3.90,-3.93,-3.97
228.96,-7.97,-7.98,-3.99,-4.01,4.03,3.61,3.87,-3.94,-3.96,-3.98
231.25,-7.97,-7.94,-3.99,-3.96,3.96,3.61,3.86,-4.01,-3.98,-3.98
233.57,-7.93,-7.88,-3.94,-3.89,3.89,3.60,3.85,-4.04,-3.99,-3.99
235.90,-7.75,-7.81,-3.75,-3.81,3.82,3.59,3.83,-3.93,-3.99,-4.00
238.26,-7.74,-7.76,-3.74,-3.76,3.77,3.59,3.82,-3.97,-4.00,-4.00
240.64,-7.74,-7.72,-3.74,-3.72,3.72,3.58,3.79,-4.02,-4.00,-4.00
243.05,-7.73,-7.68,-3.74,-3.69,3.68,3.57,3.76,-4.06,-4.00,-3.99
245.48,-7.57,-7.61,-3.58,-3.62,3.64,3.56,3.73,-3.94,-3.97,-3.99
247.93,-7.51,-7.54,-3.54,-3.56,3.60,3.54,3.70,-3.91,-3.94,-3.98
250.41,-7.51,-7.51,-3.53,-3.54,3.56,3.52,3.66,-3.96,-3.96,-3.98
252.92,-7.51,-7.51,-3.54,-3.54,3.51,3.50,3.61,-4.00,-3.99,-3.97
255.45,-7.51,-7.46,-3.56,-3.50,3.47,3.47,3.56,-4.05,-4.00,-3.95
258.00,-7.37,-7.41,-3.43,-3.46,3.42,3.44,3.51,-3.95,-3.99,-3.95
260.58,-7.28,-7.31,-3.34,-3.37,3.37,3.40,3.44,-3.91,-3.93,-3.94
263.19,-7.27,-7.20,-3.34,-3.27,3.32,3.35,3.38,-3.95,-3.88,-3.93
265.82,-7.08,-7.13,-3.16,-3.22,3.26,3.29,3.31,-3.82,-3.88,-3.93
268.48,-7.05,-7.09,-3.15,-3.18,3.18,3.23,3.24,-3.87,-3.91,-3.90
271.16,-7.05,-7.01,-3.16,-3.12,3.08,3.16,3.16,-3.97,-3.93,-3.89
273.87,-6.97,-6.92,-3.10,-3.05,2.97,3.08,3.08,-4.00,-3.95,-3.87
276.61,-6.71,-6.77,-2.87,-2.93,2.87,2.99,3.00,-3.84,-3.90,-3.84
279.38,-6.61,-6.60,-2.79,-2.78,2.78,2.90,2.91,-3.83,-3.82,-3.82
282.17,-6.43,-6.43,-2.63,-2.63,2.69,2.80,2.82,-3.74,-3.74,-3.80
284.99,-6.32,-6.30,-2.55,-2.53,2.61,2.69,2.73,-3.71,-3.69,-3.77
287.84,-6.15,-6.19,-2.40,-2.45,2.54,2.58,2.64,-3.62,-3.66,-3.75
290.72,-6.14,-6.16,-2.43,-2.44,2.47,2.47,2.54,-3.67,-3.69,-3.71
293.63,-6.14,-6.12,-2.45,-2.44,2.42,2.35,2.44,-3.72,-3.71,-3.69
296.57,-6.14,-6.10,-2.48,-2.44,2.37,2.22,2.35,-3.77,-3.73,-3.66
299.53,-5.97,-6.01,-2.34,-2.37,2.32,2.10,2.25,-3.66,-3.69,-3.64
302.53,-5.91,-5.89,-2.29,-2.27,2.25,1.97,2.14,-3.66,-3.64,-3.62
305.55,-5.72,-5.75,-2.14,-2.16,2.16,1.84,2.04,-3.56,-3.59,-3.58
308.61,-5.63,-5.63,-2.06,-2.06,2.05,1.71,1.94,-3.58,-3.58,-3.57
311.69,-5.48,-5.46,-1.93,-1.92,1.93,1.57,1.84,-3.55,-3.54,-3.55
314.81,-5.32,-5.31,-1.80,-1.78,1.79,1.44,1.73,-3.53,-3.52,-3.52
317.96,-5.10,-5.13,-1.57,-1.61,1.64,1.31,1.63,-3.46,-3.49,-3.53
321.14,-5.00,-4.98,-1.47,-1.46,1.48,1.17,1.53,-3.52,-3.50,-3.53
324.35,-4.82,-4.85,-1.30,-1.33,1.31,1.04,1.42,-3.51,-3.54,-3.52
327.59,-4.74,-4.72,-1.23,-1.20,1.13,0.91,1.32,-3.61,-3.59,-3.52
330.87,-4.55,-4.51,-1.04,-1.00,0.95,0.78,1.22,-3.60,-3.56,-3.51
334.18,-4.29,-4.29,-0.79,-0.79,0.78,0.65,1.12,-3.51,-3.51,-3.50
337.52,-3.98,-4.05,-0.49,-0.56,0.61,0.51,1.01,-3.37,-3.44,-3.49
340.90,-3.88,-3.84,-0.41,-0.37,0.45,0.38,0.91,-3.44,-3.40,-3.47
344.30,-3.68,-3.69,-0.22,-0.24,0.28,0.26,0.81,-3.40,-3.41,-3.46
347.75,-3.57,-3.58,-0.13,-0.14,0.13,0.13,0.71,-3.44,-3.45,-3.44
351.23,-3.45,-3.43,-0.04,-0.01,-0.00,-0.00,0.61,-3.45,-3.43,-3.41
354.74,-3.31,-3.29,0.08,0.10,-0.12,-0.13,0.51,-3.43,-3.41,-3.40
358.28,-3.09,-3.12,0.28,0.25,-0.24,-0.25,0.41,-3.34,-3.37,-3.37
361.87,-2.98,-2.97,0.37,0.38,-0.38,-0.38,0.31,-3.36,-3.34,-3.35
365.49,-2.79,-2.82,0.53,0.50,-0.52,-0.50,0.21,-3.32,-3.35,-3.32
369.14,-2.71,-2.70,0.59,0.61,-0.68,-0.62,0.11,-3.39,-3.37,-3.30
372.83,-2.53,-2.50,0.74,0.77,-0.83,-0.74,0.01,-3.36,-3.33,-3.28
376.56,-2.31,-2.27,0.95,0.98,-0.97,-0.86,-0.09,-3.28,-3.25,-3.26
380.33,-1.99,-2.04,1.24,1.19,-1.11,-0.97,-0.19,-3.10,-3.15,-3.23
384.13,-1.84,-1.89,1.37,1.32,-1.24,-1.09,-0.29,-3.08,-3.13,-3.21
387.97,-1.81,-1.80,1.39,1.40,-1.37,-1.19,-0.38,-3.18,-3.17,-3.20
391.85,-1.80,-1.74,1.39,1.45,-1.48,-1.30,-0.48,-3.29,-3.23,-3.19
395.77,-1.64,-1.65,1.54,1.54,-1.59,-1.40,-0.58,-3.23,-3.24,-3.19
399.73,-1.52,-1.54,1.66,1.64,-1.68,-1.49,-0.67,-3.20,-3.22,-3.18
403.72,-1.40,-1.42,1.77,1.75,-1.76,-1.58,-0.76,-3.16,-3.18,-3.17
407.76,-1.36,-1.32,1.80,1.84,-1.83,-1.67,-0.86,-3.19,-3.15,-3.16
411.84,-1.22,-1.23,1.93,1.92,-1.89,-1.75,-0.95,-3.11,-3.12,-3.15
