frequency,raw,error,smoothed,error_smoothed,equalization,equalized_raw,equalized_smoothed,target
20,-17.098189885281453,-17.884076086127322,-17.127061847681365,-17.91293270130109,5.999999999999999,-11.098189885281453,-11.127061847681365,0.785886200845868
21,-16.510021581721574,-17.295888830329854,-16.41588659799248,-17.201756200852365,6.0,-10.510021581721574,-10.415886597992479,0.7858672486082812
22,-15.663874592342616,-16.44971704897905,-15.724078019695558,-16.50993279073684,6.0,-9.663874592342616,-9.724078019695558,0.7858424566364333
23,-15.008444625908007,-15.794255044609466,-15.051636112790602,-15.837462470954526,6.0,-9.008444625908007,-9.051636112790602,0.7858104187014585
24,-14.413374689953208,-15.199144165607342,-14.398560877277582,-15.184345241505394,5.999999999999998,-8.41337468995321,-8.398560877277584,0.7857694756541327
25,-13.776697598572163,-14.562415282550829,-13.764915892140385,-14.55064615770803,5.999999999999999,-7.776697598572164,-7.764915892140386,0.7857176839786661
26,-13.15595527878067,-13.941608060829779,-13.150593755930252,-13.936256363547784,5.999999999999999,-7.155955278780671,-7.150593755930253,0.7856527820491079
27,-12.522111940899876,-13.307684094937416,-12.555569955194407,-13.341149776922627,5.999999999999998,-6.522111940899878,-6.555569955194409,0.7855721540375402
28,-12.036165387201832,-12.821638178630543,-11.979862200212818,-12.765341524488386,6.0,-6.036165387201832,-5.979862200212818,0.785472791428711
29,-11.486820064228981,-12.272171316330434,-11.42349558053309,-12.208853076169706,6.000000000000001,-5.48682006422898,-5.42349558053309,0.7853512521014525
30,-10.774695577880703,-11.559899194825714,-10.886446310259032,-11.671656567124499,6.0,-4.774695577880703,-4.886446310259032,0.7852036169450121
31,-10.362847355748741,-11.14787279973556,-10.368435389088873,-11.153468251603673,5.999999999999998,-4.362847355748743,-4.368435389088875,0.785025443986819
32,-9.820199391689465,-10.605011111708052,-9.86880100079168,-10.65362105976412,6.0,-3.8201993916894654,-3.868801000791681,0.784811720018586
33,-9.491242353907387,-10.275799163627168,-9.386456262944613,-10.171022346127497,6.0,-3.4912423539073867,-3.3864562629446127,0.7845568097197813
34,-8.85312063713479,-9.637375039426605,-8.919990329251567,-9.70425488797294,5.999999999999997,-2.8531206371347926,-2.9199903292515694,0.7842544022918139
35,-8.527113784864888,-9.311011240497969,-8.46792907468879,-9.251837520990161,6.0,-2.5271137848648877,-2.46792907468879,0.7838974556330802
36,-8.00409617449351,-8.787574312598142,-8.029055016300392,-8.812544957367486,5.999999999999999,-2.004096174493511,-2.0290550163003926,0.7834781381046327
37,-7.607152414053028,-8.390140182012091,-7.602698492961952,-8.385698880608086,6.0,-1.6071524140530276,-1.6026984929619523,0.7829877679590638
38,-7.244121005172134,-8.02653775570381,-7.1889053137565835,-7.971335523992831,6.000000000000002,-1.2441210051721319,-1.1889053137565817,0.7824167505316759
39,-6.743576930962894,-7.525331444286353,-6.788428478517265,-7.570197320476298,6.0,-0.7435769309628943,-0.7884284785172646,0.7817545133234582
40,-6.437270345051561,-7.218259784191998,-6.4025581252396115,-7.18356278809204,6.000000000000001,-0.4372703450515605,-0.40255812523961065,0.7809894391404364
41,-6.014422186519232,-6.794530984013101,-6.032840552059435,-6.812965487860444,6.0,-0.014422186519231772,-0.03284055205943481,0.7801087974938694
42,-5.623774715435499,-6.402873389946693,-5.680756892109723,-6.459872631271439,5.942882724882736,0.3191080094472367,0.2621258327730134,0.7790986745111934
43,-5.3649705250908495,-6.142914426749772,-5.347424506488531,-6.125386403683734,5.823210119768414,0.4582395946775648,0.475785613279883,0.7779439016589222
44,-5.059926414086033,-5.8365543977224315,-5.033366032473954,-5.810012940159796,5.645511642348446,0.5855852282624134,0.6121456098744922,0.7766279836363985
45,-4.7403535693248635,-5.515486595188705,-4.738378695225152,-5.513531563994741,5.435903544502017,0.6955499751771539,0.6975248492768653,0.7751330258638407
46,-4.449648007391163,-5.223087669451006,-4.461527630462019,-5.234988036396495,5.211321806460642,0.7616737990694791,0.7497941759986233,0.7734396620598432
47,-4.128023133315844,-4.89955011579865,-4.201278545242233,-4.972827145094401,4.972827145094401,0.8448040117785567,0.7715485998521681,0.7715269824828064
48,-3.9995786476108552,-4.768951111108675,-3.955766991547568,-4.725161907380326,4.725161907380327,0.725583259769472,0.7693949158327591,0.7693724634978194
49,-3.7531098691626616,-4.520061768388173,-3.7231667458742375,-4.490141881317352,4.490141881317351,0.7370320121546894,0.7669751354431136,0.7669518992255115
50,-3.4896886214107368,-4.253927957542917,-3.5020781203203155,-4.266341411388738,4.266341411388737,0.7766527899780002,0.7642632910684215,0.7642393361321806
51,-3.2303446666045867,-3.9915516781354947,-3.2918301756829074,-4.053061780052352,4.053061780052353,0.8227171134477662,0.7612316043694456,0.761207011530908
52,-3.3186443792602587,-4.076469676341125,-3.092600729392422,-3.8504511591092303,3.8504511591092303,0.5318067798489716,0.7578504297168083,0.7578252970808661
53,-2.809220549480598,-3.563283197976367,-2.9053076353799776,-3.6593958392287407,3.6593958392287393,0.8501752897481412,0.7540882038487617,0.7540626484957689
54,-2.684525777563272,-3.4344113403645546,-2.731297369116315,-3.481208772224322,3.481208772224321,0.7966829946610492,0.7499114031080061,0.7498855628012828
55,-2.5099830803253784,-3.255241624939004,-2.57192364898979,-3.3172081587276194,3.3172081587276194,0.807225078402241,0.7452845097378296,0.7452585446136255
56,-2.4449838971503746,-3.1851279801957446,-2.4281408647556146,-3.1683108536071076,3.1683108536071067,0.7233269564567322,0.7401699888514921,0.74014408304537
57,-2.2972430949119027,-3.0317457358890483,-2.3002191796594893,-3.034747457477672,3.0347474574776716,0.7375043625657689,0.7345282778181823,0.7345026409771456
58,-2.2438344762255285,-2.972127134787643,-2.1876334664888537,-2.9159512564298744,2.915951256429875,0.6721167802043464,0.7283177899410211,0.7282926585621143
59,-2.0426850316559952,-2.7641556046059974,-2.089118413231717,-2.810613347655714,2.810613347655714,0.7679283159997188,0.7214949344239971,0.7214705729500022
60,-2.012851241399881,-2.726842097724246,-2.002847539901593,-2.7168616946329553,2.7168616946329545,0.7040104532330735,0.7140141547313616,0.7139908563243651
61,-1.9861468082124685,-2.691952882647822,-1.9266913614370633,-2.632519348968281,2.632519348968282,0.6463725407558136,0.7058279875312188,0.7058060744353538
62,-1.7700579699446428,-2.4669249378189937,-1.8585256554852665,-2.5554127999631597,2.55541279996316,0.7853548300185174,0.6968871444778937,0.6968669678743509
63,-1.7409606549512393,-2.428083213320894,-1.7965695999552438,-2.4837102190720115,2.483710219072012,0.7427495641207726,0.6871406191167682,0.6871225583696545
64,-1.9018802790693805,-2.578400561445651,-1.739717133403532,-2.4162529546232627,2.416252954623263,0.5143726755538827,0.6765358212197312,0.6765202823762704
65,-1.6403863325799042,-2.305392486759712,-1.6877859558703698,-2.3528046965086338,2.3528046965086333,0.7124183639287291,0.6650187406382635,0.665006154179808
66,-1.6403869372254032,-2.2929118978512717,-1.6415787764993155,-2.294112919469897,2.294112919469897,0.6537259822444936,0.6525341429705813,0.6525249606258687
67,-1.640387822076682,-2.279408311490168,-1.6026687903395043,-2.241694589566089,2.2416945895660887,0.6013067674894066,0.6390257992265844,0.6390204894134861
68,-1.6403887863507425,-2.2648245789962074,-1.5729030110431585,-2.197339761674546,2.197339761674545,0.5569509753238027,0.6244367506313866,0.6244357926454649
69,-1.3788951145618855,-1.987608601563686,-1.5537379657002872,-2.16244757468086,2.1624475746808596,0.7835524601189741,0.6087096089805724,0.6087134870018005
70,-1.6083877741554344,-2.2001838656428743,-1.545626621682632,-2.137413515751226,2.137413515751226,0.5290257415957917,0.5917868940685942,0.5917960914874398
71,-1.4692251862807817,-2.042851589477595,-1.547701514541799,-2.1213129261488,2.1213129261488,0.6520877398680183,0.573611411607001,0.5736264031968132
72,-1.5398059622361604,-2.093953873167112,-1.5579143290291024,-2.112041003118258,2.112041003118258,0.5722350408820978,0.5541266740891557,0.5541479109309515
73,-1.5397971989879928,-2.0731024447857584,-1.5736161122343633,-2.1068934718826755,2.106893471882676,0.5670962728946831,0.5332773596483127,0.5333052457977656
74,-1.7223121143471734,-2.233356781471471,-1.5923688118081372,-2.103378609822752,2.103378609822752,0.3810664954755787,0.5110097980146149,0.5110446671242976
75,-1.719939814568659,-2.2072543956866424,-1.6126604439144376,-2.09993291186628,2.0999329118662806,0.37999309729762154,0.487272467951843,0.4873145811179831
76,-1.6403443324245963,-2.102410421167634,-1.6342183066299865,-2.0962348038245033,2.096234803824504,0.45589047139990746,0.4620164971945173,0.46206608874303745
77,-1.640351162617003,-2.0756047208612056,-1.6577771253719593,-2.0929733155634356,2.0929733155634356,0.4526221529464325,0.43519619019147626,0.4352535582442023
78,-1.5243677410040315,-1.931202957678839,-1.684395540653648,-2.0911652003373487,2.091165200337348,0.5667974593333167,0.40676965968370027,0.4068352166748075
79,-1.6132351021885358,-1.9900088558853652,-1.7146203560496853,-2.091320001115835,2.0913200011158355,0.47808489892729966,0.37669964506615017,0.3767737536968294
80,-1.7945347855329978,-2.139571715382989,-1.7478778892314846,-2.0928323802284674,2.092832380228468,0.29829759469547,0.3449544909969833,0.3450369298499911
81,-1.9825975430837883,-2.2941957235566703,-1.7823827379859476,-2.0938917664766326,2.093891766476633,0.11129422339284467,0.3115090284906854,0.311598180472882
82,-1.7497436269276934,-2.0261808324711104,-1.8156315188431997,-2.0919764046786873,2.0919764046786877,0.34223277775099437,0.276344885835488,0.276437205543417
83,-1.7541979558764649,-1.993738490809952,-1.845290137032289,-2.084739892909859,2.0847398929098593,0.3305419370333944,0.23944975587757034,0.23954053493348715
84,-1.9426594995764448,-2.1435615575657225,-1.870103462672361,-2.0709190774619595,2.0709190774619604,0.12825957788551556,0.20081561478959942,0.20090205798927796
85,-1.9425763521485917,-2.103099858147883,-1.8904353155383526,-2.05087221887867,2.0508722188786703,0.10829586673007863,0.16043690334031768,0.16052350599929088
86,-1.9422928336131833,-2.0607077096513686,-1.9081956695653266,-2.026506519362846,2.0265065193628455,0.08421368574966226,0.11831084979751894,0.11841487603818557
87,-1.9417433042137255,-2.0163380891252194,-1.9261698815299522,-2.000612399471073,2.000612399471073,0.058869095257347404,0.07444251794112078,0.07459478491149385
88,-1.94088442444717,-1.9699751669481387,-1.9470203512840842,-1.9758761628257173,1.975876162825717,0.03499173837854719,0.02885581154163286,0.02909074250096877
89,-1.8190262558998107,-1.800965590637981,-1.9723702260387568,-1.9539784582296558,1.9539784582296558,0.13495220232984506,-0.01839176780910101,-0.01806066526182981
90,-1.817612298364264,-1.7507986060811143,-2.0023397395475615,-1.9351423710216251,1.9351423710216253,0.11753007265736137,-0.06719736852593616,-0.0668136922831497
91,-2.1650791332500887,-2.0479656793296797,-2.0357069161504713,-1.9182926415080472,1.9182926415080468,-0.24678649174204192,-0.11741427464242449,-0.11711345392040906
92,-2.247945552951762,-2.07904949370308,-2.0705939652501266,-1.90171769737321,1.9017176973732102,-0.3462278555785516,-0.16887626787691645,-0.16889605924868167
93,-2.1356819069382764,-1.9135930502345522,-2.105357532501207,-1.8839097429406553,1.8839097429406555,-0.2517721639976209,-0.22144778956055133,-0.22208885670372425
94,-2.135695017816498,-1.8590842244008172,-2.1392847572665676,-1.8641940233136571,1.8641940233136574,-0.2715009945028408,-0.2750907339529103,-0.27661079341568096
95,-2.137088078263157,-1.8047151922560447,-2.1728033515456255,-1.8428777977290183,1.842877797729018,-0.2942102805341391,-0.3299255538166075,-0.33237288600711246
96,-2.140358939823316,-1.7510801417807147,-2.2071509825811138,-1.8208942736217701,1.82089427362177,-0.3194646662015461,-0.38625670895934383,-0.38927879804260135
97,-2.213042327307611,-1.765816810531534,-2.243702132885092,-1.7991658916878914,1.7991658916878914,-0.41387643561971954,-0.4445362411972007,-0.447225516776077
98,-2.269931545062561,-1.7638274256227486,-2.2833001279055924,-1.7780437068378463,1.7780437068378465,-0.4918878382247145,-0.5052564210677459,-0.5061041194398124
99,-2.3668374703729955,-1.801036853226424,-2.3259208977248917,-1.7571318445124615,1.7571318445124615,-0.609705625860534,-0.5687890532124302,-0.5658006171465715
100,-2.3812835755194888,-1.7550867129028962,-2.370816327699581,-1.7356010068549992,1.7356010068549996,-0.6456825686644891,-0.6352153208445812,-0.6261968626165926
101,-2.3987174567352194,-1.7115459502706183,-2.4170376921768435,-1.7128335494799463,1.7128335494799467,-0.6858839072552727,-0.7042041426968968,-0.6871715064646011
102,-2.4188310527212047,-1.670230066977462,-2.4640474795814504,-1.6890569583686224,1.689056958368622,-0.7297740943525828,-0.7749905212128285,-0.7486009857437428
104,-2.6825011716714133,-1.810176018631124,-2.5120881584265176,-1.665610307363919,1.665610307363919,-1.0168908643074943,-0.8464778510625985,-0.8723251530402893
105,-2.6059255641415895,-1.6715549057127692,-2.562106336925998,-1.6446583454942676,1.6446583454942678,-0.9612672186473217,-0.9174479914317304,-0.9343706584288203
106,-2.562043216684814,-1.5656686479141984,-2.6152607618984396,-1.628436295081012,1.6284362950810116,-0.9336069216038025,-0.986824466817428,-0.9963745687706158
107,-2.473584594960436,-1.415367556335449,-2.6722558226336073,-1.6183434507482461,1.6183434507482461,-0.8552411442121897,-1.0539123718853611,-1.0582170386249867
108,-2.6002362872114024,-1.480454593519755,-2.7328320686991043,-1.614289421775029,1.6142894217750285,-0.9859468654363739,-1.1185426469240758,-1.1197816936916474
109,-2.96525079002463,-1.7842943898172705,-2.7956659379737716,-1.6145884214968373,1.6145884214968373,-1.3506623685277925,-1.1810775164769343,-1.1809564002073594
110,-2.9957279152222123,-1.7540939616215394,-2.85872351250846,-1.616445911684869,1.6164459116848686,-1.3792820035373436,-1.2422776008235914,-1.2416339536006729
111,-2.8954090365804905,-1.5936963568112756,-2.919885206742581,-1.6168113496589174,1.6168113496589176,-1.278597686921573,-1.3030738570836635,-1.301712679769215
112,-2.952303109100587,-1.5912061645303326,-2.977528295230073,-1.6132138180137816,1.6132138180137818,-1.339089291086805,-1.364314477216291,-1.3610969445702543
113,-3.017348227212656,-1.59765065791564,-3.030786827132785,-1.6042272483147073,1.6042272483147069,-1.413120978897949,-1.426559578818078,-1.419697569297016
114,-3.0867295969685413,-1.6092974449862938,-3.0793834712096775,-1.589408062201621,1.5894080622016211,-1.4973215347669202,-1.4899754090080564,-1.4774321519822475
115,-3.1251859508252764,-1.590960654553998,-3.123154096116493,-1.5688102209672874,1.568810220967288,-1.5563757298579883,-1.554343875149205,-1.5342252962712783
117,-3.1241863829908847,-1.4794649155831507,-3.161546950797518,-1.5423807102983291,1.5423807102983285,-1.5818056726925562,-1.6191662404991896,-1.644721467407734
118,-3.120727252330149,-1.4224176784671458,-3.193391045978362,-1.5095764327987464,1.509576432798746,-1.6111508195314028,-1.6838146131796161,-1.698309573863003
119,-3.1850143358537304,-1.4342880505030213,-3.2170881402940035,-1.4694095414689112,1.469409541468911,-1.7156047943848194,-1.7476785988250925,-1.750726285350709
120,-3.370187340721229,-1.5682555956822433,-3.231164582303297,-1.420897734632184,1.4208977346321838,-1.9492896060890452,-1.810266847671113,-1.8019317450389858
121,-3.3171020060973344,-1.4652091940048,-3.2349372425826806,-1.3636899502422903,1.3636899502422906,-1.9534120558550438,-1.87124729234039,-1.8518928120925344
123,-3.2780118475982656,-1.3300306609633417,-3.2289917803793946,-1.2985569532643788,1.2985569532643788,-1.9794548943338868,-1.9304348271150158,-1.947981186634924
124,-3.1862495563279225,-1.1921762908507767,-3.2152633804706303,-1.2275122810428838,1.2275122810428836,-1.958737275285039,-1.9877510994277467,-1.9940732654771458
125,-3.060110868541116,-1.0212610589330189,-3.19669661435782,-1.1535134502095667,1.1535134502095667,-1.906597418331549,-2.043183164148253,-2.038849809608097
126,-3.171699371062612,-1.0893926796607323,-3.176643165032945,-1.079885294754063,1.0798852947540627,-2.091814076308549,-2.096757870278882,-2.0823066914018797
128,-3.1651108463873805,-0.9998426769847839,-3.158243431182478,-1.0097094583717814,1.0097094583717818,-2.1554013880155987,-2.148533972810696,-2.1652681694025966
129,-3.159001255744669,-0.9542146910698661,-3.143997393067475,-0.9453954562691795,0.9453954562691799,-2.213605799475489,-2.1986019367982954,-2.204786564674803
130,-3.153346847295274,-0.9103347173637215,-3.135599120929518,-0.888521311903224,0.8885213119032243,-2.26482553539205,-2.247077809026294,-2.2430121299315524
131,-3.148125055721417,-0.868164552982011,-3.1339695504413863,-0.8398862618950909,0.8398862618950909,-2.3082387938263262,-2.2940832885462954,-2.279960502739406
133,-3.1433331090934336,-0.7932310475977751,-3.139348816736754,-0.7996338910352971,0.7996338910352973,-2.3436992180581364,-2.3397149257014567,-2.3501020614956585
134,-3.138995834133893,-0.7556564885255033,-3.151332869954353,-0.7673183910815833,0.7673183910815835,-2.3716774430523095,-2.3840144788727695,-2.38333934560839
135,-3.135162486707653,-0.7197754908006995,-3.1688317430527073,-0.7418771532012167,0.7418771532012167,-2.3932853335064364,-2.4269545898514906,-2.4153869959069536
137,-3.13189466552714,-0.6558737768730851,-3.1900235011690823,-0.7215754245855912,0.7215754245855911,-2.410319240941549,-2.468448076583491,-2.476020888654055
138,-3.1292489847898546,-0.6245851239463951,-3.212417751054674,-0.704039067895341,0.7040390678953411,-2.4252099168945134,-2.5083786831593327,-2.5046638608434595
140,-3.3276429739415465,-0.7688928353462097,-3.2331052463204415,-0.686463994042442,0.686463994042442,-2.6411789798991046,-2.5466412522779995,-2.558750138595337
141,-3.367272182516227,-0.7830177284950741,-3.249184105326636,-0.666009037648991,0.666009037648991,-2.701263144867236,-2.583175067677645,-2.5842544540211527
142,-3.2798540399305303,-0.6710799693584089,-3.2582719045596313,-0.6402941920605381,0.6402941920605383,-2.639559847869992,-2.6179777124990933,-2.6087740705721214
144,-3.2255175604145,-0.5705342957872386,-3.258979841644252,-0.6078837036498272,0.6078837036498271,-2.617633856764673,-2.651096137994425,-2.6549832646272615
145,-3.2256437806191203,-0.5489091735966838,-3.251251204374948,-0.5686493490260399,0.56864934902604,-2.6569944315930805,-2.682601855348908,-2.6767346070224365
147,-3.2259712622955568,-0.508288041485506,-3.2365252583576147,-0.5239619183009702,0.52396191830097,-2.702009343994587,-2.7125633400566445,-2.7176832208100508
148,-3.2263319758625215,-0.48939169240922187,-3.217736250943271,-0.4767078239878109,0.4767078239878108,-2.749624151874711,-2.7410284269554603,-2.7369402834532996
150,-3.226574686113814,-0.45340914868803184,-3.199165164523208,-0.4311416476847913,0.43114164768479135,-2.7954330384290227,-2.768023516838417,-2.773165537425782
151,-3.226587319328704,-0.43639713368026367,-3.186132666242923,-0.39256489057506083,0.3925648905750609,-2.834022428753643,-2.793567775667862,-2.79019018564844
153,-3.226317014638627,-0.4041173500524353,-3.1844899123999744,-0.36679640162752747,0.3667964016275275,-2.8595206130110995,-2.817693510772447,-2.8221996645861918
154,-3.2257853692640035,-0.3885485516858145,-3.1998680203240237,-0.35940631618197805,0.35940631618197805,-2.8663790530820252,-2.8404617041420455,-2.837236817578189
156,-3.0842918059099884,-0.21879063398472764,-3.236707142420463,-0.37474234452720145,0.37474234452720157,-2.709549461382787,-2.861964797893261,-2.8655011719252608
157,-3.0836302923728085,-0.2048541153786667,-3.2971914812631384,-0.4148762266612126,0.41487622666121254,-2.668754065711596,-2.882315254601926,-2.878776176994142
