frequency,raw,error,smoothed,error_smoothed,equalization,parametric_eq,fixed_band_eq,equalized_raw,equalized_smoothed,target
20.00,6.65,1.70,6.65,1.70,-1.68,-2.80,-1.32,4.97,4.97,4.95
20.20,6.68,1.72,6.67,1.71,-1.71,-2.81,-1.36,4.96,4.96,4.96
20.40,6.70,1.73,6.71,1.74,-1.75,-2.81,-1.40,4.95,4.95,4.97
20.61,6.75,1.77,6.75,1.77,-1.79,-2.82,-1.44,4.96,4.96,4.98
20.81,6.80,1.82,6.80,1.82,-1.83,-2.82,-1.48,4.97,4.97,4.98
21.02,6.86,1.87,6.86,1.87,-1.87,-2.83,-1.53,4.99,4.99,4.99
21.23,6.92,1.92,6.92,1.92,-1.91,-2.83,-1.57,5.01,5.01,5.00
21.44,6.98,1.96,6.98,1.96,-1.96,-2.84,-1.62,5.02,5.02,5.02
21.66,7.03,2.01,7.03,2.01,-2.00,-2.84,-1.66,5.03,5.02,5.02
21.87,7.07,2.04,7.07,2.05,-2.05,-2.85,-1.71,5.02,5.03,5.03
22.09,7.12,2.09,7.12,2.09,-2.09,-2.86,-1.76,5.03,5.03,5.03
22.31,7.17,2.13,7.17,2.13,-2.14,-2.86,-1.81,5.03,5.03,5.04
22.54,7.22,2.18,7.22,2.18,-2.18,-2.87,-1.87,5.04,5.04,5.04
22.76,7.26,2.21,7.27,2.22,-2.22,-2.87,-1.92,5.04,5.04,5.04
22.99,7.32,2.27,7.31,2.27,-2.27,-2.88,-1.98,5.05,5.04,5.04
23.22,7.36,2.31,7.36,2.31,-2.31,-2.88,-2.03,5.05,5.05,5.04
23.45,7.40,2.35,7.41,2.36,-2.35,-2.89,-2.09,5.04,5.05,5.05
23.69,7.46,2.41,7.45,2.40,-2.40,-2.90,-2.15,5.06,5.05,5.05
23.92,7.50,2.45,7.50,2.44,-2.44,-2.90,-2.21,5.06,5.06,5.05
24.16,7.54,2.48,7.54,2.48,-2.48,-2.91,-2.27,5.06,5.06,5.06
24.40,7.59,2.52,7.58,2.52,-2.52,-2.91,-2.33,5.07,5.06,5.07
24.65,7.63,2.56,7.63,2.56,-2.56,-2.92,-2.40,5.07,5.07,5.07
24.89,7.66,2.59,7.67,2.60,-2.60,-2.93,-2.46,5.06,5.07,5.07
25.14,7.71,2.64,7.71,2.64,-2.64,-2.93,-2.53,5.07,5.07,5.07
25.39,7.75,2.68,7.74,2.68,-2.67,-2.94,-2.59,5.08,5.07,5.07
25.65,7.78,2.71,7.78,2.71,-2.71,-2.95,-2.65,5.07,5.07,5.07
25.91,7.81,2.74,7.81,2.74,-2.75,-2.95,-2.72,5.06,5.07,5.07
26.16,7.85,2.77,7.85,2.78,-2.78,-2.96,-2.78,5.07,5.07,5.07
26.43,7.89,2.81,7.89,2.81,-2.82,-2.97,-2.85,5.07,5.07,5.07
26.69,7.93,2.86,7.92,2.85,-2.85,-2.98,-2.91,5.08,5.07,5.07
26.96,7.96,2.89,7.96,2.89,-2.89,-2.98,-2.98,5.07,5.07,5.07
27.23,7.99,2.92,7.99,2.92,-2.92,-2.99,-3.04,5.07,5.07,5.07
27.50,8.03,2.96,8.03,2.95,-2.95,-3.00,-3.10,5.08,5.07,5.07
27.77,8.07,2.99,8.06,2.99,-2.98,-3.01,-3.16,5.09,5.08,5.08
28.05,8.08,3.00,8.09,3.01,-3.01,-3.01,-3.21,5.07,5.08,5.08
28.33,8.13,3.05,8.12,3.04,-3.03,-3.02,-3.27,5.09,5.08,5.08
28.62,8.13,3.05,8.14,3.06,-3.06,-3.03,-3.32,5.07,5.08,5.07
28.90,8.17,3.09,8.16,3.08,-3.08,-3.04,-3.36,5.09,5.08,5.08
29.19,8.17,3.09,8.18,3.10,-3.10,-3.05,-3.41,5.07,5.08,5.08
29.48,8.21,3.13,8.20,3.12,-3.12,-3.06,-3.45,5.09,5.08,5.08
29.78,8.22,3.14,8.22,3.14,-3.14,-3.06,-3.49,5.07,5.08,5.08
30.08,8.25,3.16,8.25,3.17,-3.17,-3.07,-3.52,5.08,5.08,5.09
30.38,8.27,3.19,8.27,3.19,-3.19,-3.08,-3.55,5.08,5.08,5.08
30.68,8.29,3.21,8.29,3.21,-3.21,-3.09,-3.57,5.08,5.08,5.07
30.99,8.31,3.24,8.31,3.23,-3.23,-3.10,-3.59,5.07,5.07,5.07
31.30,8.31,3.24,8.33,3.26,-3.26,-3.11,-3.61,5.05,5.07,5.07
31.61,8.36,3.29,8.34,3.27,-3.28,-3.12,-3.62,5.08,5.06,5.07
31.93,8.36,3.30,8.36,3.30,-3.30,-3.13,-3.62,5.06,5.06,5.06
32.24,8.36,3.30,8.38,3.32,-3.31,-3.14,-3.63,5.04,5.07,5.06
32.57,8.41,3.36,8.39,3.34,-3.33,-3.15,-3.62,5.08,5.06,5.05
32.89,8.41,3.36,8.41,3.35,-3.35,-3.16,-3.62,5.06,5.06,5.05
33.22,8.41,3.36,8.41,3.36,-3.36,-3.17,-3.60,5.04,5.05,5.05
33.55,8.41,3.36,8.41,3.36,-3.38,-3.18,-3.59,5.03,5.03,5.04
33.89,8.41,3.37,8.42,3.38,-3.39,-3.19,-3.57,5.02,5.03,5.04
34.23,8.43,3.40,8.43,3.40,-3.40,-3.20,-3.55,5.03,5.03,5.03
34.57,8.45,3.42,8.44,3.42,-3.40,-3.22,-3.53,5.05,5.04,5.03
34.92,8.45,3.43,8.44,3.42,-3.41,-3.23,-3.50,5.04,5.03,5.01
35.27,8.43,3.41,8.43,3.42,-3.42,-3.24,-3.47,5.01,5.01,5.02
35.62,8.41,3.41,8.42,3.41,-3.42,-3.25,-3.44,4.99,4.99,5.00
35.97,8.41,3.41,8.41,3.41,-3.43,-3.26,-3.41,4.98,4.98,4.99
36.33,8.41,3.43,8.41,3.43,-3.43,-3.27,-3.38,4.98,4.98,4.98
36.70,8.41,3.44,8.41,3.44,-3.43,-3.28,-3.35,4.98,4.97,4.97
37.06,8.41,3.45,8.39,3.44,-3.44,-3.29,-3.31,4.97,4.96,4.95
37.43,8.36,3.42,8.37,3.44,-3.44,-3.29,-3.28,4.92,4.94,4.94
37.81,8.36,3.43,8.37,3.44,-3.44,-3.30,-3.25,4.92,4.92,4.93
38.19,8.36,3.45,8.35,3.44,-3.44,-3.31,-3.22,4.92,4.91,4.91
38.57,8.36,3.46,8.35,3.45,-3.44,-3.32,-3.18,4.92,4.90,4.90
38.95,8.31,3.43,8.32,3.44,-3.44,-3.32,-3.15,4.87,4.89,4.88
39.34,8.31,3.45,8.30,3.44,-3.44,-3.33,-3.12,4.87,4.86,4.86
39.74,8.27,3.43,8.27,3.43,-3.43,-3.33,-3.10,4.84,4.84,4.84
40.14,8.26,3.43,8.26,3.43,-3.43,-3.33,-3.07,4.83,4.83,4.83
40.54,8.22,3.41,8.23,3.42,-3.42,-3.33,-3.04,4.80,4.81,4.81
40.94,8.22,3.43,8.21,3.41,-3.41,-3.33,-3.02,4.80,4.79,4.79
41.35,8.17,3.40,8.18,3.41,-3.41,-3.33,-3.00,4.76,4.77,4.77
41.76,8.16,3.41,8.15,3.40,-3.40,-3.33,-2.98,4.76,4.75,4.75
42.18,8.13,3.40,8.12,3.39,-3.40,-3.33,-2.96,4.73,4.72,4.73
42.60,8.08,3.37,8.09,3.39,-3.39,-3.33,-2.95,4.69,4.70,4.70
43.03,8.07,3.39,8.06,3.38,-3.39,-3.32,-2.93,4.68,4.67,4.68
43.46,8.03,3.38,8.03,3.38,-3.38,-3.32,-2.92,4.65,4.65,4.65
43.90,8.00,3.37,8.00,3.38,-3.37,-3.31,-2.91,4.63,4.63,4.62
44.33,7.97,3.37,7.97,3.37,-3.37,-3.31,-2.91,4.60,4.60,4.60
44.78,7.94,3.37,7.93,3.36,-3.36,-3.30,-2.90,4.58,4.57,4.57
45.23,7.89,3.34,7.90,3.35,-3.35,-3.29,-2.90,4.54,4.54,4.55
45.68,7.86,3.35,7.86,3.34,-3.34,-3.29,-2.90,4.51,4.51,4.51
46.13,7.82,3.34,7.81,3.33,-3.33,-3.28,-2.90,4.48,4.48,4.47
46.60,7.77,3.32,7.77,3.33,-3.33,-3.27,-2.91,4.44,4.45,4.45
47.06,7.73,3.31,7.73,3.31,-3.32,-3.26,-2.91,4.41,4.41,4.42
47.53,7.69,3.30,7.69,3.30,-3.31,-3.25,-2.92,4.38,4.38,4.39
48.01,7.64,3.30,7.64,3.30,-3.30,-3.24,-2.93,4.34,4.34,4.34
48.49,7.60,3.29,7.60,3.29,-3.29,-3.24,-2.95,4.31,4.30,4.31
48.97,7.55,3.28,7.55,3.28,-3.28,-3.23,-2.96,4.26,4.27,4.27
49.46,7.51,3.27,7.51,3.28,-3.28,-3.22,-2.98,4.23,4.23,4.23
49.96,7.46,3.27,7.46,3.27,-3.27,-3.21,-2.99,4.19,4.19,4.18
50.46,7.41,3.26,7.41,3.26,-3.26,-3.20,-3.01,4.15,4.16,4.15
50.96,7.37,3.25,7.36,3.25,-3.25,-3.19,-3.03,4.12,4.12,4.12
51.47,7.32,3.23,7.32,3.23,-3.23,-3.18,-3.05,4.09,4.08,4.09
51.99,7.26,3.21,7.27,3.22,-3.22,-3.17,-3.07,4.04,4.05,4.04
52.51,7.22,3.21,7.21,3.20,-3.20,-3.16,-3.10,4.02,4.01,4.01
53.03,7.17,3.18,7.16,3.18,-3.18,-3.15,-3.12,3.99,3.98,3.99
53.56,7.10,3.16,7.11,3.16,-3.17,-3.14,-3.14,3.93,3.94,3.94
54.10,7.05,3.15,7.05,3.15,-3.15,-3.13,-3.17,3.90,3.90,3.90
54.64,6.99,3.13,6.99,3.13,-3.14,-3.13,-3.19,3.85,3.85,3.86
55.18,6.94,3.12,6.93,3.12,-3.12,-3.12,-3.21,3.82,3.81,3.81
55.74,6.88,3.10,6.88,3.10,-3.10,-3.11,-3.23,3.78,3.78,3.78
56.29,6.83,3.08,6.84,3.09,-3.08,-3.10,-3.25,3.74,3.75,3.75
56.86,6.80,3.08,6.79,3.07,-3.06,-3.09,-3.27,3.73,3.72,3.72
57.42,6.74,3.06,6.74,3.05,-3.04,-3.08,-3.28,3.70,3.69,3.67
58.00,6.68,3.03,6.68,3.03,-3.02,-3.07,-3.30,3.66,3.66,3.65
58.58,6.61,2.98,6.62,3.00,-2.99,-3.06,-3.31,3.61,3.62,3.63
59.16,6.56,2.96,6.56,2.96,-2.97,-3.05,-3.32,3.59,3.59,3.60
59.76,6.52,2.95,6.50,2.94,-2.95,-3.04,-3.32,3.56,3.55,3.57
60.35,6.43,2.91,6.44,2.92,-2.94,-3.03,-3.32,3.49,3.51,3.51
60.96,6.38,2.91,6.38,2.91,-2.92,-3.02,-3.32,3.46,3.46,3.47
61.57,6.33,2.91,6.33,2.91,-2.91,-3.01,-3.32,3.42,3.42,3.42
62.18,6.28,2.91,6.28,2.91,-2.90,-3.00,-3.31,3.38,3.38,3.36
62.80,6.22,2.90,6.22,2.90,-2.89,-2.98,-3.30,3.33,3.33,3.32
63.43,6.16,2.88,6.16,2.88,-2.87,-2.97,-3.29,3.29,3.29,3.28
64.07,6.10,2.86,6.10,2.86,-2.86,-2.96,-3.27,3.24,3.24,3.24
64.71,6.05,2.85,6.04,2.84,-2.84,-2.95,-3.25,3.21,3.20,3.20
65.35,5.99,2.82,5.99,2.82,-2.83,-2.94,-3.22,3.16,3.16,3.17
66.01,5.93,2.80,5.93,2.80,-2.81,-2.92,-3.20,3.12,3.12,3.13
66.67,5.88,2.78,5.88,2.78,-2.79,-2.91,-3.17,3.08,3.08,3.10
67.33,5.83,2.78,5.83,2.78,-2.78,-2.90,-3.13,3.05,3.05,3.05
68.01,5.77,2.76,5.78,2.77,-2.77,-2.89,-3.10,3.00,3.01,3.01
68.69,5.74,2.77,5.73,2.76,-2.76,-2.87,-3.06,2.98,2.97,2.97
69.37,5.68,2.74,5.68,2.75,-2.74,-2.86,-3.02,2.94,2.94,2.94
70.07,5.63,2.74,5.63,2.74,-2.73,-2.84,-2.98,2.90,2.90,2.89
70.77,5.57,2.72,5.57,2.72,-2.72,-2.83,-2.93,2.85,2.85,2.85
71.48,5.51,2.71,5.51,2.70,-2.70,-2.81,-2.89,2.80,2.80,2.80
72.19,5.44,2.68,5.44,2.68,-2.69,-2.80,-2.84,2.75,2.75,2.76
72.91,5.38,2.67,5.38,2.67,-2.67,-2.78,-2.80,2.71,2.71,2.71
73.64,5.32,2.65,5.32,2.65,-2.65,-2.77,-2.75,2.67,2.67,2.66
74.38,5.26,2.63,5.26,2.64,-2.63,-2.75,-2.70,2.63,2.63,2.63
75.12,5.21,2.62,5.21,2.62,-2.61,-2.74,-2.65,2.60,2.59,2.59
75.87,5.16,2.60,5.14,2.59,-2.59,-2.72,-2.61,2.57,2.55,2.56
76.63,5.07,2.55,5.08,2.56,-2.57,-2.70,-2.56,2.50,2.51,2.52
77.40,5.02,2.53,5.03,2.54,-2.55,-2.68,-2.51,2.47,2.48,2.49
78.17,4.98,2.54,4.97,2.52,-2.52,-2.67,-2.47,2.46,2.45,2.44
78.95,4.93,2.51,4.92,2.50,-2.49,-2.65,-2.42,2.43,2.42,2.42
79.74,4.85,2.46,4.86,2.47,-2.47,-2.63,-2.38,2.38,2.39,2.39
80.54,4.79,2.44,4.79,2.44,-2.45,-2.61,-2.33,2.34,2.35,2.35
81.35,4.74,2.42,4.73,2.42,-2.42,-2.59,-2.29,2.32,2.31,2.31
82.16,4.68,2.39,4.68,2.39,-2.40,-2.57,-2.25,2.28,2.28,2.29
82.98,4.62,2.37,4.62,2.37,-2.37,-2.55,-2.21,2.25,2.25,2.25
83.81,4.56,2.35,4.56,2.35,-2.35,-2.53,-2.17,2.21,2.22,2.21
84.65,4.51,2.33,4.50,2.33,-2.32,-2.51,-2.13,2.19,2.18,2.17
85.50,4.45,2.31,4.44,2.30,-2.30,-2.49,-2.10,2.15,2.14,2.13
86.35,4.37,2.26,4.38,2.28,-2.28,-2.47,-2.06,2.09,2.10,2.10
87.22,4.32,2.25,4.32,2.25,-2.26,-2.44,-2.03,2.06,2.06,2.07
88.09,4.28,2.25,4.27,2.24,-2.24,-2.42,-2.00,2.04,2.03,2.03
88.97,4.23,2.23,4.22,2.23,-2.22,-2.40,-1.97,2.01,2.00,2.00
89.86,4.17,2.21,4.16,2.20,-2.20,-2.38,-1.94,1.97,1.97,1.96
90.76,4.09,2.17,4.10,2.18,-2.17,-2.35,-1.92,1.91,1.93,1.92
91.66,4.04,2.16,4.03,2.15,-2.15,-2.33,-1.89,1.89,1.88,1.88
92.58,3.98,2.13,3.97,2.13,-2.13,-2.31,-1.87,1.85,1.84,1.85
93.51,3.91,2.10,3.92,2.11,-2.11,-2.28,-1.85,1.80,1.81,1.81
94.44,3.86,2.08,3.85,2.08,-2.09,-2.26,-1.82,1.77,1.77,1.78
95.39,3.79,2.06,3.79,2.06,-2.07,-2.23,-1.81,1.72,1.72,1.73
96.34,3.73,2.05,3.73,2.04,-2.05,-2.21,-1.79,1.68,1.68,1.68
97.30,3.67,2.02,3.67,2.03,-2.03,-2.19,-1.77,1.64,1.64,1.65
98.28,3.61,2.01,3.61,2.01,-2.01,-2.16,-1.76,1.60,1.60,1.60
99.26,3.55,2.00,3.55,1.99,-1.98,-2.14,-1.74,1.56,1.56,1.55
100.25,3.48,1.96,3.48,1.96,-1.96,-2.11,-1.73,1.52,1.52,1.52
101.25,3.42,1.93,3.42,1.94,-1.93,-2.09,-1.72,1.48,1.49,1.49
102.27,3.36,1.91,3.36,1.91,-1.91,-2.06,-1.70,1.45,1.45,1.45
103.29,3.30,1.89,3.29,1.88,-1.88,-2.04,-1.69,1.42,1.42,1.41
104.32,3.23,1.84,3.23,1.85,-1.85,-2.01,-1.68,1.38,1.38,1.38
105.37,3.16,1.81,3.16,1.82,-1.82,-1.98,-1.68,1.34,1.35,1.35
106.42,3.11,1.79,3.10,1.78,-1.79,-1.96,-1.67,1.32,1.31,1.32
107.48,3.03,1.76,3.04,1.76,-1.76,-1.93,-1.66,1.27,1.27,1.27
108.56,2.97,1.73,2.97,1.73,-1.73,-1.91,-1.65,1.24,1.24,1.24
109.64,2.92,1.71,2.91,1.71,-1.70,-1.88,-1.64,1.22,1.21,1.21
110.74,2.85,1.68,2.85,1.68,-1.67,-1.86,-1.64,1.18,1.18,1.17
111.85,2.78,1.65,2.78,1.65,-1.64,-1.83,-1.63,1.13,1.14,1.13
112.97,2.71,1.61,2.71,1.61,-1.62,-1.81,-1.62,1.09,1.09,1.09
114.10,2.64,1.58,2.63,1.58,-1.59,-1.78,-1.62,1.05,1.04,1.06
115.24,2.56,1.55,2.56,1.55,-1.56,-1.75,-1.61,0.99,1.00,1.01
116.39,2.50,1.53,2.50,1.53,-1.54,-1.73,-1.60,0.96,0.96,0.97
117.55,2.44,1.51,2.44,1.51,-1.51,-1.70,-1.59,0.93,0.93,0.93
118.73,2.38,1.49,2.38,1.49,-1.48,-1.68,-1.58,0.90,0.90,0.88
119.92,2.32,1.47,2.31,1.46,-1.45,-1.66,-1.57,0.87,0.87,0.85
121.12,2.24,1.41,2.24,1.42,-1.41,-1.63,-1.56,0.83,0.83,0.83
122.33,2.16,1.38,2.16,1.38,-1.38,-1.61,-1.55,0.78,0.78,0.78
123.55,2.08,1.33,2.08,1.33,-1.34,-1.58,-1.54,0.74,0.74,0.75
124.79,2.01,1.29,2.01,1.29,-1.30,-1.56,-1.53,0.71,0.71,0.72
126.03,1.93,1.25,1.93,1.25,-1.26,-1.53,-1.51,0.67,0.67,0.68
127.29,1.85,1.21,1.85,1.21,-1.21,-1.51,-1.50,0.64,0.64,0.63
128.57,1.76,1.17,1.77,1.17,-1.17,-1.49,-1.48,0.59,0.60,0.59
129.85,1.70,1.14,1.68,1.13,-1.13,-1.47,-1.47,0.57,0.56,0.55
131.15,1.59,1.07,1.60,1.09,-1.08,-1.44,-1.45,0.51,0.52,0.51
132.46,1.53,1.05,1.52,1.05,-1.04,-1.42,-1.43,0.49,0.48,0.48
133.79,1.44,1.00,1.44,1.00,-0.99,-1.40,-1.41,0.45,0.44,0.44
135.12,1.36,0.96,1.36,0.95,-0.95,-1.38,-1.39,0.41,0.41,0.40
136.48,1.28,0.90,1.28,0.91,-0.91,-1.35,-1.37,0.37,0.37,0.38
137.84,1.21,0.87,1.21,0.87,-0.87,-1.33,-1.35,0.34,0.34,0.34
139.22,1.15,0.85,1.14,0.84,-0.85,-1.31,-1.33,0.30,0.29,0.30
140.61,1.09,0.81,1.09,0.82,-0.83,-1.29,-1.31,0.26,0.26,0.27
142.02,1.04,0.80,1.05,0.81,-0.83,-1.27,-1.29,0.21,0.23,0.24
143.44,1.04,0.83,1.04,0.82,-0.83,-1.25,-1.27,0.21,0.20,0.21
144.87,1.04,0.85,1.03,0.85,-0.85,-1.23,-1.24,0.19,0.18,0.19
146.32,1.04,0.88,1.03,0.88,-0.88,-1.21,-1.22,0.16,0.16,0.16
147.78,1.04,0.91,1.04,0.91,-0.91,-1.19,-1.20,0.13,0.13,0.13
149.26,1.04,0.94,1.05,0.95,-0.95,-1.18,-1.18,0.09,0.10,0.10
150.75,1.08,1.02,1.07,1.00,-0.99,-1.16,-1.16,0.09,0.08,0.06
152.26,1.08,1.03,1.08,1.04,-1.03,-1.14,-1.13,0.05,0.05,0.05
153.78,1.08,1.07,1.08,1.07,-1.07,-1.12,-1.11,0.01,0.02,0.01
155.32,1.08,1.09,1.08,1.10,-1.10,-1.10,-1.09,-0.02,-0.02,-0.01
156.88,1.08,1.13,1.08,1.13,-1.13,-1.09,-1.07,-0.05,-0.05,-0.05
158.44,1.08,1.16,1.07,1.15,-1.15,-1.07,-1.05,-0.07,-0.08,-0.08
160.03,1.05,1.16,1.06,1.17,-1.17,-1.05,-1.03,-0.12,-0.11,-0.11
161.63,1.04,1.18,1.03,1.18,-1.18,-1.04,-1.01,-0.14,-0.14,-0.15
163.24,1.00,1.19,1.00,1.19,-1.18,-1.02,-0.99,-0.18,-0.18,-0.19
164.88,0.97,1.19,0.96,1.18,-1.18,-1.00,-0.97,-0.21,-0.22,-0.22
166.53,0.92,1.17,0.92,1.17,-1.17,-0.99,-0.95,-0.25,-0.25,-0.26
168.19,0.87,1.15,0.88,1.16,-1.16,-0.97,-0.94,-0.29,-0.28,-0.28
169.87,0.83,1.15,0.82,1.14,-1.14,-0.96,-0.92,-0.31,-0.32,-0.32
171.57,0.77,1.13,0.76,1.12,-1.12,-0.95,-0.90,-0.35,-0.36,-0.36
173.29,0.70,1.09,0.71,1.10,-1.10,-0.93,-0.89,-0.40,-0.39,-0.39
175.02,0.64,1.07,0.64,1.07,-1.07,-0.92,-0.87,-0.44,-0.43,-0.43
176.77,0.59,1.05,0.58,1.04,-1.05,-0.90,-0.86,-0.46,-0.47,-0.46
178.54,0.52,1.02,0.52,1.02,-1.03,-0.89,-0.84,-0.51,-0.51,-0.50
180.32,0.46,1.00,0.46,1.00,-1.01,-0.88,-0.83,-0.55,-0.54,-0.54
182.13,0.41,0.98,0.41,0.98,-0.98,-0.86,-0.82,-0.58,-0.58,-0.57
183.95,0.36,0.96,0.36,0.97,-0.96,-0.85,-0.81,-0.61,-0.61,-0.61
185.79,0.31,0.96,0.31,0.95,-0.94,-0.84,-0.80,-0.64,-0.63,-0.65
187.65,0.26,0.94,0.25,0.93,-0.93,-0.83,-0.79,-0.67,-0.67,-0.68
189.52,0.20,0.92,0.20,0.91,-0.91,-0.81,-0.78,-0.71,-0.71,-0.72
191.42,0.13,0.87,0.13,0.88,-0.89,-0.80,-0.77,-0.76,-0.76,-0.75
193.33,0.08,0.86,0.08,0.86,-0.87,-0.79,-0.76,-0.80,-0.80,-0.78
195.27,0.03,0.85,0.03,0.85,-0.86,-0.78,-0.75,-0.83,-0.83,-0.82
197.22,-0.01,0.85,-0.02,0.84,-0.84,-0.77,-0.74,-0.85,-0.86,-0.86
199.19,-0.06,0.83,-0.06,0.83,-0.82,-0.76,-0.73,-0.88,-0.88,-0.89
201.18,-0.11,0.81,-0.11,0.81,-0.81,-0.75,-0.73,-0.92,-0.91,-0.92
203.19,-0.15,0.80,-0.16,0.79,-0.79,-0.74,-0.72,-0.94,-0.95,-0.95
205.23,-0.20,0.77,-0.20,0.77,-0.77,-0.73,-0.71,-0.97,-0.98,-0.97
207.28,-0.26,0.74,-0.25,0.75,-0.75,-0.72,-0.71,-1.01,-1.00,-1.00
209.35,-0.29,0.74,-0.30,0.73,-0.73,-0.71,-0.70,-1.02,-1.03,-1.03
211.44,-0.34,0.71,-0.34,0.71,-0.71,-0.70,-0.70,-1.06,-1.06,-1.06
213.56,-0.39,0.69,-0.39,0.69,-0.70,-0.69,-0.69,-1.09,-1.08,-1.08
215.69,-0.43,0.67,-0.43,0.68,-0.68,-0.68,-0.69,-1.11,-1.11,-1.10
217.85,-0.46,0.66,-0.47,0.66,-0.66,-0.67,-0.68,-1.12,-1.13,-1.12
220.03,-0.50,0.66,-0.51,0.65,-0.65,-0.66,-0.68,-1.15,-1.15,-1.16
222.23,-0.55,0.63,-0.54,0.63,-0.63,-0.65,-0.67,-1.18,-1.17,-1.18
224.45,-0.58,0.62,-0.58,0.62,-0.62,-0.64,-0.67,-1.20,-1.20,-1.20
226.70,-0.61,0.61,-0.62,0.60,-0.60,-0.63,-0.67,-1.21,-1.22,-1.22
228.96,-0.64,0.59,-0.65,0.59,-0.59,-0.62,-0.66,-1.23,-1.23,-1.23
231.25,-0.69,0.56,-0.68,0.57,-0.58,-0.62,-0.66,-1.27,-1.25,-1.25
233.57,-0.70,0.57,-0.71,0.56,-0.56,-0.61,-0.65,-1.26,-1.27,-1.27
235.90,-0.74,0.55,-0.74,0.55,-0.55,-0.60,-0.65,-1.29,-1.29,-1.29
238.26,-0.76,0.55,-0.76,0.54,-0.54,-0.59,-0.64,-1.30,-1.30,-1.31
240.64,-0.78,0.53,-0.78,0.53,-0.53,-0.58,-0.64,-1.31,-1.31,-1.31
243.05,-0.80,0.52,-0.80,0.53,-0.52,-0.58,-0.63,-1.32,-1.32,-1.32
245.48,-0.83,0.51,-0.83,0.51,-0.51,-0.57,-0.63,-1.34,-1.34,-1.34
247.93,-0.84,0.52,-0.85,0.50,-0.50,-0.56,-0.62,-1.35,-1.36,-1.36
250.41,-0.88,0.48,-0.87,0.49,-0.50,-0.56,-0.62,-1.38,-1.37,-1.36
252.92,-0.88,0.48,-0.88,0.49,-0.50,-0.55,-0.61,-1.38,-1.38,-1.37
255.45,-0.88,0.50,-0.89,0.49,-0.50,-0.54,-0.61,-1.38,-1.39,-1.38
258.00,-0.88,0.51,-0.88,0.51,-0.51,-0.53,-0.60,-1.39,-1.39,-1.39
260.58,-0.88,0.51,-0.88,0.51,-0.51,-0.53,-0.59,-1.39,-1.39,-1.40
263.19,-0.88,0.52,-0.88,0.52,-0.51,-0.52,-0.59,-1.39,-1.39,-1.40
265.82,-0.88,0.53,-0.88,0.53,-0.51,-0.51,-0.58,-1.40,-1.40,-1.41
268.48,-0.88,0.53,-0.89,0.52,-0.52,-0.51,-0.57,-1.40,-1.41,-1.41
271.16,-0.91,0.51,-0.90,0.51,-0.52,-0.50,-0.57,-1.43,-1.42,-1.42
273.87,-0.92,0.50,-0.92,0.51,-0.52,-0.50,-0.56,-1.44,-1.43,-1.42
276.61,-0.92,0.51,-0.92,0.51,-0.51,-0.49,-0.55,-1.44,-1.44,-1.43
279.38,-0.92,0.52,-0.92,0.51,-0.51,-0.48,-0.54,-1.44,-1.44,-1.44
282.17,-0.92,0.52,-0.92,0.51,-0.52,-0.48,-0.53,-1.44,-1.44,-1.44
284.99,-0.92,0.51,-0.92,0.51,-0.52,-0.47,-0.53,-1.44,-1.44,-1.43
287.84,-0.92,0.51,-0.92,0.51,-0.51,-0.47,-0.52,-1.44,-1.44,-1.43
290.72,-0.92,0.52,-0.92,0.51,-0.51,-0.46,-0.51,-1.43,-1.43,-1.44
293.63,-0.92,0.51,-0.92,0.52,-0.51,-0.46,-0.50,-1.43,-1.42,-1.44
296.57,-0.92,0.51,-0.92,0.51,-0.50,-0.45,-0.49,-1.42,-1.42,-1.43
299.53,-0.92,0.51,-0.94,0.49,-0.49,-0.45,-0.49,-1.41,-1.43,-1.43
302.53,-0.97,0.46,-0.95,0.47,-0.48,-0.44,-0.48,-1.45,-1.43,-1.43
305.55,-0.97,0.46,-0.97,0.46,-0.47,-0.44,-0.47,-1.44,-1.43,-1.43
308.61,-0.97,0.45,-0.97,0.45,-0.45,-0.43,-0.46,-1.42,-1.42,-1.42
311.69,-0.97,0.45,-0.98,0.44,-0.43,-0.43,-0.46,-1.41,-1.41,-1.43
314.81,-0.99,0.43,-0.99,0.43,-0.42,-0.42,-0.45,-1.41,-1.42,-1.42
317.96,-1.02,0.40,-1.01,0.41,-0.41,-0.42,-0.44,-1.43,-1.42,-1.42
321.14,-1.02,0.39,-1.02,0.39,-0.41,-0.41,-0.44,-1.43,-1.43,-1.42
324.35,-1.02,0.40,-1.02,0.39,-0.41,-0.41,-0.43,-1.43,-1.43,-1.42
327.59,-1.02,0.38,-1.01,0.40,-0.41,-0.40,-0.43,-1.43,-1.42,-1.40
330.87,-0.99,0.41,-0.99,0.41,-0.41,-0.40,-0.42,-1.40,-1.40,-1.40
334.18,-0.97,0.43,-0.98,0.42,-0.41,-0.40,-0.41,-1.38,-1.39,-1.41
337.52,-0.97,0.43,-0.97,0.43,-0.41,-0.39,-0.41,-1.38,-1.38,-1.40
340.90,-0.97,0.42,-0.97,0.42,-0.41,-0.39,-0.40,-1.38,-1.38,-1.39
344.30,-0.97,0.41,-0.97,0.41,-0.41,-0.39,-0.40,-1.38,-1.38,-1.38
347.75,-0.97,0.40,-0.97,0.40,-0.41,-0.38,-0.40,-1.38,-1.38,-1.37
351.23,-0.97,0.40,-0.97,0.40,-0.40,-0.38,-0.39,-1.37,-1.37,-1.38
354.74,-0.97,0.39,-0.97,0.39,-0.39,-0.38,-0.39,-1.36,-1.36,-1.36
358.28,-0.97,0.39,-0.97,0.39,-0.39,-0.37,-0.39,-1.36,-1.36,-1.36
361.87,-0.97,0.38,-0.97,0.38,-0.38,-0.37,-0.38,-1.36,-1.36,-1.35
365.49,-0.97,0.37,-0.97,0.37,-0.38,-0.37,-0.38,-1.35,-1.35,-1.34
369.14,-0.97,0.36,-0.96,0.38,-0.38,-0.37,-0.38,-1.35,-1.34,-1.34
372.83,-0.94,0.39,-0.94,0.39,-0.38,-0.36,-0.37,-1.32,-1.33,-1.33
376.56,-0.92,0.41,-0.93,0.40,-0.38,-0.36,-0.37,-1.31,-1.31,-1.33
380.33,-0.92,0.40,-0.92,0.40,-0.39,-0.36,-0.37,-1.31,-1.31,-1.32
384.13,-0.92,0.39,-0.92,0.39,-0.39,-0.36,-0.37,-1.31,-1.31,-1.31
387.97,-0.92,0.38,-0.92,0.38,-0.39,-0.36,-0.37,-1.32,-1.31,-1.30
391.85,-0.92,0.37,-0.91,0.39,-0.39,-0.36,-0.37,-1.31,-1.30,-1.29
395.77,-0.88,0.41,-0.89,0.40,-0.39,-0.35,-0.37,-1.27,-1.29,-1.29
399.73,-0.88,0.40,-0.88,0.40,-0.39,-0.35,-0.36,-1.27,-1.27,-1.29
403.72,-0.88,0.39,-0.88,0.40,-0.39,-0.35,-0.36,-1.27,-1.26,-1.27
407.76,-0.88,0.39,-0.88,0.38,-0.39,-0.35,-0.36,-1.27,-1.27,-1.27
411.84,-0.88,0.38,-0.88,0.37,-0.39,-0.35,-0.36,-1.27,-1.27,-1.26
415.96,-0.88,0.37,-0.88,0.38,-0.39,-0.35,-0.36,-1.27,-1.26,-1.25
420.12,-0.87,0.38,-0.86,0.39,-0.38,-0.35,-0.36,-1.26,-1.25,-1.25
424.32,-0.83,0.41,-0.85,0.39,-0.39,-0.35,-0.36,-1.22,-1.23,-1.24
428.56,-0.83,0.39,-0.84,0.39,-0.39,-0.35,-0.36,-1.22,-1.23,-1.22
432.85,-0.83,0.38,-0.83,0.39,-0.39,-0.35,-0.36,-1.23,-1.22,-1.21
437.18,-0.83,0.38,-0.81,0.40,-0.40,-0.35,-0.36,-1.23,-1.22,-1.21
441.55,-0.78,0.42,-0.80,0.40,-0.41,-0.36,-0.36,-1.19,-1.21,-1.21
445.96,-0.78,0.41,-0.78,0.41,-0.41,-0.36,-0.36,-1.19,-1.20,-1.20
450.42,-0.78,0.41,-0.77,0.42,-0.41,-0.36,-0.36,-1.19,-1.18,-1.19
454.93,-0.76,0.42,-0.76,0.42,-0.41,-0.36,-0.36,-1.17,-1.17,-1.18
459.48,-0.74,0.43,-0.75,0.42,-0.41,-0.36,-0.36,-1.15,-1.16,-1.17
464.07,-0.74,0.41,-0.74,0.41,-0.40,-0.36,-0.36,-1.15,-1.15,-1.15
468.71,-0.74,0.40,-0.74,0.40,-0.40,-0.36,-0.36,-1.14,-1.14,-1.14
473.40,-0.74,0.39,-0.74,0.39,-0.39,-0.37,-0.35,-1.13,-1.13,-1.13
478.13,-0.74,0.38,-0.74,0.38,-0.38,-0.37,-0.35,-1.12,-1.12,-1.12
482.91,-0.74,0.37,-0.75,0.36,-0.38,-0.37,-0.35,-1.12,-1.12,-1.11
487.74,-0.74,0.36,-0.74,0.36,-0.37,-0.37,-0.35,-1.11,-1.11,-1.10
492.62,-0.74,0.35,-0.72,0.37,-0.37,-0.37,-0.34,-1.11,-1.10,-1.09
497.55,-0.69,0.39,-0.71,0.37,-0.37,-0.37,-0.34,-1.07,-1.09,-1.08
