frequency,raw,error,smoothed,error_smoothed,equalization,parametric_eq,fixed_band_eq,equalized_raw,equalized_smoothed,target
20.00,8.49,3.51,8.47,3.50,-3.47,-4.60,-2.26,5.01,4.99,4.97
20.20,8.68,3.71,8.69,3.73,-3.73,-4.62,-2.32,4.95,4.96,4.96
20.40,8.87,3.92,8.89,3.94,-3.96,-4.63,-2.39,4.91,4.93,4.95
20.61,9.06,4.11,9.08,4.13,-4.15,-4.64,-2.46,4.91,4.92,4.95
20.81,9.26,4.33,9.26,4.32,-4.32,-4.66,-2.52,4.94,4.94,4.93
21.02,9.44,4.51,9.40,4.47,-4.46,-4.67,-2.60,4.98,4.94,4.93
21.23,9.49,4.57,9.50,4.57,-4.57,-4.69,-2.67,4.92,4.93,4.92
21.44,9.55,4.62,9.56,4.64,-4.64,-4.70,-2.74,4.91,4.92,4.93
21.66,9.60,4.68,9.61,4.69,-4.68,-4.72,-2.82,4.92,4.93,4.92
21.87,9.66,4.75,9.64,4.73,-4.68,-4.73,-2.90,4.98,4.96,4.91
22.09,9.65,4.75,9.62,4.72,-4.65,-4.75,-2.98,5.00,4.97,4.90
22.31,9.54,4.64,9.55,4.66,-4.60,-4.77,-3.07,4.93,4.95,4.90
22.54,9.44,4.55,9.43,4.54,-4.56,-4.78,-3.15,4.88,4.87,4.89
22.76,9.33,4.44,9.32,4.44,-4.52,-4.80,-3.24,4.81,4.80,4.89
22.99,9.22,4.34,9.27,4.39,-4.49,-4.82,-3.33,4.72,4.77,4.88
23.22,9.28,4.41,9.27,4.39,-4.47,-4.83,-3.42,4.81,4.79,4.87
23.45,9.33,4.45,9.32,4.45,-4.46,-4.85,-3.52,4.87,4.86,4.88
23.69,9.39,4.52,9.39,4.52,-4.46,-4.87,-3.61,4.93,4.93,4.87
23.92,9.45,4.58,9.44,4.57,-4.48,-4.89,-3.71,4.97,4.96,4.87
24.16,9.47,4.59,9.46,4.59,-4.51,-4.90,-3.81,4.96,4.95,4.87
24.40,9.47,4.58,9.46,4.58,-4.57,-4.92,-3.91,4.90,4.89,4.88
24.65,9.46,4.57,9.45,4.57,-4.63,-4.94,-4.02,4.82,4.82,4.88
24.89,9.46,4.58,9.49,4.61,-4.72,-4.96,-4.12,4.74,4.77,4.88
25.14,9.57,4.69,9.59,4.71,-4.81,-4.98,-4.23,4.76,4.78,4.88
25.39,9.76,4.88,9.75,4.87,-4.92,-5.00,-4.33,4.85,4.84,4.88
25.65,9.94,5.06,9.94,5.06,-5.03,-5.02,-4.44,4.90,4.91,4.88
25.91,10.12,5.24,10.10,5.21,-5.15,-5.04,-4.55,4.98,4.95,4.89
26.16,10.22,5.32,10.20,5.31,-5.24,-5.06,-4.66,4.98,4.96,4.90
26.43,10.24,5.34,10.27,5.37,-5.29,-5.08,-4.77,4.95,4.98,4.90
26.69,10.27,5.37,10.28,5.38,-5.30,-5.10,-4.87,4.97,4.98,4.90
26.96,10.30,5.40,10.26,5.37,-5.29,-5.12,-4.98,5.01,4.97,4.90
27.23,10.20,5.30,10.20,5.30,-5.27,-5.14,-5.08,4.93,4.93,4.89
27.50,10.09,5.20,10.07,5.18,-5.26,-5.16,-5.19,4.83,4.82,4.89
27.77,9.97,5.07,9.98,5.08,-5.26,-5.19,-5.29,4.71,4.72,4.90
28.05,9.91,5.01,9.97,5.08,-5.26,-5.21,-5.39,4.65,4.71,4.90
28.33,10.08,5.19,10.08,5.19,-5.26,-5.23,-5.48,4.82,4.82,4.89
28.62,10.25,5.37,10.25,5.36,-5.26,-5.26,-5.57,5.00,5.00,4.89
28.90,10.43,5.53,10.37,5.48,-5.25,-5.28,-5.66,5.18,5.12,4.90
29.19,10.38,5.48,10.35,5.46,-5.26,-5.30,-5.74,5.12,5.09,4.90
29.48,10.22,5.32,10.22,5.32,-5.27,-5.33,-5.82,4.95,4.95,4.89
29.78,10.05,5.16,10.07,5.18,-5.29,-5.35,-5.89,4.76,4.78,4.89
30.08,9.96,5.06,10.02,5.12,-5.32,-5.37,-5.96,4.64,4.70,4.90
30.38,10.09,5.20,10.07,5.18,-5.35,-5.40,-6.02,4.73,4.72,4.89
30.68,10.22,5.34,10.20,5.32,-5.40,-5.42,-6.07,4.82,4.80,4.88
30.99,10.35,5.47,10.34,5.47,-5.45,-5.45,-6.12,4.90,4.89,4.88
31.30,10.46,5.59,10.48,5.61,-5.50,-5.48,-6.15,4.95,4.98,4.86
31.61,10.57,5.71,10.58,5.72,-5.55,-5.50,-6.19,5.02,5.03,4.86
31.93,10.67,5.82,10.61,5.76,-5.59,-5.53,-6.21,5.08,5.03,4.85
32.24,10.57,5.72,10.54,5.69,-5.61,-5.55,-6.24,4.96,4.93,4.85
32.57,10.40,5.56,10.40,5.56,-5.62,-5.58,-6.25,4.78,4.78,4.84
32.89,10.23,5.40,10.29,5.46,-5.64,-5.61,-6.26,4.59,4.66,4.83
33.22,10.28,5.45,10.31,5.47,-5.66,-5.64,-6.26,4.62,4.64,4.83
33.55,10.44,5.61,10.42,5.59,-5.69,-5.66,-6.26,4.75,4.73,4.83
33.89,10.61,5.77,10.58,5.75,-5.73,-5.69,-6.25,4.87,4.85,4.84
34.23,10.72,5.89,10.72,5.90,-5.79,-5.72,-6.24,4.93,4.94,4.82
34.57,10.80,5.98,10.81,5.99,-5.85,-5.75,-6.23,4.95,4.96,4.82
34.92,10.88,6.06,10.85,6.03,-5.92,-5.78,-6.21,4.96,4.93,4.82
35.27,10.84,6.01,10.82,6.00,-5.98,-5.81,-6.19,4.86,4.84,4.82
35.62,10.77,5.96,10.77,5.96,-6.04,-5.84,-6.17,4.73,4.73,4.81
35.97,10.70,5.89,10.75,5.94,-6.08,-5.87,-6.15,4.62,4.67,4.81
36.33,10.79,5.99,10.80,6.00,-6.10,-5.90,-6.13,4.69,4.70,4.79
36.70,10.91,6.13,10.89,6.11,-6.10,-5.93,-6.10,4.81,4.79,4.78
37.06,11.00,6.23,10.98,6.21,-6.09,-5.96,-6.08,4.90,4.89,4.77
37.43,11.00,6.25,11.02,6.27,-6.10,-5.99,-6.06,4.90,4.92,4.74
37.81,11.00,6.27,10.99,6.26,-6.14,-6.02,-6.04,4.86,4.85,4.73
38.19,10.91,6.20,10.84,6.14,-6.20,-6.05,-6.02,4.71,4.64,4.71
38.57,10.74,6.06,10.72,6.04,-6.28,-6.08,-6.00,4.46,4.44,4.68
38.95,10.56,5.91,10.72,6.07,-6.34,-6.12,-5.99,4.22,4.38,4.66
39.34,10.86,6.24,10.90,6.27,-6.37,-6.15,-5.98,4.49,4.53,4.62
39.74,11.23,6.62,11.14,6.54,-6.39,-6.18,-5.97,4.83,4.75,4.61
40.14,11.41,6.82,11.30,6.72,-6.40,-6.21,-5.96,5.00,4.90,4.58
40.54,11.22,6.66,11.25,6.69,-6.42,-6.25,-5.96,4.80,4.83,4.56
40.94,11.03,6.50,11.05,6.52,-6.46,-6.28,-5.96,4.57,4.59,4.53
41.35,10.85,6.33,10.82,6.31,-6.49,-6.31,-5.97,4.36,4.33,4.52
41.76,10.68,6.20,10.72,6.23,-6.50,-6.35,-5.97,4.18,4.21,4.48
42.18,10.68,6.22,10.75,6.29,-6.49,-6.38,-5.99,4.19,4.27,4.46
42.60,10.90,6.45,10.88,6.43,-6.46,-6.42,-6.00,4.44,4.41,4.45
43.03,11.10,6.68,11.03,6.61,-6.46,-6.45,-6.03,4.64,4.58,4.42
43.46,11.10,6.70,11.12,6.72,-6.49,-6.49,-6.05,4.61,4.63,4.39
43.90,11.10,6.72,11.06,6.69,-6.55,-6.52,-6.08,4.55,4.51,4.38
44.33,10.97,6.62,10.93,6.58,-6.63,-6.56,-6.12,4.34,4.30,4.35
44.78,10.79,6.47,10.85,6.52,-6.70,-6.59,-6.16,4.09,4.16,4.32
45.23,10.81,6.49,10.88,6.57,-6.76,-6.63,-6.20,4.05,4.12,4.31
45.68,11.04,6.76,11.00,6.72,-6.82,-6.66,-6.25,4.22,4.18,4.28
46.13,11.21,6.97,11.17,6.92,-6.88,-6.70,-6.30,4.33,4.29,4.24
46.60,11.27,7.06,11.27,7.06,-6.94,-6.74,-6.36,4.32,4.33,4.21
47.06,11.30,7.12,11.29,7.11,-7.00,-6.77,-6.42,4.30,4.29,4.18
47.53,11.26,7.11,11.26,7.12,-7.04,-6.81,-6.49,4.21,4.22,4.15
48.01,11.22,7.12,11.23,7.13,-7.06,-6.85,-6.56,4.16,4.17,4.10
48.49,11.16,7.10,11.16,7.10,-7.06,-6.88,-6.64,4.10,4.10,4.06
48.97,11.10,7.08,11.03,7.01,-7.05,-6.92,-6.71,4.04,3.98,4.02
49.46,10.93,6.94,10.91,6.93,-7.06,-6.96,-6.80,3.87,3.85,3.99
49.96,10.76,6.83,10.89,6.95,-7.09,-6.99,-6.88,3.66,3.79,3.93
50.46,10.95,7.05,10.95,7.06,-7.15,-7.03,-6.97,3.79,3.80,3.90
50.96,11.18,7.31,11.07,7.21,-7.23,-7.07,-7.06,3.95,3.84,3.86
51.47,11.20,7.37,11.19,7.37,-7.31,-7.10,-7.15,3.89,3.88,3.83
51.99,11.20,7.41,11.28,7.49,-7.39,-7.14,-7.25,3.81,3.89,3.79
52.51,11.32,7.56,11.32,7.56,-7.46,-7.18,-7.34,3.85,3.86,3.75
53.03,11.43,7.70,11.32,7.60,-7.52,-7.22,-7.44,3.90,3.80,3.73
53.56,11.25,7.56,11.26,7.58,-7.56,-7.25,-7.54,3.69,3.71,3.68
54.10,11.10,7.46,11.17,7.52,-7.56,-7.29,-7.64,3.54,3.60,3.64
54.64,11.10,7.49,11.09,7.49,-7.56,-7.33,-7.73,3.54,3.53,3.60
55.18,11.10,7.54,11.08,7.52,-7.56,-7.37,-7.83,3.53,3.52,3.56
55.74,11.10,7.58,11.10,7.57,-7.58,-7.40,-7.92,3.51,3.51,3.52
56.29,11.10,7.60,11.10,7.61,-7.62,-7.44,-8.01,3.48,3.48,3.49
56.86,11.10,7.63,11.08,7.62,-7.66,-7.48,-8.10,3.43,3.42,3.47
57.42,11.10,7.68,11.10,7.67,-7.71,-7.51,-8.19,3.39,3.39,3.42
58.00,11.10,7.70,11.19,7.79,-7.74,-7.55,-8.26,3.36,3.44,3.40
58.58,11.29,7.91,11.24,7.87,-7.77,-7.59,-8.34,3.52,3.47,3.38
59.16,11.35,8.00,11.23,7.88,-7.79,-7.62,-8.40,3.56,3.44,3.35
59.76,11.10,7.78,11.16,7.85,-7.81,-7.66,-8.46,3.29,3.35,3.32
60.35,11.00,7.73,11.05,7.78,-7.85,-7.70,-8.52,3.15,3.20,3.27
60.96,11.00,7.77,10.97,7.75,-7.88,-7.73,-8.56,3.11,3.09,3.22
61.57,11.00,7.83,10.99,7.82,-7.91,-7.77,-8.60,3.08,3.08,3.17
62.18,11.02,7.90,11.03,7.92,-7.93,-7.80,-8.63,3.08,3.10,3.12
62.80,11.09,8.02,11.10,8.03,-7.95,-7.84,-8.65,3.13,3.14,3.06
63.43,11.14,8.12,11.13,8.10,-7.98,-7.88,-8.66,3.15,3.14,3.02
64.07,11.16,8.17,11.09,8.11,-8.03,-7.91,-8.66,3.13,3.07,2.98
64.71,10.98,8.04,11.01,8.08,-8.07,-7.95,-8.66,2.90,2.94,2.94
65.35,10.90,8.00,10.93,8.03,-8.12,-7.98,-8.65,2.78,2.81,2.90
66.01,10.90,8.05,10.88,8.02,-8.15,-8.01,-8.63,2.75,2.73,2.85
66.67,10.90,8.08,10.92,8.11,-8.17,-8.05,-8.60,2.73,2.75,2.82
67.33,10.96,8.20,10.99,8.22,-8.18,-8.08,-8.57,2.78,2.80,2.76
68.01,11.09,8.37,11.02,8.30,-8.20,-8.11,-8.53,2.89,2.82,2.72
68.69,11.02,8.35,11.00,8.33,-8.22,-8.15,-8.49,2.79,2.78,2.67
69.37,10.92,8.28,10.93,8.29,-8.26,-8.18,-8.45,2.66,2.67,2.64
70.07,10.80,8.21,10.84,8.25,-8.30,-8.21,-8.40,2.50,2.54,2.59
70.77,10.80,8.26,10.79,8.25,-8.34,-8.24,-8.35,2.46,2.45,2.54
71.48,10.80,8.30,10.77,8.28,-8.37,-8.27,-8.29,2.43,2.40,2.50
72.19,10.80,8.36,10.80,8.36,-8.39,-8.30,-8.24,2.40,2.41,2.44
72.91,10.80,8.40,10.85,8.46,-8.42,-8.33,-8.19,2.38,2.43,2.39
73.64,10.93,8.58,10.90,8.55,-8.46,-8.36,-8.13,2.46,2.44,2.35
74.38,10.95,8.64,10.90,8.59,-8.52,-8.39,-8.08,2.43,2.38,2.31
75.12,10.86,8.60,10.84,8.58,-8.57,-8.42,-8.03,2.29,2.27,2.26
75.87,10.72,8.49,10.76,8.53,-8.61,-8.45,-7.98,2.11,2.15,2.23
76.63,10.70,8.51,10.74,8.55,-8.63,-8.48,-7.93,2.07,2.12,2.19
77.40,10.78,8.62,10.78,8.62,-8.63,-8.50,-7.89,2.15,2.16,2.16
78.17,10.88,8.76,10.81,8.68,-8.61,-8.53,-7.85,2.26,2.19,2.12
78.95,10.79,8.69,10.78,8.69,-8.60,-8.55,-7.81,2.19,2.18,2.09
79.74,10.65,8.59,10.70,8.64,-8.60,-8.58,-7.78,2.05,2.10,2.06
80.54,10.60,8.57,10.58,8.55,-8.59,-8.60,-7.75,2.01,1.98,2.02
81.35,10.53,8.54,10.49,8.50,-8.59,-8.63,-7.73,1.94,1.91,1.99
82.16,10.41,8.45,10.49,8.53,-8.58,-8.65,-7.71,1.83,1.91,1.96
82.98,10.49,8.56,10.50,8.57,-8.58,-8.67,-7.70,1.90,1.92,1.92
83.81,10.60,8.71,10.50,8.61,-8.60,-8.70,-7.69,1.99,1.90,1.89
84.65,10.48,8.63,10.49,8.64,-8.63,-8.72,-7.68,1.84,1.85,1.85
85.50,10.40,8.60,10.44,8.64,-8.66,-8.74,-7.69,1.74,1.78,1.80
86.35,10.42,8.65,10.46,8.69,-8.68,-8.76,-7.69,1.73,1.77,1.77
87.22,10.49,8.75,10.48,8.75,-8.70,-8.78,-7.71,1.79,1.78,1.74
88.09,10.59,8.89,10.48,8.78,-8.70,-8.80,-7.73,1.89,1.78,1.70
88.97,10.34,8.68,10.41,8.75,-8.70,-8.82,-7.75,1.64,1.70,1.66
89.86,10.30,8.69,10.27,8.66,-8.70,-8.83,-7.78,1.60,1.57,1.61
90.76,10.16,8.58,10.18,8.61,-8.69,-8.85,-7.82,1.46,1.49,1.58
91.66,10.13,8.61,10.20,8.67,-8.70,-8.87,-7.86,1.42,1.50,1.52
92.58,10.28,8.79,10.20,8.71,-8.72,-8.88,-7.91,1.55,1.47,1.49
93.51,10.24,8.79,10.19,8.75,-8.75,-8.90,-7.96,1.49,1.44,1.44
94.44,10.10,8.70,10.15,8.76,-8.77,-8.91,-8.02,1.32,1.38,1.40
95.39,10.10,8.76,10.13,8.79,-8.80,-8.93,-8.08,1.29,1.32,1.34
96.34,10.15,8.86,10.17,8.88,-8.84,-8.94,-8.15,1.31,1.33,1.29
97.30,10.24,9.01,10.18,8.96,-8.86,-8.95,-8.22,1.38,1.32,1.23
98.28,10.17,9.00,10.10,8.93,-8.88,-8.97,-8.30,1.29,1.22,1.17
99.26,9.92,8.81,9.95,8.84,-8.89,-8.98,-8.38,1.03,1.06,1.11
100.25,9.77,8.72,9.87,8.81,-8.90,-8.99,-8.47,0.87,0.97,1.05
101.25,9.83,8.83,9.84,8.85,-8.90,-9.00,-8.56,0.93,0.94,1.00
102.27,9.98,9.03,9.85,8.91,-8.89,-9.01,-8.66,1.09,0.96,0.94
103.29,9.81,8.92,9.83,8.94,-8.87,-9.02,-8.75,0.94,0.96,0.89
104.32,9.69,8.85,9.74,8.91,-8.85,-9.03,-8.85,0.83,0.89,0.84
105.37,9.66,8.88,9.63,8.86,-8.86,-9.03,-8.95,0.80,0.77,0.78
106.42,9.58,8.86,9.56,8.84,-8.88,-9.04,-9.06,0.70,0.69,0.72
107.48,9.49,8.83,9.48,8.82,-8.88,-9.05,-9.16,0.61,0.60,0.65
108.56,9.41,8.79,9.41,8.80,-8.87,-9.06,-9.26,0.54,0.54,0.62
109.64,9.37,8.81,9.42,8.86,-8.86,-9.06,-9.36,0.51,0.56,0.56
110.74,9.43,8.93,9.43,8.92,-8.85,-9.07,-9.46,0.57,0.58,0.50
111.85,9.50,9.04,9.41,8.95,-8.86,-9.07,-9.56,0.64,0.55,0.45
112.97,9.29,8.88,9.29,8.88,-8.87,-9.07,-9.65,0.42,0.42,0.41
114.10,9.15,8.79,9.17,8.81,-8.87,-9.08,-9.75,0.28,0.30,0.36
115.24,8.98,8.67,9.09,8.79,-8.86,-9.08,-9.83,0.12,0.23,0.30
116.39,9.16,8.91,9.08,8.83,-8.84,-9.08,-9.90,0.31,0.24,0.25
117.55,9.13,8.91,9.07,8.87,-8.83,-9.09,-9.97,0.30,0.24,0.21
118.73,9.01,8.85,9.04,8.88,-8.82,-9.09,-10.03,0.18,0.22,0.16
119.92,8.94,8.81,8.95,8.82,-8.83,-9.09,-10.08,0.11,0.12,0.12
121.12,8.90,8.80,8.89,8.80,-8.84,-9.09,-10.13,0.06,0.05,0.10
122.33,8.86,8.80,8.85,8.79,-8.85,-9.09,-10.15,0.01,0.00,0.06
123.55,8.85,8.83,8.88,8.86,-8.86,-9.09,-10.17,-0.01,0.02,0.02
124.79,8.86,8.87,8.89,8.91,-8.86,-9.09,-10.18,-0.00,0.03,-0.01
126.03,8.98,9.03,8.82,8.87,-8.86,-9.08,-10.18,0.12,-0.04,-0.05
127.29,8.72,8.81,8.76,8.85,-8.86,-9.08,-10.16,-0.14,-0.10,-0.09
128.57,8.58,8.71,8.75,8.88,-8.85,-9.08,-10.13,-0.28,-0.11,-0.13
129.85,8.78,8.95,8.70,8.87,-8.85,-9.07,-10.09,-0.08,-0.16,-0.17
131.15,8.81,9.02,8.64,8.85,-8.85,-9.07,-10.05,-0.04,-0.21,-0.21
132.46,8.48,8.73,8.57,8.82,-8.84,-9.07,-9.99,-0.36,-0.27,-0.25
133.79,8.35,8.64,8.48,8.77,-8.82,-9.06,-9.92,-0.48,-0.34,-0.29
135.12,8.53,8.85,8.46,8.78,-8.82,-9.05,-9.84,-0.29,-0.36,-0.32
136.48,8.58,8.93,8.50,8.85,-8.82,-9.05,-9.76,-0.24,-0.32,-0.35
137.84,8.45,8.83,8.48,8.87,-8.81,-9.04,-9.67,-0.37,-0.33,-0.39
139.22,8.36,8.80,8.37,8.80,-8.80,-9.03,-9.58,-0.45,-0.43,-0.44
140.61,8.31,8.77,8.29,8.76,-8.79,-9.02,-9.48,-0.48,-0.50,-0.46
142.02,8.24,8.74,8.30,8.80,-8.78,-9.02,-9.39,-0.55,-0.49,-0.51
143.44,8.28,8.83,8.26,8.81,-8.77,-9.00,-9.28,-0.49,-0.51,-0.55
144.87,8.30,8.88,8.18,8.75,-8.75,-8.99,-9.18,-0.46,-0.58,-0.58
146.32,8.02,8.63,8.08,8.69,-8.73,-8.98,-9.07,-0.71,-0.65,-0.61
147.78,7.93,8.58,8.03,8.68,-8.71,-8.97,-8.97,-0.78,-0.69,-0.65
149.26,8.03,8.71,8.02,8.71,-8.71,-8.96,-8.87,-0.68,-0.69,-0.69
150.75,8.13,8.86,8.01,8.73,-8.71,-8.95,-8.77,-0.58,-0.70,-0.73
152.26,7.97,8.73,7.94,8.70,-8.70,-8.93,-8.67,-0.73,-0.76,-0.76
153.78,7.72,8.51,7.88,8.67,-8.69,-8.92,-8.57,-0.97,-0.81,-0.80
155.32,7.83,8.66,7.83,8.66,-8.68,-8.90,-8.48,-0.86,-0.85,-0.83
156.88,7.94,8.81,7.82,8.69,-8.67,-8.89,-8.39,-0.74,-0.86,-0.88
158.44,7.78,8.70,7.79,8.71,-8.65,-8.87,-8.30,-0.88,-0.86,-0.92
160.03,7.64,8.60,7.69,8.65,-8.63,-8.85,-8.22,-0.99,-0.94,-0.96
161.63,7.58,8.58,7.57,8.58,-8.60,-8.83,-8.15,-1.03,-1.03,-1.00
163.24,7.53,8.58,7.51,8.56,-8.58,-8.81,-8.07,-1.06,-1.07,-1.05
164.88,7.45,8.54,7.45,8.55,-8.56,-8.79,-8.01,-1.11,-1.11,-1.09
166.53,7.39,8.53,7.39,8.53,-8.54,-8.77,-7.95,-1.15,-1.15,-1.14
168.19,7.32,8.50,7.33,8.51,-8.51,-8.75,-7.89,-1.20,-1.19,-1.18
169.87,7.28,8.51,7.28,8.51,-8.49,-8.73,-7.84,-1.21,-1.21,-1.23
171.57,7.23,8.50,7.22,8.49,-8.48,-8.71,-7.80,-1.25,-1.26,-1.28
173.29,7.17,8.49,7.16,8.48,-8.47,-8.68,-7.76,-1.30,-1.30,-1.32
175.02,7.09,8.44,7.10,8.46,-8.46,-8.66,-7.73,-1.37,-1.36,-1.36
176.77,7.04,8.44,7.03,8.43,-8.46,-8.63,-7.70,-1.42,-1.43,-1.40
178.54,6.98,8.42,6.96,8.40,-8.45,-8.60,-7.68,-1.47,-1.49,-1.45
180.32,6.90,8.39,6.94,8.42,-8.44,-8.58,-7.66,-1.54,-1.50,-1.49
182.13,6.90,8.42,6.95,8.47,-8.43,-8.55,-7.65,-1.53,-1.48,-1.52
183.95,6.99,8.54,6.90,8.45,-8.42,-8.52,-7.64,-1.43,-1.52,-1.55
185.79,6.90,8.49,6.84,8.43,-8.40,-8.49,-7.64,-1.50,-1.56,-1.59
187.65,6.63,8.25,6.77,8.40,-8.38,-8.46,-7.65,-1.76,-1.61,-1.62
189.52,6.72,8.38,6.66,8.32,-8.36,-8.43,-7.66,-1.64,-1.70,-1.66
191.42,6.67,8.35,6.63,8.31,-8.34,-8.40,-7.67,-1.67,-1.71,-1.68
193.33,6.54,8.26,6.62,8.34,-8.32,-8.36,-7.70,-1.78,-1.70,-1.72
195.27,6.60,8.36,6.52,8.28,-8.30,-8.33,-7.72,-1.70,-1.77,-1.76
197.22,6.48,8.27,6.45,8.25,-8.28,-8.30,-7.75,-1.81,-1.83,-1.80
199.19,6.33,8.15,6.43,8.26,-8.27,-8.26,-7.78,-1.94,-1.84,-1.82
201.18,6.42,8.28,6.40,8.26,-8.26,-8.22,-7.82,-1.84,-1.86,-1.86
203.19,6.46,8.34,6.39,8.27,-8.24,-8.19,-7.86,-1.79,-1.86,-1.89
205.23,6.34,8.25,6.36,8.27,-8.22,-8.15,-7.91,-1.88,-1.86,-1.91
207.28,6.25,8.18,6.27,8.21,-8.19,-8.11,-7.95,-1.94,-1.92,-1.94
209.35,6.19,8.16,6.18,8.15,-8.17,-8.07,-8.00,-1.98,-1.99,-1.97
211.44,6.11,8.11,6.11,8.11,-8.13,-8.04,-8.05,-2.03,-2.02,-2.00
213.56,6.05,8.07,6.05,8.08,-8.09,-8.00,-8.10,-2.05,-2.05,-2.03
215.69,5.99,8.05,5.98,8.04,-8.05,-7.95,-8.15,-2.06,-2.07,-2.06
217.85,5.91,7.99,5.92,8.01,-8.00,-7.91,-8.20,-2.09,-2.08,-2.08
220.03,5.85,7.97,5.85,7.97,-7.94,-7.87,-8.25,-2.10,-2.09,-2.12
222.23,5.79,7.93,5.77,7.91,-7.90,-7.83,-8.30,-2.11,-2.13,-2.15
224.45,5.69,7.85,5.68,7.85,-7.85,-7.79,-8.34,-2.16,-2.16,-2.17
226.70,5.58,7.76,5.60,7.78,-7.80,-7.74,-8.38,-2.22,-2.20,-2.19
228.96,5.53,7.72,5.52,7.72,-7.74,-7.70,-8.42,-2.22,-2.22,-2.20
231.25,5.48,7.68,5.47,7.68,-7.69,-7.65,-8.45,-2.21,-2.22,-2.21
233.57,5.41,7.63,5.42,7.64,-7.64,-7.61,-8.47,-2.23,-2.22,-2.23
235.90,5.37,7.60,5.36,7.60,-7.59,-7.56,-8.49,-2.22,-2.23,-2.24
238.26,5.32,7.56,5.31,7.55,-7.55,-7.52,-8.50,-2.23,-2.24,-2.24
240.64,5.26,7.49,5.27,7.51,-7.51,-7.47,-8.50,-2.25,-2.24,-2.23
243.05,5.22,7.46,5.22,7.46,-7.47,-7.42,-8.50,-2.25,-2.25,-2.24
245.48,5.18,7.43,5.18,7.42,-7.42,-7.37,-8.48,-2.24,-2.25,-2.25
247.93,5.13,7.39,5.13,7.38,-7.38,-7.32,-8.45,-2.25,-2.24,-2.26
250.41,5.10,7.34,5.09,7.34,-7.33,-7.28,-8.42,-2.23,-2.24,-2.24
252.92,5.03,7.27,5.04,7.29,-7.29,-7.23,-8.37,-2.26,-2.25,-2.24
255.45,4.99,7.25,4.98,7.23,-7.24,-7.18,-8.32,-2.25,-2.26,-2.26
258.00,4.94,7.19,4.93,7.19,-7.19,-7.13,-8.25,-2.26,-2.27,-2.26
260.58,4.86,7.12,4.87,7.14,-7.15,-7.08,-8.18,-2.29,-2.27,-2.26
263.19,4.84,7.11,4.83,7.10,-7.09,-7.03,-8.10,-2.26,-2.27,-2.27
265.82,4.76,7.04,4.78,7.06,-7.04,-6.97,-8.00,-2.29,-2.27,-2.28
268.48,4.75,7.04,4.72,7.01,-7.00,-6.92,-7.90,-2.25,-2.28,-2.29
271.16,4.64,6.94,4.63,6.94,-6.95,-6.87,-7.80,-2.31,-2.31,-2.31
273.87,4.54,6.85,4.57,6.89,-6.90,-6.82,-7.68,-2.36,-2.33,-2.31
276.61,4.50,6.82,4.49,6.82,-6.84,-6.76,-7.56,-2.34,-2.35,-2.33
279.38,4.47,6.82,4.44,6.78,-6.77,-6.71,-7.44,-2.30,-2.33,-2.35
282.17,4.36,6.70,4.41,6.76,-6.71,-6.65,-7.31,-2.35,-2.30,-2.35
284.99,4.35,6.70,4.31,6.66,-6.64,-6.60,-7.18,-2.29,-2.33,-2.35
287.84,4.28,6.62,4.20,6.55,-6.57,-6.54,-7.05,-2.30,-2.37,-2.34
290.72,4.01,6.37,4.15,6.50,-6.51,-6.49,-6.91,-2.50,-2.36,-2.36
293.63,4.09,6.44,4.06,6.41,-6.44,-6.43,-6.77,-2.36,-2.38,-2.35
296.57,4.12,6.46,3.99,6.34,-6.38,-6.37,-6.64,-2.26,-2.39,-2.35
299.53,3.88,6.23,4.00,6.35,-6.32,-6.32,-6.50,-2.44,-2.32,-2.35
302.53,3.91,6.25,3.92,6.27,-6.25,-6.26,-6.36,-2.35,-2.33,-2.34
305.55,3.97,6.31,3.84,6.18,-6.20,-6.20,-6.22,-2.23,-2.36,-2.35
308.61,3.73,6.07,3.82,6.16,-6.14,-6.14,-6.09,-2.41,-2.32,-2.34
311.69,3.71,6.06,3.75,6.10,-6.09,-6.07,-5.95,-2.38,-2.34,-2.35
314.81,3.76,6.10,3.65,6.00,-6.04,-6.01,-5.82,-2.28,-2.38,-2.35
317.96,3.59,5.95,3.61,5.97,-5.98,-5.95,-5.69,-2.39,-2.37,-2.36
321.14,3.48,5.83,3.54,5.89,-5.91,-5.89,-5.56,-2.44,-2.37,-2.35
324.35,3.52,5.87,3.47,5.82,-5.84,-5.82,-5.44,-2.33,-2.37,-2.35
327.59,3.45,5.80,3.47,5.82,-5.77,-5.76,-5.32,-2.32,-2.30,-2.35
330.87,3.41,5.76,3.41,5.76,-5.69,-5.69,-5.20,-2.28,-2.28,-2.35
334.18,3.36,5.72,3.27,5.63,-5.61,-5.63,-5.08,-2.25,-2.34,-2.36
337.52,3.09,5.44,3.15,5.51,-5.54,-5.56,-4.97,-2.45,-2.38,-2.35
340.90,3.00,5.35,3.05,5.40,-5.46,-5.49,-4.86,-2.46,-2.41,-2.36
344.30,3.03,5.38,2.98,5.33,-5.39,-5.42,-4.75,-2.36,-2.40,-2.35
347.75,2.98,5.32,2.97,5.31,-5.32,-5.35,-4.65,-2.34,-2.35,-2.34
351.23,2.92,5.27,2.92,5.26,-5.25,-5.29,-4.55,-2.33,-2.33,-2.35
354.74,2.86,5.19,2.86,5.21,-5.19,-5.22,-4.45,-2.34,-2.33,-2.34
358.28,2.80,5.13,2.81,5.14,-5.14,-5.15,-4.36,-2.35,-2.33,-2.34
361.87,2.79,5.12,2.76,5.09,-5.08,-5.08,-4.27,-2.30,-2.32,-2.33
365.49,2.69,5.01,2.73,5.05,-5.01,-5.00,-4.18,-2.33,-2.28,-2.32
369.14,2.67,4.98,2.65,4.96,-4.93,-4.93,-4.10,-2.26,-2.28,-2.31
372.83,2.61,4.91,2.54,4.84,-4.84,-4.86,-4.02,-2.23,-2.30,-2.30
376.56,2.36,4.66,2.46,4.76,-4.75,-4.79,-3.94,-2.39,-2.29,-2.31
380.33,2.36,4.66,2.36,4.66,-4.67,-4.72,-3.87,-2.31,-2.31,-2.31
384.13,2.34,4.64,2.25,4.55,-4.59,-4.65,-3.80,-2.25,-2.35,-2.30
387.97,2.14,4.44,2.17,4.47,-4.52,-4.58,-3.73,-2.38,-2.35,-2.30
391.85,2.05,4.35,2.11,4.42,-4.45,-4.51,-3.66,-2.40,-2.34,-2.30
395.77,2.09,4.40,2.08,4.38,-4.39,-4.43,-3.60,-2.30,-2.31,-2.31
399.73,2.14,4.45,2.07,4.38,-4.34,-4.36,-3.54,-2.20,-2.27,-2.31
403.72,2.00,4.30,2.01,4.33,-4.28,-4.29,-3.48,-2.28,-2.27,-2.30
407.76,1.90,4.22,1.92,4.23,-4.22,-4.22,-3.42,-2.32,-2.30,-2.33
411.84,1.81,4.13,1.82,4.14,-4.15,-4.15,-3.37,-2.34,-2.33,-2.33
415.96,1.75,4.07,1.75,4.08,-4.07,-4.08,-3.31,-2.32,-2.33,-2.33
420.12,1.69,4.03,1.66,4.00,-3.99,-4.01,-3.26,-2.31,-2.33,-2.34
424.32,1.59,3.92,1.60,3.92,-3.92,-3.94,-3.21,-2.33,-2.32,-2.33
428.56,1.49,3.80,1.51,3.82,-3.84,-3.86,-3.17,-2.36,-2.34,-2.31
432.85,1.48,3.77,1.42,3.72,-3.77,-3.79,-3.12,-2.30,-2.35,-2.29
437.18,1.34,3.62,1.41,3.68,-3.71,-3.72,-3.08,-2.37,-2.30,-2.28
441.55,1.39,3.63,1.42,3.66,-3.64,-3.65,-3.03,-2.25,-2.22,-2.24
445.96,1.50,3.70,1.41,3.62,-3.57,-3.58,-2.99,-2.08,-2.16,-2.20
450.42,1.40,3.56,1.40,3.56,-3.51,-3.51,-2.95,-2.11,-2.11,-2.16
454.93,1.31,3.42,1.35,3.46,-3.45,-3.44,-2.90,-2.14,-2.10,-2.11
459.48,1.29,3.34,1.29,3.34,-3.38,-3.37,-2.86,-2.10,-2.10,-2.06
464.07,1.29,3.27,1.29,3.29,-3.31,-3.30,-2.82,-2.03,-2.02,-1.99
468.71,1.30,3.23,1.30,3.24,-3.24,-3.23,-2.78,-1.94,-1.93,-1.94
473.40,1.34,3.21,1.30,3.18,-3.16,-3.16,-2.74,-1.82,-1.86,-1.88
478.13,1.27,3.09,1.28,3.11,-3.09,-3.09,-2.70,-1.82,-1.80,-1.82
482.91,1.25,3.02,1.25,3.02,-3.02,-3.02,-2.66,-1.77,-1.76,-1.77
487.74,1.22,2.95,1.22,2.94,-2.95,-2.95,-2.62,-1.73,-1.73,-1.73
