frequency,raw,error,smoothed,error_smoothed,equalization,parametric_eq,fixed_band_eq,equalized_raw,equalized_smoothed,target
20.00,4.73,0.80,4.73,0.81,-0.80,-1.98,-0.98,3.92,3.92,3.92
20.20,4.76,0.83,4.76,0.83,-0.83,-1.98,-1.01,3.93,3.93,3.92
20.40,4.78,0.85,4.78,0.86,-0.86,-1.99,-1.03,3.92,3.93,3.92
20.61,4.82,0.89,4.81,0.89,-0.89,-1.99,-1.07,3.93,3.92,3.92
20.81,4.85,0.92,4.84,0.92,-0.92,-2.00,-1.10,3.92,3.92,3.92
21.02,4.87,0.94,4.88,0.96,-0.96,-2.00,-1.13,3.91,3.91,3.92
21.23,4.91,1.01,4.91,1.00,-1.00,-2.01,-1.16,3.91,3.90,3.90
21.44,4.94,1.05,4.93,1.04,-1.04,-2.02,-1.19,3.89,3.89,3.89
21.66,4.97,1.09,4.97,1.09,-1.09,-2.02,-1.23,3.88,3.88,3.87
21.87,4.99,1.14,4.99,1.14,-1.14,-2.03,-1.26,3.85,3.85,3.85
22.09,5.03,1.19,5.02,1.19,-1.19,-2.03,-1.30,3.84,3.83,3.84
22.31,5.06,1.25,5.06,1.24,-1.25,-2.04,-1.34,3.81,3.81,3.81
22.54,5.09,1.30,5.09,1.30,-1.30,-2.05,-1.38,3.78,3.79,3.79
22.76,5.13,1.36,5.12,1.36,-1.36,-2.05,-1.42,3.77,3.77,3.77
22.99,5.16,1.42,5.16,1.42,-1.41,-2.06,-1.46,3.75,3.74,3.74
23.22,5.18,1.47,5.18,1.47,-1.46,-2.07,-1.50,3.71,3.72,3.71
23.45,5.22,1.53,5.21,1.52,-1.51,-2.07,-1.54,3.70,3.70,3.69
23.69,5.24,1.56,5.24,1.57,-1.56,-2.08,-1.58,3.68,3.68,3.68
23.92,5.27,1.61,5.27,1.61,-1.61,-2.09,-1.63,3.66,3.66,3.66
24.16,5.30,1.65,5.29,1.65,-1.65,-2.10,-1.67,3.65,3.64,3.65
24.40,5.32,1.69,5.32,1.69,-1.70,-2.11,-1.72,3.62,3.62,3.63
24.65,5.35,1.74,5.34,1.74,-1.74,-2.11,-1.76,3.61,3.61,3.61
24.89,5.37,1.78,5.37,1.78,-1.78,-2.12,-1.81,3.58,3.59,3.59
25.14,5.40,1.82,5.40,1.82,-1.83,-2.13,-1.86,3.57,3.57,3.58
25.39,5.43,1.87,5.43,1.87,-1.87,-2.14,-1.90,3.56,3.56,3.56
25.65,5.46,1.91,5.46,1.92,-1.92,-2.15,-1.95,3.54,3.54,3.55
25.91,5.49,1.97,5.49,1.96,-1.96,-2.16,-2.00,3.53,3.52,3.52
26.16,5.51,2.00,5.51,2.01,-2.00,-2.17,-2.05,3.51,3.51,3.50
26.43,5.54,2.04,5.54,2.05,-2.04,-2.18,-2.09,3.49,3.49,3.49
26.69,5.56,2.08,5.56,2.08,-2.08,-2.19,-2.14,3.48,3.48,3.47
26.96,5.59,2.12,5.58,2.12,-2.12,-2.20,-2.19,3.47,3.46,3.46
27.23,5.61,2.16,5.61,2.16,-2.16,-2.22,-2.23,3.45,3.45,3.45
27.50,5.63,2.19,5.63,2.19,-2.20,-2.23,-2.28,3.43,3.44,3.44
27.77,5.66,2.24,5.65,2.23,-2.23,-2.24,-2.32,3.42,3.42,3.42
28.05,5.68,2.27,5.68,2.27,-2.27,-2.25,-2.36,3.41,3.41,3.41
28.33,5.70,2.31,5.70,2.31,-2.31,-2.27,-2.40,3.39,3.39,3.39
28.62,5.73,2.35,5.72,2.35,-2.35,-2.28,-2.44,3.38,3.38,3.38
28.90,5.75,2.38,5.75,2.38,-2.38,-2.30,-2.48,3.37,3.37,3.37
29.19,5.77,2.42,5.77,2.42,-2.42,-2.31,-2.51,3.35,3.35,3.35
29.48,5.80,2.45,5.80,2.45,-2.45,-2.33,-2.54,3.35,3.34,3.35
29.78,5.82,2.48,5.82,2.48,-2.49,-2.34,-2.57,3.33,3.33,3.33
30.08,5.84,2.51,5.84,2.51,-2.52,-2.36,-2.60,3.32,3.32,3.32
30.38,5.85,2.55,5.85,2.55,-2.55,-2.38,-2.62,3.30,3.31,3.30
30.68,5.87,2.58,5.87,2.58,-2.58,-2.39,-2.64,3.29,3.29,3.29
30.99,5.89,2.62,5.88,2.61,-2.60,-2.41,-2.66,3.28,3.28,3.27
31.30,5.89,2.63,5.89,2.63,-2.63,-2.43,-2.68,3.26,3.26,3.26
31.61,5.90,2.65,5.90,2.65,-2.65,-2.45,-2.69,3.24,3.24,3.25
31.93,5.90,2.67,5.90,2.68,-2.68,-2.47,-2.70,3.22,3.22,3.23
32.24,5.90,2.70,5.90,2.70,-2.70,-2.49,-2.70,3.20,3.20,3.19
32.57,5.91,2.72,5.90,2.72,-2.72,-2.51,-2.70,3.19,3.18,3.18
32.89,5.90,2.73,5.90,2.74,-2.74,-2.54,-2.71,3.16,3.17,3.17
33.22,5.91,2.77,5.90,2.76,-2.76,-2.56,-2.70,3.15,3.14,3.14
33.55,5.90,2.77,5.90,2.77,-2.78,-2.58,-2.70,3.12,3.12,3.13
33.89,5.90,2.79,5.90,2.79,-2.79,-2.60,-2.69,3.10,3.11,3.11
34.23,5.90,2.81,5.90,2.81,-2.81,-2.62,-2.68,3.09,3.09,3.09
34.57,5.90,2.83,5.89,2.83,-2.83,-2.65,-2.67,3.07,3.07,3.06
34.92,5.89,2.85,5.89,2.84,-2.84,-2.67,-2.66,3.05,3.05,3.04
35.27,5.88,2.85,5.88,2.85,-2.85,-2.69,-2.65,3.02,3.03,3.03
35.62,5.88,2.87,5.87,2.86,-2.87,-2.71,-2.63,3.01,3.01,3.01
35.97,5.86,2.87,5.86,2.87,-2.88,-2.73,-2.62,2.98,2.99,2.99
36.33,5.86,2.88,5.85,2.88,-2.88,-2.75,-2.60,2.97,2.97,2.97
36.70,5.84,2.89,5.84,2.89,-2.89,-2.76,-2.59,2.95,2.95,2.95
37.06,5.83,2.90,5.83,2.90,-2.90,-2.78,-2.57,2.93,2.93,2.93
37.43,5.82,2.90,5.81,2.90,-2.90,-2.79,-2.55,2.92,2.91,2.92
37.81,5.80,2.90,5.80,2.90,-2.90,-2.81,-2.54,2.89,2.90,2.89
38.19,5.78,2.91,5.78,2.90,-2.90,-2.82,-2.52,2.87,2.87,2.87
38.57,5.76,2.90,5.76,2.90,-2.91,-2.82,-2.51,2.85,2.85,2.86
38.95,5.74,2.90,5.74,2.90,-2.90,-2.83,-2.50,2.83,2.83,2.84
39.34,5.72,2.91,5.72,2.90,-2.90,-2.83,-2.48,2.81,2.82,2.81
39.74,5.70,2.91,5.70,2.90,-2.90,-2.84,-2.47,2.80,2.80,2.79
40.14,5.68,2.89,5.68,2.90,-2.90,-2.84,-2.46,2.78,2.78,2.79
40.54,5.65,2.88,5.65,2.89,-2.89,-2.84,-2.45,2.76,2.76,2.76
40.94,5.64,2.89,5.63,2.88,-2.88,-2.84,-2.45,2.76,2.75,2.75
41.35,5.61,2.88,5.61,2.88,-2.87,-2.84,-2.44,2.73,2.74,2.73
41.76,5.59,2.87,5.59,2.87,-2.86,-2.83,-2.44,2.72,2.72,2.72
42.18,5.56,2.85,5.56,2.85,-2.86,-2.83,-2.44,2.70,2.70,2.71
42.60,5.54,2.85,5.53,2.84,-2.85,-2.83,-2.43,2.69,2.69,2.68
43.03,5.51,2.83,5.51,2.84,-2.84,-2.82,-2.44,2.67,2.67,2.68
43.46,5.49,2.83,5.49,2.83,-2.84,-2.82,-2.44,2.65,2.65,2.66
43.90,5.47,2.84,5.47,2.83,-2.83,-2.82,-2.44,2.64,2.63,2.63
44.33,5.45,2.83,5.45,2.83,-2.83,-2.82,-2.45,2.62,2.62,2.62
44.78,5.42,2.82,5.42,2.83,-2.82,-2.81,-2.46,2.59,2.60,2.60
45.23,5.41,2.83,5.40,2.82,-2.82,-2.81,-2.47,2.59,2.58,2.58
45.68,5.38,2.82,5.38,2.82,-2.82,-2.81,-2.48,2.56,2.57,2.56
46.13,5.37,2.82,5.37,2.82,-2.81,-2.81,-2.50,2.56,2.55,2.55
46.60,5.35,2.81,5.35,2.81,-2.81,-2.81,-2.51,2.54,2.54,2.54
47.06,5.33,2.80,5.33,2.80,-2.80,-2.81,-2.53,2.52,2.52,2.52
47.53,5.31,2.80,5.31,2.79,-2.80,-2.81,-2.55,2.51,2.50,2.51
48.01,5.29,2.79,5.29,2.79,-2.80,-2.81,-2.57,2.49,2.49,2.50
48.49,5.27,2.79,5.27,2.80,-2.80,-2.81,-2.59,2.46,2.47,2.47
48.97,5.26,2.81,5.25,2.81,-2.81,-2.81,-2.62,2.45,2.45,2.45
49.46,5.24,2.82,5.24,2.82,-2.81,-2.82,-2.64,2.43,2.43,2.42
49.96,5.22,2.82,5.22,2.82,-2.82,-2.82,-2.67,2.40,2.41,2.39
50.46,5.22,2.82,5.21,2.82,-2.82,-2.82,-2.70,2.40,2.39,2.40
50.96,5.20,2.82,5.20,2.83,-2.83,-2.83,-2.73,2.37,2.37,2.38
51.47,5.19,2.84,5.19,2.83,-2.83,-2.83,-2.76,2.36,2.36,2.35
51.99,5.17,2.84,5.17,2.83,-2.83,-2.84,-2.79,2.33,2.34,2.33
52.51,5.16,2.84,5.15,2.84,-2.84,-2.84,-2.82,2.32,2.32,2.32
53.03,5.14,2.83,5.14,2.84,-2.84,-2.85,-2.85,2.30,2.30,2.30
53.56,5.13,2.84,5.13,2.84,-2.84,-2.86,-2.88,2.28,2.28,2.28
54.10,5.12,2.85,5.11,2.85,-2.85,-2.86,-2.91,2.27,2.26,2.26
54.64,5.10,2.85,5.10,2.85,-2.85,-2.87,-2.95,2.24,2.24,2.24
55.18,5.08,2.85,5.08,2.86,-2.86,-2.88,-2.98,2.22,2.22,2.22
55.74,5.07,2.86,5.07,2.86,-2.86,-2.89,-3.01,2.20,2.20,2.20
56.29,5.06,2.87,5.06,2.87,-2.87,-2.89,-3.04,2.19,2.19,2.19
56.86,5.05,2.88,5.05,2.87,-2.87,-2.90,-3.06,2.17,2.17,2.17
57.42,5.03,2.88,5.03,2.88,-2.88,-2.91,-3.09,2.15,2.15,2.15
58.00,5.02,2.88,5.02,2.88,-2.88,-2.92,-3.11,2.14,2.14,2.14
58.58,5.00,2.88,5.00,2.88,-2.88,-2.93,-3.14,2.12,2.12,2.11
59.16,4.99,2.89,4.98,2.88,-2.88,-2.94,-3.16,2.11,2.10,2.10
59.76,4.96,2.87,4.96,2.88,-2.88,-2.95,-3.18,2.08,2.08,2.09
60.35,4.95,2.89,4.94,2.87,-2.88,-2.96,-3.19,2.06,2.06,2.06
60.96,4.92,2.86,4.92,2.88,-2.88,-2.97,-3.21,2.03,2.04,2.06
61.57,4.91,2.88,4.91,2.88,-2.88,-2.98,-3.22,2.02,2.02,2.02
62.18,4.89,2.89,4.89,2.88,-2.88,-2.99,-3.23,2.01,2.00,2.00
62.80,4.87,2.89,4.86,2.89,-2.88,-3.00,-3.23,1.99,1.98,1.98
63.43,4.84,2.88,4.84,2.88,-2.88,-3.01,-3.23,1.96,1.96,1.95
64.07,4.81,2.87,4.82,2.87,-2.87,-3.02,-3.23,1.94,1.94,1.94
64.71,4.80,2.87,4.79,2.86,-2.86,-3.03,-3.23,1.93,1.93,1.93
65.35,4.77,2.85,4.77,2.85,-2.85,-3.04,-3.23,1.91,1.91,1.91
66.01,4.74,2.83,4.74,2.84,-2.84,-3.05,-3.22,1.90,1.90,1.90
66.67,4.72,2.83,4.71,2.83,-2.83,-3.06,-3.21,1.89,1.88,1.88
67.33,4.69,2.81,4.69,2.81,-2.82,-3.07,-3.20,1.87,1.87,1.88
68.01,4.66,2.80,4.66,2.80,-2.80,-3.08,-3.18,1.85,1.86,1.86
68.69,4.64,2.79,4.63,2.79,-2.79,-3.09,-3.17,1.85,1.84,1.84
69.37,4.61,2.78,4.61,2.78,-2.78,-3.10,-3.15,1.83,1.83,1.82
70.07,4.58,2.77,4.58,2.77,-2.77,-3.11,-3.14,1.81,1.81,1.81
70.77,4.56,2.76,4.55,2.76,-2.76,-3.12,-3.12,1.80,1.79,1.80
71.48,4.53,2.75,4.53,2.75,-2.75,-3.13,-3.10,1.78,1.78,1.78
72.19,4.50,2.74,4.50,2.74,-2.75,-3.14,-3.08,1.75,1.76,1.76
72.91,4.48,2.74,4.48,2.74,-2.74,-3.15,-3.06,1.74,1.73,1.74
73.64,4.46,2.74,4.45,2.74,-2.74,-3.16,-3.04,1.72,1.71,1.71
74.38,4.43,2.73,4.44,2.74,-2.74,-3.17,-3.02,1.69,1.70,1.70
75.12,4.42,2.76,4.41,2.75,-2.74,-3.18,-3.00,1.68,1.67,1.66
75.87,4.40,2.75,4.39,2.74,-2.74,-3.19,-2.98,1.65,1.65,1.65
76.63,4.37,2.74,4.37,2.75,-2.75,-3.20,-2.97,1.62,1.62,1.63
77.40,4.35,2.75,4.35,2.75,-2.76,-3.21,-2.95,1.59,1.60,1.60
78.17,4.34,2.78,4.33,2.76,-2.76,-3.21,-2.94,1.57,1.57,1.56
78.95,4.32,2.76,4.32,2.77,-2.77,-3.22,-2.92,1.54,1.54,1.55
79.74,4.31,2.78,4.31,2.78,-2.79,-3.23,-2.91,1.52,1.52,1.52
80.54,4.29,2.79,4.29,2.80,-2.80,-3.24,-2.90,1.49,1.49,1.49
81.35,4.29,2.82,4.28,2.82,-2.82,-3.25,-2.89,1.47,1.46,1.46
82.16,4.27,2.84,4.27,2.84,-2.83,-3.26,-2.89,1.43,1.44,1.43
82.98,4.26,2.85,4.26,2.86,-2.85,-3.27,-2.88,1.40,1.41,1.41
83.81,4.25,2.88,4.24,2.87,-2.87,-3.28,-2.88,1.38,1.37,1.37
84.65,4.23,2.89,4.23,2.89,-2.89,-3.28,-2.88,1.34,1.34,1.33
85.50,4.22,2.91,4.22,2.91,-2.91,-3.29,-2.88,1.31,1.31,1.31
86.35,4.21,2.93,4.21,2.93,-2.93,-3.30,-2.88,1.27,1.27,1.28
87.22,4.20,2.95,4.20,2.95,-2.95,-3.31,-2.89,1.24,1.24,1.24
88.09,4.19,2.98,4.19,2.98,-2.98,-3.32,-2.90,1.21,1.21,1.21
88.97,4.18,3.00,4.18,3.00,-3.00,-3.32,-2.91,1.18,1.18,1.18
89.86,4.17,3.02,4.17,3.02,-3.02,-3.33,-2.92,1.14,1.14,1.15
90.76,4.16,3.06,4.16,3.05,-3.05,-3.34,-2.93,1.11,1.11,1.10
91.66,4.15,3.07,4.15,3.08,-3.07,-3.34,-2.95,1.07,1.07,1.07
92.58,4.14,3.11,4.14,3.10,-3.10,-3.35,-2.97,1.04,1.04,1.03
93.51,4.13,3.12,4.13,3.12,-3.12,-3.36,-2.99,1.00,1.00,1.01
94.44,4.12,3.15,4.12,3.15,-3.15,-3.36,-3.01,0.97,0.97,0.97
95.39,4.11,3.17,4.10,3.17,-3.18,-3.37,-3.04,0.93,0.93,0.93
96.34,4.09,3.20,4.09,3.20,-3.20,-3.38,-3.07,0.88,0.89,0.89
97.30,4.08,3.23,4.08,3.23,-3.23,-3.38,-3.10,0.85,0.85,0.85
98.28,4.07,3.26,4.06,3.26,-3.26,-3.39,-3.13,0.81,0.81,0.81
99.26,4.05,3.29,4.05,3.28,-3.28,-3.40,-3.16,0.77,0.77,0.76
100.25,4.03,3.31,4.03,3.31,-3.31,-3.40,-3.19,0.72,0.72,0.72
101.25,4.01,3.33,4.01,3.33,-3.33,-3.41,-3.23,0.68,0.68,0.68
102.27,3.99,3.36,3.99,3.36,-3.36,-3.41,-3.26,0.63,0.63,0.63
103.29,3.97,3.38,3.97,3.38,-3.38,-3.42,-3.30,0.59,0.59,0.58
104.32,3.95,3.40,3.94,3.40,-3.40,-3.43,-3.34,0.55,0.55,0.54
105.37,3.92,3.41,3.92,3.42,-3.42,-3.43,-3.38,0.50,0.50,0.50
106.42,3.89,3.43,3.89,3.43,-3.44,-3.44,-3.41,0.45,0.45,0.45
107.48,3.86,3.45,3.86,3.46,-3.46,-3.44,-3.45,0.40,0.40,0.41
108.56,3.84,3.48,3.83,3.48,-3.48,-3.45,-3.49,0.36,0.36,0.36
109.64,3.81,3.50,3.81,3.49,-3.50,-3.45,-3.53,0.31,0.31,0.31
110.74,3.78,3.51,3.78,3.52,-3.52,-3.46,-3.56,0.26,0.26,0.27
111.85,3.75,3.53,3.75,3.53,-3.54,-3.46,-3.60,0.21,0.21,0.22
112.97,3.72,3.57,3.71,3.55,-3.56,-3.47,-3.63,0.16,0.16,0.15
114.10,3.68,3.57,3.69,3.58,-3.58,-3.47,-3.67,0.10,0.11,0.11
115.24,3.66,3.59,3.66,3.60,-3.59,-3.48,-3.70,0.06,0.06,0.06
116.39,3.63,3.62,3.62,3.61,-3.61,-3.48,-3.72,0.02,0.01,0.01
117.55,3.59,3.63,3.59,3.63,-3.62,-3.49,-3.75,-0.04,-0.03,-0.04
118.73,3.55,3.64,3.55,3.64,-3.64,-3.49,-3.77,-0.09,-0.08,-0.09
119.92,3.52,3.64,3.51,3.64,-3.64,-3.50,-3.79,-0.13,-0.13,-0.13
121.12,3.48,3.65,3.48,3.65,-3.65,-3.50,-3.81,-0.17,-0.17,-0.17
122.33,3.44,3.66,3.44,3.66,-3.66,-3.51,-3.82,-0.22,-0.22,-0.22
123.55,3.41,3.66,3.40,3.66,-3.66,-3.51,-3.83,-0.26,-0.26,-0.26
124.79,3.37,3.67,3.37,3.66,-3.67,-3.52,-3.84,-0.30,-0.30,-0.30
126.03,3.33,3.66,3.33,3.67,-3.67,-3.52,-3.84,-0.35,-0.34,-0.34
127.29,3.30,3.68,3.29,3.68,-3.68,-3.53,-3.84,-0.38,-0.39,-0.38
128.57,3.26,3.69,3.26,3.69,-3.69,-3.53,-3.84,-0.43,-0.43,-0.43
129.85,3.23,3.70,3.23,3.70,-3.69,-3.54,-3.83,-0.47,-0.47,-0.47
131.15,3.20,3.70,3.20,3.70,-3.70,-3.54,-3.82,-0.50,-0.50,-0.50
132.46,3.17,3.71,3.17,3.71,-3.70,-3.55,-3.80,-0.54,-0.54,-0.54
133.79,3.14,3.70,3.14,3.71,-3.71,-3.55,-3.79,-0.57,-0.57,-0.57
135.12,3.11,3.71,3.11,3.71,-3.71,-3.55,-3.77,-0.60,-0.60,-0.61
136.48,3.08,3.71,3.08,3.70,-3.71,-3.56,-3.75,-0.63,-0.63,-0.63
137.84,3.05,3.70,3.05,3.71,-3.71,-3.56,-3.72,-0.66,-0.66,-0.65
139.22,3.03,3.72,3.02,3.71,-3.71,-3.57,-3.70,-0.68,-0.68,-0.69
140.61,3.00,3.71,3.00,3.71,-3.70,-3.57,-3.67,-0.71,-0.70,-0.72
142.02,2.98,3.69,2.98,3.70,-3.70,-3.58,-3.65,-0.72,-0.72,-0.72
143.44,2.96,3.69,2.95,3.69,-3.70,-3.58,-3.62,-0.74,-0.74,-0.73
144.87,2.93,3.69,2.93,3.69,-3.69,-3.58,-3.59,-0.76,-0.76,-0.76
146.32,2.92,3.70,2.91,3.69,-3.69,-3.59,-3.56,-0.77,-0.77,-0.78
147.78,2.89,3.67,2.89,3.68,-3.68,-3.59,-3.53,-0.79,-0.79,-0.78
149.26,2.88,3.68,2.87,3.68,-3.68,-3.60,-3.50,-0.80,-0.80,-0.80
150.75,2.85,3.67,2.85,3.67,-3.67,-3.60,-3.47,-0.82,-0.82,-0.82
152.26,2.83,3.67,2.83,3.67,-3.66,-3.60,-3.45,-0.84,-0.84,-0.84
153.78,2.81,3.66,2.81,3.66,-3.66,-3.61,-3.42,-0.85,-0.85,-0.85
155.32,2.79,3.65,2.79,3.65,-3.65,-3.61,-3.40,-0.87,-0.87,-0.87
156.88,2.77,3.65,2.77,3.65,-3.65,-3.61,-3.37,-0.88,-0.88,-0.88
158.44,2.74,3.64,2.74,3.64,-3.64,-3.62,-3.35,-0.90,-0.90,-0.90
160.03,2.72,3.64,2.71,3.64,-3.63,-3.62,-3.33,-0.92,-0.92,-0.92
161.63,2.69,3.63,2.69,3.63,-3.63,-3.62,-3.31,-0.94,-0.94,-0.94
163.24,2.67,3.62,2.67,3.62,-3.62,-3.62,-3.30,-0.95,-0.95,-0.95
164.88,2.65,3.61,2.65,3.61,-3.61,-3.63,-3.28,-0.97,-0.97,-0.96
166.53,2.63,3.61,2.62,3.61,-3.61,-3.63,-3.27,-0.98,-0.98,-0.98
168.19,2.60,3.61,2.60,3.60,-3.60,-3.63,-3.26,-1.00,-1.00,-1.01
169.87,2.57,3.60,2.57,3.60,-3.60,-3.63,-3.26,-1.03,-1.02,-1.03
171.57,2.55,3.59,2.54,3.59,-3.59,-3.63,-3.25,-1.04,-1.05,-1.05
173.29,2.52,3.58,2.52,3.58,-3.59,-3.63,-3.25,-1.07,-1.07,-1.06
175.02,2.49,3.58,2.49,3.58,-3.59,-3.63,-3.25,-1.10,-1.10,-1.09
176.77,2.46,3.58,2.46,3.58,-3.58,-3.63,-3.25,-1.13,-1.12,-1.13
178.54,2.44,3.59,2.43,3.58,-3.58,-3.63,-3.26,-1.15,-1.15,-1.15
180.32,2.41,3.58,2.41,3.58,-3.58,-3.63,-3.27,-1.18,-1.18,-1.18
182.13,2.38,3.58,2.38,3.58,-3.58,-3.63,-3.28,-1.21,-1.21,-1.20
183.95,2.35,3.58,2.35,3.58,-3.58,-3.63,-3.29,-1.24,-1.23,-1.24
185.79,2.33,3.59,2.32,3.59,-3.58,-3.63,-3.31,-1.26,-1.26,-1.26
187.65,2.30,3.59,2.29,3.58,-3.58,-3.63,-3.33,-1.28,-1.29,-1.29
189.52,2.26,3.57,2.27,3.58,-3.58,-3.63,-3.35,-1.32,-1.31,-1.32
191.42,2.24,3.58,2.24,3.57,-3.58,-3.62,-3.37,-1.34,-1.34,-1.34
193.33,2.22,3.57,2.21,3.56,-3.57,-3.62,-3.39,-1.35,-1.36,-1.35
195.27,2.19,3.56,2.18,3.56,-3.56,-3.62,-3.42,-1.37,-1.38,-1.37
197.22,2.15,3.54,2.15,3.55,-3.55,-3.61,-3.45,-1.40,-1.40,-1.39
199.19,2.12,3.55,2.12,3.55,-3.54,-3.61,-3.48,-1.42,-1.42,-1.43
201.18,2.10,3.54,2.09,3.54,-3.53,-3.60,-3.51,-1.43,-1.44,-1.44
203.19,2.06,3.51,2.06,3.52,-3.51,-3.60,-3.54,-1.45,-1.45,-1.46
205.23,2.02,3.49,2.02,3.49,-3.49,-3.59,-3.57,-1.48,-1.47,-1.47
207.28,1.99,3.46,1.98,3.47,-3.47,-3.59,-3.61,-1.49,-1.49,-1.47
209.35,1.95,3.45,1.95,3.45,-3.45,-3.58,-3.64,-1.51,-1.50,-1.50
211.44,1.92,3.44,1.92,3.43,-3.43,-3.57,-3.68,-1.51,-1.51,-1.52
213.56,1.89,3.42,1.88,3.41,-3.41,-3.56,-3.71,-1.52,-1.53,-1.53
215.69,1.85,3.38,1.85,3.39,-3.39,-3.56,-3.74,-1.54,-1.54,-1.53
217.85,1.82,3.35,1.82,3.36,-3.37,-3.55,-3.77,-1.55,-1.55,-1.54
220.03,1.80,3.35,1.79,3.34,-3.35,-3.54,-3.81,-1.55,-1.55,-1.56
222.23,1.77,3.33,1.77,3.33,-3.32,-3.53,-3.83,-1.56,-1.55,-1.56
224.45,1.75,3.30,1.75,3.31,-3.30,-3.52,-3.86,-1.55,-1.55,-1.55
226.70,1.73,3.28,1.73,3.28,-3.28,-3.50,-3.89,-1.55,-1.55,-1.56
228.96,1.72,3.27,1.71,3.26,-3.26,-3.49,-3.91,-1.54,-1.55,-1.55
231.25,1.70,3.24,1.70,3.24,-3.24,-3.48,-3.93,-1.55,-1.54,-1.54
233.57,1.69,3.21,1.69,3.22,-3.23,-3.47,-3.94,-1.54,-1.53,-1.53
235.90,1.69,3.21,1.69,3.21,-3.21,-3.45,-3.95,-1.52,-1.52,-1.52
238.26,1.69,3.21,1.69,3.20,-3.19,-3.44,-3.96,-1.51,-1.51,-1.52
240.64,1.69,3.18,1.69,3.19,-3.18,-3.42,-3.96,-1.49,-1.49,-1.49
243.05,1.70,3.18,1.69,3.17,-3.17,-3.41,-3.95,-1.47,-1.48,-1.48
245.48,1.70,3.15,1.70,3.16,-3.16,-3.39,-3.94,-1.46,-1.46,-1.45
247.93,1.72,3.16,1.72,3.16,-3.16,-3.37,-3.93,-1.44,-1.44,-1.44
250.41,1.74,3.16,1.73,3.15,-3.15,-3.35,-3.91,-1.41,-1.42,-1.42
252.92,1.76,3.15,1.76,3.15,-3.15,-3.34,-3.88,-1.39,-1.39,-1.39
255.45,1.78,3.14,1.78,3.15,-3.15,-3.32,-3.85,-1.37,-1.37,-1.36
258.00,1.81,3.14,1.81,3.15,-3.15,-3.30,-3.82,-1.35,-1.34,-1.34
260.58,1.85,3.17,1.84,3.16,-3.16,-3.27,-3.77,-1.31,-1.32,-1.32
263.19,1.87,3.16,1.87,3.17,-3.16,-3.25,-3.73,-1.29,-1.29,-1.29
265.82,1.91,3.18,1.91,3.18,-3.17,-3.23,-3.67,-1.26,-1.26,-1.27
268.48,1.94,3.18,1.94,3.18,-3.18,-3.21,-3.62,-1.24,-1.24,-1.24
271.16,1.98,3.18,1.97,3.18,-3.18,-3.18,-3.56,-1.21,-1.21,-1.21
273.87,2.00,3.19,2.00,3.19,-3.19,-3.16,-3.49,-1.19,-1.19,-1.19
276.61,2.04,3.19,2.04,3.20,-3.20,-3.13,-3.42,-1.16,-1.16,-1.15
279.38,2.08,3.21,2.08,3.21,-3.21,-3.10,-3.35,-1.13,-1.14,-1.14
282.17,2.12,3.23,2.11,3.22,-3.22,-3.08,-3.28,-1.10,-1.11,-1.11
284.99,2.15,3.23,2.15,3.23,-3.23,-3.05,-3.20,-1.09,-1.08,-1.08
287.84,2.19,3.24,2.19,3.24,-3.24,-3.02,-3.12,-1.06,-1.05,-1.05
290.72,2.24,3.25,2.23,3.25,-3.26,-2.99,-3.04,-1.02,-1.02,-1.02
293.63,2.27,3.27,2.27,3.26,-3.26,-2.96,-2.95,-1.00,-0.99,-1.00
296.57,2.31,3.27,2.31,3.27,-3.27,-2.93,-2.87,-0.96,-0.96,-0.96
299.53,2.34,3.27,2.34,3.27,-3.27,-2.89,-2.78,-0.93,-0.93,-0.93
302.53,2.37,3.27,2.37,3.27,-3.27,-2.86,-2.70,-0.90,-0.90,-0.91
305.55,2.40,3.26,2.40,3.26,-3.26,-2.82,-2.61,-0.86,-0.86,-0.86
308.61,2.42,3.25,2.42,3.25,-3.25,-2.79,-2.53,-0.83,-0.83,-0.83
311.69,2.44,3.23,2.44,3.23,-3.23,-2.75,-2.44,-0.79,-0.79,-0.79
314.81,2.45,3.20,2.45,3.21,-3.20,-2.71,-2.35,-0.76,-0.76,-0.75
317.96,2.45,3.17,2.45,3.18,-3.17,-2.68,-2.27,-0.73,-0.72,-0.73
321.14,2.45,3.15,2.44,3.14,-3.14,-2.64,-2.18,-0.69,-0.69,-0.70
324.35,2.43,3.10,2.43,3.09,-3.09,-2.60,-2.09,-0.67,-0.66,-0.67
327.59,2.41,3.04,2.41,3.04,-3.04,-2.55,-2.01,-0.64,-0.64,-0.63
330.87,2.38,2.98,2.38,2.99,-2.99,-2.51,-1.93,-0.61,-0.61,-0.60
334.18,2.35,2.93,2.35,2.93,-2.93,-2.47,-1.84,-0.58,-0.58,-0.59
337.52,2.31,2.86,2.31,2.86,-2.86,-2.42,-1.76,-0.55,-0.55,-0.56
340.90,2.26,2.79,2.26,2.79,-2.79,-2.38,-1.68,-0.53,-0.53,-0.53
344.30,2.21,2.72,2.21,2.71,-2.71,-2.33,-1.60,-0.50,-0.51,-0.51
347.75,2.15,2.63,2.15,2.63,-2.63,-2.28,-1.52,-0.49,-0.49,-0.48
351.23,2.09,2.55,2.09,2.55,-2.55,-2.24,-1.45,-0.46,-0.47,-0.46
354.74,2.02,2.46,2.02,2.46,-2.47,-2.19,-1.37,-0.45,-0.45,-0.44
358.28,1.96,2.38,1.96,2.38,-2.38,-2.14,-1.29,-0.42,-0.43,-0.42
361.87,1.89,2.29,1.89,2.29,-2.29,-2.08,-1.22,-0.40,-0.40,-0.41
365.49,1.82,2.19,1.82,2.20,-2.20,-2.03,-1.15,-0.38,-0.38,-0.38
369.14,1.75,2.12,1.75,2.11,-2.11,-1.98,-1.07,-0.36,-0.36,-0.37
372.83,1.67,2.02,1.67,2.02,-2.01,-1.92,-1.00,-0.35,-0.34,-0.35
376.56,1.60,1.93,1.59,1.92,-1.92,-1.87,-0.93,-0.32,-0.32,-0.33
380.33,1.51,1.81,1.51,1.82,-1.82,-1.81,-0.86,-0.31,-0.30,-0.30
384.13,1.44,1.72,1.43,1.72,-1.71,-1.75,-0.80,-0.28,-0.28,-0.28
387.97,1.35,1.61,1.35,1.61,-1.61,-1.69,-0.73,-0.26,-0.26,-0.26
391.85,1.27,1.51,1.27,1.51,-1.50,-1.63,-0.66,-0.24,-0.24,-0.24
395.77,1.18,1.39,1.18,1.40,-1.40,-1.57,-0.60,-0.22,-0.22,-0.21
399.73,1.11,1.30,1.10,1.30,-1.30,-1.51,-0.53,-0.19,-0.20,-0.19
403.72,1.02,1.19,1.02,1.19,-1.19,-1.45,-0.47,-0.18,-0.18,-0.18
407.76,0.94,1.09,0.94,1.09,-1.10,-1.38,-0.41,-0.16,-0.16,-0.16
411.84,0.87,0.99,0.87,1.00,-1.00,-1.32,-0.35,-0.14,-0.13,-0.13
415.96,0.81,0.91,0.81,0.91,-0.91,-1.25,-0.29,-0.11,-0.11,-0.11
420.12,0.75,0.84,0.75,0.83,-0.83,-1.18,-0.23,-0.08,-0.09,-0.09
424.32,0.69,0.75,0.69,0.75,-0.75,-1.11,-0.17,-0.07,-0.06,-0.06
428.56,0.64,0.68,0.64,0.68,-0.68,-1.04,-0.12,-0.04,-0.04,-0.04
432.85,0.60,0.62,0.60,0.61,-0.62,-0.97,-0.06,-0.02,-0.02,-0.02
437.18,0.56,0.55,0.56,0.55,-0.55,-0.90,-0.01,0.01,0.01,0.01
441.55,0.53,0.49,0.53,0.49,-0.49,-0.83,0.04,0.04,0.03,0.04
445.96,0.49,0.43,0.49,0.43,-0.43,-0.76,0.10,0.06,0.06,0.06
450.42,0.47,0.39,0.46,0.38,-0.37,-0.68,0.15,0.10,0.09,0.08
454.93,0.43,0.31,0.43,0.32,-0.31,-0.61,0.19,0.12,0.12,0.12
459.48,0.40,0.26,0.40,0.26,-0.25,-0.53,0.24,0.15,0.14,0.14
464.07,0.36,0.19,0.36,0.19,-0.19,-0.46,0.29,0.17,0.17,0.17
468.71,0.33,0.12,0.33,0.13,-0.13,-0.38,0.33,0.20,0.20,0.21
473.40,0.29,0.06,0.29,0.06,-0.06,-0.30,0.37,0.23,0.23,0.23
478.13,0.25,-0.01,0.25,-0.01,0.01,-0.22,0.41,0.25,0.25,0.26
482.91,0.21,-0.08,0.21,-0.08,0.08,-0.14,0.45,0.28,0.28,0.29
487.74,0.17,-0.15,0.17,-0.14,0.15,-0.06,0.49,0.31,0.32,0.32
492.62,0.13,-0.22,0.13,-0.22,0.22,0.02,0.52,0.35,0.35,0.35
497.55,0.09,-0.28,0.08,-0.29,0.29,0.10,0.55,0.38,0.38,0.36
502.52,0.03,-0.38,0.03,-0.37,0.37,0.18,0.58,0.40,0.40,0.40
507.55,-0.02,-0.45,-0.02,-0.45,0.45,0.26,0.61,0.43,0.43,0.42
512.62,-0.08,-0.54,-0.08,-0.54,0.54,0.34,0.64,0.45,0.46,0.45
