frequency,raw
20,-5.93
21,-4.83
22,-3.88
23,-2.93
24,-1.97
25,-1.05
26,-0.33
27,0.53
28,1.18
29,1.84
30,2.42
31,3.00
32,3.60
33,4.08
34,4.44
35,4.93
36,5.40
37,5.72
38,6.07
39,6.32
40,6.60
41,6.88
42,7.26
43,7.37
44,7.66
45,7.69
46,8.02
47,8.02
48,8.33
49,8.34
50,8.47
51,8.53
52,8.67
53,8.67
54,8.67
55,8.67
56,8.67
57,8.67
58,8.64
59,8.45
60,8.34
61,8.34
62,8.34
63,8.20
64,8.02
65,8.01
66,7.83
67,7.69
68,7.62
69,7.37
70,7.33
71,7.17
72,7.01
73,6.86
74,6.72
75,6.71
76,6.41
77,6.40
78,6.40
79,6.18
80,6.07
81,6.07
82,6.03
83,5.91
84,5.91
85,5.79
86,5.75
87,5.75
88,5.75
89,5.75
90,5.75
91,5.75
92,5.75
93,5.75
94,5.75
95,5.75
96,5.75
97,5.75
98,5.75
99,5.75
100,5.75
101,5.75
102,5.75
104,5.75
105,5.75
106,5.75
107,5.75
108,5.75
109,5.76
110,5.86
111,5.96
112,6.07
113,6.07
114,6.07
115,6.07
117,6.07
118,6.07
119,6.07
120,6.07
121,6.07
123,6.07
124,6.07
125,6.07
126,6.07
128,6.07
129,6.07
130,6.07
131,6.07
133,6.07
134,6.07
135,6.07
137,6.07
138,6.07
140,6.07
141,6.07
142,6.07
144,6.07
145,6.07
147,6.07
148,6.07
150,6.07
151,6.07
153,6.07
154,6.07
156,6.07
157,6.07
159,6.07
160,6.07
162,6.07
164,6.07
165,6.07
167,6.07
169,6.07
170,6.07
172,6.07
174,6.07
175,6.07
177,6.07
179,6.07
181,6.07
183,6.07
184,6.07
186,6.07
188,6.07
190,6.07
192,5.99
194,5.94
196,6.06
198,5.97
200,5.86
202,5.75
204,5.75
206,5.75
208,5.75
210,5.75
212,5.75
214,5.75
216,5.75
218,5.75
221,5.70
223,5.60
225,5.50
227,5.42
229,5.42
232,5.42
234,5.42
236,5.42
239,5.30
241,5.21
244,5.10
246,5.10
248,5.10
251,5.08
253,4.99
256,4.85
259,4.78
261,4.78
264,4.78
266,4.74
269,4.62
272,4.49
274,4.45
277,4.45
280,4.45
283,4.45
286,4.45
288,4.45
291,4.38
294,4.26
297,4.15
300,4.13
303,4.13
306,4.13
309,4.13
312,4.13
316,4.13
319,4.13
322,4.13
325,4.13
328,4.13
332,4.13
335,4.09
338,3.99
342,3.85
345,3.80
349,3.79
352,3.69
356,3.56
359,3.48
363,3.48
366,3.41
370,3.29
374,3.17
377,3.15
381,3.12
385,3.00
389,2.88
393,2.83
397,2.82
401,2.70
405,2.59
409,2.50
413,2.50
417,2.42
421,2.32
425,2.21
430,2.18
434,2.14
438,2.03
443,1.90
447,1.86
451,1.86
456,1.86
460,1.75
465,1.53
470,1.53
474,1.53
479,1.51
484,1.39
489,1.27
494,1.21
499,1.21
504,1.21
509,1.21
514,1.21
519,1.21
524,1.14
529,1.04
535,0.91
540,0.88
545,0.88
551,0.88
556,0.88
562,0.84
568,0.72
573,0.62
579,0.56
585,0.56
591,0.56
596,0.50
602,0.39
608,0.27
615,0.23
621,0.23
627,0.23
633,0.23
639,0.23
646,0.23
652,0.13
659,0.01
665,-0.09
672,-0.09
679,-0.09
686,-0.09
692,-0.09
699,-0.09
706,-0.09
713,-0.09
721,-0.09
728,-0.09
735,-0.09
742,-0.09
750,-0.15
757,-0.25
765,-0.13
773,-0.09
780,-0.09
788,-0.09
796,-0.17
804,-0.29
812,-0.40
820,-0.41
828,-0.41
837,-0.41
845,-0.41
853,-0.41
862,-0.40
871,-0.29
879,-0.18
888,-0.11
897,-0.22
906,-0.17
915,-0.09
924,-0.09
933,-0.09
943,-0.09
952,-0.09
962,-0.09
971,-0.09
981,-0.08
991,0.04
1001,-0.00
1011,-0.06
1021,0.05
1031,0.16
1041,0.23
1052,0.23
1062,0.23
1073,0.18
1084,0.07
1094,-0.03
1105,-0.09
1116,-0.09
1128,-0.09
1139,-0.09
1150,-0.09
1162,-0.09
1173,-0.17
1185,-0.29
1197,-0.40
1209,-0.41
1221,-0.51
1233,-0.73
1246,-0.74
1258,-0.80
1271,-0.92
1283,-1.02
1296,-1.14
1309,-1.25
1322,-1.36
1335,-1.56
1349,-1.75
1362,-1.86
1376,-1.98
1390,-2.14
1404,-2.36
1418,-2.48
1432,-2.59
1446,-2.71
1461,-2.94
1475,-3.08
1490,-3.23
1505,-3.45
1520,-3.59
1535,-3.74
1550,-3.95
1566,-4.08
1582,-4.25
1597,-4.47
1613,-4.58
1629,-4.75
1646,-4.97
1662,-5.08
1679,-5.20
1696,-5.34
1713,-5.56
1730,-5.70
1747,-5.81
1764,-5.92
1782,-6.13
1800,-6.31
1818,-6.42
1836,-6.53
1854,-6.70
1873,-6.90
1892,-6.90
1911,-7.06
1930,-7.22
1949,-7.22
1969,-7.41
1988,-7.55
2008,-7.55
2028,-7.76
2048,-7.87
2069,-7.88
2090,-8.11
2111,-8.20
2132,-8.24
2153,-8.46
2175,-8.52
2196,-8.58
2218,-8.80
2240,-8.85
2263,-8.89
2285,-9.00
2308,-9.11
2331,-9.17
2355,-9.17
2378,-9.17
2402,-9.17
2426,-9.17
2450,-9.17
2475,-9.17
2500,-9.17
2525,-9.17
2550,-9.17
2575,-9.17
2601,-9.17
2627,-9.06
2653,-9.01
2680,-9.00
2707,-8.89
2734,-8.85
2761,-8.85
2789,-8.85
2817,-8.76
2845,-8.65
2873,-8.54
2902,-8.52
2931,-8.52
2960,-8.52
2990,-8.31
3020,-8.14
3050,-8.03
3080,-7.92
3111,-7.73
3142,-7.51
3174,-7.28
3206,-6.97
3238,-6.67
3270,-6.45
3303,-6.22
3336,-5.99
3369,-5.77
3403,-5.55
3437,-5.32
3471,-5.10
3506,-4.87
3541,-4.65
3576,-4.41
3612,-4.07
3648,-3.81
3685,-3.59
3721,-3.37
3759,-3.14
3796,-2.92
3834,-2.69
3873,-2.68
3911,-2.63
3950,-2.51
3990,-2.40
4030,-2.36
4070,-2.36
4111,-2.36
4152,-2.36
4193,-2.39
4235,-2.51
4278,-2.62
4321,-2.68
4364,-2.68
4407,-2.68
4451,-2.68
4496,-2.67
4541,-2.56
4586,-2.45
4632,-2.34
4679,-2.22
4725,-2.11
4773,-2.04
4820,-2.04
4868,-2.04
4917,-2.04
4966,-2.04
5016,-2.04
5066,-2.04
5117,-2.04
5168,-2.04
5220,-2.04
5272,-2.04
5325,-2.04
5378,-2.04
5432,-2.04
5486,-2.04
5541,-2.14
5596,-2.30
5652,-2.52
5709,-2.75
5766,-3.17
5823,-3.71
5882,-4.16
5940,-4.61
6000,-5.12
6060,-5.79
6120,-6.19
6182,-6.57
6244,-7.02
6306,-7.37
6369,-7.71
6433,-8.04
6497,-8.26
6562,-8.42
6628,-8.52
6694,-8.52
6761,-8.52
6828,-8.52
6897,-8.52
6966,-8.34
7035,-8.16
7106,-8.04
7177,-7.93
7249,-7.71
7321,-7.38
7394,-7.16
7468,-6.93
7543,-6.69
7618,-6.35
7694,-6.02
7771,-5.71
7849,-5.48
7928,-5.26
8007,-5.03
8087,-4.81
8168,-4.58
8250,-4.41
8332,-4.30
8415,-4.07
8499,-3.98
8584,-3.95
8670,-3.72
8757,-3.66
8845,-3.66
8933,-3.66
9022,-3.66
9113,-3.66
9204,-3.66
9296,-3.76
9389,-3.88
9483,-3.98
9577,-3.98
9673,-4.12
9770,-4.32
9868,-4.44
9966,-4.71
10066,-5.05
10167,-5.39
10268,-5.63
10371,-5.94
10475,-6.39
10579,-6.84
10685,-7.29
10792,-7.74
10900,-8.19
11009,-8.50
11119,-8.76
11230,-9.21
11343,-9.50
11456,-9.72
11571,-9.95
11686,-10.08
11803,-10.14
11921,-10.14
12040,-10.14
12161,-10.14
12282,-10.14
12405,-10.14
12529,-10.14
12655,-10.14
12781,-10.14
12909,-10.14
13038,-10.14
13168,-10.14
13300,-10.14
13433,-10.19
13567,-10.30
13703,-10.20
13840,-10.14
13978,-10.14
14118,-10.14
14259,-10.00
14402,-9.80
14546,-9.69
14692,-9.57
14838,-9.50
14987,-9.50
15137,-9.50
15288,-9.50
15441,-9.50
15595,-9.60
15751,-9.78
15909,-10.00
16068,-10.23
16229,-10.45
16391,-10.68
16555,-10.90
16720,-11.13
16888,-11.39
17056,-11.72
17227,-11.96
17399,-12.24
17573,-12.57
17749,-12.91
17926,-13.31
18106,-13.75
18287,-14.08
18470,-14.64
18654,-15.24
18841,-15.58
19029,-15.92
19220,-16.22
19412,-16.44
19606,-16.67
19802,-16.89
20000,-17.12
