frequency,raw
20.00,-4.17
20.20,-4.09
20.40,-4.01
20.61,-3.93
20.81,-3.84
21.02,-3.76
21.23,-3.68
21.44,-3.60
21.66,-3.51
21.87,-3.43
22.09,-3.34
22.31,-3.26
22.54,-3.17
22.76,-3.09
22.99,-3.00
23.22,-2.92
23.45,-2.83
23.69,-2.74
23.92,-2.65
24.16,-2.56
24.40,-2.47
24.65,-2.38
24.89,-2.29
25.14,-2.20
25.39,-2.11
25.65,-2.01
25.91,-1.92
26.16,-1.83
26.43,-1.73
26.69,-1.63
26.96,-1.54
27.23,-1.44
27.50,-1.34
27.77,-1.25
28.05,-1.15
28.33,-1.05
28.62,-0.95
28.90,-0.85
29.19,-0.75
29.48,-0.65
29.78,-0.55
30.08,-0.45
30.38,-0.35
30.68,-0.25
30.99,-0.14
31.30,-0.04
31.61,0.06
31.93,0.17
32.24,0.27
32.57,0.37
32.89,0.47
33.22,0.57
33.55,0.68
33.89,0.79
34.23,0.89
34.57,0.99
34.92,1.10
35.27,1.21
35.62,1.32
35.97,1.43
36.33,1.54
36.70,1.64
37.06,1.75
37.43,1.87
37.81,1.98
38.19,2.10
38.57,2.21
38.95,2.33
39.34,2.44
39.74,2.55
40.14,2.67
40.54,2.78
40.94,2.89
41.35,3.00
41.76,3.11
42.18,3.21
42.60,3.32
43.03,3.42
43.46,3.51
43.90,3.61
44.33,3.70
44.78,3.79
45.23,3.89
45.68,3.98
46.13,4.06
46.60,4.15
47.06,4.23
47.53,4.32
48.01,4.41
48.49,4.51
48.97,4.60
49.46,4.69
49.96,4.78
50.46,4.87
50.96,4.96
51.47,5.04
51.99,5.12
52.51,5.19
53.03,5.26
53.56,5.34
54.10,5.41
54.64,5.48
55.18,5.55
55.74,5.62
56.29,5.68
56.86,5.74
57.42,5.79
58.00,5.84
58.58,5.89
59.16,5.94
59.76,5.99
60.35,6.03
60.96,6.07
61.57,6.09
62.18,6.11
62.80,6.12
63.43,6.13
64.07,6.14
64.71,6.15
65.35,6.14
66.01,6.13
66.67,6.11
67.33,6.09
68.01,6.08
68.69,6.05
69.37,6.02
70.07,5.97
70.77,5.92
71.48,5.87
72.19,5.81
72.91,5.76
73.64,5.69
74.38,5.63
75.12,5.57
75.87,5.51
76.63,5.44
77.40,5.37
78.17,5.31
78.95,5.24
79.74,5.18
80.54,5.11
81.35,5.04
82.16,4.96
82.98,4.88
83.81,4.81
84.65,4.74
85.50,4.67
86.35,4.60
87.22,4.53
88.09,4.47
88.97,4.40
89.86,4.33
90.76,4.27
91.66,4.22
92.58,4.16
93.51,4.10
94.44,4.06
95.39,4.02
96.34,3.99
97.30,3.95
98.28,3.93
99.26,3.92
100.25,3.91
101.25,3.91
102.27,3.91
103.29,3.91
104.32,3.91
105.37,3.92
106.42,3.91
107.48,3.89
108.56,3.86
109.64,3.83
110.74,3.80
111.85,3.76
112.97,3.72
114.10,3.69
115.24,3.66
116.39,3.64
117.55,3.62
118.73,3.60
119.92,3.59
121.12,3.59
122.33,3.59
123.55,3.59
124.79,3.57
126.03,3.56
127.29,3.55
128.57,3.53
129.85,3.49
131.15,3.43
132.46,3.41
133.79,3.36
135.12,3.29
136.48,3.24
137.84,3.17
139.22,3.12
140.61,3.06
142.02,2.97
143.44,2.93
144.87,2.85
146.32,2.79
147.78,2.72
149.26,2.64
150.75,2.54
152.26,2.46
153.78,2.35
155.32,2.26
156.88,2.12
158.44,2.01
160.03,1.84
161.63,1.75
163.24,1.64
164.88,1.47
166.53,1.34
168.19,1.21
169.87,1.02
171.57,0.87
173.29,0.72
175.02,0.49
176.77,0.33
178.54,0.16
180.32,-0.01
182.13,-0.19
183.95,-0.49
185.79,-0.70
187.65,-0.91
189.52,-1.13
191.42,-1.36
193.33,-1.59
195.27,-1.81
197.22,-2.03
199.19,-2.26
201.18,-2.49
203.19,-2.73
205.23,-2.96
207.28,-3.18
209.35,-3.40
211.44,-3.61
213.56,-3.82
215.69,-4.01
217.85,-4.20
220.03,-4.33
222.23,-4.48
224.45,-4.65
226.70,-4.81
228.96,-4.96
231.25,-5.05
233.57,-5.16
235.90,-5.27
238.26,-5.32
240.64,-5.39
243.05,-5.43
245.48,-5.45
247.93,-5.44
250.41,-5.42
252.92,-5.37
255.45,-5.30
258.00,-5.23
260.58,-5.11
263.19,-5.00
265.82,-4.84
268.48,-4.72
271.16,-4.61
273.87,-4.45
276.61,-4.32
279.38,-4.20
282.17,-4.09
284.99,-3.97
287.84,-3.82
290.72,-3.71
293.63,-3.59
296.57,-3.49
299.53,-3.38
302.53,-3.28
305.55,-3.18
308.61,-3.06
311.69,-2.96
314.81,-2.88
317.96,-2.78
321.14,-2.69
324.35,-2.60
327.59,-2.50
330.87,-2.44
334.18,-2.37
337.52,-2.28
340.90,-2.22
344.30,-2.15
347.75,-2.08
351.23,-2.02
354.74,-1.95
358.28,-1.88
361.87,-1.80
365.49,-1.73
369.14,-1.67
372.83,-1.61
376.56,-1.54
380.33,-1.48
384.13,-1.42
387.97,-1.37
391.85,-1.31
395.77,-1.26
399.73,-1.21
403.72,-1.17
407.76,-1.12
411.84,-1.07
415.96,-1.01
420.12,-0.97
424.32,-0.93
428.56,-0.88
432.85,-0.83
437.18,-0.79
441.55,-0.76
445.96,-0.74
450.42,-0.70
454.93,-0.68
459.48,-0.64
464.07,-0.60
468.71,-0.56
473.40,-0.52
478.13,-0.49
482.91,-0.47
487.74,-0.46
492.62,-0.44
497.55,-0.40
502.52,-0.36
507.55,-0.32
512.62,-0.28
517.75,-0.24
522.93,-0.20
528.16,-0.17
533.44,-0.15
538.77,-0.12
544.16,-0.09
549.60,-0.06
555.10,-0.03
560.65,-0.01
566.25,0.00
571.92,0.02
577.64,0.03
583.41,0.04
589.25,0.05
595.14,0.07
601.09,0.10
607.10,0.13
613.17,0.15
619.30,0.19
625.50,0.22
631.75,0.25
638.07,0.29
644.45,0.31
650.89,0.34
657.40,0.36
663.98,0.37
670.62,0.38
677.32,0.38
684.10,0.38
690.94,0.37
697.85,0.36
704.83,0.35
711.87,0.32
718.99,0.30
726.18,0.28
733.44,0.25
740.78,0.21
748.19,0.18
755.67,0.14
763.23,0.11
770.86,0.08
778.57,0.05
786.35,0.03
794.22,0.01
802.16,0.00
810.18,0.00
818.28,0.01
826.46,0.02
834.73,0.02
843.08,0.02
851.51,0.02
860.02,0.02
868.62,0.02
877.31,0.02
886.08,0.02
894.94,0.02
903.89,0.02
912.93,0.02
922.06,0.02
931.28,0.02
940.59,0.02
950.00,0.02
959.50,0.02
969.09,0.02
978.78,0.01
988.57,0.00
998.46,0.00
1008.44,0.00
1018.53,0.02
1028.71,0.03
1039.00,0.05
1049.39,0.06
1059.88,0.08
1070.48,0.12
1081.19,0.17
1092.00,0.23
1102.92,0.28
1113.95,0.34
1125.09,0.40
1136.34,0.46
1147.70,0.50
1159.18,0.54
1170.77,0.57
1182.48,0.61
1194.30,0.64
1206.25,0.67
1218.31,0.71
1230.49,0.74
1242.80,0.77
1255.22,0.79
1267.78,0.82
1280.45,0.85
1293.26,0.90
1306.19,0.96
1319.25,1.01
1332.45,1.07
1345.77,1.11
1359.23,1.15
1372.82,1.18
1386.55,1.21
1400.41,1.24
1414.42,1.27
1428.56,1.32
1442.85,1.36
1457.28,1.41
1471.85,1.44
1486.57,1.48
1501.43,1.50
1516.45,1.52
1531.61,1.54
1546.93,1.57
1562.40,1.60
1578.02,1.64
1593.80,1.68
1609.74,1.71
1625.84,1.74
1642.10,1.77
1658.52,1.79
1675.10,1.81
1691.85,1.83
1708.77,1.86
1725.86,1.90
1743.12,1.94
1760.55,1.98
1778.15,2.01
1795.94,2.04
1813.90,2.07
1832.03,2.10
1850.36,2.14
1868.86,2.19
1887.55,2.24
1906.42,2.28
1925.49,2.33
1944.74,2.39
1964.19,2.45
1983.83,2.51
2003.67,2.56
2023.71,2.61
2043.94,2.66
2064.38,2.70
2085.03,2.75
2105.88,2.79
2126.94,2.83
2148.20,2.87
2169.69,2.90
2191.38,2.94
2213.30,2.99
2235.43,3.04
2257.78,3.09
2280.36,3.14
2303.17,3.17
2326.20,3.19
2349.46,3.20
2372.95,3.21
2396.68,3.21
2420.65,3.20
2444.86,3.19
2469.31,3.17
2494.00,3.15
2518.94,3.11
2544.13,3.06
2569.57,3.01
2595.27,2.96
2621.22,2.91
2647.43,2.85
2673.90,2.79
2700.64,2.73
2727.65,2.67
2754.93,2.61
2782.48,2.53
2810.30,2.45
2838.40,2.36
2866.79,2.25
2895.46,2.14
2924.41,2.02
2953.65,1.91
2983.19,1.79
3013.02,1.68
3043.15,1.56
3073.58,1.42
3104.32,1.28
3135.36,1.15
3166.72,1.01
3198.38,0.88
3230.37,0.74
3262.67,0.59
3295.30,0.44
3328.25,0.29
3361.53,0.13
3395.15,-0.01
3429.10,-0.16
3463.39,-0.31
3498.03,-0.46
3533.01,-0.61
3568.34,-0.74
3604.02,-0.86
3640.06,-0.97
3676.46,-1.05
3713.22,-1.12
3750.36,-1.19
3787.86,-1.25
3825.74,-1.28
3864.00,-1.31
3902.64,-1.33
3941.66,-1.33
3981.08,-1.31
4020.89,-1.29
4061.10,-1.26
4101.71,-1.20
4142.73,-1.14
4184.15,-1.07
4226.00,-0.97
4268.26,-0.86
4310.94,-0.71
4354.05,-0.55
4397.59,-0.36
4441.56,-0.17
4485.98,0.03
4530.84,0.24
4576.15,0.45
4621.91,0.66
4668.13,0.85
4714.81,1.02
4761.96,1.18
4809.58,1.34
4857.67,1.46
4906.25,1.55
4955.31,1.61
5004.87,1.65
5054.91,1.67
5105.46,1.66
5156.52,1.63
5208.08,1.58
5260.16,1.52
5312.77,1.46
5365.89,1.38
5419.55,1.29
5473.75,1.21
5528.49,1.13
5583.77,1.06
5639.61,1.02
5696.00,1.00
5752.96,1.02
5810.49,1.08
5868.60,1.18
5927.28,1.30
5986.56,1.45
6046.42,1.64
6106.89,1.85
6167.96,2.07
6229.64,2.29
6291.93,2.49
6354.85,2.70
6418.40,2.89
6482.58,3.05
6547.41,3.18
6612.88,3.26
6679.01,3.31
6745.80,3.33
6813.26,3.31
6881.39,3.26
6950.21,3.19
7019.71,3.09
7089.91,2.96
7160.81,2.79
7232.41,2.58
7304.74,2.32
7377.79,2.01
7451.56,1.65
7526.08,1.24
7601.34,0.78
7677.35,0.29
7754.13,-0.23
7831.67,-0.78
7909.98,-1.36
7989.08,-1.95
8068.98,-2.56
8149.67,-3.15
8231.16,-3.75
8313.47,-4.36
8396.61,-4.98
8480.57,-5.59
8565.38,-6.20
8651.03,-6.82
8737.54,-7.46
8824.92,-8.07
8913.17,-8.67
9002.30,-9.22
9092.32,-9.70
9183.25,-10.11
9275.08,-10.44
9367.83,-10.68
9461.51,-10.81
9556.12,-10.86
9651.68,-10.81
9748.20,-10.67
9845.68,-10.46
9944.14,-10.21
10043.58,-9.92
10144.02,-9.62
10245.46,-9.33
10347.91,-9.06
10451.39,-8.82
10555.91,-8.62
10661.46,-8.44
10768.08,-8.26
10875.76,-8.10
10984.52,-7.94
11094.36,-7.78
11205.31,-7.62
11317.36,-7.48
11430.53,-7.35
11544.84,-7.22
11660.29,-7.10
11776.89,-7.01
11894.66,-6.94
12013.60,-6.87
12133.74,-6.83
12255.08,-6.80
12377.63,-6.77
12501.41,-6.74
12626.42,-6.71
12752.68,-6.67
12880.21,-6.62
13009.01,-6.55
13139.10,-6.47
13270.49,-6.39
13403.20,-6.32
13537.23,-6.27
13672.60,-6.25
13809.33,-6.28
13947.42,-6.36
14086.90,-6.49
14227.77,-6.68
14370.04,-6.92
14513.74,-7.22
14658.88,-7.55
14805.47,-7.91
14953.52,-8.28
15103.06,-8.67
15254.09,-9.06
15406.63,-9.45
15560.70,-9.85
15716.30,-10.26
15873.47,-10.68
16032.20,-11.11
16192.52,-11.58
16354.45,-12.08
16517.99,-12.59
16683.17,-13.11
16850.01,-13.64
17018.51,-14.17
17188.69,-14.68
17360.58,-15.14
17534.18,-15.56
17709.53,-15.92
17886.62,-16.23
18065.49,-16.47
18246.14,-16.71
18428.60,-16.91
18612.89,-17.08
18799.02,-17.22
18987.01,-17.32
19176.88,-17.39
19368.65,-17.41
19562.33,-17.39
19757.96,-17.34
19955.54,-17.26
