frequency,raw,error,smoothed,error_smoothed,equalization,parametric_eq,fixed_band_eq,equalized_raw,equalized_smoothed,target
20.00,-8.16,-10.84,-8.16,-10.84,6.00,5.92,2.70,-2.16,-2.16,2.68
20.20,-8.08,-10.81,-8.08,-10.81,6.00,5.92,2.78,-2.08,-2.08,2.73
20.40,-8.01,-10.79,-8.01,-10.78,6.00,5.92,2.85,-2.01,-2.01,2.78
20.61,-7.93,-10.74,-7.93,-10.75,6.00,5.92,2.94,-1.93,-1.93,2.81
20.81,-7.85,-10.71,-7.85,-10.71,6.00,5.92,3.02,-1.85,-1.85,2.86
21.02,-7.77,-10.67,-7.77,-10.66,6.00,5.92,3.11,-1.77,-1.77,2.90
21.23,-7.70,-10.62,-7.70,-10.62,6.00,5.91,3.19,-1.70,-1.70,2.92
21.44,-7.62,-10.56,-7.62,-10.56,6.00,5.91,3.28,-1.62,-1.62,2.94
21.66,-7.54,-10.50,-7.54,-10.49,6.00,5.91,3.38,-1.54,-1.54,2.96
21.87,-7.46,-10.43,-7.46,-10.43,6.00,5.91,3.47,-1.46,-1.46,2.97
22.09,-7.39,-10.38,-7.39,-10.37,6.00,5.91,3.57,-1.39,-1.39,2.98
22.31,-7.32,-10.32,-7.32,-10.32,6.00,5.91,3.67,-1.32,-1.32,2.99
22.54,-7.26,-10.26,-7.26,-10.25,6.00,5.91,3.78,-1.26,-1.26,2.99
22.76,-7.19,-10.18,-7.19,-10.18,6.00,5.91,3.89,-1.19,-1.19,2.99
22.99,-7.12,-10.11,-7.12,-10.11,6.00,5.91,3.99,-1.12,-1.12,2.98
23.22,-7.06,-10.04,-7.06,-10.04,6.00,5.91,4.11,-1.06,-1.06,2.98
23.45,-6.99,-9.97,-6.99,-9.98,6.00,5.91,4.22,-0.99,-0.99,2.98
23.69,-6.93,-9.92,-6.93,-9.92,6.00,5.91,4.34,-0.93,-0.93,2.99
23.92,-6.86,-9.85,-6.86,-9.86,6.00,5.90,4.46,-0.86,-0.86,2.99
24.16,-6.79,-9.79,-6.79,-9.79,6.00,5.90,4.58,-0.79,-0.79,3.00
24.40,-6.72,-9.73,-6.72,-9.72,6.00,5.90,4.70,-0.72,-0.72,3.01
24.65,-6.64,-9.64,-6.64,-9.65,6.00,5.90,4.83,-0.64,-0.64,3.00
24.89,-6.57,-9.57,-6.57,-9.57,6.00,5.90,4.95,-0.57,-0.57,3.00
25.14,-6.50,-9.50,-6.50,-9.50,6.00,5.90,5.08,-0.50,-0.50,3.00
25.39,-6.43,-9.44,-6.43,-9.43,6.00,5.90,5.21,-0.43,-0.43,3.01
25.65,-6.36,-9.37,-6.36,-9.37,6.00,5.90,5.34,-0.36,-0.36,3.01
25.91,-6.30,-9.30,-6.30,-9.31,6.00,5.90,5.47,-0.30,-0.30,3.00
26.16,-6.25,-9.25,-6.26,-9.26,6.00,5.89,5.61,-0.25,-0.26,3.00
26.43,-6.23,-9.23,-6.23,-9.23,6.00,5.89,5.74,-0.23,-0.23,3.00
26.69,-6.21,-9.21,-6.21,-9.21,6.00,5.89,5.87,-0.21,-0.21,3.00
26.96,-6.18,-9.19,-6.17,-9.18,6.00,5.89,6.00,-0.18,-0.17,3.01
27.23,-6.12,-9.13,-6.12,-9.13,6.00,5.89,6.12,-0.12,-0.12,3.00
27.50,-6.05,-9.06,-6.06,-9.06,6.00,5.89,6.25,-0.05,-0.06,3.00
27.77,-5.98,-8.97,-5.98,-8.98,6.00,5.89,6.37,0.02,0.02,2.99
28.05,-5.90,-8.89,-5.90,-8.89,6.00,5.88,6.48,0.10,0.10,2.99
28.33,-5.82,-8.80,-5.82,-8.80,6.00,5.88,6.59,0.18,0.18,2.98
28.62,-5.73,-8.71,-5.73,-8.71,6.00,5.88,6.70,0.27,0.27,2.98
28.90,-5.65,-8.64,-5.66,-8.65,6.00,5.88,6.80,0.35,0.34,2.99
29.19,-5.61,-8.59,-5.62,-8.61,6.00,5.88,6.89,0.39,0.38,2.98
29.48,-5.60,-8.60,-5.60,-8.59,6.00,5.87,6.97,0.40,0.40,3.00
29.78,-5.58,-8.57,-5.58,-8.57,6.00,5.87,7.05,0.42,0.42,2.99
30.08,-5.55,-8.55,-5.54,-8.54,6.00,5.87,7.12,0.45,0.46,3.00
30.38,-5.49,-8.48,-5.50,-8.48,6.00,5.87,7.18,0.51,0.50,2.99
30.68,-5.43,-8.42,-5.43,-8.42,6.00,5.87,7.22,0.57,0.57,2.98
30.99,-5.37,-8.36,-5.37,-8.35,6.00,5.86,7.26,0.63,0.63,2.98
31.30,-5.30,-8.28,-5.31,-8.29,6.00,5.86,7.29,0.70,0.69,2.98
31.61,-5.24,-8.22,-5.24,-8.22,6.00,5.86,7.31,0.76,0.76,2.98
31.93,-5.17,-8.15,-5.17,-8.15,6.00,5.86,7.31,0.83,0.83,2.98
32.24,-5.10,-8.07,-5.10,-8.08,6.00,5.85,7.31,0.90,0.90,2.97
32.57,-5.04,-8.02,-5.04,-8.01,6.00,5.85,7.29,0.96,0.96,2.98
32.89,-4.97,-7.95,-4.97,-7.94,6.00,5.85,7.27,1.03,1.03,2.98
33.22,-4.91,-7.87,-4.91,-7.88,6.00,5.84,7.24,1.09,1.09,2.96
33.55,-4.84,-7.80,-4.84,-7.80,6.00,5.84,7.21,1.16,1.16,2.96
33.89,-4.78,-7.73,-4.78,-7.73,6.00,5.84,7.16,1.22,1.22,2.95
34.23,-4.71,-7.67,-4.71,-7.66,6.00,5.83,7.11,1.29,1.29,2.96
34.57,-4.64,-7.59,-4.64,-7.59,6.00,5.83,7.05,1.36,1.36,2.95
34.92,-4.57,-7.52,-4.57,-7.52,6.00,5.83,6.99,1.43,1.43,2.94
35.27,-4.49,-7.44,-4.49,-7.43,6.00,5.82,6.92,1.51,1.51,2.94
35.62,-4.42,-7.36,-4.42,-7.36,6.00,5.82,6.85,1.58,1.58,2.94
35.97,-4.35,-7.29,-4.36,-7.30,6.00,5.82,6.78,1.65,1.64,2.94
36.33,-4.31,-7.26,-4.31,-7.25,6.00,5.81,6.70,1.69,1.69,2.95
36.70,-4.28,-7.22,-4.28,-7.22,6.00,5.81,6.63,1.72,1.72,2.93
37.06,-4.25,-7.18,-4.25,-7.19,6.00,5.80,6.55,1.75,1.75,2.93
37.43,-4.22,-7.17,-4.22,-7.16,6.00,5.80,6.48,1.78,1.78,2.95
37.81,-4.18,-7.13,-4.18,-7.13,6.00,5.79,6.40,1.82,1.82,2.95
38.19,-4.14,-7.09,-4.14,-7.09,6.00,5.79,6.33,1.86,1.86,2.94
38.57,-4.09,-7.04,-4.09,-7.05,6.00,5.78,6.26,1.91,1.91,2.95
38.95,-4.04,-7.00,-4.03,-6.99,6.00,5.78,6.19,1.96,1.97,2.96
39.34,-3.96,-6.92,-3.95,-6.91,6.00,5.77,6.12,2.04,2.05,2.96
39.74,-3.87,-6.82,-3.88,-6.84,6.00,5.77,6.05,2.13,2.12,2.95
40.14,-3.81,-6.77,-3.82,-6.78,6.00,5.76,5.99,2.19,2.18,2.96
40.54,-3.79,-6.75,-3.79,-6.74,6.00,5.75,5.93,2.21,2.21,2.96
40.94,-3.77,-6.72,-3.76,-6.72,6.00,5.75,5.88,2.23,2.24,2.95
41.35,-3.73,-6.68,-3.73,-6.68,6.00,5.74,5.83,2.27,2.27,2.95
41.76,-3.68,-6.63,-3.68,-6.63,6.00,5.73,5.78,2.32,2.32,2.95
42.18,-3.63,-6.58,-3.64,-6.58,6.00,5.73,5.73,2.37,2.36,2.95
42.60,-3.59,-6.53,-3.59,-6.53,6.00,5.72,5.69,2.41,2.41,2.94
43.03,-3.55,-6.48,-3.54,-6.47,6.00,5.71,5.66,2.45,2.46,2.93
43.46,-3.48,-6.41,-3.48,-6.40,6.00,5.70,5.63,2.52,2.52,2.93
43.90,-3.41,-6.32,-3.43,-6.33,6.00,5.69,5.60,2.59,2.57,2.90
44.33,-3.38,-6.27,-3.39,-6.28,6.01,5.69,5.58,2.62,2.62,2.89
44.78,-3.37,-6.25,-3.36,-6.24,6.01,5.68,5.56,2.64,2.65,2.87
45.23,-3.34,-6.21,-3.33,-6.20,6.01,5.67,5.54,2.67,2.68,2.87
45.68,-3.29,-6.15,-3.30,-6.15,6.01,5.66,5.54,2.72,2.71,2.85
46.13,-3.24,-6.08,-3.25,-6.09,6.00,5.65,5.53,2.76,2.75,2.84
46.60,-3.20,-6.04,-3.20,-6.03,5.98,5.64,5.53,2.78,2.78,2.84
47.06,-3.15,-5.98,-3.15,-5.98,5.95,5.63,5.53,2.80,2.80,2.83
47.53,-3.10,-5.92,-3.10,-5.93,5.91,5.62,5.53,2.81,2.80,2.82
48.01,-3.05,-5.88,-3.05,-5.87,5.86,5.60,5.54,2.81,2.81,2.82
48.49,-3.00,-5.81,-3.00,-5.81,5.81,5.59,5.56,2.80,2.80,2.81
48.97,-2.95,-5.74,-2.95,-5.74,5.75,5.58,5.57,2.80,2.81,2.79
49.46,-2.90,-5.68,-2.90,-5.67,5.70,5.57,5.59,2.80,2.80,2.77
49.96,-2.85,-5.61,-2.87,-5.63,5.66,5.55,5.62,2.81,2.79,2.76
50.46,-2.85,-5.61,-2.85,-5.60,5.63,5.54,5.64,2.78,2.78,2.76
50.96,-2.85,-5.60,-2.85,-5.59,5.60,5.53,5.67,2.75,2.75,2.75
51.47,-2.85,-5.58,-2.85,-5.59,5.58,5.51,5.70,2.73,2.73,2.73
51.99,-2.85,-5.58,-2.85,-5.58,5.56,5.50,5.73,2.71,2.71,2.72
52.51,-2.84,-5.57,-2.85,-5.57,5.54,5.48,5.76,2.70,2.69,2.73
53.03,-2.84,-5.57,-2.82,-5.55,5.52,5.47,5.79,2.68,2.70,2.73
53.56,-2.79,-5.51,-2.79,-5.51,5.50,5.45,5.83,2.71,2.71,2.72
54.10,-2.75,-5.46,-2.77,-5.48,5.48,5.43,5.86,2.73,2.72,2.71
54.64,-2.75,-5.45,-2.75,-5.45,5.47,5.41,5.89,2.72,2.72,2.70
55.18,-2.75,-5.45,-2.74,-5.44,5.46,5.40,5.92,2.71,2.71,2.70
55.74,-2.75,-5.44,-2.76,-5.45,5.46,5.38,5.95,2.71,2.70,2.69
56.29,-2.78,-5.47,-2.79,-5.47,5.47,5.36,5.98,2.69,2.69,2.69
56.86,-2.84,-5.51,-2.83,-5.50,5.50,5.34,6.01,2.66,2.67,2.67
57.42,-2.88,-5.53,-2.88,-5.54,5.54,5.32,6.03,2.66,2.66,2.65
58.00,-2.93,-5.58,-2.94,-5.59,5.59,5.29,6.05,2.66,2.65,2.65
58.58,-3.00,-5.65,-3.00,-5.64,5.65,5.27,6.06,2.65,2.65,2.65
59.16,-3.07,-5.71,-3.08,-5.71,5.72,5.25,6.07,2.65,2.64,2.63
59.76,-3.16,-5.78,-3.15,-5.77,5.78,5.23,6.07,2.62,2.63,2.62
60.35,-3.25,-5.84,-3.24,-5.83,5.84,5.20,6.07,2.59,2.60,2.59
60.96,-3.34,-5.90,-3.36,-5.92,5.90,5.18,6.06,2.56,2.53,2.56
61.57,-3.53,-6.06,-3.55,-6.07,5.94,5.15,6.04,2.41,2.39,2.53
62.18,-3.75,-6.24,-3.76,-6.25,5.98,5.12,6.02,2.22,2.21,2.49
62.80,-4.01,-6.47,-3.96,-6.41,6.00,5.10,5.99,1.99,2.04,2.45
63.43,-4.12,-6.54,-4.12,-6.54,6.01,5.07,5.95,1.89,1.89,2.42
64.07,-4.19,-6.57,-4.25,-6.64,6.02,5.04,5.91,1.83,1.77,2.38
64.71,-4.36,-6.70,-4.32,-6.67,6.04,5.01,5.86,1.68,1.71,2.34
65.35,-4.39,-6.71,-4.36,-6.67,6.05,4.98,5.81,1.65,1.69,2.32
66.01,-4.30,-6.58,-4.34,-6.62,6.04,4.94,5.75,1.74,1.70,2.28
66.67,-4.25,-6.49,-4.25,-6.49,6.02,4.91,5.68,1.77,1.78,2.24
67.33,-4.14,-6.34,-4.13,-6.33,5.97,4.88,5.61,1.83,1.85,2.20
68.01,-3.97,-6.14,-3.98,-6.15,5.89,4.84,5.53,1.92,1.91,2.17
68.69,-3.80,-5.93,-3.79,-5.92,5.78,4.81,5.45,1.98,1.99,2.13
69.37,-3.60,-5.69,-3.59,-5.68,5.64,4.77,5.37,2.04,2.05,2.09
70.07,-3.38,-5.43,-3.40,-5.45,5.47,4.73,5.28,2.09,2.08,2.04
70.77,-3.21,-5.22,-3.21,-5.22,5.28,4.69,5.19,2.07,2.07,2.01
71.48,-3.06,-5.03,-3.06,-5.03,5.07,4.65,5.09,2.01,2.01,1.97
72.19,-2.93,-4.85,-2.93,-4.85,4.86,4.61,5.00,1.93,1.93,1.92
72.91,-2.82,-4.69,-2.80,-4.67,4.67,4.57,4.90,1.85,1.87,1.87
73.64,-2.67,-4.50,-2.67,-4.49,4.50,4.53,4.80,1.83,1.83,1.83
74.38,-2.54,-4.32,-2.55,-4.33,4.36,4.48,4.70,1.82,1.81,1.78
75.12,-2.44,-4.18,-2.47,-4.21,4.24,4.44,4.60,1.80,1.77,1.74
75.87,-2.44,-4.13,-2.44,-4.13,4.14,4.39,4.50,1.70,1.70,1.69
76.63,-2.44,-4.09,-2.41,-4.06,4.06,4.34,4.40,1.61,1.65,1.65
77.40,-2.39,-4.01,-2.38,-3.99,3.99,4.29,4.31,1.60,1.60,1.61
78.17,-2.32,-3.89,-2.35,-3.92,3.93,4.24,4.21,1.61,1.58,1.57
78.95,-2.33,-3.88,-2.34,-3.88,3.88,4.19,4.11,1.55,1.54,1.55
79.74,-2.35,-3.86,-2.35,-3.85,3.83,4.14,4.02,1.48,1.48,1.51
80.54,-2.36,-3.84,-2.34,-3.81,3.78,4.09,3.93,1.42,1.44,1.48
81.35,-2.32,-3.76,-2.31,-3.75,3.73,4.03,3.84,1.41,1.42,1.44
82.16,-2.24,-3.65,-2.27,-3.68,3.68,3.98,3.75,1.44,1.41,1.40
82.98,-2.24,-3.62,-2.24,-3.62,3.65,3.92,3.66,1.40,1.40,1.38
83.81,-2.24,-3.58,-2.23,-3.58,3.62,3.86,3.58,1.37,1.38,1.34
84.65,-2.24,-3.55,-2.24,-3.55,3.58,3.80,3.49,1.34,1.35,1.31
85.50,-2.24,-3.53,-2.25,-3.53,3.55,3.74,3.41,1.31,1.30,1.28
86.35,-2.26,-3.51,-2.28,-3.53,3.51,3.68,3.34,1.25,1.23,1.25
87.22,-2.30,-3.52,-2.31,-3.52,3.47,3.62,3.26,1.17,1.16,1.22
88.09,-2.33,-3.51,-2.30,-3.48,3.42,3.56,3.19,1.09,1.12,1.18
88.97,-2.26,-3.41,-2.25,-3.39,3.36,3.50,3.12,1.10,1.11,1.15
89.86,-2.14,-3.25,-2.16,-3.28,3.29,3.43,3.05,1.15,1.12,1.11
90.76,-2.07,-3.15,-2.09,-3.17,3.21,3.37,2.98,1.13,1.11,1.07
91.66,-2.05,-3.10,-2.05,-3.09,3.12,3.30,2.92,1.07,1.07,1.05
92.58,-2.04,-3.04,-2.02,-3.03,3.03,3.24,2.86,0.99,1.01,1.00
93.51,-1.98,-2.95,-1.97,-2.94,2.94,3.17,2.80,0.96,0.97,0.97
94.44,-1.89,-2.84,-1.91,-2.85,2.85,3.10,2.74,0.96,0.94,0.95
95.39,-1.84,-2.76,-1.86,-2.78,2.77,3.04,2.69,0.93,0.91,0.92
96.34,-1.84,-2.72,-1.83,-2.71,2.70,2.97,2.63,0.86,0.87,0.88
97.30,-1.82,-2.67,-1.79,-2.64,2.64,2.90,2.58,0.82,0.85,0.85
98.28,-1.74,-2.56,-1.74,-2.57,2.57,2.84,2.54,0.83,0.83,0.82
99.26,-1.67,-2.46,-1.70,-2.49,2.52,2.77,2.49,0.84,0.82,0.79
100.25,-1.68,-2.45,-1.68,-2.45,2.47,2.70,2.44,0.78,0.78,0.76
101.25,-1.70,-2.44,-1.69,-2.42,2.42,2.64,2.40,0.72,0.73,0.74
102.27,-1.70,-2.41,-1.69,-2.39,2.38,2.57,2.36,0.68,0.69,0.71
103.29,-1.66,-2.33,-1.68,-2.35,2.34,2.51,2.32,0.67,0.66,0.67
104.32,-1.65,-2.30,-1.67,-2.31,2.30,2.45,2.28,0.65,0.63,0.65
105.37,-1.67,-2.29,-1.66,-2.27,2.27,2.39,2.24,0.60,0.61,0.62
106.42,-1.66,-2.25,-1.65,-2.24,2.24,2.33,2.20,0.58,0.59,0.59
107.48,-1.63,-2.18,-1.65,-2.20,2.21,2.27,2.17,0.58,0.57,0.55
108.56,-1.64,-2.15,-1.64,-2.16,2.19,2.21,2.14,0.54,0.54,0.51
109.64,-1.66,-2.14,-1.66,-2.14,2.16,2.16,2.10,0.49,0.50,0.48
110.74,-1.68,-2.12,-1.69,-2.13,2.12,2.10,2.07,0.44,0.43,0.44
111.85,-1.70,-2.12,-1.70,-2.11,2.08,2.05,2.04,0.37,0.38,0.42
112.97,-1.71,-2.09,-1.69,-2.07,2.03,2.00,2.01,0.32,0.33,0.37
114.10,-1.65,-2.00,-1.66,-2.00,1.98,1.95,1.97,0.32,0.32,0.35
115.24,-1.61,-1.93,-1.60,-1.92,1.92,1.90,1.94,0.31,0.32,0.32
116.39,-1.54,-1.82,-1.55,-1.84,1.87,1.85,1.91,0.33,0.32,0.28
117.55,-1.51,-1.77,-1.52,-1.78,1.81,1.81,1.88,0.30,0.29,0.26
118.73,-1.51,-1.75,-1.50,-1.74,1.77,1.76,1.85,0.26,0.26,0.23
119.92,-1.50,-1.73,-1.50,-1.72,1.73,1.72,1.82,0.23,0.23,0.23
121.12,-1.49,-1.69,-1.49,-1.70,1.70,1.68,1.79,0.20,0.20,0.20
122.33,-1.48,-1.67,-1.48,-1.67,1.67,1.64,1.76,0.19,0.18,0.18
123.55,-1.48,-1.66,-1.48,-1.65,1.64,1.60,1.73,0.16,0.16,0.18
124.79,-1.47,-1.63,-1.48,-1.64,1.62,1.56,1.70,0.15,0.14,0.16
126.03,-1.47,-1.62,-1.46,-1.61,1.59,1.52,1.67,0.12,0.13,0.15
127.29,-1.43,-1.57,-1.43,-1.56,1.56,1.48,1.64,0.13,0.13,0.14
128.57,-1.38,-1.50,-1.39,-1.51,1.52,1.44,1.61,0.14,0.13,0.12
129.85,-1.34,-1.45,-1.35,-1.46,1.48,1.40,1.57,0.13,0.12,0.11
131.15,-1.34,-1.43,-1.34,-1.44,1.43,1.37,1.54,0.09,0.09,0.09
132.46,-1.33,-1.41,-1.32,-1.40,1.39,1.33,1.51,0.06,0.07,0.08
133.79,-1.31,-1.38,-1.29,-1.35,1.35,1.29,1.47,0.04,0.06,0.07
135.12,-1.22,-1.27,-1.25,-1.31,1.31,1.26,1.44,0.09,0.06,0.05
136.48,-1.22,-1.27,-1.22,-1.26,1.28,1.22,1.40,0.06,0.06,0.05
137.84,-1.22,-1.25,-1.21,-1.24,1.25,1.19,1.37,0.03,0.04,0.03
139.22,-1.22,-1.23,-1.22,-1.23,1.23,1.15,1.33,0.01,0.01,0.01
140.61,-1.22,-1.21,-1.22,-1.21,1.21,1.12,1.30,-0.01,-0.01,-0.01
142.02,-1.21,-1.20,-1.21,-1.20,1.20,1.08,1.26,-0.01,-0.02,-0.01
143.44,-1.21,-1.18,-1.21,-1.18,1.18,1.05,1.23,-0.03,-0.03,-0.03
144.87,-1.21,-1.15,-1.21,-1.16,1.16,1.01,1.19,-0.05,-0.05,-0.06
146.32,-1.21,-1.13,-1.21,-1.14,1.13,0.98,1.16,-0.08,-0.08,-0.08
147.78,-1.21,-1.11,-1.22,-1.11,1.09,0.94,1.12,-0.12,-0.13,-0.10
149.26,-1.22,-1.09,-1.21,-1.07,1.04,0.91,1.09,-0.18,-0.17,-0.14
150.75,-1.20,-1.01,-1.19,-1.00,0.98,0.88,1.05,-0.22,-0.21,-0.19
152.26,-1.14,-0.90,-1.15,-0.91,0.91,0.84,1.02,-0.23,-0.24,-0.25
153.78,-1.11,-0.81,-1.12,-0.82,0.84,0.81,0.98,-0.28,-0.29,-0.30
155.32,-1.11,-0.75,-1.11,-0.75,0.76,0.78,0.95,-0.36,-0.35,-0.36
156.88,-1.11,-0.69,-1.11,-0.68,0.68,0.74,0.91,-0.43,-0.43,-0.42
158.44,-1.11,-0.61,-1.11,-0.61,0.61,0.71,0.88,-0.50,-0.50,-0.50
160.03,-1.11,-0.54,-1.11,-0.54,0.56,0.68,0.84,-0.55,-0.55,-0.57
161.63,-1.11,-0.48,-1.11,-0.48,0.52,0.64,0.81,-0.59,-0.59,-0.63
163.24,-1.12,-0.44,-1.12,-0.45,0.48,0.61,0.78,-0.64,-0.65,-0.68
164.88,-1.14,-0.42,-1.16,-0.43,0.44,0.58,0.74,-0.70,-0.72,-0.72
166.53,-1.20,-0.44,-1.21,-0.45,0.40,0.54,0.71,-0.80,-0.80,-0.76
168.19,-1.23,-0.44,-1.22,-0.43,0.37,0.51,0.68,-0.86,-0.85,-0.79
169.87,-1.23,-0.42,-1.18,-0.37,0.34,0.48,0.64,-0.90,-0.85,-0.82
171.57,-1.08,-0.26,-1.12,-0.30,0.31,0.44,0.61,-0.77,-0.81,-0.82
173.29,-1.05,-0.22,-1.07,-0.24,0.29,0.41,0.58,-0.77,-0.78,-0.83
175.02,-1.05,-0.22,-1.04,-0.21,0.26,0.38,0.55,-0.79,-0.78,-0.83
176.77,-1.06,-0.23,-1.05,-0.22,0.25,0.35,0.52,-0.82,-0.81,-0.83
178.54,-1.06,-0.23,-1.06,-0.24,0.23,0.32,0.49,-0.83,-0.83,-0.83
180.32,-1.05,-0.24,-1.06,-0.24,0.23,0.28,0.46,-0.83,-0.83,-0.81
182.13,-1.05,-0.25,-1.05,-0.25,0.23,0.25,0.43,-0.82,-0.82,-0.80
183.95,-1.04,-0.24,-1.04,-0.24,0.23,0.22,0.40,-0.81,-0.81,-0.80
185.79,-1.03,-0.24,-1.03,-0.23,0.23,0.19,0.37,-0.80,-0.80,-0.80
187.65,-1.01,-0.20,-1.02,-0.21,0.21,0.16,0.34,-0.80,-0.80,-0.81
189.52,-1.00,-0.19,-1.00,-0.19,0.19,0.13,0.31,-0.82,-0.82,-0.81
191.42,-0.99,-0.17,-0.99,-0.17,0.15,0.10,0.28,-0.84,-0.84,-0.83
193.33,-0.97,-0.13,-0.97,-0.13,0.11,0.08,0.25,-0.86,-0.86,-0.84
195.27,-0.94,-0.09,-0.93,-0.08,0.07,0.05,0.22,-0.87,-0.86,-0.85
197.22,-0.88,-0.02,-0.88,-0.02,0.03,0.03,0.19,-0.85,-0.85,-0.86
199.19,-0.83,0.05,-0.84,0.03,-0.01,0.00,0.17,-0.84,-0.85,-0.88
201.18,-0.82,0.07,-0.82,0.07,-0.04,-0.02,0.14,-0.87,-0.87,-0.89
203.19,-0.82,0.08,-0.82,0.09,-0.07,-0.04,0.11,-0.90,-0.89,-0.90
205.23,-0.82,0.10,-0.82,0.09,-0.10,-0.06,0.09,-0.92,-0.92,-0.92
207.28,-0.82,0.10,-0.82,0.11,-0.12,-0.07,0.06,-0.94,-0.94,-0.92
209.35,-0.82,0.12,-0.82,0.12,-0.13,-0.09,0.04,-0.95,-0.95,-0.94
211.44,-0.82,0.15,-0.82,0.14,-0.14,-0.10,0.01,-0.96,-0.96,-0.97
213.56,-0.82,0.15,-0.82,0.15,-0.14,-0.11,-0.01,-0.97,-0.97,-0.97
215.69,-0.83,0.14,-0.83,0.15,-0.15,-0.11,-0.03,-0.98,-0.98,-0.98
217.85,-0.83,0.15,-0.83,0.15,-0.16,-0.12,-0.05,-0.99,-0.99,-0.98
220.03,-0.83,0.16,-0.84,0.16,-0.16,-0.12,-0.07,-0.99,-0.99,-0.99
222.23,-0.84,0.17,-0.84,0.16,-0.16,-0.12,-0.09,-1.00,-1.00,-1.01
224.45,-0.84,0.15,-0.84,0.16,-0.16,-0.12,-0.11,-1.00,-1.00,-1.00
226.70,-0.84,0.15,-0.84,0.15,-0.15,-0.11,-0.13,-0.99,-0.99,-0.99
228.96,-0.83,0.15,-0.84,0.14,-0.15,-0.10,-0.15,-0.98,-0.99,-0.98
231.25,-0.83,0.13,-0.83,0.14,-0.14,-0.09,-0.16,-0.98,-0.97,-0.97
233.57,-0.82,0.13,-0.82,0.13,-0.14,-0.08,-0.17,-0.96,-0.96,-0.95
235.90,-0.80,0.14,-0.81,0.13,-0.13,-0.07,-0.18,-0.93,-0.94,-0.94
238.26,-0.79,0.13,-0.79,0.13,-0.13,-0.06,-0.19,-0.92,-0.91,-0.92
240.64,-0.77,0.13,-0.78,0.12,-0.12,-0.04,-0.20,-0.89,-0.90,-0.90
243.05,-0.76,0.10,-0.76,0.11,-0.11,-0.02,-0.21,-0.88,-0.87,-0.87
245.48,-0.74,0.10,-0.74,0.10,-0.11,-0.00,-0.21,-0.85,-0.85,-0.84
247.93,-0.71,0.09,-0.71,0.10,-0.10,0.01,-0.22,-0.81,-0.81,-0.81
250.41,-0.69,0.10,-0.69,0.09,-0.09,0.03,-0.22,-0.78,-0.78,-0.79
252.92,-0.67,0.08,-0.67,0.08,-0.08,0.05,-0.22,-0.75,-0.75,-0.75
255.45,-0.66,0.07,-0.66,0.07,-0.07,0.08,-0.21,-0.73,-0.73,-0.73
258.00,-0.65,0.05,-0.65,0.05,-0.06,0.10,-0.21,-0.71,-0.71,-0.70
260.58,-0.65,0.04,-0.65,0.03,-0.03,0.12,-0.20,-0.69,-0.69,-0.69
263.19,-0.65,-0.00,-0.65,0.01,-0.00,0.14,-0.20,-0.66,-0.65,-0.65
265.82,-0.65,-0.02,-0.65,-0.01,0.03,0.16,-0.19,-0.62,-0.61,-0.64
268.48,-0.65,-0.04,-0.66,-0.05,0.07,0.18,-0.18,-0.58,-0.58,-0.61
271.16,-0.66,-0.09,-0.68,-0.10,0.12,0.20,-0.16,-0.55,-0.57,-0.57
273.87,-0.73,-0.18,-0.72,-0.17,0.16,0.22,-0.15,-0.57,-0.56,-0.56
276.61,-0.76,-0.24,-0.75,-0.23,0.20,0.25,-0.14,-0.56,-0.55,-0.52
279.38,-0.76,-0.27,-0.77,-0.28,0.24,0.27,-0.12,-0.52,-0.53,-0.49
282.17,-0.76,-0.30,-0.76,-0.30,0.29,0.29,-0.10,-0.48,-0.48,-0.47
284.99,-0.75,-0.32,-0.75,-0.31,0.33,0.31,-0.08,-0.42,-0.42,-0.43
287.84,-0.74,-0.33,-0.74,-0.33,0.37,0.33,-0.06,-0.37,-0.37,-0.41
290.72,-0.73,-0.36,-0.75,-0.38,0.40,0.35,-0.04,-0.33,-0.35,-0.37
293.63,-0.77,-0.43,-0.78,-0.43,0.43,0.37,-0.02,-0.34,-0.34,-0.35
296.57,-0.82,-0.51,-0.80,-0.48,0.46,0.39,0.00,-0.36,-0.34,-0.31
299.53,-0.80,-0.52,-0.80,-0.52,0.49,0.41,0.03,-0.31,-0.32,-0.28
302.53,-0.78,-0.52,-0.79,-0.54,0.52,0.43,0.05,-0.26,-0.27,-0.26
305.55,-0.77,-0.56,-0.77,-0.55,0.55,0.45,0.08,-0.22,-0.22,-0.22
308.61,-0.76,-0.56,-0.75,-0.56,0.58,0.47,0.10,-0.18,-0.17,-0.20
311.69,-0.75,-0.58,-0.75,-0.58,0.61,0.49,0.13,-0.14,-0.14,-0.17
314.81,-0.74,-0.60,-0.77,-0.62,0.64,0.51,0.16,-0.10,-0.12,-0.14
317.96,-0.80,-0.68,-0.79,-0.67,0.67,0.53,0.18,-0.13,-0.12,-0.12
321.14,-0.84,-0.73,-0.83,-0.72,0.70,0.55,0.21,-0.14,-0.13,-0.12
324.35,-0.85,-0.75,-0.85,-0.76,0.73,0.57,0.24,-0.12,-0.12,-0.10
327.59,-0.85,-0.77,-0.86,-0.78,0.76,0.59,0.27,-0.09,-0.10,-0.08
330.87,-0.86,-0.79,-0.86,-0.79,0.79,0.61,0.30,-0.08,-0.07,-0.07
334.18,-0.86,-0.81,-0.86,-0.81,0.81,0.63,0.33,-0.05,-0.05,-0.05
337.52,-0.86,-0.82,-0.85,-0.82,0.84,0.64,0.36,-0.02,-0.01,-0.04
340.90,-0.86,-0.84,-0.86,-0.83,0.87,0.66,0.39,0.00,0.00,-0.02
344.30,-0.86,-0.85,-0.89,-0.87,0.89,0.68,0.42,0.02,-0.01,-0.02
347.75,-0.94,-0.92,-0.93,-0.92,0.90,0.70,0.45,-0.04,-0.03,-0.02
351.23,-0.98,-0.97,-0.96,-0.95,0.91,0.72,0.48,-0.07,-0.05,-0.01
354.74,-0.97,-0.96,-0.97,-0.97,0.93,0.74,0.51,-0.05,-0.05,-0.01
358.28,-0.95,-0.95,-0.96,-0.96,0.94,0.76,0.54,-0.01,-0.02,-0.00
361.87,-0.95,-0.95,-0.94,-0.94,0.96,0.78,0.57,0.01,0.02,-0.00
365.49,-0.94,-0.95,-0.93,-0.93,0.98,0.80,0.61,0.04,0.05,0.01
369.14,-0.92,-0.92,-0.95,-0.94,1.00,0.82,0.64,0.08,0.05,-0.00
372.83,-0.96,-0.96,-0.99,-0.99,1.02,0.84,0.67,0.05,0.02,-0.01
376.56,-1.09,-1.09,-1.05,-1.05,1.04,0.86,0.71,-0.06,-0.02,-0.01
380.33,-1.12,-1.12,-1.11,-1.11,1.06,0.88,0.74,-0.07,-0.05,0.00
384.13,-1.11,-1.11,-1.12,-1.12,1.07,0.90,0.77,-0.04,-0.05,0.00
387.97,-1.10,-1.09,-1.11,-1.10,1.09,0.92,0.81,-0.01,-0.02,-0.01
391.85,-1.10,-1.08,-1.10,-1.09,1.10,0.94,0.84,-0.00,-0.00,-0.02
395.77,-1.10,-1.09,-1.10,-1.08,1.10,0.96,0.88,-0.00,-0.00,-0.01
399.73,-1.10,-1.08,-1.10,-1.08,1.09,0.98,0.91,-0.01,-0.01,-0.02
403.72,-1.10,-1.08,-1.10,-1.08,1.09,1.00,0.94,-0.02,-0.02,-0.02
407.76,-1.10,-1.07,-1.10,-1.07,1.08,1.02,0.98,-0.03,-0.03,-0.03
411.84,-1.11,-1.08,-1.11,-1.08,1.07,1.04,1.01,-0.04,-0.04,-0.03
415.96,-1.11,-1.08,-1.11,-1.08,1.07,1.06,1.05,-0.04,-0.04,-0.03
420.12,-1.11,-1.08,-1.11,-1.07,1.07,1.08,1.08,-0.04,-0.04,-0.03
424.32,-1.10,-1.07,-1.10,-1.07,1.07,1.10,1.11,-0.03,-0.03,-0.04
428.56,-1.09,-1.07,-1.09,-1.06,1.08,1.12,1.15,-0.01,-0.01,-0.03
432.85,-1.08,-1.07,-1.07,-1.06,1.08,1.14,1.18,-0.00,0.01,-0.02
437.18,-1.05,-1.04,-1.08,-1.08,1.08,1.16,1.21,0.03,0.00,-0.01
441.55,-1.08,-1.11,-1.08,-1.11,1.09,1.17,1.24,0.01,0.01,0.03
445.96,-1.10,-1.16,-1.07,-1.13,1.10,1.19,1.27,0.00,0.04,0.06
450.42,-1.02,-1.11,-1.03,-1.13,1.11,1.21,1.29,0.09,0.08,0.09
454.93,-0.96,-1.10,-0.96,-1.10,1.12,1.23,1.32,0.16,0.16,0.14
459.48,-0.90,-1.09,-0.92,-1.11,1.13,1.25,1.35,0.22,0.21,0.19
464.07,-0.88,-1.12,-0.90,-1.15,1.13,1.27,1.37,0.25,0.23,0.24
468.71,-0.92,-1.22,-0.88,-1.18,1.15,1.29,1.39,0.23,0.27,0.30
473.40,-0.85,-1.19,-0.82,-1.17,1.18,1.30,1.41,0.33,0.36,0.34
478.13,-0.76,-1.16,-0.77,-1.16,1.21,1.32,1.43,0.45,0.44,0.40
482.91,-0.67,-1.11,-0.75,-1.20,1.25,1.34,1.45,0.58,0.49,0.44
