frequency,raw
20,-2.92
21,-2.44
22,-2.11
23,-1.79
24,-1.46
25,-1.14
26,-0.81
27,-0.49
28,-0.17
29,-0.02
30,0.20
31,0.48
32,0.72
33,0.81
34,1.12
35,1.13
36,1.46
37,1.59
38,1.78
39,1.86
40,2.10
41,2.10
42,2.43
43,2.48
44,2.74
45,2.75
46,2.91
47,3.08
48,3.08
49,3.30
50,3.40
51,3.40
52,3.49
53,3.70
54,3.73
55,3.73
56,3.73
57,4.03
58,4.05
59,4.05
60,4.05
61,4.16
62,4.34
63,4.37
64,4.37
65,4.39
66,4.56
67,4.70
68,4.70
69,4.70
70,4.70
71,4.70
72,4.73
73,4.89
74,5.02
75,5.02
76,5.02
77,5.02
78,5.02
79,5.02
80,5.11
81,5.25
82,5.35
83,5.35
84,5.35
85,5.35
86,5.35
87,5.35
88,5.35
89,5.35
90,5.35
91,5.35
92,5.35
93,5.35
94,5.47
95,5.59
96,5.67
97,5.67
98,5.67
99,5.67
100,5.67
101,5.67
102,5.67
104,5.67
105,5.67
106,5.67
107,5.67
108,5.67
109,5.67
110,5.67
111,5.67
112,5.67
113,5.67
114,5.67
115,5.67
117,5.83
118,5.93
119,6.00
120,6.00
121,6.00
123,6.00
124,6.00
125,6.00
126,6.00
128,6.00
129,6.00
130,6.00
131,6.00
133,6.00
134,6.00
135,6.00
137,6.00
138,6.00
140,6.00
141,6.00
142,6.00
144,6.00
145,6.00
147,6.00
148,6.00
150,6.00
151,6.00
153,6.00
154,6.00
156,6.00
157,6.00
159,6.00
160,6.00
162,6.00
164,6.00
165,6.00
167,6.00
169,6.00
170,6.00
172,6.00
174,6.00
175,6.00
177,6.00
179,6.00
181,6.00
183,6.00
184,6.00
186,6.00
188,6.00
190,6.00
192,6.00
194,6.00
196,6.00
198,6.00
200,6.00
202,6.00
204,6.00
206,6.00
208,6.00
210,6.00
212,6.00
214,6.00
216,6.00
218,6.00
221,6.00
223,6.00
225,5.91
227,5.81
229,5.71
232,5.67
234,5.67
236,5.67
239,5.67
241,5.67
244,5.67
246,5.67
248,5.67
251,5.67
253,5.67
256,5.67
259,5.67
261,5.67
264,5.56
266,5.51
269,5.51
272,5.39
274,5.35
277,5.35
280,5.35
283,5.35
286,5.35
288,5.35
291,5.35
294,5.35
297,5.35
300,5.35
303,5.31
306,5.19
309,5.19
312,5.14
316,5.02
319,5.02
322,5.02
325,5.02
328,5.02
332,5.02
335,5.02
338,5.02
342,4.91
345,4.81
349,4.70
352,4.70
356,4.70
359,4.70
363,4.70
366,4.70
370,4.67
374,4.55
377,4.46
381,4.37
385,4.37
389,4.37
393,4.37
397,4.37
401,4.37
405,4.37
409,4.37
413,4.37
417,4.29
421,4.19
425,4.08
430,4.05
434,4.05
438,4.05
443,4.05
447,4.05
451,4.05
456,3.93
460,3.83
465,3.73
470,3.73
474,3.73
479,3.73
484,3.73
489,3.63
494,3.52
499,3.40
504,3.40
509,3.40
514,3.40
519,3.40
524,3.34
529,3.23
535,3.10
540,3.08
545,3.08
551,3.08
556,3.08
562,2.99
568,2.75
573,2.75
579,2.75
585,2.75
591,2.75
596,2.69
602,2.58
608,2.47
615,2.43
621,2.43
627,2.43
633,2.43
639,2.36
646,2.11
652,2.10
659,2.10
665,2.10
672,2.10
679,1.96
686,1.78
692,1.78
699,1.78
706,1.78
713,1.78
721,1.58
728,1.46
735,1.46
742,1.46
750,1.46
757,1.45
765,1.21
773,1.13
780,1.13
788,1.13
796,1.13
804,1.10
812,0.99
820,0.87
828,0.81
837,0.81
845,0.81
853,0.81
862,0.80
871,0.68
879,0.58
888,0.48
897,0.48
906,0.48
915,0.45
924,0.34
933,0.23
943,0.16
952,0.16
962,0.16
971,0.16
981,0.15
991,0.03
1001,-0.00
1011,-0.03
1021,-0.14
1031,-0.17
1041,-0.17
1052,-0.17
1062,-0.17
1073,-0.17
1084,-0.17
1094,-0.17
1105,-0.17
1116,-0.17
1128,-0.17
1139,-0.17
1150,-0.17
1162,-0.17
1173,-0.17
1185,-0.17
1197,-0.17
1209,-0.17
1221,-0.17
1233,-0.17
1246,-0.05
1258,0.06
1271,0.16
1283,0.16
1296,0.16
1309,0.16
1322,0.16
1335,0.16
1349,0.16
1362,0.16
1376,0.16
1390,0.16
1404,0.16
1418,0.28
1432,0.39
1446,0.48
1461,0.48
1475,0.48
1490,0.48
1505,0.48
1520,0.48
1535,0.48
1550,0.48
1566,0.48
1582,0.54
1597,0.64
1613,0.76
1629,0.81
1646,0.81
1662,0.81
1679,0.89
1696,1.00
1713,1.11
1730,1.13
1747,1.13
1764,1.13
1782,1.34
1800,1.46
1818,1.46
1836,1.46
1854,1.58
1873,1.78
1892,1.78
1911,1.86
1930,1.97
1949,2.08
1969,2.10
1988,2.18
2008,2.41
2028,2.43
2048,2.48
2069,2.60
2090,2.71
2111,2.82
2132,2.93
2153,3.04
2175,3.16
2196,3.27
2218,3.38
2240,3.49
2263,3.61
2285,3.72
2308,3.73
2331,3.83
2355,4.05
2378,4.05
2402,4.19
2426,4.37
2450,4.37
2475,4.37
2500,4.44
2525,4.67
2550,4.70
2575,4.70
2601,4.70
2627,4.81
2653,4.92
2680,5.02
2707,5.02
2734,5.02
2761,5.02
2789,5.02
2817,5.02
2845,5.02
2873,5.02
2902,5.02
2931,5.02
2960,5.02
2990,4.92
3020,4.92
3050,5.02
3080,5.02
3111,5.02
3142,5.02
3174,5.02
3206,5.02
3238,5.02
3270,5.02
3303,5.02
3336,5.02
3369,5.02
3403,5.02
3437,5.02
3471,5.03
3506,5.15
3541,5.26
3576,5.35
3612,5.35
3648,5.43
3685,5.55
3721,5.66
3759,5.67
3796,5.72
3834,5.83
3873,5.95
3911,6.00
3950,6.00
3990,6.00
4030,6.07
4070,6.18
4111,6.29
4152,6.32
4193,6.32
4235,6.32
4278,6.32
4321,6.32
4364,6.32
4407,6.32
4451,6.26
4496,6.15
4541,6.03
4586,5.92
4632,5.81
4679,5.70
4725,5.50
4773,5.27
4820,5.05
4868,4.73
4917,4.44
4966,4.21
5016,3.76
5066,3.44
5117,3.19
5168,2.74
5220,2.29
5272,1.84
5325,1.39
5378,0.85
5432,0.33
5486,-0.12
5541,-0.57
5596,-1.12
5652,-1.79
5709,-2.24
5766,-2.82
5823,-3.46
5882,-3.92
5940,-4.36
6000,-4.81
6060,-5.26
6120,-5.80
6182,-6.33
6244,-6.78
6306,-7.22
6369,-7.62
6433,-7.96
6497,-8.29
6562,-8.70
6628,-9.12
6694,-9.34
6761,-9.56
6828,-9.81
6897,-10.16
6966,-10.49
7035,-10.83
7106,-11.17
7177,-11.61
7249,-11.95
7321,-12.17
7394,-12.28
7468,-12.39
7543,-12.52
7618,-12.75
7694,-12.81
7771,-12.81
7849,-12.81
7928,-12.81
8007,-12.81
8087,-12.81
8168,-12.81
8250,-12.76
8332,-12.65
8415,-12.54
8499,-12.36
8584,-12.12
8670,-11.78
8757,-11.52
8845,-11.23
8933,-10.79
9022,-10.43
9113,-10.05
9204,-9.60
9296,-9.15
9389,-8.64
9483,-8.08
9577,-7.52
9673,-7.03
9770,-6.54
9868,-5.86
9966,-5.20
10066,-4.58
10167,-4.13
10268,-3.68
10371,-3.28
10475,-2.94
10579,-2.71
10685,-2.49
10792,-2.26
10900,-2.04
11009,-1.81
11119,-1.61
11230,-1.49
11343,-1.30
11456,-1.07
11571,-0.85
11686,-0.81
11803,-0.81
11921,-0.81
12040,-0.81
12161,-0.87
12282,-0.99
12405,-1.22
12529,-1.44
12655,-1.67
12781,-1.89
12909,-2.20
13038,-2.54
13168,-2.87
13300,-3.31
13433,-3.66
13567,-3.89
13703,-4.44
13840,-4.94
13978,-5.40
14118,-5.96
14259,-6.67
14402,-7.48
14546,-8.38
14692,-9.45
14838,-10.67
14987,-12.13
15137,-13.40
15288,-14.54
15441,-15.55
15595,-16.56
15751,-17.51
15909,-18.39
16068,-19.06
16229,-19.67
16391,-20.23
16555,-20.79
16720,-21.26
16888,-21.75
17056,-22.31
17227,-22.87
17399,-23.39
17573,-23.84
17749,-24.51
17926,-25.24
18106,-26.04
18287,-26.94
18470,-27.84
18654,-28.74
18841,-29.64
19029,-30.27
19220,-30.76
19412,-31.10
19606,-31.24
19802,-31.35
20000,-31.46
