frequency,raw,smoothed,error,error_smoothed,equalization,parametric_eq,fixed_band_eq,equalized_raw,equalized_smoothed,target
20.00,15.22,15.22,6.14,6.14,-6.14,-5.63,-2.62,9.08,9.08,9.08
20.20,15.19,15.19,6.11,6.11,-6.11,-5.63,-2.70,9.08,9.08,9.08
20.40,15.16,15.16,6.08,6.08,-6.08,-5.63,-2.78,9.08,9.08,9.08
20.61,15.13,15.13,6.05,6.05,-6.05,-5.63,-2.86,9.08,9.08,9.08
20.81,15.10,15.10,6.02,6.02,-6.02,-5.63,-2.94,9.08,9.08,9.08
21.02,15.07,15.07,5.99,5.99,-5.99,-5.62,-3.02,9.08,9.08,9.07
21.23,15.04,15.04,5.96,5.96,-5.96,-5.62,-3.11,9.08,9.08,9.07
21.44,15.01,15.00,5.93,5.93,-5.93,-5.62,-3.20,9.08,9.07,9.07
21.66,14.97,14.97,5.90,5.90,-5.90,-5.62,-3.29,9.07,9.07,9.07
21.87,14.94,14.94,5.87,5.87,-5.87,-5.62,-3.38,9.07,9.07,9.07
22.09,14.91,14.91,5.84,5.84,-5.84,-5.62,-3.48,9.07,9.07,9.07
22.31,14.88,14.88,5.81,5.81,-5.81,-5.62,-3.58,9.07,9.07,9.07
22.54,14.85,14.84,5.78,5.78,-5.77,-5.62,-3.68,9.07,9.07,9.07
22.76,14.81,14.81,5.74,5.74,-5.74,-5.62,-3.79,9.06,9.07,9.07
22.99,14.78,14.78,5.71,5.71,-5.71,-5.62,-3.89,9.07,9.07,9.07
23.22,14.75,14.75,5.68,5.68,-5.68,-5.62,-4.00,9.07,9.06,9.07
23.45,14.72,14.72,5.65,5.65,-5.65,-5.62,-4.11,9.07,9.07,9.07
23.69,14.69,14.69,5.62,5.62,-5.62,-5.62,-4.23,9.07,9.07,9.06
23.92,14.66,14.66,5.60,5.60,-5.59,-5.61,-4.34,9.06,9.06,9.06
24.16,14.63,14.63,5.57,5.57,-5.56,-5.61,-4.46,9.06,9.06,9.06
24.40,14.60,14.60,5.54,5.54,-5.54,-5.61,-4.58,9.06,9.06,9.06
24.65,14.57,14.57,5.51,5.51,-5.51,-5.61,-4.71,9.06,9.06,9.06
24.89,14.54,14.54,5.48,5.48,-5.48,-5.61,-4.83,9.05,9.06,9.06
25.14,14.52,14.51,5.46,5.46,-5.46,-5.61,-4.96,9.06,9.05,9.06
25.39,14.49,14.49,5.43,5.44,-5.44,-5.61,-5.08,9.05,9.05,9.06
25.65,14.47,14.47,5.41,5.42,-5.41,-5.61,-5.21,9.05,9.05,9.05
25.91,14.45,14.45,5.40,5.40,-5.39,-5.60,-5.34,9.05,9.05,9.05
26.16,14.43,14.43,5.38,5.38,-5.38,-5.60,-5.47,9.05,9.05,9.05
26.43,14.41,14.41,5.36,5.36,-5.36,-5.60,-5.59,9.05,9.05,9.05
26.69,14.39,14.39,5.34,5.34,-5.34,-5.60,-5.72,9.05,9.05,9.05
26.96,14.37,14.37,5.32,5.32,-5.32,-5.60,-5.84,9.04,9.04,9.05
27.23,14.35,14.35,5.30,5.31,-5.31,-5.60,-5.97,9.04,9.04,9.04
27.50,14.34,14.34,5.30,5.30,-5.30,-5.60,-6.09,9.04,9.04,9.04
27.77,14.33,14.32,5.29,5.28,-5.28,-5.59,-6.20,9.04,9.04,9.04
28.05,14.31,14.31,5.27,5.27,-5.27,-5.59,-6.31,9.04,9.04,9.04
28.33,14.30,14.30,5.26,5.26,-5.26,-5.59,-6.42,9.03,9.04,9.04
28.62,14.29,14.29,5.25,5.26,-5.26,-5.59,-6.52,9.03,9.03,9.03
28.90,14.29,14.28,5.26,5.25,-5.25,-5.59,-6.61,9.04,9.03,9.03
29.19,14.28,14.28,5.25,5.25,-5.25,-5.58,-6.70,9.03,9.03,9.03
29.48,14.27,14.27,5.24,5.25,-5.25,-5.58,-6.78,9.02,9.03,9.03
29.78,14.27,14.27,5.24,5.24,-5.24,-5.58,-6.85,9.02,9.02,9.02
30.08,14.27,14.27,5.25,5.25,-5.25,-5.58,-6.91,9.02,9.02,9.02
30.38,14.27,14.27,5.25,5.25,-5.25,-5.58,-6.97,9.02,9.02,9.02
30.68,14.27,14.27,5.25,5.25,-5.25,-5.57,-7.01,9.02,9.02,9.02
30.99,14.27,14.27,5.26,5.25,-5.26,-5.57,-7.04,9.01,9.01,9.01
31.30,14.27,14.27,5.26,5.26,-5.26,-5.57,-7.06,9.01,9.01,9.01
31.61,14.28,14.28,5.27,5.27,-5.27,-5.56,-7.07,9.01,9.01,9.01
31.93,14.29,14.28,5.28,5.28,-5.28,-5.56,-7.07,9.01,9.00,9.00
32.24,14.29,14.29,5.29,5.29,-5.29,-5.56,-7.06,9.00,9.00,9.00
32.57,14.30,14.30,5.30,5.30,-5.30,-5.56,-7.04,9.00,9.00,9.00
32.89,14.31,14.31,5.32,5.31,-5.32,-5.55,-7.01,8.99,8.99,8.99
33.22,14.32,14.32,5.33,5.33,-5.33,-5.55,-6.97,8.99,8.99,8.99
33.55,14.34,14.34,5.35,5.35,-5.35,-5.55,-6.93,8.99,8.99,8.99
33.89,14.35,14.35,5.37,5.37,-5.37,-5.54,-6.87,8.98,8.98,8.98
34.23,14.37,14.37,5.39,5.39,-5.39,-5.54,-6.81,8.98,8.98,8.98
34.57,14.38,14.38,5.41,5.41,-5.41,-5.53,-6.74,8.97,8.97,8.97
34.92,14.40,14.40,5.43,5.43,-5.43,-5.53,-6.67,8.97,8.97,8.97
35.27,14.42,14.42,5.45,5.45,-5.45,-5.53,-6.60,8.96,8.96,8.96
35.62,14.44,14.44,5.48,5.48,-5.48,-5.52,-6.52,8.96,8.96,8.96
35.97,14.46,14.45,5.50,5.50,-5.50,-5.52,-6.43,8.96,8.95,8.95
36.33,14.47,14.47,5.52,5.52,-5.52,-5.51,-6.35,8.94,8.95,8.95
36.70,14.49,14.49,5.55,5.55,-5.55,-5.51,-6.26,8.94,8.94,8.94
37.06,14.51,14.51,5.57,5.57,-5.57,-5.50,-6.18,8.94,8.94,8.94
37.43,14.53,14.53,5.60,5.59,-5.59,-5.50,-6.09,8.93,8.93,8.93
37.81,14.54,14.54,5.61,5.62,-5.62,-5.49,-6.00,8.92,8.93,8.93
38.19,14.56,14.56,5.64,5.64,-5.64,-5.48,-5.92,8.92,8.92,8.92
38.57,14.57,14.57,5.66,5.66,-5.66,-5.48,-5.83,8.91,8.91,8.91
38.95,14.58,14.58,5.67,5.67,-5.68,-5.47,-5.75,8.90,8.90,8.91
39.34,14.59,14.59,5.69,5.69,-5.69,-5.46,-5.67,8.90,8.90,8.90
39.74,14.60,14.60,5.71,5.71,-5.71,-5.46,-5.59,8.89,8.89,8.89
40.14,14.61,14.61,5.72,5.72,-5.72,-5.45,-5.51,8.89,8.88,8.88
40.54,14.61,14.61,5.73,5.73,-5.73,-5.44,-5.44,8.88,8.88,8.88
40.94,14.61,14.61,5.74,5.74,-5.74,-5.43,-5.37,8.87,8.87,8.87
41.35,14.61,14.61,5.75,5.75,-5.75,-5.43,-5.30,8.86,8.86,8.86
41.76,14.60,14.60,5.75,5.75,-5.75,-5.42,-5.24,8.85,8.85,8.85
42.18,14.59,14.59,5.75,5.75,-5.75,-5.41,-5.18,8.84,8.84,8.84
42.60,14.58,14.58,5.75,5.74,-5.74,-5.40,-5.12,8.83,8.83,8.83
43.03,14.56,14.56,5.74,5.74,-5.74,-5.39,-5.07,8.82,8.82,8.82
43.46,14.54,14.54,5.73,5.73,-5.73,-5.38,-5.02,8.81,8.81,8.81
43.90,14.52,14.52,5.72,5.71,-5.71,-5.37,-4.97,8.80,8.80,8.80
44.33,14.49,14.49,5.70,5.70,-5.70,-5.36,-4.93,8.79,8.79,8.79
44.78,14.46,14.46,5.68,5.68,-5.68,-5.34,-4.89,8.78,8.78,8.78
45.23,14.43,14.43,5.66,5.66,-5.66,-5.33,-4.86,8.77,8.77,8.77
45.68,14.39,14.39,5.63,5.63,-5.63,-5.32,-4.83,8.76,8.76,8.76
46.13,14.35,14.35,5.60,5.61,-5.61,-5.30,-4.80,8.74,8.74,8.74
46.60,14.31,14.31,5.58,5.58,-5.57,-5.29,-4.78,8.73,8.73,8.73
47.06,14.26,14.26,5.54,5.54,-5.54,-5.27,-4.76,8.72,8.72,8.72
47.53,14.21,14.21,5.50,5.50,-5.50,-5.26,-4.74,8.70,8.70,8.70
48.01,14.15,14.15,5.46,5.46,-5.46,-5.24,-4.73,8.68,8.69,8.69
48.49,14.10,14.10,5.42,5.42,-5.42,-5.22,-4.72,8.68,8.67,8.67
48.97,14.04,14.04,5.38,5.38,-5.38,-5.21,-4.71,8.66,8.66,8.66
49.46,13.98,13.98,5.33,5.34,-5.34,-5.19,-4.71,8.64,8.64,8.64
49.96,13.92,13.92,5.29,5.29,-5.29,-5.17,-4.71,8.63,8.63,8.63
50.46,13.85,13.85,5.24,5.24,-5.24,-5.15,-4.71,8.61,8.61,8.61
50.96,13.79,13.79,5.20,5.19,-5.19,-5.12,-4.71,8.60,8.59,8.59
51.47,13.72,13.72,5.14,5.14,-5.14,-5.10,-4.72,8.57,8.57,8.57
51.99,13.65,13.65,5.09,5.09,-5.09,-5.08,-4.72,8.56,8.56,8.56
52.51,13.58,13.58,5.04,5.04,-5.04,-5.05,-4.73,8.54,8.54,8.54
53.03,13.51,13.51,4.99,4.99,-4.99,-5.03,-4.74,8.52,8.52,8.52
53.56,13.44,13.44,4.94,4.94,-4.94,-5.00,-4.75,8.49,8.49,8.50
54.10,13.37,13.37,4.89,4.89,-4.90,-4.97,-4.76,8.47,8.47,8.47
54.64,13.30,13.30,4.85,4.85,-4.85,-4.94,-4.77,8.45,8.45,8.45
55.18,13.23,13.23,4.80,4.80,-4.80,-4.91,-4.78,8.43,8.43,8.43
55.74,13.17,13.17,4.76,4.76,-4.76,-4.87,-4.80,8.41,8.41,8.41
56.29,13.10,13.10,4.72,4.71,-4.71,-4.84,-4.80,8.38,8.38,8.38
56.86,13.03,13.03,4.67,4.67,-4.67,-4.80,-4.81,8.36,8.36,8.36
57.42,12.96,12.96,4.63,4.63,-4.63,-4.77,-4.82,8.33,8.33,8.33
58.00,12.90,12.90,4.59,4.59,-4.59,-4.73,-4.82,8.31,8.30,8.31
58.58,12.83,12.83,4.55,4.55,-4.55,-4.69,-4.83,8.28,8.28,8.28
59.16,12.77,12.77,4.52,4.52,-4.52,-4.65,-4.83,8.25,8.25,8.25
59.76,12.70,12.70,4.48,4.48,-4.48,-4.61,-4.82,8.22,8.22,8.22
60.35,12.64,12.64,4.45,4.45,-4.45,-4.57,-4.82,8.19,8.19,8.19
60.96,12.58,12.57,4.42,4.41,-4.41,-4.53,-4.81,8.17,8.16,8.16
61.57,12.51,12.51,4.38,4.38,-4.38,-4.49,-4.79,8.13,8.13,8.13
62.18,12.45,12.45,4.35,4.35,-4.35,-4.46,-4.77,8.10,8.10,8.10
62.80,12.39,12.38,4.32,4.32,-4.32,-4.42,-4.75,8.07,8.06,8.06
63.43,12.32,12.32,4.29,4.29,-4.29,-4.38,-4.73,8.03,8.03,8.03
64.07,12.26,12.26,4.26,4.26,-4.27,-4.35,-4.70,7.99,7.99,7.99
64.71,12.20,12.20,4.24,4.24,-4.24,-4.32,-4.67,7.96,7.96,7.96
65.35,12.14,12.14,4.22,4.22,-4.22,-4.29,-4.63,7.92,7.92,7.92
66.01,12.09,12.08,4.21,4.20,-4.20,-4.27,-4.59,7.89,7.88,7.88
66.67,12.03,12.03,4.18,4.18,-4.18,-4.24,-4.55,7.85,7.85,7.84
67.33,11.97,11.97,4.16,4.17,-4.17,-4.22,-4.50,7.80,7.80,7.80
68.01,11.92,11.92,4.16,4.15,-4.15,-4.21,-4.46,7.77,7.76,7.76
68.69,11.86,11.86,4.14,4.14,-4.14,-4.19,-4.40,7.72,7.72,7.72
69.37,11.81,11.81,4.13,4.13,-4.13,-4.18,-4.35,7.68,7.68,7.68
70.07,11.75,11.75,4.11,4.12,-4.12,-4.17,-4.30,7.63,7.63,7.63
70.77,11.70,11.70,4.11,4.11,-4.11,-4.17,-4.24,7.59,7.59,7.59
71.48,11.64,11.64,4.10,4.10,-4.10,-4.16,-4.19,7.54,7.54,7.54
72.19,11.59,11.59,4.09,4.09,-4.09,-4.16,-4.13,7.50,7.50,7.50
72.91,11.53,11.53,4.08,4.08,-4.08,-4.15,-4.07,7.44,7.45,7.45
73.64,11.48,11.47,4.08,4.08,-4.08,-4.15,-4.01,7.40,7.40,7.40
74.38,11.42,11.42,4.07,4.07,-4.07,-4.14,-3.95,7.35,7.35,7.35
75.12,11.36,11.36,4.06,4.07,-4.07,-4.14,-3.90,7.29,7.30,7.30
75.87,11.31,11.30,4.06,4.06,-4.06,-4.14,-3.84,7.25,7.24,7.24
76.63,11.25,11.25,4.06,4.06,-4.06,-4.13,-3.78,7.19,7.19,7.19
77.40,11.19,11.19,4.05,4.05,-4.05,-4.12,-3.73,7.14,7.14,7.14
78.17,11.13,11.13,4.05,4.05,-4.05,-4.12,-3.67,7.08,7.08,7.08
78.95,11.07,11.07,4.04,4.04,-4.05,-4.11,-3.62,7.02,7.02,7.02
79.74,11.01,11.01,4.04,4.04,-4.04,-4.10,-3.57,6.97,6.97,6.97
80.54,10.95,10.95,4.04,4.04,-4.04,-4.09,-3.52,6.91,6.91,6.91
81.35,10.89,10.89,4.04,4.04,-4.04,-4.08,-3.48,6.85,6.85,6.85
82.16,10.83,10.83,4.04,4.04,-4.03,-4.06,-3.43,6.79,6.79,6.79
82.98,10.76,10.76,4.03,4.03,-4.03,-4.05,-3.39,6.73,6.73,6.73
83.81,10.70,10.69,4.03,4.03,-4.03,-4.03,-3.35,6.67,6.67,6.67
84.65,10.63,10.63,4.02,4.02,-4.03,-4.02,-3.31,6.60,6.60,6.60
85.50,10.56,10.56,4.02,4.02,-4.02,-4.00,-3.28,6.54,6.54,6.54
86.35,10.50,10.49,4.02,4.02,-4.02,-3.99,-3.25,6.48,6.48,6.48
87.22,10.42,10.42,4.01,4.01,-4.01,-3.97,-3.22,6.41,6.41,6.41
88.09,10.35,10.35,4.00,4.01,-4.00,-3.95,-3.19,6.34,6.35,6.35
88.97,10.28,10.27,4.00,4.00,-4.00,-3.93,-3.16,6.28,6.28,6.28
89.86,10.20,10.20,3.99,3.99,-3.99,-3.91,-3.14,6.21,6.21,6.21
90.76,10.12,10.12,3.98,3.98,-3.98,-3.90,-3.12,6.14,6.14,6.14
91.66,10.04,10.04,3.96,3.96,-3.96,-3.88,-3.10,6.07,6.07,6.07
92.58,9.96,9.96,3.95,3.95,-3.95,-3.86,-3.08,6.01,6.01,6.01
93.51,9.87,9.87,3.93,3.94,-3.94,-3.84,-3.07,5.93,5.94,5.94
94.44,9.79,9.79,3.92,3.92,-3.92,-3.82,-3.06,5.87,5.87,5.87
95.39,9.70,9.70,3.90,3.90,-3.90,-3.80,-3.05,5.79,5.79,5.79
96.34,9.61,9.61,3.88,3.89,-3.89,-3.78,-3.04,5.72,5.72,5.72
97.30,9.52,9.52,3.87,3.87,-3.87,-3.76,-3.03,5.65,5.65,5.65
98.28,9.43,9.43,3.85,3.85,-3.85,-3.74,-3.03,5.58,5.58,5.58
99.26,9.34,9.34,3.83,3.83,-3.83,-3.73,-3.03,5.51,5.51,5.51
100.25,9.24,9.24,3.80,3.81,-3.81,-3.71,-3.03,5.43,5.44,5.44
101.25,9.15,9.15,3.79,3.78,-3.78,-3.69,-3.03,5.36,5.36,5.36
102.27,9.05,9.05,3.76,3.76,-3.76,-3.67,-3.03,5.29,5.29,5.29
103.29,8.95,8.95,3.73,3.73,-3.73,-3.65,-3.03,5.22,5.22,5.22
104.32,8.85,8.85,3.70,3.71,-3.70,-3.63,-3.03,5.14,5.15,5.14
105.37,8.75,8.75,3.68,3.67,-3.67,-3.61,-3.04,5.08,5.07,5.07
106.42,8.64,8.64,3.64,3.64,-3.64,-3.59,-3.04,5.00,5.00,5.00
107.48,8.53,8.53,3.60,3.60,-3.61,-3.56,-3.05,4.92,4.92,4.92
108.56,8.42,8.42,3.57,3.57,-3.57,-3.54,-3.05,4.85,4.85,4.85
109.64,8.31,8.31,3.53,3.53,-3.53,-3.51,-3.06,4.78,4.78,4.78
110.74,8.20,8.20,3.49,3.49,-3.49,-3.49,-3.06,4.71,4.71,4.71
111.85,8.09,8.09,3.45,3.45,-3.45,-3.46,-3.06,4.64,4.64,4.63
112.97,7.97,7.97,3.41,3.41,-3.40,-3.42,-3.06,4.56,4.56,4.56
114.10,7.85,7.85,3.36,3.36,-3.36,-3.39,-3.06,4.49,4.49,4.49
115.24,7.73,7.73,3.31,3.31,-3.31,-3.35,-3.06,4.42,4.42,4.42
116.39,7.61,7.61,3.26,3.26,-3.26,-3.31,-3.05,4.35,4.35,4.35
117.55,7.49,7.49,3.21,3.21,-3.21,-3.27,-3.05,4.28,4.28,4.28
118.73,7.37,7.37,3.16,3.16,-3.16,-3.22,-3.04,4.21,4.21,4.21
119.92,7.24,7.24,3.10,3.10,-3.10,-3.17,-3.02,4.13,4.14,4.14
121.12,7.12,7.12,3.05,3.05,-3.05,-3.11,-3.01,4.07,4.07,4.07
122.33,7.00,7.00,3.00,3.00,-3.00,-3.05,-2.99,4.00,4.00,4.00
123.55,6.88,6.88,2.94,2.94,-2.94,-2.99,-2.97,3.94,3.93,3.93
124.79,6.75,6.75,2.88,2.89,-2.88,-2.93,-2.94,3.86,3.87,3.87
126.03,6.63,6.63,2.83,2.83,-2.83,-2.86,-2.92,3.80,3.80,3.80
127.29,6.51,6.50,2.77,2.77,-2.77,-2.79,-2.88,3.74,3.74,3.74
128.57,6.38,6.38,2.71,2.71,-2.71,-2.72,-2.85,3.67,3.67,3.67
129.85,6.26,6.26,2.65,2.65,-2.65,-2.65,-2.81,3.61,3.61,3.61
131.15,6.13,6.13,2.58,2.59,-2.59,-2.57,-2.77,3.54,3.54,3.54
132.46,6.01,6.01,2.53,2.52,-2.52,-2.50,-2.73,3.48,3.48,3.48
133.79,5.88,5.88,2.46,2.46,-2.46,-2.42,-2.68,3.42,3.42,3.42
135.12,5.76,5.76,2.40,2.40,-2.40,-2.34,-2.63,3.36,3.36,3.36
136.48,5.63,5.63,2.33,2.33,-2.33,-2.26,-2.58,3.30,3.30,3.30
137.84,5.51,5.51,2.27,2.27,-2.27,-2.19,-2.52,3.24,3.24,3.24
139.22,5.39,5.38,2.20,2.20,-2.20,-2.11,-2.46,3.19,3.18,3.18
140.61,5.26,5.26,2.13,2.13,-2.13,-2.03,-2.40,3.12,3.13,3.13
142.02,5.14,5.14,2.07,2.07,-2.07,-1.96,-2.34,3.07,3.07,3.07
143.44,5.02,5.02,2.00,2.00,-2.00,-1.88,-2.28,3.02,3.02,3.02
144.87,4.90,4.90,1.93,1.93,-1.93,-1.81,-2.22,2.97,2.97,2.96
146.32,4.78,4.78,1.87,1.86,-1.86,-1.73,-2.15,2.92,2.92,2.91
147.78,4.66,4.66,1.79,1.79,-1.79,-1.66,-2.09,2.87,2.86,2.87
149.26,4.54,4.54,1.72,1.72,-1.72,-1.59,-2.02,2.82,2.82,2.82
150.75,4.42,4.42,1.65,1.65,-1.65,-1.52,-1.95,2.77,2.77,2.77
152.26,4.31,4.30,1.59,1.58,-1.58,-1.45,-1.88,2.73,2.72,2.72
153.78,4.19,4.19,1.51,1.51,-1.51,-1.38,-1.82,2.68,2.68,2.67
155.32,4.07,4.07,1.44,1.44,-1.44,-1.32,-1.75,2.62,2.63,2.63
156.88,3.96,3.95,1.38,1.37,-1.37,-1.25,-1.68,2.58,2.58,2.58
158.44,3.84,3.84,1.30,1.30,-1.31,-1.19,-1.61,2.53,2.54,2.54
160.03,3.73,3.73,1.23,1.24,-1.24,-1.13,-1.55,2.49,2.49,2.49
161.63,3.62,3.61,1.18,1.17,-1.17,-1.07,-1.48,2.45,2.45,2.44
163.24,3.50,3.50,1.10,1.10,-1.10,-1.01,-1.41,2.40,2.40,2.40
164.88,3.39,3.39,1.03,1.03,-1.03,-0.95,-1.35,2.36,2.36,2.36
166.53,3.28,3.28,0.96,0.96,-0.96,-0.89,-1.28,2.32,2.32,2.32
168.19,3.18,3.17,0.90,0.89,-0.89,-0.84,-1.22,2.29,2.28,2.28
169.87,3.07,3.07,0.82,0.82,-0.82,-0.78,-1.15,2.25,2.24,2.24
171.57,2.96,2.96,0.75,0.75,-0.75,-0.73,-1.09,2.20,2.21,2.21
173.29,2.86,2.86,0.69,0.68,-0.69,-0.67,-1.02,2.17,2.17,2.17
175.02,2.76,2.76,0.62,0.62,-0.62,-0.62,-0.96,2.14,2.14,2.14
176.77,2.66,2.66,0.55,0.55,-0.55,-0.57,-0.90,2.11,2.11,2.11
178.54,2.56,2.56,0.49,0.49,-0.49,-0.52,-0.84,2.07,2.07,2.07
180.32,2.46,2.46,0.42,0.42,-0.42,-0.46,-0.78,2.04,2.04,2.04
182.13,2.37,2.37,0.36,0.36,-0.36,-0.41,-0.72,2.01,2.01,2.01
183.95,2.28,2.28,0.30,0.30,-0.30,-0.36,-0.66,1.98,1.98,1.98
185.79,2.19,2.19,0.24,0.24,-0.24,-0.31,-0.60,1.95,1.95,1.95
187.65,2.10,2.10,0.18,0.18,-0.18,-0.27,-0.54,1.92,1.92,1.92
189.52,2.02,2.01,0.12,0.12,-0.12,-0.22,-0.48,1.90,1.90,1.89
191.42,1.93,1.93,0.06,0.06,-0.06,-0.17,-0.43,1.87,1.87,1.87
193.33,1.85,1.85,0.01,0.01,-0.01,-0.12,-0.37,1.84,1.84,1.84
195.27,1.77,1.77,-0.05,-0.05,0.04,-0.07,-0.31,1.81,1.81,1.82
197.22,1.70,1.70,-0.09,-0.09,0.10,-0.03,-0.26,1.79,1.79,1.79
199.19,1.63,1.63,-0.14,-0.14,0.14,0.02,-0.21,1.77,1.77,1.77
201.18,1.56,1.56,-0.19,-0.19,0.19,0.07,-0.15,1.75,1.75,1.75
203.19,1.49,1.49,-0.24,-0.24,0.24,0.11,-0.10,1.73,1.73,1.72
205.23,1.42,1.42,-0.28,-0.28,0.28,0.16,-0.05,1.70,1.70,1.70
207.28,1.36,1.36,-0.32,-0.33,0.32,0.20,0.00,1.68,1.68,1.68
209.35,1.30,1.30,-0.36,-0.36,0.36,0.25,0.05,1.66,1.66,1.66
211.44,1.24,1.24,-0.40,-0.40,0.40,0.29,0.10,1.64,1.64,1.64
213.56,1.19,1.19,-0.44,-0.44,0.44,0.33,0.15,1.63,1.62,1.62
215.69,1.14,1.14,-0.47,-0.47,0.47,0.37,0.19,1.61,1.61,1.61
217.85,1.09,1.09,-0.50,-0.50,0.50,0.41,0.24,1.59,1.59,1.59
220.03,1.04,1.04,-0.53,-0.53,0.53,0.45,0.28,1.57,1.57,1.57
222.23,0.99,0.99,-0.57,-0.56,0.56,0.49,0.32,1.55,1.55,1.55
224.45,0.95,0.95,-0.59,-0.59,0.59,0.52,0.37,1.54,1.54,1.54
226.70,0.91,0.91,-0.61,-0.61,0.61,0.56,0.40,1.52,1.52,1.52
228.96,0.88,0.87,-0.63,-0.63,0.63,0.59,0.44,1.51,1.51,1.51
231.25,0.84,0.84,-0.65,-0.65,0.65,0.62,0.48,1.49,1.49,1.49
233.57,0.81,0.81,-0.67,-0.67,0.67,0.65,0.51,1.48,1.48,1.48
235.90,0.78,0.78,-0.68,-0.68,0.68,0.67,0.54,1.46,1.46,1.46
238.26,0.75,0.75,-0.69,-0.69,0.70,0.69,0.57,1.44,1.45,1.44
240.64,0.73,0.72,-0.70,-0.70,0.71,0.71,0.60,1.43,1.43,1.43
243.05,0.70,0.70,-0.72,-0.72,0.72,0.73,0.62,1.42,1.42,1.42
245.48,0.68,0.68,-0.73,-0.73,0.73,0.74,0.64,1.40,1.41,1.41
247.93,0.66,0.66,-0.74,-0.73,0.73,0.76,0.67,1.39,1.39,1.39
250.41,0.65,0.64,-0.74,-0.74,0.74,0.76,0.68,1.39,1.39,1.38
252.92,0.63,0.63,-0.75,-0.75,0.75,0.77,0.70,1.38,1.38,1.37
255.45,0.62,0.62,-0.75,-0.75,0.75,0.77,0.71,1.37,1.37,1.37
258.00,0.61,0.61,-0.76,-0.76,0.75,0.77,0.72,1.36,1.36,1.36
260.58,0.60,0.60,-0.76,-0.76,0.75,0.77,0.73,1.35,1.35,1.35
263.19,0.59,0.59,-0.76,-0.75,0.75,0.77,0.74,1.34,1.34,1.34
265.82,0.59,0.58,-0.75,-0.75,0.75,0.76,0.74,1.34,1.34,1.34
268.48,0.58,0.58,-0.75,-0.75,0.75,0.75,0.75,1.32,1.33,1.33
271.16,0.58,0.58,-0.74,-0.74,0.74,0.74,0.75,1.32,1.32,1.32
273.87,0.58,0.58,-0.73,-0.73,0.73,0.73,0.75,1.31,1.31,1.31
276.61,0.58,0.58,-0.73,-0.72,0.72,0.72,0.75,1.30,1.30,1.30
279.38,0.59,0.59,-0.71,-0.71,0.72,0.70,0.75,1.30,1.30,1.30
282.17,0.59,0.59,-0.70,-0.70,0.71,0.69,0.74,1.29,1.30,1.29
284.99,0.60,0.60,-0.69,-0.70,0.70,0.68,0.74,1.30,1.29,1.29
287.84,0.60,0.60,-0.70,-0.69,0.69,0.66,0.73,1.29,1.29,1.30
290.72,0.61,0.61,-0.68,-0.68,0.68,0.64,0.72,1.29,1.29,1.29
293.63,0.62,0.62,-0.66,-0.67,0.67,0.63,0.71,1.29,1.28,1.28
296.57,0.63,0.63,-0.66,-0.66,0.66,0.61,0.70,1.29,1.29,1.29
299.53,0.64,0.64,-0.65,-0.65,0.65,0.60,0.70,1.29,1.29,1.29
302.53,0.66,0.65,-0.63,-0.63,0.63,0.58,0.69,1.29,1.29,1.29
305.55,0.67,0.67,-0.62,-0.62,0.62,0.57,0.68,1.29,1.29,1.29
308.61,0.68,0.68,-0.61,-0.61,0.61,0.55,0.67,1.28,1.29,1.29
311.69,0.70,0.69,-0.59,-0.59,0.59,0.53,0.65,1.29,1.28,1.29
314.81,0.71,0.71,-0.58,-0.58,0.58,0.52,0.64,1.28,1.29,1.29
317.96,0.73,0.73,-0.56,-0.56,0.56,0.50,0.63,1.29,1.29,1.29
321.14,0.75,0.75,-0.54,-0.54,0.55,0.49,0.62,1.29,1.29,1.29
324.35,0.77,0.77,-0.52,-0.53,0.53,0.48,0.61,1.30,1.30,1.29
327.59,0.79,0.78,-0.52,-0.52,0.52,0.46,0.60,1.30,1.30,1.31
330.87,0.80,0.80,-0.51,-0.50,0.50,0.45,0.59,1.30,1.30,1.30
334.18,0.82,0.82,-0.49,-0.49,0.49,0.44,0.58,1.30,1.31,1.31
337.52,0.84,0.84,-0.47,-0.47,0.47,0.42,0.58,1.31,1.31,1.31
340.90,0.86,0.86,-0.45,-0.46,0.46,0.41,0.57,1.31,1.31,1.31
344.30,0.88,0.88,-0.44,-0.44,0.44,0.40,0.56,1.32,1.32,1.32
347.75,0.90,0.90,-0.43,-0.42,0.42,0.39,0.55,1.32,1.32,1.33
351.23,0.93,0.92,-0.39,-0.40,0.41,0.37,0.54,1.33,1.33,1.32
354.74,0.95,0.95,-0.39,-0.39,0.39,0.36,0.53,1.34,1.34,1.34
358.28,0.97,0.97,-0.37,-0.37,0.37,0.35,0.53,1.34,1.34,1.34
361.87,0.99,0.99,-0.36,-0.36,0.35,0.34,0.52,1.34,1.34,1.34
365.49,1.01,1.01,-0.34,-0.34,0.34,0.33,0.52,1.34,1.35,1.35
369.14,1.04,1.03,-0.31,-0.32,0.32,0.31,0.51,1.36,1.35,1.35
372.83,1.06,1.06,-0.31,-0.30,0.30,0.30,0.51,1.36,1.36,1.37
376.56,1.08,1.08,-0.29,-0.28,0.28,0.29,0.50,1.36,1.37,1.36
380.33,1.11,1.10,-0.26,-0.27,0.27,0.28,0.50,1.38,1.37,1.37
384.13,1.13,1.13,-0.24,-0.25,0.25,0.26,0.49,1.38,1.38,1.37
387.97,1.15,1.15,-0.24,-0.23,0.24,0.25,0.49,1.38,1.39,1.39
391.85,1.18,1.17,-0.23,-0.22,0.22,0.23,0.49,1.40,1.39,1.40
395.77,1.20,1.20,-0.20,-0.21,0.20,0.22,0.49,1.40,1.40,1.40
399.73,1.22,1.22,-0.19,-0.19,0.19,0.20,0.48,1.41,1.41,1.41
403.72,1.25,1.24,-0.17,-0.17,0.17,0.19,0.48,1.42,1.41,1.42
407.76,1.27,1.27,-0.15,-0.15,0.15,0.17,0.48,1.42,1.42,1.42
411.84,1.29,1.29,-0.14,-0.13,0.13,0.15,0.48,1.42,1.43,1.43
415.96,1.32,1.32,-0.12,-0.11,0.11,0.14,0.48,1.43,1.43,1.43
420.12,1.34,1.34,-0.09,-0.10,0.09,0.12,0.48,1.43,1.43,1.43
424.32,1.37,1.37,-0.07,-0.08,0.08,0.10,0.49,1.44,1.44,1.44
428.56,1.39,1.39,-0.06,-0.06,0.06,0.08,0.49,1.45,1.45,1.45
432.85,1.42,1.42,-0.04,-0.04,0.04,0.06,0.49,1.46,1.46,1.46
437.18,1.45,1.44,-0.02,-0.02,0.02,0.04,0.49,1.47,1.47,1.47
441.55,1.47,1.47,-0.01,-0.01,0.01,0.02,0.50,1.48,1.48,1.47
445.96,1.49,1.49,0.00,0.01,-0.01,0.00,0.50,1.48,1.49,1.48
450.42,1.52,1.51,0.02,0.02,-0.02,-0.02,0.51,1.50,1.50,1.50
454.93,1.54,1.54,0.03,0.03,-0.03,-0.04,0.51,1.50,1.50,1.51
459.48,1.56,1.56,0.04,0.04,-0.05,-0.05,0.52,1.51,1.51,1.52
464.07,1.58,1.58,0.06,0.06,-0.06,-0.06,0.53,1.52,1.52,1.52
468.71,1.60,1.60,0.07,0.07,-0.07,-0.07,0.53,1.53,1.53,1.53
473.40,1.62,1.62,0.08,0.08,-0.08,-0.08,0.54,1.54,1.54,1.54
478.13,1.63,1.63,0.08,0.08,-0.08,-0.08,0.55,1.55,1.55,1.55
482.91,1.65,1.65,0.08,0.09,-0.09,-0.07,0.56,1.56,1.56,1.56
487.74,1.66,1.66,0.08,0.08,-0.09,-0.07,0.57,1.57,1.57,1.57
492.62,1.67,1.67,0.09,0.08,-0.09,-0.05,0.58,1.58,1.58,1.58
497.55,1.67,1.67,0.08,0.08,-0.08,-0.03,0.60,1.59,1.59,1.59
502.52,1.68,1.68,0.08,0.07,-0.07,-0.01,0.61,1.61,1.61,1.60
507.55,1.68,1.68,0.06,0.06,-0.06,0.02,0.62,1.62,1.62,1.62
512.62,1.68,1.68,0.05,0.05,-0.05,0.05,0.64,1.63,1.63,1.63
517.75,1.67,1.67,0.03,0.03,-0.03,0.08,0.65,1.64,1.64,1.64
522.93,1.66,1.66,0.00,0.00,-0.01,0.12,0.67,1.65,1.65,1.66
528.16,1.65,1.65,-0.02,-0.02,0.02,0.15,0.68,1.66,1.66,1.67
