frequency,raw,error,smoothed,error_smoothed,equalization,parametric_eq,fixed_band_eq,equalized_raw,equalized_smoothed,target
20.00,-7.64,-10.91,-7.64,-10.90,6.00,5.26,2.79,-1.64,-1.64,3.26
20.20,-7.58,-10.90,-7.59,-10.90,6.00,5.31,2.87,-1.58,-1.59,3.31
20.40,-7.53,-10.90,-7.54,-10.90,6.00,5.35,2.95,-1.53,-1.54,3.36
20.61,-7.47,-10.87,-7.48,-10.88,6.00,5.40,3.03,-1.47,-1.48,3.39
20.81,-7.41,-10.86,-7.42,-10.86,6.00,5.44,3.12,-1.41,-1.42,3.44
21.02,-7.35,-10.84,-7.34,-10.82,6.00,5.49,3.21,-1.35,-1.34,3.48
21.23,-7.26,-10.77,-7.26,-10.77,6.00,5.53,3.30,-1.26,-1.26,3.50
21.44,-7.16,-10.69,-7.17,-10.69,6.00,5.58,3.40,-1.16,-1.17,3.52
21.66,-7.07,-10.62,-7.07,-10.61,6.00,5.62,3.50,-1.07,-1.07,3.54
21.87,-6.97,-10.52,-6.98,-10.53,6.00,5.66,3.60,-0.97,-0.98,3.55
22.09,-6.88,-10.45,-6.88,-10.45,6.00,5.70,3.70,-0.88,-0.88,3.57
22.31,-6.79,-10.37,-6.79,-10.37,6.00,5.74,3.80,-0.79,-0.79,3.58
22.54,-6.71,-10.29,-6.70,-10.28,6.00,5.78,3.91,-0.71,-0.70,3.58
22.76,-6.61,-10.19,-6.61,-10.19,6.00,5.82,4.02,-0.61,-0.61,3.58
22.99,-6.51,-10.08,-6.53,-10.10,6.00,5.85,4.14,-0.51,-0.53,3.57
23.22,-6.45,-10.02,-6.45,-10.02,6.00,5.89,4.26,-0.45,-0.45,3.57
23.45,-6.38,-9.95,-6.39,-9.96,6.00,5.93,4.38,-0.38,-0.39,3.57
23.69,-6.32,-9.90,-6.32,-9.90,6.00,5.96,4.50,-0.32,-0.32,3.58
23.92,-6.25,-9.83,-6.25,-9.83,6.00,6.00,4.62,-0.25,-0.25,3.58
24.16,-6.16,-9.75,-6.16,-9.75,6.00,6.03,4.75,-0.16,-0.16,3.59
24.40,-6.06,-9.66,-6.06,-9.65,6.00,6.06,4.88,-0.06,-0.06,3.60
24.65,-5.96,-9.55,-5.96,-9.55,6.00,6.09,5.01,0.04,0.04,3.59
24.89,-5.86,-9.45,-5.87,-9.46,6.00,6.12,5.14,0.14,0.13,3.59
25.14,-5.79,-9.38,-5.80,-9.39,6.00,6.15,5.28,0.21,0.20,3.59
25.39,-5.74,-9.34,-5.74,-9.33,6.00,6.17,5.41,0.26,0.26,3.60
25.65,-5.69,-9.29,-5.69,-9.28,6.00,6.20,5.55,0.31,0.31,3.60
25.91,-5.64,-9.23,-5.64,-9.23,6.00,6.22,5.69,0.36,0.36,3.58
26.16,-5.57,-9.16,-5.58,-9.16,6.00,6.25,5.83,0.43,0.42,3.58
26.43,-5.50,-9.09,-5.50,-9.09,6.00,6.27,5.96,0.50,0.50,3.58
26.69,-5.42,-9.01,-5.43,-9.01,6.00,6.29,6.10,0.58,0.57,3.58
26.96,-5.34,-8.94,-5.35,-8.94,6.00,6.31,6.23,0.66,0.65,3.59
27.23,-5.27,-8.87,-5.27,-8.86,6.00,6.33,6.36,0.73,0.73,3.59
27.50,-5.19,-8.79,-5.20,-8.79,6.00,6.34,6.49,0.81,0.80,3.59
27.77,-5.12,-8.70,-5.12,-8.70,6.00,6.36,6.62,0.88,0.88,3.58
28.05,-5.04,-8.62,-5.04,-8.62,6.00,6.37,6.74,0.96,0.96,3.58
28.33,-4.96,-8.53,-4.96,-8.54,6.00,6.38,6.85,1.04,1.04,3.57
28.62,-4.89,-8.45,-4.88,-8.45,6.00,6.39,6.96,1.11,1.12,3.57
28.90,-4.80,-8.38,-4.81,-8.38,6.00,6.40,7.06,1.20,1.19,3.58
29.19,-4.74,-8.31,-4.74,-8.32,6.00,6.41,7.15,1.26,1.26,3.57
29.48,-4.68,-8.27,-4.69,-8.26,6.00,6.41,7.24,1.32,1.31,3.58
29.78,-4.63,-8.21,-4.63,-8.21,6.00,6.42,7.31,1.37,1.37,3.57
30.08,-4.57,-8.16,-4.57,-8.15,6.00,6.42,7.37,1.43,1.43,3.58
30.38,-4.51,-8.09,-4.52,-8.09,6.00,6.42,7.43,1.49,1.48,3.57
30.68,-4.45,-8.02,-4.45,-8.03,6.00,6.42,7.47,1.55,1.55,3.57
30.99,-4.39,-7.96,-4.39,-7.96,6.00,6.42,7.50,1.61,1.61,3.57
31.30,-4.32,-7.89,-4.33,-7.90,6.00,6.42,7.51,1.68,1.67,3.57
31.61,-4.26,-7.83,-4.26,-7.83,6.00,6.41,7.52,1.74,1.74,3.57
31.93,-4.19,-7.76,-4.19,-7.76,6.00,6.40,7.51,1.81,1.81,3.57
32.24,-4.12,-7.68,-4.13,-7.69,6.00,6.40,7.50,1.88,1.87,3.55
32.57,-4.06,-7.63,-4.06,-7.62,6.00,6.39,7.47,1.94,1.94,3.56
32.89,-4.00,-7.56,-4.00,-7.56,6.00,6.38,7.43,2.00,2.00,3.56
33.22,-3.94,-7.49,-3.95,-7.50,6.00,6.36,7.38,2.06,2.05,3.55
33.55,-3.89,-7.44,-3.89,-7.44,6.00,6.35,7.32,2.11,2.11,3.55
33.89,-3.83,-7.37,-3.83,-7.37,6.00,6.33,7.26,2.17,2.17,3.54
34.23,-3.77,-7.32,-3.77,-7.31,6.00,6.32,7.18,2.23,2.23,3.55
34.57,-3.70,-7.24,-3.71,-7.24,6.00,6.30,7.10,2.30,2.29,3.53
34.92,-3.64,-7.18,-3.65,-7.18,6.00,6.28,7.02,2.36,2.35,3.53
35.27,-3.59,-7.12,-3.60,-7.12,6.00,6.26,6.93,2.41,2.40,3.53
35.62,-3.55,-7.08,-3.55,-7.08,6.00,6.23,6.84,2.45,2.45,3.53
35.97,-3.50,-7.03,-3.50,-7.03,6.00,6.21,6.74,2.50,2.50,3.53
36.33,-3.44,-6.98,-3.45,-6.97,6.00,6.19,6.64,2.56,2.55,3.53
36.70,-3.38,-6.91,-3.38,-6.91,6.00,6.16,6.54,2.62,2.62,3.52
37.06,-3.32,-6.84,-3.32,-6.85,6.00,6.13,6.44,2.68,2.68,3.52
37.43,-3.25,-6.79,-3.25,-6.78,6.00,6.10,6.34,2.75,2.75,3.54
37.81,-3.18,-6.72,-3.18,-6.71,6.00,6.07,6.24,2.82,2.82,3.53
38.19,-3.10,-6.64,-3.10,-6.64,6.00,6.04,6.14,2.90,2.90,3.53
38.57,-3.03,-6.57,-3.03,-6.57,6.00,6.01,6.05,2.97,2.97,3.54
38.95,-2.96,-6.51,-2.97,-6.51,6.00,5.98,5.95,3.04,3.03,3.55
39.34,-2.92,-6.47,-2.92,-6.47,6.00,5.94,5.86,3.08,3.08,3.54
39.74,-2.88,-6.42,-2.88,-6.42,6.00,5.91,5.77,3.12,3.12,3.54
40.14,-2.84,-6.39,-2.85,-6.39,6.00,5.87,5.68,3.16,3.15,3.55
40.54,-2.80,-6.35,-2.80,-6.35,6.00,5.83,5.59,3.20,3.20,3.54
40.94,-2.76,-6.30,-2.75,-6.29,6.01,5.79,5.51,3.25,3.25,3.54
41.35,-2.69,-6.23,-2.70,-6.23,6.01,5.76,5.43,3.32,3.31,3.54
41.76,-2.63,-6.17,-2.63,-6.17,6.01,5.72,5.36,3.37,3.37,3.53
42.18,-2.57,-6.11,-2.57,-6.10,6.00,5.68,5.29,3.43,3.43,3.54
42.60,-2.51,-6.04,-2.52,-6.04,5.98,5.63,5.22,3.47,3.47,3.52
43.03,-2.46,-5.98,-2.47,-5.99,5.96,5.59,5.16,3.49,3.49,3.52
43.46,-2.42,-5.94,-2.42,-5.93,5.92,5.55,5.10,3.49,3.50,3.52
43.90,-2.38,-5.88,-2.38,-5.88,5.87,5.51,5.04,3.48,3.48,3.49
44.33,-2.34,-5.82,-2.34,-5.82,5.81,5.46,4.99,3.47,3.47,3.48
44.78,-2.29,-5.76,-2.29,-5.75,5.75,5.42,4.94,3.46,3.46,3.46
45.23,-2.23,-5.69,-2.22,-5.67,5.69,5.37,4.90,3.45,3.47,3.46
45.68,-2.14,-5.59,-2.15,-5.59,5.62,5.33,4.86,3.48,3.47,3.44
46.13,-2.08,-5.51,-2.11,-5.54,5.57,5.28,4.82,3.48,3.46,3.43
46.60,-2.08,-5.51,-2.08,-5.50,5.51,5.23,4.79,3.43,3.43,3.43
47.06,-2.07,-5.49,-2.05,-5.47,5.46,5.19,4.76,3.38,3.41,3.41
47.53,-2.01,-5.42,-2.01,-5.43,5.41,5.14,4.74,3.39,3.39,3.41
48.01,-1.94,-5.36,-1.97,-5.37,5.36,5.09,4.71,3.41,3.39,3.41
48.49,-1.92,-5.32,-1.92,-5.31,5.31,5.04,4.69,3.39,3.39,3.39
48.97,-1.89,-5.27,-1.88,-5.26,5.26,4.99,4.68,3.37,3.38,3.38
49.46,-1.83,-5.19,-1.84,-5.20,5.20,4.95,4.67,3.37,3.36,3.36
49.96,-1.78,-5.13,-1.79,-5.14,5.14,4.90,4.66,3.36,3.35,3.34
50.46,-1.74,-5.09,-1.74,-5.08,5.08,4.85,4.65,3.34,3.34,3.35
50.96,-1.70,-5.04,-1.70,-5.03,5.02,4.80,4.64,3.32,3.33,3.34
51.47,-1.64,-4.96,-1.64,-4.97,4.97,4.75,4.64,3.33,3.33,3.32
51.99,-1.58,-4.90,-1.59,-4.91,4.92,4.70,4.64,3.33,3.33,3.31
52.51,-1.54,-4.86,-1.54,-4.86,4.87,4.65,4.64,3.32,3.32,3.31
53.03,-1.50,-4.82,-1.51,-4.81,4.82,4.60,4.64,3.32,3.31,3.31
53.56,-1.47,-4.78,-1.47,-4.77,4.77,4.55,4.64,3.30,3.30,3.30
54.10,-1.43,-4.73,-1.43,-4.73,4.73,4.50,4.64,3.29,3.29,3.29
54.64,-1.39,-4.68,-1.40,-4.68,4.68,4.45,4.64,3.28,3.28,3.28
55.18,-1.35,-4.64,-1.36,-4.64,4.62,4.40,4.64,3.27,3.26,3.28
55.74,-1.32,-4.60,-1.31,-4.59,4.58,4.35,4.64,3.25,3.26,3.27
56.29,-1.27,-4.55,-1.26,-4.53,4.53,4.30,4.64,3.25,3.27,3.27
56.86,-1.18,-4.44,-1.20,-4.46,4.48,4.25,4.64,3.29,3.27,3.26
57.42,-1.14,-4.38,-1.15,-4.40,4.42,4.20,4.64,3.28,3.27,3.24
58.00,-1.12,-4.36,-1.12,-4.36,4.37,4.15,4.63,3.25,3.25,3.24
58.58,-1.10,-4.34,-1.10,-4.33,4.32,4.10,4.63,3.22,3.22,3.23
59.16,-1.07,-4.29,-1.07,-4.29,4.27,4.05,4.62,3.20,3.20,3.22
59.76,-1.03,-4.24,-1.03,-4.23,4.22,4.00,4.60,3.19,3.19,3.21
60.35,-0.99,-4.17,-0.99,-4.16,4.17,3.95,4.59,3.18,3.19,3.17
60.96,-0.93,-4.08,-0.95,-4.10,4.12,3.90,4.56,3.18,3.16,3.15
61.57,-0.93,-4.05,-0.94,-4.05,4.05,3.86,4.54,3.12,3.11,3.11
62.18,-0.93,-4.01,-0.93,-4.01,3.98,3.81,4.51,3.04,3.04,3.08
62.80,-0.93,-3.97,-0.90,-3.94,3.90,3.76,4.48,2.97,3.01,3.04
63.43,-0.84,-3.85,-0.84,-3.84,3.83,3.71,4.44,2.99,3.00,3.00
64.07,-0.73,-3.70,-0.77,-3.74,3.77,3.66,4.40,3.03,2.99,2.97
64.71,-0.73,-3.66,-0.73,-3.66,3.71,3.61,4.36,2.97,2.98,2.93
65.35,-0.73,-3.64,-0.72,-3.62,3.65,3.57,4.31,2.92,2.93,2.90
66.01,-0.73,-3.60,-0.73,-3.60,3.60,3.52,4.26,2.86,2.86,2.86
66.67,-0.73,-3.56,-0.73,-3.56,3.55,3.47,4.20,2.82,2.82,2.82
67.33,-0.73,-3.52,-0.73,-3.52,3.51,3.42,4.14,2.78,2.78,2.79
68.01,-0.73,-3.49,-0.73,-3.49,3.47,3.38,4.08,2.74,2.74,2.75
68.69,-0.73,-3.45,-0.73,-3.45,3.43,3.33,4.01,2.70,2.70,2.71
69.37,-0.73,-3.41,-0.73,-3.41,3.39,3.29,3.95,2.65,2.65,2.67
70.07,-0.73,-3.36,-0.73,-3.37,3.35,3.24,3.88,2.62,2.62,2.63
70.77,-0.73,-3.33,-0.73,-3.33,3.32,3.20,3.81,2.59,2.59,2.60
71.48,-0.73,-3.29,-0.73,-3.28,3.31,3.15,3.73,2.58,2.59,2.56
72.19,-0.74,-3.25,-0.75,-3.25,3.32,3.11,3.66,2.57,2.57,2.50
72.91,-0.78,-3.24,-0.82,-3.27,3.33,3.06,3.58,2.55,2.52,2.46
73.64,-0.92,-3.34,-0.92,-3.33,3.35,3.02,3.51,2.43,2.43,2.41
74.38,-1.05,-3.42,-1.03,-3.40,3.38,2.97,3.43,2.32,2.34,2.37
75.12,-1.13,-3.46,-1.13,-3.45,3.39,2.93,3.36,2.26,2.27,2.32
75.87,-1.17,-3.45,-1.18,-3.46,3.40,2.89,3.28,2.23,2.22,2.28
76.63,-1.20,-3.44,-1.21,-3.44,3.40,2.84,3.21,2.19,2.19,2.24
77.40,-1.21,-3.41,-1.20,-3.40,3.38,2.80,3.13,2.16,2.17,2.20
78.17,-1.19,-3.35,-1.18,-3.34,3.34,2.76,3.06,2.15,2.16,2.15
78.95,-1.12,-3.26,-1.15,-3.28,3.30,2.72,2.99,2.17,2.15,2.13
79.74,-1.12,-3.22,-1.12,-3.22,3.26,2.68,2.91,2.13,2.13,2.09
80.54,-1.12,-3.19,-1.11,-3.17,3.22,2.64,2.84,2.09,2.10,2.06
81.35,-1.12,-3.15,-1.13,-3.16,3.19,2.60,2.77,2.06,2.06,2.02
82.16,-1.14,-3.14,-1.15,-3.15,3.16,2.56,2.71,2.02,2.01,1.99
82.98,-1.19,-3.16,-1.19,-3.15,3.14,2.52,2.64,1.95,1.95,1.97
83.81,-1.21,-3.14,-1.21,-3.14,3.12,2.48,2.57,1.90,1.90,1.93
84.65,-1.22,-3.12,-1.22,-3.11,3.09,2.44,2.51,1.86,1.87,1.89
85.50,-1.19,-3.06,-1.19,-3.06,3.04,2.40,2.45,1.85,1.85,1.87
86.35,-1.15,-2.99,-1.17,-3.00,2.99,2.36,2.39,1.83,1.82,1.84
87.22,-1.12,-2.93,-1.13,-2.93,2.92,2.32,2.33,1.79,1.79,1.80
88.09,-1.09,-2.86,-1.08,-2.84,2.83,2.28,2.27,1.74,1.76,1.77
88.97,-1.01,-2.75,-1.01,-2.75,2.75,2.25,2.22,1.73,1.73,1.73
89.86,-0.93,-2.63,-0.95,-2.64,2.66,2.21,2.17,1.72,1.71,1.70
90.76,-0.88,-2.54,-0.89,-2.55,2.57,2.17,2.11,1.68,1.68,1.66
91.66,-0.84,-2.48,-0.84,-2.46,2.49,2.14,2.06,1.64,1.65,1.63
92.58,-0.80,-2.39,-0.80,-2.39,2.40,2.10,2.02,1.60,1.61,1.59
93.51,-0.75,-2.31,-0.76,-2.33,2.33,2.06,1.97,1.57,1.56,1.56
94.44,-0.73,-2.27,-0.74,-2.27,2.25,2.03,1.92,1.52,1.51,1.53
95.39,-0.72,-2.23,-0.71,-2.22,2.19,1.99,1.88,1.47,1.48,1.50
96.34,-0.69,-2.16,-0.68,-2.15,2.13,1.96,1.84,1.44,1.45,1.47
97.30,-0.63,-2.07,-0.64,-2.08,2.08,1.93,1.80,1.45,1.45,1.44
98.28,-0.59,-2.00,-0.60,-2.00,2.04,1.89,1.76,1.45,1.44,1.41
99.26,-0.57,-1.95,-0.59,-1.97,2.00,1.86,1.72,1.43,1.41,1.38
100.25,-0.60,-1.95,-0.61,-1.96,1.97,1.82,1.68,1.37,1.37,1.35
101.25,-0.66,-1.99,-0.63,-1.95,1.95,1.79,1.65,1.28,1.32,1.32
102.27,-0.62,-1.92,-0.64,-1.93,1.92,1.76,1.61,1.29,1.28,1.29
103.29,-0.63,-1.89,-0.65,-1.91,1.88,1.73,1.58,1.25,1.24,1.25
104.32,-0.65,-1.89,-0.65,-1.88,1.84,1.69,1.55,1.19,1.20,1.23
105.37,-0.65,-1.86,-0.65,-1.85,1.80,1.66,1.51,1.15,1.15,1.20
106.42,-0.62,-1.80,-0.61,-1.78,1.76,1.63,1.48,1.13,1.15,1.17
107.48,-0.56,-1.70,-0.55,-1.69,1.72,1.60,1.45,1.16,1.17,1.14
108.56,-0.48,-1.58,-0.51,-1.61,1.68,1.57,1.43,1.20,1.17,1.10
109.64,-0.49,-1.56,-0.52,-1.58,1.65,1.54,1.40,1.15,1.13,1.07
110.74,-0.57,-1.60,-0.55,-1.58,1.61,1.50,1.37,1.04,1.06,1.03
111.85,-0.61,-1.62,-0.60,-1.60,1.58,1.47,1.34,0.96,0.97,1.01
112.97,-0.62,-1.58,-0.64,-1.61,1.54,1.44,1.32,0.91,0.90,0.96
114.10,-0.63,-1.57,-0.63,-1.56,1.50,1.41,1.29,0.87,0.88,0.93
115.24,-0.61,-1.52,-0.58,-1.48,1.46,1.38,1.27,0.85,0.88,0.90
116.39,-0.50,-1.37,-0.52,-1.39,1.41,1.35,1.24,0.91,0.89,0.87
117.55,-0.44,-1.29,-0.47,-1.32,1.34,1.32,1.22,0.90,0.87,0.85
118.73,-0.43,-1.25,-0.43,-1.25,1.27,1.29,1.19,0.84,0.84,0.82
119.92,-0.42,-1.24,-0.40,-1.20,1.19,1.26,1.17,0.77,0.80,0.81
121.12,-0.34,-1.13,-0.35,-1.14,1.13,1.23,1.14,0.78,0.77,0.79
122.33,-0.29,-1.06,-0.29,-1.07,1.07,1.20,1.12,0.77,0.77,0.77
123.55,-0.23,-1.00,-0.24,-1.00,1.02,1.18,1.09,0.78,0.78,0.76
124.79,-0.19,-0.94,-0.20,-0.95,0.98,1.15,1.07,0.78,0.77,0.75
126.03,-0.19,-0.93,-0.19,-0.93,0.94,1.12,1.04,0.75,0.75,0.73
127.29,-0.18,-0.91,-0.18,-0.91,0.91,1.09,1.02,0.73,0.73,0.73
128.57,-0.18,-0.89,-0.18,-0.89,0.89,1.06,1.00,0.70,0.70,0.71
129.85,-0.17,-0.87,-0.18,-0.87,0.86,1.03,0.97,0.69,0.69,0.69
131.15,-0.17,-0.85,-0.17,-0.85,0.84,1.00,0.95,0.67,0.67,0.68
132.46,-0.16,-0.83,-0.17,-0.84,0.82,0.97,0.92,0.65,0.65,0.67
133.79,-0.16,-0.82,-0.16,-0.81,0.79,0.94,0.90,0.62,0.63,0.65
135.12,-0.14,-0.78,-0.13,-0.77,0.76,0.91,0.87,0.61,0.63,0.63
136.48,-0.08,-0.72,-0.09,-0.72,0.73,0.88,0.85,0.65,0.64,0.63
137.84,-0.05,-0.67,-0.06,-0.67,0.70,0.85,0.82,0.65,0.64,0.61
139.22,-0.05,-0.65,-0.05,-0.64,0.68,0.82,0.80,0.62,0.63,0.59
140.61,-0.05,-0.63,-0.05,-0.63,0.65,0.79,0.77,0.59,0.60,0.57
142.02,-0.05,-0.63,-0.06,-0.62,0.61,0.76,0.75,0.56,0.56,0.57
143.44,-0.05,-0.61,-0.06,-0.61,0.58,0.72,0.72,0.53,0.52,0.56
144.87,-0.05,-0.58,-0.04,-0.57,0.55,0.69,0.70,0.50,0.51,0.53
146.32,-0.02,-0.53,-0.01,-0.52,0.51,0.66,0.67,0.49,0.50,0.50
147.78,0.04,-0.45,0.02,-0.46,0.47,0.63,0.65,0.50,0.48,0.49
149.26,0.05,-0.40,0.04,-0.40,0.41,0.59,0.62,0.46,0.46,0.45
150.75,0.05,-0.35,0.05,-0.35,0.35,0.56,0.60,0.40,0.40,0.40
152.26,0.05,-0.29,0.05,-0.30,0.29,0.52,0.57,0.34,0.34,0.34
153.78,0.05,-0.24,0.05,-0.24,0.23,0.49,0.55,0.27,0.27,0.29
155.32,0.05,-0.18,0.05,-0.17,0.17,0.45,0.52,0.21,0.22,0.22
156.88,0.05,-0.12,0.05,-0.11,0.11,0.41,0.50,0.16,0.16,0.16
158.44,0.05,-0.04,0.03,-0.06,0.07,0.37,0.47,0.11,0.10,0.09
160.03,-0.00,-0.02,0.00,-0.02,0.03,0.34,0.45,0.03,0.04,0.02
161.63,-0.04,-0.00,-0.03,0.01,0.01,0.30,0.42,-0.04,-0.02,-0.04
163.24,-0.05,0.04,-0.06,0.03,-0.01,0.26,0.40,-0.06,-0.07,-0.09
164.88,-0.09,0.04,-0.10,0.03,-0.02,0.22,0.37,-0.11,-0.12,-0.13
166.53,-0.14,0.03,-0.16,0.01,-0.03,0.17,0.35,-0.17,-0.18,-0.17
168.19,-0.21,-0.01,-0.20,-0.00,-0.03,0.13,0.32,-0.25,-0.24,-0.20
169.87,-0.25,-0.02,-0.22,0.00,-0.03,0.09,0.30,-0.29,-0.25,-0.23
171.57,-0.19,0.04,-0.21,0.02,-0.03,0.05,0.28,-0.23,-0.25,-0.24
173.29,-0.18,0.06,-0.19,0.05,-0.03,0.00,0.25,-0.21,-0.22,-0.24
175.02,-0.18,0.06,-0.18,0.06,-0.03,-0.04,0.23,-0.21,-0.21,-0.24
176.77,-0.19,0.05,-0.19,0.06,-0.03,-0.08,0.20,-0.23,-0.22,-0.25
178.54,-0.19,0.05,-0.19,0.05,-0.04,-0.13,0.18,-0.24,-0.24,-0.24
180.32,-0.18,0.04,-0.20,0.03,-0.06,-0.17,0.15,-0.24,-0.26,-0.23
182.13,-0.18,0.03,-0.18,0.04,-0.07,-0.21,0.13,-0.26,-0.25,-0.21
183.95,-0.17,0.04,-0.14,0.07,-0.09,-0.25,0.11,-0.27,-0.24,-0.22
185.79,-0.07,0.14,-0.10,0.11,-0.11,-0.29,0.08,-0.19,-0.22,-0.21
187.65,-0.05,0.17,-0.06,0.16,-0.14,-0.32,0.06,-0.20,-0.20,-0.22
189.52,-0.03,0.19,-0.03,0.20,-0.18,-0.36,0.04,-0.21,-0.21,-0.23
191.42,-0.02,0.21,-0.02,0.22,-0.21,-0.39,0.01,-0.24,-0.23,-0.24
193.33,-0.00,0.25,-0.01,0.24,-0.25,-0.41,-0.01,-0.25,-0.25,-0.25
195.27,0.01,0.27,0.01,0.27,-0.28,-0.43,-0.03,-0.27,-0.27,-0.26
197.22,0.03,0.30,0.02,0.30,-0.30,-0.45,-0.06,-0.28,-0.28,-0.27
199.19,0.04,0.33,0.04,0.33,-0.32,-0.47,-0.08,-0.29,-0.29,-0.29
201.18,0.05,0.35,0.04,0.35,-0.34,-0.48,-0.10,-0.30,-0.30,-0.30
203.19,0.05,0.36,0.05,0.36,-0.36,-0.48,-0.12,-0.32,-0.32,-0.32
205.23,0.05,0.38,0.05,0.37,-0.38,-0.48,-0.15,-0.33,-0.33,-0.34
207.28,0.05,0.38,0.05,0.39,-0.39,-0.48,-0.17,-0.35,-0.35,-0.33
209.35,0.05,0.40,0.05,0.40,-0.40,-0.47,-0.19,-0.36,-0.36,-0.35
211.44,0.05,0.43,0.04,0.41,-0.41,-0.46,-0.21,-0.37,-0.37,-0.38
213.56,0.04,0.42,0.04,0.43,-0.42,-0.44,-0.23,-0.39,-0.38,-0.38
215.69,0.04,0.43,0.04,0.43,-0.43,-0.43,-0.25,-0.39,-0.39,-0.39
217.85,0.04,0.43,0.03,0.43,-0.43,-0.41,-0.27,-0.40,-0.40,-0.40
220.03,0.03,0.43,0.03,0.44,-0.44,-0.38,-0.28,-0.41,-0.41,-0.41
222.23,0.03,0.45,0.03,0.44,-0.44,-0.36,-0.30,-0.41,-0.41,-0.42
224.45,0.03,0.44,0.02,0.44,-0.44,-0.33,-0.31,-0.41,-0.42,-0.41
226.70,0.03,0.43,0.03,0.43,-0.44,-0.31,-0.33,-0.41,-0.41,-0.41
228.96,0.03,0.42,0.03,0.42,-0.43,-0.28,-0.34,-0.40,-0.40,-0.39
231.25,0.04,0.42,0.04,0.42,-0.41,-0.25,-0.35,-0.38,-0.37,-0.38
233.57,0.05,0.41,0.04,0.41,-0.39,-0.23,-0.36,-0.35,-0.35,-0.37
235.90,0.06,0.41,0.04,0.39,-0.37,-0.20,-0.37,-0.32,-0.34,-0.35
238.26,0.01,0.34,0.02,0.35,-0.35,-0.17,-0.37,-0.35,-0.33,-0.34
240.64,-0.00,0.31,0.00,0.32,-0.33,-0.15,-0.38,-0.34,-0.33,-0.31
243.05,0.01,0.28,0.00,0.29,-0.31,-0.12,-0.38,-0.31,-0.31,-0.28
245.48,0.03,0.28,0.03,0.28,-0.30,-0.10,-0.38,-0.27,-0.27,-0.25
247.93,0.06,0.27,0.05,0.28,-0.28,-0.07,-0.38,-0.22,-0.23,-0.22
250.41,0.08,0.28,0.08,0.27,-0.27,-0.05,-0.37,-0.19,-0.19,-0.20
252.92,0.10,0.26,0.10,0.26,-0.25,-0.02,-0.37,-0.16,-0.16,-0.17
255.45,0.11,0.25,0.11,0.25,-0.24,-0.00,-0.36,-0.14,-0.14,-0.14
258.00,0.12,0.23,0.11,0.23,-0.23,0.02,-0.35,-0.11,-0.11,-0.12
260.58,0.12,0.22,0.12,0.21,-0.21,0.04,-0.34,-0.10,-0.10,-0.10
263.19,0.12,0.18,0.12,0.19,-0.19,0.06,-0.33,-0.08,-0.08,-0.06
265.82,0.12,0.16,0.12,0.16,-0.17,0.08,-0.31,-0.05,-0.05,-0.05
268.48,0.12,0.14,0.12,0.13,-0.14,0.10,-0.30,-0.03,-0.03,-0.02
271.16,0.12,0.10,0.11,0.11,-0.11,0.11,-0.28,0.01,0.00,0.01
273.87,0.11,0.08,0.11,0.07,-0.07,0.13,-0.26,0.04,0.04,0.03
276.61,0.11,0.04,0.12,0.05,-0.02,0.15,-0.24,0.08,0.09,0.07
279.38,0.11,0.01,0.10,0.00,0.03,0.16,-0.21,0.13,0.13,0.09
282.17,0.09,-0.04,0.06,-0.07,0.08,0.18,-0.19,0.16,0.13,0.12
284.99,-0.01,-0.17,0.00,-0.15,0.13,0.19,-0.17,0.12,0.14,0.16
287.84,-0.06,-0.24,-0.04,-0.22,0.19,0.21,-0.14,0.13,0.15,0.18
290.72,-0.05,-0.27,-0.06,-0.27,0.24,0.22,-0.11,0.19,0.19,0.21
293.63,-0.04,-0.28,-0.05,-0.29,0.30,0.23,-0.08,0.25,0.25,0.24
296.57,-0.03,-0.31,-0.06,-0.33,0.35,0.25,-0.05,0.31,0.29,0.28
299.53,-0.08,-0.39,-0.07,-0.38,0.39,0.26,-0.02,0.30,0.31,0.31
302.53,-0.10,-0.43,-0.09,-0.42,0.42,0.27,0.01,0.32,0.33,0.32
305.55,-0.09,-0.47,-0.10,-0.46,0.45,0.28,0.04,0.35,0.35,0.37
308.61,-0.08,-0.47,-0.09,-0.48,0.47,0.30,0.07,0.39,0.38,0.39
311.69,-0.08,-0.50,-0.08,-0.50,0.50,0.31,0.11,0.41,0.42,0.42
314.81,-0.07,-0.52,-0.08,-0.52,0.52,0.32,0.14,0.45,0.44,0.45
317.96,-0.07,-0.54,-0.07,-0.53,0.54,0.33,0.17,0.46,0.46,0.46
321.14,-0.07,-0.55,-0.07,-0.55,0.55,0.34,0.21,0.48,0.48,0.47
324.35,-0.07,-0.56,-0.07,-0.56,0.56,0.35,0.25,0.49,0.49,0.49
327.59,-0.07,-0.58,-0.07,-0.58,0.58,0.37,0.28,0.50,0.50,0.51
330.87,-0.07,-0.59,-0.07,-0.59,0.59,0.38,0.32,0.52,0.52,0.52
334.18,-0.07,-0.61,-0.08,-0.61,0.61,0.39,0.35,0.54,0.53,0.53
337.52,-0.08,-0.63,-0.07,-0.62,0.63,0.40,0.39,0.55,0.56,0.54
340.90,-0.08,-0.65,-0.08,-0.64,0.65,0.41,0.43,0.57,0.57,0.56
344.30,-0.08,-0.65,-0.11,-0.67,0.68,0.43,0.47,0.59,0.57,0.57
347.75,-0.14,-0.71,-0.13,-0.71,0.70,0.44,0.51,0.56,0.57,0.57
351.23,-0.17,-0.75,-0.16,-0.74,0.72,0.45,0.55,0.55,0.56,0.58
354.74,-0.17,-0.75,-0.17,-0.75,0.74,0.46,0.59,0.57,0.57,0.58
358.28,-0.17,-0.76,-0.18,-0.77,0.77,0.48,0.63,0.60,0.59,0.59
361.87,-0.18,-0.77,-0.20,-0.79,0.79,0.49,0.67,0.61,0.59,0.58
365.49,-0.24,-0.84,-0.22,-0.80,0.82,0.50,0.71,0.57,0.60,0.59
369.14,-0.24,-0.83,-0.24,-0.83,0.84,0.52,0.75,0.59,0.60,0.58
372.83,-0.23,-0.82,-0.27,-0.85,0.85,0.53,0.79,0.62,0.58,0.58
376.56,-0.31,-0.89,-0.29,-0.88,0.87,0.54,0.83,0.55,0.58,0.58
380.33,-0.32,-0.91,-0.31,-0.90,0.88,0.56,0.87,0.55,0.57,0.59
384.13,-0.31,-0.90,-0.32,-0.90,0.88,0.57,0.91,0.57,0.56,0.59
387.97,-0.30,-0.88,-0.31,-0.89,0.88,0.59,0.96,0.58,0.57,0.58
391.85,-0.30,-0.87,-0.30,-0.88,0.88,0.61,1.00,0.58,0.58,0.57
395.77,-0.30,-0.88,-0.30,-0.87,0.88,0.62,1.04,0.58,0.58,0.58
399.73,-0.30,-0.87,-0.30,-0.87,0.88,0.64,1.09,0.58,0.58,0.57
403.72,-0.30,-0.87,-0.30,-0.86,0.88,0.66,1.13,0.58,0.58,0.56
407.76,-0.31,-0.87,-0.31,-0.87,0.89,0.67,1.17,0.57,0.57,0.55
411.84,-0.32,-0.88,-0.34,-0.90,0.90,0.69,1.21,0.58,0.56,0.55
415.96,-0.38,-0.94,-0.37,-0.93,0.91,0.71,1.26,0.53,0.54,0.55
420.12,-0.41,-0.97,-0.40,-0.95,0.93,0.73,1.30,0.52,0.53,0.55
424.32,-0.40,-0.96,-0.40,-0.96,0.95,0.75,1.34,0.55,0.55,0.55
428.56,-0.39,-0.95,-0.40,-0.96,0.97,0.77,1.38,0.58,0.57,0.56
432.85,-0.38,-0.95,-0.40,-0.97,0.98,0.79,1.42,0.60,0.58,0.57
437.18,-0.42,-1.00,-0.41,-1.00,0.99,0.81,1.46,0.56,0.58,0.58
441.55,-0.41,-1.03,-0.40,-1.01,0.99,0.84,1.50,0.58,0.59,0.62
445.96,-0.36,-1.01,-0.37,-1.02,1.00,0.86,1.54,0.63,0.63,0.65
450.42,-0.31,-0.99,-0.31,-0.99,1.00,0.88,1.57,0.69,0.69,0.68
454.93,-0.25,-0.98,-0.25,-0.98,1.00,0.91,1.60,0.75,0.75,0.73
459.48,-0.19,-0.97,-0.22,-1.00,1.01,0.93,1.64,0.81,0.79,0.78
464.07,-0.20,-1.03,-0.19,-1.02,1.01,0.96,1.67,0.81,0.82,0.83
468.71,-0.17,-1.06,-0.16,-1.04,1.02,0.99,1.69,0.85,0.86,0.89
473.40,-0.11,-1.04,-0.13,-1.06,1.04,1.01,1.72,0.93,0.92,0.93
478.13,-0.08,-1.07,-0.08,-1.06,1.08,1.04,1.74,1.00,1.00,0.99
482.91,-0.06,-1.09,-0.06,-1.09,1.13,1.07,1.77,1.07,1.07,1.03
487.74,-0.06,-1.13,-0.07,-1.14,1.19,1.10,1.78,1.12,1.12,1.07
492.62,-0.10,-1.22,-0.11,-1.22,1.24,1.14,1.80,1.14,1.13,1.12
497.55,-0.16,-1.30,-0.17,-1.31,1.29,1.17,1.81,1.13,1.13,1.13
502.52,-0.23,-1.40,-0.22,-1.38,1.34,1.20,1.83,1.10,1.12,1.16
