frequency,raw,error,smoothed,error_smoothed,equalization,parametric_eq,equalized_raw,equalized_smoothed,target
20,1.85,0.21,1.92,0.28,-0.28,-1.42,1.57,1.64,1.64
21,2.38,0.74,2.30,0.66,-0.66,-1.55,1.71,1.64,1.64
22,2.67,1.03,2.66,1.03,-1.03,-1.68,1.64,1.64,1.64
23,3.04,1.41,3.01,1.37,-1.37,-1.81,1.67,1.63,1.63
24,3.34,1.71,3.33,1.70,-1.70,-1.94,1.64,1.63,1.63
25,3.67,2.04,3.63,2.00,-2.00,-2.08,1.67,1.63,1.63
26,3.88,2.25,3.91,2.28,-2.28,-2.21,1.60,1.62,1.62
27,4.14,2.52,4.17,2.55,-2.55,-2.35,1.59,1.62,1.62
28,4.44,2.82,4.41,2.80,-2.80,-2.49,1.64,1.62,1.62
29,4.64,3.03,4.64,3.03,-3.03,-2.63,1.61,1.61,1.61
30,4.86,3.25,4.86,3.25,-3.25,-2.77,1.60,1.61,1.61
31,5.05,3.45,5.07,3.47,-3.47,-2.92,1.58,1.60,1.60
32,5.25,3.65,5.27,3.67,-3.67,-3.06,1.58,1.60,1.60
33,5.45,3.86,5.46,3.87,-3.87,-3.20,1.58,1.59,1.59
34,5.65,4.07,5.63,4.05,-4.05,-3.34,1.60,1.58,1.58
35,5.82,4.24,5.80,4.22,-4.22,-3.49,1.60,1.58,1.58
36,5.95,4.38,5.95,4.38,-4.38,-3.63,1.57,1.57,1.57
37,6.15,4.59,6.09,4.53,-4.53,-3.77,1.62,1.56,1.56
38,6.15,4.60,6.22,4.67,-4.67,-3.91,1.48,1.55,1.55
39,6.35,4.81,6.34,4.80,-4.80,-4.05,1.55,1.54,1.54
40,6.48,4.95,6.46,4.93,-4.93,-4.19,1.55,1.53,1.53
41,6.55,5.03,6.56,5.04,-5.04,-4.33,1.51,1.52,1.52
42,6.66,5.15,6.66,5.16,-5.16,-4.47,1.50,1.51,1.51
43,6.76,5.27,6.76,5.26,-5.26,-4.61,1.50,1.49,1.49
44,6.86,5.38,6.85,5.37,-5.37,-4.75,1.49,1.48,1.48
45,6.95,5.48,6.94,5.47,-5.47,-4.88,1.48,1.46,1.46
46,6.96,5.51,7.02,5.58,-5.58,-5.01,1.38,1.45,1.45
47,7.16,5.73,7.11,5.68,-5.68,-5.15,1.48,1.43,1.43
48,7.16,5.74,7.20,5.78,-5.78,-5.28,1.38,1.42,1.42
49,7.26,5.86,7.28,5.88,-5.88,-5.41,1.38,1.40,1.40
50,7.36,5.98,7.36,5.98,-5.98,-5.53,1.38,1.38,1.38
51,7.46,6.10,7.43,6.07,-6.07,-5.66,1.39,1.36,1.36
52,7.51,6.17,7.49,6.16,-6.16,-5.78,1.35,1.34,1.34
53,7.56,6.24,7.55,6.24,-6.24,-5.91,1.32,1.32,1.32
54,7.65,6.36,7.61,6.31,-6.31,-6.03,1.34,1.29,1.29
55,7.66,6.39,7.65,6.38,-6.38,-6.14,1.28,1.27,1.27
56,7.66,6.41,7.69,6.45,-6.45,-6.26,1.21,1.25,1.25
57,7.66,6.44,7.73,6.51,-6.51,-6.37,1.15,1.22,1.22
58,7.76,6.56,7.77,6.57,-6.57,-6.49,1.19,1.19,1.19
59,7.86,6.69,7.80,6.63,-6.63,-6.60,1.22,1.17,1.17
60,7.86,6.72,7.84,6.70,-6.70,-6.70,1.16,1.14,1.14
61,7.86,6.75,7.87,6.76,-6.76,-6.81,1.10,1.11,1.11
62,7.86,6.78,7.90,6.82,-6.82,-6.91,1.04,1.08,1.08
63,7.96,6.91,7.93,6.88,-6.88,-7.01,1.08,1.05,1.05
64,7.96,6.94,7.95,6.94,-6.94,-7.11,1.02,1.02,1.02
65,7.96,6.97,7.98,6.99,-6.99,-7.21,0.97,0.99,0.99
66,7.96,7.01,8.00,7.05,-7.05,-7.30,0.91,0.95,0.95
67,8.06,7.14,8.02,7.10,-7.10,-7.39,0.96,0.92,0.92
68,8.06,7.17,8.04,7.15,-7.15,-7.48,0.91,0.88,0.88
69,8.06,7.21,8.05,7.20,-7.20,-7.56,0.86,0.85,0.85
70,8.06,7.25,8.06,7.24,-7.24,-7.65,0.81,0.81,0.81
71,8.06,7.28,8.06,7.29,-7.29,-7.73,0.77,0.78,0.78
72,8.06,7.32,8.06,7.32,-7.32,-7.80,0.73,0.74,0.74
73,8.06,7.36,8.06,7.36,-7.36,-7.88,0.70,0.70,0.70
74,8.06,7.40,8.06,7.40,-7.40,-7.95,0.66,0.66,0.66
75,8.06,7.43,8.06,7.44,-7.44,-8.02,0.62,0.62,0.62
76,8.06,7.47,8.06,7.47,-7.47,-8.09,0.59,0.59,0.59
77,8.06,7.51,8.06,7.51,-7.51,-8.15,0.55,0.55,0.55
78,8.06,7.55,8.06,7.55,-7.55,-8.22,0.51,0.51,0.51
79,8.06,7.59,8.05,7.59,-7.59,-8.27,0.47,0.47,0.47
80,8.06,7.63,8.05,7.63,-7.63,-8.33,0.43,0.42,0.42
81,8.06,7.68,8.05,7.67,-7.67,-8.39,0.39,0.38,0.38
82,8.06,7.72,8.06,7.72,-7.72,-8.44,0.34,0.34,0.34
83,8.06,7.76,8.06,7.76,-7.76,-8.49,0.30,0.30,0.30
84,8.06,7.80,8.08,7.82,-7.82,-8.54,0.24,0.26,0.26
85,8.06,7.84,8.09,7.87,-7.87,-8.58,0.19,0.22,0.22
86,8.14,7.96,8.11,7.93,-7.93,-8.62,0.20,0.18,0.18
87,8.16,8.02,8.14,8.00,-8.00,-8.66,0.16,0.14,0.14
88,8.17,8.08,8.17,8.07,-8.07,-8.70,0.10,0.09,0.09
89,8.17,8.12,8.20,8.15,-8.15,-8.74,0.02,0.05,0.05
90,8.19,8.18,8.23,8.22,-8.22,-8.77,-0.03,0.01,0.01
91,8.27,8.30,8.27,8.30,-8.30,-8.80,-0.03,-0.03,-0.03
92,8.35,8.42,8.31,8.38,-8.38,-8.83,-0.03,-0.07,-0.07
93,8.37,8.48,8.34,8.45,-8.45,-8.86,-0.09,-0.11,-0.11
94,8.37,8.52,8.37,8.53,-8.53,-8.89,-0.16,-0.15,-0.15
95,8.37,8.56,8.40,8.59,-8.59,-8.91,-0.22,-0.19,-0.20
96,8.41,8.64,8.42,8.65,-8.65,-8.93,-0.24,-0.23,-0.24
97,8.46,8.74,8.43,8.71,-8.71,-8.95,-0.25,-0.27,-0.28
98,8.45,8.77,8.44,8.75,-8.75,-8.97,-0.30,-0.32,-0.32
99,8.44,8.79,8.43,8.79,-8.79,-8.99,-0.35,-0.36,-0.36
100,8.43,8.82,8.43,8.83,-8.83,-9.00,-0.40,-0.40,-0.39
101,8.41,8.84,8.41,8.86,-8.86,-9.02,-0.45,-0.44,-0.43
102,8.39,8.86,8.39,8.88,-8.88,-9.03,-0.49,-0.49,-0.47
104,8.37,8.91,8.37,8.90,-8.90,-9.05,-0.53,-0.53,-0.55
105,8.35,8.93,8.35,8.92,-8.92,-9.06,-0.57,-0.57,-0.58
106,8.32,8.94,8.32,8.93,-8.93,-9.07,-0.61,-0.61,-0.62
107,8.30,8.95,8.29,8.94,-8.94,-9.08,-0.65,-0.65,-0.65
108,8.27,8.96,8.27,8.95,-8.95,-9.08,-0.69,-0.69,-0.69
109,8.25,8.97,8.25,8.97,-8.97,-9.09,-0.72,-0.72,-0.72
110,8.23,8.98,8.23,8.98,-8.98,-9.09,-0.75,-0.75,-0.75
111,8.22,9.00,8.22,9.00,-9.00,-9.09,-0.78,-0.78,-0.78
112,8.20,9.01,8.21,9.02,-9.02,-9.09,-0.82,-0.81,-0.81
113,8.19,9.03,8.21,9.06,-9.06,-9.10,-0.87,-0.84,-0.84
114,8.19,9.06,8.22,9.09,-9.09,-9.10,-0.90,-0.88,-0.87
115,8.20,9.09,8.23,9.14,-9.14,-9.10,-0.94,-0.91,-0.90
117,8.29,9.24,8.25,9.19,-9.19,-9.09,-0.90,-0.94,-0.95
118,8.29,9.26,8.27,9.23,-9.23,-9.09,-0.95,-0.97,-0.98
119,8.30,9.30,8.29,9.28,-9.28,-9.09,-0.98,-1.00,-1.00
120,8.30,9.32,8.30,9.33,-9.33,-9.09,-1.03,-1.02,-1.02
121,8.31,9.35,8.32,9.37,-9.37,-9.08,-1.06,-1.05,-1.04
123,8.32,9.41,8.32,9.40,-9.40,-9.08,-1.08,-1.08,-1.09
124,8.33,9.44,8.33,9.43,-9.43,-9.07,-1.10,-1.10,-1.11
125,8.34,9.46,8.33,9.45,-9.45,-9.07,-1.12,-1.13,-1.12
126,8.34,9.48,8.32,9.47,-9.47,-9.06,-1.13,-1.15,-1.14
128,8.35,9.53,8.32,9.49,-9.49,-9.05,-1.14,-1.17,-1.18
129,8.29,9.49,8.31,9.50,-9.50,-9.05,-1.21,-1.19,-1.20
130,8.26,9.47,8.30,9.51,-9.51,-9.04,-1.25,-1.22,-1.21
131,8.27,9.50,8.29,9.52,-9.52,-9.04,-1.25,-1.24,-1.23
133,8.27,9.53,8.27,9.53,-9.53,-9.03,-1.26,-1.26,-1.26
134,8.27,9.55,8.26,9.54,-9.54,-9.02,-1.27,-1.28,-1.28
135,8.28,9.57,8.25,9.55,-9.55,-9.02,-1.27,-1.30,-1.29
137,8.28,9.61,8.24,9.56,-9.56,-9.01,-1.28,-1.32,-1.33
138,8.22,9.56,8.23,9.57,-9.57,-9.01,-1.35,-1.34,-1.34
140,8.19,9.56,8.22,9.58,-9.58,-9.00,-1.39,-1.36,-1.37
141,8.19,9.57,8.21,9.59,-9.59,-8.99,-1.40,-1.38,-1.38
142,8.19,9.59,8.20,9.61,-9.61,-8.99,-1.42,-1.40,-1.40
144,8.19,9.62,8.20,9.62,-9.62,-8.98,-1.43,-1.42,-1.43
145,8.19,9.63,8.19,9.64,-9.64,-8.98,-1.45,-1.45,-1.44
147,8.19,9.66,8.19,9.65,-9.65,-8.98,-1.47,-1.47,-1.47
148,8.19,9.67,8.18,9.67,-9.67,-8.98,-1.48,-1.49,-1.48
150,8.19,9.70,8.17,9.67,-9.67,-8.97,-1.48,-1.51,-1.51
151,8.19,9.71,8.15,9.67,-9.67,-8.97,-1.49,-1.53,-1.52
153,8.14,9.69,8.12,9.67,-9.67,-8.97,-1.53,-1.55,-1.55
154,8.09,9.65,8.09,9.66,-9.66,-8.97,-1.57,-1.56,-1.56
156,8.00,9.59,8.06,9.64,-9.64,-8.97,-1.64,-1.58,-1.59
157,7.99,9.59,8.02,9.62,-9.62,-8.98,-1.63,-1.60,-1.60
159,7.99,9.61,7.98,9.60,-9.60,-8.98,-1.61,-1.62,-1.62
160,7.99,9.62,7.93,9.57,-9.57,-8.98,-1.58,-1.64,-1.63
162,7.94,9.59,7.88,9.54,-9.54,-8.99,-1.60,-1.65,-1.65
164,7.78,9.45,7.84,9.51,-9.51,-9.00,-1.73,-1.67,-1.67
165,7.78,9.46,7.79,9.48,-9.48,-9.00,-1.70,-1.69,-1.68
167,7.78,9.48,7.75,9.45,-9.45,-9.01,-1.67,-1.70,-1.70
169,7.67,9.39,7.71,9.43,-9.43,-9.02,-1.76,-1.71,-1.72
170,7.66,9.38,7.68,9.41,-9.41,-9.03,-1.75,-1.73,-1.72
172,7.66,9.40,7.66,9.40,-9.40,-9.04,-1.74,-1.74,-1.74
174,7.65,9.40,7.65,9.39,-9.39,-9.05,-1.75,-1.75,-1.75
175,7.64,9.39,7.64,9.40,-9.40,-9.06,-1.76,-1.76,-1.75
177,7.64,9.40,7.64,9.40,-9.40,-9.08,-1.76,-1.76,-1.76
179,7.64,9.41,7.64,9.40,-9.40,-9.10,-1.77,-1.77,-1.77
181,7.64,9.42,7.63,9.41,-9.41,-9.11,-1.77,-1.78,-1.78
183,7.65,9.43,7.63,9.41,-9.41,-9.13,-1.76,-1.78,-1.78
184,7.66,9.44,7.63,9.41,-9.41,-9.14,-1.75,-1.78,-1.78
186,7.60,9.38,7.62,9.41,-9.41,-9.16,-1.81,-1.79,-1.79
188,7.58,9.37,7.61,9.40,-9.40,-9.18,-1.82,-1.79,-1.79
190,7.60,9.39,7.60,9.39,-9.39,-9.21,-1.80,-1.79,-1.79
192,7.62,9.41,7.59,9.38,-9.38,-9.23,-1.76,-1.79,-1.79
194,7.61,9.40,7.57,9.37,-9.37,-9.25,-1.76,-1.79,-1.79
196,7.55,9.34,7.56,9.35,-9.35,-9.27,-1.80,-1.80,-1.80
198,7.53,9.33,7.54,9.33,-9.33,-9.29,-1.80,-1.80,-1.80
200,7.47,9.27,7.52,9.31,-9.31,-9.31,-1.84,-1.80,-1.80
202,7.47,9.27,7.49,9.29,-9.29,-9.33,-1.82,-1.80,-1.80
204,7.48,9.28,7.47,9.27,-9.27,-9.35,-1.79,-1.80,-1.80
206,7.48,9.28,7.44,9.24,-9.24,-9.37,-1.76,-1.80,-1.80
208,7.48,9.28,7.41,9.21,-9.21,-9.39,-1.73,-1.80,-1.80
210,7.37,9.17,7.38,9.18,-9.18,-9.40,-1.81,-1.80,-1.80
212,7.28,9.08,7.34,9.15,-9.15,-9.42,-1.87,-1.80,-1.80
214,7.27,9.07,7.31,9.11,-9.11,-9.43,-1.84,-1.80,-1.80
216,7.27,9.07,7.27,9.07,-9.07,-9.44,-1.81,-1.80,-1.80
218,7.26,9.06,7.24,9.04,-9.04,-9.45,-1.78,-1.80,-1.80
221,7.26,9.06,7.20,9.00,-9.00,-9.46,-1.74,-1.80,-1.80
223,7.20,9.00,7.16,8.96,-8.96,-9.46,-1.76,-1.80,-1.80
225,7.07,8.87,7.12,8.92,-8.92,-9.46,-1.85,-1.80,-1.80
227,7.06,8.86,7.09,8.88,-8.88,-9.46,-1.83,-1.80,-1.80
229,7.06,8.85,7.05,8.85,-8.85,-9.46,-1.79,-1.79,-1.79
232,6.99,8.78,7.02,8.81,-8.81,-9.44,-1.82,-1.79,-1.79
234,6.98,8.77,6.99,8.77,-8.77,-9.43,-1.80,-1.79,-1.79
236,6.99,8.77,6.96,8.74,-8.74,-9.42,-1.75,-1.78,-1.78
239,6.97,8.75,6.93,8.70,-8.70,-9.39,-1.73,-1.78,-1.78
241,6.88,8.65,6.89,8.66,-8.66,-9.37,-1.79,-1.77,-1.77
244,6.84,8.60,6.86,8.63,-8.63,-9.33,-1.79,-1.76,-1.77
246,6.86,8.62,6.83,8.59,-8.59,-9.30,-1.73,-1.76,-1.76
248,6.79,8.54,6.80,8.55,-8.55,-9.27,-1.76,-1.75,-1.75
251,6.70,8.44,6.76,8.51,-8.51,-9.21,-1.81,-1.74,-1.74
253,6.72,8.45,6.73,8.46,-8.46,-9.17,-1.74,-1.74,-1.73
256,6.73,8.46,6.69,8.42,-8.42,-9.11,-1.69,-1.73,-1.73
259,6.70,8.42,6.65,8.37,-8.37,-9.04,-1.67,-1.72,-1.72
261,6.58,8.29,6.60,8.31,-8.31,-8.99,-1.73,-1.71,-1.71
264,6.54,8.24,6.55,8.25,-8.25,-8.91,-1.71,-1.71,-1.71
266,6.54,8.24,6.49,8.19,-8.19,-8.86,-1.65,-1.70,-1.70
269,6.39,8.08,6.44,8.13,-8.13,-8.78,-1.74,-1.69,-1.69
272,6.33,8.01,6.37,8.06,-8.06,-8.69,-1.73,-1.68,-1.68
274,6.33,8.00,6.31,7.98,-7.98,-8.63,-1.66,-1.68,-1.68
277,6.25,7.92,6.24,7.91,-7.91,-8.53,-1.66,-1.67,-1.67
280,6.20,7.86,6.17,7.83,-7.83,-8.44,-1.63,-1.66,-1.66
283,6.13,7.79,6.10,7.75,-7.75,-8.34,-1.62,-1.66,-1.66
286,6.02,7.67,6.02,7.67,-7.67,-8.24,-1.65,-1.65,-1.65
288,5.94,7.58,5.95,7.59,-7.59,-8.18,-1.66,-1.64,-1.64
291,5.90,7.54,5.88,7.52,-7.52,-8.08,-1.62,-1.64,-1.64
294,5.77,7.40,5.82,7.45,-7.45,-7.98,-1.69,-1.63,-1.63
297,5.73,7.36,5.77,7.40,-7.40,-7.88,-1.67,-1.63,-1.63
300,5.69,7.31,5.72,7.35,-7.35,-7.78,-1.66,-1.62,-1.62
303,5.70,7.31,5.69,7.30,-7.30,-7.68,-1.60,-1.62,-1.62
306,5.71,7.32,5.66,7.27,-7.27,-7.58,-1.56,-1.61,-1.61
309,5.65,7.25,5.63,7.23,-7.23,-7.49,-1.58,-1.60,-1.60
312,5.61,7.21,5.60,7.20,-7.20,-7.39,-1.59,-1.60,-1.60
316,5.53,7.12,5.58,7.17,-7.17,-7.27,-1.64,-1.59,-1.59
319,5.53,7.12,5.55,7.14,-7.14,-7.18,-1.61,-1.59,-1.59
322,5.54,7.12,5.52,7.10,-7.10,-7.10,-1.56,-1.58,-1.58
325,5.53,7.11,5.48,7.06,-7.06,-7.01,-1.53,-1.58,-1.58
328,5.49,7.06,5.45,7.02,-7.02,-6.93,-1.53,-1.57,-1.57
332,5.42,6.99,5.42,6.99,-6.99,-6.82,-1.57,-1.57,-1.57
335,5.33,6.90,5.39,6.95,-6.95,-6.75,-1.62,-1.57,-1.57
338,5.32,6.88,5.36,6.93,-6.93,-6.68,-1.61,-1.56,-1.56
342,5.32,6.88,5.35,6.90,-6.90,-6.58,-1.59,-1.56,-1.56
345,5.32,6.87,5.33,6.89,-6.89,-6.52,-1.57,-1.56,-1.56
349,5.32,6.87,5.32,6.87,-6.87,-6.44,-1.55,-1.55,-1.55
352,5.32,6.87,5.30,6.86,-6.86,-6.38,-1.54,-1.55,-1.55
356,5.33,6.88,5.28,6.83,-6.83,-6.30,-1.50,-1.55,-1.55
359,5.27,6.82,5.26,6.80,-6.80,-6.25,-1.53,-1.55,-1.55
363,5.22,6.76,5.22,6.76,-6.76,-6.19,-1.54,-1.55,-1.54
366,5.15,6.69,5.16,6.70,-6.70,-6.14,-1.55,-1.54,-1.54
370,5.10,6.64,5.09,6.63,-6.63,-6.09,-1.53,-1.54,-1.54
374,5.01,6.55,5.00,6.55,-6.55,-6.04,-1.54,-1.54,-1.54
377,4.96,6.50,4.91,6.45,-6.45,-6.00,-1.49,-1.54,-1.54
381,4.81,6.34,4.80,6.34,-6.34,-5.96,-1.53,-1.54,-1.54
385,4.72,6.25,4.69,6.22,-6.22,-5.92,-1.51,-1.53,-1.53
389,4.58,6.11,4.58,6.11,-6.11,-5.88,-1.53,-1.53,-1.53
393,4.43,5.95,4.48,6.00,-6.00,-5.85,-1.57,-1.52,-1.52
397,4.36,5.87,4.39,5.90,-5.90,-5.82,-1.54,-1.51,-1.51
401,4.25,5.75,4.30,5.81,-5.81,-5.78,-1.56,-1.50,-1.50
405,4.19,5.68,4.23,5.73,-5.73,-5.75,-1.54,-1.49,-1.49
409,4.14,5.62,4.17,5.65,-5.65,-5.71,-1.51,-1.48,-1.48
413,4.19,5.65,4.11,5.57,-5.57,-5.67,-1.38,-1.46,-1.46
417,4.08,5.52,4.05,5.49,-5.49,-5.63,-1.41,-1.44,-1.44
421,4.01,5.43,3.99,5.41,-5.41,-5.59,-1.40,-1.42,-1.42
425,4.02,5.41,3.92,5.32,-5.32,-5.53,-1.30,-1.39,-1.40
430,3.86,5.23,3.85,5.22,-5.22,-5.46,-1.36,-1.37,-1.37
434,3.72,5.06,3.79,5.12,-5.12,-5.39,-1.40,-1.34,-1.34
438,3.59,4.89,3.72,5.03,-5.03,-5.32,-1.44,-1.30,-1.30
443,3.68,4.95,3.67,4.93,-4.93,-5.22,-1.25,-1.27,-1.27
447,3.68,4.91,3.62,4.84,-4.84,-5.13,-1.16,-1.23,-1.23
451,3.59,4.78,3.57,4.76,-4.76,-5.03,-1.17,-1.19,-1.19
456,3.52,4.67,3.53,4.68,-4.68,-4.90,-1.16,-1.15,-1.15
460,3.43,4.54,3.49,4.60,-4.60,-4.78,-1.17,-1.11,-1.11
465,3.43,4.49,3.45,4.52,-4.52,-4.64,-1.09,-1.07,-1.07
470,3.47,4.49,3.40,4.43,-4.43,-4.48,-0.96,-1.03,-1.03
474,3.34,4.33,3.34,4.33,-4.33,-4.36,-0.99,-0.99,-0.99
479,3.33,4.28,3.27,4.22,-4.22,-4.19,-0.90,-0.95,-0.95
484,3.23,4.14,3.19,4.11,-4.11,-4.03,-0.88,-0.92,-0.92
489,3.09,3.97,3.10,3.98,-3.98,-3.86,-0.89,-0.89,-0.88
494,2.93,3.79,2.99,3.85,-3.85,-3.69,-0.92,-0.86,-0.86
499,2.84,3.67,2.87,3.71,-3.71,-3.53,-0.87,-0.84,-0.83
504,2.78,3.59,2.75,3.56,-3.56,-3.36,-0.78,-0.82,-0.81
509,2.65,3.45,2.61,3.41,-3.41,-3.19,-0.76,-0.80,-0.80
514,2.45,3.24,2.47,3.26,-3.26,-3.03,-0.81,-0.79,-0.79
519,2.30,3.08,2.31,3.10,-3.10,-2.87,-0.80,-0.78,-0.78
524,2.17,2.95,2.16,2.94,-2.94,-2.71,-0.77,-0.78,-0.78
529,2.03,2.81,1.99,2.77,-2.77,-2.55,-0.75,-0.78,-0.78
535,1.83,2.62,1.82,2.61,-2.61,-2.36,-0.78,-0.79,-0.79
540,1.57,2.36,1.64,2.44,-2.44,-2.21,-0.87,-0.80,-0.80
545,1.40,2.20,1.46,2.26,-2.26,-2.06,-0.87,-0.81,-0.80
551,1.23,2.04,1.27,2.08,-2.08,-1.88,-0.85,-0.82,-0.82
556,1.19,2.02,1.07,1.90,-1.90,-1.73,-0.71,-0.83,-0.83
562,0.97,1.81,0.86,1.70,-1.70,-1.56,-0.73,-0.84,-0.84
568,0.70,1.55,0.65,1.50,-1.50,-1.39,-0.80,-0.85,-0.85
573,0.36,1.22,0.44,1.29,-1.29,-1.25,-0.93,-0.86,-0.86
579,0.16,1.02,0.22,1.08,-1.08,-1.08,-0.93,-0.86,-0.86
585,-0.05,0.82,0.01,0.88,-0.88,-0.91,-0.93,-0.86,-0.87
591,-0.13,0.74,-0.19,0.68,-0.68,-0.75,-0.81,-0.86,-0.87
596,-0.35,0.51,-0.38,0.48,-0.48,-0.61,-0.84,-0.86,-0.86
602,-0.63,0.22,-0.56,0.30,-0.30,-0.44,-0.93,-0.85,-0.86
608,-0.74,0.10,-0.72,0.12,-0.12,-0.28,-0.86,-0.84,-0.84
615,-0.82,0.01,-0.88,-0.06,0.06,-0.09,-0.77,-0.83,-0.83
621,-1.03,-0.22,-1.03,-0.22,0.22,0.08,-0.81,-0.81,-0.81
627,-1.19,-0.40,-1.18,-0.39,0.39,0.24,-0.80,-0.79,-0.79
633,-1.32,-0.56,-1.32,-0.56,0.56,0.41,-0.76,-0.76,-0.76
639,-1.44,-0.71,-1.45,-0.72,0.72,0.57,-0.72,-0.73,-0.73
646,-1.58,-0.88,-1.59,-0.88,0.88,0.77,-0.70,-0.70,-0.70
652,-1.75,-1.08,-1.71,-1.04,1.04,0.93,-0.71,-0.67,-0.67
659,-1.84,-1.20,-1.84,-1.21,1.21,1.12,-0.64,-0.64,-0.64
665,-1.94,-1.34,-1.97,-1.37,1.37,1.29,-0.58,-0.60,-0.60
672,-2.10,-1.53,-2.09,-1.52,1.52,1.48,-0.58,-0.57,-0.57
679,-2.19,-1.66,-2.22,-1.68,1.68,1.66,-0.51,-0.53,-0.53
686,-2.31,-1.81,-2.34,-1.84,1.84,1.85,-0.47,-0.50,-0.50
692,-2.48,-2.01,-2.46,-1.99,1.99,2.00,-0.49,-0.47,-0.47
699,-2.67,-2.23,-2.59,-2.15,2.15,2.18,-0.52,-0.44,-0.44
706,-2.70,-2.29,-2.71,-2.30,2.30,2.35,-0.40,-0.41,-0.41
713,-2.74,-2.36,-2.84,-2.45,2.45,2.51,-0.29,-0.38,-0.38
721,-2.93,-2.57,-2.96,-2.60,2.60,2.68,-0.33,-0.36,-0.36
728,-3.14,-2.80,-3.08,-2.74,2.74,2.82,-0.40,-0.34,-0.34
735,-3.20,-2.88,-3.20,-2.88,2.88,2.95,-0.32,-0.32,-0.32
742,-3.27,-2.97,-3.31,-3.01,3.01,3.06,-0.26,-0.30,-0.30
750,-3.41,-3.13,-3.41,-3.13,3.13,3.18,-0.28,-0.28,-0.28
757,-3.48,-3.21,-3.50,-3.23,3.23,3.26,-0.25,-0.27,-0.27
765,-3.59,-3.33,-3.57,-3.31,3.31,3.33,-0.28,-0.26,-0.26
773,-3.67,-3.43,-3.61,-3.37,3.37,3.38,-0.30,-0.25,-0.25
780,-3.68,-3.45,-3.64,-3.40,3.40,3.40,-0.28,-0.24,-0.24
788,-3.62,-3.39,-3.64,-3.41,3.41,3.41,-0.21,-0.23,-0.23
796,-3.58,-3.36,-3.61,-3.39,3.39,3.40,-0.19,-0.22,-0.22
804,-3.58,-3.37,-3.56,-3.35,3.35,3.36,-0.23,-0.21,-0.21
812,-3.51,-3.31,-3.49,-3.29,3.29,3.30,-0.23,-0.20,-0.20
820,-3.37,-3.17,-3.40,-3.20,3.20,3.23,-0.17,-0.20,-0.20
828,-3.31,-3.12,-3.30,-3.11,3.11,3.14,-0.20,-0.19,-0.19
837,-3.20,-3.02,-3.18,-3.00,3.00,3.03,-0.20,-0.18,-0.18
845,-3.02,-2.85,-3.06,-2.88,2.88,2.91,-0.14,-0.18,-0.18
853,-2.89,-2.72,-2.92,-2.76,2.76,2.78,-0.13,-0.17,-0.17
862,-2.79,-2.63,-2.79,-2.63,2.63,2.63,-0.16,-0.16,-0.16
871,-2.65,-2.50,-2.64,-2.49,2.49,2.48,-0.16,-0.15,-0.15
879,-2.48,-2.34,-2.50,-2.35,2.35,2.33,-0.13,-0.15,-0.15
888,-2.34,-2.20,-2.34,-2.20,2.20,2.16,-0.14,-0.14,-0.14
897,-2.21,-2.08,-2.18,-2.05,2.05,1.99,-0.16,-0.13,-0.13
906,-2.02,-1.90,-2.02,-1.89,1.89,1.82,-0.13,-0.12,-0.12
915,-1.84,-1.73,-1.84,-1.73,1.73,1.65,-0.11,-0.11,-0.11
924,-1.65,-1.55,-1.66,-1.56,1.56,1.47,-0.09,-0.10,-0.10
933,-1.47,-1.38,-1.48,-1.39,1.39,1.30,-0.08,-0.09,-0.09
943,-1.26,-1.18,-1.29,-1.21,1.21,1.11,-0.05,-0.08,-0.08
952,-1.08,-1.01,-1.09,-1.02,1.02,0.94,-0.06,-0.07,-0.07
962,-0.91,-0.86,-0.88,-0.83,0.83,0.75,-0.08,-0.05,-0.05
971,-0.74,-0.70,-0.67,-0.63,0.63,0.58,-0.11,-0.04,-0.04
981,-0.45,-0.43,-0.45,-0.43,0.43,0.39,-0.03,-0.02,-0.02
991,-0.17,-0.17,-0.22,-0.21,0.21,0.20,0.04,-0.01,-0.01
1001,0.02,0.01,0.01,0.00,-0.00,0.01,0.02,0.01,0.01
1011,0.25,0.22,0.25,0.22,-0.22,-0.17,0.03,0.03,0.03
1021,0.50,0.44,0.50,0.44,-0.44,-0.36,0.06,0.06,0.06
1031,0.68,0.60,0.74,0.66,-0.66,-0.54,0.02,0.08,0.08
1041,0.94,0.83,0.97,0.87,-0.87,-0.73,0.07,0.10,0.10
1052,1.27,1.14,1.20,1.07,-1.07,-0.93,0.20,0.13,0.13
1062,1.47,1.31,1.42,1.26,-1.26,-1.12,0.21,0.16,0.16
1073,1.57,1.38,1.63,1.44,-1.44,-1.32,0.13,0.19,0.19
1084,1.88,1.66,1.82,1.60,-1.60,-1.52,0.28,0.22,0.22
1094,2.10,1.84,2.00,1.75,-1.75,-1.69,0.35,0.25,0.25
1105,2.19,1.90,2.18,1.89,-1.89,-1.88,0.30,0.29,0.29
1116,2.22,1.90,2.35,2.03,-2.03,-2.06,0.19,0.32,0.32
1128,2.55,2.19,2.52,2.17,-2.17,-2.25,0.38,0.36,0.36
1139,2.71,2.32,2.70,2.31,-2.31,-2.41,0.40,0.39,0.39
1150,2.70,2.28,2.87,2.44,-2.44,-2.55,0.25,0.42,0.42
1162,2.94,2.48,3.03,2.57,-2.57,-2.70,0.36,0.46,0.46
1173,3.33,2.84,3.18,2.69,-2.69,-2.81,0.64,0.49,0.49
1185,3.38,2.86,3.31,2.79,-2.79,-2.92,0.59,0.52,0.52
1197,3.47,2.92,3.42,2.87,-2.87,-3.00,0.60,0.55,0.55
1209,3.75,3.17,3.51,2.94,-2.94,-3.07,0.81,0.57,0.57
1221,3.74,3.14,3.61,3.01,-3.01,-3.13,0.73,0.60,0.60
1233,3.67,3.05,3.71,3.09,-3.09,-3.17,0.58,0.62,0.62
1246,3.58,2.94,3.84,3.20,-3.20,-3.21,0.38,0.64,0.64
1258,3.53,2.87,3.99,3.34,-3.34,-3.23,0.19,0.65,0.65
1271,3.88,3.21,4.17,3.50,-3.50,-3.26,0.38,0.67,0.67
1283,4.33,3.65,4.34,3.66,-3.66,-3.28,0.67,0.68,0.68
1296,4.77,4.09,4.48,3.80,-3.80,-3.31,0.97,0.68,0.68
1309,4.73,4.04,4.57,3.88,-3.88,-3.35,0.85,0.69,0.69
1322,5.05,4.36,4.59,3.90,-3.90,-3.39,1.15,0.69,0.69
1335,4.95,4.26,4.54,3.85,-3.85,-3.45,1.09,0.68,0.68
1349,4.69,4.01,4.43,3.75,-3.75,-3.52,0.93,0.68,0.68
1362,4.07,3.39,4.31,3.63,-3.63,-3.60,0.44,0.67,0.67
1376,3.86,3.19,4.19,3.52,-3.52,-3.71,0.34,0.67,0.67
1390,3.79,3.13,4.12,3.47,-3.47,-3.83,0.32,0.66,0.66
1404,3.79,3.14,4.13,3.48,-3.48,-3.97,0.30,0.65,0.65
1418,4.12,3.48,4.23,3.59,-3.59,-4.13,0.53,0.64,0.64
1432,4.36,3.73,4.41,3.77,-3.77,-4.30,0.59,0.63,0.63
1446,4.71,4.08,4.64,4.02,-4.02,-4.49,0.69,0.63,0.63
1461,5.20,4.58,4.91,4.29,-4.29,-4.70,0.91,0.62,0.62
1475,5.24,4.62,5.19,4.57,-4.57,-4.90,0.67,0.62,0.62
1490,5.50,4.88,5.45,4.84,-4.84,-5.12,0.66,0.62,0.62
1505,5.74,5.12,5.68,5.07,-5.07,-5.32,0.67,0.62,0.62
1520,5.93,5.31,5.88,5.25,-5.25,-5.51,0.68,0.62,0.62
1535,6.07,5.44,6.03,5.40,-5.40,-5.67,0.67,0.63,0.63
1550,5.85,5.20,6.14,5.50,-5.50,-5.78,0.35,0.65,0.65
1566,6.26,5.59,6.22,5.55,-5.55,-5.85,0.71,0.67,0.67
1582,6.41,5.72,6.26,5.57,-5.57,-5.85,0.84,0.69,0.69
1597,6.37,5.65,6.26,5.54,-5.54,-5.81,0.83,0.72,0.72
1613,6.26,5.50,6.22,5.47,-5.47,-5.70,0.79,0.76,0.75
1629,6.10,5.30,6.16,5.36,-5.36,-5.56,0.74,0.80,0.79
1646,6.06,5.22,6.07,5.23,-5.23,-5.37,0.83,0.84,0.84
1662,5.97,5.08,5.96,5.07,-5.07,-5.17,0.90,0.89,0.89
1679,5.85,4.90,5.84,4.89,-4.89,-4.95,0.96,0.95,0.95
1696,5.70,4.69,5.72,4.71,-4.71,-4.72,0.99,1.01,1.01
1713,5.54,4.46,5.60,4.52,-4.52,-4.51,1.02,1.08,1.08
1730,5.45,4.30,5.49,4.34,-4.34,-4.30,1.11,1.15,1.15
1747,5.39,4.16,5.39,4.17,-4.17,-4.11,1.22,1.23,1.23
1764,5.34,4.03,5.31,4.00,-4.00,-3.94,1.34,1.31,1.31
1782,5.24,3.85,5.24,3.85,-3.85,-3.77,1.39,1.39,1.39
1800,5.20,3.72,5.18,3.70,-3.70,-3.62,1.50,1.48,1.48
1818,5.14,3.57,5.14,3.57,-3.57,-3.49,1.57,1.57,1.57
1836,5.09,3.42,5.11,3.44,-3.44,-3.38,1.65,1.66,1.66
1854,5.07,3.31,5.09,3.33,-3.33,-3.28,1.74,1.76,1.76
