frequency,raw,error,smoothed,error_smoothed,equalization,parametric_eq,equalized_raw,equalized_smoothed,target
20,-1.88,-1.38,-1.86,-1.34,1.34,0.62,-0.54,-0.52,-0.50
21,-1.80,-1.29,-1.83,-1.31,1.31,0.72,-0.49,-0.52,-0.51
22,-1.81,-1.30,-1.80,-1.28,1.28,0.82,-0.53,-0.52,-0.51
23,-1.85,-1.33,-1.78,-1.26,1.26,0.94,-0.59,-0.53,-0.52
24,-1.82,-1.30,-1.77,-1.24,1.24,1.07,-0.58,-0.53,-0.52
25,-1.75,-1.22,-1.77,-1.24,1.24,1.19,-0.51,-0.54,-0.53
26,-1.74,-1.20,-1.78,-1.24,1.24,1.32,-0.50,-0.54,-0.54
27,-1.75,-1.21,-1.79,-1.25,1.25,1.44,-0.50,-0.55,-0.54
28,-1.75,-1.20,-1.82,-1.26,1.26,1.56,-0.49,-0.55,-0.55
29,-1.81,-1.25,-1.85,-1.28,1.28,1.65,-0.53,-0.56,-0.56
30,-1.86,-1.29,-1.88,-1.31,1.31,1.72,-0.55,-0.57,-0.57
31,-1.91,-1.34,-1.94,-1.36,1.36,1.77,-0.55,-0.58,-0.57
32,-1.99,-1.41,-2.00,-1.41,1.41,1.80,-0.58,-0.59,-0.58
33,-2.09,-1.50,-2.07,-1.47,1.47,1.81,-0.62,-0.59,-0.59
34,-2.19,-1.59,-2.15,-1.54,1.54,1.80,-0.65,-0.61,-0.60
35,-2.25,-1.64,-2.23,-1.61,1.61,1.79,-0.64,-0.62,-0.61
36,-2.31,-1.69,-2.31,-1.68,1.68,1.76,-0.63,-0.63,-0.62
37,-2.39,-1.75,-2.40,-1.75,1.75,1.74,-0.64,-0.65,-0.64
38,-2.49,-1.84,-2.48,-1.82,1.82,1.72,-0.67,-0.66,-0.65
39,-2.57,-1.91,-2.56,-1.89,1.89,1.69,-0.68,-0.67,-0.66
40,-2.64,-1.96,-2.63,-1.95,1.95,1.68,-0.69,-0.68,-0.68
41,-2.70,-2.01,-2.70,-2.01,2.01,1.67,-0.69,-0.70,-0.69
42,-2.77,-2.06,-2.77,-2.06,2.06,1.67,-0.71,-0.71,-0.71
43,-2.84,-2.12,-2.83,-2.11,2.11,1.67,-0.73,-0.72,-0.72
44,-2.90,-2.16,-2.89,-2.15,2.15,1.69,-0.75,-0.74,-0.74
45,-2.96,-2.21,-2.95,-2.19,2.19,1.70,-0.77,-0.76,-0.75
46,-3.01,-2.24,-3.01,-2.23,2.23,1.73,-0.78,-0.78,-0.77
47,-3.06,-2.27,-3.05,-2.26,2.26,1.76,-0.80,-0.79,-0.79
48,-3.10,-2.29,-3.10,-2.29,2.29,1.79,-0.81,-0.81,-0.81
49,-3.14,-2.31,-3.15,-2.32,2.32,1.83,-0.82,-0.83,-0.83
50,-3.18,-2.33,-3.19,-2.34,2.34,1.87,-0.84,-0.85,-0.85
51,-3.22,-2.35,-3.23,-2.36,2.36,1.91,-0.86,-0.87,-0.87
52,-3.26,-2.37,-3.27,-2.37,2.37,1.95,-0.89,-0.90,-0.89
53,-3.30,-2.38,-3.31,-2.39,2.39,2.00,-0.91,-0.92,-0.92
54,-3.33,-2.39,-3.34,-2.39,2.39,2.04,-0.94,-0.95,-0.94
55,-3.37,-2.40,-3.37,-2.40,2.40,2.08,-0.97,-0.97,-0.97
56,-3.40,-2.41,-3.39,-2.39,2.39,2.11,-1.01,-1.00,-0.99
57,-3.43,-2.41,-3.41,-2.38,2.38,2.14,-1.05,-1.03,-1.02
58,-3.44,-2.40,-3.42,-2.37,2.37,2.16,-1.07,-1.05,-1.04
59,-3.45,-2.38,-3.43,-2.35,2.35,2.18,-1.10,-1.08,-1.07
60,-3.45,-2.35,-3.43,-2.32,2.32,2.19,-1.13,-1.11,-1.10
61,-3.44,-2.31,-3.43,-2.29,2.29,2.20,-1.15,-1.13,-1.13
62,-3.42,-2.26,-3.42,-2.26,2.26,2.19,-1.16,-1.16,-1.16
63,-3.40,-2.21,-3.41,-2.22,2.22,2.18,-1.18,-1.19,-1.19
64,-3.37,-2.15,-3.40,-2.17,2.17,2.16,-1.20,-1.22,-1.22
65,-3.35,-2.10,-3.38,-2.13,2.13,2.14,-1.22,-1.25,-1.25
66,-3.34,-2.06,-3.36,-2.08,2.08,2.11,-1.26,-1.28,-1.28
67,-3.33,-2.02,-3.34,-2.03,2.03,2.07,-1.30,-1.31,-1.31
68,-3.32,-1.98,-3.32,-1.98,1.98,2.03,-1.34,-1.35,-1.34
69,-3.32,-1.94,-3.30,-1.92,1.92,1.99,-1.40,-1.38,-1.38
70,-3.30,-1.89,-3.28,-1.87,1.87,1.94,-1.43,-1.41,-1.41
71,-3.28,-1.84,-3.26,-1.81,1.81,1.89,-1.47,-1.45,-1.44
72,-3.25,-1.77,-3.23,-1.75,1.75,1.84,-1.50,-1.48,-1.48
73,-3.21,-1.70,-3.20,-1.68,1.68,1.79,-1.53,-1.52,-1.51
74,-3.16,-1.61,-3.17,-1.62,1.62,1.74,-1.54,-1.55,-1.55
75,-3.12,-1.54,-3.14,-1.55,1.55,1.68,-1.57,-1.59,-1.58
76,-3.09,-1.47,-3.10,-1.48,1.48,1.63,-1.61,-1.62,-1.62
77,-3.07,-1.42,-3.06,-1.41,1.41,1.58,-1.66,-1.65,-1.65
78,-3.03,-1.34,-3.03,-1.34,1.34,1.53,-1.69,-1.69,-1.69
79,-3.00,-1.28,-2.99,-1.27,1.27,1.48,-1.73,-1.72,-1.72
80,-2.95,-1.19,-2.95,-1.20,1.20,1.43,-1.75,-1.76,-1.76
81,-2.91,-1.11,-2.92,-1.13,1.13,1.38,-1.78,-1.79,-1.80
82,-2.88,-1.05,-2.89,-1.06,1.06,1.33,-1.82,-1.83,-1.83
83,-2.86,-0.99,-2.86,-0.99,0.99,1.29,-1.87,-1.87,-1.87
84,-2.83,-0.93,-2.84,-0.93,0.93,1.24,-1.90,-1.91,-1.90
85,-2.81,-0.87,-2.81,-0.87,0.87,1.20,-1.94,-1.94,-1.94
86,-2.80,-0.82,-2.79,-0.81,0.81,1.16,-1.99,-1.98,-1.98
87,-2.78,-0.77,-2.77,-0.76,0.76,1.12,-2.02,-2.01,-2.01
88,-2.76,-0.71,-2.76,-0.70,0.70,1.08,-2.06,-2.05,-2.05
89,-2.74,-0.65,-2.74,-0.65,0.65,1.05,-2.09,-2.09,-2.09
90,-2.73,-0.61,-2.73,-0.61,0.61,1.01,-2.12,-2.12,-2.12
91,-2.73,-0.57,-2.73,-0.57,0.57,0.98,-2.16,-2.16,-2.16
92,-2.72,-0.53,-2.72,-0.53,0.53,0.95,-2.19,-2.19,-2.19
93,-2.72,-0.49,-2.72,-0.49,0.49,0.92,-2.23,-2.23,-2.23
94,-2.72,-0.46,-2.72,-0.46,0.46,0.89,-2.26,-2.26,-2.26
95,-2.74,-0.44,-2.73,-0.44,0.44,0.86,-2.30,-2.29,-2.30
96,-2.75,-0.42,-2.75,-0.42,0.42,0.83,-2.33,-2.33,-2.33
97,-2.75,-0.38,-2.77,-0.41,0.41,0.80,-2.34,-2.37,-2.37
98,-2.78,-0.38,-2.80,-0.39,0.39,0.78,-2.39,-2.41,-2.40
99,-2.81,-0.37,-2.83,-0.39,0.39,0.76,-2.42,-2.45,-2.44
100,-2.85,-0.38,-2.87,-0.38,0.38,0.73,-2.47,-2.48,-2.47
101,-2.89,-0.39,-2.90,-0.38,0.38,0.71,-2.51,-2.52,-2.50
102,-2.94,-0.40,-2.94,-0.38,0.38,0.69,-2.56,-2.56,-2.54
104,-3.02,-0.42,-2.98,-0.38,0.38,0.65,-2.64,-2.60,-2.60
105,-3.05,-0.42,-3.01,-0.38,0.38,0.64,-2.67,-2.63,-2.63
106,-3.08,-0.42,-3.04,-0.38,0.38,0.62,-2.70,-2.66,-2.66
107,-3.10,-0.41,-3.07,-0.38,0.38,0.61,-2.72,-2.70,-2.69
108,-3.11,-0.39,-3.11,-0.38,0.38,0.59,-2.73,-2.73,-2.72
109,-3.13,-0.38,-3.14,-0.37,0.37,0.58,-2.76,-2.76,-2.75
110,-3.15,-0.37,-3.16,-0.37,0.37,0.57,-2.78,-2.79,-2.78
111,-3.17,-0.36,-3.19,-0.37,0.37,0.56,-2.80,-2.82,-2.81
112,-3.20,-0.36,-3.22,-0.36,0.36,0.55,-2.84,-2.86,-2.84
113,-3.22,-0.35,-3.24,-0.36,0.36,0.54,-2.86,-2.88,-2.87
114,-3.26,-0.36,-3.27,-0.36,0.36,0.53,-2.90,-2.91,-2.90
115,-3.28,-0.35,-3.30,-0.35,0.35,0.53,-2.93,-2.94,-2.93
117,-3.35,-0.37,-3.32,-0.35,0.35,0.52,-3.00,-2.97,-2.98
118,-3.39,-0.38,-3.35,-0.35,0.35,0.52,-3.04,-3.00,-3.01
119,-3.42,-0.39,-3.39,-0.35,0.35,0.52,-3.07,-3.04,-3.03
120,-3.44,-0.38,-3.42,-0.36,0.36,0.52,-3.08,-3.07,-3.06
121,-3.46,-0.38,-3.46,-0.36,0.36,0.52,-3.10,-3.10,-3.08
123,-3.50,-0.37,-3.51,-0.37,0.37,0.53,-3.13,-3.13,-3.13
124,-3.52,-0.36,-3.55,-0.39,0.39,0.53,-3.13,-3.16,-3.16
125,-3.56,-0.38,-3.60,-0.40,0.40,0.54,-3.16,-3.19,-3.18
126,-3.60,-0.40,-3.64,-0.42,0.42,0.54,-3.18,-3.22,-3.20
128,-3.70,-0.45,-3.69,-0.45,0.45,0.56,-3.25,-3.25,-3.25
129,-3.76,-0.49,-3.74,-0.47,0.47,0.57,-3.29,-3.27,-3.27
130,-3.83,-0.54,-3.80,-0.50,0.50,0.58,-3.33,-3.29,-3.29
131,-3.88,-0.57,-3.86,-0.54,0.54,0.60,-3.34,-3.32,-3.31
133,-3.98,-0.63,-3.93,-0.58,0.58,0.62,-3.40,-3.35,-3.35
134,-4.01,-0.64,-4.01,-0.63,0.63,0.64,-3.38,-3.38,-3.37
135,-4.04,-0.65,-4.08,-0.68,0.68,0.65,-3.36,-3.41,-3.39
137,-4.14,-0.71,-4.17,-0.73,0.73,0.69,-3.41,-3.44,-3.43
138,-4.20,-0.75,-4.25,-0.79,0.79,0.71,-3.41,-3.46,-3.45
140,-4.34,-0.86,-4.33,-0.85,0.85,0.75,-3.49,-3.48,-3.48
141,-4.42,-0.92,-4.42,-0.91,0.91,0.77,-3.51,-3.50,-3.50
142,-4.50,-0.98,-4.51,-0.98,0.98,0.79,-3.52,-3.53,-3.52
144,-4.64,-1.09,-4.60,-1.05,1.05,0.83,-3.59,-3.55,-3.55
145,-4.71,-1.15,-4.70,-1.13,1.13,0.85,-3.58,-3.57,-3.56
147,-4.84,-1.24,-4.80,-1.21,1.21,0.90,-3.63,-3.60,-3.60
148,-4.89,-1.28,-4.91,-1.29,1.29,0.93,-3.60,-3.62,-3.61
150,-5.01,-1.37,-5.02,-1.37,1.37,0.98,-3.64,-3.65,-3.64
151,-5.08,-1.43,-5.12,-1.46,1.46,1.00,-3.62,-3.67,-3.65
153,-5.22,-1.54,-5.23,-1.54,1.54,1.05,-3.68,-3.68,-3.68
154,-5.30,-1.61,-5.33,-1.63,1.63,1.08,-3.67,-3.70,-3.69
156,-5.46,-1.74,-5.43,-1.71,1.71,1.14,-3.75,-3.72,-3.72
157,-5.54,-1.81,-5.54,-1.80,1.80,1.17,-3.74,-3.74,-3.73
159,-5.68,-1.92,-5.64,-1.89,1.89,1.22,-3.79,-3.75,-3.76
160,-5.74,-1.97,-5.74,-1.97,1.97,1.25,-3.77,-3.77,-3.77
162,-5.84,-2.05,-5.84,-2.05,2.05,1.31,-3.79,-3.79,-3.79
164,-5.94,-2.13,-5.94,-2.13,2.13,1.37,-3.81,-3.81,-3.81
165,-5.99,-2.17,-6.04,-2.20,2.20,1.40,-3.79,-3.84,-3.82
167,-6.09,-2.25,-6.12,-2.26,2.26,1.47,-3.83,-3.86,-3.84
169,-6.20,-2.34,-6.20,-2.32,2.32,1.53,-3.88,-3.88,-3.86
170,-6.24,-2.37,-6.27,-2.36,2.36,1.56,-3.88,-3.90,-3.87
172,-6.35,-2.46,-6.32,-2.40,2.40,1.63,-3.95,-3.92,-3.89
174,-6.41,-2.50,-6.36,-2.42,2.42,1.70,-3.99,-3.94,-3.91
175,-6.43,-2.51,-6.38,-2.43,2.43,1.73,-4.00,-3.95,-3.92
177,-6.46,-2.53,-6.39,-2.43,2.43,1.80,-4.03,-3.97,-3.93
179,-6.46,-2.51,-6.39,-2.41,2.41,1.87,-4.05,-3.98,-3.95
181,-6.44,-2.47,-6.39,-2.40,2.40,1.94,-4.04,-3.99,-3.97
183,-6.40,-2.42,-6.38,-2.38,2.38,2.01,-4.02,-4.00,-3.98
184,-6.37,-2.38,-6.37,-2.36,2.36,2.05,-4.01,-4.01,-3.99
186,-6.32,-2.32,-6.36,-2.35,2.35,2.12,-3.97,-4.02,-4.00
188,-6.28,-2.26,-6.37,-2.34,2.34,2.19,-3.94,-4.03,-4.02
190,-6.29,-2.26,-6.38,-2.34,2.34,2.27,-3.95,-4.03,-4.03
192,-6.32,-2.28,-6.40,-2.36,2.36,2.34,-3.96,-4.04,-4.04
194,-6.38,-2.33,-6.44,-2.39,2.39,2.42,-3.99,-4.05,-4.05
196,-6.46,-2.39,-6.49,-2.43,2.43,2.49,-4.03,-4.06,-4.07
198,-6.56,-2.48,-6.56,-2.48,2.48,2.56,-4.08,-4.08,-4.08
200,-6.65,-2.56,-6.64,-2.55,2.55,2.64,-4.10,-4.09,-4.09
202,-6.75,-2.65,-6.72,-2.62,2.62,2.71,-4.13,-4.11,-4.10
204,-6.84,-2.73,-6.81,-2.69,2.69,2.79,-4.15,-4.12,-4.11
206,-6.93,-2.81,-6.90,-2.77,2.77,2.86,-4.16,-4.14,-4.12
208,-7.02,-2.89,-6.99,-2.84,2.84,2.93,-4.18,-4.15,-4.13
210,-7.09,-2.95,-7.07,-2.91,2.91,3.00,-4.18,-4.16,-4.14
212,-7.16,-3.02,-7.14,-2.97,2.97,3.07,-4.19,-4.16,-4.14
214,-7.21,-3.06,-7.20,-3.03,3.03,3.13,-4.18,-4.17,-4.15
216,-7.25,-3.09,-7.25,-3.07,3.07,3.20,-4.18,-4.18,-4.16
218,-7.29,-3.12,-7.29,-3.10,3.10,3.26,-4.19,-4.18,-4.17
221,-7.32,-3.14,-7.32,-3.13,3.13,3.35,-4.19,-4.19,-4.18
223,-7.35,-3.16,-7.34,-3.15,3.15,3.40,-4.20,-4.19,-4.19
225,-7.37,-3.18,-7.36,-3.17,3.17,3.45,-4.20,-4.20,-4.19
227,-7.38,-3.18,-7.38,-3.17,3.17,3.50,-4.21,-4.20,-4.20
229,-7.39,-3.18,-7.39,-3.18,3.18,3.55,-4.21,-4.21,-4.21
232,-7.39,-3.17,-7.40,-3.18,3.18,3.61,-4.21,-4.21,-4.22
234,-7.40,-3.18,-7.40,-3.18,3.18,3.64,-4.22,-4.22,-4.22
236,-7.39,-3.16,-7.41,-3.18,3.18,3.67,-4.21,-4.23,-4.23
239,-7.40,-3.16,-7.42,-3.18,3.18,3.71,-4.22,-4.23,-4.24
241,-7.40,-3.16,-7.42,-3.18,3.18,3.73,-4.22,-4.24,-4.24
244,-7.42,-3.17,-7.43,-3.18,3.18,3.75,-4.24,-4.25,-4.25
246,-7.43,-3.18,-7.44,-3.18,3.18,3.76,-4.25,-4.25,-4.25
248,-7.44,-3.18,-7.44,-3.18,3.18,3.76,-4.26,-4.26,-4.26
251,-7.45,-3.18,-7.45,-3.18,3.18,3.76,-4.27,-4.27,-4.27
253,-7.46,-3.19,-7.45,-3.18,3.18,3.75,-4.28,-4.27,-4.27
256,-7.46,-3.18,-7.46,-3.17,3.17,3.74,-4.29,-4.28,-4.28
259,-7.46,-3.18,-7.45,-3.17,3.17,3.71,-4.29,-4.29,-4.28
261,-7.46,-3.17,-7.45,-3.15,3.15,3.69,-4.31,-4.29,-4.29
264,-7.44,-3.15,-7.44,-3.14,3.14,3.65,-4.30,-4.30,-4.29
266,-7.43,-3.13,-7.42,-3.12,3.12,3.62,-4.31,-4.30,-4.30
269,-7.41,-3.11,-7.40,-3.09,3.09,3.57,-4.32,-4.31,-4.30
272,-7.38,-3.07,-7.37,-3.06,3.06,3.51,-4.32,-4.31,-4.31
274,-7.35,-3.04,-7.34,-3.03,3.03,3.47,-4.32,-4.31,-4.31
277,-7.32,-3.01,-7.31,-2.99,2.99,3.40,-4.33,-4.32,-4.31
280,-7.27,-2.95,-7.28,-2.96,2.96,3.33,-4.31,-4.32,-4.32
283,-7.23,-2.91,-7.24,-2.92,2.92,3.26,-4.31,-4.32,-4.32
286,-7.19,-2.86,-7.20,-2.87,2.87,3.19,-4.32,-4.33,-4.33
288,-7.16,-2.83,-7.16,-2.83,2.83,3.14,-4.33,-4.33,-4.33
291,-7.12,-2.79,-7.12,-2.79,2.79,3.06,-4.33,-4.33,-4.33
294,-7.08,-2.74,-7.08,-2.75,2.75,2.98,-4.33,-4.34,-4.34
297,-7.04,-2.70,-7.04,-2.70,2.70,2.90,-4.34,-4.34,-4.34
300,-7.00,-2.66,-7.01,-2.66,2.66,2.82,-4.34,-4.34,-4.34
303,-6.97,-2.62,-6.97,-2.62,2.62,2.74,-4.35,-4.35,-4.35
306,-6.94,-2.59,-6.94,-2.59,2.59,2.66,-4.35,-4.35,-4.35
309,-6.91,-2.56,-6.91,-2.55,2.55,2.58,-4.36,-4.35,-4.35
312,-6.88,-2.52,-6.88,-2.52,2.52,2.50,-4.36,-4.36,-4.36
316,-6.85,-2.49,-6.85,-2.48,2.48,2.40,-4.37,-4.36,-4.36
319,-6.82,-2.46,-6.82,-2.46,2.46,2.32,-4.36,-4.36,-4.36
322,-6.80,-2.44,-6.80,-2.43,2.43,2.25,-4.37,-4.37,-4.36
325,-6.78,-2.41,-6.77,-2.41,2.41,2.17,-4.37,-4.37,-4.37
328,-6.76,-2.39,-6.76,-2.39,2.39,2.10,-4.37,-4.37,-4.37
332,-6.74,-2.37,-6.75,-2.38,2.38,2.01,-4.36,-4.37,-4.37
335,-6.73,-2.36,-6.74,-2.37,2.37,1.94,-4.36,-4.37,-4.37
338,-6.73,-2.35,-6.74,-2.37,2.37,1.87,-4.36,-4.38,-4.38
342,-6.74,-2.36,-6.75,-2.37,2.37,1.78,-4.37,-4.38,-4.38
345,-6.74,-2.36,-6.76,-2.38,2.38,1.72,-4.36,-4.38,-4.38
349,-6.76,-2.38,-6.78,-2.40,2.40,1.63,-4.36,-4.38,-4.38
352,-6.78,-2.39,-6.80,-2.42,2.42,1.57,-4.36,-4.38,-4.39
356,-6.82,-2.43,-6.83,-2.45,2.45,1.49,-4.37,-4.38,-4.39
359,-6.85,-2.46,-6.86,-2.48,2.48,1.44,-4.37,-4.39,-4.39
363,-6.88,-2.49,-6.89,-2.50,2.50,1.36,-4.38,-4.39,-4.39
366,-6.90,-2.51,-6.92,-2.52,2.52,1.31,-4.38,-4.40,-4.39
370,-6.93,-2.53,-6.94,-2.53,2.53,1.24,-4.40,-4.41,-4.40
374,-6.95,-2.55,-6.95,-2.53,2.53,1.17,-4.42,-4.42,-4.40
377,-6.96,-2.56,-6.94,-2.52,2.52,1.12,-4.44,-4.42,-4.40
381,-6.95,-2.55,-6.92,-2.49,2.49,1.05,-4.46,-4.43,-4.40
385,-6.92,-2.52,-6.87,-2.44,2.44,0.99,-4.48,-4.43,-4.40
389,-6.86,-2.46,-6.81,-2.37,2.37,0.93,-4.49,-4.44,-4.40
393,-6.77,-2.36,-6.72,-2.28,2.28,0.87,-4.49,-4.44,-4.41
397,-6.66,-2.25,-6.60,-2.16,2.16,0.81,-4.50,-4.44,-4.41
401,-6.50,-2.09,-6.47,-2.03,2.03,0.76,-4.47,-4.44,-4.41
405,-6.33,-1.92,-6.31,-1.87,1.87,0.70,-4.46,-4.44,-4.41
409,-6.15,-1.74,-6.14,-1.71,1.71,0.65,-4.44,-4.43,-4.41
413,-5.95,-1.54,-5.95,-1.52,1.52,0.60,-4.43,-4.43,-4.41
417,-5.74,-1.32,-5.76,-1.33,1.33,0.55,-4.41,-4.43,-4.42
421,-5.54,-1.12,-5.56,-1.14,1.14,0.50,-4.40,-4.42,-4.42
425,-5.34,-0.92,-5.36,-0.94,0.94,0.45,-4.40,-4.42,-4.42
430,-5.11,-0.69,-5.16,-0.74,0.74,0.40,-4.37,-4.42,-4.42
434,-4.94,-0.52,-4.97,-0.55,0.55,0.35,-4.39,-4.42,-4.42
438,-4.78,-0.36,-4.78,-0.36,0.36,0.31,-4.42,-4.42,-4.42
443,-4.59,-0.17,-4.60,-0.18,0.18,0.26,-4.41,-4.42,-4.42
447,-4.46,-0.04,-4.43,-0.01,0.01,0.22,-4.45,-4.42,-4.42
451,-4.31,0.11,-4.27,0.14,-0.14,0.18,-4.45,-4.41,-4.42
456,-4.13,0.28,-4.13,0.28,-0.28,0.13,-4.41,-4.41,-4.41
460,-4.00,0.41,-4.00,0.40,-0.40,0.09,-4.40,-4.40,-4.41
465,-3.85,0.55,-3.89,0.50,-0.50,0.05,-4.35,-4.40,-4.40
470,-3.74,0.65,-3.80,0.59,-0.59,0.01,-4.33,-4.39,-4.39
474,-3.67,0.71,-3.72,0.67,-0.67,-0.03,-4.34,-4.39,-4.38
479,-3.60,0.77,-3.65,0.73,-0.73,-0.07,-4.33,-4.38,-4.37
484,-3.57,0.79,-3.59,0.77,-0.77,-0.11,-4.34,-4.37,-4.36
489,-3.56,0.79,-3.55,0.80,-0.80,-0.14,-4.36,-4.35,-4.35
494,-3.54,0.79,-3.51,0.83,-0.83,-0.18,-4.37,-4.34,-4.33
499,-3.52,0.80,-3.49,0.84,-0.84,-0.21,-4.36,-4.33,-4.32
504,-3.50,0.80,-3.47,0.85,-0.85,-0.25,-4.35,-4.32,-4.30
509,-3.48,0.81,-3.45,0.85,-0.85,-0.28,-4.33,-4.30,-4.29
514,-3.45,0.82,-3.44,0.85,-0.85,-0.31,-4.30,-4.29,-4.27
519,-3.42,0.83,-3.42,0.85,-0.85,-0.34,-4.27,-4.27,-4.25
524,-3.40,0.84,-3.40,0.85,-0.85,-0.37,-4.25,-4.25,-4.24
529,-3.38,0.84,-3.38,0.85,-0.85,-0.40,-4.23,-4.23,-4.22
535,-3.35,0.85,-3.36,0.85,-0.85,-0.43,-4.20,-4.20,-4.20
540,-3.33,0.85,-3.33,0.85,-0.85,-0.46,-4.18,-4.18,-4.18
545,-3.31,0.85,-3.30,0.85,-0.85,-0.49,-4.16,-4.15,-4.16
551,-3.28,0.85,-3.27,0.86,-0.86,-0.52,-4.14,-4.13,-4.13
556,-3.25,0.86,-3.24,0.86,-0.86,-0.54,-4.11,-4.10,-4.11
562,-3.21,0.87,-3.21,0.87,-0.87,-0.57,-4.08,-4.08,-4.08
568,-3.17,0.88,-3.17,0.88,-0.88,-0.60,-4.05,-4.05,-4.05
573,-3.14,0.88,-3.14,0.89,-0.89,-0.63,-4.03,-4.03,-4.02
579,-3.10,0.89,-3.10,0.90,-0.90,-0.66,-4.00,-4.00,-3.99
585,-3.05,0.91,-3.05,0.91,-0.91,-0.69,-3.96,-3.97,-3.96
591,-3.00,0.94,-3.01,0.93,-0.93,-0.72,-3.93,-3.94,-3.94
596,-2.96,0.94,-2.96,0.95,-0.95,-0.74,-3.91,-3.91,-3.90
602,-2.92,0.95,-2.91,0.97,-0.97,-0.77,-3.89,-3.88,-3.87
608,-2.86,0.98,-2.85,0.99,-0.99,-0.80,-3.85,-3.85,-3.84
615,-2.79,1.02,-2.80,1.02,-1.02,-0.83,-3.81,-3.82,-3.81
621,-2.74,1.04,-2.74,1.04,-1.04,-0.86,-3.78,-3.79,-3.78
627,-2.68,1.07,-2.68,1.07,-1.07,-0.89,-3.75,-3.75,-3.75
633,-2.62,1.10,-2.61,1.11,-1.11,-0.92,-3.73,-3.72,-3.72
639,-2.55,1.14,-2.55,1.14,-1.14,-0.96,-3.69,-3.69,-3.69
646,-2.48,1.17,-2.48,1.17,-1.17,-0.99,-3.65,-3.65,-3.65
652,-2.41,1.21,-2.41,1.21,-1.21,-1.02,-3.62,-3.62,-3.62
659,-2.33,1.26,-2.34,1.24,-1.24,-1.06,-3.57,-3.58,-3.59
665,-2.27,1.28,-2.27,1.28,-1.28,-1.09,-3.55,-3.55,-3.55
672,-2.19,1.33,-2.19,1.32,-1.32,-1.13,-3.51,-3.51,-3.52
679,-2.11,1.37,-2.12,1.36,-1.36,-1.17,-3.47,-3.48,-3.48
686,-2.02,1.42,-2.04,1.40,-1.40,-1.21,-3.42,-3.45,-3.44
692,-1.96,1.44,-1.96,1.45,-1.45,-1.25,-3.41,-3.41,-3.40
699,-1.89,1.48,-1.88,1.49,-1.49,-1.29,-3.38,-3.37,-3.37
706,-1.81,1.52,-1.80,1.54,-1.54,-1.33,-3.35,-3.34,-3.33
713,-1.73,1.56,-1.71,1.59,-1.59,-1.37,-3.32,-3.30,-3.29
721,-1.65,1.60,-1.62,1.63,-1.63,-1.42,-3.28,-3.26,-3.25
728,-1.55,1.66,-1.53,1.68,-1.68,-1.47,-3.23,-3.22,-3.21
735,-1.46,1.71,-1.44,1.73,-1.73,-1.51,-3.19,-3.18,-3.17
742,-1.36,1.77,-1.35,1.78,-1.78,-1.56,-3.14,-3.14,-3.13
750,-1.25,1.84,-1.27,1.83,-1.83,-1.61,-3.08,-3.10,-3.09
757,-1.16,1.90,-1.18,1.87,-1.87,-1.66,-3.03,-3.06,-3.06
765,-1.08,1.94,-1.10,1.92,-1.92,-1.71,-3.00,-3.02,-3.02
773,-0.99,1.99,-1.02,1.96,-1.96,-1.77,-2.95,-2.98,-2.98
780,-0.94,2.00,-0.95,1.99,-1.99,-1.81,-2.93,-2.94,-2.94
788,-0.86,2.05,-0.88,2.03,-2.03,-1.87,-2.89,-2.91,-2.91
796,-0.81,2.06,-0.82,2.06,-2.06,-1.92,-2.87,-2.88,-2.87
804,-0.76,2.08,-0.76,2.09,-2.09,-1.98,-2.85,-2.85,-2.84
812,-0.71,2.10,-0.70,2.11,-2.11,-2.03,-2.82,-2.81,-2.81
820,-0.66,2.12,-0.64,2.14,-2.14,-2.08,-2.80,-2.78,-2.78
828,-0.62,2.12,-0.59,2.17,-2.17,-2.14,-2.79,-2.75,-2.74
837,-0.56,2.15,-0.53,2.19,-2.19,-2.20,-2.75,-2.72,-2.71
845,-0.50,2.18,-0.47,2.21,-2.21,-2.25,-2.71,-2.69,-2.68
853,-0.44,2.21,-0.42,2.24,-2.24,-2.30,-2.68,-2.66,-2.65
862,-0.36,2.26,-0.36,2.26,-2.26,-2.36,-2.62,-2.63,-2.62
871,-0.29,2.30,-0.31,2.28,-2.28,-2.41,-2.57,-2.60,-2.59
879,-0.24,2.32,-0.26,2.30,-2.30,-2.46,-2.54,-2.57,-2.56
888,-0.20,2.33,-0.22,2.32,-2.32,-2.51,-2.52,-2.54,-2.53
897,-0.16,2.35,-0.18,2.33,-2.33,-2.56,-2.49,-2.51,-2.51
906,-0.12,2.36,-0.14,2.34,-2.34,-2.60,-2.46,-2.48,-2.48
915,-0.10,2.35,-0.11,2.34,-2.34,-2.65,-2.44,-2.45,-2.45
924,-0.08,2.35,-0.08,2.34,-2.34,-2.69,-2.42,-2.42,-2.43
933,-0.07,2.33,-0.06,2.34,-2.34,-2.72,-2.41,-2.39,-2.40
943,-0.05,2.32,-0.04,2.33,-2.33,-2.76,-2.38,-2.37,-2.37
952,-0.04,2.31,-0.03,2.31,-2.31,-2.79,-2.35,-2.34,-2.35
962,-0.03,2.29,-0.03,2.29,-2.29,-2.82,-2.32,-2.32,-2.32
971,-0.01,2.29,-0.02,2.27,-2.27,-2.85,-2.28,-2.29,-2.30
981,0.00,2.27,-0.03,2.25,-2.25,-2.87,-2.25,-2.27,-2.27
991,0.00,2.24,-0.03,2.22,-2.22,-2.89,-2.22,-2.25,-2.24
1001,0.00,2.22,-0.03,2.20,-2.20,-2.90,-2.20,-2.23,-2.22
1011,0.00,2.19,-0.03,2.18,-2.18,-2.91,-2.18,-2.21,-2.19
1021,-0.02,2.14,-0.02,2.16,-2.16,-2.92,-2.18,-2.18,-2.16
1031,-0.03,2.11,-0.00,2.15,-2.15,-2.92,-2.18,-2.15,-2.14
1041,-0.03,2.08,0.02,2.15,-2.15,-2.92,-2.18,-2.13,-2.11
1052,-0.01,2.07,0.05,2.15,-2.15,-2.91,-2.16,-2.10,-2.08
1062,0.03,2.08,0.09,2.16,-2.16,-2.91,-2.13,-2.07,-2.05
1073,0.10,2.12,0.13,2.17,-2.17,-2.90,-2.07,-2.04,-2.02
1084,0.18,2.18,0.18,2.19,-2.19,-2.88,-2.01,-2.01,-2.00
1094,0.25,2.22,0.24,2.22,-2.22,-2.87,-1.97,-1.98,-1.97
1105,0.33,2.26,0.30,2.25,-2.25,-2.85,-1.92,-1.95,-1.93
1116,0.41,2.31,0.37,2.28,-2.28,-2.83,-1.87,-1.91,-1.90
1128,0.48,2.35,0.45,2.32,-2.32,-2.81,-1.84,-1.87,-1.87
1139,0.54,2.38,0.52,2.36,-2.36,-2.78,-1.82,-1.84,-1.84
1150,0.60,2.41,0.60,2.40,-2.40,-2.76,-1.80,-1.81,-1.81
1162,0.67,2.45,0.67,2.44,-2.44,-2.74,-1.77,-1.77,-1.78
1173,0.73,2.48,0.74,2.49,-2.49,-2.71,-1.76,-1.75,-1.75
1185,0.80,2.51,0.81,2.53,-2.53,-2.68,-1.73,-1.72,-1.71
1197,0.88,2.56,0.88,2.57,-2.57,-2.66,-1.69,-1.69,-1.68
1209,0.96,2.61,0.96,2.62,-2.62,-2.63,-1.66,-1.66,-1.65
1221,1.04,2.66,1.03,2.66,-2.66,-2.61,-1.62,-1.63,-1.62
1233,1.11,2.70,1.11,2.71,-2.71,-2.58,-1.60,-1.60,-1.59
1246,1.19,2.74,1.20,2.76,-2.76,-2.56,-1.57,-1.56,-1.55
1258,1.27,2.79,1.28,2.81,-2.81,-2.54,-1.54,-1.53,-1.52
1271,1.37,2.86,1.37,2.86,-2.86,-2.52,-1.49,-1.49,-1.49
1283,1.46,2.91,1.46,2.91,-2.91,-2.50,-1.45,-1.46,-1.45
1296,1.55,2.97,1.55,2.97,-2.97,-2.48,-1.42,-1.42,-1.42
1309,1.64,3.02,1.64,3.03,-3.03,-2.46,-1.39,-1.39,-1.38
1322,1.74,3.09,1.73,3.08,-3.08,-2.45,-1.34,-1.35,-1.35
1335,1.83,3.14,1.83,3.14,-3.14,-2.43,-1.31,-1.32,-1.31
1349,1.93,3.20,1.92,3.20,-3.20,-2.42,-1.27,-1.28,-1.27
1362,2.01,3.25,2.02,3.26,-3.26,-2.41,-1.25,-1.24,-1.24
1376,2.10,3.30,2.12,3.32,-3.32,-2.40,-1.22,-1.20,-1.20
1390,2.20,3.36,2.22,3.38,-3.38,-2.40,-1.18,-1.16,-1.16
1404,2.29,3.41,2.31,3.43,-3.43,-2.39,-1.14,-1.12,-1.12
1418,2.39,3.47,2.40,3.48,-3.48,-2.39,-1.09,-1.08,-1.08
1432,2.50,3.54,2.49,3.53,-3.53,-2.39,-1.03,-1.04,-1.04
1446,2.59,3.59,2.57,3.57,-3.57,-2.39,-0.98,-1.00,-1.00
1461,2.67,3.64,2.65,3.61,-3.61,-2.39,-0.94,-0.96,-0.97
1475,2.75,3.68,2.72,3.64,-3.64,-2.40,-0.89,-0.92,-0.93
1490,2.81,3.70,2.79,3.67,-3.67,-2.41,-0.86,-0.88,-0.89
1505,2.86,3.71,2.85,3.69,-3.69,-2.42,-0.83,-0.84,-0.85
1520,2.90,3.71,2.90,3.70,-3.70,-2.43,-0.80,-0.80,-0.81
1535,2.94,3.71,2.95,3.71,-3.71,-2.44,-0.77,-0.76,-0.77
1550,2.98,3.70,2.99,3.71,-3.71,-2.45,-0.73,-0.72,-0.72
1566,3.03,3.71,3.03,3.71,-3.71,-2.47,-0.68,-0.68,-0.68
