frequency,raw,smoothed,error,error_smoothed,equalization,parametric_eq,fixed_band_eq,equalized_raw,equalized_smoothed,target
20.00,2.00,2.00,-3.35,-3.35,3.36,2.66,1.10,5.36,5.36,5.36
20.20,2.02,2.02,-3.33,-3.33,3.34,2.66,1.13,5.36,5.36,5.36
20.40,2.04,2.05,-3.31,-3.31,3.31,2.65,1.16,5.36,5.36,5.36
20.61,2.07,2.07,-3.28,-3.29,3.28,2.65,1.20,5.36,5.35,5.36
20.81,2.09,2.09,-3.26,-3.26,3.26,2.64,1.23,5.35,5.35,5.36
21.02,2.11,2.12,-3.24,-3.23,3.22,2.64,1.27,5.34,5.34,5.35
21.23,2.15,2.16,-3.20,-3.20,3.19,2.64,1.31,5.34,5.35,5.35
21.44,2.20,2.20,-3.15,-3.15,3.15,2.63,1.35,5.36,5.35,5.35
21.66,2.24,2.24,-3.11,-3.11,3.11,2.63,1.39,5.36,5.36,5.35
21.87,2.28,2.28,-3.07,-3.07,3.07,2.62,1.43,5.35,5.35,5.35
22.09,2.32,2.32,-3.03,-3.03,3.02,2.62,1.47,5.35,5.35,5.35
22.31,2.36,2.37,-2.99,-2.98,2.98,2.61,1.52,5.34,5.34,5.35
22.54,2.41,2.41,-2.94,-2.94,2.94,2.61,1.56,5.35,5.35,5.35
22.76,2.45,2.46,-2.89,-2.89,2.90,2.60,1.61,5.35,5.36,5.35
22.99,2.50,2.50,-2.84,-2.85,2.86,2.60,1.66,5.37,5.36,5.35
23.22,2.52,2.53,-2.82,-2.82,2.83,2.59,1.71,5.36,5.36,5.35
23.45,2.54,2.55,-2.80,-2.80,2.80,2.59,1.75,5.35,5.35,5.34
23.69,2.56,2.56,-2.78,-2.78,2.77,2.58,1.81,5.34,5.33,5.34
23.92,2.57,2.58,-2.77,-2.76,2.75,2.58,1.86,5.32,5.33,5.34
24.16,2.60,2.60,-2.74,-2.74,2.72,2.57,1.91,5.33,5.33,5.34
24.40,2.63,2.63,-2.71,-2.71,2.70,2.57,1.96,5.34,5.34,5.34
24.65,2.66,2.67,-2.68,-2.67,2.68,2.56,2.02,5.35,5.35,5.34
24.89,2.69,2.69,-2.64,-2.65,2.67,2.56,2.07,5.36,5.36,5.34
25.14,2.70,2.70,-2.63,-2.63,2.65,2.55,2.12,5.36,5.35,5.34
25.39,2.70,2.70,-2.63,-2.63,2.64,2.54,2.18,5.34,5.34,5.34
25.65,2.70,2.70,-2.63,-2.63,2.62,2.54,2.23,5.33,5.33,5.33
25.91,2.70,2.71,-2.63,-2.62,2.61,2.53,2.29,5.31,5.32,5.33
26.16,2.72,2.72,-2.61,-2.61,2.59,2.53,2.34,5.32,5.32,5.33
26.43,2.74,2.74,-2.59,-2.58,2.58,2.52,2.40,5.32,5.32,5.33
26.69,2.77,2.77,-2.55,-2.55,2.55,2.51,2.45,5.33,5.33,5.33
26.96,2.80,2.80,-2.52,-2.52,2.52,2.51,2.50,5.33,5.33,5.33
27.23,2.83,2.83,-2.49,-2.49,2.49,2.50,2.55,5.33,5.33,5.32
27.50,2.86,2.86,-2.46,-2.46,2.46,2.49,2.60,5.32,5.32,5.32
27.77,2.89,2.89,-2.43,-2.43,2.43,2.49,2.65,5.32,5.32,5.32
28.05,2.92,2.92,-2.39,-2.40,2.39,2.48,2.70,5.32,5.31,5.32
28.33,2.94,2.95,-2.37,-2.37,2.37,2.47,2.74,5.31,5.31,5.32
28.62,2.97,2.98,-2.34,-2.34,2.34,2.46,2.78,5.32,5.32,5.31
28.90,3.00,3.00,-2.31,-2.31,2.32,2.46,2.82,5.33,5.32,5.31
29.19,3.01,3.01,-2.30,-2.30,2.31,2.45,2.85,5.32,5.32,5.31
29.48,3.01,3.02,-2.29,-2.29,2.30,2.44,2.88,5.31,5.32,5.31
29.78,3.01,3.01,-2.29,-2.29,2.29,2.43,2.91,5.31,5.31,5.30
30.08,3.01,3.01,-2.29,-2.29,2.29,2.42,2.93,5.30,5.30,5.30
30.38,3.01,3.01,-2.28,-2.29,2.28,2.42,2.95,5.29,5.29,5.30
30.68,3.01,3.01,-2.28,-2.28,2.27,2.41,2.96,5.28,5.28,5.30
30.99,3.01,3.02,-2.28,-2.27,2.25,2.40,2.97,5.27,5.28,5.29
31.30,3.04,3.04,-2.25,-2.25,2.24,2.39,2.97,5.28,5.28,5.29
31.61,3.07,3.07,-2.21,-2.21,2.22,2.38,2.97,5.29,5.29,5.29
31.93,3.10,3.10,-2.18,-2.18,2.19,2.37,2.97,5.30,5.30,5.28
32.24,3.12,3.12,-2.16,-2.16,2.17,2.36,2.96,5.29,5.29,5.28
32.57,3.13,3.13,-2.14,-2.14,2.14,2.35,2.94,5.28,5.28,5.28
32.89,3.14,3.15,-2.13,-2.13,2.12,2.34,2.93,5.26,5.27,5.27
33.22,3.16,3.16,-2.11,-2.10,2.10,2.33,2.91,5.26,5.26,5.27
33.55,3.18,3.18,-2.08,-2.08,2.08,2.32,2.88,5.26,5.26,5.27
33.89,3.20,3.20,-2.06,-2.06,2.07,2.31,2.85,5.27,5.27,5.26
34.23,3.21,3.21,-2.04,-2.05,2.05,2.30,2.82,5.27,5.26,5.26
34.57,3.21,3.22,-2.04,-2.04,2.04,2.29,2.79,5.26,5.26,5.25
34.92,3.21,3.21,-2.03,-2.03,2.03,2.28,2.75,5.25,5.25,5.25
35.27,3.21,3.21,-2.03,-2.03,2.03,2.27,2.71,5.24,5.24,5.24
35.62,3.21,3.21,-2.02,-2.02,2.02,2.26,2.67,5.23,5.23,5.24
35.97,3.21,3.21,-2.02,-2.02,2.02,2.24,2.62,5.23,5.23,5.23
36.33,3.21,3.21,-2.01,-2.01,2.01,2.23,2.58,5.23,5.23,5.23
36.70,3.21,3.21,-2.01,-2.01,2.01,2.22,2.53,5.23,5.23,5.22
37.06,3.21,3.21,-2.00,-2.00,2.01,2.21,2.49,5.22,5.22,5.22
37.43,3.21,3.21,-2.00,-2.00,2.00,2.20,2.44,5.22,5.22,5.21
37.81,3.21,3.21,-1.99,-1.99,2.00,2.18,2.39,5.21,5.21,5.20
38.19,3.21,3.21,-1.98,-1.99,1.98,2.17,2.35,5.20,5.19,5.20
38.57,3.20,3.21,-1.99,-1.99,1.97,2.16,2.30,5.17,5.17,5.19
38.95,3.20,3.22,-1.98,-1.97,1.95,2.14,2.25,5.15,5.16,5.19
39.34,3.24,3.24,-1.93,-1.93,1.92,2.13,2.21,5.17,5.17,5.18
39.74,3.28,3.28,-1.89,-1.89,1.90,2.12,2.16,5.19,5.18,5.17
40.14,3.31,3.31,-1.85,-1.86,1.88,2.10,2.11,5.19,5.19,5.16
40.54,3.31,3.32,-1.84,-1.84,1.86,2.09,2.07,5.18,5.18,5.16
40.94,3.31,3.32,-1.83,-1.83,1.84,2.07,2.03,5.16,5.16,5.15
41.35,3.31,3.31,-1.83,-1.83,1.83,2.06,1.98,5.14,5.14,5.14
41.76,3.31,3.31,-1.82,-1.82,1.81,2.04,1.94,5.12,5.12,5.13
42.18,3.31,3.31,-1.81,-1.81,1.79,2.03,1.90,5.11,5.10,5.12
42.60,3.31,3.31,-1.80,-1.80,1.77,2.01,1.86,5.09,5.09,5.11
43.03,3.31,3.33,-1.79,-1.77,1.75,1.99,1.83,5.07,5.09,5.10
43.46,3.36,3.36,-1.73,-1.73,1.73,1.98,1.79,5.09,5.09,5.09
43.90,3.40,3.39,-1.68,-1.69,1.70,1.96,1.76,5.11,5.10,5.08
44.33,3.41,3.41,-1.66,-1.66,1.68,1.94,1.72,5.09,5.09,5.07
44.78,3.41,3.42,-1.65,-1.64,1.66,1.93,1.69,5.07,5.07,5.06
45.23,3.41,3.41,-1.63,-1.63,1.63,1.91,1.66,5.05,5.05,5.05
45.68,3.41,3.41,-1.62,-1.62,1.62,1.89,1.63,5.03,5.03,5.04
46.13,3.41,3.41,-1.61,-1.61,1.60,1.87,1.61,5.02,5.02,5.02
46.60,3.41,3.41,-1.60,-1.60,1.59,1.85,1.58,5.01,5.01,5.01
47.06,3.41,3.41,-1.58,-1.58,1.58,1.83,1.56,5.00,5.00,5.00
47.53,3.41,3.41,-1.57,-1.57,1.57,1.81,1.53,4.98,4.98,4.98
48.01,3.41,3.41,-1.56,-1.56,1.56,1.79,1.51,4.97,4.97,4.97
48.49,3.41,3.41,-1.54,-1.54,1.54,1.77,1.49,4.95,4.95,4.95
48.97,3.41,3.41,-1.53,-1.53,1.53,1.75,1.47,4.94,4.94,4.94
49.46,3.41,3.41,-1.51,-1.51,1.51,1.73,1.45,4.92,4.92,4.92
49.96,3.41,3.41,-1.49,-1.49,1.49,1.71,1.43,4.90,4.90,4.91
50.46,3.41,3.41,-1.48,-1.48,1.47,1.69,1.41,4.88,4.88,4.89
50.96,3.41,3.41,-1.46,-1.46,1.45,1.67,1.40,4.86,4.86,4.87
51.47,3.41,3.41,-1.44,-1.44,1.44,1.64,1.38,4.85,4.85,4.85
51.99,3.41,3.42,-1.42,-1.42,1.43,1.62,1.37,4.84,4.85,4.84
52.51,3.41,3.42,-1.40,-1.40,1.43,1.60,1.35,4.84,4.84,4.82
53.03,3.41,3.39,-1.38,-1.40,1.43,1.57,1.34,4.84,4.82,4.80
53.56,3.35,3.36,-1.42,-1.42,1.43,1.55,1.32,4.79,4.79,4.78
54.10,3.29,3.31,-1.46,-1.45,1.44,1.53,1.31,4.74,4.75,4.75
54.64,3.26,3.26,-1.47,-1.47,1.45,1.50,1.29,4.71,4.71,4.73
55.18,3.23,3.24,-1.48,-1.47,1.45,1.48,1.28,4.68,4.69,4.71
55.74,3.22,3.22,-1.46,-1.46,1.45,1.45,1.27,4.67,4.67,4.69
56.29,3.21,3.21,-1.45,-1.45,1.44,1.42,1.25,4.66,4.66,4.66
56.86,3.21,3.21,-1.42,-1.42,1.43,1.40,1.24,4.64,4.64,4.64
57.42,3.21,3.21,-1.40,-1.40,1.40,1.37,1.22,4.62,4.62,4.61
58.00,3.21,3.21,-1.37,-1.37,1.38,1.34,1.21,4.59,4.59,4.59
58.58,3.21,3.21,-1.34,-1.34,1.35,1.31,1.19,4.56,4.56,4.56
59.16,3.21,3.21,-1.32,-1.32,1.32,1.29,1.17,4.53,4.53,4.53
59.76,3.21,3.21,-1.29,-1.29,1.29,1.26,1.15,4.50,4.50,4.50
60.35,3.21,3.21,-1.26,-1.26,1.26,1.23,1.14,4.47,4.47,4.47
60.96,3.21,3.21,-1.23,-1.23,1.23,1.20,1.11,4.44,4.44,4.44
61.57,3.21,3.21,-1.20,-1.20,1.20,1.17,1.09,4.41,4.41,4.41
62.18,3.21,3.21,-1.16,-1.16,1.16,1.14,1.07,4.38,4.38,4.38
62.80,3.21,3.21,-1.13,-1.13,1.13,1.10,1.04,4.34,4.34,4.34
63.43,3.21,3.21,-1.10,-1.10,1.09,1.07,1.02,4.30,4.30,4.31
64.07,3.21,3.21,-1.06,-1.06,1.05,1.04,0.99,4.27,4.27,4.27
64.71,3.21,3.21,-1.02,-1.02,1.02,1.01,0.96,4.24,4.24,4.24
65.35,3.21,3.22,-0.99,-0.98,0.99,0.97,0.93,4.21,4.21,4.20
66.01,3.21,3.22,-0.95,-0.95,0.97,0.94,0.90,4.18,4.18,4.16
66.67,3.21,3.20,-0.91,-0.92,0.94,0.91,0.87,4.16,4.15,4.12
67.33,3.18,3.18,-0.90,-0.91,0.91,0.87,0.84,4.10,4.09,4.08
68.01,3.13,3.14,-0.91,-0.90,0.89,0.84,0.80,4.02,4.03,4.04
68.69,3.10,3.11,-0.90,-0.89,0.86,0.80,0.77,3.96,3.97,4.00
69.37,3.10,3.10,-0.85,-0.85,0.83,0.76,0.73,3.93,3.93,3.96
70.07,3.11,3.11,-0.80,-0.80,0.80,0.73,0.69,3.91,3.91,3.91
70.77,3.11,3.12,-0.75,-0.74,0.77,0.69,0.65,3.89,3.90,3.87
71.48,3.12,3.11,-0.70,-0.71,0.74,0.65,0.61,3.87,3.86,3.82
72.19,3.11,3.09,-0.66,-0.69,0.71,0.62,0.57,3.82,3.79,3.78
72.91,3.02,3.05,-0.70,-0.68,0.67,0.58,0.53,3.69,3.72,3.73
73.64,3.01,3.02,-0.66,-0.66,0.63,0.54,0.49,3.65,3.65,3.68
74.38,3.01,3.01,-0.61,-0.62,0.59,0.50,0.45,3.60,3.60,3.63
75.12,3.01,3.01,-0.56,-0.56,0.55,0.46,0.40,3.56,3.56,3.58
75.87,3.01,3.01,-0.51,-0.51,0.51,0.42,0.36,3.52,3.52,3.52
76.63,3.01,3.01,-0.46,-0.46,0.47,0.38,0.31,3.48,3.48,3.47
77.40,3.01,3.02,-0.40,-0.39,0.42,0.34,0.27,3.44,3.45,3.42
78.17,3.01,3.01,-0.35,-0.35,0.38,0.30,0.23,3.39,3.39,3.36
78.95,3.01,2.98,-0.29,-0.32,0.33,0.26,0.18,3.34,3.31,3.30
79.74,2.92,2.95,-0.32,-0.30,0.28,0.21,0.13,3.21,3.23,3.25
80.54,2.90,2.91,-0.29,-0.28,0.24,0.17,0.09,3.15,3.16,3.19
81.35,2.90,2.90,-0.23,-0.23,0.21,0.13,0.04,3.11,3.11,3.13
82.16,2.91,2.92,-0.16,-0.15,0.17,0.09,-0.00,3.08,3.08,3.07
82.98,2.92,2.91,-0.09,-0.10,0.13,0.04,-0.05,3.05,3.04,3.01
83.81,2.89,2.88,-0.05,-0.06,0.08,-0.00,-0.10,2.97,2.96,2.95
84.65,2.83,2.85,-0.05,-0.04,0.03,-0.05,-0.15,2.86,2.88,2.88
85.50,2.80,2.81,-0.02,-0.01,-0.02,-0.09,-0.19,2.79,2.80,2.82
86.35,2.80,2.81,0.05,0.05,-0.06,-0.13,-0.24,2.74,2.75,2.76
87.22,2.81,2.81,0.12,0.12,-0.11,-0.18,-0.29,2.71,2.70,2.69
88.09,2.81,2.79,0.19,0.17,-0.15,-0.22,-0.34,2.66,2.64,2.63
88.97,2.76,2.76,0.21,0.20,-0.20,-0.27,-0.39,2.56,2.56,2.56
89.86,2.70,2.73,0.21,0.24,-0.25,-0.31,-0.44,2.45,2.48,2.49
90.76,2.71,2.72,0.29,0.29,-0.31,-0.36,-0.49,2.41,2.41,2.42
91.66,2.72,2.72,0.37,0.36,-0.36,-0.40,-0.53,2.37,2.36,2.35
92.58,2.72,2.70,0.44,0.42,-0.40,-0.45,-0.58,2.32,2.30,2.29
93.51,2.66,2.67,0.45,0.45,-0.45,-0.49,-0.64,2.21,2.22,2.22
94.44,2.61,2.64,0.47,0.49,-0.49,-0.53,-0.69,2.12,2.14,2.15
95.39,2.61,2.62,0.54,0.54,-0.54,-0.58,-0.74,2.08,2.08,2.07
96.34,2.61,2.60,0.61,0.59,-0.58,-0.62,-0.79,2.03,2.02,2.00
97.30,2.57,2.56,0.64,0.63,-0.62,-0.67,-0.84,1.95,1.94,1.93
98.28,2.50,2.52,0.64,0.66,-0.67,-0.71,-0.89,1.84,1.85,1.86
99.26,2.46,2.48,0.68,0.69,-0.72,-0.76,-0.94,1.75,1.76,1.79
100.25,2.46,2.45,0.75,0.74,-0.77,-0.80,-0.99,1.70,1.68,1.72
101.25,2.44,2.45,0.80,0.80,-0.81,-0.84,-1.04,1.63,1.63,1.64
102.27,2.43,2.45,0.86,0.88,-0.85,-0.89,-1.09,1.58,1.59,1.57
103.29,2.43,2.42,0.94,0.92,-0.89,-0.93,-1.14,1.55,1.53,1.50
104.32,2.39,2.38,0.97,0.96,-0.92,-0.97,-1.19,1.48,1.46,1.42
105.37,2.29,2.32,0.94,0.97,-0.95,-1.01,-1.24,1.35,1.38,1.35
106.42,2.25,2.24,0.98,0.96,-0.97,-1.05,-1.29,1.28,1.27,1.28
107.48,2.17,2.16,0.97,0.96,-1.00,-1.09,-1.34,1.18,1.17,1.20
108.56,2.08,2.11,0.95,0.98,-1.02,-1.13,-1.39,1.07,1.09,1.13
109.64,2.06,2.08,1.01,1.02,-1.04,-1.17,-1.43,1.03,1.04,1.06
110.74,2.07,2.06,1.09,1.07,-1.06,-1.21,-1.48,1.01,1.00,0.99
111.85,2.06,2.03,1.15,1.12,-1.09,-1.25,-1.52,0.98,0.94,0.91
112.97,1.96,1.99,1.12,1.15,-1.12,-1.29,-1.56,0.84,0.87,0.84
114.10,1.93,1.94,1.16,1.17,-1.17,-1.33,-1.61,0.76,0.77,0.77
115.24,1.91,1.89,1.21,1.19,-1.22,-1.36,-1.64,0.69,0.67,0.70
116.39,1.84,1.86,1.22,1.23,-1.26,-1.40,-1.68,0.58,0.59,0.63
117.55,1.82,1.84,1.27,1.29,-1.30,-1.43,-1.71,0.52,0.54,0.56
118.73,1.84,1.84,1.36,1.36,-1.34,-1.47,-1.75,0.51,0.51,0.49
119.92,1.86,1.84,1.45,1.43,-1.37,-1.50,-1.78,0.49,0.47,0.42
121.12,1.82,1.81,1.47,1.46,-1.42,-1.53,-1.80,0.41,0.39,0.35
122.33,1.74,1.75,1.46,1.47,-1.47,-1.56,-1.83,0.28,0.28,0.28
123.55,1.67,1.69,1.46,1.48,-1.52,-1.60,-1.85,0.15,0.17,0.21
124.79,1.65,1.67,1.51,1.52,-1.58,-1.62,-1.87,0.08,0.09,0.15
126.03,1.68,1.67,1.60,1.59,-1.62,-1.65,-1.89,0.06,0.04,0.08
127.29,1.68,1.69,1.67,1.67,-1.66,-1.68,-1.90,0.02,0.02,0.02
128.57,1.69,1.71,1.74,1.76,-1.71,-1.71,-1.91,-0.01,0.01,-0.05
129.85,1.71,1.70,1.83,1.81,-1.75,-1.73,-1.92,-0.04,-0.05,-0.11
131.15,1.70,1.65,1.88,1.83,-1.80,-1.76,-1.93,-0.10,-0.15,-0.18
132.46,1.55,1.59,1.79,1.82,-1.85,-1.78,-1.93,-0.30,-0.26,-0.24
133.79,1.49,1.53,1.79,1.82,-1.88,-1.81,-1.93,-0.39,-0.36,-0.30
135.12,1.51,1.51,1.87,1.87,-1.90,-1.83,-1.93,-0.39,-0.40,-0.36
136.48,1.52,1.53,1.94,1.95,-1.92,-1.85,-1.93,-0.40,-0.40,-0.42
137.84,1.54,1.52,2.02,2.00,-1.94,-1.87,-1.93,-0.40,-0.42,-0.48
139.22,1.47,1.46,2.01,2.00,-1.97,-1.89,-1.92,-0.50,-0.51,-0.54
140.61,1.38,1.39,1.98,1.98,-2.00,-1.90,-1.92,-0.62,-0.61,-0.59
142.02,1.30,1.33,1.95,1.98,-2.03,-1.92,-1.91,-0.73,-0.70,-0.65
143.44,1.31,1.32,2.02,2.02,-2.05,-1.94,-1.90,-0.74,-0.73,-0.70
144.87,1.33,1.33,2.09,2.08,-2.06,-1.95,-1.90,-0.73,-0.74,-0.76
146.32,1.34,1.32,2.15,2.13,-2.07,-1.96,-1.89,-0.73,-0.75,-0.81
147.78,1.28,1.28,2.13,2.13,-2.09,-1.98,-1.88,-0.81,-0.82,-0.85
149.26,1.20,1.21,2.10,2.11,-2.12,-1.99,-1.87,-0.92,-0.92,-0.90
150.75,1.12,1.14,2.07,2.09,-2.15,-2.00,-1.86,-1.02,-1.00,-0.95
152.26,1.11,1.12,2.11,2.12,-2.16,-2.01,-1.85,-1.05,-1.05,-1.00
153.78,1.12,1.13,2.17,2.17,-2.17,-2.01,-1.85,-1.05,-1.05,-1.05
155.32,1.13,1.14,2.23,2.23,-2.18,-2.02,-1.84,-1.05,-1.04,-1.09
156.88,1.14,1.11,2.28,2.25,-2.20,-2.03,-1.83,-1.05,-1.09,-1.14
158.44,1.05,1.05,2.24,2.23,-2.22,-2.03,-1.83,-1.17,-1.17,-1.18
160.03,0.95,0.98,2.18,2.21,-2.24,-2.04,-1.82,-1.29,-1.26,-1.23
161.63,0.91,0.93,2.19,2.20,-2.26,-2.04,-1.82,-1.34,-1.33,-1.28
163.24,0.91,0.92,2.23,2.24,-2.26,-2.04,-1.81,-1.35,-1.34,-1.32
164.88,0.93,0.92,2.29,2.28,-2.26,-2.04,-1.81,-1.32,-1.33,-1.36
166.53,0.91,0.90,2.31,2.30,-2.25,-2.05,-1.81,-1.34,-1.35,-1.40
168.19,0.84,0.84,2.28,2.28,-2.25,-2.05,-1.82,-1.40,-1.41,-1.44
169.87,0.75,0.77,2.23,2.25,-2.24,-2.04,-1.82,-1.49,-1.47,-1.48
171.57,0.69,0.71,2.21,2.22,-2.24,-2.04,-1.82,-1.55,-1.53,-1.51
173.29,0.68,0.66,2.23,2.20,-2.23,-2.04,-1.83,-1.55,-1.58,-1.55
175.02,0.61,0.62,2.20,2.20,-2.22,-2.04,-1.84,-1.60,-1.60,-1.58
176.77,0.57,0.59,2.19,2.21,-2.21,-2.03,-1.84,-1.63,-1.61,-1.62
178.54,0.57,0.56,2.22,2.21,-2.20,-2.03,-1.85,-1.63,-1.64,-1.65
180.32,0.54,0.54,2.22,2.22,-2.20,-2.02,-1.87,-1.66,-1.66,-1.68
182.13,0.50,0.49,2.21,2.21,-2.20,-2.01,-1.88,-1.70,-1.71,-1.71
183.95,0.44,0.45,2.18,2.19,-2.21,-2.01,-1.89,-1.76,-1.76,-1.74
185.79,0.40,0.43,2.17,2.20,-2.21,-2.00,-1.91,-1.80,-1.78,-1.77
187.65,0.42,0.42,2.22,2.21,-2.21,-1.99,-1.93,-1.79,-1.80,-1.80
189.52,0.42,0.40,2.25,2.23,-2.22,-1.98,-1.94,-1.79,-1.81,-1.83
191.42,0.37,0.37,2.23,2.23,-2.22,-1.97,-1.96,-1.85,-1.85,-1.85
193.33,0.32,0.33,2.20,2.21,-2.22,-1.96,-1.99,-1.90,-1.89,-1.88
195.27,0.29,0.31,2.20,2.21,-2.22,-1.95,-2.01,-1.93,-1.91,-1.90
197.22,0.29,0.30,2.22,2.22,-2.22,-1.94,-2.03,-1.93,-1.92,-1.93
199.19,0.30,0.28,2.25,2.23,-2.22,-1.93,-2.05,-1.91,-1.93,-1.95
201.18,0.25,0.25,2.23,2.22,-2.21,-1.91,-2.08,-1.96,-1.96,-1.97
203.19,0.19,0.20,2.19,2.19,-2.20,-1.90,-2.10,-2.01,-2.00,-2.00
205.23,0.13,0.15,2.15,2.16,-2.18,-1.89,-2.13,-2.05,-2.04,-2.02
207.28,0.11,0.13,2.15,2.17,-2.16,-1.87,-2.16,-2.05,-2.04,-2.04
209.35,0.11,0.11,2.17,2.17,-2.14,-1.86,-2.18,-2.03,-2.03,-2.06
211.44,0.10,0.07,2.18,2.14,-2.12,-1.85,-2.21,-2.02,-2.06,-2.08
213.56,-0.01,0.00,2.09,2.10,-2.10,-1.83,-2.23,-2.11,-2.10,-2.10
215.69,-0.09,-0.06,2.03,2.05,-2.08,-1.81,-2.26,-2.17,-2.15,-2.11
217.85,-0.11,-0.10,2.03,2.03,-2.07,-1.80,-2.28,-2.17,-2.17,-2.13
220.03,-0.11,-0.11,2.04,2.04,-2.04,-1.78,-2.30,-2.15,-2.15,-2.15
222.23,-0.11,-0.11,2.06,2.06,-2.02,-1.77,-2.33,-2.13,-2.13,-2.17
224.45,-0.13,-0.15,2.06,2.03,-2.00,-1.75,-2.35,-2.13,-2.15,-2.18
226.70,-0.20,-0.21,2.00,1.99,-1.99,-1.73,-2.36,-2.18,-2.20,-2.20
228.96,-0.31,-0.26,1.91,1.95,-1.97,-1.71,-2.38,-2.27,-2.23,-2.21
231.25,-0.30,-0.29,1.93,1.94,-1.95,-1.70,-2.39,-2.24,-2.24,-2.23
233.57,-0.29,-0.31,1.95,1.93,-1.93,-1.68,-2.40,-2.22,-2.24,-2.24
235.90,-0.31,-0.34,1.96,1.92,-1.91,-1.66,-2.41,-2.22,-2.25,-2.26
238.26,-0.42,-0.39,1.86,1.89,-1.90,-1.64,-2.42,-2.32,-2.29,-2.28
240.64,-0.45,-0.43,1.84,1.86,-1.90,-1.62,-2.42,-2.34,-2.32,-2.29
243.05,-0.44,-0.43,1.87,1.87,-1.89,-1.61,-2.42,-2.33,-2.32,-2.30
245.48,-0.41,-0.42,1.91,1.90,-1.89,-1.59,-2.41,-2.29,-2.30,-2.31
247.93,-0.40,-0.42,1.93,1.91,-1.88,-1.57,-2.40,-2.27,-2.29,-2.33
250.41,-0.46,-0.45,1.88,1.89,-1.86,-1.55,-2.39,-2.32,-2.31,-2.34
252.92,-0.50,-0.48,1.85,1.86,-1.85,-1.53,-2.37,-2.35,-2.34,-2.35
255.45,-0.53,-0.53,1.82,1.82,-1.83,-1.51,-2.35,-2.36,-2.36,-2.35
258.00,-0.55,-0.56,1.81,1.79,-1.81,-1.49,-2.33,-2.35,-2.37,-2.36
260.58,-0.62,-0.59,1.75,1.77,-1.77,-1.47,-2.30,-2.39,-2.36,-2.37
263.19,-0.63,-0.63,1.75,1.75,-1.73,-1.45,-2.27,-2.36,-2.36,-2.38
265.82,-0.66,-0.67,1.73,1.71,-1.70,-1.43,-2.23,-2.36,-2.38,-2.38
268.48,-0.72,-0.72,1.68,1.67,-1.67,-1.41,-2.20,-2.39,-2.40,-2.39
271.16,-0.80,-0.78,1.60,1.62,-1.64,-1.39,-2.15,-2.44,-2.43,-2.40
273.87,-0.84,-0.82,1.57,1.59,-1.61,-1.37,-2.11,-2.45,-2.44,-2.41
276.61,-0.84,-0.83,1.58,1.59,-1.58,-1.36,-2.06,-2.41,-2.41,-2.42
279.38,-0.84,-0.84,1.59,1.58,-1.55,-1.34,-2.01,-2.38,-2.39,-2.42
282.17,-0.85,-0.88,1.58,1.54,-1.52,-1.32,-1.96,-2.36,-2.40,-2.43
284.99,-0.96,-0.94,1.47,1.49,-1.49,-1.30,-1.91,-2.45,-2.43,-2.43
287.84,-1.02,-0.99,1.41,1.44,-1.47,-1.28,-1.86,-2.48,-2.45,-2.42
290.72,-1.01,-1.01,1.42,1.42,-1.45,-1.26,-1.80,-2.45,-2.46,-2.43
293.63,-1.00,-1.02,1.44,1.41,-1.43,-1.24,-1.74,-2.42,-2.44,-2.44
296.57,-1.03,-1.03,1.41,1.40,-1.40,-1.22,-1.68,-2.43,-2.43,-2.43
299.53,-1.07,-1.05,1.36,1.39,-1.38,-1.20,-1.62,-2.45,-2.43,-2.43
302.53,-1.07,-1.06,1.37,1.37,-1.36,-1.18,-1.56,-2.43,-2.42,-2.43
305.55,-1.06,-1.07,1.37,1.36,-1.34,-1.16,-1.50,-2.40,-2.42,-2.43
308.61,-1.10,-1.10,1.34,1.33,-1.32,-1.14,-1.44,-2.42,-2.42,-2.43
311.69,-1.15,-1.15,1.28,1.28,-1.29,-1.12,-1.38,-2.44,-2.44,-2.43
314.81,-1.21,-1.19,1.23,1.24,-1.26,-1.10,-1.32,-2.46,-2.45,-2.43
317.96,-1.23,-1.22,1.20,1.22,-1.22,-1.08,-1.26,-2.44,-2.44,-2.43
321.14,-1.23,-1.24,1.21,1.19,-1.17,-1.06,-1.20,-2.40,-2.41,-2.43
324.35,-1.27,-1.28,1.16,1.15,-1.13,-1.04,-1.13,-2.40,-2.41,-2.43
327.59,-1.33,-1.33,1.09,1.09,-1.08,-1.02,-1.07,-2.41,-2.42,-2.41
330.87,-1.41,-1.38,1.01,1.03,-1.04,-1.00,-1.01,-2.45,-2.42,-2.42
334.18,-1.44,-1.43,0.97,0.98,-1.00,-0.98,-0.95,-2.44,-2.43,-2.41
337.52,-1.44,-1.47,0.98,0.94,-0.96,-0.96,-0.89,-2.40,-2.43,-2.41
340.90,-1.51,-1.50,0.90,0.91,-0.92,-0.94,-0.83,-2.42,-2.42,-2.41
344.30,-1.55,-1.53,0.85,0.88,-0.88,-0.92,-0.77,-2.42,-2.40,-2.40
347.75,-1.55,-1.55,0.85,0.85,-0.84,-0.90,-0.71,-2.38,-2.39,-2.39
351.23,-1.56,-1.57,0.84,0.82,-0.80,-0.88,-0.65,-2.35,-2.37,-2.40
354.74,-1.61,-1.61,0.77,0.77,-0.75,-0.86,-0.59,-2.36,-2.37,-2.38
358.28,-1.68,-1.66,0.71,0.72,-0.71,-0.84,-0.54,-2.39,-2.37,-2.38
361.87,-1.72,-1.71,0.66,0.67,-0.68,-0.82,-0.48,-2.39,-2.39,-2.38
365.49,-1.73,-1.75,0.64,0.62,-0.65,-0.80,-0.42,-2.37,-2.40,-2.37
369.14,-1.79,-1.78,0.58,0.59,-0.62,-0.78,-0.37,-2.40,-2.39,-2.37
372.83,-1.81,-1.80,0.55,0.56,-0.59,-0.76,-0.31,-2.40,-2.38,-2.35
376.56,-1.80,-1.80,0.56,0.56,-0.56,-0.74,-0.26,-2.36,-2.36,-2.36
380.33,-1.80,-1.79,0.55,0.56,-0.53,-0.72,-0.20,-2.33,-2.32,-2.35
384.13,-1.79,-1.80,0.56,0.54,-0.50,-0.70,-0.15,-2.29,-2.30,-2.35
387.97,-1.84,-1.84,0.50,0.49,-0.47,-0.68,-0.09,-2.30,-2.30,-2.33
391.85,-1.89,-1.89,0.43,0.44,-0.43,-0.66,-0.04,-2.32,-2.32,-2.32
395.77,-1.96,-1.94,0.36,0.37,-0.39,-0.64,0.01,-2.35,-2.33,-2.32
399.73,-1.98,-1.98,0.33,0.32,-0.35,-0.62,0.06,-2.32,-2.33,-2.31
403.72,-2.02,-2.03,0.28,0.28,-0.30,-0.60,0.11,-2.32,-2.33,-2.30
407.76,-2.07,-2.05,0.24,0.24,-0.25,-0.58,0.16,-2.32,-2.31,-2.30
411.84,-2.09,-2.08,0.21,0.22,-0.21,-0.56,0.21,-2.30,-2.28,-2.29
415.96,-2.09,-2.09,0.20,0.20,-0.17,-0.54,0.26,-2.25,-2.26,-2.29
420.12,-2.11,-2.13,0.18,0.16,-0.13,-0.51,0.31,-2.24,-2.26,-2.29
424.32,-2.18,-2.17,0.10,0.10,-0.10,-0.49,0.35,-2.27,-2.27,-2.28
428.56,-2.24,-2.22,0.03,0.05,-0.07,-0.47,0.39,-2.30,-2.29,-2.27
432.85,-2.26,-2.24,0.01,0.02,-0.04,-0.45,0.44,-2.30,-2.29,-2.26
437.18,-2.24,-2.24,0.02,0.01,-0.03,-0.42,0.48,-2.26,-2.27,-2.25
441.55,-2.22,-2.24,0.03,0.01,-0.02,-0.40,0.52,-2.23,-2.25,-2.25
445.96,-2.24,-2.22,0.00,0.01,-0.02,-0.37,0.55,-2.25,-2.24,-2.24
450.42,-2.21,-2.19,0.01,0.03,-0.03,-0.35,0.59,-2.24,-2.22,-2.22
454.93,-2.15,-2.15,0.06,0.06,-0.05,-0.32,0.62,-2.20,-2.20,-2.21
459.48,-2.09,-2.11,0.11,0.09,-0.08,-0.30,0.65,-2.17,-2.20,-2.20
464.07,-2.09,-2.08,0.12,0.11,-0.12,-0.27,0.68,-2.21,-2.20,-2.20
468.71,-2.08,-2.05,0.12,0.14,-0.16,-0.24,0.71,-2.23,-2.21,-2.19
473.40,-2.02,-2.02,0.17,0.17,-0.19,-0.21,0.73,-2.20,-2.20,-2.18
478.13,-1.95,-1.96,0.23,0.22,-0.21,-0.19,0.75,-2.16,-2.17,-2.17
482.91,-1.91,-1.90,0.25,0.26,-0.23,-0.15,0.77,-2.14,-2.13,-2.16
487.74,-1.87,-1.87,0.28,0.28,-0.24,-0.12,0.78,-2.10,-2.11,-2.15
492.62,-1.87,-1.87,0.27,0.26,-0.24,-0.09,0.79,-2.11,-2.11,-2.14
497.55,-1.89,-1.90,0.24,0.23,-0.23,-0.06,0.80,-2.12,-2.13,-2.13
502.52,-1.95,-1.93,0.17,0.19,-0.21,-0.03,0.81,-2.16,-2.14,-2.12
507.55,-1.96,-1.94,0.14,0.16,-0.18,0.01,0.81,-2.14,-2.13,-2.10
