frequency,raw,error,smoothed,error_smoothed,equalization,parametric_eq,fixed_band_eq,equalized_raw,equalized_smoothed,target
20.00,14.61,3.59,14.61,3.60,-3.58,-3.41,-1.73,11.02,11.03,11.02
20.20,14.58,3.58,14.57,3.58,-3.57,-3.41,-1.78,11.01,11.00,11.00
20.40,14.54,3.56,14.54,3.56,-3.56,-3.42,-1.83,10.98,10.98,10.97
20.61,14.51,3.55,14.51,3.55,-3.55,-3.42,-1.89,10.96,10.95,10.96
20.81,14.48,3.54,14.48,3.53,-3.55,-3.43,-1.94,10.93,10.93,10.94
21.02,14.45,3.52,14.46,3.53,-3.54,-3.44,-2.00,10.90,10.91,10.93
21.23,14.45,3.54,14.45,3.53,-3.55,-3.44,-2.05,10.90,10.90,10.91
21.44,14.45,3.55,14.45,3.55,-3.55,-3.45,-2.11,10.90,10.90,10.90
21.66,14.45,3.56,14.45,3.56,-3.56,-3.45,-2.17,10.89,10.89,10.89
21.87,14.45,3.58,14.45,3.58,-3.57,-3.46,-2.24,10.88,10.88,10.87
22.09,14.45,3.59,14.45,3.59,-3.58,-3.47,-2.30,10.87,10.87,10.86
22.31,14.45,3.60,14.45,3.60,-3.59,-3.47,-2.37,10.86,10.85,10.85
22.54,14.44,3.60,14.44,3.61,-3.61,-3.48,-2.43,10.83,10.83,10.84
22.76,14.44,3.62,14.44,3.61,-3.62,-3.49,-2.50,10.82,10.81,10.82
22.99,14.44,3.63,14.44,3.63,-3.64,-3.49,-2.57,10.80,10.80,10.81
23.22,14.46,3.66,14.46,3.66,-3.66,-3.50,-2.64,10.79,10.80,10.80
23.45,14.49,3.69,14.49,3.69,-3.69,-3.51,-2.72,10.80,10.79,10.80
23.69,14.52,3.73,14.51,3.72,-3.72,-3.51,-2.79,10.79,10.79,10.79
23.92,14.54,3.75,14.54,3.75,-3.76,-3.52,-2.87,10.78,10.78,10.79
24.16,14.57,3.78,14.57,3.79,-3.80,-3.53,-2.95,10.77,10.78,10.79
24.40,14.61,3.83,14.61,3.83,-3.83,-3.54,-3.03,10.78,10.78,10.78
24.65,14.65,3.87,14.65,3.87,-3.85,-3.55,-3.11,10.79,10.79,10.78
24.89,14.68,3.90,14.67,3.89,-3.87,-3.55,-3.19,10.81,10.80,10.78
25.14,14.69,3.91,14.69,3.91,-3.88,-3.56,-3.27,10.80,10.80,10.78
25.39,14.68,3.90,14.68,3.90,-3.89,-3.57,-3.36,10.79,10.79,10.78
25.65,14.67,3.89,14.67,3.89,-3.89,-3.58,-3.44,10.78,10.78,10.78
25.91,14.65,3.87,14.66,3.87,-3.89,-3.59,-3.52,10.76,10.77,10.78
26.16,14.65,3.87,14.65,3.87,-3.88,-3.60,-3.61,10.77,10.77,10.78
26.43,14.65,3.87,14.65,3.87,-3.88,-3.60,-3.69,10.77,10.77,10.78
26.69,14.65,3.87,14.65,3.87,-3.87,-3.61,-3.77,10.78,10.78,10.78
26.96,14.65,3.87,14.65,3.87,-3.87,-3.62,-3.85,10.78,10.78,10.78
27.23,14.65,3.88,14.65,3.88,-3.87,-3.63,-3.93,10.78,10.78,10.77
27.50,14.65,3.88,14.65,3.88,-3.88,-3.64,-4.01,10.77,10.77,10.77
27.77,14.65,3.88,14.65,3.88,-3.88,-3.65,-4.09,10.77,10.77,10.77
28.05,14.65,3.88,14.65,3.89,-3.89,-3.66,-4.16,10.76,10.76,10.77
28.33,14.65,3.90,14.65,3.89,-3.89,-3.67,-4.23,10.76,10.76,10.75
28.62,14.65,3.90,14.65,3.90,-3.89,-3.68,-4.30,10.75,10.75,10.75
28.90,14.65,3.90,14.65,3.90,-3.90,-3.69,-4.36,10.75,10.75,10.75
29.19,14.65,3.90,14.65,3.90,-3.90,-3.70,-4.42,10.75,10.75,10.75
29.48,14.65,3.91,14.65,3.91,-3.91,-3.71,-4.48,10.74,10.74,10.74
29.78,14.65,3.91,14.65,3.91,-3.91,-3.72,-4.53,10.74,10.74,10.74
30.08,14.65,3.91,14.65,3.91,-3.92,-3.73,-4.57,10.73,10.73,10.74
30.38,14.65,3.92,14.65,3.92,-3.92,-3.75,-4.61,10.73,10.73,10.73
30.68,14.65,3.93,14.65,3.93,-3.93,-3.76,-4.65,10.72,10.72,10.72
30.99,14.65,3.93,14.65,3.94,-3.94,-3.77,-4.68,10.71,10.71,10.72
31.30,14.65,3.95,14.65,3.94,-3.94,-3.78,-4.70,10.71,10.71,10.70
31.61,14.65,3.95,14.65,3.95,-3.95,-3.79,-4.72,10.70,10.70,10.70
31.93,14.65,3.96,14.65,3.96,-3.96,-3.81,-4.73,10.69,10.69,10.69
32.24,14.65,3.97,14.65,3.97,-3.97,-3.82,-4.74,10.68,10.68,10.68
32.57,14.65,3.97,14.65,3.97,-3.97,-3.83,-4.74,10.68,10.68,10.67
32.89,14.65,3.98,14.65,3.98,-3.98,-3.84,-4.73,10.67,10.67,10.67
33.22,14.65,3.98,14.65,3.98,-3.98,-3.86,-4.73,10.67,10.67,10.67
33.55,14.65,3.99,14.65,3.98,-3.98,-3.87,-4.71,10.66,10.66,10.66
33.89,14.65,3.98,14.65,3.99,-3.99,-3.88,-4.70,10.66,10.66,10.67
34.23,14.65,3.99,14.65,3.99,-3.99,-3.90,-4.68,10.66,10.66,10.66
34.57,14.65,3.99,14.65,3.99,-3.99,-3.91,-4.65,10.66,10.66,10.65
34.92,14.65,3.99,14.65,3.99,-3.99,-3.93,-4.63,10.66,10.66,10.66
35.27,14.65,4.00,14.65,3.99,-3.99,-3.94,-4.60,10.66,10.66,10.65
35.62,14.65,3.99,14.65,3.99,-4.00,-3.95,-4.57,10.65,10.65,10.66
35.97,14.65,4.00,14.65,4.00,-4.00,-3.97,-4.53,10.65,10.65,10.65
36.33,14.65,4.00,14.65,4.00,-4.00,-3.98,-4.50,10.64,10.64,10.64
36.70,14.65,4.01,14.65,4.01,-4.01,-4.00,-4.47,10.64,10.64,10.64
37.06,14.65,4.02,14.65,4.02,-4.02,-4.02,-4.43,10.63,10.63,10.63
37.43,14.65,4.04,14.65,4.03,-4.03,-4.03,-4.40,10.62,10.62,10.61
37.81,14.65,4.04,14.65,4.05,-4.05,-4.05,-4.37,10.60,10.60,10.61
38.19,14.65,4.06,14.65,4.06,-4.06,-4.06,-4.33,10.59,10.59,10.59
38.57,14.65,4.08,14.65,4.08,-4.08,-4.08,-4.30,10.57,10.57,10.57
38.95,14.65,4.10,14.65,4.10,-4.09,-4.10,-4.27,10.55,10.55,10.55
39.34,14.65,4.12,14.65,4.11,-4.11,-4.11,-4.24,10.54,10.54,10.53
39.74,14.65,4.13,14.65,4.13,-4.13,-4.13,-4.21,10.52,10.52,10.52
40.14,14.65,4.14,14.65,4.15,-4.15,-4.15,-4.19,10.50,10.50,10.50
40.54,14.65,4.16,14.65,4.16,-4.16,-4.17,-4.17,10.49,10.49,10.48
40.94,14.65,4.17,14.65,4.18,-4.18,-4.19,-4.15,10.47,10.47,10.47
41.35,14.65,4.18,14.65,4.19,-4.19,-4.20,-4.13,10.46,10.46,10.46
41.76,14.65,4.21,14.65,4.20,-4.20,-4.22,-4.11,10.45,10.45,10.44
42.18,14.65,4.22,14.65,4.21,-4.21,-4.24,-4.10,10.44,10.44,10.43
42.60,14.65,4.22,14.65,4.22,-4.22,-4.26,-4.09,10.43,10.43,10.43
43.03,14.65,4.23,14.65,4.23,-4.23,-4.28,-4.08,10.42,10.42,10.42
43.46,14.65,4.24,14.65,4.24,-4.24,-4.30,-4.08,10.41,10.41,10.41
43.90,14.65,4.25,14.65,4.25,-4.25,-4.32,-4.08,10.40,10.40,10.40
44.33,14.65,4.26,14.65,4.26,-4.26,-4.34,-4.08,10.39,10.39,10.39
44.78,14.65,4.27,14.65,4.27,-4.27,-4.36,-4.09,10.38,10.38,10.38
45.23,14.65,4.28,14.65,4.28,-4.28,-4.38,-4.09,10.37,10.37,10.37
45.68,14.65,4.29,14.65,4.29,-4.30,-4.40,-4.11,10.35,10.35,10.36
46.13,14.65,4.31,14.65,4.31,-4.32,-4.42,-4.12,10.33,10.33,10.34
46.60,14.65,4.32,14.65,4.32,-4.34,-4.45,-4.14,10.31,10.31,10.32
47.06,14.65,4.34,14.65,4.34,-4.35,-4.47,-4.16,10.30,10.30,10.31
47.53,14.65,4.36,14.65,4.36,-4.35,-4.49,-4.18,10.30,10.30,10.29
48.01,14.65,4.37,14.66,4.39,-4.34,-4.51,-4.21,10.31,10.32,10.27
48.49,14.65,4.40,14.66,4.41,-4.34,-4.54,-4.23,10.31,10.31,10.25
48.97,14.65,4.42,14.59,4.36,-4.35,-4.56,-4.26,10.30,10.24,10.23
49.46,14.52,4.31,14.51,4.31,-4.36,-4.58,-4.30,10.16,10.15,10.21
49.96,14.38,4.20,14.46,4.28,-4.37,-4.61,-4.33,10.01,10.09,10.18
50.46,14.46,4.30,14.46,4.30,-4.38,-4.63,-4.37,10.08,10.08,10.16
50.96,14.56,4.42,14.53,4.39,-4.39,-4.65,-4.41,10.17,10.14,10.14
51.47,14.59,4.48,14.59,4.48,-4.40,-4.68,-4.45,10.19,10.20,10.11
51.99,14.62,4.53,14.58,4.49,-4.42,-4.70,-4.49,10.20,10.17,10.09
52.51,14.53,4.46,14.53,4.47,-4.44,-4.73,-4.54,10.09,10.10,10.07
53.03,14.45,4.41,14.48,4.44,-4.46,-4.75,-4.58,9.99,10.02,10.04
53.56,14.45,4.43,14.44,4.43,-4.48,-4.78,-4.63,9.97,9.97,10.02
54.10,14.45,4.46,14.44,4.45,-4.49,-4.81,-4.68,9.96,9.96,9.99
54.64,14.45,4.48,14.45,4.48,-4.49,-4.83,-4.72,9.96,9.96,9.96
55.18,14.45,4.51,14.45,4.51,-4.51,-4.86,-4.77,9.94,9.94,9.94
55.74,14.45,4.54,14.45,4.54,-4.53,-4.89,-4.82,9.92,9.92,9.91
56.29,14.45,4.57,14.45,4.57,-4.56,-4.91,-4.86,9.89,9.89,9.88
56.86,14.45,4.60,14.45,4.60,-4.60,-4.94,-4.91,9.85,9.85,9.85
57.42,14.45,4.63,14.45,4.63,-4.64,-4.97,-4.95,9.81,9.81,9.82
58.00,14.45,4.65,14.45,4.66,-4.67,-5.00,-5.00,9.78,9.78,9.79
58.58,14.45,4.69,14.45,4.69,-4.69,-5.02,-5.04,9.76,9.76,9.76
59.16,14.45,4.72,14.45,4.72,-4.70,-5.05,-5.08,9.74,9.74,9.73
59.76,14.45,4.76,14.46,4.77,-4.72,-5.08,-5.11,9.73,9.75,9.69
60.35,14.45,4.79,14.45,4.79,-4.74,-5.11,-5.15,9.71,9.71,9.66
60.96,14.45,4.83,14.38,4.76,-4.77,-5.14,-5.18,9.68,9.61,9.62
61.57,14.29,4.71,14.31,4.73,-4.80,-5.17,-5.21,9.49,9.51,9.58
62.18,14.20,4.66,14.27,4.73,-4.83,-5.20,-5.24,9.37,9.44,9.54
62.80,14.31,4.82,14.31,4.82,-4.86,-5.23,-5.26,9.45,9.45,9.49
63.43,14.42,4.97,14.39,4.94,-4.89,-5.26,-5.28,9.53,9.50,9.45
64.07,14.49,5.08,14.43,5.02,-4.92,-5.29,-5.30,9.57,9.50,9.41
64.71,14.36,5.00,14.38,5.02,-4.97,-5.32,-5.31,9.39,9.41,9.35
65.35,14.28,4.97,14.31,5.00,-5.01,-5.35,-5.33,9.26,9.29,9.31
66.01,14.25,4.99,14.25,4.99,-5.06,-5.38,-5.34,9.19,9.19,9.25
66.67,14.25,5.04,14.24,5.04,-5.08,-5.42,-5.35,9.16,9.16,9.21
67.33,14.25,5.10,14.25,5.10,-5.10,-5.45,-5.35,9.15,9.15,9.15
68.01,14.25,5.15,14.25,5.16,-5.11,-5.48,-5.36,9.14,9.14,9.10
68.69,14.25,5.21,14.23,5.19,-5.13,-5.51,-5.37,9.12,9.10,9.04
69.37,14.20,5.21,14.18,5.19,-5.16,-5.55,-5.37,9.03,9.01,8.99
70.07,14.11,5.18,14.11,5.18,-5.21,-5.58,-5.37,8.90,8.91,8.93
70.77,14.04,5.17,14.08,5.21,-5.26,-5.61,-5.38,8.78,8.82,8.87
71.48,14.08,5.26,14.08,5.27,-5.32,-5.65,-5.38,8.76,8.76,8.82
72.19,14.15,5.40,14.11,5.36,-5.40,-5.68,-5.38,8.75,8.72,8.75
72.91,14.15,5.45,14.14,5.45,-5.48,-5.72,-5.39,8.67,8.67,8.69
73.64,14.15,5.51,14.18,5.55,-5.56,-5.75,-5.39,8.59,8.63,8.64
74.38,14.22,5.64,14.25,5.68,-5.63,-5.79,-5.40,8.58,8.61,8.58
75.12,14.33,5.82,14.29,5.78,-5.70,-5.82,-5.41,8.63,8.59,8.51
75.87,14.33,5.88,14.26,5.82,-5.75,-5.86,-5.42,8.58,8.52,8.44
76.63,14.15,5.77,14.19,5.81,-5.77,-5.89,-5.43,8.37,8.41,8.38
77.40,14.05,5.73,14.11,5.80,-5.79,-5.93,-5.45,8.26,8.32,8.32
78.17,14.05,5.80,14.02,5.77,-5.80,-5.96,-5.47,8.25,8.22,8.25
78.95,14.05,5.86,13.96,5.77,-5.81,-6.00,-5.49,8.23,8.15,8.18
79.74,13.83,5.71,13.91,5.79,-5.84,-6.04,-5.51,7.99,8.07,8.12
80.54,13.85,5.80,13.88,5.83,-5.89,-6.08,-5.54,7.96,7.99,8.05
81.35,13.93,5.95,13.89,5.91,-5.96,-6.11,-5.58,7.97,7.92,7.98
82.16,13.95,6.04,13.93,6.02,-6.04,-6.15,-5.61,7.91,7.89,7.91
82.98,13.95,6.11,13.96,6.13,-6.12,-6.19,-5.65,7.83,7.85,7.84
83.81,13.95,6.18,14.01,6.24,-6.18,-6.23,-5.69,7.77,7.83,7.76
84.65,14.07,6.38,14.03,6.34,-6.23,-6.27,-5.74,7.84,7.80,7.69
85.50,14.05,6.44,14.00,6.39,-6.28,-6.31,-5.79,7.77,7.73,7.61
86.35,13.89,6.36,13.88,6.35,-6.32,-6.35,-5.85,7.57,7.56,7.53
87.22,13.73,6.27,13.74,6.29,-6.37,-6.39,-5.91,7.36,7.37,7.46
88.09,13.58,6.20,13.67,6.29,-6.43,-6.43,-5.97,7.15,7.24,7.38
88.97,13.72,6.42,13.67,6.37,-6.49,-6.47,-6.04,7.23,7.17,7.30
89.86,13.75,6.54,13.72,6.50,-6.55,-6.51,-6.12,7.20,7.17,7.21
90.76,13.75,6.62,13.80,6.67,-6.60,-6.56,-6.19,7.14,7.20,7.13
91.66,13.83,6.79,13.84,6.79,-6.66,-6.60,-6.28,7.17,7.18,7.04
92.58,13.89,6.93,13.83,6.87,-6.73,-6.64,-6.36,7.16,7.10,6.96
93.51,13.77,6.90,13.74,6.87,-6.79,-6.69,-6.45,6.97,6.95,6.87
94.44,13.57,6.79,13.59,6.81,-6.86,-6.73,-6.55,6.71,6.73,6.78
95.39,13.43,6.74,13.48,6.80,-6.93,-6.77,-6.65,6.50,6.55,6.69
96.34,13.44,6.84,13.45,6.86,-7.00,-6.82,-6.75,6.44,6.45,6.60
97.30,13.54,7.05,13.48,6.98,-7.07,-6.86,-6.86,6.47,6.42,6.49
98.28,13.53,7.13,13.54,7.15,-7.13,-6.91,-6.97,6.40,6.42,6.40
99.26,13.55,7.25,13.60,7.31,-7.18,-6.96,-7.08,6.36,6.42,6.30
100.25,13.64,7.45,13.59,7.40,-7.25,-7.01,-7.20,6.39,6.34,6.19
101.25,13.59,7.50,13.52,7.43,-7.33,-7.05,-7.32,6.26,6.19,6.09
102.27,13.33,7.35,13.36,7.38,-7.40,-7.10,-7.44,5.93,5.96,5.98
103.29,13.17,7.29,13.21,7.33,-7.46,-7.15,-7.56,5.71,5.75,5.88
104.32,13.10,7.33,13.13,7.35,-7.51,-7.20,-7.69,5.59,5.62,5.77
105.37,13.18,7.51,13.15,7.49,-7.54,-7.25,-7.82,5.64,5.61,5.67
106.42,13.19,7.63,13.21,7.65,-7.58,-7.30,-7.94,5.61,5.63,5.55
107.48,13.24,7.79,13.21,7.75,-7.63,-7.35,-8.07,5.60,5.57,5.45
108.56,13.18,7.82,13.13,7.78,-7.70,-7.40,-8.20,5.48,5.43,5.36
109.64,12.97,7.72,13.02,7.77,-7.77,-7.46,-8.32,5.20,5.25,5.25
110.74,12.90,7.75,12.92,7.77,-7.84,-7.51,-8.44,5.06,5.08,5.15
111.85,12.88,7.83,12.87,7.81,-7.89,-7.56,-8.56,4.99,4.98,5.05
112.97,12.87,7.91,12.87,7.91,-7.92,-7.62,-8.68,4.94,4.95,4.96
114.10,12.87,8.00,12.86,8.00,-7.96,-7.67,-8.79,4.90,4.90,4.87
115.24,12.85,8.07,12.83,8.06,-8.02,-7.72,-8.89,4.83,4.82,4.77
116.39,12.78,8.10,12.78,8.09,-8.08,-7.78,-8.99,4.70,4.70,4.68
117.55,12.71,8.11,12.72,8.12,-8.14,-7.84,-9.08,4.56,4.57,4.60
118.73,12.67,8.16,12.69,8.17,-8.21,-7.89,-9.16,4.46,4.48,4.51
119.92,12.68,8.25,12.68,8.25,-8.26,-7.95,-9.23,4.42,4.42,4.43
121.12,12.69,8.34,12.67,8.33,-8.31,-8.00,-9.30,4.38,4.37,4.35
122.33,12.66,8.39,12.66,8.39,-8.36,-8.06,-9.35,4.30,4.30,4.27
123.55,12.62,8.43,12.62,8.43,-8.42,-8.12,-9.39,4.20,4.20,4.19
124.79,12.57,8.46,12.57,8.45,-8.47,-8.17,-9.42,4.10,4.10,4.11
126.03,12.52,8.48,12.54,8.51,-8.52,-8.23,-9.44,4.00,4.02,4.03
127.29,12.52,8.56,12.52,8.56,-8.57,-8.29,-9.45,3.95,3.95,3.96
128.57,12.53,8.65,12.50,8.62,-8.61,-8.35,-9.45,3.92,3.90,3.88
129.85,12.47,8.66,12.47,8.67,-8.65,-8.40,-9.43,3.82,3.82,3.81
131.15,12.43,8.69,12.42,8.69,-8.69,-8.46,-9.41,3.74,3.73,3.73
132.46,12.37,8.71,12.38,8.72,-8.73,-8.52,-9.38,3.64,3.65,3.66
133.79,12.35,8.76,12.36,8.77,-8.77,-8.57,-9.34,3.58,3.59,3.59
135.12,12.35,8.83,12.33,8.81,-8.81,-8.63,-9.29,3.54,3.52,3.52
136.48,12.30,8.85,12.30,8.85,-8.84,-8.68,-9.24,3.46,3.46,3.45
137.84,12.26,8.88,12.25,8.87,-8.88,-8.74,-9.18,3.38,3.37,3.38
139.22,12.20,8.90,12.21,8.90,-8.92,-8.79,-9.11,3.28,3.28,3.30
140.61,12.16,8.92,12.17,8.94,-8.95,-8.84,-9.04,3.21,3.22,3.24
142.02,12.16,9.00,12.15,8.99,-8.97,-8.89,-8.97,3.19,3.17,3.16
143.44,12.12,9.03,12.11,9.02,-8.99,-8.94,-8.90,3.13,3.12,3.09
144.87,12.07,9.06,12.07,9.05,-9.02,-8.99,-8.82,3.05,3.05,3.01
146.32,11.99,9.04,12.02,9.07,-9.05,-9.04,-8.75,2.94,2.97,2.95
147.78,11.96,9.08,11.92,9.04,-9.08,-9.09,-8.67,2.88,2.84,2.88
149.26,11.87,9.06,11.82,9.01,-9.10,-9.13,-8.60,2.77,2.72,2.81
150.75,11.70,8.96,11.82,9.08,-9.12,-9.18,-8.52,2.58,2.70,2.74
152.26,11.81,9.14,11.87,9.19,-9.14,-9.22,-8.45,2.67,2.72,2.67
153.78,12.02,9.40,11.87,9.25,-9.18,-9.26,-8.38,2.84,2.68,2.62
155.32,11.88,9.33,11.79,9.24,-9.22,-9.30,-8.32,2.66,2.57,2.55
156.88,11.55,9.06,11.70,9.21,-9.26,-9.34,-8.26,2.29,2.44,2.49
158.44,11.54,9.12,11.64,9.22,-9.29,-9.37,-8.20,2.25,2.35,2.42
160.03,11.79,9.43,11.68,9.33,-9.32,-9.40,-8.15,2.47,2.37,2.36
161.63,11.77,9.48,11.70,9.41,-9.33,-9.43,-8.10,2.44,2.37,2.29
163.24,11.63,9.40,11.61,9.38,-9.34,-9.46,-8.06,2.29,2.27,2.23
164.88,11.39,9.22,11.50,9.33,-9.35,-9.48,-8.02,2.04,2.15,2.17
166.53,11.42,9.30,11.44,9.32,-9.36,-9.50,-7.98,2.06,2.08,2.12
168.19,11.50,9.44,11.41,9.35,-9.36,-9.52,-7.96,2.14,2.05,2.06
169.87,11.38,9.37,11.39,9.39,-9.35,-9.54,-7.93,2.03,2.04,2.01
171.57,11.29,9.34,11.31,9.36,-9.34,-9.55,-7.92,1.95,1.97,1.95
173.29,11.22,9.32,11.21,9.30,-9.34,-9.56,-7.91,1.88,1.87,1.90
175.02,11.14,9.28,11.15,9.30,-9.34,-9.57,-7.91,1.80,1.82,1.86
176.77,11.11,9.30,11.12,9.31,-9.33,-9.58,-7.90,1.78,1.79,1.81
178.54,11.11,9.35,11.10,9.34,-9.32,-9.58,-7.91,1.79,1.78,1.76
180.32,11.08,9.36,11.07,9.36,-9.31,-9.58,-7.92,1.77,1.76,1.72
182.13,11.04,9.36,11.05,9.37,-9.32,-9.57,-7.94,1.72,1.74,1.68
183.95,10.98,9.33,10.96,9.31,-9.33,-9.57,-7.97,1.65,1.62,1.65
185.79,10.94,9.33,10.86,9.26,-9.35,-9.55,-8.00,1.59,1.52,1.61
187.65,10.70,9.12,10.86,9.29,-9.35,-9.54,-8.03,1.35,1.52,1.58
189.52,10.89,9.35,10.90,9.35,-9.35,-9.53,-8.08,1.54,1.55,1.54
191.42,11.06,9.54,10.91,9.39,-9.34,-9.51,-8.12,1.72,1.57,1.52
193.33,10.89,9.40,10.91,9.42,-9.33,-9.49,-8.17,1.56,1.58,1.49
195.27,10.74,9.28,10.80,9.34,-9.31,-9.47,-8.23,1.43,1.49,1.46
197.22,10.69,9.26,10.68,9.26,-9.29,-9.44,-8.29,1.40,1.40,1.43
199.19,10.65,9.25,10.63,9.23,-9.25,-9.41,-8.35,1.39,1.38,1.40
201.18,10.58,9.21,10.60,9.22,-9.21,-9.38,-8.43,1.36,1.38,1.37
203.19,10.53,9.18,10.52,9.17,-9.18,-9.35,-8.50,1.35,1.34,1.34
205.23,10.47,9.15,10.41,9.09,-9.14,-9.31,-8.58,1.32,1.27,1.32
207.28,10.30,9.01,10.37,9.08,-9.12,-9.27,-8.65,1.18,1.25,1.29
209.35,10.28,9.01,10.35,9.08,-9.10,-9.23,-8.74,1.18,1.25,1.27
211.44,10.46,9.22,10.34,9.10,-9.08,-9.19,-8.82,1.38,1.26,1.23
213.56,10.31,9.10,10.32,9.11,-9.05,-9.15,-8.90,1.26,1.27,1.21
215.69,10.21,9.03,10.24,9.06,-9.02,-9.11,-8.99,1.19,1.22,1.18
217.85,10.14,8.98,10.13,8.98,-9.00,-9.06,-9.07,1.14,1.13,1.16
220.03,10.06,8.93,10.07,8.94,-8.96,-9.01,-9.15,1.09,1.10,1.13
222.23,10.02,8.91,10.01,8.91,-8.92,-8.96,-9.23,1.10,1.09,1.11
224.45,9.95,8.86,9.96,8.88,-8.87,-8.92,-9.31,1.08,1.09,1.09
226.70,9.92,8.85,9.90,8.83,-8.81,-8.86,-9.38,1.11,1.09,1.07
228.96,9.83,8.78,9.83,8.78,-8.76,-8.81,-9.44,1.06,1.07,1.05
231.25,9.75,8.71,9.76,8.73,-8.72,-8.76,-9.50,1.02,1.04,1.04
233.57,9.70,8.68,9.69,8.67,-8.69,-8.71,-9.56,1.01,1.01,1.02
235.90,9.65,8.64,9.64,8.63,-8.66,-8.65,-9.60,0.99,0.98,1.01
238.26,9.59,8.59,9.58,8.58,-8.62,-8.60,-9.63,0.97,0.96,1.00
240.64,9.55,8.55,9.57,8.57,-8.58,-8.54,-9.66,0.96,0.98,1.00
243.05,9.53,8.54,9.59,8.60,-8.55,-8.49,-9.67,0.97,1.03,0.99
245.48,9.64,8.65,9.53,8.55,-8.52,-8.43,-9.67,1.11,1.01,0.99
247.93,9.53,8.55,9.49,8.51,-8.49,-8.37,-9.66,1.04,1.00,0.98
250.41,9.28,8.30,9.46,8.48,-8.47,-8.32,-9.64,0.81,0.99,0.98
252.92,9.48,8.50,9.36,8.39,-8.44,-8.26,-9.60,1.04,0.92,0.98
255.45,9.38,8.42,9.30,8.34,-8.39,-8.21,-9.55,0.99,0.92,0.96
258.00,9.16,8.20,9.32,8.37,-8.33,-8.15,-9.50,0.83,1.00,0.96
260.58,9.26,8.31,9.23,8.28,-8.26,-8.09,-9.42,1.00,0.97,0.95
263.19,9.32,8.38,9.17,8.24,-8.19,-8.04,-9.34,1.13,0.98,0.94
265.82,8.98,8.06,9.11,8.19,-8.13,-7.98,-9.25,0.85,0.98,0.92
268.48,8.99,8.08,8.93,8.02,-8.07,-7.92,-9.15,0.91,0.85,0.91
271.16,8.84,7.95,8.82,7.93,-8.01,-7.87,-9.04,0.82,0.80,0.89
273.87,8.65,7.77,8.81,7.94,-7.95,-7.81,-8.92,0.70,0.86,0.88
276.61,8.88,8.02,8.73,7.88,-7.89,-7.76,-8.80,0.99,0.84,0.86
279.38,8.75,7.91,8.69,7.85,-7.84,-7.70,-8.67,0.91,0.85,0.84
282.17,8.53,7.70,8.70,7.88,-7.80,-7.65,-8.53,0.73,0.90,0.83
284.99,8.64,7.82,8.58,7.76,-7.77,-7.59,-8.39,0.87,0.81,0.82
287.84,8.68,7.86,8.51,7.69,-7.74,-7.54,-8.25,0.94,0.77,0.82
290.72,8.30,7.49,8.51,7.70,-7.69,-7.48,-8.11,0.61,0.82,0.81
293.63,8.44,7.63,8.46,7.65,-7.64,-7.43,-7.97,0.80,0.83,0.81
296.57,8.57,7.76,8.40,7.60,-7.58,-7.37,-7.82,0.99,0.82,0.81
299.53,8.35,7.54,8.38,7.57,-7.52,-7.32,-7.68,0.83,0.86,0.81
302.53,8.20,7.39,8.27,7.46,-7.46,-7.27,-7.54,0.74,0.81,0.80
305.55,8.18,7.37,8.16,7.35,-7.40,-7.21,-7.40,0.77,0.75,0.81
308.61,8.13,7.33,8.12,7.32,-7.34,-7.16,-7.26,0.79,0.78,0.80
311.69,8.08,7.28,8.08,7.28,-7.28,-7.11,-7.12,0.80,0.80,0.80
314.81,8.02,7.23,8.02,7.23,-7.22,-7.05,-6.99,0.80,0.80,0.79
317.96,7.94,7.16,7.94,7.16,-7.16,-7.00,-6.86,0.78,0.78,0.78
321.14,7.89,7.11,7.86,7.08,-7.09,-6.95,-6.73,0.80,0.77,0.78
324.35,7.77,6.99,7.81,7.03,-7.02,-6.89,-6.61,0.75,0.79,0.78
327.59,7.74,6.96,7.77,7.00,-6.94,-6.84,-6.48,0.79,0.83,0.78
330.87,7.75,6.98,7.68,6.90,-6.86,-6.78,-6.37,0.89,0.81,0.77
334.18,7.60,6.83,7.55,6.78,-6.78,-6.73,-6.26,0.82,0.77,0.77
337.52,7.32,6.56,7.40,6.64,-6.70,-6.67,-6.15,0.62,0.70,0.76
340.90,7.28,6.52,7.31,6.55,-6.61,-6.62,-6.04,0.67,0.70,0.76
344.30,7.29,6.52,7.29,6.53,-6.52,-6.56,-5.95,0.76,0.77,0.76
347.75,7.33,6.56,7.25,6.48,-6.44,-6.50,-5.85,0.89,0.81,0.77
351.23,7.19,6.43,7.16,6.39,-6.36,-6.44,-5.76,0.83,0.80,0.76
354.74,6.95,6.18,7.09,6.32,-6.29,-6.38,-5.67,0.66,0.80,0.77
358.28,7.01,6.24,6.96,6.19,-6.23,-6.32,-5.59,0.78,0.73,0.77
361.87,7.00,6.22,6.88,6.10,-6.17,-6.26,-5.51,0.83,0.71,0.78
365.49,6.72,5.94,6.87,6.09,-6.10,-6.20,-5.44,0.62,0.77,0.78
369.14,6.81,6.03,6.83,6.05,-6.04,-6.14,-5.37,0.77,0.80,0.78
372.83,6.91,6.11,6.77,5.98,-5.98,-6.07,-5.30,0.93,0.80,0.80
376.56,6.73,5.94,6.75,5.96,-5.92,-6.01,-5.24,0.81,0.82,0.79
380.33,6.57,5.78,6.65,5.86,-5.86,-5.94,-5.18,0.70,0.79,0.79
384.13,6.60,5.81,6.56,5.77,-5.80,-5.87,-5.13,0.80,0.76,0.79
387.97,6.53,5.74,6.53,5.74,-5.72,-5.80,-5.08,0.81,0.80,0.78
391.85,6.46,5.67,6.47,5.68,-5.63,-5.73,-5.03,0.83,0.83,0.79
395.77,6.38,5.60,6.34,5.56,-5.54,-5.66,-4.98,0.84,0.80,0.78
399.73,6.20,5.42,6.22,5.44,-5.44,-5.58,-4.94,0.76,0.78,0.78
403.72,6.07,5.29,6.10,5.33,-5.34,-5.51,-4.90,0.73,0.76,0.77
407.76,6.00,5.25,5.99,5.23,-5.25,-5.43,-4.86,0.75,0.73,0.75
411.84,5.92,5.17,5.89,5.14,-5.17,-5.35,-4.83,0.75,0.72,0.75
415.96,5.79,5.04,5.80,5.06,-5.09,-5.27,-4.79,0.70,0.72,0.75
420.12,5.71,4.97,5.74,4.99,-5.01,-5.19,-4.76,0.70,0.72,0.74
424.32,5.69,4.95,5.68,4.93,-4.95,-5.10,-4.73,0.74,0.73,0.74
428.56,5.68,4.93,5.65,4.90,-4.88,-5.02,-4.70,0.80,0.78,0.75
432.85,5.59,4.82,5.64,4.87,-4.81,-4.93,-4.67,0.77,0.82,0.77
437.18,5.61,4.83,5.55,4.77,-4.75,-4.85,-4.64,0.86,0.81,0.78
441.55,5.52,4.70,5.47,4.66,-4.67,-4.76,-4.61,0.85,0.80,0.82
445.96,5.31,4.45,5.43,4.58,-4.59,-4.67,-4.58,0.72,0.84,0.85
450.42,5.42,4.52,5.39,4.49,-4.51,-4.57,-4.54,0.91,0.89,0.90
454.93,5.44,4.49,5.38,4.42,-4.42,-4.48,-4.51,1.02,0.95,0.95
459.48,5.35,4.34,5.36,4.35,-4.34,-4.39,-4.47,1.01,1.02,1.01
464.07,5.28,4.22,5.30,4.24,-4.26,-4.29,-4.44,1.02,1.04,1.06
468.71,5.24,4.13,5.26,4.15,-4.17,-4.20,-4.40,1.06,1.09,1.11
473.40,5.27,4.10,5.25,4.08,-4.08,-4.10,-4.35,1.19,1.16,1.17
478.13,5.25,4.02,5.24,4.02,-3.98,-4.00,-4.30,1.26,1.26,1.22
