frequency,raw,smoothed,error,error_smoothed,equalization,parametric_eq,fixed_band_eq,equalized_raw,equalized_smoothed,target
20.00,14.61,14.61,6.05,6.06,-6.04,-5.66,-2.75,8.57,8.57,8.56
20.20,14.58,14.57,6.02,6.02,-6.01,-5.66,-2.82,8.57,8.56,8.56
20.40,14.54,14.54,5.98,5.98,-5.98,-5.67,-2.90,8.55,8.55,8.55
20.61,14.51,14.51,5.96,5.95,-5.96,-5.67,-2.98,8.55,8.55,8.55
20.81,14.48,14.48,5.92,5.92,-5.94,-5.68,-3.07,8.54,8.54,8.55
21.02,14.45,14.46,5.90,5.90,-5.92,-5.68,-3.15,8.53,8.54,8.55
21.23,14.45,14.45,5.90,5.90,-5.91,-5.69,-3.24,8.54,8.54,8.55
21.44,14.45,14.45,5.90,5.89,-5.90,-5.69,-3.34,8.55,8.55,8.55
21.66,14.45,14.45,5.90,5.90,-5.89,-5.70,-3.43,8.56,8.56,8.55
21.87,14.45,14.45,5.90,5.90,-5.89,-5.71,-3.53,8.56,8.56,8.55
22.09,14.45,14.45,5.90,5.90,-5.89,-5.71,-3.62,8.56,8.56,8.55
22.31,14.45,14.45,5.90,5.90,-5.89,-5.72,-3.73,8.56,8.56,8.55
22.54,14.44,14.44,5.89,5.89,-5.89,-5.72,-3.83,8.55,8.55,8.55
22.76,14.44,14.44,5.89,5.89,-5.90,-5.73,-3.94,8.54,8.54,8.55
22.99,14.44,14.44,5.89,5.90,-5.91,-5.74,-4.05,8.53,8.53,8.55
23.22,14.46,14.46,5.91,5.92,-5.92,-5.74,-4.16,8.53,8.54,8.54
23.45,14.49,14.49,5.95,5.94,-5.95,-5.75,-4.28,8.54,8.54,8.54
23.69,14.52,14.51,5.98,5.97,-5.97,-5.75,-4.39,8.54,8.54,8.54
23.92,14.54,14.54,6.00,6.00,-6.01,-5.76,-4.51,8.53,8.53,8.54
24.16,14.57,14.57,6.03,6.03,-6.04,-5.77,-4.64,8.53,8.53,8.54
24.40,14.61,14.61,6.07,6.07,-6.07,-5.77,-4.76,8.54,8.54,8.54
24.65,14.65,14.65,6.11,6.11,-6.10,-5.78,-4.89,8.55,8.55,8.54
24.89,14.68,14.67,6.14,6.14,-6.12,-5.79,-5.01,8.56,8.56,8.54
25.14,14.69,14.69,6.15,6.15,-6.13,-5.80,-5.14,8.56,8.56,8.53
25.39,14.68,14.68,6.15,6.15,-6.14,-5.80,-5.27,8.54,8.54,8.53
25.65,14.67,14.67,6.14,6.14,-6.14,-5.81,-5.40,8.53,8.53,8.53
25.91,14.65,14.66,6.12,6.12,-6.14,-5.82,-5.54,8.51,8.52,8.53
26.16,14.65,14.65,6.12,6.12,-6.13,-5.83,-5.67,8.52,8.52,8.53
26.43,14.65,14.65,6.12,6.12,-6.13,-5.83,-5.80,8.52,8.52,8.53
26.69,14.65,14.65,6.12,6.12,-6.12,-5.84,-5.93,8.52,8.52,8.53
26.96,14.65,14.65,6.12,6.12,-6.12,-5.85,-6.06,8.53,8.53,8.52
27.23,14.65,14.65,6.13,6.13,-6.12,-5.86,-6.19,8.52,8.52,8.52
27.50,14.65,14.65,6.13,6.13,-6.13,-5.87,-6.31,8.52,8.52,8.52
27.77,14.65,14.65,6.13,6.13,-6.13,-5.87,-6.43,8.52,8.52,8.52
28.05,14.65,14.65,6.13,6.13,-6.13,-5.88,-6.55,8.52,8.52,8.52
28.33,14.65,14.65,6.13,6.13,-6.13,-5.89,-6.66,8.51,8.51,8.51
28.62,14.65,14.65,6.14,6.14,-6.14,-5.90,-6.77,8.51,8.51,8.51
28.90,14.65,14.65,6.14,6.14,-6.14,-5.91,-6.87,8.51,8.51,8.51
29.19,14.65,14.65,6.14,6.14,-6.14,-5.92,-6.97,8.51,8.51,8.51
29.48,14.65,14.65,6.14,6.14,-6.14,-5.93,-7.05,8.50,8.50,8.50
29.78,14.65,14.65,6.15,6.15,-6.15,-5.94,-7.13,8.50,8.50,8.50
30.08,14.65,14.65,6.15,6.15,-6.15,-5.95,-7.20,8.50,8.50,8.50
30.38,14.65,14.65,6.15,6.15,-6.15,-5.96,-7.27,8.50,8.50,8.50
30.68,14.65,14.65,6.15,6.15,-6.15,-5.96,-7.31,8.49,8.49,8.49
30.99,14.65,14.65,6.16,6.16,-6.16,-5.97,-7.36,8.49,8.49,8.49
31.30,14.65,14.65,6.16,6.16,-6.16,-5.98,-7.39,8.49,8.49,8.49
31.61,14.65,14.65,6.16,6.16,-6.16,-5.99,-7.41,8.49,8.49,8.49
31.93,14.65,14.65,6.17,6.17,-6.17,-6.00,-7.42,8.48,8.48,8.48
32.24,14.65,14.65,6.17,6.17,-6.17,-6.01,-7.43,8.48,8.48,8.48
32.57,14.65,14.65,6.17,6.17,-6.17,-6.03,-7.42,8.47,8.47,8.47
32.89,14.65,14.65,6.18,6.18,-6.18,-6.04,-7.41,8.47,8.47,8.47
33.22,14.65,14.65,6.18,6.18,-6.18,-6.05,-7.38,8.47,8.47,8.47
33.55,14.65,14.65,6.19,6.19,-6.19,-6.06,-7.35,8.46,8.46,8.46
33.89,14.65,14.65,6.19,6.19,-6.19,-6.07,-7.31,8.46,8.46,8.46
34.23,14.65,14.65,6.19,6.19,-6.19,-6.08,-7.27,8.46,8.46,8.46
34.57,14.65,14.65,6.20,6.20,-6.20,-6.09,-7.22,8.45,8.45,8.45
34.92,14.65,14.65,6.20,6.20,-6.20,-6.10,-7.17,8.45,8.45,8.45
35.27,14.65,14.65,6.21,6.21,-6.21,-6.11,-7.11,8.44,8.44,8.44
35.62,14.65,14.65,6.21,6.21,-6.21,-6.12,-7.05,8.44,8.44,8.44
35.97,14.65,14.65,6.22,6.22,-6.22,-6.14,-6.99,8.43,8.43,8.43
36.33,14.65,14.65,6.22,6.22,-6.22,-6.15,-6.92,8.43,8.43,8.43
36.70,14.65,14.65,6.23,6.23,-6.23,-6.16,-6.85,8.42,8.42,8.42
37.06,14.65,14.65,6.23,6.23,-6.23,-6.17,-6.79,8.42,8.42,8.42
37.43,14.65,14.65,6.24,6.24,-6.24,-6.18,-6.72,8.41,8.41,8.41
37.81,14.65,14.65,6.25,6.25,-6.25,-6.19,-6.66,8.40,8.40,8.40
38.19,14.65,14.65,6.25,6.25,-6.25,-6.21,-6.59,8.40,8.40,8.40
38.57,14.65,14.65,6.26,6.26,-6.26,-6.22,-6.53,8.39,8.39,8.39
38.95,14.65,14.65,6.27,6.27,-6.27,-6.23,-6.47,8.38,8.38,8.38
39.34,14.65,14.65,6.27,6.27,-6.27,-6.24,-6.41,8.38,8.38,8.38
39.74,14.65,14.65,6.28,6.28,-6.28,-6.25,-6.36,8.37,8.37,8.37
40.14,14.65,14.65,6.29,6.29,-6.29,-6.27,-6.31,8.36,8.36,8.36
40.54,14.65,14.65,6.29,6.29,-6.29,-6.28,-6.26,8.35,8.35,8.35
40.94,14.65,14.65,6.30,6.30,-6.30,-6.29,-6.22,8.35,8.35,8.35
41.35,14.65,14.65,6.31,6.31,-6.31,-6.30,-6.17,8.34,8.34,8.34
41.76,14.65,14.65,6.32,6.32,-6.32,-6.31,-6.14,8.33,8.33,8.33
42.18,14.65,14.65,6.33,6.33,-6.33,-6.33,-6.11,8.32,8.32,8.32
42.60,14.65,14.65,6.34,6.34,-6.34,-6.34,-6.08,8.31,8.31,8.31
43.03,14.65,14.65,6.35,6.35,-6.35,-6.35,-6.05,8.30,8.30,8.30
43.46,14.65,14.65,6.36,6.36,-6.36,-6.36,-6.03,8.29,8.29,8.29
43.90,14.65,14.65,6.37,6.37,-6.37,-6.37,-6.02,8.28,8.28,8.28
44.33,14.65,14.65,6.38,6.38,-6.38,-6.38,-6.01,8.27,8.27,8.27
44.78,14.65,14.65,6.39,6.39,-6.39,-6.39,-6.00,8.26,8.26,8.26
45.23,14.65,14.65,6.40,6.40,-6.40,-6.41,-6.00,8.25,8.25,8.25
45.68,14.65,14.65,6.41,6.41,-6.42,-6.42,-6.00,8.23,8.23,8.23
46.13,14.65,14.65,6.43,6.43,-6.44,-6.43,-6.01,8.21,8.21,8.22
46.60,14.65,14.65,6.44,6.44,-6.45,-6.44,-6.02,8.19,8.19,8.21
47.06,14.65,14.65,6.45,6.45,-6.46,-6.45,-6.03,8.19,8.19,8.20
47.53,14.65,14.65,6.47,6.47,-6.46,-6.46,-6.05,8.19,8.19,8.18
48.01,14.65,14.66,6.48,6.49,-6.44,-6.47,-6.08,8.20,8.22,8.17
48.49,14.65,14.66,6.50,6.50,-6.44,-6.48,-6.10,8.21,8.22,8.15
48.97,14.65,14.59,6.51,6.45,-6.44,-6.49,-6.13,8.21,8.15,8.14
49.46,14.52,14.51,6.40,6.39,-6.44,-6.50,-6.17,8.08,8.07,8.12
49.96,14.38,14.46,6.27,6.36,-6.45,-6.50,-6.21,7.93,8.01,8.10
50.46,14.46,14.46,6.37,6.37,-6.45,-6.51,-6.25,8.01,8.01,8.09
50.96,14.56,14.53,6.49,6.46,-6.45,-6.52,-6.29,8.11,8.07,8.07
51.47,14.59,14.59,6.54,6.54,-6.46,-6.53,-6.34,8.13,8.14,8.05
51.99,14.62,14.58,6.58,6.55,-6.47,-6.54,-6.38,8.15,8.11,8.03
52.51,14.53,14.53,6.52,6.52,-6.49,-6.54,-6.43,8.04,8.04,8.01
53.03,14.45,14.48,6.45,6.49,-6.51,-6.55,-6.49,7.94,7.98,7.99
53.56,14.45,14.44,6.47,6.47,-6.52,-6.56,-6.54,7.93,7.93,7.97
54.10,14.45,14.44,6.50,6.49,-6.52,-6.57,-6.59,7.93,7.92,7.95
54.64,14.45,14.45,6.52,6.52,-6.52,-6.58,-6.65,7.92,7.92,7.93
55.18,14.45,14.45,6.54,6.54,-6.53,-6.59,-6.70,7.92,7.92,7.91
55.74,14.45,14.45,6.56,6.56,-6.55,-6.60,-6.75,7.90,7.90,7.88
56.29,14.45,14.45,6.59,6.59,-6.58,-6.61,-6.81,7.87,7.87,7.86
56.86,14.45,14.45,6.61,6.61,-6.62,-6.62,-6.86,7.83,7.83,7.84
57.42,14.45,14.45,6.64,6.64,-6.65,-6.64,-6.90,7.80,7.80,7.81
58.00,14.45,14.45,6.67,6.67,-6.68,-6.65,-6.95,7.77,7.77,7.78
58.58,14.45,14.45,6.69,6.69,-6.70,-6.67,-6.99,7.75,7.75,7.76
59.16,14.45,14.45,6.72,6.72,-6.70,-6.69,-7.03,7.75,7.75,7.73
59.76,14.45,14.46,6.75,6.76,-6.71,-6.71,-7.07,7.74,7.75,7.70
60.35,14.45,14.45,6.78,6.78,-6.73,-6.73,-7.10,7.72,7.72,7.67
60.96,14.45,14.38,6.81,6.74,-6.75,-6.76,-7.13,7.70,7.63,7.64
61.57,14.29,14.31,6.68,6.70,-6.77,-6.78,-7.15,7.52,7.53,7.61
62.18,14.20,14.27,6.62,6.70,-6.79,-6.81,-7.17,7.40,7.48,7.58
62.80,14.31,14.31,6.77,6.77,-6.81,-6.84,-7.19,7.50,7.50,7.54
63.43,14.42,14.39,6.91,6.89,-6.83,-6.87,-7.20,7.59,7.56,7.51
64.07,14.49,14.43,7.02,6.95,-6.86,-6.90,-7.20,7.63,7.57,7.47
64.71,14.36,14.38,6.92,6.94,-6.89,-6.93,-7.20,7.47,7.49,7.44
65.35,14.28,14.31,6.88,6.91,-6.92,-6.96,-7.20,7.36,7.39,7.40
66.01,14.25,14.25,6.89,6.89,-6.95,-6.99,-7.19,7.30,7.30,7.36
66.67,14.25,14.24,6.93,6.92,-6.97,-7.03,-7.18,7.28,7.27,7.32
67.33,14.25,14.25,6.97,6.97,-6.97,-7.06,-7.17,7.28,7.28,7.28
68.01,14.25,14.25,7.01,7.01,-6.97,-7.09,-7.15,7.28,7.29,7.24
68.69,14.25,14.23,7.05,7.04,-6.98,-7.12,-7.14,7.27,7.26,7.20
69.37,14.20,14.18,7.04,7.02,-7.00,-7.16,-7.12,7.20,7.18,7.16
70.07,14.11,14.11,7.00,7.00,-7.02,-7.19,-7.09,7.08,7.09,7.11
70.77,14.04,14.08,6.97,7.01,-7.06,-7.22,-7.07,6.97,7.01,7.07
71.48,14.08,14.08,7.06,7.06,-7.12,-7.25,-7.05,6.96,6.97,7.02
72.19,14.15,14.11,7.18,7.14,-7.18,-7.28,-7.02,6.97,6.93,6.97
72.91,14.15,14.14,7.22,7.22,-7.24,-7.31,-7.00,6.90,6.90,6.93
73.64,14.15,14.18,7.27,7.31,-7.31,-7.34,-6.98,6.84,6.87,6.88
74.38,14.22,14.25,7.39,7.42,-7.38,-7.37,-6.96,6.84,6.87,6.83
75.12,14.33,14.29,7.55,7.51,-7.43,-7.40,-6.94,6.89,6.85,6.77
75.87,14.33,14.26,7.61,7.54,-7.47,-7.43,-6.93,6.86,6.80,6.72
76.63,14.15,14.19,7.48,7.52,-7.49,-7.46,-6.91,6.66,6.70,6.67
77.40,14.05,14.11,7.43,7.50,-7.49,-7.49,-6.90,6.56,6.62,6.61
78.17,14.05,14.02,7.49,7.46,-7.49,-7.52,-6.90,6.56,6.53,6.56
78.95,14.05,13.96,7.54,7.46,-7.49,-7.54,-6.89,6.55,6.46,6.50
79.74,13.83,13.91,7.38,7.46,-7.51,-7.57,-6.89,6.32,6.40,6.45
80.54,13.85,13.88,7.46,7.49,-7.55,-7.60,-6.90,6.30,6.33,6.39
81.35,13.93,13.89,7.60,7.56,-7.61,-7.63,-6.91,6.32,6.27,6.33
82.16,13.95,13.93,7.68,7.66,-7.68,-7.65,-6.92,6.27,6.25,6.27
82.98,13.95,13.96,7.74,7.76,-7.75,-7.68,-6.94,6.20,6.22,6.21
83.81,13.95,14.01,7.80,7.86,-7.80,-7.71,-6.96,6.15,6.21,6.15
84.65,14.07,14.03,7.99,7.95,-7.84,-7.73,-6.99,6.23,6.19,6.08
85.50,14.05,14.00,8.03,7.98,-7.87,-7.76,-7.02,6.18,6.13,6.02
86.35,13.89,13.88,7.93,7.93,-7.90,-7.78,-7.05,5.99,5.98,5.95
87.22,13.73,13.74,7.84,7.85,-7.94,-7.81,-7.10,5.79,5.80,5.89
88.09,13.58,13.67,7.76,7.85,-7.99,-7.84,-7.14,5.59,5.68,5.82
88.97,13.72,13.67,7.96,7.91,-8.03,-7.86,-7.20,5.69,5.63,5.76
89.86,13.75,13.72,8.06,8.03,-8.08,-7.89,-7.25,5.67,5.64,5.69
90.76,13.75,13.80,8.13,8.18,-8.12,-7.92,-7.32,5.63,5.69,5.62
91.66,13.83,13.84,8.28,8.29,-8.16,-7.94,-7.39,5.67,5.68,5.55
92.58,13.89,13.83,8.41,8.35,-8.20,-7.97,-7.46,5.69,5.63,5.48
93.51,13.77,13.74,8.36,8.33,-8.25,-8.00,-7.54,5.52,5.49,5.41
94.44,13.57,13.59,8.23,8.25,-8.30,-8.03,-7.62,5.27,5.29,5.34
95.39,13.43,13.48,8.16,8.21,-8.35,-8.05,-7.71,5.08,5.14,5.27
96.34,13.44,13.45,8.24,8.25,-8.39,-8.08,-7.80,5.05,5.06,5.20
97.30,13.54,13.48,8.41,8.35,-8.43,-8.11,-7.90,5.11,5.05,5.13
98.28,13.53,13.54,8.47,8.49,-8.46,-8.14,-8.00,5.07,5.08,5.06
99.26,13.55,13.60,8.56,8.62,-8.49,-8.17,-8.11,5.06,5.11,4.99
100.25,13.64,13.59,8.73,8.68,-8.53,-8.20,-8.22,5.11,5.06,4.91
101.25,13.59,13.52,8.75,8.67,-8.58,-8.23,-8.33,5.01,4.94,4.84
102.27,13.33,13.36,8.56,8.59,-8.62,-8.26,-8.45,4.71,4.75,4.77
103.29,13.17,13.21,8.47,8.51,-8.64,-8.29,-8.57,4.53,4.57,4.69
104.32,13.10,13.13,8.48,8.51,-8.66,-8.32,-8.69,4.44,4.47,4.62
105.37,13.18,13.15,8.63,8.60,-8.66,-8.35,-8.81,4.52,4.49,4.55
106.42,13.19,13.21,8.71,8.73,-8.67,-8.38,-8.94,4.52,4.54,4.48
107.48,13.24,13.21,8.84,8.80,-8.69,-8.41,-9.06,4.55,4.52,4.40
108.56,13.18,13.13,8.85,8.80,-8.72,-8.45,-9.18,4.46,4.40,4.33
109.64,12.97,13.02,8.71,8.77,-8.77,-8.48,-9.31,4.20,4.26,4.26
110.74,12.90,12.92,8.71,8.73,-8.80,-8.52,-9.43,4.09,4.11,4.18
111.85,12.88,12.87,8.77,8.75,-8.83,-8.55,-9.54,4.05,4.04,4.11
112.97,12.87,12.87,8.83,8.83,-8.84,-8.59,-9.66,4.03,4.03,4.04
114.10,12.87,12.86,8.90,8.90,-8.86,-8.62,-9.77,4.01,4.00,3.97
115.24,12.85,12.83,8.95,8.93,-8.89,-8.66,-9.87,3.96,3.94,3.90
116.39,12.78,12.78,8.95,8.95,-8.94,-8.69,-9.96,3.84,3.84,3.83
117.55,12.71,12.72,8.95,8.96,-8.99,-8.73,-10.05,3.72,3.73,3.76
118.73,12.67,12.69,8.98,9.00,-9.03,-8.77,-10.13,3.64,3.65,3.69
119.92,12.68,12.68,9.06,9.06,-9.07,-8.81,-10.19,3.61,3.60,3.62
121.12,12.69,12.67,9.14,9.13,-9.11,-8.84,-10.25,3.58,3.57,3.55
122.33,12.66,12.66,9.18,9.18,-9.15,-8.88,-10.30,3.51,3.51,3.48
123.55,12.62,12.62,9.21,9.20,-9.19,-8.92,-10.34,3.43,3.42,3.41
124.79,12.57,12.57,9.22,9.22,-9.24,-8.96,-10.35,3.33,3.33,3.35
126.03,12.52,12.54,9.24,9.26,-9.28,-9.00,-10.37,3.24,3.26,3.28
127.29,12.52,12.52,9.31,9.31,-9.31,-9.04,-10.36,3.21,3.21,3.21
128.57,12.53,12.50,9.38,9.36,-9.34,-9.08,-10.35,3.19,3.16,3.15
129.85,12.47,12.47,9.38,9.39,-9.37,-9.12,-10.32,3.09,3.10,3.09
131.15,12.43,12.42,9.41,9.40,-9.41,-9.16,-10.29,3.02,3.02,3.02
132.46,12.37,12.38,9.41,9.42,-9.44,-9.20,-10.25,2.93,2.95,2.96
133.79,12.35,12.36,9.45,9.46,-9.46,-9.24,-10.19,2.89,2.89,2.90
135.12,12.35,12.33,9.51,9.49,-9.49,-9.28,-10.13,2.86,2.84,2.84
136.48,12.30,12.30,9.52,9.52,-9.51,-9.32,-10.06,2.79,2.79,2.78
137.84,12.26,12.25,9.54,9.53,-9.54,-9.35,-9.98,2.72,2.72,2.72
139.22,12.20,12.21,9.54,9.54,-9.56,-9.39,-9.90,2.64,2.64,2.66
140.61,12.16,12.17,9.55,9.57,-9.58,-9.43,-9.82,2.58,2.59,2.61
142.02,12.16,12.15,9.61,9.60,-9.58,-9.46,-9.73,2.58,2.56,2.55
143.44,12.12,12.11,9.62,9.62,-9.58,-9.50,-9.64,2.54,2.53,2.50
144.87,12.07,12.07,9.63,9.63,-9.59,-9.53,-9.55,2.48,2.48,2.44
146.32,11.99,12.02,9.60,9.62,-9.60,-9.57,-9.46,2.39,2.42,2.39
147.78,11.96,11.92,9.61,9.57,-9.61,-9.60,-9.36,2.35,2.31,2.35
149.26,11.87,11.82,9.57,9.52,-9.61,-9.63,-9.27,2.26,2.21,2.30
150.75,11.70,11.82,9.45,9.57,-9.61,-9.66,-9.18,2.09,2.20,2.25
152.26,11.81,11.87,9.61,9.67,-9.62,-9.68,-9.10,2.19,2.24,2.20
153.78,12.02,11.87,9.87,9.71,-9.64,-9.71,-9.01,2.38,2.22,2.15
155.32,11.88,11.79,9.77,9.69,-9.66,-9.73,-8.94,2.22,2.13,2.11
156.88,11.55,11.70,9.49,9.64,-9.68,-9.76,-8.86,1.87,2.01,2.06
158.44,11.54,11.64,9.52,9.63,-9.70,-9.78,-8.79,1.84,1.94,2.02
160.03,11.79,11.68,9.82,9.72,-9.71,-9.80,-8.72,2.08,1.98,1.97
161.63,11.77,11.70,9.85,9.78,-9.71,-9.81,-8.66,2.06,2.00,1.92
163.24,11.63,11.61,9.75,9.73,-9.70,-9.83,-8.60,1.93,1.92,1.88
164.88,11.39,11.50,9.55,9.66,-9.68,-9.84,-8.55,1.70,1.81,1.84
166.53,11.42,11.44,9.62,9.64,-9.67,-9.85,-8.51,1.75,1.76,1.80
168.19,11.50,11.41,9.74,9.65,-9.66,-9.85,-8.47,1.84,1.75,1.76
169.87,11.38,11.39,9.66,9.67,-9.63,-9.86,-8.43,1.75,1.76,1.72
171.57,11.29,11.31,9.60,9.62,-9.60,-9.86,-8.41,1.69,1.70,1.69
173.29,11.22,11.21,9.57,9.56,-9.59,-9.86,-8.38,1.63,1.62,1.65
175.02,11.14,11.15,9.52,9.54,-9.57,-9.85,-8.37,1.57,1.58,1.62
176.77,11.11,11.12,9.53,9.54,-9.55,-9.85,-8.36,1.55,1.56,1.58
178.54,11.11,11.10,9.56,9.55,-9.53,-9.84,-8.36,1.58,1.56,1.55
180.32,11.08,11.07,9.56,9.55,-9.51,-9.83,-8.36,1.57,1.56,1.52
182.13,11.04,11.05,9.55,9.57,-9.51,-9.81,-8.37,1.53,1.55,1.49
183.95,10.98,10.96,9.52,9.50,-9.52,-9.79,-8.38,1.46,1.44,1.46
185.79,10.94,10.86,9.51,9.44,-9.53,-9.77,-8.41,1.41,1.34,1.43
187.65,10.70,10.86,9.30,9.46,-9.52,-9.75,-8.43,1.18,1.34,1.40
189.52,10.89,10.90,9.52,9.52,-9.52,-9.73,-8.46,1.37,1.38,1.37
191.42,11.06,10.91,9.71,9.56,-9.51,-9.70,-8.50,1.55,1.40,1.35
193.33,10.89,10.91,9.57,9.59,-9.49,-9.67,-8.54,1.39,1.41,1.32
195.27,10.74,10.80,9.44,9.51,-9.47,-9.64,-8.59,1.27,1.33,1.30
197.22,10.69,10.68,9.42,9.41,-9.44,-9.61,-8.65,1.24,1.24,1.27
199.19,10.65,10.63,9.40,9.38,-9.41,-9.57,-8.70,1.24,1.22,1.25
201.18,10.58,10.60,9.35,9.37,-9.36,-9.53,-8.77,1.22,1.23,1.22
203.19,10.53,10.52,9.33,9.32,-9.32,-9.49,-8.83,1.21,1.20,1.20
205.23,10.47,10.41,9.29,9.23,-9.28,-9.45,-8.90,1.19,1.13,1.18
207.28,10.30,10.37,9.14,9.21,-9.25,-9.41,-8.97,1.05,1.12,1.16
209.35,10.28,10.35,9.14,9.21,-9.22,-9.36,-9.05,1.06,1.13,1.14
211.44,10.46,10.34,9.34,9.21,-9.19,-9.31,-9.12,1.27,1.14,1.12
213.56,10.31,10.32,9.21,9.22,-9.16,-9.27,-9.20,1.15,1.16,1.10
215.69,10.21,10.24,9.13,9.16,-9.12,-9.22,-9.28,1.09,1.12,1.08
217.85,10.14,10.13,9.07,9.06,-9.09,-9.17,-9.36,1.05,1.04,1.07
220.03,10.06,10.07,9.01,9.02,-9.05,-9.11,-9.43,1.01,1.02,1.05
222.23,10.02,10.01,8.99,8.98,-9.00,-9.06,-9.51,1.02,1.02,1.03
224.45,9.95,9.96,8.93,8.94,-8.94,-9.01,-9.58,1.01,1.02,1.02
226.70,9.92,9.90,8.92,8.90,-8.88,-8.95,-9.64,1.04,1.02,1.00
228.96,9.83,9.83,8.84,8.84,-8.83,-8.90,-9.70,1.00,1.00,0.99
231.25,9.75,9.76,8.78,8.79,-8.79,-8.84,-9.76,0.96,0.97,0.97
233.57,9.70,9.69,8.74,8.74,-8.76,-8.79,-9.80,0.94,0.94,0.96
235.90,9.65,9.64,8.71,8.70,-8.73,-8.73,-9.84,0.92,0.91,0.93
238.26,9.59,9.58,8.67,8.66,-8.70,-8.67,-9.87,0.89,0.88,0.92
240.64,9.55,9.57,8.64,8.66,-8.67,-8.61,-9.89,0.88,0.90,0.91
243.05,9.53,9.59,8.63,8.69,-8.65,-8.56,-9.90,0.88,0.94,0.90
245.48,9.64,9.53,8.75,8.65,-8.63,-8.50,-9.89,1.01,0.91,0.88
247.93,9.53,9.49,8.66,8.62,-8.60,-8.44,-9.88,0.93,0.89,0.87
250.41,9.28,9.46,8.42,8.60,-8.58,-8.38,-9.85,0.70,0.88,0.86
252.92,9.48,9.36,8.63,8.51,-8.55,-8.32,-9.81,0.93,0.81,0.85
255.45,9.38,9.30,8.53,8.46,-8.50,-8.26,-9.75,0.88,0.80,0.85
258.00,9.16,9.32,8.32,8.48,-8.44,-8.21,-9.69,0.72,0.88,0.84
260.58,9.26,9.23,8.43,8.40,-8.38,-8.15,-9.61,0.88,0.85,0.83
263.19,9.32,9.17,8.50,8.35,-8.30,-8.09,-9.53,1.02,0.87,0.82
265.82,8.98,9.11,8.16,8.30,-8.24,-8.03,-9.43,0.74,0.88,0.81
268.48,8.99,8.93,8.18,8.12,-8.17,-7.97,-9.32,0.82,0.75,0.81
271.16,8.84,8.82,8.04,8.02,-8.10,-7.92,-9.21,0.73,0.71,0.80
273.87,8.65,8.81,7.86,8.02,-8.03,-7.86,-9.09,0.61,0.78,0.79
276.61,8.88,8.73,8.10,7.95,-7.97,-7.80,-8.95,0.91,0.77,0.78
279.38,8.75,8.69,7.97,7.92,-7.91,-7.75,-8.82,0.84,0.78,0.77
282.17,8.53,8.70,7.76,7.93,-7.86,-7.69,-8.68,0.67,0.84,0.77
284.99,8.64,8.58,7.87,7.81,-7.82,-7.63,-8.54,0.81,0.76,0.77
287.84,8.68,8.51,7.90,7.74,-7.79,-7.58,-8.39,0.89,0.72,0.77
290.72,8.30,8.51,7.53,7.74,-7.74,-7.52,-8.24,0.56,0.77,0.77
293.63,8.44,8.46,7.68,7.70,-7.68,-7.46,-8.10,0.76,0.78,0.76
296.57,8.57,8.40,7.80,7.64,-7.62,-7.41,-7.95,0.94,0.78,0.77
299.53,8.35,8.38,7.58,7.62,-7.56,-7.35,-7.80,0.78,0.82,0.77
302.53,8.20,8.27,7.44,7.50,-7.50,-7.30,-7.65,0.70,0.77,0.76
305.55,8.18,8.16,7.41,7.39,-7.44,-7.24,-7.51,0.74,0.72,0.77
308.61,8.13,8.12,7.37,7.35,-7.38,-7.18,-7.36,0.75,0.74,0.76
311.69,8.08,8.08,7.31,7.31,-7.31,-7.13,-7.22,0.77,0.77,0.77
314.81,8.02,8.02,7.26,7.25,-7.25,-7.07,-7.08,0.77,0.77,0.76
317.96,7.94,7.94,7.17,7.18,-7.18,-7.02,-6.94,0.76,0.76,0.77
321.14,7.89,7.86,7.12,7.09,-7.10,-6.96,-6.81,0.79,0.76,0.76
324.35,7.77,7.81,7.00,7.03,-7.02,-6.90,-6.68,0.75,0.78,0.77
327.59,7.74,7.77,6.95,6.99,-6.94,-6.85,-6.56,0.80,0.83,0.79
330.87,7.75,7.68,6.97,6.89,-6.85,-6.79,-6.44,0.90,0.82,0.78
334.18,7.60,7.55,6.81,6.76,-6.76,-6.73,-6.32,0.83,0.78,0.79
337.52,7.32,7.40,6.53,6.62,-6.68,-6.67,-6.21,0.64,0.73,0.78
340.90,7.28,7.31,6.49,6.52,-6.58,-6.61,-6.10,0.70,0.73,0.79
344.30,7.29,7.29,6.49,6.49,-6.49,-6.55,-5.99,0.80,0.80,0.80
347.75,7.33,7.25,6.52,6.44,-6.40,-6.49,-5.89,0.93,0.85,0.80
351.23,7.19,7.16,6.39,6.35,-6.31,-6.43,-5.80,0.87,0.84,0.80
354.74,6.95,7.09,6.13,6.27,-6.24,-6.37,-5.71,0.70,0.84,0.82
358.28,7.01,6.96,6.19,6.14,-6.18,-6.31,-5.62,0.83,0.78,0.82
361.87,7.00,6.88,6.18,6.06,-6.12,-6.24,-5.54,0.88,0.76,0.82
365.49,6.72,6.87,5.89,6.04,-6.05,-6.18,-5.46,0.67,0.82,0.83
369.14,6.81,6.83,5.98,6.00,-5.99,-6.11,-5.38,0.82,0.84,0.83
372.83,6.91,6.77,6.06,5.93,-5.93,-6.05,-5.31,0.98,0.85,0.84
376.56,6.73,6.75,5.89,5.90,-5.87,-5.98,-5.24,0.86,0.88,0.84
380.33,6.57,6.65,5.72,5.81,-5.80,-5.91,-5.18,0.76,0.85,0.85
384.13,6.60,6.56,5.75,5.71,-5.73,-5.84,-5.12,0.87,0.83,0.85
387.97,6.53,6.53,5.66,5.66,-5.65,-5.77,-5.07,0.88,0.88,0.87
391.85,6.46,6.47,5.58,5.59,-5.54,-5.69,-5.01,0.92,0.92,0.88
395.77,6.38,6.34,5.50,5.46,-5.44,-5.62,-4.96,0.94,0.91,0.88
399.73,6.20,6.22,5.31,5.33,-5.32,-5.55,-4.91,0.87,0.89,0.89
403.72,6.07,6.10,5.17,5.21,-5.21,-5.47,-4.87,0.86,0.89,0.90
407.76,6.00,5.99,5.10,5.09,-5.11,-5.39,-4.83,0.89,0.88,0.90
411.84,5.92,5.89,5.02,4.99,-5.02,-5.32,-4.79,0.90,0.88,0.90
415.96,5.79,5.80,4.88,4.90,-4.92,-5.24,-4.75,0.87,0.88,0.91
420.12,5.71,5.74,4.80,4.82,-4.84,-5.16,-4.71,0.87,0.89,0.91
424.32,5.69,5.68,4.77,4.76,-4.77,-5.07,-4.68,0.92,0.91,0.92
428.56,5.68,5.65,4.75,4.73,-4.70,-4.99,-4.64,0.97,0.95,0.93
432.85,5.59,5.64,4.65,4.70,-4.65,-4.91,-4.61,0.94,0.99,0.94
437.18,5.61,5.55,4.66,4.61,-4.59,-4.82,-4.57,1.02,0.96,0.94
441.55,5.52,5.47,4.57,4.52,-4.54,-4.74,-4.54,0.98,0.93,0.95
445.96,5.31,5.43,4.35,4.47,-4.49,-4.65,-4.51,0.82,0.94,0.96
450.42,5.42,5.39,4.44,4.41,-4.44,-4.56,-4.47,0.98,0.96,0.98
454.93,5.44,5.38,4.45,4.39,-4.39,-4.48,-4.43,1.05,0.99,0.99
459.48,5.35,5.36,4.35,4.36,-4.35,-4.39,-4.40,1.00,1.01,1.00
464.07,5.28,5.30,4.28,4.30,-4.32,-4.30,-4.35,0.96,0.98,1.00
468.71,5.24,5.26,4.23,4.26,-4.28,-4.21,-4.31,0.96,0.98,1.01
473.40,5.27,5.25,4.25,4.23,-4.23,-4.12,-4.27,1.04,1.02,1.01
478.13,5.25,5.24,4.23,4.22,-4.18,-4.02,-4.22,1.07,1.07,1.02
482.91,5.20,5.22,4.16,4.18,-4.12,-3.93,-4.17,1.08,1.10,1.04
487.74,5.17,5.14,4.12,4.08,-4.06,-3.84,-4.11,1.11,1.08,1.05
492.62,5.04,5.02,3.98,3.96,-3.99,-3.74,-4.05,1.04,1.03,1.06
497.55,4.90,4.93,3.83,3.86,-3.93,-3.65,-3.99,0.97,1.01,1.07
502.52,4.83,4.89,3.75,3.80,-3.85,-3.56,-3.92,0.98,1.03,1.08
