frequency,raw,error,smoothed,error_smoothed,equalization,parametric_eq,equalized_raw,equalized_smoothed,target
20,-3.83,-6.49,-3.82,-6.45,6.48,1.79,2.65,2.67,2.65
21,-3.55,-6.20,-3.52,-6.16,6.17,2.07,2.62,2.65,2.65
22,-3.25,-5.90,-3.23,-5.87,5.88,2.38,2.63,2.65,2.65
23,-2.94,-5.59,-2.96,-5.59,5.60,2.71,2.66,2.64,2.65
24,-2.66,-5.31,-2.69,-5.33,5.33,3.06,2.67,2.64,2.64
25,-2.41,-5.05,-2.43,-5.07,5.07,3.42,2.66,2.64,2.64
26,-2.16,-4.80,-2.19,-4.82,4.82,3.77,2.66,2.64,2.64
27,-1.93,-4.57,-1.95,-4.59,4.59,4.10,2.66,2.63,2.63
28,-1.71,-4.34,-1.73,-4.36,4.36,4.39,2.65,2.63,2.63
29,-1.51,-4.14,-1.52,-4.15,4.15,4.61,2.63,2.63,2.63
30,-1.32,-3.94,-1.32,-3.94,3.94,4.76,2.62,2.62,2.62
31,-1.13,-3.75,-1.13,-3.75,3.75,4.81,2.61,2.62,2.62
32,-0.96,-3.57,-0.96,-3.57,3.57,4.79,2.60,2.61,2.61
33,-0.79,-3.40,-0.79,-3.39,3.39,4.68,2.60,2.60,2.60
34,-0.63,-3.23,-0.63,-3.23,3.23,4.51,2.60,2.59,2.60
35,-0.48,-3.07,-0.49,-3.07,3.07,4.30,2.59,2.59,2.59
36,-0.35,-2.93,-0.35,-2.92,2.92,4.07,2.57,2.58,2.58
37,-0.22,-2.79,-0.21,-2.78,2.78,3.82,2.56,2.57,2.57
38,-0.08,-2.65,-0.08,-2.64,2.64,3.56,2.56,2.56,2.56
39,0.04,-2.52,0.04,-2.51,2.51,3.31,2.55,2.55,2.55
40,0.16,-2.38,0.15,-2.39,2.39,3.07,2.55,2.54,2.54
41,0.26,-2.27,0.26,-2.27,2.27,2.85,2.53,2.53,2.53
42,0.37,-2.15,0.37,-2.15,2.15,2.63,2.52,2.52,2.52
43,0.47,-2.04,0.47,-2.04,2.04,2.43,2.51,2.50,2.51
44,0.56,-1.93,0.56,-1.93,1.93,2.24,2.49,2.49,2.49
45,0.66,-1.82,0.65,-1.83,1.83,2.06,2.48,2.48,2.48
46,0.73,-1.73,0.74,-1.73,1.73,1.90,2.45,2.46,2.46
47,0.82,-1.63,0.82,-1.63,1.63,1.75,2.45,2.45,2.45
48,0.90,-1.53,0.89,-1.53,1.53,1.61,2.43,2.43,2.43
49,0.97,-1.44,0.97,-1.44,1.44,1.47,2.41,2.41,2.41
50,1.03,-1.36,1.04,-1.35,1.35,1.35,2.38,2.39,2.39
51,1.10,-1.27,1.10,-1.27,1.27,1.23,2.37,2.37,2.37
52,1.17,-1.18,1.17,-1.18,1.18,1.12,2.35,2.35,2.35
53,1.23,-1.10,1.23,-1.10,1.10,1.02,2.33,2.33,2.33
54,1.28,-1.03,1.28,-1.02,1.02,0.93,2.30,2.30,2.31
55,1.35,-0.94,1.34,-0.94,0.94,0.83,2.29,2.28,2.28
56,1.40,-0.86,1.39,-0.87,0.87,0.75,2.27,2.26,2.26
57,1.44,-0.80,1.44,-0.79,0.79,0.67,2.23,2.23,2.23
58,1.49,-0.72,1.49,-0.72,0.72,0.59,2.21,2.21,2.21
59,1.53,-0.65,1.53,-0.65,0.65,0.51,2.17,2.18,2.18
60,1.57,-0.59,1.58,-0.58,0.58,0.44,2.14,2.15,2.15
61,1.62,-0.51,1.62,-0.51,0.51,0.38,2.12,2.12,2.12
62,1.66,-0.44,1.66,-0.44,0.44,0.31,2.09,2.09,2.09
63,1.70,-0.37,1.69,-0.37,0.37,0.25,2.07,2.06,2.06
64,1.75,-0.28,1.73,-0.30,0.30,0.19,2.05,2.03,2.03
65,1.76,-0.24,1.76,-0.23,0.23,0.13,1.99,2.00,2.00
66,1.79,-0.18,1.80,-0.17,0.17,0.08,1.95,1.97,1.97
67,1.83,-0.11,1.83,-0.10,0.10,0.03,1.93,1.93,1.93
68,1.87,-0.03,1.86,-0.04,0.04,-0.03,1.90,1.90,1.90
69,1.88,0.01,1.89,0.03,-0.03,-0.08,1.85,1.86,1.86
70,1.92,0.09,1.92,0.09,-0.09,-0.13,1.83,1.83,1.83
71,1.96,0.17,1.94,0.16,-0.16,-0.18,1.80,1.79,1.79
72,1.96,0.20,1.97,0.22,-0.22,-0.23,1.74,1.75,1.75
73,2.01,0.29,1.99,0.28,-0.28,-0.28,1.73,1.71,1.72
74,2.01,0.33,2.02,0.34,-0.34,-0.33,1.67,1.68,1.68
75,2.05,0.41,2.04,0.40,-0.40,-0.37,1.65,1.64,1.64
76,2.05,0.45,2.06,0.46,-0.46,-0.42,1.59,1.60,1.60
77,2.09,0.53,2.08,0.52,-0.52,-0.47,1.57,1.56,1.56
78,2.09,0.57,2.09,0.57,-0.57,-0.52,1.51,1.52,1.52
79,2.09,0.61,2.11,0.63,-0.63,-0.57,1.46,1.48,1.48
80,2.14,0.70,2.12,0.68,-0.68,-0.62,1.46,1.44,1.44
81,2.14,0.74,2.13,0.74,-0.74,-0.66,1.40,1.40,1.40
82,2.14,0.78,2.14,0.79,-0.79,-0.71,1.35,1.35,1.36
83,2.14,0.82,2.15,0.84,-0.84,-0.76,1.30,1.31,1.31
84,2.18,0.90,2.16,0.89,-0.89,-0.81,1.29,1.27,1.27
85,2.18,0.95,2.17,0.94,-0.94,-0.87,1.24,1.23,1.23
86,2.18,0.99,2.18,0.99,-0.99,-0.92,1.19,1.19,1.19
87,2.18,1.03,2.18,1.04,-1.04,-0.97,1.14,1.15,1.15
88,2.18,1.07,2.19,1.09,-1.09,-1.02,1.09,1.11,1.11
89,2.18,1.11,2.20,1.13,-1.13,-1.07,1.05,1.06,1.07
90,2.20,1.17,2.20,1.18,-1.18,-1.13,1.02,1.02,1.02
91,2.22,1.24,2.21,1.22,-1.22,-1.18,0.99,0.98,0.98
92,2.22,1.28,2.21,1.27,-1.27,-1.23,0.95,0.94,0.94
93,2.22,1.32,2.21,1.31,-1.31,-1.29,0.91,0.90,0.90
94,2.22,1.36,2.21,1.36,-1.36,-1.34,0.86,0.86,0.86
95,2.22,1.40,2.22,1.40,-1.40,-1.40,0.82,0.82,0.82
96,2.22,1.44,2.22,1.44,-1.44,-1.45,0.78,0.78,0.78
97,2.22,1.48,2.22,1.48,-1.48,-1.51,0.73,0.74,0.74
98,2.22,1.52,2.22,1.53,-1.53,-1.57,0.69,0.70,0.70
99,2.22,1.56,2.22,1.57,-1.57,-1.62,0.65,0.65,0.66
100,2.22,1.60,2.22,1.61,-1.61,-1.68,0.61,0.61,0.62
101,2.22,1.63,2.22,1.65,-1.65,-1.73,0.57,0.57,0.58
102,2.22,1.67,2.22,1.69,-1.69,-1.79,0.53,0.53,0.55
104,2.22,1.75,2.22,1.73,-1.73,-1.90,0.49,0.49,0.47
105,2.22,1.78,2.22,1.77,-1.77,-1.95,0.45,0.45,0.44
106,2.22,1.82,2.22,1.81,-1.81,-2.00,0.41,0.41,0.40
107,2.22,1.85,2.22,1.85,-1.85,-2.06,0.37,0.37,0.36
108,2.22,1.89,2.22,1.88,-1.88,-2.11,0.33,0.33,0.33
109,2.22,1.92,2.22,1.92,-1.92,-2.16,0.30,0.30,0.30
110,2.22,1.96,2.22,1.96,-1.96,-2.20,0.26,0.26,0.26
111,2.22,1.99,2.22,1.99,-1.99,-2.25,0.23,0.22,0.23
112,2.22,2.02,2.21,2.03,-2.03,-2.30,0.19,0.19,0.20
113,2.22,2.05,2.21,2.06,-2.06,-2.34,0.16,0.15,0.16
114,2.22,2.09,2.21,2.10,-2.10,-2.38,0.12,0.12,0.13
115,2.22,2.12,2.22,2.13,-2.13,-2.42,0.09,0.09,0.10
117,2.22,2.18,2.22,2.17,-2.17,-2.50,0.05,0.05,0.04
118,2.22,2.21,2.22,2.21,-2.21,-2.53,0.01,0.02,0.01
119,2.22,2.24,2.23,2.24,-2.24,-2.56,-0.03,-0.02,-0.02
120,2.22,2.26,2.23,2.28,-2.28,-2.59,-0.06,-0.05,-0.05
121,2.22,2.29,2.24,2.32,-2.32,-2.62,-0.10,-0.09,-0.07
123,2.25,2.38,2.24,2.36,-2.36,-2.67,-0.11,-0.12,-0.13
124,2.27,2.42,2.25,2.40,-2.40,-2.69,-0.13,-0.15,-0.15
125,2.27,2.45,2.26,2.44,-2.44,-2.71,-0.17,-0.18,-0.18
126,2.27,2.47,2.26,2.48,-2.48,-2.72,-0.21,-0.22,-0.21
128,2.27,2.52,2.27,2.52,-2.52,-2.75,-0.25,-0.24,-0.25
129,2.27,2.55,2.28,2.56,-2.56,-2.76,-0.29,-0.27,-0.28
130,2.30,2.60,2.29,2.60,-2.60,-2.77,-0.30,-0.30,-0.30
131,2.31,2.63,2.30,2.63,-2.63,-2.78,-0.33,-0.33,-0.32
133,2.31,2.67,2.31,2.67,-2.67,-2.79,-0.36,-0.36,-0.37
134,2.31,2.70,2.32,2.71,-2.71,-2.79,-0.40,-0.39,-0.39
135,2.33,2.74,2.33,2.74,-2.74,-2.79,-0.42,-0.42,-0.41
137,2.35,2.80,2.33,2.78,-2.78,-2.79,-0.43,-0.44,-0.45
138,2.35,2.81,2.34,2.81,-2.81,-2.79,-0.47,-0.47,-0.47
140,2.35,2.85,2.35,2.85,-2.85,-2.79,-0.50,-0.50,-0.50
141,2.35,2.87,2.36,2.88,-2.88,-2.79,-0.53,-0.52,-0.52
142,2.35,2.89,2.37,2.92,-2.92,-2.78,-0.57,-0.55,-0.54
144,2.40,2.97,2.38,2.95,-2.95,-2.78,-0.55,-0.57,-0.57
145,2.40,2.99,2.39,2.98,-2.98,-2.77,-0.58,-0.60,-0.59
147,2.40,3.02,2.40,3.01,-3.01,-2.77,-0.62,-0.62,-0.62
148,2.40,3.03,2.40,3.04,-3.04,-2.76,-0.65,-0.64,-0.64
150,2.40,3.06,2.41,3.07,-3.07,-2.76,-0.68,-0.67,-0.67
151,2.42,3.10,2.42,3.10,-3.10,-2.75,-0.69,-0.69,-0.68
153,2.44,3.15,2.43,3.13,-3.13,-2.75,-0.69,-0.70,-0.71
154,2.44,3.16,2.44,3.16,-3.16,-2.75,-0.72,-0.72,-0.72
156,2.44,3.18,2.44,3.19,-3.19,-2.75,-0.75,-0.74,-0.75
157,2.44,3.20,2.45,3.21,-3.21,-2.75,-0.77,-0.76,-0.76
159,2.44,3.22,2.45,3.23,-3.23,-2.75,-0.79,-0.78,-0.78
160,2.46,3.25,2.45,3.25,-3.25,-2.75,-0.79,-0.80,-0.79
162,2.46,3.27,2.45,3.27,-3.27,-2.76,-0.81,-0.82,-0.82
164,2.48,3.31,2.46,3.29,-3.29,-2.76,-0.81,-0.83,-0.84
165,2.48,3.32,2.45,3.31,-3.31,-2.77,-0.83,-0.85,-0.85
167,2.46,3.32,2.45,3.32,-3.32,-2.78,-0.86,-0.87,-0.87
169,2.44,3.32,2.45,3.34,-3.34,-2.80,-0.90,-0.89,-0.89
170,2.44,3.33,2.45,3.35,-3.35,-2.81,-0.91,-0.90,-0.89
172,2.44,3.35,2.45,3.36,-3.36,-2.83,-0.93,-0.92,-0.91
174,2.44,3.37,2.45,3.38,-3.38,-2.85,-0.94,-0.93,-0.93
175,2.44,3.37,2.45,3.39,-3.39,-2.86,-0.95,-0.94,-0.94
177,2.44,3.39,2.45,3.41,-3.41,-2.89,-0.97,-0.96,-0.95
179,2.44,3.40,2.45,3.42,-3.42,-2.92,-0.98,-0.97,-0.97
181,2.45,3.43,2.45,3.44,-3.44,-2.95,-0.99,-0.98,-0.98
183,2.47,3.46,2.46,3.45,-3.45,-2.99,-0.99,-1.00,-0.99
184,2.48,3.48,2.46,3.47,-3.47,-3.01,-0.99,-1.01,-1.00
186,2.48,3.49,2.47,3.48,-3.48,-3.04,-1.01,-1.02,-1.01
188,2.48,3.50,2.47,3.50,-3.50,-3.08,-1.02,-1.03,-1.03
190,2.48,3.52,2.48,3.51,-3.51,-3.13,-1.03,-1.04,-1.04
192,2.48,3.53,2.48,3.53,-3.53,-3.17,-1.05,-1.05,-1.05
194,2.48,3.54,2.48,3.54,-3.54,-3.22,-1.06,-1.06,-1.06
196,2.48,3.55,2.48,3.55,-3.55,-3.26,-1.07,-1.07,-1.07
198,2.48,3.56,2.48,3.56,-3.56,-3.31,-1.08,-1.08,-1.08
200,2.48,3.57,2.48,3.57,-3.57,-3.36,-1.09,-1.09,-1.09
202,2.48,3.57,2.48,3.58,-3.58,-3.41,-1.10,-1.10,-1.10
204,2.48,3.58,2.48,3.59,-3.59,-3.46,-1.11,-1.11,-1.11
206,2.48,3.59,2.48,3.59,-3.59,-3.51,-1.12,-1.12,-1.11
208,2.48,3.60,2.48,3.60,-3.60,-3.56,-1.13,-1.13,-1.12
210,2.48,3.61,2.48,3.61,-3.61,-3.61,-1.13,-1.13,-1.13
212,2.48,3.61,2.48,3.62,-3.62,-3.65,-1.14,-1.14,-1.14
214,2.48,3.62,2.48,3.63,-3.63,-3.70,-1.15,-1.15,-1.14
216,2.48,3.63,2.48,3.63,-3.63,-3.75,-1.16,-1.15,-1.15
218,2.48,3.64,2.48,3.64,-3.64,-3.79,-1.16,-1.16,-1.16
221,2.48,3.65,2.48,3.64,-3.64,-3.85,-1.17,-1.17,-1.17
223,2.48,3.65,2.47,3.65,-3.65,-3.89,-1.17,-1.17,-1.17
225,2.48,3.65,2.47,3.65,-3.65,-3.93,-1.17,-1.17,-1.17
227,2.48,3.65,2.47,3.65,-3.65,-3.96,-1.17,-1.18,-1.18
229,2.48,3.65,2.46,3.64,-3.64,-3.99,-1.16,-1.18,-1.18
232,2.46,3.63,2.46,3.64,-3.64,-4.03,-1.18,-1.17,-1.18
234,2.44,3.61,2.46,3.63,-3.63,-4.05,-1.19,-1.17,-1.17
236,2.44,3.61,2.45,3.62,-3.62,-4.06,-1.18,-1.17,-1.17
239,2.44,3.60,2.44,3.60,-3.60,-4.08,-1.17,-1.16,-1.16
241,2.44,3.59,2.43,3.59,-3.59,-4.09,-1.15,-1.15,-1.15
244,2.44,3.58,2.43,3.57,-3.57,-4.09,-1.13,-1.15,-1.14
246,2.42,3.55,2.41,3.55,-3.55,-4.09,-1.13,-1.14,-1.13
248,2.40,3.52,2.40,3.53,-3.53,-4.08,-1.13,-1.13,-1.12
251,2.40,3.51,2.39,3.51,-3.51,-4.06,-1.11,-1.12,-1.11
253,2.40,3.50,2.38,3.49,-3.49,-4.04,-1.09,-1.11,-1.10
256,2.35,3.44,2.37,3.46,-3.46,-4.01,-1.11,-1.09,-1.09
259,2.35,3.43,2.35,3.43,-3.43,-3.96,-1.09,-1.08,-1.08
261,2.34,3.41,2.33,3.41,-3.41,-3.93,-1.07,-1.07,-1.07
264,2.31,3.37,2.31,3.38,-3.38,-3.87,-1.07,-1.06,-1.06
266,2.31,3.36,2.29,3.35,-3.35,-3.83,-1.04,-1.05,-1.05
269,2.27,3.31,2.28,3.31,-3.31,-3.77,-1.05,-1.04,-1.04
272,2.27,3.29,2.26,3.28,-3.28,-3.70,-1.01,-1.02,-1.03
274,2.23,3.24,2.24,3.25,-3.25,-3.65,-1.02,-1.01,-1.01
277,2.22,3.22,2.22,3.21,-3.21,-3.57,-1.00,-1.00,-1.00
280,2.18,3.16,2.20,3.18,-3.18,-3.48,-1.00,-0.98,-0.98
283,2.18,3.14,2.18,3.14,-3.14,-3.40,-0.96,-0.96,-0.96
286,2.14,3.08,2.16,3.10,-3.10,-3.31,-0.96,-0.94,-0.94
288,2.14,3.06,2.13,3.06,-3.06,-3.25,-0.92,-0.92,-0.92
291,2.13,3.03,2.11,3.01,-3.01,-3.16,-0.88,-0.90,-0.90
294,2.09,2.97,2.08,2.96,-2.96,-3.07,-0.88,-0.88,-0.88
297,2.05,2.90,2.05,2.92,-2.92,-2.97,-0.87,-0.86,-0.86
300,2.04,2.87,2.02,2.87,-2.87,-2.88,-0.83,-0.84,-0.84
303,2.01,2.82,1.99,2.81,-2.81,-2.79,-0.81,-0.82,-0.82
306,1.96,2.75,1.96,2.76,-2.76,-2.69,-0.80,-0.80,-0.80
309,1.93,2.71,1.92,2.70,-2.70,-2.60,-0.77,-0.78,-0.78
312,1.88,2.64,1.88,2.64,-2.64,-2.51,-0.76,-0.76,-0.76
316,1.81,2.55,1.84,2.58,-2.58,-2.39,-0.77,-0.74,-0.74
319,1.79,2.51,1.79,2.52,-2.52,-2.30,-0.73,-0.72,-0.73
322,1.74,2.44,1.75,2.45,-2.45,-2.21,-0.71,-0.70,-0.71
325,1.71,2.40,1.70,2.38,-2.38,-2.13,-0.67,-0.68,-0.69
328,1.66,2.33,1.64,2.31,-2.31,-2.04,-0.65,-0.66,-0.67
332,1.61,2.25,1.59,2.24,-2.24,-1.93,-0.63,-0.65,-0.65
335,1.56,2.18,1.54,2.17,-2.17,-1.85,-0.61,-0.63,-0.63
338,1.51,2.11,1.49,2.09,-2.09,-1.77,-0.59,-0.61,-0.60
342,1.43,2.01,1.43,2.02,-2.02,-1.67,-0.59,-0.59,-0.58
345,1.38,1.93,1.39,1.95,-1.95,-1.59,-0.58,-0.57,-0.56
349,1.31,1.84,1.34,1.89,-1.89,-1.49,-0.58,-0.55,-0.54
352,1.28,1.79,1.29,1.82,-1.82,-1.42,-0.55,-0.53,-0.51
356,1.23,1.72,1.25,1.77,-1.77,-1.32,-0.54,-0.51,-0.49
359,1.20,1.67,1.22,1.71,-1.71,-1.25,-0.51,-0.49,-0.48
363,1.18,1.64,1.19,1.66,-1.66,-1.16,-0.48,-0.47,-0.46
366,1.14,1.58,1.16,1.61,-1.61,-1.09,-0.47,-0.46,-0.45
370,1.14,1.57,1.13,1.57,-1.57,-1.01,-0.43,-0.44,-0.43
374,1.11,1.53,1.10,1.53,-1.53,-0.92,-0.42,-0.42,-0.42
377,1.10,1.50,1.08,1.48,-1.48,-0.86,-0.39,-0.41,-0.41
381,1.06,1.45,1.05,1.44,-1.44,-0.78,-0.39,-0.39,-0.39
385,1.05,1.43,1.02,1.40,-1.40,-0.70,-0.35,-0.38,-0.38
389,1.00,1.37,0.99,1.36,-1.36,-0.62,-0.36,-0.37,-0.37
393,0.96,1.32,0.96,1.31,-1.31,-0.54,-0.36,-0.36,-0.36
397,0.91,1.26,0.92,1.27,-1.27,-0.47,-0.36,-0.35,-0.35
401,0.86,1.20,0.87,1.22,-1.22,-0.40,-0.36,-0.34,-0.34
405,0.82,1.15,0.82,1.16,-1.16,-0.33,-0.34,-0.34,-0.34
409,0.77,1.10,0.77,1.10,-1.10,-0.26,-0.34,-0.33,-0.33
413,0.73,1.05,0.71,1.04,-1.04,-0.19,-0.31,-0.33,-0.33
417,0.67,0.99,0.65,0.98,-0.98,-0.13,-0.31,-0.32,-0.32
421,0.61,0.93,0.59,0.91,-0.91,-0.07,-0.30,-0.32,-0.32
425,0.54,0.85,0.52,0.84,-0.84,-0.01,-0.30,-0.31,-0.31
430,0.46,0.77,0.46,0.77,-0.77,0.07,-0.31,-0.31,-0.31
434,0.39,0.69,0.39,0.69,-0.69,0.13,-0.30,-0.30,-0.30
438,0.32,0.61,0.32,0.62,-0.62,0.18,-0.30,-0.29,-0.30
443,0.24,0.53,0.25,0.54,-0.54,0.25,-0.30,-0.29,-0.29
447,0.17,0.45,0.18,0.46,-0.46,0.30,-0.29,-0.28,-0.28
451,0.12,0.38,0.12,0.39,-0.39,0.35,-0.27,-0.27,-0.27
456,0.04,0.29,0.05,0.31,-0.31,0.41,-0.27,-0.26,-0.25
460,-0.01,0.23,-0.01,0.24,-0.24,0.45,-0.25,-0.24,-0.24
465,-0.07,0.15,-0.07,0.16,-0.16,0.50,-0.24,-0.23,-0.22
470,-0.13,0.08,-0.12,0.10,-0.10,0.55,-0.23,-0.22,-0.21
474,-0.18,0.01,-0.18,0.03,-0.03,0.59,-0.21,-0.20,-0.19
479,-0.22,-0.04,-0.23,-0.04,0.04,0.63,-0.18,-0.19,-0.18
484,-0.27,-0.10,-0.28,-0.10,0.10,0.68,-0.17,-0.17,-0.17
489,-0.32,-0.17,-0.33,-0.17,0.17,0.71,-0.15,-0.16,-0.15
494,-0.37,-0.23,-0.38,-0.23,0.23,0.75,-0.14,-0.14,-0.14
499,-0.41,-0.28,-0.43,-0.30,0.30,0.78,-0.12,-0.13,-0.13
504,-0.47,-0.36,-0.48,-0.36,0.36,0.81,-0.11,-0.11,-0.11
509,-0.53,-0.43,-0.52,-0.43,0.43,0.84,-0.11,-0.10,-0.10
514,-0.57,-0.49,-0.57,-0.49,0.49,0.87,-0.08,-0.08,-0.08
519,-0.61,-0.55,-0.62,-0.56,0.56,0.89,-0.05,-0.06,-0.07
524,-0.66,-0.61,-0.67,-0.63,0.63,0.91,-0.03,-0.04,-0.05
529,-0.74,-0.72,-0.72,-0.70,0.70,0.93,-0.04,-0.02,-0.03
535,-0.79,-0.79,-0.77,-0.77,0.77,0.95,-0.02,-0.00,-0.00
540,-0.83,-0.85,-0.82,-0.84,0.84,0.96,0.01,0.02,0.02
545,-0.87,-0.91,-0.87,-0.91,0.91,0.97,0.04,0.04,0.04
551,-0.92,-0.99,-0.92,-0.99,0.99,0.99,0.07,0.06,0.07
556,-0.96,-1.05,-0.97,-1.06,1.06,1.00,0.10,0.09,0.09
562,-1.02,-1.14,-1.03,-1.14,1.14,1.01,0.12,0.11,0.11
568,-1.09,-1.23,-1.08,-1.22,1.22,1.02,0.13,0.14,0.14
573,-1.13,-1.29,-1.14,-1.30,1.30,1.03,0.17,0.16,0.16
579,-1.19,-1.37,-1.20,-1.38,1.38,1.04,0.19,0.18,0.18
585,-1.26,-1.46,-1.27,-1.46,1.46,1.04,0.20,0.20,0.20
591,-1.32,-1.54,-1.33,-1.55,1.55,1.05,0.22,0.21,0.22
596,-1.39,-1.62,-1.40,-1.63,1.63,1.06,0.24,0.23,0.23
602,-1.46,-1.71,-1.47,-1.72,1.72,1.06,0.25,0.24,0.25
608,-1.52,-1.78,-1.55,-1.80,1.80,1.07,0.28,0.26,0.26
615,-1.64,-1.91,-1.62,-1.89,1.89,1.08,0.25,0.27,0.27
621,-1.70,-1.99,-1.69,-1.98,1.98,1.08,0.27,0.29,0.29
627,-1.78,-2.08,-1.76,-2.06,2.06,1.09,0.28,0.30,0.30
633,-1.83,-2.15,-1.83,-2.14,2.14,1.10,0.31,0.32,0.31
639,-1.89,-2.22,-1.90,-2.23,2.23,1.11,0.33,0.33,0.33
646,-1.96,-2.31,-1.96,-2.30,2.30,1.12,0.34,0.34,0.34
652,-2.01,-2.37,-2.03,-2.38,2.38,1.13,0.37,0.35,0.36
659,-2.08,-2.46,-2.09,-2.45,2.45,1.14,0.37,0.37,0.37
665,-2.13,-2.52,-2.14,-2.52,2.52,1.15,0.39,0.38,0.39
672,-2.18,-2.58,-2.19,-2.59,2.59,1.16,0.40,0.39,0.40
679,-2.26,-2.68,-2.24,-2.65,2.65,1.18,0.38,0.41,0.41
686,-2.30,-2.73,-2.29,-2.70,2.70,1.19,0.40,0.42,0.43
692,-2.35,-2.79,-2.33,-2.75,2.75,1.21,0.40,0.43,0.44
699,-2.37,-2.81,-2.37,-2.80,2.80,1.23,0.43,0.44,0.44
706,-2.41,-2.86,-2.40,-2.85,2.85,1.24,0.43,0.44,0.45
713,-2.41,-2.87,-2.43,-2.89,2.89,1.26,0.47,0.45,0.45
721,-2.44,-2.90,-2.47,-2.92,2.92,1.28,0.48,0.46,0.46
728,-2.47,-2.93,-2.49,-2.96,2.96,1.31,0.48,0.46,0.46
735,-2.50,-2.97,-2.51,-2.98,2.98,1.33,0.48,0.47,0.47
742,-2.52,-2.99,-2.53,-3.01,3.01,1.35,0.49,0.48,0.47
750,-2.54,-3.02,-2.54,-3.03,3.03,1.38,0.49,0.49,0.48
757,-2.54,-3.03,-2.55,-3.04,3.04,1.40,0.50,0.49,0.49
765,-2.56,-3.05,-2.55,-3.05,3.05,1.43,0.49,0.49,0.49
773,-2.56,-3.06,-2.55,-3.05,3.05,1.45,0.49,0.50,0.50
780,-2.54,-3.05,-2.53,-3.04,3.04,1.48,0.50,0.50,0.51
788,-2.53,-3.05,-2.51,-3.02,3.02,1.51,0.49,0.51,0.52
796,-2.48,-3.01,-2.47,-2.99,2.99,1.54,0.51,0.52,0.53
804,-2.43,-2.97,-2.42,-2.94,2.94,1.57,0.51,0.52,0.54
812,-2.36,-2.91,-2.36,-2.89,2.89,1.60,0.53,0.53,0.55
820,-2.28,-2.84,-2.29,-2.82,2.82,1.62,0.54,0.53,0.56
828,-2.23,-2.79,-2.20,-2.74,2.74,1.65,0.51,0.54,0.56
837,-2.11,-2.68,-2.10,-2.65,2.65,1.68,0.53,0.54,0.56
845,-1.99,-2.56,-1.99,-2.54,2.54,1.71,0.55,0.55,0.57
853,-1.89,-2.46,-1.88,-2.43,2.43,1.74,0.54,0.55,0.57
862,-1.76,-2.33,-1.75,-2.31,2.31,1.77,0.54,0.55,0.56
871,-1.61,-2.17,-1.62,-2.18,2.18,1.79,0.56,0.56,0.56
879,-1.48,-2.04,-1.49,-2.04,2.04,1.81,0.56,0.56,0.56
888,-1.35,-1.91,-1.35,-1.91,1.91,1.84,0.56,0.56,0.56
897,-1.20,-1.76,-1.21,-1.77,1.77,1.86,0.57,0.56,0.56
906,-1.06,-1.62,-1.07,-1.64,1.64,1.88,0.57,0.57,0.56
915,-0.93,-1.50,-0.93,-1.51,1.51,1.89,0.57,0.57,0.56
924,-0.79,-1.36,-0.80,-1.38,1.38,1.91,0.59,0.58,0.57
933,-0.68,-1.26,-0.68,-1.26,1.26,1.92,0.58,0.58,0.57
943,-0.54,-1.13,-0.56,-1.15,1.15,1.92,0.61,0.60,0.58
952,-0.43,-1.03,-0.45,-1.05,1.05,1.93,0.62,0.61,0.59
962,-0.32,-0.93,-0.34,-0.96,0.96,1.93,0.64,0.62,0.61
971,-0.23,-0.85,-0.25,-0.88,0.88,1.92,0.65,0.63,0.62
981,-0.16,-0.80,-0.16,-0.81,0.81,1.91,0.65,0.65,0.64
991,-0.07,-0.73,-0.08,-0.75,0.75,1.90,0.68,0.66,0.66
1001,0.01,-0.67,-0.01,-0.69,0.69,1.89,0.70,0.68,0.68
1011,0.08,-0.63,0.06,-0.65,0.65,1.87,0.72,0.71,0.71
1021,0.12,-0.61,0.12,-0.60,0.60,1.84,0.72,0.73,0.73
1031,0.17,-0.59,0.19,-0.57,0.57,1.81,0.73,0.75,0.76
1041,0.21,-0.58,0.25,-0.53,0.53,1.78,0.74,0.78,0.78
1052,0.29,-0.52,0.30,-0.50,0.50,1.75,0.79,0.80,0.81
1062,0.36,-0.48,0.36,-0.47,0.47,1.71,0.83,0.83,0.84
1073,0.43,-0.44,0.42,-0.44,0.44,1.66,0.86,0.86,0.87
1084,0.50,-0.40,0.48,-0.41,0.41,1.61,0.90,0.89,0.89
1094,0.55,-0.38,0.54,-0.37,0.37,1.57,0.92,0.92,0.93
1105,0.61,-0.35,0.61,-0.34,0.34,1.51,0.95,0.95,0.96
1116,0.67,-0.32,0.67,-0.31,0.31,1.46,0.97,0.98,0.99
1128,0.74,-0.28,0.74,-0.27,0.27,1.39,1.01,1.02,1.02
1139,0.81,-0.24,0.81,-0.24,0.24,1.33,1.05,1.05,1.05
1150,0.88,-0.21,0.88,-0.20,0.20,1.27,1.08,1.09,1.09
1162,0.95,-0.18,0.96,-0.17,0.17,1.20,1.12,1.12,1.12
1173,1.02,-0.14,1.03,-0.13,0.13,1.14,1.15,1.16,1.16
1185,1.10,-0.11,1.10,-0.10,0.10,1.07,1.20,1.20,1.20
1197,1.16,-0.09,1.17,-0.07,0.07,0.99,1.23,1.25,1.25
1209,1.26,-0.03,1.25,-0.05,0.05,0.92,1.31,1.29,1.29
1221,1.32,-0.02,1.32,-0.02,0.02,0.85,1.34,1.34,1.34
1233,1.41,0.02,1.39,-0.01,0.01,0.77,1.41,1.40,1.39
1246,1.47,0.03,1.46,0.01,-0.01,0.70,1.46,1.45,1.44
1258,1.52,0.02,1.52,0.01,-0.01,0.62,1.50,1.50,1.50
1271,1.59,0.04,1.58,0.02,-0.02,0.54,1.57,1.56,1.55
1283,1.64,0.03,1.63,0.01,-0.01,0.47,1.62,1.62,1.61
1296,1.70,0.03,1.69,0.01,-0.01,0.39,1.69,1.68,1.67
1309,1.76,0.02,1.74,-0.00,0.00,0.31,1.76,1.74,1.74
1322,1.80,-0.00,1.79,-0.02,0.02,0.23,1.81,1.80,1.80
1335,1.83,-0.04,1.83,-0.03,0.03,0.15,1.86,1.87,1.87
1349,1.88,-0.06,1.88,-0.05,0.05,0.07,1.93,1.93,1.94
1362,1.91,-0.10,1.93,-0.07,0.07,-0.01,1.97,2.00,2.00
1376,1.98,-0.10,1.98,-0.08,0.08,-0.09,2.06,2.06,2.07
1390,2.04,-0.11,2.04,-0.09,0.09,-0.18,2.13,2.13,2.14
1404,2.11,-0.11,2.10,-0.10,0.10,-0.26,2.21,2.20,2.21
1418,2.16,-0.13,2.16,-0.11,0.11,-0.34,2.27,2.27,2.29
1432,2.22,-0.14,2.23,-0.11,0.11,-0.42,2.33,2.34,2.36
1446,2.30,-0.13,2.30,-0.11,0.11,-0.50,2.41,2.41,2.43
1461,2.38,-0.13,2.39,-0.10,0.10,-0.59,2.48,2.49,2.50
1475,2.48,-0.10,2.48,-0.08,0.08,-0.67,2.56,2.56,2.58
1490,2.59,-0.06,2.57,-0.07,0.07,-0.75,2.65,2.63,2.65
1505,2.67,-0.06,2.67,-0.04,0.04,-0.84,2.71,2.71,2.73
1520,2.77,-0.04,2.77,-0.01,0.01,-0.92,2.78,2.79,2.80
1535,2.87,-0.02,2.89,0.02,-0.02,-1.00,2.85,2.87,2.88
1550,3.00,0.03,3.01,0.06,-0.06,-1.08,2.94,2.95,2.97
1566,3.14,0.09,3.13,0.10,-0.10,-1.17,3.04,3.03,3.05
1582,3.27,0.13,3.27,0.15,-0.15,-1.26,3.12,3.12,3.14
1597,3.41,0.19,3.40,0.20,-0.20,-1.33,3.21,3.21,3.22
1613,3.54,0.23,3.55,0.25,-0.25,-1.42,3.29,3.30,3.31
1629,3.69,0.28,3.69,0.30,-0.30,-1.50,3.38,3.39,3.40
1646,3.85,0.35,3.85,0.36,-0.36,-1.58,3.49,3.48,3.50
1662,4.02,0.42,4.00,0.42,-0.42,-1.66,3.60,3.58,3.60
1679,4.17,0.47,4.16,0.48,-0.48,-1.74,3.69,3.68,3.70
1696,4.34,0.54,4.33,0.54,-0.54,-1.81,3.80,3.79,3.80
1713,4.49,0.58,4.49,0.60,-0.60,-1.89,3.89,3.89,3.91
1730,4.67,0.65,4.66,0.66,-0.66,-1.96,4.00,4.00,4.02
1747,4.84,0.70,4.84,0.73,-0.73,-2.02,4.11,4.11,4.13
1764,5.02,0.77,5.02,0.79,-0.79,-2.09,4.23,4.22,4.25
1782,5.20,0.83,5.20,0.86,-0.86,-2.15,4.34,4.34,4.37
1800,5.37,0.87,5.38,0.93,-0.93,-2.21,4.44,4.45,4.50
1818,5.58,0.96,5.57,1.01,-1.01,-2.26,4.57,4.57,4.62
1836,5.78,1.03,5.77,1.08,-1.08,-2.31,4.69,4.68,4.75
1854,5.98,1.10,5.97,1.17,-1.17,-2.35,4.81,4.80,4.88
1873,6.17,1.16,6.18,1.25,-1.25,-2.38,4.91,4.92,5.01
1892,6.38,1.24,6.39,1.35,-1.35,-2.41,5.03,5.05,5.14
1911,6.60,1.33,6.62,1.44,-1.44,-2.44,5.15,5.17,5.27
