frequency,raw,error,smoothed,error_smoothed,equalization,parametric_eq,equalized_raw,equalized_smoothed,target
20.00,2.83,0.37,2.83,0.37,-0.37,-0.27,2.47,2.46,2.46
20.20,2.85,0.38,2.86,0.38,-0.38,-0.28,2.47,2.47,2.48
20.40,2.88,0.40,2.88,0.40,-0.40,-0.29,2.49,2.49,2.49
20.61,2.90,0.41,2.91,0.41,-0.41,-0.29,2.49,2.50,2.50
20.81,2.93,0.43,2.93,0.43,-0.43,-0.30,2.51,2.51,2.51
21.02,2.95,0.44,2.96,0.44,-0.44,-0.31,2.51,2.52,2.52
21.23,2.98,0.46,2.98,0.45,-0.45,-0.32,2.53,2.53,2.53
21.44,3.00,0.47,3.00,0.47,-0.47,-0.33,2.54,2.54,2.54
21.66,3.02,0.48,3.03,0.48,-0.48,-0.34,2.54,2.55,2.55
21.87,3.05,0.50,3.05,0.49,-0.49,-0.35,2.56,2.56,2.56
22.09,3.07,0.50,3.08,0.51,-0.51,-0.36,2.57,2.57,2.57
22.31,3.09,0.51,3.10,0.52,-0.52,-0.38,2.57,2.58,2.58
22.54,3.12,0.53,3.12,0.53,-0.53,-0.39,2.59,2.59,2.59
22.76,3.14,0.54,3.15,0.55,-0.55,-0.40,2.60,2.60,2.60
22.99,3.17,0.56,3.17,0.56,-0.56,-0.41,2.62,2.61,2.61
23.22,3.19,0.57,3.20,0.57,-0.57,-0.42,2.62,2.62,2.62
23.45,3.22,0.59,3.22,0.58,-0.58,-0.44,2.64,2.64,2.64
23.69,3.24,0.60,3.24,0.60,-0.60,-0.45,2.65,2.65,2.65
23.92,3.26,0.61,3.26,0.61,-0.61,-0.46,2.66,2.66,2.66
24.16,3.28,0.61,3.29,0.62,-0.62,-0.47,2.67,2.67,2.67
24.40,3.31,0.63,3.31,0.63,-0.63,-0.49,2.68,2.68,2.68
24.65,3.33,0.64,3.33,0.64,-0.64,-0.50,2.69,2.69,2.69
24.89,3.35,0.65,3.35,0.65,-0.65,-0.52,2.70,2.70,2.70
25.14,3.37,0.66,3.37,0.66,-0.66,-0.53,2.71,2.71,2.71
25.39,3.39,0.67,3.40,0.67,-0.67,-0.54,2.72,2.72,2.72
25.65,3.41,0.68,3.42,0.68,-0.68,-0.56,2.73,2.73,2.73
25.91,3.43,0.69,3.44,0.69,-0.69,-0.57,2.74,2.74,2.74
26.16,3.45,0.70,3.46,0.70,-0.70,-0.59,2.75,2.75,2.75
26.43,3.47,0.71,3.48,0.72,-0.72,-0.60,2.76,2.76,2.76
26.69,3.50,0.73,3.50,0.72,-0.72,-0.62,2.78,2.77,2.77
26.96,3.52,0.74,3.52,0.73,-0.73,-0.63,2.79,2.78,2.79
27.23,3.54,0.75,3.54,0.74,-0.74,-0.65,2.80,2.79,2.80
27.50,3.56,0.76,3.56,0.75,-0.75,-0.66,2.81,2.81,2.81
27.77,3.57,0.76,3.58,0.76,-0.76,-0.67,2.81,2.82,2.82
28.05,3.59,0.77,3.60,0.77,-0.77,-0.69,2.82,2.83,2.83
28.33,3.61,0.78,3.62,0.78,-0.78,-0.70,2.83,2.84,2.84
28.62,3.63,0.79,3.63,0.79,-0.79,-0.71,2.85,2.85,2.85
28.90,3.65,0.80,3.65,0.80,-0.80,-0.72,2.86,2.86,2.86
29.19,3.67,0.81,3.67,0.80,-0.80,-0.74,2.87,2.87,2.87
29.48,3.68,0.81,3.69,0.81,-0.81,-0.75,2.87,2.88,2.88
29.78,3.70,0.81,3.70,0.82,-0.82,-0.76,2.89,2.89,2.89
30.08,3.71,0.81,3.72,0.82,-0.82,-0.77,2.89,2.90,2.90
30.38,3.73,0.82,3.74,0.83,-0.83,-0.78,2.91,2.91,2.91
30.68,3.75,0.83,3.75,0.83,-0.83,-0.78,2.92,2.92,2.92
30.99,3.77,0.84,3.77,0.84,-0.84,-0.79,2.94,2.93,2.93
31.30,3.78,0.84,3.78,0.84,-0.84,-0.80,2.94,2.94,2.94
31.61,3.79,0.84,3.80,0.85,-0.85,-0.80,2.95,2.95,2.95
31.93,3.81,0.85,3.81,0.85,-0.85,-0.81,2.97,2.96,2.96
32.24,3.82,0.85,3.82,0.85,-0.85,-0.81,2.97,2.97,2.97
32.57,3.83,0.85,3.83,0.85,-0.85,-0.82,2.98,2.98,2.98
32.89,3.84,0.86,3.84,0.85,-0.85,-0.82,2.99,2.99,2.99
33.22,3.84,0.85,3.85,0.85,-0.85,-0.82,2.99,3.00,3.00
33.55,3.85,0.85,3.86,0.85,-0.85,-0.82,3.00,3.01,3.01
33.89,3.86,0.85,3.86,0.85,-0.85,-0.83,3.01,3.01,3.01
34.23,3.86,0.84,3.87,0.85,-0.85,-0.83,3.01,3.02,3.02
34.57,3.87,0.84,3.88,0.85,-0.85,-0.83,3.03,3.03,3.03
34.92,3.88,0.85,3.88,0.84,-0.84,-0.83,3.04,3.04,3.04
35.27,3.89,0.85,3.89,0.84,-0.84,-0.83,3.05,3.04,3.04
35.62,3.89,0.84,3.89,0.84,-0.84,-0.82,3.05,3.05,3.05
35.97,3.90,0.84,3.90,0.84,-0.84,-0.82,3.07,3.06,3.06
36.33,3.90,0.84,3.90,0.84,-0.84,-0.82,3.07,3.07,3.07
36.70,3.90,0.83,3.91,0.83,-0.83,-0.82,3.07,3.08,3.08
37.06,3.90,0.82,3.91,0.83,-0.83,-0.82,3.07,3.08,3.08
37.43,3.91,0.83,3.92,0.83,-0.83,-0.82,3.08,3.09,3.09
37.81,3.92,0.83,3.92,0.83,-0.83,-0.82,3.09,3.09,3.10
38.19,3.93,0.83,3.93,0.83,-0.83,-0.82,3.10,3.10,3.10
38.57,3.94,0.84,3.94,0.83,-0.83,-0.82,3.11,3.11,3.11
38.95,3.94,0.83,3.94,0.83,-0.83,-0.82,3.11,3.11,3.11
39.34,3.95,0.84,3.95,0.83,-0.83,-0.82,3.12,3.12,3.12
39.74,3.95,0.83,3.96,0.84,-0.84,-0.82,3.12,3.12,3.12
40.14,3.96,0.84,3.97,0.84,-0.84,-0.82,3.12,3.13,3.13
40.54,3.97,0.84,3.98,0.85,-0.85,-0.82,3.13,3.13,3.13
40.94,3.98,0.85,3.99,0.85,-0.85,-0.82,3.13,3.14,3.14
41.35,3.99,0.85,4.00,0.86,-0.86,-0.83,3.13,3.14,3.14
41.76,4.01,0.87,4.01,0.87,-0.87,-0.83,3.15,3.15,3.15
42.18,4.03,0.88,4.03,0.88,-0.88,-0.83,3.16,3.15,3.15
42.60,4.04,0.89,4.04,0.89,-0.89,-0.84,3.16,3.15,3.15
43.03,4.05,0.90,4.05,0.89,-0.89,-0.84,3.16,3.16,3.16
43.46,4.06,0.90,4.07,0.90,-0.90,-0.85,3.16,3.17,3.16
43.90,4.08,0.92,4.08,0.91,-0.91,-0.85,3.17,3.17,3.17
44.33,4.09,0.92,4.10,0.92,-0.92,-0.86,3.17,3.17,3.17
44.78,4.11,0.94,4.11,0.94,-0.94,-0.87,3.18,3.18,3.18
45.23,4.13,0.95,4.13,0.95,-0.95,-0.88,3.19,3.18,3.18
45.68,4.14,0.96,4.14,0.96,-0.96,-0.88,3.19,3.18,3.19
46.13,4.15,0.96,4.16,0.97,-0.97,-0.89,3.19,3.19,3.19
46.60,4.17,0.98,4.17,0.98,-0.98,-0.90,3.19,3.19,3.19
47.06,4.18,0.99,4.19,0.99,-0.99,-0.91,3.19,3.19,3.20
47.53,4.19,0.99,4.20,1.00,-1.00,-0.92,3.19,3.20,3.20
48.01,4.20,1.00,4.22,1.01,-1.01,-0.94,3.19,3.20,3.20
48.49,4.21,1.01,4.23,1.02,-1.02,-0.95,3.19,3.21,3.21
48.97,4.23,1.03,4.24,1.03,-1.03,-0.96,3.20,3.21,3.21
49.46,4.24,1.03,4.25,1.04,-1.04,-0.97,3.21,3.21,3.21
49.96,4.26,1.05,4.25,1.04,-1.04,-0.99,3.22,3.21,3.21
50.46,4.26,1.05,4.25,1.05,-1.05,-1.00,3.22,3.21,3.21
50.96,4.27,1.07,4.26,1.05,-1.05,-1.01,3.22,3.20,3.21
51.47,4.27,1.07,4.25,1.05,-1.05,-1.03,3.22,3.20,3.21
51.99,4.26,1.06,4.25,1.05,-1.05,-1.04,3.21,3.20,3.20
52.51,4.24,1.05,4.24,1.05,-1.05,-1.06,3.20,3.20,3.20
53.03,4.23,1.04,4.24,1.05,-1.05,-1.07,3.19,3.19,3.19
53.56,4.21,1.03,4.22,1.04,-1.04,-1.09,3.17,3.18,3.19
54.10,4.20,1.03,4.21,1.03,-1.03,-1.10,3.17,3.18,3.18
54.64,4.18,1.01,4.20,1.03,-1.03,-1.11,3.16,3.17,3.17
55.18,4.17,1.01,4.18,1.02,-1.02,-1.13,3.15,3.16,3.16
55.74,4.16,1.01,4.16,1.01,-1.01,-1.14,3.15,3.15,3.15
56.29,4.14,1.01,4.14,1.01,-1.01,-1.16,3.14,3.14,3.14
56.86,4.12,1.00,4.12,1.00,-1.00,-1.17,3.13,3.12,3.12
57.42,4.10,0.99,4.10,0.99,-0.99,-1.18,3.11,3.11,3.11
58.00,4.08,0.99,4.08,0.99,-0.99,-1.19,3.10,3.09,3.09
58.58,4.06,0.99,4.06,0.99,-0.99,-1.20,3.08,3.08,3.08
59.16,4.04,0.98,4.04,0.98,-0.98,-1.21,3.06,3.06,3.06
59.76,4.02,0.98,4.02,0.98,-0.98,-1.22,3.04,3.04,3.04
60.35,4.00,0.98,4.00,0.98,-0.98,-1.23,3.02,3.02,3.02
60.96,3.98,0.98,3.98,0.99,-0.99,-1.23,3.00,3.00,3.00
61.57,3.96,0.99,3.96,0.99,-0.99,-1.24,2.97,2.97,2.98
62.18,3.94,0.99,3.95,1.00,-1.00,-1.24,2.95,2.95,2.95
62.80,3.93,1.00,3.93,1.01,-1.01,-1.25,2.93,2.93,2.93
63.43,3.91,1.01,3.92,1.02,-1.02,-1.25,2.90,2.90,2.90
64.07,3.90,1.03,3.91,1.03,-1.03,-1.25,2.87,2.87,2.88
64.71,3.89,1.04,3.90,1.05,-1.05,-1.25,2.84,2.85,2.85
65.35,3.88,1.06,3.89,1.07,-1.07,-1.25,2.81,2.82,2.82
66.01,3.87,1.08,3.88,1.09,-1.09,-1.25,2.78,2.79,2.79
66.67,3.87,1.11,3.88,1.12,-1.12,-1.24,2.75,2.76,2.77
67.33,3.87,1.14,3.88,1.15,-1.15,-1.24,2.73,2.73,2.74
68.01,3.87,1.17,3.88,1.18,-1.18,-1.24,2.70,2.70,2.71
68.69,3.88,1.21,3.88,1.21,-1.21,-1.23,2.68,2.67,2.68
69.37,3.88,1.24,3.88,1.24,-1.24,-1.22,2.65,2.64,2.65
70.07,3.89,1.28,3.88,1.27,-1.27,-1.22,2.62,2.61,2.61
70.77,3.89,1.31,3.89,1.30,-1.30,-1.21,2.59,2.58,2.58
71.48,3.89,1.34,3.89,1.34,-1.34,-1.20,2.56,2.55,2.55
72.19,3.89,1.37,3.89,1.37,-1.37,-1.20,2.52,2.52,2.52
72.91,3.89,1.40,3.90,1.40,-1.40,-1.19,2.49,2.49,2.50
73.64,3.89,1.43,3.90,1.44,-1.44,-1.18,2.46,2.47,2.47
74.38,3.89,1.45,3.91,1.47,-1.47,-1.18,2.43,2.44,2.44
75.12,3.89,1.48,3.91,1.50,-1.50,-1.17,2.40,2.41,2.41
75.87,3.90,1.52,3.91,1.53,-1.53,-1.16,2.38,2.39,2.39
76.63,3.91,1.55,3.91,1.55,-1.55,-1.16,2.36,2.36,2.36
77.40,3.91,1.58,3.91,1.58,-1.58,-1.15,2.34,2.34,2.34
78.17,3.91,1.60,3.91,1.60,-1.60,-1.15,2.32,2.31,2.32
78.95,3.91,1.62,3.91,1.61,-1.61,-1.14,2.30,2.29,2.29
79.74,3.91,1.64,3.90,1.63,-1.63,-1.14,2.29,2.27,2.27
80.54,3.90,1.65,3.89,1.64,-1.64,-1.13,2.27,2.25,2.25
81.35,3.88,1.65,3.88,1.64,-1.64,-1.13,2.24,2.23,2.23
82.16,3.87,1.66,3.86,1.65,-1.65,-1.13,2.23,2.21,2.21
82.98,3.84,1.65,3.84,1.64,-1.64,-1.13,2.20,2.20,2.20
83.81,3.82,1.64,3.82,1.64,-1.64,-1.13,2.18,2.18,2.18
84.65,3.79,1.63,3.80,1.63,-1.63,-1.13,2.16,2.17,2.17
85.50,3.77,1.62,3.77,1.62,-1.62,-1.13,2.15,2.15,2.15
86.35,3.74,1.60,3.75,1.61,-1.61,-1.13,2.13,2.14,2.14
87.22,3.70,1.58,3.72,1.59,-1.59,-1.13,2.11,2.13,2.13
88.09,3.68,1.57,3.69,1.58,-1.58,-1.13,2.11,2.12,2.12
88.97,3.66,1.56,3.67,1.56,-1.56,-1.14,2.10,2.11,2.11
89.86,3.64,1.55,3.64,1.54,-1.54,-1.14,2.10,2.10,2.10
90.76,3.62,1.53,3.62,1.52,-1.52,-1.15,2.10,2.09,2.09
91.66,3.59,1.51,3.59,1.51,-1.51,-1.16,2.09,2.08,2.08
92.58,3.56,1.49,3.56,1.49,-1.49,-1.17,2.08,2.08,2.08
93.51,3.53,1.46,3.54,1.47,-1.47,-1.17,2.07,2.07,2.07
94.44,3.51,1.45,3.51,1.45,-1.45,-1.18,2.06,2.06,2.06
95.39,3.48,1.43,3.49,1.44,-1.44,-1.19,2.05,2.05,2.06
96.34,3.46,1.42,3.46,1.42,-1.42,-1.20,2.04,2.04,2.05
97.30,3.44,1.41,3.44,1.41,-1.41,-1.22,2.04,2.03,2.04
98.28,3.41,1.39,3.41,1.39,-1.39,-1.23,2.02,2.02,2.02
99.26,3.38,1.37,3.39,1.38,-1.38,-1.24,2.00,2.00,2.01
100.25,3.35,1.36,3.36,1.38,-1.38,-1.25,1.98,1.99,2.00
101.25,3.32,1.35,3.34,1.37,-1.37,-1.27,1.95,1.97,1.98
102.27,3.31,1.35,3.32,1.37,-1.37,-1.28,1.95,1.95,1.96
103.29,3.30,1.37,3.30,1.37,-1.37,-1.30,1.94,1.93,1.94
104.32,3.28,1.37,3.28,1.37,-1.37,-1.31,1.92,1.91,1.92
105.37,3.25,1.36,3.25,1.37,-1.37,-1.33,1.89,1.88,1.89
106.42,3.23,1.37,3.23,1.37,-1.37,-1.34,1.86,1.86,1.86
107.48,3.20,1.37,3.21,1.37,-1.37,-1.36,1.83,1.83,1.83
108.56,3.17,1.37,3.18,1.38,-1.38,-1.37,1.80,1.80,1.80
109.64,3.15,1.38,3.16,1.38,-1.38,-1.39,1.77,1.77,1.77
110.74,3.13,1.40,3.13,1.39,-1.39,-1.40,1.75,1.74,1.74
111.85,3.10,1.40,3.09,1.39,-1.39,-1.41,1.71,1.70,1.70
112.97,3.07,1.41,3.06,1.39,-1.39,-1.43,1.68,1.67,1.67
114.10,3.04,1.41,3.02,1.40,-1.40,-1.44,1.65,1.63,1.63
115.24,2.99,1.40,2.99,1.40,-1.40,-1.45,1.60,1.59,1.60
116.39,2.96,1.40,2.95,1.40,-1.40,-1.46,1.57,1.56,1.56
117.55,2.92,1.40,2.92,1.40,-1.40,-1.47,1.53,1.52,1.52
118.73,2.86,1.38,2.88,1.40,-1.40,-1.48,1.47,1.48,1.49
119.92,2.81,1.36,2.85,1.40,-1.40,-1.48,1.42,1.45,1.45
121.12,2.77,1.36,2.81,1.39,-1.39,-1.49,1.38,1.42,1.42
122.33,2.76,1.38,2.77,1.39,-1.39,-1.49,1.37,1.38,1.39
123.55,2.74,1.39,2.74,1.39,-1.39,-1.49,1.36,1.35,1.35
124.79,2.71,1.39,2.70,1.38,-1.38,-1.50,1.33,1.32,1.32
126.03,2.67,1.38,2.67,1.38,-1.38,-1.50,1.30,1.30,1.30
127.29,2.64,1.37,2.64,1.37,-1.37,-1.49,1.28,1.27,1.27
128.57,2.61,1.37,2.61,1.36,-1.36,-1.49,1.25,1.25,1.24
129.85,2.56,1.34,2.57,1.35,-1.35,-1.49,1.22,1.22,1.22
131.15,2.53,1.34,2.53,1.33,-1.33,-1.48,1.20,1.20,1.20
132.46,2.50,1.33,2.50,1.32,-1.32,-1.47,1.19,1.18,1.18
133.79,2.46,1.31,2.45,1.30,-1.30,-1.46,1.16,1.16,1.15
135.12,2.42,1.29,2.41,1.28,-1.28,-1.45,1.15,1.13,1.13
136.48,2.38,1.27,2.36,1.26,-1.26,-1.44,1.13,1.11,1.11
137.84,2.32,1.23,2.32,1.23,-1.23,-1.43,1.09,1.09,1.09
139.22,2.27,1.20,2.27,1.21,-1.21,-1.42,1.07,1.07,1.07
140.61,2.22,1.17,2.22,1.18,-1.18,-1.41,1.05,1.05,1.05
142.02,2.15,1.13,2.17,1.15,-1.15,-1.39,1.00,1.02,1.03
143.44,2.11,1.11,2.13,1.12,-1.12,-1.38,0.99,1.00,1.01
144.87,2.07,1.09,2.08,1.10,-1.10,-1.36,0.98,0.98,0.98
146.32,2.03,1.07,2.03,1.07,-1.07,-1.35,0.96,0.96,0.96
147.78,1.98,1.04,1.98,1.05,-1.05,-1.33,0.94,0.94,0.94
149.26,1.94,1.03,1.94,1.03,-1.03,-1.32,0.92,0.91,0.92
150.75,1.90,1.01,1.90,1.01,-1.01,-1.30,0.90,0.89,0.89
152.26,1.86,0.99,1.86,0.99,-0.99,-1.29,0.87,0.87,0.87
153.78,1.81,0.97,1.82,0.97,-0.97,-1.27,0.84,0.85,0.85
155.32,1.78,0.96,1.79,0.96,-0.96,-1.26,0.82,0.83,0.82
156.88,1.74,0.94,1.75,0.95,-0.95,-1.25,0.79,0.80,0.80
158.44,1.73,0.96,1.72,0.94,-0.94,-1.23,0.79,0.78,0.78
160.03,1.69,0.94,1.69,0.94,-0.94,-1.22,0.75,0.75,0.75
161.63,1.67,0.95,1.67,0.94,-0.94,-1.21,0.73,0.73,0.73
163.24,1.65,0.95,1.65,0.95,-0.95,-1.20,0.71,0.70,0.70
164.88,1.62,0.95,1.63,0.95,-0.95,-1.19,0.67,0.67,0.68
166.53,1.60,0.95,1.61,0.97,-0.97,-1.18,0.64,0.64,0.65
168.19,1.60,0.98,1.60,0.99,-0.99,-1.17,0.62,0.61,0.62
169.87,1.59,1.00,1.60,1.01,-1.01,-1.16,0.58,0.59,0.60
171.57,1.59,1.03,1.60,1.04,-1.04,-1.15,0.55,0.56,0.57
173.29,1.59,1.06,1.61,1.08,-1.08,-1.14,0.51,0.53,0.54
175.02,1.60,1.10,1.62,1.12,-1.12,-1.14,0.48,0.50,0.51
176.77,1.61,1.14,1.63,1.17,-1.17,-1.13,0.45,0.46,0.48
178.54,1.63,1.19,1.65,1.22,-1.22,-1.13,0.41,0.43,0.44
180.32,1.65,1.24,1.68,1.27,-1.27,-1.12,0.38,0.40,0.41
182.13,1.68,1.30,1.70,1.33,-1.33,-1.12,0.35,0.37,0.38
183.95,1.73,1.39,1.73,1.39,-1.39,-1.12,0.34,0.34,0.35
185.79,1.77,1.46,1.76,1.45,-1.45,-1.12,0.32,0.31,0.31
187.65,1.79,1.51,1.79,1.51,-1.51,-1.11,0.29,0.28,0.28
189.52,1.82,1.58,1.81,1.56,-1.56,-1.11,0.26,0.25,0.25
191.42,1.84,1.63,1.83,1.61,-1.61,-1.12,0.23,0.21,0.21
193.33,1.86,1.69,1.84,1.66,-1.66,-1.12,0.20,0.18,0.18
195.27,1.86,1.72,1.85,1.70,-1.70,-1.12,0.16,0.15,0.15
197.22,1.86,1.75,1.85,1.74,-1.74,-1.12,0.13,0.11,0.11
199.19,1.85,1.78,1.84,1.77,-1.77,-1.13,0.08,0.07,0.08
201.18,1.84,1.80,1.83,1.79,-1.79,-1.13,0.05,0.04,0.04
203.19,1.82,1.82,1.81,1.81,-1.81,-1.14,0.01,0.00,0.00
205.23,1.79,1.82,1.79,1.82,-1.82,-1.15,-0.03,-0.04,-0.03
207.28,1.75,1.82,1.76,1.83,-1.83,-1.15,-0.08,-0.08,-0.07
209.35,1.71,1.82,1.72,1.83,-1.83,-1.16,-0.12,-0.11,-0.10
211.44,1.66,1.81,1.68,1.83,-1.83,-1.17,-0.17,-0.15,-0.14
213.56,1.63,1.81,1.64,1.82,-1.82,-1.18,-0.19,-0.18,-0.18
215.69,1.58,1.80,1.59,1.81,-1.81,-1.19,-0.22,-0.22,-0.22
217.85,1.53,1.79,1.54,1.79,-1.79,-1.20,-0.26,-0.25,-0.25
220.03,1.50,1.79,1.48,1.77,-1.77,-1.21,-0.27,-0.29,-0.29
222.23,1.45,1.77,1.43,1.75,-1.75,-1.22,-0.30,-0.32,-0.32
224.45,1.39,1.74,1.37,1.72,-1.72,-1.23,-0.33,-0.35,-0.35
226.70,1.33,1.71,1.32,1.70,-1.70,-1.24,-0.36,-0.38,-0.38
228.96,1.26,1.67,1.26,1.67,-1.67,-1.25,-0.40,-0.41,-0.40
231.25,1.21,1.64,1.21,1.64,-1.64,-1.26,-0.43,-0.43,-0.43
233.57,1.15,1.60,1.16,1.61,-1.61,-1.28,-0.46,-0.45,-0.44
235.90,1.08,1.54,1.12,1.58,-1.58,-1.29,-0.50,-0.47,-0.46
238.26,1.05,1.53,1.08,1.56,-1.56,-1.30,-0.50,-0.48,-0.47
240.64,1.01,1.50,1.04,1.53,-1.53,-1.31,-0.52,-0.49,-0.48
243.05,0.99,1.48,1.01,1.52,-1.52,-1.33,-0.52,-0.50,-0.49
245.48,0.97,1.47,0.99,1.50,-1.50,-1.34,-0.52,-0.51,-0.50
247.93,0.96,1.46,0.97,1.49,-1.49,-1.35,-0.52,-0.51,-0.50
250.41,0.95,1.46,0.96,1.48,-1.48,-1.37,-0.52,-0.51,-0.50
252.92,0.95,1.46,0.96,1.47,-1.47,-1.38,-0.52,-0.51,-0.50
255.45,0.96,1.47,0.95,1.47,-1.47,-1.39,-0.50,-0.51,-0.50
258.00,0.96,1.47,0.95,1.47,-1.47,-1.41,-0.50,-0.51,-0.50
260.58,0.97,1.48,0.96,1.46,-1.46,-1.42,-0.49,-0.51,-0.50
263.19,0.97,1.48,0.96,1.46,-1.46,-1.44,-0.49,-0.50,-0.50
265.82,0.97,1.47,0.96,1.46,-1.46,-1.45,-0.49,-0.50,-0.50
268.48,0.97,1.47,0.97,1.46,-1.46,-1.47,-0.49,-0.49,-0.50
271.16,0.97,1.47,0.97,1.46,-1.46,-1.48,-0.48,-0.49,-0.49
273.87,0.97,1.46,0.97,1.45,-1.45,-1.50,-0.48,-0.48,-0.49
276.61,0.97,1.45,0.98,1.45,-1.45,-1.52,-0.47,-0.47,-0.48
279.38,0.97,1.44,0.98,1.44,-1.44,-1.53,-0.46,-0.46,-0.47
282.17,0.97,1.43,0.97,1.43,-1.43,-1.55,-0.45,-0.45,-0.46
284.99,0.97,1.42,0.97,1.42,-1.42,-1.57,-0.44,-0.44,-0.45
287.84,0.97,1.41,0.97,1.40,-1.40,-1.59,-0.43,-0.43,-0.44
290.72,0.97,1.40,0.97,1.39,-1.39,-1.61,-0.42,-0.42,-0.42
293.63,0.97,1.38,0.96,1.38,-1.38,-1.63,-0.40,-0.41,-0.41
296.57,0.97,1.37,0.96,1.37,-1.37,-1.66,-0.39,-0.40,-0.40
299.53,0.97,1.37,0.96,1.36,-1.36,-1.68,-0.38,-0.40,-0.39
302.53,0.96,1.35,0.96,1.35,-1.35,-1.71,-0.38,-0.39,-0.38
305.55,0.95,1.33,0.96,1.34,-1.34,-1.73,-0.39,-0.38,-0.38
308.61,0.95,1.32,0.96,1.34,-1.34,-1.76,-0.39,-0.38,-0.37
311.69,0.96,1.33,0.97,1.34,-1.34,-1.79,-0.38,-0.37,-0.37
314.81,0.97,1.34,0.98,1.35,-1.35,-1.82,-0.38,-0.37,-0.36
317.96,0.98,1.34,1.00,1.36,-1.36,-1.85,-0.38,-0.37,-0.36
321.14,1.00,1.36,1.01,1.38,-1.38,-1.89,-0.37,-0.36,-0.36
324.35,1.02,1.38,1.04,1.40,-1.40,-1.92,-0.37,-0.36,-0.36
327.59,1.05,1.41,1.07,1.42,-1.42,-1.96,-0.37,-0.36,-0.35
330.87,1.08,1.44,1.10,1.46,-1.46,-2.00,-0.37,-0.35,-0.35
334.18,1.13,1.48,1.14,1.49,-1.49,-2.04,-0.36,-0.35,-0.35
337.52,1.18,1.53,1.18,1.53,-1.53,-2.08,-0.35,-0.35,-0.35
340.90,1.23,1.58,1.23,1.57,-1.57,-2.12,-0.34,-0.35,-0.35
344.30,1.28,1.63,1.28,1.62,-1.62,-2.17,-0.34,-0.35,-0.34
347.75,1.32,1.67,1.33,1.67,-1.67,-2.21,-0.35,-0.35,-0.34
351.23,1.38,1.73,1.38,1.72,-1.72,-2.26,-0.34,-0.35,-0.34
354.74,1.43,1.78,1.43,1.78,-1.78,-2.31,-0.35,-0.35,-0.35
358.28,1.50,1.85,1.49,1.84,-1.84,-2.36,-0.33,-0.35,-0.35
361.87,1.55,1.91,1.54,1.89,-1.89,-2.42,-0.34,-0.36,-0.35
365.49,1.59,1.95,1.59,1.95,-1.95,-2.47,-0.36,-0.36,-0.36
369.14,1.63,2.00,1.64,2.01,-2.01,-2.53,-0.38,-0.37,-0.37
372.83,1.68,2.06,1.69,2.08,-2.08,-2.59,-0.39,-0.38,-0.38
376.56,1.75,2.14,1.75,2.14,-2.14,-2.65,-0.38,-0.39,-0.39
380.33,1.81,2.21,1.80,2.20,-2.20,-2.71,-0.39,-0.40,-0.39
384.13,1.86,2.27,1.86,2.27,-2.27,-2.78,-0.40,-0.41,-0.40
387.97,1.91,2.33,1.91,2.33,-2.33,-2.84,-0.42,-0.42,-0.41
391.85,1.95,2.38,1.97,2.40,-2.40,-2.91,-0.44,-0.43,-0.43
395.77,1.99,2.43,2.02,2.46,-2.46,-2.97,-0.47,-0.44,-0.44
399.73,2.06,2.51,2.08,2.53,-2.53,-3.04,-0.47,-0.45,-0.45
403.72,2.13,2.59,2.13,2.60,-2.60,-3.11,-0.46,-0.46,-0.46
407.76,2.20,2.68,2.19,2.66,-2.66,-3.18,-0.46,-0.47,-0.47
411.84,2.26,2.75,2.24,2.73,-2.73,-3.25,-0.46,-0.49,-0.48
415.96,2.31,2.81,2.30,2.79,-2.79,-3.32,-0.48,-0.50,-0.49
420.12,2.35,2.86,2.35,2.86,-2.86,-3.39,-0.50,-0.51,-0.50
424.32,2.39,2.91,2.40,2.92,-2.92,-3.45,-0.52,-0.51,-0.51
428.56,2.44,2.97,2.45,2.97,-2.97,-3.52,-0.53,-0.52,-0.52
432.85,2.49,3.02,2.50,3.03,-3.03,-3.58,-0.53,-0.52,-0.53
437.18,2.54,3.08,2.55,3.08,-3.08,-3.65,-0.53,-0.53,-0.54
441.55,2.59,3.13,2.59,3.13,-3.13,-3.71,-0.53,-0.53,-0.54
445.96,2.63,3.18,2.63,3.17,-3.17,-3.76,-0.54,-0.54,-0.54
450.42,2.68,3.23,2.67,3.21,-3.21,-3.82,-0.53,-0.54,-0.54
454.93,2.72,3.27,2.71,3.25,-3.25,-3.87,-0.53,-0.54,-0.54
459.48,2.76,3.30,2.74,3.29,-3.29,-3.92,-0.52,-0.54,-0.54
464.07,2.79,3.33,2.78,3.32,-3.32,-3.96,-0.52,-0.54,-0.54
468.71,2.80,3.33,2.81,3.35,-3.35,-3.99,-0.55,-0.54,-0.53
473.40,2.83,3.36,2.85,3.38,-3.38,-4.02,-0.55,-0.53,-0.53
478.13,2.85,3.38,2.88,3.41,-3.41,-4.05,-0.55,-0.53,-0.52
482.91,2.89,3.41,2.91,3.44,-3.44,-4.07,-0.54,-0.53,-0.52
487.74,2.93,3.45,2.94,3.46,-3.46,-4.08,-0.53,-0.53,-0.52
492.62,2.97,3.49,2.97,3.49,-3.49,-4.09,-0.52,-0.53,-0.52
497.55,3.00,3.52,3.00,3.52,-3.52,-4.09,-0.52,-0.52,-0.51
502.52,3.03,3.55,3.03,3.55,-3.55,-4.08,-0.52,-0.52,-0.51
507.55,3.05,3.56,3.06,3.58,-3.58,-4.06,-0.53,-0.52,-0.51
512.62,3.07,3.58,3.09,3.61,-3.61,-4.04,-0.53,-0.51,-0.51
517.75,3.11,3.62,3.13,3.64,-3.64,-4.02,-0.52,-0.51,-0.51
522.93,3.14,3.65,3.16,3.66,-3.66,-3.98,-0.52,-0.50,-0.50
528.16,3.17,3.67,3.19,3.68,-3.68,-3.94,-0.51,-0.50,-0.50
533.44,3.20,3.70,3.21,3.70,-3.70,-3.89,-0.50,-0.49,-0.49
538.77,3.23,3.72,3.23,3.72,-3.72,-3.84,-0.49,-0.49,-0.49
544.16,3.26,3.75,3.25,3.73,-3.73,-3.78,-0.47,-0.48,-0.49
549.60,3.28,3.77,3.25,3.74,-3.74,-3.72,-0.45,-0.48,-0.48
555.10,3.29,3.77,3.26,3.74,-3.74,-3.65,-0.44,-0.48,-0.48
560.65,3.28,3.76,3.26,3.73,-3.73,-3.58,-0.45,-0.48,-0.47
566.25,3.27,3.74,3.25,3.72,-3.72,-3.51,-0.45,-0.47,-0.47
571.92,3.24,3.71,3.24,3.71,-3.71,-3.43,-0.46,-0.47,-0.47
577.64,3.21,3.68,3.22,3.69,-3.69,-3.35,-0.47,-0.47,-0.46
583.41,3.19,3.66,3.20,3.66,-3.66,-3.27,-0.47,-0.47,-0.46
589.25,3.15,3.61,3.17,3.64,-3.64,-3.19,-0.48,-0.47,-0.46
595.14,3.12,3.58,3.14,3.61,-3.61,-3.10,-0.48,-0.47,-0.46
601.09,3.08,3.54,3.11,3.57,-3.57,-3.02,-0.49,-0.47,-0.46
607.10,3.05,3.51,3.07,3.54,-3.54,-2.93,-0.49,-0.46,-0.46
613.17,3.04,3.50,3.04,3.51,-3.51,-2.84,-0.46,-0.46,-0.45
619.30,3.01,3.47,3.01,3.47,-3.47,-2.75,-0.46,-0.46,-0.45
625.50,2.98,3.43,2.99,3.44,-3.44,-2.66,-0.45,-0.45,-0.45
631.75,2.95,3.40,2.96,3.40,-3.40,-2.58,-0.45,-0.44,-0.44
638.07,2.91,3.35,2.93,3.37,-3.37,-2.49,-0.45,-0.43,-0.44
644.45,2.89,3.32,2.90,3.33,-3.33,-2.40,-0.43,-0.42,-0.43
650.89,2.86,3.28,2.87,3.29,-3.29,-2.32,-0.42,-0.41,-0.42
657.40,2.84,3.25,2.84,3.25,-3.25,-2.23,-0.40,-0.40,-0.41
663.98,2.82,3.22,2.81,3.20,-3.20,-2.15,-0.38,-0.40,-0.40
670.62,2.79,3.18,2.77,3.16,-3.16,-2.06,-0.37,-0.39,-0.39
677.32,2.74,3.12,2.73,3.11,-3.11,-1.98,-0.37,-0.38,-0.38
684.10,2.70,3.08,2.68,3.06,-3.06,-1.90,-0.36,-0.38,-0.37
690.94,2.65,3.02,2.64,3.01,-3.01,-1.82,-0.36,-0.38,-0.37
697.85,2.58,2.95,2.58,2.96,-2.96,-1.74,-0.37,-0.37,-0.37
704.83,2.52,2.89,2.53,2.90,-2.90,-1.66,-0.38,-0.37,-0.37
711.87,2.46,2.83,2.47,2.85,-2.85,-1.59,-0.38,-0.38,-0.37
718.99,2.40,2.78,2.41,2.79,-2.79,-1.51,-0.38,-0.38,-0.37
726.18,2.33,2.71,2.34,2.73,-2.73,-1.44,-0.39,-0.39,-0.38
733.44,2.26,2.65,2.27,2.67,-2.67,-1.37,-0.40,-0.39,-0.39
740.78,2.19,2.59,2.21,2.61,-2.61,-1.30,-0.41,-0.40,-0.40
