frequency,raw
20.00,-0.02
20.20,0.05
20.40,0.12
20.61,0.19
20.81,0.29
21.02,0.38
21.23,0.48
21.44,0.58
21.66,0.68
21.87,0.78
22.09,0.89
22.31,0.99
22.54,1.09
22.76,1.20
22.99,1.30
23.22,1.40
23.45,1.49
23.69,1.59
23.92,1.68
24.16,1.77
24.40,1.86
24.65,1.95
24.89,2.03
25.14,2.12
25.39,2.20
25.65,2.28
25.91,2.37
26.16,2.45
26.43,2.53
26.69,2.61
26.96,2.69
27.23,2.77
27.50,2.85
27.77,2.92
28.05,3.00
28.33,3.07
28.62,3.15
28.90,3.22
29.19,3.29
29.48,3.36
29.78,3.42
30.08,3.49
30.38,3.56
30.68,3.62
30.99,3.68
31.30,3.75
31.61,3.81
31.93,3.86
32.24,3.92
32.57,3.98
32.89,4.04
33.22,4.10
33.55,4.15
33.89,4.21
34.23,4.27
34.57,4.32
34.92,4.37
35.27,4.42
35.62,4.47
35.97,4.52
36.33,4.57
36.70,4.62
37.06,4.66
37.43,4.71
37.81,4.75
38.19,4.79
38.57,4.84
38.95,4.88
39.34,4.92
39.74,4.96
40.14,5.00
40.54,5.03
40.94,5.07
41.35,5.11
41.76,5.14
42.18,5.18
42.60,5.21
43.03,5.25
43.46,5.28
43.90,5.31
44.33,5.35
44.78,5.38
45.23,5.41
45.68,5.43
46.13,5.46
46.60,5.49
47.06,5.52
47.53,5.54
48.01,5.57
48.49,5.59
48.97,5.62
49.46,5.64
49.96,5.65
50.46,5.67
50.96,5.68
51.47,5.70
51.99,5.71
52.51,5.72
53.03,5.74
53.56,5.75
54.10,5.76
54.64,5.76
55.18,5.77
55.74,5.78
56.29,5.78
56.86,5.79
57.42,5.79
58.00,5.79
58.58,5.79
59.16,5.79
59.76,5.79
60.35,5.79
60.96,5.79
61.57,5.79
62.18,5.79
62.80,5.78
63.43,5.77
64.07,5.77
64.71,5.76
65.35,5.75
66.01,5.74
66.67,5.73
67.33,5.72
68.01,5.71
68.69,5.70
69.37,5.69
70.07,5.68
70.77,5.67
71.48,5.66
72.19,5.65
72.91,5.64
73.64,5.64
74.38,5.63
75.12,5.62
75.87,5.61
76.63,5.60
77.40,5.59
78.17,5.57
78.95,5.56
79.74,5.54
80.54,5.52
81.35,5.50
82.16,5.48
82.98,5.46
83.81,5.44
84.65,5.43
85.50,5.41
86.35,5.39
87.22,5.37
88.09,5.35
88.97,5.33
89.86,5.31
90.76,5.29
91.66,5.26
92.58,5.24
93.51,5.21
94.44,5.19
95.39,5.16
96.34,5.13
97.30,5.11
98.28,5.08
99.26,5.05
100.25,5.02
101.25,5.00
102.27,4.97
103.29,4.94
104.32,4.91
105.37,4.88
106.42,4.85
107.48,4.83
108.56,4.80
109.64,4.77
110.74,4.74
111.85,4.71
112.97,4.68
114.10,4.65
115.24,4.61
116.39,4.58
117.55,4.54
118.73,4.51
119.92,4.47
121.12,4.44
122.33,4.40
123.55,4.37
124.79,4.33
126.03,4.29
127.29,4.26
128.57,4.22
129.85,4.18
131.15,4.14
132.46,4.11
133.79,4.07
135.12,4.03
136.48,3.99
137.84,3.95
139.22,3.91
140.61,3.87
142.02,3.83
143.44,3.79
144.87,3.75
146.32,3.71
147.78,3.67
149.26,3.63
150.75,3.59
152.26,3.55
153.78,3.51
155.32,3.47
156.88,3.42
158.44,3.38
160.03,3.33
161.63,3.28
163.24,3.23
164.88,3.18
166.53,3.13
168.19,3.07
169.87,3.02
171.57,2.96
173.29,2.91
175.02,2.85
176.77,2.79
178.54,2.73
180.32,2.67
182.13,2.60
183.95,2.54
185.79,2.47
187.65,2.41
189.52,2.34
191.42,2.28
193.33,2.22
195.27,2.16
197.22,2.10
199.19,2.04
201.18,1.98
203.19,1.92
205.23,1.86
207.28,1.80
209.35,1.75
211.44,1.71
213.56,1.67
215.69,1.65
217.85,1.64
220.03,1.64
222.23,1.66
224.45,1.68
226.70,1.70
228.96,1.71
231.25,1.72
233.57,1.71
235.90,1.70
238.26,1.67
240.64,1.64
243.05,1.60
245.48,1.56
247.93,1.51
250.41,1.46
252.92,1.41
255.45,1.36
258.00,1.31
260.58,1.26
263.19,1.21
265.82,1.15
268.48,1.10
271.16,1.05
273.87,1.00
276.61,0.94
279.38,0.89
282.17,0.84
284.99,0.79
287.84,0.74
290.72,0.69
293.63,0.64
296.57,0.59
299.53,0.55
302.53,0.50
305.55,0.46
308.61,0.41
311.69,0.37
314.81,0.32
317.96,0.28
321.14,0.24
324.35,0.19
327.59,0.15
330.87,0.10
334.18,0.06
337.52,0.02
340.90,-0.02
344.30,-0.06
347.75,-0.11
351.23,-0.15
354.74,-0.19
358.28,-0.23
361.87,-0.27
365.49,-0.31
369.14,-0.35
372.83,-0.39
376.56,-0.43
380.33,-0.47
384.13,-0.51
387.97,-0.54
391.85,-0.57
395.77,-0.61
399.73,-0.64
403.72,-0.67
407.76,-0.70
411.84,-0.73
415.96,-0.76
420.12,-0.79
424.32,-0.82
428.56,-0.84
432.85,-0.87
437.18,-0.89
441.55,-0.91
445.96,-0.93
450.42,-0.95
454.93,-0.97
459.48,-0.99
464.07,-1.00
468.71,-1.02
473.40,-1.04
478.13,-1.06
482.91,-1.07
487.74,-1.09
492.62,-1.10
497.55,-1.12
502.52,-1.13
507.55,-1.15
512.62,-1.17
517.75,-1.18
522.93,-1.20
528.16,-1.22
533.44,-1.24
538.77,-1.25
544.16,-1.27
549.60,-1.29
555.10,-1.31
560.65,-1.32
566.25,-1.34
571.92,-1.36
577.64,-1.37
583.41,-1.39
589.25,-1.40
595.14,-1.41
601.09,-1.42
607.10,-1.43
613.17,-1.44
619.30,-1.45
625.50,-1.46
631.75,-1.47
638.07,-1.48
644.45,-1.49
650.89,-1.50
657.40,-1.50
663.98,-1.50
670.62,-1.51
677.32,-1.51
684.10,-1.51
690.94,-1.51
697.85,-1.51
704.83,-1.50
711.87,-1.49
718.99,-1.48
726.18,-1.47
733.44,-1.46
740.78,-1.45
748.19,-1.44
755.67,-1.43
763.23,-1.41
770.86,-1.39
778.57,-1.37
786.35,-1.35
794.22,-1.32
802.16,-1.30
810.18,-1.27
818.28,-1.24
826.46,-1.21
834.73,-1.17
843.08,-1.13
851.51,-1.09
860.02,-1.04
868.62,-0.99
877.31,-0.93
886.08,-0.88
894.94,-0.82
903.89,-0.76
912.93,-0.70
922.06,-0.64
931.28,-0.57
940.59,-0.50
950.00,-0.42
959.50,-0.34
969.09,-0.26
978.78,-0.18
988.57,-0.10
998.46,-0.01
1008.44,0.07
1018.53,0.16
1028.71,0.25
1039.00,0.35
1049.39,0.45
1059.88,0.55
1070.48,0.66
1081.19,0.76
1092.00,0.87
1102.92,0.98
1113.95,1.09
1125.09,1.20
1136.34,1.31
1147.70,1.43
1159.18,1.54
1170.77,1.66
1182.48,1.78
1194.30,1.88
1206.25,1.99
1218.31,2.09
1230.49,2.19
1242.80,2.29
1255.22,2.39
1267.78,2.49
1280.45,2.57
1293.26,2.65
1306.19,2.73
1319.25,2.81
1332.45,2.89
1345.77,2.97
1359.23,3.05
1372.82,3.13
1386.55,3.21
1400.41,3.29
1414.42,3.38
1428.56,3.46
1442.85,3.54
1457.28,3.63
1471.85,3.71
1486.57,3.80
1501.43,3.89
1516.45,3.98
1531.61,4.08
1546.93,4.18
1562.40,4.28
1578.02,4.38
1593.80,4.48
1609.74,4.58
1625.84,4.69
1642.10,4.79
1658.52,4.90
1675.10,5.01
1691.85,5.11
1708.77,5.21
1725.86,5.32
1743.12,5.42
1760.55,5.52
1778.15,5.63
1795.94,5.73
1813.90,5.83
1832.03,5.93
1850.36,6.03
1868.86,6.14
1887.55,6.24
1906.42,6.34
1925.49,6.43
1944.74,6.53
1964.19,6.62
1983.83,6.72
2003.67,6.81
2023.71,6.90
2043.94,6.98
2064.38,7.07
2085.03,7.15
2105.88,7.23
2126.94,7.31
2148.20,7.39
2169.69,7.46
2191.38,7.53
2213.30,7.59
2235.43,7.66
2257.78,7.72
2280.36,7.78
2303.17,7.83
2326.20,7.88
2349.46,7.93
2372.95,7.97
2396.68,8.01
2420.65,8.04
2444.86,8.07
2469.31,8.09
2494.00,8.11
2518.94,8.12
2544.13,8.12
2569.57,8.12
2595.27,8.11
2621.22,8.09
2647.43,8.06
2673.90,8.03
2700.64,8.00
2727.65,7.96
2754.93,7.92
2782.48,7.87
2810.30,7.82
2838.40,7.77
2866.79,7.72
2895.46,7.67
2924.41,7.62
2953.65,7.57
2983.19,7.53
3013.02,7.48
3043.15,7.44
3073.58,7.40
3104.32,7.35
3135.36,7.31
3166.72,7.27
3198.38,7.24
3230.37,7.21
3262.67,7.18
3295.30,7.15
3328.25,7.13
3361.53,7.11
3395.15,7.10
3429.10,7.09
3463.39,7.09
3498.03,7.09
3533.01,7.10
3568.34,7.12
3604.02,7.14
3640.06,7.16
3676.46,7.18
3713.22,7.21
3750.36,7.24
3787.86,7.28
3825.74,7.31
3864.00,7.35
3902.64,7.38
3941.66,7.42
3981.08,7.45
4020.89,7.49
4061.10,7.52
4101.71,7.56
4142.73,7.59
4184.15,7.62
4226.00,7.63
4268.26,7.64
4310.94,7.63
4354.05,7.62
4397.59,7.60
4441.56,7.57
4485.98,7.51
4530.84,7.44
4576.15,7.35
4621.91,7.25
4668.13,7.12
4714.81,6.97
4761.96,6.81
4809.58,6.63
4857.67,6.43
4906.25,6.21
4955.31,5.97
5004.87,5.73
5054.91,5.46
5105.46,5.19
5156.52,4.92
5208.08,4.64
5260.16,4.35
5312.77,4.06
5365.89,3.77
5419.55,3.48
5473.75,3.20
5528.49,2.92
5583.77,2.65
5639.61,2.39
5696.00,2.13
5752.96,1.88
5810.49,1.64
5868.60,1.40
5927.28,1.18
5986.56,0.96
6046.42,0.76
6106.89,0.57
6167.96,0.40
6229.64,0.24
6291.93,0.11
6354.85,-0.01
6418.40,-0.11
6482.58,-0.20
6547.41,-0.27
6612.88,-0.32
6679.01,-0.34
6745.80,-0.34
6813.26,-0.32
6881.39,-0.27
6950.21,-0.19
7019.71,-0.10
7089.91,0.03
7160.81,0.18
7232.41,0.35
7304.74,0.54
7377.79,0.76
7451.56,1.00
7526.08,1.25
7601.34,1.50
7677.35,1.77
7754.13,2.03
7831.67,2.29
7909.98,2.54
7989.08,2.78
8068.98,2.98
8149.67,3.16
8231.16,3.29
8313.47,3.35
8396.61,3.37
8480.57,3.30
8565.38,3.14
8651.03,2.90
8737.54,2.57
8824.92,2.16
8913.17,1.65
9002.30,1.12
9092.32,0.48
9183.25,-0.20
9275.08,-0.91
9367.83,-1.64
9461.51,-2.36
9556.12,-3.05
9651.68,-3.70
9748.20,-4.30
9845.68,-4.81
9944.14,-5.26
10043.58,-5.65
10144.02,-5.99
10245.46,-6.24
10347.91,-6.44
10451.39,-6.60
10555.91,-6.68
10661.46,-6.72
10768.08,-6.70
10875.76,-6.62
10984.52,-6.46
11094.36,-6.26
11205.31,-5.98
11317.36,-5.61
11430.53,-5.21
11544.84,-4.72
11660.29,-4.18
11776.89,-3.61
11894.66,-3.02
12013.60,-2.42
12133.74,-1.87
12255.08,-1.43
12377.63,-1.09
12501.41,-0.90
12626.42,-0.97
12752.68,-1.24
12880.21,-1.77
13009.01,-2.43
13139.10,-3.09
13270.49,-3.96
13403.20,-4.86
13537.23,-5.78
13672.60,-6.69
13809.33,-7.58
13947.42,-8.41
14086.90,-9.16
14227.77,-9.87
14370.04,-10.53
14513.74,-11.12
14658.88,-11.63
14805.47,-12.12
14953.52,-12.56
15103.06,-12.98
15254.09,-13.39
15406.63,-13.77
15560.70,-14.14
15716.30,-14.50
15873.47,-14.86
16032.20,-15.20
16192.52,-15.51
16354.45,-15.78
16517.99,-16.01
16683.17,-16.15
16850.01,-16.24
17018.51,-16.29
17188.69,-16.29
17360.58,-16.28
17534.18,-16.26
17709.53,-16.27
17886.62,-16.32
18065.49,-16.41
18246.14,-16.55
18428.60,-16.74
18612.89,-16.96
18799.02,-17.22
18987.01,-17.53
19176.88,-17.93
19368.65,-18.39
19562.33,-18.90
19757.96,-19.40
19955.54,-19.73
