frequency,raw
20.00,3.30
20.20,3.39
20.40,3.48
20.61,3.56
20.81,3.63
21.02,3.69
21.23,3.75
21.44,3.81
21.66,3.85
21.87,3.90
22.09,3.95
22.31,3.99
22.54,4.04
22.76,4.10
22.99,4.16
23.22,4.22
23.45,4.29
23.69,4.36
23.92,4.44
24.16,4.52
24.40,4.61
24.65,4.71
24.89,4.81
25.14,4.92
25.39,5.03
25.65,5.15
25.91,5.26
26.16,5.38
26.43,5.49
26.69,5.60
26.96,5.70
27.23,5.81
27.50,5.90
27.77,5.99
28.05,6.08
28.33,6.16
28.62,6.23
28.90,6.29
29.19,6.35
29.48,6.40
29.78,6.45
30.08,6.49
30.38,6.52
30.68,6.55
30.99,6.58
31.30,6.61
31.61,6.65
31.93,6.68
32.24,6.71
32.57,6.75
32.89,6.78
33.22,6.82
33.55,6.86
33.89,6.90
34.23,6.93
34.57,6.97
34.92,7.00
35.27,7.03
35.62,7.05
35.97,7.07
36.33,7.08
36.70,7.09
37.06,7.10
37.43,7.11
37.81,7.11
38.19,7.12
38.57,7.12
38.95,7.12
39.34,7.12
39.74,7.12
40.14,7.13
40.54,7.13
40.94,7.13
41.35,7.14
41.76,7.15
42.18,7.15
42.60,7.16
43.03,7.17
43.46,7.18
43.90,7.19
44.33,7.20
44.78,7.21
45.23,7.22
45.68,7.24
46.13,7.25
46.60,7.26
47.06,7.28
47.53,7.30
48.01,7.32
48.49,7.35
48.97,7.37
49.46,7.40
49.96,7.42
50.46,7.43
50.96,7.45
51.47,7.46
51.99,7.48
52.51,7.50
53.03,7.53
53.56,7.55
54.10,7.58
54.64,7.61
55.18,7.65
55.74,7.68
56.29,7.72
56.86,7.75
57.42,7.78
58.00,7.81
58.58,7.84
59.16,7.87
59.76,7.89
60.35,7.92
60.96,7.94
61.57,7.97
62.18,7.99
62.80,8.01
63.43,8.03
64.07,8.05
64.71,8.06
65.35,8.07
66.01,8.07
66.67,8.07
67.33,8.07
68.01,8.07
68.69,8.06
69.37,8.04
70.07,8.02
70.77,8.00
71.48,7.97
72.19,7.94
72.91,7.90
73.64,7.86
74.38,7.82
75.12,7.78
75.87,7.73
76.63,7.68
77.40,7.62
78.17,7.55
78.95,7.48
79.74,7.41
80.54,7.33
81.35,7.25
82.16,7.16
82.98,7.08
83.81,6.99
84.65,6.90
85.50,6.81
86.35,6.72
87.22,6.62
88.09,6.52
88.97,6.42
89.86,6.32
90.76,6.22
91.66,6.12
92.58,6.02
93.51,5.92
94.44,5.82
95.39,5.72
96.34,5.61
97.30,5.51
98.28,5.40
99.26,5.30
100.25,5.19
101.25,5.09
102.27,4.99
103.29,4.90
104.32,4.80
105.37,4.70
106.42,4.60
107.48,4.50
108.56,4.41
109.64,4.32
110.74,4.24
111.85,4.15
112.97,4.07
114.10,3.99
115.24,3.90
116.39,3.81
117.55,3.72
118.73,3.64
119.92,3.56
121.12,3.48
122.33,3.40
123.55,3.33
124.79,3.26
126.03,3.18
127.29,3.10
128.57,3.03
129.85,2.96
131.15,2.89
132.46,2.83
133.79,2.77
135.12,2.71
136.48,2.65
137.84,2.59
139.22,2.53
140.61,2.47
142.02,2.42
143.44,2.36
144.87,2.31
146.32,2.26
147.78,2.21
149.26,2.16
150.75,2.11
152.26,2.06
153.78,2.01
155.32,1.96
156.88,1.91
158.44,1.86
160.03,1.81
161.63,1.77
163.24,1.72
164.88,1.68
166.53,1.64
168.19,1.60
169.87,1.56
171.57,1.52
173.29,1.48
175.02,1.44
176.77,1.39
178.54,1.34
180.32,1.29
182.13,1.23
183.95,1.16
185.79,1.09
187.65,1.01
189.52,0.92
191.42,0.83
193.33,0.75
195.27,0.68
197.22,0.63
199.19,0.59
201.18,0.57
203.19,0.55
205.23,0.55
207.28,0.56
209.35,0.56
211.44,0.56
213.56,0.56
215.69,0.55
217.85,0.54
220.03,0.52
222.23,0.50
224.45,0.47
226.70,0.44
228.96,0.40
231.25,0.37
233.57,0.33
235.90,0.30
238.26,0.27
240.64,0.24
243.05,0.22
245.48,0.19
247.93,0.17
250.41,0.15
252.92,0.13
255.45,0.11
258.00,0.09
260.58,0.08
263.19,0.07
265.82,0.06
268.48,0.05
271.16,0.04
273.87,0.04
276.61,0.03
279.38,0.02
282.17,0.01
284.99,0.00
287.84,-0.01
290.72,-0.03
293.63,-0.04
296.57,-0.05
299.53,-0.06
302.53,-0.08
305.55,-0.08
308.61,-0.09
311.69,-0.10
314.81,-0.11
317.96,-0.12
321.14,-0.13
324.35,-0.15
327.59,-0.16
330.87,-0.17
334.18,-0.18
337.52,-0.19
340.90,-0.20
344.30,-0.20
347.75,-0.20
351.23,-0.20
354.74,-0.21
358.28,-0.22
361.87,-0.22
365.49,-0.23
369.14,-0.23
372.83,-0.24
376.56,-0.24
380.33,-0.25
384.13,-0.25
387.97,-0.25
391.85,-0.26
395.77,-0.26
399.73,-0.26
403.72,-0.26
407.76,-0.27
411.84,-0.28
415.96,-0.29
420.12,-0.30
424.32,-0.31
428.56,-0.31
432.85,-0.32
437.18,-0.33
441.55,-0.34
445.96,-0.35
450.42,-0.35
454.93,-0.36
459.48,-0.36
464.07,-0.36
468.71,-0.36
473.40,-0.36
478.13,-0.37
482.91,-0.38
487.74,-0.40
492.62,-0.42
497.55,-0.44
502.52,-0.45
507.55,-0.47
512.62,-0.49
517.75,-0.50
522.93,-0.52
528.16,-0.54
533.44,-0.56
538.77,-0.58
544.16,-0.60
549.60,-0.62
555.10,-0.64
560.65,-0.66
566.25,-0.69
571.92,-0.71
577.64,-0.74
583.41,-0.76
589.25,-0.79
595.14,-0.81
601.09,-0.83
607.10,-0.86
613.17,-0.88
619.30,-0.90
625.50,-0.91
631.75,-0.93
638.07,-0.95
644.45,-0.97
650.89,-0.98
657.40,-0.99
663.98,-1.00
670.62,-1.00
677.32,-1.00
684.10,-1.00
690.94,-1.01
697.85,-1.01
704.83,-1.01
711.87,-1.02
718.99,-1.02
726.18,-1.03
733.44,-1.03
740.78,-1.03
748.19,-1.02
755.67,-1.02
763.23,-1.01
770.86,-0.99
778.57,-0.98
786.35,-0.97
794.22,-0.95
802.16,-0.94
810.18,-0.92
818.28,-0.91
826.46,-0.89
834.73,-0.87
843.08,-0.85
851.51,-0.82
860.02,-0.79
868.62,-0.75
877.31,-0.71
886.08,-0.67
894.94,-0.63
903.89,-0.59
912.93,-0.54
922.06,-0.50
931.28,-0.45
940.59,-0.39
950.00,-0.34
959.50,-0.28
969.09,-0.21
978.78,-0.15
988.57,-0.08
998.46,-0.01
1008.44,0.06
1018.53,0.12
1028.71,0.18
1039.00,0.25
1049.39,0.31
1059.88,0.38
1070.48,0.45
1081.19,0.51
1092.00,0.58
1102.92,0.64
1113.95,0.70
1125.09,0.76
1136.34,0.83
1147.70,0.88
1159.18,0.94
1170.77,1.00
1182.48,1.06
1194.30,1.12
1206.25,1.19
1218.31,1.25
1230.49,1.31
1242.80,1.37
1255.22,1.44
1267.78,1.51
1280.45,1.59
1293.26,1.65
1306.19,1.71
1319.25,1.77
1332.45,1.79
1345.77,1.80
1359.23,1.78
1372.82,1.75
1386.55,1.71
1400.41,1.66
1414.42,1.63
1428.56,1.59
1442.85,1.57
1457.28,1.57
1471.85,1.58
1486.57,1.60
1501.43,1.62
1516.45,1.65
1531.61,1.68
1546.93,1.71
1562.40,1.75
1578.02,1.78
1593.80,1.82
1609.74,1.87
1625.84,1.91
1642.10,1.96
1658.52,2.00
1675.10,2.05
1691.85,2.10
1708.77,2.14
1725.86,2.18
1743.12,2.23
1760.55,2.28
1778.15,2.32
1795.94,2.37
1813.90,2.42
1832.03,2.46
1850.36,2.50
1868.86,2.53
1887.55,2.57
1906.42,2.60
1925.49,2.63
1944.74,2.66
1964.19,2.69
1983.83,2.71
2003.67,2.73
2023.71,2.75
2043.94,2.76
2064.38,2.78
2085.03,2.78
2105.88,2.79
2126.94,2.79
2148.20,2.80
2169.69,2.81
2191.38,2.83
2213.30,2.86
2235.43,2.89
2257.78,2.93
2280.36,2.98
2303.17,3.03
2326.20,3.08
2349.46,3.15
2372.95,3.22
2396.68,3.30
2420.65,3.38
2444.86,3.47
2469.31,3.57
2494.00,3.66
2518.94,3.76
2544.13,3.85
2569.57,3.94
2595.27,4.03
2621.22,4.12
2647.43,4.20
2673.90,4.27
2700.64,4.33
2727.65,4.39
2754.93,4.44
2782.48,4.49
2810.30,4.52
2838.40,4.54
2866.79,4.55
2895.46,4.55
2924.41,4.54
2953.65,4.53
2983.19,4.49
3013.02,4.45
3043.15,4.39
3073.58,4.31
3104.32,4.21
3135.36,4.10
3166.72,3.96
3198.38,3.82
3230.37,3.65
3262.67,3.48
3295.30,3.28
3328.25,3.06
3361.53,2.83
3395.15,2.58
3429.10,2.31
3463.39,2.03
3498.03,1.74
3533.01,1.44
3568.34,1.15
3604.02,0.85
3640.06,0.58
3676.46,0.33
3713.22,0.10
3750.36,-0.10
3787.86,-0.22
3825.74,-0.33
3864.00,-0.36
3902.64,-0.30
3941.66,-0.22
3981.08,-0.06
4020.89,0.17
4061.10,0.43
4101.71,0.77
4142.73,1.13
4184.15,1.53
4226.00,1.96
4268.26,2.39
4310.94,2.83
4354.05,3.25
4397.59,3.65
4441.56,4.04
4485.98,4.35
4530.84,4.59
4576.15,4.73
4621.91,4.81
4668.13,4.74
4714.81,4.55
4761.96,4.28
4809.58,3.90
4857.67,3.44
4906.25,2.89
4955.31,2.30
5004.87,1.66
5054.91,0.99
5105.46,0.30
5156.52,-0.39
5208.08,-1.08
5260.16,-1.76
5312.77,-2.43
5365.89,-3.08
5419.55,-3.71
5473.75,-4.32
5528.49,-4.90
5583.77,-5.44
5639.61,-5.92
5696.00,-6.37
5752.96,-6.72
5810.49,-7.05
5868.60,-7.29
5927.28,-7.48
5986.56,-7.61
6046.42,-7.67
6106.89,-7.69
6167.96,-7.66
6229.64,-7.60
6291.93,-7.50
6354.85,-7.37
6418.40,-7.22
6482.58,-7.04
6547.41,-6.84
6612.88,-6.63
6679.01,-6.38
6745.80,-6.11
6813.26,-5.82
6881.39,-5.50
6950.21,-5.15
7019.71,-4.77
7089.91,-4.35
7160.81,-3.88
7232.41,-3.37
7304.74,-2.82
7377.79,-2.20
7451.56,-1.51
7526.08,-0.76
7601.34,0.06
7677.35,0.92
7754.13,1.81
7831.67,2.71
7909.98,3.60
7989.08,4.46
8068.98,5.23
8149.67,5.92
8231.16,6.49
8313.47,6.88
8396.61,7.15
8480.57,7.20
8565.38,7.04
8651.03,6.72
8737.54,6.24
8824.92,5.61
8913.17,4.87
9002.30,4.10
9092.32,3.29
9183.25,2.49
9275.08,1.71
9367.83,0.99
9461.51,0.33
9556.12,-0.25
9651.68,-0.77
9748.20,-1.22
9845.68,-1.59
9944.14,-1.91
10043.58,-2.17
10144.02,-2.40
10245.46,-2.56
10347.91,-2.69
10451.39,-2.79
10555.91,-2.84
10661.46,-2.88
10768.08,-2.91
10875.76,-2.91
10984.52,-2.89
11094.36,-2.85
11205.31,-2.78
11317.36,-2.68
11430.53,-2.58
11544.84,-2.50
11660.29,-2.45
11776.89,-2.43
11894.66,-2.51
12013.60,-2.61
12133.74,-2.78
12255.08,-3.03
12377.63,-3.33
12501.41,-3.68
12626.42,-4.08
12752.68,-4.52
12880.21,-5.01
13009.01,-5.52
13139.10,-6.03
13270.49,-6.61
13403.20,-7.19
13537.23,-7.77
13672.60,-8.29
13809.33,-8.77
13947.42,-9.13
14086.90,-9.37
14227.77,-9.53
14370.04,-9.59
14513.74,-9.52
14658.88,-9.27
14805.47,-8.94
14953.52,-8.48
15103.06,-7.93
15254.09,-7.33
15406.63,-6.65
15560.70,-5.94
15716.30,-5.20
15873.47,-4.45
16032.20,-3.72
16192.52,-3.10
16354.45,-2.70
16517.99,-2.44
16683.17,-2.55
16850.01,-2.86
17018.51,-3.34
17188.69,-3.99
17360.58,-4.66
17534.18,-5.31
17709.53,-5.82
17886.62,-6.13
18065.49,-6.28
18246.14,-6.25
18428.60,-6.03
18612.89,-5.78
18799.02,-5.52
18987.01,-5.31
19176.88,-5.26
19368.65,-5.32
19562.33,-5.49
19757.96,-5.74
19955.54,-5.98
