frequency,raw
20.00,-9.26
20.20,-9.32
20.40,-9.39
20.61,-9.45
20.81,-9.55
21.02,-9.56
21.23,-9.47
21.44,-9.21
21.66,-8.83
21.87,-8.44
22.09,-8.02
22.31,-7.61
22.54,-7.24
22.76,-6.91
22.99,-6.63
23.22,-6.43
23.45,-6.31
23.69,-6.28
23.92,-6.33
24.16,-6.46
24.40,-6.65
24.65,-6.88
24.89,-7.08
25.14,-7.21
25.39,-7.27
25.65,-7.13
25.91,-6.90
26.16,-6.55
26.43,-6.12
26.69,-5.65
26.96,-5.19
27.23,-4.78
27.50,-4.48
27.77,-4.30
28.05,-4.22
28.33,-4.31
28.62,-4.47
28.90,-4.71
29.19,-4.94
29.48,-5.16
29.78,-5.24
30.08,-5.26
30.38,-5.16
30.68,-4.98
30.99,-4.76
31.30,-4.54
31.61,-4.33
31.93,-4.15
32.24,-4.05
32.57,-4.00
32.89,-4.02
33.22,-4.06
33.55,-4.11
33.89,-4.10
34.23,-4.01
34.57,-3.84
34.92,-3.56
35.27,-3.21
35.62,-2.85
35.97,-2.48
36.33,-2.16
36.70,-1.92
37.06,-1.75
37.43,-1.70
37.81,-1.79
38.19,-1.90
38.57,-2.10
38.95,-2.22
39.34,-2.30
39.74,-2.21
40.14,-1.96
40.54,-1.61
40.94,-1.29
41.35,-1.05
41.76,-0.91
42.18,-0.89
42.60,-0.88
43.03,-0.88
43.46,-0.89
43.90,-0.93
44.33,-1.02
44.78,-1.14
45.23,-1.21
45.68,-1.15
46.13,-0.97
46.60,-0.70
47.06,-0.44
47.53,-0.19
48.01,-0.02
48.49,0.11
48.97,0.20
49.46,0.29
49.96,0.38
50.46,0.47
50.96,0.54
51.47,0.57
51.99,0.53
52.51,0.50
53.03,0.48
53.56,0.59
54.10,0.75
54.64,0.97
55.18,1.20
55.74,1.33
56.29,1.38
56.86,1.36
57.42,1.33
58.00,1.30
58.58,1.30
59.16,1.29
59.76,1.22
60.35,1.15
60.96,1.09
61.57,1.09
62.18,1.14
62.80,1.17
63.43,1.16
64.07,1.14
64.71,1.17
65.35,1.23
66.01,1.32
66.67,1.40
67.33,1.46
68.01,1.50
68.69,1.54
69.37,1.59
70.07,1.66
70.77,1.73
71.48,1.79
72.19,1.86
72.91,1.93
73.64,1.99
74.38,2.04
75.12,2.09
75.87,2.16
76.63,2.26
77.40,2.38
78.17,2.55
78.95,2.73
79.74,2.94
80.54,3.15
81.35,3.35
82.16,3.52
82.98,3.64
83.81,3.74
84.65,3.77
85.50,3.80
86.35,3.84
87.22,3.91
88.09,4.01
88.97,4.14
89.86,4.27
90.76,4.42
91.66,4.56
92.58,4.68
93.51,4.78
94.44,4.85
95.39,4.90
96.34,4.93
97.30,4.92
98.28,4.89
99.26,4.84
100.25,4.79
101.25,4.75
102.27,4.71
103.29,4.68
104.32,4.65
105.37,4.61
106.42,4.58
107.48,4.58
108.56,4.63
109.64,4.71
110.74,4.81
111.85,4.93
112.97,5.05
114.10,5.17
115.24,5.28
116.39,5.38
117.55,5.48
118.73,5.54
119.92,5.60
121.12,5.64
122.33,5.69
123.55,5.74
124.79,5.81
126.03,5.89
127.29,5.95
128.57,6.00
129.85,6.03
131.15,6.06
132.46,6.09
133.79,6.12
135.12,6.13
136.48,6.13
137.84,6.11
139.22,6.09
140.61,6.07
142.02,6.05
143.44,6.03
144.87,6.02
146.32,6.00
147.78,5.98
149.26,5.96
150.75,5.92
152.26,5.88
153.78,5.83
155.32,5.77
156.88,5.69
158.44,5.61
160.03,5.53
161.63,5.43
163.24,5.35
164.88,5.26
166.53,5.17
168.19,5.08
169.87,4.99
171.57,4.89
173.29,4.78
175.02,4.66
176.77,4.53
178.54,4.39
180.32,4.26
182.13,4.13
183.95,4.01
185.79,3.90
187.65,3.80
189.52,3.71
191.42,3.63
193.33,3.56
195.27,3.51
197.22,3.47
199.19,3.45
201.18,3.45
203.19,3.45
205.23,3.48
207.28,3.50
209.35,3.52
211.44,3.54
213.56,3.56
215.69,3.56
217.85,3.56
220.03,3.55
222.23,3.54
224.45,3.53
226.70,3.51
228.96,3.48
231.25,3.44
233.57,3.40
235.90,3.35
238.26,3.29
240.64,3.23
243.05,3.16
245.48,3.08
247.93,3.01
250.41,2.92
252.92,2.84
255.45,2.75
258.00,2.66
260.58,2.56
263.19,2.47
265.82,2.36
268.48,2.26
271.16,2.16
273.87,2.06
276.61,1.96
279.38,1.86
282.17,1.77
284.99,1.67
287.84,1.56
290.72,1.46
293.63,1.35
296.57,1.25
299.53,1.15
302.53,1.06
305.55,0.97
308.61,0.89
311.69,0.82
314.81,0.76
317.96,0.70
321.14,0.65
324.35,0.60
327.59,0.55
330.87,0.50
334.18,0.45
337.52,0.41
340.90,0.37
344.30,0.34
347.75,0.33
351.23,0.32
354.74,0.33
358.28,0.34
361.87,0.36
365.49,0.38
369.14,0.39
372.83,0.41
376.56,0.42
380.33,0.44
384.13,0.45
387.97,0.47
391.85,0.49
395.77,0.52
399.73,0.54
403.72,0.58
407.76,0.61
411.84,0.64
415.96,0.68
420.12,0.72
424.32,0.76
428.56,0.80
432.85,0.83
437.18,0.87
441.55,0.90
445.96,0.93
450.42,0.96
454.93,0.98
459.48,1.00
464.07,1.02
468.71,1.03
473.40,1.04
478.13,1.06
482.91,1.07
487.74,1.09
492.62,1.10
497.55,1.12
502.52,1.13
507.55,1.14
512.62,1.14
517.75,1.15
522.93,1.15
528.16,1.14
533.44,1.14
538.77,1.14
544.16,1.15
549.60,1.15
555.10,1.16
560.65,1.18
566.25,1.20
571.92,1.22
577.64,1.24
583.41,1.27
589.25,1.30
595.14,1.33
601.09,1.36
607.10,1.39
613.17,1.42
619.30,1.45
625.50,1.48
631.75,1.50
638.07,1.53
644.45,1.56
650.89,1.59
657.40,1.61
663.98,1.64
670.62,1.67
677.32,1.70
684.10,1.73
690.94,1.75
697.85,1.78
704.83,1.81
711.87,1.83
718.99,1.85
726.18,1.86
733.44,1.87
740.78,1.88
748.19,1.88
755.67,1.88
763.23,1.88
770.86,1.87
778.57,1.86
786.35,1.84
794.22,1.82
802.16,1.79
810.18,1.76
818.28,1.73
826.46,1.70
834.73,1.67
843.08,1.63
851.51,1.59
860.02,1.54
868.62,1.48
877.31,1.42
886.08,1.35
894.94,1.27
903.89,1.19
912.93,1.10
922.06,1.00
931.28,0.90
940.59,0.79
950.00,0.67
959.50,0.54
969.09,0.41
978.78,0.28
988.57,0.14
998.46,0.02
1008.44,-0.09
1018.53,-0.18
1028.71,-0.24
1039.00,-0.24
1049.39,-0.19
1059.88,-0.11
1070.48,0.03
1081.19,0.17
1092.00,0.32
1102.92,0.44
1113.95,0.53
1125.09,0.58
1136.34,0.60
1147.70,0.60
1159.18,0.58
1170.77,0.55
1182.48,0.51
1194.30,0.48
1206.25,0.44
1218.31,0.41
1230.49,0.38
1242.80,0.35
1255.22,0.33
1267.78,0.31
1280.45,0.30
1293.26,0.30
1306.19,0.29
1319.25,0.29
1332.45,0.29
1345.77,0.30
1359.23,0.31
1372.82,0.33
1386.55,0.35
1400.41,0.37
1414.42,0.41
1428.56,0.44
1442.85,0.48
1457.28,0.52
1471.85,0.55
1486.57,0.60
1501.43,0.64
1516.45,0.70
1531.61,0.76
1546.93,0.83
1562.40,0.91
1578.02,1.00
1593.80,1.09
1609.74,1.18
1625.84,1.27
1642.10,1.36
1658.52,1.45
1675.10,1.55
1691.85,1.64
1708.77,1.73
1725.86,1.83
1743.12,1.92
1760.55,2.01
1778.15,2.10
1795.94,2.18
1813.90,2.27
1832.03,2.35
1850.36,2.44
1868.86,2.53
1887.55,2.62
1906.42,2.71
1925.49,2.79
1944.74,2.89
1964.19,2.98
1983.83,3.07
2003.67,3.16
2023.71,3.24
2043.94,3.31
2064.38,3.37
2085.03,3.42
2105.88,3.47
2126.94,3.50
2148.20,3.53
2169.69,3.55
2191.38,3.56
2213.30,3.57
2235.43,3.57
2257.78,3.57
2280.36,3.57
2303.17,3.57
2326.20,3.57
2349.46,3.56
2372.95,3.55
2396.68,3.53
2420.65,3.51
2444.86,3.48
2469.31,3.45
2494.00,3.42
2518.94,3.38
2544.13,3.34
2569.57,3.29
2595.27,3.25
2621.22,3.19
2647.43,3.14
2673.90,3.08
2700.64,3.03
2727.65,2.99
2754.93,2.94
2782.48,2.91
2810.30,2.87
2838.40,2.84
2866.79,2.79
2895.46,2.72
2924.41,2.63
2953.65,2.52
2983.19,2.40
3013.02,2.28
3043.15,2.18
3073.58,2.15
3104.32,2.17
3135.36,2.23
3166.72,2.32
3198.38,2.41
3230.37,2.49
3262.67,2.57
3295.30,2.65
3328.25,2.73
3361.53,2.82
3395.15,2.91
3429.10,3.02
3463.39,3.14
3498.03,3.28
3533.01,3.44
3568.34,3.61
3604.02,3.80
3640.06,4.01
3676.46,4.24
3713.22,4.48
3750.36,4.73
3787.86,5.00
3825.74,5.26
3864.00,5.54
3902.64,5.82
3941.66,6.10
3981.08,6.38
4020.89,6.66
4061.10,6.94
4101.71,7.19
4142.73,7.41
4184.15,7.61
4226.00,7.78
4268.26,7.93
4310.94,8.08
4354.05,8.22
4397.59,8.35
4441.56,8.47
4485.98,8.56
4530.84,8.63
4576.15,8.66
4621.91,8.69
4668.13,8.70
4714.81,8.70
4761.96,8.69
4809.58,8.67
4857.67,8.64
4906.25,8.59
4955.31,8.53
5004.87,8.46
5054.91,8.38
5105.46,8.29
5156.52,8.19
5208.08,8.07
5260.16,7.94
5312.77,7.81
5365.89,7.67
5419.55,7.53
5473.75,7.42
5528.49,7.32
5583.77,7.23
5639.61,7.12
5696.00,7.00
5752.96,6.85
5810.49,6.70
5868.60,6.56
5927.28,6.45
5986.56,6.39
6046.42,6.39
6106.89,6.45
6167.96,6.53
6229.64,6.62
6291.93,6.67
6354.85,6.67
6418.40,6.65
6482.58,6.61
6547.41,6.60
6612.88,6.60
6679.01,6.64
6745.80,6.70
6813.26,6.78
6881.39,6.86
6950.21,6.94
7019.71,7.01
7089.91,7.08
7160.81,7.13
7232.41,7.16
7304.74,7.18
7377.79,7.16
7451.56,7.08
7526.08,6.95
7601.34,6.76
7677.35,6.49
7754.13,6.21
7831.67,5.89
7909.98,5.59
7989.08,5.32
8068.98,5.13
8149.67,5.01
8231.16,4.97
8313.47,5.04
8396.61,5.15
8480.57,5.33
8565.38,5.49
8651.03,5.61
8737.54,5.67
8824.92,5.58
8913.17,5.29
9002.30,4.92
9092.32,4.26
9183.25,3.41
9275.08,2.45
9367.83,1.36
9461.51,0.26
9556.12,-0.77
9651.68,-1.68
9748.20,-2.45
9845.68,-3.04
9944.14,-3.56
10043.58,-4.01
10144.02,-4.42
10245.46,-4.73
10347.91,-4.95
10451.39,-5.05
10555.91,-4.89
10661.46,-4.58
10768.08,-4.14
10875.76,-3.57
10984.52,-2.97
11094.36,-2.39
11205.31,-1.85
11317.36,-1.42
11430.53,-1.04
11544.84,-0.80
11660.29,-0.63
11776.89,-0.52
11894.66,-0.51
12013.60,-0.52
12133.74,-0.57
12255.08,-0.70
12377.63,-0.91
12501.41,-1.25
12626.42,-1.86
12752.68,-2.70
12880.21,-3.86
13009.01,-5.18
13139.10,-6.51
13270.49,-8.05
13403.20,-9.63
13537.23,-11.07
13672.60,-12.21
13809.33,-13.03
13947.42,-12.93
14086.90,-12.30
14227.77,-11.36
14370.04,-10.36
14513.74,-9.32
14658.88,-8.44
14805.47,-7.63
14953.52,-6.96
15103.06,-6.46
15254.09,-6.05
15406.63,-5.91
15560.70,-5.82
15716.30,-5.84
15873.47,-5.83
16032.20,-5.80
16192.52,-5.67
16354.45,-5.55
16517.99,-5.46
16683.17,-5.55
16850.01,-5.85
17018.51,-6.33
17188.69,-7.12
17360.58,-8.06
17534.18,-9.10
17709.53,-10.23
17886.62,-11.38
18065.49,-12.52
18246.14,-13.64
18428.60,-14.51
18612.89,-14.97
18799.02,-14.99
18987.01,-14.46
19176.88,-13.60
19368.65,-12.74
19562.33,-11.96
19757.96,-11.33
19955.54,-10.70
