frequency,raw
20.00,-5.20
20.20,-4.39
20.40,-3.58
20.61,-2.79
20.81,-2.01
21.02,-1.25
21.23,-0.50
21.44,0.18
21.66,0.79
21.87,1.36
22.09,1.80
22.31,2.16
22.54,2.43
22.76,2.59
22.99,2.66
23.22,2.64
23.45,2.58
23.69,2.50
23.92,2.42
24.16,2.37
24.40,2.34
24.65,2.33
24.89,2.32
25.14,2.31
25.39,2.28
25.65,2.19
25.91,2.08
26.16,1.93
26.43,1.77
26.69,1.61
26.96,1.47
27.23,1.36
27.50,1.33
27.77,1.35
28.05,1.44
28.33,1.61
28.62,1.82
28.90,2.06
29.19,2.31
29.48,2.58
29.78,2.84
30.08,3.11
30.38,3.36
30.68,3.58
30.99,3.77
31.30,3.91
31.61,4.01
31.93,4.07
32.24,4.09
32.57,4.10
32.89,4.09
33.22,4.07
33.55,4.05
33.89,4.02
34.23,3.99
34.57,3.94
34.92,3.88
35.27,3.84
35.62,3.81
35.97,3.81
36.33,3.86
36.70,3.93
37.06,4.02
37.43,4.11
37.81,4.21
38.19,4.30
38.57,4.40
38.95,4.50
39.34,4.61
39.74,4.70
40.14,4.78
40.54,4.84
40.94,4.88
41.35,4.91
41.76,4.93
42.18,4.93
42.60,4.93
43.03,4.92
43.46,4.93
43.90,4.95
44.33,4.99
44.78,5.04
45.23,5.10
45.68,5.17
46.13,5.23
46.60,5.27
47.06,5.30
47.53,5.32
48.01,5.33
48.49,5.33
48.97,5.34
49.46,5.35
49.96,5.37
50.46,5.41
50.96,5.46
51.47,5.51
51.99,5.56
52.51,5.62
53.03,5.68
53.56,5.74
54.10,5.79
54.64,5.82
55.18,5.84
55.74,5.85
56.29,5.85
56.86,5.86
57.42,5.86
58.00,5.86
58.58,5.87
59.16,5.88
59.76,5.89
60.35,5.91
60.96,5.95
61.57,5.99
62.18,6.02
62.80,6.04
63.43,6.05
64.07,6.05
64.71,6.04
65.35,6.04
66.01,6.04
66.67,6.06
67.33,6.08
68.01,6.10
68.69,6.12
69.37,6.15
70.07,6.17
70.77,6.19
71.48,6.20
72.19,6.22
72.91,6.22
73.64,6.23
74.38,6.22
75.12,6.22
75.87,6.21
76.63,6.20
77.40,6.19
78.17,6.19
78.95,6.20
79.74,6.21
80.54,6.23
81.35,6.25
82.16,6.27
82.98,6.29
83.81,6.31
84.65,6.32
85.50,6.33
86.35,6.33
87.22,6.32
88.09,6.32
88.97,6.32
89.86,6.34
90.76,6.35
91.66,6.36
92.58,6.36
93.51,6.34
94.44,6.31
95.39,6.28
96.34,6.24
97.30,6.21
98.28,6.18
99.26,6.16
100.25,6.14
101.25,6.14
102.27,6.15
103.29,6.15
104.32,6.16
105.37,6.16
106.42,6.15
107.48,6.15
108.56,6.14
109.64,6.12
110.74,6.11
111.85,6.10
112.97,6.09
114.10,6.07
115.24,6.06
116.39,6.04
117.55,6.02
118.73,6.01
119.92,5.99
121.12,5.97
122.33,5.95
123.55,5.94
124.79,5.93
126.03,5.91
127.29,5.90
128.57,5.88
129.85,5.86
131.15,5.84
132.46,5.83
133.79,5.81
135.12,5.80
136.48,5.79
137.84,5.77
139.22,5.76
140.61,5.74
142.02,5.73
143.44,5.72
144.87,5.70
146.32,5.69
147.78,5.67
149.26,5.64
150.75,5.61
152.26,5.58
153.78,5.54
155.32,5.51
156.88,5.48
158.44,5.46
160.03,5.43
161.63,5.40
163.24,5.38
164.88,5.36
166.53,5.34
168.19,5.32
169.87,5.30
171.57,5.28
173.29,5.25
175.02,5.22
176.77,5.19
178.54,5.15
180.32,5.12
182.13,5.09
183.95,5.05
185.79,5.00
187.65,4.94
189.52,4.87
191.42,4.81
193.33,4.74
195.27,4.69
197.22,4.65
199.19,4.62
201.18,4.59
203.19,4.58
205.23,4.57
207.28,4.57
209.35,4.57
211.44,4.56
213.56,4.55
215.69,4.52
217.85,4.50
220.03,4.46
222.23,4.43
224.45,4.39
226.70,4.36
228.96,4.33
231.25,4.29
233.57,4.25
235.90,4.20
238.26,4.16
240.64,4.12
243.05,4.09
245.48,4.05
247.93,4.02
250.41,3.98
252.92,3.94
255.45,3.90
258.00,3.87
260.58,3.83
263.19,3.79
265.82,3.75
268.48,3.71
271.16,3.67
273.87,3.62
276.61,3.57
279.38,3.51
282.17,3.46
284.99,3.40
287.84,3.35
290.72,3.30
293.63,3.27
296.57,3.24
299.53,3.21
302.53,3.18
305.55,3.14
308.61,3.11
311.69,3.07
314.81,3.03
317.96,2.99
321.14,2.95
324.35,2.90
327.59,2.85
330.87,2.80
334.18,2.75
337.52,2.70
340.90,2.65
344.30,2.60
347.75,2.56
351.23,2.51
354.74,2.47
358.28,2.43
361.87,2.39
365.49,2.35
369.14,2.31
372.83,2.27
376.56,2.22
380.33,2.17
384.13,2.12
387.97,2.07
391.85,2.02
395.77,1.97
399.73,1.92
403.72,1.87
407.76,1.82
411.84,1.76
415.96,1.71
420.12,1.66
424.32,1.62
428.56,1.57
432.85,1.52
437.18,1.47
441.55,1.42
445.96,1.37
450.42,1.32
454.93,1.28
459.48,1.24
464.07,1.19
468.71,1.14
473.40,1.09
478.13,1.03
482.91,0.97
487.74,0.91
492.62,0.86
497.55,0.82
502.52,0.77
507.55,0.72
512.62,0.68
517.75,0.63
522.93,0.58
528.16,0.54
533.44,0.49
538.77,0.43
544.16,0.38
549.60,0.34
555.10,0.29
560.65,0.25
566.25,0.21
571.92,0.18
577.64,0.14
583.41,0.12
589.25,0.09
595.14,0.06
601.09,0.02
607.10,-0.03
613.17,-0.08
619.30,-0.13
625.50,-0.18
631.75,-0.23
638.07,-0.26
644.45,-0.29
650.89,-0.31
657.40,-0.33
663.98,-0.34
670.62,-0.35
677.32,-0.37
684.10,-0.39
690.94,-0.42
697.85,-0.46
704.83,-0.50
711.87,-0.54
718.99,-0.57
726.18,-0.60
733.44,-0.62
740.78,-0.64
748.19,-0.66
755.67,-0.68
763.23,-0.70
770.86,-0.72
778.57,-0.73
786.35,-0.73
794.22,-0.73
802.16,-0.73
810.18,-0.73
818.28,-0.73
826.46,-0.72
834.73,-0.72
843.08,-0.70
851.51,-0.69
860.02,-0.66
868.62,-0.63
877.31,-0.61
886.08,-0.58
894.94,-0.55
903.89,-0.51
912.93,-0.47
922.06,-0.43
931.28,-0.39
940.59,-0.34
950.00,-0.29
959.50,-0.23
969.09,-0.18
978.78,-0.13
988.57,-0.07
998.46,-0.01
1008.44,0.06
1018.53,0.13
1028.71,0.21
1039.00,0.29
1049.39,0.37
1059.88,0.45
1070.48,0.53
1081.19,0.61
1092.00,0.68
1102.92,0.76
1113.95,0.84
1125.09,0.92
1136.34,0.99
1147.70,1.07
1159.18,1.16
1170.77,1.24
1182.48,1.34
1194.30,1.44
1206.25,1.54
1218.31,1.65
1230.49,1.75
1242.80,1.85
1255.22,1.95
1267.78,2.05
1280.45,2.15
1293.26,2.25
1306.19,2.35
1319.25,2.44
1332.45,2.51
1345.77,2.57
1359.23,2.61
1372.82,2.62
1386.55,2.62
1400.41,2.61
1414.42,2.61
1428.56,2.61
1442.85,2.62
1457.28,2.65
1471.85,2.69
1486.57,2.75
1501.43,2.81
1516.45,2.88
1531.61,2.95
1546.93,3.02
1562.40,3.09
1578.02,3.16
1593.80,3.24
1609.74,3.31
1625.84,3.38
1642.10,3.45
1658.52,3.51
1675.10,3.57
1691.85,3.63
1708.77,3.69
1725.86,3.74
1743.12,3.80
1760.55,3.87
1778.15,3.93
1795.94,3.99
1813.90,4.06
1832.03,4.12
1850.36,4.19
1868.86,4.25
1887.55,4.32
1906.42,4.39
1925.49,4.45
1944.74,4.51
1964.19,4.58
1983.83,4.64
2003.67,4.70
2023.71,4.77
2043.94,4.83
2064.38,4.88
2085.03,4.94
2105.88,5.00
2126.94,5.06
2148.20,5.12
2169.69,5.18
2191.38,5.24
2213.30,5.30
2235.43,5.35
2257.78,5.40
2280.36,5.45
2303.17,5.50
2326.20,5.54
2349.46,5.58
2372.95,5.61
2396.68,5.65
2420.65,5.68
2444.86,5.72
2469.31,5.75
2494.00,5.78
2518.94,5.81
2544.13,5.83
2569.57,5.84
2595.27,5.85
2621.22,5.87
2647.43,5.87
2673.90,5.88
2700.64,5.88
2727.65,5.87
2754.93,5.87
2782.48,5.86
2810.30,5.86
2838.40,5.87
2866.79,5.87
2895.46,5.88
2924.41,5.88
2953.65,5.88
2983.19,5.88
3013.02,5.87
3043.15,5.87
3073.58,5.86
3104.32,5.87
3135.36,5.87
3166.72,5.88
3198.38,5.90
3230.37,5.91
3262.67,5.93
3295.30,5.96
3328.25,5.98
3361.53,6.01
3395.15,6.04
3429.10,6.07
3463.39,6.11
3498.03,6.15
3533.01,6.19
3568.34,6.23
3604.02,6.28
3640.06,6.34
3676.46,6.41
3713.22,6.48
3750.36,6.56
3787.86,6.64
3825.74,6.73
3864.00,6.81
3902.64,6.90
3941.66,6.99
3981.08,7.08
4020.89,7.17
4061.10,7.25
4101.71,7.33
4142.73,7.40
4184.15,7.46
4226.00,7.51
4268.26,7.56
4310.94,7.62
4354.05,7.68
4397.59,7.75
4441.56,7.83
4485.98,7.94
4530.84,8.06
4576.15,8.19
4621.91,8.32
4668.13,8.45
4714.81,8.55
4761.96,8.62
4809.58,8.65
4857.67,8.62
4906.25,8.52
4955.31,8.38
5004.87,8.19
5054.91,7.93
5105.46,7.64
5156.52,7.32
5208.08,6.98
5260.16,6.62
5312.77,6.25
5365.89,5.88
5419.55,5.50
5473.75,5.14
5528.49,4.78
5583.77,4.44
5639.61,4.13
5696.00,3.82
5752.96,3.54
5810.49,3.27
5868.60,3.03
5927.28,2.81
5986.56,2.61
6046.42,2.43
6106.89,2.26
6167.96,2.10
6229.64,1.94
6291.93,1.79
6354.85,1.67
6418.40,1.55
6482.58,1.46
6547.41,1.38
6612.88,1.32
6679.01,1.27
6745.80,1.25
6813.26,1.24
6881.39,1.25
6950.21,1.29
7019.71,1.34
7089.91,1.43
7160.81,1.56
7232.41,1.73
7304.74,1.92
7377.79,2.16
7451.56,2.44
7526.08,2.76
7601.34,3.12
7677.35,3.50
7754.13,3.90
7831.67,4.32
7909.98,4.73
7989.08,5.15
8068.98,5.59
8149.67,6.04
8231.16,6.52
8313.47,7.05
8396.61,7.60
8480.57,8.20
8565.38,8.82
8651.03,9.44
8737.54,10.06
8824.92,10.62
8913.17,11.09
9002.30,11.52
9092.32,11.77
9183.25,11.90
9275.08,11.92
9367.83,11.81
9461.51,11.60
9556.12,11.34
9651.68,11.04
9748.20,10.72
9845.68,10.40
9944.14,10.09
10043.58,9.82
10144.02,9.58
10245.46,9.43
10347.91,9.32
10451.39,9.26
10555.91,9.26
10661.46,9.26
10768.08,9.27
10875.76,9.23
10984.52,9.13
11094.36,8.98
11205.31,8.74
11317.36,8.38
11430.53,7.98
11544.84,7.49
11660.29,6.96
11776.89,6.41
11894.66,5.83
12013.60,5.24
12133.74,4.65
12255.08,4.06
12377.63,3.47
12501.41,2.89
12626.42,2.32
12752.68,1.75
12880.21,1.20
13009.01,0.66
13139.10,0.11
13270.49,-0.44
13403.20,-1.00
13537.23,-1.54
13672.60,-2.08
13809.33,-2.61
13947.42,-3.15
14086.90,-3.71
14227.77,-4.29
14370.04,-4.89
14513.74,-5.53
14658.88,-6.17
14805.47,-6.77
14953.52,-7.29
15103.06,-7.64
15254.09,-7.92
15406.63,-8.20
15560.70,-8.60
15716.30,-9.16
15873.47,-9.84
16032.20,-10.50
16192.52,-10.96
16354.45,-11.20
16517.99,-11.30
16683.17,-11.28
16850.01,-11.27
17018.51,-11.27
17188.69,-11.35
17360.58,-11.48
17534.18,-11.64
17709.53,-11.77
17886.62,-11.83
18065.49,-11.80
18246.14,-11.67
18428.60,-11.38
18612.89,-11.02
18799.02,-10.61
18987.01,-10.20
19176.88,-9.85
19368.65,-9.59
19562.33,-9.43
19757.96,-9.39
19955.54,-9.36
