frequency,raw
20.00,0.86
20.20,1.22
20.40,1.59
20.61,1.95
20.81,2.31
21.02,2.66
21.23,3.00
21.44,3.32
21.66,3.62
21.87,3.91
22.09,4.17
22.31,4.40
22.54,4.60
22.76,4.77
22.99,4.91
23.22,5.01
23.45,5.08
23.69,5.13
23.92,5.16
24.16,5.19
24.40,5.19
24.65,5.19
24.89,5.17
25.14,5.14
25.39,5.10
25.65,5.05
25.91,5.00
26.16,4.96
26.43,4.93
26.69,4.93
26.96,4.95
27.23,5.01
27.50,5.10
27.77,5.21
28.05,5.34
28.33,5.49
28.62,5.65
28.90,5.81
29.19,5.97
29.48,6.14
29.78,6.30
30.08,6.45
30.38,6.60
30.68,6.74
30.99,6.86
31.30,6.95
31.61,7.03
31.93,7.09
32.24,7.14
32.57,7.18
32.89,7.21
33.22,7.23
33.55,7.25
33.89,7.27
34.23,7.28
34.57,7.30
34.92,7.32
35.27,7.36
35.62,7.39
35.97,7.44
36.33,7.50
36.70,7.57
37.06,7.64
37.43,7.71
37.81,7.79
38.19,7.87
38.57,7.94
38.95,8.01
39.34,8.08
39.74,8.14
40.14,8.19
40.54,8.23
40.94,8.27
41.35,8.30
41.76,8.33
42.18,8.35
42.60,8.38
43.03,8.41
43.46,8.44
43.90,8.47
44.33,8.51
44.78,8.55
45.23,8.58
45.68,8.62
46.13,8.65
46.60,8.68
47.06,8.72
47.53,8.76
48.01,8.80
48.49,8.84
48.97,8.88
49.46,8.91
49.96,8.94
50.46,8.97
50.96,8.99
51.47,9.01
51.99,9.03
52.51,9.05
53.03,9.08
53.56,9.10
54.10,9.11
54.64,9.13
55.18,9.14
55.74,9.15
56.29,9.16
56.86,9.17
57.42,9.18
58.00,9.19
58.58,9.21
59.16,9.23
59.76,9.25
60.35,9.26
60.96,9.28
61.57,9.29
62.18,9.30
62.80,9.31
63.43,9.31
64.07,9.32
64.71,9.32
65.35,9.32
66.01,9.32
66.67,9.32
67.33,9.33
68.01,9.34
68.69,9.35
69.37,9.36
70.07,9.36
70.77,9.37
71.48,9.36
72.19,9.36
72.91,9.35
73.64,9.34
74.38,9.34
75.12,9.33
75.87,9.33
76.63,9.33
77.40,9.32
78.17,9.32
78.95,9.31
79.74,9.31
80.54,9.30
81.35,9.30
82.16,9.29
82.98,9.29
83.81,9.28
84.65,9.27
85.50,9.26
86.35,9.24
87.22,9.23
88.09,9.21
88.97,9.20
89.86,9.19
90.76,9.17
91.66,9.16
92.58,9.14
93.51,9.12
94.44,9.10
95.39,9.08
96.34,9.06
97.30,9.04
98.28,9.02
99.26,9.00
100.25,8.98
101.25,8.97
102.27,8.95
103.29,8.92
104.32,8.90
105.37,8.88
106.42,8.86
107.48,8.84
108.56,8.81
109.64,8.79
110.74,8.77
111.85,8.74
112.97,8.71
114.10,8.68
115.24,8.65
116.39,8.62
117.55,8.59
118.73,8.56
119.92,8.53
121.12,8.50
122.33,8.48
123.55,8.45
124.79,8.42
126.03,8.39
127.29,8.36
128.57,8.32
129.85,8.28
131.15,8.25
132.46,8.21
133.79,8.17
135.12,8.14
136.48,8.10
137.84,8.07
139.22,8.03
140.61,8.00
142.02,7.97
143.44,7.93
144.87,7.90
146.32,7.86
147.78,7.83
149.26,7.78
150.75,7.74
152.26,7.69
153.78,7.64
155.32,7.60
156.88,7.55
158.44,7.51
160.03,7.47
161.63,7.43
163.24,7.39
164.88,7.34
166.53,7.30
168.19,7.26
169.87,7.22
171.57,7.18
173.29,7.14
175.02,7.09
176.77,7.05
178.54,7.01
180.32,6.96
182.13,6.90
183.95,6.84
185.79,6.77
187.65,6.70
189.52,6.62
191.42,6.54
193.33,6.46
195.27,6.39
197.22,6.34
199.19,6.29
201.18,6.24
203.19,6.21
205.23,6.18
207.28,6.15
209.35,6.13
211.44,6.10
213.56,6.07
215.69,6.03
217.85,5.98
220.03,5.93
222.23,5.88
224.45,5.82
226.70,5.77
228.96,5.71
231.25,5.66
233.57,5.60
235.90,5.54
238.26,5.49
240.64,5.43
243.05,5.36
245.48,5.30
247.93,5.24
250.41,5.17
252.92,5.11
255.45,5.05
258.00,4.99
260.58,4.94
263.19,4.88
265.82,4.83
268.48,4.77
271.16,4.72
273.87,4.66
276.61,4.60
279.38,4.53
282.17,4.47
284.99,4.41
287.84,4.36
290.72,4.30
293.63,4.24
296.57,4.18
299.53,4.12
302.53,4.06
305.55,3.99
308.61,3.93
311.69,3.86
314.81,3.80
317.96,3.74
321.14,3.67
324.35,3.61
327.59,3.54
330.87,3.48
334.18,3.41
337.52,3.35
340.90,3.29
344.30,3.24
347.75,3.18
351.23,3.12
354.74,3.05
358.28,2.99
361.87,2.93
365.49,2.87
369.14,2.81
372.83,2.75
376.56,2.69
380.33,2.63
384.13,2.57
387.97,2.51
391.85,2.44
395.77,2.38
399.73,2.31
403.72,2.24
407.76,2.17
411.84,2.11
415.96,2.04
420.12,1.98
424.32,1.92
428.56,1.86
432.85,1.81
437.18,1.75
441.55,1.70
445.96,1.64
450.42,1.58
454.93,1.52
459.48,1.45
464.07,1.39
468.71,1.32
473.40,1.26
478.13,1.19
482.91,1.13
487.74,1.07
492.62,1.00
497.55,0.94
502.52,0.87
507.55,0.82
512.62,0.76
517.75,0.70
522.93,0.64
528.16,0.59
533.44,0.53
538.77,0.47
544.16,0.41
549.60,0.36
555.10,0.31
560.65,0.26
566.25,0.20
571.92,0.15
577.64,0.10
583.41,0.04
589.25,-0.01
595.14,-0.07
601.09,-0.12
607.10,-0.16
613.17,-0.21
619.30,-0.26
625.50,-0.30
631.75,-0.34
638.07,-0.37
644.45,-0.41
650.89,-0.45
657.40,-0.49
663.98,-0.54
670.62,-0.59
677.32,-0.64
684.10,-0.69
690.94,-0.73
697.85,-0.75
704.83,-0.78
711.87,-0.81
718.99,-0.83
726.18,-0.86
733.44,-0.88
740.78,-0.90
748.19,-0.92
755.67,-0.93
763.23,-0.94
770.86,-0.96
778.57,-0.97
786.35,-0.98
794.22,-0.99
802.16,-0.99
810.18,-0.97
818.28,-0.94
826.46,-0.91
834.73,-0.88
843.08,-0.85
851.51,-0.82
860.02,-0.78
868.62,-0.75
877.31,-0.71
886.08,-0.66
894.94,-0.61
903.89,-0.56
912.93,-0.50
922.06,-0.45
931.28,-0.40
940.59,-0.36
950.00,-0.31
959.50,-0.26
969.09,-0.21
978.78,-0.14
988.57,-0.08
998.46,-0.01
1008.44,0.06
1018.53,0.13
1028.71,0.21
1039.00,0.29
1049.39,0.36
1059.88,0.44
1070.48,0.53
1081.19,0.61
1092.00,0.70
1102.92,0.78
1113.95,0.85
1125.09,0.93
1136.34,1.00
1147.70,1.09
1159.18,1.18
1170.77,1.27
1182.48,1.37
1194.30,1.48
1206.25,1.58
1218.31,1.69
1230.49,1.80
1242.80,1.90
1255.22,2.01
1267.78,2.13
1280.45,2.25
1293.26,2.36
1306.19,2.47
1319.25,2.57
1332.45,2.65
1345.77,2.70
1359.23,2.75
1372.82,2.77
1386.55,2.78
1400.41,2.79
1414.42,2.81
1428.56,2.83
1442.85,2.86
1457.28,2.92
1471.85,2.98
1486.57,3.05
1501.43,3.13
1516.45,3.22
1531.61,3.31
1546.93,3.41
1562.40,3.51
1578.02,3.62
1593.80,3.72
1609.74,3.83
1625.84,3.94
1642.10,4.04
1658.52,4.15
1675.10,4.26
1691.85,4.37
1708.77,4.49
1725.86,4.61
1743.12,4.73
1760.55,4.85
1778.15,4.97
1795.94,5.09
1813.90,5.21
1832.03,5.34
1850.36,5.47
1868.86,5.61
1887.55,5.74
1906.42,5.88
1925.49,6.02
1944.74,6.15
1964.19,6.29
1983.83,6.43
2003.67,6.57
2023.71,6.72
2043.94,6.87
2064.38,7.01
2085.03,7.16
2105.88,7.30
2126.94,7.44
2148.20,7.59
2169.69,7.73
2191.38,7.87
2213.30,8.01
2235.43,8.14
2257.78,8.27
2280.36,8.39
2303.17,8.51
2326.20,8.61
2349.46,8.71
2372.95,8.80
2396.68,8.89
2420.65,8.97
2444.86,9.03
2469.31,9.09
2494.00,9.14
2518.94,9.17
2544.13,9.20
2569.57,9.21
2595.27,9.22
2621.22,9.21
2647.43,9.20
2673.90,9.18
2700.64,9.14
2727.65,9.10
2754.93,9.05
2782.48,9.00
2810.30,8.94
2838.40,8.87
2866.79,8.81
2895.46,8.73
2924.41,8.66
2953.65,8.58
2983.19,8.50
3013.02,8.42
3043.15,8.33
3073.58,8.25
3104.32,8.17
3135.36,8.09
3166.72,8.02
3198.38,7.94
3230.37,7.86
3262.67,7.79
3295.30,7.72
3328.25,7.65
3361.53,7.59
3395.15,7.53
3429.10,7.47
3463.39,7.41
3498.03,7.35
3533.01,7.31
3568.34,7.26
3604.02,7.23
3640.06,7.20
3676.46,7.18
3713.22,7.17
3750.36,7.18
3787.86,7.20
3825.74,7.23
3864.00,7.27
3902.64,7.33
3941.66,7.39
3981.08,7.46
4020.89,7.53
4061.10,7.61
4101.71,7.69
4142.73,7.77
4184.15,7.86
4226.00,7.95
4268.26,8.06
4310.94,8.17
4354.05,8.31
4397.59,8.46
4441.56,8.62
4485.98,8.80
4530.84,9.01
4576.15,9.23
4621.91,9.47
4668.13,9.72
4714.81,9.98
4761.96,10.25
4809.58,10.51
4857.67,10.76
4906.25,10.98
4955.31,11.19
5004.87,11.37
5054.91,11.48
5105.46,11.56
5156.52,11.58
5208.08,11.52
5260.16,11.39
5312.77,11.20
5365.89,10.94
5419.55,10.61
5473.75,10.21
5528.49,9.77
5583.77,9.28
5639.61,8.78
5696.00,8.27
5752.96,7.78
5810.49,7.30
5868.60,6.81
5927.28,6.32
5986.56,5.83
6046.42,5.35
6106.89,4.87
6167.96,4.41
6229.64,3.95
6291.93,3.50
6354.85,3.07
6418.40,2.65
6482.58,2.25
6547.41,1.87
6612.88,1.50
6679.01,1.17
6745.80,0.87
6813.26,0.59
6881.39,0.34
6950.21,0.12
7019.71,-0.08
7089.91,-0.26
7160.81,-0.39
7232.41,-0.49
7304.74,-0.56
7377.79,-0.58
7451.56,-0.56
7526.08,-0.50
7601.34,-0.41
7677.35,-0.28
7754.13,-0.15
7831.67,0.00
7909.98,0.15
7989.08,0.31
8068.98,0.48
8149.67,0.67
8231.16,0.88
8313.47,1.17
8396.61,1.51
8480.57,1.94
8565.38,2.46
8651.03,3.06
8737.54,3.75
8824.92,4.52
8913.17,5.36
9002.30,6.23
9092.32,7.09
9183.25,7.89
9275.08,8.61
9367.83,9.18
9461.51,9.50
9556.12,9.59
9651.68,9.45
9748.20,9.10
9845.68,8.47
9944.14,7.71
10043.58,6.85
10144.02,5.94
10245.46,5.05
10347.91,4.19
10451.39,3.40
10555.91,2.72
10661.46,2.12
10768.08,1.62
10875.76,1.25
10984.52,1.02
11094.36,0.89
11205.31,0.90
11317.36,1.10
11430.53,1.40
11544.84,1.88
11660.29,2.47
11776.89,3.11
11894.66,3.75
12013.60,4.37
12133.74,4.82
12255.08,4.95
12377.63,4.82
12501.41,4.37
12626.42,3.48
12752.68,2.30
12880.21,0.86
13009.01,-0.69
13139.10,-2.25
13270.49,-3.88
13403.20,-5.51
13537.23,-7.04
13672.60,-8.47
13809.33,-9.80
13947.42,-10.91
14086.90,-11.84
14227.77,-12.67
14370.04,-13.41
14513.74,-14.03
14658.88,-14.51
14805.47,-14.95
14953.52,-15.29
15103.06,-15.59
15254.09,-15.86
15406.63,-16.06
15560.70,-16.23
15716.30,-16.35
15873.47,-16.31
16032.20,-16.16
16192.52,-15.76
16354.45,-15.14
16517.99,-14.36
16683.17,-13.33
16850.01,-12.22
17018.51,-11.08
17188.69,-10.06
17360.58,-9.30
17534.18,-8.79
17709.53,-8.77
17886.62,-9.21
18065.49,-9.92
18246.14,-10.87
18428.60,-11.88
18612.89,-12.78
18799.02,-13.51
18987.01,-14.02
19176.88,-14.28
19368.65,-14.45
19562.33,-14.61
19757.96,-14.80
19955.54,-14.99
