frequency,raw
20.00,6.27
20.20,6.27
20.40,6.27
20.61,6.28
20.81,6.28
21.02,6.27
21.23,6.27
21.44,6.26
21.66,6.25
21.87,6.24
22.09,6.23
22.31,6.22
22.54,6.21
22.76,6.20
22.99,6.20
23.22,6.21
23.45,6.22
23.69,6.25
23.92,6.28
24.16,6.32
24.40,6.37
24.65,6.41
24.89,6.45
25.14,6.47
25.39,6.48
25.65,6.48
25.91,6.47
26.16,6.45
26.43,6.44
26.69,6.44
26.96,6.45
27.23,6.47
27.50,6.50
27.77,6.53
28.05,6.56
28.33,6.57
28.62,6.59
28.90,6.60
29.19,6.61
29.48,6.63
29.78,6.66
30.08,6.70
30.38,6.75
30.68,6.79
30.99,6.83
31.30,6.85
31.61,6.86
31.93,6.88
32.24,6.89
32.57,6.90
32.89,6.92
33.22,6.94
33.55,6.96
33.89,6.98
34.23,7.00
34.57,7.01
34.92,7.03
35.27,7.05
35.62,7.06
35.97,7.07
36.33,7.07
36.70,7.07
37.06,7.07
37.43,7.07
37.81,7.07
38.19,7.07
38.57,7.08
38.95,7.09
39.34,7.11
39.74,7.11
40.14,7.12
40.54,7.12
40.94,7.12
41.35,7.12
41.76,7.12
42.18,7.12
42.60,7.11
43.03,7.11
43.46,7.11
43.90,7.11
44.33,7.11
44.78,7.11
45.23,7.10
45.68,7.09
46.13,7.09
46.60,7.08
47.06,7.07
47.53,7.06
48.01,7.05
48.49,7.04
48.97,7.03
49.46,7.02
49.96,7.01
50.46,7.00
50.96,6.99
51.47,6.97
51.99,6.95
52.51,6.93
53.03,6.90
53.56,6.87
54.10,6.85
54.64,6.82
55.18,6.80
55.74,6.77
56.29,6.74
56.86,6.72
57.42,6.69
58.00,6.66
58.58,6.63
59.16,6.60
59.76,6.58
60.35,6.55
60.96,6.52
61.57,6.49
62.18,6.46
62.80,6.43
63.43,6.40
64.07,6.37
64.71,6.34
65.35,6.30
66.01,6.27
66.67,6.24
67.33,6.21
68.01,6.18
68.69,6.14
69.37,6.10
70.07,6.06
70.77,6.02
71.48,5.98
72.19,5.94
72.91,5.90
73.64,5.86
74.38,5.82
75.12,5.78
75.87,5.74
76.63,5.71
77.40,5.66
78.17,5.62
78.95,5.58
79.74,5.53
80.54,5.49
81.35,5.45
82.16,5.41
82.98,5.36
83.81,5.32
84.65,5.27
85.50,5.21
86.35,5.16
87.22,5.11
88.09,5.06
88.97,5.01
89.86,4.95
90.76,4.90
91.66,4.85
92.58,4.81
93.51,4.76
94.44,4.70
95.39,4.65
96.34,4.60
97.30,4.55
98.28,4.50
99.26,4.45
100.25,4.40
101.25,4.35
102.27,4.30
103.29,4.25
104.32,4.19
105.37,4.14
106.42,4.08
107.48,4.03
108.56,3.97
109.64,3.92
110.74,3.86
111.85,3.80
112.97,3.75
114.10,3.69
115.24,3.64
116.39,3.57
117.55,3.51
118.73,3.45
119.92,3.38
121.12,3.32
122.33,3.27
123.55,3.22
124.79,3.17
126.03,3.11
127.29,3.06
128.57,3.01
129.85,2.96
131.15,2.91
132.46,2.86
133.79,2.80
135.12,2.74
136.48,2.68
137.84,2.62
139.22,2.56
140.61,2.50
142.02,2.44
143.44,2.38
144.87,2.33
146.32,2.27
147.78,2.21
149.26,2.15
150.75,2.09
152.26,2.03
153.78,1.97
155.32,1.92
156.88,1.87
158.44,1.83
160.03,1.79
161.63,1.74
163.24,1.69
164.88,1.64
166.53,1.60
168.19,1.55
169.87,1.51
171.57,1.47
173.29,1.42
175.02,1.37
176.77,1.32
178.54,1.26
180.32,1.21
182.13,1.16
183.95,1.11
185.79,1.05
187.65,1.00
189.52,0.95
191.42,0.90
193.33,0.84
195.27,0.79
197.22,0.74
199.19,0.71
201.18,0.68
203.19,0.65
205.23,0.63
207.28,0.62
209.35,0.60
211.44,0.58
213.56,0.56
215.69,0.52
217.85,0.49
220.03,0.46
222.23,0.42
224.45,0.39
226.70,0.36
228.96,0.32
231.25,0.29
233.57,0.25
235.90,0.22
238.26,0.19
240.64,0.16
243.05,0.14
245.48,0.12
247.93,0.11
250.41,0.09
252.92,0.07
255.45,0.05
258.00,0.03
260.58,0.01
263.19,-0.02
265.82,-0.04
268.48,-0.07
271.16,-0.09
273.87,-0.10
276.61,-0.11
279.38,-0.12
282.17,-0.13
284.99,-0.15
287.84,-0.16
290.72,-0.17
293.63,-0.18
296.57,-0.20
299.53,-0.21
302.53,-0.23
305.55,-0.25
308.61,-0.27
311.69,-0.28
314.81,-0.29
317.96,-0.30
321.14,-0.31
324.35,-0.33
327.59,-0.34
330.87,-0.35
334.18,-0.36
337.52,-0.37
340.90,-0.37
344.30,-0.37
347.75,-0.37
351.23,-0.38
354.74,-0.40
358.28,-0.41
361.87,-0.42
365.49,-0.42
369.14,-0.42
372.83,-0.41
376.56,-0.40
380.33,-0.40
384.13,-0.39
387.97,-0.39
391.85,-0.38
395.77,-0.38
399.73,-0.39
403.72,-0.39
407.76,-0.40
411.84,-0.40
415.96,-0.39
420.12,-0.39
424.32,-0.38
428.56,-0.38
432.85,-0.38
437.18,-0.39
441.55,-0.39
445.96,-0.40
450.42,-0.41
454.93,-0.41
459.48,-0.41
464.07,-0.41
468.71,-0.41
473.40,-0.41
478.13,-0.41
482.91,-0.40
487.74,-0.40
492.62,-0.39
497.55,-0.38
502.52,-0.37
507.55,-0.36
512.62,-0.35
517.75,-0.35
522.93,-0.34
528.16,-0.34
533.44,-0.34
538.77,-0.34
544.16,-0.34
549.60,-0.34
555.10,-0.33
560.65,-0.33
566.25,-0.34
571.92,-0.34
577.64,-0.35
583.41,-0.37
589.25,-0.38
595.14,-0.40
601.09,-0.41
607.10,-0.41
613.17,-0.42
619.30,-0.42
625.50,-0.42
631.75,-0.42
638.07,-0.42
644.45,-0.43
650.89,-0.44
657.40,-0.44
663.98,-0.45
670.62,-0.46
677.32,-0.47
684.10,-0.48
690.94,-0.49
697.85,-0.49
704.83,-0.50
711.87,-0.50
718.99,-0.50
726.18,-0.50
733.44,-0.51
740.78,-0.51
748.19,-0.50
755.67,-0.51
763.23,-0.51
770.86,-0.52
778.57,-0.52
786.35,-0.53
794.22,-0.53
802.16,-0.52
810.18,-0.52
818.28,-0.51
826.46,-0.51
834.73,-0.50
843.08,-0.49
851.51,-0.49
860.02,-0.47
868.62,-0.46
877.31,-0.44
886.08,-0.42
894.94,-0.40
903.89,-0.37
912.93,-0.34
922.06,-0.31
931.28,-0.27
940.59,-0.23
950.00,-0.19
959.50,-0.15
969.09,-0.11
978.78,-0.08
988.57,-0.05
998.46,-0.01
1008.44,0.04
1018.53,0.08
1028.71,0.13
1039.00,0.18
1049.39,0.24
1059.88,0.29
1070.48,0.34
1081.19,0.39
1092.00,0.44
1102.92,0.48
1113.95,0.53
1125.09,0.57
1136.34,0.62
1147.70,0.66
1159.18,0.71
1170.77,0.76
1182.48,0.82
1194.30,0.88
1206.25,0.94
1218.31,1.00
1230.49,1.07
1242.80,1.14
1255.22,1.21
1267.78,1.29
1280.45,1.37
1293.26,1.44
1306.19,1.51
1319.25,1.58
1332.45,1.62
1345.77,1.64
1359.23,1.64
1372.82,1.62
1386.55,1.59
1400.41,1.55
1414.42,1.53
1428.56,1.51
1442.85,1.52
1457.28,1.53
1471.85,1.56
1486.57,1.61
1501.43,1.66
1516.45,1.72
1531.61,1.78
1546.93,1.85
1562.40,1.91
1578.02,1.98
1593.80,2.05
1609.74,2.11
1625.84,2.18
1642.10,2.26
1658.52,2.33
1675.10,2.40
1691.85,2.47
1708.77,2.55
1725.86,2.62
1743.12,2.71
1760.55,2.80
1778.15,2.90
1795.94,3.00
1813.90,3.10
1832.03,3.20
1850.36,3.32
1868.86,3.44
1887.55,3.57
1906.42,3.71
1925.49,3.85
1944.74,4.00
1964.19,4.16
1983.83,4.32
2003.67,4.48
2023.71,4.65
2043.94,4.82
2064.38,5.00
2085.03,5.19
2105.88,5.38
2126.94,5.59
2148.20,5.79
2169.69,6.01
2191.38,6.22
2213.30,6.44
2235.43,6.67
2257.78,6.90
2280.36,7.12
2303.17,7.35
2326.20,7.57
2349.46,7.79
2372.95,8.01
2396.68,8.22
2420.65,8.42
2444.86,8.61
2469.31,8.80
2494.00,8.97
2518.94,9.13
2544.13,9.27
2569.57,9.40
2595.27,9.52
2621.22,9.64
2647.43,9.73
2673.90,9.81
2700.64,9.89
2727.65,9.96
2754.93,10.02
2782.48,10.07
2810.30,10.10
2838.40,10.13
2866.79,10.14
2895.46,10.15
2924.41,10.14
2953.65,10.13
2983.19,10.11
3013.02,10.08
3043.15,10.05
3073.58,10.02
3104.32,9.98
3135.36,9.94
3166.72,9.89
3198.38,9.84
3230.37,9.78
3262.67,9.73
3295.30,9.68
3328.25,9.62
3361.53,9.56
3395.15,9.50
3429.10,9.44
3463.39,9.38
3498.03,9.32
3533.01,9.27
3568.34,9.22
3604.02,9.18
3640.06,9.14
3676.46,9.11
3713.22,9.08
3750.36,9.05
3787.86,9.02
3825.74,9.00
3864.00,8.98
3902.64,8.95
3941.66,8.92
3981.08,8.89
4020.89,8.86
4061.10,8.83
4101.71,8.80
4142.73,8.76
4184.15,8.71
4226.00,8.66
4268.26,8.59
4310.94,8.52
4354.05,8.44
4397.59,8.35
4441.56,8.26
4485.98,8.15
4530.84,8.04
4576.15,7.91
4621.91,7.76
4668.13,7.58
4714.81,7.37
4761.96,7.12
4809.58,6.84
4857.67,6.51
4906.25,6.13
4955.31,5.73
5004.87,5.29
5054.91,4.81
5105.46,4.33
5156.52,3.85
5208.08,3.39
5260.16,3.00
5312.77,2.65
5365.89,2.40
5419.55,2.23
5473.75,2.15
5528.49,2.14
5583.77,2.22
5639.61,2.36
5696.00,2.52
5752.96,2.71
5810.49,2.91
5868.60,3.11
5927.28,3.30
5986.56,3.48
6046.42,3.63
6106.89,3.76
6167.96,3.88
6229.64,3.97
6291.93,4.04
6354.85,4.09
6418.40,4.13
6482.58,4.16
6547.41,4.18
6612.88,4.20
6679.01,4.21
6745.80,4.24
6813.26,4.28
6881.39,4.33
6950.21,4.40
7019.71,4.48
7089.91,4.59
7160.81,4.74
7232.41,4.92
7304.74,5.14
7377.79,5.41
7451.56,5.72
7526.08,6.06
7601.34,6.41
7677.35,6.72
7754.13,7.00
7831.67,7.09
7909.98,7.08
7989.08,6.89
8068.98,6.45
8149.67,5.88
8231.16,5.15
8313.47,4.34
8396.61,3.51
8480.57,2.72
8565.38,2.03
8651.03,1.42
8737.54,0.92
8824.92,0.52
8913.17,0.20
9002.30,-0.09
9092.32,-0.30
9183.25,-0.49
9275.08,-0.64
9367.83,-0.76
9461.51,-0.85
9556.12,-0.91
9651.68,-0.94
9748.20,-0.95
9845.68,-0.94
9944.14,-0.91
10043.58,-0.86
10144.02,-0.79
10245.46,-0.71
10347.91,-0.62
10451.39,-0.53
10555.91,-0.45
10661.46,-0.38
10768.08,-0.33
10875.76,-0.30
10984.52,-0.28
11094.36,-0.28
11205.31,-0.29
11317.36,-0.32
11430.53,-0.33
11544.84,-0.32
11660.29,-0.28
11776.89,-0.21
11894.66,-0.02
12013.60,0.20
12133.74,0.52
12255.08,0.99
12377.63,1.56
12501.41,2.23
12626.42,2.99
12752.68,3.70
12880.21,4.13
13009.01,4.40
13139.10,4.66
13270.49,4.29
13403.20,3.73
13537.23,2.81
13672.60,1.82
13809.33,0.79
13947.42,-0.17
14086.90,-1.00
14227.77,-1.74
14370.04,-2.38
14513.74,-2.90
14658.88,-3.31
14805.47,-3.70
14953.52,-4.03
15103.06,-4.34
15254.09,-4.64
15406.63,-4.93
15560.70,-5.18
15716.30,-5.39
15873.47,-5.47
16032.20,-5.47
16192.52,-5.32
16354.45,-5.14
16517.99,-4.95
16683.17,-4.88
16850.01,-4.98
17018.51,-5.23
17188.69,-5.72
17360.58,-6.34
17534.18,-7.04
17709.53,-7.76
17886.62,-8.40
18065.49,-8.95
18246.14,-9.39
18428.60,-9.65
18612.89,-9.82
18799.02,-9.90
18987.01,-9.89
19176.88,-9.84
19368.65,-9.81
19562.33,-9.80
19757.96,-9.83
19955.54,-9.87
