frequency,raw
20.00,0.49
20.20,0.51
20.40,0.52
20.61,0.54
20.81,0.58
21.02,0.63
21.23,0.69
21.44,0.75
21.66,0.82
21.87,0.90
22.09,0.98
22.31,1.07
22.54,1.16
22.76,1.25
22.99,1.34
23.22,1.43
23.45,1.51
23.69,1.58
23.92,1.65
24.16,1.71
24.40,1.77
24.65,1.82
24.89,1.87
25.14,1.92
25.39,1.98
25.65,2.05
25.91,2.13
26.16,2.22
26.43,2.30
26.69,2.40
26.96,2.49
27.23,2.58
27.50,2.67
27.77,2.75
28.05,2.84
28.33,2.92
28.62,3.00
28.90,3.07
29.19,3.15
29.48,3.22
29.78,3.29
30.08,3.36
30.38,3.44
30.68,3.53
30.99,3.62
31.30,3.72
31.61,3.82
31.93,3.92
32.24,4.02
32.57,4.12
32.89,4.22
33.22,4.32
33.55,4.42
33.89,4.51
34.23,4.61
34.57,4.70
34.92,4.79
35.27,4.88
35.62,4.96
35.97,5.04
36.33,5.13
36.70,5.20
37.06,5.28
37.43,5.36
37.81,5.43
38.19,5.50
38.57,5.57
38.95,5.64
39.34,5.71
39.74,5.78
40.14,5.84
40.54,5.91
40.94,5.97
41.35,6.02
41.76,6.08
42.18,6.13
42.60,6.18
43.03,6.22
43.46,6.26
43.90,6.30
44.33,6.34
44.78,6.37
45.23,6.39
45.68,6.41
46.13,6.43
46.60,6.45
47.06,6.47
47.53,6.48
48.01,6.50
48.49,6.52
48.97,6.54
49.46,6.55
49.96,6.56
50.46,6.55
50.96,6.55
51.47,6.54
51.99,6.53
52.51,6.51
53.03,6.50
53.56,6.48
54.10,6.47
54.64,6.46
55.18,6.45
55.74,6.43
56.29,6.42
56.86,6.40
57.42,6.38
58.00,6.36
58.58,6.33
59.16,6.30
59.76,6.27
60.35,6.23
60.96,6.19
61.57,6.16
62.18,6.13
62.80,6.09
63.43,6.06
64.07,6.02
64.71,5.99
65.35,5.95
66.01,5.91
66.67,5.86
67.33,5.82
68.01,5.77
68.69,5.73
69.37,5.69
70.07,5.65
70.77,5.61
71.48,5.57
72.19,5.52
72.91,5.47
73.64,5.41
74.38,5.36
75.12,5.32
75.87,5.27
76.63,5.22
77.40,5.16
78.17,5.11
78.95,5.06
79.74,5.01
80.54,4.96
81.35,4.91
82.16,4.86
82.98,4.80
83.81,4.74
84.65,4.68
85.50,4.62
86.35,4.56
87.22,4.51
88.09,4.45
88.97,4.40
89.86,4.35
90.76,4.29
91.66,4.23
92.58,4.17
93.51,4.11
94.44,4.04
95.39,3.98
96.34,3.91
97.30,3.85
98.28,3.80
99.26,3.74
100.25,3.68
101.25,3.62
102.27,3.56
103.29,3.49
104.32,3.42
105.37,3.35
106.42,3.28
107.48,3.20
108.56,3.13
109.64,3.06
110.74,2.99
111.85,2.92
112.97,2.85
114.10,2.78
115.24,2.72
116.39,2.65
117.55,2.58
118.73,2.51
119.92,2.43
121.12,2.36
122.33,2.29
123.55,2.22
124.79,2.14
126.03,2.07
127.29,2.00
128.57,1.93
129.85,1.87
131.15,1.80
132.46,1.73
133.79,1.66
135.12,1.58
136.48,1.51
137.84,1.44
139.22,1.37
140.61,1.30
142.02,1.23
143.44,1.16
144.87,1.08
146.32,1.01
147.78,0.93
149.26,0.85
150.75,0.77
152.26,0.69
153.78,0.63
155.32,0.56
156.88,0.50
158.44,0.44
160.03,0.37
161.63,0.31
163.24,0.25
164.88,0.19
166.53,0.13
168.19,0.07
169.87,0.02
171.57,-0.04
173.29,-0.10
175.02,-0.15
176.77,-0.21
178.54,-0.26
180.32,-0.31
182.13,-0.36
183.95,-0.41
185.79,-0.46
187.65,-0.50
189.52,-0.54
191.42,-0.58
193.33,-0.62
195.27,-0.65
197.22,-0.68
199.19,-0.71
201.18,-0.74
203.19,-0.77
205.23,-0.81
207.28,-0.84
209.35,-0.87
211.44,-0.89
213.56,-0.92
215.69,-0.94
217.85,-0.96
220.03,-0.98
222.23,-1.00
224.45,-1.03
226.70,-1.05
228.96,-1.06
231.25,-1.08
233.57,-1.09
235.90,-1.10
238.26,-1.11
240.64,-1.12
243.05,-1.13
245.48,-1.14
247.93,-1.15
250.41,-1.16
252.92,-1.16
255.45,-1.17
258.00,-1.17
260.58,-1.18
263.19,-1.19
265.82,-1.20
268.48,-1.21
271.16,-1.21
273.87,-1.22
276.61,-1.23
279.38,-1.23
282.17,-1.23
284.99,-1.22
287.84,-1.21
290.72,-1.21
293.63,-1.20
296.57,-1.20
299.53,-1.20
302.53,-1.20
305.55,-1.20
308.61,-1.19
311.69,-1.19
314.81,-1.19
317.96,-1.18
321.14,-1.18
324.35,-1.17
327.59,-1.16
330.87,-1.15
334.18,-1.14
337.52,-1.13
340.90,-1.12
344.30,-1.10
347.75,-1.09
351.23,-1.07
354.74,-1.06
358.28,-1.05
361.87,-1.04
365.49,-1.03
369.14,-1.02
372.83,-1.01
376.56,-1.01
380.33,-1.00
384.13,-0.99
387.97,-0.98
391.85,-0.96
395.77,-0.95
399.73,-0.94
403.72,-0.92
407.76,-0.91
411.84,-0.89
415.96,-0.87
420.12,-0.85
424.32,-0.83
428.56,-0.82
432.85,-0.81
437.18,-0.80
441.55,-0.79
445.96,-0.79
450.42,-0.79
454.93,-0.79
459.48,-0.79
464.07,-0.79
468.71,-0.79
473.40,-0.79
478.13,-0.79
482.91,-0.79
487.74,-0.80
492.62,-0.80
497.55,-0.81
502.52,-0.82
507.55,-0.82
512.62,-0.83
517.75,-0.83
522.93,-0.84
528.16,-0.85
533.44,-0.86
538.77,-0.87
544.16,-0.88
549.60,-0.89
555.10,-0.90
560.65,-0.91
566.25,-0.93
571.92,-0.94
577.64,-0.95
583.41,-0.96
589.25,-0.97
595.14,-0.98
601.09,-1.00
607.10,-1.02
613.17,-1.04
619.30,-1.05
625.50,-1.07
631.75,-1.08
638.07,-1.10
644.45,-1.11
650.89,-1.12
657.40,-1.13
663.98,-1.15
670.62,-1.16
677.32,-1.17
684.10,-1.18
690.94,-1.19
697.85,-1.19
704.83,-1.19
711.87,-1.20
718.99,-1.20
726.18,-1.19
733.44,-1.19
740.78,-1.18
748.19,-1.17
755.67,-1.16
763.23,-1.15
770.86,-1.13
778.57,-1.12
786.35,-1.11
794.22,-1.10
802.16,-1.08
810.18,-1.05
818.28,-1.02
826.46,-0.99
834.73,-0.96
843.08,-0.92
851.51,-0.89
860.02,-0.86
868.62,-0.82
877.31,-0.78
886.08,-0.73
894.94,-0.69
903.89,-0.64
912.93,-0.59
922.06,-0.54
931.28,-0.48
940.59,-0.42
950.00,-0.36
959.50,-0.30
969.09,-0.23
978.78,-0.16
988.57,-0.09
998.46,-0.01
1008.44,0.07
1018.53,0.15
1028.71,0.23
1039.00,0.31
1049.39,0.40
1059.88,0.49
1070.48,0.58
1081.19,0.67
1092.00,0.75
1102.92,0.84
1113.95,0.92
1125.09,1.00
1136.34,1.09
1147.70,1.17
1159.18,1.25
1170.77,1.34
1182.48,1.43
1194.30,1.51
1206.25,1.60
1218.31,1.69
1230.49,1.77
1242.80,1.85
1255.22,1.93
1267.78,2.01
1280.45,2.08
1293.26,2.15
1306.19,2.23
1319.25,2.30
1332.45,2.38
1345.77,2.45
1359.23,2.52
1372.82,2.59
1386.55,2.66
1400.41,2.72
1414.42,2.79
1428.56,2.85
1442.85,2.92
1457.28,2.99
1471.85,3.05
1486.57,3.12
1501.43,3.19
1516.45,3.25
1531.61,3.32
1546.93,3.37
1562.40,3.43
1578.02,3.49
1593.80,3.55
1609.74,3.62
1625.84,3.68
1642.10,3.74
1658.52,3.81
1675.10,3.87
1691.85,3.93
1708.77,4.00
1725.86,4.06
1743.12,4.13
1760.55,4.21
1778.15,4.28
1795.94,4.35
1813.90,4.43
1832.03,4.50
1850.36,4.57
1868.86,4.64
1887.55,4.72
1906.42,4.79
1925.49,4.87
1944.74,4.95
1964.19,5.02
1983.83,5.10
2003.67,5.17
2023.71,5.25
2043.94,5.33
2064.38,5.41
2085.03,5.49
2105.88,5.57
2126.94,5.65
2148.20,5.74
2169.69,5.82
2191.38,5.91
2213.30,5.99
2235.43,6.08
2257.78,6.16
2280.36,6.23
2303.17,6.31
2326.20,6.39
2349.46,6.47
2372.95,6.56
2396.68,6.64
2420.65,6.73
2444.86,6.81
2469.31,6.89
2494.00,6.97
2518.94,7.05
2544.13,7.13
2569.57,7.21
2595.27,7.28
2621.22,7.35
2647.43,7.41
2673.90,7.48
2700.64,7.54
2727.65,7.60
2754.93,7.66
2782.48,7.71
2810.30,7.75
2838.40,7.80
2866.79,7.84
2895.46,7.87
2924.41,7.90
2953.65,7.93
2983.19,7.96
3013.02,7.97
3043.15,7.98
3073.58,7.98
3104.32,7.97
3135.36,7.95
3166.72,7.93
3198.38,7.90
3230.37,7.87
3262.67,7.83
3295.30,7.78
3328.25,7.71
3361.53,7.64
3395.15,7.55
3429.10,7.46
3463.39,7.35
3498.03,7.24
3533.01,7.11
3568.34,6.98
3604.02,6.84
3640.06,6.68
3676.46,6.52
3713.22,6.36
3750.36,6.19
3787.86,6.02
3825.74,5.85
3864.00,5.67
3902.64,5.50
3941.66,5.34
3981.08,5.16
4020.89,4.99
4061.10,4.83
4101.71,4.67
4142.73,4.51
4184.15,4.37
4226.00,4.24
4268.26,4.12
4310.94,4.01
4354.05,3.90
4397.59,3.80
4441.56,3.71
4485.98,3.64
4530.84,3.57
4576.15,3.51
4621.91,3.46
4668.13,3.41
4714.81,3.38
4761.96,3.34
4809.58,3.32
4857.67,3.30
4906.25,3.28
4955.31,3.28
5004.87,3.27
5054.91,3.27
5105.46,3.27
5156.52,3.27
5208.08,3.28
5260.16,3.29
5312.77,3.30
5365.89,3.31
5419.55,3.32
5473.75,3.33
5528.49,3.34
5583.77,3.35
5639.61,3.36
5696.00,3.36
5752.96,3.36
5810.49,3.36
5868.60,3.35
5927.28,3.34
5986.56,3.33
6046.42,3.32
6106.89,3.31
6167.96,3.29
6229.64,3.27
6291.93,3.24
6354.85,3.22
6418.40,3.19
6482.58,3.15
6547.41,3.11
6612.88,3.07
6679.01,3.02
6745.80,2.96
6813.26,2.90
6881.39,2.82
6950.21,2.74
7019.71,2.66
7089.91,2.56
7160.81,2.45
7232.41,2.34
7304.74,2.23
7377.79,2.11
7451.56,1.99
7526.08,1.88
7601.34,1.77
7677.35,1.66
7754.13,1.55
7831.67,1.47
7909.98,1.39
7989.08,1.33
8068.98,1.30
8149.67,1.28
8231.16,1.29
8313.47,1.33
8396.61,1.38
8480.57,1.47
8565.38,1.60
8651.03,1.74
8737.54,1.90
8824.92,2.09
8913.17,2.30
9002.30,2.51
9092.32,2.72
9183.25,2.92
9275.08,3.09
9367.83,3.22
9461.51,3.27
9556.12,3.25
9651.68,3.14
9748.20,2.93
9845.68,2.59
9944.14,2.16
10043.58,1.62
10144.02,1.03
10245.46,0.34
10347.91,-0.37
10451.39,-1.11
10555.91,-1.87
10661.46,-2.62
10768.08,-3.37
10875.76,-4.10
10984.52,-4.81
11094.36,-5.50
11205.31,-6.15
11317.36,-6.76
11430.53,-7.35
11544.84,-7.90
11660.29,-8.42
11776.89,-8.92
11894.66,-9.36
12013.60,-9.78
12133.74,-10.17
12255.08,-10.51
12377.63,-10.81
12501.41,-11.08
12626.42,-11.32
12752.68,-11.53
12880.21,-11.70
13009.01,-11.84
13139.10,-11.98
13270.49,-12.05
13403.20,-12.10
13537.23,-12.09
13672.60,-12.05
13809.33,-11.98
13947.42,-11.86
14086.90,-11.70
14227.77,-11.51
14370.04,-11.30
14513.74,-11.05
14658.88,-10.73
14805.47,-10.35
14953.52,-9.87
15103.06,-9.29
15254.09,-8.66
15406.63,-7.95
15560.70,-7.26
15716.30,-6.60
15873.47,-6.11
16032.20,-5.72
16192.52,-5.60
16354.45,-5.71
16517.99,-6.00
16683.17,-6.57
16850.01,-7.27
17018.51,-8.07
17188.69,-8.94
17360.58,-9.78
17534.18,-10.60
17709.53,-11.32
17886.62,-11.96
18065.49,-12.53
18246.14,-13.02
18428.60,-13.38
18612.89,-13.67
18799.02,-13.90
18987.01,-14.07
19176.88,-14.21
19368.65,-14.35
19562.33,-14.48
19757.96,-14.61
19955.54,-14.73
