frequency,raw
20.00,-17.96
20.20,-17.92
20.40,-17.89
20.61,-17.89
20.81,-17.91
21.02,-17.96
21.23,-18.04
21.44,-18.15
21.66,-18.30
21.87,-18.45
22.09,-18.64
22.31,-18.84
22.54,-19.02
22.76,-19.19
22.99,-19.31
23.22,-19.36
23.45,-19.34
23.69,-19.25
23.92,-19.10
24.16,-18.88
24.40,-18.61
24.65,-18.29
24.89,-17.94
25.14,-17.58
25.39,-17.21
25.65,-16.87
25.91,-16.55
26.16,-16.25
26.43,-15.98
26.69,-15.73
26.96,-15.49
27.23,-15.26
27.50,-15.05
27.77,-14.84
28.05,-14.64
28.33,-14.48
28.62,-14.33
28.90,-14.21
29.19,-14.12
29.48,-14.04
29.78,-13.99
30.08,-13.94
30.38,-13.90
30.68,-13.87
30.99,-13.84
31.30,-13.80
31.61,-13.75
31.93,-13.70
32.24,-13.62
32.57,-13.53
32.89,-13.43
33.22,-13.30
33.55,-13.17
33.89,-13.01
34.23,-12.84
34.57,-12.67
34.92,-12.49
35.27,-12.32
35.62,-12.16
35.97,-12.00
36.33,-11.87
36.70,-11.75
37.06,-11.63
37.43,-11.52
37.81,-11.42
38.19,-11.32
38.57,-11.23
38.95,-11.14
39.34,-11.05
39.74,-10.96
40.14,-10.87
40.54,-10.77
40.94,-10.67
41.35,-10.56
41.76,-10.46
42.18,-10.35
42.60,-10.24
43.03,-10.13
43.46,-10.01
43.90,-9.90
44.33,-9.78
44.78,-9.67
45.23,-9.56
45.68,-9.45
46.13,-9.35
46.60,-9.24
47.06,-9.14
47.53,-9.04
48.01,-8.93
48.49,-8.82
48.97,-8.71
49.46,-8.60
49.96,-8.49
50.46,-8.39
50.96,-8.29
51.47,-8.19
51.99,-8.10
52.51,-8.01
53.03,-7.92
53.56,-7.83
54.10,-7.73
54.64,-7.63
55.18,-7.53
55.74,-7.42
56.29,-7.30
56.86,-7.19
57.42,-7.07
58.00,-6.95
58.58,-6.84
59.16,-6.73
59.76,-6.62
60.35,-6.51
60.96,-6.40
61.57,-6.30
62.18,-6.20
62.80,-6.10
63.43,-6.00
64.07,-5.90
64.71,-5.79
65.35,-5.69
66.01,-5.58
66.67,-5.48
67.33,-5.38
68.01,-5.29
68.69,-5.19
69.37,-5.10
70.07,-5.01
70.77,-4.92
71.48,-4.82
72.19,-4.73
72.91,-4.63
73.64,-4.53
74.38,-4.43
75.12,-4.32
75.87,-4.22
76.63,-4.12
77.40,-4.01
78.17,-3.91
78.95,-3.81
79.74,-3.71
80.54,-3.61
81.35,-3.51
82.16,-3.42
82.98,-3.32
83.81,-3.23
84.65,-3.13
85.50,-3.04
86.35,-2.95
87.22,-2.86
88.09,-2.76
88.97,-2.67
89.86,-2.58
90.76,-2.49
91.66,-2.40
92.58,-2.31
93.51,-2.22
94.44,-2.14
95.39,-2.05
96.34,-1.97
97.30,-1.88
98.28,-1.80
99.26,-1.72
100.25,-1.64
101.25,-1.56
102.27,-1.48
103.29,-1.40
104.32,-1.32
105.37,-1.24
106.42,-1.16
107.48,-1.09
108.56,-1.01
109.64,-0.94
110.74,-0.87
111.85,-0.80
112.97,-0.74
114.10,-0.67
115.24,-0.61
116.39,-0.55
117.55,-0.48
118.73,-0.42
119.92,-0.36
121.12,-0.30
122.33,-0.25
123.55,-0.19
124.79,-0.14
126.03,-0.08
127.29,-0.03
128.57,0.02
129.85,0.06
131.15,0.11
132.46,0.16
133.79,0.20
135.12,0.24
136.48,0.28
137.84,0.32
139.22,0.35
140.61,0.38
142.02,0.41
143.44,0.44
144.87,0.47
146.32,0.49
147.78,0.51
149.26,0.53
150.75,0.55
152.26,0.57
153.78,0.58
155.32,0.59
156.88,0.60
158.44,0.61
160.03,0.61
161.63,0.61
163.24,0.61
164.88,0.61
166.53,0.61
168.19,0.60
169.87,0.60
171.57,0.59
173.29,0.57
175.02,0.56
176.77,0.54
178.54,0.51
180.32,0.48
182.13,0.44
183.95,0.39
185.79,0.34
187.65,0.28
189.52,0.21
191.42,0.14
193.33,0.08
195.27,0.02
197.22,-0.04
199.19,-0.08
201.18,-0.13
203.19,-0.16
205.23,-0.19
207.28,-0.22
209.35,-0.25
211.44,-0.28
213.56,-0.31
215.69,-0.35
217.85,-0.40
220.03,-0.45
222.23,-0.50
224.45,-0.55
226.70,-0.60
228.96,-0.64
231.25,-0.68
233.57,-0.72
235.90,-0.76
238.26,-0.79
240.64,-0.82
243.05,-0.86
245.48,-0.88
247.93,-0.91
250.41,-0.93
252.92,-0.95
255.45,-0.96
258.00,-0.97
260.58,-0.98
263.19,-0.98
265.82,-0.98
268.48,-0.98
271.16,-0.97
273.87,-0.96
276.61,-0.95
279.38,-0.93
282.17,-0.91
284.99,-0.89
287.84,-0.87
290.72,-0.85
293.63,-0.83
296.57,-0.81
299.53,-0.79
302.53,-0.78
305.55,-0.76
308.61,-0.75
311.69,-0.73
314.81,-0.72
317.96,-0.71
321.14,-0.70
324.35,-0.70
327.59,-0.69
330.87,-0.69
334.18,-0.69
337.52,-0.69
340.90,-0.69
344.30,-0.69
347.75,-0.70
351.23,-0.71
354.74,-0.73
358.28,-0.75
361.87,-0.77
365.49,-0.79
369.14,-0.82
372.83,-0.85
376.56,-0.88
380.33,-0.92
384.13,-0.96
387.97,-1.01
391.85,-1.05
395.77,-1.10
399.73,-1.14
403.72,-1.19
407.76,-1.24
411.84,-1.30
415.96,-1.35
420.12,-1.40
424.32,-1.45
428.56,-1.50
432.85,-1.54
437.18,-1.58
441.55,-1.62
445.96,-1.66
450.42,-1.69
454.93,-1.73
459.48,-1.75
464.07,-1.78
468.71,-1.80
473.40,-1.81
478.13,-1.83
482.91,-1.83
487.74,-1.83
492.62,-1.83
497.55,-1.82
502.52,-1.80
507.55,-1.78
512.62,-1.75
517.75,-1.72
522.93,-1.68
528.16,-1.65
533.44,-1.61
538.77,-1.56
544.16,-1.52
549.60,-1.46
555.10,-1.41
560.65,-1.35
566.25,-1.29
571.92,-1.23
577.64,-1.17
583.41,-1.10
589.25,-1.04
595.14,-0.97
601.09,-0.91
607.10,-0.84
613.17,-0.77
619.30,-0.71
625.50,-0.64
631.75,-0.57
638.07,-0.51
644.45,-0.44
650.89,-0.38
657.40,-0.32
663.98,-0.26
670.62,-0.20
677.32,-0.14
684.10,-0.08
690.94,-0.02
697.85,0.03
704.83,0.07
711.87,0.11
718.99,0.15
726.18,0.19
733.44,0.22
740.78,0.26
748.19,0.29
755.67,0.32
763.23,0.34
770.86,0.37
778.57,0.39
786.35,0.41
794.22,0.42
802.16,0.43
810.18,0.44
818.28,0.44
826.46,0.44
834.73,0.44
843.08,0.43
851.51,0.43
860.02,0.42
868.62,0.40
877.31,0.39
886.08,0.37
894.94,0.35
903.89,0.33
912.93,0.30
922.06,0.27
931.28,0.25
940.59,0.22
950.00,0.18
959.50,0.15
969.09,0.11
978.78,0.08
988.57,0.04
998.46,0.01
1008.44,-0.03
1018.53,-0.07
1028.71,-0.10
1039.00,-0.14
1049.39,-0.17
1059.88,-0.20
1070.48,-0.23
1081.19,-0.26
1092.00,-0.29
1102.92,-0.32
1113.95,-0.35
1125.09,-0.38
1136.34,-0.40
1147.70,-0.43
1159.18,-0.45
1170.77,-0.48
1182.48,-0.50
1194.30,-0.52
1206.25,-0.54
1218.31,-0.56
1230.49,-0.57
1242.80,-0.57
1255.22,-0.57
1267.78,-0.57
1280.45,-0.57
1293.26,-0.57
1306.19,-0.58
1319.25,-0.59
1332.45,-0.65
1345.77,-0.72
1359.23,-0.81
1372.82,-0.94
1386.55,-1.08
1400.41,-1.22
1414.42,-1.37
1428.56,-1.52
1442.85,-1.67
1457.28,-1.81
1471.85,-1.96
1486.57,-2.10
1501.43,-2.24
1516.45,-2.39
1531.61,-2.55
1546.93,-2.71
1562.40,-2.88
1578.02,-3.05
1593.80,-3.23
1609.74,-3.42
1625.84,-3.62
1642.10,-3.82
1658.52,-4.03
1675.10,-4.24
1691.85,-4.46
1708.77,-4.68
1725.86,-4.91
1743.12,-5.13
1760.55,-5.35
1778.15,-5.57
1795.94,-5.77
1813.90,-5.97
1832.03,-6.16
1850.36,-6.34
1868.86,-6.50
1887.55,-6.65
1906.42,-6.78
1925.49,-6.90
1944.74,-7.01
1964.19,-7.09
1983.83,-7.16
2003.67,-7.21
2023.71,-7.24
2043.94,-7.24
2064.38,-7.23
2085.03,-7.19
2105.88,-7.13
2126.94,-7.07
2148.20,-6.99
2169.69,-6.90
2191.38,-6.81
2213.30,-6.71
2235.43,-6.61
2257.78,-6.50
2280.36,-6.40
2303.17,-6.29
2326.20,-6.18
2349.46,-6.08
2372.95,-5.99
2396.68,-5.90
2420.65,-5.82
2444.86,-5.76
2469.31,-5.69
2494.00,-5.64
2518.94,-5.61
2544.13,-5.58
2569.57,-5.57
2595.27,-5.56
2621.22,-5.57
2647.43,-5.58
2673.90,-5.61
2700.64,-5.64
2727.65,-5.70
2754.93,-5.76
2782.48,-5.84
2810.30,-5.92
2838.40,-6.01
2866.79,-6.11
2895.46,-6.22
2924.41,-6.33
2953.65,-6.45
2983.19,-6.59
3013.02,-6.72
3043.15,-6.87
3073.58,-7.03
3104.32,-7.19
3135.36,-7.36
3166.72,-7.53
3198.38,-7.71
3230.37,-7.89
3262.67,-8.07
3295.30,-8.26
3328.25,-8.46
3361.53,-8.67
3395.15,-8.88
3429.10,-9.09
3463.39,-9.31
3498.03,-9.53
3533.01,-9.75
3568.34,-9.96
3604.02,-10.17
3640.06,-10.36
3676.46,-10.53
3713.22,-10.67
3750.36,-10.79
3787.86,-10.85
3825.74,-10.90
3864.00,-10.88
3902.64,-10.80
3941.66,-10.70
3981.08,-10.53
4020.89,-10.30
4061.10,-10.04
4101.71,-9.72
4142.73,-9.37
4184.15,-8.99
4226.00,-8.58
4268.26,-8.16
4310.94,-7.73
4354.05,-7.29
4397.59,-6.85
4441.56,-6.42
4485.98,-6.00
4530.84,-5.58
4576.15,-5.19
4621.91,-4.81
4668.13,-4.46
4714.81,-4.14
4761.96,-3.84
4809.58,-3.57
4857.67,-3.33
4906.25,-3.12
4955.31,-2.92
5004.87,-2.74
5054.91,-2.58
5105.46,-2.42
5156.52,-2.27
5208.08,-2.13
5260.16,-2.00
5312.77,-1.86
5365.89,-1.72
5419.55,-1.58
5473.75,-1.44
5528.49,-1.30
5583.77,-1.14
5639.61,-0.97
5696.00,-0.80
5752.96,-0.62
5810.49,-0.44
5868.60,-0.25
5927.28,-0.06
5986.56,0.13
6046.42,0.31
6106.89,0.48
6167.96,0.63
6229.64,0.77
6291.93,0.88
6354.85,0.98
6418.40,1.06
6482.58,1.13
6547.41,1.19
6612.88,1.23
6679.01,1.27
6745.80,1.31
6813.26,1.33
6881.39,1.34
6950.21,1.34
7019.71,1.33
7089.91,1.30
7160.81,1.26
7232.41,1.20
7304.74,1.13
7377.79,1.04
7451.56,0.93
7526.08,0.82
7601.34,0.71
7677.35,0.60
7754.13,0.50
7831.67,0.41
7909.98,0.34
7989.08,0.29
8068.98,0.28
8149.67,0.29
8231.16,0.32
8313.47,0.36
8396.61,0.38
8480.57,0.37
8565.38,0.31
8651.03,0.20
8737.54,0.02
8824.92,-0.24
8913.17,-0.59
9002.30,-0.97
9092.32,-1.44
9183.25,-1.96
9275.08,-2.52
9367.83,-3.10
9461.51,-3.71
9556.12,-4.31
9651.68,-4.91
9748.20,-5.49
9845.68,-6.05
9944.14,-6.59
10043.58,-7.10
10144.02,-7.59
10245.46,-8.05
10347.91,-8.50
10451.39,-8.92
10555.91,-9.31
10661.46,-9.69
10768.08,-10.04
10875.76,-10.36
10984.52,-10.65
11094.36,-10.93
11205.31,-11.20
11317.36,-11.44
11430.53,-11.68
11544.84,-11.89
11660.29,-12.07
11776.89,-12.23
11894.66,-12.33
12013.60,-12.41
12133.74,-12.46
12255.08,-12.46
12377.63,-12.44
12501.41,-12.40
12626.42,-12.33
12752.68,-12.26
12880.21,-12.22
13009.01,-12.19
13139.10,-12.16
13270.49,-12.21
13403.20,-12.28
13537.23,-12.39
13672.60,-12.51
13809.33,-12.63
13947.42,-12.77
14086.90,-12.95
14227.77,-13.16
14370.04,-13.41
14513.74,-13.70
14658.88,-14.04
14805.47,-14.40
14953.52,-14.79
15103.06,-15.21
15254.09,-15.64
15406.63,-16.12
15560.70,-16.61
15716.30,-17.13
15873.47,-17.66
16032.20,-18.20
16192.52,-18.73
16354.45,-19.30
16517.99,-19.90
16683.17,-20.60
16850.01,-21.37
17018.51,-22.21
17188.69,-23.12
17360.58,-24.05
17534.18,-24.96
17709.53,-25.80
17886.62,-26.48
18065.49,-27.01
18246.14,-27.35
18428.60,-27.41
18612.89,-27.37
18799.02,-27.24
18987.01,-27.07
19176.88,-26.92
19368.65,-26.83
19562.33,-26.80
19757.96,-26.82
19955.54,-26.85
