frequency,raw
20.00,-3.82
20.20,-3.78
20.40,-3.73
20.61,-3.69
20.81,-3.58
21.02,-3.47
21.23,-3.36
21.44,-3.25
21.66,-3.15
21.87,-3.05
22.09,-2.96
22.31,-2.87
22.54,-2.79
22.76,-2.70
22.99,-2.62
23.22,-2.54
23.45,-2.46
23.69,-2.37
23.92,-2.27
24.16,-2.18
24.40,-2.08
24.65,-1.97
24.89,-1.87
25.14,-1.77
25.39,-1.68
25.65,-1.59
25.91,-1.51
26.16,-1.43
26.43,-1.35
26.69,-1.28
26.96,-1.20
27.23,-1.13
27.50,-1.05
27.77,-0.97
28.05,-0.88
28.33,-0.79
28.62,-0.71
28.90,-0.62
29.19,-0.53
29.48,-0.44
29.78,-0.35
30.08,-0.25
30.38,-0.16
30.68,-0.07
30.99,0.01
31.30,0.10
31.61,0.18
31.93,0.25
32.24,0.33
32.57,0.41
32.89,0.50
33.22,0.58
33.55,0.66
33.89,0.75
34.23,0.84
34.57,0.92
34.92,1.01
35.27,1.09
35.62,1.18
35.97,1.26
36.33,1.34
36.70,1.43
37.06,1.51
37.43,1.59
37.81,1.66
38.19,1.74
38.57,1.81
38.95,1.88
39.34,1.94
39.74,2.01
40.14,2.07
40.54,2.14
40.94,2.21
41.35,2.28
41.76,2.35
42.18,2.42
42.60,2.48
43.03,2.55
43.46,2.61
43.90,2.67
44.33,2.73
44.78,2.79
45.23,2.85
45.68,2.90
46.13,2.96
46.60,3.01
47.06,3.07
47.53,3.12
48.01,3.18
48.49,3.23
48.97,3.29
49.46,3.35
49.96,3.41
50.46,3.46
50.96,3.51
51.47,3.55
51.99,3.58
52.51,3.61
53.03,3.64
53.56,3.68
54.10,3.71
54.64,3.74
55.18,3.78
55.74,3.82
56.29,3.86
56.86,3.89
57.42,3.93
58.00,3.96
58.58,3.98
59.16,4.01
59.76,4.04
60.35,4.06
60.96,4.09
61.57,4.11
62.18,4.13
62.80,4.16
63.43,4.18
64.07,4.20
64.71,4.22
65.35,4.24
66.01,4.26
66.67,4.28
67.33,4.30
68.01,4.31
68.69,4.32
69.37,4.33
70.07,4.33
70.77,4.34
71.48,4.34
72.19,4.34
72.91,4.34
73.64,4.34
74.38,4.34
75.12,4.34
75.87,4.34
76.63,4.34
77.40,4.33
78.17,4.33
78.95,4.32
79.74,4.31
80.54,4.30
81.35,4.29
82.16,4.27
82.98,4.26
83.81,4.24
84.65,4.23
85.50,4.21
86.35,4.19
87.22,4.17
88.09,4.14
88.97,4.12
89.86,4.10
90.76,4.07
91.66,4.04
92.58,4.01
93.51,3.98
94.44,3.95
95.39,3.91
96.34,3.87
97.30,3.83
98.28,3.79
99.26,3.75
100.25,3.71
101.25,3.66
102.27,3.62
103.29,3.57
104.32,3.53
105.37,3.48
106.42,3.43
107.48,3.38
108.56,3.33
109.64,3.27
110.74,3.22
111.85,3.16
112.97,3.10
114.10,3.04
115.24,2.97
116.39,2.91
117.55,2.84
118.73,2.78
119.92,2.71
121.12,2.64
122.33,2.57
123.55,2.49
124.79,2.42
126.03,2.35
127.29,2.27
128.57,2.20
129.85,2.12
131.15,2.05
132.46,1.97
133.79,1.89
135.12,1.81
136.48,1.74
137.84,1.66
139.22,1.58
140.61,1.50
142.02,1.42
143.44,1.34
144.87,1.26
146.32,1.18
147.78,1.10
149.26,1.01
150.75,0.93
152.26,0.84
153.78,0.76
155.32,0.68
156.88,0.60
158.44,0.52
160.03,0.44
161.63,0.37
163.24,0.30
164.88,0.24
166.53,0.17
168.19,0.11
169.87,0.04
171.57,-0.02
173.29,-0.08
175.02,-0.14
176.77,-0.20
178.54,-0.26
180.32,-0.31
182.13,-0.37
183.95,-0.44
185.79,-0.51
187.65,-0.58
189.52,-0.65
191.42,-0.72
193.33,-0.78
195.27,-0.83
197.22,-0.87
199.19,-0.89
201.18,-0.90
203.19,-0.91
205.23,-0.91
207.28,-0.90
209.35,-0.90
211.44,-0.89
213.56,-0.88
215.69,-0.89
217.85,-0.89
220.03,-0.89
222.23,-0.90
224.45,-0.91
226.70,-0.91
228.96,-0.92
231.25,-0.93
233.57,-0.93
235.90,-0.94
238.26,-0.94
240.64,-0.94
243.05,-0.94
245.48,-0.94
247.93,-0.95
250.41,-0.95
252.92,-0.95
255.45,-0.96
258.00,-0.96
260.58,-0.97
263.19,-0.97
265.82,-0.98
268.48,-0.98
271.16,-0.99
273.87,-0.99
276.61,-1.00
279.38,-1.00
282.17,-1.01
284.99,-1.02
287.84,-1.02
290.72,-1.03
293.63,-1.05
296.57,-1.06
299.53,-1.08
302.53,-1.09
305.55,-1.11
308.61,-1.13
311.69,-1.14
314.81,-1.16
317.96,-1.18
321.14,-1.19
324.35,-1.21
327.59,-1.22
330.87,-1.24
334.18,-1.25
337.52,-1.27
340.90,-1.28
344.30,-1.29
347.75,-1.30
351.23,-1.32
354.74,-1.34
358.28,-1.35
361.87,-1.37
365.49,-1.38
369.14,-1.40
372.83,-1.41
376.56,-1.42
380.33,-1.44
384.13,-1.46
387.97,-1.47
391.85,-1.48
395.77,-1.49
399.73,-1.49
403.72,-1.49
407.76,-1.49
411.84,-1.49
415.96,-1.49
420.12,-1.49
424.32,-1.49
428.56,-1.48
432.85,-1.48
437.18,-1.48
441.55,-1.48
445.96,-1.48
450.42,-1.48
454.93,-1.48
459.48,-1.47
464.07,-1.46
468.71,-1.45
473.40,-1.44
478.13,-1.43
482.91,-1.41
487.74,-1.41
492.62,-1.40
497.55,-1.40
502.52,-1.39
507.55,-1.38
512.62,-1.37
517.75,-1.36
522.93,-1.34
528.16,-1.33
533.44,-1.32
538.77,-1.31
544.16,-1.30
549.60,-1.29
555.10,-1.28
560.65,-1.28
566.25,-1.27
571.92,-1.27
577.64,-1.26
583.41,-1.26
589.25,-1.26
595.14,-1.25
601.09,-1.24
607.10,-1.24
613.17,-1.23
619.30,-1.22
625.50,-1.21
631.75,-1.20
638.07,-1.19
644.45,-1.19
650.89,-1.18
657.40,-1.17
663.98,-1.17
670.62,-1.17
677.32,-1.17
684.10,-1.16
690.94,-1.16
697.85,-1.15
704.83,-1.13
711.87,-1.11
718.99,-1.08
726.18,-1.06
733.44,-1.03
740.78,-1.01
748.19,-0.98
755.67,-0.96
763.23,-0.94
770.86,-0.92
778.57,-0.90
786.35,-0.88
794.22,-0.86
802.16,-0.84
810.18,-0.81
818.28,-0.79
826.46,-0.77
834.73,-0.74
843.08,-0.72
851.51,-0.69
860.02,-0.66
868.62,-0.63
877.31,-0.59
886.08,-0.55
894.94,-0.51
903.89,-0.47
912.93,-0.43
922.06,-0.39
931.28,-0.35
940.59,-0.31
950.00,-0.26
959.50,-0.22
969.09,-0.17
978.78,-0.11
988.57,-0.06
998.46,-0.01
1008.44,0.05
1018.53,0.10
1028.71,0.15
1039.00,0.21
1049.39,0.26
1059.88,0.32
1070.48,0.37
1081.19,0.43
1092.00,0.48
1102.92,0.54
1113.95,0.59
1125.09,0.64
1136.34,0.69
1147.70,0.74
1159.18,0.79
1170.77,0.84
1182.48,0.89
1194.30,0.94
1206.25,0.99
1218.31,1.05
1230.49,1.10
1242.80,1.15
1255.22,1.21
1267.78,1.27
1280.45,1.33
1293.26,1.39
1306.19,1.45
1319.25,1.50
1332.45,1.52
1345.77,1.52
1359.23,1.49
1372.82,1.44
1386.55,1.38
1400.41,1.32
1414.42,1.27
1428.56,1.21
1442.85,1.17
1457.28,1.14
1471.85,1.12
1486.57,1.11
1501.43,1.10
1516.45,1.10
1531.61,1.10
1546.93,1.10
1562.40,1.10
1578.02,1.10
1593.80,1.10
1609.74,1.10
1625.84,1.10
1642.10,1.10
1658.52,1.10
1675.10,1.09
1691.85,1.09
1708.77,1.09
1725.86,1.09
1743.12,1.10
1760.55,1.11
1778.15,1.12
1795.94,1.13
1813.90,1.13
1832.03,1.14
1850.36,1.15
1868.86,1.16
1887.55,1.18
1906.42,1.19
1925.49,1.20
1944.74,1.22
1964.19,1.24
1983.83,1.26
2003.67,1.27
2023.71,1.29
2043.94,1.32
2064.38,1.34
2085.03,1.37
2105.88,1.39
2126.94,1.42
2148.20,1.44
2169.69,1.47
2191.38,1.50
2213.30,1.52
2235.43,1.54
2257.78,1.57
2280.36,1.58
2303.17,1.60
2326.20,1.61
2349.46,1.62
2372.95,1.63
2396.68,1.64
2420.65,1.64
2444.86,1.63
2469.31,1.62
2494.00,1.61
2518.94,1.58
2544.13,1.56
2569.57,1.53
2595.27,1.50
2621.22,1.47
2647.43,1.44
2673.90,1.41
2700.64,1.38
2727.65,1.34
2754.93,1.30
2782.48,1.27
2810.30,1.23
2838.40,1.19
2866.79,1.15
2895.46,1.12
2924.41,1.08
2953.65,1.04
2983.19,1.00
3013.02,0.96
3043.15,0.91
3073.58,0.87
3104.32,0.83
3135.36,0.79
3166.72,0.75
3198.38,0.71
3230.37,0.67
3262.67,0.64
3295.30,0.60
3328.25,0.57
3361.53,0.53
3395.15,0.50
3429.10,0.47
3463.39,0.44
3498.03,0.41
3533.01,0.39
3568.34,0.37
3604.02,0.36
3640.06,0.37
3676.46,0.39
3713.22,0.41
3750.36,0.45
3787.86,0.51
3825.74,0.57
3864.00,0.65
3902.64,0.74
3941.66,0.84
3981.08,0.96
4020.89,1.10
4061.10,1.24
4101.71,1.39
4142.73,1.56
4184.15,1.73
4226.00,1.91
4268.26,2.10
4310.94,2.30
4354.05,2.52
4397.59,2.76
4441.56,3.01
4485.98,3.31
4530.84,3.63
4576.15,3.97
4621.91,4.33
4668.13,4.71
4714.81,5.08
4761.96,5.45
4809.58,5.81
4857.67,6.12
4906.25,6.38
4955.31,6.59
5004.87,6.72
5054.91,6.76
5105.46,6.73
5156.52,6.63
5208.08,6.46
5260.16,6.24
5312.77,5.99
5365.89,5.71
5419.55,5.41
5473.75,5.11
5528.49,4.82
5583.77,4.53
5639.61,4.27
5696.00,4.00
5752.96,3.78
5810.49,3.56
5868.60,3.37
5927.28,3.20
5986.56,3.05
6046.42,2.92
6106.89,2.80
6167.96,2.69
6229.64,2.59
6291.93,2.50
6354.85,2.43
6418.40,2.36
6482.58,2.31
6547.41,2.29
6612.88,2.28
6679.01,2.29
6745.80,2.34
6813.26,2.41
6881.39,2.51
6950.21,2.65
7019.71,2.81
7089.91,3.02
7160.81,3.28
7232.41,3.57
7304.74,3.91
7377.79,4.32
7451.56,4.78
7526.08,5.28
7601.34,5.84
7677.35,6.41
7754.13,6.99
7831.67,7.51
7909.98,7.97
7989.08,8.35
8068.98,8.54
8149.67,8.59
8231.16,8.47
8313.47,8.12
8396.61,7.65
8480.57,6.99
8565.38,6.20
8651.03,5.33
8737.54,4.41
8824.92,3.46
8913.17,2.52
9002.30,1.60
9092.32,0.72
9183.25,-0.12
9275.08,-0.93
9367.83,-1.69
9461.51,-2.40
9556.12,-3.05
9651.68,-3.65
9748.20,-4.20
9845.68,-4.67
9944.14,-5.10
10043.58,-5.47
10144.02,-5.80
10245.46,-6.06
10347.91,-6.30
10451.39,-6.49
10555.91,-6.64
10661.46,-6.76
10768.08,-6.84
10875.76,-6.88
10984.52,-6.86
11094.36,-6.81
11205.31,-6.72
11317.36,-6.59
11430.53,-6.45
11544.84,-6.28
11660.29,-6.11
11776.89,-5.94
11894.66,-5.79
12013.60,-5.64
12133.74,-5.52
12255.08,-5.44
12377.63,-5.39
12501.41,-5.40
12626.42,-5.48
12752.68,-5.62
12880.21,-5.86
13009.01,-6.13
13139.10,-6.41
13270.49,-6.76
13403.20,-7.11
13537.23,-7.39
13672.60,-7.60
13809.33,-7.74
13947.42,-7.75
14086.90,-7.68
14227.77,-7.55
14370.04,-7.35
14513.74,-7.07
14658.88,-6.69
14805.47,-6.30
14953.52,-5.87
15103.06,-5.52
15254.09,-5.21
15406.63,-5.17
15560.70,-5.30
15716.30,-5.66
15873.47,-6.35
16032.20,-7.19
16192.52,-8.26
16354.45,-9.43
16517.99,-10.65
16683.17,-11.85
16850.01,-12.98
17018.51,-14.02
17188.69,-14.90
17360.58,-15.64
17534.18,-16.26
17709.53,-16.71
17886.62,-16.99
18065.49,-17.13
18246.14,-17.13
18428.60,-16.95
18612.89,-16.72
18799.02,-16.43
18987.01,-16.14
19176.88,-15.89
19368.65,-15.71
19562.33,-15.60
19757.96,-15.57
19955.54,-15.54
