frequency,raw
20.00,-5.17
20.20,-5.08
20.40,-4.98
20.61,-4.89
20.81,-4.79
21.02,-4.70
21.23,-4.60
21.44,-4.49
21.66,-4.39
21.87,-4.28
22.09,-4.18
22.31,-4.07
22.54,-3.97
22.76,-3.86
22.99,-3.75
23.22,-3.65
23.45,-3.54
23.69,-3.43
23.92,-3.32
24.16,-3.20
24.40,-3.09
24.65,-2.98
24.89,-2.87
25.14,-2.76
25.39,-2.65
25.65,-2.54
25.91,-2.43
26.16,-2.32
26.43,-2.20
26.69,-2.09
26.96,-1.98
27.23,-1.87
27.50,-1.75
27.77,-1.64
28.05,-1.53
28.33,-1.41
28.62,-1.30
28.90,-1.18
29.19,-1.06
29.48,-0.95
29.78,-0.84
30.08,-0.72
30.38,-0.61
30.68,-0.50
30.99,-0.38
31.30,-0.29
31.61,-0.19
31.93,-0.09
32.24,0.00
32.57,0.10
32.89,0.20
33.22,0.29
33.55,0.38
33.89,0.47
34.23,0.56
34.57,0.64
34.92,0.73
35.27,0.81
35.62,0.90
35.97,0.98
36.33,1.07
36.70,1.16
37.06,1.24
37.43,1.33
37.81,1.42
38.19,1.50
38.57,1.58
38.95,1.66
39.34,1.74
39.74,1.81
40.14,1.88
40.54,1.96
40.94,2.03
41.35,2.10
41.76,2.17
42.18,2.24
42.60,2.31
43.03,2.37
43.46,2.43
43.90,2.50
44.33,2.55
44.78,2.61
45.23,2.67
45.68,2.72
46.13,2.77
46.60,2.83
47.06,2.88
47.53,2.92
48.01,2.97
48.49,3.01
48.97,3.06
49.46,3.10
49.96,3.14
50.46,3.18
50.96,3.22
51.47,3.25
51.99,3.29
52.51,3.32
53.03,3.35
53.56,3.38
54.10,3.40
54.64,3.43
55.18,3.46
55.74,3.48
56.29,3.50
56.86,3.52
57.42,3.53
58.00,3.55
58.58,3.57
59.16,3.59
59.76,3.61
60.35,3.63
60.96,3.66
61.57,3.68
62.18,3.71
62.80,3.73
63.43,3.76
64.07,3.78
64.71,3.79
65.35,3.79
66.01,3.80
66.67,3.79
67.33,3.78
68.01,3.77
68.69,3.76
69.37,3.74
70.07,3.73
70.77,3.71
71.48,3.71
72.19,3.70
72.91,3.69
73.64,3.69
74.38,3.68
75.12,3.67
75.87,3.64
76.63,3.61
77.40,3.59
78.17,3.56
78.95,3.54
79.74,3.52
80.54,3.50
81.35,3.48
82.16,3.44
82.98,3.41
83.81,3.38
84.65,3.34
85.50,3.31
86.35,3.27
87.22,3.23
88.09,3.20
88.97,3.16
89.86,3.12
90.76,3.07
91.66,3.03
92.58,2.99
93.51,2.94
94.44,2.90
95.39,2.85
96.34,2.81
97.30,2.76
98.28,2.71
99.26,2.65
100.25,2.59
101.25,2.52
102.27,2.45
103.29,2.39
104.32,2.33
105.37,2.27
106.42,2.22
107.48,2.18
108.56,2.13
109.64,2.08
110.74,2.02
111.85,1.95
112.97,1.89
114.10,1.82
115.24,1.75
116.39,1.68
117.55,1.60
118.73,1.53
119.92,1.47
121.12,1.43
122.33,1.38
123.55,1.33
124.79,1.27
126.03,1.20
127.29,1.12
128.57,1.02
129.85,0.92
131.15,0.84
132.46,0.77
133.79,0.71
135.12,0.65
136.48,0.59
137.84,0.52
139.22,0.43
140.61,0.34
142.02,0.24
143.44,0.16
144.87,0.08
146.32,0.01
147.78,-0.05
149.26,-0.12
150.75,-0.19
152.26,-0.27
153.78,-0.36
155.32,-0.47
156.88,-0.55
158.44,-0.65
160.03,-0.73
161.63,-0.80
163.24,-0.85
164.88,-0.92
166.53,-0.99
168.19,-1.07
169.87,-1.14
171.57,-1.24
173.29,-1.32
175.02,-1.40
176.77,-1.48
178.54,-1.57
180.32,-1.64
182.13,-1.72
183.95,-1.78
185.79,-1.82
187.65,-1.87
189.52,-1.93
191.42,-2.00
193.33,-2.07
195.27,-2.14
197.22,-2.22
199.19,-2.29
201.18,-2.36
203.19,-2.43
205.23,-2.47
207.28,-2.53
209.35,-2.57
211.44,-2.62
213.56,-2.65
215.69,-2.69
217.85,-2.71
220.03,-2.74
222.23,-2.79
224.45,-2.84
226.70,-2.89
228.96,-2.94
231.25,-2.98
233.57,-3.01
235.90,-3.04
238.26,-3.06
240.64,-3.07
243.05,-3.08
245.48,-3.10
247.93,-3.11
250.41,-3.12
252.92,-3.13
255.45,-3.13
258.00,-3.13
260.58,-3.13
263.19,-3.12
265.82,-3.12
268.48,-3.11
271.16,-3.10
273.87,-3.08
276.61,-3.05
279.38,-3.03
282.17,-3.00
284.99,-2.96
287.84,-2.92
290.72,-2.87
293.63,-2.83
296.57,-2.79
299.53,-2.75
302.53,-2.70
305.55,-2.66
308.61,-2.61
311.69,-2.56
314.81,-2.51
317.96,-2.45
321.14,-2.39
324.35,-2.32
327.59,-2.25
330.87,-2.17
334.18,-2.09
337.52,-1.99
340.90,-1.90
344.30,-1.81
347.75,-1.71
351.23,-1.62
354.74,-1.48
358.28,-1.29
361.87,-1.09
365.49,-0.90
369.14,-0.70
372.83,-0.52
376.56,-0.33
380.33,-0.16
384.13,0.01
387.97,0.17
391.85,0.32
395.77,0.47
399.73,0.61
403.72,0.74
407.76,0.86
411.84,0.98
415.96,1.08
420.12,1.17
424.32,1.26
428.56,1.33
432.85,1.40
437.18,1.46
441.55,1.50
445.96,1.52
450.42,1.52
454.93,1.53
459.48,1.54
464.07,1.56
468.71,1.57
473.40,1.56
478.13,1.54
482.91,1.51
487.74,1.46
492.62,1.42
497.55,1.39
502.52,1.36
507.55,1.34
512.62,1.32
517.75,1.30
522.93,1.28
528.16,1.26
533.44,1.24
538.77,1.21
544.16,1.18
549.60,1.15
555.10,1.12
560.65,1.10
566.25,1.08
571.92,1.05
577.64,1.03
583.41,1.01
589.25,0.99
595.14,0.96
601.09,0.93
607.10,0.92
613.17,0.90
619.30,0.88
625.50,0.85
631.75,0.83
638.07,0.81
644.45,0.79
650.89,0.77
657.40,0.75
663.98,0.73
670.62,0.71
677.32,0.70
684.10,0.69
690.94,0.67
697.85,0.65
704.83,0.64
711.87,0.62
718.99,0.61
726.18,0.61
733.44,0.62
740.78,0.64
748.19,0.65
755.67,0.65
763.23,0.64
770.86,0.63
778.57,0.61
786.35,0.59
794.22,0.57
802.16,0.53
810.18,0.50
818.28,0.45
826.46,0.41
834.73,0.39
843.08,0.36
851.51,0.35
860.02,0.34
868.62,0.34
877.31,0.32
886.08,0.30
894.94,0.28
903.89,0.25
912.93,0.22
922.06,0.19
931.28,0.16
940.59,0.13
950.00,0.10
959.50,0.07
969.09,0.05
978.78,0.04
988.57,0.02
998.46,0.01
1008.44,-0.01
1018.53,-0.05
1028.71,-0.09
1039.00,-0.14
1049.39,-0.19
1059.88,-0.22
1070.48,-0.26
1081.19,-0.29
1092.00,-0.32
1102.92,-0.34
1113.95,-0.37
1125.09,-0.40
1136.34,-0.43
1147.70,-0.45
1159.18,-0.47
1170.77,-0.48
1182.48,-0.48
1194.30,-0.48
1206.25,-0.48
1218.31,-0.49
1230.49,-0.50
1242.80,-0.51
1255.22,-0.53
1267.78,-0.54
1280.45,-0.54
1293.26,-0.55
1306.19,-0.54
1319.25,-0.54
1332.45,-0.53
1345.77,-0.51
1359.23,-0.51
1372.82,-0.49
1386.55,-0.47
1400.41,-0.45
1414.42,-0.41
1428.56,-0.37
1442.85,-0.34
1457.28,-0.31
1471.85,-0.31
1486.57,-0.33
1501.43,-0.35
1516.45,-0.38
1531.61,-0.41
1546.93,-0.44
1562.40,-0.45
1578.02,-0.44
1593.80,-0.42
1609.74,-0.40
1625.84,-0.36
1642.10,-0.31
1658.52,-0.25
1675.10,-0.18
1691.85,-0.10
1708.77,-0.02
1725.86,0.06
1743.12,0.14
1760.55,0.23
1778.15,0.32
1795.94,0.43
1813.90,0.55
1832.03,0.68
1850.36,0.83
1868.86,0.99
1887.55,1.16
1906.42,1.32
1925.49,1.48
1944.74,1.64
1964.19,1.78
1983.83,1.92
2003.67,2.08
2023.71,2.24
2043.94,2.40
2064.38,2.56
2085.03,2.72
2105.88,2.87
2126.94,3.04
2148.20,3.20
2169.69,3.36
2191.38,3.52
2213.30,3.70
2235.43,3.87
2257.78,4.05
2280.36,4.22
2303.17,4.37
2326.20,4.52
2349.46,4.66
2372.95,4.79
2396.68,4.94
2420.65,5.08
2444.86,5.23
2469.31,5.38
2494.00,5.54
2518.94,5.69
2544.13,5.86
2569.57,6.01
2595.27,6.16
2621.22,6.31
2647.43,6.45
2673.90,6.59
2700.64,6.73
2727.65,6.86
2754.93,6.99
2782.48,7.10
2810.30,7.21
2838.40,7.29
2866.79,7.35
2895.46,7.42
2924.41,7.50
2953.65,7.60
2983.19,7.74
3013.02,7.91
3043.15,8.10
3073.58,8.27
3104.32,8.40
3135.36,8.52
3166.72,8.59
3198.38,8.63
3230.37,8.66
3262.67,8.67
3295.30,8.68
3328.25,8.68
3361.53,8.70
3395.15,8.72
3429.10,8.75
3463.39,8.79
3498.03,8.83
3533.01,8.86
3568.34,8.88
3604.02,8.91
3640.06,8.94
3676.46,8.97
3713.22,8.98
3750.36,8.99
3787.86,9.01
3825.74,9.04
3864.00,9.07
3902.64,9.11
3941.66,9.15
3981.08,9.21
4020.89,9.27
4061.10,9.33
4101.71,9.39
4142.73,9.42
4184.15,9.43
4226.00,9.41
4268.26,9.35
4310.94,9.27
4354.05,9.18
4397.59,9.07
4441.56,8.96
4485.98,8.84
4530.84,8.68
4576.15,8.48
4621.91,8.23
4668.13,7.95
4714.81,7.65
4761.96,7.33
4809.58,7.06
4857.67,6.87
4906.25,6.75
4955.31,6.73
5004.87,6.80
5054.91,6.90
5105.46,6.97
5156.52,6.92
5208.08,6.74
5260.16,6.43
5312.77,5.96
5365.89,5.42
5419.55,4.85
5473.75,4.27
5528.49,3.72
5583.77,3.20
5639.61,2.72
5696.00,2.33
5752.96,2.03
5810.49,1.82
5868.60,1.76
5927.28,1.77
5986.56,1.84
6046.42,2.01
6106.89,2.21
6167.96,2.42
6229.64,2.66
6291.93,2.91
6354.85,3.16
6418.40,3.45
6482.58,3.74
6547.41,4.03
6612.88,4.30
6679.01,4.55
6745.80,4.78
6813.26,5.00
6881.39,5.17
6950.21,5.34
7019.71,5.52
7089.91,5.68
7160.81,5.86
7232.41,6.03
7304.74,6.19
7377.79,6.36
7451.56,6.54
7526.08,6.75
7601.34,6.99
7677.35,7.28
7754.13,7.59
7831.67,7.92
7909.98,8.26
7989.08,8.59
8068.98,8.88
8149.67,9.13
8231.16,9.30
8313.47,9.33
8396.61,9.20
8480.57,8.93
8565.38,8.50
8651.03,7.94
8737.54,7.28
8824.92,6.54
8913.17,5.89
9002.30,5.21
9092.32,4.35
9183.25,3.65
9275.08,3.13
9367.83,2.25
9461.51,1.31
9556.12,0.50
9651.68,-0.23
9748.20,-0.94
9845.68,-1.64
9944.14,-2.32
10043.58,-2.97
10144.02,-3.58
10245.46,-4.16
10347.91,-4.71
10451.39,-5.19
10555.91,-5.55
10661.46,-5.75
10768.08,-5.87
10875.76,-5.98
10984.52,-6.15
11094.36,-6.42
11205.31,-6.76
11317.36,-7.03
11430.53,-7.20
11544.84,-7.72
11660.29,-8.34
11776.89,-8.16
11894.66,-7.98
12013.60,-7.97
12133.74,-7.66
12255.08,-7.58
12377.63,-7.63
12501.41,-7.71
12626.42,-7.82
12752.68,-7.95
12880.21,-8.07
13009.01,-8.14
13139.10,-8.16
13270.49,-8.05
13403.20,-7.80
13537.23,-7.48
13672.60,-7.13
13809.33,-6.79
13947.42,-6.35
14086.90,-5.85
14227.77,-5.32
14370.04,-4.95
14513.74,-4.76
14658.88,-4.78
14805.47,-5.06
14953.52,-5.46
15103.06,-5.91
15254.09,-6.36
15406.63,-6.71
15560.70,-6.93
15716.30,-6.91
15873.47,-6.54
16032.20,-5.89
16192.52,-4.93
16354.45,-3.72
16517.99,-2.46
16683.17,-1.25
16850.01,-0.34
17018.51,0.27
17188.69,0.62
17360.58,0.66
17534.18,0.57
17709.53,0.47
17886.62,0.46
18065.49,0.58
18246.14,0.79
18428.60,1.11
18612.89,1.45
18799.02,1.75
18987.01,1.93
19176.88,1.84
19368.65,1.51
19562.33,0.94
19757.96,0.10
19955.54,-0.87
