frequency,raw,smoothed,error,error_smoothed,equalization,parametric_eq,fixed_band_eq,equalized_raw,equalized_smoothed,target
20.00,0.48,0.48,-2.97,-2.98,2.95,2.14,0.94,3.44,3.43,3.46
20.20,0.53,0.53,-2.95,-2.95,2.94,2.13,0.97,3.48,3.48,3.49
20.40,0.58,0.59,-2.93,-2.93,2.93,2.12,1.00,3.52,3.52,3.52
20.61,0.63,0.64,-2.90,-2.90,2.92,2.12,1.03,3.55,3.55,3.53
20.81,0.68,0.68,-2.88,-2.88,2.90,2.11,1.06,3.58,3.59,3.56
21.02,0.73,0.72,-2.86,-2.86,2.88,2.10,1.09,3.62,3.61,3.59
21.23,0.75,0.75,-2.85,-2.85,2.86,2.09,1.13,3.62,3.62,3.60
21.44,0.77,0.77,-2.84,-2.84,2.84,2.08,1.16,3.61,3.62,3.61
21.66,0.79,0.79,-2.83,-2.83,2.82,2.07,1.20,3.61,3.61,3.62
21.87,0.81,0.81,-2.81,-2.81,2.79,2.06,1.24,3.61,3.61,3.62
22.09,0.84,0.85,-2.79,-2.78,2.76,2.05,1.27,3.61,3.61,3.63
22.31,0.88,0.88,-2.75,-2.75,2.73,2.04,1.31,3.62,3.62,3.63
22.54,0.93,0.93,-2.70,-2.70,2.70,2.03,1.35,3.63,3.63,3.63
22.76,0.97,0.98,-2.66,-2.65,2.67,2.02,1.40,3.64,3.64,3.63
22.99,1.02,1.01,-2.60,-2.61,2.64,2.01,1.44,3.66,3.65,3.62
23.22,1.03,1.04,-2.59,-2.58,2.61,2.00,1.48,3.64,3.64,3.62
23.45,1.05,1.05,-2.56,-2.56,2.57,1.99,1.53,3.62,3.62,3.62
23.69,1.06,1.06,-2.55,-2.56,2.54,1.98,1.57,3.60,3.60,3.62
23.92,1.08,1.09,-2.53,-2.53,2.50,1.97,1.62,3.58,3.58,3.62
24.16,1.12,1.13,-2.50,-2.49,2.45,1.96,1.66,3.58,3.59,3.62
24.40,1.19,1.19,-2.43,-2.43,2.41,1.94,1.71,3.61,3.60,3.62
24.65,1.26,1.26,-2.35,-2.36,2.37,1.93,1.76,3.63,3.63,3.61
24.89,1.32,1.32,-2.29,-2.29,2.32,1.92,1.81,3.65,3.64,3.61
25.14,1.36,1.35,-2.25,-2.26,2.28,1.91,1.85,3.65,3.64,3.61
25.39,1.37,1.38,-2.24,-2.23,2.25,1.89,1.90,3.62,3.63,3.61
25.65,1.38,1.39,-2.23,-2.22,2.23,1.88,1.95,3.61,3.61,3.61
25.91,1.40,1.39,-2.20,-2.21,2.21,1.87,2.00,3.61,3.60,3.60
26.16,1.40,1.40,-2.19,-2.19,2.20,1.86,2.05,3.60,3.60,3.60
26.43,1.40,1.40,-2.19,-2.19,2.18,1.84,2.09,3.58,3.59,3.60
26.69,1.41,1.41,-2.18,-2.19,2.16,1.83,2.14,3.57,3.57,3.59
26.96,1.41,1.42,-2.18,-2.17,2.14,1.81,2.18,3.55,3.56,3.59
27.23,1.45,1.46,-2.14,-2.13,2.11,1.80,2.23,3.56,3.57,3.59
27.50,1.51,1.51,-2.08,-2.08,2.08,1.78,2.27,3.60,3.59,3.59
27.77,1.56,1.56,-2.02,-2.02,2.06,1.77,2.31,3.62,3.62,3.58
28.05,1.60,1.59,-1.98,-1.98,2.03,1.75,2.35,3.63,3.62,3.58
28.33,1.59,1.59,-1.97,-1.98,1.99,1.74,2.38,3.59,3.59,3.57
28.62,1.59,1.59,-1.97,-1.97,1.96,1.72,2.41,3.55,3.55,3.56
28.90,1.58,1.60,-1.98,-1.96,1.92,1.71,2.44,3.51,3.52,3.56
29.19,1.62,1.63,-1.93,-1.93,1.89,1.69,2.46,3.52,3.52,3.55
29.48,1.68,1.68,-1.88,-1.87,1.87,1.67,2.48,3.55,3.55,3.56
29.78,1.74,1.74,-1.81,-1.81,1.84,1.66,2.50,3.58,3.58,3.55
30.08,1.79,1.78,-1.75,-1.77,1.80,1.64,2.51,3.59,3.58,3.55
30.38,1.79,1.79,-1.74,-1.75,1.76,1.62,2.52,3.56,3.55,3.53
30.68,1.79,1.79,-1.74,-1.73,1.72,1.60,2.52,3.51,3.52,3.53
30.99,1.79,1.81,-1.73,-1.72,1.68,1.58,2.52,3.48,3.49,3.52
31.30,1.84,1.84,-1.68,-1.67,1.65,1.56,2.52,3.49,3.50,3.52
31.61,1.89,1.89,-1.62,-1.62,1.62,1.54,2.51,3.52,3.52,3.52
31.93,1.95,1.94,-1.55,-1.57,1.60,1.52,2.49,3.55,3.53,3.50
32.24,1.96,1.96,-1.53,-1.54,1.57,1.50,2.47,3.53,3.52,3.49
32.57,1.96,1.97,-1.53,-1.52,1.53,1.48,2.45,3.49,3.50,3.49
32.89,1.96,1.97,-1.52,-1.51,1.49,1.46,2.42,3.46,3.47,3.49
33.22,1.99,1.99,-1.48,-1.48,1.46,1.44,2.38,3.45,3.45,3.47
33.55,2.03,2.03,-1.44,-1.44,1.42,1.42,2.35,3.45,3.45,3.47
33.89,2.07,2.07,-1.38,-1.39,1.38,1.40,2.30,3.45,3.45,3.46
34.23,2.11,2.11,-1.34,-1.34,1.34,1.37,2.26,3.45,3.45,3.45
34.57,2.15,2.16,-1.29,-1.28,1.29,1.35,2.21,3.44,3.45,3.44
34.92,2.20,2.20,-1.23,-1.24,1.25,1.33,2.16,3.45,3.45,3.43
35.27,2.23,2.23,-1.19,-1.19,1.21,1.30,2.11,3.45,3.44,3.42
35.62,2.25,2.26,-1.16,-1.16,1.18,1.28,2.05,3.43,3.43,3.41
35.97,2.27,2.27,-1.13,-1.14,1.14,1.25,1.99,3.41,3.41,3.40
36.33,2.27,2.27,-1.12,-1.12,1.11,1.22,1.93,3.38,3.37,3.39
36.70,2.27,2.27,-1.11,-1.11,1.07,1.20,1.87,3.34,3.34,3.38
37.06,2.28,2.30,-1.08,-1.07,1.03,1.17,1.80,3.32,3.34,3.37
37.43,2.35,2.35,-1.01,-1.00,1.00,1.14,1.74,3.35,3.35,3.36
37.81,2.42,2.41,-0.92,-0.94,0.96,1.11,1.67,3.38,3.37,3.35
38.19,2.46,2.45,-0.87,-0.89,0.92,1.08,1.61,3.38,3.37,3.33
38.57,2.46,2.47,-0.87,-0.86,0.88,1.05,1.54,3.34,3.34,3.33
38.95,2.46,2.47,-0.85,-0.84,0.84,1.02,1.47,3.30,3.31,3.31
39.34,2.48,2.48,-0.82,-0.82,0.80,0.99,1.41,3.28,3.28,3.30
39.74,2.50,2.50,-0.78,-0.78,0.78,0.95,1.34,3.28,3.28,3.28
40.14,2.53,2.53,-0.75,-0.75,0.75,0.92,1.27,3.29,3.28,3.28
40.54,2.54,2.55,-0.72,-0.72,0.73,0.88,1.21,3.28,3.28,3.26
40.94,2.56,2.56,-0.69,-0.70,0.71,0.85,1.14,3.27,3.26,3.26
41.35,2.56,2.56,-0.68,-0.68,0.68,0.81,1.07,3.24,3.24,3.24
41.76,2.56,2.57,-0.67,-0.66,0.64,0.77,1.01,3.21,3.21,3.23
42.18,2.58,2.59,-0.64,-0.63,0.61,0.73,0.94,3.19,3.20,3.23
42.60,2.63,2.63,-0.58,-0.58,0.57,0.69,0.88,3.20,3.20,3.21
43.03,2.68,2.68,-0.52,-0.52,0.53,0.65,0.81,3.22,3.21,3.20
43.46,2.71,2.72,-0.47,-0.47,0.49,0.61,0.75,3.20,3.21,3.19
43.90,2.74,2.74,-0.42,-0.43,0.45,0.56,0.69,3.19,3.18,3.16
44.33,2.75,2.75,-0.39,-0.39,0.40,0.52,0.62,3.15,3.14,3.14
44.78,2.75,2.76,-0.37,-0.36,0.35,0.47,0.56,3.10,3.11,3.12
45.23,2.77,2.78,-0.33,-0.32,0.30,0.42,0.50,3.07,3.08,3.10
45.68,2.82,2.82,-0.26,-0.27,0.26,0.37,0.44,3.08,3.07,3.09
46.13,2.86,2.86,-0.20,-0.21,0.22,0.32,0.38,3.08,3.08,3.07
46.60,2.90,2.90,-0.16,-0.15,0.17,0.27,0.32,3.08,3.08,3.06
47.06,2.93,2.93,-0.11,-0.11,0.13,0.22,0.26,3.06,3.06,3.04
47.53,2.94,2.94,-0.08,-0.08,0.08,0.16,0.20,3.03,3.03,3.02
48.01,2.95,2.95,-0.06,-0.05,0.04,0.11,0.15,2.99,2.99,3.01
48.49,2.95,2.95,-0.03,-0.02,-0.01,0.06,0.09,2.95,2.95,2.98
48.97,2.96,2.98,0.02,0.03,-0.05,0.00,0.03,2.92,2.93,2.95
49.46,3.00,3.00,0.09,0.09,-0.08,-0.05,-0.02,2.92,2.92,2.91
49.96,3.04,3.03,0.16,0.14,-0.12,-0.11,-0.08,2.93,2.91,2.88
50.46,3.04,3.04,0.17,0.18,-0.15,-0.16,-0.13,2.89,2.89,2.87
50.96,3.04,3.05,0.19,0.20,-0.18,-0.21,-0.19,2.86,2.86,2.85
51.47,3.04,3.04,0.23,0.22,-0.22,-0.26,-0.24,2.82,2.82,2.82
51.99,3.04,3.04,0.25,0.24,-0.26,-0.31,-0.30,2.78,2.78,2.79
52.51,3.04,3.04,0.26,0.27,-0.30,-0.35,-0.35,2.74,2.74,2.78
53.03,3.04,3.06,0.29,0.31,-0.34,-0.39,-0.40,2.70,2.72,2.75
53.56,3.10,3.10,0.37,0.37,-0.39,-0.43,-0.45,2.71,2.71,2.73
54.10,3.15,3.15,0.45,0.45,-0.44,-0.47,-0.50,2.71,2.71,2.70
54.64,3.20,3.20,0.53,0.52,-0.49,-0.50,-0.55,2.71,2.71,2.68
55.18,3.23,3.22,0.58,0.57,-0.54,-0.53,-0.60,2.69,2.68,2.65
55.74,3.23,3.24,0.61,0.61,-0.59,-0.56,-0.65,2.65,2.65,2.62
56.29,3.23,3.24,0.63,0.63,-0.63,-0.59,-0.70,2.60,2.61,2.61
56.86,3.23,3.23,0.65,0.65,-0.66,-0.61,-0.75,2.57,2.56,2.58
57.42,3.23,3.23,0.68,0.68,-0.70,-0.64,-0.79,2.54,2.53,2.55
58.00,3.23,3.25,0.70,0.72,-0.73,-0.66,-0.84,2.51,2.52,2.53
58.58,3.27,3.27,0.76,0.76,-0.76,-0.69,-0.88,2.51,2.51,2.51
59.16,3.30,3.30,0.81,0.81,-0.80,-0.71,-0.93,2.50,2.49,2.49
59.76,3.32,3.32,0.85,0.85,-0.85,-0.73,-0.97,2.47,2.46,2.47
60.35,3.33,3.33,0.90,0.89,-0.90,-0.76,-1.01,2.43,2.43,2.44
60.96,3.33,3.36,0.92,0.95,-0.96,-0.78,-1.05,2.38,2.40,2.41
61.57,3.39,3.39,1.02,1.01,-1.01,-0.81,-1.09,2.39,2.38,2.37
62.18,3.43,3.42,1.10,1.08,-1.05,-0.84,-1.13,2.38,2.36,2.34
62.80,3.43,3.44,1.12,1.13,-1.10,-0.87,-1.16,2.33,2.33,2.31
63.43,3.43,3.43,1.15,1.15,-1.15,-0.90,-1.20,2.28,2.28,2.28
64.07,3.43,3.43,1.18,1.18,-1.20,-0.93,-1.24,2.23,2.23,2.25
64.71,3.44,3.45,1.22,1.23,-1.25,-0.96,-1.27,2.20,2.20,2.22
65.35,3.47,3.48,1.28,1.28,-1.29,-1.00,-1.31,2.18,2.19,2.20
66.01,3.52,3.51,1.35,1.34,-1.33,-1.03,-1.34,2.19,2.18,2.17
66.67,3.52,3.52,1.38,1.38,-1.37,-1.07,-1.37,2.16,2.16,2.14
67.33,3.52,3.53,1.41,1.42,-1.40,-1.11,-1.40,2.12,2.12,2.11
68.01,3.52,3.52,1.44,1.44,-1.44,-1.15,-1.44,2.08,2.08,2.08
68.69,3.52,3.52,1.47,1.47,-1.48,-1.19,-1.47,2.04,2.04,2.05
69.37,3.52,3.52,1.51,1.50,-1.51,-1.24,-1.50,2.01,2.01,2.02
70.07,3.52,3.52,1.54,1.53,-1.54,-1.28,-1.53,1.98,1.98,1.98
70.77,3.52,3.52,1.56,1.57,-1.57,-1.33,-1.56,1.95,1.95,1.96
71.48,3.52,3.53,1.60,1.60,-1.59,-1.37,-1.59,1.93,1.94,1.93
72.19,3.52,3.52,1.63,1.63,-1.61,-1.42,-1.63,1.91,1.91,1.89
72.91,3.52,3.50,1.67,1.65,-1.64,-1.47,-1.66,1.89,1.86,1.85
73.64,3.46,3.47,1.64,1.65,-1.66,-1.52,-1.69,1.80,1.81,1.82
74.38,3.43,3.45,1.64,1.66,-1.68,-1.57,-1.73,1.75,1.77,1.79
75.12,3.43,3.43,1.68,1.67,-1.69,-1.63,-1.76,1.74,1.73,1.75
75.87,3.43,3.43,1.71,1.71,-1.71,-1.68,-1.80,1.72,1.72,1.72
76.63,3.43,3.43,1.74,1.74,-1.72,-1.74,-1.83,1.71,1.71,1.69
77.40,3.42,3.41,1.76,1.75,-1.74,-1.79,-1.87,1.68,1.67,1.66
78.17,3.39,3.38,1.77,1.76,-1.76,-1.85,-1.91,1.63,1.62,1.62
78.95,3.33,3.36,1.74,1.76,-1.78,-1.91,-1.95,1.56,1.58,1.60
79.74,3.33,3.34,1.77,1.77,-1.79,-1.96,-1.99,1.55,1.55,1.56
80.54,3.33,3.32,1.80,1.79,-1.79,-2.02,-2.03,1.54,1.53,1.53
81.35,3.30,3.30,1.81,1.81,-1.78,-2.08,-2.07,1.52,1.52,1.49
82.16,3.25,3.27,1.79,1.81,-1.78,-2.14,-2.12,1.47,1.49,1.46
82.98,3.23,3.21,1.80,1.79,-1.78,-2.20,-2.16,1.45,1.43,1.43
83.81,3.15,3.15,1.77,1.76,-1.77,-2.27,-2.21,1.38,1.38,1.39
84.65,3.07,3.09,1.72,1.74,-1.76,-2.33,-2.26,1.31,1.33,1.35
85.50,3.04,3.05,1.72,1.73,-1.74,-2.39,-2.32,1.30,1.31,1.32
86.35,3.03,3.02,1.75,1.75,-1.73,-2.46,-2.37,1.30,1.29,1.28
87.22,3.00,2.99,1.76,1.75,-1.73,-2.52,-2.42,1.28,1.26,1.24
88.09,2.94,2.94,1.74,1.73,-1.73,-2.59,-2.48,1.21,1.21,1.20
88.97,2.86,2.88,1.69,1.72,-1.74,-2.65,-2.54,1.12,1.14,1.17
89.86,2.85,2.85,1.73,1.73,-1.76,-2.72,-2.60,1.10,1.10,1.13
90.76,2.85,2.85,1.78,1.77,-1.78,-2.79,-2.66,1.07,1.07,1.07
91.66,2.86,2.86,1.82,1.82,-1.80,-2.86,-2.73,1.06,1.05,1.04
92.58,2.86,2.86,1.87,1.87,-1.84,-2.92,-2.79,1.02,1.02,0.99
93.51,2.86,2.86,1.91,1.91,-1.89,-2.99,-2.86,0.97,0.97,0.96
94.44,2.86,2.85,1.95,1.94,-1.95,-3.06,-2.93,0.91,0.90,0.91
95.39,2.85,2.87,1.99,2.00,-2.02,-3.13,-3.00,0.83,0.84,0.87
96.34,2.88,2.90,2.07,2.08,-2.10,-3.20,-3.08,0.78,0.79,0.81
97.30,2.97,2.95,2.21,2.18,-2.19,-3.27,-3.15,0.78,0.76,0.77
98.28,3.02,3.02,2.30,2.30,-2.29,-3.34,-3.23,0.73,0.73,0.72
99.26,3.08,3.10,2.41,2.42,-2.41,-3.41,-3.30,0.68,0.69,0.68
100.25,3.18,3.16,2.55,2.53,-2.53,-3.48,-3.38,0.65,0.63,0.63
101.25,3.24,3.23,2.66,2.65,-2.67,-3.55,-3.46,0.58,0.57,0.58
102.27,3.29,3.32,2.75,2.79,-2.81,-3.62,-3.54,0.49,0.52,0.54
103.29,3.42,3.42,2.94,2.93,-2.94,-3.69,-3.63,0.48,0.48,0.48
104.32,3.54,3.53,3.10,3.08,-3.07,-3.76,-3.71,0.47,0.45,0.45
105.37,3.62,3.63,3.22,3.23,-3.20,-3.84,-3.79,0.42,0.43,0.40
106.42,3.71,3.71,3.36,3.35,-3.32,-3.91,-3.87,0.39,0.38,0.35
107.48,3.77,3.77,3.47,3.46,-3.45,-3.98,-3.95,0.33,0.32,0.31
108.56,3.81,3.82,3.56,3.56,-3.56,-4.05,-4.04,0.25,0.26,0.25
109.64,3.86,3.86,3.66,3.65,-3.67,-4.12,-4.12,0.19,0.18,0.20
110.74,3.91,3.92,3.75,3.76,-3.78,-4.19,-4.20,0.13,0.14,0.16
111.85,3.97,3.99,3.86,3.89,-3.89,-4.26,-4.27,0.08,0.10,0.11
112.97,4.10,4.06,4.05,4.01,-4.01,-4.33,-4.35,0.09,0.05,0.05
114.10,4.12,4.13,4.12,4.13,-4.13,-4.40,-4.43,-0.01,-0.00,0.00
115.24,4.17,4.19,4.22,4.24,-4.26,-4.47,-4.50,-0.08,-0.07,-0.05
116.39,4.26,4.26,4.37,4.36,-4.38,-4.55,-4.57,-0.12,-0.13,-0.11
117.55,4.33,4.35,4.49,4.52,-4.51,-4.61,-4.63,-0.17,-0.15,-0.16
118.73,4.46,4.44,4.68,4.65,-4.63,-4.68,-4.70,-0.16,-0.19,-0.21
119.92,4.52,4.50,4.78,4.77,-4.74,-4.75,-4.76,-0.22,-0.24,-0.26
121.12,4.53,4.56,4.84,4.87,-4.85,-4.82,-4.81,-0.32,-0.30,-0.31
122.33,4.59,4.59,4.96,4.95,-4.96,-4.89,-4.87,-0.37,-0.37,-0.36
123.55,4.64,4.64,5.05,5.05,-5.07,-4.96,-4.92,-0.43,-0.43,-0.41
124.79,4.69,4.70,5.15,5.15,-5.17,-5.03,-4.96,-0.47,-0.47,-0.46
126.03,4.75,4.74,5.26,5.25,-5.26,-5.09,-5.00,-0.50,-0.51,-0.51
127.29,4.78,4.79,5.34,5.35,-5.34,-5.16,-5.04,-0.56,-0.55,-0.56
128.57,4.83,4.83,5.45,5.44,-5.42,-5.23,-5.07,-0.59,-0.59,-0.62
129.85,4.86,4.86,5.53,5.52,-5.50,-5.29,-5.10,-0.64,-0.65,-0.66
131.15,4.87,4.87,5.59,5.58,-5.58,-5.36,-5.13,-0.71,-0.71,-0.71
132.46,4.87,4.87,5.63,5.63,-5.66,-5.42,-5.16,-0.79,-0.78,-0.76
133.79,4.88,4.89,5.68,5.69,-5.73,-5.49,-5.18,-0.85,-0.84,-0.80
135.12,4.91,4.92,5.77,5.76,-5.79,-5.55,-5.20,-0.88,-0.87,-0.85
136.48,4.96,4.95,5.85,5.84,-5.84,-5.61,-5.21,-0.88,-0.88,-0.89
137.84,4.98,4.98,5.91,5.92,-5.87,-5.67,-5.23,-0.89,-0.89,-0.93
139.22,4.98,4.98,5.97,5.96,-5.90,-5.73,-5.24,-0.92,-0.92,-0.99
140.61,4.95,4.94,5.98,5.97,-5.92,-5.79,-5.25,-0.97,-0.98,-1.03
142.02,4.89,4.89,5.94,5.95,-5.94,-5.85,-5.27,-1.05,-1.05,-1.05
143.44,4.82,4.83,5.91,5.93,-5.96,-5.91,-5.28,-1.14,-1.13,-1.09
144.87,4.79,4.79,5.92,5.92,-5.98,-5.97,-5.29,-1.19,-1.19,-1.13
146.32,4.79,4.79,5.96,5.96,-6.01,-6.03,-5.30,-1.22,-1.22,-1.17
147.78,4.80,4.82,6.00,6.02,-6.04,-6.09,-5.31,-1.24,-1.23,-1.20
149.26,4.86,4.85,6.10,6.09,-6.09,-6.14,-5.33,-1.23,-1.24,-1.24
150.75,4.89,4.88,6.18,6.16,-6.15,-6.20,-5.34,-1.26,-1.27,-1.29
152.26,4.89,4.90,6.21,6.22,-6.21,-6.25,-5.36,-1.32,-1.32,-1.32
153.78,4.89,4.90,6.25,6.26,-6.26,-6.30,-5.38,-1.37,-1.36,-1.36
155.32,4.89,4.90,6.29,6.30,-6.29,-6.36,-5.41,-1.40,-1.39,-1.40
156.88,4.89,4.89,6.33,6.33,-6.28,-6.41,-5.43,-1.39,-1.39,-1.44
158.44,4.85,4.85,6.33,6.33,-6.25,-6.46,-5.46,-1.40,-1.40,-1.48
160.03,4.78,4.76,6.30,6.28,-6.20,-6.51,-5.49,-1.42,-1.44,-1.52
161.63,4.63,4.64,6.20,6.20,-6.14,-6.55,-5.53,-1.51,-1.50,-1.56
163.24,4.48,4.48,6.09,6.08,-6.09,-6.60,-5.56,-1.61,-1.61,-1.60
164.88,4.36,4.35,6.00,5.98,-6.07,-6.65,-5.61,-1.71,-1.73,-1.63
166.53,4.24,4.28,5.92,5.95,-6.08,-6.69,-5.65,-1.84,-1.80,-1.67
168.19,4.28,4.29,5.99,6.00,-6.12,-6.74,-5.71,-1.84,-1.83,-1.71
169.87,4.40,4.39,6.15,6.14,-6.21,-6.78,-5.76,-1.80,-1.81,-1.75
171.57,4.54,4.55,6.33,6.33,-6.32,-6.82,-5.82,-1.78,-1.78,-1.79
173.29,4.71,4.70,6.53,6.52,-6.46,-6.87,-5.88,-1.75,-1.76,-1.82
175.02,4.84,4.85,6.70,6.71,-6.63,-6.91,-5.95,-1.78,-1.78,-1.86
176.77,4.96,4.95,6.86,6.85,-6.79,-6.95,-6.02,-1.83,-1.84,-1.90
178.54,5.02,5.01,6.97,6.95,-6.94,-6.98,-6.10,-1.92,-1.93,-1.95
180.32,5.04,5.08,7.02,7.06,-7.07,-7.02,-6.18,-2.03,-1.99,-1.98
182.13,5.12,5.14,7.13,7.16,-7.17,-7.06,-6.26,-2.05,-2.03,-2.01
183.95,5.25,5.21,7.31,7.26,-7.26,-7.09,-6.35,-2.01,-2.05,-2.05
185.79,5.26,5.27,7.35,7.35,-7.33,-7.12,-6.45,-2.07,-2.06,-2.08
187.65,5.28,5.29,7.41,7.41,-7.39,-7.16,-6.54,-2.11,-2.10,-2.13
189.52,5.29,5.29,7.45,7.45,-7.45,-7.19,-6.65,-2.16,-2.16,-2.16
191.42,5.30,5.31,7.49,7.49,-7.51,-7.22,-6.75,-2.20,-2.20,-2.19
193.33,5.32,5.32,7.54,7.53,-7.56,-7.24,-6.87,-2.23,-2.24,-2.21
195.27,5.33,5.33,7.57,7.57,-7.60,-7.27,-6.98,-2.27,-2.27,-2.24
197.22,5.35,5.35,7.62,7.63,-7.64,-7.30,-7.10,-2.29,-2.29,-2.27
199.19,5.36,5.38,7.67,7.68,-7.67,-7.32,-7.22,-2.31,-2.29,-2.31
201.18,5.42,5.41,7.75,7.74,-7.71,-7.35,-7.35,-2.28,-2.30,-2.32
203.19,5.44,5.42,7.78,7.76,-7.74,-7.37,-7.47,-2.29,-2.32,-2.34
205.23,5.39,5.41,7.76,7.77,-7.76,-7.39,-7.60,-2.37,-2.35,-2.37
207.28,5.37,5.38,7.74,7.76,-7.78,-7.41,-7.74,-2.41,-2.40,-2.37
209.35,5.37,5.37,7.77,7.77,-7.80,-7.43,-7.87,-2.43,-2.43,-2.40
211.44,5.37,5.37,7.79,7.78,-7.81,-7.44,-8.00,-2.44,-2.44,-2.42
213.56,5.36,5.37,7.79,7.79,-7.80,-7.46,-8.14,-2.43,-2.42,-2.42
215.69,5.36,5.37,7.79,7.80,-7.77,-7.47,-8.27,-2.40,-2.40,-2.43
217.85,5.35,5.34,7.79,7.78,-7.72,-7.48,-8.40,-2.37,-2.38,-2.44
220.03,5.29,5.28,7.74,7.73,-7.66,-7.49,-8.53,-2.37,-2.38,-2.45
222.23,5.19,5.19,7.66,7.64,-7.60,-7.50,-8.65,-2.41,-2.41,-2.46
224.45,5.06,5.06,7.52,7.52,-7.53,-7.51,-8.77,-2.47,-2.47,-2.45
226.70,4.94,4.96,7.40,7.41,-7.46,-7.52,-8.88,-2.52,-2.51,-2.46
228.96,4.87,4.89,7.33,7.34,-7.41,-7.52,-8.98,-2.54,-2.52,-2.46
231.25,4.88,4.87,7.33,7.32,-7.38,-7.53,-9.07,-2.49,-2.51,-2.45
233.57,4.89,4.88,7.34,7.33,-7.36,-7.53,-9.16,-2.47,-2.48,-2.45
235.90,4.90,4.92,7.35,7.37,-7.37,-7.53,-9.23,-2.47,-2.45,-2.45
238.26,4.98,4.97,7.43,7.41,-7.40,-7.53,-9.29,-2.42,-2.43,-2.45
240.64,5.03,5.04,7.47,7.47,-7.44,-7.52,-9.34,-2.41,-2.41,-2.44
243.05,5.10,5.10,7.53,7.53,-7.49,-7.52,-9.37,-2.39,-2.39,-2.42
245.48,5.16,5.15,7.57,7.57,-7.55,-7.51,-9.38,-2.39,-2.40,-2.41
247.93,5.19,5.18,7.59,7.58,-7.60,-7.50,-9.39,-2.41,-2.42,-2.40
250.41,5.21,5.22,7.61,7.61,-7.65,-7.49,-9.37,-2.43,-2.42,-2.40
252.92,5.24,5.29,7.62,7.66,-7.68,-7.48,-9.33,-2.44,-2.39,-2.38
255.45,5.40,5.36,7.76,7.72,-7.71,-7.47,-9.28,-2.31,-2.35,-2.35
258.00,5.44,5.43,7.78,7.76,-7.74,-7.45,-9.22,-2.29,-2.31,-2.34
260.58,5.44,5.46,7.77,7.78,-7.75,-7.43,-9.13,-2.31,-2.29,-2.33
263.19,5.45,5.45,7.76,7.76,-7.75,-7.41,-9.04,-2.30,-2.30,-2.30
265.82,5.44,5.45,7.73,7.73,-7.74,-7.39,-8.92,-2.30,-2.29,-2.29
268.48,5.44,5.45,7.71,7.72,-7.71,-7.37,-8.80,-2.27,-2.26,-2.27
271.16,5.44,5.44,7.68,7.68,-7.67,-7.34,-8.66,-2.23,-2.24,-2.24
273.87,5.43,5.42,7.66,7.64,-7.62,-7.32,-8.52,-2.19,-2.21,-2.23
276.61,5.35,5.37,7.56,7.58,-7.57,-7.29,-8.36,-2.22,-2.20,-2.20
279.38,5.34,5.32,7.53,7.51,-7.53,-7.26,-8.20,-2.18,-2.20,-2.19
282.17,5.27,5.28,7.45,7.45,-7.49,-7.23,-8.03,-2.22,-2.21,-2.17
284.99,5.25,5.26,7.40,7.42,-7.45,-7.19,-7.86,-2.20,-2.19,-2.15
287.84,5.26,5.26,7.40,7.39,-7.42,-7.15,-7.68,-2.16,-2.16,-2.13
290.72,5.27,5.28,7.38,7.38,-7.38,-7.12,-7.50,-2.11,-2.11,-2.11
293.63,5.28,5.28,7.37,7.37,-7.35,-7.07,-7.31,-2.06,-2.06,-2.09
296.57,5.29,5.28,7.36,7.35,-7.30,-7.03,-7.12,-2.01,-2.02,-2.07
299.53,5.24,5.24,7.29,7.29,-7.26,-6.99,-6.94,-2.02,-2.01,-2.05
302.53,5.20,5.18,7.24,7.21,-7.21,-6.94,-6.75,-2.00,-2.03,-2.03
305.55,5.09,5.12,7.09,7.12,-7.14,-6.89,-6.56,-2.05,-2.03,-2.00
308.61,5.05,5.07,7.03,7.05,-7.07,-6.84,-6.38,-2.02,-2.00,-1.98
311.69,5.05,5.03,7.01,6.98,-7.00,-6.78,-6.19,-1.95,-1.97,-1.96
314.81,5.01,4.99,6.93,6.91,-6.92,-6.73,-6.01,-1.91,-1.93,-1.92
317.96,4.91,4.95,6.81,6.85,-6.84,-6.67,-5.82,-1.93,-1.90,-1.90
321.14,4.87,4.89,6.76,6.77,-6.77,-6.61,-5.65,-1.90,-1.88,-1.89
324.35,4.87,4.82,6.74,6.69,-6.69,-6.55,-5.47,-1.82,-1.87,-1.87
327.59,4.74,4.77,6.58,6.62,-6.60,-6.48,-5.29,-1.86,-1.83,-1.84
330.87,4.68,4.70,6.51,6.52,-6.51,-6.41,-5.12,-1.83,-1.82,-1.82
334.18,4.64,4.61,6.45,6.42,-6.41,-6.34,-4.95,-1.77,-1.80,-1.81
337.52,4.52,4.54,6.31,6.32,-6.31,-6.27,-4.79,-1.79,-1.77,-1.79
340.90,4.44,4.44,6.20,6.20,-6.20,-6.20,-4.62,-1.76,-1.76,-1.76
344.30,4.34,4.33,6.09,6.08,-6.09,-6.12,-4.46,-1.75,-1.76,-1.74
347.75,4.22,4.24,5.95,5.97,-5.98,-6.04,-4.31,-1.75,-1.73,-1.73
351.23,4.15,4.15,5.86,5.86,-5.87,-5.96,-4.15,-1.71,-1.72,-1.71
354.74,4.07,4.05,5.76,5.74,-5.76,-5.87,-4.00,-1.69,-1.71,-1.69
358.28,3.95,3.97,5.63,5.64,-5.65,-5.78,-3.85,-1.70,-1.68,-1.67
361.87,3.86,3.88,5.52,5.54,-5.54,-5.69,-3.70,-1.68,-1.66,-1.66
365.49,3.81,3.79,5.46,5.44,-5.43,-5.60,-3.56,-1.62,-1.64,-1.65
369.14,3.70,3.70,5.34,5.33,-5.31,-5.51,-3.42,-1.61,-1.62,-1.64
372.83,3.58,3.59,5.20,5.21,-5.19,-5.41,-3.28,-1.61,-1.60,-1.62
376.56,3.46,3.47,5.07,5.08,-5.06,-5.31,-3.15,-1.60,-1.59,-1.61
380.33,3.36,3.35,4.95,4.94,-4.93,-5.21,-3.02,-1.57,-1.58,-1.58
384.13,3.22,3.21,4.80,4.79,-4.81,-5.10,-2.89,-1.59,-1.59,-1.58
387.97,3.07,3.08,4.64,4.65,-4.69,-4.99,-2.76,-1.61,-1.61,-1.57
391.85,2.94,2.96,4.50,4.52,-4.57,-4.88,-2.63,-1.62,-1.60,-1.56
395.77,2.87,2.87,4.41,4.41,-4.45,-4.77,-2.51,-1.57,-1.58,-1.54
399.73,2.79,2.78,4.32,4.32,-4.32,-4.65,-2.39,-1.52,-1.53,-1.53
403.72,2.68,2.70,4.21,4.22,-4.17,-4.53,-2.28,-1.49,-1.48,-1.52
407.76,2.58,2.57,4.10,4.08,-4.02,-4.41,-2.16,-1.44,-1.44,-1.51
411.84,2.42,2.41,3.92,3.91,-3.84,-4.28,-2.05,-1.42,-1.43,-1.50
415.96,2.21,2.21,3.70,3.70,-3.65,-4.16,-1.94,-1.44,-1.44,-1.49
420.12,1.96,1.98,3.44,3.46,-3.44,-4.03,-1.83,-1.48,-1.47,-1.48
424.32,1.75,1.75,3.22,3.21,-3.23,-3.89,-1.73,-1.48,-1.49,-1.47
428.56,1.53,1.53,2.99,2.99,-3.03,-3.76,-1.63,-1.50,-1.50,-1.46
432.85,1.34,1.35,2.79,2.80,-2.84,-3.62,-1.53,-1.50,-1.49,-1.45
437.18,1.20,1.20,2.64,2.64,-2.69,-3.48,-1.43,-1.49,-1.49,-1.44
441.55,1.09,1.10,2.52,2.52,-2.56,-3.33,-1.34,-1.47,-1.47,-1.42
445.96,1.03,1.04,2.45,2.45,-2.48,-3.18,-1.25,-1.44,-1.44,-1.41
450.42,1.00,1.01,2.41,2.41,-2.42,-3.03,-1.16,-1.42,-1.41,-1.41
454.93,1.01,1.00,2.40,2.39,-2.38,-2.88,-1.08,-1.37,-1.38,-1.39
459.48,0.99,1.00,2.37,2.37,-2.37,-2.73,-1.00,-1.37,-1.37,-1.38
464.07,1.00,0.99,2.36,2.35,-2.35,-2.57,-0.92,-1.35,-1.36,-1.36
468.71,0.98,0.99,2.32,2.33,-2.33,-2.41,-0.84,-1.35,-1.34,-1.34
473.40,0.98,0.99,2.31,2.32,-2.29,-2.24,-0.77,-1.31,-1.30,-1.33
478.13,0.98,0.96,2.29,2.28,-2.23,-2.08,-0.71,-1.25,-1.27,-1.31
482.91,0.92,0.91,2.22,2.21,-2.17,-1.91,-0.64,-1.24,-1.26,-1.30
487.74,0.80,0.82,2.08,2.10,-2.08,-1.74,-0.58,-1.28,-1.27,-1.28
492.62,0.70,0.69,1.96,1.95,-1.98,-1.56,-0.52,-1.28,-1.30,-1.26
497.55,0.56,0.57,1.81,1.82,-1.87,-1.39,-0.47,-1.31,-1.30,-1.25
502.52,0.44,0.47,1.68,1.71,-1.74,-1.21,-0.42,-1.30,-1.27,-1.23
507.55,0.38,0.38,1.61,1.60,-1.60,-1.03,-0.37,-1.22,-1.22,-1.22
512.62,0.30,0.26,1.51,1.46,-1.44,-0.85,-0.33,-1.14,-1.18,-1.20
