frequency,raw,error,smoothed,error_smoothed,equalization,parametric_eq,fixed_band_eq,equalized_raw,equalized_smoothed,target
20.00,-9.45,-10.99,-9.45,-11.00,6.00,4.98,2.69,-3.45,-3.45,1.55
20.20,-9.42,-10.99,-9.41,-10.98,6.00,5.03,2.77,-3.42,-3.41,1.58
20.40,-9.36,-10.96,-9.35,-10.96,6.00,5.08,2.85,-3.36,-3.35,1.61
20.61,-9.30,-10.92,-9.30,-10.93,6.00,5.13,2.93,-3.30,-3.30,1.63
20.81,-9.23,-10.88,-9.23,-10.89,6.00,5.17,3.01,-3.23,-3.23,1.66
21.02,-9.16,-10.84,-9.16,-10.84,6.00,5.22,3.10,-3.16,-3.16,1.69
21.23,-9.10,-10.79,-9.09,-10.79,6.00,5.27,3.19,-3.10,-3.09,1.70
21.44,-9.02,-10.72,-9.03,-10.73,6.00,5.32,3.29,-3.02,-3.03,1.71
21.66,-8.97,-10.68,-8.96,-10.67,6.00,5.36,3.38,-2.97,-2.96,1.71
21.87,-8.90,-10.61,-8.90,-10.62,6.00,5.41,3.48,-2.90,-2.90,1.71
22.09,-8.84,-10.56,-8.84,-10.56,6.00,5.45,3.58,-2.84,-2.84,1.72
22.31,-8.78,-10.50,-8.77,-10.50,6.00,5.50,3.68,-2.78,-2.77,1.72
22.54,-8.71,-10.43,-8.71,-10.43,6.00,5.54,3.79,-2.71,-2.71,1.72
22.76,-8.65,-10.37,-8.64,-10.36,6.00,5.59,3.90,-2.65,-2.64,1.72
22.99,-8.58,-10.29,-8.58,-10.30,6.00,5.63,4.01,-2.58,-2.58,1.71
23.22,-8.52,-10.23,-8.52,-10.23,6.00,5.67,4.13,-2.52,-2.52,1.71
23.45,-8.46,-10.17,-8.46,-10.17,6.00,5.72,4.25,-2.46,-2.46,1.71
23.69,-8.40,-10.11,-8.40,-10.11,6.00,5.76,4.37,-2.40,-2.40,1.71
23.92,-8.34,-10.05,-8.34,-10.05,6.00,5.80,4.49,-2.34,-2.34,1.71
24.16,-8.28,-10.00,-8.28,-9.99,6.00,5.84,4.61,-2.28,-2.28,1.72
24.40,-8.22,-9.94,-8.21,-9.93,6.00,5.88,4.74,-2.22,-2.21,1.72
24.65,-8.15,-9.86,-8.15,-9.86,6.00,5.92,4.87,-2.15,-2.15,1.71
24.89,-8.09,-9.80,-8.09,-9.80,6.00,5.95,5.00,-2.09,-2.09,1.71
25.14,-8.04,-9.75,-8.03,-9.74,6.00,5.99,5.14,-2.04,-2.03,1.71
25.39,-7.98,-9.68,-7.97,-9.68,6.00,6.03,5.27,-1.98,-1.97,1.71
25.65,-7.90,-9.61,-7.91,-9.62,6.00,6.06,5.41,-1.90,-1.91,1.71
25.91,-7.86,-9.56,-7.86,-9.56,6.00,6.09,5.54,-1.86,-1.86,1.70
26.16,-7.81,-9.50,-7.81,-9.50,6.00,6.13,5.68,-1.81,-1.81,1.70
26.43,-7.76,-9.45,-7.75,-9.45,6.00,6.16,5.82,-1.76,-1.75,1.70
26.69,-7.70,-9.39,-7.69,-9.39,6.00,6.19,5.95,-1.70,-1.69,1.70
26.96,-7.62,-9.31,-7.63,-9.32,6.00,6.22,6.09,-1.62,-1.63,1.70
27.23,-7.57,-9.26,-7.56,-9.26,6.00,6.25,6.22,-1.57,-1.56,1.69
27.50,-7.51,-9.20,-7.50,-9.19,6.00,6.28,6.35,-1.51,-1.50,1.69
27.77,-7.45,-9.13,-7.45,-9.13,6.00,6.30,6.47,-1.45,-1.45,1.68
28.05,-7.39,-9.07,-7.39,-9.07,6.00,6.33,6.60,-1.39,-1.39,1.68
28.33,-7.34,-9.01,-7.34,-9.02,6.00,6.35,6.71,-1.34,-1.34,1.67
28.62,-7.30,-8.97,-7.29,-8.96,6.00,6.37,6.83,-1.30,-1.29,1.67
28.90,-7.25,-8.92,-7.24,-8.91,6.00,6.39,6.93,-1.25,-1.24,1.67
29.19,-7.18,-8.84,-7.18,-8.85,6.00,6.41,7.03,-1.18,-1.18,1.66
29.48,-7.12,-8.78,-7.12,-8.78,6.00,6.43,7.12,-1.12,-1.12,1.67
29.78,-7.06,-8.71,-7.06,-8.72,6.00,6.45,7.19,-1.06,-1.06,1.66
30.08,-7.01,-8.66,-7.00,-8.66,6.00,6.46,7.26,-1.01,-1.00,1.66
30.38,-6.95,-8.59,-6.95,-8.60,6.00,6.48,7.32,-0.95,-0.95,1.64
30.68,-6.90,-8.54,-6.90,-8.54,6.00,6.49,7.37,-0.90,-0.90,1.64
30.99,-6.84,-8.47,-6.84,-8.47,6.00,6.50,7.41,-0.84,-0.84,1.63
31.30,-6.79,-8.42,-6.79,-8.42,6.00,6.51,7.44,-0.79,-0.79,1.63
31.61,-6.73,-8.36,-6.73,-8.36,6.00,6.52,7.45,-0.73,-0.73,1.63
31.93,-6.69,-8.31,-6.69,-8.30,6.00,6.53,7.45,-0.69,-0.69,1.62
32.24,-6.64,-8.24,-6.64,-8.25,6.00,6.53,7.45,-0.64,-0.64,1.61
32.57,-6.59,-8.19,-6.58,-8.19,6.00,6.54,7.43,-0.59,-0.58,1.61
32.89,-6.53,-8.13,-6.52,-8.13,6.00,6.54,7.40,-0.53,-0.52,1.60
33.22,-6.47,-8.06,-6.47,-8.06,6.00,6.54,7.36,-0.47,-0.47,1.59
33.55,-6.41,-8.00,-6.42,-8.01,6.00,6.54,7.31,-0.41,-0.42,1.59
33.89,-6.38,-7.96,-6.37,-7.95,6.00,6.54,7.26,-0.38,-0.37,1.58
34.23,-6.32,-7.90,-6.32,-7.89,6.00,6.54,7.19,-0.32,-0.32,1.58
34.57,-6.27,-7.83,-6.27,-7.84,6.00,6.53,7.12,-0.27,-0.27,1.57
34.92,-6.22,-7.77,-6.22,-7.78,6.00,6.52,7.05,-0.22,-0.22,1.55
35.27,-6.18,-7.73,-6.17,-7.72,6.00,6.52,6.97,-0.18,-0.17,1.55
35.62,-6.13,-7.67,-6.12,-7.66,6.00,6.51,6.88,-0.13,-0.12,1.54
35.97,-6.07,-7.59,-6.07,-7.60,6.00,6.49,6.80,-0.07,-0.07,1.53
36.33,-6.02,-7.54,-6.02,-7.54,6.00,6.48,6.71,-0.02,-0.02,1.53
36.70,-5.98,-7.49,-5.97,-7.49,6.00,6.47,6.62,0.02,0.03,1.51
37.06,-5.93,-7.43,-5.92,-7.43,6.00,6.45,6.52,0.07,0.08,1.50
37.43,-5.88,-7.38,-5.87,-7.37,6.00,6.44,6.43,0.12,0.13,1.50
37.81,-5.82,-7.30,-5.82,-7.31,6.00,6.42,6.34,0.18,0.18,1.49
38.19,-5.78,-7.25,-5.78,-7.26,6.00,6.40,6.25,0.22,0.22,1.47
38.57,-5.74,-7.21,-5.73,-7.20,6.00,6.38,6.16,0.26,0.27,1.47
38.95,-5.68,-7.13,-5.68,-7.14,6.00,6.36,6.07,0.32,0.32,1.46
39.34,-5.63,-7.07,-5.63,-7.08,6.00,6.33,5.99,0.37,0.37,1.45
39.74,-5.58,-7.01,-5.58,-7.01,6.00,6.31,5.90,0.42,0.42,1.43
40.14,-5.54,-6.97,-5.53,-6.96,6.00,6.28,5.82,0.46,0.47,1.43
40.54,-5.49,-6.90,-5.49,-6.90,6.00,6.25,5.75,0.51,0.51,1.42
40.94,-5.44,-6.85,-5.44,-6.85,6.00,6.23,5.67,0.56,0.56,1.41
41.35,-5.40,-6.80,-5.39,-6.79,6.00,6.20,5.60,0.60,0.61,1.40
41.76,-5.35,-6.74,-5.34,-6.74,6.00,6.17,5.54,0.65,0.66,1.39
42.18,-5.29,-6.68,-5.30,-6.68,6.00,6.13,5.47,0.71,0.70,1.39
42.60,-5.26,-6.63,-5.25,-6.63,6.00,6.10,5.42,0.74,0.75,1.38
43.03,-5.22,-6.59,-5.22,-6.59,6.00,6.07,5.36,0.78,0.78,1.37
43.46,-5.18,-6.53,-5.18,-6.53,6.00,6.03,5.31,0.82,0.82,1.36
43.90,-5.15,-6.48,-5.14,-6.48,6.00,6.00,5.26,0.85,0.86,1.33
44.33,-5.09,-6.41,-5.10,-6.42,6.00,5.96,5.22,0.91,0.90,1.32
44.78,-5.06,-6.36,-5.05,-6.35,6.00,5.92,5.18,0.95,0.95,1.30
45.23,-5.01,-6.30,-5.00,-6.29,6.01,5.88,5.15,1.00,1.01,1.29
45.68,-4.95,-6.22,-4.96,-6.23,6.01,5.84,5.12,1.06,1.05,1.27
46.13,-4.92,-6.17,-4.91,-6.17,6.01,5.80,5.09,1.09,1.10,1.26
46.60,-4.87,-6.12,-4.87,-6.12,6.00,5.76,5.07,1.14,1.13,1.25
47.06,-4.84,-6.07,-4.83,-6.07,5.99,5.72,5.05,1.15,1.16,1.24
47.53,-4.78,-6.00,-4.79,-6.01,5.96,5.68,5.03,1.19,1.17,1.22
48.01,-4.75,-5.96,-4.75,-5.95,5.93,5.63,5.02,1.18,1.18,1.21
48.49,-4.72,-5.90,-4.70,-5.89,5.89,5.59,5.01,1.17,1.18,1.19
48.97,-4.66,-5.82,-4.67,-5.83,5.84,5.54,5.01,1.18,1.17,1.16
49.46,-4.63,-5.76,-4.63,-5.76,5.78,5.50,5.00,1.15,1.15,1.13
49.96,-4.60,-5.70,-4.59,-5.71,5.72,5.45,5.00,1.12,1.13,1.11
50.46,-4.57,-5.67,-4.56,-5.65,5.66,5.41,5.01,1.09,1.10,1.10
50.96,-4.52,-5.60,-4.52,-5.60,5.60,5.36,5.01,1.08,1.07,1.08
51.47,-4.48,-5.53,-4.48,-5.54,5.54,5.31,5.02,1.06,1.06,1.05
51.99,-4.45,-5.48,-4.44,-5.48,5.48,5.26,5.03,1.03,1.04,1.03
52.51,-4.40,-5.42,-4.40,-5.43,5.42,5.22,5.04,1.03,1.02,1.03
53.03,-4.37,-5.37,-4.37,-5.37,5.37,5.17,5.05,1.00,1.00,1.01
53.56,-4.34,-5.32,-4.33,-5.32,5.31,5.12,5.06,0.98,0.98,0.99
54.10,-4.29,-5.25,-4.29,-5.26,5.26,5.07,5.07,0.97,0.97,0.97
54.64,-4.25,-5.19,-4.25,-5.20,5.20,5.02,5.09,0.95,0.95,0.95
55.18,-4.22,-5.14,-4.22,-5.14,5.15,4.97,5.10,0.93,0.93,0.93
55.74,-4.19,-5.09,-4.18,-5.09,5.09,4.92,5.11,0.91,0.91,0.91
56.29,-4.15,-5.04,-4.15,-5.04,5.04,4.87,5.12,0.89,0.89,0.89
56.86,-4.12,-4.99,-4.12,-4.99,4.99,4.82,5.13,0.87,0.87,0.87
57.42,-4.10,-4.95,-4.09,-4.94,4.94,4.77,5.13,0.84,0.85,0.85
58.00,-4.05,-4.89,-4.05,-4.89,4.89,4.72,5.13,0.84,0.84,0.84
58.58,-4.01,-4.83,-4.01,-4.84,4.84,4.67,5.13,0.83,0.83,0.83
59.16,-3.98,-4.79,-3.97,-4.79,4.79,4.62,5.13,0.81,0.82,0.81
59.76,-3.95,-4.75,-3.94,-4.74,4.74,4.56,5.12,0.79,0.79,0.80
60.35,-3.91,-4.68,-3.91,-4.69,4.68,4.51,5.11,0.78,0.77,0.77
60.96,-3.89,-4.65,-3.88,-4.64,4.63,4.46,5.09,0.74,0.75,0.76
61.57,-3.85,-4.57,-3.85,-4.57,4.57,4.41,5.07,0.73,0.73,0.73
62.18,-3.82,-4.52,-3.81,-4.52,4.52,4.36,5.04,0.70,0.71,0.70
62.80,-3.77,-4.45,-3.78,-4.46,4.47,4.31,5.01,0.70,0.69,0.68
63.43,-3.76,-4.41,-3.75,-4.41,4.41,4.26,4.97,0.66,0.67,0.66
64.07,-3.73,-4.37,-3.72,-4.36,4.36,4.21,4.93,0.64,0.64,0.64
64.71,-3.68,-4.30,-3.69,-4.31,4.31,4.15,4.89,0.63,0.62,0.62
65.35,-3.67,-4.27,-3.66,-4.26,4.26,4.10,4.84,0.60,0.60,0.61
66.01,-3.63,-4.21,-3.63,-4.22,4.21,4.05,4.78,0.59,0.58,0.59
66.67,-3.61,-4.17,-3.60,-4.17,4.17,4.00,4.72,0.56,0.56,0.57
67.33,-3.57,-4.11,-3.57,-4.11,4.12,3.95,4.66,0.55,0.55,0.55
68.01,-3.54,-4.06,-3.54,-4.07,4.07,3.90,4.59,0.53,0.53,0.53
68.69,-3.51,-4.01,-3.51,-4.02,4.02,3.85,4.52,0.51,0.51,0.51
69.37,-3.50,-3.98,-3.49,-3.97,3.97,3.80,4.45,0.48,0.49,0.49
70.07,-3.45,-3.91,-3.46,-3.93,3.92,3.75,4.37,0.48,0.47,0.46
70.77,-3.44,-3.89,-3.43,-3.88,3.88,3.70,4.29,0.44,0.45,0.45
71.48,-3.40,-3.83,-3.40,-3.83,3.83,3.65,4.21,0.43,0.43,0.43
72.19,-3.38,-3.78,-3.38,-3.78,3.78,3.60,4.13,0.40,0.40,0.40
72.91,-3.36,-3.74,-3.35,-3.73,3.73,3.55,4.05,0.38,0.38,0.38
73.64,-3.32,-3.67,-3.32,-3.68,3.68,3.50,3.96,0.37,0.36,0.36
74.38,-3.31,-3.65,-3.30,-3.63,3.63,3.45,3.88,0.33,0.34,0.34
75.12,-3.26,-3.57,-3.27,-3.59,3.59,3.40,3.79,0.33,0.32,0.31
75.87,-3.25,-3.54,-3.24,-3.54,3.54,3.35,3.71,0.29,0.30,0.30
76.63,-3.22,-3.50,-3.21,-3.49,3.49,3.30,3.63,0.27,0.28,0.28
77.40,-3.18,-3.44,-3.18,-3.45,3.45,3.25,3.54,0.27,0.26,0.26
78.17,-3.17,-3.40,-3.16,-3.40,3.40,3.21,3.46,0.24,0.25,0.23
78.95,-3.12,-3.34,-3.13,-3.35,3.36,3.16,3.38,0.24,0.23,0.23
79.74,-3.12,-3.32,-3.11,-3.31,3.31,3.11,3.30,0.20,0.20,0.21
80.54,-3.08,-3.26,-3.08,-3.27,3.27,3.06,3.22,0.19,0.18,0.19
81.35,-3.08,-3.24,-3.06,-3.23,3.22,3.02,3.14,0.14,0.16,0.17
82.16,-3.03,-3.17,-3.03,-3.18,3.18,2.97,3.07,0.15,0.14,0.14
82.98,-3.01,-3.14,-3.01,-3.13,3.13,2.92,2.99,0.12,0.13,0.13
83.81,-2.98,-3.08,-2.98,-3.08,3.08,2.88,2.92,0.11,0.11,0.10
84.65,-2.95,-3.02,-2.95,-3.04,3.04,2.83,2.85,0.09,0.08,0.08
85.50,-2.94,-3.00,-2.93,-2.99,2.99,2.79,2.78,0.05,0.06,0.06
86.35,-2.91,-2.95,-2.91,-2.95,2.95,2.74,2.71,0.04,0.04,0.04
87.22,-2.89,-2.90,-2.89,-2.90,2.90,2.70,2.65,0.01,0.02,0.02
88.09,-2.87,-2.86,-2.86,-2.86,2.86,2.65,2.59,-0.01,-0.01,-0.01
88.97,-2.84,-2.81,-2.85,-2.82,2.82,2.61,2.53,-0.02,-0.03,-0.02
89.86,-2.84,-2.79,-2.83,-2.77,2.77,2.56,2.47,-0.06,-0.05,-0.05
90.76,-2.81,-2.72,-2.81,-2.73,2.73,2.52,2.41,-0.07,-0.08,-0.09
91.66,-2.80,-2.69,-2.80,-2.69,2.69,2.47,2.35,-0.11,-0.11,-0.10
92.58,-2.80,-2.66,-2.78,-2.65,2.65,2.43,2.30,-0.15,-0.13,-0.14
93.51,-2.76,-2.60,-2.77,-2.61,2.61,2.39,2.25,-0.15,-0.16,-0.16
94.44,-2.75,-2.56,-2.76,-2.57,2.57,2.34,2.20,-0.18,-0.19,-0.19
95.39,-2.75,-2.53,-2.74,-2.53,2.52,2.30,2.15,-0.22,-0.22,-0.21
96.34,-2.75,-2.50,-2.73,-2.49,2.48,2.26,2.10,-0.26,-0.25,-0.25
97.30,-2.72,-2.44,-2.72,-2.44,2.44,2.22,2.06,-0.27,-0.28,-0.28
98.28,-2.70,-2.39,-2.71,-2.40,2.40,2.17,2.02,-0.29,-0.30,-0.31
99.26,-2.70,-2.36,-2.70,-2.36,2.36,2.13,1.97,-0.33,-0.33,-0.34
100.25,-2.70,-2.33,-2.69,-2.32,2.32,2.09,1.93,-0.38,-0.37,-0.37
101.25,-2.69,-2.29,-2.68,-2.28,2.28,2.05,1.89,-0.41,-0.40,-0.40
102.27,-2.66,-2.23,-2.67,-2.24,2.24,2.01,1.86,-0.42,-0.43,-0.42
103.29,-2.66,-2.19,-2.66,-2.20,2.20,1.97,1.82,-0.46,-0.46,-0.46
104.32,-2.66,-2.17,-2.64,-2.15,2.16,1.93,1.78,-0.50,-0.48,-0.48
105.37,-2.62,-2.10,-2.63,-2.11,2.12,1.89,1.75,-0.50,-0.51,-0.51
106.42,-2.61,-2.06,-2.62,-2.08,2.07,1.85,1.72,-0.54,-0.55,-0.54
107.48,-2.61,-2.04,-2.60,-2.03,2.03,1.81,1.68,-0.58,-0.57,-0.57
108.56,-2.61,-2.00,-2.59,-1.98,1.98,1.77,1.65,-0.63,-0.61,-0.61
109.64,-2.56,-1.92,-2.58,-1.94,1.94,1.73,1.62,-0.62,-0.64,-0.64
110.74,-2.56,-1.89,-2.56,-1.89,1.89,1.69,1.59,-0.67,-0.67,-0.67
111.85,-2.56,-1.86,-2.54,-1.83,1.84,1.65,1.56,-0.72,-0.70,-0.70
112.97,-2.52,-1.77,-2.54,-1.80,1.79,1.61,1.53,-0.73,-0.75,-0.75
114.10,-2.52,-1.74,-2.52,-1.74,1.73,1.57,1.50,-0.78,-0.78,-0.78
115.24,-2.52,-1.70,-2.50,-1.69,1.68,1.53,1.47,-0.84,-0.82,-0.81
116.39,-2.47,-1.62,-2.48,-1.63,1.63,1.50,1.44,-0.84,-0.85,-0.85
117.55,-2.47,-1.58,-2.46,-1.57,1.57,1.46,1.41,-0.89,-0.88,-0.89
118.73,-2.43,-1.50,-2.44,-1.51,1.52,1.42,1.38,-0.91,-0.92,-0.93
119.92,-2.42,-1.46,-2.42,-1.46,1.47,1.38,1.35,-0.95,-0.95,-0.95
121.12,-2.42,-1.43,-2.40,-1.41,1.41,1.34,1.32,-1.00,-0.99,-0.99
122.33,-2.38,-1.35,-2.39,-1.37,1.36,1.31,1.29,-1.02,-1.03,-1.03
123.55,-2.38,-1.32,-2.37,-1.31,1.31,1.27,1.26,-1.07,-1.06,-1.05
124.79,-2.34,-1.25,-2.35,-1.26,1.25,1.23,1.23,-1.08,-1.09,-1.09
126.03,-2.33,-1.20,-2.33,-1.21,1.20,1.19,1.20,-1.13,-1.13,-1.12
127.29,-2.33,-1.17,-2.31,-1.15,1.15,1.15,1.17,-1.18,-1.16,-1.16
128.57,-2.28,-1.08,-2.29,-1.09,1.09,1.11,1.14,-1.18,-1.20,-1.20
129.85,-2.28,-1.04,-2.27,-1.03,1.04,1.08,1.11,-1.24,-1.23,-1.24
131.15,-2.24,-0.97,-2.25,-0.98,0.99,1.04,1.07,-1.25,-1.26,-1.27
132.46,-2.24,-0.94,-2.23,-0.93,0.93,1.00,1.04,-1.30,-1.30,-1.30
133.79,-2.22,-0.89,-2.21,-0.88,0.88,0.96,1.01,-1.34,-1.33,-1.32
135.12,-2.19,-0.82,-2.19,-0.84,0.83,0.92,0.97,-1.36,-1.37,-1.36
136.48,-2.18,-0.79,-2.17,-0.78,0.78,0.88,0.94,-1.40,-1.39,-1.39
137.84,-2.14,-0.72,-2.15,-0.72,0.73,0.84,0.90,-1.41,-1.42,-1.42
139.22,-2.14,-0.68,-2.13,-0.68,0.68,0.81,0.87,-1.45,-1.44,-1.46
140.61,-2.10,-0.61,-2.11,-0.63,0.64,0.77,0.83,-1.46,-1.47,-1.48
142.02,-2.10,-0.60,-2.09,-0.59,0.59,0.73,0.79,-1.50,-1.50,-1.49
143.44,-2.09,-0.57,-2.07,-0.55,0.55,0.69,0.76,-1.54,-1.52,-1.52
144.87,-2.05,-0.50,-2.06,-0.52,0.51,0.65,0.72,-1.54,-1.55,-1.55
146.32,-2.05,-0.47,-2.04,-0.47,0.47,0.60,0.68,-1.58,-1.57,-1.57
147.78,-2.04,-0.45,-2.02,-0.43,0.43,0.56,0.64,-1.61,-1.59,-1.59
149.26,-2.00,-0.38,-2.01,-0.39,0.39,0.52,0.61,-1.60,-1.62,-1.62
150.75,-2.00,-0.35,-2.00,-0.35,0.35,0.48,0.57,-1.65,-1.64,-1.65
152.26,-2.00,-0.32,-1.98,-0.30,0.31,0.44,0.53,-1.69,-1.67,-1.68
153.78,-1.96,-0.26,-1.97,-0.27,0.27,0.39,0.49,-1.69,-1.71,-1.70
155.32,-1.96,-0.22,-1.95,-0.22,0.22,0.35,0.45,-1.74,-1.73,-1.73
156.88,-1.95,-0.19,-1.94,-0.18,0.17,0.31,0.41,-1.77,-1.76,-1.76
158.44,-1.91,-0.12,-1.92,-0.13,0.13,0.26,0.38,-1.78,-1.79,-1.79
160.03,-1.91,-0.09,-1.90,-0.08,0.08,0.22,0.34,-1.83,-1.82,-1.82
161.63,-1.88,-0.03,-1.88,-0.03,0.04,0.17,0.30,-1.84,-1.84,-1.85
163.24,-1.86,0.02,-1.86,0.01,-0.01,0.12,0.26,-1.87,-1.87,-1.88
164.88,-1.86,0.04,-1.84,0.06,-0.06,0.07,0.22,-1.91,-1.90,-1.90
166.53,-1.82,0.11,-1.83,0.10,-0.10,0.03,0.18,-1.92,-1.93,-1.93
168.19,-1.82,0.14,-1.82,0.14,-0.14,-0.02,0.14,-1.96,-1.96,-1.96
169.87,-1.82,0.17,-1.80,0.19,-0.19,-0.07,0.10,-2.01,-1.98,-1.99
171.57,-1.77,0.25,-1.79,0.22,-0.23,-0.12,0.06,-2.00,-2.02,-2.01
173.29,-1.77,0.27,-1.77,0.27,-0.28,-0.17,0.02,-2.04,-2.04,-2.04
175.02,-1.77,0.30,-1.75,0.33,-0.32,-0.22,-0.02,-2.09,-2.07,-2.07
176.77,-1.72,0.39,-1.74,0.37,-0.37,-0.28,-0.06,-2.08,-2.11,-2.10
178.54,-1.72,0.42,-1.72,0.42,-0.41,-0.33,-0.10,-2.13,-2.13,-2.14
180.32,-1.72,0.45,-1.70,0.47,-0.46,-0.38,-0.14,-2.18,-2.16,-2.16
182.13,-1.68,0.51,-1.69,0.50,-0.50,-0.43,-0.18,-2.18,-2.20,-2.19
183.95,-1.68,0.55,-1.68,0.54,-0.55,-0.49,-0.22,-2.22,-2.22,-2.22
185.79,-1.68,0.57,-1.66,0.59,-0.59,-0.54,-0.26,-2.27,-2.25,-2.25
187.65,-1.63,0.65,-1.64,0.63,-0.63,-0.59,-0.30,-2.26,-2.27,-2.28
189.52,-1.63,0.68,-1.63,0.67,-0.67,-0.64,-0.34,-2.30,-2.30,-2.30
191.42,-1.63,0.70,-1.62,0.71,-0.71,-0.70,-0.38,-2.33,-2.33,-2.33
193.33,-1.63,0.72,-1.61,0.74,-0.74,-0.74,-0.42,-2.37,-2.35,-2.35
195.27,-1.58,0.79,-1.59,0.78,-0.78,-0.79,-0.46,-2.36,-2.37,-2.37
197.22,-1.58,0.81,-1.58,0.81,-0.81,-0.84,-0.50,-2.39,-2.39,-2.39
199.19,-1.58,0.84,-1.57,0.85,-0.84,-0.89,-0.54,-2.42,-2.41,-2.42
201.18,-1.57,0.87,-1.56,0.87,-0.87,-0.93,-0.58,-2.44,-2.43,-2.43
203.19,-1.54,0.91,-1.55,0.90,-0.90,-0.97,-0.62,-2.43,-2.45,-2.44
205.23,-1.54,0.93,-1.54,0.92,-0.92,-1.01,-0.66,-2.46,-2.46,-2.46
207.28,-1.54,0.92,-1.53,0.94,-0.95,-1.04,-0.70,-2.48,-2.47,-2.46
209.35,-1.52,0.96,-1.51,0.97,-0.97,-1.07,-0.74,-2.49,-2.48,-2.48
211.44,-1.49,1.01,-1.50,0.99,-0.99,-1.10,-0.78,-2.48,-2.49,-2.50
213.56,-1.49,1.01,-1.49,1.01,-1.01,-1.12,-0.82,-2.50,-2.50,-2.50
215.69,-1.49,1.01,-1.47,1.03,-1.03,-1.14,-0.86,-2.52,-2.50,-2.50
217.85,-1.46,1.05,-1.46,1.05,-1.05,-1.16,-0.89,-2.50,-2.51,-2.50
220.03,-1.44,1.08,-1.45,1.06,-1.06,-1.17,-0.93,-2.50,-2.51,-2.51
222.23,-1.44,1.08,-1.44,1.08,-1.07,-1.18,-0.96,-2.51,-2.51,-2.52
224.45,-1.44,1.07,-1.43,1.08,-1.08,-1.18,-0.99,-2.52,-2.51,-2.51
226.70,-1.42,1.09,-1.42,1.09,-1.09,-1.18,-1.02,-2.51,-2.51,-2.50
228.96,-1.40,1.10,-1.41,1.09,-1.09,-1.18,-1.05,-2.49,-2.50,-2.50
231.25,-1.40,1.09,-1.40,1.09,-1.10,-1.17,-1.08,-2.50,-2.50,-2.49
233.57,-1.40,1.09,-1.39,1.10,-1.10,-1.16,-1.10,-2.50,-2.49,-2.48
235.90,-1.38,1.10,-1.37,1.11,-1.10,-1.15,-1.13,-2.48,-2.48,-2.48
238.26,-1.35,1.13,-1.36,1.11,-1.11,-1.14,-1.15,-2.45,-2.47,-2.47
240.64,-1.35,1.11,-1.35,1.11,-1.11,-1.12,-1.17,-2.46,-2.46,-2.46
243.05,-1.35,1.10,-1.34,1.10,-1.11,-1.10,-1.18,-2.46,-2.45,-2.45
245.48,-1.35,1.08,-1.33,1.10,-1.11,-1.08,-1.20,-2.45,-2.44,-2.43
247.93,-1.30,1.12,-1.31,1.11,-1.10,-1.06,-1.21,-2.40,-2.41,-2.42
250.41,-1.30,1.11,-1.30,1.10,-1.10,-1.04,-1.22,-2.39,-2.39,-2.41
252.92,-1.30,1.09,-1.29,1.09,-1.09,-1.02,-1.22,-2.38,-2.38,-2.39
255.45,-1.30,1.06,-1.30,1.07,-1.08,-1.00,-1.23,-2.37,-2.37,-2.36
258.00,-1.30,1.05,-1.29,1.06,-1.06,-0.98,-1.23,-2.36,-2.35,-2.34
260.58,-1.27,1.06,-1.27,1.05,-1.05,-0.96,-1.23,-2.32,-2.32,-2.33
263.19,-1.26,1.05,-1.26,1.04,-1.03,-0.94,-1.23,-2.29,-2.30,-2.30
265.82,-1.26,1.03,-1.25,1.03,-1.02,-0.92,-1.22,-2.28,-2.27,-2.29
268.48,-1.26,1.00,-1.26,1.00,-1.01,-0.90,-1.21,-2.26,-2.26,-2.26
271.16,-1.26,0.98,-1.26,0.98,-0.99,-0.88,-1.21,-2.25,-2.25,-2.23
273.87,-1.26,0.96,-1.25,0.97,-0.98,-0.86,-1.20,-2.23,-2.22,-2.22
276.61,-1.23,0.96,-1.23,0.96,-0.96,-0.84,-1.18,-2.19,-2.19,-2.19
279.38,-1.21,0.97,-1.21,0.96,-0.95,-0.82,-1.17,-2.15,-2.16,-2.17
282.17,-1.21,0.95,-1.20,0.95,-0.93,-0.81,-1.15,-2.14,-2.14,-2.16
284.99,-1.21,0.92,-1.21,0.92,-0.92,-0.79,-1.14,-2.13,-2.13,-2.13
287.84,-1.21,0.90,-1.21,0.90,-0.91,-0.77,-1.12,-2.12,-2.12,-2.11
290.72,-1.21,0.88,-1.20,0.89,-0.90,-0.76,-1.10,-2.11,-2.10,-2.08
293.63,-1.19,0.88,-1.18,0.88,-0.88,-0.75,-1.08,-2.07,-2.07,-2.07
296.57,-1.16,0.88,-1.17,0.88,-0.87,-0.73,-1.06,-2.02,-2.03,-2.04
299.53,-1.16,0.86,-1.16,0.86,-0.85,-0.72,-1.04,-2.01,-2.01,-2.02
302.53,-1.16,0.85,-1.15,0.84,-0.83,-0.71,-1.02,-1.99,-1.99,-2.00
305.55,-1.16,0.81,-1.16,0.81,-0.82,-0.70,-1.00,-1.97,-1.98,-1.97
308.61,-1.16,0.79,-1.15,0.79,-0.80,-0.69,-0.98,-1.96,-1.95,-1.95
311.69,-1.16,0.76,-1.14,0.77,-0.78,-0.68,-0.96,-1.94,-1.92,-1.92
314.81,-1.12,0.77,-1.13,0.76,-0.76,-0.67,-0.94,-1.88,-1.89,-1.88
317.96,-1.12,0.75,-1.12,0.75,-0.74,-0.67,-0.92,-1.86,-1.86,-1.86
321.14,-1.12,0.73,-1.12,0.73,-0.73,-0.66,-0.90,-1.84,-1.84,-1.85
324.35,-1.12,0.71,-1.12,0.71,-0.71,-0.65,-0.88,-1.83,-1.83,-1.83
327.59,-1.12,0.68,-1.11,0.70,-0.70,-0.65,-0.86,-1.82,-1.81,-1.80
330.87,-1.09,0.69,-1.09,0.69,-0.69,-0.64,-0.84,-1.78,-1.78,-1.78
334.18,-1.07,0.70,-1.07,0.69,-0.68,-0.63,-0.83,-1.74,-1.75,-1.76
337.52,-1.07,0.68,-1.06,0.68,-0.66,-0.63,-0.81,-1.73,-1.73,-1.74
340.90,-1.07,0.65,-1.07,0.65,-0.65,-0.63,-0.79,-1.72,-1.72,-1.72
344.30,-1.07,0.63,-1.07,0.63,-0.64,-0.62,-0.77,-1.71,-1.71,-1.70
347.75,-1.07,0.61,-1.06,0.62,-0.63,-0.62,-0.76,-1.70,-1.69,-1.68
351.23,-1.04,0.62,-1.04,0.62,-0.62,-0.62,-0.74,-1.66,-1.66,-1.66
354.74,-1.02,0.62,-1.03,0.62,-0.61,-0.61,-0.73,-1.62,-1.63,-1.64
358.28,-1.02,0.60,-1.02,0.61,-0.59,-0.61,-0.71,-1.61,-1.61,-1.62
361.87,-1.02,0.59,-1.01,0.59,-0.58,-0.61,-0.70,-1.60,-1.60,-1.60
365.49,-1.02,0.57,-1.02,0.57,-0.57,-0.61,-0.69,-1.59,-1.59,-1.58
369.14,-1.02,0.56,-1.02,0.55,-0.56,-0.61,-0.68,-1.58,-1.58,-1.57
372.83,-1.02,0.54,-1.01,0.55,-0.55,-0.60,-0.66,-1.57,-1.56,-1.56
376.56,-1.01,0.54,-1.00,0.54,-0.54,-0.60,-0.65,-1.55,-1.54,-1.55
380.33,-0.98,0.54,-0.99,0.54,-0.53,-0.60,-0.64,-1.51,-1.52,-1.52
384.13,-0.98,0.53,-0.98,0.53,-0.53,-0.60,-0.63,-1.50,-1.51,-1.51
387.97,-0.98,0.52,-0.98,0.52,-0.52,-0.60,-0.62,-1.50,-1.50,-1.50
391.85,-0.98,0.51,-0.97,0.52,-0.52,-0.60,-0.61,-1.50,-1.49,-1.49
395.77,-0.96,0.51,-0.95,0.52,-0.52,-0.60,-0.61,-1.48,-1.48,-1.47
399.73,-0.93,0.53,-0.94,0.52,-0.52,-0.60,-0.60,-1.45,-1.46,-1.46
403.72,-0.93,0.53,-0.93,0.52,-0.52,-0.60,-0.59,-1.45,-1.45,-1.45
407.76,-0.93,0.52,-0.91,0.53,-0.52,-0.60,-0.59,-1.45,-1.44,-1.44
411.84,-0.90,0.53,-0.90,0.53,-0.52,-0.60,-0.58,-1.42,-1.43,-1.42
415.96,-0.88,0.54,-0.88,0.53,-0.53,-0.60,-0.57,-1.40,-1.41,-1.41
420.12,-0.88,0.53,-0.88,0.53,-0.53,-0.60,-0.57,-1.40,-1.41,-1.41
424.32,-0.88,0.52,-0.87,0.52,-0.53,-0.60,-0.56,-1.40,-1.40,-1.40
428.56,-0.88,0.51,-0.87,0.52,-0.52,-0.61,-0.56,-1.40,-1.39,-1.39
432.85,-0.85,0.53,-0.85,0.52,-0.52,-0.61,-0.55,-1.37,-1.37,-1.38
437.18,-0.84,0.53,-0.84,0.52,-0.51,-0.61,-0.55,-1.35,-1.36,-1.37
441.55,-0.84,0.51,-0.83,0.52,-0.51,-0.61,-0.54,-1.35,-1.34,-1.35
445.96,-0.84,0.50,-0.84,0.50,-0.50,-0.61,-0.54,-1.34,-1.35,-1.34
450.42,-0.84,0.49,-0.83,0.49,-0.50,-0.61,-0.54,-1.34,-1.33,-1.33
454.93,-0.84,0.47,-0.82,0.49,-0.50,-0.61,-0.53,-1.33,-1.32,-1.31
459.48,-0.79,0.51,-0.81,0.49,-0.49,-0.61,-0.53,-1.28,-1.30,-1.30
