frequency,raw,smoothed,error,error_smoothed,equalization,parametric_eq,fixed_band_eq,equalized_raw,equalized_smoothed,target
20.00,3.12,3.12,-7.51,-7.51,6.00,6.03,2.63,9.12,9.12,10.63
20.20,3.15,3.15,-7.48,-7.48,6.00,6.03,2.71,9.15,9.15,10.62
20.40,3.17,3.18,-7.46,-7.44,6.00,6.02,2.78,9.17,9.18,10.62
20.61,3.22,3.22,-7.41,-7.41,6.00,6.02,2.86,9.22,9.22,10.62
20.81,3.27,3.26,-7.35,-7.36,6.00,6.01,2.95,9.27,9.26,10.62
21.02,3.30,3.31,-7.32,-7.32,6.00,6.01,3.03,9.30,9.31,10.62
21.23,3.35,3.35,-7.27,-7.27,6.00,6.00,3.12,9.35,9.35,10.62
21.44,3.40,3.39,-7.22,-7.23,6.00,6.00,3.21,9.40,9.39,10.62
21.66,3.43,3.44,-7.19,-7.18,6.00,5.99,3.30,9.43,9.44,10.62
21.87,3.48,3.48,-7.14,-7.14,6.00,5.99,3.39,9.48,9.48,10.62
22.09,3.52,3.52,-7.10,-7.10,6.00,5.98,3.49,9.52,9.52,10.62
22.31,3.56,3.56,-7.06,-7.06,6.00,5.98,3.59,9.56,9.56,10.62
22.54,3.59,3.59,-7.03,-7.02,6.00,5.97,3.69,9.59,9.59,10.62
22.76,3.64,3.63,-6.98,-6.98,6.00,5.96,3.80,9.64,9.63,10.62
22.99,3.67,3.67,-6.95,-6.94,6.00,5.96,3.90,9.67,9.67,10.61
23.22,3.71,3.71,-6.91,-6.90,6.00,5.95,4.02,9.71,9.71,10.61
23.45,3.76,3.75,-6.85,-6.86,6.00,5.95,4.13,9.76,9.75,10.61
23.69,3.79,3.79,-6.82,-6.82,6.00,5.94,4.24,9.79,9.79,10.61
23.92,3.82,3.83,-6.79,-6.78,6.00,5.93,4.36,9.82,9.83,10.61
24.16,3.87,3.86,-6.74,-6.75,6.00,5.93,4.48,9.87,9.86,10.61
24.40,3.90,3.90,-6.71,-6.71,6.00,5.92,4.60,9.90,9.90,10.61
24.65,3.93,3.93,-6.68,-6.68,6.00,5.91,4.73,9.93,9.93,10.61
24.89,3.96,3.96,-6.65,-6.65,6.00,5.90,4.85,9.96,9.96,10.61
25.14,4.00,3.99,-6.61,-6.61,6.00,5.90,4.98,10.00,9.99,10.60
25.39,4.02,4.02,-6.58,-6.58,6.00,5.89,5.10,10.02,10.02,10.60
25.65,4.06,4.06,-6.54,-6.54,6.00,5.88,5.23,10.06,10.06,10.60
25.91,4.10,4.09,-6.50,-6.51,6.00,5.87,5.36,10.10,10.09,10.60
26.16,4.13,4.13,-6.47,-6.47,6.00,5.87,5.49,10.13,10.13,10.60
26.43,4.16,4.16,-6.44,-6.44,6.00,5.86,5.62,10.16,10.16,10.60
26.69,4.19,4.19,-6.41,-6.41,6.00,5.85,5.74,10.19,10.19,10.59
26.96,4.22,4.22,-6.38,-6.38,6.00,5.84,5.87,10.22,10.22,10.59
27.23,4.25,4.25,-6.34,-6.34,6.00,5.83,5.99,10.25,10.25,10.59
27.50,4.28,4.28,-6.31,-6.31,6.00,5.83,6.11,10.28,10.28,10.59
27.77,4.31,4.31,-6.28,-6.28,6.00,5.82,6.23,10.31,10.31,10.59
28.05,4.34,4.34,-6.25,-6.25,6.00,5.81,6.34,10.34,10.34,10.59
28.33,4.36,4.36,-6.23,-6.22,6.00,5.80,6.45,10.36,10.36,10.58
28.62,4.40,4.39,-6.18,-6.19,6.00,5.79,6.55,10.40,10.39,10.58
28.90,4.41,4.42,-6.17,-6.16,6.00,5.78,6.64,10.41,10.42,10.58
29.19,4.45,4.44,-6.13,-6.13,6.00,5.77,6.73,10.45,10.45,10.58
29.48,4.48,4.47,-6.10,-6.10,6.01,5.76,6.81,10.48,10.48,10.57
29.78,4.49,4.50,-6.08,-6.07,6.00,5.75,6.88,10.49,10.50,10.57
30.08,4.54,4.53,-6.03,-6.04,6.00,5.74,6.94,10.53,10.52,10.57
30.38,4.55,4.55,-6.02,-6.01,5.99,5.73,6.99,10.53,10.54,10.57
30.68,4.58,4.58,-5.99,-5.99,5.97,5.72,7.03,10.55,10.55,10.56
30.99,4.61,4.60,-5.95,-5.96,5.95,5.71,7.07,10.56,10.56,10.56
31.30,4.62,4.63,-5.94,-5.93,5.93,5.70,7.08,10.55,10.56,10.56
31.61,4.67,4.65,-5.89,-5.90,5.91,5.69,7.09,10.57,10.56,10.55
31.93,4.67,4.68,-5.88,-5.87,5.88,5.68,7.09,10.55,10.56,10.55
32.24,4.71,4.70,-5.84,-5.84,5.85,5.66,7.08,10.56,10.55,10.55
32.57,4.72,4.72,-5.83,-5.82,5.82,5.65,7.05,10.54,10.54,10.54
32.89,4.75,4.75,-5.79,-5.79,5.80,5.64,7.02,10.54,10.54,10.54
33.22,4.76,4.76,-5.78,-5.77,5.77,5.63,6.98,10.53,10.53,10.54
33.55,4.80,4.79,-5.73,-5.75,5.74,5.62,6.93,10.54,10.53,10.53
33.89,4.80,4.81,-5.73,-5.72,5.72,5.60,6.87,10.52,10.53,10.53
34.23,4.84,4.83,-5.69,-5.69,5.69,5.59,6.81,10.53,10.53,10.52
34.57,4.86,4.85,-5.66,-5.67,5.67,5.58,6.74,10.52,10.52,10.52
34.92,4.88,4.88,-5.64,-5.64,5.64,5.56,6.67,10.52,10.52,10.52
35.27,4.89,4.89,-5.62,-5.62,5.61,5.55,6.59,10.50,10.51,10.51
35.62,4.93,4.92,-5.58,-5.59,5.59,5.54,6.50,10.52,10.51,10.51
35.97,4.93,4.94,-5.57,-5.56,5.56,5.52,6.42,10.49,10.50,10.50
36.33,4.97,4.96,-5.53,-5.54,5.54,5.51,6.33,10.51,10.50,10.50
36.70,4.97,4.98,-5.52,-5.51,5.52,5.49,6.24,10.48,10.49,10.49
37.06,5.00,4.99,-5.49,-5.49,5.49,5.48,6.15,10.49,10.48,10.48
37.43,5.01,5.01,-5.47,-5.47,5.47,5.46,6.05,10.48,10.48,10.48
37.81,5.02,5.03,-5.45,-5.44,5.44,5.45,5.96,10.46,10.47,10.47
38.19,5.06,5.04,-5.41,-5.42,5.42,5.43,5.87,10.48,10.47,10.47
38.57,5.06,5.06,-5.40,-5.40,5.40,5.41,5.78,10.46,10.46,10.46
38.95,5.08,5.08,-5.37,-5.37,5.38,5.40,5.70,10.45,10.45,10.45
39.34,5.10,5.09,-5.35,-5.35,5.35,5.38,5.61,10.45,10.44,10.45
39.74,5.10,5.11,-5.34,-5.33,5.33,5.36,5.53,10.43,10.44,10.44
40.14,5.14,5.12,-5.29,-5.31,5.30,5.35,5.45,10.44,10.43,10.43
40.54,5.14,5.14,-5.29,-5.28,5.28,5.33,5.37,10.42,10.42,10.42
40.94,5.15,5.16,-5.27,-5.25,5.26,5.31,5.30,10.41,10.42,10.41
41.35,5.19,5.17,-5.22,-5.24,5.23,5.29,5.23,10.42,10.40,10.41
41.76,5.19,5.19,-5.21,-5.21,5.21,5.27,5.16,10.40,10.40,10.40
42.18,5.19,5.20,-5.20,-5.18,5.19,5.25,5.09,10.37,10.39,10.39
42.60,5.23,5.21,-5.15,-5.17,5.16,5.23,5.03,10.39,10.37,10.38
43.03,5.23,5.23,-5.14,-5.14,5.14,5.21,4.97,10.37,10.37,10.37
43.46,5.23,5.24,-5.13,-5.11,5.12,5.19,4.92,10.35,10.36,10.36
43.90,5.27,5.25,-5.08,-5.09,5.10,5.17,4.87,10.36,10.35,10.35
44.33,5.27,5.26,-5.07,-5.08,5.07,5.15,4.82,10.34,10.33,10.34
44.78,5.27,5.27,-5.06,-5.05,5.05,5.13,4.78,10.32,10.32,10.33
45.23,5.27,5.28,-5.05,-5.03,5.03,5.11,4.74,10.29,10.31,10.32
45.68,5.32,5.30,-4.99,-5.00,5.00,5.08,4.71,10.32,10.30,10.30
46.13,5.32,5.31,-4.97,-4.98,4.98,5.06,4.68,10.30,10.29,10.29
46.60,5.32,5.33,-4.96,-4.95,4.95,5.04,4.65,10.27,10.28,10.28
47.06,5.34,5.34,-4.93,-4.93,4.93,5.01,4.62,10.27,10.27,10.26
47.53,5.36,5.35,-4.89,-4.90,4.90,4.99,4.60,10.26,10.25,10.25
48.01,5.36,5.36,-4.88,-4.88,4.88,4.96,4.58,10.24,10.24,10.24
48.49,5.36,5.37,-4.86,-4.85,4.85,4.94,4.57,10.21,10.22,10.22
48.97,5.38,5.38,-4.83,-4.83,4.83,4.91,4.56,10.21,10.21,10.21
49.46,5.40,5.39,-4.79,-4.80,4.80,4.89,4.55,10.20,10.19,10.19
49.96,5.40,5.40,-4.78,-4.78,4.77,4.86,4.54,10.17,10.17,10.17
50.46,5.40,5.41,-4.76,-4.75,4.75,4.83,4.54,10.14,10.15,10.16
50.96,5.42,5.42,-4.72,-4.72,4.72,4.80,4.53,10.14,10.14,10.14
51.47,5.45,5.44,-4.67,-4.68,4.69,4.78,4.53,10.14,10.13,10.12
51.99,5.45,5.45,-4.66,-4.66,4.66,4.75,4.53,10.11,10.11,10.10
52.51,5.45,5.45,-4.64,-4.63,4.63,4.72,4.54,10.08,10.08,10.08
53.03,5.45,5.46,-4.62,-4.61,4.60,4.69,4.54,10.05,10.06,10.06
53.56,5.48,5.47,-4.57,-4.57,4.57,4.66,4.54,10.05,10.04,10.04
54.10,5.49,5.48,-4.53,-4.54,4.54,4.62,4.55,10.03,10.03,10.02
54.64,5.49,5.49,-4.51,-4.51,4.51,4.59,4.55,10.00,10.00,10.00
55.18,5.49,5.49,-4.49,-4.49,4.48,4.56,4.55,9.97,9.97,9.98
55.74,5.49,5.50,-4.47,-4.46,4.45,4.53,4.55,9.94,9.95,9.95
56.29,5.52,5.51,-4.41,-4.42,4.42,4.49,4.55,9.94,9.93,9.93
56.86,5.53,5.52,-4.38,-4.38,4.39,4.46,4.55,9.91,9.91,9.90
57.42,5.53,5.53,-4.35,-4.35,4.35,4.42,4.55,9.88,9.88,9.88
58.00,5.53,5.53,-4.33,-4.32,4.32,4.39,4.54,9.84,9.84,9.85
58.58,5.53,5.54,-4.30,-4.29,4.28,4.35,4.53,9.81,9.82,9.83
59.16,5.56,5.55,-4.24,-4.24,4.24,4.31,4.52,9.80,9.80,9.80
59.76,5.58,5.57,-4.19,-4.20,4.21,4.27,4.50,9.79,9.78,9.77
60.35,5.58,5.58,-4.16,-4.16,4.17,4.23,4.48,9.75,9.75,9.74
60.96,5.58,5.58,-4.13,-4.13,4.13,4.19,4.46,9.71,9.71,9.71
61.57,5.58,5.58,-4.10,-4.10,4.09,4.15,4.43,9.67,9.67,9.68
62.18,5.58,5.58,-4.07,-4.06,4.05,4.11,4.40,9.63,9.64,9.64
62.80,5.59,5.59,-4.02,-4.02,4.01,4.07,4.36,9.60,9.61,9.61
63.43,5.62,5.61,-3.96,-3.97,3.97,4.03,4.31,9.59,9.58,9.58
64.07,5.62,5.62,-3.92,-3.92,3.93,3.98,4.27,9.55,9.55,9.54
64.71,5.62,5.62,-3.89,-3.89,3.89,3.94,4.21,9.51,9.51,9.51
65.35,5.62,5.62,-3.85,-3.85,3.84,3.89,4.16,9.46,9.46,9.47
66.01,5.62,5.63,-3.81,-3.81,3.80,3.85,4.10,9.41,9.42,9.43
66.67,5.64,5.64,-3.75,-3.75,3.75,3.80,4.03,9.39,9.39,9.39
67.33,5.66,5.65,-3.69,-3.70,3.71,3.75,3.96,9.37,9.36,9.35
68.01,5.66,5.66,-3.65,-3.65,3.66,3.70,3.89,9.32,9.32,9.31
68.69,5.66,5.66,-3.61,-3.61,3.62,3.65,3.82,9.27,9.28,9.27
69.37,5.66,5.66,-3.57,-3.57,3.56,3.60,3.74,9.22,9.22,9.23
70.07,5.66,5.65,-3.52,-3.53,3.51,3.55,3.66,9.17,9.17,9.18
70.77,5.66,5.66,-3.48,-3.47,3.46,3.50,3.57,9.12,9.12,9.14
71.48,5.67,5.68,-3.42,-3.41,3.41,3.45,3.49,9.08,9.09,9.09
72.19,5.71,5.69,-3.34,-3.35,3.36,3.39,3.40,9.06,9.05,9.04
72.91,5.71,5.71,-3.29,-3.29,3.30,3.34,3.31,9.01,9.01,8.99
73.64,5.71,5.71,-3.24,-3.23,3.25,3.28,3.22,8.95,8.96,8.95
74.38,5.71,5.71,-3.19,-3.19,3.19,3.23,3.13,8.90,8.90,8.90
75.12,5.71,5.71,-3.14,-3.14,3.13,3.17,3.04,8.84,8.84,8.84
75.87,5.71,5.71,-3.08,-3.08,3.07,3.11,2.95,8.78,8.78,8.79
76.63,5.71,5.72,-3.03,-3.02,3.01,3.05,2.86,8.72,8.73,8.74
77.40,5.73,5.73,-2.96,-2.96,2.95,2.99,2.77,8.68,8.68,8.68
78.17,5.75,5.74,-2.88,-2.89,2.89,2.93,2.68,8.64,8.63,8.63
78.95,5.75,5.75,-2.82,-2.82,2.83,2.87,2.59,8.58,8.58,8.57
79.74,5.75,5.75,-2.77,-2.77,2.77,2.81,2.50,8.52,8.52,8.51
80.54,5.75,5.75,-2.71,-2.71,2.71,2.75,2.41,8.46,8.46,8.46
81.35,5.75,5.75,-2.65,-2.65,2.65,2.68,2.32,8.40,8.40,8.40
82.16,5.75,5.75,-2.59,-2.59,2.59,2.62,2.24,8.33,8.33,8.34
82.98,5.75,5.75,-2.53,-2.53,2.52,2.55,2.15,8.27,8.27,8.28
83.81,5.75,5.75,-2.47,-2.47,2.46,2.49,2.07,8.21,8.20,8.21
84.65,5.75,5.76,-2.40,-2.40,2.39,2.42,1.98,8.14,8.15,8.15
85.50,5.77,5.77,-2.32,-2.32,2.32,2.35,1.90,8.09,8.09,8.09
86.35,5.79,5.78,-2.24,-2.24,2.25,2.28,1.82,8.04,8.03,8.02
87.22,5.79,5.79,-2.17,-2.17,2.18,2.22,1.74,7.97,7.97,7.96
88.09,5.79,5.79,-2.10,-2.10,2.11,2.15,1.66,7.90,7.90,7.89
88.97,5.79,5.79,-2.04,-2.04,2.04,2.08,1.58,7.83,7.83,7.83
89.86,5.79,5.79,-1.97,-1.97,1.97,2.01,1.51,7.76,7.76,7.76
90.76,5.79,5.79,-1.90,-1.90,1.90,1.94,1.43,7.69,7.69,7.69
91.66,5.79,5.79,-1.83,-1.84,1.83,1.87,1.36,7.62,7.62,7.62
92.58,5.79,5.79,-1.76,-1.77,1.76,1.79,1.29,7.55,7.55,7.55
93.51,5.79,5.79,-1.70,-1.69,1.68,1.72,1.21,7.47,7.48,7.48
94.44,5.80,5.80,-1.61,-1.61,1.61,1.65,1.14,7.41,7.41,7.41
95.39,5.82,5.81,-1.52,-1.53,1.53,1.58,1.08,7.35,7.34,7.34
96.34,5.82,5.82,-1.45,-1.45,1.45,1.50,1.01,7.27,7.28,7.27
97.30,5.84,5.83,-1.36,-1.37,1.37,1.43,0.94,7.21,7.21,7.20
98.28,5.84,5.84,-1.29,-1.29,1.30,1.36,0.87,7.13,7.13,7.13
99.26,5.84,5.84,-1.22,-1.22,1.22,1.28,0.81,7.06,7.06,7.05
100.25,5.84,5.84,-1.14,-1.14,1.15,1.21,0.75,6.98,6.98,6.98
101.25,5.84,5.84,-1.07,-1.07,1.07,1.14,0.68,6.91,6.91,6.91
102.27,5.84,5.84,-1.00,-1.00,1.00,1.06,0.62,6.84,6.84,6.84
103.29,5.84,5.84,-0.93,-0.93,0.92,0.99,0.56,6.76,6.76,6.76
104.32,5.84,5.84,-0.85,-0.85,0.85,0.91,0.50,6.69,6.69,6.69
105.37,5.84,5.84,-0.78,-0.78,0.77,0.84,0.44,6.61,6.61,6.62
106.42,5.85,5.85,-0.70,-0.70,0.69,0.77,0.38,6.54,6.54,6.54
107.48,5.86,5.86,-0.61,-0.61,0.61,0.69,0.33,6.47,6.47,6.47
108.56,5.88,5.87,-0.52,-0.53,0.53,0.62,0.27,6.41,6.41,6.40
109.64,5.88,5.88,-0.45,-0.45,0.46,0.55,0.22,6.33,6.33,6.33
110.74,5.88,5.88,-0.38,-0.37,0.38,0.48,0.16,6.26,6.26,6.25
111.85,5.88,5.88,-0.30,-0.30,0.30,0.40,0.11,6.18,6.18,6.18
112.97,5.88,5.88,-0.23,-0.23,0.23,0.33,0.06,6.11,6.11,6.11
114.10,5.88,5.88,-0.16,-0.16,0.16,0.26,0.01,6.04,6.04,6.04
115.24,5.88,5.88,-0.09,-0.09,0.09,0.19,-0.04,5.97,5.97,5.97
116.39,5.88,5.88,-0.02,-0.02,0.02,0.12,-0.09,5.89,5.89,5.90
117.55,5.88,5.88,0.05,0.05,-0.06,0.05,-0.13,5.82,5.82,5.83
118.73,5.88,5.88,0.12,0.13,-0.13,-0.02,-0.18,5.75,5.75,5.76
119.92,5.89,5.89,0.20,0.20,-0.20,-0.09,-0.22,5.68,5.68,5.69
121.12,5.90,5.89,0.28,0.28,-0.28,-0.16,-0.27,5.62,5.62,5.62
122.33,5.90,5.90,0.35,0.36,-0.35,-0.23,-0.31,5.54,5.55,5.55
123.55,5.92,5.91,0.44,0.43,-0.43,-0.29,-0.35,5.49,5.49,5.48
124.79,5.92,5.92,0.50,0.50,-0.50,-0.36,-0.39,5.42,5.42,5.41
126.03,5.92,5.92,0.57,0.57,-0.57,-0.43,-0.43,5.35,5.35,5.35
127.29,5.92,5.92,0.63,0.63,-0.64,-0.49,-0.46,5.28,5.28,5.28
128.57,5.92,5.92,0.70,0.70,-0.70,-0.55,-0.50,5.22,5.22,5.22
129.85,5.92,5.92,0.76,0.76,-0.77,-0.62,-0.53,5.15,5.15,5.15
131.15,5.92,5.92,0.83,0.83,-0.83,-0.68,-0.57,5.09,5.09,5.09
132.46,5.92,5.92,0.89,0.89,-0.89,-0.74,-0.60,5.03,5.03,5.03
133.79,5.92,5.92,0.95,0.95,-0.95,-0.80,-0.64,4.97,4.97,4.97
135.12,5.92,5.92,1.01,1.01,-1.01,-0.86,-0.67,4.91,4.91,4.91
136.48,5.92,5.92,1.07,1.07,-1.07,-0.92,-0.70,4.85,4.85,4.85
137.84,5.92,5.92,1.13,1.13,-1.13,-0.98,-0.73,4.79,4.79,4.79
139.22,5.92,5.92,1.19,1.19,-1.19,-1.03,-0.76,4.73,4.73,4.73
140.61,5.92,5.92,1.24,1.24,-1.24,-1.09,-0.79,4.68,4.68,4.68
142.02,5.92,5.92,1.30,1.30,-1.30,-1.14,-0.82,4.62,4.62,4.62
143.44,5.92,5.92,1.35,1.35,-1.35,-1.20,-0.85,4.56,4.56,4.56
144.87,5.92,5.92,1.41,1.41,-1.41,-1.25,-0.88,4.51,4.51,4.51
146.32,5.92,5.92,1.46,1.46,-1.46,-1.30,-0.91,4.46,4.46,4.46
147.78,5.92,5.92,1.51,1.51,-1.51,-1.35,-0.94,4.41,4.41,4.41
149.26,5.92,5.92,1.56,1.56,-1.56,-1.40,-0.97,4.36,4.36,4.36
150.75,5.92,5.92,1.61,1.61,-1.61,-1.45,-1.00,4.31,4.31,4.31
152.26,5.92,5.92,1.66,1.66,-1.66,-1.50,-1.04,4.26,4.26,4.26
153.78,5.92,5.92,1.71,1.71,-1.71,-1.55,-1.07,4.21,4.21,4.21
155.32,5.92,5.92,1.75,1.75,-1.75,-1.59,-1.10,4.16,4.16,4.16
156.88,5.92,5.92,1.80,1.80,-1.80,-1.64,-1.14,4.12,4.12,4.12
158.44,5.92,5.92,1.84,1.84,-1.85,-1.68,-1.17,4.07,4.07,4.07
160.03,5.92,5.92,1.89,1.89,-1.89,-1.72,-1.21,4.03,4.03,4.03
161.63,5.92,5.92,1.94,1.94,-1.93,-1.76,-1.24,3.98,3.98,3.98
163.24,5.92,5.92,1.98,1.98,-1.98,-1.80,-1.28,3.94,3.94,3.94
164.88,5.92,5.92,2.02,2.02,-2.02,-1.84,-1.32,3.90,3.90,3.90
166.53,5.92,5.92,2.06,2.06,-2.06,-1.88,-1.36,3.86,3.86,3.86
168.19,5.92,5.92,2.10,2.10,-2.10,-1.92,-1.40,3.82,3.82,3.82
169.87,5.92,5.92,2.14,2.14,-2.14,-1.96,-1.44,3.78,3.78,3.78
171.57,5.92,5.92,2.17,2.17,-2.17,-1.99,-1.49,3.74,3.74,3.75
173.29,5.92,5.92,2.21,2.21,-2.21,-2.03,-1.53,3.71,3.71,3.71
175.02,5.92,5.92,2.24,2.24,-2.24,-2.06,-1.58,3.68,3.68,3.68
176.77,5.92,5.91,2.28,2.27,-2.26,-2.10,-1.62,3.65,3.65,3.64
178.54,5.90,5.90,2.29,2.29,-2.29,-2.13,-1.67,3.61,3.61,3.61
180.32,5.90,5.89,2.32,2.31,-2.32,-2.16,-1.72,3.58,3.58,3.58
182.13,5.88,5.88,2.33,2.34,-2.34,-2.19,-1.78,3.54,3.54,3.55
183.95,5.88,5.88,2.36,2.36,-2.37,-2.22,-1.83,3.51,3.51,3.52
185.79,5.88,5.88,2.39,2.39,-2.39,-2.25,-1.88,3.49,3.48,3.49
187.65,5.88,5.88,2.42,2.42,-2.42,-2.27,-1.94,3.46,3.46,3.46
189.52,5.88,5.88,2.45,2.45,-2.45,-2.30,-2.00,3.43,3.43,3.43
191.42,5.88,5.88,2.47,2.47,-2.47,-2.33,-2.05,3.40,3.40,3.41
193.33,5.88,5.88,2.50,2.50,-2.50,-2.35,-2.11,3.38,3.38,3.38
195.27,5.88,5.88,2.52,2.52,-2.52,-2.38,-2.17,3.36,3.36,3.35
197.22,5.88,5.88,2.55,2.55,-2.54,-2.40,-2.23,3.33,3.34,3.33
199.19,5.88,5.88,2.57,2.57,-2.56,-2.42,-2.29,3.32,3.32,3.31
201.18,5.88,5.87,2.59,2.58,-2.58,-2.45,-2.36,3.30,3.29,3.28
203.19,5.85,5.85,2.59,2.59,-2.59,-2.47,-2.42,3.25,3.26,3.26
205.23,5.84,5.84,2.60,2.60,-2.61,-2.49,-2.48,3.23,3.23,3.24
207.28,5.84,5.84,2.62,2.62,-2.63,-2.51,-2.54,3.21,3.21,3.22
209.35,5.84,5.84,2.64,2.64,-2.64,-2.53,-2.61,3.20,3.19,3.20
211.44,5.84,5.84,2.66,2.66,-2.66,-2.55,-2.67,3.18,3.18,3.18
213.56,5.84,5.84,2.68,2.68,-2.68,-2.57,-2.73,3.16,3.16,3.16
215.69,5.84,5.84,2.70,2.70,-2.69,-2.58,-2.79,3.14,3.14,3.14
217.85,5.84,5.84,2.71,2.71,-2.71,-2.60,-2.85,3.13,3.13,3.12
220.03,5.84,5.84,2.73,2.73,-2.72,-2.62,-2.91,3.12,3.12,3.11
222.23,5.84,5.83,2.75,2.74,-2.73,-2.63,-2.97,3.11,3.10,3.09
224.45,5.82,5.82,2.74,2.74,-2.74,-2.65,-3.02,3.08,3.08,3.08
226.70,5.81,5.81,2.75,2.75,-2.75,-2.66,-3.07,3.06,3.06,3.06
228.96,5.79,5.79,2.74,2.75,-2.76,-2.68,-3.12,3.03,3.03,3.04
231.25,5.79,5.79,2.76,2.76,-2.77,-2.69,-3.17,3.02,3.02,3.03
233.57,5.79,5.79,2.77,2.77,-2.78,-2.70,-3.21,3.01,3.01,3.02
235.90,5.79,5.79,2.79,2.79,-2.79,-2.71,-3.25,3.00,3.00,2.99
238.26,5.79,5.79,2.81,2.81,-2.80,-2.72,-3.28,2.99,2.99,2.98
240.64,5.79,5.79,2.82,2.82,-2.81,-2.74,-3.32,2.97,2.98,2.97
243.05,5.79,5.79,2.83,2.83,-2.82,-2.75,-3.34,2.96,2.97,2.96
245.48,5.79,5.78,2.84,2.84,-2.83,-2.76,-3.36,2.96,2.95,2.94
247.93,5.77,5.77,2.84,2.84,-2.84,-2.77,-3.38,2.93,2.93,2.93
250.41,5.75,5.76,2.83,2.83,-2.84,-2.77,-3.40,2.90,2.91,2.92
252.92,5.75,5.75,2.84,2.84,-2.85,-2.78,-3.41,2.90,2.90,2.91
255.45,5.75,5.75,2.85,2.85,-2.85,-2.79,-3.41,2.90,2.90,2.90
258.00,5.75,5.75,2.86,2.86,-2.85,-2.80,-3.41,2.90,2.90,2.89
260.58,5.75,5.74,2.87,2.86,-2.85,-2.80,-3.41,2.90,2.89,2.88
263.19,5.73,5.73,2.86,2.86,-2.86,-2.81,-3.40,2.87,2.87,2.87
265.82,5.71,5.72,2.84,2.85,-2.86,-2.82,-3.39,2.85,2.85,2.86
268.48,5.71,5.71,2.85,2.85,-2.86,-2.82,-3.37,2.85,2.84,2.85
271.16,5.71,5.71,2.86,2.86,-2.86,-2.83,-3.35,2.85,2.85,2.85
273.87,5.71,5.71,2.87,2.87,-2.86,-2.83,-3.33,2.85,2.85,2.84
276.61,5.71,5.70,2.88,2.87,-2.86,-2.84,-3.31,2.85,2.84,2.83
279.38,5.68,5.68,2.85,2.86,-2.85,-2.84,-3.28,2.82,2.83,2.82
282.17,5.66,5.67,2.84,2.85,-2.85,-2.84,-3.25,2.81,2.81,2.82
284.99,5.66,5.66,2.84,2.84,-2.85,-2.85,-3.22,2.81,2.81,2.82
287.84,5.66,5.66,2.84,2.84,-2.85,-2.85,-3.19,2.81,2.81,2.82
290.72,5.66,5.66,2.84,2.84,-2.84,-2.85,-3.16,2.82,2.82,2.82
293.63,5.66,5.66,2.85,2.84,-2.84,-2.85,-3.12,2.82,2.82,2.81
296.57,5.66,5.66,2.84,2.84,-2.84,-2.85,-3.09,2.82,2.82,2.81
299.53,5.66,5.66,2.84,2.84,-2.84,-2.85,-3.06,2.82,2.82,2.82
302.53,5.66,5.66,2.84,2.84,-2.84,-2.85,-3.02,2.81,2.81,2.81
305.55,5.66,5.66,2.84,2.84,-2.84,-2.85,-2.99,2.81,2.81,2.82
308.61,5.66,5.66,2.85,2.84,-2.84,-2.85,-2.96,2.81,2.81,2.81
311.69,5.66,5.66,2.84,2.84,-2.84,-2.85,-2.92,2.81,2.81,2.82
314.81,5.66,5.66,2.84,2.84,-2.84,-2.85,-2.89,2.82,2.82,2.81
317.96,5.66,5.66,2.84,2.84,-2.84,-2.85,-2.86,2.82,2.82,2.82
321.14,5.66,5.66,2.84,2.84,-2.84,-2.84,-2.84,2.82,2.82,2.81
324.35,5.66,5.65,2.84,2.83,-2.83,-2.84,-2.81,2.82,2.82,2.82
327.59,5.65,5.65,2.82,2.83,-2.83,-2.84,-2.79,2.82,2.82,2.83
330.87,5.64,5.64,2.82,2.82,-2.82,-2.83,-2.76,2.82,2.82,2.82
334.18,5.64,5.64,2.81,2.81,-2.81,-2.83,-2.74,2.82,2.83,2.83
337.52,5.64,5.64,2.81,2.81,-2.81,-2.82,-2.72,2.83,2.83,2.82
340.90,5.64,5.63,2.81,2.80,-2.80,-2.82,-2.71,2.84,2.83,2.83
344.30,5.62,5.62,2.78,2.79,-2.79,-2.81,-2.69,2.83,2.84,2.84
347.75,5.62,5.62,2.77,2.78,-2.78,-2.80,-2.68,2.83,2.84,2.84
351.23,5.62,5.62,2.78,2.77,-2.78,-2.80,-2.67,2.84,2.84,2.84
354.74,5.62,5.62,2.76,2.77,-2.77,-2.79,-2.66,2.85,2.85,2.86
358.28,5.62,5.62,2.76,2.76,-2.76,-2.78,-2.65,2.86,2.86,2.85
361.87,5.62,5.62,2.76,2.76,-2.75,-2.77,-2.65,2.87,2.87,2.86
365.49,5.62,5.62,2.75,2.75,-2.74,-2.76,-2.65,2.87,2.88,2.87
369.14,5.62,5.61,2.75,2.74,-2.74,-2.75,-2.65,2.88,2.88,2.87
372.83,5.61,5.60,2.72,2.72,-2.73,-2.74,-2.65,2.88,2.88,2.88
376.56,5.58,5.59,2.70,2.71,-2.71,-2.73,-2.65,2.86,2.87,2.88
380.33,5.58,5.58,2.69,2.69,-2.70,-2.72,-2.66,2.88,2.88,2.89
384.13,5.58,5.58,2.69,2.69,-2.69,-2.70,-2.67,2.89,2.89,2.89
387.97,5.58,5.58,2.68,2.68,-2.67,-2.69,-2.68,2.91,2.91,2.89
391.85,5.58,5.57,2.67,2.67,-2.66,-2.67,-2.69,2.92,2.91,2.91
395.77,5.56,5.55,2.65,2.64,-2.64,-2.66,-2.70,2.92,2.91,2.91
399.73,5.53,5.54,2.61,2.62,-2.63,-2.64,-2.71,2.90,2.91,2.92
403.72,5.53,5.53,2.60,2.61,-2.61,-2.63,-2.73,2.91,2.92,2.93
407.76,5.53,5.52,2.60,2.60,-2.60,-2.61,-2.74,2.93,2.93,2.92
411.84,5.53,5.52,2.60,2.58,-2.58,-2.59,-2.76,2.95,2.94,2.93
415.96,5.50,5.50,2.56,2.57,-2.57,-2.57,-2.77,2.93,2.94,2.94
420.12,5.49,5.50,2.55,2.55,-2.55,-2.55,-2.79,2.94,2.94,2.94
424.32,5.49,5.48,2.54,2.53,-2.54,-2.53,-2.81,2.95,2.95,2.95
428.56,5.49,5.47,2.53,2.52,-2.52,-2.51,-2.82,2.97,2.95,2.96
432.85,5.45,5.46,2.48,2.50,-2.50,-2.48,-2.84,2.95,2.96,2.96
437.18,5.45,5.45,2.48,2.48,-2.48,-2.46,-2.85,2.97,2.97,2.96
441.55,5.45,5.43,2.48,2.46,-2.46,-2.43,-2.86,2.99,2.98,2.97
445.96,5.42,5.42,2.44,2.44,-2.44,-2.41,-2.87,2.98,2.99,2.98
450.42,5.40,5.41,2.40,2.41,-2.41,-2.38,-2.88,2.98,2.99,3.00
454.93,5.40,5.39,2.39,2.38,-2.39,-2.35,-2.89,3.01,3.00,3.01
459.48,5.38,5.38,2.36,2.36,-2.37,-2.33,-2.89,3.01,3.01,3.02
464.07,5.36,5.36,2.34,2.34,-2.34,-2.30,-2.89,3.02,3.02,3.02
468.71,5.36,5.35,2.33,2.32,-2.32,-2.27,-2.89,3.04,3.03,3.02
473.40,5.32,5.33,2.28,2.30,-2.29,-2.24,-2.88,3.02,3.04,3.03
478.13,5.32,5.31,2.27,2.27,-2.27,-2.21,-2.87,3.05,3.04,3.04
482.91,5.30,5.29,2.25,2.24,-2.24,-2.18,-2.86,3.05,3.05,3.05
487.74,5.27,5.28,2.21,2.22,-2.22,-2.16,-2.83,3.05,3.06,3.06
492.62,5.27,5.26,2.20,2.19,-2.19,-2.13,-2.81,3.08,3.07,3.07
497.55,5.23,5.24,2.15,2.16,-2.16,-2.10,-2.78,3.07,3.08,3.08
502.52,5.23,5.22,2.14,2.13,-2.13,-2.07,-2.75,3.10,3.09,3.09
507.55,5.19,5.20,2.08,2.10,-2.10,-2.04,-2.71,3.09,3.10,3.11
512.62,5.19,5.18,2.07,2.07,-2.07,-2.02,-2.66,3.12,3.12,3.12
517.75,5.17,5.16,2.04,2.03,-2.04,-1.99,-2.62,3.13,3.12,3.13
522.93,5.14,5.14,2.00,2.01,-2.00,-1.97,-2.56,3.13,3.14,3.14
528.16,5.11,5.11,1.96,1.97,-1.97,-1.94,-2.50,3.14,3.14,3.14
533.44,5.10,5.09,1.94,1.94,-1.93,-1.92,-2.44,3.16,3.15,3.15
538.77,5.06,5.06,1.90,1.90,-1.90,-1.90,-2.37,3.16,3.16,3.15
