frequency,raw
20,1.48
21,1.66
22,1.84
23,2.01
24,2.18
25,2.33
26,2.48
27,2.62
28,2.75
29,2.87
30,2.99
31,3.10
32,3.19
33,3.28
34,3.37
35,3.43
36,3.49
37,3.55
38,3.61
39,3.67
40,3.72
41,3.79
42,3.85
43,3.89
44,3.93
45,3.97
46,4.00
47,4.02
48,4.04
49,4.07
50,4.10
51,4.14
52,4.18
53,4.21
54,4.24
55,4.26
56,4.29
57,4.32
58,4.36
59,4.39
60,4.41
61,4.43
62,4.45
63,4.46
64,4.46
65,4.45
66,4.43
67,4.43
68,4.43
69,4.43
70,4.43
71,4.43
72,4.43
73,4.43
74,4.43
75,4.43
76,4.43
77,4.43
78,4.43
79,4.43
80,4.43
81,4.43
82,4.43
83,4.43
84,4.43
85,4.43
86,4.43
87,4.43
88,4.43
89,4.43
90,4.43
91,4.43
92,4.43
93,4.43
94,4.43
95,4.43
96,4.43
97,4.43
98,4.43
99,4.43
100,4.43
101,4.43
102,4.43
104,4.43
105,4.43
106,4.44
107,4.45
108,4.46
109,4.45
110,4.44
111,4.42
112,4.40
113,4.37
114,4.34
115,4.31
117,4.28
118,4.24
119,4.21
120,4.18
121,4.15
123,4.12
124,4.10
125,4.09
126,4.08
128,4.09
129,4.10
130,4.10
131,4.11
133,4.11
134,4.11
135,4.11
137,4.11
138,4.11
140,4.11
141,4.11
142,4.11
144,4.11
145,4.12
147,4.13
148,4.13
150,4.12
151,4.10
153,4.08
154,4.05
156,4.02
157,3.99
159,3.96
160,3.92
162,3.89
164,3.86
165,3.83
167,3.80
169,3.78
170,3.77
172,3.76
174,3.76
175,3.78
177,3.80
179,3.81
181,3.80
183,3.78
184,3.76
186,3.74
188,3.71
190,3.68
192,3.64
194,3.61
196,3.58
198,3.54
200,3.51
202,3.49
204,3.46
206,3.45
208,3.44
210,3.45
212,3.47
214,3.47
216,3.47
218,3.45
221,3.43
223,3.40
225,3.37
227,3.34
229,3.30
232,3.27
234,3.24
236,3.20
239,3.18
241,3.15
244,3.14
246,3.14
248,3.13
251,3.13
253,3.13
256,3.12
259,3.10
261,3.07
264,3.04
266,3.01
269,2.97
272,2.94
274,2.91
277,2.87
280,2.85
283,2.84
286,2.83
288,2.81
291,2.80
294,2.79
297,2.78
300,2.76
303,2.73
306,2.70
309,2.67
312,2.63
316,2.60
319,2.57
322,2.54
325,2.51
328,2.50
332,2.49
335,2.49
338,2.48
342,2.48
345,2.47
349,2.46
352,2.43
356,2.40
359,2.37
363,2.34
366,2.30
370,2.27
374,2.24
377,2.22
381,2.20
385,2.18
389,2.16
393,2.13
397,2.11
401,2.09
405,2.07
409,2.04
413,2.01
417,1.97
421,1.94
425,1.92
430,1.90
434,1.88
438,1.86
443,1.83
447,1.81
451,1.79
456,1.77
460,1.75
465,1.72
470,1.69
474,1.65
479,1.62
484,1.59
489,1.56
494,1.54
499,1.53
504,1.52
509,1.51
514,1.49
519,1.48
524,1.47
529,1.44
535,1.41
540,1.38
545,1.34
551,1.31
556,1.27
562,1.24
568,1.22
573,1.19
579,1.18
585,1.18
591,1.18
596,1.19
602,1.20
608,1.20
615,1.18
621,1.16
627,1.13
633,1.10
639,1.06
646,1.03
652,1.00
659,0.96
665,0.93
672,0.90
679,0.88
686,0.86
692,0.85
699,0.85
706,0.86
713,0.87
721,0.88
728,0.88
735,0.87
742,0.85
750,0.82
757,0.79
765,0.76
773,0.73
780,0.70
788,0.67
796,0.64
804,0.62
812,0.59
820,0.56
828,0.53
837,0.49
845,0.46
853,0.44
862,0.42
871,0.39
879,0.36
888,0.33
897,0.31
906,0.28
915,0.25
924,0.22
933,0.19
943,0.15
952,0.13
962,0.10
971,0.08
981,0.05
991,0.02
1001,-0.00
1011,-0.03
1021,-0.05
1031,-0.09
1041,-0.12
1052,-0.15
1062,-0.18
1073,-0.21
1084,-0.23
1094,-0.26
1105,-0.29
1116,-0.32
1128,-0.36
1139,-0.38
1150,-0.41
1162,-0.43
1173,-0.45
1185,-0.46
1197,-0.46
1209,-0.45
1221,-0.44
1233,-0.43
1246,-0.43
1258,-0.43
1271,-0.43
1283,-0.43
1296,-0.43
1309,-0.43
1322,-0.43
1335,-0.43
1349,-0.43
1362,-0.43
1376,-0.43
1390,-0.43
1404,-0.43
1418,-0.43
1432,-0.43
1446,-0.43
1461,-0.43
1475,-0.43
1490,-0.43
1505,-0.43
1520,-0.43
1535,-0.43
1550,-0.44
1566,-0.45
1582,-0.46
1597,-0.45
1613,-0.44
1629,-0.43
1646,-0.40
1662,-0.39
1679,-0.37
1696,-0.34
1713,-0.31
1730,-0.27
1747,-0.22
1764,-0.16
1782,-0.10
1800,-0.03
1818,0.04
1836,0.12
1854,0.21
1873,0.29
1892,0.38
1911,0.49
1930,0.59
1949,0.71
1969,0.83
1988,0.96
2008,1.08
2028,1.19
2048,1.32
2069,1.45
2090,1.59
2111,1.72
2132,1.86
2153,2.01
2175,2.16
2196,2.30
2218,2.44
2240,2.60
2263,2.76
2285,2.91
2308,3.06
2331,3.20
2355,3.36
2378,3.51
2402,3.67
2426,3.83
2450,3.97
2475,4.11
2500,4.27
2525,4.43
2550,4.56
2575,4.69
2601,4.81
2627,4.94
2653,5.05
2680,5.15
2707,5.26
2734,5.36
2761,5.45
2789,5.51
2817,5.56
2845,5.60
2873,5.64
2902,5.65
2931,5.65
2960,5.64
2990,5.62
3020,5.59
3050,5.55
3080,5.48
3111,5.40
3142,5.29
3174,5.16
3206,5.03
3238,4.88
3270,4.72
3303,4.55
3336,4.37
3369,4.16
3403,3.94
3437,3.71
3471,3.47
3506,3.23
3541,2.96
3576,2.69
3612,2.43
3648,2.17
3685,1.91
3721,1.67
3759,1.43
3796,1.19
3834,0.97
3873,0.75
3911,0.56
3950,0.38
3990,0.24
4030,0.13
4070,0.06
4111,0.03
4152,0.04
4193,0.08
4235,0.15
4278,0.24
4321,0.35
4364,0.50
4407,0.68
4451,0.87
4496,1.08
4541,1.30
4586,1.52
4632,1.75
4679,1.97
4725,2.19
4773,2.41
4820,2.64
4868,2.87
4917,3.10
4966,3.32
5016,3.54
5066,3.73
5117,3.90
5168,4.06
5220,4.21
5272,4.33
5325,4.41
5378,4.46
5432,4.49
5486,4.49
5541,4.45
5596,4.39
5652,4.30
5709,4.19
5766,4.05
5823,3.87
5882,3.67
5940,3.44
6000,3.18
6060,2.87
6120,2.53
6182,2.15
6244,1.75
6306,1.31
6369,0.85
6433,0.36
6497,-0.17
6562,-0.72
6628,-1.26
6694,-1.82
6761,-2.37
6828,-2.90
6897,-3.40
6966,-3.87
7035,-4.32
7106,-4.72
7177,-5.09
7249,-5.42
7321,-5.70
7394,-5.96
7468,-6.18
7543,-6.37
7618,-6.53
7694,-6.66
7771,-6.76
7849,-6.82
7928,-6.88
8007,-6.90
8087,-6.89
8168,-6.85
8250,-6.77
8332,-6.65
8415,-6.49
8499,-6.30
8584,-6.06
8670,-5.79
8757,-5.49
8845,-5.16
8933,-4.80
9022,-4.41
9113,-4.03
9204,-3.63
9296,-3.23
9389,-2.83
9483,-2.42
9577,-2.02
9673,-1.61
9770,-1.20
9868,-0.80
9966,-0.40
10066,-0.00
10167,0.40
10268,0.80
10371,1.19
10475,1.57
10579,1.94
10685,2.30
10792,2.64
10900,2.96
11009,3.25
11119,3.50
11230,3.72
11343,3.91
11456,4.07
11571,4.21
11686,4.33
11803,4.43
11921,4.51
12040,4.55
12161,4.56
12282,4.53
12405,4.43
12529,4.26
12655,4.01
12781,3.68
12909,3.26
13038,2.75
13168,2.14
13300,1.44
13433,0.66
13567,-0.17
13703,-1.06
13840,-1.98
13978,-2.91
14118,-3.84
14259,-4.77
14402,-5.67
14546,-6.55
14692,-7.42
14838,-8.26
14987,-9.09
15137,-9.91
15288,-10.71
15441,-11.48
15595,-12.24
15751,-12.97
15909,-13.68
16068,-14.40
16229,-15.10
16391,-15.78
16555,-16.44
16720,-17.13
16888,-17.82
17056,-18.55
17227,-19.34
17399,-20.22
17573,-21.17
17749,-22.21
17926,-23.35
18106,-24.55
18287,-25.69
18470,-26.87
18654,-28.09
18841,-29.36
19029,-30.67
19220,-32.02
19412,-33.42
19606,-34.86
19802,-36.34
20000,-37.87
