frequency,raw
20.00,-1.76
20.20,-1.68
20.40,-1.60
20.61,-1.53
20.81,-1.45
21.02,-1.37
21.23,-1.30
21.44,-1.22
21.66,-1.15
21.87,-1.07
22.09,-1.00
22.31,-0.92
22.54,-0.86
22.76,-0.79
22.99,-0.71
23.22,-0.64
23.45,-0.57
23.69,-0.50
23.92,-0.43
24.16,-0.35
24.40,-0.28
24.65,-0.21
24.89,-0.14
25.14,-0.08
25.39,-0.01
25.65,0.05
25.91,0.12
26.16,0.19
26.43,0.25
26.69,0.32
26.96,0.39
27.23,0.46
27.50,0.52
27.77,0.59
28.05,0.67
28.33,0.73
28.62,0.80
28.90,0.86
29.19,0.94
29.48,1.01
29.78,1.07
30.08,1.14
30.38,1.19
30.68,1.26
30.99,1.33
31.30,1.40
31.61,1.45
31.93,1.51
32.24,1.58
32.57,1.65
32.89,1.71
33.22,1.77
33.55,1.82
33.89,1.88
34.23,1.94
34.57,2.00
34.92,2.06
35.27,2.11
35.62,2.16
35.97,2.22
36.33,2.27
36.70,2.32
37.06,2.38
37.43,2.43
37.81,2.48
38.19,2.53
38.57,2.58
38.95,2.64
39.34,2.69
39.74,2.75
40.14,2.81
40.54,2.86
40.94,2.90
41.35,2.95
41.76,3.01
42.18,3.07
42.60,3.13
43.03,3.19
43.46,3.23
43.90,3.27
44.33,3.31
44.78,3.37
45.23,3.42
45.68,3.46
46.13,3.50
46.60,3.54
47.06,3.59
47.53,3.64
48.01,3.71
48.49,3.76
48.97,3.81
49.46,3.85
49.96,3.89
50.46,3.94
50.96,4.00
51.47,4.06
51.99,4.12
52.51,4.17
53.03,4.22
53.56,4.26
54.10,4.30
54.64,4.33
55.18,4.36
55.74,4.40
56.29,4.43
56.86,4.46
57.42,4.50
58.00,4.54
58.58,4.57
59.16,4.61
59.76,4.63
60.35,4.66
60.96,4.68
61.57,4.71
62.18,4.74
62.80,4.79
63.43,4.83
64.07,4.88
64.71,4.92
65.35,4.96
66.01,4.98
66.67,5.00
67.33,5.02
68.01,5.04
68.69,5.07
69.37,5.11
70.07,5.15
70.77,5.19
71.48,5.22
72.19,5.26
72.91,5.28
73.64,5.31
74.38,5.34
75.12,5.36
75.87,5.38
76.63,5.40
77.40,5.42
78.17,5.44
78.95,5.47
79.74,5.49
80.54,5.52
81.35,5.54
82.16,5.55
82.98,5.57
83.81,5.60
84.65,5.63
85.50,5.66
86.35,5.69
87.22,5.71
88.09,5.73
88.97,5.75
89.86,5.77
90.76,5.79
91.66,5.82
92.58,5.84
93.51,5.86
94.44,5.88
95.39,5.91
96.34,5.93
97.30,5.96
98.28,6.00
99.26,6.03
100.25,6.05
101.25,6.08
102.27,6.10
103.29,6.12
104.32,6.13
105.37,6.14
106.42,6.14
107.48,6.14
108.56,6.13
109.64,6.12
110.74,6.12
111.85,6.12
112.97,6.12
114.10,6.12
115.24,6.12
116.39,6.12
117.55,6.12
118.73,6.12
119.92,6.12
121.12,6.11
122.33,6.10
123.55,6.10
124.79,6.10
126.03,6.11
127.29,6.12
128.57,6.14
129.85,6.16
131.15,6.19
132.46,6.22
133.79,6.25
135.12,6.28
136.48,6.31
137.84,6.34
139.22,6.37
140.61,6.40
142.02,6.42
143.44,6.44
144.87,6.46
146.32,6.46
147.78,6.47
149.26,6.46
150.75,6.45
152.26,6.45
153.78,6.44
155.32,6.44
156.88,6.44
158.44,6.44
160.03,6.44
161.63,6.44
163.24,6.44
164.88,6.44
166.53,6.44
168.19,6.44
169.87,6.44
171.57,6.44
173.29,6.44
175.02,6.44
176.77,6.44
178.54,6.44
180.32,6.44
182.13,6.44
183.95,6.44
185.79,6.44
187.65,6.44
189.52,6.44
191.42,6.44
193.33,6.44
195.27,6.44
197.22,6.44
199.19,6.44
201.18,6.44
203.19,6.44
205.23,6.44
207.28,6.44
209.35,6.44
211.44,6.44
213.56,6.44
215.69,6.44
217.85,6.44
220.03,6.44
222.23,6.44
224.45,6.44
226.70,6.44
228.96,6.44
231.25,6.44
233.57,6.44
235.90,6.44
238.26,6.44
240.64,6.45
243.05,6.46
245.48,6.47
247.93,6.47
250.41,6.46
252.92,6.45
255.45,6.43
258.00,6.40
260.58,6.38
263.19,6.35
265.82,6.32
268.48,6.29
271.16,6.26
273.87,6.23
276.61,6.20
279.38,6.18
282.17,6.16
284.99,6.14
287.84,6.13
290.72,6.11
293.63,6.10
296.57,6.08
299.53,6.07
302.53,6.05
305.55,6.03
308.61,6.00
311.69,5.97
314.81,5.94
317.96,5.91
321.14,5.88
324.35,5.85
327.59,5.83
330.87,5.82
334.18,5.81
337.52,5.80
340.90,5.80
344.30,5.79
347.75,5.78
351.23,5.77
354.74,5.75
358.28,5.72
361.87,5.69
365.49,5.66
369.14,5.63
372.83,5.60
376.56,5.58
380.33,5.55
384.13,5.53
387.97,5.51
391.85,5.49
395.77,5.46
399.73,5.44
403.72,5.42
407.76,5.40
411.84,5.38
415.96,5.36
420.12,5.34
424.32,5.31
428.56,5.29
432.85,5.26
437.18,5.23
441.55,5.19
445.96,5.15
450.42,5.11
454.93,5.08
459.48,5.05
464.07,5.03
468.71,5.01
473.40,4.98
478.13,4.95
482.91,4.91
487.74,4.86
492.62,4.82
497.55,4.78
502.52,4.74
507.55,4.70
512.62,4.66
517.75,4.62
522.93,4.58
528.16,4.55
533.44,4.51
538.77,4.46
544.16,4.40
549.60,4.35
555.10,4.30
560.65,4.25
566.25,4.19
571.92,4.14
577.64,4.08
583.41,4.02
589.25,3.96
595.14,3.90
601.09,3.83
607.10,3.77
613.17,3.71
619.30,3.66
625.50,3.60
631.75,3.53
638.07,3.47
644.45,3.41
650.89,3.36
657.40,3.29
663.98,3.23
670.62,3.16
677.32,3.10
684.10,3.04
690.94,2.97
697.85,2.90
704.83,2.83
711.87,2.74
718.99,2.66
726.18,2.60
733.44,2.52
740.78,2.44
748.19,2.36
755.67,2.28
763.23,2.20
770.86,2.11
778.57,2.02
786.35,1.94
794.22,1.85
802.16,1.76
810.18,1.67
818.28,1.59
826.46,1.50
834.73,1.42
843.08,1.33
851.51,1.25
860.02,1.17
868.62,1.08
877.31,0.99
886.08,0.90
894.94,0.83
903.89,0.76
912.93,0.68
922.06,0.61
931.28,0.54
940.59,0.46
950.00,0.39
959.50,0.32
969.09,0.25
978.78,0.17
988.57,0.09
998.46,0.01
1008.44,-0.06
1018.53,-0.14
1028.71,-0.22
1039.00,-0.30
1049.39,-0.39
1059.88,-0.48
1070.48,-0.57
1081.19,-0.67
1092.00,-0.77
1102.92,-0.85
1113.95,-0.95
1125.09,-1.05
1136.34,-1.14
1147.70,-1.23
1159.18,-1.32
1170.77,-1.43
1182.48,-1.52
1194.30,-1.61
1206.25,-1.71
1218.31,-1.80
1230.49,-1.89
1242.80,-1.98
1255.22,-2.07
1267.78,-2.16
1280.45,-2.25
1293.26,-2.34
1306.19,-2.44
1319.25,-2.54
1332.45,-2.64
1345.77,-2.75
1359.23,-2.85
1372.82,-2.95
1386.55,-3.06
1400.41,-3.17
1414.42,-3.27
1428.56,-3.39
1442.85,-3.50
1457.28,-3.61
1471.85,-3.73
1486.57,-3.85
1501.43,-3.98
1516.45,-4.12
1531.61,-4.25
1546.93,-4.39
1562.40,-4.53
1578.02,-4.67
1593.80,-4.82
1609.74,-4.97
1625.84,-5.12
1642.10,-5.26
1658.52,-5.40
1675.10,-5.55
1691.85,-5.68
1708.77,-5.81
1725.86,-5.93
1743.12,-6.03
1760.55,-6.12
1778.15,-6.20
1795.94,-6.28
1813.90,-6.35
1832.03,-6.41
1850.36,-6.45
1868.86,-6.49
1887.55,-6.52
1906.42,-6.53
1925.49,-6.54
1944.74,-6.55
1964.19,-6.55
1983.83,-6.54
2003.67,-6.53
2023.71,-6.52
2043.94,-6.51
2064.38,-6.51
2085.03,-6.52
2105.88,-6.53
2126.94,-6.56
2148.20,-6.58
2169.69,-6.61
2191.38,-6.65
2213.30,-6.70
2235.43,-6.75
2257.78,-6.81
2280.36,-6.88
2303.17,-6.96
2326.20,-7.05
2349.46,-7.14
2372.95,-7.24
2396.68,-7.34
2420.65,-7.44
2444.86,-7.55
2469.31,-7.65
2494.00,-7.76
2518.94,-7.87
2544.13,-7.98
2569.57,-8.08
2595.27,-8.16
2621.22,-8.24
2647.43,-8.32
2673.90,-8.38
2700.64,-8.43
2727.65,-8.47
2754.93,-8.49
2782.48,-8.49
2810.30,-8.48
2838.40,-8.47
2866.79,-8.45
2895.46,-8.43
2924.41,-8.39
2953.65,-8.35
2983.19,-8.30
3013.02,-8.25
3043.15,-8.20
3073.58,-8.15
3104.32,-8.09
3135.36,-8.04
3166.72,-8.00
3198.38,-7.95
3230.37,-7.92
3262.67,-7.89
3295.30,-7.87
3328.25,-7.85
3361.53,-7.84
3395.15,-7.82
3429.10,-7.82
3463.39,-7.82
3498.03,-7.83
3533.01,-7.84
3568.34,-7.85
3604.02,-7.85
3640.06,-7.84
3676.46,-7.82
3713.22,-7.80
3750.36,-7.78
3787.86,-7.73
3825.74,-7.67
3864.00,-7.60
3902.64,-7.53
3941.66,-7.44
3981.08,-7.33
4020.89,-7.21
4061.10,-7.07
4101.71,-6.93
4142.73,-6.79
4184.15,-6.63
4226.00,-6.46
4268.26,-6.30
4310.94,-6.13
4354.05,-5.95
4397.59,-5.77
4441.56,-5.61
4485.98,-5.44
4530.84,-5.28
4576.15,-5.15
4621.91,-5.02
4668.13,-4.91
4714.81,-4.81
4761.96,-4.73
4809.58,-4.66
4857.67,-4.60
4906.25,-4.56
4955.31,-4.53
5004.87,-4.50
5054.91,-4.50
5105.46,-4.51
5156.52,-4.53
5208.08,-4.56
5260.16,-4.61
5312.77,-4.67
5365.89,-4.75
5419.55,-4.85
5473.75,-4.98
5528.49,-5.14
5583.77,-5.32
5639.61,-5.54
5696.00,-5.78
5752.96,-6.04
5810.49,-6.33
5868.60,-6.63
5927.28,-6.96
5986.56,-7.30
6046.42,-7.66
6106.89,-8.04
6167.96,-8.43
6229.64,-8.83
6291.93,-9.23
6354.85,-9.61
6418.40,-9.99
6482.58,-10.37
6547.41,-10.77
6612.88,-11.17
6679.01,-11.57
6745.80,-11.97
6813.26,-12.36
6881.39,-12.74
6950.21,-13.11
7019.71,-13.47
7089.91,-13.81
7160.81,-14.14
7232.41,-14.46
7304.74,-14.77
7377.79,-15.07
7451.56,-15.36
7526.08,-15.63
7601.34,-15.90
7677.35,-16.15
7754.13,-16.37
7831.67,-16.57
7909.98,-16.73
7989.08,-16.89
8068.98,-17.05
8149.67,-17.20
8231.16,-17.33
8313.47,-17.43
8396.61,-17.51
8480.57,-17.57
8565.38,-17.60
8651.03,-17.60
8737.54,-17.58
8824.92,-17.54
8913.17,-17.47
9002.30,-17.40
9092.32,-17.30
9183.25,-17.17
9275.08,-17.02
9367.83,-16.84
9461.51,-16.62
9556.12,-16.38
9651.68,-16.10
9748.20,-15.79
9845.68,-15.46
9944.14,-15.10
10043.58,-14.73
10144.02,-14.35
10245.46,-13.95
10347.91,-13.56
10451.39,-13.20
10555.91,-12.86
10661.46,-12.54
10768.08,-12.24
10875.76,-11.98
10984.52,-11.76
11094.36,-11.58
11205.31,-11.43
11317.36,-11.32
11430.53,-11.24
11544.84,-11.17
11660.29,-11.11
11776.89,-11.05
11894.66,-11.01
12013.60,-10.99
12133.74,-10.98
12255.08,-10.98
12377.63,-11.01
12501.41,-11.06
12626.42,-11.15
12752.68,-11.27
12880.21,-11.43
13009.01,-11.63
13139.10,-11.85
13270.49,-12.09
13403.20,-12.35
13537.23,-12.63
13672.60,-12.93
13809.33,-13.24
13947.42,-13.56
14086.90,-13.89
14227.77,-14.24
14370.04,-14.61
14513.74,-15.03
14658.88,-15.53
14805.47,-16.13
14953.52,-16.84
15103.06,-17.68
15254.09,-18.67
15406.63,-19.78
15560.70,-21.01
15716.30,-22.32
15873.47,-23.71
16032.20,-25.15
16192.52,-26.62
16354.45,-28.09
16517.99,-29.53
16683.17,-30.90
16850.01,-32.19
17018.51,-33.37
17188.69,-34.42
17360.58,-35.33
17534.18,-36.08
17709.53,-36.67
17886.62,-37.11
18065.49,-37.43
18246.14,-37.63
18428.60,-37.70
18612.89,-37.64
18799.02,-37.45
18987.01,-37.14
19176.88,-36.70
19368.65,-36.13
19562.33,-35.43
19757.96,-34.61
19955.54,-33.66
