frequency,raw
20,-16.98
21,-16.47
22,-15.97
23,-15.47
24,-14.99
25,-14.52
26,-14.06
27,-13.62
28,-13.18
29,-12.75
30,-12.33
31,-11.92
32,-11.51
33,-11.11
34,-10.73
35,-10.35
36,-10.01
37,-9.67
38,-9.37
39,-9.09
40,-8.82
41,-8.57
42,-8.32
43,-8.08
44,-7.86
45,-7.64
46,-7.42
47,-7.20
48,-6.98
49,-6.76
50,-6.55
51,-6.33
52,-6.12
53,-5.90
54,-5.68
55,-5.46
56,-5.24
57,-5.03
58,-4.83
59,-4.64
60,-4.46
61,-4.29
62,-4.14
63,-4.01
64,-3.91
65,-3.80
66,-3.69
67,-3.60
68,-3.51
69,-3.41
70,-3.32
71,-3.23
72,-3.13
73,-3.04
74,-2.94
75,-2.82
76,-2.71
77,-2.60
78,-2.50
79,-2.38
80,-2.26
81,-2.16
82,-2.06
83,-1.97
84,-1.89
85,-1.80
86,-1.72
87,-1.66
88,-1.58
89,-1.51
90,-1.46
91,-1.42
92,-1.39
93,-1.36
94,-1.31
95,-1.27
96,-1.23
97,-1.19
98,-1.15
99,-1.10
100,-1.05
101,-1.02
102,-1.00
104,-0.98
105,-0.95
106,-0.92
107,-0.88
108,-0.84
109,-0.81
110,-0.77
111,-0.74
112,-0.72
113,-0.69
114,-0.66
115,-0.63
117,-0.60
118,-0.58
119,-0.56
120,-0.55
121,-0.55
123,-0.54
124,-0.53
125,-0.51
126,-0.50
128,-0.47
129,-0.44
130,-0.41
131,-0.37
133,-0.34
134,-0.31
135,-0.28
137,-0.25
138,-0.22
140,-0.21
141,-0.19
142,-0.19
144,-0.19
145,-0.20
147,-0.20
148,-0.20
150,-0.19
151,-0.20
153,-0.21
154,-0.23
156,-0.26
157,-0.29
159,-0.32
160,-0.35
162,-0.38
164,-0.42
165,-0.45
167,-0.48
169,-0.51
170,-0.53
172,-0.55
174,-0.56
175,-0.56
177,-0.55
179,-0.55
181,-0.54
183,-0.54
184,-0.54
186,-0.54
188,-0.54
190,-0.53
192,-0.52
194,-0.52
196,-0.52
198,-0.53
200,-0.54
202,-0.56
204,-0.59
206,-0.62
208,-0.65
210,-0.69
212,-0.72
214,-0.75
216,-0.79
218,-0.82
221,-0.84
223,-0.86
225,-0.88
227,-0.89
229,-0.89
232,-0.88
234,-0.87
236,-0.86
239,-0.86
241,-0.86
244,-0.86
246,-0.86
248,-0.86
251,-0.86
253,-0.86
256,-0.86
259,-0.86
261,-0.86
264,-0.86
266,-0.86
269,-0.86
272,-0.86
274,-0.86
277,-0.86
280,-0.86
283,-0.86
286,-0.86
288,-0.86
291,-0.86
294,-0.86
297,-0.86
300,-0.86
303,-0.86
306,-0.86
309,-0.86
312,-0.86
316,-0.86
319,-0.86
322,-0.86
325,-0.86
328,-0.86
332,-0.86
335,-0.86
338,-0.86
342,-0.86
345,-0.86
349,-0.85
352,-0.84
356,-0.84
359,-0.84
363,-0.85
366,-0.87
370,-0.90
374,-0.92
377,-0.95
381,-0.99
385,-1.02
389,-1.06
393,-1.09
397,-1.12
401,-1.15
405,-1.17
409,-1.19
413,-1.20
417,-1.21
421,-1.21
425,-1.20
430,-1.19
434,-1.20
438,-1.21
443,-1.21
447,-1.20
451,-1.19
456,-1.17
460,-1.15
465,-1.12
470,-1.09
474,-1.05
479,-1.02
484,-0.98
489,-0.95
494,-0.92
499,-0.89
504,-0.87
509,-0.85
514,-0.84
519,-0.84
524,-0.84
529,-0.85
535,-0.86
540,-0.86
545,-0.86
551,-0.86
556,-0.86
562,-0.86
568,-0.86
573,-0.86
579,-0.86
585,-0.86
591,-0.86
596,-0.86
602,-0.86
608,-0.86
615,-0.86
621,-0.86
627,-0.86
633,-0.86
639,-0.86
646,-0.86
652,-0.87
659,-0.87
665,-0.88
672,-0.88
679,-0.88
686,-0.87
692,-0.85
699,-0.83
706,-0.81
713,-0.78
721,-0.75
728,-0.71
735,-0.68
742,-0.64
750,-0.61
757,-0.58
765,-0.56
773,-0.54
780,-0.53
788,-0.52
796,-0.53
804,-0.54
812,-0.55
820,-0.55
828,-0.54
837,-0.53
845,-0.50
853,-0.48
862,-0.45
871,-0.41
879,-0.38
888,-0.36
897,-0.33
906,-0.30
915,-0.27
924,-0.24
933,-0.20
943,-0.16
952,-0.13
962,-0.10
971,-0.09
981,-0.07
991,-0.04
1001,0.00
1011,0.05
1021,0.10
1031,0.15
1041,0.20
1052,0.24
1062,0.28
1073,0.30
1084,0.31
1094,0.33
1105,0.36
1116,0.40
1128,0.44
1139,0.47
1150,0.51
1162,0.54
1173,0.57
1185,0.59
1197,0.62
1209,0.65
1221,0.69
1233,0.71
1246,0.74
1258,0.76
1271,0.78
1283,0.78
1296,0.77
1309,0.75
1322,0.74
1335,0.75
1349,0.76
1362,0.78
1376,0.81
1390,0.84
1404,0.87
1418,0.91
1432,0.94
1446,0.97
1461,1.00
1475,1.02
1490,1.04
1505,1.06
1520,1.08
1535,1.11
1550,1.13
1566,1.15
1582,1.16
1597,1.18
1613,1.20
1629,1.24
1646,1.28
1662,1.32
1679,1.36
1696,1.41
1713,1.46
1730,1.51
1747,1.57
1764,1.62
1782,1.68
1800,1.76
1818,1.84
1836,1.92
1854,2.02
1873,2.14
1892,2.25
1911,2.36
1930,2.47
1949,2.60
1969,2.74
1988,2.88
2008,3.03
2028,3.16
2048,3.31
2069,3.45
2090,3.60
2111,3.76
2132,3.91
2153,4.06
2175,4.21
2196,4.35
2218,4.47
2240,4.60
2263,4.73
2285,4.85
2308,4.96
2331,5.07
2355,5.17
2378,5.27
2402,5.35
2426,5.42
2450,5.48
2475,5.53
2500,5.56
2525,5.59
2550,5.63
2575,5.65
2601,5.67
2627,5.67
2653,5.67
2680,5.66
2707,5.63
2734,5.61
2761,5.59
2789,5.55
2817,5.50
2845,5.43
2873,5.36
2902,5.27
2931,5.18
2960,5.07
2990,4.94
3020,4.80
3050,4.66
3080,4.50
3111,4.35
3142,4.19
3174,4.02
3206,3.84
3238,3.66
3270,3.47
3303,3.27
3336,3.06
3369,2.85
3403,2.62
3437,2.39
3471,2.15
3506,1.90
3541,1.66
3576,1.42
3612,1.18
3648,0.94
3685,0.70
3721,0.47
3759,0.25
3796,0.05
3834,-0.14
3873,-0.30
3911,-0.44
3950,-0.58
3990,-0.68
4030,-0.77
4070,-0.83
4111,-0.88
4152,-0.90
4193,-0.89
4235,-0.85
4278,-0.79
4321,-0.70
4364,-0.58
4407,-0.46
4451,-0.34
4496,-0.22
4541,-0.09
4586,0.05
4632,0.21
4679,0.37
4725,0.56
4773,0.77
4820,1.01
4868,1.31
4917,1.64
4966,2.03
5016,2.47
5066,2.97
5117,3.52
5168,4.13
5220,4.77
5272,5.43
5325,6.09
5378,6.75
5432,7.38
5486,7.98
5541,8.54
5596,9.07
5652,9.56
5709,10.00
5766,10.40
5823,10.75
5882,11.06
5940,11.32
6000,11.54
6060,11.73
6120,11.88
6182,12.01
6244,12.11
6306,12.18
6369,12.21
6433,12.22
6497,12.18
6562,12.10
6628,11.97
6694,11.79
6761,11.58
6828,11.32
6897,11.04
6966,10.71
7035,10.36
7106,9.99
7177,9.59
7249,9.17
7321,8.75
7394,8.33
7468,7.90
7543,7.48
7618,7.07
7694,6.68
7771,6.31
7849,5.95
7928,5.58
8007,5.22
8087,4.88
8168,4.55
8250,4.23
8332,3.92
8415,3.61
8499,3.32
8584,3.04
8670,2.74
8757,2.45
8845,2.17
8933,1.90
9022,1.62
9113,1.37
9204,1.13
9296,0.90
9389,0.69
9483,0.51
9577,0.35
9673,0.23
9770,0.15
9868,0.11
9966,0.12
10066,0.18
10167,0.27
10268,0.41
10371,0.59
10475,0.80
10579,1.04
10685,1.30
10792,1.56
10900,1.83
11009,2.09
11119,2.35
11230,2.59
11343,2.78
11456,2.94
11571,3.08
11686,3.19
11803,3.26
11921,3.29
12040,3.30
12161,3.28
12282,3.24
12405,3.18
12529,3.09
12655,2.95
12781,2.77
12909,2.54
13038,2.26
13168,1.92
13300,1.54
13433,1.12
13567,0.69
13703,0.23
13840,-0.23
13978,-0.67
14118,-1.05
14259,-1.38
14402,-1.66
14546,-1.86
14692,-1.99
14838,-2.04
14987,-2.03
15137,-1.96
15288,-1.86
15441,-1.75
15595,-1.63
15751,-1.51
15909,-1.39
16068,-1.28
16229,-1.19
16391,-1.13
16555,-1.07
16720,-1.04
16888,-1.02
17056,-1.00
17227,-0.99
17399,-1.00
17573,-1.03
17749,-1.10
17926,-1.21
18106,-1.37
18287,-1.55
18470,-1.76
18654,-2.00
18841,-2.27
19029,-2.58
19220,-2.91
19412,-3.28
19606,-3.67
19802,-4.10
20000,-4.56
