frequency,raw,smoothed,error,error_smoothed,equalization,parametric_eq,fixed_band_eq,equalized_raw,equalized_smoothed,target
20.00,4.66,4.66,1.07,1.07,-1.09,-2.01,-0.89,3.58,3.57,3.59
20.20,4.70,4.70,1.13,1.13,-1.14,-2.01,-0.92,3.57,3.57,3.57
20.40,4.74,4.74,1.19,1.19,-1.18,-2.01,-0.95,3.56,3.56,3.55
20.61,4.78,4.78,1.24,1.24,-1.23,-2.02,-0.97,3.55,3.55,3.54
20.81,4.81,4.82,1.29,1.29,-1.28,-2.02,-1.00,3.53,3.54,3.52
21.02,4.85,4.85,1.34,1.34,-1.32,-2.02,-1.03,3.53,3.52,3.51
21.23,4.87,4.87,1.38,1.38,-1.37,-2.02,-1.06,3.50,3.50,3.49
21.44,4.89,4.90,1.41,1.42,-1.42,-2.03,-1.09,3.48,3.48,3.48
21.66,4.92,4.92,1.45,1.45,-1.46,-2.03,-1.12,3.46,3.46,3.47
21.87,4.94,4.94,1.49,1.49,-1.50,-2.03,-1.16,3.44,3.44,3.45
22.09,4.97,4.97,1.54,1.54,-1.55,-2.04,-1.19,3.42,3.43,3.44
22.31,5.01,5.01,1.59,1.59,-1.60,-2.04,-1.23,3.42,3.42,3.43
22.54,5.05,5.06,1.64,1.64,-1.64,-2.04,-1.26,3.41,3.42,3.42
22.76,5.10,5.10,1.70,1.69,-1.68,-2.05,-1.30,3.42,3.42,3.41
22.99,5.14,5.14,1.75,1.74,-1.72,-2.05,-1.33,3.42,3.41,3.40
23.22,5.16,5.16,1.78,1.78,-1.76,-2.05,-1.37,3.40,3.40,3.38
23.45,5.18,5.18,1.80,1.80,-1.80,-2.06,-1.41,3.38,3.38,3.38
23.69,5.20,5.20,1.83,1.83,-1.84,-2.06,-1.45,3.36,3.36,3.37
23.92,5.22,5.23,1.85,1.86,-1.88,-2.07,-1.49,3.34,3.35,3.37
24.16,5.26,5.26,1.89,1.89,-1.92,-2.07,-1.53,3.35,3.35,3.37
24.40,5.31,5.31,1.94,1.94,-1.94,-2.08,-1.57,3.37,3.37,3.37
24.65,5.35,5.36,1.98,1.99,-1.97,-2.08,-1.62,3.38,3.39,3.37
24.89,5.40,5.39,2.03,2.02,-1.98,-2.08,-1.66,3.42,3.41,3.37
25.14,5.41,5.40,2.04,2.04,-2.00,-2.09,-1.70,3.41,3.40,3.37
25.39,5.39,5.39,2.03,2.03,-2.01,-2.09,-1.75,3.38,3.38,3.37
25.65,5.37,5.37,2.01,2.01,-2.03,-2.10,-1.79,3.34,3.35,3.37
25.91,5.36,5.37,1.99,2.00,-2.04,-2.11,-1.83,3.32,3.33,3.37
26.16,5.38,5.39,2.01,2.01,-2.05,-2.11,-1.88,3.33,3.33,3.37
26.43,5.42,5.42,2.05,2.05,-2.06,-2.12,-1.92,3.36,3.36,3.37
26.69,5.47,5.47,2.10,2.10,-2.08,-2.12,-1.96,3.39,3.39,3.37
26.96,5.51,5.50,2.14,2.13,-2.10,-2.13,-2.01,3.41,3.41,3.37
27.23,5.52,5.52,2.15,2.15,-2.12,-2.14,-2.05,3.40,3.40,3.37
27.50,5.51,5.52,2.15,2.15,-2.15,-2.15,-2.09,3.36,3.37,3.37
27.77,5.51,5.52,2.15,2.15,-2.17,-2.15,-2.13,3.34,3.34,3.37
28.05,5.52,5.53,2.16,2.17,-2.19,-2.16,-2.17,3.33,3.33,3.36
28.33,5.55,5.55,2.20,2.20,-2.21,-2.17,-2.20,3.35,3.34,3.35
28.62,5.58,5.58,2.23,2.23,-2.22,-2.18,-2.24,3.36,3.36,3.35
28.90,5.61,5.61,2.26,2.26,-2.24,-2.19,-2.27,3.38,3.37,3.35
29.19,5.62,5.62,2.27,2.27,-2.25,-2.19,-2.30,3.37,3.37,3.35
29.48,5.62,5.62,2.28,2.28,-2.27,-2.20,-2.33,3.35,3.35,3.35
29.78,5.62,5.63,2.28,2.28,-2.29,-2.21,-2.36,3.33,3.33,3.34
30.08,5.63,5.63,2.29,2.29,-2.31,-2.22,-2.38,3.32,3.32,3.34
30.38,5.65,5.65,2.31,2.31,-2.33,-2.23,-2.40,3.32,3.33,3.34
30.68,5.67,5.67,2.34,2.34,-2.34,-2.25,-2.42,3.33,3.33,3.33
30.99,5.70,5.69,2.38,2.37,-2.36,-2.26,-2.43,3.34,3.33,3.33
31.30,5.70,5.71,2.39,2.39,-2.38,-2.27,-2.44,3.32,3.33,3.31
31.61,5.71,5.71,2.40,2.40,-2.39,-2.28,-2.45,3.32,3.32,3.31
31.93,5.71,5.71,2.40,2.41,-2.40,-2.29,-2.46,3.31,3.31,3.31
32.24,5.71,5.71,2.41,2.41,-2.41,-2.30,-2.47,3.30,3.30,3.30
32.57,5.71,5.71,2.42,2.42,-2.41,-2.31,-2.47,3.30,3.30,3.29
32.89,5.71,5.71,2.42,2.42,-2.42,-2.33,-2.46,3.30,3.30,3.29
33.22,5.71,5.71,2.42,2.42,-2.42,-2.34,-2.46,3.29,3.29,3.29
33.55,5.70,5.70,2.42,2.41,-2.43,-2.35,-2.45,3.27,3.27,3.29
33.89,5.70,5.71,2.41,2.42,-2.45,-2.36,-2.45,3.26,3.27,3.29
34.23,5.73,5.73,2.44,2.44,-2.46,-2.37,-2.44,3.27,3.27,3.29
34.57,5.76,5.76,2.47,2.47,-2.47,-2.38,-2.42,3.29,3.29,3.29
34.92,5.80,5.79,2.51,2.50,-2.49,-2.39,-2.41,3.32,3.31,3.29
35.27,5.81,5.81,2.52,2.52,-2.49,-2.40,-2.40,3.32,3.32,3.29
35.62,5.81,5.82,2.51,2.52,-2.49,-2.41,-2.38,3.32,3.32,3.30
35.97,5.81,5.80,2.52,2.51,-2.49,-2.41,-2.36,3.32,3.31,3.29
36.33,5.78,5.78,2.49,2.49,-2.48,-2.42,-2.35,3.30,3.29,3.29
36.70,5.74,5.75,2.46,2.46,-2.48,-2.42,-2.33,3.27,3.27,3.29
37.06,5.71,5.72,2.43,2.44,-2.47,-2.43,-2.31,3.25,3.26,3.28
37.43,5.71,5.71,2.44,2.44,-2.46,-2.43,-2.30,3.25,3.25,3.27
37.81,5.71,5.71,2.45,2.45,-2.46,-2.43,-2.28,3.25,3.25,3.26
38.19,5.71,5.71,2.46,2.46,-2.47,-2.43,-2.26,3.25,3.25,3.25
38.57,5.71,5.71,2.48,2.48,-2.48,-2.43,-2.25,3.24,3.24,3.23
38.95,5.71,5.71,2.49,2.49,-2.48,-2.43,-2.23,3.23,3.23,3.22
39.34,5.71,5.72,2.51,2.51,-2.49,-2.42,-2.22,3.22,3.22,3.20
39.74,5.71,5.71,2.51,2.51,-2.50,-2.42,-2.20,3.22,3.21,3.20
40.14,5.70,5.69,2.52,2.51,-2.50,-2.41,-2.19,3.21,3.20,3.18
40.54,5.66,5.67,2.49,2.49,-2.49,-2.41,-2.18,3.17,3.17,3.17
40.94,5.63,5.64,2.47,2.48,-2.49,-2.40,-2.17,3.14,3.15,3.16
41.35,5.62,5.62,2.47,2.47,-2.49,-2.40,-2.16,3.13,3.13,3.16
41.76,5.62,5.62,2.48,2.48,-2.49,-2.39,-2.15,3.13,3.13,3.14
42.18,5.62,5.62,2.49,2.48,-2.49,-2.39,-2.15,3.13,3.13,3.13
42.60,5.62,5.62,2.49,2.49,-2.49,-2.38,-2.14,3.14,3.14,3.14
43.03,5.62,5.63,2.49,2.50,-2.48,-2.38,-2.14,3.14,3.14,3.13
43.46,5.62,5.63,2.50,2.50,-2.48,-2.37,-2.14,3.14,3.14,3.12
43.90,5.62,5.61,2.50,2.49,-2.48,-2.37,-2.14,3.15,3.13,3.13
44.33,5.59,5.58,2.47,2.47,-2.47,-2.36,-2.14,3.12,3.12,3.12
44.78,5.54,5.55,2.43,2.44,-2.45,-2.36,-2.15,3.09,3.10,3.11
45.23,5.52,5.53,2.41,2.42,-2.43,-2.35,-2.15,3.09,3.10,3.11
45.68,5.52,5.52,2.42,2.41,-2.41,-2.35,-2.16,3.11,3.11,3.10
46.13,5.51,5.50,2.42,2.40,-2.39,-2.34,-2.17,3.12,3.11,3.09
46.60,5.46,5.47,2.38,2.38,-2.37,-2.34,-2.18,3.10,3.10,3.08
47.06,5.42,5.42,2.35,2.35,-2.35,-2.34,-2.19,3.07,3.07,3.07
47.53,5.38,5.38,2.32,2.32,-2.34,-2.33,-2.21,3.05,3.04,3.06
48.01,5.34,5.35,2.29,2.30,-2.33,-2.33,-2.22,3.02,3.03,3.05
48.49,5.34,5.34,2.31,2.30,-2.32,-2.33,-2.24,3.02,3.02,3.03
48.97,5.33,5.34,2.31,2.31,-2.31,-2.33,-2.26,3.02,3.03,3.02
49.46,5.33,5.34,2.32,2.33,-2.30,-2.33,-2.27,3.03,3.03,3.01
49.96,5.33,5.32,2.34,2.32,-2.30,-2.32,-2.29,3.03,3.02,2.99
50.46,5.29,5.29,2.32,2.31,-2.30,-2.32,-2.32,2.99,2.98,2.98
50.96,5.24,5.26,2.28,2.30,-2.31,-2.32,-2.34,2.93,2.95,2.96
51.47,5.24,5.24,2.29,2.29,-2.32,-2.32,-2.36,2.93,2.92,2.95
51.99,5.23,5.23,2.29,2.29,-2.32,-2.32,-2.38,2.92,2.91,2.94
52.51,5.23,5.23,2.31,2.31,-2.31,-2.32,-2.41,2.92,2.92,2.92
53.03,5.23,5.24,2.32,2.33,-2.30,-2.32,-2.43,2.93,2.94,2.91
53.56,5.23,5.23,2.34,2.33,-2.29,-2.32,-2.46,2.94,2.94,2.89
54.10,5.21,5.18,2.33,2.30,-2.28,-2.32,-2.48,2.93,2.90,2.88
54.64,5.11,5.13,2.25,2.26,-2.26,-2.32,-2.50,2.85,2.86,2.86
55.18,5.04,5.07,2.20,2.22,-2.25,-2.32,-2.53,2.80,2.83,2.85
55.74,5.04,5.02,2.21,2.19,-2.23,-2.32,-2.55,2.82,2.80,2.83
56.29,5.01,5.00,2.20,2.19,-2.20,-2.32,-2.57,2.81,2.79,2.81
56.86,4.96,4.98,2.17,2.19,-2.19,-2.33,-2.59,2.78,2.80,2.79
57.42,4.95,4.96,2.18,2.18,-2.17,-2.33,-2.61,2.78,2.78,2.78
58.00,4.95,4.93,2.19,2.17,-2.16,-2.33,-2.63,2.79,2.77,2.77
58.58,4.90,4.91,2.16,2.16,-2.15,-2.33,-2.64,2.75,2.76,2.75
59.16,4.87,4.88,2.15,2.15,-2.15,-2.33,-2.66,2.72,2.73,2.73
59.76,4.85,4.84,2.15,2.13,-2.14,-2.33,-2.67,2.71,2.70,2.70
60.35,4.81,4.81,2.13,2.12,-2.13,-2.33,-2.68,2.68,2.68,2.68
60.96,4.75,4.78,2.09,2.12,-2.11,-2.34,-2.69,2.64,2.66,2.66
61.57,4.75,4.75,2.11,2.11,-2.10,-2.34,-2.69,2.65,2.65,2.64
62.18,4.73,4.71,2.12,2.10,-2.09,-2.34,-2.69,2.64,2.62,2.61
62.80,4.67,4.67,2.09,2.09,-2.09,-2.34,-2.69,2.59,2.59,2.58
63.43,4.61,4.62,2.06,2.06,-2.09,-2.34,-2.69,2.53,2.53,2.55
64.07,4.56,4.58,2.03,2.05,-2.09,-2.34,-2.69,2.48,2.49,2.53
64.71,4.56,4.56,2.07,2.07,-2.09,-2.35,-2.68,2.48,2.48,2.49
65.35,4.56,4.56,2.10,2.10,-2.08,-2.35,-2.67,2.48,2.48,2.46
66.01,4.56,4.54,2.14,2.12,-2.08,-2.35,-2.66,2.48,2.46,2.43
66.67,4.50,4.51,2.11,2.11,-2.08,-2.35,-2.65,2.43,2.43,2.40
67.33,4.44,4.45,2.08,2.09,-2.08,-2.35,-2.63,2.36,2.37,2.36
68.01,4.39,4.39,2.07,2.06,-2.08,-2.36,-2.61,2.31,2.31,2.33
68.69,4.33,4.33,2.05,2.05,-2.08,-2.36,-2.59,2.25,2.26,2.29
69.37,4.29,4.30,2.04,2.05,-2.08,-2.36,-2.57,2.22,2.22,2.25
70.07,4.27,4.28,2.06,2.06,-2.07,-2.36,-2.55,2.20,2.20,2.21
70.77,4.27,4.27,2.09,2.09,-2.08,-2.36,-2.53,2.20,2.19,2.18
71.48,4.25,4.24,2.11,2.11,-2.08,-2.36,-2.51,2.17,2.16,2.14
72.19,4.21,4.20,2.11,2.10,-2.09,-2.37,-2.48,2.12,2.11,2.10
72.91,4.14,4.15,2.08,2.09,-2.09,-2.37,-2.46,2.05,2.06,2.06
73.64,4.10,4.12,2.08,2.09,-2.09,-2.37,-2.44,2.01,2.02,2.02
74.38,4.08,4.08,2.10,2.10,-2.09,-2.37,-2.41,1.99,1.99,1.99
75.12,4.06,4.03,2.12,2.09,-2.09,-2.37,-2.39,1.97,1.94,1.94
75.87,3.97,3.98,2.07,2.08,-2.09,-2.37,-2.37,1.88,1.89,1.90
76.63,3.91,3.93,2.05,2.07,-2.09,-2.38,-2.34,1.82,1.84,1.86
77.40,3.89,3.90,2.07,2.08,-2.10,-2.38,-2.32,1.80,1.80,1.82
78.17,3.89,3.89,2.12,2.11,-2.10,-2.38,-2.30,1.79,1.79,1.78
78.95,3.89,3.87,2.16,2.13,-2.11,-2.38,-2.28,1.78,1.76,1.73
79.74,3.82,3.82,2.13,2.13,-2.12,-2.38,-2.26,1.70,1.70,1.69
80.54,3.75,3.76,2.11,2.12,-2.13,-2.38,-2.24,1.62,1.63,1.65
81.35,3.71,3.73,2.11,2.13,-2.14,-2.38,-2.23,1.57,1.58,1.60
82.16,3.70,3.70,2.15,2.15,-2.15,-2.39,-2.21,1.55,1.55,1.56
82.98,3.70,3.68,2.19,2.17,-2.15,-2.39,-2.20,1.55,1.53,1.51
83.81,3.62,3.64,2.16,2.18,-2.15,-2.39,-2.18,1.47,1.49,1.46
84.65,3.58,3.57,2.17,2.16,-2.15,-2.39,-2.17,1.43,1.42,1.41
85.50,3.50,3.50,2.15,2.14,-2.15,-2.39,-2.16,1.35,1.35,1.36
86.35,3.42,3.45,2.12,2.14,-2.15,-2.39,-2.16,1.27,1.30,1.31
87.22,3.41,3.41,2.16,2.15,-2.16,-2.39,-2.15,1.26,1.25,1.26
88.09,3.38,3.36,2.18,2.16,-2.16,-2.39,-2.15,1.22,1.20,1.21
88.97,3.32,3.32,2.17,2.16,-2.17,-2.39,-2.14,1.16,1.15,1.16
89.86,3.24,3.27,2.15,2.17,-2.18,-2.40,-2.14,1.06,1.09,1.09
90.76,3.22,3.23,2.18,2.19,-2.19,-2.40,-2.14,1.03,1.03,1.04
91.66,3.21,3.19,2.23,2.21,-2.21,-2.40,-2.15,1.00,0.99,0.98
92.58,3.16,3.15,2.24,2.23,-2.22,-2.40,-2.15,0.94,0.94,0.93
93.51,3.09,3.11,2.23,2.24,-2.23,-2.40,-2.15,0.86,0.88,0.86
94.44,3.04,3.06,2.24,2.26,-2.24,-2.40,-2.16,0.80,0.82,0.80
95.39,3.02,3.00,2.29,2.26,-2.26,-2.40,-2.17,0.76,0.73,0.73
96.34,2.95,2.93,2.28,2.26,-2.29,-2.40,-2.18,0.66,0.64,0.67
97.30,2.83,2.87,2.24,2.27,-2.31,-2.41,-2.19,0.52,0.56,0.59
98.28,2.81,2.82,2.28,2.30,-2.33,-2.41,-2.20,0.48,0.50,0.53
99.26,2.81,2.81,2.36,2.36,-2.34,-2.41,-2.22,0.47,0.47,0.45
100.25,2.81,2.78,2.43,2.41,-2.35,-2.41,-2.23,0.46,0.43,0.38
101.25,2.74,2.72,2.44,2.41,-2.36,-2.41,-2.25,0.38,0.35,0.30
102.27,2.57,2.62,2.35,2.40,-2.37,-2.41,-2.26,0.20,0.25,0.23
103.29,2.52,2.51,2.37,2.36,-2.38,-2.41,-2.28,0.14,0.12,0.15
104.32,2.43,2.41,2.36,2.33,-2.39,-2.42,-2.30,0.04,0.01,0.07
105.37,2.30,2.34,2.31,2.35,-2.39,-2.42,-2.32,-0.09,-0.05,-0.00
106.42,2.29,2.30,2.38,2.39,-2.39,-2.42,-2.33,-0.10,-0.09,-0.09
107.48,2.28,2.27,2.45,2.44,-2.40,-2.42,-2.35,-0.12,-0.13,-0.17
108.56,2.27,2.22,2.50,2.46,-2.42,-2.42,-2.37,-0.15,-0.20,-0.23
109.64,2.12,2.13,2.43,2.44,-2.44,-2.42,-2.39,-0.32,-0.31,-0.31
110.74,2.00,2.05,2.39,2.43,-2.46,-2.43,-2.41,-0.46,-0.41,-0.38
111.85,1.99,2.00,2.44,2.45,-2.47,-2.43,-2.42,-0.48,-0.47,-0.45
112.97,2.01,1.96,2.53,2.48,-2.48,-2.43,-2.44,-0.47,-0.52,-0.52
114.10,1.94,1.92,2.52,2.50,-2.48,-2.43,-2.46,-0.54,-0.56,-0.58
115.24,1.80,1.87,2.45,2.51,-2.49,-2.44,-2.47,-0.69,-0.62,-0.65
116.39,1.81,1.80,2.52,2.50,-2.50,-2.44,-2.48,-0.69,-0.70,-0.71
117.55,1.78,1.73,2.55,2.50,-2.51,-2.44,-2.49,-0.73,-0.79,-0.76
118.73,1.64,1.68,2.47,2.51,-2.53,-2.44,-2.50,-0.88,-0.85,-0.83
119.92,1.60,1.63,2.48,2.52,-2.53,-2.45,-2.51,-0.93,-0.90,-0.88
121.12,1.62,1.60,2.56,2.54,-2.54,-2.45,-2.52,-0.92,-0.94,-0.93
122.33,1.61,1.57,2.60,2.56,-2.54,-2.45,-2.52,-0.93,-0.97,-0.99
123.55,1.52,1.54,2.56,2.58,-2.55,-2.45,-2.52,-1.03,-1.01,-1.04
124.79,1.44,1.49,2.53,2.58,-2.56,-2.46,-2.52,-1.12,-1.07,-1.09
126.03,1.48,1.42,2.62,2.56,-2.57,-2.46,-2.52,-1.09,-1.15,-1.14
127.29,1.36,1.36,2.55,2.55,-2.58,-2.46,-2.51,-1.22,-1.22,-1.19
128.57,1.28,1.32,2.52,2.56,-2.59,-2.46,-2.51,-1.30,-1.27,-1.24
129.85,1.27,1.29,2.56,2.58,-2.59,-2.47,-2.50,-1.32,-1.30,-1.29
131.15,1.30,1.28,2.64,2.62,-2.59,-2.47,-2.49,-1.29,-1.31,-1.34
132.46,1.29,1.25,2.68,2.63,-2.60,-2.47,-2.47,-1.30,-1.35,-1.38
133.79,1.16,1.19,2.59,2.62,-2.60,-2.47,-2.46,-1.44,-1.41,-1.43
135.12,1.09,1.12,2.57,2.60,-2.61,-2.48,-2.44,-1.52,-1.49,-1.48
136.48,1.09,1.07,2.61,2.59,-2.62,-2.48,-2.43,-1.52,-1.55,-1.52
137.84,1.04,1.03,2.61,2.60,-2.61,-2.48,-2.41,-1.57,-1.58,-1.57
139.22,0.98,1.00,2.60,2.62,-2.61,-2.48,-2.39,-1.63,-1.61,-1.62
140.61,0.94,0.97,2.60,2.63,-2.61,-2.48,-2.37,-1.66,-1.64,-1.66
142.02,0.95,0.91,2.67,2.62,-2.61,-2.48,-2.35,-1.66,-1.70,-1.71
143.44,0.86,0.84,2.63,2.61,-2.61,-2.49,-2.32,-1.75,-1.77,-1.76
144.87,0.73,0.79,2.55,2.60,-2.62,-2.49,-2.30,-1.89,-1.84,-1.82
146.32,0.73,0.75,2.59,2.60,-2.62,-2.49,-2.28,-1.89,-1.88,-1.85
147.78,0.75,0.72,2.66,2.62,-2.62,-2.49,-2.26,-1.87,-1.90,-1.90
149.26,0.71,0.68,2.66,2.63,-2.61,-2.49,-2.23,-1.90,-1.93,-1.95
150.75,0.59,0.64,2.59,2.64,-2.61,-2.49,-2.21,-2.02,-1.97,-2.00
152.26,0.56,0.58,2.61,2.62,-2.60,-2.49,-2.19,-2.04,-2.02,-2.05
153.78,0.57,0.51,2.65,2.59,-2.60,-2.49,-2.17,-2.03,-2.09,-2.08
155.32,0.44,0.45,2.57,2.57,-2.60,-2.49,-2.15,-2.15,-2.15,-2.13
156.88,0.34,0.39,2.51,2.56,-2.59,-2.48,-2.13,-2.24,-2.19,-2.17
158.44,0.35,0.35,2.56,2.57,-2.58,-2.48,-2.11,-2.23,-2.23,-2.21
160.03,0.37,0.33,2.63,2.59,-2.58,-2.48,-2.09,-2.20,-2.24,-2.25
161.63,0.30,0.29,2.61,2.59,-2.57,-2.48,-2.08,-2.27,-2.29,-2.31
163.24,0.20,0.23,2.55,2.57,-2.57,-2.47,-2.06,-2.37,-2.35,-2.35
164.88,0.15,0.18,2.54,2.56,-2.57,-2.47,-2.05,-2.42,-2.40,-2.39
166.53,0.16,0.15,2.59,2.57,-2.57,-2.46,-2.04,-2.41,-2.42,-2.43
168.19,0.13,0.11,2.60,2.57,-2.56,-2.46,-2.02,-2.43,-2.45,-2.46
169.87,0.06,0.06,2.56,2.56,-2.55,-2.45,-2.01,-2.49,-2.49,-2.50
171.57,-0.04,0.00,2.50,2.54,-2.53,-2.45,-2.01,-2.57,-2.53,-2.54
173.29,-0.05,-0.05,2.53,2.52,-2.52,-2.44,-2.00,-2.57,-2.57,-2.57
175.02,-0.07,-0.10,2.53,2.50,-2.51,-2.43,-2.00,-2.57,-2.61,-2.60
176.77,-0.16,-0.15,2.48,2.48,-2.49,-2.43,-1.99,-2.65,-2.65,-2.63
178.54,-0.23,-0.21,2.44,2.45,-2.48,-2.42,-1.99,-2.70,-2.69,-2.67
180.32,-0.26,-0.24,2.43,2.46,-2.46,-2.41,-1.99,-2.72,-2.70,-2.69
182.13,-0.25,-0.25,2.47,2.47,-2.45,-2.40,-1.99,-2.70,-2.70,-2.71
183.95,-0.23,-0.28,2.51,2.45,-2.44,-2.39,-1.99,-2.67,-2.72,-2.74
185.79,-0.35,-0.32,2.41,2.44,-2.43,-2.38,-2.00,-2.77,-2.75,-2.76
187.65,-0.41,-0.37,2.37,2.41,-2.41,-2.37,-2.00,-2.82,-2.78,-2.78
189.52,-0.39,-0.41,2.41,2.39,-2.40,-2.35,-2.01,-2.79,-2.81,-2.80
191.42,-0.42,-0.43,2.39,2.39,-2.39,-2.34,-2.02,-2.80,-2.81,-2.81
193.33,-0.45,-0.46,2.38,2.37,-2.37,-2.33,-2.03,-2.82,-2.83,-2.83
195.27,-0.52,-0.50,2.33,2.35,-2.35,-2.31,-2.04,-2.87,-2.85,-2.85
197.22,-0.54,-0.53,2.33,2.33,-2.34,-2.30,-2.05,-2.88,-2.87,-2.86
199.19,-0.54,-0.56,2.34,2.32,-2.32,-2.29,-2.06,-2.86,-2.88,-2.88
201.18,-0.59,-0.59,2.31,2.31,-2.31,-2.27,-2.08,-2.89,-2.89,-2.90
203.19,-0.63,-0.62,2.29,2.29,-2.28,-2.25,-2.09,-2.91,-2.91,-2.91
205.23,-0.68,-0.67,2.25,2.26,-2.26,-2.24,-2.11,-2.93,-2.93,-2.93
207.28,-0.70,-0.71,2.25,2.24,-2.23,-2.22,-2.12,-2.93,-2.94,-2.94
209.35,-0.76,-0.76,2.20,2.20,-2.20,-2.20,-2.14,-2.96,-2.96,-2.96
211.44,-0.81,-0.81,2.17,2.17,-2.17,-2.18,-2.15,-2.97,-2.98,-2.98
213.56,-0.88,-0.88,2.12,2.12,-2.13,-2.17,-2.17,-3.01,-3.01,-3.00
215.69,-0.93,-0.93,2.09,2.09,-2.09,-2.15,-2.18,-3.02,-3.02,-3.02
217.85,-1.00,-0.98,2.03,2.06,-2.06,-2.13,-2.20,-3.05,-3.03,-3.03
220.03,-1.00,-1.01,2.06,2.04,-2.02,-2.11,-2.21,-3.02,-3.04,-3.05
222.23,-1.06,-1.06,2.01,2.00,-1.99,-2.09,-2.23,-3.05,-3.06,-3.07
224.45,-1.11,-1.11,1.97,1.97,-1.97,-2.06,-2.24,-3.08,-3.08,-3.08
226.70,-1.18,-1.16,1.91,1.93,-1.96,-2.04,-2.25,-3.13,-3.12,-3.09
228.96,-1.19,-1.19,1.91,1.91,-1.94,-2.02,-2.26,-3.13,-3.13,-3.10
231.25,-1.19,-1.18,1.91,1.92,-1.93,-2.00,-2.27,-3.12,-3.12,-3.10
233.57,-1.18,-1.18,1.93,1.93,-1.92,-1.98,-2.28,-3.10,-3.10,-3.11
235.90,-1.16,-1.18,1.96,1.94,-1.91,-1.95,-2.28,-3.07,-3.09,-3.12
238.26,-1.22,-1.20,1.90,1.92,-1.90,-1.93,-2.29,-3.11,-3.09,-3.12
240.64,-1.22,-1.23,1.90,1.89,-1.88,-1.91,-2.29,-3.10,-3.11,-3.12
243.05,-1.27,-1.26,1.85,1.86,-1.85,-1.88,-2.29,-3.12,-3.12,-3.12
245.48,-1.29,-1.28,1.83,1.84,-1.83,-1.86,-2.28,-3.12,-3.11,-3.12
247.93,-1.31,-1.32,1.81,1.79,-1.80,-1.84,-2.28,-3.11,-3.12,-3.11
250.41,-1.34,-1.35,1.77,1.76,-1.78,-1.81,-2.27,-3.11,-3.13,-3.11
252.92,-1.41,-1.39,1.70,1.73,-1.75,-1.79,-2.25,-3.16,-3.14,-3.11
255.45,-1.41,-1.40,1.71,1.71,-1.73,-1.76,-2.24,-3.14,-3.14,-3.12
258.00,-1.40,-1.40,1.72,1.72,-1.71,-1.74,-2.22,-3.11,-3.11,-3.11
260.58,-1.39,-1.40,1.73,1.73,-1.70,-1.71,-2.20,-3.08,-3.09,-3.12
263.19,-1.41,-1.42,1.72,1.71,-1.68,-1.69,-2.18,-3.09,-3.10,-3.13
265.82,-1.47,-1.47,1.68,1.67,-1.66,-1.66,-2.16,-3.13,-3.13,-3.14
268.48,-1.53,-1.52,1.62,1.63,-1.64,-1.64,-2.13,-3.17,-3.17,-3.15
271.16,-1.58,-1.56,1.59,1.60,-1.62,-1.61,-2.10,-3.20,-3.18,-3.17
273.87,-1.59,-1.59,1.58,1.58,-1.59,-1.59,-2.07,-3.18,-3.18,-3.17
276.61,-1.60,-1.61,1.59,1.58,-1.56,-1.56,-2.04,-3.16,-3.17,-3.19
279.38,-1.65,-1.65,1.55,1.55,-1.53,-1.54,-2.00,-3.18,-3.18,-3.20
282.17,-1.69,-1.69,1.52,1.51,-1.51,-1.51,-1.97,-3.20,-3.21,-3.21
284.99,-1.75,-1.74,1.46,1.47,-1.50,-1.49,-1.93,-3.25,-3.24,-3.21
287.84,-1.77,-1.76,1.44,1.45,-1.48,-1.46,-1.89,-3.25,-3.24,-3.21
290.72,-1.76,-1.76,1.45,1.46,-1.46,-1.44,-1.86,-3.22,-3.22,-3.21
293.63,-1.75,-1.75,1.47,1.46,-1.44,-1.41,-1.82,-3.19,-3.19,-3.22
296.57,-1.74,-1.76,1.47,1.45,-1.42,-1.39,-1.78,-3.16,-3.18,-3.21
299.53,-1.80,-1.79,1.41,1.41,-1.40,-1.37,-1.74,-3.20,-3.19,-3.20
302.53,-1.84,-1.83,1.37,1.37,-1.38,-1.34,-1.70,-3.22,-3.21,-3.21
305.55,-1.88,-1.86,1.32,1.34,-1.36,-1.32,-1.66,-3.24,-3.22,-3.20
308.61,-1.88,-1.88,1.33,1.33,-1.34,-1.30,-1.62,-3.21,-3.22,-3.20
311.69,-1.88,-1.90,1.33,1.30,-1.31,-1.27,-1.58,-3.19,-3.22,-3.21
314.81,-1.94,-1.93,1.27,1.28,-1.29,-1.25,-1.54,-3.23,-3.22,-3.21
317.96,-1.97,-1.95,1.25,1.27,-1.27,-1.23,-1.50,-3.24,-3.21,-3.22
321.14,-1.96,-1.96,1.26,1.25,-1.25,-1.21,-1.46,-3.21,-3.21,-3.22
324.35,-1.95,-1.98,1.26,1.24,-1.23,-1.19,-1.42,-3.18,-3.20,-3.21
327.59,-2.01,-2.00,1.21,1.21,-1.20,-1.16,-1.38,-3.21,-3.21,-3.21
330.87,-2.06,-2.03,1.16,1.18,-1.18,-1.14,-1.35,-3.23,-3.21,-3.22
334.18,-2.07,-2.07,1.15,1.15,-1.15,-1.12,-1.31,-3.22,-3.22,-3.22
337.52,-2.07,-2.10,1.15,1.12,-1.13,-1.10,-1.28,-3.20,-3.23,-3.22
340.90,-2.15,-2.13,1.08,1.09,-1.11,-1.09,-1.24,-3.25,-3.24,-3.22
344.30,-2.18,-2.16,1.04,1.06,-1.08,-1.07,-1.21,-3.26,-3.24,-3.22
347.75,-2.17,-2.17,1.04,1.05,-1.06,-1.05,-1.17,-3.23,-3.23,-3.21
351.23,-2.16,-2.16,1.06,1.05,-1.03,-1.03,-1.14,-3.19,-3.20,-3.22
354.74,-2.16,-2.18,1.05,1.03,-1.00,-1.01,-1.11,-3.16,-3.18,-3.20
358.28,-2.22,-2.20,0.99,1.00,-0.97,-1.00,-1.08,-3.19,-3.17,-3.21
361.87,-2.25,-2.24,0.95,0.96,-0.95,-0.98,-1.05,-3.19,-3.19,-3.20
365.49,-2.26,-2.28,0.93,0.91,-0.92,-0.96,-1.02,-3.18,-3.21,-3.19
369.14,-2.33,-2.31,0.86,0.87,-0.90,-0.95,-0.99,-3.23,-3.21,-3.19
372.83,-2.34,-2.33,0.84,0.85,-0.88,-0.93,-0.97,-3.22,-3.21,-3.17
376.56,-2.32,-2.33,0.86,0.85,-0.88,-0.92,-0.94,-3.19,-3.20,-3.18
380.33,-2.31,-2.31,0.87,0.87,-0.88,-0.90,-0.91,-3.18,-3.19,-3.18
384.13,-2.30,-2.30,0.88,0.88,-0.88,-0.89,-0.89,-3.18,-3.18,-3.18
387.97,-2.30,-2.29,0.88,0.88,-0.88,-0.87,-0.86,-3.17,-3.17,-3.18
391.85,-2.29,-2.28,0.88,0.90,-0.87,-0.86,-0.84,-3.16,-3.14,-3.17
395.77,-2.28,-2.27,0.91,0.91,-0.85,-0.84,-0.82,-3.13,-3.13,-3.18
399.73,-2.27,-2.31,0.92,0.87,-0.84,-0.83,-0.80,-3.10,-3.15,-3.19
403.72,-2.38,-2.38,0.81,0.82,-0.81,-0.82,-0.78,-3.19,-3.19,-3.19
407.76,-2.49,-2.45,0.72,0.75,-0.79,-0.80,-0.76,-3.28,-3.24,-3.21
411.84,-2.50,-2.50,0.71,0.71,-0.77,-0.79,-0.74,-3.27,-3.27,-3.21
415.96,-2.49,-2.50,0.72,0.71,-0.75,-0.78,-0.72,-3.23,-3.25,-3.21
420.12,-2.49,-2.49,0.73,0.73,-0.72,-0.77,-0.70,-3.21,-3.21,-3.22
424.32,-2.49,-2.48,0.72,0.73,-0.70,-0.76,-0.68,-3.19,-3.18,-3.21
428.56,-2.48,-2.48,0.73,0.73,-0.69,-0.74,-0.67,-3.17,-3.17,-3.20
432.85,-2.47,-2.49,0.72,0.70,-0.68,-0.73,-0.65,-3.15,-3.17,-3.18
437.18,-2.50,-2.50,0.68,0.67,-0.67,-0.72,-0.63,-3.17,-3.17,-3.18
441.55,-2.52,-2.49,0.62,0.64,-0.67,-0.71,-0.62,-3.19,-3.16,-3.14
445.96,-2.47,-2.47,0.63,0.63,-0.66,-0.70,-0.60,-3.13,-3.13,-3.10
450.42,-2.40,-2.41,0.65,0.64,-0.66,-0.69,-0.59,-3.06,-3.07,-3.05
454.93,-2.34,-2.34,0.66,0.66,-0.66,-0.68,-0.58,-3.00,-3.00,-3.00
459.48,-2.28,-2.28,0.66,0.67,-0.66,-0.67,-0.57,-2.94,-2.94,-2.94
464.07,-2.22,-2.22,0.67,0.67,-0.66,-0.66,-0.56,-2.88,-2.88,-2.89
468.71,-2.17,-2.15,0.67,0.68,-0.65,-0.65,-0.55,-2.82,-2.81,-2.84
473.40,-2.10,-2.10,0.68,0.68,-0.64,-0.64,-0.53,-2.74,-2.75,-2.78
478.13,-2.05,-2.08,0.68,0.64,-0.63,-0.63,-0.53,-2.68,-2.71,-2.72
482.91,-2.09,-2.07,0.59,0.60,-0.61,-0.62,-0.52,-2.70,-2.69,-2.67
487.74,-2.10,-2.06,0.54,0.57,-0.60,-0.61,-0.51,-2.69,-2.66,-2.63
