frequency,raw
20,-20.44
21,-19.64
22,-18.86
23,-18.10
24,-17.36
25,-16.64
26,-15.93
27,-15.24
28,-14.57
29,-13.92
30,-13.29
31,-12.71
32,-12.14
33,-11.58
34,-11.03
35,-10.48
36,-9.93
37,-9.40
38,-8.89
39,-8.38
40,-7.90
41,-7.41
42,-6.95
43,-6.48
44,-6.04
45,-5.59
46,-5.14
47,-4.68
48,-4.22
49,-3.76
50,-3.30
51,-2.85
52,-2.42
53,-1.98
54,-1.53
55,-1.09
56,-0.68
57,-0.28
58,0.09
59,0.45
60,0.80
61,1.12
62,1.42
63,1.71
64,1.98
65,2.23
66,2.49
67,2.73
68,2.97
69,3.19
70,3.40
71,3.61
72,3.81
73,4.02
74,4.21
75,4.39
76,4.56
77,4.72
78,4.87
79,5.02
80,5.15
81,5.27
82,5.38
83,5.48
84,5.55
85,5.62
86,5.69
87,5.75
88,5.79
89,5.82
90,5.83
91,5.82
92,5.81
93,5.80
94,5.77
95,5.73
96,5.69
97,5.64
98,5.59
99,5.52
100,5.45
101,5.39
102,5.31
104,5.23
105,5.15
106,5.08
107,5.01
108,4.93
109,4.85
110,4.76
111,4.67
112,4.58
113,4.50
114,4.43
115,4.34
117,4.26
118,4.18
119,4.10
120,4.00
121,3.91
123,3.82
124,3.75
125,3.67
126,3.58
128,3.50
129,3.43
130,3.35
131,3.29
133,3.22
134,3.14
135,3.07
137,3.01
138,2.96
140,2.89
141,2.82
142,2.75
144,2.69
145,2.63
147,2.56
148,2.50
150,2.44
151,2.38
153,2.32
154,2.26
156,2.21
157,2.15
159,2.09
160,2.04
162,1.98
164,1.92
165,1.87
167,1.81
169,1.75
170,1.69
172,1.63
174,1.57
175,1.50
177,1.44
179,1.37
181,1.30
183,1.25
184,1.19
186,1.15
188,1.09
190,1.02
192,0.96
194,0.90
196,0.86
198,0.83
200,0.79
202,0.75
204,0.71
206,0.67
208,0.63
210,0.59
212,0.55
214,0.51
216,0.47
218,0.43
221,0.39
223,0.35
225,0.30
227,0.26
229,0.21
232,0.16
234,0.11
236,0.06
239,0.01
241,-0.03
244,-0.07
246,-0.12
248,-0.18
251,-0.24
253,-0.30
256,-0.35
259,-0.40
261,-0.44
264,-0.49
266,-0.53
269,-0.57
272,-0.61
274,-0.65
277,-0.68
280,-0.73
283,-0.78
286,-0.82
288,-0.85
291,-0.88
294,-0.91
297,-0.93
300,-0.96
303,-0.98
306,-1.00
309,-1.02
312,-1.02
316,-1.02
319,-1.02
322,-1.01
325,-1.00
328,-1.00
332,-1.00
335,-1.00
338,-1.00
342,-1.01
345,-1.02
349,-1.02
352,-1.03
356,-1.02
359,-1.00
363,-0.98
366,-0.96
370,-0.94
374,-0.92
377,-0.89
381,-0.85
385,-0.80
389,-0.76
393,-0.71
397,-0.66
401,-0.60
405,-0.54
409,-0.48
413,-0.43
417,-0.38
421,-0.32
425,-0.26
430,-0.19
434,-0.13
438,-0.06
443,0.01
447,0.08
451,0.14
456,0.21
460,0.27
465,0.33
470,0.38
474,0.44
479,0.50
484,0.56
489,0.63
494,0.68
499,0.73
504,0.78
509,0.83
514,0.88
519,0.91
524,0.92
529,0.92
535,0.93
540,0.93
545,0.91
551,0.88
556,0.84
562,0.79
568,0.73
573,0.68
579,0.62
585,0.54
591,0.47
596,0.39
602,0.30
608,0.21
615,0.13
621,0.03
627,-0.09
633,-0.20
639,-0.31
646,-0.42
652,-0.53
659,-0.64
665,-0.75
672,-0.85
679,-0.94
686,-1.03
692,-1.10
699,-1.17
706,-1.24
713,-1.29
721,-1.31
728,-1.33
735,-1.34
742,-1.33
750,-1.31
757,-1.27
765,-1.23
773,-1.17
780,-1.10
788,-1.04
796,-0.97
804,-0.89
812,-0.81
820,-0.73
828,-0.65
837,-0.59
845,-0.53
853,-0.50
862,-0.47
871,-0.43
879,-0.39
888,-0.36
897,-0.33
906,-0.29
915,-0.25
924,-0.22
933,-0.20
943,-0.17
952,-0.14
962,-0.11
971,-0.07
981,-0.04
991,-0.01
1001,0.00
1011,0.00
1021,-0.01
1031,-0.04
1041,-0.08
1052,-0.11
1062,-0.14
1073,-0.17
1084,-0.19
1094,-0.23
1105,-0.26
1116,-0.31
1128,-0.34
1139,-0.37
1150,-0.41
1162,-0.45
1173,-0.48
1185,-0.53
1197,-0.57
1209,-0.63
1221,-0.70
1233,-0.78
1246,-0.88
1258,-0.98
1271,-1.09
1283,-1.21
1296,-1.33
1309,-1.46
1322,-1.60
1335,-1.76
1349,-1.93
1362,-2.10
1376,-2.28
1390,-2.47
1404,-2.67
1418,-2.88
1432,-3.11
1446,-3.32
1461,-3.53
1475,-3.74
1490,-3.96
1505,-4.18
1520,-4.39
1535,-4.58
1550,-4.77
1566,-4.94
1582,-5.10
1597,-5.25
1613,-5.39
1629,-5.53
1646,-5.65
1662,-5.75
1679,-5.83
1696,-5.91
1713,-5.99
1730,-6.07
1747,-6.13
1764,-6.18
1782,-6.23
1800,-6.28
1818,-6.31
1836,-6.33
1854,-6.37
1873,-6.40
1892,-6.44
1911,-6.48
1930,-6.53
1949,-6.58
1969,-6.63
1988,-6.68
2008,-6.75
2028,-6.81
2048,-6.89
2069,-6.97
2090,-7.09
2111,-7.21
2132,-7.33
2153,-7.47
2175,-7.62
2196,-7.76
2218,-7.90
2240,-8.05
2263,-8.18
2285,-8.31
2308,-8.44
2331,-8.57
2355,-8.67
2378,-8.76
2402,-8.84
2426,-8.92
2450,-8.99
2475,-9.03
2500,-9.06
2525,-9.09
2550,-9.10
2575,-9.10
2601,-9.08
2627,-9.07
2653,-9.03
2680,-8.98
2707,-8.90
2734,-8.81
2761,-8.70
2789,-8.57
2817,-8.41
2845,-8.25
2873,-8.07
2902,-7.89
2931,-7.72
2960,-7.53
2990,-7.35
3020,-7.18
3050,-7.00
3080,-6.84
3111,-6.69
3142,-6.55
3174,-6.42
3206,-6.30
3238,-6.18
3270,-6.07
3303,-5.98
3336,-5.90
3369,-5.82
3403,-5.75
3437,-5.71
3471,-5.69
3506,-5.67
3541,-5.68
3576,-5.71
3612,-5.75
3648,-5.81
3685,-5.88
3721,-5.95
3759,-6.05
3796,-6.15
3834,-6.27
3873,-6.40
3911,-6.55
3950,-6.72
3990,-6.89
4030,-7.08
4070,-7.26
4111,-7.43
4152,-7.61
4193,-7.77
4235,-7.90
4278,-8.00
4321,-8.10
4364,-8.16
4407,-8.19
4451,-8.19
4496,-8.15
4541,-8.09
4586,-7.99
4632,-7.86
4679,-7.70
4725,-7.51
4773,-7.30
4820,-7.05
4868,-6.78
4917,-6.49
4966,-6.19
5016,-5.89
5066,-5.60
5117,-5.31
5168,-5.07
5220,-4.85
5272,-4.67
5325,-4.53
5378,-4.42
5432,-4.33
5486,-4.26
5541,-4.21
5596,-4.15
5652,-4.09
5709,-4.01
5766,-3.91
5823,-3.79
5882,-3.63
5940,-3.44
6000,-3.21
6060,-2.93
6120,-2.62
6182,-2.28
6244,-1.93
6306,-1.57
6369,-1.19
6433,-0.79
6497,-0.42
6562,-0.08
6628,0.22
6694,0.48
6761,0.69
6828,0.84
6897,0.94
6966,1.00
7035,1.00
7106,0.95
7177,0.87
7249,0.76
7321,0.63
7394,0.47
7468,0.27
7543,0.03
7618,-0.27
7694,-0.63
7771,-1.06
7849,-1.58
7928,-2.23
8007,-2.98
8087,-3.84
8168,-4.79
8250,-5.81
8332,-6.89
8415,-7.99
8499,-9.08
8584,-10.14
8670,-11.15
8757,-12.07
8845,-12.89
8933,-13.59
9022,-14.17
9113,-14.62
9204,-14.94
9296,-15.15
9389,-15.25
9483,-15.28
9577,-15.24
9673,-15.13
9770,-14.98
9868,-14.79
9966,-14.58
10066,-14.34
10167,-14.07
10268,-13.78
10371,-13.47
10475,-13.14
10579,-12.80
10685,-12.44
10792,-12.10
10900,-11.74
11009,-11.37
11119,-11.03
11230,-10.71
11343,-10.42
11456,-10.16
11571,-9.96
11686,-9.80
11803,-9.68
11921,-9.61
12040,-9.58
12161,-9.59
12282,-9.64
12405,-9.71
12529,-9.81
12655,-9.94
12781,-10.09
12909,-10.25
13038,-10.43
13168,-10.67
13300,-10.94
13433,-11.27
13567,-11.66
13703,-12.12
13840,-12.63
13978,-13.19
14118,-13.78
14259,-14.38
14402,-14.98
14546,-15.55
14692,-16.07
14838,-16.53
14987,-16.90
15137,-17.16
15288,-17.31
15441,-17.35
15595,-17.26
15751,-17.06
15909,-16.78
16068,-16.47
16229,-16.12
16391,-15.77
16555,-15.44
16720,-15.13
16888,-14.85
17056,-14.61
17227,-14.43
17399,-14.30
17573,-14.21
17749,-14.17
17926,-14.18
18106,-14.22
18287,-14.24
18470,-14.28
18654,-14.35
18841,-14.43
19029,-14.55
19220,-14.68
19412,-14.84
19606,-15.02
19802,-15.23
20000,-15.45
