frequency,raw,smoothed,error,error_smoothed,equalization,parametric_eq,fixed_band_eq,equalized_raw,equalized_smoothed,target
20.00,12.06,12.06,1.21,1.21,-1.22,-2.04,-0.66,10.84,10.84,10.84
20.20,12.12,12.12,1.28,1.29,-1.29,-2.03,-0.68,10.83,10.83,10.83
20.40,12.18,12.18,1.36,1.35,-1.35,-2.02,-0.70,10.83,10.82,10.82
20.61,12.23,12.23,1.42,1.42,-1.42,-2.01,-0.72,10.81,10.81,10.81
20.81,12.28,12.28,1.48,1.48,-1.48,-2.00,-0.74,10.80,10.80,10.80
21.02,12.33,12.33,1.54,1.54,-1.53,-1.99,-0.77,10.79,10.79,10.79
21.23,12.37,12.37,1.59,1.59,-1.59,-1.98,-0.79,10.78,10.78,10.78
21.44,12.41,12.41,1.64,1.64,-1.64,-1.97,-0.82,10.77,10.77,10.77
21.66,12.45,12.45,1.69,1.69,-1.69,-1.96,-0.84,10.75,10.76,10.76
21.87,12.49,12.48,1.74,1.74,-1.74,-1.95,-0.87,10.75,10.74,10.75
22.09,12.52,12.52,1.78,1.78,-1.79,-1.94,-0.90,10.73,10.73,10.74
22.31,12.55,12.55,1.82,1.83,-1.83,-1.93,-0.92,10.72,10.72,10.72
22.54,12.59,12.58,1.87,1.87,-1.87,-1.92,-0.95,10.72,10.71,10.71
22.76,12.61,12.61,1.91,1.91,-1.90,-1.90,-0.98,10.70,10.71,10.70
22.99,12.64,12.64,1.94,1.94,-1.94,-1.89,-1.01,10.70,10.70,10.70
23.22,12.66,12.66,1.97,1.97,-1.97,-1.88,-1.04,10.69,10.69,10.69
23.45,12.67,12.67,1.99,1.99,-2.00,-1.87,-1.07,10.67,10.68,10.68
23.69,12.69,12.68,2.02,2.02,-2.02,-1.85,-1.10,10.67,10.67,10.67
23.92,12.69,12.69,2.03,2.04,-2.04,-1.84,-1.14,10.65,10.66,10.66
24.16,12.70,12.70,2.05,2.05,-2.05,-1.83,-1.17,10.65,10.65,10.64
24.40,12.70,12.70,2.07,2.06,-2.06,-1.81,-1.20,10.64,10.64,10.63
24.65,12.70,12.70,2.07,2.07,-2.07,-1.80,-1.23,10.63,10.63,10.63
24.89,12.70,12.70,2.07,2.07,-2.07,-1.78,-1.27,10.63,10.63,10.63
25.14,12.69,12.69,2.06,2.06,-2.07,-1.77,-1.30,10.62,10.62,10.63
25.39,12.68,12.68,2.06,2.06,-2.06,-1.75,-1.34,10.62,10.62,10.62
25.65,12.67,12.67,2.05,2.05,-2.05,-1.74,-1.37,10.61,10.62,10.61
25.91,12.66,12.66,2.05,2.05,-2.04,-1.72,-1.40,10.62,10.62,10.61
26.16,12.64,12.64,2.03,2.03,-2.03,-1.70,-1.44,10.61,10.61,10.61
26.43,12.62,12.62,2.01,2.01,-2.01,-1.69,-1.47,10.61,10.61,10.61
26.69,12.59,12.59,1.98,1.99,-1.99,-1.67,-1.50,10.60,10.61,10.61
26.96,12.57,12.57,1.96,1.96,-1.96,-1.65,-1.53,10.61,10.61,10.60
27.23,12.54,12.54,1.94,1.93,-1.94,-1.63,-1.56,10.60,10.60,10.60
27.50,12.51,12.51,1.91,1.91,-1.91,-1.61,-1.59,10.60,10.60,10.60
27.77,12.47,12.47,1.87,1.88,-1.88,-1.60,-1.61,10.59,10.59,10.60
28.05,12.44,12.44,1.85,1.85,-1.85,-1.58,-1.64,10.59,10.59,10.58
28.33,12.41,12.40,1.83,1.82,-1.82,-1.56,-1.66,10.58,10.58,10.58
28.62,12.37,12.37,1.80,1.80,-1.80,-1.53,-1.68,10.57,10.57,10.57
28.90,12.33,12.33,1.76,1.77,-1.77,-1.51,-1.70,10.56,10.56,10.57
29.19,12.29,12.29,1.73,1.73,-1.74,-1.49,-1.72,10.55,10.55,10.55
29.48,12.25,12.25,1.71,1.70,-1.71,-1.47,-1.73,10.54,10.54,10.54
29.78,12.21,12.21,1.67,1.68,-1.67,-1.45,-1.74,10.53,10.53,10.54
30.08,12.17,12.17,1.64,1.64,-1.64,-1.42,-1.74,10.53,10.53,10.52
30.38,12.13,12.13,1.61,1.61,-1.61,-1.40,-1.75,10.52,10.52,10.52
30.68,12.09,12.09,1.57,1.57,-1.57,-1.38,-1.75,10.52,10.52,10.52
30.99,12.04,12.04,1.53,1.53,-1.53,-1.35,-1.74,10.51,10.51,10.51
31.30,12.00,12.00,1.49,1.49,-1.49,-1.33,-1.73,10.51,10.51,10.51
31.61,11.95,11.95,1.44,1.44,-1.44,-1.30,-1.72,10.51,10.51,10.51
31.93,11.90,11.90,1.39,1.40,-1.39,-1.27,-1.71,10.50,10.51,10.51
32.24,11.86,11.86,1.35,1.35,-1.35,-1.25,-1.69,10.51,10.51,10.51
32.57,11.81,11.81,1.31,1.30,-1.30,-1.22,-1.67,10.51,10.51,10.50
32.89,11.76,11.76,1.25,1.25,-1.25,-1.19,-1.65,10.51,10.51,10.51
33.22,11.70,11.70,1.19,1.20,-1.20,-1.16,-1.62,10.50,10.50,10.50
33.55,11.65,11.65,1.15,1.15,-1.15,-1.13,-1.59,10.49,10.50,10.50
33.89,11.60,11.59,1.11,1.11,-1.11,-1.10,-1.55,10.49,10.49,10.48
34.23,11.54,11.54,1.06,1.06,-1.06,-1.07,-1.52,10.48,10.48,10.48
34.57,11.48,11.48,1.00,1.01,-1.01,-1.04,-1.48,10.47,10.47,10.47
34.92,11.42,11.42,0.96,0.96,-0.97,-1.00,-1.44,10.45,10.46,10.46
35.27,11.37,11.37,0.93,0.92,-0.92,-0.97,-1.39,10.45,10.44,10.44
35.62,11.31,11.31,0.88,0.88,-0.88,-0.94,-1.35,10.43,10.43,10.43
35.97,11.25,11.25,0.84,0.84,-0.84,-0.90,-1.30,10.41,10.41,10.41
36.33,11.18,11.18,0.79,0.79,-0.79,-0.86,-1.25,10.38,10.39,10.39
36.70,11.12,11.12,0.75,0.75,-0.75,-0.83,-1.20,10.37,10.36,10.37
37.06,11.06,11.06,0.71,0.71,-0.71,-0.79,-1.15,10.34,10.34,10.35
37.43,11.00,11.00,0.68,0.68,-0.67,-0.75,-1.10,10.32,10.33,10.32
37.81,10.94,10.94,0.63,0.64,-0.63,-0.71,-1.04,10.31,10.30,10.30
38.19,10.88,10.88,0.60,0.60,-0.59,-0.68,-0.99,10.29,10.28,10.28
38.57,10.81,10.81,0.55,0.55,-0.55,-0.64,-0.93,10.26,10.26,10.26
38.95,10.75,10.75,0.51,0.51,-0.51,-0.59,-0.88,10.24,10.24,10.24
39.34,10.69,10.69,0.47,0.47,-0.47,-0.55,-0.82,10.22,10.22,10.22
39.74,10.63,10.63,0.43,0.43,-0.43,-0.51,-0.77,10.20,10.20,10.20
40.14,10.57,10.57,0.39,0.38,-0.38,-0.47,-0.71,10.19,10.19,10.18
40.54,10.51,10.51,0.34,0.34,-0.33,-0.42,-0.65,10.18,10.18,10.17
40.94,10.45,10.45,0.29,0.29,-0.29,-0.38,-0.60,10.16,10.16,10.16
41.35,10.38,10.38,0.24,0.24,-0.24,-0.33,-0.54,10.14,10.14,10.14
41.76,10.32,10.32,0.19,0.18,-0.19,-0.29,-0.48,10.13,10.13,10.13
42.18,10.26,10.26,0.13,0.13,-0.13,-0.24,-0.43,10.13,10.12,10.13
42.60,10.20,10.20,0.08,0.08,-0.08,-0.20,-0.37,10.12,10.12,10.12
43.03,10.14,10.14,0.03,0.03,-0.02,-0.15,-0.31,10.11,10.11,10.11
43.46,10.08,10.08,-0.03,-0.03,0.03,-0.10,-0.26,10.11,10.11,10.10
43.90,10.01,10.01,-0.09,-0.09,0.09,-0.05,-0.20,10.09,10.10,10.10
44.33,9.95,9.95,-0.14,-0.14,0.14,-0.00,-0.14,10.09,10.09,10.09
44.78,9.89,9.89,-0.20,-0.20,0.19,0.05,-0.09,10.08,10.08,10.08
45.23,9.83,9.83,-0.25,-0.25,0.25,0.10,-0.03,10.08,10.07,10.08
45.68,9.77,9.77,-0.30,-0.30,0.30,0.15,0.03,10.07,10.07,10.06
46.13,9.71,9.71,-0.34,-0.35,0.35,0.19,0.08,10.05,10.05,10.05
46.60,9.65,9.65,-0.39,-0.39,0.39,0.24,0.14,10.04,10.04,10.04
47.06,9.59,9.59,-0.44,-0.44,0.44,0.29,0.19,10.03,10.02,10.03
47.53,9.53,9.53,-0.48,-0.48,0.48,0.34,0.25,10.01,10.01,10.01
48.01,9.47,9.47,-0.52,-0.52,0.52,0.39,0.30,9.99,9.99,9.99
48.49,9.42,9.42,-0.56,-0.56,0.56,0.44,0.36,9.98,9.98,9.97
48.97,9.36,9.36,-0.60,-0.60,0.60,0.49,0.41,9.96,9.96,9.96
49.46,9.30,9.30,-0.64,-0.64,0.63,0.54,0.46,9.93,9.93,9.94
49.96,9.24,9.24,-0.67,-0.67,0.67,0.59,0.52,9.91,9.91,9.91
50.46,9.18,9.18,-0.71,-0.70,0.70,0.64,0.57,9.88,9.88,9.89
50.96,9.13,9.13,-0.73,-0.73,0.73,0.69,0.62,9.86,9.86,9.85
51.47,9.07,9.07,-0.76,-0.76,0.76,0.73,0.68,9.83,9.83,9.83
51.99,9.02,9.02,-0.79,-0.79,0.80,0.78,0.73,9.81,9.81,9.81
52.51,8.96,8.96,-0.83,-0.82,0.82,0.82,0.78,9.78,9.79,9.78
53.03,8.91,8.91,-0.85,-0.85,0.85,0.86,0.83,9.76,9.76,9.76
53.56,8.85,8.85,-0.89,-0.88,0.88,0.90,0.87,9.73,9.73,9.74
54.10,8.80,8.80,-0.91,-0.91,0.91,0.94,0.92,9.71,9.71,9.71
54.64,8.75,8.75,-0.93,-0.93,0.93,0.98,0.96,9.68,9.68,9.68
55.18,8.70,8.70,-0.96,-0.96,0.96,1.02,1.01,9.66,9.66,9.65
55.74,8.65,8.65,-0.98,-0.98,0.98,1.05,1.05,9.63,9.63,9.63
56.29,8.60,8.59,-1.00,-1.00,1.00,1.09,1.09,9.60,9.60,9.60
56.86,8.54,8.54,-1.03,-1.02,1.02,1.12,1.13,9.56,9.56,9.57
57.42,8.49,8.49,-1.05,-1.04,1.04,1.14,1.16,9.53,9.53,9.54
58.00,8.45,8.44,-1.05,-1.06,1.06,1.17,1.19,9.51,9.50,9.50
58.58,8.40,8.40,-1.07,-1.07,1.08,1.19,1.22,9.47,9.47,9.47
59.16,8.35,8.35,-1.09,-1.09,1.09,1.22,1.25,9.44,9.44,9.44
59.76,8.30,8.30,-1.10,-1.10,1.10,1.23,1.28,9.40,9.40,9.40
60.35,8.25,8.25,-1.12,-1.12,1.11,1.25,1.30,9.36,9.36,9.36
60.96,8.20,8.20,-1.13,-1.12,1.12,1.26,1.32,9.32,9.32,9.33
61.57,8.16,8.16,-1.12,-1.13,1.13,1.28,1.33,9.29,9.28,9.28
62.18,8.11,8.11,-1.13,-1.13,1.14,1.28,1.34,9.24,9.24,9.24
62.80,8.06,8.06,-1.14,-1.14,1.14,1.29,1.35,9.20,9.20,9.20
63.43,8.01,8.01,-1.14,-1.14,1.15,1.29,1.36,9.15,9.15,9.15
64.07,7.96,7.96,-1.15,-1.15,1.15,1.30,1.36,9.11,9.11,9.11
64.71,7.91,7.91,-1.15,-1.15,1.15,1.29,1.36,9.06,9.06,9.06
65.35,7.86,7.86,-1.16,-1.16,1.15,1.29,1.36,9.01,9.02,9.02
66.01,7.82,7.82,-1.15,-1.16,1.15,1.28,1.35,8.97,8.97,8.97
66.67,7.77,7.77,-1.16,-1.16,1.15,1.28,1.35,8.92,8.92,8.93
67.33,7.73,7.73,-1.15,-1.15,1.15,1.27,1.33,8.88,8.88,8.88
68.01,7.68,7.68,-1.15,-1.15,1.15,1.25,1.32,8.83,8.83,8.83
68.69,7.64,7.64,-1.14,-1.14,1.15,1.24,1.30,8.78,8.78,8.78
69.37,7.59,7.59,-1.14,-1.14,1.14,1.22,1.29,8.73,8.73,8.73
70.07,7.55,7.55,-1.14,-1.13,1.13,1.20,1.27,8.68,8.68,8.68
70.77,7.50,7.50,-1.13,-1.13,1.13,1.18,1.25,8.63,8.63,8.63
71.48,7.46,7.46,-1.12,-1.12,1.12,1.16,1.22,8.58,8.58,8.58
72.19,7.41,7.41,-1.11,-1.11,1.11,1.14,1.20,8.52,8.52,8.52
72.91,7.37,7.37,-1.10,-1.10,1.10,1.12,1.17,8.47,8.47,8.47
73.64,7.32,7.32,-1.10,-1.09,1.09,1.09,1.15,8.41,8.41,8.41
74.38,7.28,7.28,-1.08,-1.08,1.08,1.06,1.12,8.36,8.36,8.35
75.12,7.24,7.23,-1.06,-1.06,1.06,1.04,1.09,8.30,8.30,8.29
75.87,7.19,7.19,-1.05,-1.05,1.05,1.01,1.06,8.24,8.24,8.24
76.63,7.15,7.15,-1.03,-1.03,1.03,0.98,1.03,8.18,8.18,8.18
77.40,7.10,7.10,-1.02,-1.02,1.02,0.95,1.00,8.11,8.12,8.11
78.17,7.06,7.06,-0.99,-1.00,1.00,0.92,0.97,8.06,8.05,8.05
78.95,7.01,7.01,-0.98,-0.98,0.98,0.89,0.95,7.99,7.99,7.99
79.74,6.97,6.97,-0.96,-0.96,0.96,0.87,0.92,7.93,7.93,7.93
80.54,6.92,6.92,-0.94,-0.94,0.94,0.84,0.89,7.86,7.86,7.86
81.35,6.88,6.88,-0.92,-0.92,0.92,0.81,0.86,7.80,7.79,7.80
82.16,6.83,6.83,-0.90,-0.90,0.90,0.78,0.83,7.72,7.73,7.73
82.98,6.79,6.79,-0.87,-0.87,0.87,0.75,0.80,7.66,7.66,7.66
83.81,6.74,6.74,-0.85,-0.85,0.85,0.72,0.77,7.59,7.59,7.59
84.65,6.70,6.70,-0.82,-0.83,0.83,0.69,0.75,7.53,7.52,7.52
85.50,6.65,6.65,-0.81,-0.81,0.81,0.66,0.72,7.45,7.45,7.46
86.35,6.60,6.60,-0.79,-0.78,0.78,0.63,0.69,7.38,7.39,7.39
87.22,6.56,6.55,-0.76,-0.76,0.76,0.61,0.67,7.32,7.31,7.31
88.09,6.51,6.51,-0.74,-0.74,0.74,0.58,0.64,7.24,7.24,7.25
88.97,6.46,6.46,-0.71,-0.71,0.71,0.55,0.62,7.17,7.17,7.17
89.86,6.42,6.42,-0.68,-0.68,0.68,0.53,0.59,7.10,7.10,7.10
90.76,6.37,6.37,-0.65,-0.66,0.66,0.50,0.57,7.03,7.03,7.02
91.66,6.32,6.32,-0.63,-0.63,0.63,0.48,0.55,6.95,6.95,6.95
92.58,6.27,6.27,-0.60,-0.60,0.60,0.46,0.52,6.87,6.87,6.87
93.51,6.22,6.22,-0.57,-0.57,0.57,0.43,0.50,6.79,6.79,6.79
94.44,6.17,6.17,-0.54,-0.54,0.54,0.41,0.48,6.71,6.71,6.71
95.39,6.12,6.12,-0.51,-0.51,0.51,0.39,0.46,6.63,6.63,6.63
96.34,6.07,6.07,-0.48,-0.47,0.47,0.37,0.44,6.54,6.54,6.54
97.30,6.02,6.02,-0.44,-0.44,0.44,0.35,0.42,6.46,6.46,6.46
98.28,5.97,5.97,-0.40,-0.40,0.40,0.33,0.40,6.37,6.37,6.37
99.26,5.92,5.92,-0.37,-0.37,0.37,0.31,0.38,6.29,6.29,6.28
100.25,5.86,5.86,-0.34,-0.33,0.34,0.30,0.36,6.19,6.20,6.20
101.25,5.81,5.81,-0.30,-0.30,0.30,0.28,0.34,6.11,6.11,6.11
102.27,5.75,5.75,-0.27,-0.27,0.27,0.26,0.32,6.02,6.02,6.02
103.29,5.70,5.70,-0.24,-0.24,0.24,0.25,0.31,5.94,5.94,5.94
104.32,5.64,5.64,-0.21,-0.21,0.21,0.23,0.29,5.85,5.85,5.85
105.37,5.58,5.58,-0.19,-0.19,0.19,0.22,0.27,5.77,5.77,5.77
106.42,5.52,5.52,-0.16,-0.16,0.16,0.21,0.26,5.68,5.68,5.68
107.48,5.46,5.46,-0.14,-0.14,0.14,0.19,0.24,5.60,5.60,5.60
108.56,5.40,5.40,-0.12,-0.12,0.12,0.18,0.23,5.52,5.52,5.51
109.64,5.34,5.34,-0.10,-0.10,0.10,0.17,0.21,5.44,5.44,5.44
110.74,5.28,5.28,-0.08,-0.08,0.08,0.16,0.20,5.36,5.36,5.36
111.85,5.22,5.21,-0.05,-0.06,0.06,0.15,0.18,5.28,5.27,5.27
112.97,5.15,5.15,-0.04,-0.04,0.04,0.14,0.17,5.19,5.19,5.19
114.10,5.08,5.08,-0.03,-0.02,0.02,0.13,0.16,5.10,5.10,5.11
115.24,5.02,5.02,-0.00,-0.00,0.00,0.12,0.14,5.02,5.02,5.02
116.39,4.95,4.95,0.02,0.01,-0.02,0.11,0.13,4.93,4.93,4.93
117.55,4.88,4.88,0.03,0.03,-0.04,0.10,0.12,4.84,4.84,4.85
118.73,4.81,4.81,0.05,0.06,-0.06,0.09,0.11,4.75,4.76,4.76
119.92,4.75,4.75,0.08,0.08,-0.08,0.08,0.10,4.67,4.67,4.67
121.12,4.68,4.68,0.10,0.10,-0.10,0.08,0.08,4.58,4.58,4.58
122.33,4.61,4.61,0.12,0.12,-0.12,0.07,0.07,4.49,4.49,4.49
123.55,4.54,4.54,0.14,0.14,-0.14,0.06,0.06,4.39,4.40,4.40
124.79,4.47,4.47,0.16,0.16,-0.16,0.06,0.05,4.30,4.31,4.31
126.03,4.41,4.40,0.18,0.18,-0.18,0.05,0.04,4.22,4.22,4.22
127.29,4.34,4.33,0.21,0.20,-0.20,0.04,0.03,4.14,4.13,4.13
128.57,4.26,4.26,0.22,0.22,-0.22,0.04,0.02,4.04,4.04,4.04
129.85,4.19,4.19,0.23,0.23,-0.23,0.03,0.01,3.96,3.96,3.96
131.15,4.12,4.12,0.25,0.24,-0.24,0.02,0.00,3.88,3.87,3.87
132.46,4.04,4.04,0.25,0.25,-0.25,0.02,-0.00,3.79,3.80,3.79
133.79,3.97,3.97,0.25,0.25,-0.25,0.01,-0.01,3.72,3.72,3.72
135.12,3.89,3.89,0.25,0.25,-0.25,0.01,-0.02,3.64,3.64,3.64
136.48,3.81,3.81,0.24,0.24,-0.24,0.00,-0.03,3.57,3.57,3.57
137.84,3.73,3.73,0.23,0.23,-0.23,-0.00,-0.04,3.50,3.50,3.50
139.22,3.65,3.65,0.22,0.22,-0.22,-0.01,-0.05,3.43,3.43,3.43
140.61,3.58,3.57,0.21,0.21,-0.21,-0.02,-0.05,3.37,3.36,3.36
142.02,3.50,3.50,0.20,0.20,-0.20,-0.02,-0.06,3.30,3.30,3.30
143.44,3.42,3.42,0.18,0.19,-0.19,-0.03,-0.07,3.23,3.23,3.23
144.87,3.35,3.34,0.18,0.17,-0.18,-0.03,-0.08,3.17,3.17,3.17
146.32,3.27,3.27,0.16,0.16,-0.16,-0.04,-0.09,3.11,3.11,3.11
147.78,3.20,3.20,0.15,0.15,-0.15,-0.04,-0.09,3.05,3.05,3.05
149.26,3.13,3.12,0.14,0.14,-0.14,-0.05,-0.10,2.99,2.99,2.99
150.75,3.05,3.05,0.12,0.12,-0.12,-0.06,-0.11,2.93,2.93,2.93
152.26,2.98,2.98,0.11,0.11,-0.11,-0.06,-0.12,2.87,2.87,2.87
153.78,2.91,2.91,0.09,0.09,-0.09,-0.07,-0.12,2.82,2.82,2.81
155.32,2.84,2.84,0.08,0.08,-0.08,-0.08,-0.13,2.76,2.76,2.76
156.88,2.77,2.77,0.06,0.06,-0.06,-0.08,-0.14,2.71,2.70,2.71
158.44,2.70,2.70,0.05,0.05,-0.05,-0.09,-0.15,2.65,2.65,2.65
160.03,2.63,2.63,0.03,0.03,-0.04,-0.10,-0.16,2.59,2.59,2.60
161.63,2.57,2.56,0.03,0.02,-0.03,-0.10,-0.16,2.54,2.54,2.54
163.24,2.50,2.50,0.02,0.02,-0.01,-0.11,-0.17,2.48,2.49,2.48
164.88,2.44,2.44,0.01,0.01,-0.00,-0.12,-0.18,2.44,2.44,2.43
166.53,2.38,2.38,-0.01,-0.01,0.01,-0.13,-0.19,2.39,2.38,2.38
168.19,2.32,2.32,-0.02,-0.02,0.02,-0.13,-0.20,2.34,2.34,2.34
169.87,2.26,2.26,-0.04,-0.03,0.03,-0.14,-0.21,2.29,2.29,2.29
171.57,2.21,2.21,-0.03,-0.04,0.04,-0.15,-0.22,2.25,2.25,2.24
173.29,2.15,2.15,-0.05,-0.05,0.05,-0.16,-0.22,2.20,2.20,2.20
175.02,2.10,2.10,-0.06,-0.06,0.06,-0.17,-0.23,2.16,2.16,2.16
176.77,2.04,2.04,-0.08,-0.07,0.07,-0.18,-0.24,2.11,2.11,2.12
178.54,2.00,1.99,-0.08,-0.08,0.08,-0.19,-0.25,2.08,2.07,2.08
180.32,1.95,1.95,-0.09,-0.09,0.08,-0.20,-0.26,2.03,2.03,2.04
182.13,1.91,1.91,-0.09,-0.09,0.09,-0.20,-0.27,1.99,2.00,2.00
183.95,1.88,1.88,-0.09,-0.09,0.08,-0.21,-0.28,1.96,1.96,1.96
185.79,1.85,1.85,-0.08,-0.08,0.08,-0.22,-0.29,1.93,1.93,1.93
187.65,1.82,1.82,-0.08,-0.07,0.08,-0.24,-0.30,1.89,1.89,1.89
189.52,1.79,1.79,-0.07,-0.07,0.07,-0.25,-0.31,1.86,1.86,1.86
191.42,1.77,1.76,-0.05,-0.06,0.06,-0.26,-0.33,1.83,1.82,1.82
193.33,1.74,1.74,-0.05,-0.05,0.05,-0.27,-0.34,1.79,1.79,1.79
195.27,1.72,1.72,-0.04,-0.04,0.04,-0.28,-0.35,1.76,1.76,1.76
197.22,1.70,1.70,-0.03,-0.03,0.03,-0.29,-0.36,1.73,1.73,1.73
199.19,1.68,1.68,-0.02,-0.02,0.02,-0.30,-0.37,1.70,1.70,1.70
201.18,1.66,1.66,-0.01,-0.01,0.01,-0.31,-0.38,1.67,1.67,1.67
203.19,1.65,1.65,0.01,0.01,-0.01,-0.33,-0.40,1.64,1.64,1.64
205.23,1.64,1.64,0.02,0.02,-0.02,-0.34,-0.41,1.62,1.62,1.62
207.28,1.63,1.63,0.04,0.04,-0.04,-0.35,-0.42,1.59,1.59,1.59
209.35,1.62,1.62,0.05,0.06,-0.06,-0.37,-0.43,1.56,1.56,1.57
211.44,1.62,1.62,0.08,0.08,-0.08,-0.38,-0.45,1.54,1.54,1.54
213.56,1.62,1.62,0.11,0.11,-0.11,-0.39,-0.46,1.51,1.51,1.51
215.69,1.62,1.62,0.13,0.13,-0.13,-0.41,-0.47,1.49,1.49,1.49
217.85,1.63,1.62,0.16,0.16,-0.16,-0.42,-0.49,1.47,1.47,1.47
220.03,1.63,1.63,0.18,0.19,-0.18,-0.44,-0.50,1.44,1.45,1.44
222.23,1.64,1.64,0.21,0.21,-0.21,-0.45,-0.51,1.43,1.43,1.42
224.45,1.65,1.65,0.24,0.24,-0.24,-0.47,-0.53,1.41,1.41,1.40
226.70,1.66,1.66,0.27,0.27,-0.27,-0.48,-0.54,1.39,1.38,1.39
228.96,1.67,1.67,0.30,0.30,-0.30,-0.50,-0.55,1.36,1.36,1.37
231.25,1.68,1.68,0.33,0.33,-0.34,-0.52,-0.57,1.34,1.34,1.35
233.57,1.70,1.69,0.37,0.37,-0.37,-0.53,-0.58,1.33,1.32,1.33
235.90,1.71,1.71,0.41,0.41,-0.41,-0.55,-0.60,1.30,1.30,1.30
238.26,1.73,1.73,0.45,0.45,-0.44,-0.57,-0.61,1.28,1.29,1.28
240.64,1.75,1.75,0.48,0.49,-0.48,-0.59,-0.62,1.27,1.27,1.26
243.05,1.77,1.77,0.52,0.52,-0.52,-0.60,-0.64,1.25,1.25,1.25
245.48,1.79,1.79,0.55,0.55,-0.55,-0.62,-0.65,1.23,1.23,1.23
247.93,1.81,1.81,0.59,0.59,-0.59,-0.64,-0.66,1.22,1.22,1.22
250.41,1.83,1.83,0.62,0.63,-0.63,-0.66,-0.68,1.20,1.21,1.21
252.92,1.86,1.86,0.66,0.66,-0.66,-0.68,-0.69,1.19,1.19,1.19
255.45,1.89,1.88,0.71,0.70,-0.70,-0.70,-0.71,1.18,1.18,1.18
258.00,1.91,1.91,0.74,0.74,-0.74,-0.72,-0.72,1.16,1.17,1.17
260.58,1.94,1.94,0.78,0.79,-0.79,-0.74,-0.73,1.15,1.15,1.16
263.19,1.97,1.97,0.83,0.83,-0.83,-0.76,-0.75,1.14,1.14,1.14
265.82,2.00,2.00,0.87,0.87,-0.87,-0.78,-0.76,1.13,1.13,1.12
268.48,2.03,2.03,0.91,0.92,-0.92,-0.81,-0.78,1.11,1.11,1.11
271.16,2.06,2.06,0.96,0.96,-0.96,-0.83,-0.79,1.10,1.10,1.09
273.87,2.09,2.09,1.00,1.01,-1.01,-0.85,-0.81,1.08,1.08,1.08
276.61,2.12,2.12,1.05,1.05,-1.05,-0.87,-0.82,1.07,1.07,1.06
279.38,2.15,2.15,1.09,1.10,-1.10,-0.90,-0.84,1.05,1.05,1.06
282.17,2.18,2.18,1.14,1.14,-1.14,-0.92,-0.86,1.04,1.04,1.04
284.99,2.22,2.21,1.18,1.18,-1.18,-0.95,-0.87,1.04,1.03,1.04
287.84,2.25,2.25,1.22,1.22,-1.23,-0.97,-0.89,1.02,1.02,1.03
290.72,2.28,2.28,1.27,1.27,-1.27,-1.00,-0.91,1.01,1.02,1.01
293.63,2.32,2.32,1.31,1.31,-1.31,-1.02,-0.93,1.01,1.01,1.00
296.57,2.35,2.35,1.35,1.35,-1.34,-1.05,-0.95,1.00,1.00,1.00
299.53,2.38,2.38,1.38,1.38,-1.38,-1.08,-0.97,1.00,1.00,1.00
302.53,2.40,2.40,1.42,1.41,-1.42,-1.10,-0.99,0.98,0.98,0.98
305.55,2.43,2.43,1.44,1.44,-1.45,-1.13,-1.01,0.98,0.98,0.99
308.61,2.45,2.45,1.48,1.48,-1.48,-1.16,-1.03,0.97,0.97,0.97
311.69,2.48,2.48,1.50,1.51,-1.51,-1.18,-1.06,0.97,0.97,0.97
314.81,2.50,2.50,1.54,1.53,-1.53,-1.21,-1.08,0.97,0.97,0.96
317.96,2.52,2.52,1.56,1.56,-1.55,-1.24,-1.11,0.97,0.96,0.96
321.14,2.53,2.53,1.57,1.58,-1.57,-1.27,-1.13,0.95,0.96,0.96
324.35,2.55,2.55,1.60,1.59,-1.59,-1.30,-1.16,0.95,0.95,0.95
327.59,2.56,2.56,1.60,1.61,-1.61,-1.33,-1.19,0.95,0.95,0.96
330.87,2.58,2.58,1.63,1.63,-1.63,-1.36,-1.22,0.95,0.95,0.95
334.18,2.59,2.59,1.64,1.64,-1.64,-1.39,-1.25,0.95,0.95,0.95
337.52,2.60,2.60,1.66,1.66,-1.65,-1.42,-1.28,0.94,0.95,0.94
340.90,2.61,2.61,1.67,1.67,-1.66,-1.45,-1.32,0.94,0.94,0.94
344.30,2.62,2.62,1.68,1.68,-1.67,-1.48,-1.35,0.94,0.94,0.94
347.75,2.63,2.63,1.68,1.68,-1.68,-1.51,-1.39,0.94,0.94,0.95
351.23,2.64,2.64,1.70,1.69,-1.69,-1.55,-1.42,0.95,0.94,0.94
354.74,2.64,2.64,1.69,1.70,-1.70,-1.58,-1.46,0.94,0.94,0.95
358.28,2.65,2.65,1.71,1.71,-1.71,-1.61,-1.50,0.94,0.94,0.94
361.87,2.66,2.66,1.71,1.72,-1.72,-1.64,-1.54,0.94,0.94,0.94
365.49,2.67,2.67,1.73,1.73,-1.73,-1.67,-1.58,0.94,0.94,0.94
369.14,2.68,2.68,1.74,1.74,-1.74,-1.70,-1.63,0.94,0.94,0.94
372.83,2.69,2.69,1.74,1.75,-1.75,-1.74,-1.67,0.94,0.94,0.94
376.56,2.70,2.70,1.76,1.76,-1.76,-1.77,-1.71,0.94,0.94,0.94
380.33,2.71,2.71,1.77,1.78,-1.77,-1.80,-1.76,0.93,0.94,0.94
384.13,2.73,2.72,1.80,1.79,-1.79,-1.83,-1.81,0.94,0.94,0.93
387.97,2.74,2.74,1.81,1.81,-1.80,-1.86,-1.85,0.94,0.94,0.93
391.85,2.75,2.75,1.81,1.82,-1.82,-1.89,-1.90,0.93,0.94,0.94
395.77,2.77,2.76,1.83,1.83,-1.83,-1.92,-1.95,0.94,0.93,0.94
399.73,2.78,2.78,1.84,1.84,-1.84,-1.95,-2.00,0.93,0.93,0.94
403.72,2.79,2.79,1.86,1.86,-1.86,-1.98,-2.05,0.93,0.93,0.93
407.76,2.81,2.81,1.88,1.87,-1.87,-2.00,-2.10,0.93,0.93,0.93
411.84,2.82,2.82,1.89,1.89,-1.89,-2.03,-2.14,0.93,0.93,0.93
415.96,2.84,2.84,1.90,1.91,-1.91,-2.06,-2.19,0.93,0.93,0.94
420.12,2.85,2.85,1.92,1.92,-1.93,-2.08,-2.24,0.92,0.92,0.92
424.32,2.87,2.87,1.95,1.94,-1.95,-2.11,-2.29,0.92,0.92,0.92
428.56,2.88,2.88,1.96,1.96,-1.96,-2.13,-2.33,0.92,0.92,0.92
432.85,2.90,2.90,1.98,1.98,-1.98,-2.15,-2.37,0.92,0.92,0.92
437.18,2.91,2.91,2.00,2.00,-1.99,-2.17,-2.42,0.92,0.92,0.91
441.55,2.92,2.92,2.01,2.01,-2.00,-2.19,-2.46,0.91,0.92,0.90
445.96,2.93,2.92,2.03,2.02,-2.01,-2.20,-2.49,0.91,0.91,0.90
450.42,2.93,2.93,2.02,2.02,-2.02,-2.22,-2.53,0.91,0.91,0.91
454.93,2.93,2.93,2.02,2.02,-2.03,-2.23,-2.56,0.90,0.90,0.91
459.48,2.94,2.94,2.03,2.03,-2.03,-2.24,-2.58,0.91,0.90,0.91
464.07,2.94,2.94,2.04,2.04,-2.04,-2.25,-2.60,0.90,0.90,0.90
468.71,2.94,2.94,2.04,2.04,-2.04,-2.26,-2.62,0.90,0.90,0.90
473.40,2.94,2.94,2.04,2.05,-2.05,-2.26,-2.63,0.89,0.89,0.89
478.13,2.95,2.95,2.06,2.05,-2.05,-2.27,-2.64,0.89,0.89,0.89
482.91,2.96,2.96,2.07,2.06,-2.06,-2.27,-2.64,0.89,0.89,0.89
487.74,2.97,2.97,2.07,2.07,-2.07,-2.26,-2.64,0.89,0.89,0.90
492.62,2.98,2.98,2.08,2.08,-2.09,-2.26,-2.63,0.89,0.90,0.90
497.55,3.00,3.00,2.10,2.10,-2.10,-2.25,-2.62,0.90,0.90,0.90
502.52,3.01,3.01,2.11,2.11,-2.11,-2.24,-2.60,0.90,0.90,0.90
507.55,3.03,3.03,2.12,2.12,-2.12,-2.22,-2.57,0.91,0.90,0.91
512.62,3.04,3.04,2.13,2.13,-2.14,-2.21,-2.54,0.90,0.91,0.91
517.75,3.06,3.06,2.14,2.14,-2.15,-2.19,-2.50,0.91,0.91,0.91
