frequency,raw,smoothed,error,error_smoothed,equalization,parametric_eq,fixed_band_eq,equalized_raw,equalized_smoothed,target
20.00,12.06,12.06,2.50,2.50,-2.51,-2.82,-1.16,9.55,9.55,9.56
20.20,12.12,12.12,2.56,2.56,-2.57,-2.83,-1.20,9.55,9.55,9.55
20.40,12.18,12.18,2.63,2.62,-2.62,-2.83,-1.23,9.56,9.56,9.55
20.61,12.23,12.23,2.67,2.68,-2.67,-2.84,-1.27,9.55,9.56,9.55
20.81,12.28,12.28,2.73,2.73,-2.72,-2.84,-1.31,9.55,9.56,9.55
21.02,12.33,12.33,2.78,2.77,-2.77,-2.85,-1.35,9.56,9.55,9.55
21.23,12.37,12.37,2.82,2.82,-2.82,-2.86,-1.39,9.55,9.55,9.55
21.44,12.41,12.41,2.86,2.86,-2.86,-2.87,-1.43,9.55,9.55,9.55
21.66,12.45,12.45,2.90,2.90,-2.90,-2.88,-1.48,9.55,9.55,9.55
21.87,12.49,12.48,2.94,2.94,-2.94,-2.89,-1.52,9.55,9.55,9.55
22.09,12.52,12.52,2.97,2.97,-2.97,-2.90,-1.57,9.54,9.55,9.55
22.31,12.55,12.55,3.00,3.01,-3.01,-2.91,-1.62,9.54,9.55,9.55
22.54,12.59,12.58,3.04,3.04,-3.04,-2.92,-1.66,9.55,9.54,9.55
22.76,12.61,12.61,3.06,3.07,-3.07,-2.94,-1.72,9.54,9.55,9.55
22.99,12.64,12.64,3.09,3.09,-3.09,-2.95,-1.77,9.55,9.55,9.54
23.22,12.66,12.66,3.12,3.11,-3.11,-2.97,-1.82,9.55,9.55,9.54
23.45,12.67,12.67,3.13,3.13,-3.13,-2.98,-1.87,9.54,9.54,9.54
23.69,12.69,12.68,3.15,3.14,-3.14,-3.00,-1.93,9.55,9.54,9.54
23.92,12.69,12.69,3.15,3.15,-3.15,-3.01,-1.98,9.54,9.54,9.54
24.16,12.70,12.70,3.16,3.16,-3.16,-3.02,-2.04,9.54,9.54,9.54
24.40,12.70,12.70,3.16,3.16,-3.16,-3.04,-2.09,9.54,9.54,9.54
24.65,12.70,12.70,3.16,3.16,-3.16,-3.05,-2.15,9.54,9.54,9.54
24.89,12.70,12.70,3.16,3.16,-3.16,-3.06,-2.21,9.54,9.53,9.53
25.14,12.69,12.69,3.15,3.16,-3.16,-3.07,-2.27,9.53,9.53,9.53
25.39,12.68,12.68,3.15,3.15,-3.15,-3.08,-2.33,9.53,9.53,9.53
25.65,12.67,12.67,3.14,3.14,-3.14,-3.08,-2.39,9.53,9.53,9.53
25.91,12.66,12.66,3.13,3.13,-3.13,-3.09,-2.44,9.53,9.53,9.53
26.16,12.64,12.64,3.11,3.11,-3.11,-3.08,-2.50,9.53,9.53,9.53
26.43,12.62,12.62,3.09,3.09,-3.09,-3.08,-2.56,9.53,9.53,9.53
26.69,12.59,12.59,3.06,3.07,-3.07,-3.07,-2.61,9.52,9.52,9.52
26.96,12.57,12.57,3.05,3.04,-3.04,-3.06,-2.67,9.52,9.52,9.52
27.23,12.54,12.54,3.02,3.02,-3.02,-3.04,-2.72,9.52,9.52,9.52
27.50,12.51,12.51,2.99,2.99,-2.99,-3.02,-2.77,9.52,9.52,9.52
27.77,12.47,12.47,2.95,2.96,-2.96,-2.99,-2.82,9.51,9.52,9.52
28.05,12.44,12.44,2.92,2.92,-2.92,-2.97,-2.87,9.51,9.51,9.51
28.33,12.41,12.40,2.90,2.89,-2.89,-2.93,-2.91,9.52,9.51,9.51
28.62,12.37,12.37,2.86,2.86,-2.86,-2.90,-2.95,9.51,9.51,9.51
28.90,12.33,12.33,2.82,2.82,-2.82,-2.85,-2.98,9.51,9.51,9.51
29.19,12.29,12.29,2.78,2.78,-2.78,-2.81,-3.02,9.50,9.50,9.51
29.48,12.25,12.25,2.74,2.74,-2.75,-2.77,-3.04,9.50,9.50,9.50
29.78,12.21,12.21,2.71,2.71,-2.71,-2.72,-3.07,9.50,9.50,9.50
30.08,12.17,12.17,2.67,2.67,-2.67,-2.67,-3.08,9.50,9.50,9.50
30.38,12.13,12.13,2.63,2.63,-2.63,-2.62,-3.10,9.50,9.50,9.50
30.68,12.09,12.09,2.60,2.59,-2.59,-2.57,-3.10,9.50,9.49,9.49
30.99,12.04,12.04,2.55,2.55,-2.55,-2.52,-3.10,9.49,9.49,9.49
31.30,12.00,12.00,2.51,2.51,-2.51,-2.46,-3.10,9.49,9.49,9.49
31.61,11.95,11.95,2.46,2.46,-2.47,-2.41,-3.09,9.48,9.48,9.48
31.93,11.90,11.90,2.42,2.42,-2.42,-2.36,-3.07,9.48,9.48,9.48
32.24,11.86,11.86,2.38,2.38,-2.38,-2.31,-3.05,9.48,9.48,9.48
32.57,11.81,11.81,2.34,2.33,-2.33,-2.25,-3.03,9.48,9.48,9.47
32.89,11.76,11.76,2.29,2.29,-2.28,-2.20,-3.00,9.47,9.47,9.47
33.22,11.70,11.70,2.23,2.24,-2.24,-2.15,-2.96,9.46,9.47,9.47
33.55,11.65,11.65,2.19,2.19,-2.19,-2.10,-2.92,9.46,9.46,9.46
33.89,11.60,11.59,2.14,2.14,-2.14,-2.05,-2.87,9.46,9.46,9.46
34.23,11.54,11.54,2.08,2.08,-2.08,-2.00,-2.82,9.45,9.45,9.45
34.57,11.48,11.48,2.03,2.03,-2.03,-1.95,-2.77,9.45,9.45,9.45
34.92,11.42,11.42,1.97,1.98,-1.98,-1.90,-2.71,9.44,9.44,9.45
35.27,11.37,11.37,1.93,1.93,-1.92,-1.85,-2.65,9.45,9.44,9.44
35.62,11.31,11.31,1.87,1.87,-1.87,-1.80,-2.59,9.44,9.44,9.44
35.97,11.25,11.25,1.82,1.82,-1.81,-1.75,-2.53,9.43,9.43,9.43
36.33,11.18,11.18,1.75,1.76,-1.76,-1.71,-2.46,9.42,9.42,9.43
36.70,11.12,11.12,1.70,1.70,-1.70,-1.66,-2.39,9.42,9.42,9.42
37.06,11.06,11.06,1.64,1.64,-1.65,-1.61,-2.32,9.41,9.41,9.41
37.43,11.00,11.00,1.59,1.59,-1.59,-1.57,-2.25,9.41,9.41,9.41
37.81,10.94,10.94,1.54,1.54,-1.53,-1.52,-2.18,9.41,9.40,9.40
38.19,10.88,10.88,1.48,1.48,-1.48,-1.47,-2.10,9.40,9.40,9.40
38.57,10.81,10.81,1.42,1.42,-1.42,-1.43,-2.03,9.39,9.39,9.39
38.95,10.75,10.75,1.37,1.37,-1.37,-1.38,-1.96,9.38,9.38,9.38
39.34,10.69,10.69,1.31,1.31,-1.32,-1.33,-1.88,9.37,9.37,9.38
39.74,10.63,10.63,1.26,1.26,-1.26,-1.29,-1.81,9.37,9.37,9.37
40.14,10.57,10.57,1.21,1.21,-1.21,-1.24,-1.73,9.36,9.36,9.36
40.54,10.51,10.51,1.16,1.16,-1.15,-1.19,-1.66,9.36,9.36,9.35
40.94,10.45,10.45,1.10,1.10,-1.10,-1.14,-1.59,9.35,9.35,9.34
41.35,10.38,10.38,1.04,1.05,-1.05,-1.10,-1.52,9.33,9.33,9.34
41.76,10.32,10.32,0.99,0.99,-0.99,-1.05,-1.44,9.32,9.32,9.33
42.18,10.26,10.26,0.94,0.94,-0.94,-1.00,-1.37,9.32,9.32,9.32
42.60,10.20,10.20,0.89,0.89,-0.89,-0.95,-1.30,9.31,9.31,9.31
43.03,10.14,10.14,0.84,0.84,-0.84,-0.90,-1.23,9.30,9.30,9.30
43.46,10.08,10.08,0.79,0.79,-0.78,-0.85,-1.16,9.29,9.29,9.29
43.90,10.01,10.01,0.73,0.73,-0.73,-0.80,-1.09,9.28,9.28,9.28
44.33,9.95,9.95,0.68,0.68,-0.68,-0.75,-1.03,9.26,9.27,9.27
44.78,9.89,9.89,0.63,0.63,-0.63,-0.70,-0.96,9.26,9.25,9.26
45.23,9.83,9.83,0.58,0.58,-0.58,-0.65,-0.89,9.25,9.24,9.24
45.68,9.77,9.77,0.54,0.54,-0.53,-0.60,-0.83,9.23,9.23,9.23
46.13,9.71,9.71,0.49,0.49,-0.49,-0.55,-0.76,9.22,9.22,9.22
46.60,9.65,9.65,0.44,0.44,-0.44,-0.50,-0.70,9.21,9.21,9.21
47.06,9.59,9.59,0.39,0.39,-0.40,-0.44,-0.64,9.19,9.19,9.19
47.53,9.53,9.53,0.35,0.35,-0.35,-0.39,-0.58,9.18,9.18,9.18
48.01,9.47,9.47,0.30,0.31,-0.31,-0.34,-0.52,9.16,9.17,9.17
48.49,9.42,9.42,0.27,0.26,-0.26,-0.29,-0.46,9.16,9.15,9.15
48.97,9.36,9.36,0.22,0.22,-0.22,-0.23,-0.40,9.14,9.14,9.14
49.46,9.30,9.30,0.18,0.18,-0.18,-0.18,-0.34,9.12,9.12,9.12
49.96,9.24,9.24,0.13,0.14,-0.14,-0.13,-0.28,9.10,9.10,9.10
50.46,9.18,9.18,0.09,0.09,-0.10,-0.08,-0.23,9.08,9.08,9.09
50.96,9.13,9.13,0.06,0.06,-0.06,-0.03,-0.17,9.07,9.07,9.07
51.47,9.07,9.07,0.02,0.02,-0.02,0.02,-0.12,9.05,9.05,9.05
51.99,9.02,9.02,-0.01,-0.02,0.02,0.07,-0.06,9.04,9.03,9.03
52.51,8.96,8.96,-0.05,-0.05,0.05,0.12,-0.01,9.01,9.01,9.01
53.03,8.91,8.91,-0.08,-0.09,0.09,0.16,0.04,9.00,8.99,8.99
53.56,8.85,8.85,-0.12,-0.12,0.12,0.21,0.09,8.97,8.97,8.97
54.10,8.80,8.80,-0.15,-0.15,0.15,0.25,0.14,8.95,8.95,8.95
54.64,8.75,8.75,-0.18,-0.18,0.18,0.29,0.18,8.93,8.93,8.93
55.18,8.70,8.70,-0.21,-0.21,0.21,0.33,0.23,8.91,8.91,8.91
55.74,8.65,8.65,-0.23,-0.24,0.24,0.36,0.27,8.89,8.89,8.88
56.29,8.60,8.59,-0.26,-0.27,0.26,0.39,0.31,8.86,8.86,8.86
56.86,8.54,8.54,-0.30,-0.29,0.29,0.42,0.35,8.83,8.83,8.83
57.42,8.49,8.49,-0.32,-0.32,0.31,0.45,0.39,8.80,8.81,8.81
58.00,8.45,8.44,-0.33,-0.34,0.34,0.47,0.43,8.79,8.78,8.78
58.58,8.40,8.40,-0.36,-0.36,0.36,0.49,0.46,8.76,8.76,8.76
59.16,8.35,8.35,-0.38,-0.38,0.38,0.51,0.49,8.73,8.73,8.73
59.76,8.30,8.30,-0.40,-0.40,0.40,0.53,0.52,8.70,8.70,8.70
60.35,8.25,8.25,-0.42,-0.42,0.42,0.54,0.55,8.67,8.67,8.67
60.96,8.20,8.20,-0.44,-0.44,0.44,0.55,0.57,8.63,8.64,8.64
61.57,8.16,8.16,-0.45,-0.45,0.45,0.56,0.59,8.61,8.61,8.61
62.18,8.11,8.11,-0.47,-0.47,0.47,0.56,0.61,8.58,8.58,8.57
62.80,8.06,8.06,-0.48,-0.48,0.48,0.57,0.63,8.54,8.54,8.54
63.43,8.01,8.01,-0.50,-0.50,0.50,0.57,0.64,8.51,8.51,8.51
64.07,7.96,7.96,-0.51,-0.51,0.51,0.57,0.65,8.47,8.47,8.47
64.71,7.91,7.91,-0.53,-0.53,0.52,0.56,0.66,8.43,8.43,8.44
65.35,7.86,7.86,-0.54,-0.54,0.53,0.56,0.67,8.39,8.40,8.40
66.01,7.82,7.82,-0.54,-0.54,0.54,0.55,0.68,8.36,8.36,8.36
66.67,7.77,7.77,-0.55,-0.55,0.55,0.55,0.68,8.32,8.32,8.32
67.33,7.73,7.73,-0.55,-0.55,0.56,0.54,0.68,8.28,8.28,8.28
68.01,7.68,7.68,-0.56,-0.56,0.56,0.53,0.68,8.24,8.24,8.24
68.69,7.64,7.64,-0.56,-0.56,0.56,0.52,0.68,8.20,8.20,8.20
69.37,7.59,7.59,-0.57,-0.56,0.56,0.51,0.67,8.15,8.15,8.16
70.07,7.55,7.55,-0.56,-0.56,0.57,0.50,0.67,8.11,8.11,8.11
70.77,7.50,7.50,-0.57,-0.57,0.57,0.49,0.66,8.06,8.07,8.07
71.48,7.46,7.46,-0.56,-0.56,0.56,0.48,0.65,8.02,8.02,8.02
72.19,7.41,7.41,-0.56,-0.56,0.56,0.48,0.64,7.97,7.97,7.97
72.91,7.37,7.37,-0.56,-0.56,0.56,0.47,0.63,7.93,7.92,7.92
73.64,7.32,7.32,-0.56,-0.55,0.55,0.46,0.62,7.87,7.87,7.88
74.38,7.28,7.28,-0.55,-0.55,0.55,0.45,0.61,7.82,7.82,7.82
75.12,7.24,7.23,-0.54,-0.54,0.54,0.44,0.60,7.78,7.77,7.77
75.87,7.19,7.19,-0.53,-0.53,0.53,0.43,0.59,7.72,7.72,7.72
76.63,7.15,7.15,-0.52,-0.52,0.52,0.42,0.57,7.67,7.67,7.67
77.40,7.10,7.10,-0.52,-0.51,0.51,0.41,0.56,7.61,7.61,7.61
78.17,7.06,7.06,-0.50,-0.50,0.50,0.41,0.55,7.56,7.56,7.56
78.95,7.01,7.01,-0.49,-0.49,0.49,0.40,0.53,7.50,7.50,7.50
79.74,6.97,6.97,-0.48,-0.48,0.48,0.39,0.52,7.45,7.44,7.44
80.54,6.92,6.92,-0.47,-0.47,0.47,0.38,0.50,7.38,7.39,7.39
81.35,6.88,6.88,-0.45,-0.45,0.45,0.38,0.49,7.33,7.33,7.33
82.16,6.83,6.83,-0.44,-0.44,0.44,0.37,0.48,7.26,7.27,7.27
82.98,6.79,6.79,-0.42,-0.42,0.42,0.36,0.46,7.21,7.21,7.21
83.81,6.74,6.74,-0.41,-0.40,0.40,0.36,0.45,7.14,7.15,7.14
84.65,6.70,6.70,-0.38,-0.39,0.39,0.35,0.44,7.09,7.08,7.08
85.50,6.65,6.65,-0.37,-0.37,0.37,0.34,0.43,7.02,7.02,7.02
86.35,6.60,6.60,-0.35,-0.35,0.35,0.34,0.41,6.95,6.95,6.95
87.22,6.56,6.55,-0.33,-0.33,0.33,0.33,0.40,6.89,6.89,6.89
88.09,6.51,6.51,-0.31,-0.31,0.31,0.32,0.39,6.82,6.82,6.82
88.97,6.46,6.46,-0.30,-0.29,0.29,0.31,0.38,6.75,6.76,6.76
89.86,6.42,6.42,-0.27,-0.27,0.27,0.30,0.37,6.69,6.69,6.69
90.76,6.37,6.37,-0.25,-0.25,0.25,0.29,0.36,6.62,6.62,6.62
91.66,6.32,6.32,-0.23,-0.23,0.23,0.28,0.35,6.55,6.55,6.55
92.58,6.27,6.27,-0.21,-0.21,0.21,0.27,0.34,6.48,6.48,6.48
93.51,6.22,6.22,-0.19,-0.19,0.19,0.26,0.33,6.41,6.41,6.41
94.44,6.17,6.17,-0.17,-0.17,0.17,0.25,0.32,6.34,6.34,6.34
95.39,6.12,6.12,-0.15,-0.15,0.15,0.24,0.31,6.27,6.27,6.27
96.34,6.07,6.07,-0.13,-0.13,0.13,0.22,0.30,6.20,6.20,6.20
97.30,6.02,6.02,-0.11,-0.11,0.11,0.21,0.30,6.13,6.13,6.13
98.28,5.97,5.97,-0.09,-0.09,0.09,0.19,0.29,6.06,6.06,6.06
99.26,5.92,5.92,-0.07,-0.07,0.07,0.18,0.28,5.99,5.99,5.98
100.25,5.86,5.86,-0.05,-0.05,0.05,0.16,0.27,5.91,5.91,5.91
101.25,5.81,5.81,-0.03,-0.03,0.03,0.14,0.27,5.84,5.84,5.84
102.27,5.75,5.75,-0.02,-0.02,0.02,0.12,0.26,5.76,5.77,5.77
103.29,5.70,5.70,0.00,0.00,-0.00,0.10,0.26,5.70,5.70,5.69
104.32,5.64,5.64,0.02,0.02,-0.02,0.08,0.25,5.62,5.62,5.62
105.37,5.58,5.58,0.03,0.03,-0.03,0.06,0.24,5.55,5.55,5.55
106.42,5.52,5.52,0.04,0.04,-0.05,0.04,0.24,5.47,5.47,5.47
107.48,5.46,5.46,0.06,0.06,-0.06,0.02,0.23,5.40,5.40,5.40
108.56,5.40,5.40,0.07,0.07,-0.07,-0.01,0.23,5.33,5.33,5.33
109.64,5.34,5.34,0.08,0.08,-0.08,-0.03,0.22,5.26,5.26,5.26
110.74,5.28,5.28,0.09,0.10,-0.09,-0.05,0.22,5.19,5.19,5.18
111.85,5.22,5.21,0.11,0.10,-0.10,-0.07,0.21,5.12,5.11,5.11
112.97,5.15,5.15,0.11,0.11,-0.11,-0.09,0.21,5.04,5.04,5.04
114.10,5.08,5.08,0.11,0.12,-0.12,-0.11,0.21,4.96,4.97,4.97
115.24,5.02,5.02,0.12,0.12,-0.12,-0.13,0.20,4.90,4.90,4.90
116.39,4.95,4.95,0.12,0.12,-0.12,-0.15,0.20,4.82,4.82,4.83
117.55,4.88,4.88,0.12,0.12,-0.13,-0.16,0.19,4.75,4.75,4.75
118.73,4.81,4.81,0.12,0.13,-0.13,-0.17,0.19,4.68,4.68,4.68
119.92,4.75,4.75,0.13,0.13,-0.13,-0.18,0.18,4.62,4.62,4.62
121.12,4.68,4.68,0.13,0.13,-0.13,-0.19,0.18,4.55,4.55,4.55
122.33,4.61,4.61,0.13,0.13,-0.13,-0.19,0.18,4.48,4.48,4.48
123.55,4.54,4.54,0.13,0.13,-0.13,-0.19,0.17,4.41,4.41,4.41
124.79,4.47,4.47,0.12,0.13,-0.13,-0.18,0.17,4.34,4.34,4.34
126.03,4.41,4.40,0.13,0.13,-0.13,-0.18,0.16,4.28,4.28,4.28
127.29,4.34,4.33,0.13,0.12,-0.12,-0.16,0.16,4.22,4.21,4.21
128.57,4.26,4.26,0.11,0.12,-0.11,-0.15,0.15,4.14,4.15,4.15
129.85,4.19,4.19,0.10,0.10,-0.11,-0.13,0.15,4.08,4.08,4.08
131.15,4.12,4.12,0.10,0.09,-0.09,-0.11,0.14,4.02,4.02,4.02
132.46,4.04,4.04,0.08,0.08,-0.08,-0.09,0.14,3.96,3.96,3.96
133.79,3.97,3.97,0.07,0.07,-0.07,-0.06,0.14,3.90,3.90,3.90
135.12,3.89,3.89,0.05,0.05,-0.05,-0.03,0.13,3.84,3.84,3.84
136.48,3.81,3.81,0.03,0.03,-0.03,-0.01,0.13,3.78,3.78,3.78
137.84,3.73,3.73,0.01,0.01,-0.01,0.02,0.12,3.72,3.72,3.72
139.22,3.65,3.65,-0.01,-0.01,0.01,0.06,0.12,3.66,3.66,3.66
140.61,3.58,3.57,-0.03,-0.03,0.03,0.09,0.11,3.61,3.60,3.60
142.02,3.50,3.50,-0.05,-0.05,0.05,0.12,0.11,3.55,3.55,3.55
143.44,3.42,3.42,-0.08,-0.07,0.07,0.15,0.10,3.49,3.50,3.49
144.87,3.35,3.34,-0.09,-0.10,0.10,0.18,0.10,3.45,3.44,3.44
146.32,3.27,3.27,-0.12,-0.12,0.12,0.21,0.09,3.39,3.39,3.39
147.78,3.20,3.20,-0.15,-0.15,0.15,0.24,0.09,3.34,3.34,3.35
149.26,3.13,3.12,-0.17,-0.17,0.17,0.27,0.08,3.30,3.29,3.30
150.75,3.05,3.05,-0.20,-0.20,0.19,0.30,0.08,3.24,3.25,3.25
152.26,2.98,2.98,-0.22,-0.22,0.22,0.33,0.07,3.20,3.20,3.20
153.78,2.91,2.91,-0.24,-0.24,0.24,0.36,0.07,3.15,3.15,3.15
155.32,2.84,2.84,-0.27,-0.27,0.27,0.38,0.06,3.11,3.11,3.10
156.88,2.77,2.77,-0.29,-0.29,0.29,0.40,0.06,3.06,3.06,3.06
158.44,2.70,2.70,-0.32,-0.31,0.31,0.42,0.05,3.01,3.01,3.01
160.03,2.63,2.63,-0.34,-0.34,0.34,0.44,0.05,2.96,2.97,2.97
161.63,2.57,2.56,-0.35,-0.36,0.36,0.46,0.05,2.93,2.92,2.92
163.24,2.50,2.50,-0.38,-0.38,0.38,0.48,0.04,2.88,2.88,2.88
164.88,2.44,2.44,-0.40,-0.40,0.40,0.49,0.04,2.84,2.84,2.84
166.53,2.38,2.38,-0.42,-0.42,0.42,0.51,0.03,2.80,2.80,2.80
168.19,2.32,2.32,-0.44,-0.44,0.44,0.52,0.03,2.76,2.76,2.76
169.87,2.26,2.26,-0.46,-0.46,0.46,0.53,0.02,2.72,2.72,2.72
171.57,2.21,2.21,-0.48,-0.48,0.48,0.54,0.02,2.69,2.69,2.69
173.29,2.15,2.15,-0.50,-0.50,0.50,0.55,0.01,2.65,2.65,2.65
175.02,2.10,2.10,-0.52,-0.52,0.52,0.56,0.01,2.62,2.62,2.62
176.77,2.04,2.04,-0.54,-0.54,0.54,0.56,0.00,2.58,2.58,2.58
178.54,2.00,1.99,-0.55,-0.56,0.55,0.57,-0.00,2.55,2.55,2.55
180.32,1.95,1.95,-0.57,-0.57,0.56,0.57,-0.01,2.51,2.51,2.52
182.13,1.91,1.91,-0.58,-0.57,0.57,0.57,-0.01,2.48,2.48,2.49
183.95,1.88,1.88,-0.58,-0.58,0.58,0.57,-0.01,2.46,2.46,2.46
185.79,1.85,1.85,-0.58,-0.58,0.58,0.57,-0.02,2.43,2.43,2.43
187.65,1.82,1.82,-0.58,-0.58,0.58,0.57,-0.02,2.40,2.40,2.40
189.52,1.79,1.79,-0.58,-0.58,0.58,0.57,-0.03,2.37,2.37,2.37
191.42,1.77,1.76,-0.58,-0.58,0.58,0.56,-0.03,2.35,2.35,2.35
193.33,1.74,1.74,-0.58,-0.58,0.58,0.56,-0.04,2.32,2.32,2.32
195.27,1.72,1.72,-0.58,-0.58,0.58,0.55,-0.04,2.30,2.30,2.29
197.22,1.70,1.70,-0.57,-0.57,0.57,0.54,-0.05,2.27,2.27,2.27
199.19,1.68,1.68,-0.57,-0.57,0.57,0.53,-0.05,2.25,2.25,2.25
201.18,1.66,1.66,-0.56,-0.56,0.56,0.52,-0.06,2.22,2.22,2.22
203.19,1.65,1.65,-0.55,-0.55,0.55,0.51,-0.06,2.20,2.20,2.20
205.23,1.64,1.64,-0.54,-0.54,0.54,0.50,-0.07,2.18,2.18,2.18
207.28,1.63,1.63,-0.53,-0.53,0.53,0.49,-0.07,2.16,2.16,2.16
209.35,1.62,1.62,-0.52,-0.52,0.52,0.47,-0.08,2.14,2.14,2.14
211.44,1.62,1.62,-0.50,-0.50,0.50,0.46,-0.08,2.12,2.12,2.12
213.56,1.62,1.62,-0.48,-0.48,0.48,0.44,-0.09,2.10,2.10,2.10
215.69,1.62,1.62,-0.46,-0.46,0.46,0.42,-0.09,2.08,2.08,2.08
217.85,1.63,1.62,-0.44,-0.44,0.44,0.40,-0.10,2.07,2.07,2.06
220.03,1.63,1.63,-0.42,-0.42,0.42,0.38,-0.10,2.05,2.05,2.05
222.23,1.64,1.64,-0.39,-0.39,0.39,0.35,-0.11,2.03,2.03,2.03
224.45,1.65,1.65,-0.37,-0.37,0.37,0.33,-0.11,2.02,2.02,2.01
226.70,1.66,1.66,-0.34,-0.34,0.34,0.30,-0.12,2.00,2.00,2.00
228.96,1.67,1.67,-0.32,-0.32,0.31,0.27,-0.12,1.98,1.98,1.98
231.25,1.68,1.68,-0.29,-0.29,0.29,0.24,-0.13,1.96,1.97,1.97
233.57,1.70,1.69,-0.26,-0.26,0.26,0.21,-0.14,1.95,1.95,1.96
235.90,1.71,1.71,-0.22,-0.23,0.23,0.18,-0.14,1.93,1.94,1.93
238.26,1.73,1.73,-0.19,-0.19,0.19,0.15,-0.15,1.92,1.92,1.92
240.64,1.75,1.75,-0.16,-0.16,0.16,0.12,-0.15,1.91,1.91,1.91
243.05,1.77,1.77,-0.13,-0.13,0.13,0.08,-0.16,1.90,1.90,1.89
245.48,1.79,1.79,-0.09,-0.10,0.10,0.04,-0.17,1.88,1.88,1.88
247.93,1.81,1.81,-0.06,-0.06,0.06,0.01,-0.17,1.87,1.87,1.87
250.41,1.83,1.83,-0.03,-0.03,0.03,-0.03,-0.18,1.86,1.86,1.86
252.92,1.86,1.86,0.01,0.00,-0.00,-0.07,-0.19,1.85,1.85,1.85
255.45,1.89,1.88,0.04,0.04,-0.04,-0.11,-0.19,1.85,1.85,1.85
258.00,1.91,1.91,0.07,0.07,-0.07,-0.15,-0.20,1.83,1.84,1.84
260.58,1.94,1.94,0.11,0.11,-0.11,-0.19,-0.21,1.83,1.83,1.83
263.19,1.97,1.97,0.15,0.15,-0.15,-0.23,-0.22,1.82,1.82,1.82
265.82,2.00,2.00,0.19,0.19,-0.19,-0.26,-0.22,1.81,1.81,1.81
268.48,2.03,2.03,0.22,0.22,-0.22,-0.30,-0.23,1.81,1.81,1.80
271.16,2.06,2.06,0.26,0.26,-0.26,-0.34,-0.24,1.80,1.80,1.80
273.87,2.09,2.09,0.30,0.30,-0.30,-0.38,-0.25,1.79,1.79,1.79
276.61,2.12,2.12,0.34,0.34,-0.34,-0.42,-0.26,1.78,1.78,1.78
279.38,2.15,2.15,0.38,0.38,-0.38,-0.46,-0.27,1.77,1.77,1.77
282.17,2.18,2.18,0.41,0.41,-0.41,-0.49,-0.28,1.77,1.77,1.77
284.99,2.22,2.21,0.45,0.45,-0.45,-0.53,-0.29,1.77,1.77,1.77
287.84,2.25,2.25,0.48,0.48,-0.48,-0.56,-0.30,1.77,1.77,1.77
290.72,2.28,2.28,0.51,0.52,-0.52,-0.60,-0.31,1.76,1.77,1.77
293.63,2.32,2.32,0.56,0.55,-0.55,-0.63,-0.32,1.77,1.77,1.76
296.57,2.35,2.35,0.58,0.58,-0.58,-0.66,-0.33,1.77,1.77,1.76
299.53,2.38,2.38,0.61,0.61,-0.61,-0.69,-0.34,1.77,1.77,1.77
302.53,2.40,2.40,0.64,0.64,-0.64,-0.72,-0.35,1.76,1.76,1.76
305.55,2.43,2.43,0.66,0.66,-0.67,-0.75,-0.37,1.76,1.76,1.77
308.61,2.45,2.45,0.69,0.69,-0.69,-0.78,-0.38,1.76,1.76,1.76
311.69,2.48,2.48,0.71,0.71,-0.71,-0.80,-0.39,1.77,1.77,1.77
314.81,2.50,2.50,0.74,0.73,-0.73,-0.82,-0.41,1.77,1.77,1.76
317.96,2.52,2.52,0.75,0.75,-0.75,-0.85,-0.42,1.77,1.77,1.77
321.14,2.53,2.53,0.76,0.76,-0.76,-0.87,-0.43,1.77,1.77,1.76
324.35,2.55,2.55,0.78,0.77,-0.78,-0.89,-0.45,1.77,1.77,1.77
327.59,2.56,2.56,0.77,0.78,-0.79,-0.90,-0.47,1.77,1.77,1.79
330.87,2.58,2.58,0.80,0.79,-0.80,-0.92,-0.48,1.78,1.78,1.78
334.18,2.59,2.59,0.80,0.80,-0.80,-0.93,-0.50,1.78,1.78,1.79
337.52,2.60,2.60,0.81,0.81,-0.81,-0.95,-0.52,1.79,1.79,1.78
340.90,2.61,2.61,0.82,0.82,-0.82,-0.96,-0.53,1.79,1.79,1.79
344.30,2.62,2.62,0.82,0.83,-0.82,-0.97,-0.55,1.80,1.80,1.80
347.75,2.63,2.63,0.83,0.83,-0.83,-0.97,-0.57,1.80,1.80,1.80
351.23,2.64,2.64,0.84,0.83,-0.83,-0.98,-0.59,1.81,1.81,1.80
354.74,2.64,2.64,0.82,0.83,-0.83,-0.99,-0.61,1.81,1.81,1.82
358.28,2.65,2.65,0.83,0.83,-0.83,-0.99,-0.63,1.81,1.81,1.81
361.87,2.66,2.66,0.84,0.84,-0.84,-0.99,-0.65,1.82,1.82,1.82
365.49,2.67,2.67,0.84,0.84,-0.84,-0.99,-0.67,1.83,1.83,1.83
369.14,2.68,2.68,0.85,0.85,-0.85,-0.99,-0.70,1.83,1.83,1.83
372.83,2.69,2.69,0.85,0.85,-0.85,-0.98,-0.72,1.84,1.84,1.84
376.56,2.70,2.70,0.86,0.86,-0.86,-0.98,-0.74,1.84,1.84,1.84
380.33,2.71,2.71,0.86,0.87,-0.86,-0.97,-0.77,1.85,1.85,1.85
384.13,2.73,2.72,0.88,0.87,-0.87,-0.96,-0.79,1.86,1.86,1.85
387.97,2.74,2.74,0.87,0.87,-0.87,-0.95,-0.81,1.87,1.87,1.86
391.85,2.75,2.75,0.87,0.88,-0.88,-0.94,-0.84,1.87,1.87,1.88
395.77,2.77,2.76,0.89,0.88,-0.89,-0.92,-0.86,1.88,1.88,1.88
399.73,2.78,2.78,0.89,0.89,-0.89,-0.91,-0.89,1.89,1.89,1.89
403.72,2.79,2.79,0.89,0.90,-0.90,-0.89,-0.91,1.89,1.89,1.90
407.76,2.81,2.81,0.91,0.91,-0.91,-0.87,-0.93,1.90,1.90,1.89
411.84,2.82,2.82,0.92,0.92,-0.92,-0.85,-0.96,1.90,1.90,1.90
415.96,2.84,2.84,0.93,0.93,-0.93,-0.83,-0.98,1.91,1.91,1.91
420.12,2.85,2.85,0.94,0.94,-0.94,-0.81,-1.00,1.91,1.91,1.91
424.32,2.87,2.87,0.95,0.95,-0.95,-0.78,-1.02,1.92,1.92,1.92
428.56,2.88,2.88,0.95,0.96,-0.96,-0.76,-1.05,1.92,1.93,1.93
432.85,2.90,2.90,0.96,0.96,-0.96,-0.73,-1.06,1.94,1.94,1.93
437.18,2.91,2.91,0.97,0.97,-0.96,-0.70,-1.08,1.95,1.95,1.94
441.55,2.92,2.92,0.97,0.97,-0.96,-0.67,-1.10,1.96,1.96,1.95
445.96,2.93,2.92,0.97,0.96,-0.96,-0.64,-1.11,1.97,1.97,1.96
450.42,2.93,2.93,0.95,0.95,-0.96,-0.61,-1.13,1.97,1.97,1.98
454.93,2.93,2.93,0.94,0.95,-0.95,-0.58,-1.14,1.98,1.98,1.99
459.48,2.94,2.94,0.94,0.94,-0.94,-0.54,-1.15,1.99,1.99,2.00
464.07,2.94,2.94,0.94,0.94,-0.94,-0.51,-1.15,2.00,2.00,2.00
468.71,2.94,2.94,0.93,0.93,-0.93,-0.47,-1.16,2.01,2.01,2.00
473.40,2.94,2.94,0.92,0.93,-0.93,-0.44,-1.16,2.01,2.01,2.01
478.13,2.95,2.95,0.93,0.92,-0.92,-0.40,-1.15,2.02,2.02,2.02
482.91,2.96,2.96,0.92,0.92,-0.92,-0.36,-1.15,2.04,2.03,2.04
487.74,2.97,2.97,0.92,0.92,-0.92,-0.32,-1.14,2.05,2.05,2.05
492.62,2.98,2.98,0.92,0.92,-0.92,-0.28,-1.13,2.05,2.06,2.06
497.55,3.00,3.00,0.93,0.93,-0.93,-0.24,-1.11,2.07,2.07,2.07
502.52,3.01,3.01,0.93,0.93,-0.93,-0.19,-1.09,2.08,2.08,2.08
507.55,3.03,3.03,0.93,0.93,-0.93,-0.15,-1.07,2.10,2.09,2.10
512.62,3.04,3.04,0.93,0.94,-0.94,-0.11,-1.04,2.10,2.11,2.11
517.75,3.06,3.06,0.94,0.94,-0.94,-0.06,-1.01,2.12,2.12,2.12
522.93,3.07,3.07,0.93,0.93,-0.94,-0.02,-0.98,2.13,2.13,2.13
528.16,3.07,3.07,0.92,0.93,-0.93,0.03,-0.94,2.14,2.14,2.14
533.44,3.08,3.08,0.93,0.93,-0.92,0.07,-0.90,2.15,2.15,2.15
538.77,3.08,3.08,0.93,0.92,-0.91,0.12,-0.85,2.17,2.16,2.15
544.16,3.07,3.07,0.90,0.90,-0.89,0.17,-0.81,2.18,2.18,2.17
