frequency,raw,smoothed,error,error_smoothed,equalization,parametric_eq,fixed_band_eq,equalized_raw,equalized_smoothed,target
20.00,13.04,13.03,10.92,10.91,-10.95,-6.60,-3.95,2.09,2.08,2.12
20.20,13.03,13.04,10.86,10.87,-10.88,-6.60,-4.06,2.15,2.16,2.17
20.40,13.02,13.03,10.80,10.82,-10.81,-6.59,-4.16,2.21,2.22,2.22
20.61,13.02,13.02,10.77,10.77,-10.75,-6.59,-4.28,2.28,2.28,2.25
20.81,13.01,13.01,10.71,10.71,-10.68,-6.59,-4.39,2.33,2.33,2.30
21.02,12.99,12.98,10.65,10.65,-10.62,-6.58,-4.51,2.37,2.36,2.34
21.23,12.93,12.93,10.58,10.58,-10.55,-6.58,-4.63,2.38,2.38,2.36
21.44,12.87,12.87,10.49,10.50,-10.49,-6.58,-4.76,2.38,2.38,2.38
21.66,12.81,12.81,10.42,10.42,-10.43,-6.58,-4.89,2.39,2.38,2.40
21.87,12.75,12.75,10.35,10.34,-10.36,-6.57,-5.02,2.39,2.39,2.41
22.09,12.70,12.70,10.28,10.28,-10.30,-6.57,-5.16,2.40,2.40,2.42
22.31,12.66,12.66,10.23,10.23,-10.25,-6.57,-5.30,2.41,2.41,2.43
22.54,12.63,12.63,10.20,10.20,-10.21,-6.56,-5.44,2.43,2.42,2.43
22.76,12.60,12.60,10.17,10.17,-10.17,-6.56,-5.59,2.43,2.43,2.43
22.99,12.56,12.56,10.14,10.14,-10.13,-6.56,-5.74,2.43,2.43,2.42
23.22,12.52,12.52,10.10,10.10,-10.09,-6.55,-5.90,2.43,2.43,2.42
23.45,12.47,12.48,10.05,10.06,-10.04,-6.55,-6.05,2.43,2.43,2.42
23.69,12.43,12.43,10.00,10.01,-9.99,-6.54,-6.22,2.44,2.44,2.43
23.92,12.38,12.38,9.95,9.94,-9.93,-6.54,-6.38,2.45,2.44,2.43
24.16,12.31,12.31,9.87,9.87,-9.86,-6.54,-6.55,2.45,2.45,2.44
24.40,12.23,12.23,9.78,9.79,-9.80,-6.53,-6.72,2.44,2.44,2.45
24.65,12.15,12.15,9.72,9.71,-9.73,-6.53,-6.90,2.43,2.42,2.44
24.89,12.07,12.07,9.64,9.64,-9.66,-6.52,-7.08,2.41,2.42,2.44
25.14,12.00,12.00,9.57,9.57,-9.59,-6.52,-7.26,2.42,2.42,2.43
25.39,11.94,11.94,9.50,9.50,-9.51,-6.51,-7.45,2.43,2.43,2.44
25.65,11.88,11.88,9.44,9.45,-9.43,-6.51,-7.63,2.45,2.45,2.44
25.91,11.82,11.81,9.39,9.38,-9.35,-6.50,-7.82,2.47,2.46,2.43
26.16,11.73,11.73,9.30,9.30,-9.27,-6.50,-8.01,2.46,2.46,2.43
26.43,11.62,11.63,9.19,9.20,-9.18,-6.49,-8.20,2.44,2.44,2.43
26.69,11.52,11.52,9.09,9.09,-9.10,-6.49,-8.38,2.42,2.42,2.43
26.96,11.41,11.42,8.98,8.99,-9.01,-6.48,-8.57,2.40,2.41,2.44
27.23,11.33,11.34,8.90,8.90,-8.93,-6.48,-8.75,2.40,2.41,2.44
27.50,11.26,11.26,8.83,8.83,-8.85,-6.47,-8.94,2.42,2.42,2.43
27.77,11.20,11.19,8.78,8.77,-8.77,-6.46,-9.11,2.43,2.43,2.42
28.05,11.12,11.12,8.70,8.70,-8.69,-6.46,-9.28,2.43,2.43,2.42
28.33,11.04,11.04,8.63,8.63,-8.62,-6.45,-9.44,2.43,2.43,2.41
28.62,10.96,10.96,8.56,8.55,-8.54,-6.44,-9.60,2.42,2.42,2.41
28.90,10.88,10.88,8.47,8.47,-8.46,-6.44,-9.74,2.42,2.41,2.42
29.19,10.79,10.79,8.39,8.38,-8.38,-6.43,-9.88,2.41,2.41,2.40
29.48,10.70,10.71,8.28,8.29,-8.29,-6.42,-9.99,2.41,2.41,2.42
29.78,10.62,10.62,8.21,8.20,-8.21,-6.42,-10.10,2.42,2.41,2.41
30.08,10.53,10.53,8.11,8.12,-8.12,-6.41,-10.18,2.41,2.41,2.42
30.38,10.44,10.44,8.04,8.03,-8.03,-6.40,-10.26,2.41,2.41,2.41
30.68,10.35,10.35,7.95,7.94,-7.95,-6.39,-10.30,2.40,2.40,2.41
30.99,10.25,10.26,7.85,7.86,-7.87,-6.38,-10.34,2.39,2.40,2.40
31.30,10.18,10.18,7.78,7.78,-7.78,-6.37,-10.35,2.40,2.40,2.40
31.61,10.10,10.10,7.70,7.70,-7.70,-6.36,-10.35,2.40,2.40,2.40
31.93,10.02,10.02,7.63,7.63,-7.61,-6.35,-10.31,2.41,2.41,2.40
32.24,9.93,9.93,7.55,7.54,-7.53,-6.34,-10.27,2.40,2.40,2.38
32.57,9.83,9.84,7.44,7.45,-7.44,-6.33,-10.21,2.39,2.39,2.39
32.89,9.74,9.74,7.35,7.36,-7.36,-6.32,-10.13,2.38,2.38,2.39
33.22,9.65,9.65,7.28,7.27,-7.28,-6.31,-10.03,2.37,2.37,2.38
33.55,9.57,9.57,7.20,7.20,-7.21,-6.30,-9.92,2.37,2.36,2.37
33.89,9.49,9.49,7.13,7.13,-7.14,-6.29,-9.80,2.36,2.36,2.36
34.23,9.42,9.42,7.05,7.06,-7.07,-6.27,-9.66,2.35,2.35,2.37
34.57,9.36,9.36,7.01,7.00,-7.01,-6.26,-9.52,2.35,2.34,2.35
34.92,9.29,9.30,6.94,6.95,-6.96,-6.25,-9.37,2.34,2.34,2.35
35.27,9.24,9.25,6.89,6.90,-6.90,-6.23,-9.21,2.35,2.35,2.35
35.62,9.19,9.19,6.85,6.84,-6.83,-6.22,-9.04,2.36,2.36,2.34
35.97,9.13,9.12,6.79,6.78,-6.76,-6.21,-8.87,2.37,2.37,2.34
36.33,9.04,9.05,6.69,6.71,-6.68,-6.19,-8.70,2.37,2.37,2.35
36.70,8.95,8.95,6.62,6.61,-6.59,-6.17,-8.53,2.36,2.36,2.33
37.06,8.85,8.84,6.52,6.51,-6.50,-6.16,-8.35,2.35,2.34,2.33
37.43,8.73,8.73,6.39,6.39,-6.41,-6.14,-8.18,2.32,2.32,2.34
37.81,8.62,8.63,6.28,6.29,-6.33,-6.12,-8.00,2.30,2.30,2.34
38.19,8.54,8.55,6.21,6.21,-6.25,-6.10,-7.83,2.30,2.31,2.34
38.57,8.50,8.49,6.16,6.15,-6.17,-6.09,-7.66,2.33,2.32,2.34
38.95,8.45,8.45,6.10,6.11,-6.10,-6.07,-7.49,2.35,2.35,2.35
39.34,8.40,8.40,6.06,6.06,-6.04,-6.05,-7.33,2.36,2.36,2.34
39.74,8.35,8.35,6.02,6.01,-5.99,-6.02,-7.17,2.36,2.36,2.34
40.14,8.28,8.28,5.94,5.95,-5.94,-6.00,-7.01,2.35,2.35,2.34
40.54,8.21,8.21,5.88,5.88,-5.88,-5.98,-6.85,2.33,2.33,2.34
40.94,8.13,8.14,5.80,5.81,-5.81,-5.95,-6.70,2.32,2.32,2.33
41.35,8.06,8.07,5.74,5.74,-5.74,-5.93,-6.55,2.32,2.33,2.32
41.76,8.00,8.00,5.68,5.68,-5.66,-5.90,-6.41,2.34,2.34,2.32
42.18,7.92,7.92,5.60,5.60,-5.58,-5.88,-6.27,2.35,2.34,2.32
42.60,7.82,7.82,5.52,5.52,-5.50,-5.85,-6.13,2.32,2.32,2.30
43.03,7.72,7.72,5.43,5.42,-5.44,-5.82,-6.00,2.29,2.28,2.30
43.46,7.62,7.62,5.33,5.33,-5.38,-5.79,-5.87,2.24,2.24,2.29
43.90,7.52,7.54,5.26,5.28,-5.33,-5.76,-5.75,2.19,2.21,2.26
44.33,7.49,7.50,5.25,5.25,-5.28,-5.73,-5.63,2.21,2.22,2.24
44.78,7.48,7.47,5.26,5.24,-5.23,-5.69,-5.51,2.25,2.24,2.23
45.23,7.45,7.45,5.23,5.24,-5.18,-5.66,-5.40,2.27,2.27,2.22
45.68,7.40,7.40,5.20,5.20,-5.14,-5.62,-5.30,2.26,2.26,2.20
46.13,7.32,7.31,5.14,5.12,-5.10,-5.58,-5.19,2.22,2.21,2.18
46.60,7.20,7.21,5.02,5.04,-5.05,-5.54,-5.09,2.15,2.16,2.18
47.06,7.10,7.12,4.94,4.96,-5.00,-5.50,-5.00,2.10,2.12,2.16
47.53,7.06,7.06,4.91,4.90,-4.95,-5.46,-4.90,2.12,2.11,2.15
48.01,7.02,7.03,4.87,4.88,-4.89,-5.42,-4.82,2.14,2.14,2.15
48.49,6.99,7.00,4.86,4.87,-4.83,-5.37,-4.73,2.16,2.16,2.13
48.97,6.96,6.93,4.85,4.82,-4.79,-5.32,-4.65,2.17,2.14,2.11
49.46,6.84,6.84,4.75,4.75,-4.75,-5.27,-4.57,2.09,2.09,2.09
49.96,6.71,6.76,4.65,4.68,-4.70,-5.22,-4.49,2.01,2.05,2.07
50.46,6.69,6.69,4.63,4.63,-4.66,-5.17,-4.42,2.03,2.04,2.06
50.96,6.68,6.66,4.63,4.61,-4.61,-5.11,-4.35,2.08,2.05,2.05
51.47,6.61,6.61,4.58,4.58,-4.55,-5.05,-4.28,2.06,2.06,2.03
51.99,6.53,6.53,4.52,4.51,-4.50,-4.99,-4.22,2.04,2.04,2.02
52.51,6.44,6.44,4.43,4.43,-4.44,-4.93,-4.16,2.00,2.00,2.01
53.03,6.36,6.38,4.36,4.37,-4.39,-4.87,-4.10,1.98,1.99,2.01
53.56,6.31,6.31,4.32,4.32,-4.33,-4.80,-4.04,1.98,1.99,1.99
54.10,6.27,6.26,4.30,4.28,-4.27,-4.74,-3.98,2.00,1.99,1.98
54.64,6.18,6.18,4.22,4.22,-4.21,-4.67,-3.93,1.97,1.97,1.96
55.18,6.10,6.09,4.15,4.14,-4.15,-4.59,-3.87,1.95,1.94,1.95
55.74,6.00,6.02,4.07,4.08,-4.10,-4.52,-3.82,1.90,1.92,1.94
56.29,5.95,5.98,4.02,4.05,-4.05,-4.45,-3.77,1.90,1.92,1.93
56.86,5.96,5.91,4.05,4.00,-4.01,-4.37,-3.72,1.96,1.90,1.91
57.42,5.86,5.85,3.98,3.96,-3.96,-4.29,-3.67,1.90,1.89,1.88
58.00,5.72,5.79,3.85,3.92,-3.91,-4.21,-3.62,1.81,1.88,1.87
58.58,5.74,5.73,3.88,3.86,-3.86,-4.13,-3.57,1.88,1.87,1.86
59.16,5.71,5.66,3.87,3.82,-3.81,-4.05,-3.52,1.90,1.85,1.84
59.76,5.57,5.59,3.75,3.78,-3.76,-3.97,-3.48,1.82,1.84,1.82
60.35,5.47,5.49,3.69,3.71,-3.70,-3.89,-3.43,1.77,1.79,1.78
60.96,5.40,5.39,3.65,3.64,-3.66,-3.81,-3.38,1.75,1.73,1.75
61.57,5.30,5.30,3.60,3.60,-3.61,-3.74,-3.33,1.69,1.69,1.70
62.18,5.21,5.22,3.55,3.56,-3.58,-3.66,-3.29,1.64,1.65,1.66
62.80,5.15,5.14,3.54,3.52,-3.54,-3.58,-3.24,1.61,1.60,1.62
63.43,5.07,5.07,3.50,3.50,-3.51,-3.51,-3.19,1.56,1.56,1.57
64.07,5.00,5.02,3.48,3.49,-3.48,-3.44,-3.14,1.52,1.53,1.53
64.71,4.96,4.95,3.48,3.47,-3.45,-3.37,-3.09,1.51,1.50,1.48
65.35,4.89,4.88,3.45,3.45,-3.42,-3.31,-3.04,1.47,1.46,1.44
66.01,4.80,4.80,3.41,3.41,-3.39,-3.25,-2.99,1.41,1.40,1.39
66.67,4.69,4.71,3.35,3.36,-3.36,-3.19,-2.94,1.33,1.35,1.34
67.33,4.61,4.62,3.32,3.32,-3.33,-3.14,-2.89,1.28,1.29,1.29
68.01,4.55,4.53,3.30,3.28,-3.30,-3.10,-2.84,1.26,1.23,1.25
68.69,4.44,4.45,3.24,3.25,-3.26,-3.06,-2.79,1.18,1.19,1.20
69.37,4.36,4.38,3.21,3.23,-3.23,-3.02,-2.74,1.13,1.15,1.15
70.07,4.31,4.31,3.21,3.21,-3.20,-2.99,-2.69,1.11,1.11,1.10
70.77,4.26,4.25,3.21,3.20,-3.18,-2.96,-2.64,1.08,1.07,1.05
71.48,4.17,4.15,3.17,3.16,-3.16,-2.93,-2.59,1.01,0.99,1.00
72.19,4.05,4.05,3.12,3.11,-3.14,-2.91,-2.54,0.91,0.92,0.93
72.91,3.92,3.98,3.04,3.10,-3.11,-2.90,-2.49,0.81,0.86,0.88
73.64,3.93,3.91,3.11,3.09,-3.08,-2.88,-2.44,0.85,0.83,0.82
74.38,3.88,3.84,3.12,3.08,-3.05,-2.87,-2.40,0.83,0.79,0.76
75.12,3.75,3.75,3.05,3.05,-3.02,-2.86,-2.35,0.73,0.73,0.71
75.87,3.60,3.63,2.96,2.98,-3.00,-2.85,-2.30,0.61,0.64,0.65
76.63,3.53,3.53,2.94,2.94,-2.97,-2.85,-2.26,0.56,0.56,0.60
77.40,3.46,3.45,2.92,2.90,-2.94,-2.84,-2.21,0.52,0.50,0.54
78.17,3.38,3.39,2.90,2.90,-2.90,-2.83,-2.17,0.48,0.49,0.48
78.95,3.31,3.34,2.86,2.89,-2.86,-2.82,-2.12,0.45,0.48,0.45
79.74,3.30,3.26,2.90,2.87,-2.82,-2.82,-2.08,0.48,0.44,0.40
80.54,3.18,3.16,2.83,2.81,-2.79,-2.81,-2.04,0.40,0.38,0.35
81.35,3.02,3.04,2.72,2.74,-2.75,-2.80,-2.00,0.27,0.29,0.30
82.16,2.90,2.93,2.65,2.67,-2.72,-2.78,-1.96,0.18,0.21,0.25
82.98,2.86,2.85,2.65,2.64,-2.68,-2.77,-1.93,0.18,0.17,0.22
83.81,2.81,2.80,2.65,2.64,-2.65,-2.75,-1.89,0.16,0.15,0.16
84.65,2.73,2.74,2.62,2.63,-2.61,-2.73,-1.86,0.12,0.13,0.11
85.50,2.67,2.67,2.60,2.60,-2.58,-2.71,-1.82,0.09,0.09,0.07
86.35,2.59,2.60,2.57,2.57,-2.55,-2.69,-1.79,0.04,0.04,0.02
87.22,2.51,2.52,2.54,2.54,-2.52,-2.66,-1.76,-0.01,-0.00,-0.03
88.09,2.43,2.41,2.51,2.49,-2.49,-2.63,-1.73,-0.05,-0.07,-0.08
88.97,2.31,2.31,2.44,2.44,-2.45,-2.60,-1.70,-0.13,-0.14,-0.13
89.86,2.18,2.21,2.36,2.39,-2.40,-2.57,-1.67,-0.22,-0.19,-0.18
90.76,2.12,2.11,2.35,2.34,-2.36,-2.53,-1.64,-0.24,-0.25,-0.23
91.66,2.04,2.03,2.32,2.31,-2.32,-2.50,-1.62,-0.27,-0.29,-0.27
92.58,1.94,1.95,2.28,2.28,-2.27,-2.45,-1.59,-0.33,-0.33,-0.34
93.51,1.85,1.86,2.23,2.24,-2.23,-2.41,-1.57,-0.38,-0.37,-0.38
94.44,1.78,1.78,2.21,2.21,-2.20,-2.37,-1.55,-0.41,-0.42,-0.42
95.39,1.70,1.69,2.17,2.16,-2.16,-2.32,-1.53,-0.46,-0.48,-0.47
96.34,1.59,1.59,2.12,2.11,-2.13,-2.27,-1.51,-0.54,-0.54,-0.52
97.30,1.48,1.51,2.05,2.07,-2.09,-2.22,-1.49,-0.61,-0.59,-0.57
98.28,1.43,1.43,2.05,2.05,-2.05,-2.17,-1.47,-0.62,-0.62,-0.61
99.26,1.37,1.36,2.03,2.02,-2.00,-2.12,-1.45,-0.63,-0.64,-0.66
100.25,1.28,1.28,1.99,1.98,-1.95,-2.06,-1.43,-0.67,-0.68,-0.71
101.25,1.16,1.17,1.91,1.92,-1.91,-2.01,-1.42,-0.74,-0.74,-0.75
102.27,1.05,1.05,1.85,1.85,-1.86,-1.95,-1.40,-0.80,-0.81,-0.80
103.29,0.93,0.93,1.79,1.78,-1.80,-1.90,-1.39,-0.87,-0.87,-0.85
104.32,0.82,0.84,1.71,1.73,-1.75,-1.84,-1.37,-0.93,-0.91,-0.89
105.37,0.74,0.75,1.68,1.68,-1.68,-1.79,-1.36,-0.94,-0.94,-0.94
106.42,0.67,0.65,1.66,1.64,-1.62,-1.73,-1.34,-0.95,-0.97,-0.98
107.48,0.55,0.55,1.59,1.59,-1.56,-1.68,-1.33,-1.01,-1.01,-1.04
108.56,0.41,0.43,1.51,1.52,-1.50,-1.63,-1.32,-1.09,-1.08,-1.10
109.64,0.32,0.30,1.46,1.44,-1.45,-1.58,-1.31,-1.13,-1.16,-1.14
110.74,0.16,0.18,1.36,1.38,-1.41,-1.53,-1.29,-1.25,-1.22,-1.20
111.85,0.08,0.09,1.32,1.33,-1.36,-1.48,-1.28,-1.28,-1.27,-1.23
112.97,0.02,0.02,1.32,1.31,-1.32,-1.44,-1.27,-1.30,-1.30,-1.30
114.10,-0.04,-0.04,1.31,1.30,-1.29,-1.39,-1.26,-1.33,-1.33,-1.34
115.24,-0.10,-0.13,1.29,1.26,-1.25,-1.35,-1.25,-1.35,-1.38,-1.39
116.39,-0.24,-0.20,1.21,1.24,-1.22,-1.31,-1.23,-1.46,-1.42,-1.44
117.55,-0.29,-0.26,1.19,1.22,-1.19,-1.27,-1.22,-1.48,-1.46,-1.48
118.73,-0.28,-0.35,1.24,1.17,-1.17,-1.23,-1.21,-1.45,-1.52,-1.52
119.92,-0.43,-0.42,1.12,1.13,-1.14,-1.20,-1.20,-1.57,-1.56,-1.54
121.12,-0.55,-0.50,1.04,1.09,-1.11,-1.17,-1.18,-1.66,-1.61,-1.59
122.33,-0.55,-0.57,1.07,1.04,-1.08,-1.13,-1.17,-1.63,-1.66,-1.62
123.55,-0.59,-0.59,1.05,1.06,-1.05,-1.10,-1.15,-1.64,-1.64,-1.64
124.79,-0.64,-0.61,1.04,1.06,-1.02,-1.07,-1.14,-1.66,-1.63,-1.67
126.03,-0.62,-0.68,1.09,1.02,-0.99,-1.04,-1.13,-1.61,-1.67,-1.70
127.29,-0.77,-0.76,0.96,0.97,-0.96,-1.02,-1.11,-1.73,-1.72,-1.72
128.57,-0.88,-0.84,0.89,0.92,-0.92,-0.99,-1.09,-1.80,-1.76,-1.76
129.85,-0.93,-0.92,0.86,0.87,-0.89,-0.97,-1.08,-1.82,-1.81,-1.79
131.15,-0.92,-0.97,0.90,0.85,-0.86,-0.94,-1.06,-1.77,-1.82,-1.82
132.46,-1.05,-1.04,0.80,0.81,-0.82,-0.92,-1.04,-1.87,-1.86,-1.85
133.79,-1.12,-1.11,0.76,0.76,-0.79,-0.89,-1.02,-1.91,-1.90,-1.87
135.12,-1.19,-1.16,0.72,0.74,-0.76,-0.87,-1.01,-1.95,-1.92,-1.91
136.48,-1.18,-1.18,0.75,0.75,-0.73,-0.85,-0.99,-1.91,-1.92,-1.92
137.84,-1.18,-1.23,0.78,0.73,-0.70,-0.83,-0.97,-1.88,-1.94,-1.96
139.22,-1.31,-1.28,0.68,0.71,-0.67,-0.80,-0.95,-1.98,-1.95,-1.99
140.61,-1.40,-1.35,0.63,0.66,-0.64,-0.78,-0.93,-2.04,-1.99,-2.02
142.02,-1.38,-1.44,0.66,0.60,-0.61,-0.76,-0.91,-1.99,-2.05,-2.04
143.44,-1.51,-1.50,0.56,0.57,-0.59,-0.74,-0.89,-2.10,-2.09,-2.07
144.87,-1.60,-1.55,0.51,0.55,-0.57,-0.72,-0.87,-2.17,-2.13,-2.11
146.32,-1.59,-1.61,0.56,0.53,-0.56,-0.70,-0.85,-2.15,-2.17,-2.15
147.78,-1.63,-1.64,0.55,0.54,-0.55,-0.69,-0.83,-2.18,-2.19,-2.18
149.26,-1.68,-1.66,0.55,0.57,-0.56,-0.67,-0.81,-2.24,-2.22,-2.22
150.75,-1.70,-1.70,0.59,0.59,-0.58,-0.65,-0.79,-2.28,-2.28,-2.29
152.26,-1.72,-1.73,0.64,0.62,-0.61,-0.63,-0.77,-2.33,-2.35,-2.36
153.78,-1.78,-1.78,0.65,0.64,-0.65,-0.62,-0.75,-2.43,-2.43,-2.42
155.32,-1.84,-1.84,0.66,0.66,-0.68,-0.60,-0.73,-2.52,-2.52,-2.50
156.88,-1.90,-1.87,0.67,0.70,-0.72,-0.59,-0.71,-2.61,-2.59,-2.57
158.44,-1.90,-1.89,0.76,0.76,-0.75,-0.58,-0.70,-2.65,-2.64,-2.66
160.03,-1.89,-1.93,0.85,0.80,-0.78,-0.56,-0.68,-2.67,-2.71,-2.74
161.63,-1.99,-1.98,0.82,0.83,-0.81,-0.55,-0.66,-2.80,-2.80,-2.81
163.24,-2.07,-2.05,0.80,0.82,-0.84,-0.54,-0.64,-2.91,-2.89,-2.87
164.88,-2.10,-2.09,0.82,0.83,-0.86,-0.53,-0.63,-2.96,-2.95,-2.92
166.53,-2.11,-2.11,0.86,0.86,-0.87,-0.52,-0.61,-2.98,-2.97,-2.97
168.19,-2.11,-2.12,0.90,0.89,-0.86,-0.51,-0.59,-2.97,-2.98,-3.01
169.87,-2.15,-2.16,0.90,0.89,-0.84,-0.50,-0.58,-2.99,-3.00,-3.05
171.57,-2.22,-2.22,0.84,0.85,-0.81,-0.49,-0.56,-3.03,-3.03,-3.06
173.29,-2.30,-2.30,0.78,0.78,-0.78,-0.48,-0.54,-3.08,-3.08,-3.08
175.02,-2.37,-2.37,0.72,0.72,-0.74,-0.47,-0.53,-3.11,-3.11,-3.08
176.77,-2.45,-2.42,0.65,0.67,-0.70,-0.47,-0.51,-3.15,-3.12,-3.10
178.54,-2.44,-2.47,0.66,0.63,-0.65,-0.46,-0.50,-3.09,-3.12,-3.10
180.32,-2.50,-2.49,0.60,0.60,-0.61,-0.46,-0.48,-3.11,-3.10,-3.10
182.13,-2.53,-2.51,0.56,0.59,-0.57,-0.45,-0.47,-3.10,-3.08,-3.09
183.95,-2.53,-2.55,0.57,0.55,-0.54,-0.44,-0.46,-3.07,-3.09,-3.10
185.79,-2.57,-2.60,0.53,0.51,-0.51,-0.44,-0.44,-3.08,-3.11,-3.10
187.65,-2.68,-2.64,0.44,0.48,-0.49,-0.43,-0.43,-3.17,-3.12,-3.12
189.52,-2.69,-2.67,0.44,0.46,-0.46,-0.42,-0.42,-3.15,-3.14,-3.13
191.42,-2.68,-2.71,0.47,0.44,-0.44,-0.42,-0.41,-3.12,-3.15,-3.15
193.33,-2.73,-2.74,0.44,0.43,-0.42,-0.41,-0.39,-3.15,-3.16,-3.17
195.27,-2.81,-2.78,0.38,0.41,-0.41,-0.40,-0.38,-3.21,-3.19,-3.19
197.22,-2.83,-2.83,0.38,0.38,-0.40,-0.39,-0.37,-3.22,-3.23,-3.21
199.19,-2.85,-2.86,0.39,0.37,-0.39,-0.38,-0.36,-3.23,-3.25,-3.23
201.18,-2.89,-2.88,0.36,0.37,-0.37,-0.37,-0.35,-3.26,-3.25,-3.25
203.19,-2.91,-2.90,0.36,0.37,-0.36,-0.35,-0.34,-3.26,-3.25,-3.27
205.23,-2.91,-2.92,0.38,0.36,-0.34,-0.34,-0.32,-3.25,-3.26,-3.29
207.28,-2.95,-2.96,0.35,0.35,-0.32,-0.32,-0.31,-3.27,-3.28,-3.30
209.35,-3.01,-3.01,0.31,0.31,-0.32,-0.30,-0.30,-3.32,-3.33,-3.32
211.44,-3.09,-3.07,0.27,0.27,-0.31,-0.28,-0.29,-3.40,-3.38,-3.36
213.56,-3.12,-3.11,0.24,0.25,-0.29,-0.25,-0.28,-3.41,-3.40,-3.36
215.69,-3.12,-3.12,0.25,0.25,-0.27,-0.23,-0.27,-3.39,-3.40,-3.37
217.85,-3.12,-3.11,0.27,0.28,-0.25,-0.20,-0.25,-3.36,-3.36,-3.39
220.03,-3.13,-3.12,0.27,0.28,-0.22,-0.17,-0.24,-3.35,-3.34,-3.40
222.23,-3.13,-3.17,0.29,0.24,-0.19,-0.14,-0.23,-3.32,-3.37,-3.42
224.45,-3.26,-3.24,0.15,0.18,-0.17,-0.11,-0.22,-3.43,-3.41,-3.41
226.70,-3.33,-3.30,0.08,0.11,-0.15,-0.08,-0.20,-3.47,-3.45,-3.41
228.96,-3.33,-3.33,0.08,0.07,-0.12,-0.04,-0.19,-3.45,-3.46,-3.40
231.25,-3.32,-3.33,0.08,0.07,-0.10,-0.00,-0.18,-3.42,-3.43,-3.39
233.57,-3.31,-3.31,0.08,0.08,-0.09,0.03,-0.16,-3.39,-3.40,-3.38
235.90,-3.30,-3.29,0.08,0.08,-0.07,0.07,-0.15,-3.37,-3.37,-3.37
238.26,-3.28,-3.27,0.08,0.09,-0.06,0.11,-0.13,-3.34,-3.33,-3.36
240.64,-3.26,-3.26,0.08,0.08,-0.05,0.15,-0.12,-3.30,-3.31,-3.34
243.05,-3.25,-3.26,0.06,0.05,-0.03,0.19,-0.10,-3.28,-3.29,-3.31
245.48,-3.29,-3.27,0.00,0.02,-0.00,0.24,-0.08,-3.29,-3.28,-3.29
247.93,-3.30,-3.30,-0.04,-0.04,0.03,0.28,-0.06,-3.27,-3.27,-3.26
250.41,-3.31,-3.33,-0.06,-0.09,0.07,0.32,-0.05,-3.24,-3.26,-3.24
252.92,-3.37,-3.34,-0.16,-0.13,0.12,0.36,-0.03,-3.25,-3.23,-3.21
255.45,-3.36,-3.35,-0.17,-0.16,0.16,0.40,-0.00,-3.20,-3.19,-3.19
258.00,-3.35,-3.37,-0.18,-0.20,0.21,0.44,0.02,-3.14,-3.16,-3.17
260.58,-3.38,-3.39,-0.22,-0.24,0.25,0.48,0.04,-3.13,-3.14,-3.15
263.19,-3.43,-3.42,-0.31,-0.29,0.28,0.52,0.06,-3.14,-3.13,-3.12
265.82,-3.45,-3.44,-0.34,-0.34,0.32,0.56,0.09,-3.13,-3.12,-3.11
268.48,-3.45,-3.45,-0.37,-0.37,0.35,0.60,0.11,-3.09,-3.10,-3.08
271.16,-3.45,-3.45,-0.40,-0.39,0.40,0.64,0.14,-3.05,-3.05,-3.05
273.87,-3.45,-3.45,-0.41,-0.42,0.44,0.68,0.16,-3.01,-3.01,-3.03
276.61,-3.46,-3.47,-0.46,-0.46,0.48,0.72,0.19,-2.98,-2.99,-3.00
279.38,-3.48,-3.49,-0.50,-0.52,0.53,0.75,0.22,-2.95,-2.97,-2.97
282.17,-3.55,-3.52,-0.60,-0.57,0.57,0.79,0.25,-2.98,-2.95,-2.95
284.99,-3.54,-3.55,-0.62,-0.63,0.62,0.82,0.27,-2.92,-2.93,-2.91
287.84,-3.57,-3.58,-0.67,-0.69,0.68,0.86,0.31,-2.89,-2.91,-2.90
290.72,-3.62,-3.59,-0.75,-0.72,0.73,0.89,0.34,-2.89,-2.86,-2.86
293.63,-3.62,-3.61,-0.78,-0.78,0.78,0.92,0.37,-2.84,-2.83,-2.84
296.57,-3.60,-3.64,-0.80,-0.83,0.83,0.95,0.40,-2.77,-2.81,-2.80
299.53,-3.68,-3.66,-0.90,-0.88,0.87,0.99,0.43,-2.81,-2.79,-2.78
302.53,-3.70,-3.67,-0.94,-0.92,0.92,1.02,0.47,-2.78,-2.75,-2.76
305.55,-3.67,-3.68,-0.95,-0.96,0.96,1.04,0.50,-2.71,-2.72,-2.71
308.61,-3.66,-3.69,-0.96,-0.99,1.01,1.07,0.54,-2.65,-2.68,-2.70
311.69,-3.73,-3.71,-1.06,-1.05,1.05,1.10,0.58,-2.68,-2.66,-2.67
314.81,-3.77,-3.74,-1.12,-1.09,1.09,1.13,0.62,-2.68,-2.64,-2.65
317.96,-3.76,-3.77,-1.13,-1.14,1.13,1.15,0.65,-2.63,-2.64,-2.63
321.14,-3.77,-3.81,-1.15,-1.20,1.18,1.18,0.69,-2.59,-2.64,-2.62
324.35,-3.88,-3.85,-1.27,-1.24,1.23,1.20,0.73,-2.65,-2.62,-2.60
327.59,-3.91,-3.85,-1.32,-1.26,1.28,1.23,0.78,-2.63,-2.57,-2.59
330.87,-3.84,-3.88,-1.26,-1.30,1.33,1.25,0.82,-2.51,-2.55,-2.58
334.18,-3.85,-3.92,-1.28,-1.35,1.37,1.27,0.86,-2.47,-2.54,-2.56
337.52,-4.04,-3.98,-1.48,-1.42,1.42,1.30,0.91,-2.61,-2.55,-2.56
340.90,-4.07,-4.04,-1.53,-1.50,1.47,1.32,0.95,-2.59,-2.57,-2.54
344.30,-4.06,-4.07,-1.53,-1.53,1.52,1.34,1.00,-2.54,-2.55,-2.53
347.75,-4.06,-4.07,-1.52,-1.54,1.56,1.36,1.04,-2.50,-2.51,-2.53
351.23,-4.08,-4.11,-1.55,-1.59,1.60,1.38,1.09,-2.48,-2.52,-2.53
354.74,-4.19,-4.16,-1.66,-1.63,1.62,1.40,1.14,-2.57,-2.54,-2.53
358.28,-4.21,-4.18,-1.69,-1.66,1.63,1.41,1.19,-2.58,-2.55,-2.52
361.87,-4.16,-4.18,-1.64,-1.66,1.63,1.43,1.24,-2.53,-2.55,-2.52
365.49,-4.14,-4.15,-1.62,-1.63,1.63,1.45,1.29,-2.51,-2.52,-2.51
369.14,-4.13,-4.13,-1.60,-1.60,1.62,1.46,1.35,-2.50,-2.50,-2.53
372.83,-4.12,-4.12,-1.59,-1.59,1.61,1.48,1.40,-2.50,-2.51,-2.53
376.56,-4.12,-4.11,-1.59,-1.59,1.59,1.49,1.45,-2.52,-2.52,-2.53
380.33,-4.11,-4.11,-1.59,-1.58,1.57,1.51,1.51,-2.53,-2.53,-2.52
384.13,-4.10,-4.10,-1.58,-1.57,1.56,1.52,1.56,-2.54,-2.54,-2.52
387.97,-4.10,-4.09,-1.56,-1.56,1.55,1.53,1.62,-2.54,-2.54,-2.53
391.85,-4.09,-4.09,-1.54,-1.55,1.56,1.55,1.68,-2.53,-2.53,-2.55
395.77,-4.09,-4.08,-1.55,-1.54,1.57,1.56,1.73,-2.52,-2.51,-2.54
399.73,-4.09,-4.09,-1.54,-1.54,1.58,1.57,1.79,-2.51,-2.51,-2.55
403.72,-4.10,-4.13,-1.55,-1.58,1.59,1.58,1.85,-2.51,-2.54,-2.55
407.76,-4.18,-4.18,-1.62,-1.62,1.60,1.59,1.91,-2.58,-2.58,-2.56
411.84,-4.27,-4.22,-1.71,-1.66,1.61,1.60,1.96,-2.65,-2.61,-2.56
415.96,-4.24,-4.24,-1.67,-1.67,1.63,1.60,2.02,-2.60,-2.60,-2.56
420.12,-4.20,-4.22,-1.63,-1.65,1.66,1.61,2.08,-2.54,-2.56,-2.56
424.32,-4.20,-4.18,-1.63,-1.62,1.67,1.62,2.13,-2.52,-2.51,-2.57
428.56,-4.19,-4.20,-1.63,-1.64,1.68,1.62,2.19,-2.50,-2.52,-2.56
432.85,-4.20,-4.25,-1.65,-1.70,1.69,1.63,2.24,-2.51,-2.56,-2.55
437.18,-4.33,-4.27,-1.79,-1.74,1.70,1.64,2.29,-2.63,-2.57,-2.54
441.55,-4.28,-4.26,-1.78,-1.75,1.71,1.64,2.34,-2.57,-2.55,-2.50
445.96,-4.18,-4.19,-1.71,-1.72,1.72,1.64,2.38,-2.45,-2.47,-2.47
450.42,-4.12,-4.12,-1.68,-1.69,1.73,1.65,2.42,-2.38,-2.39,-2.44
454.93,-4.06,-4.12,-1.67,-1.72,1.74,1.65,2.46,-2.31,-2.37,-2.39
459.48,-4.16,-4.12,-1.81,-1.77,1.75,1.65,2.50,-2.41,-2.37,-2.34
464.07,-4.14,-4.09,-1.84,-1.80,1.76,1.65,2.53,-2.38,-2.33,-2.29
468.71,-4.00,-4.02,-1.76,-1.78,1.78,1.65,2.56,-2.22,-2.24,-2.23
473.40,-3.92,-3.93,-1.72,-1.74,1.79,1.65,2.58,-2.12,-2.13,-2.20
