frequency,raw,smoothed,error,error_smoothed,equalization,parametric_eq,fixed_band_eq,equalized_raw,equalized_smoothed,target
20.00,-33.28,-33.27,-31.79,-31.78,6.00,5.54,2.79,-27.28,-27.27,-1.48
20.20,-33.18,-33.18,-31.69,-31.70,6.00,5.55,2.87,-27.18,-27.18,-1.48
20.40,-33.08,-33.09,-31.59,-31.61,6.00,5.55,2.95,-27.08,-27.09,-1.48
20.61,-32.99,-32.99,-31.50,-31.50,6.00,5.55,3.04,-26.99,-26.99,-1.48
20.81,-32.89,-32.89,-31.40,-31.40,6.00,5.56,3.12,-26.89,-26.89,-1.48
21.02,-32.79,-32.77,-31.30,-31.29,6.00,5.56,3.21,-26.79,-26.77,-1.48
21.23,-32.63,-32.63,-31.14,-31.15,6.00,5.56,3.30,-26.63,-26.63,-1.48
21.44,-32.48,-32.48,-30.99,-31.00,6.00,5.57,3.39,-26.48,-26.48,-1.48
21.66,-32.33,-32.32,-30.84,-30.84,6.00,5.57,3.49,-26.33,-26.32,-1.48
21.87,-32.18,-32.18,-30.69,-30.70,6.00,5.58,3.59,-26.18,-26.18,-1.48
22.09,-32.05,-32.06,-30.56,-30.57,6.00,5.58,3.69,-26.05,-26.06,-1.48
22.31,-31.96,-31.95,-30.47,-30.47,6.00,5.58,3.80,-25.96,-25.95,-1.48
22.54,-31.87,-31.87,-30.38,-30.38,6.00,5.59,3.90,-25.87,-25.87,-1.48
22.76,-31.78,-31.78,-30.29,-30.29,6.00,5.59,4.01,-25.78,-25.78,-1.48
22.99,-31.68,-31.67,-30.19,-30.18,6.00,5.60,4.12,-25.68,-25.67,-1.48
23.22,-31.55,-31.55,-30.06,-30.06,6.00,5.60,4.24,-25.55,-25.55,-1.48
23.45,-31.41,-31.41,-29.92,-29.92,6.00,5.61,4.36,-25.41,-25.41,-1.48
23.69,-31.27,-31.27,-29.78,-29.78,6.00,5.61,4.48,-25.27,-25.27,-1.48
23.92,-31.13,-31.13,-29.64,-29.65,6.00,5.62,4.60,-25.13,-25.13,-1.48
24.16,-31.01,-31.01,-29.52,-29.53,6.00,5.62,4.72,-25.01,-25.01,-1.48
24.40,-30.91,-30.91,-29.42,-29.42,6.00,5.62,4.85,-24.91,-24.91,-1.48
24.65,-30.81,-30.81,-29.32,-29.32,6.00,5.63,4.98,-24.81,-24.81,-1.48
24.89,-30.70,-30.70,-29.22,-29.21,6.00,5.63,5.11,-24.70,-24.70,-1.48
25.14,-30.57,-30.56,-29.08,-29.07,6.00,5.64,5.24,-24.57,-24.56,-1.48
25.39,-30.39,-30.40,-28.91,-28.91,6.00,5.64,5.38,-24.39,-24.40,-1.48
25.65,-30.23,-30.22,-28.74,-28.74,6.00,5.65,5.51,-24.23,-24.22,-1.48
25.91,-30.05,-30.06,-28.57,-28.57,6.00,5.66,5.64,-24.05,-24.06,-1.48
26.16,-29.91,-29.91,-28.42,-28.43,6.00,5.66,5.78,-23.91,-23.91,-1.48
26.43,-29.78,-29.78,-28.29,-28.29,6.00,5.67,5.91,-23.78,-23.78,-1.48
26.69,-29.66,-29.65,-28.17,-28.17,6.00,5.67,6.05,-23.66,-23.65,-1.48
26.96,-29.53,-29.53,-28.04,-28.04,6.00,5.68,6.18,-23.53,-23.53,-1.48
27.23,-29.40,-29.40,-27.91,-27.91,6.00,5.68,6.31,-23.40,-23.40,-1.48
27.50,-29.26,-29.26,-27.77,-27.77,6.00,5.69,6.44,-23.26,-23.26,-1.48
27.77,-29.12,-29.12,-27.63,-27.63,6.00,5.69,6.56,-23.12,-23.12,-1.48
28.05,-28.99,-28.98,-27.50,-27.50,6.00,5.70,6.68,-22.99,-22.98,-1.48
28.33,-28.85,-28.85,-27.36,-27.37,6.00,5.70,6.79,-22.85,-22.85,-1.48
28.62,-28.72,-28.72,-27.23,-27.23,6.00,5.71,6.91,-22.72,-22.72,-1.48
28.90,-28.59,-28.58,-27.10,-27.10,6.00,5.72,7.01,-22.59,-22.58,-1.48
29.19,-28.45,-28.45,-26.96,-26.97,6.00,5.72,7.10,-22.45,-22.45,-1.48
29.48,-28.32,-28.32,-26.83,-26.83,6.00,5.73,7.19,-22.32,-22.32,-1.48
29.78,-28.19,-28.19,-26.70,-26.70,6.00,5.73,7.27,-22.19,-22.19,-1.48
30.08,-28.06,-28.06,-26.57,-26.57,6.00,5.74,7.34,-22.06,-22.06,-1.48
30.38,-27.93,-27.93,-26.44,-26.44,6.00,5.75,7.40,-21.93,-21.93,-1.48
30.68,-27.80,-27.80,-26.31,-26.31,6.00,5.75,7.45,-21.80,-21.80,-1.48
30.99,-27.67,-27.67,-26.18,-26.18,6.00,5.76,7.49,-21.67,-21.67,-1.48
31.30,-27.54,-27.54,-26.05,-26.05,6.00,5.77,7.51,-21.54,-21.54,-1.48
31.61,-27.41,-27.41,-25.92,-25.92,6.00,5.77,7.54,-21.41,-21.41,-1.48
31.93,-27.28,-27.28,-25.79,-25.79,6.00,5.78,7.54,-21.28,-21.28,-1.48
32.24,-27.15,-27.15,-25.66,-25.66,6.00,5.79,7.54,-21.15,-21.15,-1.48
32.57,-27.03,-27.02,-25.54,-25.54,6.00,5.79,7.53,-21.03,-21.02,-1.48
32.89,-26.90,-26.91,-25.41,-25.42,6.00,5.80,7.51,-20.90,-20.91,-1.48
33.22,-26.81,-26.82,-25.32,-25.34,6.00,5.81,7.48,-20.81,-20.82,-1.48
33.55,-26.74,-26.74,-25.25,-25.25,6.00,5.81,7.44,-20.74,-20.74,-1.48
33.89,-26.66,-26.63,-25.17,-25.14,6.00,5.82,7.39,-20.66,-20.63,-1.48
34.23,-26.48,-26.46,-24.99,-24.98,6.00,5.83,7.34,-20.48,-20.46,-1.48
34.57,-26.24,-26.25,-24.75,-24.76,6.00,5.83,7.28,-20.24,-20.25,-1.48
34.92,-26.01,-26.03,-24.52,-24.55,6.00,5.84,7.22,-20.01,-20.03,-1.48
35.27,-25.84,-25.84,-24.35,-24.36,6.00,5.85,7.15,-19.84,-19.84,-1.48
35.62,-25.70,-25.69,-24.21,-24.20,6.00,5.85,7.08,-19.70,-19.69,-1.48
35.97,-25.55,-25.55,-24.06,-24.07,6.00,5.86,7.01,-19.55,-19.55,-1.48
36.33,-25.43,-25.43,-23.94,-23.94,6.00,5.87,6.93,-19.43,-19.43,-1.48
36.70,-25.31,-25.30,-23.82,-23.82,6.00,5.87,6.86,-19.31,-19.30,-1.48
37.06,-25.19,-25.18,-23.70,-23.70,6.00,5.88,6.78,-19.19,-19.18,-1.48
37.43,-25.06,-25.06,-23.57,-23.57,6.00,5.89,6.70,-19.06,-19.06,-1.48
37.81,-24.93,-24.93,-23.44,-23.45,6.00,5.90,6.63,-18.93,-18.93,-1.48
38.19,-24.81,-24.81,-23.32,-23.32,6.00,5.90,6.55,-18.81,-18.81,-1.48
38.57,-24.69,-24.68,-23.20,-23.20,6.00,5.91,6.48,-18.69,-18.68,-1.48
38.95,-24.56,-24.56,-23.07,-23.08,6.00,5.92,6.41,-18.56,-18.56,-1.48
39.34,-24.44,-24.44,-22.95,-22.95,6.00,5.92,6.34,-18.44,-18.44,-1.48
39.74,-24.31,-24.31,-22.82,-22.82,6.00,5.93,6.28,-18.31,-18.31,-1.48
40.14,-24.17,-24.16,-22.68,-22.68,6.00,5.94,6.21,-18.17,-18.16,-1.48
40.54,-24.01,-24.01,-22.52,-22.52,6.00,5.94,6.16,-18.01,-18.01,-1.48
40.94,-23.85,-23.86,-22.36,-22.37,6.00,5.95,6.10,-17.85,-17.86,-1.48
41.35,-23.72,-23.72,-22.23,-22.23,6.00,5.96,6.05,-17.72,-17.72,-1.48
41.76,-23.59,-23.59,-22.10,-22.10,6.00,5.96,6.00,-17.59,-17.59,-1.48
42.18,-23.47,-23.47,-21.98,-21.98,6.00,5.97,5.96,-17.47,-17.47,-1.48
42.60,-23.34,-23.34,-21.85,-21.86,6.00,5.98,5.92,-17.34,-17.34,-1.48
43.03,-23.22,-23.21,-21.73,-21.72,6.00,5.98,5.88,-17.22,-17.21,-1.48
43.46,-23.05,-23.05,-21.56,-21.57,6.00,5.99,5.85,-17.05,-17.05,-1.48
43.90,-22.89,-22.87,-21.40,-21.38,6.00,5.99,5.82,-16.89,-16.87,-1.48
44.33,-22.68,-22.67,-21.19,-21.18,6.00,6.00,5.80,-16.68,-16.67,-1.48
44.78,-22.47,-22.49,-20.98,-21.01,6.00,6.01,5.78,-16.47,-16.49,-1.48
45.23,-22.34,-22.37,-20.85,-20.88,6.00,6.01,5.77,-16.34,-16.37,-1.48
45.68,-22.30,-22.28,-20.81,-20.79,6.00,6.02,5.76,-16.30,-16.28,-1.48
46.13,-22.23,-22.21,-20.74,-20.72,6.00,6.02,5.76,-16.23,-16.21,-1.48
46.60,-22.11,-22.11,-20.62,-20.63,6.00,6.03,5.75,-16.11,-16.11,-1.48
47.06,-21.99,-21.98,-20.50,-20.50,6.00,6.03,5.76,-15.99,-15.98,-1.48
47.53,-21.85,-21.85,-20.36,-20.36,6.00,6.04,5.77,-15.85,-15.85,-1.48
48.01,-21.71,-21.72,-20.22,-20.23,6.00,6.04,5.78,-15.71,-15.72,-1.48
48.49,-21.59,-21.59,-20.10,-20.10,6.00,6.04,5.79,-15.59,-15.59,-1.48
48.97,-21.47,-21.45,-19.98,-19.96,6.00,6.05,5.81,-15.47,-15.45,-1.48
49.46,-21.30,-21.30,-19.81,-19.81,6.00,6.05,5.83,-15.30,-15.30,-1.48
49.96,-21.13,-21.15,-19.64,-19.66,6.00,6.06,5.86,-15.13,-15.15,-1.48
50.46,-21.01,-21.01,-19.52,-19.52,6.00,6.06,5.88,-15.01,-15.01,-1.48
50.96,-20.89,-20.88,-19.40,-19.39,6.00,6.06,5.91,-14.89,-14.88,-1.48
51.47,-20.76,-20.76,-19.27,-19.27,6.00,6.06,5.95,-14.76,-14.76,-1.48
51.99,-20.62,-20.62,-19.13,-19.13,6.00,6.07,5.98,-14.62,-14.62,-1.48
52.51,-20.49,-20.49,-19.00,-19.00,6.00,6.07,6.02,-14.49,-14.49,-1.48
53.03,-20.35,-20.36,-18.86,-18.87,6.00,6.07,6.05,-14.35,-14.36,-1.48
53.56,-20.24,-20.23,-18.75,-18.75,6.00,6.07,6.09,-14.24,-14.23,-1.48
54.10,-20.12,-20.11,-18.63,-18.62,6.00,6.07,6.13,-14.12,-14.11,-1.48
54.64,-19.98,-19.98,-18.49,-18.50,6.00,6.07,6.17,-13.98,-13.98,-1.48
55.18,-19.85,-19.86,-18.36,-18.37,6.00,6.07,6.21,-13.85,-13.86,-1.48
55.74,-19.74,-19.72,-18.25,-18.24,6.00,6.07,6.25,-13.74,-13.72,-1.48
56.29,-19.60,-19.59,-18.11,-18.11,6.00,6.07,6.28,-13.60,-13.59,-1.48
56.86,-19.45,-19.46,-17.96,-17.98,6.00,6.07,6.32,-13.45,-13.46,-1.48
57.42,-19.33,-19.33,-17.84,-17.85,6.00,6.07,6.35,-13.33,-13.33,-1.48
58.00,-19.22,-19.19,-17.73,-17.71,6.00,6.07,6.38,-13.22,-13.19,-1.48
58.58,-19.05,-19.05,-17.56,-17.57,6.00,6.07,6.41,-13.05,-13.05,-1.48
59.16,-18.89,-18.90,-17.40,-17.42,6.00,6.06,6.43,-12.89,-12.90,-1.48
59.76,-18.77,-18.77,-17.28,-17.28,6.00,6.06,6.45,-12.77,-12.77,-1.48
60.35,-18.64,-18.63,-17.15,-17.15,6.00,6.06,6.46,-12.64,-12.63,-1.48
60.96,-18.51,-18.48,-17.02,-16.99,6.00,6.06,6.47,-12.51,-12.48,-1.48
61.57,-18.30,-18.30,-16.81,-16.82,6.00,6.05,6.48,-12.30,-12.30,-1.48
62.18,-18.13,-18.16,-16.64,-16.67,6.00,6.05,6.48,-12.13,-12.16,-1.48
62.80,-18.05,-18.05,-16.56,-16.56,6.00,6.05,6.47,-12.05,-12.05,-1.48
63.43,-18.01,-18.01,-16.52,-16.52,6.00,6.04,6.46,-12.01,-12.01,-1.48
64.07,-17.99,-18.00,-16.50,-16.52,6.00,6.04,6.45,-11.99,-12.00,-1.48
64.71,-18.00,-17.99,-16.51,-16.50,6.00,6.04,6.43,-12.00,-11.99,-1.48
65.35,-17.95,-17.93,-16.46,-16.44,6.00,6.04,6.41,-11.95,-11.93,-1.48
66.01,-17.83,-17.80,-16.34,-16.32,6.00,6.03,6.38,-11.83,-11.80,-1.48
66.67,-17.61,-17.63,-16.12,-16.15,6.00,6.03,6.35,-11.61,-11.63,-1.48
67.33,-17.44,-17.46,-15.95,-15.98,6.00,6.03,6.31,-11.44,-11.46,-1.48
68.01,-17.32,-17.30,-15.83,-15.81,6.00,6.03,6.27,-11.32,-11.30,-1.48
68.69,-17.16,-17.16,-15.67,-15.68,6.00,6.02,6.23,-11.16,-11.16,-1.48
69.37,-17.00,-17.00,-15.51,-15.51,6.00,6.02,6.18,-11.00,-11.00,-1.48
70.07,-16.84,-16.81,-15.35,-15.33,6.00,6.02,6.14,-10.84,-10.81,-1.48
70.77,-16.62,-16.62,-15.13,-15.14,6.00,6.02,6.09,-10.62,-10.62,-1.48
71.48,-16.47,-16.50,-14.98,-15.02,6.00,6.02,6.04,-10.47,-10.50,-1.48
72.19,-16.39,-16.42,-14.90,-14.94,6.00,6.02,5.99,-10.39,-10.42,-1.48
72.91,-16.44,-16.37,-14.95,-14.89,6.00,6.02,5.94,-10.44,-10.37,-1.48
73.64,-16.31,-16.30,-14.82,-14.82,6.00,6.02,5.89,-10.31,-10.30,-1.48
74.38,-16.18,-16.20,-14.69,-14.72,6.00,6.02,5.84,-10.18,-10.20,-1.48
75.12,-16.07,-16.06,-14.58,-14.58,6.00,6.02,5.80,-10.07,-10.06,-1.48
75.87,-15.95,-15.94,-14.46,-14.45,6.00,6.03,5.75,-9.95,-9.94,-1.48
76.63,-15.80,-15.81,-14.31,-14.33,6.00,6.03,5.71,-9.80,-9.81,-1.48
77.40,-15.67,-15.67,-14.18,-14.19,6.00,6.03,5.66,-9.67,-9.67,-1.48
78.17,-15.53,-15.47,-14.04,-13.99,6.00,6.03,5.62,-9.53,-9.47,-1.48
78.95,-15.29,-15.27,-13.80,-13.79,6.00,6.03,5.59,-9.29,-9.27,-1.48
79.74,-15.04,-15.12,-13.55,-13.63,6.00,6.03,5.55,-9.04,-9.12,-1.48
80.54,-15.03,-15.02,-13.54,-13.54,6.00,6.04,5.52,-9.03,-9.02,-1.48
81.35,-15.06,-15.02,-13.57,-13.53,6.00,6.04,5.50,-9.06,-9.02,-1.48
82.16,-15.03,-15.08,-13.54,-13.60,6.00,6.04,5.47,-9.03,-9.08,-1.48
82.98,-15.07,-15.07,-13.58,-13.58,6.00,6.04,5.45,-9.07,-9.07,-1.48
83.81,-15.05,-14.92,-13.56,-13.43,6.00,6.04,5.43,-9.05,-8.92,-1.48
84.65,-14.68,-14.67,-13.19,-13.19,6.00,6.04,5.42,-8.68,-8.67,-1.48
85.50,-14.32,-14.42,-12.83,-12.93,6.00,6.04,5.41,-8.32,-8.42,-1.48
86.35,-14.20,-14.25,-12.71,-12.77,6.00,6.04,5.41,-8.20,-8.25,-1.48
87.22,-14.26,-14.22,-12.77,-12.74,6.00,6.04,5.41,-8.26,-8.22,-1.48
88.09,-14.26,-14.23,-12.77,-12.74,6.00,6.04,5.41,-8.26,-8.23,-1.48
88.97,-14.15,-14.11,-12.66,-12.63,6.00,6.04,5.42,-8.15,-8.11,-1.48
89.86,-13.96,-13.90,-12.47,-12.42,6.00,6.03,5.43,-7.96,-7.90,-1.48
90.76,-13.65,-13.75,-12.16,-12.27,6.00,6.03,5.44,-7.65,-7.75,-1.48
91.66,-13.62,-13.72,-12.13,-12.23,6.00,6.03,5.46,-7.62,-7.72,-1.48
92.58,-13.84,-13.73,-12.35,-12.24,6.00,6.03,5.48,-7.84,-7.73,-1.48
93.51,-13.80,-13.74,-12.31,-12.25,6.00,6.02,5.51,-7.80,-7.74,-1.48
94.44,-13.57,-13.62,-12.08,-12.13,6.00,6.02,5.54,-7.57,-7.62,-1.48
95.39,-13.40,-13.36,-11.91,-11.87,6.00,6.01,5.57,-7.40,-7.36,-1.48
96.34,-13.13,-13.13,-11.64,-11.64,6.00,6.01,5.61,-7.13,-7.13,-1.48
97.30,-12.91,-13.01,-11.42,-11.52,6.00,6.01,5.65,-6.91,-7.01,-1.48
98.28,-12.96,-12.94,-11.47,-11.45,6.00,6.00,5.70,-6.96,-6.94,-1.48
99.26,-12.99,-12.91,-11.50,-11.43,6.00,6.00,5.74,-6.99,-6.91,-1.48
100.25,-12.87,-12.88,-11.38,-11.40,6.00,5.99,5.79,-6.87,-6.88,-1.48
101.25,-12.77,-12.79,-11.28,-11.31,6.00,5.98,5.84,-6.77,-6.79,-1.48
102.27,-12.71,-12.70,-11.22,-11.22,6.00,5.98,5.90,-6.71,-6.70,-1.48
103.29,-12.65,-12.66,-11.16,-11.17,6.00,5.97,5.95,-6.65,-6.66,-1.48
104.32,-12.60,-12.62,-11.11,-11.13,6.00,5.97,6.01,-6.60,-6.62,-1.48
105.37,-12.55,-12.48,-11.06,-11.00,6.00,5.96,6.07,-6.55,-6.48,-1.48
106.42,-12.37,-12.29,-10.88,-10.81,6.00,5.95,6.13,-6.37,-6.29,-1.48
107.48,-12.06,-12.21,-10.57,-10.73,6.00,5.95,6.19,-6.06,-6.21,-1.48
108.56,-12.12,-12.22,-10.63,-10.73,6.00,5.94,6.25,-6.12,-6.22,-1.48
109.64,-12.44,-12.28,-10.95,-10.79,6.00,5.94,6.31,-6.44,-6.28,-1.48
110.74,-12.31,-12.25,-10.82,-10.76,6.00,5.93,6.36,-6.31,-6.25,-1.48
111.85,-12.08,-12.05,-10.59,-10.57,6.00,5.92,6.42,-6.08,-6.05,-1.48
112.97,-11.71,-11.83,-10.22,-10.34,6.00,5.92,6.47,-5.71,-5.83,-1.48
114.10,-11.70,-11.78,-10.21,-10.29,6.00,5.91,6.52,-5.70,-5.78,-1.48
115.24,-11.85,-11.79,-10.36,-10.30,6.00,5.91,6.56,-5.85,-5.79,-1.48
116.39,-11.91,-11.78,-10.42,-10.30,6.00,5.90,6.60,-5.91,-5.78,-1.48
117.55,-11.62,-11.68,-10.13,-10.19,6.00,5.90,6.64,-5.62,-5.68,-1.48
118.73,-11.43,-11.46,-9.94,-9.97,6.00,5.90,6.67,-5.43,-5.46,-1.48
119.92,-11.33,-11.27,-9.84,-9.79,6.00,5.89,6.69,-5.33,-5.27,-1.48
121.12,-11.12,-11.21,-9.63,-9.73,6.00,5.89,6.72,-5.12,-5.21,-1.48
122.33,-11.20,-11.20,-9.71,-9.71,6.00,5.89,6.73,-5.20,-5.20,-1.48
123.55,-11.22,-11.14,-9.73,-9.66,6.00,5.89,6.73,-5.22,-5.14,-1.48
124.79,-11.11,-11.05,-9.62,-9.56,6.00,5.89,6.73,-5.11,-5.05,-1.48
126.03,-10.84,-10.91,-9.35,-9.42,6.00,5.89,6.73,-4.84,-4.91,-1.48
127.29,-10.76,-10.87,-9.27,-9.39,6.00,5.89,6.71,-4.76,-4.87,-1.48
128.57,-10.84,-10.79,-9.35,-9.30,6.00,5.89,6.69,-4.84,-4.79,-1.48
129.85,-10.91,-10.67,-9.42,-9.19,6.00,5.89,6.66,-4.91,-4.67,-1.48
131.15,-10.34,-10.52,-8.85,-9.04,6.00,5.89,6.63,-4.34,-4.52,-1.48
132.46,-10.33,-10.42,-8.84,-8.94,6.00,5.89,6.59,-4.33,-4.42,-1.48
133.79,-10.45,-10.41,-8.96,-8.93,6.00,5.90,6.54,-4.45,-4.41,-1.48
135.12,-10.55,-10.44,-9.06,-8.95,6.00,5.90,6.49,-4.55,-4.44,-1.48
136.48,-10.39,-10.33,-8.90,-8.85,6.00,5.91,6.44,-4.39,-4.33,-1.48
137.84,-10.02,-10.16,-8.53,-8.68,6.00,5.91,6.38,-4.02,-4.16,-1.48
139.22,-10.00,-9.95,-8.51,-8.46,6.00,5.92,6.32,-4.00,-3.95,-1.48
140.61,-9.88,-9.83,-8.39,-8.34,6.00,5.93,6.25,-3.88,-3.83,-1.48
142.02,-9.70,-9.79,-8.21,-8.31,6.00,5.93,6.19,-3.70,-3.79,-1.48
143.44,-9.79,-9.75,-8.30,-8.27,6.00,5.94,6.12,-3.79,-3.75,-1.48
144.87,-9.77,-9.75,-8.28,-8.26,6.00,5.95,6.05,-3.77,-3.75,-1.48
146.32,-9.73,-9.73,-8.24,-8.25,6.00,5.96,5.98,-3.73,-3.73,-1.48
147.78,-9.66,-9.65,-8.18,-8.17,6.00,5.97,5.91,-3.66,-3.65,-1.47
149.26,-9.56,-9.56,-8.08,-8.09,6.00,5.98,5.83,-3.56,-3.56,-1.47
150.75,-9.45,-9.47,-7.97,-7.99,6.00,5.99,5.76,-3.45,-3.47,-1.47
152.26,-9.40,-9.38,-7.92,-7.90,6.00,6.01,5.70,-3.40,-3.38,-1.47
153.78,-9.29,-9.29,-7.81,-7.81,6.00,6.02,5.63,-3.29,-3.29,-1.47
155.32,-9.22,-9.21,-7.74,-7.74,6.00,6.03,5.56,-3.22,-3.21,-1.47
156.88,-9.14,-9.20,-7.66,-7.73,6.00,6.04,5.50,-3.14,-3.20,-1.47
158.44,-9.13,-9.10,-7.65,-7.62,6.00,6.05,5.44,-3.13,-3.10,-1.47
160.03,-9.12,-8.91,-7.64,-7.43,6.00,6.06,5.38,-3.12,-2.91,-1.47
161.63,-8.62,-8.84,-7.13,-7.36,6.00,6.07,5.33,-2.62,-2.84,-1.48
163.24,-8.65,-8.79,-7.16,-7.31,6.00,6.08,5.27,-2.65,-2.79,-1.48
164.88,-9.06,-8.74,-7.57,-7.26,6.00,6.09,5.23,-3.06,-2.74,-1.48
166.53,-8.73,-8.85,-7.24,-7.37,6.00,6.10,5.18,-2.73,-2.85,-1.48
168.19,-8.63,-8.74,-7.14,-7.25,6.00,6.10,5.14,-2.63,-2.74,-1.48
169.87,-8.80,-8.50,-7.31,-7.01,6.00,6.11,5.10,-2.80,-2.50,-1.48
171.57,-8.21,-8.42,-6.72,-6.93,6.00,6.11,5.07,-2.21,-2.42,-1.48
173.29,-8.25,-8.35,-6.76,-6.86,6.00,6.11,5.03,-2.25,-2.35,-1.48
175.02,-8.46,-8.30,-6.97,-6.82,6.00,6.10,5.01,-2.46,-2.30,-1.48
176.77,-8.38,-8.39,-6.89,-6.90,6.00,6.10,4.98,-2.38,-2.39,-1.48
178.54,-8.33,-8.35,-6.84,-6.87,6.00,6.09,4.96,-2.33,-2.35,-1.48
180.32,-8.28,-8.27,-6.79,-6.78,6.00,6.08,4.95,-2.28,-2.27,-1.48
182.13,-8.20,-8.20,-6.71,-6.72,6.00,6.07,4.93,-2.20,-2.20,-1.48
183.95,-8.13,-8.12,-6.64,-6.64,6.01,6.05,4.92,-2.12,-2.11,-1.48
185.79,-8.04,-8.04,-6.55,-6.56,6.01,6.03,4.92,-2.02,-2.03,-1.48
187.65,-7.96,-7.97,-6.47,-6.48,6.01,6.01,4.92,-1.95,-1.96,-1.48
189.52,-7.90,-7.89,-6.41,-6.40,5.99,5.99,4.92,-1.91,-1.90,-1.48
191.42,-7.82,-7.82,-6.33,-6.34,5.97,5.97,4.92,-1.85,-1.85,-1.48
193.33,-7.73,-7.75,-6.24,-6.27,5.96,5.94,4.93,-1.77,-1.80,-1.48
195.27,-7.66,-7.60,-6.17,-6.11,5.96,5.91,4.94,-1.70,-1.64,-1.48
197.22,-7.48,-7.39,-5.99,-5.90,5.96,5.88,4.96,-1.52,-1.43,-1.48
199.19,-7.16,-7.31,-5.67,-5.82,5.95,5.85,4.97,-1.20,-1.35,-1.48
201.18,-7.19,-7.34,-5.70,-5.85,5.93,5.81,4.99,-1.26,-1.41,-1.48
203.19,-7.63,-7.41,-6.14,-5.93,5.89,5.78,5.01,-1.74,-1.53,-1.48
205.23,-7.54,-7.48,-6.05,-5.99,5.85,5.74,5.04,-1.69,-1.63,-1.48
207.28,-7.31,-7.41,-5.82,-5.93,5.80,5.70,5.06,-1.51,-1.61,-1.48
209.35,-7.24,-7.28,-5.75,-5.79,5.75,5.66,5.09,-1.49,-1.52,-1.48
211.44,-7.17,-7.10,-5.68,-5.61,5.69,5.62,5.12,-1.48,-1.41,-1.48
213.56,-7.10,-6.97,-5.61,-5.49,5.61,5.58,5.14,-1.49,-1.36,-1.48
215.69,-6.69,-6.99,-5.20,-5.50,5.53,5.54,5.17,-1.16,-1.46,-1.48
217.85,-7.02,-7.01,-5.53,-5.52,5.46,5.50,5.20,-1.56,-1.54,-1.48
220.03,-7.27,-6.93,-5.78,-5.44,5.43,5.45,5.23,-1.83,-1.49,-1.48
222.23,-6.78,-6.86,-5.29,-5.37,5.43,5.41,5.25,-1.35,-1.43,-1.48
224.45,-6.51,-6.76,-5.02,-5.27,5.42,5.36,5.28,-1.09,-1.34,-1.48
226.70,-6.80,-6.81,-5.31,-5.33,5.38,5.32,5.30,-1.42,-1.44,-1.48
228.96,-7.10,-6.94,-5.61,-5.45,5.31,5.27,5.32,-1.78,-1.62,-1.48
231.25,-7.10,-6.95,-5.61,-5.47,5.24,5.22,5.34,-1.85,-1.71,-1.48
233.57,-6.61,-6.83,-5.12,-5.35,5.18,5.17,5.35,-1.43,-1.65,-1.48
235.90,-6.59,-6.55,-5.09,-5.06,5.13,5.12,5.36,-1.46,-1.42,-1.49
238.26,-6.52,-6.32,-5.02,-4.82,5.06,5.07,5.37,-1.46,-1.26,-1.49
240.64,-6.04,-6.25,-4.54,-4.75,4.96,5.02,5.37,-1.08,-1.29,-1.49
243.05,-6.22,-6.35,-4.72,-4.85,4.83,4.97,5.37,-1.38,-1.51,-1.49
245.48,-6.48,-6.41,-4.98,-4.91,4.73,4.92,5.36,-1.75,-1.68,-1.49
247.93,-6.72,-6.34,-5.22,-4.84,4.65,4.86,5.35,-2.06,-1.68,-1.49
250.41,-5.94,-6.12,-4.44,-4.63,4.61,4.80,5.33,-1.33,-1.51,-1.49
252.92,-5.65,-5.92,-4.15,-4.43,4.58,4.75,5.31,-1.06,-1.33,-1.49
255.45,-5.98,-5.84,-4.49,-4.35,4.55,4.69,5.29,-1.43,-1.29,-1.48
258.00,-6.05,-5.98,-4.56,-4.50,4.50,4.63,5.26,-1.54,-1.48,-1.48
260.58,-6.04,-6.05,-4.55,-4.56,4.45,4.58,5.22,-1.58,-1.59,-1.48
263.19,-5.97,-5.97,-4.48,-4.49,4.42,4.52,5.18,-1.55,-1.56,-1.48
265.82,-5.90,-5.91,-4.41,-4.43,4.40,4.46,5.13,-1.50,-1.51,-1.48
268.48,-5.86,-5.87,-4.37,-4.38,4.39,4.40,5.08,-1.47,-1.47,-1.48
271.16,-5.85,-5.84,-4.36,-4.35,4.37,4.35,5.03,-1.48,-1.47,-1.48
273.87,-5.81,-5.80,-4.32,-4.32,4.33,4.29,4.97,-1.48,-1.47,-1.48
276.61,-5.77,-5.76,-4.28,-4.28,4.27,4.24,4.91,-1.50,-1.49,-1.48
279.38,-5.70,-5.71,-4.21,-4.22,4.22,4.19,4.85,-1.48,-1.49,-1.48
282.17,-5.66,-5.65,-4.17,-4.17,4.17,4.14,4.79,-1.48,-1.47,-1.48
284.99,-5.60,-5.60,-4.12,-4.13,4.13,4.09,4.72,-1.47,-1.47,-1.47
287.84,-5.54,-5.55,-4.07,-4.08,4.08,4.05,4.66,-1.45,-1.47,-1.46
290.72,-5.53,-5.49,-4.06,-4.03,4.03,4.01,4.59,-1.50,-1.46,-1.46
293.63,-5.42,-5.45,-3.95,-3.99,3.98,3.98,4.52,-1.44,-1.47,-1.46
296.57,-5.40,-5.40,-3.94,-3.94,3.93,3.95,4.45,-1.47,-1.47,-1.45
299.53,-5.36,-5.34,-3.91,-3.89,3.88,3.92,4.38,-1.47,-1.45,-1.44
302.53,-5.29,-5.28,-3.84,-3.84,3.84,3.90,4.31,-1.45,-1.44,-1.44
305.55,-5.20,-5.21,-3.76,-3.78,3.80,3.88,4.25,-1.40,-1.41,-1.43
308.61,-5.16,-5.17,-3.72,-3.73,3.76,3.86,4.18,-1.39,-1.40,-1.43
311.69,-5.15,-5.15,-3.72,-3.72,3.72,3.84,4.11,-1.42,-1.43,-1.42
314.81,-5.15,-5.14,-3.72,-3.72,3.69,3.83,4.05,-1.46,-1.45,-1.42
317.96,-5.13,-5.11,-3.71,-3.69,3.67,3.82,3.99,-1.46,-1.44,-1.41
321.14,-5.06,-5.06,-3.64,-3.65,3.65,3.81,3.93,-1.41,-1.41,-1.41
324.35,-5.00,-5.00,-3.59,-3.60,3.61,3.80,3.87,-1.38,-1.39,-1.40
327.59,-4.95,-4.96,-3.56,-3.57,3.58,3.79,3.82,-1.37,-1.38,-1.38
330.87,-4.95,-4.94,-3.56,-3.56,3.55,3.78,3.76,-1.40,-1.39,-1.38
334.18,-4.95,-4.97,-3.57,-3.60,3.54,3.77,3.71,-1.41,-1.44,-1.37
337.52,-4.95,-4.92,-3.57,-3.54,3.54,3.76,3.66,-1.40,-1.37,-1.37
340.90,-4.95,-4.80,-3.58,-3.44,3.55,3.75,3.62,-1.40,-1.25,-1.36
344.30,-4.62,-4.81,-3.26,-3.45,3.55,3.73,3.57,-1.07,-1.26,-1.35
347.75,-4.77,-4.89,-3.42,-3.55,3.55,3.72,3.53,-1.22,-1.34,-1.34
351.23,-5.19,-4.96,-3.84,-3.63,3.54,3.71,3.49,-1.64,-1.42,-1.34
354.74,-5.08,-5.01,-3.75,-3.68,3.52,3.69,3.46,-1.55,-1.49,-1.32
358.28,-4.80,-4.92,-3.47,-3.59,3.50,3.68,3.43,-1.30,-1.42,-1.32
361.87,-4.74,-4.76,-3.42,-3.44,3.48,3.66,3.40,-1.26,-1.28,-1.31
365.49,-4.73,-4.70,-3.42,-3.40,3.48,3.64,3.37,-1.25,-1.23,-1.30
369.14,-4.72,-4.72,-3.41,-3.42,3.47,3.62,3.34,-1.25,-1.25,-1.30
372.83,-4.72,-4.70,-3.43,-3.41,3.47,3.60,3.32,-1.25,-1.23,-1.28
376.56,-4.71,-4.68,-3.42,-3.40,3.48,3.58,3.30,-1.22,-1.20,-1.28
380.33,-4.70,-4.77,-3.42,-3.49,3.52,3.56,3.28,-1.18,-1.26,-1.27
