frequency,raw,smoothed,error,error_smoothed,equalization,parametric_eq,fixed_band_eq,equalized_raw,equalized_smoothed,target
20.00,5.40,5.39,0.22,0.22,-0.22,-0.75,-0.83,5.18,5.18,5.18
20.20,5.46,5.46,0.25,0.25,-0.25,-0.78,-0.85,5.21,5.21,5.21
20.40,5.52,5.52,0.28,0.29,-0.28,-0.80,-0.88,5.23,5.24,5.24
20.61,5.59,5.58,0.33,0.32,-0.32,-0.82,-0.90,5.26,5.26,5.26
20.81,5.65,5.65,0.36,0.36,-0.36,-0.84,-0.93,5.29,5.29,5.29
21.02,5.71,5.70,0.39,0.40,-0.40,-0.86,-0.96,5.31,5.30,5.31
21.23,5.76,5.76,0.43,0.43,-0.44,-0.89,-0.98,5.31,5.32,5.32
21.44,5.82,5.82,0.48,0.48,-0.49,-0.91,-1.01,5.33,5.33,5.33
21.66,5.88,5.88,0.53,0.54,-0.53,-0.93,-1.04,5.34,5.34,5.34
21.87,5.94,5.93,0.59,0.59,-0.58,-0.96,-1.07,5.35,5.35,5.34
22.09,5.99,5.99,0.64,0.64,-0.64,-0.98,-1.10,5.35,5.35,5.35
22.31,6.04,6.04,0.69,0.69,-0.69,-1.01,-1.14,5.35,5.35,5.35
22.54,6.10,6.09,0.75,0.74,-0.75,-1.03,-1.17,5.35,5.35,5.35
22.76,6.15,6.15,0.80,0.80,-0.80,-1.05,-1.20,5.35,5.35,5.35
22.99,6.20,6.20,0.86,0.86,-0.85,-1.08,-1.24,5.34,5.35,5.34
23.22,6.25,6.25,0.91,0.91,-0.90,-1.11,-1.27,5.34,5.34,5.34
23.45,6.30,6.30,0.96,0.96,-0.95,-1.13,-1.31,5.34,5.34,5.34
23.69,6.35,6.34,1.01,1.01,-1.00,-1.16,-1.34,5.34,5.34,5.34
23.92,6.39,6.39,1.05,1.05,-1.05,-1.18,-1.38,5.34,5.34,5.34
24.16,6.44,6.44,1.09,1.10,-1.10,-1.21,-1.42,5.34,5.34,5.35
24.40,6.49,6.49,1.14,1.15,-1.15,-1.24,-1.46,5.34,5.34,5.34
24.65,6.54,6.53,1.20,1.20,-1.20,-1.27,-1.50,5.34,5.34,5.33
24.89,6.58,6.58,1.24,1.25,-1.25,-1.29,-1.54,5.33,5.33,5.33
25.14,6.63,6.63,1.30,1.30,-1.30,-1.32,-1.58,5.33,5.33,5.33
25.39,6.68,6.68,1.35,1.35,-1.35,-1.35,-1.62,5.33,5.33,5.33
25.65,6.73,6.73,1.40,1.40,-1.40,-1.38,-1.66,5.32,5.32,5.33
25.91,6.78,6.78,1.46,1.45,-1.46,-1.41,-1.70,5.32,5.32,5.32
26.16,6.83,6.83,1.51,1.51,-1.51,-1.43,-1.74,5.32,5.32,5.32
26.43,6.88,6.88,1.56,1.56,-1.56,-1.46,-1.78,5.32,5.32,5.32
26.69,6.93,6.92,1.61,1.61,-1.60,-1.49,-1.82,5.32,5.32,5.32
26.96,6.97,6.97,1.65,1.65,-1.65,-1.52,-1.86,5.32,5.32,5.31
27.23,7.01,7.01,1.69,1.69,-1.69,-1.55,-1.90,5.31,5.31,5.31
27.50,7.04,7.04,1.73,1.73,-1.73,-1.58,-1.94,5.30,5.31,5.31
27.77,7.08,7.07,1.78,1.77,-1.77,-1.61,-1.98,5.30,5.30,5.30
28.05,7.11,7.11,1.81,1.81,-1.81,-1.64,-2.01,5.30,5.30,5.30
28.33,7.14,7.14,1.85,1.85,-1.85,-1.67,-2.05,5.29,5.29,5.29
28.62,7.17,7.17,1.88,1.88,-1.88,-1.71,-2.08,5.29,5.29,5.29
28.90,7.20,7.20,1.91,1.92,-1.92,-1.74,-2.11,5.28,5.28,5.28
29.19,7.23,7.23,1.95,1.95,-1.95,-1.77,-2.15,5.27,5.28,5.27
29.48,7.27,7.26,1.99,1.99,-1.99,-1.80,-2.17,5.28,5.27,5.28
29.78,7.30,7.30,2.03,2.03,-2.03,-1.83,-2.20,5.27,5.27,5.27
30.08,7.33,7.33,2.06,2.06,-2.07,-1.86,-2.22,5.26,5.26,5.27
30.38,7.37,7.36,2.11,2.11,-2.11,-1.90,-2.25,5.26,5.26,5.26
30.68,7.40,7.40,2.14,2.15,-2.15,-1.93,-2.27,5.25,5.25,5.25
30.99,7.44,7.43,2.20,2.19,-2.19,-1.96,-2.28,5.25,5.25,5.24
31.30,7.47,7.47,2.23,2.23,-2.23,-1.99,-2.30,5.24,5.24,5.24
31.61,7.50,7.50,2.26,2.27,-2.26,-2.02,-2.31,5.23,5.23,5.24
31.93,7.53,7.53,2.30,2.30,-2.30,-2.06,-2.32,5.22,5.22,5.22
32.24,7.56,7.55,2.35,2.34,-2.34,-2.09,-2.33,5.22,5.22,5.21
32.57,7.58,7.58,2.37,2.37,-2.37,-2.12,-2.34,5.21,5.21,5.21
32.89,7.61,7.61,2.40,2.40,-2.40,-2.15,-2.34,5.20,5.20,5.21
33.22,7.64,7.63,2.44,2.44,-2.44,-2.19,-2.34,5.20,5.20,5.19
33.55,7.66,7.66,2.47,2.47,-2.47,-2.22,-2.34,5.19,5.19,5.19
33.89,7.68,7.68,2.50,2.50,-2.50,-2.25,-2.34,5.18,5.18,5.18
34.23,7.70,7.70,2.52,2.52,-2.53,-2.28,-2.34,5.17,5.17,5.18
34.57,7.72,7.72,2.55,2.55,-2.56,-2.32,-2.34,5.16,5.16,5.16
34.92,7.74,7.74,2.59,2.58,-2.59,-2.35,-2.33,5.15,5.15,5.15
35.27,7.76,7.76,2.61,2.61,-2.61,-2.38,-2.33,5.14,5.14,5.15
35.62,7.78,7.77,2.64,2.64,-2.64,-2.41,-2.32,5.14,5.13,5.13
35.97,7.79,7.79,2.67,2.67,-2.67,-2.44,-2.31,5.12,5.12,5.12
36.33,7.81,7.80,2.69,2.69,-2.69,-2.48,-2.30,5.11,5.11,5.11
36.70,7.82,7.82,2.72,2.72,-2.72,-2.51,-2.30,5.10,5.10,5.10
37.06,7.83,7.83,2.74,2.74,-2.74,-2.54,-2.29,5.09,5.09,5.09
37.43,7.84,7.84,2.75,2.76,-2.76,-2.57,-2.28,5.08,5.08,5.08
37.81,7.85,7.85,2.78,2.78,-2.77,-2.60,-2.28,5.07,5.07,5.07
38.19,7.85,7.85,2.79,2.79,-2.79,-2.63,-2.27,5.06,5.06,5.05
38.57,7.85,7.84,2.80,2.80,-2.80,-2.66,-2.27,5.05,5.05,5.05
38.95,7.84,7.84,2.80,2.80,-2.80,-2.69,-2.26,5.03,5.03,5.03
39.34,7.83,7.83,2.81,2.81,-2.81,-2.72,-2.26,5.02,5.02,5.02
39.74,7.82,7.82,2.81,2.81,-2.81,-2.75,-2.26,5.00,5.00,5.00
40.14,7.81,7.81,2.81,2.81,-2.82,-2.78,-2.26,4.99,4.99,5.00
40.54,7.80,7.80,2.81,2.82,-2.82,-2.80,-2.26,4.98,4.98,4.98
40.94,7.80,7.79,2.82,2.82,-2.82,-2.83,-2.26,4.98,4.98,4.98
41.35,7.79,7.79,2.83,2.82,-2.82,-2.86,-2.27,4.97,4.97,4.96
41.76,7.78,7.77,2.82,2.82,-2.82,-2.88,-2.27,4.96,4.96,4.95
42.18,7.76,7.76,2.81,2.82,-2.82,-2.91,-2.28,4.94,4.94,4.95
42.60,7.75,7.75,2.82,2.81,-2.82,-2.93,-2.29,4.93,4.93,4.93
43.03,7.74,7.74,2.81,2.82,-2.82,-2.96,-2.30,4.91,4.91,4.92
43.46,7.73,7.73,2.82,2.82,-2.82,-2.98,-2.32,4.90,4.90,4.91
43.90,7.72,7.71,2.84,2.83,-2.83,-3.01,-2.33,4.89,4.89,4.88
44.33,7.70,7.70,2.83,2.83,-2.83,-3.03,-2.35,4.87,4.87,4.86
44.78,7.68,7.68,2.83,2.84,-2.83,-3.05,-2.37,4.84,4.85,4.84
45.23,7.66,7.66,2.83,2.84,-2.83,-3.07,-2.39,4.82,4.83,4.83
45.68,7.65,7.64,2.84,2.84,-2.83,-3.09,-2.41,4.81,4.81,4.81
46.13,7.63,7.63,2.84,2.84,-2.83,-3.11,-2.43,4.79,4.79,4.79
46.60,7.61,7.61,2.83,2.83,-2.83,-3.13,-2.46,4.78,4.78,4.78
47.06,7.59,7.59,2.83,2.83,-2.83,-3.14,-2.49,4.76,4.76,4.76
47.53,7.57,7.57,2.83,2.82,-2.83,-3.16,-2.52,4.74,4.74,4.74
48.01,7.55,7.54,2.82,2.82,-2.83,-3.17,-2.55,4.72,4.72,4.73
48.49,7.52,7.52,2.82,2.82,-2.83,-3.19,-2.58,4.69,4.69,4.70
48.97,7.50,7.50,2.83,2.83,-2.83,-3.20,-2.61,4.67,4.67,4.67
49.46,7.48,7.48,2.84,2.84,-2.83,-3.21,-2.65,4.64,4.64,4.64
49.96,7.46,7.45,2.85,2.84,-2.84,-3.22,-2.68,4.62,4.62,4.60
50.46,7.43,7.43,2.84,2.84,-2.84,-3.23,-2.72,4.59,4.59,4.59
50.96,7.41,7.41,2.84,2.84,-2.84,-3.24,-2.75,4.56,4.56,4.57
51.47,7.39,7.39,2.85,2.84,-2.85,-3.25,-2.79,4.54,4.54,4.54
51.99,7.37,7.37,2.85,2.85,-2.85,-3.25,-2.83,4.51,4.51,4.51
52.51,7.35,7.35,2.85,2.86,-2.86,-3.26,-2.87,4.49,4.49,4.50
53.03,7.34,7.34,2.86,2.86,-2.87,-3.26,-2.90,4.47,4.47,4.47
53.56,7.33,7.33,2.88,2.88,-2.88,-3.27,-2.94,4.45,4.45,4.45
54.10,7.32,7.32,2.89,2.89,-2.89,-3.27,-2.97,4.43,4.43,4.42
54.64,7.31,7.31,2.91,2.91,-2.91,-3.27,-3.01,4.40,4.40,4.40
55.18,7.30,7.30,2.93,2.92,-2.92,-3.27,-3.04,4.37,4.37,4.37
55.74,7.29,7.29,2.94,2.94,-2.94,-3.26,-3.07,4.35,4.35,4.34
56.29,7.28,7.28,2.95,2.95,-2.96,-3.26,-3.10,4.32,4.32,4.33
56.86,7.27,7.27,2.97,2.97,-2.97,-3.25,-3.13,4.29,4.30,4.30
57.42,7.27,7.26,3.00,2.99,-2.99,-3.25,-3.15,4.28,4.28,4.27
58.00,7.26,7.26,3.01,3.01,-3.00,-3.24,-3.17,4.25,4.26,4.25
58.58,7.26,7.25,3.03,3.02,-3.02,-3.23,-3.19,4.24,4.23,4.23
59.16,7.25,7.25,3.04,3.04,-3.04,-3.22,-3.20,4.21,4.21,4.21
59.76,7.24,7.24,3.05,3.05,-3.06,-3.21,-3.21,4.18,4.18,4.19
60.35,7.23,7.23,3.07,3.07,-3.07,-3.19,-3.21,4.15,4.15,4.16
60.96,7.22,7.22,3.08,3.09,-3.09,-3.18,-3.21,4.13,4.13,4.14
61.57,7.21,7.20,3.11,3.11,-3.10,-3.16,-3.21,4.10,4.10,4.09
62.18,7.19,7.18,3.13,3.12,-3.12,-3.15,-3.19,4.07,4.07,4.06
62.80,7.16,7.16,3.12,3.13,-3.13,-3.13,-3.18,4.03,4.04,4.03
63.43,7.14,7.14,3.14,3.13,-3.13,-3.11,-3.16,4.01,4.00,4.00
64.07,7.11,7.11,3.13,3.13,-3.13,-3.08,-3.13,3.97,3.97,3.97
64.71,7.08,7.08,3.13,3.13,-3.13,-3.06,-3.10,3.95,3.95,3.95
65.35,7.04,7.04,3.12,3.12,-3.12,-3.03,-3.07,3.91,3.92,3.92
66.01,7.01,7.00,3.12,3.11,-3.12,-3.01,-3.03,3.89,3.89,3.89
66.67,6.97,6.97,3.11,3.10,-3.11,-2.98,-2.99,3.86,3.86,3.86
67.33,6.93,6.93,3.09,3.10,-3.10,-2.95,-2.94,3.83,3.83,3.83
68.01,6.89,6.89,3.09,3.08,-3.09,-2.92,-2.89,3.80,3.80,3.80
68.69,6.85,6.85,3.08,3.08,-3.08,-2.89,-2.83,3.77,3.77,3.77
69.37,6.80,6.80,3.06,3.06,-3.06,-2.85,-2.78,3.74,3.74,3.74
70.07,6.76,6.75,3.05,3.04,-3.04,-2.82,-2.71,3.72,3.72,3.71
70.77,6.70,6.70,3.02,3.02,-3.01,-2.78,-2.65,3.68,3.69,3.68
71.48,6.64,6.64,2.99,2.99,-2.99,-2.74,-2.58,3.65,3.65,3.65
72.19,6.57,6.56,2.95,2.95,-2.96,-2.70,-2.52,3.61,3.61,3.61
72.91,6.49,6.49,2.91,2.91,-2.92,-2.65,-2.45,3.56,3.57,3.58
73.64,6.42,6.42,2.88,2.88,-2.89,-2.61,-2.37,3.53,3.53,3.54
74.38,6.35,6.35,2.84,2.84,-2.84,-2.56,-2.30,3.50,3.51,3.51
75.12,6.29,6.28,2.81,2.81,-2.80,-2.51,-2.23,3.49,3.48,3.47
75.87,6.21,6.20,2.76,2.76,-2.75,-2.46,-2.15,3.45,3.45,3.44
76.63,6.12,6.12,2.70,2.71,-2.70,-2.41,-2.08,3.42,3.42,3.41
77.40,6.03,6.02,2.64,2.65,-2.65,-2.35,-2.00,3.38,3.38,3.38
78.17,5.93,5.93,2.59,2.58,-2.59,-2.30,-1.93,3.34,3.34,3.34
78.95,5.83,5.83,2.51,2.51,-2.52,-2.23,-1.85,3.30,3.31,3.32
79.74,5.73,5.73,2.44,2.44,-2.45,-2.17,-1.78,3.28,3.28,3.28
80.54,5.63,5.63,2.38,2.38,-2.37,-2.10,-1.70,3.25,3.25,3.25
81.35,5.52,5.52,2.30,2.30,-2.29,-2.03,-1.63,3.23,3.23,3.22
82.16,5.40,5.39,2.22,2.21,-2.20,-1.96,-1.55,3.20,3.19,3.18
82.98,5.26,5.26,2.10,2.11,-2.10,-1.89,-1.48,3.15,3.15,3.15
83.81,5.11,5.11,2.00,2.00,-2.00,-1.80,-1.41,3.10,3.11,3.11
84.65,4.96,4.96,1.89,1.88,-1.89,-1.72,-1.33,3.06,3.07,3.07
85.50,4.81,4.81,1.77,1.77,-1.78,-1.63,-1.26,3.03,3.03,3.04
86.35,4.65,4.65,1.65,1.65,-1.65,-1.54,-1.19,3.00,3.00,3.00
87.22,4.49,4.49,1.53,1.52,-1.52,-1.44,-1.12,2.97,2.97,2.96
88.09,4.32,4.31,1.40,1.39,-1.38,-1.34,-1.05,2.93,2.93,2.92
88.97,4.13,4.13,1.24,1.24,-1.24,-1.23,-0.98,2.88,2.89,2.89
89.86,3.94,3.94,1.09,1.09,-1.09,-1.12,-0.91,2.84,2.84,2.85
90.76,3.74,3.74,0.94,0.94,-0.94,-0.99,-0.84,2.80,2.80,2.80
91.66,3.54,3.53,0.77,0.78,-0.77,-0.87,-0.78,2.76,2.76,2.76
92.58,3.33,3.32,0.62,0.61,-0.60,-0.73,-0.71,2.73,2.72,2.71
93.51,3.10,3.10,0.42,0.43,-0.42,-0.59,-0.65,2.67,2.68,2.68
94.44,2.88,2.87,0.24,0.24,-0.24,-0.43,-0.58,2.63,2.63,2.63
95.39,2.64,2.64,0.05,0.05,-0.06,-0.27,-0.52,2.58,2.58,2.59
96.34,2.41,2.40,-0.13,-0.13,0.13,-0.10,-0.46,2.54,2.54,2.53
97.30,2.17,2.17,-0.32,-0.32,0.32,0.07,-0.39,2.49,2.49,2.49
98.28,1.93,1.93,-0.52,-0.51,0.52,0.26,-0.33,2.44,2.45,2.44
99.26,1.70,1.69,-0.70,-0.71,0.71,0.46,-0.27,2.41,2.40,2.40
100.25,1.46,1.46,-0.90,-0.90,0.90,0.66,-0.22,2.36,2.36,2.35
101.25,1.22,1.22,-1.09,-1.08,1.09,0.87,-0.16,2.31,2.31,2.31
102.27,0.99,0.98,-1.27,-1.27,1.28,1.08,-0.10,2.26,2.26,2.26
103.29,0.76,0.76,-1.45,-1.45,1.46,1.30,-0.05,2.21,2.21,2.20
104.32,0.54,0.54,-1.63,-1.62,1.62,1.52,0.01,2.16,2.17,2.17
105.37,0.34,0.33,-1.78,-1.79,1.78,1.73,0.06,2.12,2.11,2.12
106.42,0.15,0.14,-1.93,-1.93,1.92,1.93,0.11,2.07,2.06,2.07
107.48,-0.03,-0.03,-2.06,-2.05,2.04,2.13,0.16,2.01,2.02,2.03
108.56,-0.17,-0.18,-2.14,-2.15,2.14,2.29,0.21,1.97,1.97,1.97
109.64,-0.30,-0.30,-2.23,-2.23,2.23,2.45,0.25,1.92,1.92,1.93
110.74,-0.41,-0.41,-2.29,-2.29,2.29,2.55,0.30,1.87,1.88,1.88
111.85,-0.49,-0.50,-2.33,-2.32,2.32,2.65,0.34,1.83,1.83,1.83
112.97,-0.56,-0.56,-2.33,-2.34,2.34,2.68,0.38,1.78,1.78,1.77
114.10,-0.61,-0.61,-2.34,-2.34,2.34,2.70,0.42,1.72,1.72,1.72
115.24,-0.65,-0.65,-2.32,-2.32,2.31,2.65,0.45,1.66,1.66,1.67
116.39,-0.66,-0.67,-2.28,-2.28,2.27,2.59,0.48,1.61,1.61,1.61
117.55,-0.66,-0.66,-2.22,-2.22,2.21,2.47,0.51,1.55,1.56,1.56
118.73,-0.63,-0.63,-2.14,-2.14,2.14,2.35,0.53,1.51,1.51,1.51
119.92,-0.58,-0.59,-2.05,-2.05,2.05,2.19,0.56,1.47,1.46,1.46
121.12,-0.53,-0.53,-1.94,-1.94,1.95,2.02,0.58,1.41,1.41,1.41
122.33,-0.47,-0.47,-1.83,-1.83,1.83,1.84,0.59,1.36,1.36,1.36
123.55,-0.39,-0.39,-1.71,-1.71,1.70,1.66,0.60,1.31,1.31,1.32
124.79,-0.30,-0.31,-1.57,-1.57,1.57,1.47,0.61,1.27,1.26,1.26
126.03,-0.21,-0.21,-1.43,-1.43,1.43,1.28,0.62,1.21,1.21,1.21
127.29,-0.12,-0.12,-1.29,-1.28,1.28,1.10,0.62,1.16,1.16,1.16
128.57,-0.01,-0.01,-1.12,-1.12,1.13,0.92,0.62,1.11,1.11,1.10
129.85,0.10,0.09,-0.96,-0.97,0.97,0.75,0.61,1.07,1.06,1.06
131.15,0.20,0.20,-0.81,-0.81,0.81,0.58,0.61,1.01,1.01,1.01
132.46,0.31,0.31,-0.65,-0.65,0.65,0.43,0.60,0.96,0.96,0.96
133.79,0.43,0.42,-0.50,-0.50,0.49,0.28,0.58,0.92,0.92,0.92
135.12,0.54,0.54,-0.33,-0.34,0.33,0.14,0.57,0.87,0.87,0.87
136.48,0.65,0.65,-0.19,-0.18,0.18,0.01,0.55,0.83,0.83,0.83
137.84,0.76,0.76,-0.03,-0.02,0.03,-0.12,0.53,0.79,0.79,0.79
139.22,0.87,0.86,0.13,0.12,-0.12,-0.24,0.50,0.75,0.75,0.74
140.61,0.97,0.97,0.27,0.27,-0.26,-0.35,0.47,0.71,0.71,0.69
142.02,1.07,1.07,0.40,0.40,-0.40,-0.46,0.45,0.67,0.67,0.67
143.44,1.16,1.16,0.53,0.53,-0.53,-0.56,0.42,0.62,0.63,0.63
144.87,1.25,1.25,0.66,0.65,-0.66,-0.66,0.38,0.59,0.59,0.59
146.32,1.33,1.33,0.78,0.78,-0.78,-0.75,0.35,0.55,0.55,0.55
147.78,1.41,1.41,0.89,0.89,-0.89,-0.84,0.31,0.52,0.52,0.52
149.26,1.48,1.48,0.99,1.00,-1.00,-0.92,0.28,0.48,0.48,0.48
150.75,1.54,1.54,1.10,1.10,-1.10,-1.00,0.24,0.44,0.44,0.44
152.26,1.60,1.59,1.20,1.19,-1.19,-1.08,0.20,0.41,0.40,0.40
153.78,1.64,1.64,1.27,1.28,-1.28,-1.16,0.16,0.36,0.36,0.36
155.32,1.68,1.68,1.36,1.35,-1.35,-1.24,0.12,0.32,0.32,0.32
156.88,1.71,1.71,1.42,1.42,-1.42,-1.31,0.08,0.28,0.28,0.29
158.44,1.73,1.73,1.48,1.49,-1.49,-1.38,0.03,0.24,0.24,0.24
160.03,1.75,1.75,1.55,1.55,-1.54,-1.45,-0.01,0.20,0.20,0.20
161.63,1.76,1.75,1.60,1.60,-1.59,-1.52,-0.05,0.16,0.16,0.16
163.24,1.76,1.76,1.64,1.64,-1.64,-1.59,-0.10,0.12,0.12,0.12
164.88,1.76,1.76,1.67,1.67,-1.67,-1.65,-0.14,0.08,0.08,0.09
166.53,1.76,1.75,1.71,1.71,-1.71,-1.71,-0.19,0.05,0.05,0.05
168.19,1.75,1.75,1.74,1.74,-1.74,-1.78,-0.23,0.01,0.01,0.01
169.87,1.74,1.74,1.76,1.77,-1.77,-1.84,-0.28,-0.03,-0.03,-0.03
171.57,1.73,1.73,1.79,1.79,-1.79,-1.89,-0.33,-0.07,-0.07,-0.06
173.29,1.72,1.72,1.82,1.82,-1.82,-1.95,-0.37,-0.10,-0.10,-0.10
175.02,1.71,1.70,1.84,1.84,-1.85,-2.00,-0.42,-0.14,-0.14,-0.14
176.77,1.69,1.69,1.87,1.87,-1.87,-2.06,-0.47,-0.18,-0.18,-0.18
178.54,1.68,1.67,1.90,1.89,-1.89,-2.10,-0.52,-0.22,-0.22,-0.22
180.32,1.66,1.66,1.91,1.92,-1.92,-2.15,-0.57,-0.26,-0.26,-0.26
182.13,1.64,1.64,1.93,1.93,-1.94,-2.18,-0.62,-0.30,-0.30,-0.29
183.95,1.63,1.62,1.96,1.95,-1.96,-2.22,-0.67,-0.33,-0.33,-0.33
185.79,1.61,1.61,1.97,1.97,-1.97,-2.25,-0.72,-0.36,-0.36,-0.36
187.65,1.59,1.59,1.99,1.99,-1.99,-2.27,-0.77,-0.40,-0.40,-0.40
189.52,1.57,1.56,2.00,2.00,-2.00,-2.29,-0.82,-0.43,-0.43,-0.43
191.42,1.54,1.54,2.00,2.01,-2.01,-2.31,-0.87,-0.47,-0.47,-0.46
193.33,1.52,1.52,2.01,2.01,-2.01,-2.31,-0.92,-0.50,-0.50,-0.49
195.27,1.50,1.49,2.02,2.02,-2.02,-2.31,-0.97,-0.52,-0.52,-0.52
197.22,1.47,1.47,2.02,2.02,-2.01,-2.30,-1.02,-0.55,-0.55,-0.55
199.19,1.44,1.44,2.02,2.01,-2.01,-2.29,-1.07,-0.57,-0.57,-0.59
201.18,1.40,1.40,2.00,2.00,-2.00,-2.27,-1.12,-0.60,-0.60,-0.60
203.19,1.37,1.36,1.99,1.99,-1.99,-2.25,-1.16,-0.62,-0.62,-0.62
205.23,1.33,1.33,1.97,1.96,-1.97,-2.22,-1.21,-0.64,-0.64,-0.64
207.28,1.29,1.29,1.94,1.94,-1.95,-2.18,-1.26,-0.66,-0.66,-0.65
209.35,1.25,1.25,1.92,1.92,-1.92,-2.14,-1.31,-0.67,-0.67,-0.67
211.44,1.21,1.21,1.90,1.90,-1.89,-2.10,-1.36,-0.69,-0.69,-0.70
213.56,1.17,1.16,1.87,1.87,-1.86,-2.05,-1.40,-0.69,-0.70,-0.70
215.69,1.12,1.12,1.82,1.83,-1.83,-2.00,-1.44,-0.71,-0.71,-0.70
217.85,1.07,1.07,1.78,1.79,-1.79,-1.94,-1.49,-0.72,-0.72,-0.72
220.03,1.03,1.02,1.76,1.75,-1.75,-1.89,-1.53,-0.73,-0.73,-0.73
222.23,0.98,0.98,1.72,1.72,-1.71,-1.83,-1.56,-0.74,-0.73,-0.74
224.45,0.94,0.94,1.67,1.67,-1.67,-1.77,-1.60,-0.74,-0.74,-0.73
226.70,0.90,0.90,1.63,1.63,-1.64,-1.71,-1.63,-0.74,-0.74,-0.73
228.96,0.86,0.86,1.59,1.59,-1.60,-1.66,-1.66,-0.74,-0.74,-0.74
231.25,0.83,0.83,1.55,1.55,-1.56,-1.60,-1.69,-0.74,-0.74,-0.73
233.57,0.80,0.80,1.52,1.52,-1.53,-1.54,-1.72,-0.73,-0.73,-0.73
235.90,0.77,0.77,1.49,1.50,-1.49,-1.48,-1.74,-0.73,-0.72,-0.73
238.26,0.75,0.74,1.47,1.47,-1.46,-1.42,-1.76,-0.71,-0.71,-0.72
240.64,0.72,0.71,1.43,1.43,-1.42,-1.36,-1.77,-0.70,-0.71,-0.71
243.05,0.68,0.68,1.38,1.38,-1.38,-1.31,-1.78,-0.70,-0.70,-0.70
245.48,0.65,0.64,1.34,1.34,-1.34,-1.25,-1.78,-0.69,-0.69,-0.69
247.93,0.61,0.61,1.29,1.29,-1.29,-1.20,-1.79,-0.68,-0.68,-0.68
250.41,0.58,0.57,1.25,1.24,-1.24,-1.15,-1.78,-0.67,-0.67,-0.68
252.92,0.54,0.54,1.19,1.19,-1.19,-1.09,-1.78,-0.66,-0.65,-0.65
255.45,0.51,0.51,1.14,1.14,-1.15,-1.04,-1.77,-0.64,-0.64,-0.63
258.00,0.48,0.48,1.10,1.09,-1.10,-0.99,-1.75,-0.62,-0.62,-0.62
260.58,0.45,0.45,1.05,1.05,-1.05,-0.95,-1.73,-0.61,-0.60,-0.61
263.19,0.43,0.43,1.01,1.01,-1.01,-0.90,-1.71,-0.59,-0.59,-0.58
265.82,0.41,0.41,0.98,0.97,-0.97,-0.86,-1.69,-0.57,-0.57,-0.57
268.48,0.39,0.39,0.93,0.93,-0.94,-0.81,-1.66,-0.55,-0.55,-0.54
271.16,0.38,0.38,0.90,0.90,-0.90,-0.77,-1.62,-0.53,-0.53,-0.52
273.87,0.37,0.37,0.87,0.87,-0.87,-0.73,-1.59,-0.51,-0.51,-0.51
276.61,0.36,0.36,0.84,0.84,-0.84,-0.69,-1.55,-0.48,-0.48,-0.48
279.38,0.35,0.35,0.81,0.81,-0.81,-0.65,-1.51,-0.46,-0.46,-0.47
282.17,0.33,0.33,0.78,0.78,-0.77,-0.61,-1.46,-0.45,-0.44,-0.45
284.99,0.32,0.31,0.74,0.74,-0.74,-0.57,-1.42,-0.42,-0.43,-0.43
287.84,0.29,0.29,0.70,0.70,-0.70,-0.53,-1.37,-0.41,-0.41,-0.41
290.72,0.27,0.27,0.65,0.66,-0.66,-0.50,-1.32,-0.39,-0.39,-0.39
293.63,0.25,0.24,0.62,0.61,-0.61,-0.46,-1.27,-0.37,-0.37,-0.37
296.57,0.22,0.22,0.56,0.57,-0.57,-0.43,-1.22,-0.35,-0.35,-0.35
299.53,0.19,0.19,0.52,0.52,-0.52,-0.40,-1.16,-0.33,-0.33,-0.33
302.53,0.16,0.16,0.47,0.47,-0.47,-0.36,-1.11,-0.31,-0.31,-0.31
305.55,0.14,0.13,0.41,0.42,-0.41,-0.33,-1.05,-0.28,-0.28,-0.28
308.61,0.11,0.11,0.37,0.36,-0.36,-0.30,-0.99,-0.26,-0.26,-0.26
311.69,0.08,0.08,0.31,0.31,-0.31,-0.27,-0.94,-0.24,-0.23,-0.23
314.81,0.06,0.05,0.25,0.26,-0.26,-0.24,-0.88,-0.21,-0.21,-0.20
317.96,0.03,0.03,0.21,0.21,-0.21,-0.21,-0.82,-0.19,-0.19,-0.18
321.14,-0.00,0.00,0.16,0.16,-0.16,-0.18,-0.76,-0.17,-0.16,-0.16
324.35,-0.02,-0.03,0.12,0.12,-0.11,-0.15,-0.70,-0.14,-0.14,-0.15
327.59,-0.05,-0.05,0.07,0.07,-0.06,-0.12,-0.64,-0.12,-0.12,-0.12
330.87,-0.08,-0.08,0.02,0.02,-0.02,-0.09,-0.58,-0.10,-0.10,-0.10
334.18,-0.11,-0.11,-0.03,-0.03,0.03,-0.06,-0.53,-0.08,-0.08,-0.09
337.52,-0.14,-0.14,-0.08,-0.08,0.07,-0.04,-0.47,-0.07,-0.07,-0.07
340.90,-0.16,-0.17,-0.12,-0.12,0.12,-0.01,-0.41,-0.05,-0.05,-0.04
344.30,-0.19,-0.19,-0.17,-0.16,0.16,0.02,-0.35,-0.04,-0.03,-0.02
347.75,-0.20,-0.21,-0.20,-0.20,0.20,0.05,-0.29,-0.01,-0.01,-0.01
351.23,-0.22,-0.22,-0.24,-0.23,0.23,0.07,-0.23,0.01,0.01,0.01
354.74,-0.23,-0.24,-0.26,-0.27,0.27,0.10,-0.17,0.03,0.03,0.03
358.28,-0.25,-0.25,-0.30,-0.30,0.30,0.13,-0.12,0.05,0.05,0.05
361.87,-0.27,-0.27,-0.34,-0.34,0.34,0.15,-0.06,0.07,0.07,0.07
365.49,-0.29,-0.30,-0.38,-0.38,0.38,0.18,-0.00,0.09,0.09,0.08
369.14,-0.32,-0.32,-0.42,-0.42,0.43,0.21,0.06,0.10,0.10,0.09
372.83,-0.35,-0.36,-0.46,-0.46,0.47,0.23,0.11,0.12,0.12,0.11
376.56,-0.39,-0.39,-0.51,-0.52,0.52,0.26,0.17,0.13,0.13,0.12
380.33,-0.43,-0.43,-0.58,-0.57,0.57,0.28,0.23,0.14,0.14,0.15
384.13,-0.47,-0.47,-0.63,-0.62,0.62,0.31,0.28,0.15,0.15,0.16
387.97,-0.50,-0.51,-0.67,-0.67,0.67,0.34,0.34,0.16,0.16,0.16
391.85,-0.53,-0.54,-0.71,-0.71,0.70,0.36,0.40,0.17,0.17,0.17
395.77,-0.56,-0.56,-0.75,-0.75,0.73,0.39,0.45,0.17,0.17,0.19
399.73,-0.57,-0.57,-0.77,-0.77,0.75,0.41,0.51,0.18,0.18,0.20
403.72,-0.57,-0.57,-0.78,-0.78,0.77,0.44,0.56,0.19,0.20,0.21
407.76,-0.55,-0.55,-0.77,-0.77,0.77,0.47,0.61,0.22,0.22,0.22
411.84,-0.53,-0.54,-0.77,-0.77,0.77,0.49,0.67,0.24,0.24,0.24
415.96,-0.52,-0.52,-0.77,-0.76,0.78,0.52,0.72,0.25,0.26,0.24
420.12,-0.51,-0.51,-0.77,-0.77,0.78,0.55,0.77,0.27,0.27,0.25
424.32,-0.51,-0.52,-0.78,-0.78,0.79,0.57,0.82,0.27,0.27,0.26
428.56,-0.52,-0.52,-0.79,-0.79,0.80,0.60,0.87,0.28,0.28,0.27
432.85,-0.53,-0.53,-0.81,-0.81,0.82,0.63,0.92,0.28,0.28,0.28
437.18,-0.54,-0.55,-0.83,-0.84,0.84,0.65,0.97,0.29,0.29,0.29
441.55,-0.56,-0.56,-0.87,-0.86,0.86,0.68,1.02,0.30,0.30,0.31
445.96,-0.57,-0.57,-0.89,-0.89,0.88,0.71,1.06,0.31,0.31,0.32
450.42,-0.58,-0.58,-0.91,-0.91,0.91,0.73,1.11,0.33,0.33,0.33
454.93,-0.59,-0.59,-0.94,-0.94,0.94,0.76,1.15,0.34,0.34,0.35
459.48,-0.60,-0.60,-0.96,-0.96,0.96,0.79,1.19,0.36,0.36,0.35
464.07,-0.61,-0.61,-0.99,-0.98,0.98,0.81,1.23,0.37,0.37,0.37
468.71,-0.61,-0.62,-1.01,-1.01,1.01,0.84,1.26,0.39,0.39,0.39
473.40,-0.62,-0.62,-1.03,-1.03,1.03,0.87,1.30,0.41,0.41,0.40
478.13,-0.63,-0.63,-1.05,-1.05,1.05,0.89,1.33,0.42,0.42,0.42
482.91,-0.64,-0.64,-1.07,-1.07,1.07,0.92,1.36,0.43,0.43,0.43
487.74,-0.64,-0.65,-1.09,-1.10,1.09,0.95,1.38,0.45,0.45,0.45
492.62,-0.65,-0.65,-1.12,-1.12,1.11,0.98,1.41,0.46,0.46,0.47
497.55,-0.65,-0.65,-1.13,-1.13,1.13,1.00,1.43,0.48,0.48,0.48
502.52,-0.65,-0.65,-1.15,-1.15,1.14,1.03,1.45,0.49,0.49,0.50
507.55,-0.64,-0.64,-1.15,-1.15,1.16,1.06,1.46,0.51,0.51,0.51
512.62,-0.63,-0.64,-1.16,-1.17,1.17,1.08,1.48,0.53,0.53,0.53
517.75,-0.63,-0.63,-1.18,-1.17,1.18,1.11,1.49,0.54,0.55,0.55
522.93,-0.62,-0.62,-1.19,-1.18,1.19,1.13,1.50,0.56,0.56,0.57
