frequency,raw,error,smoothed,error_smoothed,equalization,parametric_eq,equalized_raw,equalized_smoothed,target
20.00,-2.37,-5.06,-2.37,-5.06,5.06,0.82,2.70,2.69,2.69
20.20,-2.25,-4.95,-2.25,-4.95,4.95,0.84,2.70,2.70,2.70
20.40,-2.12,-4.83,-2.12,-4.83,4.83,0.86,2.71,2.71,2.71
20.61,-2.00,-4.72,-1.99,-4.72,4.72,0.89,2.71,2.72,2.72
20.81,-1.87,-4.60,-1.87,-4.60,4.60,0.91,2.73,2.73,2.73
21.02,-1.75,-4.49,-1.74,-4.49,4.49,0.94,2.74,2.74,2.74
21.23,-1.62,-4.37,-1.62,-4.37,4.37,0.96,2.75,2.75,2.75
21.44,-1.50,-4.26,-1.50,-4.26,4.26,0.99,2.76,2.76,2.76
21.66,-1.38,-4.15,-1.37,-4.15,4.15,1.02,2.77,2.77,2.77
21.87,-1.25,-4.03,-1.25,-4.03,4.03,1.05,2.79,2.78,2.78
22.09,-1.13,-3.92,-1.13,-3.92,3.92,1.08,2.80,2.79,2.79
22.31,-1.01,-3.81,-1.01,-3.81,3.81,1.11,2.81,2.80,2.81
22.54,-0.89,-3.71,-0.89,-3.70,3.70,1.14,2.81,2.82,2.82
22.76,-0.77,-3.59,-0.77,-3.59,3.59,1.17,2.83,2.83,2.83
22.99,-0.65,-3.49,-0.65,-3.49,3.49,1.20,2.84,2.84,2.84
23.22,-0.53,-3.38,-0.53,-3.38,3.38,1.24,2.85,2.85,2.85
23.45,-0.41,-3.27,-0.41,-3.27,3.27,1.27,2.86,2.86,2.86
23.69,-0.29,-3.16,-0.29,-3.16,3.16,1.31,2.87,2.87,2.87
23.92,-0.18,-3.06,-0.18,-3.06,3.06,1.34,2.88,2.88,2.88
24.16,-0.06,-2.95,-0.06,-2.95,2.95,1.38,2.90,2.89,2.90
24.40,0.05,-2.85,0.05,-2.85,2.85,1.41,2.90,2.90,2.91
24.65,0.17,-2.75,0.17,-2.75,2.75,1.45,2.92,2.92,2.92
24.89,0.28,-2.64,0.28,-2.65,2.65,1.49,2.93,2.93,2.93
25.14,0.39,-2.55,0.39,-2.54,2.54,1.52,2.94,2.94,2.94
25.39,0.50,-2.45,0.50,-2.44,2.44,1.56,2.95,2.95,2.95
25.65,0.61,-2.35,0.61,-2.35,2.35,1.60,2.96,2.96,2.96
25.91,0.72,-2.25,0.72,-2.25,2.25,1.64,2.97,2.97,2.97
26.16,0.83,-2.15,0.83,-2.15,2.15,1.67,2.98,2.98,2.98
26.43,0.93,-2.06,0.93,-2.06,2.06,1.71,2.99,2.99,2.99
26.69,1.04,-1.96,1.04,-1.96,1.96,1.74,3.00,3.00,3.00
26.96,1.14,-1.87,1.14,-1.87,1.87,1.78,3.01,3.01,3.01
27.23,1.24,-1.78,1.24,-1.78,1.78,1.81,3.02,3.02,3.02
27.50,1.34,-1.69,1.34,-1.69,1.69,1.84,3.03,3.03,3.03
27.77,1.44,-1.60,1.43,-1.61,1.61,1.87,3.05,3.04,3.04
28.05,1.54,-1.51,1.53,-1.52,1.52,1.90,3.06,3.05,3.05
28.33,1.63,-1.43,1.62,-1.43,1.43,1.93,3.07,3.06,3.06
28.62,1.72,-1.35,1.72,-1.35,1.35,1.95,3.07,3.07,3.07
28.90,1.81,-1.27,1.81,-1.26,1.26,1.98,3.08,3.08,3.08
29.19,1.90,-1.19,1.90,-1.18,1.18,2.00,3.08,3.08,3.09
29.48,1.98,-1.12,2.00,-1.09,1.09,2.01,3.08,3.09,3.10
29.78,2.07,-1.04,2.09,-1.01,1.01,2.03,3.08,3.10,3.11
30.08,2.16,-0.97,2.19,-0.92,0.92,2.04,3.08,3.12,3.12
30.38,2.26,-0.88,2.29,-0.84,0.84,2.05,3.10,3.13,3.13
30.68,2.37,-0.77,2.38,-0.76,0.76,2.05,3.13,3.14,3.14
30.99,2.48,-0.68,2.47,-0.67,0.67,2.05,3.15,3.15,3.16
31.30,2.57,-0.60,2.56,-0.59,0.59,2.05,3.16,3.16,3.17
31.61,2.66,-0.52,2.65,-0.52,0.52,2.04,3.18,3.17,3.18
31.93,2.75,-0.44,2.74,-0.44,0.44,2.03,3.19,3.18,3.19
32.24,2.82,-0.37,2.82,-0.38,0.38,2.02,3.20,3.19,3.19
32.57,2.90,-0.30,2.89,-0.31,0.31,2.01,3.21,3.20,3.20
32.89,2.97,-0.24,2.95,-0.26,0.26,1.99,3.23,3.21,3.21
33.22,3.02,-0.20,3.01,-0.21,0.21,1.97,3.23,3.23,3.22
33.55,3.06,-0.17,3.06,-0.17,0.17,1.94,3.24,3.23,3.23
33.89,3.11,-0.13,3.10,-0.14,0.14,1.92,3.26,3.24,3.24
34.23,3.13,-0.12,3.12,-0.12,0.12,1.89,3.25,3.25,3.25
34.57,3.15,-0.10,3.14,-0.11,0.11,1.86,3.26,3.26,3.25
34.92,3.17,-0.09,3.16,-0.11,0.11,1.82,3.28,3.26,3.26
35.27,3.16,-0.11,3.16,-0.11,0.11,1.79,3.27,3.27,3.27
35.62,3.16,-0.12,3.16,-0.12,0.12,1.75,3.29,3.28,3.28
35.97,3.15,-0.14,3.14,-0.14,0.14,1.71,3.29,3.29,3.29
36.33,3.13,-0.16,3.13,-0.17,0.17,1.68,3.30,3.29,3.29
36.70,3.10,-0.20,3.10,-0.20,0.20,1.64,3.30,3.30,3.30
37.06,3.07,-0.24,3.07,-0.23,0.23,1.60,3.30,3.31,3.31
37.43,3.04,-0.27,3.04,-0.27,0.27,1.55,3.31,3.31,3.31
37.81,3.01,-0.31,3.01,-0.31,0.31,1.51,3.32,3.32,3.32
38.19,2.97,-0.36,2.97,-0.35,0.35,1.47,3.33,3.32,3.33
38.57,2.93,-0.40,2.93,-0.40,0.40,1.43,3.33,3.33,3.33
38.95,2.88,-0.46,2.89,-0.44,0.44,1.39,3.32,3.33,3.34
39.34,2.85,-0.49,2.86,-0.48,0.48,1.35,3.33,3.34,3.34
39.74,2.81,-0.54,2.82,-0.52,0.52,1.31,3.33,3.34,3.35
40.14,2.78,-0.57,2.79,-0.56,0.56,1.27,3.34,3.35,3.35
40.54,2.75,-0.61,2.76,-0.60,0.60,1.23,3.35,3.35,3.36
40.94,2.72,-0.64,2.73,-0.63,0.63,1.19,3.35,3.36,3.36
41.35,2.70,-0.67,2.70,-0.66,0.66,1.15,3.36,3.36,3.37
41.76,2.68,-0.69,2.68,-0.68,0.68,1.11,3.36,3.37,3.37
42.18,2.66,-0.72,2.66,-0.71,0.71,1.07,3.37,3.37,3.38
42.60,2.65,-0.73,2.65,-0.72,0.72,1.04,3.38,3.38,3.38
43.03,2.63,-0.75,2.64,-0.74,0.74,1.00,3.37,3.38,3.38
43.46,2.63,-0.76,2.64,-0.75,0.75,0.96,3.38,3.39,3.39
43.90,2.63,-0.76,2.63,-0.76,0.76,0.93,3.39,3.39,3.39
44.33,2.63,-0.77,2.63,-0.76,0.76,0.90,3.40,3.40,3.40
44.78,2.64,-0.76,2.64,-0.77,0.77,0.86,3.41,3.40,3.40
45.23,2.64,-0.77,2.64,-0.77,0.77,0.83,3.41,3.41,3.41
45.68,2.65,-0.76,2.65,-0.76,0.76,0.80,3.42,3.41,3.41
46.13,2.66,-0.75,2.65,-0.76,0.76,0.77,3.42,3.41,3.42
46.60,2.67,-0.75,2.66,-0.75,0.75,0.74,3.42,3.42,3.42
47.06,2.68,-0.74,2.68,-0.74,0.74,0.71,3.43,3.42,3.42
47.53,2.69,-0.74,2.69,-0.73,0.73,0.68,3.42,3.42,3.43
48.01,2.70,-0.73,2.71,-0.72,0.72,0.65,3.42,3.43,3.43
48.49,2.71,-0.72,2.72,-0.71,0.71,0.63,3.42,3.43,3.43
48.97,2.73,-0.70,2.74,-0.69,0.69,0.60,3.42,3.43,3.43
49.46,2.75,-0.68,2.76,-0.67,0.67,0.57,3.43,3.43,3.43
49.96,2.77,-0.66,2.78,-0.66,0.66,0.55,3.43,3.43,3.43
50.46,2.79,-0.64,2.79,-0.64,0.64,0.52,3.43,3.43,3.43
50.96,2.82,-0.61,2.81,-0.62,0.62,0.50,3.44,3.43,3.43
51.47,2.83,-0.60,2.83,-0.60,0.60,0.48,3.43,3.43,3.43
51.99,2.85,-0.58,2.85,-0.58,0.58,0.45,3.43,3.43,3.43
52.51,2.87,-0.55,2.86,-0.56,0.56,0.43,3.43,3.42,3.42
53.03,2.88,-0.54,2.88,-0.54,0.54,0.41,3.42,3.42,3.42
53.56,2.89,-0.52,2.89,-0.53,0.53,0.39,3.42,3.41,3.41
54.10,2.90,-0.50,2.90,-0.51,0.51,0.37,3.41,3.41,3.40
54.64,2.91,-0.48,2.90,-0.49,0.49,0.35,3.40,3.40,3.40
55.18,2.91,-0.48,2.91,-0.48,0.48,0.33,3.39,3.39,3.39
55.74,2.91,-0.46,2.91,-0.47,0.47,0.31,3.38,3.37,3.38
56.29,2.91,-0.45,2.91,-0.45,0.45,0.29,3.36,3.36,3.36
56.86,2.91,-0.44,2.91,-0.44,0.44,0.27,3.35,3.35,3.35
57.42,2.91,-0.42,2.91,-0.43,0.43,0.25,3.34,3.33,3.34
58.00,2.90,-0.42,2.90,-0.41,0.41,0.23,3.31,3.32,3.32
58.58,2.89,-0.41,2.90,-0.40,0.40,0.22,3.29,3.30,3.30
59.16,2.89,-0.40,2.90,-0.38,0.38,0.20,3.27,3.28,3.29
59.76,2.89,-0.38,2.90,-0.37,0.37,0.18,3.26,3.26,3.27
60.35,2.89,-0.36,2.89,-0.35,0.35,0.17,3.24,3.24,3.25
60.96,2.89,-0.33,2.89,-0.33,0.33,0.15,3.22,3.22,3.23
61.57,2.89,-0.31,2.89,-0.31,0.31,0.13,3.20,3.20,3.20
62.18,2.89,-0.29,2.89,-0.29,0.29,0.12,3.18,3.18,3.18
62.80,2.89,-0.26,2.89,-0.26,0.26,0.10,3.15,3.15,3.15
63.43,2.89,-0.24,2.89,-0.24,0.24,0.09,3.13,3.13,3.13
64.07,2.89,-0.21,2.89,-0.21,0.21,0.07,3.10,3.10,3.10
64.71,2.89,-0.18,2.89,-0.18,0.18,0.06,3.08,3.07,3.08
65.35,2.89,-0.16,2.89,-0.16,0.16,0.04,3.05,3.05,3.05
66.01,2.89,-0.13,2.89,-0.13,0.13,0.03,3.02,3.02,3.02
66.67,2.89,-0.10,2.89,-0.10,0.10,0.01,2.99,2.99,2.99
67.33,2.89,-0.07,2.89,-0.07,0.07,-0.00,2.96,2.96,2.96
68.01,2.89,-0.04,2.89,-0.04,0.04,-0.02,2.93,2.93,2.93
68.69,2.89,-0.01,2.89,-0.01,0.01,-0.03,2.90,2.90,2.90
69.37,2.89,0.02,2.89,0.02,-0.02,-0.04,2.87,2.87,2.87
70.07,2.89,0.05,2.89,0.05,-0.05,-0.06,2.84,2.84,2.84
70.77,2.89,0.08,2.89,0.08,-0.08,-0.07,2.81,2.81,2.81
71.48,2.89,0.11,2.89,0.11,-0.11,-0.09,2.78,2.78,2.78
72.19,2.89,0.14,2.89,0.14,-0.14,-0.10,2.75,2.75,2.75
72.91,2.89,0.17,2.89,0.17,-0.17,-0.11,2.72,2.72,2.72
73.64,2.89,0.20,2.89,0.20,-0.20,-0.13,2.69,2.69,2.69
74.38,2.89,0.22,2.89,0.22,-0.22,-0.14,2.67,2.67,2.67
75.12,2.89,0.25,2.89,0.25,-0.25,-0.16,2.64,2.64,2.64
75.87,2.89,0.28,2.89,0.28,-0.28,-0.17,2.61,2.61,2.61
76.63,2.89,0.30,2.89,0.30,-0.30,-0.18,2.59,2.59,2.59
77.40,2.89,0.33,2.89,0.33,-0.33,-0.20,2.56,2.56,2.56
78.17,2.89,0.35,2.89,0.35,-0.35,-0.21,2.54,2.54,2.54
78.95,2.89,0.37,2.89,0.37,-0.37,-0.23,2.52,2.52,2.52
79.74,2.89,0.39,2.89,0.39,-0.39,-0.24,2.50,2.50,2.50
80.54,2.89,0.41,2.89,0.41,-0.41,-0.26,2.48,2.48,2.48
81.35,2.89,0.43,2.89,0.43,-0.43,-0.27,2.46,2.46,2.46
82.16,2.89,0.45,2.89,0.45,-0.45,-0.29,2.44,2.44,2.44
82.98,2.89,0.47,2.89,0.47,-0.47,-0.31,2.42,2.42,2.42
83.81,2.89,0.48,2.89,0.48,-0.48,-0.32,2.41,2.40,2.41
84.65,2.89,0.50,2.89,0.50,-0.50,-0.34,2.39,2.39,2.39
85.50,2.89,0.51,2.89,0.52,-0.52,-0.35,2.38,2.38,2.38
86.35,2.89,0.53,2.89,0.53,-0.53,-0.37,2.36,2.36,2.37
87.22,2.89,0.54,2.90,0.54,-0.54,-0.39,2.35,2.35,2.35
88.09,2.89,0.55,2.90,0.56,-0.56,-0.41,2.33,2.34,2.34
88.97,2.89,0.56,2.90,0.57,-0.57,-0.42,2.32,2.33,2.33
89.86,2.89,0.57,2.90,0.58,-0.58,-0.44,2.31,2.32,2.32
90.76,2.89,0.57,2.91,0.59,-0.59,-0.46,2.30,2.32,2.32
91.66,2.90,0.59,2.90,0.59,-0.59,-0.48,2.31,2.31,2.31
92.58,2.91,0.61,2.90,0.60,-0.60,-0.50,2.31,2.30,2.30
93.51,2.91,0.62,2.89,0.60,-0.60,-0.52,2.31,2.29,2.30
94.44,2.91,0.62,2.88,0.60,-0.60,-0.54,2.31,2.29,2.29
95.39,2.89,0.61,2.87,0.59,-0.59,-0.56,2.30,2.28,2.28
96.34,2.87,0.60,2.86,0.59,-0.59,-0.58,2.28,2.27,2.27
97.30,2.85,0.59,2.84,0.58,-0.58,-0.60,2.27,2.26,2.26
98.28,2.82,0.57,2.82,0.57,-0.57,-0.62,2.25,2.25,2.25
99.26,2.79,0.56,2.79,0.56,-0.56,-0.64,2.23,2.24,2.24
100.25,2.76,0.54,2.77,0.55,-0.55,-0.66,2.21,2.22,2.22
101.25,2.73,0.53,2.74,0.54,-0.54,-0.68,2.19,2.20,2.20
102.27,2.70,0.52,2.71,0.53,-0.53,-0.70,2.17,2.18,2.19
103.29,2.68,0.52,2.68,0.52,-0.52,-0.72,2.16,2.15,2.16
104.32,2.66,0.52,2.65,0.52,-0.52,-0.75,2.14,2.13,2.14
105.37,2.63,0.51,2.63,0.52,-0.52,-0.77,2.11,2.10,2.12
106.42,2.60,0.51,2.61,0.53,-0.53,-0.79,2.07,2.08,2.09
107.48,2.57,0.51,2.59,0.54,-0.54,-0.81,2.03,2.05,2.06
108.56,2.55,0.52,2.58,0.56,-0.56,-0.83,1.99,2.02,2.03
109.64,2.54,0.54,2.57,0.58,-0.58,-0.86,1.96,1.99,2.00
110.74,2.54,0.58,2.56,0.60,-0.60,-0.88,1.94,1.96,1.96
111.85,2.55,0.62,2.55,0.63,-0.63,-0.90,1.92,1.92,1.93
112.97,2.56,0.67,2.55,0.66,-0.66,-0.92,1.90,1.89,1.89
114.10,2.56,0.70,2.55,0.70,-0.70,-0.94,1.86,1.85,1.86
115.24,2.56,0.74,2.55,0.73,-0.73,-0.96,1.83,1.82,1.82
116.39,2.56,0.78,2.55,0.77,-0.77,-0.98,1.79,1.78,1.79
117.55,2.56,0.81,2.55,0.80,-0.80,-1.00,1.76,1.75,1.75
118.73,2.56,0.85,2.56,0.84,-0.84,-1.01,1.72,1.72,1.71
119.92,2.56,0.88,2.56,0.88,-0.88,-1.03,1.68,1.68,1.68
121.12,2.56,0.92,2.56,0.91,-0.91,-1.05,1.65,1.65,1.64
122.33,2.56,0.95,2.56,0.95,-0.95,-1.06,1.62,1.62,1.61
123.55,2.56,0.98,2.56,0.98,-0.98,-1.08,1.58,1.58,1.58
124.79,2.56,1.01,2.56,1.01,-1.01,-1.10,1.55,1.55,1.55
126.03,2.56,1.04,2.56,1.04,-1.04,-1.11,1.52,1.52,1.52
127.29,2.56,1.07,2.56,1.06,-1.06,-1.12,1.50,1.50,1.50
128.57,2.56,1.09,2.56,1.09,-1.09,-1.14,1.47,1.47,1.47
129.85,2.56,1.11,2.56,1.11,-1.11,-1.15,1.45,1.45,1.45
131.15,2.56,1.14,2.56,1.14,-1.14,-1.16,1.42,1.42,1.42
132.46,2.56,1.16,2.56,1.16,-1.16,-1.17,1.40,1.40,1.40
133.79,2.56,1.18,2.56,1.18,-1.18,-1.18,1.38,1.38,1.38
135.12,2.56,1.20,2.56,1.20,-1.20,-1.19,1.36,1.36,1.36
136.48,2.56,1.22,2.56,1.23,-1.23,-1.20,1.34,1.34,1.34
137.84,2.56,1.24,2.56,1.25,-1.25,-1.21,1.31,1.31,1.32
139.22,2.56,1.27,2.56,1.27,-1.27,-1.22,1.29,1.29,1.30
140.61,2.56,1.29,2.56,1.29,-1.29,-1.23,1.27,1.27,1.27
142.02,2.56,1.31,2.56,1.31,-1.31,-1.24,1.25,1.25,1.25
143.44,2.56,1.33,2.56,1.33,-1.33,-1.25,1.23,1.23,1.23
144.87,2.56,1.35,2.56,1.35,-1.35,-1.26,1.21,1.21,1.21
146.32,2.56,1.37,2.56,1.37,-1.37,-1.27,1.19,1.19,1.19
147.78,2.56,1.40,2.56,1.40,-1.40,-1.28,1.16,1.16,1.16
149.26,2.56,1.42,2.56,1.42,-1.42,-1.30,1.14,1.14,1.14
150.75,2.56,1.44,2.56,1.44,-1.44,-1.31,1.12,1.12,1.12
152.26,2.56,1.46,2.56,1.46,-1.46,-1.32,1.10,1.10,1.10
153.78,2.56,1.49,2.56,1.49,-1.49,-1.33,1.07,1.07,1.07
155.32,2.56,1.51,2.56,1.51,-1.51,-1.35,1.05,1.05,1.05
156.88,2.56,1.54,2.56,1.53,-1.53,-1.36,1.03,1.03,1.03
158.44,2.56,1.56,2.56,1.56,-1.56,-1.38,1.00,1.00,1.00
160.03,2.56,1.58,2.56,1.58,-1.58,-1.40,0.98,0.98,0.98
161.63,2.56,1.61,2.56,1.61,-1.61,-1.41,0.95,0.95,0.95
163.24,2.56,1.63,2.56,1.63,-1.63,-1.43,0.93,0.93,0.93
164.88,2.56,1.66,2.56,1.66,-1.66,-1.45,0.90,0.90,0.90
166.53,2.56,1.68,2.56,1.69,-1.69,-1.47,0.87,0.87,0.88
168.19,2.56,1.71,2.56,1.71,-1.71,-1.50,0.85,0.85,0.85
169.87,2.56,1.74,2.56,1.74,-1.74,-1.52,0.82,0.82,0.82
171.57,2.56,1.77,2.56,1.77,-1.77,-1.55,0.79,0.79,0.79
173.29,2.56,1.80,2.56,1.80,-1.80,-1.57,0.76,0.76,0.76
175.02,2.56,1.83,2.56,1.83,-1.83,-1.60,0.73,0.73,0.73
176.77,2.56,1.86,2.56,1.86,-1.86,-1.63,0.70,0.70,0.70
178.54,2.56,1.89,2.56,1.89,-1.89,-1.66,0.67,0.67,0.67
180.32,2.56,1.92,2.56,1.92,-1.92,-1.69,0.64,0.64,0.64
182.13,2.56,1.96,2.56,1.96,-1.96,-1.72,0.61,0.61,0.60
183.95,2.56,1.99,2.56,1.99,-1.99,-1.75,0.57,0.57,0.57
185.79,2.56,2.02,2.56,2.02,-2.02,-1.79,0.54,0.54,0.54
187.65,2.56,2.06,2.56,2.05,-2.05,-1.83,0.51,0.51,0.51
189.52,2.56,2.09,2.56,2.09,-2.09,-1.86,0.47,0.47,0.47
191.42,2.56,2.12,2.56,2.12,-2.12,-1.90,0.44,0.44,0.44
193.33,2.56,2.16,2.56,2.16,-2.16,-1.94,0.40,0.40,0.40
195.27,2.56,2.19,2.56,2.19,-2.19,-1.98,0.37,0.37,0.37
197.22,2.56,2.23,2.56,2.23,-2.23,-2.02,0.33,0.33,0.34
199.19,2.56,2.26,2.56,2.26,-2.26,-2.06,0.30,0.30,0.30
201.18,2.56,2.30,2.56,2.30,-2.30,-2.11,0.26,0.26,0.26
203.19,2.56,2.33,2.56,2.34,-2.34,-2.15,0.23,0.23,0.23
205.23,2.56,2.37,2.56,2.37,-2.37,-2.19,0.19,0.19,0.20
207.28,2.56,2.40,2.56,2.41,-2.41,-2.24,0.15,0.15,0.16
209.35,2.56,2.44,2.56,2.45,-2.45,-2.28,0.12,0.12,0.12
211.44,2.56,2.48,2.56,2.48,-2.48,-2.32,0.08,0.08,0.08
213.56,2.56,2.52,2.56,2.52,-2.52,-2.36,0.04,0.04,0.05
215.69,2.56,2.55,2.56,2.55,-2.55,-2.41,0.01,0.01,0.01
217.85,2.56,2.59,2.56,2.59,-2.59,-2.45,-0.03,-0.03,-0.03
220.03,2.56,2.62,2.56,2.62,-2.62,-2.49,-0.06,-0.06,-0.06
222.23,2.56,2.66,2.56,2.65,-2.65,-2.53,-0.09,-0.09,-0.09
224.45,2.56,2.69,2.56,2.68,-2.68,-2.56,-0.12,-0.12,-0.12
226.70,2.56,2.71,2.56,2.71,-2.71,-2.60,-0.15,-0.15,-0.15
228.96,2.56,2.74,2.56,2.74,-2.74,-2.63,-0.17,-0.18,-0.18
231.25,2.56,2.76,2.56,2.76,-2.76,-2.66,-0.20,-0.20,-0.20
233.57,2.56,2.78,2.56,2.78,-2.78,-2.69,-0.22,-0.22,-0.22
235.90,2.56,2.80,2.57,2.80,-2.80,-2.72,-0.24,-0.23,-0.23
238.26,2.56,2.81,2.57,2.82,-2.82,-2.74,-0.26,-0.25,-0.25
240.64,2.56,2.82,2.57,2.83,-2.83,-2.76,-0.27,-0.26,-0.26
243.05,2.56,2.83,2.58,2.85,-2.85,-2.77,-0.29,-0.27,-0.27
245.48,2.57,2.84,2.58,2.86,-2.86,-2.79,-0.28,-0.27,-0.27
247.93,2.58,2.86,2.58,2.86,-2.86,-2.79,-0.28,-0.28,-0.27
250.41,2.59,2.87,2.58,2.86,-2.86,-2.80,-0.27,-0.28,-0.28
252.92,2.59,2.87,2.58,2.86,-2.86,-2.80,-0.27,-0.28,-0.28
255.45,2.58,2.86,2.57,2.86,-2.86,-2.80,-0.28,-0.29,-0.28
258.00,2.57,2.85,2.56,2.85,-2.85,-2.79,-0.27,-0.28,-0.28
260.58,2.55,2.83,2.55,2.83,-2.83,-2.78,-0.28,-0.28,-0.28
263.19,2.54,2.82,2.53,2.80,-2.80,-2.77,-0.26,-0.27,-0.28
265.82,2.51,2.79,2.50,2.77,-2.77,-2.76,-0.26,-0.27,-0.27
268.48,2.48,2.75,2.47,2.74,-2.74,-2.74,-0.25,-0.26,-0.27
271.16,2.44,2.71,2.43,2.69,-2.69,-2.72,-0.25,-0.26,-0.27
273.87,2.38,2.64,2.39,2.64,-2.64,-2.70,-0.26,-0.25,-0.26
276.61,2.35,2.60,2.34,2.58,-2.58,-2.67,-0.23,-0.25,-0.25
279.38,2.30,2.54,2.28,2.52,-2.52,-2.64,-0.22,-0.24,-0.24
282.17,2.25,2.48,2.22,2.45,-2.45,-2.61,-0.20,-0.23,-0.23
284.99,2.18,2.40,2.16,2.38,-2.38,-2.58,-0.20,-0.22,-0.22
287.84,2.09,2.30,2.10,2.31,-2.31,-2.55,-0.22,-0.21,-0.21
290.72,2.02,2.22,2.03,2.24,-2.24,-2.52,-0.22,-0.21,-0.20
293.63,1.95,2.14,1.97,2.17,-2.17,-2.48,-0.22,-0.20,-0.18
296.57,1.89,2.07,1.91,2.10,-2.10,-2.45,-0.21,-0.19,-0.17
299.53,1.84,2.01,1.85,2.03,-2.03,-2.42,-0.19,-0.18,-0.17
302.53,1.78,1.94,1.79,1.97,-1.97,-2.38,-0.19,-0.17,-0.16
305.55,1.74,1.89,1.75,1.91,-1.91,-2.35,-0.17,-0.16,-0.15
308.61,1.69,1.84,1.70,1.86,-1.86,-2.32,-0.17,-0.16,-0.15
311.69,1.64,1.78,1.66,1.81,-1.81,-2.28,-0.17,-0.15,-0.14
314.81,1.62,1.76,1.63,1.78,-1.78,-2.25,-0.15,-0.15,-0.14
317.96,1.60,1.73,1.60,1.74,-1.74,-2.22,-0.14,-0.14,-0.13
321.14,1.58,1.71,1.58,1.72,-1.72,-2.19,-0.14,-0.13,-0.13
324.35,1.57,1.70,1.57,1.70,-1.70,-2.16,-0.13,-0.13,-0.13
327.59,1.57,1.70,1.56,1.69,-1.69,-2.13,-0.12,-0.13,-0.13
330.87,1.56,1.69,1.56,1.68,-1.68,-2.10,-0.12,-0.13,-0.13
334.18,1.56,1.69,1.56,1.68,-1.68,-2.08,-0.12,-0.12,-0.13
337.52,1.56,1.68,1.56,1.68,-1.68,-2.05,-0.12,-0.12,-0.12
340.90,1.57,1.69,1.57,1.69,-1.69,-2.03,-0.12,-0.12,-0.12
344.30,1.58,1.70,1.59,1.71,-1.71,-2.01,-0.13,-0.12,-0.12
347.75,1.59,1.71,1.60,1.73,-1.73,-1.99,-0.14,-0.13,-0.12
351.23,1.61,1.73,1.63,1.75,-1.75,-1.97,-0.14,-0.13,-0.12
354.74,1.64,1.76,1.65,1.78,-1.78,-1.95,-0.14,-0.13,-0.12
358.28,1.67,1.80,1.68,1.81,-1.81,-1.94,-0.14,-0.14,-0.12
361.87,1.70,1.83,1.71,1.85,-1.85,-1.92,-0.15,-0.14,-0.13
365.49,1.74,1.88,1.74,1.89,-1.89,-1.91,-0.15,-0.14,-0.14
369.14,1.77,1.91,1.78,1.93,-1.93,-1.90,-0.15,-0.15,-0.14
372.83,1.81,1.96,1.81,1.96,-1.96,-1.89,-0.15,-0.15,-0.15
376.56,1.85,2.01,1.84,2.00,-2.00,-1.88,-0.15,-0.16,-0.16
380.33,1.87,2.04,1.87,2.04,-2.04,-1.88,-0.17,-0.17,-0.17
384.13,1.90,2.08,1.89,2.07,-2.07,-1.87,-0.17,-0.18,-0.18
387.97,1.92,2.11,1.91,2.10,-2.10,-1.87,-0.18,-0.19,-0.19
391.85,1.94,2.14,1.93,2.13,-2.13,-1.87,-0.18,-0.20,-0.20
395.77,1.96,2.17,1.94,2.15,-2.15,-1.86,-0.18,-0.21,-0.21
399.73,1.96,2.18,1.94,2.16,-2.16,-1.86,-0.20,-0.22,-0.22
403.72,1.95,2.18,1.94,2.17,-2.17,-1.87,-0.22,-0.23,-0.23
407.76,1.92,2.17,1.93,2.17,-2.17,-1.87,-0.25,-0.24,-0.25
411.84,1.90,2.16,1.91,2.17,-2.17,-1.87,-0.27,-0.25,-0.26
415.96,1.88,2.15,1.89,2.16,-2.16,-1.87,-0.27,-0.26,-0.27
420.12,1.85,2.13,1.86,2.14,-2.14,-1.88,-0.29,-0.28,-0.28
424.32,1.83,2.12,1.83,2.11,-2.11,-1.88,-0.28,-0.28,-0.29
428.56,1.81,2.11,1.79,2.08,-2.08,-1.89,-0.27,-0.29,-0.30
432.85,1.77,2.07,1.75,2.05,-2.05,-1.89,-0.28,-0.30,-0.30
437.18,1.72,2.03,1.70,2.01,-2.01,-1.90,-0.29,-0.31,-0.31
441.55,1.67,1.99,1.66,1.97,-1.97,-1.90,-0.30,-0.31,-0.31
445.96,1.62,1.94,1.61,1.93,-1.93,-1.91,-0.31,-0.32,-0.32
450.42,1.56,1.88,1.57,1.88,-1.88,-1.91,-0.32,-0.32,-0.32
454.93,1.51,1.83,1.52,1.84,-1.84,-1.92,-0.33,-0.32,-0.32
459.48,1.46,1.77,1.48,1.80,-1.80,-1.92,-0.34,-0.32,-0.31
464.07,1.41,1.72,1.43,1.75,-1.75,-1.92,-0.34,-0.32,-0.31
468.71,1.38,1.69,1.39,1.71,-1.71,-1.92,-0.33,-0.32,-0.31
473.40,1.34,1.64,1.36,1.68,-1.68,-1.93,-0.34,-0.32,-0.30
478.13,1.32,1.62,1.33,1.65,-1.65,-1.93,-0.33,-0.32,-0.30
482.91,1.30,1.60,1.31,1.62,-1.62,-1.93,-0.32,-0.31,-0.29
487.74,1.29,1.58,1.29,1.60,-1.60,-1.92,-0.30,-0.31,-0.29
492.62,1.27,1.56,1.28,1.58,-1.58,-1.92,-0.31,-0.30,-0.29
497.55,1.25,1.54,1.27,1.56,-1.56,-1.92,-0.31,-0.29,-0.29
502.52,1.24,1.53,1.26,1.55,-1.55,-1.91,-0.31,-0.29,-0.29
507.55,1.25,1.54,1.25,1.54,-1.54,-1.90,-0.29,-0.28,-0.29
512.62,1.26,1.54,1.25,1.53,-1.53,-1.89,-0.27,-0.28,-0.28
517.75,1.26,1.54,1.25,1.52,-1.52,-1.88,-0.26,-0.28,-0.28
522.93,1.27,1.55,1.24,1.52,-1.52,-1.87,-0.25,-0.28,-0.28
528.16,1.27,1.54,1.24,1.52,-1.52,-1.86,-0.25,-0.27,-0.27
533.44,1.27,1.54,1.24,1.52,-1.52,-1.85,-0.24,-0.27,-0.27
538.77,1.26,1.53,1.25,1.52,-1.52,-1.83,-0.25,-0.27,-0.26
544.16,1.24,1.50,1.25,1.52,-1.52,-1.82,-0.28,-0.27,-0.26
549.60,1.24,1.50,1.26,1.52,-1.52,-1.80,-0.28,-0.26,-0.26
555.10,1.24,1.49,1.27,1.53,-1.53,-1.78,-0.29,-0.26,-0.25
560.65,1.26,1.51,1.28,1.53,-1.53,-1.77,-0.27,-0.26,-0.25
566.25,1.27,1.52,1.29,1.54,-1.54,-1.75,-0.27,-0.25,-0.25
571.92,1.29,1.53,1.30,1.56,-1.56,-1.73,-0.27,-0.25,-0.24
577.64,1.32,1.56,1.32,1.57,-1.57,-1.71,-0.25,-0.25,-0.24
583.41,1.35,1.59,1.35,1.59,-1.59,-1.69,-0.24,-0.25,-0.24
589.25,1.38,1.62,1.37,1.62,-1.62,-1.68,-0.24,-0.24,-0.23
595.14,1.41,1.64,1.40,1.64,-1.64,-1.66,-0.23,-0.24,-0.23
601.09,1.45,1.68,1.43,1.67,-1.67,-1.64,-0.22,-0.23,-0.23
607.10,1.47,1.70,1.47,1.70,-1.70,-1.62,-0.22,-0.23,-0.23
613.17,1.49,1.72,1.50,1.72,-1.72,-1.61,-0.23,-0.22,-0.23
619.30,1.52,1.75,1.53,1.75,-1.75,-1.59,-0.23,-0.22,-0.23
625.50,1.56,1.78,1.57,1.78,-1.78,-1.57,-0.22,-0.22,-0.22
631.75,1.60,1.82,1.60,1.81,-1.81,-1.56,-0.21,-0.21,-0.22
638.07,1.64,1.85,1.63,1.84,-1.84,-1.55,-0.20,-0.21,-0.21
644.45,1.67,1.87,1.66,1.86,-1.86,-1.53,-0.19,-0.20,-0.20
650.89,1.70,1.89,1.70,1.89,-1.89,-1.52,-0.19,-0.19,-0.19
657.40,1.73,1.91,1.73,1.91,-1.91,-1.51,-0.18,-0.18,-0.18
663.98,1.75,1.92,1.76,1.94,-1.94,-1.50,-0.18,-0.17,-0.17
670.62,1.78,1.94,1.79,1.96,-1.96,-1.49,-0.18,-0.16,-0.16
677.32,1.81,1.97,1.82,1.98,-1.98,-1.48,-0.17,-0.16,-0.15
684.10,1.84,1.99,1.84,2.00,-2.00,-1.47,-0.16,-0.15,-0.15
690.94,1.87,2.01,1.86,2.01,-2.01,-1.47,-0.14,-0.15,-0.14
697.85,1.90,2.04,1.88,2.03,-2.03,-1.46,-0.13,-0.15,-0.14
704.83,1.92,2.06,1.90,2.05,-2.05,-1.46,-0.13,-0.15,-0.14
711.87,1.93,2.08,1.91,2.07,-2.07,-1.46,-0.13,-0.15,-0.14
718.99,1.94,2.09,1.92,2.08,-2.08,-1.46,-0.14,-0.16,-0.15
726.18,1.93,2.09,1.93,2.10,-2.10,-1.46,-0.17,-0.16,-0.16
733.44,1.92,2.09,1.94,2.11,-2.11,-1.46,-0.19,-0.17,-0.16
