frequency,raw,error,smoothed,error_smoothed,equalization,parametric_eq,equalized_raw,equalized_smoothed,target
20,-8.43,-9.95,-8.18,-9.62,6.00,1.93,-2.43,-2.18,1.52
21,-7.65,-9.17,-7.56,-9.01,6.00,2.24,-1.65,-1.56,1.52
22,-6.87,-8.39,-6.97,-8.43,6.00,2.58,-0.87,-0.97,1.52
23,-6.25,-7.77,-6.40,-7.88,6.00,2.94,-0.25,-0.40,1.52
24,-5.73,-7.25,-5.86,-7.35,6.00,3.33,0.27,0.14,1.52
25,-5.26,-6.78,-5.34,-6.84,5.93,3.72,0.67,0.58,1.52
26,-4.78,-6.30,-4.85,-6.36,5.77,4.11,0.99,0.92,1.52
27,-4.25,-5.77,-4.38,-5.90,5.55,4.47,1.30,1.17,1.52
28,-3.98,-5.50,-3.94,-5.46,5.29,4.78,1.31,1.35,1.52
29,-3.59,-5.11,-3.52,-5.05,4.99,5.01,1.40,1.46,1.52
30,-3.17,-4.69,-3.13,-4.66,4.66,5.16,1.49,1.53,1.52
31,-2.75,-4.27,-2.79,-4.31,4.31,5.20,1.56,1.51,1.52
32,-2.48,-4.00,-2.48,-3.98,3.98,5.13,1.50,1.50,1.52
33,-2.13,-3.65,-2.18,-3.68,3.68,4.98,1.55,1.51,1.52
34,-1.95,-3.47,-1.89,-3.40,3.40,4.75,1.45,1.51,1.52
35,-1.62,-3.14,-1.61,-3.13,3.13,4.47,1.51,1.52,1.52
36,-1.31,-2.83,-1.36,-2.87,2.87,4.16,1.56,1.51,1.52
37,-1.16,-2.68,-1.11,-2.63,2.63,3.83,1.47,1.52,1.52
38,-0.86,-2.38,-0.88,-2.40,2.40,3.49,1.54,1.52,1.52
39,-0.65,-2.17,-0.66,-2.18,2.18,3.16,1.53,1.52,1.52
40,-0.44,-1.96,-0.46,-1.98,1.98,2.83,1.54,1.51,1.52
41,-0.32,-1.84,-0.27,-1.78,1.78,2.51,1.46,1.51,1.52
42,-0.05,-1.57,-0.08,-1.59,1.59,2.21,1.54,1.51,1.52
43,0.10,-1.42,0.11,-1.40,1.40,1.92,1.50,1.51,1.52
44,0.32,-1.20,0.29,-1.22,1.22,1.64,1.54,1.51,1.52
45,0.40,-1.12,0.46,-1.05,1.05,1.38,1.45,1.51,1.52
46,0.65,-0.87,0.63,-0.87,0.87,1.13,1.52,1.50,1.52
47,0.73,-0.79,0.80,-0.70,0.70,0.88,1.43,1.51,1.52
48,0.97,-0.55,0.97,-0.54,0.54,0.65,1.51,1.51,1.52
49,1.10,-0.42,1.14,-0.37,0.37,0.43,1.47,1.51,1.52
50,1.30,-0.22,1.30,-0.21,0.21,0.22,1.51,1.51,1.52
51,1.49,-0.03,1.46,-0.05,0.05,0.01,1.54,1.51,1.52
52,1.62,0.10,1.61,0.11,-0.11,-0.18,1.51,1.51,1.52
53,1.76,0.24,1.78,0.26,-0.26,-0.37,1.50,1.52,1.52
54,1.95,0.43,1.93,0.41,-0.41,-0.54,1.54,1.51,1.52
55,2.09,0.57,2.07,0.55,-0.55,-0.71,1.54,1.51,1.52
56,2.27,0.75,2.21,0.69,-0.69,-0.86,1.58,1.51,1.52
57,2.27,0.75,2.35,0.82,-0.82,-1.00,1.45,1.52,1.52
58,2.45,0.93,2.47,0.95,-0.95,-1.14,1.50,1.52,1.52
59,2.59,1.07,2.59,1.07,-1.07,-1.26,1.52,1.52,1.52
60,2.68,1.16,2.69,1.18,-1.18,-1.37,1.50,1.51,1.52
61,2.86,1.34,2.79,1.29,-1.29,-1.46,1.57,1.51,1.52
62,2.92,1.40,2.90,1.39,-1.39,-1.55,1.53,1.51,1.52
63,2.92,1.40,2.99,1.48,-1.48,-1.63,1.44,1.51,1.52
64,3.08,1.56,3.08,1.57,-1.57,-1.70,1.51,1.51,1.52
65,3.24,1.72,3.17,1.65,-1.65,-1.76,1.59,1.51,1.52
66,3.24,1.72,3.24,1.73,-1.73,-1.81,1.51,1.52,1.52
67,3.24,1.72,3.32,1.79,-1.79,-1.86,1.45,1.53,1.52
68,3.28,1.76,3.37,1.85,-1.85,-1.89,1.43,1.52,1.52
69,3.44,1.92,3.42,1.91,-1.91,-1.93,1.53,1.51,1.52
70,3.57,2.05,3.45,1.95,-1.95,-1.96,1.62,1.50,1.52
71,3.57,2.05,3.49,1.99,-1.99,-1.99,1.58,1.49,1.52
72,3.57,2.05,3.52,2.03,-2.03,-2.01,1.54,1.49,1.52
73,3.57,2.05,3.56,2.07,-2.07,-2.03,1.50,1.50,1.52
74,3.57,2.05,3.59,2.10,-2.10,-2.06,1.47,1.49,1.52
75,3.57,2.05,3.62,2.13,-2.13,-2.08,1.44,1.49,1.52
76,3.57,2.05,3.66,2.16,-2.16,-2.10,1.41,1.50,1.52
77,3.57,2.05,3.69,2.19,-2.19,-2.12,1.38,1.51,1.52
78,3.69,2.17,3.72,2.22,-2.22,-2.15,1.47,1.50,1.52
79,3.73,2.21,3.72,2.24,-2.24,-2.17,1.49,1.48,1.52
80,3.82,2.30,3.74,2.27,-2.27,-2.20,1.55,1.47,1.52
81,3.89,2.37,3.78,2.30,-2.30,-2.23,1.59,1.48,1.52
82,3.89,2.37,3.82,2.33,-2.33,-2.26,1.56,1.48,1.52
83,3.89,2.37,3.86,2.37,-2.37,-2.30,1.52,1.49,1.52
84,3.89,2.37,3.91,2.41,-2.41,-2.33,1.48,1.50,1.52
85,3.89,2.37,3.95,2.44,-2.44,-2.37,1.45,1.51,1.52
86,3.89,2.37,3.99,2.48,-2.48,-2.41,1.41,1.51,1.52
87,3.89,2.37,4.02,2.51,-2.51,-2.45,1.38,1.51,1.52
88,3.95,2.43,4.04,2.55,-2.55,-2.50,1.40,1.49,1.52
89,4.20,2.68,4.06,2.58,-2.58,-2.54,1.62,1.48,1.52
90,4.22,2.70,4.10,2.61,-2.61,-2.59,1.61,1.48,1.52
91,4.22,2.70,4.14,2.65,-2.65,-2.64,1.57,1.48,1.52
92,4.22,2.70,4.18,2.69,-2.69,-2.70,1.53,1.49,1.52
93,4.22,2.70,4.23,2.73,-2.73,-2.75,1.49,1.51,1.52
94,4.22,2.70,4.28,2.77,-2.77,-2.81,1.45,1.51,1.52
95,4.22,2.70,4.32,2.80,-2.80,-2.87,1.42,1.51,1.52
96,4.25,2.73,4.35,2.84,-2.84,-2.92,1.41,1.51,1.52
97,4.37,2.85,4.38,2.88,-2.88,-2.98,1.49,1.50,1.52
98,4.49,2.97,4.41,2.92,-2.92,-3.05,1.57,1.49,1.52
99,4.54,3.02,4.44,2.96,-2.96,-3.11,1.58,1.49,1.52
100,4.54,3.02,4.49,3.00,-3.00,-3.17,1.54,1.49,1.52
101,4.54,3.02,4.54,3.04,-3.04,-3.23,1.50,1.50,1.52
102,4.54,3.02,4.60,3.09,-3.09,-3.29,1.45,1.51,1.52
104,4.54,3.02,4.65,3.13,-3.13,-3.42,1.41,1.52,1.52
105,4.62,3.10,4.69,3.17,-3.17,-3.48,1.45,1.52,1.52
106,4.72,3.20,4.72,3.21,-3.21,-3.54,1.51,1.51,1.52
107,4.83,3.31,4.74,3.24,-3.24,-3.60,1.59,1.50,1.52
108,4.86,3.34,4.76,3.27,-3.27,-3.65,1.59,1.49,1.52
109,4.86,3.34,4.79,3.31,-3.31,-3.71,1.55,1.48,1.52
110,4.86,3.34,4.82,3.34,-3.34,-3.76,1.52,1.48,1.52
111,4.86,3.34,4.86,3.37,-3.37,-3.81,1.49,1.49,1.52
112,4.86,3.34,4.90,3.41,-3.41,-3.86,1.45,1.49,1.52
113,4.86,3.34,4.94,3.44,-3.44,-3.90,1.42,1.50,1.52
114,4.86,3.34,4.97,3.47,-3.47,-3.94,1.39,1.50,1.52
115,4.86,3.34,5.00,3.51,-3.51,-3.98,1.35,1.49,1.52
117,5.03,3.51,5.03,3.54,-3.54,-4.04,1.49,1.49,1.52
118,5.12,3.60,5.05,3.57,-3.57,-4.07,1.55,1.49,1.52
119,5.19,3.67,5.09,3.59,-3.59,-4.09,1.60,1.49,1.52
120,5.19,3.67,5.12,3.62,-3.62,-4.10,1.57,1.50,1.52
121,5.19,3.67,5.15,3.64,-3.64,-4.11,1.55,1.50,1.52
123,5.19,3.67,5.17,3.66,-3.66,-4.12,1.53,1.51,1.52
124,5.19,3.67,5.19,3.68,-3.68,-4.12,1.51,1.51,1.52
125,5.19,3.67,5.21,3.69,-3.69,-4.11,1.50,1.52,1.52
126,5.19,3.67,5.21,3.70,-3.70,-4.10,1.49,1.52,1.52
128,5.19,3.67,5.21,3.70,-3.70,-4.07,1.49,1.51,1.52
129,5.19,3.67,5.20,3.70,-3.70,-4.05,1.49,1.50,1.52
130,5.19,3.67,5.20,3.70,-3.70,-4.02,1.49,1.49,1.52
131,5.19,3.67,5.20,3.70,-3.70,-3.99,1.49,1.50,1.52
133,5.19,3.67,5.21,3.70,-3.70,-3.92,1.49,1.51,1.52
134,5.19,3.67,5.21,3.70,-3.70,-3.88,1.49,1.52,1.52
135,5.19,3.67,5.21,3.69,-3.69,-3.83,1.50,1.52,1.52
137,5.19,3.67,5.19,3.68,-3.68,-3.74,1.51,1.51,1.52
138,5.19,3.67,5.17,3.67,-3.67,-3.69,1.52,1.51,1.52
140,5.19,3.67,5.15,3.65,-3.65,-3.58,1.54,1.50,1.52
141,5.19,3.67,5.12,3.63,-3.63,-3.53,1.56,1.50,1.52
142,5.19,3.67,5.10,3.60,-3.60,-3.47,1.59,1.50,1.52
144,5.11,3.59,5.08,3.57,-3.57,-3.36,1.54,1.50,1.52
145,5.04,3.52,5.05,3.54,-3.54,-3.30,1.50,1.50,1.52
147,4.88,3.36,5.01,3.50,-3.50,-3.18,1.38,1.50,1.52
148,4.86,3.34,4.96,3.47,-3.47,-3.12,1.39,1.50,1.52
150,4.86,3.34,4.92,3.42,-3.42,-3.00,1.44,1.50,1.52
151,4.86,3.34,4.88,3.38,-3.38,-2.94,1.48,1.50,1.52
153,4.86,3.34,4.83,3.33,-3.33,-2.82,1.53,1.50,1.52
154,4.86,3.34,4.78,3.28,-3.28,-2.76,1.58,1.50,1.52
156,4.85,3.33,4.73,3.23,-3.23,-2.64,1.62,1.50,1.52
157,4.71,3.19,4.68,3.18,-3.18,-2.58,1.53,1.50,1.52
159,4.54,3.02,4.63,3.12,-3.12,-2.47,1.42,1.51,1.52
160,4.54,3.02,4.58,3.06,-3.06,-2.41,1.48,1.52,1.52
162,4.54,3.02,4.52,3.00,-3.00,-2.30,1.54,1.52,1.52
164,4.46,2.94,4.45,2.93,-2.93,-2.19,1.53,1.52,1.52
165,4.39,2.87,4.38,2.86,-2.86,-2.14,1.53,1.51,1.52
167,4.25,2.73,4.30,2.79,-2.79,-2.03,1.46,1.51,1.52
169,4.22,2.70,4.22,2.72,-2.72,-1.93,1.50,1.50,1.52
170,4.21,2.69,4.15,2.65,-2.65,-1.88,1.56,1.50,1.52
172,4.08,2.56,4.08,2.57,-2.57,-1.78,1.51,1.51,1.52
174,3.95,2.43,4.01,2.50,-2.50,-1.68,1.45,1.51,1.52
175,3.89,2.37,3.94,2.42,-2.42,-1.64,1.47,1.52,1.52
177,3.89,2.37,3.85,2.34,-2.34,-1.55,1.55,1.51,1.52
179,3.79,2.27,3.77,2.26,-2.26,-1.46,1.53,1.51,1.52
181,3.67,2.15,3.69,2.17,-2.17,-1.37,1.50,1.52,1.52
183,3.57,2.05,3.59,2.08,-2.08,-1.29,1.49,1.51,1.52
184,3.57,2.05,3.51,1.99,-1.99,-1.25,1.58,1.52,1.52
186,3.48,1.96,3.41,1.89,-1.89,-1.17,1.59,1.51,1.52
188,3.24,1.72,3.30,1.79,-1.79,-1.09,1.45,1.51,1.52
190,3.24,1.72,3.20,1.68,-1.68,-1.01,1.56,1.52,1.52
192,3.08,1.56,3.09,1.58,-1.58,-0.94,1.50,1.52,1.52
194,2.92,1.40,2.98,1.47,-1.47,-0.87,1.45,1.51,1.52
196,2.92,1.40,2.86,1.36,-1.36,-0.80,1.56,1.50,1.52
198,2.71,1.19,2.75,1.25,-1.25,-0.73,1.46,1.51,1.52
200,2.59,1.07,2.65,1.13,-1.13,-0.66,1.46,1.51,1.52
202,2.59,1.07,2.53,1.02,-1.02,-0.60,1.57,1.51,1.52
204,2.36,0.84,2.42,0.91,-0.91,-0.54,1.45,1.51,1.52
206,2.27,0.75,2.31,0.79,-0.79,-0.48,1.48,1.51,1.52
208,2.25,0.73,2.19,0.67,-0.67,-0.42,1.58,1.51,1.52
210,2.03,0.51,2.07,0.55,-0.55,-0.36,1.48,1.51,1.52
212,1.95,0.43,1.95,0.43,-0.43,-0.31,1.52,1.52,1.52
214,1.93,0.41,1.82,0.30,-0.30,-0.25,1.63,1.51,1.52
216,1.72,0.20,1.68,0.17,-0.17,-0.20,1.55,1.51,1.52
218,1.57,0.05,1.56,0.04,-0.04,-0.15,1.53,1.52,1.52
221,1.41,-0.11,1.43,-0.09,0.09,-0.08,1.50,1.52,1.52
223,1.31,-0.21,1.29,-0.22,0.22,-0.03,1.53,1.51,1.52
225,1.12,-0.40,1.17,-0.35,0.35,0.01,1.47,1.52,1.52
227,0.97,-0.55,1.03,-0.48,0.48,0.05,1.45,1.51,1.52
229,0.97,-0.55,0.91,-0.60,0.60,0.09,1.57,1.50,1.52
232,0.76,-0.76,0.79,-0.71,0.71,0.15,1.47,1.51,1.52
234,0.65,-0.87,0.69,-0.82,0.82,0.19,1.47,1.50,1.52
236,0.65,-0.87,0.59,-0.91,0.91,0.22,1.56,1.50,1.52
239,0.53,-0.99,0.52,-0.99,0.99,0.27,1.52,1.51,1.52
241,0.43,-1.09,0.45,-1.06,1.06,0.30,1.49,1.51,1.52
244,0.32,-1.20,0.40,-1.12,1.12,0.34,1.44,1.51,1.52
246,0.32,-1.20,0.35,-1.16,1.16,0.37,1.48,1.51,1.52
248,0.32,-1.20,0.31,-1.19,1.19,0.39,1.51,1.51,1.52
251,0.32,-1.20,0.30,-1.21,1.21,0.43,1.53,1.51,1.52
253,0.32,-1.20,0.29,-1.21,1.21,0.45,1.53,1.51,1.52
256,0.32,-1.20,0.31,-1.21,1.21,0.48,1.53,1.51,1.52
259,0.32,-1.20,0.32,-1.19,1.19,0.50,1.51,1.51,1.52
261,0.32,-1.20,0.34,-1.16,1.16,0.52,1.48,1.50,1.52
264,0.32,-1.20,0.38,-1.13,1.13,0.54,1.45,1.51,1.52
266,0.36,-1.16,0.43,-1.08,1.08,0.55,1.44,1.51,1.52
269,0.48,-1.04,0.48,-1.03,1.03,0.57,1.51,1.52,1.52
272,0.61,-0.91,0.54,-0.98,0.98,0.58,1.59,1.52,1.52
274,0.65,-0.87,0.60,-0.93,0.93,0.59,1.58,1.52,1.52
277,0.65,-0.87,0.66,-0.87,0.87,0.61,1.52,1.53,1.52
280,0.65,-0.87,0.71,-0.81,0.81,0.62,1.46,1.52,1.52
283,0.73,-0.79,0.76,-0.76,0.76,0.63,1.49,1.52,1.52
286,0.85,-0.67,0.80,-0.70,0.70,0.64,1.55,1.51,1.52
288,0.93,-0.59,0.85,-0.65,0.65,0.64,1.58,1.50,1.52
291,0.97,-0.55,0.89,-0.60,0.60,0.65,1.57,1.50,1.52
294,0.97,-0.55,0.94,-0.55,0.55,0.66,1.52,1.49,1.52
297,0.97,-0.55,0.98,-0.50,0.50,0.67,1.47,1.48,1.52
300,0.97,-0.55,1.03,-0.46,0.46,0.67,1.43,1.49,1.52
303,0.97,-0.55,1.08,-0.42,0.42,0.68,1.39,1.50,1.52
306,0.97,-0.55,1.12,-0.39,0.39,0.68,1.36,1.51,1.52
309,1.07,-0.45,1.15,-0.36,0.36,0.69,1.43,1.51,1.52
312,1.18,-0.34,1.16,-0.34,0.34,0.70,1.52,1.49,1.52
316,1.30,-0.22,1.16,-0.32,0.32,0.70,1.62,1.48,1.52
319,1.30,-0.22,1.16,-0.32,0.32,0.71,1.62,1.48,1.52
322,1.30,-0.22,1.16,-0.32,0.32,0.72,1.62,1.48,1.52
325,1.27,-0.25,1.15,-0.33,0.33,0.72,1.60,1.48,1.52
328,1.17,-0.35,1.15,-0.34,0.34,0.73,1.51,1.49,1.52
332,1.03,-0.49,1.14,-0.36,0.36,0.74,1.39,1.50,1.52
335,0.97,-0.55,1.12,-0.39,0.39,0.75,1.36,1.51,1.52
338,0.97,-0.55,1.09,-0.42,0.42,0.76,1.39,1.51,1.52
342,0.97,-0.55,1.04,-0.46,0.46,0.77,1.43,1.50,1.52
345,0.97,-0.55,0.99,-0.49,0.49,0.78,1.46,1.48,1.52
349,0.97,-0.55,0.94,-0.54,0.54,0.79,1.51,1.48,1.52
352,0.97,-0.55,0.90,-0.58,0.58,0.80,1.55,1.48,1.52
356,0.97,-0.55,0.86,-0.61,0.61,0.82,1.58,1.47,1.52
359,0.96,-0.56,0.83,-0.64,0.64,0.83,1.60,1.48,1.52
363,0.84,-0.68,0.82,-0.67,0.67,0.84,1.51,1.49,1.52
366,0.74,-0.78,0.80,-0.70,0.70,0.86,1.44,1.50,1.52
370,0.65,-0.87,0.78,-0.74,0.74,0.87,1.39,1.51,1.52
374,0.65,-0.87,0.74,-0.77,0.77,0.89,1.42,1.51,1.52
377,0.65,-0.87,0.71,-0.80,0.80,0.90,1.45,1.51,1.52
381,0.65,-0.87,0.66,-0.83,0.83,0.92,1.48,1.50,1.52
385,0.65,-0.87,0.62,-0.87,0.87,0.94,1.52,1.49,1.52
389,0.65,-0.87,0.58,-0.91,0.91,0.96,1.56,1.49,1.52
393,0.65,-0.87,0.54,-0.94,0.94,0.98,1.59,1.49,1.52
397,0.64,-0.88,0.51,-0.98,0.98,1.00,1.62,1.49,1.52
401,0.52,-1.00,0.48,-1.01,1.01,1.02,1.53,1.50,1.52
405,0.41,-1.11,0.46,-1.05,1.05,1.04,1.46,1.51,1.52
409,0.32,-1.20,0.43,-1.08,1.08,1.06,1.40,1.51,1.52
413,0.32,-1.20,0.40,-1.11,1.11,1.08,1.43,1.51,1.52
417,0.32,-1.20,0.37,-1.14,1.14,1.10,1.46,1.50,1.52
421,0.32,-1.20,0.34,-1.16,1.16,1.12,1.48,1.50,1.52
425,0.32,-1.20,0.32,-1.17,1.17,1.14,1.49,1.49,1.52
430,0.32,-1.20,0.30,-1.19,1.19,1.17,1.51,1.49,1.52
434,0.32,-1.20,0.30,-1.19,1.19,1.19,1.51,1.49,1.52
438,0.32,-1.20,0.31,-1.19,1.19,1.21,1.51,1.50,1.52
443,0.32,-1.20,0.32,-1.19,1.19,1.23,1.51,1.51,1.52
447,0.32,-1.20,0.34,-1.19,1.19,1.25,1.51,1.53,1.52
451,0.32,-1.20,0.34,-1.19,1.19,1.27,1.51,1.53,1.52
456,0.32,-1.20,0.33,-1.20,1.20,1.29,1.52,1.53,1.52
460,0.32,-1.20,0.31,-1.21,1.21,1.30,1.53,1.52,1.52
465,0.32,-1.20,0.29,-1.22,1.22,1.32,1.54,1.52,1.52
470,0.32,-1.20,0.26,-1.25,1.25,1.34,1.57,1.51,1.52
474,0.32,-1.20,0.23,-1.27,1.27,1.35,1.59,1.51,1.52
479,0.30,-1.22,0.20,-1.30,1.30,1.36,1.60,1.50,1.52
484,0.18,-1.34,0.17,-1.33,1.33,1.38,1.51,1.50,1.52
489,0.07,-1.45,0.13,-1.37,1.37,1.39,1.44,1.50,1.52
494,0.00,-1.52,0.10,-1.40,1.40,1.40,1.40,1.50,1.52
499,0.00,-1.52,0.07,-1.43,1.43,1.41,1.43,1.50,1.52
504,0.00,-1.52,0.04,-1.46,1.46,1.41,1.46,1.50,1.52
509,0.00,-1.52,0.02,-1.48,1.48,1.42,1.48,1.50,1.52
514,0.00,-1.52,-0.00,-1.50,1.50,1.42,1.50,1.50,1.52
519,0.00,-1.52,-0.02,-1.52,1.52,1.43,1.52,1.50,1.52
524,0.00,-1.52,-0.02,-1.52,1.52,1.43,1.52,1.50,1.52
529,0.00,-1.52,-0.02,-1.53,1.53,1.43,1.53,1.51,1.52
535,0.00,-1.52,-0.01,-1.53,1.53,1.43,1.53,1.52,1.52
540,0.00,-1.52,-0.00,-1.53,1.53,1.43,1.53,1.52,1.52
545,0.00,-1.52,0.00,-1.53,1.53,1.42,1.53,1.53,1.52
551,0.00,-1.52,0.00,-1.52,1.52,1.42,1.52,1.52,1.52
556,0.00,-1.52,0.00,-1.52,1.52,1.42,1.52,1.52,1.52
562,0.00,-1.52,0.00,-1.52,1.52,1.41,1.52,1.52,1.52
568,0.00,-1.52,0.00,-1.52,1.52,1.41,1.52,1.52,1.52
573,0.00,-1.52,0.00,-1.52,1.52,1.40,1.52,1.52,1.52
579,0.00,-1.52,0.00,-1.52,1.52,1.40,1.52,1.52,1.52
585,0.00,-1.52,0.00,-1.52,1.52,1.39,1.52,1.52,1.52
591,0.00,-1.52,0.00,-1.52,1.52,1.39,1.52,1.52,1.52
596,0.00,-1.52,0.00,-1.52,1.52,1.38,1.52,1.52,1.52
602,0.00,-1.52,0.00,-1.52,1.52,1.38,1.52,1.52,1.52
608,0.00,-1.52,0.00,-1.52,1.52,1.37,1.52,1.52,1.52
615,0.00,-1.52,0.00,-1.52,1.52,1.37,1.52,1.52,1.52
621,0.00,-1.52,0.00,-1.52,1.52,1.37,1.52,1.52,1.52
627,0.00,-1.52,0.00,-1.52,1.52,1.36,1.52,1.52,1.52
633,0.00,-1.52,0.00,-1.52,1.52,1.36,1.52,1.52,1.52
639,0.00,-1.52,0.00,-1.52,1.52,1.36,1.52,1.52,1.52
646,0.00,-1.52,0.00,-1.52,1.52,1.36,1.52,1.52,1.52
652,0.00,-1.52,0.00,-1.52,1.52,1.36,1.52,1.52,1.52
659,0.00,-1.52,0.00,-1.52,1.52,1.36,1.52,1.52,1.52
665,0.00,-1.52,0.00,-1.52,1.52,1.37,1.52,1.52,1.52
672,0.00,-1.52,0.00,-1.52,1.52,1.37,1.52,1.52,1.52
679,0.00,-1.52,0.00,-1.52,1.52,1.38,1.52,1.52,1.52
686,0.00,-1.52,0.00,-1.52,1.52,1.38,1.52,1.52,1.52
692,0.00,-1.52,0.00,-1.52,1.52,1.39,1.52,1.52,1.52
699,0.00,-1.52,0.00,-1.52,1.52,1.40,1.52,1.52,1.52
706,0.00,-1.52,0.00,-1.52,1.52,1.41,1.52,1.52,1.52
713,0.00,-1.52,0.00,-1.52,1.52,1.42,1.52,1.52,1.52
721,0.00,-1.52,0.00,-1.52,1.52,1.43,1.52,1.52,1.52
728,0.00,-1.52,0.00,-1.52,1.52,1.45,1.52,1.52,1.52
735,0.00,-1.52,0.00,-1.52,1.52,1.46,1.52,1.52,1.52
742,0.00,-1.52,0.00,-1.52,1.52,1.47,1.52,1.52,1.52
750,0.00,-1.52,0.00,-1.52,1.52,1.49,1.52,1.52,1.52
757,0.00,-1.52,0.00,-1.52,1.52,1.51,1.52,1.52,1.52
765,0.00,-1.52,0.00,-1.52,1.52,1.53,1.52,1.52,1.52
773,0.00,-1.52,0.00,-1.52,1.52,1.55,1.52,1.52,1.52
780,0.00,-1.52,0.00,-1.52,1.52,1.57,1.52,1.52,1.52
788,0.00,-1.52,0.00,-1.52,1.52,1.59,1.52,1.52,1.52
796,0.00,-1.52,0.00,-1.52,1.52,1.61,1.52,1.52,1.52
804,0.00,-1.52,0.00,-1.52,1.52,1.63,1.52,1.52,1.52
812,0.00,-1.52,0.00,-1.52,1.52,1.65,1.52,1.52,1.52
820,0.00,-1.52,0.00,-1.52,1.52,1.68,1.52,1.52,1.52
828,0.00,-1.52,0.00,-1.52,1.52,1.70,1.52,1.52,1.52
837,0.00,-1.52,0.00,-1.52,1.52,1.72,1.52,1.52,1.52
845,0.00,-1.52,0.00,-1.52,1.52,1.74,1.52,1.52,1.52
853,0.00,-1.52,0.00,-1.52,1.52,1.76,1.52,1.52,1.52
862,0.00,-1.52,0.00,-1.52,1.52,1.79,1.52,1.52,1.52
871,0.00,-1.52,0.00,-1.52,1.52,1.81,1.52,1.52,1.52
879,0.00,-1.52,0.00,-1.52,1.52,1.82,1.52,1.52,1.52
888,0.00,-1.52,0.00,-1.52,1.52,1.84,1.52,1.52,1.52
897,0.00,-1.52,0.00,-1.52,1.52,1.86,1.52,1.52,1.52
906,0.00,-1.52,0.00,-1.53,1.53,1.87,1.53,1.53,1.52
915,0.00,-1.52,-0.00,-1.53,1.53,1.89,1.53,1.53,1.52
924,0.00,-1.52,-0.01,-1.53,1.53,1.90,1.53,1.52,1.52
933,0.00,-1.52,-0.02,-1.53,1.53,1.91,1.53,1.51,1.52
943,0.00,-1.52,-0.02,-1.53,1.53,1.91,1.53,1.50,1.52
952,0.00,-1.52,-0.02,-1.52,1.52,1.91,1.52,1.50,1.52
962,0.00,-1.52,-0.01,-1.51,1.51,1.91,1.51,1.50,1.52
971,0.00,-1.52,0.01,-1.49,1.49,1.91,1.49,1.50,1.52
981,0.00,-1.52,0.03,-1.47,1.47,1.90,1.47,1.50,1.52
991,0.00,-1.52,0.06,-1.45,1.45,1.89,1.45,1.50,1.52
1001,0.00,-1.52,0.09,-1.42,1.42,1.88,1.42,1.51,1.52
1011,0.03,-1.49,0.12,-1.39,1.39,1.86,1.42,1.51,1.52
1021,0.14,-1.38,0.15,-1.35,1.35,1.84,1.49,1.51,1.52
1031,0.25,-1.27,0.19,-1.32,1.32,1.82,1.57,1.51,1.52
1041,0.32,-1.20,0.22,-1.29,1.29,1.79,1.61,1.51,1.52
1052,0.32,-1.20,0.25,-1.26,1.26,1.76,1.58,1.51,1.52
1062,0.32,-1.20,0.28,-1.24,1.24,1.73,1.56,1.52,1.52
1073,0.32,-1.20,0.30,-1.22,1.22,1.69,1.54,1.52,1.52
1084,0.32,-1.20,0.32,-1.20,1.20,1.65,1.52,1.53,1.52
1094,0.32,-1.20,0.34,-1.19,1.19,1.62,1.51,1.53,1.52
1105,0.32,-1.20,0.34,-1.19,1.19,1.57,1.51,1.53,1.52
1116,0.32,-1.20,0.34,-1.18,1.18,1.53,1.50,1.52,1.52
1128,0.32,-1.20,0.33,-1.18,1.18,1.47,1.50,1.51,1.52
1139,0.32,-1.20,0.32,-1.19,1.19,1.43,1.51,1.51,1.52
1150,0.32,-1.20,0.32,-1.19,1.19,1.38,1.51,1.51,1.52
1162,0.32,-1.20,0.32,-1.20,1.20,1.32,1.52,1.52,1.52
1173,0.32,-1.20,0.32,-1.20,1.20,1.27,1.52,1.52,1.52
1185,0.32,-1.20,0.31,-1.21,1.21,1.21,1.53,1.51,1.52
1197,0.32,-1.20,0.31,-1.21,1.21,1.15,1.53,1.51,1.52
1209,0.32,-1.20,0.31,-1.21,1.21,1.09,1.53,1.51,1.52
1221,0.32,-1.20,0.31,-1.20,1.20,1.04,1.52,1.51,1.52
1233,0.32,-1.20,0.32,-1.19,1.19,0.98,1.51,1.51,1.52
1246,0.32,-1.20,0.33,-1.18,1.18,0.91,1.50,1.50,1.52
1258,0.32,-1.20,0.34,-1.16,1.16,0.86,1.48,1.50,1.52
1271,0.32,-1.20,0.36,-1.14,1.14,0.79,1.46,1.50,1.52
1283,0.32,-1.20,0.39,-1.12,1.12,0.74,1.44,1.51,1.52
1296,0.40,-1.12,0.42,-1.09,1.09,0.68,1.49,1.51,1.52
1309,0.49,-1.03,0.45,-1.06,1.06,0.61,1.55,1.51,1.52
1322,0.49,-1.03,0.48,-1.04,1.04,0.55,1.53,1.52,1.52
1335,0.49,-1.03,0.51,-1.01,1.01,0.49,1.50,1.52,1.52
1349,0.53,-0.99,0.55,-0.98,0.98,0.43,1.51,1.53,1.52
1362,0.63,-0.89,0.57,-0.96,0.96,0.37,1.59,1.53,1.52
1376,0.65,-0.87,0.60,-0.93,0.93,0.31,1.58,1.53,1.52
1390,0.65,-0.87,0.61,-0.91,0.91,0.25,1.56,1.52,1.52
1404,0.65,-0.87,0.62,-0.90,0.90,0.19,1.55,1.52,1.52
1418,0.65,-0.87,0.63,-0.88,0.88,0.13,1.53,1.51,1.52
1432,0.65,-0.87,0.64,-0.86,0.86,0.07,1.51,1.50,1.52
1446,0.65,-0.87,0.66,-0.85,0.85,0.01,1.50,1.50,1.52
1461,0.65,-0.87,0.68,-0.83,0.83,-0.06,1.48,1.51,1.52
1475,0.65,-0.87,0.70,-0.81,0.81,-0.11,1.46,1.51,1.52
1490,0.65,-0.87,0.72,-0.79,0.79,-0.18,1.44,1.51,1.52
1505,0.65,-0.87,0.74,-0.76,0.76,-0.24,1.41,1.50,1.52
1520,0.74,-0.78,0.77,-0.73,0.73,-0.30,1.47,1.50,1.52
1535,0.85,-0.67,0.80,-0.70,0.70,-0.35,1.55,1.50,1.52
1550,0.96,-0.56,0.85,-0.66,0.66,-0.41,1.62,1.51,1.52
1566,0.97,-0.55,0.90,-0.61,0.61,-0.47,1.58,1.51,1.52
1582,0.97,-0.55,0.94,-0.57,0.57,-0.53,1.54,1.51,1.52
1597,0.97,-0.55,0.99,-0.52,0.52,-0.59,1.49,1.51,1.52
1613,0.97,-0.55,1.04,-0.47,0.47,-0.65,1.44,1.52,1.52
1629,1.03,-0.49,1.10,-0.42,0.42,-0.70,1.45,1.52,1.52
1646,1.15,-0.37,1.16,-0.37,0.37,-0.76,1.52,1.53,1.52
1662,1.26,-0.26,1.22,-0.31,0.31,-0.82,1.57,1.53,1.52
1679,1.30,-0.22,1.26,-0.26,0.26,-0.87,1.56,1.52,1.52
1696,1.30,-0.22,1.30,-0.21,0.21,-0.93,1.51,1.51,1.52
1713,1.30,-0.22,1.35,-0.16,0.16,-0.98,1.46,1.50,1.52
1730,1.39,-0.13,1.41,-0.10,0.10,-1.03,1.49,1.51,1.52
1747,1.50,-0.02,1.47,-0.04,0.04,-1.08,1.54,1.51,1.52
1764,1.61,0.09,1.52,0.01,-0.01,-1.13,1.60,1.50,1.52
1782,1.62,0.10,1.57,0.07,-0.07,-1.18,1.55,1.50,1.52
1800,1.62,0.10,1.62,0.13,-0.13,-1.22,1.49,1.49,1.52
1818,1.62,0.10,1.67,0.19,-0.19,-1.26,1.43,1.48,1.52
1836,1.62,0.10,1.73,0.25,-0.25,-1.30,1.37,1.48,1.52
1854,1.75,0.23,1.79,0.32,-0.32,-1.34,1.43,1.47,1.52
1873,1.95,0.43,1.87,0.39,-0.39,-1.37,1.56,1.48,1.52
1892,1.95,0.43,1.93,0.46,-0.46,-1.40,1.49,1.47,1.52
1911,1.95,0.43,2.00,0.53,-0.53,-1.43,1.42,1.47,1.52
1930,2.01,0.49,2.07,0.61,-0.61,-1.46,1.40,1.46,1.52
1949,2.23,0.71,2.14,0.69,-0.69,-1.48,1.54,1.46,1.52
1969,2.27,0.75,2.23,0.77,-0.77,-1.50,1.50,1.47,1.52
1988,2.31,0.79,2.33,0.85,-0.85,-1.51,1.46,1.48,1.52
2008,2.42,0.90,2.43,0.94,-0.94,-1.52,1.48,1.49,1.52
2028,2.54,1.02,2.52,1.03,-1.03,-1.53,1.51,1.49,1.52
2048,2.59,1.07,2.61,1.12,-1.12,-1.53,1.47,1.49,1.52
2069,2.60,1.08,2.71,1.21,-1.21,-1.53,1.39,1.49,1.52
2090,2.83,1.31,2.82,1.31,-1.31,-1.53,1.52,1.51,1.52
2111,2.92,1.40,2.92,1.40,-1.40,-1.52,1.52,1.52,1.52
2132,2.96,1.44,3.01,1.50,-1.50,-1.52,1.46,1.51,1.52
