frequency,raw,error,smoothed,error_smoothed,equalization,parametric_eq,fixed_band_eq,equalized_raw,equalized_smoothed,target
20.00,-0.75,-2.90,-0.75,-2.92,2.92,3.10,0.81,2.18,2.18,2.15
20.20,-0.72,-2.91,-0.71,-2.92,2.92,3.08,0.83,2.21,2.21,2.19
20.40,-0.68,-2.91,-0.68,-2.92,2.92,3.06,0.85,2.24,2.24,2.23
20.61,-0.65,-2.91,-0.65,-2.92,2.92,3.03,0.88,2.27,2.27,2.26
20.81,-0.62,-2.92,-0.62,-2.91,2.91,3.01,0.91,2.29,2.29,2.30
21.02,-0.59,-2.93,-0.58,-2.90,2.90,2.98,0.93,2.31,2.32,2.34
21.23,-0.55,-2.91,-0.55,-2.89,2.89,2.95,0.96,2.34,2.34,2.36
21.44,-0.52,-2.90,-0.52,-2.88,2.88,2.92,0.99,2.36,2.36,2.38
21.66,-0.48,-2.88,-0.48,-2.87,2.87,2.89,1.02,2.39,2.39,2.40
21.87,-0.45,-2.86,-0.45,-2.85,2.85,2.86,1.05,2.41,2.41,2.41
22.09,-0.41,-2.84,-0.41,-2.83,2.83,2.83,1.08,2.43,2.42,2.43
22.31,-0.38,-2.82,-0.38,-2.82,2.82,2.79,1.11,2.44,2.44,2.44
22.54,-0.34,-2.79,-0.34,-2.79,2.79,2.76,1.14,2.45,2.45,2.45
22.76,-0.31,-2.77,-0.30,-2.77,2.77,2.72,1.18,2.46,2.46,2.46
22.99,-0.27,-2.73,-0.27,-2.74,2.74,2.69,1.21,2.47,2.47,2.46
23.22,-0.23,-2.70,-0.23,-2.71,2.71,2.65,1.25,2.48,2.48,2.47
23.45,-0.20,-2.68,-0.19,-2.68,2.68,2.61,1.28,2.48,2.49,2.48
23.69,-0.16,-2.65,-0.15,-2.65,2.65,2.57,1.32,2.49,2.50,2.49
23.92,-0.12,-2.62,-0.12,-2.62,2.62,2.54,1.36,2.51,2.51,2.50
24.16,-0.08,-2.60,-0.08,-2.59,2.59,2.50,1.39,2.52,2.52,2.52
24.40,-0.04,-2.57,-0.04,-2.56,2.56,2.46,1.43,2.53,2.53,2.54
24.65,0.00,-2.53,0.00,-2.53,2.53,2.42,1.47,2.53,2.54,2.54
24.89,0.04,-2.50,0.04,-2.50,2.50,2.38,1.51,2.55,2.55,2.55
25.14,0.08,-2.47,0.09,-2.47,2.47,2.34,1.55,2.55,2.56,2.56
25.39,0.13,-2.43,0.13,-2.44,2.44,2.30,1.59,2.57,2.57,2.57
25.65,0.17,-2.41,0.17,-2.41,2.41,2.25,1.63,2.58,2.58,2.59
25.91,0.21,-2.37,0.22,-2.37,2.37,2.21,1.67,2.59,2.59,2.59
26.16,0.26,-2.33,0.26,-2.34,2.34,2.17,1.70,2.60,2.60,2.59
26.43,0.30,-2.30,0.31,-2.30,2.30,2.13,1.74,2.61,2.61,2.60
26.69,0.35,-2.26,0.35,-2.27,2.27,2.09,1.78,2.62,2.62,2.61
26.96,0.39,-2.24,0.40,-2.23,2.23,2.05,1.82,2.62,2.63,2.63
27.23,0.44,-2.20,0.44,-2.19,2.19,2.01,1.85,2.64,2.64,2.64
27.50,0.49,-2.16,0.49,-2.16,2.16,1.97,1.88,2.65,2.65,2.65
27.77,0.54,-2.11,0.53,-2.12,2.12,1.93,1.92,2.67,2.65,2.65
28.05,0.59,-2.08,0.58,-2.09,2.09,1.89,1.95,2.68,2.66,2.67
28.33,0.64,-2.03,0.63,-2.05,2.05,1.85,1.98,2.69,2.67,2.67
28.62,0.69,-1.99,0.68,-2.00,2.00,1.81,2.00,2.69,2.68,2.68
28.90,0.73,-1.95,0.74,-1.95,1.95,1.77,2.02,2.69,2.69,2.69
29.19,0.78,-1.90,0.80,-1.90,1.90,1.73,2.04,2.68,2.70,2.69
29.48,0.84,-1.87,0.86,-1.84,1.84,1.69,2.06,2.69,2.70,2.72
29.78,0.89,-1.82,0.93,-1.78,1.78,1.65,2.08,2.67,2.71,2.71
30.08,0.95,-1.77,1.00,-1.72,1.72,1.61,2.09,2.67,2.72,2.72
30.38,1.05,-1.67,1.08,-1.65,1.65,1.58,2.09,2.70,2.73,2.72
30.68,1.15,-1.59,1.16,-1.57,1.57,1.54,2.10,2.73,2.73,2.74
30.99,1.25,-1.49,1.24,-1.50,1.50,1.50,2.10,2.75,2.74,2.74
31.30,1.34,-1.41,1.33,-1.42,1.42,1.46,2.10,2.76,2.75,2.75
31.61,1.43,-1.32,1.42,-1.34,1.34,1.43,2.09,2.77,2.76,2.76
31.93,1.53,-1.23,1.51,-1.26,1.26,1.39,2.08,2.79,2.77,2.77
32.24,1.61,-1.15,1.60,-1.18,1.18,1.36,2.06,2.79,2.78,2.77
32.57,1.69,-1.09,1.69,-1.09,1.09,1.32,2.04,2.79,2.78,2.78
32.89,1.77,-1.02,1.78,-1.01,1.01,1.29,2.02,2.79,2.79,2.79
33.22,1.85,-0.95,1.86,-0.94,0.94,1.25,2.00,2.79,2.80,2.80
33.55,1.93,-0.88,1.94,-0.87,0.87,1.22,1.97,2.80,2.81,2.81
33.89,2.00,-0.81,2.01,-0.80,0.80,1.18,1.94,2.81,2.81,2.82
34.23,2.08,-0.74,2.08,-0.74,0.74,1.15,1.91,2.83,2.82,2.83
34.57,2.14,-0.69,2.14,-0.69,0.69,1.12,1.87,2.83,2.83,2.83
34.92,2.21,-0.62,2.20,-0.64,0.64,1.09,1.83,2.85,2.84,2.83
35.27,2.26,-0.58,2.25,-0.59,0.59,1.05,1.79,2.86,2.84,2.84
35.62,2.30,-0.55,2.29,-0.56,0.56,1.02,1.75,2.86,2.85,2.85
35.97,2.34,-0.50,2.33,-0.52,0.52,0.99,1.71,2.87,2.85,2.85
36.33,2.36,-0.49,2.36,-0.49,0.49,0.96,1.66,2.86,2.85,2.85
36.70,2.38,-0.47,2.38,-0.48,0.48,0.93,1.61,2.86,2.86,2.85
37.06,2.40,-0.46,2.40,-0.46,0.46,0.90,1.57,2.87,2.86,2.86
37.43,2.40,-0.46,2.40,-0.45,0.45,0.87,1.52,2.86,2.86,2.87
37.81,2.41,-0.45,2.41,-0.45,0.45,0.84,1.47,2.86,2.86,2.86
38.19,2.41,-0.45,2.40,-0.45,0.45,0.81,1.42,2.87,2.86,2.86
38.57,2.40,-0.46,2.40,-0.46,0.46,0.78,1.37,2.86,2.86,2.86
38.95,2.39,-0.46,2.39,-0.47,0.47,0.75,1.32,2.86,2.86,2.86
39.34,2.37,-0.48,2.37,-0.48,0.48,0.73,1.27,2.86,2.86,2.85
39.74,2.35,-0.50,2.36,-0.50,0.50,0.70,1.22,2.85,2.86,2.85
40.14,2.34,-0.51,2.35,-0.51,0.51,0.67,1.17,2.85,2.86,2.86
40.54,2.32,-0.53,2.33,-0.52,0.52,0.64,1.13,2.85,2.86,2.85
40.94,2.31,-0.54,2.32,-0.54,0.54,0.62,1.08,2.85,2.85,2.85
41.35,2.30,-0.54,2.31,-0.55,0.55,0.59,1.03,2.85,2.85,2.85
41.76,2.29,-0.56,2.30,-0.56,0.56,0.56,0.98,2.85,2.85,2.85
42.18,2.28,-0.58,2.29,-0.56,0.56,0.54,0.93,2.84,2.85,2.86
42.60,2.28,-0.57,2.29,-0.56,0.56,0.51,0.89,2.85,2.85,2.85
43.03,2.28,-0.58,2.29,-0.56,0.56,0.49,0.84,2.84,2.85,2.86
43.46,2.28,-0.57,2.29,-0.56,0.56,0.46,0.80,2.84,2.85,2.86
43.90,2.29,-0.55,2.30,-0.55,0.55,0.44,0.75,2.84,2.85,2.84
44.33,2.30,-0.54,2.32,-0.53,0.53,0.41,0.71,2.84,2.85,2.85
44.78,2.32,-0.52,2.33,-0.52,0.52,0.39,0.66,2.84,2.85,2.84
45.23,2.34,-0.49,2.35,-0.49,0.49,0.36,0.62,2.84,2.85,2.84
45.68,2.37,-0.47,2.38,-0.47,0.47,0.34,0.58,2.84,2.85,2.84
46.13,2.40,-0.43,2.40,-0.44,0.44,0.31,0.54,2.85,2.85,2.84
46.60,2.43,-0.42,2.43,-0.41,0.41,0.29,0.50,2.85,2.84,2.85
47.06,2.46,-0.38,2.46,-0.38,0.38,0.27,0.46,2.84,2.84,2.84
47.53,2.49,-0.34,2.49,-0.35,0.35,0.24,0.42,2.84,2.84,2.84
48.01,2.51,-0.34,2.51,-0.32,0.32,0.22,0.38,2.83,2.83,2.85
48.49,2.54,-0.29,2.54,-0.29,0.29,0.20,0.34,2.83,2.83,2.84
48.97,2.57,-0.25,2.56,-0.26,0.26,0.18,0.30,2.83,2.82,2.82
49.46,2.59,-0.22,2.58,-0.23,0.23,0.15,0.26,2.82,2.81,2.81
49.96,2.61,-0.18,2.60,-0.20,0.20,0.13,0.23,2.82,2.80,2.79
50.46,2.62,-0.17,2.62,-0.18,0.18,0.11,0.19,2.80,2.79,2.80
50.96,2.63,-0.16,2.63,-0.16,0.16,0.09,0.16,2.79,2.78,2.79
51.47,2.63,-0.13,2.63,-0.14,0.14,0.07,0.12,2.77,2.77,2.76
51.99,2.64,-0.11,2.64,-0.12,0.12,0.04,0.09,2.76,2.76,2.75
52.51,2.64,-0.11,2.64,-0.10,0.10,0.02,0.05,2.75,2.75,2.75
53.03,2.64,-0.09,2.64,-0.09,0.09,-0.00,0.02,2.73,2.73,2.73
53.56,2.64,-0.08,2.64,-0.08,0.08,-0.02,-0.01,2.72,2.72,2.72
54.10,2.64,-0.06,2.64,-0.07,0.07,-0.04,-0.04,2.71,2.70,2.70
54.64,2.63,-0.06,2.64,-0.06,0.06,-0.06,-0.08,2.69,2.69,2.69
55.18,2.63,-0.04,2.63,-0.05,0.05,-0.09,-0.11,2.68,2.68,2.67
55.74,2.62,-0.03,2.63,-0.04,0.04,-0.11,-0.14,2.66,2.66,2.65
56.29,2.61,-0.04,2.62,-0.03,0.03,-0.13,-0.16,2.64,2.65,2.65
56.86,2.61,-0.02,2.62,-0.01,0.01,-0.15,-0.19,2.63,2.63,2.63
57.42,2.61,0.00,2.62,-0.00,0.00,-0.17,-0.22,2.61,2.62,2.61
58.00,2.61,0.02,2.62,0.01,-0.01,-0.19,-0.24,2.60,2.60,2.60
58.58,2.61,0.03,2.61,0.03,-0.03,-0.21,-0.27,2.58,2.58,2.58
59.16,2.61,0.04,2.61,0.05,-0.05,-0.23,-0.29,2.56,2.56,2.57
59.76,2.61,0.06,2.61,0.07,-0.07,-0.25,-0.32,2.54,2.54,2.56
60.35,2.61,0.08,2.61,0.09,-0.09,-0.27,-0.34,2.52,2.52,2.53
60.96,2.61,0.11,2.61,0.12,-0.12,-0.29,-0.36,2.50,2.50,2.51
61.57,2.61,0.14,2.61,0.14,-0.14,-0.31,-0.38,2.47,2.47,2.47
62.18,2.61,0.18,2.61,0.17,-0.17,-0.33,-0.40,2.45,2.45,2.44
62.80,2.61,0.19,2.61,0.19,-0.19,-0.35,-0.41,2.42,2.42,2.42
63.43,2.61,0.23,2.61,0.22,-0.22,-0.37,-0.43,2.39,2.39,2.38
64.07,2.61,0.25,2.61,0.25,-0.25,-0.39,-0.45,2.36,2.36,2.36
64.71,2.61,0.28,2.61,0.28,-0.28,-0.41,-0.46,2.34,2.34,2.33
65.35,2.61,0.31,2.61,0.31,-0.31,-0.44,-0.48,2.31,2.31,2.30
66.01,2.61,0.34,2.61,0.34,-0.34,-0.46,-0.49,2.28,2.28,2.27
66.67,2.61,0.36,2.61,0.37,-0.37,-0.48,-0.50,2.25,2.25,2.26
67.33,2.61,0.39,2.61,0.39,-0.39,-0.50,-0.51,2.22,2.22,2.23
68.01,2.61,0.42,2.61,0.42,-0.42,-0.52,-0.52,2.19,2.19,2.20
68.69,2.61,0.45,2.61,0.45,-0.45,-0.54,-0.53,2.16,2.16,2.16
69.37,2.61,0.48,2.61,0.48,-0.48,-0.56,-0.54,2.13,2.13,2.13
70.07,2.61,0.51,2.61,0.51,-0.51,-0.58,-0.55,2.11,2.11,2.10
70.77,2.61,0.53,2.61,0.53,-0.53,-0.60,-0.56,2.08,2.08,2.08
71.48,2.61,0.56,2.61,0.56,-0.56,-0.62,-0.57,2.05,2.05,2.06
72.19,2.61,0.59,2.61,0.59,-0.59,-0.64,-0.58,2.03,2.03,2.02
72.91,2.61,0.61,2.61,0.61,-0.61,-0.66,-0.58,2.00,2.00,2.00
73.64,2.61,0.64,2.61,0.64,-0.64,-0.68,-0.59,1.98,1.98,1.97
74.38,2.61,0.66,2.61,0.66,-0.66,-0.70,-0.60,1.96,1.96,1.96
75.12,2.61,0.68,2.61,0.68,-0.68,-0.72,-0.61,1.93,1.93,1.93
75.87,2.61,0.70,2.61,0.70,-0.70,-0.74,-0.61,1.92,1.92,1.92
76.63,2.61,0.71,2.61,0.71,-0.71,-0.76,-0.62,1.90,1.90,1.90
77.40,2.61,0.73,2.61,0.73,-0.73,-0.78,-0.63,1.88,1.88,1.88
78.17,2.61,0.75,2.61,0.75,-0.75,-0.80,-0.64,1.87,1.87,1.86
78.95,2.61,0.76,2.61,0.76,-0.76,-0.82,-0.64,1.85,1.85,1.85
79.74,2.61,0.77,2.61,0.77,-0.77,-0.84,-0.65,1.84,1.84,1.84
80.54,2.61,0.78,2.61,0.78,-0.78,-0.86,-0.66,1.83,1.83,1.83
81.35,2.61,0.79,2.61,0.79,-0.79,-0.88,-0.67,1.82,1.82,1.82
82.16,2.61,0.80,2.61,0.80,-0.80,-0.90,-0.68,1.81,1.81,1.81
82.98,2.61,0.80,2.62,0.81,-0.81,-0.92,-0.69,1.80,1.81,1.81
83.81,2.61,0.82,2.62,0.82,-0.82,-0.95,-0.70,1.79,1.80,1.80
84.65,2.61,0.83,2.62,0.83,-0.83,-0.97,-0.71,1.78,1.79,1.78
85.50,2.61,0.82,2.63,0.84,-0.84,-0.99,-0.72,1.78,1.79,1.79
86.35,2.61,0.83,2.63,0.84,-0.84,-1.01,-0.74,1.77,1.79,1.79
87.22,2.62,0.84,2.63,0.84,-0.84,-1.03,-0.75,1.78,1.78,1.78
88.09,2.63,0.86,2.63,0.84,-0.84,-1.05,-0.76,1.79,1.78,1.78
88.97,2.63,0.85,2.62,0.84,-0.84,-1.07,-0.78,1.79,1.78,1.78
89.86,2.63,0.85,2.62,0.84,-0.84,-1.09,-0.79,1.80,1.78,1.79
90.76,2.62,0.85,2.61,0.83,-0.83,-1.11,-0.80,1.79,1.78,1.77
91.66,2.61,0.84,2.59,0.82,-0.82,-1.13,-0.82,1.80,1.78,1.77
92.58,2.59,0.83,2.57,0.80,-0.80,-1.15,-0.84,1.79,1.77,1.77
93.51,2.56,0.78,2.55,0.78,-0.78,-1.18,-0.85,1.78,1.77,1.78
94.44,2.54,0.77,2.53,0.76,-0.76,-1.20,-0.87,1.78,1.77,1.77
95.39,2.50,0.73,2.50,0.74,-0.74,-1.22,-0.89,1.76,1.76,1.77
96.34,2.47,0.72,2.47,0.72,-0.72,-1.24,-0.91,1.76,1.76,1.76
97.30,2.44,0.70,2.44,0.69,-0.69,-1.26,-0.92,1.75,1.75,1.75
98.28,2.41,0.67,2.41,0.67,-0.67,-1.28,-0.94,1.74,1.74,1.74
99.26,2.37,0.64,2.38,0.65,-0.65,-1.30,-0.96,1.72,1.73,1.73
100.25,2.34,0.62,2.36,0.64,-0.64,-1.32,-0.98,1.71,1.72,1.72
101.25,2.31,0.60,2.34,0.63,-0.63,-1.35,-1.00,1.69,1.71,1.71
102.27,2.30,0.61,2.32,0.62,-0.62,-1.37,-1.03,1.68,1.70,1.69
103.29,2.29,0.62,2.30,0.62,-0.62,-1.39,-1.05,1.67,1.68,1.67
104.32,2.28,0.62,2.29,0.63,-0.63,-1.41,-1.07,1.65,1.66,1.66
105.37,2.27,0.63,2.28,0.65,-0.65,-1.43,-1.09,1.63,1.64,1.64
106.42,2.26,0.65,2.28,0.67,-0.67,-1.45,-1.11,1.60,1.61,1.62
107.48,2.27,0.68,2.28,0.69,-0.69,-1.48,-1.14,1.58,1.59,1.60
108.56,2.28,0.73,2.28,0.72,-0.72,-1.50,-1.16,1.56,1.56,1.56
109.64,2.29,0.77,2.28,0.76,-0.76,-1.52,-1.18,1.54,1.52,1.53
110.74,2.29,0.79,2.28,0.79,-0.79,-1.54,-1.20,1.50,1.49,1.50
111.85,2.29,0.83,2.29,0.83,-0.83,-1.56,-1.23,1.46,1.45,1.46
112.97,2.29,0.88,2.29,0.87,-0.87,-1.58,-1.25,1.42,1.41,1.41
114.10,2.29,0.91,2.29,0.91,-0.91,-1.61,-1.27,1.38,1.37,1.38
115.24,2.29,0.96,2.28,0.95,-0.95,-1.63,-1.29,1.34,1.34,1.33
116.39,2.29,1.01,2.28,0.99,-0.99,-1.65,-1.31,1.31,1.29,1.29
117.55,2.29,1.05,2.28,1.03,-1.03,-1.67,-1.34,1.27,1.25,1.25
118.73,2.29,1.09,2.28,1.06,-1.06,-1.69,-1.36,1.23,1.21,1.20
119.92,2.28,1.11,2.28,1.10,-1.10,-1.72,-1.38,1.18,1.17,1.17
121.12,2.27,1.15,2.28,1.14,-1.14,-1.74,-1.40,1.13,1.13,1.13
122.33,2.26,1.17,2.28,1.18,-1.18,-1.76,-1.42,1.08,1.10,1.09
123.55,2.26,1.20,2.28,1.23,-1.23,-1.78,-1.44,1.04,1.06,1.06
124.79,2.27,1.24,2.30,1.27,-1.27,-1.81,-1.45,1.00,1.02,1.03
126.03,2.29,1.30,2.31,1.32,-1.32,-1.83,-1.47,0.97,0.99,0.99
127.29,2.30,1.34,2.33,1.37,-1.37,-1.85,-1.49,0.93,0.96,0.96
128.57,2.33,1.42,2.35,1.42,-1.42,-1.87,-1.51,0.91,0.93,0.92
129.85,2.37,1.48,2.37,1.48,-1.48,-1.89,-1.52,0.89,0.90,0.89
131.15,2.40,1.54,2.40,1.54,-1.54,-1.92,-1.54,0.87,0.87,0.86
132.46,2.43,1.60,2.43,1.60,-1.60,-1.94,-1.56,0.84,0.84,0.84
133.79,2.46,1.65,2.47,1.66,-1.66,-1.96,-1.57,0.81,0.81,0.81
135.12,2.50,1.72,2.50,1.71,-1.71,-1.98,-1.59,0.79,0.78,0.78
136.48,2.53,1.77,2.53,1.77,-1.77,-2.01,-1.61,0.77,0.76,0.76
137.84,2.57,1.84,2.55,1.82,-1.82,-2.03,-1.62,0.76,0.73,0.73
139.22,2.58,1.88,2.57,1.86,-1.86,-2.05,-1.64,0.72,0.71,0.70
140.61,2.60,1.93,2.59,1.90,-1.90,-2.07,-1.65,0.70,0.69,0.67
142.02,2.63,1.97,2.61,1.94,-1.94,-2.10,-1.67,0.69,0.66,0.66
143.44,2.63,1.99,2.62,1.97,-1.97,-2.12,-1.69,0.66,0.64,0.65
144.87,2.63,2.01,2.62,2.01,-2.01,-2.14,-1.71,0.63,0.62,0.62
146.32,2.62,2.03,2.63,2.04,-2.04,-2.17,-1.72,0.59,0.59,0.59
147.78,2.62,2.05,2.63,2.06,-2.06,-2.19,-1.74,0.56,0.57,0.58
149.26,2.61,2.06,2.63,2.09,-2.09,-2.21,-1.76,0.52,0.54,0.55
150.75,2.61,2.11,2.63,2.11,-2.11,-2.24,-1.79,0.50,0.51,0.51
152.26,2.61,2.13,2.62,2.14,-2.14,-2.26,-1.81,0.47,0.48,0.48
153.78,2.61,2.16,2.62,2.17,-2.17,-2.28,-1.83,0.45,0.45,0.46
155.32,2.61,2.20,2.62,2.19,-2.19,-2.31,-1.86,0.42,0.42,0.41
156.88,2.61,2.22,2.61,2.22,-2.22,-2.33,-1.88,0.39,0.39,0.39
158.44,2.61,2.25,2.61,2.26,-2.26,-2.36,-1.91,0.36,0.36,0.36
160.03,2.61,2.29,2.61,2.29,-2.29,-2.38,-1.94,0.32,0.32,0.32
161.63,2.61,2.34,2.61,2.32,-2.32,-2.41,-1.97,0.29,0.29,0.28
163.24,2.61,2.37,2.61,2.36,-2.36,-2.43,-2.00,0.25,0.25,0.25
164.88,2.61,2.40,2.61,2.40,-2.40,-2.46,-2.03,0.22,0.21,0.22
166.53,2.61,2.43,2.61,2.44,-2.44,-2.48,-2.07,0.18,0.18,0.18
168.19,2.61,2.47,2.61,2.47,-2.47,-2.51,-2.10,0.14,0.14,0.14
169.87,2.61,2.51,2.61,2.51,-2.51,-2.54,-2.14,0.10,0.10,0.10
171.57,2.61,2.55,2.61,2.56,-2.56,-2.57,-2.18,0.06,0.06,0.06
173.29,2.61,2.60,2.61,2.60,-2.60,-2.59,-2.22,0.01,0.01,0.02
175.02,2.61,2.63,2.61,2.64,-2.64,-2.62,-2.26,-0.03,-0.03,-0.02
176.77,2.61,2.69,2.61,2.69,-2.69,-2.65,-2.31,-0.08,-0.08,-0.08
178.54,2.61,2.73,2.61,2.73,-2.73,-2.68,-2.36,-0.12,-0.12,-0.12
180.32,2.61,2.78,2.61,2.78,-2.78,-2.71,-2.40,-0.17,-0.17,-0.17
182.13,2.61,2.82,2.61,2.83,-2.83,-2.75,-2.46,-0.22,-0.22,-0.21
183.95,2.61,2.88,2.61,2.88,-2.88,-2.78,-2.51,-0.26,-0.26,-0.27
185.79,2.61,2.92,2.61,2.93,-2.93,-2.81,-2.56,-0.31,-0.31,-0.31
187.65,2.61,2.99,2.61,2.97,-2.97,-2.85,-2.62,-0.36,-0.36,-0.37
189.52,2.61,3.03,2.61,3.02,-3.02,-2.88,-2.67,-0.41,-0.41,-0.42
191.42,2.61,3.07,2.61,3.07,-3.07,-2.92,-2.73,-0.46,-0.46,-0.46
193.33,2.61,3.11,2.61,3.12,-3.12,-2.96,-2.79,-0.50,-0.50,-0.50
195.27,2.61,3.15,2.61,3.16,-3.16,-3.00,-2.85,-0.55,-0.55,-0.54
197.22,2.61,3.21,2.61,3.21,-3.21,-3.04,-2.92,-0.59,-0.59,-0.59
199.19,2.61,3.26,2.61,3.25,-3.25,-3.09,-2.98,-0.64,-0.64,-0.64
201.18,2.61,3.30,2.61,3.29,-3.29,-3.13,-3.04,-0.68,-0.68,-0.68
203.19,2.61,3.33,2.61,3.33,-3.33,-3.18,-3.11,-0.72,-0.72,-0.71
205.23,2.61,3.38,2.61,3.37,-3.37,-3.23,-3.17,-0.76,-0.76,-0.76
207.28,2.61,3.40,2.61,3.41,-3.41,-3.28,-3.24,-0.80,-0.80,-0.78
209.35,2.61,3.45,2.61,3.45,-3.45,-3.33,-3.31,-0.84,-0.84,-0.83
211.44,2.61,3.50,2.61,3.49,-3.49,-3.38,-3.37,-0.87,-0.87,-0.88
213.56,2.61,3.52,2.61,3.52,-3.52,-3.44,-3.43,-0.91,-0.91,-0.91
215.69,2.61,3.54,2.61,3.55,-3.55,-3.49,-3.50,-0.94,-0.94,-0.93
217.85,2.61,3.58,2.61,3.58,-3.58,-3.54,-3.56,-0.97,-0.97,-0.97
220.03,2.61,3.62,2.61,3.61,-3.61,-3.59,-3.62,-1.00,-1.00,-1.00
222.23,2.61,3.65,2.61,3.64,-3.64,-3.64,-3.68,-1.02,-1.02,-1.03
224.45,2.61,3.66,2.61,3.66,-3.66,-3.69,-3.73,-1.05,-1.05,-1.05
226.70,2.61,3.68,2.61,3.68,-3.68,-3.73,-3.79,-1.07,-1.07,-1.07
228.96,2.61,3.71,2.61,3.70,-3.70,-3.76,-3.84,-1.09,-1.09,-1.09
231.25,2.61,3.71,2.62,3.72,-3.72,-3.79,-3.88,-1.11,-1.10,-1.10
233.57,2.61,3.73,2.62,3.74,-3.74,-3.81,-3.92,-1.12,-1.12,-1.12
235.90,2.61,3.74,2.62,3.75,-3.75,-3.83,-3.96,-1.14,-1.13,-1.13
238.26,2.61,3.75,2.63,3.76,-3.76,-3.83,-4.00,-1.15,-1.13,-1.14
240.64,2.61,3.76,2.63,3.77,-3.77,-3.83,-4.02,-1.16,-1.14,-1.14
243.05,2.62,3.76,2.63,3.77,-3.77,-3.82,-4.05,-1.15,-1.14,-1.14
245.48,2.63,3.78,2.63,3.77,-3.77,-3.81,-4.06,-1.14,-1.14,-1.14
247.93,2.63,3.77,2.62,3.76,-3.76,-3.79,-4.07,-1.13,-1.14,-1.14
250.41,2.63,3.78,2.62,3.75,-3.75,-3.76,-4.08,-1.12,-1.13,-1.14
252.92,2.62,3.75,2.60,3.73,-3.73,-3.73,-4.08,-1.11,-1.13,-1.13
255.45,2.60,3.72,2.59,3.71,-3.71,-3.70,-4.08,-1.10,-1.12,-1.11
258.00,2.59,3.70,2.57,3.67,-3.67,-3.67,-4.07,-1.08,-1.11,-1.11
260.58,2.56,3.66,2.54,3.64,-3.64,-3.64,-4.05,-1.07,-1.10,-1.10
263.19,2.53,3.62,2.51,3.59,-3.59,-3.60,-4.03,-1.06,-1.08,-1.08
265.82,2.48,3.56,2.48,3.55,-3.55,-3.57,-4.00,-1.07,-1.07,-1.08
268.48,2.46,3.51,2.45,3.50,-3.50,-3.54,-3.97,-1.04,-1.06,-1.05
271.16,2.42,3.46,2.41,3.45,-3.45,-3.51,-3.94,-1.03,-1.04,-1.04
273.87,2.37,3.40,2.38,3.41,-3.41,-3.47,-3.90,-1.04,-1.03,-1.03
276.61,2.34,3.35,2.36,3.37,-3.37,-3.45,-3.86,-1.03,-1.01,-1.00
279.38,2.31,3.31,2.34,3.34,-3.34,-3.42,-3.81,-1.02,-0.99,-1.00
282.17,2.29,3.27,2.33,3.31,-3.31,-3.39,-3.77,-1.02,-0.98,-0.98
284.99,2.28,3.24,2.33,3.29,-3.29,-3.37,-3.72,-1.01,-0.97,-0.96
287.84,2.29,3.25,2.33,3.28,-3.28,-3.35,-3.67,-0.99,-0.95,-0.95
290.72,2.31,3.25,2.34,3.27,-3.27,-3.32,-3.61,-0.96,-0.93,-0.94
293.63,2.34,3.26,2.36,3.28,-3.28,-3.30,-3.56,-0.93,-0.92,-0.92
296.57,2.37,3.27,2.38,3.28,-3.28,-3.28,-3.50,-0.91,-0.90,-0.90
299.53,2.41,3.31,2.41,3.30,-3.30,-3.27,-3.45,-0.89,-0.89,-0.89
302.53,2.45,3.34,2.44,3.32,-3.32,-3.25,-3.39,-0.87,-0.88,-0.89
305.55,2.49,3.35,2.48,3.34,-3.34,-3.23,-3.34,-0.85,-0.86,-0.86
308.61,2.53,3.38,2.51,3.36,-3.36,-3.21,-3.28,-0.83,-0.85,-0.85
311.69,2.56,3.41,2.54,3.38,-3.38,-3.20,-3.23,-0.82,-0.84,-0.84
314.81,2.57,3.39,2.57,3.40,-3.40,-3.18,-3.18,-0.83,-0.83,-0.81
317.96,2.60,3.42,2.60,3.42,-3.42,-3.17,-3.12,-0.81,-0.82,-0.82
321.14,2.62,3.43,2.62,3.43,-3.43,-3.16,-3.07,-0.80,-0.81,-0.81
324.35,2.64,3.45,2.63,3.43,-3.43,-3.14,-3.02,-0.79,-0.80,-0.81
327.59,2.65,3.44,2.64,3.43,-3.43,-3.13,-2.98,-0.78,-0.80,-0.79
330.87,2.65,3.45,2.64,3.43,-3.43,-3.11,-2.93,-0.78,-0.79,-0.79
334.18,2.64,3.44,2.64,3.42,-3.42,-3.10,-2.89,-0.78,-0.79,-0.79
337.52,2.61,3.40,2.63,3.41,-3.41,-3.08,-2.84,-0.80,-0.78,-0.79
340.90,2.60,3.38,2.62,3.40,-3.40,-3.07,-2.80,-0.80,-0.78,-0.78
344.30,2.58,3.36,2.60,3.38,-3.38,-3.05,-2.76,-0.80,-0.78,-0.78
347.75,2.57,3.35,2.57,3.36,-3.36,-3.04,-2.73,-0.78,-0.78,-0.78
351.23,2.54,3.32,2.54,3.33,-3.33,-3.02,-2.69,-0.78,-0.78,-0.78
354.74,2.51,3.30,2.50,3.29,-3.29,-3.00,-2.66,-0.78,-0.79,-0.78
358.28,2.47,3.27,2.46,3.25,-3.25,-2.98,-2.63,-0.78,-0.79,-0.79
361.87,2.42,3.22,2.41,3.21,-3.21,-2.96,-2.60,-0.78,-0.79,-0.80
365.49,2.37,3.17,2.36,3.16,-3.16,-2.94,-2.58,-0.78,-0.80,-0.80
369.14,2.30,3.11,2.30,3.11,-3.11,-2.92,-2.55,-0.80,-0.80,-0.81
372.83,2.25,3.06,2.24,3.05,-3.05,-2.90,-2.53,-0.80,-0.81,-0.81
376.56,2.16,2.98,2.17,2.99,-2.99,-2.87,-2.51,-0.83,-0.82,-0.82
380.33,2.08,2.90,2.10,2.93,-2.93,-2.84,-2.49,-0.84,-0.82,-0.82
384.13,2.01,2.84,2.02,2.85,-2.85,-2.81,-2.48,-0.84,-0.83,-0.83
387.97,1.93,2.77,1.94,2.77,-2.77,-2.77,-2.46,-0.84,-0.84,-0.84
391.85,1.85,2.71,1.85,2.69,-2.69,-2.73,-2.45,-0.84,-0.84,-0.85
395.77,1.77,2.62,1.75,2.61,-2.61,-2.69,-2.44,-0.83,-0.85,-0.84
399.73,1.69,2.55,1.66,2.52,-2.52,-2.64,-2.43,-0.82,-0.86,-0.85
403.72,1.59,2.46,1.56,2.43,-2.43,-2.59,-2.42,-0.83,-0.86,-0.86
407.76,1.48,2.36,1.47,2.33,-2.33,-2.53,-2.41,-0.85,-0.87,-0.88
411.84,1.37,2.24,1.37,2.24,-2.24,-2.46,-2.41,-0.87,-0.87,-0.87
415.96,1.27,2.15,1.28,2.15,-2.15,-2.39,-2.40,-0.88,-0.88,-0.88
420.12,1.16,2.04,1.18,2.06,-2.06,-2.30,-2.40,-0.90,-0.88,-0.88
424.32,1.07,1.95,1.09,1.97,-1.97,-2.21,-2.40,-0.90,-0.88,-0.88
428.56,0.99,1.88,1.01,1.89,-1.89,-2.11,-2.40,-0.90,-0.88,-0.89
432.85,0.91,1.80,0.93,1.81,-1.81,-1.99,-2.40,-0.90,-0.89,-0.89
437.18,0.84,1.73,0.85,1.74,-1.74,-1.88,-2.40,-0.90,-0.89,-0.89
441.55,0.79,1.67,0.79,1.68,-1.68,-1.75,-2.40,-0.88,-0.89,-0.88
445.96,0.73,1.61,0.74,1.62,-1.62,-1.63,-2.40,-0.89,-0.88,-0.88
450.42,0.69,1.58,0.69,1.58,-1.58,-1.52,-2.40,-0.88,-0.88,-0.89
454.93,0.65,1.53,0.66,1.54,-1.54,-1.42,-2.40,-0.89,-0.88,-0.88
459.48,0.61,1.50,0.64,1.52,-1.52,-1.35,-2.39,-0.90,-0.88,-0.88
464.07,0.60,1.48,0.63,1.50,-1.50,-1.31,-2.39,-0.90,-0.87,-0.87
468.71,0.61,1.48,0.62,1.49,-1.49,-1.31,-2.39,-0.88,-0.87,-0.86
473.40,0.63,1.50,0.63,1.49,-1.49,-1.34,-2.39,-0.86,-0.86,-0.86
478.13,0.64,1.50,0.65,1.50,-1.50,-1.40,-2.39,-0.86,-0.86,-0.85
482.91,0.67,1.53,0.67,1.52,-1.52,-1.49,-2.38,-0.85,-0.85,-0.85
487.74,0.70,1.55,0.70,1.55,-1.55,-1.59,-2.38,-0.84,-0.84,-0.84
492.62,0.74,1.58,0.74,1.58,-1.58,-1.70,-2.37,-0.84,-0.84,-0.83
497.55,0.79,1.63,0.79,1.62,-1.62,-1.80,-2.37,-0.83,-0.83,-0.83
502.52,0.84,1.67,0.85,1.67,-1.67,-1.90,-2.36,-0.83,-0.83,-0.83
507.55,0.89,1.72,0.91,1.73,-1.73,-1.99,-2.35,-0.84,-0.83,-0.83
512.62,0.95,1.78,0.97,1.79,-1.79,-2.07,-2.34,-0.84,-0.82,-0.83
517.75,1.03,1.85,1.03,1.86,-1.86,-2.15,-2.33,-0.82,-0.82,-0.82
522.93,1.11,1.93,1.10,1.92,-1.92,-2.21,-2.32,-0.81,-0.82,-0.82
