frequency,raw
20,-9.70
21,-9.16
22,-8.60
23,-8.01
24,-7.57
25,-7.07
26,-6.77
27,-6.31
28,-5.99
29,-5.58
30,-5.15
31,-4.87
32,-4.49
33,-4.17
34,-3.89
35,-3.55
36,-3.25
37,-2.98
38,-2.84
39,-2.55
40,-2.29
41,-2.04
42,-1.83
43,-1.59
44,-1.44
45,-1.25
46,-0.99
47,-0.83
48,-0.68
49,-0.53
50,-0.39
51,-0.23
52,-0.03
53,0.04
54,0.17
55,0.37
56,0.37
57,0.47
58,0.67
59,0.67
60,0.87
61,0.87
62,0.97
63,0.97
64,0.97
65,1.08
66,1.18
67,1.18
68,1.22
69,1.17
70,1.18
71,1.18
72,1.18
73,1.14
74,1.01
75,1.08
76,1.08
77,1.26
78,1.18
79,1.18
80,1.18
81,1.19
82,1.28
83,1.37
84,1.30
85,1.39
86,1.48
87,1.48
88,1.42
89,1.52
90,1.58
91,1.58
92,1.58
93,1.59
94,1.52
95,1.42
96,1.47
97,1.47
98,1.47
99,1.46
100,1.42
101,1.36
102,1.45
104,1.64
105,1.54
106,1.47
107,1.54
108,1.64
109,1.73
110,1.68
111,1.57
112,1.66
113,1.71
114,1.84
115,1.86
117,1.80
118,1.81
119,1.81
120,1.82
121,1.83
123,1.83
124,1.98
125,2.03
126,2.00
128,1.96
129,1.95
130,1.90
131,1.94
133,1.99
134,1.99
135,1.99
137,2.00
138,2.00
140,2.00
141,2.00
142,2.00
144,2.00
145,2.00
147,2.00
148,2.00
150,2.00
151,2.00
153,1.81
154,1.81
156,1.90
157,1.96
159,1.87
160,1.70
162,1.61
164,1.59
165,1.53
167,1.49
169,1.59
170,1.58
172,1.67
174,1.67
175,1.66
177,1.66
179,1.66
181,1.66
183,1.67
184,1.68
186,1.69
188,1.70
190,1.72
192,1.74
194,1.75
196,1.76
198,1.71
200,1.57
202,1.59
204,1.77
206,1.82
208,1.63
210,1.60
212,1.59
214,1.59
216,1.59
218,1.58
221,1.58
223,1.58
225,1.58
227,1.58
229,1.58
232,1.51
234,1.48
236,1.42
239,1.43
241,1.44
244,1.54
246,1.59
248,1.47
251,1.42
253,1.44
256,1.45
259,1.46
261,1.46
264,1.43
266,1.28
269,1.30
272,1.36
274,1.35
277,1.35
280,1.35
283,1.36
286,1.36
288,1.37
291,1.38
294,1.39
297,1.40
300,1.42
303,1.43
306,1.37
309,1.23
312,1.30
316,1.36
319,1.32
322,1.20
325,1.26
328,1.39
332,1.69
335,1.76
338,1.65
342,1.65
345,1.64
349,1.55
352,1.55
356,1.56
359,1.56
363,1.57
366,1.57
370,1.50
374,1.43
377,1.48
381,1.52
385,1.57
389,1.45
393,1.38
397,1.27
401,1.35
405,1.28
409,1.21
413,1.21
417,1.21
421,1.21
425,1.25
430,1.22
434,1.14
438,1.17
443,1.14
447,1.15
451,1.11
456,1.16
460,1.22
465,1.29
470,1.35
474,1.40
479,1.46
484,1.50
489,1.56
494,1.60
499,1.51
504,1.53
509,1.55
514,1.52
519,1.46
524,1.33
529,1.25
535,1.23
540,1.18
545,1.06
551,1.01
556,0.96
562,0.91
568,0.81
573,0.72
579,0.57
585,0.45
591,0.44
596,0.43
602,0.34
608,0.30
615,0.27
621,0.29
627,0.31
633,0.26
639,0.25
646,0.21
652,0.25
659,0.30
665,0.35
672,0.40
679,0.44
686,0.40
692,0.44
699,0.38
706,0.38
713,0.38
721,0.34
728,0.26
735,0.23
742,0.20
750,0.17
757,0.15
765,0.24
773,0.23
780,0.20
788,0.19
796,0.19
804,0.19
812,0.20
820,0.20
828,0.21
837,0.21
845,0.21
853,0.20
862,0.21
871,0.21
879,0.08
888,-0.05
897,-0.04
906,-0.04
915,-0.05
924,-0.05
933,-0.07
943,-0.01
952,-0.06
962,-0.06
971,-0.04
981,-0.03
991,-0.01
1001,0.00
1011,0.04
1021,0.05
1031,-0.03
1041,0.00
1052,0.04
1062,0.08
1073,0.04
1084,0.07
1094,0.12
1105,0.17
1116,0.13
1128,0.15
1139,0.13
1150,0.07
1162,0.15
1173,0.12
1185,0.06
1197,0.05
1209,0.11
1221,0.11
1233,0.11
1246,0.17
1258,0.22
1271,0.21
1283,0.31
1296,0.37
1309,0.38
1322,0.47
1335,0.46
1349,0.53
1362,0.63
1376,0.64
1390,0.69
1404,0.79
1418,0.83
1432,0.96
1446,0.96
1461,1.00
1475,1.11
1490,1.26
1505,1.33
1520,1.38
1535,1.46
1550,1.54
1566,1.80
1582,1.86
1597,1.93
1613,1.99
1629,2.05
1646,2.22
1662,2.28
1679,2.35
1696,2.43
1713,2.51
1730,2.59
1747,2.68
1764,2.77
1782,2.78
1800,2.87
1818,2.99
1836,3.13
1854,3.33
1873,3.47
1892,3.58
1911,3.66
1930,3.75
1949,3.78
1969,3.91
1988,3.99
2008,4.01
2028,4.09
2048,4.22
2069,4.25
2090,4.29
2111,4.40
2132,4.37
2153,4.38
2175,4.45
2196,4.50
2218,4.50
2240,4.48
2263,4.45
2285,4.50
2308,4.43
2331,4.41
2355,4.47
2378,4.50
2402,4.40
2426,4.44
2450,4.51
2475,4.61
2500,4.74
2525,5.06
2550,5.19
2575,5.33
2601,5.47
2627,5.54
2653,5.67
2680,5.79
2707,5.96
2734,6.25
2761,6.43
2789,6.51
2817,6.50
2845,6.41
2873,6.32
2902,6.31
2931,6.10
2960,6.12
2990,6.12
3020,6.17
3050,6.40
3080,6.64
3111,6.92
3142,7.29
3174,7.61
3206,7.99
3238,8.74
3270,9.18
3303,9.73
3336,10.23
3369,10.92
3403,11.62
3437,12.25
3471,12.83
3506,13.26
3541,13.52
3576,13.89
3612,13.94
3648,13.93
3685,13.87
3721,13.62
3759,13.25
3796,12.81
3834,12.14
3873,11.81
3911,11.45
3950,10.80
3990,10.17
4030,9.69
4070,9.21
4111,8.62
4152,8.04
4193,7.60
4235,7.04
4278,6.43
4321,6.02
4364,5.55
4407,4.94
4451,4.57
4496,4.01
4541,3.76
4586,3.59
4632,3.40
4679,3.10
4725,2.87
4773,2.65
4820,2.31
4868,1.96
4917,1.56
4966,1.17
5016,0.70
5066,0.40
5117,0.11
5168,-0.24
5220,-0.55
5272,-0.76
5325,-1.00
5378,-1.19
5432,-1.40
5486,-1.61
5541,-1.94
5596,-2.18
5652,-2.53
5709,-2.99
5766,-3.28
5823,-3.52
5882,-3.40
5940,-3.19
6000,-3.41
6060,-3.42
6120,-3.73
6182,-4.05
6244,-4.10
6306,-4.42
6369,-4.97
6433,-5.15
6497,-4.99
6562,-4.90
6628,-4.87
6694,-4.64
6761,-4.44
6828,-4.28
6897,-4.09
6966,-3.67
7035,-3.10
7106,-3.02
7177,-2.93
7249,-3.24
7321,-3.35
7394,-3.29
7468,-3.23
7543,-3.08
7618,-2.81
7694,-2.39
7771,-2.10
7849,-2.01
7928,-1.83
8007,-1.36
8087,0.57
8168,1.10
8250,1.06
8332,2.08
8415,2.65
8499,3.99
8584,4.84
8670,4.20
8757,2.83
8845,3.36
8933,3.21
9022,2.99
9113,3.46
9204,3.55
9296,3.62
9389,3.12
9483,2.54
9577,2.06
9673,1.41
9770,1.01
9868,1.03
9966,1.15
10066,1.66
10167,1.90
10268,2.15
10371,2.71
10475,2.52
10579,2.15
10685,1.68
10792,1.03
10900,0.84
11009,0.45
11119,-0.16
11230,-0.56
11343,-1.41
11456,-1.82
11571,-2.68
11686,-3.60
11803,-4.70
11921,-5.96
12040,-6.83
12161,-7.61
12282,-8.75
12405,-10.18
12529,-11.00
12655,-12.19
12781,-12.94
12909,-13.96
13038,-15.76
13168,-13.41
13300,-11.95
13433,-11.06
13567,-12.24
13703,-12.33
13840,-13.50
13978,-16.26
14118,-15.51
14259,-14.80
14402,-14.09
14546,-13.43
14692,-13.41
14838,-13.35
14987,-13.09
15137,-12.43
15288,-12.01
15441,-12.20
15595,-12.43
15751,-12.62
15909,-13.08
16068,-13.36
16229,-14.15
16391,-14.47
16555,-14.91
16720,-14.46
16888,-13.81
17056,-12.23
17227,-12.90
17399,-13.56
17573,-14.05
17749,-14.66
17926,-14.81
18106,-14.68
18287,-14.42
18470,-14.82
18654,-14.82
18841,-15.15
19029,-15.58
19220,-15.98
19412,-16.43
19606,-16.59
19802,-15.72
20000,-15.18
