frequency,raw,error,smoothed,error_smoothed,equalization,parametric_eq,equalized_raw,equalized_smoothed,target
20,-8.89,-10.48,-8.90,-10.49,6.00,2.59,-2.89,-2.90,1.59
21,-8.43,-10.02,-8.42,-10.01,6.00,2.98,-2.43,-2.42,1.59
22,-7.98,-9.57,-7.95,-9.54,6.00,3.41,-1.98,-1.95,1.59
23,-7.47,-9.06,-7.50,-9.10,6.00,3.88,-1.47,-1.50,1.59
24,-7.07,-8.66,-7.07,-8.67,6.00,4.37,-1.07,-1.07,1.59
25,-6.65,-8.25,-6.67,-8.26,6.00,4.87,-0.65,-0.67,1.60
26,-6.15,-7.75,-6.28,-7.88,6.00,5.38,-0.15,-0.28,1.60
27,-5.93,-7.53,-5.91,-7.51,6.00,5.85,0.07,0.09,1.60
28,-5.70,-7.30,-5.55,-7.15,6.00,6.26,0.30,0.45,1.60
29,-5.24,-6.84,-5.19,-6.79,6.00,6.59,0.76,0.81,1.60
30,-4.81,-6.41,-4.85,-6.45,5.93,6.78,1.12,1.09,1.60
31,-4.56,-6.16,-4.50,-6.10,5.79,6.84,1.23,1.29,1.60
32,-4.10,-5.70,-4.17,-5.76,5.59,6.76,1.49,1.42,1.60
33,-3.87,-5.47,-3.84,-5.43,5.35,6.56,1.48,1.51,1.60
34,-3.42,-5.01,-3.52,-5.11,5.08,6.26,1.66,1.57,1.59
35,-3.19,-4.78,-3.21,-4.80,4.80,5.89,1.61,1.59,1.59
36,-2.96,-4.55,-2.91,-4.49,4.49,5.49,1.53,1.59,1.59
37,-2.71,-4.29,-2.62,-4.20,4.20,5.06,1.49,1.58,1.58
38,-2.28,-3.85,-2.35,-3.92,3.92,4.63,1.64,1.57,1.57
39,-2.05,-3.62,-2.08,-3.65,3.65,4.21,1.60,1.57,1.57
40,-1.82,-3.38,-1.83,-3.39,3.39,3.80,1.57,1.56,1.56
41,-1.60,-3.15,-1.59,-3.14,3.14,3.41,1.54,1.55,1.55
42,-1.37,-2.91,-1.35,-2.89,2.89,3.03,1.52,1.54,1.54
43,-1.14,-2.67,-1.12,-2.65,2.65,2.67,1.51,1.53,1.53
44,-0.91,-2.43,-0.90,-2.42,2.42,2.33,1.51,1.52,1.52
45,-0.68,-2.18,-0.69,-2.19,2.19,2.01,1.51,1.50,1.50
46,-0.46,-1.95,-0.49,-1.97,1.97,1.70,1.51,1.49,1.49
47,-0.23,-1.70,-0.29,-1.75,1.75,1.40,1.52,1.47,1.47
48,-0.18,-1.63,-0.09,-1.54,1.54,1.12,1.36,1.45,1.45
49,0.13,-1.30,0.10,-1.33,1.33,0.85,1.46,1.43,1.43
50,0.23,-1.18,0.29,-1.12,1.12,0.60,1.35,1.41,1.41
51,0.50,-0.89,0.48,-0.91,0.91,0.35,1.41,1.39,1.39
52,0.68,-0.69,0.66,-0.71,0.71,0.12,1.39,1.37,1.37
53,0.91,-0.44,0.84,-0.51,0.51,-0.11,1.42,1.35,1.35
54,0.91,-0.41,1.01,-0.31,0.31,-0.32,1.22,1.32,1.32
55,1.14,-0.16,1.18,-0.12,0.12,-0.52,1.26,1.30,1.30
56,1.37,0.10,1.34,0.07,-0.07,-0.71,1.30,1.27,1.27
57,1.60,0.35,1.49,0.24,-0.24,-0.88,1.36,1.25,1.25
58,1.60,0.38,1.63,0.41,-0.41,-1.05,1.19,1.22,1.22
59,1.82,0.63,1.77,0.58,-0.58,-1.20,1.24,1.19,1.19
60,1.82,0.66,1.90,0.74,-0.74,-1.34,1.08,1.16,1.16
61,2.05,0.92,2.03,0.89,-0.89,-1.46,1.16,1.13,1.13
62,2.05,0.94,2.15,1.04,-1.04,-1.58,1.01,1.11,1.11
63,2.28,1.20,2.27,1.19,-1.19,-1.68,1.09,1.08,1.08
64,2.51,1.46,2.39,1.34,-1.34,-1.78,1.17,1.05,1.05
65,2.51,1.49,2.51,1.49,-1.49,-1.86,1.02,1.02,1.02
66,2.51,1.52,2.62,1.64,-1.64,-1.94,0.87,0.99,0.99
67,2.74,1.78,2.74,1.78,-1.78,-2.01,0.96,0.96,0.96
68,2.96,2.03,2.85,1.92,-1.92,-2.07,1.04,0.93,0.93
69,2.96,2.06,2.95,2.05,-2.05,-2.13,0.91,0.90,0.90
70,2.96,2.09,3.06,2.19,-2.19,-2.18,0.77,0.87,0.87
71,3.19,2.35,3.16,2.32,-2.32,-2.23,0.87,0.84,0.84
72,3.20,2.39,3.26,2.45,-2.45,-2.27,0.75,0.81,0.81
73,3.42,2.64,3.36,2.58,-2.58,-2.32,0.84,0.78,0.78
74,3.42,2.67,3.45,2.70,-2.70,-2.37,0.72,0.75,0.75
75,3.59,2.87,3.53,2.81,-2.81,-2.41,0.78,0.72,0.72
76,3.65,2.96,3.61,2.92,-2.92,-2.46,0.73,0.69,0.69
77,3.65,2.99,3.68,3.02,-3.02,-2.50,0.63,0.66,0.66
78,3.71,3.08,3.75,3.11,-3.11,-2.55,0.60,0.63,0.63
79,3.87,3.26,3.80,3.20,-3.20,-2.60,0.67,0.61,0.61
80,3.87,3.29,3.86,3.29,-3.29,-2.65,0.58,0.58,0.58
81,3.87,3.32,3.92,3.37,-3.37,-2.70,0.50,0.55,0.55
82,3.89,3.37,3.98,3.46,-3.46,-2.76,0.43,0.52,0.52
83,4.10,3.61,4.03,3.54,-3.54,-2.82,0.56,0.49,0.49
84,4.10,3.64,4.09,3.63,-3.63,-2.88,0.47,0.46,0.46
85,4.10,3.67,4.15,3.72,-3.72,-2.94,0.38,0.43,0.43
86,4.23,3.82,4.21,3.80,-3.80,-3.00,0.43,0.41,0.41
87,4.33,3.95,4.26,3.88,-3.88,-3.07,0.45,0.38,0.38
88,4.33,3.98,4.31,3.96,-3.96,-3.14,0.37,0.35,0.35
89,4.33,4.00,4.36,4.03,-4.03,-3.22,0.30,0.33,0.33
90,4.33,4.03,4.40,4.10,-4.10,-3.29,0.23,0.30,0.30
91,4.35,4.08,4.44,4.17,-4.17,-3.37,0.18,0.27,0.27
92,4.56,4.31,4.48,4.23,-4.23,-3.45,0.33,0.25,0.25
93,4.56,4.33,4.51,4.28,-4.28,-3.53,0.28,0.23,0.23
94,4.56,4.36,4.53,4.33,-4.33,-3.62,0.23,0.20,0.20
95,4.56,4.38,4.54,4.36,-4.36,-3.70,0.20,0.18,0.18
96,4.56,4.40,4.55,4.39,-4.39,-3.79,0.17,0.16,0.16
97,4.56,4.42,4.56,4.42,-4.42,-3.88,0.14,0.14,0.14
98,4.56,4.44,4.57,4.45,-4.45,-3.97,0.11,0.12,0.12
99,4.56,4.46,4.58,4.48,-4.48,-4.06,0.08,0.10,0.10
100,4.56,4.48,4.60,4.52,-4.52,-4.15,0.04,0.08,0.08
101,4.56,4.50,4.62,4.57,-4.57,-4.24,-0.01,0.05,0.06
102,4.56,4.51,4.66,4.63,-4.63,-4.34,-0.07,0.03,0.05
104,4.79,4.80,4.69,4.69,-4.69,-4.52,0.10,0.01,-0.01
105,4.79,4.81,4.73,4.74,-4.74,-4.61,0.05,-0.01,-0.02
106,4.79,4.83,4.76,4.80,-4.80,-4.70,-0.01,-0.03,-0.04
107,4.79,4.85,4.79,4.84,-4.84,-4.79,-0.05,-0.05,-0.06
108,4.79,4.86,4.80,4.88,-4.88,-4.87,-0.09,-0.07,-0.07
109,4.79,4.88,4.81,4.90,-4.90,-4.96,-0.11,-0.09,-0.09
110,4.79,4.89,4.80,4.91,-4.91,-5.04,-0.12,-0.10,-0.10
111,4.79,4.91,4.79,4.91,-4.91,-5.12,-0.12,-0.12,-0.12
112,4.79,4.93,4.76,4.90,-4.90,-5.19,-0.11,-0.14,-0.14
113,4.79,4.94,4.73,4.88,-4.88,-5.26,-0.09,-0.16,-0.15
114,4.76,4.93,4.69,4.87,-4.87,-5.33,-0.11,-0.18,-0.17
115,4.56,4.75,4.65,4.85,-4.85,-5.39,-0.29,-0.20,-0.19
117,4.56,4.80,4.62,4.84,-4.84,-5.50,-0.28,-0.22,-0.24
118,4.56,4.82,4.59,4.84,-4.84,-5.55,-0.28,-0.25,-0.26
119,4.56,4.84,4.58,4.85,-4.85,-5.59,-0.29,-0.27,-0.28
120,4.56,4.85,4.56,4.86,-4.86,-5.63,-0.30,-0.30,-0.29
121,4.56,4.87,4.56,4.88,-4.88,-5.66,-0.32,-0.33,-0.31
123,4.56,4.92,4.56,4.91,-4.91,-5.70,-0.35,-0.35,-0.36
124,4.56,4.94,4.55,4.93,-4.93,-5.72,-0.37,-0.38,-0.38
125,4.56,4.96,4.54,4.94,-4.94,-5.73,-0.38,-0.40,-0.40
126,4.56,4.98,4.52,4.95,-4.95,-5.73,-0.39,-0.43,-0.42
128,4.56,5.02,4.49,4.95,-4.95,-5.72,-0.39,-0.45,-0.46
129,4.47,4.95,4.46,4.94,-4.94,-5.71,-0.47,-0.48,-0.48
130,4.33,4.83,4.42,4.92,-4.92,-5.69,-0.59,-0.50,-0.50
131,4.33,4.85,4.38,4.91,-4.91,-5.67,-0.58,-0.53,-0.52
133,4.33,4.89,4.34,4.89,-4.89,-5.62,-0.56,-0.55,-0.56
134,4.33,4.90,4.29,4.87,-4.87,-5.59,-0.54,-0.57,-0.57
135,4.33,4.92,4.25,4.85,-4.85,-5.55,-0.52,-0.60,-0.59
137,4.25,4.88,4.21,4.83,-4.83,-5.48,-0.58,-0.62,-0.63
138,4.10,4.74,4.17,4.82,-4.82,-5.43,-0.72,-0.64,-0.64
140,4.10,4.77,4.14,4.81,-4.81,-5.34,-0.71,-0.67,-0.67
141,4.10,4.79,4.12,4.81,-4.81,-5.29,-0.71,-0.69,-0.69
142,4.10,4.80,4.10,4.81,-4.81,-5.24,-0.71,-0.71,-0.70
144,4.10,4.83,4.10,4.82,-4.82,-5.14,-0.72,-0.73,-0.73
145,4.10,4.84,4.10,4.84,-4.84,-5.09,-0.74,-0.75,-0.74
147,4.10,4.87,4.10,4.86,-4.86,-4.99,-0.76,-0.77,-0.77
148,4.10,4.88,4.10,4.89,-4.89,-4.94,-0.79,-0.78,-0.78
150,4.10,4.90,4.10,4.91,-4.91,-4.83,-0.81,-0.80,-0.80
151,4.10,4.91,4.10,4.92,-4.92,-4.78,-0.82,-0.82,-0.81
153,4.10,4.94,4.09,4.92,-4.92,-4.68,-0.82,-0.83,-0.84
154,4.10,4.95,4.07,4.92,-4.92,-4.63,-0.82,-0.85,-0.85
156,4.10,4.97,4.04,4.91,-4.91,-4.53,-0.81,-0.86,-0.87
157,4.08,4.95,4.01,4.89,-4.89,-4.49,-0.81,-0.88,-0.87
159,3.87,4.76,3.97,4.86,-4.86,-4.40,-0.99,-0.89,-0.89
160,3.87,4.77,3.93,4.83,-4.83,-4.35,-0.96,-0.90,-0.90
162,3.87,4.79,3.89,4.80,-4.80,-4.27,-0.93,-0.92,-0.92
164,3.87,4.80,3.84,4.77,-4.77,-4.19,-0.90,-0.93,-0.93
165,3.87,4.81,3.80,4.75,-4.75,-4.15,-0.88,-0.94,-0.94
167,3.83,4.78,3.77,4.72,-4.72,-4.08,-0.89,-0.95,-0.95
169,3.65,4.62,3.74,4.70,-4.70,-4.01,-1.05,-0.96,-0.97
170,3.65,4.62,3.71,4.68,-4.68,-3.98,-1.03,-0.97,-0.97
172,3.65,4.63,3.68,4.66,-4.66,-3.92,-1.01,-0.98,-0.98
174,3.65,4.64,3.66,4.65,-4.65,-3.87,-1.00,-0.99,-0.99
175,3.65,4.65,3.63,4.63,-4.63,-3.84,-0.98,-1.00,-1.00
177,3.65,4.66,3.60,4.61,-4.61,-3.79,-0.96,-1.01,-1.01
179,3.65,4.67,3.57,4.58,-4.58,-3.75,-0.93,-1.02,-1.02
181,3.53,4.55,3.53,4.55,-4.55,-3.71,-1.02,-1.02,-1.02
183,3.42,4.45,3.49,4.51,-4.51,-3.67,-1.09,-1.03,-1.03
184,3.42,4.45,3.44,4.47,-4.47,-3.65,-1.05,-1.03,-1.03
186,3.42,4.46,3.39,4.43,-4.43,-3.62,-1.01,-1.04,-1.04
188,3.42,4.46,3.34,4.39,-4.39,-3.60,-0.97,-1.04,-1.04
190,3.19,4.24,3.30,4.35,-4.35,-3.57,-1.16,-1.05,-1.05
192,3.19,4.24,3.25,4.31,-4.31,-3.55,-1.12,-1.05,-1.05
194,3.19,4.24,3.21,4.26,-4.26,-3.54,-1.07,-1.05,-1.05
196,3.19,4.25,3.16,4.21,-4.21,-3.52,-1.02,-1.06,-1.06
198,3.19,4.25,3.10,4.16,-4.16,-3.51,-0.97,-1.06,-1.06
200,3.18,4.24,3.04,4.10,-4.10,-3.50,-0.92,-1.06,-1.06
202,2.96,4.02,2.98,4.04,-4.04,-3.49,-1.08,-1.06,-1.06
204,2.89,3.95,2.92,3.98,-3.98,-3.48,-1.09,-1.06,-1.06
206,2.74,3.80,2.86,3.92,-3.92,-3.48,-1.18,-1.06,-1.06
208,2.74,3.80,2.80,3.86,-3.86,-3.48,-1.12,-1.06,-1.06
210,2.74,3.80,2.75,3.82,-3.82,-3.47,-1.08,-1.06,-1.06
212,2.74,3.80,2.71,3.77,-3.77,-3.47,-1.03,-1.06,-1.06
214,2.74,3.80,2.68,3.74,-3.74,-3.47,-1.00,-1.06,-1.06
216,2.74,3.80,2.64,3.70,-3.70,-3.47,-0.96,-1.06,-1.06
218,2.51,3.57,2.61,3.67,-3.67,-3.47,-1.16,-1.06,-1.06
221,2.51,3.57,2.57,3.63,-3.63,-3.46,-1.12,-1.06,-1.06
223,2.51,3.57,2.53,3.58,-3.58,-3.46,-1.07,-1.06,-1.06
225,2.51,3.56,2.48,3.53,-3.53,-3.46,-1.02,-1.05,-1.05
227,2.51,3.56,2.42,3.47,-3.47,-3.45,-0.96,-1.05,-1.05
229,2.35,3.40,2.35,3.40,-3.40,-3.45,-1.05,-1.05,-1.05
232,2.28,3.33,2.28,3.33,-3.33,-3.44,-1.05,-1.05,-1.05
234,2.24,3.29,2.20,3.25,-3.25,-3.43,-1.01,-1.05,-1.05
236,2.05,3.09,2.12,3.17,-3.17,-3.42,-1.12,-1.04,-1.04
239,2.05,3.09,2.05,3.09,-3.09,-3.40,-1.04,-1.04,-1.04
241,2.05,3.09,1.98,3.02,-3.02,-3.38,-0.97,-1.04,-1.04
244,1.82,2.86,1.93,2.96,-2.96,-3.36,-1.14,-1.04,-1.04
246,1.82,2.85,1.88,2.91,-2.91,-3.34,-1.09,-1.03,-1.03
248,1.82,2.85,1.83,2.87,-2.87,-3.32,-1.05,-1.03,-1.03
251,1.82,2.85,1.80,2.82,-2.82,-3.28,-1.00,-1.03,-1.03
253,1.82,2.84,1.76,2.78,-2.78,-3.25,-0.96,-1.02,-1.02
256,1.82,2.84,1.72,2.74,-2.74,-3.21,-0.92,-1.02,-1.02
259,1.62,2.64,1.68,2.70,-2.70,-3.16,-1.08,-1.02,-1.02
261,1.60,2.61,1.64,2.65,-2.65,-3.13,-1.05,-1.01,-1.01
264,1.60,2.61,1.59,2.59,-2.59,-3.07,-0.99,-1.01,-1.01
266,1.60,2.60,1.54,2.54,-2.54,-3.03,-0.94,-1.00,-1.00
269,1.53,2.52,1.50,2.49,-2.49,-2.97,-0.96,-0.99,-0.99
272,1.37,2.36,1.46,2.44,-2.44,-2.91,-1.07,-0.99,-0.99
274,1.37,2.35,1.43,2.40,-2.40,-2.87,-1.03,-0.98,-0.98
277,1.37,2.34,1.40,2.37,-2.37,-2.80,-1.00,-0.97,-0.97
280,1.37,2.33,1.37,2.33,-2.33,-2.74,-0.96,-0.96,-0.96
283,1.37,2.32,1.35,2.30,-2.30,-2.67,-0.93,-0.95,-0.95
286,1.37,2.31,1.32,2.26,-2.26,-2.60,-0.89,-0.94,-0.94
288,1.37,2.30,1.29,2.22,-2.22,-2.55,-0.85,-0.93,-0.93
291,1.28,2.20,1.25,2.17,-2.17,-2.48,-0.89,-0.92,-0.92
294,1.14,2.04,1.21,2.12,-2.12,-2.41,-0.98,-0.90,-0.90
297,1.14,2.03,1.17,2.06,-2.06,-2.34,-0.92,-0.89,-0.89
300,1.14,2.01,1.13,2.00,-2.00,-2.27,-0.86,-0.87,-0.87
303,1.13,1.99,1.09,1.95,-1.95,-2.20,-0.82,-0.86,-0.86
306,0.91,1.75,1.05,1.89,-1.89,-2.13,-0.98,-0.84,-0.84
309,0.98,1.80,1.01,1.83,-1.83,-2.06,-0.85,-0.82,-0.82
312,1.14,1.94,0.97,1.77,-1.77,-1.99,-0.63,-0.80,-0.80
316,0.94,1.73,0.93,1.71,-1.71,-1.90,-0.77,-0.78,-0.79
319,0.91,1.68,0.88,1.64,-1.64,-1.83,-0.73,-0.77,-0.77
322,0.90,1.65,0.83,1.58,-1.58,-1.77,-0.68,-0.75,-0.75
325,0.68,1.41,0.78,1.51,-1.51,-1.70,-0.83,-0.73,-0.73
328,0.68,1.39,0.75,1.45,-1.45,-1.64,-0.77,-0.71,-0.71
332,0.68,1.36,0.72,1.40,-1.40,-1.56,-0.72,-0.68,-0.68
335,0.68,1.34,0.69,1.36,-1.36,-1.50,-0.68,-0.66,-0.66
338,0.68,1.32,0.68,1.33,-1.33,-1.44,-0.65,-0.64,-0.64
342,0.68,1.30,0.67,1.29,-1.29,-1.36,-0.61,-0.62,-0.62
345,0.68,1.28,0.66,1.26,-1.26,-1.31,-0.58,-0.60,-0.60
349,0.68,1.26,0.65,1.23,-1.23,-1.23,-0.55,-0.58,-0.58
352,0.68,1.25,0.63,1.19,-1.19,-1.18,-0.51,-0.57,-0.57
356,0.68,1.23,0.60,1.15,-1.15,-1.11,-0.47,-0.55,-0.55
359,0.54,1.07,0.57,1.10,-1.10,-1.06,-0.56,-0.53,-0.53
363,0.46,0.97,0.54,1.06,-1.06,-0.99,-0.60,-0.51,-0.51
366,0.46,0.95,0.51,1.01,-1.01,-0.94,-0.55,-0.49,-0.49
370,0.46,0.94,0.48,0.96,-0.96,-0.88,-0.50,-0.48,-0.48
374,0.46,0.92,0.45,0.92,-0.92,-0.82,-0.46,-0.46,-0.46
377,0.46,0.91,0.42,0.87,-0.87,-0.77,-0.41,-0.45,-0.45
381,0.46,0.89,0.39,0.82,-0.82,-0.71,-0.36,-0.43,-0.43
385,0.46,0.88,0.36,0.78,-0.78,-0.66,-0.32,-0.42,-0.42
389,0.25,0.66,0.32,0.73,-0.73,-0.60,-0.48,-0.41,-0.41
393,0.23,0.63,0.29,0.69,-0.69,-0.54,-0.46,-0.40,-0.40
397,0.23,0.62,0.27,0.65,-0.65,-0.49,-0.42,-0.39,-0.39
401,0.23,0.61,0.25,0.63,-0.63,-0.44,-0.40,-0.38,-0.38
405,0.23,0.60,0.24,0.60,-0.60,-0.39,-0.37,-0.37,-0.37
409,0.23,0.59,0.23,0.59,-0.59,-0.34,-0.36,-0.36,-0.36
413,0.23,0.58,0.23,0.58,-0.58,-0.29,-0.35,-0.35,-0.35
417,0.23,0.57,0.22,0.56,-0.56,-0.24,-0.33,-0.34,-0.34
421,0.23,0.56,0.21,0.54,-0.54,-0.20,-0.31,-0.33,-0.33
425,0.23,0.55,0.19,0.51,-0.51,-0.15,-0.28,-0.32,-0.32
430,0.23,0.54,0.16,0.47,-0.47,-0.10,-0.24,-0.31,-0.31
434,0.11,0.41,0.12,0.43,-0.43,-0.06,-0.32,-0.30,-0.30
438,0.00,0.30,0.08,0.37,-0.37,-0.02,-0.37,-0.30,-0.30
443,0.00,0.29,0.03,0.31,-0.31,0.03,-0.31,-0.29,-0.29
447,0.00,0.28,-0.03,0.25,-0.25,0.07,-0.25,-0.28,-0.28
451,0.00,0.27,-0.09,0.18,-0.18,0.10,-0.18,-0.27,-0.27
456,-0.23,0.03,-0.15,0.11,-0.11,0.14,-0.34,-0.26,-0.26
460,-0.23,0.02,-0.20,0.04,-0.04,0.18,-0.27,-0.25,-0.25
465,-0.23,0.01,-0.26,-0.02,0.02,0.22,-0.21,-0.24,-0.24
470,-0.23,-0.00,-0.31,-0.09,0.09,0.25,-0.14,-0.23,-0.23
474,-0.39,-0.18,-0.36,-0.15,0.15,0.28,-0.24,-0.21,-0.21
479,-0.46,-0.26,-0.40,-0.20,0.20,0.31,-0.26,-0.20,-0.20
484,-0.46,-0.27,-0.43,-0.24,0.24,0.34,-0.22,-0.19,-0.19
489,-0.46,-0.29,-0.45,-0.28,0.28,0.37,-0.18,-0.17,-0.17
494,-0.46,-0.30,-0.46,-0.31,0.31,0.40,-0.15,-0.16,-0.16
499,-0.46,-0.32,-0.47,-0.33,0.33,0.42,-0.13,-0.14,-0.14
504,-0.46,-0.34,-0.47,-0.35,0.35,0.45,-0.11,-0.12,-0.12
509,-0.46,-0.35,-0.47,-0.36,0.36,0.47,-0.10,-0.11,-0.11
514,-0.46,-0.37,-0.47,-0.38,0.38,0.49,-0.08,-0.09,-0.09
519,-0.46,-0.39,-0.46,-0.40,0.40,0.51,-0.06,-0.07,-0.07
524,-0.46,-0.41,-0.46,-0.41,0.41,0.52,-0.05,-0.05,-0.05
529,-0.46,-0.43,-0.46,-0.43,0.43,0.54,-0.03,-0.03,-0.03
535,-0.46,-0.46,-0.46,-0.45,0.45,0.55,-0.01,-0.00,-0.00
540,-0.46,-0.48,-0.45,-0.47,0.47,0.57,0.01,0.02,0.02
545,-0.46,-0.50,-0.45,-0.49,0.49,0.58,0.03,0.04,0.04
551,-0.46,-0.53,-0.45,-0.51,0.51,0.59,0.05,0.07,0.07
556,-0.46,-0.55,-0.45,-0.54,0.54,0.60,0.08,0.09,0.09
562,-0.46,-0.57,-0.46,-0.57,0.57,0.61,0.11,0.11,0.11
568,-0.46,-0.60,-0.47,-0.61,0.61,0.62,0.15,0.14,0.14
573,-0.46,-0.62,-0.49,-0.66,0.66,0.63,0.20,0.16,0.16
579,-0.46,-0.65,-0.52,-0.71,0.71,0.64,0.25,0.19,0.19
585,-0.46,-0.67,-0.55,-0.77,0.77,0.64,0.31,0.21,0.21
591,-0.68,-0.92,-0.59,-0.82,0.82,0.65,0.14,0.24,0.24
596,-0.68,-0.94,-0.62,-0.88,0.88,0.66,0.20,0.26,0.26
602,-0.68,-0.97,-0.65,-0.93,0.93,0.67,0.25,0.28,0.29
608,-0.68,-0.99,-0.67,-0.98,0.98,0.67,0.30,0.31,0.31
615,-0.68,-1.01,-0.68,-1.01,1.01,0.68,0.33,0.33,0.33
621,-0.68,-1.03,-0.69,-1.04,1.04,0.69,0.36,0.35,0.35
627,-0.68,-1.05,-0.69,-1.07,1.07,0.70,0.39,0.37,0.37
633,-0.68,-1.08,-0.69,-1.09,1.09,0.71,0.41,0.40,0.40
639,-0.68,-1.10,-0.69,-1.11,1.11,0.72,0.43,0.42,0.42
646,-0.68,-1.12,-0.69,-1.13,1.13,0.73,0.45,0.44,0.44
652,-0.68,-1.14,-0.69,-1.15,1.15,0.74,0.47,0.46,0.46
659,-0.68,-1.16,-0.69,-1.16,1.16,0.75,0.48,0.48,0.48
665,-0.68,-1.18,-0.68,-1.17,1.17,0.76,0.49,0.50,0.50
672,-0.68,-1.19,-0.66,-1.18,1.18,0.77,0.50,0.51,0.51
679,-0.68,-1.21,-0.64,-1.17,1.17,0.78,0.49,0.53,0.53
686,-0.68,-1.23,-0.61,-1.16,1.16,0.80,0.48,0.55,0.55
692,-0.59,-1.16,-0.57,-1.15,1.15,0.81,0.56,0.57,0.57
699,-0.46,-1.05,-0.54,-1.13,1.13,0.83,0.67,0.59,0.59
706,-0.46,-1.07,-0.51,-1.12,1.12,0.84,0.66,0.61,0.61
713,-0.46,-1.09,-0.48,-1.11,1.11,0.86,0.65,0.63,0.63
721,-0.46,-1.11,-0.46,-1.12,1.12,0.88,0.66,0.65,0.65
728,-0.46,-1.13,-0.45,-1.13,1.13,0.89,0.67,0.67,0.67
735,-0.46,-1.15,-0.45,-1.14,1.14,0.91,0.68,0.69,0.69
742,-0.46,-1.17,-0.45,-1.17,1.17,0.93,0.71,0.71,0.71
750,-0.46,-1.19,-0.46,-1.19,1.19,0.95,0.73,0.73,0.73
757,-0.46,-1.21,-0.46,-1.22,1.22,0.97,0.76,0.75,0.75
765,-0.46,-1.23,-0.47,-1.24,1.24,0.99,0.78,0.77,0.77
773,-0.46,-1.25,-0.47,-1.26,1.26,1.02,0.80,0.79,0.79
780,-0.46,-1.27,-0.46,-1.27,1.27,1.04,0.81,0.81,0.81
788,-0.46,-1.29,-0.45,-1.28,1.28,1.06,0.82,0.83,0.83
796,-0.46,-1.30,-0.43,-1.27,1.27,1.08,0.81,0.84,0.84
804,-0.46,-1.32,-0.40,-1.26,1.26,1.11,0.80,0.86,0.86
812,-0.46,-1.33,-0.36,-1.24,1.24,1.13,0.78,0.87,0.87
820,-0.23,-1.12,-0.33,-1.21,1.21,1.15,0.98,0.89,0.89
828,-0.23,-1.13,-0.29,-1.19,1.19,1.17,0.96,0.90,0.90
837,-0.23,-1.14,-0.26,-1.17,1.17,1.20,0.94,0.91,0.91
845,-0.23,-1.15,-0.24,-1.16,1.16,1.22,0.93,0.92,0.92
853,-0.23,-1.16,-0.23,-1.16,1.16,1.24,0.93,0.93,0.93
862,-0.23,-1.17,-0.23,-1.17,1.17,1.26,0.94,0.94,0.94
871,-0.23,-1.18,-0.23,-1.18,1.18,1.28,0.95,0.95,0.95
879,-0.23,-1.18,-0.23,-1.18,1.18,1.30,0.95,0.95,0.95
888,-0.23,-1.19,-0.23,-1.19,1.19,1.31,0.96,0.96,0.96
897,-0.23,-1.19,-0.22,-1.18,1.18,1.33,0.95,0.96,0.96
906,-0.23,-1.20,-0.20,-1.17,1.17,1.34,0.94,0.97,0.97
915,-0.23,-1.21,-0.17,-1.15,1.15,1.35,0.92,0.98,0.98
924,-0.23,-1.21,-0.14,-1.12,1.12,1.36,0.89,0.98,0.98
933,-0.01,-1.00,-0.11,-1.09,1.09,1.37,1.08,0.99,0.99
943,0.00,-0.99,-0.07,-1.07,1.07,1.37,1.07,0.99,0.99
952,0.00,-1.00,-0.04,-1.05,1.05,1.37,1.05,1.00,1.00
962,0.00,-1.01,-0.02,-1.03,1.03,1.36,1.03,1.01,1.01
971,0.00,-1.02,0.00,-1.02,1.02,1.36,1.02,1.02,1.02
981,0.00,-1.03,0.03,-1.00,1.00,1.35,1.00,1.03,1.03
991,0.00,-1.04,0.05,-0.99,0.99,1.34,0.99,1.04,1.04
1001,0.00,-1.05,0.08,-0.98,0.98,1.32,0.98,1.05,1.05
1011,0.05,-1.01,0.10,-0.96,0.96,1.30,1.01,1.07,1.06
1021,0.23,-0.85,0.13,-0.95,0.95,1.27,1.18,1.08,1.08
1031,0.23,-0.87,0.16,-0.93,0.93,1.25,1.16,1.10,1.10
1041,0.23,-0.88,0.19,-0.92,0.92,1.22,1.15,1.11,1.11
1052,0.23,-0.90,0.22,-0.91,0.91,1.18,1.14,1.13,1.13
1062,0.23,-0.92,0.24,-0.91,0.91,1.15,1.14,1.15,1.15
1073,0.23,-0.94,0.27,-0.90,0.90,1.11,1.13,1.17,1.17
1084,0.23,-0.96,0.30,-0.89,0.89,1.06,1.12,1.19,1.19
1094,0.30,-0.91,0.34,-0.87,0.87,1.02,1.17,1.21,1.21
1105,0.46,-0.78,0.38,-0.85,0.85,0.97,1.31,1.24,1.24
1116,0.46,-0.80,0.43,-0.83,0.83,0.92,1.29,1.26,1.26
1128,0.46,-0.82,0.48,-0.80,0.80,0.86,1.26,1.28,1.28
1139,0.46,-0.85,0.53,-0.77,0.77,0.80,1.23,1.31,1.31
1150,0.68,-0.65,0.58,-0.74,0.74,0.75,1.42,1.33,1.33
1162,0.68,-0.67,0.63,-0.72,0.72,0.68,1.40,1.35,1.35
1173,0.68,-0.69,0.68,-0.69,0.69,0.62,1.37,1.37,1.37
1185,0.68,-0.71,0.72,-0.67,0.67,0.56,1.35,1.39,1.39
1197,0.68,-0.73,0.77,-0.64,0.64,0.49,1.32,1.41,1.41
1209,0.88,-0.55,0.81,-0.61,0.61,0.43,1.49,1.43,1.43
1221,0.91,-0.53,0.86,-0.58,0.58,0.36,1.49,1.44,1.44
1233,0.91,-0.54,0.92,-0.53,0.53,0.29,1.44,1.45,1.45
1246,0.91,-0.55,0.98,-0.48,0.48,0.21,1.39,1.46,1.46
1258,1.02,-0.45,1.04,-0.43,0.43,0.15,1.45,1.47,1.47
1271,1.14,-0.33,1.11,-0.36,0.36,0.07,1.50,1.47,1.47
1283,1.14,-0.34,1.19,-0.29,0.29,0.00,1.43,1.48,1.48
1296,1.35,-0.13,1.26,-0.21,0.21,-0.07,1.56,1.48,1.48
1309,1.37,-0.10,1.34,-0.14,0.14,-0.15,1.51,1.47,1.47
1322,1.37,-0.10,1.41,-0.06,0.06,-0.22,1.43,1.47,1.47
1335,1.44,-0.02,1.49,0.03,-0.03,-0.30,1.41,1.46,1.46
1349,1.60,0.15,1.56,0.11,-0.11,-0.38,1.49,1.45,1.45
1362,1.60,0.16,1.63,0.20,-0.20,-0.46,1.40,1.44,1.44
1376,1.78,0.35,1.71,0.28,-0.28,-0.54,1.50,1.43,1.43
1390,1.82,0.41,1.79,0.38,-0.38,-0.62,1.44,1.41,1.41
1404,1.82,0.42,1.87,0.47,-0.47,-0.70,1.35,1.40,1.40
1418,1.89,0.50,1.96,0.57,-0.57,-0.78,1.32,1.39,1.39
1432,2.05,0.68,2.05,0.68,-0.68,-0.86,1.37,1.37,1.37
1446,2.18,0.82,2.15,0.79,-0.79,-0.94,1.39,1.36,1.36
1461,2.28,0.93,2.25,0.90,-0.90,-1.03,1.38,1.35,1.35
1475,2.28,0.94,2.35,1.01,-1.01,-1.11,1.27,1.34,1.34
1490,2.51,1.18,2.45,1.12,-1.12,-1.19,1.39,1.33,1.33
1505,2.55,1.22,2.56,1.23,-1.23,-1.28,1.32,1.33,1.33
1520,2.74,1.41,2.67,1.34,-1.34,-1.36,1.40,1.33,1.33
1535,2.74,1.41,2.78,1.45,-1.45,-1.44,1.29,1.33,1.33
1550,2.87,1.53,2.90,1.56,-1.56,-1.53,1.31,1.34,1.34
1566,2.96,1.61,3.01,1.67,-1.67,-1.62,1.29,1.35,1.35
1582,3.18,1.82,3.13,1.77,-1.77,-1.70,1.41,1.36,1.36
1597,3.20,1.82,3.25,1.87,-1.87,-1.78,1.33,1.39,1.38
1613,3.42,2.01,3.37,1.96,-1.96,-1.87,1.46,1.41,1.41
1629,3.49,2.05,3.49,2.04,-2.04,-1.95,1.45,1.44,1.44
1646,3.65,2.17,3.60,2.12,-2.12,-2.04,1.53,1.48,1.48
1662,3.79,2.27,3.72,2.20,-2.20,-2.12,1.59,1.52,1.52
1679,3.87,2.30,3.84,2.27,-2.27,-2.20,1.60,1.57,1.57
1696,3.87,2.24,3.97,2.35,-2.35,-2.28,1.52,1.63,1.63
1713,4.10,2.41,4.12,2.43,-2.43,-2.36,1.67,1.69,1.69
1730,4.16,2.41,4.27,2.52,-2.52,-2.43,1.64,1.75,1.75
1747,4.38,2.56,4.44,2.62,-2.62,-2.50,1.76,1.82,1.82
1764,4.62,2.72,4.62,2.72,-2.72,-2.57,1.90,1.90,1.90
1782,4.94,2.96,4.80,2.82,-2.82,-2.64,2.12,1.98,1.98
1800,5.01,2.95,4.98,2.92,-2.92,-2.70,2.09,2.06,2.06
1818,5.24,3.09,5.16,3.01,-3.01,-2.75,2.23,2.15,2.15
1836,5.27,3.03,5.32,3.08,-3.08,-2.80,2.19,2.24,2.24
1854,5.47,3.13,5.48,3.15,-3.15,-2.84,2.32,2.33,2.34
1873,5.57,3.14,5.64,3.21,-3.21,-2.88,2.36,2.43,2.43
1892,5.84,3.31,5.79,3.25,-3.25,-2.91,2.59,2.53,2.53
