frequency,raw,error,smoothed,error_smoothed,equalization,parametric_eq,fixed_band_eq,equalized_raw,equalized_smoothed,target
20.00,-8.93,-12.38,-8.94,-12.42,6.00,4.26,2.77,-2.93,-2.94,3.45
20.20,-8.81,-12.31,-8.81,-12.33,6.00,4.38,2.84,-2.81,-2.81,3.50
20.40,-8.69,-12.24,-8.69,-12.24,6.00,4.49,2.93,-2.69,-2.69,3.55
20.61,-8.57,-12.15,-8.56,-12.15,6.00,4.60,3.01,-2.57,-2.56,3.58
20.81,-8.44,-12.08,-8.44,-12.06,6.00,4.72,3.09,-2.44,-2.44,3.63
21.02,-8.33,-12.00,-8.32,-11.96,6.00,4.84,3.18,-2.33,-2.32,3.67
21.23,-8.20,-11.89,-8.19,-11.86,6.00,4.96,3.27,-2.20,-2.19,3.69
21.44,-8.07,-11.79,-8.07,-11.76,6.00,5.08,3.37,-2.07,-2.07,3.71
21.66,-7.95,-11.68,-7.94,-11.66,6.00,5.20,3.46,-1.95,-1.94,3.73
21.87,-7.81,-11.56,-7.82,-11.55,6.00,5.32,3.56,-1.81,-1.82,3.74
22.09,-7.69,-11.46,-7.69,-11.44,6.00,5.44,3.66,-1.69,-1.69,3.76
22.31,-7.56,-11.34,-7.56,-11.33,6.00,5.56,3.76,-1.56,-1.56,3.77
22.54,-7.44,-11.21,-7.44,-11.21,6.00,5.68,3.87,-1.44,-1.44,3.77
22.76,-7.31,-11.08,-7.31,-11.08,6.00,5.80,3.98,-1.31,-1.31,3.77
22.99,-7.18,-10.94,-7.18,-10.96,6.00,5.92,4.09,-1.18,-1.18,3.76
23.22,-7.05,-10.81,-7.06,-10.83,6.00,6.03,4.20,-1.05,-1.06,3.76
23.45,-6.93,-10.68,-6.93,-10.70,6.00,6.15,4.32,-0.93,-0.93,3.76
23.69,-6.81,-10.58,-6.80,-10.58,6.00,6.25,4.44,-0.81,-0.80,3.77
23.92,-6.68,-10.45,-6.68,-10.45,6.00,6.36,4.56,-0.68,-0.68,3.77
24.16,-6.56,-10.33,-6.55,-10.33,6.00,6.45,4.68,-0.56,-0.55,3.78
24.40,-6.42,-10.21,-6.43,-10.20,6.00,6.54,4.80,-0.42,-0.43,3.79
24.65,-6.30,-10.07,-6.30,-10.08,6.00,6.63,4.93,-0.30,-0.30,3.78
24.89,-6.17,-9.95,-6.18,-9.95,6.00,6.71,5.06,-0.17,-0.18,3.78
25.14,-6.04,-9.82,-6.05,-9.83,6.00,6.78,5.18,-0.04,-0.05,3.78
25.39,-5.92,-9.71,-5.93,-9.71,6.00,6.84,5.31,0.08,0.07,3.79
25.65,-5.81,-9.59,-5.80,-9.58,6.00,6.89,5.44,0.19,0.20,3.79
25.91,-5.68,-9.45,-5.68,-9.46,6.00,6.93,5.57,0.32,0.32,3.77
26.16,-5.55,-9.33,-5.55,-9.33,6.00,6.96,5.70,0.45,0.45,3.77
26.43,-5.43,-9.20,-5.42,-9.19,6.00,6.98,5.83,0.57,0.58,3.77
26.69,-5.31,-9.08,-5.28,-9.06,6.00,6.99,5.96,0.69,0.72,3.77
26.96,-5.18,-8.96,-5.15,-8.93,6.00,6.99,6.08,0.82,0.85,3.78
27.23,-5.05,-8.83,-5.03,-8.81,6.00,6.98,6.20,0.95,0.97,3.78
27.50,-4.91,-8.69,-4.92,-8.69,6.00,6.96,6.32,1.09,1.08,3.78
27.77,-4.77,-8.54,-4.80,-8.57,6.00,6.92,6.43,1.23,1.20,3.77
28.05,-4.65,-8.41,-4.69,-8.46,6.00,6.88,6.54,1.35,1.31,3.77
28.33,-4.53,-8.28,-4.57,-8.34,6.00,6.82,6.64,1.47,1.43,3.76
28.62,-4.40,-8.16,-4.46,-8.23,6.00,6.76,6.73,1.60,1.54,3.76
28.90,-4.28,-8.04,-4.34,-8.11,6.00,6.69,6.82,1.72,1.66,3.77
29.19,-4.20,-7.95,-4.21,-7.98,6.00,6.61,6.90,1.80,1.79,3.76
29.48,-4.13,-7.90,-4.07,-7.84,6.00,6.52,6.96,1.87,1.93,3.77
29.78,-4.06,-7.82,-3.94,-7.70,6.00,6.43,7.02,1.94,2.06,3.76
30.08,-3.96,-7.73,-3.81,-7.57,6.00,6.33,7.07,2.04,2.19,3.77
30.38,-3.78,-7.54,-3.68,-7.44,6.00,6.22,7.10,2.22,2.32,3.76
30.68,-3.59,-7.35,-3.54,-7.30,6.00,6.11,7.12,2.41,2.46,3.76
30.99,-3.41,-7.17,-3.41,-7.17,6.00,6.00,7.13,2.59,2.59,3.76
31.30,-3.23,-6.99,-3.27,-7.03,6.00,5.88,7.13,2.77,2.73,3.76
31.61,-3.04,-6.79,-3.14,-6.90,6.00,5.76,7.11,2.96,2.86,3.76
31.93,-2.86,-6.61,-3.02,-6.78,6.00,5.64,7.08,3.14,2.98,3.76
32.24,-2.79,-6.53,-2.91,-6.66,6.00,5.51,7.04,3.21,3.09,3.74
32.57,-2.75,-6.50,-2.80,-6.54,6.00,5.39,6.98,3.25,3.20,3.75
32.89,-2.71,-6.46,-2.69,-6.43,6.00,5.26,6.92,3.29,3.31,3.75
33.22,-2.62,-6.36,-2.58,-6.33,6.00,5.14,6.84,3.38,3.42,3.74
33.55,-2.48,-6.22,-2.48,-6.22,5.99,5.01,6.75,3.50,3.50,3.74
33.89,-2.37,-6.09,-2.38,-6.12,5.96,4.89,6.66,3.59,3.58,3.73
34.23,-2.31,-6.04,-2.28,-6.01,5.92,4.76,6.55,3.61,3.63,3.74
34.57,-2.28,-6.00,-2.19,-5.92,5.86,4.64,6.44,3.58,3.67,3.72
34.92,-2.26,-5.98,-2.09,-5.82,5.79,4.52,6.32,3.53,3.69,3.72
35.27,-2.10,-5.82,-1.99,-5.71,5.70,4.40,6.20,3.60,3.71,3.72
35.62,-1.91,-5.62,-1.88,-5.60,5.60,4.28,6.07,3.69,3.71,3.72
35.97,-1.70,-5.42,-1.76,-5.48,5.48,4.17,5.93,3.78,3.72,3.72
36.33,-1.56,-5.29,-1.63,-5.35,5.35,4.05,5.80,3.79,3.72,3.72
36.70,-1.42,-5.13,-1.50,-5.22,5.22,3.94,5.66,3.80,3.72,3.71
37.06,-1.29,-4.99,-1.38,-5.10,5.10,3.83,5.51,3.81,3.72,3.71
37.43,-1.24,-4.96,-1.26,-4.98,4.98,3.73,5.37,3.74,3.72,3.73
37.81,-1.19,-4.91,-1.13,-4.86,4.86,3.62,5.23,3.67,3.72,3.72
38.19,-1.09,-4.81,-1.02,-4.74,4.74,3.52,5.08,3.65,3.72,3.72
38.57,-0.93,-4.65,-0.90,-4.63,4.63,3.42,4.94,3.70,3.73,3.73
38.95,-0.76,-4.50,-0.78,-4.51,4.51,3.32,4.79,3.74,3.73,3.74
39.34,-0.63,-4.37,-0.66,-4.39,4.39,3.22,4.65,3.75,3.73,3.73
39.74,-0.52,-4.25,-0.55,-4.29,4.29,3.13,4.50,3.77,3.73,3.73
40.14,-0.42,-4.15,-0.46,-4.19,4.19,3.03,4.36,3.78,3.73,3.74
40.54,-0.38,-4.11,-0.36,-4.10,4.10,2.95,4.22,3.72,3.73,3.73
40.94,-0.34,-4.06,-0.26,-3.99,3.99,2.86,4.08,3.65,3.73,3.73
41.35,-0.22,-3.94,-0.15,-3.88,3.88,2.77,3.95,3.66,3.73,3.73
41.76,-0.08,-3.81,-0.05,-3.77,3.77,2.69,3.81,3.69,3.72,3.72
42.18,0.06,-3.66,0.04,-3.68,3.68,2.61,3.68,3.74,3.72,3.73
42.60,0.25,-3.47,0.12,-3.59,3.59,2.53,3.55,3.83,3.71,3.71
43.03,0.39,-3.32,0.20,-3.50,3.50,2.45,3.42,3.89,3.70,3.71
43.46,0.29,-3.41,0.29,-3.40,3.40,2.37,3.30,3.70,3.69,3.71
43.90,0.19,-3.49,0.38,-3.30,3.30,2.30,3.17,3.50,3.68,3.68
44.33,0.37,-3.30,0.48,-3.20,3.20,2.23,3.05,3.56,3.67,3.67
44.78,0.61,-3.04,0.57,-3.09,3.09,2.16,2.93,3.70,3.66,3.65
45.23,0.71,-2.93,0.66,-2.99,2.99,2.09,2.81,3.71,3.65,3.65
45.68,0.67,-2.96,0.73,-2.91,2.91,2.02,2.70,3.58,3.64,3.63
46.13,0.70,-2.92,0.81,-2.82,2.82,1.96,2.58,3.51,3.63,3.62
46.60,0.87,-2.75,0.89,-2.72,2.72,1.90,2.47,3.60,3.62,3.62
47.06,1.03,-2.57,0.96,-2.64,2.64,1.83,2.36,3.68,3.61,3.60
47.53,1.14,-2.45,1.03,-2.57,2.57,1.77,2.26,3.71,3.59,3.60
48.01,1.25,-2.35,1.10,-2.48,2.48,1.71,2.15,3.73,3.58,3.60
48.49,1.25,-2.33,1.19,-2.38,2.38,1.66,2.05,3.63,3.57,3.58
48.97,1.26,-2.30,1.28,-2.28,2.28,1.60,1.95,3.54,3.56,3.57
49.46,1.27,-2.28,1.37,-2.19,2.19,1.54,1.85,3.46,3.56,3.55
49.96,1.29,-2.24,1.45,-2.09,2.09,1.49,1.75,3.39,3.55,3.53
50.46,1.50,-2.03,1.55,-1.99,1.99,1.44,1.66,3.49,3.54,3.54
50.96,1.72,-1.80,1.64,-1.88,1.88,1.38,1.56,3.61,3.53,3.53
51.47,1.66,-1.85,1.73,-1.79,1.79,1.33,1.47,3.45,3.52,3.51
51.99,1.58,-1.92,1.82,-1.69,1.69,1.28,1.38,3.28,3.51,3.50
52.51,1.86,-1.64,1.90,-1.60,1.60,1.23,1.30,3.46,3.50,3.50
53.03,2.14,-1.36,1.99,-1.51,1.51,1.19,1.21,3.65,3.50,3.50
53.56,2.24,-1.25,2.08,-1.41,1.41,1.14,1.13,3.66,3.49,3.49
54.10,2.33,-1.15,2.17,-1.32,1.32,1.09,1.05,3.65,3.48,3.48
54.64,2.31,-1.16,2.27,-1.21,1.21,1.05,0.97,3.53,3.48,3.47
55.18,2.32,-1.15,2.36,-1.11,1.11,1.00,0.89,3.43,3.47,3.47
55.74,2.38,-1.08,2.45,-1.02,1.02,0.96,0.81,3.40,3.47,3.46
56.29,2.45,-1.01,2.50,-0.96,0.96,0.92,0.74,3.42,3.46,3.46
56.86,2.51,-0.94,2.56,-0.89,0.89,0.87,0.67,3.40,3.45,3.45
57.42,2.58,-0.84,2.65,-0.79,0.79,0.83,0.60,3.38,3.44,3.43
58.00,2.64,-0.78,2.70,-0.73,0.73,0.79,0.54,3.37,3.43,3.43
58.58,2.71,-0.71,2.74,-0.68,0.68,0.75,0.47,3.39,3.41,3.42
59.16,2.81,-0.59,2.78,-0.62,0.62,0.71,0.41,3.44,3.40,3.41
59.76,2.97,-0.42,2.83,-0.55,0.55,0.67,0.35,3.52,3.38,3.40
60.35,3.00,-0.36,2.88,-0.48,0.48,0.63,0.29,3.48,3.35,3.36
60.96,2.93,-0.40,2.93,-0.40,0.40,0.59,0.24,3.33,3.33,3.34
61.57,2.83,-0.47,2.98,-0.32,0.32,0.55,0.19,3.15,3.30,3.30
62.18,2.88,-0.39,3.02,-0.25,0.25,0.51,0.14,3.12,3.27,3.27
62.80,3.24,0.01,3.06,-0.18,0.18,0.48,0.09,3.42,3.24,3.23
63.43,3.14,-0.05,3.09,-0.12,0.12,0.44,0.05,3.26,3.20,3.19
64.07,2.90,-0.26,3.11,-0.06,0.06,0.40,0.00,2.95,3.17,3.16
64.71,3.11,-0.01,3.13,0.00,-0.00,0.36,-0.04,3.11,3.13,3.12
65.35,3.21,0.12,3.15,0.06,-0.06,0.33,-0.07,3.16,3.09,3.09
66.01,3.21,0.16,3.16,0.11,-0.11,0.29,-0.11,3.11,3.06,3.05
66.67,3.21,0.20,3.18,0.16,-0.16,0.26,-0.15,3.06,3.02,3.01
67.33,3.21,0.24,3.19,0.22,-0.22,0.22,-0.18,3.00,2.98,2.98
68.01,3.21,0.27,3.21,0.27,-0.27,0.18,-0.21,2.94,2.94,2.94
68.69,3.21,0.31,3.23,0.32,-0.32,0.15,-0.24,2.89,2.90,2.90
69.37,3.21,0.35,3.23,0.37,-0.37,0.11,-0.27,2.85,2.86,2.86
70.07,3.21,0.39,3.22,0.40,-0.40,0.07,-0.30,2.81,2.82,2.82
70.77,3.21,0.43,3.24,0.46,-0.46,0.04,-0.32,2.75,2.78,2.79
71.48,3.21,0.47,3.25,0.51,-0.51,0.00,-0.35,2.70,2.73,2.75
72.19,3.21,0.52,3.23,0.54,-0.54,-0.03,-0.37,2.68,2.69,2.69
72.91,3.21,0.57,3.21,0.57,-0.57,-0.07,-0.40,2.65,2.65,2.65
73.64,3.21,0.61,3.20,0.60,-0.60,-0.11,-0.42,2.62,2.60,2.60
74.38,3.21,0.66,3.19,0.63,-0.63,-0.14,-0.44,2.59,2.56,2.56
75.12,3.21,0.70,3.17,0.66,-0.66,-0.18,-0.46,2.56,2.52,2.51
75.87,3.21,0.75,3.15,0.67,-0.67,-0.22,-0.49,2.54,2.47,2.47
76.63,3.17,0.75,3.13,0.69,-0.69,-0.25,-0.51,2.48,2.43,2.43
77.40,3.12,0.73,3.11,0.72,-0.72,-0.29,-0.53,2.40,2.39,2.39
78.17,3.07,0.73,3.11,0.75,-0.75,-0.33,-0.55,2.32,2.36,2.34
78.95,3.01,0.69,3.10,0.78,-0.78,-0.36,-0.58,2.24,2.32,2.32
79.74,3.01,0.73,3.10,0.81,-0.81,-0.40,-0.60,2.20,2.28,2.28
80.54,3.01,0.76,3.09,0.84,-0.84,-0.44,-0.62,2.17,2.25,2.25
81.35,3.01,0.80,3.07,0.85,-0.85,-0.48,-0.65,2.16,2.22,2.21
82.16,3.01,0.83,3.04,0.85,-0.85,-0.52,-0.67,2.16,2.18,2.18
82.98,3.01,0.85,3.01,0.86,-0.86,-0.56,-0.70,2.15,2.15,2.16
83.81,3.01,0.90,2.99,0.87,-0.87,-0.60,-0.72,2.14,2.12,2.12
84.65,3.15,1.07,2.96,0.88,-0.88,-0.63,-0.75,2.28,2.09,2.08
85.50,3.13,1.07,2.93,0.88,-0.88,-0.67,-0.78,2.26,2.05,2.06
86.35,2.99,0.97,2.90,0.88,-0.88,-0.71,-0.80,2.11,2.02,2.03
87.22,2.91,0.92,2.87,0.88,-0.88,-0.75,-0.83,2.03,1.99,1.99
88.09,2.88,0.93,2.83,0.88,-0.88,-0.80,-0.86,2.00,1.95,1.96
88.97,2.60,0.68,2.81,0.89,-0.89,-0.84,-0.89,1.71,1.92,1.92
89.86,2.59,0.71,2.82,0.93,-0.93,-0.88,-0.92,1.66,1.89,1.89
90.76,2.76,0.91,2.82,0.97,-0.97,-0.92,-0.95,1.79,1.85,1.85
91.66,2.81,0.99,2.82,1.00,-1.00,-0.96,-0.99,1.82,1.82,1.82
92.58,2.72,0.95,2.80,1.01,-1.01,-1.00,-1.02,1.71,1.79,1.78
93.51,2.65,0.90,2.79,1.03,-1.03,-1.04,-1.05,1.62,1.76,1.75
94.44,2.76,1.04,2.79,1.07,-1.07,-1.09,-1.09,1.69,1.72,1.72
95.39,2.91,1.22,2.83,1.14,-1.14,-1.13,-1.12,1.78,1.69,1.69
96.34,2.94,1.29,2.87,1.21,-1.21,-1.17,-1.16,1.74,1.66,1.66
97.30,3.07,1.45,2.90,1.27,-1.27,-1.21,-1.20,1.80,1.63,1.63
98.28,3.20,1.60,2.93,1.33,-1.33,-1.25,-1.23,1.87,1.60,1.60
99.26,3.05,1.48,2.96,1.39,-1.39,-1.30,-1.27,1.66,1.57,1.57
100.25,2.72,1.18,2.97,1.43,-1.43,-1.34,-1.31,1.29,1.54,1.54
101.25,2.67,1.16,2.97,1.46,-1.46,-1.38,-1.35,1.22,1.51,1.51
102.27,2.88,1.40,2.96,1.48,-1.48,-1.42,-1.39,1.40,1.48,1.48
103.29,3.05,1.61,2.96,1.51,-1.51,-1.46,-1.43,1.54,1.45,1.44
104.32,3.16,1.74,2.94,1.52,-1.52,-1.50,-1.47,1.64,1.42,1.42
105.37,3.04,1.65,2.91,1.52,-1.52,-1.54,-1.51,1.52,1.39,1.39
106.42,2.85,1.49,2.88,1.53,-1.53,-1.58,-1.54,1.33,1.35,1.36
107.48,2.83,1.51,2.85,1.53,-1.53,-1.61,-1.58,1.30,1.32,1.33
108.56,2.80,1.52,2.83,1.54,-1.54,-1.65,-1.62,1.26,1.29,1.29
109.64,2.78,1.53,2.82,1.57,-1.57,-1.69,-1.66,1.22,1.25,1.26
110.74,2.76,1.55,2.83,1.61,-1.61,-1.72,-1.69,1.16,1.22,1.22
111.85,2.74,1.54,2.81,1.62,-1.62,-1.75,-1.73,1.12,1.19,1.20
112.97,2.74,1.59,2.77,1.61,-1.61,-1.78,-1.76,1.13,1.16,1.15
114.10,2.73,1.61,2.73,1.60,-1.60,-1.81,-1.79,1.13,1.13,1.12
115.24,2.73,1.64,2.70,1.60,-1.60,-1.84,-1.82,1.13,1.10,1.09
116.39,2.73,1.68,2.68,1.61,-1.61,-1.87,-1.85,1.13,1.07,1.06
117.55,2.73,1.70,2.68,1.63,-1.63,-1.89,-1.87,1.10,1.04,1.04
118.73,2.74,1.73,2.70,1.68,-1.68,-1.92,-1.90,1.06,1.02,1.01
119.92,2.74,1.74,2.72,1.72,-1.72,-1.94,-1.92,1.02,1.00,1.00
121.12,2.74,1.77,2.74,1.76,-1.76,-1.96,-1.94,0.99,0.98,0.98
122.33,2.58,1.62,2.76,1.79,-1.79,-1.97,-1.95,0.79,0.96,0.96
123.55,2.51,1.56,2.79,1.84,-1.84,-1.99,-1.97,0.68,0.95,0.95
124.79,2.78,1.84,2.81,1.88,-1.88,-2.00,-1.98,0.90,0.93,0.94
126.03,2.88,1.96,2.83,1.91,-1.91,-2.01,-1.99,0.97,0.92,0.92
127.29,2.89,1.97,2.85,1.94,-1.94,-2.02,-1.99,0.96,0.91,0.92
128.57,2.90,2.01,2.87,1.97,-1.97,-2.02,-2.00,0.93,0.89,0.90
129.85,3.06,2.18,2.89,2.01,-2.01,-2.03,-2.00,1.06,0.88,0.88
131.15,3.12,2.25,2.90,2.03,-2.03,-2.03,-2.00,1.09,0.87,0.87
132.46,2.90,2.05,2.91,2.05,-2.05,-2.03,-1.99,0.85,0.86,0.86
133.79,2.81,1.97,2.91,2.06,-2.06,-2.03,-1.98,0.75,0.84,0.84
135.12,2.90,2.08,2.90,2.07,-2.07,-2.02,-1.98,0.83,0.83,0.82
136.48,2.95,2.13,2.90,2.08,-2.08,-2.02,-1.97,0.88,0.82,0.82
137.84,2.78,1.98,2.88,2.07,-2.07,-2.01,-1.95,0.71,0.81,0.80
139.22,2.73,1.95,2.85,2.05,-2.05,-2.00,-1.94,0.68,0.79,0.78
140.61,2.80,2.04,2.82,2.04,-2.04,-1.99,-1.93,0.76,0.78,0.76
142.02,2.93,2.17,2.81,2.05,-2.05,-1.98,-1.91,0.89,0.76,0.76
143.44,2.71,1.97,2.79,2.05,-2.05,-1.96,-1.89,0.67,0.74,0.75
144.87,2.63,1.91,2.76,2.05,-2.05,-1.95,-1.88,0.59,0.72,0.72
146.32,2.63,1.94,2.73,2.05,-2.05,-1.93,-1.86,0.59,0.69,0.69
147.78,2.65,1.98,2.70,2.05,-2.05,-1.92,-1.84,0.60,0.65,0.68
149.26,2.75,2.11,2.65,2.04,-2.04,-1.90,-1.82,0.71,0.61,0.64
150.75,2.70,2.12,2.59,2.02,-2.02,-1.88,-1.81,0.68,0.56,0.59
152.26,2.61,2.08,2.50,1.99,-1.99,-1.87,-1.79,0.62,0.51,0.53
153.78,2.47,2.00,2.41,1.95,-1.95,-1.85,-1.77,0.52,0.46,0.48
155.32,2.46,2.05,2.29,1.89,-1.89,-1.83,-1.75,0.57,0.40,0.41
156.88,2.32,1.97,2.16,1.82,-1.82,-1.81,-1.74,0.51,0.34,0.35
158.44,2.06,1.78,2.03,1.75,-1.75,-1.79,-1.72,0.32,0.28,0.28
160.03,1.86,1.66,1.91,1.69,-1.69,-1.77,-1.71,0.18,0.23,0.21
161.63,1.71,1.57,1.79,1.61,-1.61,-1.76,-1.69,0.10,0.17,0.15
163.24,1.64,1.55,1.66,1.54,-1.54,-1.74,-1.68,0.10,0.12,0.10
164.88,1.53,1.48,1.56,1.48,-1.48,-1.72,-1.67,0.05,0.08,0.06
166.53,1.31,1.30,1.46,1.43,-1.43,-1.70,-1.66,-0.11,0.04,0.02
168.19,1.18,1.19,1.40,1.39,-1.39,-1.69,-1.65,-0.21,0.01,-0.01
169.87,1.20,1.24,1.37,1.38,-1.38,-1.67,-1.64,-0.18,-0.02,-0.04
171.57,1.26,1.31,1.35,1.39,-1.39,-1.65,-1.63,-0.12,-0.03,-0.05
173.29,1.32,1.38,1.36,1.40,-1.40,-1.64,-1.62,-0.08,-0.04,-0.05
175.02,1.40,1.45,1.39,1.44,-1.44,-1.62,-1.62,-0.03,-0.05,-0.05
176.77,1.46,1.52,1.44,1.49,-1.49,-1.61,-1.62,-0.02,-0.05,-0.06
178.54,1.52,1.58,1.49,1.54,-1.54,-1.59,-1.62,-0.01,-0.05,-0.05
180.32,1.63,1.67,1.55,1.59,-1.59,-1.58,-1.61,0.04,-0.05,-0.04
182.13,1.68,1.71,1.61,1.65,-1.65,-1.57,-1.62,0.03,-0.04,-0.02
183.95,1.70,1.73,1.67,1.71,-1.71,-1.56,-1.62,-0.01,-0.04,-0.03
185.79,1.80,1.82,1.72,1.77,-1.77,-1.55,-1.62,0.04,-0.04,-0.02
187.65,1.82,1.86,1.77,1.81,-1.81,-1.54,-1.62,0.01,-0.04,-0.03
189.52,1.79,1.83,1.79,1.84,-1.84,-1.53,-1.63,-0.05,-0.05,-0.04
191.42,1.77,1.82,1.81,1.86,-1.86,-1.52,-1.64,-0.09,-0.05,-0.05
193.33,1.83,1.89,1.82,1.88,-1.88,-1.51,-1.65,-0.04,-0.06,-0.06
195.27,1.81,1.89,1.82,1.89,-1.89,-1.50,-1.65,-0.08,-0.07,-0.07
197.22,1.79,1.88,1.81,1.89,-1.89,-1.50,-1.66,-0.10,-0.08,-0.08
199.19,1.81,1.92,1.79,1.89,-1.89,-1.49,-1.67,-0.08,-0.10,-0.10
201.18,1.76,1.88,1.77,1.88,-1.88,-1.49,-1.69,-0.12,-0.11,-0.11
203.19,1.72,1.85,1.75,1.88,-1.88,-1.49,-1.70,-0.15,-0.13,-0.13
205.23,1.72,1.87,1.73,1.87,-1.87,-1.48,-1.71,-0.14,-0.14,-0.15
207.28,1.72,1.87,1.69,1.85,-1.85,-1.48,-1.72,-0.13,-0.16,-0.14
209.35,1.67,1.84,1.67,1.84,-1.84,-1.48,-1.74,-0.17,-0.17,-0.16
211.44,1.62,1.82,1.64,1.82,-1.82,-1.48,-1.75,-0.20,-0.18,-0.19
213.56,1.61,1.81,1.60,1.80,-1.80,-1.48,-1.76,-0.18,-0.19,-0.19
215.69,1.57,1.77,1.56,1.76,-1.76,-1.48,-1.78,-0.19,-0.20,-0.20
217.85,1.49,1.70,1.53,1.74,-1.74,-1.48,-1.79,-0.25,-0.21,-0.21
220.03,1.49,1.71,1.51,1.72,-1.72,-1.49,-1.80,-0.23,-0.21,-0.22
222.23,1.50,1.74,1.48,1.69,-1.69,-1.49,-1.82,-0.19,-0.22,-0.23
224.45,1.47,1.69,1.45,1.66,-1.66,-1.49,-1.83,-0.19,-0.21,-0.22
226.70,1.38,1.60,1.42,1.63,-1.63,-1.50,-1.84,-0.24,-0.21,-0.22
228.96,1.37,1.58,1.39,1.59,-1.59,-1.50,-1.85,-0.21,-0.20,-0.20
231.25,1.37,1.56,1.36,1.55,-1.55,-1.51,-1.85,-0.18,-0.19,-0.19
233.57,1.28,1.46,1.35,1.53,-1.53,-1.51,-1.86,-0.24,-0.17,-0.18
235.90,1.28,1.45,1.34,1.50,-1.50,-1.52,-1.86,-0.21,-0.16,-0.16
238.26,1.38,1.53,1.32,1.46,-1.46,-1.53,-1.87,-0.08,-0.14,-0.15
240.64,1.38,1.51,1.31,1.43,-1.43,-1.53,-1.87,-0.04,-0.12,-0.12
243.05,1.31,1.40,1.30,1.39,-1.39,-1.54,-1.86,-0.08,-0.09,-0.09
245.48,1.20,1.27,1.28,1.35,-1.35,-1.55,-1.86,-0.15,-0.07,-0.06
247.93,1.17,1.20,1.26,1.30,-1.30,-1.56,-1.85,-0.12,-0.04,-0.03
250.41,1.23,1.25,1.22,1.23,-1.23,-1.56,-1.85,0.00,-0.01,-0.01
252.92,1.30,1.28,1.17,1.16,-1.16,-1.57,-1.83,0.15,0.01,0.02
255.45,1.31,1.27,1.12,1.08,-1.08,-1.58,-1.82,0.23,0.04,0.05
258.00,1.22,1.15,1.09,1.02,-1.02,-1.59,-1.81,0.20,0.07,0.07
260.58,1.12,1.03,1.07,0.98,-0.98,-1.60,-1.79,0.15,0.09,0.09
263.19,1.06,0.94,1.06,0.94,-0.94,-1.60,-1.77,0.12,0.12,0.13
265.82,1.08,0.94,1.07,0.92,-0.92,-1.61,-1.75,0.17,0.15,0.14
268.48,1.00,0.84,1.08,0.91,-0.91,-1.62,-1.72,0.09,0.17,0.17
271.16,0.90,0.70,1.13,0.93,-0.93,-1.62,-1.70,-0.02,0.20,0.20
273.87,0.90,0.68,1.19,0.97,-0.97,-1.63,-1.67,-0.06,0.23,0.22
276.61,1.06,0.81,1.28,1.03,-1.03,-1.63,-1.64,0.04,0.26,0.26
279.38,1.28,1.00,1.40,1.12,-1.12,-1.64,-1.61,0.17,0.29,0.28
282.17,1.63,1.32,1.55,1.24,-1.24,-1.64,-1.58,0.39,0.31,0.31
284.99,1.80,1.46,1.73,1.38,-1.38,-1.64,-1.55,0.42,0.34,0.35
287.84,2.00,1.64,1.92,1.54,-1.54,-1.65,-1.52,0.46,0.37,0.37
290.72,2.01,1.61,2.11,1.70,-1.70,-1.65,-1.48,0.31,0.41,0.40
293.63,2.16,1.73,2.30,1.86,-1.86,-1.65,-1.45,0.30,0.44,0.43
296.57,2.40,1.94,2.47,2.01,-2.01,-1.65,-1.42,0.40,0.47,0.47
299.53,2.73,2.24,2.63,2.14,-2.14,-1.64,-1.38,0.60,0.50,0.50
302.53,2.95,2.44,2.76,2.23,-2.23,-1.64,-1.35,0.72,0.52,0.51
305.55,3.07,2.51,2.84,2.29,-2.29,-1.63,-1.31,0.78,0.55,0.56
308.61,3.15,2.57,2.89,2.31,-2.31,-1.63,-1.27,0.84,0.58,0.58
311.69,3.03,2.43,2.90,2.30,-2.30,-1.62,-1.24,0.73,0.60,0.61
314.81,2.93,2.30,2.89,2.26,-2.26,-1.61,-1.20,0.67,0.62,0.64
317.96,2.89,2.24,2.86,2.21,-2.21,-1.60,-1.17,0.68,0.65,0.65
321.14,2.81,2.15,2.81,2.14,-2.14,-1.59,-1.14,0.67,0.67,0.66
324.35,2.67,1.99,2.74,2.06,-2.06,-1.57,-1.10,0.62,0.68,0.68
327.59,2.52,1.83,2.65,1.95,-1.95,-1.56,-1.07,0.57,0.70,0.70
330.87,2.41,1.71,2.54,1.83,-1.83,-1.54,-1.04,0.58,0.71,0.71
334.18,2.35,1.63,2.43,1.71,-1.71,-1.52,-1.00,0.65,0.73,0.72
337.52,2.29,1.56,2.34,1.60,-1.60,-1.50,-0.97,0.69,0.74,0.73
340.90,2.21,1.46,2.25,1.51,-1.51,-1.48,-0.94,0.71,0.75,0.75
344.30,2.16,1.40,2.18,1.42,-1.42,-1.45,-0.91,0.74,0.75,0.76
347.75,2.10,1.34,2.12,1.36,-1.36,-1.43,-0.88,0.75,0.76,0.76
351.23,2.03,1.27,2.06,1.29,-1.29,-1.40,-0.85,0.74,0.77,0.77
354.74,1.99,1.23,2.01,1.24,-1.24,-1.37,-0.82,0.75,0.77,0.77
358.28,1.98,1.21,1.97,1.19,-1.19,-1.35,-0.79,0.79,0.77,0.78
361.87,1.98,1.21,1.93,1.16,-1.16,-1.31,-0.77,0.83,0.78,0.77
365.49,1.92,1.14,1.90,1.12,-1.12,-1.28,-0.74,0.81,0.78,0.78
369.14,1.87,1.10,1.86,1.08,-1.08,-1.25,-0.72,0.79,0.78,0.77
372.83,1.82,1.05,1.82,1.04,-1.04,-1.21,-0.69,0.78,0.78,0.77
376.56,1.75,0.98,1.78,1.01,-1.01,-1.18,-0.67,0.75,0.77,0.77
380.33,1.72,0.94,1.75,0.98,-0.98,-1.14,-0.64,0.75,0.77,0.78
384.13,1.73,0.96,1.71,0.94,-0.94,-1.10,-0.62,0.79,0.77,0.78
387.97,1.68,0.92,1.67,0.90,-0.90,-1.07,-0.60,0.78,0.77,0.77
391.85,1.63,0.88,1.62,0.86,-0.86,-1.03,-0.57,0.78,0.76,0.76
395.77,1.56,0.80,1.57,0.82,-0.82,-0.99,-0.55,0.75,0.76,0.77
399.73,1.54,0.79,1.53,0.78,-0.78,-0.95,-0.53,0.77,0.75,0.76
403.72,1.50,0.75,1.48,0.74,-0.74,-0.90,-0.51,0.76,0.75,0.75
407.76,1.45,0.71,1.44,0.70,-0.70,-0.86,-0.49,0.75,0.74,0.74
411.84,1.43,0.69,1.40,0.66,-0.66,-0.82,-0.47,0.77,0.74,0.74
415.96,1.36,0.62,1.36,0.62,-0.62,-0.78,-0.45,0.74,0.74,0.74
420.12,1.31,0.57,1.33,0.59,-0.59,-0.73,-0.43,0.72,0.74,0.74
424.32,1.24,0.50,1.30,0.55,-0.55,-0.69,-0.41,0.69,0.75,0.74
428.56,1.24,0.49,1.28,0.52,-0.52,-0.65,-0.39,0.73,0.76,0.75
432.85,1.25,0.49,1.27,0.49,-0.49,-0.60,-0.37,0.76,0.77,0.76
437.18,1.28,0.51,1.26,0.47,-0.47,-0.56,-0.35,0.82,0.80,0.77
441.55,1.25,0.44,1.26,0.44,-0.44,-0.51,-0.34,0.82,0.82,0.81
445.96,1.19,0.35,1.26,0.41,-0.41,-0.47,-0.32,0.79,0.85,0.84
450.42,1.21,0.35,1.27,0.38,-0.38,-0.43,-0.30,0.84,0.89,0.87
454.93,1.27,0.36,1.28,0.35,-0.35,-0.38,-0.28,0.92,0.93,0.92
459.48,1.33,0.37,1.30,0.33,-0.33,-0.34,-0.26,1.01,0.97,0.97
464.07,1.34,0.33,1.33,0.30,-0.30,-0.29,-0.25,1.04,1.02,1.02
468.71,1.36,0.29,1.34,0.28,-0.28,-0.25,-0.23,1.09,1.07,1.08
473.40,1.40,0.29,1.36,0.24,-0.24,-0.21,-0.21,1.16,1.12,1.12
478.13,1.39,0.22,1.38,0.21,-0.21,-0.17,-0.19,1.18,1.17,1.18
482.91,1.36,0.15,1.39,0.18,-0.18,-0.12,-0.17,1.18,1.21,1.22
487.74,1.36,0.11,1.40,0.14,-0.14,-0.08,-0.15,1.22,1.25,1.26
492.62,1.39,0.09,1.40,0.11,-0.11,-0.04,-0.14,1.28,1.29,1.31
497.55,1.42,0.10,1.40,0.08,-0.08,0.00,-0.12,1.35,1.32,1.32
502.52,1.44,0.09,1.39,0.04,-0.04,0.04,-0.10,1.40,1.34,1.35
507.55,1.36,-0.00,1.36,0.00,-0.00,0.09,-0.08,1.36,1.36,1.36
512.62,1.29,-0.08,1.33,-0.03,0.03,0.13,-0.06,1.32,1.36,1.37
517.75,1.28,-0.10,1.30,-0.06,0.06,0.17,-0.04,1.35,1.36,1.38
522.93,1.28,-0.09,1.25,-0.10,0.10,0.20,-0.02,1.38,1.35,1.37
528.16,1.26,-0.08,1.19,-0.14,0.14,0.24,0.00,1.40,1.33,1.34
