frequency,raw,error,smoothed,error_smoothed,equalization,parametric_eq,equalized_raw,equalized_smoothed,target
20,7.50,1.14,7.52,1.16,-1.16,-1.17,6.34,6.36,6.36
21,7.71,1.36,7.71,1.36,-1.36,-1.33,6.36,6.35,6.35
22,7.89,1.55,7.89,1.54,-1.54,-1.51,6.35,6.35,6.35
23,8.07,1.74,8.06,1.73,-1.73,-1.70,6.35,6.34,6.33
24,8.24,1.92,8.22,1.90,-1.90,-1.91,6.34,6.32,6.32
25,8.39,2.08,8.38,2.07,-2.07,-2.12,6.33,6.31,6.31
26,8.54,2.24,8.52,2.22,-2.22,-2.34,6.32,6.30,6.30
27,8.67,2.39,8.66,2.38,-2.38,-2.55,6.30,6.28,6.28
28,8.79,2.52,8.79,2.52,-2.52,-2.74,6.27,6.27,6.27
29,8.91,2.66,8.91,2.66,-2.66,-2.91,6.26,6.25,6.25
30,9.02,2.79,9.02,2.79,-2.79,-3.06,6.24,6.23,6.23
31,9.12,2.91,9.13,2.91,-2.91,-3.18,6.21,6.22,6.22
32,9.22,3.03,9.23,3.03,-3.03,-3.27,6.19,6.20,6.20
33,9.31,3.14,9.32,3.14,-3.14,-3.33,6.17,6.17,6.17
34,9.40,3.25,9.41,3.26,-3.26,-3.38,6.15,6.15,6.15
35,9.49,3.36,9.49,3.36,-3.36,-3.41,6.13,6.13,6.13
36,9.57,3.47,9.57,3.47,-3.47,-3.45,6.10,6.10,6.10
37,9.65,3.57,9.65,3.57,-3.57,-3.48,6.08,6.08,6.08
38,9.72,3.67,9.73,3.67,-3.67,-3.51,6.05,6.05,6.05
39,9.79,3.77,9.80,3.77,-3.77,-3.56,6.02,6.02,6.02
40,9.86,3.87,9.87,3.87,-3.87,-3.62,5.99,5.99,5.99
41,9.93,3.97,9.94,3.97,-3.97,-3.69,5.96,5.96,5.96
42,10.00,4.07,10.01,4.07,-4.07,-3.77,5.93,5.93,5.93
43,10.06,4.16,10.07,4.17,-4.17,-3.87,5.89,5.90,5.90
44,10.13,4.27,10.13,4.27,-4.27,-3.97,5.86,5.87,5.87
45,10.19,4.36,10.20,4.37,-4.37,-4.10,5.83,5.83,5.83
46,10.25,4.46,10.26,4.46,-4.46,-4.23,5.79,5.79,5.79
47,10.31,4.56,10.31,4.56,-4.56,-4.37,5.76,5.76,5.76
48,10.37,4.65,10.37,4.65,-4.65,-4.52,5.72,5.72,5.72
49,10.43,4.75,10.42,4.74,-4.74,-4.68,5.69,5.68,5.68
50,10.51,4.87,10.47,4.83,-4.83,-4.85,5.68,5.64,5.64
51,10.56,4.97,10.52,4.92,-4.92,-5.02,5.64,5.60,5.60
52,10.56,5.01,10.57,5.01,-5.01,-5.19,5.55,5.55,5.55
53,10.55,5.04,10.61,5.10,-5.10,-5.37,5.45,5.51,5.51
54,10.61,5.15,10.66,5.19,-5.19,-5.54,5.42,5.46,5.46
55,10.70,5.28,10.70,5.28,-5.28,-5.70,5.42,5.42,5.42
56,10.77,5.40,10.75,5.37,-5.37,-5.86,5.40,5.37,5.37
57,10.81,5.49,10.79,5.46,-5.46,-6.01,5.35,5.33,5.33
58,10.82,5.54,10.84,5.56,-5.56,-6.15,5.26,5.28,5.28
59,10.84,5.61,10.88,5.65,-5.65,-6.28,5.19,5.23,5.23
60,10.91,5.73,10.93,5.75,-5.75,-6.39,5.17,5.18,5.18
61,10.97,5.84,10.97,5.84,-5.84,-6.49,5.13,5.13,5.13
62,11.03,5.95,11.02,5.94,-5.94,-6.58,5.09,5.08,5.08
63,11.08,6.05,11.06,6.04,-6.04,-6.65,5.05,5.03,5.03
64,11.12,6.15,11.11,6.13,-6.13,-6.71,4.99,4.98,4.98
65,11.16,6.24,11.15,6.23,-6.23,-6.75,4.93,4.92,4.92
66,11.20,6.33,11.20,6.33,-6.33,-6.79,4.88,4.87,4.87
67,11.23,6.41,11.24,6.42,-6.42,-6.81,4.81,4.82,4.82
68,11.27,6.51,11.28,6.52,-6.52,-6.83,4.76,4.77,4.77
69,11.31,6.60,11.32,6.61,-6.61,-6.84,4.70,4.71,4.71
70,11.36,6.70,11.36,6.70,-6.70,-6.85,4.66,4.66,4.66
71,11.39,6.79,11.40,6.79,-6.79,-6.86,4.60,4.60,4.60
72,11.44,6.89,11.43,6.88,-6.88,-6.87,4.56,4.55,4.55
73,11.49,7.00,11.47,6.97,-6.97,-6.88,4.52,4.50,4.50
74,11.53,7.09,11.50,7.06,-7.06,-6.89,4.47,4.44,4.44
75,11.54,7.15,11.54,7.15,-7.15,-6.90,4.39,4.39,4.39
76,11.56,7.23,11.57,7.24,-7.24,-6.92,4.32,4.33,4.33
77,11.58,7.30,11.61,7.33,-7.33,-6.94,4.25,4.28,4.28
78,11.62,7.40,11.64,7.42,-7.42,-6.96,4.20,4.23,4.22
79,11.66,7.49,11.68,7.51,-7.51,-6.99,4.15,4.17,4.17
80,11.71,7.59,11.72,7.60,-7.60,-7.03,4.11,4.12,4.12
81,11.76,7.70,11.75,7.69,-7.69,-7.07,4.07,4.06,4.06
82,11.80,7.79,11.79,7.78,-7.78,-7.12,4.02,4.01,4.01
83,11.83,7.88,11.82,7.87,-7.87,-7.18,3.96,3.96,3.96
84,11.87,7.97,11.86,7.96,-7.96,-7.24,3.92,3.90,3.90
85,11.91,8.06,11.90,8.05,-8.05,-7.31,3.87,3.85,3.85
86,11.93,8.13,11.93,8.13,-8.13,-7.38,3.80,3.80,3.80
87,11.96,8.21,11.97,8.22,-8.22,-7.46,3.74,3.75,3.75
88,11.99,8.30,12.00,8.31,-8.31,-7.55,3.68,3.70,3.70
89,12.02,8.38,12.04,8.39,-8.39,-7.64,3.63,3.65,3.64
90,12.06,8.47,12.07,8.48,-8.48,-7.74,3.58,3.60,3.59
91,12.10,8.56,12.11,8.56,-8.56,-7.84,3.54,3.55,3.54
92,12.14,8.65,12.14,8.64,-8.64,-7.95,3.50,3.50,3.49
93,12.18,8.74,12.17,8.72,-8.72,-8.07,3.46,3.45,3.45
94,12.21,8.82,12.20,8.80,-8.80,-8.19,3.41,3.40,3.40
95,12.25,8.90,12.23,8.88,-8.88,-8.31,3.37,3.35,3.35
96,12.28,8.98,12.26,8.96,-8.96,-8.44,3.32,3.30,3.30
97,12.30,9.05,12.29,9.03,-9.03,-8.57,3.27,3.25,3.25
98,12.32,9.11,12.31,9.11,-9.11,-8.71,3.21,3.20,3.21
99,12.33,9.17,12.34,9.19,-9.19,-8.85,3.15,3.16,3.16
100,12.34,9.23,12.37,9.26,-9.26,-8.99,3.08,3.11,3.12
101,12.36,9.29,12.39,9.34,-9.34,-9.14,3.02,3.06,3.07
102,12.38,9.35,12.42,9.41,-9.41,-9.29,2.97,3.01,3.03
104,12.45,9.51,12.45,9.49,-9.49,-9.59,2.97,2.96,2.94
105,12.49,9.59,12.48,9.56,-9.56,-9.74,2.93,2.92,2.90
106,12.52,9.66,12.50,9.63,-9.63,-9.89,2.89,2.87,2.86
107,12.55,9.74,12.53,9.71,-9.71,-10.04,2.84,2.82,2.82
108,12.58,9.81,12.56,9.78,-9.78,-10.19,2.80,2.78,2.78
109,12.59,9.86,12.59,9.85,-9.85,-10.34,2.74,2.74,2.74
110,12.61,9.92,12.62,9.92,-9.92,-10.48,2.69,2.70,2.70
111,12.63,9.97,12.64,9.99,-9.99,-10.62,2.64,2.66,2.66
112,12.65,10.03,12.67,10.06,-10.06,-10.76,2.60,2.61,2.62
113,12.68,10.10,12.70,10.12,-10.12,-10.89,2.56,2.57,2.58
114,12.71,10.17,12.72,10.19,-10.19,-11.02,2.52,2.53,2.55
115,12.74,10.23,12.75,10.26,-10.26,-11.14,2.48,2.49,2.51
117,12.80,10.36,12.78,10.32,-10.32,-11.36,2.48,2.45,2.44
118,12.82,10.42,12.80,10.39,-10.39,-11.46,2.43,2.41,2.40
119,12.83,10.46,12.83,10.46,-10.46,-11.56,2.38,2.37,2.37
120,12.86,10.52,12.85,10.52,-10.52,-11.64,2.34,2.33,2.34
121,12.87,10.57,12.88,10.59,-10.59,-11.71,2.29,2.29,2.30
123,12.90,10.66,12.90,10.65,-10.65,-11.84,2.25,2.25,2.24
124,12.92,10.71,12.93,10.71,-10.71,-11.88,2.21,2.22,2.21
125,12.93,10.75,12.95,10.77,-10.77,-11.92,2.16,2.18,2.18
126,12.95,10.80,12.97,10.83,-10.83,-11.95,2.12,2.14,2.15
128,13.00,10.91,12.99,10.89,-10.89,-11.99,2.11,2.10,2.09
129,13.02,10.96,13.01,10.95,-10.95,-11.99,2.08,2.07,2.06
130,13.04,11.01,13.03,11.00,-11.00,-11.99,2.04,2.03,2.04
131,13.06,11.05,13.05,11.05,-11.05,-11.98,2.01,2.00,2.01
133,13.09,11.14,13.06,11.10,-11.10,-11.94,1.99,1.96,1.96
134,13.09,11.16,13.07,11.15,-11.15,-11.92,1.94,1.93,1.93
135,13.09,11.19,13.09,11.19,-11.19,-11.89,1.90,1.89,1.90
137,13.09,11.24,13.10,11.24,-11.24,-11.81,1.85,1.86,1.85
138,13.10,11.27,13.11,11.28,-11.28,-11.77,1.82,1.83,1.83
140,13.12,11.34,13.12,11.33,-11.33,-11.68,1.79,1.79,1.78
141,13.12,11.36,13.13,11.37,-11.37,-11.64,1.75,1.76,1.76
142,13.12,11.38,13.15,11.42,-11.42,-11.59,1.70,1.73,1.74
144,13.15,11.46,13.17,11.46,-11.46,-11.50,1.69,1.70,1.70
145,13.17,11.50,13.18,11.51,-11.51,-11.45,1.66,1.67,1.68
147,13.21,11.58,13.20,11.56,-11.56,-11.35,1.65,1.64,1.63
148,13.22,11.61,13.22,11.61,-11.61,-11.31,1.61,1.61,1.61
150,13.25,11.68,13.25,11.67,-11.67,-11.22,1.59,1.58,1.58
151,13.27,11.71,13.27,11.72,-11.72,-11.18,1.55,1.55,1.56
153,13.31,11.79,13.30,11.77,-11.77,-11.10,1.54,1.53,1.52
154,13.33,11.83,13.33,11.83,-11.83,-11.07,1.50,1.50,1.50
156,13.36,11.89,13.36,11.88,-11.88,-11.01,1.48,1.47,1.47
157,13.38,11.93,13.39,11.94,-11.94,-10.98,1.44,1.45,1.45
159,13.41,11.99,13.42,12.00,-12.00,-10.93,1.42,1.42,1.42
160,13.44,12.04,13.45,12.05,-12.05,-10.91,1.39,1.40,1.40
162,13.47,12.10,13.48,12.11,-12.11,-10.87,1.36,1.37,1.37
164,13.51,12.17,13.51,12.16,-12.16,-10.85,1.35,1.35,1.34
165,13.53,12.20,13.54,12.22,-12.22,-10.84,1.32,1.33,1.33
167,13.57,12.27,13.57,12.27,-12.27,-10.83,1.30,1.30,1.30
169,13.61,12.34,13.60,12.32,-12.32,-10.83,1.29,1.28,1.28
170,13.62,12.36,13.63,12.37,-12.37,-10.84,1.25,1.26,1.26
172,13.66,12.43,13.65,12.41,-12.41,-10.86,1.25,1.24,1.24
174,13.69,12.48,13.67,12.46,-12.46,-10.88,1.24,1.22,1.21
175,13.70,12.50,13.69,12.50,-12.50,-10.90,1.20,1.20,1.20
177,13.73,12.55,13.71,12.53,-12.53,-10.94,1.20,1.18,1.18
179,13.74,12.59,13.73,12.57,-12.57,-10.99,1.17,1.16,1.16
181,13.75,12.62,13.74,12.60,-12.60,-11.05,1.15,1.14,1.13
183,13.74,12.63,13.75,12.64,-12.64,-11.12,1.11,1.12,1.11
184,13.74,12.64,13.77,12.67,-12.67,-11.16,1.07,1.10,1.10
186,13.75,12.67,13.78,12.70,-12.70,-11.24,1.05,1.08,1.08
188,13.77,12.71,13.79,12.73,-12.73,-11.33,1.04,1.06,1.06
190,13.78,12.74,13.80,12.76,-12.76,-11.43,1.03,1.05,1.05
192,13.81,12.78,13.81,12.79,-12.79,-11.54,1.03,1.03,1.03
194,13.83,12.82,13.83,12.81,-12.81,-11.65,1.02,1.01,1.01
196,13.85,12.86,13.84,12.84,-12.84,-11.77,1.01,1.00,1.00
198,13.86,12.88,13.85,12.87,-12.87,-11.89,0.99,0.98,0.98
200,13.86,12.90,13.86,12.89,-12.89,-12.02,0.97,0.96,0.96
202,13.86,12.91,13.86,12.91,-12.91,-12.16,0.95,0.95,0.95
204,13.86,12.93,13.87,12.93,-12.93,-12.30,0.93,0.94,0.94
206,13.87,12.95,13.87,12.95,-12.95,-12.44,0.92,0.92,0.92
208,13.87,12.96,13.87,12.96,-12.96,-12.59,0.91,0.91,0.91
210,13.88,12.99,13.87,12.97,-12.97,-12.74,0.91,0.89,0.90
212,13.88,13.00,13.86,12.98,-12.98,-12.89,0.90,0.88,0.88
214,13.87,13.00,13.86,12.99,-12.99,-13.04,0.88,0.87,0.87
216,13.87,13.01,13.85,12.99,-12.99,-13.19,0.88,0.86,0.86
218,13.84,12.99,13.84,12.99,-12.99,-13.34,0.85,0.85,0.85
221,13.81,12.98,13.82,12.99,-12.99,-13.57,0.82,0.83,0.83
223,13.79,12.97,13.81,12.99,-12.99,-13.71,0.80,0.82,0.82
225,13.77,12.96,13.80,12.99,-12.99,-13.85,0.78,0.81,0.81
227,13.77,12.97,13.79,12.99,-12.99,-13.99,0.79,0.80,0.80
229,13.76,12.97,13.77,12.98,-12.98,-14.12,0.78,0.79,0.79
232,13.76,12.98,13.76,12.98,-12.98,-14.29,0.78,0.78,0.78
234,13.75,12.98,13.75,12.98,-12.98,-14.40,0.77,0.77,0.77
236,13.74,12.98,13.74,12.98,-12.98,-14.49,0.76,0.76,0.76
239,13.73,12.98,13.73,12.98,-12.98,-14.61,0.76,0.75,0.75
241,13.71,12.97,13.71,12.97,-12.97,-14.67,0.74,0.74,0.74
244,13.70,12.97,13.70,12.97,-12.97,-14.74,0.73,0.73,0.73
246,13.69,12.97,13.68,12.96,-12.96,-14.76,0.73,0.72,0.72
248,13.67,12.96,13.67,12.95,-12.95,-14.78,0.72,0.71,0.72
251,13.65,12.95,13.65,12.95,-12.95,-14.77,0.71,0.71,0.71
253,13.63,12.93,13.63,12.94,-12.94,-14.74,0.70,0.70,0.70
256,13.61,12.92,13.61,12.92,-12.92,-14.68,0.69,0.69,0.69
259,13.59,12.91,13.59,12.91,-12.91,-14.59,0.68,0.68,0.68
261,13.57,12.90,13.57,12.89,-12.89,-14.52,0.68,0.67,0.68
264,13.54,12.88,13.54,12.87,-12.87,-14.39,0.67,0.67,0.67
266,13.52,12.86,13.52,12.85,-12.85,-14.29,0.67,0.66,0.66
269,13.48,12.83,13.49,12.83,-12.83,-14.13,0.65,0.65,0.65
272,13.45,12.81,13.46,12.81,-12.81,-13.95,0.64,0.65,0.65
274,13.43,12.79,13.43,12.79,-12.79,-13.83,0.65,0.64,0.64
277,13.39,12.76,13.39,12.76,-12.76,-13.64,0.63,0.63,0.63
280,13.36,12.73,13.36,12.73,-12.73,-13.44,0.63,0.63,0.63
283,13.32,12.70,13.33,12.70,-12.70,-13.24,0.62,0.62,0.62
286,13.28,12.67,13.29,12.67,-12.67,-13.04,0.61,0.62,0.62
288,13.26,12.65,13.25,12.64,-12.64,-12.91,0.62,0.61,0.61
291,13.21,12.61,13.21,12.61,-12.61,-12.71,0.60,0.60,0.61
294,13.17,12.57,13.17,12.58,-12.58,-12.52,0.60,0.60,0.60
297,13.13,12.54,13.13,12.54,-12.54,-12.33,0.59,0.59,0.59
300,13.09,12.50,13.09,12.50,-12.50,-12.14,0.59,0.59,0.59
303,13.05,12.47,13.05,12.46,-12.46,-11.96,0.59,0.58,0.58
306,13.00,12.42,13.00,12.42,-12.42,-11.79,0.58,0.58,0.58
309,12.96,12.39,12.96,12.38,-12.38,-11.62,0.58,0.57,0.58
312,12.91,12.34,12.91,12.34,-12.34,-11.47,0.57,0.57,0.57
316,12.85,12.29,12.86,12.29,-12.29,-11.26,0.56,0.57,0.57
319,12.80,12.24,12.81,12.25,-12.25,-11.12,0.56,0.56,0.56
322,12.75,12.19,12.76,12.20,-12.20,-10.98,0.55,0.56,0.56
325,12.70,12.15,12.70,12.15,-12.15,-10.86,0.55,0.55,0.55
328,12.65,12.10,12.65,12.10,-12.10,-10.73,0.56,0.55,0.55
332,12.58,12.04,12.59,12.04,-12.04,-10.58,0.54,0.55,0.55
335,12.53,11.99,12.53,11.99,-11.99,-10.48,0.54,0.54,0.54
338,12.48,11.94,12.47,11.93,-11.93,-10.38,0.55,0.54,0.54
342,12.40,11.87,12.41,11.87,-11.87,-10.26,0.53,0.54,0.54
345,12.35,11.82,12.35,11.81,-11.81,-10.18,0.54,0.53,0.53
349,12.27,11.74,12.28,11.75,-11.75,-10.07,0.52,0.53,0.53
352,12.22,11.70,12.22,11.69,-11.69,-10.00,0.53,0.53,0.53
356,12.14,11.62,12.15,11.63,-11.63,-9.92,0.52,0.52,0.52
359,12.08,11.56,12.08,11.56,-11.56,-9.86,0.52,0.52,0.52
363,12.00,11.49,12.01,11.49,-11.49,-9.80,0.51,0.52,0.52
366,11.94,11.43,11.94,11.42,-11.42,-9.75,0.52,0.51,0.51
370,11.86,11.35,11.86,11.35,-11.35,-9.70,0.51,0.51,0.51
374,11.78,11.28,11.79,11.28,-11.28,-9.66,0.50,0.51,0.51
377,11.72,11.22,11.71,11.21,-11.21,-9.63,0.52,0.50,0.50
381,11.63,11.13,11.63,11.13,-11.13,-9.60,0.50,0.50,0.50
385,11.55,11.05,11.55,11.05,-11.05,-9.58,0.50,0.50,0.50
389,11.46,10.97,11.46,10.97,-10.97,-9.56,0.49,0.49,0.49
393,11.38,10.89,11.38,10.89,-10.89,-9.55,0.49,0.49,0.49
397,11.29,10.80,11.29,10.80,-10.80,-9.55,0.49,0.49,0.49
401,11.20,10.72,11.20,10.72,-10.72,-9.55,0.48,0.49,0.49
405,11.11,10.63,11.12,10.63,-10.63,-9.55,0.48,0.48,0.48
409,11.02,10.54,11.02,10.54,-10.54,-9.56,0.48,0.48,0.48
413,10.93,10.45,10.93,10.45,-10.45,-9.57,0.48,0.48,0.48
417,10.84,10.36,10.84,10.36,-10.36,-9.58,0.48,0.48,0.48
421,10.75,10.28,10.75,10.27,-10.27,-9.60,0.48,0.48,0.48
425,10.65,10.18,10.65,10.18,-10.18,-9.61,0.48,0.47,0.48
430,10.54,10.07,10.56,10.08,-10.08,-9.63,0.46,0.47,0.47
434,10.45,9.98,10.46,9.98,-9.98,-9.65,0.47,0.47,0.47
438,10.35,9.88,10.36,9.88,-9.88,-9.67,0.47,0.48,0.48
443,10.25,9.77,10.26,9.78,-9.78,-9.68,0.47,0.48,0.48
447,10.16,9.68,10.16,9.68,-9.68,-9.69,0.48,0.48,0.48
451,10.07,9.59,10.06,9.58,-9.58,-9.70,0.50,0.48,0.48
456,9.95,9.47,9.95,9.47,-9.47,-9.70,0.49,0.49,0.49
460,9.85,9.36,9.85,9.35,-9.35,-9.70,0.50,0.49,0.49
465,9.74,9.24,9.74,9.24,-9.24,-9.69,0.50,0.50,0.50
470,9.62,9.12,9.62,9.12,-9.12,-9.67,0.50,0.51,0.50
474,9.51,9.00,9.51,8.99,-8.99,-9.65,0.52,0.51,0.51
479,9.39,8.87,9.39,8.87,-8.87,-9.61,0.53,0.52,0.52
484,9.27,8.74,9.27,8.73,-8.73,-9.56,0.54,0.53,0.53
489,9.15,8.61,9.14,8.60,-8.60,-9.49,0.56,0.54,0.54
494,9.02,8.47,9.01,8.45,-8.45,-9.42,0.57,0.56,0.56
499,8.89,8.32,8.88,8.31,-8.31,-9.33,0.58,0.57,0.57
504,8.75,8.17,8.75,8.16,-8.16,-9.23,0.59,0.58,0.58
509,8.61,8.01,8.61,8.01,-8.01,-9.12,0.60,0.60,0.60
514,8.48,7.87,8.48,7.86,-7.86,-9.00,0.62,0.62,0.62
519,8.33,7.70,8.35,7.71,-7.71,-8.87,0.62,0.63,0.63
524,8.19,7.54,8.21,7.56,-7.56,-8.72,0.63,0.65,0.65
529,8.06,7.39,8.08,7.41,-7.41,-8.57,0.65,0.67,0.67
535,7.92,7.23,7.95,7.26,-7.26,-8.38,0.67,0.69,0.69
540,7.79,7.08,7.82,7.11,-7.11,-8.21,0.69,0.71,0.71
545,7.69,6.95,7.69,6.95,-6.95,-8.04,0.74,0.74,0.74
551,7.57,6.81,7.56,6.80,-6.80,-7.82,0.77,0.76,0.76
556,7.45,6.67,7.44,6.65,-6.65,-7.64,0.80,0.79,0.79
562,7.32,6.51,7.31,6.50,-6.50,-7.41,0.83,0.81,0.81
568,7.17,6.34,7.18,6.34,-6.34,-7.18,0.83,0.84,0.84
573,7.05,6.19,7.05,6.18,-6.18,-6.99,0.87,0.86,0.86
579,6.91,6.02,6.91,6.02,-6.02,-6.76,0.89,0.89,0.89
585,6.76,5.84,6.78,5.86,-5.86,-6.52,0.91,0.92,0.92
591,6.63,5.68,6.64,5.69,-5.69,-6.29,0.94,0.95,0.95
596,6.51,5.53,6.49,5.52,-5.52,-6.09,1.00,0.98,0.98
602,6.37,5.36,6.35,5.34,-5.34,-5.86,1.03,1.01,1.01
608,6.23,5.19,6.20,5.16,-5.16,-5.63,1.07,1.04,1.04
615,6.06,4.99,6.05,4.98,-4.98,-5.36,1.08,1.07,1.07
621,5.89,4.79,5.89,4.79,-4.79,-5.13,1.10,1.10,1.10
627,5.73,4.60,5.74,4.60,-4.60,-4.91,1.13,1.13,1.13
633,5.57,4.40,5.58,4.41,-4.41,-4.69,1.16,1.17,1.17
639,5.41,4.21,5.42,4.22,-4.22,-4.47,1.19,1.20,1.20
646,5.23,4.00,5.27,4.03,-4.03,-4.22,1.20,1.24,1.23
652,5.10,3.83,5.11,3.84,-3.84,-4.01,1.26,1.27,1.27
659,4.95,3.65,4.96,3.65,-3.65,-3.76,1.30,1.30,1.30
665,4.82,3.48,4.81,3.47,-3.47,-3.56,1.36,1.34,1.34
672,4.67,3.30,4.65,3.28,-3.28,-3.32,1.39,1.38,1.38
679,4.51,3.10,4.51,3.09,-3.09,-3.09,1.42,1.41,1.41
686,4.34,2.89,4.36,2.91,-2.91,-2.86,1.43,1.45,1.45
692,4.21,2.73,4.21,2.73,-2.73,-2.67,1.49,1.49,1.49
699,4.05,2.53,4.07,2.55,-2.55,-2.45,1.51,1.52,1.52
706,3.91,2.35,3.93,2.37,-2.37,-2.23,1.55,1.56,1.56
713,3.77,2.17,3.79,2.19,-2.19,-2.02,1.59,1.60,1.60
721,3.64,2.01,3.64,2.01,-2.01,-1.78,1.63,1.64,1.64
728,3.51,1.84,3.50,1.83,-1.83,-1.57,1.68,1.67,1.67
735,3.39,1.68,3.36,1.65,-1.65,-1.37,1.74,1.71,1.71
742,3.26,1.51,3.22,1.47,-1.47,-1.17,1.79,1.75,1.75
750,3.10,1.31,3.08,1.30,-1.30,-0.94,1.81,1.79,1.79
757,2.96,1.14,2.94,1.12,-1.12,-0.75,1.84,1.82,1.82
765,2.79,0.93,2.80,0.94,-0.94,-0.53,1.85,1.86,1.86
773,2.64,0.74,2.67,0.77,-0.77,-0.31,1.87,1.90,1.90
780,2.51,0.58,2.53,0.60,-0.60,-0.13,1.92,1.93,1.93
788,2.38,0.41,2.40,0.43,-0.43,0.08,1.95,1.97,1.97
796,2.24,0.24,2.26,0.26,-0.26,0.28,1.98,2.00,2.00
804,2.13,0.09,2.13,0.10,-0.10,0.48,2.04,2.04,2.04
812,2.01,-0.06,2.01,-0.06,0.06,0.68,2.08,2.07,2.07
820,1.89,-0.21,1.88,-0.22,0.22,0.87,2.11,2.10,2.10
828,1.77,-0.37,1.76,-0.38,0.38,1.06,2.15,2.14,2.14
837,1.64,-0.53,1.64,-0.53,0.53,1.27,2.17,2.17,2.17
845,1.53,-0.67,1.53,-0.67,0.67,1.45,2.21,2.20,2.20
853,1.42,-0.81,1.41,-0.82,0.82,1.63,2.24,2.23,2.23
862,1.30,-0.96,1.30,-0.96,0.96,1.82,2.26,2.26,2.26
871,1.19,-1.10,1.19,-1.10,1.10,2.00,2.29,2.29,2.29
879,1.09,-1.23,1.09,-1.23,1.23,2.16,2.32,2.32,2.32
888,0.98,-1.37,0.99,-1.36,1.36,2.34,2.34,2.35,2.35
897,0.88,-1.49,0.89,-1.49,1.49,2.50,2.37,2.38,2.38
906,0.78,-1.62,0.79,-1.61,1.61,2.66,2.39,2.40,2.40
915,0.69,-1.74,0.70,-1.73,1.73,2.81,2.42,2.43,2.43
924,0.60,-1.86,0.61,-1.85,1.85,2.95,2.45,2.46,2.46
933,0.51,-1.97,0.52,-1.96,1.96,3.09,2.47,2.48,2.48
943,0.42,-2.09,0.44,-2.07,2.07,3.23,2.49,2.51,2.51
952,0.35,-2.19,0.36,-2.18,2.18,3.34,2.53,2.54,2.54
962,0.29,-2.27,0.28,-2.28,2.28,3.46,2.57,2.56,2.56
971,0.22,-2.37,0.20,-2.39,2.39,3.56,2.61,2.59,2.59
981,0.15,-2.46,0.13,-2.49,2.49,3.66,2.64,2.62,2.62
991,0.07,-2.57,0.05,-2.59,2.59,3.75,2.66,2.64,2.64
1001,-0.01,-2.68,-0.02,-2.69,2.69,3.83,2.68,2.67,2.67
1011,-0.10,-2.80,-0.09,-2.79,2.79,3.90,2.69,2.70,2.70
1021,-0.17,-2.89,-0.16,-2.89,2.89,3.96,2.72,2.72,2.72
1031,-0.26,-3.01,-0.23,-2.99,2.99,4.01,2.73,2.75,2.75
1041,-0.33,-3.11,-0.30,-3.08,3.08,4.05,2.76,2.78,2.78
1052,-0.40,-3.21,-0.37,-3.18,3.18,4.09,2.78,2.81,2.81
1062,-0.47,-3.30,-0.45,-3.28,3.28,4.11,2.81,2.84,2.84
1073,-0.53,-3.39,-0.52,-3.38,3.38,4.13,2.86,2.86,2.86
1084,-0.60,-3.49,-0.60,-3.49,3.49,4.15,2.89,2.89,2.89
1094,-0.67,-3.59,-0.68,-3.60,3.60,4.16,2.93,2.92,2.92
1105,-0.75,-3.70,-0.76,-3.71,3.71,4.16,2.96,2.95,2.95
1116,-0.83,-3.81,-0.85,-3.83,3.83,4.16,3.01,2.98,2.98
1128,-0.92,-3.93,-0.95,-3.96,3.96,4.15,3.04,3.01,3.01
1139,-1.03,-4.07,-1.06,-4.10,4.10,4.14,3.07,3.04,3.04
1150,-1.14,-4.21,-1.17,-4.24,4.24,4.13,3.11,3.07,3.07
1162,-1.28,-4.38,-1.29,-4.40,4.40,4.11,3.12,3.10,3.10
1173,-1.41,-4.54,-1.42,-4.56,4.56,4.10,3.15,3.14,3.14
1185,-1.56,-4.73,-1.56,-4.72,4.72,4.08,3.17,3.17,3.17
1197,-1.71,-4.91,-1.70,-4.90,4.90,4.06,3.19,3.20,3.20
1209,-1.86,-5.09,-1.85,-5.08,5.08,4.04,3.22,3.23,3.23
1221,-2.02,-5.28,-2.00,-5.26,5.26,4.02,3.25,3.27,3.27
1233,-2.18,-5.48,-2.15,-5.45,5.45,4.00,3.28,3.30,3.30
1246,-2.35,-5.68,-2.32,-5.65,5.63,3.99,3.28,3.31,3.33
1258,-2.50,-5.86,-2.48,-5.85,5.76,3.97,3.26,3.28,3.37
1271,-2.65,-6.05,-2.65,-6.05,5.86,3.96,3.21,3.21,3.40
1283,-2.80,-6.23,-2.82,-6.26,5.93,3.94,3.13,3.11,3.44
1296,-2.96,-6.43,-3.00,-6.47,5.98,3.93,3.02,2.98,3.47
1309,-3.14,-6.64,-3.18,-6.69,6.00,3.93,2.86,2.82,3.51
1322,-3.33,-6.87,-3.37,-6.91,6.00,3.92,2.67,2.63,3.54
1335,-3.53,-7.11,-3.55,-7.13,6.00,3.92,2.47,2.45,3.58
1349,-3.75,-7.36,-3.75,-7.36,6.00,3.92,2.25,2.25,3.61
1362,-3.94,-7.59,-3.94,-7.59,6.00,3.92,2.06,2.06,3.65
1376,-4.14,-7.83,-4.13,-7.82,6.00,3.93,1.86,1.87,3.69
1390,-4.32,-8.04,-4.32,-8.04,6.00,3.94,1.68,1.68,3.73
1404,-4.48,-8.24,-4.50,-8.27,6.00,3.95,1.52,1.50,3.76
1418,-4.65,-8.45,-4.68,-8.48,6.00,3.97,1.35,1.32,3.80
1432,-4.80,-8.64,-4.85,-8.69,6.00,3.99,1.20,1.15,3.84
1446,-4.96,-8.84,-5.00,-8.88,6.00,4.01,1.04,1.00,3.88
1461,-5.12,-9.04,-5.13,-9.05,6.00,4.03,0.88,0.87,3.92
1475,-5.26,-9.22,-5.24,-9.20,6.00,4.06,0.74,0.76,3.96
1490,-5.37,-9.37,-5.33,-9.33,6.00,4.09,0.63,0.67,4.00
1505,-5.44,-9.48,-5.39,-9.43,6.00,4.13,0.56,0.61,4.04
1520,-5.47,-9.55,-5.42,-9.50,6.00,4.17,0.53,0.58,4.08
1535,-5.45,-9.57,-5.41,-9.53,6.00,4.21,0.55,0.59,4.12
1550,-5.40,-9.56,-5.36,-9.52,6.00,4.25,0.60,0.64,4.16
1566,-5.32,-9.53,-5.28,-9.48,6.00,4.30,0.68,0.72,4.21
1582,-5.18,-9.43,-5.15,-9.40,6.00,4.35,0.82,0.85,4.25
1597,-5.02,-9.31,-4.98,-9.28,6.00,4.40,0.98,1.02,4.29
1613,-4.84,-9.17,-4.78,-9.12,6.00,4.45,1.16,1.22,4.34
1629,-4.58,-8.96,-4.54,-8.92,6.00,4.51,1.42,1.46,4.38
1646,-4.29,-8.71,-4.26,-8.68,6.00,4.57,1.71,1.74,4.43
1662,-3.99,-8.46,-3.94,-8.41,6.00,4.63,2.01,2.06,4.47
1679,-3.63,-8.14,-3.60,-8.12,6.00,4.69,2.37,2.40,4.52
1696,-3.25,-7.81,-3.23,-7.79,6.00,4.75,2.75,2.77,4.56
1713,-2.86,-7.47,-2.84,-7.45,6.00,4.81,3.14,3.16,4.61
1730,-2.45,-7.10,-2.44,-7.09,6.00,4.88,3.55,3.56,4.66
1747,-2.02,-6.72,-2.02,-6.73,5.95,4.94,3.93,3.93,4.71
1764,-1.60,-6.35,-1.60,-6.35,5.85,5.00,4.25,4.25,4.75
