frequency,raw
20.00,3.33
20.20,3.34
20.40,3.38
20.61,3.44
20.81,3.50
21.02,3.55
21.23,3.60
21.44,3.69
21.66,3.74
21.87,3.78
22.09,3.83
22.31,3.88
22.54,3.92
22.76,3.97
22.99,4.03
23.22,4.06
23.45,4.11
23.69,4.17
23.92,4.24
24.16,4.30
24.40,4.35
24.65,4.42
24.89,4.48
25.14,4.55
25.39,4.62
25.65,4.67
25.91,4.73
26.16,4.78
26.43,4.83
26.69,4.87
26.96,4.92
27.23,4.97
27.50,5.00
27.77,5.04
28.05,5.09
28.33,5.12
28.62,5.16
28.90,5.20
29.19,5.20
29.48,5.24
29.78,5.28
30.08,5.32
30.38,5.36
30.68,5.39
30.99,5.44
31.30,5.44
31.61,5.44
31.93,5.48
32.24,5.48
32.57,5.53
32.89,5.53
33.22,5.53
33.55,5.54
33.89,5.58
34.23,5.59
34.57,5.62
34.92,5.66
35.27,5.67
35.62,5.70
35.97,5.75
36.33,5.79
36.70,5.84
37.06,5.88
37.43,5.92
37.81,5.95
38.19,5.99
38.57,5.99
38.95,6.04
39.34,6.04
39.74,6.04
40.14,6.05
40.54,6.09
40.94,6.09
41.35,6.09
41.76,6.11
42.18,6.13
42.60,6.13
43.03,6.13
43.46,6.13
43.90,6.13
44.33,6.13
44.78,6.15
45.23,6.18
45.68,6.18
46.13,6.18
46.60,6.18
47.06,6.18
47.53,6.13
48.01,6.13
48.49,6.10
48.97,6.09
49.46,6.04
49.96,6.04
50.46,6.02
50.96,5.99
51.47,5.99
51.99,5.99
52.51,5.99
53.03,5.95
53.56,5.95
54.10,5.95
54.64,5.90
55.18,5.90
55.74,5.89
56.29,5.86
56.86,5.86
57.42,5.86
58.00,5.86
58.58,5.86
59.16,5.84
59.76,5.81
60.35,5.81
60.96,5.86
61.57,5.89
62.18,5.92
62.80,6.00
63.43,6.06
64.07,6.13
64.71,6.21
65.35,6.26
66.01,6.34
66.67,6.40
67.33,6.47
68.01,6.53
68.69,6.58
69.37,6.62
70.07,6.67
70.77,6.75
71.48,6.80
72.19,6.85
72.91,6.90
73.64,6.95
74.38,6.99
75.12,7.04
75.87,7.08
76.63,7.11
77.40,7.16
78.17,7.16
78.95,7.16
79.74,7.21
80.54,7.21
81.35,7.21
82.16,7.21
82.98,7.21
83.81,7.21
84.65,7.21
85.50,7.21
86.35,7.21
87.22,7.21
88.09,7.21
88.97,7.21
89.86,7.21
90.76,7.17
91.66,7.16
92.58,7.16
93.51,7.16
94.44,7.11
95.39,7.11
96.34,7.11
97.30,7.07
98.28,7.07
99.26,7.07
100.25,7.07
101.25,7.07
102.27,7.07
103.29,7.07
104.32,7.02
105.37,7.02
106.42,7.02
107.48,7.02
108.56,7.02
109.64,6.97
110.74,6.97
111.85,6.97
112.97,6.95
114.10,6.93
115.24,6.91
116.39,6.88
117.55,6.85
118.73,6.81
119.92,6.76
121.12,6.71
122.33,6.65
123.55,6.62
124.79,6.60
126.03,6.56
127.29,6.53
128.57,6.46
129.85,6.40
131.15,6.34
132.46,6.30
133.79,6.23
135.12,6.16
136.48,6.08
137.84,6.01
139.22,5.90
140.61,5.84
142.02,5.73
143.44,5.66
144.87,5.56
146.32,5.47
147.78,5.38
149.26,5.28
150.75,5.19
152.26,5.06
153.78,4.95
155.32,4.79
156.88,4.66
158.44,4.50
160.03,4.38
161.63,4.22
163.24,4.11
164.88,3.98
166.53,3.90
168.19,3.83
169.87,3.78
171.57,3.73
173.29,3.68
175.02,3.65
176.77,3.60
178.54,3.54
180.32,3.47
182.13,3.40
183.95,3.33
185.79,3.25
187.65,3.19
189.52,3.10
191.42,3.02
193.33,2.94
195.27,2.85
197.22,2.78
199.19,2.68
201.18,2.61
203.19,2.53
205.23,2.47
207.28,2.40
209.35,2.34
211.44,2.27
213.56,2.21
215.69,2.15
217.85,2.10
220.03,2.04
222.23,1.97
224.45,1.92
226.70,1.87
228.96,1.83
231.25,1.77
233.57,1.72
235.90,1.67
238.26,1.63
240.64,1.58
243.05,1.53
245.48,1.50
247.93,1.47
250.41,1.41
252.92,1.38
255.45,1.33
258.00,1.27
260.58,1.24
263.19,1.19
265.82,1.16
268.48,1.11
271.16,1.09
273.87,1.06
276.61,1.03
279.38,1.01
282.17,0.97
284.99,0.97
287.84,0.94
290.72,0.92
293.63,0.97
296.57,0.97
299.53,0.97
302.53,0.97
305.55,0.93
308.61,0.92
311.69,0.92
314.81,0.92
317.96,0.92
321.14,0.93
324.35,0.97
327.59,0.97
330.87,0.97
334.18,0.97
337.52,0.97
340.90,0.97
344.30,0.92
347.75,0.92
351.23,0.87
354.74,0.86
358.28,0.83
361.87,0.78
365.49,0.78
369.14,0.73
372.83,0.72
376.56,0.67
380.33,0.64
384.13,0.60
387.97,0.56
391.85,0.50
395.77,0.50
399.73,0.46
403.72,0.45
407.76,0.45
411.84,0.41
415.96,0.41
420.12,0.38
424.32,0.36
428.56,0.32
432.85,0.32
437.18,0.28
441.55,0.27
445.96,0.26
450.42,0.22
454.93,0.22
459.48,0.22
464.07,0.18
468.71,0.18
473.40,0.17
478.13,0.13
482.91,0.13
487.74,0.08
492.62,0.08
497.55,0.08
502.52,0.07
507.55,0.04
512.62,0.04
517.75,-0.01
522.93,-0.01
528.16,-0.01
533.44,-0.02
538.77,-0.06
544.16,-0.06
549.60,-0.06
555.10,-0.06
560.65,-0.10
566.25,-0.10
571.92,-0.10
577.64,-0.10
583.41,-0.15
589.25,-0.15
595.14,-0.20
601.09,-0.20
607.10,-0.20
613.17,-0.22
619.30,-0.22
625.50,-0.22
631.75,-0.22
638.07,-0.21
644.45,-0.20
650.89,-0.20
657.40,-0.20
663.98,-0.20
670.62,-0.20
677.32,-0.22
684.10,-0.24
690.94,-0.24
697.85,-0.24
704.83,-0.24
711.87,-0.24
718.99,-0.24
726.18,-0.23
733.44,-0.20
740.78,-0.20
748.19,-0.18
755.67,-0.15
763.23,-0.10
770.86,-0.10
778.57,-0.10
786.35,-0.10
794.22,-0.10
802.16,-0.10
810.18,-0.10
818.28,-0.10
826.46,-0.10
834.73,-0.08
843.08,-0.10
851.51,-0.10
860.02,-0.10
868.62,-0.10
877.31,-0.10
886.08,-0.15
894.94,-0.15
903.89,-0.18
912.93,-0.20
922.06,-0.20
931.28,-0.20
940.59,-0.20
950.00,-0.20
959.50,-0.20
969.09,-0.16
978.78,-0.13
988.57,-0.07
998.46,-0.01
1008.44,0.06
1018.53,0.14
1028.71,0.23
1039.00,0.31
1049.39,0.37
1059.88,0.43
1070.48,0.48
1081.19,0.53
1092.00,0.55
1102.92,0.59
1113.95,0.59
1125.09,0.64
1136.34,0.66
1147.70,0.72
1159.18,0.81
1170.77,0.87
1182.48,0.97
1194.30,1.04
1206.25,1.12
1218.31,1.18
1230.49,1.22
1242.80,1.27
1255.22,1.32
1267.78,1.35
1280.45,1.41
1293.26,1.46
1306.19,1.50
1319.25,1.55
1332.45,1.62
1345.77,1.70
1359.23,1.76
1372.82,1.83
1386.55,1.93
1400.41,2.01
1414.42,2.12
1428.56,2.23
1442.85,2.34
1457.28,2.42
1471.85,2.53
1486.57,2.59
1501.43,2.70
1516.45,2.75
1531.61,2.81
1546.93,2.88
1562.40,2.95
1578.02,3.04
1593.80,3.15
1609.74,3.28
1625.84,3.43
1642.10,3.57
1658.52,3.70
1675.10,3.85
1691.85,3.99
1708.77,4.12
1725.86,4.27
1743.12,4.39
1760.55,4.53
1778.15,4.69
1795.94,4.83
1813.90,4.99
1832.03,5.18
1850.36,5.36
1868.86,5.54
1887.55,5.71
1906.42,5.89
1925.49,6.05
1944.74,6.20
1964.19,6.37
1983.83,6.53
2003.67,6.67
2023.71,6.83
2043.94,7.00
2064.38,7.11
2085.03,7.24
2105.88,7.37
2126.94,7.48
2148.20,7.57
2169.69,7.68
2191.38,7.79
2213.30,7.87
2235.43,7.94
2257.78,8.04
2280.36,8.13
2303.17,8.26
2326.20,8.37
2349.46,8.53
2372.95,8.67
2396.68,8.81
2420.65,8.99
2444.86,9.16
2469.31,9.30
2494.00,9.44
2518.94,9.58
2544.13,9.70
2569.57,9.77
2595.27,9.84
2621.22,9.91
2647.43,9.98
2673.90,10.04
2700.64,10.09
2727.65,10.14
2754.93,10.14
2782.48,10.14
2810.30,10.11
2838.40,10.10
2866.79,10.09
2895.46,10.09
2924.41,10.09
2953.65,10.12
2983.19,10.19
3013.02,10.27
3043.15,10.33
3073.58,10.37
3104.32,10.37
3135.36,10.35
3166.72,10.30
3198.38,10.25
3230.37,10.21
3262.67,10.18
3295.30,10.14
3328.25,10.11
3361.53,10.07
3395.15,10.03
3429.10,10.00
3463.39,9.92
3498.03,9.86
3533.01,9.76
3568.34,9.71
3604.02,9.63
3640.06,9.62
3676.46,9.57
3713.22,9.52
3750.36,9.46
3787.86,9.42
3825.74,9.37
3864.00,9.27
3902.64,9.15
3941.66,8.97
3981.08,8.78
4020.89,8.53
4061.10,8.32
4101.71,8.10
4142.73,7.87
4184.15,7.62
4226.00,7.33
4268.26,7.04
4310.94,6.76
4354.05,6.49
4397.59,6.30
4441.56,6.10
4485.98,5.89
4530.84,5.73
4576.15,5.59
4621.91,5.47
4668.13,5.40
4714.81,5.35
4761.96,5.32
4809.58,5.30
4857.67,5.28
4906.25,5.23
4955.31,5.20
5004.87,5.18
5054.91,5.13
5105.46,5.09
5156.52,5.02
5208.08,5.02
5260.16,5.08
5312.77,5.17
5365.89,5.34
5419.55,5.56
5473.75,5.79
5528.49,6.07
5583.77,6.36
5639.61,6.63
5696.00,6.89
5752.96,7.09
5810.49,7.25
5868.60,7.26
5927.28,7.20
5986.56,7.14
6046.42,7.08
6106.89,6.97
6167.96,6.80
6229.64,6.57
6291.93,6.31
6354.85,6.03
6418.40,5.75
6482.58,5.45
6547.41,5.15
6612.88,4.84
6679.01,4.46
6745.80,4.10
6813.26,3.75
6881.39,3.40
6950.21,3.09
7019.71,2.80
7089.91,2.52
7160.81,2.21
7232.41,1.94
7304.74,1.69
7377.79,1.46
7451.56,1.33
7526.08,1.27
7601.34,1.20
7677.35,1.10
7754.13,0.99
7831.67,0.81
7909.98,0.59
7989.08,0.32
8068.98,0.04
8149.67,-0.23
8231.16,-0.47
8313.47,-0.68
8396.61,-0.89
8480.57,-1.06
8565.38,-1.24
8651.03,-1.32
8737.54,-1.16
8824.92,-0.92
8913.17,-0.59
9002.30,-0.21
9092.32,0.15
9183.25,0.44
9275.08,0.69
9367.83,0.90
9461.51,1.07
9556.12,1.12
9651.68,0.99
9748.20,0.74
9845.68,0.38
9944.14,-0.08
10043.58,-0.65
10144.02,-1.14
10245.46,-1.57
10347.91,-1.79
10451.39,-1.52
10555.91,-1.17
10661.46,-0.80
10768.08,-0.47
10875.76,-0.24
10984.52,-0.18
11094.36,-0.33
11205.31,-0.62
11317.36,-1.05
11430.53,-1.57
11544.84,-2.14
11660.29,-2.73
11776.89,-3.28
11894.66,-3.70
12013.60,-4.10
12133.74,-4.41
12255.08,-4.65
12377.63,-5.01
12501.41,-5.30
12626.42,-5.49
12752.68,-5.74
12880.21,-5.89
13009.01,-5.94
13139.10,-5.75
13270.49,-5.53
13403.20,-5.34
13537.23,-5.18
13672.60,-5.12
13809.33,-5.06
13947.42,-4.94
14086.90,-4.86
14227.77,-4.85
14370.04,-4.86
14513.74,-4.99
14658.88,-5.26
14805.47,-5.78
14953.52,-6.55
15103.06,-7.60
15254.09,-8.77
15406.63,-9.90
15560.70,-10.99
15716.30,-11.75
15873.47,-12.18
16032.20,-11.93
16192.52,-11.49
16354.45,-10.98
16517.99,-10.39
16683.17,-9.86
16850.01,-9.43
17018.51,-9.08
17188.69,-8.88
17360.58,-8.96
17534.18,-9.28
17709.53,-9.80
17886.62,-10.55
18065.49,-11.47
18246.14,-12.46
18428.60,-13.41
18612.89,-14.14
18799.02,-14.61
18987.01,-14.84
19176.88,-14.72
19368.65,-14.59
19562.33,-14.44
19757.96,-14.49
19955.54,-14.51
