frequency,raw
20.00,-12.11
20.20,-12.02
20.40,-11.95
20.61,-11.80
20.81,-11.64
21.02,-11.52
21.23,-11.38
21.44,-11.22
21.66,-11.10
21.87,-10.96
22.09,-10.81
22.31,-10.69
22.54,-10.54
22.76,-10.39
22.99,-10.28
23.22,-10.12
23.45,-10.01
23.69,-9.86
23.92,-9.73
24.16,-9.59
24.40,-9.45
24.65,-9.33
24.89,-9.17
25.14,-9.07
25.39,-8.91
25.65,-8.80
25.91,-8.65
26.16,-8.54
26.43,-8.38
26.69,-8.26
26.96,-8.12
27.23,-7.98
27.50,-7.85
27.77,-7.71
28.05,-7.59
28.33,-7.44
28.62,-7.33
28.90,-7.17
29.19,-7.03
29.48,-6.91
29.78,-6.75
30.08,-6.61
30.38,-6.49
30.68,-6.33
30.99,-6.19
31.30,-6.05
31.61,-5.91
31.93,-5.76
32.24,-5.61
32.57,-5.47
32.89,-5.33
33.22,-5.19
33.55,-5.05
33.89,-4.90
34.23,-4.75
34.57,-4.61
34.92,-4.47
35.27,-4.33
35.62,-4.19
35.97,-4.03
36.33,-3.88
36.70,-3.74
37.06,-3.62
37.43,-3.46
37.81,-3.34
38.19,-3.20
38.57,-3.05
38.95,-2.93
39.34,-2.78
39.74,-2.67
40.14,-2.51
40.54,-2.40
40.94,-2.27
41.35,-2.16
41.76,-2.02
42.18,-1.90
42.60,-1.79
43.03,-1.68
43.46,-1.57
43.90,-1.46
44.33,-1.36
44.78,-1.25
45.23,-1.14
45.68,-1.01
46.13,-0.90
46.60,-0.79
47.06,-0.70
47.53,-0.59
48.01,-0.49
48.49,-0.40
48.97,-0.29
49.46,-0.19
49.96,-0.10
50.46,-0.01
50.96,0.10
51.47,0.19
51.99,0.27
52.51,0.38
53.03,0.48
53.56,0.55
54.10,0.66
54.64,0.76
55.18,0.83
55.74,0.94
56.29,1.02
56.86,1.11
57.42,1.20
58.00,1.28
58.58,1.39
59.16,1.47
59.76,1.57
60.35,1.67
60.96,1.77
61.57,1.87
62.18,1.97
62.80,2.08
63.43,2.19
64.07,2.29
64.71,2.40
65.35,2.51
66.01,2.62
66.67,2.73
67.33,2.82
68.01,2.92
68.69,3.03
69.37,3.10
70.07,3.20
70.77,3.30
71.48,3.37
72.19,3.48
72.91,3.55
73.64,3.62
74.38,3.72
75.12,3.78
75.87,3.85
76.63,3.93
77.40,3.99
78.17,4.06
78.95,4.11
79.74,4.19
80.54,4.25
81.35,4.30
82.16,4.36
82.98,4.42
83.81,4.49
84.65,4.54
85.50,4.58
86.35,4.63
87.22,4.68
88.09,4.72
88.97,4.77
89.86,4.80
90.76,4.84
91.66,4.88
92.58,4.91
93.51,4.93
94.44,4.97
95.39,4.97
96.34,5.01
97.30,5.02
98.28,5.04
99.26,5.07
100.25,5.07
101.25,5.07
102.27,5.11
103.29,5.11
104.32,5.11
105.37,5.11
106.42,5.11
107.48,5.11
108.56,5.11
109.64,5.11
110.74,5.11
111.85,5.11
112.97,5.11
114.10,5.08
115.24,5.07
116.39,5.07
117.55,5.07
118.73,5.02
119.92,5.02
121.12,5.02
122.33,4.97
123.55,4.97
124.79,4.97
126.03,4.94
127.29,4.93
128.57,4.93
129.85,4.93
131.15,4.88
132.46,4.88
133.79,4.88
135.12,4.84
136.48,4.84
137.84,4.79
139.22,4.79
140.61,4.74
142.02,4.72
143.44,4.69
144.87,4.65
146.32,4.63
147.78,4.58
149.26,4.55
150.75,4.51
152.26,4.48
153.78,4.44
155.32,4.40
156.88,4.37
158.44,4.32
160.03,4.28
161.63,4.25
163.24,4.22
164.88,4.18
166.53,4.14
168.19,4.10
169.87,4.07
171.57,4.04
173.29,3.99
175.02,3.95
176.77,3.90
178.54,3.87
180.32,3.83
182.13,3.78
183.95,3.74
185.79,3.69
187.65,3.64
189.52,3.59
191.42,3.55
193.33,3.50
195.27,3.44
197.22,3.38
199.19,3.34
201.18,3.29
203.19,3.24
205.23,3.20
207.28,3.15
209.35,3.12
211.44,3.06
213.56,3.03
215.69,2.98
217.85,2.92
220.03,2.89
222.23,2.84
224.45,2.80
226.70,2.75
228.96,2.70
231.25,2.67
233.57,2.61
235.90,2.58
238.26,2.53
240.64,2.49
243.05,2.46
245.48,2.41
247.93,2.38
250.41,2.34
252.92,2.29
255.45,2.26
258.00,2.21
260.58,2.16
263.19,2.11
265.82,2.07
268.48,2.01
271.16,1.96
273.87,1.93
276.61,1.87
279.38,1.81
282.17,1.74
284.99,1.69
287.84,1.65
290.72,1.60
293.63,1.55
296.57,1.51
299.53,1.46
302.53,1.41
305.55,1.38
308.61,1.32
311.69,1.29
314.81,1.26
317.96,1.21
321.14,1.17
324.35,1.12
327.59,1.09
330.87,1.04
334.18,1.00
337.52,0.97
340.90,0.92
344.30,0.89
347.75,0.86
351.23,0.82
354.74,0.78
358.28,0.74
361.87,0.71
365.49,0.69
369.14,0.65
372.83,0.61
376.56,0.60
380.33,0.55
384.13,0.52
387.97,0.51
391.85,0.46
395.77,0.43
399.73,0.41
403.72,0.37
407.76,0.33
411.84,0.30
415.96,0.27
420.12,0.24
424.32,0.21
428.56,0.18
432.85,0.15
437.18,0.12
441.55,0.09
445.96,0.06
450.42,0.04
454.93,-0.01
459.48,-0.01
464.07,-0.04
468.71,-0.05
473.40,-0.05
478.13,-0.05
482.91,-0.10
487.74,-0.10
492.62,-0.10
497.55,-0.10
502.52,-0.15
507.55,-0.15
512.62,-0.15
517.75,-0.19
522.93,-0.19
528.16,-0.19
533.44,-0.24
538.77,-0.24
544.16,-0.24
549.60,-0.29
555.10,-0.29
560.65,-0.29
566.25,-0.29
571.92,-0.30
577.64,-0.33
583.41,-0.33
589.25,-0.33
595.14,-0.33
601.09,-0.38
607.10,-0.38
613.17,-0.38
619.30,-0.40
625.50,-0.43
631.75,-0.43
638.07,-0.43
644.45,-0.43
650.89,-0.43
657.40,-0.43
663.98,-0.43
670.62,-0.43
677.32,-0.43
684.10,-0.43
690.94,-0.43
697.85,-0.40
704.83,-0.38
711.87,-0.38
718.99,-0.38
726.18,-0.38
733.44,-0.38
740.78,-0.43
748.19,-0.43
755.67,-0.43
763.23,-0.47
770.86,-0.47
778.57,-0.47
786.35,-0.47
794.22,-0.47
802.16,-0.43
810.18,-0.43
818.28,-0.43
826.46,-0.38
834.73,-0.38
843.08,-0.38
851.51,-0.33
860.02,-0.33
868.62,-0.31
877.31,-0.29
886.08,-0.27
894.94,-0.24
903.89,-0.24
912.93,-0.19
922.06,-0.19
931.28,-0.15
940.59,-0.15
950.00,-0.13
959.50,-0.10
969.09,-0.08
978.78,-0.05
988.57,-0.03
998.46,-0.01
1008.44,0.04
1018.53,0.04
1028.71,0.09
1039.00,0.11
1049.39,0.14
1059.88,0.18
1070.48,0.20
1081.19,0.25
1092.00,0.29
1102.92,0.34
1113.95,0.37
1125.09,0.42
1136.34,0.48
1147.70,0.51
1159.18,0.56
1170.77,0.62
1182.48,0.67
1194.30,0.71
1206.25,0.76
1218.31,0.85
1230.49,0.90
1242.80,0.97
1255.22,1.05
1267.78,1.10
1280.45,1.18
1293.26,1.26
1306.19,1.32
1319.25,1.39
1332.45,1.49
1345.77,1.56
1359.23,1.64
1372.82,1.73
1386.55,1.81
1400.41,1.90
1414.42,2.00
1428.56,2.07
1442.85,2.18
1457.28,2.26
1471.85,2.36
1486.57,2.46
1501.43,2.57
1516.45,2.65
1531.61,2.76
1546.93,2.87
1562.40,2.95
1578.02,3.06
1593.80,3.15
1609.74,3.26
1625.84,3.37
1642.10,3.50
1658.52,3.63
1675.10,3.78
1691.85,3.95
1708.77,4.11
1725.86,4.30
1743.12,4.48
1760.55,4.65
1778.15,4.81
1795.94,4.98
1813.90,5.12
1832.03,5.28
1850.36,5.44
1868.86,5.56
1887.55,5.72
1906.42,5.86
1925.49,5.98
1944.74,6.14
1964.19,6.26
1983.83,6.40
2003.67,6.56
2023.71,6.67
2043.94,6.82
2064.38,6.93
2085.03,7.09
2105.88,7.21
2126.94,7.35
2148.20,7.47
2169.69,7.61
2191.38,7.72
2213.30,7.85
2235.43,7.98
2257.78,8.10
2280.36,8.23
2303.17,8.34
2326.20,8.44
2349.46,8.54
2372.95,8.64
2396.68,8.72
2420.65,8.80
2444.86,8.86
2469.31,8.93
2494.00,9.00
2518.94,9.05
2544.13,9.12
2569.57,9.15
2595.27,9.16
2621.22,9.19
2647.43,9.16
2673.90,9.16
2700.64,9.12
2727.65,9.05
2754.93,8.98
2782.48,8.91
2810.30,8.86
2838.40,8.80
2866.79,8.77
2895.46,8.76
2924.41,8.81
2953.65,8.89
2983.19,8.98
3013.02,9.12
3043.15,9.29
3073.58,9.47
3104.32,9.65
3135.36,9.82
3166.72,9.98
3198.38,10.11
3230.37,10.24
3262.67,10.33
3295.30,10.37
3328.25,10.42
3361.53,10.41
3395.15,10.38
3429.10,10.30
3463.39,10.23
3498.03,10.11
3533.01,9.95
3568.34,9.72
3604.02,9.38
3640.06,8.95
3676.46,8.44
3713.22,7.89
3750.36,7.32
3787.86,6.78
3825.74,6.29
3864.00,5.79
3902.64,5.26
3941.66,4.69
3981.08,4.03
4020.89,3.30
4061.10,2.52
4101.71,1.82
4142.73,1.28
4184.15,0.93
4226.00,1.12
4268.26,1.68
4310.94,2.55
4354.05,3.71
4397.59,5.03
4441.56,6.43
4485.98,7.79
4530.84,9.09
4576.15,10.29
4621.91,11.35
4668.13,12.29
4714.81,13.13
4761.96,13.85
4809.58,14.45
4857.67,14.95
4906.25,15.31
4955.31,15.59
5004.87,15.75
5054.91,15.77
5105.46,15.70
5156.52,15.55
5208.08,15.37
5260.16,15.14
5312.77,14.91
5365.89,14.66
5419.55,14.40
5473.75,14.16
5528.49,13.89
5583.77,13.63
5639.61,13.39
5696.00,13.13
5752.96,12.90
5810.49,12.67
5868.60,12.43
5927.28,12.20
5986.56,11.90
6046.42,11.60
6106.89,11.24
6167.96,10.86
6229.64,10.45
6291.93,10.04
6354.85,9.65
6418.40,9.32
6482.58,9.05
6547.41,8.80
6612.88,8.66
6679.01,8.55
6745.80,8.49
6813.26,8.41
6881.39,8.37
6950.21,8.31
7019.71,8.26
7089.91,8.21
7160.81,8.14
7232.41,8.07
7304.74,8.01
7377.79,7.91
7451.56,7.80
7526.08,7.64
7601.34,7.49
7677.35,7.30
7754.13,7.10
7831.67,6.93
7909.98,6.75
7989.08,6.62
8068.98,6.51
8149.67,6.40
8231.16,6.26
8313.47,6.12
8396.61,5.83
8480.57,5.45
8565.38,4.94
8651.03,4.30
8737.54,3.53
8824.92,2.73
8913.17,1.93
9002.30,1.21
9092.32,0.65
9183.25,0.25
9275.08,0.02
9367.83,0.15
9461.51,0.49
9556.12,0.88
9651.68,1.39
9748.20,1.90
9845.68,2.35
9944.14,2.74
10043.58,3.04
10144.02,3.28
10245.46,3.46
10347.91,3.55
10451.39,3.63
10555.91,3.69
10661.46,3.77
10768.08,3.84
10875.76,3.93
10984.52,3.98
11094.36,4.04
11205.31,4.02
11317.36,3.94
11430.53,3.81
11544.84,3.65
11660.29,3.48
11776.89,3.34
11894.66,3.23
12013.60,3.40
12133.74,3.68
12255.08,4.05
12377.63,4.50
12501.41,4.93
12626.42,5.31
12752.68,5.58
12880.21,5.56
13009.01,5.22
13139.10,4.71
13270.49,4.04
13403.20,3.23
13537.23,2.41
13672.60,1.56
13809.33,0.79
13947.42,0.12
14086.90,-0.41
14227.77,-0.83
14370.04,-1.12
14513.74,-1.30
14658.88,-1.36
14805.47,-1.38
14953.52,-1.34
15103.06,-1.26
15254.09,-1.17
15406.63,-1.08
15560.70,-0.98
15716.30,-0.87
15873.47,-0.81
16032.20,-0.75
16192.52,-0.82
16354.45,-0.99
16517.99,-1.25
16683.17,-1.62
16850.01,-2.08
17018.51,-2.59
17188.69,-3.16
17360.58,-3.74
17534.18,-4.34
17709.53,-4.93
17886.62,-5.58
18065.49,-6.26
18246.14,-6.99
18428.60,-7.80
18612.89,-8.67
18799.02,-9.62
18987.01,-10.57
19176.88,-11.48
19368.65,-12.23
19562.33,-12.96
19757.96,-13.46
19955.54,-13.72
