frequency,raw,error,smoothed,error_smoothed,equalization,parametric_eq,fixed_band_eq,equalized_raw,equalized_smoothed,target
20.00,-23.29,-24.54,-23.16,-24.44,6.00,5.43,2.70,-17.29,-17.16,1.25
20.20,-23.15,-24.45,-23.07,-24.39,6.00,5.45,2.77,-17.15,-17.07,1.30
20.40,-23.00,-24.35,-22.99,-24.34,6.00,5.47,2.85,-17.00,-16.99,1.35
20.61,-22.86,-24.24,-22.90,-24.28,6.00,5.49,2.93,-16.86,-16.90,1.38
20.81,-22.71,-24.14,-22.81,-24.22,6.00,5.51,3.02,-16.71,-16.81,1.43
21.02,-22.58,-24.05,-22.72,-24.16,6.00,5.54,3.11,-16.58,-16.72,1.47
21.23,-22.54,-24.03,-22.64,-24.10,6.00,5.56,3.19,-16.54,-16.64,1.49
21.44,-22.49,-24.00,-22.55,-24.04,6.00,5.58,3.29,-16.49,-16.55,1.51
21.66,-22.45,-23.98,-22.47,-23.98,6.00,5.60,3.38,-16.45,-16.47,1.53
21.87,-22.41,-23.95,-22.39,-23.91,6.00,5.62,3.48,-16.41,-16.39,1.54
22.09,-22.35,-23.91,-22.30,-23.85,6.00,5.63,3.58,-16.35,-16.30,1.56
22.31,-22.27,-23.83,-22.22,-23.78,6.00,5.65,3.68,-16.27,-16.22,1.56
22.54,-22.18,-23.75,-22.16,-23.72,6.00,5.67,3.78,-16.18,-16.16,1.56
22.76,-22.10,-23.66,-22.09,-23.66,6.00,5.69,3.89,-16.10,-16.09,1.56
22.99,-22.01,-23.56,-22.02,-23.59,6.00,5.71,4.00,-16.01,-16.02,1.55
23.22,-21.94,-23.49,-21.95,-23.52,6.00,5.73,4.12,-15.94,-15.95,1.55
23.45,-21.86,-23.41,-21.87,-23.44,6.00,5.75,4.23,-15.86,-15.87,1.55
23.69,-21.78,-23.34,-21.77,-23.34,6.00,5.76,4.35,-15.78,-15.77,1.56
23.92,-21.70,-23.26,-21.67,-23.24,6.00,5.78,4.47,-15.70,-15.67,1.56
24.16,-21.61,-23.18,-21.57,-23.14,6.00,5.80,4.60,-15.61,-15.57,1.57
24.40,-21.51,-23.09,-21.48,-23.05,6.00,5.82,4.72,-15.51,-15.48,1.58
24.65,-21.41,-22.98,-21.38,-22.95,6.00,5.83,4.85,-15.41,-15.38,1.57
24.89,-21.30,-22.87,-21.30,-22.87,6.00,5.85,4.98,-15.30,-15.30,1.57
25.14,-21.20,-22.77,-21.21,-22.79,6.00,5.86,5.11,-15.20,-15.21,1.57
25.39,-21.09,-22.67,-21.13,-22.71,6.00,5.88,5.24,-15.09,-15.13,1.58
25.65,-20.99,-22.57,-21.06,-22.63,6.00,5.90,5.38,-14.99,-15.06,1.58
25.91,-20.88,-22.45,-20.98,-22.56,6.00,5.91,5.51,-14.88,-14.98,1.57
26.16,-20.82,-22.39,-20.91,-22.48,6.00,5.93,5.65,-14.82,-14.91,1.57
26.43,-20.80,-22.37,-20.83,-22.40,6.00,5.94,5.78,-14.80,-14.83,1.57
26.69,-20.78,-22.35,-20.75,-22.32,6.00,5.96,5.92,-14.78,-14.75,1.57
26.96,-20.75,-22.33,-20.67,-22.24,6.00,5.97,6.05,-14.75,-14.67,1.58
27.23,-20.67,-22.25,-20.59,-22.15,6.00,5.98,6.18,-14.67,-14.59,1.58
27.50,-20.58,-22.16,-20.50,-22.07,6.00,6.00,6.31,-14.58,-14.50,1.57
27.77,-20.49,-22.05,-20.41,-21.98,6.00,6.01,6.43,-14.49,-14.41,1.56
28.05,-20.38,-21.94,-20.32,-21.89,6.00,6.03,6.55,-14.38,-14.32,1.56
28.33,-20.25,-21.80,-20.23,-21.79,6.00,6.04,6.67,-14.25,-14.23,1.55
28.62,-20.11,-21.66,-20.13,-21.69,6.00,6.05,6.78,-14.11,-14.13,1.55
28.90,-19.97,-21.53,-20.03,-21.60,6.00,6.06,6.88,-13.97,-14.03,1.56
29.19,-19.86,-21.41,-19.93,-21.49,6.00,6.08,6.98,-13.86,-13.93,1.55
29.48,-19.78,-21.35,-19.83,-21.39,6.00,6.09,7.07,-13.78,-13.83,1.57
29.78,-19.69,-21.25,-19.73,-21.29,6.00,6.10,7.14,-13.69,-13.73,1.56
30.08,-19.61,-21.18,-19.64,-21.20,6.00,6.11,7.22,-13.61,-13.64,1.57
30.38,-19.54,-21.10,-19.56,-21.11,6.00,6.12,7.28,-13.54,-13.56,1.56
30.68,-19.47,-21.03,-19.47,-21.03,6.00,6.14,7.33,-13.47,-13.47,1.55
30.99,-19.40,-20.96,-19.39,-20.94,6.00,6.15,7.37,-13.40,-13.39,1.55
31.30,-19.33,-20.88,-19.30,-20.86,6.00,6.16,7.40,-13.33,-13.30,1.55
31.61,-19.27,-20.82,-19.23,-20.78,6.00,6.17,7.42,-13.27,-13.23,1.55
31.93,-19.20,-20.75,-19.16,-20.71,6.00,6.18,7.42,-13.20,-13.16,1.55
32.24,-19.12,-20.66,-19.10,-20.64,6.00,6.19,7.42,-13.12,-13.10,1.54
32.57,-19.03,-20.58,-19.03,-20.57,6.00,6.20,7.41,-13.03,-13.03,1.55
32.89,-18.95,-20.50,-18.95,-20.49,6.00,6.21,7.39,-12.95,-12.95,1.55
33.22,-18.85,-20.38,-18.88,-20.42,6.00,6.22,7.36,-12.85,-12.88,1.53
33.55,-18.75,-20.28,-18.81,-20.34,6.00,6.23,7.32,-12.75,-12.81,1.53
33.89,-18.65,-20.17,-18.74,-20.26,6.00,6.24,7.27,-12.65,-12.74,1.52
34.23,-18.62,-20.15,-18.66,-20.19,6.00,6.25,7.22,-12.62,-12.66,1.53
34.57,-18.62,-20.14,-18.59,-20.11,6.00,6.25,7.16,-12.62,-12.59,1.52
34.92,-18.62,-20.14,-18.52,-20.03,6.00,6.26,7.09,-12.62,-12.52,1.52
35.27,-18.52,-20.04,-18.44,-19.96,6.00,6.27,7.03,-12.52,-12.44,1.51
35.62,-18.38,-19.89,-18.37,-19.88,6.00,6.28,6.95,-12.38,-12.37,1.51
35.97,-18.25,-19.76,-18.29,-19.80,6.00,6.29,6.88,-12.25,-12.29,1.51
36.33,-18.19,-19.71,-18.21,-19.72,6.00,6.29,6.80,-12.19,-12.21,1.52
36.70,-18.13,-19.64,-18.12,-19.64,6.00,6.30,6.73,-12.13,-12.12,1.51
37.06,-18.07,-19.57,-18.05,-19.56,6.00,6.31,6.65,-12.07,-12.05,1.50
37.43,-17.98,-19.50,-17.98,-19.49,6.00,6.32,6.57,-11.98,-11.98,1.52
37.81,-17.88,-19.40,-17.91,-19.42,6.00,6.32,6.49,-11.88,-11.91,1.52
38.19,-17.79,-19.31,-17.82,-19.34,6.00,6.33,6.42,-11.79,-11.82,1.51
38.57,-17.70,-19.22,-17.74,-19.26,6.00,6.34,6.34,-11.70,-11.74,1.52
38.95,-17.62,-19.15,-17.65,-19.17,6.00,6.34,6.27,-11.62,-11.65,1.53
39.34,-17.54,-19.07,-17.56,-19.09,6.00,6.35,6.20,-11.54,-11.56,1.53
39.74,-17.46,-18.98,-17.48,-19.01,6.00,6.35,6.13,-11.46,-11.48,1.52
40.14,-17.41,-18.94,-17.40,-18.92,6.00,6.36,6.07,-11.41,-11.40,1.53
40.54,-17.41,-18.94,-17.31,-18.84,6.00,6.36,6.01,-11.41,-11.31,1.53
40.94,-17.41,-18.93,-17.23,-18.76,6.00,6.37,5.95,-11.41,-11.23,1.52
41.35,-17.22,-18.74,-17.15,-18.67,6.00,6.37,5.90,-11.22,-11.15,1.52
41.76,-17.00,-18.52,-17.07,-18.59,6.00,6.38,5.85,-11.00,-11.07,1.52
42.18,-16.86,-18.38,-17.00,-18.51,6.00,6.38,5.81,-10.86,-11.00,1.52
42.60,-16.80,-18.31,-16.93,-18.43,6.00,6.39,5.76,-10.80,-10.93,1.51
43.03,-16.75,-18.25,-16.86,-18.35,6.00,6.39,5.73,-10.75,-10.86,1.50
43.46,-16.75,-18.25,-16.77,-18.26,6.00,6.40,5.70,-10.75,-10.77,1.50
43.90,-16.75,-18.23,-16.68,-18.15,6.00,6.40,5.67,-10.75,-10.68,1.47
44.33,-16.67,-18.13,-16.58,-18.05,6.00,6.40,5.64,-10.67,-10.58,1.46
44.78,-16.56,-18.01,-16.50,-17.95,6.00,6.41,5.62,-10.56,-10.50,1.45
45.23,-16.47,-17.91,-16.42,-17.86,6.00,6.41,5.61,-10.47,-10.42,1.44
45.68,-16.39,-17.82,-16.34,-17.77,6.00,6.41,5.60,-10.39,-10.34,1.42
46.13,-16.31,-17.72,-16.28,-17.70,6.00,6.42,5.59,-10.31,-10.28,1.41
46.60,-16.23,-17.64,-16.22,-17.63,6.00,6.42,5.59,-10.23,-10.22,1.41
47.06,-16.13,-17.53,-16.14,-17.54,6.00,6.42,5.59,-10.13,-10.14,1.40
47.53,-15.94,-17.33,-16.07,-17.45,6.00,6.42,5.60,-9.94,-10.07,1.39
48.01,-15.76,-17.16,-15.99,-17.37,6.00,6.43,5.61,-9.76,-9.99,1.40
48.49,-15.85,-17.23,-15.91,-17.28,6.00,6.43,5.62,-9.85,-9.91,1.38
48.97,-15.94,-17.30,-15.83,-17.19,6.00,6.43,5.64,-9.94,-9.83,1.36
49.46,-15.85,-17.19,-15.76,-17.11,6.00,6.43,5.66,-9.85,-9.76,1.34
49.96,-15.75,-17.08,-15.70,-17.04,6.00,6.43,5.68,-9.75,-9.70,1.33
50.46,-15.67,-17.00,-15.63,-16.96,6.00,6.43,5.71,-9.67,-9.63,1.33
50.96,-15.60,-16.92,-15.57,-16.89,6.00,6.43,5.74,-9.60,-9.57,1.32
51.47,-15.51,-16.81,-15.50,-16.82,6.00,6.43,5.77,-9.51,-9.50,1.30
51.99,-15.42,-16.72,-15.42,-16.72,6.00,6.44,5.80,-9.42,-9.42,1.30
52.51,-15.35,-16.65,-15.35,-16.65,6.00,6.44,5.84,-9.35,-9.35,1.30
53.03,-15.28,-16.58,-15.29,-16.58,6.00,6.44,5.87,-9.28,-9.29,1.30
53.56,-15.21,-16.50,-15.23,-16.52,6.00,6.44,5.91,-9.21,-9.23,1.29
54.10,-15.14,-16.42,-15.16,-16.44,6.00,6.44,5.95,-9.14,-9.16,1.28
54.64,-15.08,-16.35,-15.08,-16.36,6.00,6.44,5.99,-9.08,-9.08,1.27
55.18,-15.02,-16.29,-15.01,-16.28,6.00,6.43,6.03,-9.02,-9.01,1.27
55.74,-14.97,-16.23,-14.95,-16.21,6.00,6.43,6.07,-8.97,-8.95,1.26
56.29,-14.85,-16.11,-14.90,-16.16,6.00,6.43,6.10,-8.85,-8.90,1.26
56.86,-14.68,-15.93,-14.86,-16.11,6.00,6.43,6.14,-8.68,-8.86,1.24
57.42,-14.81,-16.03,-14.83,-16.07,6.00,6.43,6.17,-8.81,-8.83,1.22
58.00,-15.04,-16.26,-14.81,-16.03,6.00,6.43,6.20,-9.04,-8.81,1.22
58.58,-14.87,-16.09,-14.77,-15.98,6.00,6.43,6.23,-8.87,-8.77,1.22
59.16,-14.69,-15.89,-14.73,-15.91,6.00,6.43,6.26,-8.69,-8.73,1.20
59.76,-14.51,-15.70,-14.70,-15.87,6.00,6.42,6.28,-8.51,-8.70,1.19
60.35,-14.50,-15.66,-14.67,-15.82,6.00,6.42,6.29,-8.50,-8.67,1.16
60.96,-14.63,-15.76,-14.63,-15.75,6.00,6.42,6.31,-8.63,-8.63,1.13
61.57,-14.75,-15.85,-14.59,-15.68,6.00,6.42,6.32,-8.75,-8.59,1.10
62.18,-14.78,-15.84,-14.55,-15.62,6.00,6.41,6.32,-8.78,-8.55,1.06
62.80,-14.59,-15.61,-14.52,-15.55,6.00,6.41,6.32,-8.59,-8.52,1.02
63.43,-14.45,-15.44,-14.48,-15.48,6.00,6.41,6.31,-8.45,-8.48,0.99
64.07,-14.33,-15.28,-14.42,-15.38,6.00,6.40,6.30,-8.33,-8.42,0.95
64.71,-14.21,-15.13,-14.36,-15.28,6.00,6.40,6.29,-8.21,-8.36,0.91
65.35,-14.26,-15.15,-14.32,-15.20,6.00,6.40,6.27,-8.26,-8.32,0.89
66.01,-14.43,-15.28,-14.26,-15.11,6.00,6.39,6.25,-8.43,-8.26,0.85
66.67,-14.10,-14.91,-14.20,-15.01,6.00,6.39,6.22,-8.10,-8.20,0.81
67.33,-14.02,-14.79,-14.12,-14.90,6.00,6.38,6.19,-8.02,-8.12,0.77
68.01,-14.21,-14.95,-14.04,-14.77,6.00,6.38,6.16,-8.21,-8.04,0.74
68.69,-14.07,-14.77,-13.96,-14.66,6.00,6.37,6.13,-8.07,-7.96,0.70
69.37,-13.95,-14.61,-13.90,-14.56,6.00,6.37,6.09,-7.95,-7.90,0.66
70.07,-13.84,-14.46,-13.86,-14.47,6.00,6.36,6.05,-7.84,-7.86,0.62
70.77,-13.66,-14.24,-13.79,-14.36,6.00,6.36,6.01,-7.66,-7.79,0.58
71.48,-13.62,-14.16,-13.71,-14.24,6.00,6.35,5.97,-7.62,-7.71,0.54
72.19,-13.62,-14.11,-13.64,-14.13,6.00,6.35,5.93,-7.62,-7.64,0.49
72.91,-13.57,-14.01,-13.57,-14.01,6.00,6.34,5.89,-7.57,-7.57,0.44
73.64,-13.51,-13.91,-13.49,-13.89,6.00,6.33,5.85,-7.51,-7.49,0.40
74.38,-13.45,-13.80,-13.44,-13.79,6.00,6.33,5.81,-7.45,-7.44,0.35
75.12,-13.39,-13.70,-13.35,-13.66,6.00,6.32,5.77,-7.39,-7.35,0.31
75.87,-13.33,-13.59,-13.25,-13.52,6.00,6.31,5.73,-7.33,-7.25,0.26
76.63,-13.30,-13.52,-13.19,-13.42,6.00,6.31,5.70,-7.30,-7.19,0.22
77.40,-13.11,-13.29,-13.13,-13.32,6.00,6.30,5.66,-7.11,-7.13,0.18
78.17,-12.87,-13.01,-13.08,-13.23,6.00,6.29,5.63,-6.87,-7.08,0.14
78.95,-13.01,-13.13,-13.01,-13.12,6.00,6.28,5.61,-7.01,-7.01,0.12
79.74,-13.10,-13.18,-12.95,-13.03,6.00,6.28,5.58,-7.10,-6.95,0.08
80.54,-12.83,-12.88,-12.88,-12.93,6.00,6.27,5.56,-6.83,-6.88,0.05
81.35,-12.64,-12.65,-12.79,-12.80,6.00,6.26,5.54,-6.64,-6.79,0.01
82.16,-12.70,-12.68,-12.71,-12.69,6.00,6.25,5.53,-6.70,-6.71,-0.02
82.98,-12.49,-12.44,-12.65,-12.59,6.00,6.24,5.52,-6.49,-6.65,-0.05
83.81,-12.73,-12.64,-12.57,-12.49,6.00,6.23,5.51,-6.73,-6.57,-0.09
84.65,-12.73,-12.61,-12.50,-12.38,6.00,6.22,5.51,-6.73,-6.50,-0.12
85.50,-12.56,-12.42,-12.43,-12.28,6.00,6.21,5.51,-6.56,-6.43,-0.15
86.35,-12.30,-12.12,-12.35,-12.17,6.00,6.20,5.52,-6.30,-6.35,-0.18
87.22,-12.14,-11.93,-12.27,-12.06,6.00,6.19,5.53,-6.14,-6.27,-0.21
88.09,-12.30,-12.05,-12.19,-11.94,6.00,6.18,5.54,-6.30,-6.19,-0.25
88.97,-11.91,-11.63,-12.10,-11.82,6.00,6.17,5.56,-5.91,-6.10,-0.28
89.86,-11.84,-11.52,-12.03,-11.71,6.00,6.16,5.58,-5.84,-6.03,-0.32
90.76,-12.16,-11.80,-11.96,-11.60,6.00,6.15,5.61,-6.16,-5.96,-0.36
91.66,-11.99,-11.61,-11.85,-11.47,6.00,6.14,5.64,-5.99,-5.85,-0.38
92.58,-11.69,-11.26,-11.78,-11.36,6.00,6.13,5.67,-5.69,-5.78,-0.43
93.51,-11.65,-11.19,-11.69,-11.24,6.00,6.12,5.71,-5.65,-5.69,-0.46
94.44,-11.62,-11.14,-11.60,-11.12,6.00,6.11,5.76,-5.62,-5.60,-0.48
95.39,-11.51,-11.00,-11.53,-11.02,6.00,6.09,5.80,-5.51,-5.53,-0.51
96.34,-11.55,-11.00,-11.49,-10.94,6.00,6.08,5.85,-5.55,-5.49,-0.55
97.30,-11.45,-10.87,-11.43,-10.85,6.00,6.07,5.91,-5.45,-5.43,-0.58
98.28,-11.22,-10.61,-11.35,-10.74,6.00,6.06,5.96,-5.22,-5.35,-0.61
99.26,-11.34,-10.70,-11.30,-10.66,6.00,6.04,6.02,-5.34,-5.30,-0.64
100.25,-11.31,-10.64,-11.23,-10.56,6.00,6.03,6.08,-5.31,-5.23,-0.67
101.25,-11.02,-10.33,-11.16,-10.47,6.00,6.02,6.15,-5.02,-5.16,-0.69
102.27,-11.28,-10.56,-11.13,-10.40,6.00,6.01,6.22,-5.28,-5.13,-0.72
103.29,-10.97,-10.21,-11.09,-10.34,6.00,5.99,6.28,-4.97,-5.09,-0.76
104.32,-10.87,-10.09,-11.05,-10.26,6.00,5.98,6.35,-4.87,-5.05,-0.78
105.37,-11.19,-10.38,-11.01,-10.19,6.00,5.97,6.42,-5.19,-5.01,-0.81
106.42,-11.13,-10.29,-10.97,-10.12,6.00,5.95,6.49,-5.13,-4.97,-0.84
107.48,-10.77,-9.89,-10.93,-10.05,6.00,5.94,6.56,-4.77,-4.93,-0.88
108.56,-10.82,-9.90,-10.91,-9.99,6.00,5.93,6.63,-4.82,-4.91,-0.92
109.64,-10.91,-9.96,-10.89,-9.94,6.00,5.91,6.70,-4.91,-4.89,-0.95
110.74,-10.87,-9.88,-10.85,-9.86,6.00,5.90,6.76,-4.87,-4.85,-0.99
111.85,-10.82,-9.81,-10.81,-9.79,6.00,5.89,6.83,-4.82,-4.81,-1.01
112.97,-10.78,-9.73,-10.77,-9.72,6.00,5.88,6.88,-4.78,-4.77,-1.06
114.10,-10.74,-9.66,-10.70,-9.62,6.00,5.86,6.94,-4.74,-4.70,-1.08
115.24,-10.67,-9.56,-10.65,-9.55,6.00,5.85,6.99,-4.67,-4.65,-1.11
116.39,-10.56,-9.41,-10.58,-9.45,6.00,5.84,7.03,-4.56,-4.58,-1.15
117.55,-10.55,-9.38,-10.49,-9.33,6.00,5.83,7.06,-4.55,-4.49,-1.17
118.73,-10.57,-9.37,-10.44,-9.25,6.00,5.82,7.09,-4.57,-4.44,-1.20
119.92,-10.46,-9.26,-10.38,-9.17,6.00,5.81,7.11,-4.46,-4.38,-1.20
121.12,-10.17,-8.94,-10.26,-9.04,6.00,5.80,7.12,-4.17,-4.26,-1.23
122.33,-10.02,-8.78,-10.16,-8.92,6.00,5.79,7.12,-4.02,-4.16,-1.25
123.55,-10.00,-8.75,-10.07,-8.82,6.00,5.78,7.12,-4.00,-4.07,-1.25
124.79,-9.99,-8.72,-9.97,-8.70,6.00,5.77,7.10,-3.99,-3.97,-1.27
126.03,-9.89,-8.61,-9.86,-8.57,6.00,5.77,7.07,-3.89,-3.86,-1.28
127.29,-9.78,-8.49,-9.75,-8.45,6.00,5.76,7.04,-3.78,-3.75,-1.29
128.57,-9.69,-8.38,-9.65,-8.34,6.00,5.76,6.99,-3.69,-3.65,-1.31
129.85,-9.59,-8.27,-9.55,-8.22,6.00,5.76,6.94,-3.59,-3.55,-1.32
131.15,-9.59,-8.25,-9.44,-8.11,6.00,5.77,6.87,-3.59,-3.44,-1.34
132.46,-9.19,-7.84,-9.37,-8.02,6.00,5.77,6.80,-3.19,-3.37,-1.35
133.79,-9.05,-7.69,-9.29,-7.93,6.00,5.78,6.72,-3.05,-3.29,-1.36
135.12,-9.41,-8.03,-9.21,-7.84,6.00,5.79,6.63,-3.41,-3.21,-1.38
136.48,-9.14,-7.76,-9.13,-7.74,6.00,5.80,6.54,-3.14,-3.13,-1.38
137.84,-8.82,-7.42,-9.04,-7.64,6.00,5.82,6.44,-2.82,-3.04,-1.40
139.22,-8.90,-7.48,-8.95,-7.54,6.00,5.84,6.34,-2.90,-2.95,-1.42
140.61,-9.00,-7.56,-8.87,-7.45,6.00,5.87,6.23,-3.00,-2.87,-1.44
142.02,-8.90,-7.46,-8.80,-7.35,6.00,5.90,6.11,-2.90,-2.80,-1.44
143.44,-8.66,-7.20,-8.72,-7.26,6.00,5.93,6.00,-2.66,-2.72,-1.46
144.87,-8.81,-7.32,-8.65,-7.16,6.00,5.97,5.88,-2.81,-2.65,-1.49
146.32,-8.72,-7.21,-8.58,-7.06,6.00,6.00,5.76,-2.72,-2.58,-1.51
147.78,-8.34,-6.81,-8.51,-6.95,6.00,6.04,5.63,-2.34,-2.51,-1.53
149.26,-8.29,-6.73,-8.42,-6.82,6.00,6.07,5.51,-2.29,-2.42,-1.57
150.75,-8.36,-6.74,-8.30,-6.66,6.00,6.10,5.39,-2.36,-2.30,-1.62
152.26,-8.29,-6.62,-8.21,-6.52,6.00,6.12,5.27,-2.29,-2.21,-1.67
153.78,-8.18,-6.45,-8.15,-6.40,6.00,6.13,5.14,-2.18,-2.15,-1.73
155.32,-8.10,-6.31,-8.07,-6.27,5.99,6.12,5.02,-2.11,-2.08,-1.79
156.88,-8.03,-6.18,-8.01,-6.15,5.96,6.10,4.90,-2.07,-2.04,-1.85
158.44,-7.94,-6.01,-7.97,-6.05,5.93,6.05,4.78,-2.01,-2.04,-1.93
160.03,-7.82,-5.82,-7.93,-5.95,5.88,5.99,4.67,-1.94,-2.05,-2.00
161.63,-7.75,-5.69,-7.88,-5.84,5.82,5.91,4.55,-1.93,-2.06,-2.06
163.24,-7.69,-5.58,-7.85,-5.76,5.76,5.82,4.44,-1.93,-2.09,-2.11
164.88,-7.68,-5.53,-7.84,-5.71,5.71,5.71,4.33,-1.97,-2.13,-2.15
166.53,-7.68,-5.49,-7.82,-5.65,5.65,5.60,4.22,-2.03,-2.17,-2.19
168.19,-7.94,-5.72,-7.79,-5.59,5.59,5.48,4.12,-2.35,-2.20,-2.22
169.87,-8.09,-5.85,-7.74,-5.52,5.52,5.36,4.02,-2.57,-2.22,-2.24
171.57,-7.81,-5.56,-7.68,-5.44,5.44,5.24,3.92,-2.37,-2.24,-2.25
173.29,-7.68,-5.42,-7.61,-5.36,5.36,5.12,3.82,-2.32,-2.25,-2.26
175.02,-7.58,-5.32,-7.54,-5.29,5.29,5.01,3.73,-2.29,-2.25,-2.26
176.77,-7.44,-5.18,-7.48,-5.23,5.23,4.90,3.64,-2.21,-2.26,-2.26
178.54,-7.34,-5.08,-7.41,-5.16,5.16,4.79,3.55,-2.19,-2.25,-2.26
180.32,-7.44,-5.20,-7.30,-5.05,5.05,4.68,3.47,-2.39,-2.25,-2.24
182.13,-7.33,-5.10,-7.19,-4.94,4.94,4.58,3.39,-2.39,-2.25,-2.23
183.95,-7.00,-4.77,-7.07,-4.82,4.82,4.48,3.31,-2.18,-2.25,-2.23
185.79,-6.71,-4.49,-6.95,-4.71,4.71,4.39,3.23,-2.01,-2.25,-2.23
187.65,-6.53,-4.29,-6.82,-4.57,4.57,4.29,3.15,-1.96,-2.25,-2.24
189.52,-6.61,-4.37,-6.68,-4.43,4.43,4.20,3.08,-2.18,-2.25,-2.24
191.42,-6.74,-4.49,-6.56,-4.30,4.30,4.11,3.01,-2.44,-2.26,-2.25
193.33,-6.70,-4.43,-6.44,-4.17,4.17,4.03,2.95,-2.53,-2.27,-2.27
195.27,-6.43,-4.15,-6.33,-4.05,4.05,3.94,2.88,-2.38,-2.28,-2.28
197.22,-6.12,-3.83,-6.24,-3.95,3.95,3.86,2.82,-2.17,-2.29,-2.29
199.19,-6.00,-3.69,-6.14,-3.84,3.84,3.77,2.76,-2.16,-2.30,-2.31
201.18,-6.15,-3.83,-6.03,-3.71,3.71,3.69,2.70,-2.44,-2.32,-2.32
203.19,-6.03,-3.70,-5.93,-3.60,3.60,3.61,2.64,-2.43,-2.33,-2.33
205.23,-5.73,-3.38,-5.85,-3.51,3.51,3.53,2.58,-2.22,-2.35,-2.35
207.28,-5.48,-3.13,-5.77,-3.41,3.41,3.44,2.53,-2.07,-2.36,-2.35
209.35,-5.47,-3.10,-5.66,-3.29,3.29,3.36,2.47,-2.18,-2.38,-2.37
211.44,-5.58,-3.18,-5.53,-3.14,3.14,3.28,2.42,-2.44,-2.39,-2.40
213.56,-5.72,-3.32,-5.42,-3.02,3.02,3.20,2.37,-2.70,-2.40,-2.40
215.69,-5.56,-3.15,-5.33,-2.92,2.92,3.12,2.32,-2.64,-2.41,-2.41
217.85,-5.30,-2.89,-5.25,-2.83,2.83,3.03,2.27,-2.47,-2.41,-2.41
220.03,-4.98,-2.56,-5.15,-2.73,2.73,2.95,2.22,-2.25,-2.42,-2.42
222.23,-4.87,-2.43,-5.02,-2.60,2.60,2.87,2.17,-2.27,-2.42,-2.44
224.45,-4.96,-2.53,-4.87,-2.45,2.45,2.78,2.11,-2.51,-2.42,-2.43
226.70,-4.88,-2.46,-4.74,-2.32,2.32,2.70,2.06,-2.56,-2.42,-2.42
228.96,-4.59,-2.18,-4.61,-2.21,2.21,2.61,2.01,-2.38,-2.41,-2.41
231.25,-4.32,-1.92,-4.48,-2.08,2.08,2.53,1.96,-2.24,-2.40,-2.40
233.57,-4.32,-1.94,-4.32,-1.93,1.93,2.44,1.91,-2.39,-2.38,-2.38
235.90,-4.39,-2.02,-4.15,-1.79,1.79,2.35,1.85,-2.60,-2.36,-2.37
238.26,-4.11,-1.76,-4.00,-1.66,1.66,2.26,1.79,-2.45,-2.34,-2.35
240.64,-3.73,-1.40,-3.88,-1.56,1.56,2.17,1.74,-2.17,-2.32,-2.33
243.05,-3.50,-1.21,-3.76,-1.46,1.46,2.08,1.68,-2.04,-2.30,-2.29
245.48,-3.46,-1.19,-3.61,-1.34,1.34,1.99,1.62,-2.12,-2.27,-2.27
247.93,-3.39,-1.16,-3.45,-1.20,1.20,1.89,1.55,-2.19,-2.25,-2.23
250.41,-3.45,-1.23,-3.29,-1.07,1.07,1.80,1.49,-2.38,-2.22,-2.22
252.92,-3.34,-1.16,-3.15,-0.96,0.96,1.70,1.42,-2.38,-2.19,-2.18
255.45,-3.02,-0.86,-3.02,-0.85,0.85,1.60,1.35,-2.17,-2.17,-2.16
258.00,-2.83,-0.70,-2.87,-0.73,0.73,1.50,1.28,-2.10,-2.14,-2.13
260.58,-2.80,-0.68,-2.72,-0.60,0.60,1.40,1.21,-2.20,-2.11,-2.12
263.19,-2.69,-0.61,-2.57,-0.49,0.49,1.30,1.13,-2.21,-2.09,-2.08
265.82,-2.44,-0.38,-2.44,-0.38,0.38,1.20,1.05,-2.06,-2.06,-2.06
268.48,-2.15,-0.11,-2.31,-0.28,0.28,1.10,0.97,-1.87,-2.03,-2.04
271.16,-1.95,0.05,-2.16,-0.16,0.16,0.99,0.89,-1.79,-2.00,-2.00
273.87,-1.99,-0.01,-2.00,-0.02,0.02,0.88,0.80,-1.97,-1.98,-1.99
276.61,-1.97,-0.02,-1.84,0.11,-0.11,0.78,0.72,-2.08,-1.95,-1.95
279.38,-1.74,0.18,-1.67,0.26,-0.26,0.67,0.63,-2.00,-1.92,-1.92
282.17,-1.50,0.39,-1.51,0.39,-0.39,0.56,0.54,-1.89,-1.89,-1.89
284.99,-1.40,0.46,-1.37,0.49,-0.49,0.44,0.45,-1.89,-1.86,-1.86
287.84,-1.33,0.51,-1.24,0.59,-0.59,0.33,0.36,-1.92,-1.83,-1.84
290.72,-1.13,0.67,-1.13,0.67,-0.67,0.21,0.26,-1.80,-1.80,-1.80
293.63,-0.97,0.80,-1.01,0.76,-0.76,0.10,0.16,-1.73,-1.77,-1.78
296.57,-0.86,0.88,-0.91,0.83,-0.83,-0.02,0.07,-1.69,-1.74,-1.74
299.53,-0.70,1.01,-0.81,0.90,-0.90,-0.14,-0.03,-1.60,-1.71,-1.71
302.53,-0.55,1.14,-0.70,0.98,-0.98,-0.26,-0.13,-1.54,-1.68,-1.69
305.55,-0.44,1.20,-0.57,1.09,-1.09,-0.38,-0.24,-1.53,-1.66,-1.64
308.61,-0.40,1.23,-0.46,1.17,-1.17,-0.51,-0.34,-1.57,-1.63,-1.63
311.69,-0.48,1.12,-0.38,1.23,-1.23,-0.63,-0.44,-1.71,-1.61,-1.60
314.81,-0.57,1.00,-0.28,1.31,-1.31,-0.76,-0.55,-1.88,-1.58,-1.57
317.96,-0.39,1.16,-0.17,1.39,-1.39,-0.88,-0.66,-1.78,-1.56,-1.55
321.14,-0.12,1.42,-0.06,1.48,-1.48,-1.01,-0.77,-1.60,-1.54,-1.54
324.35,0.24,1.77,0.02,1.54,-1.54,-1.14,-0.88,-1.30,-1.52,-1.53
327.59,0.10,1.61,0.11,1.62,-1.62,-1.27,-0.99,-1.52,-1.51,-1.51
330.87,0.31,1.81,0.23,1.72,-1.72,-1.40,-1.10,-1.41,-1.49,-1.50
334.18,0.48,1.96,0.35,1.83,-1.83,-1.54,-1.21,-1.35,-1.48,-1.48
337.52,0.53,2.00,0.48,1.95,-1.95,-1.67,-1.33,-1.42,-1.47,-1.47
340.90,0.43,1.88,0.61,2.07,-2.07,-1.81,-1.45,-1.64,-1.46,-1.45
344.30,0.75,2.20,0.76,2.21,-2.21,-1.94,-1.56,-1.46,-1.45,-1.45
347.75,0.98,2.43,0.91,2.35,-2.35,-2.08,-1.68,-1.37,-1.45,-1.45
351.23,0.93,2.37,1.04,2.48,-2.48,-2.21,-1.81,-1.55,-1.44,-1.44
354.74,1.00,2.44,1.15,2.58,-2.58,-2.35,-1.93,-1.58,-1.44,-1.44
358.28,1.18,2.61,1.25,2.68,-2.68,-2.48,-2.05,-1.50,-1.43,-1.43
361.87,1.54,2.97,1.37,2.80,-2.80,-2.62,-2.18,-1.26,-1.43,-1.43
365.49,1.73,3.15,1.51,2.93,-2.93,-2.75,-2.31,-1.21,-1.43,-1.42
369.14,1.64,3.07,1.63,3.06,-3.06,-2.89,-2.43,-1.42,-1.43,-1.43
372.83,1.71,3.14,1.76,3.18,-3.18,-3.02,-2.56,-1.48,-1.43,-1.43
376.56,1.84,3.28,1.88,3.31,-3.31,-3.16,-2.69,-1.47,-1.43,-1.44
380.33,2.03,3.46,1.99,3.43,-3.43,-3.29,-2.83,-1.40,-1.43,-1.43
384.13,2.05,3.48,2.09,3.53,-3.53,-3.42,-2.96,-1.48,-1.44,-1.43
387.97,2.07,3.51,2.20,3.64,-3.64,-3.55,-3.10,-1.57,-1.44,-1.44
391.85,2.22,3.67,2.30,3.75,-3.75,-3.67,-3.23,-1.53,-1.44,-1.45
395.77,2.45,3.89,2.40,3.85,-3.85,-3.80,-3.37,-1.40,-1.45,-1.44
