frequency,raw,error,smoothed,error_smoothed,equalization,parametric_eq,fixed_band_eq,equalized_raw,equalized_smoothed,target
20.00,-4.70,-4.33,-4.72,-4.37,4.37,4.26,0.91,-0.33,-0.35,-0.37
20.20,-4.66,-4.29,-4.68,-4.32,4.32,4.20,0.94,-0.34,-0.36,-0.37
20.40,-4.63,-4.26,-4.63,-4.27,4.27,4.15,0.97,-0.37,-0.37,-0.37
20.61,-4.59,-4.22,-4.59,-4.21,4.21,4.09,1.00,-0.38,-0.38,-0.37
20.81,-4.54,-4.17,-4.54,-4.15,4.15,4.03,1.03,-0.39,-0.39,-0.37
21.02,-4.51,-4.14,-4.49,-4.09,4.09,3.97,1.06,-0.42,-0.40,-0.37
21.23,-4.45,-4.06,-4.44,-4.03,4.03,3.90,1.09,-0.42,-0.41,-0.39
21.44,-4.41,-4.01,-4.39,-3.97,3.97,3.83,1.12,-0.44,-0.42,-0.40
21.66,-4.36,-3.94,-4.35,-3.91,3.91,3.77,1.16,-0.45,-0.44,-0.42
21.87,-4.31,-3.87,-4.30,-3.85,3.85,3.70,1.19,-0.47,-0.45,-0.45
22.09,-4.24,-3.79,-4.25,-3.78,3.78,3.63,1.23,-0.46,-0.47,-0.46
22.31,-4.19,-3.71,-4.20,-3.72,3.72,3.56,1.26,-0.48,-0.48,-0.49
22.54,-4.14,-3.64,-4.15,-3.64,3.64,3.49,1.30,-0.50,-0.51,-0.51
22.76,-4.08,-3.56,-4.10,-3.57,3.57,3.42,1.34,-0.51,-0.53,-0.53
22.99,-4.03,-3.48,-4.05,-3.50,3.50,3.34,1.38,-0.54,-0.55,-0.56
23.22,-3.99,-3.41,-4.00,-3.42,3.42,3.27,1.42,-0.57,-0.57,-0.59
23.45,-3.94,-3.34,-3.94,-3.35,3.35,3.20,1.46,-0.59,-0.59,-0.61
23.69,-3.89,-3.28,-3.89,-3.28,3.28,3.13,1.50,-0.61,-0.61,-0.62
23.92,-3.84,-3.20,-3.84,-3.21,3.21,3.06,1.54,-0.63,-0.63,-0.64
24.16,-3.80,-3.15,-3.79,-3.14,3.14,2.99,1.59,-0.66,-0.65,-0.65
24.40,-3.75,-3.08,-3.75,-3.07,3.07,2.92,1.63,-0.68,-0.67,-0.67
24.65,-3.70,-3.01,-3.70,-3.00,3.00,2.85,1.67,-0.70,-0.69,-0.69
24.89,-3.65,-2.94,-3.65,-2.94,2.94,2.78,1.72,-0.71,-0.71,-0.71
25.14,-3.60,-2.88,-3.60,-2.87,2.87,2.72,1.76,-0.73,-0.73,-0.72
25.39,-3.54,-2.80,-3.55,-2.81,2.81,2.65,1.81,-0.73,-0.74,-0.74
25.65,-3.49,-2.74,-3.50,-2.74,2.74,2.59,1.85,-0.75,-0.76,-0.75
25.91,-3.44,-2.66,-3.45,-2.68,2.68,2.52,1.89,-0.77,-0.77,-0.78
26.16,-3.39,-2.60,-3.40,-2.61,2.61,2.46,1.94,-0.78,-0.79,-0.79
26.43,-3.35,-2.55,-3.35,-2.55,2.55,2.39,1.98,-0.81,-0.80,-0.80
26.69,-3.30,-2.48,-3.30,-2.48,2.48,2.33,2.02,-0.82,-0.82,-0.82
26.96,-3.25,-2.42,-3.25,-2.41,2.41,2.27,2.06,-0.84,-0.84,-0.83
27.23,-3.20,-2.36,-3.20,-2.35,2.35,2.21,2.10,-0.85,-0.85,-0.85
27.50,-3.16,-2.31,-3.15,-2.29,2.29,2.16,2.14,-0.88,-0.86,-0.86
27.77,-3.10,-2.23,-3.10,-2.23,2.23,2.10,2.18,-0.88,-0.88,-0.88
28.05,-3.05,-2.17,-3.05,-2.16,2.16,2.04,2.21,-0.89,-0.89,-0.89
28.33,-3.00,-2.09,-3.01,-2.10,2.10,1.99,2.24,-0.90,-0.90,-0.91
28.62,-2.95,-2.03,-2.96,-2.04,2.04,1.93,2.27,-0.91,-0.92,-0.92
28.90,-2.91,-1.98,-2.91,-1.98,1.98,1.88,2.30,-0.93,-0.93,-0.93
29.19,-2.86,-1.91,-2.86,-1.92,1.92,1.83,2.32,-0.94,-0.94,-0.95
29.48,-2.81,-1.86,-2.82,-1.87,1.87,1.78,2.34,-0.95,-0.95,-0.95
29.78,-2.77,-1.81,-2.78,-1.81,1.81,1.73,2.35,-0.96,-0.97,-0.96
30.08,-2.73,-1.76,-2.73,-1.75,1.75,1.68,2.37,-0.98,-0.98,-0.97
30.38,-2.70,-1.71,-2.69,-1.70,1.70,1.63,2.37,-1.00,-1.00,-0.99
30.68,-2.65,-1.65,-2.66,-1.65,1.65,1.58,2.38,-1.01,-1.01,-1.01
30.99,-2.61,-1.59,-2.62,-1.60,1.60,1.54,2.38,-1.02,-1.02,-1.03
31.30,-2.58,-1.55,-2.59,-1.55,1.55,1.49,2.37,-1.04,-1.04,-1.04
31.61,-2.55,-1.50,-2.55,-1.50,1.50,1.45,2.36,-1.06,-1.06,-1.05
31.93,-2.52,-1.45,-2.52,-1.45,1.45,1.41,2.35,-1.07,-1.07,-1.07
32.24,-2.50,-1.40,-2.49,-1.40,1.40,1.36,2.33,-1.10,-1.09,-1.10
32.57,-2.46,-1.35,-2.47,-1.36,1.36,1.32,2.31,-1.11,-1.11,-1.11
32.89,-2.44,-1.32,-2.44,-1.31,1.31,1.28,2.29,-1.13,-1.13,-1.13
33.22,-2.41,-1.26,-2.42,-1.27,1.27,1.24,2.26,-1.15,-1.15,-1.16
33.55,-2.39,-1.22,-2.39,-1.22,1.22,1.20,2.23,-1.17,-1.17,-1.17
33.89,-2.37,-1.18,-2.37,-1.18,1.18,1.16,2.20,-1.19,-1.19,-1.19
34.23,-2.35,-1.14,-2.35,-1.14,1.14,1.13,2.16,-1.21,-1.21,-1.21
34.57,-2.33,-1.10,-2.33,-1.10,1.10,1.09,2.12,-1.23,-1.23,-1.23
34.92,-2.31,-1.06,-2.31,-1.06,1.06,1.06,2.07,-1.25,-1.25,-1.26
35.27,-2.29,-1.03,-2.29,-1.02,1.02,1.02,2.03,-1.27,-1.27,-1.27
35.62,-2.27,-0.98,-2.28,-0.99,0.99,0.99,1.98,-1.29,-1.29,-1.29
35.97,-2.26,-0.95,-2.26,-0.95,0.95,0.95,1.93,-1.31,-1.31,-1.31
36.33,-2.24,-0.92,-2.25,-0.92,0.92,0.92,1.88,-1.33,-1.33,-1.32
36.70,-2.23,-0.89,-2.23,-0.88,0.88,0.89,1.83,-1.35,-1.35,-1.35
37.06,-2.21,-0.84,-2.22,-0.85,0.85,0.85,1.78,-1.36,-1.37,-1.37
37.43,-2.20,-0.82,-2.21,-0.82,0.82,0.82,1.73,-1.38,-1.39,-1.38
37.81,-2.19,-0.79,-2.20,-0.79,0.79,0.79,1.67,-1.40,-1.41,-1.40
38.19,-2.18,-0.76,-2.19,-0.76,0.76,0.76,1.62,-1.42,-1.42,-1.43
38.57,-2.18,-0.74,-2.18,-0.73,0.73,0.73,1.57,-1.45,-1.44,-1.44
38.95,-2.17,-0.71,-2.17,-0.71,0.71,0.70,1.51,-1.47,-1.46,-1.46
39.34,-2.16,-0.68,-2.16,-0.68,0.68,0.67,1.46,-1.48,-1.48,-1.48
39.74,-2.15,-0.65,-2.15,-0.66,0.66,0.64,1.40,-1.50,-1.50,-1.51
40.14,-2.14,-0.63,-2.14,-0.63,0.63,0.62,1.35,-1.51,-1.51,-1.51
40.54,-2.14,-0.61,-2.14,-0.61,0.61,0.59,1.30,-1.54,-1.53,-1.53
40.94,-2.12,-0.58,-2.13,-0.58,0.58,0.56,1.25,-1.54,-1.55,-1.55
41.35,-2.12,-0.55,-2.12,-0.56,0.56,0.53,1.19,-1.56,-1.56,-1.57
41.76,-2.11,-0.54,-2.12,-0.54,0.54,0.51,1.14,-1.58,-1.58,-1.58
42.18,-2.11,-0.52,-2.11,-0.51,0.51,0.48,1.09,-1.60,-1.60,-1.59
42.60,-2.10,-0.49,-2.10,-0.49,0.49,0.46,1.04,-1.61,-1.61,-1.61
43.03,-2.10,-0.49,-2.10,-0.47,0.47,0.43,0.99,-1.64,-1.63,-1.62
43.46,-2.09,-0.45,-2.09,-0.45,0.45,0.41,0.94,-1.65,-1.65,-1.64
43.90,-2.08,-0.42,-2.09,-0.43,0.43,0.38,0.90,-1.66,-1.66,-1.67
44.33,-2.08,-0.40,-2.09,-0.41,0.41,0.36,0.85,-1.68,-1.68,-1.68
44.78,-2.08,-0.39,-2.08,-0.39,0.39,0.33,0.80,-1.69,-1.69,-1.70
45.23,-2.08,-0.36,-2.08,-0.37,0.37,0.31,0.76,-1.71,-1.71,-1.72
45.68,-2.08,-0.35,-2.08,-0.35,0.35,0.28,0.71,-1.73,-1.73,-1.74
46.13,-2.07,-0.32,-2.08,-0.34,0.34,0.26,0.67,-1.74,-1.74,-1.75
46.60,-2.07,-0.32,-2.08,-0.32,0.32,0.24,0.63,-1.75,-1.76,-1.76
47.06,-2.07,-0.30,-2.08,-0.30,0.30,0.21,0.58,-1.77,-1.78,-1.77
47.53,-2.08,-0.29,-2.08,-0.28,0.28,0.19,0.54,-1.80,-1.80,-1.79
48.01,-2.08,-0.29,-2.08,-0.27,0.27,0.17,0.50,-1.81,-1.81,-1.80
48.49,-2.08,-0.26,-2.09,-0.25,0.25,0.15,0.46,-1.83,-1.83,-1.82
48.97,-2.09,-0.24,-2.09,-0.24,0.24,0.12,0.42,-1.85,-1.85,-1.85
49.46,-2.09,-0.22,-2.09,-0.22,0.22,0.10,0.38,-1.87,-1.87,-1.88
49.96,-2.09,-0.19,-2.09,-0.21,0.21,0.08,0.34,-1.89,-1.88,-1.90
50.46,-2.09,-0.19,-2.09,-0.19,0.19,0.06,0.30,-1.90,-1.90,-1.90
50.96,-2.09,-0.17,-2.09,-0.17,0.17,0.04,0.27,-1.92,-1.92,-1.92
51.47,-2.09,-0.15,-2.09,-0.15,0.15,0.01,0.23,-1.94,-1.94,-1.95
51.99,-2.09,-0.13,-2.09,-0.13,0.13,-0.01,0.19,-1.96,-1.96,-1.97
52.51,-2.09,-0.12,-2.09,-0.11,0.11,-0.03,0.16,-1.98,-1.98,-1.97
53.03,-2.09,-0.10,-2.09,-0.10,0.10,-0.05,0.12,-2.00,-2.00,-1.99
53.56,-2.09,-0.08,-2.09,-0.08,0.08,-0.07,0.09,-2.02,-2.02,-2.01
54.10,-2.08,-0.05,-2.09,-0.06,0.06,-0.10,0.05,-2.03,-2.04,-2.03
54.64,-2.09,-0.04,-2.09,-0.04,0.04,-0.12,0.02,-2.06,-2.05,-2.05
55.18,-2.09,-0.02,-2.09,-0.02,0.02,-0.14,-0.01,-2.08,-2.07,-2.07
55.74,-2.08,0.01,-2.08,0.00,-0.00,-0.16,-0.05,-2.09,-2.09,-2.09
56.29,-2.08,0.02,-2.08,0.03,-0.03,-0.18,-0.08,-2.11,-2.11,-2.11
56.86,-2.07,0.05,-2.08,0.05,-0.05,-0.20,-0.11,-2.12,-2.12,-2.13
57.42,-2.07,0.08,-2.07,0.07,-0.07,-0.23,-0.14,-2.15,-2.14,-2.15
58.00,-2.06,0.10,-2.06,0.10,-0.10,-0.25,-0.17,-2.16,-2.16,-2.16
58.58,-2.06,0.12,-2.06,0.12,-0.12,-0.27,-0.21,-2.19,-2.18,-2.18
59.16,-2.04,0.15,-2.05,0.15,-0.15,-0.29,-0.24,-2.19,-2.20,-2.20
59.76,-2.04,0.17,-2.04,0.18,-0.18,-0.31,-0.27,-2.22,-2.22,-2.21
60.35,-2.03,0.20,-2.04,0.20,-0.20,-0.34,-0.30,-2.24,-2.24,-2.23
60.96,-2.03,0.21,-2.03,0.23,-0.23,-0.36,-0.33,-2.26,-2.26,-2.24
61.57,-2.02,0.25,-2.02,0.26,-0.26,-0.38,-0.36,-2.28,-2.28,-2.27
62.18,-2.00,0.30,-2.01,0.28,-0.28,-0.40,-0.38,-2.29,-2.29,-2.30
62.80,-1.99,0.32,-2.00,0.31,-0.31,-0.43,-0.41,-2.31,-2.31,-2.32
63.43,-1.99,0.35,-1.99,0.34,-0.34,-0.45,-0.44,-2.33,-2.33,-2.34
64.07,-1.98,0.38,-1.98,0.37,-0.37,-0.47,-0.47,-2.35,-2.35,-2.36
64.71,-1.97,0.39,-1.97,0.39,-0.39,-0.50,-0.50,-2.37,-2.36,-2.37
65.35,-1.96,0.42,-1.96,0.42,-0.42,-0.52,-0.53,-2.38,-2.38,-2.38
66.01,-1.95,0.44,-1.95,0.44,-0.44,-0.54,-0.55,-2.40,-2.40,-2.39
66.67,-1.94,0.47,-1.94,0.47,-0.47,-0.57,-0.58,-2.41,-2.41,-2.41
67.33,-1.93,0.49,-1.94,0.49,-0.49,-0.59,-0.61,-2.42,-2.43,-2.42
68.01,-1.93,0.51,-1.93,0.51,-0.51,-0.61,-0.64,-2.45,-2.44,-2.44
68.69,-1.91,0.54,-1.92,0.54,-0.54,-0.64,-0.67,-2.45,-2.46,-2.45
69.37,-1.91,0.56,-1.91,0.56,-0.56,-0.66,-0.70,-2.47,-2.47,-2.47
70.07,-1.90,0.58,-1.90,0.58,-0.58,-0.69,-0.72,-2.49,-2.49,-2.49
70.77,-1.89,0.61,-1.90,0.61,-0.61,-0.71,-0.75,-2.50,-2.50,-2.50
71.48,-1.88,0.64,-1.89,0.63,-0.63,-0.74,-0.78,-2.52,-2.52,-2.52
72.19,-1.88,0.65,-1.88,0.66,-0.66,-0.77,-0.81,-2.54,-2.54,-2.53
72.91,-1.87,0.69,-1.87,0.69,-0.69,-0.79,-0.84,-2.56,-2.56,-2.56
73.64,-1.87,0.71,-1.87,0.71,-0.71,-0.82,-0.87,-2.59,-2.58,-2.58
74.38,-1.87,0.73,-1.86,0.74,-0.74,-0.84,-0.90,-2.61,-2.60,-2.60
75.12,-1.85,0.78,-1.86,0.77,-0.77,-0.87,-0.94,-2.62,-2.63,-2.64
75.87,-1.85,0.80,-1.85,0.80,-0.80,-0.90,-0.97,-2.65,-2.65,-2.65
76.63,-1.84,0.83,-1.85,0.83,-0.83,-0.93,-1.00,-2.67,-2.67,-2.67
77.40,-1.84,0.85,-1.84,0.86,-0.86,-0.95,-1.04,-2.70,-2.70,-2.70
78.17,-1.83,0.90,-1.84,0.89,-0.89,-0.98,-1.07,-2.72,-2.72,-2.74
78.95,-1.83,0.91,-1.83,0.92,-0.92,-1.01,-1.11,-2.75,-2.75,-2.74
79.74,-1.83,0.94,-1.83,0.95,-0.95,-1.04,-1.14,-2.78,-2.78,-2.77
80.54,-1.83,0.97,-1.83,0.98,-0.98,-1.07,-1.18,-2.81,-2.81,-2.80
81.35,-1.82,1.01,-1.83,1.01,-1.01,-1.10,-1.22,-2.83,-2.83,-2.83
82.16,-1.81,1.05,-1.82,1.04,-1.04,-1.13,-1.26,-2.85,-2.86,-2.87
82.98,-1.82,1.06,-1.82,1.07,-1.07,-1.16,-1.30,-2.89,-2.89,-2.89
83.81,-1.82,1.11,-1.83,1.10,-1.10,-1.19,-1.34,-2.92,-2.92,-2.93
84.65,-1.83,1.13,-1.83,1.13,-1.13,-1.22,-1.38,-2.96,-2.96,-2.96
85.50,-1.82,1.16,-1.83,1.16,-1.16,-1.26,-1.43,-2.98,-2.99,-2.99
86.35,-1.83,1.19,-1.83,1.19,-1.19,-1.29,-1.47,-3.02,-3.02,-3.02
87.22,-1.83,1.22,-1.83,1.22,-1.22,-1.32,-1.52,-3.05,-3.05,-3.05
88.09,-1.83,1.26,-1.83,1.25,-1.25,-1.36,-1.56,-3.08,-3.09,-3.09
88.97,-1.83,1.28,-1.84,1.28,-1.28,-1.39,-1.61,-3.11,-3.12,-3.11
89.86,-1.84,1.31,-1.84,1.31,-1.31,-1.43,-1.66,-3.16,-3.15,-3.15
90.76,-1.84,1.35,-1.84,1.35,-1.35,-1.46,-1.71,-3.19,-3.19,-3.20
91.66,-1.84,1.38,-1.84,1.38,-1.38,-1.50,-1.76,-3.22,-3.22,-3.22
92.58,-1.84,1.43,-1.84,1.41,-1.41,-1.53,-1.82,-3.26,-3.26,-3.27
93.51,-1.85,1.43,-1.84,1.45,-1.45,-1.57,-1.87,-3.30,-3.29,-3.29
94.44,-1.84,1.48,-1.84,1.49,-1.49,-1.61,-1.93,-3.33,-3.33,-3.32
95.39,-1.84,1.52,-1.84,1.53,-1.53,-1.65,-1.98,-3.37,-3.37,-3.36
96.34,-1.84,1.57,-1.84,1.57,-1.57,-1.68,-2.04,-3.41,-3.41,-3.41
97.30,-1.84,1.61,-1.84,1.61,-1.61,-1.72,-2.10,-3.46,-3.45,-3.45
98.28,-1.83,1.66,-1.83,1.66,-1.66,-1.76,-2.16,-3.49,-3.49,-3.49
99.26,-1.82,1.71,-1.83,1.70,-1.70,-1.80,-2.22,-3.53,-3.53,-3.54
100.25,-1.82,1.75,-1.82,1.75,-1.75,-1.84,-2.28,-3.57,-3.58,-3.58
101.25,-1.81,1.80,-1.82,1.80,-1.80,-1.89,-2.34,-3.61,-3.62,-3.62
102.27,-1.80,1.86,-1.81,1.85,-1.85,-1.93,-2.40,-3.66,-3.66,-3.66
103.29,-1.80,1.91,-1.80,1.91,-1.91,-1.97,-2.46,-3.71,-3.71,-3.71
104.32,-1.79,1.96,-1.79,1.96,-1.96,-2.01,-2.53,-3.75,-3.75,-3.75
105.37,-1.78,2.01,-1.78,2.02,-2.02,-2.06,-2.59,-3.80,-3.80,-3.79
106.42,-1.77,2.07,-1.77,2.08,-2.08,-2.10,-2.65,-3.85,-3.84,-3.84
107.48,-1.76,2.13,-1.76,2.14,-2.14,-2.15,-2.71,-3.90,-3.89,-3.89
108.56,-1.74,2.20,-1.74,2.20,-2.20,-2.19,-2.77,-3.94,-3.94,-3.94
109.64,-1.72,2.27,-1.73,2.26,-2.26,-2.24,-2.83,-3.99,-3.99,-3.99
110.74,-1.71,2.32,-1.71,2.33,-2.33,-2.29,-2.89,-4.04,-4.04,-4.03
111.85,-1.69,2.38,-1.69,2.39,-2.39,-2.33,-2.95,-4.09,-4.09,-4.08
112.97,-1.67,2.47,-1.68,2.46,-2.46,-2.38,-3.00,-4.14,-4.14,-4.15
114.10,-1.66,2.52,-1.66,2.53,-2.53,-2.43,-3.05,-4.19,-4.19,-4.19
115.24,-1.63,2.60,-1.64,2.60,-2.60,-2.48,-3.10,-4.23,-4.23,-4.23
116.39,-1.61,2.68,-1.61,2.67,-2.67,-2.53,-3.15,-4.28,-4.28,-4.29
117.55,-1.59,2.75,-1.59,2.74,-2.74,-2.58,-3.20,-4.33,-4.33,-4.34
118.73,-1.57,2.81,-1.57,2.81,-2.81,-2.63,-3.24,-4.38,-4.38,-4.39
119.92,-1.54,2.88,-1.55,2.88,-2.88,-2.68,-3.28,-4.42,-4.42,-4.42
121.12,-1.52,2.95,-1.52,2.95,-2.95,-2.74,-3.32,-4.47,-4.47,-4.47
122.33,-1.50,3.01,-1.50,3.02,-3.02,-2.79,-3.35,-4.52,-4.52,-4.52
123.55,-1.47,3.08,-1.47,3.09,-3.09,-2.84,-3.38,-4.56,-4.56,-4.55
124.79,-1.45,3.14,-1.45,3.15,-3.15,-2.90,-3.40,-4.61,-4.60,-4.60
126.03,-1.42,3.21,-1.42,3.22,-3.22,-2.95,-3.43,-4.64,-4.64,-4.63
127.29,-1.40,3.27,-1.40,3.29,-3.29,-3.01,-3.45,-4.69,-4.68,-4.68
128.57,-1.37,3.36,-1.37,3.35,-3.35,-3.06,-3.46,-4.72,-4.72,-4.73
129.85,-1.34,3.42,-1.35,3.41,-3.41,-3.12,-3.47,-4.76,-4.76,-4.77
131.15,-1.32,3.48,-1.32,3.47,-3.47,-3.17,-3.48,-4.80,-4.80,-4.80
132.46,-1.29,3.55,-1.30,3.53,-3.53,-3.23,-3.49,-4.82,-4.83,-4.84
133.79,-1.27,3.59,-1.28,3.59,-3.59,-3.28,-3.49,-4.86,-4.87,-4.86
135.12,-1.25,3.65,-1.25,3.64,-3.64,-3.34,-3.49,-4.89,-4.90,-4.90
136.48,-1.23,3.69,-1.23,3.69,-3.69,-3.40,-3.49,-4.92,-4.92,-4.92
137.84,-1.21,3.73,-1.21,3.74,-3.74,-3.45,-3.49,-4.95,-4.95,-4.95
139.22,-1.19,3.79,-1.19,3.78,-3.78,-3.51,-3.49,-4.98,-4.98,-4.98
140.61,-1.17,3.84,-1.17,3.83,-3.83,-3.56,-3.48,-5.00,-5.00,-5.01
142.02,-1.15,3.86,-1.15,3.87,-3.87,-3.62,-3.47,-5.02,-5.02,-5.01
143.44,-1.14,3.89,-1.14,3.90,-3.90,-3.68,-3.47,-5.04,-5.04,-5.03
144.87,-1.12,3.93,-1.12,3.93,-3.93,-3.73,-3.46,-5.06,-5.05,-5.06
146.32,-1.10,3.97,-1.10,3.97,-3.97,-3.79,-3.45,-5.07,-5.07,-5.07
147.78,-1.08,4.00,-1.09,4.00,-4.00,-3.84,-3.44,-5.08,-5.09,-5.08
149.26,-1.07,4.02,-1.08,4.03,-4.03,-3.90,-3.44,-5.10,-5.10,-5.10
150.75,-1.06,4.06,-1.07,4.05,-4.05,-3.95,-3.43,-5.12,-5.12,-5.12
152.26,-1.05,4.08,-1.06,4.08,-4.08,-4.01,-3.42,-5.13,-5.13,-5.14
153.78,-1.04,4.11,-1.05,4.10,-4.10,-4.06,-3.42,-5.15,-5.15,-5.15
155.32,-1.03,4.13,-1.04,4.13,-4.13,-4.11,-3.42,-5.16,-5.17,-5.16
156.88,-1.03,4.14,-1.03,4.15,-4.15,-4.16,-3.41,-5.18,-5.18,-5.18
158.44,-1.03,4.16,-1.03,4.17,-4.17,-4.21,-3.41,-5.20,-5.20,-5.20
160.03,-1.02,4.20,-1.02,4.19,-4.19,-4.26,-3.42,-5.21,-5.21,-5.22
161.63,-1.02,4.22,-1.02,4.21,-4.21,-4.31,-3.42,-5.23,-5.23,-5.24
163.24,-1.01,4.24,-1.02,4.23,-4.23,-4.36,-3.43,-5.24,-5.25,-5.25
164.88,-1.01,4.25,-1.01,4.25,-4.25,-4.40,-3.43,-5.27,-5.27,-5.26
166.53,-1.01,4.27,-1.01,4.27,-4.27,-4.44,-3.45,-5.29,-5.28,-5.28
168.19,-1.01,4.29,-1.01,4.30,-4.30,-4.49,-3.46,-5.31,-5.30,-5.31
169.87,-1.01,4.31,-1.00,4.32,-4.32,-4.53,-3.48,-5.33,-5.33,-5.33
171.57,-1.00,4.34,-1.00,4.35,-4.35,-4.57,-3.49,-5.35,-5.35,-5.34
173.29,-1.00,4.36,-1.00,4.37,-4.37,-4.60,-3.52,-5.38,-5.37,-5.36
175.02,-0.99,4.39,-0.99,4.40,-4.40,-4.64,-3.54,-5.40,-5.40,-5.39
176.77,-0.99,4.43,-0.99,4.43,-4.43,-4.67,-3.57,-5.43,-5.42,-5.42
178.54,-0.98,4.47,-0.99,4.46,-4.46,-4.70,-3.60,-5.44,-5.45,-5.45
180.32,-0.98,4.49,-0.98,4.49,-4.49,-4.73,-3.63,-5.47,-5.47,-5.47
182.13,-0.98,4.52,-0.98,4.52,-4.52,-4.76,-3.66,-5.50,-5.50,-5.50
183.95,-0.98,4.55,-0.98,4.55,-4.55,-4.78,-3.70,-5.53,-5.53,-5.53
185.79,-0.97,4.58,-0.98,4.58,-4.58,-4.80,-3.74,-5.55,-5.56,-5.56
187.65,-0.97,4.62,-0.98,4.60,-4.60,-4.82,-3.78,-5.58,-5.58,-5.59
189.52,-0.98,4.63,-0.98,4.62,-4.62,-4.84,-3.83,-5.61,-5.61,-5.61
191.42,-0.98,4.65,-0.99,4.64,-4.64,-4.85,-3.88,-5.63,-5.63,-5.64
193.33,-0.98,4.66,-1.00,4.66,-4.66,-4.86,-3.93,-5.64,-5.65,-5.65
195.27,-1.00,4.67,-1.01,4.67,-4.67,-4.87,-3.98,-5.68,-5.68,-5.67
197.22,-1.01,4.68,-1.02,4.68,-4.68,-4.88,-4.04,-5.69,-5.70,-5.69
199.19,-1.02,4.71,-1.03,4.69,-4.69,-4.88,-4.09,-5.71,-5.72,-5.73
201.18,-1.03,4.71,-1.05,4.69,-4.69,-4.89,-4.15,-5.72,-5.74,-5.74
203.19,-1.06,4.69,-1.07,4.69,-4.69,-4.89,-4.21,-5.75,-5.75,-5.75
205.23,-1.08,4.69,-1.08,4.69,-4.69,-4.88,-4.27,-5.77,-5.77,-5.77
207.28,-1.10,4.67,-1.10,4.68,-4.68,-4.88,-4.33,-5.79,-5.79,-5.77
209.35,-1.12,4.68,-1.12,4.68,-4.68,-4.87,-4.39,-5.80,-5.80,-5.80
211.44,-1.14,4.68,-1.14,4.68,-4.68,-4.86,-4.45,-5.82,-5.81,-5.82
213.56,-1.16,4.67,-1.15,4.67,-4.67,-4.85,-4.51,-5.83,-5.82,-5.83
215.69,-1.17,4.65,-1.17,4.67,-4.67,-4.84,-4.57,-5.84,-5.83,-5.83
217.85,-1.19,4.64,-1.18,4.66,-4.66,-4.82,-4.63,-5.85,-5.84,-5.83
220.03,-1.19,4.66,-1.19,4.66,-4.66,-4.80,-4.69,-5.85,-5.85,-5.85
222.23,-1.20,4.66,-1.20,4.65,-4.65,-4.78,-4.75,-5.85,-5.85,-5.86
224.45,-1.20,4.64,-1.20,4.65,-4.65,-4.76,-4.80,-5.85,-5.85,-5.85
226.70,-1.20,4.65,-1.20,4.65,-4.65,-4.74,-4.85,-5.85,-5.85,-5.85
228.96,-1.20,4.65,-1.20,4.64,-4.64,-4.71,-4.90,-5.85,-5.85,-5.85
231.25,-1.20,4.63,-1.20,4.64,-4.64,-4.68,-4.94,-5.85,-5.84,-5.84
233.57,-1.19,4.63,-1.19,4.64,-4.64,-4.66,-4.98,-5.83,-5.83,-5.82
235.90,-1.18,4.64,-1.18,4.63,-4.63,-4.63,-5.02,-5.82,-5.82,-5.82
238.26,-1.17,4.64,-1.18,4.63,-4.63,-4.60,-5.04,-5.80,-5.81,-5.81
240.64,-1.16,4.63,-1.17,4.62,-4.62,-4.56,-5.07,-5.79,-5.79,-5.79
243.05,-1.15,4.62,-1.16,4.62,-4.62,-4.53,-5.08,-5.77,-5.77,-5.78
245.48,-1.15,4.60,-1.15,4.60,-4.60,-4.50,-5.10,-5.76,-5.75,-5.75
247.93,-1.14,4.59,-1.14,4.60,-4.60,-4.46,-5.10,-5.74,-5.73,-5.74
250.41,-1.12,4.60,-1.13,4.58,-4.58,-4.43,-5.10,-5.71,-5.71,-5.72
252.92,-1.11,4.57,-1.12,4.57,-4.57,-4.39,-5.09,-5.68,-5.69,-5.68
255.45,-1.11,4.55,-1.11,4.55,-4.55,-4.35,-5.08,-5.67,-5.67,-5.66
258.00,-1.10,4.53,-1.10,4.54,-4.54,-4.32,-5.06,-5.64,-5.64,-5.63
260.58,-1.09,4.52,-1.10,4.52,-4.52,-4.28,-5.03,-5.61,-5.62,-5.62
263.19,-1.09,4.50,-1.09,4.50,-4.50,-4.24,-5.00,-5.59,-5.59,-5.59
265.82,-1.08,4.48,-1.09,4.48,-4.48,-4.20,-4.96,-5.56,-5.56,-5.57
268.48,-1.08,4.46,-1.08,4.46,-4.46,-4.17,-4.92,-5.54,-5.54,-5.54
271.16,-1.07,4.43,-1.08,4.44,-4.44,-4.13,-4.87,-5.51,-5.51,-5.50
273.87,-1.07,4.41,-1.07,4.41,-4.41,-4.09,-4.82,-5.49,-5.49,-5.49
276.61,-1.07,4.38,-1.07,4.39,-4.39,-4.05,-4.77,-5.46,-5.46,-5.45
279.38,-1.06,4.37,-1.07,4.37,-4.37,-4.01,-4.71,-5.43,-5.43,-5.43
282.17,-1.06,4.34,-1.06,4.34,-4.34,-3.98,-4.64,-5.40,-5.41,-5.41
284.99,-1.06,4.32,-1.06,4.31,-4.31,-3.94,-4.58,-5.38,-5.38,-5.38
287.84,-1.06,4.29,-1.06,4.29,-4.29,-3.90,-4.51,-5.35,-5.35,-5.35
290.72,-1.05,4.26,-1.06,4.26,-4.26,-3.87,-4.45,-5.31,-5.32,-5.31
293.63,-1.06,4.23,-1.06,4.23,-4.23,-3.83,-4.38,-5.29,-5.29,-5.30
296.57,-1.06,4.20,-1.06,4.20,-4.20,-3.79,-4.31,-5.26,-5.26,-5.26
299.53,-1.06,4.17,-1.06,4.16,-4.16,-3.76,-4.24,-5.23,-5.22,-5.23
302.53,-1.06,4.14,-1.06,4.13,-4.13,-3.72,-4.17,-5.19,-5.19,-5.20
305.55,-1.07,4.08,-1.06,4.10,-4.10,-3.69,-4.10,-5.17,-5.16,-5.16
308.61,-1.06,4.06,-1.07,4.06,-4.06,-3.66,-4.03,-5.12,-5.13,-5.13
311.69,-1.07,4.02,-1.07,4.03,-4.03,-3.62,-3.96,-5.10,-5.09,-5.09
314.81,-1.06,3.99,-1.07,3.99,-3.99,-3.59,-3.89,-5.05,-5.06,-5.05
317.96,-1.07,3.95,-1.07,3.96,-3.96,-3.56,-3.83,-5.03,-5.03,-5.02
321.14,-1.07,3.92,-1.07,3.93,-3.93,-3.53,-3.76,-5.00,-5.00,-5.00
324.35,-1.08,3.88,-1.07,3.90,-3.90,-3.50,-3.70,-4.98,-4.96,-4.97
327.59,-1.08,3.85,-1.06,3.87,-3.87,-3.47,-3.64,-4.96,-4.93,-4.93
330.87,-1.09,3.81,-1.06,3.84,-3.84,-3.44,-3.58,-4.94,-4.91,-4.90
334.18,-1.09,3.79,-1.07,3.81,-3.81,-3.41,-3.53,-4.90,-4.88,-4.88
337.52,-1.10,3.75,-1.08,3.77,-3.77,-3.39,-3.48,-4.87,-4.85,-4.85
340.90,-1.11,3.71,-1.10,3.72,-3.72,-3.36,-3.42,-4.84,-4.83,-4.83
344.30,-1.12,3.68,-1.14,3.67,-3.67,-3.34,-3.38,-4.79,-4.81,-4.81
347.75,-1.13,3.64,-1.17,3.61,-3.61,-3.31,-3.33,-4.74,-4.78,-4.78
351.23,-1.13,3.63,-1.22,3.54,-3.54,-3.29,-3.28,-4.67,-4.76,-4.76
354.74,-1.17,3.57,-1.28,3.46,-3.46,-3.27,-3.24,-4.63,-4.74,-4.74
358.28,-1.29,3.43,-1.35,3.37,-3.37,-3.25,-3.20,-4.66,-4.72,-4.72
361.87,-1.40,3.30,-1.42,3.28,-3.28,-3.22,-3.17,-4.68,-4.70,-4.70
365.49,-1.51,3.16,-1.50,3.18,-3.18,-3.20,-3.13,-4.69,-4.68,-4.67
369.14,-1.62,3.04,-1.59,3.07,-3.07,-3.19,-3.10,-4.69,-4.66,-4.66
372.83,-1.72,2.92,-1.68,2.96,-2.96,-3.17,-3.07,-4.68,-4.64,-4.65
376.56,-1.80,2.82,-1.77,2.85,-2.85,-3.15,-3.05,-4.65,-4.62,-4.63
380.33,-1.89,2.70,-1.86,2.74,-2.74,-3.13,-3.02,-4.63,-4.60,-4.60
384.13,-1.97,2.61,-1.95,2.63,-2.63,-3.12,-3.00,-4.60,-4.58,-4.58
387.97,-2.05,2.51,-2.03,2.52,-2.52,-3.10,-2.98,-4.58,-4.56,-4.56
391.85,-2.11,2.43,-2.11,2.43,-2.43,-3.09,-2.96,-4.54,-4.54,-4.54
395.77,-2.17,2.34,-2.17,2.34,-2.34,-3.08,-2.94,-4.51,-4.52,-4.51
399.73,-2.22,2.27,-2.23,2.27,-2.27,-3.07,-2.93,-4.49,-4.49,-4.49
403.72,-2.27,2.20,-2.28,2.19,-2.19,-3.06,-2.92,-4.47,-4.47,-4.47
407.76,-2.32,2.13,-2.32,2.13,-2.13,-3.04,-2.91,-4.45,-4.45,-4.45
411.84,-2.35,2.07,-2.36,2.07,-2.07,-3.04,-2.90,-4.42,-4.43,-4.42
415.96,-2.37,2.03,-2.39,2.02,-2.02,-3.03,-2.89,-4.39,-4.40,-4.40
420.12,-2.39,1.99,-2.41,1.98,-1.98,-3.02,-2.89,-4.37,-4.38,-4.38
424.32,-2.40,1.95,-2.41,1.95,-1.95,-3.01,-2.88,-4.35,-4.36,-4.36
428.56,-2.41,1.92,-2.41,1.92,-1.92,-3.01,-2.88,-4.34,-4.34,-4.34
