frequency,raw
20,-20.01
21,-19.95
22,-19.58
23,-19.04
24,-18.49
25,-17.82
26,-17.00
27,-16.31
28,-15.56
29,-14.86
30,-14.26
31,-13.68
32,-13.08
33,-12.59
34,-12.24
35,-11.91
36,-11.59
37,-11.28
38,-10.98
39,-10.69
40,-10.28
41,-9.96
42,-9.74
43,-9.42
44,-9.16
45,-8.91
46,-8.66
47,-8.26
48,-8.02
49,-7.62
50,-7.39
51,-7.01
52,-6.70
53,-6.27
54,-6.01
55,-5.60
56,-5.19
57,-4.79
58,-4.42
59,-4.17
60,-3.80
61,-3.42
62,-3.05
63,-2.69
64,-2.50
65,-2.15
66,-1.83
67,-1.66
68,-1.46
69,-1.16
70,-1.00
71,-0.80
72,-0.55
73,-0.50
74,-0.23
75,-0.22
76,-0.07
77,0.08
78,0.10
79,0.31
80,0.42
81,0.42
82,0.46
83,0.60
84,0.73
85,0.75
86,0.84
87,0.97
88,1.07
89,1.07
90,1.07
91,1.23
92,1.39
93,1.39
94,1.39
95,1.39
96,1.39
97,1.39
98,1.50
99,1.62
100,1.72
101,1.72
102,1.72
104,1.72
105,1.72
106,1.72
107,1.72
108,1.72
109,1.72
110,1.72
111,1.72
112,1.72
113,1.62
114,1.53
115,1.43
117,1.39
118,1.39
119,1.39
120,1.39
121,1.39
123,1.24
124,1.07
125,1.07
126,1.07
128,1.07
129,1.07
130,1.02
131,0.93
133,0.76
134,0.75
135,0.75
137,0.75
138,0.67
140,0.50
141,0.42
142,0.42
144,0.42
145,0.42
147,0.42
148,0.36
150,0.21
151,0.14
153,0.10
154,0.10
156,0.10
157,0.10
159,0.04
160,-0.03
162,-0.17
164,-0.23
165,-0.23
167,-0.23
169,-0.23
170,-0.23
172,-0.23
174,-0.33
175,-0.40
177,-0.52
179,-0.55
181,-0.55
183,-0.55
184,-0.55
186,-0.55
188,-0.56
190,-0.68
192,-0.79
194,-0.88
196,-0.88
198,-0.88
200,-0.88
202,-0.88
204,-0.88
206,-0.88
208,-0.88
210,-0.88
212,-0.94
214,-1.05
216,-1.15
218,-1.20
221,-1.20
223,-1.20
225,-1.20
227,-1.20
229,-1.20
232,-1.20
234,-1.24
236,-1.34
239,-1.36
241,-1.41
244,-1.52
246,-1.52
248,-1.52
251,-1.52
253,-1.52
256,-1.52
259,-1.58
261,-1.67
264,-1.79
266,-1.85
269,-1.85
272,-1.85
274,-1.85
277,-1.85
280,-2.10
283,-2.17
286,-2.17
288,-2.17
291,-2.17
294,-2.20
297,-2.31
300,-2.43
303,-2.50
306,-2.50
309,-2.50
312,-2.50
316,-2.50
319,-2.50
322,-2.50
325,-2.52
328,-2.62
332,-2.76
335,-2.82
338,-2.82
342,-2.82
345,-2.82
349,-2.82
352,-2.82
356,-2.82
359,-2.82
363,-2.82
366,-2.82
370,-2.82
374,-2.82
377,-2.82
381,-2.82
385,-2.82
389,-2.82
393,-2.82
397,-2.82
401,-2.82
405,-2.82
409,-2.82
413,-2.82
417,-2.82
421,-2.85
425,-2.95
430,-3.09
434,-3.15
438,-3.15
443,-3.15
447,-3.15
451,-3.15
456,-3.26
460,-3.36
465,-3.47
470,-3.47
474,-3.47
479,-3.49
484,-3.61
489,-3.73
494,-3.79
499,-3.79
504,-3.79
509,-3.86
514,-3.95
519,-3.84
524,-3.86
529,-3.95
535,-3.82
540,-3.79
545,-3.79
551,-3.79
556,-3.62
562,-3.47
568,-3.47
573,-3.37
579,-3.25
585,-3.12
591,-2.89
596,-2.82
602,-2.81
608,-2.70
615,-2.57
621,-2.50
627,-2.50
633,-2.41
639,-2.30
646,-2.18
652,-2.17
659,-2.17
665,-2.17
672,-2.17
679,-2.17
686,-2.17
692,-2.17
699,-2.17
706,-2.20
713,-2.31
721,-2.34
728,-2.38
735,-2.49
742,-2.50
750,-2.50
757,-2.50
765,-2.50
773,-2.50
780,-2.50
788,-2.50
796,-2.41
804,-2.30
812,-2.19
820,-2.17
828,-2.17
837,-2.17
845,-1.95
853,-1.85
862,-1.83
871,-1.59
879,-1.52
888,-1.48
897,-1.25
906,-1.20
915,-1.13
924,-0.91
933,-0.78
943,-0.66
952,-0.56
962,-0.55
971,-0.44
981,-0.22
991,-0.10
1001,0.01
1011,0.12
1021,0.23
1031,0.34
1041,0.45
1052,0.57
1062,0.68
1073,0.80
1084,0.91
1094,1.01
1105,1.07
1116,1.08
1128,1.33
1139,1.39
1150,1.39
1162,1.39
1173,1.48
1185,1.59
1197,1.71
1209,1.72
1221,1.72
1233,1.72
1246,1.83
1258,1.88
1271,1.90
1283,2.00
1296,2.04
1309,2.02
1322,1.91
1335,1.88
1349,1.84
1362,1.73
1376,1.72
1390,1.72
1404,1.71
1418,1.49
1432,1.39
1446,1.37
1461,1.13
1475,1.07
1490,1.02
1505,0.79
1520,0.66
1535,0.51
1550,0.29
1566,0.05
1582,-0.12
1597,-0.23
1613,-0.45
1629,-0.67
1646,-0.91
1662,-1.13
1679,-1.36
1696,-1.58
1713,-1.81
1730,-2.13
1747,-2.42
1764,-2.63
1782,-2.86
1800,-3.09
1818,-3.32
1836,-3.54
1854,-3.76
1873,-3.99
1892,-4.22
1911,-4.36
1930,-4.50
1949,-4.73
1969,-4.96
1988,-5.17
2008,-5.40
2028,-5.62
2048,-5.84
2069,-6.07
2090,-6.18
2111,-6.37
2132,-6.57
2153,-6.68
2175,-6.88
2196,-7.07
2218,-7.18
2240,-7.29
2263,-7.45
2285,-7.67
2308,-7.79
2331,-7.90
2355,-8.03
2378,-8.24
2402,-8.34
2426,-8.37
2450,-8.59
2475,-8.66
2500,-8.69
2525,-8.81
2550,-8.92
2575,-8.98
2601,-8.98
2627,-9.09
2653,-9.20
2680,-9.31
2707,-9.31
2734,-9.38
2761,-9.49
2789,-9.60
2817,-9.72
2845,-9.83
2873,-9.94
2902,-9.96
2931,-10.05
2960,-10.27
2990,-10.39
3020,-10.50
3050,-10.62
3080,-10.84
3111,-11.07
3142,-11.29
3174,-11.52
3206,-11.75
3238,-12.01
3270,-12.34
3303,-12.58
3336,-12.81
3369,-13.03
3403,-13.48
3437,-13.81
3471,-14.04
3506,-14.38
3541,-14.71
3576,-15.07
3612,-15.52
3648,-15.97
3685,-16.39
3721,-16.72
3759,-17.16
3796,-17.60
3834,-18.05
3873,-18.51
3911,-18.89
3950,-19.23
3990,-19.57
4030,-19.91
4070,-20.20
4111,-20.31
4152,-20.51
4193,-20.66
4235,-20.66
4278,-20.66
4321,-20.66
4364,-20.66
4407,-20.44
4451,-20.22
4496,-19.98
4541,-19.64
4586,-19.16
4632,-18.62
4679,-18.16
4725,-17.63
4773,-17.06
4820,-16.51
4868,-16.15
4917,-15.86
4966,-15.63
5016,-15.30
5066,-15.02
5117,-14.81
5168,-14.70
5220,-14.58
5272,-14.45
5325,-14.22
5378,-14.17
5432,-14.13
5486,-14.02
5541,-14.01
5596,-14.01
5652,-14.01
5709,-14.13
5766,-14.17
5823,-14.19
5882,-14.30
5940,-14.41
6000,-14.50
6060,-14.50
6120,-14.50
6182,-14.50
6244,-14.50
6306,-14.50
6369,-14.50
6433,-14.49
6497,-14.38
6562,-14.27
6628,-14.16
6694,-14.05
6761,-13.93
6828,-13.82
6897,-13.71
6966,-13.51
7035,-13.28
7106,-13.06
7177,-12.83
7249,-12.61
7321,-12.38
7394,-11.93
7468,-11.54
7543,-11.21
7618,-10.87
7694,-10.46
7771,-10.01
7849,-9.55
7928,-9.19
8007,-8.86
8087,-8.52
8168,-8.29
8250,-8.01
8332,-7.68
8415,-7.57
8499,-7.46
8584,-7.36
8670,-7.36
8757,-7.36
8845,-7.36
8933,-7.36
9022,-7.36
9113,-7.36
9204,-7.36
9296,-7.36
9389,-7.42
9483,-7.53
9577,-7.64
9673,-7.89
9770,-8.21
9868,-8.44
9966,-8.74
10066,-9.14
10167,-9.70
10268,-10.26
10371,-10.78
10475,-11.23
10579,-11.57
10685,-11.91
10792,-12.24
10900,-12.47
11009,-12.69
11119,-12.92
11230,-13.14
11343,-13.45
11456,-13.75
11571,-13.98
11686,-14.20
11803,-14.38
11921,-14.49
12040,-14.71
12161,-14.88
12282,-14.99
12405,-15.10
12529,-15.29
12655,-15.51
12781,-15.74
12909,-15.79
13038,-15.86
13168,-16.09
13300,-16.12
13433,-16.12
13567,-16.12
13703,-16.23
13840,-16.28
13978,-16.29
14118,-16.40
14259,-16.44
14402,-16.47
14546,-16.58
14692,-16.78
14838,-16.96
14987,-17.08
15137,-17.29
15288,-17.46
15441,-17.58
15595,-17.69
15751,-17.86
15909,-18.08
16068,-18.19
16229,-18.37
16391,-18.57
16555,-18.69
16720,-18.88
16888,-19.07
17056,-19.19
17227,-19.30
17399,-19.46
17573,-19.68
17749,-19.69
17926,-19.69
18106,-19.71
18287,-19.93
18470,-20.01
18654,-20.04
18841,-20.15
19029,-20.26
19220,-20.34
19412,-20.34
19606,-20.53
19802,-20.76
20000,-20.98
