frequency,raw
20,-14.40
21,-13.31
22,-12.38
23,-11.48
24,-10.54
25,-9.67
26,-8.79
27,-8.06
28,-7.38
29,-6.72
30,-6.11
31,-5.68
32,-5.38
33,-5.20
34,-5.14
35,-5.19
36,-5.32
37,-5.44
38,-5.37
39,-4.89
40,-3.99
41,-2.87
42,-1.64
43,-0.49
44,0.61
45,1.66
46,2.54
47,3.43
48,4.20
49,4.94
50,5.62
51,6.28
52,6.87
53,7.44
54,8.00
55,8.53
56,9.04
57,9.53
58,10.02
59,10.30
60,10.54
61,10.77
62,11.00
63,11.15
64,11.35
65,11.46
66,11.55
67,11.63
68,11.65
69,11.62
70,11.59
71,11.43
72,11.37
73,11.18
74,11.03
75,10.87
76,10.69
77,10.49
78,10.34
79,10.13
80,9.93
81,9.78
82,9.58
83,9.41
84,9.28
85,9.11
86,8.94
87,8.76
88,8.61
89,8.45
90,8.32
91,8.15
92,7.98
93,7.81
94,7.63
95,7.46
96,7.32
97,7.20
98,7.05
99,6.88
100,6.74
101,6.63
102,6.50
104,6.30
105,6.18
106,6.08
107,5.99
108,5.88
109,5.78
110,5.71
111,5.63
112,5.52
113,5.43
114,5.34
115,5.24
117,5.09
118,4.99
119,4.88
120,4.80
121,4.68
123,4.52
124,4.40
125,4.32
126,4.19
128,4.02
129,3.90
130,3.77
131,3.64
133,3.48
134,3.36
135,3.23
137,3.01
138,2.87
140,2.71
141,2.61
142,2.49
144,2.28
145,2.21
147,2.03
148,1.97
150,1.81
151,1.74
153,1.62
154,1.58
156,1.54
157,1.50
159,1.46
160,1.42
162,1.38
164,1.34
165,1.31
167,1.27
169,1.25
170,1.27
172,1.23
174,1.22
175,1.23
177,1.19
179,1.16
181,1.15
183,1.13
184,1.10
186,1.07
188,1.05
190,1.02
192,1.03
194,1.04
196,1.01
198,0.98
200,0.95
202,0.92
204,0.89
206,0.87
208,0.84
210,0.82
212,0.81
214,0.77
216,0.72
218,0.69
221,0.64
223,0.63
225,0.58
227,0.54
229,0.49
232,0.47
234,0.46
236,0.44
239,0.43
241,0.40
244,0.32
246,0.28
248,0.26
251,0.26
253,0.26
256,0.26
259,0.23
261,0.20
264,0.19
266,0.19
269,0.19
272,0.19
274,0.19
277,0.19
280,0.19
283,0.17
286,0.16
288,0.16
291,0.16
294,0.15
297,0.15
300,0.15
303,0.15
306,0.17
309,0.18
312,0.21
316,0.23
319,0.25
322,0.25
325,0.26
328,0.30
332,0.31
335,0.32
338,0.32
342,0.35
345,0.43
349,0.47
352,0.47
356,0.46
359,0.46
363,0.49
366,0.49
370,0.49
374,0.49
377,0.49
381,0.46
385,0.43
389,0.39
393,0.36
397,0.28
401,0.24
405,0.15
409,0.10
413,0.07
417,-0.05
421,-0.12
425,-0.20
430,-0.28
434,-0.36
438,-0.45
443,-0.54
447,-0.61
451,-0.67
456,-0.75
460,-0.82
465,-0.89
470,-0.92
474,-0.99
479,-1.05
484,-1.14
489,-1.19
494,-1.22
499,-1.27
504,-1.31
509,-1.38
514,-1.43
519,-1.48
524,-1.52
529,-1.57
535,-1.61
540,-1.63
545,-1.68
551,-1.71
556,-1.78
562,-1.81
568,-1.90
573,-1.91
579,-1.91
585,-1.99
591,-2.01
596,-2.06
602,-2.03
608,-2.05
615,-2.07
621,-2.12
627,-2.16
633,-2.16
639,-2.20
646,-2.21
652,-2.25
659,-2.28
665,-2.27
672,-2.31
679,-2.31
686,-2.35
692,-2.33
699,-2.41
706,-2.39
713,-2.39
721,-2.43
728,-2.46
735,-2.48
742,-2.49
750,-2.52
757,-2.52
765,-2.55
773,-2.59
780,-2.60
788,-2.60
796,-2.67
804,-2.66
812,-2.56
820,-2.47
828,-2.31
837,-2.10
845,-1.95
853,-1.79
862,-1.63
871,-1.45
879,-1.33
888,-1.20
897,-1.15
906,-1.06
915,-0.92
924,-0.89
933,-0.79
943,-0.69
952,-0.59
962,-0.47
971,-0.35
981,-0.26
991,-0.13
1001,0.01
1011,0.12
1021,0.27
1031,0.36
1041,0.49
1052,0.65
1062,0.77
1073,0.95
1084,1.08
1094,1.24
1105,1.40
1116,1.51
1128,1.62
1139,1.74
1150,1.86
1162,1.97
1173,2.03
1185,2.13
1197,2.21
1209,2.30
1221,2.35
1233,2.39
1246,2.45
1258,2.52
1271,2.56
1283,2.59
1296,2.63
1309,2.66
1322,2.71
1335,2.76
1349,2.80
1362,2.84
1376,2.91
1390,2.96
1404,3.00
1418,3.03
1432,3.07
1446,3.11
1461,3.15
1475,3.19
1490,3.23
1505,3.27
1520,3.31
1535,3.36
1550,3.43
1566,3.48
1582,3.55
1597,3.59
1613,3.64
1629,3.72
1646,3.81
1662,3.92
1679,3.97
1696,4.02
1713,4.07
1730,4.19
1747,4.28
1764,4.36
1782,4.44
1800,4.53
1818,4.60
1836,4.71
1854,4.83
1873,4.90
1892,4.96
1911,5.06
1930,5.21
1949,5.29
1969,5.41
1988,5.50
2008,5.66
2028,5.75
2048,5.84
2069,5.99
2090,6.14
2111,6.25
2132,6.35
2153,6.45
2175,6.57
2196,6.66
2218,6.73
2240,6.83
2263,6.93
2285,7.01
2308,7.11
2331,7.28
2355,7.39
2378,7.52
2402,7.72
2426,7.92
2450,8.05
2475,8.27
2500,8.48
2525,8.69
2550,8.88
2575,9.02
2601,9.16
2627,9.29
2653,9.41
2680,9.45
2707,9.52
2734,9.52
2761,9.55
2789,9.57
2817,9.56
2845,9.59
2873,9.59
2902,9.57
2931,9.55
2960,9.56
2990,9.51
3020,9.42
3050,9.34
3080,9.24
3111,9.04
3142,8.83
3174,8.55
3206,8.28
3238,8.01
3270,7.74
3303,7.46
3336,7.21
3369,7.00
3403,6.78
3437,6.57
3471,6.35
3506,6.11
3541,5.85
3576,5.62
3612,5.34
3648,5.06
3685,4.79
3721,4.60
3759,4.40
3796,4.26
3834,4.15
3873,4.06
3911,4.02
3950,3.96
3990,3.95
4030,3.91
4070,3.86
4111,3.80
4152,3.74
4193,3.68
4235,3.62
4278,3.49
4321,3.47
4364,3.37
4407,3.25
4451,3.15
4496,3.02
4541,2.88
4586,2.72
4632,2.58
4679,2.45
4725,2.27
4773,2.13
4820,2.03
4868,1.92
4917,1.78
4966,1.69
5016,1.61
5066,1.58
5117,1.57
5168,1.59
5220,1.61
5272,1.64
5325,1.71
5378,1.74
5432,1.77
5486,1.75
5541,1.70
5596,1.60
5652,1.49
5709,1.38
5766,1.23
5823,1.08
5882,0.94
5940,0.80
6000,0.67
6060,0.51
6120,0.35
6182,0.14
6244,-0.07
6306,-0.33
6369,-0.64
6433,-0.96
6497,-1.31
6562,-1.71
6628,-2.12
6694,-2.52
6761,-2.96
6828,-3.35
6897,-3.75
6966,-4.07
7035,-4.44
7106,-4.72
7177,-4.90
7249,-5.03
7321,-5.10
7394,-5.14
7468,-5.11
7543,-5.04
7618,-4.96
7694,-4.84
7771,-4.67
7849,-4.43
7928,-4.16
8007,-3.90
8087,-3.65
8168,-3.34
8250,-3.06
8332,-2.73
8415,-2.37
8499,-1.95
8584,-1.48
8670,-0.93
8757,-0.28
8845,0.57
8933,1.56
9022,2.59
9113,3.47
9204,3.77
9296,3.85
9389,3.83
9483,3.70
9577,3.54
9673,3.21
9770,2.76
9868,2.19
9966,1.55
10066,0.84
10167,-0.18
10268,-1.19
10371,-2.17
10475,-3.22
10579,-4.24
10685,-5.23
10792,-6.25
10900,-7.18
11009,-8.13
11119,-9.01
11230,-9.75
11343,-10.44
11456,-11.19
11571,-12.03
11686,-12.68
11803,-12.96
11921,-12.92
12040,-12.61
12161,-12.06
12282,-11.67
12405,-11.56
12529,-11.56
12655,-11.70
12781,-11.88
12909,-12.03
13038,-12.13
13168,-12.14
13300,-12.08
13433,-11.98
13567,-11.88
13703,-11.87
13840,-11.88
13978,-11.86
14118,-11.73
14259,-11.39
14402,-11.01
14546,-10.45
14692,-9.66
14838,-8.73
14987,-7.57
15137,-6.38
15288,-5.03
15441,-3.79
15595,-2.64
15751,-1.72
15909,-1.23
16068,-1.02
16229,-0.96
16391,-1.33
16555,-1.85
16720,-2.73
16888,-3.55
17056,-4.54
17227,-5.54
17399,-6.50
17573,-7.37
17749,-8.18
17926,-8.88
18106,-9.52
18287,-10.06
18470,-10.49
18654,-10.84
18841,-11.07
19029,-11.23
19220,-11.34
19412,-11.35
19606,-11.34
19802,-11.26
20000,-11.16
