frequency,raw,error,smoothed,error_smoothed,equalization,parametric_eq,fixed_band_eq,equalized_raw,equalized_smoothed,target
20.00,-2.63,-10.44,-2.64,-10.45,6.00,6.04,2.69,3.37,3.36,7.81
20.20,-2.61,-10.42,-2.61,-10.41,6.00,6.04,2.77,3.39,3.39,7.81
20.40,-2.58,-10.39,-2.57,-10.38,6.00,6.04,2.84,3.42,3.43,7.81
20.61,-2.52,-10.33,-2.53,-10.33,6.00,6.04,2.92,3.48,3.47,7.81
20.81,-2.47,-10.28,-2.47,-10.28,6.00,6.04,3.01,3.53,3.53,7.81
21.02,-2.42,-10.23,-2.42,-10.23,6.00,6.04,3.09,3.58,3.58,7.80
21.23,-2.37,-10.18,-2.38,-10.18,6.00,6.04,3.18,3.63,3.62,7.80
21.44,-2.33,-10.13,-2.33,-10.13,6.00,6.04,3.27,3.67,3.67,7.80
21.66,-2.28,-10.08,-2.28,-10.08,6.00,6.03,3.36,3.72,3.72,7.80
21.87,-2.23,-10.03,-2.23,-10.03,6.00,6.03,3.46,3.77,3.77,7.80
22.09,-2.17,-9.97,-2.18,-9.98,6.00,6.03,3.56,3.83,3.82,7.80
22.31,-2.13,-9.93,-2.13,-9.93,6.00,6.03,3.66,3.87,3.87,7.80
22.54,-2.08,-9.88,-2.08,-9.88,6.00,6.03,3.76,3.92,3.92,7.80
22.76,-2.03,-9.83,-2.03,-9.83,6.00,6.03,3.87,3.97,3.97,7.80
22.99,-1.98,-9.78,-1.98,-9.78,6.00,6.03,3.98,4.02,4.02,7.79
23.22,-1.94,-9.74,-1.94,-9.73,6.00,6.03,4.09,4.06,4.06,7.79
23.45,-1.89,-9.68,-1.90,-9.69,6.00,6.02,4.20,4.11,4.10,7.79
23.69,-1.85,-9.64,-1.85,-9.64,6.00,6.02,4.32,4.15,4.15,7.79
23.92,-1.81,-9.60,-1.81,-9.60,6.00,6.02,4.44,4.19,4.19,7.79
24.16,-1.76,-9.55,-1.76,-9.55,6.00,6.02,4.56,4.24,4.24,7.79
24.40,-1.71,-9.50,-1.71,-9.50,6.00,6.02,4.68,4.29,4.29,7.79
24.65,-1.66,-9.45,-1.67,-9.45,6.00,6.02,4.81,4.34,4.33,7.78
24.89,-1.63,-9.41,-1.63,-9.41,6.00,6.01,4.94,4.37,4.37,7.78
25.14,-1.58,-9.36,-1.58,-9.36,6.00,6.01,5.07,4.42,4.42,7.78
25.39,-1.53,-9.31,-1.54,-9.32,6.00,6.01,5.20,4.47,4.46,7.78
25.65,-1.48,-9.26,-1.49,-9.26,6.00,6.01,5.33,4.52,4.51,7.78
25.91,-1.45,-9.23,-1.44,-9.22,6.00,6.01,5.46,4.55,4.56,7.78
26.16,-1.39,-9.17,-1.40,-9.18,6.00,6.01,5.59,4.61,4.60,7.77
26.43,-1.37,-9.14,-1.36,-9.13,6.00,6.00,5.72,4.63,4.64,7.77
26.69,-1.31,-9.08,-1.32,-9.09,6.00,6.00,5.85,4.69,4.68,7.77
26.96,-1.28,-9.05,-1.28,-9.05,6.00,6.00,5.98,4.72,4.72,7.77
27.23,-1.24,-9.01,-1.24,-9.01,6.00,6.00,6.10,4.76,4.76,7.77
27.50,-1.20,-8.97,-1.21,-8.97,6.00,6.00,6.23,4.80,4.79,7.76
27.77,-1.17,-8.93,-1.16,-8.93,6.00,6.00,6.35,4.83,4.84,7.76
28.05,-1.12,-8.88,-1.13,-8.89,6.00,5.99,6.46,4.88,4.87,7.76
28.33,-1.09,-8.85,-1.09,-8.85,6.00,5.99,6.57,4.91,4.91,7.76
28.62,-1.06,-8.82,-1.06,-8.81,6.00,5.99,6.68,4.94,4.94,7.75
28.90,-1.03,-8.78,-1.03,-8.78,6.00,5.99,6.78,4.97,4.97,7.75
29.19,-0.98,-8.73,-0.99,-8.74,6.00,5.99,6.87,5.02,5.01,7.75
29.48,-0.95,-8.70,-0.95,-8.70,6.00,5.98,6.95,5.05,5.05,7.74
29.78,-0.92,-8.66,-0.92,-8.66,6.00,5.98,7.03,5.08,5.08,7.74
30.08,-0.88,-8.62,-0.88,-8.62,6.00,5.98,7.10,5.12,5.12,7.74
30.38,-0.84,-8.58,-0.85,-8.58,6.00,5.98,7.16,5.16,5.15,7.73
30.68,-0.81,-8.54,-0.81,-8.54,6.00,5.98,7.20,5.19,5.19,7.73
30.99,-0.77,-8.50,-0.77,-8.50,6.00,5.97,7.24,5.23,5.23,7.73
31.30,-0.73,-8.46,-0.74,-8.46,6.00,5.97,7.27,5.27,5.26,7.72
31.61,-0.70,-8.42,-0.70,-8.42,6.00,5.97,7.29,5.30,5.30,7.72
31.93,-0.66,-8.38,-0.66,-8.38,6.00,5.97,7.29,5.34,5.34,7.72
32.24,-0.62,-8.33,-0.63,-8.34,6.00,5.97,7.29,5.38,5.37,7.71
32.57,-0.59,-8.30,-0.59,-8.29,6.00,5.96,7.28,5.41,5.41,7.71
32.89,-0.55,-8.25,-0.55,-8.25,6.00,5.96,7.26,5.45,5.45,7.70
33.22,-0.50,-8.20,-0.51,-8.21,6.00,5.96,7.23,5.50,5.49,7.70
33.55,-0.47,-8.16,-0.47,-8.17,6.00,5.96,7.19,5.53,5.53,7.69
33.89,-0.44,-8.13,-0.44,-8.12,6.00,5.96,7.15,5.56,5.56,7.69
34.23,-0.40,-8.09,-0.40,-8.09,6.00,5.95,7.10,5.60,5.60,7.68
34.57,-0.36,-8.04,-0.36,-8.04,6.00,5.95,7.04,5.64,5.64,7.68
34.92,-0.33,-8.00,-0.33,-8.00,6.00,5.95,6.98,5.67,5.67,7.67
35.27,-0.29,-7.96,-0.30,-7.96,6.00,5.95,6.91,5.71,5.70,7.67
35.62,-0.27,-7.93,-0.27,-7.93,6.00,5.95,6.85,5.73,5.73,7.66
35.97,-0.23,-7.89,-0.23,-7.88,6.00,5.94,6.77,5.77,5.77,7.65
36.33,-0.19,-7.84,-0.20,-7.84,6.00,5.94,6.70,5.81,5.80,7.65
36.70,-0.16,-7.80,-0.16,-7.80,6.00,5.94,6.63,5.84,5.84,7.64
37.06,-0.13,-7.76,-0.13,-7.76,6.00,5.94,6.55,5.87,5.87,7.63
37.43,-0.10,-7.73,-0.10,-7.72,6.00,5.94,6.48,5.90,5.90,7.63
37.81,-0.05,-7.67,-0.07,-7.68,6.00,5.94,6.41,5.95,5.93,7.62
38.19,-0.04,-7.65,-0.04,-7.65,6.00,5.93,6.33,5.96,5.96,7.61
38.57,-0.01,-7.61,-0.01,-7.61,6.00,5.93,6.26,5.99,5.99,7.60
38.95,0.03,-7.57,0.02,-7.58,6.00,5.93,6.19,6.03,6.02,7.59
39.34,0.05,-7.54,0.05,-7.53,6.00,5.93,6.13,6.05,6.05,7.58
39.74,0.08,-7.50,0.08,-7.49,6.00,5.93,6.07,6.08,6.08,7.58
40.14,0.12,-7.45,0.11,-7.46,6.00,5.93,6.01,6.12,6.11,7.57
40.54,0.14,-7.42,0.14,-7.42,6.00,5.93,5.95,6.14,6.14,7.56
40.94,0.16,-7.39,0.16,-7.39,6.00,5.93,5.90,6.16,6.16,7.55
41.35,0.18,-7.36,0.18,-7.35,6.00,5.93,5.85,6.18,6.18,7.54
41.76,0.21,-7.32,0.20,-7.32,6.00,5.93,5.80,6.21,6.20,7.53
42.18,0.23,-7.29,0.23,-7.29,6.00,5.93,5.76,6.23,6.23,7.51
42.60,0.25,-7.25,0.25,-7.25,6.00,5.93,5.72,6.25,6.25,7.50
43.03,0.27,-7.22,0.27,-7.22,6.00,5.94,5.69,6.27,6.27,7.49
43.46,0.29,-7.19,0.29,-7.19,6.00,5.94,5.66,6.29,6.29,7.48
43.90,0.31,-7.16,0.31,-7.16,6.00,5.94,5.63,6.31,6.31,7.46
44.33,0.34,-7.11,0.33,-7.12,6.00,5.94,5.61,6.34,6.33,7.45
44.78,0.35,-7.09,0.36,-7.08,6.00,5.95,5.60,6.35,6.36,7.44
45.23,0.38,-7.05,0.38,-7.05,6.00,5.95,5.59,6.38,6.38,7.42
45.68,0.41,-7.00,0.40,-7.01,6.00,5.96,5.58,6.41,6.40,7.41
46.13,0.42,-6.98,0.42,-6.97,6.00,5.96,5.58,6.42,6.42,7.39
46.60,0.45,-6.93,0.45,-6.93,6.00,5.97,5.58,6.45,6.45,7.38
47.06,0.47,-6.89,0.47,-6.89,6.00,5.97,5.58,6.47,6.47,7.36
47.53,0.50,-6.85,0.49,-6.85,6.00,5.98,5.59,6.50,6.49,7.34
48.01,0.51,-6.82,0.51,-6.81,6.00,5.99,5.60,6.51,6.51,7.33
48.49,0.54,-6.77,0.53,-6.77,6.00,5.99,5.62,6.54,6.53,7.31
48.97,0.55,-6.74,0.55,-6.73,6.00,6.00,5.64,6.55,6.55,7.29
49.46,0.58,-6.69,0.57,-6.70,6.00,6.01,5.66,6.58,6.57,7.27
49.96,0.60,-6.65,0.59,-6.66,6.00,6.02,5.68,6.60,6.59,7.25
50.46,0.60,-6.63,0.61,-6.62,6.00,6.03,5.71,6.60,6.61,7.23
50.96,0.64,-6.57,0.63,-6.58,6.00,6.04,5.74,6.64,6.63,7.21
51.47,0.64,-6.55,0.64,-6.54,6.00,6.05,5.77,6.64,6.64,7.19
51.99,0.68,-6.48,0.67,-6.49,6.00,6.06,5.81,6.68,6.67,7.16
52.51,0.68,-6.46,0.69,-6.45,6.00,6.06,5.84,6.68,6.69,7.14
53.03,0.73,-6.39,0.71,-6.40,6.00,6.07,5.88,6.73,6.71,7.11
53.56,0.73,-6.36,0.73,-6.36,6.00,6.08,5.91,6.73,6.73,7.09
54.10,0.73,-6.34,0.74,-6.32,6.00,6.08,5.95,6.73,6.74,7.06
54.64,0.77,-6.27,0.76,-6.28,6.00,6.09,5.98,6.77,6.76,7.04
55.18,0.77,-6.24,0.78,-6.23,6.01,6.09,6.01,6.78,6.79,7.01
55.74,0.81,-6.17,0.79,-6.19,6.01,6.08,6.04,6.82,6.80,6.98
56.29,0.81,-6.14,0.81,-6.14,6.01,6.08,6.07,6.82,6.82,6.95
56.86,0.81,-6.11,0.83,-6.09,6.00,6.07,6.10,6.81,6.83,6.92
57.42,0.86,-6.03,0.84,-6.05,5.99,6.06,6.12,6.85,6.83,6.89
58.00,0.86,-6.00,0.86,-6.00,5.97,6.04,6.13,6.83,6.83,6.86
58.58,0.86,-5.97,0.88,-5.95,5.94,6.02,6.14,6.80,6.82,6.82
59.16,0.90,-5.89,0.88,-5.91,5.91,5.99,6.15,6.80,6.79,6.79
59.76,0.90,-5.86,0.90,-5.86,5.86,5.96,6.15,6.76,6.76,6.75
60.35,0.90,-5.82,0.91,-5.80,5.82,5.92,6.14,6.71,6.73,6.72
60.96,0.94,-5.74,0.92,-5.76,5.76,5.88,6.13,6.70,6.68,6.68
61.57,0.94,-5.71,0.94,-5.71,5.71,5.83,6.11,6.64,6.64,6.64
62.18,0.94,-5.67,0.96,-5.65,5.65,5.78,6.08,6.59,6.61,6.60
62.80,0.99,-5.58,0.97,-5.59,5.59,5.73,6.04,6.58,6.56,6.56
63.43,0.99,-5.54,0.98,-5.54,5.54,5.67,6.00,6.53,6.52,6.52
64.07,0.99,-5.49,1.00,-5.48,5.49,5.61,5.95,6.47,6.49,6.48
64.71,1.01,-5.43,1.01,-5.43,5.43,5.54,5.89,6.44,6.44,6.44
65.35,1.03,-5.36,1.02,-5.37,5.38,5.48,5.82,6.40,6.39,6.39
66.01,1.03,-5.32,1.03,-5.32,5.32,5.41,5.75,6.35,6.35,6.35
66.67,1.03,-5.27,1.03,-5.27,5.26,5.34,5.67,6.29,6.30,6.30
67.33,1.04,-5.21,1.04,-5.21,5.20,5.26,5.58,6.24,6.25,6.25
68.01,1.07,-5.14,1.05,-5.15,5.14,5.19,5.49,6.21,6.20,6.20
68.69,1.07,-5.08,1.07,-5.09,5.08,5.11,5.39,6.15,6.15,6.15
69.37,1.07,-5.03,1.08,-5.02,5.02,5.04,5.29,6.09,6.10,6.10
70.07,1.10,-4.95,1.09,-4.95,4.96,4.96,5.19,6.05,6.05,6.05
70.77,1.12,-4.88,1.11,-4.89,4.89,4.88,5.08,6.01,6.00,5.99
71.48,1.12,-4.82,1.12,-4.82,4.83,4.81,4.97,5.94,5.94,5.94
72.19,1.12,-4.77,1.12,-4.76,4.76,4.73,4.85,5.88,5.88,5.88
72.91,1.12,-4.71,1.13,-4.70,4.69,4.65,4.74,5.81,5.82,5.83
73.64,1.16,-4.61,1.14,-4.62,4.62,4.57,4.62,5.78,5.77,5.77
74.38,1.16,-4.55,1.15,-4.56,4.56,4.49,4.50,5.71,5.71,5.71
75.12,1.16,-4.49,1.16,-4.48,4.49,4.42,4.38,5.64,5.65,5.65
75.87,1.16,-4.43,1.17,-4.41,4.41,4.34,4.26,5.57,5.58,5.59
76.63,1.20,-4.32,1.18,-4.34,4.34,4.26,4.14,5.54,5.52,5.52
77.40,1.20,-4.26,1.19,-4.27,4.26,4.18,4.02,5.46,5.45,5.46
78.17,1.20,-4.20,1.20,-4.19,4.19,4.11,3.90,5.39,5.39,5.39
78.95,1.20,-4.13,1.21,-4.11,4.11,4.03,3.78,5.31,5.32,5.33
79.74,1.25,-4.01,1.23,-4.03,4.03,3.95,3.67,5.28,5.26,5.26
80.54,1.25,-3.94,1.24,-3.95,3.95,3.87,3.55,5.20,5.19,5.19
81.35,1.25,-3.87,1.25,-3.87,3.87,3.79,3.44,5.12,5.12,5.12
82.16,1.25,-3.80,1.26,-3.80,3.79,3.71,3.32,5.04,5.05,5.05
82.98,1.27,-3.71,1.27,-3.71,3.71,3.64,3.21,4.98,4.98,4.98
83.81,1.29,-3.62,1.28,-3.63,3.63,3.56,3.10,4.92,4.91,4.91
84.65,1.29,-3.55,1.29,-3.54,3.55,3.48,3.00,4.84,4.84,4.83
85.50,1.29,-3.47,1.29,-3.47,3.47,3.40,2.89,4.76,4.75,4.76
86.35,1.29,-3.40,1.29,-3.39,3.39,3.32,2.79,4.67,4.68,4.68
87.22,1.29,-3.32,1.30,-3.31,3.30,3.24,2.68,4.59,4.60,4.61
88.09,1.33,-3.20,1.31,-3.22,3.22,3.16,2.58,4.55,4.53,4.53
88.97,1.33,-3.13,1.33,-3.13,3.14,3.08,2.49,4.46,4.46,4.45
89.86,1.33,-3.05,1.33,-3.04,3.05,3.00,2.39,4.38,4.38,4.37
90.76,1.33,-2.97,1.33,-2.97,2.96,2.91,2.30,4.29,4.29,4.30
91.66,1.33,-2.89,1.33,-2.89,2.87,2.83,2.20,4.20,4.20,4.22
92.58,1.34,-2.80,1.34,-2.79,2.78,2.75,2.11,4.12,4.13,4.13
93.51,1.36,-2.70,1.36,-2.70,2.70,2.67,2.02,4.05,4.05,4.05
94.44,1.38,-2.59,1.37,-2.60,2.61,2.59,1.94,3.99,3.98,3.97
95.39,1.38,-2.51,1.38,-2.51,2.52,2.50,1.85,3.90,3.90,3.89
96.34,1.38,-2.43,1.38,-2.43,2.44,2.42,1.77,3.81,3.82,3.81
97.30,1.38,-2.35,1.38,-2.35,2.35,2.34,1.69,3.73,3.73,3.72
98.28,1.38,-2.26,1.38,-2.26,2.26,2.26,1.61,3.64,3.64,3.64
99.26,1.38,-2.18,1.37,-2.18,2.17,2.17,1.53,3.55,3.54,3.56
100.25,1.38,-2.10,1.38,-2.09,2.08,2.09,1.45,3.46,3.46,3.47
101.25,1.38,-2.01,1.39,-2.00,1.99,2.00,1.38,3.37,3.39,3.39
102.27,1.42,-1.89,1.40,-1.90,1.91,1.92,1.30,3.32,3.31,3.30
103.29,1.42,-1.80,1.42,-1.80,1.82,1.84,1.23,3.23,3.23,3.22
104.32,1.42,-1.72,1.42,-1.71,1.73,1.75,1.16,3.14,3.15,3.14
105.37,1.42,-1.63,1.42,-1.63,1.64,1.67,1.09,3.05,3.05,3.05
106.42,1.42,-1.55,1.42,-1.55,1.55,1.59,1.02,2.96,2.96,2.97
107.48,1.42,-1.46,1.42,-1.46,1.46,1.50,0.95,2.87,2.88,2.88
108.56,1.42,-1.38,1.42,-1.37,1.37,1.42,0.89,2.79,2.79,2.80
109.64,1.44,-1.28,1.43,-1.28,1.28,1.33,0.82,2.72,2.71,2.71
110.74,1.44,-1.19,1.44,-1.19,1.19,1.25,0.76,2.63,2.63,2.63
111.85,1.44,-1.11,1.45,-1.10,1.11,1.17,0.70,2.54,2.55,2.55
112.97,1.46,-1.00,1.45,-1.01,1.02,1.08,0.64,2.47,2.47,2.46
114.10,1.46,-0.92,1.46,-0.92,0.93,1.00,0.58,2.39,2.38,2.38
115.24,1.46,-0.84,1.46,-0.84,0.84,0.92,0.52,2.30,2.30,2.30
116.39,1.46,-0.76,1.45,-0.76,0.75,0.84,0.46,2.21,2.20,2.21
117.55,1.46,-0.67,1.46,-0.67,0.66,0.75,0.41,2.12,2.12,2.13
118.73,1.46,-0.59,1.47,-0.58,0.57,0.67,0.36,2.03,2.05,2.05
119.92,1.51,-0.46,1.49,-0.48,0.48,0.59,0.30,1.99,1.97,1.97
121.12,1.51,-0.38,1.51,-0.39,0.40,0.51,0.25,1.90,1.90,1.89
122.33,1.51,-0.30,1.51,-0.30,0.31,0.43,0.20,1.82,1.82,1.81
123.55,1.51,-0.22,1.51,-0.22,0.23,0.35,0.15,1.73,1.73,1.73
124.79,1.51,-0.15,1.51,-0.15,0.14,0.27,0.10,1.65,1.65,1.65
126.03,1.51,-0.07,1.51,-0.07,0.07,0.19,0.06,1.57,1.57,1.58
127.29,1.51,0.01,1.51,0.01,-0.01,0.12,0.01,1.50,1.50,1.50
128.57,1.51,0.08,1.51,0.08,-0.08,0.04,-0.03,1.42,1.42,1.43
129.85,1.51,0.16,1.51,0.16,-0.16,-0.04,-0.08,1.35,1.35,1.35
131.15,1.51,0.23,1.51,0.23,-0.23,-0.11,-0.12,1.28,1.28,1.28
132.46,1.51,0.30,1.51,0.30,-0.30,-0.19,-0.16,1.20,1.20,1.20
133.79,1.51,0.38,1.51,0.38,-0.38,-0.26,-0.21,1.13,1.13,1.13
135.12,1.51,0.45,1.51,0.45,-0.45,-0.33,-0.25,1.06,1.06,1.06
136.48,1.51,0.52,1.51,0.52,-0.52,-0.41,-0.29,0.99,0.99,0.99
137.84,1.51,0.59,1.51,0.59,-0.59,-0.48,-0.33,0.92,0.92,0.92
139.22,1.51,0.65,1.51,0.65,-0.65,-0.55,-0.37,0.86,0.86,0.85
140.61,1.51,0.72,1.51,0.72,-0.72,-0.62,-0.41,0.79,0.79,0.79
142.02,1.51,0.79,1.51,0.79,-0.78,-0.69,-0.45,0.72,0.72,0.72
143.44,1.51,0.85,1.51,0.85,-0.85,-0.76,-0.49,0.66,0.66,0.66
144.87,1.51,0.91,1.51,0.91,-0.91,-0.82,-0.53,0.60,0.60,0.59
146.32,1.51,0.98,1.51,0.98,-0.98,-0.89,-0.57,0.53,0.53,0.53
147.78,1.51,1.04,1.51,1.03,-1.04,-0.96,-0.61,0.47,0.47,0.47
149.26,1.51,1.10,1.51,1.10,-1.10,-1.02,-0.65,0.41,0.41,0.41
150.75,1.51,1.16,1.51,1.16,-1.16,-1.08,-0.69,0.34,0.35,0.35
152.26,1.53,1.23,1.52,1.23,-1.22,-1.15,-0.73,0.30,0.30,0.30
153.78,1.53,1.29,1.53,1.29,-1.28,-1.21,-0.77,0.24,0.24,0.24
155.32,1.53,1.34,1.53,1.35,-1.34,-1.27,-0.81,0.19,0.19,0.18
156.88,1.53,1.40,1.53,1.40,-1.40,-1.33,-0.86,0.13,0.13,0.13
158.44,1.53,1.45,1.53,1.45,-1.46,-1.38,-0.90,0.07,0.07,0.08
160.03,1.53,1.50,1.53,1.51,-1.51,-1.44,-0.94,0.02,0.02,0.02
161.63,1.53,1.56,1.53,1.56,-1.56,-1.50,-0.99,-0.03,-0.03,-0.04
163.24,1.53,1.61,1.53,1.61,-1.61,-1.55,-1.04,-0.08,-0.08,-0.09
164.88,1.53,1.66,1.53,1.66,-1.66,-1.60,-1.08,-0.13,-0.13,-0.13
166.53,1.53,1.71,1.53,1.71,-1.71,-1.66,-1.13,-0.18,-0.18,-0.18
168.19,1.53,1.76,1.53,1.76,-1.76,-1.71,-1.18,-0.23,-0.23,-0.23
169.87,1.53,1.80,1.53,1.80,-1.80,-1.76,-1.23,-0.27,-0.27,-0.27
171.57,1.53,1.84,1.53,1.84,-1.84,-1.81,-1.28,-0.31,-0.31,-0.32
173.29,1.53,1.89,1.52,1.88,-1.88,-1.86,-1.34,-0.35,-0.36,-0.36
175.02,1.52,1.92,1.52,1.92,-1.92,-1.90,-1.39,-0.40,-0.40,-0.40
176.77,1.51,1.95,1.51,1.95,-1.96,-1.95,-1.45,-0.45,-0.44,-0.44
178.54,1.51,1.99,1.51,1.99,-1.99,-1.99,-1.50,-0.48,-0.49,-0.48
180.32,1.51,2.03,1.51,2.03,-2.03,-2.04,-1.56,-0.52,-0.52,-0.52
182.13,1.51,2.06,1.51,2.06,-2.06,-2.08,-1.62,-0.56,-0.56,-0.56
183.95,1.51,2.10,1.51,2.10,-2.10,-2.12,-1.68,-0.59,-0.59,-0.59
185.79,1.51,2.14,1.51,2.14,-2.13,-2.16,-1.74,-0.63,-0.63,-0.63
187.65,1.51,2.17,1.51,2.17,-2.17,-2.20,-1.80,-0.66,-0.66,-0.66
189.52,1.51,2.20,1.51,2.20,-2.20,-2.23,-1.87,-0.70,-0.70,-0.70
191.42,1.51,2.24,1.51,2.24,-2.24,-2.27,-1.93,-0.73,-0.73,-0.73
193.33,1.51,2.27,1.51,2.27,-2.27,-2.31,-2.00,-0.76,-0.76,-0.76
195.27,1.51,2.30,1.51,2.30,-2.30,-2.34,-2.06,-0.79,-0.79,-0.79
197.22,1.51,2.33,1.51,2.33,-2.33,-2.37,-2.13,-0.82,-0.82,-0.82
199.19,1.51,2.36,1.51,2.36,-2.36,-2.40,-2.20,-0.85,-0.85,-0.85
201.18,1.51,2.38,1.51,2.38,-2.39,-2.43,-2.27,-0.88,-0.88,-0.88
203.19,1.51,2.41,1.51,2.41,-2.41,-2.46,-2.33,-0.91,-0.91,-0.90
205.23,1.51,2.44,1.51,2.44,-2.44,-2.49,-2.40,-0.93,-0.93,-0.93
207.28,1.51,2.46,1.51,2.46,-2.46,-2.52,-2.47,-0.95,-0.95,-0.96
209.35,1.51,2.49,1.51,2.49,-2.48,-2.54,-2.54,-0.97,-0.97,-0.98
211.44,1.51,2.51,1.50,2.50,-2.49,-2.57,-2.61,-0.99,-0.99,-1.00
213.56,1.49,2.51,1.48,2.51,-2.51,-2.59,-2.67,-1.02,-1.03,-1.03
215.69,1.46,2.51,1.47,2.52,-2.53,-2.61,-2.74,-1.07,-1.06,-1.05
217.85,1.46,2.53,1.46,2.53,-2.54,-2.63,-2.80,-1.08,-1.08,-1.07
220.03,1.46,2.55,1.45,2.55,-2.55,-2.65,-2.86,-1.10,-1.10,-1.09
222.23,1.46,2.57,1.46,2.57,-2.57,-2.67,-2.92,-1.11,-1.11,-1.11
224.45,1.46,2.59,1.46,2.59,-2.59,-2.69,-2.98,-1.13,-1.13,-1.13
226.70,1.46,2.61,1.46,2.61,-2.61,-2.70,-3.03,-1.15,-1.15,-1.15
228.96,1.46,2.63,1.46,2.63,-2.63,-2.72,-3.09,-1.17,-1.17,-1.17
231.25,1.46,2.64,1.46,2.65,-2.64,-2.73,-3.13,-1.19,-1.18,-1.19
233.57,1.46,2.66,1.46,2.67,-2.66,-2.75,-3.18,-1.20,-1.20,-1.20
235.90,1.46,2.69,1.45,2.68,-2.67,-2.76,-3.22,-1.21,-1.22,-1.23
238.26,1.44,2.68,1.44,2.68,-2.68,-2.77,-3.25,-1.24,-1.24,-1.25
240.64,1.42,2.68,1.43,2.69,-2.69,-2.78,-3.28,-1.28,-1.27,-1.26
243.05,1.42,2.70,1.42,2.69,-2.71,-2.78,-3.31,-1.29,-1.29,-1.28
245.48,1.42,2.71,1.42,2.71,-2.72,-2.79,-3.33,-1.30,-1.30,-1.29
247.93,1.42,2.72,1.42,2.72,-2.72,-2.80,-3.35,-1.31,-1.31,-1.31
250.41,1.42,2.74,1.42,2.74,-2.73,-2.80,-3.35,-1.31,-1.31,-1.32
252.92,1.42,2.75,1.42,2.75,-2.74,-2.81,-3.36,-1.32,-1.32,-1.33
255.45,1.42,2.76,1.41,2.76,-2.75,-2.81,-3.36,-1.33,-1.34,-1.35
258.00,1.40,2.76,1.40,2.76,-2.76,-2.81,-3.36,-1.36,-1.36,-1.36
260.58,1.38,2.75,1.39,2.75,-2.76,-2.81,-3.34,-1.39,-1.38,-1.37
263.19,1.38,2.76,1.38,2.76,-2.77,-2.81,-3.33,-1.39,-1.39,-1.38
265.82,1.38,2.77,1.38,2.77,-2.77,-2.81,-3.31,-1.39,-1.39,-1.39
268.48,1.38,2.78,1.38,2.78,-2.77,-2.81,-3.29,-1.39,-1.39,-1.40
271.16,1.38,2.79,1.37,2.78,-2.77,-2.81,-3.26,-1.40,-1.41,-1.41
273.87,1.35,2.77,1.35,2.77,-2.77,-2.80,-3.23,-1.43,-1.42,-1.42
276.61,1.33,2.76,1.34,2.77,-2.77,-2.80,-3.19,-1.45,-1.44,-1.43
279.38,1.33,2.77,1.33,2.77,-2.77,-2.79,-3.16,-1.44,-1.45,-1.44
282.17,1.33,2.78,1.33,2.77,-2.77,-2.78,-3.12,-1.44,-1.44,-1.45
284.99,1.33,2.78,1.32,2.77,-2.77,-2.78,-3.07,-1.44,-1.44,-1.45
287.84,1.32,2.76,1.31,2.76,-2.76,-2.77,-3.03,-1.44,-1.45,-1.45
290.72,1.29,2.74,1.30,2.75,-2.76,-2.76,-2.98,-1.47,-1.46,-1.45
293.63,1.29,2.75,1.29,2.75,-2.75,-2.75,-2.94,-1.46,-1.46,-1.46
296.57,1.29,2.75,1.29,2.75,-2.75,-2.74,-2.89,-1.46,-1.46,-1.46
299.53,1.29,2.74,1.29,2.75,-2.74,-2.73,-2.84,-1.45,-1.45,-1.46
302.53,1.29,2.75,1.27,2.73,-2.73,-2.71,-2.79,-1.45,-1.46,-1.46
305.55,1.25,2.71,1.26,2.72,-2.73,-2.70,-2.75,-1.48,-1.47,-1.46
308.61,1.25,2.71,1.25,2.72,-2.72,-2.69,-2.70,-1.47,-1.47,-1.47
311.69,1.25,2.71,1.24,2.71,-2.71,-2.67,-2.65,-1.46,-1.46,-1.46
314.81,1.25,2.72,1.24,2.70,-2.70,-2.66,-2.60,-1.45,-1.46,-1.47
317.96,1.22,2.68,1.22,2.69,-2.69,-2.64,-2.56,-1.47,-1.46,-1.46
321.14,1.20,2.67,1.21,2.68,-2.67,-2.63,-2.51,-1.48,-1.46,-1.47
324.35,1.20,2.66,1.19,2.66,-2.66,-2.61,-2.47,-1.46,-1.47,-1.46
327.59,1.20,2.66,1.18,2.65,-2.65,-2.59,-2.42,-1.45,-1.47,-1.46
330.87,1.16,2.62,1.17,2.63,-2.64,-2.58,-2.38,-1.48,-1.47,-1.46
334.18,1.16,2.62,1.16,2.63,-2.63,-2.56,-2.34,-1.47,-1.46,-1.46
337.52,1.16,2.62,1.15,2.61,-2.61,-2.54,-2.30,-1.45,-1.46,-1.46
340.90,1.16,2.62,1.14,2.60,-2.60,-2.52,-2.27,-1.44,-1.45,-1.46
344.30,1.12,2.57,1.13,2.59,-2.58,-2.50,-2.23,-1.47,-1.45,-1.45
347.75,1.12,2.56,1.12,2.57,-2.57,-2.48,-2.20,-1.45,-1.45,-1.45
351.23,1.12,2.57,1.10,2.55,-2.55,-2.46,-2.17,-1.43,-1.45,-1.45
354.74,1.09,2.52,1.09,2.53,-2.54,-2.44,-2.14,-1.45,-1.44,-1.43
358.28,1.07,2.51,1.08,2.52,-2.52,-2.42,-2.11,-1.45,-1.44,-1.44
361.87,1.07,2.50,1.06,2.50,-2.50,-2.39,-2.08,-1.43,-1.43,-1.43
365.49,1.07,2.49,1.06,2.48,-2.48,-2.37,-2.06,-1.41,-1.42,-1.43
369.14,1.03,2.46,1.04,2.46,-2.46,-2.35,-2.03,-1.43,-1.42,-1.43
372.83,1.03,2.44,1.02,2.43,-2.44,-2.33,-2.01,-1.41,-1.42,-1.41
376.56,0.99,2.40,1.00,2.42,-2.42,-2.30,-1.99,-1.43,-1.42,-1.42
380.33,0.99,2.40,0.99,2.40,-2.40,-2.28,-1.97,-1.41,-1.41,-1.41
384.13,0.99,2.40,0.97,2.37,-2.37,-2.26,-1.96,-1.39,-1.41,-1.41
387.97,0.94,2.34,0.96,2.36,-2.35,-2.23,-1.94,-1.42,-1.40,-1.40
391.85,0.94,2.32,0.94,2.33,-2.33,-2.21,-1.93,-1.40,-1.40,-1.39
395.77,0.94,2.33,0.92,2.30,-2.31,-2.19,-1.92,-1.38,-1.39,-1.39
399.73,0.90,2.28,0.91,2.30,-2.29,-2.16,-1.90,-1.40,-1.38,-1.38
403.72,0.90,2.27,0.90,2.28,-2.27,-2.14,-1.89,-1.38,-1.38,-1.37
407.76,0.90,2.27,0.88,2.25,-2.25,-2.11,-1.89,-1.36,-1.37,-1.38
411.84,0.86,2.23,0.87,2.24,-2.23,-2.09,-1.88,-1.37,-1.36,-1.37
415.96,0.86,2.22,0.85,2.21,-2.21,-2.06,-1.87,-1.35,-1.36,-1.36
420.12,0.83,2.19,0.83,2.19,-2.19,-2.04,-1.86,-1.36,-1.36,-1.36
424.32,0.81,2.16,0.81,2.17,-2.17,-2.02,-1.86,-1.36,-1.36,-1.35
428.56,0.81,2.15,0.79,2.14,-2.15,-1.99,-1.85,-1.34,-1.35,-1.35
432.85,0.77,2.11,0.78,2.12,-2.12,-1.97,-1.85,-1.36,-1.34,-1.34
437.18,0.77,2.11,0.76,2.10,-2.10,-1.94,-1.84,-1.33,-1.34,-1.34
441.55,0.75,2.08,0.75,2.08,-2.07,-1.92,-1.83,-1.32,-1.32,-1.33
445.96,0.73,2.05,0.73,2.05,-2.05,-1.89,-1.83,-1.32,-1.31,-1.32
450.42,0.73,2.03,0.71,2.02,-2.02,-1.87,-1.82,-1.29,-1.31,-1.30
454.93,0.68,1.97,0.69,1.99,-1.99,-1.84,-1.82,-1.31,-1.30,-1.30
459.48,0.68,1.97,0.67,1.96,-1.97,-1.82,-1.81,-1.29,-1.30,-1.29
464.07,0.64,1.93,0.65,1.93,-1.94,-1.79,-1.80,-1.30,-1.29,-1.29
468.71,0.64,1.92,0.63,1.91,-1.91,-1.77,-1.79,-1.27,-1.28,-1.28
473.40,0.61,1.88,0.61,1.89,-1.88,-1.74,-1.78,-1.27,-1.27,-1.27
478.13,0.60,1.86,0.59,1.86,-1.86,-1.72,-1.77,-1.26,-1.26,-1.26
482.91,0.58,1.83,0.58,1.83,-1.83,-1.69,-1.76,-1.25,-1.25,-1.25
487.74,0.55,1.79,0.56,1.80,-1.80,-1.67,-1.75,-1.25,-1.25,-1.25
492.62,0.55,1.78,0.54,1.78,-1.77,-1.64,-1.73,-1.22,-1.23,-1.24
497.55,0.51,1.74,0.52,1.74,-1.74,-1.62,-1.71,-1.23,-1.23,-1.23
502.52,0.51,1.73,0.50,1.72,-1.71,-1.59,-1.70,-1.20,-1.21,-1.22
507.55,0.47,1.67,0.47,1.68,-1.68,-1.57,-1.68,-1.21,-1.20,-1.20
512.62,0.47,1.66,0.46,1.65,-1.65,-1.54,-1.66,-1.18,-1.19,-1.19
517.75,0.42,1.60,0.43,1.61,-1.62,-1.52,-1.63,-1.20,-1.19,-1.18
