frequency,raw
20.00,-2.51
20.20,-2.44
20.40,-2.37
20.61,-2.30
20.81,-2.22
21.02,-2.15
21.23,-2.08
21.44,-2.01
21.66,-1.94
21.87,-1.87
22.09,-1.80
22.31,-1.73
22.54,-1.66
22.76,-1.58
22.99,-1.51
23.22,-1.44
23.45,-1.37
23.69,-1.30
23.92,-1.22
24.16,-1.15
24.40,-1.08
24.65,-1.01
24.89,-0.94
25.14,-0.87
25.39,-0.80
25.65,-0.73
25.91,-0.66
26.16,-0.58
26.43,-0.51
26.69,-0.44
26.96,-0.37
27.23,-0.30
27.50,-0.23
27.77,-0.17
28.05,-0.10
28.33,-0.03
28.62,0.04
28.90,0.11
29.19,0.17
29.48,0.24
29.78,0.30
30.08,0.37
30.38,0.44
30.68,0.51
30.99,0.58
31.30,0.64
31.61,0.70
31.93,0.76
32.24,0.81
32.57,0.87
32.89,0.93
33.22,0.99
33.55,1.04
33.89,1.09
34.23,1.14
34.57,1.20
34.92,1.25
35.27,1.29
35.62,1.33
35.97,1.38
36.33,1.42
36.70,1.47
37.06,1.52
37.43,1.57
37.81,1.62
38.19,1.67
38.57,1.72
38.95,1.77
39.34,1.82
39.74,1.86
40.14,1.91
40.54,1.95
40.94,1.99
41.35,2.04
41.76,2.08
42.18,2.13
42.60,2.18
43.03,2.22
43.46,2.27
43.90,2.31
44.33,2.34
44.78,2.37
45.23,2.41
45.68,2.45
46.13,2.49
46.60,2.53
47.06,2.57
47.53,2.61
48.01,2.65
48.49,2.68
48.97,2.72
49.46,2.76
49.96,2.80
50.46,2.83
50.96,2.86
51.47,2.89
51.99,2.92
52.51,2.96
53.03,2.99
53.56,3.03
54.10,3.07
54.64,3.10
55.18,3.13
55.74,3.16
56.29,3.19
56.86,3.23
57.42,3.27
58.00,3.30
58.58,3.32
59.16,3.35
59.76,3.37
60.35,3.39
60.96,3.42
61.57,3.44
62.18,3.45
62.80,3.47
63.43,3.48
64.07,3.49
64.71,3.51
65.35,3.53
66.01,3.55
66.67,3.58
67.33,3.60
68.01,3.63
68.69,3.65
69.37,3.67
70.07,3.68
70.77,3.70
71.48,3.71
72.19,3.74
72.91,3.77
73.64,3.79
74.38,3.81
75.12,3.83
75.87,3.85
76.63,3.86
77.40,3.86
78.17,3.87
78.95,3.87
79.74,3.88
80.54,3.88
81.35,3.88
82.16,3.89
82.98,3.91
83.81,3.93
84.65,3.95
85.50,3.98
86.35,4.01
87.22,4.04
88.09,4.06
88.97,4.10
89.86,4.13
90.76,4.15
91.66,4.17
92.58,4.19
93.51,4.21
94.44,4.21
95.39,4.22
96.34,4.22
97.30,4.21
98.28,4.20
99.26,4.20
100.25,4.20
101.25,4.20
102.27,4.20
103.29,4.20
104.32,4.20
105.37,4.20
106.42,4.20
107.48,4.20
108.56,4.20
109.64,4.20
110.74,4.20
111.85,4.20
112.97,4.20
114.10,4.20
115.24,4.20
116.39,4.20
117.55,4.20
118.73,4.20
119.92,4.20
121.12,4.20
122.33,4.20
123.55,4.20
124.79,4.20
126.03,4.20
127.29,4.20
128.57,4.20
129.85,4.20
131.15,4.20
132.46,4.20
133.79,4.20
135.12,4.20
136.48,4.20
137.84,4.20
139.22,4.20
140.61,4.20
142.02,4.19
143.44,4.18
144.87,4.18
146.32,4.17
147.78,4.18
149.26,4.19
150.75,4.22
152.26,4.23
153.78,4.26
155.32,4.29
156.88,4.34
158.44,4.36
160.03,4.40
161.63,4.43
163.24,4.46
164.88,4.49
166.53,4.51
168.19,4.53
169.87,4.54
171.57,4.54
173.29,4.54
175.02,4.53
176.77,4.52
178.54,4.52
180.32,4.52
182.13,4.52
183.95,4.52
185.79,4.52
187.65,4.52
189.52,4.52
191.42,4.52
193.33,4.52
195.27,4.52
197.22,4.52
199.19,4.52
201.18,4.53
203.19,4.54
205.23,4.54
207.28,4.54
209.35,4.53
211.44,4.52
213.56,4.49
215.69,4.46
217.85,4.43
220.03,4.42
222.23,4.39
224.45,4.36
226.70,4.32
228.96,4.27
231.25,4.23
233.57,4.18
235.90,4.13
238.26,4.09
240.64,4.05
243.05,4.02
245.48,3.99
247.93,3.96
250.41,3.94
252.92,3.90
255.45,3.88
258.00,3.87
260.58,3.85
263.19,3.85
265.82,3.85
268.48,3.86
271.16,3.87
273.87,3.87
276.61,3.87
279.38,3.87
282.17,3.87
284.99,3.88
287.84,3.89
290.72,3.90
293.63,3.90
296.57,3.89
299.53,3.87
302.53,3.85
305.55,3.83
308.61,3.81
311.69,3.78
314.81,3.76
317.96,3.72
321.14,3.67
324.35,3.62
327.59,3.57
330.87,3.52
334.18,3.46
337.52,3.40
340.90,3.34
344.30,3.27
347.75,3.22
351.23,3.16
354.74,3.09
358.28,3.01
361.87,2.93
365.49,2.83
369.14,2.75
372.83,2.67
376.56,2.55
380.33,2.44
384.13,2.33
387.97,2.22
391.85,2.10
395.77,1.97
399.73,1.84
403.72,1.72
407.76,1.59
411.84,1.46
415.96,1.33
420.12,1.21
424.32,1.10
428.56,1.01
432.85,0.92
437.18,0.84
441.55,0.78
445.96,0.72
450.42,0.67
454.93,0.64
459.48,0.60
464.07,0.61
468.71,0.62
473.40,0.66
478.13,0.68
482.91,0.74
487.74,0.82
492.62,0.90
497.55,0.98
502.52,1.06
507.55,1.15
512.62,1.25
517.75,1.34
522.93,1.42
528.16,1.48
533.44,1.53
538.77,1.57
544.16,1.60
549.60,1.63
555.10,1.63
560.65,1.62
566.25,1.62
571.92,1.60
577.64,1.56
583.41,1.51
589.25,1.47
595.14,1.42
601.09,1.37
607.10,1.30
613.17,1.24
619.30,1.17
625.50,1.09
631.75,1.01
638.07,0.94
644.45,0.88
650.89,0.82
657.40,0.77
663.98,0.72
670.62,0.68
677.32,0.64
684.10,0.62
690.94,0.62
697.85,0.63
704.83,0.64
711.87,0.67
718.99,0.70
726.18,0.74
733.44,0.78
740.78,0.81
748.19,0.85
755.67,0.89
763.23,0.93
770.86,0.95
778.57,0.98
786.35,0.98
794.22,0.97
802.16,0.95
810.18,0.92
818.28,0.89
826.46,0.86
834.73,0.82
843.08,0.78
851.51,0.73
860.02,0.67
868.62,0.63
877.31,0.59
886.08,0.54
894.94,0.49
903.89,0.43
912.93,0.38
922.06,0.34
931.28,0.29
940.59,0.23
950.00,0.19
959.50,0.15
969.09,0.11
978.78,0.08
988.57,0.04
998.46,0.01
1008.44,-0.03
1018.53,-0.07
1028.71,-0.10
1039.00,-0.13
1049.39,-0.17
1059.88,-0.20
1070.48,-0.24
1081.19,-0.29
1092.00,-0.34
1102.92,-0.40
1113.95,-0.46
1125.09,-0.52
1136.34,-0.58
1147.70,-0.64
1159.18,-0.70
1170.77,-0.77
1182.48,-0.84
1194.30,-0.93
1206.25,-1.03
1218.31,-1.12
1230.49,-1.21
1242.80,-1.31
1255.22,-1.43
1267.78,-1.55
1280.45,-1.67
1293.26,-1.79
1306.19,-1.93
1319.25,-2.06
1332.45,-2.21
1345.77,-2.35
1359.23,-2.48
1372.82,-2.63
1386.55,-2.77
1400.41,-2.90
1414.42,-3.04
1428.56,-3.19
1442.85,-3.31
1457.28,-3.45
1471.85,-3.58
1486.57,-3.71
1501.43,-3.84
1516.45,-3.96
1531.61,-4.07
1546.93,-4.15
1562.40,-4.24
1578.02,-4.33
1593.80,-4.41
1609.74,-4.49
1625.84,-4.56
1642.10,-4.60
1658.52,-4.64
1675.10,-4.69
1691.85,-4.74
1708.77,-4.77
1725.86,-4.82
1743.12,-4.86
1760.55,-4.91
1778.15,-4.97
1795.94,-5.03
1813.90,-5.09
1832.03,-5.15
1850.36,-5.23
1868.86,-5.30
1887.55,-5.39
1906.42,-5.49
1925.49,-5.59
1944.74,-5.70
1964.19,-5.81
1983.83,-5.92
2003.67,-6.03
2023.71,-6.16
2043.94,-6.29
2064.38,-6.41
2085.03,-6.51
2105.88,-6.63
2126.94,-6.74
2148.20,-6.85
2169.69,-6.94
2191.38,-7.03
2213.30,-7.11
2235.43,-7.21
2257.78,-7.30
2280.36,-7.38
2303.17,-7.47
2326.20,-7.56
2349.46,-7.64
2372.95,-7.74
2396.68,-7.83
2420.65,-7.92
2444.86,-8.03
2469.31,-8.14
2494.00,-8.24
2518.94,-8.34
2544.13,-8.45
2569.57,-8.56
2595.27,-8.67
2621.22,-8.78
2647.43,-8.89
2673.90,-9.00
2700.64,-9.12
2727.65,-9.23
2754.93,-9.35
2782.48,-9.45
2810.30,-9.57
2838.40,-9.68
2866.79,-9.78
2895.46,-9.89
2924.41,-9.99
2953.65,-10.08
2983.19,-10.18
3013.02,-10.27
3043.15,-10.36
3073.58,-10.45
3104.32,-10.52
3135.36,-10.60
3166.72,-10.67
3198.38,-10.74
3230.37,-10.83
3262.67,-10.92
3295.30,-11.00
3328.25,-11.07
3361.53,-11.16
3395.15,-11.24
3429.10,-11.32
3463.39,-11.41
3498.03,-11.50
3533.01,-11.59
3568.34,-11.67
3604.02,-11.74
3640.06,-11.83
3676.46,-11.93
3713.22,-12.02
3750.36,-12.10
3787.86,-12.19
3825.74,-12.29
3864.00,-12.39
3902.64,-12.51
3941.66,-12.64
3981.08,-12.79
4020.89,-12.97
4061.10,-13.17
4101.71,-13.39
4142.73,-13.61
4184.15,-13.81
4226.00,-13.99
4268.26,-14.13
4310.94,-14.22
4354.05,-14.25
4397.59,-14.22
4441.56,-14.14
4485.98,-14.00
4530.84,-13.78
4576.15,-13.52
4621.91,-13.21
4668.13,-12.87
4714.81,-12.49
4761.96,-12.11
4809.58,-11.72
4857.67,-11.36
4906.25,-11.01
4955.31,-10.69
5004.87,-10.39
5054.91,-10.10
5105.46,-9.84
5156.52,-9.60
5208.08,-9.37
5260.16,-9.16
5312.77,-8.96
5365.89,-8.79
5419.55,-8.64
5473.75,-8.52
5528.49,-8.43
5583.77,-8.35
5639.61,-8.28
5696.00,-8.21
5752.96,-8.14
5810.49,-8.07
5868.60,-8.02
5927.28,-7.98
5986.56,-7.95
6046.42,-7.94
6106.89,-7.94
6167.96,-7.95
6229.64,-7.96
6291.93,-7.97
6354.85,-7.97
6418.40,-7.97
6482.58,-7.97
6547.41,-7.98
6612.88,-8.00
6679.01,-8.06
6745.80,-8.12
6813.26,-8.20
6881.39,-8.28
6950.21,-8.37
7019.71,-8.48
7089.91,-8.61
7160.81,-8.76
7232.41,-8.94
7304.74,-9.14
7377.79,-9.34
7451.56,-9.56
7526.08,-9.78
7601.34,-10.00
7677.35,-10.21
7754.13,-10.41
7831.67,-10.60
7909.98,-10.79
7989.08,-11.03
8068.98,-11.27
8149.67,-11.54
8231.16,-11.82
8313.47,-12.12
8396.61,-12.45
8480.57,-12.79
8565.38,-13.14
8651.03,-13.49
8737.54,-13.84
8824.92,-14.17
8913.17,-14.51
9002.30,-14.81
9092.32,-15.10
9183.25,-15.35
9275.08,-15.56
9367.83,-15.74
9461.51,-15.90
9556.12,-16.05
9651.68,-16.17
9748.20,-16.27
9845.68,-16.32
9944.14,-16.32
10043.58,-16.27
10144.02,-16.17
10245.46,-16.01
10347.91,-15.78
10451.39,-15.48
10555.91,-15.13
10661.46,-14.73
10768.08,-14.30
10875.76,-13.86
10984.52,-13.41
11094.36,-12.96
11205.31,-12.53
11317.36,-12.12
11430.53,-11.76
11544.84,-11.44
11660.29,-11.16
11776.89,-10.91
11894.66,-10.66
12013.60,-10.44
12133.74,-10.22
12255.08,-10.01
12377.63,-9.81
12501.41,-9.65
12626.42,-9.49
12752.68,-9.35
12880.21,-9.24
13009.01,-9.18
13139.10,-9.16
13270.49,-9.18
13403.20,-9.24
13537.23,-9.33
13672.60,-9.44
13809.33,-9.56
13947.42,-9.70
14086.90,-9.83
14227.77,-9.95
14370.04,-10.08
14513.74,-10.22
14658.88,-10.36
14805.47,-10.50
14953.52,-10.63
15103.06,-10.77
15254.09,-10.89
15406.63,-11.03
15560.70,-11.18
15716.30,-11.33
15873.47,-11.50
16032.20,-11.70
16192.52,-11.91
16354.45,-12.13
16517.99,-12.35
16683.17,-12.58
16850.01,-12.82
17018.51,-13.08
17188.69,-13.36
17360.58,-13.66
17534.18,-13.99
17709.53,-14.35
17886.62,-14.73
18065.49,-15.12
18246.14,-15.51
18428.60,-15.92
18612.89,-16.34
18799.02,-16.76
18987.01,-17.21
19176.88,-17.67
19368.65,-18.14
19562.33,-18.62
19757.96,-19.13
19955.54,-19.64
