frequency,raw,error,smoothed,error_smoothed,equalization,parametric_eq,equalized_raw,equalized_smoothed,target
20,12.73,9.03,12.73,9.04,-9.04,-3.59,3.69,3.70,3.70
21,12.67,8.98,12.66,8.97,-8.97,-4.11,3.70,3.69,3.69
22,12.56,8.88,12.57,8.89,-8.89,-4.67,3.67,3.68,3.68
23,12.47,8.80,12.48,8.81,-8.81,-5.28,3.66,3.67,3.67
24,12.36,8.70,12.37,8.72,-8.72,-5.93,3.65,3.66,3.66
25,12.29,8.65,12.26,8.62,-8.62,-6.61,3.67,3.65,3.65
26,12.16,8.53,12.14,8.51,-8.51,-7.29,3.65,3.63,3.63
27,12.01,8.39,12.02,8.40,-8.40,-7.96,3.61,3.62,3.62
28,11.87,8.27,11.88,8.28,-8.28,-8.56,3.59,3.60,3.60
29,11.73,8.15,11.75,8.16,-8.16,-9.07,3.57,3.59,3.59
30,11.60,8.03,11.60,8.03,-8.03,-9.43,3.57,3.57,3.57
31,11.46,7.91,11.45,7.90,-7.90,-9.61,3.56,3.55,3.55
32,11.30,7.77,11.30,7.77,-7.77,-9.63,3.53,3.53,3.53
33,11.15,7.64,11.14,7.64,-7.64,-9.49,3.52,3.51,3.51
34,11.00,7.51,10.98,7.50,-7.50,-9.23,3.50,3.49,3.49
35,10.85,7.39,10.82,7.36,-7.36,-8.90,3.49,3.46,3.46
36,10.62,7.18,10.66,7.22,-7.22,-8.53,3.40,3.44,3.44
37,10.48,7.07,10.49,7.08,-7.08,-8.15,3.40,3.41,3.41
38,10.32,6.94,10.33,6.95,-6.95,-7.78,3.37,3.39,3.39
39,10.16,6.80,10.17,6.82,-6.82,-7.43,3.34,3.36,3.36
40,10.03,6.70,10.02,6.69,-6.69,-7.10,3.34,3.33,3.33
41,9.87,6.57,9.87,6.57,-6.57,-6.81,3.30,3.30,3.30
42,9.72,6.45,9.72,6.45,-6.45,-6.55,3.27,3.27,3.27
43,9.57,6.34,9.57,6.33,-6.33,-6.31,3.24,3.23,3.23
44,9.42,6.22,9.42,6.22,-6.22,-6.11,3.20,3.20,3.20
45,9.28,6.12,9.27,6.11,-6.11,-5.93,3.17,3.16,3.16
46,9.13,6.00,9.13,6.00,-6.00,-5.78,3.13,3.13,3.13
47,9.00,5.91,8.99,5.90,-5.90,-5.66,3.10,3.09,3.09
48,8.85,5.80,8.85,5.80,-5.80,-5.55,3.05,3.05,3.05
49,8.71,5.70,8.71,5.70,-5.70,-5.46,3.01,3.01,3.01
50,8.59,5.62,8.59,5.62,-5.62,-5.39,2.97,2.97,2.97
51,8.44,5.51,8.47,5.54,-5.54,-5.33,2.90,2.93,2.93
52,8.35,5.46,8.36,5.47,-5.47,-5.29,2.88,2.89,2.89
53,8.27,5.43,8.26,5.42,-5.42,-5.26,2.85,2.84,2.84
54,8.15,5.35,8.17,5.37,-5.37,-5.23,2.78,2.80,2.80
55,8.09,5.34,8.09,5.34,-5.34,-5.22,2.75,2.75,2.75
56,8.01,5.30,8.02,5.31,-5.31,-5.20,2.70,2.71,2.71
57,7.97,5.31,7.95,5.29,-5.29,-5.19,2.68,2.66,2.66
58,7.86,5.25,7.89,5.28,-5.28,-5.19,2.58,2.61,2.61
59,7.86,5.30,7.83,5.27,-5.27,-5.18,2.59,2.56,2.56
60,7.77,5.26,7.78,5.27,-5.27,-5.18,2.51,2.51,2.51
61,7.72,5.26,7.73,5.26,-5.26,-5.17,2.46,2.46,2.46
62,7.72,5.31,7.67,5.26,-5.26,-5.16,2.46,2.41,2.41
63,7.58,5.22,7.62,5.26,-5.26,-5.16,2.33,2.36,2.36
64,7.57,5.26,7.56,5.25,-5.25,-5.15,2.32,2.31,2.31
65,7.55,5.29,7.51,5.25,-5.25,-5.14,2.30,2.26,2.26
66,7.41,5.21,7.46,5.25,-5.25,-5.13,2.16,2.21,2.21
67,7.37,5.22,7.40,5.25,-5.25,-5.12,2.12,2.15,2.15
68,7.35,5.25,7.35,5.25,-5.25,-5.11,2.10,2.10,2.10
69,7.32,5.27,7.29,5.25,-5.25,-5.10,2.07,2.05,2.05
70,7.29,5.30,7.24,5.25,-5.25,-5.09,2.05,1.99,1.99
71,7.18,5.24,7.18,5.24,-5.24,-5.09,1.94,1.94,1.94
72,7.12,5.24,7.13,5.24,-5.24,-5.09,1.88,1.88,1.88
73,7.04,5.21,7.07,5.24,-5.24,-5.09,1.80,1.83,1.83
74,7.01,5.24,7.02,5.25,-5.25,-5.09,1.77,1.78,1.78
75,6.97,5.25,6.97,5.25,-5.25,-5.10,1.72,1.72,1.72
76,6.94,5.27,6.93,5.27,-5.27,-5.11,1.68,1.67,1.67
77,6.90,5.29,6.90,5.28,-5.28,-5.13,1.62,1.61,1.61
78,6.87,5.31,6.87,5.31,-5.31,-5.15,1.56,1.56,1.56
79,6.83,5.33,6.84,5.34,-5.34,-5.18,1.50,1.50,1.50
80,6.79,5.34,6.82,5.37,-5.37,-5.21,1.42,1.45,1.45
81,6.80,5.40,6.80,5.40,-5.40,-5.25,1.40,1.40,1.40
82,6.78,5.44,6.78,5.44,-5.44,-5.29,1.34,1.34,1.34
83,6.81,5.52,6.77,5.48,-5.48,-5.34,1.33,1.29,1.29
84,6.78,5.54,6.76,5.52,-5.52,-5.39,1.26,1.24,1.24
85,6.74,5.56,6.74,5.56,-5.56,-5.45,1.18,1.19,1.19
86,6.71,5.58,6.73,5.60,-5.60,-5.51,1.11,1.13,1.13
87,6.68,5.60,6.72,5.64,-5.64,-5.58,1.04,1.08,1.08
88,6.72,5.69,6.72,5.69,-5.69,-5.65,1.03,1.03,1.03
89,6.74,5.76,6.71,5.73,-5.73,-5.73,1.01,0.98,0.98
90,6.72,5.79,6.71,5.78,-5.78,-5.81,0.94,0.93,0.93
91,6.68,5.80,6.70,5.83,-5.83,-5.89,0.85,0.88,0.88
92,6.70,5.87,6.70,5.87,-5.87,-5.98,0.83,0.83,0.83
93,6.74,5.96,6.70,5.92,-5.92,-6.08,0.82,0.78,0.78
94,6.69,5.96,6.70,5.96,-5.96,-6.17,0.73,0.73,0.73
95,6.67,5.99,6.69,6.01,-6.01,-6.27,0.66,0.68,0.68
96,6.70,6.07,6.69,6.06,-6.06,-6.37,0.64,0.64,0.64
97,6.71,6.12,6.70,6.11,-6.11,-6.48,0.60,0.59,0.59
98,6.68,6.14,6.70,6.16,-6.16,-6.59,0.52,0.54,0.54
99,6.69,6.20,6.71,6.22,-6.22,-6.70,0.47,0.49,0.50
100,6.75,6.30,6.72,6.28,-6.28,-6.81,0.47,0.44,0.45
101,6.72,6.32,6.74,6.35,-6.35,-6.92,0.37,0.39,0.41
102,6.74,6.38,6.76,6.42,-6.42,-7.04,0.32,0.34,0.36
104,6.79,6.52,6.78,6.49,-6.49,-7.26,0.30,0.29,0.28
105,6.82,6.59,6.80,6.56,-6.56,-7.38,0.26,0.24,0.23
106,6.85,6.66,6.82,6.63,-6.63,-7.49,0.22,0.20,0.19
107,6.83,6.68,6.85,6.69,-6.69,-7.60,0.14,0.15,0.15
108,6.86,6.75,6.87,6.76,-6.76,-7.71,0.10,0.11,0.11
109,6.89,6.82,6.89,6.82,-6.82,-7.82,0.07,0.07,0.07
110,6.90,6.87,6.91,6.88,-6.88,-7.92,0.02,0.03,0.03
111,6.95,6.96,6.93,6.94,-6.94,-8.02,0.01,-0.01,-0.01
112,6.95,7.00,6.96,7.01,-7.01,-8.12,-0.05,-0.05,-0.05
113,6.97,7.05,6.98,7.07,-7.07,-8.21,-0.10,-0.09,-0.08
114,7.01,7.13,7.00,7.13,-7.13,-8.29,-0.12,-0.13,-0.12
115,6.99,7.15,7.02,7.19,-7.19,-8.37,-0.20,-0.17,-0.16
117,7.08,7.31,7.04,7.25,-7.25,-8.50,-0.17,-0.21,-0.23
118,7.09,7.35,7.06,7.31,-7.31,-8.55,-0.22,-0.25,-0.26
119,7.05,7.35,7.08,7.37,-7.37,-8.60,-0.32,-0.29,-0.30
120,7.09,7.42,7.10,7.43,-7.43,-8.64,-0.34,-0.33,-0.33
121,7.10,7.46,7.11,7.48,-7.48,-8.67,-0.38,-0.37,-0.36
123,7.11,7.54,7.12,7.54,-7.54,-8.70,-0.43,-0.41,-0.43
124,7.16,7.62,7.13,7.59,-7.59,-8.70,-0.42,-0.45,-0.46
125,7.15,7.64,7.14,7.63,-7.63,-8.70,-0.48,-0.49,-0.49
126,7.11,7.63,7.15,7.68,-7.68,-8.68,-0.56,-0.53,-0.52
128,7.19,7.77,7.15,7.72,-7.72,-8.63,-0.53,-0.56,-0.57
129,7.16,7.76,7.15,7.75,-7.75,-8.59,-0.59,-0.60,-0.60
130,7.14,7.77,7.15,7.79,-7.79,-8.54,-0.65,-0.63,-0.63
131,7.11,7.77,7.15,7.82,-7.82,-8.48,-0.71,-0.67,-0.66
133,7.17,7.88,7.14,7.84,-7.84,-8.36,-0.67,-0.70,-0.71
134,7.15,7.89,7.13,7.87,-7.87,-8.28,-0.72,-0.74,-0.74
135,7.12,7.88,7.12,7.89,-7.89,-8.21,-0.77,-0.77,-0.76
137,7.08,7.89,7.11,7.91,-7.91,-8.04,-0.83,-0.81,-0.81
138,7.06,7.90,7.09,7.93,-7.93,-7.95,-0.87,-0.84,-0.84
140,7.08,7.96,7.07,7.94,-7.94,-7.76,-0.86,-0.87,-0.88
141,7.07,7.98,7.05,7.95,-7.95,-7.67,-0.88,-0.90,-0.90
142,7.03,7.96,7.03,7.96,-7.96,-7.57,-0.93,-0.94,-0.93
144,6.99,7.96,6.99,7.96,-7.96,-7.37,-0.97,-0.97,-0.97
145,6.95,7.94,6.96,7.95,-7.95,-7.27,-1.00,-1.00,-0.99
147,6.91,7.94,6.91,7.94,-7.94,-7.07,-1.03,-1.03,-1.03
148,6.87,7.92,6.86,7.92,-7.92,-6.97,-1.05,-1.06,-1.05
150,6.81,7.90,6.80,7.89,-7.89,-6.76,-1.08,-1.08,-1.09
151,6.75,7.86,6.74,7.85,-7.85,-6.66,-1.10,-1.11,-1.11
153,6.65,7.80,6.66,7.80,-7.80,-6.47,-1.15,-1.14,-1.14
154,6.58,7.74,6.58,7.75,-7.75,-6.37,-1.17,-1.17,-1.16
156,6.49,7.69,6.50,7.69,-7.69,-6.18,-1.20,-1.19,-1.20
157,6.43,7.64,6.41,7.63,-7.63,-6.09,-1.20,-1.22,-1.21
159,6.30,7.55,6.32,7.56,-7.56,-5.91,-1.26,-1.24,-1.25
160,6.22,7.48,6.22,7.49,-7.49,-5.82,-1.27,-1.27,-1.26
162,6.14,7.43,6.12,7.42,-7.42,-5.65,-1.27,-1.29,-1.29
164,5.99,7.31,6.02,7.34,-7.34,-5.48,-1.35,-1.32,-1.32
165,5.94,7.28,5.92,7.26,-7.26,-5.40,-1.31,-1.34,-1.34
167,5.79,7.15,5.81,7.17,-7.17,-5.25,-1.38,-1.36,-1.36
169,5.68,7.07,5.70,7.08,-7.08,-5.10,-1.40,-1.39,-1.39
170,5.59,6.99,5.58,6.99,-6.99,-5.03,-1.40,-1.41,-1.40
172,5.44,6.87,5.46,6.89,-6.89,-4.89,-1.45,-1.43,-1.43
174,5.33,6.78,5.33,6.78,-6.78,-4.75,-1.45,-1.45,-1.45
175,5.23,6.70,5.20,6.67,-6.67,-4.69,-1.44,-1.47,-1.47
177,5.07,6.56,5.06,6.55,-6.55,-4.57,-1.48,-1.49,-1.49
179,4.92,6.43,4.91,6.42,-6.42,-4.45,-1.50,-1.51,-1.51
181,4.74,6.27,4.76,6.29,-6.29,-4.33,-1.55,-1.53,-1.53
183,4.55,6.10,4.60,6.15,-6.15,-4.23,-1.60,-1.55,-1.55
184,4.45,6.01,4.43,6.00,-6.00,-4.17,-1.55,-1.57,-1.56
186,4.28,5.86,4.26,5.85,-5.85,-4.07,-1.57,-1.58,-1.58
188,4.09,5.69,4.08,5.68,-5.68,-3.98,-1.59,-1.60,-1.60
190,3.90,5.52,3.89,5.51,-5.51,-3.89,-1.61,-1.62,-1.62
192,3.69,5.33,3.70,5.34,-5.34,-3.80,-1.65,-1.64,-1.64
194,3.50,5.16,3.50,5.15,-5.15,-3.72,-1.65,-1.65,-1.65
196,3.30,4.97,3.29,4.96,-4.96,-3.64,-1.66,-1.67,-1.67
198,3.08,4.77,3.08,4.77,-4.77,-3.56,-1.68,-1.69,-1.69
200,2.86,4.56,2.86,4.56,-4.56,-3.49,-1.70,-1.70,-1.70
202,2.64,4.36,2.64,4.36,-4.36,-3.42,-1.72,-1.72,-1.72
204,2.42,4.15,2.42,4.15,-4.15,-3.35,-1.73,-1.73,-1.73
206,2.19,3.94,2.20,3.94,-3.94,-3.29,-1.75,-1.74,-1.74
208,1.96,3.72,1.98,3.73,-3.73,-3.23,-1.77,-1.76,-1.76
210,1.74,3.51,1.75,3.52,-3.52,-3.17,-1.78,-1.77,-1.77
212,1.55,3.33,1.53,3.31,-3.31,-3.12,-1.76,-1.78,-1.78
214,1.34,3.14,1.31,3.10,-3.10,-3.07,-1.76,-1.80,-1.80
216,1.10,2.91,1.09,2.89,-2.89,-3.02,-1.79,-1.81,-1.81
218,0.87,2.69,0.87,2.69,-2.69,-2.97,-1.82,-1.82,-1.82
221,0.60,2.44,0.65,2.48,-2.48,-2.90,-1.88,-1.83,-1.83
223,0.44,2.29,0.44,2.28,-2.28,-2.86,-1.84,-1.84,-1.84
225,0.23,2.09,0.24,2.09,-2.09,-2.82,-1.86,-1.85,-1.85
227,0.05,1.92,0.04,1.90,-1.90,-2.77,-1.85,-1.87,-1.86
229,-0.10,1.78,-0.15,1.73,-1.73,-2.74,-1.83,-1.88,-1.87
232,-0.36,1.53,-0.32,1.56,-1.56,-2.68,-1.92,-1.89,-1.89
234,-0.49,1.41,-0.49,1.41,-1.41,-2.64,-1.90,-1.90,-1.90
236,-0.61,1.30,-0.63,1.27,-1.27,-2.61,-1.88,-1.91,-1.90
239,-0.78,1.14,-0.76,1.16,-1.16,-2.56,-1.93,-1.92,-1.92
241,-0.90,1.03,-0.87,1.06,-1.06,-2.53,-1.95,-1.93,-1.92
244,-0.99,0.95,-0.96,0.98,-0.98,-2.48,-1.96,-1.93,-1.94
246,-1.03,0.91,-1.03,0.92,-0.92,-2.45,-1.95,-1.94,-1.94
248,-1.04,0.91,-1.07,0.88,-0.88,-2.42,-1.92,-1.95,-1.95
251,-1.11,0.85,-1.10,0.86,-0.86,-2.38,-1.97,-1.96,-1.96
253,-1.14,0.83,-1.12,0.85,-0.85,-2.35,-1.99,-1.97,-1.97
256,-1.14,0.84,-1.11,0.86,-0.86,-2.31,-2.00,-1.98,-1.98
259,-1.07,0.92,-1.10,0.89,-0.89,-2.27,-1.96,-1.98,-1.99
261,-1.04,0.95,-1.07,0.92,-0.92,-2.24,-1.96,-1.99,-1.99
264,-1.03,0.97,-1.03,0.97,-0.97,-2.21,-2.00,-2.00,-2.00
266,-1.03,0.98,-0.99,1.02,-1.02,-2.18,-2.05,-2.01,-2.00
269,-0.89,1.12,-0.94,1.07,-1.07,-2.15,-1.96,-2.01,-2.01
272,-0.89,1.13,-0.88,1.14,-1.14,-2.11,-2.03,-2.02,-2.02
274,-0.88,1.15,-0.82,1.20,-1.20,-2.09,-2.08,-2.03,-2.02
277,-0.74,1.29,-0.76,1.27,-1.27,-2.06,-2.01,-2.03,-2.03
280,-0.70,1.34,-0.70,1.33,-1.33,-2.03,-2.03,-2.04,-2.04
283,-0.60,1.45,-0.64,1.40,-1.40,-2.00,-2.00,-2.04,-2.04
286,-0.60,1.45,-0.58,1.47,-1.47,-1.97,-2.06,-2.05,-2.05
288,-0.55,1.51,-0.53,1.53,-1.53,-1.95,-2.08,-2.06,-2.05
291,-0.46,1.60,-0.47,1.59,-1.59,-1.93,-2.05,-2.06,-2.06
294,-0.43,1.64,-0.42,1.65,-1.65,-1.90,-2.08,-2.07,-2.07
297,-0.35,1.72,-0.37,1.70,-1.70,-1.88,-2.05,-2.07,-2.07
300,-0.32,1.76,-0.32,1.76,-1.76,-1.86,-2.07,-2.08,-2.08
303,-0.32,1.76,-0.27,1.81,-1.81,-1.84,-2.13,-2.08,-2.08
306,-0.20,1.89,-0.23,1.85,-1.85,-1.82,-2.05,-2.09,-2.09
309,-0.18,1.91,-0.19,1.90,-1.90,-1.80,-2.08,-2.09,-2.09
312,-0.18,1.92,-0.15,1.94,-1.94,-1.78,-2.12,-2.10,-2.10
316,-0.14,1.96,-0.12,1.98,-1.98,-1.76,-2.12,-2.10,-2.10
319,-0.04,2.07,-0.09,2.01,-2.01,-1.74,-2.05,-2.10,-2.10
322,-0.04,2.07,-0.06,2.05,-2.05,-1.73,-2.09,-2.11,-2.11
325,-0.04,2.07,-0.04,2.08,-2.08,-1.72,-2.12,-2.11,-2.11
328,-0.04,2.08,-0.01,2.11,-2.11,-1.71,-2.15,-2.12,-2.12
332,-0.03,2.09,0.01,2.13,-2.13,-1.69,-2.16,-2.12,-2.12
335,0.02,2.14,0.04,2.16,-2.16,-1.68,-2.14,-2.12,-2.12
338,0.07,2.20,0.06,2.19,-2.19,-1.68,-2.11,-2.13,-2.13
342,0.11,2.24,0.08,2.21,-2.21,-1.67,-2.10,-2.13,-2.13
345,0.11,2.24,0.09,2.23,-2.23,-1.66,-2.11,-2.13,-2.13
349,0.11,2.25,0.10,2.24,-2.24,-1.66,-2.13,-2.14,-2.14
352,0.11,2.25,0.11,2.25,-2.25,-1.65,-2.14,-2.14,-2.14
356,0.10,2.25,0.11,2.25,-2.25,-1.65,-2.15,-2.14,-2.14
359,0.10,2.25,0.11,2.26,-2.26,-1.65,-2.16,-2.15,-2.15
363,0.10,2.25,0.11,2.26,-2.26,-1.65,-2.16,-2.15,-2.15
366,0.10,2.25,0.11,2.26,-2.26,-1.65,-2.16,-2.15,-2.15
370,0.10,2.26,0.10,2.26,-2.26,-1.65,-2.16,-2.16,-2.16
374,0.10,2.26,0.10,2.26,-2.26,-1.65,-2.16,-2.16,-2.16
377,0.10,2.26,0.10,2.27,-2.27,-1.66,-2.17,-2.16,-2.16
381,0.10,2.27,0.10,2.27,-2.27,-1.66,-2.17,-2.17,-2.17
385,0.10,2.27,0.10,2.27,-2.27,-1.67,-2.17,-2.17,-2.17
389,0.10,2.27,0.10,2.27,-2.27,-1.67,-2.17,-2.17,-2.17
393,0.10,2.28,0.09,2.27,-2.27,-1.68,-2.17,-2.17,-2.17
397,0.10,2.28,0.08,2.26,-2.26,-1.69,-2.16,-2.18,-2.18
401,0.07,2.25,0.07,2.25,-2.25,-1.70,-2.18,-2.18,-2.18
405,0.06,2.24,0.06,2.24,-2.24,-1.71,-2.18,-2.18,-2.18
409,0.03,2.22,0.04,2.23,-2.23,-1.72,-2.20,-2.19,-2.19
413,0.02,2.21,0.03,2.21,-2.21,-1.73,-2.19,-2.19,-2.19
417,0.01,2.20,0.01,2.20,-2.20,-1.74,-2.19,-2.19,-2.19
421,-0.02,2.17,-0.01,2.18,-2.18,-1.75,-2.20,-2.19,-2.19
425,-0.02,2.17,-0.03,2.16,-2.16,-1.76,-2.18,-2.19,-2.19
430,-0.06,2.13,-0.05,2.14,-2.14,-1.77,-2.20,-2.19,-2.19
434,-0.06,2.13,-0.07,2.12,-2.12,-1.78,-2.18,-2.19,-2.19
438,-0.06,2.13,-0.09,2.10,-2.10,-1.78,-2.16,-2.19,-2.19
443,-0.12,2.07,-0.10,2.08,-2.08,-1.79,-2.20,-2.19,-2.19
447,-0.14,2.05,-0.12,2.06,-2.06,-1.80,-2.20,-2.19,-2.19
451,-0.14,2.04,-0.14,2.04,-2.04,-1.81,-2.18,-2.18,-2.18
456,-0.15,2.03,-0.15,2.03,-2.03,-1.81,-2.17,-2.18,-2.18
460,-0.18,1.99,-0.17,2.01,-2.01,-1.82,-2.19,-2.17,-2.17
465,-0.19,1.98,-0.18,1.99,-1.99,-1.82,-2.18,-2.17,-2.17
470,-0.18,1.98,-0.19,1.97,-1.97,-1.82,-2.15,-2.16,-2.16
474,-0.18,1.97,-0.20,1.95,-1.95,-1.82,-2.13,-2.15,-2.15
479,-0.21,1.93,-0.21,1.93,-1.93,-1.82,-2.14,-2.14,-2.14
484,-0.23,1.90,-0.22,1.91,-1.91,-1.81,-2.14,-2.13,-2.13
489,-0.26,1.86,-0.23,1.89,-1.89,-1.81,-2.15,-2.12,-2.12
494,-0.25,1.86,-0.24,1.87,-1.87,-1.80,-2.11,-2.11,-2.11
499,-0.23,1.87,-0.26,1.84,-1.84,-1.79,-2.07,-2.10,-2.10
504,-0.24,1.84,-0.27,1.81,-1.81,-1.77,-2.05,-2.08,-2.08
509,-0.30,1.77,-0.28,1.78,-1.78,-1.76,-2.08,-2.07,-2.07
514,-0.34,1.71,-0.30,1.75,-1.75,-1.74,-2.09,-2.05,-2.05
519,-0.32,1.71,-0.31,1.72,-1.72,-1.72,-2.04,-2.03,-2.03
524,-0.30,1.71,-0.33,1.68,-1.68,-1.70,-1.98,-2.01,-2.01
529,-0.33,1.66,-0.35,1.65,-1.65,-1.68,-1.98,-1.99,-1.99
535,-0.40,1.57,-0.36,1.61,-1.61,-1.65,-2.01,-1.97,-1.97
540,-0.37,1.58,-0.38,1.57,-1.57,-1.63,-1.94,-1.95,-1.95
545,-0.37,1.56,-0.40,1.53,-1.53,-1.60,-1.89,-1.93,-1.93
551,-0.45,1.46,-0.42,1.48,-1.48,-1.57,-1.93,-1.91,-1.91
556,-0.45,1.43,-0.44,1.44,-1.44,-1.54,-1.89,-1.88,-1.88
562,-0.45,1.41,-0.46,1.39,-1.39,-1.50,-1.84,-1.86,-1.86
568,-0.51,1.32,-0.48,1.35,-1.35,-1.46,-1.86,-1.83,-1.83
573,-0.51,1.29,-0.50,1.31,-1.31,-1.43,-1.81,-1.80,-1.80
579,-0.51,1.27,-0.51,1.26,-1.26,-1.40,-1.77,-1.78,-1.78
585,-0.50,1.25,-0.53,1.22,-1.22,-1.36,-1.72,-1.75,-1.75
591,-0.57,1.15,-0.54,1.17,-1.17,-1.32,-1.74,-1.72,-1.72
596,-0.56,1.13,-0.56,1.13,-1.13,-1.29,-1.69,-1.69,-1.69
602,-0.55,1.11,-0.58,1.08,-1.08,-1.25,-1.63,-1.66,-1.66
608,-0.61,1.02,-0.60,1.03,-1.03,-1.21,-1.64,-1.63,-1.63
615,-0.61,0.99,-0.62,0.98,-0.98,-1.16,-1.59,-1.60,-1.60
621,-0.66,0.91,-0.64,0.93,-0.93,-1.13,-1.59,-1.56,-1.56
627,-0.69,0.84,-0.66,0.87,-0.87,-1.09,-1.56,-1.53,-1.53
633,-0.67,0.83,-0.68,0.81,-0.81,-1.05,-1.48,-1.50,-1.50
639,-0.72,0.75,-0.71,0.75,-0.75,-1.02,-1.47,-1.47,-1.47
646,-0.74,0.69,-0.74,0.69,-0.69,-0.97,-1.43,-1.43,-1.43
652,-0.76,0.64,-0.78,0.61,-0.61,-0.94,-1.37,-1.40,-1.40
659,-0.81,0.55,-0.83,0.53,-0.53,-0.90,-1.34,-1.36,-1.36
665,-0.87,0.46,-0.88,0.44,-0.44,-0.86,-1.31,-1.33,-1.33
672,-0.92,0.37,-0.94,0.35,-0.35,-0.82,-1.27,-1.29,-1.29
679,-0.99,0.26,-1.00,0.26,-0.26,-0.78,-1.25,-1.25,-1.25
686,-1.08,0.14,-1.05,0.16,-0.16,-0.75,-1.24,-1.22,-1.22
692,-1.13,0.05,-1.10,0.08,-0.08,-0.71,-1.21,-1.18,-1.18
699,-1.15,-0.01,-1.15,-0.00,0.00,-0.68,-1.14,-1.14,-1.14
706,-1.21,-0.10,-1.18,-0.08,0.08,-0.64,-1.13,-1.10,-1.10
713,-1.21,-0.14,-1.21,-0.14,0.14,-0.61,-1.07,-1.07,-1.07
721,-1.25,-0.22,-1.22,-0.19,0.19,-0.57,-1.06,-1.03,-1.03
728,-1.26,-0.27,-1.23,-0.24,0.24,-0.54,-1.02,-0.99,-0.99
735,-1.22,-0.27,-1.24,-0.29,0.29,-0.50,-0.93,-0.95,-0.95
742,-1.20,-0.28,-1.25,-0.34,0.34,-0.47,-0.86,-0.92,-0.92
750,-1.23,-0.35,-1.27,-0.39,0.39,-0.44,-0.84,-0.88,-0.88
757,-1.24,-0.40,-1.28,-0.44,0.44,-0.41,-0.80,-0.84,-0.84
765,-1.30,-0.49,-1.29,-0.49,0.49,-0.37,-0.81,-0.81,-0.81
773,-1.38,-0.61,-1.31,-0.54,0.54,-0.34,-0.84,-0.77,-0.77
780,-1.35,-0.62,-1.32,-0.59,0.59,-0.31,-0.76,-0.73,-0.73
788,-1.31,-0.61,-1.32,-0.63,0.63,-0.28,-0.68,-0.70,-0.70
796,-1.31,-0.65,-1.32,-0.66,0.66,-0.25,-0.65,-0.66,-0.66
804,-1.31,-0.68,-1.31,-0.69,0.69,-0.22,-0.62,-0.63,-0.63
812,-1.29,-0.69,-1.30,-0.70,0.70,-0.19,-0.59,-0.59,-0.59
820,-1.29,-0.73,-1.27,-0.71,0.71,-0.16,-0.58,-0.56,-0.56
828,-1.25,-0.72,-1.24,-0.71,0.71,-0.13,-0.53,-0.53,-0.53
837,-1.21,-0.71,-1.21,-0.71,0.71,-0.10,-0.50,-0.50,-0.50
845,-1.18,-0.71,-1.16,-0.70,0.70,-0.08,-0.48,-0.47,-0.47
853,-1.10,-0.66,-1.12,-0.68,0.68,-0.05,-0.42,-0.44,-0.44
862,-1.06,-0.65,-1.06,-0.66,0.66,-0.03,-0.40,-0.41,-0.41
871,-1.01,-0.63,-1.01,-0.63,0.63,-0.00,-0.38,-0.38,-0.38
879,-0.96,-0.61,-0.95,-0.60,0.60,0.02,-0.36,-0.35,-0.35
888,-0.87,-0.55,-0.89,-0.57,0.57,0.04,-0.30,-0.32,-0.32
897,-0.83,-0.54,-0.82,-0.53,0.53,0.06,-0.30,-0.29,-0.29
906,-0.74,-0.48,-0.75,-0.49,0.49,0.08,-0.25,-0.26,-0.26
915,-0.71,-0.47,-0.68,-0.45,0.45,0.10,-0.26,-0.24,-0.24
924,-0.61,-0.40,-0.61,-0.40,0.40,0.12,-0.21,-0.21,-0.21
933,-0.51,-0.33,-0.54,-0.36,0.36,0.13,-0.15,-0.18,-0.18
943,-0.48,-0.32,-0.47,-0.31,0.31,0.15,-0.17,-0.16,-0.16
952,-0.40,-0.27,-0.39,-0.26,0.26,0.16,-0.13,-0.13,-0.13
962,-0.30,-0.20,-0.32,-0.22,0.22,0.17,-0.08,-0.10,-0.10
971,-0.26,-0.18,-0.24,-0.17,0.17,0.18,-0.09,-0.08,-0.08
981,-0.19,-0.14,-0.16,-0.12,0.12,0.19,-0.07,-0.05,-0.05
991,-0.10,-0.08,-0.09,-0.07,0.07,0.19,-0.03,-0.02,-0.02
1001,0.01,0.01,-0.01,-0.02,0.02,0.20,0.03,0.00,0.00
1011,0.09,0.06,0.06,0.03,-0.03,0.20,0.06,0.03,0.03
1021,0.15,0.09,0.13,0.08,-0.08,0.20,0.07,0.06,0.06
1031,0.19,0.11,0.21,0.12,-0.12,0.20,0.07,0.09,0.09
1041,0.26,0.15,0.28,0.16,-0.16,0.20,0.10,0.11,0.11
1052,0.31,0.17,0.35,0.20,-0.20,0.19,0.11,0.14,0.14
1062,0.44,0.27,0.41,0.24,-0.24,0.19,0.20,0.17,0.17
1073,0.50,0.30,0.48,0.28,-0.28,0.18,0.22,0.20,0.20
1084,0.54,0.31,0.55,0.32,-0.32,0.17,0.22,0.23,0.23
1094,0.63,0.37,0.62,0.36,-0.36,0.16,0.27,0.26,0.26
1105,0.67,0.39,0.69,0.40,-0.40,0.15,0.27,0.29,0.29
1116,0.72,0.41,0.75,0.44,-0.44,0.14,0.28,0.32,0.32
1128,0.82,0.47,0.82,0.48,-0.48,0.13,0.35,0.35,0.35
1139,0.90,0.52,0.89,0.51,-0.51,0.11,0.39,0.38,0.38
1150,0.96,0.55,0.95,0.54,-0.54,0.10,0.42,0.41,0.41
1162,1.03,0.59,1.01,0.57,-0.57,0.08,0.46,0.44,0.44
1173,1.08,0.61,1.06,0.59,-0.59,0.07,0.49,0.47,0.47
1185,1.11,0.61,1.12,0.62,-0.62,0.05,0.49,0.50,0.50
1197,1.14,0.61,1.17,0.64,-0.64,0.03,0.51,0.53,0.53
1209,1.20,0.63,1.22,0.65,-0.65,0.01,0.55,0.57,0.57
1221,1.26,0.66,1.27,0.67,-0.67,-0.01,0.59,0.60,0.60
1233,1.34,0.71,1.32,0.68,-0.68,-0.03,0.66,0.63,0.63
1246,1.38,0.71,1.36,0.69,-0.69,-0.05,0.69,0.67,0.67
1258,1.41,0.71,1.41,0.71,-0.71,-0.07,0.71,0.70,0.70
1271,1.45,0.72,1.45,0.72,-0.72,-0.09,0.74,0.73,0.73
1283,1.48,0.71,1.49,0.72,-0.72,-0.11,0.76,0.77,0.77
1296,1.52,0.72,1.54,0.73,-0.73,-0.13,0.79,0.80,0.80
1309,1.58,0.74,1.58,0.74,-0.74,-0.15,0.84,0.84,0.84
1322,1.62,0.75,1.63,0.75,-0.75,-0.17,0.87,0.88,0.88
1335,1.67,0.76,1.67,0.76,-0.76,-0.19,0.91,0.91,0.91
1349,1.73,0.78,1.72,0.77,-0.77,-0.22,0.96,0.95,0.95
1362,1.77,0.79,1.76,0.78,-0.78,-0.24,0.99,0.98,0.98
1376,1.81,0.79,1.81,0.79,-0.79,-0.26,1.03,1.02,1.02
1390,1.85,0.79,1.85,0.79,-0.79,-0.28,1.06,1.06,1.06
1404,1.89,0.79,1.89,0.79,-0.79,-0.30,1.10,1.10,1.10
1418,1.92,0.79,1.93,0.79,-0.79,-0.33,1.13,1.14,1.14
1432,1.96,0.79,1.96,0.79,-0.79,-0.35,1.17,1.17,1.17
1446,2.00,0.79,2.00,0.79,-0.79,-0.37,1.21,1.21,1.21
1461,2.04,0.79,2.04,0.79,-0.79,-0.40,1.25,1.25,1.25
1475,2.08,0.79,2.08,0.78,-0.78,-0.42,1.30,1.29,1.29
1490,2.12,0.79,2.12,0.78,-0.78,-0.44,1.34,1.33,1.33
1505,2.16,0.79,2.16,0.78,-0.78,-0.47,1.38,1.37,1.37
1520,2.20,0.79,2.20,0.79,-0.79,-0.49,1.41,1.42,1.42
1535,2.24,0.78,2.25,0.79,-0.79,-0.51,1.45,1.46,1.46
1550,2.29,0.79,2.30,0.80,-0.80,-0.54,1.49,1.50,1.50
1566,2.35,0.81,2.35,0.81,-0.81,-0.56,1.54,1.54,1.54
1582,2.40,0.82,2.41,0.82,-0.82,-0.59,1.58,1.58,1.58
1597,2.46,0.83,2.46,0.84,-0.84,-0.61,1.62,1.63,1.63
1613,2.53,0.86,2.52,0.85,-0.85,-0.63,1.68,1.67,1.67
1629,2.60,0.89,2.58,0.87,-0.87,-0.66,1.73,1.71,1.71
1646,2.66,0.90,2.65,0.89,-0.89,-0.68,1.77,1.76,1.76
1662,2.71,0.91,2.71,0.91,-0.91,-0.71,1.80,1.80,1.80
1679,2.75,0.90,2.78,0.93,-0.93,-0.74,1.82,1.85,1.85
1696,2.84,0.94,2.85,0.95,-0.95,-0.76,1.89,1.90,1.90
1713,2.92,0.98,2.92,0.98,-0.98,-0.79,1.94,1.94,1.94
1730,3.01,1.02,3.00,1.01,-1.01,-0.81,2.00,1.99,1.99
1747,3.09,1.05,3.08,1.04,-1.04,-0.84,2.05,2.04,2.04
1764,3.13,1.04,3.16,1.07,-1.07,-0.86,2.06,2.09,2.09
1782,3.21,1.07,3.24,1.10,-1.10,-0.89,2.11,2.14,2.14
1800,3.36,1.17,3.32,1.13,-1.13,-0.92,2.23,2.19,2.19
