frequency,raw,error,smoothed,error_smoothed,equalization,parametric_eq,equalized_raw,equalized_smoothed,target
20,4.87,-0.60,4.93,-0.49,0.49,-0.56,5.36,5.42,5.47
21,5.09,-0.37,5.17,-0.24,0.24,-0.64,5.33,5.42,5.46
22,5.35,-0.10,5.40,-0.01,0.01,-0.73,5.36,5.41,5.45
23,5.59,0.14,5.62,0.21,-0.21,-0.82,5.38,5.41,5.45
24,5.84,0.40,5.82,0.41,-0.41,-0.91,5.43,5.41,5.44
25,6.09,0.66,6.01,0.61,-0.61,-1.01,5.48,5.40,5.43
26,6.30,0.88,6.19,0.79,-0.79,-1.11,5.51,5.39,5.42
27,6.48,1.07,6.35,0.97,-0.97,-1.21,5.51,5.39,5.41
28,6.66,1.26,6.50,1.13,-1.13,-1.30,5.53,5.38,5.40
29,6.76,1.37,6.64,1.27,-1.27,-1.39,5.49,5.37,5.39
30,6.80,1.42,6.76,1.41,-1.41,-1.46,5.39,5.36,5.38
31,6.80,1.44,6.86,1.52,-1.52,-1.52,5.28,5.34,5.36
32,6.85,1.50,6.94,1.62,-1.62,-1.58,5.23,5.32,5.35
33,6.89,1.56,7.01,1.70,-1.70,-1.62,5.19,5.31,5.33
34,7.00,1.68,7.07,1.78,-1.78,-1.66,5.22,5.30,5.32
35,7.10,1.80,7.13,1.85,-1.85,-1.70,5.25,5.28,5.30
36,7.18,1.90,7.17,1.91,-1.91,-1.74,5.27,5.26,5.28
37,7.24,1.97,7.22,1.98,-1.98,-1.78,5.26,5.23,5.27
38,7.31,2.06,7.26,2.05,-2.05,-1.82,5.26,5.21,5.25
39,7.37,2.14,7.32,2.13,-2.13,-1.86,5.24,5.19,5.23
40,7.41,2.20,7.38,2.20,-2.20,-1.92,5.21,5.17,5.21
41,7.47,2.29,7.44,2.28,-2.28,-1.98,5.19,5.16,5.18
42,7.50,2.34,7.50,2.36,-2.36,-2.04,5.14,5.14,5.16
43,7.50,2.36,7.56,2.44,-2.44,-2.12,5.06,5.12,5.14
44,7.50,2.39,7.61,2.52,-2.52,-2.20,4.98,5.09,5.11
45,7.56,2.48,7.66,2.60,-2.60,-2.28,4.96,5.06,5.08
46,7.65,2.59,7.71,2.67,-2.67,-2.37,4.98,5.04,5.06
47,7.78,2.75,7.75,2.74,-2.74,-2.47,5.04,5.01,5.03
48,7.85,2.85,7.79,2.81,-2.81,-2.57,5.04,4.98,5.00
49,7.93,2.96,7.82,2.87,-2.87,-2.68,5.06,4.95,4.97
50,7.93,2.99,7.85,2.93,-2.93,-2.79,5.00,4.92,4.94
51,7.93,3.03,7.87,2.99,-2.99,-2.90,4.94,4.89,4.90
52,7.89,3.02,7.89,3.03,-3.03,-3.01,4.86,4.86,4.87
53,7.89,3.05,7.91,3.08,-3.08,-3.12,4.81,4.83,4.84
54,7.89,3.09,7.91,3.12,-3.12,-3.23,4.77,4.80,4.80
55,7.85,3.09,7.90,3.15,-3.15,-3.33,4.70,4.75,4.76
56,7.84,3.12,7.89,3.19,-3.19,-3.43,4.65,4.71,4.72
57,7.87,3.18,7.89,3.22,-3.22,-3.53,4.65,4.67,4.69
58,7.89,3.25,7.88,3.25,-3.25,-3.61,4.64,4.63,4.64
59,7.89,3.29,7.88,3.29,-3.29,-3.69,4.60,4.59,4.60
60,7.89,3.33,7.89,3.33,-3.33,-3.76,4.56,4.55,4.56
61,7.89,3.37,7.89,3.38,-3.38,-3.82,4.51,4.51,4.52
62,7.89,3.42,7.90,3.43,-3.43,-3.87,4.46,4.47,4.47
63,7.89,3.46,7.91,3.48,-3.48,-3.91,4.41,4.42,4.43
64,7.93,3.55,7.91,3.53,-3.53,-3.95,4.40,4.38,4.38
65,7.96,3.62,7.93,3.59,-3.59,-3.97,4.37,4.34,4.34
66,7.97,3.68,7.94,3.65,-3.65,-4.00,4.32,4.29,4.29
67,7.93,3.69,7.94,3.71,-3.71,-4.01,4.22,4.24,4.24
68,7.93,3.74,7.95,3.76,-3.76,-4.02,4.17,4.19,4.19
69,7.93,3.79,7.96,3.82,-3.82,-4.03,4.11,4.14,4.14
70,7.93,3.84,7.97,3.87,-3.87,-4.03,4.06,4.09,4.09
71,7.97,3.93,7.97,3.93,-3.93,-4.04,4.04,4.04,4.04
72,7.97,3.98,7.97,3.98,-3.98,-4.04,3.99,3.99,3.99
73,8.02,4.08,7.96,4.03,-4.03,-4.04,3.99,3.93,3.94
74,8.02,4.13,7.96,4.08,-4.08,-4.05,3.94,3.87,3.89
75,7.97,4.13,7.95,4.13,-4.13,-4.05,3.84,3.82,3.84
76,7.97,4.18,7.95,4.19,-4.19,-4.06,3.78,3.77,3.79
77,7.93,4.20,7.96,4.24,-4.24,-4.07,3.69,3.72,3.73
78,7.93,4.25,7.96,4.30,-4.30,-4.08,3.63,3.66,3.68
79,7.91,4.28,7.96,4.35,-4.35,-4.10,3.56,3.61,3.63
80,7.93,4.36,7.97,4.41,-4.41,-4.12,3.52,3.56,3.57
81,7.93,4.41,7.97,4.47,-4.47,-4.15,3.46,3.50,3.52
82,7.97,4.51,7.97,4.52,-4.52,-4.17,3.45,3.45,3.46
83,7.98,4.57,7.98,4.58,-4.58,-4.21,3.40,3.40,3.41
84,8.02,4.66,7.98,4.64,-4.64,-4.24,3.38,3.34,3.36
85,8.03,4.73,7.99,4.70,-4.70,-4.28,3.33,3.29,3.30
86,8.04,4.79,7.99,4.75,-4.75,-4.33,3.29,3.24,3.25
87,8.02,4.82,7.99,4.80,-4.80,-4.38,3.22,3.19,3.20
88,8.01,4.87,7.99,4.85,-4.85,-4.43,3.16,3.13,3.14
89,7.97,4.88,7.98,4.90,-4.90,-4.48,3.07,3.08,3.09
90,7.95,4.91,7.98,4.95,-4.95,-4.54,3.00,3.03,3.04
91,7.93,4.95,7.97,4.99,-4.99,-4.61,2.94,2.98,2.98
92,7.93,5.00,7.96,5.04,-5.04,-4.67,2.89,2.92,2.93
93,7.93,5.05,7.95,5.08,-5.08,-4.74,2.85,2.87,2.88
94,7.93,5.10,7.93,5.12,-5.12,-4.81,2.81,2.81,2.83
95,7.95,5.18,7.93,5.16,-5.16,-4.89,2.79,2.76,2.77
96,7.95,5.23,7.92,5.21,-5.21,-4.97,2.74,2.71,2.72
97,7.93,5.26,7.92,5.26,-5.26,-5.05,2.67,2.66,2.67
98,7.93,5.31,7.92,5.31,-5.31,-5.13,2.62,2.61,2.62
99,7.93,5.36,7.92,5.36,-5.36,-5.21,2.57,2.56,2.57
100,7.90,5.38,7.92,5.42,-5.42,-5.30,2.48,2.50,2.52
101,7.89,5.42,7.92,5.47,-5.47,-5.39,2.42,2.45,2.47
102,7.89,5.47,7.92,5.52,-5.52,-5.47,2.37,2.40,2.42
104,7.93,5.60,7.92,5.58,-5.58,-5.65,2.35,2.34,2.33
105,7.93,5.65,7.92,5.63,-5.63,-5.74,2.30,2.29,2.28
106,7.93,5.69,7.92,5.68,-5.68,-5.82,2.25,2.24,2.24
107,7.93,5.74,7.92,5.73,-5.73,-5.91,2.20,2.19,2.19
108,7.93,5.78,7.93,5.78,-5.78,-6.00,2.15,2.15,2.15
109,7.93,5.83,7.92,5.82,-5.82,-6.08,2.11,2.10,2.10
110,7.93,5.87,7.92,5.87,-5.87,-6.16,2.06,2.05,2.06
111,7.93,5.92,7.92,5.91,-5.91,-6.24,2.02,2.01,2.01
112,7.91,5.94,7.91,5.94,-5.94,-6.32,1.97,1.96,1.97
113,7.89,5.96,7.90,5.98,-5.98,-6.39,1.91,1.92,1.93
114,7.89,6.00,7.88,6.01,-6.01,-6.46,1.88,1.87,1.89
115,7.89,6.04,7.87,6.05,-6.05,-6.52,1.84,1.83,1.85
117,7.84,6.07,7.86,6.07,-6.07,-6.64,1.77,1.78,1.77
118,7.84,6.11,7.84,6.10,-6.10,-6.70,1.74,1.74,1.73
119,7.81,6.12,7.82,6.13,-6.13,-6.74,1.68,1.69,1.69
120,7.80,6.15,7.80,6.16,-6.16,-6.79,1.64,1.65,1.65
121,7.80,6.19,7.79,6.18,-6.18,-6.82,1.62,1.60,1.61
123,7.76,6.22,7.77,6.21,-6.21,-6.88,1.55,1.55,1.54
124,7.76,6.25,7.75,6.24,-6.24,-6.91,1.52,1.51,1.51
125,7.75,6.28,7.73,6.26,-6.26,-6.92,1.49,1.46,1.47
126,7.71,6.27,7.71,6.29,-6.29,-6.94,1.42,1.42,1.44
128,7.67,6.30,7.69,6.32,-6.32,-6.95,1.35,1.38,1.37
129,7.67,6.33,7.68,6.35,-6.35,-6.95,1.32,1.34,1.34
130,7.67,6.36,7.67,6.38,-6.38,-6.94,1.29,1.30,1.31
131,7.65,6.37,7.66,6.41,-6.41,-6.93,1.24,1.26,1.28
133,7.63,6.41,7.65,6.44,-6.44,-6.90,1.19,1.22,1.22
134,7.63,6.44,7.64,6.47,-6.47,-6.88,1.16,1.18,1.19
135,7.63,6.47,7.64,6.49,-6.49,-6.86,1.14,1.14,1.16
137,7.63,6.53,7.62,6.52,-6.52,-6.81,1.11,1.10,1.10
138,7.63,6.56,7.61,6.54,-6.54,-6.78,1.09,1.07,1.07
140,7.63,6.61,7.60,6.57,-6.57,-6.72,1.06,1.03,1.02
141,7.61,6.61,7.58,6.59,-6.59,-6.69,1.02,0.99,1.00
142,7.58,6.61,7.56,6.60,-6.60,-6.65,0.98,0.96,0.97
144,7.54,6.62,7.54,6.62,-6.62,-6.58,0.92,0.92,0.92
145,7.53,6.63,7.51,6.63,-6.63,-6.55,0.90,0.88,0.90
147,7.48,6.63,7.49,6.64,-6.64,-6.48,0.84,0.85,0.85
148,7.45,6.62,7.47,6.65,-6.65,-6.45,0.80,0.82,0.83
150,7.42,6.63,7.44,6.66,-6.66,-6.38,0.76,0.78,0.79
151,7.41,6.65,7.42,6.67,-6.67,-6.35,0.74,0.75,0.76
153,7.37,6.65,7.40,6.68,-6.68,-6.29,0.69,0.72,0.72
154,7.37,6.67,7.39,6.70,-6.70,-6.26,0.67,0.69,0.70
156,7.37,6.71,7.37,6.71,-6.71,-6.20,0.66,0.66,0.66
157,7.37,6.72,7.36,6.73,-6.73,-6.18,0.64,0.64,0.65
159,7.37,6.76,7.35,6.74,-6.74,-6.13,0.63,0.61,0.61
160,7.37,6.78,7.34,6.76,-6.76,-6.11,0.61,0.58,0.59
162,7.32,6.76,7.33,6.77,-6.77,-6.07,0.55,0.56,0.56
164,7.32,6.80,7.31,6.78,-6.78,-6.04,0.54,0.53,0.52
165,7.31,6.80,7.30,6.80,-6.80,-6.03,0.51,0.50,0.51
167,7.28,6.80,7.28,6.81,-6.81,-6.01,0.47,0.48,0.48
169,7.28,6.83,7.27,6.82,-6.82,-5.99,0.46,0.45,0.45
170,7.25,6.82,7.25,6.83,-6.83,-5.99,0.42,0.43,0.43
172,7.24,6.84,7.24,6.84,-6.84,-5.98,0.40,0.40,0.40
174,7.19,6.81,7.22,6.85,-6.85,-5.98,0.34,0.38,0.38
175,7.19,6.83,7.21,6.86,-6.86,-5.98,0.33,0.35,0.36
177,7.19,6.85,7.20,6.87,-6.87,-5.99,0.32,0.33,0.34
179,7.19,6.88,7.19,6.88,-6.88,-6.01,0.31,0.31,0.31
181,7.19,6.90,7.18,6.89,-6.89,-6.03,0.30,0.29,0.29
183,7.19,6.92,7.18,6.91,-6.91,-6.05,0.28,0.27,0.27
184,7.19,6.93,7.17,6.92,-6.92,-6.07,0.27,0.25,0.26
186,7.15,6.91,7.16,6.93,-6.93,-6.10,0.22,0.23,0.24
188,7.15,6.93,7.16,6.95,-6.95,-6.14,0.20,0.21,0.22
190,7.15,6.95,7.15,6.96,-6.96,-6.18,0.19,0.20,0.20
192,7.15,6.97,7.15,6.97,-6.97,-6.22,0.18,0.18,0.18
194,7.13,6.97,7.13,6.97,-6.97,-6.27,0.16,0.16,0.16
196,7.11,6.97,7.12,6.98,-6.98,-6.33,0.13,0.14,0.14
198,7.11,6.99,7.10,6.98,-6.98,-6.38,0.13,0.12,0.12
200,7.11,7.00,7.08,6.98,-6.98,-6.44,0.13,0.10,0.11
202,7.06,6.97,7.06,6.97,-6.97,-6.50,0.09,0.09,0.09
204,7.06,6.98,7.04,6.97,-6.97,-6.56,0.09,0.07,0.08
206,7.02,6.96,7.02,6.96,-6.96,-6.63,0.06,0.06,0.06
208,6.98,6.93,6.99,6.95,-6.95,-6.69,0.03,0.04,0.05
210,6.95,6.92,6.96,6.94,-6.94,-6.76,0.01,0.03,0.03
212,6.93,6.91,6.94,6.93,-6.93,-6.83,0.00,0.01,0.02
214,6.89,6.88,6.91,6.91,-6.91,-6.89,-0.02,0.00,0.01
216,6.89,6.90,6.89,6.90,-6.90,-6.95,-0.01,-0.01,-0.01
218,6.85,6.87,6.86,6.88,-6.88,-7.02,-0.03,-0.02,-0.02
221,6.83,6.86,6.83,6.87,-6.87,-7.11,-0.04,-0.04,-0.03
223,6.80,6.85,6.81,6.85,-6.85,-7.17,-0.05,-0.05,-0.05
225,6.80,6.86,6.78,6.84,-6.84,-7.22,-0.04,-0.06,-0.06
227,6.76,6.83,6.75,6.82,-6.82,-7.27,-0.06,-0.07,-0.07
229,6.74,6.82,6.72,6.80,-6.80,-7.32,-0.06,-0.08,-0.08
232,6.69,6.78,6.69,6.78,-6.78,-7.38,-0.09,-0.09,-0.09
234,6.67,6.77,6.66,6.76,-6.76,-7.42,-0.09,-0.10,-0.10
236,6.63,6.74,6.62,6.73,-6.73,-7.45,-0.10,-0.11,-0.11
239,6.58,6.70,6.59,6.71,-6.71,-7.48,-0.13,-0.12,-0.12
241,6.54,6.67,6.55,6.68,-6.68,-7.50,-0.14,-0.13,-0.13
244,6.50,6.64,6.51,6.65,-6.65,-7.51,-0.15,-0.14,-0.14
246,6.48,6.63,6.47,6.62,-6.62,-7.51,-0.14,-0.15,-0.15
248,6.43,6.58,6.44,6.60,-6.60,-7.51,-0.17,-0.16,-0.15
251,6.39,6.56,6.40,6.57,-6.57,-7.49,-0.18,-0.17,-0.17
253,6.37,6.54,6.36,6.54,-6.54,-7.47,-0.17,-0.18,-0.17
256,6.33,6.51,6.33,6.52,-6.52,-7.44,-0.19,-0.18,-0.18
259,6.28,6.47,6.30,6.49,-6.49,-7.39,-0.21,-0.19,-0.19
261,6.28,6.48,6.27,6.47,-6.47,-7.35,-0.19,-0.20,-0.20
264,6.24,6.45,6.24,6.44,-6.44,-7.28,-0.20,-0.21,-0.21
266,6.20,6.41,6.21,6.42,-6.42,-7.23,-0.22,-0.21,-0.21
269,6.17,6.39,6.18,6.40,-6.40,-7.15,-0.23,-0.22,-0.22
272,6.15,6.38,6.14,6.37,-6.37,-7.06,-0.22,-0.23,-0.23
274,6.11,6.34,6.11,6.35,-6.35,-7.00,-0.24,-0.23,-0.23
277,6.10,6.34,6.08,6.33,-6.33,-6.90,-0.23,-0.24,-0.24
280,6.07,6.32,6.05,6.30,-6.30,-6.80,-0.23,-0.25,-0.25
283,6.02,6.27,6.02,6.28,-6.28,-6.70,-0.26,-0.25,-0.25
286,5.98,6.24,5.99,6.25,-6.25,-6.59,-0.27,-0.26,-0.26
288,5.96,6.22,5.96,6.23,-6.23,-6.52,-0.27,-0.27,-0.26
291,5.93,6.20,5.93,6.20,-6.20,-6.41,-0.27,-0.27,-0.27
294,5.89,6.16,5.90,6.18,-6.18,-6.30,-0.29,-0.28,-0.27
297,5.85,6.13,5.87,6.15,-6.15,-6.20,-0.30,-0.28,-0.28
300,5.84,6.13,5.83,6.12,-6.12,-6.09,-0.28,-0.29,-0.29
303,5.81,6.10,5.80,6.09,-6.09,-5.98,-0.28,-0.29,-0.29
306,5.76,6.06,5.76,6.06,-6.06,-5.88,-0.30,-0.30,-0.30
309,5.74,6.04,5.73,6.03,-6.03,-5.78,-0.29,-0.30,-0.30
312,5.70,6.00,5.69,5.99,-5.99,-5.68,-0.29,-0.31,-0.30
316,5.65,5.96,5.65,5.95,-5.95,-5.56,-0.30,-0.31,-0.31
319,5.61,5.92,5.60,5.91,-5.91,-5.47,-0.30,-0.31,-0.31
322,5.56,5.87,5.56,5.87,-5.87,-5.38,-0.31,-0.31,-0.31
325,5.51,5.83,5.51,5.83,-5.83,-5.30,-0.32,-0.32,-0.32
328,5.46,5.78,5.47,5.79,-5.79,-5.22,-0.33,-0.32,-0.32
332,5.41,5.73,5.42,5.74,-5.74,-5.12,-0.33,-0.32,-0.32
335,5.37,5.69,5.37,5.69,-5.69,-5.04,-0.32,-0.32,-0.32
338,5.33,5.65,5.33,5.65,-5.65,-4.97,-0.32,-0.32,-0.32
342,5.27,5.59,5.28,5.60,-5.60,-4.89,-0.33,-0.32,-0.32
345,5.24,5.55,5.24,5.55,-5.55,-4.83,-0.31,-0.32,-0.31
349,5.18,5.49,5.19,5.51,-5.51,-4.75,-0.33,-0.31,-0.31
352,5.16,5.47,5.15,5.46,-5.46,-4.69,-0.30,-0.31,-0.31
356,5.10,5.41,5.10,5.41,-5.41,-4.63,-0.31,-0.31,-0.31
359,5.07,5.38,5.06,5.36,-5.36,-4.58,-0.29,-0.31,-0.31
363,5.00,5.30,5.01,5.32,-5.32,-4.52,-0.32,-0.31,-0.30
366,4.98,5.28,4.97,5.27,-5.27,-4.48,-0.29,-0.30,-0.30
370,4.92,5.22,4.92,5.22,-5.22,-4.43,-0.30,-0.30,-0.30
374,4.87,5.17,4.88,5.18,-5.18,-4.39,-0.31,-0.30,-0.30
377,4.83,5.12,4.84,5.13,-5.13,-4.35,-0.30,-0.29,-0.29
381,4.79,5.08,4.79,5.08,-5.08,-4.32,-0.29,-0.29,-0.29
385,4.74,5.02,4.74,5.03,-5.03,-4.28,-0.29,-0.29,-0.28
389,4.70,4.98,4.70,4.98,-4.98,-4.25,-0.28,-0.28,-0.28
393,4.66,4.94,4.65,4.93,-4.93,-4.22,-0.27,-0.28,-0.28
397,4.60,4.87,4.61,4.88,-4.88,-4.20,-0.28,-0.27,-0.27
401,4.57,4.83,4.56,4.82,-4.82,-4.18,-0.25,-0.26,-0.26
405,4.52,4.78,4.51,4.77,-4.77,-4.16,-0.25,-0.26,-0.26
409,4.47,4.72,4.46,4.71,-4.71,-4.14,-0.24,-0.25,-0.25
413,4.42,4.66,4.41,4.66,-4.66,-4.12,-0.24,-0.24,-0.24
417,4.35,4.59,4.36,4.60,-4.60,-4.11,-0.25,-0.24,-0.24
421,4.31,4.54,4.31,4.54,-4.54,-4.09,-0.23,-0.23,-0.23
425,4.27,4.49,4.26,4.48,-4.48,-4.08,-0.21,-0.22,-0.22
430,4.20,4.41,4.21,4.42,-4.42,-4.07,-0.22,-0.22,-0.21
434,4.15,4.35,4.16,4.36,-4.36,-4.06,-0.21,-0.21,-0.20
438,4.09,4.29,4.10,4.31,-4.31,-4.05,-0.22,-0.20,-0.20
443,4.05,4.24,4.05,4.25,-4.25,-4.03,-0.20,-0.19,-0.19
447,4.01,4.19,4.00,4.19,-4.19,-4.02,-0.18,-0.19,-0.18
451,3.96,4.14,3.95,4.13,-4.13,-4.01,-0.17,-0.18,-0.18
456,3.89,4.06,3.90,4.07,-4.07,-3.99,-0.18,-0.17,-0.17
460,3.85,4.01,3.85,4.01,-4.01,-3.98,-0.16,-0.17,-0.16
465,3.79,3.95,3.80,3.96,-3.96,-3.96,-0.17,-0.16,-0.16
470,3.75,3.90,3.75,3.90,-3.90,-3.93,-0.15,-0.15,-0.15
474,3.70,3.84,3.69,3.83,-3.83,-3.91,-0.13,-0.14,-0.14
479,3.64,3.78,3.64,3.77,-3.77,-3.89,-0.13,-0.13,-0.14
484,3.58,3.71,3.59,3.71,-3.71,-3.86,-0.13,-0.12,-0.13
489,3.53,3.65,3.53,3.64,-3.64,-3.82,-0.11,-0.11,-0.12
494,3.49,3.59,3.47,3.58,-3.58,-3.79,-0.09,-0.10,-0.10
499,3.42,3.51,3.42,3.51,-3.51,-3.75,-0.09,-0.09,-0.09
504,3.36,3.44,3.36,3.44,-3.44,-3.70,-0.08,-0.08,-0.08
509,3.31,3.37,3.31,3.37,-3.37,-3.66,-0.06,-0.07,-0.06
514,3.24,3.29,3.25,3.30,-3.30,-3.61,-0.06,-0.05,-0.05
519,3.18,3.22,3.19,3.23,-3.23,-3.55,-0.05,-0.04,-0.04
524,3.14,3.16,3.13,3.16,-3.16,-3.50,-0.02,-0.03,-0.02
529,3.09,3.10,3.08,3.09,-3.09,-3.44,-0.00,-0.02,-0.01
535,3.01,3.01,3.02,3.02,-3.02,-3.37,-0.01,-0.00,0.00
540,2.96,2.95,2.96,2.95,-2.95,-3.30,0.01,0.01,0.01
545,2.91,2.88,2.90,2.88,-2.88,-3.24,0.03,0.02,0.03
551,2.84,2.80,2.84,2.80,-2.80,-3.16,0.04,0.04,0.04
556,2.79,2.74,2.78,2.73,-2.73,-3.09,0.06,0.06,0.05
562,2.72,2.65,2.72,2.65,-2.65,-3.01,0.07,0.07,0.07
568,2.66,2.58,2.66,2.57,-2.57,-2.93,0.09,0.09,0.08
573,2.61,2.51,2.60,2.50,-2.50,-2.86,0.11,0.11,0.10
579,2.54,2.42,2.54,2.42,-2.42,-2.77,0.12,0.12,0.12
585,2.48,2.34,2.48,2.34,-2.34,-2.69,0.14,0.14,0.14
591,2.42,2.26,2.42,2.26,-2.26,-2.60,0.16,0.16,0.16
596,2.37,2.19,2.36,2.19,-2.19,-2.53,0.18,0.18,0.18
602,2.31,2.11,2.30,2.11,-2.11,-2.45,0.20,0.19,0.20
608,2.24,2.02,2.24,2.04,-2.04,-2.36,0.20,0.21,0.22
615,2.18,1.95,2.19,1.96,-1.96,-2.26,0.22,0.22,0.23
621,2.12,1.87,2.13,1.89,-1.89,-2.18,0.23,0.24,0.25
627,2.07,1.81,2.07,1.82,-1.82,-2.10,0.25,0.25,0.26
633,2.01,1.74,2.01,1.75,-1.75,-2.02,0.26,0.26,0.27
639,1.96,1.68,1.95,1.68,-1.68,-1.94,0.28,0.27,0.28
646,1.89,1.60,1.89,1.61,-1.61,-1.85,0.28,0.28,0.29
652,1.84,1.55,1.83,1.54,-1.54,-1.77,0.30,0.29,0.29
659,1.78,1.48,1.77,1.47,-1.47,-1.69,0.31,0.30,0.30
665,1.72,1.41,1.72,1.40,-1.40,-1.61,0.32,0.31,0.31
672,1.66,1.35,1.66,1.33,-1.33,-1.53,0.33,0.32,0.31
679,1.59,1.26,1.60,1.26,-1.26,-1.45,0.33,0.33,0.33
686,1.52,1.18,1.54,1.19,-1.19,-1.37,0.33,0.34,0.34
692,1.48,1.13,1.47,1.12,-1.12,-1.30,0.36,0.36,0.35
699,1.41,1.04,1.41,1.04,-1.04,-1.22,0.37,0.37,0.37
706,1.36,0.98,1.35,0.97,-0.97,-1.15,0.39,0.38,0.38
713,1.30,0.90,1.29,0.89,-0.89,-1.07,0.41,0.40,0.40
721,1.22,0.80,1.23,0.82,-0.82,-0.99,0.40,0.41,0.42
728,1.17,0.74,1.17,0.74,-0.74,-0.92,0.43,0.43,0.43
735,1.11,0.66,1.11,0.66,-0.66,-0.85,0.45,0.45,0.45
742,1.06,0.59,1.05,0.58,-0.58,-0.78,0.48,0.47,0.47
750,0.99,0.50,0.99,0.51,-0.51,-0.70,0.48,0.49,0.49
757,0.93,0.43,0.93,0.43,-0.43,-0.64,0.50,0.50,0.50
765,0.87,0.35,0.88,0.35,-0.35,-0.57,0.52,0.52,0.52
773,0.81,0.27,0.82,0.28,-0.28,-0.49,0.53,0.54,0.54
780,0.76,0.20,0.77,0.20,-0.20,-0.43,0.56,0.56,0.56
788,0.71,0.12,0.71,0.13,-0.13,-0.37,0.58,0.59,0.59
796,0.67,0.06,0.66,0.05,-0.05,-0.30,0.62,0.61,0.61
804,0.62,-0.01,0.61,-0.03,0.03,-0.23,0.65,0.63,0.63
812,0.56,-0.10,0.55,-0.10,0.10,-0.17,0.66,0.66,0.66
820,0.50,-0.18,0.50,-0.18,0.18,-0.10,0.68,0.68,0.68
828,0.45,-0.26,0.45,-0.25,0.25,-0.04,0.70,0.71,0.71
837,0.41,-0.32,0.40,-0.33,0.33,0.02,0.74,0.73,0.73
845,0.36,-0.39,0.36,-0.40,0.40,0.08,0.76,0.76,0.75
853,0.31,-0.47,0.31,-0.47,0.47,0.14,0.78,0.78,0.78
862,0.26,-0.55,0.26,-0.54,0.54,0.20,0.80,0.80,0.81
871,0.21,-0.62,0.22,-0.61,0.61,0.27,0.82,0.83,0.83
879,0.18,-0.68,0.17,-0.68,0.68,0.32,0.86,0.85,0.86
888,0.13,-0.75,0.13,-0.74,0.74,0.38,0.87,0.88,0.88
897,0.10,-0.81,0.10,-0.81,0.81,0.43,0.91,0.91,0.91
906,0.07,-0.87,0.07,-0.86,0.86,0.49,0.93,0.94,0.94
915,0.04,-0.93,0.04,-0.92,0.92,0.54,0.96,0.96,0.97
924,0.01,-0.98,0.02,-0.97,0.97,0.59,0.98,0.99,0.99
933,0.00,-1.03,0.01,-1.02,1.02,0.64,1.02,1.02,1.03
943,0.00,-1.06,-0.01,-1.06,1.06,0.69,1.06,1.05,1.06
952,-0.02,-1.11,-0.01,-1.10,1.10,0.74,1.08,1.09,1.09
962,-0.02,-1.14,-0.02,-1.14,1.14,0.79,1.12,1.12,1.12
971,-0.01,-1.16,-0.02,-1.17,1.17,0.83,1.16,1.15,1.15
981,0.00,-1.19,-0.01,-1.19,1.19,0.88,1.19,1.18,1.19
991,0.00,-1.22,-0.00,-1.22,1.22,0.92,1.22,1.21,1.22
1001,0.00,-1.25,0.01,-1.23,1.23,0.96,1.23,1.25,1.25
1011,0.04,-1.25,0.03,-1.25,1.25,1.00,1.29,1.28,1.29
1021,0.04,-1.28,0.05,-1.26,1.26,1.04,1.30,1.31,1.32
1031,0.08,-1.27,0.08,-1.27,1.27,1.08,1.35,1.35,1.35
1041,0.11,-1.28,0.11,-1.27,1.27,1.12,1.38,1.38,1.39
1052,0.14,-1.28,0.15,-1.27,1.27,1.15,1.41,1.42,1.42
1062,0.19,-1.27,0.19,-1.26,1.26,1.19,1.45,1.45,1.46
1073,0.24,-1.26,0.23,-1.26,1.26,1.22,1.50,1.49,1.50
1084,0.28,-1.25,0.28,-1.25,1.25,1.25,1.53,1.53,1.53
1094,0.32,-1.25,0.33,-1.24,1.24,1.28,1.56,1.57,1.57
1105,0.38,-1.24,0.39,-1.23,1.23,1.32,1.61,1.62,1.62
1116,0.45,-1.21,0.45,-1.22,1.22,1.35,1.67,1.66,1.66
1128,0.51,-1.20,0.51,-1.21,1.21,1.38,1.72,1.71,1.71
1139,0.58,-1.18,0.57,-1.19,1.19,1.41,1.77,1.77,1.76
1150,0.63,-1.18,0.63,-1.19,1.19,1.44,1.82,1.82,1.81
1162,0.70,-1.17,0.70,-1.18,1.18,1.48,1.88,1.87,1.87
1173,0.76,-1.17,0.76,-1.17,1.17,1.51,1.93,1.93,1.93
1185,0.82,-1.17,0.82,-1.17,1.17,1.54,1.99,1.99,1.99
1197,0.89,-1.17,0.89,-1.17,1.17,1.57,2.06,2.06,2.06
1209,0.95,-1.17,0.95,-1.18,1.18,1.61,2.13,2.13,2.12
1221,1.02,-1.17,1.01,-1.19,1.19,1.64,2.21,2.19,2.19
1233,1.06,-1.20,1.06,-1.20,1.20,1.67,2.26,2.26,2.26
1246,1.11,-1.22,1.12,-1.22,1.22,1.71,2.33,2.33,2.33
1258,1.16,-1.25,1.17,-1.24,1.24,1.75,2.40,2.41,2.41
1271,1.23,-1.25,1.23,-1.26,1.26,1.79,2.49,2.48,2.48
1283,1.28,-1.28,1.28,-1.28,1.28,1.83,2.56,2.56,2.56
1296,1.33,-1.31,1.32,-1.31,1.31,1.87,2.64,2.64,2.64
1309,1.36,-1.36,1.37,-1.35,1.35,1.91,2.71,2.72,2.72
1322,1.41,-1.38,1.41,-1.38,1.38,1.95,2.79,2.79,2.79
1335,1.45,-1.42,1.45,-1.42,1.42,2.00,2.87,2.87,2.87
1349,1.49,-1.46,1.48,-1.46,1.46,2.05,2.95,2.94,2.95
1362,1.52,-1.50,1.51,-1.51,1.51,2.09,3.03,3.02,3.02
1376,1.56,-1.54,1.54,-1.55,1.55,2.15,3.11,3.10,3.10
1390,1.56,-1.61,1.57,-1.60,1.60,2.20,3.16,3.17,3.17
1404,1.60,-1.65,1.59,-1.65,1.65,2.25,3.25,3.24,3.25
1418,1.60,-1.72,1.62,-1.70,1.70,2.31,3.30,3.32,3.32
1432,1.62,-1.78,1.64,-1.76,1.76,2.37,3.38,3.40,3.40
1446,1.65,-1.82,1.66,-1.82,1.82,2.43,3.47,3.47,3.47
1461,1.67,-1.88,1.68,-1.88,1.88,2.49,3.55,3.55,3.55
1475,1.69,-1.94,1.69,-1.94,1.94,2.55,3.63,3.63,3.63
1490,1.73,-1.98,1.71,-2.00,2.00,2.62,3.73,3.71,3.71
1505,1.73,-2.06,1.72,-2.07,2.07,2.68,3.80,3.79,3.79
1520,1.73,-2.14,1.74,-2.14,2.14,2.75,3.87,3.88,3.87
1535,1.78,-2.18,1.75,-2.21,2.21,2.82,3.99,3.96,3.96
1550,1.78,-2.27,1.77,-2.28,2.28,2.89,4.06,4.05,4.05
1566,1.78,-2.36,1.79,-2.36,2.36,2.97,4.14,4.15,4.14
1582,1.78,-2.46,1.80,-2.44,2.44,3.04,4.22,4.24,4.24
1597,1.82,-2.52,1.82,-2.52,2.52,3.11,4.34,4.34,4.34
1613,1.82,-2.62,1.84,-2.61,2.61,3.19,4.43,4.44,4.44
1629,1.85,-2.70,1.85,-2.69,2.69,3.27,4.54,4.54,4.55
1646,1.86,-2.79,1.87,-2.77,2.77,3.35,4.63,4.65,4.65
1662,1.91,-2.85,1.89,-2.86,2.86,3.43,4.77,4.75,4.76
1679,1.92,-2.94,1.92,-2.95,2.95,3.51,4.87,4.86,4.86
1696,1.95,-3.02,1.94,-3.03,3.03,3.59,4.98,4.97,4.97
1713,1.96,-3.13,1.96,-3.12,3.12,3.67,5.08,5.08,5.09
1730,1.99,-3.21,1.99,-3.21,3.21,3.74,5.20,5.20,5.20
1747,2.03,-3.28,2.02,-3.29,3.29,3.82,5.32,5.32,5.31
1764,2.04,-3.39,2.05,-3.38,3.38,3.90,5.42,5.43,5.43
1782,2.08,-3.47,2.08,-3.47,3.47,3.97,5.55,5.55,5.55
1800,2.12,-3.55,2.12,-3.56,3.56,4.05,5.68,5.68,5.67
1818,2.15,-3.65,2.15,-3.65,3.65,4.12,5.80,5.80,5.80
1836,2.18,-3.74,2.19,-3.74,3.74,4.18,5.92,5.93,5.92
1854,2.23,-3.82,2.23,-3.83,3.83,4.25,6.06,6.06,6.05
1873,2.27,-3.91,2.27,-3.91,3.91,4.31,6.18,6.18,6.18
1892,2.32,-3.99,2.31,-4.00,4.00,4.37,6.32,6.31,6.31
1911,2.36,-4.09,2.35,-4.09,4.09,4.42,6.45,6.44,6.45
1930,2.40,-4.18,2.40,-4.18,4.18,4.47,6.58,6.57,6.58
1949,2.45,-4.26,2.44,-4.26,4.26,4.52,6.71,6.71,6.71
1969,2.49,-4.36,2.49,-4.35,4.35,4.56,6.84,6.84,6.85
1988,2.53,-4.45,2.53,-4.43,4.43,4.60,6.96,6.97,6.98
2008,2.58,-4.53,2.58,-4.52,4.52,4.63,7.10,7.10,7.11
2028,2.62,-4.62,2.63,-4.60,4.60,4.66,7.22,7.23,7.24
2048,2.66,-4.70,2.67,-4.68,4.68,4.68,7.34,7.35,7.36
