frequency,raw
20.00,10.39
20.20,10.53
20.40,10.65
20.61,10.78
20.81,10.91
21.02,11.03
21.23,11.15
21.44,11.26
21.66,11.37
21.87,11.48
22.09,11.59
22.31,11.69
22.54,11.78
22.76,11.88
22.99,11.97
23.22,12.06
23.45,12.15
23.69,12.22
23.92,12.30
24.16,12.38
24.40,12.44
24.65,12.51
24.89,12.57
25.14,12.64
25.39,12.70
25.65,12.76
25.91,12.82
26.16,12.87
26.43,12.92
26.69,12.97
26.96,13.02
27.23,13.06
27.50,13.09
27.77,13.13
28.05,13.16
28.33,13.19
28.62,13.22
28.90,13.24
29.19,13.26
29.48,13.29
29.78,13.30
30.08,13.32
30.38,13.32
30.68,13.33
30.99,13.34
31.30,13.34
31.61,13.34
31.93,13.34
32.24,13.34
32.57,13.34
32.89,13.33
33.22,13.33
33.55,13.33
33.89,13.32
34.23,13.31
34.57,13.31
34.92,13.30
35.27,13.29
35.62,13.28
35.97,13.27
36.33,13.27
36.70,13.25
37.06,13.25
37.43,13.24
37.81,13.23
38.19,13.23
38.57,13.22
38.95,13.22
39.34,13.22
39.74,13.22
40.14,13.22
40.54,13.22
40.94,13.23
41.35,13.23
41.76,13.25
42.18,13.25
42.60,13.26
43.03,13.27
43.46,13.29
43.90,13.31
44.33,13.33
44.78,13.34
45.23,13.36
45.68,13.38
46.13,13.41
46.60,13.43
47.06,13.46
47.53,13.48
48.01,13.51
48.49,13.53
48.97,13.55
49.46,13.58
49.96,13.59
50.46,13.62
50.96,13.64
51.47,13.66
51.99,13.67
52.51,13.68
53.03,13.69
53.56,13.70
54.10,13.71
54.64,13.71
55.18,13.71
55.74,13.71
56.29,13.70
56.86,13.70
57.42,13.69
58.00,13.68
58.58,13.66
59.16,13.65
59.76,13.63
60.35,13.61
60.96,13.58
61.57,13.56
62.18,13.53
62.80,13.50
63.43,13.46
64.07,13.41
64.71,13.37
65.35,13.32
66.01,13.26
66.67,13.20
67.33,13.14
68.01,13.07
68.69,13.00
69.37,12.93
70.07,12.86
70.77,12.78
71.48,12.71
72.19,12.62
72.91,12.55
73.64,12.46
74.38,12.38
75.12,12.30
75.87,12.22
76.63,12.13
77.40,12.04
78.17,11.96
78.95,11.87
79.74,11.77
80.54,11.67
81.35,11.57
82.16,11.47
82.98,11.36
83.81,11.25
84.65,11.13
85.50,11.02
86.35,10.92
87.22,10.81
88.09,10.72
88.97,10.63
89.86,10.54
90.76,10.46
91.66,10.39
92.58,10.31
93.51,10.24
94.44,10.18
95.39,10.11
96.34,10.03
97.30,9.96
98.28,9.90
99.26,9.83
100.25,9.77
101.25,9.71
102.27,9.64
103.29,9.58
104.32,9.52
105.37,9.46
106.42,9.39
107.48,9.33
108.56,9.27
109.64,9.21
110.74,9.15
111.85,9.08
112.97,9.01
114.10,8.94
115.24,8.88
116.39,8.81
117.55,8.74
118.73,8.66
119.92,8.59
121.12,8.51
122.33,8.43
123.55,8.35
124.79,8.26
126.03,8.17
127.29,8.08
128.57,7.98
129.85,7.89
131.15,7.78
132.46,7.68
133.79,7.56
135.12,7.45
136.48,7.33
137.84,7.20
139.22,7.07
140.61,6.94
142.02,6.81
143.44,6.66
144.87,6.51
146.32,6.36
147.78,6.20
149.26,6.04
150.75,5.87
152.26,5.70
153.78,5.53
155.32,5.35
156.88,5.17
158.44,4.99
160.03,4.82
161.63,4.64
163.24,4.47
164.88,4.31
166.53,4.14
168.19,3.99
169.87,3.84
171.57,3.70
173.29,3.57
175.02,3.46
176.77,3.34
178.54,3.25
180.32,3.16
182.13,3.08
183.95,3.01
185.79,2.95
187.65,2.89
189.52,2.83
191.42,2.79
193.33,2.74
195.27,2.69
197.22,2.63
199.19,2.58
201.18,2.53
203.19,2.46
205.23,2.40
207.28,2.34
209.35,2.27
211.44,2.19
213.56,2.11
215.69,2.02
217.85,1.93
220.03,1.84
222.23,1.75
224.45,1.65
226.70,1.55
228.96,1.46
231.25,1.36
233.57,1.26
235.90,1.16
238.26,1.06
240.64,0.95
243.05,0.85
245.48,0.72
247.93,0.61
250.41,0.50
252.92,0.37
255.45,0.24
258.00,0.12
260.58,0.01
263.19,-0.13
265.82,-0.25
268.48,-0.38
271.16,-0.50
273.87,-0.63
276.61,-0.75
279.38,-0.87
282.17,-1.00
284.99,-1.12
287.84,-1.25
290.72,-1.36
293.63,-1.48
296.57,-1.60
299.53,-1.72
302.53,-1.84
305.55,-1.95
308.61,-2.06
311.69,-2.17
314.81,-2.27
317.96,-2.38
321.14,-2.47
324.35,-2.58
327.59,-2.67
330.87,-2.76
334.18,-2.85
337.52,-2.93
340.90,-3.01
344.30,-3.10
347.75,-3.17
351.23,-3.24
354.74,-3.31
358.28,-3.39
361.87,-3.46
365.49,-3.52
369.14,-3.59
372.83,-3.65
376.56,-3.70
380.33,-3.76
384.13,-3.81
387.97,-3.87
391.85,-3.92
395.77,-3.98
399.73,-4.02
403.72,-4.08
407.76,-4.13
411.84,-4.18
415.96,-4.23
420.12,-4.28
424.32,-4.34
428.56,-4.40
432.85,-4.46
437.18,-4.51
441.55,-4.57
445.96,-4.64
450.42,-4.69
454.93,-4.74
459.48,-4.79
464.07,-4.84
468.71,-4.90
473.40,-4.95
478.13,-5.00
482.91,-5.05
487.74,-5.09
492.62,-5.13
497.55,-5.17
502.52,-5.21
507.55,-5.24
512.62,-5.27
517.75,-5.29
522.93,-5.31
528.16,-5.32
533.44,-5.32
538.77,-5.33
544.16,-5.32
549.60,-5.31
555.10,-5.29
560.65,-5.28
566.25,-5.25
571.92,-5.21
577.64,-5.19
583.41,-5.15
589.25,-5.10
595.14,-5.07
601.09,-5.02
607.10,-4.98
613.17,-4.93
619.30,-4.88
625.50,-4.82
631.75,-4.77
638.07,-4.72
644.45,-4.66
650.89,-4.61
657.40,-4.56
663.98,-4.51
670.62,-4.46
677.32,-4.41
684.10,-4.37
690.94,-4.32
697.85,-4.28
704.83,-4.23
711.87,-4.19
718.99,-4.14
726.18,-4.11
733.44,-4.05
740.78,-4.01
748.19,-3.95
755.67,-3.89
763.23,-3.82
770.86,-3.75
778.57,-3.67
786.35,-3.57
794.22,-3.47
802.16,-3.35
810.18,-3.23
818.28,-3.08
826.46,-2.92
834.73,-2.76
843.08,-2.59
851.51,-2.40
860.02,-2.23
868.62,-2.05
877.31,-1.89
886.08,-1.74
894.94,-1.60
903.89,-1.48
912.93,-1.36
922.06,-1.24
931.28,-1.13
940.59,-1.01
950.00,-0.88
959.50,-0.76
969.09,-0.61
978.78,-0.44
988.57,-0.25
998.46,-0.04
1008.44,0.21
1018.53,0.49
1028.71,0.82
1039.00,1.19
1049.39,1.59
1059.88,2.02
1070.48,2.46
1081.19,2.89
1092.00,3.32
1102.92,3.70
1113.95,4.05
1125.09,4.37
1136.34,4.65
1147.70,4.89
1159.18,5.12
1170.77,5.32
1182.48,5.51
1194.30,5.70
1206.25,5.87
1218.31,6.04
1230.49,6.18
1242.80,6.33
1255.22,6.47
1267.78,6.59
1280.45,6.69
1293.26,6.76
1306.19,6.80
1319.25,6.82
1332.45,6.82
1345.77,6.78
1359.23,6.73
1372.82,6.68
1386.55,6.61
1400.41,6.56
1414.42,6.50
1428.56,6.46
1442.85,6.43
1457.28,6.40
1471.85,6.38
1486.57,6.36
1501.43,6.33
1516.45,6.30
1531.61,6.26
1546.93,6.22
1562.40,6.17
1578.02,6.10
1593.80,6.05
1609.74,6.00
1625.84,5.98
1642.10,5.99
1658.52,6.03
1675.10,6.13
1691.85,6.27
1708.77,6.44
1725.86,6.64
1743.12,6.85
1760.55,7.07
1778.15,7.27
1795.94,7.45
1813.90,7.62
1832.03,7.74
1850.36,7.84
1868.86,7.91
1887.55,7.95
1906.42,7.95
1925.49,7.93
1944.74,7.88
1964.19,7.80
1983.83,7.72
2003.67,7.65
2023.71,7.58
2043.94,7.51
2064.38,7.45
2085.03,7.40
2105.88,7.36
2126.94,7.32
2148.20,7.28
2169.69,7.23
2191.38,7.18
2213.30,7.13
2235.43,7.07
2257.78,7.01
2280.36,6.94
2303.17,6.88
2326.20,6.83
2349.46,6.76
2372.95,6.70
2396.68,6.64
2420.65,6.57
2444.86,6.50
2469.31,6.42
2494.00,6.36
2518.94,6.27
2544.13,6.19
2569.57,6.10
2595.27,6.02
2621.22,5.94
2647.43,5.85
2673.90,5.76
2700.64,5.67
2727.65,5.56
2754.93,5.44
2782.48,5.30
2810.30,5.12
2838.40,4.93
2866.79,4.71
2895.46,4.45
2924.41,4.17
2953.65,3.87
2983.19,3.52
3013.02,3.14
3043.15,2.74
3073.58,2.33
3104.32,1.95
3135.36,1.63
3166.72,1.44
3198.38,1.35
3230.37,1.36
3262.67,1.50
3295.30,1.69
3328.25,1.90
3361.53,2.08
3395.15,2.18
3429.10,2.17
3463.39,2.03
3498.03,1.71
3533.01,1.29
3568.34,0.79
3604.02,0.19
3640.06,-0.41
3676.46,-1.03
3713.22,-1.60
3750.36,-2.10
3787.86,-2.53
3825.74,-2.84
3864.00,-3.02
3902.64,-3.11
3941.66,-3.10
3981.08,-2.97
4020.89,-2.79
4061.10,-2.55
4101.71,-2.28
4142.73,-1.98
4184.15,-1.67
4226.00,-1.37
4268.26,-1.04
4310.94,-0.71
4354.05,-0.37
4397.59,-0.03
4441.56,0.32
4485.98,0.67
4530.84,1.01
4576.15,1.35
4621.91,1.70
4668.13,2.03
4714.81,2.35
4761.96,2.65
4809.58,2.90
4857.67,3.12
4906.25,3.29
4955.31,3.40
5004.87,3.47
5054.91,3.50
5105.46,3.49
5156.52,3.45
5208.08,3.38
5260.16,3.31
5312.77,3.25
5365.89,3.20
5419.55,3.17
5473.75,3.17
5528.49,3.18
5583.77,3.21
5639.61,3.26
5696.00,3.33
5752.96,3.39
5810.49,3.46
5868.60,3.53
5927.28,3.61
5986.56,3.69
6046.42,3.78
6106.89,3.89
6167.96,4.00
6229.64,4.13
6291.93,4.28
6354.85,4.44
6418.40,4.63
6482.58,4.84
6547.41,5.07
6612.88,5.31
6679.01,5.57
6745.80,5.83
6813.26,6.07
6881.39,6.26
6950.21,6.38
7019.71,6.43
7089.91,6.37
7160.81,6.24
7232.41,6.06
7304.74,5.86
7377.79,5.69
7451.56,5.56
7526.08,5.59
7601.34,5.71
7677.35,5.91
7754.13,6.29
7831.67,6.73
7909.98,7.22
7989.08,7.76
8068.98,8.31
8149.67,8.85
8231.16,9.40
8313.47,9.97
8396.61,10.54
8480.57,11.13
8565.38,11.65
8651.03,12.09
8737.54,12.43
8824.92,12.48
8913.17,12.34
9002.30,11.99
9092.32,11.29
9183.25,10.35
9275.08,9.24
9367.83,7.95
9461.51,6.57
9556.12,5.18
9651.68,3.84
9748.20,2.60
9845.68,1.48
9944.14,0.47
10043.58,-0.32
10144.02,-0.97
10245.46,-1.48
10347.91,-1.77
10451.39,-1.92
10555.91,-1.94
10661.46,-1.80
10768.08,-1.55
10875.76,-1.23
10984.52,-0.82
11094.36,-0.37
11205.31,0.10
11317.36,0.60
11430.53,1.03
11544.84,1.40
11660.29,1.69
11776.89,1.81
11894.66,1.83
12013.60,1.74
12133.74,1.50
12255.08,1.19
12377.63,0.83
12501.41,0.45
12626.42,0.10
12752.68,-0.20
12880.21,-0.41
13009.01,-0.52
13139.10,-0.57
13270.49,-0.60
13403.20,-0.70
13537.23,-0.87
13672.60,-1.13
13809.33,-1.59
13947.42,-2.16
14086.90,-2.84
14227.77,-3.68
14370.04,-4.54
14513.74,-5.40
14658.88,-6.22
14805.47,-6.93
14953.52,-7.58
15103.06,-8.17
15254.09,-8.66
15406.63,-9.08
15560.70,-9.44
15716.30,-9.67
15873.47,-9.80
16032.20,-9.83
16192.52,-9.65
16354.45,-9.29
16517.99,-8.80
16683.17,-8.05
16850.01,-7.17
17018.51,-6.21
17188.69,-5.25
17360.58,-4.41
17534.18,-3.73
17709.53,-3.25
17886.62,-3.17
18065.49,-3.34
18246.14,-3.75
18428.60,-4.50
18612.89,-5.39
18799.02,-6.39
18987.01,-7.35
19176.88,-8.10
19368.65,-8.63
19562.33,-8.79
19757.96,-8.55
19955.54,-8.04
