frequency,raw,error,smoothed,error_smoothed,equalization,parametric_eq,fixed_band_eq,equalized_raw,equalized_smoothed,target
20.00,-9.57,-7.00,-9.57,-7.00,6.00,5.12,2.17,-3.57,-3.57,-2.56
20.20,-9.48,-6.95,-9.47,-6.95,6.00,5.28,2.24,-3.48,-3.47,-2.52
20.40,-9.38,-6.88,-9.38,-6.89,6.00,5.44,2.30,-3.38,-3.38,-2.49
20.61,-9.29,-6.82,-9.29,-6.83,6.00,5.60,2.37,-3.29,-3.29,-2.46
20.81,-9.19,-6.76,-9.19,-6.77,6.00,5.76,2.44,-3.19,-3.19,-2.42
21.02,-9.10,-6.71,-9.10,-6.70,6.00,5.91,2.51,-3.10,-3.10,-2.38
21.23,-9.00,-6.62,-9.00,-6.63,6.00,6.05,2.58,-3.00,-3.00,-2.37
21.44,-8.91,-6.55,-8.90,-6.55,6.00,6.20,2.66,-2.91,-2.90,-2.35
21.66,-8.81,-6.47,-8.81,-6.47,6.00,6.33,2.74,-2.81,-2.81,-2.34
21.87,-8.72,-6.39,-8.72,-6.39,6.00,6.45,2.82,-2.72,-2.72,-2.33
22.09,-8.63,-6.32,-8.63,-6.32,6.00,6.56,2.90,-2.63,-2.63,-2.31
22.31,-8.57,-6.26,-8.57,-6.26,6.00,6.65,2.99,-2.56,-2.56,-2.31
22.54,-8.51,-6.21,-8.50,-6.21,6.01,6.73,3.07,-2.50,-2.49,-2.30
22.76,-8.45,-6.16,-8.44,-6.15,6.02,6.80,3.16,-2.43,-2.43,-2.29
22.99,-8.38,-6.09,-8.39,-6.10,6.02,6.84,3.25,-2.36,-2.37,-2.29
23.22,-8.34,-6.06,-8.34,-6.06,6.01,6.87,3.35,-2.33,-2.33,-2.28
23.45,-8.30,-6.03,-8.30,-6.03,5.99,6.87,3.44,-2.31,-2.31,-2.27
23.69,-8.26,-6.00,-8.26,-6.00,5.96,6.86,3.54,-2.30,-2.30,-2.26
23.92,-8.21,-5.96,-8.20,-5.95,5.91,6.83,3.64,-2.30,-2.29,-2.25
24.16,-8.13,-5.89,-8.12,-5.88,5.84,6.77,3.74,-2.28,-2.28,-2.24
24.40,-8.02,-5.79,-8.02,-5.78,5.77,6.70,3.84,-2.25,-2.25,-2.23
24.65,-7.91,-5.67,-7.91,-5.67,5.69,6.61,3.95,-2.22,-2.22,-2.24
24.89,-7.80,-5.56,-7.81,-5.57,5.61,6.51,4.05,-2.19,-2.20,-2.24
25.14,-7.73,-5.49,-7.73,-5.49,5.53,6.40,4.16,-2.20,-2.21,-2.24
25.39,-7.69,-5.45,-7.68,-5.44,5.45,6.27,4.26,-2.23,-2.23,-2.24
25.65,-7.65,-5.41,-7.64,-5.40,5.39,6.13,4.37,-2.25,-2.25,-2.24
25.91,-7.61,-5.36,-7.61,-5.37,5.35,5.98,4.47,-2.26,-2.27,-2.25
26.16,-7.59,-5.34,-7.59,-5.34,5.33,5.83,4.58,-2.26,-2.26,-2.24
26.43,-7.57,-5.32,-7.56,-5.31,5.33,5.67,4.68,-2.24,-2.23,-2.24
26.69,-7.54,-5.29,-7.54,-5.29,5.34,5.51,4.79,-2.20,-2.20,-2.24
26.96,-7.52,-5.27,-7.54,-5.30,5.36,5.34,4.89,-2.15,-2.18,-2.25
27.23,-7.58,-5.33,-7.58,-5.33,5.39,5.18,4.98,-2.19,-2.19,-2.25
27.50,-7.64,-5.39,-7.65,-5.40,5.40,5.01,5.08,-2.24,-2.25,-2.25
27.77,-7.71,-5.45,-7.70,-5.45,5.39,4.85,5.17,-2.32,-2.31,-2.26
28.05,-7.74,-5.48,-7.69,-5.43,5.35,4.69,5.25,-2.38,-2.34,-2.26
28.33,-7.60,-5.33,-7.62,-5.36,5.28,4.53,5.33,-2.32,-2.34,-2.27
28.62,-7.47,-5.21,-7.49,-5.23,5.16,4.37,5.41,-2.31,-2.33,-2.26
28.90,-7.34,-5.08,-7.31,-5.05,5.00,4.21,5.47,-2.34,-2.31,-2.26
29.19,-7.12,-4.85,-7.11,-4.84,4.82,4.06,5.53,-2.30,-2.29,-2.27
29.48,-6.86,-4.59,-6.85,-4.59,4.62,3.92,5.58,-2.24,-2.23,-2.26
29.78,-6.60,-4.34,-6.61,-4.35,4.43,3.77,5.62,-2.17,-2.19,-2.26
30.08,-6.39,-4.13,-6.42,-4.16,4.25,3.63,5.66,-2.14,-2.18,-2.26
30.38,-6.31,-4.03,-6.30,-4.03,4.09,3.50,5.68,-2.22,-2.21,-2.28
30.68,-6.23,-3.95,-6.22,-3.94,3.96,3.37,5.69,-2.27,-2.26,-2.28
30.99,-6.15,-3.86,-6.15,-3.87,3.85,3.24,5.69,-2.30,-2.30,-2.29
31.30,-6.08,-3.79,-6.08,-3.79,3.76,3.12,5.68,-2.32,-2.32,-2.29
31.61,-6.01,-3.72,-6.01,-3.71,3.69,3.00,5.65,-2.32,-2.32,-2.29
31.93,-5.94,-3.64,-5.94,-3.64,3.62,2.89,5.62,-2.32,-2.32,-2.30
32.24,-5.87,-3.55,-5.86,-3.56,3.55,2.78,5.58,-2.31,-2.31,-2.31
32.57,-5.79,-3.47,-5.79,-3.48,3.48,2.67,5.53,-2.31,-2.31,-2.31
32.89,-5.72,-3.40,-5.72,-3.40,3.41,2.57,5.46,-2.31,-2.31,-2.32
33.22,-5.65,-3.33,-5.64,-3.33,3.33,2.47,5.39,-2.32,-2.32,-2.32
33.55,-5.57,-3.25,-5.57,-3.25,3.25,2.38,5.31,-2.32,-2.32,-2.32
33.89,-5.50,-3.18,-5.50,-3.17,3.16,2.29,5.22,-2.33,-2.33,-2.32
34.23,-5.42,-3.10,-5.42,-3.09,3.08,2.20,5.12,-2.34,-2.34,-2.32
34.57,-5.34,-3.00,-5.34,-3.01,3.00,2.11,5.02,-2.34,-2.34,-2.33
34.92,-5.26,-2.92,-5.26,-2.92,2.93,2.03,4.91,-2.33,-2.33,-2.34
35.27,-5.18,-2.84,-5.17,-2.83,2.86,1.95,4.79,-2.32,-2.31,-2.34
35.62,-5.10,-2.75,-5.09,-2.75,2.79,1.88,4.67,-2.31,-2.31,-2.35
35.97,-5.02,-2.67,-5.04,-2.69,2.71,1.80,4.54,-2.30,-2.32,-2.35
36.33,-5.00,-2.64,-5.01,-2.65,2.64,1.73,4.42,-2.36,-2.37,-2.35
36.70,-4.99,-2.63,-4.98,-2.62,2.56,1.66,4.29,-2.43,-2.42,-2.36
37.06,-4.95,-2.58,-4.91,-2.54,2.48,1.60,4.15,-2.46,-2.42,-2.37
37.43,-4.80,-2.42,-4.79,-2.42,2.41,1.53,4.02,-2.39,-2.39,-2.37
37.81,-4.64,-2.26,-4.67,-2.29,2.32,1.47,3.88,-2.31,-2.34,-2.37
38.19,-4.56,-2.17,-4.59,-2.20,2.24,1.41,3.75,-2.32,-2.34,-2.39
38.57,-4.56,-2.17,-4.55,-2.16,2.17,1.35,3.61,-2.39,-2.38,-2.39
38.95,-4.56,-2.16,-4.52,-2.12,2.11,1.30,3.47,-2.44,-2.41,-2.39
39.34,-4.48,-2.07,-4.46,-2.06,2.07,1.24,3.34,-2.40,-2.39,-2.41
39.74,-4.39,-1.97,-4.41,-2.00,2.05,1.19,3.20,-2.34,-2.36,-2.42
40.14,-4.36,-1.95,-4.40,-1.99,2.04,1.14,3.07,-2.32,-2.37,-2.41
40.54,-4.45,-2.03,-4.44,-2.03,2.03,1.09,2.93,-2.42,-2.41,-2.41
40.94,-4.54,-2.12,-4.48,-2.06,2.02,1.04,2.80,-2.52,-2.47,-2.42
41.35,-4.49,-2.06,-4.48,-2.05,2.00,0.99,2.66,-2.49,-2.48,-2.43
41.76,-4.42,-1.97,-4.44,-1.99,1.97,0.95,2.53,-2.45,-2.47,-2.45
42.18,-4.37,-1.91,-4.38,-1.92,1.93,0.90,2.40,-2.44,-2.46,-2.46
42.60,-4.35,-1.86,-4.34,-1.87,1.86,0.86,2.27,-2.49,-2.49,-2.48
43.03,-4.32,-1.82,-4.30,-1.79,1.77,0.82,2.15,-2.55,-2.53,-2.50
43.46,-4.22,-1.70,-4.22,-1.69,1.66,0.78,2.02,-2.55,-2.56,-2.52
43.90,-4.12,-1.55,-4.12,-1.56,1.56,0.74,1.89,-2.56,-2.56,-2.57
44.33,-4.02,-1.43,-4.01,-1.42,1.46,0.70,1.77,-2.56,-2.56,-2.59
44.78,-3.92,-1.29,-3.93,-1.30,1.36,0.66,1.65,-2.56,-2.57,-2.63
45.23,-3.86,-1.21,-3.87,-1.22,1.26,0.62,1.53,-2.60,-2.61,-2.65
45.68,-3.83,-1.15,-3.82,-1.15,1.16,0.59,1.41,-2.67,-2.66,-2.68
46.13,-3.79,-1.09,-3.78,-1.09,1.06,0.55,1.29,-2.73,-2.72,-2.69
46.60,-3.71,-1.01,-3.71,-1.01,0.96,0.51,1.18,-2.75,-2.75,-2.70
47.06,-3.62,-0.90,-3.61,-0.90,0.86,0.48,1.06,-2.75,-2.75,-2.71
47.53,-3.50,-0.78,-3.50,-0.78,0.76,0.45,0.95,-2.73,-2.73,-2.72
48.01,-3.37,-0.65,-3.38,-0.66,0.66,0.41,0.84,-2.71,-2.72,-2.72
48.49,-3.28,-0.56,-3.28,-0.55,0.56,0.38,0.72,-2.72,-2.72,-2.72
48.97,-3.19,-0.46,-3.17,-0.44,0.47,0.35,0.61,-2.72,-2.70,-2.73
49.46,-3.08,-0.34,-3.07,-0.34,0.38,0.31,0.51,-2.69,-2.69,-2.74
49.96,-2.97,-0.23,-3.00,-0.27,0.31,0.28,0.40,-2.66,-2.69,-2.73
50.46,-2.96,-0.24,-2.96,-0.24,0.25,0.25,0.30,-2.70,-2.70,-2.72
50.96,-2.96,-0.25,-2.94,-0.22,0.20,0.22,0.19,-2.75,-2.73,-2.71
51.47,-2.91,-0.19,-2.91,-0.19,0.16,0.19,0.09,-2.75,-2.75,-2.72
51.99,-2.86,-0.13,-2.85,-0.13,0.11,0.15,-0.01,-2.75,-2.74,-2.73
52.51,-2.79,-0.05,-2.79,-0.05,0.05,0.12,-0.11,-2.74,-2.74,-2.73
53.03,-2.73,0.03,-2.76,-0.00,-0.01,0.09,-0.20,-2.74,-2.77,-2.75
53.56,-2.73,0.06,-2.72,0.07,-0.08,0.06,-0.30,-2.81,-2.80,-2.78
54.10,-2.71,0.12,-2.67,0.16,-0.15,0.03,-0.39,-2.86,-2.82,-2.82
54.64,-2.59,0.27,-2.60,0.26,-0.23,-0.00,-0.48,-2.82,-2.83,-2.86
55.18,-2.51,0.40,-2.54,0.37,-0.31,-0.03,-0.57,-2.82,-2.85,-2.90
55.74,-2.51,0.45,-2.51,0.44,-0.41,-0.06,-0.65,-2.91,-2.92,-2.95
56.29,-2.51,0.49,-2.51,0.49,-0.52,-0.09,-0.74,-3.03,-3.03,-3.00
56.86,-2.51,0.54,-2.48,0.57,-0.66,-0.13,-0.81,-3.17,-3.14,-3.05
57.42,-2.41,0.70,-2.40,0.70,-0.81,-0.16,-0.89,-3.22,-3.22,-3.11
58.00,-2.28,0.88,-2.28,0.88,-0.96,-0.19,-0.96,-3.24,-3.25,-3.16
58.58,-2.14,1.08,-2.13,1.08,-1.08,-0.22,-1.03,-3.22,-3.21,-3.21
59.16,-2.00,1.26,-1.99,1.28,-1.18,-0.25,-1.10,-3.17,-3.16,-3.26
59.76,-1.87,1.44,-1.89,1.42,-1.24,-0.29,-1.16,-3.11,-3.13,-3.31
60.35,-1.89,1.49,-1.91,1.46,-1.28,-0.32,-1.22,-3.17,-3.19,-3.38
60.96,-2.01,1.41,-2.05,1.37,-1.31,-0.35,-1.28,-3.31,-3.36,-3.42
61.57,-2.28,1.21,-2.26,1.23,-1.31,-0.39,-1.33,-3.59,-3.57,-3.48
62.18,-2.49,1.05,-2.42,1.11,-1.30,-0.42,-1.38,-3.79,-3.72,-3.54
62.80,-2.50,1.08,-2.50,1.08,-1.27,-0.46,-1.42,-3.77,-3.77,-3.58
63.43,-2.47,1.16,-2.46,1.16,-1.23,-0.49,-1.46,-3.69,-3.69,-3.62
64.07,-2.40,1.26,-2.39,1.27,-1.18,-0.53,-1.50,-3.58,-3.57,-3.66
64.71,-2.35,1.35,-2.40,1.30,-1.14,-0.56,-1.53,-3.49,-3.55,-3.70
65.35,-2.47,1.27,-2.51,1.23,-1.10,-0.60,-1.56,-3.57,-3.61,-3.74
66.01,-2.73,1.04,-2.68,1.09,-1.04,-0.64,-1.59,-3.77,-3.72,-3.76
66.67,-2.88,0.92,-2.86,0.93,-0.96,-0.68,-1.61,-3.84,-3.82,-3.79
67.33,-2.99,0.82,-2.98,0.83,-0.87,-0.72,-1.63,-3.85,-3.85,-3.81
68.01,-3.06,0.77,-3.08,0.76,-0.77,-0.76,-1.65,-3.82,-3.84,-3.83
68.69,-3.17,0.69,-3.20,0.65,-0.69,-0.80,-1.67,-3.85,-3.89,-3.85
69.37,-3.30,0.58,-3.29,0.59,-0.64,-0.85,-1.68,-3.94,-3.93,-3.87
70.07,-3.40,0.50,-3.32,0.57,-0.64,-0.89,-1.69,-4.03,-3.95,-3.90
70.77,-3.24,0.66,-3.30,0.61,-0.66,-0.93,-1.70,-3.90,-3.96,-3.90
71.48,-3.19,0.73,-3.20,0.72,-0.71,-0.98,-1.71,-3.90,-3.91,-3.92
72.19,-3.14,0.80,-3.09,0.84,-0.79,-1.03,-1.72,-3.92,-3.88,-3.94
72.91,-2.98,0.98,-3.03,0.93,-0.89,-1.08,-1.72,-3.87,-3.92,-3.96
73.64,-2.96,1.02,-2.95,1.02,-1.02,-1.13,-1.73,-3.97,-3.97,-3.97
74.38,-2.90,1.09,-2.88,1.11,-1.15,-1.18,-1.74,-4.05,-4.03,-3.99
75.12,-2.78,1.24,-2.79,1.22,-1.28,-1.23,-1.74,-4.06,-4.07,-4.02
75.87,-2.69,1.35,-2.63,1.40,-1.41,-1.28,-1.75,-4.10,-4.05,-4.03
76.63,-2.45,1.60,-2.47,1.58,-1.53,-1.34,-1.75,-3.98,-4.01,-4.05
77.40,-2.31,1.75,-2.36,1.70,-1.65,-1.40,-1.76,-3.96,-4.01,-4.06
78.17,-2.28,1.80,-2.27,1.80,-1.75,-1.45,-1.76,-4.03,-4.02,-4.08
78.95,-2.28,1.80,-2.21,1.87,-1.85,-1.51,-1.77,-4.13,-4.06,-4.07
79.74,-2.11,1.97,-2.15,1.93,-1.94,-1.58,-1.78,-4.05,-4.09,-4.07
80.54,-2.05,2.04,-2.09,1.99,-2.02,-1.64,-1.79,-4.07,-4.11,-4.08
81.35,-2.05,2.04,-2.01,2.07,-2.09,-1.70,-1.80,-4.14,-4.10,-4.09
82.16,-2.00,2.08,-1.96,2.11,-2.16,-1.77,-1.81,-4.15,-4.12,-4.08
82.98,-1.82,2.24,-1.88,2.18,-2.22,-1.84,-1.82,-4.03,-4.10,-4.06
83.81,-1.82,2.23,-1.77,2.28,-2.27,-1.91,-1.83,-4.08,-4.03,-4.05
84.65,-1.67,2.38,-1.67,2.36,-2.31,-1.98,-1.85,-3.98,-3.98,-4.04
85.50,-1.59,2.43,-1.62,2.40,-2.35,-2.05,-1.86,-3.94,-3.97,-4.02
86.35,-1.59,2.41,-1.58,2.43,-2.38,-2.12,-1.88,-3.97,-3.96,-4.00
87.22,-1.59,2.40,-1.59,2.39,-2.42,-2.19,-1.90,-4.00,-4.01,-3.99
88.09,-1.59,2.38,-1.59,2.38,-2.44,-2.27,-1.92,-4.03,-4.02,-3.97
88.97,-1.59,2.35,-1.54,2.41,-2.45,-2.34,-1.94,-4.04,-3.98,-3.94
89.86,-1.44,2.48,-1.47,2.46,-2.45,-2.42,-1.97,-3.89,-3.92,-3.92
90.76,-1.38,2.54,-1.40,2.51,-2.47,-2.49,-1.99,-3.84,-3.87,-3.92
91.66,-1.37,2.53,-1.36,2.54,-2.49,-2.57,-2.02,-3.86,-3.85,-3.89
92.58,-1.37,2.53,-1.37,2.52,-2.53,-2.64,-2.05,-3.89,-3.90,-3.90
93.51,-1.37,2.51,-1.37,2.51,-2.57,-2.72,-2.08,-3.93,-3.94,-3.88
94.44,-1.36,2.52,-1.32,2.55,-2.61,-2.79,-2.11,-3.96,-3.93,-3.88
95.39,-1.27,2.61,-1.25,2.62,-2.64,-2.87,-2.14,-3.91,-3.90,-3.87
96.34,-1.14,2.75,-1.18,2.70,-2.67,-2.94,-2.18,-3.81,-3.86,-3.89
97.30,-1.14,2.75,-1.14,2.76,-2.70,-3.00,-2.21,-3.84,-3.84,-3.89
98.28,-1.14,2.76,-1.13,2.77,-2.73,-3.07,-2.25,-3.87,-3.85,-3.90
99.26,-1.14,2.77,-1.14,2.77,-2.76,-3.13,-2.29,-3.89,-3.89,-3.91
100.25,-1.14,2.78,-1.14,2.78,-2.78,-3.19,-2.33,-3.92,-3.92,-3.92
101.25,-1.14,2.80,-1.14,2.80,-2.81,-3.25,-2.37,-3.94,-3.94,-3.94
102.27,-1.14,2.82,-1.14,2.81,-2.84,-3.30,-2.41,-3.98,-3.98,-3.96
103.29,-1.14,2.85,-1.15,2.83,-2.88,-3.34,-2.45,-4.02,-4.03,-3.98
104.32,-1.14,2.87,-1.12,2.89,-2.94,-3.38,-2.49,-4.07,-4.05,-4.00
105.37,-1.08,2.96,-1.05,2.98,-3.00,-3.41,-2.53,-4.08,-4.06,-4.03
106.42,-0.95,3.12,-0.98,3.09,-3.08,-3.44,-2.57,-4.03,-4.06,-4.07
107.48,-0.91,3.21,-0.92,3.20,-3.16,-3.46,-2.61,-4.07,-4.08,-4.12
108.56,-0.91,3.27,-0.90,3.28,-3.25,-3.48,-2.65,-4.15,-4.14,-4.18
109.64,-0.91,3.32,-0.90,3.32,-3.32,-3.49,-2.69,-4.23,-4.23,-4.23
110.74,-0.91,3.37,-0.91,3.37,-3.39,-3.49,-2.73,-4.30,-4.30,-4.28
111.85,-0.91,3.42,-0.90,3.43,-3.44,-3.48,-2.76,-4.35,-4.34,-4.33
112.97,-0.91,3.49,-0.90,3.49,-3.47,-3.47,-2.80,-4.38,-4.37,-4.40
114.10,-0.91,3.54,-0.92,3.53,-3.49,-3.45,-2.83,-4.40,-4.41,-4.45
115.24,-0.94,3.57,-0.97,3.53,-3.51,-3.43,-2.86,-4.44,-4.48,-4.50
116.39,-1.07,3.49,-1.05,3.51,-3.52,-3.40,-2.89,-4.59,-4.57,-4.56
117.55,-1.14,3.47,-1.11,3.50,-3.54,-3.36,-2.91,-4.68,-4.65,-4.61
118.73,-1.14,3.52,-1.15,3.51,-3.55,-3.32,-2.94,-4.69,-4.70,-4.66
119.92,-1.14,3.55,-1.14,3.55,-3.57,-3.28,-2.96,-4.71,-4.71,-4.68
121.12,-1.14,3.58,-1.14,3.58,-3.59,-3.23,-2.97,-4.72,-4.72,-4.72
122.33,-1.14,3.61,-1.14,3.60,-3.60,-3.18,-2.98,-4.74,-4.74,-4.75
123.55,-1.14,3.62,-1.13,3.63,-3.61,-3.12,-2.99,-4.75,-4.74,-4.75
124.79,-1.14,3.64,-1.13,3.64,-3.61,-3.07,-3.00,-4.75,-4.75,-4.78
126.03,-1.14,3.66,-1.16,3.63,-3.61,-3.01,-3.00,-4.75,-4.78,-4.79
127.29,-1.21,3.60,-1.22,3.59,-3.60,-2.95,-3.00,-4.81,-4.82,-4.81
128.57,-1.32,3.51,-1.28,3.54,-3.57,-2.88,-2.99,-4.89,-4.86,-4.83
129.85,-1.37,3.48,-1.37,3.48,-3.52,-2.82,-2.98,-4.89,-4.89,-4.85
131.15,-1.41,3.45,-1.43,3.43,-3.44,-2.76,-2.97,-4.85,-4.87,-4.86
132.46,-1.54,3.34,-1.50,3.38,-3.34,-2.70,-2.95,-4.87,-4.83,-4.88
133.79,-1.59,3.31,-1.61,3.28,-3.21,-2.63,-2.93,-4.80,-4.82,-4.89
135.12,-1.76,3.17,-1.79,3.13,-3.07,-2.57,-2.91,-4.83,-4.86,-4.92
136.48,-2.03,2.91,-2.02,2.92,-2.91,-2.51,-2.88,-4.94,-4.93,-4.94
137.84,-2.29,2.67,-2.29,2.68,-2.74,-2.45,-2.86,-5.03,-5.03,-4.96
139.22,-2.55,2.45,-2.51,2.48,-2.55,-2.39,-2.83,-5.10,-5.06,-5.00
140.61,-2.72,2.31,-2.70,2.31,-2.34,-2.33,-2.80,-5.06,-5.04,-5.02
142.02,-2.84,2.20,-2.89,2.15,-2.11,-2.28,-2.76,-4.95,-5.01,-5.03
143.44,-3.11,1.95,-3.10,1.96,-1.88,-2.22,-2.73,-4.99,-4.99,-5.06
144.87,-3.37,1.72,-3.35,1.73,-1.66,-2.17,-2.69,-5.03,-5.01,-5.09
146.32,-3.63,1.50,-3.63,1.49,-1.45,-2.12,-2.66,-5.08,-5.08,-5.13
147.78,-3.89,1.26,-3.91,1.25,-1.26,-2.07,-2.62,-5.15,-5.17,-5.15
149.26,-4.16,1.05,-4.17,1.04,-1.10,-2.02,-2.59,-5.26,-5.27,-5.21
150.75,-4.42,0.85,-4.38,0.88,-0.98,-1.98,-2.55,-5.40,-5.36,-5.27
152.26,-4.52,0.81,-4.51,0.82,-0.91,-1.93,-2.51,-5.43,-5.42,-5.33
153.78,-4.56,0.83,-4.58,0.82,-0.90,-1.89,-2.48,-5.45,-5.47,-5.39
155.32,-4.56,0.92,-4.56,0.91,-0.94,-1.85,-2.44,-5.50,-5.50,-5.47
156.88,-4.54,1.00,-4.50,1.04,-1.02,-1.81,-2.41,-5.56,-5.52,-5.54
158.44,-4.39,1.21,-4.43,1.17,-1.14,-1.78,-2.37,-5.52,-5.57,-5.60
160.03,-4.33,1.33,-4.35,1.30,-1.27,-1.74,-2.34,-5.60,-5.62,-5.66
161.63,-4.33,1.38,-4.27,1.44,-1.40,-1.71,-2.31,-5.73,-5.67,-5.71
163.24,-4.19,1.56,-4.20,1.55,-1.53,-1.68,-2.28,-5.72,-5.73,-5.75
164.88,-4.10,1.68,-4.14,1.64,-1.64,-1.66,-2.25,-5.73,-5.78,-5.78
166.53,-4.10,1.71,-4.10,1.71,-1.71,-1.63,-2.22,-5.81,-5.81,-5.81
168.19,-4.10,1.73,-4.06,1.77,-1.76,-1.61,-2.20,-5.86,-5.82,-5.83
169.87,-4.05,1.79,-4.01,1.82,-1.79,-1.59,-2.17,-5.84,-5.81,-5.84
171.57,-3.91,1.93,-3.99,1.84,-1.80,-1.57,-2.15,-5.71,-5.80,-5.83
173.29,-4.01,1.81,-4.01,1.81,-1.79,-1.55,-2.13,-5.80,-5.80,-5.82
175.02,-4.10,1.70,-4.05,1.76,-1.77,-1.54,-2.11,-5.87,-5.82,-5.80
176.77,-4.10,1.70,-4.10,1.69,-1.73,-1.53,-2.09,-5.83,-5.84,-5.79
178.54,-4.10,1.68,-4.10,1.68,-1.69,-1.52,-2.08,-5.78,-5.78,-5.78
180.32,-4.10,1.67,-4.09,1.67,-1.64,-1.51,-2.06,-5.74,-5.73,-5.76
182.13,-4.10,1.65,-4.15,1.60,-1.60,-1.50,-2.05,-5.70,-5.75,-5.75
183.95,-4.19,1.56,-4.18,1.56,-1.57,-1.50,-2.04,-5.76,-5.76,-5.74
185.79,-4.32,1.43,-4.22,1.53,-1.56,-1.50,-2.03,-5.88,-5.79,-5.75
187.65,-4.16,1.60,-4.26,1.49,-1.55,-1.50,-2.02,-5.71,-5.82,-5.76
189.52,-4.28,1.50,-4.24,1.53,-1.55,-1.50,-2.01,-5.83,-5.79,-5.77
191.42,-4.27,1.52,-4.20,1.58,-1.54,-1.51,-2.01,-5.81,-5.74,-5.79
193.33,-4.15,1.65,-4.22,1.57,-1.54,-1.52,-2.00,-5.68,-5.76,-5.80
195.27,-4.20,1.60,-4.22,1.58,-1.54,-1.53,-2.00,-5.73,-5.76,-5.80
197.22,-4.30,1.51,-4.26,1.56,-1.53,-1.55,-2.00,-5.83,-5.79,-5.81
199.19,-4.33,1.51,-4.32,1.51,-1.53,-1.56,-2.00,-5.86,-5.85,-5.84
201.18,-4.33,1.51,-4.34,1.51,-1.53,-1.58,-2.00,-5.86,-5.87,-5.84
203.19,-4.33,1.52,-4.33,1.53,-1.54,-1.61,-2.00,-5.87,-5.87,-5.85
205.23,-4.33,1.54,-4.34,1.52,-1.55,-1.64,-2.00,-5.88,-5.89,-5.87
207.28,-4.33,1.54,-4.33,1.55,-1.58,-1.67,-2.00,-5.91,-5.91,-5.87
209.35,-4.33,1.56,-4.28,1.61,-1.61,-1.70,-2.01,-5.94,-5.89,-5.89
211.44,-4.20,1.71,-4.21,1.69,-1.66,-1.74,-2.01,-5.86,-5.87,-5.91
213.56,-4.11,1.80,-4.15,1.76,-1.73,-1.78,-2.02,-5.84,-5.88,-5.91
215.69,-4.10,1.81,-4.10,1.82,-1.81,-1.82,-2.02,-5.91,-5.91,-5.91
217.85,-4.10,1.83,-4.07,1.85,-1.90,-1.86,-2.03,-6.00,-5.97,-5.92
220.03,-4.01,1.92,-4.01,1.93,-2.00,-1.91,-2.03,-6.01,-6.01,-5.93
222.23,-3.91,2.04,-3.91,2.04,-2.09,-1.96,-2.04,-6.00,-6.00,-5.95
224.45,-3.76,2.19,-3.75,2.20,-2.17,-2.02,-2.04,-5.92,-5.91,-5.95
226.70,-3.65,2.30,-3.63,2.32,-2.22,-2.07,-2.04,-5.87,-5.85,-5.94
228.96,-3.49,2.46,-3.57,2.38,-2.28,-2.12,-2.05,-5.76,-5.85,-5.95
231.25,-3.60,2.35,-3.57,2.38,-2.32,-2.18,-2.05,-5.92,-5.90,-5.95
233.57,-3.64,2.32,-3.60,2.35,-2.37,-2.23,-2.05,-6.01,-5.97,-5.95
235.90,-3.64,2.32,-3.66,2.30,-2.40,-2.28,-2.05,-6.04,-6.06,-5.96
238.26,-3.64,2.32,-3.64,2.31,-2.41,-2.32,-2.04,-6.05,-6.05,-5.96
240.64,-3.64,2.31,-3.58,2.36,-2.40,-2.36,-2.04,-6.04,-5.99,-5.95
243.05,-3.49,2.45,-3.50,2.44,-2.39,-2.39,-2.03,-5.88,-5.89,-5.94
245.48,-3.42,2.51,-3.45,2.48,-2.38,-2.41,-2.03,-5.80,-5.84,-5.93
247.93,-3.42,2.50,-3.47,2.45,-2.37,-2.43,-2.02,-5.79,-5.84,-5.92
250.41,-3.60,2.32,-3.54,2.37,-2.36,-2.43,-2.01,-5.95,-5.90,-5.92
252.92,-3.64,2.27,-3.62,2.28,-2.34,-2.43,-1.99,-5.97,-5.95,-5.91
255.45,-3.64,2.24,-3.65,2.24,-2.31,-2.41,-1.98,-5.95,-5.96,-5.88
258.00,-3.64,2.24,-3.64,2.23,-2.28,-2.39,-1.96,-5.91,-5.92,-5.87
260.58,-3.64,2.23,-3.64,2.23,-2.25,-2.36,-1.94,-5.88,-5.88,-5.87
263.19,-3.64,2.21,-3.64,2.22,-2.22,-2.32,-1.92,-5.85,-5.85,-5.85
265.82,-3.64,2.21,-3.64,2.20,-2.19,-2.27,-1.90,-5.82,-5.82,-5.85
268.48,-3.64,2.18,-3.62,2.20,-2.15,-2.22,-1.88,-5.79,-5.78,-5.82
271.16,-3.64,2.17,-3.64,2.17,-2.11,-2.16,-1.86,-5.75,-5.75,-5.80
273.87,-3.64,2.15,-3.69,2.09,-2.06,-2.10,-1.83,-5.70,-5.75,-5.79
276.61,-3.78,1.97,-3.76,2.00,-2.00,-2.04,-1.80,-5.78,-5.76,-5.75
279.38,-3.86,1.88,-3.83,1.90,-1.94,-1.98,-1.77,-5.80,-5.77,-5.73
282.17,-3.87,1.84,-3.87,1.83,-1.88,-1.92,-1.74,-5.75,-5.76,-5.71
284.99,-3.87,1.81,-3.87,1.80,-1.83,-1.86,-1.71,-5.70,-5.70,-5.68
287.84,-3.87,1.78,-3.87,1.78,-1.78,-1.80,-1.68,-5.65,-5.65,-5.65
290.72,-3.87,1.75,-3.87,1.75,-1.74,-1.75,-1.65,-5.61,-5.61,-5.61
293.63,-3.87,1.72,-3.87,1.72,-1.71,-1.69,-1.62,-5.58,-5.58,-5.59
296.57,-3.87,1.69,-3.87,1.69,-1.68,-1.64,-1.59,-5.55,-5.55,-5.56
299.53,-3.87,1.66,-3.87,1.67,-1.66,-1.59,-1.56,-5.53,-5.53,-5.53
302.53,-3.87,1.65,-3.87,1.64,-1.64,-1.55,-1.53,-5.50,-5.50,-5.51
305.55,-3.87,1.61,-3.87,1.62,-1.61,-1.51,-1.49,-5.48,-5.48,-5.48
308.61,-3.87,1.59,-3.87,1.59,-1.59,-1.47,-1.46,-5.46,-5.46,-5.46
311.69,-3.87,1.57,-3.87,1.57,-1.58,-1.43,-1.43,-5.44,-5.44,-5.44
314.81,-3.87,1.54,-3.87,1.55,-1.56,-1.40,-1.40,-5.43,-5.43,-5.41
317.96,-3.87,1.55,-3.87,1.55,-1.55,-1.36,-1.37,-5.42,-5.42,-5.41
321.14,-3.87,1.55,-3.87,1.54,-1.54,-1.34,-1.34,-5.41,-5.41,-5.42
324.35,-3.87,1.54,-3.87,1.54,-1.53,-1.31,-1.31,-5.40,-5.40,-5.41
327.59,-3.87,1.53,-3.87,1.53,-1.53,-1.28,-1.28,-5.40,-5.40,-5.40
330.87,-3.87,1.52,-3.87,1.53,-1.52,-1.26,-1.25,-5.39,-5.39,-5.39
334.18,-3.87,1.51,-3.87,1.51,-1.52,-1.24,-1.22,-5.39,-5.39,-5.38
337.52,-3.87,1.51,-3.87,1.50,-1.51,-1.22,-1.19,-5.38,-5.38,-5.37
340.90,-3.87,1.48,-3.87,1.49,-1.50,-1.21,-1.17,-5.36,-5.36,-5.35
344.30,-3.87,1.47,-3.87,1.47,-1.47,-1.19,-1.14,-5.34,-5.34,-5.34
347.75,-3.87,1.45,-3.86,1.46,-1.43,-1.18,-1.12,-5.30,-5.29,-5.32
351.23,-3.87,1.42,-3.86,1.43,-1.38,-1.17,-1.09,-5.25,-5.24,-5.29
354.74,-3.87,1.40,-3.91,1.36,-1.33,-1.16,-1.07,-5.19,-5.23,-5.27
358.28,-3.98,1.26,-3.97,1.27,-1.27,-1.15,-1.04,-5.25,-5.24,-5.24
361.87,-4.07,1.16,-4.04,1.18,-1.21,-1.14,-1.02,-5.28,-5.25,-5.22
365.49,-4.10,1.10,-4.09,1.10,-1.15,-1.13,-1.00,-5.25,-5.24,-5.19
369.14,-4.10,1.08,-4.10,1.07,-1.10,-1.13,-0.98,-5.20,-5.20,-5.18
372.83,-4.10,1.05,-4.10,1.05,-1.05,-1.12,-0.96,-5.15,-5.15,-5.15
376.56,-4.10,1.03,-4.10,1.03,-1.02,-1.12,-0.94,-5.11,-5.11,-5.13
380.33,-4.10,1.00,-4.10,1.00,-1.00,-1.12,-0.92,-5.10,-5.10,-5.10
384.13,-4.10,0.98,-4.10,0.98,-0.99,-1.11,-0.91,-5.09,-5.09,-5.08
387.97,-4.10,0.97,-4.10,0.97,-0.99,-1.11,-0.89,-5.08,-5.08,-5.07
391.85,-4.10,0.96,-4.10,0.96,-0.97,-1.11,-0.87,-5.07,-5.07,-5.06
395.77,-4.10,0.95,-4.10,0.95,-0.94,-1.11,-0.86,-5.04,-5.04,-5.05
399.73,-4.10,0.94,-4.09,0.96,-0.91,-1.11,-0.84,-5.00,-4.99,-5.04
403.72,-4.10,0.93,-4.10,0.94,-0.87,-1.12,-0.83,-4.97,-4.96,-5.03
407.76,-4.10,0.93,-4.14,0.88,-0.83,-1.12,-0.82,-4.93,-4.98,-5.02
411.84,-4.23,0.79,-4.22,0.80,-0.81,-1.12,-0.80,-5.04,-5.03,-5.01
415.96,-4.32,0.69,-4.30,0.71,-0.79,-1.12,-0.79,-5.11,-5.09,-5.00
420.12,-4.33,0.68,-4.32,0.68,-0.78,-1.13,-0.78,-5.11,-5.11,-5.01
424.32,-4.31,0.70,-4.27,0.74,-0.78,-1.13,-0.77,-5.09,-5.05,-5.01
428.56,-4.16,0.85,-4.19,0.82,-0.78,-1.14,-0.77,-4.94,-4.97,-5.01
