frequency,raw,error,smoothed,error_smoothed,equalization,parametric_eq,fixed_band_eq,equalized_raw,equalized_smoothed,target
20.00,7.59,1.79,7.59,1.79,-1.79,-1.45,-0.72,5.80,5.80,5.80
20.20,7.61,1.77,7.61,1.77,-1.76,-1.45,-0.74,5.85,5.85,5.84
20.40,7.63,1.75,7.63,1.75,-1.74,-1.45,-0.76,5.89,5.88,5.88
20.61,7.65,1.74,7.65,1.73,-1.73,-1.45,-0.79,5.92,5.92,5.91
20.81,7.66,1.71,7.66,1.71,-1.71,-1.45,-0.81,5.95,5.95,5.95
21.02,7.68,1.69,7.68,1.69,-1.70,-1.45,-0.83,5.98,5.98,5.99
21.23,7.70,1.69,7.70,1.68,-1.69,-1.45,-0.86,6.01,6.01,6.01
21.44,7.72,1.69,7.72,1.68,-1.68,-1.45,-0.88,6.04,6.03,6.03
21.66,7.73,1.68,7.73,1.68,-1.68,-1.45,-0.91,6.05,6.05,6.05
21.87,7.75,1.69,7.75,1.68,-1.68,-1.45,-0.94,6.07,6.07,6.06
22.09,7.77,1.69,7.77,1.69,-1.69,-1.45,-0.97,6.08,6.08,6.08
22.31,7.78,1.69,7.78,1.69,-1.69,-1.45,-0.99,6.09,6.09,6.09
22.54,7.80,1.70,7.80,1.70,-1.70,-1.45,-1.02,6.10,6.10,6.10
22.76,7.81,1.70,7.81,1.70,-1.71,-1.45,-1.05,6.10,6.11,6.11
22.99,7.83,1.72,7.83,1.71,-1.71,-1.45,-1.08,6.12,6.12,6.11
23.22,7.84,1.72,7.84,1.72,-1.72,-1.45,-1.12,6.12,6.12,6.12
23.45,7.86,1.73,7.86,1.73,-1.72,-1.45,-1.15,6.14,6.13,6.13
23.69,7.87,1.73,7.87,1.73,-1.73,-1.45,-1.18,6.14,6.14,6.14
23.92,7.89,1.74,7.89,1.73,-1.73,-1.45,-1.21,6.16,6.15,6.15
24.16,7.90,1.73,7.90,1.73,-1.74,-1.45,-1.25,6.16,6.16,6.17
24.40,7.91,1.72,7.91,1.73,-1.74,-1.45,-1.28,6.17,6.17,6.19
24.65,7.93,1.74,7.93,1.74,-1.74,-1.45,-1.32,6.19,6.19,6.19
24.89,7.94,1.74,7.94,1.75,-1.74,-1.45,-1.35,6.20,6.20,6.20
25.14,7.96,1.75,7.96,1.75,-1.75,-1.45,-1.39,6.21,6.21,6.21
25.39,7.97,1.75,7.97,1.75,-1.75,-1.45,-1.42,6.22,6.22,6.22
25.65,7.98,1.74,7.98,1.75,-1.75,-1.45,-1.46,6.23,6.23,6.24
25.91,7.99,1.75,7.99,1.75,-1.75,-1.45,-1.50,6.24,6.24,6.24
26.16,8.00,1.76,8.00,1.75,-1.75,-1.45,-1.53,6.25,6.25,6.24
26.43,8.01,1.76,8.01,1.76,-1.75,-1.45,-1.57,6.26,6.26,6.25
26.69,8.02,1.76,8.02,1.75,-1.75,-1.45,-1.60,6.27,6.27,6.26
26.96,8.03,1.75,8.03,1.75,-1.75,-1.45,-1.64,6.28,6.28,6.28
27.23,8.04,1.75,8.04,1.75,-1.75,-1.45,-1.67,6.29,6.29,6.29
27.50,8.05,1.75,8.05,1.75,-1.75,-1.45,-1.70,6.30,6.30,6.30
27.77,8.05,1.75,8.05,1.75,-1.75,-1.45,-1.73,6.30,6.30,6.30
28.05,8.06,1.74,8.06,1.75,-1.75,-1.45,-1.76,6.31,6.31,6.32
28.33,8.07,1.75,8.07,1.74,-1.74,-1.45,-1.79,6.33,6.32,6.32
28.62,8.07,1.74,8.07,1.75,-1.74,-1.45,-1.82,6.33,6.33,6.33
28.90,8.08,1.74,8.08,1.74,-1.74,-1.45,-1.84,6.34,6.34,6.34
29.19,8.08,1.74,8.08,1.73,-1.73,-1.45,-1.86,6.35,6.35,6.34
29.48,8.08,1.71,8.08,1.72,-1.73,-1.45,-1.88,6.35,6.35,6.37
29.78,8.08,1.72,8.08,1.72,-1.72,-1.45,-1.90,6.36,6.36,6.36
30.08,8.08,1.71,8.08,1.71,-1.72,-1.44,-1.92,6.36,6.36,6.37
30.38,8.09,1.72,8.09,1.71,-1.72,-1.44,-1.93,6.37,6.37,6.37
30.68,8.10,1.71,8.10,1.71,-1.71,-1.44,-1.94,6.39,6.38,6.39
30.99,8.11,1.72,8.11,1.72,-1.71,-1.44,-1.95,6.40,6.39,6.39
31.30,8.11,1.71,8.11,1.71,-1.71,-1.44,-1.95,6.40,6.40,6.40
31.61,8.12,1.71,8.12,1.71,-1.71,-1.44,-1.96,6.41,6.41,6.41
31.93,8.12,1.70,8.12,1.71,-1.70,-1.44,-1.96,6.42,6.42,6.42
32.24,8.12,1.70,8.12,1.70,-1.69,-1.44,-1.95,6.43,6.42,6.42
32.57,8.11,1.68,8.11,1.68,-1.68,-1.44,-1.95,6.43,6.43,6.43
32.89,8.11,1.67,8.11,1.67,-1.67,-1.44,-1.94,6.44,6.44,6.44
33.22,8.10,1.65,8.10,1.65,-1.65,-1.44,-1.93,6.45,6.45,6.45
33.55,8.09,1.63,8.09,1.63,-1.63,-1.44,-1.92,6.46,6.46,6.46
33.89,8.08,1.61,8.08,1.61,-1.61,-1.44,-1.90,6.47,6.47,6.47
34.23,8.07,1.59,8.07,1.59,-1.59,-1.44,-1.88,6.48,6.48,6.48
34.57,8.05,1.57,8.05,1.57,-1.57,-1.44,-1.86,6.48,6.48,6.48
34.92,8.03,1.55,8.03,1.54,-1.55,-1.44,-1.84,6.48,6.48,6.48
35.27,8.01,1.52,8.01,1.52,-1.52,-1.44,-1.82,6.49,6.49,6.49
35.62,7.99,1.49,7.99,1.50,-1.49,-1.44,-1.80,6.50,6.50,6.50
35.97,7.97,1.47,7.97,1.47,-1.47,-1.44,-1.78,6.50,6.50,6.50
36.33,7.94,1.44,7.94,1.44,-1.44,-1.44,-1.75,6.50,6.50,6.50
36.70,7.91,1.41,7.91,1.41,-1.40,-1.43,-1.73,6.51,6.51,6.50
37.06,7.88,1.37,7.88,1.37,-1.37,-1.43,-1.70,6.51,6.51,6.51
37.43,7.85,1.33,7.85,1.34,-1.34,-1.43,-1.67,6.51,6.51,6.52
37.81,7.82,1.31,7.82,1.30,-1.31,-1.43,-1.65,6.51,6.51,6.51
38.19,7.78,1.27,7.78,1.27,-1.27,-1.43,-1.62,6.51,6.51,6.51
38.57,7.75,1.24,7.75,1.24,-1.24,-1.43,-1.60,6.51,6.51,6.51
38.95,7.71,1.20,7.71,1.21,-1.21,-1.43,-1.57,6.50,6.51,6.51
39.34,7.68,1.18,7.68,1.18,-1.17,-1.43,-1.55,6.51,6.51,6.50
39.74,7.65,1.15,7.65,1.15,-1.14,-1.43,-1.52,6.51,6.51,6.50
40.14,7.62,1.11,7.62,1.12,-1.11,-1.43,-1.50,6.51,6.51,6.51
40.54,7.59,1.09,7.59,1.08,-1.08,-1.42,-1.47,6.51,6.50,6.50
40.94,7.55,1.05,7.56,1.06,-1.06,-1.42,-1.45,6.49,6.50,6.50
41.35,7.53,1.03,7.53,1.03,-1.03,-1.42,-1.43,6.50,6.50,6.50
41.76,7.51,1.01,7.51,1.01,-1.01,-1.42,-1.41,6.50,6.50,6.50
42.18,7.50,0.99,7.50,0.99,-1.00,-1.42,-1.39,6.50,6.50,6.51
42.60,7.49,0.99,7.49,0.98,-0.99,-1.42,-1.37,6.50,6.50,6.50
43.03,7.49,0.98,7.49,0.98,-0.99,-1.42,-1.35,6.50,6.50,6.51
43.46,7.49,0.98,7.49,0.99,-0.99,-1.42,-1.33,6.50,6.50,6.51
43.90,7.49,1.00,7.49,0.99,-0.99,-1.41,-1.32,6.50,6.50,6.49
44.33,7.50,1.00,7.50,1.01,-1.00,-1.41,-1.30,6.50,6.50,6.50
44.78,7.51,1.02,7.51,1.01,-1.01,-1.41,-1.29,6.50,6.50,6.49
45.23,7.51,1.02,7.51,1.02,-1.02,-1.41,-1.27,6.49,6.49,6.49
45.68,7.52,1.03,7.52,1.03,-1.03,-1.41,-1.26,6.49,6.49,6.49
46.13,7.53,1.04,7.53,1.04,-1.04,-1.41,-1.25,6.49,6.49,6.49
46.60,7.55,1.05,7.55,1.05,-1.05,-1.40,-1.24,6.50,6.50,6.50
47.06,7.56,1.07,7.56,1.06,-1.06,-1.40,-1.23,6.50,6.50,6.49
47.53,7.57,1.08,7.57,1.07,-1.08,-1.40,-1.22,6.49,6.49,6.49
48.01,7.58,1.08,7.58,1.09,-1.10,-1.40,-1.21,6.48,6.48,6.50
48.49,7.59,1.10,7.59,1.11,-1.12,-1.40,-1.21,6.47,6.48,6.49
48.97,7.61,1.14,7.61,1.13,-1.14,-1.39,-1.20,6.47,6.47,6.47
49.46,7.62,1.16,7.62,1.16,-1.16,-1.39,-1.20,6.46,6.46,6.46
49.96,7.64,1.20,7.64,1.19,-1.18,-1.39,-1.19,6.46,6.45,6.44
50.46,7.65,1.20,7.65,1.21,-1.20,-1.39,-1.19,6.45,6.45,6.45
50.96,7.66,1.22,7.66,1.23,-1.22,-1.38,-1.19,6.44,6.44,6.44
51.47,7.66,1.25,7.66,1.24,-1.23,-1.38,-1.19,6.43,6.42,6.41
51.99,7.65,1.25,7.65,1.25,-1.24,-1.38,-1.18,6.41,6.41,6.40
52.51,7.64,1.24,7.64,1.25,-1.25,-1.38,-1.18,6.39,6.40,6.40
53.03,7.63,1.25,7.63,1.24,-1.25,-1.37,-1.18,6.38,6.38,6.38
53.56,7.61,1.24,7.61,1.24,-1.24,-1.37,-1.18,6.37,6.37,6.37
54.10,7.60,1.25,7.59,1.24,-1.24,-1.37,-1.18,6.36,6.35,6.35
54.64,7.57,1.23,7.57,1.23,-1.24,-1.36,-1.18,6.33,6.34,6.34
55.18,7.55,1.23,7.55,1.23,-1.23,-1.36,-1.18,6.32,6.32,6.32
55.74,7.53,1.23,7.53,1.22,-1.22,-1.36,-1.18,6.31,6.31,6.30
56.29,7.51,1.21,7.51,1.21,-1.21,-1.35,-1.18,6.30,6.30,6.30
56.86,7.48,1.20,7.48,1.20,-1.19,-1.35,-1.18,6.29,6.29,6.28
57.42,7.44,1.18,7.44,1.18,-1.17,-1.34,-1.18,6.27,6.27,6.26
58.00,7.40,1.15,7.40,1.15,-1.14,-1.34,-1.18,6.26,6.25,6.25
58.58,7.35,1.12,7.35,1.12,-1.12,-1.34,-1.18,6.23,6.23,6.23
59.16,7.31,1.09,7.31,1.09,-1.09,-1.33,-1.18,6.22,6.21,6.22
59.76,7.26,1.05,7.26,1.06,-1.07,-1.33,-1.18,6.19,6.19,6.21
60.35,7.22,1.04,7.22,1.04,-1.05,-1.32,-1.17,6.17,6.17,6.18
60.96,7.18,1.02,7.18,1.02,-1.03,-1.32,-1.17,6.15,6.15,6.16
61.57,7.14,1.02,7.14,1.02,-1.02,-1.31,-1.16,6.12,6.12,6.12
62.18,7.10,1.01,7.10,1.01,-1.01,-1.31,-1.16,6.09,6.09,6.09
62.80,7.07,1.00,7.07,1.01,-1.01,-1.30,-1.15,6.06,6.06,6.07
63.43,7.04,1.00,7.04,1.01,-1.00,-1.30,-1.15,6.04,6.04,6.04
64.07,7.02,1.01,7.02,1.01,-1.00,-1.29,-1.14,6.02,6.02,6.01
64.71,6.99,1.01,6.99,1.01,-1.00,-1.29,-1.13,5.99,5.99,5.98
65.35,6.96,1.01,6.96,1.01,-1.00,-1.28,-1.12,5.96,5.96,5.95
66.01,6.93,1.01,6.93,1.00,-1.01,-1.28,-1.12,5.93,5.92,5.92
66.67,6.90,0.99,6.90,1.00,-1.01,-1.27,-1.11,5.89,5.89,5.91
67.33,6.88,1.00,6.88,1.01,-1.02,-1.26,-1.10,5.86,5.87,5.88
68.01,6.87,1.02,6.87,1.02,-1.03,-1.26,-1.09,5.84,5.84,5.85
68.69,6.86,1.05,6.86,1.04,-1.04,-1.25,-1.07,5.82,5.82,5.81
69.37,6.84,1.06,6.84,1.06,-1.05,-1.24,-1.06,5.79,5.79,5.78
70.07,6.83,1.08,6.83,1.07,-1.07,-1.24,-1.05,5.76,5.76,5.75
70.77,6.81,1.08,6.81,1.09,-1.09,-1.23,-1.04,5.72,5.73,5.73
71.48,6.81,1.10,6.81,1.10,-1.11,-1.22,-1.03,5.70,5.69,5.71
72.19,6.80,1.13,6.80,1.13,-1.13,-1.22,-1.01,5.67,5.67,5.67
72.91,6.80,1.15,6.80,1.15,-1.16,-1.21,-1.00,5.64,5.65,5.65
73.64,6.81,1.19,6.81,1.18,-1.18,-1.20,-0.99,5.63,5.63,5.62
74.38,6.81,1.20,6.81,1.21,-1.21,-1.19,-0.98,5.60,5.61,5.61
75.12,6.82,1.24,6.81,1.23,-1.23,-1.18,-0.96,5.59,5.59,5.58
75.87,6.81,1.24,6.81,1.25,-1.25,-1.18,-0.95,5.56,5.57,5.57
76.63,6.81,1.26,6.81,1.27,-1.26,-1.17,-0.94,5.55,5.55,5.55
77.40,6.81,1.28,6.81,1.28,-1.27,-1.16,-0.93,5.54,5.53,5.53
78.17,6.80,1.29,6.80,1.28,-1.28,-1.15,-0.92,5.52,5.52,5.51
78.95,6.78,1.28,6.78,1.28,-1.27,-1.14,-0.91,5.50,5.51,5.50
79.74,6.76,1.27,6.76,1.27,-1.27,-1.13,-0.90,5.49,5.49,5.49
80.54,6.73,1.25,6.73,1.25,-1.25,-1.12,-0.89,5.48,5.48,5.48
81.35,6.70,1.23,6.70,1.23,-1.23,-1.11,-0.88,5.47,5.47,5.47
82.16,6.66,1.20,6.66,1.20,-1.20,-1.11,-0.87,5.46,5.46,5.46
82.98,6.62,1.16,6.61,1.16,-1.16,-1.10,-0.86,5.46,5.45,5.46
83.81,6.56,1.11,6.57,1.12,-1.12,-1.09,-0.86,5.44,5.45,5.45
84.65,6.51,1.08,6.51,1.07,-1.07,-1.08,-0.85,5.44,5.44,5.43
85.50,6.46,1.02,6.45,1.02,-1.01,-1.07,-0.84,5.45,5.44,5.44
86.35,6.39,0.95,6.39,0.96,-0.95,-1.06,-0.84,5.44,5.44,5.44
87.22,6.32,0.89,6.32,0.89,-0.88,-1.05,-0.83,5.44,5.44,5.43
88.09,6.24,0.81,6.24,0.81,-0.81,-1.04,-0.83,5.43,5.43,5.43
88.97,6.16,0.73,6.16,0.73,-0.74,-1.03,-0.82,5.42,5.42,5.43
89.86,6.08,0.64,6.08,0.65,-0.66,-1.02,-0.82,5.42,5.42,5.44
90.76,6.01,0.59,6.01,0.58,-0.59,-1.01,-0.82,5.42,5.42,5.42
91.66,5.94,0.52,5.94,0.52,-0.52,-1.00,-0.82,5.42,5.43,5.42
92.58,5.88,0.46,5.88,0.45,-0.45,-0.99,-0.82,5.43,5.43,5.42
93.51,5.81,0.38,5.81,0.38,-0.38,-0.98,-0.82,5.43,5.43,5.43
94.44,5.74,0.32,5.74,0.32,-0.32,-0.97,-0.82,5.42,5.43,5.42
95.39,5.67,0.25,5.67,0.25,-0.25,-0.96,-0.82,5.42,5.42,5.42
96.34,5.60,0.19,5.60,0.19,-0.20,-0.95,-0.82,5.40,5.41,5.41
97.30,5.54,0.14,5.54,0.14,-0.14,-0.94,-0.82,5.40,5.40,5.40
98.28,5.48,0.09,5.48,0.09,-0.09,-0.93,-0.82,5.39,5.39,5.39
99.26,5.43,0.05,5.43,0.05,-0.05,-0.92,-0.82,5.38,5.38,5.38
100.25,5.38,0.01,5.38,0.01,-0.01,-0.92,-0.83,5.37,5.37,5.37
101.25,5.34,-0.02,5.34,-0.02,0.02,-0.91,-0.83,5.36,5.36,5.36
102.27,5.30,-0.04,5.31,-0.04,0.04,-0.90,-0.83,5.34,5.35,5.34
103.29,5.28,-0.04,5.27,-0.05,0.06,-0.89,-0.84,5.34,5.34,5.32
104.32,5.25,-0.06,5.24,-0.07,0.07,-0.89,-0.84,5.32,5.32,5.31
105.37,5.21,-0.08,5.22,-0.08,0.08,-0.88,-0.85,5.29,5.30,5.29
106.42,5.19,-0.08,5.19,-0.08,0.07,-0.88,-0.85,5.26,5.27,5.27
107.48,5.18,-0.07,5.18,-0.06,0.06,-0.87,-0.85,5.24,5.23,5.25
108.56,5.17,-0.04,5.17,-0.04,0.03,-0.87,-0.86,5.20,5.20,5.21
109.64,5.18,0.00,5.18,-0.00,-0.01,-0.86,-0.86,5.17,5.17,5.18
110.74,5.19,0.04,5.20,0.05,-0.06,-0.86,-0.87,5.13,5.13,5.15
111.85,5.23,0.12,5.23,0.12,-0.13,-0.86,-0.87,5.10,5.10,5.11
112.97,5.27,0.21,5.27,0.20,-0.20,-0.86,-0.87,5.07,5.07,5.06
114.10,5.32,0.29,5.32,0.30,-0.29,-0.86,-0.87,5.03,5.03,5.03
115.24,5.38,0.40,5.36,0.38,-0.38,-0.87,-0.88,5.00,4.99,4.98
116.39,5.40,0.46,5.41,0.47,-0.47,-0.87,-0.88,4.93,4.94,4.94
117.55,5.45,0.55,5.46,0.56,-0.56,-0.88,-0.88,4.89,4.90,4.90
118.73,5.52,0.67,5.51,0.66,-0.66,-0.88,-0.88,4.86,4.86,4.85
119.92,5.58,0.76,5.58,0.76,-0.75,-0.89,-0.88,4.83,4.83,4.82
121.12,5.63,0.85,5.63,0.85,-0.84,-0.90,-0.88,4.79,4.79,4.78
122.33,5.67,0.93,5.67,0.93,-0.93,-0.92,-0.87,4.74,4.75,4.74
123.55,5.72,1.01,5.73,1.02,-1.02,-0.93,-0.87,4.70,4.71,4.71
124.79,5.78,1.10,5.78,1.10,-1.11,-0.96,-0.87,4.67,4.67,4.68
126.03,5.84,1.20,5.83,1.18,-1.20,-0.98,-0.86,4.64,4.63,4.64
127.29,5.87,1.26,5.88,1.27,-1.28,-1.00,-0.86,4.59,4.60,4.61
128.57,5.92,1.35,5.93,1.36,-1.36,-1.03,-0.85,4.56,4.57,4.57
129.85,5.99,1.45,5.98,1.44,-1.43,-1.07,-0.84,4.56,4.55,4.54
131.15,6.04,1.53,6.03,1.52,-1.50,-1.10,-0.83,4.54,4.53,4.51
132.46,6.06,1.57,6.06,1.57,-1.56,-1.15,-0.82,4.50,4.50,4.49
133.79,6.07,1.61,6.07,1.61,-1.61,-1.19,-0.81,4.46,4.46,4.46
135.12,6.07,1.64,6.08,1.64,-1.65,-1.24,-0.80,4.42,4.42,4.43
136.48,6.08,1.67,6.08,1.67,-1.68,-1.29,-0.79,4.40,4.40,4.41
137.84,6.08,1.70,6.08,1.70,-1.70,-1.34,-0.78,4.38,4.38,4.38
139.22,6.07,1.72,6.07,1.71,-1.70,-1.39,-0.77,4.37,4.37,4.35
140.61,6.04,1.72,6.04,1.71,-1.70,-1.44,-0.75,4.34,4.35,4.32
142.02,6.00,1.69,6.00,1.69,-1.68,-1.49,-0.74,4.32,4.32,4.31
143.44,5.96,1.66,5.96,1.67,-1.67,-1.53,-0.72,4.30,4.29,4.30
144.87,5.90,1.63,5.90,1.63,-1.64,-1.56,-0.71,4.26,4.26,4.27
146.32,5.85,1.61,5.85,1.60,-1.61,-1.58,-0.69,4.24,4.24,4.24
147.78,5.78,1.55,5.78,1.56,-1.57,-1.60,-0.68,4.21,4.21,4.23
149.26,5.73,1.53,5.72,1.53,-1.54,-1.58,-0.66,4.19,4.19,4.20
150.75,5.65,1.49,5.66,1.49,-1.50,-1.57,-0.65,4.15,4.16,4.16
152.26,5.60,1.47,5.59,1.46,-1.45,-1.53,-0.63,4.15,4.14,4.13
153.78,5.51,1.40,5.51,1.41,-1.41,-1.49,-0.62,4.10,4.11,4.11
155.32,5.44,1.38,5.44,1.37,-1.36,-1.43,-0.60,4.08,4.08,4.06
156.88,5.34,1.30,5.34,1.30,-1.30,-1.36,-0.59,4.04,4.04,4.04
158.44,5.26,1.25,5.25,1.24,-1.24,-1.28,-0.58,4.02,4.00,4.01
160.03,5.13,1.16,5.15,1.18,-1.18,-1.21,-0.56,3.95,3.97,3.97
161.63,5.04,1.11,5.04,1.11,-1.11,-1.13,-0.55,3.93,3.93,3.93
163.24,4.95,1.05,4.93,1.03,-1.03,-1.04,-0.53,3.92,3.90,3.90
164.88,4.81,0.94,4.83,0.97,-0.96,-0.96,-0.52,3.85,3.88,3.87
166.53,4.72,0.89,4.72,0.89,-0.88,-0.89,-0.50,3.84,3.84,3.83
168.19,4.62,0.83,4.59,0.80,-0.80,-0.81,-0.49,3.82,3.79,3.79
169.87,4.46,0.71,4.48,0.73,-0.73,-0.74,-0.48,3.73,3.75,3.75
171.57,4.35,0.64,4.36,0.65,-0.66,-0.67,-0.47,3.69,3.70,3.71
173.29,4.27,0.60,4.24,0.57,-0.59,-0.60,-0.45,3.68,3.65,3.67
175.02,4.13,0.50,4.14,0.52,-0.53,-0.53,-0.44,3.60,3.61,3.63
176.77,4.04,0.47,4.05,0.47,-0.47,-0.47,-0.43,3.57,3.57,3.57
178.54,3.96,0.43,3.96,0.42,-0.42,-0.41,-0.42,3.54,3.53,3.53
180.32,3.87,0.39,3.87,0.39,-0.37,-0.35,-0.41,3.50,3.50,3.48
182.13,3.78,0.34,3.77,0.33,-0.32,-0.29,-0.40,3.46,3.44,3.44
183.95,3.65,0.27,3.66,0.27,-0.28,-0.24,-0.39,3.37,3.39,3.38
185.79,3.55,0.21,3.56,0.22,-0.22,-0.18,-0.38,3.33,3.33,3.34
187.65,3.46,0.18,3.45,0.17,-0.17,-0.13,-0.37,3.29,3.28,3.28
189.52,3.36,0.13,3.36,0.12,-0.12,-0.07,-0.36,3.24,3.24,3.23
191.42,3.25,0.06,3.25,0.06,-0.06,-0.02,-0.35,3.19,3.20,3.19
193.33,3.15,-0.00,3.15,-0.00,0.00,0.03,-0.34,3.15,3.15,3.15
195.27,3.04,-0.07,3.04,-0.06,0.06,0.09,-0.33,3.10,3.10,3.11
197.22,2.93,-0.13,2.93,-0.12,0.13,0.14,-0.32,3.06,3.06,3.06
199.19,2.83,-0.18,2.83,-0.19,0.19,0.20,-0.32,3.02,3.02,3.01
201.18,2.72,-0.25,2.72,-0.25,0.26,0.25,-0.31,2.98,2.97,2.97
203.19,2.61,-0.33,2.61,-0.32,0.32,0.30,-0.30,2.93,2.93,2.94
205.23,2.51,-0.38,2.51,-0.39,0.38,0.35,-0.29,2.89,2.89,2.89
207.28,2.41,-0.46,2.41,-0.44,0.43,0.40,-0.29,2.84,2.85,2.87
209.35,2.33,-0.49,2.33,-0.49,0.48,0.44,-0.28,2.81,2.81,2.82
211.44,2.25,-0.52,2.25,-0.53,0.53,0.49,-0.27,2.78,2.78,2.77
213.56,2.18,-0.56,2.18,-0.56,0.56,0.52,-0.27,2.74,2.74,2.74
215.69,2.12,-0.60,2.12,-0.60,0.59,0.55,-0.26,2.71,2.70,2.72
217.85,2.06,-0.62,2.07,-0.61,0.60,0.57,-0.26,2.66,2.67,2.68
220.03,2.03,-0.62,2.03,-0.62,0.61,0.59,-0.25,2.64,2.65,2.65
222.23,2.01,-0.61,2.00,-0.62,0.62,0.59,-0.25,2.63,2.62,2.62
224.45,1.98,-0.62,1.98,-0.61,0.62,0.59,-0.24,2.60,2.61,2.60
226.70,1.96,-0.62,1.96,-0.62,0.62,0.58,-0.24,2.58,2.59,2.58
228.96,1.95,-0.61,1.95,-0.62,0.62,0.56,-0.23,2.57,2.57,2.56
231.25,1.93,-0.62,1.93,-0.62,0.62,0.54,-0.23,2.55,2.55,2.55
233.57,1.92,-0.61,1.92,-0.62,0.62,0.51,-0.22,2.54,2.53,2.53
235.90,1.90,-0.62,1.91,-0.61,0.61,0.48,-0.22,2.51,2.52,2.52
238.26,1.91,-0.60,1.91,-0.61,0.61,0.44,-0.22,2.52,2.52,2.51
240.64,1.91,-0.60,1.91,-0.60,0.61,0.40,-0.21,2.52,2.51,2.51
243.05,1.91,-0.60,1.91,-0.60,0.60,0.36,-0.21,2.51,2.51,2.51
245.48,1.92,-0.59,1.92,-0.59,0.59,0.32,-0.20,2.51,2.51,2.51
247.93,1.94,-0.57,1.94,-0.57,0.57,0.28,-0.20,2.51,2.51,2.51
250.41,1.96,-0.55,1.97,-0.55,0.55,0.24,-0.20,2.51,2.51,2.51
252.92,2.01,-0.51,2.00,-0.52,0.52,0.20,-0.19,2.53,2.52,2.52
255.45,2.05,-0.49,2.05,-0.48,0.48,0.16,-0.19,2.53,2.53,2.54
258.00,2.10,-0.44,2.11,-0.44,0.43,0.12,-0.19,2.53,2.54,2.54
260.58,2.18,-0.37,2.18,-0.38,0.37,0.09,-0.18,2.55,2.55,2.55
263.19,2.26,-0.31,2.26,-0.30,0.30,0.05,-0.18,2.56,2.56,2.57
265.82,2.36,-0.21,2.36,-0.22,0.22,0.02,-0.18,2.58,2.58,2.57
268.48,2.46,-0.14,2.46,-0.13,0.13,-0.01,-0.18,2.59,2.59,2.60
271.16,2.56,-0.05,2.57,-0.04,0.04,-0.04,-0.17,2.60,2.61,2.61
273.87,2.70,0.08,2.69,0.06,-0.06,-0.07,-0.17,2.64,2.63,2.62
276.61,2.81,0.16,2.81,0.17,-0.17,-0.10,-0.17,2.64,2.65,2.65
279.38,2.93,0.27,2.93,0.27,-0.27,-0.13,-0.17,2.66,2.66,2.65
282.17,3.05,0.38,3.05,0.37,-0.38,-0.16,-0.16,2.67,2.67,2.67
284.99,3.16,0.47,3.17,0.48,-0.48,-0.18,-0.16,2.68,2.69,2.69
287.84,3.29,0.59,3.29,0.59,-0.58,-0.21,-0.16,2.71,2.70,2.70
290.72,3.40,0.69,3.40,0.68,-0.68,-0.23,-0.16,2.72,2.72,2.71
293.63,3.51,0.78,3.51,0.78,-0.78,-0.25,-0.16,2.73,2.73,2.73
296.57,3.60,0.85,3.60,0.86,-0.87,-0.28,-0.16,2.73,2.74,2.75
299.53,3.70,0.94,3.70,0.95,-0.95,-0.30,-0.15,2.75,2.75,2.76
302.53,3.80,1.04,3.80,1.03,-1.03,-0.32,-0.15,2.77,2.77,2.76
305.55,3.89,1.10,3.89,1.11,-1.10,-0.35,-0.15,2.79,2.79,2.79
308.61,3.97,1.17,3.97,1.17,-1.16,-0.37,-0.15,2.81,2.81,2.80
311.69,4.03,1.22,4.03,1.21,-1.21,-0.39,-0.15,2.82,2.82,2.81
314.81,4.07,1.23,4.08,1.25,-1.24,-0.41,-0.15,2.83,2.83,2.84
317.96,4.11,1.28,4.11,1.27,-1.27,-0.43,-0.15,2.84,2.84,2.83
321.14,4.13,1.29,4.13,1.28,-1.29,-0.46,-0.15,2.84,2.84,2.84
324.35,4.13,1.29,4.13,1.29,-1.29,-0.48,-0.15,2.84,2.84,2.84
327.59,4.13,1.27,4.13,1.28,-1.28,-0.50,-0.15,2.85,2.85,2.86
330.87,4.12,1.26,4.12,1.27,-1.26,-0.52,-0.15,2.86,2.86,2.86
334.18,4.11,1.25,4.10,1.24,-1.24,-0.54,-0.15,2.87,2.87,2.86
337.52,4.07,1.21,4.08,1.21,-1.20,-0.56,-0.15,2.87,2.87,2.86
340.90,4.04,1.17,4.04,1.17,-1.16,-0.58,-0.16,2.88,2.88,2.87
344.30,3.99,1.12,3.99,1.12,-1.12,-0.60,-0.16,2.87,2.87,2.87
347.75,3.94,1.07,3.94,1.07,-1.07,-0.62,-0.16,2.87,2.87,2.87
351.23,3.88,1.01,3.88,1.01,-1.02,-0.64,-0.16,2.86,2.86,2.87
354.74,3.83,0.96,3.83,0.96,-0.97,-0.66,-0.16,2.86,2.86,2.87
358.28,3.77,0.91,3.77,0.91,-0.93,-0.68,-0.16,2.84,2.85,2.86
361.87,3.73,0.88,3.73,0.88,-0.88,-0.70,-0.17,2.85,2.85,2.85
365.49,3.70,0.85,3.70,0.85,-0.85,-0.72,-0.17,2.85,2.85,2.85
369.14,3.67,0.83,3.67,0.82,-0.82,-0.74,-0.17,2.85,2.85,2.84
372.83,3.64,0.80,3.64,0.80,-0.79,-0.76,-0.17,2.85,2.85,2.84
376.56,3.61,0.78,3.61,0.78,-0.78,-0.77,-0.18,2.83,2.83,2.83
380.33,3.59,0.76,3.59,0.76,-0.77,-0.79,-0.18,2.82,2.82,2.83
384.13,3.57,0.75,3.57,0.75,-0.76,-0.80,-0.18,2.81,2.81,2.82
387.97,3.56,0.75,3.56,0.75,-0.76,-0.82,-0.19,2.80,2.80,2.81
391.85,3.56,0.76,3.56,0.76,-0.77,-0.83,-0.19,2.79,2.79,2.80
395.77,3.57,0.76,3.57,0.77,-0.77,-0.84,-0.19,2.80,2.80,2.81
399.73,3.58,0.78,3.58,0.78,-0.78,-0.84,-0.19,2.80,2.80,2.80
403.72,3.58,0.79,3.58,0.79,-0.78,-0.85,-0.20,2.80,2.80,2.79
407.76,3.57,0.80,3.57,0.79,-0.78,-0.85,-0.20,2.79,2.80,2.77
411.84,3.56,0.78,3.56,0.78,-0.77,-0.86,-0.20,2.79,2.79,2.78
415.96,3.53,0.76,3.53,0.75,-0.75,-0.85,-0.20,2.78,2.78,2.77
420.12,3.50,0.73,3.50,0.73,-0.73,-0.85,-0.20,2.77,2.77,2.77
424.32,3.47,0.70,3.47,0.70,-0.70,-0.85,-0.20,2.77,2.77,2.77
428.56,3.44,0.68,3.44,0.67,-0.67,-0.84,-0.20,2.77,2.77,2.76
432.85,3.40,0.64,3.40,0.64,-0.64,-0.82,-0.20,2.76,2.77,2.76
437.18,3.37,0.61,3.37,0.60,-0.60,-0.81,-0.20,2.77,2.76,2.76
441.55,3.33,0.56,3.33,0.57,-0.57,-0.79,-0.20,2.76,2.76,2.77
445.96,3.30,0.53,3.30,0.53,-0.55,-0.77,-0.20,2.75,2.75,2.77
450.42,3.27,0.51,3.27,0.51,-0.52,-0.74,-0.19,2.75,2.75,2.76
454.93,3.26,0.49,3.26,0.49,-0.50,-0.71,-0.19,2.76,2.76,2.77
459.48,3.25,0.48,3.25,0.48,-0.48,-0.68,-0.18,2.77,2.77,2.77
464.07,3.25,0.47,3.25,0.47,-0.47,-0.64,-0.17,2.78,2.78,2.78
468.71,3.24,0.45,3.24,0.46,-0.45,-0.60,-0.16,2.79,2.79,2.79
473.40,3.23,0.44,3.23,0.44,-0.44,-0.56,-0.15,2.79,2.79,2.79
478.13,3.22,0.42,3.22,0.42,-0.42,-0.51,-0.14,2.80,2.79,2.80
482.91,3.20,0.40,3.20,0.41,-0.40,-0.46,-0.13,2.80,2.80,2.80
487.74,3.19,0.38,3.19,0.38,-0.38,-0.40,-0.11,2.81,2.81,2.81
492.62,3.17,0.35,3.17,0.35,-0.35,-0.34,-0.10,2.82,2.82,2.82
497.55,3.14,0.32,3.14,0.32,-0.32,-0.28,-0.08,2.82,2.82,2.82
502.52,3.10,0.28,3.10,0.28,-0.28,-0.21,-0.06,2.82,2.82,2.82
507.55,3.06,0.24,3.06,0.24,-0.24,-0.15,-0.04,2.82,2.83,2.82
512.62,3.02,0.20,3.02,0.19,-0.19,-0.07,-0.01,2.83,2.83,2.82
517.75,2.97,0.14,2.97,0.14,-0.14,0.00,0.01,2.83,2.83,2.83
522.93,2.92,0.09,2.92,0.08,-0.09,0.08,0.04,2.83,2.83,2.83
528.16,2.86,0.03,2.86,0.03,-0.04,0.16,0.07,2.82,2.83,2.83
533.44,2.81,-0.02,2.81,-0.02,0.02,0.24,0.10,2.83,2.83,2.83
538.77,2.76,-0.07,2.76,-0.08,0.07,0.32,0.13,2.83,2.82,2.83
544.16,2.70,-0.13,2.70,-0.13,0.12,0.41,0.16,2.82,2.82,2.83
