frequency,raw,smoothed,error,error_smoothed,equalization,parametric_eq,fixed_band_eq,equalized_raw,equalized_smoothed,target
20.00,4.13,4.13,-3.92,-3.92,3.92,4.29,1.82,8.05,8.05,8.05
20.20,4.12,4.12,-3.92,-3.92,3.92,4.29,1.88,8.04,8.04,8.04
20.40,4.11,4.10,-3.92,-3.92,3.92,4.28,1.93,8.03,8.02,8.02
20.61,4.09,4.09,-3.93,-3.92,3.92,4.28,1.99,8.01,8.01,8.01
20.81,4.08,4.08,-3.93,-3.92,3.92,4.28,2.05,8.00,8.00,8.00
21.02,4.07,4.07,-3.92,-3.93,3.93,4.28,2.11,7.99,7.99,7.99
21.23,4.06,4.05,-3.92,-3.93,3.93,4.28,2.17,7.98,7.98,7.98
21.44,4.04,4.04,-3.93,-3.93,3.93,4.28,2.23,7.97,7.97,7.97
21.66,4.03,4.03,-3.93,-3.93,3.93,4.28,2.30,7.96,7.96,7.96
21.87,4.02,4.02,-3.93,-3.93,3.93,4.28,2.36,7.95,7.95,7.95
22.09,4.01,4.00,-3.93,-3.93,3.93,4.28,2.43,7.94,7.94,7.94
22.31,3.99,3.99,-3.94,-3.93,3.94,4.27,2.50,7.92,7.93,7.93
22.54,3.98,3.98,-3.94,-3.94,3.94,4.27,2.57,7.92,7.92,7.91
22.76,3.97,3.97,-3.94,-3.94,3.94,4.27,2.65,7.91,7.91,7.90
22.99,3.96,3.96,-3.94,-3.94,3.94,4.27,2.72,7.90,7.90,7.90
23.22,3.95,3.95,-3.94,-3.94,3.94,4.27,2.80,7.89,7.89,7.89
23.45,3.94,3.94,-3.94,-3.94,3.94,4.27,2.88,7.88,7.88,7.88
23.69,3.93,3.93,-3.94,-3.94,3.94,4.27,2.96,7.87,7.87,7.87
23.92,3.92,3.92,-3.94,-3.94,3.94,4.27,3.05,7.86,7.86,7.86
24.16,3.91,3.91,-3.94,-3.94,3.94,4.26,3.13,7.85,7.85,7.85
24.40,3.90,3.90,-3.94,-3.94,3.94,4.26,3.22,7.84,7.84,7.83
24.65,3.89,3.89,-3.94,-3.95,3.95,4.26,3.30,7.83,7.83,7.83
24.89,3.88,3.88,-3.95,-3.95,3.95,4.26,3.39,7.83,7.83,7.83
25.14,3.87,3.87,-3.96,-3.96,3.96,4.26,3.48,7.82,7.83,7.83
25.39,3.86,3.86,-3.96,-3.96,3.96,4.26,3.57,7.82,7.82,7.82
25.65,3.85,3.84,-3.97,-3.97,3.97,4.25,3.66,7.82,7.82,7.82
25.91,3.83,3.83,-3.99,-3.98,3.98,4.25,3.75,7.81,7.82,7.81
26.16,3.82,3.82,-3.99,-3.99,3.99,4.25,3.84,7.81,7.81,7.81
26.43,3.81,3.80,-4.00,-4.01,4.01,4.25,3.93,7.81,7.81,7.81
26.69,3.79,3.79,-4.02,-4.02,4.02,4.25,4.02,7.80,7.81,7.81
26.96,3.78,3.78,-4.03,-4.03,4.03,4.24,4.10,7.80,7.81,7.81
27.23,3.77,3.77,-4.04,-4.04,4.04,4.24,4.19,7.80,7.80,7.80
27.50,3.76,3.75,-4.04,-4.05,4.05,4.24,4.27,7.80,7.80,7.80
27.77,3.74,3.74,-4.06,-4.06,4.05,4.24,4.35,7.79,7.79,7.80
28.05,3.73,3.73,-4.06,-4.06,4.06,4.24,4.43,7.79,7.79,7.79
28.33,3.72,3.72,-4.07,-4.06,4.06,4.23,4.51,7.78,7.78,7.78
28.62,3.71,3.71,-4.06,-4.07,4.06,4.23,4.58,7.77,7.77,7.77
28.90,3.70,3.70,-4.07,-4.07,4.07,4.23,4.64,7.76,7.76,7.77
29.19,3.69,3.69,-4.07,-4.07,4.06,4.23,4.71,7.75,7.75,7.76
29.48,3.68,3.68,-4.06,-4.06,4.06,4.22,4.76,7.74,7.74,7.74
29.78,3.68,3.67,-4.06,-4.06,4.06,4.22,4.81,7.74,7.74,7.74
30.08,3.67,3.67,-4.06,-4.06,4.06,4.22,4.86,7.73,7.73,7.73
30.38,3.66,3.66,-4.06,-4.06,4.07,4.22,4.90,7.72,7.73,7.72
30.68,3.65,3.65,-4.07,-4.07,4.07,4.21,4.93,7.72,7.72,7.72
30.99,3.64,3.64,-4.08,-4.08,4.08,4.21,4.96,7.72,7.72,7.72
31.30,3.63,3.63,-4.08,-4.08,4.09,4.21,4.98,7.71,7.71,7.71
31.61,3.62,3.61,-4.09,-4.10,4.10,4.20,4.99,7.71,7.71,7.71
31.93,3.60,3.60,-4.12,-4.11,4.11,4.20,5.00,7.71,7.71,7.71
32.24,3.59,3.59,-4.12,-4.12,4.12,4.20,5.00,7.71,7.71,7.71
32.57,3.58,3.58,-4.13,-4.13,4.13,4.19,4.99,7.71,7.71,7.70
32.89,3.57,3.57,-4.14,-4.14,4.14,4.19,4.98,7.71,7.71,7.71
33.22,3.56,3.56,-4.15,-4.15,4.15,4.19,4.96,7.70,7.71,7.71
33.55,3.55,3.55,-4.15,-4.15,4.15,4.18,4.94,7.70,7.70,7.70
33.89,3.54,3.53,-4.15,-4.16,4.16,4.18,4.92,7.70,7.69,7.69
34.23,3.52,3.52,-4.16,-4.16,4.16,4.18,4.89,7.68,7.68,7.68
34.57,3.51,3.51,-4.17,-4.16,4.16,4.17,4.85,7.67,7.67,7.67
34.92,3.50,3.50,-4.16,-4.16,4.16,4.17,4.81,7.66,7.65,7.66
35.27,3.49,3.49,-4.16,-4.16,4.15,4.16,4.77,7.64,7.64,7.64
35.62,3.48,3.48,-4.15,-4.15,4.15,4.16,4.73,7.62,7.63,7.63
35.97,3.48,3.47,-4.13,-4.14,4.14,4.16,4.68,7.62,7.61,7.61
36.33,3.47,3.47,-4.13,-4.12,4.13,4.15,4.64,7.59,7.59,7.59
36.70,3.46,3.46,-4.11,-4.11,4.11,4.15,4.59,7.57,7.57,7.57
37.06,3.45,3.45,-4.10,-4.10,4.10,4.14,4.54,7.55,7.55,7.55
37.43,3.44,3.44,-4.09,-4.09,4.08,4.14,4.49,7.52,7.52,7.52
37.81,3.43,3.43,-4.08,-4.07,4.07,4.13,4.45,7.50,7.50,7.51
38.19,3.43,3.42,-4.05,-4.06,4.06,4.13,4.40,7.49,7.48,7.48
38.57,3.42,3.42,-4.04,-4.04,4.05,4.12,4.35,7.46,7.46,7.46
38.95,3.41,3.41,-4.03,-4.03,4.03,4.12,4.31,7.44,7.44,7.44
39.34,3.40,3.40,-4.02,-4.02,4.02,4.11,4.27,7.42,7.42,7.42
39.74,3.39,3.39,-4.02,-4.02,4.01,4.10,4.23,7.40,7.40,7.40
40.14,3.38,3.38,-4.01,-4.01,4.01,4.10,4.19,7.38,7.39,7.38
40.54,3.37,3.37,-4.01,-4.00,4.00,4.09,4.15,7.37,7.37,7.37
40.94,3.37,3.36,-4.00,-3.99,4.00,4.09,4.12,7.36,7.36,7.36
41.35,3.36,3.36,-3.99,-3.99,3.99,4.08,4.09,7.35,7.35,7.34
41.76,3.35,3.35,-3.99,-3.99,3.99,4.07,4.06,7.34,7.34,7.33
42.18,3.34,3.34,-3.99,-3.99,3.99,4.07,4.03,7.33,7.33,7.33
42.60,3.33,3.33,-3.99,-3.99,3.99,4.06,4.01,7.32,7.32,7.32
43.03,3.32,3.32,-3.99,-3.99,3.99,4.05,3.99,7.31,7.31,7.31
43.46,3.32,3.31,-3.99,-3.99,3.99,4.05,3.97,7.31,7.30,7.31
43.90,3.31,3.31,-3.99,-3.99,3.99,4.04,3.96,7.30,7.30,7.30
44.33,3.30,3.30,-3.99,-3.99,3.99,4.03,3.95,7.29,7.29,7.29
44.78,3.30,3.29,-3.99,-3.99,3.99,4.02,3.94,7.29,7.29,7.29
45.23,3.29,3.29,-3.99,-3.99,3.99,4.01,3.94,7.28,7.28,7.28
45.68,3.28,3.28,-3.99,-3.99,3.99,4.01,3.93,7.27,7.27,7.27
46.13,3.27,3.27,-3.98,-3.99,3.99,4.00,3.94,7.26,7.26,7.25
46.60,3.26,3.26,-3.99,-3.98,3.99,3.99,3.94,7.24,7.24,7.24
47.06,3.25,3.24,-3.98,-3.98,3.98,3.98,3.95,7.23,7.23,7.23
47.53,3.23,3.23,-3.98,-3.98,3.98,3.97,3.96,7.21,7.21,7.21
48.01,3.22,3.22,-3.98,-3.98,3.98,3.96,3.97,7.19,7.19,7.19
48.49,3.21,3.20,-3.97,-3.97,3.97,3.95,3.99,7.18,7.17,7.18
48.97,3.19,3.19,-3.97,-3.97,3.96,3.94,4.00,7.15,7.15,7.16
49.46,3.18,3.18,-3.96,-3.96,3.95,3.93,4.02,7.13,7.13,7.14
49.96,3.17,3.17,-3.94,-3.94,3.94,3.92,4.05,7.11,7.11,7.11
50.46,3.16,3.16,-3.93,-3.93,3.93,3.91,4.07,7.08,7.08,7.09
50.96,3.15,3.15,-3.91,-3.91,3.91,3.90,4.09,7.06,7.06,7.05
51.47,3.14,3.14,-3.90,-3.89,3.90,3.89,4.12,7.04,7.04,7.03
51.99,3.13,3.13,-3.88,-3.88,3.89,3.88,4.15,7.01,7.01,7.01
52.51,3.12,3.12,-3.87,-3.87,3.87,3.87,4.18,6.99,6.99,6.99
53.03,3.10,3.10,-3.86,-3.86,3.86,3.86,4.20,6.96,6.96,6.96
53.56,3.09,3.09,-3.85,-3.85,3.85,3.84,4.23,6.94,6.93,6.94
54.10,3.07,3.07,-3.84,-3.84,3.84,3.83,4.26,6.91,6.91,6.91
54.64,3.06,3.06,-3.83,-3.83,3.83,3.82,4.29,6.89,6.88,6.88
55.18,3.04,3.04,-3.82,-3.82,3.82,3.81,4.31,6.86,6.86,6.86
55.74,3.02,3.02,-3.81,-3.81,3.81,3.80,4.34,6.83,6.83,6.83
56.29,3.00,3.00,-3.80,-3.80,3.80,3.78,4.36,6.80,6.80,6.80
56.86,2.98,2.98,-3.79,-3.79,3.79,3.77,4.38,6.77,6.77,6.77
57.42,2.95,2.95,-3.79,-3.79,3.79,3.76,4.39,6.73,6.74,6.74
58.00,2.93,2.93,-3.78,-3.78,3.78,3.75,4.40,6.71,6.71,6.70
58.58,2.90,2.90,-3.77,-3.77,3.78,3.73,4.41,6.67,6.67,6.67
59.16,2.87,2.87,-3.77,-3.77,3.77,3.72,4.42,6.64,6.64,6.64
59.76,2.84,2.84,-3.76,-3.77,3.76,3.71,4.42,6.60,6.60,6.60
60.35,2.81,2.81,-3.76,-3.76,3.75,3.69,4.41,6.56,6.56,6.57
60.96,2.78,2.78,-3.75,-3.75,3.75,3.68,4.40,6.52,6.52,6.53
61.57,2.75,2.75,-3.73,-3.74,3.74,3.67,4.39,6.48,6.48,6.48
62.18,2.72,2.72,-3.72,-3.72,3.72,3.66,4.37,6.44,6.44,6.44
62.80,2.69,2.69,-3.71,-3.71,3.71,3.64,4.34,6.40,6.40,6.40
63.43,2.66,2.65,-3.69,-3.70,3.70,3.63,4.31,6.36,6.36,6.35
64.07,2.62,2.62,-3.69,-3.69,3.69,3.62,4.27,6.31,6.31,6.31
64.71,2.59,2.59,-3.68,-3.68,3.68,3.61,4.23,6.26,6.26,6.26
65.35,2.56,2.55,-3.66,-3.67,3.66,3.60,4.18,6.22,6.22,6.22
66.01,2.52,2.52,-3.66,-3.65,3.65,3.59,4.12,6.17,6.17,6.17
66.67,2.49,2.49,-3.64,-3.64,3.64,3.58,4.07,6.13,6.13,6.13
67.33,2.45,2.45,-3.63,-3.63,3.63,3.57,4.00,6.08,6.08,6.08
68.01,2.42,2.42,-3.61,-3.61,3.62,3.56,3.94,6.03,6.03,6.03
68.69,2.38,2.38,-3.60,-3.60,3.61,3.56,3.86,5.98,5.98,5.98
69.37,2.34,2.34,-3.59,-3.59,3.59,3.55,3.79,5.93,5.93,5.93
70.07,2.30,2.30,-3.59,-3.58,3.58,3.55,3.71,5.88,5.88,5.89
70.77,2.26,2.26,-3.57,-3.57,3.57,3.54,3.63,5.83,5.83,5.83
71.48,2.22,2.22,-3.56,-3.56,3.56,3.54,3.55,5.78,5.78,5.78
72.19,2.17,2.17,-3.55,-3.55,3.56,3.54,3.46,5.72,5.73,5.72
72.91,2.13,2.13,-3.55,-3.55,3.55,3.54,3.37,5.67,5.67,5.67
73.64,2.08,2.08,-3.54,-3.54,3.54,3.54,3.29,5.62,5.62,5.62
74.38,2.03,2.03,-3.53,-3.53,3.53,3.53,3.20,5.56,5.56,5.56
75.12,1.98,1.98,-3.52,-3.52,3.52,3.53,3.11,5.50,5.50,5.50
75.87,1.93,1.93,-3.52,-3.51,3.51,3.53,3.01,5.44,5.44,5.44
76.63,1.88,1.88,-3.50,-3.50,3.50,3.52,2.92,5.38,5.38,5.38
77.40,1.83,1.83,-3.49,-3.49,3.49,3.51,2.83,5.31,5.32,5.32
78.17,1.79,1.78,-3.46,-3.47,3.47,3.50,2.74,5.26,5.25,5.25
78.95,1.74,1.74,-3.46,-3.45,3.45,3.49,2.65,5.19,5.19,5.19
79.74,1.70,1.70,-3.43,-3.43,3.43,3.46,2.56,5.12,5.13,5.13
80.54,1.67,1.66,-3.39,-3.40,3.40,3.43,2.47,5.07,5.06,5.06
81.35,1.63,1.63,-3.37,-3.36,3.36,3.40,2.39,4.99,5.00,5.00
82.16,1.61,1.60,-3.32,-3.33,3.33,3.35,2.30,4.93,4.93,4.93
82.98,1.58,1.58,-3.28,-3.28,3.28,3.29,2.21,4.86,4.86,4.86
83.81,1.56,1.56,-3.24,-3.23,3.23,3.23,2.13,4.79,4.79,4.79
84.65,1.55,1.55,-3.17,-3.18,3.17,3.16,2.05,4.72,4.72,4.72
85.50,1.55,1.54,-3.11,-3.11,3.11,3.08,1.96,4.66,4.65,4.66
86.35,1.55,1.55,-3.04,-3.04,3.04,3.00,1.88,4.58,4.58,4.59
87.22,1.56,1.56,-2.96,-2.96,2.96,2.90,1.80,4.51,4.51,4.52
88.09,1.58,1.58,-2.87,-2.87,2.87,2.81,1.73,4.45,4.44,4.45
88.97,1.60,1.60,-2.77,-2.77,2.77,2.71,1.65,4.37,4.37,4.37
89.86,1.63,1.63,-2.67,-2.67,2.67,2.61,1.57,4.30,4.30,4.30
90.76,1.66,1.66,-2.57,-2.57,2.57,2.50,1.50,4.23,4.23,4.22
91.66,1.69,1.69,-2.47,-2.46,2.46,2.40,1.43,4.15,4.15,4.15
92.58,1.73,1.72,-2.34,-2.35,2.35,2.29,1.35,4.08,4.07,4.07
93.51,1.76,1.76,-2.23,-2.23,2.23,2.19,1.28,3.99,3.99,3.99
94.44,1.80,1.80,-2.11,-2.11,2.12,2.08,1.22,3.91,3.91,3.91
95.39,1.83,1.83,-2.00,-2.00,2.00,1.98,1.15,3.83,3.83,3.83
96.34,1.87,1.87,-1.88,-1.88,1.88,1.87,1.08,3.75,3.75,3.75
97.30,1.90,1.90,-1.76,-1.76,1.76,1.77,1.01,3.66,3.66,3.66
98.28,1.93,1.93,-1.64,-1.64,1.64,1.67,0.95,3.57,3.57,3.57
99.26,1.96,1.96,-1.53,-1.53,1.53,1.56,0.89,3.48,3.48,3.49
100.25,1.99,1.99,-1.41,-1.41,1.41,1.46,0.82,3.40,3.40,3.40
101.25,2.02,2.02,-1.29,-1.29,1.30,1.36,0.76,3.31,3.31,3.31
102.27,2.04,2.04,-1.18,-1.18,1.18,1.26,0.70,3.22,3.23,3.22
103.29,2.07,2.06,-1.07,-1.08,1.08,1.16,0.64,3.14,3.14,3.14
104.32,2.08,2.08,-0.98,-0.97,0.97,1.06,0.58,3.05,3.05,3.05
105.37,2.10,2.10,-0.87,-0.87,0.87,0.95,0.53,2.97,2.97,2.97
106.42,2.12,2.11,-0.77,-0.77,0.77,0.85,0.47,2.89,2.89,2.88
107.48,2.13,2.13,-0.67,-0.67,0.68,0.75,0.42,2.81,2.81,2.80
108.56,2.13,2.13,-0.59,-0.59,0.59,0.65,0.36,2.72,2.73,2.72
109.64,2.14,2.13,-0.50,-0.50,0.50,0.55,0.31,2.64,2.64,2.64
110.74,2.14,2.13,-0.42,-0.42,0.42,0.45,0.26,2.56,2.55,2.56
111.85,2.13,2.13,-0.35,-0.34,0.34,0.35,0.21,2.46,2.47,2.47
112.97,2.13,2.13,-0.26,-0.26,0.25,0.25,0.16,2.38,2.38,2.39
114.10,2.14,2.13,-0.17,-0.17,0.17,0.15,0.11,2.30,2.30,2.31
115.24,2.14,2.14,-0.09,-0.08,0.08,0.06,0.06,2.22,2.22,2.22
116.39,2.14,2.14,0.01,0.00,-0.00,-0.04,0.01,2.14,2.14,2.13
117.55,2.14,2.13,0.09,0.09,-0.09,-0.14,-0.03,2.05,2.05,2.05
118.73,2.13,2.13,0.17,0.17,-0.17,-0.23,-0.08,1.96,1.96,1.96
119.92,2.12,2.12,0.25,0.25,-0.25,-0.32,-0.12,1.87,1.87,1.87
121.12,2.11,2.10,0.33,0.33,-0.32,-0.41,-0.16,1.78,1.78,1.78
122.33,2.09,2.09,0.40,0.40,-0.40,-0.50,-0.21,1.69,1.69,1.69
123.55,2.07,2.07,0.47,0.47,-0.47,-0.58,-0.25,1.60,1.60,1.60
124.79,2.05,2.04,0.54,0.53,-0.53,-0.66,-0.29,1.51,1.51,1.51
126.03,2.02,2.02,0.59,0.60,-0.60,-0.74,-0.33,1.42,1.42,1.42
127.29,1.99,1.99,0.66,0.66,-0.66,-0.81,-0.36,1.32,1.33,1.33
128.57,1.97,1.97,0.72,0.72,-0.73,-0.88,-0.40,1.24,1.24,1.24
129.85,1.95,1.95,0.79,0.79,-0.79,-0.94,-0.44,1.16,1.16,1.16
131.15,1.93,1.93,0.85,0.85,-0.85,-1.00,-0.47,1.08,1.07,1.07
132.46,1.91,1.91,0.92,0.91,-0.91,-1.06,-0.51,0.99,0.99,0.99
133.79,1.89,1.89,0.97,0.97,-0.97,-1.11,-0.54,0.92,0.92,0.92
135.12,1.88,1.87,1.04,1.03,-1.03,-1.16,-0.57,0.85,0.84,0.84
136.48,1.86,1.86,1.09,1.09,-1.09,-1.21,-0.61,0.77,0.77,0.77
137.84,1.84,1.84,1.14,1.14,-1.14,-1.25,-0.64,0.70,0.70,0.70
139.22,1.82,1.82,1.19,1.19,-1.19,-1.29,-0.67,0.63,0.63,0.63
140.61,1.81,1.80,1.24,1.24,-1.24,-1.33,-0.71,0.57,0.57,0.57
142.02,1.79,1.79,1.29,1.29,-1.29,-1.36,-0.74,0.50,0.50,0.50
143.44,1.77,1.77,1.33,1.33,-1.33,-1.40,-0.77,0.43,0.44,0.44
144.87,1.75,1.75,1.38,1.38,-1.38,-1.43,-0.80,0.37,0.37,0.37
146.32,1.74,1.73,1.43,1.42,-1.42,-1.46,-0.84,0.31,0.31,0.31
147.78,1.72,1.72,1.47,1.47,-1.47,-1.49,-0.87,0.25,0.25,0.25
149.26,1.70,1.70,1.51,1.51,-1.51,-1.52,-0.90,0.19,0.19,0.19
150.75,1.68,1.68,1.55,1.55,-1.55,-1.55,-0.94,0.13,0.13,0.13
152.26,1.67,1.66,1.59,1.59,-1.59,-1.58,-0.97,0.08,0.07,0.07
153.78,1.65,1.65,1.63,1.63,-1.63,-1.61,-1.01,0.02,0.02,0.02
155.32,1.63,1.63,1.67,1.67,-1.67,-1.64,-1.04,-0.04,-0.04,-0.04
156.88,1.61,1.61,1.70,1.70,-1.71,-1.67,-1.08,-0.10,-0.10,-0.09
158.44,1.60,1.59,1.74,1.74,-1.75,-1.70,-1.12,-0.15,-0.15,-0.15
160.03,1.58,1.58,1.78,1.78,-1.78,-1.73,-1.16,-0.20,-0.20,-0.20
161.63,1.56,1.56,1.82,1.82,-1.82,-1.76,-1.20,-0.26,-0.26,-0.26
163.24,1.55,1.54,1.87,1.86,-1.85,-1.79,-1.24,-0.31,-0.31,-0.32
164.88,1.53,1.53,1.89,1.89,-1.89,-1.82,-1.28,-0.36,-0.36,-0.37
166.53,1.51,1.51,1.92,1.92,-1.92,-1.85,-1.32,-0.41,-0.41,-0.41
168.19,1.49,1.49,1.95,1.95,-1.95,-1.88,-1.37,-0.46,-0.47,-0.46
169.87,1.47,1.47,1.97,1.98,-1.98,-1.91,-1.41,-0.51,-0.51,-0.50
171.57,1.45,1.45,2.01,2.01,-2.01,-1.94,-1.46,-0.56,-0.56,-0.56
173.29,1.44,1.43,2.04,2.03,-2.03,-1.97,-1.50,-0.60,-0.60,-0.60
175.02,1.42,1.42,2.06,2.06,-2.06,-2.00,-1.55,-0.64,-0.64,-0.64
176.77,1.40,1.40,2.08,2.08,-2.08,-2.02,-1.60,-0.68,-0.68,-0.68
178.54,1.38,1.38,2.10,2.10,-2.10,-2.05,-1.66,-0.72,-0.72,-0.72
180.32,1.36,1.36,2.12,2.12,-2.12,-2.08,-1.71,-0.76,-0.76,-0.76
182.13,1.34,1.34,2.14,2.14,-2.14,-2.11,-1.76,-0.80,-0.80,-0.80
183.95,1.32,1.32,2.15,2.15,-2.15,-2.13,-1.82,-0.83,-0.83,-0.83
185.79,1.30,1.30,2.17,2.17,-2.17,-2.15,-1.88,-0.87,-0.87,-0.87
187.65,1.28,1.27,2.18,2.18,-2.18,-2.18,-1.93,-0.90,-0.91,-0.90
189.52,1.25,1.25,2.19,2.20,-2.20,-2.20,-1.99,-0.95,-0.94,-0.94
191.42,1.24,1.23,2.22,2.21,-2.21,-2.22,-2.05,-0.97,-0.98,-0.98
193.33,1.22,1.22,2.23,2.23,-2.23,-2.24,-2.11,-1.01,-1.01,-1.01
195.27,1.20,1.20,2.24,2.24,-2.24,-2.26,-2.18,-1.04,-1.04,-1.04
197.22,1.18,1.18,2.25,2.25,-2.25,-2.27,-2.24,-1.07,-1.07,-1.07
199.19,1.17,1.16,2.27,2.27,-2.27,-2.29,-2.30,-1.10,-1.10,-1.10
201.18,1.15,1.15,2.28,2.28,-2.28,-2.30,-2.37,-1.13,-1.13,-1.13
203.19,1.14,1.13,2.29,2.29,-2.29,-2.32,-2.43,-1.15,-1.16,-1.16
205.23,1.12,1.12,2.30,2.30,-2.30,-2.33,-2.50,-1.19,-1.18,-1.18
207.28,1.11,1.11,2.32,2.31,-2.32,-2.34,-2.56,-1.21,-1.21,-1.21
209.35,1.10,1.10,2.33,2.33,-2.33,-2.35,-2.63,-1.23,-1.23,-1.23
211.44,1.09,1.09,2.34,2.35,-2.35,-2.36,-2.69,-1.26,-1.26,-1.26
213.56,1.08,1.08,2.37,2.36,-2.36,-2.38,-2.75,-1.28,-1.28,-1.29
215.69,1.07,1.07,2.38,2.38,-2.38,-2.39,-2.81,-1.31,-1.31,-1.31
217.85,1.06,1.06,2.39,2.39,-2.39,-2.41,-2.88,-1.33,-1.33,-1.33
220.03,1.06,1.05,2.41,2.41,-2.41,-2.42,-2.93,-1.35,-1.35,-1.35
222.23,1.05,1.05,2.42,2.42,-2.42,-2.45,-2.99,-1.38,-1.37,-1.37
224.45,1.05,1.05,2.44,2.44,-2.44,-2.47,-3.05,-1.39,-1.39,-1.39
226.70,1.05,1.05,2.46,2.46,-2.46,-2.50,-3.10,-1.41,-1.41,-1.41
228.96,1.05,1.05,2.48,2.48,-2.48,-2.53,-3.15,-1.43,-1.43,-1.43
231.25,1.05,1.05,2.50,2.50,-2.50,-2.56,-3.19,-1.46,-1.46,-1.45
233.57,1.05,1.05,2.51,2.52,-2.53,-2.60,-3.23,-1.48,-1.48,-1.47
235.90,1.06,1.06,2.56,2.55,-2.55,-2.64,-3.27,-1.50,-1.50,-1.50
238.26,1.07,1.07,2.59,2.59,-2.58,-2.68,-3.31,-1.51,-1.51,-1.52
240.64,1.08,1.08,2.61,2.61,-2.61,-2.72,-3.33,-1.53,-1.53,-1.53
243.05,1.09,1.09,2.64,2.64,-2.64,-2.76,-3.36,-1.55,-1.55,-1.55
245.48,1.10,1.10,2.66,2.66,-2.66,-2.80,-3.38,-1.57,-1.56,-1.56
247.93,1.12,1.11,2.70,2.69,-2.69,-2.84,-3.39,-1.58,-1.58,-1.58
250.41,1.13,1.13,2.72,2.72,-2.72,-2.88,-3.40,-1.60,-1.59,-1.59
252.92,1.15,1.15,2.75,2.75,-2.75,-2.92,-3.41,-1.61,-1.61,-1.60
255.45,1.17,1.17,2.79,2.78,-2.79,-2.96,-3.41,-1.62,-1.62,-1.62
258.00,1.19,1.19,2.82,2.82,-2.82,-2.99,-3.40,-1.63,-1.63,-1.63
260.58,1.21,1.21,2.85,2.86,-2.86,-3.02,-3.39,-1.65,-1.64,-1.64
263.19,1.24,1.23,2.90,2.89,-2.89,-3.05,-3.38,-1.65,-1.66,-1.66
265.82,1.26,1.26,2.93,2.93,-2.93,-3.08,-3.36,-1.67,-1.67,-1.67
268.48,1.28,1.28,2.96,2.97,-2.97,-3.10,-3.34,-1.69,-1.69,-1.68
271.16,1.30,1.30,3.00,3.00,-3.00,-3.12,-3.31,-1.71,-1.70,-1.70
273.87,1.33,1.32,3.04,3.04,-3.04,-3.14,-3.28,-1.71,-1.72,-1.71
276.61,1.35,1.35,3.08,3.08,-3.08,-3.16,-3.25,-1.73,-1.73,-1.73
279.38,1.37,1.37,3.11,3.11,-3.11,-3.17,-3.21,-1.74,-1.74,-1.74
282.17,1.39,1.39,3.15,3.14,-3.14,-3.18,-3.17,-1.76,-1.76,-1.76
284.99,1.41,1.41,3.17,3.17,-3.17,-3.19,-3.13,-1.77,-1.77,-1.76
287.84,1.43,1.43,3.20,3.20,-3.20,-3.20,-3.09,-1.78,-1.78,-1.77
290.72,1.45,1.45,3.23,3.23,-3.23,-3.20,-3.05,-1.78,-1.78,-1.79
293.63,1.47,1.47,3.26,3.26,-3.26,-3.20,-3.01,-1.79,-1.79,-1.79
296.57,1.49,1.49,3.29,3.29,-3.28,-3.20,-2.96,-1.79,-1.80,-1.80
299.53,1.50,1.50,3.30,3.31,-3.31,-3.20,-2.91,-1.81,-1.80,-1.80
302.53,1.52,1.52,3.33,3.33,-3.33,-3.19,-2.87,-1.81,-1.81,-1.82
305.55,1.53,1.53,3.34,3.34,-3.35,-3.18,-2.82,-1.82,-1.82,-1.81
308.61,1.54,1.54,3.37,3.36,-3.36,-3.17,-2.78,-1.83,-1.82,-1.83
311.69,1.55,1.55,3.37,3.38,-3.38,-3.16,-2.73,-1.83,-1.83,-1.82
314.81,1.56,1.56,3.40,3.39,-3.39,-3.15,-2.69,-1.83,-1.83,-1.84
317.96,1.56,1.56,3.39,3.40,-3.40,-3.14,-2.65,-1.84,-1.84,-1.84
321.14,1.57,1.57,3.41,3.41,-3.41,-3.12,-2.61,-1.84,-1.84,-1.84
324.35,1.57,1.57,3.41,3.41,-3.41,-3.10,-2.57,-1.84,-1.84,-1.85
327.59,1.57,1.57,3.41,3.41,-3.42,-3.08,-2.53,-1.85,-1.85,-1.84
330.87,1.57,1.57,3.41,3.41,-3.42,-3.06,-2.49,-1.85,-1.85,-1.85
334.18,1.56,1.56,3.41,3.41,-3.41,-3.04,-2.45,-1.86,-1.85,-1.85
337.52,1.56,1.56,3.41,3.41,-3.41,-3.02,-2.42,-1.85,-1.85,-1.86
340.90,1.55,1.55,3.41,3.40,-3.40,-3.00,-2.38,-1.86,-1.86,-1.86
344.30,1.54,1.54,3.39,3.40,-3.39,-2.97,-2.35,-1.86,-1.86,-1.86
347.75,1.53,1.53,3.38,3.38,-3.38,-2.95,-2.32,-1.86,-1.86,-1.85
351.23,1.52,1.52,3.38,3.37,-3.37,-2.92,-2.30,-1.85,-1.86,-1.86
354.74,1.50,1.50,3.34,3.36,-3.36,-2.89,-2.27,-1.86,-1.86,-1.85
358.28,1.49,1.49,3.35,3.34,-3.34,-2.86,-2.25,-1.85,-1.85,-1.86
361.87,1.47,1.47,3.32,3.32,-3.32,-2.83,-2.23,-1.85,-1.85,-1.85
365.49,1.45,1.45,3.31,3.31,-3.30,-2.80,-2.21,-1.85,-1.86,-1.86
369.14,1.42,1.42,3.28,3.28,-3.28,-2.77,-2.19,-1.86,-1.86,-1.86
372.83,1.40,1.40,3.25,3.25,-3.26,-2.74,-2.17,-1.86,-1.86,-1.85
376.56,1.37,1.37,3.23,3.23,-3.23,-2.71,-2.15,-1.87,-1.86,-1.86
380.33,1.35,1.35,3.21,3.21,-3.21,-2.68,-2.14,-1.86,-1.86,-1.86
384.13,1.32,1.32,3.19,3.18,-3.18,-2.65,-2.13,-1.86,-1.86,-1.87
387.97,1.29,1.29,3.15,3.15,-3.15,-2.61,-2.12,-1.86,-1.86,-1.87
391.85,1.26,1.26,3.12,3.12,-3.12,-2.58,-2.11,-1.86,-1.86,-1.86
395.77,1.22,1.22,3.08,3.08,-3.09,-2.55,-2.10,-1.87,-1.87,-1.86
399.73,1.19,1.19,3.05,3.05,-3.05,-2.51,-2.10,-1.87,-1.87,-1.86
403.72,1.15,1.15,3.01,3.02,-3.02,-2.48,-2.09,-1.87,-1.87,-1.87
407.76,1.12,1.12,2.99,2.98,-2.98,-2.44,-2.09,-1.86,-1.86,-1.87
411.84,1.08,1.08,2.95,2.94,-2.94,-2.41,-2.08,-1.86,-1.87,-1.87
415.96,1.04,1.04,2.90,2.91,-2.90,-2.37,-2.08,-1.87,-1.87,-1.86
420.12,0.99,0.99,2.86,2.86,-2.86,-2.34,-2.08,-1.88,-1.87,-1.87
424.32,0.95,0.95,2.82,2.82,-2.82,-2.31,-2.08,-1.88,-1.88,-1.88
428.56,0.90,0.90,2.78,2.78,-2.78,-2.27,-2.08,-1.88,-1.88,-1.88
432.85,0.86,0.86,2.74,2.74,-2.74,-2.24,-2.08,-1.88,-1.88,-1.88
437.18,0.81,0.81,2.70,2.70,-2.69,-2.20,-2.08,-1.88,-1.89,-1.89
441.55,0.76,0.76,2.65,2.65,-2.65,-2.17,-2.08,-1.89,-1.89,-1.89
445.96,0.71,0.71,2.60,2.60,-2.60,-2.13,-2.08,-1.89,-1.89,-1.90
450.42,0.66,0.66,2.54,2.55,-2.55,-2.10,-2.07,-1.89,-1.89,-1.89
454.93,0.61,0.61,2.50,2.50,-2.50,-2.06,-2.07,-1.89,-1.89,-1.89
459.48,0.56,0.56,2.45,2.45,-2.45,-2.03,-2.07,-1.89,-1.90,-1.89
464.07,0.50,0.50,2.40,2.40,-2.40,-2.00,-2.06,-1.90,-1.90,-1.90
468.71,0.45,0.45,2.35,2.35,-2.35,-1.96,-2.06,-1.90,-1.90,-1.90
473.40,0.39,0.39,2.29,2.30,-2.29,-1.93,-2.05,-1.90,-1.90,-1.90
478.13,0.34,0.34,2.24,2.24,-2.24,-1.90,-2.04,-1.90,-1.90,-1.91
482.91,0.28,0.28,2.18,2.18,-2.18,-1.86,-2.03,-1.91,-1.90,-1.91
487.74,0.23,0.22,2.13,2.13,-2.13,-1.83,-2.02,-1.90,-1.90,-1.90
492.62,0.17,0.17,2.07,2.07,-2.07,-1.80,-2.01,-1.90,-1.90,-1.90
497.55,0.11,0.11,2.01,2.01,-2.01,-1.77,-1.99,-1.90,-1.90,-1.90
502.52,0.06,0.05,1.96,1.95,-1.95,-1.73,-1.97,-1.89,-1.90,-1.90
507.55,-0.00,0.00,1.89,1.90,-1.89,-1.70,-1.95,-1.90,-1.89,-1.89
512.62,-0.05,-0.06,1.84,1.83,-1.84,-1.67,-1.93,-1.89,-1.89,-1.89
517.75,-0.11,-0.11,1.77,1.77,-1.78,-1.64,-1.91,-1.89,-1.89,-1.88
522.93,-0.17,-0.17,1.71,1.72,-1.72,-1.61,-1.88,-1.89,-1.89,-1.88
528.16,-0.22,-0.23,1.66,1.66,-1.66,-1.58,-1.85,-1.88,-1.89,-1.89
