frequency,raw,smoothed,error,error_smoothed,equalization,parametric_eq,fixed_band_eq,equalized_raw,equalized_smoothed,target
20.00,4.13,4.13,-2.63,-2.63,2.63,2.93,1.32,6.75,6.76,6.76
20.20,4.12,4.12,-2.64,-2.64,2.64,2.93,1.36,6.76,6.76,6.76
20.40,4.11,4.10,-2.65,-2.65,2.65,2.93,1.40,6.76,6.75,6.76
20.61,4.09,4.09,-2.67,-2.66,2.66,2.93,1.44,6.75,6.75,6.75
20.81,4.08,4.08,-2.68,-2.67,2.68,2.93,1.48,6.75,6.75,6.75
21.02,4.07,4.07,-2.69,-2.69,2.69,2.93,1.53,6.75,6.75,6.75
21.23,4.06,4.05,-2.69,-2.70,2.70,2.93,1.57,6.76,6.75,6.75
21.44,4.04,4.04,-2.71,-2.71,2.71,2.93,1.62,6.75,6.75,6.75
21.66,4.03,4.03,-2.72,-2.72,2.72,2.93,1.66,6.75,6.75,6.75
21.87,4.02,4.02,-2.73,-2.73,2.73,2.93,1.71,6.75,6.75,6.75
22.09,4.01,4.00,-2.74,-2.75,2.75,2.94,1.76,6.75,6.75,6.75
22.31,3.99,3.99,-2.76,-2.76,2.76,2.94,1.82,6.74,6.75,6.75
22.54,3.98,3.98,-2.77,-2.77,2.77,2.94,1.87,6.75,6.75,6.75
22.76,3.97,3.97,-2.78,-2.78,2.78,2.94,1.92,6.75,6.74,6.75
22.99,3.96,3.96,-2.79,-2.79,2.79,2.94,1.98,6.75,6.75,6.75
23.22,3.95,3.95,-2.80,-2.80,2.80,2.94,2.03,6.74,6.74,6.74
23.45,3.94,3.94,-2.81,-2.81,2.81,2.94,2.09,6.74,6.74,6.74
23.69,3.93,3.93,-2.81,-2.81,2.82,2.94,2.15,6.74,6.74,6.74
23.92,3.92,3.92,-2.82,-2.82,2.82,2.94,2.21,6.74,6.74,6.74
24.16,3.91,3.91,-2.83,-2.83,2.83,2.94,2.27,6.74,6.74,6.74
24.40,3.90,3.90,-2.84,-2.84,2.84,2.94,2.34,6.74,6.74,6.74
24.65,3.89,3.89,-2.85,-2.85,2.85,2.94,2.40,6.74,6.74,6.74
24.89,3.88,3.88,-2.86,-2.86,2.86,2.94,2.46,6.74,6.74,6.74
25.14,3.87,3.87,-2.87,-2.87,2.87,2.94,2.53,6.74,6.74,6.73
25.39,3.86,3.86,-2.88,-2.88,2.88,2.94,2.59,6.74,6.74,6.73
25.65,3.85,3.84,-2.88,-2.89,2.89,2.94,2.66,6.74,6.73,6.73
25.91,3.83,3.83,-2.90,-2.90,2.90,2.95,2.72,6.73,6.73,6.73
26.16,3.82,3.82,-2.91,-2.91,2.91,2.95,2.79,6.73,6.73,6.73
26.43,3.81,3.80,-2.92,-2.92,2.92,2.95,2.85,6.73,6.73,6.73
26.69,3.79,3.79,-2.94,-2.93,2.93,2.95,2.92,6.72,6.72,6.73
26.96,3.78,3.78,-2.95,-2.94,2.95,2.95,2.98,6.72,6.72,6.72
27.23,3.77,3.77,-2.95,-2.96,2.96,2.95,3.04,6.72,6.72,6.72
27.50,3.76,3.75,-2.96,-2.97,2.97,2.95,3.10,6.73,6.72,6.72
27.77,3.74,3.74,-2.98,-2.98,2.98,2.95,3.16,6.72,6.72,6.72
28.05,3.73,3.73,-2.99,-2.99,2.99,2.95,3.22,6.71,6.72,6.72
28.33,3.72,3.72,-3.00,-3.00,3.00,2.95,3.27,6.71,6.71,6.71
28.62,3.71,3.71,-3.00,-3.00,3.00,2.95,3.32,6.71,6.71,6.71
28.90,3.70,3.70,-3.01,-3.01,3.01,2.96,3.37,6.71,6.71,6.71
29.19,3.69,3.69,-3.02,-3.02,3.02,2.96,3.42,6.71,6.71,6.71
29.48,3.68,3.68,-3.03,-3.02,3.02,2.96,3.46,6.70,6.70,6.71
29.78,3.68,3.67,-3.02,-3.03,3.03,2.96,3.50,6.71,6.70,6.70
30.08,3.67,3.67,-3.03,-3.03,3.03,2.96,3.53,6.70,6.70,6.70
30.38,3.66,3.66,-3.04,-3.04,3.04,2.96,3.56,6.70,6.70,6.70
30.68,3.65,3.65,-3.05,-3.05,3.05,2.96,3.58,6.69,6.70,6.69
30.99,3.64,3.64,-3.05,-3.05,3.05,2.97,3.60,6.69,6.69,6.69
31.30,3.63,3.63,-3.06,-3.06,3.06,2.97,3.62,6.69,6.69,6.69
31.61,3.62,3.61,-3.07,-3.07,3.07,2.97,3.63,6.69,6.69,6.69
31.93,3.60,3.60,-3.08,-3.08,3.08,2.97,3.64,6.68,6.68,6.68
32.24,3.59,3.59,-3.09,-3.09,3.09,2.97,3.64,6.67,6.68,6.68
32.57,3.58,3.58,-3.10,-3.10,3.10,2.97,3.64,6.67,6.67,6.68
32.89,3.57,3.57,-3.10,-3.10,3.10,2.98,3.63,6.67,6.67,6.67
33.22,3.56,3.56,-3.11,-3.11,3.11,2.98,3.62,6.67,6.67,6.67
33.55,3.55,3.55,-3.12,-3.12,3.12,2.98,3.61,6.67,6.67,6.66
33.89,3.54,3.53,-3.12,-3.13,3.13,2.98,3.59,6.67,6.66,6.66
34.23,3.52,3.52,-3.14,-3.13,3.13,2.98,3.57,6.65,6.66,6.66
34.57,3.51,3.51,-3.14,-3.14,3.14,2.99,3.55,6.65,6.65,6.65
34.92,3.50,3.50,-3.15,-3.15,3.15,2.99,3.53,6.64,6.64,6.65
35.27,3.49,3.49,-3.15,-3.15,3.15,2.99,3.50,6.64,6.64,6.64
35.62,3.48,3.48,-3.16,-3.16,3.16,2.99,3.47,6.63,6.64,6.64
35.97,3.48,3.47,-3.15,-3.16,3.16,3.00,3.44,6.64,6.63,6.63
36.33,3.47,3.47,-3.16,-3.16,3.16,3.00,3.41,6.63,6.63,6.63
36.70,3.46,3.46,-3.16,-3.16,3.16,3.00,3.38,6.62,6.62,6.62
37.06,3.45,3.45,-3.17,-3.17,3.17,3.01,3.35,6.61,6.61,6.62
37.43,3.44,3.44,-3.17,-3.17,3.17,3.01,3.32,6.61,6.61,6.61
37.81,3.43,3.43,-3.18,-3.17,3.17,3.01,3.29,6.60,6.60,6.60
38.19,3.43,3.42,-3.17,-3.17,3.17,3.02,3.26,6.60,6.60,6.60
38.57,3.42,3.42,-3.17,-3.17,3.18,3.02,3.23,6.59,6.59,6.59
38.95,3.41,3.41,-3.18,-3.18,3.18,3.02,3.20,6.59,6.59,6.58
39.34,3.40,3.40,-3.18,-3.18,3.18,3.03,3.17,6.58,6.58,6.58
39.74,3.39,3.39,-3.18,-3.18,3.18,3.03,3.14,6.57,6.57,6.57
40.14,3.38,3.38,-3.18,-3.18,3.18,3.03,3.12,6.56,6.56,6.56
40.54,3.37,3.37,-3.19,-3.18,3.18,3.04,3.10,6.55,6.55,6.55
40.94,3.37,3.36,-3.18,-3.18,3.18,3.04,3.08,6.55,6.55,6.55
41.35,3.36,3.36,-3.18,-3.18,3.18,3.05,3.06,6.54,6.54,6.54
41.76,3.35,3.35,-3.18,-3.18,3.18,3.05,3.04,6.53,6.53,6.53
42.18,3.34,3.34,-3.18,-3.18,3.18,3.05,3.02,6.52,6.52,6.52
42.60,3.33,3.33,-3.18,-3.18,3.18,3.06,3.01,6.51,6.51,6.51
43.03,3.32,3.32,-3.18,-3.18,3.18,3.06,3.00,6.50,6.50,6.50
43.46,3.32,3.31,-3.17,-3.18,3.17,3.07,2.99,6.49,6.49,6.49
43.90,3.31,3.31,-3.17,-3.17,3.17,3.07,2.99,6.48,6.48,6.48
44.33,3.30,3.30,-3.17,-3.17,3.17,3.08,2.99,6.47,6.47,6.47
44.78,3.30,3.29,-3.16,-3.16,3.16,3.08,2.98,6.46,6.46,6.46
45.23,3.29,3.29,-3.16,-3.16,3.16,3.09,2.99,6.45,6.45,6.45
45.68,3.28,3.28,-3.16,-3.16,3.16,3.09,2.99,6.43,6.44,6.43
46.13,3.27,3.27,-3.15,-3.15,3.15,3.10,3.00,6.42,6.42,6.42
46.60,3.26,3.26,-3.15,-3.15,3.15,3.10,3.00,6.41,6.41,6.41
47.06,3.25,3.24,-3.15,-3.15,3.15,3.11,3.01,6.40,6.40,6.40
47.53,3.23,3.23,-3.15,-3.15,3.15,3.11,3.03,6.38,6.38,6.38
48.01,3.22,3.22,-3.15,-3.15,3.15,3.12,3.04,6.37,6.37,6.37
48.49,3.21,3.20,-3.14,-3.15,3.15,3.12,3.06,6.36,6.35,6.35
48.97,3.19,3.19,-3.15,-3.15,3.15,3.13,3.08,6.33,6.34,6.34
49.46,3.18,3.18,-3.14,-3.14,3.14,3.14,3.10,6.32,6.32,6.32
49.96,3.17,3.17,-3.14,-3.14,3.14,3.14,3.12,6.30,6.30,6.31
50.46,3.16,3.16,-3.13,-3.13,3.13,3.15,3.14,6.29,6.29,6.29
50.96,3.15,3.15,-3.12,-3.12,3.12,3.15,3.16,6.27,6.27,6.27
51.47,3.14,3.14,-3.12,-3.11,3.12,3.16,3.19,6.25,6.25,6.25
51.99,3.13,3.13,-3.11,-3.11,3.11,3.16,3.21,6.24,6.24,6.23
52.51,3.12,3.12,-3.10,-3.10,3.10,3.17,3.24,6.22,6.22,6.21
53.03,3.10,3.10,-3.10,-3.09,3.09,3.17,3.26,6.19,6.19,6.19
53.56,3.09,3.09,-3.09,-3.09,3.09,3.18,3.29,6.17,6.17,6.17
54.10,3.07,3.07,-3.09,-3.08,3.08,3.18,3.31,6.15,6.15,6.15
54.64,3.06,3.06,-3.07,-3.08,3.08,3.19,3.34,6.13,6.13,6.13
55.18,3.04,3.04,-3.07,-3.07,3.07,3.19,3.36,6.11,6.11,6.11
55.74,3.02,3.02,-3.07,-3.07,3.07,3.19,3.38,6.08,6.09,6.08
56.29,3.00,3.00,-3.06,-3.06,3.06,3.20,3.40,6.06,6.06,6.06
56.86,2.98,2.98,-3.06,-3.06,3.06,3.20,3.42,6.04,6.04,6.04
57.42,2.95,2.95,-3.06,-3.06,3.06,3.20,3.44,6.01,6.01,6.01
58.00,2.93,2.93,-3.06,-3.06,3.06,3.20,3.45,5.99,5.99,5.98
58.58,2.90,2.90,-3.06,-3.06,3.06,3.20,3.46,5.96,5.96,5.96
59.16,2.87,2.87,-3.06,-3.06,3.06,3.21,3.46,5.93,5.93,5.93
59.76,2.84,2.84,-3.06,-3.06,3.06,3.20,3.47,5.90,5.90,5.90
60.35,2.81,2.81,-3.06,-3.06,3.06,3.20,3.46,5.87,5.87,5.87
60.96,2.78,2.78,-3.06,-3.06,3.06,3.20,3.46,5.84,5.84,5.84
61.57,2.75,2.75,-3.06,-3.06,3.06,3.20,3.45,5.81,5.81,5.81
62.18,2.72,2.72,-3.06,-3.06,3.06,3.19,3.43,5.78,5.78,5.78
62.80,2.69,2.69,-3.05,-3.06,3.06,3.19,3.42,5.74,5.74,5.74
63.43,2.66,2.65,-3.05,-3.05,3.05,3.18,3.39,5.71,5.71,5.71
64.07,2.62,2.62,-3.06,-3.05,3.05,3.18,3.36,5.67,5.67,5.67
64.71,2.59,2.59,-3.05,-3.05,3.05,3.17,3.33,5.64,5.64,5.64
65.35,2.56,2.55,-3.04,-3.05,3.04,3.16,3.30,5.60,5.60,5.60
66.01,2.52,2.52,-3.04,-3.04,3.04,3.14,3.25,5.56,5.56,5.56
66.67,2.49,2.49,-3.03,-3.04,3.04,3.13,3.21,5.52,5.52,5.52
67.33,2.45,2.45,-3.04,-3.03,3.03,3.12,3.16,5.48,5.48,5.48
68.01,2.42,2.42,-3.02,-3.03,3.03,3.10,3.11,5.44,5.44,5.44
68.69,2.38,2.38,-3.02,-3.02,3.02,3.08,3.06,5.40,5.40,5.40
69.37,2.34,2.34,-3.02,-3.02,3.02,3.06,3.00,5.36,5.36,5.36
70.07,2.30,2.30,-3.01,-3.01,3.01,3.04,2.94,5.31,5.31,5.31
70.77,2.26,2.26,-3.01,-3.01,3.01,3.02,2.88,5.27,5.27,5.27
71.48,2.22,2.22,-3.00,-3.01,3.01,2.99,2.81,5.22,5.22,5.22
72.19,2.17,2.17,-3.01,-3.00,3.00,2.96,2.75,5.17,5.18,5.17
72.91,2.13,2.13,-3.00,-3.00,3.00,2.93,2.68,5.13,5.13,5.13
73.64,2.08,2.08,-3.00,-3.00,3.00,2.90,2.61,5.08,5.08,5.08
74.38,2.03,2.03,-3.00,-3.00,3.00,2.87,2.54,5.03,5.03,5.03
75.12,1.98,1.98,-3.00,-3.00,3.00,2.84,2.47,4.98,4.98,4.97
75.87,1.93,1.93,-3.00,-3.00,3.00,2.80,2.40,4.92,4.92,4.92
76.63,1.88,1.88,-2.99,-2.99,2.99,2.76,2.33,4.87,4.87,4.87
77.40,1.83,1.83,-2.99,-2.99,2.98,2.72,2.26,4.81,4.81,4.81
78.17,1.79,1.78,-2.97,-2.98,2.98,2.68,2.19,4.76,4.76,4.76
78.95,1.74,1.74,-2.97,-2.96,2.96,2.63,2.12,4.70,4.70,4.70
79.74,1.70,1.70,-2.95,-2.95,2.95,2.59,2.05,4.64,4.65,4.65
80.54,1.67,1.66,-2.92,-2.92,2.92,2.54,1.98,4.59,4.59,4.59
81.35,1.63,1.63,-2.90,-2.90,2.90,2.49,1.91,4.53,4.53,4.53
82.16,1.61,1.60,-2.86,-2.87,2.87,2.44,1.84,4.47,4.47,4.47
82.98,1.58,1.58,-2.83,-2.83,2.83,2.39,1.78,4.41,4.41,4.41
83.81,1.56,1.56,-2.79,-2.79,2.78,2.33,1.71,4.34,4.34,4.35
84.65,1.55,1.55,-2.74,-2.73,2.73,2.28,1.65,4.28,4.28,4.28
85.50,1.55,1.54,-2.67,-2.67,2.67,2.22,1.58,4.22,4.22,4.22
86.35,1.55,1.55,-2.61,-2.61,2.60,2.16,1.52,4.15,4.15,4.15
87.22,1.56,1.56,-2.53,-2.53,2.53,2.10,1.46,4.09,4.09,4.09
88.09,1.58,1.58,-2.45,-2.45,2.45,2.04,1.40,4.02,4.02,4.02
88.97,1.60,1.60,-2.36,-2.36,2.36,1.98,1.34,3.95,3.96,3.96
89.86,1.63,1.63,-2.26,-2.26,2.26,1.92,1.28,3.89,3.89,3.89
90.76,1.66,1.66,-2.16,-2.16,2.17,1.86,1.22,3.82,3.82,3.82
91.66,1.69,1.69,-2.07,-2.06,2.06,1.80,1.16,3.75,3.75,3.75
92.58,1.73,1.72,-1.96,-1.96,1.96,1.73,1.11,3.69,3.68,3.68
93.51,1.76,1.76,-1.86,-1.85,1.86,1.67,1.06,3.61,3.61,3.61
94.44,1.80,1.80,-1.75,-1.75,1.75,1.60,1.00,3.55,3.55,3.54
95.39,1.83,1.83,-1.65,-1.64,1.64,1.54,0.95,3.47,3.47,3.47
96.34,1.87,1.87,-1.53,-1.54,1.54,1.47,0.90,3.41,3.40,3.40
97.30,1.90,1.90,-1.43,-1.43,1.43,1.41,0.85,3.33,3.33,3.33
98.28,1.93,1.93,-1.33,-1.33,1.33,1.34,0.80,3.26,3.26,3.26
99.26,1.96,1.96,-1.23,-1.23,1.23,1.27,0.75,3.18,3.19,3.19
100.25,1.99,1.99,-1.13,-1.13,1.13,1.21,0.70,3.11,3.11,3.11
101.25,2.02,2.02,-1.02,-1.02,1.03,1.14,0.66,3.04,3.04,3.04
102.27,2.04,2.04,-0.93,-0.93,0.93,1.07,0.61,2.97,2.97,2.97
103.29,2.07,2.06,-0.83,-0.83,0.83,1.01,0.56,2.90,2.89,2.90
104.32,2.08,2.08,-0.74,-0.74,0.74,0.94,0.52,2.82,2.82,2.82
105.37,2.10,2.10,-0.65,-0.65,0.65,0.87,0.48,2.75,2.75,2.75
106.42,2.12,2.11,-0.56,-0.56,0.56,0.81,0.43,2.68,2.68,2.68
107.48,2.13,2.13,-0.48,-0.48,0.48,0.74,0.39,2.61,2.61,2.60
108.56,2.13,2.13,-0.40,-0.40,0.40,0.68,0.35,2.53,2.54,2.53
109.64,2.14,2.13,-0.32,-0.32,0.32,0.61,0.31,2.46,2.46,2.46
110.74,2.14,2.13,-0.25,-0.25,0.25,0.55,0.27,2.39,2.38,2.38
111.85,2.13,2.13,-0.18,-0.18,0.17,0.48,0.23,2.30,2.31,2.31
112.97,2.13,2.13,-0.11,-0.11,0.10,0.42,0.19,2.23,2.23,2.24
114.10,2.14,2.13,-0.03,-0.04,0.03,0.35,0.15,2.17,2.16,2.17
115.24,2.14,2.14,0.04,0.04,-0.04,0.29,0.12,2.10,2.10,2.10
116.39,2.14,2.14,0.11,0.11,-0.11,0.23,0.08,2.03,2.03,2.03
117.55,2.14,2.13,0.18,0.18,-0.18,0.17,0.05,1.96,1.96,1.96
118.73,2.13,2.13,0.24,0.24,-0.24,0.11,0.01,1.89,1.89,1.89
119.92,2.12,2.12,0.30,0.30,-0.30,0.04,-0.02,1.82,1.82,1.82
121.12,2.11,2.10,0.36,0.36,-0.35,-0.02,-0.06,1.75,1.75,1.75
122.33,2.09,2.09,0.41,0.41,-0.41,-0.07,-0.09,1.68,1.68,1.68
123.55,2.07,2.07,0.46,0.46,-0.45,-0.13,-0.12,1.61,1.62,1.61
124.79,2.05,2.04,0.50,0.50,-0.50,-0.19,-0.15,1.55,1.55,1.55
126.03,2.02,2.02,0.54,0.54,-0.54,-0.25,-0.18,1.48,1.48,1.48
127.29,1.99,1.99,0.57,0.58,-0.58,-0.30,-0.21,1.41,1.41,1.41
128.57,1.97,1.97,0.62,0.62,-0.62,-0.36,-0.24,1.34,1.34,1.35
129.85,1.95,1.95,0.66,0.66,-0.66,-0.41,-0.27,1.28,1.28,1.29
131.15,1.93,1.93,0.71,0.70,-0.71,-0.47,-0.30,1.22,1.22,1.22
132.46,1.91,1.91,0.75,0.75,-0.75,-0.52,-0.33,1.16,1.16,1.16
133.79,1.89,1.89,0.79,0.79,-0.79,-0.58,-0.36,1.10,1.10,1.10
135.12,1.88,1.87,0.84,0.84,-0.83,-0.63,-0.39,1.04,1.04,1.04
136.48,1.86,1.86,0.88,0.88,-0.88,-0.68,-0.42,0.98,0.98,0.98
137.84,1.84,1.84,0.92,0.92,-0.92,-0.73,-0.44,0.92,0.92,0.92
139.22,1.82,1.82,0.95,0.96,-0.96,-0.78,-0.47,0.86,0.86,0.86
140.61,1.81,1.80,1.00,1.00,-1.00,-0.83,-0.50,0.81,0.81,0.81
142.02,1.79,1.79,1.04,1.04,-1.04,-0.87,-0.53,0.75,0.75,0.75
143.44,1.77,1.77,1.07,1.07,-1.07,-0.92,-0.55,0.70,0.70,0.70
144.87,1.75,1.75,1.11,1.11,-1.11,-0.97,-0.58,0.64,0.64,0.64
146.32,1.74,1.73,1.15,1.14,-1.14,-1.01,-0.61,0.60,0.59,0.59
147.78,1.72,1.72,1.17,1.17,-1.17,-1.06,-0.64,0.55,0.54,0.55
149.26,1.70,1.70,1.20,1.20,-1.20,-1.10,-0.67,0.49,0.50,0.50
150.75,1.68,1.68,1.23,1.23,-1.23,-1.14,-0.70,0.44,0.45,0.45
152.26,1.67,1.66,1.27,1.26,-1.26,-1.18,-0.73,0.40,0.40,0.40
153.78,1.65,1.65,1.30,1.29,-1.29,-1.23,-0.76,0.35,0.35,0.35
155.32,1.63,1.63,1.32,1.32,-1.32,-1.27,-0.79,0.30,0.31,0.31
156.88,1.61,1.61,1.35,1.35,-1.35,-1.30,-0.82,0.25,0.26,0.26
158.44,1.60,1.59,1.38,1.38,-1.38,-1.34,-0.85,0.22,0.21,0.22
160.03,1.58,1.58,1.41,1.41,-1.41,-1.38,-0.89,0.17,0.17,0.17
161.63,1.56,1.56,1.44,1.44,-1.44,-1.42,-0.92,0.12,0.13,0.12
163.24,1.55,1.54,1.47,1.47,-1.46,-1.45,-0.96,0.09,0.08,0.08
164.88,1.53,1.53,1.49,1.49,-1.49,-1.49,-0.99,0.04,0.04,0.04
166.53,1.51,1.51,1.51,1.51,-1.51,-1.52,-1.03,-0.00,0.00,-0.00
168.19,1.49,1.49,1.53,1.53,-1.53,-1.56,-1.07,-0.04,-0.04,-0.04
169.87,1.47,1.47,1.54,1.54,-1.55,-1.59,-1.11,-0.08,-0.08,-0.08
171.57,1.45,1.45,1.56,1.56,-1.57,-1.62,-1.15,-0.12,-0.12,-0.11
173.29,1.44,1.43,1.59,1.58,-1.58,-1.65,-1.19,-0.15,-0.15,-0.15
175.02,1.42,1.42,1.60,1.60,-1.60,-1.68,-1.23,-0.18,-0.18,-0.18
176.77,1.40,1.40,1.61,1.62,-1.61,-1.71,-1.27,-0.22,-0.21,-0.22
178.54,1.38,1.38,1.63,1.63,-1.63,-1.74,-1.32,-0.25,-0.25,-0.25
180.32,1.36,1.36,1.64,1.64,-1.64,-1.77,-1.36,-0.28,-0.28,-0.28
182.13,1.34,1.34,1.65,1.65,-1.65,-1.80,-1.41,-0.31,-0.31,-0.31
183.95,1.32,1.32,1.66,1.66,-1.66,-1.83,-1.45,-0.34,-0.34,-0.34
185.79,1.30,1.30,1.67,1.67,-1.67,-1.85,-1.50,-0.37,-0.37,-0.37
187.65,1.28,1.27,1.68,1.67,-1.67,-1.88,-1.55,-0.40,-0.40,-0.40
189.52,1.25,1.25,1.67,1.68,-1.68,-1.90,-1.60,-0.43,-0.43,-0.43
191.42,1.24,1.23,1.69,1.69,-1.69,-1.92,-1.65,-0.45,-0.45,-0.45
193.33,1.22,1.22,1.70,1.69,-1.70,-1.95,-1.70,-0.48,-0.48,-0.48
195.27,1.20,1.20,1.70,1.70,-1.70,-1.97,-1.75,-0.50,-0.50,-0.50
197.22,1.18,1.18,1.71,1.71,-1.71,-1.99,-1.81,-0.53,-0.53,-0.53
199.19,1.17,1.16,1.72,1.72,-1.72,-2.01,-1.86,-0.55,-0.55,-0.55
201.18,1.15,1.15,1.72,1.72,-1.72,-2.03,-1.91,-0.58,-0.57,-0.58
203.19,1.14,1.13,1.73,1.73,-1.73,-2.05,-1.97,-0.59,-0.60,-0.60
205.23,1.12,1.12,1.74,1.74,-1.74,-2.07,-2.02,-0.62,-0.62,-0.62
207.28,1.11,1.11,1.75,1.75,-1.75,-2.09,-2.08,-0.64,-0.64,-0.64
209.35,1.10,1.10,1.76,1.76,-1.76,-2.11,-2.13,-0.66,-0.66,-0.66
211.44,1.09,1.09,1.77,1.77,-1.77,-2.12,-2.18,-0.68,-0.68,-0.68
213.56,1.08,1.08,1.78,1.77,-1.77,-2.14,-2.23,-0.70,-0.70,-0.70
215.69,1.07,1.07,1.78,1.78,-1.78,-2.16,-2.29,-0.72,-0.72,-0.72
217.85,1.06,1.06,1.79,1.79,-1.79,-2.17,-2.33,-0.74,-0.73,-0.73
220.03,1.06,1.05,1.81,1.80,-1.81,-2.18,-2.38,-0.75,-0.75,-0.75
222.23,1.05,1.05,1.82,1.82,-1.82,-2.20,-2.43,-0.77,-0.77,-0.77
224.45,1.05,1.05,1.83,1.83,-1.83,-2.21,-2.47,-0.78,-0.78,-0.78
226.70,1.05,1.05,1.85,1.85,-1.84,-2.22,-2.51,-0.80,-0.80,-0.80
228.96,1.05,1.05,1.86,1.86,-1.86,-2.23,-2.55,-0.81,-0.81,-0.81
231.25,1.05,1.05,1.88,1.88,-1.88,-2.25,-2.59,-0.83,-0.83,-0.83
233.57,1.05,1.05,1.89,1.90,-1.90,-2.26,-2.62,-0.85,-0.85,-0.84
235.90,1.06,1.06,1.92,1.92,-1.92,-2.27,-2.65,-0.86,-0.86,-0.87
238.26,1.07,1.07,1.95,1.95,-1.94,-2.27,-2.68,-0.88,-0.88,-0.88
240.64,1.08,1.08,1.97,1.97,-1.97,-2.28,-2.70,-0.89,-0.89,-0.89
243.05,1.09,1.09,1.99,1.99,-1.99,-2.29,-2.72,-0.90,-0.90,-0.90
245.48,1.10,1.10,2.01,2.02,-2.02,-2.30,-2.73,-0.92,-0.92,-0.92
247.93,1.12,1.11,2.04,2.04,-2.04,-2.30,-2.74,-0.92,-0.93,-0.93
250.41,1.13,1.13,2.07,2.07,-2.07,-2.31,-2.74,-0.94,-0.94,-0.94
252.92,1.15,1.15,2.10,2.09,-2.09,-2.32,-2.74,-0.95,-0.95,-0.95
255.45,1.17,1.17,2.12,2.12,-2.12,-2.32,-2.74,-0.95,-0.96,-0.95
258.00,1.19,1.19,2.15,2.15,-2.15,-2.32,-2.73,-0.96,-0.96,-0.96
260.58,1.21,1.21,2.18,2.18,-2.18,-2.33,-2.71,-0.97,-0.97,-0.97
263.19,1.24,1.23,2.21,2.21,-2.21,-2.33,-2.70,-0.97,-0.98,-0.98
265.82,1.26,1.26,2.24,2.24,-2.24,-2.33,-2.68,-0.98,-0.99,-0.99
268.48,1.28,1.28,2.27,2.27,-2.27,-2.33,-2.65,-1.00,-0.99,-0.99
271.16,1.30,1.30,2.30,2.30,-2.30,-2.34,-2.62,-1.01,-1.00,-1.00
273.87,1.33,1.32,2.34,2.33,-2.33,-2.34,-2.59,-1.01,-1.01,-1.01
276.61,1.35,1.35,2.37,2.37,-2.36,-2.34,-2.56,-1.02,-1.02,-1.02
279.38,1.37,1.37,2.39,2.39,-2.39,-2.33,-2.52,-1.02,-1.02,-1.03
282.17,1.39,1.39,2.42,2.42,-2.42,-2.33,-2.48,-1.03,-1.03,-1.03
284.99,1.41,1.41,2.44,2.44,-2.44,-2.33,-2.44,-1.03,-1.03,-1.03
287.84,1.43,1.43,2.45,2.46,-2.46,-2.33,-2.40,-1.03,-1.03,-1.03
290.72,1.45,1.45,2.48,2.48,-2.48,-2.32,-2.36,-1.03,-1.03,-1.03
293.63,1.47,1.47,2.51,2.50,-2.50,-2.32,-2.31,-1.03,-1.03,-1.04
296.57,1.49,1.49,2.52,2.52,-2.52,-2.32,-2.27,-1.03,-1.03,-1.03
299.53,1.50,1.50,2.53,2.54,-2.53,-2.31,-2.22,-1.04,-1.03,-1.03
302.53,1.52,1.52,2.55,2.55,-2.55,-2.30,-2.17,-1.03,-1.03,-1.04
305.55,1.53,1.53,2.56,2.56,-2.56,-2.30,-2.13,-1.04,-1.04,-1.03
308.61,1.54,1.54,2.57,2.57,-2.57,-2.29,-2.08,-1.04,-1.03,-1.04
311.69,1.55,1.55,2.58,2.58,-2.58,-2.28,-2.03,-1.03,-1.04,-1.03
314.81,1.56,1.56,2.59,2.59,-2.59,-2.27,-1.99,-1.03,-1.03,-1.04
317.96,1.56,1.56,2.59,2.60,-2.59,-2.27,-1.94,-1.03,-1.03,-1.03
321.14,1.57,1.57,2.60,2.60,-2.59,-2.26,-1.89,-1.03,-1.03,-1.04
324.35,1.57,1.57,2.60,2.59,-2.59,-2.24,-1.85,-1.03,-1.03,-1.03
327.59,1.57,1.57,2.58,2.59,-2.59,-2.23,-1.81,-1.02,-1.02,-1.01
330.87,1.57,1.57,2.59,2.58,-2.58,-2.22,-1.76,-1.02,-1.02,-1.02
334.18,1.56,1.56,2.57,2.57,-2.58,-2.21,-1.72,-1.02,-1.01,-1.01
337.52,1.56,1.56,2.57,2.57,-2.57,-2.20,-1.68,-1.01,-1.01,-1.02
340.90,1.55,1.55,2.56,2.55,-2.55,-2.18,-1.64,-1.01,-1.01,-1.01
344.30,1.54,1.54,2.54,2.54,-2.54,-2.17,-1.60,-1.00,-1.00,-1.00
347.75,1.53,1.53,2.52,2.52,-2.53,-2.15,-1.56,-1.00,-1.00,-1.00
351.23,1.52,1.52,2.52,2.51,-2.51,-2.14,-1.53,-0.99,-0.99,-1.00
354.74,1.50,1.50,2.48,2.49,-2.49,-2.12,-1.49,-0.99,-0.99,-0.98
358.28,1.49,1.49,2.47,2.47,-2.47,-2.10,-1.46,-0.98,-0.98,-0.98
361.87,1.47,1.47,2.44,2.44,-2.44,-2.08,-1.43,-0.98,-0.98,-0.98
365.49,1.45,1.45,2.42,2.42,-2.42,-2.06,-1.39,-0.97,-0.97,-0.97
369.14,1.42,1.42,2.39,2.39,-2.39,-2.04,-1.36,-0.97,-0.97,-0.97
372.83,1.40,1.40,2.35,2.36,-2.36,-2.02,-1.34,-0.96,-0.96,-0.96
376.56,1.37,1.37,2.33,2.33,-2.33,-2.00,-1.31,-0.96,-0.96,-0.96
380.33,1.35,1.35,2.30,2.30,-2.29,-1.98,-1.28,-0.95,-0.95,-0.95
384.13,1.32,1.32,2.27,2.26,-2.26,-1.96,-1.26,-0.94,-0.94,-0.95
387.97,1.29,1.29,2.22,2.22,-2.22,-1.93,-1.23,-0.93,-0.93,-0.93
391.85,1.26,1.26,2.17,2.18,-2.18,-1.91,-1.21,-0.92,-0.93,-0.92
395.77,1.22,1.22,2.14,2.13,-2.14,-1.88,-1.18,-0.92,-0.92,-0.92
399.73,1.19,1.19,2.10,2.10,-2.10,-1.85,-1.16,-0.91,-0.92,-0.91
403.72,1.15,1.15,2.05,2.06,-2.06,-1.82,-1.14,-0.91,-0.91,-0.90
407.76,1.12,1.12,2.02,2.02,-2.01,-1.80,-1.12,-0.90,-0.90,-0.90
411.84,1.08,1.08,1.97,1.97,-1.97,-1.77,-1.10,-0.89,-0.89,-0.90
415.96,1.04,1.04,1.93,1.93,-1.92,-1.73,-1.08,-0.89,-0.89,-0.89
420.12,0.99,0.99,1.88,1.88,-1.88,-1.70,-1.07,-0.89,-0.89,-0.89
424.32,0.95,0.95,1.83,1.83,-1.83,-1.67,-1.05,-0.88,-0.88,-0.88
428.56,0.90,0.90,1.77,1.77,-1.77,-1.63,-1.03,-0.88,-0.87,-0.87
432.85,0.86,0.86,1.72,1.72,-1.72,-1.60,-1.02,-0.86,-0.86,-0.86
437.18,0.81,0.81,1.66,1.66,-1.66,-1.56,-1.00,-0.85,-0.85,-0.86
441.55,0.76,0.76,1.60,1.60,-1.60,-1.52,-0.99,-0.85,-0.84,-0.85
445.96,0.71,0.71,1.55,1.54,-1.54,-1.48,-0.97,-0.84,-0.84,-0.84
450.42,0.66,0.66,1.48,1.48,-1.48,-1.44,-0.96,-0.83,-0.83,-0.82
454.93,0.61,0.61,1.42,1.42,-1.42,-1.40,-0.94,-0.82,-0.82,-0.81
459.48,0.56,0.56,1.36,1.36,-1.36,-1.36,-0.93,-0.80,-0.81,-0.80
464.07,0.50,0.50,1.30,1.30,-1.30,-1.31,-0.91,-0.80,-0.80,-0.80
468.71,0.45,0.45,1.24,1.24,-1.24,-1.27,-0.90,-0.79,-0.79,-0.79
473.40,0.39,0.39,1.17,1.18,-1.17,-1.22,-0.88,-0.78,-0.78,-0.79
478.13,0.34,0.34,1.11,1.11,-1.11,-1.17,-0.87,-0.77,-0.77,-0.78
482.91,0.28,0.28,1.03,1.04,-1.04,-1.12,-0.85,-0.76,-0.76,-0.76
487.74,0.23,0.22,0.98,0.97,-0.98,-1.07,-0.84,-0.75,-0.75,-0.75
492.62,0.17,0.17,0.91,0.91,-0.91,-1.02,-0.82,-0.74,-0.74,-0.74
497.55,0.11,0.11,0.84,0.84,-0.84,-0.96,-0.80,-0.73,-0.73,-0.73
502.52,0.06,0.05,0.78,0.77,-0.77,-0.90,-0.79,-0.71,-0.72,-0.72
507.55,-0.00,0.00,0.70,0.71,-0.70,-0.84,-0.77,-0.71,-0.70,-0.70
512.62,-0.05,-0.06,0.64,0.64,-0.64,-0.79,-0.75,-0.69,-0.69,-0.69
517.75,-0.11,-0.11,0.57,0.57,-0.57,-0.72,-0.74,-0.68,-0.68,-0.68
522.93,-0.17,-0.17,0.49,0.50,-0.50,-0.66,-0.72,-0.67,-0.67,-0.66
528.16,-0.22,-0.23,0.43,0.43,-0.43,-0.60,-0.70,-0.66,-0.66,-0.65
