frequency,raw
20.00,-5.51
20.20,-5.41
20.40,-5.31
20.61,-5.22
20.81,-5.12
21.02,-5.02
21.23,-4.92
21.44,-4.83
21.66,-4.73
21.87,-4.64
22.09,-4.54
22.31,-4.45
22.54,-4.35
22.76,-4.26
22.99,-4.16
23.22,-4.07
23.45,-3.98
23.69,-3.88
23.92,-3.79
24.16,-3.70
24.40,-3.61
24.65,-3.52
24.89,-3.43
25.14,-3.34
25.39,-3.25
25.65,-3.16
25.91,-3.07
26.16,-2.98
26.43,-2.90
26.69,-2.81
26.96,-2.72
27.23,-2.64
27.50,-2.56
27.77,-2.48
28.05,-2.40
28.33,-2.32
28.62,-2.24
28.90,-2.17
29.19,-2.09
29.48,-2.01
29.78,-1.94
30.08,-1.87
30.38,-1.81
30.68,-1.75
30.99,-1.69
31.30,-1.64
31.61,-1.58
31.93,-1.52
32.24,-1.47
32.57,-1.41
32.89,-1.36
33.22,-1.31
33.55,-1.26
33.89,-1.21
34.23,-1.16
34.57,-1.12
34.92,-1.07
35.27,-1.03
35.62,-0.99
35.97,-0.95
36.33,-0.92
36.70,-0.88
37.06,-0.84
37.43,-0.81
37.81,-0.79
38.19,-0.76
38.57,-0.73
38.95,-0.70
39.34,-0.68
39.74,-0.66
40.14,-0.64
40.54,-0.62
40.94,-0.60
41.35,-0.59
41.76,-0.57
42.18,-0.56
42.60,-0.55
43.03,-0.54
43.46,-0.53
43.90,-0.52
44.33,-0.52
44.78,-0.51
45.23,-0.51
45.68,-0.51
46.13,-0.51
46.60,-0.51
47.06,-0.51
47.53,-0.51
48.01,-0.51
48.49,-0.51
48.97,-0.52
49.46,-0.52
49.96,-0.53
50.46,-0.53
50.96,-0.53
51.47,-0.53
51.99,-0.53
52.51,-0.54
53.03,-0.54
53.56,-0.55
54.10,-0.55
54.64,-0.56
55.18,-0.56
55.74,-0.55
56.29,-0.55
56.86,-0.54
57.42,-0.53
58.00,-0.52
58.58,-0.51
59.16,-0.50
59.76,-0.48
60.35,-0.46
60.96,-0.44
61.57,-0.42
62.18,-0.40
62.80,-0.38
63.43,-0.36
64.07,-0.34
64.71,-0.31
65.35,-0.29
66.01,-0.27
66.67,-0.25
67.33,-0.23
68.01,-0.22
68.69,-0.21
69.37,-0.20
70.07,-0.19
70.77,-0.18
71.48,-0.18
72.19,-0.18
72.91,-0.20
73.64,-0.21
74.38,-0.21
75.12,-0.21
75.87,-0.21
76.63,-0.21
77.40,-0.21
78.17,-0.21
78.95,-0.21
79.74,-0.21
80.54,-0.21
81.35,-0.21
82.16,-0.21
82.98,-0.21
83.81,-0.21
84.65,-0.21
85.50,-0.21
86.35,-0.21
87.22,-0.21
88.09,-0.21
88.97,-0.21
89.86,-0.21
90.76,-0.21
91.66,-0.21
92.58,-0.21
93.51,-0.21
94.44,-0.21
95.39,-0.21
96.34,-0.21
97.30,-0.21
98.28,-0.21
99.26,-0.21
100.25,-0.22
101.25,-0.23
102.27,-0.23
103.29,-0.22
104.32,-0.21
105.37,-0.19
106.42,-0.17
107.48,-0.15
108.56,-0.11
109.64,-0.07
110.74,-0.03
111.85,0.01
112.97,0.06
114.10,0.09
115.24,0.11
116.39,0.12
117.55,0.12
118.73,0.11
119.92,0.07
121.12,0.03
122.33,0.00
123.55,-0.03
124.79,-0.07
126.03,-0.11
127.29,-0.14
128.57,-0.16
129.85,-0.20
131.15,-0.21
132.46,-0.22
133.79,-0.23
135.12,-0.22
136.48,-0.22
137.84,-0.21
139.22,-0.21
140.61,-0.21
142.02,-0.20
143.44,-0.19
144.87,-0.19
146.32,-0.19
147.78,-0.20
149.26,-0.21
150.75,-0.22
152.26,-0.23
153.78,-0.26
155.32,-0.29
156.88,-0.32
158.44,-0.34
160.03,-0.37
161.63,-0.39
163.24,-0.42
164.88,-0.48
166.53,-0.51
168.19,-0.55
169.87,-0.60
171.57,-0.64
173.29,-0.67
175.02,-0.71
176.77,-0.74
178.54,-0.77
180.32,-0.79
182.13,-0.82
183.95,-0.85
185.79,-0.87
187.65,-0.88
189.52,-0.88
191.42,-0.87
193.33,-0.87
195.27,-0.86
197.22,-0.86
199.19,-0.87
201.18,-0.88
203.19,-0.88
205.23,-0.87
207.28,-0.86
209.35,-0.85
211.44,-0.82
213.56,-0.79
215.69,-0.75
217.85,-0.72
220.03,-0.71
222.23,-0.68
224.45,-0.65
226.70,-0.61
228.96,-0.56
231.25,-0.53
233.57,-0.49
235.90,-0.44
238.26,-0.42
240.64,-0.39
243.05,-0.37
245.48,-0.35
247.93,-0.31
250.41,-0.29
252.92,-0.26
255.45,-0.24
258.00,-0.21
260.58,-0.17
263.19,-0.14
265.82,-0.11
268.48,-0.09
271.16,-0.07
273.87,-0.03
276.61,0.00
279.38,0.03
282.17,0.06
284.99,0.08
287.84,0.12
290.72,0.13
293.63,0.14
296.57,0.14
299.53,0.13
302.53,0.12
305.55,0.12
308.61,0.12
311.69,0.12
314.81,0.12
317.96,0.12
321.14,0.12
324.35,0.12
327.59,0.13
330.87,0.13
334.18,0.14
337.52,0.14
340.90,0.13
344.30,0.11
347.75,0.10
351.23,0.07
354.74,0.04
358.28,0.01
361.87,-0.02
365.49,-0.05
369.14,-0.08
372.83,-0.10
376.56,-0.14
380.33,-0.16
384.13,-0.20
387.97,-0.23
391.85,-0.26
395.77,-0.28
399.73,-0.30
403.72,-0.31
407.76,-0.35
411.84,-0.39
415.96,-0.43
420.12,-0.48
424.32,-0.53
428.56,-0.58
432.85,-0.64
437.18,-0.70
441.55,-0.75
445.96,-0.81
450.42,-0.86
454.93,-0.93
459.48,-1.04
464.07,-1.13
468.71,-1.22
473.40,-1.34
478.13,-1.45
482.91,-1.56
487.74,-1.68
492.62,-1.82
497.55,-1.99
502.52,-2.16
507.55,-2.34
512.62,-2.53
517.75,-2.72
522.93,-2.91
528.16,-3.11
533.44,-3.28
538.77,-3.47
544.16,-3.66
549.60,-3.82
555.10,-3.99
560.65,-4.11
566.25,-4.20
571.92,-4.26
577.64,-4.29
583.41,-4.28
589.25,-4.25
595.14,-4.17
601.09,-4.08
607.10,-3.96
613.17,-3.83
619.30,-3.67
625.50,-3.48
631.75,-3.29
638.07,-3.11
644.45,-2.95
650.89,-2.78
657.40,-2.64
663.98,-2.52
670.62,-2.40
677.32,-2.29
684.10,-2.18
690.94,-2.08
697.85,-2.00
704.83,-1.92
711.87,-1.84
718.99,-1.77
726.18,-1.69
733.44,-1.61
740.78,-1.52
748.19,-1.46
755.67,-1.39
763.23,-1.34
770.86,-1.30
778.57,-1.27
786.35,-1.25
794.22,-1.22
802.16,-1.20
810.18,-1.19
818.28,-1.16
826.46,-1.12
834.73,-1.07
843.08,-1.04
851.51,-0.99
860.02,-0.93
868.62,-0.87
877.31,-0.79
886.08,-0.72
894.94,-0.64
903.89,-0.57
912.93,-0.50
922.06,-0.44
931.28,-0.40
940.59,-0.36
950.00,-0.32
959.50,-0.26
969.09,-0.21
978.78,-0.16
988.57,-0.09
998.46,-0.01
1008.44,0.07
1018.53,0.16
1028.71,0.24
1039.00,0.32
1049.39,0.41
1059.88,0.49
1070.48,0.56
1081.19,0.63
1092.00,0.69
1102.92,0.72
1113.95,0.76
1125.09,0.79
1136.34,0.80
1147.70,0.80
1159.18,0.80
1170.77,0.78
1182.48,0.76
1194.30,0.72
1206.25,0.68
1218.31,0.63
1230.49,0.58
1242.80,0.51
1255.22,0.43
1267.78,0.35
1280.45,0.26
1293.26,0.16
1306.19,0.05
1319.25,-0.06
1332.45,-0.18
1345.77,-0.29
1359.23,-0.41
1372.82,-0.55
1386.55,-0.69
1400.41,-0.85
1414.42,-1.00
1428.56,-1.16
1442.85,-1.32
1457.28,-1.48
1471.85,-1.66
1486.57,-1.85
1501.43,-2.02
1516.45,-2.20
1531.61,-2.37
1546.93,-2.55
1562.40,-2.72
1578.02,-2.89
1593.80,-3.07
1609.74,-3.24
1625.84,-3.39
1642.10,-3.54
1658.52,-3.69
1675.10,-3.83
1691.85,-3.97
1708.77,-4.12
1725.86,-4.26
1743.12,-4.38
1760.55,-4.50
1778.15,-4.60
1795.94,-4.70
1813.90,-4.79
1832.03,-4.87
1850.36,-4.95
1868.86,-5.01
1887.55,-5.09
1906.42,-5.16
1925.49,-5.23
1944.74,-5.27
1964.19,-5.30
1983.83,-5.32
2003.67,-5.31
2023.71,-5.29
2043.94,-5.28
2064.38,-5.27
2085.03,-5.26
2105.88,-5.24
2126.94,-5.23
2148.20,-5.22
2169.69,-5.21
2191.38,-5.21
2213.30,-5.23
2235.43,-5.24
2257.78,-5.25
2280.36,-5.27
2303.17,-5.30
2326.20,-5.33
2349.46,-5.37
2372.95,-5.41
2396.68,-5.45
2420.65,-5.49
2444.86,-5.54
2469.31,-5.60
2494.00,-5.67
2518.94,-5.76
2544.13,-5.85
2569.57,-5.94
2595.27,-6.03
2621.22,-6.12
2647.43,-6.20
2673.90,-6.28
2700.64,-6.34
2727.65,-6.37
2754.93,-6.40
2782.48,-6.41
2810.30,-6.39
2838.40,-6.37
2866.79,-6.34
2895.46,-6.28
2924.41,-6.19
2953.65,-6.10
2983.19,-6.01
3013.02,-5.92
3043.15,-5.82
3073.58,-5.73
3104.32,-5.64
3135.36,-5.56
3166.72,-5.50
3198.38,-5.43
3230.37,-5.39
3262.67,-5.36
3295.30,-5.33
3328.25,-5.33
3361.53,-5.33
3395.15,-5.34
3429.10,-5.37
3463.39,-5.43
3498.03,-5.51
3533.01,-5.62
3568.34,-5.77
3604.02,-5.94
3640.06,-6.15
3676.46,-6.37
3713.22,-6.58
3750.36,-6.78
3787.86,-6.95
3825.74,-7.06
3864.00,-7.10
3902.64,-7.05
3941.66,-6.94
3981.08,-6.75
4020.89,-6.48
4061.10,-6.14
4101.71,-5.74
4142.73,-5.32
4184.15,-4.87
4226.00,-4.45
4268.26,-4.05
4310.94,-3.68
4354.05,-3.34
4397.59,-3.04
4441.56,-2.79
4485.98,-2.58
4530.84,-2.41
4576.15,-2.28
4621.91,-2.16
4668.13,-2.06
4714.81,-1.97
4761.96,-1.90
4809.58,-1.86
4857.67,-1.83
4906.25,-1.83
4955.31,-1.83
5004.87,-1.85
5054.91,-1.89
5105.46,-1.95
5156.52,-2.00
5208.08,-2.05
5260.16,-2.08
5312.77,-2.11
5365.89,-2.14
5419.55,-2.14
5473.75,-2.14
5528.49,-2.12
5583.77,-2.07
5639.61,-2.01
5696.00,-1.93
5752.96,-1.84
5810.49,-1.76
5868.60,-1.65
5927.28,-1.54
5986.56,-1.42
6046.42,-1.30
6106.89,-1.19
6167.96,-1.08
6229.64,-0.98
6291.93,-0.86
6354.85,-0.75
6418.40,-0.66
6482.58,-0.58
6547.41,-0.51
6612.88,-0.45
6679.01,-0.40
6745.80,-0.35
6813.26,-0.29
6881.39,-0.23
6950.21,-0.17
7019.71,-0.08
7089.91,0.02
7160.81,0.15
7232.41,0.30
7304.74,0.46
7377.79,0.64
7451.56,0.84
7526.08,1.05
7601.34,1.27
7677.35,1.49
7754.13,1.70
7831.67,1.90
7909.98,2.07
7989.08,2.23
8068.98,2.36
8149.67,2.47
8231.16,2.57
8313.47,2.64
8396.61,2.70
8480.57,2.73
8565.38,2.76
8651.03,2.77
8737.54,2.76
8824.92,2.73
8913.17,2.67
9002.30,2.58
9092.32,2.47
9183.25,2.36
9275.08,2.22
9367.83,2.06
9461.51,1.89
9556.12,1.70
9651.68,1.50
9748.20,1.30
9845.68,1.11
9944.14,0.92
10043.58,0.76
10144.02,0.59
10245.46,0.45
10347.91,0.33
10451.39,0.25
10555.91,0.18
10661.46,0.15
10768.08,0.14
10875.76,0.16
10984.52,0.20
11094.36,0.26
11205.31,0.33
11317.36,0.40
11430.53,0.48
11544.84,0.57
11660.29,0.64
11776.89,0.71
11894.66,0.76
12013.60,0.80
12133.74,0.83
12255.08,0.85
12377.63,0.83
12501.41,0.79
12626.42,0.72
12752.68,0.64
12880.21,0.53
13009.01,0.35
13139.10,0.12
13270.49,-0.18
13403.20,-0.55
13537.23,-1.00
13672.60,-1.53
13809.33,-2.14
13947.42,-2.82
14086.90,-3.54
14227.77,-4.29
14370.04,-5.05
14513.74,-5.79
14658.88,-6.48
14805.47,-7.15
14953.52,-7.74
15103.06,-8.28
15254.09,-8.75
15406.63,-9.14
15560.70,-9.46
15716.30,-9.76
15873.47,-10.04
16032.20,-10.29
16192.52,-10.54
16354.45,-10.82
16517.99,-11.15
16683.17,-11.53
16850.01,-11.95
17018.51,-12.42
17188.69,-12.91
17360.58,-13.42
17534.18,-13.93
17709.53,-14.47
17886.62,-15.01
18065.49,-15.55
18246.14,-16.05
18428.60,-16.54
18612.89,-17.02
18799.02,-17.49
18987.01,-17.97
19176.88,-18.43
19368.65,-18.89
19562.33,-19.34
19757.96,-19.79
19955.54,-20.23
