frequency,raw
20.00,-10.25
20.20,-10.24
20.40,-10.22
20.61,-10.19
20.81,-10.16
21.02,-10.12
21.23,-10.08
21.44,-10.04
21.66,-9.99
21.87,-9.94
22.09,-9.88
22.31,-9.82
22.54,-9.76
22.76,-9.68
22.99,-9.60
23.22,-9.53
23.45,-9.45
23.69,-9.35
23.92,-9.26
24.16,-9.15
24.40,-9.04
24.65,-8.92
24.89,-8.82
25.14,-8.72
25.39,-8.61
25.65,-8.51
25.91,-8.40
26.16,-8.29
26.43,-8.20
26.69,-8.10
26.96,-8.00
27.23,-7.90
27.50,-7.81
27.77,-7.72
28.05,-7.63
28.33,-7.54
28.62,-7.44
28.90,-7.35
29.19,-7.25
29.48,-7.15
29.78,-7.05
30.08,-6.96
30.38,-6.85
30.68,-6.75
30.99,-6.65
31.30,-6.54
31.61,-6.43
31.93,-6.32
32.24,-6.20
32.57,-6.09
32.89,-5.99
33.22,-5.89
33.55,-5.79
33.89,-5.70
34.23,-5.62
34.57,-5.53
34.92,-5.47
35.27,-5.41
35.62,-5.34
35.97,-5.28
36.33,-5.22
36.70,-5.16
37.06,-5.11
37.43,-5.06
37.81,-5.01
38.19,-4.97
38.57,-4.92
38.95,-4.86
39.34,-4.82
39.74,-4.77
40.14,-4.72
40.54,-4.67
40.94,-4.63
41.35,-4.58
41.76,-4.52
42.18,-4.46
42.60,-4.40
43.03,-4.35
43.46,-4.29
43.90,-4.22
44.33,-4.13
44.78,-4.06
45.23,-3.99
45.68,-3.91
46.13,-3.83
46.60,-3.76
47.06,-3.69
47.53,-3.61
48.01,-3.53
48.49,-3.46
48.97,-3.39
49.46,-3.31
49.96,-3.22
50.46,-3.14
50.96,-3.07
51.47,-3.00
51.99,-2.91
52.51,-2.83
53.03,-2.76
53.56,-2.69
54.10,-2.61
54.64,-2.53
55.18,-2.46
55.74,-2.39
56.29,-2.31
56.86,-2.24
57.42,-2.18
58.00,-2.13
58.58,-2.08
59.16,-2.02
59.76,-1.96
60.35,-1.91
60.96,-1.85
61.57,-1.79
62.18,-1.74
62.80,-1.69
63.43,-1.66
64.07,-1.62
64.71,-1.58
65.35,-1.55
66.01,-1.53
66.67,-1.51
67.33,-1.49
68.01,-1.48
68.69,-1.46
69.37,-1.45
70.07,-1.45
70.77,-1.46
71.48,-1.47
72.19,-1.47
72.91,-1.47
73.64,-1.48
74.38,-1.49
75.12,-1.49
75.87,-1.50
76.63,-1.50
77.40,-1.49
78.17,-1.47
78.95,-1.45
79.74,-1.43
80.54,-1.39
81.35,-1.36
82.16,-1.32
82.98,-1.28
83.81,-1.26
84.65,-1.24
85.50,-1.23
86.35,-1.22
87.22,-1.23
88.09,-1.23
88.97,-1.25
89.86,-1.27
90.76,-1.30
91.66,-1.34
92.58,-1.38
93.51,-1.41
94.44,-1.44
95.39,-1.46
96.34,-1.48
97.30,-1.49
98.28,-1.50
99.26,-1.50
100.25,-1.49
101.25,-1.48
102.27,-1.47
103.29,-1.47
104.32,-1.47
105.37,-1.47
106.42,-1.47
107.48,-1.47
108.56,-1.47
109.64,-1.47
110.74,-1.47
111.85,-1.47
112.97,-1.47
114.10,-1.47
115.24,-1.47
116.39,-1.47
117.55,-1.47
118.73,-1.47
119.92,-1.47
121.12,-1.47
122.33,-1.47
123.55,-1.47
124.79,-1.46
126.03,-1.45
127.29,-1.45
128.57,-1.45
129.85,-1.46
131.15,-1.48
132.46,-1.50
133.79,-1.52
135.12,-1.55
136.48,-1.58
137.84,-1.61
139.22,-1.64
140.61,-1.67
142.02,-1.70
143.44,-1.73
144.87,-1.76
146.32,-1.78
147.78,-1.80
149.26,-1.81
150.75,-1.82
152.26,-1.82
153.78,-1.82
155.32,-1.81
156.88,-1.80
158.44,-1.80
160.03,-1.80
161.63,-1.80
163.24,-1.80
164.88,-1.80
166.53,-1.80
168.19,-1.80
169.87,-1.80
171.57,-1.80
173.29,-1.80
175.02,-1.80
176.77,-1.80
178.54,-1.80
180.32,-1.80
182.13,-1.80
183.95,-1.80
185.79,-1.80
187.65,-1.80
189.52,-1.80
191.42,-1.80
193.33,-1.80
195.27,-1.80
197.22,-1.80
199.19,-1.79
201.18,-1.78
203.19,-1.78
205.23,-1.78
207.28,-1.78
209.35,-1.79
211.44,-1.81
213.56,-1.83
215.69,-1.86
217.85,-1.88
220.03,-1.91
222.23,-1.95
224.45,-1.98
226.70,-2.01
228.96,-2.04
231.25,-2.07
233.57,-2.09
235.90,-2.11
238.26,-2.13
240.64,-2.14
243.05,-2.15
245.48,-2.15
247.93,-2.14
250.41,-2.13
252.92,-2.12
255.45,-2.12
258.00,-2.12
260.58,-2.12
263.19,-2.12
265.82,-2.12
268.48,-2.12
271.16,-2.12
273.87,-2.12
276.61,-2.12
279.38,-2.12
282.17,-2.12
284.99,-2.12
287.84,-2.12
290.72,-2.12
293.63,-2.12
296.57,-2.12
299.53,-2.12
302.53,-2.12
305.55,-2.13
308.61,-2.13
311.69,-2.14
314.81,-2.14
317.96,-2.14
321.14,-2.14
324.35,-2.13
327.59,-2.11
330.87,-2.09
334.18,-2.06
337.52,-2.04
340.90,-2.01
344.30,-1.98
347.75,-1.95
351.23,-1.91
354.74,-1.89
358.28,-1.86
361.87,-1.85
365.49,-1.83
369.14,-1.82
372.83,-1.80
376.56,-1.79
380.33,-1.77
384.13,-1.76
387.97,-1.74
391.85,-1.72
395.77,-1.69
399.73,-1.66
403.72,-1.63
407.76,-1.59
411.84,-1.56
415.96,-1.54
420.12,-1.51
424.32,-1.49
428.56,-1.47
432.85,-1.46
437.18,-1.47
441.55,-1.47
445.96,-1.48
450.42,-1.49
454.93,-1.48
459.48,-1.46
464.07,-1.44
468.71,-1.42
473.40,-1.40
478.13,-1.38
482.91,-1.35
487.74,-1.32
492.62,-1.28
497.55,-1.23
502.52,-1.19
507.55,-1.14
512.62,-1.09
517.75,-1.05
522.93,-1.00
528.16,-0.97
533.44,-0.94
538.77,-0.92
544.16,-0.89
549.60,-0.87
555.10,-0.85
560.65,-0.83
566.25,-0.81
571.92,-0.78
577.64,-0.78
583.41,-0.78
589.25,-0.79
595.14,-0.80
601.09,-0.82
607.10,-0.84
613.17,-0.86
619.30,-0.91
625.50,-0.96
631.75,-1.01
638.07,-1.08
644.45,-1.16
650.89,-1.26
657.40,-1.36
663.98,-1.46
670.62,-1.56
677.32,-1.67
684.10,-1.76
690.94,-1.85
697.85,-1.92
704.83,-1.99
711.87,-2.05
718.99,-2.10
726.18,-2.14
733.44,-2.17
740.78,-2.19
748.19,-2.17
755.67,-2.15
763.23,-2.10
770.86,-2.04
778.57,-1.96
786.35,-1.86
794.22,-1.77
802.16,-1.66
810.18,-1.55
818.28,-1.43
826.46,-1.31
834.73,-1.17
843.08,-1.04
851.51,-0.91
860.02,-0.79
868.62,-0.69
877.31,-0.60
886.08,-0.52
894.94,-0.44
903.89,-0.36
912.93,-0.29
922.06,-0.22
931.28,-0.15
940.59,-0.11
950.00,-0.06
959.50,-0.03
969.09,-0.00
978.78,0.01
988.57,0.01
998.46,0.00
1008.44,-0.02
1018.53,-0.06
1028.71,-0.09
1039.00,-0.14
1049.39,-0.20
1059.88,-0.27
1070.48,-0.35
1081.19,-0.44
1092.00,-0.54
1102.92,-0.64
1113.95,-0.73
1125.09,-0.83
1136.34,-0.96
1147.70,-1.08
1159.18,-1.21
1170.77,-1.35
1182.48,-1.48
1194.30,-1.61
1206.25,-1.75
1218.31,-1.90
1230.49,-2.05
1242.80,-2.20
1255.22,-2.36
1267.78,-2.54
1280.45,-2.72
1293.26,-2.92
1306.19,-3.12
1319.25,-3.33
1332.45,-3.56
1345.77,-3.81
1359.23,-4.07
1372.82,-4.33
1386.55,-4.61
1400.41,-4.90
1414.42,-5.20
1428.56,-5.49
1442.85,-5.80
1457.28,-6.12
1471.85,-6.45
1486.57,-6.78
1501.43,-7.11
1516.45,-7.43
1531.61,-7.73
1546.93,-8.01
1562.40,-8.27
1578.02,-8.50
1593.80,-8.71
1609.74,-8.89
1625.84,-9.03
1642.10,-9.15
1658.52,-9.25
1675.10,-9.32
1691.85,-9.36
1708.77,-9.38
1725.86,-9.38
1743.12,-9.35
1760.55,-9.32
1778.15,-9.28
1795.94,-9.24
1813.90,-9.19
1832.03,-9.14
1850.36,-9.06
1868.86,-8.98
1887.55,-8.88
1906.42,-8.77
1925.49,-8.66
1944.74,-8.55
1964.19,-8.44
1983.83,-8.34
2003.67,-8.24
2023.71,-8.15
2043.94,-8.08
2064.38,-8.03
2085.03,-7.99
2105.88,-7.95
2126.94,-7.93
2148.20,-7.93
2169.69,-7.92
2191.38,-7.93
2213.30,-7.95
2235.43,-7.97
2257.78,-8.00
2280.36,-8.01
2303.17,-8.00
2326.20,-8.00
2349.46,-7.99
2372.95,-7.97
2396.68,-7.94
2420.65,-7.89
2444.86,-7.83
2469.31,-7.75
2494.00,-7.64
2518.94,-7.51
2544.13,-7.35
2569.57,-7.16
2595.27,-6.96
2621.22,-6.74
2647.43,-6.50
2673.90,-6.25
2700.64,-5.99
2727.65,-5.73
2754.93,-5.47
2782.48,-5.23
2810.30,-4.98
2838.40,-4.73
2866.79,-4.48
2895.46,-4.26
2924.41,-4.05
2953.65,-3.85
2983.19,-3.67
3013.02,-3.49
3043.15,-3.32
3073.58,-3.17
3104.32,-3.03
3135.36,-2.91
3166.72,-2.79
3198.38,-2.69
3230.37,-2.61
3262.67,-2.54
3295.30,-2.49
3328.25,-2.45
3361.53,-2.44
3395.15,-2.44
3429.10,-2.45
3463.39,-2.48
3498.03,-2.50
3533.01,-2.53
3568.34,-2.58
3604.02,-2.63
3640.06,-2.68
3676.46,-2.74
3713.22,-2.79
3750.36,-2.84
3787.86,-2.89
3825.74,-2.94
3864.00,-2.98
3902.64,-3.00
3941.66,-3.01
3981.08,-3.03
4020.89,-3.04
4061.10,-3.06
4101.71,-3.09
4142.73,-3.11
4184.15,-3.15
4226.00,-3.18
4268.26,-3.22
4310.94,-3.26
4354.05,-3.32
4397.59,-3.40
4441.56,-3.49
4485.98,-3.60
4530.84,-3.72
4576.15,-3.85
4621.91,-4.01
4668.13,-4.17
4714.81,-4.33
4761.96,-4.51
4809.58,-4.70
4857.67,-4.89
4906.25,-5.10
4955.31,-5.30
5004.87,-5.49
5054.91,-5.68
5105.46,-5.83
5156.52,-5.95
5208.08,-6.05
5260.16,-6.11
5312.77,-6.13
5365.89,-6.12
5419.55,-6.07
5473.75,-5.99
5528.49,-5.89
5583.77,-5.77
5639.61,-5.62
5696.00,-5.46
5752.96,-5.29
5810.49,-5.10
5868.60,-4.90
5927.28,-4.70
5986.56,-4.47
6046.42,-4.24
6106.89,-4.00
6167.96,-3.75
6229.64,-3.49
6291.93,-3.23
6354.85,-2.94
6418.40,-2.67
6482.58,-2.42
6547.41,-2.19
6612.88,-2.00
6679.01,-1.84
6745.80,-1.72
6813.26,-1.66
6881.39,-1.64
6950.21,-1.65
7019.71,-1.70
7089.91,-1.78
7160.81,-1.89
7232.41,-2.03
7304.74,-2.19
7377.79,-2.37
7451.56,-2.59
7526.08,-2.84
7601.34,-3.15
7677.35,-3.49
7754.13,-3.89
7831.67,-4.33
7909.98,-4.81
7989.08,-5.31
8068.98,-5.84
8149.67,-6.36
8231.16,-6.84
8313.47,-7.26
8396.61,-7.61
8480.57,-7.85
8565.38,-7.99
8651.03,-8.03
8737.54,-7.96
8824.92,-7.80
8913.17,-7.55
9002.30,-7.22
9092.32,-6.83
9183.25,-6.39
9275.08,-5.93
9367.83,-5.45
9461.51,-4.98
9556.12,-4.53
9651.68,-4.08
9748.20,-3.66
9845.68,-3.26
9944.14,-2.86
10043.58,-2.46
10144.02,-2.08
10245.46,-1.69
10347.91,-1.30
10451.39,-0.90
10555.91,-0.50
10661.46,-0.10
10768.08,0.31
10875.76,0.73
10984.52,1.16
11094.36,1.61
11205.31,2.06
11317.36,2.54
11430.53,3.03
11544.84,3.54
11660.29,4.06
11776.89,4.59
11894.66,5.12
12013.60,5.64
12133.74,6.14
12255.08,6.61
12377.63,7.05
12501.41,7.44
12626.42,7.76
12752.68,8.03
12880.21,8.26
13009.01,8.43
13139.10,8.55
13270.49,8.62
13403.20,8.66
13537.23,8.66
13672.60,8.62
13809.33,8.55
13947.42,8.45
14086.90,8.32
14227.77,8.15
14370.04,7.93
14513.74,7.66
14658.88,7.33
14805.47,6.95
14953.52,6.51
15103.06,6.02
15254.09,5.46
15406.63,4.86
15560.70,4.22
15716.30,3.55
15873.47,2.87
16032.20,2.18
16192.52,1.53
16354.45,0.91
16517.99,0.33
16683.17,-0.19
16850.01,-0.66
17018.51,-1.08
17188.69,-1.43
17360.58,-1.74
17534.18,-2.01
17709.53,-2.24
17886.62,-2.45
18065.49,-2.70
18246.14,-2.94
18428.60,-3.17
18612.89,-3.37
18799.02,-3.56
18987.01,-3.73
19176.88,-3.88
19368.65,-4.01
19562.33,-4.12
19757.96,-4.22
19955.54,-4.30
