frequency,raw,error,smoothed,error_smoothed,equalization,parametric_eq,fixed_band_eq,equalized_raw,equalized_smoothed,target
20.00,9.67,3.30,9.67,3.30,-3.30,-3.19,-1.40,6.37,6.37,6.37
20.20,9.69,3.31,9.69,3.31,-3.31,-3.19,-1.44,6.38,6.38,6.38
20.40,9.70,3.31,9.71,3.32,-3.32,-3.19,-1.49,6.38,6.39,6.39
20.61,9.72,3.32,9.72,3.33,-3.33,-3.19,-1.53,6.39,6.40,6.40
20.81,9.74,3.34,9.74,3.33,-3.33,-3.20,-1.57,6.40,6.41,6.40
21.02,9.75,3.34,9.76,3.34,-3.34,-3.20,-1.62,6.41,6.41,6.41
21.23,9.77,3.35,9.77,3.35,-3.35,-3.20,-1.67,6.42,6.42,6.42
21.44,9.79,3.35,9.78,3.35,-3.35,-3.20,-1.72,6.43,6.43,6.44
21.66,9.80,3.36,9.79,3.36,-3.36,-3.21,-1.77,6.44,6.44,6.44
21.87,9.82,3.37,9.80,3.36,-3.36,-3.21,-1.82,6.46,6.44,6.45
22.09,9.83,3.38,9.81,3.37,-3.37,-3.21,-1.87,6.46,6.45,6.45
22.31,9.83,3.37,9.82,3.37,-3.37,-3.21,-1.93,6.46,6.45,6.46
22.54,9.83,3.37,9.83,3.37,-3.37,-3.22,-1.98,6.46,6.46,6.46
22.76,9.83,3.36,9.83,3.37,-3.37,-3.22,-2.04,6.46,6.46,6.47
22.99,9.83,3.36,9.83,3.37,-3.37,-3.22,-2.10,6.46,6.47,6.47
23.22,9.83,3.36,9.83,3.36,-3.36,-3.22,-2.16,6.47,6.47,6.46
23.45,9.83,3.36,9.83,3.36,-3.36,-3.23,-2.22,6.47,6.47,6.47
23.69,9.83,3.36,9.83,3.36,-3.36,-3.23,-2.28,6.47,6.48,6.47
23.92,9.83,3.36,9.83,3.35,-3.35,-3.23,-2.35,6.48,6.48,6.47
24.16,9.83,3.35,9.83,3.35,-3.35,-3.23,-2.41,6.48,6.48,6.48
24.40,9.83,3.34,9.83,3.35,-3.35,-3.24,-2.48,6.48,6.48,6.49
24.65,9.83,3.34,9.83,3.34,-3.34,-3.24,-2.55,6.49,6.49,6.49
24.89,9.83,3.34,9.83,3.34,-3.34,-3.24,-2.61,6.49,6.49,6.49
25.14,9.83,3.34,9.83,3.34,-3.34,-3.25,-2.68,6.49,6.49,6.49
25.39,9.83,3.34,9.83,3.34,-3.34,-3.25,-2.75,6.49,6.49,6.49
25.65,9.83,3.34,9.83,3.34,-3.34,-3.25,-2.82,6.49,6.49,6.49
25.91,9.83,3.34,9.83,3.34,-3.34,-3.25,-2.89,6.49,6.49,6.49
26.16,9.83,3.33,9.83,3.34,-3.34,-3.26,-2.96,6.49,6.49,6.50
26.43,9.83,3.33,9.83,3.34,-3.34,-3.26,-3.03,6.49,6.49,6.49
26.69,9.83,3.34,9.83,3.34,-3.34,-3.26,-3.10,6.49,6.49,6.49
26.96,9.83,3.34,9.83,3.33,-3.33,-3.26,-3.17,6.49,6.49,6.49
27.23,9.83,3.34,9.83,3.33,-3.33,-3.27,-3.24,6.50,6.49,6.49
27.50,9.82,3.33,9.82,3.33,-3.33,-3.27,-3.30,6.49,6.50,6.49
27.77,9.82,3.32,9.82,3.32,-3.32,-3.27,-3.37,6.50,6.50,6.50
28.05,9.82,3.32,9.81,3.31,-3.31,-3.27,-3.43,6.51,6.50,6.50
28.33,9.81,3.31,9.80,3.30,-3.30,-3.28,-3.49,6.51,6.50,6.50
28.62,9.80,3.30,9.79,3.29,-3.29,-3.28,-3.54,6.51,6.50,6.50
28.90,9.79,3.28,9.79,3.29,-3.29,-3.28,-3.60,6.50,6.50,6.50
29.19,9.78,3.28,9.78,3.28,-3.28,-3.29,-3.65,6.50,6.50,6.50
29.48,9.77,3.27,9.77,3.27,-3.27,-3.29,-3.69,6.50,6.50,6.50
29.78,9.75,3.25,9.76,3.26,-3.26,-3.29,-3.74,6.49,6.50,6.50
30.08,9.74,3.23,9.75,3.25,-3.25,-3.29,-3.78,6.49,6.50,6.51
30.38,9.73,3.23,9.74,3.24,-3.24,-3.30,-3.81,6.49,6.50,6.50
30.68,9.73,3.23,9.73,3.23,-3.23,-3.30,-3.84,6.50,6.50,6.49
30.99,9.72,3.23,9.72,3.23,-3.23,-3.30,-3.86,6.49,6.49,6.49
31.30,9.71,3.22,9.72,3.23,-3.23,-3.31,-3.88,6.48,6.49,6.49
31.61,9.71,3.22,9.71,3.22,-3.22,-3.31,-3.90,6.49,6.49,6.49
31.93,9.70,3.22,9.71,3.22,-3.22,-3.31,-3.91,6.48,6.49,6.48
32.24,9.70,3.21,9.70,3.22,-3.22,-3.32,-3.91,6.48,6.48,6.48
32.57,9.70,3.23,9.70,3.22,-3.22,-3.32,-3.91,6.48,6.48,6.47
32.89,9.70,3.23,9.70,3.22,-3.22,-3.32,-3.91,6.48,6.47,6.47
33.22,9.70,3.23,9.69,3.22,-3.22,-3.32,-3.90,6.47,6.47,6.47
33.55,9.70,3.23,9.69,3.23,-3.23,-3.33,-3.89,6.47,6.46,6.47
33.89,9.70,3.24,9.69,3.23,-3.23,-3.33,-3.88,6.47,6.46,6.46
34.23,9.69,3.24,9.68,3.23,-3.23,-3.33,-3.86,6.46,6.45,6.45
34.57,9.68,3.23,9.68,3.23,-3.23,-3.34,-3.84,6.45,6.45,6.45
34.92,9.66,3.22,9.67,3.23,-3.23,-3.34,-3.81,6.43,6.44,6.43
35.27,9.66,3.22,9.67,3.24,-3.24,-3.34,-3.79,6.42,6.43,6.44
35.62,9.66,3.24,9.66,3.24,-3.24,-3.35,-3.76,6.42,6.42,6.42
35.97,9.66,3.24,9.66,3.24,-3.24,-3.35,-3.73,6.42,6.41,6.42
36.33,9.65,3.25,9.65,3.25,-3.25,-3.36,-3.70,6.40,6.40,6.40
36.70,9.64,3.25,9.64,3.25,-3.25,-3.36,-3.67,6.39,6.39,6.39
37.06,9.63,3.25,9.63,3.25,-3.25,-3.36,-3.64,6.38,6.38,6.37
37.43,9.62,3.26,9.62,3.26,-3.26,-3.37,-3.61,6.36,6.36,6.36
37.81,9.61,3.26,9.61,3.26,-3.26,-3.37,-3.58,6.35,6.35,6.35
38.19,9.61,3.28,9.60,3.27,-3.27,-3.37,-3.55,6.34,6.33,6.33
38.57,9.60,3.28,9.59,3.28,-3.28,-3.38,-3.53,6.32,6.32,6.32
38.95,9.59,3.29,9.58,3.28,-3.28,-3.38,-3.50,6.31,6.30,6.30
39.34,9.57,3.29,9.57,3.29,-3.29,-3.39,-3.47,6.28,6.28,6.28
39.74,9.55,3.28,9.56,3.29,-3.29,-3.39,-3.45,6.26,6.27,6.26
40.14,9.54,3.29,9.55,3.30,-3.30,-3.39,-3.43,6.24,6.25,6.25
40.54,9.53,3.29,9.53,3.30,-3.30,-3.40,-3.41,6.23,6.23,6.23
40.94,9.53,3.32,9.52,3.31,-3.31,-3.40,-3.39,6.22,6.21,6.21
41.35,9.51,3.32,9.50,3.31,-3.31,-3.41,-3.37,6.20,6.19,6.19
41.76,9.49,3.32,9.49,3.32,-3.32,-3.41,-3.36,6.17,6.17,6.17
42.18,9.47,3.32,9.47,3.32,-3.32,-3.42,-3.35,6.14,6.15,6.15
42.60,9.46,3.33,9.45,3.33,-3.33,-3.42,-3.34,6.13,6.12,6.12
43.03,9.44,3.34,9.44,3.34,-3.34,-3.43,-3.33,6.10,6.10,6.10
43.46,9.42,3.35,9.42,3.34,-3.34,-3.43,-3.33,6.08,6.07,6.07
43.90,9.40,3.35,9.40,3.35,-3.35,-3.44,-3.32,6.05,6.05,6.04
44.33,9.38,3.36,9.38,3.36,-3.36,-3.44,-3.32,6.02,6.02,6.02
44.78,9.36,3.37,9.36,3.37,-3.37,-3.44,-3.33,5.99,5.99,5.99
45.23,9.34,3.37,9.34,3.38,-3.38,-3.45,-3.33,5.96,5.96,5.97
45.68,9.32,3.39,9.32,3.39,-3.39,-3.45,-3.34,5.93,5.93,5.93
46.13,9.30,3.40,9.30,3.40,-3.40,-3.46,-3.35,5.90,5.90,5.89
46.60,9.29,3.42,9.29,3.42,-3.42,-3.46,-3.37,5.87,5.87,5.87
47.06,9.27,3.43,9.27,3.44,-3.44,-3.47,-3.38,5.83,5.83,5.84
47.53,9.24,3.43,9.26,3.46,-3.46,-3.48,-3.40,5.78,5.80,5.81
48.01,9.22,3.46,9.24,3.48,-3.48,-3.48,-3.42,5.74,5.76,5.76
48.49,9.22,3.49,9.23,3.51,-3.51,-3.49,-3.44,5.71,5.73,5.73
48.97,9.22,3.53,9.22,3.53,-3.53,-3.49,-3.47,5.69,5.69,5.69
49.46,9.21,3.55,9.21,3.56,-3.56,-3.50,-3.50,5.65,5.65,5.66
49.96,9.20,3.59,9.20,3.58,-3.58,-3.50,-3.53,5.62,5.62,5.60
50.46,9.19,3.62,9.18,3.60,-3.60,-3.51,-3.56,5.59,5.58,5.57
50.96,9.18,3.64,9.17,3.63,-3.63,-3.51,-3.59,5.55,5.54,5.54
51.47,9.17,3.66,9.15,3.65,-3.65,-3.52,-3.62,5.52,5.51,5.51
51.99,9.15,3.68,9.13,3.66,-3.66,-3.53,-3.65,5.48,5.47,5.47
52.51,9.12,3.69,9.11,3.68,-3.68,-3.53,-3.69,5.44,5.43,5.43
53.03,9.09,3.68,9.09,3.70,-3.70,-3.54,-3.72,5.39,5.39,5.41
53.56,9.06,3.70,9.06,3.70,-3.70,-3.54,-3.76,5.35,5.35,5.36
54.10,9.03,3.71,9.03,3.71,-3.71,-3.55,-3.79,5.32,5.32,5.32
54.64,9.00,3.72,9.00,3.71,-3.71,-3.56,-3.83,5.29,5.28,5.28
55.18,8.96,3.72,8.96,3.72,-3.72,-3.56,-3.86,5.24,5.25,5.24
55.74,8.93,3.73,8.93,3.72,-3.72,-3.57,-3.90,5.21,5.22,5.20
56.29,8.90,3.73,8.90,3.72,-3.72,-3.57,-3.93,5.18,5.18,5.17
56.86,8.86,3.72,8.87,3.72,-3.72,-3.58,-3.96,5.14,5.15,5.14
57.42,8.82,3.72,8.83,3.72,-3.72,-3.59,-3.99,5.10,5.11,5.10
58.00,8.79,3.72,8.80,3.73,-3.73,-3.59,-4.02,5.06,5.07,5.07
58.58,8.77,3.72,8.77,3.74,-3.74,-3.60,-4.04,5.03,5.04,5.05
59.16,8.74,3.72,8.74,3.75,-3.75,-3.61,-4.06,4.99,5.00,5.02
59.76,8.71,3.72,8.72,3.76,-3.76,-3.61,-4.08,4.95,4.96,4.99
60.35,8.69,3.75,8.69,3.77,-3.77,-3.62,-4.10,4.92,4.92,4.93
60.96,8.66,3.77,8.66,3.78,-3.78,-3.63,-4.11,4.88,4.88,4.89
61.57,8.64,3.80,8.63,3.79,-3.79,-3.63,-4.12,4.85,4.84,4.84
62.18,8.61,3.82,8.60,3.80,-3.80,-3.64,-4.12,4.80,4.80,4.79
62.80,8.58,3.84,8.57,3.82,-3.82,-3.65,-4.12,4.76,4.76,4.74
63.43,8.55,3.85,8.54,3.83,-3.83,-3.65,-4.12,4.72,4.71,4.70
64.07,8.53,3.87,8.51,3.84,-3.84,-3.66,-4.12,4.69,4.67,4.66
64.71,8.49,3.87,8.48,3.85,-3.85,-3.67,-4.11,4.64,4.63,4.62
65.35,8.45,3.86,8.45,3.86,-3.86,-3.67,-4.09,4.59,4.59,4.59
66.01,8.41,3.86,8.42,3.87,-3.87,-3.68,-4.08,4.54,4.55,4.55
66.67,8.38,3.86,8.38,3.88,-3.88,-3.69,-4.06,4.50,4.51,4.52
67.33,8.34,3.87,8.35,3.88,-3.88,-3.70,-4.04,4.46,4.47,4.47
68.01,8.31,3.88,8.32,3.89,-3.89,-3.70,-4.02,4.42,4.43,4.43
68.69,8.28,3.89,8.28,3.90,-3.90,-3.71,-3.99,4.38,4.39,4.39
69.37,8.25,3.89,8.25,3.91,-3.91,-3.72,-3.96,4.34,4.35,4.36
70.07,8.23,3.92,8.22,3.92,-3.92,-3.72,-3.93,4.31,4.31,4.31
70.77,8.19,3.92,8.19,3.93,-3.93,-3.73,-3.90,4.26,4.26,4.27
71.48,8.16,3.93,8.16,3.94,-3.94,-3.74,-3.87,4.22,4.22,4.22
72.19,8.13,3.95,8.13,3.95,-3.95,-3.74,-3.84,4.18,4.18,4.18
72.91,8.10,3.97,8.10,3.96,-3.96,-3.75,-3.81,4.14,4.14,4.13
73.64,8.07,3.98,8.07,3.97,-3.97,-3.76,-3.78,4.10,4.10,4.09
74.38,8.03,3.98,8.04,3.98,-3.98,-3.76,-3.75,4.05,4.06,4.05
75.12,8.01,4.00,8.01,3.99,-3.99,-3.77,-3.71,4.02,4.02,4.01
75.87,7.99,4.01,7.97,3.99,-3.99,-3.78,-3.68,3.99,3.98,3.98
76.63,7.95,4.01,7.94,4.00,-4.00,-3.78,-3.66,3.95,3.94,3.94
77.40,7.90,3.99,7.91,4.00,-4.00,-3.79,-3.63,3.90,3.91,3.91
78.17,7.87,4.01,7.87,4.00,-4.00,-3.80,-3.60,3.87,3.87,3.86
78.95,7.84,4.00,7.84,4.00,-4.00,-3.80,-3.58,3.84,3.84,3.84
79.74,7.80,3.99,7.80,4.00,-4.00,-3.81,-3.55,3.80,3.80,3.81
80.54,7.76,3.99,7.76,4.00,-4.00,-3.82,-3.53,3.76,3.77,3.77
81.35,7.73,3.99,7.73,3.99,-3.99,-3.82,-3.51,3.74,3.74,3.74
82.16,7.69,3.98,7.69,3.98,-3.98,-3.83,-3.50,3.71,3.70,3.71
82.98,7.64,3.97,7.64,3.98,-3.98,-3.83,-3.48,3.66,3.67,3.67
83.81,7.61,3.98,7.60,3.97,-3.97,-3.84,-3.47,3.64,3.63,3.63
84.65,7.57,3.97,7.56,3.96,-3.96,-3.84,-3.46,3.61,3.60,3.60
85.50,7.53,3.97,7.52,3.95,-3.95,-3.85,-3.46,3.57,3.56,3.56
86.35,7.48,3.95,7.47,3.95,-3.95,-3.86,-3.45,3.53,3.53,3.53
87.22,7.43,3.93,7.43,3.94,-3.94,-3.86,-3.45,3.49,3.49,3.49
88.09,7.39,3.94,7.39,3.93,-3.93,-3.87,-3.45,3.45,3.45,3.45
88.97,7.34,3.92,7.35,3.93,-3.93,-3.87,-3.46,3.41,3.42,3.42
89.86,7.30,3.92,7.31,3.93,-3.93,-3.87,-3.46,3.37,3.38,3.38
90.76,7.26,3.91,7.27,3.93,-3.93,-3.88,-3.47,3.33,3.34,3.34
91.66,7.22,3.92,7.23,3.93,-3.93,-3.88,-3.48,3.29,3.30,3.30
92.58,7.19,3.92,7.20,3.93,-3.93,-3.89,-3.50,3.26,3.26,3.27
93.51,7.16,3.93,7.16,3.94,-3.94,-3.89,-3.52,3.22,3.22,3.23
94.44,7.12,3.92,7.13,3.94,-3.94,-3.89,-3.53,3.18,3.18,3.20
95.39,7.09,3.94,7.10,3.95,-3.95,-3.90,-3.56,3.14,3.14,3.15
96.34,7.07,3.97,7.06,3.96,-3.96,-3.90,-3.58,3.11,3.10,3.10
97.30,7.04,3.97,7.03,3.97,-3.97,-3.90,-3.61,3.07,3.06,3.07
98.28,7.00,3.98,7.00,3.97,-3.97,-3.90,-3.63,3.03,3.03,3.02
99.26,6.97,4.00,6.97,3.98,-3.98,-3.90,-3.66,2.99,2.99,2.97
100.25,6.94,4.00,6.93,3.98,-3.98,-3.91,-3.70,2.96,2.95,2.94
101.25,6.89,3.98,6.89,3.98,-3.98,-3.91,-3.73,2.91,2.91,2.91
102.27,6.86,3.99,6.85,3.98,-3.98,-3.91,-3.76,2.88,2.87,2.87
103.29,6.82,3.99,6.81,3.97,-3.97,-3.91,-3.80,2.85,2.84,2.83
104.32,6.77,3.96,6.76,3.96,-3.96,-3.91,-3.83,2.81,2.80,2.81
105.37,6.72,3.95,6.72,3.95,-3.95,-3.91,-3.87,2.77,2.77,2.77
106.42,6.67,3.93,6.67,3.93,-3.93,-3.91,-3.91,2.73,2.73,2.74
107.48,6.63,3.94,6.62,3.92,-3.92,-3.91,-3.95,2.71,2.70,2.69
108.56,6.57,3.91,6.57,3.91,-3.91,-3.90,-3.98,2.66,2.66,2.66
109.64,6.51,3.88,6.51,3.89,-3.89,-3.90,-4.02,2.62,2.62,2.63
110.74,6.45,3.86,6.46,3.88,-3.88,-3.90,-4.05,2.57,2.59,2.59
111.85,6.40,3.85,6.41,3.86,-3.86,-3.90,-4.08,2.54,2.55,2.55
112.97,6.34,3.82,6.36,3.85,-3.85,-3.89,-4.12,2.49,2.51,2.51
114.10,6.32,3.84,6.31,3.84,-3.84,-3.89,-4.15,2.48,2.47,2.48
115.24,6.26,3.83,6.26,3.83,-3.83,-3.89,-4.17,2.43,2.43,2.43
116.39,6.22,3.83,6.22,3.82,-3.82,-3.88,-4.20,2.40,2.39,2.39
117.55,6.17,3.82,6.17,3.81,-3.81,-3.88,-4.22,2.36,2.36,2.35
118.73,6.13,3.82,6.12,3.80,-3.80,-3.87,-4.23,2.33,2.32,2.31
119.92,6.07,3.80,6.08,3.80,-3.80,-3.87,-4.25,2.27,2.28,2.27
121.12,6.04,3.79,6.03,3.79,-3.79,-3.86,-4.26,2.25,2.24,2.25
122.33,5.99,3.79,5.99,3.79,-3.79,-3.85,-4.26,2.20,2.20,2.20
123.55,5.95,3.78,5.95,3.79,-3.79,-3.85,-4.26,2.16,2.16,2.17
124.79,5.91,3.77,5.91,3.78,-3.78,-3.84,-4.26,2.13,2.13,2.14
126.03,5.86,3.76,5.86,3.77,-3.77,-3.83,-4.25,2.09,2.09,2.10
127.29,5.81,3.75,5.82,3.77,-3.77,-3.82,-4.24,2.04,2.05,2.06
128.57,5.77,3.75,5.78,3.76,-3.76,-3.81,-4.22,2.01,2.01,2.01
129.85,5.73,3.75,5.73,3.75,-3.75,-3.80,-4.20,1.97,1.98,1.97
131.15,5.69,3.75,5.69,3.75,-3.75,-3.79,-4.17,1.94,1.94,1.94
132.46,5.65,3.75,5.64,3.74,-3.74,-3.78,-4.14,1.91,1.90,1.90
133.79,5.61,3.75,5.60,3.73,-3.73,-3.77,-4.11,1.88,1.86,1.86
135.12,5.56,3.74,5.55,3.72,-3.72,-3.75,-4.07,1.84,1.83,1.82
136.48,5.50,3.70,5.50,3.70,-3.70,-3.74,-4.03,1.80,1.79,1.80
137.84,5.44,3.68,5.45,3.69,-3.69,-3.73,-3.99,1.75,1.76,1.76
139.22,5.40,3.68,5.40,3.67,-3.67,-3.72,-3.95,1.73,1.73,1.72
140.61,5.36,3.66,5.34,3.65,-3.65,-3.70,-3.90,1.71,1.70,1.69
142.02,5.30,3.64,5.29,3.63,-3.63,-3.69,-3.85,1.67,1.67,1.66
143.44,5.24,3.61,5.24,3.60,-3.60,-3.67,-3.80,1.64,1.64,1.63
144.87,5.19,3.58,5.19,3.58,-3.58,-3.65,-3.75,1.61,1.61,1.61
146.32,5.12,3.54,5.13,3.56,-3.56,-3.64,-3.70,1.56,1.58,1.58
147.78,5.07,3.52,5.08,3.54,-3.54,-3.62,-3.65,1.53,1.55,1.55
149.26,5.03,3.51,5.03,3.51,-3.51,-3.60,-3.60,1.51,1.52,1.52
150.75,4.98,3.50,4.99,3.50,-3.50,-3.59,-3.54,1.48,1.49,1.48
152.26,4.93,3.46,4.94,3.48,-3.48,-3.57,-3.49,1.45,1.46,1.47
153.78,4.89,3.46,4.89,3.46,-3.46,-3.55,-3.44,1.43,1.43,1.43
155.32,4.84,3.43,4.85,3.45,-3.45,-3.53,-3.39,1.39,1.40,1.41
156.88,4.81,3.44,4.80,3.43,-3.43,-3.51,-3.34,1.38,1.37,1.37
158.44,4.77,3.43,4.76,3.42,-3.42,-3.49,-3.30,1.35,1.34,1.34
160.03,4.73,3.42,4.71,3.41,-3.41,-3.47,-3.25,1.32,1.31,1.31
161.63,4.68,3.40,4.67,3.40,-3.40,-3.45,-3.21,1.28,1.27,1.28
163.24,4.63,3.39,4.63,3.39,-3.39,-3.42,-3.17,1.24,1.24,1.23
164.88,4.59,3.38,4.58,3.38,-3.38,-3.40,-3.13,1.21,1.20,1.20
166.53,4.54,3.37,4.54,3.37,-3.37,-3.38,-3.09,1.17,1.17,1.17
168.19,4.49,3.35,4.49,3.36,-3.36,-3.36,-3.05,1.13,1.13,1.14
169.87,4.44,3.34,4.45,3.35,-3.35,-3.33,-3.02,1.09,1.10,1.10
171.57,4.39,3.33,4.40,3.34,-3.34,-3.31,-2.98,1.05,1.06,1.06
173.29,4.35,3.32,4.36,3.33,-3.33,-3.28,-2.96,1.02,1.03,1.03
175.02,4.30,3.31,4.31,3.32,-3.32,-3.26,-2.93,0.98,0.99,0.99
176.77,4.26,3.30,4.26,3.31,-3.31,-3.23,-2.90,0.95,0.96,0.96
178.54,4.23,3.31,4.22,3.30,-3.30,-3.21,-2.88,0.93,0.92,0.92
180.32,4.18,3.30,4.17,3.29,-3.29,-3.18,-2.86,0.89,0.88,0.88
182.13,4.13,3.28,4.12,3.28,-3.28,-3.15,-2.84,0.85,0.85,0.85
183.95,4.08,3.26,4.08,3.27,-3.27,-3.13,-2.82,0.81,0.81,0.82
185.79,4.04,3.26,4.03,3.25,-3.25,-3.10,-2.81,0.79,0.78,0.77
187.65,3.98,3.24,3.98,3.24,-3.24,-3.07,-2.80,0.74,0.74,0.74
189.52,3.92,3.22,3.93,3.23,-3.23,-3.04,-2.79,0.69,0.70,0.70
191.42,3.88,3.20,3.88,3.21,-3.21,-3.01,-2.78,0.67,0.67,0.67
193.33,3.84,3.20,3.83,3.19,-3.19,-2.99,-2.77,0.65,0.63,0.64
195.27,3.78,3.18,3.78,3.17,-3.17,-2.96,-2.77,0.60,0.60,0.60
197.22,3.72,3.16,3.72,3.15,-3.15,-2.93,-2.77,0.57,0.57,0.56
199.19,3.66,3.12,3.67,3.13,-3.13,-2.90,-2.76,0.53,0.54,0.53
201.18,3.61,3.11,3.61,3.11,-3.11,-2.87,-2.76,0.50,0.51,0.50
203.19,3.56,3.09,3.56,3.08,-3.08,-2.84,-2.76,0.48,0.48,0.47
205.23,3.50,3.05,3.50,3.06,-3.06,-2.81,-2.77,0.44,0.45,0.45
207.28,3.45,3.03,3.45,3.03,-3.03,-2.78,-2.77,0.42,0.42,0.42
209.35,3.41,3.02,3.40,3.01,-3.01,-2.75,-2.77,0.40,0.39,0.39
211.44,3.34,2.97,3.34,2.98,-2.98,-2.71,-2.78,0.36,0.36,0.36
213.56,3.28,2.94,3.29,2.95,-2.95,-2.68,-2.78,0.33,0.34,0.34
215.69,3.23,2.91,3.23,2.92,-2.92,-2.65,-2.79,0.31,0.31,0.32
217.85,3.17,2.87,3.18,2.89,-2.89,-2.62,-2.79,0.28,0.29,0.30
220.03,3.12,2.85,3.12,2.86,-2.86,-2.59,-2.79,0.26,0.27,0.26
222.23,3.07,2.83,3.07,2.82,-2.82,-2.56,-2.79,0.25,0.25,0.24
224.45,3.01,2.79,3.01,2.79,-2.79,-2.52,-2.80,0.22,0.23,0.22
226.70,2.97,2.77,2.96,2.75,-2.75,-2.49,-2.80,0.22,0.20,0.20
228.96,2.92,2.73,2.90,2.71,-2.71,-2.46,-2.79,0.20,0.19,0.19
231.25,2.85,2.68,2.84,2.68,-2.68,-2.43,-2.79,0.17,0.17,0.17
233.57,2.79,2.64,2.79,2.64,-2.64,-2.39,-2.78,0.15,0.15,0.15
235.90,2.74,2.61,2.73,2.60,-2.60,-2.36,-2.78,0.14,0.13,0.13
238.26,2.67,2.56,2.68,2.56,-2.56,-2.33,-2.77,0.11,0.12,0.11
240.64,2.62,2.50,2.62,2.51,-2.51,-2.29,-2.75,0.10,0.11,0.11
243.05,2.56,2.46,2.57,2.47,-2.47,-2.26,-2.74,0.09,0.09,0.10
245.48,2.49,2.41,2.51,2.43,-2.43,-2.23,-2.72,0.06,0.08,0.08
247.93,2.44,2.38,2.45,2.38,-2.38,-2.19,-2.69,0.06,0.07,0.06
250.41,2.41,2.35,2.40,2.34,-2.34,-2.16,-2.67,0.07,0.06,0.06
252.92,2.35,2.29,2.34,2.29,-2.29,-2.13,-2.64,0.05,0.05,0.06
255.45,2.30,2.26,2.29,2.25,-2.25,-2.09,-2.61,0.05,0.04,0.04
258.00,2.24,2.21,2.24,2.21,-2.21,-2.06,-2.57,0.03,0.03,0.03
260.58,2.19,2.16,2.19,2.16,-2.16,-2.02,-2.53,0.02,0.02,0.03
263.19,2.15,2.13,2.14,2.12,-2.12,-1.99,-2.49,0.03,0.02,0.02
265.82,2.09,2.08,2.09,2.08,-2.08,-1.96,-2.45,0.01,0.01,0.01
268.48,2.04,2.03,2.04,2.03,-2.03,-1.92,-2.40,0.01,0.01,0.01
271.16,1.98,1.98,1.98,1.98,-1.98,-1.89,-2.35,-0.01,0.00,0.00
273.87,1.93,1.93,1.93,1.94,-1.94,-1.85,-2.29,-0.01,-0.00,-0.00
276.61,1.89,1.90,1.88,1.89,-1.89,-1.82,-2.24,-0.00,-0.01,-0.01
279.38,1.84,1.86,1.83,1.84,-1.84,-1.78,-2.18,-0.00,-0.01,-0.02
282.17,1.79,1.81,1.79,1.80,-1.80,-1.75,-2.12,-0.01,-0.01,-0.02
284.99,1.72,1.73,1.74,1.75,-1.75,-1.72,-2.06,-0.03,-0.01,-0.01
287.84,1.69,1.70,1.69,1.70,-1.70,-1.68,-2.00,-0.01,-0.01,-0.01
290.72,1.64,1.66,1.64,1.66,-1.66,-1.65,-1.93,-0.02,-0.01,-0.02
293.63,1.60,1.61,1.60,1.61,-1.61,-1.61,-1.87,-0.01,-0.01,-0.01
296.57,1.56,1.57,1.55,1.57,-1.57,-1.58,-1.80,-0.01,-0.01,-0.01
299.53,1.51,1.52,1.51,1.52,-1.52,-1.54,-1.74,-0.01,-0.01,-0.01
302.53,1.47,1.47,1.47,1.48,-1.48,-1.51,-1.67,-0.01,-0.01,-0.01
305.55,1.43,1.44,1.43,1.44,-1.44,-1.47,-1.60,-0.01,-0.01,-0.01
308.61,1.39,1.39,1.40,1.40,-1.40,-1.44,-1.53,-0.01,-0.01,-0.00
311.69,1.35,1.35,1.36,1.36,-1.36,-1.40,-1.47,-0.01,-0.00,-0.01
314.81,1.30,1.30,1.32,1.32,-1.32,-1.37,-1.40,-0.02,-0.00,0.00
317.96,1.29,1.29,1.29,1.29,-1.29,-1.33,-1.33,0.00,0.00,-0.00
321.14,1.26,1.25,1.25,1.25,-1.25,-1.30,-1.26,0.01,0.00,0.01
324.35,1.23,1.23,1.22,1.21,-1.21,-1.26,-1.19,0.02,0.01,0.00
327.59,1.20,1.18,1.18,1.17,-1.17,-1.22,-1.13,0.03,0.01,0.02
330.87,1.16,1.14,1.14,1.13,-1.13,-1.19,-1.06,0.03,0.02,0.02
334.18,1.11,1.09,1.11,1.09,-1.09,-1.15,-0.99,0.02,0.02,0.02
337.52,1.08,1.06,1.07,1.05,-1.05,-1.12,-0.93,0.03,0.03,0.02
340.90,1.03,1.00,1.04,1.00,-1.00,-1.08,-0.86,0.03,0.03,0.03
344.30,0.99,0.95,1.00,0.96,-0.96,-1.04,-0.80,0.03,0.04,0.04
347.75,0.96,0.91,0.96,0.92,-0.92,-1.01,-0.73,0.04,0.04,0.05
351.23,0.92,0.87,0.93,0.88,-0.88,-0.97,-0.67,0.04,0.05,0.04
354.74,0.88,0.82,0.89,0.83,-0.83,-0.93,-0.60,0.05,0.06,0.06
358.28,0.85,0.79,0.85,0.78,-0.78,-0.90,-0.54,0.06,0.06,0.06
361.87,0.80,0.73,0.81,0.74,-0.74,-0.86,-0.47,0.06,0.07,0.07
365.49,0.77,0.69,0.77,0.69,-0.69,-0.82,-0.41,0.08,0.08,0.08
369.14,0.74,0.65,0.73,0.64,-0.64,-0.78,-0.35,0.09,0.08,0.09
372.83,0.69,0.59,0.69,0.60,-0.60,-0.74,-0.29,0.09,0.09,0.09
376.56,0.66,0.57,0.64,0.55,-0.55,-0.71,-0.23,0.11,0.10,0.09
380.33,0.62,0.52,0.60,0.50,-0.50,-0.67,-0.17,0.12,0.10,0.10
384.13,0.56,0.45,0.56,0.45,-0.45,-0.63,-0.10,0.11,0.11,0.11
387.97,0.51,0.39,0.51,0.39,-0.39,-0.59,-0.04,0.11,0.12,0.12
391.85,0.46,0.33,0.47,0.34,-0.34,-0.55,0.02,0.12,0.12,0.13
395.77,0.42,0.29,0.42,0.29,-0.29,-0.51,0.07,0.13,0.13,0.13
399.73,0.37,0.23,0.38,0.24,-0.24,-0.47,0.13,0.13,0.14,0.13
403.72,0.33,0.18,0.33,0.19,-0.19,-0.43,0.19,0.14,0.15,0.15
407.76,0.28,0.13,0.29,0.14,-0.14,-0.38,0.25,0.14,0.15,0.15
411.84,0.24,0.08,0.25,0.09,-0.09,-0.34,0.30,0.15,0.16,0.16
415.96,0.20,0.03,0.20,0.04,-0.04,-0.30,0.36,0.16,0.17,0.17
420.12,0.16,-0.01,0.16,-0.01,0.01,-0.26,0.41,0.17,0.18,0.17
424.32,0.13,-0.05,0.12,-0.06,0.06,-0.21,0.47,0.19,0.18,0.18
428.56,0.09,-0.11,0.09,-0.10,0.10,-0.17,0.52,0.19,0.19,0.20
432.85,0.05,-0.16,0.05,-0.15,0.15,-0.12,0.57,0.20,0.20,0.21
437.18,0.02,-0.19,0.01,-0.20,0.20,-0.08,0.62,0.21,0.21,0.21
441.55,-0.01,-0.23,-0.02,-0.24,0.24,-0.03,0.67,0.23,0.22,0.22
445.96,-0.06,-0.29,-0.06,-0.28,0.28,0.01,0.72,0.22,0.23,0.22
450.42,-0.09,-0.32,-0.09,-0.33,0.33,0.06,0.77,0.24,0.24,0.23
454.93,-0.13,-0.37,-0.13,-0.37,0.37,0.11,0.81,0.24,0.25,0.24
459.48,-0.17,-0.42,-0.16,-0.42,0.42,0.16,0.85,0.25,0.26,0.25
464.07,-0.20,-0.47,-0.20,-0.47,0.47,0.21,0.90,0.27,0.27,0.27
468.71,-0.23,-0.51,-0.24,-0.51,0.51,0.26,0.93,0.28,0.28,0.28
473.40,-0.27,-0.56,-0.28,-0.56,0.56,0.31,0.97,0.29,0.29,0.29
478.13,-0.31,-0.61,-0.31,-0.61,0.61,0.36,1.01,0.30,0.30,0.30
482.91,-0.34,-0.65,-0.35,-0.66,0.66,0.42,1.04,0.32,0.31,0.31
487.74,-0.37,-0.69,-0.38,-0.71,0.71,0.47,1.07,0.33,0.32,0.32
492.62,-0.42,-0.75,-0.42,-0.75,0.75,0.52,1.10,0.33,0.33,0.33
497.55,-0.46,-0.80,-0.46,-0.80,0.80,0.58,1.12,0.34,0.34,0.34
502.52,-0.51,-0.86,-0.49,-0.85,0.85,0.63,1.14,0.34,0.35,0.35
507.55,-0.54,-0.91,-0.53,-0.89,0.89,0.69,1.17,0.35,0.37,0.37
512.62,-0.57,-0.95,-0.56,-0.94,0.94,0.75,1.18,0.37,0.38,0.38
517.75,-0.60,-1.00,-0.60,-0.99,0.99,0.81,1.20,0.39,0.39,0.40
522.93,-0.63,-1.04,-0.64,-1.04,1.04,0.87,1.21,0.41,0.40,0.41
528.16,-0.65,-1.07,-0.67,-1.09,1.09,0.93,1.23,0.44,0.42,0.42
533.44,-0.69,-1.12,-0.71,-1.14,1.14,0.99,1.24,0.45,0.43,0.43
538.77,-0.74,-1.18,-0.74,-1.19,1.19,1.05,1.25,0.44,0.44,0.44
