frequency,raw,error,smoothed,error_smoothed,equalization,parametric_eq,equalized_raw,equalized_smoothed,target
20,-11.51,-13.70,-11.52,-13.70,6.00,5.47,-5.51,-5.52,2.19
21,-11.07,-13.22,-11.09,-13.23,6.00,5.65,-5.07,-5.09,2.15
22,-10.68,-12.79,-10.66,-12.77,6.00,5.81,-4.68,-4.66,2.11
23,-10.27,-12.34,-10.25,-12.32,6.00,5.94,-4.27,-4.25,2.07
24,-9.86,-11.89,-9.85,-11.88,6.00,6.06,-3.86,-3.85,2.03
25,-9.46,-11.45,-9.46,-11.45,6.00,6.15,-3.46,-3.46,1.99
26,-9.08,-11.03,-9.07,-11.03,6.00,6.23,-3.08,-3.07,1.95
27,-8.69,-10.61,-8.70,-10.62,6.00,6.28,-2.69,-2.70,1.91
28,-8.34,-10.22,-8.34,-10.22,6.00,6.32,-2.34,-2.34,1.88
29,-8.00,-9.84,-8.00,-9.84,6.00,6.34,-2.00,-2.00,1.84
30,-7.68,-9.48,-7.67,-9.48,6.00,6.34,-1.68,-1.67,1.80
31,-7.32,-9.09,-7.37,-9.13,6.00,6.33,-1.32,-1.37,1.77
32,-7.06,-8.79,-7.08,-8.81,6.00,6.31,-1.06,-1.08,1.73
33,-6.79,-8.49,-6.81,-8.50,6.00,6.27,-0.79,-0.81,1.69
34,-6.55,-8.21,-6.55,-8.21,6.00,6.22,-0.55,-0.55,1.66
35,-6.32,-7.94,-6.30,-7.93,6.00,6.16,-0.32,-0.30,1.62
36,-6.09,-7.68,-6.07,-7.66,6.00,6.09,-0.09,-0.07,1.59
37,-5.84,-7.39,-5.84,-7.39,6.00,6.01,0.16,0.16,1.55
38,-5.63,-7.15,-5.62,-7.14,6.00,5.92,0.37,0.38,1.52
39,-5.42,-6.91,-5.40,-6.89,6.00,5.82,0.58,0.60,1.48
40,-5.17,-6.62,-5.19,-6.65,6.00,5.71,0.83,0.81,1.45
41,-4.98,-6.40,-4.99,-6.41,5.97,5.60,0.98,0.98,1.42
42,-4.77,-6.16,-4.79,-6.17,5.89,5.49,1.12,1.10,1.38
43,-4.62,-5.97,-4.60,-5.95,5.79,5.37,1.17,1.19,1.35
44,-4.42,-5.74,-4.41,-5.73,5.65,5.24,1.23,1.24,1.32
45,-4.22,-5.51,-4.22,-5.51,5.49,5.12,1.27,1.27,1.29
46,-4.04,-5.30,-4.04,-5.30,5.30,4.98,1.26,1.26,1.26
47,-3.86,-5.09,-3.87,-5.10,5.10,4.85,1.24,1.23,1.23
48,-3.69,-4.89,-3.70,-4.90,4.90,4.71,1.21,1.20,1.20
49,-3.52,-4.70,-3.53,-4.71,4.71,4.58,1.19,1.18,1.18
50,-3.36,-4.51,-3.37,-4.52,4.52,4.44,1.16,1.15,1.15
51,-3.22,-4.35,-3.22,-4.34,4.34,4.30,1.12,1.13,1.13
52,-3.07,-4.17,-3.06,-4.16,4.16,4.16,1.09,1.10,1.10
53,-2.92,-4.00,-2.91,-3.99,3.99,4.01,1.07,1.08,1.08
54,-2.77,-3.83,-2.76,-3.81,3.81,3.87,1.04,1.06,1.06
55,-2.60,-3.64,-2.60,-3.64,3.64,3.73,1.04,1.04,1.04
56,-2.47,-3.49,-2.46,-3.48,3.48,3.59,1.01,1.02,1.02
57,-2.30,-3.31,-2.31,-3.31,3.31,3.45,1.01,1.00,1.00
58,-2.13,-3.12,-2.17,-3.16,3.16,3.31,1.02,0.99,0.99
59,-2.01,-2.98,-2.03,-3.00,3.00,3.17,0.99,0.97,0.97
60,-1.90,-2.86,-1.89,-2.85,2.85,3.03,0.95,0.96,0.96
61,-1.77,-2.72,-1.76,-2.70,2.70,2.89,0.93,0.95,0.95
62,-1.65,-2.59,-1.62,-2.56,2.56,2.75,0.91,0.94,0.94
63,-1.50,-2.43,-1.49,-2.42,2.42,2.61,0.92,0.92,0.92
64,-1.37,-2.29,-1.37,-2.28,2.28,2.48,0.91,0.91,0.91
65,-1.23,-2.14,-1.24,-2.15,2.15,2.34,0.92,0.91,0.91
66,-1.11,-2.01,-1.12,-2.02,2.02,2.21,0.91,0.90,0.90
67,-1.01,-1.90,-1.01,-1.90,1.90,2.08,0.88,0.89,0.89
68,-0.88,-1.76,-0.90,-1.78,1.78,1.95,0.90,0.88,0.88
69,-0.78,-1.65,-0.79,-1.66,1.66,1.82,0.88,0.87,0.87
70,-0.68,-1.54,-0.69,-1.55,1.55,1.70,0.87,0.86,0.86
71,-0.59,-1.44,-0.59,-1.45,1.45,1.57,0.86,0.85,0.85
72,-0.53,-1.38,-0.50,-1.34,1.34,1.45,0.81,0.84,0.84
73,-0.42,-1.26,-0.41,-1.24,1.24,1.33,0.82,0.84,0.84
74,-0.34,-1.17,-0.31,-1.14,1.14,1.21,0.80,0.82,0.83
75,-0.22,-1.04,-0.22,-1.04,1.04,1.09,0.81,0.81,0.81
76,-0.12,-0.92,-0.13,-0.94,0.94,0.97,0.81,0.80,0.80
77,-0.01,-0.80,-0.05,-0.84,0.84,0.86,0.83,0.79,0.79
78,0.05,-0.73,0.03,-0.74,0.74,0.74,0.79,0.77,0.78
79,0.14,-0.62,0.11,-0.65,0.65,0.63,0.79,0.76,0.76
80,0.15,-0.59,0.19,-0.56,0.56,0.52,0.71,0.74,0.74
81,0.25,-0.48,0.26,-0.47,0.47,0.41,0.72,0.73,0.73
82,0.30,-0.41,0.33,-0.38,0.38,0.31,0.67,0.71,0.71
83,0.40,-0.29,0.40,-0.28,0.28,0.20,0.68,0.69,0.69
84,0.49,-0.18,0.48,-0.19,0.19,0.10,0.68,0.66,0.66
85,0.54,-0.10,0.55,-0.09,0.09,0.00,0.63,0.64,0.64
86,0.67,0.05,0.62,0.01,-0.01,-0.10,0.66,0.62,0.62
87,0.67,0.08,0.69,0.10,-0.10,-0.20,0.57,0.59,0.59
88,0.78,0.21,0.76,0.20,-0.20,-0.29,0.58,0.56,0.56
89,0.82,0.28,0.83,0.29,-0.29,-0.38,0.53,0.54,0.54
90,0.88,0.37,0.89,0.38,-0.38,-0.48,0.50,0.51,0.51
91,0.96,0.48,0.94,0.46,-0.46,-0.57,0.49,0.48,0.48
92,0.99,0.54,1.00,0.55,-0.55,-0.66,0.44,0.45,0.45
93,1.05,0.63,1.05,0.63,-0.63,-0.74,0.42,0.42,0.42
94,1.08,0.70,1.09,0.71,-0.71,-0.83,0.37,0.38,0.38
95,1.16,0.81,1.14,0.79,-0.79,-0.91,0.37,0.35,0.35
96,1.20,0.88,1.19,0.87,-0.87,-0.99,0.33,0.32,0.32
97,1.24,0.96,1.23,0.95,-0.95,-1.07,0.29,0.28,0.28
98,1.25,1.00,1.28,1.03,-1.03,-1.15,0.22,0.25,0.25
99,1.33,1.11,1.33,1.11,-1.11,-1.23,0.21,0.21,0.21
100,1.39,1.21,1.38,1.20,-1.20,-1.30,0.19,0.17,0.18
101,1.40,1.25,1.43,1.29,-1.29,-1.37,0.10,0.14,0.15
102,1.44,1.33,1.49,1.39,-1.39,-1.44,0.05,0.10,0.11
104,1.58,1.54,1.54,1.48,-1.48,-1.58,0.09,0.06,0.04
105,1.63,1.62,1.60,1.58,-1.58,-1.65,0.05,0.02,0.01
106,1.65,1.67,1.65,1.67,-1.67,-1.71,-0.02,-0.02,-0.02
107,1.71,1.77,1.70,1.75,-1.75,-1.78,-0.05,-0.05,-0.06
108,1.73,1.82,1.75,1.83,-1.83,-1.84,-0.11,-0.09,-0.09
109,1.78,1.90,1.79,1.91,-1.91,-1.90,-0.13,-0.12,-0.12
110,1.83,1.98,1.83,1.98,-1.98,-1.96,-0.15,-0.15,-0.15
111,1.87,2.05,1.86,2.05,-2.05,-2.02,-0.18,-0.18,-0.18
112,1.93,2.14,1.89,2.11,-2.11,-2.07,-0.18,-0.21,-0.21
113,1.92,2.16,1.92,2.17,-2.17,-2.13,-0.25,-0.24,-0.24
114,1.95,2.22,1.95,2.22,-2.22,-2.18,-0.28,-0.28,-0.27
115,1.94,2.24,1.97,2.28,-2.28,-2.23,-0.34,-0.31,-0.30
117,1.99,2.35,2.00,2.34,-2.34,-2.33,-0.35,-0.34,-0.36
118,2.04,2.42,2.02,2.39,-2.39,-2.38,-0.35,-0.38,-0.38
119,2.05,2.46,2.04,2.45,-2.45,-2.43,-0.40,-0.41,-0.41
120,2.05,2.49,2.06,2.50,-2.50,-2.47,-0.45,-0.44,-0.44
121,2.08,2.54,2.08,2.56,-2.56,-2.52,-0.48,-0.47,-0.46
123,2.12,2.63,2.11,2.61,-2.61,-2.60,-0.50,-0.51,-0.52
124,2.15,2.69,2.13,2.67,-2.67,-2.64,-0.52,-0.54,-0.54
125,2.11,2.67,2.16,2.73,-2.73,-2.68,-0.62,-0.57,-0.57
126,2.19,2.78,2.19,2.79,-2.79,-2.72,-0.60,-0.60,-0.59
128,2.24,2.88,2.22,2.85,-2.85,-2.79,-0.61,-0.63,-0.64
129,2.26,2.92,2.25,2.91,-2.91,-2.83,-0.65,-0.66,-0.66
130,2.27,2.95,2.28,2.96,-2.96,-2.86,-0.70,-0.68,-0.68
131,2.31,3.01,2.31,3.02,-3.02,-2.89,-0.71,-0.71,-0.70
133,2.35,3.09,2.34,3.07,-3.07,-2.95,-0.73,-0.74,-0.74
134,2.37,3.13,2.36,3.12,-3.12,-2.98,-0.76,-0.76,-0.76
135,2.38,3.16,2.38,3.17,-3.17,-3.01,-0.79,-0.79,-0.78
137,2.39,3.21,2.40,3.21,-3.21,-3.06,-0.83,-0.81,-0.82
138,2.40,3.23,2.42,3.25,-3.25,-3.09,-0.86,-0.84,-0.83
140,2.47,3.34,2.43,3.29,-3.29,-3.14,-0.82,-0.86,-0.87
141,2.46,3.34,2.44,3.32,-3.32,-3.16,-0.86,-0.88,-0.88
142,2.44,3.33,2.45,3.35,-3.35,-3.18,-0.92,-0.90,-0.89
144,2.46,3.38,2.46,3.38,-3.38,-3.22,-0.92,-0.92,-0.92
145,2.44,3.37,2.47,3.41,-3.41,-3.24,-0.97,-0.94,-0.93
147,2.49,3.45,2.48,3.44,-3.44,-3.28,-0.95,-0.95,-0.96
148,2.49,3.45,2.49,3.46,-3.46,-3.29,-0.97,-0.97,-0.97
150,2.52,3.51,2.49,3.48,-3.48,-3.32,-0.96,-0.98,-0.99
151,2.49,3.48,2.50,3.49,-3.49,-3.34,-1.00,-1.00,-0.99
153,2.51,3.52,2.49,3.51,-3.51,-3.36,-1.00,-1.01,-1.02
154,2.48,3.50,2.49,3.51,-3.51,-3.38,-1.04,-1.02,-1.02
156,2.49,3.53,2.48,3.52,-3.52,-3.40,-1.03,-1.04,-1.04
157,2.47,3.52,2.47,3.52,-3.52,-3.41,-1.05,-1.05,-1.05
159,2.46,3.52,2.46,3.52,-3.52,-3.43,-1.06,-1.06,-1.07
160,2.44,3.51,2.44,3.52,-3.52,-3.44,-1.08,-1.08,-1.07
162,2.42,3.51,2.42,3.51,-3.51,-3.45,-1.10,-1.09,-1.09
164,2.39,3.50,2.40,3.51,-3.51,-3.47,-1.12,-1.10,-1.11
165,2.40,3.52,2.38,3.50,-3.50,-3.47,-1.10,-1.12,-1.12
167,2.38,3.51,2.36,3.50,-3.50,-3.48,-1.12,-1.14,-1.14
169,2.34,3.49,2.34,3.49,-3.49,-3.49,-1.15,-1.15,-1.15
170,2.31,3.47,2.31,3.48,-3.48,-3.49,-1.17,-1.17,-1.16
172,2.27,3.45,2.29,3.47,-3.47,-3.50,-1.20,-1.18,-1.18
174,2.25,3.45,2.26,3.46,-3.46,-3.50,-1.21,-1.20,-1.20
175,2.24,3.45,2.24,3.46,-3.46,-3.51,-1.22,-1.22,-1.22
177,2.22,3.46,2.21,3.45,-3.45,-3.51,-1.23,-1.24,-1.24
179,2.18,3.44,2.19,3.44,-3.44,-3.51,-1.26,-1.26,-1.26
181,2.16,3.44,2.16,3.43,-3.43,-3.51,-1.27,-1.28,-1.28
183,2.13,3.43,2.13,3.42,-3.42,-3.50,-1.29,-1.29,-1.30
184,2.10,3.41,2.09,3.41,-3.41,-3.50,-1.31,-1.31,-1.31
186,2.07,3.40,2.05,3.39,-3.39,-3.50,-1.32,-1.33,-1.33
188,2.00,3.35,2.01,3.36,-3.36,-3.49,-1.36,-1.35,-1.35
190,1.95,3.32,1.96,3.33,-3.33,-3.49,-1.38,-1.37,-1.37
192,1.93,3.32,1.91,3.30,-3.30,-3.48,-1.37,-1.39,-1.39
194,1.86,3.27,1.85,3.26,-3.26,-3.47,-1.40,-1.41,-1.41
196,1.80,3.23,1.80,3.22,-3.22,-3.46,-1.43,-1.43,-1.43
198,1.75,3.20,1.74,3.18,-3.18,-3.45,-1.43,-1.45,-1.45
200,1.67,3.13,1.68,3.14,-3.14,-3.44,-1.47,-1.46,-1.46
202,1.62,3.10,1.62,3.10,-3.10,-3.43,-1.49,-1.48,-1.48
204,1.56,3.06,1.57,3.07,-3.07,-3.42,-1.51,-1.50,-1.50
206,1.52,3.03,1.53,3.04,-3.04,-3.40,-1.52,-1.51,-1.51
208,1.47,3.00,1.48,3.01,-3.01,-3.39,-1.54,-1.53,-1.53
210,1.43,2.97,1.45,2.99,-2.99,-3.38,-1.56,-1.54,-1.54
212,1.44,2.99,1.42,2.97,-2.97,-3.36,-1.53,-1.55,-1.55
214,1.42,2.98,1.39,2.96,-2.96,-3.35,-1.54,-1.57,-1.56
216,1.37,2.94,1.37,2.95,-2.95,-3.33,-1.58,-1.58,-1.58
218,1.34,2.92,1.35,2.94,-2.94,-3.32,-1.60,-1.59,-1.58
221,1.33,2.92,1.33,2.93,-2.93,-3.29,-1.60,-1.59,-1.60
223,1.32,2.92,1.32,2.92,-2.92,-3.27,-1.60,-1.60,-1.60
225,1.30,2.91,1.30,2.91,-2.91,-3.26,-1.61,-1.61,-1.61
227,1.29,2.90,1.29,2.90,-2.90,-3.24,-1.61,-1.61,-1.61
229,1.28,2.89,1.27,2.88,-2.88,-3.22,-1.61,-1.61,-1.61
232,1.26,2.88,1.26,2.87,-2.87,-3.20,-1.61,-1.62,-1.62
234,1.25,2.86,1.24,2.86,-2.86,-3.18,-1.61,-1.62,-1.62
236,1.23,2.84,1.23,2.84,-2.84,-3.16,-1.62,-1.61,-1.61
239,1.22,2.83,1.22,2.83,-2.83,-3.13,-1.61,-1.61,-1.61
241,1.21,2.82,1.21,2.82,-2.82,-3.12,-1.61,-1.61,-1.61
244,1.21,2.81,1.21,2.81,-2.81,-3.09,-1.60,-1.60,-1.60
246,1.20,2.80,1.21,2.80,-2.80,-3.07,-1.60,-1.60,-1.60
248,1.20,2.79,1.21,2.80,-2.80,-3.05,-1.60,-1.59,-1.59
251,1.20,2.78,1.22,2.80,-2.80,-3.02,-1.60,-1.58,-1.58
253,1.21,2.78,1.23,2.81,-2.81,-3.00,-1.60,-1.57,-1.57
256,1.26,2.82,1.25,2.81,-2.81,-2.98,-1.55,-1.56,-1.56
259,1.30,2.85,1.26,2.82,-2.82,-2.95,-1.52,-1.55,-1.55
261,1.30,2.84,1.28,2.82,-2.82,-2.93,-1.52,-1.54,-1.54
264,1.30,2.83,1.30,2.83,-2.83,-2.90,-1.53,-1.53,-1.53
266,1.30,2.82,1.31,2.83,-2.83,-2.89,-1.53,-1.52,-1.52
269,1.30,2.81,1.33,2.84,-2.84,-2.86,-1.54,-1.51,-1.51
272,1.35,2.84,1.35,2.84,-2.84,-2.83,-1.49,-1.50,-1.50
274,1.37,2.85,1.36,2.84,-2.84,-2.81,-1.47,-1.48,-1.48
277,1.37,2.84,1.37,2.84,-2.84,-2.79,-1.48,-1.47,-1.47
280,1.39,2.85,1.39,2.84,-2.84,-2.76,-1.45,-1.46,-1.46
283,1.41,2.85,1.40,2.84,-2.84,-2.74,-1.43,-1.45,-1.45
286,1.41,2.84,1.40,2.83,-2.83,-2.71,-1.43,-1.43,-1.43
288,1.41,2.83,1.41,2.83,-2.83,-2.70,-1.42,-1.42,-1.42
291,1.41,2.82,1.41,2.82,-2.82,-2.67,-1.41,-1.41,-1.41
294,1.40,2.80,1.41,2.80,-2.80,-2.65,-1.40,-1.40,-1.40
297,1.40,2.78,1.40,2.79,-2.79,-2.63,-1.39,-1.38,-1.38
300,1.40,2.77,1.40,2.78,-2.78,-2.61,-1.38,-1.37,-1.37
303,1.40,2.76,1.40,2.76,-2.76,-2.59,-1.36,-1.36,-1.36
306,1.40,2.75,1.40,2.75,-2.75,-2.57,-1.35,-1.35,-1.35
309,1.40,2.74,1.40,2.74,-2.74,-2.55,-1.34,-1.34,-1.34
312,1.40,2.73,1.40,2.73,-2.73,-2.53,-1.33,-1.33,-1.33
316,1.40,2.72,1.40,2.72,-2.72,-2.51,-1.32,-1.32,-1.32
319,1.40,2.71,1.40,2.71,-2.71,-2.49,-1.31,-1.31,-1.31
322,1.40,2.70,1.40,2.70,-2.70,-2.48,-1.30,-1.30,-1.30
325,1.40,2.69,1.40,2.69,-2.69,-2.47,-1.29,-1.29,-1.29
328,1.40,2.68,1.40,2.68,-2.68,-2.46,-1.28,-1.28,-1.28
332,1.39,2.66,1.40,2.67,-2.67,-2.44,-1.28,-1.27,-1.27
335,1.40,2.66,1.39,2.66,-2.66,-2.44,-1.26,-1.26,-1.26
338,1.40,2.66,1.38,2.64,-2.64,-2.43,-1.24,-1.26,-1.26
342,1.37,2.62,1.37,2.62,-2.62,-2.43,-1.25,-1.25,-1.25
345,1.36,2.60,1.36,2.60,-2.60,-2.43,-1.24,-1.24,-1.24
349,1.36,2.59,1.34,2.58,-2.58,-2.44,-1.22,-1.23,-1.23
352,1.34,2.57,1.32,2.55,-2.55,-2.45,-1.21,-1.23,-1.23
356,1.28,2.50,1.31,2.53,-2.53,-2.46,-1.25,-1.22,-1.22
359,1.28,2.49,1.30,2.51,-2.51,-2.47,-1.23,-1.22,-1.22
363,1.28,2.49,1.29,2.50,-2.50,-2.49,-1.22,-1.21,-1.21
366,1.28,2.48,1.28,2.49,-2.49,-2.51,-1.21,-1.21,-1.20
370,1.28,2.48,1.28,2.48,-2.48,-2.53,-1.20,-1.20,-1.20
374,1.28,2.48,1.28,2.47,-2.47,-2.56,-1.19,-1.20,-1.20
377,1.28,2.47,1.27,2.47,-2.47,-2.57,-1.19,-1.19,-1.19
381,1.28,2.47,1.27,2.46,-2.46,-2.59,-1.18,-1.19,-1.19
385,1.28,2.47,1.26,2.45,-2.45,-2.59,-1.17,-1.19,-1.19
389,1.26,2.44,1.25,2.43,-2.43,-2.59,-1.17,-1.18,-1.18
393,1.25,2.43,1.24,2.42,-2.42,-2.56,-1.17,-1.18,-1.18
397,1.20,2.38,1.22,2.40,-2.40,-2.53,-1.20,-1.18,-1.18
401,1.18,2.36,1.21,2.39,-2.39,-2.48,-1.21,-1.18,-1.18
405,1.18,2.35,1.20,2.37,-2.37,-2.42,-1.19,-1.18,-1.18
409,1.18,2.35,1.18,2.35,-2.35,-2.35,-1.17,-1.17,-1.17
413,1.18,2.35,1.17,2.34,-2.34,-2.28,-1.16,-1.17,-1.17
417,1.17,2.33,1.15,2.32,-2.32,-2.21,-1.15,-1.16,-1.16
421,1.17,2.33,1.13,2.29,-2.29,-2.14,-1.12,-1.16,-1.16
425,1.13,2.28,1.12,2.27,-2.27,-2.07,-1.14,-1.15,-1.15
430,1.06,2.20,1.10,2.24,-2.24,-1.99,-1.18,-1.14,-1.14
434,1.06,2.19,1.08,2.22,-2.22,-1.92,-1.16,-1.14,-1.14
438,1.05,2.17,1.06,2.19,-2.19,-1.87,-1.14,-1.12,-1.13
443,1.01,2.12,1.04,2.16,-2.16,-1.80,-1.15,-1.11,-1.11
447,1.00,2.10,1.02,2.12,-2.12,-1.75,-1.12,-1.10,-1.10
451,0.99,2.07,0.98,2.07,-2.07,-1.70,-1.08,-1.09,-1.09
456,0.95,2.02,0.94,2.01,-2.01,-1.64,-1.06,-1.07,-1.07
460,0.93,1.98,0.87,1.92,-1.92,-1.60,-0.99,-1.05,-1.05
465,0.82,1.86,0.78,1.81,-1.81,-1.55,-1.00,-1.04,-1.04
470,0.68,1.70,0.67,1.68,-1.68,-1.51,-1.00,-1.02,-1.02
474,0.55,1.55,0.53,1.53,-1.53,-1.47,-0.98,-1.00,-1.00
479,0.42,1.40,0.38,1.36,-1.36,-1.43,-0.94,-0.98,-0.98
484,0.22,1.18,0.21,1.17,-1.17,-1.40,-0.95,-0.96,-0.96
489,0.07,1.01,0.04,0.99,-0.99,-1.36,-0.92,-0.95,-0.94
494,-0.15,0.78,-0.12,0.81,-0.81,-1.32,-0.96,-0.93,-0.93
499,-0.29,0.62,-0.26,0.65,-0.65,-1.29,-0.94,-0.91,-0.91
504,-0.46,0.43,-0.39,0.51,-0.51,-1.26,-0.97,-0.89,-0.89
509,-0.55,0.33,-0.48,0.40,-0.40,-1.23,-0.95,-0.88,-0.88
514,-0.56,0.30,-0.54,0.32,-0.32,-1.20,-0.88,-0.86,-0.86
519,-0.52,0.33,-0.57,0.28,-0.28,-1.17,-0.80,-0.85,-0.85
524,-0.59,0.24,-0.57,0.26,-0.26,-1.15,-0.85,-0.84,-0.84
529,-0.60,0.22,-0.55,0.27,-0.27,-1.12,-0.87,-0.82,-0.82
535,-0.50,0.31,-0.51,0.30,-0.30,-1.09,-0.80,-0.81,-0.81
540,-0.44,0.36,-0.46,0.34,-0.34,-1.07,-0.78,-0.80,-0.80
545,-0.38,0.40,-0.39,0.39,-0.39,-1.04,-0.77,-0.78,-0.78
551,-0.30,0.47,-0.32,0.45,-0.45,-1.02,-0.75,-0.77,-0.77
556,-0.24,0.52,-0.26,0.50,-0.50,-1.00,-0.74,-0.76,-0.76
562,-0.20,0.54,-0.19,0.55,-0.55,-0.97,-0.75,-0.74,-0.74
568,-0.11,0.62,-0.13,0.60,-0.60,-0.94,-0.71,-0.73,-0.73
573,-0.05,0.66,-0.07,0.64,-0.64,-0.92,-0.69,-0.71,-0.71
579,-0.01,0.68,-0.02,0.67,-0.67,-0.90,-0.69,-0.69,-0.69
585,-0.01,0.66,0.03,0.70,-0.70,-0.88,-0.71,-0.67,-0.67
591,0.06,0.71,0.08,0.72,-0.72,-0.85,-0.66,-0.65,-0.65
596,0.13,0.75,0.11,0.74,-0.74,-0.84,-0.61,-0.62,-0.62
602,0.16,0.76,0.14,0.74,-0.74,-0.81,-0.58,-0.60,-0.60
608,0.19,0.76,0.16,0.74,-0.74,-0.79,-0.55,-0.57,-0.57
615,0.20,0.75,0.18,0.72,-0.72,-0.77,-0.52,-0.55,-0.55
621,0.18,0.70,0.18,0.70,-0.70,-0.75,-0.52,-0.52,-0.52
627,0.17,0.66,0.19,0.68,-0.68,-0.73,-0.51,-0.49,-0.49
633,0.17,0.63,0.19,0.65,-0.65,-0.71,-0.48,-0.46,-0.46
639,0.20,0.63,0.19,0.62,-0.62,-0.69,-0.42,-0.43,-0.43
646,0.17,0.58,0.19,0.59,-0.59,-0.67,-0.42,-0.41,-0.41
652,0.17,0.55,0.18,0.57,-0.57,-0.65,-0.40,-0.38,-0.38
659,0.19,0.54,0.18,0.54,-0.54,-0.63,-0.35,-0.36,-0.36
665,0.20,0.53,0.18,0.52,-0.52,-0.61,-0.32,-0.33,-0.33
672,0.20,0.51,0.18,0.49,-0.49,-0.59,-0.30,-0.31,-0.31
679,0.16,0.45,0.18,0.47,-0.47,-0.57,-0.31,-0.29,-0.29
686,0.16,0.44,0.18,0.46,-0.46,-0.55,-0.30,-0.28,-0.28
692,0.20,0.46,0.17,0.44,-0.44,-0.53,-0.24,-0.26,-0.26
699,0.21,0.46,0.17,0.42,-0.42,-0.51,-0.21,-0.25,-0.25
706,0.13,0.37,0.17,0.41,-0.41,-0.49,-0.28,-0.24,-0.24
713,0.16,0.39,0.16,0.40,-0.40,-0.48,-0.24,-0.24,-0.24
721,0.15,0.38,0.16,0.39,-0.39,-0.45,-0.25,-0.23,-0.23
728,0.18,0.41,0.16,0.39,-0.39,-0.44,-0.21,-0.23,-0.23
735,0.17,0.40,0.16,0.39,-0.39,-0.42,-0.22,-0.23,-0.23
742,0.16,0.39,0.17,0.40,-0.40,-0.40,-0.24,-0.23,-0.23
750,0.16,0.39,0.17,0.40,-0.40,-0.38,-0.24,-0.23,-0.23
757,0.17,0.40,0.17,0.41,-0.41,-0.36,-0.24,-0.23,-0.23
765,0.17,0.41,0.18,0.41,-0.41,-0.34,-0.25,-0.24,-0.24
773,0.20,0.44,0.18,0.42,-0.42,-0.32,-0.22,-0.24,-0.24
780,0.20,0.45,0.18,0.42,-0.42,-0.31,-0.23,-0.25,-0.25
788,0.16,0.41,0.18,0.43,-0.43,-0.29,-0.27,-0.25,-0.25
796,0.16,0.41,0.17,0.42,-0.42,-0.27,-0.27,-0.25,-0.25
804,0.16,0.42,0.16,0.42,-0.42,-0.25,-0.26,-0.26,-0.26
812,0.16,0.42,0.15,0.41,-0.41,-0.23,-0.25,-0.26,-0.26
820,0.17,0.43,0.14,0.40,-0.40,-0.21,-0.23,-0.26,-0.26
828,0.12,0.38,0.12,0.38,-0.38,-0.19,-0.27,-0.26,-0.26
837,0.10,0.36,0.11,0.37,-0.37,-0.17,-0.27,-0.26,-0.26
845,0.10,0.36,0.09,0.35,-0.35,-0.15,-0.25,-0.26,-0.26
853,0.07,0.32,0.08,0.33,-0.33,-0.13,-0.26,-0.25,-0.25
862,0.05,0.30,0.06,0.31,-0.31,-0.11,-0.26,-0.25,-0.25
871,0.03,0.27,0.05,0.29,-0.29,-0.08,-0.26,-0.24,-0.24
879,0.05,0.28,0.04,0.27,-0.27,-0.07,-0.22,-0.23,-0.23
888,0.02,0.24,0.03,0.25,-0.25,-0.04,-0.23,-0.23,-0.22
897,0.04,0.25,0.02,0.23,-0.23,-0.02,-0.20,-0.21,-0.21
906,0.02,0.22,0.02,0.22,-0.22,0.00,-0.20,-0.20,-0.20
915,0.05,0.24,0.01,0.20,-0.20,0.02,-0.15,-0.19,-0.19
924,-0.04,0.13,0.01,0.19,-0.19,0.05,-0.23,-0.17,-0.17
933,-0.01,0.14,0.01,0.17,-0.17,0.07,-0.18,-0.16,-0.16
943,0.01,0.15,0.02,0.15,-0.15,0.09,-0.14,-0.14,-0.14
952,0.04,0.15,0.02,0.14,-0.14,0.12,-0.10,-0.12,-0.12
962,0.04,0.13,0.02,0.11,-0.11,0.14,-0.08,-0.09,-0.09
971,0.02,0.09,0.02,0.09,-0.09,0.17,-0.07,-0.07,-0.07
981,0.02,0.06,0.02,0.06,-0.06,0.19,-0.04,-0.04,-0.04
991,0.01,0.02,0.01,0.02,-0.02,0.22,-0.01,-0.01,-0.01
1001,-0.00,-0.02,-0.01,-0.02,0.02,0.25,0.02,0.02,0.02
1011,-0.00,-0.05,-0.03,-0.08,0.08,0.28,0.07,0.05,0.05
1021,-0.06,-0.15,-0.05,-0.13,0.13,0.31,0.07,0.08,0.08
1031,-0.09,-0.21,-0.08,-0.20,0.20,0.33,0.11,0.12,0.12
1041,-0.07,-0.23,-0.11,-0.27,0.27,0.36,0.20,0.16,0.16
1052,-0.15,-0.35,-0.14,-0.34,0.34,0.40,0.19,0.20,0.20
1062,-0.16,-0.40,-0.17,-0.41,0.41,0.43,0.25,0.24,0.24
1073,-0.25,-0.54,-0.20,-0.49,0.49,0.46,0.24,0.29,0.29
1084,-0.22,-0.55,-0.23,-0.56,0.56,0.50,0.34,0.33,0.33
1094,-0.23,-0.61,-0.25,-0.63,0.63,0.53,0.40,0.38,0.38
1105,-0.29,-0.72,-0.27,-0.69,0.69,0.57,0.40,0.42,0.42
1116,-0.26,-0.73,-0.28,-0.76,0.76,0.60,0.49,0.47,0.47
1128,-0.29,-0.81,-0.30,-0.82,0.82,0.65,0.52,0.52,0.52
1139,-0.33,-0.90,-0.31,-0.87,0.87,0.68,0.54,0.57,0.57
1150,-0.30,-0.91,-0.31,-0.93,0.93,0.72,0.63,0.61,0.61
1162,-0.31,-0.97,-0.32,-0.98,0.98,0.77,0.67,0.66,0.66
1173,-0.31,-1.01,-0.32,-1.02,1.02,0.81,0.71,0.70,0.70
1185,-0.33,-1.08,-0.32,-1.07,1.07,0.85,0.74,0.75,0.75
1197,-0.33,-1.12,-0.32,-1.11,1.11,0.90,0.77,0.79,0.79
1209,-0.30,-1.13,-0.31,-1.14,1.14,0.95,0.84,0.82,0.82
1221,-0.33,-1.19,-0.31,-1.17,1.17,0.99,0.84,0.86,0.86
1233,-0.30,-1.19,-0.30,-1.19,1.19,1.04,0.89,0.89,0.89
1246,-0.27,-1.19,-0.29,-1.21,1.21,1.09,0.94,0.92,0.92
1258,-0.31,-1.26,-0.28,-1.23,1.23,1.14,0.91,0.95,0.95
1271,-0.27,-1.24,-0.27,-1.24,1.24,1.19,0.97,0.97,0.97
1283,-0.25,-1.24,-0.27,-1.26,1.26,1.24,1.00,0.99,0.99
1296,-0.25,-1.25,-0.27,-1.27,1.27,1.29,1.02,1.00,1.00
1309,-0.27,-1.29,-0.28,-1.29,1.29,1.34,1.02,1.01,1.02
1322,-0.29,-1.32,-0.29,-1.32,1.32,1.39,1.03,1.02,1.02
1335,-0.34,-1.37,-0.32,-1.34,1.34,1.44,1.00,1.03,1.03
1349,-0.34,-1.37,-0.35,-1.38,1.38,1.49,1.04,1.03,1.03
1362,-0.35,-1.39,-0.38,-1.42,1.42,1.53,1.07,1.03,1.03
1376,-0.42,-1.45,-0.43,-1.46,1.46,1.58,1.04,1.03,1.03
1390,-0.46,-1.49,-0.47,-1.51,1.51,1.62,1.04,1.03,1.03
1404,-0.53,-1.56,-0.52,-1.55,1.55,1.65,1.02,1.03,1.03
1418,-0.56,-1.59,-0.57,-1.60,1.60,1.69,1.04,1.03,1.03
1432,-0.64,-1.66,-0.62,-1.65,1.65,1.71,1.01,1.02,1.02
1446,-0.68,-1.70,-0.67,-1.69,1.69,1.74,1.01,1.02,1.02
1461,-0.72,-1.74,-0.70,-1.73,1.73,1.76,1.00,1.02,1.02
1475,-0.72,-1.75,-0.73,-1.76,1.76,1.77,1.04,1.03,1.03
1490,-0.75,-1.78,-0.75,-1.78,1.78,1.78,1.03,1.03,1.03
1505,-0.75,-1.79,-0.76,-1.80,1.80,1.78,1.05,1.04,1.04
1520,-0.73,-1.78,-0.75,-1.81,1.81,1.77,1.07,1.05,1.05
1535,-0.71,-1.78,-0.73,-1.80,1.80,1.76,1.09,1.07,1.07
1550,-0.73,-1.82,-0.70,-1.79,1.79,1.75,1.06,1.09,1.09
1566,-0.72,-1.84,-0.64,-1.76,1.76,1.73,1.04,1.12,1.12
1582,-0.59,-1.75,-0.57,-1.73,1.73,1.70,1.14,1.16,1.15
1597,-0.48,-1.67,-0.49,-1.69,1.69,1.67,1.21,1.19,1.19
1613,-0.38,-1.62,-0.40,-1.64,1.64,1.63,1.26,1.24,1.24
1629,-0.27,-1.56,-0.29,-1.59,1.59,1.59,1.32,1.29,1.29
1646,-0.17,-1.52,-0.19,-1.54,1.54,1.55,1.36,1.35,1.35
1662,-0.08,-1.49,-0.07,-1.49,1.49,1.50,1.41,1.41,1.41
1679,0.07,-1.41,0.04,-1.45,1.45,1.45,1.51,1.48,1.48
1696,0.16,-1.40,0.15,-1.41,1.41,1.40,1.57,1.56,1.56
1713,0.28,-1.36,0.27,-1.37,1.37,1.34,1.65,1.64,1.64
1730,0.40,-1.33,0.39,-1.34,1.34,1.28,1.74,1.73,1.73
1747,0.52,-1.30,0.52,-1.30,1.30,1.22,1.82,1.82,1.82
1764,0.62,-1.29,0.66,-1.25,1.25,1.17,1.87,1.91,1.91
1782,0.81,-1.20,0.81,-1.20,1.20,1.10,2.01,2.01,2.01
1800,0.94,-1.17,0.97,-1.14,1.14,1.04,2.08,2.11,2.11
