frequency,raw,error,smoothed,error_smoothed,equalization,parametric_eq,fixed_band_eq,equalized_raw,equalized_smoothed,target
20.00,0.88,-0.66,0.88,-0.68,0.68,-0.36,-0.65,1.56,1.56,1.54
20.20,0.92,-0.62,0.92,-0.63,0.63,-0.37,-0.67,1.55,1.55,1.54
20.40,0.96,-0.58,0.96,-0.59,0.59,-0.37,-0.69,1.54,1.55,1.54
20.61,1.00,-0.54,1.00,-0.54,0.54,-0.38,-0.71,1.53,1.54,1.54
20.81,1.05,-0.49,1.04,-0.49,0.49,-0.39,-0.73,1.54,1.53,1.54
21.02,1.08,-0.46,1.08,-0.44,0.44,-0.40,-0.75,1.51,1.52,1.54
21.23,1.13,-0.39,1.12,-0.38,0.38,-0.41,-0.78,1.51,1.50,1.52
21.44,1.17,-0.34,1.16,-0.33,0.33,-0.42,-0.80,1.50,1.49,1.51
21.66,1.20,-0.29,1.20,-0.28,0.28,-0.44,-0.82,1.47,1.48,1.49
21.87,1.24,-0.23,1.24,-0.22,0.22,-0.45,-0.85,1.46,1.46,1.47
22.09,1.28,-0.18,1.28,-0.16,0.16,-0.46,-0.87,1.44,1.45,1.46
22.31,1.32,-0.11,1.32,-0.11,0.11,-0.47,-0.89,1.43,1.43,1.43
22.54,1.36,-0.05,1.36,-0.05,0.05,-0.48,-0.92,1.40,1.41,1.41
22.76,1.40,0.01,1.40,0.02,-0.02,-0.50,-0.95,1.38,1.38,1.39
22.99,1.44,0.08,1.44,0.08,-0.08,-0.51,-0.97,1.36,1.36,1.36
23.22,1.48,0.15,1.48,0.14,-0.14,-0.52,-1.00,1.33,1.34,1.33
23.45,1.53,0.22,1.53,0.21,-0.21,-0.54,-1.03,1.32,1.32,1.31
23.69,1.57,0.27,1.57,0.27,-0.27,-0.55,-1.06,1.30,1.30,1.30
23.92,1.62,0.34,1.61,0.33,-0.33,-0.57,-1.09,1.29,1.28,1.27
24.16,1.66,0.39,1.65,0.39,-0.39,-0.58,-1.12,1.27,1.26,1.26
24.40,1.69,0.45,1.69,0.45,-0.45,-0.60,-1.15,1.24,1.24,1.24
24.65,1.73,0.50,1.74,0.51,-0.51,-0.62,-1.18,1.21,1.22,1.22
24.89,1.78,0.58,1.78,0.57,-0.57,-0.64,-1.21,1.21,1.20,1.20
25.14,1.82,0.63,1.82,0.63,-0.63,-0.65,-1.24,1.19,1.19,1.19
25.39,1.86,0.69,1.86,0.69,-0.69,-0.67,-1.28,1.17,1.17,1.17
25.65,1.90,0.74,1.90,0.74,-0.74,-0.69,-1.31,1.15,1.16,1.16
25.91,1.94,0.81,1.94,0.80,-0.80,-0.71,-1.34,1.14,1.14,1.13
26.16,1.98,0.86,1.98,0.86,-0.86,-0.73,-1.37,1.12,1.12,1.12
26.43,2.02,0.91,2.02,0.91,-0.91,-0.76,-1.40,1.11,1.11,1.11
26.69,2.06,0.97,2.06,0.96,-0.96,-0.78,-1.43,1.09,1.09,1.09
26.96,2.10,1.02,2.09,1.02,-1.02,-0.80,-1.46,1.08,1.08,1.08
27.23,2.14,1.07,2.13,1.07,-1.07,-0.83,-1.49,1.07,1.06,1.07
27.50,2.17,1.11,2.17,1.12,-1.12,-0.86,-1.52,1.05,1.05,1.06
27.77,2.21,1.17,2.20,1.16,-1.16,-0.88,-1.55,1.04,1.04,1.04
28.05,2.24,1.21,2.23,1.21,-1.21,-0.91,-1.58,1.03,1.02,1.03
28.33,2.27,1.26,2.27,1.26,-1.26,-0.94,-1.61,1.01,1.01,1.00
28.62,2.30,1.30,2.30,1.30,-1.30,-0.97,-1.63,0.99,1.00,0.99
28.90,2.33,1.35,2.33,1.35,-1.35,-1.01,-1.66,0.98,0.99,0.98
29.19,2.35,1.39,2.36,1.39,-1.39,-1.04,-1.68,0.96,0.97,0.96
29.48,2.39,1.43,2.39,1.44,-1.44,-1.07,-1.70,0.95,0.96,0.96
29.78,2.42,1.47,2.42,1.48,-1.48,-1.11,-1.72,0.94,0.95,0.95
30.08,2.45,1.51,2.45,1.52,-1.52,-1.15,-1.73,0.93,0.93,0.94
30.38,2.48,1.56,2.48,1.56,-1.56,-1.19,-1.75,0.92,0.92,0.92
30.68,2.51,1.60,2.50,1.60,-1.60,-1.23,-1.76,0.91,0.90,0.91
30.99,2.54,1.65,2.53,1.64,-1.64,-1.27,-1.77,0.90,0.89,0.89
31.30,2.56,1.68,2.55,1.67,-1.67,-1.32,-1.78,0.88,0.87,0.87
31.61,2.58,1.72,2.57,1.71,-1.71,-1.37,-1.78,0.87,0.86,0.86
31.93,2.59,1.75,2.59,1.75,-1.75,-1.41,-1.79,0.84,0.84,0.84
32.24,2.60,1.79,2.60,1.78,-1.78,-1.46,-1.79,0.82,0.82,0.81
32.57,2.62,1.82,2.62,1.82,-1.82,-1.51,-1.79,0.80,0.80,0.80
32.89,2.63,1.84,2.63,1.85,-1.85,-1.57,-1.79,0.78,0.78,0.79
33.22,2.65,1.89,2.64,1.88,-1.88,-1.62,-1.78,0.77,0.76,0.76
33.55,2.65,1.90,2.66,1.91,-1.91,-1.68,-1.78,0.73,0.74,0.74
33.89,2.66,1.94,2.67,1.94,-1.94,-1.73,-1.77,0.71,0.72,0.72
34.23,2.67,1.97,2.68,1.97,-1.97,-1.79,-1.76,0.69,0.70,0.70
34.57,2.69,2.01,2.69,2.00,-2.00,-1.85,-1.75,0.68,0.68,0.68
34.92,2.70,2.04,2.70,2.03,-2.03,-1.91,-1.74,0.66,0.66,0.66
35.27,2.71,2.06,2.71,2.07,-2.07,-1.97,-1.73,0.64,0.64,0.65
35.62,2.72,2.09,2.72,2.10,-2.10,-2.03,-1.72,0.62,0.62,0.62
35.97,2.73,2.13,2.73,2.13,-2.13,-2.08,-1.70,0.60,0.60,0.60
36.33,2.74,2.15,2.74,2.16,-2.16,-2.14,-1.69,0.58,0.58,0.59
36.70,2.75,2.18,2.75,2.19,-2.19,-2.19,-1.67,0.56,0.57,0.57
37.06,2.76,2.21,2.76,2.21,-2.21,-2.24,-1.66,0.54,0.55,0.54
37.43,2.77,2.24,2.77,2.24,-2.24,-2.29,-1.64,0.53,0.53,0.53
37.81,2.78,2.27,2.78,2.27,-2.27,-2.34,-1.63,0.51,0.51,0.51
38.19,2.79,2.30,2.78,2.30,-2.30,-2.37,-1.62,0.49,0.49,0.49
38.57,2.79,2.31,2.79,2.32,-2.32,-2.41,-1.60,0.47,0.47,0.47
38.95,2.80,2.35,2.79,2.34,-2.34,-2.44,-1.59,0.46,0.45,0.45
39.34,2.80,2.37,2.80,2.36,-2.36,-2.46,-1.57,0.44,0.43,0.43
39.74,2.80,2.39,2.80,2.38,-2.38,-2.48,-1.56,0.42,0.42,0.41
40.14,2.80,2.40,2.80,2.40,-2.40,-2.49,-1.55,0.40,0.40,0.40
40.54,2.79,2.41,2.80,2.42,-2.42,-2.50,-1.54,0.37,0.38,0.38
40.94,2.80,2.43,2.79,2.43,-2.43,-2.50,-1.53,0.37,0.37,0.37
41.35,2.79,2.45,2.79,2.44,-2.44,-2.49,-1.52,0.35,0.35,0.34
41.76,2.79,2.45,2.78,2.45,-2.45,-2.48,-1.51,0.34,0.33,0.34
42.18,2.78,2.45,2.77,2.46,-2.46,-2.47,-1.50,0.32,0.32,0.32
42.60,2.76,2.46,2.76,2.46,-2.46,-2.45,-1.50,0.29,0.30,0.30
43.03,2.75,2.45,2.75,2.47,-2.47,-2.42,-1.49,0.28,0.28,0.30
43.46,2.74,2.47,2.74,2.47,-2.47,-2.40,-1.49,0.27,0.27,0.27
43.90,2.73,2.48,2.72,2.47,-2.47,-2.37,-1.49,0.26,0.25,0.25
44.33,2.71,2.48,2.70,2.47,-2.47,-2.34,-1.48,0.24,0.24,0.23
44.78,2.68,2.46,2.68,2.46,-2.46,-2.31,-1.48,0.21,0.22,0.22
45.23,2.66,2.47,2.66,2.46,-2.46,-2.28,-1.48,0.20,0.20,0.19
45.68,2.64,2.46,2.64,2.45,-2.45,-2.24,-1.48,0.19,0.19,0.18
46.13,2.62,2.46,2.61,2.44,-2.44,-2.21,-1.49,0.17,0.17,0.16
46.60,2.59,2.43,2.59,2.44,-2.44,-2.18,-1.49,0.15,0.15,0.16
47.06,2.56,2.42,2.56,2.43,-2.43,-2.15,-1.50,0.13,0.13,0.14
47.53,2.53,2.40,2.53,2.41,-2.41,-2.12,-1.50,0.11,0.12,0.12
48.01,2.50,2.38,2.50,2.40,-2.40,-2.09,-1.51,0.10,0.10,0.12
48.49,2.47,2.38,2.47,2.38,-2.38,-2.06,-1.52,0.08,0.08,0.09
48.97,2.43,2.36,2.43,2.37,-2.37,-2.03,-1.53,0.06,0.06,0.06
49.46,2.40,2.36,2.40,2.35,-2.35,-2.01,-1.54,0.05,0.05,0.04
49.96,2.36,2.35,2.36,2.33,-2.33,-1.98,-1.55,0.02,0.03,0.01
50.46,2.33,2.32,2.33,2.32,-2.32,-1.96,-1.56,0.01,0.01,0.01
50.96,2.29,2.29,2.29,2.30,-2.30,-1.94,-1.57,-0.01,-0.01,-0.01
51.47,2.25,2.28,2.25,2.27,-2.27,-1.92,-1.58,-0.03,-0.03,-0.03
51.99,2.21,2.26,2.21,2.25,-2.25,-1.90,-1.60,-0.05,-0.05,-0.05
52.51,2.16,2.22,2.16,2.23,-2.23,-1.89,-1.61,-0.07,-0.07,-0.06
53.03,2.12,2.20,2.12,2.21,-2.21,-1.87,-1.63,-0.09,-0.09,-0.08
53.56,2.08,2.18,2.08,2.18,-2.18,-1.86,-1.64,-0.10,-0.10,-0.10
54.10,2.04,2.16,2.03,2.15,-2.15,-1.85,-1.66,-0.11,-0.12,-0.12
54.64,1.98,2.12,1.99,2.13,-2.13,-1.83,-1.68,-0.15,-0.14,-0.14
55.18,1.94,2.10,1.94,2.10,-2.10,-1.82,-1.69,-0.16,-0.16,-0.16
55.74,1.89,2.07,1.89,2.06,-2.06,-1.81,-1.71,-0.18,-0.18,-0.18
56.29,1.84,2.03,1.84,2.03,-2.03,-1.80,-1.73,-0.20,-0.19,-0.19
56.86,1.79,2.00,1.79,2.00,-2.00,-1.80,-1.75,-0.21,-0.21,-0.21
57.42,1.74,1.97,1.74,1.97,-1.97,-1.79,-1.77,-0.23,-0.23,-0.24
58.00,1.69,1.94,1.69,1.94,-1.94,-1.78,-1.78,-0.25,-0.25,-0.25
58.58,1.64,1.91,1.63,1.90,-1.90,-1.77,-1.80,-0.26,-0.27,-0.27
59.16,1.59,1.87,1.58,1.87,-1.87,-1.76,-1.82,-0.28,-0.29,-0.28
59.76,1.53,1.83,1.53,1.83,-1.83,-1.76,-1.84,-0.30,-0.31,-0.30
60.35,1.48,1.80,1.47,1.80,-1.80,-1.75,-1.85,-0.32,-0.33,-0.32
60.96,1.41,1.74,1.42,1.76,-1.76,-1.74,-1.87,-0.35,-0.34,-0.33
61.57,1.36,1.72,1.36,1.72,-1.72,-1.72,-1.89,-0.36,-0.36,-0.36
62.18,1.31,1.70,1.31,1.69,-1.69,-1.71,-1.90,-0.38,-0.38,-0.39
62.80,1.26,1.66,1.25,1.65,-1.65,-1.70,-1.92,-0.39,-0.40,-0.40
63.43,1.20,1.63,1.20,1.62,-1.62,-1.68,-1.93,-0.42,-0.42,-0.43
64.07,1.15,1.60,1.15,1.58,-1.58,-1.66,-1.95,-0.43,-0.43,-0.45
64.71,1.10,1.55,1.10,1.55,-1.55,-1.63,-1.96,-0.45,-0.45,-0.45
65.35,1.05,1.52,1.05,1.52,-1.52,-1.60,-1.98,-0.47,-0.47,-0.47
66.01,1.00,1.48,1.01,1.49,-1.49,-1.57,-1.99,-0.49,-0.48,-0.48
66.67,0.97,1.47,0.97,1.47,-1.47,-1.54,-2.01,-0.50,-0.50,-0.50
67.33,0.93,1.44,0.93,1.44,-1.44,-1.50,-2.02,-0.52,-0.51,-0.51
68.01,0.89,1.42,0.90,1.43,-1.43,-1.45,-2.04,-0.54,-0.53,-0.53
68.69,0.87,1.41,0.87,1.41,-1.41,-1.41,-2.05,-0.54,-0.54,-0.54
69.37,0.84,1.40,0.85,1.41,-1.41,-1.37,-2.07,-0.57,-0.56,-0.56
70.07,0.83,1.40,0.83,1.40,-1.40,-1.34,-2.08,-0.58,-0.57,-0.57
70.77,0.82,1.40,0.82,1.41,-1.41,-1.31,-2.10,-0.59,-0.59,-0.59
71.48,0.81,1.42,0.81,1.42,-1.42,-1.31,-2.11,-0.61,-0.61,-0.61
72.19,0.80,1.42,0.81,1.44,-1.44,-1.31,-2.13,-0.64,-0.63,-0.62
72.91,0.81,1.45,0.81,1.46,-1.46,-1.34,-2.15,-0.65,-0.65,-0.65
73.64,0.82,1.49,0.82,1.49,-1.49,-1.39,-2.17,-0.67,-0.67,-0.67
74.38,0.82,1.50,0.83,1.52,-1.52,-1.45,-2.19,-0.70,-0.69,-0.69
75.12,0.85,1.57,0.84,1.56,-1.56,-1.51,-2.21,-0.71,-0.71,-0.72
75.87,0.87,1.61,0.86,1.60,-1.60,-1.59,-2.24,-0.73,-0.74,-0.74
76.63,0.89,1.64,0.89,1.65,-1.65,-1.67,-2.26,-0.76,-0.76,-0.76
77.40,0.91,1.69,0.92,1.70,-1.70,-1.75,-2.29,-0.79,-0.79,-0.78
78.17,0.94,1.76,0.95,1.76,-1.76,-1.83,-2.32,-0.82,-0.81,-0.82
78.95,0.98,1.81,0.98,1.82,-1.82,-1.90,-2.35,-0.84,-0.84,-0.83
79.74,1.01,1.87,1.01,1.88,-1.88,-1.97,-2.38,-0.87,-0.87,-0.86
80.54,1.05,1.94,1.05,1.94,-1.94,-2.04,-2.41,-0.89,-0.89,-0.89
81.35,1.09,2.01,1.09,2.01,-2.01,-2.11,-2.44,-0.92,-0.92,-0.92
82.16,1.13,2.08,1.12,2.07,-2.07,-2.17,-2.48,-0.95,-0.95,-0.95
82.98,1.17,2.14,1.16,2.14,-2.14,-2.23,-2.52,-0.97,-0.98,-0.97
83.81,1.21,2.23,1.20,2.21,-2.21,-2.28,-2.56,-1.00,-1.01,-1.02
84.65,1.24,2.29,1.24,2.28,-2.28,-2.33,-2.60,-1.04,-1.04,-1.05
85.50,1.28,2.35,1.27,2.35,-2.35,-2.38,-2.65,-1.07,-1.08,-1.07
86.35,1.31,2.42,1.31,2.42,-2.42,-2.43,-2.70,-1.11,-1.11,-1.11
87.22,1.34,2.48,1.34,2.48,-2.48,-2.48,-2.75,-1.15,-1.14,-1.14
88.09,1.38,2.55,1.38,2.55,-2.55,-2.52,-2.80,-1.17,-1.17,-1.18
88.97,1.41,2.61,1.41,2.61,-2.61,-2.57,-2.85,-1.21,-1.21,-1.20
89.86,1.44,2.68,1.44,2.68,-2.68,-2.61,-2.91,-1.24,-1.24,-1.24
90.76,1.47,2.75,1.47,2.74,-2.74,-2.65,-2.97,-1.27,-1.27,-1.28
91.66,1.50,2.81,1.49,2.80,-2.80,-2.69,-3.03,-1.31,-1.31,-1.31
92.58,1.52,2.88,1.52,2.87,-2.87,-2.73,-3.09,-1.35,-1.35,-1.36
93.51,1.54,2.91,1.54,2.93,-2.93,-2.77,-3.15,-1.39,-1.38,-1.37
94.44,1.57,2.98,1.57,2.99,-2.99,-2.81,-3.22,-1.42,-1.42,-1.41
95.39,1.59,3.04,1.59,3.05,-3.05,-2.85,-3.29,-1.46,-1.46,-1.45
96.34,1.61,3.11,1.61,3.10,-3.10,-2.88,-3.36,-1.50,-1.50,-1.50
97.30,1.62,3.16,1.62,3.16,-3.16,-2.92,-3.43,-1.54,-1.54,-1.54
98.28,1.64,3.21,1.64,3.21,-3.21,-2.96,-3.50,-1.58,-1.58,-1.58
99.26,1.65,3.27,1.65,3.27,-3.27,-2.99,-3.58,-1.62,-1.62,-1.62
100.25,1.66,3.32,1.66,3.32,-3.32,-3.03,-3.65,-1.66,-1.66,-1.66
101.25,1.67,3.37,1.66,3.37,-3.37,-3.07,-3.73,-1.70,-1.70,-1.70
102.27,1.67,3.42,1.67,3.41,-3.41,-3.10,-3.80,-1.75,-1.75,-1.75
103.29,1.67,3.47,1.67,3.46,-3.46,-3.14,-3.88,-1.79,-1.79,-1.80
104.32,1.67,3.51,1.66,3.50,-3.50,-3.17,-3.96,-1.84,-1.84,-1.84
105.37,1.67,3.55,1.66,3.54,-3.54,-3.20,-4.03,-1.88,-1.89,-1.88
106.42,1.65,3.58,1.65,3.58,-3.58,-3.24,-4.11,-1.94,-1.93,-1.93
107.48,1.64,3.62,1.64,3.62,-3.62,-3.27,-4.18,-1.98,-1.98,-1.98
108.56,1.63,3.66,1.63,3.66,-3.66,-3.30,-4.25,-2.03,-2.03,-2.03
109.64,1.62,3.70,1.62,3.69,-3.69,-3.34,-4.32,-2.08,-2.08,-2.08
110.74,1.60,3.71,1.60,3.73,-3.73,-3.37,-4.39,-2.13,-2.13,-2.12
111.85,1.59,3.75,1.58,3.76,-3.76,-3.40,-4.45,-2.17,-2.18,-2.17
112.97,1.56,3.79,1.57,3.79,-3.79,-3.43,-4.51,-2.23,-2.23,-2.23
114.10,1.54,3.81,1.55,3.82,-3.82,-3.46,-4.57,-2.28,-2.27,-2.27
115.24,1.53,3.85,1.52,3.85,-3.85,-3.50,-4.62,-2.32,-2.32,-2.32
116.39,1.51,3.89,1.50,3.87,-3.87,-3.53,-4.66,-2.36,-2.37,-2.38
117.55,1.48,3.90,1.48,3.90,-3.90,-3.55,-4.70,-2.42,-2.42,-2.43
118.73,1.45,3.92,1.45,3.92,-3.92,-3.58,-4.74,-2.47,-2.47,-2.47
119.92,1.43,3.94,1.43,3.94,-3.94,-3.61,-4.76,-2.51,-2.51,-2.51
121.12,1.40,3.96,1.40,3.96,-3.96,-3.64,-4.78,-2.56,-2.56,-2.56
122.33,1.38,3.98,1.37,3.98,-3.98,-3.67,-4.79,-2.60,-2.60,-2.60
123.55,1.35,3.99,1.34,3.99,-3.99,-3.69,-4.79,-2.64,-2.65,-2.64
124.79,1.32,4.00,1.31,4.00,-4.00,-3.72,-4.79,-2.68,-2.69,-2.69
126.03,1.29,4.01,1.28,4.01,-4.01,-3.74,-4.78,-2.72,-2.73,-2.72
127.29,1.25,4.01,1.25,4.02,-4.02,-3.77,-4.76,-2.77,-2.77,-2.76
128.57,1.22,4.04,1.22,4.03,-4.03,-3.79,-4.73,-2.81,-2.81,-2.82
129.85,1.19,4.04,1.19,4.03,-4.03,-3.81,-4.69,-2.85,-2.85,-2.85
131.15,1.15,4.03,1.16,4.04,-4.04,-3.83,-4.65,-2.89,-2.88,-2.89
132.46,1.13,4.06,1.13,4.05,-4.05,-3.86,-4.60,-2.92,-2.92,-2.93
133.79,1.10,4.05,1.10,4.05,-4.05,-3.87,-4.54,-2.96,-2.95,-2.95
135.12,1.07,4.06,1.08,4.06,-4.06,-3.89,-4.48,-2.99,-2.98,-2.99
136.48,1.04,4.05,1.05,4.07,-4.07,-3.91,-4.41,-3.03,-3.01,-3.01
137.84,1.02,4.05,1.03,4.07,-4.07,-3.93,-4.33,-3.05,-3.04,-3.03
139.22,1.01,4.08,1.01,4.08,-4.08,-3.94,-4.25,-3.07,-3.06,-3.07
140.61,0.99,4.09,1.00,4.08,-4.08,-3.95,-4.17,-3.09,-3.09,-3.10
142.02,0.98,4.08,0.98,4.09,-4.09,-3.97,-4.08,-3.11,-3.11,-3.10
143.44,0.97,4.09,0.96,4.09,-4.09,-3.98,-3.99,-3.12,-3.12,-3.12
144.87,0.95,4.09,0.95,4.09,-4.09,-3.98,-3.89,-3.14,-3.14,-3.14
146.32,0.94,4.10,0.93,4.09,-4.09,-3.99,-3.80,-3.15,-3.16,-3.16
147.78,0.92,4.09,0.91,4.09,-4.09,-4.00,-3.70,-3.17,-3.18,-3.17
149.26,0.91,4.09,0.90,4.09,-4.09,-4.00,-3.60,-3.18,-3.19,-3.18
150.75,0.88,4.09,0.88,4.08,-4.08,-4.00,-3.50,-3.20,-3.21,-3.21
152.26,0.86,4.08,0.85,4.08,-4.08,-4.00,-3.40,-3.22,-3.22,-3.22
153.78,0.83,4.06,0.83,4.07,-4.07,-4.00,-3.30,-3.24,-3.24,-3.24
155.32,0.81,4.06,0.80,4.05,-4.05,-4.00,-3.19,-3.25,-3.25,-3.25
156.88,0.77,4.03,0.77,4.04,-4.04,-3.99,-3.09,-3.27,-3.27,-3.26
158.44,0.74,4.02,0.74,4.02,-4.02,-3.99,-2.99,-3.29,-3.28,-3.28
160.03,0.71,4.01,0.70,4.00,-4.00,-3.98,-2.89,-3.30,-3.30,-3.31
161.63,0.66,3.99,0.67,3.98,-3.98,-3.96,-2.79,-3.33,-3.32,-3.33
163.24,0.63,3.97,0.63,3.96,-3.96,-3.95,-2.69,-3.33,-3.33,-3.34
164.88,0.59,3.94,0.58,3.94,-3.94,-3.93,-2.60,-3.35,-3.35,-3.35
166.53,0.54,3.90,0.54,3.91,-3.91,-3.91,-2.50,-3.37,-3.37,-3.37
168.19,0.49,3.88,0.49,3.88,-3.88,-3.89,-2.41,-3.39,-3.39,-3.39
169.87,0.44,3.85,0.44,3.85,-3.85,-3.87,-2.31,-3.42,-3.41,-3.41
171.57,0.39,3.82,0.39,3.82,-3.82,-3.84,-2.22,-3.44,-3.44,-3.43
173.29,0.33,3.78,0.33,3.79,-3.79,-3.81,-2.13,-3.46,-3.46,-3.45
175.02,0.28,3.75,0.27,3.76,-3.76,-3.77,-2.04,-3.48,-3.48,-3.47
176.77,0.21,3.72,0.21,3.72,-3.72,-3.74,-1.95,-3.51,-3.51,-3.51
178.54,0.15,3.68,0.15,3.68,-3.68,-3.70,-1.87,-3.53,-3.53,-3.54
180.32,0.08,3.64,0.08,3.64,-3.64,-3.66,-1.78,-3.56,-3.56,-3.56
182.13,0.01,3.59,0.01,3.59,-3.59,-3.61,-1.70,-3.59,-3.59,-3.59
183.95,-0.07,3.55,-0.07,3.55,-3.55,-3.56,-1.62,-3.62,-3.62,-3.62
185.79,-0.14,3.50,-0.15,3.50,-3.50,-3.51,-1.53,-3.64,-3.64,-3.64
187.65,-0.22,3.46,-0.23,3.44,-3.44,-3.45,-1.46,-3.66,-3.67,-3.68
189.52,-0.32,3.38,-0.31,3.38,-3.38,-3.39,-1.38,-3.70,-3.69,-3.70
191.42,-0.40,3.32,-0.40,3.32,-3.32,-3.33,-1.30,-3.72,-3.72,-3.72
193.33,-0.49,3.24,-0.49,3.25,-3.25,-3.27,-1.23,-3.74,-3.74,-3.73
195.27,-0.58,3.17,-0.59,3.18,-3.18,-3.20,-1.15,-3.76,-3.76,-3.76
197.22,-0.69,3.09,-0.69,3.10,-3.10,-3.12,-1.08,-3.79,-3.78,-3.78
199.19,-0.78,3.04,-0.79,3.02,-3.02,-3.04,-1.01,-3.80,-3.80,-3.82
201.18,-0.89,2.94,-0.89,2.93,-2.93,-2.96,-0.94,-3.82,-3.82,-3.83
203.19,-1.00,2.84,-1.00,2.84,-2.84,-2.88,-0.87,-3.84,-3.84,-3.84
205.23,-1.11,2.75,-1.11,2.75,-2.75,-2.79,-0.81,-3.86,-3.86,-3.86
207.28,-1.22,2.64,-1.22,2.65,-2.65,-2.69,-0.74,-3.87,-3.87,-3.86
209.35,-1.34,2.55,-1.34,2.55,-2.55,-2.60,-0.68,-3.89,-3.89,-3.89
211.44,-1.46,2.44,-1.46,2.44,-2.44,-2.50,-0.62,-3.90,-3.90,-3.91
213.56,-1.58,2.33,-1.58,2.33,-2.33,-2.39,-0.56,-3.91,-3.91,-3.92
215.69,-1.71,2.20,-1.71,2.21,-2.21,-2.28,-0.50,-3.93,-3.92,-3.91
217.85,-1.84,2.08,-1.84,2.09,-2.09,-2.17,-0.44,-3.93,-3.93,-3.92
220.03,-1.96,1.98,-1.97,1.97,-1.97,-2.05,-0.39,-3.93,-3.93,-3.94
222.23,-2.09,1.86,-2.10,1.84,-1.84,-1.93,-0.33,-3.93,-3.94,-3.95
224.45,-2.23,1.70,-2.24,1.70,-1.70,-1.80,-0.28,-3.93,-3.94,-3.93
226.70,-2.37,1.57,-2.37,1.56,-1.56,-1.67,-0.23,-3.93,-3.94,-3.94
228.96,-2.51,1.43,-2.51,1.42,-1.42,-1.54,-0.18,-3.93,-3.93,-3.94
231.25,-2.66,1.26,-2.66,1.27,-1.27,-1.40,-0.13,-3.93,-3.93,-3.92
233.57,-2.80,1.11,-2.80,1.12,-1.12,-1.26,-0.09,-3.92,-3.92,-3.91
235.90,-2.95,0.95,-2.95,0.96,-0.96,-1.12,-0.04,-3.91,-3.91,-3.91
238.26,-3.09,0.81,-3.10,0.80,-0.80,-0.97,-0.00,-3.89,-3.89,-3.90
240.64,-3.25,0.63,-3.25,0.63,-0.63,-0.82,0.04,-3.88,-3.88,-3.88
243.05,-3.39,0.47,-3.40,0.46,-0.46,-0.67,0.08,-3.85,-3.86,-3.86
245.48,-3.55,0.29,-3.55,0.29,-0.29,-0.52,0.11,-3.84,-3.84,-3.84
247.93,-3.70,0.12,-3.71,0.11,-0.11,-0.36,0.14,-3.82,-3.82,-3.82
250.41,-3.85,-0.04,-3.86,-0.06,0.06,-0.20,0.18,-3.79,-3.80,-3.81
252.92,-4.01,-0.24,-4.02,-0.24,0.24,-0.04,0.21,-3.77,-3.78,-3.77
255.45,-4.17,-0.42,-4.18,-0.42,0.42,0.13,0.23,-3.75,-3.75,-3.75
258.00,-4.32,-0.60,-4.33,-0.60,0.60,0.29,0.26,-3.72,-3.73,-3.72
260.58,-4.47,-0.77,-4.49,-0.79,0.79,0.46,0.28,-3.69,-3.70,-3.70
263.19,-4.63,-0.95,-4.64,-0.97,0.97,0.62,0.31,-3.66,-3.68,-3.68
265.82,-4.78,-1.13,-4.80,-1.15,1.15,0.79,0.33,-3.64,-3.65,-3.65
268.48,-4.93,-1.31,-4.94,-1.32,1.32,0.95,0.35,-3.61,-3.62,-3.63
271.16,-5.07,-1.48,-5.08,-1.48,1.48,1.11,0.36,-3.59,-3.60,-3.59
273.87,-5.21,-1.64,-5.21,-1.64,1.64,1.27,0.38,-3.57,-3.57,-3.57
276.61,-5.34,-1.81,-5.33,-1.78,1.78,1.43,0.40,-3.56,-3.55,-3.54
279.38,-5.45,-1.93,-5.44,-1.92,1.92,1.58,0.41,-3.53,-3.52,-3.52
282.17,-5.55,-2.06,-5.53,-2.03,2.03,1.73,0.42,-3.52,-3.49,-3.49
284.99,-5.64,-2.18,-5.60,-2.13,2.13,1.87,0.44,-3.51,-3.46,-3.47
287.84,-5.70,-2.26,-5.66,-2.22,2.22,2.01,0.45,-3.48,-3.43,-3.44
290.72,-5.74,-2.34,-5.69,-2.29,2.29,2.14,0.46,-3.45,-3.40,-3.40
293.63,-5.76,-2.38,-5.72,-2.34,2.34,2.26,0.47,-3.42,-3.37,-3.38
296.57,-5.76,-2.42,-5.73,-2.38,2.38,2.37,0.48,-3.38,-3.34,-3.35
299.53,-5.75,-2.43,-5.72,-2.41,2.41,2.48,0.49,-3.34,-3.31,-3.32
302.53,-5.72,-2.43,-5.71,-2.43,2.43,2.57,0.50,-3.30,-3.28,-3.29
305.55,-5.68,-2.44,-5.68,-2.44,2.44,2.66,0.51,-3.24,-3.25,-3.24
308.61,-5.63,-2.42,-5.66,-2.44,2.44,2.74,0.52,-3.19,-3.21,-3.22
311.69,-5.59,-2.41,-5.63,-2.45,2.45,2.80,0.53,-3.14,-3.18,-3.18
314.81,-5.55,-2.41,-5.60,-2.46,2.46,2.85,0.54,-3.10,-3.15,-3.14
317.96,-5.53,-2.42,-5.58,-2.47,2.47,2.90,0.55,-3.07,-3.11,-3.11
321.14,-5.51,-2.43,-5.57,-2.48,2.48,2.93,0.56,-3.03,-3.08,-3.08
324.35,-5.51,-2.46,-5.56,-2.50,2.50,2.95,0.57,-3.01,-3.05,-3.05
327.59,-5.51,-2.50,-5.55,-2.53,2.53,2.96,0.58,-2.98,-3.02,-3.02
330.87,-5.52,-2.53,-5.56,-2.56,2.56,2.96,0.59,-2.96,-2.99,-2.99
334.18,-5.54,-2.57,-5.56,-2.59,2.59,2.95,0.60,-2.95,-2.97,-2.97
337.52,-5.55,-2.61,-5.56,-2.62,2.62,2.94,0.61,-2.93,-2.94,-2.94
340.90,-5.57,-2.66,-5.56,-2.65,2.65,2.91,0.63,-2.92,-2.92,-2.91
344.30,-5.58,-2.69,-5.56,-2.67,2.67,2.87,0.64,-2.91,-2.89,-2.89
347.75,-5.59,-2.73,-5.55,-2.68,2.68,2.83,0.65,-2.91,-2.87,-2.86
351.23,-5.58,-2.74,-5.53,-2.68,2.68,2.78,0.67,-2.90,-2.85,-2.85
354.74,-5.57,-2.74,-5.49,-2.67,2.67,2.73,0.68,-2.91,-2.83,-2.83
358.28,-5.50,-2.69,-5.45,-2.64,2.64,2.67,0.70,-2.86,-2.81,-2.81
361.87,-5.42,-2.63,-5.39,-2.61,2.61,2.60,0.72,-2.81,-2.79,-2.79
365.49,-5.33,-2.57,-5.33,-2.56,2.56,2.53,0.73,-2.77,-2.77,-2.76
369.14,-5.24,-2.49,-5.25,-2.50,2.50,2.46,0.75,-2.74,-2.75,-2.75
372.83,-5.14,-2.41,-5.16,-2.43,2.43,2.39,0.77,-2.71,-2.73,-2.73
376.56,-5.04,-2.33,-5.06,-2.35,2.35,2.31,0.79,-2.69,-2.71,-2.71
380.33,-4.94,-2.26,-4.96,-2.27,2.27,2.23,0.81,-2.67,-2.69,-2.68
384.13,-4.83,-2.17,-4.85,-2.18,2.18,2.15,0.83,-2.65,-2.67,-2.67
387.97,-4.73,-2.09,-4.74,-2.09,2.09,2.07,0.85,-2.64,-2.65,-2.65
391.85,-4.61,-1.98,-4.62,-2.00,2.00,1.99,0.87,-2.61,-2.62,-2.63
395.77,-4.51,-1.91,-4.51,-1.91,1.91,1.91,0.89,-2.61,-2.60,-2.60
399.73,-4.39,-1.81,-4.40,-1.82,1.82,1.83,0.91,-2.58,-2.58,-2.58
403.72,-4.28,-1.72,-4.28,-1.73,1.73,1.75,0.93,-2.56,-2.56,-2.56
407.76,-4.17,-1.63,-4.17,-1.63,1.63,1.67,0.96,-2.54,-2.54,-2.54
411.84,-4.07,-1.56,-4.06,-1.55,1.55,1.59,0.98,-2.53,-2.51,-2.51
415.96,-3.95,-1.46,-3.95,-1.46,1.46,1.51,1.00,-2.50,-2.49,-2.49
420.12,-3.84,-1.37,-3.84,-1.37,1.37,1.44,1.02,-2.47,-2.47,-2.47
424.32,-3.74,-1.30,-3.73,-1.29,1.29,1.36,1.04,-2.45,-2.45,-2.44
428.56,-3.63,-1.21,-3.63,-1.21,1.21,1.29,1.06,-2.42,-2.42,-2.42
432.85,-3.53,-1.13,-3.53,-1.14,1.14,1.22,1.08,-2.40,-2.40,-2.40
437.18,-3.43,-1.06,-3.44,-1.07,1.07,1.15,1.10,-2.37,-2.37,-2.37
441.55,-3.32,-0.98,-3.35,-1.00,1.00,1.08,1.12,-2.32,-2.35,-2.34
445.96,-3.23,-0.91,-3.27,-0.94,0.94,1.01,1.14,-2.29,-2.32,-2.33
450.42,-3.16,-0.86,-3.18,-0.89,0.89,0.95,1.15,-2.27,-2.30,-2.31
454.93,-3.10,-0.84,-3.11,-0.84,0.84,0.89,1.17,-2.27,-2.27,-2.27
459.48,-3.03,-0.79,-3.03,-0.79,0.79,0.83,1.18,-2.24,-2.24,-2.25
464.07,-2.97,-0.75,-2.96,-0.75,0.75,0.77,1.19,-2.22,-2.21,-2.22
468.71,-2.91,-0.73,-2.89,-0.71,0.71,0.71,1.20,-2.20,-2.19,-2.18
473.40,-2.84,-0.68,-2.83,-0.67,0.67,0.66,1.21,-2.17,-2.16,-2.16
478.13,-2.77,-0.64,-2.76,-0.64,0.64,0.60,1.22,-2.14,-2.13,-2.13
