frequency,raw,error,smoothed,error_smoothed,equalization,parametric_eq,equalized_raw,equalized_smoothed,target
20,4.45,1.66,4.43,1.65,-1.65,-1.49,2.80,2.79,2.79
21,4.60,1.82,4.60,1.81,-1.81,-1.71,2.79,2.78,2.78
22,4.74,1.96,4.76,1.98,-1.98,-1.95,2.76,2.78,2.78
23,4.91,2.13,4.92,2.14,-2.14,-2.20,2.77,2.78,2.78
24,5.05,2.27,5.08,2.30,-2.30,-2.47,2.75,2.78,2.78
25,5.22,2.45,5.23,2.46,-2.46,-2.75,2.76,2.77,2.77
26,5.36,2.59,5.38,2.61,-2.61,-3.02,2.75,2.77,2.77
27,5.52,2.75,5.53,2.76,-2.76,-3.27,2.76,2.77,2.77
28,5.68,2.92,5.66,2.90,-2.90,-3.49,2.78,2.76,2.76
29,5.82,3.06,5.78,3.03,-3.03,-3.67,2.79,2.76,2.76
30,5.91,3.16,5.89,3.14,-3.14,-3.79,2.77,2.75,2.75
31,6.01,3.26,5.98,3.23,-3.23,-3.85,2.78,2.75,2.75
32,6.05,3.31,6.05,3.31,-3.31,-3.86,2.74,2.74,2.74
33,6.11,3.37,6.11,3.37,-3.37,-3.81,2.74,2.74,2.74
34,6.15,3.42,6.15,3.42,-3.42,-3.73,2.73,2.73,2.73
35,6.17,3.45,6.18,3.46,-3.46,-3.62,2.71,2.72,2.72
36,6.20,3.49,6.20,3.49,-3.49,-3.50,2.71,2.71,2.71
37,6.21,3.50,6.22,3.51,-3.51,-3.36,2.70,2.71,2.71
38,6.21,3.51,6.22,3.53,-3.53,-3.23,2.68,2.70,2.70
39,6.21,3.52,6.22,3.54,-3.54,-3.11,2.67,2.69,2.69
40,6.21,3.53,6.21,3.54,-3.54,-2.99,2.67,2.68,2.68
41,6.20,3.54,6.20,3.53,-3.53,-2.89,2.67,2.66,2.66
42,6.17,3.52,6.17,3.52,-3.52,-2.79,2.65,2.65,2.65
43,6.13,3.49,6.13,3.49,-3.49,-2.71,2.64,2.64,2.64
44,6.09,3.46,6.07,3.45,-3.45,-2.65,2.64,2.63,2.63
45,5.98,3.37,6.00,3.39,-3.39,-2.59,2.59,2.61,2.61
46,5.94,3.34,5.91,3.32,-3.32,-2.55,2.62,2.60,2.60
47,5.83,3.25,5.81,3.23,-3.23,-2.51,2.60,2.58,2.58
48,5.72,3.16,5.69,3.13,-3.13,-2.49,2.59,2.56,2.56
49,5.56,3.02,5.56,3.02,-3.02,-2.47,2.54,2.54,2.54
50,5.41,2.88,5.42,2.90,-2.90,-2.46,2.51,2.53,2.53
51,5.25,2.74,5.27,2.77,-2.77,-2.46,2.48,2.51,2.51
52,5.13,2.65,5.13,2.64,-2.64,-2.47,2.49,2.48,2.48
53,4.98,2.52,4.98,2.51,-2.51,-2.47,2.47,2.46,2.46
54,4.84,2.40,4.83,2.39,-2.39,-2.49,2.45,2.44,2.44
55,4.70,2.28,4.69,2.27,-2.27,-2.50,2.43,2.42,2.42
56,4.57,2.18,4.56,2.17,-2.17,-2.52,2.40,2.39,2.39
57,4.44,2.07,4.45,2.08,-2.08,-2.54,2.36,2.37,2.37
58,4.33,1.99,4.35,2.01,-2.01,-2.56,2.32,2.34,2.34
59,4.25,1.94,4.28,1.96,-1.96,-2.58,2.29,2.31,2.31
60,4.20,1.91,4.22,1.94,-1.94,-2.60,2.26,2.29,2.29
61,4.16,1.90,4.19,1.94,-1.94,-2.62,2.22,2.26,2.26
62,4.20,1.97,4.19,1.96,-1.96,-2.64,2.24,2.23,2.23
63,4.19,1.99,4.20,2.00,-2.00,-2.66,2.19,2.20,2.20
64,4.20,2.03,4.23,2.06,-2.06,-2.68,2.14,2.17,2.17
65,4.29,2.16,4.27,2.13,-2.13,-2.69,2.16,2.13,2.13
66,4.31,2.21,4.31,2.21,-2.21,-2.71,2.10,2.10,2.10
67,4.40,2.33,4.36,2.30,-2.30,-2.73,2.10,2.07,2.07
68,4.44,2.41,4.42,2.39,-2.39,-2.75,2.05,2.03,2.03
69,4.46,2.46,4.47,2.47,-2.47,-2.77,1.99,2.00,2.00
70,4.55,2.59,4.52,2.56,-2.56,-2.79,1.99,1.96,1.96
71,4.54,2.62,4.57,2.65,-2.65,-2.81,1.89,1.92,1.92
72,4.63,2.74,4.62,2.73,-2.73,-2.83,1.90,1.89,1.89
73,4.66,2.81,4.67,2.82,-2.82,-2.86,1.84,1.85,1.85
74,4.72,2.91,4.72,2.91,-2.91,-2.88,1.81,1.81,1.81
75,4.76,2.99,4.76,2.99,-2.99,-2.91,1.77,1.77,1.77
76,4.80,3.07,4.81,3.08,-3.08,-2.95,1.72,1.73,1.73
77,4.86,3.17,4.86,3.17,-3.17,-2.98,1.69,1.69,1.69
78,4.93,3.28,4.91,3.26,-3.26,-3.02,1.67,1.65,1.65
79,4.96,3.35,4.96,3.35,-3.35,-3.06,1.61,1.61,1.61
80,5.01,3.44,5.01,3.44,-3.44,-3.11,1.57,1.57,1.57
81,5.04,3.51,5.06,3.53,-3.53,-3.15,1.51,1.53,1.53
82,5.09,3.60,5.10,3.62,-3.62,-3.20,1.47,1.49,1.49
83,5.15,3.70,5.15,3.70,-3.70,-3.26,1.45,1.45,1.45
84,5.21,3.80,5.20,3.79,-3.79,-3.31,1.42,1.41,1.41
85,5.23,3.87,5.25,3.88,-3.88,-3.37,1.35,1.36,1.36
86,5.32,4.00,5.29,3.97,-3.97,-3.44,1.35,1.32,1.32
87,5.32,4.04,5.33,4.05,-4.05,-3.50,1.27,1.28,1.28
88,5.38,4.14,5.37,4.13,-4.13,-3.57,1.25,1.24,1.24
89,5.36,4.16,5.40,4.20,-4.20,-3.64,1.16,1.20,1.20
90,5.46,4.30,5.43,4.27,-4.27,-3.72,1.19,1.16,1.16
91,5.44,4.32,5.45,4.33,-4.33,-3.80,1.11,1.12,1.12
92,5.46,4.39,5.47,4.39,-4.39,-3.87,1.07,1.07,1.07
93,5.51,4.48,5.48,4.45,-4.45,-3.96,1.06,1.03,1.03
94,5.48,4.49,5.49,4.50,-4.50,-4.04,0.98,0.99,0.99
95,5.48,4.53,5.50,4.54,-4.54,-4.13,0.94,0.95,0.95
96,5.51,4.60,5.50,4.59,-4.59,-4.21,0.92,0.91,0.91
97,5.49,4.62,5.50,4.63,-4.63,-4.30,0.86,0.87,0.87
98,5.52,4.69,5.50,4.67,-4.67,-4.39,0.85,0.83,0.83
99,5.50,4.71,5.50,4.71,-4.71,-4.48,0.79,0.79,0.79
100,5.46,4.70,5.49,4.74,-4.74,-4.57,0.72,0.75,0.76
101,5.45,4.73,5.49,4.78,-4.78,-4.67,0.67,0.71,0.72
102,5.50,4.82,5.48,4.81,-4.81,-4.76,0.69,0.66,0.68
104,5.50,4.89,5.46,4.84,-4.84,-4.94,0.66,0.62,0.61
105,5.46,4.89,5.44,4.86,-4.86,-5.03,0.60,0.58,0.57
106,5.43,4.90,5.42,4.88,-4.88,-5.12,0.55,0.54,0.53
107,5.39,4.89,5.39,4.89,-4.89,-5.21,0.50,0.50,0.50
108,5.36,4.90,5.37,4.90,-4.90,-5.29,0.46,0.46,0.46
109,5.32,4.89,5.34,4.91,-4.91,-5.37,0.41,0.43,0.43
110,5.29,4.90,5.31,4.92,-4.92,-5.45,0.37,0.39,0.39
111,5.26,4.90,5.29,4.93,-4.93,-5.53,0.33,0.36,0.36
112,5.29,4.96,5.27,4.94,-4.94,-5.60,0.35,0.33,0.33
113,5.27,4.97,5.25,4.96,-4.96,-5.66,0.31,0.29,0.30
114,5.23,4.97,5.23,4.97,-4.97,-5.73,0.26,0.26,0.26
115,5.20,4.97,5.21,4.99,-4.99,-5.78,0.21,0.22,0.23
117,5.18,5.01,5.18,5.00,-5.00,-5.88,0.18,0.19,0.17
118,5.17,5.03,5.15,5.00,-5.00,-5.92,0.17,0.15,0.14
119,5.13,5.02,5.12,5.00,-5.00,-5.95,0.13,0.12,0.11
120,5.09,5.00,5.08,5.00,-5.00,-5.98,0.09,0.08,0.09
121,5.05,4.99,5.04,4.99,-4.99,-6.00,0.06,0.05,0.06
123,4.97,4.97,4.99,4.98,-4.98,-6.02,-0.01,0.01,0.00
124,4.94,4.96,4.95,4.97,-4.97,-6.02,-0.03,-0.02,-0.02
125,4.90,4.95,4.91,4.96,-4.96,-6.02,-0.06,-0.05,-0.05
126,4.86,4.93,4.87,4.95,-4.95,-6.01,-0.09,-0.08,-0.07
128,4.83,4.95,4.82,4.94,-4.94,-5.96,-0.11,-0.11,-0.12
129,4.79,4.93,4.78,4.93,-4.93,-5.93,-0.14,-0.14,-0.14
130,4.75,4.92,4.75,4.91,-4.91,-5.90,-0.16,-0.17,-0.17
131,4.71,4.90,4.71,4.90,-4.90,-5.86,-0.19,-0.20,-0.19
133,4.67,4.90,4.67,4.89,-4.89,-5.76,-0.22,-0.23,-0.23
134,4.63,4.88,4.63,4.88,-4.88,-5.71,-0.25,-0.25,-0.25
135,4.59,4.86,4.59,4.87,-4.87,-5.65,-0.28,-0.28,-0.27
137,4.55,4.86,4.56,4.87,-4.87,-5.52,-0.32,-0.31,-0.31
138,4.50,4.83,4.52,4.86,-4.86,-5.46,-0.36,-0.34,-0.33
140,4.48,4.85,4.49,4.85,-4.85,-5.31,-0.37,-0.36,-0.37
141,4.47,4.86,4.45,4.84,-4.84,-5.24,-0.37,-0.39,-0.39
142,4.43,4.84,4.42,4.83,-4.83,-5.16,-0.40,-0.41,-0.41
144,4.39,4.83,4.39,4.82,-4.82,-5.01,-0.43,-0.44,-0.44
145,4.35,4.81,4.35,4.81,-4.81,-4.93,-0.46,-0.46,-0.46
147,4.31,4.80,4.32,4.80,-4.80,-4.77,-0.49,-0.48,-0.49
148,4.28,4.78,4.28,4.79,-4.79,-4.69,-0.51,-0.51,-0.50
150,4.24,4.77,4.24,4.77,-4.77,-4.53,-0.53,-0.53,-0.53
151,4.20,4.75,4.20,4.75,-4.75,-4.45,-0.55,-0.55,-0.55
153,4.16,4.73,4.16,4.73,-4.73,-4.30,-0.57,-0.57,-0.57
154,4.13,4.72,4.12,4.71,-4.71,-4.22,-0.58,-0.59,-0.59
156,4.07,4.68,4.07,4.68,-4.68,-4.06,-0.61,-0.61,-0.61
157,4.01,4.64,4.03,4.65,-4.65,-3.99,-0.64,-0.63,-0.63
159,3.97,4.62,3.98,4.63,-4.63,-3.84,-0.66,-0.65,-0.65
160,3.93,4.59,3.93,4.59,-4.59,-3.76,-0.66,-0.67,-0.66
162,3.89,4.57,3.88,4.56,-4.56,-3.62,-0.67,-0.68,-0.68
164,3.82,4.52,3.82,4.52,-4.52,-3.48,-0.70,-0.70,-0.70
165,3.77,4.48,3.76,4.48,-4.48,-3.41,-0.71,-0.72,-0.71
167,3.71,4.44,3.70,4.44,-4.44,-3.28,-0.73,-0.73,-0.73
169,3.63,4.38,3.64,4.39,-4.39,-3.15,-0.76,-0.75,-0.75
170,3.58,4.34,3.57,4.33,-4.33,-3.09,-0.75,-0.76,-0.76
172,3.49,4.27,3.50,4.28,-4.28,-2.97,-0.79,-0.78,-0.78
174,3.41,4.21,3.43,4.22,-4.22,-2.85,-0.81,-0.79,-0.80
175,3.38,4.18,3.35,4.16,-4.16,-2.80,-0.78,-0.81,-0.80
177,3.27,4.09,3.27,4.09,-4.09,-2.69,-0.82,-0.82,-0.82
179,3.19,4.02,3.19,4.03,-4.03,-2.58,-0.84,-0.83,-0.83
181,3.11,3.96,3.12,3.96,-3.96,-2.47,-0.85,-0.85,-0.85
183,3.02,3.88,3.04,3.89,-3.89,-2.38,-0.87,-0.86,-0.86
184,2.95,3.82,2.95,3.83,-3.83,-2.33,-0.88,-0.87,-0.87
186,2.88,3.76,2.87,3.75,-3.75,-2.23,-0.87,-0.88,-0.88
188,2.80,3.69,2.79,3.68,-3.68,-2.14,-0.88,-0.89,-0.89
190,2.68,3.58,2.70,3.61,-3.61,-2.05,-0.93,-0.90,-0.90
192,2.63,3.55,2.61,3.53,-3.53,-1.97,-0.90,-0.92,-0.92
194,2.52,3.45,2.52,3.44,-3.44,-1.89,-0.92,-0.93,-0.93
196,2.43,3.37,2.42,3.35,-3.35,-1.81,-0.92,-0.94,-0.94
198,2.31,3.26,2.31,3.26,-3.26,-1.73,-0.95,-0.95,-0.95
200,2.21,3.16,2.21,3.16,-3.16,-1.65,-0.95,-0.95,-0.95
202,2.09,3.05,2.10,3.07,-3.07,-1.58,-0.98,-0.96,-0.96
204,2.00,2.97,1.99,2.97,-2.97,-1.51,-0.97,-0.97,-0.97
206,1.88,2.86,1.88,2.86,-2.86,-1.44,-0.98,-0.98,-0.98
208,1.77,2.76,1.78,2.76,-2.76,-1.37,-0.99,-0.99,-0.99
210,1.67,2.67,1.67,2.66,-2.66,-1.31,-0.99,-1.00,-1.00
212,1.53,2.53,1.56,2.56,-2.56,-1.25,-1.03,-1.00,-1.00
214,1.47,2.48,1.45,2.46,-2.46,-1.18,-0.99,-1.01,-1.01
216,1.35,2.37,1.34,2.36,-2.36,-1.12,-1.01,-1.02,-1.02
218,1.27,2.29,1.23,2.26,-2.26,-1.06,-0.99,-1.02,-1.02
221,1.11,2.14,1.12,2.15,-2.15,-0.98,-1.04,-1.03,-1.03
223,0.97,2.01,1.01,2.05,-2.05,-0.92,-1.08,-1.04,-1.04
225,0.91,1.95,0.90,1.94,-1.94,-0.86,-1.03,-1.04,-1.04
227,0.80,1.85,0.79,1.84,-1.84,-0.81,-1.04,-1.05,-1.05
229,0.68,1.73,0.67,1.73,-1.73,-0.76,-1.05,-1.05,-1.05
232,0.58,1.64,0.56,1.62,-1.62,-0.68,-1.04,-1.06,-1.06
234,0.44,1.50,0.44,1.51,-1.51,-0.62,-1.07,-1.06,-1.06
236,0.32,1.39,0.33,1.40,-1.40,-0.57,-1.08,-1.07,-1.07
239,0.22,1.30,0.22,1.29,-1.29,-0.49,-1.07,-1.07,-1.08
241,0.09,1.17,0.11,1.19,-1.19,-0.44,-1.10,-1.08,-1.08
244,-0.02,1.06,-0.01,1.08,-1.08,-0.37,-1.10,-1.08,-1.08
246,-0.13,0.96,-0.12,0.97,-0.97,-0.32,-1.10,-1.09,-1.09
248,-0.22,0.87,-0.23,0.87,-0.87,-0.27,-1.09,-1.09,-1.09
251,-0.33,0.77,-0.34,0.76,-0.76,-0.19,-1.09,-1.10,-1.10
253,-0.41,0.69,-0.46,0.65,-0.65,-0.15,-1.06,-1.10,-1.10
256,-0.57,0.53,-0.57,0.53,-0.53,-0.07,-1.10,-1.10,-1.10
259,-0.74,0.37,-0.69,0.41,-0.41,0.00,-1.15,-1.11,-1.11
261,-0.83,0.28,-0.82,0.29,-0.29,0.05,-1.12,-1.11,-1.11
264,-0.97,0.15,-0.95,0.17,-0.17,0.12,-1.14,-1.12,-1.12
266,-1.08,0.04,-1.09,0.03,-0.03,0.17,-1.11,-1.12,-1.12
269,-1.26,-0.14,-1.24,-0.11,0.11,0.25,-1.15,-1.12,-1.12
272,-1.43,-0.30,-1.40,-0.28,0.28,0.32,-1.15,-1.12,-1.13
274,-1.55,-0.42,-1.59,-0.46,0.46,0.37,-1.09,-1.13,-1.13
277,-1.72,-0.59,-1.80,-0.67,0.67,0.44,-1.05,-1.13,-1.13
280,-2.00,-0.87,-2.04,-0.91,0.91,0.52,-1.09,-1.13,-1.13
283,-2.26,-1.12,-2.31,-1.17,1.17,0.59,-1.09,-1.14,-1.14
286,-2.61,-1.47,-2.60,-1.46,1.46,0.67,-1.15,-1.14,-1.14
288,-2.88,-1.74,-2.90,-1.76,1.76,0.72,-1.12,-1.14,-1.14
291,-3.18,-2.04,-3.20,-2.06,2.06,0.79,-1.12,-1.14,-1.14
294,-3.51,-2.36,-3.50,-2.36,2.36,0.87,-1.15,-1.15,-1.15
297,-3.85,-2.70,-3.78,-2.63,2.63,0.94,-1.22,-1.15,-1.15
300,-4.06,-2.91,-4.03,-2.88,2.88,1.02,-1.18,-1.15,-1.15
303,-4.33,-3.18,-4.25,-3.10,3.10,1.10,-1.23,-1.15,-1.15
306,-4.52,-3.37,-4.44,-3.29,3.29,1.18,-1.23,-1.15,-1.15
309,-4.61,-3.45,-4.59,-3.44,3.44,1.25,-1.17,-1.16,-1.16
312,-4.71,-3.55,-4.72,-3.56,3.56,1.33,-1.15,-1.16,-1.16
316,-4.81,-3.65,-4.83,-3.67,3.67,1.44,-1.14,-1.16,-1.16
319,-4.88,-3.72,-4.92,-3.76,3.76,1.52,-1.12,-1.16,-1.16
322,-4.98,-3.82,-5.01,-3.85,3.85,1.60,-1.13,-1.16,-1.16
325,-5.09,-3.93,-5.10,-3.94,3.94,1.68,-1.15,-1.16,-1.16
328,-5.16,-3.99,-5.20,-4.04,4.04,1.76,-1.12,-1.17,-1.17
332,-5.31,-4.14,-5.31,-4.14,4.14,1.87,-1.17,-1.17,-1.17
335,-5.41,-4.24,-5.41,-4.25,4.25,1.96,-1.16,-1.17,-1.17
338,-5.52,-4.35,-5.53,-4.36,4.36,2.04,-1.16,-1.17,-1.17
342,-5.66,-4.49,-5.64,-4.47,4.47,2.15,-1.19,-1.17,-1.17
345,-5.73,-4.56,-5.75,-4.58,4.58,2.24,-1.15,-1.17,-1.17
349,-5.86,-4.69,-5.86,-4.69,4.69,2.36,-1.17,-1.17,-1.17
352,-6.00,-4.83,-5.96,-4.78,4.78,2.44,-1.22,-1.17,-1.17
356,-6.03,-4.85,-6.05,-4.87,4.87,2.56,-1.16,-1.18,-1.18
359,-6.13,-4.95,-6.12,-4.94,4.94,2.65,-1.19,-1.18,-1.18
363,-6.23,-5.05,-6.18,-5.00,5.00,2.77,-1.23,-1.18,-1.18
366,-6.24,-5.06,-6.23,-5.05,5.05,2.86,-1.19,-1.18,-1.18
370,-6.28,-5.10,-6.27,-5.09,5.09,2.99,-1.19,-1.18,-1.18
374,-6.30,-5.12,-6.30,-5.12,5.12,3.11,-1.18,-1.18,-1.18
377,-6.28,-5.10,-6.32,-5.14,5.14,3.20,-1.14,-1.18,-1.18
381,-6.33,-5.14,-6.34,-5.16,5.16,3.33,-1.17,-1.19,-1.19
385,-6.38,-5.19,-6.36,-5.18,5.18,3.45,-1.20,-1.19,-1.19
389,-6.38,-5.19,-6.38,-5.20,5.20,3.58,-1.18,-1.19,-1.19
393,-6.38,-5.19,-6.41,-5.22,5.22,3.70,-1.16,-1.19,-1.19
397,-6.43,-5.24,-6.43,-5.24,5.24,3.83,-1.19,-1.19,-1.19
401,-6.46,-5.27,-6.45,-5.26,5.26,3.95,-1.20,-1.19,-1.19
405,-6.46,-5.27,-6.47,-5.28,5.28,4.08,-1.18,-1.19,-1.19
409,-6.49,-5.30,-6.49,-5.30,5.30,4.20,-1.19,-1.19,-1.19
413,-6.53,-5.33,-6.51,-5.32,5.32,4.32,-1.21,-1.20,-1.20
417,-6.54,-5.34,-6.52,-5.33,5.33,4.44,-1.21,-1.20,-1.20
421,-6.52,-5.32,-6.53,-5.34,5.34,4.56,-1.18,-1.20,-1.20
425,-6.54,-5.34,-6.54,-5.34,5.34,4.68,-1.20,-1.20,-1.20
430,-6.54,-5.35,-6.54,-5.34,5.34,4.82,-1.20,-1.19,-1.19
434,-6.54,-5.35,-6.53,-5.34,5.34,4.93,-1.20,-1.19,-1.19
438,-6.51,-5.32,-6.52,-5.33,5.33,5.03,-1.18,-1.19,-1.19
443,-6.48,-5.29,-6.50,-5.32,5.32,5.16,-1.16,-1.19,-1.19
447,-6.48,-5.30,-6.48,-5.30,5.30,5.26,-1.18,-1.18,-1.18
451,-6.48,-5.30,-6.46,-5.28,5.28,5.35,-1.20,-1.18,-1.18
456,-6.45,-5.27,-6.43,-5.25,5.25,5.46,-1.20,-1.18,-1.18
460,-6.36,-5.19,-6.39,-5.23,5.23,5.53,-1.13,-1.17,-1.17
465,-6.35,-5.19,-6.35,-5.19,5.19,5.62,-1.16,-1.16,-1.16
470,-6.34,-5.19,-6.31,-5.15,5.15,5.70,-1.19,-1.15,-1.15
474,-6.28,-5.13,-6.26,-5.11,5.11,5.76,-1.17,-1.15,-1.15
479,-6.16,-5.02,-6.20,-5.06,5.06,5.82,-1.10,-1.14,-1.14
484,-6.14,-5.02,-6.14,-5.01,5.01,5.87,-1.13,-1.12,-1.12
489,-6.07,-4.96,-6.07,-4.96,4.96,5.90,-1.11,-1.11,-1.11
494,-5.98,-4.88,-6.00,-4.90,4.90,5.93,-1.08,-1.10,-1.10
499,-5.95,-4.87,-5.93,-4.85,4.85,5.94,-1.10,-1.08,-1.08
504,-5.86,-4.79,-5.85,-4.78,4.78,5.94,-1.08,-1.07,-1.07
509,-5.79,-4.74,-5.77,-4.72,4.72,5.93,-1.07,-1.05,-1.05
514,-5.68,-4.64,-5.69,-4.65,4.65,5.92,-1.03,-1.04,-1.04
519,-5.61,-4.59,-5.60,-4.58,4.58,5.89,-1.03,-1.02,-1.02
524,-5.50,-4.50,-5.51,-4.52,4.52,5.85,-0.98,-1.00,-1.00
529,-5.43,-4.45,-5.43,-4.45,4.45,5.80,-0.98,-0.98,-0.98
535,-5.31,-4.35,-5.34,-4.38,4.38,5.74,-0.93,-0.96,-0.96
540,-5.25,-4.32,-5.25,-4.32,4.32,5.68,-0.93,-0.93,-0.93
545,-5.16,-4.25,-5.16,-4.25,4.25,5.61,-0.91,-0.91,-0.91
551,-5.07,-4.18,-5.07,-4.19,4.19,5.52,-0.88,-0.89,-0.89
556,-5.02,-4.16,-4.98,-4.12,4.12,5.44,-0.90,-0.86,-0.86
562,-4.88,-4.04,-4.89,-4.06,4.06,5.34,-0.82,-0.84,-0.84
568,-4.81,-4.00,-4.80,-3.99,3.99,5.24,-0.82,-0.81,-0.81
573,-4.70,-3.92,-4.71,-3.93,3.93,5.15,-0.77,-0.78,-0.78
579,-4.61,-3.86,-4.61,-3.86,3.86,5.04,-0.75,-0.75,-0.75
585,-4.51,-3.79,-4.52,-3.79,3.79,4.93,-0.72,-0.72,-0.72
591,-4.42,-3.72,-4.42,-3.73,3.73,4.82,-0.69,-0.70,-0.70
596,-4.34,-3.67,-4.33,-3.66,3.66,4.73,-0.68,-0.67,-0.67
602,-4.22,-3.59,-4.24,-3.60,3.60,4.62,-0.62,-0.63,-0.63
608,-4.16,-3.56,-4.14,-3.54,3.54,4.51,-0.62,-0.60,-0.60
615,-4.05,-3.48,-4.05,-3.48,3.48,4.38,-0.57,-0.57,-0.57
621,-3.96,-3.42,-3.96,-3.42,3.42,4.27,-0.54,-0.54,-0.54
627,-3.86,-3.35,-3.87,-3.36,3.36,4.16,-0.50,-0.51,-0.51
633,-3.77,-3.30,-3.78,-3.31,3.31,4.06,-0.46,-0.47,-0.47
639,-3.71,-3.27,-3.68,-3.25,3.25,3.96,-0.46,-0.44,-0.44
646,-3.59,-3.19,-3.59,-3.19,3.19,3.84,-0.40,-0.40,-0.40
652,-3.50,-3.13,-3.50,-3.13,3.13,3.74,-0.37,-0.37,-0.37
659,-3.40,-3.07,-3.40,-3.07,3.07,3.63,-0.33,-0.33,-0.33
665,-3.30,-3.00,-3.30,-3.01,3.01,3.54,-0.29,-0.30,-0.30
672,-3.22,-2.96,-3.21,-2.95,2.95,3.43,-0.27,-0.26,-0.26
679,-3.11,-2.89,-3.11,-2.89,2.89,3.33,-0.22,-0.22,-0.22
686,-3.01,-2.82,-3.02,-2.83,2.83,3.24,-0.18,-0.19,-0.19
692,-2.94,-2.79,-2.93,-2.78,2.78,3.16,-0.16,-0.15,-0.15
699,-2.87,-2.76,-2.85,-2.74,2.74,3.06,-0.13,-0.11,-0.11
706,-2.75,-2.68,-2.77,-2.69,2.69,2.98,-0.06,-0.07,-0.07
713,-2.69,-2.65,-2.70,-2.66,2.66,2.89,-0.03,-0.04,-0.04
721,-2.62,-2.62,-2.63,-2.63,2.63,2.80,0.01,0.00,0.00
728,-2.57,-2.61,-2.57,-2.61,2.61,2.72,0.04,0.04,0.04
735,-2.51,-2.59,-2.52,-2.60,2.60,2.65,0.09,0.08,0.08
742,-2.46,-2.58,-2.48,-2.60,2.60,2.57,0.14,0.12,0.12
750,-2.45,-2.60,-2.44,-2.60,2.60,2.49,0.15,0.15,0.15
757,-2.43,-2.62,-2.41,-2.60,2.60,2.43,0.17,0.19,0.19
765,-2.41,-2.64,-2.38,-2.61,2.61,2.35,0.20,0.23,0.23
773,-2.38,-2.64,-2.35,-2.62,2.62,2.28,0.24,0.26,0.26
780,-2.32,-2.62,-2.33,-2.63,2.63,2.22,0.31,0.30,0.30
788,-2.28,-2.62,-2.32,-2.65,2.65,2.16,0.37,0.34,0.34
796,-2.26,-2.63,-2.31,-2.68,2.68,2.09,0.42,0.37,0.37
804,-2.28,-2.69,-2.30,-2.71,2.71,2.03,0.43,0.41,0.41
812,-2.27,-2.71,-2.29,-2.73,2.73,1.98,0.46,0.44,0.44
820,-2.30,-2.77,-2.29,-2.76,2.76,1.92,0.46,0.47,0.47
828,-2.29,-2.80,-2.27,-2.78,2.78,1.87,0.49,0.51,0.51
837,-2.26,-2.80,-2.24,-2.78,2.78,1.81,0.52,0.54,0.54
845,-2.23,-2.80,-2.19,-2.76,2.76,1.76,0.53,0.57,0.57
853,-2.13,-2.73,-2.12,-2.72,2.72,1.71,0.59,0.60,0.60
862,-2.05,-2.68,-2.03,-2.66,2.66,1.65,0.61,0.63,0.63
871,-1.93,-2.59,-1.91,-2.57,2.57,1.60,0.64,0.66,0.66
879,-1.79,-2.48,-1.77,-2.46,2.46,1.56,0.67,0.69,0.69
888,-1.68,-2.40,-1.62,-2.34,2.34,1.51,0.65,0.72,0.72
897,-1.50,-2.25,-1.45,-2.20,2.20,1.46,0.70,0.75,0.75
906,-1.20,-1.97,-1.28,-2.05,2.05,1.42,0.85,0.77,0.77
915,-1.03,-1.83,-1.11,-1.91,1.91,1.37,0.88,0.80,0.80
924,-0.93,-1.76,-0.95,-1.78,1.78,1.33,0.85,0.83,0.83
933,-0.80,-1.65,-0.80,-1.66,1.66,1.29,0.86,0.85,0.85
943,-0.66,-1.54,-0.67,-1.55,1.55,1.24,0.89,0.88,0.88
952,-0.55,-1.46,-0.54,-1.45,1.45,1.20,0.90,0.91,0.91
962,-0.42,-1.35,-0.42,-1.35,1.35,1.15,0.93,0.93,0.93
971,-0.32,-1.28,-0.31,-1.27,1.27,1.11,0.95,0.96,0.96
981,-0.21,-1.20,-0.20,-1.19,1.19,1.07,0.98,0.99,0.99
991,-0.09,-1.10,-0.10,-1.11,1.11,1.02,1.02,1.01,1.01
1001,0.01,-1.03,0.01,-1.04,1.04,0.98,1.05,1.04,1.04
1011,0.08,-0.99,0.10,-0.97,0.97,0.94,1.05,1.07,1.07
1021,0.22,-0.88,0.20,-0.90,0.90,0.89,1.12,1.10,1.10
1031,0.29,-0.83,0.29,-0.84,0.84,0.85,1.13,1.12,1.12
1041,0.37,-0.78,0.38,-0.78,0.78,0.81,1.15,1.15,1.15
1052,0.48,-0.70,0.46,-0.72,0.72,0.76,1.20,1.18,1.18
1062,0.55,-0.66,0.54,-0.67,0.67,0.72,1.22,1.21,1.21
1073,0.61,-0.63,0.62,-0.61,0.61,0.68,1.22,1.24,1.24
1084,0.72,-0.55,0.70,-0.56,0.56,0.63,1.28,1.27,1.27
1094,0.78,-0.51,0.79,-0.51,0.51,0.59,1.29,1.29,1.29
1105,0.83,-0.49,0.88,-0.45,0.45,0.54,1.28,1.32,1.32
1116,0.94,-0.41,0.97,-0.39,0.39,0.50,1.33,1.35,1.35
1128,1.08,-0.30,1.06,-0.32,0.32,0.45,1.40,1.38,1.38
1139,1.18,-0.24,1.16,-0.26,0.26,0.40,1.44,1.42,1.42
1150,1.29,-0.16,1.25,-0.19,0.19,0.36,1.48,1.45,1.45
1162,1.35,-0.13,1.35,-0.12,0.12,0.31,1.47,1.48,1.48
1173,1.44,-0.07,1.45,-0.06,0.06,0.26,1.50,1.51,1.51
1185,1.53,-0.01,1.55,0.01,-0.01,0.22,1.52,1.54,1.54
1197,1.64,0.07,1.65,0.08,-0.08,0.17,1.56,1.57,1.57
1209,1.74,0.13,1.75,0.15,-0.15,0.12,1.59,1.61,1.61
1221,1.86,0.22,1.85,0.21,-0.21,0.07,1.65,1.64,1.64
1233,1.98,0.31,1.95,0.28,-0.28,0.02,1.70,1.67,1.67
1246,2.08,0.37,2.05,0.34,-0.34,-0.03,1.74,1.71,1.71
1258,2.14,0.40,2.14,0.40,-0.40,-0.08,1.74,1.74,1.74
1271,2.23,0.46,2.24,0.46,-0.46,-0.13,1.77,1.77,1.77
1283,2.31,0.50,2.33,0.52,-0.52,-0.18,1.79,1.81,1.81
1296,2.42,0.58,2.43,0.58,-0.58,-0.23,1.84,1.84,1.84
1309,2.53,0.65,2.52,0.65,-0.65,-0.28,1.88,1.88,1.88
1322,2.61,0.70,2.62,0.71,-0.71,-0.33,1.90,1.91,1.91
1335,2.75,0.80,2.72,0.77,-0.77,-0.39,1.98,1.95,1.95
1349,2.80,0.81,2.82,0.83,-0.83,-0.44,1.97,1.99,1.99
1362,2.95,0.93,2.92,0.90,-0.90,-0.50,2.05,2.02,2.02
1376,3.03,0.97,3.03,0.96,-0.96,-0.55,2.07,2.06,2.06
1390,3.09,0.99,3.13,1.03,-1.03,-0.61,2.06,2.10,2.10
1404,3.26,1.12,3.24,1.10,-1.10,-0.66,2.16,2.14,2.14
1418,3.33,1.15,3.34,1.17,-1.17,-0.72,2.16,2.18,2.18
1432,3.48,1.27,3.45,1.24,-1.24,-0.78,2.24,2.21,2.21
1446,3.54,1.29,3.56,1.31,-1.31,-0.83,2.23,2.25,2.25
1461,3.66,1.37,3.67,1.38,-1.38,-0.90,2.28,2.29,2.29
1475,3.78,1.45,3.79,1.45,-1.45,-0.95,2.33,2.33,2.33
1490,3.90,1.53,3.90,1.53,-1.53,-1.01,2.37,2.37,2.37
1505,4.02,1.61,4.01,1.60,-1.60,-1.07,2.42,2.41,2.41
1520,4.14,1.68,4.12,1.67,-1.67,-1.14,2.47,2.46,2.46
1535,4.25,1.75,4.23,1.73,-1.73,-1.20,2.52,2.50,2.50
1550,4.33,1.79,4.34,1.80,-1.80,-1.26,2.53,2.54,2.54
1566,4.42,1.84,4.44,1.86,-1.86,-1.32,2.56,2.58,2.58
1582,4.52,1.90,4.54,1.91,-1.91,-1.38,2.61,2.62,2.62
1597,4.65,1.98,4.63,1.96,-1.96,-1.44,2.69,2.67,2.67
1613,4.73,2.02,4.72,2.01,-2.01,-1.51,2.72,2.71,2.71
1629,4.78,2.02,4.81,2.05,-2.05,-1.57,2.73,2.76,2.76
1646,4.90,2.10,4.89,2.09,-2.09,-1.63,2.81,2.80,2.80
1662,4.96,2.11,4.96,2.12,-2.12,-1.69,2.84,2.84,2.85
1679,5.00,2.11,5.03,2.14,-2.14,-1.76,2.86,2.89,2.89
1696,5.12,2.18,5.09,2.15,-2.15,-1.82,2.97,2.94,2.94
1713,5.16,2.18,5.14,2.16,-2.16,-1.88,3.00,2.98,2.98
1730,5.21,2.18,5.18,2.15,-2.15,-1.94,3.06,3.03,3.03
1747,5.19,2.11,5.21,2.13,-2.13,-1.99,3.06,3.08,3.08
1764,5.26,2.13,5.23,2.10,-2.10,-2.04,3.16,3.13,3.13
1782,5.27,2.09,5.25,2.07,-2.07,-2.10,3.20,3.18,3.18
1800,5.26,2.03,5.26,2.03,-2.03,-2.15,3.23,3.23,3.23
1818,5.25,1.96,5.27,1.99,-1.99,-2.19,3.26,3.29,3.29
1836,5.25,1.91,5.29,1.95,-1.95,-2.24,3.30,3.34,3.34
1854,5.30,1.90,5.31,1.91,-1.91,-2.28,3.39,3.40,3.40
