frequency,raw,smoothed,error,error_smoothed,equalization,parametric_eq,fixed_band_eq,equalized_raw,equalized_smoothed,target
20.00,9.40,9.40,3.05,3.05,-3.04,-3.24,-1.89,6.36,6.36,6.35
20.20,9.43,9.43,3.03,3.03,-3.03,-3.25,-1.94,6.40,6.40,6.40
20.40,9.47,9.46,3.02,3.02,-3.02,-3.26,-1.99,6.45,6.44,6.45
20.61,9.50,9.50,3.02,3.01,-3.02,-3.27,-2.05,6.48,6.48,6.48
20.81,9.53,9.53,3.00,3.01,-3.02,-3.28,-2.11,6.51,6.51,6.53
21.02,9.57,9.57,3.00,3.01,-3.03,-3.29,-2.17,6.54,6.54,6.57
21.23,9.62,9.62,3.03,3.03,-3.05,-3.30,-2.23,6.57,6.57,6.58
21.44,9.67,9.67,3.07,3.07,-3.07,-3.31,-2.30,6.60,6.60,6.60
21.66,9.73,9.73,3.10,3.11,-3.10,-3.32,-2.36,6.63,6.63,6.62
21.87,9.78,9.78,3.15,3.14,-3.14,-3.33,-2.43,6.64,6.64,6.63
22.09,9.83,9.83,3.18,3.18,-3.18,-3.34,-2.50,6.65,6.65,6.65
22.31,9.87,9.87,3.21,3.21,-3.22,-3.36,-2.57,6.65,6.65,6.66
22.54,9.91,9.92,3.25,3.26,-3.26,-3.37,-2.64,6.65,6.66,6.66
22.76,9.96,9.96,3.30,3.30,-3.28,-3.38,-2.72,6.67,6.67,6.66
22.99,10.00,9.99,3.35,3.33,-3.31,-3.39,-2.79,6.69,6.68,6.65
23.22,10.00,10.00,3.35,3.35,-3.32,-3.40,-2.87,6.68,6.68,6.65
23.45,10.00,10.00,3.35,3.35,-3.34,-3.42,-2.95,6.66,6.66,6.65
23.69,10.00,10.00,3.34,3.34,-3.35,-3.43,-3.03,6.65,6.64,6.66
23.92,10.00,10.01,3.34,3.35,-3.37,-3.44,-3.11,6.63,6.64,6.66
24.16,10.03,10.03,3.36,3.37,-3.39,-3.46,-3.20,6.64,6.64,6.67
24.40,10.08,10.07,3.40,3.40,-3.42,-3.47,-3.28,6.66,6.65,6.67
24.65,10.12,10.12,3.45,3.45,-3.47,-3.48,-3.37,6.65,6.65,6.66
24.89,10.17,10.17,3.51,3.51,-3.52,-3.50,-3.46,6.65,6.65,6.66
25.14,10.23,10.23,3.57,3.56,-3.57,-3.51,-3.55,6.66,6.65,6.66
25.39,10.29,10.30,3.62,3.63,-3.62,-3.53,-3.64,6.67,6.68,6.67
25.65,10.36,10.36,3.69,3.70,-3.66,-3.54,-3.73,6.70,6.70,6.67
25.91,10.43,10.41,3.77,3.75,-3.69,-3.56,-3.82,6.74,6.72,6.66
26.16,10.43,10.43,3.77,3.77,-3.72,-3.57,-3.91,6.71,6.71,6.66
26.43,10.41,10.41,3.75,3.75,-3.74,-3.59,-4.00,6.66,6.66,6.66
26.69,10.39,10.38,3.73,3.72,-3.77,-3.60,-4.09,6.62,6.61,6.66
26.96,10.36,10.39,3.70,3.73,-3.80,-3.62,-4.18,6.56,6.58,6.66
27.23,10.43,10.43,3.76,3.77,-3.83,-3.63,-4.26,6.60,6.60,6.66
27.50,10.51,10.51,3.85,3.85,-3.85,-3.65,-4.35,6.66,6.66,6.66
27.77,10.59,10.59,3.94,3.93,-3.87,-3.67,-4.43,6.72,6.71,6.65
28.05,10.65,10.62,4.00,3.98,-3.90,-3.68,-4.51,6.75,6.72,6.65
28.33,10.62,10.62,3.98,3.98,-3.94,-3.70,-4.59,6.68,6.68,6.64
28.62,10.60,10.60,3.96,3.96,-3.98,-3.72,-4.67,6.61,6.61,6.64
28.90,10.58,10.59,3.93,3.96,-4.02,-3.74,-4.73,6.56,6.57,6.64
29.19,10.62,10.63,3.99,3.99,-4.06,-3.76,-4.80,6.56,6.58,6.63
29.48,10.71,10.71,4.06,4.06,-4.08,-3.77,-4.86,6.63,6.62,6.65
29.78,10.79,10.78,4.15,4.14,-4.11,-3.79,-4.92,6.68,6.68,6.64
30.08,10.85,10.83,4.20,4.18,-4.13,-3.81,-4.97,6.72,6.70,6.65
30.38,10.83,10.84,4.19,4.20,-4.15,-3.83,-5.01,6.68,6.69,6.64
30.68,10.82,10.83,4.19,4.19,-4.16,-3.85,-5.05,6.66,6.66,6.63
30.99,10.81,10.81,4.18,4.18,-4.18,-3.87,-5.09,6.63,6.63,6.63
31.30,10.80,10.79,4.17,4.16,-4.19,-3.89,-5.11,6.61,6.60,6.63
31.61,10.79,10.78,4.16,4.15,-4.21,-3.91,-5.14,6.58,6.57,6.63
31.93,10.77,10.79,4.14,4.17,-4.23,-3.93,-5.15,6.53,6.56,6.62
32.24,10.84,10.85,4.23,4.23,-4.27,-3.95,-5.16,6.57,6.58,6.61
32.57,10.93,10.93,4.31,4.31,-4.30,-3.97,-5.17,6.63,6.63,6.62
32.89,11.02,11.00,4.40,4.39,-4.33,-4.00,-5.17,6.69,6.67,6.62
33.22,11.04,11.03,4.43,4.43,-4.36,-4.02,-5.16,6.68,6.68,6.60
33.55,11.03,11.03,4.43,4.43,-4.38,-4.04,-5.15,6.64,6.65,6.60
33.89,11.01,11.01,4.42,4.42,-4.41,-4.06,-5.13,6.60,6.60,6.59
34.23,11.00,10.99,4.40,4.40,-4.44,-4.09,-5.12,6.56,6.55,6.60
34.57,10.99,10.98,4.41,4.40,-4.46,-4.11,-5.09,6.53,6.52,6.58
34.92,10.98,11.00,4.40,4.42,-4.49,-4.13,-5.07,6.49,6.51,6.58
35.27,11.05,11.06,4.47,4.49,-4.52,-4.16,-5.04,6.53,6.55,6.58
35.62,11.15,11.14,4.58,4.57,-4.55,-4.18,-5.01,6.60,6.59,6.57
35.97,11.24,11.21,4.67,4.64,-4.58,-4.21,-4.98,6.66,6.63,6.57
36.33,11.24,11.24,4.66,4.67,-4.62,-4.23,-4.95,6.62,6.62,6.57
36.70,11.22,11.23,4.66,4.67,-4.64,-4.26,-4.92,6.58,6.59,6.56
37.06,11.21,11.21,4.65,4.65,-4.66,-4.28,-4.89,6.55,6.55,6.56
37.43,11.21,11.21,4.64,4.64,-4.66,-4.31,-4.86,6.55,6.55,6.57
37.81,11.21,11.21,4.64,4.64,-4.65,-4.33,-4.82,6.56,6.56,6.57
38.19,11.21,11.21,4.64,4.64,-4.63,-4.36,-4.79,6.58,6.58,6.56
38.57,11.21,11.21,4.64,4.64,-4.63,-4.39,-4.76,6.58,6.58,6.57
38.95,11.21,11.20,4.63,4.63,-4.63,-4.42,-4.74,6.57,6.57,6.57
39.34,11.20,11.19,4.63,4.62,-4.66,-4.44,-4.71,6.54,6.53,6.57
39.74,11.19,11.20,4.62,4.63,-4.69,-4.47,-4.69,6.50,6.51,6.56
40.14,11.22,11.25,4.65,4.68,-4.72,-4.50,-4.67,6.50,6.53,6.57
40.54,11.33,11.33,4.76,4.76,-4.75,-4.53,-4.65,6.57,6.57,6.56
40.94,11.43,11.40,4.87,4.84,-4.79,-4.56,-4.63,6.64,6.61,6.56
41.35,11.44,11.43,4.89,4.88,-4.82,-4.59,-4.62,6.62,6.61,6.55
41.76,11.42,11.43,4.87,4.88,-4.85,-4.62,-4.61,6.57,6.58,6.55
42.18,11.41,11.41,4.86,4.87,-4.88,-4.65,-4.60,6.53,6.54,6.55
42.60,11.41,11.41,4.88,4.87,-4.90,-4.68,-4.60,6.51,6.51,6.53
43.03,11.41,11.41,4.88,4.88,-4.91,-4.71,-4.60,6.50,6.50,6.52
43.46,11.41,11.41,4.89,4.90,-4.91,-4.74,-4.60,6.50,6.50,6.52
43.90,11.41,11.41,4.92,4.92,-4.92,-4.77,-4.61,6.49,6.49,6.49
44.33,11.41,11.41,4.94,4.93,-4.93,-4.80,-4.62,6.48,6.48,6.47
44.78,11.41,11.41,4.95,4.95,-4.95,-4.84,-4.63,6.46,6.46,6.45
45.23,11.41,11.41,4.96,4.97,-4.97,-4.87,-4.64,6.44,6.44,6.45
45.68,11.41,11.41,4.98,4.98,-4.98,-4.90,-4.66,6.43,6.43,6.43
46.13,11.41,11.41,5.00,4.99,-4.98,-4.93,-4.69,6.43,6.43,6.41
46.60,11.41,11.41,5.00,5.01,-4.99,-4.97,-4.71,6.42,6.42,6.41
47.06,11.41,11.41,5.02,5.02,-5.00,-5.00,-4.74,6.41,6.41,6.39
47.53,11.41,11.41,5.03,5.03,-5.02,-5.04,-4.78,6.39,6.39,6.38
48.01,11.41,11.39,5.03,5.02,-5.05,-5.07,-4.81,6.36,6.34,6.38
48.49,11.39,11.38,5.03,5.02,-5.09,-5.11,-4.85,6.30,6.29,6.36
48.97,11.37,11.43,5.03,5.09,-5.14,-5.14,-4.89,6.23,6.29,6.34
49.46,11.50,11.50,5.18,5.18,-5.18,-5.18,-4.94,6.32,6.32,6.32
49.96,11.63,11.58,5.33,5.28,-5.23,-5.21,-4.98,6.40,6.35,6.29
50.46,11.63,11.63,5.34,5.34,-5.28,-5.25,-5.03,6.35,6.35,6.29
50.96,11.61,11.63,5.33,5.35,-5.32,-5.29,-5.08,6.29,6.31,6.28
51.47,11.61,11.61,5.35,5.35,-5.35,-5.32,-5.14,6.26,6.26,6.26
51.99,11.61,11.61,5.37,5.36,-5.38,-5.36,-5.19,6.23,6.23,6.24
52.51,11.61,11.61,5.37,5.37,-5.39,-5.40,-5.25,6.22,6.22,6.24
53.03,11.61,11.61,5.37,5.38,-5.39,-5.44,-5.31,6.22,6.22,6.23
53.56,11.61,11.61,5.39,5.39,-5.40,-5.48,-5.37,6.21,6.21,6.22
54.10,11.61,11.61,5.40,5.40,-5.40,-5.51,-5.42,6.21,6.21,6.20
54.64,11.61,11.61,5.42,5.42,-5.41,-5.55,-5.48,6.20,6.20,6.19
55.18,11.61,11.61,5.43,5.43,-5.42,-5.59,-5.54,6.19,6.19,6.18
55.74,11.61,11.61,5.44,5.44,-5.43,-5.63,-5.60,6.18,6.18,6.16
56.29,11.61,11.61,5.45,5.46,-5.45,-5.67,-5.66,6.16,6.16,6.16
56.86,11.61,11.59,5.47,5.46,-5.47,-5.71,-5.72,6.14,6.12,6.14
57.42,11.59,11.59,5.48,5.47,-5.50,-5.75,-5.77,6.09,6.09,6.11
58.00,11.57,11.61,5.47,5.50,-5.53,-5.79,-5.82,6.04,6.08,6.10
58.58,11.65,11.64,5.56,5.55,-5.56,-5.83,-5.87,6.09,6.08,6.09
59.16,11.71,11.68,5.64,5.61,-5.60,-5.88,-5.92,6.11,6.08,6.07
59.76,11.71,11.71,5.66,5.67,-5.64,-5.92,-5.97,6.07,6.07,6.05
60.35,11.71,11.71,5.70,5.70,-5.69,-5.96,-6.01,6.02,6.02,6.01
60.96,11.71,11.71,5.73,5.73,-5.74,-6.00,-6.05,5.97,5.97,5.98
61.57,11.71,11.71,5.78,5.78,-5.78,-6.04,-6.08,5.93,5.93,5.93
62.18,11.71,11.71,5.82,5.82,-5.82,-6.08,-6.12,5.89,5.89,5.89
62.80,11.71,11.71,5.87,5.87,-5.86,-6.13,-6.15,5.85,5.85,5.84
63.43,11.71,11.71,5.91,5.91,-5.90,-6.17,-6.17,5.81,5.81,5.80
64.07,11.71,11.71,5.96,5.96,-5.95,-6.21,-6.19,5.76,5.76,5.75
64.71,11.71,11.70,6.00,5.99,-6.00,-6.26,-6.21,5.70,5.69,5.71
65.35,11.70,11.70,6.03,6.03,-6.06,-6.30,-6.23,5.64,5.64,5.67
66.01,11.69,11.72,6.07,6.10,-6.12,-6.34,-6.24,5.57,5.60,5.62
66.67,11.77,11.75,6.20,6.18,-6.18,-6.39,-6.25,5.59,5.57,5.57
67.33,11.81,11.79,6.29,6.27,-6.25,-6.43,-6.25,5.56,5.55,5.52
68.01,11.81,11.81,6.33,6.34,-6.31,-6.47,-6.26,5.50,5.51,5.48
68.69,11.81,11.81,6.38,6.38,-6.37,-6.52,-6.26,5.44,5.44,5.43
69.37,11.81,11.81,6.43,6.43,-6.43,-6.56,-6.27,5.38,5.38,5.38
70.07,11.81,11.81,6.48,6.48,-6.49,-6.61,-6.27,5.32,5.32,5.33
70.77,11.81,11.81,6.53,6.53,-6.55,-6.65,-6.27,5.26,5.26,5.28
71.48,11.81,11.81,6.58,6.59,-6.60,-6.70,-6.27,5.21,5.21,5.23
72.19,11.81,11.81,6.65,6.64,-6.65,-6.74,-6.27,5.16,5.16,5.16
72.91,11.81,11.81,6.70,6.70,-6.70,-6.79,-6.27,5.11,5.11,5.11
73.64,11.81,11.82,6.76,6.77,-6.74,-6.83,-6.28,5.07,5.07,5.05
74.38,11.81,11.80,6.82,6.81,-6.79,-6.88,-6.28,5.02,5.01,4.99
75.12,11.80,11.77,6.87,6.84,-6.83,-6.92,-6.29,4.97,4.94,4.93
75.87,11.71,11.74,6.84,6.86,-6.87,-6.97,-6.30,4.84,4.87,4.87
76.63,11.70,11.71,6.88,6.89,-6.91,-7.01,-6.31,4.79,4.80,4.82
77.40,11.71,11.70,6.94,6.93,-6.95,-7.06,-6.33,4.76,4.75,4.77
78.17,11.71,11.71,7.00,6.99,-6.99,-7.11,-6.34,4.72,4.72,4.71
78.95,11.71,11.71,7.03,7.04,-7.03,-7.15,-6.37,4.68,4.68,4.68
79.74,11.71,11.71,7.08,7.08,-7.08,-7.20,-6.39,4.63,4.63,4.62
80.54,11.71,11.71,7.13,7.13,-7.13,-7.24,-6.42,4.58,4.58,4.58
81.35,11.71,11.71,7.18,7.18,-7.18,-7.29,-6.45,4.53,4.53,4.53
82.16,11.71,11.71,7.23,7.23,-7.23,-7.34,-6.49,4.48,4.48,4.48
82.98,11.71,11.71,7.27,7.27,-7.27,-7.38,-6.53,4.44,4.44,4.44
83.81,11.71,11.71,7.32,7.32,-7.32,-7.43,-6.58,4.39,4.39,4.39
84.65,11.71,11.71,7.37,7.37,-7.36,-7.47,-6.63,4.34,4.34,4.34
85.50,11.71,11.71,7.41,7.41,-7.41,-7.52,-6.68,4.30,4.30,4.30
86.35,11.71,11.71,7.46,7.46,-7.46,-7.57,-6.74,4.25,4.25,4.25
87.22,11.71,11.71,7.51,7.51,-7.50,-7.61,-6.81,4.20,4.20,4.20
88.09,11.71,11.71,7.56,7.56,-7.55,-7.66,-6.88,4.15,4.15,4.15
88.97,11.71,11.71,7.61,7.61,-7.61,-7.71,-6.95,4.10,4.10,4.10
89.86,11.72,11.71,7.67,7.66,-7.67,-7.75,-7.03,4.05,4.04,4.05
90.76,11.72,11.71,7.72,7.71,-7.74,-7.80,-7.12,3.98,3.98,4.00
91.66,11.72,11.73,7.77,7.78,-7.80,-7.85,-7.21,3.92,3.93,3.95
92.58,11.75,11.77,7.86,7.87,-7.87,-7.89,-7.30,3.88,3.90,3.89
93.51,11.82,11.80,7.97,7.96,-7.94,-7.94,-7.40,3.88,3.87,3.85
94.44,11.85,11.83,8.05,8.03,-8.01,-7.99,-7.51,3.84,3.82,3.80
95.39,11.83,11.83,8.07,8.08,-8.07,-8.04,-7.62,3.76,3.76,3.76
96.34,11.82,11.83,8.12,8.12,-8.14,-8.08,-7.73,3.68,3.69,3.70
97.30,11.83,11.85,8.17,8.19,-8.19,-8.13,-7.85,3.63,3.65,3.66
98.28,11.88,11.88,8.27,8.27,-8.25,-8.18,-7.97,3.63,3.62,3.61
99.26,11.93,11.89,8.36,8.32,-8.31,-8.23,-8.10,3.62,3.58,3.57
100.25,11.88,11.88,8.36,8.36,-8.37,-8.27,-8.23,3.51,3.51,3.52
101.25,11.85,11.87,8.37,8.39,-8.43,-8.32,-8.36,3.42,3.44,3.48
102.27,11.86,11.89,8.43,8.46,-8.48,-8.37,-8.50,3.38,3.40,3.43
103.29,11.94,11.93,8.57,8.54,-8.53,-8.42,-8.64,3.41,3.40,3.37
104.32,11.98,11.94,8.64,8.61,-8.56,-8.46,-8.78,3.42,3.38,3.34
105.37,11.92,11.93,8.63,8.64,-8.59,-8.51,-8.93,3.33,3.33,3.29
106.42,11.86,11.88,8.61,8.64,-8.62,-8.56,-9.07,3.24,3.26,3.24
107.48,11.83,11.83,8.64,8.64,-8.64,-8.61,-9.21,3.19,3.19,3.19
108.56,11.81,11.79,8.68,8.65,-8.67,-8.65,-9.36,3.14,3.12,3.13
109.64,11.76,11.75,8.67,8.66,-8.70,-8.70,-9.50,3.05,3.04,3.09
110.74,11.70,11.74,8.67,8.71,-8.75,-8.75,-9.64,2.95,2.99,3.03
111.85,11.76,11.76,8.76,8.78,-8.81,-8.80,-9.78,2.95,2.95,2.99
112.97,11.84,11.79,8.91,8.86,-8.88,-8.84,-9.91,2.96,2.91,2.93
114.10,11.84,11.85,8.96,8.96,-8.96,-8.89,-10.03,2.88,2.89,2.88
115.24,11.86,11.90,9.02,9.07,-9.04,-8.94,-10.15,2.82,2.86,2.84
116.39,11.97,11.95,9.18,9.16,-9.13,-8.98,-10.26,2.84,2.82,2.78
117.55,12.02,11.97,9.27,9.22,-9.21,-9.03,-10.36,2.81,2.77,2.75
118.73,11.97,11.99,9.26,9.28,-9.27,-9.08,-10.46,2.70,2.72,2.71
119.92,11.94,11.99,9.26,9.31,-9.33,-9.12,-10.53,2.61,2.66,2.68
121.12,12.04,11.99,9.40,9.35,-9.36,-9.17,-10.61,2.68,2.63,2.64
122.33,12.00,12.02,9.39,9.41,-9.39,-9.21,-10.66,2.61,2.64,2.61
123.55,12.02,12.02,9.43,9.44,-9.40,-9.26,-10.70,2.62,2.62,2.59
124.79,12.04,11.98,9.48,9.43,-9.42,-9.30,-10.73,2.62,2.57,2.56
126.03,11.91,11.95,9.38,9.42,-9.43,-9.35,-10.75,2.48,2.52,2.52
127.29,11.90,11.91,9.39,9.41,-9.44,-9.39,-10.74,2.46,2.47,2.50
128.57,11.90,11.89,9.43,9.42,-9.46,-9.44,-10.74,2.44,2.43,2.47
129.85,11.91,11.91,9.47,9.47,-9.48,-9.48,-10.71,2.43,2.43,2.44
131.15,11.91,11.91,9.50,9.50,-9.50,-9.52,-10.68,2.41,2.42,2.41
132.46,11.92,11.92,9.54,9.54,-9.52,-9.56,-10.62,2.40,2.39,2.38
133.79,11.92,11.92,9.56,9.57,-9.56,-9.60,-10.57,2.36,2.36,2.35
135.12,11.93,11.93,9.61,9.60,-9.60,-9.64,-10.50,2.33,2.33,2.32
136.48,11.93,11.93,9.63,9.63,-9.64,-9.68,-10.43,2.29,2.29,2.30
137.84,11.93,11.93,9.66,9.66,-9.68,-9.72,-10.34,2.25,2.25,2.27
139.22,11.94,11.94,9.70,9.70,-9.70,-9.76,-10.26,2.23,2.23,2.24
140.61,11.94,11.96,9.74,9.75,-9.73,-9.79,-10.16,2.21,2.23,2.20
142.02,11.98,11.97,9.79,9.78,-9.75,-9.83,-10.07,2.23,2.22,2.19
143.44,11.99,11.95,9.83,9.80,-9.77,-9.86,-9.97,2.21,2.18,2.16
144.87,11.90,11.92,9.78,9.79,-9.80,-9.89,-9.87,2.10,2.12,2.12
146.32,11.86,11.87,9.78,9.78,-9.82,-9.92,-9.77,2.04,2.05,2.08
147.78,11.84,11.84,9.79,9.80,-9.84,-9.95,-9.67,2.00,2.00,2.05
149.26,11.84,11.85,9.84,9.85,-9.86,-9.98,-9.57,1.98,1.99,2.00
150.75,11.86,11.85,9.92,9.91,-9.88,-10.01,-9.47,1.98,1.96,1.94
152.26,11.83,11.81,9.96,9.94,-9.92,-10.03,-9.38,1.91,1.90,1.87
153.78,11.76,11.75,9.95,9.95,-9.95,-10.06,-9.28,1.81,1.79,1.80
155.32,11.66,11.69,9.93,9.96,-9.99,-10.08,-9.20,1.67,1.70,1.73
156.88,11.62,11.64,9.96,9.99,-10.02,-10.10,-9.11,1.60,1.62,1.66
158.44,11.65,11.61,10.08,10.04,-10.03,-10.11,-9.04,1.61,1.58,1.57
160.03,11.57,11.57,10.08,10.08,-10.03,-10.13,-8.96,1.53,1.54,1.49
161.63,11.50,11.50,10.08,10.08,-10.03,-10.14,-8.89,1.47,1.48,1.42
163.24,11.42,11.40,10.06,10.04,-10.01,-10.16,-8.83,1.41,1.39,1.36
164.88,11.30,11.31,9.99,10.00,-10.00,-10.16,-8.77,1.30,1.31,1.31
166.53,11.21,11.22,9.95,9.96,-9.99,-10.17,-8.72,1.22,1.23,1.26
168.19,11.15,11.14,9.93,9.92,-9.98,-10.18,-8.67,1.17,1.17,1.22
169.87,11.11,11.11,9.93,9.92,-9.97,-10.18,-8.63,1.14,1.14,1.18
171.57,11.09,11.11,9.92,9.95,-9.97,-10.18,-8.60,1.12,1.14,1.17
173.29,11.14,11.14,9.99,9.99,-9.98,-10.18,-8.57,1.16,1.15,1.15
175.02,11.19,11.17,10.04,10.03,-10.00,-10.18,-8.55,1.19,1.17,1.14
176.77,11.19,11.19,10.06,10.06,-10.03,-10.17,-8.53,1.16,1.16,1.13
178.54,11.19,11.19,10.06,10.06,-10.05,-10.16,-8.52,1.14,1.14,1.13
180.32,11.19,11.19,10.06,10.06,-10.07,-10.15,-8.51,1.12,1.13,1.13
182.13,11.20,11.20,10.06,10.07,-10.07,-10.14,-8.52,1.13,1.13,1.14
183.95,11.21,11.20,10.08,10.07,-10.07,-10.12,-8.53,1.14,1.13,1.13
185.79,11.20,11.19,10.07,10.07,-10.06,-10.10,-8.54,1.14,1.13,1.13
187.65,11.14,11.17,10.03,10.06,-10.04,-10.09,-8.56,1.10,1.13,1.11
189.52,11.15,11.13,10.05,10.03,-10.03,-10.06,-8.59,1.12,1.10,1.10
191.42,11.09,11.08,10.01,10.00,-10.01,-10.04,-8.62,1.08,1.06,1.08
193.33,11.01,11.04,9.95,9.98,-10.00,-10.01,-8.66,1.01,1.04,1.06
195.27,10.99,10.99,9.95,9.96,-9.98,-9.98,-8.70,1.01,1.01,1.04
197.22,10.99,10.97,9.97,9.95,-9.96,-9.95,-8.75,1.03,1.01,1.02
199.19,10.95,10.95,9.95,9.96,-9.94,-9.91,-8.80,1.01,1.01,0.99
201.18,10.92,10.92,9.94,9.94,-9.91,-9.88,-8.86,1.00,1.00,0.98
203.19,10.87,10.86,9.91,9.91,-9.89,-9.84,-8.92,0.98,0.98,0.96
205.23,10.80,10.81,9.86,9.86,-9.86,-9.80,-8.99,0.94,0.95,0.94
207.28,10.75,10.74,9.82,9.82,-9.83,-9.75,-9.05,0.92,0.92,0.93
209.35,10.68,10.67,9.77,9.77,-9.79,-9.71,-9.12,0.89,0.88,0.91
211.44,10.61,10.61,9.74,9.72,-9.75,-9.66,-9.19,0.86,0.86,0.87
213.56,10.54,10.56,9.67,9.69,-9.71,-9.61,-9.26,0.83,0.85,0.87
215.69,10.51,10.52,9.65,9.67,-9.66,-9.56,-9.34,0.85,0.86,0.86
217.85,10.51,10.48,9.67,9.64,-9.61,-9.51,-9.41,0.90,0.87,0.84
220.03,10.43,10.42,9.60,9.59,-9.57,-9.46,-9.48,0.86,0.85,0.83
222.23,10.33,10.34,9.52,9.52,-9.51,-9.40,-9.55,0.81,0.82,0.81
224.45,10.23,10.25,9.41,9.44,-9.46,-9.34,-9.61,0.77,0.79,0.82
226.70,10.20,10.19,9.38,9.38,-9.40,-9.28,-9.67,0.80,0.80,0.82
228.96,10.16,10.16,9.33,9.33,-9.33,-9.22,-9.73,0.83,0.83,0.82
231.25,10.12,10.11,9.28,9.28,-9.26,-9.16,-9.77,0.86,0.85,0.83
233.57,10.06,10.04,9.21,9.20,-9.19,-9.10,-9.81,0.87,0.85,0.84
235.90,9.95,9.97,9.09,9.12,-9.12,-9.03,-9.84,0.83,0.85,0.85
238.26,9.90,9.91,9.03,9.04,-9.05,-8.96,-9.87,0.85,0.86,0.87
240.64,9.87,9.85,8.98,8.97,-8.98,-8.90,-9.87,0.89,0.88,0.89
243.05,9.83,9.81,8.91,8.89,-8.90,-8.83,-9.87,0.92,0.90,0.92
245.48,9.73,9.76,8.79,8.82,-8.83,-8.76,-9.86,0.90,0.93,0.94
247.93,9.72,9.73,8.75,8.76,-8.76,-8.69,-9.84,0.96,0.97,0.97
250.41,9.71,9.68,8.73,8.69,-8.69,-8.61,-9.79,1.02,0.99,0.98
252.92,9.65,9.63,8.63,8.61,-8.61,-8.54,-9.75,1.04,1.01,1.02
255.45,9.53,9.57,8.49,8.53,-8.53,-8.47,-9.68,1.00,1.04,1.04
258.00,9.48,9.51,8.42,8.44,-8.43,-8.39,-9.61,1.04,1.07,1.06
260.58,9.49,9.45,8.41,8.36,-8.34,-8.32,-9.51,1.15,1.11,1.07
263.19,9.38,9.37,8.27,8.27,-8.25,-8.24,-9.42,1.13,1.12,1.11
265.82,9.26,9.26,8.14,8.14,-8.15,-8.17,-9.30,1.11,1.11,1.12
268.48,9.14,9.15,7.99,8.00,-8.06,-8.09,-9.18,1.08,1.09,1.15
271.16,9.08,9.10,7.90,7.93,-7.96,-8.01,-9.05,1.12,1.14,1.18
273.87,9.06,9.06,7.86,7.85,-7.86,-7.93,-8.92,1.20,1.20,1.19
276.61,9.06,9.01,7.83,7.79,-7.75,-7.85,-8.77,1.30,1.26,1.23
279.38,8.92,8.96,7.67,7.71,-7.65,-7.77,-8.62,1.26,1.31,1.25
282.17,8.87,8.85,7.59,7.57,-7.55,-7.69,-8.46,1.32,1.30,1.28
284.99,8.77,8.74,7.46,7.43,-7.45,-7.61,-8.30,1.32,1.29,1.31
287.84,8.59,8.65,7.26,7.32,-7.34,-7.53,-8.14,1.25,1.31,1.33
290.72,8.60,8.57,7.23,7.21,-7.23,-7.45,-7.97,1.36,1.34,1.36
293.63,8.52,8.53,7.13,7.13,-7.13,-7.37,-7.81,1.39,1.40,1.39
296.57,8.48,8.46,7.05,7.04,-7.02,-7.29,-7.64,1.46,1.44,1.43
299.53,8.39,8.35,6.94,6.90,-6.91,-7.21,-7.47,1.48,1.44,1.45
302.53,8.22,8.29,6.75,6.81,-6.81,-7.13,-7.30,1.41,1.48,1.47
305.55,8.21,8.24,6.70,6.74,-6.71,-7.05,-7.14,1.50,1.53,1.51
308.61,8.27,8.19,6.74,6.66,-6.62,-6.96,-6.97,1.65,1.57,1.53
311.69,8.13,8.11,6.57,6.55,-6.55,-6.88,-6.81,1.58,1.56,1.56
314.81,7.98,7.99,6.40,6.41,-6.49,-6.80,-6.65,1.49,1.50,1.58
317.96,7.87,7.93,6.27,6.33,-6.44,-6.72,-6.49,1.43,1.49,1.60
321.14,7.92,7.95,6.31,6.34,-6.38,-6.63,-6.34,1.54,1.57,1.61
324.35,8.07,7.99,6.45,6.37,-6.31,-6.55,-6.18,1.76,1.68,1.62
327.59,8.01,7.99,6.37,6.35,-6.24,-6.47,-6.04,1.77,1.75,1.64
330.87,7.90,7.93,6.25,6.28,-6.17,-6.39,-5.89,1.73,1.76,1.65
334.18,7.79,7.80,6.12,6.14,-6.12,-6.30,-5.75,1.67,1.69,1.66
337.52,7.74,7.66,6.07,5.99,-6.06,-6.22,-5.61,1.67,1.60,1.67
340.90,7.53,7.57,5.84,5.89,-6.00,-6.14,-5.48,1.53,1.57,1.69
344.30,7.47,7.56,5.77,5.86,-5.93,-6.06,-5.35,1.54,1.62,1.70
347.75,7.61,7.56,5.91,5.86,-5.86,-5.97,-5.22,1.75,1.70,1.69
351.23,7.65,7.58,5.95,5.88,-5.81,-5.89,-5.09,1.84,1.77,1.70
354.74,7.52,7.54,5.82,5.84,-5.77,-5.81,-4.97,1.75,1.77,1.70
358.28,7.42,7.45,5.71,5.74,-5.74,-5.73,-4.86,1.68,1.71,1.71
361.87,7.37,7.38,5.66,5.67,-5.70,-5.65,-4.74,1.67,1.68,1.71
365.49,7.34,7.32,5.62,5.61,-5.64,-5.56,-4.64,1.70,1.68,1.71
369.14,7.30,7.29,5.60,5.59,-5.58,-5.48,-4.53,1.72,1.71,1.70
372.83,7.19,7.24,5.49,5.54,-5.50,-5.40,-4.43,1.69,1.73,1.70
376.56,7.21,7.14,5.51,5.43,-5.42,-5.32,-4.33,1.79,1.71,1.70
380.33,7.04,7.04,5.33,5.34,-5.34,-5.23,-4.23,1.69,1.70,1.71
384.13,6.88,6.96,5.17,5.26,-5.26,-5.15,-4.14,1.62,1.70,1.71
387.97,6.92,6.88,5.22,5.18,-5.18,-5.07,-4.05,1.74,1.70,1.69
391.85,6.84,6.80,5.16,5.11,-5.10,-4.99,-3.96,1.74,1.70,1.68
395.77,6.71,6.69,5.02,5.00,-5.02,-4.90,-3.88,1.69,1.67,1.69
399.73,6.53,6.59,4.85,4.91,-4.94,-4.82,-3.80,1.59,1.65,1.68
403.72,6.48,6.53,4.80,4.85,-4.88,-4.74,-3.72,1.60,1.65,1.68
407.76,6.58,6.47,4.91,4.80,-4.80,-4.66,-3.64,1.77,1.66,1.67
411.84,6.41,6.44,4.74,4.77,-4.74,-4.57,-3.57,1.67,1.70,1.67
415.96,6.31,6.37,4.64,4.71,-4.68,-4.49,-3.50,1.63,1.70,1.66
420.12,6.34,6.26,4.68,4.60,-4.61,-4.41,-3.43,1.72,1.65,1.66
424.32,6.19,6.20,4.53,4.54,-4.55,-4.32,-3.36,1.64,1.65,1.66
428.56,6.10,6.14,4.43,4.47,-4.48,-4.24,-3.29,1.62,1.66,1.67
432.85,6.09,6.07,4.41,4.39,-4.40,-4.16,-3.22,1.69,1.67,1.68
437.18,6.05,6.05,4.36,4.35,-4.31,-4.07,-3.16,1.74,1.74,1.69
441.55,6.00,5.99,4.27,4.27,-4.23,-3.99,-3.10,1.77,1.76,1.73
445.96,5.95,5.90,4.19,4.15,-4.15,-3.90,-3.04,1.80,1.75,1.76
450.42,5.78,5.84,3.99,4.04,-4.08,-3.82,-2.98,1.70,1.75,1.79
454.93,5.78,5.79,3.94,3.96,-4.01,-3.73,-2.91,1.77,1.78,1.84
459.48,5.81,5.78,3.92,3.90,-3.94,-3.65,-2.85,1.87,1.84,1.88
464.07,5.80,5.81,3.87,3.87,-3.87,-3.56,-2.79,1.93,1.94,1.93
468.71,5.81,5.80,3.82,3.82,-3.79,-3.47,-2.74,2.02,2.01,1.99
473.40,5.79,5.78,3.76,3.74,-3.70,-3.38,-2.68,2.09,2.08,2.03
478.13,5.73,5.74,3.64,3.66,-3.60,-3.29,-2.62,2.13,2.14,2.09
482.91,5.68,5.67,3.55,3.54,-3.49,-3.20,-2.56,2.19,2.18,2.13
487.74,5.59,5.57,3.42,3.39,-3.37,-3.11,-2.50,2.21,2.19,2.17
492.62,5.44,5.43,3.22,3.22,-3.25,-3.02,-2.43,2.19,2.18,2.22
497.55,5.28,5.29,3.04,3.05,-3.12,-2.92,-2.37,2.16,2.17,2.24
