frequency,raw,error,smoothed,error_smoothed,equalization,parametric_eq,equalized_raw,equalized_smoothed,target
20.00,4.26,2.94,4.22,2.92,-2.92,-1.90,1.34,1.31,1.31
20.20,4.28,2.96,4.26,2.95,-2.95,-1.95,1.33,1.30,1.31
20.40,4.30,2.99,4.29,2.99,-2.99,-2.01,1.31,1.30,1.31
20.61,4.32,3.01,4.33,3.03,-3.03,-2.06,1.29,1.30,1.31
20.81,4.34,3.03,4.37,3.06,-3.06,-2.12,1.27,1.30,1.31
21.02,4.36,3.05,4.40,3.10,-3.10,-2.18,1.26,1.30,1.31
21.23,4.41,3.10,4.44,3.14,-3.14,-2.24,1.27,1.30,1.31
21.44,4.46,3.15,4.48,3.18,-3.18,-2.30,1.28,1.30,1.31
21.66,4.51,3.20,4.51,3.21,-3.21,-2.36,1.29,1.30,1.31
21.87,4.56,3.25,4.55,3.25,-3.25,-2.43,1.31,1.30,1.31
22.09,4.61,3.30,4.59,3.29,-3.29,-2.49,1.32,1.30,1.31
22.31,4.64,3.33,4.63,3.33,-3.33,-2.56,1.31,1.30,1.30
22.54,4.68,3.37,4.67,3.37,-3.37,-2.63,1.31,1.30,1.30
22.76,4.72,3.42,4.71,3.41,-3.41,-2.70,1.31,1.30,1.30
22.99,4.76,3.46,4.75,3.45,-3.45,-2.78,1.31,1.30,1.30
23.22,4.79,3.49,4.79,3.49,-3.49,-2.85,1.30,1.30,1.30
23.45,4.83,3.53,4.83,3.53,-3.53,-2.93,1.30,1.30,1.30
23.69,4.86,3.56,4.87,3.57,-3.57,-3.01,1.29,1.29,1.30
23.92,4.90,3.60,4.90,3.61,-3.61,-3.09,1.29,1.29,1.30
24.16,4.93,3.63,4.94,3.65,-3.65,-3.17,1.28,1.29,1.29
24.40,4.97,3.68,4.98,3.69,-3.69,-3.25,1.28,1.29,1.29
24.65,5.01,3.72,5.01,3.73,-3.73,-3.34,1.28,1.29,1.29
24.89,5.04,3.75,5.05,3.76,-3.76,-3.42,1.28,1.29,1.29
25.14,5.08,3.79,5.08,3.80,-3.80,-3.51,1.28,1.29,1.29
25.39,5.12,3.83,5.11,3.83,-3.83,-3.59,1.29,1.28,1.29
25.65,5.16,3.87,5.14,3.86,-3.86,-3.68,1.30,1.28,1.29
25.91,5.20,3.91,5.17,3.89,-3.89,-3.76,1.30,1.28,1.28
26.16,5.22,3.94,5.20,3.92,-3.92,-3.85,1.30,1.28,1.28
26.43,5.24,3.96,5.23,3.95,-3.95,-3.93,1.29,1.28,1.28
26.69,5.25,3.97,5.25,3.98,-3.98,-4.02,1.27,1.27,1.28
26.96,5.27,3.99,5.27,4.00,-4.00,-4.10,1.27,1.27,1.28
27.23,5.28,4.00,5.29,4.02,-4.02,-4.18,1.25,1.27,1.28
27.50,5.30,4.03,5.31,4.05,-4.05,-4.26,1.25,1.27,1.27
27.77,5.32,4.05,5.33,4.07,-4.07,-4.33,1.25,1.27,1.27
28.05,5.33,4.06,5.35,4.09,-4.09,-4.41,1.24,1.26,1.27
28.33,5.36,4.09,5.37,4.11,-4.11,-4.48,1.25,1.26,1.27
28.62,5.38,4.11,5.38,4.12,-4.12,-4.54,1.26,1.26,1.27
28.90,5.40,4.14,5.39,4.14,-4.14,-4.61,1.26,1.26,1.26
29.19,5.42,4.16,5.40,4.15,-4.15,-4.66,1.27,1.26,1.26
29.48,5.43,4.17,5.41,4.16,-4.16,-4.71,1.27,1.25,1.26
29.78,5.45,4.19,5.42,4.17,-4.17,-4.76,1.28,1.25,1.26
30.08,5.46,4.20,5.43,4.17,-4.17,-4.80,1.28,1.25,1.25
30.38,5.44,4.19,5.43,4.18,-4.18,-4.84,1.26,1.25,1.25
30.68,5.43,4.18,5.43,4.18,-4.18,-4.86,1.25,1.25,1.25
30.99,5.41,4.16,5.43,4.18,-4.18,-4.89,1.23,1.25,1.25
31.30,5.41,4.17,5.42,4.18,-4.18,-4.90,1.23,1.24,1.24
31.61,5.41,4.17,5.42,4.18,-4.18,-4.91,1.23,1.24,1.24
31.93,5.41,4.17,5.41,4.18,-4.18,-4.92,1.23,1.23,1.24
32.24,5.41,4.17,5.40,4.18,-4.18,-4.92,1.23,1.23,1.23
32.57,5.40,4.17,5.40,4.18,-4.18,-4.91,1.22,1.22,1.23
32.89,5.39,4.16,5.40,4.18,-4.18,-4.89,1.21,1.22,1.23
33.22,5.39,4.16,5.40,4.18,-4.18,-4.88,1.21,1.22,1.22
33.55,5.40,4.18,5.40,4.18,-4.18,-4.85,1.21,1.21,1.22
33.89,5.41,4.19,5.41,4.19,-4.19,-4.82,1.22,1.21,1.22
34.23,5.41,4.19,5.41,4.20,-4.20,-4.79,1.21,1.21,1.21
34.57,5.41,4.20,5.42,4.21,-4.21,-4.76,1.20,1.21,1.21
34.92,5.41,4.20,5.43,4.22,-4.22,-4.72,1.18,1.20,1.21
35.27,5.43,4.22,5.44,4.24,-4.24,-4.68,1.19,1.20,1.20
35.62,5.45,4.25,5.45,4.25,-4.25,-4.64,1.20,1.20,1.20
35.97,5.47,4.27,5.46,4.26,-4.26,-4.59,1.20,1.19,1.20
36.33,5.48,4.29,5.47,4.28,-4.28,-4.54,1.20,1.19,1.19
36.70,5.49,4.30,5.48,4.29,-4.29,-4.50,1.20,1.18,1.19
37.06,5.50,4.32,5.48,4.30,-4.30,-4.45,1.19,1.18,1.18
37.43,5.50,4.32,5.49,4.32,-4.32,-4.40,1.18,1.18,1.18
37.81,5.50,4.33,5.50,4.33,-4.33,-4.36,1.17,1.17,1.17
38.19,5.50,4.33,5.50,4.33,-4.33,-4.31,1.17,1.17,1.17
38.57,5.50,4.34,5.51,4.34,-4.34,-4.27,1.16,1.17,1.16
38.95,5.50,4.34,5.51,4.34,-4.34,-4.23,1.15,1.16,1.16
39.34,5.50,4.35,5.50,4.35,-4.35,-4.18,1.15,1.15,1.15
39.74,5.50,4.35,5.50,4.35,-4.35,-4.14,1.15,1.14,1.15
40.14,5.50,4.36,5.49,4.35,-4.35,-4.11,1.15,1.14,1.14
40.54,5.50,4.36,5.48,4.35,-4.35,-4.07,1.15,1.13,1.14
40.94,5.50,4.37,5.48,4.35,-4.35,-4.04,1.14,1.12,1.13
41.35,5.49,4.36,5.47,4.36,-4.36,-4.01,1.13,1.12,1.12
41.76,5.47,4.35,5.47,4.36,-4.36,-3.98,1.11,1.11,1.12
42.18,5.45,4.34,5.47,4.36,-4.36,-3.95,1.09,1.10,1.11
42.60,5.44,4.33,5.47,4.37,-4.37,-3.93,1.07,1.10,1.10
43.03,5.43,4.33,5.46,4.37,-4.37,-3.91,1.05,1.09,1.10
43.46,5.44,4.35,5.47,4.38,-4.38,-3.89,1.06,1.08,1.09
43.90,5.46,4.37,5.47,4.39,-4.39,-3.88,1.07,1.08,1.08
44.33,5.47,4.39,5.47,4.40,-4.40,-3.87,1.07,1.07,1.08
44.78,5.49,4.42,5.47,4.41,-4.41,-3.86,1.08,1.06,1.07
45.23,5.50,4.44,5.48,4.42,-4.42,-3.85,1.08,1.05,1.06
45.68,5.50,4.45,5.48,4.43,-4.43,-3.85,1.06,1.05,1.05
46.13,5.50,4.45,5.49,4.45,-4.45,-3.85,1.05,1.04,1.04
46.60,5.50,4.46,5.49,4.46,-4.46,-3.85,1.04,1.03,1.04
47.06,5.50,4.47,5.50,4.47,-4.47,-3.86,1.03,1.03,1.03
47.53,5.50,4.48,5.50,4.48,-4.48,-3.87,1.02,1.02,1.02
48.01,5.50,4.49,5.50,4.49,-4.49,-3.88,1.01,1.01,1.01
48.49,5.50,4.50,5.50,4.50,-4.50,-3.90,0.99,1.00,1.00
48.97,5.50,4.51,5.50,4.51,-4.51,-3.91,0.98,0.99,0.99
49.46,5.50,4.52,5.50,4.53,-4.53,-3.93,0.97,0.98,0.98
49.96,5.50,4.53,5.50,4.54,-4.54,-3.95,0.96,0.96,0.97
50.46,5.50,4.54,5.50,4.55,-4.55,-3.98,0.95,0.95,0.96
50.96,5.50,4.55,5.50,4.56,-4.56,-4.00,0.94,0.94,0.95
51.47,5.50,4.56,5.50,4.57,-4.57,-4.03,0.93,0.93,0.94
51.99,5.50,4.57,5.50,4.58,-4.58,-4.06,0.92,0.92,0.92
52.51,5.50,4.59,5.50,4.59,-4.59,-4.09,0.91,0.91,0.91
53.03,5.50,4.60,5.50,4.60,-4.60,-4.12,0.90,0.90,0.90
53.56,5.50,4.61,5.50,4.61,-4.61,-4.15,0.89,0.89,0.89
54.10,5.50,4.62,5.49,4.62,-4.62,-4.19,0.88,0.88,0.88
54.64,5.50,4.64,5.48,4.62,-4.62,-4.22,0.87,0.86,0.86
55.18,5.49,4.64,5.47,4.63,-4.63,-4.25,0.86,0.85,0.85
55.74,5.48,4.64,5.46,4.63,-4.63,-4.29,0.85,0.83,0.84
56.29,5.46,4.64,5.45,4.63,-4.63,-4.32,0.82,0.82,0.82
56.86,5.44,4.63,5.44,4.64,-4.64,-4.35,0.80,0.80,0.81
57.42,5.42,4.63,5.42,4.64,-4.64,-4.39,0.78,0.79,0.79
58.00,5.40,4.62,5.41,4.64,-4.64,-4.42,0.76,0.77,0.78
58.58,5.38,4.62,5.39,4.63,-4.63,-4.45,0.74,0.75,0.76
59.16,5.35,4.60,5.37,4.63,-4.63,-4.48,0.72,0.74,0.74
59.76,5.33,4.60,5.35,4.63,-4.63,-4.50,0.70,0.72,0.73
60.35,5.32,4.61,5.33,4.62,-4.62,-4.53,0.69,0.71,0.71
60.96,5.32,4.62,5.31,4.62,-4.62,-4.55,0.70,0.69,0.69
61.57,5.29,4.61,5.29,4.61,-4.61,-4.57,0.67,0.67,0.68
62.18,5.27,4.61,5.26,4.61,-4.61,-4.59,0.66,0.65,0.66
62.80,5.25,4.61,5.23,4.60,-4.60,-4.61,0.65,0.64,0.64
63.43,5.22,4.60,5.21,4.59,-4.59,-4.62,0.63,0.62,0.62
64.07,5.18,4.58,5.17,4.57,-4.57,-4.63,0.61,0.60,0.60
64.71,5.14,4.56,5.14,4.55,-4.55,-4.64,0.58,0.58,0.58
65.35,5.11,4.55,5.10,4.53,-4.53,-4.65,0.57,0.56,0.56
66.01,5.06,4.52,5.05,4.51,-4.51,-4.66,0.55,0.54,0.54
66.67,5.01,4.49,5.00,4.49,-4.49,-4.66,0.52,0.52,0.52
67.33,4.97,4.47,4.96,4.46,-4.46,-4.67,0.51,0.50,0.50
68.01,4.92,4.44,4.91,4.43,-4.43,-4.67,0.49,0.48,0.48
68.69,4.86,4.40,4.86,4.40,-4.40,-4.67,0.46,0.46,0.45
69.37,4.80,4.37,4.80,4.37,-4.37,-4.67,0.43,0.43,0.43
70.07,4.74,4.33,4.75,4.34,-4.34,-4.68,0.40,0.41,0.41
70.77,4.68,4.29,4.69,4.31,-4.31,-4.68,0.37,0.38,0.38
71.48,4.63,4.27,4.64,4.28,-4.28,-4.68,0.35,0.36,0.36
72.19,4.58,4.24,4.59,4.26,-4.26,-4.68,0.32,0.33,0.34
72.91,4.56,4.25,4.54,4.24,-4.24,-4.68,0.32,0.31,0.31
73.64,4.53,4.24,4.50,4.22,-4.22,-4.69,0.31,0.28,0.29
74.38,4.49,4.23,4.46,4.21,-4.21,-4.69,0.28,0.26,0.26
75.12,4.44,4.20,4.43,4.20,-4.20,-4.70,0.24,0.23,0.23
75.87,4.37,4.16,4.40,4.20,-4.20,-4.71,0.17,0.20,0.21
76.63,4.35,4.17,4.38,4.21,-4.21,-4.72,0.14,0.18,0.18
77.40,4.34,4.18,4.37,4.22,-4.22,-4.74,0.12,0.15,0.15
78.17,4.35,4.22,4.36,4.24,-4.24,-4.75,0.11,0.12,0.13
78.95,4.38,4.28,4.36,4.27,-4.27,-4.77,0.11,0.09,0.10
79.74,4.38,4.31,4.36,4.30,-4.30,-4.80,0.08,0.06,0.07
80.54,4.38,4.34,4.38,4.34,-4.34,-4.82,0.04,0.03,0.04
81.35,4.39,4.38,4.39,4.39,-4.39,-4.85,-0.00,0.00,0.01
82.16,4.41,4.43,4.42,4.45,-4.45,-4.88,-0.04,-0.03,-0.02
82.98,4.45,4.50,4.46,4.52,-4.52,-4.92,-0.07,-0.06,-0.05
83.81,4.50,4.58,4.51,4.59,-4.59,-4.96,-0.09,-0.09,-0.08
84.65,4.54,4.65,4.56,4.67,-4.67,-5.00,-0.13,-0.11,-0.11
85.50,4.60,4.74,4.61,4.76,-4.76,-5.04,-0.16,-0.14,-0.14
86.35,4.67,4.84,4.67,4.85,-4.85,-5.09,-0.18,-0.17,-0.17
87.22,4.74,4.94,4.74,4.94,-4.94,-5.15,-0.20,-0.21,-0.20
88.09,4.80,5.03,4.80,5.04,-5.04,-5.21,-0.24,-0.24,-0.23
88.97,4.88,5.14,4.87,5.14,-5.14,-5.27,-0.26,-0.27,-0.27
89.86,4.93,5.23,4.94,5.24,-5.24,-5.33,-0.31,-0.30,-0.30
90.76,5.02,5.35,5.01,5.34,-5.34,-5.40,-0.32,-0.33,-0.33
91.66,5.09,5.45,5.07,5.44,-5.44,-5.48,-0.35,-0.36,-0.36
92.58,5.17,5.56,5.14,5.54,-5.54,-5.55,-0.37,-0.40,-0.39
93.51,5.24,5.67,5.21,5.64,-5.64,-5.64,-0.40,-0.43,-0.43
94.44,5.29,5.75,5.27,5.73,-5.73,-5.72,-0.44,-0.46,-0.46
95.39,5.34,5.83,5.34,5.83,-5.83,-5.81,-0.49,-0.49,-0.49
96.34,5.37,5.89,5.40,5.92,-5.92,-5.90,-0.55,-0.53,-0.53
97.30,5.42,5.98,5.45,6.01,-6.01,-6.00,-0.59,-0.56,-0.56
98.28,5.49,6.08,5.51,6.10,-6.10,-6.09,-0.62,-0.60,-0.59
99.26,5.57,6.19,5.56,6.19,-6.19,-6.19,-0.62,-0.63,-0.63
100.25,5.63,6.29,5.62,6.28,-6.28,-6.30,-0.65,-0.66,-0.66
101.25,5.68,6.37,5.67,6.36,-6.36,-6.40,-0.69,-0.70,-0.69
102.27,5.73,6.45,5.72,6.45,-6.45,-6.51,-0.72,-0.73,-0.72
103.29,5.77,6.53,5.77,6.53,-6.53,-6.62,-0.76,-0.76,-0.76
104.32,5.81,6.60,5.82,6.61,-6.61,-6.73,-0.81,-0.79,-0.79
105.37,5.84,6.66,5.86,6.69,-6.69,-6.84,-0.85,-0.83,-0.82
106.42,5.88,6.73,5.91,6.76,-6.76,-6.95,-0.89,-0.86,-0.86
107.48,5.94,6.83,5.95,6.83,-6.83,-7.06,-0.90,-0.89,-0.89
108.56,6.00,6.92,5.98,6.90,-6.90,-7.16,-0.90,-0.92,-0.92
109.64,6.05,7.00,6.01,6.96,-6.96,-7.27,-0.91,-0.95,-0.95
110.74,6.06,7.05,6.03,7.02,-7.02,-7.37,-0.96,-0.99,-0.99
111.85,6.06,7.08,6.04,7.06,-7.06,-7.47,-1.01,-1.02,-1.02
112.97,6.04,7.09,6.06,7.11,-7.11,-7.56,-1.07,-1.05,-1.05
114.10,6.06,7.14,6.06,7.15,-7.15,-7.64,-1.09,-1.08,-1.08
115.24,6.06,7.17,6.06,7.18,-7.18,-7.72,-1.12,-1.12,-1.11
116.39,6.06,7.20,6.06,7.20,-7.20,-7.79,-1.15,-1.15,-1.14
117.55,6.06,7.23,6.05,7.22,-7.22,-7.86,-1.17,-1.18,-1.18
118.73,6.04,7.24,6.03,7.24,-7.24,-7.91,-1.20,-1.21,-1.21
119.92,6.01,7.25,6.01,7.25,-7.25,-7.95,-1.24,-1.24,-1.24
121.12,5.97,7.24,5.99,7.26,-7.26,-7.98,-1.29,-1.27,-1.27
122.33,5.94,7.23,5.96,7.26,-7.26,-8.00,-1.32,-1.30,-1.30
123.55,5.92,7.24,5.93,7.25,-7.25,-8.00,-1.33,-1.33,-1.33
124.79,5.89,7.24,5.89,7.25,-7.25,-8.00,-1.36,-1.36,-1.35
126.03,5.86,7.24,5.85,7.24,-7.24,-7.98,-1.38,-1.39,-1.38
127.29,5.83,7.24,5.81,7.22,-7.22,-7.94,-1.40,-1.42,-1.41
128.57,5.79,7.23,5.76,7.21,-7.21,-7.90,-1.42,-1.45,-1.44
129.85,5.75,7.22,5.71,7.19,-7.19,-7.84,-1.44,-1.48,-1.47
131.15,5.66,7.15,5.66,7.17,-7.17,-7.77,-1.51,-1.51,-1.49
132.46,5.59,7.11,5.62,7.15,-7.15,-7.69,-1.56,-1.53,-1.52
133.79,5.53,7.08,5.57,7.13,-7.13,-7.60,-1.60,-1.56,-1.55
135.12,5.48,7.05,5.52,7.10,-7.10,-7.50,-1.62,-1.58,-1.57
136.48,5.44,7.04,5.47,7.07,-7.07,-7.39,-1.63,-1.61,-1.60
137.84,5.40,7.02,5.41,7.04,-7.04,-7.28,-1.64,-1.63,-1.62
139.22,5.35,7.00,5.35,7.00,-7.00,-7.15,-1.66,-1.65,-1.65
140.61,5.30,6.97,5.29,6.97,-6.97,-7.02,-1.67,-1.68,-1.67
142.02,5.23,6.93,5.22,6.92,-6.92,-6.89,-1.69,-1.70,-1.70
143.44,5.17,6.89,5.14,6.88,-6.88,-6.75,-1.71,-1.73,-1.72
144.87,5.12,6.86,5.07,6.82,-6.82,-6.61,-1.71,-1.76,-1.74
146.32,5.04,6.80,4.99,6.77,-6.77,-6.47,-1.73,-1.78,-1.77
147.78,4.95,6.74,4.91,6.71,-6.71,-6.32,-1.76,-1.80,-1.79
149.26,4.85,6.66,4.83,6.64,-6.64,-6.18,-1.80,-1.82,-1.81
150.75,4.72,6.55,4.74,6.58,-6.58,-6.03,-1.86,-1.84,-1.83
152.26,4.61,6.46,4.65,6.51,-6.51,-5.88,-1.90,-1.86,-1.85
153.78,4.51,6.38,4.55,6.44,-6.44,-5.74,-1.93,-1.88,-1.87
155.32,4.41,6.30,4.46,6.36,-6.36,-5.59,-1.95,-1.90,-1.89
156.88,4.33,6.24,4.36,6.29,-6.29,-5.45,-1.96,-1.92,-1.91
158.44,4.25,6.18,4.27,6.21,-6.21,-5.31,-1.96,-1.94,-1.93
160.03,4.19,6.14,4.17,6.13,-6.13,-5.17,-1.94,-1.96,-1.95
161.63,4.12,6.09,4.07,6.05,-6.05,-5.03,-1.93,-1.98,-1.97
163.24,4.04,6.02,3.98,5.97,-5.97,-4.89,-1.93,-1.99,-1.98
164.88,3.88,5.88,3.88,5.89,-5.89,-4.76,-2.01,-2.01,-2.00
166.53,3.77,5.79,3.78,5.81,-5.81,-4.63,-2.04,-2.02,-2.02
168.19,3.66,5.69,3.68,5.72,-5.72,-4.50,-2.06,-2.04,-2.04
169.87,3.58,5.63,3.58,5.63,-5.63,-4.37,-2.05,-2.05,-2.05
171.57,3.48,5.55,3.48,5.54,-5.54,-4.25,-2.06,-2.07,-2.07
173.29,3.39,5.47,3.37,5.45,-5.45,-4.13,-2.06,-2.08,-2.08
175.02,3.27,5.37,3.25,5.36,-5.36,-4.02,-2.09,-2.10,-2.10
176.77,3.15,5.26,3.14,5.26,-5.26,-3.90,-2.11,-2.12,-2.11
178.54,3.01,5.14,3.02,5.16,-5.16,-3.79,-2.15,-2.13,-2.13
180.32,2.89,5.03,2.91,5.06,-5.06,-3.68,-2.17,-2.15,-2.14
182.13,2.78,4.93,2.79,4.95,-4.95,-3.58,-2.17,-2.16,-2.16
183.95,2.66,4.83,2.67,4.84,-4.84,-3.47,-2.18,-2.17,-2.17
185.79,2.55,4.73,2.55,4.73,-4.73,-3.37,-2.18,-2.18,-2.18
187.65,2.44,4.63,2.42,4.62,-4.62,-3.28,-2.18,-2.20,-2.19
189.52,2.31,4.52,2.29,4.50,-4.50,-3.18,-2.19,-2.21,-2.21
191.42,2.18,4.40,2.16,4.38,-4.38,-3.09,-2.21,-2.23,-2.22
193.33,2.05,4.28,2.02,4.26,-4.26,-3.00,-2.21,-2.24,-2.23
195.27,1.91,4.15,1.89,4.14,-4.14,-2.91,-2.23,-2.25,-2.24
197.22,1.76,4.01,1.76,4.02,-4.02,-2.83,-2.26,-2.26,-2.25
199.19,1.61,3.87,1.62,3.89,-3.89,-2.75,-2.28,-2.27,-2.26
201.18,1.46,3.73,1.48,3.76,-3.76,-2.67,-2.30,-2.28,-2.27
203.19,1.32,3.60,1.34,3.63,-3.63,-2.59,-2.31,-2.29,-2.28
205.23,1.18,3.47,1.20,3.50,-3.50,-2.52,-2.32,-2.30,-2.29
207.28,1.04,3.34,1.05,3.37,-3.37,-2.44,-2.33,-2.31,-2.30
209.35,0.91,3.22,0.91,3.23,-3.23,-2.37,-2.33,-2.32,-2.31
211.44,0.79,3.11,0.77,3.10,-3.10,-2.30,-2.31,-2.33,-2.32
213.56,0.64,2.97,0.62,2.96,-2.96,-2.24,-2.33,-2.34,-2.33
215.69,0.50,2.84,0.48,2.83,-2.83,-2.17,-2.33,-2.35,-2.34
217.85,0.36,2.71,0.34,2.69,-2.69,-2.11,-2.33,-2.36,-2.35
220.03,0.21,2.57,0.20,2.56,-2.56,-2.05,-2.35,-2.36,-2.36
222.23,0.05,2.41,0.05,2.42,-2.42,-1.99,-2.37,-2.37,-2.37
224.45,-0.09,2.28,-0.09,2.28,-2.28,-1.93,-2.37,-2.37,-2.37
226.70,-0.25,2.12,-0.23,2.14,-2.14,-1.87,-2.40,-2.37,-2.37
228.96,-0.37,2.00,-0.36,2.01,-2.01,-1.82,-2.38,-2.37,-2.38
231.25,-0.51,1.87,-0.50,1.87,-1.87,-1.76,-2.38,-2.37,-2.38
233.57,-0.63,1.74,-0.64,1.73,-1.73,-1.71,-2.36,-2.37,-2.38
235.90,-0.78,1.59,-0.78,1.59,-1.59,-1.66,-2.37,-2.37,-2.37
238.26,-0.91,1.46,-0.91,1.46,-1.46,-1.61,-2.37,-2.37,-2.37
240.64,-1.02,1.34,-1.04,1.33,-1.33,-1.57,-2.35,-2.37,-2.36
243.05,-1.14,1.21,-1.16,1.20,-1.20,-1.52,-2.34,-2.36,-2.36
245.48,-1.25,1.10,-1.27,1.08,-1.08,-1.48,-2.33,-2.35,-2.35
247.93,-1.36,0.98,-1.38,0.96,-0.96,-1.43,-2.32,-2.35,-2.34
250.41,-1.48,0.85,-1.49,0.85,-0.85,-1.39,-2.34,-2.34,-2.33
252.92,-1.62,0.70,-1.58,0.75,-0.75,-1.35,-2.37,-2.34,-2.32
255.45,-1.71,0.60,-1.67,0.66,-0.66,-1.31,-2.37,-2.33,-2.31
258.00,-1.78,0.52,-1.75,0.58,-0.58,-1.27,-2.36,-2.32,-2.30
260.58,-1.82,0.47,-1.81,0.50,-0.50,-1.24,-2.33,-2.32,-2.29
263.19,-1.87,0.41,-1.86,0.44,-0.44,-1.20,-2.31,-2.30,-2.28
265.82,-1.91,0.36,-1.90,0.39,-0.39,-1.16,-2.30,-2.29,-2.28
268.48,-1.94,0.32,-1.93,0.34,-0.34,-1.13,-2.29,-2.28,-2.27
271.16,-1.98,0.27,-1.95,0.31,-0.31,-1.10,-2.29,-2.26,-2.25
273.87,-2.01,0.23,-1.97,0.28,-0.28,-1.06,-2.29,-2.24,-2.24
276.61,-1.98,0.25,-1.97,0.25,-0.25,-1.03,-2.24,-2.23,-2.23
279.38,-1.96,0.25,-1.98,0.23,-0.23,-1.00,-2.20,-2.21,-2.21
282.17,-1.96,0.23,-1.97,0.22,-0.22,-0.97,-2.18,-2.19,-2.19
284.99,-1.94,0.23,-1.97,0.21,-0.21,-0.94,-2.15,-2.18,-2.18
287.84,-1.91,0.25,-1.97,0.19,-0.19,-0.91,-2.10,-2.16,-2.16
290.72,-1.91,0.23,-1.96,0.18,-0.18,-0.89,-2.09,-2.14,-2.14
293.63,-1.91,0.21,-1.96,0.17,-0.17,-0.86,-2.08,-2.13,-2.12
296.57,-1.95,0.15,-1.95,0.16,-0.16,-0.83,-2.11,-2.11,-2.10
299.53,-1.96,0.12,-1.94,0.15,-0.15,-0.81,-2.11,-2.09,-2.08
302.53,-1.96,0.10,-1.93,0.14,-0.14,-0.78,-2.10,-2.07,-2.06
305.55,-1.96,0.08,-1.92,0.13,-0.13,-0.76,-2.10,-2.05,-2.04
308.61,-1.93,0.09,-1.91,0.13,-0.13,-0.73,-2.06,-2.04,-2.02
311.69,-1.91,0.10,-1.90,0.12,-0.12,-0.71,-2.03,-2.02,-2.01
314.81,-1.89,0.10,-1.89,0.11,-0.11,-0.68,-2.00,-2.00,-1.99
317.96,-1.87,0.10,-1.88,0.10,-0.10,-0.66,-1.97,-1.98,-1.97
321.14,-1.87,0.08,-1.87,0.09,-0.09,-0.64,-1.96,-1.96,-1.96
324.35,-1.85,0.09,-1.86,0.08,-0.08,-0.62,-1.93,-1.94,-1.94
327.59,-1.82,0.10,-1.85,0.07,-0.07,-0.59,-1.89,-1.92,-1.92
330.87,-1.82,0.08,-1.84,0.06,-0.06,-0.57,-1.88,-1.90,-1.90
334.18,-1.82,0.06,-1.83,0.05,-0.05,-0.55,-1.87,-1.88,-1.88
337.52,-1.82,0.04,-1.82,0.03,-0.03,-0.53,-1.86,-1.86,-1.86
340.90,-1.82,0.02,-1.82,0.02,-0.02,-0.51,-1.84,-1.84,-1.84
344.30,-1.82,-0.00,-1.82,0.00,-0.00,-0.49,-1.82,-1.82,-1.82
347.75,-1.82,-0.02,-1.82,-0.02,0.02,-0.47,-1.81,-1.80,-1.80
351.23,-1.82,-0.04,-1.82,-0.03,0.03,-0.45,-1.79,-1.78,-1.78
354.74,-1.82,-0.06,-1.82,-0.05,0.05,-0.43,-1.77,-1.76,-1.76
358.28,-1.82,-0.08,-1.82,-0.07,0.07,-0.41,-1.75,-1.75,-1.74
361.87,-1.82,-0.10,-1.82,-0.09,0.09,-0.39,-1.73,-1.73,-1.73
365.49,-1.82,-0.11,-1.83,-0.11,0.11,-0.37,-1.71,-1.72,-1.71
369.14,-1.82,-0.13,-1.83,-0.13,0.13,-0.35,-1.70,-1.70,-1.70
372.83,-1.82,-0.14,-1.82,-0.14,0.14,-0.33,-1.68,-1.68,-1.68
376.56,-1.82,-0.15,-1.82,-0.15,0.15,-0.31,-1.67,-1.67,-1.67
380.33,-1.82,-0.16,-1.82,-0.16,0.16,-0.29,-1.66,-1.66,-1.66
384.13,-1.82,-0.17,-1.82,-0.17,0.17,-0.27,-1.65,-1.65,-1.65
387.97,-1.82,-0.18,-1.82,-0.18,0.18,-0.25,-1.64,-1.64,-1.64
391.85,-1.82,-0.19,-1.82,-0.18,0.18,-0.23,-1.64,-1.63,-1.63
395.77,-1.82,-0.20,-1.81,-0.18,0.18,-0.22,-1.64,-1.63,-1.62
399.73,-1.81,-0.20,-1.80,-0.18,0.18,-0.20,-1.63,-1.62,-1.61
403.72,-1.78,-0.17,-1.79,-0.18,0.18,-0.18,-1.60,-1.61,-1.61
407.76,-1.77,-0.17,-1.78,-0.17,0.17,-0.16,-1.60,-1.61,-1.60
411.84,-1.77,-0.17,-1.77,-0.16,0.16,-0.15,-1.61,-1.61,-1.60
415.96,-1.77,-0.18,-1.75,-0.15,0.15,-0.13,-1.62,-1.60,-1.60
420.12,-1.75,-0.16,-1.73,-0.14,0.14,-0.11,-1.62,-1.60,-1.59
424.32,-1.71,-0.12,-1.71,-0.12,0.12,-0.10,-1.59,-1.59,-1.59
428.56,-1.67,-0.09,-1.68,-0.10,0.10,-0.08,-1.57,-1.58,-1.58
432.85,-1.64,-0.06,-1.66,-0.08,0.08,-0.07,-1.56,-1.57,-1.58
437.18,-1.63,-0.06,-1.63,-0.06,0.06,-0.06,-1.57,-1.57,-1.57
441.55,-1.60,-0.04,-1.60,-0.04,0.04,-0.04,-1.56,-1.56,-1.56
445.96,-1.59,-0.04,-1.57,-0.03,0.03,-0.03,-1.57,-1.55,-1.55
450.42,-1.55,-0.01,-1.54,-0.01,0.01,-0.02,-1.55,-1.54,-1.54
454.93,-1.51,0.02,-1.51,0.01,-0.01,-0.01,-1.53,-1.53,-1.53
459.48,-1.46,0.06,-1.49,0.03,-0.03,0.00,-1.49,-1.52,-1.52
464.07,-1.44,0.06,-1.46,0.05,-0.05,0.01,-1.49,-1.51,-1.51
468.71,-1.41,0.08,-1.43,0.07,-0.07,0.02,-1.48,-1.50,-1.49
473.40,-1.40,0.08,-1.40,0.09,-0.09,0.02,-1.49,-1.49,-1.48
478.13,-1.36,0.10,-1.37,0.11,-0.11,0.03,-1.47,-1.48,-1.46
482.91,-1.34,0.11,-1.34,0.13,-0.13,0.03,-1.47,-1.46,-1.45
487.74,-1.32,0.12,-1.30,0.14,-0.14,0.04,-1.47,-1.45,-1.44
492.62,-1.27,0.16,-1.27,0.16,-0.16,0.04,-1.44,-1.43,-1.43
497.55,-1.25,0.16,-1.23,0.18,-0.18,0.04,-1.44,-1.42,-1.41
502.52,-1.22,0.18,-1.20,0.20,-0.20,0.04,-1.43,-1.40,-1.40
507.55,-1.17,0.22,-1.16,0.22,-0.22,0.04,-1.40,-1.39,-1.39
512.62,-1.12,0.25,-1.13,0.25,-0.25,0.03,-1.37,-1.37,-1.37
517.75,-1.06,0.29,-1.09,0.27,-0.27,0.03,-1.33,-1.35,-1.36
522.93,-1.03,0.30,-1.05,0.29,-0.29,0.02,-1.32,-1.33,-1.34
528.16,-0.99,0.32,-1.00,0.31,-0.31,0.02,-1.30,-1.31,-1.32
533.44,-0.96,0.33,-0.96,0.33,-0.33,0.01,-1.29,-1.29,-1.29
538.77,-0.93,0.34,-0.92,0.35,-0.35,-0.00,-1.28,-1.27,-1.27
544.16,-0.90,0.35,-0.88,0.37,-0.37,-0.01,-1.27,-1.25,-1.25
549.60,-0.84,0.39,-0.84,0.39,-0.39,-0.02,-1.24,-1.23,-1.23
555.10,-0.78,0.42,-0.79,0.42,-0.42,-0.04,-1.20,-1.21,-1.20
560.65,-0.74,0.44,-0.75,0.44,-0.44,-0.05,-1.18,-1.19,-1.18
566.25,-0.71,0.45,-0.71,0.46,-0.46,-0.07,-1.17,-1.17,-1.16
571.92,-0.66,0.48,-0.66,0.48,-0.48,-0.08,-1.14,-1.15,-1.14
577.64,-0.63,0.49,-0.62,0.51,-0.51,-0.10,-1.14,-1.13,-1.12
583.41,-0.59,0.51,-0.58,0.53,-0.53,-0.11,-1.12,-1.11,-1.10
589.25,-0.54,0.54,-0.53,0.55,-0.55,-0.13,-1.10,-1.09,-1.08
595.14,-0.48,0.58,-0.49,0.58,-0.58,-0.15,-1.06,-1.07,-1.06
601.09,-0.44,0.61,-0.45,0.60,-0.60,-0.17,-1.04,-1.05,-1.05
607.10,-0.40,0.63,-0.41,0.62,-0.62,-0.19,-1.02,-1.03,-1.03
613.17,-0.37,0.65,-0.38,0.64,-0.64,-0.21,-1.01,-1.02,-1.02
619.30,-0.34,0.67,-0.35,0.66,-0.66,-0.23,-1.00,-1.00,-1.01
625.50,-0.31,0.68,-0.31,0.67,-0.67,-0.25,-0.99,-0.99,-0.99
631.75,-0.28,0.70,-0.29,0.69,-0.69,-0.28,-0.97,-0.97,-0.98
638.07,-0.26,0.70,-0.26,0.70,-0.70,-0.30,-0.96,-0.96,-0.97
644.45,-0.24,0.71,-0.24,0.71,-0.71,-0.32,-0.95,-0.95,-0.95
650.89,-0.21,0.72,-0.21,0.72,-0.72,-0.35,-0.93,-0.93,-0.94
657.40,-0.19,0.73,-0.20,0.73,-0.73,-0.37,-0.92,-0.92,-0.92
663.98,-0.17,0.74,-0.18,0.73,-0.73,-0.40,-0.90,-0.91,-0.91
670.62,-0.16,0.73,-0.16,0.74,-0.74,-0.42,-0.90,-0.90,-0.89
677.32,-0.16,0.72,-0.15,0.74,-0.74,-0.45,-0.90,-0.89,-0.88
