frequency,raw,smoothed,error,error_smoothed,equalization,parametric_eq,fixed_band_eq,equalized_raw,equalized_smoothed,target
20.00,-0.72,-0.72,-2.51,-2.50,2.50,2.54,0.11,1.78,1.78,1.79
20.20,-0.67,-0.67,-2.46,-2.46,2.46,2.47,0.11,1.79,1.79,1.79
20.40,-0.63,-0.63,-2.42,-2.42,2.42,2.41,0.12,1.79,1.79,1.79
20.61,-0.58,-0.58,-2.37,-2.37,2.37,2.34,0.12,1.79,1.79,1.79
20.81,-0.54,-0.54,-2.33,-2.32,2.32,2.28,0.13,1.78,1.79,1.79
21.02,-0.49,-0.49,-2.27,-2.27,2.27,2.22,0.13,1.78,1.78,1.79
21.23,-0.45,-0.45,-2.21,-2.22,2.22,2.15,0.14,1.77,1.77,1.77
21.44,-0.41,-0.41,-2.16,-2.16,2.16,2.09,0.14,1.75,1.75,1.75
21.66,-0.36,-0.36,-2.09,-2.10,2.10,2.03,0.15,1.74,1.74,1.73
21.87,-0.32,-0.32,-2.03,-2.03,2.03,1.96,0.15,1.72,1.72,1.71
22.09,-0.27,-0.27,-1.97,-1.97,1.97,1.90,0.16,1.70,1.70,1.70
22.31,-0.23,-0.23,-1.90,-1.90,1.90,1.84,0.17,1.67,1.67,1.67
22.54,-0.18,-0.18,-1.83,-1.83,1.83,1.77,0.17,1.65,1.65,1.65
22.76,-0.13,-0.13,-1.76,-1.76,1.76,1.71,0.18,1.63,1.63,1.63
22.99,-0.08,-0.08,-1.68,-1.68,1.69,1.65,0.19,1.61,1.60,1.60
23.22,-0.04,-0.04,-1.61,-1.61,1.62,1.58,0.19,1.58,1.58,1.57
23.45,0.01,0.01,-1.54,-1.54,1.55,1.52,0.20,1.56,1.56,1.55
23.69,0.06,0.06,-1.48,-1.47,1.48,1.46,0.21,1.54,1.54,1.54
23.92,0.11,0.11,-1.41,-1.41,1.41,1.40,0.21,1.52,1.52,1.52
24.16,0.16,0.16,-1.35,-1.35,1.34,1.34,0.22,1.50,1.50,1.51
24.40,0.20,0.20,-1.28,-1.28,1.28,1.27,0.23,1.48,1.48,1.49
24.65,0.25,0.25,-1.21,-1.21,1.21,1.21,0.23,1.46,1.46,1.46
24.89,0.30,0.30,-1.14,-1.15,1.14,1.15,0.24,1.45,1.45,1.44
25.14,0.35,0.35,-1.08,-1.08,1.08,1.09,0.25,1.43,1.43,1.43
25.39,0.40,0.40,-1.01,-1.01,1.01,1.03,0.25,1.41,1.41,1.41
25.65,0.45,0.45,-0.95,-0.94,0.95,0.97,0.26,1.40,1.40,1.40
25.91,0.50,0.50,-0.87,-0.88,0.88,0.91,0.27,1.38,1.38,1.37
26.16,0.54,0.54,-0.82,-0.81,0.82,0.85,0.27,1.36,1.36,1.36
26.43,0.59,0.59,-0.76,-0.75,0.75,0.79,0.28,1.34,1.35,1.35
26.69,0.64,0.64,-0.69,-0.69,0.69,0.73,0.28,1.33,1.33,1.33
26.96,0.68,0.68,-0.63,-0.63,0.63,0.67,0.29,1.31,1.32,1.32
27.23,0.73,0.73,-0.57,-0.57,0.57,0.62,0.29,1.30,1.30,1.30
27.50,0.77,0.77,-0.52,-0.52,0.51,0.56,0.30,1.28,1.28,1.29
27.77,0.82,0.82,-0.45,-0.45,0.45,0.50,0.30,1.27,1.27,1.27
28.05,0.86,0.86,-0.40,-0.39,0.39,0.44,0.30,1.25,1.26,1.26
28.33,0.91,0.91,-0.33,-0.33,0.33,0.39,0.31,1.25,1.24,1.24
28.62,0.95,0.95,-0.28,-0.27,0.28,0.33,0.31,1.23,1.23,1.23
28.90,0.99,1.00,-0.22,-0.22,0.22,0.28,0.31,1.21,1.22,1.21
29.19,1.04,1.04,-0.15,-0.16,0.16,0.22,0.31,1.20,1.20,1.19
29.48,1.08,1.08,-0.11,-0.11,0.11,0.17,0.30,1.19,1.19,1.19
29.78,1.12,1.12,-0.06,-0.06,0.06,0.11,0.30,1.18,1.18,1.18
30.08,1.16,1.16,-0.01,-0.01,0.00,0.06,0.30,1.16,1.16,1.17
30.38,1.19,1.19,0.04,0.05,-0.05,0.01,0.29,1.14,1.15,1.15
30.68,1.23,1.23,0.10,0.10,-0.10,-0.05,0.28,1.13,1.13,1.13
30.99,1.27,1.27,0.16,0.15,-0.15,-0.10,0.28,1.12,1.12,1.11
31.30,1.30,1.30,0.20,0.20,-0.20,-0.15,0.27,1.10,1.10,1.10
31.61,1.32,1.32,0.23,0.24,-0.24,-0.20,0.26,1.08,1.08,1.09
31.93,1.35,1.35,0.28,0.29,-0.29,-0.25,0.24,1.06,1.06,1.07
32.24,1.37,1.37,0.34,0.33,-0.33,-0.30,0.23,1.04,1.04,1.03
32.57,1.40,1.40,0.38,0.38,-0.38,-0.35,0.22,1.02,1.02,1.02
32.89,1.42,1.42,0.41,0.42,-0.42,-0.39,0.20,1.00,1.00,1.01
33.22,1.44,1.44,0.47,0.46,-0.46,-0.44,0.18,0.98,0.98,0.97
33.55,1.46,1.46,0.50,0.50,-0.50,-0.49,0.16,0.96,0.96,0.96
33.89,1.48,1.48,0.54,0.54,-0.54,-0.53,0.14,0.94,0.94,0.94
34.23,1.50,1.50,0.58,0.58,-0.58,-0.58,0.12,0.92,0.92,0.92
34.57,1.51,1.51,0.62,0.62,-0.62,-0.62,0.10,0.89,0.89,0.89
34.92,1.53,1.53,0.66,0.66,-0.66,-0.66,0.08,0.87,0.87,0.87
35.27,1.55,1.55,0.69,0.69,-0.69,-0.71,0.05,0.86,0.85,0.86
35.62,1.56,1.56,0.73,0.73,-0.73,-0.75,0.03,0.83,0.83,0.83
35.97,1.58,1.58,0.77,0.77,-0.77,-0.79,0.00,0.81,0.81,0.81
36.33,1.59,1.59,0.80,0.80,-0.80,-0.83,-0.02,0.79,0.79,0.80
36.70,1.61,1.61,0.84,0.84,-0.84,-0.87,-0.05,0.77,0.77,0.77
37.06,1.62,1.62,0.87,0.87,-0.87,-0.91,-0.08,0.75,0.75,0.75
37.43,1.63,1.64,0.90,0.91,-0.91,-0.94,-0.11,0.73,0.73,0.73
37.81,1.65,1.65,0.94,0.94,-0.94,-0.98,-0.14,0.71,0.71,0.71
38.19,1.66,1.66,0.98,0.97,-0.97,-1.02,-0.17,0.69,0.69,0.68
38.57,1.67,1.67,1.00,1.01,-1.00,-1.05,-0.20,0.67,0.67,0.67
38.95,1.68,1.68,1.04,1.04,-1.04,-1.08,-0.23,0.64,0.65,0.64
39.34,1.69,1.69,1.07,1.07,-1.07,-1.12,-0.27,0.62,0.62,0.62
39.74,1.70,1.70,1.11,1.10,-1.10,-1.15,-0.30,0.61,0.60,0.59
40.14,1.70,1.70,1.11,1.12,-1.12,-1.18,-0.33,0.58,0.58,0.59
40.54,1.71,1.71,1.15,1.15,-1.15,-1.21,-0.36,0.56,0.56,0.56
40.94,1.72,1.72,1.17,1.17,-1.17,-1.24,-0.40,0.55,0.55,0.55
41.35,1.73,1.73,1.21,1.20,-1.20,-1.27,-0.43,0.53,0.53,0.52
41.76,1.73,1.74,1.22,1.22,-1.22,-1.30,-0.47,0.51,0.51,0.52
42.18,1.74,1.74,1.24,1.25,-1.25,-1.32,-0.50,0.49,0.49,0.50
42.60,1.75,1.75,1.28,1.27,-1.27,-1.35,-0.54,0.48,0.48,0.47
43.03,1.75,1.75,1.29,1.29,-1.30,-1.37,-0.58,0.45,0.46,0.47
43.46,1.76,1.76,1.32,1.32,-1.32,-1.40,-0.62,0.44,0.44,0.44
43.90,1.76,1.76,1.35,1.35,-1.35,-1.42,-0.65,0.41,0.41,0.41
44.33,1.77,1.77,1.38,1.38,-1.37,-1.44,-0.69,0.40,0.39,0.39
44.78,1.77,1.77,1.40,1.40,-1.40,-1.47,-0.73,0.37,0.37,0.37
45.23,1.77,1.77,1.42,1.43,-1.42,-1.49,-0.77,0.35,0.35,0.35
45.68,1.78,1.78,1.45,1.45,-1.44,-1.51,-0.81,0.34,0.33,0.33
46.13,1.78,1.78,1.47,1.47,-1.46,-1.52,-0.85,0.32,0.32,0.31
46.60,1.78,1.78,1.48,1.49,-1.48,-1.54,-0.89,0.30,0.30,0.30
47.06,1.78,1.78,1.50,1.50,-1.50,-1.56,-0.93,0.28,0.28,0.28
47.53,1.78,1.78,1.52,1.51,-1.52,-1.58,-0.97,0.26,0.26,0.26
48.01,1.77,1.77,1.52,1.53,-1.54,-1.59,-1.01,0.23,0.23,0.25
48.49,1.77,1.77,1.55,1.55,-1.56,-1.61,-1.06,0.21,0.21,0.22
48.97,1.77,1.77,1.58,1.58,-1.58,-1.62,-1.10,0.19,0.19,0.19
49.46,1.77,1.77,1.61,1.61,-1.60,-1.63,-1.14,0.17,0.17,0.16
49.96,1.76,1.76,1.64,1.63,-1.62,-1.65,-1.18,0.14,0.14,0.13
50.46,1.76,1.76,1.64,1.64,-1.64,-1.66,-1.23,0.12,0.12,0.12
50.96,1.75,1.75,1.65,1.66,-1.66,-1.67,-1.27,0.09,0.09,0.10
51.47,1.75,1.75,1.68,1.67,-1.68,-1.68,-1.31,0.07,0.07,0.07
51.99,1.74,1.74,1.70,1.69,-1.69,-1.69,-1.36,0.05,0.05,0.04
52.51,1.73,1.74,1.70,1.71,-1.71,-1.70,-1.40,0.02,0.03,0.03
53.03,1.73,1.73,1.73,1.72,-1.72,-1.71,-1.44,0.01,0.00,0.01
53.56,1.72,1.72,1.74,1.74,-1.74,-1.72,-1.48,-0.02,-0.02,-0.02
54.10,1.71,1.71,1.76,1.76,-1.76,-1.73,-1.53,-0.05,-0.04,-0.05
54.64,1.70,1.70,1.77,1.77,-1.77,-1.74,-1.57,-0.07,-0.07,-0.07
55.18,1.69,1.69,1.79,1.79,-1.79,-1.74,-1.61,-0.10,-0.10,-0.10
55.74,1.68,1.68,1.81,1.80,-1.80,-1.75,-1.65,-0.12,-0.12,-0.12
56.29,1.67,1.67,1.81,1.82,-1.82,-1.76,-1.68,-0.15,-0.15,-0.14
56.86,1.66,1.66,1.83,1.83,-1.83,-1.76,-1.72,-0.17,-0.17,-0.17
57.42,1.64,1.64,1.84,1.84,-1.84,-1.77,-1.75,-0.20,-0.20,-0.20
58.00,1.63,1.63,1.85,1.85,-1.85,-1.78,-1.79,-0.22,-0.22,-0.22
58.58,1.62,1.62,1.87,1.87,-1.86,-1.78,-1.82,-0.24,-0.24,-0.25
59.16,1.61,1.61,1.88,1.88,-1.87,-1.79,-1.85,-0.26,-0.27,-0.27
59.76,1.59,1.59,1.88,1.88,-1.88,-1.79,-1.88,-0.29,-0.29,-0.29
60.35,1.57,1.58,1.89,1.89,-1.90,-1.80,-1.90,-0.32,-0.32,-0.32
60.96,1.56,1.56,1.89,1.90,-1.91,-1.80,-1.93,-0.35,-0.35,-0.33
61.57,1.54,1.54,1.92,1.91,-1.92,-1.81,-1.95,-0.38,-0.38,-0.38
62.18,1.52,1.52,1.93,1.93,-1.93,-1.82,-1.97,-0.41,-0.41,-0.41
62.80,1.50,1.50,1.94,1.94,-1.94,-1.82,-1.99,-0.44,-0.44,-0.44
63.43,1.48,1.48,1.95,1.95,-1.94,-1.83,-2.00,-0.46,-0.46,-0.47
64.07,1.46,1.46,1.96,1.95,-1.95,-1.83,-2.02,-0.49,-0.49,-0.50
64.71,1.44,1.44,1.95,1.96,-1.96,-1.84,-2.03,-0.52,-0.52,-0.51
65.35,1.42,1.42,1.96,1.96,-1.96,-1.84,-2.04,-0.54,-0.54,-0.54
66.01,1.40,1.40,1.96,1.96,-1.97,-1.85,-2.05,-0.56,-0.56,-0.56
66.67,1.38,1.38,1.97,1.97,-1.97,-1.86,-2.05,-0.59,-0.59,-0.59
67.33,1.36,1.36,1.97,1.97,-1.97,-1.86,-2.06,-0.61,-0.61,-0.61
68.01,1.34,1.34,1.98,1.97,-1.97,-1.87,-2.06,-0.63,-0.63,-0.64
68.69,1.31,1.31,1.97,1.98,-1.97,-1.88,-2.06,-0.66,-0.66,-0.66
69.37,1.29,1.29,1.98,1.98,-1.97,-1.88,-2.06,-0.68,-0.69,-0.69
70.07,1.26,1.26,1.97,1.98,-1.98,-1.89,-2.06,-0.72,-0.71,-0.71
70.77,1.24,1.24,1.98,1.98,-1.98,-1.90,-2.06,-0.74,-0.74,-0.74
71.48,1.21,1.21,1.98,1.98,-1.98,-1.91,-2.06,-0.77,-0.77,-0.77
72.19,1.18,1.18,1.98,1.99,-1.99,-1.92,-2.06,-0.81,-0.80,-0.80
72.91,1.16,1.16,1.99,1.99,-1.99,-1.93,-2.06,-0.83,-0.83,-0.83
73.64,1.13,1.13,2.00,2.00,-2.00,-1.94,-2.05,-0.87,-0.87,-0.87
74.38,1.10,1.10,2.00,2.01,-2.00,-1.95,-2.05,-0.90,-0.90,-0.90
75.12,1.07,1.07,2.02,2.01,-2.01,-1.96,-2.05,-0.94,-0.94,-0.95
75.87,1.04,1.04,2.02,2.01,-2.02,-1.97,-2.05,-0.98,-0.98,-0.98
76.63,1.01,1.01,2.02,2.02,-2.02,-1.98,-2.05,-1.01,-1.01,-1.01
77.40,0.98,0.98,2.03,2.03,-2.03,-2.00,-2.05,-1.05,-1.05,-1.05
78.17,0.95,0.95,2.05,2.04,-2.04,-2.01,-2.05,-1.09,-1.09,-1.10
78.95,0.92,0.92,2.04,2.05,-2.05,-2.02,-2.06,-1.13,-1.13,-1.12
79.74,0.89,0.89,2.06,2.06,-2.06,-2.04,-2.06,-1.17,-1.17,-1.16
80.54,0.86,0.86,2.07,2.07,-2.07,-2.05,-2.06,-1.21,-1.21,-1.21
81.35,0.82,0.82,2.07,2.08,-2.08,-2.07,-2.07,-1.26,-1.25,-1.25
82.16,0.79,0.79,2.09,2.09,-2.09,-2.08,-2.08,-1.30,-1.30,-1.30
82.98,0.75,0.75,2.09,2.10,-2.10,-2.10,-2.09,-1.35,-1.34,-1.34
83.81,0.72,0.72,2.11,2.11,-2.11,-2.12,-2.10,-1.39,-1.39,-1.39
84.65,0.68,0.68,2.12,2.12,-2.12,-2.14,-2.11,-1.44,-1.43,-1.44
85.50,0.65,0.65,2.13,2.13,-2.13,-2.15,-2.13,-1.48,-1.48,-1.48
86.35,0.61,0.61,2.14,2.14,-2.14,-2.17,-2.14,-1.53,-1.53,-1.53
87.22,0.57,0.57,2.15,2.15,-2.15,-2.19,-2.16,-1.58,-1.58,-1.58
88.09,0.53,0.53,2.16,2.16,-2.16,-2.21,-2.18,-1.63,-1.63,-1.63
88.97,0.49,0.49,2.16,2.17,-2.17,-2.23,-2.20,-1.68,-1.68,-1.67
89.86,0.46,0.46,2.18,2.18,-2.18,-2.25,-2.22,-1.72,-1.72,-1.72
90.76,0.42,0.42,2.20,2.20,-2.19,-2.27,-2.24,-1.77,-1.77,-1.78
91.66,0.38,0.38,2.21,2.21,-2.20,-2.29,-2.27,-1.82,-1.82,-1.83
92.58,0.34,0.34,2.23,2.22,-2.22,-2.31,-2.30,-1.88,-1.88,-1.89
93.51,0.30,0.30,2.22,2.23,-2.23,-2.33,-2.33,-1.93,-1.93,-1.92
94.44,0.26,0.26,2.24,2.24,-2.24,-2.36,-2.36,-1.98,-1.98,-1.98
95.39,0.22,0.22,2.25,2.25,-2.26,-2.38,-2.39,-2.04,-2.04,-2.03
96.34,0.18,0.18,2.28,2.27,-2.27,-2.40,-2.42,-2.09,-2.09,-2.10
97.30,0.14,0.14,2.29,2.29,-2.29,-2.42,-2.46,-2.15,-2.15,-2.15
98.28,0.10,0.10,2.31,2.31,-2.31,-2.44,-2.49,-2.21,-2.21,-2.21
99.26,0.06,0.06,2.33,2.33,-2.33,-2.47,-2.53,-2.27,-2.27,-2.27
100.25,0.02,0.02,2.35,2.35,-2.35,-2.49,-2.57,-2.33,-2.33,-2.33
101.25,-0.02,-0.02,2.36,2.37,-2.37,-2.51,-2.61,-2.39,-2.39,-2.38
102.27,-0.06,-0.06,2.39,2.39,-2.39,-2.53,-2.65,-2.45,-2.45,-2.45
103.29,-0.10,-0.10,2.42,2.41,-2.41,-2.56,-2.69,-2.51,-2.51,-2.52
104.32,-0.14,-0.14,2.43,2.44,-2.44,-2.58,-2.73,-2.58,-2.57,-2.57
105.37,-0.17,-0.17,2.46,2.46,-2.46,-2.60,-2.77,-2.63,-2.63,-2.63
106.42,-0.21,-0.21,2.49,2.48,-2.48,-2.62,-2.81,-2.69,-2.69,-2.69
107.48,-0.25,-0.25,2.51,2.51,-2.51,-2.65,-2.85,-2.76,-2.76,-2.76
108.56,-0.29,-0.29,2.54,2.54,-2.54,-2.67,-2.89,-2.83,-2.83,-2.83
109.64,-0.33,-0.33,2.56,2.56,-2.56,-2.69,-2.93,-2.89,-2.89,-2.89
110.74,-0.36,-0.36,2.59,2.59,-2.59,-2.71,-2.96,-2.95,-2.96,-2.95
111.85,-0.40,-0.40,2.62,2.62,-2.62,-2.73,-3.00,-3.02,-3.02,-3.02
112.97,-0.44,-0.44,2.66,2.65,-2.65,-2.75,-3.03,-3.09,-3.09,-3.10
114.10,-0.48,-0.48,2.68,2.68,-2.68,-2.77,-3.07,-3.16,-3.16,-3.16
115.24,-0.51,-0.51,2.71,2.71,-2.71,-2.79,-3.09,-3.22,-3.23,-3.22
116.39,-0.55,-0.55,2.75,2.74,-2.74,-2.81,-3.12,-3.29,-3.29,-3.30
117.55,-0.59,-0.59,2.77,2.77,-2.77,-2.83,-3.15,-3.36,-3.35,-3.36
118.73,-0.62,-0.62,2.80,2.80,-2.80,-2.85,-3.17,-3.41,-3.42,-3.42
119.92,-0.66,-0.66,2.82,2.82,-2.82,-2.86,-3.18,-3.48,-3.48,-3.48
121.12,-0.70,-0.69,2.84,2.84,-2.84,-2.88,-3.20,-3.54,-3.54,-3.54
122.33,-0.73,-0.73,2.87,2.86,-2.87,-2.90,-3.21,-3.60,-3.60,-3.60
123.55,-0.77,-0.77,2.88,2.89,-2.89,-2.91,-3.21,-3.66,-3.66,-3.65
124.79,-0.81,-0.81,2.91,2.91,-2.91,-2.92,-3.22,-3.72,-3.71,-3.71
126.03,-0.84,-0.84,2.93,2.93,-2.93,-2.94,-3.22,-3.77,-3.77,-3.76
127.29,-0.88,-0.88,2.95,2.95,-2.95,-2.95,-3.21,-3.83,-3.83,-3.82
128.57,-0.92,-0.92,2.97,2.97,-2.97,-2.96,-3.20,-3.89,-3.88,-3.89
129.85,-0.95,-0.95,2.99,2.99,-2.99,-2.97,-3.19,-3.94,-3.94,-3.94
131.15,-0.99,-0.99,3.00,3.01,-3.00,-2.98,-3.17,-3.99,-3.99,-3.99
132.46,-1.03,-1.03,3.02,3.02,-3.02,-2.99,-3.15,-4.05,-4.04,-4.05
133.79,-1.06,-1.06,3.03,3.03,-3.03,-3.00,-3.13,-4.09,-4.09,-4.08
135.12,-1.10,-1.10,3.04,3.03,-3.04,-3.01,-3.10,-4.14,-4.14,-4.14
136.48,-1.14,-1.13,3.04,3.04,-3.04,-3.02,-3.07,-4.18,-4.18,-4.18
137.84,-1.17,-1.17,3.04,3.05,-3.05,-3.02,-3.04,-4.22,-4.22,-4.21
139.22,-1.21,-1.21,3.05,3.05,-3.05,-3.03,-3.01,-4.26,-4.26,-4.26
140.61,-1.25,-1.24,3.06,3.05,-3.05,-3.03,-2.97,-4.29,-4.29,-4.31
142.02,-1.28,-1.28,3.04,3.04,-3.04,-3.03,-2.94,-4.32,-4.32,-4.32
143.44,-1.32,-1.32,3.03,3.04,-3.04,-3.03,-2.90,-4.35,-4.36,-4.35
144.87,-1.36,-1.36,3.03,3.03,-3.03,-3.03,-2.86,-4.39,-4.39,-4.39
146.32,-1.40,-1.40,3.02,3.01,-3.02,-3.03,-2.82,-4.42,-4.42,-4.42
147.78,-1.44,-1.44,3.00,3.00,-3.01,-3.03,-2.78,-4.45,-4.45,-4.44
149.26,-1.48,-1.48,2.99,3.00,-3.00,-3.03,-2.74,-4.48,-4.47,-4.47
150.75,-1.51,-1.51,2.99,2.99,-2.98,-3.02,-2.70,-4.49,-4.50,-4.50
152.26,-1.55,-1.55,2.98,2.98,-2.97,-3.02,-2.66,-4.52,-4.53,-4.53
153.78,-1.60,-1.60,2.96,2.96,-2.96,-3.01,-2.61,-4.56,-4.55,-4.56
155.32,-1.64,-1.64,2.94,2.94,-2.95,-3.00,-2.58,-4.58,-4.58,-4.58
156.88,-1.68,-1.68,2.92,2.93,-2.93,-3.00,-2.54,-4.61,-4.61,-4.60
158.44,-1.72,-1.72,2.92,2.91,-2.91,-2.99,-2.50,-4.63,-4.64,-4.64
160.03,-1.77,-1.77,2.90,2.90,-2.89,-2.98,-2.46,-4.66,-4.66,-4.67
161.63,-1.82,-1.82,2.88,2.88,-2.88,-2.96,-2.43,-4.70,-4.69,-4.70
163.24,-1.86,-1.86,2.86,2.86,-2.86,-2.95,-2.39,-4.72,-4.72,-4.72
164.88,-1.91,-1.91,2.83,2.84,-2.84,-2.94,-2.36,-4.75,-4.75,-4.74
166.53,-1.95,-1.95,2.82,2.82,-2.82,-2.92,-2.33,-4.77,-4.78,-4.77
168.19,-2.00,-2.00,2.81,2.81,-2.81,-2.91,-2.30,-4.81,-4.81,-4.81
169.87,-2.04,-2.04,2.80,2.80,-2.80,-2.89,-2.27,-4.84,-4.84,-4.84
171.57,-2.08,-2.08,2.78,2.78,-2.78,-2.87,-2.24,-4.86,-4.87,-4.86
173.29,-2.12,-2.12,2.77,2.77,-2.78,-2.85,-2.22,-4.90,-4.90,-4.89
175.02,-2.16,-2.16,2.77,2.77,-2.77,-2.83,-2.19,-4.93,-4.93,-4.92
176.77,-2.20,-2.20,2.77,2.77,-2.76,-2.81,-2.17,-4.96,-4.96,-4.97
178.54,-2.24,-2.24,2.76,2.76,-2.76,-2.79,-2.15,-5.00,-5.00,-5.00
180.32,-2.28,-2.28,2.76,2.76,-2.76,-2.77,-2.13,-5.04,-5.04,-5.04
182.13,-2.32,-2.32,2.75,2.75,-2.76,-2.74,-2.12,-5.08,-5.08,-5.07
183.95,-2.36,-2.36,2.75,2.75,-2.76,-2.72,-2.10,-5.11,-5.11,-5.11
185.79,-2.39,-2.39,2.75,2.75,-2.75,-2.69,-2.09,-5.14,-5.14,-5.14
187.65,-2.43,-2.43,2.75,2.75,-2.75,-2.66,-2.08,-5.17,-5.17,-5.18
189.52,-2.47,-2.47,2.74,2.74,-2.74,-2.64,-2.07,-5.21,-5.21,-5.21
191.42,-2.51,-2.51,2.73,2.73,-2.73,-2.61,-2.06,-5.24,-5.24,-5.24
193.33,-2.55,-2.55,2.71,2.71,-2.72,-2.58,-2.05,-5.27,-5.27,-5.26
195.27,-2.59,-2.59,2.70,2.70,-2.71,-2.55,-2.04,-5.30,-5.30,-5.29
197.22,-2.64,-2.63,2.68,2.69,-2.69,-2.52,-2.04,-5.33,-5.33,-5.32
199.19,-2.68,-2.68,2.69,2.68,-2.67,-2.49,-2.03,-5.35,-5.35,-5.37
201.18,-2.72,-2.72,2.66,2.66,-2.65,-2.46,-2.03,-5.37,-5.38,-5.38
203.19,-2.77,-2.77,2.63,2.64,-2.63,-2.42,-2.03,-5.40,-5.40,-5.40
205.23,-2.81,-2.81,2.61,2.61,-2.61,-2.39,-2.03,-5.42,-5.42,-5.42
207.28,-2.85,-2.85,2.58,2.59,-2.59,-2.35,-2.03,-5.44,-5.44,-5.43
209.35,-2.90,-2.90,2.56,2.57,-2.56,-2.32,-2.03,-5.46,-5.46,-5.46
211.44,-2.94,-2.94,2.55,2.54,-2.54,-2.28,-2.03,-5.48,-5.48,-5.49
213.56,-2.99,-2.99,2.51,2.51,-2.51,-2.25,-2.03,-5.50,-5.50,-5.50
215.69,-3.03,-3.03,2.47,2.48,-2.48,-2.21,-2.03,-5.51,-5.51,-5.50
217.85,-3.08,-3.08,2.44,2.45,-2.45,-2.17,-2.03,-5.53,-5.52,-5.52
220.03,-3.12,-3.12,2.42,2.41,-2.41,-2.14,-2.03,-5.53,-5.53,-5.54
222.23,-3.17,-3.17,2.38,2.38,-2.37,-2.10,-2.03,-5.54,-5.54,-5.55
224.45,-3.22,-3.22,2.32,2.34,-2.33,-2.06,-2.03,-5.55,-5.55,-5.54
226.70,-3.26,-3.26,2.29,2.29,-2.29,-2.02,-2.02,-5.55,-5.55,-5.55
228.96,-3.31,-3.31,2.25,2.24,-2.24,-1.98,-2.02,-5.55,-5.55,-5.55
231.25,-3.36,-3.36,2.19,2.19,-2.19,-1.94,-2.01,-5.55,-5.55,-5.54
233.57,-3.40,-3.40,2.14,2.14,-2.14,-1.90,-2.01,-5.54,-5.54,-5.54
235.90,-3.45,-3.45,2.09,2.09,-2.09,-1.86,-2.00,-5.54,-5.53,-5.53
238.26,-3.49,-3.49,2.04,2.04,-2.03,-1.81,-1.99,-5.52,-5.53,-5.53
240.64,-3.54,-3.54,1.97,1.98,-1.98,-1.77,-1.98,-5.52,-5.51,-5.51
243.05,-3.58,-3.58,1.92,1.92,-1.92,-1.73,-1.96,-5.50,-5.50,-5.50
245.48,-3.62,-3.62,1.86,1.86,-1.87,-1.69,-1.94,-5.48,-5.49,-5.48
247.93,-3.66,-3.66,1.81,1.81,-1.81,-1.64,-1.92,-5.47,-5.47,-5.47
250.41,-3.70,-3.70,1.76,1.75,-1.75,-1.60,-1.90,-5.45,-5.45,-5.46
252.92,-3.73,-3.73,1.69,1.70,-1.70,-1.56,-1.88,-5.43,-5.43,-5.42
255.45,-3.76,-3.76,1.64,1.64,-1.64,-1.51,-1.85,-5.40,-5.41,-5.40
258.00,-3.80,-3.80,1.58,1.58,-1.59,-1.47,-1.82,-5.39,-5.38,-5.38
260.58,-3.83,-3.83,1.54,1.53,-1.53,-1.42,-1.79,-5.36,-5.36,-5.36
263.19,-3.86,-3.86,1.48,1.48,-1.48,-1.38,-1.76,-5.34,-5.34,-5.34
265.82,-3.89,-3.89,1.43,1.43,-1.43,-1.34,-1.72,-5.32,-5.31,-5.32
268.48,-3.91,-3.91,1.38,1.38,-1.38,-1.29,-1.68,-5.29,-5.29,-5.29
271.16,-3.94,-3.94,1.32,1.33,-1.33,-1.25,-1.64,-5.27,-5.27,-5.26
273.87,-3.97,-3.97,1.28,1.27,-1.28,-1.20,-1.60,-5.25,-5.24,-5.25
276.61,-3.99,-3.99,1.22,1.22,-1.23,-1.15,-1.56,-5.21,-5.22,-5.21
279.38,-4.02,-4.02,1.18,1.18,-1.17,-1.11,-1.51,-5.19,-5.19,-5.20
282.17,-4.05,-4.05,1.12,1.13,-1.12,-1.06,-1.46,-5.17,-5.17,-5.17
284.99,-4.07,-4.07,1.08,1.07,-1.07,-1.02,-1.42,-5.14,-5.14,-5.15
287.84,-4.10,-4.10,1.02,1.02,-1.02,-0.97,-1.37,-5.12,-5.12,-5.12
290.72,-4.13,-4.13,0.96,0.96,-0.97,-0.93,-1.31,-5.10,-5.09,-5.09
293.63,-4.16,-4.16,0.91,0.91,-0.91,-0.88,-1.26,-5.07,-5.07,-5.07
296.57,-4.18,-4.18,0.85,0.86,-0.85,-0.84,-1.21,-5.03,-5.04,-5.03
299.53,-4.21,-4.21,0.80,0.80,-0.79,-0.79,-1.16,-5.00,-5.00,-5.01
302.53,-4.24,-4.24,0.74,0.74,-0.73,-0.74,-1.10,-4.97,-4.97,-4.98
305.55,-4.27,-4.27,0.67,0.67,-0.67,-0.70,-1.05,-4.94,-4.94,-4.94
308.61,-4.30,-4.30,0.61,0.61,-0.61,-0.65,-0.99,-4.91,-4.91,-4.91
311.69,-4.33,-4.33,0.54,0.54,-0.55,-0.61,-0.94,-4.88,-4.88,-4.87
314.81,-4.36,-4.36,0.48,0.48,-0.48,-0.56,-0.88,-4.84,-4.84,-4.84
317.96,-4.39,-4.39,0.42,0.42,-0.42,-0.52,-0.83,-4.81,-4.81,-4.81
321.14,-4.42,-4.42,0.36,0.36,-0.36,-0.47,-0.77,-4.78,-4.78,-4.78
324.35,-4.45,-4.45,0.31,0.30,-0.30,-0.43,-0.72,-4.75,-4.75,-4.76
327.59,-4.48,-4.48,0.24,0.24,-0.24,-0.39,-0.66,-4.72,-4.72,-4.72
330.87,-4.52,-4.52,0.17,0.18,-0.18,-0.34,-0.60,-4.70,-4.70,-4.69
334.18,-4.55,-4.55,0.13,0.12,-0.12,-0.30,-0.55,-4.67,-4.67,-4.67
337.52,-4.58,-4.58,0.07,0.07,-0.07,-0.26,-0.49,-4.65,-4.65,-4.65
340.90,-4.61,-4.61,0.01,0.01,-0.01,-0.21,-0.44,-4.62,-4.62,-4.62
344.30,-4.64,-4.64,-0.04,-0.04,0.04,-0.17,-0.38,-4.60,-4.60,-4.60
347.75,-4.67,-4.67,-0.09,-0.09,0.09,-0.13,-0.32,-4.58,-4.58,-4.57
351.23,-4.69,-4.69,-0.13,-0.14,0.14,-0.09,-0.27,-4.55,-4.56,-4.56
354.74,-4.72,-4.72,-0.18,-0.18,0.18,-0.05,-0.21,-4.54,-4.54,-4.54
358.28,-4.75,-4.75,-0.23,-0.23,0.23,-0.01,-0.16,-4.52,-4.52,-4.52
361.87,-4.77,-4.77,-0.27,-0.27,0.27,0.03,-0.10,-4.50,-4.50,-4.50
365.49,-4.80,-4.80,-0.32,-0.32,0.31,0.07,-0.05,-4.49,-4.48,-4.48
369.14,-4.82,-4.82,-0.35,-0.35,0.36,0.11,0.01,-4.46,-4.46,-4.47
372.83,-4.84,-4.84,-0.39,-0.39,0.40,0.15,0.06,-4.44,-4.44,-4.45
376.56,-4.86,-4.86,-0.43,-0.43,0.44,0.18,0.12,-4.42,-4.42,-4.43
380.33,-4.88,-4.88,-0.48,-0.47,0.47,0.22,0.17,-4.41,-4.41,-4.40
384.13,-4.90,-4.90,-0.52,-0.51,0.51,0.26,0.22,-4.39,-4.39,-4.38
387.97,-4.91,-4.91,-0.54,-0.55,0.55,0.29,0.28,-4.36,-4.36,-4.37
391.85,-4.92,-4.92,-0.57,-0.58,0.58,0.32,0.33,-4.34,-4.34,-4.35
395.77,-4.93,-4.93,-0.61,-0.61,0.61,0.36,0.38,-4.32,-4.32,-4.32
399.73,-4.94,-4.94,-0.64,-0.63,0.63,0.39,0.43,-4.31,-4.30,-4.30
403.72,-4.94,-4.94,-0.66,-0.66,0.66,0.42,0.49,-4.28,-4.28,-4.28
407.76,-4.93,-4.93,-0.67,-0.67,0.68,0.45,0.54,-4.25,-4.26,-4.26
411.84,-4.93,-4.93,-0.70,-0.69,0.69,0.48,0.59,-4.24,-4.24,-4.23
415.96,-4.92,-4.92,-0.70,-0.70,0.70,0.51,0.64,-4.22,-4.22,-4.21
420.12,-4.91,-4.91,-0.71,-0.72,0.71,0.53,0.68,-4.20,-4.20,-4.20
424.32,-4.89,-4.89,-0.72,-0.72,0.72,0.56,0.73,-4.17,-4.17,-4.17
428.56,-4.87,-4.87,-0.72,-0.72,0.72,0.58,0.77,-4.15,-4.15,-4.15
432.85,-4.84,-4.84,-0.71,-0.72,0.71,0.61,0.82,-4.13,-4.13,-4.13
437.18,-4.81,-4.81,-0.71,-0.71,0.71,0.63,0.86,-4.10,-4.10,-4.10
441.55,-4.78,-4.78,-0.71,-0.70,0.70,0.65,0.90,-4.08,-4.07,-4.07
445.96,-4.74,-4.74,-0.69,-0.69,0.70,0.67,0.93,-4.04,-4.05,-4.05
450.42,-4.71,-4.71,-0.68,-0.68,0.69,0.69,0.97,-4.02,-4.02,-4.03
454.93,-4.68,-4.68,-0.69,-0.68,0.68,0.71,1.00,-4.00,-4.00,-3.99
459.48,-4.65,-4.65,-0.67,-0.68,0.68,0.72,1.03,-3.97,-3.97,-3.97
464.07,-4.62,-4.62,-0.67,-0.67,0.67,0.74,1.05,-3.95,-3.94,-3.95
468.71,-4.58,-4.58,-0.67,-0.67,0.67,0.75,1.07,-3.91,-3.91,-3.91
