frequency,raw,smoothed,error,error_smoothed,equalization,parametric_eq,fixed_band_eq,equalized_raw,equalized_smoothed,target
20.00,14.67,14.66,8.30,8.30,-8.31,-8.23,-3.31,6.35,6.35,6.36
20.20,14.66,14.66,8.29,8.30,-8.30,-8.21,-3.40,6.35,6.36,6.36
20.40,14.66,14.66,8.30,8.30,-8.29,-8.19,-3.49,6.37,6.37,6.36
20.61,14.65,14.64,8.29,8.28,-8.27,-8.17,-3.59,6.37,6.37,6.36
20.81,14.63,14.63,8.27,8.27,-8.25,-8.15,-3.69,6.37,6.37,6.36
21.02,14.60,14.60,8.24,8.24,-8.23,-8.13,-3.80,6.36,6.36,6.36
21.23,14.57,14.57,8.21,8.21,-8.21,-8.11,-3.90,6.36,6.36,6.36
21.44,14.54,14.54,8.18,8.18,-8.18,-8.09,-4.01,6.35,6.36,6.36
21.66,14.51,14.51,8.15,8.15,-8.15,-8.07,-4.12,6.36,6.36,6.36
21.87,14.48,14.47,8.12,8.12,-8.12,-8.04,-4.24,6.36,6.36,6.36
22.09,14.44,14.44,8.08,8.08,-8.08,-8.02,-4.36,6.36,6.36,6.36
22.31,14.40,14.40,8.04,8.04,-8.04,-8.00,-4.48,6.35,6.35,6.35
22.54,14.36,14.36,8.00,8.01,-8.01,-7.97,-4.60,6.35,6.35,6.35
22.76,14.33,14.32,7.97,7.97,-7.97,-7.95,-4.73,6.36,6.35,6.35
22.99,14.29,14.29,7.93,7.93,-7.93,-7.93,-4.86,6.35,6.35,6.35
23.22,14.25,14.25,7.90,7.90,-7.90,-7.90,-5.00,6.35,6.35,6.35
23.45,14.21,14.21,7.86,7.86,-7.86,-7.88,-5.13,6.35,6.35,6.35
23.69,14.18,14.17,7.83,7.82,-7.83,-7.85,-5.27,6.35,6.35,6.35
23.92,14.14,14.14,7.79,7.79,-7.79,-7.83,-5.42,6.34,6.35,6.35
24.16,14.11,14.11,7.76,7.76,-7.76,-7.80,-5.56,6.35,6.35,6.35
24.40,14.08,14.08,7.73,7.73,-7.73,-7.77,-5.71,6.35,6.35,6.35
24.65,14.05,14.05,7.70,7.70,-7.70,-7.74,-5.86,6.35,6.35,6.34
24.89,14.02,14.02,7.67,7.67,-7.67,-7.72,-6.02,6.34,6.34,6.34
25.14,13.99,13.99,7.65,7.64,-7.64,-7.69,-6.17,6.34,6.34,6.34
25.39,13.96,13.96,7.62,7.62,-7.62,-7.66,-6.33,6.34,6.34,6.34
25.65,13.93,13.93,7.59,7.59,-7.59,-7.63,-6.49,6.34,6.34,6.34
25.91,13.91,13.90,7.57,7.57,-7.56,-7.60,-6.65,6.35,6.34,6.34
26.16,13.88,13.87,7.54,7.54,-7.54,-7.57,-6.81,6.34,6.34,6.34
26.43,13.85,13.85,7.51,7.51,-7.52,-7.54,-6.97,6.33,6.33,6.33
26.69,13.82,13.82,7.48,7.49,-7.50,-7.51,-7.12,6.32,6.32,6.33
26.96,13.81,13.80,7.48,7.47,-7.48,-7.48,-7.28,6.32,6.32,6.33
27.23,13.79,13.79,7.46,7.46,-7.47,-7.44,-7.43,6.31,6.32,6.33
27.50,13.78,13.78,7.45,7.45,-7.46,-7.41,-7.59,6.31,6.32,6.33
27.77,13.78,13.77,7.45,7.45,-7.45,-7.38,-7.73,6.33,6.32,6.32
28.05,13.77,13.77,7.44,7.44,-7.44,-7.34,-7.87,6.33,6.33,6.32
28.33,13.75,13.75,7.43,7.43,-7.42,-7.31,-8.00,6.33,6.33,6.32
28.62,13.73,13.72,7.41,7.40,-7.39,-7.27,-8.13,6.34,6.34,6.32
28.90,13.68,13.68,7.36,7.36,-7.35,-7.24,-8.25,6.33,6.33,6.32
29.19,13.63,13.62,7.31,7.31,-7.30,-7.20,-8.36,6.33,6.33,6.31
29.48,13.56,13.55,7.24,7.24,-7.24,-7.17,-8.45,6.32,6.32,6.31
29.78,13.48,13.48,7.17,7.17,-7.17,-7.13,-8.54,6.30,6.31,6.31
30.08,13.40,13.40,7.09,7.09,-7.11,-7.09,-8.60,6.29,6.29,6.31
30.38,13.33,13.33,7.02,7.03,-7.04,-7.05,-8.66,6.29,6.29,6.30
30.68,13.27,13.27,6.97,6.96,-6.98,-7.01,-8.70,6.29,6.29,6.30
30.99,13.21,13.21,6.91,6.91,-6.92,-6.97,-8.73,6.29,6.29,6.30
31.30,13.16,13.16,6.86,6.86,-6.87,-6.93,-8.74,6.29,6.29,6.29
31.61,13.11,13.11,6.82,6.82,-6.82,-6.89,-8.74,6.29,6.29,6.29
31.93,13.07,13.06,6.78,6.78,-6.77,-6.85,-8.72,6.30,6.29,6.29
32.24,13.02,13.02,6.73,6.73,-6.73,-6.81,-8.69,6.29,6.29,6.29
32.57,12.97,12.97,6.69,6.69,-6.68,-6.76,-8.64,6.28,6.28,6.28
32.89,12.92,12.92,6.64,6.64,-6.64,-6.72,-8.58,6.28,6.28,6.28
33.22,12.87,12.87,6.59,6.59,-6.59,-6.68,-8.50,6.27,6.27,6.27
33.55,12.82,12.82,6.55,6.55,-6.55,-6.63,-8.42,6.27,6.27,6.27
33.89,12.77,12.76,6.50,6.50,-6.50,-6.59,-8.32,6.27,6.27,6.27
34.23,12.71,12.71,6.45,6.45,-6.45,-6.54,-8.22,6.26,6.26,6.26
34.57,12.66,12.65,6.40,6.40,-6.40,-6.49,-8.10,6.26,6.26,6.26
34.92,12.60,12.60,6.34,6.34,-6.34,-6.45,-7.98,6.25,6.25,6.25
35.27,12.54,12.54,6.29,6.29,-6.29,-6.40,-7.85,6.25,6.25,6.25
35.62,12.48,12.48,6.23,6.23,-6.24,-6.35,-7.72,6.24,6.24,6.24
35.97,12.42,12.42,6.18,6.18,-6.18,-6.30,-7.58,6.23,6.23,6.24
36.33,12.36,12.36,6.12,6.12,-6.13,-6.25,-7.44,6.23,6.23,6.23
36.70,12.30,12.30,6.07,6.07,-6.07,-6.20,-7.30,6.22,6.22,6.23
37.06,12.24,12.24,6.01,6.02,-6.01,-6.15,-7.16,6.22,6.22,6.22
37.43,12.18,12.17,5.96,5.96,-5.95,-6.09,-7.01,6.22,6.22,6.22
37.81,12.11,12.11,5.90,5.90,-5.89,-6.04,-6.87,6.22,6.22,6.21
38.19,12.04,12.03,5.83,5.83,-5.82,-5.99,-6.73,6.22,6.22,6.20
38.57,11.96,11.95,5.76,5.76,-5.75,-5.94,-6.59,6.21,6.21,6.20
38.95,11.87,11.87,5.68,5.68,-5.68,-5.88,-6.45,6.19,6.19,6.19
39.34,11.79,11.79,5.60,5.60,-5.61,-5.83,-6.31,6.17,6.17,6.18
39.74,11.71,11.71,5.53,5.53,-5.55,-5.77,-6.17,6.16,6.16,6.18
40.14,11.65,11.65,5.48,5.48,-5.50,-5.71,-6.04,6.15,6.15,6.17
40.54,11.60,11.60,5.44,5.44,-5.45,-5.66,-5.91,6.15,6.15,6.16
40.94,11.56,11.56,5.40,5.40,-5.40,-5.60,-5.78,6.15,6.15,6.15
41.35,11.52,11.52,5.37,5.37,-5.37,-5.54,-5.66,6.15,6.15,6.14
41.76,11.48,11.48,5.34,5.34,-5.33,-5.48,-5.53,6.14,6.14,6.14
42.18,11.44,11.43,5.31,5.31,-5.30,-5.42,-5.42,6.14,6.13,6.13
42.60,11.39,11.39,5.27,5.27,-5.27,-5.36,-5.30,6.12,6.12,6.12
43.03,11.34,11.34,5.23,5.23,-5.23,-5.30,-5.19,6.11,6.11,6.11
43.46,11.29,11.29,5.19,5.19,-5.19,-5.24,-5.09,6.09,6.09,6.10
43.90,11.24,11.24,5.15,5.15,-5.15,-5.18,-4.98,6.08,6.08,6.09
44.33,11.19,11.19,5.11,5.11,-5.11,-5.12,-4.88,6.07,6.07,6.08
44.78,11.14,11.14,5.07,5.07,-5.07,-5.06,-4.79,6.06,6.06,6.06
45.23,11.09,11.08,5.03,5.03,-5.03,-5.00,-4.70,6.06,6.05,6.05
45.68,11.03,11.03,4.99,4.99,-4.99,-4.93,-4.61,6.04,6.04,6.04
46.13,10.98,10.97,4.95,4.95,-4.95,-4.87,-4.52,6.03,6.03,6.03
46.60,10.92,10.92,4.90,4.90,-4.90,-4.81,-4.44,6.01,6.01,6.02
47.06,10.86,10.86,4.85,4.86,-4.85,-4.74,-4.36,6.00,6.00,6.00
47.53,10.80,10.80,4.81,4.81,-4.80,-4.68,-4.29,5.99,5.99,5.99
48.01,10.73,10.73,4.75,4.75,-4.75,-4.62,-4.21,5.98,5.98,5.97
48.49,10.66,10.65,4.70,4.70,-4.69,-4.55,-4.15,5.97,5.96,5.96
48.97,10.58,10.58,4.63,4.63,-4.63,-4.49,-4.08,5.94,5.94,5.94
49.46,10.50,10.50,4.57,4.57,-4.57,-4.42,-4.02,5.92,5.93,5.93
49.96,10.42,10.42,4.51,4.51,-4.51,-4.36,-3.96,5.91,5.91,5.91
50.46,10.34,10.34,4.44,4.44,-4.45,-4.30,-3.90,5.89,5.89,5.89
50.96,10.26,10.26,4.38,4.38,-4.38,-4.23,-3.84,5.88,5.88,5.88
51.47,10.18,10.18,4.32,4.32,-4.32,-4.17,-3.79,5.86,5.86,5.86
51.99,10.10,10.10,4.26,4.26,-4.26,-4.10,-3.74,5.84,5.84,5.84
52.51,10.02,10.01,4.20,4.19,-4.19,-4.04,-3.69,5.82,5.82,5.82
53.03,9.93,9.93,4.13,4.13,-4.13,-3.98,-3.65,5.80,5.80,5.80
53.56,9.85,9.85,4.07,4.07,-4.07,-3.91,-3.60,5.78,5.78,5.78
54.10,9.77,9.76,4.01,4.00,-4.01,-3.85,-3.56,5.76,5.76,5.76
54.64,9.68,9.68,3.94,3.94,-3.94,-3.79,-3.52,5.74,5.74,5.74
55.18,9.60,9.59,3.88,3.88,-3.88,-3.72,-3.48,5.72,5.72,5.71
55.74,9.51,9.51,3.82,3.82,-3.81,-3.66,-3.44,5.69,5.69,5.69
56.29,9.42,9.42,3.75,3.75,-3.75,-3.60,-3.40,5.67,5.67,5.67
56.86,9.33,9.33,3.69,3.68,-3.69,-3.54,-3.37,5.64,5.64,5.64
57.42,9.24,9.24,3.62,3.62,-3.62,-3.48,-3.33,5.61,5.61,5.62
58.00,9.15,9.15,3.56,3.56,-3.56,-3.42,-3.30,5.59,5.59,5.59
58.58,9.06,9.06,3.49,3.49,-3.49,-3.36,-3.27,5.56,5.56,5.56
59.16,8.97,8.97,3.43,3.43,-3.43,-3.31,-3.23,5.54,5.54,5.54
59.76,8.88,8.87,3.37,3.37,-3.37,-3.25,-3.20,5.51,5.51,5.51
60.35,8.78,8.78,3.30,3.30,-3.30,-3.20,-3.17,5.48,5.48,5.48
60.96,8.69,8.68,3.24,3.24,-3.24,-3.14,-3.13,5.45,5.45,5.45
61.57,8.59,8.59,3.17,3.17,-3.17,-3.09,-3.10,5.42,5.41,5.41
62.18,8.49,8.49,3.10,3.10,-3.11,-3.04,-3.07,5.38,5.38,5.38
62.80,8.39,8.39,3.04,3.04,-3.04,-2.99,-3.04,5.34,5.35,5.35
63.43,8.29,8.29,2.97,2.98,-2.98,-2.94,-3.00,5.31,5.31,5.31
64.07,8.20,8.19,2.92,2.91,-2.91,-2.89,-2.97,5.28,5.28,5.28
64.71,8.10,8.10,2.85,2.85,-2.85,-2.84,-2.94,5.25,5.25,5.24
65.35,8.00,8.00,2.79,2.79,-2.79,-2.80,-2.91,5.21,5.21,5.21
66.01,7.90,7.90,2.73,2.73,-2.73,-2.75,-2.87,5.17,5.17,5.17
66.67,7.80,7.80,2.67,2.67,-2.67,-2.71,-2.84,5.13,5.13,5.13
67.33,7.70,7.70,2.61,2.61,-2.61,-2.67,-2.81,5.08,5.09,5.09
68.01,7.61,7.61,2.56,2.56,-2.56,-2.63,-2.77,5.05,5.04,5.05
68.69,7.52,7.51,2.51,2.51,-2.51,-2.59,-2.74,5.00,5.00,5.01
69.37,7.43,7.43,2.46,2.47,-2.47,-2.55,-2.71,4.96,4.96,4.96
70.07,7.35,7.35,2.43,2.43,-2.43,-2.52,-2.68,4.91,4.92,4.92
70.77,7.28,7.27,2.40,2.40,-2.40,-2.49,-2.64,4.88,4.87,4.87
71.48,7.20,7.20,2.37,2.37,-2.37,-2.45,-2.61,4.82,4.83,4.83
72.19,7.13,7.13,2.35,2.35,-2.35,-2.42,-2.58,4.78,4.78,4.78
72.91,7.06,7.06,2.32,2.32,-2.32,-2.40,-2.55,4.73,4.73,4.73
73.64,6.99,6.99,2.30,2.30,-2.30,-2.37,-2.52,4.69,4.69,4.68
74.38,6.92,6.91,2.28,2.28,-2.28,-2.34,-2.50,4.64,4.64,4.63
75.12,6.84,6.84,2.26,2.26,-2.25,-2.32,-2.47,4.58,4.59,4.58
75.87,6.76,6.76,2.23,2.23,-2.23,-2.30,-2.44,4.53,4.53,4.53
76.63,6.69,6.68,2.21,2.21,-2.20,-2.27,-2.42,4.49,4.48,4.48
77.40,6.60,6.60,2.18,2.18,-2.17,-2.26,-2.39,4.42,4.43,4.42
78.17,6.52,6.51,2.15,2.15,-2.15,-2.24,-2.37,4.37,4.37,4.37
78.95,6.43,6.43,2.12,2.12,-2.12,-2.22,-2.35,4.31,4.31,4.31
79.74,6.35,6.35,2.09,2.09,-2.10,-2.20,-2.33,4.25,4.25,4.25
80.54,6.27,6.27,2.07,2.07,-2.08,-2.19,-2.31,4.19,4.19,4.19
81.35,6.20,6.19,2.06,2.06,-2.06,-2.18,-2.29,4.13,4.13,4.14
82.16,6.13,6.13,2.05,2.05,-2.06,-2.17,-2.28,4.07,4.07,4.07
82.98,6.07,6.07,2.05,2.05,-2.06,-2.15,-2.26,4.00,4.00,4.01
83.81,6.02,6.02,2.06,2.07,-2.08,-2.15,-2.25,3.94,3.94,3.95
84.65,5.98,5.98,2.09,2.09,-2.09,-2.14,-2.24,3.88,3.88,3.89
85.50,5.95,5.94,2.12,2.12,-2.12,-2.13,-2.23,3.83,3.82,3.83
86.35,5.91,5.91,2.15,2.15,-2.15,-2.12,-2.22,3.76,3.76,3.76
87.22,5.88,5.87,2.18,2.18,-2.18,-2.12,-2.21,3.70,3.70,3.70
88.09,5.84,5.84,2.21,2.21,-2.20,-2.11,-2.20,3.63,3.63,3.63
88.97,5.80,5.80,2.23,2.24,-2.23,-2.11,-2.20,3.57,3.57,3.56
89.86,5.76,5.75,2.26,2.26,-2.25,-2.11,-2.20,3.51,3.50,3.50
90.76,5.70,5.70,2.27,2.27,-2.26,-2.11,-2.20,3.43,3.44,3.43
91.66,5.64,5.64,2.28,2.28,-2.27,-2.11,-2.20,3.37,3.37,3.36
92.58,5.57,5.56,2.28,2.27,-2.27,-2.11,-2.20,3.29,3.29,3.29
93.51,5.49,5.49,2.27,2.27,-2.27,-2.11,-2.20,3.22,3.22,3.22
94.44,5.41,5.41,2.26,2.26,-2.26,-2.11,-2.21,3.15,3.15,3.15
95.39,5.33,5.32,2.25,2.24,-2.25,-2.11,-2.21,3.08,3.08,3.08
96.34,5.24,5.24,2.23,2.23,-2.23,-2.12,-2.22,3.01,3.01,3.01
97.30,5.15,5.15,2.21,2.21,-2.21,-2.12,-2.23,2.94,2.94,2.94
98.28,5.06,5.06,2.19,2.19,-2.19,-2.13,-2.24,2.86,2.86,2.86
99.26,4.97,4.97,2.17,2.17,-2.17,-2.13,-2.25,2.79,2.79,2.79
100.25,4.88,4.88,2.16,2.16,-2.16,-2.14,-2.26,2.72,2.72,2.72
101.25,4.79,4.79,2.14,2.14,-2.14,-2.14,-2.27,2.65,2.64,2.65
102.27,4.70,4.70,2.12,2.13,-2.13,-2.15,-2.29,2.57,2.57,2.57
103.29,4.62,4.62,2.12,2.11,-2.12,-2.16,-2.30,2.50,2.50,2.50
104.32,4.54,4.54,2.11,2.11,-2.11,-2.17,-2.32,2.43,2.43,2.43
105.37,4.46,4.46,2.10,2.10,-2.10,-2.18,-2.34,2.35,2.36,2.36
106.42,4.39,4.38,2.10,2.10,-2.10,-2.19,-2.35,2.29,2.28,2.28
107.48,4.31,4.31,2.10,2.10,-2.10,-2.20,-2.37,2.21,2.21,2.21
108.56,4.24,4.24,2.10,2.10,-2.10,-2.21,-2.39,2.13,2.14,2.14
109.64,4.18,4.17,2.11,2.11,-2.11,-2.22,-2.41,2.07,2.06,2.06
110.74,4.11,4.11,2.12,2.12,-2.12,-2.23,-2.43,1.99,1.99,1.99
111.85,4.05,4.05,2.13,2.13,-2.13,-2.25,-2.44,1.92,1.92,1.92
112.97,4.00,3.99,2.15,2.14,-2.15,-2.26,-2.46,1.85,1.84,1.85
114.10,3.94,3.94,2.16,2.16,-2.16,-2.27,-2.48,1.77,1.78,1.78
115.24,3.89,3.89,2.18,2.19,-2.19,-2.29,-2.50,1.70,1.70,1.70
116.39,3.85,3.84,2.21,2.21,-2.21,-2.30,-2.52,1.64,1.63,1.63
117.55,3.80,3.80,2.23,2.24,-2.24,-2.32,-2.53,1.56,1.56,1.56
118.73,3.76,3.76,2.26,2.26,-2.26,-2.34,-2.55,1.49,1.49,1.49
119.92,3.72,3.72,2.29,2.29,-2.29,-2.36,-2.57,1.43,1.42,1.42
121.12,3.68,3.68,2.32,2.32,-2.32,-2.38,-2.58,1.35,1.35,1.35
122.33,3.64,3.64,2.35,2.35,-2.35,-2.40,-2.60,1.28,1.29,1.29
123.55,3.61,3.61,2.39,2.39,-2.39,-2.42,-2.61,1.22,1.22,1.22
124.79,3.58,3.57,2.43,2.42,-2.42,-2.44,-2.62,1.16,1.15,1.15
126.03,3.54,3.54,2.45,2.45,-2.46,-2.46,-2.64,1.08,1.08,1.09
127.29,3.51,3.51,2.49,2.49,-2.49,-2.48,-2.65,1.02,1.02,1.02
128.57,3.49,3.48,2.53,2.53,-2.53,-2.51,-2.66,0.96,0.96,0.96
129.85,3.46,3.46,2.56,2.56,-2.56,-2.53,-2.67,0.89,0.89,0.89
131.15,3.43,3.43,2.60,2.60,-2.60,-2.56,-2.68,0.83,0.83,0.83
132.46,3.40,3.40,2.63,2.63,-2.63,-2.58,-2.68,0.77,0.77,0.77
133.79,3.37,3.37,2.66,2.66,-2.66,-2.61,-2.69,0.70,0.71,0.71
135.12,3.35,3.34,2.70,2.70,-2.70,-2.64,-2.70,0.65,0.65,0.65
136.48,3.32,3.32,2.73,2.73,-2.73,-2.67,-2.71,0.59,0.59,0.59
137.84,3.29,3.29,2.76,2.76,-2.76,-2.70,-2.71,0.53,0.53,0.53
139.22,3.26,3.26,2.79,2.79,-2.79,-2.73,-2.72,0.47,0.47,0.47
140.61,3.23,3.23,2.81,2.82,-2.82,-2.76,-2.73,0.41,0.41,0.41
142.02,3.21,3.21,2.85,2.85,-2.85,-2.79,-2.74,0.36,0.36,0.36
143.44,3.19,3.19,2.88,2.88,-2.88,-2.82,-2.75,0.30,0.30,0.30
144.87,3.17,3.17,2.92,2.92,-2.92,-2.86,-2.76,0.25,0.25,0.25
146.32,3.15,3.15,2.95,2.95,-2.95,-2.89,-2.77,0.20,0.20,0.20
147.78,3.13,3.13,2.98,2.99,-2.99,-2.93,-2.78,0.14,0.14,0.14
149.26,3.12,3.12,3.02,3.02,-3.02,-2.97,-2.79,0.09,0.09,0.09
150.75,3.11,3.10,3.06,3.06,-3.06,-3.00,-2.80,0.05,0.04,0.04
152.26,3.10,3.10,3.10,3.10,-3.10,-3.04,-2.82,-0.00,-0.00,-0.00
153.78,3.09,3.09,3.14,3.14,-3.14,-3.08,-2.83,-0.06,-0.05,-0.05
155.32,3.09,3.09,3.18,3.18,-3.19,-3.12,-2.85,-0.10,-0.10,-0.10
156.88,3.09,3.09,3.23,3.23,-3.23,-3.16,-2.87,-0.14,-0.14,-0.14
158.44,3.09,3.09,3.27,3.28,-3.27,-3.20,-2.89,-0.19,-0.19,-0.19
160.03,3.09,3.09,3.32,3.32,-3.32,-3.24,-2.92,-0.23,-0.23,-0.23
161.63,3.09,3.09,3.37,3.37,-3.37,-3.28,-2.94,-0.28,-0.28,-0.28
163.24,3.09,3.09,3.41,3.41,-3.41,-3.33,-2.97,-0.33,-0.32,-0.32
164.88,3.10,3.09,3.46,3.46,-3.46,-3.37,-3.00,-0.36,-0.36,-0.37
166.53,3.10,3.10,3.50,3.50,-3.50,-3.41,-3.03,-0.41,-0.40,-0.40
168.19,3.11,3.10,3.55,3.55,-3.55,-3.46,-3.07,-0.44,-0.44,-0.44
169.87,3.11,3.11,3.59,3.59,-3.59,-3.50,-3.10,-0.48,-0.48,-0.48
171.57,3.12,3.12,3.63,3.63,-3.63,-3.55,-3.14,-0.52,-0.52,-0.52
173.29,3.13,3.12,3.68,3.67,-3.67,-3.59,-3.18,-0.55,-0.55,-0.55
175.02,3.13,3.13,3.71,3.72,-3.72,-3.64,-3.23,-0.59,-0.58,-0.59
176.77,3.14,3.14,3.76,3.76,-3.76,-3.68,-3.27,-0.62,-0.62,-0.62
178.54,3.15,3.14,3.80,3.80,-3.80,-3.73,-3.32,-0.65,-0.65,-0.65
180.32,3.15,3.15,3.83,3.83,-3.84,-3.77,-3.37,-0.69,-0.69,-0.68
182.13,3.16,3.16,3.87,3.87,-3.87,-3.82,-3.43,-0.72,-0.72,-0.72
183.95,3.17,3.17,3.91,3.91,-3.91,-3.87,-3.48,-0.74,-0.74,-0.75
185.79,3.18,3.18,3.95,3.95,-3.95,-3.91,-3.54,-0.77,-0.77,-0.77
187.65,3.19,3.18,3.99,3.99,-3.98,-3.96,-3.60,-0.80,-0.80,-0.80
189.52,3.19,3.19,4.02,4.02,-4.02,-4.00,-3.67,-0.83,-0.83,-0.83
191.42,3.20,3.20,4.05,4.05,-4.06,-4.05,-3.73,-0.86,-0.86,-0.86
193.33,3.21,3.21,4.09,4.09,-4.09,-4.09,-3.80,-0.88,-0.88,-0.88
195.27,3.22,3.22,4.12,4.12,-4.12,-4.14,-3.87,-0.91,-0.91,-0.91
197.22,3.23,3.23,4.16,4.16,-4.16,-4.18,-3.94,-0.93,-0.93,-0.93
199.19,3.24,3.24,4.19,4.19,-4.19,-4.22,-4.01,-0.96,-0.96,-0.96
201.18,3.25,3.25,4.23,4.23,-4.23,-4.27,-4.08,-0.98,-0.98,-0.98
203.19,3.27,3.26,4.27,4.26,-4.26,-4.31,-4.16,-1.00,-1.00,-1.00
205.23,3.28,3.28,4.30,4.30,-4.30,-4.35,-4.23,-1.02,-1.02,-1.02
207.28,3.30,3.29,4.34,4.34,-4.34,-4.39,-4.31,-1.04,-1.04,-1.04
209.35,3.31,3.31,4.37,4.37,-4.37,-4.43,-4.39,-1.07,-1.07,-1.06
211.44,3.33,3.33,4.41,4.41,-4.41,-4.47,-4.46,-1.09,-1.08,-1.08
213.56,3.35,3.35,4.45,4.45,-4.45,-4.50,-4.54,-1.10,-1.10,-1.10
215.69,3.37,3.37,4.49,4.49,-4.49,-4.54,-4.61,-1.12,-1.12,-1.12
217.85,3.39,3.39,4.52,4.53,-4.52,-4.57,-4.68,-1.14,-1.14,-1.14
220.03,3.41,3.41,4.56,4.56,-4.56,-4.61,-4.76,-1.15,-1.15,-1.15
222.23,3.43,3.42,4.60,4.60,-4.59,-4.64,-4.82,-1.17,-1.17,-1.17
224.45,3.44,3.44,4.62,4.63,-4.63,-4.67,-4.89,-1.19,-1.18,-1.19
226.70,3.46,3.45,4.66,4.66,-4.65,-4.70,-4.95,-1.20,-1.20,-1.20
228.96,3.47,3.46,4.68,4.68,-4.68,-4.73,-5.01,-1.21,-1.22,-1.22
231.25,3.47,3.47,4.70,4.70,-4.70,-4.75,-5.06,-1.24,-1.23,-1.23
233.57,3.48,3.47,4.72,4.72,-4.73,-4.78,-5.12,-1.25,-1.25,-1.25
235.90,3.48,3.48,4.75,4.74,-4.74,-4.80,-5.16,-1.27,-1.27,-1.27
238.26,3.48,3.48,4.76,4.76,-4.76,-4.82,-5.20,-1.28,-1.28,-1.28
240.64,3.48,3.48,4.77,4.77,-4.77,-4.84,-5.23,-1.29,-1.29,-1.30
243.05,3.48,3.47,4.78,4.78,-4.78,-4.86,-5.26,-1.30,-1.31,-1.31
245.48,3.47,3.47,4.79,4.79,-4.79,-4.87,-5.28,-1.32,-1.32,-1.32
247.93,3.47,3.46,4.80,4.79,-4.79,-4.89,-5.29,-1.33,-1.33,-1.33
250.41,3.46,3.46,4.80,4.80,-4.80,-4.90,-5.29,-1.34,-1.34,-1.34
252.92,3.45,3.45,4.80,4.80,-4.80,-4.91,-5.30,-1.35,-1.35,-1.35
255.45,3.44,3.44,4.80,4.80,-4.80,-4.92,-5.29,-1.37,-1.37,-1.36
258.00,3.43,3.43,4.80,4.80,-4.80,-4.92,-5.27,-1.38,-1.37,-1.37
260.58,3.43,3.42,4.81,4.80,-4.80,-4.93,-5.25,-1.38,-1.38,-1.38
263.19,3.42,3.41,4.81,4.80,-4.80,-4.93,-5.23,-1.38,-1.39,-1.39
265.82,3.40,3.40,4.80,4.80,-4.80,-4.93,-5.19,-1.40,-1.40,-1.40
268.48,3.39,3.39,4.79,4.80,-4.80,-4.93,-5.16,-1.41,-1.41,-1.41
271.16,3.38,3.38,4.79,4.79,-4.80,-4.93,-5.11,-1.42,-1.42,-1.42
273.87,3.37,3.37,4.79,4.79,-4.79,-4.92,-5.06,-1.43,-1.43,-1.42
276.61,3.36,3.36,4.79,4.79,-4.79,-4.91,-5.01,-1.43,-1.43,-1.43
279.38,3.35,3.35,4.79,4.79,-4.78,-4.91,-4.96,-1.43,-1.43,-1.44
282.17,3.34,3.33,4.78,4.78,-4.77,-4.90,-4.90,-1.44,-1.44,-1.45
284.99,3.32,3.32,4.76,4.76,-4.76,-4.88,-4.84,-1.45,-1.44,-1.44
287.84,3.31,3.31,4.75,4.75,-4.75,-4.87,-4.78,-1.45,-1.45,-1.44
290.72,3.30,3.29,4.74,4.74,-4.74,-4.85,-4.71,-1.44,-1.45,-1.45
293.63,3.28,3.28,4.73,4.73,-4.73,-4.83,-4.65,-1.45,-1.45,-1.45
296.57,3.27,3.26,4.72,4.71,-4.71,-4.82,-4.58,-1.44,-1.45,-1.45
299.53,3.25,3.25,4.69,4.69,-4.70,-4.79,-4.51,-1.45,-1.45,-1.44
302.53,3.23,3.23,4.68,4.68,-4.68,-4.77,-4.45,-1.45,-1.45,-1.45
305.55,3.22,3.21,4.66,4.66,-4.66,-4.75,-4.38,-1.44,-1.45,-1.44
308.61,3.20,3.20,4.65,4.64,-4.64,-4.72,-4.32,-1.45,-1.45,-1.45
311.69,3.18,3.18,4.62,4.62,-4.62,-4.69,-4.25,-1.45,-1.45,-1.44
314.81,3.16,3.16,4.61,4.60,-4.60,-4.67,-4.19,-1.45,-1.45,-1.45
317.96,3.14,3.14,4.58,4.58,-4.58,-4.64,-4.13,-1.45,-1.45,-1.44
321.14,3.12,3.12,4.57,4.56,-4.56,-4.61,-4.07,-1.45,-1.45,-1.45
324.35,3.10,3.10,4.54,4.54,-4.54,-4.57,-4.02,-1.44,-1.44,-1.44
327.59,3.08,3.08,4.51,4.52,-4.52,-4.54,-3.96,-1.44,-1.44,-1.44
330.87,3.06,3.06,4.50,4.49,-4.49,-4.51,-3.91,-1.44,-1.44,-1.44
334.18,3.04,3.03,4.47,4.47,-4.47,-4.47,-3.86,-1.43,-1.44,-1.43
337.52,3.01,3.01,4.45,4.45,-4.44,-4.43,-3.81,-1.44,-1.43,-1.44
340.90,2.99,2.99,4.42,4.42,-4.42,-4.40,-3.77,-1.43,-1.43,-1.43
344.30,2.97,2.96,4.39,4.39,-4.39,-4.36,-3.73,-1.42,-1.43,-1.43
347.75,2.94,2.94,4.36,4.36,-4.36,-4.32,-3.69,-1.42,-1.42,-1.42
351.23,2.92,2.92,4.34,4.33,-4.33,-4.28,-3.65,-1.41,-1.42,-1.42
354.74,2.89,2.89,4.29,4.30,-4.30,-4.24,-3.62,-1.41,-1.41,-1.41
358.28,2.87,2.86,4.27,4.27,-4.27,-4.19,-3.59,-1.40,-1.40,-1.41
361.87,2.84,2.84,4.24,4.24,-4.24,-4.15,-3.56,-1.40,-1.40,-1.40
365.49,2.81,2.81,4.20,4.20,-4.20,-4.11,-3.54,-1.40,-1.40,-1.39
369.14,2.78,2.78,4.17,4.17,-4.17,-4.07,-3.52,-1.39,-1.39,-1.40
372.83,2.75,2.75,4.13,4.13,-4.14,-4.02,-3.50,-1.39,-1.39,-1.38
376.56,2.73,2.72,4.11,4.10,-4.10,-3.98,-3.48,-1.38,-1.38,-1.38
380.33,2.70,2.70,4.07,4.07,-4.07,-3.93,-3.47,-1.37,-1.37,-1.37
384.13,2.67,2.67,4.04,4.04,-4.03,-3.89,-3.46,-1.37,-1.36,-1.38
387.97,2.64,2.64,4.00,4.00,-4.00,-3.84,-3.45,-1.36,-1.36,-1.37
391.85,2.61,2.60,3.96,3.96,-3.96,-3.80,-3.44,-1.35,-1.36,-1.35
395.77,2.57,2.57,3.92,3.92,-3.92,-3.75,-3.43,-1.36,-1.35,-1.35
399.73,2.54,2.54,3.88,3.88,-3.89,-3.70,-3.43,-1.35,-1.35,-1.34
403.72,2.51,2.51,3.84,3.85,-3.85,-3.66,-3.43,-1.34,-1.34,-1.34
407.76,2.48,2.48,3.81,3.81,-3.81,-3.61,-3.43,-1.33,-1.33,-1.34
411.84,2.45,2.44,3.78,3.77,-3.77,-3.57,-3.43,-1.32,-1.33,-1.33
415.96,2.41,2.41,3.73,3.74,-3.73,-3.52,-3.43,-1.33,-1.32,-1.32
420.12,2.38,2.38,3.70,3.70,-3.70,-3.47,-3.44,-1.32,-1.32,-1.32
424.32,2.35,2.34,3.66,3.66,-3.66,-3.42,-3.44,-1.31,-1.32,-1.31
428.56,2.31,2.31,3.61,3.62,-3.62,-3.38,-3.44,-1.31,-1.31,-1.31
432.85,2.28,2.28,3.57,3.58,-3.58,-3.33,-3.45,-1.30,-1.30,-1.30
437.18,2.25,2.24,3.55,3.54,-3.54,-3.28,-3.45,-1.29,-1.30,-1.30
441.55,2.21,2.21,3.50,3.50,-3.50,-3.24,-3.46,-1.29,-1.28,-1.29
445.96,2.18,2.18,3.46,3.46,-3.45,-3.19,-3.46,-1.28,-1.28,-1.28
450.42,2.15,2.14,3.41,3.41,-3.41,-3.15,-3.46,-1.26,-1.27,-1.26
454.93,2.11,2.11,3.36,3.37,-3.37,-3.10,-3.46,-1.26,-1.26,-1.25
459.48,2.08,2.07,3.32,3.32,-3.33,-3.05,-3.46,-1.25,-1.25,-1.25
464.07,2.04,2.04,3.28,3.28,-3.28,-3.01,-3.45,-1.24,-1.24,-1.25
468.71,2.00,2.00,3.23,3.24,-3.24,-2.96,-3.45,-1.24,-1.23,-1.24
473.40,1.97,1.96,3.20,3.19,-3.19,-2.92,-3.44,-1.22,-1.23,-1.23
478.13,1.93,1.93,3.15,3.15,-3.14,-2.87,-3.43,-1.22,-1.22,-1.22
482.91,1.89,1.89,3.10,3.10,-3.10,-2.83,-3.41,-1.21,-1.21,-1.21
487.74,1.85,1.85,3.05,3.05,-3.05,-2.78,-3.39,-1.20,-1.20,-1.20
492.62,1.81,1.81,3.00,3.00,-3.00,-2.74,-3.37,-1.19,-1.19,-1.19
497.55,1.77,1.77,2.95,2.95,-2.95,-2.69,-3.35,-1.18,-1.18,-1.18
