frequency,raw,error,smoothed,error_smoothed,equalization,parametric_eq,fixed_band_eq,equalized_raw,equalized_smoothed,target
20.00,-20.81,-14.17,-20.81,-14.17,6.00,5.85,3.06,-14.81,-14.81,-6.63
20.20,-20.66,-14.11,-20.66,-14.11,6.00,5.86,3.15,-14.66,-14.66,-6.54
20.40,-20.51,-14.04,-20.51,-14.05,6.00,5.86,3.23,-14.51,-14.51,-6.46
20.61,-20.36,-13.97,-20.36,-13.97,6.00,5.87,3.33,-14.36,-14.36,-6.40
20.81,-20.21,-13.90,-20.21,-13.90,6.00,5.87,3.42,-14.21,-14.21,-6.30
21.02,-20.06,-13.83,-20.05,-13.82,6.00,5.88,3.52,-14.06,-14.05,-6.22
21.23,-19.90,-13.73,-19.90,-13.74,6.00,5.89,3.62,-13.90,-13.90,-6.16
21.44,-19.75,-13.64,-19.75,-13.64,6.00,5.89,3.72,-13.75,-13.75,-6.10
21.66,-19.60,-13.54,-19.60,-13.54,6.00,5.90,3.83,-13.60,-13.60,-6.06
21.87,-19.45,-13.44,-19.44,-13.44,6.00,5.90,3.94,-13.45,-13.44,-6.00
22.09,-19.29,-13.33,-19.29,-13.34,6.00,5.91,4.05,-13.29,-13.29,-5.96
22.31,-19.14,-13.23,-19.13,-13.23,6.00,5.92,4.16,-13.14,-13.13,-5.91
22.54,-18.98,-13.11,-18.98,-13.11,6.00,5.92,4.28,-12.98,-12.98,-5.87
22.76,-18.82,-12.99,-18.82,-12.99,6.00,5.93,4.40,-12.82,-12.82,-5.83
22.99,-18.67,-12.87,-18.66,-12.87,6.00,5.94,4.52,-12.67,-12.66,-5.80
23.22,-18.51,-12.75,-18.51,-12.75,6.00,5.95,4.65,-12.51,-12.51,-5.76
23.45,-18.35,-12.63,-18.35,-12.63,6.00,5.96,4.78,-12.35,-12.35,-5.72
23.69,-18.20,-12.52,-18.20,-12.52,6.00,5.96,4.91,-12.20,-12.20,-5.68
23.92,-18.04,-12.40,-18.04,-12.40,6.00,5.97,5.05,-12.04,-12.04,-5.64
24.16,-17.88,-12.29,-17.88,-12.28,6.00,5.98,5.19,-11.88,-11.88,-5.59
24.40,-17.72,-12.16,-17.72,-12.16,6.00,5.99,5.33,-11.72,-11.72,-5.56
24.65,-17.57,-12.04,-17.56,-12.04,6.00,6.00,5.47,-11.57,-11.56,-5.53
24.89,-17.41,-11.91,-17.41,-11.91,6.00,6.00,5.61,-11.41,-11.41,-5.50
25.14,-17.25,-11.79,-17.25,-11.78,6.00,6.01,5.76,-11.25,-11.25,-5.46
25.39,-17.09,-11.65,-17.09,-11.66,6.00,6.02,5.91,-11.09,-11.09,-5.43
25.65,-16.93,-11.54,-16.93,-11.53,6.00,6.03,6.06,-10.93,-10.93,-5.39
25.91,-16.77,-11.40,-16.77,-11.40,6.00,6.04,6.21,-10.77,-10.77,-5.37
26.16,-16.61,-11.26,-16.61,-11.27,6.00,6.05,6.36,-10.61,-10.61,-5.34
26.43,-16.45,-11.15,-16.45,-11.14,6.00,6.06,6.50,-10.45,-10.45,-5.30
26.69,-16.29,-11.01,-16.29,-11.01,6.00,6.06,6.65,-10.29,-10.29,-5.27
26.96,-16.13,-10.88,-16.13,-10.89,6.00,6.07,6.80,-10.13,-10.13,-5.25
27.23,-15.97,-10.76,-15.97,-10.76,6.00,6.08,6.94,-9.97,-9.97,-5.21
27.50,-15.81,-10.63,-15.81,-10.63,6.00,6.09,7.08,-9.81,-9.81,-5.18
27.77,-15.65,-10.49,-15.65,-10.50,6.00,6.10,7.21,-9.65,-9.65,-5.16
28.05,-15.49,-10.37,-15.49,-10.36,6.00,6.10,7.34,-9.49,-9.49,-5.12
28.33,-15.33,-10.23,-15.33,-10.23,6.00,6.11,7.46,-9.33,-9.33,-5.10
28.62,-15.17,-10.10,-15.17,-10.10,6.00,6.12,7.57,-9.17,-9.17,-5.07
28.90,-15.01,-9.98,-15.01,-9.97,6.00,6.12,7.67,-9.01,-9.01,-5.03
29.19,-14.84,-9.83,-14.84,-9.84,6.00,6.13,7.77,-8.84,-8.84,-5.01
29.48,-14.68,-9.71,-14.68,-9.71,6.00,6.13,7.84,-8.68,-8.68,-4.96
29.78,-14.52,-9.58,-14.52,-9.57,6.00,6.14,7.91,-8.52,-8.52,-4.94
30.08,-14.35,-9.44,-14.35,-9.44,6.00,6.14,7.96,-8.35,-8.35,-4.91
30.38,-14.17,-9.29,-14.17,-9.28,6.00,6.14,8.00,-8.17,-8.17,-4.89
30.68,-13.99,-9.13,-13.99,-9.13,6.00,6.15,8.02,-7.99,-7.99,-4.86
30.99,-13.81,-8.97,-13.81,-8.98,6.00,6.15,8.03,-7.81,-7.81,-4.84
31.30,-13.64,-8.83,-13.64,-8.83,6.00,6.15,8.01,-7.64,-7.64,-4.81
31.61,-13.46,-8.68,-13.46,-8.68,6.00,6.15,7.99,-7.46,-7.46,-4.78
31.93,-13.29,-8.53,-13.29,-8.53,6.00,6.14,7.94,-7.29,-7.29,-4.76
32.24,-13.12,-8.37,-13.12,-8.38,6.00,6.14,7.89,-7.12,-7.12,-4.74
32.57,-12.96,-8.25,-12.96,-8.24,6.00,6.13,7.81,-6.96,-6.96,-4.71
32.89,-12.79,-8.10,-12.79,-8.10,6.00,6.13,7.72,-6.79,-6.79,-4.69
33.22,-12.64,-7.97,-12.63,-7.97,6.00,6.12,7.61,-6.64,-6.63,-4.67
33.55,-12.48,-7.83,-12.48,-7.83,6.00,6.11,7.50,-6.48,-6.48,-4.65
33.89,-12.33,-7.69,-12.33,-7.70,6.00,6.10,7.37,-6.33,-6.33,-4.64
34.23,-12.19,-7.58,-12.19,-7.57,6.00,6.08,7.23,-6.19,-6.19,-4.61
34.57,-12.05,-7.44,-12.05,-7.44,6.00,6.07,7.08,-6.05,-6.05,-4.60
34.92,-11.91,-7.31,-11.91,-7.32,6.00,6.05,6.92,-5.91,-5.91,-4.60
35.27,-11.78,-7.20,-11.78,-7.20,6.00,6.02,6.76,-5.78,-5.78,-4.58
35.62,-11.66,-7.08,-11.66,-7.08,6.00,6.00,6.59,-5.66,-5.66,-4.58
35.97,-11.53,-6.96,-11.53,-6.96,6.00,5.97,6.41,-5.53,-5.53,-4.57
36.33,-11.41,-6.85,-11.41,-6.84,6.00,5.94,6.23,-5.41,-5.41,-4.55
36.70,-11.28,-6.72,-11.28,-6.72,6.01,5.91,6.05,-5.27,-5.27,-4.56
37.06,-11.16,-6.60,-11.16,-6.60,6.02,5.87,5.87,-5.14,-5.14,-4.56
37.43,-11.04,-6.49,-11.04,-6.48,6.02,5.83,5.68,-5.01,-5.02,-4.55
37.81,-10.92,-6.37,-10.92,-6.37,6.02,5.79,5.49,-4.90,-4.90,-4.55
38.19,-10.81,-6.25,-10.81,-6.25,6.01,5.74,5.30,-4.80,-4.80,-4.56
38.57,-10.69,-6.14,-10.69,-6.14,5.98,5.69,5.11,-4.71,-4.71,-4.55
38.95,-10.58,-6.03,-10.58,-6.02,5.93,5.64,4.93,-4.65,-4.65,-4.55
39.34,-10.47,-5.90,-10.47,-5.91,5.86,5.58,4.74,-4.60,-4.60,-4.57
39.74,-10.36,-5.79,-10.36,-5.79,5.78,5.51,4.55,-4.58,-4.57,-4.57
40.14,-10.24,-5.67,-10.24,-5.67,5.68,5.44,4.37,-4.56,-4.56,-4.57
40.54,-10.12,-5.54,-10.12,-5.55,5.57,5.37,4.19,-4.55,-4.55,-4.57
40.94,-10.01,-5.43,-10.01,-5.43,5.45,5.29,4.00,-4.56,-4.56,-4.58
41.35,-9.89,-5.31,-9.89,-5.31,5.32,5.21,3.83,-4.57,-4.57,-4.58
41.76,-9.78,-5.19,-9.78,-5.19,5.19,5.12,3.65,-4.59,-4.58,-4.59
42.18,-9.66,-5.07,-9.66,-5.07,5.07,5.02,3.47,-4.59,-4.59,-4.59
42.60,-9.54,-4.93,-9.54,-4.94,4.94,4.93,3.30,-4.60,-4.60,-4.60
43.03,-9.42,-4.82,-9.42,-4.82,4.81,4.82,3.13,-4.61,-4.61,-4.60
43.46,-9.30,-4.69,-9.30,-4.68,4.68,4.71,2.96,-4.62,-4.62,-4.61
43.90,-9.17,-4.54,-9.17,-4.54,4.54,4.60,2.79,-4.63,-4.63,-4.63
44.33,-9.04,-4.40,-9.04,-4.40,4.40,4.48,2.62,-4.63,-4.64,-4.64
44.78,-8.91,-4.26,-8.91,-4.26,4.27,4.35,2.46,-4.64,-4.64,-4.65
45.23,-8.78,-4.12,-8.78,-4.12,4.13,4.22,2.30,-4.65,-4.65,-4.66
45.68,-8.65,-3.98,-8.65,-3.98,3.99,4.08,2.14,-4.66,-4.66,-4.67
46.13,-8.52,-3.85,-8.52,-3.85,3.85,3.94,1.98,-4.66,-4.67,-4.67
46.60,-8.39,-3.72,-8.39,-3.71,3.71,3.80,1.83,-4.68,-4.67,-4.67
47.06,-8.25,-3.57,-8.25,-3.58,3.57,3.64,1.67,-4.68,-4.68,-4.67
47.53,-8.11,-3.43,-8.11,-3.43,3.43,3.49,1.52,-4.68,-4.68,-4.68
48.01,-7.97,-3.29,-7.97,-3.29,3.28,3.33,1.37,-4.69,-4.69,-4.68
48.49,-7.82,-3.14,-7.82,-3.14,3.13,3.16,1.22,-4.69,-4.69,-4.68
48.97,-7.67,-2.98,-7.67,-2.97,2.97,2.99,1.07,-4.69,-4.69,-4.69
49.46,-7.51,-2.80,-7.51,-2.81,2.81,2.82,0.93,-4.69,-4.70,-4.71
49.96,-7.35,-2.64,-7.35,-2.64,2.65,2.64,0.78,-4.70,-4.70,-4.71
50.46,-7.18,-2.48,-7.18,-2.48,2.48,2.46,0.64,-4.70,-4.70,-4.70
50.96,-7.01,-2.32,-7.01,-2.31,2.31,2.27,0.50,-4.70,-4.70,-4.69
51.47,-6.83,-2.13,-6.83,-2.14,2.13,2.08,0.36,-4.70,-4.70,-4.70
51.99,-6.66,-1.96,-6.65,-1.96,1.95,1.89,0.23,-4.71,-4.70,-4.70
52.51,-6.46,-1.78,-6.46,-1.77,1.77,1.70,0.09,-4.69,-4.69,-4.69
53.03,-6.26,-1.57,-6.27,-1.58,1.58,1.50,-0.04,-4.68,-4.69,-4.68
53.56,-6.07,-1.38,-6.07,-1.38,1.39,1.30,-0.17,-4.68,-4.68,-4.68
54.10,-5.87,-1.19,-5.87,-1.18,1.19,1.10,-0.30,-4.68,-4.68,-4.68
54.64,-5.67,-0.98,-5.67,-0.98,0.98,0.90,-0.43,-4.69,-4.69,-4.69
55.18,-5.47,-0.77,-5.47,-0.77,0.77,0.69,-0.55,-4.69,-4.70,-4.69
55.74,-5.27,-0.57,-5.27,-0.56,0.56,0.49,-0.67,-4.71,-4.70,-4.70
56.29,-5.06,-0.35,-5.06,-0.35,0.35,0.28,-0.79,-4.71,-4.71,-4.71
56.86,-4.85,-0.13,-4.85,-0.13,0.13,0.07,-0.90,-4.72,-4.72,-4.72
57.42,-4.64,0.09,-4.64,0.09,-0.09,-0.13,-1.02,-4.72,-4.72,-4.73
58.00,-4.42,0.31,-4.42,0.31,-0.31,-0.34,-1.13,-4.73,-4.73,-4.73
58.58,-4.21,0.54,-4.21,0.53,-0.53,-0.55,-1.23,-4.74,-4.74,-4.74
59.16,-4.00,0.75,-4.00,0.75,-0.76,-0.75,-1.34,-4.75,-4.76,-4.75
59.76,-3.79,0.97,-3.79,0.98,-0.98,-0.96,-1.44,-4.77,-4.77,-4.76
60.35,-3.58,1.21,-3.58,1.20,-1.21,-1.16,-1.53,-4.79,-4.79,-4.79
60.96,-3.36,1.43,-3.36,1.44,-1.44,-1.36,-1.63,-4.80,-4.81,-4.79
61.57,-3.16,1.67,-3.15,1.67,-1.67,-1.56,-1.72,-4.83,-4.82,-4.82
62.18,-2.95,1.90,-2.95,1.89,-1.89,-1.76,-1.80,-4.84,-4.84,-4.85
62.80,-2.75,2.11,-2.75,2.11,-2.11,-1.95,-1.89,-4.85,-4.86,-4.86
63.43,-2.56,2.32,-2.56,2.32,-2.31,-2.14,-1.97,-4.87,-4.87,-4.88
64.07,-2.37,2.52,-2.37,2.52,-2.52,-2.33,-2.04,-4.89,-4.89,-4.89
64.71,-2.19,2.71,-2.19,2.71,-2.71,-2.52,-2.12,-4.90,-4.90,-4.90
65.35,-2.01,2.90,-2.01,2.89,-2.89,-2.70,-2.19,-4.90,-4.90,-4.91
66.01,-1.84,3.06,-1.84,3.06,-3.06,-2.88,-2.26,-4.90,-4.91,-4.90
66.67,-1.68,3.22,-1.68,3.23,-3.23,-3.05,-2.32,-4.91,-4.90,-4.90
67.33,-1.52,3.38,-1.52,3.39,-3.39,-3.22,-2.39,-4.90,-4.90,-4.90
68.01,-1.36,3.54,-1.36,3.54,-3.54,-3.39,-2.45,-4.90,-4.90,-4.90
68.69,-1.22,3.68,-1.21,3.69,-3.68,-3.55,-2.51,-4.90,-4.90,-4.90
69.37,-1.07,3.83,-1.07,3.82,-3.83,-3.71,-2.57,-4.89,-4.90,-4.89
70.07,-0.94,3.96,-0.94,3.95,-3.96,-3.86,-2.63,-4.90,-4.90,-4.90
70.77,-0.80,4.08,-0.80,4.09,-4.09,-4.01,-2.68,-4.89,-4.89,-4.88
71.48,-0.67,4.21,-0.67,4.22,-4.22,-4.15,-2.74,-4.89,-4.88,-4.88
72.19,-0.54,4.35,-0.54,4.34,-4.33,-4.28,-2.80,-4.87,-4.87,-4.89
72.91,-0.42,4.46,-0.43,4.46,-4.45,-4.42,-2.85,-4.86,-4.87,-4.88
73.64,-0.33,4.56,-0.32,4.56,-4.55,-4.54,-2.91,-4.88,-4.88,-4.88
74.38,-0.23,4.65,-0.23,4.65,-4.65,-4.66,-2.97,-4.88,-4.88,-4.88
75.12,-0.14,4.75,-0.14,4.74,-4.75,-4.78,-3.03,-4.89,-4.89,-4.89
75.87,-0.05,4.83,-0.05,4.83,-4.84,-4.89,-3.08,-4.89,-4.89,-4.88
76.63,0.04,4.92,0.04,4.92,-4.93,-5.00,-3.14,-4.88,-4.89,-4.88
77.40,0.12,5.01,0.12,5.01,-5.01,-5.10,-3.21,-4.89,-4.88,-4.89
78.17,0.20,5.10,0.20,5.09,-5.09,-5.20,-3.27,-4.88,-4.88,-4.90
78.95,0.28,5.16,0.28,5.16,-5.16,-5.29,-3.34,-4.88,-4.88,-4.87
79.74,0.35,5.23,0.36,5.23,-5.23,-5.37,-3.40,-4.88,-4.87,-4.87
80.54,0.43,5.31,0.43,5.30,-5.30,-5.46,-3.47,-4.87,-4.87,-4.87
81.35,0.50,5.37,0.50,5.36,-5.36,-5.54,-3.54,-4.86,-4.86,-4.87
82.16,0.56,5.42,0.56,5.42,-5.42,-5.61,-3.62,-4.86,-4.86,-4.86
82.98,0.63,5.47,0.63,5.48,-5.48,-5.68,-3.70,-4.85,-4.85,-4.84
83.81,0.70,5.53,0.70,5.53,-5.54,-5.75,-3.78,-4.84,-4.84,-4.83
84.65,0.78,5.60,0.78,5.59,-5.59,-5.81,-3.86,-4.81,-4.82,-4.82
85.50,0.85,5.65,0.85,5.65,-5.65,-5.87,-3.95,-4.80,-4.80,-4.80
86.35,0.92,5.70,0.92,5.71,-5.70,-5.93,-4.04,-4.78,-4.78,-4.78
87.22,0.99,5.77,0.99,5.76,-5.75,-5.98,-4.13,-4.76,-4.76,-4.78
88.09,1.05,5.81,1.05,5.81,-5.80,-6.03,-4.22,-4.75,-4.76,-4.76
88.97,1.10,5.85,1.10,5.85,-5.86,-6.08,-4.32,-4.75,-4.75,-4.75
89.86,1.15,5.89,1.16,5.90,-5.91,-6.12,-4.43,-4.76,-4.75,-4.74
90.76,1.21,5.96,1.21,5.96,-5.96,-6.16,-4.53,-4.75,-4.75,-4.75
91.66,1.27,6.02,1.27,6.02,-6.01,-6.20,-4.64,-4.74,-4.75,-4.74
92.58,1.32,6.08,1.32,6.08,-6.07,-6.24,-4.75,-4.75,-4.75,-4.76
93.51,1.37,6.13,1.37,6.14,-6.14,-6.27,-4.87,-4.76,-4.76,-4.76
94.44,1.42,6.20,1.42,6.20,-6.20,-6.31,-4.99,-4.78,-4.78,-4.78
95.39,1.47,6.26,1.47,6.26,-6.27,-6.34,-5.11,-4.80,-4.80,-4.79
96.34,1.51,6.33,1.51,6.34,-6.34,-6.37,-5.23,-4.83,-4.83,-4.82
97.30,1.55,6.41,1.55,6.41,-6.41,-6.40,-5.36,-4.86,-4.86,-4.86
98.28,1.59,6.48,1.59,6.48,-6.48,-6.42,-5.49,-4.89,-4.89,-4.89
99.26,1.63,6.56,1.63,6.56,-6.55,-6.45,-5.62,-4.92,-4.92,-4.93
100.25,1.66,6.63,1.66,6.62,-6.62,-6.47,-5.76,-4.96,-4.96,-4.97
101.25,1.68,6.69,1.68,6.69,-6.69,-6.49,-5.90,-5.01,-5.01,-5.01
102.27,1.70,6.75,1.70,6.75,-6.76,-6.51,-6.04,-5.06,-5.06,-5.05
103.29,1.72,6.82,1.72,6.81,-6.82,-6.53,-6.17,-5.10,-5.10,-5.09
104.32,1.74,6.87,1.74,6.87,-6.88,-6.55,-6.31,-5.13,-5.13,-5.12
105.37,1.76,6.93,1.76,6.93,-6.93,-6.57,-6.46,-5.16,-5.16,-5.17
106.42,1.77,6.98,1.77,6.98,-6.97,-6.58,-6.59,-5.20,-5.20,-5.21
107.48,1.77,7.02,1.76,7.02,-7.00,-6.60,-6.73,-5.23,-5.24,-5.25
108.56,1.74,7.03,1.74,7.03,-7.03,-6.61,-6.87,-5.29,-5.29,-5.29
109.64,1.71,7.04,1.71,7.04,-7.05,-6.63,-7.01,-5.34,-5.33,-5.33
110.74,1.68,7.04,1.69,7.05,-7.06,-6.64,-7.14,-5.38,-5.37,-5.36
111.85,1.66,7.05,1.66,7.06,-7.06,-6.65,-7.26,-5.40,-5.40,-5.39
112.97,1.63,7.07,1.63,7.05,-7.06,-6.66,-7.38,-5.43,-5.43,-5.44
114.10,1.59,7.05,1.59,7.05,-7.05,-6.67,-7.50,-5.46,-5.46,-5.46
115.24,1.53,7.03,1.55,7.04,-7.03,-6.68,-7.61,-5.50,-5.49,-5.49
116.39,1.51,7.03,1.50,7.02,-7.02,-6.69,-7.71,-5.50,-5.51,-5.52
117.55,1.46,7.00,1.46,7.00,-6.99,-6.69,-7.80,-5.53,-5.54,-5.54
118.73,1.40,6.97,1.41,6.97,-6.97,-6.70,-7.89,-5.57,-5.56,-5.57
119.92,1.35,6.93,1.35,6.93,-6.94,-6.70,-7.96,-5.58,-5.58,-5.57
121.12,1.30,6.89,1.31,6.90,-6.90,-6.71,-8.02,-5.60,-5.60,-5.59
122.33,1.27,6.88,1.26,6.87,-6.87,-6.71,-8.07,-5.60,-5.61,-5.61
123.55,1.22,6.83,1.22,6.83,-6.84,-6.71,-8.11,-5.62,-5.62,-5.61
124.79,1.17,6.80,1.17,6.80,-6.80,-6.71,-8.13,-5.63,-5.63,-5.63
126.03,1.12,6.75,1.13,6.77,-6.77,-6.72,-8.15,-5.65,-5.64,-5.63
127.29,1.09,6.74,1.09,6.74,-6.73,-6.71,-8.15,-5.64,-5.64,-5.65
128.57,1.05,6.72,1.04,6.70,-6.69,-6.71,-8.14,-5.64,-5.65,-5.67
129.85,0.98,6.66,0.98,6.66,-6.65,-6.71,-8.12,-5.67,-5.67,-5.68
131.15,0.90,6.59,0.92,6.61,-6.61,-6.71,-8.09,-5.71,-5.70,-5.69
132.46,0.86,6.57,0.85,6.56,-6.58,-6.70,-8.04,-5.71,-5.72,-5.71
133.79,0.80,6.51,0.81,6.52,-6.54,-6.70,-7.99,-5.74,-5.73,-5.71
135.12,0.76,6.50,0.76,6.49,-6.50,-6.69,-7.93,-5.74,-5.73,-5.73
136.48,0.72,6.47,0.71,6.46,-6.46,-6.69,-7.86,-5.73,-5.74,-5.75
137.84,0.66,6.43,0.67,6.44,-6.42,-6.68,-7.78,-5.76,-5.75,-5.77
139.22,0.61,6.41,0.61,6.40,-6.38,-6.67,-7.70,-5.77,-5.78,-5.80
140.61,0.55,6.37,0.54,6.35,-6.35,-6.66,-7.61,-5.80,-5.81,-5.81
142.02,0.46,6.28,0.48,6.30,-6.32,-6.65,-7.52,-5.86,-5.84,-5.82
143.44,0.42,6.26,0.42,6.27,-6.29,-6.64,-7.43,-5.86,-5.86,-5.84
144.87,0.38,6.25,0.38,6.25,-6.26,-6.63,-7.33,-5.88,-5.88,-5.87
146.32,0.35,6.25,0.35,6.24,-6.23,-6.62,-7.23,-5.88,-5.89,-5.90
147.78,0.30,6.21,0.30,6.22,-6.21,-6.60,-7.13,-5.91,-5.91,-5.91
149.26,0.26,6.20,0.26,6.20,-6.19,-6.59,-7.03,-5.93,-5.93,-5.94
150.75,0.21,6.18,0.21,6.18,-6.18,-6.57,-6.93,-5.97,-5.96,-5.97
152.26,0.17,6.17,0.17,6.17,-6.16,-6.55,-6.84,-5.99,-5.99,-6.00
153.78,0.13,6.15,0.13,6.15,-6.15,-6.54,-6.74,-6.02,-6.02,-6.02
155.32,0.09,6.14,0.08,6.13,-6.14,-6.52,-6.64,-6.05,-6.05,-6.05
156.88,0.03,6.11,0.04,6.12,-6.13,-6.50,-6.55,-6.10,-6.09,-6.08
158.44,-0.01,6.11,-0.01,6.11,-6.12,-6.48,-6.46,-6.13,-6.13,-6.12
160.03,-0.05,6.10,-0.04,6.11,-6.12,-6.46,-6.37,-6.16,-6.16,-6.15
161.63,-0.07,6.12,-0.07,6.12,-6.11,-6.43,-6.29,-6.18,-6.18,-6.19
163.24,-0.10,6.12,-0.10,6.12,-6.10,-6.41,-6.21,-6.20,-6.21,-6.22
164.88,-0.14,6.11,-0.14,6.12,-6.10,-6.39,-6.14,-6.24,-6.24,-6.25
166.53,-0.18,6.10,-0.18,6.10,-6.09,-6.36,-6.06,-6.27,-6.27,-6.28
168.19,-0.22,6.09,-0.22,6.09,-6.09,-6.34,-6.00,-6.31,-6.31,-6.31
169.87,-0.27,6.07,-0.27,6.07,-6.08,-6.31,-5.93,-6.35,-6.35,-6.34
171.57,-0.31,6.06,-0.31,6.06,-6.07,-6.29,-5.88,-6.38,-6.38,-6.36
173.29,-0.34,6.05,-0.34,6.05,-6.06,-6.26,-5.82,-6.40,-6.40,-6.39
175.02,-0.37,6.05,-0.37,6.05,-6.05,-6.23,-5.77,-6.42,-6.42,-6.42
176.77,-0.40,6.05,-0.40,6.05,-6.04,-6.20,-5.72,-6.44,-6.43,-6.44
178.54,-0.43,6.04,-0.43,6.04,-6.02,-6.17,-5.68,-6.45,-6.45,-6.47
180.32,-0.47,6.02,-0.47,6.02,-6.00,-6.14,-5.64,-6.47,-6.47,-6.48
182.13,-0.51,5.99,-0.52,5.98,-5.97,-6.11,-5.61,-6.48,-6.49,-6.50
183.95,-0.58,5.93,-0.57,5.94,-5.95,-6.08,-5.58,-6.53,-6.52,-6.51
185.79,-0.62,5.91,-0.62,5.91,-5.92,-6.05,-5.56,-6.54,-6.54,-6.53
187.65,-0.66,5.88,-0.66,5.88,-5.89,-6.01,-5.53,-6.55,-6.55,-6.54
189.52,-0.69,5.85,-0.69,5.86,-5.87,-5.98,-5.52,-6.55,-6.56,-6.54
191.42,-0.72,5.84,-0.72,5.84,-5.84,-5.94,-5.50,-6.56,-6.56,-6.56
193.33,-0.74,5.82,-0.74,5.82,-5.82,-5.91,-5.50,-6.56,-6.56,-6.56
195.27,-0.76,5.80,-0.76,5.81,-5.80,-5.87,-5.49,-6.56,-6.56,-6.56
197.22,-0.78,5.79,-0.78,5.79,-5.78,-5.84,-5.49,-6.56,-6.57,-6.57
199.19,-0.81,5.78,-0.81,5.78,-5.77,-5.80,-5.49,-6.57,-6.57,-6.59
201.18,-0.84,5.75,-0.84,5.75,-5.75,-5.76,-5.49,-6.59,-6.59,-6.59
203.19,-0.87,5.72,-0.87,5.73,-5.73,-5.73,-5.49,-6.59,-6.60,-6.59
205.23,-0.91,5.69,-0.90,5.69,-5.70,-5.69,-5.50,-6.61,-6.61,-6.60
207.28,-0.93,5.67,-0.93,5.67,-5.68,-5.65,-5.51,-6.61,-6.61,-6.60
209.35,-0.96,5.65,-0.96,5.66,-5.66,-5.61,-5.52,-6.62,-6.61,-6.61
211.44,-0.98,5.65,-0.98,5.64,-5.64,-5.57,-5.54,-6.62,-6.62,-6.63
213.56,-1.01,5.62,-1.01,5.62,-5.62,-5.53,-5.55,-6.63,-6.63,-6.63
215.69,-1.05,5.58,-1.04,5.59,-5.60,-5.49,-5.56,-6.65,-6.64,-6.63
217.85,-1.07,5.58,-1.07,5.58,-5.58,-5.45,-5.58,-6.65,-6.64,-6.64
220.03,-1.09,5.56,-1.09,5.56,-5.56,-5.41,-5.59,-6.65,-6.65,-6.65
222.23,-1.11,5.56,-1.12,5.55,-5.53,-5.37,-5.60,-6.64,-6.65,-6.67
224.45,-1.15,5.52,-1.15,5.52,-5.51,-5.33,-5.62,-6.66,-6.66,-6.67
226.70,-1.19,5.49,-1.18,5.49,-5.50,-5.29,-5.62,-6.68,-6.68,-6.67
228.96,-1.22,5.46,-1.22,5.46,-5.48,-5.25,-5.63,-6.70,-6.70,-6.68
231.25,-1.24,5.45,-1.24,5.45,-5.46,-5.21,-5.64,-6.70,-6.71,-6.69
233.57,-1.27,5.43,-1.27,5.44,-5.45,-5.17,-5.64,-6.72,-6.72,-6.70
235.90,-1.29,5.43,-1.29,5.43,-5.43,-5.12,-5.64,-6.72,-6.72,-6.72
238.26,-1.31,5.43,-1.31,5.43,-5.42,-5.08,-5.63,-6.73,-6.73,-6.74
240.64,-1.33,5.42,-1.33,5.42,-5.40,-5.04,-5.62,-6.73,-6.73,-6.75
243.05,-1.37,5.39,-1.37,5.39,-5.37,-5.00,-5.61,-6.74,-6.74,-6.76
245.48,-1.41,5.35,-1.41,5.35,-5.34,-4.95,-5.59,-6.75,-6.75,-6.76
247.93,-1.47,5.30,-1.46,5.31,-5.30,-4.91,-5.56,-6.77,-6.77,-6.77
250.41,-1.51,5.27,-1.51,5.26,-5.26,-4.87,-5.53,-6.77,-6.78,-6.78
252.92,-1.57,5.20,-1.56,5.21,-5.22,-4.82,-5.50,-6.79,-6.78,-6.77
255.45,-1.60,5.16,-1.60,5.16,-5.18,-4.78,-5.46,-6.78,-6.78,-6.76
258.00,-1.63,5.13,-1.63,5.12,-5.14,-4.74,-5.41,-6.76,-6.77,-6.75
260.58,-1.66,5.09,-1.65,5.09,-5.09,-4.69,-5.36,-6.75,-6.74,-6.75
263.19,-1.68,5.05,-1.68,5.05,-5.04,-4.65,-5.31,-6.72,-6.73,-6.73
265.82,-1.71,5.02,-1.71,5.01,-5.00,-4.61,-5.25,-6.71,-6.71,-6.73
268.48,-1.75,4.95,-1.75,4.96,-4.95,-4.57,-5.19,-6.69,-6.69,-6.70
271.16,-1.79,4.89,-1.79,4.89,-4.89,-4.52,-5.12,-6.68,-6.68,-6.68
273.87,-1.84,4.83,-1.84,4.83,-4.83,-4.48,-5.05,-6.67,-6.67,-6.67
276.61,-1.88,4.76,-1.89,4.76,-4.77,-4.44,-4.97,-6.65,-6.65,-6.64
279.38,-1.94,4.69,-1.93,4.70,-4.70,-4.39,-4.90,-6.64,-6.63,-6.63
282.17,-1.99,4.63,-1.98,4.63,-4.63,-4.35,-4.82,-6.62,-6.61,-6.62
284.99,-2.03,4.57,-2.04,4.56,-4.55,-4.31,-4.74,-6.58,-6.59,-6.60
287.84,-2.10,4.48,-2.09,4.49,-4.48,-4.26,-4.65,-6.58,-6.58,-6.58
290.72,-2.15,4.41,-2.15,4.41,-4.41,-4.22,-4.57,-6.56,-6.56,-6.55
293.63,-2.21,4.34,-2.21,4.33,-4.34,-4.18,-4.48,-6.55,-6.55,-6.55
296.57,-2.26,4.26,-2.26,4.27,-4.27,-4.14,-4.40,-6.53,-6.53,-6.52
299.53,-2.31,4.19,-2.31,4.20,-4.20,-4.10,-4.31,-6.51,-6.51,-6.50
302.53,-2.35,4.15,-2.35,4.14,-4.13,-4.05,-4.23,-6.48,-6.48,-6.49
305.55,-2.39,4.07,-2.39,4.07,-4.07,-4.01,-4.14,-6.45,-6.46,-6.46
308.61,-2.43,4.01,-2.43,4.01,-4.00,-3.97,-4.06,-6.43,-6.43,-6.44
311.69,-2.48,3.93,-2.47,3.94,-3.94,-3.93,-3.98,-6.42,-6.41,-6.41
314.81,-2.50,3.87,-2.50,3.88,-3.88,-3.89,-3.89,-6.38,-6.38,-6.37
317.96,-2.54,3.82,-2.54,3.82,-3.82,-3.85,-3.81,-6.36,-6.36,-6.35
321.14,-2.57,3.77,-2.57,3.76,-3.76,-3.81,-3.73,-6.33,-6.34,-6.34
324.35,-2.61,3.71,-2.61,3.71,-3.71,-3.77,-3.65,-6.32,-6.32,-6.32
327.59,-2.65,3.64,-2.64,3.66,-3.65,-3.73,-3.58,-6.30,-6.29,-6.29
330.87,-2.66,3.61,-2.67,3.60,-3.60,-3.69,-3.50,-6.26,-6.27,-6.27
334.18,-2.69,3.55,-2.69,3.55,-3.55,-3.65,-3.43,-6.23,-6.24,-6.24
337.52,-2.73,3.50,-2.72,3.50,-3.49,-3.61,-3.36,-6.22,-6.21,-6.22
340.90,-2.75,3.45,-2.75,3.44,-3.44,-3.57,-3.29,-6.19,-6.19,-6.20
344.30,-2.78,3.39,-2.78,3.39,-3.39,-3.53,-3.23,-6.17,-6.17,-6.17
347.75,-2.80,3.35,-2.80,3.34,-3.35,-3.49,-3.16,-6.15,-6.15,-6.15
351.23,-2.82,3.30,-2.82,3.30,-3.31,-3.45,-3.10,-6.13,-6.13,-6.12
354.74,-2.83,3.26,-2.82,3.27,-3.28,-3.42,-3.04,-6.11,-6.10,-6.09
358.28,-2.82,3.25,-2.82,3.24,-3.25,-3.38,-2.98,-6.07,-6.07,-6.07
361.87,-2.82,3.22,-2.82,3.23,-3.23,-3.34,-2.93,-6.04,-6.04,-6.04
365.49,-2.81,3.21,-2.81,3.21,-3.21,-3.31,-2.87,-6.01,-6.01,-6.01
369.14,-2.80,3.21,-2.80,3.20,-3.19,-3.27,-2.82,-5.99,-5.99,-6.01
372.83,-2.80,3.18,-2.80,3.18,-3.17,-3.23,-2.77,-5.97,-5.97,-5.98
376.56,-2.80,3.16,-2.80,3.15,-3.16,-3.20,-2.73,-5.95,-5.95,-5.96
380.33,-2.80,3.12,-2.79,3.13,-3.14,-3.16,-2.68,-5.94,-5.94,-5.92
384.13,-2.79,3.12,-2.79,3.12,-3.13,-3.13,-2.64,-5.91,-5.91,-5.91
387.97,-2.78,3.11,-2.78,3.11,-3.11,-3.10,-2.60,-5.89,-5.89,-5.89
391.85,-2.78,3.10,-2.78,3.10,-3.09,-3.06,-2.56,-5.87,-5.87,-5.88
395.77,-2.78,3.07,-2.78,3.08,-3.07,-3.03,-2.52,-5.85,-5.85,-5.85
399.73,-2.79,3.05,-2.79,3.06,-3.06,-2.99,-2.49,-5.84,-5.84,-5.84
403.72,-2.80,3.04,-2.80,3.04,-3.04,-2.96,-2.46,-5.83,-5.84,-5.84
407.76,-2.82,3.01,-2.82,3.01,-3.01,-2.93,-2.43,-5.83,-5.83,-5.83
411.84,-2.84,2.99,-2.84,2.99,-2.99,-2.89,-2.40,-5.83,-5.83,-5.82
415.96,-2.87,2.96,-2.87,2.96,-2.96,-2.86,-2.37,-5.83,-5.83,-5.82
420.12,-2.90,2.93,-2.90,2.93,-2.93,-2.83,-2.35,-5.83,-5.83,-5.83
