frequency,raw
20.00,-26.30
20.20,-26.57
20.40,-26.84
20.61,-27.10
20.81,-27.38
21.02,-27.64
21.23,-27.90
21.44,-28.15
21.66,-28.41
21.87,-28.66
22.09,-28.91
22.31,-29.15
22.54,-29.38
22.76,-29.62
22.99,-29.86
23.22,-30.08
23.45,-30.30
23.69,-30.53
23.92,-30.75
24.16,-30.96
24.40,-31.16
24.65,-31.36
24.89,-31.55
25.14,-31.74
25.39,-31.92
25.65,-32.10
25.91,-32.27
26.16,-32.44
26.43,-32.59
26.69,-32.74
26.96,-32.90
27.23,-33.02
27.50,-33.15
27.77,-33.27
28.05,-33.39
28.33,-33.48
28.62,-33.57
28.90,-33.67
29.19,-33.74
29.48,-33.80
29.78,-33.86
30.08,-33.90
30.38,-33.84
30.68,-33.78
30.99,-33.72
31.30,-33.62
31.61,-33.52
31.93,-33.41
32.24,-33.29
32.57,-33.16
32.89,-33.02
33.22,-32.87
33.55,-32.71
33.89,-32.55
34.23,-32.40
34.57,-32.25
34.92,-32.10
35.27,-31.98
35.62,-31.87
35.97,-31.77
36.33,-31.71
36.70,-31.65
37.06,-31.59
37.43,-31.56
37.81,-31.53
38.19,-31.49
38.57,-31.46
38.95,-31.43
39.34,-31.42
39.74,-31.41
40.14,-31.40
40.54,-31.41
40.94,-31.42
41.35,-31.42
41.76,-31.43
42.18,-31.43
42.60,-31.43
43.03,-31.43
43.46,-31.42
43.90,-31.41
44.33,-31.40
44.78,-31.38
45.23,-31.35
45.68,-31.30
46.13,-31.26
46.60,-31.21
47.06,-31.16
47.53,-31.09
48.01,-31.02
48.49,-30.94
48.97,-30.85
49.46,-30.76
49.96,-30.67
50.46,-30.57
50.96,-30.48
51.47,-30.39
51.99,-30.30
52.51,-30.22
53.03,-30.15
53.56,-30.07
54.10,-30.00
54.64,-29.91
55.18,-29.83
55.74,-29.74
56.29,-29.65
56.86,-29.55
57.42,-29.46
58.00,-29.36
58.58,-29.26
59.16,-29.15
59.76,-29.04
60.35,-28.94
60.96,-28.83
61.57,-28.73
62.18,-28.63
62.80,-28.55
63.43,-28.46
64.07,-28.38
64.71,-28.31
65.35,-28.24
66.01,-28.16
66.67,-28.10
67.33,-28.04
68.01,-27.99
68.69,-27.93
69.37,-27.88
70.07,-27.81
70.77,-27.75
71.48,-27.69
72.19,-27.62
72.91,-27.53
73.64,-27.44
74.38,-27.34
75.12,-27.22
75.87,-27.10
76.63,-26.97
77.40,-26.84
78.17,-26.71
78.95,-26.56
79.74,-26.42
80.54,-26.28
81.35,-26.14
82.16,-26.01
82.98,-25.88
83.81,-25.77
84.65,-25.65
85.50,-25.54
86.35,-25.43
87.22,-25.35
88.09,-25.26
88.97,-25.16
89.86,-25.07
90.76,-24.99
91.66,-24.91
92.58,-24.83
93.51,-24.76
94.44,-24.70
95.39,-24.64
96.34,-24.57
97.30,-24.49
98.28,-24.38
99.26,-24.25
100.25,-24.08
101.25,-23.86
102.27,-23.63
103.29,-23.49
104.32,-23.29
105.37,-22.97
106.42,-22.62
107.48,-22.27
108.56,-21.91
109.64,-21.56
110.74,-21.24
111.85,-20.96
112.97,-20.74
114.10,-20.59
115.24,-20.49
116.39,-20.46
117.55,-20.41
118.73,-20.36
119.92,-20.31
121.12,-20.28
122.33,-20.26
123.55,-20.22
124.79,-20.18
126.03,-20.19
127.29,-20.22
128.57,-20.26
129.85,-20.36
131.15,-20.48
132.46,-20.54
133.79,-20.66
135.12,-20.83
136.48,-20.91
137.84,-21.03
139.22,-21.10
140.61,-21.16
142.02,-21.20
143.44,-21.19
144.87,-21.15
146.32,-21.09
147.78,-20.98
149.26,-20.88
150.75,-20.73
152.26,-20.63
153.78,-20.50
155.32,-20.40
156.88,-20.28
158.44,-20.20
160.03,-20.08
161.63,-20.01
163.24,-19.94
164.88,-19.85
166.53,-19.77
168.19,-19.70
169.87,-19.60
171.57,-19.51
173.29,-19.43
175.02,-19.30
176.77,-19.20
178.54,-19.11
180.32,-19.01
182.13,-18.93
183.95,-18.78
185.79,-18.68
187.65,-18.59
189.52,-18.49
191.42,-18.39
193.33,-18.29
195.27,-18.20
197.22,-18.11
199.19,-18.02
201.18,-17.92
203.19,-17.81
205.23,-17.70
207.28,-17.60
209.35,-17.49
211.44,-17.37
213.56,-17.26
215.69,-17.16
217.85,-17.04
220.03,-16.97
222.23,-16.88
224.45,-16.77
226.70,-16.66
228.96,-16.56
231.25,-16.48
233.57,-16.38
235.90,-16.27
238.26,-16.19
240.64,-16.10
243.05,-16.02
245.48,-15.92
247.93,-15.79
250.41,-15.71
252.92,-15.59
255.45,-15.51
258.00,-15.42
260.58,-15.32
263.19,-15.23
265.82,-15.12
268.48,-15.04
271.16,-14.95
273.87,-14.83
276.61,-14.73
279.38,-14.64
282.17,-14.55
284.99,-14.47
287.84,-14.37
290.72,-14.27
293.63,-14.18
296.57,-14.09
299.53,-14.00
302.53,-13.90
305.55,-13.80
308.61,-13.71
311.69,-13.61
314.81,-13.53
317.96,-13.44
321.14,-13.35
324.35,-13.23
327.59,-13.14
330.87,-13.05
334.18,-12.94
337.52,-12.83
340.90,-12.75
344.30,-12.64
347.75,-12.55
351.23,-12.45
354.74,-12.34
358.28,-12.23
361.87,-12.12
365.49,-12.00
369.14,-11.89
372.83,-11.79
376.56,-11.66
380.33,-11.54
384.13,-11.43
387.97,-11.33
391.85,-11.22
395.77,-11.11
399.73,-11.00
403.72,-10.89
407.76,-10.79
411.84,-10.69
415.96,-10.59
420.12,-10.49
424.32,-10.39
428.56,-10.30
432.85,-10.21
437.18,-10.10
441.55,-10.01
445.96,-9.91
450.42,-9.79
454.93,-9.69
459.48,-9.57
464.07,-9.47
468.71,-9.37
473.40,-9.25
478.13,-9.14
482.91,-9.03
487.74,-8.91
492.62,-8.80
497.55,-8.68
502.52,-8.57
507.55,-8.47
512.62,-8.37
517.75,-8.26
522.93,-8.16
528.16,-8.07
533.44,-7.98
538.77,-7.88
544.16,-7.78
549.60,-7.68
555.10,-7.59
560.65,-7.49
566.25,-7.40
571.92,-7.28
577.64,-7.17
583.41,-7.07
589.25,-6.95
595.14,-6.83
601.09,-6.72
607.10,-6.60
613.17,-6.50
619.30,-6.39
625.50,-6.27
631.75,-6.15
638.07,-6.02
644.45,-5.91
650.89,-5.78
657.40,-5.66
663.98,-5.52
670.62,-5.40
677.32,-5.28
684.10,-5.16
690.94,-5.02
697.85,-4.89
704.83,-4.75
711.87,-4.63
718.99,-4.50
726.18,-4.37
733.44,-4.25
740.78,-4.12
748.19,-4.01
755.67,-3.87
763.23,-3.75
770.86,-3.62
778.57,-3.48
786.35,-3.35
794.22,-3.21
802.16,-3.08
810.18,-2.94
818.28,-2.80
826.46,-2.66
834.73,-2.54
843.08,-2.39
851.51,-2.25
860.02,-2.11
868.62,-1.98
877.31,-1.82
886.08,-1.69
894.94,-1.57
903.89,-1.44
912.93,-1.29
922.06,-1.15
931.28,-1.01
940.59,-0.89
950.00,-0.75
959.50,-0.61
969.09,-0.46
978.78,-0.32
988.57,-0.17
998.46,-0.03
1008.44,0.14
1018.53,0.30
1028.71,0.46
1039.00,0.61
1049.39,0.76
1059.88,0.93
1070.48,1.10
1081.19,1.26
1092.00,1.43
1102.92,1.59
1113.95,1.75
1125.09,1.90
1136.34,2.06
1147.70,2.25
1159.18,2.43
1170.77,2.61
1182.48,2.77
1194.30,2.94
1206.25,3.11
1218.31,3.29
1230.49,3.47
1242.80,3.64
1255.22,3.82
1267.78,4.00
1280.45,4.21
1293.26,4.42
1306.19,4.62
1319.25,4.82
1332.45,5.02
1345.77,5.21
1359.23,5.43
1372.82,5.63
1386.55,5.85
1400.41,6.06
1414.42,6.28
1428.56,6.48
1442.85,6.69
1457.28,6.90
1471.85,7.11
1486.57,7.34
1501.43,7.56
1516.45,7.79
1531.61,8.03
1546.93,8.27
1562.40,8.51
1578.02,8.74
1593.80,8.99
1609.74,9.25
1625.84,9.50
1642.10,9.75
1658.52,10.01
1675.10,10.27
1691.85,10.53
1708.77,10.79
1725.86,11.04
1743.12,11.30
1760.55,11.56
1778.15,11.81
1795.94,12.06
1813.90,12.30
1832.03,12.55
1850.36,12.78
1868.86,13.00
1887.55,13.22
1906.42,13.44
1925.49,13.67
1944.74,13.90
1964.19,14.12
1983.83,14.36
2003.67,14.58
2023.71,14.79
2043.94,14.99
2064.38,15.17
2085.03,15.34
2105.88,15.50
2126.94,15.65
2148.20,15.77
2169.69,15.88
2191.38,15.99
2213.30,16.09
2235.43,16.17
2257.78,16.24
2280.36,16.29
2303.17,16.32
2326.20,16.36
2349.46,16.39
2372.95,16.41
2396.68,16.40
2420.65,16.39
2444.86,16.37
2469.31,16.34
2494.00,16.30
2518.94,16.25
2544.13,16.19
2569.57,16.12
2595.27,16.03
2621.22,15.96
2647.43,15.88
2673.90,15.81
2700.64,15.73
2727.65,15.64
2754.93,15.55
2782.48,15.45
2810.30,15.35
2838.40,15.26
2866.79,15.18
2895.46,15.09
2924.41,15.01
2953.65,14.93
2983.19,14.86
3013.02,14.78
3043.15,14.71
3073.58,14.64
3104.32,14.58
3135.36,14.51
3166.72,14.46
3198.38,14.41
3230.37,14.36
3262.67,14.33
3295.30,14.30
3328.25,14.29
3361.53,14.28
3395.15,14.29
3429.10,14.30
3463.39,14.32
3498.03,14.37
3533.01,14.43
3568.34,14.50
3604.02,14.56
3640.06,14.65
3676.46,14.74
3713.22,14.84
3750.36,14.94
3787.86,15.05
3825.74,15.16
3864.00,15.27
3902.64,15.38
3941.66,15.49
3981.08,15.61
4020.89,15.73
4061.10,15.85
4101.71,15.96
4142.73,16.07
4184.15,16.19
4226.00,16.30
4268.26,16.41
4310.94,16.52
4354.05,16.60
4397.59,16.68
4441.56,16.75
4485.98,16.78
4530.84,16.81
4576.15,16.82
4621.91,16.81
4668.13,16.79
4714.81,16.73
4761.96,16.66
4809.58,16.56
4857.67,16.44
4906.25,16.30
4955.31,16.15
5004.87,16.00
5054.91,15.82
5105.46,15.63
5156.52,15.43
5208.08,15.22
5260.16,14.98
5312.77,14.73
5365.89,14.46
5419.55,14.18
5473.75,13.87
5528.49,13.57
5583.77,13.25
5639.61,12.93
5696.00,12.59
5752.96,12.23
5810.49,11.85
5868.60,11.48
5927.28,11.09
5986.56,10.70
6046.42,10.32
6106.89,9.92
6167.96,9.54
6229.64,9.15
6291.93,8.77
6354.85,8.39
6418.40,8.05
6482.58,7.72
6547.41,7.40
6612.88,7.07
6679.01,6.74
6745.80,6.43
6813.26,6.13
6881.39,5.84
6950.21,5.55
7019.71,5.26
7089.91,5.00
7160.81,4.74
7232.41,4.50
7304.74,4.28
7377.79,4.09
7451.56,3.93
7526.08,3.81
7601.34,3.72
7677.35,3.65
7754.13,3.62
7831.67,3.64
7909.98,3.70
7989.08,3.76
8068.98,3.86
8149.67,4.00
8231.16,4.18
8313.47,4.41
8396.61,4.69
8480.57,5.02
8565.38,5.37
8651.03,5.76
8737.54,6.18
8824.92,6.63
8913.17,7.12
9002.30,7.61
9092.32,8.09
9183.25,8.56
9275.08,8.99
9367.83,9.39
9461.51,9.76
9556.12,10.08
9651.68,10.35
9748.20,10.57
9845.68,10.75
9944.14,10.90
10043.58,11.01
10144.02,11.09
10245.46,11.14
10347.91,11.16
10451.39,11.14
10555.91,11.10
10661.46,11.04
10768.08,10.96
10875.76,10.83
10984.52,10.64
11094.36,10.41
11205.31,10.13
11317.36,9.81
11430.53,9.44
11544.84,9.00
11660.29,8.52
11776.89,8.01
11894.66,7.46
12013.60,6.90
12133.74,6.30
12255.08,5.66
12377.63,5.00
12501.41,4.30
12626.42,3.57
12752.68,2.79
12880.21,1.98
13009.01,1.12
13139.10,0.18
13270.49,-0.81
13403.20,-1.85
13537.23,-2.91
13672.60,-3.99
13809.33,-5.05
13947.42,-6.10
14086.90,-7.12
14227.77,-8.06
14370.04,-8.94
14513.74,-9.74
14658.88,-10.46
14805.47,-11.10
14953.52,-11.67
15103.06,-12.15
15254.09,-12.58
15406.63,-12.95
15560.70,-13.27
15716.30,-13.57
15873.47,-13.83
16032.20,-14.08
16192.52,-14.33
16354.45,-14.58
16517.99,-14.80
16683.17,-15.04
16850.01,-15.30
17018.51,-15.63
17188.69,-16.07
17360.58,-16.65
17534.18,-17.44
17709.53,-18.45
17886.62,-19.67
18065.49,-21.03
18246.14,-22.23
18428.60,-23.43
18612.89,-24.70
18799.02,-26.05
18987.01,-27.48
19176.88,-28.97
19368.65,-30.53
19562.33,-32.18
19757.96,-33.90
19955.54,-35.69
