frequency,raw,smoothed,error,error_smoothed,equalization,parametric_eq,fixed_band_eq,equalized_raw,equalized_smoothed,target
20.00,7.36,7.36,2.63,2.63,-2.63,-2.58,-1.15,4.73,4.73,4.73
20.20,7.39,7.39,2.63,2.63,-2.63,-2.58,-1.18,4.76,4.76,4.76
20.40,7.42,7.42,2.63,2.63,-2.63,-2.58,-1.22,4.79,4.79,4.79
20.61,7.44,7.44,2.63,2.63,-2.63,-2.58,-1.25,4.81,4.82,4.81
20.81,7.47,7.47,2.63,2.63,-2.63,-2.58,-1.29,4.84,4.84,4.84
21.02,7.49,7.49,2.62,2.63,-2.63,-2.59,-1.33,4.86,4.86,4.87
21.23,7.50,7.50,2.62,2.63,-2.63,-2.59,-1.36,4.87,4.87,4.88
21.44,7.52,7.52,2.63,2.63,-2.63,-2.59,-1.40,4.89,4.88,4.89
21.66,7.53,7.53,2.63,2.64,-2.64,-2.59,-1.44,4.89,4.90,4.90
21.87,7.54,7.54,2.64,2.64,-2.64,-2.59,-1.49,4.90,4.90,4.90
22.09,7.55,7.55,2.65,2.64,-2.64,-2.59,-1.53,4.91,4.90,4.90
22.31,7.55,7.55,2.65,2.65,-2.65,-2.60,-1.57,4.90,4.90,4.90
22.54,7.55,7.55,2.65,2.65,-2.65,-2.60,-1.62,4.90,4.90,4.90
22.76,7.55,7.55,2.65,2.65,-2.65,-2.60,-1.67,4.90,4.90,4.90
22.99,7.55,7.55,2.66,2.65,-2.65,-2.60,-1.71,4.90,4.90,4.89
23.22,7.54,7.54,2.65,2.65,-2.65,-2.60,-1.76,4.89,4.90,4.89
23.45,7.54,7.54,2.65,2.65,-2.64,-2.61,-1.81,4.90,4.89,4.89
23.69,7.53,7.53,2.64,2.64,-2.64,-2.61,-1.86,4.89,4.89,4.89
23.92,7.53,7.53,2.64,2.63,-2.63,-2.61,-1.91,4.90,4.89,4.89
24.16,7.52,7.52,2.62,2.62,-2.63,-2.61,-1.97,4.89,4.89,4.90
24.40,7.51,7.51,2.61,2.62,-2.62,-2.62,-2.02,4.89,4.89,4.90
24.65,7.50,7.50,2.61,2.61,-2.62,-2.62,-2.07,4.89,4.89,4.89
24.89,7.50,7.50,2.61,2.61,-2.61,-2.62,-2.13,4.89,4.89,4.89
25.14,7.49,7.49,2.61,2.60,-2.60,-2.62,-2.18,4.89,4.89,4.88
25.39,7.48,7.48,2.60,2.60,-2.60,-2.63,-2.24,4.88,4.88,4.88
25.65,7.47,7.47,2.59,2.59,-2.59,-2.63,-2.30,4.88,4.88,4.88
25.91,7.46,7.46,2.59,2.58,-2.58,-2.63,-2.35,4.88,4.88,4.87
26.16,7.45,7.45,2.58,2.58,-2.58,-2.63,-2.41,4.87,4.87,4.87
26.43,7.44,7.44,2.57,2.57,-2.57,-2.64,-2.47,4.87,4.87,4.87
26.69,7.43,7.43,2.56,2.56,-2.56,-2.64,-2.52,4.87,4.87,4.87
26.96,7.42,7.42,2.55,2.55,-2.55,-2.64,-2.58,4.87,4.87,4.87
27.23,7.41,7.41,2.54,2.54,-2.55,-2.65,-2.63,4.86,4.86,4.87
27.50,7.40,7.40,2.54,2.54,-2.54,-2.65,-2.68,4.86,4.86,4.86
27.77,7.39,7.39,2.54,2.53,-2.53,-2.65,-2.73,4.86,4.86,4.85
28.05,7.38,7.38,2.53,2.53,-2.53,-2.65,-2.78,4.85,4.85,4.85
28.33,7.37,7.37,2.53,2.53,-2.53,-2.66,-2.83,4.84,4.84,4.84
28.62,7.36,7.36,2.52,2.52,-2.52,-2.66,-2.88,4.84,4.84,4.84
28.90,7.36,7.36,2.52,2.52,-2.52,-2.66,-2.92,4.84,4.83,4.84
29.19,7.35,7.35,2.52,2.52,-2.52,-2.67,-2.96,4.83,4.83,4.83
29.48,7.35,7.35,2.52,2.52,-2.52,-2.67,-3.00,4.83,4.83,4.83
29.78,7.35,7.35,2.53,2.52,-2.52,-2.68,-3.03,4.83,4.82,4.82
30.08,7.34,7.34,2.52,2.52,-2.52,-2.68,-3.06,4.82,4.82,4.82
30.38,7.34,7.34,2.53,2.53,-2.53,-2.68,-3.09,4.81,4.81,4.81
30.68,7.33,7.33,2.52,2.53,-2.53,-2.69,-3.12,4.80,4.80,4.81
30.99,7.33,7.33,2.54,2.53,-2.53,-2.69,-3.14,4.80,4.80,4.79
31.30,7.32,7.32,2.53,2.53,-2.53,-2.70,-3.15,4.79,4.79,4.79
31.61,7.32,7.32,2.53,2.54,-2.54,-2.70,-3.17,4.78,4.78,4.79
31.93,7.32,7.32,2.54,2.54,-2.54,-2.71,-3.18,4.78,4.78,4.78
32.24,7.31,7.31,2.55,2.54,-2.54,-2.71,-3.19,4.77,4.77,4.76
32.57,7.31,7.31,2.55,2.55,-2.55,-2.71,-3.19,4.76,4.76,4.76
32.89,7.31,7.31,2.55,2.55,-2.55,-2.72,-3.19,4.76,4.76,4.76
33.22,7.31,7.31,2.56,2.56,-2.56,-2.72,-3.19,4.75,4.75,4.75
33.55,7.31,7.31,2.57,2.57,-2.57,-2.73,-3.18,4.74,4.74,4.74
33.89,7.31,7.31,2.58,2.58,-2.58,-2.73,-3.18,4.73,4.73,4.73
34.23,7.32,7.32,2.59,2.59,-2.59,-2.74,-3.17,4.73,4.72,4.73
34.57,7.32,7.32,2.60,2.60,-2.60,-2.74,-3.15,4.72,4.72,4.72
34.92,7.32,7.32,2.62,2.62,-2.62,-2.75,-3.14,4.70,4.71,4.70
35.27,7.33,7.33,2.63,2.63,-2.63,-2.76,-3.13,4.70,4.69,4.70
35.62,7.33,7.33,2.64,2.65,-2.65,-2.76,-3.11,4.68,4.68,4.69
35.97,7.34,7.34,2.67,2.66,-2.66,-2.77,-3.09,4.68,4.68,4.67
36.33,7.35,7.35,2.68,2.68,-2.68,-2.77,-3.07,4.67,4.66,4.67
36.70,7.35,7.35,2.70,2.70,-2.70,-2.78,-3.06,4.65,4.66,4.65
37.06,7.36,7.36,2.72,2.72,-2.72,-2.79,-3.04,4.64,4.64,4.64
37.43,7.37,7.37,2.73,2.73,-2.73,-2.79,-3.02,4.64,4.63,4.64
37.81,7.37,7.37,2.75,2.75,-2.75,-2.80,-3.00,4.62,4.62,4.62
38.19,7.38,7.38,2.77,2.77,-2.77,-2.81,-2.99,4.61,4.61,4.61
38.57,7.39,7.39,2.79,2.79,-2.79,-2.81,-2.97,4.60,4.60,4.60
38.95,7.39,7.39,2.80,2.81,-2.81,-2.82,-2.96,4.58,4.58,4.59
39.34,7.40,7.40,2.83,2.83,-2.83,-2.83,-2.94,4.57,4.57,4.57
39.74,7.41,7.41,2.85,2.85,-2.85,-2.83,-2.93,4.56,4.56,4.56
40.14,7.42,7.42,2.87,2.87,-2.87,-2.84,-2.92,4.55,4.55,4.55
40.54,7.42,7.42,2.88,2.89,-2.88,-2.85,-2.91,4.54,4.54,4.54
40.94,7.43,7.43,2.90,2.90,-2.90,-2.86,-2.91,4.53,4.53,4.53
41.35,7.43,7.43,2.92,2.91,-2.91,-2.86,-2.90,4.52,4.52,4.51
41.76,7.44,7.44,2.93,2.93,-2.93,-2.87,-2.90,4.51,4.51,4.51
42.18,7.44,7.44,2.94,2.95,-2.95,-2.88,-2.90,4.50,4.50,4.50
42.60,7.45,7.45,2.97,2.96,-2.96,-2.89,-2.90,4.49,4.49,4.48
43.03,7.45,7.45,2.97,2.97,-2.98,-2.90,-2.90,4.47,4.47,4.48
43.46,7.45,7.45,2.99,2.99,-3.00,-2.91,-2.91,4.45,4.45,4.46
43.90,7.45,7.45,3.02,3.01,-3.02,-2.91,-2.91,4.43,4.43,4.43
44.33,7.45,7.45,3.04,3.03,-3.04,-2.92,-2.92,4.41,4.41,4.41
44.78,7.45,7.45,3.05,3.06,-3.06,-2.93,-2.94,4.39,4.40,4.40
45.23,7.46,7.46,3.08,3.08,-3.07,-2.94,-2.95,4.39,4.38,4.38
45.68,7.46,7.46,3.10,3.10,-3.09,-2.95,-2.97,4.37,4.37,4.36
46.13,7.46,7.46,3.12,3.11,-3.11,-2.96,-2.99,4.35,4.35,4.34
46.60,7.45,7.45,3.12,3.13,-3.12,-2.97,-3.01,4.33,4.33,4.33
47.06,7.45,7.45,3.14,3.14,-3.14,-2.98,-3.03,4.31,4.31,4.31
47.53,7.45,7.45,3.16,3.15,-3.16,-2.99,-3.06,4.29,4.29,4.29
48.01,7.44,7.44,3.16,3.17,-3.18,-3.00,-3.08,4.26,4.27,4.28
48.49,7.44,7.44,3.19,3.19,-3.19,-3.01,-3.11,4.25,4.25,4.25
48.97,7.43,7.43,3.21,3.21,-3.21,-3.02,-3.14,4.22,4.22,4.22
49.46,7.43,7.43,3.24,3.24,-3.23,-3.03,-3.18,4.20,4.20,4.19
49.96,7.42,7.42,3.26,3.26,-3.25,-3.04,-3.21,4.17,4.17,4.16
50.46,7.41,7.41,3.27,3.27,-3.27,-3.06,-3.25,4.14,4.14,4.14
50.96,7.40,7.40,3.28,3.28,-3.28,-3.07,-3.28,4.12,4.12,4.12
51.47,7.39,7.39,3.30,3.30,-3.30,-3.08,-3.32,4.09,4.09,4.09
51.99,7.38,7.38,3.31,3.31,-3.31,-3.09,-3.36,4.07,4.07,4.07
52.51,7.37,7.37,3.32,3.32,-3.32,-3.10,-3.40,4.05,4.05,4.05
53.03,7.36,7.36,3.33,3.33,-3.33,-3.11,-3.44,4.03,4.02,4.03
53.56,7.34,7.34,3.34,3.34,-3.34,-3.12,-3.47,4.00,4.00,4.00
54.10,7.33,7.33,3.35,3.35,-3.36,-3.14,-3.51,3.97,3.97,3.98
54.64,7.32,7.32,3.37,3.37,-3.37,-3.15,-3.55,3.95,3.95,3.95
55.18,7.30,7.30,3.38,3.38,-3.38,-3.16,-3.59,3.92,3.93,3.92
55.74,7.29,7.29,3.39,3.39,-3.39,-3.17,-3.62,3.90,3.90,3.90
56.29,7.28,7.28,3.40,3.40,-3.40,-3.19,-3.66,3.88,3.88,3.88
56.86,7.26,7.26,3.41,3.41,-3.41,-3.20,-3.69,3.85,3.85,3.85
57.42,7.24,7.24,3.42,3.42,-3.41,-3.21,-3.72,3.83,3.83,3.82
58.00,7.23,7.23,3.43,3.42,-3.42,-3.23,-3.75,3.81,3.81,3.80
58.58,7.21,7.21,3.43,3.43,-3.42,-3.24,-3.77,3.79,3.79,3.78
59.16,7.19,7.19,3.43,3.42,-3.43,-3.25,-3.79,3.76,3.76,3.76
59.76,7.16,7.16,3.42,3.42,-3.43,-3.26,-3.81,3.73,3.73,3.74
60.35,7.14,7.14,3.43,3.43,-3.43,-3.28,-3.82,3.71,3.71,3.71
60.96,7.12,7.12,3.43,3.43,-3.44,-3.29,-3.83,3.68,3.68,3.69
61.57,7.09,7.09,3.45,3.44,-3.44,-3.30,-3.84,3.65,3.65,3.65
62.18,7.06,7.06,3.45,3.45,-3.45,-3.32,-3.84,3.61,3.62,3.61
62.80,7.04,7.04,3.45,3.46,-3.45,-3.33,-3.84,3.59,3.59,3.59
63.43,7.01,7.01,3.46,3.46,-3.46,-3.34,-3.84,3.55,3.56,3.55
64.07,6.99,6.99,3.46,3.46,-3.46,-3.36,-3.83,3.53,3.53,3.53
64.71,6.96,6.96,3.46,3.46,-3.46,-3.37,-3.81,3.50,3.50,3.50
65.35,6.93,6.93,3.46,3.46,-3.46,-3.38,-3.80,3.47,3.47,3.47
66.01,6.90,6.90,3.46,3.46,-3.46,-3.40,-3.77,3.44,3.44,3.44
66.67,6.88,6.88,3.47,3.46,-3.46,-3.41,-3.75,3.42,3.41,3.41
67.33,6.85,6.85,3.47,3.46,-3.46,-3.42,-3.72,3.39,3.39,3.38
68.01,6.82,6.82,3.47,3.47,-3.47,-3.43,-3.69,3.35,3.36,3.35
68.69,6.79,6.79,3.47,3.47,-3.47,-3.45,-3.66,3.32,3.32,3.32
69.37,6.76,6.76,3.47,3.47,-3.47,-3.46,-3.62,3.29,3.29,3.29
70.07,6.73,6.73,3.47,3.47,-3.47,-3.47,-3.59,3.26,3.26,3.26
70.77,6.70,6.70,3.47,3.47,-3.47,-3.48,-3.55,3.23,3.23,3.23
71.48,6.67,6.67,3.47,3.47,-3.47,-3.50,-3.51,3.20,3.20,3.20
72.19,6.64,6.64,3.48,3.47,-3.47,-3.51,-3.47,3.17,3.16,3.16
72.91,6.60,6.60,3.47,3.47,-3.47,-3.52,-3.43,3.12,3.13,3.13
73.64,6.57,6.57,3.48,3.48,-3.48,-3.53,-3.38,3.09,3.09,3.09
74.38,6.54,6.54,3.48,3.48,-3.48,-3.54,-3.34,3.06,3.06,3.06
75.12,6.51,6.51,3.48,3.48,-3.48,-3.55,-3.30,3.03,3.03,3.03
75.87,6.48,6.48,3.48,3.48,-3.48,-3.56,-3.26,3.00,3.00,3.00
76.63,6.45,6.45,3.48,3.48,-3.48,-3.57,-3.22,2.97,2.97,2.97
77.40,6.41,6.41,3.47,3.48,-3.48,-3.58,-3.18,2.93,2.93,2.94
78.17,6.38,6.38,3.49,3.48,-3.48,-3.58,-3.14,2.90,2.90,2.89
78.95,6.35,6.35,3.48,3.48,-3.48,-3.59,-3.10,2.87,2.87,2.87
79.74,6.31,6.31,3.47,3.48,-3.48,-3.60,-3.06,2.83,2.84,2.84
80.54,6.28,6.28,3.48,3.47,-3.48,-3.60,-3.03,2.80,2.80,2.80
81.35,6.24,6.24,3.47,3.47,-3.47,-3.61,-3.00,2.77,2.77,2.77
82.16,6.21,6.21,3.48,3.47,-3.47,-3.61,-2.97,2.74,2.74,2.73
82.98,6.17,6.17,3.46,3.47,-3.47,-3.62,-2.94,2.70,2.70,2.71
83.81,6.13,6.13,3.47,3.47,-3.47,-3.62,-2.91,2.66,2.66,2.66
84.65,6.09,6.09,3.47,3.46,-3.46,-3.62,-2.88,2.63,2.63,2.62
85.50,6.05,6.05,3.46,3.46,-3.46,-3.62,-2.86,2.59,2.59,2.59
86.35,6.01,6.01,3.46,3.46,-3.46,-3.62,-2.84,2.55,2.55,2.55
87.22,5.97,5.97,3.46,3.45,-3.46,-3.62,-2.82,2.51,2.51,2.51
88.09,5.93,5.93,3.46,3.45,-3.45,-3.62,-2.80,2.48,2.48,2.47
88.97,5.89,5.89,3.45,3.45,-3.45,-3.61,-2.79,2.44,2.44,2.44
89.86,5.85,5.85,3.45,3.45,-3.45,-3.61,-2.78,2.40,2.40,2.40
90.76,5.80,5.80,3.45,3.45,-3.45,-3.60,-2.77,2.35,2.36,2.35
91.66,5.76,5.76,3.44,3.45,-3.44,-3.60,-2.76,2.32,2.31,2.32
92.58,5.71,5.71,3.45,3.44,-3.44,-3.59,-2.75,2.27,2.27,2.26
93.51,5.66,5.66,3.43,3.43,-3.43,-3.58,-2.75,2.23,2.23,2.23
94.44,5.61,5.61,3.42,3.43,-3.43,-3.57,-2.75,2.18,2.18,2.19
95.39,5.56,5.56,3.42,3.42,-3.42,-3.55,-2.75,2.14,2.14,2.14
96.34,5.50,5.50,3.41,3.41,-3.41,-3.54,-2.75,2.09,2.09,2.09
97.30,5.45,5.45,3.41,3.41,-3.40,-3.52,-2.75,2.05,2.04,2.04
98.28,5.39,5.39,3.39,3.40,-3.39,-3.51,-2.76,2.00,2.00,2.00
99.26,5.33,5.33,3.38,3.38,-3.38,-3.49,-2.76,1.95,1.95,1.95
100.25,5.27,5.27,3.37,3.36,-3.36,-3.47,-2.77,1.91,1.90,1.90
101.25,5.20,5.20,3.34,3.35,-3.35,-3.44,-2.78,1.85,1.86,1.86
102.27,5.14,5.14,3.33,3.33,-3.33,-3.42,-2.79,1.81,1.81,1.81
103.29,5.07,5.07,3.31,3.31,-3.31,-3.39,-2.80,1.76,1.76,1.76
104.32,5.00,5.00,3.28,3.28,-3.28,-3.36,-2.81,1.72,1.72,1.72
105.37,4.93,4.93,3.26,3.25,-3.26,-3.34,-2.82,1.67,1.67,1.67
106.42,4.85,4.85,3.22,3.23,-3.23,-3.30,-2.83,1.62,1.62,1.63
107.48,4.78,4.78,3.20,3.20,-3.20,-3.27,-2.84,1.58,1.58,1.58
108.56,4.70,4.70,3.18,3.17,-3.17,-3.23,-2.86,1.53,1.53,1.52
109.64,4.62,4.62,3.14,3.14,-3.14,-3.20,-2.87,1.48,1.48,1.48
110.74,4.53,4.53,3.10,3.10,-3.10,-3.16,-2.87,1.43,1.43,1.43
111.85,4.45,4.45,3.06,3.07,-3.07,-3.12,-2.88,1.38,1.38,1.39
112.97,4.36,4.36,3.04,3.03,-3.03,-3.08,-2.89,1.33,1.33,1.32
114.10,4.27,4.27,2.99,2.99,-2.99,-3.03,-2.89,1.28,1.27,1.28
115.24,4.17,4.17,2.95,2.95,-2.95,-2.99,-2.90,1.22,1.22,1.22
116.39,4.08,4.08,2.91,2.91,-2.91,-2.94,-2.90,1.17,1.17,1.17
117.55,3.98,3.98,2.87,2.87,-2.87,-2.89,-2.89,1.11,1.11,1.11
118.73,3.88,3.88,2.82,2.82,-2.82,-2.84,-2.89,1.06,1.06,1.06
119.92,3.78,3.78,2.76,2.77,-2.77,-2.79,-2.88,1.01,1.01,1.02
121.12,3.68,3.68,2.72,2.71,-2.71,-2.73,-2.87,0.97,0.96,0.96
122.33,3.57,3.57,2.66,2.66,-2.66,-2.68,-2.85,0.91,0.92,0.91
123.55,3.47,3.47,2.60,2.60,-2.60,-2.62,-2.83,0.87,0.86,0.87
124.79,3.36,3.36,2.54,2.54,-2.55,-2.56,-2.81,0.81,0.81,0.82
126.03,3.25,3.25,2.48,2.48,-2.49,-2.51,-2.78,0.76,0.76,0.77
127.29,3.14,3.14,2.42,2.43,-2.43,-2.45,-2.75,0.71,0.71,0.72
128.57,3.03,3.03,2.37,2.37,-2.36,-2.38,-2.72,0.67,0.66,0.66
129.85,2.92,2.92,2.31,2.31,-2.30,-2.32,-2.68,0.62,0.61,0.61
131.15,2.80,2.80,2.24,2.24,-2.24,-2.26,-2.64,0.56,0.56,0.56
132.46,2.69,2.69,2.18,2.18,-2.18,-2.20,-2.59,0.51,0.52,0.51
133.79,2.59,2.58,2.11,2.11,-2.12,-2.13,-2.54,0.47,0.47,0.48
135.12,2.48,2.48,2.06,2.05,-2.05,-2.07,-2.49,0.43,0.43,0.42
136.48,2.37,2.37,1.98,1.99,-1.99,-2.00,-2.44,0.38,0.38,0.39
137.84,2.27,2.27,1.93,1.93,-1.93,-1.93,-2.38,0.34,0.34,0.34
139.22,2.17,2.17,1.88,1.88,-1.87,-1.87,-2.32,0.30,0.29,0.29
140.61,2.07,2.07,1.82,1.82,-1.82,-1.80,-2.25,0.25,0.26,0.25
142.02,1.98,1.98,1.76,1.76,-1.76,-1.73,-2.19,0.22,0.22,0.22
143.44,1.89,1.89,1.71,1.71,-1.71,-1.66,-2.12,0.18,0.18,0.18
144.87,1.80,1.80,1.66,1.66,-1.66,-1.60,-2.06,0.14,0.14,0.14
146.32,1.72,1.72,1.62,1.61,-1.62,-1.53,-1.99,0.10,0.10,0.10
147.78,1.64,1.64,1.57,1.57,-1.57,-1.46,-1.92,0.07,0.07,0.07
149.26,1.55,1.56,1.51,1.52,-1.52,-1.39,-1.84,0.02,0.03,0.04
150.75,1.48,1.47,1.49,1.48,-1.48,-1.33,-1.77,-0.00,-0.01,-0.01
152.26,1.39,1.39,1.44,1.44,-1.44,-1.26,-1.70,-0.05,-0.05,-0.05
153.78,1.31,1.31,1.39,1.40,-1.39,-1.19,-1.63,-0.08,-0.09,-0.08
155.32,1.22,1.22,1.35,1.34,-1.35,-1.13,-1.55,-0.13,-0.13,-0.13
156.88,1.13,1.13,1.29,1.30,-1.30,-1.06,-1.48,-0.17,-0.16,-0.16
158.44,1.04,1.04,1.24,1.24,-1.24,-1.00,-1.41,-0.20,-0.20,-0.21
160.03,0.94,0.94,1.19,1.19,-1.18,-0.93,-1.33,-0.24,-0.24,-0.25
161.63,0.83,0.83,1.12,1.12,-1.11,-0.87,-1.26,-0.28,-0.28,-0.29
163.24,0.72,0.72,1.05,1.05,-1.04,-0.81,-1.19,-0.32,-0.32,-0.33
164.88,0.60,0.60,0.96,0.97,-0.96,-0.74,-1.11,-0.36,-0.36,-0.36
166.53,0.49,0.48,0.89,0.88,-0.88,-0.68,-1.04,-0.39,-0.40,-0.40
168.19,0.36,0.36,0.80,0.80,-0.80,-0.62,-0.97,-0.44,-0.44,-0.44
169.87,0.24,0.24,0.71,0.72,-0.72,-0.56,-0.89,-0.48,-0.47,-0.47
171.57,0.12,0.12,0.63,0.63,-0.63,-0.50,-0.82,-0.51,-0.51,-0.51
173.29,0.00,-0.00,0.55,0.55,-0.55,-0.44,-0.75,-0.55,-0.55,-0.55
175.02,-0.12,-0.12,0.46,0.47,-0.47,-0.39,-0.68,-0.59,-0.59,-0.58
176.77,-0.24,-0.24,0.39,0.39,-0.39,-0.33,-0.61,-0.63,-0.63,-0.63
178.54,-0.35,-0.35,0.32,0.32,-0.32,-0.28,-0.54,-0.67,-0.67,-0.67
180.32,-0.46,-0.46,0.24,0.25,-0.25,-0.22,-0.47,-0.71,-0.71,-0.70
182.13,-0.56,-0.56,0.18,0.18,-0.18,-0.17,-0.40,-0.74,-0.74,-0.74
183.95,-0.66,-0.66,0.12,0.12,-0.12,-0.12,-0.33,-0.78,-0.78,-0.78
185.79,-0.75,-0.75,0.06,0.06,-0.06,-0.07,-0.26,-0.81,-0.81,-0.81
187.65,-0.84,-0.84,0.01,0.01,-0.01,-0.02,-0.20,-0.85,-0.85,-0.85
189.52,-0.92,-0.92,-0.04,-0.04,0.04,0.03,-0.13,-0.88,-0.88,-0.88
191.42,-1.00,-1.00,-0.09,-0.09,0.09,0.08,-0.06,-0.91,-0.91,-0.91
193.33,-1.08,-1.08,-0.14,-0.14,0.14,0.12,0.00,-0.94,-0.94,-0.94
195.27,-1.15,-1.15,-0.18,-0.18,0.18,0.17,0.07,-0.97,-0.97,-0.97
197.22,-1.22,-1.22,-0.22,-0.22,0.22,0.21,0.13,-1.00,-1.00,-1.00
199.19,-1.29,-1.29,-0.26,-0.26,0.26,0.25,0.20,-1.03,-1.02,-1.03
201.18,-1.35,-1.35,-0.30,-0.30,0.31,0.29,0.26,-1.04,-1.05,-1.05
203.19,-1.41,-1.41,-0.34,-0.34,0.34,0.34,0.33,-1.07,-1.07,-1.07
205.23,-1.47,-1.47,-0.38,-0.39,0.38,0.37,0.39,-1.09,-1.09,-1.09
207.28,-1.53,-1.53,-0.43,-0.42,0.42,0.41,0.45,-1.11,-1.11,-1.10
209.35,-1.58,-1.58,-0.46,-0.46,0.46,0.45,0.51,-1.12,-1.12,-1.12
211.44,-1.62,-1.62,-0.47,-0.49,0.49,0.49,0.57,-1.13,-1.14,-1.15
213.56,-1.67,-1.67,-0.52,-0.52,0.52,0.52,0.63,-1.15,-1.15,-1.15
215.69,-1.71,-1.71,-0.56,-0.55,0.55,0.55,0.68,-1.16,-1.16,-1.15
217.85,-1.75,-1.75,-0.59,-0.58,0.58,0.59,0.74,-1.17,-1.17,-1.16
220.03,-1.78,-1.78,-0.60,-0.61,0.61,0.62,0.79,-1.17,-1.18,-1.18
222.23,-1.81,-1.81,-0.62,-0.63,0.63,0.65,0.84,-1.18,-1.18,-1.19
224.45,-1.84,-1.84,-0.66,-0.65,0.66,0.68,0.89,-1.18,-1.18,-1.18
226.70,-1.86,-1.86,-0.68,-0.68,0.68,0.71,0.94,-1.18,-1.18,-1.18
228.96,-1.89,-1.89,-0.71,-0.71,0.70,0.73,0.98,-1.19,-1.18,-1.18
231.25,-1.91,-1.91,-0.74,-0.73,0.73,0.76,1.03,-1.18,-1.18,-1.17
233.57,-1.92,-1.92,-0.75,-0.75,0.75,0.78,1.07,-1.17,-1.18,-1.17
235.90,-1.94,-1.94,-0.77,-0.77,0.77,0.81,1.10,-1.17,-1.17,-1.17
238.26,-1.95,-1.95,-0.78,-0.78,0.78,0.83,1.14,-1.17,-1.17,-1.17
240.64,-1.96,-1.96,-0.80,-0.80,0.80,0.86,1.17,-1.16,-1.16,-1.16
243.05,-1.97,-1.97,-0.82,-0.82,0.82,0.88,1.20,-1.15,-1.15,-1.15
245.48,-1.97,-1.97,-0.83,-0.83,0.83,0.90,1.23,-1.14,-1.14,-1.14
247.93,-1.98,-1.98,-0.85,-0.85,0.85,0.92,1.25,-1.13,-1.13,-1.13
250.41,-1.98,-1.98,-0.86,-0.86,0.86,0.94,1.27,-1.12,-1.12,-1.12
252.92,-1.98,-1.98,-0.88,-0.88,0.88,0.96,1.29,-1.10,-1.10,-1.10
255.45,-1.98,-1.98,-0.90,-0.90,0.90,0.97,1.30,-1.08,-1.08,-1.08
258.00,-1.98,-1.98,-0.91,-0.91,0.91,0.99,1.31,-1.07,-1.07,-1.07
260.58,-1.98,-1.98,-0.93,-0.93,0.93,1.01,1.32,-1.05,-1.05,-1.05
263.19,-1.98,-1.98,-0.95,-0.95,0.95,1.02,1.32,-1.03,-1.03,-1.03
265.82,-1.98,-1.98,-0.96,-0.97,0.97,1.04,1.32,-1.01,-1.01,-1.02
268.48,-1.98,-1.98,-0.99,-0.99,0.99,1.05,1.32,-0.99,-0.99,-0.99
271.16,-1.98,-1.98,-1.01,-1.01,1.00,1.07,1.32,-0.98,-0.97,-0.97
273.87,-1.97,-1.97,-1.02,-1.02,1.02,1.08,1.32,-0.95,-0.95,-0.95
276.61,-1.97,-1.97,-1.04,-1.04,1.04,1.09,1.31,-0.93,-0.93,-0.93
279.38,-1.97,-1.97,-1.06,-1.05,1.06,1.11,1.30,-0.91,-0.91,-0.91
282.17,-1.97,-1.97,-1.07,-1.07,1.07,1.12,1.29,-0.90,-0.90,-0.90
284.99,-1.96,-1.96,-1.09,-1.09,1.09,1.13,1.28,-0.87,-0.88,-0.87
287.84,-1.96,-1.96,-1.10,-1.10,1.10,1.14,1.27,-0.86,-0.86,-0.86
290.72,-1.96,-1.96,-1.13,-1.12,1.12,1.16,1.25,-0.84,-0.84,-0.83
293.63,-1.95,-1.95,-1.13,-1.14,1.14,1.17,1.24,-0.81,-0.82,-0.82
296.57,-1.95,-1.95,-1.16,-1.15,1.16,1.18,1.22,-0.79,-0.80,-0.79
299.53,-1.95,-1.95,-1.17,-1.17,1.17,1.19,1.21,-0.78,-0.77,-0.78
302.53,-1.95,-1.95,-1.19,-1.19,1.19,1.20,1.19,-0.76,-0.75,-0.76
305.55,-1.94,-1.94,-1.22,-1.21,1.22,1.22,1.18,-0.72,-0.73,-0.72
308.61,-1.94,-1.94,-1.23,-1.24,1.24,1.23,1.16,-0.70,-0.70,-0.71
311.69,-1.94,-1.94,-1.26,-1.26,1.26,1.24,1.14,-0.68,-0.68,-0.68
314.81,-1.93,-1.93,-1.29,-1.28,1.28,1.26,1.13,-0.65,-0.65,-0.64
317.96,-1.93,-1.93,-1.30,-1.30,1.30,1.27,1.11,-0.63,-0.63,-0.63
321.14,-1.93,-1.93,-1.32,-1.32,1.32,1.29,1.09,-0.61,-0.61,-0.61
324.35,-1.93,-1.93,-1.34,-1.34,1.34,1.30,1.08,-0.59,-0.59,-0.59
327.59,-1.93,-1.93,-1.36,-1.36,1.36,1.32,1.06,-0.57,-0.57,-0.57
330.87,-1.93,-1.93,-1.38,-1.38,1.38,1.34,1.05,-0.55,-0.55,-0.55
334.18,-1.93,-1.93,-1.40,-1.40,1.40,1.36,1.04,-0.53,-0.53,-0.53
337.52,-1.93,-1.93,-1.41,-1.42,1.42,1.38,1.02,-0.51,-0.52,-0.52
340.90,-1.93,-1.93,-1.44,-1.44,1.43,1.40,1.01,-0.50,-0.49,-0.49
344.30,-1.93,-1.93,-1.46,-1.46,1.45,1.43,1.00,-0.48,-0.47,-0.47
347.75,-1.92,-1.92,-1.47,-1.47,1.48,1.45,0.99,-0.44,-0.45,-0.45
351.23,-1.92,-1.92,-1.49,-1.49,1.50,1.48,0.98,-0.42,-0.42,-0.43
354.74,-1.92,-1.93,-1.50,-1.51,1.52,1.50,0.97,-0.40,-0.41,-0.42
358.28,-1.94,-1.94,-1.54,-1.54,1.54,1.52,0.96,-0.40,-0.40,-0.40
361.87,-1.95,-1.95,-1.57,-1.56,1.56,1.54,0.95,-0.39,-0.39,-0.38
365.49,-1.95,-1.96,-1.58,-1.58,1.58,1.56,0.95,-0.37,-0.38,-0.37
369.14,-1.96,-1.96,-1.60,-1.59,1.59,1.57,0.94,-0.37,-0.36,-0.36
372.83,-1.95,-1.95,-1.60,-1.60,1.60,1.58,0.94,-0.35,-0.35,-0.35
376.56,-1.94,-1.94,-1.60,-1.61,1.60,1.59,0.93,-0.34,-0.34,-0.34
380.33,-1.92,-1.92,-1.61,-1.61,1.60,1.58,0.93,-0.32,-0.32,-0.31
384.13,-1.90,-1.90,-1.60,-1.59,1.59,1.57,0.93,-0.31,-0.31,-0.30
387.97,-1.87,-1.87,-1.58,-1.58,1.57,1.55,0.92,-0.30,-0.29,-0.29
391.85,-1.83,-1.83,-1.55,-1.55,1.55,1.53,0.92,-0.28,-0.28,-0.28
395.77,-1.79,-1.79,-1.52,-1.52,1.52,1.49,0.92,-0.27,-0.27,-0.27
399.73,-1.75,-1.75,-1.49,-1.49,1.49,1.46,0.92,-0.26,-0.26,-0.26
403.72,-1.70,-1.70,-1.45,-1.45,1.45,1.42,0.92,-0.25,-0.25,-0.25
407.76,-1.65,-1.65,-1.41,-1.41,1.41,1.38,0.92,-0.24,-0.24,-0.24
411.84,-1.59,-1.59,-1.37,-1.37,1.37,1.34,0.92,-0.22,-0.23,-0.22
415.96,-1.54,-1.54,-1.33,-1.32,1.32,1.29,0.92,-0.22,-0.22,-0.21
420.12,-1.48,-1.48,-1.28,-1.28,1.28,1.25,0.93,-0.21,-0.20,-0.20
424.32,-1.42,-1.42,-1.22,-1.23,1.23,1.21,0.93,-0.19,-0.19,-0.20
428.56,-1.36,-1.36,-1.17,-1.18,1.18,1.17,0.93,-0.18,-0.19,-0.19
432.85,-1.31,-1.31,-1.13,-1.13,1.13,1.13,0.93,-0.18,-0.18,-0.18
437.18,-1.25,-1.25,-1.08,-1.08,1.08,1.09,0.94,-0.17,-0.16,-0.17
441.55,-1.19,-1.19,-1.04,-1.04,1.04,1.05,0.94,-0.15,-0.15,-0.15
445.96,-1.13,-1.13,-0.99,-0.99,1.00,1.01,0.94,-0.13,-0.14,-0.14
450.42,-1.08,-1.08,-0.95,-0.96,0.96,0.97,0.94,-0.12,-0.12,-0.13
454.93,-1.04,-1.04,-0.93,-0.92,0.92,0.94,0.95,-0.12,-0.11,-0.11
459.48,-0.99,-0.99,-0.89,-0.89,0.89,0.90,0.95,-0.10,-0.10,-0.10
464.07,-0.94,-0.94,-0.86,-0.86,0.85,0.87,0.95,-0.09,-0.09,-0.08
468.71,-0.89,-0.89,-0.83,-0.82,0.82,0.84,0.95,-0.07,-0.07,-0.06
473.40,-0.84,-0.84,-0.78,-0.79,0.79,0.80,0.95,-0.05,-0.06,-0.06
478.13,-0.80,-0.80,-0.76,-0.76,0.76,0.77,0.95,-0.04,-0.04,-0.04
482.91,-0.75,-0.75,-0.72,-0.72,0.72,0.74,0.95,-0.03,-0.03,-0.03
487.74,-0.69,-0.69,-0.68,-0.69,0.69,0.71,0.95,-0.00,-0.01,-0.01
492.62,-0.64,-0.64,-0.65,-0.65,0.65,0.67,0.95,0.01,0.01,0.01
497.55,-0.59,-0.59,-0.61,-0.61,0.61,0.64,0.94,0.02,0.03,0.02
502.52,-0.54,-0.54,-0.58,-0.58,0.58,0.61,0.94,0.04,0.04,0.04
507.55,-0.49,-0.49,-0.54,-0.54,0.54,0.57,0.93,0.05,0.05,0.05
