frequency,raw,smoothed,error,error_smoothed,equalization,parametric_eq,fixed_band_eq,equalized_raw,equalized_smoothed,target
20.00,7.36,7.36,2.49,2.49,-2.49,-3.17,-1.38,4.87,4.87,4.87
20.20,7.39,7.39,2.52,2.52,-2.51,-3.17,-1.42,4.88,4.88,4.87
20.40,7.42,7.42,2.55,2.54,-2.54,-3.17,-1.46,4.88,4.88,4.87
20.61,7.44,7.44,2.57,2.57,-2.57,-3.17,-1.50,4.87,4.88,4.87
20.81,7.47,7.47,2.60,2.59,-2.60,-3.18,-1.55,4.87,4.87,4.87
21.02,7.49,7.49,2.62,2.62,-2.62,-3.18,-1.59,4.87,4.86,4.87
21.23,7.50,7.50,2.65,2.65,-2.65,-3.18,-1.64,4.85,4.85,4.85
21.44,7.52,7.52,2.68,2.68,-2.68,-3.19,-1.69,4.84,4.84,4.84
21.66,7.53,7.53,2.71,2.71,-2.71,-3.19,-1.73,4.82,4.82,4.82
21.87,7.54,7.54,2.74,2.74,-2.73,-3.19,-1.78,4.81,4.81,4.80
22.09,7.55,7.55,2.76,2.76,-2.76,-3.19,-1.83,4.79,4.78,4.79
22.31,7.55,7.55,2.79,2.79,-2.79,-3.20,-1.89,4.76,4.76,4.76
22.54,7.55,7.55,2.81,2.81,-2.82,-3.20,-1.94,4.73,4.74,4.74
22.76,7.55,7.55,2.83,2.84,-2.84,-3.21,-2.00,4.71,4.71,4.72
22.99,7.55,7.55,2.86,2.86,-2.86,-3.21,-2.05,4.69,4.69,4.69
23.22,7.54,7.54,2.88,2.88,-2.88,-3.21,-2.11,4.66,4.67,4.66
23.45,7.54,7.54,2.90,2.90,-2.89,-3.22,-2.17,4.65,4.64,4.64
23.69,7.53,7.53,2.91,2.91,-2.91,-3.22,-2.23,4.62,4.62,4.62
23.92,7.53,7.53,2.93,2.92,-2.92,-3.22,-2.29,4.61,4.61,4.60
24.16,7.52,7.52,2.93,2.93,-2.93,-3.23,-2.36,4.59,4.58,4.59
24.40,7.51,7.51,2.94,2.94,-2.94,-3.23,-2.42,4.57,4.57,4.57
24.65,7.50,7.50,2.95,2.95,-2.95,-3.24,-2.48,4.55,4.55,4.55
24.89,7.50,7.50,2.97,2.96,-2.96,-3.24,-2.55,4.54,4.53,4.53
25.14,7.49,7.49,2.97,2.97,-2.97,-3.25,-2.62,4.52,4.52,4.52
25.39,7.48,7.48,2.98,2.98,-2.98,-3.25,-2.68,4.50,4.50,4.50
25.65,7.47,7.47,2.98,2.99,-2.99,-3.25,-2.75,4.48,4.48,4.49
25.91,7.46,7.46,3.00,3.00,-3.00,-3.26,-2.82,4.46,4.46,4.46
26.16,7.45,7.45,3.00,3.00,-3.00,-3.26,-2.88,4.45,4.45,4.45
26.43,7.44,7.44,3.01,3.01,-3.01,-3.27,-2.95,4.43,4.43,4.43
26.69,7.43,7.43,3.02,3.01,-3.01,-3.27,-3.02,4.42,4.42,4.41
26.96,7.42,7.42,3.02,3.02,-3.02,-3.28,-3.08,4.40,4.40,4.40
27.23,7.41,7.41,3.02,3.02,-3.02,-3.28,-3.15,4.39,4.39,4.39
27.50,7.40,7.40,3.02,3.02,-3.03,-3.29,-3.21,4.37,4.37,4.38
27.77,7.39,7.39,3.03,3.03,-3.03,-3.30,-3.27,4.36,4.36,4.36
28.05,7.38,7.38,3.03,3.04,-3.04,-3.30,-3.33,4.34,4.34,4.35
28.33,7.37,7.37,3.05,3.04,-3.04,-3.31,-3.39,4.33,4.33,4.32
28.62,7.36,7.36,3.05,3.05,-3.05,-3.31,-3.45,4.31,4.31,4.31
28.90,7.36,7.36,3.06,3.06,-3.06,-3.32,-3.50,4.30,4.30,4.30
29.19,7.35,7.35,3.07,3.07,-3.07,-3.33,-3.55,4.28,4.29,4.28
29.48,7.35,7.35,3.07,3.07,-3.07,-3.33,-3.59,4.28,4.28,4.28
29.78,7.35,7.35,3.08,3.08,-3.08,-3.34,-3.64,4.27,4.26,4.27
30.08,7.34,7.34,3.09,3.09,-3.09,-3.35,-3.67,4.25,4.25,4.25
30.38,7.34,7.34,3.11,3.10,-3.10,-3.35,-3.71,4.24,4.24,4.23
30.68,7.33,7.33,3.11,3.11,-3.11,-3.36,-3.74,4.22,4.22,4.22
30.99,7.33,7.33,3.13,3.13,-3.12,-3.37,-3.77,4.21,4.20,4.20
31.30,7.32,7.32,3.13,3.14,-3.14,-3.38,-3.79,4.18,4.19,4.19
31.61,7.32,7.32,3.15,3.15,-3.15,-3.38,-3.81,4.17,4.17,4.17
31.93,7.32,7.32,3.17,3.17,-3.17,-3.39,-3.82,4.15,4.15,4.15
32.24,7.31,7.31,3.19,3.18,-3.18,-3.40,-3.83,4.13,4.13,4.12
32.57,7.31,7.31,3.20,3.20,-3.20,-3.41,-3.84,4.11,4.11,4.11
32.89,7.31,7.31,3.22,3.22,-3.22,-3.42,-3.84,4.09,4.09,4.09
33.22,7.31,7.31,3.25,3.24,-3.24,-3.43,-3.84,4.07,4.07,4.06
33.55,7.31,7.31,3.26,3.26,-3.27,-3.44,-3.83,4.04,4.04,4.05
33.89,7.31,7.31,3.28,3.29,-3.29,-3.44,-3.83,4.02,4.02,4.03
34.23,7.32,7.32,3.32,3.31,-3.31,-3.45,-3.82,4.01,4.00,4.00
34.57,7.32,7.32,3.34,3.34,-3.34,-3.46,-3.80,3.98,3.98,3.98
34.92,7.32,7.32,3.36,3.36,-3.36,-3.47,-3.79,3.96,3.96,3.96
35.27,7.33,7.33,3.39,3.39,-3.39,-3.49,-3.77,3.94,3.94,3.94
35.62,7.33,7.33,3.41,3.41,-3.41,-3.50,-3.76,3.92,3.92,3.92
35.97,7.34,7.34,3.44,3.44,-3.44,-3.51,-3.74,3.90,3.90,3.90
36.33,7.35,7.35,3.47,3.47,-3.47,-3.52,-3.72,3.88,3.88,3.88
36.70,7.35,7.35,3.49,3.50,-3.49,-3.53,-3.70,3.86,3.86,3.86
37.06,7.36,7.36,3.53,3.52,-3.52,-3.54,-3.68,3.84,3.84,3.83
37.43,7.37,7.37,3.55,3.55,-3.55,-3.56,-3.66,3.82,3.82,3.82
37.81,7.37,7.37,3.57,3.58,-3.58,-3.57,-3.65,3.79,3.80,3.80
38.19,7.38,7.38,3.61,3.60,-3.61,-3.58,-3.63,3.77,3.77,3.77
38.57,7.39,7.39,3.63,3.63,-3.64,-3.60,-3.61,3.75,3.75,3.76
38.95,7.39,7.39,3.66,3.66,-3.66,-3.61,-3.60,3.73,3.73,3.73
39.34,7.40,7.40,3.69,3.69,-3.69,-3.63,-3.59,3.71,3.71,3.71
39.74,7.41,7.41,3.73,3.72,-3.72,-3.64,-3.58,3.69,3.69,3.68
40.14,7.42,7.42,3.74,3.75,-3.75,-3.66,-3.57,3.67,3.67,3.68
40.54,7.42,7.42,3.77,3.77,-3.77,-3.68,-3.56,3.65,3.65,3.65
40.94,7.43,7.43,3.80,3.79,-3.79,-3.69,-3.55,3.64,3.63,3.63
41.35,7.43,7.43,3.82,3.82,-3.82,-3.71,-3.55,3.61,3.61,3.61
41.76,7.44,7.44,3.84,3.84,-3.84,-3.73,-3.55,3.60,3.60,3.60
42.18,7.44,7.44,3.85,3.86,-3.86,-3.75,-3.55,3.58,3.58,3.59
42.60,7.45,7.45,3.89,3.88,-3.88,-3.77,-3.56,3.57,3.57,3.56
43.03,7.45,7.45,3.90,3.90,-3.90,-3.79,-3.57,3.55,3.54,3.55
43.46,7.45,7.45,3.93,3.93,-3.93,-3.81,-3.57,3.52,3.52,3.52
43.90,7.45,7.45,3.95,3.95,-3.95,-3.83,-3.59,3.50,3.50,3.50
44.33,7.45,7.45,3.97,3.97,-3.97,-3.85,-3.60,3.48,3.48,3.48
44.78,7.45,7.45,3.99,4.00,-4.00,-3.88,-3.62,3.45,3.46,3.46
45.23,7.46,7.46,4.03,4.02,-4.02,-3.90,-3.64,3.44,3.44,3.43
45.68,7.46,7.46,4.05,4.04,-4.04,-3.92,-3.67,3.42,3.42,3.41
46.13,7.46,7.46,4.06,4.06,-4.05,-3.95,-3.69,3.41,3.41,3.40
46.60,7.45,7.45,4.06,4.07,-4.07,-3.97,-3.72,3.38,3.38,3.39
47.06,7.45,7.45,4.08,4.08,-4.09,-4.00,-3.76,3.36,3.36,3.37
47.53,7.45,7.45,4.10,4.10,-4.10,-4.02,-3.79,3.35,3.34,3.35
48.01,7.44,7.44,4.10,4.11,-4.12,-4.04,-3.83,3.32,3.32,3.34
48.49,7.44,7.44,4.13,4.13,-4.14,-4.07,-3.87,3.30,3.30,3.31
48.97,7.43,7.43,4.16,4.16,-4.16,-4.09,-3.91,3.27,3.28,3.27
49.46,7.43,7.43,4.19,4.18,-4.17,-4.12,-3.95,3.26,3.25,3.24
49.96,7.42,7.42,4.21,4.20,-4.19,-4.14,-4.00,3.23,3.23,3.21
50.46,7.41,7.41,4.20,4.21,-4.21,-4.16,-4.04,3.20,3.20,3.21
50.96,7.40,7.40,4.21,4.22,-4.22,-4.19,-4.09,3.18,3.18,3.19
51.47,7.39,7.39,4.24,4.23,-4.23,-4.21,-4.14,3.16,3.16,3.15
51.99,7.38,7.38,4.25,4.25,-4.25,-4.23,-4.19,3.13,3.14,3.13
52.51,7.37,7.37,4.25,4.26,-4.26,-4.25,-4.24,3.11,3.11,3.12
53.03,7.36,7.36,4.27,4.27,-4.27,-4.26,-4.29,3.09,3.09,3.09
53.56,7.34,7.34,4.27,4.28,-4.28,-4.28,-4.34,3.06,3.07,3.07
54.10,7.33,7.33,4.29,4.29,-4.29,-4.29,-4.40,3.04,3.04,3.04
54.64,7.32,7.32,4.30,4.30,-4.30,-4.31,-4.45,3.02,3.01,3.02
55.18,7.30,7.30,4.31,4.31,-4.31,-4.32,-4.50,2.99,2.99,2.99
55.74,7.29,7.29,4.33,4.33,-4.32,-4.33,-4.54,2.97,2.97,2.96
56.29,7.28,7.28,4.34,4.34,-4.34,-4.34,-4.59,2.94,2.94,2.94
56.86,7.26,7.26,4.34,4.34,-4.35,-4.34,-4.63,2.91,2.92,2.92
57.42,7.24,7.24,4.35,4.35,-4.35,-4.35,-4.67,2.89,2.89,2.89
58.00,7.23,7.23,4.36,4.36,-4.36,-4.35,-4.71,2.87,2.87,2.87
58.58,7.21,7.21,4.37,4.37,-4.36,-4.36,-4.75,2.85,2.85,2.84
59.16,7.19,7.19,4.37,4.37,-4.37,-4.36,-4.78,2.82,2.82,2.82
59.76,7.16,7.16,4.36,4.37,-4.37,-4.36,-4.80,2.79,2.79,2.80
60.35,7.14,7.14,4.37,4.37,-4.38,-4.36,-4.83,2.76,2.77,2.77
60.96,7.12,7.12,4.37,4.37,-4.38,-4.37,-4.84,2.74,2.74,2.75
61.57,7.09,7.09,4.38,4.38,-4.38,-4.37,-4.86,2.71,2.71,2.71
62.18,7.06,7.06,4.38,4.38,-4.38,-4.37,-4.86,2.68,2.68,2.68
62.80,7.04,7.04,4.39,4.39,-4.39,-4.37,-4.87,2.65,2.65,2.65
63.43,7.01,7.01,4.39,4.39,-4.39,-4.37,-4.86,2.62,2.62,2.62
64.07,6.99,6.99,4.40,4.39,-4.39,-4.37,-4.86,2.60,2.60,2.59
64.71,6.96,6.96,4.39,4.39,-4.39,-4.37,-4.85,2.57,2.57,2.57
65.35,6.93,6.93,4.38,4.38,-4.39,-4.37,-4.83,2.54,2.55,2.55
66.01,6.90,6.90,4.37,4.38,-4.38,-4.37,-4.81,2.52,2.52,2.53
66.67,6.88,6.88,4.38,4.38,-4.38,-4.37,-4.79,2.50,2.50,2.50
67.33,6.85,6.85,4.37,4.37,-4.37,-4.37,-4.76,2.48,2.48,2.48
68.01,6.82,6.82,4.37,4.37,-4.37,-4.37,-4.73,2.45,2.45,2.45
68.69,6.79,6.79,4.36,4.37,-4.36,-4.37,-4.69,2.43,2.43,2.43
69.37,6.76,6.76,4.36,4.36,-4.36,-4.37,-4.65,2.40,2.40,2.40
70.07,6.73,6.73,4.36,4.36,-4.36,-4.37,-4.61,2.37,2.37,2.37
70.77,6.70,6.70,4.35,4.36,-4.35,-4.37,-4.57,2.35,2.35,2.35
71.48,6.67,6.67,4.36,4.35,-4.35,-4.37,-4.53,2.32,2.32,2.31
72.19,6.64,6.64,4.35,4.35,-4.35,-4.37,-4.49,2.29,2.28,2.29
72.91,6.60,6.60,4.35,4.35,-4.35,-4.37,-4.44,2.25,2.25,2.25
73.64,6.57,6.57,4.35,4.35,-4.35,-4.38,-4.40,2.22,2.22,2.22
74.38,6.54,6.54,4.35,4.36,-4.36,-4.38,-4.35,2.18,2.18,2.19
75.12,6.51,6.51,4.37,4.36,-4.36,-4.38,-4.31,2.15,2.15,2.14
75.87,6.48,6.48,4.37,4.37,-4.37,-4.38,-4.27,2.11,2.11,2.11
76.63,6.45,6.45,4.37,4.37,-4.37,-4.38,-4.22,2.08,2.08,2.08
77.40,6.41,6.41,4.37,4.38,-4.38,-4.39,-4.18,2.03,2.04,2.04
78.17,6.38,6.38,4.39,4.38,-4.38,-4.40,-4.14,2.00,2.00,1.99
78.95,6.35,6.35,4.38,4.39,-4.39,-4.40,-4.11,1.96,1.96,1.97
79.74,6.31,6.31,4.39,4.39,-4.39,-4.41,-4.07,1.92,1.92,1.92
80.54,6.28,6.28,4.40,4.40,-4.40,-4.42,-4.04,1.88,1.88,1.88
81.35,6.24,6.24,4.41,4.41,-4.41,-4.43,-4.01,1.83,1.83,1.83
82.16,6.21,6.21,4.42,4.42,-4.42,-4.45,-3.98,1.79,1.79,1.79
82.98,6.17,6.17,4.42,4.43,-4.42,-4.46,-3.95,1.75,1.75,1.75
83.81,6.13,6.13,4.44,4.43,-4.43,-4.48,-3.93,1.70,1.70,1.69
84.65,6.09,6.09,4.44,4.44,-4.44,-4.49,-3.91,1.65,1.65,1.65
85.50,6.05,6.05,4.44,4.45,-4.45,-4.51,-3.89,1.60,1.60,1.61
86.35,6.01,6.01,4.45,4.45,-4.45,-4.53,-3.88,1.56,1.56,1.56
87.22,5.97,5.97,4.46,4.46,-4.46,-4.54,-3.87,1.51,1.51,1.51
88.09,5.93,5.93,4.47,4.47,-4.47,-4.56,-3.86,1.46,1.46,1.46
88.97,5.89,5.89,4.47,4.48,-4.48,-4.58,-3.85,1.41,1.41,1.42
89.86,5.85,5.85,4.48,4.48,-4.48,-4.59,-3.85,1.37,1.36,1.37
90.76,5.80,5.80,4.50,4.49,-4.49,-4.60,-3.85,1.31,1.31,1.30
91.66,5.76,5.76,4.50,4.50,-4.50,-4.61,-3.85,1.26,1.26,1.26
92.58,5.71,5.71,4.51,4.50,-4.50,-4.62,-3.86,1.21,1.21,1.20
93.51,5.66,5.66,4.50,4.50,-4.50,-4.63,-3.87,1.16,1.16,1.16
94.44,5.61,5.61,4.50,4.50,-4.51,-4.63,-3.88,1.10,1.10,1.11
95.39,5.56,5.56,4.50,4.50,-4.51,-4.63,-3.89,1.05,1.05,1.06
96.34,5.50,5.50,4.51,4.51,-4.51,-4.63,-3.91,0.99,0.99,0.99
97.30,5.45,5.45,4.51,4.51,-4.51,-4.63,-3.93,0.94,0.94,0.94
98.28,5.39,5.39,4.51,4.51,-4.51,-4.62,-3.95,0.88,0.88,0.88
99.26,5.33,5.33,4.52,4.51,-4.51,-4.61,-3.97,0.82,0.82,0.82
100.25,5.27,5.27,4.51,4.51,-4.51,-4.60,-4.00,0.76,0.76,0.76
101.25,5.20,5.20,4.50,4.51,-4.51,-4.58,-4.02,0.69,0.70,0.70
102.27,5.14,5.14,4.50,4.50,-4.50,-4.56,-4.05,0.64,0.64,0.64
103.29,5.07,5.07,4.50,4.50,-4.49,-4.54,-4.08,0.58,0.58,0.57
104.32,5.00,5.00,4.49,4.49,-4.49,-4.51,-4.11,0.51,0.52,0.51
105.37,4.93,4.93,4.47,4.47,-4.48,-4.49,-4.14,0.45,0.45,0.46
106.42,4.85,4.85,4.46,4.46,-4.46,-4.45,-4.17,0.39,0.39,0.39
107.48,4.78,4.78,4.45,4.45,-4.45,-4.42,-4.20,0.33,0.33,0.33
108.56,4.70,4.70,4.44,4.44,-4.44,-4.38,-4.23,0.26,0.26,0.26
109.64,4.62,4.62,4.43,4.42,-4.42,-4.35,-4.26,0.20,0.20,0.19
110.74,4.53,4.53,4.39,4.40,-4.40,-4.30,-4.28,0.13,0.13,0.14
111.85,4.45,4.45,4.38,4.38,-4.38,-4.26,-4.31,0.07,0.06,0.07
112.97,4.36,4.36,4.37,4.36,-4.36,-4.21,-4.33,-0.00,-0.00,-0.01
114.10,4.27,4.27,4.34,4.34,-4.34,-4.17,-4.35,-0.07,-0.07,-0.07
115.24,4.17,4.17,4.30,4.31,-4.31,-4.11,-4.37,-0.14,-0.14,-0.13
116.39,4.08,4.08,4.29,4.28,-4.28,-4.06,-4.38,-0.20,-0.20,-0.21
117.55,3.98,3.98,4.25,4.25,-4.25,-4.01,-4.39,-0.27,-0.27,-0.27
118.73,3.88,3.88,4.22,4.22,-4.21,-3.95,-4.40,-0.33,-0.33,-0.34
119.92,3.78,3.78,4.17,4.17,-4.17,-3.90,-4.39,-0.39,-0.39,-0.39
121.12,3.68,3.68,4.13,4.13,-4.13,-3.84,-4.39,-0.45,-0.45,-0.45
122.33,3.57,3.57,4.08,4.09,-4.08,-3.78,-4.38,-0.51,-0.51,-0.51
123.55,3.47,3.47,4.04,4.04,-4.04,-3.72,-4.37,-0.57,-0.57,-0.57
124.79,3.36,3.36,3.99,3.98,-3.99,-3.66,-4.34,-0.63,-0.63,-0.63
126.03,3.25,3.25,3.93,3.93,-3.94,-3.59,-4.32,-0.69,-0.68,-0.68
127.29,3.14,3.14,3.88,3.88,-3.88,-3.53,-4.29,-0.74,-0.74,-0.74
128.57,3.03,3.03,3.84,3.83,-3.83,-3.47,-4.25,-0.80,-0.80,-0.81
129.85,2.92,2.92,3.78,3.77,-3.77,-3.40,-4.21,-0.85,-0.85,-0.86
131.15,2.80,2.80,3.70,3.71,-3.71,-3.34,-4.16,-0.91,-0.91,-0.90
132.46,2.69,2.69,3.65,3.65,-3.65,-3.27,-4.11,-0.96,-0.96,-0.96
133.79,2.59,2.58,3.59,3.59,-3.59,-3.21,-4.05,-1.00,-1.01,-1.00
135.12,2.48,2.48,3.53,3.53,-3.53,-3.14,-3.99,-1.05,-1.05,-1.05
136.48,2.37,2.37,3.46,3.46,-3.46,-3.08,-3.92,-1.09,-1.09,-1.09
137.84,2.27,2.27,3.39,3.40,-3.40,-3.02,-3.85,-1.13,-1.13,-1.12
139.22,2.17,2.17,3.35,3.34,-3.34,-2.95,-3.78,-1.17,-1.17,-1.18
140.61,2.07,2.07,3.29,3.28,-3.28,-2.89,-3.70,-1.21,-1.21,-1.22
142.02,1.98,1.98,3.21,3.22,-3.22,-2.83,-3.62,-1.24,-1.24,-1.23
143.44,1.89,1.89,3.15,3.16,-3.16,-2.76,-3.54,-1.27,-1.27,-1.26
144.87,1.80,1.80,3.10,3.10,-3.11,-2.70,-3.46,-1.31,-1.30,-1.30
146.32,1.72,1.72,3.05,3.05,-3.05,-2.64,-3.37,-1.33,-1.33,-1.33
147.78,1.64,1.64,2.99,2.99,-2.99,-2.58,-3.29,-1.36,-1.36,-1.35
149.26,1.55,1.56,2.93,2.94,-2.94,-2.52,-3.20,-1.39,-1.38,-1.38
150.75,1.48,1.47,2.90,2.89,-2.89,-2.46,-3.11,-1.41,-1.41,-1.42
152.26,1.39,1.39,2.83,2.83,-2.83,-2.40,-3.03,-1.44,-1.44,-1.44
153.78,1.31,1.31,2.78,2.78,-2.78,-2.35,-2.94,-1.47,-1.47,-1.47
155.32,1.22,1.22,2.71,2.71,-2.72,-2.29,-2.85,-1.50,-1.50,-1.49
156.88,1.13,1.13,2.65,2.65,-2.65,-2.23,-2.76,-1.52,-1.52,-1.52
158.44,1.04,1.04,2.59,2.59,-2.58,-2.18,-2.68,-1.54,-1.55,-1.55
160.03,0.94,0.94,2.52,2.52,-2.51,-2.12,-2.59,-1.57,-1.57,-1.58
161.63,0.83,0.83,2.44,2.44,-2.43,-2.07,-2.51,-1.60,-1.60,-1.61
163.24,0.72,0.72,2.35,2.35,-2.35,-2.02,-2.42,-1.63,-1.63,-1.63
164.88,0.60,0.60,2.25,2.26,-2.26,-1.97,-2.34,-1.66,-1.66,-1.65
166.53,0.49,0.48,2.17,2.17,-2.17,-1.92,-2.26,-1.68,-1.69,-1.68
168.19,0.36,0.36,2.08,2.08,-2.08,-1.87,-2.17,-1.72,-1.72,-1.72
169.87,0.24,0.24,1.99,1.99,-1.99,-1.82,-2.09,-1.75,-1.75,-1.75
171.57,0.12,0.12,1.90,1.90,-1.90,-1.77,-2.02,-1.78,-1.78,-1.78
173.29,0.00,-0.00,1.80,1.81,-1.81,-1.73,-1.94,-1.81,-1.81,-1.80
175.02,-0.12,-0.12,1.72,1.72,-1.72,-1.68,-1.86,-1.84,-1.84,-1.84
176.77,-0.24,-0.24,1.64,1.64,-1.64,-1.64,-1.79,-1.88,-1.88,-1.88
178.54,-0.35,-0.35,1.57,1.56,-1.57,-1.59,-1.71,-1.92,-1.92,-1.92
180.32,-0.46,-0.46,1.49,1.49,-1.50,-1.55,-1.64,-1.96,-1.95,-1.95
182.13,-0.56,-0.56,1.42,1.42,-1.43,-1.51,-1.57,-1.99,-1.99,-1.98
183.95,-0.66,-0.66,1.36,1.36,-1.37,-1.47,-1.50,-2.03,-2.03,-2.02
185.79,-0.75,-0.75,1.31,1.31,-1.31,-1.43,-1.43,-2.06,-2.06,-2.06
187.65,-0.84,-0.84,1.26,1.26,-1.25,-1.39,-1.37,-2.09,-2.09,-2.10
189.52,-0.92,-0.92,1.21,1.20,-1.20,-1.35,-1.30,-2.12,-2.12,-2.13
191.42,-1.00,-1.00,1.16,1.15,-1.15,-1.31,-1.24,-2.15,-2.15,-2.16
193.33,-1.08,-1.08,1.10,1.10,-1.11,-1.28,-1.17,-2.19,-2.18,-2.18
195.27,-1.15,-1.15,1.05,1.05,-1.06,-1.24,-1.11,-2.21,-2.21,-2.20
197.22,-1.22,-1.22,1.01,1.02,-1.02,-1.20,-1.05,-2.24,-2.24,-2.23
199.19,-1.29,-1.29,0.99,0.98,-0.98,-1.17,-0.99,-2.27,-2.26,-2.28
201.18,-1.35,-1.35,0.95,0.95,-0.94,-1.13,-0.94,-2.29,-2.29,-2.30
203.19,-1.41,-1.41,0.90,0.90,-0.90,-1.10,-0.88,-2.31,-2.31,-2.31
205.23,-1.47,-1.47,0.87,0.86,-0.86,-1.07,-0.82,-2.33,-2.34,-2.34
207.28,-1.53,-1.53,0.81,0.83,-0.83,-1.04,-0.77,-2.36,-2.36,-2.34
209.35,-1.58,-1.58,0.80,0.80,-0.80,-1.00,-0.72,-2.38,-2.38,-2.38
211.44,-1.62,-1.62,0.78,0.77,-0.77,-0.97,-0.67,-2.39,-2.39,-2.40
213.56,-1.67,-1.67,0.74,0.74,-0.74,-0.94,-0.62,-2.41,-2.41,-2.41
215.69,-1.71,-1.71,0.71,0.71,-0.71,-0.91,-0.57,-2.42,-2.42,-2.42
217.85,-1.75,-1.75,0.68,0.69,-0.69,-0.88,-0.52,-2.44,-2.44,-2.43
220.03,-1.78,-1.78,0.67,0.67,-0.67,-0.85,-0.47,-2.45,-2.45,-2.45
222.23,-1.81,-1.81,0.65,0.65,-0.64,-0.83,-0.43,-2.45,-2.45,-2.46
224.45,-1.84,-1.84,0.62,0.63,-0.62,-0.80,-0.39,-2.46,-2.46,-2.46
226.70,-1.86,-1.86,0.61,0.60,-0.60,-0.77,-0.35,-2.46,-2.46,-2.47
228.96,-1.89,-1.89,0.58,0.58,-0.58,-0.74,-0.31,-2.47,-2.46,-2.47
231.25,-1.91,-1.91,0.55,0.55,-0.55,-0.71,-0.27,-2.46,-2.46,-2.46
233.57,-1.92,-1.92,0.53,0.53,-0.53,-0.69,-0.23,-2.45,-2.46,-2.45
235.90,-1.94,-1.94,0.51,0.51,-0.51,-0.66,-0.20,-2.45,-2.45,-2.45
238.26,-1.95,-1.95,0.50,0.49,-0.49,-0.63,-0.17,-2.44,-2.44,-2.45
240.64,-1.96,-1.96,0.47,0.47,-0.47,-0.61,-0.14,-2.43,-2.43,-2.43
243.05,-1.97,-1.97,0.45,0.45,-0.45,-0.58,-0.11,-2.42,-2.41,-2.42
245.48,-1.97,-1.97,0.42,0.42,-0.42,-0.55,-0.08,-2.39,-2.40,-2.39
247.93,-1.98,-1.98,0.40,0.40,-0.40,-0.53,-0.06,-2.38,-2.38,-2.38
250.41,-1.98,-1.98,0.39,0.38,-0.38,-0.50,-0.04,-2.36,-2.36,-2.37
252.92,-1.98,-1.98,0.36,0.36,-0.36,-0.48,-0.02,-2.34,-2.34,-2.34
255.45,-1.98,-1.98,0.33,0.34,-0.34,-0.45,0.00,-2.32,-2.32,-2.31
258.00,-1.98,-1.98,0.31,0.31,-0.32,-0.42,0.02,-2.30,-2.30,-2.29
260.58,-1.98,-1.98,0.30,0.29,-0.29,-0.40,0.03,-2.27,-2.27,-2.28
263.19,-1.98,-1.98,0.27,0.28,-0.27,-0.37,0.05,-2.25,-2.25,-2.25
265.82,-1.98,-1.98,0.25,0.25,-0.25,-0.34,0.06,-2.23,-2.23,-2.23
268.48,-1.98,-1.98,0.23,0.23,-0.23,-0.32,0.07,-2.21,-2.21,-2.21
271.16,-1.98,-1.98,0.19,0.20,-0.20,-0.29,0.08,-2.18,-2.18,-2.17
273.87,-1.97,-1.97,0.19,0.18,-0.18,-0.26,0.08,-2.15,-2.16,-2.16
276.61,-1.97,-1.97,0.15,0.16,-0.16,-0.23,0.09,-2.13,-2.13,-2.12
279.38,-1.97,-1.97,0.14,0.14,-0.14,-0.20,0.10,-2.11,-2.11,-2.11
282.17,-1.97,-1.97,0.11,0.12,-0.12,-0.17,0.10,-2.09,-2.08,-2.08
284.99,-1.96,-1.96,0.10,0.09,-0.09,-0.14,0.10,-2.05,-2.06,-2.06
287.84,-1.96,-1.96,0.07,0.07,-0.07,-0.11,0.10,-2.03,-2.03,-2.03
290.72,-1.96,-1.96,0.04,0.05,-0.05,-0.08,0.10,-2.01,-2.00,-2.00
293.63,-1.95,-1.95,0.03,0.02,-0.02,-0.05,0.10,-1.97,-1.98,-1.98
296.57,-1.95,-1.95,-0.00,-0.00,0.00,-0.01,0.10,-1.95,-1.95,-1.95
299.53,-1.95,-1.95,-0.03,-0.03,0.03,0.02,0.10,-1.92,-1.92,-1.92
302.53,-1.95,-1.95,-0.05,-0.06,0.06,0.05,0.10,-1.89,-1.89,-1.90
305.55,-1.94,-1.94,-0.09,-0.09,0.09,0.09,0.10,-1.85,-1.86,-1.85
308.61,-1.94,-1.94,-0.12,-0.12,0.12,0.13,0.10,-1.82,-1.82,-1.82
311.69,-1.94,-1.94,-0.15,-0.15,0.15,0.16,0.09,-1.79,-1.79,-1.79
314.81,-1.93,-1.93,-0.18,-0.18,0.18,0.20,0.09,-1.75,-1.76,-1.75
317.96,-1.93,-1.93,-0.21,-0.21,0.21,0.24,0.09,-1.72,-1.72,-1.72
321.14,-1.93,-1.93,-0.23,-0.23,0.24,0.27,0.08,-1.69,-1.69,-1.70
324.35,-1.93,-1.93,-0.26,-0.26,0.27,0.31,0.08,-1.66,-1.66,-1.67
327.59,-1.93,-1.93,-0.30,-0.29,0.29,0.35,0.08,-1.64,-1.64,-1.63
330.87,-1.93,-1.93,-0.32,-0.32,0.32,0.38,0.07,-1.61,-1.61,-1.61
334.18,-1.93,-1.93,-0.34,-0.35,0.34,0.42,0.07,-1.59,-1.59,-1.59
337.52,-1.93,-1.93,-0.37,-0.37,0.37,0.45,0.06,-1.56,-1.56,-1.56
340.90,-1.93,-1.93,-0.40,-0.39,0.39,0.48,0.06,-1.54,-1.54,-1.53
344.30,-1.93,-1.93,-0.41,-0.41,0.41,0.51,0.06,-1.52,-1.51,-1.52
347.75,-1.92,-1.92,-0.43,-0.43,0.44,0.53,0.05,-1.48,-1.49,-1.49
351.23,-1.92,-1.92,-0.45,-0.45,0.46,0.55,0.05,-1.46,-1.46,-1.47
354.74,-1.92,-1.93,-0.47,-0.47,0.48,0.57,0.05,-1.44,-1.44,-1.45
358.28,-1.94,-1.94,-0.51,-0.50,0.51,0.58,0.04,-1.43,-1.43,-1.43
361.87,-1.95,-1.95,-0.53,-0.53,0.53,0.59,0.04,-1.42,-1.42,-1.42
365.49,-1.95,-1.96,-0.56,-0.56,0.55,0.60,0.04,-1.40,-1.40,-1.39
369.14,-1.96,-1.96,-0.58,-0.58,0.57,0.60,0.03,-1.39,-1.38,-1.38
372.83,-1.95,-1.95,-0.59,-0.59,0.59,0.59,0.03,-1.36,-1.36,-1.36
376.56,-1.94,-1.94,-0.60,-0.60,0.60,0.58,0.03,-1.34,-1.34,-1.34
380.33,-1.92,-1.92,-0.60,-0.60,0.60,0.57,0.02,-1.32,-1.32,-1.32
384.13,-1.90,-1.90,-0.60,-0.60,0.60,0.56,0.02,-1.30,-1.30,-1.30
387.97,-1.87,-1.87,-0.59,-0.59,0.59,0.54,0.02,-1.28,-1.28,-1.28
391.85,-1.83,-1.83,-0.57,-0.58,0.57,0.52,0.02,-1.26,-1.26,-1.26
395.77,-1.79,-1.79,-0.56,-0.56,0.56,0.50,0.02,-1.23,-1.24,-1.23
399.73,-1.75,-1.75,-0.54,-0.53,0.53,0.47,0.01,-1.22,-1.21,-1.21
403.72,-1.70,-1.70,-0.51,-0.51,0.51,0.45,0.01,-1.19,-1.19,-1.19
407.76,-1.65,-1.65,-0.47,-0.48,0.48,0.42,0.01,-1.17,-1.17,-1.18
411.84,-1.59,-1.59,-0.44,-0.44,0.44,0.39,0.01,-1.15,-1.15,-1.15
415.96,-1.54,-1.54,-0.41,-0.41,0.41,0.36,0.01,-1.13,-1.13,-1.13
420.12,-1.48,-1.48,-0.37,-0.37,0.37,0.34,0.01,-1.11,-1.10,-1.11
424.32,-1.42,-1.42,-0.34,-0.34,0.34,0.31,0.00,-1.08,-1.08,-1.08
428.56,-1.36,-1.36,-0.30,-0.30,0.30,0.28,0.00,-1.06,-1.06,-1.06
432.85,-1.31,-1.31,-0.27,-0.27,0.27,0.26,0.00,-1.04,-1.04,-1.04
437.18,-1.25,-1.25,-0.24,-0.23,0.23,0.23,0.00,-1.02,-1.01,-1.01
441.55,-1.19,-1.19,-0.21,-0.20,0.20,0.20,0.00,-0.99,-0.99,-0.98
445.96,-1.13,-1.13,-0.16,-0.17,0.17,0.18,0.00,-0.96,-0.96,-0.97
450.42,-1.08,-1.08,-0.13,-0.14,0.15,0.16,0.00,-0.93,-0.93,-0.95
454.93,-1.04,-1.04,-0.13,-0.12,0.12,0.13,0.00,-0.92,-0.91,-0.91
459.48,-0.99,-0.99,-0.10,-0.10,0.10,0.11,0.00,-0.89,-0.89,-0.89
464.07,-0.94,-0.94,-0.08,-0.09,0.08,0.09,0.00,-0.86,-0.86,-0.86
468.71,-0.89,-0.89,-0.07,-0.06,0.06,0.06,0.00,-0.83,-0.83,-0.82
473.40,-0.84,-0.84,-0.04,-0.05,0.04,0.04,0.00,-0.80,-0.80,-0.80
478.13,-0.80,-0.80,-0.03,-0.03,0.02,0.02,0.00,-0.78,-0.77,-0.77
482.91,-0.75,-0.75,-0.01,-0.00,0.00,-0.00,0.00,-0.75,-0.74,-0.74
487.74,-0.69,-0.69,0.02,0.02,-0.02,-0.02,0.00,-0.71,-0.71,-0.71
492.62,-0.64,-0.64,0.04,0.04,-0.04,-0.04,0.01,-0.68,-0.68,-0.68
497.55,-0.59,-0.59,0.07,0.07,-0.07,-0.06,0.01,-0.66,-0.66,-0.66
