frequency,raw,error,smoothed,error_smoothed,equalization,parametric_eq,equalized_raw,equalized_smoothed,target
20,-4.70,-6.68,-4.74,-6.73,6.00,5.79,1.30,1.26,1.98
21,-4.70,-6.68,-4.71,-6.69,6.00,5.96,1.30,1.29,1.98
22,-4.67,-6.65,-4.63,-6.61,6.00,6.05,1.33,1.37,1.98
23,-4.58,-6.56,-4.53,-6.50,6.00,6.06,1.42,1.47,1.98
24,-4.44,-6.42,-4.39,-6.36,5.96,5.99,1.52,1.58,1.97
25,-4.25,-6.22,-4.20,-6.18,5.88,5.87,1.63,1.68,1.97
26,-4.04,-6.01,-3.99,-5.96,5.77,5.71,1.73,1.78,1.97
27,-3.79,-5.76,-3.75,-5.72,5.62,5.52,1.83,1.87,1.97
28,-3.51,-5.47,-3.50,-5.46,5.43,5.31,1.92,1.93,1.96
29,-3.20,-5.16,-3.25,-5.20,5.20,5.10,2.00,1.96,1.96
30,-2.92,-4.87,-3.00,-4.96,4.96,4.89,2.04,1.95,1.95
31,-2.66,-4.61,-2.78,-4.73,4.73,4.69,2.07,1.95,1.95
32,-2.48,-4.42,-2.58,-4.52,4.52,4.49,2.04,1.94,1.94
33,-2.36,-4.30,-2.40,-4.33,4.33,4.31,1.97,1.93,1.93
34,-2.28,-4.21,-2.23,-4.16,4.16,4.14,1.88,1.93,1.93
35,-2.18,-4.10,-2.07,-3.99,3.99,3.99,1.81,1.92,1.92
36,-2.05,-3.96,-1.93,-3.84,3.84,3.84,1.79,1.91,1.91
37,-1.83,-3.73,-1.78,-3.69,3.69,3.71,1.86,1.90,1.90
38,-1.63,-3.52,-1.65,-3.55,3.55,3.59,1.91,1.89,1.89
39,-1.46,-3.34,-1.53,-3.41,3.41,3.48,1.95,1.88,1.88
40,-1.34,-3.21,-1.43,-3.30,3.30,3.39,1.96,1.87,1.87
41,-1.28,-3.14,-1.35,-3.21,3.21,3.30,1.93,1.86,1.86
42,-1.25,-3.10,-1.29,-3.13,3.13,3.22,1.88,1.85,1.85
43,-1.26,-3.10,-1.25,-3.08,3.08,3.15,1.82,1.84,1.84
44,-1.26,-3.08,-1.22,-3.04,3.04,3.09,1.78,1.82,1.82
45,-1.24,-3.05,-1.21,-3.02,3.02,3.04,1.77,1.81,1.81
46,-1.23,-3.02,-1.20,-2.99,2.99,2.99,1.76,1.79,1.79
47,-1.21,-2.99,-1.19,-2.97,2.97,2.95,1.76,1.78,1.78
48,-1.18,-2.94,-1.19,-2.94,2.94,2.91,1.76,1.76,1.76
49,-1.17,-2.91,-1.18,-2.92,2.92,2.87,1.75,1.74,1.74
50,-1.16,-2.88,-1.17,-2.89,2.89,2.85,1.73,1.72,1.72
51,-1.15,-2.85,-1.16,-2.86,2.86,2.82,1.71,1.70,1.70
52,-1.15,-2.83,-1.15,-2.84,2.84,2.80,1.68,1.68,1.68
53,-1.15,-2.81,-1.15,-2.81,2.81,2.78,1.66,1.66,1.66
54,-1.15,-2.79,-1.15,-2.79,2.79,2.76,1.64,1.64,1.64
55,-1.15,-2.77,-1.15,-2.77,2.77,2.74,1.62,1.61,1.61
56,-1.16,-2.75,-1.16,-2.75,2.75,2.72,1.59,1.59,1.59
57,-1.16,-2.73,-1.16,-2.73,2.73,2.71,1.57,1.56,1.56
58,-1.17,-2.71,-1.17,-2.71,2.71,2.69,1.54,1.54,1.54
59,-1.18,-2.69,-1.18,-2.69,2.69,2.67,1.51,1.51,1.51
60,-1.19,-2.67,-1.19,-2.67,2.67,2.66,1.48,1.48,1.48
61,-1.20,-2.66,-1.20,-2.65,2.65,2.64,1.45,1.45,1.45
62,-1.21,-2.64,-1.21,-2.63,2.63,2.62,1.42,1.42,1.42
63,-1.22,-2.62,-1.22,-2.61,2.61,2.60,1.39,1.39,1.39
64,-1.22,-2.58,-1.22,-2.59,2.59,2.58,1.37,1.36,1.36
65,-1.23,-2.56,-1.23,-2.56,2.56,2.56,1.33,1.33,1.33
66,-1.24,-2.54,-1.23,-2.53,2.53,2.53,1.29,1.30,1.30
67,-1.24,-2.50,-1.24,-2.50,2.50,2.51,1.26,1.26,1.26
68,-1.24,-2.47,-1.24,-2.47,2.47,2.48,1.23,1.23,1.23
69,-1.24,-2.43,-1.24,-2.43,2.43,2.45,1.19,1.19,1.19
70,-1.24,-2.40,-1.24,-2.40,2.40,2.42,1.16,1.16,1.16
71,-1.24,-2.36,-1.24,-2.36,2.36,2.38,1.12,1.12,1.12
72,-1.24,-2.32,-1.24,-2.33,2.33,2.35,1.09,1.08,1.08
73,-1.24,-2.29,-1.25,-2.29,2.29,2.31,1.05,1.05,1.05
74,-1.25,-2.26,-1.25,-2.26,2.26,2.27,1.01,1.01,1.01
75,-1.25,-2.22,-1.25,-2.22,2.22,2.23,0.97,0.97,0.97
76,-1.26,-2.19,-1.26,-2.19,2.19,2.19,0.93,0.93,0.93
77,-1.26,-2.15,-1.26,-2.15,2.15,2.15,0.89,0.89,0.89
78,-1.26,-2.11,-1.27,-2.12,2.12,2.11,0.85,0.85,0.85
79,-1.27,-2.08,-1.27,-2.08,2.08,2.06,0.81,0.81,0.81
80,-1.27,-2.04,-1.27,-2.04,2.04,2.02,0.77,0.77,0.77
81,-1.27,-2.00,-1.27,-2.00,2.00,1.97,0.73,0.73,0.73
82,-1.27,-1.96,-1.27,-1.96,1.96,1.93,0.69,0.69,0.69
83,-1.27,-1.92,-1.27,-1.91,1.91,1.88,0.64,0.65,0.65
84,-1.27,-1.87,-1.26,-1.87,1.87,1.84,0.59,0.60,0.60
85,-1.26,-1.82,-1.26,-1.82,1.82,1.79,0.56,0.56,0.56
86,-1.25,-1.77,-1.25,-1.77,1.77,1.74,0.52,0.52,0.52
87,-1.23,-1.71,-1.24,-1.72,1.72,1.69,0.49,0.48,0.48
88,-1.22,-1.66,-1.23,-1.67,1.67,1.65,0.44,0.44,0.44
89,-1.21,-1.61,-1.22,-1.62,1.62,1.60,0.41,0.40,0.40
90,-1.21,-1.57,-1.21,-1.57,1.57,1.55,0.36,0.35,0.35
91,-1.21,-1.52,-1.21,-1.52,1.52,1.51,0.31,0.31,0.31
92,-1.20,-1.47,-1.20,-1.47,1.47,1.46,0.27,0.27,0.27
93,-1.20,-1.43,-1.20,-1.43,1.43,1.41,0.23,0.23,0.23
94,-1.19,-1.38,-1.19,-1.38,1.38,1.37,0.19,0.19,0.19
95,-1.19,-1.34,-1.19,-1.34,1.34,1.32,0.15,0.15,0.15
96,-1.18,-1.29,-1.19,-1.30,1.30,1.28,0.12,0.11,0.11
97,-1.18,-1.25,-1.18,-1.25,1.25,1.23,0.07,0.07,0.07
98,-1.18,-1.21,-1.18,-1.21,1.21,1.19,0.03,0.03,0.03
99,-1.17,-1.16,-1.17,-1.16,1.16,1.14,-0.01,-0.01,-0.01
100,-1.17,-1.12,-1.17,-1.12,1.12,1.10,-0.05,-0.05,-0.05
101,-1.16,-1.08,-1.16,-1.07,1.07,1.06,-0.09,-0.10,-0.09
102,-1.16,-1.04,-1.16,-1.02,1.02,1.02,-0.14,-0.14,-0.12
104,-1.15,-0.95,-1.15,-0.97,0.97,0.93,-0.18,-0.18,-0.20
105,-1.15,-0.92,-1.15,-0.92,0.92,0.89,-0.23,-0.22,-0.23
106,-1.14,-0.87,-1.14,-0.88,0.88,0.85,-0.26,-0.26,-0.27
107,-1.13,-0.83,-1.14,-0.83,0.83,0.81,-0.30,-0.30,-0.30
108,-1.13,-0.79,-1.13,-0.79,0.79,0.78,-0.34,-0.34,-0.34
109,-1.12,-0.75,-1.13,-0.75,0.75,0.74,-0.37,-0.37,-0.37
110,-1.12,-0.71,-1.12,-0.71,0.71,0.70,-0.41,-0.41,-0.41
111,-1.12,-0.68,-1.12,-0.68,0.68,0.66,-0.45,-0.44,-0.44
112,-1.11,-0.64,-1.11,-0.64,0.64,0.63,-0.47,-0.48,-0.47
113,-1.11,-0.60,-1.11,-0.60,0.60,0.59,-0.51,-0.51,-0.51
114,-1.11,-0.57,-1.11,-0.56,0.56,0.56,-0.55,-0.54,-0.54
115,-1.10,-0.53,-1.10,-0.52,0.52,0.52,-0.58,-0.58,-0.57
117,-1.10,-0.47,-1.10,-0.48,0.48,0.45,-0.62,-0.62,-0.63
118,-1.09,-0.43,-1.09,-0.44,0.44,0.42,-0.65,-0.65,-0.66
119,-1.09,-0.40,-1.09,-0.40,0.40,0.39,-0.69,-0.69,-0.69
120,-1.08,-0.36,-1.08,-0.36,0.36,0.36,-0.72,-0.72,-0.72
121,-1.08,-0.34,-1.07,-0.32,0.32,0.33,-0.76,-0.75,-0.74
123,-1.06,-0.26,-1.07,-0.28,0.28,0.26,-0.78,-0.79,-0.80
124,-1.06,-0.24,-1.06,-0.24,0.24,0.23,-0.82,-0.82,-0.82
125,-1.05,-0.20,-1.05,-0.20,0.20,0.20,-0.85,-0.85,-0.85
126,-1.05,-0.18,-1.05,-0.17,0.17,0.17,-0.89,-0.88,-0.87
128,-1.04,-0.12,-1.04,-0.13,0.13,0.12,-0.91,-0.91,-0.92
129,-1.04,-0.09,-1.04,-0.10,0.10,0.09,-0.95,-0.94,-0.95
130,-1.03,-0.06,-1.03,-0.06,0.06,0.06,-0.97,-0.97,-0.97
131,-1.03,-0.04,-1.03,-0.03,0.03,0.04,-1.00,-1.00,-0.99
133,-1.02,0.01,-1.02,0.00,-0.00,-0.02,-1.03,-1.03,-1.04
134,-1.02,0.04,-1.02,0.04,-0.04,-0.04,-1.06,-1.06,-1.06
135,-1.02,0.06,-1.01,0.07,-0.07,-0.07,-1.09,-1.09,-1.08
137,-1.01,0.11,-1.01,0.10,-0.10,-0.12,-1.11,-1.11,-1.12
138,-1.00,0.14,-1.00,0.14,-0.14,-0.14,-1.14,-1.14,-1.14
140,-0.99,0.18,-1.00,0.17,-0.17,-0.19,-1.16,-1.17,-1.17
141,-0.99,0.20,-0.99,0.20,-0.20,-0.21,-1.19,-1.19,-1.19
142,-0.98,0.23,-0.98,0.23,-0.23,-0.23,-1.21,-1.22,-1.21
144,-0.98,0.26,-0.98,0.26,-0.26,-0.28,-1.24,-1.24,-1.24
145,-0.97,0.29,-0.97,0.29,-0.29,-0.30,-1.26,-1.26,-1.26
147,-0.96,0.33,-0.96,0.32,-0.32,-0.34,-1.28,-1.29,-1.29
148,-0.96,0.35,-0.96,0.35,-0.35,-0.36,-1.31,-1.31,-1.31
150,-0.95,0.38,-0.95,0.38,-0.38,-0.40,-1.33,-1.33,-1.34
151,-0.95,0.40,-0.95,0.40,-0.40,-0.42,-1.36,-1.35,-1.35
153,-0.94,0.44,-0.94,0.43,-0.43,-0.46,-1.37,-1.37,-1.38
154,-0.94,0.45,-0.94,0.45,-0.45,-0.47,-1.40,-1.39,-1.39
156,-0.93,0.48,-0.93,0.48,-0.48,-0.51,-1.41,-1.41,-1.42
157,-0.93,0.50,-0.93,0.50,-0.50,-0.53,-1.43,-1.43,-1.43
159,-0.92,0.53,-0.93,0.52,-0.52,-0.56,-1.45,-1.45,-1.45
160,-0.92,0.54,-0.92,0.55,-0.55,-0.58,-1.47,-1.47,-1.46
162,-0.92,0.56,-0.92,0.57,-0.57,-0.61,-1.49,-1.49,-1.49
164,-0.91,0.60,-0.91,0.59,-0.59,-0.64,-1.50,-1.50,-1.51
165,-0.91,0.61,-0.91,0.61,-0.61,-0.65,-1.52,-1.52,-1.52
167,-0.90,0.63,-0.91,0.63,-0.63,-0.68,-1.53,-1.54,-1.54
169,-0.90,0.65,-0.90,0.65,-0.65,-0.71,-1.55,-1.55,-1.55
170,-0.90,0.66,-0.89,0.67,-0.67,-0.72,-1.57,-1.57,-1.56
172,-0.89,0.69,-0.89,0.69,-0.69,-0.75,-1.58,-1.58,-1.58
174,-0.88,0.72,-0.88,0.71,-0.71,-0.77,-1.59,-1.60,-1.60
175,-0.87,0.73,-0.88,0.73,-0.73,-0.78,-1.60,-1.61,-1.61
177,-0.87,0.75,-0.87,0.75,-0.75,-0.81,-1.63,-1.62,-1.62
179,-0.86,0.78,-0.86,0.78,-0.78,-0.83,-1.64,-1.64,-1.64
181,-0.85,0.80,-0.85,0.80,-0.80,-0.85,-1.65,-1.65,-1.65
183,-0.84,0.82,-0.84,0.82,-0.82,-0.87,-1.66,-1.66,-1.66
184,-0.83,0.84,-0.83,0.84,-0.84,-0.88,-1.67,-1.67,-1.67
186,-0.83,0.85,-0.82,0.86,-0.86,-0.90,-1.69,-1.69,-1.68
188,-0.82,0.88,-0.81,0.88,-0.88,-0.91,-1.70,-1.70,-1.70
190,-0.80,0.91,-0.80,0.91,-0.91,-0.93,-1.71,-1.71,-1.71
192,-0.79,0.93,-0.79,0.93,-0.93,-0.95,-1.72,-1.72,-1.72
194,-0.78,0.95,-0.78,0.95,-0.95,-0.96,-1.73,-1.73,-1.73
196,-0.77,0.97,-0.77,0.97,-0.97,-0.97,-1.74,-1.74,-1.74
198,-0.76,0.99,-0.76,0.99,-0.99,-0.99,-1.75,-1.75,-1.75
200,-0.75,1.01,-0.76,1.01,-1.01,-1.00,-1.76,-1.76,-1.76
202,-0.75,1.02,-0.75,1.02,-1.02,-1.01,-1.77,-1.77,-1.77
204,-0.75,1.03,-0.75,1.04,-1.04,-1.02,-1.79,-1.78,-1.78
206,-0.74,1.05,-0.74,1.05,-1.05,-1.03,-1.79,-1.79,-1.79
208,-0.74,1.06,-0.74,1.06,-1.06,-1.04,-1.80,-1.80,-1.80
210,-0.73,1.07,-0.73,1.07,-1.07,-1.04,-1.80,-1.80,-1.80
212,-0.73,1.08,-0.73,1.08,-1.08,-1.05,-1.81,-1.81,-1.81
214,-0.73,1.08,-0.73,1.09,-1.09,-1.06,-1.82,-1.82,-1.82
216,-0.72,1.10,-0.73,1.10,-1.10,-1.06,-1.82,-1.82,-1.82
218,-0.72,1.10,-0.72,1.10,-1.10,-1.07,-1.82,-1.83,-1.82
221,-0.72,1.11,-0.72,1.11,-1.11,-1.07,-1.83,-1.83,-1.83
223,-0.72,1.11,-0.72,1.11,-1.11,-1.08,-1.83,-1.83,-1.83
225,-0.72,1.11,-0.72,1.11,-1.11,-1.08,-1.83,-1.83,-1.83
227,-0.72,1.11,-0.72,1.12,-1.12,-1.08,-1.84,-1.83,-1.83
229,-0.72,1.11,-0.72,1.12,-1.12,-1.08,-1.84,-1.83,-1.83
232,-0.71,1.12,-0.72,1.12,-1.12,-1.08,-1.83,-1.83,-1.83
234,-0.71,1.12,-0.71,1.12,-1.12,-1.08,-1.83,-1.83,-1.83
236,-0.71,1.12,-0.71,1.12,-1.12,-1.08,-1.83,-1.83,-1.83
239,-0.70,1.12,-0.70,1.12,-1.12,-1.08,-1.82,-1.82,-1.82
241,-0.70,1.12,-0.70,1.12,-1.12,-1.08,-1.82,-1.82,-1.82
244,-0.69,1.12,-0.69,1.12,-1.12,-1.08,-1.81,-1.81,-1.81
246,-0.68,1.12,-0.68,1.12,-1.12,-1.08,-1.81,-1.81,-1.81
248,-0.67,1.13,-0.67,1.13,-1.13,-1.08,-1.80,-1.80,-1.80
251,-0.66,1.13,-0.66,1.13,-1.13,-1.07,-1.79,-1.79,-1.79
253,-0.65,1.13,-0.65,1.13,-1.13,-1.07,-1.78,-1.78,-1.78
256,-0.64,1.13,-0.63,1.13,-1.13,-1.06,-1.77,-1.77,-1.77
259,-0.62,1.14,-0.62,1.14,-1.14,-1.06,-1.76,-1.76,-1.76
261,-0.61,1.13,-0.61,1.14,-1.14,-1.05,-1.75,-1.75,-1.74
264,-0.59,1.14,-0.60,1.13,-1.13,-1.04,-1.72,-1.73,-1.73
266,-0.58,1.14,-0.59,1.13,-1.13,-1.04,-1.71,-1.72,-1.72
269,-0.58,1.12,-0.58,1.12,-1.12,-1.03,-1.70,-1.70,-1.70
272,-0.57,1.12,-0.58,1.11,-1.11,-1.02,-1.69,-1.69,-1.69
274,-0.57,1.10,-0.57,1.10,-1.10,-1.02,-1.67,-1.67,-1.67
277,-0.57,1.09,-0.57,1.09,-1.09,-1.01,-1.66,-1.66,-1.66
280,-0.57,1.07,-0.57,1.08,-1.08,-1.00,-1.65,-1.64,-1.64
283,-0.57,1.05,-0.56,1.06,-1.06,-0.99,-1.63,-1.62,-1.62
286,-0.56,1.05,-0.56,1.04,-1.04,-0.98,-1.60,-1.61,-1.61
288,-0.56,1.03,-0.56,1.03,-1.03,-0.97,-1.59,-1.59,-1.59
291,-0.56,1.01,-0.56,1.01,-1.01,-0.97,-1.57,-1.57,-1.57
294,-0.56,0.99,-0.56,0.99,-0.99,-0.96,-1.55,-1.55,-1.55
297,-0.56,0.97,-0.56,0.97,-0.97,-0.94,-1.53,-1.53,-1.53
300,-0.56,0.95,-0.56,0.95,-0.95,-0.93,-1.51,-1.51,-1.51
303,-0.56,0.93,-0.56,0.93,-0.93,-0.92,-1.49,-1.49,-1.49
306,-0.56,0.91,-0.56,0.91,-0.91,-0.91,-1.47,-1.47,-1.47
309,-0.56,0.89,-0.56,0.89,-0.89,-0.90,-1.45,-1.45,-1.45
312,-0.56,0.87,-0.56,0.87,-0.87,-0.89,-1.43,-1.43,-1.43
316,-0.56,0.85,-0.56,0.85,-0.85,-0.88,-1.41,-1.41,-1.41
319,-0.56,0.83,-0.56,0.83,-0.83,-0.87,-1.39,-1.39,-1.39
322,-0.56,0.81,-0.56,0.81,-0.81,-0.86,-1.37,-1.37,-1.37
325,-0.57,0.78,-0.56,0.78,-0.78,-0.85,-1.36,-1.35,-1.35
328,-0.57,0.76,-0.56,0.76,-0.76,-0.84,-1.33,-1.33,-1.33
332,-0.56,0.75,-0.56,0.74,-0.74,-0.82,-1.30,-1.31,-1.31
335,-0.56,0.73,-0.56,0.72,-0.72,-0.81,-1.28,-1.29,-1.29
338,-0.56,0.70,-0.56,0.70,-0.70,-0.80,-1.26,-1.27,-1.27
342,-0.56,0.69,-0.56,0.68,-0.68,-0.79,-1.24,-1.25,-1.25
345,-0.56,0.67,-0.56,0.66,-0.66,-0.78,-1.22,-1.23,-1.23
349,-0.56,0.65,-0.57,0.64,-0.64,-0.76,-1.20,-1.21,-1.21
352,-0.57,0.62,-0.57,0.62,-0.62,-0.75,-1.19,-1.19,-1.19
356,-0.57,0.60,-0.57,0.60,-0.60,-0.74,-1.17,-1.17,-1.17
359,-0.58,0.57,-0.58,0.58,-0.58,-0.73,-1.16,-1.16,-1.16
363,-0.58,0.56,-0.58,0.56,-0.56,-0.72,-1.14,-1.14,-1.14
366,-0.58,0.54,-0.58,0.54,-0.54,-0.71,-1.12,-1.12,-1.12
370,-0.59,0.52,-0.59,0.52,-0.52,-0.70,-1.11,-1.11,-1.11
374,-0.59,0.50,-0.59,0.50,-0.50,-0.68,-1.09,-1.10,-1.10
377,-0.59,0.49,-0.60,0.48,-0.48,-0.68,-1.08,-1.08,-1.08
381,-0.60,0.47,-0.60,0.47,-0.47,-0.66,-1.07,-1.07,-1.07
385,-0.61,0.45,-0.61,0.45,-0.45,-0.65,-1.06,-1.06,-1.06
389,-0.62,0.43,-0.62,0.43,-0.43,-0.64,-1.05,-1.05,-1.05
393,-0.62,0.42,-0.63,0.41,-0.41,-0.63,-1.03,-1.04,-1.04
397,-0.63,0.40,-0.63,0.40,-0.40,-0.62,-1.03,-1.03,-1.03
401,-0.64,0.38,-0.64,0.38,-0.38,-0.61,-1.02,-1.02,-1.02
405,-0.64,0.37,-0.64,0.37,-0.37,-0.60,-1.01,-1.01,-1.01
409,-0.64,0.36,-0.64,0.36,-0.36,-0.59,-1.00,-1.01,-1.01
413,-0.64,0.36,-0.64,0.36,-0.36,-0.58,-1.00,-1.00,-1.00
417,-0.64,0.35,-0.64,0.35,-0.35,-0.57,-1.00,-0.99,-0.99
421,-0.63,0.35,-0.63,0.36,-0.36,-0.56,-0.99,-0.98,-0.98
425,-0.62,0.35,-0.62,0.36,-0.36,-0.55,-0.98,-0.98,-0.98
430,-0.60,0.37,-0.60,0.37,-0.37,-0.53,-0.97,-0.97,-0.97
434,-0.58,0.38,-0.58,0.38,-0.38,-0.52,-0.96,-0.96,-0.96
438,-0.56,0.39,-0.56,0.39,-0.39,-0.51,-0.95,-0.95,-0.95
443,-0.54,0.40,-0.54,0.40,-0.40,-0.50,-0.94,-0.94,-0.94
447,-0.52,0.41,-0.52,0.41,-0.41,-0.49,-0.94,-0.94,-0.94
451,-0.50,0.43,-0.50,0.43,-0.43,-0.49,-0.93,-0.93,-0.93
456,-0.47,0.45,-0.47,0.44,-0.44,-0.48,-0.91,-0.92,-0.92
460,-0.45,0.45,-0.45,0.46,-0.46,-0.47,-0.91,-0.91,-0.91
465,-0.43,0.46,-0.43,0.47,-0.47,-0.46,-0.90,-0.89,-0.89
470,-0.40,0.48,-0.40,0.48,-0.48,-0.45,-0.88,-0.88,-0.88
474,-0.38,0.49,-0.38,0.49,-0.49,-0.44,-0.87,-0.87,-0.87
479,-0.36,0.50,-0.36,0.50,-0.50,-0.43,-0.86,-0.86,-0.86
484,-0.34,0.50,-0.34,0.50,-0.50,-0.42,-0.84,-0.84,-0.84
489,-0.32,0.51,-0.32,0.50,-0.50,-0.41,-0.83,-0.83,-0.83
494,-0.30,0.51,-0.31,0.51,-0.51,-0.40,-0.81,-0.81,-0.81
499,-0.29,0.50,-0.29,0.50,-0.50,-0.40,-0.79,-0.79,-0.79
504,-0.28,0.50,-0.28,0.50,-0.50,-0.39,-0.78,-0.78,-0.78
509,-0.27,0.49,-0.27,0.49,-0.49,-0.38,-0.76,-0.76,-0.76
514,-0.26,0.48,-0.26,0.48,-0.48,-0.37,-0.74,-0.74,-0.74
519,-0.26,0.46,-0.26,0.46,-0.46,-0.36,-0.73,-0.72,-0.72
524,-0.25,0.45,-0.25,0.45,-0.45,-0.36,-0.70,-0.70,-0.70
529,-0.25,0.43,-0.25,0.43,-0.43,-0.35,-0.68,-0.68,-0.68
535,-0.25,0.41,-0.25,0.41,-0.41,-0.34,-0.67,-0.66,-0.66
540,-0.25,0.39,-0.25,0.40,-0.40,-0.33,-0.65,-0.64,-0.64
545,-0.25,0.37,-0.25,0.38,-0.38,-0.33,-0.63,-0.62,-0.62
551,-0.24,0.36,-0.25,0.36,-0.36,-0.32,-0.60,-0.60,-0.60
556,-0.24,0.34,-0.24,0.34,-0.34,-0.31,-0.58,-0.58,-0.58
562,-0.24,0.32,-0.24,0.32,-0.32,-0.31,-0.56,-0.56,-0.56
568,-0.24,0.30,-0.24,0.31,-0.31,-0.30,-0.55,-0.54,-0.54
573,-0.23,0.29,-0.23,0.29,-0.29,-0.30,-0.52,-0.52,-0.52
579,-0.22,0.28,-0.22,0.28,-0.28,-0.29,-0.50,-0.50,-0.50
585,-0.21,0.27,-0.22,0.27,-0.27,-0.28,-0.48,-0.48,-0.48
591,-0.21,0.25,-0.21,0.26,-0.26,-0.28,-0.47,-0.47,-0.47
596,-0.20,0.25,-0.19,0.26,-0.26,-0.27,-0.46,-0.45,-0.45
602,-0.18,0.25,-0.18,0.25,-0.25,-0.27,-0.43,-0.43,-0.43
608,-0.16,0.25,-0.16,0.25,-0.25,-0.26,-0.41,-0.41,-0.41
615,-0.14,0.25,-0.14,0.25,-0.25,-0.26,-0.39,-0.40,-0.40
621,-0.12,0.26,-0.12,0.26,-0.26,-0.26,-0.38,-0.38,-0.38
627,-0.10,0.26,-0.10,0.26,-0.26,-0.25,-0.36,-0.36,-0.36
633,-0.08,0.27,-0.09,0.26,-0.26,-0.25,-0.35,-0.35,-0.35
639,-0.07,0.26,-0.07,0.27,-0.27,-0.25,-0.34,-0.34,-0.34
646,-0.05,0.27,-0.05,0.27,-0.27,-0.24,-0.33,-0.32,-0.32
652,-0.03,0.28,-0.03,0.28,-0.28,-0.24,-0.31,-0.31,-0.31
659,-0.01,0.29,-0.01,0.28,-0.28,-0.24,-0.30,-0.30,-0.30
665,-0.00,0.28,0.00,0.29,-0.29,-0.24,-0.29,-0.29,-0.29
672,0.02,0.29,0.02,0.29,-0.29,-0.24,-0.27,-0.27,-0.27
679,0.03,0.29,0.03,0.29,-0.29,-0.24,-0.27,-0.26,-0.26
686,0.05,0.30,0.04,0.30,-0.30,-0.24,-0.25,-0.25,-0.25
692,0.06,0.30,0.05,0.29,-0.29,-0.24,-0.24,-0.24,-0.24
699,0.06,0.29,0.06,0.29,-0.29,-0.25,-0.23,-0.23,-0.23
706,0.07,0.29,0.07,0.29,-0.29,-0.25,-0.22,-0.22,-0.22
713,0.07,0.29,0.07,0.29,-0.29,-0.26,-0.22,-0.22,-0.22
721,0.08,0.29,0.08,0.29,-0.29,-0.26,-0.21,-0.21,-0.21
728,0.08,0.28,0.09,0.29,-0.29,-0.27,-0.21,-0.20,-0.20
735,0.09,0.28,0.09,0.29,-0.29,-0.28,-0.20,-0.19,-0.19
742,0.10,0.28,0.10,0.29,-0.29,-0.29,-0.19,-0.19,-0.19
750,0.11,0.29,0.11,0.29,-0.29,-0.30,-0.18,-0.18,-0.18
757,0.13,0.30,0.12,0.30,-0.30,-0.31,-0.17,-0.17,-0.17
765,0.14,0.30,0.13,0.30,-0.30,-0.32,-0.16,-0.17,-0.17
773,0.15,0.31,0.14,0.30,-0.30,-0.33,-0.15,-0.16,-0.16
780,0.15,0.30,0.15,0.31,-0.31,-0.34,-0.16,-0.15,-0.15
788,0.16,0.31,0.16,0.31,-0.31,-0.34,-0.15,-0.15,-0.15
796,0.16,0.30,0.16,0.31,-0.31,-0.34,-0.15,-0.15,-0.15
804,0.17,0.31,0.17,0.31,-0.31,-0.34,-0.14,-0.14,-0.14
812,0.17,0.31,0.17,0.31,-0.31,-0.33,-0.14,-0.14,-0.14
820,0.17,0.30,0.17,0.31,-0.31,-0.32,-0.14,-0.13,-0.13
828,0.17,0.30,0.17,0.30,-0.30,-0.31,-0.13,-0.13,-0.13
837,0.17,0.30,0.17,0.29,-0.29,-0.29,-0.13,-0.13,-0.13
845,0.17,0.29,0.16,0.28,-0.28,-0.27,-0.11,-0.13,-0.12
853,0.16,0.28,0.15,0.27,-0.27,-0.25,-0.11,-0.12,-0.12
862,0.14,0.26,0.14,0.25,-0.25,-0.22,-0.12,-0.12,-0.12
871,0.12,0.23,0.12,0.24,-0.24,-0.20,-0.12,-0.12,-0.12
879,0.10,0.21,0.10,0.22,-0.22,-0.18,-0.12,-0.11,-0.11
888,0.08,0.19,0.09,0.19,-0.19,-0.15,-0.12,-0.11,-0.11
897,0.07,0.17,0.07,0.17,-0.17,-0.13,-0.10,-0.10,-0.10
906,0.06,0.16,0.06,0.15,-0.15,-0.11,-0.09,-0.10,-0.10
915,0.04,0.13,0.04,0.13,-0.13,-0.09,-0.09,-0.09,-0.09
924,0.03,0.11,0.03,0.12,-0.12,-0.07,-0.09,-0.08,-0.08
933,0.02,0.10,0.02,0.10,-0.10,-0.06,-0.08,-0.08,-0.08
943,0.01,0.08,0.02,0.08,-0.08,-0.04,-0.07,-0.07,-0.07
952,0.01,0.07,0.01,0.07,-0.07,-0.02,-0.06,-0.06,-0.06
962,0.01,0.05,0.01,0.05,-0.05,-0.01,-0.04,-0.04,-0.04
971,0.01,0.04,0.01,0.04,-0.04,0.00,-0.03,-0.03,-0.03
981,0.01,0.03,0.00,0.02,-0.02,0.02,-0.01,-0.02,-0.02
991,0.01,0.01,-0.00,-0.00,0.00,0.03,0.01,0.00,0.00
1001,-0.00,-0.02,-0.01,-0.02,0.02,0.04,0.02,0.02,0.02
1011,-0.01,-0.05,-0.01,-0.05,0.05,0.06,0.04,0.04,0.04
1021,-0.02,-0.08,-0.02,-0.08,0.08,0.07,0.06,0.06,0.06
1031,-0.03,-0.11,-0.03,-0.11,0.11,0.08,0.08,0.08,0.08
1041,-0.04,-0.14,-0.04,-0.14,0.14,0.09,0.10,0.10,0.10
1052,-0.04,-0.17,-0.04,-0.17,0.17,0.10,0.13,0.13,0.13
1062,-0.04,-0.20,-0.04,-0.20,0.20,0.11,0.16,0.16,0.16
1073,-0.04,-0.22,-0.04,-0.23,0.23,0.12,0.19,0.18,0.18
1084,-0.05,-0.26,-0.04,-0.25,0.25,0.14,0.20,0.21,0.21
1094,-0.04,-0.28,-0.03,-0.28,0.28,0.15,0.24,0.24,0.24
1105,-0.03,-0.31,-0.02,-0.30,0.30,0.16,0.27,0.28,0.28
1116,-0.01,-0.32,-0.01,-0.32,0.32,0.17,0.31,0.31,0.31
1128,0.01,-0.33,0.00,-0.34,0.34,0.18,0.35,0.34,0.34
1139,0.03,-0.35,0.02,-0.36,0.36,0.19,0.39,0.38,0.38
1150,0.04,-0.38,0.03,-0.38,0.38,0.20,0.42,0.42,0.42
1162,0.06,-0.40,0.05,-0.41,0.41,0.21,0.46,0.46,0.46
1173,0.08,-0.42,0.07,-0.43,0.43,0.22,0.51,0.50,0.50
1185,0.10,-0.44,0.10,-0.45,0.45,0.23,0.55,0.54,0.54
1197,0.12,-0.47,0.12,-0.47,0.47,0.24,0.58,0.59,0.59
1209,0.14,-0.50,0.15,-0.48,0.48,0.26,0.62,0.63,0.63
1221,0.19,-0.49,0.19,-0.49,0.49,0.27,0.68,0.68,0.68
1233,0.24,-0.49,0.24,-0.49,0.49,0.28,0.73,0.73,0.73
1246,0.30,-0.49,0.30,-0.49,0.49,0.29,0.79,0.79,0.78
1258,0.35,-0.49,0.36,-0.48,0.48,0.30,0.83,0.84,0.84
1271,0.41,-0.48,0.43,-0.46,0.46,0.32,0.87,0.89,0.89
1283,0.50,-0.45,0.51,-0.44,0.44,0.33,0.94,0.95,0.95
1296,0.59,-0.42,0.59,-0.42,0.42,0.34,1.01,1.01,1.01
1309,0.68,-0.39,0.67,-0.40,0.40,0.36,1.08,1.07,1.07
1322,0.76,-0.37,0.75,-0.38,0.38,0.37,1.14,1.13,1.13
1335,0.85,-0.35,0.83,-0.36,0.36,0.39,1.21,1.19,1.19
1349,0.92,-0.34,0.91,-0.35,0.35,0.40,1.27,1.26,1.26
1362,0.98,-0.35,0.98,-0.34,0.34,0.42,1.32,1.32,1.33
1376,1.05,-0.34,1.05,-0.34,0.34,0.43,1.39,1.39,1.39
1390,1.12,-0.34,1.11,-0.35,0.35,0.45,1.47,1.46,1.46
1404,1.18,-0.35,1.17,-0.36,0.36,0.47,1.54,1.53,1.53
1418,1.22,-0.38,1.22,-0.38,0.38,0.49,1.60,1.60,1.60
1432,1.27,-0.40,1.27,-0.41,0.41,0.51,1.67,1.67,1.67
1446,1.31,-0.44,1.31,-0.43,0.43,0.53,1.74,1.74,1.75
1461,1.35,-0.47,1.35,-0.47,0.47,0.55,1.81,1.82,1.82
1475,1.39,-0.51,1.39,-0.50,0.50,0.57,1.89,1.89,1.89
1490,1.43,-0.54,1.43,-0.54,0.54,0.60,1.97,1.97,1.97
1505,1.47,-0.58,1.47,-0.58,0.58,0.62,2.05,2.05,2.05
1520,1.51,-0.62,1.51,-0.62,0.62,0.65,2.13,2.13,2.13
1535,1.56,-0.65,1.55,-0.66,0.66,0.69,2.22,2.21,2.21
1550,1.60,-0.70,1.58,-0.71,0.71,0.72,2.31,2.30,2.30
1566,1.63,-0.75,1.62,-0.76,0.76,0.76,2.39,2.38,2.38
1582,1.66,-0.81,1.66,-0.81,0.81,0.80,2.47,2.47,2.47
1597,1.69,-0.87,1.69,-0.87,0.87,0.84,2.56,2.56,2.56
1613,1.73,-0.92,1.73,-0.92,0.92,0.89,2.65,2.65,2.65
1629,1.76,-0.99,1.78,-0.97,0.97,0.95,2.73,2.75,2.75
1646,1.82,-1.03,1.83,-1.02,1.02,1.01,2.84,2.85,2.85
1662,1.88,-1.07,1.88,-1.07,1.07,1.07,2.95,2.95,2.95
1679,1.95,-1.10,1.94,-1.11,1.11,1.13,3.06,3.05,3.05
1696,2.01,-1.15,2.00,-1.16,1.16,1.18,3.17,3.16,3.16
