frequency,raw
20.00,-7.32
20.20,-7.25
20.40,-7.17
20.61,-7.10
20.81,-7.03
21.02,-6.95
21.23,-6.88
21.44,-6.80
21.66,-6.73
21.87,-6.65
22.09,-6.58
22.31,-6.50
22.54,-6.43
22.76,-6.35
22.99,-6.27
23.22,-6.20
23.45,-6.12
23.69,-6.04
23.92,-5.96
24.16,-5.89
24.40,-5.81
24.65,-5.74
24.89,-5.66
25.14,-5.59
25.39,-5.51
25.65,-5.43
25.91,-5.36
26.16,-5.28
26.43,-5.21
26.69,-5.13
26.96,-5.05
27.23,-4.98
27.50,-4.90
27.77,-4.82
28.05,-4.75
28.33,-4.67
28.62,-4.60
28.90,-4.53
29.19,-4.45
29.48,-4.38
29.78,-4.30
30.08,-4.23
30.38,-4.16
30.68,-4.09
30.99,-4.02
31.30,-3.96
31.61,-3.89
31.93,-3.83
32.24,-3.76
32.57,-3.70
32.89,-3.63
33.22,-3.57
33.55,-3.50
33.89,-3.44
34.23,-3.38
34.57,-3.31
34.92,-3.25
35.27,-3.18
35.62,-3.12
35.97,-3.05
36.33,-2.99
36.70,-2.92
37.06,-2.85
37.43,-2.77
37.81,-2.70
38.19,-2.62
38.57,-2.55
38.95,-2.47
39.34,-2.39
39.74,-2.30
40.14,-2.22
40.54,-2.15
40.94,-2.07
41.35,-2.00
41.76,-1.92
42.18,-1.85
42.60,-1.77
43.03,-1.70
43.46,-1.63
43.90,-1.56
44.33,-1.49
44.78,-1.43
45.23,-1.37
45.68,-1.33
46.13,-1.28
46.60,-1.23
47.06,-1.19
47.53,-1.16
48.01,-1.13
48.49,-1.11
48.97,-1.09
49.46,-1.09
49.96,-1.08
50.46,-1.08
50.96,-1.08
51.47,-1.08
51.99,-1.08
52.51,-1.09
53.03,-1.10
53.56,-1.10
54.10,-1.10
54.64,-1.09
55.18,-1.08
55.74,-1.07
56.29,-1.06
56.86,-1.04
57.42,-1.01
58.00,-0.99
58.58,-0.96
59.16,-0.92
59.76,-0.87
60.35,-0.81
60.96,-0.75
61.57,-0.70
62.18,-0.64
62.80,-0.58
63.43,-0.51
64.07,-0.43
64.71,-0.35
65.35,-0.27
66.01,-0.19
66.67,-0.12
67.33,-0.05
68.01,0.02
68.69,0.09
69.37,0.15
70.07,0.22
70.77,0.29
71.48,0.34
72.19,0.39
72.91,0.44
73.64,0.51
74.38,0.57
75.12,0.62
75.87,0.65
76.63,0.70
77.40,0.75
78.17,0.80
78.95,0.87
79.74,0.93
80.54,0.99
81.35,1.04
82.16,1.10
82.98,1.16
83.81,1.21
84.65,1.26
85.50,1.31
86.35,1.36
87.22,1.40
88.09,1.46
88.97,1.51
89.86,1.55
90.76,1.59
91.66,1.62
92.58,1.65
93.51,1.68
94.44,1.70
95.39,1.72
96.34,1.75
97.30,1.80
98.28,1.84
99.26,1.89
100.25,1.93
101.25,1.97
102.27,1.99
103.29,2.00
104.32,2.02
105.37,2.05
106.42,2.08
107.48,2.11
108.56,2.13
109.64,2.15
110.74,2.17
111.85,2.17
112.97,2.16
114.10,2.14
115.24,2.14
116.39,2.14
117.55,2.14
118.73,2.14
119.92,2.14
121.12,2.14
122.33,2.14
123.55,2.14
124.79,2.14
126.03,2.14
127.29,2.14
128.57,2.14
129.85,2.14
131.15,2.14
132.46,2.14
133.79,2.14
135.12,2.14
136.48,2.14
137.84,2.14
139.22,2.14
140.61,2.14
142.02,2.14
143.44,2.14
144.87,2.14
146.32,2.14
147.78,2.14
149.26,2.14
150.75,2.14
152.26,2.14
153.78,2.14
155.32,2.14
156.88,2.14
158.44,2.14
160.03,2.14
161.63,2.14
163.24,2.14
164.88,2.14
166.53,2.14
168.19,2.14
169.87,2.14
171.57,2.14
173.29,2.14
175.02,2.15
176.77,2.16
178.54,2.16
180.32,2.16
182.13,2.15
183.95,2.14
185.79,2.11
187.65,2.09
189.52,2.07
191.42,2.04
193.33,2.00
195.27,1.97
197.22,1.94
199.19,1.91
201.18,1.88
203.19,1.86
205.23,1.85
207.28,1.83
209.35,1.81
211.44,1.80
213.56,1.77
215.69,1.75
217.85,1.72
220.03,1.70
222.23,1.67
224.45,1.64
226.70,1.60
228.96,1.57
231.25,1.55
233.57,1.53
235.90,1.51
238.26,1.49
240.64,1.47
243.05,1.46
245.48,1.45
247.93,1.42
250.41,1.40
252.92,1.36
255.45,1.34
258.00,1.32
260.58,1.29
263.19,1.26
265.82,1.22
268.48,1.19
271.16,1.16
273.87,1.11
276.61,1.08
279.38,1.06
282.17,1.03
284.99,1.00
287.84,0.96
290.72,0.93
293.63,0.91
296.57,0.89
299.53,0.87
302.53,0.85
305.55,0.83
308.61,0.82
311.69,0.80
314.81,0.79
317.96,0.77
321.14,0.74
324.35,0.71
327.59,0.67
330.87,0.64
334.18,0.61
337.52,0.57
340.90,0.55
344.30,0.52
347.75,0.51
351.23,0.50
354.74,0.50
358.28,0.51
361.87,0.51
365.49,0.52
369.14,0.53
372.83,0.53
376.56,0.54
380.33,0.54
384.13,0.53
387.97,0.52
391.85,0.51
395.77,0.48
399.73,0.45
403.72,0.42
407.76,0.39
411.84,0.35
415.96,0.32
420.12,0.29
424.32,0.26
428.56,0.23
432.85,0.21
437.18,0.19
441.55,0.18
445.96,0.18
450.42,0.18
454.93,0.19
459.48,0.19
464.07,0.20
468.71,0.20
473.40,0.20
478.13,0.20
482.91,0.20
487.74,0.20
492.62,0.20
497.55,0.20
502.52,0.20
507.55,0.20
512.62,0.20
517.75,0.20
522.93,0.21
528.16,0.22
533.44,0.22
538.77,0.21
544.16,0.19
549.60,0.17
555.10,0.15
560.65,0.13
566.25,0.09
571.92,0.06
577.64,0.03
583.41,-0.01
589.25,-0.04
595.14,-0.07
601.09,-0.11
607.10,-0.13
613.17,-0.14
619.30,-0.15
625.50,-0.15
631.75,-0.14
638.07,-0.13
644.45,-0.13
650.89,-0.13
657.40,-0.13
663.98,-0.13
670.62,-0.13
677.32,-0.13
684.10,-0.13
690.94,-0.13
697.85,-0.13
704.83,-0.13
711.87,-0.13
718.99,-0.13
726.18,-0.13
733.44,-0.13
740.78,-0.13
748.19,-0.13
755.67,-0.12
763.23,-0.11
770.86,-0.11
778.57,-0.11
786.35,-0.12
794.22,-0.14
802.16,-0.16
810.18,-0.18
818.28,-0.21
826.46,-0.25
834.73,-0.28
843.08,-0.32
851.51,-0.36
860.02,-0.40
868.62,-0.43
877.31,-0.46
886.08,-0.46
894.94,-0.45
903.89,-0.43
912.93,-0.41
922.06,-0.39
931.28,-0.35
940.59,-0.30
950.00,-0.25
959.50,-0.21
969.09,-0.16
978.78,-0.12
988.57,-0.06
998.46,-0.01
1008.44,0.05
1018.53,0.11
1028.71,0.16
1039.00,0.21
1049.39,0.27
1059.88,0.32
1070.48,0.37
1081.19,0.42
1092.00,0.45
1102.92,0.48
1113.95,0.50
1125.09,0.52
1136.34,0.53
1147.70,0.54
1159.18,0.54
1170.77,0.54
1182.48,0.52
1194.30,0.51
1206.25,0.50
1218.31,0.50
1230.49,0.50
1242.80,0.51
1255.22,0.53
1267.78,0.55
1280.45,0.57
1293.26,0.60
1306.19,0.63
1319.25,0.66
1332.45,0.70
1345.77,0.73
1359.23,0.77
1372.82,0.81
1386.55,0.84
1400.41,0.86
1414.42,0.87
1428.56,0.86
1442.85,0.84
1457.28,0.81
1471.85,0.78
1486.57,0.75
1501.43,0.72
1516.45,0.69
1531.61,0.64
1546.93,0.59
1562.40,0.54
1578.02,0.50
1593.80,0.46
1609.74,0.41
1625.84,0.36
1642.10,0.32
1658.52,0.27
1675.10,0.23
1691.85,0.18
1708.77,0.13
1725.86,0.08
1743.12,0.03
1760.55,-0.02
1778.15,-0.07
1795.94,-0.12
1813.90,-0.16
1832.03,-0.21
1850.36,-0.26
1868.86,-0.31
1887.55,-0.34
1906.42,-0.37
1925.49,-0.40
1944.74,-0.42
1964.19,-0.44
1983.83,-0.46
2003.67,-0.48
2023.71,-0.49
2043.94,-0.49
2064.38,-0.48
2085.03,-0.46
2105.88,-0.45
2126.94,-0.43
2148.20,-0.41
2169.69,-0.39
2191.38,-0.37
2213.30,-0.33
2235.43,-0.28
2257.78,-0.24
2280.36,-0.19
2303.17,-0.13
2326.20,-0.07
2349.46,-0.01
2372.95,0.06
2396.68,0.12
2420.65,0.17
2444.86,0.22
2469.31,0.28
2494.00,0.35
2518.94,0.41
2544.13,0.47
2569.57,0.53
2595.27,0.59
2621.22,0.64
2647.43,0.70
2673.90,0.76
2700.64,0.83
2727.65,0.90
2754.93,0.95
2782.48,1.01
2810.30,1.09
2838.40,1.16
2866.79,1.23
2895.46,1.31
2924.41,1.38
2953.65,1.47
2983.19,1.57
3013.02,1.66
3043.15,1.75
3073.58,1.85
3104.32,1.95
3135.36,2.05
3166.72,2.16
3198.38,2.25
3230.37,2.35
3262.67,2.45
3295.30,2.56
3328.25,2.65
3361.53,2.75
3395.15,2.85
3429.10,2.96
3463.39,3.05
3498.03,3.15
3533.01,3.25
3568.34,3.36
3604.02,3.47
3640.06,3.57
3676.46,3.66
3713.22,3.74
3750.36,3.81
3787.86,3.88
3825.74,3.94
3864.00,4.00
3902.64,4.04
3941.66,4.07
3981.08,4.11
4020.89,4.15
4061.10,4.18
4101.71,4.24
4142.73,4.29
4184.15,4.33
4226.00,4.38
4268.26,4.45
4310.94,4.53
4354.05,4.63
4397.59,4.75
4441.56,4.87
4485.98,4.99
4530.84,5.11
4576.15,5.25
4621.91,5.40
4668.13,5.55
4714.81,5.73
4761.96,5.92
4809.58,6.11
4857.67,6.31
4906.25,6.50
4955.31,6.70
5004.87,6.89
5054.91,7.08
5105.46,7.26
5156.52,7.42
5208.08,7.57
5260.16,7.70
5312.77,7.80
5365.89,7.87
5419.55,7.91
5473.75,7.93
5528.49,7.91
5583.77,7.87
5639.61,7.81
5696.00,7.71
5752.96,7.60
5810.49,7.46
5868.60,7.29
5927.28,7.08
5986.56,6.84
6046.42,6.59
6106.89,6.30
6167.96,5.99
6229.64,5.64
6291.93,5.25
6354.85,4.83
6418.40,4.41
6482.58,3.95
6547.41,3.47
6612.88,2.97
6679.01,2.43
6745.80,1.88
6813.26,1.32
6881.39,0.76
6950.21,0.19
7019.71,-0.37
7089.91,-0.91
7160.81,-1.42
7232.41,-1.92
7304.74,-2.39
7377.79,-2.82
7451.56,-3.22
7526.08,-3.58
7601.34,-3.90
7677.35,-4.17
7754.13,-4.41
7831.67,-4.61
7909.98,-4.80
7989.08,-4.98
8068.98,-5.16
8149.67,-5.34
8231.16,-5.53
8313.47,-5.72
8396.61,-5.92
8480.57,-6.11
8565.38,-6.31
8651.03,-6.51
8737.54,-6.70
8824.92,-6.89
8913.17,-7.09
9002.30,-7.29
9092.32,-7.48
9183.25,-7.64
9275.08,-7.79
9367.83,-7.91
9461.51,-8.02
9556.12,-8.09
9651.68,-8.15
9748.20,-8.17
9845.68,-8.15
9944.14,-8.09
10043.58,-7.98
10144.02,-7.84
10245.46,-7.64
10347.91,-7.42
10451.39,-7.17
10555.91,-6.87
10661.46,-6.55
10768.08,-6.22
10875.76,-5.88
10984.52,-5.53
11094.36,-5.17
11205.31,-4.82
11317.36,-4.48
11430.53,-4.17
11544.84,-3.88
11660.29,-3.61
11776.89,-3.36
11894.66,-3.13
12013.60,-2.92
12133.74,-2.75
12255.08,-2.61
12377.63,-2.50
12501.41,-2.45
12626.42,-2.43
12752.68,-2.45
12880.21,-2.51
13009.01,-2.60
13139.10,-2.71
13270.49,-2.86
13403.20,-3.03
13537.23,-3.23
13672.60,-3.44
13809.33,-3.67
13947.42,-3.91
14086.90,-4.18
14227.77,-4.47
14370.04,-4.78
14513.74,-5.09
14658.88,-5.42
14805.47,-5.76
14953.52,-6.12
15103.06,-6.48
15254.09,-6.84
15406.63,-7.20
15560.70,-7.54
15716.30,-7.87
15873.47,-8.17
16032.20,-8.45
16192.52,-8.70
16354.45,-8.95
16517.99,-9.16
16683.17,-9.35
16850.01,-9.51
17018.51,-9.65
17188.69,-9.78
17360.58,-9.89
17534.18,-9.98
17709.53,-10.05
17886.62,-10.09
18065.49,-10.12
18246.14,-10.18
18428.60,-10.24
18612.89,-10.29
18799.02,-10.33
18987.01,-10.37
19176.88,-10.40
19368.65,-10.43
19562.33,-10.44
19757.96,-10.45
19955.54,-10.45
