frequency,raw,error,smoothed,error_smoothed,equalization,parametric_eq,fixed_band_eq,equalized_raw,equalized_smoothed,target
20.00,-4.58,-4.63,-4.56,-4.61,4.61,4.37,0.99,0.03,0.06,0.05
20.20,-4.50,-4.54,-4.48,-4.52,4.52,4.32,1.02,0.03,0.04,0.04
20.40,-4.41,-4.44,-4.40,-4.43,4.43,4.27,1.05,0.03,0.03,0.03
20.61,-4.33,-4.35,-4.33,-4.35,4.35,4.22,1.09,0.02,0.02,0.02
20.81,-4.25,-4.25,-4.25,-4.26,4.26,4.17,1.12,0.02,0.01,0.00
21.02,-4.17,-4.16,-4.18,-4.18,4.18,4.12,1.15,0.01,-0.00,-0.01
21.23,-4.10,-4.08,-4.11,-4.10,4.10,4.06,1.19,-0.00,-0.01,-0.02
21.44,-4.02,-4.01,-4.04,-4.02,4.02,4.01,1.22,-0.00,-0.02,-0.01
21.66,-3.95,-3.92,-3.97,-3.94,3.94,3.95,1.26,-0.01,-0.03,-0.03
21.87,-3.88,-3.85,-3.90,-3.86,3.86,3.89,1.30,-0.02,-0.04,-0.03
22.09,-3.81,-3.76,-3.83,-3.78,3.78,3.83,1.34,-0.02,-0.05,-0.05
22.31,-3.74,-3.69,-3.76,-3.71,3.71,3.77,1.38,-0.03,-0.05,-0.05
22.54,-3.70,-3.64,-3.70,-3.64,3.64,3.71,1.42,-0.06,-0.06,-0.06
22.76,-3.66,-3.60,-3.64,-3.57,3.57,3.64,1.46,-0.08,-0.06,-0.06
22.99,-3.60,-3.53,-3.58,-3.51,3.51,3.58,1.51,-0.09,-0.07,-0.07
23.22,-3.52,-3.43,-3.52,-3.44,3.44,3.51,1.55,-0.07,-0.07,-0.08
23.45,-3.46,-3.38,-3.45,-3.38,3.38,3.45,1.60,-0.08,-0.08,-0.07
23.69,-3.40,-3.31,-3.39,-3.31,3.31,3.38,1.64,-0.09,-0.08,-0.08
23.92,-3.33,-3.23,-3.32,-3.24,3.24,3.31,1.69,-0.09,-0.09,-0.09
24.16,-3.27,-3.18,-3.25,-3.17,3.17,3.25,1.74,-0.10,-0.09,-0.08
24.40,-3.20,-3.11,-3.18,-3.09,3.09,3.18,1.79,-0.10,-0.09,-0.09
24.65,-3.12,-3.03,-3.11,-3.02,3.02,3.11,1.83,-0.10,-0.09,-0.09
24.89,-3.04,-2.95,-3.03,-2.94,2.94,3.05,1.88,-0.09,-0.09,-0.09
25.14,-2.96,-2.86,-2.95,-2.86,2.86,2.98,1.93,-0.10,-0.09,-0.10
25.39,-2.88,-2.78,-2.87,-2.78,2.78,2.91,1.98,-0.10,-0.10,-0.10
25.65,-2.80,-2.70,-2.80,-2.70,2.70,2.84,2.03,-0.10,-0.10,-0.10
25.91,-2.72,-2.62,-2.72,-2.62,2.62,2.77,2.08,-0.10,-0.10,-0.10
26.16,-2.64,-2.54,-2.64,-2.54,2.54,2.71,2.12,-0.09,-0.10,-0.09
26.43,-2.56,-2.47,-2.56,-2.47,2.47,2.64,2.17,-0.09,-0.10,-0.09
26.69,-2.49,-2.39,-2.49,-2.39,2.39,2.57,2.21,-0.09,-0.09,-0.09
26.96,-2.41,-2.31,-2.41,-2.32,2.32,2.50,2.26,-0.09,-0.09,-0.09
27.23,-2.33,-2.23,-2.34,-2.25,2.25,2.43,2.30,-0.08,-0.09,-0.10
27.50,-2.26,-2.16,-2.28,-2.19,2.19,2.37,2.34,-0.07,-0.09,-0.10
27.77,-2.21,-2.12,-2.21,-2.12,2.12,2.30,2.37,-0.08,-0.09,-0.09
28.05,-2.16,-2.07,-2.15,-2.06,2.06,2.23,2.41,-0.09,-0.08,-0.09
28.33,-2.10,-2.02,-2.09,-2.01,2.01,2.17,2.44,-0.09,-0.08,-0.08
28.62,-2.04,-1.96,-2.03,-1.95,1.95,2.10,2.46,-0.08,-0.08,-0.08
28.90,-1.98,-1.90,-1.98,-1.90,1.90,2.04,2.49,-0.08,-0.08,-0.07
29.19,-1.94,-1.86,-1.93,-1.85,1.85,1.97,2.51,-0.08,-0.08,-0.07
29.48,-1.89,-1.81,-1.89,-1.81,1.81,1.90,2.52,-0.08,-0.08,-0.08
29.78,-1.84,-1.76,-1.84,-1.76,1.76,1.84,2.53,-0.08,-0.08,-0.08
30.08,-1.79,-1.71,-1.80,-1.72,1.72,1.78,2.54,-0.07,-0.08,-0.08
30.38,-1.76,-1.67,-1.76,-1.68,1.68,1.71,2.53,-0.08,-0.09,-0.09
30.68,-1.72,-1.62,-1.72,-1.64,1.64,1.65,2.53,-0.08,-0.09,-0.09
30.99,-1.69,-1.59,-1.69,-1.59,1.59,1.59,2.52,-0.09,-0.09,-0.09
31.30,-1.66,-1.56,-1.65,-1.56,1.56,1.52,2.50,-0.10,-0.10,-0.10
31.61,-1.63,-1.53,-1.62,-1.52,1.52,1.46,2.48,-0.11,-0.10,-0.10
31.93,-1.60,-1.48,-1.59,-1.48,1.48,1.40,2.45,-0.12,-0.11,-0.12
32.24,-1.56,-1.44,-1.56,-1.44,1.44,1.34,2.42,-0.11,-0.11,-0.11
32.57,-1.53,-1.40,-1.53,-1.41,1.41,1.28,2.38,-0.12,-0.12,-0.12
32.89,-1.49,-1.36,-1.50,-1.37,1.37,1.21,2.33,-0.11,-0.12,-0.13
33.22,-1.46,-1.33,-1.46,-1.33,1.33,1.15,2.29,-0.12,-0.13,-0.13
33.55,-1.43,-1.30,-1.43,-1.29,1.29,1.09,2.23,-0.13,-0.14,-0.13
33.89,-1.40,-1.25,-1.39,-1.25,1.25,1.04,2.18,-0.15,-0.14,-0.14
34.23,-1.36,-1.20,-1.35,-1.21,1.21,0.98,2.11,-0.15,-0.15,-0.16
34.57,-1.33,-1.17,-1.31,-1.16,1.16,0.92,2.05,-0.17,-0.15,-0.16
34.92,-1.29,-1.12,-1.27,-1.11,1.11,0.86,1.98,-0.18,-0.16,-0.17
35.27,-1.25,-1.09,-1.23,-1.06,1.06,0.80,1.91,-0.19,-0.17,-0.16
35.62,-1.20,-1.02,-1.18,-1.00,1.00,0.74,1.83,-0.19,-0.18,-0.18
35.97,-1.14,-0.95,-1.14,-0.94,0.94,0.69,1.75,-0.19,-0.19,-0.18
36.33,-1.08,-0.88,-1.09,-0.88,0.88,0.63,1.67,-0.19,-0.20,-0.20
36.70,-1.02,-0.80,-1.03,-0.82,0.82,0.57,1.59,-0.20,-0.22,-0.22
37.06,-0.97,-0.73,-0.98,-0.75,0.75,0.52,1.51,-0.22,-0.23,-0.23
37.43,-0.93,-0.68,-0.93,-0.68,0.68,0.46,1.42,-0.25,-0.25,-0.25
37.81,-0.88,-0.62,-0.87,-0.61,0.61,0.40,1.33,-0.27,-0.26,-0.26
38.19,-0.83,-0.54,-0.82,-0.54,0.54,0.35,1.24,-0.29,-0.28,-0.28
38.57,-0.78,-0.48,-0.77,-0.47,0.47,0.29,1.16,-0.31,-0.30,-0.30
38.95,-0.71,-0.39,-0.71,-0.40,0.40,0.24,1.07,-0.31,-0.32,-0.31
39.34,-0.65,-0.31,-0.66,-0.32,0.32,0.18,0.97,-0.32,-0.34,-0.34
39.74,-0.60,-0.23,-0.61,-0.25,0.25,0.13,0.88,-0.34,-0.36,-0.36
40.14,-0.56,-0.18,-0.56,-0.18,0.18,0.07,0.79,-0.38,-0.37,-0.38
40.54,-0.51,-0.11,-0.50,-0.11,0.11,0.02,0.70,-0.40,-0.39,-0.39
40.94,-0.47,-0.05,-0.45,-0.04,0.04,-0.03,0.61,-0.43,-0.41,-0.42
41.35,-0.42,0.02,-0.40,0.03,-0.03,-0.09,0.52,-0.45,-0.43,-0.43
41.76,-0.36,0.10,-0.35,0.10,-0.10,-0.14,0.42,-0.46,-0.45,-0.46
42.18,-0.31,0.16,-0.31,0.17,-0.17,-0.19,0.33,-0.47,-0.47,-0.47
42.60,-0.26,0.24,-0.26,0.23,-0.23,-0.25,0.24,-0.49,-0.49,-0.49
43.03,-0.21,0.30,-0.22,0.29,-0.29,-0.30,0.15,-0.50,-0.51,-0.51
43.46,-0.17,0.37,-0.18,0.35,-0.35,-0.35,0.05,-0.52,-0.53,-0.54
43.90,-0.13,0.42,-0.14,0.41,-0.41,-0.41,-0.04,-0.54,-0.55,-0.55
44.33,-0.09,0.49,-0.10,0.48,-0.48,-0.46,-0.13,-0.56,-0.58,-0.58
44.78,-0.06,0.54,-0.06,0.54,-0.54,-0.51,-0.22,-0.60,-0.60,-0.60
45.23,-0.03,0.59,-0.03,0.60,-0.60,-0.56,-0.31,-0.63,-0.63,-0.62
45.68,0.00,0.66,0.01,0.66,-0.66,-0.62,-0.41,-0.66,-0.65,-0.65
46.13,0.02,0.71,0.04,0.73,-0.73,-0.67,-0.50,-0.70,-0.68,-0.68
46.60,0.05,0.76,0.07,0.79,-0.79,-0.72,-0.59,-0.73,-0.71,-0.71
47.06,0.09,0.83,0.10,0.85,-0.85,-0.77,-0.68,-0.76,-0.75,-0.74
47.53,0.13,0.90,0.13,0.92,-0.92,-0.82,-0.78,-0.78,-0.78,-0.77
48.01,0.17,0.99,0.16,0.98,-0.98,-0.88,-0.87,-0.81,-0.82,-0.82
48.49,0.20,1.05,0.20,1.05,-1.05,-0.93,-0.96,-0.84,-0.85,-0.85
48.97,0.23,1.12,0.23,1.11,-1.11,-0.98,-1.05,-0.88,-0.88,-0.89
49.46,0.25,1.17,0.26,1.18,-1.18,-1.03,-1.14,-0.92,-0.92,-0.92
49.96,0.27,1.25,0.29,1.24,-1.24,-1.08,-1.23,-0.97,-0.96,-0.97
50.46,0.30,1.30,0.31,1.30,-1.30,-1.13,-1.33,-1.00,-0.99,-0.99
50.96,0.33,1.36,0.33,1.36,-1.36,-1.19,-1.42,-1.03,-1.03,-1.03
51.47,0.35,1.41,0.35,1.41,-1.41,-1.24,-1.51,-1.06,-1.06,-1.06
51.99,0.38,1.48,0.37,1.46,-1.46,-1.29,-1.60,-1.08,-1.09,-1.10
52.51,0.40,1.53,0.38,1.50,-1.50,-1.34,-1.68,-1.10,-1.13,-1.13
53.03,0.41,1.56,0.38,1.55,-1.55,-1.39,-1.77,-1.13,-1.16,-1.15
53.56,0.42,1.61,0.39,1.58,-1.58,-1.44,-1.86,-1.16,-1.19,-1.18
54.10,0.41,1.64,0.40,1.62,-1.62,-1.50,-1.94,-1.21,-1.22,-1.23
54.64,0.40,1.66,0.40,1.66,-1.66,-1.55,-2.03,-1.25,-1.25,-1.25
55.18,0.38,1.67,0.41,1.69,-1.69,-1.60,-2.11,-1.31,-1.28,-1.29
55.74,0.38,1.71,0.41,1.72,-1.72,-1.65,-2.19,-1.34,-1.31,-1.33
56.29,0.38,1.73,0.42,1.76,-1.76,-1.70,-2.26,-1.37,-1.34,-1.34
56.86,0.40,1.78,0.42,1.79,-1.79,-1.76,-2.34,-1.39,-1.37,-1.37
57.42,0.42,1.83,0.43,1.83,-1.83,-1.81,-2.41,-1.41,-1.40,-1.41
58.00,0.44,1.88,0.45,1.88,-1.88,-1.86,-2.48,-1.43,-1.43,-1.44
58.58,0.46,1.92,0.46,1.93,-1.93,-1.91,-2.55,-1.46,-1.47,-1.46
59.16,0.49,1.97,0.48,1.98,-1.98,-1.96,-2.61,-1.49,-1.50,-1.48
59.76,0.52,2.03,0.51,2.04,-2.04,-2.02,-2.67,-1.52,-1.53,-1.51
60.35,0.54,2.10,0.54,2.11,-2.11,-2.07,-2.73,-1.57,-1.57,-1.55
60.96,0.56,2.16,0.58,2.18,-2.18,-2.12,-2.78,-1.62,-1.61,-1.59
61.57,0.59,2.24,0.61,2.26,-2.26,-2.17,-2.83,-1.66,-1.65,-1.65
62.18,0.63,2.32,0.65,2.33,-2.33,-2.23,-2.88,-1.70,-1.68,-1.69
62.80,0.67,2.41,0.68,2.41,-2.41,-2.28,-2.92,-1.73,-1.72,-1.74
63.43,0.71,2.49,0.72,2.48,-2.48,-2.33,-2.96,-1.77,-1.76,-1.78
64.07,0.76,2.58,0.75,2.56,-2.56,-2.38,-2.99,-1.80,-1.80,-1.82
64.71,0.80,2.66,0.79,2.64,-2.64,-2.44,-3.03,-1.83,-1.85,-1.85
65.35,0.84,2.73,0.83,2.71,-2.71,-2.49,-3.05,-1.87,-1.89,-1.89
66.01,0.87,2.80,0.86,2.79,-2.79,-2.54,-3.08,-1.91,-1.93,-1.93
66.67,0.90,2.86,0.90,2.86,-2.86,-2.59,-3.10,-1.96,-1.97,-1.96
67.33,0.92,2.93,0.93,2.93,-2.93,-2.65,-3.12,-2.01,-2.00,-2.01
68.01,0.94,2.98,0.96,3.00,-3.00,-2.70,-3.14,-2.06,-2.04,-2.04
68.69,0.97,3.05,0.98,3.06,-3.06,-2.75,-3.16,-2.09,-2.08,-2.08
69.37,1.00,3.11,1.00,3.12,-3.12,-2.80,-3.17,-2.12,-2.12,-2.11
70.07,1.02,3.18,1.02,3.18,-3.18,-2.86,-3.18,-2.16,-2.16,-2.15
70.77,1.04,3.24,1.03,3.23,-3.23,-2.91,-3.19,-2.19,-2.20,-2.20
71.48,1.06,3.30,1.04,3.28,-3.28,-2.96,-3.20,-2.22,-2.24,-2.23
72.19,1.07,3.35,1.05,3.33,-3.33,-3.02,-3.21,-2.26,-2.28,-2.28
72.91,1.07,3.40,1.06,3.38,-3.38,-3.07,-3.22,-2.30,-2.32,-2.32
73.64,1.07,3.43,1.06,3.42,-3.42,-3.12,-3.23,-2.34,-2.35,-2.36
74.38,1.06,3.46,1.07,3.46,-3.46,-3.17,-3.24,-2.39,-2.39,-2.40
75.12,1.05,3.48,1.07,3.49,-3.49,-3.23,-3.25,-2.44,-2.42,-2.43
75.87,1.05,3.51,1.07,3.52,-3.52,-3.28,-3.26,-2.47,-2.46,-2.46
76.63,1.05,3.55,1.06,3.55,-3.55,-3.33,-3.28,-2.50,-2.49,-2.50
77.40,1.05,3.57,1.06,3.58,-3.58,-3.38,-3.29,-2.53,-2.52,-2.52
78.17,1.05,3.62,1.06,3.61,-3.61,-3.43,-3.31,-2.56,-2.55,-2.56
78.95,1.05,3.63,1.05,3.64,-3.64,-3.49,-3.32,-2.58,-2.58,-2.58
79.74,1.05,3.66,1.05,3.66,-3.66,-3.54,-3.34,-2.61,-2.61,-2.61
80.54,1.05,3.69,1.05,3.69,-3.69,-3.59,-3.36,-2.64,-2.64,-2.64
81.35,1.05,3.72,1.05,3.72,-3.72,-3.64,-3.38,-2.67,-2.67,-2.67
82.16,1.05,3.74,1.05,3.75,-3.75,-3.69,-3.41,-2.70,-2.70,-2.69
82.98,1.05,3.78,1.05,3.78,-3.78,-3.74,-3.44,-2.73,-2.73,-2.72
83.81,1.05,3.81,1.05,3.81,-3.81,-3.79,-3.47,-2.76,-2.76,-2.75
84.65,1.05,3.84,1.05,3.84,-3.84,-3.84,-3.50,-2.79,-2.79,-2.79
85.50,1.05,3.87,1.05,3.87,-3.87,-3.89,-3.53,-2.82,-2.82,-2.82
86.35,1.05,3.90,1.05,3.90,-3.90,-3.94,-3.57,-2.85,-2.85,-2.85
87.22,1.05,3.94,1.05,3.93,-3.93,-3.99,-3.61,-2.88,-2.88,-2.88
88.09,1.05,3.97,1.05,3.97,-3.97,-4.04,-3.65,-2.91,-2.91,-2.91
88.97,1.05,4.00,1.05,4.00,-4.00,-4.09,-3.70,-2.95,-2.95,-2.95
89.86,1.05,4.03,1.05,4.03,-4.03,-4.14,-3.75,-2.98,-2.98,-2.98
90.76,1.05,4.07,1.05,4.07,-4.07,-4.18,-3.80,-3.02,-3.02,-3.01
91.66,1.05,4.11,1.05,4.10,-4.10,-4.23,-3.86,-3.05,-3.05,-3.06
92.58,1.05,4.13,1.05,4.14,-4.14,-4.28,-3.91,-3.09,-3.09,-3.08
93.51,1.05,4.17,1.05,4.18,-4.18,-4.32,-3.97,-3.12,-3.12,-3.12
94.44,1.05,4.20,1.05,4.21,-4.21,-4.37,-4.04,-3.16,-3.16,-3.15
95.39,1.05,4.25,1.05,4.25,-4.25,-4.41,-4.10,-3.20,-3.20,-3.20
96.34,1.05,4.29,1.05,4.29,-4.29,-4.46,-4.17,-3.23,-3.23,-3.23
97.30,1.05,4.32,1.05,4.32,-4.32,-4.50,-4.24,-3.27,-3.27,-3.27
98.28,1.05,4.37,1.05,4.36,-4.36,-4.55,-4.31,-3.31,-3.31,-3.32
99.26,1.05,4.41,1.05,4.40,-4.40,-4.59,-4.39,-3.34,-3.34,-3.35
100.25,1.05,4.44,1.05,4.43,-4.43,-4.63,-4.46,-3.38,-3.38,-3.39
101.25,1.05,4.47,1.05,4.47,-4.47,-4.67,-4.54,-3.41,-3.41,-3.42
102.27,1.05,4.50,1.05,4.50,-4.50,-4.71,-4.62,-3.45,-3.45,-3.45
103.29,1.05,4.54,1.05,4.53,-4.53,-4.75,-4.70,-3.48,-3.48,-3.48
104.32,1.05,4.56,1.05,4.56,-4.56,-4.79,-4.78,-3.51,-3.51,-3.51
105.37,1.05,4.59,1.05,4.60,-4.60,-4.83,-4.86,-3.54,-3.54,-3.54
106.42,1.05,4.62,1.05,4.63,-4.63,-4.86,-4.94,-3.57,-3.57,-3.57
107.48,1.05,4.66,1.05,4.66,-4.66,-4.90,-5.02,-3.60,-3.61,-3.61
108.56,1.05,4.69,1.05,4.69,-4.69,-4.93,-5.10,-3.64,-3.64,-3.63
109.64,1.05,4.71,1.05,4.72,-4.72,-4.97,-5.17,-3.67,-3.67,-3.66
110.74,1.05,4.75,1.05,4.76,-4.76,-5.00,-5.25,-3.70,-3.70,-3.70
111.85,1.05,4.79,1.05,4.79,-4.79,-5.03,-5.32,-3.74,-3.74,-3.74
112.97,1.05,4.82,1.06,4.83,-4.83,-5.06,-5.39,-3.77,-3.77,-3.76
114.10,1.05,4.85,1.06,4.86,-4.86,-5.09,-5.46,-3.81,-3.81,-3.80
115.24,1.05,4.90,1.06,4.90,-4.90,-5.12,-5.52,-3.85,-3.84,-3.84
116.39,1.05,4.93,1.06,4.93,-4.93,-5.15,-5.58,-3.88,-3.87,-3.88
117.55,1.05,4.97,1.07,4.97,-4.97,-5.17,-5.63,-3.92,-3.90,-3.92
118.73,1.05,5.00,1.07,5.00,-5.00,-5.20,-5.67,-3.95,-3.94,-3.95
119.92,1.06,5.04,1.07,5.03,-5.03,-5.22,-5.71,-3.97,-3.97,-3.98
121.12,1.07,5.07,1.06,5.06,-5.06,-5.25,-5.75,-3.99,-4.00,-4.00
122.33,1.07,5.11,1.06,5.09,-5.09,-5.27,-5.77,-4.02,-4.03,-4.03
123.55,1.06,5.12,1.05,5.11,-5.11,-5.29,-5.79,-4.05,-4.07,-4.06
124.79,1.05,5.14,1.04,5.13,-5.13,-5.31,-5.81,-4.08,-4.10,-4.09
126.03,1.04,5.16,1.02,5.15,-5.15,-5.32,-5.81,-4.11,-4.13,-4.12
127.29,1.01,5.16,1.00,5.16,-5.16,-5.34,-5.81,-4.15,-4.16,-4.15
128.57,0.99,5.19,0.98,5.17,-5.17,-5.35,-5.80,-4.18,-4.19,-4.19
129.85,0.96,5.19,0.96,5.18,-5.18,-5.37,-5.79,-4.22,-4.22,-4.22
131.15,0.93,5.19,0.94,5.19,-5.19,-5.38,-5.77,-4.26,-4.26,-4.26
132.46,0.90,5.19,0.91,5.20,-5.20,-5.39,-5.74,-4.30,-4.29,-4.29
133.79,0.87,5.20,0.88,5.20,-5.20,-5.40,-5.71,-4.33,-4.32,-4.33
135.12,0.84,5.20,0.86,5.21,-5.21,-5.41,-5.67,-4.37,-4.35,-4.35
136.48,0.81,5.19,0.83,5.21,-5.21,-5.41,-5.63,-4.40,-4.38,-4.38
137.84,0.79,5.21,0.81,5.22,-5.22,-5.42,-5.58,-4.43,-4.41,-4.41
139.22,0.77,5.22,0.78,5.23,-5.23,-5.42,-5.53,-4.45,-4.44,-4.45
140.61,0.76,5.24,0.76,5.23,-5.23,-5.43,-5.47,-4.47,-4.47,-4.47
142.02,0.74,5.25,0.74,5.24,-5.24,-5.43,-5.42,-4.49,-4.50,-4.51
143.44,0.72,5.25,0.72,5.24,-5.24,-5.43,-5.36,-4.52,-4.52,-4.53
144.87,0.69,5.24,0.70,5.25,-5.25,-5.43,-5.30,-4.56,-4.55,-4.55
146.32,0.68,5.26,0.68,5.25,-5.25,-5.42,-5.23,-4.57,-4.57,-4.58
147.78,0.66,5.26,0.66,5.26,-5.26,-5.42,-5.17,-4.60,-4.60,-4.60
149.26,0.64,5.27,0.64,5.26,-5.26,-5.41,-5.11,-4.62,-4.62,-4.63
150.75,0.62,5.28,0.62,5.27,-5.27,-5.41,-5.05,-4.64,-4.65,-4.65
152.26,0.59,5.26,0.59,5.27,-5.27,-5.40,-4.99,-4.67,-4.67,-4.67
153.78,0.56,5.26,0.57,5.26,-5.26,-5.39,-4.93,-4.70,-4.70,-4.70
155.32,0.54,5.26,0.54,5.26,-5.26,-5.38,-4.87,-4.72,-4.72,-4.72
156.88,0.52,5.27,0.51,5.26,-5.26,-5.37,-4.81,-4.74,-4.75,-4.74
158.44,0.49,5.27,0.48,5.26,-5.26,-5.36,-4.75,-4.77,-4.78,-4.78
160.03,0.46,5.26,0.46,5.26,-5.26,-5.34,-4.70,-4.80,-4.80,-4.80
161.63,0.42,5.25,0.43,5.27,-5.27,-5.33,-4.65,-4.84,-4.83,-4.83
163.24,0.39,5.26,0.40,5.27,-5.27,-5.31,-4.60,-4.87,-4.86,-4.86
164.88,0.35,5.25,0.38,5.27,-5.27,-5.29,-4.56,-4.92,-4.89,-4.89
166.53,0.32,5.25,0.35,5.27,-5.27,-5.28,-4.52,-4.95,-4.92,-4.93
168.19,0.30,5.25,0.31,5.27,-5.27,-5.26,-4.48,-4.97,-4.96,-4.95
169.87,0.28,5.27,0.28,5.27,-5.27,-5.24,-4.44,-4.99,-4.99,-4.99
171.57,0.27,5.30,0.25,5.27,-5.27,-5.21,-4.41,-5.00,-5.02,-5.02
173.29,0.24,5.29,0.22,5.27,-5.27,-5.19,-4.38,-5.03,-5.05,-5.05
175.02,0.20,5.29,0.18,5.27,-5.27,-5.17,-4.35,-5.07,-5.09,-5.09
176.77,0.16,5.28,0.15,5.27,-5.27,-5.14,-4.33,-5.10,-5.12,-5.12
178.54,0.11,5.27,0.11,5.27,-5.27,-5.12,-4.31,-5.15,-5.15,-5.15
180.32,0.06,5.26,0.08,5.26,-5.26,-5.09,-4.29,-5.20,-5.19,-5.20
182.13,0.02,5.24,0.04,5.26,-5.26,-5.07,-4.28,-5.24,-5.22,-5.22
183.95,-0.02,5.23,0.00,5.26,-5.26,-5.04,-4.27,-5.28,-5.26,-5.25
185.79,-0.05,5.25,-0.04,5.25,-5.25,-5.01,-4.26,-5.30,-5.29,-5.29
187.65,-0.08,5.25,-0.08,5.25,-5.25,-4.98,-4.26,-5.32,-5.32,-5.32
189.52,-0.12,5.24,-0.12,5.24,-5.24,-4.96,-4.26,-5.36,-5.35,-5.35
191.42,-0.15,5.24,-0.16,5.23,-5.23,-4.93,-4.26,-5.38,-5.39,-5.38
193.33,-0.19,5.22,-0.19,5.22,-5.22,-4.90,-4.26,-5.41,-5.42,-5.41
195.27,-0.23,5.22,-0.23,5.22,-5.22,-4.86,-4.27,-5.44,-5.45,-5.45
197.22,-0.27,5.22,-0.26,5.21,-5.21,-4.83,-4.28,-5.48,-5.47,-5.49
199.19,-0.30,5.21,-0.30,5.20,-5.20,-4.80,-4.30,-5.50,-5.50,-5.50
201.18,-0.34,5.20,-0.34,5.19,-5.19,-4.77,-4.31,-5.53,-5.53,-5.54
203.19,-0.39,5.17,-0.38,5.17,-5.17,-4.74,-4.33,-5.56,-5.55,-5.55
205.23,-0.43,5.14,-0.42,5.16,-5.16,-4.70,-4.35,-5.58,-5.58,-5.57
207.28,-0.47,5.13,-0.46,5.14,-5.14,-4.67,-4.37,-5.60,-5.60,-5.59
209.35,-0.50,5.12,-0.51,5.12,-5.12,-4.64,-4.39,-5.61,-5.62,-5.62
211.44,-0.54,5.11,-0.55,5.09,-5.09,-4.60,-4.41,-5.63,-5.64,-5.64
213.56,-0.58,5.08,-0.60,5.07,-5.07,-4.57,-4.43,-5.64,-5.66,-5.66
215.69,-0.64,5.04,-0.64,5.04,-5.04,-4.53,-4.45,-5.68,-5.68,-5.68
217.85,-0.70,5.00,-0.69,5.01,-5.01,-4.50,-4.48,-5.71,-5.70,-5.70
220.03,-0.76,4.97,-0.74,4.98,-4.98,-4.47,-4.50,-5.73,-5.72,-5.72
222.23,-0.81,4.94,-0.79,4.94,-4.94,-4.43,-4.52,-5.75,-5.74,-5.74
224.45,-0.85,4.91,-0.85,4.91,-4.91,-4.40,-4.54,-5.76,-5.75,-5.76
226.70,-0.90,4.88,-0.90,4.87,-4.87,-4.36,-4.56,-5.77,-5.77,-5.78
228.96,-0.94,4.84,-0.95,4.83,-4.83,-4.33,-4.58,-5.77,-5.78,-5.78
231.25,-1.00,4.80,-1.01,4.79,-4.79,-4.29,-4.60,-5.79,-5.80,-5.80
233.57,-1.06,4.75,-1.06,4.75,-4.75,-4.26,-4.61,-5.80,-5.81,-5.81
235.90,-1.12,4.70,-1.11,4.70,-4.70,-4.22,-4.62,-5.82,-5.81,-5.82
238.26,-1.18,4.66,-1.17,4.66,-4.66,-4.19,-4.63,-5.83,-5.82,-5.83
240.64,-1.23,4.60,-1.22,4.61,-4.61,-4.15,-4.63,-5.84,-5.83,-5.82
243.05,-1.27,4.56,-1.27,4.57,-4.57,-4.12,-4.63,-5.83,-5.83,-5.83
245.48,-1.32,4.52,-1.32,4.52,-4.52,-4.08,-4.63,-5.83,-5.83,-5.84
247.93,-1.37,4.48,-1.37,4.47,-4.47,-4.05,-4.62,-5.84,-5.84,-5.85
250.41,-1.43,4.41,-1.42,4.42,-4.42,-4.02,-4.61,-5.84,-5.84,-5.83
252.92,-1.48,4.35,-1.47,4.37,-4.37,-3.98,-4.59,-5.84,-5.84,-5.83
255.45,-1.52,4.32,-1.52,4.32,-4.32,-3.95,-4.57,-5.83,-5.84,-5.84
258.00,-1.57,4.27,-1.57,4.27,-4.27,-3.92,-4.55,-5.83,-5.84,-5.83
260.58,-1.62,4.21,-1.62,4.21,-4.21,-3.89,-4.52,-5.83,-5.84,-5.83
263.19,-1.67,4.16,-1.67,4.16,-4.16,-3.85,-4.49,-5.83,-5.83,-5.83
265.82,-1.72,4.12,-1.73,4.11,-4.11,-3.82,-4.46,-5.82,-5.83,-5.83
268.48,-1.78,4.05,-1.78,4.05,-4.05,-3.79,-4.42,-5.83,-5.83,-5.83
271.16,-1.84,3.99,-1.84,3.99,-3.99,-3.76,-4.38,-5.83,-5.83,-5.82
273.87,-1.89,3.94,-1.89,3.94,-3.94,-3.73,-4.33,-5.82,-5.83,-5.83
276.61,-1.95,3.88,-1.95,3.88,-3.88,-3.70,-4.29,-5.82,-5.83,-5.82
279.38,-2.01,3.83,-2.01,3.82,-3.82,-3.67,-4.24,-5.82,-5.83,-5.84
282.17,-2.08,3.76,-2.07,3.75,-3.75,-3.64,-4.19,-5.83,-5.82,-5.83
284.99,-2.14,3.68,-2.13,3.69,-3.69,-3.61,-4.14,-5.83,-5.82,-5.82
287.84,-2.19,3.63,-2.19,3.63,-3.63,-3.58,-4.09,-5.81,-5.81,-5.81
290.72,-2.25,3.57,-2.24,3.57,-3.57,-3.56,-4.04,-5.81,-5.81,-5.82
293.63,-2.30,3.50,-2.30,3.50,-3.50,-3.53,-3.99,-5.80,-5.80,-5.80
296.57,-2.35,3.45,-2.35,3.44,-3.44,-3.50,-3.93,-5.79,-5.80,-5.80
299.53,-2.41,3.38,-2.41,3.38,-3.38,-3.48,-3.88,-5.79,-5.79,-5.79
302.53,-2.47,3.31,-2.46,3.32,-3.32,-3.45,-3.83,-5.79,-5.78,-5.77
305.55,-2.53,3.25,-2.51,3.26,-3.26,-3.43,-3.78,-5.79,-5.77,-5.78
308.61,-2.57,3.19,-2.55,3.21,-3.21,-3.40,-3.73,-5.78,-5.76,-5.76
311.69,-2.61,3.15,-2.60,3.15,-3.15,-3.38,-3.68,-5.76,-5.75,-5.75
314.81,-2.64,3.11,-2.65,3.10,-3.10,-3.36,-3.63,-5.73,-5.74,-5.75
317.96,-2.69,3.05,-2.69,3.04,-3.04,-3.34,-3.58,-5.73,-5.74,-5.74
321.14,-2.73,2.99,-2.74,2.98,-2.98,-3.31,-3.54,-5.71,-5.73,-5.72
324.35,-2.78,2.95,-2.79,2.93,-2.93,-3.29,-3.50,-5.71,-5.72,-5.72
327.59,-2.82,2.88,-2.83,2.88,-2.88,-3.27,-3.45,-5.70,-5.71,-5.70
330.87,-2.86,2.84,-2.87,2.83,-2.83,-3.26,-3.42,-5.69,-5.70,-5.70
334.18,-2.91,2.78,-2.91,2.78,-2.78,-3.24,-3.38,-5.69,-5.69,-5.69
337.52,-2.95,2.74,-2.95,2.73,-2.73,-3.22,-3.34,-5.68,-5.68,-5.68
340.90,-3.00,2.67,-2.98,2.69,-2.69,-3.20,-3.31,-5.68,-5.67,-5.67
344.30,-3.04,2.62,-3.02,2.64,-2.64,-3.19,-3.28,-5.68,-5.66,-5.66
347.75,-3.07,2.58,-3.05,2.60,-2.60,-3.17,-3.25,-5.66,-5.65,-5.65
351.23,-3.10,2.56,-3.09,2.56,-2.56,-3.16,-3.23,-5.65,-5.64,-5.65
354.74,-3.11,2.52,-3.11,2.52,-2.52,-3.15,-3.21,-5.63,-5.63,-5.62
358.28,-3.13,2.50,-3.14,2.49,-2.49,-3.13,-3.19,-5.62,-5.62,-5.63
361.87,-3.15,2.47,-3.16,2.46,-2.46,-3.12,-3.17,-5.61,-5.62,-5.62
365.49,-3.17,2.44,-3.17,2.44,-2.44,-3.11,-3.15,-5.60,-5.61,-5.61
369.14,-3.19,2.40,-3.18,2.41,-2.41,-3.10,-3.14,-5.60,-5.60,-5.59
372.83,-3.20,2.39,-3.19,2.40,-2.40,-3.10,-3.13,-5.59,-5.59,-5.58
376.56,-3.20,2.39,-3.20,2.38,-2.38,-3.09,-3.12,-5.58,-5.58,-5.58
380.33,-3.21,2.37,-3.20,2.37,-2.37,-3.08,-3.11,-5.58,-5.57,-5.58
384.13,-3.20,2.36,-3.19,2.36,-2.36,-3.08,-3.11,-5.56,-5.56,-5.56
387.97,-3.19,2.36,-3.19,2.36,-2.36,-3.07,-3.10,-5.55,-5.55,-5.55
391.85,-3.18,2.36,-3.18,2.36,-2.36,-3.07,-3.10,-5.53,-5.54,-5.54
395.77,-3.17,2.36,-3.17,2.36,-2.36,-3.07,-3.11,-5.52,-5.53,-5.53
399.73,-3.15,2.38,-3.15,2.36,-2.36,-3.07,-3.11,-5.51,-5.52,-5.52
403.72,-3.13,2.37,-3.13,2.37,-2.37,-3.07,-3.11,-5.50,-5.50,-5.49
407.76,-3.12,2.38,-3.11,2.38,-2.38,-3.07,-3.12,-5.50,-5.49,-5.49
411.84,-3.09,2.40,-3.08,2.40,-2.40,-3.07,-3.13,-5.49,-5.48,-5.49
415.96,-3.06,2.41,-3.05,2.42,-2.42,-3.07,-3.14,-5.48,-5.47,-5.47
420.12,-3.02,2.45,-3.02,2.45,-2.45,-3.08,-3.15,-5.47,-5.46,-5.47
424.32,-2.98,2.48,-2.98,2.48,-2.48,-3.08,-3.16,-5.46,-5.46,-5.46
428.56,-2.95,2.49,-2.94,2.51,-2.51,-3.09,-3.18,-5.46,-5.45,-5.44
432.85,-2.90,2.53,-2.89,2.54,-2.54,-3.10,-3.19,-5.44,-5.44,-5.43
437.18,-2.85,2.58,-2.85,2.58,-2.58,-3.11,-3.21,-5.43,-5.43,-5.43
441.55,-2.79,2.63,-2.80,2.62,-2.62,-3.12,-3.22,-5.41,-5.42,-5.42
445.96,-2.74,2.68,-2.74,2.66,-2.66,-3.13,-3.24,-5.40,-5.41,-5.41
450.42,-2.68,2.73,-2.69,2.71,-2.71,-3.15,-3.25,-5.39,-5.40,-5.40
