frequency,raw,error,smoothed,error_smoothed,equalization,parametric_eq,fixed_band_eq,equalized_raw,equalized_smoothed,target
20.00,-1.01,-0.51,-1.01,-0.55,0.55,0.35,0.52,-0.46,-0.46,-0.49
20.20,-1.01,-0.56,-1.01,-0.59,0.59,0.36,0.53,-0.42,-0.42,-0.44
20.40,-1.01,-0.61,-1.01,-0.62,0.62,0.37,0.55,-0.38,-0.39,-0.39
20.61,-1.01,-0.64,-1.01,-0.65,0.65,0.38,0.56,-0.35,-0.36,-0.36
20.81,-1.01,-0.69,-1.01,-0.68,0.68,0.39,0.58,-0.32,-0.33,-0.31
21.02,-1.01,-0.73,-1.01,-0.71,0.71,0.40,0.59,-0.30,-0.30,-0.27
21.23,-1.01,-0.75,-1.00,-0.73,0.73,0.41,0.61,-0.28,-0.27,-0.25
21.44,-1.01,-0.77,-1.00,-0.75,0.75,0.42,0.63,-0.26,-0.25,-0.23
21.66,-1.01,-0.79,-0.99,-0.76,0.76,0.43,0.65,-0.24,-0.23,-0.21
21.87,-1.01,-0.80,-0.98,-0.77,0.77,0.44,0.66,-0.23,-0.21,-0.20
22.09,-1.00,-0.81,-0.98,-0.78,0.78,0.45,0.68,-0.22,-0.20,-0.18
22.31,-0.98,-0.80,-0.97,-0.78,0.78,0.46,0.70,-0.19,-0.18,-0.17
22.54,-0.97,-0.79,-0.95,-0.77,0.77,0.47,0.72,-0.19,-0.18,-0.17
22.76,-0.95,-0.77,-0.93,-0.76,0.76,0.48,0.74,-0.19,-0.17,-0.17
22.99,-0.93,-0.74,-0.92,-0.74,0.74,0.50,0.76,-0.18,-0.17,-0.19
23.22,-0.91,-0.72,-0.90,-0.73,0.73,0.51,0.78,-0.18,-0.17,-0.19
23.45,-0.88,-0.69,-0.88,-0.71,0.71,0.52,0.80,-0.16,-0.17,-0.19
23.69,-0.85,-0.67,-0.87,-0.70,0.70,0.53,0.82,-0.15,-0.17,-0.18
23.92,-0.83,-0.65,-0.85,-0.68,0.68,0.55,0.85,-0.14,-0.17,-0.18
24.16,-0.82,-0.65,-0.84,-0.67,0.67,0.56,0.87,-0.15,-0.17,-0.17
24.40,-0.82,-0.66,-0.83,-0.66,0.66,0.58,0.89,-0.16,-0.17,-0.16
24.65,-0.82,-0.65,-0.82,-0.65,0.65,0.59,0.91,-0.17,-0.17,-0.17
24.89,-0.82,-0.65,-0.81,-0.65,0.65,0.61,0.94,-0.17,-0.17,-0.17
25.14,-0.82,-0.65,-0.81,-0.64,0.64,0.62,0.96,-0.17,-0.17,-0.17
25.39,-0.82,-0.66,-0.81,-0.64,0.64,0.64,0.98,-0.17,-0.17,-0.16
25.65,-0.82,-0.66,-0.80,-0.64,0.64,0.65,1.01,-0.18,-0.16,-0.16
25.91,-0.82,-0.65,-0.80,-0.64,0.64,0.67,1.03,-0.18,-0.16,-0.17
26.16,-0.82,-0.64,-0.80,-0.64,0.64,0.69,1.05,-0.18,-0.16,-0.17
26.43,-0.82,-0.64,-0.81,-0.64,0.64,0.70,1.08,-0.17,-0.17,-0.17
26.69,-0.82,-0.64,-0.81,-0.65,0.65,0.72,1.10,-0.17,-0.17,-0.17
26.96,-0.82,-0.65,-0.82,-0.65,0.65,0.74,1.12,-0.17,-0.17,-0.16
27.23,-0.82,-0.65,-0.83,-0.65,0.65,0.76,1.15,-0.16,-0.17,-0.16
27.50,-0.82,-0.65,-0.83,-0.66,0.66,0.78,1.17,-0.16,-0.17,-0.16
27.77,-0.82,-0.64,-0.84,-0.66,0.66,0.80,1.19,-0.15,-0.17,-0.18
28.05,-0.83,-0.65,-0.84,-0.67,0.67,0.82,1.21,-0.16,-0.18,-0.18
28.33,-0.86,-0.67,-0.85,-0.68,0.68,0.84,1.23,-0.18,-0.18,-0.19
28.62,-0.89,-0.70,-0.86,-0.69,0.69,0.86,1.25,-0.20,-0.18,-0.19
28.90,-0.92,-0.74,-0.88,-0.70,0.70,0.89,1.26,-0.22,-0.18,-0.18
29.19,-0.92,-0.73,-0.89,-0.71,0.71,0.91,1.28,-0.20,-0.18,-0.19
29.48,-0.92,-0.74,-0.91,-0.73,0.73,0.93,1.30,-0.19,-0.18,-0.17
29.78,-0.91,-0.72,-0.93,-0.75,0.75,0.96,1.31,-0.16,-0.18,-0.18
30.08,-0.91,-0.73,-0.94,-0.76,0.76,0.98,1.32,-0.14,-0.18,-0.17
30.38,-0.94,-0.75,-0.96,-0.78,0.78,1.01,1.33,-0.16,-0.18,-0.18
30.68,-0.98,-0.79,-0.97,-0.79,0.79,1.03,1.34,-0.19,-0.18,-0.18
30.99,-1.01,-0.82,-0.99,-0.81,0.81,1.06,1.35,-0.20,-0.18,-0.19
31.30,-1.04,-0.85,-1.01,-0.82,0.82,1.08,1.36,-0.21,-0.19,-0.19
31.61,-1.07,-0.88,-1.03,-0.84,0.84,1.11,1.36,-0.22,-0.19,-0.19
31.93,-1.09,-0.90,-1.05,-0.86,0.86,1.14,1.37,-0.22,-0.19,-0.19
32.24,-1.10,-0.89,-1.08,-0.89,0.89,1.17,1.37,-0.21,-0.19,-0.20
32.57,-1.10,-0.90,-1.11,-0.92,0.92,1.20,1.37,-0.18,-0.20,-0.19
32.89,-1.10,-0.90,-1.15,-0.95,0.95,1.23,1.37,-0.14,-0.20,-0.19
33.22,-1.14,-0.93,-1.19,-0.99,0.99,1.26,1.37,-0.15,-0.20,-0.21
33.55,-1.21,-1.00,-1.24,-1.03,1.03,1.29,1.37,-0.18,-0.21,-0.21
33.89,-1.28,-1.06,-1.28,-1.07,1.07,1.32,1.36,-0.20,-0.21,-0.22
34.23,-1.33,-1.12,-1.33,-1.11,1.11,1.35,1.36,-0.21,-0.22,-0.21
34.57,-1.38,-1.15,-1.38,-1.16,1.16,1.38,1.35,-0.22,-0.22,-0.22
34.92,-1.42,-1.20,-1.42,-1.20,1.20,1.42,1.35,-0.23,-0.22,-0.22
35.27,-1.48,-1.26,-1.47,-1.25,1.25,1.45,1.34,-0.24,-0.22,-0.23
35.62,-1.55,-1.32,-1.52,-1.30,1.30,1.48,1.33,-0.25,-0.23,-0.23
35.97,-1.61,-1.38,-1.57,-1.34,1.34,1.52,1.33,-0.26,-0.23,-0.23
36.33,-1.64,-1.41,-1.61,-1.38,1.38,1.55,1.32,-0.25,-0.23,-0.22
36.70,-1.67,-1.43,-1.64,-1.41,1.41,1.58,1.31,-0.26,-0.23,-0.23
37.06,-1.69,-1.45,-1.66,-1.43,1.43,1.62,1.30,-0.25,-0.23,-0.24
37.43,-1.69,-1.47,-1.67,-1.45,1.45,1.65,1.30,-0.24,-0.22,-0.22
37.81,-1.70,-1.47,-1.68,-1.46,1.46,1.68,1.29,-0.23,-0.22,-0.22
38.19,-1.72,-1.49,-1.70,-1.48,1.48,1.72,1.28,-0.24,-0.22,-0.22
38.57,-1.76,-1.54,-1.72,-1.50,1.50,1.75,1.28,-0.26,-0.22,-0.22
38.95,-1.80,-1.59,-1.74,-1.52,1.52,1.78,1.27,-0.28,-0.22,-0.21
39.34,-1.75,-1.54,-1.76,-1.55,1.55,1.81,1.26,-0.20,-0.21,-0.21
39.74,-1.71,-1.49,-1.80,-1.58,1.58,1.84,1.26,-0.12,-0.21,-0.22
40.14,-1.71,-1.50,-1.84,-1.63,1.63,1.87,1.26,-0.08,-0.21,-0.21
40.54,-1.80,-1.59,-1.89,-1.68,1.68,1.90,1.25,-0.13,-0.21,-0.21
40.94,-1.92,-1.70,-1.95,-1.73,1.73,1.93,1.25,-0.18,-0.21,-0.22
41.35,-2.01,-1.79,-2.02,-1.80,1.80,1.96,1.25,-0.20,-0.22,-0.22
41.76,-2.11,-1.88,-2.10,-1.88,1.88,1.99,1.25,-0.23,-0.22,-0.22
42.18,-2.21,-1.99,-2.20,-1.97,1.97,2.01,1.25,-0.24,-0.23,-0.22
42.60,-2.32,-2.09,-2.29,-2.06,2.06,2.03,1.25,-0.26,-0.24,-0.23
43.03,-2.43,-2.19,-2.39,-2.14,2.14,2.06,1.25,-0.28,-0.25,-0.24
43.46,-2.50,-2.26,-2.49,-2.24,2.24,2.08,1.26,-0.26,-0.25,-0.24
43.90,-2.57,-2.31,-2.61,-2.34,2.34,2.09,1.26,-0.23,-0.26,-0.26
44.33,-2.69,-2.41,-2.72,-2.44,2.44,2.11,1.26,-0.24,-0.27,-0.28
44.78,-2.80,-2.51,-2.82,-2.54,2.54,2.12,1.27,-0.27,-0.28,-0.29
45.23,-2.91,-2.62,-2.91,-2.62,2.62,2.14,1.28,-0.30,-0.29,-0.30
45.68,-3.02,-2.71,-2.99,-2.69,2.69,2.15,1.29,-0.34,-0.31,-0.31
46.13,-3.10,-2.77,-3.07,-2.75,2.75,2.15,1.30,-0.35,-0.32,-0.33
46.60,-3.09,-2.76,-3.12,-2.80,2.80,2.16,1.31,-0.29,-0.33,-0.33
47.06,-3.10,-2.75,-3.16,-2.82,2.82,2.16,1.32,-0.27,-0.34,-0.34
47.53,-3.19,-2.84,-3.19,-2.83,2.83,2.16,1.33,-0.35,-0.35,-0.35
48.01,-3.27,-2.92,-3.18,-2.82,2.82,2.16,1.34,-0.44,-0.36,-0.34
48.49,-3.25,-2.89,-3.16,-2.78,2.78,2.16,1.36,-0.46,-0.37,-0.36
48.97,-3.21,-2.84,-3.10,-2.72,2.72,2.15,1.37,-0.49,-0.38,-0.38
49.46,-3.11,-2.72,-3.03,-2.63,2.63,2.14,1.39,-0.48,-0.39,-0.39
49.96,-3.01,-2.59,-2.92,-2.52,2.52,2.13,1.40,-0.48,-0.40,-0.41
50.46,-2.88,-2.47,-2.81,-2.40,2.40,2.12,1.42,-0.48,-0.41,-0.41
50.96,-2.74,-2.32,-2.68,-2.26,2.26,2.10,1.44,-0.47,-0.42,-0.42
51.47,-2.57,-2.13,-2.55,-2.13,2.13,2.09,1.45,-0.44,-0.42,-0.44
51.99,-2.40,-1.95,-2.42,-1.99,1.99,2.07,1.47,-0.41,-0.43,-0.44
52.51,-2.23,-1.78,-2.29,-1.85,1.85,2.05,1.49,-0.38,-0.44,-0.44
53.03,-2.05,-1.60,-2.17,-1.72,1.72,2.02,1.51,-0.33,-0.45,-0.44
53.56,-1.95,-1.49,-2.07,-1.61,1.61,2.00,1.52,-0.34,-0.46,-0.45
54.10,-1.85,-1.39,-1.98,-1.52,1.52,1.97,1.54,-0.33,-0.46,-0.46
54.64,-1.78,-1.30,-1.91,-1.44,1.44,1.95,1.56,-0.33,-0.47,-0.47
55.18,-1.74,-1.26,-1.85,-1.38,1.38,1.92,1.57,-0.36,-0.47,-0.47
55.74,-1.77,-1.28,-1.80,-1.32,1.32,1.89,1.59,-0.45,-0.48,-0.48
56.29,-1.78,-1.29,-1.75,-1.27,1.27,1.86,1.60,-0.51,-0.48,-0.48
56.86,-1.78,-1.28,-1.71,-1.22,1.22,1.83,1.62,-0.56,-0.49,-0.50
57.42,-1.80,-1.28,-1.67,-1.17,1.17,1.80,1.63,-0.62,-0.50,-0.52
58.00,-1.82,-1.30,-1.64,-1.13,1.13,1.76,1.64,-0.69,-0.52,-0.52
58.58,-1.80,-1.27,-1.62,-1.09,1.09,1.73,1.65,-0.71,-0.53,-0.52
59.16,-1.73,-1.20,-1.59,-1.04,1.04,1.70,1.66,-0.69,-0.55,-0.54
59.76,-1.60,-1.05,-1.57,-1.00,1.00,1.66,1.67,-0.60,-0.57,-0.55
60.35,-1.48,-0.90,-1.55,-0.96,0.96,1.63,1.67,-0.53,-0.59,-0.58
60.96,-1.40,-0.79,-1.53,-0.91,0.91,1.60,1.68,-0.49,-0.62,-0.61
61.57,-1.39,-0.74,-1.51,-0.87,0.87,1.56,1.68,-0.52,-0.65,-0.64
62.18,-1.41,-0.73,-1.51,-0.83,0.83,1.53,1.68,-0.58,-0.68,-0.68
62.80,-1.47,-0.75,-1.51,-0.80,0.80,1.50,1.68,-0.66,-0.71,-0.71
63.43,-1.53,-0.77,-1.54,-0.79,0.79,1.46,1.67,-0.73,-0.74,-0.75
64.07,-1.59,-0.80,-1.58,-0.80,0.80,1.43,1.66,-0.78,-0.78,-0.79
64.71,-1.67,-0.84,-1.65,-0.83,0.83,1.40,1.66,-0.83,-0.81,-0.82
65.35,-1.76,-0.90,-1.74,-0.88,0.88,1.36,1.65,-0.87,-0.85,-0.85
66.01,-1.85,-0.95,-1.85,-0.96,0.96,1.33,1.63,-0.89,-0.89,-0.89
66.67,-1.94,-1.00,-1.97,-1.04,1.04,1.30,1.62,-0.89,-0.93,-0.93
67.33,-2.06,-1.09,-2.11,-1.14,1.14,1.27,1.61,-0.92,-0.97,-0.97
68.01,-2.21,-1.20,-2.26,-1.25,1.25,1.24,1.59,-0.95,-1.00,-1.00
68.69,-2.37,-1.33,-2.41,-1.37,1.37,1.21,1.57,-1.01,-1.04,-1.04
69.37,-2.56,-1.47,-2.57,-1.48,1.48,1.18,1.55,-1.07,-1.08,-1.08
70.07,-2.73,-1.60,-2.72,-1.59,1.59,1.15,1.53,-1.13,-1.13,-1.12
70.77,-2.87,-1.71,-2.87,-1.70,1.70,1.12,1.51,-1.16,-1.17,-1.16
71.48,-2.98,-1.79,-3.01,-1.80,1.80,1.09,1.49,-1.19,-1.21,-1.20
72.19,-3.11,-1.85,-3.14,-1.88,1.88,1.06,1.47,-1.22,-1.25,-1.25
72.91,-3.25,-1.95,-3.25,-1.95,1.95,1.04,1.44,-1.30,-1.30,-1.30
73.64,-3.39,-2.04,-3.33,-1.99,1.99,1.01,1.42,-1.40,-1.34,-1.34
74.38,-3.51,-2.12,-3.38,-2.00,2.00,0.98,1.40,-1.51,-1.39,-1.39
75.12,-3.59,-2.15,-3.41,-1.98,1.98,0.96,1.37,-1.61,-1.43,-1.43
75.87,-3.50,-2.01,-3.40,-1.93,1.93,0.93,1.35,-1.56,-1.47,-1.48
76.63,-3.43,-1.91,-3.36,-1.85,1.85,0.91,1.32,-1.57,-1.51,-1.52
77.40,-3.38,-1.82,-3.30,-1.74,1.74,0.89,1.30,-1.63,-1.55,-1.56
78.17,-3.31,-1.71,-3.21,-1.62,1.62,0.86,1.28,-1.70,-1.59,-1.60
78.95,-3.13,-1.51,-3.10,-1.47,1.47,0.84,1.26,-1.67,-1.63,-1.62
79.74,-2.99,-1.33,-2.98,-1.31,1.31,0.82,1.23,-1.68,-1.66,-1.66
80.54,-2.83,-1.13,-2.85,-1.15,1.15,0.80,1.21,-1.67,-1.70,-1.69
81.35,-2.68,-0.94,-2.73,-1.00,1.00,0.78,1.19,-1.68,-1.73,-1.73
82.16,-2.56,-0.79,-2.63,-0.86,0.86,0.76,1.17,-1.69,-1.76,-1.76
82.98,-2.45,-0.66,-2.55,-0.75,0.75,0.74,1.15,-1.69,-1.79,-1.79
83.81,-2.34,-0.51,-2.49,-0.66,0.66,0.72,1.13,-1.67,-1.83,-1.83
84.65,-2.28,-0.41,-2.45,-0.59,0.59,0.70,1.11,-1.68,-1.86,-1.86
85.50,-2.26,-0.37,-2.44,-0.54,0.54,0.68,1.09,-1.71,-1.89,-1.88
86.35,-2.30,-0.38,-2.44,-0.52,0.52,0.67,1.08,-1.78,-1.92,-1.92
87.22,-2.39,-0.44,-2.46,-0.51,0.51,0.65,1.06,-1.89,-1.96,-1.95
88.09,-2.52,-0.53,-2.50,-0.51,0.51,0.63,1.05,-2.00,-1.99,-1.99
88.97,-2.63,-0.60,-2.55,-0.52,0.52,0.62,1.03,-2.10,-2.02,-2.02
89.86,-2.78,-0.72,-2.60,-0.54,0.54,0.60,1.02,-2.23,-2.06,-2.06
90.76,-2.83,-0.73,-2.64,-0.55,0.55,0.59,1.00,-2.27,-2.09,-2.09
91.66,-2.77,-0.64,-2.68,-0.55,0.55,0.57,0.99,-2.21,-2.13,-2.12
92.58,-2.72,-0.55,-2.70,-0.54,0.54,0.56,0.98,-2.17,-2.16,-2.17
93.51,-2.76,-0.56,-2.71,-0.52,0.52,0.54,0.97,-2.24,-2.19,-2.20
94.44,-2.79,-0.56,-2.70,-0.48,0.48,0.53,0.96,-2.31,-2.22,-2.22
95.39,-2.73,-0.47,-2.67,-0.41,0.41,0.52,0.95,-2.31,-2.26,-2.25
96.34,-2.66,-0.37,-2.62,-0.33,0.33,0.51,0.94,-2.32,-2.29,-2.29
97.30,-2.57,-0.25,-2.56,-0.25,0.25,0.49,0.94,-2.32,-2.32,-2.32
98.28,-2.53,-0.18,-2.51,-0.16,0.16,0.48,0.93,-2.37,-2.35,-2.35
99.26,-2.47,-0.09,-2.46,-0.08,0.08,0.47,0.92,-2.38,-2.38,-2.38
100.25,-2.38,0.03,-2.42,-0.02,0.02,0.46,0.92,-2.36,-2.41,-2.40
101.25,-2.33,0.11,-2.41,0.02,-0.02,0.45,0.91,-2.35,-2.43,-2.43
102.27,-2.33,0.14,-2.43,0.04,-0.04,0.44,0.91,-2.37,-2.47,-2.46
103.29,-2.34,0.17,-2.45,0.04,-0.04,0.43,0.90,-2.38,-2.50,-2.50
104.32,-2.36,0.17,-2.49,0.04,-0.04,0.42,0.90,-2.39,-2.53,-2.52
105.37,-2.41,0.15,-2.55,0.01,-0.01,0.42,0.89,-2.42,-2.56,-2.55
106.42,-2.52,0.07,-2.62,-0.03,0.03,0.41,0.89,-2.49,-2.59,-2.58
107.48,-2.68,-0.06,-2.69,-0.07,0.07,0.40,0.88,-2.61,-2.62,-2.62
108.56,-2.85,-0.19,-2.77,-0.12,0.12,0.39,0.88,-2.73,-2.66,-2.66
109.64,-2.97,-0.28,-2.86,-0.17,0.17,0.39,0.87,-2.80,-2.69,-2.69
110.74,-3.10,-0.37,-2.95,-0.22,0.22,0.38,0.87,-2.88,-2.73,-2.73
111.85,-3.19,-0.44,-3.02,-0.27,0.27,0.38,0.86,-2.92,-2.76,-2.75
112.97,-3.20,-0.40,-3.09,-0.30,0.30,0.38,0.86,-2.89,-2.79,-2.80
114.10,-3.21,-0.38,-3.15,-0.33,0.33,0.37,0.85,-2.87,-2.82,-2.82
115.24,-3.21,-0.35,-3.20,-0.36,0.36,0.37,0.84,-2.85,-2.85,-2.85
116.39,-3.21,-0.32,-3.24,-0.36,0.36,0.37,0.84,-2.84,-2.88,-2.89
117.55,-3.20,-0.29,-3.26,-0.36,0.36,0.37,0.83,-2.84,-2.90,-2.91
118.73,-3.23,-0.29,-3.28,-0.35,0.35,0.37,0.82,-2.87,-2.92,-2.93
119.92,-3.30,-0.35,-3.28,-0.33,0.33,0.37,0.81,-2.96,-2.94,-2.94
121.12,-3.30,-0.33,-3.28,-0.32,0.32,0.38,0.80,-2.98,-2.96,-2.97
122.33,-3.28,-0.29,-3.29,-0.31,0.31,0.38,0.79,-2.97,-2.98,-2.99
123.55,-3.28,-0.28,-3.29,-0.30,0.30,0.39,0.77,-2.98,-3.00,-2.99
124.79,-3.35,-0.34,-3.31,-0.30,0.30,0.40,0.76,-3.04,-3.01,-3.01
126.03,-3.38,-0.35,-3.35,-0.33,0.33,0.41,0.74,-3.05,-3.02,-3.02
127.29,-3.36,-0.33,-3.39,-0.35,0.35,0.43,0.73,-3.00,-3.04,-3.03
128.57,-3.41,-0.36,-3.45,-0.40,0.40,0.45,0.71,-3.01,-3.05,-3.05
129.85,-3.54,-0.47,-3.52,-0.46,0.46,0.47,0.69,-3.08,-3.06,-3.06
131.15,-3.54,-0.46,-3.60,-0.52,0.52,0.49,0.67,-3.01,-3.07,-3.08
132.46,-3.57,-0.48,-3.68,-0.59,0.59,0.53,0.65,-2.98,-3.09,-3.09
133.79,-3.71,-0.60,-3.77,-0.66,0.66,0.56,0.63,-3.04,-3.10,-3.10
135.12,-3.82,-0.69,-3.86,-0.75,0.75,0.61,0.61,-3.07,-3.11,-3.12
136.48,-3.96,-0.83,-3.95,-0.83,0.83,0.66,0.58,-3.12,-3.12,-3.12
137.84,-4.13,-0.98,-4.05,-0.91,0.91,0.72,0.56,-3.22,-3.14,-3.14
139.22,-4.24,-1.07,-4.15,-1.00,1.00,0.78,0.53,-3.24,-3.15,-3.16
140.61,-4.34,-1.15,-4.26,-1.09,1.09,0.87,0.50,-3.24,-3.17,-3.18
142.02,-4.52,-1.33,-4.37,-1.19,1.19,0.96,0.48,-3.33,-3.18,-3.18
143.44,-4.52,-1.32,-4.48,-1.27,1.27,1.07,0.45,-3.24,-3.20,-3.20
144.87,-4.55,-1.32,-4.58,-1.35,1.35,1.19,0.42,-3.20,-3.23,-3.23
146.32,-4.64,-1.38,-4.69,-1.43,1.43,1.32,0.39,-3.20,-3.26,-3.25
147.78,-4.73,-1.46,-4.82,-1.52,1.52,1.46,0.36,-3.20,-3.30,-3.27
149.26,-4.81,-1.50,-4.95,-1.62,1.62,1.60,0.33,-3.19,-3.34,-3.30
150.75,-4.93,-1.57,-5.10,-1.72,1.72,1.74,0.30,-3.21,-3.38,-3.36
152.26,-5.15,-1.73,-5.25,-1.81,1.81,1.86,0.27,-3.33,-3.43,-3.41
153.78,-5.38,-1.91,-5.39,-1.90,1.90,1.94,0.24,-3.47,-3.49,-3.47
155.32,-5.40,-1.86,-5.50,-1.96,1.96,1.97,0.21,-3.44,-3.54,-3.53
156.88,-5.42,-1.82,-5.58,-1.98,1.98,1.95,0.18,-3.44,-3.60,-3.59
158.44,-5.54,-1.87,-5.61,-1.95,1.95,1.87,0.14,-3.58,-3.66,-3.67
160.03,-5.81,-2.07,-5.61,-1.89,1.89,1.75,0.11,-3.92,-3.72,-3.74
161.63,-5.97,-2.17,-5.55,-1.77,1.77,1.60,0.08,-4.19,-3.77,-3.80
163.24,-5.95,-2.10,-5.45,-1.62,1.62,1.43,0.05,-4.32,-3.83,-3.85
164.88,-5.85,-1.96,-5.32,-1.45,1.45,1.25,0.01,-4.39,-3.87,-3.89
166.53,-5.55,-1.62,-5.18,-1.27,1.27,1.08,-0.02,-4.27,-3.91,-3.93
168.19,-5.11,-1.15,-5.02,-1.08,1.08,0.92,-0.06,-4.03,-3.94,-3.96
169.87,-4.72,-0.74,-4.83,-0.87,0.87,0.77,-0.09,-3.85,-3.96,-3.98
171.57,-4.21,-0.21,-4.64,-0.66,0.66,0.63,-0.12,-3.54,-3.98,-3.99
173.29,-3.99,0.01,-4.45,-0.46,0.46,0.51,-0.16,-3.52,-3.99,-4.00
175.02,-3.81,0.19,-4.27,-0.28,0.28,0.40,-0.19,-3.53,-3.99,-4.00
176.77,-3.73,0.28,-4.10,-0.10,0.10,0.30,-0.23,-3.63,-4.00,-4.00
178.54,-3.80,0.20,-3.94,0.05,-0.05,0.21,-0.26,-3.85,-3.99,-4.00
180.32,-3.89,0.10,-3.82,0.17,-0.17,0.12,-0.30,-4.06,-3.99,-3.98
182.13,-3.94,0.03,-3.74,0.25,-0.25,0.05,-0.33,-4.19,-3.99,-3.97
183.95,-3.94,0.04,-3.68,0.31,-0.31,-0.03,-0.37,-4.24,-3.99,-3.97
185.79,-3.73,0.24,-3.66,0.33,-0.33,-0.09,-0.40,-4.06,-3.99,-3.97
187.65,-3.68,0.30,-3.66,0.33,-0.33,-0.16,-0.44,-4.01,-3.99,-3.98
189.52,-3.67,0.32,-3.66,0.33,-0.33,-0.22,-0.47,-3.99,-3.99,-3.98
191.42,-3.68,0.32,-3.67,0.33,-0.33,-0.28,-0.51,-4.01,-4.00,-3.99
193.33,-3.73,0.28,-3.63,0.37,-0.37,-0.33,-0.55,-4.10,-4.01,-4.01
195.27,-3.65,0.37,-3.59,0.42,-0.42,-0.39,-0.58,-4.07,-4.02,-4.02
197.22,-3.55,0.48,-3.54,0.49,-0.49,-0.44,-0.62,-4.03,-4.03,-4.03
199.19,-3.45,0.60,-3.48,0.56,-0.56,-0.50,-0.65,-4.01,-4.04,-4.05
201.18,-3.38,0.68,-3.42,0.64,-0.64,-0.55,-0.69,-4.01,-4.06,-4.06
203.19,-3.36,0.71,-3.37,0.71,-0.71,-0.60,-0.72,-4.06,-4.07,-4.07
205.23,-3.38,0.71,-3.33,0.76,-0.76,-0.66,-0.76,-4.14,-4.09,-4.09
207.28,-3.37,0.72,-3.30,0.81,-0.81,-0.71,-0.79,-4.17,-4.10,-4.09
209.35,-3.25,0.86,-3.26,0.86,-0.86,-0.76,-0.83,-4.10,-4.12,-4.11
211.44,-3.06,1.08,-3.21,0.91,-0.91,-0.82,-0.86,-3.97,-4.13,-4.14
213.56,-3.03,1.11,-3.16,0.97,-0.97,-0.87,-0.89,-4.00,-4.14,-4.14
215.69,-3.18,0.97,-3.12,1.03,-1.03,-0.92,-0.93,-4.20,-4.15,-4.14
217.85,-3.15,1.01,-3.09,1.07,-1.07,-0.97,-0.96,-4.21,-4.15,-4.15
220.03,-3.07,1.09,-3.06,1.10,-1.10,-1.02,-0.99,-4.16,-4.16,-4.16
222.23,-3.03,1.15,-3.03,1.13,-1.13,-1.08,-1.02,-4.15,-4.16,-4.18
224.45,-3.08,1.09,-3.00,1.16,-1.16,-1.13,-1.04,-4.23,-4.16,-4.17
226.70,-3.09,1.08,-2.96,1.19,-1.19,-1.17,-1.07,-4.28,-4.15,-4.16
228.96,-2.94,1.21,-2.92,1.22,-1.22,-1.22,-1.09,-4.16,-4.15,-4.15
231.25,-2.84,1.30,-2.89,1.25,-1.25,-1.27,-1.12,-4.08,-4.14,-4.14
233.57,-2.76,1.37,-2.86,1.26,-1.26,-1.31,-1.14,-4.02,-4.12,-4.12
235.90,-2.78,1.33,-2.83,1.27,-1.27,-1.35,-1.16,-4.05,-4.10,-4.11
238.26,-2.85,1.25,-2.79,1.29,-1.29,-1.38,-1.17,-4.14,-4.08,-4.09
240.64,-2.85,1.22,-2.75,1.31,-1.31,-1.41,-1.19,-4.16,-4.06,-4.07
243.05,-2.71,1.33,-2.71,1.32,-1.32,-1.44,-1.20,-4.03,-4.04,-4.03
245.48,-2.64,1.37,-2.68,1.33,-1.33,-1.46,-1.21,-3.97,-4.01,-4.01
247.93,-2.61,1.37,-2.65,1.33,-1.33,-1.48,-1.21,-3.94,-3.99,-3.97
250.41,-2.60,1.36,-2.62,1.34,-1.34,-1.49,-1.22,-3.93,-3.96,-3.96
252.92,-2.58,1.35,-2.60,1.33,-1.33,-1.49,-1.22,-3.90,-3.93,-3.92
255.45,-2.59,1.31,-2.59,1.32,-1.32,-1.49,-1.22,-3.90,-3.91,-3.90
258.00,-2.61,1.27,-2.57,1.31,-1.31,-1.49,-1.22,-3.92,-3.88,-3.87
260.58,-2.61,1.25,-2.54,1.31,-1.31,-1.48,-1.21,-3.92,-3.85,-3.86
263.19,-2.50,1.32,-2.51,1.32,-1.32,-1.46,-1.20,-3.81,-3.82,-3.82
265.82,-2.46,1.35,-2.48,1.32,-1.32,-1.44,-1.19,-3.78,-3.80,-3.80
268.48,-2.46,1.32,-2.45,1.32,-1.32,-1.42,-1.18,-3.77,-3.77,-3.78
271.16,-2.47,1.28,-2.43,1.31,-1.31,-1.39,-1.17,-3.77,-3.74,-3.74
273.87,-2.47,1.26,-2.41,1.31,-1.31,-1.36,-1.15,-3.77,-3.72,-3.72
276.61,-2.41,1.28,-2.38,1.31,-1.31,-1.33,-1.14,-3.71,-3.69,-3.69
279.38,-2.34,1.33,-2.35,1.31,-1.31,-1.30,-1.12,-3.64,-3.66,-3.66
282.17,-2.28,1.36,-2.32,1.31,-1.31,-1.26,-1.10,-3.58,-3.63,-3.63
284.99,-2.27,1.33,-2.30,1.31,-1.31,-1.22,-1.07,-3.57,-3.60,-3.60
287.84,-2.26,1.32,-2.27,1.30,-1.30,-1.18,-1.05,-3.55,-3.57,-3.58
290.72,-2.25,1.30,-2.25,1.29,-1.29,-1.15,-1.03,-3.53,-3.54,-3.54
293.63,-2.24,1.28,-2.24,1.27,-1.27,-1.11,-1.00,-3.51,-3.51,-3.51
296.57,-2.23,1.25,-2.22,1.26,-1.26,-1.07,-0.98,-3.48,-3.48,-3.48
299.53,-2.21,1.24,-2.20,1.25,-1.25,-1.03,-0.95,-3.45,-3.45,-3.45
302.53,-2.20,1.24,-2.19,1.24,-1.24,-1.00,-0.92,-3.43,-3.42,-3.43
305.55,-2.19,1.20,-2.17,1.22,-1.22,-0.96,-0.90,-3.41,-3.39,-3.38
308.61,-2.18,1.19,-2.16,1.21,-1.21,-0.93,-0.87,-3.38,-3.37,-3.37
311.69,-2.18,1.16,-2.16,1.19,-1.19,-0.89,-0.84,-3.36,-3.34,-3.34
314.81,-2.17,1.14,-2.16,1.16,-1.16,-0.86,-0.82,-3.33,-3.32,-3.31
317.96,-2.17,1.13,-2.16,1.14,-1.14,-0.83,-0.79,-3.30,-3.30,-3.29
321.14,-2.17,1.12,-2.16,1.12,-1.12,-0.80,-0.76,-3.28,-3.28,-3.28
324.35,-2.17,1.10,-2.17,1.09,-1.09,-0.77,-0.73,-3.26,-3.26,-3.27
327.59,-2.17,1.08,-2.18,1.07,-1.07,-0.75,-0.71,-3.23,-3.25,-3.25
330.87,-2.15,1.09,-2.20,1.04,-1.04,-0.72,-0.68,-3.18,-3.23,-3.24
334.18,-2.14,1.09,-2.22,1.00,-1.00,-0.70,-0.65,-3.13,-3.22,-3.22
337.52,-2.22,1.00,-2.25,0.96,-0.96,-0.68,-0.63,-3.18,-3.21,-3.21
340.90,-2.29,0.91,-2.27,0.93,-0.93,-0.65,-0.60,-3.22,-3.20,-3.19
344.30,-2.39,0.80,-2.29,0.90,-0.90,-0.63,-0.58,-3.28,-3.19,-3.18
347.75,-2.39,0.80,-2.32,0.86,-0.86,-0.61,-0.55,-3.25,-3.19,-3.19
351.23,-2.34,0.84,-2.35,0.83,-0.83,-0.60,-0.53,-3.16,-3.18,-3.18
354.74,-2.37,0.81,-2.39,0.79,-0.79,-0.58,-0.50,-3.15,-3.18,-3.18
358.28,-2.44,0.73,-2.43,0.75,-0.75,-0.56,-0.48,-3.18,-3.17,-3.17
361.87,-2.52,0.66,-2.47,0.70,-0.70,-0.55,-0.46,-3.22,-3.17,-3.17
365.49,-2.57,0.60,-2.50,0.66,-0.66,-0.54,-0.43,-3.23,-3.17,-3.16
369.14,-2.52,0.66,-2.55,0.62,-0.62,-0.52,-0.41,-3.14,-3.17,-3.17
372.83,-2.50,0.68,-2.59,0.58,-0.58,-0.51,-0.39,-3.08,-3.17,-3.17
376.56,-2.58,0.60,-2.63,0.54,-0.54,-0.50,-0.37,-3.12,-3.17,-3.17
380.33,-2.68,0.49,-2.67,0.50,-0.50,-0.49,-0.34,-3.17,-3.17,-3.17
384.13,-2.75,0.42,-2.73,0.45,-0.45,-0.48,-0.32,-3.20,-3.18,-3.17
387.97,-2.79,0.39,-2.79,0.39,-0.39,-0.47,-0.30,-3.18,-3.18,-3.18
391.85,-2.86,0.33,-2.85,0.33,-0.33,-0.46,-0.28,-3.19,-3.18,-3.19
395.77,-2.91,0.27,-2.91,0.28,-0.28,-0.46,-0.26,-3.18,-3.19,-3.18
399.73,-2.96,0.23,-2.98,0.21,-0.21,-0.45,-0.24,-3.17,-3.19,-3.19
403.72,-3.03,0.17,-3.05,0.15,-0.15,-0.44,-0.23,-3.18,-3.20,-3.19
407.76,-3.12,0.09,-3.12,0.08,-0.08,-0.44,-0.21,-3.20,-3.20,-3.20
411.84,-3.19,0.02,-3.19,0.01,-0.01,-0.43,-0.19,-3.20,-3.21,-3.20
415.96,-3.26,-0.05,-3.24,-0.04,0.04,-0.43,-0.17,-3.22,-3.21,-3.20
420.12,-3.30,-0.09,-3.29,-0.09,0.09,-0.43,-0.16,-3.21,-3.20,-3.20
424.32,-3.36,-0.15,-3.34,-0.14,0.14,-0.42,-0.14,-3.22,-3.20,-3.20
428.56,-3.41,-0.21,-3.38,-0.19,0.19,-0.42,-0.13,-3.22,-3.19,-3.19
432.85,-3.43,-0.24,-3.41,-0.24,0.24,-0.42,-0.12,-3.18,-3.17,-3.18
437.18,-3.53,-0.35,-3.44,-0.29,0.29,-0.42,-0.10,-3.24,-3.15,-3.18
