frequency,raw,error,smoothed,error_smoothed,equalization,parametric_eq,equalized_raw,equalized_smoothed,target
20,-10.17,-15.96,-10.18,-15.98,6.00,2.83,-4.17,-4.18,5.80
21,-9.88,-15.66,-9.75,-15.54,6.00,3.26,-3.88,-3.75,5.79
22,-9.20,-14.97,-9.34,-15.11,6.00,3.72,-3.20,-3.34,5.78
23,-8.90,-14.66,-8.93,-14.69,6.00,4.23,-2.90,-2.93,5.77
24,-8.72,-14.47,-8.53,-14.28,6.00,4.77,-2.72,-2.53,5.76
25,-7.98,-13.72,-8.14,-13.88,6.00,5.33,-1.98,-2.14,5.74
26,-7.57,-13.30,-7.76,-13.48,6.00,5.89,-1.57,-1.76,5.73
27,-7.63,-13.34,-7.38,-13.10,6.00,6.44,-1.63,-1.38,5.72
28,-7.18,-12.88,-7.02,-12.72,6.00,6.93,-1.18,-1.02,5.70
29,-6.54,-12.22,-6.67,-12.35,6.00,7.33,-0.54,-0.67,5.68
30,-6.29,-11.95,-6.32,-11.98,6.00,7.62,-0.29,-0.32,5.67
31,-5.97,-11.61,-5.99,-11.63,6.00,7.77,0.03,0.01,5.65
32,-5.62,-11.24,-5.67,-11.28,6.00,7.79,0.38,0.33,5.63
33,-5.37,-10.97,-5.35,-10.94,6.00,7.68,0.63,0.65,5.61
34,-5.05,-10.63,-5.03,-10.61,6.00,7.48,0.95,0.97,5.59
35,-4.72,-10.28,-4.74,-10.29,6.00,7.22,1.28,1.26,5.56
36,-4.46,-9.99,-4.44,-9.97,6.00,6.92,1.54,1.56,5.54
37,-4.20,-9.71,-4.14,-9.66,6.00,6.61,1.80,1.86,5.51
38,-3.91,-9.39,-3.88,-9.36,6.00,6.31,2.09,2.12,5.48
39,-3.62,-9.07,-3.62,-9.06,6.00,6.02,2.38,2.38,5.46
40,-3.35,-8.77,-3.36,-8.77,6.00,5.76,2.65,2.64,5.43
41,-3.08,-8.47,-3.11,-8.49,6.00,5.52,2.92,2.89,5.40
42,-2.82,-8.18,-2.86,-8.21,6.00,5.30,3.18,3.14,5.37
43,-2.60,-7.93,-2.61,-7.93,6.00,5.11,3.40,3.39,5.33
44,-2.39,-7.68,-2.37,-7.66,6.00,4.95,3.61,3.63,5.30
45,-2.18,-7.44,-2.14,-7.40,6.00,4.81,3.82,3.86,5.26
46,-1.96,-7.18,-1.92,-7.14,6.00,4.69,4.04,4.08,5.23
47,-1.74,-6.93,-1.71,-6.89,6.00,4.60,4.26,4.29,5.19
48,-1.51,-6.66,-1.50,-6.65,6.00,4.52,4.49,4.50,5.15
49,-1.29,-6.40,-1.30,-6.41,5.97,4.45,4.68,4.66,5.11
50,-1.06,-6.13,-1.11,-6.17,5.89,4.40,4.84,4.79,5.07
51,-0.87,-5.89,-0.92,-5.94,5.78,4.36,4.92,4.86,5.03
52,-0.74,-5.72,-0.74,-5.72,5.64,4.32,4.91,4.91,4.99
53,-0.63,-5.57,-0.56,-5.50,5.48,4.29,4.85,4.92,4.94
54,-0.45,-5.34,-0.40,-5.29,5.29,4.27,4.85,4.90,4.90
55,-0.24,-5.09,-0.24,-5.09,5.09,4.24,4.85,4.85,4.85
56,-0.04,-4.84,-0.08,-4.89,4.89,4.21,4.85,4.80,4.81
57,0.11,-4.64,0.06,-4.70,4.70,4.18,4.81,4.76,4.76
58,0.21,-4.50,0.20,-4.51,4.51,4.14,4.72,4.71,4.71
59,0.31,-4.35,0.33,-4.32,4.32,4.10,4.64,4.66,4.66
60,0.44,-4.17,0.47,-4.14,4.14,4.04,4.58,4.61,4.61
61,0.57,-3.99,0.59,-3.96,3.96,3.98,4.54,4.56,4.56
62,0.71,-3.80,0.72,-3.79,3.79,3.91,4.50,4.51,4.51
63,0.84,-3.62,0.84,-3.61,3.61,3.82,4.46,4.46,4.46
64,0.96,-3.45,0.96,-3.44,3.44,3.73,4.41,4.40,4.41
65,1.08,-3.27,1.07,-3.27,3.27,3.63,4.36,4.35,4.36
66,1.19,-3.11,1.19,-3.10,3.10,3.51,4.30,4.29,4.30
67,1.30,-2.95,1.31,-2.94,2.94,3.40,4.24,4.24,4.25
68,1.40,-2.79,1.43,-2.77,2.77,3.27,4.17,4.20,4.20
69,1.51,-2.63,1.54,-2.61,2.61,3.14,4.12,4.15,4.15
70,1.63,-2.46,1.65,-2.44,2.44,3.01,4.08,4.09,4.09
71,1.74,-2.29,1.75,-2.28,2.28,2.87,4.03,4.03,4.04
72,1.86,-2.12,1.85,-2.13,2.13,2.73,3.99,3.98,3.98
73,1.98,-1.95,1.95,-1.97,1.97,2.59,3.96,3.92,3.93
74,2.07,-1.80,2.04,-1.82,1.82,2.45,3.90,3.86,3.87
75,2.15,-1.67,2.14,-1.67,1.67,2.31,3.83,3.81,3.82
76,2.22,-1.54,2.23,-1.53,1.53,2.17,3.75,3.76,3.77
77,2.29,-1.42,2.32,-1.38,1.38,2.03,3.68,3.71,3.71
78,2.37,-1.28,2.41,-1.24,1.24,1.89,3.62,3.65,3.66
79,2.46,-1.14,2.49,-1.11,1.11,1.75,3.57,3.60,3.60
80,2.56,-0.99,2.57,-0.97,0.97,1.62,3.54,3.54,3.55
81,2.65,-0.84,2.65,-0.84,0.84,1.48,3.50,3.49,3.50
82,2.73,-0.71,2.72,-0.72,0.72,1.35,3.45,3.43,3.44
83,2.81,-0.58,2.79,-0.59,0.59,1.22,3.41,3.38,3.39
84,2.88,-0.45,2.86,-0.47,0.47,1.10,3.35,3.33,3.34
85,2.94,-0.34,2.92,-0.35,0.35,0.97,3.29,3.28,3.28
86,2.98,-0.25,2.99,-0.24,0.24,0.85,3.22,3.23,3.23
87,3.03,-0.15,3.05,-0.12,0.12,0.72,3.16,3.18,3.18
88,3.08,-0.04,3.11,-0.02,0.02,0.60,3.10,3.12,3.13
89,3.13,0.06,3.16,0.09,-0.09,0.49,3.05,3.07,3.08
90,3.19,0.17,3.21,0.19,-0.19,0.37,3.01,3.02,3.03
91,3.25,0.28,3.25,0.28,-0.28,0.26,2.97,2.97,2.98
92,3.30,0.38,3.29,0.37,-0.37,0.14,2.93,2.92,2.93
93,3.35,0.48,3.33,0.46,-0.46,0.03,2.90,2.87,2.88
94,3.38,0.55,3.36,0.54,-0.54,-0.08,2.85,2.82,2.83
95,3.41,0.63,3.39,0.62,-0.62,-0.18,2.80,2.77,2.78
96,3.43,0.70,3.42,0.69,-0.69,-0.29,2.74,2.72,2.73
97,3.44,0.76,3.44,0.76,-0.76,-0.39,2.68,2.68,2.69
98,3.45,0.81,3.46,0.84,-0.84,-0.50,2.62,2.63,2.64
99,3.46,0.87,3.48,0.90,-0.90,-0.60,2.56,2.58,2.59
100,3.46,0.91,3.50,0.97,-0.97,-0.70,2.49,2.53,2.55
101,3.47,0.97,3.51,1.03,-1.03,-0.80,2.44,2.48,2.50
102,3.49,1.03,3.53,1.10,-1.10,-0.89,2.40,2.43,2.46
104,3.55,1.18,3.54,1.16,-1.16,-1.08,2.40,2.38,2.37
105,3.57,1.24,3.55,1.22,-1.22,-1.17,2.36,2.34,2.33
106,3.59,1.30,3.57,1.28,-1.28,-1.25,2.32,2.29,2.29
107,3.60,1.36,3.58,1.33,-1.33,-1.34,2.27,2.25,2.25
108,3.60,1.40,3.59,1.39,-1.39,-1.42,2.22,2.20,2.21
109,3.60,1.44,3.60,1.44,-1.44,-1.50,2.17,2.16,2.17
110,3.59,1.46,3.61,1.49,-1.49,-1.58,2.11,2.12,2.13
111,3.60,1.51,3.62,1.54,-1.54,-1.65,2.07,2.08,2.09
112,3.60,1.55,3.62,1.58,-1.58,-1.72,2.02,2.04,2.05
113,3.61,1.60,3.62,1.62,-1.62,-1.79,1.99,2.00,2.02
114,3.61,1.64,3.62,1.66,-1.66,-1.85,1.95,1.96,1.98
115,3.62,1.68,3.62,1.70,-1.70,-1.92,1.92,1.92,1.94
117,3.63,1.76,3.62,1.74,-1.74,-2.03,1.89,1.88,1.87
118,3.63,1.80,3.62,1.78,-1.78,-2.08,1.86,1.84,1.84
119,3.62,1.82,3.61,1.81,-1.81,-2.13,1.81,1.80,1.80
120,3.61,1.84,3.61,1.85,-1.85,-2.17,1.77,1.76,1.77
121,3.60,1.87,3.60,1.88,-1.88,-2.21,1.72,1.72,1.74
123,3.58,1.91,3.60,1.91,-1.91,-2.28,1.67,1.68,1.67
124,3.57,1.93,3.59,1.95,-1.95,-2.31,1.63,1.65,1.64
125,3.57,1.96,3.58,1.97,-1.97,-2.34,1.60,1.61,1.61
126,3.55,1.97,3.57,2.00,-2.00,-2.36,1.55,1.57,1.58
128,3.55,2.03,3.56,2.03,-2.03,-2.40,1.53,1.53,1.52
129,3.54,2.05,3.54,2.05,-2.05,-2.41,1.50,1.50,1.50
130,3.54,2.08,3.53,2.07,-2.07,-2.42,1.48,1.46,1.47
131,3.53,2.09,3.51,2.09,-2.09,-2.43,1.45,1.43,1.44
133,3.50,2.12,3.49,2.10,-2.10,-2.44,1.40,1.39,1.39
134,3.49,2.13,3.47,2.12,-2.12,-2.44,1.38,1.36,1.36
135,3.46,2.13,3.45,2.13,-2.13,-2.44,1.34,1.32,1.34
137,3.41,2.13,3.43,2.14,-2.14,-2.43,1.27,1.29,1.29
138,3.39,2.13,3.41,2.15,-2.15,-2.43,1.24,1.26,1.26
140,3.37,2.16,3.38,2.16,-2.16,-2.41,1.21,1.22,1.22
141,3.34,2.15,3.36,2.17,-2.17,-2.40,1.18,1.19,1.19
142,3.32,2.15,3.34,2.18,-2.18,-2.39,1.15,1.16,1.17
144,3.30,2.18,3.31,2.19,-2.19,-2.37,1.12,1.13,1.13
145,3.29,2.19,3.29,2.20,-2.20,-2.35,1.10,1.10,1.11
147,3.27,2.21,3.27,2.20,-2.20,-2.33,1.07,1.07,1.07
148,3.25,2.21,3.25,2.21,-2.21,-2.31,1.04,1.04,1.05
150,3.23,2.22,3.23,2.22,-2.22,-2.28,1.01,1.01,1.01
151,3.22,2.23,3.21,2.23,-2.23,-2.27,1.00,0.99,0.99
153,3.20,2.25,3.19,2.23,-2.23,-2.24,0.97,0.96,0.95
154,3.18,2.25,3.17,2.24,-2.24,-2.23,0.95,0.93,0.94
156,3.14,2.24,3.15,2.24,-2.24,-2.20,0.90,0.91,0.90
157,3.12,2.24,3.12,2.25,-2.25,-2.19,0.88,0.88,0.89
159,3.09,2.24,3.10,2.25,-2.25,-2.16,0.85,0.85,0.85
160,3.08,2.25,3.07,2.25,-2.25,-2.15,0.84,0.83,0.84
162,3.04,2.24,3.05,2.25,-2.25,-2.13,0.80,0.80,0.81
164,3.01,2.24,3.03,2.25,-2.25,-2.11,0.77,0.78,0.78
165,3.00,2.24,3.00,2.25,-2.25,-2.10,0.76,0.76,0.76
167,2.97,2.24,2.98,2.25,-2.25,-2.08,0.73,0.73,0.73
169,2.94,2.24,2.96,2.24,-2.24,-2.07,0.70,0.71,0.71
170,2.93,2.24,2.93,2.24,-2.24,-2.06,0.69,0.69,0.69
172,2.91,2.24,2.91,2.24,-2.24,-2.05,0.68,0.67,0.67
174,2.88,2.24,2.88,2.23,-2.23,-2.04,0.65,0.65,0.65
175,2.87,2.24,2.85,2.23,-2.23,-2.04,0.65,0.62,0.63
177,2.84,2.23,2.82,2.22,-2.22,-2.03,0.62,0.60,0.61
179,2.81,2.23,2.80,2.21,-2.21,-2.03,0.60,0.58,0.59
181,2.77,2.21,2.77,2.21,-2.21,-2.02,0.57,0.56,0.57
183,2.72,2.18,2.75,2.20,-2.20,-2.02,0.52,0.54,0.55
184,2.70,2.17,2.72,2.19,-2.19,-2.03,0.51,0.53,0.54
186,2.68,2.17,2.70,2.19,-2.19,-2.03,0.50,0.51,0.52
188,2.65,2.16,2.67,2.18,-2.18,-2.03,0.47,0.49,0.50
190,2.63,2.16,2.65,2.18,-2.18,-2.04,0.46,0.47,0.48
192,2.63,2.17,2.63,2.17,-2.17,-2.05,0.46,0.45,0.46
194,2.61,2.17,2.61,2.17,-2.17,-2.06,0.45,0.44,0.44
196,2.60,2.18,2.59,2.17,-2.17,-2.07,0.44,0.42,0.43
198,2.58,2.17,2.57,2.17,-2.17,-2.08,0.42,0.41,0.41
200,2.56,2.17,2.56,2.16,-2.16,-2.10,0.40,0.40,0.40
202,2.54,2.16,2.55,2.16,-2.16,-2.11,0.38,0.38,0.38
204,2.51,2.15,2.53,2.16,-2.16,-2.13,0.36,0.37,0.37
206,2.50,2.15,2.51,2.15,-2.15,-2.14,0.35,0.36,0.35
208,2.48,2.14,2.49,2.15,-2.15,-2.16,0.33,0.34,0.34
210,2.47,2.15,2.47,2.14,-2.14,-2.18,0.33,0.33,0.33
212,2.46,2.15,2.45,2.14,-2.14,-2.20,0.33,0.31,0.32
214,2.44,2.14,2.43,2.13,-2.13,-2.21,0.31,0.30,0.30
216,2.43,2.14,2.41,2.12,-2.12,-2.23,0.31,0.28,0.29
218,2.39,2.11,2.39,2.12,-2.12,-2.25,0.28,0.27,0.28
221,2.36,2.10,2.37,2.11,-2.11,-2.28,0.25,0.26,0.26
223,2.33,2.08,2.36,2.11,-2.11,-2.29,0.23,0.25,0.25
225,2.32,2.08,2.34,2.10,-2.10,-2.31,0.22,0.24,0.24
227,2.31,2.08,2.33,2.10,-2.10,-2.32,0.21,0.23,0.23
229,2.31,2.09,2.32,2.11,-2.11,-2.34,0.21,0.22,0.22
232,2.31,2.10,2.32,2.11,-2.11,-2.36,0.20,0.21,0.21
234,2.31,2.11,2.31,2.12,-2.12,-2.37,0.20,0.20,0.20
236,2.31,2.12,2.31,2.13,-2.13,-2.38,0.19,0.19,0.19
239,2.32,2.14,2.31,2.14,-2.14,-2.40,0.19,0.18,0.18
241,2.32,2.15,2.32,2.15,-2.15,-2.41,0.18,0.17,0.17
244,2.33,2.17,2.33,2.16,-2.16,-2.42,0.17,0.16,0.16
246,2.33,2.18,2.33,2.17,-2.17,-2.42,0.16,0.16,0.16
248,2.33,2.19,2.34,2.19,-2.19,-2.43,0.15,0.15,0.15
251,2.33,2.20,2.34,2.20,-2.20,-2.43,0.13,0.14,0.14
253,2.34,2.21,2.35,2.22,-2.22,-2.43,0.13,0.13,0.13
256,2.35,2.23,2.35,2.23,-2.23,-2.43,0.12,0.12,0.12
259,2.36,2.25,2.36,2.24,-2.24,-2.43,0.12,0.11,0.11
261,2.36,2.26,2.36,2.26,-2.26,-2.43,0.11,0.11,0.11
264,2.37,2.27,2.37,2.27,-2.27,-2.42,0.11,0.10,0.10
266,2.37,2.28,2.37,2.28,-2.28,-2.42,0.09,0.09,0.09
269,2.37,2.29,2.38,2.29,-2.29,-2.41,0.08,0.09,0.09
272,2.38,2.31,2.38,2.30,-2.30,-2.40,0.08,0.08,0.08
274,2.38,2.31,2.39,2.32,-2.32,-2.39,0.07,0.07,0.07
277,2.39,2.33,2.39,2.33,-2.33,-2.38,0.07,0.07,0.07
280,2.39,2.33,2.40,2.34,-2.34,-2.37,0.06,0.06,0.06
283,2.40,2.35,2.40,2.35,-2.35,-2.35,0.05,0.05,0.05
286,2.41,2.37,2.41,2.36,-2.36,-2.34,0.05,0.05,0.05
288,2.41,2.37,2.41,2.37,-2.37,-2.33,0.04,0.04,0.04
291,2.42,2.39,2.42,2.38,-2.38,-2.32,0.04,0.04,0.04
294,2.42,2.39,2.43,2.40,-2.40,-2.31,0.03,0.03,0.03
297,2.43,2.41,2.44,2.41,-2.41,-2.30,0.03,0.03,0.03
300,2.44,2.42,2.44,2.42,-2.42,-2.29,0.02,0.02,0.02
303,2.45,2.44,2.45,2.43,-2.43,-2.27,0.02,0.02,0.02
306,2.45,2.44,2.46,2.45,-2.45,-2.27,0.01,0.01,0.01
309,2.46,2.46,2.47,2.46,-2.46,-2.26,0.00,0.01,0.01
312,2.47,2.47,2.48,2.47,-2.47,-2.25,0.00,0.00,0.00
316,2.48,2.49,2.48,2.49,-2.49,-2.24,-0.00,-0.00,-0.00
319,2.49,2.50,2.49,2.50,-2.50,-2.24,-0.01,-0.01,-0.01
322,2.50,2.51,2.50,2.51,-2.51,-2.24,-0.01,-0.01,-0.01
325,2.51,2.53,2.51,2.53,-2.53,-2.23,-0.01,-0.01,-0.01
328,2.52,2.54,2.52,2.54,-2.54,-2.23,-0.02,-0.02,-0.02
332,2.53,2.56,2.53,2.55,-2.55,-2.24,-0.02,-0.02,-0.02
335,2.54,2.57,2.54,2.57,-2.57,-2.24,-0.02,-0.03,-0.03
338,2.55,2.58,2.55,2.58,-2.58,-2.24,-0.03,-0.03,-0.03
342,2.56,2.60,2.56,2.60,-2.60,-2.25,-0.03,-0.03,-0.03
345,2.57,2.61,2.58,2.61,-2.61,-2.26,-0.04,-0.04,-0.04
349,2.58,2.62,2.59,2.63,-2.63,-2.27,-0.04,-0.04,-0.04
352,2.59,2.64,2.60,2.64,-2.64,-2.28,-0.05,-0.04,-0.04
356,2.61,2.66,2.61,2.66,-2.66,-2.30,-0.04,-0.05,-0.05
359,2.62,2.67,2.62,2.67,-2.67,-2.31,-0.05,-0.05,-0.05
363,2.63,2.69,2.63,2.69,-2.69,-2.33,-0.05,-0.05,-0.05
366,2.64,2.70,2.65,2.70,-2.70,-2.35,-0.06,-0.05,-0.05
370,2.65,2.71,2.66,2.72,-2.72,-2.37,-0.06,-0.06,-0.06
374,2.67,2.73,2.67,2.73,-2.73,-2.40,-0.06,-0.06,-0.06
377,2.68,2.75,2.68,2.74,-2.74,-2.42,-0.06,-0.06,-0.06
381,2.69,2.76,2.69,2.76,-2.76,-2.44,-0.06,-0.06,-0.06
385,2.70,2.77,2.70,2.77,-2.77,-2.47,-0.07,-0.07,-0.07
389,2.71,2.78,2.71,2.78,-2.78,-2.50,-0.07,-0.07,-0.07
393,2.72,2.80,2.72,2.80,-2.80,-2.53,-0.07,-0.07,-0.07
397,2.73,2.81,2.73,2.81,-2.81,-2.56,-0.07,-0.07,-0.07
401,2.74,2.82,2.74,2.82,-2.82,-2.60,-0.07,-0.08,-0.08
405,2.74,2.82,2.75,2.83,-2.83,-2.63,-0.08,-0.08,-0.08
409,2.75,2.83,2.75,2.83,-2.83,-2.66,-0.08,-0.08,-0.08
413,2.75,2.84,2.76,2.84,-2.84,-2.69,-0.09,-0.08,-0.08
417,2.76,2.85,2.76,2.85,-2.85,-2.73,-0.08,-0.09,-0.09
421,2.76,2.85,2.76,2.85,-2.85,-2.76,-0.09,-0.09,-0.09
425,2.76,2.85,2.76,2.85,-2.85,-2.79,-0.09,-0.09,-0.09
430,2.76,2.86,2.76,2.85,-2.85,-2.83,-0.09,-0.09,-0.09
434,2.75,2.85,2.76,2.85,-2.85,-2.86,-0.10,-0.09,-0.09
438,2.75,2.85,2.76,2.85,-2.85,-2.88,-0.10,-0.10,-0.10
443,2.75,2.85,2.76,2.85,-2.85,-2.91,-0.10,-0.09,-0.10
447,2.75,2.85,2.76,2.85,-2.85,-2.94,-0.09,-0.09,-0.09
451,2.75,2.85,2.75,2.84,-2.84,-2.96,-0.09,-0.09,-0.09
456,2.74,2.83,2.75,2.84,-2.84,-2.98,-0.09,-0.09,-0.09
460,2.74,2.83,2.75,2.83,-2.83,-2.99,-0.09,-0.08,-0.08
465,2.74,2.82,2.74,2.82,-2.82,-3.01,-0.08,-0.08,-0.08
470,2.74,2.81,2.74,2.81,-2.81,-3.02,-0.06,-0.07,-0.07
474,2.73,2.79,2.74,2.79,-2.79,-3.02,-0.06,-0.06,-0.06
479,2.73,2.78,2.73,2.78,-2.78,-3.02,-0.04,-0.04,-0.05
484,2.72,2.76,2.72,2.76,-2.76,-3.02,-0.03,-0.03,-0.04
489,2.71,2.74,2.71,2.74,-2.74,-3.01,-0.02,-0.02,-0.02
494,2.70,2.72,2.70,2.71,-2.71,-2.99,-0.01,-0.01,-0.01
499,2.70,2.70,2.68,2.68,-2.68,-2.97,0.02,-0.00,0.00
504,2.68,2.67,2.67,2.66,-2.66,-2.95,0.03,0.01,0.02
509,2.66,2.63,2.65,2.63,-2.63,-2.92,0.04,0.03,0.03
514,2.64,2.59,2.64,2.60,-2.60,-2.88,0.05,0.04,0.05
519,2.61,2.55,2.62,2.56,-2.56,-2.84,0.05,0.06,0.07
524,2.58,2.50,2.61,2.53,-2.53,-2.80,0.05,0.08,0.08
529,2.56,2.46,2.60,2.50,-2.50,-2.75,0.06,0.10,0.10
535,2.56,2.44,2.58,2.47,-2.47,-2.68,0.10,0.12,0.12
540,2.55,2.41,2.57,2.43,-2.43,-2.63,0.12,0.14,0.14
545,2.55,2.39,2.56,2.40,-2.40,-2.57,0.15,0.16,0.16
551,2.56,2.38,2.55,2.36,-2.36,-2.49,0.20,0.18,0.19
556,2.55,2.34,2.54,2.33,-2.33,-2.43,0.23,0.21,0.21
562,2.54,2.30,2.52,2.29,-2.29,-2.35,0.26,0.24,0.24
568,2.51,2.25,2.51,2.25,-2.25,-2.26,0.27,0.27,0.27
573,2.50,2.21,2.50,2.20,-2.20,-2.19,0.30,0.30,0.30
579,2.47,2.15,2.48,2.15,-2.15,-2.10,0.32,0.33,0.32
585,2.44,2.09,2.46,2.10,-2.10,-2.02,0.35,0.36,0.35
591,2.41,2.03,2.43,2.04,-2.04,-1.93,0.37,0.39,0.38
596,2.39,1.98,2.39,1.98,-1.98,-1.85,0.42,0.41,0.41
602,2.36,1.92,2.35,1.91,-1.91,-1.76,0.45,0.44,0.45
608,2.33,1.86,2.31,1.84,-1.84,-1.67,0.49,0.47,0.48
615,2.28,1.78,2.26,1.76,-1.76,-1.56,0.52,0.50,0.51
621,2.22,1.69,2.22,1.69,-1.69,-1.47,0.54,0.53,0.54
627,2.16,1.59,2.17,1.60,-1.60,-1.38,0.56,0.56,0.57
633,2.10,1.50,2.12,1.52,-1.52,-1.29,0.58,0.60,0.60
639,2.04,1.41,2.06,1.43,-1.43,-1.20,0.61,0.63,0.63
646,1.97,1.31,2.00,1.34,-1.34,-1.10,0.64,0.66,0.67
652,1.92,1.23,1.94,1.24,-1.24,-1.01,0.68,0.70,0.70
659,1.87,1.14,1.87,1.14,-1.14,-0.91,0.73,0.73,0.73
665,1.82,1.06,1.80,1.04,-1.04,-0.82,0.78,0.76,0.77
672,1.76,0.96,1.73,0.94,-0.94,-0.72,0.83,0.80,0.80
679,1.68,0.84,1.66,0.83,-0.83,-0.63,0.86,0.83,0.84
686,1.59,0.72,1.59,0.72,-0.72,-0.53,0.88,0.87,0.88
692,1.51,0.60,1.52,0.60,-0.60,-0.45,0.91,0.91,0.91
699,1.42,0.47,1.44,0.48,-0.48,-0.35,0.94,0.95,0.95
706,1.34,0.35,1.36,0.36,-0.36,-0.26,0.98,0.99,0.99
713,1.25,0.23,1.27,0.24,-0.24,-0.16,1.02,1.03,1.03
721,1.17,0.11,1.18,0.11,-0.11,-0.06,1.06,1.07,1.07
728,1.09,-0.01,1.09,-0.02,0.02,0.03,1.11,1.10,1.11
735,1.01,-0.13,0.99,-0.15,0.15,0.12,1.16,1.14,1.14
742,0.93,-0.25,0.90,-0.28,0.28,0.21,1.21,1.18,1.18
750,0.82,-0.40,0.81,-0.41,0.41,0.31,1.23,1.22,1.22
757,0.72,-0.54,0.72,-0.54,0.54,0.39,1.26,1.26,1.26
765,0.61,-0.69,0.63,-0.67,0.67,0.49,1.28,1.29,1.30
773,0.51,-0.82,0.54,-0.79,0.79,0.59,1.31,1.33,1.34
780,0.43,-0.94,0.45,-0.91,0.91,0.67,1.35,1.37,1.37
788,0.35,-1.05,0.37,-1.04,1.04,0.76,1.39,1.40,1.41
796,0.27,-1.17,0.29,-1.15,1.15,0.86,1.43,1.44,1.44
804,0.21,-1.26,0.21,-1.26,1.26,0.95,1.48,1.47,1.48
812,0.14,-1.37,0.13,-1.37,1.37,1.03,1.52,1.50,1.51
820,0.07,-1.47,0.06,-1.48,1.48,1.12,1.55,1.54,1.54
828,0.00,-1.57,-0.01,-1.58,1.58,1.21,1.58,1.57,1.57
837,-0.06,-1.66,-0.07,-1.67,1.67,1.30,1.61,1.60,1.61
845,-0.12,-1.75,-0.12,-1.76,1.76,1.38,1.64,1.64,1.64
853,-0.18,-1.84,-0.17,-1.84,1.84,1.46,1.66,1.67,1.67
862,-0.23,-1.92,-0.22,-1.91,1.91,1.54,1.69,1.69,1.70
871,-0.27,-1.99,-0.26,-1.98,1.98,1.63,1.72,1.72,1.73
879,-0.31,-2.06,-0.30,-2.04,2.04,1.70,1.73,1.74,1.75
888,-0.33,-2.11,-0.32,-2.09,2.09,1.77,1.76,1.77,1.78
897,-0.35,-2.16,-0.34,-2.13,2.13,1.85,1.79,1.79,1.81
906,-0.35,-2.18,-0.34,-2.17,2.17,1.92,1.82,1.82,1.84
915,-0.35,-2.21,-0.34,-2.19,2.19,1.98,1.84,1.85,1.86
924,-0.35,-2.24,-0.33,-2.20,2.20,2.04,1.86,1.88,1.89
933,-0.33,-2.24,-0.30,-2.21,2.21,2.10,1.89,1.91,1.92
943,-0.30,-2.24,-0.27,-2.21,2.21,2.16,1.92,1.94,1.94
952,-0.25,-2.21,-0.24,-2.21,2.21,2.20,1.96,1.97,1.97
962,-0.20,-2.19,-0.20,-2.19,2.19,2.25,2.00,1.99,1.99
971,-0.15,-2.17,-0.16,-2.18,2.18,2.29,2.03,2.02,2.02
981,-0.09,-2.13,-0.11,-2.16,2.16,2.33,2.07,2.05,2.05
991,-0.04,-2.11,-0.06,-2.14,2.14,2.36,2.10,2.07,2.07
1001,0.00,-2.10,-0.01,-2.11,2.11,2.39,2.12,2.10,2.10
1011,0.04,-2.08,0.04,-2.09,2.09,2.41,2.13,2.13,2.13
1021,0.09,-2.06,0.09,-2.07,2.07,2.43,2.16,2.15,2.15
1031,0.12,-2.06,0.14,-2.04,2.04,2.45,2.16,2.18,2.18
1041,0.17,-2.03,0.19,-2.01,2.01,2.46,2.19,2.21,2.21
1052,0.23,-2.00,0.25,-1.99,1.99,2.46,2.22,2.23,2.24
1062,0.28,-1.98,0.30,-1.96,1.96,2.46,2.25,2.26,2.27
1073,0.34,-1.95,0.35,-1.94,1.94,2.46,2.28,2.29,2.29
1084,0.40,-1.92,0.41,-1.92,1.92,2.46,2.32,2.32,2.32
1094,0.45,-1.90,0.46,-1.89,1.89,2.45,2.35,2.35,2.35
1105,0.51,-1.87,0.51,-1.88,1.88,2.44,2.39,2.39,2.38
1116,0.56,-1.85,0.56,-1.86,1.86,2.42,2.43,2.42,2.41
1128,0.62,-1.82,0.60,-1.85,1.85,2.40,2.48,2.45,2.45
1139,0.65,-1.82,0.64,-1.85,1.85,2.38,2.50,2.48,2.48
1150,0.68,-1.82,0.67,-1.85,1.85,2.36,2.53,2.51,2.51
1162,0.70,-1.84,0.69,-1.85,1.85,2.34,2.55,2.54,2.54
1173,0.72,-1.85,0.71,-1.86,1.86,2.32,2.58,2.57,2.57
1185,0.73,-1.87,0.73,-1.87,1.87,2.30,2.60,2.60,2.60
1197,0.74,-1.89,0.75,-1.88,1.88,2.27,2.62,2.63,2.64
1209,0.75,-1.91,0.77,-1.90,1.90,2.25,2.65,2.66,2.67
1221,0.76,-1.94,0.78,-1.92,1.92,2.22,2.68,2.70,2.70
1233,0.76,-1.97,0.80,-1.94,1.94,2.20,2.70,2.73,2.73
1246,0.78,-1.98,0.80,-1.96,1.96,2.17,2.74,2.77,2.76
1258,0.79,-2.00,0.81,-1.99,1.99,2.15,2.78,2.80,2.80
1271,0.82,-2.01,0.82,-2.02,2.02,2.13,2.84,2.83,2.83
1283,0.84,-2.02,0.82,-2.05,2.05,2.10,2.89,2.87,2.87
1296,0.85,-2.05,0.82,-2.08,2.08,2.08,2.94,2.90,2.90
1309,0.85,-2.08,0.82,-2.12,2.12,2.06,2.98,2.94,2.94
1322,0.83,-2.14,0.81,-2.16,2.16,2.04,3.00,2.97,2.97
1335,0.81,-2.20,0.81,-2.21,2.21,2.03,3.02,3.01,3.01
1349,0.77,-2.27,0.80,-2.25,2.25,2.01,3.03,3.05,3.05
1362,0.75,-2.33,0.79,-2.30,2.30,2.00,3.06,3.09,3.08
1376,0.74,-2.38,0.77,-2.36,2.36,1.98,3.10,3.13,3.12
1390,0.73,-2.43,0.75,-2.41,2.41,1.97,3.14,3.16,3.16
1404,0.74,-2.45,0.73,-2.46,2.46,1.96,3.21,3.19,3.20
1418,0.73,-2.50,0.72,-2.51,2.51,1.95,3.25,3.23,3.24
1432,0.73,-2.54,0.70,-2.56,2.56,1.94,3.30,3.26,3.27
1446,0.71,-2.60,0.69,-2.61,2.61,1.94,3.33,3.30,3.31
1461,0.69,-2.66,0.68,-2.66,2.66,1.93,3.35,3.34,3.35
1475,0.67,-2.72,0.68,-2.70,2.70,1.93,3.38,3.38,3.39
1490,0.65,-2.78,0.68,-2.74,2.74,1.93,3.40,3.42,3.43
1505,0.65,-2.82,0.68,-2.78,2.78,1.93,3.43,3.46,3.47
1520,0.66,-2.85,0.69,-2.81,2.81,1.94,3.47,3.50,3.51
1535,0.69,-2.86,0.70,-2.83,2.83,1.94,3.53,3.54,3.55
1550,0.72,-2.87,0.72,-2.86,2.86,1.94,3.58,3.57,3.60
1566,0.75,-2.89,0.74,-2.87,2.87,1.95,3.63,3.61,3.64
1582,0.78,-2.90,0.77,-2.88,2.88,1.96,3.67,3.65,3.68
1597,0.82,-2.91,0.81,-2.89,2.89,1.97,3.71,3.70,3.73
1613,0.85,-2.92,0.85,-2.89,2.89,1.98,3.74,3.74,3.78
1629,0.90,-2.92,0.90,-2.88,2.88,1.99,3.79,3.78,3.82
1646,0.95,-2.91,0.96,-2.87,2.87,2.00,3.82,3.83,3.87
1662,1.00,-2.91,1.02,-2.85,2.85,2.02,3.86,3.87,3.91
1679,1.07,-2.89,1.08,-2.83,2.83,2.03,3.90,3.91,3.96
1696,1.14,-2.86,1.15,-2.80,2.80,2.04,3.94,3.95,4.01
1713,1.22,-2.83,1.23,-2.76,2.76,2.06,3.99,4.00,4.05
1730,1.31,-2.79,1.32,-2.72,2.72,2.07,4.04,4.04,4.10
1747,1.41,-2.74,1.41,-2.68,2.68,2.09,4.09,4.09,4.15
1764,1.51,-2.68,1.51,-2.63,2.63,2.10,4.14,4.14,4.20
1782,1.62,-2.62,1.61,-2.57,2.57,2.12,4.20,4.19,4.25
1800,1.73,-2.57,1.73,-2.51,2.51,2.13,4.25,4.24,4.30
1818,1.85,-2.50,1.84,-2.45,2.45,2.14,4.30,4.29,4.35
1836,1.97,-2.44,1.97,-2.38,2.38,2.16,4.36,4.35,4.41
1854,2.09,-2.38,2.10,-2.31,2.31,2.17,4.40,4.41,4.47
1873,2.22,-2.31,2.23,-2.23,2.23,2.18,4.46,4.46,4.53
1892,2.37,-2.22,2.37,-2.16,2.16,2.19,4.53,4.53,4.60
1911,2.52,-2.14,2.52,-2.07,2.07,2.20,4.60,4.59,4.67
1930,2.67,-2.07,2.68,-1.99,1.99,2.20,4.66,4.66,4.74
1949,2.84,-1.97,2.84,-1.90,1.90,2.21,4.74,4.74,4.82
1969,3.01,-1.88,3.02,-1.80,1.80,2.21,4.82,4.82,4.90
1988,3.18,-1.79,3.21,-1.71,1.71,2.21,4.89,4.91,4.98
2008,3.37,-1.69,3.40,-1.61,1.61,2.21,4.98,5.01,5.06
2028,3.57,-1.58,3.60,-1.50,1.50,2.21,5.08,5.10,5.15
2048,3.79,-1.45,3.81,-1.39,1.39,2.21,5.19,5.21,5.25
