frequency,raw,error,smoothed,error_smoothed,equalization,parametric_eq,equalized_raw,equalized_smoothed,target
20,-10.17,-15.97,-10.18,-15.99,6.00,2.87,-4.17,-4.18,5.80
21,-9.88,-15.67,-9.75,-15.55,6.00,3.29,-3.88,-3.75,5.80
22,-9.20,-14.98,-9.34,-15.12,6.00,3.76,-3.20,-3.34,5.79
23,-8.90,-14.67,-8.93,-14.70,6.00,4.26,-2.90,-2.93,5.78
24,-8.72,-14.48,-8.53,-14.29,6.00,4.79,-2.72,-2.53,5.76
25,-7.98,-13.73,-8.14,-13.89,6.00,5.34,-1.98,-2.14,5.75
26,-7.57,-13.31,-7.76,-13.50,6.00,5.89,-1.57,-1.76,5.74
27,-7.63,-13.35,-7.39,-13.11,6.00,6.41,-1.63,-1.39,5.72
28,-7.18,-12.89,-7.02,-12.73,6.00,6.88,-1.18,-1.02,5.71
29,-6.54,-12.23,-6.67,-12.36,6.00,7.26,-0.54,-0.67,5.69
30,-6.29,-11.96,-6.32,-12.00,6.00,7.52,-0.29,-0.32,5.68
31,-5.97,-11.62,-5.99,-11.64,6.00,7.65,0.03,0.01,5.66
32,-5.62,-11.25,-5.66,-11.30,6.00,7.64,0.38,0.34,5.64
33,-5.37,-10.98,-5.34,-10.96,6.00,7.53,0.63,0.66,5.62
34,-5.05,-10.64,-5.04,-10.63,6.00,7.32,0.95,0.96,5.59
35,-4.72,-10.29,-4.74,-10.31,6.00,7.06,1.28,1.26,5.57
36,-4.46,-10.00,-4.44,-9.99,6.00,6.77,1.54,1.56,5.55
37,-4.20,-9.72,-4.16,-9.68,6.00,6.47,1.80,1.84,5.52
38,-3.91,-9.40,-3.88,-9.38,6.00,6.18,2.09,2.12,5.49
39,-3.62,-9.08,-3.61,-9.08,6.00,5.90,2.38,2.39,5.47
40,-3.35,-8.78,-3.35,-8.79,6.00,5.65,2.65,2.65,5.44
41,-3.08,-8.48,-3.10,-8.50,6.00,5.42,2.92,2.90,5.41
42,-2.82,-8.19,-2.85,-8.22,6.00,5.21,3.18,3.15,5.37
43,-2.60,-7.94,-2.61,-7.95,6.00,5.04,3.40,3.39,5.34
44,-2.39,-7.69,-2.37,-7.68,6.00,4.88,3.61,3.63,5.31
45,-2.18,-7.45,-2.15,-7.42,6.00,4.75,3.82,3.85,5.27
46,-1.96,-7.19,-1.92,-7.16,6.00,4.64,4.04,4.08,5.24
47,-1.74,-6.93,-1.71,-6.91,6.00,4.55,4.26,4.29,5.20
48,-1.51,-6.67,-1.50,-6.66,6.00,4.47,4.49,4.50,5.16
49,-1.29,-6.41,-1.30,-6.42,5.97,4.41,4.68,4.67,5.12
50,-1.06,-6.13,-1.11,-6.18,5.90,4.37,4.84,4.79,5.08
51,-0.87,-5.90,-0.92,-5.96,5.79,4.33,4.92,4.87,5.04
52,-0.74,-5.73,-0.74,-5.73,5.65,4.30,4.92,4.91,4.99
53,-0.63,-5.58,-0.57,-5.52,5.49,4.28,4.87,4.93,4.95
54,-0.45,-5.35,-0.40,-5.31,5.31,4.25,4.86,4.91,4.91
55,-0.24,-5.10,-0.24,-5.10,5.10,4.23,4.86,4.86,4.86
56,-0.04,-4.85,-0.09,-4.90,4.90,4.21,4.87,4.81,4.81
57,0.11,-4.65,0.06,-4.71,4.71,4.18,4.82,4.77,4.77
58,0.21,-4.51,0.20,-4.52,4.52,4.15,4.73,4.72,4.72
59,0.31,-4.36,0.34,-4.33,4.33,4.10,4.65,4.67,4.67
60,0.44,-4.18,0.47,-4.15,4.15,4.05,4.60,4.62,4.62
61,0.57,-4.00,0.60,-3.98,3.98,3.99,4.55,4.57,4.57
62,0.71,-3.81,0.72,-3.80,3.80,3.92,4.51,4.52,4.52
63,0.84,-3.63,0.84,-3.63,3.63,3.84,4.47,4.47,4.47
64,0.96,-3.45,0.96,-3.46,3.46,3.75,4.42,4.42,4.42
65,1.08,-3.28,1.08,-3.29,3.29,3.65,4.37,4.37,4.37
66,1.19,-3.12,1.20,-3.12,3.12,3.54,4.31,4.31,4.31
67,1.30,-2.96,1.31,-2.95,2.95,3.42,4.25,4.26,4.26
68,1.40,-2.80,1.42,-2.78,2.78,3.30,4.19,4.21,4.21
69,1.51,-2.64,1.53,-2.62,2.62,3.17,4.13,4.15,4.15
70,1.63,-2.47,1.64,-2.46,2.46,3.04,4.09,4.10,4.10
71,1.74,-2.30,1.75,-2.30,2.30,2.90,4.04,4.05,4.05
72,1.86,-2.13,1.85,-2.14,2.14,2.76,4.01,3.99,3.99
73,1.98,-1.95,1.95,-1.99,1.99,2.62,3.97,3.94,3.94
74,2.07,-1.81,2.05,-1.84,1.84,2.48,3.91,3.88,3.88
75,2.15,-1.67,2.14,-1.69,1.69,2.34,3.84,3.83,3.83
76,2.22,-1.55,2.23,-1.54,1.54,2.20,3.77,3.77,3.77
77,2.29,-1.43,2.32,-1.40,1.40,2.06,3.69,3.72,3.72
78,2.37,-1.29,2.41,-1.26,1.26,1.92,3.63,3.67,3.67
79,2.46,-1.15,2.49,-1.12,1.12,1.78,3.59,3.61,3.61
80,2.56,-0.99,2.57,-0.99,0.99,1.65,3.55,3.56,3.56
81,2.65,-0.85,2.65,-0.86,0.86,1.51,3.51,3.50,3.50
82,2.73,-0.72,2.72,-0.73,0.73,1.38,3.46,3.45,3.45
83,2.81,-0.58,2.79,-0.61,0.61,1.25,3.42,3.40,3.40
84,2.88,-0.46,2.86,-0.48,0.48,1.12,3.37,3.35,3.35
85,2.94,-0.35,2.93,-0.37,0.37,1.00,3.31,3.29,3.29
86,2.98,-0.26,2.99,-0.25,0.25,0.88,3.23,3.24,3.24
87,3.03,-0.15,3.05,-0.14,0.14,0.75,3.17,3.19,3.19
88,3.08,-0.05,3.11,-0.03,0.03,0.63,3.12,3.14,3.14
89,3.13,0.05,3.16,0.07,-0.07,0.52,3.06,3.09,3.09
90,3.19,0.16,3.21,0.17,-0.17,0.40,3.02,3.04,3.04
91,3.25,0.27,3.25,0.26,-0.26,0.28,2.99,2.99,2.99
92,3.30,0.37,3.29,0.35,-0.35,0.17,2.95,2.94,2.94
93,3.35,0.47,3.33,0.44,-0.44,0.06,2.91,2.89,2.89
94,3.38,0.55,3.36,0.52,-0.52,-0.05,2.86,2.84,2.84
95,3.41,0.62,3.39,0.60,-0.60,-0.16,2.82,2.79,2.79
96,3.43,0.69,3.42,0.67,-0.67,-0.26,2.76,2.74,2.74
97,3.44,0.75,3.44,0.75,-0.75,-0.37,2.70,2.69,2.70
98,3.45,0.81,3.46,0.82,-0.82,-0.47,2.64,2.65,2.65
99,3.46,0.86,3.48,0.88,-0.88,-0.57,2.58,2.60,2.60
100,3.46,0.91,3.50,0.95,-0.95,-0.67,2.51,2.55,2.56
101,3.47,0.96,3.51,1.01,-1.01,-0.77,2.46,2.50,2.51
102,3.49,1.03,3.53,1.08,-1.08,-0.86,2.42,2.45,2.47
104,3.55,1.17,3.54,1.14,-1.14,-1.05,2.41,2.40,2.38
105,3.57,1.23,3.56,1.20,-1.20,-1.14,2.37,2.36,2.34
106,3.59,1.30,3.57,1.26,-1.26,-1.23,2.34,2.31,2.30
107,3.60,1.35,3.58,1.31,-1.31,-1.31,2.29,2.27,2.26
108,3.60,1.39,3.59,1.37,-1.37,-1.39,2.24,2.22,2.22
109,3.60,1.43,3.60,1.42,-1.42,-1.47,2.18,2.18,2.18
110,3.59,1.46,3.61,1.47,-1.47,-1.55,2.12,2.14,2.14
111,3.60,1.50,3.61,1.52,-1.52,-1.62,2.09,2.10,2.10
112,3.60,1.54,3.62,1.56,-1.56,-1.70,2.04,2.06,2.06
113,3.61,1.59,3.62,1.61,-1.61,-1.76,2.01,2.02,2.02
114,3.61,1.63,3.62,1.65,-1.65,-1.83,1.97,1.97,1.99
115,3.62,1.67,3.62,1.69,-1.69,-1.89,1.94,1.93,1.95
117,3.63,1.75,3.62,1.73,-1.73,-2.00,1.91,1.89,1.88
118,3.63,1.79,3.62,1.76,-1.76,-2.05,1.87,1.85,1.85
119,3.62,1.81,3.61,1.80,-1.80,-2.10,1.82,1.81,1.81
120,3.61,1.84,3.61,1.84,-1.84,-2.15,1.78,1.77,1.78
121,3.60,1.86,3.60,1.87,-1.87,-2.19,1.73,1.73,1.75
123,3.58,1.90,3.60,1.90,-1.90,-2.26,1.68,1.70,1.68
124,3.57,1.92,3.59,1.93,-1.93,-2.29,1.64,1.66,1.65
125,3.57,1.95,3.58,1.96,-1.96,-2.31,1.61,1.62,1.62
126,3.55,1.96,3.57,1.99,-1.99,-2.34,1.57,1.58,1.59
128,3.55,2.02,3.56,2.01,-2.01,-2.37,1.54,1.55,1.53
129,3.54,2.04,3.54,2.03,-2.03,-2.39,1.51,1.51,1.50
130,3.54,2.07,3.53,2.05,-2.05,-2.40,1.49,1.47,1.48
131,3.53,2.08,3.51,2.07,-2.07,-2.41,1.46,1.44,1.45
133,3.50,2.11,3.49,2.09,-2.09,-2.42,1.41,1.40,1.40
134,3.49,2.12,3.47,2.10,-2.10,-2.42,1.39,1.37,1.37
135,3.46,2.12,3.45,2.12,-2.12,-2.42,1.35,1.34,1.35
137,3.41,2.12,3.43,2.13,-2.13,-2.41,1.29,1.30,1.30
138,3.39,2.12,3.41,2.14,-2.14,-2.41,1.26,1.27,1.27
140,3.37,2.15,3.38,2.15,-2.15,-2.39,1.23,1.24,1.23
141,3.34,2.14,3.36,2.16,-2.16,-2.38,1.19,1.20,1.20
142,3.32,2.14,3.34,2.17,-2.17,-2.37,1.16,1.17,1.18
144,3.30,2.17,3.32,2.17,-2.17,-2.35,1.13,1.14,1.14
145,3.29,2.18,3.29,2.18,-2.18,-2.34,1.11,1.11,1.12
147,3.27,2.20,3.27,2.19,-2.19,-2.31,1.08,1.08,1.08
148,3.25,2.20,3.25,2.20,-2.20,-2.30,1.05,1.05,1.06
150,3.23,2.22,3.23,2.21,-2.21,-2.27,1.02,1.02,1.02
151,3.22,2.23,3.21,2.22,-2.22,-2.25,1.01,1.00,1.00
153,3.20,2.24,3.19,2.22,-2.22,-2.23,0.98,0.97,0.96
154,3.18,2.24,3.17,2.23,-2.23,-2.21,0.96,0.94,0.94
156,3.14,2.23,3.15,2.23,-2.23,-2.19,0.91,0.91,0.91
157,3.12,2.23,3.12,2.23,-2.23,-2.17,0.89,0.89,0.89
159,3.09,2.23,3.10,2.24,-2.24,-2.15,0.86,0.86,0.86
160,3.08,2.24,3.08,2.24,-2.24,-2.14,0.85,0.84,0.85
162,3.04,2.23,3.05,2.24,-2.24,-2.11,0.81,0.81,0.82
164,3.01,2.23,3.03,2.24,-2.24,-2.09,0.78,0.79,0.79
165,3.00,2.23,3.00,2.24,-2.24,-2.09,0.77,0.77,0.77
167,2.97,2.23,2.98,2.24,-2.24,-2.07,0.74,0.74,0.74
169,2.94,2.23,2.96,2.23,-2.23,-2.05,0.71,0.72,0.72
170,2.93,2.23,2.93,2.23,-2.23,-2.05,0.70,0.70,0.70
172,2.91,2.24,2.90,2.23,-2.23,-2.04,0.69,0.68,0.68
174,2.88,2.23,2.88,2.22,-2.22,-2.03,0.66,0.66,0.65
175,2.87,2.23,2.85,2.22,-2.22,-2.02,0.66,0.64,0.64
177,2.84,2.23,2.83,2.21,-2.21,-2.02,0.64,0.62,0.62
179,2.81,2.22,2.80,2.20,-2.20,-2.02,0.61,0.60,0.60
181,2.77,2.20,2.77,2.19,-2.19,-2.01,0.58,0.58,0.57
183,2.72,2.17,2.75,2.19,-2.19,-2.02,0.54,0.56,0.55
184,2.70,2.16,2.72,2.18,-2.18,-2.02,0.52,0.54,0.54
186,2.68,2.16,2.70,2.17,-2.17,-2.02,0.51,0.52,0.52
188,2.65,2.15,2.67,2.17,-2.17,-2.03,0.49,0.50,0.51
190,2.63,2.15,2.65,2.16,-2.16,-2.03,0.47,0.49,0.49
192,2.63,2.16,2.63,2.16,-2.16,-2.04,0.47,0.47,0.47
194,2.61,2.16,2.61,2.16,-2.16,-2.05,0.46,0.45,0.45
196,2.60,2.17,2.59,2.16,-2.16,-2.06,0.45,0.44,0.44
198,2.58,2.16,2.58,2.15,-2.15,-2.08,0.43,0.42,0.42
200,2.56,2.16,2.56,2.15,-2.15,-2.09,0.41,0.41,0.41
202,2.54,2.15,2.54,2.15,-2.15,-2.11,0.39,0.39,0.39
204,2.51,2.14,2.52,2.15,-2.15,-2.12,0.37,0.38,0.38
206,2.50,2.14,2.50,2.14,-2.14,-2.14,0.36,0.36,0.36
208,2.48,2.13,2.49,2.14,-2.14,-2.16,0.35,0.35,0.35
210,2.47,2.14,2.47,2.13,-2.13,-2.17,0.34,0.34,0.34
212,2.46,2.14,2.45,2.12,-2.12,-2.19,0.34,0.32,0.32
214,2.44,2.13,2.43,2.12,-2.12,-2.21,0.33,0.31,0.31
216,2.43,2.13,2.41,2.11,-2.11,-2.23,0.32,0.30,0.30
218,2.39,2.11,2.39,2.10,-2.10,-2.25,0.29,0.29,0.29
221,2.36,2.09,2.37,2.10,-2.10,-2.27,0.27,0.28,0.27
223,2.33,2.07,2.36,2.09,-2.09,-2.29,0.24,0.26,0.26
225,2.32,2.07,2.34,2.09,-2.09,-2.31,0.23,0.25,0.25
227,2.31,2.07,2.33,2.09,-2.09,-2.32,0.22,0.24,0.24
229,2.31,2.08,2.32,2.09,-2.09,-2.34,0.22,0.23,0.23
232,2.31,2.09,2.32,2.10,-2.10,-2.36,0.22,0.22,0.22
234,2.31,2.10,2.32,2.10,-2.10,-2.37,0.21,0.21,0.21
236,2.31,2.11,2.32,2.11,-2.11,-2.38,0.20,0.20,0.20
239,2.32,2.13,2.32,2.12,-2.12,-2.40,0.20,0.19,0.19
241,2.32,2.14,2.32,2.14,-2.14,-2.40,0.19,0.18,0.18
244,2.33,2.16,2.32,2.15,-2.15,-2.42,0.18,0.17,0.17
246,2.33,2.17,2.33,2.16,-2.16,-2.42,0.17,0.16,0.16
248,2.33,2.18,2.33,2.18,-2.18,-2.43,0.16,0.16,0.16
251,2.33,2.19,2.34,2.19,-2.19,-2.43,0.14,0.15,0.15
253,2.34,2.20,2.35,2.21,-2.21,-2.43,0.14,0.14,0.14
256,2.35,2.22,2.35,2.22,-2.22,-2.43,0.13,0.13,0.13
259,2.36,2.24,2.36,2.23,-2.23,-2.43,0.13,0.12,0.12
261,2.36,2.25,2.36,2.25,-2.25,-2.43,0.12,0.12,0.12
264,2.37,2.27,2.37,2.26,-2.26,-2.42,0.12,0.11,0.11
266,2.37,2.27,2.37,2.27,-2.27,-2.42,0.10,0.10,0.10
269,2.37,2.28,2.38,2.28,-2.28,-2.41,0.09,0.09,0.09
272,2.38,2.30,2.38,2.29,-2.29,-2.40,0.09,0.09,0.09
274,2.38,2.30,2.39,2.31,-2.31,-2.39,0.08,0.08,0.08
277,2.39,2.32,2.39,2.32,-2.32,-2.38,0.08,0.08,0.08
280,2.39,2.33,2.40,2.33,-2.33,-2.37,0.06,0.07,0.07
283,2.40,2.34,2.40,2.34,-2.34,-2.35,0.06,0.06,0.06
286,2.41,2.36,2.41,2.35,-2.35,-2.34,0.06,0.06,0.06
288,2.41,2.36,2.42,2.36,-2.36,-2.33,0.05,0.05,0.05
291,2.42,2.38,2.42,2.38,-2.38,-2.32,0.05,0.05,0.05
294,2.42,2.38,2.43,2.39,-2.39,-2.31,0.04,0.04,0.04
297,2.43,2.40,2.44,2.40,-2.40,-2.30,0.03,0.04,0.04
300,2.44,2.41,2.44,2.41,-2.41,-2.28,0.03,0.03,0.03
303,2.45,2.43,2.45,2.42,-2.42,-2.27,0.03,0.03,0.03
306,2.45,2.43,2.46,2.44,-2.44,-2.26,0.02,0.02,0.02
309,2.46,2.45,2.47,2.45,-2.45,-2.26,0.01,0.02,0.02
312,2.47,2.46,2.48,2.46,-2.46,-2.25,0.01,0.01,0.01
316,2.48,2.48,2.48,2.48,-2.48,-2.24,0.01,0.01,0.01
319,2.49,2.49,2.49,2.49,-2.49,-2.24,0.00,0.00,0.00
322,2.50,2.51,2.50,2.50,-2.50,-2.23,0.00,-0.00,-0.00
325,2.51,2.52,2.51,2.52,-2.52,-2.23,-0.00,-0.01,-0.00
328,2.52,2.53,2.52,2.53,-2.53,-2.23,-0.01,-0.01,-0.01
332,2.53,2.55,2.53,2.55,-2.55,-2.23,-0.01,-0.01,-0.01
335,2.54,2.56,2.54,2.56,-2.56,-2.24,-0.02,-0.02,-0.02
338,2.55,2.57,2.55,2.57,-2.57,-2.24,-0.02,-0.02,-0.02
342,2.56,2.59,2.56,2.59,-2.59,-2.25,-0.02,-0.02,-0.02
345,2.57,2.60,2.58,2.60,-2.60,-2.26,-0.03,-0.03,-0.03
349,2.58,2.61,2.59,2.62,-2.62,-2.27,-0.03,-0.03,-0.03
352,2.59,2.63,2.60,2.63,-2.63,-2.28,-0.04,-0.03,-0.03
356,2.61,2.65,2.61,2.65,-2.65,-2.30,-0.03,-0.04,-0.04
359,2.62,2.66,2.62,2.66,-2.66,-2.31,-0.04,-0.04,-0.04
363,2.63,2.68,2.63,2.68,-2.68,-2.33,-0.04,-0.04,-0.04
366,2.64,2.69,2.65,2.69,-2.69,-2.35,-0.05,-0.05,-0.05
370,2.65,2.70,2.66,2.71,-2.71,-2.37,-0.05,-0.05,-0.05
374,2.67,2.73,2.67,2.72,-2.72,-2.39,-0.05,-0.05,-0.05
377,2.68,2.74,2.68,2.74,-2.74,-2.41,-0.05,-0.06,-0.05
381,2.69,2.75,2.69,2.75,-2.75,-2.44,-0.06,-0.06,-0.06
385,2.70,2.77,2.70,2.77,-2.77,-2.47,-0.06,-0.06,-0.06
389,2.71,2.78,2.71,2.78,-2.78,-2.50,-0.07,-0.06,-0.06
393,2.72,2.79,2.72,2.79,-2.79,-2.53,-0.07,-0.07,-0.07
397,2.73,2.80,2.73,2.80,-2.80,-2.56,-0.07,-0.07,-0.07
401,2.74,2.82,2.74,2.81,-2.81,-2.60,-0.07,-0.07,-0.07
405,2.74,2.82,2.75,2.82,-2.82,-2.63,-0.08,-0.08,-0.08
409,2.75,2.83,2.75,2.83,-2.83,-2.66,-0.08,-0.08,-0.08
413,2.75,2.83,2.75,2.84,-2.84,-2.69,-0.08,-0.08,-0.08
417,2.76,2.85,2.76,2.84,-2.84,-2.73,-0.08,-0.08,-0.08
421,2.76,2.85,2.76,2.84,-2.84,-2.76,-0.08,-0.08,-0.08
425,2.76,2.85,2.76,2.84,-2.84,-2.79,-0.08,-0.08,-0.08
430,2.76,2.85,2.76,2.84,-2.84,-2.83,-0.08,-0.08,-0.08
434,2.75,2.84,2.76,2.84,-2.84,-2.86,-0.09,-0.08,-0.08
438,2.75,2.84,2.76,2.84,-2.84,-2.88,-0.09,-0.08,-0.08
443,2.75,2.84,2.76,2.84,-2.84,-2.91,-0.09,-0.08,-0.08
447,2.75,2.83,2.76,2.84,-2.84,-2.94,-0.08,-0.08,-0.08
451,2.75,2.83,2.75,2.83,-2.83,-2.96,-0.08,-0.08,-0.08
456,2.74,2.82,2.75,2.82,-2.82,-2.98,-0.08,-0.07,-0.07
460,2.74,2.81,2.75,2.82,-2.82,-2.99,-0.07,-0.07,-0.07
465,2.74,2.80,2.75,2.81,-2.81,-3.01,-0.06,-0.06,-0.06
470,2.74,2.80,2.74,2.79,-2.79,-3.02,-0.05,-0.05,-0.05
474,2.73,2.78,2.74,2.78,-2.78,-3.02,-0.05,-0.05,-0.05
479,2.73,2.77,2.73,2.76,-2.76,-3.02,-0.03,-0.04,-0.04
484,2.72,2.75,2.72,2.75,-2.75,-3.02,-0.02,-0.03,-0.03
489,2.71,2.73,2.71,2.72,-2.72,-3.01,-0.01,-0.01,-0.02
494,2.70,2.71,2.70,2.70,-2.70,-2.99,0.00,-0.00,-0.00
499,2.70,2.69,2.68,2.67,-2.67,-2.97,0.03,0.01,0.01
504,2.68,2.66,2.67,2.64,-2.64,-2.94,0.04,0.03,0.02
509,2.66,2.62,2.65,2.61,-2.61,-2.91,0.05,0.04,0.04
514,2.64,2.59,2.64,2.58,-2.58,-2.88,0.06,0.06,0.06
519,2.61,2.54,2.63,2.55,-2.55,-2.84,0.06,0.08,0.07
524,2.58,2.49,2.61,2.52,-2.52,-2.79,0.07,0.09,0.09
529,2.56,2.45,2.60,2.48,-2.48,-2.74,0.08,0.11,0.11
535,2.56,2.43,2.59,2.45,-2.45,-2.68,0.11,0.13,0.13
540,2.55,2.40,2.57,2.42,-2.42,-2.62,0.14,0.16,0.16
545,2.55,2.38,2.56,2.38,-2.38,-2.56,0.17,0.18,0.18
551,2.56,2.36,2.55,2.35,-2.35,-2.49,0.22,0.20,0.20
556,2.55,2.33,2.54,2.31,-2.31,-2.42,0.24,0.23,0.23
562,2.54,2.29,2.53,2.27,-2.27,-2.34,0.27,0.25,0.25
568,2.51,2.24,2.51,2.23,-2.23,-2.26,0.28,0.28,0.28
573,2.50,2.20,2.49,2.19,-2.19,-2.19,0.31,0.30,0.30
579,2.47,2.14,2.47,2.14,-2.14,-2.10,0.33,0.33,0.33
585,2.44,2.08,2.45,2.09,-2.09,-2.01,0.36,0.36,0.36
591,2.41,2.03,2.42,2.03,-2.03,-1.92,0.38,0.39,0.39
596,2.39,1.98,2.39,1.97,-1.97,-1.85,0.42,0.42,0.42
602,2.36,1.92,2.35,1.90,-1.90,-1.75,0.46,0.45,0.45
608,2.33,1.85,2.31,1.83,-1.83,-1.66,0.50,0.48,0.48
615,2.28,1.77,2.27,1.76,-1.76,-1.56,0.53,0.51,0.51
621,2.22,1.68,2.22,1.68,-1.68,-1.47,0.55,0.54,0.54
627,2.16,1.59,2.17,1.59,-1.59,-1.37,0.57,0.58,0.58
633,2.10,1.50,2.12,1.51,-1.51,-1.28,0.60,0.61,0.61
639,2.04,1.40,2.06,1.42,-1.42,-1.19,0.63,0.64,0.64
646,1.97,1.30,2.00,1.32,-1.32,-1.09,0.65,0.68,0.68
652,1.92,1.21,1.94,1.23,-1.23,-1.00,0.70,0.71,0.71
659,1.87,1.13,1.87,1.13,-1.13,-0.90,0.75,0.75,0.75
665,1.82,1.04,1.81,1.03,-1.03,-0.81,0.80,0.78,0.78
672,1.76,0.95,1.74,0.92,-0.92,-0.71,0.84,0.82,0.82
679,1.68,0.83,1.67,0.81,-0.81,-0.62,0.87,0.85,0.85
686,1.59,0.70,1.59,0.70,-0.70,-0.52,0.89,0.89,0.89
692,1.51,0.59,1.51,0.59,-0.59,-0.43,0.93,0.93,0.93
699,1.42,0.46,1.43,0.47,-0.47,-0.34,0.96,0.97,0.97
706,1.34,0.34,1.35,0.35,-0.35,-0.24,1.00,1.00,1.00
713,1.25,0.21,1.26,0.22,-0.22,-0.15,1.03,1.04,1.04
721,1.17,0.10,1.18,0.10,-0.10,-0.05,1.08,1.08,1.08
728,1.09,-0.02,1.09,-0.03,0.03,0.04,1.12,1.12,1.12
735,1.01,-0.14,1.00,-0.16,0.16,0.13,1.17,1.15,1.15
742,0.93,-0.26,0.90,-0.29,0.29,0.22,1.22,1.19,1.19
750,0.82,-0.40,0.81,-0.42,0.42,0.32,1.24,1.23,1.23
757,0.72,-0.54,0.72,-0.55,0.55,0.41,1.27,1.27,1.27
765,0.61,-0.69,0.63,-0.67,0.67,0.51,1.29,1.30,1.30
773,0.51,-0.82,0.54,-0.80,0.80,0.60,1.31,1.34,1.34
780,0.43,-0.94,0.45,-0.92,0.92,0.69,1.36,1.37,1.37
788,0.35,-1.06,0.37,-1.04,1.04,0.78,1.40,1.41,1.41
796,0.27,-1.17,0.29,-1.16,1.16,0.87,1.43,1.44,1.45
804,0.21,-1.27,0.21,-1.27,1.27,0.96,1.49,1.48,1.48
812,0.14,-1.37,0.13,-1.38,1.38,1.05,1.52,1.51,1.51
820,0.07,-1.47,0.06,-1.48,1.48,1.14,1.56,1.55,1.55
828,0.00,-1.57,-0.01,-1.58,1.58,1.23,1.59,1.58,1.58
837,-0.06,-1.67,-0.07,-1.68,1.68,1.32,1.62,1.61,1.61
845,-0.12,-1.76,-0.13,-1.77,1.77,1.40,1.65,1.64,1.64
853,-0.18,-1.85,-0.18,-1.85,1.85,1.48,1.67,1.67,1.67
862,-0.23,-1.93,-0.22,-1.92,1.92,1.57,1.70,1.70,1.70
871,-0.27,-2.00,-0.26,-1.99,1.99,1.65,1.73,1.73,1.73
879,-0.31,-2.07,-0.29,-2.05,2.05,1.72,1.75,1.76,1.76
888,-0.33,-2.12,-0.32,-2.10,2.10,1.80,1.78,1.79,1.79
897,-0.35,-2.16,-0.33,-2.15,2.15,1.87,1.80,1.82,1.82
906,-0.35,-2.19,-0.34,-2.18,2.18,1.94,1.83,1.84,1.84
915,-0.35,-2.22,-0.33,-2.20,2.20,2.01,1.86,1.87,1.87
924,-0.35,-2.24,-0.32,-2.22,2.22,2.07,1.87,1.90,1.90
933,-0.33,-2.25,-0.30,-2.23,2.23,2.12,1.90,1.93,1.93
943,-0.30,-2.25,-0.27,-2.23,2.23,2.18,1.93,1.95,1.95
952,-0.25,-2.22,-0.24,-2.22,2.22,2.23,1.97,1.98,1.98
962,-0.20,-2.20,-0.20,-2.21,2.21,2.28,2.01,2.01,2.01
971,-0.15,-2.18,-0.16,-2.19,2.19,2.32,2.05,2.03,2.03
981,-0.09,-2.14,-0.11,-2.17,2.17,2.36,2.09,2.06,2.06
991,-0.04,-2.12,-0.07,-2.15,2.15,2.39,2.12,2.09,2.08
1001,0.00,-2.11,-0.02,-2.13,2.13,2.42,2.13,2.11,2.11
1011,0.04,-2.09,0.04,-2.10,2.10,2.44,2.15,2.14,2.14
1021,0.09,-2.07,0.09,-2.08,2.08,2.46,2.17,2.17,2.17
1031,0.12,-2.07,0.14,-2.05,2.05,2.47,2.18,2.19,2.19
1041,0.17,-2.05,0.19,-2.03,2.03,2.48,2.20,2.22,2.22
1052,0.23,-2.01,0.25,-2.00,2.00,2.49,2.23,2.25,2.25
1062,0.28,-1.99,0.30,-1.97,1.97,2.49,2.26,2.28,2.28
1073,0.34,-1.96,0.36,-1.95,1.95,2.49,2.29,2.31,2.31
1084,0.40,-1.93,0.41,-1.93,1.93,2.48,2.33,2.33,2.33
1094,0.45,-1.91,0.46,-1.91,1.91,2.47,2.36,2.36,2.36
1105,0.51,-1.88,0.51,-1.89,1.89,2.46,2.40,2.39,2.39
1116,0.56,-1.86,0.55,-1.87,1.87,2.44,2.44,2.42,2.42
1128,0.62,-1.83,0.59,-1.86,1.86,2.42,2.49,2.45,2.45
1139,0.65,-1.83,0.63,-1.86,1.86,2.40,2.51,2.48,2.48
1150,0.68,-1.83,0.66,-1.85,1.85,2.38,2.54,2.51,2.51
1162,0.70,-1.84,0.69,-1.86,1.86,2.36,2.56,2.55,2.55
1173,0.72,-1.85,0.72,-1.86,1.86,2.34,2.59,2.58,2.58
1185,0.73,-1.88,0.74,-1.87,1.87,2.31,2.61,2.61,2.61
1197,0.74,-1.90,0.75,-1.89,1.89,2.29,2.63,2.64,2.64
1209,0.75,-1.92,0.77,-1.90,1.90,2.26,2.66,2.67,2.67
1221,0.76,-1.94,0.78,-1.92,1.92,2.23,2.69,2.71,2.71
1233,0.76,-1.98,0.80,-1.95,1.95,2.21,2.71,2.74,2.74
1246,0.78,-1.99,0.80,-1.97,1.97,2.18,2.75,2.77,2.77
1258,0.79,-2.01,0.81,-2.00,2.00,2.16,2.79,2.81,2.81
1271,0.82,-2.02,0.82,-2.03,2.03,2.13,2.85,2.84,2.84
1283,0.84,-2.03,0.82,-2.06,2.06,2.11,2.90,2.88,2.88
1296,0.85,-2.06,0.82,-2.09,2.09,2.09,2.95,2.91,2.91
1309,0.85,-2.09,0.82,-2.13,2.13,2.07,2.98,2.95,2.95
1322,0.83,-2.15,0.81,-2.17,2.17,2.05,3.01,2.98,2.98
1335,0.81,-2.20,0.80,-2.22,2.22,2.03,3.03,3.02,3.02
1349,0.77,-2.28,0.79,-2.26,2.26,2.01,3.04,3.05,3.05
1362,0.75,-2.34,0.78,-2.31,2.31,2.00,3.07,3.09,3.09
1376,0.74,-2.38,0.76,-2.36,2.36,1.98,3.11,3.13,3.13
1390,0.73,-2.43,0.75,-2.42,2.42,1.97,3.15,3.17,3.17
1404,0.74,-2.46,0.73,-2.47,2.47,1.96,3.21,3.20,3.20
1418,0.73,-2.51,0.72,-2.52,2.52,1.95,3.26,3.24,3.24
1432,0.73,-2.55,0.71,-2.58,2.58,1.94,3.31,3.28,3.28
1446,0.71,-2.61,0.69,-2.63,2.63,1.93,3.34,3.32,3.32
1461,0.69,-2.67,0.69,-2.67,2.67,1.93,3.37,3.36,3.36
1475,0.67,-2.73,0.68,-2.72,2.72,1.92,3.39,3.40,3.40
1490,0.65,-2.79,0.68,-2.76,2.76,1.92,3.42,3.44,3.44
1505,0.65,-2.83,0.68,-2.80,2.80,1.92,3.45,3.48,3.48
1520,0.66,-2.86,0.69,-2.83,2.83,1.92,3.50,3.52,3.52
1535,0.69,-2.87,0.70,-2.86,2.86,1.92,3.56,3.56,3.56
1550,0.72,-2.88,0.72,-2.89,2.89,1.93,3.61,3.61,3.61
1566,0.75,-2.89,0.74,-2.90,2.90,1.93,3.66,3.65,3.65
1582,0.78,-2.91,0.77,-2.92,2.92,1.94,3.70,3.69,3.69
1597,0.82,-2.91,0.81,-2.92,2.92,1.95,3.75,3.73,3.73
1613,0.85,-2.92,0.85,-2.93,2.93,1.96,3.78,3.78,3.78
1629,0.90,-2.92,0.90,-2.92,2.92,1.97,3.83,3.82,3.82
1646,0.95,-2.91,0.95,-2.91,2.91,1.98,3.87,3.87,3.87
1662,1.00,-2.91,1.01,-2.90,2.90,1.99,3.90,3.91,3.91
1679,1.07,-2.88,1.08,-2.88,2.88,2.00,3.95,3.96,3.96
1696,1.14,-2.86,1.15,-2.85,2.85,2.02,3.99,4.00,4.00
1713,1.22,-2.83,1.23,-2.82,2.82,2.03,4.04,4.05,4.05
1730,1.31,-2.78,1.32,-2.78,2.78,2.04,4.09,4.10,4.10
1747,1.41,-2.73,1.41,-2.73,2.73,2.06,4.15,4.14,4.15
1764,1.51,-2.68,1.51,-2.68,2.68,2.07,4.20,4.19,4.20
1782,1.62,-2.62,1.61,-2.63,2.63,2.09,4.25,4.24,4.25
1800,1.73,-2.56,1.72,-2.57,2.57,2.10,4.31,4.30,4.30
1818,1.85,-2.50,1.84,-2.51,2.51,2.11,4.36,4.35,4.35
1836,1.97,-2.43,1.96,-2.44,2.44,2.13,4.42,4.41,4.41
1854,2.09,-2.37,2.09,-2.37,2.37,2.14,4.46,4.46,4.47
1873,2.22,-2.30,2.23,-2.30,2.30,2.15,4.52,4.52,4.53
1892,2.37,-2.22,2.37,-2.22,2.22,2.16,4.59,4.59,4.59
1911,2.52,-2.13,2.52,-2.13,2.13,2.17,4.66,4.65,4.66
1930,2.67,-2.05,2.68,-2.04,2.04,2.18,4.72,4.73,4.73
1949,2.84,-1.96,2.85,-1.95,1.95,2.19,4.80,4.80,4.80
1969,3.01,-1.87,3.02,-1.86,1.86,2.19,4.87,4.88,4.88
1988,3.18,-1.78,3.21,-1.76,1.76,2.19,4.94,4.97,4.97
2008,3.37,-1.68,3.40,-1.66,1.66,2.20,5.03,5.06,5.06
2028,3.57,-1.58,3.60,-1.56,1.56,2.20,5.13,5.16,5.16
2048,3.79,-1.47,3.81,-1.45,1.45,2.20,5.25,5.27,5.26
