frequency,raw,smoothed,error,error_smoothed,equalization,parametric_eq,fixed_band_eq,equalized_raw,equalized_smoothed,target
20.00,0.65,0.64,-2.55,-2.56,2.52,1.99,0.32,3.17,3.16,3.21
20.20,0.76,0.77,-2.47,-2.46,2.45,1.95,0.33,3.21,3.22,3.24
20.40,0.87,0.89,-2.39,-2.37,2.38,1.92,0.34,3.26,3.27,3.27
20.61,0.99,1.00,-2.29,-2.29,2.32,1.89,0.35,3.31,3.32,3.28
20.81,1.10,1.10,-2.21,-2.21,2.26,1.85,0.36,3.36,3.36,3.31
21.02,1.20,1.19,-2.14,-2.15,2.20,1.82,0.37,3.41,3.39,3.34
21.23,1.23,1.24,-2.12,-2.12,2.15,1.78,0.38,3.38,3.39,3.35
21.44,1.26,1.27,-2.10,-2.09,2.10,1.75,0.40,3.36,3.37,3.36
21.66,1.29,1.29,-2.08,-2.08,2.06,1.72,0.41,3.36,3.35,3.37
21.87,1.31,1.32,-2.06,-2.06,2.03,1.68,0.42,3.34,3.35,3.37
22.09,1.35,1.36,-2.03,-2.02,1.99,1.65,0.44,3.35,3.35,3.38
22.31,1.41,1.41,-1.97,-1.97,1.95,1.62,0.45,3.36,3.36,3.38
22.54,1.47,1.47,-1.91,-1.91,1.90,1.58,0.46,3.38,3.38,3.38
22.76,1.53,1.53,-1.84,-1.84,1.85,1.55,0.48,3.39,3.39,3.38
22.99,1.59,1.59,-1.77,-1.78,1.80,1.52,0.49,3.39,3.39,3.37
23.22,1.63,1.64,-1.73,-1.73,1.74,1.49,0.51,3.38,3.38,3.37
23.45,1.68,1.68,-1.68,-1.68,1.69,1.45,0.53,3.37,3.37,3.37
23.69,1.72,1.73,-1.64,-1.64,1.64,1.42,0.54,3.36,3.36,3.37
23.92,1.77,1.77,-1.59,-1.60,1.59,1.39,0.56,3.36,3.36,3.37
24.16,1.81,1.82,-1.56,-1.55,1.55,1.36,0.57,3.36,3.36,3.37
24.40,1.86,1.86,-1.51,-1.51,1.51,1.32,0.59,3.37,3.37,3.37
24.65,1.90,1.91,-1.46,-1.46,1.47,1.29,0.61,3.37,3.38,3.36
24.89,1.95,1.95,-1.41,-1.41,1.43,1.26,0.62,3.39,3.38,3.36
25.14,1.98,1.99,-1.38,-1.38,1.39,1.23,0.64,3.38,3.38,3.36
25.39,2.01,2.01,-1.35,-1.35,1.34,1.20,0.66,3.36,3.35,3.36
25.65,2.04,2.04,-1.31,-1.32,1.29,1.17,0.68,3.33,3.32,3.36
25.91,2.06,2.08,-1.28,-1.27,1.22,1.14,0.69,3.29,3.30,3.35
26.16,2.14,2.14,-1.21,-1.20,1.16,1.10,0.71,3.30,3.30,3.35
26.43,2.23,2.24,-1.11,-1.11,1.11,1.07,0.72,3.34,3.34,3.35
26.69,2.33,2.33,-1.01,-1.01,1.05,1.04,0.74,3.39,3.39,3.34
26.96,2.42,2.40,-0.92,-0.94,1.01,1.01,0.76,3.43,3.41,3.34
27.23,2.42,2.42,-0.92,-0.92,0.97,0.98,0.77,3.40,3.40,3.34
27.50,2.40,2.41,-0.94,-0.93,0.94,0.95,0.78,3.35,3.35,3.34
27.77,2.38,2.39,-0.94,-0.95,0.92,0.92,0.80,3.31,3.31,3.33
28.05,2.37,2.38,-0.95,-0.94,0.91,0.89,0.81,3.28,3.29,3.33
28.33,2.39,2.39,-0.92,-0.93,0.89,0.86,0.82,3.28,3.28,3.32
28.62,2.42,2.42,-0.89,-0.89,0.87,0.83,0.83,3.29,3.28,3.31
28.90,2.45,2.46,-0.86,-0.85,0.83,0.80,0.84,3.29,3.29,3.31
29.19,2.50,2.51,-0.80,-0.80,0.79,0.77,0.85,3.30,3.30,3.30
29.48,2.56,2.57,-0.74,-0.74,0.75,0.75,0.85,3.31,3.32,3.31
29.78,2.62,2.62,-0.67,-0.68,0.71,0.72,0.86,3.33,3.33,3.30
30.08,2.67,2.66,-0.62,-0.64,0.67,0.69,0.86,3.35,3.33,3.30
30.38,2.66,2.67,-0.62,-0.62,0.64,0.66,0.86,3.31,3.31,3.28
30.68,2.66,2.66,-0.62,-0.61,0.61,0.63,0.86,3.28,3.28,3.28
30.99,2.65,2.66,-0.62,-0.61,0.58,0.60,0.86,3.24,3.25,3.27
31.30,2.67,2.67,-0.59,-0.59,0.56,0.57,0.85,3.23,3.23,3.27
31.61,2.70,2.70,-0.56,-0.56,0.53,0.55,0.85,3.24,3.23,3.27
31.93,2.72,2.73,-0.53,-0.52,0.52,0.52,0.84,3.24,3.25,3.25
32.24,2.76,2.77,-0.48,-0.48,0.51,0.49,0.83,3.27,3.28,3.24
32.57,2.79,2.80,-0.44,-0.44,0.50,0.46,0.82,3.29,3.30,3.24
32.89,2.83,2.82,-0.40,-0.42,0.48,0.43,0.80,3.31,3.29,3.24
33.22,2.80,2.79,-0.42,-0.44,0.45,0.41,0.79,3.25,3.23,3.22
33.55,2.75,2.75,-0.47,-0.47,0.40,0.38,0.77,3.16,3.15,3.22
33.89,2.69,2.74,-0.51,-0.47,0.36,0.35,0.76,3.05,3.09,3.21
34.23,2.78,2.81,-0.42,-0.39,0.31,0.33,0.74,3.10,3.12,3.20
34.57,2.93,2.93,-0.26,-0.26,0.26,0.30,0.72,3.20,3.19,3.19
34.92,3.09,3.05,-0.09,-0.13,0.21,0.27,0.69,3.30,3.26,3.18
35.27,3.11,3.10,-0.06,-0.07,0.16,0.24,0.67,3.27,3.26,3.17
35.62,3.07,3.09,-0.09,-0.07,0.12,0.22,0.65,3.19,3.21,3.16
35.97,3.04,3.06,-0.10,-0.09,0.09,0.19,0.62,3.14,3.15,3.15
36.33,3.04,3.05,-0.10,-0.09,0.09,0.16,0.60,3.14,3.14,3.14
36.70,3.04,3.04,-0.09,-0.09,0.11,0.14,0.57,3.15,3.15,3.13
37.06,3.03,3.01,-0.08,-0.11,0.12,0.11,0.54,3.16,3.13,3.12
37.43,2.96,2.96,-0.15,-0.15,0.13,0.08,0.52,3.09,3.08,3.11
37.81,2.89,2.92,-0.20,-0.18,0.11,0.05,0.49,3.00,3.03,3.10
38.19,2.91,2.94,-0.17,-0.15,0.07,0.03,0.46,2.98,3.00,3.08
38.57,3.01,3.01,-0.06,-0.07,0.01,-0.00,0.43,3.03,3.02,3.08
38.95,3.12,3.11,0.06,0.05,-0.04,-0.03,0.40,3.08,3.07,3.06
39.34,3.19,3.20,0.15,0.15,-0.10,-0.06,0.37,3.10,3.11,3.05
39.74,3.26,3.26,0.23,0.23,-0.15,-0.08,0.35,3.11,3.11,3.03
40.14,3.30,3.28,0.28,0.26,-0.21,-0.11,0.32,3.10,3.08,3.03
40.54,3.27,3.28,0.26,0.26,-0.25,-0.14,0.29,3.03,3.03,3.01
40.94,3.23,3.25,0.23,0.25,-0.27,-0.17,0.26,2.97,2.99,3.01
41.35,3.23,3.23,0.24,0.24,-0.26,-0.19,0.23,2.97,2.97,2.99
41.76,3.23,3.23,0.25,0.25,-0.25,-0.22,0.20,2.98,2.98,2.98
42.18,3.23,3.24,0.26,0.27,-0.24,-0.25,0.17,3.00,3.00,2.98
42.60,3.23,3.24,0.27,0.27,-0.24,-0.28,0.14,2.99,2.99,2.96
43.03,3.23,3.20,0.28,0.25,-0.27,-0.31,0.11,2.96,2.93,2.95
43.46,3.17,3.17,0.24,0.23,-0.31,-0.34,0.08,2.86,2.85,2.94
43.90,3.12,3.19,0.22,0.27,-0.36,-0.37,0.05,2.76,2.83,2.91
44.33,3.25,3.27,0.36,0.38,-0.41,-0.40,0.02,2.83,2.86,2.89
44.78,3.42,3.38,0.55,0.51,-0.46,-0.43,-0.00,2.96,2.91,2.87
45.23,3.49,3.46,0.64,0.61,-0.51,-0.46,-0.03,2.98,2.94,2.85
45.68,3.45,3.47,0.62,0.63,-0.56,-0.49,-0.06,2.89,2.91,2.84
46.13,3.42,3.44,0.61,0.62,-0.61,-0.52,-0.09,2.82,2.84,2.82
46.60,3.42,3.42,0.62,0.62,-0.64,-0.55,-0.12,2.78,2.78,2.81
47.06,3.42,3.42,0.64,0.63,-0.66,-0.59,-0.15,2.76,2.76,2.79
47.53,3.42,3.42,0.66,0.65,-0.68,-0.62,-0.18,2.75,2.75,2.77
48.01,3.42,3.42,0.67,0.67,-0.68,-0.65,-0.20,2.74,2.74,2.76
48.49,3.42,3.42,0.70,0.70,-0.70,-0.68,-0.23,2.72,2.72,2.73
48.97,3.42,3.42,0.73,0.73,-0.72,-0.72,-0.26,2.70,2.70,2.70
49.46,3.42,3.42,0.76,0.76,-0.75,-0.75,-0.29,2.67,2.67,2.66
49.96,3.42,3.42,0.79,0.78,-0.78,-0.78,-0.32,2.64,2.64,2.63
50.46,3.42,3.42,0.80,0.81,-0.81,-0.81,-0.35,2.62,2.62,2.62
50.96,3.42,3.42,0.83,0.83,-0.83,-0.84,-0.37,2.59,2.59,2.60
51.47,3.42,3.42,0.86,0.85,-0.85,-0.87,-0.40,2.57,2.57,2.56
51.99,3.42,3.42,0.88,0.88,-0.88,-0.90,-0.43,2.55,2.55,2.54
52.51,3.42,3.42,0.90,0.90,-0.90,-0.93,-0.46,2.52,2.52,2.53
53.03,3.42,3.42,0.92,0.92,-0.92,-0.96,-0.49,2.50,2.50,2.50
53.56,3.42,3.42,0.95,0.94,-0.95,-0.99,-0.51,2.48,2.48,2.48
54.10,3.42,3.42,0.97,0.97,-0.97,-1.02,-0.54,2.45,2.45,2.45
54.64,3.42,3.42,1.00,1.00,-1.00,-1.04,-0.57,2.43,2.43,2.43
55.18,3.42,3.42,1.02,1.02,-1.02,-1.07,-0.60,2.40,2.40,2.40
55.74,3.42,3.42,1.05,1.05,-1.05,-1.09,-0.62,2.37,2.37,2.37
56.29,3.42,3.42,1.07,1.07,-1.08,-1.11,-0.65,2.34,2.34,2.36
56.86,3.42,3.42,1.10,1.10,-1.11,-1.13,-0.68,2.31,2.31,2.33
57.42,3.42,3.42,1.13,1.12,-1.13,-1.14,-0.70,2.30,2.30,2.30
58.00,3.42,3.42,1.14,1.14,-1.13,-1.16,-0.73,2.29,2.29,2.28
58.58,3.42,3.43,1.16,1.17,-1.13,-1.17,-0.75,2.29,2.30,2.26
59.16,3.42,3.44,1.18,1.20,-1.13,-1.19,-0.78,2.29,2.31,2.24
59.76,3.42,3.37,1.21,1.16,-1.13,-1.20,-0.80,2.29,2.24,2.22
60.35,3.32,3.29,1.14,1.10,-1.14,-1.20,-0.83,2.18,2.15,2.19
60.96,3.14,3.25,0.98,1.09,-1.17,-1.21,-0.85,1.97,2.07,2.16
61.57,3.24,3.23,1.12,1.11,-1.20,-1.22,-0.87,2.04,2.03,2.12
62.18,3.32,3.27,1.24,1.18,-1.24,-1.22,-0.90,2.09,2.04,2.09
62.80,3.32,3.33,1.26,1.27,-1.25,-1.23,-0.92,2.07,2.08,2.06
63.43,3.34,3.38,1.32,1.35,-1.26,-1.23,-0.94,2.08,2.11,2.03
64.07,3.38,3.42,1.38,1.42,-1.28,-1.23,-0.96,2.11,2.14,2.00
64.71,3.46,3.35,1.49,1.38,-1.29,-1.24,-0.99,2.18,2.07,1.97
65.35,3.29,3.23,1.34,1.29,-1.29,-1.24,-1.01,2.00,1.94,1.95
66.01,2.94,3.11,1.03,1.19,-1.29,-1.24,-1.03,1.65,1.82,1.92
66.67,3.05,3.04,1.16,1.15,-1.29,-1.24,-1.05,1.77,1.75,1.89
67.33,3.11,3.06,1.25,1.20,-1.28,-1.24,-1.07,1.83,1.78,1.86
68.01,3.13,3.14,1.30,1.31,-1.28,-1.24,-1.09,1.85,1.86,1.83
68.69,3.13,3.14,1.34,1.35,-1.29,-1.24,-1.12,1.85,1.86,1.80
69.37,3.13,3.14,1.37,1.37,-1.31,-1.24,-1.14,1.82,1.82,1.77
70.07,3.12,3.11,1.39,1.37,-1.34,-1.24,-1.16,1.78,1.77,1.73
70.77,3.06,3.06,1.35,1.35,-1.36,-1.24,-1.18,1.71,1.70,1.71
71.48,2.99,3.01,1.32,1.33,-1.35,-1.24,-1.20,1.64,1.65,1.68
72.19,2.94,2.95,1.30,1.31,-1.33,-1.24,-1.23,1.61,1.62,1.64
72.91,2.92,2.92,1.32,1.31,-1.30,-1.24,-1.25,1.62,1.61,1.60
73.64,2.87,2.88,1.31,1.31,-1.27,-1.24,-1.28,1.60,1.61,1.57
74.38,2.81,2.79,1.27,1.25,-1.23,-1.24,-1.30,1.58,1.55,1.54
75.12,2.72,2.69,1.22,1.18,-1.19,-1.23,-1.33,1.53,1.49,1.50
75.87,2.51,2.62,1.04,1.15,-1.15,-1.23,-1.35,1.36,1.47,1.47
76.63,2.59,2.58,1.15,1.14,-1.13,-1.23,-1.38,1.46,1.45,1.44
77.40,2.59,2.50,1.18,1.09,-1.12,-1.22,-1.41,1.47,1.38,1.41
78.17,2.46,2.44,1.09,1.06,-1.11,-1.22,-1.44,1.35,1.32,1.37
78.95,2.25,2.39,0.91,1.05,-1.11,-1.21,-1.47,1.15,1.28,1.35
79.74,2.40,2.42,1.09,1.11,-1.11,-1.21,-1.50,1.29,1.31,1.31
80.54,2.55,2.46,1.27,1.18,-1.12,-1.20,-1.54,1.43,1.34,1.28
81.35,2.52,2.46,1.28,1.22,-1.14,-1.19,-1.57,1.39,1.33,1.24
82.16,2.30,2.39,1.10,1.17,-1.15,-1.19,-1.61,1.16,1.24,1.21
82.98,2.26,2.29,1.08,1.11,-1.16,-1.18,-1.65,1.11,1.13,1.18
83.81,2.29,2.25,1.16,1.11,-1.16,-1.18,-1.68,1.13,1.09,1.14
84.65,2.24,2.28,1.15,1.18,-1.17,-1.17,-1.72,1.07,1.11,1.10
85.50,2.28,2.27,1.21,1.21,-1.18,-1.17,-1.77,1.10,1.09,1.07
86.35,2.28,2.21,1.25,1.18,-1.20,-1.17,-1.81,1.09,1.01,1.03
87.22,2.12,2.18,1.13,1.19,-1.22,-1.17,-1.86,0.90,0.96,0.99
88.09,2.09,2.18,1.14,1.22,-1.25,-1.17,-1.90,0.85,0.93,0.95
88.97,2.24,2.18,1.33,1.26,-1.26,-1.18,-1.95,0.98,0.91,0.92
89.86,2.25,2.20,1.38,1.33,-1.27,-1.20,-2.00,0.99,0.94,0.88
90.76,2.11,2.18,1.29,1.35,-1.26,-1.22,-2.05,0.85,0.92,0.82
91.66,2.11,2.08,1.32,1.29,-1.26,-1.24,-2.10,0.85,0.82,0.79
92.58,2.00,1.99,1.26,1.25,-1.27,-1.27,-2.16,0.73,0.72,0.74
93.51,1.89,1.93,1.19,1.23,-1.29,-1.30,-2.21,0.61,0.65,0.71
94.44,1.89,1.88,1.23,1.22,-1.30,-1.35,-2.27,0.59,0.58,0.66
95.39,1.88,1.88,1.27,1.27,-1.32,-1.39,-2.33,0.57,0.56,0.62
96.34,1.89,1.92,1.33,1.35,-1.34,-1.44,-2.38,0.55,0.58,0.56
97.30,1.94,1.93,1.43,1.41,-1.37,-1.50,-2.44,0.57,0.56,0.52
98.28,1.97,1.95,1.50,1.48,-1.41,-1.56,-2.51,0.57,0.55,0.47
99.26,1.90,1.93,1.48,1.50,-1.44,-1.62,-2.57,0.46,0.48,0.43
100.25,1.91,1.86,1.53,1.48,-1.49,-1.68,-2.63,0.43,0.38,0.38
101.25,1.77,1.82,1.44,1.48,-1.53,-1.74,-2.69,0.24,0.29,0.33
102.27,1.78,1.81,1.50,1.53,-1.57,-1.81,-2.76,0.21,0.24,0.29
103.29,1.84,1.81,1.61,1.57,-1.62,-1.87,-2.82,0.22,0.19,0.23
104.32,1.87,1.85,1.68,1.65,-1.67,-1.94,-2.88,0.21,0.18,0.20
105.37,1.84,1.90,1.69,1.75,-1.72,-2.00,-2.94,0.13,0.18,0.15
106.42,1.92,1.94,1.82,1.84,-1.78,-2.06,-3.01,0.14,0.16,0.10
107.48,2.03,1.94,1.98,1.89,-1.87,-2.12,-3.07,0.17,0.08,0.06
108.56,1.93,1.94,1.93,1.93,-1.95,-2.18,-3.12,-0.01,-0.01,0.00
109.64,1.85,1.94,1.90,1.98,-2.03,-2.24,-3.18,-0.17,-0.09,-0.05
110.74,1.95,1.93,2.05,2.03,-2.09,-2.29,-3.24,-0.14,-0.16,-0.09
111.85,2.05,2.01,2.19,2.15,-2.14,-2.34,-3.29,-0.09,-0.13,-0.14
112.97,2.02,2.09,2.23,2.29,-2.19,-2.39,-3.34,-0.17,-0.10,-0.20
114.10,2.15,2.08,2.40,2.33,-2.25,-2.44,-3.38,-0.10,-0.17,-0.25
115.24,2.07,2.02,2.38,2.33,-2.32,-2.49,-3.42,-0.24,-0.29,-0.30
116.39,1.90,1.99,2.26,2.34,-2.40,-2.53,-3.46,-0.49,-0.41,-0.36
117.55,1.93,1.97,2.35,2.38,-2.49,-2.57,-3.49,-0.55,-0.52,-0.41
118.73,2.07,2.03,2.54,2.49,-2.58,-2.61,-3.52,-0.51,-0.55,-0.47
119.92,2.15,2.14,2.66,2.65,-2.67,-2.65,-3.55,-0.52,-0.54,-0.51
121.12,2.21,2.22,2.77,2.79,-2.76,-2.68,-3.56,-0.55,-0.54,-0.56
122.33,2.28,2.32,2.90,2.93,-2.86,-2.71,-3.57,-0.57,-0.53,-0.61
123.55,2.39,2.38,3.05,3.04,-2.95,-2.75,-3.58,-0.56,-0.57,-0.66
124.79,2.46,2.38,3.17,3.09,-3.04,-2.77,-3.58,-0.58,-0.66,-0.71
126.03,2.29,2.35,3.05,3.10,-3.11,-2.80,-3.58,-0.82,-0.77,-0.76
127.29,2.26,2.28,3.07,3.09,-3.15,-2.82,-3.56,-0.89,-0.88,-0.81
128.57,2.25,2.26,3.12,3.13,-3.18,-2.85,-3.55,-0.92,-0.91,-0.87
129.85,2.27,2.30,3.19,3.22,-3.19,-2.87,-3.52,-0.92,-0.89,-0.92
131.15,2.37,2.31,3.34,3.27,-3.21,-2.89,-3.50,-0.84,-0.90,-0.96
132.46,2.27,2.27,3.28,3.27,-3.24,-2.90,-3.46,-0.96,-0.97,-1.01
133.79,2.18,2.19,3.23,3.24,-3.27,-2.92,-3.43,-1.09,-1.08,-1.05
135.12,2.09,2.14,3.20,3.23,-3.31,-2.93,-3.38,-1.22,-1.17,-1.10
136.48,2.13,2.16,3.27,3.30,-3.35,-2.94,-3.33,-1.21,-1.18,-1.14
137.84,2.26,2.22,3.45,3.41,-3.38,-2.94,-3.28,-1.12,-1.16,-1.18
139.22,2.28,2.25,3.52,3.48,-3.43,-2.95,-3.23,-1.14,-1.18,-1.24
140.61,2.24,2.24,3.52,3.52,-3.48,-2.96,-3.17,-1.24,-1.24,-1.28
142.02,2.17,2.23,3.47,3.54,-3.56,-2.96,-3.11,-1.39,-1.33,-1.30
143.44,2.26,2.25,3.61,3.60,-3.65,-2.96,-3.04,-1.39,-1.40,-1.34
144.87,2.32,2.30,3.71,3.68,-3.75,-2.96,-2.98,-1.42,-1.45,-1.38
146.32,2.37,2.38,3.80,3.79,-3.84,-2.95,-2.91,-1.46,-1.46,-1.42
147.78,2.41,2.45,3.86,3.90,-3.92,-2.95,-2.84,-1.50,-1.47,-1.45
149.26,2.51,2.51,4.00,4.00,-3.98,-2.94,-2.77,-1.47,-1.47,-1.49
150.75,2.57,2.54,4.11,4.07,-4.02,-2.93,-2.70,-1.45,-1.48,-1.54
152.26,2.50,2.50,4.08,4.07,-4.02,-2.92,-2.63,-1.52,-1.52,-1.57
153.78,2.39,2.43,4.00,4.04,-3.96,-2.91,-2.56,-1.57,-1.54,-1.61
155.32,2.24,2.27,3.90,3.92,-3.86,-2.89,-2.48,-1.61,-1.58,-1.65
156.88,2.14,2.05,3.83,3.74,-3.70,-2.88,-2.41,-1.55,-1.64,-1.69
158.44,1.70,1.74,3.43,3.47,-3.48,-2.86,-2.34,-1.77,-1.74,-1.73
160.03,1.35,1.34,3.13,3.11,-3.21,-2.84,-2.27,-1.86,-1.87,-1.77
161.63,0.89,0.90,2.71,2.71,-2.93,-2.81,-2.20,-2.04,-2.03,-1.81
163.24,0.52,0.55,2.38,2.40,-2.66,-2.79,-2.13,-2.14,-2.12,-1.85
164.88,0.23,0.24,2.12,2.13,-2.44,-2.76,-2.07,-2.20,-2.20,-1.88
166.53,0.06,0.03,1.99,1.96,-2.27,-2.74,-2.00,-2.21,-2.24,-1.92
168.19,-0.09,-0.06,1.88,1.90,-2.17,-2.71,-1.93,-2.26,-2.23,-1.96
169.87,-0.08,-0.04,1.92,1.96,-2.14,-2.68,-1.87,-2.22,-2.18,-2.00
171.57,0.10,0.07,2.14,2.11,-2.18,-2.64,-1.80,-2.07,-2.10,-2.04
173.29,0.24,0.24,2.32,2.31,-2.27,-2.61,-1.74,-2.03,-2.03,-2.07
175.02,0.39,0.38,2.50,2.49,-2.41,-2.57,-1.68,-2.02,-2.03,-2.11
176.77,0.48,0.49,2.64,2.64,-2.58,-2.53,-1.62,-2.09,-2.09,-2.15
178.54,0.57,0.58,2.77,2.77,-2.74,-2.49,-1.56,-2.17,-2.16,-2.20
180.32,0.66,0.68,2.89,2.91,-2.88,-2.45,-1.51,-2.22,-2.20,-2.23
182.13,0.74,0.76,3.01,3.03,-2.97,-2.41,-1.45,-2.23,-2.21,-2.26
183.95,0.85,0.79,3.16,3.09,-3.02,-2.36,-1.40,-2.17,-2.23,-2.30
185.79,0.73,0.75,3.07,3.08,-3.04,-2.31,-1.34,-2.31,-2.30,-2.34
187.65,0.64,0.66,3.02,3.03,-3.04,-2.27,-1.29,-2.39,-2.38,-2.38
189.52,0.53,0.55,2.94,2.96,-3.01,-2.22,-1.24,-2.48,-2.46,-2.41
191.42,0.48,0.49,2.92,2.92,-2.96,-2.17,-1.19,-2.48,-2.47,-2.44
193.33,0.43,0.42,2.90,2.89,-2.90,-2.11,-1.14,-2.46,-2.47,-2.46
195.27,0.35,0.35,2.85,2.85,-2.83,-2.06,-1.10,-2.47,-2.47,-2.49
197.22,0.26,0.25,2.78,2.78,-2.76,-2.00,-1.05,-2.50,-2.51,-2.52
199.19,0.14,0.14,2.70,2.69,-2.71,-1.94,-1.00,-2.56,-2.57,-2.56
201.18,0.01,0.03,2.59,2.61,-2.65,-1.88,-0.96,-2.64,-2.62,-2.57
203.19,-0.06,-0.04,2.53,2.55,-2.59,-1.82,-0.92,-2.65,-2.63,-2.59
205.23,-0.10,-0.10,2.52,2.50,-2.51,-1.76,-0.87,-2.61,-2.62,-2.62
207.28,-0.15,-0.17,2.47,2.46,-2.42,-1.69,-0.83,-2.57,-2.60,-2.62
209.35,-0.29,-0.26,2.36,2.38,-2.32,-1.63,-0.79,-2.61,-2.58,-2.65
211.44,-0.40,-0.40,2.27,2.26,-2.21,-1.56,-0.75,-2.60,-2.61,-2.67
213.56,-0.55,-0.58,2.13,2.10,-2.08,-1.49,-0.71,-2.63,-2.66,-2.67
215.69,-0.78,-0.76,1.90,1.93,-1.94,-1.42,-0.67,-2.72,-2.70,-2.68
217.85,-0.96,-0.93,1.73,1.76,-1.80,-1.35,-0.64,-2.75,-2.73,-2.69
220.03,-1.09,-1.10,1.62,1.60,-1.64,-1.28,-0.60,-2.73,-2.74,-2.70
222.23,-1.23,-1.24,1.49,1.47,-1.48,-1.21,-0.56,-2.71,-2.72,-2.71
224.45,-1.40,-1.38,1.31,1.33,-1.32,-1.13,-0.53,-2.71,-2.70,-2.70
226.70,-1.53,-1.52,1.18,1.18,-1.16,-1.06,-0.49,-2.68,-2.68,-2.71
228.96,-1.66,-1.67,1.05,1.03,-1.00,-0.98,-0.45,-2.66,-2.67,-2.71
231.25,-1.83,-1.82,0.87,0.88,-0.85,-0.90,-0.42,-2.68,-2.67,-2.70
233.57,-1.99,-2.00,0.71,0.70,-0.71,-0.82,-0.38,-2.69,-2.71,-2.70
235.90,-2.18,-2.17,0.52,0.53,-0.57,-0.74,-0.35,-2.75,-2.74,-2.70
238.26,-2.32,-2.29,0.38,0.40,-0.45,-0.66,-0.32,-2.77,-2.74,-2.70
240.64,-2.38,-2.39,0.31,0.30,-0.34,-0.58,-0.28,-2.71,-2.73,-2.69
243.05,-2.44,-2.45,0.24,0.22,-0.24,-0.50,-0.25,-2.67,-2.69,-2.67
245.48,-2.53,-2.49,0.14,0.17,-0.14,-0.42,-0.21,-2.67,-2.63,-2.66
247.93,-2.55,-2.56,0.10,0.09,-0.05,-0.33,-0.18,-2.60,-2.62,-2.65
250.41,-2.61,-2.65,0.04,-0.01,0.03,-0.25,-0.14,-2.58,-2.62,-2.65
252.92,-2.78,-2.73,-0.15,-0.11,0.11,-0.16,-0.11,-2.66,-2.62,-2.63
255.45,-2.84,-2.83,-0.23,-0.22,0.21,-0.08,-0.08,-2.63,-2.62,-2.60
258.00,-2.90,-2.92,-0.31,-0.33,0.31,0.01,-0.04,-2.59,-2.61,-2.59
260.58,-2.99,-3.00,-0.41,-0.43,0.43,0.10,-0.01,-2.56,-2.58,-2.58
263.19,-3.12,-3.10,-0.56,-0.54,0.56,0.18,0.03,-2.56,-2.54,-2.55
265.82,-3.23,-3.19,-0.69,-0.65,0.68,0.27,0.06,-2.54,-2.50,-2.54
268.48,-3.26,-3.29,-0.74,-0.77,0.81,0.36,0.10,-2.44,-2.48,-2.52
271.16,-3.39,-3.43,-0.89,-0.93,0.94,0.45,0.13,-2.45,-2.49,-2.49
273.87,-3.59,-3.57,-1.11,-1.10,1.06,0.53,0.17,-2.52,-2.51,-2.48
276.61,-3.75,-3.69,-1.29,-1.23,1.18,0.62,0.20,-2.56,-2.50,-2.45
279.38,-3.75,-3.75,-1.31,-1.31,1.29,0.71,0.24,-2.45,-2.46,-2.44
282.17,-3.75,-3.80,-1.32,-1.38,1.39,0.79,0.28,-2.36,-2.41,-2.42
284.99,-3.86,-3.86,-1.46,-1.46,1.47,0.88,0.31,-2.39,-2.39,-2.40
287.84,-3.97,-3.93,-1.58,-1.55,1.54,0.96,0.35,-2.43,-2.39,-2.38
290.72,-4.00,-3.98,-1.64,-1.62,1.60,1.05,0.39,-2.40,-2.38,-2.36
293.63,-3.97,-3.99,-1.62,-1.65,1.65,1.13,0.43,-2.31,-2.34,-2.34
296.57,-4.00,-4.01,-1.68,-1.69,1.70,1.21,0.47,-2.29,-2.30,-2.32
299.53,-4.05,-4.04,-1.75,-1.74,1.76,1.29,0.51,-2.29,-2.28,-2.30
302.53,-4.09,-4.08,-1.80,-1.80,1.81,1.38,0.55,-2.28,-2.27,-2.28
305.55,-4.12,-4.12,-1.87,-1.86,1.86,1.45,0.59,-2.25,-2.25,-2.25
308.61,-4.13,-4.15,-1.89,-1.92,1.91,1.53,0.63,-2.21,-2.24,-2.23
311.69,-4.20,-4.17,-1.99,-1.97,1.96,1.61,0.67,-2.23,-2.21,-2.21
314.81,-4.20,-4.19,-2.03,-2.02,2.02,1.68,0.72,-2.18,-2.17,-2.17
317.96,-4.20,-4.22,-2.04,-2.07,2.07,1.75,0.76,-2.12,-2.15,-2.15
321.14,-4.26,-4.25,-2.12,-2.12,2.12,1.82,0.81,-2.14,-2.13,-2.14
324.35,-4.30,-4.28,-2.18,-2.16,2.17,1.89,0.85,-2.13,-2.11,-2.12
327.59,-4.30,-4.30,-2.20,-2.20,2.20,1.96,0.90,-2.09,-2.09,-2.09
330.87,-4.30,-4.32,-2.22,-2.24,2.24,2.02,0.95,-2.06,-2.08,-2.07
334.18,-4.34,-4.34,-2.28,-2.28,2.26,2.08,1.00,-2.07,-2.07,-2.06
337.52,-4.38,-4.34,-2.34,-2.31,2.29,2.14,1.05,-2.09,-2.06,-2.04
340.90,-4.33,-4.34,-2.31,-2.32,2.31,2.20,1.10,-2.01,-2.03,-2.01
344.30,-4.31,-4.32,-2.31,-2.32,2.34,2.25,1.15,-1.97,-1.98,-1.99
347.75,-4.31,-4.30,-2.33,-2.32,2.36,2.31,1.20,-1.94,-1.94,-1.98
351.23,-4.31,-4.32,-2.35,-2.36,2.38,2.35,1.26,-1.92,-1.93,-1.96
354.74,-4.34,-4.34,-2.39,-2.40,2.41,2.40,1.31,-1.93,-1.94,-1.94
358.28,-4.39,-4.37,-2.46,-2.45,2.43,2.44,1.37,-1.96,-1.94,-1.92
361.87,-4.39,-4.39,-2.48,-2.48,2.45,2.48,1.42,-1.94,-1.94,-1.91
365.49,-4.39,-4.39,-2.49,-2.49,2.47,2.52,1.48,-1.91,-1.91,-1.90
369.14,-4.38,-4.38,-2.49,-2.49,2.49,2.55,1.54,-1.88,-1.88,-1.89
372.83,-4.37,-4.37,-2.50,-2.49,2.51,2.58,1.60,-1.86,-1.86,-1.87
376.56,-4.36,-4.36,-2.49,-2.50,2.51,2.61,1.66,-1.84,-1.85,-1.86
380.33,-4.36,-4.35,-2.52,-2.51,2.51,2.63,1.72,-1.84,-1.84,-1.83
384.13,-4.35,-4.35,-2.52,-2.52,2.51,2.65,1.79,-1.84,-1.84,-1.83
387.97,-4.34,-4.34,-2.52,-2.52,2.50,2.67,1.85,-1.84,-1.84,-1.82
391.85,-4.33,-4.31,-2.52,-2.50,2.49,2.69,1.92,-1.83,-1.81,-1.81
395.77,-4.27,-4.28,-2.48,-2.48,2.49,2.70,1.98,-1.77,-1.78,-1.79
399.73,-4.24,-4.25,-2.45,-2.47,2.49,2.71,2.04,-1.75,-1.76,-1.78
403.72,-4.25,-4.24,-2.47,-2.47,2.49,2.71,2.11,-1.75,-1.75,-1.77
407.76,-4.25,-4.24,-2.48,-2.48,2.50,2.72,2.17,-1.75,-1.75,-1.76
411.84,-4.25,-4.25,-2.50,-2.50,2.50,2.72,2.24,-1.74,-1.74,-1.75
415.96,-4.25,-4.25,-2.51,-2.51,2.51,2.72,2.30,-1.74,-1.74,-1.74
420.12,-4.25,-4.25,-2.52,-2.52,2.51,2.71,2.37,-1.74,-1.75,-1.73
424.32,-4.25,-4.25,-2.53,-2.53,2.50,2.71,2.43,-1.75,-1.75,-1.72
428.56,-4.24,-4.22,-2.53,-2.51,2.49,2.70,2.49,-1.75,-1.73,-1.71
432.85,-4.18,-4.17,-2.47,-2.47,2.47,2.68,2.55,-1.71,-1.70,-1.70
437.18,-4.10,-4.11,-2.40,-2.42,2.44,2.67,2.61,-1.66,-1.67,-1.69
441.55,-4.06,-4.06,-2.38,-2.38,2.40,2.65,2.66,-1.65,-1.65,-1.67
445.96,-4.02,-4.01,-2.35,-2.35,2.36,2.64,2.72,-1.66,-1.65,-1.66
450.42,-3.97,-3.96,-2.31,-2.31,2.31,2.62,2.77,-1.66,-1.66,-1.66
454.93,-3.91,-3.92,-2.27,-2.28,2.25,2.60,2.81,-1.66,-1.67,-1.64
459.48,-3.85,-3.85,-2.22,-2.22,2.19,2.57,2.86,-1.66,-1.66,-1.63
464.07,-3.79,-3.75,-2.18,-2.15,2.13,2.55,2.90,-1.65,-1.62,-1.61
468.71,-3.65,-3.66,-2.06,-2.07,2.08,2.52,2.93,-1.57,-1.58,-1.59
473.40,-3.55,-3.57,-1.97,-2.00,2.02,2.49,2.96,-1.52,-1.55,-1.58
478.13,-3.52,-3.50,-1.96,-1.94,1.98,2.47,2.99,-1.54,-1.53,-1.56
482.91,-3.47,-3.46,-1.92,-1.92,1.94,2.44,3.01,-1.53,-1.53,-1.55
487.74,-3.43,-3.43,-1.89,-1.90,1.90,2.40,3.02,-1.52,-1.53,-1.53
492.62,-3.40,-3.39,-1.88,-1.88,1.87,2.37,3.03,-1.52,-1.52,-1.51
497.55,-3.37,-3.37,-1.86,-1.87,1.85,2.34,3.03,-1.52,-1.52,-1.50
502.52,-3.35,-3.35,-1.86,-1.87,1.83,2.31,3.03,-1.52,-1.52,-1.48
