frequency,raw,smoothed,error,error_smoothed,equalization,parametric_eq,fixed_band_eq,equalized_raw,equalized_smoothed,target
20.00,0.65,0.64,-2.28,-2.29,2.25,1.88,0.31,2.90,2.89,2.94
20.20,0.76,0.77,-2.22,-2.21,2.20,1.85,0.32,2.96,2.97,2.99
20.40,0.87,0.89,-2.16,-2.14,2.15,1.83,0.33,3.02,3.04,3.04
20.61,0.99,1.00,-2.07,-2.08,2.10,1.81,0.34,3.09,3.10,3.06
20.81,1.10,1.10,-2.01,-2.01,2.06,1.79,0.35,3.16,3.16,3.11
21.02,1.20,1.19,-1.95,-1.96,2.01,1.77,0.36,3.22,3.20,3.15
21.23,1.23,1.24,-1.94,-1.94,1.97,1.74,0.38,3.21,3.21,3.17
21.44,1.26,1.27,-1.93,-1.92,1.93,1.72,0.39,3.20,3.20,3.19
21.66,1.29,1.29,-1.92,-1.92,1.91,1.70,0.40,3.20,3.20,3.21
21.87,1.31,1.32,-1.91,-1.91,1.88,1.67,0.41,3.19,3.20,3.22
22.09,1.35,1.36,-1.89,-1.88,1.85,1.65,0.43,3.20,3.21,3.24
22.31,1.41,1.41,-1.84,-1.84,1.81,1.63,0.44,3.23,3.22,3.25
22.54,1.47,1.47,-1.78,-1.78,1.77,1.60,0.45,3.24,3.24,3.25
22.76,1.53,1.53,-1.71,-1.71,1.72,1.58,0.47,3.26,3.26,3.25
22.99,1.59,1.59,-1.64,-1.65,1.67,1.55,0.48,3.26,3.26,3.24
23.22,1.63,1.64,-1.60,-1.60,1.62,1.52,0.50,3.25,3.25,3.24
23.45,1.68,1.68,-1.55,-1.56,1.57,1.50,0.51,3.25,3.25,3.24
23.69,1.72,1.73,-1.52,-1.52,1.52,1.47,0.53,3.24,3.24,3.25
23.92,1.77,1.77,-1.47,-1.48,1.47,1.44,0.54,3.24,3.24,3.24
24.16,1.81,1.82,-1.44,-1.44,1.43,1.41,0.56,3.24,3.24,3.25
24.40,1.86,1.86,-1.40,-1.39,1.39,1.38,0.58,3.26,3.26,3.26
24.65,1.90,1.91,-1.35,-1.35,1.36,1.35,0.59,3.26,3.27,3.25
24.89,1.95,1.95,-1.30,-1.30,1.33,1.33,0.61,3.28,3.27,3.25
25.14,1.98,1.99,-1.27,-1.27,1.29,1.29,0.63,3.27,3.27,3.25
25.39,2.01,2.01,-1.24,-1.24,1.24,1.26,0.64,3.25,3.25,3.26
25.65,2.04,2.04,-1.21,-1.22,1.18,1.23,0.66,3.23,3.22,3.26
25.91,2.06,2.08,-1.18,-1.17,1.12,1.20,0.67,3.19,3.20,3.25
26.16,2.14,2.14,-1.11,-1.10,1.06,1.17,0.69,3.20,3.21,3.25
26.43,2.23,2.24,-1.01,-1.01,1.01,1.14,0.71,3.24,3.25,3.24
26.69,2.33,2.33,-0.91,-0.91,0.96,1.10,0.72,3.29,3.29,3.24
26.96,2.42,2.40,-0.83,-0.85,0.92,1.07,0.74,3.34,3.31,3.25
27.23,2.42,2.42,-0.83,-0.83,0.88,1.03,0.75,3.30,3.30,3.25
27.50,2.40,2.41,-0.85,-0.84,0.85,1.00,0.77,3.26,3.26,3.25
27.77,2.38,2.39,-0.85,-0.85,0.83,0.96,0.78,3.22,3.22,3.24
28.05,2.37,2.38,-0.86,-0.85,0.82,0.93,0.79,3.19,3.20,3.24
28.33,2.39,2.39,-0.83,-0.84,0.80,0.89,0.80,3.20,3.20,3.23
28.62,2.42,2.42,-0.80,-0.81,0.78,0.86,0.81,3.20,3.20,3.22
28.90,2.45,2.46,-0.78,-0.77,0.75,0.82,0.82,3.21,3.21,3.23
29.19,2.50,2.51,-0.72,-0.72,0.71,0.78,0.83,3.22,3.22,3.22
29.48,2.56,2.57,-0.67,-0.66,0.68,0.75,0.84,3.24,3.24,3.24
29.78,2.62,2.62,-0.60,-0.61,0.64,0.71,0.84,3.26,3.26,3.23
30.08,2.67,2.66,-0.56,-0.57,0.61,0.67,0.84,3.28,3.27,3.24
30.38,2.66,2.67,-0.56,-0.56,0.58,0.64,0.85,3.25,3.25,3.22
30.68,2.66,2.66,-0.56,-0.56,0.56,0.60,0.85,3.22,3.22,3.22
30.99,2.65,2.66,-0.57,-0.56,0.53,0.57,0.85,3.19,3.19,3.22
31.30,2.67,2.67,-0.54,-0.54,0.51,0.53,0.84,3.18,3.18,3.22
31.61,2.70,2.70,-0.51,-0.52,0.49,0.50,0.84,3.19,3.19,3.21
31.93,2.72,2.73,-0.49,-0.48,0.48,0.47,0.83,3.20,3.20,3.21
32.24,2.76,2.77,-0.44,-0.44,0.47,0.43,0.83,3.23,3.24,3.20
32.57,2.79,2.80,-0.41,-0.40,0.46,0.40,0.82,3.26,3.26,3.21
32.89,2.83,2.82,-0.37,-0.39,0.45,0.38,0.81,3.28,3.26,3.21
33.22,2.80,2.79,-0.39,-0.41,0.42,0.35,0.79,3.22,3.20,3.19
33.55,2.75,2.75,-0.44,-0.44,0.38,0.32,0.78,3.13,3.12,3.19
33.89,2.69,2.74,-0.48,-0.45,0.33,0.30,0.76,3.03,3.07,3.18
34.23,2.78,2.81,-0.40,-0.37,0.29,0.27,0.75,3.07,3.10,3.18
34.57,2.93,2.93,-0.24,-0.24,0.24,0.25,0.73,3.18,3.18,3.17
34.92,3.09,3.05,-0.08,-0.12,0.20,0.23,0.71,3.29,3.25,3.17
35.27,3.11,3.10,-0.05,-0.06,0.15,0.21,0.69,3.26,3.25,3.16
35.62,3.07,3.09,-0.09,-0.07,0.12,0.19,0.67,3.19,3.21,3.16
35.97,3.04,3.06,-0.11,-0.10,0.10,0.17,0.65,3.15,3.16,3.16
36.33,3.04,3.05,-0.12,-0.11,0.11,0.15,0.63,3.15,3.16,3.16
36.70,3.04,3.04,-0.11,-0.11,0.13,0.13,0.61,3.18,3.17,3.15
37.06,3.03,3.01,-0.11,-0.15,0.16,0.11,0.58,3.19,3.17,3.15
37.43,2.96,2.96,-0.20,-0.20,0.17,0.10,0.56,3.14,3.13,3.16
37.81,2.89,2.92,-0.26,-0.24,0.16,0.08,0.54,3.06,3.08,3.16
38.19,2.91,2.94,-0.24,-0.22,0.14,0.06,0.51,3.05,3.07,3.15
38.57,3.01,3.01,-0.14,-0.15,0.10,0.05,0.49,3.11,3.10,3.16
38.95,3.12,3.11,-0.04,-0.05,0.06,0.03,0.46,3.18,3.16,3.16
39.34,3.19,3.20,0.04,0.04,0.01,0.01,0.44,3.21,3.22,3.16
39.74,3.26,3.26,0.11,0.11,-0.03,-0.01,0.41,3.23,3.23,3.15
40.14,3.30,3.28,0.15,0.13,-0.08,-0.02,0.39,3.22,3.20,3.16
40.54,3.27,3.28,0.12,0.12,-0.11,-0.04,0.37,3.16,3.16,3.15
40.94,3.23,3.25,0.09,0.11,-0.12,-0.06,0.34,3.11,3.13,3.15
41.35,3.23,3.23,0.09,0.09,-0.12,-0.08,0.32,3.12,3.12,3.14
41.76,3.23,3.23,0.10,0.09,-0.10,-0.10,0.29,3.14,3.13,3.13
42.18,3.23,3.24,0.10,0.11,-0.08,-0.12,0.27,3.15,3.16,3.14
42.60,3.23,3.24,0.11,0.11,-0.08,-0.14,0.25,3.15,3.15,3.12
43.03,3.23,3.20,0.12,0.09,-0.11,-0.16,0.22,3.13,3.09,3.11
43.46,3.17,3.17,0.07,0.07,-0.15,-0.18,0.20,3.03,3.02,3.11
43.90,3.12,3.19,0.05,0.10,-0.19,-0.20,0.17,2.93,2.99,3.08
44.33,3.25,3.27,0.19,0.21,-0.24,-0.22,0.15,3.01,3.03,3.06
44.78,3.42,3.38,0.38,0.33,-0.29,-0.24,0.13,3.13,3.09,3.04
45.23,3.49,3.46,0.46,0.43,-0.34,-0.26,0.11,3.16,3.12,3.03
45.68,3.45,3.47,0.44,0.45,-0.38,-0.28,0.08,3.07,3.09,3.02
46.13,3.42,3.44,0.43,0.44,-0.42,-0.30,0.06,3.00,3.02,3.00
46.60,3.42,3.42,0.43,0.43,-0.45,-0.33,0.04,2.97,2.97,3.00
47.06,3.42,3.42,0.45,0.44,-0.47,-0.35,0.02,2.95,2.95,2.98
47.53,3.42,3.42,0.46,0.45,-0.47,-0.37,-0.01,2.95,2.95,2.97
48.01,3.42,3.42,0.46,0.46,-0.47,-0.39,-0.03,2.95,2.95,2.97
48.49,3.42,3.42,0.48,0.48,-0.48,-0.42,-0.05,2.94,2.94,2.95
48.97,3.42,3.42,0.50,0.50,-0.50,-0.44,-0.07,2.93,2.93,2.93
49.46,3.42,3.42,0.52,0.52,-0.51,-0.46,-0.09,2.91,2.91,2.90
49.96,3.42,3.42,0.54,0.53,-0.53,-0.48,-0.12,2.89,2.89,2.88
50.46,3.42,3.42,0.54,0.55,-0.55,-0.51,-0.14,2.88,2.88,2.88
50.96,3.42,3.42,0.56,0.56,-0.56,-0.53,-0.16,2.86,2.86,2.87
51.47,3.42,3.42,0.58,0.58,-0.57,-0.55,-0.18,2.85,2.85,2.84
51.99,3.42,3.42,0.59,0.59,-0.59,-0.58,-0.20,2.84,2.84,2.83
52.51,3.42,3.42,0.60,0.60,-0.60,-0.60,-0.22,2.83,2.83,2.83
53.03,3.42,3.42,0.60,0.60,-0.61,-0.62,-0.24,2.82,2.82,2.82
53.56,3.42,3.42,0.62,0.62,-0.62,-0.65,-0.27,2.80,2.80,2.81
54.10,3.42,3.42,0.63,0.63,-0.63,-0.67,-0.29,2.79,2.79,2.79
54.64,3.42,3.42,0.65,0.65,-0.64,-0.69,-0.31,2.78,2.78,2.78
55.18,3.42,3.42,0.65,0.66,-0.66,-0.71,-0.33,2.77,2.77,2.77
55.74,3.42,3.42,0.67,0.67,-0.67,-0.74,-0.35,2.75,2.75,2.75
56.29,3.42,3.42,0.68,0.68,-0.69,-0.76,-0.37,2.73,2.73,2.75
56.86,3.42,3.42,0.70,0.70,-0.71,-0.78,-0.40,2.71,2.71,2.73
57.42,3.42,3.42,0.73,0.72,-0.72,-0.80,-0.42,2.70,2.70,2.70
58.00,3.42,3.42,0.73,0.73,-0.72,-0.82,-0.44,2.70,2.70,2.69
58.58,3.42,3.43,0.74,0.76,-0.72,-0.85,-0.46,2.71,2.72,2.68
59.16,3.42,3.44,0.76,0.78,-0.71,-0.87,-0.49,2.71,2.72,2.66
59.76,3.42,3.37,0.79,0.74,-0.72,-0.89,-0.51,2.71,2.66,2.64
60.35,3.32,3.29,0.73,0.69,-0.73,-0.91,-0.53,2.59,2.56,2.60
60.96,3.14,3.25,0.58,0.68,-0.77,-0.93,-0.55,2.38,2.48,2.56
61.57,3.24,3.23,0.72,0.71,-0.81,-0.95,-0.58,2.44,2.43,2.52
62.18,3.32,3.27,0.85,0.79,-0.85,-0.97,-0.60,2.47,2.42,2.48
62.80,3.32,3.33,0.89,0.90,-0.88,-0.98,-0.63,2.44,2.45,2.43
63.43,3.34,3.38,0.96,0.99,-0.91,-1.00,-0.65,2.44,2.47,2.39
64.07,3.38,3.42,1.04,1.08,-0.94,-1.02,-0.67,2.45,2.49,2.34
64.71,3.46,3.35,1.17,1.05,-0.96,-1.04,-0.70,2.50,2.39,2.29
65.35,3.29,3.23,1.03,0.98,-0.98,-1.05,-0.72,2.31,2.25,2.26
66.01,2.94,3.11,0.74,0.91,-1.00,-1.07,-0.75,1.94,2.11,2.21
66.67,3.05,3.04,0.89,0.88,-1.01,-1.08,-0.78,2.04,2.03,2.16
67.33,3.11,3.06,1.00,0.95,-1.03,-1.10,-0.80,2.09,2.04,2.11
68.01,3.13,3.14,1.06,1.07,-1.04,-1.11,-0.83,2.09,2.09,2.07
68.69,3.13,3.14,1.12,1.13,-1.07,-1.12,-0.86,2.06,2.07,2.02
69.37,3.13,3.14,1.17,1.17,-1.11,-1.13,-0.89,2.02,2.02,1.97
70.07,3.12,3.11,1.21,1.19,-1.16,-1.14,-0.91,1.96,1.95,1.91
70.77,3.06,3.06,1.19,1.19,-1.20,-1.15,-0.94,1.86,1.86,1.87
71.48,2.99,3.01,1.18,1.19,-1.22,-1.16,-0.97,1.78,1.79,1.82
72.19,2.94,2.95,1.19,1.20,-1.22,-1.17,-1.01,1.72,1.73,1.75
72.91,2.92,2.92,1.23,1.22,-1.21,-1.17,-1.04,1.71,1.70,1.69
73.64,2.87,2.88,1.24,1.25,-1.21,-1.18,-1.07,1.67,1.67,1.64
74.38,2.81,2.79,1.23,1.21,-1.19,-1.19,-1.11,1.62,1.59,1.58
75.12,2.72,2.69,1.20,1.16,-1.17,-1.19,-1.14,1.55,1.51,1.52
75.87,2.51,2.62,1.05,1.16,-1.16,-1.19,-1.18,1.35,1.46,1.46
76.63,2.59,2.58,1.18,1.17,-1.16,-1.20,-1.21,1.43,1.42,1.41
77.40,2.59,2.50,1.23,1.14,-1.17,-1.20,-1.25,1.43,1.33,1.36
78.17,2.46,2.44,1.16,1.13,-1.18,-1.20,-1.29,1.28,1.26,1.30
78.95,2.25,2.39,0.99,1.13,-1.19,-1.21,-1.33,1.06,1.20,1.27
79.74,2.40,2.42,1.19,1.21,-1.21,-1.21,-1.37,1.19,1.21,1.21
80.54,2.55,2.46,1.38,1.29,-1.24,-1.22,-1.42,1.32,1.22,1.17
81.35,2.52,2.46,1.41,1.35,-1.26,-1.23,-1.46,1.26,1.20,1.11
82.16,2.30,2.39,1.24,1.31,-1.28,-1.24,-1.51,1.02,1.10,1.07
82.98,2.26,2.29,1.23,1.27,-1.31,-1.25,-1.55,0.96,0.98,1.03
83.81,2.29,2.25,1.32,1.27,-1.33,-1.26,-1.60,0.97,0.92,0.97
84.65,2.24,2.28,1.32,1.35,-1.34,-1.28,-1.65,0.90,0.94,0.93
85.50,2.28,2.27,1.40,1.39,-1.36,-1.31,-1.70,0.92,0.91,0.89
86.35,2.28,2.21,1.44,1.37,-1.39,-1.33,-1.75,0.89,0.82,0.84
87.22,2.12,2.18,1.33,1.39,-1.42,-1.36,-1.81,0.70,0.75,0.79
88.09,2.09,2.18,1.35,1.44,-1.46,-1.40,-1.86,0.63,0.71,0.74
88.97,2.24,2.18,1.56,1.49,-1.49,-1.44,-1.92,0.75,0.69,0.69
89.86,2.25,2.20,1.62,1.57,-1.50,-1.48,-1.98,0.75,0.70,0.64
90.76,2.11,2.18,1.53,1.59,-1.51,-1.52,-2.04,0.61,0.67,0.58
91.66,2.11,2.08,1.57,1.54,-1.52,-1.57,-2.10,0.60,0.56,0.54
92.58,2.00,1.99,1.52,1.51,-1.53,-1.62,-2.17,0.47,0.46,0.48
93.51,1.89,1.93,1.46,1.50,-1.55,-1.67,-2.23,0.34,0.38,0.44
94.44,1.89,1.88,1.50,1.49,-1.57,-1.72,-2.30,0.32,0.31,0.39
95.39,1.88,1.88,1.54,1.54,-1.59,-1.77,-2.36,0.30,0.29,0.35
96.34,1.89,1.92,1.60,1.62,-1.61,-1.82,-2.43,0.28,0.30,0.29
97.30,1.94,1.93,1.70,1.68,-1.64,-1.87,-2.50,0.30,0.29,0.25
98.28,1.97,1.95,1.77,1.75,-1.68,-1.93,-2.57,0.30,0.28,0.20
99.26,1.90,1.93,1.75,1.77,-1.72,-1.98,-2.64,0.19,0.21,0.16
100.25,1.91,1.86,1.80,1.75,-1.76,-2.03,-2.71,0.16,0.11,0.11
101.25,1.77,1.82,1.71,1.75,-1.80,-2.08,-2.78,-0.03,0.02,0.06
102.27,1.78,1.81,1.77,1.80,-1.84,-2.12,-2.85,-0.06,-0.03,0.02
103.29,1.84,1.81,1.88,1.84,-1.89,-2.17,-2.93,-0.05,-0.08,-0.04
104.32,1.87,1.85,1.95,1.92,-1.94,-2.21,-3.00,-0.06,-0.09,-0.07
105.37,1.84,1.90,1.97,2.02,-1.99,-2.26,-3.07,-0.15,-0.09,-0.12
106.42,1.92,1.94,2.09,2.11,-2.06,-2.30,-3.14,-0.14,-0.12,-0.17
107.48,2.03,1.94,2.26,2.17,-2.14,-2.34,-3.21,-0.11,-0.20,-0.22
108.56,1.93,1.94,2.21,2.22,-2.23,-2.37,-3.27,-0.29,-0.29,-0.28
109.64,1.85,1.94,2.18,2.26,-2.31,-2.41,-3.34,-0.45,-0.37,-0.33
110.74,1.95,1.93,2.34,2.31,-2.37,-2.45,-3.40,-0.42,-0.44,-0.38
111.85,2.05,2.01,2.47,2.44,-2.43,-2.48,-3.46,-0.37,-0.41,-0.42
112.97,2.02,2.09,2.51,2.57,-2.48,-2.51,-3.51,-0.45,-0.38,-0.48
114.10,2.15,2.08,2.68,2.61,-2.53,-2.54,-3.56,-0.37,-0.44,-0.53
115.24,2.07,2.02,2.65,2.60,-2.59,-2.57,-3.61,-0.51,-0.56,-0.57
116.39,1.90,1.99,2.53,2.61,-2.66,-2.60,-3.65,-0.75,-0.67,-0.63
117.55,1.93,1.97,2.60,2.63,-2.74,-2.62,-3.69,-0.80,-0.77,-0.66
118.73,2.07,2.03,2.78,2.73,-2.82,-2.64,-3.72,-0.75,-0.79,-0.71
119.92,2.15,2.14,2.88,2.87,-2.90,-2.67,-3.75,-0.74,-0.76,-0.73
121.12,2.21,2.22,2.99,2.99,-2.97,-2.69,-3.77,-0.75,-0.74,-0.77
122.33,2.28,2.32,3.09,3.12,-3.04,-2.71,-3.78,-0.76,-0.72,-0.80
123.55,2.39,2.38,3.22,3.21,-3.12,-2.73,-3.79,-0.73,-0.74,-0.83
124.79,2.46,2.38,3.32,3.24,-3.19,-2.74,-3.79,-0.72,-0.80,-0.86
126.03,2.29,2.35,3.18,3.23,-3.24,-2.76,-3.79,-0.94,-0.89,-0.89
127.29,2.26,2.28,3.17,3.19,-3.26,-2.77,-3.77,-1.00,-0.98,-0.91
128.57,2.25,2.26,3.20,3.21,-3.26,-2.78,-3.75,-1.01,-1.00,-0.95
129.85,2.27,2.30,3.25,3.28,-3.26,-2.79,-3.73,-0.98,-0.95,-0.98
131.15,2.37,2.31,3.38,3.31,-3.25,-2.80,-3.70,-0.88,-0.94,-1.00
132.46,2.27,2.27,3.30,3.30,-3.26,-2.81,-3.66,-0.99,-0.99,-1.03
133.79,2.18,2.19,3.24,3.25,-3.28,-2.82,-3.62,-1.09,-1.09,-1.06
135.12,2.09,2.14,3.19,3.22,-3.30,-2.83,-3.57,-1.20,-1.16,-1.09
136.48,2.13,2.16,3.24,3.28,-3.32,-2.83,-3.52,-1.18,-1.15,-1.11
137.84,2.26,2.22,3.41,3.37,-3.34,-2.84,-3.46,-1.08,-1.12,-1.14
139.22,2.28,2.25,3.46,3.42,-3.37,-2.84,-3.40,-1.08,-1.12,-1.18
140.61,2.24,2.24,3.45,3.45,-3.41,-2.84,-3.33,-1.17,-1.17,-1.21
142.02,2.17,2.23,3.39,3.46,-3.48,-2.85,-3.27,-1.31,-1.25,-1.22
143.44,2.26,2.25,3.52,3.51,-3.56,-2.85,-3.19,-1.30,-1.31,-1.25
144.87,2.32,2.30,3.62,3.59,-3.65,-2.85,-3.12,-1.33,-1.35,-1.29
146.32,2.37,2.38,3.71,3.70,-3.74,-2.85,-3.04,-1.37,-1.37,-1.33
147.78,2.41,2.45,3.77,3.81,-3.83,-2.85,-2.97,-1.42,-1.39,-1.36
149.26,2.51,2.51,3.92,3.93,-3.92,-2.84,-2.89,-1.41,-1.41,-1.41
150.75,2.57,2.54,4.05,4.01,-3.99,-2.84,-2.81,-1.42,-1.45,-1.48
152.26,2.50,2.50,4.05,4.04,-4.01,-2.84,-2.73,-1.51,-1.51,-1.54
153.78,2.39,2.43,4.00,4.04,-3.97,-2.84,-2.65,-1.58,-1.55,-1.61
155.32,2.24,2.27,3.93,3.95,-3.87,-2.84,-2.57,-1.62,-1.59,-1.68
156.88,2.14,2.05,3.90,3.81,-3.69,-2.84,-2.49,-1.55,-1.64,-1.76
158.44,1.70,1.74,3.54,3.58,-3.46,-2.84,-2.41,-1.76,-1.73,-1.84
160.03,1.35,1.34,3.28,3.26,-3.20,-2.84,-2.33,-1.85,-1.86,-1.92
161.63,0.89,0.90,2.89,2.89,-2.93,-2.84,-2.25,-2.03,-2.03,-1.99
163.24,0.52,0.55,2.58,2.60,-2.68,-2.84,-2.17,-2.15,-2.13,-2.05
164.88,0.23,0.24,2.34,2.35,-2.47,-2.84,-2.10,-2.24,-2.23,-2.10
166.53,0.06,0.03,2.22,2.19,-2.33,-2.85,-2.02,-2.27,-2.30,-2.15
168.19,-0.09,-0.06,2.11,2.14,-2.26,-2.86,-1.95,-2.35,-2.32,-2.19
169.87,-0.08,-0.04,2.15,2.19,-2.26,-2.87,-1.87,-2.34,-2.30,-2.23
171.57,0.10,0.07,2.35,2.32,-2.33,-2.88,-1.80,-2.22,-2.25,-2.25
173.29,0.24,0.24,2.51,2.50,-2.44,-2.90,-1.73,-2.20,-2.21,-2.26
175.02,0.39,0.38,2.66,2.65,-2.58,-2.92,-1.66,-2.19,-2.20,-2.27
176.77,0.48,0.49,2.77,2.77,-2.73,-2.94,-1.59,-2.24,-2.24,-2.28
178.54,0.57,0.58,2.86,2.86,-2.85,-2.96,-1.52,-2.27,-2.27,-2.29
180.32,0.66,0.68,2.94,2.96,-2.94,-2.99,-1.46,-2.27,-2.26,-2.28
182.13,0.74,0.76,3.02,3.04,-2.99,-3.01,-1.39,-2.25,-2.23,-2.27
183.95,0.85,0.79,3.14,3.07,-3.01,-3.02,-1.33,-2.15,-2.22,-2.28
185.79,0.73,0.75,3.02,3.03,-3.00,-3.03,-1.27,-2.27,-2.25,-2.29
187.65,0.64,0.66,2.95,2.96,-2.97,-3.03,-1.20,-2.33,-2.32,-2.31
189.52,0.53,0.55,2.85,2.87,-2.92,-3.01,-1.15,-2.39,-2.37,-2.32
191.42,0.48,0.49,2.82,2.82,-2.86,-2.99,-1.09,-2.37,-2.37,-2.34
193.33,0.43,0.42,2.79,2.78,-2.78,-2.93,-1.03,-2.35,-2.36,-2.35
195.27,0.35,0.35,2.73,2.73,-2.70,-2.87,-0.97,-2.35,-2.35,-2.37
197.22,0.26,0.25,2.65,2.65,-2.63,-2.78,-0.92,-2.37,-2.38,-2.39
199.19,0.14,0.14,2.56,2.55,-2.57,-2.69,-0.86,-2.43,-2.44,-2.42
201.18,0.01,0.03,2.45,2.47,-2.51,-2.57,-0.81,-2.50,-2.48,-2.43
203.19,-0.06,-0.04,2.39,2.41,-2.45,-2.45,-0.76,-2.51,-2.49,-2.45
205.23,-0.10,-0.10,2.38,2.36,-2.37,-2.33,-0.70,-2.47,-2.48,-2.48
207.28,-0.15,-0.17,2.33,2.32,-2.28,-2.20,-0.65,-2.43,-2.46,-2.48
209.35,-0.29,-0.26,2.22,2.25,-2.18,-2.07,-0.60,-2.47,-2.45,-2.51
211.44,-0.40,-0.40,2.14,2.13,-2.07,-1.93,-0.56,-2.47,-2.48,-2.54
213.56,-0.55,-0.58,2.00,1.97,-1.95,-1.80,-0.51,-2.50,-2.53,-2.54
215.69,-0.78,-0.76,1.78,1.80,-1.82,-1.68,-0.46,-2.60,-2.58,-2.56
217.85,-0.96,-0.93,1.61,1.64,-1.68,-1.55,-0.42,-2.63,-2.61,-2.57
220.03,-1.09,-1.10,1.50,1.49,-1.53,-1.43,-0.37,-2.61,-2.62,-2.58
222.23,-1.23,-1.24,1.38,1.35,-1.37,-1.31,-0.33,-2.59,-2.61,-2.60
224.45,-1.40,-1.38,1.20,1.22,-1.20,-1.18,-0.28,-2.60,-2.58,-2.60
226.70,-1.53,-1.52,1.07,1.07,-1.04,-1.07,-0.24,-2.57,-2.57,-2.60
228.96,-1.66,-1.67,0.93,0.92,-0.88,-0.95,-0.20,-2.54,-2.55,-2.59
231.25,-1.83,-1.82,0.75,0.75,-0.73,-0.83,-0.16,-2.55,-2.55,-2.58
233.57,-1.99,-2.00,0.58,0.57,-0.58,-0.71,-0.12,-2.56,-2.58,-2.57
235.90,-2.18,-2.17,0.38,0.39,-0.43,-0.60,-0.08,-2.61,-2.60,-2.56
238.26,-2.32,-2.29,0.23,0.25,-0.30,-0.48,-0.04,-2.61,-2.59,-2.55
240.64,-2.38,-2.39,0.15,0.13,-0.17,-0.36,0.00,-2.55,-2.56,-2.53
243.05,-2.44,-2.45,0.06,0.05,-0.06,-0.24,0.04,-2.49,-2.51,-2.49
245.48,-2.53,-2.49,-0.05,-0.02,0.05,-0.12,0.07,-2.48,-2.44,-2.47
247.93,-2.55,-2.56,-0.11,-0.12,0.15,0.00,0.11,-2.40,-2.41,-2.44
250.41,-2.61,-2.65,-0.18,-0.23,0.24,0.13,0.15,-2.36,-2.40,-2.43
252.92,-2.78,-2.73,-0.38,-0.34,0.34,0.26,0.18,-2.44,-2.39,-2.40
255.45,-2.84,-2.83,-0.46,-0.45,0.44,0.38,0.22,-2.40,-2.39,-2.37
258.00,-2.90,-2.92,-0.55,-0.56,0.55,0.52,0.25,-2.35,-2.37,-2.35
260.58,-2.99,-3.00,-0.65,-0.67,0.67,0.65,0.28,-2.32,-2.33,-2.34
263.19,-3.12,-3.10,-0.81,-0.79,0.80,0.78,0.32,-2.31,-2.30,-2.30
265.82,-3.23,-3.19,-0.94,-0.90,0.93,0.91,0.35,-2.29,-2.25,-2.29
268.48,-3.26,-3.29,-0.99,-1.03,1.07,1.04,0.38,-2.19,-2.22,-2.27
271.16,-3.39,-3.43,-1.15,-1.19,1.20,1.17,0.42,-2.19,-2.23,-2.23
273.87,-3.59,-3.57,-1.37,-1.36,1.33,1.29,0.45,-2.26,-2.24,-2.22
276.61,-3.75,-3.69,-1.56,-1.50,1.45,1.41,0.48,-2.29,-2.23,-2.18
279.38,-3.75,-3.75,-1.59,-1.59,1.57,1.52,0.51,-2.18,-2.18,-2.16
282.17,-3.75,-3.80,-1.61,-1.67,1.67,1.61,0.55,-2.07,-2.13,-2.13
284.99,-3.86,-3.86,-1.76,-1.76,1.77,1.71,0.58,-2.09,-2.09,-2.10
287.84,-3.97,-3.93,-1.88,-1.85,1.85,1.78,0.61,-2.12,-2.08,-2.08
290.72,-4.00,-3.98,-1.95,-1.93,1.91,1.85,0.64,-2.08,-2.07,-2.05
293.63,-3.97,-3.99,-1.94,-1.97,1.97,1.91,0.68,-1.99,-2.02,-2.02
296.57,-4.00,-4.01,-2.01,-2.01,2.03,1.96,0.71,-1.96,-1.97,-1.99
299.53,-4.05,-4.04,-2.09,-2.08,2.09,2.01,0.75,-1.95,-1.94,-1.96
302.53,-4.09,-4.08,-2.14,-2.14,2.15,2.05,0.78,-1.93,-1.92,-1.94
305.55,-4.12,-4.12,-2.22,-2.21,2.21,2.09,0.82,-1.91,-1.91,-1.90
308.61,-4.13,-4.15,-2.24,-2.27,2.26,2.13,0.85,-1.87,-1.89,-1.88
311.69,-4.20,-4.17,-2.34,-2.32,2.31,2.17,0.89,-1.89,-1.86,-1.86
314.81,-4.20,-4.19,-2.37,-2.36,2.36,2.21,0.93,-1.83,-1.83,-1.83
317.96,-4.20,-4.22,-2.38,-2.41,2.41,2.24,0.97,-1.79,-1.81,-1.81
321.14,-4.26,-4.25,-2.45,-2.45,2.46,2.28,1.01,-1.80,-1.79,-1.81
324.35,-4.30,-4.28,-2.51,-2.49,2.49,2.33,1.05,-1.80,-1.78,-1.79
327.59,-4.30,-4.30,-2.52,-2.52,2.53,2.37,1.09,-1.77,-1.77,-1.77
330.87,-4.30,-4.32,-2.53,-2.56,2.55,2.41,1.13,-1.75,-1.77,-1.76
334.18,-4.34,-4.34,-2.59,-2.59,2.57,2.45,1.17,-1.77,-1.77,-1.75
337.52,-4.38,-4.34,-2.64,-2.61,2.59,2.50,1.22,-1.79,-1.76,-1.74
340.90,-4.33,-4.34,-2.60,-2.61,2.60,2.54,1.26,-1.73,-1.74,-1.72
344.30,-4.31,-4.32,-2.59,-2.60,2.61,2.58,1.31,-1.69,-1.70,-1.71
347.75,-4.31,-4.30,-2.59,-2.59,2.62,2.63,1.36,-1.68,-1.68,-1.72
351.23,-4.31,-4.32,-2.60,-2.61,2.63,2.67,1.41,-1.67,-1.68,-1.71
354.74,-4.34,-4.34,-2.62,-2.63,2.64,2.71,1.46,-1.69,-1.70,-1.71
358.28,-4.39,-4.37,-2.68,-2.66,2.65,2.75,1.51,-1.74,-1.72,-1.70
361.87,-4.39,-4.39,-2.68,-2.68,2.66,2.79,1.56,-1.73,-1.73,-1.71
365.49,-4.39,-4.39,-2.69,-2.68,2.67,2.83,1.62,-1.72,-1.72,-1.70
369.14,-4.38,-4.38,-2.67,-2.67,2.67,2.86,1.67,-1.70,-1.70,-1.71
372.83,-4.37,-4.37,-2.65,-2.66,2.67,2.89,1.73,-1.69,-1.70,-1.71
376.56,-4.36,-4.36,-2.64,-2.65,2.66,2.93,1.79,-1.69,-1.70,-1.71
380.33,-4.36,-4.35,-2.65,-2.65,2.64,2.95,1.85,-1.71,-1.71,-1.70
384.13,-4.35,-4.35,-2.64,-2.64,2.62,2.98,1.90,-1.72,-1.73,-1.71
387.97,-4.34,-4.34,-2.62,-2.62,2.60,3.00,1.96,-1.74,-1.74,-1.72
391.85,-4.33,-4.31,-2.60,-2.58,2.58,3.02,2.03,-1.75,-1.73,-1.73
395.77,-4.27,-4.28,-2.55,-2.55,2.56,3.04,2.09,-1.71,-1.72,-1.72
399.73,-4.24,-4.25,-2.50,-2.52,2.54,3.05,2.15,-1.70,-1.71,-1.73
403.72,-4.25,-4.24,-2.51,-2.50,2.53,3.06,2.21,-1.72,-1.71,-1.73
407.76,-4.25,-4.24,-2.50,-2.50,2.52,3.07,2.27,-1.73,-1.73,-1.74
411.84,-4.25,-4.25,-2.50,-2.50,2.51,3.07,2.33,-1.74,-1.74,-1.75
415.96,-4.25,-4.25,-2.50,-2.50,2.50,3.08,2.40,-1.75,-1.75,-1.75
420.12,-4.25,-4.25,-2.50,-2.50,2.48,3.07,2.46,-1.76,-1.77,-1.75
424.32,-4.25,-4.25,-2.50,-2.50,2.47,3.07,2.52,-1.77,-1.78,-1.75
428.56,-4.24,-4.22,-2.50,-2.48,2.46,3.06,2.58,-1.78,-1.76,-1.74
432.85,-4.18,-4.17,-2.44,-2.44,2.44,3.05,2.63,-1.74,-1.73,-1.73
437.18,-4.10,-4.11,-2.37,-2.40,2.42,3.03,2.69,-1.68,-1.70,-1.72
441.55,-4.06,-4.06,-2.37,-2.37,2.40,3.02,2.74,-1.66,-1.66,-1.68
445.96,-4.02,-4.01,-2.36,-2.35,2.37,3.00,2.79,-1.65,-1.64,-1.65
450.42,-3.97,-3.96,-2.34,-2.34,2.34,2.97,2.84,-1.62,-1.62,-1.63
454.93,-3.91,-3.92,-2.33,-2.34,2.31,2.95,2.88,-1.59,-1.60,-1.58
459.48,-3.85,-3.85,-2.32,-2.32,2.29,2.92,2.92,-1.56,-1.56,-1.53
464.07,-3.79,-3.75,-2.31,-2.28,2.26,2.88,2.96,-1.52,-1.49,-1.48
468.71,-3.65,-3.66,-2.23,-2.24,2.24,2.85,2.99,-1.40,-1.42,-1.42
473.40,-3.55,-3.57,-2.17,-2.20,2.23,2.81,3.02,-1.32,-1.35,-1.38
478.13,-3.52,-3.50,-2.20,-2.18,2.21,2.77,3.04,-1.30,-1.29,-1.32
482.91,-3.47,-3.46,-2.19,-2.18,2.20,2.73,3.06,-1.26,-1.26,-1.28
487.74,-3.43,-3.43,-2.18,-2.19,2.20,2.69,3.07,-1.23,-1.23,-1.24
492.62,-3.40,-3.39,-2.20,-2.19,2.19,2.64,3.08,-1.21,-1.21,-1.19
497.55,-3.37,-3.37,-2.19,-2.20,2.18,2.60,3.08,-1.19,-1.19,-1.17
502.52,-3.35,-3.35,-2.20,-2.21,2.17,2.55,3.07,-1.18,-1.18,-1.14
