frequency,raw,smoothed,error,error_smoothed,equalization,parametric_eq,fixed_band_eq,equalized_raw,equalized_smoothed,target
20.00,14.19,14.19,5.83,5.84,-5.83,-6.17,-2.39,8.36,8.36,8.36
20.20,14.17,14.17,5.81,5.81,-5.81,-6.15,-2.46,8.36,8.36,8.36
20.40,14.14,14.14,5.78,5.78,-5.78,-6.13,-2.53,8.35,8.36,8.36
20.61,14.12,14.12,5.76,5.76,-5.76,-6.11,-2.60,8.36,8.36,8.35
20.81,14.10,14.10,5.74,5.74,-5.74,-6.08,-2.68,8.35,8.35,8.35
21.02,14.07,14.07,5.72,5.72,-5.73,-6.06,-2.76,8.34,8.34,8.35
21.23,14.05,14.05,5.72,5.71,-5.71,-6.04,-2.84,8.34,8.33,8.33
21.44,14.02,14.02,5.70,5.70,-5.70,-6.02,-2.92,8.32,8.32,8.32
21.66,14.00,14.00,5.70,5.69,-5.69,-6.00,-3.00,8.31,8.30,8.30
21.87,13.97,13.97,5.69,5.68,-5.68,-5.97,-3.09,8.28,8.28,8.28
22.09,13.94,13.94,5.67,5.68,-5.68,-5.95,-3.18,8.26,8.26,8.27
22.31,13.92,13.92,5.68,5.67,-5.67,-5.93,-3.27,8.24,8.24,8.24
22.54,13.89,13.89,5.67,5.67,-5.67,-5.90,-3.36,8.22,8.22,8.22
22.76,13.86,13.86,5.66,5.67,-5.67,-5.88,-3.46,8.19,8.20,8.20
22.99,13.83,13.83,5.66,5.66,-5.66,-5.85,-3.56,8.17,8.17,8.17
23.22,13.80,13.80,5.66,5.66,-5.65,-5.83,-3.66,8.15,8.15,8.14
23.45,13.77,13.77,5.65,5.65,-5.64,-5.80,-3.76,8.13,8.13,8.12
23.69,13.73,13.73,5.62,5.63,-5.63,-5.78,-3.87,8.10,8.10,8.11
23.92,13.70,13.70,5.61,5.61,-5.62,-5.75,-3.98,8.08,8.08,8.09
24.16,13.67,13.67,5.59,5.60,-5.60,-5.73,-4.09,8.07,8.07,8.07
24.40,13.64,13.64,5.59,5.58,-5.58,-5.70,-4.20,8.06,8.05,8.05
24.65,13.60,13.60,5.57,5.57,-5.57,-5.67,-4.31,8.03,8.03,8.03
24.89,13.56,13.56,5.55,5.55,-5.55,-5.64,-4.42,8.01,8.01,8.01
25.14,13.53,13.53,5.53,5.53,-5.53,-5.61,-4.54,8.00,8.00,8.00
25.39,13.49,13.49,5.51,5.51,-5.51,-5.59,-4.66,7.98,7.98,7.98
25.65,13.46,13.46,5.49,5.49,-5.49,-5.56,-4.77,7.97,7.96,7.97
25.91,13.42,13.42,5.48,5.47,-5.47,-5.53,-4.89,7.95,7.95,7.94
26.16,13.38,13.38,5.45,5.45,-5.45,-5.50,-5.01,7.93,7.93,7.93
26.43,13.34,13.34,5.42,5.43,-5.43,-5.47,-5.12,7.91,7.91,7.92
26.69,13.30,13.30,5.40,5.40,-5.40,-5.44,-5.24,7.90,7.90,7.89
26.96,13.26,13.26,5.38,5.37,-5.38,-5.40,-5.35,7.88,7.88,7.88
27.23,13.22,13.22,5.35,5.35,-5.35,-5.37,-5.46,7.87,7.87,7.87
27.50,13.18,13.18,5.32,5.32,-5.32,-5.34,-5.57,7.85,7.86,7.86
27.77,13.14,13.14,5.30,5.30,-5.30,-5.31,-5.67,7.84,7.84,7.84
28.05,13.10,13.10,5.27,5.27,-5.27,-5.28,-5.77,7.83,7.83,7.83
28.33,13.05,13.05,5.24,5.24,-5.24,-5.24,-5.86,7.81,7.81,7.81
28.62,13.01,13.01,5.21,5.21,-5.21,-5.21,-5.95,7.80,7.80,7.79
28.90,12.96,12.96,5.18,5.18,-5.18,-5.17,-6.03,7.78,7.78,7.78
29.19,12.92,12.92,5.16,5.15,-5.15,-5.14,-6.11,7.77,7.77,7.76
29.48,12.87,12.87,5.11,5.11,-5.12,-5.10,-6.17,7.75,7.75,7.76
29.78,12.83,12.83,5.08,5.08,-5.08,-5.07,-6.23,7.75,7.74,7.75
30.08,12.78,12.78,5.04,5.05,-5.05,-5.03,-6.28,7.73,7.73,7.74
30.38,12.73,12.73,5.02,5.02,-5.02,-5.00,-6.32,7.71,7.72,7.71
30.68,12.69,12.68,4.99,4.98,-4.98,-4.96,-6.34,7.71,7.70,7.70
30.99,12.63,12.63,4.95,4.95,-4.94,-4.92,-6.37,7.69,7.69,7.68
31.30,12.58,12.58,4.91,4.91,-4.91,-4.88,-6.37,7.67,7.67,7.67
31.61,12.52,12.52,4.86,4.87,-4.87,-4.85,-6.37,7.65,7.65,7.66
31.93,12.46,12.46,4.83,4.83,-4.83,-4.81,-6.35,7.63,7.63,7.63
32.24,12.40,12.40,4.80,4.79,-4.79,-4.77,-6.33,7.61,7.61,7.60
32.57,12.34,12.34,4.75,4.75,-4.75,-4.73,-6.30,7.59,7.59,7.59
32.89,12.28,12.28,4.70,4.71,-4.71,-4.69,-6.26,7.57,7.57,7.58
33.22,12.22,12.22,4.68,4.67,-4.67,-4.65,-6.20,7.55,7.55,7.54
33.55,12.16,12.16,4.63,4.63,-4.63,-4.61,-6.15,7.53,7.53,7.53
33.89,12.10,12.10,4.59,4.59,-4.59,-4.57,-6.08,7.51,7.51,7.51
34.23,12.03,12.03,4.55,4.55,-4.55,-4.53,-6.00,7.48,7.48,7.48
34.57,11.97,11.97,4.51,4.51,-4.51,-4.48,-5.92,7.46,7.46,7.46
34.92,11.91,11.91,4.47,4.47,-4.47,-4.44,-5.83,7.44,7.44,7.44
35.27,11.85,11.85,4.43,4.43,-4.43,-4.40,-5.74,7.42,7.42,7.42
35.62,11.79,11.79,4.39,4.38,-4.38,-4.36,-5.65,7.40,7.40,7.40
35.97,11.72,11.72,4.34,4.34,-4.34,-4.31,-5.55,7.38,7.38,7.38
36.33,11.66,11.66,4.30,4.30,-4.30,-4.27,-5.44,7.36,7.36,7.36
36.70,11.60,11.60,4.26,4.26,-4.26,-4.23,-5.34,7.34,7.34,7.34
37.06,11.54,11.54,4.22,4.22,-4.22,-4.18,-5.23,7.32,7.32,7.32
37.43,11.48,11.48,4.18,4.18,-4.18,-4.14,-5.13,7.30,7.30,7.30
37.81,11.41,11.41,4.13,4.14,-4.14,-4.10,-5.02,7.27,7.28,7.28
38.19,11.35,11.35,4.10,4.09,-4.10,-4.05,-4.91,7.25,7.26,7.25
38.57,11.29,11.29,4.05,4.05,-4.05,-4.01,-4.81,7.23,7.23,7.24
38.95,11.23,11.23,4.02,4.01,-4.01,-3.96,-4.70,7.21,7.21,7.21
39.34,11.16,11.16,3.97,3.97,-3.97,-3.92,-4.60,7.19,7.19,7.19
39.74,11.10,11.10,3.94,3.93,-3.93,-3.87,-4.49,7.17,7.17,7.16
40.14,11.04,11.04,3.88,3.89,-3.89,-3.83,-4.39,7.15,7.15,7.16
40.54,10.98,10.98,3.85,3.85,-3.84,-3.78,-4.29,7.14,7.14,7.13
40.94,10.92,10.92,3.80,3.80,-3.80,-3.74,-4.19,7.12,7.12,7.12
41.35,10.85,10.85,3.76,3.76,-3.75,-3.69,-4.10,7.09,7.10,7.09
41.76,10.79,10.79,3.70,3.71,-3.71,-3.65,-4.00,7.08,7.08,7.08
42.18,10.73,10.73,3.66,3.66,-3.67,-3.60,-3.91,7.06,7.06,7.07
42.60,10.67,10.67,3.63,3.62,-3.63,-3.56,-3.82,7.04,7.04,7.04
43.03,10.61,10.61,3.58,3.58,-3.58,-3.52,-3.73,7.02,7.02,7.03
43.46,10.55,10.55,3.54,3.54,-3.54,-3.47,-3.65,7.00,7.00,7.01
43.90,10.49,10.49,3.51,3.50,-3.51,-3.43,-3.57,6.98,6.98,6.98
44.33,10.43,10.43,3.47,3.47,-3.47,-3.38,-3.49,6.96,6.96,6.96
44.78,10.37,10.37,3.43,3.43,-3.43,-3.34,-3.42,6.94,6.94,6.94
45.23,10.31,10.31,3.39,3.39,-3.39,-3.30,-3.34,6.92,6.92,6.91
45.68,10.25,10.25,3.35,3.35,-3.35,-3.25,-3.27,6.90,6.90,6.90
46.13,10.19,10.19,3.31,3.31,-3.31,-3.21,-3.20,6.88,6.88,6.88
46.60,10.13,10.13,3.26,3.26,-3.26,-3.17,-3.14,6.87,6.86,6.87
47.06,10.07,10.07,3.22,3.22,-3.23,-3.13,-3.07,6.84,6.84,6.85
47.53,10.01,10.01,3.18,3.18,-3.19,-3.08,-3.01,6.82,6.83,6.83
48.01,9.96,9.96,3.14,3.14,-3.15,-3.04,-2.96,6.81,6.81,6.82
48.49,9.90,9.90,3.11,3.11,-3.12,-3.00,-2.90,6.78,6.78,6.79
48.97,9.84,9.84,3.08,3.09,-3.08,-2.96,-2.85,6.76,6.76,6.76
49.46,9.78,9.78,3.05,3.06,-3.05,-2.92,-2.80,6.73,6.73,6.72
49.96,9.73,9.73,3.04,3.02,-3.02,-2.89,-2.75,6.71,6.71,6.69
50.46,9.67,9.67,2.98,2.99,-2.99,-2.85,-2.70,6.68,6.68,6.69
50.96,9.62,9.62,2.95,2.96,-2.95,-2.81,-2.66,6.66,6.66,6.67
51.47,9.56,9.56,2.92,2.92,-2.92,-2.77,-2.61,6.64,6.64,6.64
51.99,9.51,9.51,2.90,2.89,-2.89,-2.74,-2.57,6.62,6.62,6.61
52.51,9.45,9.45,2.85,2.86,-2.86,-2.70,-2.53,6.59,6.59,6.60
53.03,9.40,9.40,2.83,2.83,-2.83,-2.67,-2.50,6.57,6.57,6.57
53.56,9.35,9.35,2.80,2.80,-2.80,-2.64,-2.46,6.55,6.55,6.55
54.10,9.29,9.29,2.77,2.77,-2.77,-2.61,-2.43,6.52,6.52,6.52
54.64,9.24,9.24,2.74,2.74,-2.74,-2.58,-2.40,6.50,6.50,6.50
55.18,9.19,9.19,2.72,2.72,-2.72,-2.55,-2.37,6.47,6.47,6.47
55.74,9.14,9.14,2.70,2.69,-2.69,-2.52,-2.34,6.45,6.45,6.44
56.29,9.09,9.09,2.66,2.67,-2.67,-2.49,-2.31,6.42,6.42,6.43
56.86,9.04,9.04,2.64,2.64,-2.64,-2.46,-2.28,6.40,6.40,6.40
57.42,8.99,8.99,2.62,2.62,-2.62,-2.44,-2.26,6.37,6.37,6.37
58.00,8.94,8.94,2.59,2.59,-2.59,-2.41,-2.24,6.35,6.35,6.35
58.58,8.89,8.89,2.57,2.57,-2.56,-2.39,-2.21,6.33,6.33,6.32
59.16,8.84,8.84,2.54,2.54,-2.54,-2.37,-2.19,6.30,6.30,6.30
59.76,8.79,8.79,2.51,2.51,-2.51,-2.35,-2.17,6.27,6.27,6.28
60.35,8.74,8.74,2.49,2.49,-2.49,-2.33,-2.15,6.25,6.25,6.25
60.96,8.69,8.69,2.46,2.47,-2.47,-2.31,-2.14,6.22,6.22,6.23
61.57,8.64,8.64,2.45,2.45,-2.45,-2.29,-2.12,6.19,6.19,6.19
62.18,8.59,8.59,2.43,2.43,-2.43,-2.27,-2.10,6.16,6.16,6.16
62.80,8.54,8.54,2.41,2.41,-2.41,-2.26,-2.09,6.13,6.13,6.13
63.43,8.49,8.49,2.39,2.39,-2.38,-2.24,-2.07,6.11,6.11,6.10
64.07,8.44,8.44,2.37,2.36,-2.36,-2.23,-2.06,6.08,6.08,6.07
64.71,8.39,8.39,2.33,2.34,-2.34,-2.22,-2.05,6.05,6.05,6.05
65.35,8.34,8.34,2.31,2.31,-2.31,-2.21,-2.03,6.03,6.03,6.03
66.01,8.29,8.29,2.28,2.28,-2.28,-2.20,-2.02,6.00,6.00,6.01
66.67,8.24,8.24,2.26,2.26,-2.26,-2.19,-2.01,5.98,5.98,5.98
67.33,8.19,8.19,2.23,2.23,-2.23,-2.18,-2.00,5.96,5.96,5.96
68.01,8.14,8.14,2.21,2.21,-2.21,-2.18,-1.99,5.93,5.93,5.93
68.69,8.09,8.09,2.18,2.19,-2.18,-2.17,-1.99,5.91,5.91,5.91
69.37,8.05,8.05,2.17,2.17,-2.16,-2.17,-1.98,5.89,5.88,5.88
70.07,8.00,8.00,2.14,2.14,-2.14,-2.16,-1.97,5.86,5.86,5.85
70.77,7.95,7.95,2.12,2.12,-2.12,-2.16,-1.97,5.83,5.83,5.83
71.48,7.90,7.90,2.10,2.10,-2.11,-2.16,-1.97,5.79,5.80,5.80
72.19,7.86,7.86,2.09,2.09,-2.09,-2.16,-1.96,5.77,5.77,5.77
72.91,7.81,7.81,2.07,2.08,-2.08,-2.16,-1.96,5.73,5.73,5.73
73.64,7.77,7.77,2.07,2.07,-2.07,-2.16,-1.96,5.70,5.70,5.70
74.38,7.72,7.72,2.05,2.06,-2.05,-2.16,-1.97,5.66,5.67,5.67
75.12,7.68,7.68,2.06,2.05,-2.05,-2.16,-1.97,5.63,5.63,5.62
75.87,7.63,7.63,2.04,2.04,-2.04,-2.16,-1.97,5.59,5.59,5.59
76.63,7.59,7.59,2.03,2.03,-2.03,-2.17,-1.98,5.56,5.56,5.56
77.40,7.55,7.54,2.03,2.03,-2.03,-2.17,-1.98,5.52,5.52,5.52
78.17,7.50,7.50,2.03,2.02,-2.02,-2.18,-1.99,5.48,5.48,5.47
78.95,7.46,7.46,2.01,2.02,-2.02,-2.18,-2.00,5.44,5.44,5.45
79.74,7.42,7.42,2.02,2.02,-2.02,-2.19,-2.01,5.40,5.40,5.40
80.54,7.38,7.38,2.02,2.02,-2.02,-2.19,-2.03,5.36,5.36,5.36
81.35,7.34,7.34,2.02,2.02,-2.02,-2.20,-2.04,5.32,5.32,5.31
82.16,7.30,7.30,2.03,2.02,-2.02,-2.21,-2.06,5.28,5.27,5.27
82.98,7.25,7.25,2.02,2.03,-2.03,-2.21,-2.07,5.22,5.22,5.23
83.81,7.21,7.21,2.03,2.03,-2.03,-2.22,-2.09,5.18,5.18,5.18
84.65,7.17,7.17,2.04,2.04,-2.04,-2.23,-2.11,5.13,5.13,5.13
85.50,7.14,7.14,2.05,2.05,-2.05,-2.24,-2.14,5.09,5.09,5.09
86.35,7.10,7.10,2.06,2.06,-2.06,-2.25,-2.16,5.04,5.04,5.04
87.22,7.06,7.06,2.07,2.07,-2.07,-2.26,-2.19,4.99,4.99,4.99
88.09,7.02,7.02,2.08,2.08,-2.08,-2.27,-2.21,4.94,4.94,4.94
88.97,6.98,6.98,2.08,2.09,-2.09,-2.28,-2.24,4.89,4.89,4.90
89.86,6.95,6.94,2.10,2.10,-2.10,-2.29,-2.27,4.85,4.84,4.85
90.76,6.91,6.91,2.12,2.12,-2.12,-2.30,-2.30,4.79,4.79,4.79
91.66,6.87,6.87,2.13,2.14,-2.13,-2.31,-2.34,4.74,4.74,4.74
92.58,6.84,6.84,2.16,2.15,-2.14,-2.32,-2.37,4.69,4.69,4.68
93.51,6.80,6.80,2.15,2.16,-2.16,-2.33,-2.41,4.64,4.64,4.65
94.44,6.77,6.77,2.18,2.18,-2.18,-2.34,-2.45,4.59,4.58,4.59
95.39,6.73,6.73,2.19,2.20,-2.20,-2.35,-2.49,4.53,4.53,4.54
96.34,6.70,6.70,2.23,2.22,-2.22,-2.36,-2.53,4.48,4.48,4.47
97.30,6.67,6.67,2.25,2.25,-2.25,-2.38,-2.57,4.42,4.42,4.42
98.28,6.64,6.64,2.28,2.28,-2.27,-2.39,-2.61,4.37,4.36,4.36
99.26,6.60,6.60,2.30,2.30,-2.30,-2.40,-2.66,4.30,4.30,4.30
100.25,6.57,6.57,2.33,2.33,-2.33,-2.42,-2.70,4.24,4.24,4.24
101.25,6.54,6.54,2.35,2.36,-2.36,-2.43,-2.75,4.18,4.18,4.18
102.27,6.51,6.51,2.39,2.39,-2.39,-2.45,-2.80,4.12,4.12,4.12
103.29,6.48,6.48,2.43,2.42,-2.42,-2.46,-2.84,4.06,4.06,4.05
104.32,6.45,6.45,2.45,2.45,-2.45,-2.48,-2.89,4.00,4.00,4.00
105.37,6.42,6.42,2.48,2.48,-2.49,-2.49,-2.94,3.93,3.93,3.94
106.42,6.39,6.39,2.52,2.52,-2.52,-2.51,-2.99,3.87,3.87,3.87
107.48,6.37,6.37,2.56,2.56,-2.56,-2.53,-3.03,3.81,3.81,3.81
108.56,6.34,6.34,2.60,2.60,-2.59,-2.55,-3.08,3.75,3.75,3.74
109.64,6.31,6.31,2.63,2.63,-2.63,-2.56,-3.12,3.68,3.68,3.67
110.74,6.28,6.28,2.66,2.67,-2.67,-2.58,-3.17,3.61,3.61,3.62
111.85,6.25,6.25,2.70,2.71,-2.71,-2.60,-3.21,3.54,3.54,3.55
112.97,6.23,6.22,2.76,2.75,-2.75,-2.62,-3.25,3.48,3.48,3.47
114.10,6.20,6.20,2.79,2.79,-2.79,-2.64,-3.29,3.41,3.41,3.41
115.24,6.17,6.17,2.82,2.83,-2.83,-2.66,-3.33,3.34,3.34,3.35
116.39,6.15,6.15,2.88,2.87,-2.87,-2.69,-3.36,3.28,3.28,3.27
117.55,6.12,6.12,2.91,2.91,-2.91,-2.71,-3.39,3.21,3.21,3.21
118.73,6.10,6.10,2.95,2.95,-2.94,-2.73,-3.42,3.15,3.15,3.15
119.92,6.07,6.07,2.98,2.98,-2.98,-2.76,-3.44,3.09,3.09,3.09
121.12,6.04,6.04,3.01,3.01,-3.01,-2.78,-3.47,3.03,3.03,3.03
122.33,6.02,6.02,3.05,3.05,-3.05,-2.81,-3.48,2.97,2.97,2.97
123.55,5.99,5.99,3.07,3.08,-3.08,-2.84,-3.50,2.91,2.91,2.92
124.79,5.97,5.97,3.12,3.11,-3.11,-2.86,-3.51,2.86,2.85,2.85
126.03,5.94,5.94,3.14,3.14,-3.15,-2.89,-3.52,2.79,2.80,2.80
127.29,5.92,5.92,3.18,3.18,-3.18,-2.92,-3.52,2.74,2.74,2.74
128.57,5.89,5.89,3.22,3.21,-3.21,-2.95,-3.52,2.68,2.68,2.67
129.85,5.87,5.87,3.24,3.24,-3.24,-2.98,-3.52,2.63,2.63,2.63
131.15,5.84,5.84,3.26,3.27,-3.27,-3.01,-3.51,2.57,2.57,2.58
132.46,5.82,5.82,3.30,3.29,-3.30,-3.04,-3.50,2.52,2.52,2.52
133.79,5.80,5.80,3.32,3.32,-3.32,-3.08,-3.49,2.48,2.48,2.48
135.12,5.78,5.78,3.35,3.34,-3.35,-3.11,-3.47,2.43,2.43,2.43
136.48,5.76,5.76,3.37,3.37,-3.37,-3.14,-3.45,2.39,2.39,2.39
137.84,5.74,5.74,3.38,3.39,-3.39,-3.18,-3.43,2.35,2.35,2.36
139.22,5.72,5.72,3.41,3.41,-3.41,-3.21,-3.41,2.31,2.31,2.30
140.61,5.70,5.70,3.44,3.43,-3.43,-3.25,-3.39,2.27,2.28,2.26
142.02,5.69,5.68,3.44,3.44,-3.44,-3.28,-3.36,2.25,2.24,2.25
143.44,5.67,5.67,3.45,3.46,-3.46,-3.32,-3.34,2.21,2.21,2.22
144.87,5.65,5.65,3.47,3.47,-3.47,-3.35,-3.31,2.18,2.18,2.18
146.32,5.64,5.64,3.49,3.48,-3.49,-3.39,-3.29,2.15,2.15,2.15
147.78,5.63,5.62,3.50,3.50,-3.50,-3.43,-3.26,2.13,2.12,2.13
149.26,5.61,5.61,3.51,3.51,-3.52,-3.46,-3.23,2.09,2.10,2.10
150.75,5.60,5.60,3.53,3.53,-3.53,-3.50,-3.21,2.07,2.07,2.06
152.26,5.59,5.59,3.55,3.55,-3.55,-3.53,-3.18,2.04,2.04,2.04
153.78,5.58,5.58,3.57,3.57,-3.56,-3.57,-3.16,2.01,2.01,2.01
155.32,5.57,5.57,3.58,3.58,-3.58,-3.60,-3.13,1.99,1.99,1.99
156.88,5.56,5.56,3.60,3.60,-3.60,-3.64,-3.11,1.96,1.96,1.96
158.44,5.55,5.55,3.62,3.62,-3.62,-3.67,-3.09,1.93,1.93,1.93
160.03,5.54,5.54,3.64,3.64,-3.64,-3.71,-3.07,1.90,1.90,1.90
161.63,5.53,5.53,3.66,3.66,-3.66,-3.74,-3.06,1.87,1.87,1.87
163.24,5.52,5.52,3.67,3.67,-3.68,-3.77,-3.04,1.84,1.84,1.85
164.88,5.52,5.52,3.69,3.69,-3.70,-3.80,-3.03,1.82,1.82,1.83
166.53,5.51,5.51,3.71,3.72,-3.72,-3.83,-3.02,1.79,1.79,1.80
168.19,5.51,5.51,3.75,3.74,-3.74,-3.85,-3.01,1.77,1.76,1.76
169.87,5.50,5.50,3.77,3.77,-3.76,-3.88,-3.00,1.73,1.73,1.73
171.57,5.49,5.49,3.78,3.79,-3.79,-3.90,-3.00,1.70,1.70,1.70
173.29,5.48,5.48,3.80,3.81,-3.81,-3.93,-2.99,1.67,1.67,1.68
175.02,5.47,5.47,3.83,3.83,-3.83,-3.94,-3.00,1.64,1.64,1.64
176.77,5.45,5.45,3.85,3.84,-3.84,-3.96,-3.00,1.61,1.61,1.60
178.54,5.42,5.42,3.85,3.86,-3.85,-3.98,-3.00,1.56,1.57,1.56
180.32,5.40,5.40,3.87,3.87,-3.86,-3.99,-3.01,1.53,1.53,1.53
182.13,5.37,5.37,3.87,3.87,-3.87,-4.00,-3.02,1.50,1.49,1.50
183.95,5.33,5.33,3.87,3.87,-3.87,-4.01,-3.03,1.45,1.46,1.46
185.79,5.30,5.30,3.87,3.87,-3.87,-4.01,-3.05,1.42,1.42,1.43
187.65,5.26,5.26,3.87,3.88,-3.87,-4.02,-3.07,1.39,1.39,1.38
189.52,5.23,5.23,3.87,3.87,-3.87,-4.02,-3.08,1.36,1.36,1.35
191.42,5.19,5.19,3.86,3.86,-3.86,-4.01,-3.11,1.33,1.33,1.33
193.33,5.15,5.15,3.84,3.85,-3.86,-4.01,-3.13,1.29,1.30,1.31
195.27,5.12,5.12,3.84,3.84,-3.85,-4.00,-3.15,1.27,1.27,1.28
197.22,5.08,5.08,3.83,3.84,-3.84,-3.98,-3.18,1.24,1.24,1.25
199.19,5.05,5.05,3.85,3.83,-3.83,-3.97,-3.20,1.22,1.22,1.20
201.18,5.01,5.01,3.82,3.83,-3.82,-3.95,-3.23,1.19,1.19,1.19
203.19,4.98,4.98,3.81,3.81,-3.81,-3.93,-3.26,1.17,1.17,1.17
205.23,4.94,4.94,3.79,3.79,-3.79,-3.90,-3.29,1.15,1.15,1.14
207.28,4.90,4.90,3.76,3.77,-3.78,-3.87,-3.32,1.12,1.13,1.14
209.35,4.87,4.87,3.76,3.76,-3.76,-3.84,-3.35,1.11,1.11,1.11
211.44,4.83,4.83,3.75,3.74,-3.74,-3.81,-3.38,1.09,1.09,1.08
213.56,4.79,4.79,3.72,3.72,-3.72,-3.77,-3.41,1.07,1.07,1.07
215.69,4.75,4.75,3.68,3.69,-3.69,-3.73,-3.44,1.06,1.06,1.06
217.85,4.71,4.71,3.66,3.66,-3.67,-3.68,-3.46,1.04,1.04,1.05
220.03,4.67,4.67,3.64,3.63,-3.64,-3.63,-3.49,1.03,1.03,1.03
222.23,4.63,4.63,3.61,3.61,-3.60,-3.58,-3.51,1.03,1.03,1.02
224.45,4.59,4.59,3.56,3.57,-3.57,-3.53,-3.53,1.02,1.02,1.03
226.70,4.55,4.55,3.53,3.53,-3.53,-3.48,-3.54,1.02,1.02,1.01
228.96,4.51,4.51,3.50,3.49,-3.49,-3.42,-3.56,1.02,1.02,1.01
231.25,4.47,4.47,3.45,3.45,-3.45,-3.36,-3.56,1.02,1.02,1.02
233.57,4.43,4.43,3.40,3.40,-3.40,-3.29,-3.57,1.02,1.02,1.03
235.90,4.39,4.39,3.36,3.36,-3.36,-3.23,-3.56,1.03,1.03,1.03
238.26,4.35,4.35,3.32,3.31,-3.31,-3.16,-3.56,1.04,1.04,1.03
240.64,4.31,4.31,3.25,3.26,-3.25,-3.09,-3.54,1.06,1.06,1.06
243.05,4.27,4.27,3.20,3.20,-3.20,-3.02,-3.53,1.07,1.07,1.07
245.48,4.22,4.22,3.13,3.14,-3.14,-2.95,-3.50,1.08,1.08,1.09
247.93,4.18,4.18,3.08,3.08,-3.08,-2.87,-3.47,1.10,1.10,1.10
250.41,4.13,4.13,3.02,3.01,-3.01,-2.79,-3.43,1.12,1.12,1.11
252.92,4.09,4.09,2.94,2.95,-2.95,-2.72,-3.38,1.14,1.14,1.14
255.45,4.04,4.04,2.87,2.88,-2.88,-2.64,-3.33,1.16,1.16,1.17
258.00,4.00,4.00,2.81,2.81,-2.81,-2.56,-3.27,1.19,1.19,1.19
260.58,3.95,3.95,2.75,2.74,-2.74,-2.47,-3.21,1.21,1.21,1.20
263.19,3.90,3.90,2.67,2.67,-2.67,-2.39,-3.14,1.23,1.23,1.23
265.82,3.85,3.85,2.60,2.60,-2.60,-2.30,-3.06,1.25,1.25,1.25
268.48,3.80,3.80,2.52,2.52,-2.52,-2.22,-2.97,1.28,1.28,1.27
271.16,3.75,3.75,2.44,2.45,-2.45,-2.13,-2.88,1.30,1.30,1.31
273.87,3.70,3.70,2.38,2.37,-2.37,-2.05,-2.79,1.33,1.33,1.32
276.61,3.64,3.64,2.28,2.29,-2.29,-1.96,-2.69,1.35,1.35,1.36
279.38,3.59,3.59,2.22,2.21,-2.21,-1.87,-2.59,1.38,1.37,1.37
282.17,3.53,3.53,2.13,2.13,-2.13,-1.78,-2.48,1.40,1.40,1.40
284.99,3.47,3.47,2.05,2.05,-2.05,-1.69,-2.37,1.42,1.42,1.42
287.84,3.41,3.41,1.96,1.96,-1.96,-1.60,-2.25,1.45,1.45,1.45
290.72,3.35,3.35,1.87,1.87,-1.87,-1.51,-2.14,1.48,1.48,1.48
293.63,3.29,3.29,1.79,1.78,-1.78,-1.41,-2.02,1.51,1.51,1.50
296.57,3.22,3.22,1.69,1.69,-1.69,-1.32,-1.89,1.53,1.53,1.53
299.53,3.15,3.15,1.59,1.59,-1.59,-1.23,-1.77,1.56,1.56,1.56
302.53,3.08,3.08,1.49,1.49,-1.49,-1.14,-1.64,1.59,1.59,1.59
305.55,3.01,3.01,1.38,1.39,-1.38,-1.04,-1.51,1.63,1.63,1.63
308.61,2.94,2.94,1.28,1.28,-1.28,-0.95,-1.38,1.66,1.66,1.66
311.69,2.87,2.87,1.17,1.17,-1.17,-0.86,-1.25,1.70,1.69,1.70
314.81,2.79,2.79,1.06,1.06,-1.06,-0.76,-1.12,1.73,1.73,1.73
317.96,2.71,2.71,0.95,0.95,-0.95,-0.67,-0.99,1.76,1.76,1.76
321.14,2.63,2.63,0.84,0.84,-0.84,-0.57,-0.85,1.79,1.79,1.79
324.35,2.55,2.55,0.74,0.73,-0.73,-0.48,-0.72,1.82,1.82,1.81
327.59,2.47,2.47,0.62,0.62,-0.62,-0.38,-0.58,1.85,1.85,1.85
330.87,2.38,2.38,0.50,0.51,-0.51,-0.29,-0.45,1.87,1.87,1.88
334.18,2.30,2.30,0.41,0.40,-0.40,-0.19,-0.31,1.90,1.89,1.89
337.52,2.21,2.21,0.29,0.29,-0.30,-0.10,-0.17,1.91,1.91,1.92
340.90,2.12,2.12,0.17,0.18,-0.19,-0.00,-0.04,1.93,1.94,1.95
344.30,2.04,2.04,0.07,0.07,-0.07,0.09,0.10,1.97,1.96,1.97
347.75,1.95,1.95,-0.04,-0.04,0.05,0.19,0.24,1.99,2.00,1.99
351.23,1.86,1.86,-0.15,-0.15,0.17,0.29,0.37,2.03,2.03,2.01
354.74,1.76,1.75,-0.27,-0.28,0.30,0.38,0.51,2.06,2.05,2.03
358.28,1.62,1.62,-0.43,-0.42,0.44,0.48,0.65,2.06,2.06,2.05
361.87,1.49,1.49,-0.58,-0.58,0.58,0.58,0.79,2.07,2.07,2.07
365.49,1.35,1.35,-0.74,-0.74,0.72,0.68,0.93,2.07,2.08,2.09
369.14,1.22,1.22,-0.88,-0.88,0.87,0.77,1.07,2.09,2.09,2.10
372.83,1.09,1.09,-1.03,-1.03,1.02,0.87,1.21,2.11,2.12,2.12
376.56,0.97,0.97,-1.17,-1.17,1.17,0.97,1.35,2.14,2.14,2.14
380.33,0.84,0.84,-1.33,-1.32,1.32,1.07,1.49,2.16,2.16,2.17
384.13,0.72,0.72,-1.47,-1.46,1.46,1.17,1.63,2.18,2.18,2.18
387.97,0.60,0.60,-1.60,-1.60,1.60,1.26,1.77,2.20,2.20,2.20
391.85,0.49,0.48,-1.73,-1.74,1.74,1.36,1.91,2.23,2.22,2.22
395.77,0.37,0.37,-1.88,-1.87,1.87,1.46,2.05,2.24,2.25,2.25
399.73,0.26,0.26,-2.01,-2.00,2.01,1.56,2.19,2.26,2.27,2.27
403.72,0.16,0.15,-2.13,-2.14,2.13,1.66,2.33,2.29,2.29,2.29
407.76,0.05,0.05,-2.26,-2.26,2.26,1.76,2.47,2.31,2.31,2.31
411.84,-0.05,-0.05,-2.39,-2.38,2.38,1.86,2.61,2.33,2.33,2.33
415.96,-0.14,-0.15,-2.49,-2.50,2.50,1.96,2.75,2.36,2.35,2.35
420.12,-0.24,-0.24,-2.61,-2.61,2.62,2.06,2.88,2.38,2.38,2.37
424.32,-0.33,-0.33,-2.73,-2.73,2.73,2.16,3.01,2.40,2.40,2.40
428.56,-0.41,-0.42,-2.83,-2.83,2.84,2.26,3.15,2.43,2.42,2.42
432.85,-0.50,-0.50,-2.94,-2.94,2.94,2.36,3.27,2.44,2.45,2.44
437.18,-0.57,-0.58,-3.04,-3.04,3.04,2.46,3.40,2.47,2.46,2.47
441.55,-0.65,-0.65,-3.15,-3.14,3.13,2.56,3.52,2.48,2.48,2.50
445.96,-0.72,-0.71,-3.24,-3.23,3.22,2.66,3.64,2.50,2.51,2.52
450.42,-0.76,-0.76,-3.30,-3.30,3.29,2.76,3.75,2.53,2.53,2.54
454.93,-0.79,-0.80,-3.36,-3.36,3.37,2.86,3.86,2.58,2.57,2.57
459.48,-0.83,-0.83,-3.42,-3.43,3.43,2.96,3.97,2.60,2.60,2.59
464.07,-0.86,-0.86,-3.48,-3.49,3.49,3.06,4.07,2.63,2.63,2.62
468.71,-0.89,-0.89,-3.55,-3.55,3.55,3.16,4.16,2.66,2.66,2.66
473.40,-0.92,-0.92,-3.60,-3.60,3.60,3.25,4.24,2.68,2.68,2.68
478.13,-0.94,-0.94,-3.65,-3.66,3.66,3.35,4.32,2.71,2.71,2.71
482.91,-0.97,-0.97,-3.71,-3.71,3.71,3.45,4.39,2.74,2.74,2.74
487.74,-0.99,-0.99,-3.76,-3.76,3.76,3.54,4.45,2.77,2.77,2.77
492.62,-1.01,-1.01,-3.81,-3.81,3.81,3.64,4.51,2.80,2.80,2.80
497.55,-1.03,-1.03,-3.85,-3.85,3.86,3.73,4.55,2.83,2.83,2.82
502.52,-1.05,-1.05,-3.91,-3.90,3.90,3.83,4.59,2.85,2.85,2.86
507.55,-1.07,-1.07,-3.95,-3.95,3.95,3.92,4.62,2.88,2.88,2.88
512.62,-1.09,-1.09,-4.00,-4.00,4.00,4.01,4.65,2.90,2.91,2.91
517.75,-1.11,-1.11,-4.05,-4.04,4.04,4.10,4.66,2.93,2.93,2.94
522.93,-1.12,-1.13,-4.09,-4.09,4.09,4.19,4.67,2.96,2.96,2.96
528.16,-1.14,-1.14,-4.13,-4.13,4.13,4.27,4.67,2.99,2.99,2.98
