frequency,raw,error,smoothed,error_smoothed,equalization,parametric_eq,fixed_band_eq,equalized_raw,equalized_smoothed,target
20.00,1.86,-0.68,1.86,-0.68,0.72,1.03,0.64,2.58,2.58,2.54
20.20,1.86,-0.73,1.86,-0.73,0.75,1.04,0.66,2.60,2.60,2.59
20.40,1.86,-0.78,1.86,-0.78,0.77,1.04,0.68,2.63,2.63,2.64
20.61,1.86,-0.81,1.86,-0.82,0.80,1.05,0.70,2.66,2.66,2.67
20.81,1.86,-0.86,1.86,-0.86,0.83,1.06,0.72,2.69,2.69,2.72
21.02,1.86,-0.90,1.87,-0.89,0.85,1.06,0.74,2.71,2.72,2.76
21.23,1.88,-0.90,1.88,-0.91,0.88,1.07,0.76,2.76,2.76,2.78
21.44,1.90,-0.90,1.90,-0.91,0.90,1.07,0.78,2.80,2.80,2.80
21.66,1.91,-0.91,1.92,-0.90,0.92,1.08,0.81,2.83,2.84,2.82
21.87,1.93,-0.90,1.92,-0.91,0.94,1.08,0.83,2.86,2.86,2.83
22.09,1.92,-0.93,1.91,-0.94,0.96,1.09,0.85,2.87,2.87,2.85
22.31,1.88,-0.98,1.88,-0.97,0.98,1.10,0.88,2.86,2.86,2.86
22.54,1.84,-1.02,1.84,-1.02,1.01,1.10,0.90,2.85,2.86,2.86
22.76,1.80,-1.06,1.80,-1.06,1.05,1.11,0.93,2.85,2.85,2.86
22.99,1.76,-1.09,1.76,-1.09,1.10,1.12,0.95,2.86,2.86,2.85
23.22,1.72,-1.13,1.72,-1.13,1.14,1.13,0.98,2.86,2.86,2.85
23.45,1.68,-1.17,1.67,-1.17,1.18,1.13,1.01,2.86,2.85,2.85
23.69,1.64,-1.22,1.63,-1.22,1.21,1.14,1.04,2.84,2.84,2.86
23.92,1.60,-1.26,1.61,-1.25,1.22,1.15,1.06,2.82,2.83,2.86
24.16,1.60,-1.27,1.60,-1.26,1.23,1.16,1.09,2.83,2.84,2.87
24.40,1.62,-1.26,1.61,-1.25,1.24,1.17,1.12,2.86,2.85,2.88
24.65,1.64,-1.23,1.64,-1.23,1.23,1.17,1.15,2.87,2.87,2.87
24.89,1.66,-1.21,1.66,-1.21,1.22,1.18,1.18,2.88,2.88,2.86
25.14,1.67,-1.20,1.67,-1.20,1.21,1.19,1.21,2.88,2.88,2.86
25.39,1.67,-1.21,1.67,-1.20,1.21,1.20,1.25,2.88,2.88,2.87
25.65,1.67,-1.20,1.67,-1.20,1.21,1.21,1.28,2.88,2.89,2.87
25.91,1.67,-1.19,1.66,-1.21,1.23,1.22,1.31,2.90,2.89,2.86
26.16,1.64,-1.22,1.63,-1.23,1.25,1.23,1.34,2.89,2.89,2.86
26.43,1.59,-1.27,1.59,-1.27,1.28,1.24,1.37,2.87,2.87,2.86
26.69,1.54,-1.32,1.54,-1.33,1.31,1.25,1.40,2.85,2.85,2.86
26.96,1.49,-1.38,1.50,-1.37,1.34,1.27,1.43,2.83,2.84,2.87
27.23,1.48,-1.39,1.48,-1.39,1.36,1.28,1.46,2.84,2.84,2.87
27.50,1.47,-1.40,1.47,-1.40,1.38,1.29,1.49,2.84,2.84,2.87
27.77,1.47,-1.39,1.47,-1.39,1.39,1.30,1.52,2.85,2.85,2.86
28.05,1.47,-1.39,1.47,-1.39,1.39,1.31,1.55,2.86,2.86,2.86
28.33,1.47,-1.38,1.47,-1.38,1.39,1.33,1.58,2.86,2.86,2.85
28.62,1.47,-1.38,1.47,-1.38,1.40,1.34,1.61,2.87,2.87,2.85
28.90,1.47,-1.39,1.46,-1.38,1.41,1.35,1.63,2.87,2.87,2.85
29.19,1.45,-1.40,1.45,-1.41,1.42,1.37,1.66,2.87,2.86,2.84
29.48,1.42,-1.44,1.42,-1.44,1.44,1.38,1.68,2.86,2.85,2.86
29.78,1.38,-1.47,1.38,-1.47,1.46,1.40,1.71,2.84,2.84,2.85
30.08,1.35,-1.51,1.35,-1.50,1.49,1.41,1.73,2.84,2.84,2.86
30.38,1.33,-1.52,1.33,-1.52,1.52,1.43,1.75,2.85,2.85,2.85
30.68,1.31,-1.54,1.31,-1.54,1.55,1.45,1.77,2.86,2.85,2.85
30.99,1.28,-1.57,1.28,-1.57,1.58,1.46,1.78,2.86,2.86,2.85
31.30,1.25,-1.60,1.25,-1.60,1.61,1.48,1.80,2.86,2.86,2.85
31.61,1.21,-1.64,1.21,-1.63,1.64,1.50,1.81,2.84,2.85,2.85
31.93,1.18,-1.66,1.18,-1.66,1.66,1.52,1.83,2.84,2.84,2.84
32.24,1.15,-1.68,1.15,-1.69,1.68,1.54,1.84,2.83,2.83,2.83
32.57,1.12,-1.72,1.12,-1.72,1.70,1.56,1.85,2.82,2.82,2.84
32.89,1.10,-1.74,1.10,-1.73,1.72,1.58,1.86,2.82,2.82,2.84
33.22,1.09,-1.74,1.09,-1.74,1.74,1.60,1.86,2.83,2.83,2.83
33.55,1.08,-1.75,1.08,-1.74,1.77,1.62,1.87,2.85,2.85,2.83
33.89,1.07,-1.75,1.06,-1.76,1.79,1.64,1.87,2.86,2.85,2.81
34.23,1.03,-1.79,1.02,-1.80,1.81,1.67,1.88,2.84,2.83,2.82
34.57,0.97,-1.84,0.97,-1.84,1.83,1.69,1.88,2.80,2.80,2.81
34.92,0.91,-1.90,0.92,-1.89,1.85,1.71,1.89,2.76,2.78,2.81
35.27,0.90,-1.91,0.90,-1.90,1.88,1.74,1.89,2.78,2.78,2.81
35.62,0.90,-1.91,0.90,-1.91,1.91,1.76,1.89,2.81,2.80,2.81
35.97,0.90,-1.91,0.89,-1.92,1.94,1.79,1.89,2.84,2.83,2.80
36.33,0.87,-1.94,0.87,-1.94,1.97,1.82,1.90,2.83,2.83,2.81
36.70,0.83,-1.97,0.83,-1.97,1.98,1.85,1.90,2.81,2.82,2.80
37.06,0.79,-2.01,0.79,-2.02,2.00,1.87,1.90,2.79,2.79,2.80
37.43,0.76,-2.06,0.75,-2.06,2.02,1.90,1.91,2.78,2.77,2.81
37.81,0.72,-2.09,0.72,-2.09,2.05,1.93,1.91,2.77,2.77,2.81
38.19,0.71,-2.10,0.73,-2.08,2.09,1.96,1.92,2.80,2.82,2.81
38.57,0.74,-2.08,0.74,-2.08,2.13,2.00,1.92,2.87,2.87,2.82
38.95,0.77,-2.06,0.72,-2.10,2.17,2.03,1.93,2.94,2.89,2.82
39.34,0.65,-2.17,0.64,-2.18,2.21,2.06,1.94,2.85,2.84,2.82
39.74,0.52,-2.30,0.54,-2.28,2.24,2.10,1.95,2.76,2.78,2.82
40.14,0.44,-2.38,0.47,-2.35,2.27,2.13,1.96,2.71,2.74,2.82
40.54,0.47,-2.35,0.46,-2.36,2.30,2.17,1.97,2.77,2.77,2.82
40.94,0.51,-2.31,0.48,-2.34,2.34,2.20,1.98,2.85,2.82,2.82
41.35,0.49,-2.33,0.49,-2.32,2.37,2.24,2.00,2.86,2.86,2.81
41.76,0.47,-2.34,0.47,-2.34,2.39,2.27,2.01,2.86,2.86,2.81
42.18,0.43,-2.39,0.42,-2.39,2.40,2.31,2.03,2.83,2.82,2.82
42.60,0.37,-2.43,0.37,-2.44,2.41,2.35,2.05,2.78,2.78,2.80
43.03,0.32,-2.48,0.34,-2.46,2.43,2.39,2.07,2.75,2.77,2.80
43.46,0.32,-2.47,0.32,-2.47,2.46,2.43,2.09,2.78,2.78,2.79
43.90,0.32,-2.45,0.30,-2.47,2.49,2.47,2.12,2.81,2.79,2.77
44.33,0.27,-2.49,0.27,-2.49,2.51,2.50,2.14,2.78,2.78,2.75
44.78,0.21,-2.53,0.22,-2.52,2.53,2.54,2.17,2.74,2.75,2.74
45.23,0.17,-2.57,0.17,-2.56,2.54,2.58,2.20,2.71,2.71,2.73
45.68,0.14,-2.58,0.14,-2.58,2.56,2.62,2.23,2.70,2.70,2.72
46.13,0.12,-2.58,0.13,-2.58,2.58,2.66,2.26,2.70,2.71,2.70
46.60,0.12,-2.59,0.12,-2.58,2.61,2.70,2.29,2.72,2.72,2.71
47.06,0.11,-2.58,0.09,-2.60,2.62,2.73,2.33,2.73,2.72,2.69
47.53,0.06,-2.63,0.06,-2.63,2.64,2.77,2.37,2.70,2.70,2.69
48.01,0.01,-2.68,0.01,-2.67,2.65,2.81,2.41,2.66,2.66,2.69
48.49,-0.03,-2.70,-0.04,-2.71,2.66,2.84,2.44,2.63,2.63,2.67
48.97,-0.07,-2.73,-0.04,-2.70,2.69,2.87,2.49,2.62,2.64,2.66
49.46,-0.05,-2.69,-0.05,-2.68,2.72,2.90,2.53,2.66,2.67,2.64
49.96,-0.02,-2.64,-0.07,-2.69,2.74,2.93,2.57,2.72,2.68,2.62
50.46,-0.11,-2.73,-0.11,-2.73,2.77,2.96,2.61,2.66,2.66,2.62
50.96,-0.20,-2.82,-0.19,-2.80,2.78,2.99,2.66,2.58,2.60,2.62
51.47,-0.25,-2.85,-0.26,-2.86,2.80,3.01,2.70,2.55,2.55,2.60
51.99,-0.30,-2.89,-0.28,-2.87,2.83,3.03,2.75,2.53,2.55,2.59
52.51,-0.28,-2.87,-0.28,-2.87,2.86,3.05,2.79,2.58,2.58,2.59
53.03,-0.26,-2.85,-0.27,-2.86,2.89,3.07,2.83,2.63,2.62,2.59
53.56,-0.28,-2.86,-0.28,-2.86,2.92,3.08,2.88,2.64,2.64,2.58
54.10,-0.31,-2.88,-0.34,-2.91,2.94,3.09,2.92,2.63,2.61,2.57
54.64,-0.41,-2.97,-0.40,-2.96,2.96,3.09,2.96,2.54,2.56,2.56
55.18,-0.47,-3.03,-0.45,-3.00,2.96,3.10,3.00,2.49,2.52,2.56
55.74,-0.46,-3.01,-0.47,-3.02,2.97,3.10,3.04,2.51,2.50,2.55
56.29,-0.45,-3.00,-0.46,-3.01,2.97,3.10,3.08,2.52,2.51,2.55
56.86,-0.45,-2.99,-0.45,-2.99,2.98,3.09,3.11,2.53,2.53,2.54
57.42,-0.45,-2.97,-0.44,-2.97,3.00,3.08,3.14,2.55,2.56,2.52
58.00,-0.44,-2.96,-0.42,-2.94,3.01,3.07,3.17,2.57,2.59,2.51
58.58,-0.42,-2.93,-0.45,-2.95,3.02,3.05,3.19,2.60,2.57,2.51
59.16,-0.46,-2.96,-0.52,-3.01,3.03,3.04,3.21,2.57,2.51,2.50
59.76,-0.64,-3.12,-0.60,-3.08,3.04,3.01,3.23,2.40,2.44,2.48
60.35,-0.70,-3.15,-0.66,-3.11,3.05,2.99,3.24,2.35,2.39,2.45
60.96,-0.65,-3.08,-0.68,-3.11,3.05,2.97,3.25,2.40,2.37,2.43
61.57,-0.65,-3.04,-0.66,-3.05,3.04,2.94,3.25,2.39,2.38,2.39
62.18,-0.65,-3.01,-0.65,-3.00,3.02,2.91,3.25,2.37,2.38,2.35
62.80,-0.65,-2.97,-0.65,-2.97,2.99,2.87,3.24,2.34,2.34,2.32
63.43,-0.65,-2.93,-0.65,-2.93,2.95,2.84,3.23,2.30,2.30,2.28
64.07,-0.65,-2.90,-0.65,-2.90,2.90,2.80,3.22,2.25,2.25,2.25
64.71,-0.65,-2.86,-0.65,-2.86,2.86,2.76,3.20,2.21,2.21,2.21
65.35,-0.65,-2.83,-0.65,-2.83,2.83,2.72,3.18,2.18,2.18,2.18
66.01,-0.65,-2.79,-0.65,-2.79,2.80,2.68,3.15,2.15,2.15,2.14
66.67,-0.65,-2.75,-0.65,-2.76,2.76,2.64,3.12,2.11,2.11,2.10
67.33,-0.65,-2.71,-0.65,-2.72,2.72,2.60,3.08,2.07,2.07,2.06
68.01,-0.65,-2.68,-0.65,-2.68,2.67,2.56,3.04,2.02,2.02,2.03
68.69,-0.65,-2.64,-0.66,-2.66,2.62,2.51,3.00,1.97,1.95,1.99
69.37,-0.65,-2.60,-0.64,-2.59,2.56,2.47,2.95,1.91,1.92,1.95
70.07,-0.64,-2.55,-0.59,-2.51,2.50,2.42,2.91,1.86,1.91,1.91
70.77,-0.50,-2.38,-0.55,-2.42,2.44,2.38,2.85,1.94,1.89,1.88
71.48,-0.50,-2.34,-0.52,-2.35,2.39,2.34,2.80,1.89,1.87,1.83
72.19,-0.55,-2.33,-0.52,-2.31,2.34,2.29,2.75,1.79,1.82,1.78
72.91,-0.55,-2.29,-0.55,-2.28,2.29,2.25,2.69,1.74,1.74,1.74
73.64,-0.55,-2.24,-0.55,-2.24,2.25,2.20,2.64,1.69,1.70,1.69
74.38,-0.55,-2.20,-0.56,-2.21,2.20,2.16,2.58,1.65,1.64,1.65
75.12,-0.56,-2.16,-0.59,-2.18,2.15,2.12,2.52,1.59,1.57,1.60
75.87,-0.63,-2.18,-0.59,-2.15,2.10,2.07,2.46,1.47,1.51,1.55
76.63,-0.57,-2.09,-0.56,-2.08,2.05,2.03,2.40,1.48,1.49,1.52
77.40,-0.50,-1.98,-0.52,-1.99,2.00,1.99,2.35,1.49,1.48,1.48
78.17,-0.45,-1.88,-0.47,-1.90,1.94,1.95,2.29,1.49,1.47,1.43
78.95,-0.45,-1.86,-0.45,-1.85,1.89,1.91,2.23,1.43,1.44,1.41
79.74,-0.45,-1.82,-0.45,-1.82,1.83,1.87,2.17,1.38,1.39,1.37
80.54,-0.45,-1.79,-0.45,-1.79,1.79,1.83,2.12,1.34,1.34,1.34
81.35,-0.45,-1.75,-0.45,-1.76,1.75,1.79,2.06,1.30,1.30,1.30
82.16,-0.45,-1.72,-0.45,-1.72,1.71,1.75,2.01,1.26,1.26,1.27
82.98,-0.45,-1.70,-0.45,-1.69,1.69,1.72,1.95,1.24,1.24,1.25
83.81,-0.45,-1.66,-0.45,-1.66,1.66,1.68,1.90,1.21,1.21,1.20
84.65,-0.45,-1.62,-0.45,-1.63,1.63,1.64,1.85,1.18,1.18,1.17
85.50,-0.45,-1.60,-0.45,-1.60,1.60,1.61,1.80,1.14,1.14,1.15
86.35,-0.45,-1.57,-0.45,-1.57,1.56,1.57,1.75,1.11,1.11,1.11
87.22,-0.45,-1.53,-0.45,-1.53,1.53,1.54,1.70,1.08,1.08,1.08
88.09,-0.45,-1.50,-0.45,-1.50,1.50,1.51,1.65,1.04,1.04,1.05
88.97,-0.45,-1.46,-0.45,-1.46,1.46,1.47,1.61,1.01,1.01,1.01
89.86,-0.45,-1.43,-0.45,-1.43,1.43,1.44,1.56,0.97,0.97,0.97
90.76,-0.45,-1.39,-0.45,-1.39,1.39,1.41,1.52,0.94,0.94,0.94
91.66,-0.45,-1.36,-0.45,-1.36,1.36,1.38,1.48,0.91,0.91,0.91
92.58,-0.45,-1.32,-0.45,-1.32,1.32,1.35,1.44,0.87,0.87,0.86
93.51,-0.45,-1.29,-0.45,-1.29,1.29,1.32,1.40,0.84,0.84,0.84
94.44,-0.45,-1.26,-0.45,-1.26,1.26,1.29,1.36,0.81,0.81,0.81
95.39,-0.45,-1.23,-0.45,-1.23,1.23,1.26,1.32,0.78,0.78,0.78
96.34,-0.45,-1.20,-0.45,-1.20,1.20,1.23,1.29,0.75,0.75,0.74
97.30,-0.46,-1.18,-0.46,-1.18,1.18,1.21,1.25,0.72,0.72,0.72
98.28,-0.47,-1.16,-0.47,-1.16,1.16,1.18,1.22,0.69,0.69,0.69
99.26,-0.48,-1.14,-0.49,-1.14,1.14,1.15,1.19,0.66,0.66,0.66
100.25,-0.50,-1.13,-0.50,-1.13,1.13,1.13,1.16,0.62,0.62,0.63
101.25,-0.52,-1.12,-0.52,-1.11,1.11,1.10,1.13,0.59,0.59,0.60
102.27,-0.53,-1.10,-0.53,-1.10,1.10,1.08,1.10,0.57,0.57,0.57
103.29,-0.54,-1.07,-0.54,-1.08,1.08,1.05,1.07,0.54,0.54,0.53
104.32,-0.56,-1.07,-0.56,-1.07,1.07,1.03,1.04,0.50,0.50,0.51
105.37,-0.58,-1.06,-0.58,-1.06,1.06,1.01,1.02,0.48,0.47,0.48
106.42,-0.61,-1.06,-0.61,-1.06,1.06,0.98,0.99,0.45,0.45,0.45
107.48,-0.63,-1.05,-0.63,-1.04,1.06,0.96,0.97,0.43,0.44,0.41
108.56,-0.66,-1.04,-0.65,-1.03,1.07,0.94,0.94,0.41,0.42,0.37
109.64,-0.68,-1.03,-0.70,-1.05,1.08,0.92,0.92,0.40,0.38,0.34
110.74,-0.75,-1.06,-0.79,-1.10,1.08,0.90,0.90,0.33,0.29,0.31
111.85,-0.89,-1.18,-0.85,-1.13,1.08,0.88,0.88,0.19,0.23,0.29
112.97,-0.92,-1.16,-0.88,-1.13,1.07,0.86,0.86,0.15,0.19,0.24
114.10,-0.83,-1.04,-0.87,-1.08,1.05,0.84,0.84,0.22,0.18,0.21
115.24,-0.83,-1.01,-0.84,-1.01,1.03,0.82,0.82,0.20,0.19,0.18
116.39,-0.83,-0.97,-0.82,-0.97,1.00,0.80,0.80,0.17,0.18,0.14
117.55,-0.82,-0.95,-0.83,-0.95,0.97,0.78,0.78,0.15,0.14,0.13
118.73,-0.82,-0.92,-0.82,-0.92,0.93,0.76,0.76,0.11,0.11,0.10
119.92,-0.81,-0.90,-0.81,-0.90,0.90,0.74,0.75,0.08,0.08,0.09
121.12,-0.80,-0.87,-0.81,-0.87,0.87,0.73,0.73,0.07,0.06,0.06
122.33,-0.80,-0.85,-0.80,-0.85,0.85,0.71,0.71,0.05,0.05,0.05
123.55,-0.79,-0.83,-0.79,-0.83,0.83,0.69,0.70,0.04,0.04,0.04
124.79,-0.78,-0.81,-0.78,-0.81,0.81,0.68,0.69,0.03,0.03,0.03
126.03,-0.77,-0.78,-0.77,-0.79,0.79,0.66,0.67,0.02,0.01,0.01
127.29,-0.77,-0.78,-0.77,-0.77,0.77,0.65,0.66,-0.00,-0.00,0.01
128.57,-0.76,-0.74,-0.76,-0.75,0.75,0.63,0.64,-0.01,-0.01,-0.02
129.85,-0.76,-0.73,-0.76,-0.73,0.73,0.62,0.63,-0.03,-0.03,-0.03
131.15,-0.75,-0.71,-0.75,-0.71,0.71,0.60,0.62,-0.04,-0.04,-0.04
132.46,-0.75,-0.70,-0.75,-0.69,0.69,0.59,0.61,-0.06,-0.06,-0.06
133.79,-0.74,-0.67,-0.74,-0.67,0.66,0.58,0.60,-0.08,-0.08,-0.07
135.12,-0.74,-0.65,-0.74,-0.66,0.64,0.56,0.59,-0.10,-0.10,-0.09
136.48,-0.73,-0.64,-0.73,-0.64,0.62,0.55,0.58,-0.11,-0.11,-0.09
137.84,-0.73,-0.62,-0.70,-0.59,0.61,0.54,0.57,-0.12,-0.09,-0.11
139.22,-0.68,-0.55,-0.69,-0.56,0.60,0.53,0.56,-0.08,-0.09,-0.13
140.61,-0.65,-0.50,-0.70,-0.56,0.59,0.51,0.55,-0.06,-0.11,-0.15
142.02,-0.77,-0.62,-0.74,-0.59,0.60,0.50,0.54,-0.18,-0.15,-0.15
143.44,-0.81,-0.65,-0.79,-0.62,0.60,0.49,0.53,-0.21,-0.19,-0.17
144.87,-0.82,-0.63,-0.83,-0.64,0.61,0.48,0.52,-0.21,-0.21,-0.19
146.32,-0.82,-0.60,-0.82,-0.61,0.62,0.47,0.51,-0.20,-0.20,-0.22
147.78,-0.83,-0.60,-0.84,-0.60,0.63,0.46,0.50,-0.21,-0.22,-0.24
149.26,-0.86,-0.59,-0.89,-0.62,0.61,0.45,0.50,-0.25,-0.28,-0.27
150.75,-0.97,-0.64,-0.94,-0.61,0.58,0.44,0.49,-0.39,-0.36,-0.33
152.26,-0.98,-0.60,-0.96,-0.58,0.53,0.43,0.48,-0.45,-0.43,-0.38
153.78,-0.93,-0.50,-0.96,-0.52,0.47,0.42,0.48,-0.46,-0.49,-0.43
155.32,-0.92,-0.42,-0.93,-0.43,0.41,0.41,0.47,-0.51,-0.51,-0.50
156.88,-0.92,-0.36,-0.88,-0.31,0.36,0.41,0.47,-0.56,-0.52,-0.56
158.44,-0.85,-0.22,-0.87,-0.23,0.30,0.40,0.46,-0.55,-0.57,-0.63
160.03,-0.82,-0.12,-0.89,-0.19,0.24,0.39,0.46,-0.58,-0.65,-0.70
161.63,-0.98,-0.22,-0.94,-0.17,0.19,0.38,0.45,-0.79,-0.74,-0.76
163.24,-1.02,-0.21,-1.00,-0.18,0.16,0.38,0.45,-0.86,-0.84,-0.82
164.88,-1.02,-0.17,-1.04,-0.18,0.13,0.37,0.44,-0.89,-0.90,-0.85
166.53,-1.03,-0.14,-1.03,-0.14,0.12,0.36,0.44,-0.91,-0.91,-0.89
168.19,-1.03,-0.11,-1.03,-0.11,0.11,0.36,0.44,-0.92,-0.92,-0.92
169.87,-1.04,-0.09,-1.04,-0.09,0.11,0.35,0.43,-0.93,-0.93,-0.95
171.57,-1.05,-0.09,-1.05,-0.09,0.11,0.34,0.43,-0.94,-0.94,-0.96
173.29,-1.05,-0.09,-1.06,-0.09,0.10,0.34,0.43,-0.95,-0.96,-0.97
175.02,-1.06,-0.10,-1.06,-0.09,0.09,0.33,0.43,-0.98,-0.97,-0.96
176.77,-1.06,-0.09,-1.06,-0.10,0.08,0.33,0.43,-0.99,-0.99,-0.97
178.54,-1.06,-0.10,-1.07,-0.11,0.07,0.32,0.42,-0.99,-1.00,-0.96
180.32,-1.06,-0.11,-1.06,-0.11,0.08,0.32,0.42,-0.98,-0.97,-0.95
182.13,-1.05,-0.12,-1.02,-0.08,0.10,0.32,0.42,-0.95,-0.92,-0.93
183.95,-0.97,-0.03,-0.98,-0.05,0.12,0.31,0.42,-0.85,-0.86,-0.94
185.79,-0.95,-0.02,-1.01,-0.07,0.14,0.31,0.42,-0.81,-0.87,-0.93
187.65,-1.07,-0.13,-1.08,-0.14,0.16,0.30,0.42,-0.92,-0.93,-0.95
189.52,-1.22,-0.27,-1.17,-0.22,0.17,0.30,0.42,-1.05,-1.00,-0.95
191.42,-1.24,-0.28,-1.22,-0.26,0.18,0.30,0.42,-1.07,-1.04,-0.96
193.33,-1.18,-0.21,-1.21,-0.23,0.18,0.30,0.42,-1.00,-1.02,-0.97
195.27,-1.15,-0.17,-1.16,-0.18,0.18,0.29,0.42,-0.97,-0.98,-0.98
197.22,-1.14,-0.15,-1.14,-0.14,0.17,0.29,0.42,-0.97,-0.97,-1.00
199.19,-1.13,-0.12,-1.13,-0.12,0.15,0.29,0.42,-0.99,-0.98,-1.02
201.18,-1.12,-0.09,-1.12,-0.09,0.12,0.29,0.43,-1.01,-1.01,-1.03
203.19,-1.11,-0.07,-1.11,-0.07,0.08,0.29,0.43,-1.03,-1.03,-1.04
205.23,-1.11,-0.05,-1.11,-0.06,0.05,0.29,0.43,-1.06,-1.06,-1.06
207.28,-1.11,-0.05,-1.11,-0.05,0.03,0.29,0.43,-1.08,-1.08,-1.06
209.35,-1.11,-0.04,-1.12,-0.04,0.02,0.28,0.43,-1.09,-1.10,-1.08
211.44,-1.12,-0.02,-1.12,-0.02,0.01,0.28,0.43,-1.11,-1.11,-1.10
213.56,-1.12,-0.02,-1.09,0.01,0.01,0.29,0.44,-1.11,-1.08,-1.10
215.69,-1.07,0.04,-1.09,0.03,0.01,0.29,0.44,-1.06,-1.07,-1.11
217.85,-1.06,0.06,-1.11,0.01,0.02,0.29,0.44,-1.04,-1.09,-1.12
220.03,-1.18,-0.05,-1.15,-0.02,0.04,0.29,0.44,-1.15,-1.12,-1.13
222.23,-1.23,-0.09,-1.21,-0.07,0.05,0.29,0.44,-1.18,-1.16,-1.14
224.45,-1.23,-0.10,-1.24,-0.11,0.07,0.29,0.45,-1.16,-1.17,-1.13
226.70,-1.23,-0.10,-1.24,-0.11,0.09,0.29,0.45,-1.14,-1.15,-1.13
228.96,-1.23,-0.12,-1.23,-0.11,0.11,0.30,0.45,-1.12,-1.12,-1.12
231.25,-1.22,-0.12,-1.22,-0.12,0.12,0.30,0.45,-1.10,-1.10,-1.10
233.57,-1.21,-0.12,-1.21,-0.12,0.12,0.30,0.45,-1.09,-1.09,-1.09
235.90,-1.20,-0.13,-1.20,-0.12,0.12,0.31,0.45,-1.08,-1.08,-1.07
238.26,-1.18,-0.12,-1.19,-0.13,0.12,0.31,0.45,-1.06,-1.07,-1.06
240.64,-1.16,-0.13,-1.17,-0.13,0.13,0.32,0.45,-1.04,-1.04,-1.04
243.05,-1.15,-0.15,-1.12,-0.12,0.14,0.32,0.46,-1.01,-0.99,-1.00
245.48,-1.10,-0.13,-1.10,-0.13,0.16,0.33,0.46,-0.95,-0.94,-0.98
247.93,-1.04,-0.10,-1.10,-0.15,0.18,0.33,0.45,-0.86,-0.92,-0.94
250.41,-1.14,-0.22,-1.11,-0.19,0.20,0.34,0.45,-0.94,-0.91,-0.93
252.92,-1.16,-0.27,-1.14,-0.25,0.23,0.35,0.45,-0.93,-0.91,-0.89
255.45,-1.15,-0.29,-1.16,-0.29,0.26,0.36,0.45,-0.89,-0.90,-0.86
258.00,-1.14,-0.30,-1.15,-0.31,0.29,0.36,0.45,-0.85,-0.86,-0.84
260.58,-1.14,-0.32,-1.14,-0.32,0.32,0.37,0.45,-0.82,-0.82,-0.82
263.19,-1.14,-0.35,-1.14,-0.35,0.35,0.38,0.45,-0.79,-0.79,-0.79
265.82,-1.14,-0.37,-1.14,-0.37,0.39,0.40,0.45,-0.75,-0.75,-0.77
268.48,-1.14,-0.40,-1.13,-0.38,0.42,0.41,0.44,-0.72,-0.71,-0.74
271.16,-1.12,-0.41,-1.15,-0.43,0.45,0.42,0.44,-0.68,-0.70,-0.71
273.87,-1.14,-0.45,-1.17,-0.49,0.47,0.43,0.44,-0.67,-0.70,-0.69
276.61,-1.25,-0.60,-1.19,-0.53,0.51,0.45,0.44,-0.75,-0.68,-0.65
279.38,-1.17,-0.54,-1.19,-0.56,0.53,0.46,0.43,-0.64,-0.65,-0.63
282.17,-1.15,-0.55,-1.17,-0.57,0.56,0.48,0.43,-0.59,-0.61,-0.60
284.99,-1.14,-0.58,-1.14,-0.57,0.58,0.50,0.43,-0.56,-0.55,-0.56
287.84,-1.13,-0.59,-1.13,-0.59,0.60,0.51,0.42,-0.53,-0.53,-0.55
290.72,-1.12,-0.61,-1.12,-0.61,0.62,0.53,0.42,-0.50,-0.50,-0.51
293.63,-1.11,-0.63,-1.11,-0.63,0.63,0.55,0.42,-0.48,-0.48,-0.48
296.57,-1.10,-0.66,-1.10,-0.65,0.65,0.57,0.41,-0.46,-0.45,-0.44
299.53,-1.08,-0.67,-1.08,-0.67,0.66,0.59,0.41,-0.42,-0.42,-0.42
302.53,-1.07,-0.67,-1.07,-0.68,0.68,0.62,0.41,-0.39,-0.39,-0.40
305.55,-1.06,-0.71,-1.06,-0.70,0.70,0.64,0.41,-0.36,-0.36,-0.35
308.61,-1.05,-0.72,-1.05,-0.72,0.72,0.67,0.40,-0.33,-0.33,-0.33
311.69,-1.05,-0.75,-1.04,-0.74,0.75,0.69,0.40,-0.30,-0.29,-0.31
314.81,-1.04,-0.76,-1.04,-0.76,0.78,0.72,0.40,-0.26,-0.26,-0.28
317.96,-1.04,-0.78,-1.06,-0.80,0.81,0.74,0.40,-0.23,-0.25,-0.26
321.14,-1.10,-0.85,-1.09,-0.85,0.85,0.77,0.39,-0.26,-0.25,-0.25
324.35,-1.14,-0.91,-1.13,-0.89,0.88,0.79,0.39,-0.26,-0.25,-0.23
327.59,-1.14,-0.93,-1.15,-0.93,0.91,0.82,0.39,-0.23,-0.24,-0.21
330.87,-1.14,-0.94,-1.14,-0.94,0.93,0.84,0.39,-0.21,-0.21,-0.21
334.18,-1.14,-0.95,-1.14,-0.95,0.96,0.86,0.39,-0.18,-0.18,-0.19
337.52,-1.14,-0.96,-1.14,-0.97,0.98,0.88,0.39,-0.17,-0.17,-0.18
340.90,-1.15,-0.99,-1.15,-0.99,0.99,0.90,0.39,-0.16,-0.16,-0.16
344.30,-1.15,-1.00,-1.15,-1.00,0.99,0.92,0.39,-0.16,-0.16,-0.15
347.75,-1.15,-1.00,-1.15,-1.00,1.00,0.93,0.39,-0.15,-0.15,-0.15
351.23,-1.15,-1.01,-1.15,-1.00,1.01,0.94,0.39,-0.14,-0.14,-0.14
354.74,-1.14,-1.00,-1.14,-1.00,1.01,0.95,0.39,-0.13,-0.13,-0.15
358.28,-1.14,-1.00,-1.14,-1.00,1.01,0.95,0.39,-0.13,-0.13,-0.14
361.87,-1.13,-0.99,-1.13,-1.00,1.01,0.95,0.39,-0.13,-0.13,-0.14
365.49,-1.13,-1.00,-1.13,-1.00,0.99,0.94,0.39,-0.14,-0.14,-0.13
369.14,-1.12,-0.98,-1.13,-0.99,0.96,0.94,0.39,-0.16,-0.17,-0.14
372.83,-1.11,-0.97,-1.10,-0.97,0.93,0.93,0.40,-0.18,-0.18,-0.14
376.56,-1.08,-0.94,-1.05,-0.91,0.89,0.91,0.40,-0.19,-0.16,-0.14
380.33,-0.96,-0.83,-0.98,-0.85,0.86,0.90,0.40,-0.11,-0.13,-0.13
384.13,-0.91,-0.78,-0.92,-0.79,0.82,0.88,0.40,-0.09,-0.10,-0.13
387.97,-0.89,-0.75,-0.89,-0.75,0.79,0.85,0.41,-0.10,-0.10,-0.14
391.85,-0.89,-0.74,-0.89,-0.74,0.76,0.83,0.41,-0.13,-0.12,-0.16
395.77,-0.89,-0.75,-0.89,-0.74,0.74,0.81,0.41,-0.15,-0.15,-0.15
399.73,-0.89,-0.73,-0.89,-0.74,0.73,0.78,0.42,-0.16,-0.16,-0.16
403.72,-0.89,-0.73,-0.90,-0.74,0.72,0.76,0.42,-0.18,-0.18,-0.16
407.76,-0.89,-0.72,-0.90,-0.73,0.71,0.73,0.43,-0.19,-0.19,-0.17
411.84,-0.90,-0.73,-0.88,-0.72,0.70,0.70,0.43,-0.20,-0.19,-0.17
415.96,-0.86,-0.69,-0.86,-0.69,0.69,0.68,0.43,-0.17,-0.17,-0.17
420.12,-0.81,-0.64,-0.82,-0.65,0.68,0.65,0.44,-0.14,-0.15,-0.17
424.32,-0.79,-0.62,-0.80,-0.63,0.66,0.63,0.44,-0.13,-0.14,-0.17
428.56,-0.78,-0.62,-0.78,-0.62,0.63,0.60,0.45,-0.15,-0.15,-0.16
432.85,-0.77,-0.62,-0.77,-0.62,0.60,0.58,0.45,-0.17,-0.17,-0.15
437.18,-0.74,-0.60,-0.74,-0.61,0.57,0.56,0.46,-0.17,-0.18,-0.14
441.55,-0.70,-0.60,-0.68,-0.57,0.53,0.54,0.46,-0.17,-0.15,-0.10
445.96,-0.59,-0.52,-0.59,-0.51,0.49,0.52,0.47,-0.10,-0.09,-0.07
450.42,-0.46,-0.42,-0.48,-0.44,0.46,0.50,0.47,-0.00,-0.02,-0.04
454.93,-0.37,-0.38,-0.38,-0.38,0.42,0.48,0.47,0.05,0.05,0.01
459.48,-0.30,-0.36,-0.30,-0.36,0.39,0.46,0.48,0.09,0.09,0.06
464.07,-0.24,-0.35,-0.24,-0.35,0.36,0.44,0.48,0.12,0.12,0.11
468.71,-0.19,-0.36,-0.18,-0.34,0.34,0.43,0.49,0.15,0.16,0.16
473.40,-0.12,-0.33,-0.13,-0.34,0.33,0.41,0.49,0.21,0.21,0.20
478.13,-0.07,-0.34,-0.07,-0.33,0.32,0.40,0.49,0.25,0.25,0.26
482.91,-0.02,-0.33,-0.03,-0.33,0.32,0.39,0.49,0.29,0.29,0.30
487.74,0.02,-0.32,0.02,-0.33,0.31,0.37,0.50,0.33,0.33,0.34
492.62,0.06,-0.33,0.08,-0.30,0.29,0.36,0.50,0.35,0.37,0.39
497.55,0.16,-0.25,0.14,-0.28,0.28,0.35,0.50,0.44,0.42,0.41
502.52,0.20,-0.24,0.19,-0.25,0.26,0.34,0.50,0.46,0.45,0.44
