frequency,raw,error,smoothed,error_smoothed,equalization,parametric_eq,equalized_raw,equalized_smoothed,target
20,3.45,-0.01,3.58,0.15,-0.15,-0.24,3.30,3.42,3.46
21,3.62,0.16,3.67,0.24,-0.24,-0.28,3.38,3.43,3.46
22,3.78,0.33,3.75,0.32,-0.32,-0.33,3.47,3.43,3.46
23,3.89,0.44,3.82,0.38,-0.38,-0.38,3.51,3.43,3.45
24,3.95,0.51,3.87,0.44,-0.44,-0.43,3.51,3.43,3.45
25,3.97,0.53,3.92,0.49,-0.49,-0.48,3.48,3.43,3.44
26,3.98,0.55,3.96,0.53,-0.53,-0.53,3.45,3.43,3.43
27,4.00,0.58,3.99,0.56,-0.56,-0.57,3.45,3.43,3.43
28,4.00,0.58,4.00,0.58,-0.58,-0.60,3.43,3.42,3.42
29,4.00,0.59,4.01,0.59,-0.59,-0.63,3.41,3.42,3.41
30,3.99,0.59,4.00,0.59,-0.59,-0.64,3.40,3.41,3.40
31,3.97,0.58,3.97,0.57,-0.57,-0.63,3.40,3.39,3.40
32,3.93,0.55,3.92,0.54,-0.54,-0.61,3.39,3.38,3.39
33,3.88,0.51,3.88,0.51,-0.51,-0.58,3.38,3.37,3.38
34,3.83,0.47,3.83,0.46,-0.46,-0.53,3.37,3.36,3.37
35,3.77,0.42,3.77,0.42,-0.42,-0.48,3.35,3.35,3.36
36,3.71,0.37,3.71,0.37,-0.37,-0.42,3.34,3.34,3.35
37,3.63,0.30,3.65,0.32,-0.32,-0.36,3.32,3.33,3.33
38,3.56,0.24,3.58,0.26,-0.26,-0.29,3.30,3.32,3.32
39,3.49,0.19,3.51,0.21,-0.21,-0.23,3.29,3.30,3.31
40,3.43,0.14,3.44,0.15,-0.15,-0.16,3.28,3.29,3.29
41,3.36,0.08,3.37,0.09,-0.09,-0.10,3.27,3.27,3.28
42,3.29,0.03,3.30,0.04,-0.04,-0.04,3.25,3.26,3.26
43,3.22,-0.03,3.23,-0.02,0.02,0.03,3.24,3.24,3.25
44,3.16,-0.07,3.16,-0.07,0.07,0.09,3.23,3.23,3.23
45,3.09,-0.12,3.09,-0.12,0.12,0.15,3.21,3.21,3.22
46,3.03,-0.16,3.03,-0.17,0.17,0.21,3.20,3.19,3.20
47,2.96,-0.22,2.96,-0.21,0.21,0.27,3.18,3.18,3.18
48,2.89,-0.27,2.90,-0.26,0.26,0.32,3.15,3.16,3.16
49,2.83,-0.31,2.83,-0.31,0.31,0.38,3.14,3.14,3.14
50,2.77,-0.35,2.77,-0.35,0.35,0.43,3.12,3.12,3.12
51,2.70,-0.39,2.71,-0.39,0.39,0.49,3.09,3.10,3.10
52,2.64,-0.43,2.64,-0.43,0.43,0.54,3.07,3.07,3.07
53,2.58,-0.47,2.58,-0.47,0.47,0.59,3.05,3.05,3.05
54,2.52,-0.50,2.52,-0.51,0.51,0.64,3.03,3.02,3.03
55,2.46,-0.54,2.45,-0.54,0.54,0.68,3.01,3.00,3.00
56,2.40,-0.58,2.39,-0.58,0.58,0.72,2.98,2.97,2.98
57,2.33,-0.62,2.34,-0.61,0.61,0.76,2.94,2.95,2.95
58,2.27,-0.65,2.28,-0.64,0.64,0.80,2.91,2.92,2.93
59,2.21,-0.69,2.23,-0.67,0.67,0.83,2.88,2.89,2.90
60,2.15,-0.72,2.17,-0.70,0.70,0.86,2.85,2.87,2.87
61,2.09,-0.75,2.12,-0.72,0.72,0.89,2.82,2.84,2.84
62,2.05,-0.76,2.06,-0.75,0.75,0.91,2.80,2.81,2.81
63,2.00,-0.78,2.00,-0.78,0.78,0.93,2.78,2.78,2.78
64,1.96,-0.79,1.94,-0.81,0.81,0.95,2.77,2.75,2.75
65,1.91,-0.81,1.88,-0.84,0.84,0.96,2.75,2.71,2.72
66,1.84,-0.85,1.82,-0.87,0.87,0.97,2.71,2.68,2.69
67,1.77,-0.89,1.76,-0.90,0.90,0.98,2.67,2.65,2.66
68,1.69,-0.93,1.69,-0.93,0.93,0.99,2.62,2.62,2.63
69,1.61,-0.98,1.63,-0.96,0.96,0.99,2.57,2.59,2.59
70,1.54,-1.02,1.56,-0.99,0.99,1.00,2.54,2.56,2.56
71,1.47,-1.05,1.50,-1.02,1.02,1.00,2.50,2.52,2.53
72,1.41,-1.08,1.43,-1.05,1.05,1.00,2.47,2.49,2.49
73,1.36,-1.10,1.37,-1.08,1.08,1.01,2.45,2.45,2.46
74,1.31,-1.11,1.30,-1.11,1.11,1.01,2.42,2.42,2.42
75,1.26,-1.13,1.24,-1.14,1.14,1.01,2.40,2.38,2.39
76,1.20,-1.15,1.19,-1.16,1.16,1.02,2.36,2.35,2.35
77,1.12,-1.19,1.13,-1.18,1.18,1.02,2.31,2.31,2.32
78,1.07,-1.21,1.08,-1.20,1.20,1.02,2.28,2.28,2.28
79,1.01,-1.23,1.02,-1.22,1.22,1.03,2.24,2.25,2.25
80,0.96,-1.25,0.97,-1.24,1.24,1.04,2.20,2.21,2.21
81,0.91,-1.26,0.91,-1.26,1.26,1.04,2.17,2.17,2.17
82,0.86,-1.27,0.86,-1.28,1.28,1.05,2.14,2.14,2.14
83,0.81,-1.29,0.80,-1.30,1.30,1.06,2.11,2.10,2.10
84,0.75,-1.31,0.75,-1.31,1.31,1.07,2.07,2.06,2.06
85,0.70,-1.33,0.70,-1.33,1.33,1.08,2.03,2.03,2.03
86,0.64,-1.35,0.64,-1.35,1.35,1.09,1.99,1.99,1.99
87,0.58,-1.37,0.59,-1.37,1.37,1.11,1.95,1.95,1.96
88,0.53,-1.39,0.54,-1.38,1.38,1.12,1.91,1.92,1.92
89,0.48,-1.40,0.48,-1.40,1.40,1.13,1.88,1.88,1.88
90,0.43,-1.41,0.43,-1.41,1.41,1.15,1.85,1.85,1.85
91,0.37,-1.44,0.38,-1.43,1.43,1.17,1.80,1.81,1.81
92,0.33,-1.44,0.33,-1.44,1.44,1.18,1.78,1.77,1.78
93,0.27,-1.47,0.28,-1.46,1.46,1.20,1.73,1.74,1.74
94,0.23,-1.47,0.23,-1.47,1.47,1.22,1.71,1.71,1.71
95,0.17,-1.50,0.18,-1.49,1.49,1.24,1.66,1.67,1.67
96,0.13,-1.50,0.13,-1.51,1.51,1.26,1.64,1.64,1.64
97,0.09,-1.51,0.08,-1.52,1.52,1.28,1.61,1.60,1.60
98,0.04,-1.52,0.02,-1.54,1.54,1.31,1.58,1.56,1.57
99,-0.01,-1.54,-0.03,-1.55,1.55,1.33,1.55,1.52,1.53
100,-0.07,-1.57,-0.08,-1.57,1.57,1.35,1.50,1.49,1.50
101,-0.13,-1.59,-0.13,-1.58,1.58,1.37,1.46,1.45,1.47
102,-0.18,-1.61,-0.19,-1.60,1.60,1.40,1.42,1.41,1.43
104,-0.28,-1.65,-0.23,-1.61,1.61,1.44,1.33,1.38,1.37
105,-0.32,-1.65,-0.28,-1.62,1.62,1.47,1.30,1.34,1.34
106,-0.35,-1.65,-0.32,-1.63,1.63,1.49,1.28,1.31,1.31
107,-0.38,-1.65,-0.36,-1.64,1.64,1.51,1.26,1.28,1.28
108,-0.41,-1.65,-0.40,-1.65,1.65,1.53,1.24,1.24,1.25
109,-0.43,-1.64,-0.44,-1.65,1.65,1.56,1.23,1.21,1.21
110,-0.47,-1.65,-0.48,-1.66,1.66,1.58,1.19,1.18,1.19
111,-0.50,-1.65,-0.52,-1.67,1.67,1.60,1.17,1.15,1.16
112,-0.54,-1.66,-0.56,-1.67,1.67,1.62,1.14,1.11,1.13
113,-0.57,-1.67,-0.59,-1.68,1.68,1.64,1.11,1.08,1.10
114,-0.62,-1.69,-0.63,-1.68,1.68,1.66,1.07,1.06,1.07
115,-0.65,-1.69,-0.66,-1.69,1.69,1.68,1.04,1.02,1.04
117,-0.73,-1.72,-0.70,-1.69,1.69,1.71,0.96,0.99,0.99
118,-0.77,-1.73,-0.73,-1.69,1.69,1.72,0.92,0.96,0.96
119,-0.80,-1.73,-0.76,-1.69,1.69,1.74,0.90,0.93,0.94
120,-0.82,-1.73,-0.79,-1.70,1.70,1.75,0.88,0.90,0.91
121,-0.83,-1.71,-0.83,-1.70,1.70,1.76,0.87,0.87,0.89
123,-0.86,-1.69,-0.86,-1.70,1.70,1.78,0.84,0.84,0.84
124,-0.86,-1.67,-0.89,-1.70,1.70,1.79,0.84,0.81,0.81
125,-0.89,-1.68,-0.92,-1.70,1.70,1.80,0.81,0.78,0.79
126,-0.91,-1.67,-0.95,-1.70,1.70,1.81,0.79,0.75,0.77
128,-0.98,-1.70,-0.98,-1.70,1.70,1.82,0.72,0.72,0.72
129,-1.02,-1.72,-1.00,-1.70,1.70,1.82,0.68,0.70,0.70
130,-1.06,-1.74,-1.03,-1.70,1.70,1.82,0.65,0.67,0.68
131,-1.09,-1.75,-1.06,-1.70,1.70,1.83,0.62,0.65,0.66
133,-1.13,-1.75,-1.09,-1.71,1.71,1.83,0.58,0.62,0.62
134,-1.13,-1.73,-1.12,-1.71,1.71,1.83,0.58,0.59,0.60
135,-1.13,-1.71,-1.15,-1.72,1.72,1.83,0.59,0.56,0.58
137,-1.16,-1.70,-1.19,-1.72,1.72,1.82,0.56,0.53,0.54
138,-1.18,-1.70,-1.21,-1.72,1.72,1.82,0.54,0.51,0.52
140,-1.23,-1.71,-1.24,-1.72,1.72,1.82,0.50,0.48,0.49
141,-1.27,-1.74,-1.26,-1.72,1.72,1.81,0.46,0.46,0.47
142,-1.30,-1.75,-1.28,-1.72,1.72,1.81,0.43,0.44,0.45
144,-1.34,-1.76,-1.30,-1.73,1.73,1.81,0.39,0.42,0.42
145,-1.36,-1.76,-1.33,-1.73,1.73,1.80,0.37,0.40,0.41
147,-1.38,-1.75,-1.36,-1.73,1.73,1.80,0.35,0.37,0.37
148,-1.38,-1.74,-1.38,-1.73,1.73,1.79,0.35,0.35,0.36
150,-1.39,-1.72,-1.41,-1.74,1.74,1.79,0.35,0.32,0.33
151,-1.40,-1.71,-1.44,-1.74,1.74,1.79,0.34,0.30,0.32
153,-1.44,-1.73,-1.46,-1.74,1.74,1.78,0.31,0.28,0.29
154,-1.47,-1.74,-1.48,-1.75,1.75,1.78,0.28,0.26,0.28
156,-1.52,-1.77,-1.50,-1.75,1.75,1.78,0.23,0.24,0.25
157,-1.54,-1.77,-1.52,-1.75,1.75,1.78,0.21,0.23,0.24
159,-1.59,-1.80,-1.55,-1.76,1.76,1.78,0.17,0.21,0.21
160,-1.60,-1.80,-1.57,-1.76,1.76,1.79,0.16,0.19,0.20
162,-1.61,-1.79,-1.59,-1.77,1.77,1.79,0.16,0.17,0.18
164,-1.62,-1.77,-1.62,-1.77,1.77,1.79,0.15,0.15,0.16
165,-1.63,-1.77,-1.64,-1.78,1.78,1.80,0.15,0.14,0.15
167,-1.64,-1.76,-1.67,-1.79,1.79,1.81,0.15,0.12,0.13
169,-1.68,-1.78,-1.69,-1.79,1.79,1.82,0.12,0.10,0.11
170,-1.69,-1.78,-1.72,-1.80,1.80,1.82,0.12,0.09,0.10
172,-1.74,-1.82,-1.74,-1.81,1.81,1.83,0.08,0.07,0.08
174,-1.78,-1.84,-1.77,-1.83,1.83,1.85,0.05,0.06,0.06
175,-1.79,-1.84,-1.79,-1.84,1.84,1.86,0.05,0.04,0.05
177,-1.83,-1.86,-1.82,-1.85,1.85,1.87,0.02,0.03,0.03
179,-1.87,-1.89,-1.85,-1.86,1.86,1.89,-0.01,0.01,0.02
181,-1.91,-1.91,-1.88,-1.87,1.87,1.91,-0.03,-0.00,0.00
183,-1.94,-1.93,-1.90,-1.89,1.89,1.94,-0.05,-0.02,-0.01
184,-1.95,-1.93,-1.93,-1.90,1.90,1.95,-0.04,-0.03,-0.02
186,-1.96,-1.92,-1.96,-1.92,1.92,1.97,-0.04,-0.04,-0.03
188,-1.97,-1.92,-1.99,-1.94,1.94,2.00,-0.03,-0.05,-0.05
190,-1.99,-1.93,-2.02,-1.95,1.95,2.02,-0.03,-0.07,-0.06
192,-2.02,-1.94,-2.05,-1.97,1.97,2.05,-0.05,-0.08,-0.07
194,-2.06,-1.97,-2.08,-1.99,1.99,2.08,-0.07,-0.09,-0.08
196,-2.10,-2.00,-2.11,-2.01,2.01,2.11,-0.09,-0.10,-0.10
198,-2.15,-2.04,-2.14,-2.03,2.03,2.14,-0.12,-0.11,-0.11
200,-2.19,-2.07,-2.17,-2.05,2.05,2.17,-0.14,-0.12,-0.12
202,-2.23,-2.10,-2.20,-2.07,2.07,2.20,-0.16,-0.14,-0.13
204,-2.26,-2.12,-2.23,-2.09,2.09,2.24,-0.17,-0.15,-0.14
206,-2.28,-2.13,-2.26,-2.10,2.10,2.27,-0.17,-0.16,-0.15
208,-2.31,-2.15,-2.29,-2.12,2.12,2.30,-0.19,-0.17,-0.16
210,-2.32,-2.15,-2.31,-2.14,2.14,2.33,-0.18,-0.17,-0.17
212,-2.34,-2.16,-2.33,-2.15,2.15,2.36,-0.19,-0.18,-0.17
214,-2.35,-2.16,-2.35,-2.16,2.16,2.39,-0.18,-0.19,-0.18
216,-2.36,-2.17,-2.37,-2.18,2.18,2.42,-0.18,-0.20,-0.19
218,-2.37,-2.17,-2.39,-2.19,2.19,2.45,-0.18,-0.20,-0.20
221,-2.39,-2.18,-2.41,-2.20,2.20,2.49,-0.19,-0.21,-0.21
223,-2.42,-2.20,-2.43,-2.21,2.21,2.52,-0.20,-0.22,-0.22
225,-2.45,-2.22,-2.45,-2.23,2.23,2.54,-0.22,-0.23,-0.22
227,-2.48,-2.25,-2.47,-2.24,2.24,2.56,-0.24,-0.24,-0.23
229,-2.51,-2.27,-2.49,-2.25,2.25,2.58,-0.26,-0.24,-0.24
232,-2.54,-2.29,-2.52,-2.26,2.26,2.61,-0.27,-0.25,-0.25
234,-2.56,-2.30,-2.53,-2.28,2.28,2.63,-0.28,-0.26,-0.25
236,-2.56,-2.30,-2.55,-2.29,2.29,2.64,-0.27,-0.27,-0.26
239,-2.58,-2.31,-2.57,-2.30,2.30,2.66,-0.28,-0.27,-0.27
241,-2.58,-2.31,-2.59,-2.31,2.31,2.67,-0.27,-0.28,-0.27
244,-2.60,-2.32,-2.60,-2.32,2.32,2.68,-0.28,-0.28,-0.28
246,-2.61,-2.32,-2.61,-2.32,2.32,2.68,-0.28,-0.29,-0.28
248,-2.61,-2.32,-2.62,-2.33,2.33,2.68,-0.28,-0.29,-0.29
251,-2.63,-2.33,-2.63,-2.33,2.33,2.68,-0.29,-0.30,-0.30
253,-2.64,-2.34,-2.64,-2.34,2.34,2.68,-0.30,-0.30,-0.30
256,-2.65,-2.34,-2.65,-2.34,2.34,2.67,-0.30,-0.30,-0.31
259,-2.66,-2.34,-2.66,-2.35,2.35,2.65,-0.31,-0.31,-0.31
261,-2.67,-2.35,-2.67,-2.35,2.35,2.64,-0.32,-0.32,-0.32
264,-2.68,-2.36,-2.68,-2.36,2.36,2.62,-0.32,-0.32,-0.32
266,-2.69,-2.36,-2.69,-2.36,2.36,2.60,-0.33,-0.33,-0.33
269,-2.70,-2.37,-2.69,-2.36,2.36,2.58,-0.33,-0.33,-0.33
272,-2.71,-2.37,-2.70,-2.37,2.37,2.55,-0.34,-0.34,-0.34
274,-2.71,-2.37,-2.71,-2.37,2.37,2.53,-0.34,-0.34,-0.34
277,-2.72,-2.37,-2.72,-2.37,2.37,2.49,-0.34,-0.34,-0.34
280,-2.73,-2.38,-2.72,-2.38,2.38,2.46,-0.35,-0.35,-0.35
283,-2.73,-2.37,-2.73,-2.38,2.38,2.42,-0.35,-0.35,-0.35
286,-2.74,-2.38,-2.74,-2.38,2.38,2.38,-0.36,-0.36,-0.36
288,-2.74,-2.38,-2.74,-2.38,2.38,2.36,-0.36,-0.36,-0.36
291,-2.75,-2.38,-2.74,-2.38,2.38,2.32,-0.37,-0.36,-0.36
294,-2.75,-2.38,-2.75,-2.38,2.38,2.28,-0.37,-0.37,-0.37
297,-2.75,-2.38,-2.75,-2.38,2.38,2.24,-0.37,-0.37,-0.37
300,-2.76,-2.38,-2.75,-2.38,2.38,2.20,-0.38,-0.37,-0.37
303,-2.76,-2.38,-2.75,-2.38,2.38,2.16,-0.38,-0.38,-0.38
306,-2.76,-2.38,-2.76,-2.37,2.37,2.12,-0.38,-0.38,-0.38
309,-2.76,-2.37,-2.76,-2.37,2.37,2.08,-0.38,-0.38,-0.38
312,-2.76,-2.37,-2.76,-2.37,2.37,2.05,-0.39,-0.39,-0.39
316,-2.76,-2.37,-2.76,-2.37,2.37,2.00,-0.39,-0.39,-0.39
319,-2.76,-2.36,-2.76,-2.37,2.37,1.96,-0.39,-0.39,-0.39
322,-2.76,-2.36,-2.76,-2.37,2.37,1.93,-0.39,-0.39,-0.39
325,-2.76,-2.36,-2.76,-2.37,2.37,1.90,-0.39,-0.40,-0.40
328,-2.76,-2.36,-2.76,-2.36,2.36,1.86,-0.39,-0.40,-0.40
332,-2.77,-2.36,-2.77,-2.36,2.36,1.82,-0.40,-0.40,-0.40
335,-2.77,-2.36,-2.77,-2.36,2.36,1.80,-0.41,-0.41,-0.40
338,-2.77,-2.36,-2.77,-2.36,2.36,1.77,-0.41,-0.41,-0.41
342,-2.77,-2.36,-2.77,-2.36,2.36,1.73,-0.41,-0.41,-0.41
345,-2.77,-2.36,-2.77,-2.35,2.35,1.71,-0.41,-0.41,-0.41
349,-2.77,-2.35,-2.77,-2.35,2.35,1.68,-0.42,-0.42,-0.41
352,-2.77,-2.35,-2.76,-2.34,2.34,1.65,-0.42,-0.42,-0.42
356,-2.77,-2.35,-2.76,-2.33,2.33,1.62,-0.43,-0.42,-0.42
359,-2.76,-2.34,-2.75,-2.33,2.33,1.60,-0.43,-0.42,-0.42
363,-2.74,-2.31,-2.74,-2.31,2.31,1.58,-0.42,-0.42,-0.42
366,-2.73,-2.30,-2.73,-2.30,2.30,1.56,-0.43,-0.43,-0.42
370,-2.71,-2.28,-2.71,-2.29,2.29,1.54,-0.42,-0.43,-0.43
374,-2.70,-2.27,-2.70,-2.27,2.27,1.52,-0.43,-0.43,-0.43
377,-2.68,-2.25,-2.68,-2.25,2.25,1.51,-0.43,-0.43,-0.43
381,-2.67,-2.24,-2.66,-2.23,2.23,1.49,-0.43,-0.43,-0.43
385,-2.65,-2.21,-2.65,-2.21,2.21,1.47,-0.43,-0.43,-0.43
389,-2.63,-2.19,-2.63,-2.19,2.19,1.46,-0.44,-0.43,-0.43
393,-2.61,-2.17,-2.60,-2.17,2.17,1.45,-0.44,-0.44,-0.44
397,-2.58,-2.14,-2.58,-2.14,2.14,1.43,-0.43,-0.44,-0.44
401,-2.56,-2.12,-2.56,-2.12,2.12,1.42,-0.44,-0.44,-0.44
405,-2.54,-2.10,-2.54,-2.10,2.10,1.41,-0.44,-0.44,-0.44
409,-2.52,-2.07,-2.51,-2.07,2.07,1.40,-0.45,-0.44,-0.44
413,-2.49,-2.04,-2.49,-2.05,2.05,1.40,-0.44,-0.44,-0.44
417,-2.47,-2.02,-2.46,-2.02,2.02,1.39,-0.45,-0.45,-0.45
421,-2.44,-1.99,-2.44,-1.99,1.99,1.38,-0.45,-0.45,-0.45
425,-2.41,-1.96,-2.42,-1.96,1.96,1.38,-0.44,-0.45,-0.45
430,-2.38,-1.93,-2.39,-1.93,1.93,1.37,-0.44,-0.46,-0.45
434,-2.36,-1.90,-2.36,-1.90,1.90,1.37,-0.46,-0.46,-0.45
438,-2.33,-1.87,-2.33,-1.87,1.87,1.36,-0.46,-0.46,-0.45
443,-2.29,-1.83,-2.29,-1.83,1.83,1.36,-0.46,-0.46,-0.45
447,-2.27,-1.82,-2.25,-1.80,1.80,1.35,-0.47,-0.45,-0.45
451,-2.25,-1.80,-2.21,-1.76,1.76,1.35,-0.49,-0.45,-0.45
456,-2.19,-1.74,-2.16,-1.72,1.72,1.35,-0.47,-0.45,-0.44
460,-2.14,-1.70,-2.12,-1.68,1.68,1.35,-0.46,-0.44,-0.44
465,-2.07,-1.64,-2.07,-1.64,1.64,1.34,-0.43,-0.43,-0.43
470,-2.00,-1.57,-2.03,-1.60,1.60,1.34,-0.40,-0.43,-0.42
474,-1.95,-1.53,-1.98,-1.56,1.56,1.34,-0.39,-0.42,-0.41
479,-1.89,-1.48,-1.92,-1.51,1.51,1.33,-0.37,-0.41,-0.40
484,-1.85,-1.46,-1.87,-1.47,1.47,1.33,-0.37,-0.40,-0.39
489,-1.82,-1.44,-1.82,-1.43,1.43,1.33,-0.39,-0.39,-0.38
494,-1.78,-1.41,-1.76,-1.39,1.39,1.32,-0.39,-0.37,-0.36
499,-1.72,-1.37,-1.70,-1.34,1.34,1.32,-0.38,-0.36,-0.35
504,-1.67,-1.33,-1.63,-1.29,1.29,1.31,-0.37,-0.34,-0.33
509,-1.60,-1.28,-1.57,-1.24,1.24,1.31,-0.35,-0.33,-0.32
514,-1.52,-1.22,-1.51,-1.20,1.20,1.30,-0.32,-0.31,-0.30
519,-1.44,-1.15,-1.44,-1.15,1.15,1.30,-0.29,-0.30,-0.28
524,-1.37,-1.10,-1.37,-1.09,1.09,1.29,-0.27,-0.28,-0.27
529,-1.29,-1.04,-1.30,-1.04,1.04,1.29,-0.25,-0.26,-0.25
535,-1.20,-0.97,-1.22,-0.99,0.99,1.28,-0.21,-0.23,-0.23
540,-1.14,-0.93,-1.14,-0.93,0.93,1.27,-0.20,-0.21,-0.21
545,-1.07,-0.88,-1.06,-0.88,0.88,1.27,-0.18,-0.18,-0.19
551,-1.00,-0.83,-0.99,-0.83,0.83,1.26,-0.16,-0.16,-0.16
556,-0.93,-0.79,-0.92,-0.79,0.79,1.26,-0.14,-0.13,-0.14
562,-0.85,-0.74,-0.85,-0.74,0.74,1.25,-0.11,-0.11,-0.11
568,-0.78,-0.69,-0.78,-0.70,0.70,1.25,-0.08,-0.08,-0.08
573,-0.72,-0.66,-0.72,-0.66,0.66,1.24,-0.05,-0.05,-0.05
579,-0.66,-0.63,-0.66,-0.63,0.63,1.24,-0.03,-0.03,-0.03
585,-0.59,-0.59,-0.60,-0.60,0.60,1.23,0.01,0.00,0.00
591,-0.54,-0.57,-0.54,-0.58,0.58,1.23,0.04,0.03,0.03
596,-0.49,-0.55,-0.49,-0.56,0.56,1.22,0.07,0.06,0.06
602,-0.45,-0.54,-0.44,-0.54,0.54,1.22,0.09,0.10,0.10
608,-0.40,-0.52,-0.40,-0.53,0.53,1.22,0.13,0.13,0.13
615,-0.36,-0.51,-0.36,-0.52,0.52,1.22,0.16,0.16,0.16
621,-0.33,-0.52,-0.32,-0.51,0.51,1.21,0.19,0.19,0.19
627,-0.29,-0.51,-0.29,-0.51,0.51,1.21,0.22,0.22,0.22
633,-0.27,-0.52,-0.26,-0.51,0.51,1.21,0.25,0.25,0.25
639,-0.24,-0.52,-0.24,-0.52,0.52,1.22,0.28,0.28,0.28
646,-0.22,-0.53,-0.21,-0.53,0.53,1.22,0.31,0.32,0.32
652,-0.19,-0.54,-0.19,-0.54,0.54,1.22,0.36,0.35,0.35
659,-0.17,-0.55,-0.17,-0.56,0.56,1.23,0.39,0.39,0.38
665,-0.16,-0.58,-0.16,-0.58,0.58,1.23,0.42,0.42,0.42
672,-0.14,-0.59,-0.14,-0.60,0.60,1.24,0.46,0.45,0.45
679,-0.13,-0.62,-0.13,-0.62,0.62,1.24,0.50,0.49,0.49
686,-0.12,-0.64,-0.12,-0.65,0.65,1.25,0.53,0.52,0.53
692,-0.11,-0.67,-0.11,-0.67,0.67,1.26,0.57,0.56,0.57
699,-0.11,-0.71,-0.10,-0.70,0.70,1.27,0.59,0.60,0.60
706,-0.10,-0.74,-0.09,-0.73,0.73,1.28,0.63,0.63,0.64
713,-0.10,-0.78,-0.08,-0.75,0.75,1.30,0.65,0.67,0.68
721,-0.10,-0.82,-0.07,-0.78,0.78,1.31,0.68,0.71,0.72
728,-0.08,-0.83,-0.05,-0.80,0.80,1.32,0.73,0.75,0.76
735,-0.06,-0.85,-0.04,-0.83,0.83,1.34,0.77,0.79,0.80
742,-0.03,-0.86,-0.03,-0.86,0.86,1.35,0.83,0.83,0.84
750,-0.01,-0.88,-0.01,-0.89,0.89,1.37,0.88,0.87,0.87
757,0.01,-0.90,-0.01,-0.92,0.92,1.39,0.93,0.91,0.91
765,0.02,-0.93,0.00,-0.95,0.95,1.41,0.98,0.95,0.95
773,0.02,-0.97,0.00,-0.99,0.99,1.43,1.01,0.99,0.99
780,0.01,-1.01,-0.00,-1.03,1.03,1.45,1.04,1.03,1.03
788,0.00,-1.06,-0.01,-1.07,1.07,1.47,1.08,1.06,1.06
796,-0.01,-1.10,-0.03,-1.12,1.12,1.49,1.11,1.09,1.09
804,-0.04,-1.17,-0.04,-1.17,1.17,1.51,1.13,1.13,1.13
812,-0.06,-1.22,-0.06,-1.22,1.22,1.54,1.16,1.16,1.16
820,-0.09,-1.28,-0.08,-1.27,1.27,1.56,1.18,1.19,1.19
828,-0.13,-1.35,-0.10,-1.32,1.32,1.58,1.19,1.22,1.23
837,-0.15,-1.40,-0.12,-1.37,1.37,1.60,1.23,1.25,1.26
845,-0.17,-1.45,-0.14,-1.42,1.42,1.62,1.26,1.28,1.29
853,-0.17,-1.49,-0.16,-1.47,1.47,1.64,1.30,1.31,1.32
862,-0.17,-1.52,-0.17,-1.52,1.52,1.67,1.35,1.34,1.35
871,-0.17,-1.54,-0.19,-1.56,1.56,1.69,1.39,1.37,1.38
879,-0.18,-1.58,-0.20,-1.60,1.60,1.70,1.42,1.40,1.41
888,-0.19,-1.62,-0.21,-1.63,1.63,1.72,1.45,1.43,1.43
897,-0.21,-1.67,-0.21,-1.67,1.67,1.74,1.46,1.45,1.46
906,-0.21,-1.70,-0.21,-1.69,1.69,1.75,1.49,1.48,1.49
915,-0.21,-1.72,-0.21,-1.72,1.72,1.76,1.51,1.51,1.52
924,-0.22,-1.76,-0.20,-1.74,1.74,1.77,1.52,1.54,1.54
933,-0.21,-1.78,-0.19,-1.75,1.75,1.78,1.54,1.56,1.57
943,-0.20,-1.79,-0.17,-1.76,1.76,1.78,1.56,1.59,1.59
952,-0.18,-1.80,-0.15,-1.77,1.77,1.78,1.59,1.61,1.62
962,-0.15,-1.79,-0.13,-1.77,1.77,1.78,1.63,1.64,1.65
971,-0.12,-1.79,-0.10,-1.77,1.77,1.78,1.66,1.67,1.67
981,-0.07,-1.77,-0.08,-1.77,1.77,1.77,1.71,1.70,1.70
991,-0.03,-1.75,-0.05,-1.77,1.77,1.76,1.74,1.72,1.73
1001,0.00,-1.75,-0.02,-1.77,1.77,1.75,1.77,1.75,1.75
1011,0.04,-1.74,0.01,-1.77,1.77,1.73,1.81,1.78,1.78
1021,0.06,-1.74,0.04,-1.77,1.77,1.71,1.83,1.81,1.81
1031,0.08,-1.75,0.07,-1.77,1.77,1.69,1.85,1.84,1.83
1041,0.09,-1.77,0.10,-1.77,1.77,1.66,1.86,1.86,1.86
1052,0.11,-1.77,0.12,-1.77,1.77,1.63,1.88,1.89,1.89
1062,0.13,-1.78,0.15,-1.77,1.77,1.60,1.90,1.92,1.92
1073,0.16,-1.78,0.18,-1.77,1.77,1.56,1.93,1.95,1.95
1084,0.19,-1.78,0.20,-1.77,1.77,1.52,1.97,1.97,1.97
1094,0.23,-1.77,0.23,-1.77,1.77,1.48,2.01,2.00,2.00
1105,0.26,-1.77,0.26,-1.77,1.77,1.44,2.04,2.03,2.03
1116,0.30,-1.76,0.29,-1.77,1.77,1.39,2.07,2.06,2.07
1128,0.34,-1.75,0.33,-1.76,1.76,1.34,2.11,2.09,2.10
1139,0.38,-1.75,0.37,-1.75,1.75,1.29,2.14,2.13,2.13
1150,0.42,-1.74,0.42,-1.74,1.74,1.24,2.16,2.16,2.16
1162,0.46,-1.73,0.46,-1.72,1.72,1.18,2.18,2.18,2.19
1173,0.51,-1.71,0.52,-1.70,1.70,1.13,2.21,2.21,2.22
1185,0.57,-1.68,0.58,-1.66,1.66,1.07,2.24,2.24,2.26
1197,0.64,-1.64,0.64,-1.63,1.63,1.01,2.27,2.27,2.29
1209,0.71,-1.61,0.72,-1.58,1.58,0.96,2.29,2.30,2.32
1221,0.79,-1.56,0.80,-1.53,1.53,0.90,2.32,2.33,2.35
1233,0.87,-1.51,0.89,-1.47,1.47,0.84,2.34,2.36,2.38
1246,0.97,-1.44,1.00,-1.40,1.40,0.78,2.37,2.39,2.41
1258,1.08,-1.36,1.11,-1.32,1.32,0.72,2.40,2.43,2.45
1271,1.22,-1.26,1.23,-1.23,1.23,0.66,2.45,2.46,2.48
1283,1.35,-1.16,1.36,-1.14,1.14,0.60,2.49,2.50,2.52
1296,1.49,-1.06,1.50,-1.04,1.04,0.54,2.53,2.53,2.55
1309,1.65,-0.93,1.64,-0.93,0.93,0.48,2.58,2.57,2.59
1322,1.80,-0.82,1.79,-0.82,0.82,0.42,2.62,2.61,2.62
1335,1.95,-0.71,1.95,-0.70,0.70,0.36,2.65,2.65,2.66
1349,2.12,-0.57,2.11,-0.58,0.58,0.29,2.70,2.69,2.70
1362,2.26,-0.47,2.27,-0.46,0.46,0.23,2.72,2.73,2.73
1376,2.42,-0.35,2.43,-0.34,0.34,0.17,2.76,2.77,2.77
1390,2.58,-0.23,2.60,-0.21,0.21,0.11,2.80,2.81,2.81
1404,2.74,-0.11,2.76,-0.09,0.09,0.05,2.84,2.85,2.85
1418,2.90,0.02,2.91,0.02,-0.02,-0.01,2.88,2.89,2.89
1432,3.07,0.15,3.06,0.14,-0.14,-0.08,2.94,2.93,2.93
1446,3.23,0.27,3.21,0.24,-0.24,-0.13,2.99,2.97,2.96
1461,3.37,0.37,3.35,0.35,-0.35,-0.20,3.03,3.01,3.00
1475,3.51,0.47,3.49,0.44,-0.44,-0.26,3.07,3.05,3.04
1490,3.64,0.56,3.62,0.53,-0.53,-0.32,3.11,3.09,3.08
1505,3.75,0.63,3.74,0.61,-0.61,-0.38,3.14,3.13,3.12
1520,3.85,0.69,3.86,0.69,-0.69,-0.44,3.17,3.17,3.16
1535,3.95,0.75,3.96,0.75,-0.75,-0.50,3.20,3.21,3.20
1550,4.05,0.81,4.06,0.82,-0.82,-0.56,3.24,3.25,3.25
1566,4.15,0.86,4.16,0.87,-0.87,-0.62,3.28,3.29,3.29
1582,4.24,0.91,4.25,0.92,-0.92,-0.68,3.33,3.33,3.33
1597,4.32,0.94,4.33,0.96,-0.96,-0.74,3.36,3.37,3.38
1613,4.41,0.99,4.41,1.00,-1.00,-0.80,3.42,3.42,3.43
1629,4.48,1.01,4.49,1.03,-1.03,-0.86,3.46,3.46,3.47
1646,4.56,1.05,4.56,1.05,-1.05,-0.92,3.51,3.51,3.52
1662,4.62,1.06,4.63,1.07,-1.07,-0.98,3.56,3.56,3.56
1679,4.69,1.08,4.69,1.08,-1.08,-1.04,3.62,3.61,3.61
1696,4.75,1.10,4.74,1.08,-1.08,-1.10,3.68,3.67,3.66
1713,4.80,1.10,4.79,1.07,-1.07,-1.16,3.73,3.72,3.70
1730,4.84,1.09,4.82,1.05,-1.05,-1.21,3.79,3.77,3.75
1747,4.87,1.07,4.85,1.03,-1.03,-1.27,3.84,3.82,3.80
1764,4.89,1.04,4.87,1.00,-1.00,-1.32,3.89,3.86,3.85
1782,4.91,1.01,4.88,0.97,-0.97,-1.38,3.94,3.91,3.90
1800,4.92,0.97,4.89,0.94,-0.94,-1.43,3.98,3.95,3.95
1818,4.92,0.92,4.90,0.91,-0.91,-1.48,4.01,3.99,4.00
1836,4.92,0.86,4.92,0.88,-0.88,-1.53,4.04,4.03,4.06
1854,4.92,0.80,4.94,0.86,-0.86,-1.58,4.06,4.08,4.12
