frequency,raw,error,smoothed,error_smoothed,equalization,parametric_eq,fixed_band_eq,equalized_raw,equalized_smoothed,target
20.00,-6.69,-9.11,-6.69,-9.11,6.00,6.28,2.74,-0.69,-0.69,2.42
20.20,-6.63,-9.10,-6.63,-9.10,6.00,6.27,2.82,-0.63,-0.63,2.47
20.40,-6.58,-9.10,-6.58,-9.09,6.00,6.27,2.90,-0.58,-0.58,2.52
20.61,-6.52,-9.07,-6.52,-9.08,6.00,6.26,2.98,-0.52,-0.52,2.55
20.81,-6.46,-9.06,-6.46,-9.06,6.00,6.26,3.06,-0.46,-0.46,2.60
21.02,-6.40,-9.04,-6.40,-9.03,6.00,6.25,3.15,-0.40,-0.40,2.64
21.23,-6.33,-8.99,-6.33,-8.99,6.00,6.24,3.24,-0.33,-0.33,2.66
21.44,-6.26,-8.94,-6.26,-8.94,6.00,6.23,3.34,-0.26,-0.26,2.68
21.66,-6.18,-8.88,-6.18,-8.88,6.00,6.23,3.43,-0.18,-0.18,2.70
21.87,-6.11,-8.81,-6.11,-8.82,6.00,6.22,3.53,-0.11,-0.11,2.71
22.09,-6.04,-8.76,-6.04,-8.76,6.00,6.21,3.63,-0.04,-0.04,2.73
22.31,-5.97,-8.70,-5.97,-8.70,6.00,6.21,3.73,0.03,0.03,2.74
22.54,-5.90,-8.64,-5.89,-8.63,6.00,6.20,3.84,0.10,0.11,2.74
22.76,-5.82,-8.55,-5.82,-8.55,6.00,6.19,3.95,0.18,0.18,2.74
22.99,-5.75,-8.47,-5.76,-8.49,6.00,6.18,4.06,0.25,0.24,2.73
23.22,-5.72,-8.44,-5.72,-8.44,6.00,6.17,4.17,0.28,0.28,2.73
23.45,-5.69,-8.41,-5.69,-8.41,6.00,6.17,4.29,0.31,0.31,2.72
23.69,-5.65,-8.38,-5.66,-8.39,6.00,6.16,4.41,0.35,0.34,2.73
23.92,-5.62,-8.35,-5.60,-8.34,6.00,6.15,4.53,0.38,0.40,2.73
24.16,-5.53,-8.27,-5.52,-8.26,6.00,6.14,4.66,0.47,0.48,2.74
24.40,-5.40,-8.15,-5.40,-8.15,6.00,6.13,4.78,0.60,0.60,2.75
24.65,-5.28,-8.02,-5.27,-8.02,6.00,6.12,4.91,0.72,0.73,2.74
24.89,-5.15,-7.89,-5.16,-7.91,6.00,6.11,5.04,0.85,0.84,2.74
25.14,-5.08,-7.82,-5.08,-7.83,6.00,6.10,5.17,0.92,0.92,2.74
25.39,-5.04,-7.79,-5.03,-7.78,6.00,6.09,5.30,0.96,0.97,2.75
25.65,-5.00,-7.75,-5.00,-7.74,6.00,6.08,5.44,1.00,1.00,2.75
25.91,-4.96,-7.70,-4.96,-7.70,6.00,6.07,5.57,1.04,1.04,2.74
26.16,-4.92,-7.66,-4.91,-7.65,6.00,6.06,5.70,1.08,1.09,2.74
26.43,-4.86,-7.60,-4.86,-7.60,6.00,6.05,5.84,1.14,1.14,2.74
26.69,-4.81,-7.55,-4.81,-7.55,6.00,6.04,5.97,1.19,1.19,2.74
26.96,-4.76,-7.51,-4.75,-7.50,6.00,6.03,6.10,1.24,1.25,2.75
27.23,-4.69,-7.44,-4.69,-7.44,6.00,6.02,6.23,1.31,1.31,2.75
27.50,-4.62,-7.37,-4.63,-7.37,6.00,6.01,6.35,1.38,1.37,2.75
27.77,-4.56,-7.29,-4.55,-7.29,6.00,6.00,6.47,1.44,1.45,2.74
28.05,-4.48,-7.21,-4.47,-7.20,6.00,5.99,6.59,1.52,1.53,2.73
28.33,-4.38,-7.10,-4.38,-7.10,6.00,5.98,6.70,1.62,1.62,2.72
28.62,-4.27,-6.99,-4.27,-7.00,6.00,5.96,6.81,1.73,1.73,2.72
28.90,-4.17,-6.90,-4.18,-6.90,6.00,5.95,6.90,1.83,1.82,2.73
29.19,-4.10,-6.82,-4.10,-6.83,6.00,5.94,6.99,1.90,1.90,2.72
29.48,-4.04,-6.78,-4.04,-6.77,6.00,5.93,7.07,1.96,1.96,2.74
29.78,-3.99,-6.72,-3.99,-6.72,6.00,5.91,7.15,2.01,2.01,2.73
30.08,-3.95,-6.69,-3.95,-6.69,6.00,5.90,7.21,2.05,2.05,2.74
30.38,-3.93,-6.66,-3.93,-6.65,6.00,5.89,7.26,2.07,2.07,2.73
30.68,-3.91,-6.63,-3.90,-6.63,6.00,5.87,7.30,2.09,2.10,2.73
30.99,-3.89,-6.61,-3.89,-6.62,6.00,5.86,7.33,2.11,2.11,2.73
31.30,-3.89,-6.61,-3.90,-6.62,6.00,5.85,7.35,2.11,2.10,2.72
31.61,-3.90,-6.62,-3.90,-6.62,6.00,5.83,7.36,2.10,2.10,2.72
31.93,-3.90,-6.62,-3.88,-6.60,6.00,5.82,7.35,2.10,2.12,2.72
32.24,-3.85,-6.56,-3.85,-6.56,6.00,5.80,7.34,2.15,2.15,2.71
32.57,-3.77,-6.49,-3.78,-6.50,6.00,5.79,7.31,2.23,2.22,2.72
32.89,-3.70,-6.41,-3.69,-6.40,6.00,5.77,7.27,2.30,2.31,2.72
33.22,-3.60,-6.30,-3.58,-6.29,6.00,5.76,7.23,2.40,2.42,2.71
33.55,-3.48,-6.18,-3.47,-6.18,6.00,5.74,7.17,2.52,2.53,2.70
33.89,-3.37,-6.06,-3.40,-6.10,6.00,5.72,7.11,2.63,2.60,2.69
34.23,-3.37,-6.07,-3.38,-6.08,6.00,5.71,7.04,2.63,2.62,2.70
34.57,-3.42,-6.11,-3.42,-6.11,6.01,5.69,6.96,2.59,2.59,2.69
34.92,-3.48,-6.16,-3.45,-6.14,6.01,5.67,6.88,2.53,2.56,2.69
35.27,-3.46,-6.14,-3.45,-6.13,6.01,5.66,6.79,2.55,2.56,2.68
35.62,-3.41,-6.09,-3.42,-6.10,6.00,5.64,6.70,2.59,2.58,2.68
35.97,-3.36,-6.04,-3.36,-6.05,5.99,5.62,6.61,2.63,2.62,2.68
36.33,-3.32,-6.01,-3.32,-6.00,5.97,5.60,6.51,2.65,2.65,2.69
36.70,-3.28,-5.96,-3.28,-5.96,5.94,5.58,6.41,2.66,2.66,2.68
37.06,-3.24,-5.91,-3.23,-5.91,5.91,5.56,6.31,2.68,2.68,2.67
37.43,-3.18,-5.87,-3.18,-5.86,5.88,5.54,6.21,2.70,2.70,2.69
37.81,-3.12,-5.81,-3.13,-5.81,5.84,5.53,6.11,2.72,2.71,2.69
38.19,-3.08,-5.77,-3.09,-5.78,5.79,5.51,6.01,2.71,2.70,2.69
38.57,-3.06,-5.75,-3.06,-5.75,5.74,5.48,5.92,2.68,2.68,2.69
38.95,-3.04,-5.74,-3.02,-5.72,5.69,5.46,5.82,2.65,2.67,2.70
39.34,-2.97,-5.67,-2.96,-5.66,5.64,5.44,5.73,2.67,2.68,2.70
39.74,-2.88,-5.57,-2.89,-5.59,5.60,5.42,5.64,2.72,2.71,2.69
40.14,-2.82,-5.52,-2.82,-5.52,5.56,5.40,5.55,2.74,2.73,2.70
40.54,-2.79,-5.49,-2.78,-5.48,5.51,5.38,5.46,2.72,2.73,2.70
40.94,-2.75,-5.44,-2.76,-5.46,5.46,5.35,5.38,2.71,2.70,2.69
41.35,-2.75,-5.44,-2.75,-5.44,5.41,5.33,5.30,2.66,2.66,2.69
41.76,-2.74,-5.43,-2.73,-5.42,5.37,5.31,5.22,2.63,2.64,2.69
42.18,-2.70,-5.39,-2.67,-5.36,5.34,5.28,5.15,2.64,2.67,2.69
42.60,-2.61,-5.29,-2.61,-5.29,5.32,5.26,5.08,2.71,2.71,2.68
43.03,-2.52,-5.19,-2.57,-5.25,5.31,5.23,5.01,2.79,2.74,2.68
43.46,-2.58,-5.25,-2.57,-5.23,5.29,5.21,4.95,2.71,2.72,2.67
43.90,-2.63,-5.27,-2.61,-5.25,5.27,5.18,4.89,2.64,2.66,2.65
44.33,-2.64,-5.27,-2.64,-5.28,5.23,5.16,4.84,2.59,2.59,2.63
44.78,-2.64,-5.26,-2.64,-5.26,5.19,5.13,4.79,2.56,2.55,2.62
45.23,-2.62,-5.23,-2.62,-5.23,5.16,5.10,4.74,2.54,2.54,2.61
45.68,-2.57,-5.17,-2.56,-5.16,5.12,5.08,4.70,2.55,2.56,2.60
46.13,-2.49,-5.07,-2.45,-5.04,5.08,5.05,4.66,2.59,2.63,2.58
46.60,-2.34,-4.92,-2.34,-4.92,5.02,5.02,4.62,2.68,2.67,2.58
47.06,-2.22,-4.79,-2.33,-4.90,4.95,4.99,4.59,2.73,2.62,2.57
47.53,-2.35,-4.91,-2.35,-4.92,4.89,4.96,4.56,2.54,2.54,2.56
48.01,-2.48,-5.04,-2.32,-4.88,4.83,4.93,4.53,2.35,2.51,2.57
48.49,-2.24,-4.79,-2.24,-4.79,4.77,4.90,4.51,2.53,2.52,2.55
48.97,-2.01,-4.54,-2.18,-4.71,4.70,4.87,4.49,2.69,2.53,2.53
49.46,-2.13,-4.65,-2.13,-4.65,4.65,4.84,4.47,2.52,2.52,2.52
49.96,-2.26,-4.76,-2.10,-4.61,4.60,4.81,4.45,2.34,2.50,2.50
50.46,-2.05,-4.55,-2.04,-4.54,4.54,4.78,4.44,2.49,2.50,2.50
50.96,-1.82,-4.31,-1.95,-4.44,4.48,4.74,4.43,2.67,2.53,2.49
51.47,-1.89,-4.36,-1.90,-4.37,4.43,4.71,4.42,2.54,2.53,2.48
51.99,-2.00,-4.46,-1.93,-4.40,4.38,4.68,4.41,2.38,2.45,2.47
52.51,-1.95,-4.42,-1.95,-4.42,4.34,4.64,4.41,2.39,2.39,2.47
53.03,-1.90,-4.37,-1.89,-4.35,4.31,4.61,4.40,2.41,2.42,2.47
53.56,-1.80,-4.26,-1.80,-4.26,4.29,4.57,4.40,2.49,2.50,2.46
54.10,-1.71,-4.16,-1.74,-4.19,4.27,4.53,4.39,2.56,2.53,2.45
54.64,-1.73,-4.17,-1.74,-4.18,4.24,4.50,4.39,2.51,2.51,2.44
55.18,-1.77,-4.21,-1.78,-4.22,4.20,4.46,4.38,2.43,2.42,2.44
55.74,-1.84,-4.27,-1.81,-4.24,4.14,4.42,4.38,2.30,2.33,2.43
56.29,-1.81,-4.23,-1.78,-4.20,4.09,4.38,4.37,2.28,2.31,2.43
56.86,-1.67,-4.09,-1.67,-4.08,4.05,4.34,4.37,2.38,2.38,2.42
57.42,-1.54,-3.93,-1.54,-3.94,4.01,4.30,4.36,2.47,2.47,2.39
58.00,-1.40,-3.79,-1.47,-3.86,3.97,4.26,4.35,2.57,2.50,2.39
58.58,-1.48,-3.87,-1.47,-3.85,3.92,4.22,4.33,2.44,2.46,2.39
59.16,-1.54,-3.91,-1.50,-3.88,3.87,4.18,4.32,2.34,2.37,2.38
59.76,-1.54,-3.90,-1.54,-3.90,3.84,4.14,4.30,2.30,2.29,2.36
60.35,-1.54,-3.87,-1.54,-3.88,3.81,4.10,4.28,2.27,2.27,2.33
60.96,-1.54,-3.84,-1.54,-3.84,3.81,4.05,4.25,2.27,2.27,2.30
61.57,-1.54,-3.81,-1.53,-3.80,3.81,4.01,4.22,2.27,2.28,2.27
62.18,-1.54,-3.77,-1.53,-3.77,3.81,3.96,4.19,2.27,2.28,2.23
62.80,-1.54,-3.74,-1.56,-3.75,3.81,3.92,4.15,2.27,2.26,2.20
63.43,-1.61,-3.77,-1.62,-3.78,3.81,3.87,4.11,2.20,2.19,2.16
64.07,-1.71,-3.83,-1.71,-3.83,3.82,3.83,4.06,2.11,2.11,2.12
64.71,-1.82,-3.90,-1.80,-3.89,3.84,3.78,4.01,2.02,2.04,2.09
65.35,-1.87,-3.93,-1.85,-3.90,3.87,3.73,3.96,2.00,2.02,2.06
66.01,-1.87,-3.89,-1.87,-3.89,3.89,3.68,3.91,2.02,2.02,2.02
66.67,-1.88,-3.86,-1.91,-3.89,3.91,3.63,3.85,2.03,2.00,1.98
67.33,-1.95,-3.89,-1.96,-3.90,3.94,3.58,3.78,1.99,1.98,1.94
68.01,-2.07,-3.98,-2.02,-3.92,3.95,3.53,3.72,1.88,1.94,1.91
68.69,-2.05,-3.92,-2.07,-3.94,3.95,3.48,3.65,1.90,1.88,1.87
69.37,-2.08,-3.91,-2.10,-3.93,3.94,3.43,3.58,1.86,1.84,1.83
70.07,-2.14,-3.92,-2.12,-3.91,3.90,3.38,3.51,1.76,1.78,1.79
70.77,-2.14,-3.89,-2.17,-3.92,3.83,3.33,3.43,1.69,1.67,1.75
71.48,-2.15,-3.86,-2.13,-3.84,3.74,3.27,3.35,1.60,1.61,1.71
72.19,-2.10,-3.76,-2.02,-3.68,3.64,3.22,3.28,1.54,1.62,1.66
72.91,-1.82,-3.43,-1.88,-3.50,3.51,3.16,3.20,1.69,1.63,1.61
73.64,-1.72,-3.29,-1.77,-3.33,3.38,3.11,3.12,1.67,1.62,1.57
74.38,-1.68,-3.20,-1.64,-3.16,3.25,3.05,3.04,1.57,1.61,1.52
75.12,-1.65,-3.12,-1.59,-3.06,3.12,3.00,2.96,1.47,1.53,1.48
75.87,-1.44,-2.87,-1.56,-3.00,3.00,2.94,2.88,1.56,1.43,1.43
76.63,-1.56,-2.95,-1.52,-2.91,2.89,2.89,2.80,1.33,1.37,1.39
77.40,-1.55,-2.90,-1.48,-2.83,2.80,2.83,2.72,1.25,1.33,1.36
78.17,-1.38,-2.69,-1.44,-2.75,2.72,2.77,2.64,1.34,1.28,1.31
78.95,-1.35,-2.64,-1.34,-2.62,2.63,2.71,2.56,1.28,1.29,1.29
79.74,-1.26,-2.51,-1.27,-2.51,2.53,2.65,2.48,1.27,1.26,1.25
80.54,-1.22,-2.44,-1.23,-2.44,2.42,2.59,2.40,1.20,1.19,1.22
81.35,-1.19,-2.37,-1.18,-2.37,2.31,2.53,2.32,1.13,1.13,1.18
82.16,-1.12,-2.27,-1.10,-2.25,2.23,2.47,2.25,1.11,1.12,1.15
82.98,-1.04,-2.16,-0.99,-2.10,2.15,2.41,2.17,1.11,1.16,1.12
83.81,-0.84,-1.92,-0.90,-1.98,2.09,2.35,2.10,1.25,1.19,1.08
84.65,-0.84,-1.89,-0.88,-1.94,2.03,2.29,2.03,1.19,1.14,1.05
85.50,-0.95,-1.97,-0.94,-1.96,1.96,2.23,1.96,1.01,1.02,1.03
86.35,-1.05,-2.04,-0.99,-1.98,1.89,2.17,1.89,0.84,0.90,0.99
87.22,-1.02,-1.98,-0.98,-1.93,1.82,2.11,1.82,0.80,0.85,0.96
88.09,-0.83,-1.75,-0.91,-1.84,1.76,2.05,1.75,0.93,0.85,0.92
88.97,-0.83,-1.72,-0.81,-1.70,1.71,1.99,1.69,0.88,0.90,0.89
89.86,-0.78,-1.63,-0.72,-1.57,1.66,1.93,1.62,0.88,0.94,0.85
90.76,-0.63,-1.44,-0.69,-1.51,1.60,1.86,1.56,0.97,0.91,0.82
91.66,-0.66,-1.45,-0.69,-1.47,1.53,1.80,1.49,0.87,0.85,0.79
92.58,-0.74,-1.48,-0.73,-1.48,1.47,1.74,1.43,0.73,0.74,0.74
93.51,-0.82,-1.53,-0.77,-1.49,1.41,1.68,1.37,0.59,0.64,0.71
94.44,-0.77,-1.46,-0.75,-1.43,1.35,1.62,1.32,0.58,0.61,0.69
95.39,-0.64,-1.30,-0.70,-1.35,1.30,1.56,1.26,0.66,0.60,0.66
96.34,-0.63,-1.25,-0.63,-1.25,1.24,1.50,1.20,0.61,0.61,0.62
97.30,-0.61,-1.20,-0.56,-1.15,1.19,1.44,1.15,0.58,0.63,0.59
98.28,-0.51,-1.07,-0.52,-1.08,1.14,1.38,1.09,0.63,0.62,0.56
99.26,-0.44,-0.97,-0.50,-1.03,1.10,1.32,1.04,0.67,0.61,0.54
100.25,-0.54,-1.04,-0.51,-1.02,1.08,1.26,0.99,0.54,0.57,0.51
101.25,-0.59,-1.07,-0.57,-1.05,1.06,1.20,0.94,0.47,0.48,0.48
102.27,-0.62,-1.07,-0.66,-1.10,1.04,1.14,0.89,0.42,0.39,0.45
103.29,-0.71,-1.12,-0.69,-1.11,1.04,1.08,0.84,0.33,0.34,0.41
104.32,-0.74,-1.13,-0.69,-1.08,1.03,1.02,0.79,0.29,0.34,0.39
105.37,-0.65,-1.01,-0.66,-1.02,1.01,0.96,0.74,0.37,0.35,0.36
106.42,-0.58,-0.91,-0.62,-0.95,0.98,0.91,0.70,0.40,0.36,0.33
107.48,-0.61,-0.90,-0.60,-0.89,0.93,0.85,0.65,0.32,0.33,0.29
108.56,-0.63,-0.88,-0.64,-0.89,0.87,0.80,0.61,0.24,0.23,0.25
109.64,-0.65,-0.87,-0.64,-0.86,0.81,0.74,0.57,0.16,0.17,0.22
110.74,-0.67,-0.85,-0.59,-0.78,0.76,0.69,0.53,0.09,0.17,0.18
111.85,-0.48,-0.64,-0.54,-0.69,0.72,0.63,0.49,0.24,0.19,0.16
112.97,-0.46,-0.57,-0.51,-0.63,0.70,0.58,0.45,0.24,0.19,0.12
114.10,-0.56,-0.65,-0.52,-0.61,0.68,0.53,0.41,0.12,0.15,0.09
115.24,-0.61,-0.67,-0.58,-0.63,0.65,0.48,0.37,0.05,0.08,0.06
116.39,-0.61,-0.63,-0.62,-0.65,0.62,0.43,0.34,0.02,-0.00,0.02
117.55,-0.62,-0.62,-0.66,-0.67,0.60,0.38,0.30,-0.02,-0.07,0.00
118.73,-0.70,-0.67,-0.66,-0.64,0.57,0.33,0.27,-0.13,-0.09,-0.02
119.92,-0.68,-0.65,-0.62,-0.58,0.54,0.28,0.24,-0.14,-0.07,-0.03
121.12,-0.48,-0.42,-0.55,-0.50,0.51,0.24,0.21,0.03,-0.05,-0.06
122.33,-0.47,-0.39,-0.48,-0.41,0.46,0.19,0.18,-0.01,-0.02,-0.07
123.55,-0.47,-0.39,-0.45,-0.36,0.42,0.15,0.15,-0.05,-0.03,-0.08
124.79,-0.46,-0.36,-0.46,-0.36,0.37,0.11,0.12,-0.09,-0.09,-0.10
126.03,-0.45,-0.34,-0.45,-0.35,0.34,0.06,0.10,-0.11,-0.12,-0.11
127.29,-0.45,-0.33,-0.44,-0.32,0.31,0.02,0.07,-0.14,-0.14,-0.12
128.57,-0.44,-0.30,-0.44,-0.30,0.29,-0.02,0.05,-0.15,-0.15,-0.14
129.85,-0.43,-0.28,-0.43,-0.28,0.28,-0.06,0.03,-0.15,-0.16,-0.15
131.15,-0.43,-0.26,-0.42,-0.26,0.26,-0.10,0.01,-0.17,-0.17,-0.17
132.46,-0.42,-0.24,-0.42,-0.24,0.24,-0.13,-0.01,-0.18,-0.18,-0.18
133.79,-0.42,-0.23,-0.42,-0.23,0.23,-0.17,-0.03,-0.19,-0.19,-0.19
135.12,-0.42,-0.21,-0.41,-0.21,0.22,-0.20,-0.05,-0.20,-0.19,-0.21
136.48,-0.41,-0.20,-0.41,-0.19,0.22,-0.24,-0.07,-0.19,-0.20,-0.21
137.84,-0.41,-0.18,-0.40,-0.17,0.20,-0.27,-0.09,-0.21,-0.20,-0.23
139.22,-0.41,-0.16,-0.41,-0.16,0.18,-0.30,-0.11,-0.23,-0.23,-0.25
140.61,-0.41,-0.14,-0.46,-0.20,0.14,-0.33,-0.12,-0.27,-0.32,-0.27
142.02,-0.49,-0.22,-0.45,-0.17,0.10,-0.36,-0.14,-0.39,-0.35,-0.27
143.44,-0.48,-0.19,-0.39,-0.09,0.04,-0.39,-0.15,-0.44,-0.34,-0.29
144.87,-0.22,0.10,-0.30,0.01,-0.02,-0.41,-0.17,-0.24,-0.32,-0.32
146.32,-0.17,0.17,-0.21,0.12,-0.08,-0.44,-0.18,-0.25,-0.29,-0.34
147.78,-0.20,0.16,-0.16,0.20,-0.14,-0.46,-0.20,-0.34,-0.30,-0.36
149.26,-0.20,0.20,-0.16,0.24,-0.21,-0.49,-0.21,-0.40,-0.37,-0.39
150.75,-0.13,0.32,-0.17,0.28,-0.27,-0.51,-0.23,-0.40,-0.44,-0.45
152.26,-0.16,0.34,-0.19,0.31,-0.32,-0.53,-0.24,-0.47,-0.51,-0.50
153.78,-0.28,0.28,-0.24,0.32,-0.34,-0.55,-0.25,-0.62,-0.58,-0.56
155.32,-0.30,0.32,-0.28,0.34,-0.36,-0.57,-0.27,-0.65,-0.64,-0.62
156.88,-0.30,0.38,-0.30,0.39,-0.37,-0.59,-0.28,-0.67,-0.67,-0.68
158.44,-0.30,0.46,-0.33,0.43,-0.39,-0.60,-0.30,-0.68,-0.72,-0.76
160.03,-0.37,0.46,-0.39,0.44,-0.42,-0.62,-0.31,-0.79,-0.80,-0.83
161.63,-0.50,0.39,-0.47,0.42,-0.46,-0.64,-0.33,-0.96,-0.93,-0.89
163.24,-0.51,0.43,-0.51,0.43,-0.50,-0.65,-0.34,-1.01,-1.02,-0.94
164.88,-0.53,0.45,-0.48,0.49,-0.55,-0.66,-0.36,-1.08,-1.04,-0.98
166.53,-0.39,0.63,-0.42,0.60,-0.60,-0.68,-0.38,-0.99,-1.02,-1.02
168.19,-0.33,0.72,-0.36,0.69,-0.64,-0.69,-0.39,-0.97,-1.00,-1.05
169.87,-0.33,0.74,-0.32,0.75,-0.68,-0.70,-0.41,-1.01,-1.00,-1.07
171.57,-0.33,0.75,-0.33,0.75,-0.72,-0.71,-0.43,-1.05,-1.04,-1.08
173.29,-0.34,0.75,-0.34,0.75,-0.74,-0.72,-0.45,-1.08,-1.08,-1.09
175.02,-0.35,0.74,-0.34,0.74,-0.76,-0.73,-0.46,-1.10,-1.10,-1.08
176.77,-0.35,0.74,-0.35,0.74,-0.76,-0.73,-0.48,-1.10,-1.11,-1.09
178.54,-0.35,0.74,-0.35,0.73,-0.75,-0.74,-0.50,-1.09,-1.10,-1.09
180.32,-0.35,0.72,-0.35,0.73,-0.73,-0.75,-0.52,-1.08,-1.08,-1.07
182.13,-0.34,0.72,-0.34,0.72,-0.72,-0.75,-0.54,-1.06,-1.06,-1.06
183.95,-0.33,0.73,-0.33,0.73,-0.72,-0.76,-0.56,-1.05,-1.05,-1.06
185.79,-0.32,0.74,-0.31,0.75,-0.73,-0.76,-0.58,-1.04,-1.04,-1.05
187.65,-0.30,0.77,-0.32,0.75,-0.74,-0.76,-0.60,-1.04,-1.06,-1.07
189.52,-0.32,0.75,-0.33,0.74,-0.77,-0.76,-0.63,-1.09,-1.11,-1.07
191.42,-0.36,0.72,-0.33,0.76,-0.81,-0.77,-0.65,-1.17,-1.13,-1.08
193.33,-0.31,0.79,-0.28,0.81,-0.85,-0.77,-0.67,-1.16,-1.13,-1.10
195.27,-0.19,0.92,-0.22,0.89,-0.89,-0.77,-0.69,-1.08,-1.11,-1.11
197.22,-0.13,0.99,-0.15,0.98,-0.94,-0.77,-0.72,-1.06,-1.08,-1.12
199.19,-0.12,1.02,-0.11,1.02,-0.98,-0.77,-0.74,-1.10,-1.09,-1.14
201.18,-0.11,1.04,-0.11,1.04,-1.02,-0.77,-0.76,-1.13,-1.13,-1.15
203.19,-0.11,1.05,-0.11,1.05,-1.05,-0.77,-0.79,-1.16,-1.16,-1.16
205.23,-0.11,1.07,-0.11,1.06,-1.08,-0.76,-0.81,-1.19,-1.19,-1.18
207.28,-0.11,1.07,-0.11,1.08,-1.09,-0.76,-0.84,-1.20,-1.20,-1.18
209.35,-0.11,1.09,-0.11,1.09,-1.10,-0.76,-0.86,-1.21,-1.21,-1.20
211.44,-0.11,1.12,-0.11,1.10,-1.10,-0.76,-0.88,-1.21,-1.22,-1.23
213.56,-0.12,1.11,-0.11,1.11,-1.11,-0.75,-0.90,-1.23,-1.23,-1.23
215.69,-0.12,1.12,-0.12,1.12,-1.12,-0.75,-0.93,-1.24,-1.24,-1.23
217.85,-0.12,1.12,-0.12,1.12,-1.12,-0.74,-0.95,-1.24,-1.25,-1.24
220.03,-0.13,1.12,-0.13,1.13,-1.13,-0.74,-0.97,-1.25,-1.25,-1.25
222.23,-0.13,1.14,-0.13,1.13,-1.13,-0.73,-0.99,-1.25,-1.25,-1.27
224.45,-0.13,1.13,-0.13,1.13,-1.12,-0.73,-1.01,-1.25,-1.25,-1.25
226.70,-0.13,1.12,-0.13,1.12,-1.12,-0.72,-1.02,-1.25,-1.25,-1.25
228.96,-0.12,1.12,-0.12,1.11,-1.12,-0.72,-1.04,-1.24,-1.24,-1.24
231.25,-0.12,1.11,-0.12,1.11,-1.11,-0.71,-1.05,-1.23,-1.23,-1.22
233.57,-0.11,1.10,-0.11,1.11,-1.11,-0.70,-1.07,-1.22,-1.21,-1.21
235.90,-0.09,1.11,-0.09,1.11,-1.11,-0.70,-1.08,-1.19,-1.20,-1.20
238.26,-0.08,1.10,-0.08,1.10,-1.11,-0.69,-1.09,-1.18,-1.18,-1.18
240.64,-0.06,1.10,-0.06,1.09,-1.10,-0.68,-1.09,-1.16,-1.17,-1.16
243.05,-0.05,1.07,-0.05,1.08,-1.10,-0.67,-1.10,-1.15,-1.15,-1.12
245.48,-0.03,1.07,-0.01,1.09,-1.08,-0.67,-1.10,-1.11,-1.09,-1.10
247.93,0.02,1.08,0.03,1.09,-1.07,-0.66,-1.10,-1.04,-1.04,-1.06
250.41,0.08,1.13,0.04,1.08,-1.04,-0.65,-1.10,-0.96,-1.01,-1.05
252.92,0.01,1.02,0.02,1.03,-1.01,-0.64,-1.10,-1.00,-1.00,-1.01
255.45,-0.04,0.95,-0.02,0.97,-0.98,-0.64,-1.09,-1.02,-1.00,-0.99
258.00,-0.05,0.91,-0.05,0.92,-0.95,-0.63,-1.09,-1.00,-1.00,-0.96
260.58,-0.04,0.91,-0.05,0.89,-0.92,-0.62,-1.08,-0.96,-0.96,-0.95
263.19,-0.04,0.87,-0.04,0.88,-0.88,-0.61,-1.07,-0.92,-0.92,-0.91
265.82,-0.04,0.85,-0.04,0.85,-0.84,-0.60,-1.05,-0.88,-0.88,-0.89
268.48,-0.04,0.83,-0.04,0.82,-0.81,-0.59,-1.04,-0.85,-0.85,-0.87
271.16,-0.05,0.78,-0.05,0.79,-0.78,-0.58,-1.02,-0.83,-0.83,-0.83
273.87,-0.05,0.77,-0.05,0.76,-0.76,-0.57,-1.00,-0.81,-0.81,-0.81
276.61,-0.05,0.73,-0.05,0.73,-0.74,-0.56,-0.98,-0.79,-0.79,-0.78
279.38,-0.05,0.70,-0.05,0.70,-0.72,-0.56,-0.96,-0.77,-0.77,-0.75
282.17,-0.05,0.67,-0.05,0.67,-0.69,-0.55,-0.94,-0.74,-0.74,-0.72
284.99,-0.04,0.65,-0.01,0.68,-0.66,-0.54,-0.92,-0.69,-0.67,-0.69
287.84,0.00,0.67,-0.00,0.66,-0.62,-0.53,-0.89,-0.62,-0.63,-0.67
290.72,0.04,0.67,-0.02,0.62,-0.59,-0.52,-0.87,-0.54,-0.60,-0.63
293.63,-0.09,0.52,-0.05,0.55,-0.55,-0.51,-0.84,-0.63,-0.59,-0.60
296.57,-0.10,0.47,-0.08,0.49,-0.51,-0.50,-0.81,-0.60,-0.59,-0.57
299.53,-0.09,0.45,-0.10,0.44,-0.47,-0.49,-0.79,-0.56,-0.57,-0.54
302.53,-0.08,0.44,-0.08,0.43,-0.44,-0.48,-0.76,-0.51,-0.51,-0.52
305.55,-0.07,0.40,-0.08,0.40,-0.41,-0.47,-0.73,-0.48,-0.49,-0.47
308.61,-0.07,0.39,-0.08,0.38,-0.40,-0.46,-0.70,-0.47,-0.48,-0.46
311.69,-0.09,0.34,-0.05,0.37,-0.40,-0.45,-0.67,-0.49,-0.45,-0.43
314.81,0.00,0.40,-0.01,0.39,-0.40,-0.44,-0.65,-0.40,-0.42,-0.40
317.96,0.05,0.43,0.03,0.41,-0.40,-0.43,-0.62,-0.35,-0.37,-0.38
321.14,0.06,0.43,0.07,0.44,-0.40,-0.42,-0.59,-0.34,-0.33,-0.37
324.35,0.06,0.42,0.08,0.43,-0.38,-0.41,-0.56,-0.32,-0.31,-0.36
327.59,0.08,0.42,0.05,0.39,-0.37,-0.40,-0.53,-0.28,-0.31,-0.34
330.87,0.02,0.35,0.02,0.35,-0.34,-0.39,-0.51,-0.32,-0.32,-0.33
334.18,-0.04,0.27,-0.02,0.29,-0.32,-0.38,-0.48,-0.35,-0.33,-0.31
337.52,-0.05,0.25,-0.05,0.25,-0.28,-0.37,-0.45,-0.33,-0.33,-0.30
340.90,-0.05,0.23,-0.05,0.23,-0.26,-0.36,-0.42,-0.30,-0.31,-0.28
344.30,-0.05,0.23,-0.05,0.23,-0.23,-0.35,-0.40,-0.28,-0.28,-0.27
347.75,-0.05,0.23,-0.05,0.22,-0.22,-0.34,-0.37,-0.27,-0.27,-0.28
351.23,-0.05,0.22,-0.05,0.22,-0.22,-0.33,-0.34,-0.26,-0.27,-0.27
354.74,-0.05,0.22,-0.05,0.22,-0.22,-0.32,-0.32,-0.27,-0.27,-0.27
358.28,-0.05,0.21,-0.05,0.21,-0.22,-0.31,-0.29,-0.27,-0.27,-0.26
361.87,-0.04,0.22,-0.04,0.22,-0.22,-0.30,-0.26,-0.26,-0.26,-0.26
365.49,-0.03,0.22,-0.02,0.23,-0.22,-0.29,-0.24,-0.25,-0.24,-0.25
369.14,-0.02,0.24,-0.02,0.24,-0.21,-0.29,-0.21,-0.23,-0.23,-0.26
372.83,-0.02,0.24,-0.04,0.22,-0.21,-0.28,-0.19,-0.23,-0.25,-0.26
376.56,-0.08,0.19,-0.07,0.20,-0.20,-0.27,-0.16,-0.28,-0.27,-0.26
380.33,-0.10,0.16,-0.09,0.17,-0.20,-0.26,-0.14,-0.30,-0.29,-0.26
384.13,-0.10,0.16,-0.10,0.16,-0.19,-0.25,-0.12,-0.29,-0.29,-0.26
387.97,-0.09,0.18,-0.09,0.17,-0.18,-0.24,-0.09,-0.26,-0.27,-0.27
391.85,-0.09,0.19,-0.09,0.18,-0.17,-0.23,-0.07,-0.26,-0.25,-0.28
395.77,-0.09,0.18,-0.10,0.17,-0.16,-0.22,-0.05,-0.25,-0.26,-0.27
399.73,-0.13,0.15,-0.13,0.15,-0.15,-0.21,-0.02,-0.28,-0.28,-0.28
403.72,-0.18,0.10,-0.16,0.12,-0.13,-0.20,-0.00,-0.31,-0.30,-0.28
407.76,-0.19,0.10,-0.18,0.11,-0.11,-0.19,0.02,-0.30,-0.29,-0.29
411.84,-0.20,0.09,-0.20,0.10,-0.07,-0.18,0.04,-0.27,-0.27,-0.29
415.96,-0.20,0.09,-0.23,0.07,-0.03,-0.17,0.06,-0.23,-0.26,-0.29
420.12,-0.29,0.00,-0.29,0.00,0.01,-0.16,0.08,-0.27,-0.28,-0.29
424.32,-0.38,-0.09,-0.37,-0.08,0.06,-0.15,0.10,-0.32,-0.31,-0.29
428.56,-0.45,-0.16,-0.43,-0.14,0.11,-0.14,0.12,-0.34,-0.32,-0.28
432.85,-0.46,-0.18,-0.45,-0.17,0.16,-0.13,0.14,-0.30,-0.29,-0.27
437.18,-0.44,-0.17,-0.47,-0.21,0.21,-0.13,0.16,-0.23,-0.25,-0.26
441.55,-0.47,-0.24,-0.49,-0.25,0.26,-0.12,0.18,-0.21,-0.23,-0.23
445.96,-0.53,-0.33,-0.49,-0.30,0.30,-0.11,0.19,-0.23,-0.20,-0.20
450.42,-0.51,-0.34,-0.50,-0.34,0.33,-0.10,0.21,-0.18,-0.17,-0.17
454.93,-0.45,-0.33,-0.48,-0.36,0.36,-0.09,0.23,-0.09,-0.12,-0.12
459.48,-0.46,-0.39,-0.44,-0.38,0.39,-0.08,0.24,-0.07,-0.05,-0.07
464.07,-0.43,-0.41,-0.42,-0.40,0.42,-0.07,0.26,-0.01,-0.00,-0.02
468.71,-0.38,-0.42,-0.40,-0.44,0.43,-0.06,0.27,0.05,0.03,0.04
473.40,-0.37,-0.45,-0.37,-0.46,0.44,-0.05,0.28,0.07,0.07,0.08
