frequency,raw,error,smoothed,error_smoothed,equalization,parametric_eq,equalized_raw,equalized_smoothed,target
20,-9.06,-12.34,-9.11,-12.40,6.00,2.76,-3.06,-3.11,3.28
21,-8.67,-11.95,-8.67,-11.95,6.00,3.17,-2.67,-2.67,3.28
22,-8.27,-11.55,-8.25,-11.53,6.00,3.62,-2.27,-2.25,3.28
23,-7.88,-11.15,-7.83,-11.11,6.00,4.11,-1.88,-1.83,3.28
24,-7.49,-10.76,-7.44,-10.71,6.00,4.62,-1.49,-1.44,3.28
25,-7.09,-10.36,-7.06,-10.33,6.00,5.15,-1.09,-1.06,3.27
26,-6.72,-9.99,-6.69,-9.96,6.00,5.68,-0.72,-0.69,3.27
27,-6.36,-9.62,-6.34,-9.61,6.00,6.19,-0.36,-0.34,3.27
28,-6.02,-9.28,-6.01,-9.27,6.00,6.64,-0.02,-0.01,3.26
29,-5.68,-8.93,-5.69,-8.95,6.00,7.00,0.32,0.31,3.26
30,-5.36,-8.61,-5.39,-8.64,6.00,7.26,0.64,0.61,3.25
31,-5.06,-8.30,-5.10,-8.35,6.00,7.39,0.94,0.90,3.25
32,-4.80,-8.04,-4.83,-8.07,6.00,7.39,1.20,1.17,3.24
33,-4.56,-7.79,-4.58,-7.81,6.00,7.29,1.44,1.42,3.23
34,-4.32,-7.54,-4.34,-7.57,6.00,7.10,1.68,1.66,3.23
35,-4.11,-7.33,-4.12,-7.34,6.00,6.86,1.89,1.88,3.22
36,-3.91,-7.12,-3.91,-7.12,6.00,6.58,2.09,2.09,3.21
37,-3.72,-6.92,-3.71,-6.91,6.00,6.29,2.28,2.29,3.20
38,-3.54,-6.73,-3.53,-6.72,6.00,6.00,2.46,2.47,3.19
39,-3.36,-6.54,-3.35,-6.54,6.00,5.72,2.64,2.65,3.18
40,-3.20,-6.37,-3.18,-6.36,6.00,5.46,2.80,2.82,3.17
41,-3.04,-6.20,-3.02,-6.19,5.97,5.23,2.93,2.94,3.16
42,-2.89,-6.04,-2.87,-6.02,5.90,5.02,3.01,3.03,3.15
43,-2.74,-5.87,-2.72,-5.86,5.79,4.83,3.05,3.07,3.14
44,-2.59,-5.71,-2.57,-5.70,5.67,4.66,3.08,3.09,3.12
45,-2.44,-5.55,-2.43,-5.54,5.53,4.52,3.09,3.10,3.11
46,-2.30,-5.39,-2.29,-5.39,5.39,4.39,3.09,3.09,3.09
47,-2.16,-5.23,-2.16,-5.23,5.23,4.29,3.08,3.08,3.08
48,-2.03,-5.09,-2.02,-5.08,5.08,4.20,3.06,3.06,3.06
49,-1.90,-4.94,-1.89,-4.94,4.94,4.12,3.04,3.04,3.04
50,-1.77,-4.79,-1.77,-4.79,4.79,4.06,3.02,3.02,3.02
51,-1.64,-4.64,-1.64,-4.65,4.65,4.01,3.01,3.00,3.00
52,-1.52,-4.50,-1.52,-4.50,4.50,3.96,2.99,2.98,2.98
53,-1.40,-4.36,-1.40,-4.36,4.36,3.92,2.97,2.96,2.96
54,-1.29,-4.23,-1.29,-4.22,4.22,3.88,2.94,2.94,2.94
55,-1.18,-4.09,-1.17,-4.09,4.09,3.85,2.91,2.91,2.91
56,-1.07,-3.96,-1.06,-3.95,3.95,3.81,2.88,2.89,2.89
57,-0.96,-3.82,-0.95,-3.82,3.82,3.78,2.86,2.86,2.86
58,-0.86,-3.70,-0.85,-3.69,3.69,3.74,2.83,2.84,2.84
59,-0.76,-3.57,-0.74,-3.55,3.55,3.69,2.80,2.81,2.81
60,-0.66,-3.44,-0.64,-3.43,3.43,3.64,2.77,2.78,2.78
61,-0.56,-3.31,-0.55,-3.30,3.30,3.58,2.74,2.75,2.75
62,-0.46,-3.18,-0.45,-3.18,3.18,3.51,2.72,2.72,2.72
63,-0.36,-3.05,-0.36,-3.06,3.06,3.44,2.70,2.69,2.69
64,-0.25,-2.91,-0.28,-2.94,2.94,3.36,2.70,2.66,2.66
65,-0.17,-2.80,-0.20,-2.83,2.83,3.27,2.66,2.63,2.63
66,-0.10,-2.69,-0.13,-2.72,2.72,3.17,2.63,2.60,2.60
67,-0.04,-2.60,-0.06,-2.62,2.62,3.07,2.58,2.56,2.56
68,0.01,-2.52,0.01,-2.52,2.52,2.97,2.53,2.53,2.53
69,0.06,-2.43,0.07,-2.42,2.42,2.86,2.48,2.49,2.49
70,0.11,-2.34,0.14,-2.32,2.32,2.75,2.44,2.46,2.46
71,0.16,-2.26,0.19,-2.23,2.23,2.64,2.39,2.42,2.42
72,0.23,-2.15,0.25,-2.13,2.13,2.52,2.37,2.38,2.38
73,0.29,-2.05,0.30,-2.04,2.04,2.41,2.33,2.35,2.35
74,0.36,-1.94,0.36,-1.95,1.95,2.29,2.31,2.31,2.31
75,0.42,-1.85,0.41,-1.86,1.86,2.17,2.28,2.27,2.27
76,0.47,-1.76,0.46,-1.77,1.77,2.06,2.24,2.23,2.23
77,0.51,-1.68,0.51,-1.68,1.68,1.95,2.19,2.19,2.19
78,0.55,-1.60,0.56,-1.58,1.58,1.83,2.14,2.15,2.15
79,0.60,-1.51,0.61,-1.50,1.50,1.72,2.10,2.11,2.11
80,0.66,-1.41,0.66,-1.41,1.41,1.61,2.07,2.07,2.07
81,0.71,-1.31,0.71,-1.32,1.32,1.51,2.03,2.03,2.03
82,0.76,-1.22,0.75,-1.23,1.23,1.40,2.00,1.99,1.99
83,0.80,-1.14,0.80,-1.15,1.15,1.30,1.95,1.95,1.95
84,0.84,-1.06,0.84,-1.07,1.07,1.19,1.91,1.90,1.90
85,0.88,-0.98,0.88,-0.99,0.99,1.09,1.87,1.86,1.86
86,0.91,-0.91,0.91,-0.91,0.91,1.00,1.82,1.82,1.82
87,0.94,-0.84,0.95,-0.83,0.83,0.90,1.77,1.78,1.78
88,0.97,-0.76,0.99,-0.75,0.75,0.80,1.73,1.74,1.74
89,1.02,-0.67,1.02,-0.68,0.68,0.71,1.70,1.70,1.70
90,1.05,-0.60,1.05,-0.61,0.61,0.62,1.66,1.66,1.65
91,1.07,-0.54,1.08,-0.53,0.53,0.53,1.61,1.61,1.61
92,1.11,-0.46,1.11,-0.46,0.46,0.44,1.58,1.57,1.57
93,1.13,-0.40,1.14,-0.40,0.40,0.36,1.53,1.53,1.53
94,1.16,-0.33,1.16,-0.33,0.33,0.27,1.49,1.49,1.49
95,1.18,-0.27,1.19,-0.27,0.27,0.19,1.45,1.45,1.45
96,1.21,-0.20,1.21,-0.20,0.20,0.11,1.42,1.41,1.41
97,1.24,-0.13,1.23,-0.14,0.14,0.03,1.38,1.37,1.37
98,1.26,-0.07,1.25,-0.08,0.08,-0.05,1.34,1.33,1.33
99,1.28,-0.01,1.27,-0.02,0.02,-0.13,1.30,1.29,1.29
100,1.29,0.04,1.29,0.04,-0.04,-0.21,1.25,1.24,1.25
101,1.29,0.08,1.31,0.10,-0.10,-0.28,1.19,1.20,1.22
102,1.30,0.13,1.32,0.16,-0.16,-0.35,1.14,1.16,1.18
104,1.32,0.22,1.34,0.22,-0.22,-0.49,1.10,1.12,1.10
105,1.34,0.28,1.36,0.28,-0.28,-0.56,1.07,1.08,1.07
106,1.36,0.33,1.38,0.33,-0.33,-0.63,1.03,1.04,1.03
107,1.39,0.40,1.39,0.39,-0.39,-0.69,1.00,1.00,1.00
108,1.41,0.45,1.41,0.45,-0.45,-0.76,0.97,0.97,0.96
109,1.44,0.52,1.43,0.50,-0.50,-0.82,0.94,0.93,0.93
110,1.46,0.57,1.44,0.55,-0.55,-0.87,0.91,0.89,0.89
111,1.47,0.61,1.46,0.60,-0.60,-0.93,0.87,0.86,0.86
112,1.48,0.66,1.47,0.65,-0.65,-0.98,0.83,0.82,0.83
113,1.49,0.70,1.49,0.70,-0.70,-1.03,0.79,0.79,0.79
114,1.50,0.74,1.50,0.75,-0.75,-1.08,0.75,0.75,0.76
115,1.51,0.78,1.52,0.80,-0.80,-1.13,0.71,0.72,0.73
117,1.51,0.84,1.53,0.85,-0.85,-1.22,0.67,0.68,0.67
118,1.51,0.87,1.54,0.89,-0.89,-1.25,0.62,0.65,0.64
119,1.53,0.92,1.56,0.94,-0.94,-1.29,0.59,0.61,0.61
120,1.55,0.97,1.57,0.99,-0.99,-1.32,0.56,0.58,0.58
121,1.56,1.01,1.58,1.03,-1.03,-1.36,0.53,0.55,0.56
123,1.61,1.11,1.59,1.08,-1.08,-1.41,0.53,0.51,0.50
124,1.64,1.17,1.60,1.12,-1.12,-1.43,0.52,0.48,0.48
125,1.64,1.19,1.61,1.16,-1.16,-1.46,0.48,0.45,0.45
126,1.65,1.23,1.62,1.20,-1.20,-1.48,0.45,0.42,0.43
128,1.64,1.27,1.63,1.24,-1.24,-1.51,0.40,0.39,0.38
129,1.62,1.27,1.63,1.27,-1.27,-1.52,0.35,0.36,0.35
130,1.60,1.27,1.64,1.31,-1.31,-1.53,0.30,0.33,0.33
131,1.61,1.30,1.64,1.34,-1.34,-1.54,0.27,0.30,0.31
133,1.61,1.35,1.64,1.37,-1.37,-1.55,0.24,0.27,0.26
134,1.63,1.39,1.64,1.40,-1.40,-1.55,0.23,0.24,0.24
135,1.65,1.43,1.65,1.43,-1.43,-1.55,0.22,0.21,0.22
137,1.67,1.49,1.65,1.46,-1.46,-1.55,0.21,0.19,0.18
138,1.67,1.51,1.65,1.49,-1.49,-1.55,0.18,0.16,0.16
140,1.66,1.54,1.65,1.52,-1.52,-1.54,0.14,0.14,0.13
141,1.65,1.54,1.66,1.55,-1.55,-1.54,0.11,0.11,0.11
142,1.64,1.55,1.66,1.58,-1.58,-1.53,0.07,0.08,0.09
144,1.64,1.59,1.66,1.60,-1.60,-1.52,0.04,0.06,0.06
145,1.64,1.60,1.67,1.63,-1.63,-1.51,0.01,0.04,0.04
147,1.66,1.65,1.67,1.66,-1.66,-1.50,0.01,0.01,0.01
148,1.67,1.68,1.67,1.68,-1.68,-1.49,-0.01,-0.01,-0.01
150,1.70,1.74,1.68,1.71,-1.71,-1.47,-0.00,-0.03,-0.04
151,1.70,1.75,1.68,1.73,-1.73,-1.47,-0.03,-0.05,-0.05
153,1.70,1.78,1.68,1.75,-1.75,-1.45,-0.05,-0.07,-0.08
154,1.69,1.78,1.68,1.77,-1.77,-1.44,-0.08,-0.09,-0.09
156,1.66,1.78,1.68,1.79,-1.79,-1.43,-0.13,-0.11,-0.12
157,1.66,1.79,1.68,1.81,-1.81,-1.42,-0.15,-0.13,-0.13
159,1.64,1.79,1.68,1.83,-1.83,-1.40,-0.18,-0.15,-0.15
160,1.64,1.81,1.67,1.84,-1.84,-1.40,-0.20,-0.17,-0.16
162,1.65,1.84,1.67,1.85,-1.85,-1.38,-0.20,-0.19,-0.18
164,1.67,1.88,1.66,1.86,-1.86,-1.37,-0.19,-0.20,-0.21
165,1.66,1.88,1.65,1.87,-1.87,-1.37,-0.21,-0.22,-0.22
167,1.67,1.91,1.64,1.88,-1.88,-1.36,-0.20,-0.24,-0.24
169,1.65,1.91,1.63,1.88,-1.88,-1.35,-0.23,-0.25,-0.25
170,1.64,1.91,1.61,1.88,-1.88,-1.35,-0.24,-0.27,-0.26
172,1.60,1.88,1.60,1.88,-1.88,-1.34,-0.27,-0.28,-0.28
174,1.57,1.87,1.58,1.87,-1.87,-1.34,-0.30,-0.30,-0.30
175,1.56,1.87,1.56,1.87,-1.87,-1.33,-0.30,-0.31,-0.31
177,1.52,1.84,1.54,1.86,-1.86,-1.33,-0.34,-0.32,-0.32
179,1.49,1.83,1.52,1.85,-1.85,-1.33,-0.36,-0.34,-0.34
181,1.46,1.81,1.50,1.84,-1.84,-1.33,-0.38,-0.35,-0.35
183,1.44,1.81,1.47,1.83,-1.83,-1.34,-0.39,-0.36,-0.36
184,1.43,1.80,1.45,1.82,-1.82,-1.34,-0.39,-0.37,-0.37
186,1.43,1.82,1.43,1.81,-1.81,-1.34,-0.38,-0.38,-0.38
188,1.43,1.83,1.40,1.80,-1.80,-1.35,-0.37,-0.40,-0.40
190,1.41,1.82,1.38,1.79,-1.79,-1.35,-0.37,-0.41,-0.41
192,1.38,1.80,1.35,1.77,-1.77,-1.36,-0.39,-0.42,-0.42
194,1.35,1.78,1.33,1.76,-1.76,-1.37,-0.40,-0.43,-0.43
196,1.31,1.75,1.30,1.74,-1.74,-1.38,-0.43,-0.44,-0.44
198,1.26,1.71,1.27,1.72,-1.72,-1.39,-0.46,-0.45,-0.45
200,1.23,1.69,1.25,1.70,-1.70,-1.40,-0.47,-0.46,-0.46
202,1.19,1.66,1.22,1.69,-1.69,-1.41,-0.49,-0.47,-0.47
204,1.17,1.65,1.20,1.67,-1.67,-1.43,-0.50,-0.47,-0.47
206,1.15,1.64,1.17,1.65,-1.65,-1.44,-0.50,-0.48,-0.48
208,1.12,1.61,1.15,1.64,-1.64,-1.45,-0.51,-0.49,-0.49
210,1.11,1.61,1.12,1.62,-1.62,-1.46,-0.51,-0.50,-0.50
212,1.09,1.60,1.10,1.61,-1.61,-1.47,-0.51,-0.51,-0.50
214,1.08,1.59,1.08,1.59,-1.59,-1.49,-0.51,-0.51,-0.51
216,1.07,1.59,1.05,1.57,-1.57,-1.50,-0.50,-0.52,-0.52
218,1.06,1.59,1.03,1.56,-1.56,-1.51,-0.49,-0.53,-0.52
221,1.03,1.57,1.00,1.54,-1.54,-1.53,-0.50,-0.53,-0.53
223,1.00,1.54,0.98,1.51,-1.51,-1.54,-0.51,-0.54,-0.54
225,0.96,1.51,0.95,1.49,-1.49,-1.55,-0.53,-0.54,-0.54
227,0.92,1.47,0.92,1.47,-1.47,-1.55,-0.55,-0.55,-0.55
229,0.88,1.44,0.89,1.44,-1.44,-1.56,-0.56,-0.56,-0.56
232,0.83,1.40,0.86,1.42,-1.42,-1.57,-0.59,-0.56,-0.56
234,0.80,1.37,0.83,1.40,-1.40,-1.57,-0.59,-0.57,-0.57
236,0.79,1.36,0.80,1.38,-1.38,-1.58,-0.58,-0.57,-0.57
239,0.76,1.34,0.78,1.36,-1.36,-1.58,-0.59,-0.58,-0.58
241,0.74,1.32,0.76,1.34,-1.34,-1.58,-0.59,-0.58,-0.58
244,0.72,1.31,0.73,1.32,-1.32,-1.58,-0.60,-0.59,-0.59
246,0.71,1.30,0.71,1.31,-1.31,-1.58,-0.59,-0.59,-0.59
248,0.70,1.30,0.70,1.29,-1.29,-1.57,-0.59,-0.59,-0.59
251,0.68,1.28,0.68,1.28,-1.28,-1.56,-0.60,-0.60,-0.60
253,0.67,1.28,0.66,1.27,-1.27,-1.55,-0.59,-0.60,-0.60
256,0.65,1.26,0.65,1.25,-1.25,-1.54,-0.60,-0.61,-0.61
259,0.63,1.24,0.63,1.24,-1.24,-1.52,-0.61,-0.61,-0.61
261,0.62,1.24,0.61,1.23,-1.23,-1.51,-0.60,-0.61,-0.61
264,0.60,1.22,0.59,1.21,-1.21,-1.49,-0.61,-0.62,-0.62
266,0.58,1.20,0.58,1.20,-1.20,-1.48,-0.61,-0.62,-0.62
269,0.56,1.19,0.56,1.18,-1.18,-1.45,-0.62,-0.62,-0.62
272,0.53,1.16,0.54,1.16,-1.16,-1.43,-0.63,-0.63,-0.63
274,0.51,1.14,0.51,1.14,-1.14,-1.41,-0.63,-0.63,-0.63
277,0.49,1.13,0.49,1.13,-1.13,-1.38,-0.63,-0.63,-0.63
280,0.46,1.10,0.47,1.11,-1.11,-1.35,-0.65,-0.64,-0.64
283,0.44,1.08,0.45,1.09,-1.09,-1.32,-0.65,-0.64,-0.64
286,0.42,1.06,0.43,1.07,-1.07,-1.29,-0.65,-0.64,-0.64
288,0.41,1.06,0.41,1.06,-1.06,-1.27,-0.64,-0.64,-0.64
291,0.39,1.04,0.39,1.04,-1.04,-1.24,-0.65,-0.65,-0.65
294,0.37,1.02,0.37,1.02,-1.02,-1.20,-0.65,-0.65,-0.65
297,0.35,1.00,0.36,1.01,-1.01,-1.17,-0.65,-0.65,-0.65
300,0.34,1.00,0.34,0.99,-0.99,-1.14,-0.65,-0.65,-0.65
303,0.32,0.98,0.32,0.97,-0.97,-1.11,-0.65,-0.65,-0.65
306,0.30,0.96,0.30,0.96,-0.96,-1.07,-0.66,-0.66,-0.66
309,0.28,0.94,0.29,0.94,-0.94,-1.04,-0.66,-0.66,-0.66
312,0.26,0.92,0.27,0.93,-0.93,-1.01,-0.66,-0.66,-0.66
316,0.24,0.91,0.25,0.91,-0.91,-0.97,-0.67,-0.66,-0.66
319,0.22,0.89,0.23,0.89,-0.89,-0.94,-0.67,-0.66,-0.66
322,0.21,0.88,0.21,0.87,-0.87,-0.91,-0.66,-0.67,-0.67
325,0.19,0.86,0.19,0.85,-0.85,-0.88,-0.66,-0.67,-0.67
328,0.17,0.84,0.16,0.83,-0.83,-0.85,-0.66,-0.67,-0.67
332,0.14,0.81,0.14,0.81,-0.81,-0.81,-0.67,-0.67,-0.67
335,0.12,0.79,0.11,0.78,-0.78,-0.79,-0.66,-0.67,-0.67
338,0.09,0.77,0.09,0.76,-0.76,-0.76,-0.67,-0.67,-0.67
342,0.06,0.74,0.06,0.73,-0.73,-0.72,-0.67,-0.67,-0.67
345,0.03,0.71,0.03,0.70,-0.70,-0.70,-0.67,-0.67,-0.67
349,-0.01,0.67,-0.00,0.68,-0.68,-0.67,-0.68,-0.68,-0.68
352,-0.04,0.64,-0.03,0.65,-0.65,-0.64,-0.68,-0.68,-0.68
356,-0.07,0.61,-0.06,0.62,-0.62,-0.61,-0.68,-0.68,-0.68
359,-0.10,0.58,-0.09,0.59,-0.59,-0.59,-0.69,-0.68,-0.68
363,-0.13,0.55,-0.12,0.56,-0.56,-0.56,-0.69,-0.68,-0.68
366,-0.15,0.54,-0.15,0.53,-0.53,-0.54,-0.68,-0.68,-0.68
370,-0.18,0.51,-0.18,0.51,-0.51,-0.51,-0.68,-0.68,-0.68
374,-0.21,0.48,-0.20,0.48,-0.48,-0.48,-0.69,-0.69,-0.69
377,-0.23,0.46,-0.23,0.46,-0.46,-0.47,-0.68,-0.69,-0.69
381,-0.26,0.43,-0.26,0.43,-0.43,-0.44,-0.69,-0.69,-0.69
385,-0.28,0.41,-0.28,0.41,-0.41,-0.42,-0.68,-0.69,-0.69
389,-0.31,0.38,-0.31,0.38,-0.38,-0.39,-0.69,-0.69,-0.69
393,-0.33,0.37,-0.33,0.36,-0.36,-0.37,-0.69,-0.69,-0.69
397,-0.36,0.34,-0.36,0.34,-0.34,-0.35,-0.69,-0.69,-0.69
401,-0.38,0.32,-0.38,0.31,-0.31,-0.33,-0.69,-0.70,-0.69
405,-0.40,0.30,-0.41,0.29,-0.29,-0.30,-0.69,-0.70,-0.70
409,-0.43,0.27,-0.43,0.27,-0.27,-0.28,-0.70,-0.70,-0.70
413,-0.45,0.25,-0.45,0.25,-0.25,-0.26,-0.69,-0.70,-0.70
417,-0.47,0.23,-0.47,0.23,-0.23,-0.24,-0.69,-0.70,-0.70
421,-0.48,0.22,-0.49,0.21,-0.21,-0.22,-0.69,-0.70,-0.70
425,-0.50,0.20,-0.51,0.19,-0.19,-0.21,-0.69,-0.70,-0.70
430,-0.51,0.19,-0.52,0.18,-0.18,-0.18,-0.69,-0.70,-0.70
434,-0.53,0.17,-0.52,0.17,-0.17,-0.17,-0.70,-0.70,-0.70
438,-0.54,0.16,-0.53,0.17,-0.17,-0.15,-0.70,-0.69,-0.69
443,-0.55,0.14,-0.53,0.17,-0.17,-0.13,-0.71,-0.69,-0.69
447,-0.57,0.12,-0.52,0.17,-0.17,-0.11,-0.74,-0.69,-0.69
451,-0.56,0.13,-0.50,0.18,-0.18,-0.09,-0.74,-0.68,-0.68
456,-0.52,0.16,-0.49,0.19,-0.19,-0.07,-0.71,-0.68,-0.68
460,-0.49,0.18,-0.46,0.21,-0.21,-0.06,-0.69,-0.67,-0.67
465,-0.43,0.24,-0.44,0.23,-0.23,-0.04,-0.65,-0.66,-0.66
470,-0.38,0.28,-0.41,0.24,-0.24,-0.02,-0.62,-0.66,-0.66
474,-0.36,0.29,-0.38,0.26,-0.26,-0.00,-0.62,-0.65,-0.65
479,-0.33,0.31,-0.36,0.28,-0.28,0.01,-0.61,-0.64,-0.64
484,-0.32,0.31,-0.33,0.30,-0.30,0.03,-0.61,-0.63,-0.63
489,-0.33,0.29,-0.31,0.31,-0.31,0.05,-0.63,-0.61,-0.61
494,-0.32,0.28,-0.29,0.31,-0.31,0.07,-0.63,-0.60,-0.60
499,-0.31,0.28,-0.28,0.31,-0.31,0.09,-0.61,-0.59,-0.59
504,-0.31,0.26,-0.28,0.29,-0.29,0.10,-0.60,-0.57,-0.57
509,-0.30,0.26,-0.29,0.27,-0.27,0.12,-0.56,-0.56,-0.56
514,-0.28,0.26,-0.31,0.23,-0.23,0.14,-0.51,-0.54,-0.54
519,-0.28,0.24,-0.34,0.18,-0.18,0.16,-0.46,-0.52,-0.52
524,-0.31,0.19,-0.38,0.12,-0.12,0.17,-0.42,-0.50,-0.50
529,-0.35,0.13,-0.44,0.04,-0.04,0.19,-0.39,-0.48,-0.48
535,-0.43,0.03,-0.50,-0.04,0.04,0.21,-0.38,-0.46,-0.46
540,-0.51,-0.07,-0.57,-0.14,0.14,0.23,-0.37,-0.44,-0.44
545,-0.62,-0.20,-0.65,-0.24,0.24,0.25,-0.38,-0.41,-0.41
551,-0.75,-0.36,-0.73,-0.34,0.34,0.27,-0.41,-0.39,-0.39
556,-0.85,-0.48,-0.80,-0.44,0.44,0.28,-0.41,-0.36,-0.36
562,-0.95,-0.61,-0.87,-0.53,0.53,0.30,-0.42,-0.34,-0.34
568,-1.02,-0.71,-0.93,-0.61,0.61,0.33,-0.40,-0.31,-0.31
573,-1.05,-0.76,-0.97,-0.69,0.69,0.34,-0.36,-0.28,-0.28
579,-1.07,-0.81,-1.00,-0.75,0.75,0.36,-0.32,-0.26,-0.26
585,-1.06,-0.83,-1.02,-0.80,0.80,0.39,-0.26,-0.23,-0.23
591,-1.05,-0.85,-1.03,-0.83,0.83,0.41,-0.22,-0.20,-0.20
596,-1.04,-0.87,-1.02,-0.85,0.85,0.42,-0.19,-0.17,-0.17
602,-1.01,-0.87,-0.99,-0.86,0.86,0.45,-0.15,-0.14,-0.14
608,-0.97,-0.86,-0.96,-0.86,0.86,0.47,-0.11,-0.11,-0.11
615,-0.92,-0.84,-0.93,-0.85,0.85,0.49,-0.07,-0.07,-0.07
621,-0.87,-0.83,-0.88,-0.84,0.84,0.52,-0.03,-0.04,-0.04
627,-0.81,-0.80,-0.84,-0.83,0.83,0.54,0.02,-0.01,-0.01
633,-0.77,-0.79,-0.80,-0.82,0.82,0.56,0.05,0.03,0.03
639,-0.73,-0.79,-0.75,-0.81,0.81,0.59,0.09,0.06,0.06
646,-0.69,-0.78,-0.72,-0.81,0.81,0.61,0.12,0.09,0.09
652,-0.66,-0.79,-0.68,-0.81,0.81,0.64,0.16,0.13,0.13
659,-0.63,-0.79,-0.66,-0.82,0.82,0.67,0.19,0.16,0.16
665,-0.62,-0.82,-0.63,-0.83,0.83,0.69,0.22,0.20,0.20
672,-0.61,-0.84,-0.62,-0.85,0.85,0.72,0.25,0.24,0.24
679,-0.59,-0.86,-0.60,-0.87,0.87,0.75,0.29,0.27,0.27
686,-0.59,-0.90,-0.59,-0.90,0.90,0.78,0.31,0.31,0.31
692,-0.58,-0.93,-0.57,-0.92,0.92,0.81,0.35,0.35,0.35
699,-0.59,-0.97,-0.56,-0.95,0.95,0.84,0.36,0.39,0.39
706,-0.58,-1.00,-0.55,-0.97,0.97,0.87,0.40,0.42,0.42
713,-0.57,-1.03,-0.54,-1.00,1.00,0.90,0.43,0.46,0.46
721,-0.56,-1.06,-0.52,-1.02,1.02,0.94,0.46,0.50,0.50
728,-0.54,-1.07,-0.50,-1.04,1.04,0.97,0.51,0.54,0.54
735,-0.51,-1.08,-0.49,-1.06,1.06,1.00,0.56,0.58,0.58
742,-0.47,-1.08,-0.47,-1.08,1.08,1.04,0.62,0.61,0.61
750,-0.44,-1.09,-0.45,-1.11,1.11,1.08,0.67,0.65,0.65
757,-0.41,-1.10,-0.44,-1.13,1.13,1.11,0.72,0.69,0.69
765,-0.40,-1.12,-0.43,-1.15,1.15,1.15,0.76,0.73,0.73
773,-0.39,-1.15,-0.42,-1.18,1.18,1.19,0.80,0.76,0.76
780,-0.39,-1.19,-0.41,-1.21,1.21,1.22,0.83,0.80,0.80
788,-0.39,-1.22,-0.41,-1.25,1.25,1.26,0.86,0.83,0.83
796,-0.40,-1.27,-0.41,-1.28,1.28,1.30,0.88,0.87,0.87
804,-0.42,-1.32,-0.41,-1.31,1.31,1.34,0.90,0.90,0.90
812,-0.42,-1.35,-0.41,-1.35,1.35,1.38,0.93,0.94,0.94
820,-0.44,-1.41,-0.41,-1.38,1.38,1.42,0.95,0.97,0.97
828,-0.45,-1.45,-0.41,-1.42,1.42,1.45,0.97,1.00,1.00
837,-0.45,-1.48,-0.41,-1.45,1.45,1.50,1.00,1.04,1.04
845,-0.44,-1.50,-0.41,-1.47,1.47,1.53,1.04,1.07,1.07
853,-0.42,-1.51,-0.40,-1.50,1.50,1.57,1.08,1.10,1.10
862,-0.39,-1.52,-0.39,-1.52,1.52,1.61,1.13,1.13,1.13
871,-0.36,-1.51,-0.38,-1.54,1.54,1.64,1.18,1.16,1.16
879,-0.35,-1.53,-0.36,-1.55,1.55,1.68,1.20,1.19,1.19
888,-0.33,-1.54,-0.35,-1.56,1.56,1.71,1.24,1.21,1.22
897,-0.32,-1.56,-0.33,-1.57,1.57,1.74,1.25,1.24,1.24
906,-0.30,-1.57,-0.31,-1.58,1.58,1.77,1.28,1.27,1.27
915,-0.29,-1.59,-0.28,-1.58,1.58,1.80,1.29,1.30,1.30
924,-0.27,-1.59,-0.26,-1.58,1.58,1.83,1.31,1.33,1.33
933,-0.25,-1.60,-0.23,-1.58,1.58,1.85,1.33,1.35,1.35
943,-0.23,-1.61,-0.20,-1.58,1.58,1.87,1.35,1.38,1.38
952,-0.20,-1.60,-0.17,-1.57,1.57,1.89,1.38,1.41,1.41
962,-0.17,-1.60,-0.14,-1.57,1.57,1.91,1.40,1.43,1.43
971,-0.12,-1.58,-0.11,-1.57,1.57,1.92,1.45,1.46,1.46
981,-0.07,-1.55,-0.08,-1.56,1.56,1.93,1.50,1.49,1.49
991,-0.03,-1.54,-0.05,-1.56,1.56,1.94,1.54,1.51,1.51
1001,0.00,-1.54,-0.03,-1.57,1.57,1.95,1.57,1.54,1.54
1011,0.04,-1.52,-0.01,-1.57,1.57,1.95,1.62,1.57,1.57
1021,0.04,-1.55,0.01,-1.58,1.58,1.95,1.63,1.59,1.59
1031,0.05,-1.57,0.02,-1.60,1.60,1.94,1.65,1.62,1.62
1041,0.04,-1.61,0.03,-1.62,1.62,1.93,1.66,1.65,1.65
1052,0.04,-1.63,0.04,-1.64,1.64,1.92,1.68,1.68,1.68
1062,0.03,-1.67,0.05,-1.66,1.66,1.91,1.69,1.71,1.71
1073,0.04,-1.69,0.05,-1.68,1.68,1.90,1.72,1.73,1.73
1084,0.04,-1.72,0.06,-1.70,1.70,1.88,1.74,1.76,1.76
1094,0.06,-1.73,0.07,-1.72,1.72,1.86,1.78,1.79,1.79
1105,0.07,-1.75,0.09,-1.74,1.74,1.84,1.81,1.82,1.82
1116,0.09,-1.76,0.10,-1.75,1.75,1.82,1.84,1.85,1.85
1128,0.11,-1.77,0.13,-1.76,1.76,1.79,1.87,1.88,1.88
1139,0.14,-1.77,0.16,-1.76,1.76,1.76,1.90,1.91,1.91
1150,0.17,-1.77,0.19,-1.75,1.75,1.74,1.93,1.94,1.94
1162,0.21,-1.76,0.23,-1.75,1.75,1.71,1.96,1.98,1.98
1173,0.25,-1.75,0.27,-1.73,1.73,1.68,1.99,2.01,2.01
1185,0.31,-1.73,0.32,-1.72,1.72,1.65,2.03,2.04,2.04
1197,0.37,-1.70,0.37,-1.70,1.70,1.62,2.07,2.07,2.07
1209,0.44,-1.66,0.43,-1.68,1.68,1.59,2.12,2.10,2.10
1221,0.49,-1.64,0.48,-1.65,1.65,1.56,2.15,2.14,2.14
1233,0.55,-1.62,0.54,-1.63,1.63,1.53,2.18,2.17,2.17
1246,0.60,-1.60,0.60,-1.61,1.61,1.49,2.21,2.20,2.20
1258,0.65,-1.58,0.65,-1.59,1.59,1.47,2.24,2.24,2.24
1271,0.71,-1.56,0.71,-1.57,1.57,1.43,2.28,2.27,2.27
1283,0.77,-1.53,0.76,-1.55,1.55,1.41,2.32,2.31,2.31
1296,0.81,-1.53,0.81,-1.53,1.53,1.38,2.35,2.34,2.34
1309,0.86,-1.51,0.86,-1.52,1.52,1.35,2.38,2.38,2.38
1322,0.91,-1.50,0.90,-1.51,1.51,1.32,2.42,2.41,2.41
1335,0.95,-1.50,0.95,-1.50,1.50,1.30,2.45,2.45,2.45
1349,0.99,-1.49,0.99,-1.49,1.49,1.27,2.48,2.49,2.49
1362,1.02,-1.50,1.04,-1.49,1.49,1.25,2.51,2.52,2.52
1376,1.06,-1.50,1.08,-1.48,1.48,1.22,2.54,2.56,2.56
1390,1.10,-1.49,1.12,-1.48,1.48,1.20,2.58,2.60,2.60
1404,1.14,-1.49,1.16,-1.48,1.48,1.18,2.62,2.63,2.63
1418,1.18,-1.49,1.19,-1.48,1.48,1.16,2.66,2.67,2.67
1432,1.24,-1.47,1.23,-1.48,1.48,1.14,2.73,2.71,2.71
1446,1.28,-1.47,1.26,-1.49,1.49,1.12,2.77,2.75,2.75
1461,1.31,-1.48,1.29,-1.50,1.50,1.10,2.81,2.79,2.79
1475,1.35,-1.48,1.32,-1.51,1.51,1.08,2.86,2.83,2.83
1490,1.37,-1.50,1.35,-1.52,1.52,1.07,2.89,2.87,2.87
1505,1.38,-1.53,1.38,-1.54,1.54,1.05,2.92,2.91,2.91
1520,1.40,-1.55,1.40,-1.55,1.55,1.04,2.95,2.95,2.95
1535,1.42,-1.57,1.43,-1.57,1.57,1.03,2.99,2.99,2.99
1550,1.44,-1.59,1.46,-1.58,1.58,1.01,3.02,3.04,3.04
1566,1.47,-1.61,1.49,-1.59,1.59,1.00,3.07,3.08,3.08
1582,1.50,-1.62,1.52,-1.60,1.60,0.99,3.11,3.12,3.12
1597,1.54,-1.62,1.55,-1.61,1.61,0.98,3.16,3.16,3.17
1613,1.58,-1.63,1.59,-1.62,1.62,0.97,3.20,3.21,3.21
1629,1.62,-1.63,1.63,-1.62,1.62,0.96,3.24,3.25,3.25
1646,1.67,-1.62,1.68,-1.62,1.62,0.95,3.29,3.30,3.30
1662,1.73,-1.61,1.73,-1.61,1.61,0.94,3.35,3.34,3.34
1679,1.80,-1.59,1.78,-1.60,1.60,0.93,3.41,3.39,3.39
1696,1.87,-1.56,1.85,-1.59,1.59,0.93,3.46,3.43,3.43
1713,1.93,-1.55,1.91,-1.57,1.57,0.92,3.50,3.48,3.48
1730,2.00,-1.53,1.99,-1.54,1.54,0.91,3.54,3.53,3.53
1747,2.07,-1.50,2.07,-1.50,1.50,0.90,3.58,3.58,3.58
1764,2.15,-1.47,2.16,-1.46,1.46,0.90,3.61,3.63,3.63
1782,2.23,-1.45,2.27,-1.41,1.41,0.89,3.64,3.68,3.68
1800,2.34,-1.39,2.38,-1.35,1.35,0.88,3.69,3.73,3.73
1818,2.45,-1.33,2.50,-1.28,1.28,0.87,3.74,3.78,3.78
1836,2.57,-1.27,2.63,-1.21,1.21,0.86,3.78,3.84,3.84
1854,2.72,-1.17,2.77,-1.13,1.13,0.85,3.85,3.89,3.90
1873,2.90,-1.05,2.91,-1.05,1.05,0.84,3.95,3.96,3.96
