frequency,raw,smoothed,error,error_smoothed,equalization,parametric_eq,fixed_band_eq,equalized_raw,equalized_smoothed,target
20.00,3.30,3.30,-5.53,-5.53,5.53,5.07,1.86,8.83,8.83,8.83
20.20,3.35,3.34,-5.48,-5.49,5.49,5.05,1.92,8.83,8.83,8.83
20.40,3.39,3.39,-5.44,-5.44,5.44,5.03,1.97,8.83,8.83,8.83
20.61,3.43,3.43,-5.40,-5.40,5.40,5.00,2.03,8.82,8.83,8.83
20.81,3.48,3.47,-5.35,-5.35,5.35,4.98,2.09,8.83,8.83,8.83
21.02,3.52,3.52,-5.31,-5.31,5.31,4.96,2.15,8.82,8.83,8.83
21.23,3.57,3.56,-5.26,-5.26,5.26,4.94,2.22,8.83,8.83,8.83
21.44,3.61,3.61,-5.22,-5.22,5.22,4.92,2.28,8.83,8.83,8.83
21.66,3.65,3.65,-5.18,-5.18,5.18,4.90,2.35,8.82,8.83,8.82
21.87,3.69,3.69,-5.14,-5.14,5.14,4.87,2.42,8.82,8.82,8.82
22.09,3.73,3.73,-5.10,-5.10,5.10,4.85,2.49,8.82,8.82,8.82
22.31,3.77,3.77,-5.05,-5.05,5.05,4.83,2.56,8.82,8.82,8.82
22.54,3.81,3.81,-5.01,-5.01,5.01,4.81,2.64,8.82,8.82,8.82
22.76,3.85,3.85,-4.97,-4.97,4.97,4.79,2.71,8.82,8.82,8.82
22.99,3.89,3.89,-4.93,-4.93,4.93,4.76,2.79,8.81,8.82,8.82
23.22,3.93,3.93,-4.89,-4.89,4.89,4.74,2.87,8.81,8.82,8.82
23.45,3.98,3.97,-4.84,-4.84,4.84,4.72,2.96,8.82,8.82,8.82
23.69,4.02,4.02,-4.80,-4.80,4.80,4.69,3.04,8.82,8.82,8.82
23.92,4.06,4.06,-4.76,-4.76,4.77,4.67,3.13,8.82,8.82,8.81
24.16,4.09,4.09,-4.73,-4.72,4.73,4.65,3.21,8.82,8.82,8.81
24.40,4.13,4.12,-4.69,-4.69,4.69,4.63,3.30,8.82,8.81,8.81
24.65,4.15,4.15,-4.66,-4.66,4.65,4.60,3.39,8.80,8.81,8.81
24.89,4.19,4.19,-4.62,-4.62,4.62,4.58,3.48,8.81,8.80,8.81
25.14,4.22,4.22,-4.59,-4.59,4.58,4.55,3.57,8.80,8.80,8.81
25.39,4.26,4.26,-4.55,-4.55,4.55,4.53,3.66,8.81,8.80,8.81
25.65,4.29,4.29,-4.52,-4.52,4.52,4.51,3.76,8.80,8.81,8.81
25.91,4.33,4.32,-4.48,-4.48,4.49,4.48,3.85,8.81,8.81,8.80
26.16,4.36,4.35,-4.45,-4.45,4.46,4.46,3.94,8.82,8.82,8.80
26.43,4.38,4.38,-4.42,-4.42,4.44,4.44,4.03,8.81,8.81,8.80
26.69,4.40,4.39,-4.40,-4.41,4.41,4.41,4.12,8.81,8.80,8.80
26.96,4.41,4.41,-4.39,-4.39,4.38,4.39,4.21,8.79,8.79,8.80
27.23,4.43,4.43,-4.37,-4.37,4.35,4.36,4.30,8.78,8.78,8.80
27.50,4.46,4.46,-4.34,-4.34,4.32,4.34,4.38,8.77,8.77,8.79
27.77,4.50,4.50,-4.29,-4.29,4.28,4.31,4.46,8.77,8.78,8.79
28.05,4.55,4.55,-4.24,-4.24,4.24,4.29,4.54,8.78,8.79,8.79
28.33,4.61,4.60,-4.18,-4.19,4.19,4.27,4.62,8.80,8.80,8.79
28.62,4.65,4.65,-4.14,-4.14,4.15,4.24,4.69,8.80,8.80,8.79
28.90,4.69,4.69,-4.10,-4.10,4.11,4.22,4.75,8.80,8.80,8.78
29.19,4.72,4.71,-4.06,-4.07,4.08,4.19,4.81,8.80,8.79,8.78
29.48,4.74,4.74,-4.04,-4.04,4.05,4.17,4.86,8.79,8.78,8.78
29.78,4.75,4.75,-4.03,-4.03,4.02,4.14,4.91,8.77,8.77,8.78
30.08,4.77,4.77,-4.01,-4.01,3.99,4.12,4.94,8.76,8.76,8.77
30.38,4.79,4.79,-3.98,-3.98,3.97,4.09,4.98,8.76,8.76,8.77
30.68,4.82,4.82,-3.95,-3.95,3.94,4.07,5.00,8.76,8.76,8.77
30.99,4.85,4.85,-3.92,-3.92,3.92,4.04,5.02,8.77,8.77,8.77
31.30,4.88,4.88,-3.89,-3.88,3.89,4.02,5.03,8.77,8.77,8.76
31.61,4.91,4.90,-3.85,-3.86,3.86,3.99,5.03,8.77,8.77,8.76
31.93,4.93,4.93,-3.83,-3.83,3.83,3.97,5.02,8.76,8.76,8.76
32.24,4.95,4.95,-3.81,-3.81,3.80,3.94,5.01,8.75,8.75,8.75
32.57,4.97,4.97,-3.78,-3.78,3.78,3.92,4.98,8.74,8.75,8.75
32.89,4.99,4.99,-3.76,-3.75,3.75,3.89,4.96,8.74,8.74,8.75
33.22,5.02,5.01,-3.72,-3.73,3.73,3.87,4.92,8.75,8.74,8.74
33.55,5.04,5.04,-3.70,-3.70,3.70,3.84,4.88,8.74,8.74,8.74
33.89,5.06,5.06,-3.68,-3.68,3.68,3.81,4.83,8.73,8.73,8.73
34.23,5.08,5.08,-3.65,-3.65,3.65,3.79,4.78,8.73,8.73,8.73
34.57,5.10,5.10,-3.63,-3.63,3.62,3.76,4.72,8.72,8.72,8.72
34.92,5.13,5.12,-3.59,-3.60,3.59,3.74,4.66,8.72,8.71,8.72
35.27,5.15,5.15,-3.57,-3.57,3.56,3.71,4.59,8.71,8.71,8.72
35.62,5.18,5.18,-3.53,-3.53,3.53,3.69,4.53,8.71,8.71,8.71
35.97,5.21,5.20,-3.50,-3.50,3.51,3.66,4.45,8.71,8.71,8.71
36.33,5.23,5.23,-3.47,-3.47,3.48,3.63,4.38,8.71,8.71,8.70
36.70,5.25,5.25,-3.45,-3.45,3.45,3.61,4.31,8.70,8.70,8.69
37.06,5.27,5.26,-3.42,-3.43,3.43,3.58,4.23,8.69,8.69,8.69
37.43,5.28,5.28,-3.41,-3.40,3.40,3.56,4.15,8.68,8.68,8.68
37.81,5.30,5.30,-3.38,-3.38,3.37,3.53,4.08,8.67,8.67,8.68
38.19,5.32,5.32,-3.35,-3.35,3.35,3.50,4.00,8.67,8.67,8.67
38.57,5.34,5.34,-3.33,-3.33,3.33,3.48,3.92,8.66,8.66,8.66
38.95,5.36,5.36,-3.30,-3.30,3.30,3.45,3.85,8.66,8.66,8.66
39.34,5.38,5.38,-3.27,-3.27,3.28,3.42,3.77,8.66,8.66,8.65
39.74,5.40,5.39,-3.25,-3.25,3.25,3.40,3.70,8.65,8.65,8.64
40.14,5.41,5.41,-3.23,-3.23,3.23,3.37,3.63,8.64,8.64,8.64
40.54,5.42,5.42,-3.21,-3.21,3.21,3.34,3.56,8.62,8.63,8.63
40.94,5.43,5.43,-3.19,-3.19,3.19,3.32,3.49,8.61,8.61,8.62
41.35,5.45,5.44,-3.16,-3.17,3.16,3.29,3.42,8.61,8.61,8.61
41.76,5.46,5.46,-3.15,-3.14,3.14,3.26,3.36,8.60,8.60,8.60
42.18,5.48,5.48,-3.12,-3.12,3.12,3.23,3.30,8.59,8.60,8.59
42.60,5.50,5.49,-3.09,-3.09,3.09,3.21,3.24,8.59,8.58,8.58
43.03,5.51,5.51,-3.07,-3.07,3.07,3.18,3.18,8.57,8.58,8.57
43.46,5.52,5.52,-3.05,-3.04,3.04,3.15,3.12,8.56,8.56,8.56
43.90,5.54,5.53,-3.02,-3.02,3.02,3.12,3.07,8.56,8.55,8.55
44.33,5.55,5.55,-3.00,-2.99,3.00,3.10,3.02,8.54,8.54,8.54
44.78,5.57,5.57,-2.96,-2.97,2.97,3.07,2.97,8.54,8.54,8.53
45.23,5.58,5.58,-2.94,-2.94,2.95,3.04,2.93,8.52,8.52,8.52
45.68,5.59,5.58,-2.92,-2.92,2.92,3.01,2.88,8.51,8.51,8.51
46.13,5.59,5.59,-2.91,-2.90,2.90,2.98,2.84,8.48,8.49,8.50
46.60,5.61,5.61,-2.88,-2.87,2.87,2.95,2.80,8.48,8.48,8.48
47.06,5.63,5.63,-2.84,-2.84,2.84,2.92,2.77,8.47,8.47,8.47
47.53,5.65,5.64,-2.81,-2.81,2.81,2.89,2.73,8.46,8.46,8.46
48.01,5.66,5.66,-2.78,-2.78,2.79,2.86,2.70,8.44,8.44,8.44
48.49,5.67,5.67,-2.76,-2.76,2.76,2.83,2.67,8.43,8.43,8.43
48.97,5.68,5.68,-2.73,-2.73,2.74,2.80,2.64,8.41,8.42,8.41
49.46,5.70,5.69,-2.70,-2.70,2.71,2.77,2.61,8.41,8.40,8.40
49.96,5.70,5.69,-2.68,-2.69,2.69,2.74,2.59,8.38,8.38,8.38
50.46,5.69,5.69,-2.67,-2.67,2.66,2.71,2.56,8.35,8.35,8.36
50.96,5.69,5.69,-2.66,-2.65,2.64,2.68,2.54,8.32,8.33,8.34
51.47,5.71,5.71,-2.62,-2.62,2.61,2.65,2.52,8.32,8.32,8.33
51.99,5.74,5.73,-2.57,-2.58,2.58,2.62,2.50,8.32,8.31,8.31
52.51,5.75,5.74,-2.54,-2.55,2.56,2.58,2.48,8.30,8.30,8.29
53.03,5.75,5.75,-2.52,-2.52,2.53,2.55,2.46,8.28,8.28,8.27
53.56,5.74,5.74,-2.51,-2.50,2.50,2.52,2.44,8.24,8.25,8.25
54.10,5.75,5.75,-2.48,-2.48,2.48,2.49,2.43,8.22,8.23,8.23
54.64,5.76,5.75,-2.45,-2.45,2.45,2.45,2.41,8.20,8.20,8.20
55.18,5.77,5.75,-2.42,-2.43,2.42,2.42,2.39,8.19,8.17,8.18
55.74,5.75,5.76,-2.41,-2.40,2.39,2.38,2.37,8.14,8.15,8.16
56.29,5.76,5.77,-2.38,-2.37,2.36,2.35,2.35,8.12,8.13,8.13
56.86,5.80,5.79,-2.31,-2.32,2.33,2.31,2.33,8.13,8.11,8.11
57.42,5.81,5.80,-2.28,-2.28,2.29,2.28,2.31,8.10,8.09,8.08
58.00,5.81,5.80,-2.25,-2.25,2.26,2.24,2.29,8.06,8.06,8.06
58.58,5.80,5.80,-2.23,-2.23,2.22,2.20,2.27,8.02,8.02,8.03
59.16,5.80,5.81,-2.21,-2.19,2.18,2.17,2.24,7.98,8.00,8.00
59.76,5.84,5.83,-2.14,-2.14,2.15,2.13,2.22,7.99,7.98,7.97
60.35,5.86,5.84,-2.09,-2.10,2.11,2.09,2.19,7.97,7.96,7.94
60.96,5.85,5.84,-2.07,-2.07,2.08,2.05,2.16,7.93,7.92,7.91
61.57,5.83,5.84,-2.05,-2.05,2.04,2.01,2.13,7.87,7.88,7.88
62.18,5.83,5.83,-2.02,-2.02,2.00,1.97,2.09,7.83,7.84,7.85
62.80,5.85,5.84,-1.97,-1.97,1.96,1.93,2.05,7.81,7.80,7.82
63.43,5.86,5.86,-1.92,-1.93,1.92,1.89,2.01,7.78,7.78,7.78
64.07,5.87,5.87,-1.88,-1.88,1.88,1.85,1.97,7.75,7.75,7.75
64.71,5.88,5.88,-1.83,-1.83,1.84,1.80,1.93,7.72,7.72,7.71
65.35,5.89,5.88,-1.79,-1.79,1.79,1.76,1.88,7.68,7.68,7.67
66.01,5.89,5.89,-1.75,-1.75,1.75,1.72,1.83,7.63,7.64,7.64
66.67,5.90,5.90,-1.70,-1.70,1.70,1.67,1.78,7.60,7.60,7.60
67.33,5.90,5.90,-1.66,-1.66,1.66,1.63,1.73,7.55,7.56,7.56
68.01,5.91,5.90,-1.61,-1.61,1.61,1.58,1.67,7.52,7.51,7.52
68.69,5.91,5.91,-1.57,-1.57,1.56,1.53,1.61,7.47,7.47,7.47
69.37,5.91,5.91,-1.52,-1.52,1.52,1.48,1.55,7.42,7.43,7.43
70.07,5.92,5.91,-1.47,-1.47,1.47,1.44,1.49,7.39,7.38,7.39
70.77,5.92,5.92,-1.42,-1.42,1.42,1.39,1.43,7.34,7.34,7.34
71.48,5.93,5.93,-1.37,-1.37,1.37,1.34,1.37,7.30,7.30,7.29
72.19,5.93,5.93,-1.32,-1.32,1.33,1.29,1.30,7.25,7.25,7.25
72.91,5.93,5.92,-1.27,-1.27,1.28,1.24,1.24,7.20,7.20,7.20
73.64,5.92,5.92,-1.23,-1.23,1.23,1.19,1.17,7.14,7.15,7.15
74.38,5.92,5.92,-1.18,-1.18,1.18,1.13,1.10,7.09,7.10,7.10
75.12,5.92,5.92,-1.13,-1.13,1.13,1.08,1.03,7.04,7.05,7.05
75.87,5.93,5.92,-1.07,-1.07,1.07,1.03,0.96,7.00,7.00,7.00
76.63,5.93,5.92,-1.02,-1.02,1.02,0.97,0.90,6.95,6.94,6.94
77.40,5.92,5.92,-0.97,-0.96,0.96,0.92,0.82,6.88,6.89,6.89
78.17,5.93,5.93,-0.91,-0.91,0.91,0.86,0.75,6.83,6.83,6.83
78.95,5.94,5.93,-0.84,-0.84,0.85,0.80,0.68,6.78,6.78,6.78
79.74,5.94,5.94,-0.78,-0.78,0.79,0.75,0.61,6.73,6.73,6.72
80.54,5.94,5.93,-0.72,-0.73,0.73,0.69,0.54,6.67,6.66,6.66
81.35,5.93,5.93,-0.68,-0.67,0.67,0.63,0.47,6.60,6.60,6.60
82.16,5.93,5.93,-0.62,-0.62,0.61,0.57,0.40,6.54,6.54,6.54
82.98,5.93,5.93,-0.55,-0.55,0.55,0.51,0.33,6.48,6.47,6.48
83.81,5.93,5.93,-0.49,-0.49,0.49,0.45,0.25,6.41,6.42,6.42
84.65,5.94,5.93,-0.42,-0.42,0.43,0.39,0.18,6.36,6.36,6.36
85.50,5.94,5.94,-0.36,-0.36,0.36,0.33,0.11,6.30,6.30,6.29
86.35,5.94,5.93,-0.29,-0.29,0.30,0.26,0.04,6.23,6.23,6.23
87.22,5.93,5.93,-0.24,-0.23,0.23,0.20,-0.04,6.16,6.16,6.16
88.09,5.93,5.93,-0.17,-0.17,0.17,0.14,-0.11,6.09,6.09,6.10
88.97,5.93,5.93,-0.10,-0.10,0.10,0.07,-0.18,6.03,6.03,6.03
89.86,5.93,5.93,-0.04,-0.04,0.04,0.01,-0.25,5.96,5.96,5.96
90.76,5.93,5.93,0.03,0.03,-0.03,-0.05,-0.33,5.90,5.90,5.90
91.66,5.93,5.92,0.10,0.10,-0.09,-0.12,-0.40,5.83,5.83,5.83
92.58,5.92,5.92,0.16,0.16,-0.16,-0.19,-0.47,5.76,5.76,5.76
93.51,5.92,5.91,0.23,0.23,-0.23,-0.25,-0.55,5.69,5.69,5.69
94.44,5.91,5.91,0.29,0.29,-0.30,-0.32,-0.62,5.61,5.61,5.62
95.39,5.91,5.91,0.36,0.36,-0.36,-0.38,-0.69,5.54,5.55,5.55
96.34,5.91,5.91,0.43,0.43,-0.43,-0.45,-0.77,5.48,5.47,5.48
97.30,5.91,5.90,0.50,0.50,-0.50,-0.52,-0.84,5.41,5.40,5.40
98.28,5.90,5.90,0.57,0.57,-0.57,-0.58,-0.92,5.33,5.33,5.33
99.26,5.90,5.90,0.64,0.64,-0.64,-0.65,-0.99,5.26,5.26,5.26
100.25,5.90,5.89,0.71,0.70,-0.70,-0.72,-1.06,5.19,5.19,5.19
101.25,5.89,5.89,0.77,0.77,-0.77,-0.78,-1.14,5.11,5.11,5.11
102.27,5.88,5.88,0.84,0.84,-0.84,-0.85,-1.21,5.04,5.04,5.04
103.29,5.88,5.88,0.91,0.91,-0.91,-0.92,-1.28,4.97,4.97,4.97
104.32,5.88,5.87,0.98,0.98,-0.98,-0.98,-1.35,4.90,4.90,4.90
105.37,5.87,5.87,1.04,1.05,-1.05,-1.05,-1.42,4.82,4.82,4.82
106.42,5.87,5.87,1.12,1.12,-1.11,-1.12,-1.49,4.75,4.75,4.75
107.48,5.86,5.86,1.18,1.18,-1.18,-1.18,-1.56,4.67,4.68,4.68
108.56,5.86,5.85,1.25,1.25,-1.25,-1.25,-1.63,4.61,4.60,4.60
109.64,5.85,5.85,1.32,1.32,-1.32,-1.31,-1.69,4.53,4.53,4.53
110.74,5.85,5.84,1.39,1.39,-1.38,-1.38,-1.76,4.46,4.46,4.46
111.85,5.84,5.84,1.45,1.45,-1.45,-1.44,-1.82,4.39,4.39,4.39
112.97,5.83,5.83,1.51,1.51,-1.52,-1.51,-1.88,4.31,4.31,4.31
114.10,5.82,5.82,1.57,1.58,-1.58,-1.57,-1.94,4.24,4.24,4.24
115.24,5.82,5.81,1.65,1.64,-1.64,-1.64,-2.00,4.17,4.17,4.17
116.39,5.81,5.81,1.71,1.71,-1.71,-1.70,-2.05,4.10,4.10,4.10
117.55,5.81,5.80,1.78,1.77,-1.77,-1.76,-2.10,4.04,4.03,4.03
118.73,5.80,5.80,1.84,1.84,-1.83,-1.82,-2.15,3.96,3.96,3.96
119.92,5.79,5.79,1.90,1.90,-1.90,-1.88,-2.19,3.89,3.89,3.89
121.12,5.78,5.78,1.96,1.96,-1.96,-1.94,-2.24,3.82,3.82,3.82
122.33,5.77,5.77,2.01,2.02,-2.02,-2.00,-2.27,3.75,3.75,3.75
123.55,5.77,5.76,2.08,2.08,-2.08,-2.06,-2.31,3.69,3.69,3.69
124.79,5.76,5.76,2.14,2.14,-2.14,-2.12,-2.34,3.62,3.62,3.62
126.03,5.75,5.75,2.19,2.19,-2.19,-2.18,-2.37,3.55,3.56,3.55
127.29,5.74,5.74,2.25,2.25,-2.25,-2.23,-2.40,3.49,3.49,3.49
128.57,5.73,5.73,2.30,2.30,-2.30,-2.29,-2.42,3.42,3.42,3.42
129.85,5.72,5.72,2.36,2.36,-2.36,-2.34,-2.44,3.36,3.36,3.36
131.15,5.71,5.71,2.41,2.41,-2.41,-2.39,-2.46,3.30,3.30,3.30
132.46,5.70,5.70,2.46,2.46,-2.46,-2.44,-2.47,3.23,3.23,3.23
133.79,5.69,5.69,2.51,2.51,-2.51,-2.50,-2.48,3.17,3.17,3.17
135.12,5.68,5.68,2.56,2.56,-2.57,-2.55,-2.49,3.11,3.11,3.11
136.48,5.67,5.67,2.61,2.61,-2.61,-2.60,-2.50,3.05,3.05,3.05
137.84,5.66,5.66,2.66,2.66,-2.66,-2.64,-2.51,2.99,2.99,2.99
139.22,5.65,5.65,2.71,2.71,-2.71,-2.69,-2.51,2.94,2.94,2.94
140.61,5.64,5.64,2.76,2.76,-2.76,-2.73,-2.51,2.88,2.88,2.88
142.02,5.63,5.63,2.80,2.80,-2.80,-2.78,-2.51,2.83,2.83,2.82
143.44,5.62,5.61,2.85,2.84,-2.84,-2.82,-2.51,2.77,2.77,2.77
144.87,5.60,5.60,2.88,2.89,-2.88,-2.87,-2.51,2.71,2.72,2.72
146.32,5.59,5.59,2.92,2.92,-2.92,-2.91,-2.51,2.66,2.66,2.66
147.78,5.58,5.57,2.97,2.96,-2.96,-2.95,-2.51,2.61,2.61,2.61
149.26,5.56,5.56,3.00,3.00,-3.00,-2.98,-2.51,2.56,2.56,2.56
150.75,5.55,5.55,3.04,3.04,-3.04,-3.02,-2.51,2.51,2.51,2.51
152.26,5.54,5.53,3.07,3.07,-3.07,-3.06,-2.51,2.47,2.46,2.46
153.78,5.52,5.52,3.10,3.11,-3.10,-3.09,-2.51,2.41,2.42,2.42
155.32,5.51,5.51,3.14,3.14,-3.14,-3.13,-2.52,2.37,2.37,2.37
156.88,5.50,5.49,3.17,3.17,-3.17,-3.16,-2.52,2.33,2.32,2.32
158.44,5.48,5.48,3.20,3.20,-3.20,-3.19,-2.52,2.27,2.28,2.28
160.03,5.47,5.46,3.23,3.23,-3.23,-3.22,-2.53,2.23,2.23,2.24
161.63,5.45,5.45,3.26,3.26,-3.26,-3.25,-2.54,2.18,2.19,2.18
163.24,5.44,5.43,3.29,3.29,-3.29,-3.28,-2.55,2.15,2.15,2.14
164.88,5.42,5.42,3.31,3.32,-3.32,-3.30,-2.56,2.10,2.10,2.10
166.53,5.41,5.40,3.34,3.34,-3.34,-3.33,-2.57,2.07,2.06,2.06
168.19,5.39,5.39,3.36,3.36,-3.36,-3.35,-2.59,2.02,2.02,2.02
169.87,5.37,5.37,3.38,3.38,-3.38,-3.38,-2.60,1.98,1.99,1.99
171.57,5.35,5.35,3.40,3.40,-3.40,-3.40,-2.62,1.95,1.95,1.95
173.29,5.34,5.33,3.42,3.42,-3.42,-3.42,-2.64,1.92,1.91,1.92
175.02,5.32,5.32,3.44,3.44,-3.43,-3.44,-2.67,1.88,1.88,1.88
176.77,5.30,5.30,3.45,3.45,-3.45,-3.46,-2.69,1.85,1.85,1.85
178.54,5.28,5.28,3.46,3.46,-3.46,-3.47,-2.72,1.81,1.81,1.81
180.32,5.26,5.26,3.47,3.47,-3.48,-3.49,-2.75,1.78,1.78,1.78
182.13,5.24,5.24,3.49,3.49,-3.49,-3.50,-2.78,1.75,1.75,1.75
183.95,5.22,5.22,3.50,3.50,-3.50,-3.52,-2.82,1.72,1.72,1.72
185.79,5.20,5.20,3.50,3.50,-3.51,-3.53,-2.85,1.69,1.69,1.69
187.65,5.18,5.18,3.51,3.51,-3.51,-3.54,-2.89,1.66,1.66,1.66
189.52,5.16,5.16,3.52,3.52,-3.52,-3.55,-2.93,1.64,1.64,1.64
191.42,5.14,5.14,3.53,3.53,-3.52,-3.56,-2.97,1.61,1.61,1.61
193.33,5.12,5.11,3.53,3.53,-3.53,-3.57,-3.02,1.59,1.59,1.58
195.27,5.09,5.09,3.53,3.53,-3.53,-3.57,-3.06,1.56,1.56,1.56
197.22,5.07,5.07,3.53,3.53,-3.54,-3.58,-3.11,1.53,1.53,1.53
199.19,5.05,5.05,3.54,3.53,-3.54,-3.58,-3.16,1.51,1.51,1.51
201.18,5.03,5.03,3.54,3.54,-3.54,-3.59,-3.20,1.49,1.49,1.49
203.19,5.01,5.01,3.54,3.54,-3.54,-3.59,-3.25,1.47,1.47,1.47
205.23,4.99,4.99,3.54,3.54,-3.54,-3.59,-3.31,1.45,1.45,1.44
207.28,4.97,4.97,3.54,3.54,-3.54,-3.59,-3.36,1.43,1.43,1.42
209.35,4.95,4.95,3.54,3.54,-3.54,-3.59,-3.41,1.41,1.41,1.40
211.44,4.93,4.92,3.54,3.54,-3.54,-3.59,-3.46,1.39,1.38,1.38
213.56,4.90,4.90,3.53,3.54,-3.54,-3.59,-3.51,1.36,1.36,1.37
215.69,4.88,4.88,3.53,3.53,-3.53,-3.58,-3.56,1.34,1.35,1.35
217.85,4.87,4.86,3.54,3.53,-3.53,-3.58,-3.61,1.34,1.33,1.33
220.03,4.84,4.84,3.52,3.53,-3.53,-3.57,-3.66,1.31,1.32,1.31
222.23,4.82,4.82,3.52,3.52,-3.52,-3.56,-3.70,1.30,1.30,1.30
224.45,4.80,4.79,3.52,3.51,-3.51,-3.56,-3.74,1.28,1.28,1.28
226.70,4.77,4.77,3.50,3.51,-3.51,-3.55,-3.78,1.26,1.26,1.26
228.96,4.75,4.74,3.50,3.49,-3.50,-3.54,-3.82,1.25,1.25,1.25
231.25,4.72,4.72,3.48,3.49,-3.49,-3.53,-3.85,1.23,1.23,1.24
233.57,4.70,4.69,3.48,3.48,-3.47,-3.52,-3.88,1.22,1.22,1.22
235.90,4.67,4.67,3.47,3.47,-3.46,-3.50,-3.91,1.20,1.20,1.20
238.26,4.64,4.64,3.45,3.45,-3.45,-3.49,-3.93,1.19,1.19,1.18
240.64,4.61,4.61,3.43,3.44,-3.44,-3.48,-3.94,1.17,1.17,1.17
243.05,4.58,4.58,3.42,3.42,-3.42,-3.46,-3.95,1.15,1.16,1.16
245.48,4.56,4.55,3.41,3.41,-3.41,-3.44,-3.96,1.15,1.15,1.15
247.93,4.53,4.53,3.39,3.39,-3.39,-3.43,-3.96,1.13,1.14,1.14
250.41,4.51,4.50,3.38,3.38,-3.38,-3.41,-3.95,1.13,1.13,1.13
252.92,4.48,4.48,3.36,3.36,-3.36,-3.39,-3.94,1.11,1.11,1.12
255.45,4.46,4.45,3.35,3.35,-3.35,-3.37,-3.92,1.11,1.10,1.11
258.00,4.43,4.43,3.33,3.33,-3.34,-3.35,-3.90,1.09,1.09,1.10
260.58,4.41,4.41,3.32,3.32,-3.32,-3.33,-3.87,1.09,1.09,1.09
263.19,4.39,4.38,3.31,3.31,-3.30,-3.31,-3.83,1.08,1.08,1.08
265.82,4.36,4.36,3.29,3.29,-3.29,-3.28,-3.79,1.07,1.07,1.07
268.48,4.33,4.33,3.27,3.27,-3.27,-3.26,-3.75,1.06,1.06,1.06
271.16,4.30,4.30,3.25,3.25,-3.25,-3.24,-3.70,1.05,1.05,1.05
273.87,4.27,4.27,3.22,3.22,-3.23,-3.21,-3.65,1.04,1.04,1.04
276.61,4.24,4.24,3.20,3.20,-3.20,-3.19,-3.59,1.04,1.04,1.04
279.38,4.21,4.21,3.18,3.18,-3.18,-3.16,-3.54,1.03,1.03,1.03
282.17,4.18,4.18,3.16,3.15,-3.15,-3.13,-3.47,1.03,1.03,1.02
284.99,4.15,4.14,3.12,3.12,-3.12,-3.10,-3.41,1.03,1.02,1.02
287.84,4.11,4.11,3.08,3.09,-3.09,-3.07,-3.34,1.02,1.02,1.03
290.72,4.08,4.08,3.06,3.06,-3.06,-3.04,-3.27,1.02,1.02,1.02
293.63,4.05,4.05,3.03,3.03,-3.03,-3.01,-3.21,1.02,1.02,1.01
296.57,4.02,4.02,3.00,3.00,-3.00,-2.98,-3.13,1.02,1.02,1.02
299.53,3.99,3.99,2.96,2.97,-2.96,-2.95,-3.06,1.02,1.02,1.02
302.53,3.96,3.95,2.94,2.93,-2.93,-2.92,-2.99,1.02,1.02,1.02
305.55,3.92,3.92,2.89,2.90,-2.90,-2.89,-2.92,1.02,1.02,1.02
308.61,3.89,3.89,2.87,2.87,-2.87,-2.85,-2.85,1.02,1.02,1.02
311.69,3.86,3.85,2.83,2.83,-2.84,-2.82,-2.78,1.02,1.02,1.02
314.81,3.82,3.82,2.80,2.80,-2.80,-2.78,-2.71,1.02,1.02,1.02
317.96,3.79,3.79,2.76,2.77,-2.77,-2.75,-2.64,1.02,1.02,1.02
321.14,3.76,3.76,2.74,2.73,-2.73,-2.71,-2.57,1.02,1.02,1.02
324.35,3.73,3.72,2.70,2.70,-2.70,-2.67,-2.50,1.03,1.03,1.02
327.59,3.69,3.69,2.66,2.66,-2.66,-2.64,-2.43,1.02,1.03,1.03
330.87,3.66,3.65,2.63,2.62,-2.63,-2.60,-2.37,1.03,1.03,1.03
334.18,3.62,3.62,2.58,2.59,-2.59,-2.56,-2.30,1.03,1.03,1.03
337.52,3.58,3.58,2.55,2.55,-2.55,-2.52,-2.24,1.03,1.03,1.03
340.90,3.55,3.54,2.51,2.51,-2.51,-2.48,-2.18,1.04,1.04,1.04
344.30,3.51,3.51,2.47,2.47,-2.47,-2.44,-2.12,1.04,1.04,1.04
347.75,3.47,3.47,2.42,2.42,-2.42,-2.40,-2.06,1.04,1.05,1.05
351.23,3.43,3.43,2.38,2.38,-2.38,-2.36,-2.00,1.05,1.05,1.05
354.74,3.40,3.39,2.33,2.34,-2.34,-2.32,-1.95,1.06,1.06,1.06
358.28,3.36,3.36,2.30,2.29,-2.29,-2.27,-1.89,1.06,1.06,1.06
361.87,3.32,3.32,2.25,2.25,-2.25,-2.23,-1.84,1.06,1.07,1.07
365.49,3.28,3.28,2.20,2.21,-2.21,-2.19,-1.79,1.07,1.07,1.07
369.14,3.25,3.24,2.18,2.17,-2.17,-2.14,-1.74,1.08,1.08,1.07
372.83,3.21,3.21,2.12,2.12,-2.12,-2.10,-1.69,1.08,1.08,1.09
376.56,3.17,3.17,2.08,2.08,-2.08,-2.05,-1.65,1.09,1.09,1.09
380.33,3.13,3.13,2.03,2.04,-2.03,-2.01,-1.60,1.09,1.09,1.09
384.13,3.09,3.09,2.00,1.99,-1.99,-1.96,-1.56,1.10,1.10,1.09
387.97,3.05,3.05,1.95,1.94,-1.94,-1.92,-1.52,1.10,1.10,1.10
391.85,3.01,3.01,1.89,1.90,-1.90,-1.87,-1.47,1.11,1.11,1.12
395.77,2.97,2.97,1.85,1.85,-1.85,-1.82,-1.44,1.12,1.12,1.11
399.73,2.93,2.93,1.80,1.80,-1.80,-1.78,-1.40,1.12,1.12,1.12
403.72,2.89,2.89,1.76,1.76,-1.76,-1.73,-1.36,1.13,1.13,1.13
407.76,2.85,2.84,1.72,1.71,-1.71,-1.68,-1.32,1.14,1.13,1.13
411.84,2.80,2.80,1.66,1.66,-1.66,-1.63,-1.29,1.13,1.14,1.14
415.96,2.76,2.76,1.61,1.62,-1.62,-1.58,-1.25,1.14,1.14,1.15
420.12,2.72,2.72,1.57,1.57,-1.57,-1.53,-1.22,1.15,1.15,1.14
424.32,2.68,2.68,1.52,1.52,-1.52,-1.48,-1.19,1.15,1.15,1.15
428.56,2.64,2.64,1.48,1.48,-1.48,-1.43,-1.15,1.16,1.16,1.16
432.85,2.60,2.59,1.43,1.43,-1.43,-1.38,-1.12,1.17,1.17,1.17
437.18,2.55,2.55,1.38,1.38,-1.38,-1.33,-1.09,1.17,1.17,1.17
441.55,2.51,2.51,1.33,1.33,-1.33,-1.28,-1.06,1.18,1.18,1.18
445.96,2.47,2.47,1.28,1.28,-1.28,-1.23,-1.03,1.19,1.19,1.19
450.42,2.43,2.42,1.22,1.22,-1.22,-1.18,-1.00,1.20,1.20,1.20
454.93,2.38,2.38,1.16,1.17,-1.17,-1.13,-0.97,1.20,1.21,1.21
459.48,2.34,2.34,1.12,1.12,-1.12,-1.08,-0.94,1.22,1.22,1.22
464.07,2.30,2.29,1.08,1.07,-1.07,-1.03,-0.91,1.23,1.22,1.22
468.71,2.25,2.25,1.02,1.02,-1.02,-0.97,-0.88,1.23,1.23,1.23
473.40,2.21,2.20,0.97,0.97,-0.97,-0.92,-0.85,1.24,1.24,1.24
478.13,2.16,2.16,0.91,0.91,-0.91,-0.87,-0.82,1.24,1.25,1.25
482.91,2.12,2.12,0.86,0.86,-0.86,-0.82,-0.78,1.26,1.26,1.26
487.74,2.08,2.07,0.81,0.81,-0.81,-0.76,-0.75,1.27,1.26,1.27
492.62,2.03,2.03,0.75,0.76,-0.75,-0.71,-0.72,1.27,1.28,1.27
497.55,1.99,1.99,0.70,0.70,-0.70,-0.66,-0.69,1.29,1.29,1.28
502.52,1.95,1.94,0.65,0.65,-0.65,-0.60,-0.65,1.30,1.30,1.29
507.55,1.90,1.90,0.58,0.59,-0.59,-0.55,-0.62,1.30,1.31,1.31
512.62,1.86,1.86,0.54,0.54,-0.54,-0.50,-0.59,1.32,1.32,1.32
517.75,1.82,1.81,0.49,0.48,-0.49,-0.44,-0.55,1.33,1.33,1.33
522.93,1.77,1.77,0.43,0.43,-0.43,-0.39,-0.51,1.34,1.34,1.34
528.16,1.73,1.72,0.38,0.38,-0.38,-0.33,-0.48,1.35,1.35,1.35
533.44,1.68,1.68,0.32,0.32,-0.32,-0.28,-0.44,1.35,1.36,1.36
538.77,1.64,1.64,0.28,0.27,-0.27,-0.23,-0.40,1.37,1.37,1.36
544.16,1.60,1.59,0.22,0.22,-0.21,-0.17,-0.37,1.38,1.38,1.38
549.60,1.55,1.55,0.16,0.16,-0.16,-0.12,-0.33,1.39,1.39,1.39
555.10,1.51,1.51,0.10,0.10,-0.10,-0.06,-0.29,1.40,1.40,1.41
560.65,1.46,1.46,0.04,0.04,-0.05,-0.01,-0.25,1.41,1.41,1.42
