frequency,raw
20.00,-1.39
20.20,-1.38
20.40,-1.38
20.61,-1.37
20.81,-1.37
21.02,-1.36
21.23,-1.35
21.44,-1.33
21.66,-1.32
21.87,-1.31
22.09,-1.29
22.31,-1.28
22.54,-1.26
22.76,-1.25
22.99,-1.23
23.22,-1.21
23.45,-1.20
23.69,-1.18
23.92,-1.17
24.16,-1.14
24.40,-1.12
24.65,-1.09
24.89,-1.07
25.14,-1.05
25.39,-1.02
25.65,-0.99
25.91,-0.97
26.16,-0.94
26.43,-0.92
26.69,-0.90
26.96,-0.87
27.23,-0.85
27.50,-0.82
27.77,-0.80
28.05,-0.78
28.33,-0.75
28.62,-0.72
28.90,-0.70
29.19,-0.68
29.48,-0.66
29.78,-0.64
30.08,-0.62
30.38,-0.60
30.68,-0.59
30.99,-0.57
31.30,-0.56
31.61,-0.56
31.93,-0.55
32.24,-0.55
32.57,-0.54
32.89,-0.54
33.22,-0.54
33.55,-0.54
33.89,-0.54
34.23,-0.54
34.57,-0.54
34.92,-0.54
35.27,-0.54
35.62,-0.55
35.97,-0.55
36.33,-0.55
36.70,-0.56
37.06,-0.56
37.43,-0.57
37.81,-0.58
38.19,-0.59
38.57,-0.60
38.95,-0.61
39.34,-0.62
39.74,-0.64
40.14,-0.66
40.54,-0.67
40.94,-0.69
41.35,-0.70
41.76,-0.72
42.18,-0.74
42.60,-0.75
43.03,-0.77
43.46,-0.79
43.90,-0.81
44.33,-0.83
44.78,-0.85
45.23,-0.87
45.68,-0.89
46.13,-0.92
46.60,-0.95
47.06,-0.97
47.53,-1.00
48.01,-1.02
48.49,-1.04
48.97,-1.07
49.46,-1.09
49.96,-1.12
50.46,-1.14
50.96,-1.17
51.47,-1.19
51.99,-1.22
52.51,-1.24
53.03,-1.26
53.56,-1.28
54.10,-1.29
54.64,-1.32
55.18,-1.34
55.74,-1.35
56.29,-1.37
56.86,-1.38
57.42,-1.38
58.00,-1.39
58.58,-1.40
59.16,-1.40
59.76,-1.40
60.35,-1.40
60.96,-1.41
61.57,-1.41
62.18,-1.41
62.80,-1.41
63.43,-1.41
64.07,-1.40
64.71,-1.41
65.35,-1.43
66.01,-1.45
66.67,-1.48
67.33,-1.51
68.01,-1.54
68.69,-1.57
69.37,-1.61
70.07,-1.63
70.77,-1.66
71.48,-1.68
72.19,-1.70
72.91,-1.72
73.64,-1.73
74.38,-1.73
75.12,-1.73
75.87,-1.74
76.63,-1.75
77.40,-1.76
78.17,-1.75
78.95,-1.74
79.74,-1.72
80.54,-1.69
81.35,-1.67
82.16,-1.64
82.98,-1.61
83.81,-1.58
84.65,-1.54
85.50,-1.50
86.35,-1.46
87.22,-1.42
88.09,-1.36
88.97,-1.31
89.86,-1.26
90.76,-1.20
91.66,-1.14
92.58,-1.09
93.51,-1.02
94.44,-0.97
95.39,-0.91
96.34,-0.84
97.30,-0.77
98.28,-0.73
99.26,-0.68
100.25,-0.63
101.25,-0.59
102.27,-0.56
103.29,-0.52
104.32,-0.48
105.37,-0.44
106.42,-0.39
107.48,-0.34
108.56,-0.30
109.64,-0.25
110.74,-0.22
111.85,-0.20
112.97,-0.17
114.10,-0.16
115.24,-0.15
116.39,-0.14
117.55,-0.14
118.73,-0.14
119.92,-0.12
121.12,-0.11
122.33,-0.09
123.55,-0.07
124.79,-0.07
126.03,-0.07
127.29,-0.09
128.57,-0.11
129.85,-0.15
131.15,-0.15
132.46,-0.15
133.79,-0.13
135.12,-0.11
136.48,-0.10
137.84,-0.09
139.22,-0.10
140.61,-0.11
142.02,-0.12
143.44,-0.12
144.87,-0.12
146.32,-0.11
147.78,-0.08
149.26,-0.07
150.75,-0.05
152.26,-0.05
153.78,-0.06
155.32,-0.07
156.88,-0.09
158.44,-0.10
160.03,-0.09
161.63,-0.08
163.24,-0.07
164.88,-0.06
166.53,-0.05
168.19,-0.07
169.87,-0.09
171.57,-0.12
173.29,-0.16
175.02,-0.20
176.77,-0.25
178.54,-0.31
180.32,-0.38
182.13,-0.43
183.95,-0.48
185.79,-0.52
187.65,-0.56
189.52,-0.62
191.42,-0.68
193.33,-0.74
195.27,-0.81
197.22,-0.88
199.19,-0.95
201.18,-1.01
203.19,-1.06
205.23,-1.10
207.28,-1.14
209.35,-1.15
211.44,-1.15
213.56,-1.14
215.69,-1.11
217.85,-1.04
220.03,-0.96
222.23,-0.87
224.45,-0.77
226.70,-0.64
228.96,-0.51
231.25,-0.37
233.57,-0.23
235.90,-0.09
238.26,0.03
240.64,0.13
243.05,0.20
245.48,0.26
247.93,0.30
250.41,0.32
252.92,0.32
255.45,0.31
258.00,0.29
260.58,0.26
263.19,0.24
265.82,0.20
268.48,0.17
271.16,0.12
273.87,0.08
276.61,0.04
279.38,0.00
282.17,-0.05
284.99,-0.09
287.84,-0.14
290.72,-0.18
293.63,-0.22
296.57,-0.26
299.53,-0.31
302.53,-0.35
305.55,-0.40
308.61,-0.45
311.69,-0.50
314.81,-0.55
317.96,-0.60
321.14,-0.66
324.35,-0.71
327.59,-0.76
330.87,-0.81
334.18,-0.87
337.52,-0.93
340.90,-0.99
344.30,-1.05
347.75,-1.12
351.23,-1.18
354.74,-1.20
358.28,-1.19
361.87,-1.14
365.49,-1.10
369.14,-1.03
372.83,-0.98
376.56,-0.91
380.33,-0.83
384.13,-0.76
387.97,-0.68
391.85,-0.60
395.77,-0.51
399.73,-0.42
403.72,-0.33
407.76,-0.24
411.84,-0.14
415.96,-0.04
420.12,0.06
424.32,0.16
428.56,0.27
432.85,0.37
437.18,0.49
441.55,0.62
445.96,0.72
450.42,0.73
454.93,0.74
459.48,0.77
464.07,0.80
468.71,0.85
473.40,0.88
478.13,0.90
482.91,0.92
487.74,0.92
492.62,0.93
497.55,0.94
502.52,0.95
507.55,0.96
512.62,0.98
517.75,1.01
522.93,1.04
528.16,1.07
533.44,1.08
538.77,1.11
544.16,1.12
549.60,1.13
555.10,1.15
560.65,1.17
566.25,1.18
571.92,1.20
577.64,1.22
583.41,1.23
589.25,1.25
595.14,1.27
601.09,1.28
607.10,1.30
613.17,1.32
619.30,1.34
625.50,1.36
631.75,1.38
638.07,1.40
644.45,1.42
650.89,1.43
657.40,1.45
663.98,1.45
670.62,1.46
677.32,1.46
684.10,1.47
690.94,1.47
697.85,1.45
704.83,1.45
711.87,1.43
718.99,1.42
726.18,1.42
733.44,1.42
740.78,1.43
748.19,1.43
755.67,1.42
763.23,1.40
770.86,1.38
778.57,1.34
786.35,1.31
794.22,1.26
802.16,1.20
810.18,1.14
818.28,1.08
826.46,1.01
834.73,0.95
843.08,0.89
851.51,0.84
860.02,0.78
868.62,0.73
877.31,0.67
886.08,0.60
894.94,0.51
903.89,0.43
912.93,0.34
922.06,0.26
931.28,0.18
940.59,0.11
950.00,0.05
959.50,0.00
969.09,-0.03
978.78,-0.03
988.57,-0.02
998.46,-0.01
1008.44,0.04
1018.53,0.07
1028.71,0.12
1039.00,0.17
1049.39,0.24
1059.88,0.32
1070.48,0.40
1081.19,0.49
1092.00,0.58
1102.92,0.66
1113.95,0.74
1125.09,0.80
1136.34,0.85
1147.70,0.88
1159.18,0.93
1170.77,0.98
1182.48,1.05
1194.30,1.16
1206.25,1.27
1218.31,1.40
1230.49,1.52
1242.80,1.62
1255.22,1.69
1267.78,1.73
1280.45,1.76
1293.26,1.76
1306.19,1.74
1319.25,1.72
1332.45,1.70
1345.77,1.65
1359.23,1.59
1372.82,1.53
1386.55,1.46
1400.41,1.39
1414.42,1.33
1428.56,1.30
1442.85,1.28
1457.28,1.29
1471.85,1.34
1486.57,1.42
1501.43,1.54
1516.45,1.71
1531.61,1.94
1546.93,2.21
1562.40,2.53
1578.02,2.89
1593.80,3.24
1609.74,3.57
1625.84,3.84
1642.10,4.08
1658.52,4.28
1675.10,4.49
1691.85,4.72
1708.77,4.98
1725.86,5.28
1743.12,5.55
1760.55,5.78
1778.15,5.94
1795.94,5.99
1813.90,5.98
1832.03,5.92
1850.36,5.81
1868.86,5.73
1887.55,5.65
1906.42,5.58
1925.49,5.53
1944.74,5.48
1964.19,5.42
1983.83,5.36
2003.67,5.32
2023.71,5.27
2043.94,5.22
2064.38,5.18
2085.03,5.13
2105.88,5.07
2126.94,5.02
2148.20,4.97
2169.69,4.91
2191.38,4.86
2213.30,4.82
2235.43,4.77
2257.78,4.74
2280.36,4.69
2303.17,4.62
2326.20,4.55
2349.46,4.48
2372.95,4.41
2396.68,4.38
2420.65,4.35
2444.86,4.35
2469.31,4.37
2494.00,4.41
2518.94,4.44
2544.13,4.48
2569.57,4.51
2595.27,4.53
2621.22,4.53
2647.43,4.53
2673.90,4.53
2700.64,4.53
2727.65,4.53
2754.93,4.55
2782.48,4.57
2810.30,4.60
2838.40,4.64
2866.79,4.67
2895.46,4.71
2924.41,4.74
2953.65,4.78
2983.19,4.83
3013.02,4.87
3043.15,4.93
3073.58,4.96
3104.32,4.97
3135.36,4.96
3166.72,4.91
3198.38,4.85
3230.37,4.76
3262.67,4.68
3295.30,4.60
3328.25,4.52
3361.53,4.45
3395.15,4.40
3429.10,4.37
3463.39,4.33
3498.03,4.30
3533.01,4.23
3568.34,4.15
3604.02,4.02
3640.06,3.87
3676.46,3.70
3713.22,3.53
3750.36,3.40
3787.86,3.32
3825.74,3.29
3864.00,3.37
3902.64,3.49
3941.66,3.66
3981.08,3.89
4020.89,4.13
4061.10,4.39
4101.71,4.66
4142.73,4.93
4184.15,5.20
4226.00,5.48
4268.26,5.75
4310.94,6.01
4354.05,6.27
4397.59,6.47
4441.56,6.62
4485.98,6.71
4530.84,6.68
4576.15,6.58
4621.91,6.40
4668.13,6.14
4714.81,5.81
4761.96,5.45
4809.58,5.06
4857.67,4.67
4906.25,4.30
4955.31,3.97
5004.87,3.71
5054.91,3.49
5105.46,3.30
5156.52,3.14
5208.08,3.00
5260.16,2.87
5312.77,2.77
5365.89,2.70
5419.55,2.67
5473.75,2.69
5528.49,2.75
5583.77,2.85
5639.61,2.95
5696.00,3.05
5752.96,3.15
5810.49,3.23
5868.60,3.28
5927.28,3.29
5986.56,3.25
6046.42,3.18
6106.89,3.07
6167.96,2.95
6229.64,2.81
6291.93,2.65
6354.85,2.48
6418.40,2.30
6482.58,2.10
6547.41,1.92
6612.88,1.75
6679.01,1.64
6745.80,1.60
6813.26,1.65
6881.39,1.79
6950.21,2.00
7019.71,2.27
7089.91,2.59
7160.81,2.95
7232.41,3.33
7304.74,3.67
7377.79,3.99
7451.56,4.26
7526.08,4.44
7601.34,4.52
7677.35,4.53
7754.13,4.47
7831.67,4.37
7909.98,4.27
7989.08,4.19
8068.98,4.16
8149.67,4.17
8231.16,4.19
8313.47,4.19
8396.61,4.12
8480.57,3.97
8565.38,3.75
8651.03,3.44
8737.54,3.05
8824.92,2.60
8913.17,2.27
9002.30,1.90
9092.32,1.39
9183.25,1.12
9275.08,1.09
9367.83,0.77
9461.51,0.48
9556.12,0.34
9651.68,0.30
9748.20,0.26
9845.68,0.17
9944.14,0.06
10043.58,-0.09
10144.02,-0.26
10245.46,-0.45
10347.91,-0.73
10451.39,-1.13
10555.91,-1.59
10661.46,-2.09
10768.08,-2.67
10875.76,-3.27
10984.52,-3.89
11094.36,-4.40
11205.31,-4.74
11317.36,-4.84
11430.53,-4.67
11544.84,-4.87
11660.29,-5.25
11776.89,-5.00
11894.66,-4.87
12013.60,-4.95
12133.74,-4.70
12255.08,-4.60
12377.63,-4.62
12501.41,-4.67
12626.42,-4.79
12752.68,-4.87
12880.21,-4.86
13009.01,-4.51
13139.10,-3.93
13270.49,-3.14
13403.20,-2.29
13537.23,-1.68
13672.60,-1.35
13809.33,-1.48
13947.42,-1.95
14086.90,-2.54
14227.77,-3.23
14370.04,-3.89
14513.74,-4.50
14658.88,-5.03
14805.47,-5.45
14953.52,-5.79
15103.06,-6.13
15254.09,-6.48
15406.63,-6.92
15560.70,-7.47
15716.30,-8.22
15873.47,-9.17
16032.20,-10.22
16192.52,-11.31
16354.45,-12.17
16517.99,-12.73
16683.17,-12.91
16850.01,-12.57
17018.51,-11.97
17188.69,-11.21
17360.58,-10.42
17534.18,-9.70
17709.53,-9.05
17886.62,-8.55
18065.49,-8.16
18246.14,-7.83
18428.60,-7.55
18612.89,-7.32
18799.02,-7.14
18987.01,-7.03
19176.88,-7.12
19368.65,-7.40
19562.33,-7.87
19757.96,-8.62
19955.54,-9.53
