frequency,raw,error,smoothed,error_smoothed,equalization,parametric_eq,fixed_band_eq,equalized_raw,equalized_smoothed,target
20.00,16.88,11.79,16.89,11.80,-11.80,-11.58,-5.11,5.07,5.08,5.08
20.20,16.87,11.79,16.87,11.80,-11.80,-11.61,-5.24,5.06,5.07,5.07
20.40,16.86,11.79,16.86,11.80,-11.80,-11.63,-5.37,5.05,5.06,5.06
20.61,16.85,11.79,16.84,11.80,-11.80,-11.65,-5.51,5.05,5.05,5.05
20.81,16.83,11.79,16.83,11.79,-11.79,-11.67,-5.65,5.04,5.04,5.03
21.02,16.82,11.79,16.81,11.78,-11.78,-11.68,-5.80,5.03,5.03,5.02
21.23,16.80,11.79,16.79,11.77,-11.77,-11.69,-5.95,5.02,5.02,5.01
21.44,16.78,11.76,16.76,11.76,-11.76,-11.70,-6.10,5.02,5.01,5.02
21.66,16.76,11.76,16.74,11.74,-11.74,-11.70,-6.26,5.01,5.00,5.00
21.87,16.73,11.73,16.72,11.73,-11.73,-11.70,-6.42,5.00,4.99,5.00
22.09,16.71,11.73,16.69,11.71,-11.71,-11.70,-6.59,5.00,4.98,4.98
22.31,16.67,11.70,16.66,11.69,-11.69,-11.70,-6.76,4.99,4.98,4.98
22.54,16.65,11.68,16.63,11.66,-11.66,-11.69,-6.94,4.98,4.97,4.97
22.76,16.61,11.64,16.60,11.64,-11.64,-11.68,-7.12,4.97,4.96,4.97
22.99,16.57,11.61,16.57,11.61,-11.61,-11.66,-7.30,4.96,4.96,4.96
23.22,16.53,11.58,16.53,11.58,-11.58,-11.65,-7.49,4.95,4.96,4.95
23.45,16.49,11.53,16.50,11.55,-11.55,-11.63,-7.69,4.94,4.95,4.96
23.69,16.45,11.50,16.47,11.52,-11.52,-11.60,-7.89,4.93,4.95,4.94
23.92,16.41,11.48,16.43,11.49,-11.49,-11.58,-8.09,4.93,4.94,4.93
24.16,16.39,11.44,16.40,11.46,-11.46,-11.55,-8.30,4.93,4.94,4.94
24.40,16.36,11.42,16.36,11.42,-11.42,-11.53,-8.51,4.94,4.94,4.94
24.65,16.34,11.39,16.32,11.39,-11.39,-11.50,-8.73,4.95,4.94,4.94
24.89,16.30,11.36,16.29,11.35,-11.35,-11.46,-8.96,4.95,4.93,4.94
25.14,16.26,11.33,16.25,11.32,-11.32,-11.43,-9.18,4.95,4.93,4.93
25.39,16.21,11.28,16.22,11.28,-11.28,-11.39,-9.41,4.93,4.93,4.93
25.65,16.18,11.25,16.18,11.25,-11.25,-11.36,-9.65,4.93,4.93,4.93
25.91,16.15,11.22,16.14,11.21,-11.21,-11.32,-9.89,4.94,4.93,4.93
26.16,16.10,11.17,16.10,11.17,-11.17,-11.28,-10.13,4.94,4.93,4.94
26.43,16.06,11.12,16.06,11.13,-11.13,-11.23,-10.37,4.93,4.93,4.94
26.69,16.02,11.08,16.02,11.08,-11.08,-11.19,-10.61,4.93,4.93,4.94
26.96,15.98,11.04,15.97,11.04,-11.04,-11.15,-10.85,4.94,4.94,4.93
27.23,15.94,11.00,15.93,10.99,-10.99,-11.10,-11.09,4.94,4.94,4.93
27.50,15.89,10.95,15.89,10.95,-10.95,-11.06,-11.33,4.94,4.94,4.93
27.77,15.84,10.90,15.84,10.90,-10.90,-11.01,-11.57,4.94,4.94,4.94
28.05,15.80,10.86,15.80,10.86,-10.86,-10.96,-11.80,4.94,4.94,4.94
28.33,15.76,10.81,15.76,10.82,-10.82,-10.92,-12.02,4.94,4.95,4.95
28.62,15.72,10.77,15.72,10.77,-10.77,-10.87,-12.24,4.94,4.95,4.95
28.90,15.68,10.72,15.68,10.73,-10.73,-10.82,-12.44,4.95,4.95,4.96
29.19,15.64,10.68,15.64,10.69,-10.69,-10.77,-12.62,4.95,4.95,4.95
29.48,15.60,10.64,15.60,10.65,-10.65,-10.72,-12.80,4.94,4.95,4.95
29.78,15.56,10.60,15.56,10.61,-10.61,-10.67,-12.95,4.94,4.95,4.95
30.08,15.53,10.58,15.52,10.58,-10.58,-10.62,-13.08,4.95,4.94,4.95
30.38,15.49,10.55,15.49,10.54,-10.54,-10.57,-13.19,4.94,4.94,4.94
30.68,15.45,10.51,15.45,10.51,-10.51,-10.52,-13.28,4.94,4.94,4.94
30.99,15.41,10.47,15.41,10.47,-10.47,-10.47,-13.34,4.93,4.94,4.93
31.30,15.37,10.43,15.37,10.44,-10.44,-10.42,-13.38,4.93,4.93,4.93
31.61,15.33,10.39,15.32,10.40,-10.40,-10.37,-13.39,4.93,4.92,4.93
31.93,15.30,10.39,15.28,10.36,-10.36,-10.33,-13.37,4.93,4.92,4.91
32.24,15.25,10.34,15.24,10.33,-10.33,-10.28,-13.33,4.93,4.91,4.92
32.57,15.21,10.30,15.19,10.29,-10.29,-10.23,-13.27,4.92,4.91,4.90
32.89,15.15,10.25,15.15,10.24,-10.24,-10.18,-13.18,4.91,4.90,4.90
33.22,15.10,10.20,15.10,10.20,-10.20,-10.13,-13.08,4.90,4.90,4.90
33.55,15.03,10.14,15.05,10.15,-10.15,-10.08,-12.96,4.88,4.89,4.90
33.89,14.98,10.09,14.99,10.11,-10.11,-10.04,-12.82,4.87,4.89,4.88
34.23,14.94,10.06,14.94,10.06,-10.06,-9.99,-12.67,4.87,4.88,4.87
34.57,14.90,10.03,14.89,10.02,-10.02,-9.94,-12.52,4.88,4.87,4.87
34.92,14.85,9.99,14.84,9.97,-9.97,-9.90,-12.35,4.88,4.87,4.86
35.27,14.80,9.92,14.78,9.92,-9.92,-9.85,-12.18,4.87,4.86,4.87
35.62,14.73,9.88,14.73,9.88,-9.88,-9.81,-12.00,4.85,4.85,4.85
35.97,14.66,9.82,14.67,9.84,-9.84,-9.76,-11.82,4.83,4.84,4.85
36.33,14.61,9.78,14.62,9.80,-9.80,-9.72,-11.65,4.82,4.82,4.83
36.70,14.57,9.76,14.57,9.76,-9.76,-9.67,-11.47,4.81,4.81,4.81
37.06,14.51,9.72,14.52,9.72,-9.72,-9.63,-11.29,4.79,4.80,4.80
37.43,14.46,9.68,14.47,9.69,-9.69,-9.59,-11.11,4.78,4.78,4.78
37.81,14.42,9.65,14.42,9.65,-9.65,-9.55,-10.94,4.76,4.77,4.77
38.19,14.37,9.62,14.37,9.62,-9.62,-9.51,-10.78,4.75,4.75,4.74
38.57,14.32,9.59,14.32,9.59,-9.59,-9.47,-10.61,4.73,4.73,4.73
38.95,14.26,9.55,14.26,9.55,-9.55,-9.43,-10.45,4.71,4.71,4.71
39.34,14.22,9.53,14.21,9.52,-9.52,-9.39,-10.30,4.70,4.69,4.69
39.74,14.18,9.51,14.16,9.49,-9.49,-9.35,-10.15,4.68,4.67,4.67
40.14,14.12,9.47,14.11,9.46,-9.46,-9.31,-10.01,4.66,4.65,4.65
40.54,14.06,9.42,14.06,9.43,-9.43,-9.27,-9.88,4.63,4.63,4.64
40.94,14.01,9.40,14.01,9.39,-9.39,-9.24,-9.75,4.61,4.62,4.61
41.35,13.96,9.36,13.95,9.36,-9.36,-9.20,-9.62,4.60,4.60,4.59
41.76,13.89,9.33,13.90,9.32,-9.32,-9.16,-9.51,4.57,4.58,4.57
42.18,13.85,9.28,13.85,9.29,-9.29,-9.13,-9.40,4.56,4.56,4.56
42.60,13.79,9.26,13.79,9.25,-9.25,-9.09,-9.30,4.54,4.54,4.54
43.03,13.74,9.22,13.73,9.22,-9.22,-9.06,-9.20,4.52,4.52,4.52
43.46,13.68,9.18,13.68,9.18,-9.18,-9.03,-9.11,4.49,4.50,4.49
43.90,13.62,9.14,13.62,9.15,-9.15,-8.99,-9.02,4.47,4.48,4.48
44.33,13.56,9.12,13.57,9.12,-9.12,-8.96,-8.95,4.45,4.45,4.45
44.78,13.51,9.07,13.51,9.08,-9.08,-8.93,-8.88,4.42,4.43,4.43
45.23,13.46,9.04,13.46,9.05,-9.05,-8.90,-8.81,4.40,4.40,4.41
45.68,13.41,9.03,13.40,9.02,-9.02,-8.87,-8.75,4.38,4.37,4.37
46.13,13.34,9.00,13.34,9.00,-9.00,-8.84,-8.70,4.35,4.34,4.35
46.60,13.29,8.97,13.28,8.97,-8.97,-8.81,-8.65,4.32,4.31,4.32
47.06,13.22,8.93,13.23,8.94,-8.94,-8.78,-8.61,4.27,4.28,4.29
47.53,13.17,8.91,13.17,8.92,-8.92,-8.75,-8.58,4.25,4.25,4.26
48.01,13.12,8.91,13.11,8.89,-8.89,-8.72,-8.54,4.22,4.21,4.21
48.49,13.06,8.88,13.05,8.87,-8.87,-8.69,-8.52,4.19,4.18,4.18
48.97,12.98,8.85,12.99,8.84,-8.84,-8.67,-8.50,4.14,4.14,4.14
49.46,12.92,8.81,12.92,8.82,-8.82,-8.64,-8.48,4.10,4.11,4.11
49.96,12.86,8.80,12.86,8.79,-8.79,-8.61,-8.47,4.07,4.07,4.06
50.46,12.81,8.77,12.80,8.76,-8.76,-8.59,-8.47,4.04,4.04,4.03
50.96,12.74,8.73,12.73,8.73,-8.73,-8.56,-8.46,4.00,4.00,4.00
51.47,12.68,8.71,12.67,8.70,-8.70,-8.54,-8.47,3.97,3.97,3.97
51.99,12.60,8.67,12.60,8.67,-8.67,-8.51,-8.47,3.93,3.93,3.93
52.51,12.54,8.63,12.54,8.64,-8.64,-8.49,-8.48,3.90,3.90,3.90
53.03,12.48,8.60,12.47,8.61,-8.61,-8.46,-8.48,3.87,3.87,3.88
53.56,12.42,8.57,12.41,8.57,-8.57,-8.44,-8.49,3.84,3.83,3.84
54.10,12.35,8.55,12.34,8.54,-8.54,-8.41,-8.51,3.81,3.80,3.80
54.64,12.27,8.49,12.27,8.50,-8.50,-8.39,-8.52,3.77,3.77,3.77
55.18,12.19,8.46,12.21,8.46,-8.46,-8.36,-8.53,3.73,3.75,3.74
55.74,12.14,8.44,12.14,8.42,-8.42,-8.34,-8.54,3.71,3.72,3.70
56.29,12.08,8.39,12.07,8.38,-8.38,-8.32,-8.55,3.69,3.69,3.68
56.86,12.01,8.35,12.01,8.35,-8.35,-8.29,-8.56,3.66,3.66,3.66
57.42,11.93,8.32,11.94,8.31,-8.31,-8.27,-8.57,3.62,3.63,3.62
58.00,11.88,8.29,11.88,8.28,-8.28,-8.25,-8.57,3.60,3.60,3.59
58.58,11.81,8.24,11.81,8.25,-8.25,-8.22,-8.57,3.56,3.56,3.57
59.16,11.74,8.20,11.74,8.21,-8.21,-8.20,-8.57,3.53,3.53,3.55
59.76,11.68,8.16,11.68,8.18,-8.18,-8.18,-8.56,3.49,3.49,3.52
60.35,11.61,8.14,11.61,8.15,-8.15,-8.15,-8.54,3.46,3.46,3.48
60.96,11.55,8.11,11.55,8.13,-8.13,-8.13,-8.53,3.42,3.42,3.43
61.57,11.49,8.10,11.48,8.10,-8.10,-8.11,-8.50,3.39,3.38,3.38
62.18,11.42,8.08,11.42,8.07,-8.07,-8.09,-8.47,3.34,3.34,3.34
62.80,11.35,8.06,11.35,8.04,-8.04,-8.06,-8.44,3.31,3.30,3.29
63.43,11.28,8.03,11.28,8.02,-8.02,-8.04,-8.39,3.26,3.26,3.25
64.07,11.21,7.99,11.21,7.99,-7.99,-8.02,-8.35,3.22,3.22,3.21
64.71,11.15,7.97,11.14,7.96,-7.96,-7.99,-8.29,3.19,3.18,3.18
65.35,11.07,7.94,11.07,7.93,-7.93,-7.97,-8.23,3.15,3.14,3.14
66.01,11.01,7.91,11.00,7.90,-7.90,-7.95,-8.17,3.11,3.10,3.10
66.67,10.94,7.86,10.93,7.87,-7.87,-7.92,-8.10,3.07,3.06,3.07
67.33,10.85,7.83,10.85,7.83,-7.83,-7.90,-8.03,3.02,3.02,3.02
68.01,10.78,7.78,10.78,7.80,-7.80,-7.87,-7.95,2.98,2.98,2.99
68.69,10.71,7.76,10.71,7.76,-7.76,-7.85,-7.87,2.94,2.95,2.95
69.37,10.63,7.72,10.64,7.73,-7.73,-7.83,-7.79,2.91,2.91,2.92
70.07,10.56,7.68,10.56,7.69,-7.69,-7.80,-7.70,2.86,2.87,2.87
70.77,10.49,7.66,10.49,7.66,-7.66,-7.78,-7.62,2.83,2.83,2.83
71.48,10.41,7.61,10.41,7.62,-7.62,-7.75,-7.53,2.78,2.79,2.80
72.19,10.35,7.60,10.34,7.59,-7.59,-7.72,-7.44,2.76,2.75,2.75
72.91,10.27,7.57,10.26,7.55,-7.55,-7.70,-7.35,2.72,2.71,2.70
73.64,10.20,7.53,10.19,7.52,-7.52,-7.67,-7.26,2.68,2.67,2.67
74.38,10.12,7.49,10.12,7.48,-7.48,-7.65,-7.18,2.63,2.64,2.63
75.12,10.05,7.45,10.05,7.44,-7.44,-7.62,-7.09,2.60,2.60,2.60
75.87,9.97,7.41,9.98,7.41,-7.41,-7.59,-7.01,2.57,2.57,2.57
76.63,9.91,7.38,9.90,7.37,-7.37,-7.56,-6.92,2.54,2.54,2.53
77.40,9.83,7.32,9.83,7.33,-7.33,-7.54,-6.84,2.50,2.51,2.51
78.17,9.76,7.29,9.76,7.29,-7.29,-7.51,-6.77,2.47,2.47,2.46
78.95,9.68,7.23,9.69,7.25,-7.25,-7.48,-6.69,2.44,2.45,2.45
79.74,9.62,7.21,9.62,7.21,-7.21,-7.45,-6.62,2.42,2.42,2.42
80.54,9.56,7.16,9.55,7.16,-7.16,-7.42,-6.56,2.39,2.39,2.39
81.35,9.49,7.13,9.48,7.12,-7.12,-7.39,-6.49,2.36,2.36,2.36
82.16,9.43,7.08,9.41,7.08,-7.08,-7.36,-6.43,2.34,2.33,2.34
82.98,9.35,7.04,9.34,7.04,-7.04,-7.33,-6.38,2.30,2.30,2.30
83.81,9.28,7.00,9.27,7.00,-7.00,-7.30,-6.33,2.27,2.27,2.28
84.65,9.21,6.97,9.21,6.97,-6.97,-7.27,-6.28,2.24,2.24,2.24
85.50,9.14,6.93,9.14,6.93,-6.93,-7.23,-6.24,2.21,2.21,2.21
86.35,9.07,6.89,9.07,6.89,-6.89,-7.20,-6.20,2.17,2.18,2.18
87.22,9.00,6.85,9.00,6.85,-6.85,-7.17,-6.16,2.14,2.15,2.15
88.09,8.94,6.82,8.93,6.82,-6.82,-7.13,-6.14,2.12,2.11,2.11
88.97,8.87,6.78,8.86,6.78,-6.78,-7.10,-6.11,2.08,2.08,2.08
89.86,8.80,6.75,8.80,6.75,-6.75,-7.07,-6.09,2.05,2.05,2.05
90.76,8.73,6.71,8.73,6.72,-6.72,-7.03,-6.07,2.01,2.01,2.02
91.66,8.67,6.69,8.67,6.69,-6.69,-6.99,-6.06,1.98,1.98,1.97
92.58,8.60,6.65,8.60,6.66,-6.66,-6.96,-6.05,1.94,1.94,1.95
93.51,8.54,6.62,8.53,6.63,-6.63,-6.92,-6.05,1.91,1.90,1.91
94.44,8.47,6.59,8.47,6.60,-6.60,-6.89,-6.05,1.87,1.87,1.88
95.39,8.41,6.57,8.40,6.57,-6.57,-6.85,-6.06,1.84,1.83,1.83
96.34,8.34,6.54,8.33,6.54,-6.54,-6.81,-6.06,1.80,1.79,1.80
97.30,8.27,6.51,8.26,6.51,-6.51,-6.77,-6.08,1.76,1.76,1.76
98.28,8.21,6.49,8.20,6.48,-6.48,-6.73,-6.09,1.73,1.72,1.71
99.26,8.14,6.46,8.13,6.44,-6.44,-6.69,-6.11,1.69,1.68,1.67
100.25,8.06,6.42,8.06,6.41,-6.41,-6.66,-6.13,1.65,1.65,1.64
101.25,7.99,6.38,7.99,6.37,-6.37,-6.62,-6.16,1.61,1.62,1.61
102.27,7.92,6.33,7.92,6.34,-6.34,-6.57,-6.18,1.58,1.58,1.58
103.29,7.86,6.31,7.85,6.30,-6.30,-6.53,-6.21,1.55,1.55,1.54
104.32,7.80,6.28,7.79,6.27,-6.27,-6.49,-6.24,1.53,1.52,1.52
105.37,7.73,6.24,7.72,6.24,-6.24,-6.45,-6.27,1.49,1.49,1.49
106.42,7.65,6.18,7.66,6.20,-6.20,-6.41,-6.30,1.44,1.46,1.46
107.48,7.58,6.15,7.59,6.17,-6.17,-6.37,-6.34,1.40,1.42,1.42
108.56,7.53,6.13,7.53,6.14,-6.14,-6.32,-6.37,1.38,1.39,1.40
109.64,7.48,6.11,7.48,6.12,-6.12,-6.28,-6.40,1.36,1.36,1.37
110.74,7.43,6.10,7.42,6.09,-6.09,-6.24,-6.43,1.33,1.32,1.33
111.85,7.37,6.07,7.36,6.07,-6.07,-6.19,-6.46,1.29,1.29,1.29
112.97,7.31,6.04,7.31,6.05,-6.05,-6.15,-6.49,1.25,1.26,1.27
114.10,7.26,6.03,7.26,6.03,-6.03,-6.10,-6.51,1.22,1.22,1.23
115.24,7.21,6.02,7.20,6.01,-6.01,-6.06,-6.53,1.19,1.19,1.18
116.39,7.16,6.01,7.15,6.00,-6.00,-6.01,-6.55,1.16,1.16,1.15
117.55,7.11,5.99,7.10,5.98,-5.98,-5.97,-6.56,1.13,1.12,1.11
118.73,7.06,5.98,7.05,5.96,-5.96,-5.92,-6.57,1.09,1.09,1.08
119.92,7.01,5.95,7.00,5.94,-5.94,-5.88,-6.57,1.06,1.06,1.05
121.12,6.95,5.92,6.95,5.92,-5.92,-5.83,-6.56,1.02,1.03,1.03
122.33,6.90,5.90,6.90,5.90,-5.90,-5.78,-6.55,0.99,0.99,0.99
123.55,6.85,5.87,6.84,5.88,-5.88,-5.74,-6.54,0.96,0.96,0.97
124.79,6.79,5.85,6.79,5.86,-5.86,-5.69,-6.51,0.92,0.93,0.94
126.03,6.74,5.83,6.74,5.84,-5.84,-5.64,-6.49,0.90,0.90,0.91
127.29,6.69,5.81,6.68,5.82,-5.82,-5.60,-6.45,0.87,0.87,0.88
128.57,6.64,5.80,6.63,5.79,-5.79,-5.55,-6.41,0.84,0.84,0.84
129.85,6.58,5.77,6.57,5.77,-5.77,-5.50,-6.36,0.81,0.80,0.81
131.15,6.51,5.74,6.51,5.74,-5.74,-5.45,-6.30,0.77,0.77,0.77
132.46,6.45,5.71,6.45,5.71,-5.71,-5.41,-6.24,0.73,0.74,0.74
133.79,6.40,5.69,6.39,5.68,-5.68,-5.36,-6.18,0.71,0.71,0.70
135.12,6.34,5.66,6.33,5.65,-5.65,-5.31,-6.10,0.68,0.68,0.67
136.48,6.28,5.63,6.26,5.62,-5.62,-5.26,-6.03,0.66,0.64,0.65
137.84,6.20,5.58,6.19,5.58,-5.58,-5.21,-5.95,0.62,0.61,0.61
139.22,6.13,5.55,6.12,5.54,-5.54,-5.16,-5.87,0.59,0.59,0.58
140.61,6.06,5.50,6.05,5.50,-5.50,-5.11,-5.78,0.56,0.56,0.56
142.02,5.99,5.46,5.98,5.45,-5.45,-5.07,-5.69,0.54,0.53,0.52
143.44,5.91,5.40,5.90,5.40,-5.40,-5.02,-5.60,0.50,0.50,0.50
144.87,5.84,5.35,5.83,5.35,-5.35,-4.97,-5.51,0.48,0.48,0.48
146.32,5.76,5.31,5.76,5.30,-5.30,-4.92,-5.42,0.45,0.45,0.45
147.78,5.68,5.24,5.68,5.25,-5.25,-4.87,-5.32,0.42,0.43,0.43
149.26,5.60,5.19,5.61,5.20,-5.20,-4.82,-5.23,0.39,0.40,0.40
150.75,5.53,5.15,5.53,5.15,-5.15,-4.77,-5.13,0.37,0.38,0.38
152.26,5.46,5.10,5.46,5.11,-5.11,-4.72,-5.04,0.35,0.35,0.36
153.78,5.39,5.05,5.39,5.06,-5.06,-4.67,-4.95,0.33,0.33,0.33
155.32,5.32,5.01,5.32,5.01,-5.01,-4.63,-4.86,0.30,0.30,0.31
156.88,5.25,4.96,5.25,4.97,-4.97,-4.58,-4.77,0.28,0.28,0.28
158.44,5.18,4.92,5.18,4.93,-4.93,-4.53,-4.68,0.25,0.25,0.25
160.03,5.12,4.89,5.11,4.89,-4.89,-4.48,-4.60,0.23,0.22,0.23
161.63,5.04,4.84,5.04,4.85,-4.85,-4.43,-4.51,0.19,0.19,0.20
163.24,4.97,4.80,4.97,4.81,-4.81,-4.38,-4.43,0.16,0.17,0.17
164.88,4.91,4.77,4.90,4.77,-4.77,-4.33,-4.36,0.14,0.13,0.14
166.53,4.85,4.75,4.83,4.72,-4.72,-4.29,-4.28,0.12,0.10,0.10
168.19,4.77,4.69,4.76,4.68,-4.68,-4.24,-4.21,0.08,0.07,0.08
169.87,4.69,4.64,4.68,4.64,-4.64,-4.19,-4.14,0.04,0.04,0.04
171.57,4.61,4.60,4.60,4.60,-4.60,-4.14,-4.07,0.01,0.01,0.00
173.29,4.54,4.56,4.53,4.55,-4.55,-4.09,-4.00,-0.02,-0.03,-0.02
175.02,4.46,4.51,4.45,4.51,-4.51,-4.05,-3.94,-0.05,-0.06,-0.06
176.77,4.37,4.46,4.37,4.46,-4.46,-4.00,-3.88,-0.10,-0.09,-0.09
178.54,4.29,4.41,4.29,4.42,-4.42,-3.95,-3.83,-0.13,-0.13,-0.13
180.32,4.21,4.37,4.21,4.37,-4.37,-3.90,-3.77,-0.16,-0.16,-0.17
182.13,4.13,4.32,4.13,4.32,-4.32,-3.86,-3.72,-0.20,-0.19,-0.19
183.95,4.05,4.27,4.05,4.28,-4.28,-3.81,-3.68,-0.23,-0.23,-0.22
185.79,3.97,4.23,3.97,4.23,-4.23,-3.76,-3.63,-0.26,-0.26,-0.26
187.65,3.89,4.18,3.89,4.19,-4.19,-3.72,-3.59,-0.30,-0.29,-0.29
189.52,3.82,4.14,3.82,4.14,-4.14,-3.67,-3.55,-0.33,-0.33,-0.32
191.42,3.75,4.10,3.74,4.10,-4.10,-3.62,-3.51,-0.35,-0.36,-0.35
193.33,3.67,4.05,3.67,4.05,-4.05,-3.58,-3.48,-0.39,-0.39,-0.38
195.27,3.59,4.01,3.59,4.01,-4.01,-3.53,-3.45,-0.43,-0.42,-0.42
197.22,3.52,3.97,3.52,3.97,-3.97,-3.49,-3.42,-0.45,-0.45,-0.46
199.19,3.46,3.93,3.45,3.93,-3.93,-3.44,-3.39,-0.47,-0.47,-0.47
201.18,3.39,3.90,3.38,3.88,-3.88,-3.40,-3.36,-0.50,-0.50,-0.51
203.19,3.32,3.84,3.31,3.84,-3.84,-3.35,-3.34,-0.52,-0.52,-0.53
205.23,3.26,3.80,3.25,3.79,-3.79,-3.31,-3.31,-0.54,-0.55,-0.54
207.28,3.19,3.75,3.18,3.75,-3.75,-3.26,-3.29,-0.56,-0.57,-0.57
209.35,3.11,3.70,3.11,3.71,-3.71,-3.22,-3.27,-0.60,-0.59,-0.59
211.44,3.05,3.66,3.05,3.66,-3.66,-3.18,-3.26,-0.62,-0.62,-0.61
213.56,2.99,3.61,2.98,3.62,-3.62,-3.13,-3.24,-0.63,-0.64,-0.63
215.69,2.93,3.58,2.92,3.57,-3.57,-3.09,-3.22,-0.65,-0.66,-0.65
217.85,2.86,3.53,2.85,3.53,-3.53,-3.05,-3.20,-0.67,-0.67,-0.67
220.03,2.78,3.47,2.79,3.48,-3.48,-3.01,-3.19,-0.71,-0.69,-0.69
222.23,2.72,3.43,2.73,3.44,-3.44,-2.96,-3.17,-0.72,-0.71,-0.72
224.45,2.67,3.39,2.67,3.39,-3.39,-2.92,-3.15,-0.73,-0.73,-0.73
226.70,2.62,3.36,2.61,3.35,-3.35,-2.88,-3.14,-0.74,-0.74,-0.75
228.96,2.56,3.30,2.55,3.31,-3.31,-2.84,-3.12,-0.75,-0.76,-0.75
231.25,2.49,3.25,2.49,3.26,-3.26,-2.80,-3.10,-0.78,-0.77,-0.77
233.57,2.44,3.21,2.44,3.21,-3.21,-2.76,-3.08,-0.78,-0.78,-0.78
235.90,2.39,3.17,2.38,3.16,-3.16,-2.72,-3.06,-0.78,-0.79,-0.79
238.26,2.33,3.13,2.32,3.11,-3.11,-2.68,-3.04,-0.79,-0.79,-0.81
240.64,2.27,3.06,2.26,3.06,-3.06,-2.64,-3.01,-0.80,-0.80,-0.79
243.05,2.21,3.01,2.21,3.01,-3.01,-2.60,-2.99,-0.80,-0.80,-0.80
245.48,2.15,2.96,2.15,2.95,-2.95,-2.56,-2.96,-0.81,-0.81,-0.81
247.93,2.10,2.91,2.09,2.90,-2.90,-2.52,-2.93,-0.80,-0.81,-0.82
250.41,2.04,2.84,2.03,2.84,-2.84,-2.48,-2.90,-0.80,-0.81,-0.81
252.92,1.98,2.78,1.97,2.78,-2.78,-2.44,-2.87,-0.80,-0.81,-0.80
255.45,1.91,2.72,1.91,2.72,-2.72,-2.40,-2.83,-0.82,-0.81,-0.81
258.00,1.85,2.65,1.86,2.67,-2.67,-2.37,-2.79,-0.82,-0.81,-0.81
260.58,1.79,2.59,1.80,2.60,-2.60,-2.33,-2.75,-0.82,-0.81,-0.80
263.19,1.75,2.54,1.74,2.54,-2.54,-2.29,-2.71,-0.80,-0.81,-0.80
265.82,1.69,2.49,1.68,2.48,-2.48,-2.25,-2.67,-0.80,-0.81,-0.81
268.48,1.62,2.42,1.62,2.42,-2.42,-2.22,-2.62,-0.81,-0.81,-0.80
271.16,1.55,2.34,1.56,2.36,-2.36,-2.18,-2.57,-0.81,-0.80,-0.80
273.87,1.50,2.30,1.49,2.30,-2.30,-2.15,-2.53,-0.80,-0.80,-0.80
276.61,1.45,2.24,1.43,2.23,-2.23,-2.11,-2.47,-0.79,-0.80,-0.80
279.38,1.39,2.20,1.37,2.17,-2.17,-2.08,-2.42,-0.78,-0.80,-0.81
282.17,1.31,2.11,1.30,2.10,-2.10,-2.04,-2.37,-0.79,-0.79,-0.81
284.99,1.24,2.03,1.24,2.03,-2.03,-2.01,-2.32,-0.79,-0.79,-0.79
287.84,1.17,1.95,1.17,1.96,-1.96,-1.97,-2.26,-0.79,-0.79,-0.79
290.72,1.11,1.89,1.10,1.89,-1.89,-1.94,-2.21,-0.78,-0.78,-0.79
293.63,1.05,1.82,1.04,1.81,-1.81,-1.90,-2.15,-0.77,-0.78,-0.77
296.57,0.98,1.74,0.97,1.74,-1.74,-1.87,-2.10,-0.77,-0.77,-0.77
299.53,0.91,1.67,0.91,1.67,-1.67,-1.84,-2.04,-0.76,-0.76,-0.76
302.53,0.84,1.58,0.85,1.60,-1.60,-1.81,-1.99,-0.76,-0.75,-0.74
305.55,0.78,1.52,0.78,1.53,-1.53,-1.77,-1.93,-0.75,-0.74,-0.75
308.61,0.72,1.45,0.72,1.46,-1.46,-1.74,-1.88,-0.74,-0.73,-0.73
311.69,0.66,1.38,0.67,1.39,-1.39,-1.71,-1.82,-0.73,-0.72,-0.72
314.81,0.61,1.32,0.61,1.33,-1.33,-1.68,-1.77,-0.72,-0.72,-0.72
317.96,0.56,1.27,0.56,1.26,-1.26,-1.65,-1.71,-0.71,-0.71,-0.71
321.14,0.51,1.20,0.50,1.20,-1.20,-1.61,-1.66,-0.69,-0.70,-0.69
324.35,0.46,1.15,0.45,1.14,-1.14,-1.58,-1.61,-0.68,-0.69,-0.70
327.59,0.42,1.08,0.40,1.08,-1.08,-1.55,-1.55,-0.66,-0.68,-0.67
330.87,0.36,1.03,0.35,1.02,-1.02,-1.52,-1.50,-0.67,-0.67,-0.67
334.18,0.31,0.97,0.30,0.97,-0.97,-1.49,-1.45,-0.66,-0.66,-0.66
337.52,0.27,0.92,0.26,0.91,-0.91,-1.46,-1.40,-0.65,-0.65,-0.66
340.90,0.23,0.86,0.22,0.86,-0.86,-1.43,-1.35,-0.63,-0.64,-0.64
344.30,0.18,0.81,0.18,0.81,-0.81,-1.40,-1.30,-0.63,-0.63,-0.63
347.75,0.14,0.76,0.14,0.76,-0.76,-1.37,-1.26,-0.63,-0.62,-0.62
351.23,0.10,0.72,0.10,0.72,-0.72,-1.35,-1.21,-0.62,-0.61,-0.62
354.74,0.06,0.65,0.07,0.68,-0.68,-1.32,-1.16,-0.62,-0.61,-0.60
358.28,0.04,0.63,0.04,0.64,-0.64,-1.29,-1.12,-0.60,-0.60,-0.60
361.87,0.02,0.61,0.02,0.61,-0.61,-1.26,-1.07,-0.59,-0.59,-0.59
365.49,-0.00,0.58,0.00,0.58,-0.58,-1.23,-1.03,-0.58,-0.58,-0.58
369.14,-0.01,0.55,-0.01,0.56,-0.56,-1.21,-0.99,-0.57,-0.57,-0.56
372.83,-0.03,0.52,-0.02,0.54,-0.54,-1.18,-0.95,-0.57,-0.56,-0.55
376.56,-0.04,0.51,-0.03,0.52,-0.52,-1.15,-0.90,-0.56,-0.55,-0.56
380.33,-0.04,0.50,-0.04,0.50,-0.50,-1.12,-0.86,-0.55,-0.54,-0.55
384.13,-0.04,0.48,-0.04,0.49,-0.49,-1.10,-0.82,-0.54,-0.53,-0.53
387.97,-0.03,0.49,-0.04,0.48,-0.48,-1.07,-0.79,-0.51,-0.52,-0.52
391.85,-0.02,0.49,-0.04,0.47,-0.47,-1.04,-0.75,-0.49,-0.51,-0.51
395.77,-0.02,0.48,-0.04,0.46,-0.46,-1.02,-0.71,-0.48,-0.50,-0.50
399.73,-0.02,0.47,-0.04,0.44,-0.44,-0.99,-0.67,-0.47,-0.49,-0.49
403.72,-0.02,0.44,-0.04,0.43,-0.43,-0.96,-0.64,-0.46,-0.48,-0.46
407.76,-0.02,0.44,-0.04,0.42,-0.42,-0.94,-0.60,-0.45,-0.47,-0.47
411.84,-0.03,0.42,-0.04,0.42,-0.42,-0.91,-0.57,-0.45,-0.46,-0.46
415.96,-0.04,0.39,-0.04,0.41,-0.41,-0.89,-0.53,-0.45,-0.45,-0.44
420.12,-0.04,0.39,-0.03,0.40,-0.40,-0.86,-0.50,-0.45,-0.44,-0.44
424.32,-0.04,0.39,-0.02,0.40,-0.40,-0.83,-0.47,-0.45,-0.43,-0.43
428.56,-0.03,0.38,-0.01,0.40,-0.40,-0.81,-0.44,-0.44,-0.42,-0.41
432.85,-0.01,0.39,-0.00,0.41,-0.41,-0.78,-0.41,-0.42,-0.41,-0.40
437.18,0.01,0.41,0.02,0.42,-0.42,-0.76,-0.38,-0.41,-0.40,-0.40
441.55,0.03,0.42,0.04,0.43,-0.43,-0.73,-0.35,-0.40,-0.39,-0.39
445.96,0.06,0.44,0.06,0.44,-0.44,-0.71,-0.32,-0.39,-0.38,-0.38
450.42,0.09,0.46,0.09,0.46,-0.46,-0.68,-0.29,-0.37,-0.37,-0.37
454.93,0.12,0.48,0.12,0.48,-0.48,-0.66,-0.27,-0.36,-0.36,-0.37
459.48,0.15,0.50,0.15,0.50,-0.50,-0.63,-0.24,-0.35,-0.35,-0.36
464.07,0.19,0.52,0.18,0.52,-0.52,-0.61,-0.22,-0.33,-0.34,-0.34
468.71,0.22,0.54,0.20,0.54,-0.54,-0.58,-0.20,-0.32,-0.33,-0.33
473.40,0.24,0.55,0.23,0.55,-0.55,-0.56,-0.17,-0.32,-0.32,-0.32
