frequency,raw,smoothed,error,error_smoothed,equalization,parametric_eq,fixed_band_eq,equalized_raw,equalized_smoothed,target
20.00,-4.00,-4.00,-7.40,-7.39,6.00,5.96,2.76,2.00,2.00,3.39
20.20,-3.96,-3.96,-7.39,-7.39,6.00,5.95,2.84,2.04,2.04,3.42
20.40,-3.93,-3.93,-7.38,-7.38,6.00,5.95,2.91,2.07,2.07,3.45
20.61,-3.90,-3.90,-7.37,-7.38,6.00,5.94,3.00,2.10,2.10,3.47
20.81,-3.87,-3.88,-7.37,-7.38,6.00,5.94,3.08,2.13,2.12,3.50
21.02,-3.85,-3.85,-7.38,-7.38,6.00,5.93,3.17,2.15,2.15,3.53
21.23,-3.83,-3.83,-7.37,-7.37,6.00,5.93,3.26,2.17,2.17,3.54
21.44,-3.80,-3.80,-7.35,-7.35,6.00,5.92,3.36,2.20,2.20,3.55
21.66,-3.76,-3.76,-7.32,-7.32,6.00,5.92,3.45,2.24,2.24,3.56
21.87,-3.72,-3.72,-7.28,-7.28,6.00,5.91,3.55,2.28,2.28,3.56
22.09,-3.67,-3.67,-7.24,-7.24,6.00,5.90,3.65,2.33,2.33,3.57
22.31,-3.62,-3.62,-7.19,-7.19,6.00,5.90,3.75,2.38,2.38,3.57
22.54,-3.57,-3.57,-7.14,-7.14,6.00,5.89,3.86,2.43,2.43,3.57
22.76,-3.51,-3.51,-7.08,-7.08,6.00,5.89,3.97,2.49,2.49,3.57
22.99,-3.46,-3.46,-7.02,-7.02,6.00,5.88,4.08,2.54,2.54,3.56
23.22,-3.41,-3.41,-6.97,-6.97,6.00,5.87,4.20,2.59,2.59,3.56
23.45,-3.36,-3.36,-6.92,-6.92,6.00,5.87,4.31,2.64,2.64,3.56
23.69,-3.32,-3.32,-6.88,-6.87,6.00,5.86,4.43,2.68,2.68,3.55
23.92,-3.27,-3.27,-6.82,-6.83,6.00,5.86,4.56,2.73,2.73,3.55
24.16,-3.24,-3.24,-6.80,-6.80,6.00,5.85,4.68,2.76,2.76,3.56
24.40,-3.21,-3.21,-6.77,-6.77,6.00,5.84,4.81,2.79,2.79,3.56
24.65,-3.20,-3.20,-6.75,-6.76,6.00,5.84,4.94,2.80,2.80,3.55
24.89,-3.19,-3.19,-6.74,-6.74,6.00,5.83,5.06,2.81,2.81,3.55
25.14,-3.19,-3.19,-6.74,-6.74,6.00,5.82,5.20,2.81,2.81,3.55
25.39,-3.19,-3.19,-6.74,-6.74,6.00,5.82,5.33,2.81,2.81,3.55
25.65,-3.18,-3.18,-6.73,-6.72,6.00,5.81,5.46,2.82,2.82,3.55
25.91,-3.16,-3.16,-6.70,-6.70,6.00,5.80,5.60,2.84,2.84,3.54
26.16,-3.13,-3.13,-6.67,-6.67,6.00,5.79,5.73,2.87,2.87,3.53
26.43,-3.09,-3.09,-6.63,-6.62,6.00,5.79,5.87,2.91,2.91,3.53
26.69,-3.05,-3.05,-6.58,-6.59,6.00,5.78,6.00,2.95,2.95,3.53
26.96,-3.01,-3.01,-6.54,-6.55,6.00,5.77,6.13,2.99,2.99,3.53
27.23,-2.98,-2.98,-6.51,-6.51,6.00,5.77,6.26,3.02,3.02,3.53
27.50,-2.94,-2.95,-6.47,-6.47,6.00,5.76,6.38,3.06,3.05,3.53
27.77,-2.91,-2.91,-6.43,-6.43,6.00,5.75,6.51,3.09,3.09,3.52
28.05,-2.87,-2.87,-6.39,-6.38,6.00,5.74,6.62,3.13,3.13,3.52
28.33,-2.82,-2.82,-6.33,-6.33,6.00,5.74,6.73,3.18,3.18,3.50
28.62,-2.78,-2.79,-6.28,-6.29,6.00,5.73,6.84,3.22,3.21,3.50
28.90,-2.76,-2.76,-6.26,-6.26,6.00,5.72,6.94,3.24,3.24,3.50
29.19,-2.76,-2.76,-6.25,-6.26,6.00,5.71,7.03,3.24,3.24,3.49
29.48,-2.77,-2.78,-6.27,-6.27,6.00,5.70,7.11,3.23,3.22,3.50
29.78,-2.80,-2.80,-6.29,-6.29,6.00,5.69,7.19,3.20,3.20,3.49
30.08,-2.83,-2.83,-6.32,-6.31,6.00,5.69,7.25,3.17,3.18,3.48
30.38,-2.83,-2.83,-6.30,-6.30,6.00,5.68,7.31,3.17,3.18,3.47
30.68,-2.80,-2.80,-6.27,-6.26,6.00,5.67,7.35,3.20,3.21,3.47
30.99,-2.74,-2.74,-6.20,-6.20,6.00,5.66,7.38,3.26,3.26,3.46
31.30,-2.66,-2.67,-6.12,-6.12,6.00,5.65,7.40,3.33,3.33,3.46
31.61,-2.59,-2.60,-6.05,-6.05,5.99,5.64,7.41,3.40,3.39,3.45
31.93,-2.54,-2.55,-5.98,-5.99,5.98,5.63,7.41,3.44,3.43,3.44
32.24,-2.52,-2.52,-5.95,-5.96,5.97,5.62,7.40,3.44,3.44,3.43
32.57,-2.51,-2.51,-5.94,-5.94,5.95,5.61,7.37,3.44,3.44,3.43
32.89,-2.51,-2.51,-5.94,-5.93,5.93,5.61,7.34,3.42,3.42,3.42
33.22,-2.50,-2.50,-5.91,-5.91,5.91,5.60,7.29,3.40,3.41,3.41
33.55,-2.48,-2.48,-5.89,-5.89,5.88,5.59,7.24,3.40,3.40,3.41
33.89,-2.45,-2.46,-5.85,-5.85,5.85,5.58,7.18,3.40,3.39,3.40
34.23,-2.43,-2.43,-5.82,-5.82,5.82,5.56,7.11,3.39,3.39,3.39
34.57,-2.41,-2.41,-5.79,-5.79,5.79,5.55,7.04,3.38,3.38,3.38
34.92,-2.39,-2.39,-5.76,-5.76,5.76,5.54,6.96,3.36,3.37,3.37
35.27,-2.36,-2.37,-5.72,-5.72,5.72,5.53,6.88,3.36,3.36,3.36
35.62,-2.34,-2.34,-5.69,-5.69,5.69,5.52,6.79,3.35,3.35,3.35
35.97,-2.32,-2.32,-5.66,-5.66,5.67,5.51,6.70,3.35,3.35,3.34
36.33,-2.30,-2.31,-5.63,-5.63,5.65,5.50,6.60,3.35,3.34,3.33
36.70,-2.30,-2.30,-5.62,-5.62,5.63,5.49,6.51,3.33,3.33,3.32
37.06,-2.30,-2.30,-5.61,-5.61,5.61,5.47,6.41,3.31,3.31,3.30
37.43,-2.30,-2.30,-5.60,-5.60,5.58,5.46,6.32,3.28,3.28,3.30
37.81,-2.29,-2.29,-5.58,-5.58,5.56,5.45,6.22,3.27,3.27,3.29
38.19,-2.28,-2.28,-5.55,-5.55,5.53,5.44,6.13,3.25,3.26,3.27
38.57,-2.25,-2.25,-5.52,-5.51,5.51,5.42,6.04,3.25,3.25,3.27
38.95,-2.22,-2.22,-5.47,-5.47,5.48,5.41,5.94,3.26,3.25,3.25
39.34,-2.19,-2.19,-5.43,-5.43,5.45,5.40,5.86,3.26,3.25,3.24
39.74,-2.17,-2.17,-5.39,-5.40,5.42,5.38,5.77,3.25,3.24,3.22
40.14,-2.16,-2.16,-5.38,-5.38,5.39,5.37,5.68,3.23,3.22,3.22
40.54,-2.16,-2.16,-5.36,-5.36,5.36,5.35,5.60,3.20,3.20,3.20
40.94,-2.16,-2.16,-5.36,-5.35,5.34,5.34,5.52,3.18,3.18,3.19
41.35,-2.15,-2.15,-5.33,-5.33,5.31,5.32,5.45,3.16,3.17,3.18
41.76,-2.12,-2.13,-5.29,-5.30,5.29,5.30,5.38,3.17,3.16,3.17
42.18,-2.10,-2.10,-5.27,-5.26,5.27,5.28,5.31,3.16,3.16,3.17
42.60,-2.08,-2.08,-5.23,-5.24,5.24,5.27,5.25,3.16,3.16,3.15
43.03,-2.07,-2.07,-5.21,-5.21,5.21,5.25,5.19,3.14,3.14,3.14
43.46,-2.06,-2.06,-5.19,-5.18,5.19,5.23,5.13,3.12,3.13,3.12
43.90,-2.05,-2.06,-5.15,-5.16,5.16,5.21,5.08,3.11,3.10,3.10
44.33,-2.05,-2.05,-5.13,-5.13,5.13,5.19,5.03,3.08,3.08,3.08
44.78,-2.05,-2.05,-5.11,-5.11,5.10,5.17,4.98,3.05,3.06,3.06
45.23,-2.04,-2.04,-5.08,-5.08,5.08,5.15,4.94,3.04,3.04,3.04
45.68,-2.03,-2.03,-5.06,-5.05,5.05,5.12,4.90,3.02,3.02,3.02
46.13,-2.01,-2.01,-5.02,-5.02,5.02,5.10,4.87,3.01,3.01,3.01
46.60,-1.99,-2.00,-4.99,-4.99,4.99,5.08,4.84,3.00,3.00,3.00
47.06,-1.98,-1.98,-4.96,-4.96,4.96,5.05,4.81,2.98,2.98,2.98
47.53,-1.97,-1.97,-4.93,-4.93,4.93,5.02,4.79,2.96,2.96,2.96
48.01,-1.96,-1.96,-4.91,-4.90,4.90,5.00,4.77,2.94,2.94,2.95
48.49,-1.95,-1.95,-4.87,-4.87,4.87,4.97,4.75,2.92,2.92,2.92
48.97,-1.95,-1.95,-4.84,-4.84,4.84,4.94,4.74,2.89,2.89,2.88
49.46,-1.95,-1.95,-4.80,-4.81,4.81,4.91,4.73,2.86,2.86,2.85
49.96,-1.96,-1.96,-4.78,-4.79,4.79,4.88,4.72,2.82,2.83,2.82
50.46,-1.96,-1.96,-4.77,-4.76,4.76,4.84,4.72,2.79,2.80,2.81
50.96,-1.95,-1.95,-4.74,-4.73,4.73,4.81,4.71,2.78,2.77,2.79
51.47,-1.94,-1.94,-4.69,-4.70,4.70,4.77,4.71,2.76,2.76,2.75
51.99,-1.93,-1.93,-4.66,-4.66,4.67,4.74,4.71,2.74,2.74,2.73
52.51,-1.92,-1.92,-4.64,-4.63,4.64,4.70,4.71,2.72,2.72,2.72
53.03,-1.91,-1.91,-4.60,-4.60,4.61,4.66,4.72,2.70,2.69,2.69
53.56,-1.91,-1.91,-4.58,-4.58,4.58,4.62,4.72,2.66,2.67,2.67
54.10,-1.90,-1.90,-4.54,-4.54,4.55,4.58,4.73,2.65,2.64,2.64
54.64,-1.90,-1.90,-4.52,-4.51,4.52,4.54,4.73,2.62,2.62,2.62
55.18,-1.89,-1.89,-4.48,-4.48,4.49,4.50,4.73,2.60,2.60,2.59
55.74,-1.89,-1.89,-4.45,-4.46,4.45,4.46,4.74,2.56,2.56,2.56
56.29,-1.88,-1.89,-4.43,-4.43,4.41,4.42,4.74,2.53,2.53,2.54
56.86,-1.88,-1.88,-4.40,-4.39,4.37,4.38,4.74,2.49,2.49,2.52
57.42,-1.86,-1.86,-4.35,-4.35,4.33,4.34,4.74,2.47,2.47,2.49
58.00,-1.83,-1.83,-4.30,-4.30,4.29,4.30,4.74,2.45,2.46,2.47
58.58,-1.79,-1.79,-4.24,-4.24,4.25,4.27,4.73,2.46,2.46,2.45
59.16,-1.75,-1.75,-4.18,-4.18,4.22,4.23,4.72,2.46,2.46,2.43
59.76,-1.73,-1.74,-4.14,-4.15,4.19,4.20,4.71,2.46,2.44,2.41
60.35,-1.76,-1.77,-4.14,-4.15,4.17,4.18,4.70,2.40,2.39,2.37
60.96,-1.82,-1.81,-4.17,-4.16,4.15,4.15,4.68,2.33,2.34,2.35
61.57,-1.87,-1.85,-4.18,-4.16,4.14,4.13,4.66,2.27,2.29,2.31
62.18,-1.86,-1.87,-4.14,-4.15,4.13,4.11,4.63,2.27,2.26,2.28
62.80,-1.87,-1.88,-4.12,-4.13,4.12,4.10,4.60,2.25,2.24,2.25
63.43,-1.89,-1.89,-4.11,-4.11,4.11,4.08,4.57,2.22,2.21,2.22
64.07,-1.92,-1.91,-4.11,-4.10,4.09,4.07,4.53,2.17,2.18,2.19
64.71,-1.91,-1.91,-4.07,-4.07,4.06,4.06,4.49,2.15,2.15,2.16
65.35,-1.90,-1.90,-4.04,-4.04,4.04,4.06,4.44,2.14,2.13,2.14
66.01,-1.89,-1.90,-4.00,-4.00,4.02,4.05,4.39,2.12,2.12,2.11
66.67,-1.90,-1.90,-3.98,-3.98,4.00,4.05,4.34,2.10,2.10,2.08
67.33,-1.92,-1.92,-3.97,-3.97,3.99,4.04,4.28,2.07,2.07,2.05
68.01,-1.95,-1.95,-3.97,-3.97,3.98,4.04,4.22,2.02,2.03,2.02
68.69,-1.98,-1.98,-3.97,-3.97,3.97,4.03,4.16,1.98,1.98,1.99
69.37,-2.02,-2.02,-3.98,-3.97,3.96,4.03,4.10,1.94,1.94,1.96
70.07,-2.05,-2.05,-3.97,-3.97,3.96,4.02,4.03,1.91,1.91,1.92
70.77,-2.07,-2.07,-3.97,-3.97,3.96,4.02,3.96,1.88,1.88,1.90
71.48,-2.09,-2.09,-3.96,-3.95,3.96,4.01,3.89,1.87,1.87,1.86
72.19,-2.11,-2.11,-3.94,-3.94,3.96,4.00,3.82,1.85,1.85,1.83
72.91,-2.13,-2.15,-3.92,-3.94,3.96,3.99,3.75,1.83,1.82,1.79
73.64,-2.19,-2.19,-3.95,-3.95,3.96,3.98,3.68,1.77,1.77,1.76
74.38,-2.25,-2.24,-3.98,-3.97,3.96,3.97,3.61,1.71,1.72,1.73
75.12,-2.29,-2.29,-3.98,-3.98,3.96,3.96,3.54,1.67,1.67,1.69
75.87,-2.31,-2.31,-3.97,-3.98,3.96,3.94,3.47,1.65,1.64,1.66
76.63,-2.33,-2.33,-3.96,-3.96,3.95,3.93,3.40,1.62,1.62,1.63
77.40,-2.34,-2.34,-3.94,-3.94,3.94,3.91,3.33,1.60,1.60,1.60
78.17,-2.35,-2.36,-3.91,-3.92,3.93,3.89,3.26,1.57,1.57,1.56
78.95,-2.37,-2.37,-3.91,-3.91,3.91,3.87,3.19,1.53,1.53,1.54
79.74,-2.39,-2.38,-3.89,-3.88,3.88,3.85,3.12,1.49,1.50,1.50
80.54,-2.39,-2.39,-3.86,-3.86,3.86,3.83,3.06,1.47,1.47,1.47
81.35,-2.38,-2.40,-3.81,-3.83,3.83,3.80,2.99,1.45,1.44,1.43
82.16,-2.41,-2.40,-3.81,-3.80,3.81,3.78,2.93,1.40,1.40,1.40
82.98,-2.42,-2.42,-3.79,-3.78,3.78,3.75,2.87,1.36,1.36,1.37
83.81,-2.43,-2.43,-3.76,-3.76,3.76,3.72,2.81,1.32,1.32,1.32
84.65,-2.44,-2.44,-3.73,-3.73,3.73,3.69,2.75,1.29,1.29,1.29
85.50,-2.44,-2.44,-3.70,-3.69,3.70,3.66,2.70,1.26,1.26,1.26
86.35,-2.44,-2.44,-3.66,-3.66,3.66,3.63,2.65,1.22,1.22,1.22
87.22,-2.44,-2.45,-3.62,-3.63,3.63,3.59,2.59,1.18,1.18,1.18
88.09,-2.45,-2.45,-3.59,-3.59,3.59,3.55,2.54,1.14,1.14,1.14
88.97,-2.45,-2.45,-3.56,-3.55,3.54,3.51,2.50,1.09,1.10,1.11
89.86,-2.44,-2.43,-3.51,-3.50,3.50,3.47,2.45,1.06,1.06,1.07
90.76,-2.41,-2.42,-3.42,-3.44,3.45,3.43,2.41,1.03,1.03,1.01
91.66,-2.40,-2.41,-3.38,-3.39,3.39,3.38,2.36,0.99,0.98,0.98
92.58,-2.41,-2.41,-3.34,-3.34,3.33,3.33,2.32,0.92,0.92,0.93
93.51,-2.40,-2.39,-3.30,-3.28,3.27,3.28,2.29,0.87,0.88,0.89
94.44,-2.36,-2.36,-3.21,-3.20,3.20,3.23,2.25,0.84,0.85,0.85
95.39,-2.31,-2.32,-3.12,-3.13,3.14,3.18,2.21,0.82,0.81,0.81
96.34,-2.28,-2.30,-3.03,-3.06,3.07,3.12,2.18,0.79,0.77,0.75
97.30,-2.31,-2.28,-3.02,-2.99,3.00,3.06,2.15,0.69,0.71,0.71
98.28,-2.27,-2.28,-2.93,-2.94,2.93,3.00,2.12,0.66,0.65,0.66
99.26,-2.24,-2.25,-2.86,-2.87,2.85,2.94,2.09,0.61,0.60,0.61
100.25,-2.23,-2.21,-2.80,-2.78,2.78,2.88,2.06,0.55,0.57,0.57
101.25,-2.17,-2.19,-2.69,-2.71,2.71,2.81,2.03,0.54,0.52,0.52
102.27,-2.16,-2.16,-2.64,-2.64,2.63,2.74,2.01,0.47,0.47,0.48
103.29,-2.15,-2.13,-2.57,-2.56,2.56,2.68,1.99,0.41,0.43,0.42
104.32,-2.10,-2.11,-2.49,-2.49,2.49,2.61,1.96,0.39,0.39,0.38
105.37,-2.07,-2.08,-2.41,-2.42,2.43,2.54,1.94,0.36,0.35,0.34
106.42,-2.06,-2.07,-2.35,-2.36,2.36,2.47,1.92,0.30,0.30,0.29
107.48,-2.07,-2.06,-2.32,-2.30,2.31,2.40,1.90,0.24,0.25,0.24
108.56,-2.06,-2.06,-2.25,-2.25,2.25,2.33,1.88,0.19,0.19,0.19
109.64,-2.05,-2.06,-2.19,-2.20,2.20,2.26,1.85,0.15,0.14,0.14
110.74,-2.05,-2.06,-2.15,-2.15,2.15,2.19,1.83,0.10,0.09,0.10
111.85,-2.07,-2.05,-2.12,-2.10,2.10,2.12,1.81,0.02,0.04,0.05
112.97,-2.05,-2.06,-2.04,-2.05,2.04,2.05,1.79,-0.01,-0.01,-0.01
114.10,-2.04,-2.06,-1.98,-2.00,1.99,1.98,1.77,-0.05,-0.07,-0.06
115.24,-2.06,-2.05,-1.95,-1.93,1.94,1.91,1.75,-0.13,-0.11,-0.11
116.39,-2.05,-2.04,-1.88,-1.87,1.88,1.85,1.73,-0.17,-0.16,-0.17
117.55,-2.02,-2.04,-1.80,-1.81,1.82,1.78,1.71,-0.20,-0.22,-0.22
118.73,-2.02,-2.04,-1.74,-1.76,1.76,1.71,1.69,-0.26,-0.28,-0.28
119.92,-2.05,-2.03,-1.73,-1.70,1.70,1.65,1.66,-0.35,-0.33,-0.32
121.12,-2.03,-2.01,-1.66,-1.64,1.64,1.58,1.64,-0.40,-0.38,-0.37
122.33,-1.96,-2.00,-1.54,-1.58,1.57,1.52,1.61,-0.39,-0.43,-0.43
123.55,-1.98,-1.98,-1.51,-1.51,1.51,1.45,1.59,-0.47,-0.46,-0.47
124.79,-1.98,-1.96,-1.46,-1.44,1.45,1.39,1.56,-0.53,-0.51,-0.52
126.03,-1.94,-1.95,-1.37,-1.39,1.38,1.33,1.53,-0.56,-0.57,-0.57
127.29,-1.93,-1.94,-1.31,-1.32,1.32,1.27,1.50,-0.61,-0.62,-0.62
128.57,-1.94,-1.93,-1.26,-1.26,1.26,1.21,1.47,-0.68,-0.67,-0.68
129.85,-1.93,-1.93,-1.20,-1.20,1.20,1.15,1.44,-0.73,-0.73,-0.73
131.15,-1.92,-1.92,-1.15,-1.15,1.15,1.09,1.40,-0.78,-0.78,-0.77
132.46,-1.91,-1.91,-1.09,-1.09,1.09,1.04,1.37,-0.82,-0.82,-0.82
133.79,-1.89,-1.90,-1.03,-1.04,1.04,0.98,1.33,-0.85,-0.86,-0.86
135.12,-1.90,-1.90,-0.99,-0.99,0.99,0.93,1.30,-0.91,-0.91,-0.91
136.48,-1.90,-1.90,-0.95,-0.95,0.94,0.87,1.26,-0.96,-0.95,-0.95
137.84,-1.90,-1.90,-0.91,-0.90,0.90,0.82,1.22,-1.00,-1.00,-0.99
139.22,-1.89,-1.89,-0.84,-0.85,0.86,0.77,1.18,-1.03,-1.04,-1.05
140.61,-1.89,-1.90,-0.80,-0.81,0.82,0.72,1.14,-1.08,-1.08,-1.09
142.02,-1.90,-1.90,-0.79,-0.78,0.78,0.67,1.10,-1.13,-1.12,-1.11
143.44,-1.91,-1.90,-0.76,-0.75,0.74,0.62,1.06,-1.17,-1.16,-1.15
144.87,-1.89,-1.89,-0.70,-0.70,0.70,0.57,1.02,-1.19,-1.19,-1.19
146.32,-1.88,-1.88,-0.65,-0.65,0.66,0.53,0.97,-1.22,-1.22,-1.23
147.78,-1.87,-1.88,-0.61,-0.62,0.63,0.48,0.93,-1.25,-1.26,-1.26
149.26,-1.89,-1.88,-0.59,-0.58,0.59,0.44,0.89,-1.30,-1.30,-1.30
150.75,-1.90,-1.89,-0.55,-0.55,0.55,0.39,0.84,-1.36,-1.34,-1.35
152.26,-1.88,-1.90,-0.50,-0.52,0.50,0.35,0.80,-1.38,-1.40,-1.38
153.78,-1.90,-1.89,-0.48,-0.47,0.46,0.31,0.75,-1.45,-1.44,-1.42
155.32,-1.90,-1.88,-0.44,-0.42,0.41,0.27,0.71,-1.49,-1.47,-1.46
156.88,-1.84,-1.86,-0.34,-0.36,0.36,0.23,0.67,-1.48,-1.50,-1.50
158.44,-1.83,-1.84,-0.29,-0.30,0.32,0.19,0.62,-1.52,-1.53,-1.54
160.03,-1.85,-1.83,-0.27,-0.25,0.27,0.15,0.58,-1.58,-1.57,-1.58
161.63,-1.84,-1.84,-0.22,-0.22,0.22,0.12,0.53,-1.62,-1.62,-1.62
163.24,-1.83,-1.84,-0.17,-0.18,0.17,0.08,0.49,-1.66,-1.67,-1.67
164.88,-1.84,-1.83,-0.15,-0.13,0.13,0.05,0.44,-1.71,-1.70,-1.70
166.53,-1.82,-1.82,-0.09,-0.09,0.09,0.01,0.40,-1.73,-1.74,-1.73
168.19,-1.81,-1.82,-0.04,-0.05,0.05,-0.02,0.36,-1.76,-1.77,-1.77
169.87,-1.82,-1.82,-0.01,-0.01,0.01,-0.06,0.31,-1.81,-1.81,-1.81
171.57,-1.82,-1.82,0.03,0.03,-0.03,-0.09,0.27,-1.85,-1.85,-1.85
173.29,-1.82,-1.82,0.06,0.06,-0.07,-0.12,0.22,-1.89,-1.89,-1.88
175.02,-1.81,-1.81,0.11,0.11,-0.11,-0.15,0.18,-1.92,-1.92,-1.92
176.77,-1.81,-1.82,0.15,0.14,-0.15,-0.18,0.13,-1.96,-1.97,-1.96
178.54,-1.82,-1.82,0.19,0.18,-0.19,-0.21,0.09,-2.01,-2.01,-2.01
180.32,-1.83,-1.82,0.21,0.22,-0.23,-0.24,0.04,-2.06,-2.04,-2.04
182.13,-1.80,-1.81,0.27,0.26,-0.27,-0.27,0.00,-2.07,-2.08,-2.07
183.95,-1.80,-1.80,0.31,0.31,-0.31,-0.30,-0.04,-2.11,-2.11,-2.12
185.79,-1.80,-1.80,0.35,0.35,-0.35,-0.33,-0.09,-2.15,-2.14,-2.15
187.65,-1.79,-1.80,0.40,0.38,-0.38,-0.36,-0.13,-2.18,-2.19,-2.19
189.52,-1.81,-1.80,0.41,0.42,-0.42,-0.39,-0.18,-2.23,-2.22,-2.22
191.42,-1.79,-1.79,0.46,0.45,-0.46,-0.41,-0.22,-2.25,-2.25,-2.25
193.33,-1.78,-1.79,0.49,0.49,-0.49,-0.44,-0.26,-2.27,-2.28,-2.28
195.27,-1.79,-1.78,0.51,0.52,-0.52,-0.47,-0.31,-2.31,-2.30,-2.30
197.22,-1.78,-1.79,0.55,0.55,-0.54,-0.49,-0.35,-2.33,-2.33,-2.33
199.19,-1.79,-1.79,0.58,0.57,-0.57,-0.52,-0.39,-2.36,-2.36,-2.37
201.18,-1.79,-1.79,0.59,0.60,-0.60,-0.54,-0.44,-2.39,-2.39,-2.39
203.19,-1.79,-1.79,0.61,0.62,-0.62,-0.57,-0.48,-2.41,-2.41,-2.40
205.23,-1.78,-1.78,0.65,0.64,-0.65,-0.59,-0.52,-2.43,-2.43,-2.43
207.28,-1.77,-1.77,0.66,0.67,-0.67,-0.62,-0.56,-2.44,-2.44,-2.43
209.35,-1.76,-1.76,0.70,0.69,-0.69,-0.64,-0.60,-2.45,-2.45,-2.46
211.44,-1.76,-1.76,0.72,0.71,-0.71,-0.66,-0.64,-2.47,-2.47,-2.48
213.56,-1.75,-1.75,0.73,0.73,-0.73,-0.68,-0.68,-2.48,-2.48,-2.48
215.69,-1.75,-1.75,0.74,0.74,-0.74,-0.69,-0.72,-2.49,-2.49,-2.49
217.85,-1.74,-1.75,0.76,0.75,-0.76,-0.71,-0.76,-2.50,-2.50,-2.50
220.03,-1.75,-1.75,0.76,0.77,-0.77,-0.72,-0.79,-2.52,-2.51,-2.51
222.23,-1.74,-1.74,0.78,0.78,-0.78,-0.74,-0.83,-2.52,-2.52,-2.52
224.45,-1.73,-1.73,0.78,0.79,-0.79,-0.75,-0.86,-2.52,-2.53,-2.52
226.70,-1.72,-1.72,0.80,0.80,-0.80,-0.75,-0.89,-2.52,-2.52,-2.52
228.96,-1.71,-1.71,0.81,0.81,-0.81,-0.76,-0.92,-2.52,-2.52,-2.52
231.25,-1.69,-1.69,0.82,0.82,-0.82,-0.76,-0.95,-2.51,-2.51,-2.51
233.57,-1.67,-1.68,0.84,0.83,-0.82,-0.77,-0.98,-2.49,-2.50,-2.51
235.90,-1.67,-1.67,0.84,0.84,-0.83,-0.77,-1.00,-2.50,-2.50,-2.51
238.26,-1.67,-1.67,0.84,0.83,-0.83,-0.77,-1.02,-2.50,-2.50,-2.51
240.64,-1.67,-1.68,0.83,0.82,-0.83,-0.76,-1.04,-2.50,-2.51,-2.50
243.05,-1.68,-1.67,0.80,0.82,-0.83,-0.76,-1.06,-2.51,-2.50,-2.49
245.48,-1.65,-1.65,0.82,0.82,-0.83,-0.76,-1.07,-2.48,-2.48,-2.47
247.93,-1.63,-1.64,0.83,0.83,-0.82,-0.75,-1.08,-2.45,-2.46,-2.46
250.41,-1.62,-1.62,0.84,0.83,-0.82,-0.75,-1.09,-2.44,-2.44,-2.46
252.92,-1.62,-1.62,0.82,0.82,-0.81,-0.74,-1.09,-2.43,-2.43,-2.44
255.45,-1.61,-1.61,0.80,0.81,-0.81,-0.73,-1.10,-2.42,-2.42,-2.41
258.00,-1.61,-1.61,0.79,0.79,-0.80,-0.73,-1.10,-2.41,-2.41,-2.40
260.58,-1.60,-1.60,0.79,0.78,-0.79,-0.72,-1.10,-2.39,-2.39,-2.39
263.19,-1.59,-1.59,0.77,0.78,-0.78,-0.72,-1.09,-2.37,-2.37,-2.37
265.82,-1.58,-1.58,0.77,0.77,-0.76,-0.71,-1.09,-2.35,-2.34,-2.35
268.48,-1.57,-1.57,0.76,0.76,-0.75,-0.71,-1.08,-2.32,-2.32,-2.33
271.16,-1.56,-1.56,0.74,0.74,-0.74,-0.70,-1.07,-2.30,-2.30,-2.30
273.87,-1.56,-1.56,0.73,0.72,-0.73,-0.69,-1.06,-2.29,-2.29,-2.29
276.61,-1.56,-1.56,0.70,0.71,-0.71,-0.69,-1.04,-2.27,-2.27,-2.26
279.38,-1.56,-1.56,0.69,0.69,-0.70,-0.68,-1.03,-2.26,-2.25,-2.25
282.17,-1.55,-1.55,0.68,0.68,-0.68,-0.68,-1.01,-2.23,-2.23,-2.24
284.99,-1.54,-1.54,0.67,0.67,-0.67,-0.67,-0.99,-2.21,-2.21,-2.21
287.84,-1.53,-1.54,0.66,0.66,-0.65,-0.67,-0.97,-2.19,-2.19,-2.19
290.72,-1.53,-1.53,0.64,0.64,-0.64,-0.66,-0.95,-2.17,-2.17,-2.17
293.63,-1.53,-1.53,0.62,0.62,-0.63,-0.66,-0.93,-2.16,-2.16,-2.15
296.57,-1.52,-1.52,0.61,0.61,-0.62,-0.65,-0.91,-2.14,-2.13,-2.13
299.53,-1.50,-1.50,0.61,0.61,-0.60,-0.65,-0.88,-2.10,-2.11,-2.11
302.53,-1.49,-1.49,0.60,0.60,-0.59,-0.64,-0.86,-2.08,-2.08,-2.10
305.55,-1.48,-1.49,0.58,0.58,-0.58,-0.64,-0.84,-2.06,-2.06,-2.06
308.61,-1.48,-1.48,0.56,0.56,-0.57,-0.64,-0.81,-2.05,-2.04,-2.04
311.69,-1.47,-1.47,0.55,0.55,-0.56,-0.63,-0.79,-2.03,-2.02,-2.02
314.81,-1.44,-1.45,0.54,0.54,-0.55,-0.63,-0.76,-1.99,-1.99,-1.98
317.96,-1.43,-1.43,0.53,0.54,-0.54,-0.62,-0.74,-1.97,-1.97,-1.96
321.14,-1.41,-1.41,0.54,0.53,-0.53,-0.62,-0.72,-1.94,-1.94,-1.95
324.35,-1.40,-1.40,0.53,0.52,-0.52,-0.61,-0.69,-1.92,-1.93,-1.93
327.59,-1.39,-1.39,0.51,0.52,-0.51,-0.61,-0.67,-1.91,-1.90,-1.90
330.87,-1.38,-1.38,0.50,0.51,-0.50,-0.61,-0.65,-1.89,-1.88,-1.89
334.18,-1.36,-1.36,0.51,0.50,-0.49,-0.60,-0.62,-1.85,-1.86,-1.87
337.52,-1.35,-1.36,0.50,0.49,-0.48,-0.60,-0.60,-1.83,-1.84,-1.85
340.90,-1.35,-1.35,0.47,0.47,-0.47,-0.59,-0.58,-1.83,-1.83,-1.82
344.30,-1.36,-1.36,0.44,0.45,-0.47,-0.59,-0.56,-1.83,-1.82,-1.81
347.75,-1.35,-1.35,0.44,0.44,-0.46,-0.58,-0.53,-1.81,-1.81,-1.79
351.23,-1.33,-1.33,0.44,0.44,-0.45,-0.58,-0.51,-1.78,-1.78,-1.77
354.74,-1.29,-1.30,0.46,0.45,-0.44,-0.58,-0.49,-1.73,-1.74,-1.75
358.28,-1.28,-1.28,0.45,0.46,-0.43,-0.57,-0.47,-1.71,-1.71,-1.73
361.87,-1.27,-1.27,0.45,0.44,-0.43,-0.57,-0.45,-1.70,-1.70,-1.72
365.49,-1.27,-1.28,0.43,0.42,-0.42,-0.56,-0.43,-1.69,-1.71,-1.70
369.14,-1.30,-1.28,0.39,0.40,-0.42,-0.56,-0.41,-1.72,-1.70,-1.69
372.83,-1.28,-1.28,0.39,0.40,-0.42,-0.55,-0.39,-1.70,-1.69,-1.67
376.56,-1.25,-1.26,0.41,0.40,-0.41,-0.55,-0.38,-1.66,-1.67,-1.66
380.33,-1.23,-1.23,0.40,0.41,-0.41,-0.54,-0.36,-1.64,-1.64,-1.64
384.13,-1.21,-1.22,0.42,0.41,-0.40,-0.54,-0.34,-1.61,-1.62,-1.63
387.97,-1.21,-1.21,0.41,0.41,-0.40,-0.53,-0.32,-1.61,-1.61,-1.62
391.85,-1.20,-1.20,0.41,0.40,-0.40,-0.53,-0.31,-1.60,-1.60,-1.61
395.77,-1.20,-1.20,0.39,0.39,-0.39,-0.53,-0.29,-1.59,-1.59,-1.59
399.73,-1.20,-1.20,0.38,0.38,-0.38,-0.52,-0.28,-1.58,-1.58,-1.58
403.72,-1.20,-1.20,0.37,0.37,-0.37,-0.52,-0.26,-1.58,-1.58,-1.57
407.76,-1.20,-1.20,0.36,0.36,-0.37,-0.51,-0.25,-1.57,-1.57,-1.57
411.84,-1.20,-1.20,0.35,0.35,-0.36,-0.51,-0.23,-1.56,-1.56,-1.55
415.96,-1.19,-1.20,0.35,0.34,-0.35,-0.50,-0.22,-1.54,-1.55,-1.54
420.12,-1.19,-1.19,0.34,0.34,-0.34,-0.50,-0.20,-1.54,-1.53,-1.53
424.32,-1.18,-1.18,0.34,0.35,-0.34,-0.49,-0.19,-1.52,-1.51,-1.52
428.56,-1.16,-1.17,0.35,0.34,-0.33,-0.49,-0.18,-1.49,-1.50,-1.51
432.85,-1.16,-1.17,0.34,0.33,-0.33,-0.48,-0.17,-1.49,-1.50,-1.50
437.18,-1.18,-1.17,0.31,0.32,-0.32,-0.48,-0.15,-1.50,-1.49,-1.49
441.55,-1.17,-1.17,0.30,0.31,-0.31,-0.47,-0.14,-1.49,-1.48,-1.48
445.96,-1.16,-1.17,0.30,0.30,-0.31,-0.47,-0.13,-1.47,-1.47,-1.47
450.42,-1.15,-1.16,0.31,0.30,-0.30,-0.46,-0.12,-1.45,-1.45,-1.46
454.93,-1.16,-1.15,0.28,0.29,-0.29,-0.46,-0.11,-1.45,-1.44,-1.44
459.48,-1.14,-1.15,0.29,0.28,-0.28,-0.45,-0.10,-1.42,-1.42,-1.43
464.07,-1.14,-1.14,0.27,0.27,-0.27,-0.45,-0.09,-1.41,-1.41,-1.41
468.71,-1.13,-1.13,0.26,0.26,-0.26,-0.44,-0.08,-1.39,-1.39,-1.39
473.40,-1.12,-1.13,0.26,0.25,-0.26,-0.44,-0.08,-1.38,-1.38,-1.38
