frequency,raw,error,smoothed,error_smoothed,equalization,parametric_eq,fixed_band_eq,equalized_raw,equalized_smoothed,target
20.00,-24.48,-20.98,-24.48,-21.01,6.00,5.46,2.77,-18.48,-18.48,-3.50
20.20,-24.32,-20.91,-24.32,-20.92,6.00,5.49,2.84,-18.32,-18.32,-3.41
20.40,-24.15,-20.82,-24.15,-20.83,6.00,5.52,2.92,-18.15,-18.15,-3.32
20.61,-23.99,-20.74,-23.99,-20.74,6.00,5.56,3.01,-17.99,-17.99,-3.26
20.81,-23.83,-20.66,-23.83,-20.65,6.00,5.59,3.09,-17.83,-17.83,-3.17
21.02,-23.66,-20.57,-23.66,-20.55,6.00,5.62,3.18,-17.66,-17.66,-3.09
21.23,-23.50,-20.47,-23.50,-20.45,6.00,5.65,3.27,-17.50,-17.50,-3.03
21.44,-23.33,-20.36,-23.34,-20.35,6.00,5.68,3.36,-17.33,-17.34,-2.97
21.66,-23.17,-20.25,-23.17,-20.24,6.00,5.71,3.46,-17.17,-17.17,-2.92
21.87,-23.01,-20.14,-23.00,-20.13,6.00,5.74,3.55,-17.01,-17.00,-2.87
22.09,-22.84,-20.02,-22.84,-20.02,6.00,5.77,3.65,-16.84,-16.84,-2.82
22.31,-22.67,-19.90,-22.67,-19.90,6.00,5.80,3.76,-16.67,-16.67,-2.77
22.54,-22.50,-19.77,-22.50,-19.78,6.00,5.83,3.86,-16.50,-16.50,-2.73
22.76,-22.34,-19.65,-22.34,-19.65,6.00,5.85,3.97,-16.34,-16.34,-2.69
22.99,-22.17,-19.51,-22.17,-19.52,6.00,5.88,4.08,-16.17,-16.17,-2.66
23.22,-22.00,-19.38,-22.00,-19.39,6.00,5.91,4.20,-16.00,-16.00,-2.62
23.45,-21.83,-19.25,-21.83,-19.26,6.00,5.93,4.31,-15.83,-15.83,-2.58
23.69,-21.66,-19.12,-21.66,-19.12,6.00,5.96,4.43,-15.66,-15.66,-2.54
23.92,-21.49,-18.99,-21.49,-18.99,6.00,5.98,4.55,-15.49,-15.49,-2.50
24.16,-21.31,-18.86,-21.32,-18.85,6.00,6.00,4.67,-15.31,-15.32,-2.45
24.40,-21.14,-18.72,-21.14,-18.72,6.00,6.03,4.80,-15.14,-15.14,-2.42
24.65,-20.97,-18.58,-20.97,-18.58,6.00,6.05,4.93,-14.97,-14.97,-2.39
24.89,-20.80,-18.44,-20.80,-18.44,6.00,6.07,5.05,-14.80,-14.80,-2.36
25.14,-20.63,-18.31,-20.63,-18.30,6.00,6.09,5.18,-14.63,-14.63,-2.32
25.39,-20.46,-18.16,-20.46,-18.16,6.00,6.11,5.32,-14.46,-14.46,-2.29
25.65,-20.29,-18.04,-20.28,-18.03,6.00,6.13,5.45,-14.29,-14.28,-2.25
25.91,-20.11,-17.88,-20.11,-17.88,6.00,6.15,5.58,-14.11,-14.11,-2.23
26.16,-19.94,-17.73,-19.94,-17.74,6.00,6.17,5.71,-13.94,-13.94,-2.20
26.43,-19.77,-17.61,-19.77,-17.60,6.00,6.19,5.84,-13.77,-13.77,-2.17
26.69,-19.59,-17.45,-19.59,-17.46,6.00,6.20,5.97,-13.59,-13.59,-2.14
26.96,-19.42,-17.31,-19.42,-17.32,6.00,6.22,6.10,-13.42,-13.42,-2.11
27.23,-19.25,-17.18,-19.25,-17.17,6.00,6.23,6.23,-13.25,-13.25,-2.07
27.50,-19.07,-17.03,-19.07,-17.03,6.00,6.25,6.36,-13.07,-13.07,-2.04
27.77,-18.90,-16.88,-18.90,-16.89,6.00,6.26,6.48,-12.90,-12.90,-2.02
28.05,-18.73,-16.75,-18.73,-16.74,6.00,6.27,6.59,-12.73,-12.73,-1.98
28.33,-18.56,-16.60,-18.55,-16.60,6.00,6.28,6.70,-12.56,-12.55,-1.96
28.62,-18.38,-16.45,-18.38,-16.46,6.00,6.30,6.81,-12.38,-12.38,-1.93
28.90,-18.21,-16.32,-18.21,-16.32,6.00,6.31,6.91,-12.21,-12.21,-1.89
29.19,-18.04,-16.17,-18.04,-16.17,6.00,6.32,7.00,-12.04,-12.04,-1.87
29.48,-17.86,-16.03,-17.87,-16.03,6.00,6.32,7.08,-11.86,-11.87,-1.82
29.78,-17.69,-15.89,-17.70,-15.89,6.00,6.33,7.16,-11.69,-11.70,-1.81
30.08,-17.52,-15.75,-17.52,-15.75,6.00,6.34,7.22,-11.52,-11.52,-1.78
30.38,-17.35,-15.60,-17.35,-15.60,6.00,6.34,7.28,-11.35,-11.35,-1.75
30.68,-17.18,-15.46,-17.19,-15.46,6.00,6.35,7.33,-11.18,-11.19,-1.72
30.99,-17.02,-15.32,-17.02,-15.32,6.00,6.35,7.36,-11.02,-11.02,-1.70
31.30,-16.85,-15.18,-16.85,-15.18,6.00,6.36,7.39,-10.85,-10.85,-1.67
31.61,-16.69,-15.05,-16.68,-15.04,6.00,6.36,7.40,-10.69,-10.68,-1.64
31.93,-16.52,-14.90,-16.52,-14.90,6.00,6.36,7.41,-10.52,-10.52,-1.62
32.24,-16.35,-14.74,-16.35,-14.76,6.00,6.36,7.40,-10.35,-10.35,-1.60
32.57,-16.19,-14.62,-16.19,-14.62,6.00,6.36,7.39,-10.19,-10.19,-1.58
32.89,-16.02,-14.47,-16.03,-14.47,6.00,6.36,7.36,-10.02,-10.03,-1.55
33.22,-15.86,-14.33,-15.86,-14.33,6.00,6.36,7.33,-9.86,-9.86,-1.53
33.55,-15.70,-14.19,-15.70,-14.19,6.00,6.36,7.28,-9.70,-9.70,-1.51
33.89,-15.54,-14.04,-15.54,-14.04,6.00,6.36,7.24,-9.54,-9.54,-1.50
34.23,-15.38,-13.91,-15.38,-13.90,6.00,6.35,7.18,-9.38,-9.38,-1.47
34.57,-15.22,-13.75,-15.22,-13.75,6.00,6.35,7.12,-9.22,-9.22,-1.47
34.92,-15.06,-13.60,-15.06,-13.60,6.00,6.34,7.05,-9.06,-9.06,-1.46
35.27,-14.90,-13.46,-14.90,-13.45,6.00,6.34,6.98,-8.90,-8.90,-1.44
35.62,-14.74,-13.30,-14.74,-13.30,6.00,6.33,6.91,-8.74,-8.74,-1.44
35.97,-14.58,-13.14,-14.58,-13.15,6.00,6.32,6.83,-8.58,-8.58,-1.43
36.33,-14.42,-13.00,-14.42,-13.00,6.00,6.31,6.75,-8.42,-8.42,-1.42
36.70,-14.26,-12.84,-14.27,-12.85,6.00,6.30,6.67,-8.26,-8.27,-1.42
37.06,-14.10,-12.68,-14.11,-12.69,6.00,6.29,6.59,-8.10,-8.11,-1.42
37.43,-13.95,-12.54,-13.95,-12.54,6.00,6.28,6.51,-7.95,-7.95,-1.41
37.81,-13.81,-12.40,-13.80,-12.38,6.00,6.27,6.43,-7.81,-7.80,-1.42
38.19,-13.65,-12.23,-13.64,-12.23,6.00,6.26,6.35,-7.65,-7.64,-1.42
38.57,-13.50,-12.09,-13.49,-12.07,6.00,6.24,6.27,-7.50,-7.49,-1.41
38.95,-13.34,-11.92,-13.33,-11.91,6.00,6.23,6.20,-7.34,-7.33,-1.41
39.34,-13.18,-11.75,-13.18,-11.76,6.00,6.21,6.12,-7.18,-7.18,-1.43
39.74,-13.02,-11.59,-13.02,-11.60,6.00,6.20,6.05,-7.02,-7.02,-1.43
40.14,-12.87,-11.44,-12.87,-11.44,6.00,6.18,5.98,-6.87,-6.87,-1.43
40.54,-12.71,-11.28,-12.71,-11.28,6.00,6.16,5.92,-6.71,-6.71,-1.44
40.94,-12.56,-11.12,-12.56,-11.12,6.00,6.14,5.86,-6.56,-6.56,-1.44
41.35,-12.41,-10.97,-12.41,-10.97,6.00,6.12,5.80,-6.41,-6.41,-1.44
41.76,-12.26,-10.81,-12.25,-10.80,6.00,6.10,5.75,-6.26,-6.25,-1.45
42.18,-12.10,-10.65,-12.10,-10.64,6.00,6.08,5.70,-6.10,-6.10,-1.45
42.60,-11.95,-10.48,-11.95,-10.49,6.00,6.06,5.65,-5.95,-5.95,-1.46
43.03,-11.80,-10.34,-11.80,-10.33,6.00,6.04,5.61,-5.80,-5.80,-1.46
43.46,-11.65,-10.18,-11.66,-10.17,6.00,6.02,5.57,-5.65,-5.66,-1.47
43.90,-11.51,-10.02,-11.51,-10.02,6.00,6.00,5.54,-5.51,-5.51,-1.49
44.33,-11.36,-9.86,-11.36,-9.87,6.00,5.97,5.51,-5.36,-5.36,-1.50
44.78,-11.22,-9.71,-11.22,-9.72,6.00,5.95,5.48,-5.22,-5.22,-1.51
45.23,-11.08,-9.56,-11.08,-9.56,6.00,5.92,5.46,-5.08,-5.08,-1.52
45.68,-10.93,-9.40,-10.93,-9.41,6.00,5.90,5.44,-4.93,-4.93,-1.53
46.13,-10.79,-9.26,-10.79,-9.26,6.00,5.87,5.43,-4.79,-4.79,-1.53
46.60,-10.66,-9.13,-10.65,-9.12,6.00,5.84,5.42,-4.66,-4.65,-1.53
47.06,-10.52,-8.98,-10.51,-8.97,6.00,5.81,5.41,-4.52,-4.51,-1.54
47.53,-10.38,-8.84,-10.38,-8.83,6.00,5.79,5.41,-4.38,-4.38,-1.54
48.01,-10.24,-8.70,-10.24,-8.69,6.00,5.76,5.41,-4.24,-4.24,-1.54
48.49,-10.10,-8.56,-10.11,-8.55,6.00,5.73,5.42,-4.10,-4.11,-1.54
48.97,-9.97,-8.42,-9.98,-8.42,6.00,5.70,5.43,-3.97,-3.98,-1.55
49.46,-9.84,-8.27,-9.85,-8.29,6.00,5.67,5.44,-3.84,-3.85,-1.57
49.96,-9.71,-8.14,-9.72,-8.17,6.00,5.64,5.45,-3.71,-3.72,-1.58
50.46,-9.59,-8.03,-9.60,-8.04,6.00,5.61,5.47,-3.59,-3.60,-1.56
50.96,-9.47,-7.92,-9.47,-7.92,6.00,5.57,5.49,-3.47,-3.47,-1.55
51.47,-9.36,-7.80,-9.35,-7.80,6.00,5.54,5.51,-3.36,-3.35,-1.56
51.99,-9.24,-7.68,-9.24,-7.68,6.00,5.51,5.54,-3.24,-3.24,-1.56
52.51,-9.13,-7.58,-9.12,-7.57,6.00,5.47,5.56,-3.13,-3.12,-1.55
53.03,-9.01,-7.46,-9.02,-7.46,6.00,5.44,5.59,-3.01,-3.02,-1.55
53.56,-8.91,-7.36,-8.91,-7.35,6.00,5.41,5.61,-2.91,-2.91,-1.54
54.10,-8.80,-7.26,-8.80,-7.25,6.00,5.37,5.64,-2.80,-2.80,-1.54
54.64,-8.69,-7.14,-8.70,-7.14,6.00,5.34,5.66,-2.69,-2.70,-1.55
55.18,-8.59,-7.03,-8.60,-7.04,6.00,5.30,5.69,-2.59,-2.60,-1.56
55.74,-8.49,-6.92,-8.50,-6.94,6.00,5.26,5.71,-2.49,-2.50,-1.57
56.29,-8.40,-6.83,-8.40,-6.83,6.00,5.23,5.73,-2.40,-2.40,-1.57
56.86,-8.30,-6.72,-8.30,-6.72,6.00,5.19,5.75,-2.30,-2.30,-1.58
57.42,-8.21,-6.62,-8.20,-6.62,6.00,5.15,5.77,-2.21,-2.20,-1.59
58.00,-8.12,-6.53,-8.11,-6.51,6.00,5.12,5.78,-2.12,-2.11,-1.59
58.58,-8.02,-6.41,-8.01,-6.40,6.00,5.08,5.79,-2.02,-2.01,-1.61
59.16,-7.91,-6.30,-7.91,-6.29,5.99,5.04,5.79,-1.92,-1.93,-1.61
59.76,-7.81,-6.19,-7.82,-6.18,5.96,5.00,5.79,-1.85,-1.86,-1.62
60.35,-7.72,-6.07,-7.73,-6.07,5.92,4.96,5.79,-1.80,-1.81,-1.65
60.96,-7.64,-5.99,-7.63,-5.96,5.86,4.92,5.77,-1.78,-1.77,-1.65
61.57,-7.54,-5.85,-7.54,-5.85,5.79,4.88,5.76,-1.75,-1.75,-1.69
62.18,-7.44,-5.73,-7.45,-5.75,5.72,4.84,5.73,-1.72,-1.73,-1.71
62.80,-7.35,-5.63,-7.35,-5.64,5.63,4.80,5.70,-1.72,-1.72,-1.72
63.43,-7.26,-5.52,-7.26,-5.53,5.53,4.76,5.67,-1.73,-1.73,-1.74
64.07,-7.17,-5.42,-7.17,-5.43,5.43,4.72,5.63,-1.74,-1.74,-1.75
64.71,-7.07,-5.31,-7.07,-5.32,5.32,4.68,5.58,-1.75,-1.75,-1.76
65.35,-6.98,-5.21,-6.98,-5.22,5.22,4.64,5.53,-1.75,-1.76,-1.77
66.01,-6.90,-5.13,-6.89,-5.13,5.13,4.60,5.47,-1.77,-1.76,-1.77
66.67,-6.81,-5.05,-6.80,-5.03,5.03,4.56,5.40,-1.78,-1.76,-1.76
67.33,-6.71,-4.95,-6.71,-4.94,4.94,4.52,5.34,-1.77,-1.77,-1.76
68.01,-6.61,-4.85,-6.62,-4.85,4.85,4.48,5.26,-1.76,-1.76,-1.76
68.69,-6.52,-4.76,-6.53,-4.76,4.76,4.43,5.18,-1.76,-1.76,-1.76
69.37,-6.43,-4.67,-6.44,-4.68,4.68,4.39,5.10,-1.75,-1.76,-1.76
70.07,-6.35,-4.59,-6.35,-4.59,4.59,4.35,5.02,-1.76,-1.76,-1.76
70.77,-6.26,-4.52,-6.26,-4.51,4.51,4.31,4.93,-1.75,-1.75,-1.74
71.48,-6.17,-4.43,-6.17,-4.42,4.42,4.26,4.84,-1.75,-1.75,-1.74
72.19,-6.09,-4.34,-6.08,-4.33,4.33,4.22,4.75,-1.76,-1.75,-1.75
72.91,-6.00,-4.26,-6.00,-4.25,4.25,4.18,4.66,-1.75,-1.75,-1.74
73.64,-5.92,-4.17,-5.91,-4.17,4.17,4.13,4.57,-1.75,-1.75,-1.75
74.38,-5.83,-4.09,-5.83,-4.08,4.08,4.09,4.48,-1.75,-1.75,-1.74
75.12,-5.75,-4.00,-5.75,-4.00,4.00,4.05,4.38,-1.75,-1.75,-1.75
75.87,-5.67,-3.93,-5.67,-3.92,3.92,4.00,4.29,-1.74,-1.75,-1.74
76.63,-5.59,-3.85,-5.59,-3.85,3.85,3.96,4.20,-1.74,-1.75,-1.74
77.40,-5.51,-3.76,-5.51,-3.77,3.77,3.91,4.10,-1.74,-1.74,-1.75
78.17,-5.43,-3.67,-5.44,-3.70,3.70,3.87,4.01,-1.73,-1.74,-1.76
78.95,-5.36,-3.62,-5.37,-3.63,3.63,3.82,3.92,-1.73,-1.74,-1.74
79.74,-5.30,-3.56,-5.30,-3.56,3.56,3.78,3.83,-1.74,-1.73,-1.74
80.54,-5.24,-3.50,-5.23,-3.50,3.50,3.73,3.75,-1.74,-1.73,-1.74
81.35,-5.17,-3.44,-5.17,-3.45,3.45,3.68,3.66,-1.72,-1.72,-1.73
82.16,-5.11,-3.39,-5.11,-3.40,3.40,3.64,3.58,-1.71,-1.71,-1.72
82.98,-5.04,-3.34,-5.05,-3.35,3.35,3.59,3.49,-1.69,-1.70,-1.70
83.81,-4.98,-3.29,-4.99,-3.30,3.30,3.54,3.41,-1.68,-1.69,-1.69
84.65,-4.92,-3.24,-4.94,-3.26,3.26,3.50,3.34,-1.66,-1.67,-1.68
85.50,-4.88,-3.22,-4.88,-3.22,3.22,3.45,3.26,-1.66,-1.66,-1.66
86.35,-4.83,-3.19,-4.83,-3.19,3.19,3.40,3.19,-1.64,-1.65,-1.64
87.22,-4.79,-3.15,-4.79,-3.15,3.15,3.35,3.12,-1.64,-1.63,-1.64
88.09,-4.75,-3.13,-4.74,-3.11,3.11,3.30,3.05,-1.64,-1.62,-1.62
88.97,-4.70,-3.09,-4.69,-3.08,3.08,3.24,2.98,-1.62,-1.62,-1.61
89.86,-4.66,-3.06,-4.65,-3.04,3.04,3.19,2.92,-1.62,-1.61,-1.60
90.76,-4.60,-2.99,-4.61,-3.00,3.00,3.14,2.86,-1.60,-1.61,-1.61
91.66,-4.56,-2.95,-4.57,-2.96,2.96,3.08,2.80,-1.60,-1.61,-1.61
92.58,-4.52,-2.90,-4.53,-2.91,2.91,3.02,2.74,-1.61,-1.62,-1.62
93.51,-4.49,-2.87,-4.49,-2.86,2.86,2.96,2.68,-1.63,-1.63,-1.62
94.44,-4.45,-2.81,-4.44,-2.80,2.80,2.90,2.63,-1.65,-1.65,-1.64
95.39,-4.41,-2.76,-4.40,-2.73,2.73,2.84,2.58,-1.68,-1.67,-1.65
96.34,-4.37,-2.69,-4.36,-2.67,2.67,2.77,2.53,-1.70,-1.69,-1.68
97.30,-4.33,-2.61,-4.32,-2.60,2.60,2.70,2.48,-1.73,-1.72,-1.72
98.28,-4.29,-2.54,-4.28,-2.52,2.52,2.63,2.44,-1.77,-1.75,-1.75
99.26,-4.25,-2.46,-4.24,-2.45,2.45,2.56,2.39,-1.80,-1.79,-1.79
100.25,-4.20,-2.37,-4.20,-2.37,2.37,2.48,2.35,-1.83,-1.83,-1.83
101.25,-4.15,-2.28,-4.16,-2.30,2.30,2.39,2.31,-1.85,-1.86,-1.87
102.27,-4.10,-2.19,-4.12,-2.22,2.22,2.31,2.27,-1.88,-1.91,-1.91
103.29,-4.08,-2.12,-4.08,-2.14,2.14,2.22,2.23,-1.94,-1.95,-1.96
104.32,-4.06,-2.07,-4.05,-2.06,2.06,2.12,2.20,-2.00,-1.99,-1.99
105.37,-4.02,-1.99,-4.02,-1.99,1.99,2.03,2.16,-2.03,-2.03,-2.03
106.42,-3.99,-1.92,-3.99,-1.92,1.92,1.93,2.13,-2.07,-2.07,-2.07
107.48,-3.97,-1.86,-3.97,-1.86,1.86,1.84,2.10,-2.11,-2.11,-2.11
108.56,-3.94,-1.79,-3.95,-1.80,1.80,1.76,2.07,-2.14,-2.15,-2.15
109.64,-3.92,-1.73,-3.93,-1.74,1.74,1.68,2.04,-2.18,-2.19,-2.19
110.74,-3.90,-1.68,-3.92,-1.70,1.70,1.62,2.01,-2.20,-2.22,-2.22
111.85,-3.89,-1.64,-3.91,-1.65,1.65,1.57,1.98,-2.24,-2.26,-2.25
112.97,-3.89,-1.59,-3.90,-1.61,1.61,1.54,1.96,-2.28,-2.29,-2.30
114.10,-3.90,-1.58,-3.90,-1.58,1.58,1.52,1.93,-2.32,-2.32,-2.32
115.24,-3.91,-1.55,-3.89,-1.54,1.54,1.52,1.91,-2.37,-2.35,-2.36
116.39,-3.91,-1.53,-3.89,-1.51,1.51,1.53,1.88,-2.40,-2.37,-2.38
117.55,-3.91,-1.51,-3.89,-1.49,1.49,1.54,1.86,-2.42,-2.40,-2.40
118.73,-3.91,-1.48,-3.89,-1.47,1.47,1.57,1.83,-2.44,-2.42,-2.43
119.92,-3.91,-1.47,-3.89,-1.46,1.46,1.59,1.81,-2.45,-2.43,-2.44
121.12,-3.90,-1.45,-3.90,-1.45,1.45,1.62,1.79,-2.45,-2.45,-2.45
122.33,-3.89,-1.42,-3.90,-1.44,1.44,1.64,1.76,-2.45,-2.47,-2.47
123.55,-3.89,-1.42,-3.91,-1.43,1.43,1.66,1.74,-2.46,-2.48,-2.47
124.79,-3.90,-1.41,-3.92,-1.43,1.43,1.68,1.72,-2.47,-2.49,-2.49
126.03,-3.92,-1.43,-3.93,-1.43,1.43,1.69,1.69,-2.49,-2.50,-2.49
127.29,-3.93,-1.42,-3.95,-1.43,1.43,1.70,1.67,-2.50,-2.52,-2.51
128.57,-3.96,-1.43,-3.97,-1.44,1.44,1.71,1.65,-2.52,-2.53,-2.53
129.85,-4.00,-1.46,-3.99,-1.45,1.45,1.71,1.63,-2.55,-2.54,-2.54
131.15,-4.03,-1.48,-4.01,-1.46,1.46,1.71,1.60,-2.57,-2.55,-2.55
132.46,-4.05,-1.48,-4.04,-1.48,1.48,1.71,1.58,-2.57,-2.57,-2.57
133.79,-4.08,-1.51,-4.08,-1.49,1.49,1.70,1.56,-2.59,-2.58,-2.57
135.12,-4.11,-1.51,-4.11,-1.51,1.51,1.69,1.54,-2.60,-2.60,-2.60
136.48,-4.13,-1.52,-4.15,-1.53,1.53,1.68,1.52,-2.60,-2.61,-2.61
137.84,-4.17,-1.54,-4.18,-1.55,1.55,1.67,1.50,-2.62,-2.63,-2.63
139.22,-4.20,-1.54,-4.22,-1.57,1.57,1.66,1.47,-2.63,-2.65,-2.66
140.61,-4.25,-1.57,-4.25,-1.58,1.58,1.64,1.45,-2.67,-2.67,-2.68
142.02,-4.31,-1.63,-4.29,-1.60,1.60,1.63,1.43,-2.71,-2.69,-2.68
143.44,-4.33,-1.63,-4.32,-1.61,1.61,1.61,1.41,-2.72,-2.71,-2.70
144.87,-4.37,-1.64,-4.35,-1.62,1.62,1.60,1.39,-2.75,-2.73,-2.73
146.32,-4.39,-1.63,-4.38,-1.63,1.63,1.58,1.37,-2.76,-2.75,-2.76
147.78,-4.42,-1.65,-4.41,-1.64,1.64,1.56,1.36,-2.78,-2.78,-2.77
149.26,-4.45,-1.65,-4.44,-1.64,1.64,1.54,1.34,-2.81,-2.80,-2.80
150.75,-4.48,-1.65,-4.47,-1.64,1.64,1.52,1.32,-2.84,-2.83,-2.83
152.26,-4.49,-1.63,-4.49,-1.64,1.64,1.51,1.30,-2.85,-2.86,-2.86
153.78,-4.52,-1.64,-4.52,-1.63,1.63,1.49,1.29,-2.89,-2.89,-2.88
155.32,-4.53,-1.62,-4.54,-1.62,1.62,1.47,1.27,-2.91,-2.92,-2.91
156.88,-4.57,-1.63,-4.56,-1.61,1.61,1.45,1.26,-2.96,-2.95,-2.94
158.44,-4.58,-1.60,-4.58,-1.60,1.60,1.43,1.24,-2.98,-2.98,-2.98
160.03,-4.61,-1.60,-4.61,-1.60,1.60,1.41,1.23,-3.01,-3.01,-3.01
161.63,-4.63,-1.58,-4.64,-1.59,1.59,1.39,1.22,-3.04,-3.04,-3.05
163.24,-4.64,-1.56,-4.66,-1.59,1.59,1.37,1.20,-3.05,-3.08,-3.08
164.88,-4.68,-1.57,-4.69,-1.58,1.58,1.35,1.19,-3.10,-3.11,-3.11
166.53,-4.70,-1.56,-4.72,-1.58,1.58,1.33,1.18,-3.12,-3.14,-3.14
168.19,-4.73,-1.56,-4.75,-1.58,1.58,1.31,1.17,-3.15,-3.17,-3.17
169.87,-4.78,-1.58,-4.78,-1.58,1.58,1.29,1.16,-3.20,-3.20,-3.20
171.57,-4.80,-1.57,-4.80,-1.57,1.57,1.27,1.16,-3.23,-3.23,-3.23
173.29,-4.83,-1.58,-4.82,-1.57,1.57,1.25,1.15,-3.26,-3.25,-3.25
175.02,-4.87,-1.59,-4.84,-1.56,1.56,1.23,1.14,-3.31,-3.28,-3.28
176.77,-4.89,-1.58,-4.86,-1.56,1.56,1.21,1.14,-3.33,-3.30,-3.31
178.54,-4.90,-1.57,-4.88,-1.55,1.55,1.19,1.13,-3.35,-3.32,-3.33
180.32,-4.91,-1.56,-4.89,-1.55,1.55,1.17,1.13,-3.36,-3.34,-3.35
182.13,-4.91,-1.55,-4.90,-1.54,1.54,1.15,1.13,-3.37,-3.36,-3.36
183.95,-4.90,-1.53,-4.90,-1.53,1.53,1.13,1.13,-3.37,-3.37,-3.37
185.79,-4.89,-1.50,-4.91,-1.52,1.52,1.11,1.12,-3.37,-3.39,-3.39
187.65,-4.89,-1.49,-4.91,-1.51,1.51,1.10,1.12,-3.38,-3.40,-3.40
189.52,-4.89,-1.49,-4.91,-1.50,1.50,1.08,1.12,-3.39,-3.41,-3.40
191.42,-4.89,-1.47,-4.91,-1.49,1.49,1.06,1.12,-3.40,-3.42,-3.42
193.33,-4.89,-1.47,-4.91,-1.48,1.48,1.04,1.13,-3.41,-3.42,-3.42
195.27,-4.89,-1.47,-4.91,-1.48,1.48,1.02,1.13,-3.41,-3.43,-3.42
197.22,-4.89,-1.46,-4.91,-1.47,1.47,1.01,1.13,-3.42,-3.44,-3.43
199.19,-4.90,-1.45,-4.90,-1.46,1.46,0.99,1.13,-3.44,-3.44,-3.45
201.18,-4.91,-1.46,-4.90,-1.45,1.45,0.97,1.14,-3.46,-3.45,-3.45
203.19,-4.91,-1.46,-4.89,-1.44,1.44,0.95,1.14,-3.47,-3.46,-3.45
205.23,-4.90,-1.44,-4.89,-1.42,1.42,0.94,1.14,-3.48,-3.46,-3.46
207.28,-4.89,-1.43,-4.87,-1.40,1.40,0.92,1.15,-3.49,-3.47,-3.46
209.35,-4.88,-1.41,-4.86,-1.38,1.38,0.90,1.15,-3.50,-3.48,-3.47
211.44,-4.86,-1.37,-4.84,-1.35,1.35,0.89,1.16,-3.51,-3.48,-3.49
213.56,-4.83,-1.34,-4.81,-1.32,1.32,0.87,1.16,-3.51,-3.49,-3.49
215.69,-4.79,-1.30,-4.79,-1.29,1.29,0.85,1.17,-3.50,-3.50,-3.49
217.85,-4.75,-1.24,-4.75,-1.25,1.25,0.84,1.17,-3.50,-3.50,-3.51
220.03,-4.73,-1.22,-4.72,-1.21,1.21,0.82,1.18,-3.52,-3.51,-3.51
222.23,-4.70,-1.17,-4.69,-1.17,1.17,0.81,1.18,-3.53,-3.52,-3.53
224.45,-4.66,-1.13,-4.66,-1.13,1.13,0.79,1.19,-3.53,-3.53,-3.53
226.70,-4.62,-1.08,-4.64,-1.10,1.10,0.78,1.19,-3.52,-3.54,-3.54
228.96,-4.59,-1.05,-4.62,-1.07,1.07,0.76,1.20,-3.52,-3.55,-3.54
231.25,-4.57,-1.02,-4.60,-1.04,1.04,0.75,1.20,-3.53,-3.56,-3.55
233.57,-4.55,-0.99,-4.59,-1.01,1.01,0.73,1.20,-3.54,-3.57,-3.56
235.90,-4.54,-0.96,-4.58,-0.99,0.99,0.72,1.20,-3.55,-3.58,-3.58
238.26,-4.54,-0.94,-4.57,-0.97,0.97,0.71,1.20,-3.57,-3.60,-3.60
240.64,-4.56,-0.95,-4.56,-0.96,0.96,0.69,1.20,-3.60,-3.60,-3.61
243.05,-4.57,-0.95,-4.56,-0.94,0.94,0.68,1.20,-3.63,-3.61,-3.62
245.48,-4.58,-0.96,-4.55,-0.93,0.93,0.66,1.20,-3.65,-3.62,-3.62
247.93,-4.58,-0.95,-4.54,-0.92,0.92,0.65,1.20,-3.66,-3.62,-3.63
250.41,-4.56,-0.92,-4.53,-0.91,0.91,0.64,1.19,-3.65,-3.62,-3.64
252.92,-4.54,-0.91,-4.52,-0.89,0.89,0.62,1.19,-3.65,-3.62,-3.63
255.45,-4.52,-0.90,-4.50,-0.88,0.88,0.61,1.18,-3.64,-3.62,-3.62
258.00,-4.50,-0.88,-4.48,-0.86,0.86,0.60,1.17,-3.64,-3.61,-3.62
260.58,-4.46,-0.85,-4.45,-0.85,0.85,0.59,1.16,-3.61,-3.60,-3.61
263.19,-4.43,-0.84,-4.43,-0.83,0.83,0.57,1.15,-3.60,-3.59,-3.59
265.82,-4.39,-0.80,-4.40,-0.82,0.82,0.56,1.14,-3.57,-3.58,-3.59
268.48,-4.36,-0.80,-4.37,-0.80,0.80,0.55,1.13,-3.56,-3.56,-3.56
271.16,-4.33,-0.79,-4.34,-0.80,0.80,0.54,1.12,-3.53,-3.55,-3.54
273.87,-4.29,-0.76,-4.32,-0.79,0.79,0.53,1.11,-3.50,-3.53,-3.53
276.61,-4.26,-0.76,-4.30,-0.78,0.78,0.51,1.10,-3.48,-3.51,-3.50
279.38,-4.25,-0.76,-4.28,-0.78,0.78,0.50,1.08,-3.47,-3.50,-3.49
282.17,-4.24,-0.76,-4.26,-0.78,0.78,0.49,1.07,-3.46,-3.48,-3.48
284.99,-4.24,-0.78,-4.25,-0.79,0.79,0.48,1.05,-3.45,-3.46,-3.46
287.84,-4.24,-0.80,-4.23,-0.79,0.79,0.47,1.04,-3.45,-3.44,-3.44
290.72,-4.24,-0.82,-4.22,-0.80,0.80,0.46,1.02,-3.44,-3.42,-3.42
293.63,-4.23,-0.82,-4.20,-0.80,0.80,0.45,1.01,-3.43,-3.40,-3.41
296.57,-4.22,-0.84,-4.18,-0.80,0.80,0.43,1.00,-3.42,-3.38,-3.38
299.53,-4.19,-0.83,-4.17,-0.80,0.80,0.42,0.98,-3.39,-3.36,-3.36
302.53,-4.16,-0.80,-4.14,-0.81,0.81,0.41,0.97,-3.36,-3.34,-3.36
305.55,-4.13,-0.81,-4.12,-0.80,0.80,0.40,0.95,-3.33,-3.32,-3.32
308.61,-4.10,-0.80,-4.09,-0.80,0.80,0.39,0.94,-3.30,-3.30,-3.30
311.69,-4.06,-0.79,-4.06,-0.79,0.79,0.38,0.92,-3.27,-3.27,-3.27
314.81,-4.04,-0.81,-4.03,-0.79,0.79,0.37,0.91,-3.25,-3.25,-3.23
317.96,-4.00,-0.78,-4.01,-0.78,0.78,0.36,0.90,-3.22,-3.23,-3.22
321.14,-3.97,-0.77,-3.98,-0.78,0.78,0.35,0.88,-3.19,-3.20,-3.20
324.35,-3.94,-0.76,-3.96,-0.79,0.79,0.34,0.87,-3.15,-3.18,-3.18
327.59,-3.92,-0.77,-3.95,-0.80,0.80,0.33,0.86,-3.12,-3.15,-3.15
330.87,-3.91,-0.78,-3.94,-0.81,0.81,0.32,0.85,-3.10,-3.13,-3.13
334.18,-3.89,-0.79,-3.93,-0.83,0.83,0.31,0.84,-3.06,-3.10,-3.10
337.52,-3.89,-0.80,-3.92,-0.84,0.84,0.30,0.83,-3.05,-3.08,-3.09
340.90,-3.90,-0.84,-3.92,-0.86,0.86,0.29,0.82,-3.04,-3.06,-3.06
344.30,-3.93,-0.90,-3.91,-0.88,0.88,0.28,0.81,-3.05,-3.03,-3.03
347.75,-3.94,-0.93,-3.91,-0.90,0.90,0.27,0.80,-3.04,-3.01,-3.01
351.23,-3.94,-0.96,-3.90,-0.92,0.92,0.26,0.79,-3.02,-2.98,-2.98
354.74,-3.93,-0.98,-3.89,-0.94,0.94,0.26,0.79,-2.99,-2.96,-2.95
358.28,-3.90,-0.97,-3.88,-0.95,0.95,0.25,0.78,-2.95,-2.93,-2.93
361.87,-3.89,-0.99,-3.87,-0.96,0.96,0.24,0.77,-2.93,-2.91,-2.90
365.49,-3.86,-0.98,-3.85,-0.97,0.97,0.23,0.77,-2.89,-2.88,-2.88
369.14,-3.83,-0.96,-3.82,-0.97,0.97,0.22,0.76,-2.86,-2.86,-2.87
372.83,-3.80,-0.96,-3.79,-0.96,0.96,0.21,0.76,-2.84,-2.83,-2.84
376.56,-3.76,-0.94,-3.76,-0.95,0.95,0.20,0.76,-2.81,-2.81,-2.82
380.33,-3.73,-0.95,-3.73,-0.94,0.94,0.19,0.75,-2.79,-2.79,-2.78
384.13,-3.69,-0.92,-3.70,-0.93,0.93,0.18,0.75,-2.76,-2.77,-2.77
387.97,-3.66,-0.91,-3.67,-0.92,0.92,0.17,0.75,-2.74,-2.75,-2.75
391.85,-3.63,-0.89,-3.65,-0.91,0.91,0.16,0.75,-2.72,-2.74,-2.74
395.77,-3.61,-0.90,-3.63,-0.90,0.90,0.15,0.75,-2.71,-2.72,-2.71
399.73,-3.59,-0.89,-3.61,-0.90,0.90,0.15,0.74,-2.69,-2.71,-2.70
403.72,-3.57,-0.87,-3.60,-0.90,0.90,0.14,0.74,-2.67,-2.70,-2.70
407.76,-3.56,-0.87,-3.60,-0.90,0.90,0.13,0.74,-2.66,-2.70,-2.69
411.84,-3.57,-0.88,-3.59,-0.90,0.90,0.12,0.74,-2.67,-2.69,-2.69
415.96,-3.58,-0.89,-3.59,-0.90,0.90,0.11,0.74,-2.68,-2.69,-2.69
