frequency,raw,error,smoothed,error_smoothed,equalization,parametric_eq,equalized_raw,equalized_smoothed,target
20,-23.16,-21.73,-23.17,-21.75,6.00,2.61,-17.16,-17.17,-1.43
21,-22.54,-21.11,-22.48,-21.06,6.00,2.98,-16.54,-16.48,-1.43
22,-21.78,-20.35,-21.82,-20.39,6.00,3.40,-15.78,-15.82,-1.43
23,-21.15,-19.72,-21.17,-19.74,6.00,3.84,-15.15,-15.17,-1.43
24,-20.61,-19.17,-20.55,-19.11,6.00,4.32,-14.61,-14.55,-1.44
25,-19.86,-18.42,-19.95,-18.51,6.00,4.81,-13.86,-13.95,-1.44
26,-19.37,-17.93,-19.37,-17.93,6.00,5.30,-13.37,-13.37,-1.44
27,-18.99,-17.54,-18.82,-17.37,6.00,5.77,-12.99,-12.82,-1.45
28,-18.20,-16.75,-18.29,-16.84,6.00,6.19,-12.20,-12.29,-1.45
29,-17.72,-16.26,-17.78,-16.32,6.00,6.55,-11.72,-11.78,-1.45
30,-17.36,-15.90,-17.29,-15.83,6.00,6.81,-11.36,-11.29,-1.46
31,-16.74,-15.27,-16.82,-15.36,6.00,6.98,-10.74,-10.82,-1.46
32,-16.33,-14.86,-16.38,-14.91,6.00,7.04,-10.33,-10.38,-1.47
33,-15.94,-14.46,-15.96,-14.48,6.00,7.02,-9.94,-9.96,-1.48
34,-15.57,-14.09,-15.56,-14.07,6.00,6.92,-9.57,-9.56,-1.48
35,-15.13,-13.64,-15.17,-13.68,6.00,6.79,-9.13,-9.17,-1.49
36,-14.73,-13.23,-14.80,-13.30,6.00,6.63,-8.73,-8.80,-1.50
37,-14.39,-12.88,-14.44,-12.93,6.00,6.46,-8.39,-8.44,-1.51
38,-14.17,-12.65,-14.09,-12.57,6.00,6.30,-8.17,-8.09,-1.52
39,-13.86,-12.33,-13.75,-12.22,6.00,6.16,-7.86,-7.75,-1.53
40,-13.51,-11.97,-13.41,-11.87,6.00,6.04,-7.51,-7.41,-1.54
41,-13.12,-11.57,-13.08,-11.53,6.00,5.94,-7.12,-7.08,-1.55
42,-12.88,-11.32,-12.76,-11.20,6.00,5.87,-6.88,-6.76,-1.56
43,-12.41,-10.83,-12.44,-10.87,6.00,5.82,-6.41,-6.44,-1.57
44,-12.11,-10.52,-12.13,-10.54,6.00,5.80,-6.11,-6.13,-1.59
45,-11.82,-10.22,-11.83,-10.23,6.00,5.80,-5.82,-5.83,-1.60
46,-11.61,-9.99,-11.54,-9.92,6.00,5.83,-5.61,-5.54,-1.62
47,-11.19,-9.55,-11.26,-9.63,6.00,5.87,-5.19,-5.26,-1.63
48,-11.00,-9.35,-11.00,-9.35,6.00,5.93,-5.00,-5.00,-1.65
49,-10.70,-9.03,-10.76,-9.09,6.00,6.01,-4.70,-4.76,-1.67
50,-10.50,-8.81,-10.54,-8.85,6.00,6.10,-4.50,-4.54,-1.69
51,-10.18,-8.47,-10.33,-8.62,6.00,6.20,-4.18,-4.33,-1.71
52,-10.05,-8.32,-10.14,-8.41,6.00,6.30,-4.05,-4.14,-1.73
53,-9.94,-8.19,-9.97,-8.22,6.00,6.41,-3.94,-3.97,-1.75
54,-9.81,-8.04,-9.80,-8.03,6.00,6.51,-3.81,-3.80,-1.77
55,-9.65,-7.85,-9.65,-7.86,6.00,6.61,-3.65,-3.65,-1.80
56,-9.80,-7.98,-9.51,-7.69,6.00,6.69,-3.80,-3.51,-1.82
57,-9.28,-7.43,-9.37,-7.52,6.00,6.77,-3.28,-3.37,-1.85
58,-9.31,-7.44,-9.24,-7.36,6.00,6.82,-3.31,-3.24,-1.87
59,-9.25,-7.35,-9.10,-7.20,6.00,6.86,-3.25,-3.10,-1.90
60,-8.95,-7.02,-8.98,-7.05,6.00,6.87,-2.95,-2.98,-1.93
61,-8.93,-6.97,-8.85,-6.89,6.00,6.86,-2.93,-2.85,-1.96
62,-8.65,-6.66,-8.73,-6.75,6.00,6.83,-2.65,-2.73,-1.99
63,-8.57,-6.55,-8.62,-6.60,6.00,6.77,-2.57,-2.62,-2.02
64,-8.53,-6.48,-8.52,-6.47,6.00,6.68,-2.53,-2.52,-2.05
65,-8.48,-6.40,-8.43,-6.35,6.00,6.58,-2.48,-2.43,-2.08
66,-8.22,-6.10,-8.35,-6.23,6.00,6.45,-2.22,-2.35,-2.11
67,-8.23,-6.08,-8.28,-6.13,5.99,6.31,-2.24,-2.29,-2.15
68,-8.08,-5.90,-8.23,-6.05,5.96,6.15,-2.12,-2.26,-2.18
69,-8.19,-5.97,-8.18,-5.97,5.93,5.98,-2.26,-2.26,-2.22
70,-8.07,-5.82,-8.15,-5.89,5.88,5.81,-2.19,-2.27,-2.25
71,-8.09,-5.80,-8.12,-5.83,5.82,5.62,-2.27,-2.29,-2.29
72,-8.09,-5.76,-8.09,-5.76,5.76,5.43,-2.33,-2.33,-2.33
73,-8.09,-5.72,-8.05,-5.69,5.69,5.24,-2.40,-2.37,-2.37
74,-8.11,-5.71,-8.01,-5.61,5.61,5.05,-2.50,-2.40,-2.40
75,-8.08,-5.64,-7.96,-5.52,5.52,4.86,-2.56,-2.44,-2.44
76,-7.98,-5.50,-7.90,-5.42,5.42,4.67,-2.56,-2.48,-2.48
77,-7.91,-5.39,-7.83,-5.30,5.30,4.48,-2.60,-2.52,-2.52
78,-7.72,-5.16,-7.74,-5.17,5.17,4.29,-2.54,-2.56,-2.56
79,-7.63,-5.03,-7.63,-5.03,5.03,4.11,-2.60,-2.60,-2.60
80,-7.59,-4.95,-7.51,-4.87,4.87,3.93,-2.72,-2.64,-2.64
81,-7.41,-4.73,-7.38,-4.70,4.70,3.76,-2.71,-2.68,-2.68
82,-7.22,-4.49,-7.25,-4.52,4.52,3.59,-2.70,-2.72,-2.72
83,-7.09,-4.32,-7.10,-4.33,4.33,3.43,-2.75,-2.77,-2.77
84,-6.91,-4.10,-6.95,-4.14,4.14,3.27,-2.76,-2.81,-2.81
85,-6.76,-3.91,-6.80,-3.95,3.95,3.11,-2.81,-2.85,-2.85
86,-6.70,-3.81,-6.65,-3.76,3.76,2.96,-2.94,-2.89,-2.89
87,-6.53,-3.60,-6.51,-3.58,3.58,2.81,-2.95,-2.93,-2.93
88,-6.36,-3.39,-6.37,-3.40,3.40,2.67,-2.96,-2.97,-2.97
89,-6.16,-3.14,-6.24,-3.22,3.22,2.53,-2.94,-3.01,-3.02
90,-6.08,-3.02,-6.11,-3.06,3.06,2.40,-3.02,-3.06,-3.06
91,-5.89,-2.79,-6.00,-2.90,2.90,2.27,-2.99,-3.10,-3.10
92,-5.87,-2.73,-5.89,-2.75,2.75,2.14,-3.12,-3.14,-3.14
93,-5.83,-2.65,-5.78,-2.61,2.61,2.02,-3.22,-3.18,-3.18
94,-5.68,-2.46,-5.69,-2.47,2.47,1.90,-3.21,-3.22,-3.22
95,-5.63,-2.37,-5.60,-2.33,2.33,1.79,-3.30,-3.26,-3.26
96,-5.54,-2.24,-5.51,-2.20,2.20,1.67,-3.34,-3.30,-3.30
97,-5.40,-2.06,-5.42,-2.08,2.08,1.56,-3.32,-3.34,-3.34
98,-5.35,-1.97,-5.34,-1.95,1.95,1.46,-3.40,-3.39,-3.38
99,-5.30,-1.88,-5.26,-1.83,1.83,1.35,-3.47,-3.43,-3.42
100,-5.20,-1.74,-5.18,-1.71,1.71,1.25,-3.49,-3.47,-3.46
101,-5.15,-1.65,-5.10,-1.59,1.59,1.15,-3.56,-3.51,-3.50
102,-5.11,-1.57,-5.02,-1.47,1.47,1.06,-3.64,-3.55,-3.54
104,-4.86,-1.25,-4.95,-1.36,1.36,0.87,-3.50,-3.60,-3.61
105,-4.79,-1.14,-4.88,-1.25,1.25,0.79,-3.54,-3.64,-3.65
106,-4.81,-1.12,-4.82,-1.14,1.14,0.70,-3.66,-3.67,-3.68
107,-4.73,-1.01,-4.76,-1.04,1.04,0.62,-3.68,-3.71,-3.72
108,-4.66,-0.91,-4.70,-0.95,0.95,0.54,-3.71,-3.75,-3.75
109,-4.63,-0.84,-4.64,-0.86,0.86,0.46,-3.77,-3.78,-3.79
110,-4.57,-0.75,-4.59,-0.77,0.77,0.38,-3.80,-3.82,-3.82
111,-4.52,-0.67,-4.53,-0.68,0.68,0.31,-3.84,-3.85,-3.85
112,-4.53,-0.65,-4.47,-0.59,0.59,0.24,-3.94,-3.88,-3.88
113,-4.54,-0.63,-4.42,-0.50,0.50,0.17,-4.04,-3.92,-3.91
114,-4.43,-0.49,-4.36,-0.41,0.41,0.10,-4.02,-3.95,-3.94
115,-4.34,-0.38,-4.30,-0.32,0.32,0.04,-4.02,-3.98,-3.96
117,-4.16,-0.14,-4.23,-0.23,0.23,-0.09,-3.93,-4.01,-4.02
118,-4.14,-0.10,-4.16,-0.13,0.13,-0.14,-4.01,-4.03,-4.04
119,-4.04,0.03,-4.10,-0.03,0.03,-0.20,-4.01,-4.06,-4.07
120,-4.03,0.06,-4.03,0.06,-0.06,-0.25,-4.09,-4.09,-4.09
121,-4.02,0.09,-3.96,0.16,-0.16,-0.30,-4.18,-4.12,-4.11
123,-3.81,0.35,-3.89,0.26,-0.26,-0.40,-4.06,-4.14,-4.15
124,-3.80,0.37,-3.82,0.35,-0.35,-0.45,-4.15,-4.17,-4.17
125,-3.79,0.40,-3.75,0.44,-0.44,-0.49,-4.23,-4.19,-4.19
126,-3.75,0.46,-3.69,0.53,-0.53,-0.53,-4.28,-4.22,-4.21
128,-3.58,0.67,-3.62,0.62,-0.62,-0.61,-4.20,-4.24,-4.25
129,-3.57,0.70,-3.56,0.70,-0.70,-0.64,-4.27,-4.26,-4.27
130,-3.53,0.75,-3.50,0.78,-0.78,-0.68,-4.31,-4.28,-4.28
131,-3.36,0.94,-3.44,0.86,-0.86,-0.71,-4.22,-4.31,-4.30
133,-3.36,0.97,-3.39,0.94,-0.94,-0.78,-4.30,-4.33,-4.33
134,-3.35,1.00,-3.33,1.02,-1.02,-0.81,-4.37,-4.35,-4.35
135,-3.35,1.01,-3.27,1.09,-1.09,-0.83,-4.44,-4.37,-4.36
137,-3.15,1.24,-3.22,1.17,-1.17,-0.89,-4.32,-4.39,-4.39
138,-3.14,1.27,-3.16,1.25,-1.25,-0.91,-4.38,-4.41,-4.41
140,-3.14,1.30,-3.11,1.32,-1.32,-0.96,-4.46,-4.43,-4.44
141,-3.14,1.31,-3.06,1.39,-1.39,-0.99,-4.53,-4.45,-4.45
142,-3.07,1.40,-3.01,1.46,-1.46,-1.01,-4.53,-4.47,-4.46
144,-2.97,1.53,-2.96,1.53,-1.53,-1.06,-4.50,-4.49,-4.49
145,-2.94,1.57,-2.92,1.59,-1.59,-1.08,-4.53,-4.51,-4.51
147,-2.87,1.67,-2.88,1.65,-1.65,-1.12,-4.52,-4.53,-4.54
148,-2.84,1.71,-2.85,1.70,-1.70,-1.14,-4.54,-4.55,-4.55
150,-2.74,1.84,-2.83,1.74,-1.74,-1.18,-4.48,-4.57,-4.58
151,-2.74,1.85,-2.82,1.78,-1.78,-1.20,-4.52,-4.59,-4.59
153,-2.74,1.88,-2.81,1.80,-1.80,-1.25,-4.54,-4.61,-4.62
154,-2.73,1.90,-2.81,1.82,-1.82,-1.27,-4.55,-4.63,-4.63
156,-2.73,1.92,-2.81,1.84,-1.84,-1.31,-4.57,-4.65,-4.65
157,-2.78,1.89,-2.82,1.85,-1.85,-1.33,-4.63,-4.67,-4.67
159,-2.85,1.84,-2.82,1.87,-1.87,-1.38,-4.72,-4.69,-4.69
160,-2.91,1.79,-2.82,1.89,-1.89,-1.40,-4.79,-4.70,-4.70
162,-2.99,1.73,-2.81,1.91,-1.91,-1.44,-4.90,-4.72,-4.72
164,-2.89,1.85,-2.79,1.95,-1.95,-1.49,-4.83,-4.74,-4.74
165,-2.87,1.88,-2.76,1.99,-1.99,-1.51,-4.86,-4.75,-4.75
167,-2.81,1.96,-2.72,2.04,-2.04,-1.56,-4.85,-4.77,-4.77
169,-2.65,2.14,-2.68,2.10,-2.10,-1.61,-4.75,-4.78,-4.78
170,-2.60,2.19,-2.62,2.17,-2.17,-1.64,-4.77,-4.79,-4.79
172,-2.56,2.24,-2.56,2.24,-2.24,-1.69,-4.80,-4.80,-4.80
174,-2.39,2.43,-2.50,2.31,-2.31,-1.74,-4.70,-4.81,-4.82
175,-2.37,2.45,-2.44,2.38,-2.38,-1.77,-4.75,-4.82,-4.82
177,-2.38,2.45,-2.38,2.45,-2.45,-1.82,-4.83,-4.83,-4.83
179,-2.28,2.56,-2.32,2.51,-2.51,-1.88,-4.79,-4.84,-4.84
181,-2.27,2.58,-2.27,2.57,-2.57,-1.94,-4.84,-4.84,-4.84
183,-2.17,2.68,-2.22,2.62,-2.62,-2.00,-4.79,-4.85,-4.85
184,-2.16,2.69,-2.18,2.67,-2.67,-2.02,-4.83,-4.85,-4.85
186,-2.15,2.70,-2.14,2.71,-2.71,-2.09,-4.86,-4.85,-4.85
188,-2.13,2.73,-2.10,2.75,-2.75,-2.15,-4.88,-4.86,-4.86
190,-2.11,2.75,-2.07,2.79,-2.79,-2.21,-4.90,-4.86,-4.86
192,-2.10,2.76,-2.04,2.82,-2.82,-2.27,-4.92,-4.86,-4.86
194,-2.01,2.85,-2.01,2.86,-2.86,-2.34,-4.87,-4.86,-4.86
196,-1.97,2.89,-1.98,2.89,-2.89,-2.40,-4.86,-4.86,-4.86
198,-1.96,2.91,-1.94,2.92,-2.92,-2.46,-4.88,-4.86,-4.86
200,-1.94,2.93,-1.91,2.95,-2.95,-2.53,-4.89,-4.87,-4.86
202,-1.84,3.03,-1.89,2.98,-2.98,-2.59,-4.82,-4.87,-4.87
204,-1.83,3.04,-1.86,3.01,-3.01,-2.66,-4.84,-4.87,-4.87
206,-1.83,3.04,-1.84,3.03,-3.03,-2.72,-4.86,-4.87,-4.87
208,-1.83,3.04,-1.81,3.05,-3.05,-2.79,-4.88,-4.87,-4.87
210,-1.83,3.04,-1.80,3.07,-3.07,-2.85,-4.90,-4.87,-4.87
212,-1.74,3.13,-1.78,3.09,-3.09,-2.91,-4.83,-4.87,-4.87
214,-1.74,3.13,-1.77,3.10,-3.10,-2.97,-4.84,-4.87,-4.87
216,-1.74,3.13,-1.76,3.11,-3.11,-3.03,-4.85,-4.87,-4.87
218,-1.75,3.12,-1.75,3.12,-3.12,-3.09,-4.86,-4.87,-4.87
221,-1.75,3.12,-1.75,3.12,-3.12,-3.17,-4.87,-4.87,-4.87
223,-1.75,3.12,-1.74,3.12,-3.12,-3.22,-4.87,-4.87,-4.87
225,-1.75,3.12,-1.74,3.12,-3.12,-3.27,-4.87,-4.86,-4.87
227,-1.75,3.11,-1.74,3.13,-3.13,-3.32,-4.87,-4.86,-4.86
229,-1.75,3.11,-1.73,3.13,-3.13,-3.37,-4.88,-4.86,-4.86
232,-1.74,3.12,-1.72,3.13,-3.13,-3.43,-4.87,-4.86,-4.86
234,-1.73,3.12,-1.72,3.14,-3.14,-3.46,-4.87,-4.85,-4.85
236,-1.72,3.13,-1.70,3.14,-3.14,-3.50,-4.86,-4.85,-4.85
239,-1.70,3.15,-1.69,3.15,-3.15,-3.54,-4.85,-4.84,-4.84
241,-1.69,3.15,-1.68,3.16,-3.16,-3.57,-4.85,-4.84,-4.84
244,-1.67,3.16,-1.66,3.17,-3.17,-3.60,-4.84,-4.83,-4.83
246,-1.64,3.19,-1.65,3.18,-3.18,-3.61,-4.82,-4.82,-4.82
248,-1.62,3.20,-1.63,3.19,-3.19,-3.63,-4.81,-4.82,-4.82
251,-1.61,3.20,-1.62,3.20,-3.20,-3.64,-4.80,-4.81,-4.81
253,-1.59,3.21,-1.60,3.20,-3.20,-3.65,-4.79,-4.80,-4.80
256,-1.58,3.22,-1.59,3.20,-3.20,-3.65,-4.78,-4.80,-4.80
259,-1.57,3.22,-1.58,3.21,-3.21,-3.64,-4.77,-4.79,-4.79
261,-1.56,3.22,-1.58,3.20,-3.20,-3.63,-4.76,-4.78,-4.78
264,-1.56,3.21,-1.57,3.20,-3.20,-3.62,-4.76,-4.77,-4.77
266,-1.56,3.21,-1.57,3.20,-3.20,-3.60,-4.76,-4.77,-4.76
269,-1.57,3.19,-1.57,3.19,-3.19,-3.58,-4.76,-4.76,-4.76
272,-1.57,3.18,-1.57,3.18,-3.18,-3.55,-4.75,-4.75,-4.75
274,-1.57,3.17,-1.57,3.18,-3.18,-3.53,-4.75,-4.74,-4.74
277,-1.58,3.16,-1.56,3.17,-3.17,-3.49,-4.75,-4.74,-4.74
280,-1.58,3.15,-1.56,3.17,-3.17,-3.46,-4.75,-4.73,-4.73
283,-1.57,3.16,-1.56,3.17,-3.17,-3.42,-4.74,-4.72,-4.72
286,-1.57,3.15,-1.55,3.17,-3.17,-3.38,-4.74,-4.72,-4.72
288,-1.56,3.15,-1.54,3.17,-3.17,-3.35,-4.73,-4.71,-4.71
291,-1.55,3.16,-1.53,3.17,-3.17,-3.30,-4.72,-4.71,-4.71
294,-1.54,3.16,-1.52,3.18,-3.18,-3.26,-4.72,-4.70,-4.70
297,-1.52,3.18,-1.51,3.18,-3.18,-3.22,-4.70,-4.69,-4.69
300,-1.51,3.18,-1.50,3.19,-3.19,-3.17,-4.70,-4.69,-4.69
303,-1.50,3.18,-1.49,3.19,-3.19,-3.13,-4.69,-4.68,-4.68
306,-1.49,3.19,-1.49,3.19,-3.19,-3.09,-4.68,-4.68,-4.68
309,-1.48,3.19,-1.49,3.18,-3.18,-3.04,-4.66,-4.67,-4.67
312,-1.47,3.20,-1.50,3.16,-3.16,-3.00,-4.63,-4.67,-4.67
316,-1.51,3.15,-1.52,3.14,-3.14,-2.95,-4.65,-4.66,-4.66
319,-1.57,3.09,-1.55,3.10,-3.10,-2.91,-4.67,-4.66,-4.66
322,-1.57,3.08,-1.59,3.06,-3.06,-2.88,-4.63,-4.65,-4.65
325,-1.57,3.08,-1.64,3.01,-3.01,-2.84,-4.58,-4.65,-4.65
328,-1.66,2.98,-1.70,2.94,-2.94,-2.81,-4.60,-4.64,-4.64
332,-1.73,2.91,-1.77,2.87,-2.87,-2.77,-4.60,-4.64,-4.64
335,-1.77,2.86,-1.84,2.79,-2.79,-2.74,-4.56,-4.63,-4.63
338,-1.88,2.75,-1.92,2.71,-2.71,-2.71,-4.59,-4.63,-4.63
342,-1.98,2.65,-1.99,2.63,-2.63,-2.68,-4.61,-4.63,-4.63
345,-2.07,2.55,-2.07,2.55,-2.55,-2.66,-4.62,-4.62,-4.62
349,-2.22,2.40,-2.14,2.48,-2.48,-2.63,-4.70,-4.62,-4.62
352,-2.27,2.35,-2.20,2.42,-2.42,-2.61,-4.68,-4.62,-4.62
356,-2.31,2.31,-2.25,2.36,-2.36,-2.59,-4.67,-4.62,-4.62
359,-2.37,2.24,-2.29,2.32,-2.32,-2.57,-4.69,-4.62,-4.61
363,-2.37,2.24,-2.32,2.30,-2.30,-2.55,-4.66,-4.61,-4.61
366,-2.36,2.25,-2.33,2.28,-2.28,-2.54,-4.64,-4.61,-4.61
370,-2.35,2.26,-2.33,2.28,-2.28,-2.53,-4.63,-4.61,-4.61
374,-2.35,2.26,-2.31,2.30,-2.30,-2.52,-4.65,-4.61,-4.61
377,-2.29,2.32,-2.28,2.32,-2.32,-2.51,-4.61,-4.61,-4.60
381,-2.17,2.43,-2.25,2.36,-2.36,-2.50,-4.52,-4.60,-4.60
385,-2.21,2.39,-2.21,2.39,-2.39,-2.50,-4.60,-4.60,-4.60
389,-2.19,2.41,-2.16,2.43,-2.43,-2.50,-4.62,-4.59,-4.59
393,-2.12,2.47,-2.11,2.48,-2.48,-2.49,-4.59,-4.59,-4.59
397,-2.04,2.54,-2.07,2.52,-2.52,-2.49,-4.55,-4.58,-4.58
401,-1.98,2.59,-2.02,2.55,-2.55,-2.50,-4.53,-4.57,-4.57
405,-1.84,2.72,-1.97,2.58,-2.58,-2.50,-4.42,-4.56,-4.56
409,-1.87,2.68,-1.93,2.61,-2.61,-2.50,-4.48,-4.54,-4.55
413,-1.92,2.61,-1.89,2.64,-2.64,-2.51,-4.55,-4.53,-4.53
417,-1.92,2.59,-1.85,2.66,-2.66,-2.52,-4.57,-4.51,-4.51
421,-1.84,2.65,-1.81,2.67,-2.67,-2.53,-4.51,-4.48,-4.49
425,-1.79,2.67,-1.77,2.68,-2.68,-2.53,-4.47,-4.46,-4.46
430,-1.70,2.74,-1.73,2.70,-2.70,-2.54,-4.40,-4.43,-4.43
434,-1.68,2.72,-1.69,2.71,-2.71,-2.55,-4.39,-4.40,-4.40
438,-1.66,2.71,-1.64,2.72,-2.72,-2.56,-4.38,-4.37,-4.37
443,-1.62,2.71,-1.59,2.74,-2.74,-2.58,-4.36,-4.33,-4.33
447,-1.57,2.73,-1.54,2.75,-2.75,-2.59,-4.32,-4.29,-4.30
451,-1.52,2.74,-1.48,2.77,-2.77,-2.59,-4.29,-4.25,-4.26
456,-1.46,2.76,-1.42,2.79,-2.79,-2.61,-4.25,-4.21,-4.22
460,-1.43,2.74,-1.37,2.81,-2.81,-2.61,-4.23,-4.17,-4.17
465,-1.42,2.71,-1.31,2.82,-2.82,-2.62,-4.24,-4.13,-4.13
470,-1.18,2.91,-1.26,2.83,-2.83,-2.63,-4.01,-4.09,-4.09
474,-1.06,2.99,-1.21,2.84,-2.84,-2.64,-3.90,-4.06,-4.05
479,-1.12,2.90,-1.17,2.85,-2.85,-2.65,-3.96,-4.02,-4.02
484,-1.12,2.86,-1.14,2.84,-2.84,-2.65,-3.96,-3.99,-3.98
489,-1.08,2.87,-1.12,2.84,-2.84,-2.66,-3.91,-3.96,-3.95
494,-1.11,2.82,-1.11,2.82,-2.82,-2.66,-3.93,-3.93,-3.92
499,-1.08,2.82,-1.10,2.80,-2.80,-2.66,-3.88,-3.91,-3.90
504,-1.10,2.78,-1.11,2.78,-2.78,-2.66,-3.88,-3.89,-3.88
509,-1.13,2.74,-1.12,2.76,-2.76,-2.66,-3.89,-3.87,-3.87
514,-1.21,2.65,-1.13,2.73,-2.73,-2.66,-3.94,-3.86,-3.86
519,-1.19,2.66,-1.15,2.71,-2.71,-2.66,-3.90,-3.86,-3.85
524,-1.17,2.68,-1.17,2.68,-2.68,-2.65,-3.85,-3.85,-3.85
529,-1.18,2.67,-1.20,2.66,-2.66,-2.65,-3.84,-3.86,-3.85
535,-1.20,2.66,-1.22,2.63,-2.63,-2.64,-3.83,-3.86,-3.86
540,-1.23,2.63,-1.25,2.61,-2.61,-2.63,-3.84,-3.87,-3.86
545,-1.27,2.60,-1.28,2.59,-2.59,-2.63,-3.86,-3.87,-3.87
551,-1.31,2.57,-1.31,2.58,-2.58,-2.62,-3.89,-3.88,-3.88
556,-1.37,2.53,-1.33,2.56,-2.56,-2.61,-3.93,-3.89,-3.89
562,-1.42,2.49,-1.36,2.54,-2.54,-2.60,-3.96,-3.90,-3.91
568,-1.37,2.55,-1.39,2.52,-2.52,-2.59,-3.89,-3.91,-3.92
573,-1.41,2.51,-1.41,2.50,-2.50,-2.58,-3.91,-3.92,-3.92
579,-1.44,2.49,-1.44,2.48,-2.48,-2.57,-3.92,-3.92,-3.93
585,-1.47,2.46,-1.47,2.46,-2.46,-2.57,-3.93,-3.93,-3.93
591,-1.48,2.45,-1.49,2.43,-2.43,-2.56,-3.91,-3.93,-3.93
596,-1.49,2.44,-1.52,2.40,-2.40,-2.55,-3.89,-3.92,-3.93
602,-1.48,2.44,-1.54,2.38,-2.38,-2.55,-3.85,-3.92,-3.92
608,-1.47,2.44,-1.56,2.35,-2.35,-2.54,-3.82,-3.90,-3.91
615,-1.56,2.34,-1.57,2.32,-2.32,-2.54,-3.88,-3.89,-3.90
621,-1.54,2.34,-1.57,2.31,-2.31,-2.54,-3.85,-3.87,-3.88
627,-1.55,2.31,-1.55,2.30,-2.30,-2.53,-3.85,-3.85,-3.85
633,-1.58,2.25,-1.52,2.30,-2.30,-2.53,-3.88,-3.83,-3.83
639,-1.62,2.18,-1.48,2.32,-2.32,-2.54,-3.94,-3.80,-3.80
646,-1.56,2.21,-1.42,2.35,-2.35,-2.54,-3.91,-3.77,-3.77
652,-1.47,2.27,-1.34,2.40,-2.40,-2.55,-3.87,-3.74,-3.74
659,-1.35,2.35,-1.25,2.46,-2.46,-2.55,-3.80,-3.70,-3.70
665,-1.21,2.46,-1.15,2.53,-2.53,-2.56,-3.73,-3.67,-3.67
672,-1.02,2.62,-1.03,2.60,-2.60,-2.57,-3.62,-3.64,-3.63
679,-0.91,2.69,-0.92,2.68,-2.68,-2.59,-3.59,-3.60,-3.60
686,-0.76,2.81,-0.81,2.76,-2.76,-2.60,-3.52,-3.57,-3.57
692,-0.59,2.95,-0.71,2.83,-2.83,-2.62,-3.42,-3.54,-3.54
699,-0.57,2.94,-0.62,2.89,-2.89,-2.64,-3.46,-3.51,-3.51
706,-0.46,3.02,-0.55,2.93,-2.93,-2.66,-3.39,-3.48,-3.48
713,-0.41,3.04,-0.50,2.96,-2.96,-2.68,-3.37,-3.45,-3.45
721,-0.32,3.11,-0.46,2.97,-2.97,-2.71,-3.29,-3.43,-3.43
728,-0.35,3.06,-0.45,2.96,-2.96,-2.74,-3.31,-3.41,-3.40
735,-0.38,3.01,-0.45,2.94,-2.94,-2.77,-3.32,-3.39,-3.38
742,-0.41,2.96,-0.46,2.91,-2.91,-2.80,-3.32,-3.37,-3.37
750,-0.45,2.90,-0.48,2.87,-2.87,-2.84,-3.32,-3.35,-3.35
757,-0.60,2.74,-0.50,2.84,-2.84,-2.87,-3.44,-3.34,-3.34
765,-0.62,2.70,-0.52,2.80,-2.80,-2.91,-3.42,-3.32,-3.32
773,-0.61,2.70,-0.53,2.78,-2.78,-2.95,-3.39,-3.31,-3.31
780,-0.62,2.68,-0.53,2.77,-2.77,-2.99,-3.39,-3.30,-3.30
788,-0.53,2.76,-0.51,2.78,-2.78,-3.03,-3.31,-3.29,-3.29
796,-0.54,2.75,-0.47,2.81,-2.81,-3.07,-3.35,-3.28,-3.29
804,-0.52,2.76,-0.42,2.86,-2.86,-3.12,-3.38,-3.28,-3.28
812,-0.44,2.83,-0.35,2.92,-2.92,-3.16,-3.36,-3.27,-3.27
820,-0.33,2.93,-0.26,3.00,-3.00,-3.21,-3.33,-3.26,-3.26
828,-0.21,3.05,-0.16,3.09,-3.09,-3.25,-3.30,-3.26,-3.26
837,-0.04,3.21,-0.06,3.19,-3.19,-3.31,-3.23,-3.25,-3.25
845,0.09,3.33,0.05,3.29,-3.29,-3.35,-3.20,-3.24,-3.24
853,0.18,3.42,0.16,3.39,-3.39,-3.39,-3.21,-3.24,-3.24
862,0.26,3.49,0.26,3.48,-3.48,-3.44,-3.22,-3.23,-3.23
871,0.41,3.63,0.34,3.56,-3.56,-3.49,-3.15,-3.22,-3.22
879,0.45,3.66,0.41,3.62,-3.62,-3.53,-3.17,-3.21,-3.21
888,0.49,3.70,0.46,3.66,-3.66,-3.57,-3.17,-3.21,-3.21
897,0.53,3.73,0.49,3.68,-3.68,-3.62,-3.15,-3.20,-3.20
906,0.62,3.81,0.49,3.68,-3.68,-3.65,-3.06,-3.19,-3.19
915,0.65,3.83,0.47,3.65,-3.65,-3.69,-3.00,-3.18,-3.18
924,0.59,3.76,0.44,3.61,-3.61,-3.72,-3.02,-3.17,-3.17
933,0.44,3.60,0.39,3.55,-3.55,-3.75,-3.11,-3.16,-3.16
943,0.29,3.44,0.33,3.47,-3.47,-3.78,-3.18,-3.15,-3.15
952,0.14,3.28,0.26,3.39,-3.39,-3.80,-3.25,-3.13,-3.13
962,0.05,3.17,0.18,3.30,-3.30,-3.82,-3.25,-3.12,-3.12
971,-0.01,3.10,0.11,3.22,-3.22,-3.83,-3.23,-3.11,-3.11
981,-0.06,3.03,0.04,3.13,-3.13,-3.84,-3.19,-3.09,-3.09
991,-0.01,3.06,-0.02,3.06,-3.06,-3.84,-3.07,-3.07,-3.07
1001,0.00,3.06,-0.07,2.99,-2.99,-3.84,-2.99,-3.05,-3.05
1011,-0.09,2.95,-0.10,2.93,-2.93,-3.83,-3.02,-3.03,-3.03
1021,-0.13,2.88,-0.13,2.88,-2.88,-3.82,-3.01,-3.01,-3.01
1031,-0.14,2.85,-0.15,2.84,-2.84,-3.81,-2.98,-2.99,-2.99
1041,-0.21,2.75,-0.15,2.81,-2.81,-3.79,-3.02,-2.96,-2.96
1052,-0.18,2.76,-0.14,2.79,-2.79,-3.76,-2.97,-2.93,-2.94
1062,-0.14,2.77,-0.12,2.78,-2.78,-3.74,-2.92,-2.90,-2.91
1073,-0.09,2.79,-0.09,2.78,-2.78,-3.70,-2.87,-2.87,-2.88
1084,-0.02,2.83,-0.05,2.79,-2.79,-3.67,-2.81,-2.84,-2.85
1094,0.06,2.87,-0.00,2.81,-2.81,-3.63,-2.75,-2.81,-2.81
1105,-0.01,2.77,0.05,2.83,-2.83,-3.59,-2.84,-2.78,-2.78
1116,0.01,2.76,0.11,2.86,-2.86,-3.54,-2.84,-2.74,-2.75
1128,0.16,2.87,0.18,2.89,-2.89,-3.49,-2.73,-2.71,-2.71
1139,0.28,2.96,0.25,2.92,-2.92,-3.44,-2.64,-2.68,-2.68
1150,0.36,3.00,0.32,2.96,-2.96,-3.40,-2.60,-2.64,-2.64
1162,0.39,3.00,0.39,3.00,-3.00,-3.34,-2.61,-2.61,-2.61
1173,0.44,3.02,0.46,3.04,-3.04,-3.29,-2.60,-2.58,-2.58
1185,0.57,3.12,0.53,3.08,-3.08,-3.24,-2.51,-2.55,-2.55
1197,0.64,3.16,0.60,3.12,-3.12,-3.18,-2.48,-2.52,-2.52
1209,0.67,3.16,0.66,3.15,-3.15,-3.13,-2.48,-2.50,-2.49
1221,0.71,3.18,0.72,3.19,-3.19,-3.08,-2.48,-2.47,-2.47
1233,0.80,3.25,0.77,3.22,-3.22,-3.03,-2.42,-2.45,-2.45
1246,0.81,3.24,0.82,3.25,-3.25,-2.97,-2.44,-2.43,-2.43
1258,0.86,3.27,0.86,3.28,-3.28,-2.92,-2.42,-2.42,-2.41
1271,0.92,3.32,0.90,3.31,-3.31,-2.87,-2.39,-2.40,-2.40
1283,0.97,3.36,0.94,3.33,-3.33,-2.83,-2.36,-2.39,-2.39
1296,0.97,3.36,0.97,3.36,-3.36,-2.78,-2.39,-2.39,-2.38
1309,0.97,3.35,1.00,3.38,-3.38,-2.74,-2.41,-2.38,-2.38
1322,1.03,3.41,1.03,3.41,-3.41,-2.69,-2.38,-2.38,-2.38
1335,1.07,3.45,1.06,3.44,-3.44,-2.65,-2.37,-2.39,-2.38
1349,1.12,3.51,1.09,3.48,-3.48,-2.61,-2.36,-2.39,-2.39
1362,1.17,3.56,1.13,3.52,-3.52,-2.57,-2.35,-2.39,-2.39
1376,1.13,3.53,1.17,3.57,-3.57,-2.54,-2.44,-2.40,-2.40
1390,1.18,3.59,1.22,3.63,-3.63,-2.50,-2.44,-2.41,-2.41
1404,1.27,3.69,1.27,3.69,-3.69,-2.47,-2.42,-2.42,-2.42
1418,1.27,3.70,1.33,3.76,-3.76,-2.44,-2.49,-2.43,-2.43
1432,1.25,3.69,1.40,3.83,-3.83,-2.42,-2.58,-2.43,-2.43
1446,1.37,3.81,1.47,3.91,-3.91,-2.39,-2.54,-2.44,-2.44
1461,1.49,3.94,1.54,3.99,-3.99,-2.37,-2.50,-2.45,-2.45
1475,1.60,4.05,1.61,4.06,-4.06,-2.35,-2.46,-2.45,-2.45
1490,1.70,4.15,1.68,4.13,-4.13,-2.33,-2.43,-2.45,-2.45
1505,1.79,4.24,1.74,4.18,-4.18,-2.31,-2.39,-2.45,-2.45
1520,1.87,4.32,1.78,4.23,-4.23,-2.29,-2.36,-2.44,-2.44
