frequency,raw,error,smoothed,error_smoothed,equalization,parametric_eq,equalized_raw,equalized_smoothed,target
20,-23.16,-21.66,-23.17,-21.66,6.00,2.55,-17.16,-17.17,-1.50
21,-22.54,-21.04,-22.49,-20.97,6.00,2.93,-16.54,-16.49,-1.50
22,-21.78,-20.27,-21.82,-20.31,6.00,3.34,-15.78,-15.82,-1.51
23,-21.15,-19.64,-21.18,-19.66,6.00,3.78,-15.15,-15.18,-1.51
24,-20.61,-19.09,-20.55,-19.04,6.00,4.25,-14.61,-14.55,-1.52
25,-19.86,-18.34,-19.95,-18.44,6.00,4.73,-13.86,-13.95,-1.52
26,-19.37,-17.84,-19.37,-17.85,6.00,5.22,-13.37,-13.37,-1.53
27,-18.99,-17.45,-18.82,-17.29,6.00,5.68,-12.99,-12.82,-1.54
28,-18.20,-16.66,-18.28,-16.75,6.00,6.10,-12.20,-12.28,-1.54
29,-17.72,-16.17,-17.77,-16.22,6.00,6.46,-11.72,-11.77,-1.55
30,-17.36,-15.80,-17.27,-15.72,6.00,6.73,-11.36,-11.27,-1.56
31,-16.74,-15.17,-16.81,-15.25,6.00,6.90,-10.74,-10.81,-1.57
32,-16.33,-14.75,-16.37,-14.79,6.00,6.97,-10.33,-10.37,-1.58
33,-15.94,-14.35,-15.96,-14.36,6.00,6.95,-9.94,-9.96,-1.58
34,-15.57,-13.97,-15.55,-13.95,6.00,6.87,-9.57,-9.55,-1.59
35,-15.13,-13.52,-15.18,-13.55,6.00,6.74,-9.13,-9.18,-1.61
36,-14.73,-13.11,-14.79,-13.17,6.00,6.59,-8.73,-8.79,-1.62
37,-14.39,-12.76,-14.44,-12.79,6.00,6.43,-8.39,-8.44,-1.63
38,-14.17,-12.53,-14.10,-12.43,6.00,6.27,-8.17,-8.10,-1.64
39,-13.86,-12.20,-13.76,-12.08,6.00,6.13,-7.86,-7.76,-1.65
40,-13.51,-11.84,-13.42,-11.73,6.00,6.01,-7.51,-7.42,-1.67
41,-13.12,-11.44,-13.11,-11.39,6.00,5.92,-7.12,-7.11,-1.68
42,-12.88,-11.18,-12.78,-11.05,6.00,5.85,-6.88,-6.78,-1.70
43,-12.41,-10.70,-12.46,-10.72,6.00,5.80,-6.41,-6.46,-1.71
44,-12.11,-10.38,-12.14,-10.39,6.00,5.78,-6.11,-6.14,-1.73
45,-11.82,-10.07,-11.84,-10.07,6.00,5.78,-5.82,-5.84,-1.75
46,-11.61,-9.84,-11.52,-9.76,6.00,5.80,-5.61,-5.52,-1.76
47,-11.19,-9.41,-11.25,-9.47,6.00,5.84,-5.19,-5.25,-1.78
48,-11.00,-9.20,-10.98,-9.19,6.00,5.90,-5.00,-4.98,-1.80
49,-10.70,-8.88,-10.73,-8.92,6.00,5.98,-4.70,-4.73,-1.82
50,-10.50,-8.66,-10.52,-8.67,6.00,6.06,-4.50,-4.52,-1.84
51,-10.18,-8.31,-10.32,-8.45,6.00,6.16,-4.18,-4.32,-1.87
52,-10.05,-8.16,-10.14,-8.23,6.00,6.25,-4.05,-4.14,-1.89
53,-9.94,-8.03,-9.97,-8.03,6.00,6.36,-3.94,-3.97,-1.91
54,-9.81,-7.87,-9.81,-7.85,6.00,6.45,-3.81,-3.81,-1.93
55,-9.65,-7.69,-9.65,-7.67,6.00,6.55,-3.65,-3.65,-1.96
56,-9.80,-7.82,-9.51,-7.50,6.00,6.63,-3.80,-3.51,-1.98
57,-9.28,-7.27,-9.38,-7.34,6.00,6.70,-3.28,-3.38,-2.01
58,-9.31,-7.27,-9.25,-7.18,6.00,6.75,-3.31,-3.25,-2.04
59,-9.25,-7.19,-9.12,-7.03,6.00,6.79,-3.25,-3.12,-2.06
60,-8.95,-6.86,-9.00,-6.88,6.00,6.80,-2.95,-3.00,-2.09
61,-8.93,-6.81,-8.87,-6.72,6.00,6.78,-2.93,-2.87,-2.12
62,-8.65,-6.50,-8.74,-6.57,6.00,6.75,-2.65,-2.74,-2.15
63,-8.57,-6.39,-8.62,-6.43,6.00,6.68,-2.57,-2.62,-2.18
64,-8.53,-6.32,-8.50,-6.30,6.00,6.60,-2.53,-2.50,-2.21
65,-8.48,-6.24,-8.40,-6.17,5.98,6.50,-2.49,-2.42,-2.24
66,-8.22,-5.95,-8.32,-6.06,5.95,6.37,-2.27,-2.36,-2.27
67,-8.23,-5.93,-8.27,-5.96,5.90,6.23,-2.32,-2.36,-2.30
68,-8.08,-5.74,-8.21,-5.87,5.85,6.08,-2.23,-2.36,-2.33
69,-8.19,-5.82,-8.17,-5.80,5.79,5.91,-2.40,-2.38,-2.37
70,-8.07,-5.67,-8.14,-5.72,5.72,5.74,-2.34,-2.42,-2.40
71,-8.09,-5.65,-8.11,-5.66,5.66,5.55,-2.43,-2.45,-2.43
72,-8.09,-5.62,-8.09,-5.59,5.59,5.37,-2.50,-2.50,-2.47
73,-8.09,-5.59,-8.06,-5.53,5.53,5.18,-2.56,-2.53,-2.50
74,-8.11,-5.57,-8.02,-5.45,5.45,4.99,-2.66,-2.57,-2.54
75,-8.08,-5.51,-7.98,-5.37,5.37,4.80,-2.71,-2.61,-2.57
76,-7.98,-5.37,-7.92,-5.28,5.28,4.62,-2.70,-2.65,-2.61
77,-7.91,-5.26,-7.84,-5.17,5.17,4.43,-2.74,-2.68,-2.64
78,-7.72,-5.04,-7.76,-5.04,5.04,4.25,-2.67,-2.71,-2.68
79,-7.63,-4.91,-7.65,-4.91,4.91,4.07,-2.72,-2.74,-2.72
80,-7.59,-4.84,-7.53,-4.75,4.75,3.90,-2.84,-2.78,-2.75
81,-7.41,-4.62,-7.40,-4.59,4.59,3.73,-2.82,-2.81,-2.79
82,-7.22,-4.39,-7.25,-4.41,4.41,3.57,-2.81,-2.84,-2.82
83,-7.09,-4.23,-7.09,-4.23,4.23,3.41,-2.86,-2.86,-2.86
84,-6.91,-4.01,-6.94,-4.05,4.05,3.25,-2.86,-2.89,-2.90
85,-6.76,-3.83,-6.79,-3.86,3.86,3.10,-2.90,-2.93,-2.93
86,-6.70,-3.73,-6.64,-3.68,3.68,2.95,-3.02,-2.96,-2.97
87,-6.53,-3.52,-6.50,-3.50,3.50,2.81,-3.03,-3.00,-3.01
88,-6.36,-3.32,-6.37,-3.32,3.32,2.67,-3.04,-3.05,-3.04
89,-6.16,-3.08,-6.23,-3.15,3.15,2.54,-3.01,-3.08,-3.08
90,-6.08,-2.96,-6.10,-2.99,2.99,2.41,-3.09,-3.11,-3.11
91,-5.89,-2.74,-5.99,-2.84,2.84,2.28,-3.05,-3.15,-3.15
92,-5.87,-2.68,-5.88,-2.70,2.70,2.16,-3.17,-3.18,-3.19
93,-5.83,-2.61,-5.79,-2.56,2.56,2.04,-3.27,-3.23,-3.22
94,-5.68,-2.42,-5.69,-2.43,2.43,1.92,-3.25,-3.27,-3.26
95,-5.63,-2.34,-5.60,-2.30,2.30,1.81,-3.33,-3.30,-3.29
96,-5.54,-2.21,-5.51,-2.18,2.18,1.70,-3.36,-3.33,-3.33
97,-5.40,-2.04,-5.43,-2.05,2.05,1.60,-3.34,-3.37,-3.36
98,-5.35,-1.95,-5.35,-1.93,1.93,1.49,-3.41,-3.41,-3.39
99,-5.30,-1.87,-5.27,-1.82,1.82,1.39,-3.48,-3.45,-3.43
100,-5.20,-1.74,-5.18,-1.70,1.70,1.29,-3.50,-3.49,-3.46
101,-5.15,-1.65,-5.10,-1.58,1.58,1.20,-3.57,-3.52,-3.49
102,-5.11,-1.58,-5.01,-1.47,1.47,1.11,-3.64,-3.54,-3.53
104,-4.86,-1.27,-4.94,-1.36,1.36,0.93,-3.50,-3.58,-3.59
105,-4.79,-1.16,-4.87,-1.25,1.25,0.84,-3.53,-3.62,-3.62
106,-4.81,-1.15,-4.82,-1.15,1.15,0.76,-3.66,-3.66,-3.66
107,-4.73,-1.04,-4.76,-1.06,1.06,0.68,-3.67,-3.70,-3.69
108,-4.66,-0.94,-4.70,-0.97,0.97,0.60,-3.69,-3.74,-3.72
109,-4.63,-0.88,-4.64,-0.88,0.88,0.53,-3.75,-3.76,-3.75
110,-4.57,-0.79,-4.58,-0.79,0.79,0.46,-3.78,-3.79,-3.78
111,-4.52,-0.71,-4.53,-0.70,0.70,0.38,-3.82,-3.83,-3.81
112,-4.53,-0.69,-4.47,-0.62,0.62,0.32,-3.91,-3.86,-3.84
113,-4.54,-0.68,-4.42,-0.53,0.53,0.25,-4.01,-3.89,-3.86
114,-4.43,-0.54,-4.36,-0.44,0.44,0.18,-3.98,-3.92,-3.89
115,-4.34,-0.43,-4.30,-0.36,0.36,0.12,-3.98,-3.95,-3.91
117,-4.16,-0.20,-4.24,-0.27,0.27,0.00,-3.89,-3.97,-3.96
118,-4.14,-0.16,-4.17,-0.18,0.18,-0.05,-3.96,-3.99,-3.98
119,-4.04,-0.04,-4.11,-0.09,0.09,-0.11,-3.95,-4.02,-4.00
120,-4.03,-0.01,-4.03,0.00,-0.00,-0.16,-4.03,-4.04,-4.02
121,-4.02,0.02,-3.96,0.10,-0.10,-0.21,-4.11,-4.05,-4.04
123,-3.81,0.27,-3.88,0.19,-0.19,-0.30,-3.99,-4.06,-4.08
124,-3.80,0.29,-3.81,0.27,-0.27,-0.35,-4.07,-4.08,-4.09
125,-3.79,0.31,-3.74,0.36,-0.36,-0.39,-4.15,-4.10,-4.10
126,-3.75,0.37,-3.68,0.45,-0.45,-0.43,-4.19,-4.13,-4.11
128,-3.58,0.57,-3.62,0.53,-0.53,-0.51,-4.11,-4.14,-4.15
129,-3.57,0.59,-3.56,0.61,-0.61,-0.54,-4.17,-4.17,-4.16
130,-3.53,0.64,-3.50,0.68,-0.68,-0.58,-4.21,-4.18,-4.17
131,-3.36,0.83,-3.44,0.76,-0.76,-0.61,-4.12,-4.20,-4.19
133,-3.36,0.86,-3.38,0.83,-0.83,-0.68,-4.19,-4.22,-4.22
134,-3.35,0.88,-3.33,0.91,-0.91,-0.70,-4.26,-4.24,-4.23
135,-3.35,0.90,-3.28,0.98,-0.98,-0.73,-4.33,-4.27,-4.25
137,-3.15,1.13,-3.23,1.06,-1.06,-0.79,-4.21,-4.29,-4.28
138,-3.14,1.15,-3.17,1.13,-1.13,-0.82,-4.27,-4.30,-4.29
140,-3.14,1.18,-3.12,1.21,-1.21,-0.87,-4.35,-4.33,-4.32
141,-3.14,1.20,-3.07,1.29,-1.29,-0.89,-4.43,-4.36,-4.34
142,-3.07,1.28,-3.01,1.36,-1.36,-0.91,-4.43,-4.38,-4.35
144,-2.97,1.41,-2.96,1.43,-1.43,-0.96,-4.40,-4.39,-4.38
145,-2.94,1.46,-2.91,1.50,-1.50,-0.98,-4.44,-4.41,-4.40
147,-2.87,1.56,-2.86,1.55,-1.55,-1.03,-4.42,-4.42,-4.42
148,-2.84,1.60,-2.83,1.60,-1.60,-1.05,-4.44,-4.43,-4.44
150,-2.74,1.72,-2.81,1.65,-1.65,-1.09,-4.39,-4.46,-4.46
151,-2.74,1.74,-2.81,1.68,-1.68,-1.11,-4.42,-4.49,-4.47
153,-2.74,1.76,-2.80,1.71,-1.71,-1.16,-4.45,-4.51,-4.50
154,-2.73,1.78,-2.80,1.73,-1.73,-1.18,-4.46,-4.53,-4.51
156,-2.73,1.80,-2.81,1.74,-1.74,-1.22,-4.47,-4.55,-4.53
157,-2.78,1.76,-2.82,1.76,-1.76,-1.25,-4.54,-4.58,-4.54
159,-2.85,1.71,-2.83,1.77,-1.77,-1.29,-4.62,-4.60,-4.56
160,-2.91,1.66,-2.83,1.79,-1.79,-1.32,-4.70,-4.62,-4.57
162,-2.99,1.61,-2.82,1.82,-1.82,-1.36,-4.81,-4.64,-4.60
164,-2.89,1.73,-2.80,1.86,-1.86,-1.41,-4.74,-4.66,-4.62
165,-2.87,1.76,-2.78,1.90,-1.90,-1.43,-4.77,-4.68,-4.63
167,-2.81,1.84,-2.74,1.95,-1.95,-1.48,-4.76,-4.70,-4.65
169,-2.65,2.03,-2.69,2.02,-2.02,-1.53,-4.67,-4.71,-4.67
170,-2.60,2.09,-2.63,2.09,-2.09,-1.56,-4.69,-4.72,-4.69
172,-2.56,2.15,-2.57,2.16,-2.16,-1.61,-4.72,-4.73,-4.71
174,-2.39,2.34,-2.49,2.24,-2.24,-1.67,-4.63,-4.73,-4.73
175,-2.37,2.37,-2.43,2.31,-2.31,-1.69,-4.68,-4.74,-4.74
177,-2.38,2.37,-2.36,2.38,-2.38,-1.75,-4.76,-4.74,-4.75
179,-2.28,2.48,-2.30,2.45,-2.45,-1.81,-4.72,-4.75,-4.76
181,-2.27,2.50,-2.25,2.50,-2.50,-1.86,-4.77,-4.76,-4.77
183,-2.17,2.61,-2.21,2.55,-2.55,-1.92,-4.72,-4.77,-4.78
184,-2.16,2.61,-2.18,2.60,-2.60,-1.95,-4.76,-4.78,-4.77
186,-2.15,2.62,-2.14,2.64,-2.64,-2.01,-4.79,-4.78,-4.77
188,-2.13,2.64,-2.11,2.67,-2.67,-2.08,-4.80,-4.78,-4.77
190,-2.11,2.65,-2.07,2.70,-2.70,-2.14,-4.81,-4.77,-4.76
192,-2.10,2.66,-2.05,2.73,-2.73,-2.20,-4.82,-4.77,-4.76
194,-2.01,2.74,-2.01,2.75,-2.75,-2.26,-4.76,-4.77,-4.75
196,-1.97,2.78,-1.98,2.78,-2.78,-2.33,-4.75,-4.76,-4.75
198,-1.96,2.79,-1.95,2.81,-2.81,-2.39,-4.77,-4.76,-4.74
200,-1.94,2.80,-1.92,2.84,-2.84,-2.46,-4.78,-4.76,-4.74
202,-1.84,2.90,-1.89,2.87,-2.87,-2.52,-4.71,-4.76,-4.74
204,-1.83,2.92,-1.86,2.90,-2.90,-2.59,-4.73,-4.76,-4.75
206,-1.83,2.92,-1.83,2.93,-2.93,-2.65,-4.75,-4.76,-4.75
208,-1.83,2.93,-1.81,2.95,-2.95,-2.71,-4.78,-4.76,-4.76
210,-1.83,2.93,-1.79,2.98,-2.98,-2.78,-4.81,-4.76,-4.76
212,-1.74,3.03,-1.77,3.00,-3.00,-2.84,-4.74,-4.77,-4.77
214,-1.74,3.04,-1.77,3.02,-3.02,-2.90,-4.76,-4.79,-4.78
216,-1.74,3.05,-1.76,3.04,-3.04,-2.96,-4.78,-4.79,-4.79
218,-1.75,3.05,-1.75,3.05,-3.05,-3.02,-4.80,-4.80,-4.80
221,-1.75,3.07,-1.75,3.06,-3.06,-3.10,-4.81,-4.81,-4.82
223,-1.75,3.07,-1.75,3.07,-3.07,-3.15,-4.82,-4.82,-4.82
225,-1.75,3.08,-1.74,3.08,-3.08,-3.20,-4.83,-4.82,-4.83
227,-1.75,3.08,-1.74,3.09,-3.09,-3.25,-4.84,-4.82,-4.83
229,-1.75,3.08,-1.73,3.09,-3.09,-3.29,-4.84,-4.82,-4.83
232,-1.74,3.09,-1.73,3.10,-3.10,-3.35,-4.83,-4.82,-4.83
234,-1.73,3.09,-1.72,3.10,-3.10,-3.39,-4.83,-4.82,-4.82
236,-1.72,3.09,-1.71,3.10,-3.10,-3.42,-4.82,-4.81,-4.81
239,-1.70,3.10,-1.70,3.11,-3.11,-3.47,-4.80,-4.80,-4.80
241,-1.69,3.10,-1.68,3.11,-3.11,-3.49,-4.80,-4.79,-4.79
244,-1.67,3.11,-1.66,3.11,-3.11,-3.52,-4.78,-4.78,-4.78
246,-1.64,3.12,-1.64,3.12,-3.12,-3.54,-4.76,-4.76,-4.76
248,-1.62,3.13,-1.63,3.12,-3.12,-3.55,-4.74,-4.75,-4.75
251,-1.61,3.13,-1.61,3.13,-3.13,-3.57,-4.74,-4.74,-4.74
253,-1.59,3.13,-1.60,3.13,-3.13,-3.57,-4.72,-4.73,-4.72
256,-1.58,3.14,-1.59,3.13,-3.13,-3.58,-4.71,-4.72,-4.72
259,-1.57,3.14,-1.58,3.14,-3.14,-3.57,-4.71,-4.72,-4.71
261,-1.56,3.15,-1.57,3.14,-3.14,-3.57,-4.70,-4.71,-4.70
264,-1.56,3.14,-1.57,3.14,-3.14,-3.55,-4.70,-4.71,-4.70
266,-1.56,3.14,-1.57,3.14,-3.14,-3.54,-4.70,-4.71,-4.70
269,-1.57,3.14,-1.57,3.14,-3.14,-3.52,-4.71,-4.71,-4.71
272,-1.57,3.14,-1.57,3.14,-3.14,-3.49,-4.71,-4.71,-4.71
274,-1.57,3.14,-1.57,3.14,-3.14,-3.47,-4.71,-4.71,-4.71
277,-1.58,3.13,-1.57,3.14,-3.14,-3.43,-4.72,-4.71,-4.71
280,-1.58,3.13,-1.57,3.14,-3.14,-3.40,-4.72,-4.71,-4.71
283,-1.57,3.14,-1.56,3.15,-3.15,-3.36,-4.71,-4.71,-4.71
286,-1.57,3.14,-1.56,3.15,-3.15,-3.32,-4.72,-4.71,-4.71
288,-1.56,3.14,-1.55,3.15,-3.15,-3.29,-4.71,-4.70,-4.70
291,-1.55,3.14,-1.54,3.16,-3.16,-3.25,-4.70,-4.69,-4.69
294,-1.54,3.14,-1.53,3.16,-3.16,-3.21,-4.70,-4.69,-4.68
297,-1.52,3.15,-1.52,3.16,-3.16,-3.17,-4.68,-4.68,-4.67
300,-1.51,3.15,-1.50,3.16,-3.16,-3.13,-4.67,-4.67,-4.66
303,-1.50,3.15,-1.50,3.16,-3.16,-3.09,-4.66,-4.66,-4.65
306,-1.49,3.15,-1.49,3.16,-3.16,-3.04,-4.65,-4.65,-4.64
309,-1.48,3.16,-1.49,3.15,-3.15,-3.00,-4.63,-4.64,-4.64
312,-1.47,3.16,-1.50,3.13,-3.13,-2.97,-4.60,-4.63,-4.63
316,-1.51,3.12,-1.51,3.11,-3.11,-2.92,-4.62,-4.62,-4.62
319,-1.57,3.05,-1.54,3.08,-3.08,-2.88,-4.65,-4.62,-4.62
322,-1.57,3.05,-1.58,3.04,-3.04,-2.85,-4.61,-4.61,-4.62
325,-1.57,3.05,-1.62,2.99,-2.99,-2.81,-4.56,-4.61,-4.62
328,-1.66,2.96,-1.69,2.93,-2.93,-2.78,-4.59,-4.61,-4.62
332,-1.73,2.89,-1.76,2.86,-2.86,-2.74,-4.59,-4.62,-4.62
335,-1.77,2.85,-1.83,2.79,-2.79,-2.72,-4.56,-4.62,-4.62
338,-1.88,2.74,-1.91,2.71,-2.71,-2.69,-4.59,-4.63,-4.62
342,-1.98,2.64,-2.00,2.64,-2.64,-2.66,-4.62,-4.63,-4.62
345,-2.07,2.55,-2.08,2.56,-2.56,-2.64,-4.63,-4.64,-4.62
349,-2.22,2.40,-2.15,2.49,-2.49,-2.61,-4.71,-4.64,-4.62
352,-2.27,2.35,-2.21,2.42,-2.42,-2.59,-4.69,-4.63,-4.62
356,-2.31,2.30,-2.26,2.37,-2.37,-2.57,-4.68,-4.63,-4.61
359,-2.37,2.24,-2.31,2.32,-2.32,-2.56,-4.69,-4.63,-4.61
363,-2.37,2.23,-2.33,2.29,-2.29,-2.54,-4.66,-4.62,-4.60
366,-2.36,2.24,-2.35,2.27,-2.27,-2.53,-4.63,-4.62,-4.59
370,-2.35,2.24,-2.35,2.27,-2.27,-2.52,-4.62,-4.62,-4.59
374,-2.35,2.23,-2.32,2.28,-2.28,-2.51,-4.63,-4.60,-4.58
377,-2.29,2.28,-2.28,2.30,-2.30,-2.51,-4.59,-4.59,-4.57
381,-2.17,2.40,-2.24,2.33,-2.33,-2.50,-4.50,-4.57,-4.57
385,-2.21,2.35,-2.19,2.37,-2.37,-2.50,-4.58,-4.56,-4.56
389,-2.19,2.37,-2.15,2.41,-2.41,-2.50,-4.60,-4.56,-4.56
393,-2.12,2.43,-2.11,2.46,-2.46,-2.50,-4.58,-4.56,-4.55
397,-2.04,2.51,-2.06,2.50,-2.50,-2.50,-4.54,-4.56,-4.55
401,-1.98,2.57,-2.01,2.55,-2.55,-2.50,-4.53,-4.56,-4.55
405,-1.84,2.72,-1.97,2.59,-2.59,-2.51,-4.43,-4.56,-4.55
409,-1.87,2.69,-1.92,2.63,-2.63,-2.51,-4.50,-4.56,-4.56
413,-1.92,2.64,-1.88,2.67,-2.67,-2.52,-4.59,-4.55,-4.56
417,-1.92,2.63,-1.85,2.70,-2.70,-2.53,-4.62,-4.55,-4.55
421,-1.84,2.71,-1.81,2.73,-2.73,-2.54,-4.57,-4.54,-4.55
425,-1.79,2.75,-1.77,2.76,-2.76,-2.55,-4.54,-4.53,-4.53
430,-1.70,2.82,-1.74,2.78,-2.78,-2.56,-4.47,-4.52,-4.52
434,-1.68,2.81,-1.70,2.79,-2.79,-2.57,-4.47,-4.50,-4.49
438,-1.66,2.80,-1.66,2.81,-2.81,-2.58,-4.47,-4.47,-4.46
443,-1.62,2.81,-1.61,2.82,-2.82,-2.60,-4.44,-4.43,-4.43
447,-1.57,2.81,-1.55,2.84,-2.84,-2.61,-4.41,-4.39,-4.38
451,-1.52,2.81,-1.49,2.85,-2.85,-2.62,-4.37,-4.34,-4.33
456,-1.46,2.82,-1.42,2.86,-2.86,-2.63,-4.32,-4.28,-4.28
460,-1.43,2.79,-1.36,2.86,-2.86,-2.64,-4.29,-4.22,-4.22
465,-1.42,2.74,-1.30,2.86,-2.86,-2.65,-4.28,-4.16,-4.16
470,-1.18,2.92,-1.25,2.86,-2.86,-2.66,-4.04,-4.11,-4.10
474,-1.06,2.99,-1.21,2.85,-2.85,-2.67,-3.91,-4.06,-4.05
479,-1.12,2.87,-1.17,2.83,-2.83,-2.68,-3.95,-4.01,-3.99
484,-1.12,2.82,-1.14,2.82,-2.82,-2.68,-3.93,-3.96,-3.94
489,-1.08,2.81,-1.12,2.79,-2.79,-2.69,-3.87,-3.91,-3.89
494,-1.11,2.74,-1.10,2.77,-2.77,-2.69,-3.88,-3.87,-3.85
499,-1.08,2.74,-1.09,2.74,-2.74,-2.70,-3.82,-3.84,-3.82
504,-1.10,2.69,-1.09,2.72,-2.72,-2.70,-3.81,-3.81,-3.79
509,-1.13,2.65,-1.10,2.69,-2.69,-2.70,-3.82,-3.79,-3.77
514,-1.21,2.56,-1.13,2.66,-2.66,-2.69,-3.87,-3.79,-3.76
519,-1.19,2.57,-1.16,2.64,-2.64,-2.69,-3.83,-3.80,-3.76
524,-1.17,2.60,-1.18,2.62,-2.62,-2.69,-3.79,-3.81,-3.77
529,-1.18,2.60,-1.20,2.61,-2.61,-2.68,-3.79,-3.81,-3.78
535,-1.20,2.61,-1.23,2.60,-2.60,-2.68,-3.80,-3.83,-3.81
540,-1.23,2.60,-1.26,2.59,-2.59,-2.67,-3.82,-3.85,-3.83
545,-1.27,2.60,-1.29,2.59,-2.59,-2.66,-3.86,-3.88,-3.87
551,-1.31,2.59,-1.32,2.59,-2.59,-2.65,-3.90,-3.91,-3.90
556,-1.37,2.56,-1.34,2.59,-2.59,-2.65,-3.96,-3.93,-3.93
562,-1.42,2.55,-1.36,2.60,-2.60,-2.64,-4.02,-3.96,-3.97
568,-1.37,2.63,-1.38,2.60,-2.60,-2.63,-3.97,-3.98,-3.99
573,-1.41,2.61,-1.41,2.60,-2.60,-2.62,-4.01,-4.01,-4.02
579,-1.44,2.60,-1.43,2.59,-2.59,-2.61,-4.03,-4.02,-4.04
585,-1.47,2.58,-1.46,2.57,-2.57,-2.60,-4.04,-4.03,-4.05
591,-1.48,2.57,-1.48,2.55,-2.55,-2.59,-4.03,-4.03,-4.05
596,-1.49,2.56,-1.51,2.53,-2.53,-2.59,-4.02,-4.04,-4.05
602,-1.48,2.56,-1.53,2.50,-2.50,-2.58,-3.98,-4.03,-4.04
608,-1.47,2.56,-1.56,2.47,-2.47,-2.58,-3.94,-4.03,-4.03
615,-1.56,2.44,-1.57,2.44,-2.44,-2.57,-4.00,-4.01,-4.00
621,-1.54,2.44,-1.57,2.42,-2.42,-2.57,-3.96,-3.99,-3.97
627,-1.55,2.39,-1.57,2.40,-2.40,-2.57,-3.95,-3.97,-3.94
633,-1.58,2.32,-1.54,2.39,-2.39,-2.57,-3.97,-3.93,-3.90
639,-1.62,2.24,-1.50,2.39,-2.39,-2.57,-4.01,-3.89,-3.86
646,-1.56,2.25,-1.44,2.41,-2.41,-2.57,-3.97,-3.84,-3.81
652,-1.47,2.29,-1.36,2.43,-2.43,-2.58,-3.90,-3.80,-3.76
659,-1.35,2.36,-1.27,2.48,-2.48,-2.59,-3.83,-3.75,-3.71
665,-1.21,2.45,-1.17,2.53,-2.53,-2.59,-3.74,-3.70,-3.66
672,-1.02,2.59,-1.05,2.59,-2.59,-2.61,-3.61,-3.64,-3.60
679,-0.91,2.65,-0.93,2.66,-2.66,-2.62,-3.57,-3.59,-3.56
686,-0.76,2.75,-0.80,2.73,-2.73,-2.64,-3.49,-3.54,-3.51
692,-0.59,2.89,-0.69,2.80,-2.80,-2.65,-3.39,-3.49,-3.48
699,-0.57,2.88,-0.59,2.85,-2.85,-2.67,-3.42,-3.44,-3.44
706,-0.46,2.96,-0.51,2.90,-2.90,-2.69,-3.36,-3.41,-3.42
713,-0.41,3.00,-0.46,2.94,-2.94,-2.72,-3.34,-3.40,-3.41
721,-0.32,3.08,-0.43,2.96,-2.96,-2.74,-3.28,-3.39,-3.40
728,-0.35,3.05,-0.42,2.96,-2.96,-2.77,-3.31,-3.38,-3.40
735,-0.38,3.02,-0.43,2.96,-2.96,-2.80,-3.34,-3.38,-3.40
742,-0.41,2.99,-0.45,2.94,-2.94,-2.83,-3.35,-3.39,-3.40
750,-0.45,2.95,-0.48,2.92,-2.92,-2.87,-3.37,-3.40,-3.40
757,-0.60,2.80,-0.51,2.90,-2.90,-2.90,-3.49,-3.41,-3.40
765,-0.62,2.77,-0.54,2.87,-2.87,-2.94,-3.49,-3.41,-3.39
773,-0.61,2.78,-0.55,2.86,-2.86,-2.98,-3.47,-3.41,-3.39
780,-0.62,2.76,-0.55,2.85,-2.85,-3.02,-3.47,-3.41,-3.38
788,-0.53,2.84,-0.54,2.86,-2.86,-3.06,-3.39,-3.40,-3.37
796,-0.54,2.81,-0.51,2.89,-2.89,-3.11,-3.43,-3.39,-3.35
804,-0.52,2.82,-0.45,2.93,-2.93,-3.15,-3.45,-3.37,-3.34
812,-0.44,2.88,-0.37,2.98,-2.98,-3.20,-3.42,-3.35,-3.32
820,-0.33,2.97,-0.28,3.06,-3.06,-3.24,-3.39,-3.34,-3.30
828,-0.21,3.08,-0.18,3.14,-3.14,-3.29,-3.35,-3.32,-3.29
837,-0.04,3.23,-0.07,3.23,-3.23,-3.34,-3.27,-3.30,-3.27
845,0.09,3.35,0.05,3.33,-3.33,-3.39,-3.24,-3.28,-3.26
853,0.18,3.43,0.17,3.42,-3.42,-3.43,-3.24,-3.25,-3.25
862,0.26,3.50,0.28,3.51,-3.51,-3.48,-3.25,-3.23,-3.24
871,0.41,3.64,0.37,3.58,-3.58,-3.53,-3.17,-3.21,-3.23
879,0.45,3.68,0.45,3.64,-3.64,-3.57,-3.19,-3.19,-3.23
888,0.49,3.71,0.50,3.68,-3.68,-3.61,-3.19,-3.19,-3.22
897,0.53,3.75,0.51,3.71,-3.71,-3.65,-3.18,-3.19,-3.22
906,0.62,3.83,0.51,3.71,-3.71,-3.69,-3.09,-3.20,-3.21
915,0.65,3.86,0.48,3.69,-3.69,-3.73,-3.04,-3.21,-3.21
924,0.59,3.79,0.44,3.65,-3.65,-3.76,-3.06,-3.21,-3.20
933,0.44,3.63,0.39,3.59,-3.59,-3.79,-3.15,-3.20,-3.19
943,0.29,3.48,0.33,3.52,-3.52,-3.82,-3.23,-3.19,-3.18
952,0.14,3.32,0.26,3.45,-3.45,-3.84,-3.31,-3.19,-3.18
962,0.05,3.22,0.18,3.36,-3.36,-3.86,-3.31,-3.18,-3.17
971,-0.01,3.14,0.11,3.28,-3.28,-3.87,-3.29,-3.17,-3.15
981,-0.06,3.08,0.03,3.20,-3.20,-3.88,-3.26,-3.17,-3.14
991,-0.01,3.12,-0.04,3.12,-3.12,-3.88,-3.13,-3.16,-3.12
1001,0.00,3.11,-0.09,3.05,-3.05,-3.88,-3.05,-3.14,-3.11
1011,-0.09,3.00,-0.12,2.99,-2.99,-3.88,-3.08,-3.11,-3.09
1021,-0.13,2.93,-0.14,2.94,-2.94,-3.87,-3.07,-3.09,-3.06
1031,-0.14,2.90,-0.15,2.90,-2.90,-3.85,-3.04,-3.05,-3.04
1041,-0.21,2.80,-0.15,2.88,-2.88,-3.83,-3.08,-3.02,-3.01
1052,-0.18,2.81,-0.13,2.86,-2.86,-3.81,-3.04,-2.99,-2.98
1062,-0.14,2.82,-0.11,2.85,-2.85,-3.78,-2.99,-2.96,-2.96
1073,-0.09,2.84,-0.09,2.85,-2.85,-3.74,-2.94,-2.94,-2.93
1084,-0.02,2.88,-0.06,2.86,-2.86,-3.71,-2.88,-2.92,-2.90
1094,0.06,2.93,-0.01,2.88,-2.88,-3.67,-2.82,-2.89,-2.87
1105,-0.01,2.83,0.04,2.90,-2.90,-3.63,-2.91,-2.86,-2.84
1116,0.01,2.81,0.11,2.92,-2.92,-3.58,-2.91,-2.82,-2.80
1128,0.16,2.93,0.18,2.95,-2.95,-3.53,-2.79,-2.77,-2.77
1139,0.28,3.02,0.25,2.98,-2.98,-3.49,-2.70,-2.73,-2.73
1150,0.36,3.06,0.32,3.02,-3.02,-3.44,-2.66,-2.69,-2.70
1162,0.39,3.05,0.39,3.05,-3.05,-3.38,-2.66,-2.66,-2.66
1173,0.44,3.07,0.46,3.08,-3.08,-3.33,-2.64,-2.62,-2.63
1185,0.57,3.16,0.53,3.12,-3.12,-3.28,-2.54,-2.58,-2.59
1197,0.64,3.19,0.60,3.15,-3.15,-3.23,-2.51,-2.55,-2.55
1209,0.67,3.19,0.66,3.18,-3.18,-3.17,-2.50,-2.51,-2.52
1221,0.71,3.19,0.73,3.20,-3.20,-3.12,-2.49,-2.48,-2.48
1233,0.80,3.25,0.78,3.23,-3.23,-3.07,-2.43,-2.45,-2.45
1246,0.81,3.23,0.82,3.25,-3.25,-3.02,-2.44,-2.43,-2.42
1258,0.86,3.25,0.87,3.28,-3.28,-2.97,-2.42,-2.41,-2.39
1271,0.92,3.30,0.90,3.30,-3.30,-2.92,-2.38,-2.40,-2.37
1283,0.97,3.33,0.94,3.33,-3.33,-2.87,-2.36,-2.38,-2.36
1296,0.97,3.33,0.98,3.35,-3.35,-2.82,-2.38,-2.37,-2.36
1309,0.97,3.33,1.01,3.38,-3.38,-2.78,-2.41,-2.38,-2.36
1322,1.03,3.40,1.03,3.42,-3.42,-2.74,-2.39,-2.38,-2.37
1335,1.07,3.45,1.06,3.46,-3.46,-2.70,-2.39,-2.40,-2.38
1349,1.12,3.51,1.09,3.50,-3.50,-2.66,-2.38,-2.41,-2.39
1362,1.17,3.58,1.12,3.55,-3.55,-2.62,-2.38,-2.43,-2.41
1376,1.13,3.56,1.15,3.61,-3.61,-2.59,-2.48,-2.45,-2.43
1390,1.18,3.63,1.20,3.67,-3.67,-2.55,-2.49,-2.48,-2.45
1404,1.27,3.74,1.24,3.74,-3.74,-2.52,-2.47,-2.50,-2.47
1418,1.27,3.76,1.31,3.82,-3.82,-2.49,-2.55,-2.51,-2.49
1432,1.25,3.75,1.38,3.90,-3.90,-2.47,-2.64,-2.51,-2.50
1446,1.37,3.88,1.47,3.98,-3.98,-2.44,-2.60,-2.51,-2.51
1461,1.49,4.00,1.54,4.05,-4.05,-2.42,-2.56,-2.51,-2.51
1475,1.60,4.11,1.62,4.13,-4.13,-2.40,-2.53,-2.51,-2.51
1490,1.70,4.21,1.69,4.19,-4.19,-2.38,-2.49,-2.50,-2.51
1505,1.79,4.29,1.75,4.24,-4.24,-2.36,-2.45,-2.49,-2.50
1520,1.87,4.36,1.80,4.28,-4.28,-2.35,-2.41,-2.48,-2.49
