frequency,raw,error,smoothed,error_smoothed,equalization,parametric_eq,fixed_band_eq,equalized_raw,equalized_smoothed,target
20.00,-1.92,-5.11,-1.92,-5.11,5.11,4.78,0.85,3.19,3.19,3.19
20.20,-1.81,-5.04,-1.81,-5.04,5.04,4.72,0.88,3.23,3.23,3.23
20.40,-1.70,-4.97,-1.70,-4.97,4.97,4.66,0.90,3.27,3.27,3.27
20.61,-1.59,-4.89,-1.59,-4.89,4.89,4.60,0.93,3.30,3.30,3.30
20.81,-1.48,-4.82,-1.48,-4.82,4.82,4.54,0.96,3.34,3.34,3.34
21.02,-1.37,-4.75,-1.37,-4.74,4.74,4.48,1.00,3.36,3.36,3.38
21.23,-1.26,-4.66,-1.26,-4.66,4.65,4.41,1.03,3.39,3.39,3.40
21.44,-1.15,-4.57,-1.15,-4.57,4.56,4.35,1.06,3.41,3.41,3.42
21.66,-1.04,-4.48,-1.04,-4.47,4.47,4.28,1.10,3.43,3.43,3.44
21.87,-0.93,-4.38,-0.93,-4.38,4.38,4.22,1.13,3.45,3.45,3.45
22.09,-0.81,-4.28,-0.81,-4.28,4.28,4.15,1.17,3.47,3.47,3.47
22.31,-0.70,-4.18,-0.70,-4.18,4.18,4.08,1.21,3.48,3.48,3.47
22.54,-0.59,-4.08,-0.59,-4.08,4.08,4.02,1.25,3.49,3.49,3.48
22.76,-0.49,-3.98,-0.49,-3.98,3.98,3.95,1.29,3.49,3.49,3.49
22.99,-0.38,-3.88,-0.38,-3.88,3.87,3.88,1.33,3.49,3.50,3.49
23.22,-0.26,-3.77,-0.27,-3.77,3.77,3.81,1.37,3.51,3.50,3.50
23.45,-0.15,-3.66,-0.15,-3.66,3.66,3.74,1.41,3.51,3.51,3.51
23.69,-0.03,-3.56,-0.03,-3.55,3.55,3.66,1.46,3.52,3.52,3.52
23.92,0.10,-3.43,0.10,-3.44,3.44,3.59,1.50,3.54,3.53,3.53
24.16,0.23,-3.32,0.23,-3.32,3.32,3.52,1.55,3.55,3.55,3.55
24.40,0.36,-3.21,0.36,-3.21,3.20,3.44,1.59,3.56,3.56,3.57
24.65,0.48,-3.09,0.48,-3.09,3.09,3.37,1.64,3.57,3.57,3.57
24.89,0.61,-2.97,0.61,-2.97,2.98,3.29,1.68,3.59,3.58,3.58
25.14,0.73,-2.86,0.73,-2.86,2.87,3.22,1.73,3.60,3.60,3.59
25.39,0.85,-2.75,0.85,-2.75,2.76,3.14,1.77,3.61,3.61,3.60
25.65,0.97,-2.65,0.96,-2.65,2.65,3.06,1.82,3.62,3.62,3.62
25.91,1.07,-2.55,1.06,-2.56,2.56,2.98,1.86,3.62,3.62,3.62
26.16,1.16,-2.47,1.16,-2.46,2.46,2.90,1.91,3.62,3.63,3.63
26.43,1.26,-2.38,1.26,-2.37,2.37,2.82,1.95,3.63,3.64,3.64
26.69,1.37,-2.28,1.36,-2.29,2.29,2.74,1.99,3.66,3.65,3.65
26.96,1.46,-2.21,1.45,-2.21,2.21,2.66,2.03,3.66,3.66,3.67
27.23,1.54,-2.14,1.54,-2.13,2.13,2.58,2.07,3.67,3.67,3.68
27.50,1.63,-2.06,1.63,-2.05,2.05,2.50,2.10,3.68,3.68,3.68
27.77,1.72,-1.96,1.71,-1.98,1.98,2.41,2.13,3.70,3.70,3.68
28.05,1.79,-1.91,1.79,-1.91,1.91,2.33,2.16,3.70,3.70,3.70
28.33,1.86,-1.84,1.86,-1.85,1.85,2.24,2.19,3.71,3.70,3.70
28.62,1.92,-1.79,1.92,-1.79,1.79,2.16,2.21,3.70,3.71,3.71
28.90,1.99,-1.73,1.99,-1.73,1.72,2.07,2.23,3.71,3.72,3.72
29.19,2.07,-1.65,2.06,-1.67,1.66,1.98,2.24,3.73,3.73,3.72
29.48,2.14,-1.61,2.13,-1.61,1.61,1.90,2.25,3.74,3.74,3.75
29.78,2.20,-1.55,2.20,-1.55,1.55,1.81,2.26,3.74,3.75,3.75
30.08,2.27,-1.49,2.27,-1.49,1.48,1.72,2.25,3.75,3.75,3.76
30.38,2.34,-1.42,2.34,-1.43,1.42,1.63,2.25,3.76,3.76,3.76
30.68,2.41,-1.37,2.41,-1.36,1.36,1.54,2.23,3.77,3.77,3.77
30.99,2.48,-1.30,2.48,-1.29,1.30,1.45,2.21,3.78,3.78,3.77
31.30,2.56,-1.22,2.55,-1.23,1.23,1.36,2.19,3.79,3.79,3.78
31.61,2.63,-1.16,2.62,-1.17,1.17,1.27,2.16,3.80,3.79,3.79
31.93,2.69,-1.11,2.69,-1.10,1.10,1.18,2.12,3.79,3.79,3.80
32.24,2.76,-1.04,2.77,-1.04,1.04,1.08,2.08,3.80,3.80,3.80
32.57,2.85,-0.97,2.84,-0.97,0.97,0.99,2.03,3.82,3.81,3.82
32.89,2.93,-0.90,2.93,-0.90,0.90,0.90,1.97,3.83,3.83,3.83
33.22,3.01,-0.83,3.01,-0.83,0.83,0.80,1.91,3.84,3.84,3.83
33.55,3.09,-0.75,3.09,-0.76,0.76,0.71,1.85,3.85,3.84,3.84
33.89,3.17,-0.68,3.17,-0.68,0.68,0.62,1.77,3.85,3.85,3.85
34.23,3.25,-0.61,3.25,-0.60,0.60,0.52,1.70,3.85,3.86,3.86
34.57,3.35,-0.52,3.34,-0.52,0.52,0.43,1.62,3.87,3.86,3.87
34.92,3.43,-0.44,3.43,-0.44,0.44,0.33,1.54,3.86,3.87,3.87
35.27,3.52,-0.36,3.52,-0.35,0.35,0.24,1.45,3.87,3.87,3.87
35.62,3.62,-0.26,3.62,-0.26,0.26,0.14,1.35,3.87,3.87,3.88
35.97,3.72,-0.16,3.72,-0.16,0.16,0.05,1.26,3.88,3.88,3.88
36.33,3.83,-0.06,3.82,-0.06,0.07,-0.05,1.16,3.90,3.89,3.89
36.70,3.92,0.03,3.92,0.04,-0.03,-0.15,1.06,3.89,3.89,3.88
37.06,4.02,0.13,4.02,0.13,-0.13,-0.24,0.96,3.89,3.90,3.89
37.43,4.13,0.23,4.12,0.23,-0.23,-0.34,0.85,3.90,3.90,3.90
37.81,4.22,0.32,4.22,0.32,-0.33,-0.43,0.74,3.89,3.89,3.90
38.19,4.32,0.42,4.32,0.42,-0.42,-0.53,0.63,3.89,3.89,3.89
38.57,4.41,0.52,4.41,0.52,-0.52,-0.62,0.52,3.88,3.89,3.89
38.95,4.52,0.63,4.51,0.62,-0.63,-0.72,0.41,3.89,3.89,3.89
39.34,4.61,0.72,4.61,0.73,-0.73,-0.81,0.29,3.88,3.89,3.89
39.74,4.71,0.82,4.71,0.83,-0.83,-0.91,0.18,3.88,3.89,3.88
40.14,4.82,0.93,4.81,0.92,-0.92,-1.00,0.06,3.89,3.89,3.89
40.54,4.91,1.02,4.91,1.02,-1.02,-1.09,-0.06,3.89,3.89,3.89
40.94,5.00,1.12,5.00,1.12,-1.11,-1.19,-0.18,3.89,3.89,3.88
41.35,5.09,1.21,5.09,1.21,-1.20,-1.28,-0.30,3.89,3.89,3.88
41.76,5.18,1.29,5.18,1.29,-1.29,-1.37,-0.42,3.89,3.89,3.89
42.18,5.27,1.38,5.27,1.38,-1.38,-1.46,-0.54,3.89,3.88,3.89
42.60,5.35,1.46,5.35,1.46,-1.47,-1.55,-0.66,3.87,3.88,3.89
43.03,5.45,1.55,5.45,1.56,-1.57,-1.64,-0.79,3.88,3.88,3.89
43.46,5.54,1.65,5.54,1.66,-1.66,-1.73,-0.91,3.88,3.88,3.89
43.90,5.64,1.76,5.64,1.75,-1.75,-1.82,-1.04,3.89,3.89,3.87
44.33,5.73,1.85,5.72,1.85,-1.84,-1.91,-1.16,3.89,3.88,3.88
44.78,5.81,1.93,5.81,1.94,-1.93,-1.99,-1.29,3.88,3.88,3.87
45.23,5.89,2.02,5.89,2.02,-2.02,-2.08,-1.42,3.87,3.87,3.87
45.68,5.98,2.10,5.98,2.10,-2.10,-2.16,-1.54,3.88,3.87,3.87
46.13,6.06,2.19,6.06,2.18,-2.18,-2.25,-1.67,3.88,3.88,3.87
46.60,6.14,2.25,6.14,2.26,-2.26,-2.33,-1.80,3.88,3.88,3.88
47.06,6.21,2.33,6.21,2.33,-2.33,-2.41,-1.93,3.88,3.88,3.88
47.53,6.28,2.41,6.28,2.40,-2.40,-2.49,-2.06,3.88,3.88,3.87
48.01,6.34,2.45,6.34,2.46,-2.47,-2.57,-2.20,3.87,3.87,3.88
48.49,6.39,2.52,6.39,2.53,-2.53,-2.64,-2.33,3.86,3.86,3.87
48.97,6.45,2.60,6.45,2.59,-2.60,-2.72,-2.46,3.85,3.85,3.85
49.46,6.51,2.66,6.50,2.66,-2.66,-2.79,-2.59,3.85,3.84,3.84
49.96,6.56,2.73,6.56,2.72,-2.72,-2.86,-2.72,3.84,3.84,3.83
50.46,6.60,2.77,6.61,2.78,-2.78,-2.93,-2.86,3.82,3.83,3.83
50.96,6.66,2.84,6.65,2.84,-2.84,-3.00,-2.99,3.82,3.82,3.82
51.47,6.70,2.90,6.70,2.89,-2.89,-3.07,-3.12,3.81,3.81,3.79
51.99,6.74,2.95,6.74,2.95,-2.94,-3.14,-3.25,3.79,3.79,3.79
52.51,6.77,2.98,6.77,2.99,-3.00,-3.20,-3.38,3.77,3.78,3.79
53.03,6.81,3.04,6.81,3.04,-3.05,-3.26,-3.51,3.76,3.76,3.77
53.56,6.85,3.09,6.85,3.09,-3.09,-3.32,-3.63,3.75,3.75,3.76
54.10,6.89,3.15,6.89,3.15,-3.14,-3.38,-3.76,3.74,3.74,3.74
54.64,6.93,3.20,6.92,3.20,-3.20,-3.44,-3.88,3.73,3.73,3.73
55.18,6.96,3.25,6.96,3.25,-3.25,-3.49,-3.99,3.71,3.71,3.71
55.74,6.99,3.30,6.99,3.30,-3.30,-3.55,-4.11,3.68,3.69,3.69
56.29,7.03,3.34,7.03,3.35,-3.36,-3.60,-4.22,3.67,3.67,3.69
56.86,7.08,3.41,7.08,3.42,-3.42,-3.65,-4.32,3.66,3.66,3.66
57.42,7.13,3.49,7.13,3.48,-3.47,-3.70,-4.42,3.66,3.66,3.64
58.00,7.18,3.55,7.17,3.55,-3.53,-3.74,-4.51,3.65,3.64,3.63
58.58,7.22,3.60,7.22,3.60,-3.60,-3.79,-4.60,3.62,3.62,3.62
59.16,7.26,3.66,7.26,3.66,-3.67,-3.83,-4.68,3.59,3.60,3.60
59.76,7.31,3.72,7.31,3.72,-3.74,-3.87,-4.75,3.57,3.57,3.59
60.35,7.37,3.80,7.37,3.80,-3.82,-3.91,-4.82,3.55,3.55,3.57
60.96,7.43,3.89,7.43,3.89,-3.90,-3.95,-4.88,3.52,3.53,3.54
61.57,7.50,3.99,7.50,3.99,-3.99,-3.99,-4.93,3.51,3.51,3.51
62.18,7.57,4.10,7.57,4.09,-4.08,-4.02,-4.97,3.49,3.49,3.47
62.80,7.63,4.17,7.63,4.18,-4.17,-4.06,-5.00,3.46,3.46,3.45
63.43,7.69,4.27,7.69,4.27,-4.26,-4.09,-5.03,3.43,3.43,3.42
64.07,7.74,4.35,7.74,4.34,-4.34,-4.12,-5.05,3.40,3.40,3.39
64.71,7.78,4.41,7.78,4.42,-4.42,-4.15,-5.05,3.36,3.36,3.36
65.35,7.82,4.48,7.82,4.48,-4.49,-4.18,-5.06,3.33,3.33,3.34
66.01,7.86,4.55,7.86,4.55,-4.55,-4.20,-5.05,3.31,3.31,3.31
66.67,7.90,4.61,7.90,4.61,-4.61,-4.23,-5.04,3.29,3.28,3.29
67.33,7.93,4.67,7.92,4.67,-4.67,-4.25,-5.02,3.26,3.26,3.26
68.01,7.94,4.71,7.94,4.71,-4.72,-4.27,-5.00,3.22,3.23,3.23
68.69,7.96,4.76,7.96,4.76,-4.76,-4.29,-4.97,3.20,3.20,3.20
69.37,7.97,4.80,7.97,4.80,-4.80,-4.31,-4.94,3.17,3.17,3.17
70.07,7.98,4.84,7.98,4.84,-4.83,-4.33,-4.90,3.15,3.14,3.13
70.77,7.98,4.87,7.98,4.87,-4.86,-4.35,-4.86,3.12,3.12,3.11
71.48,7.98,4.89,7.98,4.89,-4.89,-4.37,-4.81,3.09,3.09,3.09
72.19,7.97,4.91,7.97,4.91,-4.91,-4.38,-4.77,3.06,3.06,3.06
72.91,7.96,4.93,7.96,4.93,-4.94,-4.40,-4.72,3.02,3.03,3.03
73.64,7.96,4.95,7.96,4.95,-4.96,-4.41,-4.67,3.00,3.00,3.01
74.38,7.96,4.97,7.96,4.97,-4.98,-4.42,-4.62,2.98,2.98,2.99
75.12,7.97,5.00,7.97,5.00,-5.00,-4.44,-4.57,2.97,2.96,2.97
75.87,7.97,5.02,7.97,5.02,-5.02,-4.45,-4.52,2.95,2.95,2.95
76.63,7.98,5.05,7.98,5.05,-5.04,-4.46,-4.47,2.94,2.94,2.93
77.40,7.98,5.06,7.98,5.06,-5.05,-4.47,-4.42,2.92,2.92,2.91
78.17,7.97,5.07,7.97,5.07,-5.06,-4.48,-4.38,2.91,2.91,2.90
78.95,7.96,5.07,7.96,5.07,-5.07,-4.48,-4.33,2.89,2.89,2.89
79.74,7.94,5.06,7.94,5.06,-5.06,-4.49,-4.29,2.88,2.88,2.88
80.54,7.92,5.05,7.92,5.05,-5.05,-4.50,-4.24,2.87,2.87,2.87
81.35,7.90,5.04,7.90,5.04,-5.04,-4.51,-4.20,2.86,2.86,2.86
82.16,7.87,5.02,7.87,5.02,-5.02,-4.51,-4.17,2.84,2.84,2.85
82.98,7.84,4.99,7.84,5.00,-5.01,-4.52,-4.13,2.83,2.83,2.84
83.81,7.81,4.98,7.81,4.98,-4.99,-4.52,-4.10,2.82,2.83,2.83
84.65,7.79,4.97,7.79,4.96,-4.96,-4.53,-4.07,2.83,2.82,2.82
85.50,7.76,4.93,7.76,4.94,-4.94,-4.53,-4.05,2.82,2.82,2.82
86.35,7.74,4.92,7.74,4.92,-4.91,-4.53,-4.02,2.83,2.83,2.82
87.22,7.71,4.89,7.71,4.89,-4.88,-4.54,-4.00,2.83,2.82,2.82
88.09,7.67,4.86,7.67,4.86,-4.85,-4.54,-3.98,2.82,2.82,2.81
88.97,7.64,4.82,7.64,4.82,-4.82,-4.54,-3.97,2.81,2.81,2.82
89.86,7.60,4.78,7.60,4.79,-4.80,-4.54,-3.96,2.80,2.80,2.82
90.76,7.57,4.76,7.57,4.76,-4.77,-4.54,-3.95,2.80,2.80,2.80
91.66,7.54,4.73,7.54,4.73,-4.74,-4.54,-3.95,2.80,2.80,2.81
92.58,7.52,4.72,7.52,4.72,-4.72,-4.54,-3.94,2.80,2.81,2.80
93.51,7.51,4.70,7.50,4.70,-4.69,-4.54,-3.94,2.82,2.81,2.81
94.44,7.49,4.68,7.48,4.67,-4.67,-4.54,-3.95,2.82,2.82,2.81
95.39,7.45,4.64,7.45,4.65,-4.64,-4.54,-3.96,2.81,2.81,2.81
96.34,7.41,4.62,7.41,4.62,-4.61,-4.54,-3.97,2.80,2.80,2.79
97.30,7.37,4.59,7.36,4.58,-4.58,-4.54,-3.98,2.79,2.78,2.78
98.28,7.32,4.55,7.32,4.55,-4.55,-4.54,-3.99,2.77,2.77,2.77
99.26,7.28,4.51,7.28,4.52,-4.52,-4.53,-4.01,2.76,2.76,2.76
100.25,7.25,4.49,7.24,4.49,-4.49,-4.53,-4.03,2.76,2.75,2.75
101.25,7.20,4.45,7.20,4.46,-4.46,-4.53,-4.05,2.74,2.74,2.75
102.27,7.16,4.43,7.16,4.43,-4.44,-4.52,-4.07,2.72,2.72,2.73
103.29,7.12,4.41,7.12,4.41,-4.41,-4.52,-4.09,2.71,2.71,2.71
104.32,7.08,4.38,7.08,4.39,-4.39,-4.51,-4.12,2.69,2.69,2.70
105.37,7.05,4.37,7.05,4.37,-4.37,-4.51,-4.15,2.68,2.68,2.68
106.42,7.01,4.36,7.01,4.35,-4.35,-4.50,-4.17,2.66,2.66,2.65
107.48,6.96,4.33,6.96,4.34,-4.32,-4.49,-4.20,2.63,2.64,2.63
108.56,6.91,4.32,6.91,4.31,-4.30,-4.48,-4.23,2.61,2.60,2.59
109.64,6.85,4.29,6.85,4.29,-4.28,-4.48,-4.26,2.57,2.57,2.56
110.74,6.79,4.26,6.79,4.26,-4.26,-4.47,-4.28,2.52,2.52,2.53
111.85,6.73,4.24,6.73,4.24,-4.25,-4.46,-4.31,2.48,2.48,2.49
112.97,6.67,4.22,6.67,4.22,-4.24,-4.45,-4.33,2.43,2.44,2.44
114.10,6.63,4.21,6.63,4.22,-4.23,-4.44,-4.36,2.40,2.40,2.42
115.24,6.59,4.22,6.59,4.22,-4.22,-4.43,-4.38,2.37,2.37,2.37
116.39,6.55,4.23,6.55,4.23,-4.22,-4.42,-4.40,2.33,2.33,2.32
117.55,6.51,4.23,6.50,4.23,-4.21,-4.41,-4.41,2.29,2.29,2.28
118.73,6.46,4.22,6.46,4.22,-4.22,-4.39,-4.43,2.24,2.24,2.23
119.92,6.41,4.20,6.41,4.21,-4.22,-4.38,-4.44,2.19,2.19,2.21
121.12,6.37,4.21,6.37,4.21,-4.22,-4.37,-4.44,2.15,2.16,2.16
122.33,6.34,4.21,6.34,4.21,-4.22,-4.35,-4.45,2.12,2.12,2.12
123.55,6.32,4.22,6.31,4.22,-4.22,-4.34,-4.45,2.10,2.09,2.10
124.79,6.28,4.22,6.28,4.22,-4.22,-4.32,-4.44,2.06,2.06,2.06
126.03,6.24,4.21,6.24,4.21,-4.21,-4.31,-4.44,2.02,2.03,2.03
127.29,6.20,4.21,6.20,4.21,-4.21,-4.29,-4.42,1.99,1.99,1.99
128.57,6.16,4.21,6.16,4.21,-4.20,-4.28,-4.41,1.96,1.96,1.95
129.85,6.12,4.19,6.12,4.20,-4.19,-4.26,-4.39,1.93,1.93,1.93
131.15,6.08,4.19,6.07,4.18,-4.17,-4.24,-4.37,1.91,1.90,1.89
132.46,6.02,4.15,6.02,4.15,-4.14,-4.22,-4.34,1.87,1.88,1.87
133.79,5.96,4.11,5.96,4.12,-4.12,-4.20,-4.31,1.84,1.85,1.85
135.12,5.90,4.08,5.90,4.08,-4.08,-4.18,-4.28,1.82,1.82,1.82
136.48,5.84,4.04,5.83,4.04,-4.05,-4.16,-4.25,1.79,1.79,1.80
137.84,5.77,4.00,5.77,4.01,-4.01,-4.14,-4.21,1.76,1.76,1.77
139.22,5.70,3.96,5.70,3.96,-3.97,-4.12,-4.18,1.73,1.73,1.74
140.61,5.64,3.93,5.64,3.93,-3.93,-4.10,-4.14,1.71,1.71,1.71
142.02,5.58,3.88,5.58,3.89,-3.88,-4.08,-4.10,1.70,1.70,1.70
143.44,5.53,3.85,5.52,3.85,-3.84,-4.05,-4.05,1.69,1.69,1.68
144.87,5.46,3.81,5.45,3.80,-3.79,-4.03,-4.01,1.67,1.66,1.65
146.32,5.38,3.75,5.38,3.75,-3.75,-4.01,-3.97,1.63,1.63,1.63
147.78,5.30,3.69,5.30,3.69,-3.71,-3.98,-3.93,1.59,1.59,1.61
149.26,5.23,3.64,5.23,3.65,-3.66,-3.96,-3.89,1.57,1.56,1.58
150.75,5.16,3.62,5.17,3.62,-3.62,-3.93,-3.84,1.54,1.54,1.54
152.26,5.11,3.59,5.10,3.59,-3.58,-3.91,-3.81,1.53,1.52,1.51
153.78,5.05,3.56,5.04,3.56,-3.55,-3.88,-3.77,1.50,1.49,1.49
155.32,4.97,3.52,4.97,3.52,-3.51,-3.86,-3.73,1.46,1.46,1.45
156.88,4.90,3.47,4.90,3.48,-3.48,-3.83,-3.69,1.42,1.42,1.43
158.44,4.84,3.44,4.84,3.45,-3.46,-3.81,-3.66,1.38,1.38,1.39
160.03,4.78,3.43,4.78,3.43,-3.43,-3.78,-3.63,1.35,1.35,1.35
161.63,4.73,3.42,4.72,3.41,-3.41,-3.76,-3.60,1.32,1.32,1.31
163.24,4.67,3.39,4.67,3.39,-3.39,-3.73,-3.57,1.28,1.28,1.28
164.88,4.62,3.37,4.62,3.37,-3.37,-3.71,-3.54,1.25,1.25,1.25
166.53,4.57,3.36,4.57,3.36,-3.36,-3.68,-3.52,1.21,1.21,1.21
168.19,4.53,3.36,4.52,3.35,-3.35,-3.66,-3.50,1.18,1.18,1.17
169.87,4.48,3.34,4.48,3.34,-3.34,-3.63,-3.48,1.14,1.14,1.13
171.57,4.43,3.33,4.43,3.33,-3.33,-3.61,-3.46,1.09,1.10,1.10
173.29,4.38,3.33,4.38,3.33,-3.33,-3.58,-3.45,1.05,1.05,1.05
175.02,4.34,3.32,4.34,3.33,-3.33,-3.56,-3.44,1.01,1.01,1.01
176.77,4.30,3.34,4.29,3.33,-3.33,-3.54,-3.43,0.97,0.97,0.96
178.54,4.25,3.34,4.25,3.34,-3.34,-3.51,-3.43,0.91,0.91,0.91
180.32,4.21,3.34,4.21,3.34,-3.35,-3.49,-3.42,0.86,0.86,0.87
182.13,4.17,3.35,4.17,3.35,-3.37,-3.47,-3.42,0.80,0.80,0.82
183.95,4.15,3.38,4.15,3.38,-3.39,-3.45,-3.43,0.76,0.76,0.77
185.79,4.13,3.40,4.13,3.41,-3.41,-3.43,-3.43,0.72,0.72,0.72
187.65,4.12,3.46,4.11,3.45,-3.44,-3.41,-3.44,0.68,0.68,0.66
189.52,4.10,3.48,4.10,3.48,-3.47,-3.39,-3.45,0.63,0.63,0.62
191.42,4.08,3.50,4.08,3.50,-3.50,-3.38,-3.46,0.58,0.58,0.58
193.33,4.06,3.53,4.05,3.52,-3.53,-3.36,-3.48,0.53,0.53,0.53
195.27,4.03,3.54,4.03,3.54,-3.56,-3.35,-3.49,0.47,0.47,0.49
197.22,4.01,3.57,4.01,3.57,-3.58,-3.34,-3.51,0.43,0.43,0.44
199.19,4.00,3.61,4.00,3.60,-3.61,-3.32,-3.53,0.39,0.39,0.39
201.18,3.99,3.64,3.98,3.64,-3.63,-3.31,-3.55,0.36,0.36,0.35
203.19,3.97,3.65,3.97,3.65,-3.64,-3.31,-3.57,0.32,0.32,0.32
205.23,3.94,3.67,3.94,3.66,-3.66,-3.30,-3.60,0.28,0.28,0.27
207.28,3.91,3.66,3.90,3.66,-3.66,-3.30,-3.62,0.25,0.24,0.25
209.35,3.86,3.66,3.86,3.67,-3.66,-3.29,-3.65,0.20,0.20,0.20
211.44,3.82,3.67,3.82,3.66,-3.65,-3.29,-3.67,0.17,0.16,0.15
213.56,3.77,3.65,3.77,3.64,-3.64,-3.29,-3.70,0.13,0.13,0.12
215.69,3.72,3.61,3.72,3.62,-3.62,-3.30,-3.72,0.10,0.10,0.10
217.85,3.67,3.60,3.67,3.60,-3.61,-3.30,-3.75,0.06,0.06,0.07
220.03,3.62,3.59,3.62,3.59,-3.59,-3.31,-3.77,0.03,0.03,0.03
222.23,3.58,3.58,3.58,3.57,-3.58,-3.32,-3.79,-0.00,-0.00,0.00
224.45,3.54,3.55,3.54,3.56,-3.57,-3.33,-3.81,-0.03,-0.03,-0.02
226.70,3.52,3.55,3.52,3.55,-3.56,-3.34,-3.83,-0.05,-0.05,-0.03
228.96,3.50,3.56,3.50,3.55,-3.56,-3.36,-3.84,-0.06,-0.06,-0.06
231.25,3.49,3.55,3.49,3.56,-3.55,-3.37,-3.85,-0.06,-0.06,-0.07
233.57,3.47,3.55,3.47,3.55,-3.54,-3.39,-3.86,-0.07,-0.07,-0.08
235.90,3.45,3.55,3.45,3.54,-3.53,-3.41,-3.86,-0.08,-0.08,-0.10
238.26,3.42,3.52,3.42,3.52,-3.52,-3.43,-3.86,-0.10,-0.10,-0.10
240.64,3.39,3.50,3.39,3.50,-3.50,-3.45,-3.86,-0.11,-0.11,-0.11
243.05,3.36,3.46,3.36,3.47,-3.48,-3.46,-3.85,-0.12,-0.12,-0.10
245.48,3.34,3.45,3.34,3.45,-3.45,-3.48,-3.83,-0.11,-0.11,-0.11
247.93,3.32,3.42,3.32,3.43,-3.42,-3.49,-3.82,-0.11,-0.11,-0.10
250.41,3.30,3.41,3.30,3.40,-3.39,-3.50,-3.79,-0.09,-0.10,-0.11
252.92,3.27,3.36,3.27,3.36,-3.36,-3.51,-3.76,-0.09,-0.09,-0.09
255.45,3.24,3.32,3.24,3.32,-3.32,-3.52,-3.73,-0.08,-0.08,-0.08
258.00,3.21,3.28,3.21,3.28,-3.28,-3.52,-3.69,-0.07,-0.07,-0.07
260.58,3.18,3.25,3.18,3.24,-3.24,-3.51,-3.65,-0.06,-0.06,-0.07
263.19,3.15,3.20,3.15,3.20,-3.20,-3.50,-3.60,-0.05,-0.05,-0.05
265.82,3.12,3.16,3.12,3.16,-3.16,-3.48,-3.54,-0.04,-0.04,-0.04
268.48,3.10,3.12,3.10,3.12,-3.13,-3.45,-3.49,-0.03,-0.03,-0.02
271.16,3.09,3.09,3.09,3.09,-3.10,-3.42,-3.42,-0.02,-0.02,-0.00
273.87,3.08,3.07,3.08,3.07,-3.08,-3.38,-3.36,-0.00,-0.00,0.00
276.61,3.09,3.06,3.08,3.06,-3.07,-3.33,-3.29,0.02,0.02,0.03
279.38,3.09,3.05,3.09,3.05,-3.05,-3.28,-3.22,0.04,0.04,0.04
282.17,3.10,3.04,3.10,3.04,-3.04,-3.21,-3.14,0.06,0.06,0.06
284.99,3.10,3.03,3.10,3.03,-3.02,-3.15,-3.06,0.08,0.08,0.07
287.84,3.10,3.02,3.10,3.01,-3.00,-3.07,-2.98,0.09,0.09,0.08
290.72,3.09,2.99,3.09,2.99,-2.98,-2.99,-2.90,0.10,0.10,0.10
293.63,3.07,2.95,3.07,2.96,-2.96,-2.91,-2.82,0.11,0.11,0.11
296.57,3.05,2.92,3.05,2.92,-2.92,-2.82,-2.74,0.13,0.12,0.13
299.53,3.02,2.88,3.02,2.88,-2.88,-2.73,-2.65,0.13,0.14,0.14
302.53,3.00,2.85,2.99,2.84,-2.84,-2.64,-2.56,0.16,0.16,0.15
305.55,2.96,2.78,2.96,2.79,-2.78,-2.55,-2.48,0.17,0.17,0.17
308.61,2.91,2.73,2.92,2.73,-2.73,-2.45,-2.39,0.18,0.19,0.18
311.69,2.87,2.68,2.86,2.66,-2.67,-2.36,-2.31,0.20,0.20,0.19
314.81,2.81,2.59,2.81,2.60,-2.60,-2.26,-2.22,0.21,0.21,0.22
317.96,2.74,2.52,2.74,2.52,-2.53,-2.17,-2.13,0.21,0.21,0.22
321.14,2.67,2.44,2.67,2.45,-2.45,-2.08,-2.05,0.22,0.22,0.23
324.35,2.60,2.37,2.60,2.37,-2.37,-1.99,-1.96,0.23,0.23,0.22
327.59,2.52,2.28,2.52,2.28,-2.28,-1.90,-1.88,0.24,0.24,0.24
330.87,2.43,2.19,2.43,2.19,-2.18,-1.81,-1.79,0.25,0.25,0.24
334.18,2.33,2.09,2.33,2.08,-2.08,-1.73,-1.71,0.25,0.25,0.24
337.52,2.22,1.97,2.22,1.98,-1.97,-1.64,-1.63,0.24,0.25,0.25
340.90,2.12,1.86,2.11,1.86,-1.86,-1.56,-1.55,0.26,0.25,0.26
344.30,2.00,1.74,2.00,1.74,-1.74,-1.49,-1.47,0.25,0.25,0.25
347.75,1.88,1.63,1.88,1.63,-1.62,-1.41,-1.39,0.25,0.26,0.25
351.23,1.76,1.51,1.75,1.50,-1.50,-1.34,-1.31,0.26,0.25,0.25
354.74,1.63,1.38,1.63,1.38,-1.38,-1.27,-1.23,0.25,0.24,0.25
358.28,1.50,1.26,1.50,1.26,-1.26,-1.20,-1.15,0.24,0.24,0.24
361.87,1.38,1.14,1.38,1.14,-1.15,-1.13,-1.08,0.23,0.24,0.24
365.49,1.27,1.03,1.26,1.03,-1.03,-1.07,-1.00,0.24,0.23,0.24
369.14,1.15,0.92,1.15,0.92,-0.92,-1.01,-0.93,0.23,0.23,0.23
372.83,1.04,0.81,1.04,0.82,-0.81,-0.95,-0.85,0.22,0.22,0.23
376.56,0.93,0.71,0.93,0.71,-0.71,-0.89,-0.78,0.22,0.22,0.21
380.33,0.83,0.62,0.83,0.62,-0.62,-0.84,-0.71,0.21,0.21,0.21
384.13,0.73,0.53,0.73,0.53,-0.53,-0.78,-0.64,0.20,0.20,0.20
387.97,0.64,0.45,0.64,0.44,-0.45,-0.73,-0.57,0.19,0.19,0.19
391.85,0.55,0.37,0.55,0.36,-0.37,-0.68,-0.50,0.18,0.18,0.18
395.77,0.48,0.29,0.48,0.30,-0.30,-0.63,-0.43,0.18,0.18,0.19
399.73,0.42,0.24,0.42,0.24,-0.24,-0.59,-0.37,0.18,0.18,0.18
403.72,0.37,0.20,0.36,0.19,-0.19,-0.54,-0.30,0.18,0.17,0.17
407.76,0.31,0.15,0.31,0.15,-0.14,-0.50,-0.24,0.17,0.17,0.16
411.84,0.26,0.09,0.26,0.10,-0.10,-0.46,-0.17,0.15,0.16,0.17
415.96,0.23,0.07,0.23,0.07,-0.07,-0.42,-0.11,0.16,0.15,0.16
420.12,0.20,0.04,0.20,0.04,-0.05,-0.38,-0.05,0.15,0.15,0.16
424.32,0.18,0.02,0.18,0.03,-0.03,-0.34,0.01,0.15,0.15,0.16
428.56,0.16,0.01,0.16,0.02,-0.01,-0.31,0.07,0.14,0.15,0.14
432.85,0.16,0.01,0.15,0.01,-0.01,-0.27,0.12,0.15,0.15,0.14
437.18,0.15,0.00,0.15,0.00,-0.00,-0.24,0.18,0.15,0.15,0.14
441.55,0.15,-0.00,0.15,-0.00,-0.00,-0.20,0.23,0.14,0.14,0.15
445.96,0.15,-0.00,0.15,0.00,-0.01,-0.17,0.28,0.14,0.14,0.15
450.42,0.16,0.02,0.16,0.01,-0.01,-0.14,0.33,0.15,0.15,0.14
454.93,0.17,0.02,0.17,0.02,-0.02,-0.11,0.38,0.15,0.15,0.15
459.48,0.18,0.03,0.18,0.02,-0.02,-0.08,0.42,0.16,0.16,0.15
464.07,0.19,0.03,0.19,0.03,-0.02,-0.05,0.46,0.17,0.16,0.16
468.71,0.19,0.02,0.19,0.03,-0.02,-0.02,0.50,0.17,0.17,0.17
473.40,0.20,0.03,0.19,0.02,-0.02,0.01,0.54,0.18,0.17,0.17
478.13,0.19,0.01,0.19,0.01,-0.01,0.04,0.58,0.18,0.18,0.18
482.91,0.18,-0.00,0.18,-0.00,0.01,0.07,0.61,0.19,0.19,0.18
487.74,0.17,-0.02,0.17,-0.02,0.03,0.09,0.64,0.20,0.19,0.19
492.62,0.15,-0.05,0.15,-0.05,0.05,0.12,0.67,0.20,0.20,0.20
497.55,0.13,-0.07,0.13,-0.08,0.08,0.15,0.69,0.20,0.20,0.20
502.52,0.10,-0.11,0.10,-0.11,0.10,0.17,0.71,0.20,0.20,0.21
507.55,0.07,-0.14,0.07,-0.14,0.13,0.20,0.73,0.20,0.20,0.21
512.62,0.04,-0.17,0.04,-0.17,0.16,0.23,0.75,0.20,0.20,0.21
517.75,0.02,-0.20,0.02,-0.20,0.19,0.25,0.76,0.21,0.21,0.22
522.93,-0.00,-0.22,-0.00,-0.22,0.22,0.28,0.77,0.22,0.22,0.22
528.16,-0.03,-0.25,-0.03,-0.25,0.26,0.31,0.78,0.22,0.23,0.22
533.44,-0.06,-0.28,-0.06,-0.28,0.29,0.33,0.79,0.23,0.22,0.22
538.77,-0.10,-0.32,-0.10,-0.32,0.32,0.36,0.79,0.22,0.22,0.22
544.16,-0.14,-0.36,-0.14,-0.35,0.35,0.39,0.80,0.21,0.21,0.22
