frequency,raw,smoothed,error,error_smoothed,equalization,parametric_eq,fixed_band_eq,equalized_raw,equalized_smoothed,target
20.00,-38.27,-38.25,-35.92,-35.91,6.00,6.09,2.68,-32.27,-32.25,-2.34
20.20,-38.12,-38.12,-35.76,-35.77,6.00,6.09,2.75,-32.12,-32.12,-2.35
20.40,-38.14,-38.16,-35.78,-35.80,6.00,6.09,2.83,-32.14,-32.16,-2.36
20.61,-38.32,-38.37,-35.95,-36.00,6.00,6.09,2.91,-32.32,-32.37,-2.37
20.81,-38.79,-38.78,-36.41,-36.40,6.00,6.08,2.99,-32.79,-32.78,-2.38
21.02,-39.35,-39.35,-36.95,-36.95,6.00,6.08,3.08,-33.35,-33.35,-2.39
21.23,-39.98,-39.98,-37.58,-37.57,6.00,6.08,3.16,-33.98,-33.98,-2.40
21.44,-40.61,-40.60,-38.20,-38.19,6.00,6.07,3.25,-34.61,-34.60,-2.41
21.66,-41.17,-41.18,-38.75,-38.76,6.00,6.07,3.35,-35.17,-35.18,-2.42
21.87,-41.67,-41.66,-39.24,-39.23,6.00,6.07,3.44,-35.67,-35.66,-2.43
22.09,-42.03,-42.00,-39.59,-39.56,6.00,6.06,3.54,-36.03,-36.00,-2.44
22.31,-42.20,-42.20,-39.74,-39.75,6.00,6.06,3.64,-36.20,-36.20,-2.45
22.54,-42.26,-42.26,-39.79,-39.79,6.00,6.06,3.74,-36.26,-36.26,-2.46
22.76,-42.22,-42.20,-39.74,-39.73,6.00,6.06,3.85,-36.22,-36.20,-2.47
22.99,-42.08,-42.09,-39.60,-39.62,6.00,6.05,3.96,-36.08,-36.09,-2.47
23.22,-41.94,-41.95,-39.45,-39.47,6.00,6.05,4.07,-35.94,-35.95,-2.48
23.45,-41.80,-41.80,-39.30,-39.31,6.00,6.05,4.18,-35.80,-35.80,-2.49
23.69,-41.65,-41.65,-39.15,-39.15,6.00,6.04,4.30,-35.65,-35.65,-2.50
23.92,-41.49,-41.49,-38.97,-38.97,6.00,6.04,4.41,-35.49,-35.49,-2.51
24.16,-41.31,-41.30,-38.78,-38.78,6.00,6.04,4.53,-35.31,-35.30,-2.52
24.40,-41.09,-41.10,-38.56,-38.57,6.00,6.03,4.66,-35.09,-35.10,-2.53
24.65,-40.87,-40.87,-38.34,-38.34,6.00,6.03,4.78,-34.87,-34.87,-2.53
24.89,-40.61,-40.62,-38.08,-38.08,6.00,6.03,4.91,-34.61,-34.62,-2.53
25.14,-40.34,-40.34,-37.81,-37.80,6.00,6.02,5.03,-34.34,-34.34,-2.53
25.39,-40.02,-40.03,-37.48,-37.49,6.00,6.02,5.16,-34.02,-34.03,-2.54
25.65,-39.69,-39.68,-37.15,-37.14,6.00,6.02,5.29,-33.69,-33.68,-2.54
25.91,-39.31,-39.30,-36.76,-36.76,6.00,6.01,5.42,-33.31,-33.30,-2.54
26.16,-38.87,-38.89,-36.33,-36.35,6.00,6.01,5.55,-32.87,-32.89,-2.54
26.43,-38.43,-38.43,-35.89,-35.89,6.00,6.01,5.68,-32.43,-32.43,-2.54
26.69,-37.94,-37.92,-35.39,-35.38,6.00,6.00,5.81,-31.94,-31.92,-2.54
26.96,-37.35,-37.36,-34.81,-34.81,6.00,6.00,5.94,-31.35,-31.36,-2.54
27.23,-36.73,-36.72,-34.18,-34.18,6.00,6.00,6.07,-30.73,-30.72,-2.54
27.50,-36.04,-36.03,-33.50,-33.49,6.00,5.99,6.19,-30.04,-30.03,-2.54
27.77,-35.31,-35.32,-32.76,-32.77,6.00,5.99,6.31,-29.31,-29.32,-2.54
28.05,-34.61,-34.61,-32.06,-32.06,6.00,5.99,6.43,-28.61,-28.61,-2.55
28.33,-33.94,-33.96,-31.39,-31.40,6.00,5.98,6.54,-27.94,-27.96,-2.55
28.62,-33.37,-33.37,-30.80,-30.81,6.00,5.98,6.64,-27.37,-27.37,-2.56
28.90,-32.87,-32.86,-30.30,-30.30,6.00,5.98,6.74,-26.87,-26.86,-2.56
29.19,-32.44,-32.45,-29.86,-29.87,6.00,5.97,6.84,-26.44,-26.45,-2.57
29.48,-32.10,-32.10,-29.51,-29.52,6.00,5.97,6.92,-26.10,-26.10,-2.58
29.78,-31.83,-31.82,-29.25,-29.24,6.00,5.97,7.00,-25.83,-25.82,-2.58
30.08,-31.58,-31.58,-28.99,-28.99,6.00,5.96,7.07,-25.58,-25.58,-2.59
30.38,-31.35,-31.34,-28.76,-28.75,6.00,5.96,7.14,-25.35,-25.34,-2.59
30.68,-31.10,-31.10,-28.50,-28.51,6.00,5.96,7.19,-25.10,-25.10,-2.59
30.99,-30.84,-30.84,-28.25,-28.24,6.00,5.96,7.23,-24.84,-24.84,-2.59
31.30,-30.56,-30.55,-27.97,-27.96,6.00,5.95,7.26,-24.56,-24.55,-2.59
31.61,-30.25,-30.26,-27.65,-27.67,6.00,5.95,7.29,-24.25,-24.26,-2.59
31.93,-29.96,-29.96,-27.38,-27.37,6.00,5.95,7.30,-23.96,-23.96,-2.58
32.24,-29.66,-29.67,-27.08,-27.09,6.00,5.95,7.31,-23.66,-23.67,-2.58
32.57,-29.41,-29.41,-26.83,-26.83,6.00,5.94,7.30,-23.41,-23.41,-2.58
32.89,-29.18,-29.18,-26.60,-26.60,6.00,5.94,7.29,-23.18,-23.18,-2.57
33.22,-28.97,-28.97,-26.39,-26.39,6.00,5.94,7.27,-22.97,-22.97,-2.57
33.55,-28.78,-28.78,-26.20,-26.20,6.00,5.94,7.24,-22.78,-22.78,-2.57
33.89,-28.60,-28.60,-26.01,-26.02,6.00,5.94,7.21,-22.60,-22.60,-2.58
34.23,-28.43,-28.43,-25.85,-25.84,6.00,5.93,7.17,-22.43,-22.43,-2.58
34.57,-28.26,-28.26,-25.67,-25.67,6.00,5.93,7.12,-22.26,-22.26,-2.58
34.92,-28.09,-28.09,-25.50,-25.49,6.00,5.93,7.08,-22.09,-22.09,-2.59
35.27,-27.91,-27.91,-25.31,-25.31,6.00,5.93,7.02,-21.91,-21.91,-2.60
35.62,-27.73,-27.73,-25.12,-25.11,6.00,5.93,6.97,-21.73,-21.73,-2.61
35.97,-27.54,-27.53,-24.91,-24.91,6.00,5.93,6.91,-21.54,-21.53,-2.62
36.33,-27.34,-27.34,-24.70,-24.70,6.00,5.93,6.85,-21.34,-21.34,-2.63
36.70,-27.14,-27.14,-24.49,-24.49,6.00,5.93,6.79,-21.14,-21.14,-2.65
37.06,-26.94,-26.94,-24.27,-24.27,6.00,5.93,6.73,-20.94,-20.94,-2.66
37.43,-26.74,-26.74,-24.05,-24.06,6.00,5.93,6.67,-20.74,-20.74,-2.68
37.81,-26.55,-26.54,-23.85,-23.85,6.00,5.93,6.61,-20.55,-20.54,-2.69
38.19,-26.35,-26.35,-23.64,-23.64,6.00,5.93,6.55,-20.35,-20.35,-2.71
38.57,-26.15,-26.15,-23.42,-23.43,6.00,5.94,6.49,-20.15,-20.15,-2.72
38.95,-25.96,-25.96,-23.22,-23.22,6.00,5.94,6.44,-19.96,-19.96,-2.73
39.34,-25.77,-25.77,-23.02,-23.02,6.00,5.94,6.39,-19.77,-19.77,-2.74
39.74,-25.59,-25.59,-22.84,-22.83,6.00,5.94,6.34,-19.59,-19.59,-2.75
40.14,-25.41,-25.41,-22.65,-22.65,6.00,5.95,6.30,-19.41,-19.41,-2.76
40.54,-25.23,-25.23,-22.47,-22.46,6.00,5.95,6.26,-19.23,-19.23,-2.76
40.94,-25.05,-25.05,-22.28,-22.28,6.00,5.96,6.22,-19.05,-19.05,-2.76
41.35,-24.87,-24.87,-22.09,-22.10,6.00,5.96,6.19,-18.87,-18.87,-2.77
41.76,-24.69,-24.69,-21.91,-21.92,6.00,5.96,6.16,-18.69,-18.69,-2.77
42.18,-24.52,-24.52,-21.75,-21.75,6.00,5.97,6.14,-18.52,-18.52,-2.76
42.60,-24.36,-24.35,-21.59,-21.59,6.00,5.98,6.12,-18.36,-18.35,-2.76
43.03,-24.20,-24.20,-21.43,-21.44,6.00,5.98,6.10,-18.20,-18.20,-2.76
43.46,-24.04,-24.04,-21.28,-21.29,6.00,5.99,6.09,-18.04,-18.04,-2.75
43.90,-23.89,-23.89,-21.15,-21.14,6.00,5.99,6.08,-17.89,-17.89,-2.74
44.33,-23.74,-23.73,-20.99,-20.99,6.00,6.00,6.08,-17.74,-17.73,-2.74
44.78,-23.58,-23.58,-20.84,-20.85,6.00,6.01,6.09,-17.58,-17.58,-2.73
45.23,-23.42,-23.42,-20.70,-20.69,6.00,6.02,6.09,-17.42,-17.42,-2.72
45.68,-23.26,-23.26,-20.53,-20.54,6.00,6.02,6.11,-17.26,-17.26,-2.72
46.13,-23.11,-23.11,-20.38,-20.39,6.00,6.03,6.12,-17.11,-17.11,-2.72
46.60,-22.95,-22.95,-20.24,-20.23,6.00,6.04,6.14,-16.95,-16.95,-2.71
47.06,-22.80,-22.80,-20.08,-20.08,6.00,6.05,6.17,-16.80,-16.80,-2.71
47.53,-22.64,-22.64,-19.92,-19.93,6.00,6.06,6.20,-16.64,-16.64,-2.71
48.01,-22.49,-22.49,-19.77,-19.77,6.00,6.06,6.23,-16.49,-16.49,-2.71
48.49,-22.33,-22.33,-19.61,-19.61,6.00,6.07,6.27,-16.33,-16.33,-2.71
48.97,-22.17,-22.17,-19.45,-19.46,6.00,6.08,6.31,-16.17,-16.17,-2.71
49.46,-22.01,-22.01,-19.29,-19.29,6.00,6.09,6.36,-16.01,-16.01,-2.71
49.96,-21.85,-21.85,-19.13,-19.12,6.00,6.09,6.41,-15.85,-15.85,-2.72
50.46,-21.68,-21.68,-18.96,-18.95,6.00,6.10,6.46,-15.68,-15.68,-2.72
50.96,-21.51,-21.51,-18.77,-18.78,6.00,6.10,6.51,-15.51,-15.51,-2.73
51.47,-21.34,-21.34,-18.60,-18.60,6.00,6.11,6.56,-15.34,-15.34,-2.73
51.99,-21.16,-21.16,-18.43,-18.42,6.00,6.11,6.62,-15.16,-15.16,-2.73
52.51,-20.97,-20.97,-18.24,-18.24,6.00,6.11,6.68,-14.97,-14.97,-2.73
53.03,-20.78,-20.78,-18.04,-18.04,6.00,6.11,6.73,-14.78,-14.78,-2.73
53.56,-20.58,-20.58,-17.84,-17.84,6.00,6.11,6.79,-14.58,-14.58,-2.73
54.10,-20.37,-20.37,-17.64,-17.64,6.00,6.11,6.85,-14.37,-14.37,-2.73
54.64,-20.16,-20.16,-17.43,-17.43,6.00,6.11,6.90,-14.16,-14.16,-2.73
55.18,-19.95,-19.95,-17.21,-17.21,6.00,6.11,6.96,-13.95,-13.95,-2.73
55.74,-19.74,-19.74,-17.01,-17.00,6.00,6.10,7.01,-13.74,-13.74,-2.73
56.29,-19.52,-19.52,-16.78,-16.79,6.00,6.09,7.05,-13.52,-13.52,-2.73
56.86,-19.30,-19.30,-16.57,-16.57,6.00,6.08,7.09,-13.30,-13.30,-2.73
57.42,-19.08,-19.07,-16.34,-16.34,6.00,6.07,7.13,-13.08,-13.07,-2.73
58.00,-18.85,-18.85,-16.11,-16.11,6.00,6.06,7.16,-12.85,-12.85,-2.73
58.58,-18.62,-18.62,-15.88,-15.88,6.00,6.05,7.18,-12.62,-12.62,-2.73
59.16,-18.39,-18.39,-15.65,-15.65,6.00,6.04,7.19,-12.39,-12.39,-2.73
59.76,-18.16,-18.16,-15.43,-15.43,6.00,6.03,7.19,-12.16,-12.16,-2.73
60.35,-17.93,-17.93,-15.19,-15.20,6.00,6.01,7.19,-11.93,-11.93,-2.73
60.96,-17.70,-17.70,-14.97,-14.96,6.00,6.00,7.17,-11.70,-11.70,-2.73
61.57,-17.46,-17.46,-14.72,-14.72,6.00,5.99,7.15,-11.46,-11.46,-2.74
62.18,-17.21,-17.21,-14.46,-14.47,6.00,5.97,7.11,-11.21,-11.21,-2.74
62.80,-16.97,-16.96,-14.22,-14.22,6.00,5.96,7.07,-10.97,-10.96,-2.74
63.43,-16.71,-16.70,-13.95,-13.95,6.00,5.96,7.01,-10.71,-10.70,-2.75
64.07,-16.43,-16.43,-13.68,-13.68,6.00,5.95,6.94,-10.43,-10.43,-2.75
64.71,-16.14,-16.14,-13.39,-13.38,6.00,5.94,6.86,-10.14,-10.14,-2.75
65.35,-15.84,-15.84,-13.08,-13.08,6.00,5.94,6.77,-9.84,-9.84,-2.75
66.01,-15.52,-15.52,-12.77,-12.77,6.00,5.94,6.67,-9.52,-9.52,-2.75
66.67,-15.20,-15.20,-12.45,-12.44,6.00,5.95,6.56,-9.20,-9.20,-2.75
67.33,-14.87,-14.87,-12.11,-12.11,6.00,5.95,6.44,-8.87,-8.87,-2.75
68.01,-14.53,-14.53,-11.78,-11.77,6.00,5.96,6.32,-8.53,-8.53,-2.75
68.69,-14.19,-14.19,-11.44,-11.43,6.00,5.98,6.18,-8.19,-8.19,-2.75
69.37,-13.84,-13.84,-11.08,-11.09,6.00,6.00,6.04,-7.84,-7.84,-2.75
70.07,-13.49,-13.49,-10.74,-10.74,6.00,6.02,5.90,-7.49,-7.49,-2.74
70.77,-13.13,-13.13,-10.38,-10.39,6.00,6.04,5.75,-7.13,-7.13,-2.74
71.48,-12.78,-12.78,-10.04,-10.03,6.00,6.06,5.59,-6.78,-6.78,-2.74
72.19,-12.42,-12.42,-9.67,-9.68,6.00,6.08,5.43,-6.42,-6.42,-2.74
72.91,-12.06,-12.06,-9.32,-9.32,6.00,6.10,5.27,-6.06,-6.06,-2.73
73.64,-11.71,-11.70,-8.97,-8.97,6.00,6.12,5.10,-5.71,-5.70,-2.73
74.38,-11.35,-11.35,-8.61,-8.62,6.00,6.13,4.94,-5.35,-5.35,-2.73
75.12,-11.01,-11.00,-8.27,-8.27,6.00,6.13,4.77,-5.01,-5.00,-2.73
75.87,-10.66,-10.66,-7.93,-7.93,6.02,6.12,4.60,-4.64,-4.64,-2.72
76.63,-10.33,-10.33,-7.60,-7.60,6.04,6.09,4.43,-4.28,-4.28,-2.72
77.40,-10.00,-10.00,-7.27,-7.27,6.06,6.05,4.26,-3.94,-3.94,-2.72
78.17,-9.68,-9.68,-6.95,-6.96,6.05,5.99,4.09,-3.63,-3.63,-2.72
78.95,-9.36,-9.36,-6.64,-6.64,6.01,5.90,3.92,-3.35,-3.35,-2.71
79.74,-9.06,-9.05,-6.34,-6.34,5.93,5.80,3.76,-3.12,-3.12,-2.71
80.54,-8.75,-8.75,-6.03,-6.04,5.81,5.67,3.59,-2.93,-2.94,-2.71
81.35,-8.45,-8.45,-5.75,-5.74,5.65,5.52,3.42,-2.80,-2.80,-2.70
82.16,-8.16,-8.16,-5.45,-5.45,5.45,5.35,3.26,-2.71,-2.71,-2.70
82.98,-7.87,-7.87,-5.16,-5.17,5.21,5.17,3.09,-2.66,-2.66,-2.70
83.81,-7.58,-7.58,-4.88,-4.88,4.94,4.96,2.93,-2.64,-2.64,-2.69
84.65,-7.30,-7.30,-4.60,-4.61,4.65,4.75,2.77,-2.65,-2.64,-2.69
85.50,-7.02,-7.02,-4.34,-4.33,4.36,4.52,2.61,-2.66,-2.66,-2.68
86.35,-6.75,-6.75,-4.07,-4.07,4.07,4.29,2.45,-2.67,-2.67,-2.67
87.22,-6.48,-6.48,-3.81,-3.81,3.81,4.05,2.30,-2.67,-2.67,-2.67
88.09,-6.23,-6.23,-3.56,-3.56,3.56,3.81,2.14,-2.66,-2.66,-2.66
88.97,-5.98,-5.98,-3.31,-3.32,3.32,3.57,1.99,-2.65,-2.66,-2.66
89.86,-5.75,-5.75,-3.09,-3.09,3.09,3.33,1.83,-2.66,-2.65,-2.65
90.76,-5.52,-5.52,-2.86,-2.87,2.87,3.09,1.68,-2.65,-2.65,-2.65
91.66,-5.30,-5.30,-2.65,-2.65,2.65,2.86,1.53,-2.65,-2.65,-2.64
92.58,-5.09,-5.09,-2.44,-2.44,2.44,2.63,1.39,-2.64,-2.65,-2.64
93.51,-4.89,-4.88,-2.24,-2.24,2.24,2.41,1.24,-2.65,-2.64,-2.64
94.44,-4.69,-4.69,-2.04,-2.05,2.05,2.19,1.10,-2.64,-2.64,-2.64
95.39,-4.50,-4.50,-1.85,-1.86,1.86,1.98,0.95,-2.64,-2.64,-2.64
96.34,-4.32,-4.31,-1.67,-1.67,1.67,1.77,0.81,-2.65,-2.64,-2.64
97.30,-4.14,-4.14,-1.49,-1.49,1.49,1.57,0.67,-2.64,-2.65,-2.64
98.28,-3.97,-3.97,-1.31,-1.32,1.32,1.37,0.53,-2.65,-2.65,-2.65
99.26,-3.81,-3.81,-1.15,-1.15,1.15,1.18,0.39,-2.65,-2.65,-2.65
100.25,-3.65,-3.65,-0.99,-0.99,0.99,1.00,0.26,-2.66,-2.66,-2.65
101.25,-3.50,-3.49,-0.83,-0.83,0.83,0.82,0.12,-2.66,-2.66,-2.66
102.27,-3.34,-3.34,-0.67,-0.68,0.68,0.65,-0.01,-2.66,-2.66,-2.66
103.29,-3.20,-3.19,-0.53,-0.53,0.53,0.48,-0.14,-2.67,-2.67,-2.66
104.32,-3.05,-3.05,-0.38,-0.39,0.38,0.32,-0.27,-2.66,-2.67,-2.66
105.37,-2.91,-2.91,-0.24,-0.24,0.24,0.16,-0.39,-2.67,-2.67,-2.66
106.42,-2.77,-2.77,-0.10,-0.10,0.10,0.01,-0.52,-2.67,-2.67,-2.66
107.48,-2.63,-2.63,0.04,0.04,-0.04,-0.15,-0.64,-2.66,-2.66,-2.66
108.56,-2.49,-2.49,0.18,0.17,-0.17,-0.29,-0.75,-2.65,-2.66,-2.66
109.64,-2.36,-2.36,0.30,0.30,-0.29,-0.43,-0.87,-2.65,-2.65,-2.65
110.74,-2.24,-2.24,0.42,0.42,-0.42,-0.57,-0.98,-2.65,-2.65,-2.65
111.85,-2.12,-2.12,0.54,0.53,-0.53,-0.70,-1.09,-2.65,-2.65,-2.65
112.97,-2.01,-2.01,0.65,0.65,-0.65,-0.83,-1.19,-2.66,-2.65,-2.65
114.10,-1.90,-1.90,0.76,0.76,-0.76,-0.96,-1.30,-2.65,-2.65,-2.65
115.24,-1.80,-1.80,0.86,0.86,-0.86,-1.08,-1.39,-2.66,-2.66,-2.65
116.39,-1.70,-1.70,0.97,0.96,-0.96,-1.20,-1.48,-2.66,-2.66,-2.66
117.55,-1.61,-1.61,1.06,1.06,-1.05,-1.31,-1.57,-2.66,-2.66,-2.66
118.73,-1.53,-1.53,1.15,1.15,-1.15,-1.43,-1.65,-2.67,-2.67,-2.67
119.92,-1.45,-1.45,1.24,1.24,-1.24,-1.53,-1.73,-2.68,-2.68,-2.68
121.12,-1.37,-1.37,1.33,1.32,-1.32,-1.64,-1.80,-2.69,-2.69,-2.69
122.33,-1.30,-1.30,1.41,1.41,-1.40,-1.74,-1.87,-2.70,-2.70,-2.70
123.55,-1.23,-1.23,1.49,1.49,-1.49,-1.84,-1.93,-2.71,-2.71,-2.71
124.79,-1.16,-1.16,1.57,1.57,-1.57,-1.93,-1.98,-2.73,-2.73,-2.72
126.03,-1.09,-1.09,1.65,1.65,-1.65,-2.03,-2.04,-2.74,-2.74,-2.73
127.29,-1.02,-1.02,1.74,1.73,-1.73,-2.11,-2.08,-2.75,-2.75,-2.75
128.57,-0.95,-0.94,1.82,1.82,-1.82,-2.20,-2.12,-2.77,-2.76,-2.76
129.85,-0.87,-0.87,1.91,1.91,-1.91,-2.28,-2.15,-2.77,-2.77,-2.77
131.15,-0.79,-0.79,2.00,1.99,-1.99,-2.36,-2.18,-2.78,-2.78,-2.78
132.46,-0.71,-0.71,2.09,2.09,-2.09,-2.44,-2.21,-2.79,-2.79,-2.79
133.79,-0.62,-0.62,2.18,2.18,-2.18,-2.51,-2.23,-2.80,-2.80,-2.79
135.12,-0.53,-0.53,2.28,2.28,-2.27,-2.58,-2.25,-2.80,-2.80,-2.80
136.48,-0.43,-0.43,2.38,2.37,-2.37,-2.65,-2.26,-2.80,-2.80,-2.80
137.84,-0.33,-0.33,2.48,2.47,-2.47,-2.71,-2.27,-2.80,-2.80,-2.80
139.22,-0.23,-0.23,2.58,2.57,-2.58,-2.77,-2.28,-2.81,-2.81,-2.80
140.61,-0.13,-0.12,2.68,2.68,-2.69,-2.83,-2.28,-2.81,-2.81,-2.80
142.02,-0.02,-0.02,2.79,2.79,-2.80,-2.89,-2.28,-2.81,-2.81,-2.80
143.44,0.10,0.10,2.91,2.90,-2.91,-2.94,-2.28,-2.81,-2.81,-2.80
144.87,0.21,0.22,3.02,3.02,-3.02,-2.99,-2.28,-2.81,-2.80,-2.80
146.32,0.33,0.33,3.14,3.13,-3.13,-3.03,-2.28,-2.80,-2.80,-2.80
147.78,0.44,0.44,3.25,3.24,-3.24,-3.08,-2.27,-2.80,-2.80,-2.80
149.26,0.54,0.55,3.35,3.35,-3.35,-3.12,-2.27,-2.81,-2.80,-2.80
150.75,0.64,0.65,3.45,3.45,-3.45,-3.16,-2.26,-2.80,-2.80,-2.80
152.26,0.74,0.74,3.55,3.54,-3.54,-3.19,-2.26,-2.80,-2.80,-2.80
153.78,0.82,0.82,3.63,3.63,-3.62,-3.22,-2.25,-2.80,-2.80,-2.80
155.32,0.89,0.89,3.70,3.69,-3.69,-3.25,-2.25,-2.80,-2.80,-2.80
156.88,0.94,0.95,3.75,3.75,-3.75,-3.28,-2.24,-2.81,-2.80,-2.80
158.44,0.99,0.99,3.80,3.79,-3.79,-3.30,-2.24,-2.80,-2.80,-2.80
160.03,1.02,1.02,3.83,3.83,-3.83,-3.33,-2.24,-2.81,-2.81,-2.80
161.63,1.04,1.04,3.86,3.86,-3.85,-3.35,-2.24,-2.81,-2.81,-2.81
163.24,1.05,1.05,3.88,3.87,-3.86,-3.37,-2.24,-2.81,-2.81,-2.82
164.88,1.05,1.05,3.88,3.87,-3.87,-3.38,-2.24,-2.81,-2.82,-2.82
166.53,1.03,1.04,3.86,3.86,-3.86,-3.39,-2.24,-2.83,-2.82,-2.82
168.19,1.02,1.02,3.85,3.85,-3.85,-3.40,-2.25,-2.83,-2.83,-2.82
169.87,1.00,1.00,3.83,3.83,-3.83,-3.41,-2.25,-2.83,-2.83,-2.82
171.57,0.98,0.98,3.82,3.81,-3.81,-3.42,-2.26,-2.83,-2.83,-2.83
173.29,0.95,0.96,3.79,3.79,-3.79,-3.42,-2.27,-2.84,-2.84,-2.83
175.02,0.93,0.93,3.77,3.77,-3.77,-3.42,-2.28,-2.84,-2.84,-2.83
176.77,0.91,0.91,3.75,3.75,-3.75,-3.42,-2.29,-2.84,-2.84,-2.83
178.54,0.89,0.90,3.73,3.73,-3.73,-3.42,-2.31,-2.84,-2.84,-2.83
180.32,0.88,0.88,3.72,3.71,-3.71,-3.42,-2.33,-2.83,-2.83,-2.83
182.13,0.86,0.86,3.70,3.70,-3.70,-3.41,-2.35,-2.83,-2.83,-2.83
183.95,0.84,0.85,3.68,3.68,-3.68,-3.41,-2.37,-2.84,-2.83,-2.83
185.79,0.83,0.83,3.67,3.66,-3.66,-3.40,-2.39,-2.83,-2.83,-2.83
187.65,0.81,0.81,3.65,3.65,-3.65,-3.39,-2.42,-2.83,-2.83,-2.83
189.52,0.79,0.79,3.63,3.63,-3.63,-3.37,-2.44,-2.84,-2.84,-2.83
191.42,0.77,0.77,3.62,3.61,-3.61,-3.36,-2.47,-2.84,-2.84,-2.84
193.33,0.75,0.75,3.60,3.60,-3.59,-3.35,-2.50,-2.84,-2.84,-2.84
195.27,0.73,0.73,3.58,3.58,-3.58,-3.33,-2.53,-2.84,-2.84,-2.84
197.22,0.71,0.71,3.56,3.56,-3.55,-3.31,-2.57,-2.84,-2.84,-2.84
199.19,0.69,0.69,3.54,3.53,-3.53,-3.29,-2.60,-2.84,-2.84,-2.84
201.18,0.66,0.67,3.51,3.51,-3.51,-3.27,-2.64,-2.85,-2.84,-2.84
203.19,0.64,0.64,3.49,3.48,-3.48,-3.25,-2.67,-2.84,-2.84,-2.84
205.23,0.61,0.61,3.46,3.46,-3.46,-3.23,-2.71,-2.85,-2.85,-2.84
207.28,0.58,0.59,3.43,3.43,-3.43,-3.21,-2.75,-2.85,-2.85,-2.84
209.35,0.56,0.56,3.41,3.40,-3.41,-3.18,-2.78,-2.84,-2.85,-2.84
211.44,0.53,0.53,3.38,3.38,-3.38,-3.16,-2.82,-2.85,-2.85,-2.84
213.56,0.50,0.50,3.36,3.35,-3.35,-3.13,-2.86,-2.85,-2.85,-2.85
215.69,0.47,0.47,3.33,3.32,-3.32,-3.10,-2.90,-2.85,-2.85,-2.85
217.85,0.43,0.44,3.29,3.29,-3.29,-3.08,-2.93,-2.86,-2.85,-2.85
220.03,0.40,0.40,3.26,3.26,-3.26,-3.05,-2.97,-2.85,-2.85,-2.85
222.23,0.37,0.37,3.23,3.22,-3.22,-3.02,-3.00,-2.85,-2.85,-2.85
224.45,0.33,0.33,3.19,3.19,-3.19,-2.99,-3.03,-2.85,-2.85,-2.85
226.70,0.29,0.29,3.15,3.15,-3.15,-2.95,-3.06,-2.86,-2.86,-2.85
228.96,0.25,0.25,3.11,3.10,-3.11,-2.92,-3.09,-2.86,-2.86,-2.85
231.25,0.21,0.21,3.07,3.07,-3.07,-2.89,-3.12,-2.86,-2.86,-2.85
233.57,0.17,0.17,3.03,3.03,-3.04,-2.86,-3.14,-2.86,-2.86,-2.85
235.90,0.13,0.13,3.01,3.00,-2.99,-2.82,-3.16,-2.86,-2.86,-2.87
238.26,0.08,0.08,2.96,2.96,-2.95,-2.79,-3.17,-2.87,-2.87,-2.87
240.64,0.03,0.03,2.91,2.91,-2.90,-2.75,-3.18,-2.87,-2.87,-2.87
243.05,-0.02,-0.02,2.86,2.85,-2.85,-2.72,-3.19,-2.87,-2.87,-2.87
245.48,-0.08,-0.08,2.80,2.80,-2.79,-2.68,-3.19,-2.87,-2.87,-2.87
247.93,-0.14,-0.14,2.74,2.73,-2.73,-2.65,-3.19,-2.87,-2.87,-2.87
250.41,-0.21,-0.21,2.67,2.67,-2.66,-2.61,-3.19,-2.87,-2.87,-2.87
252.92,-0.28,-0.28,2.60,2.60,-2.59,-2.57,-3.18,-2.87,-2.87,-2.87
255.45,-0.35,-0.35,2.53,2.52,-2.52,-2.54,-3.16,-2.87,-2.87,-2.87
258.00,-0.43,-0.43,2.45,2.45,-2.45,-2.50,-3.15,-2.87,-2.87,-2.87
260.58,-0.51,-0.50,2.37,2.37,-2.37,-2.46,-3.12,-2.88,-2.88,-2.87
263.19,-0.58,-0.58,2.31,2.30,-2.30,-2.42,-3.10,-2.88,-2.88,-2.88
265.82,-0.66,-0.66,2.23,2.23,-2.23,-2.38,-3.07,-2.89,-2.88,-2.88
268.48,-0.73,-0.73,2.16,2.16,-2.16,-2.35,-3.04,-2.89,-2.89,-2.88
271.16,-0.80,-0.80,2.10,2.09,-2.10,-2.31,-3.00,-2.90,-2.89,-2.89
273.87,-0.86,-0.86,2.04,2.04,-2.04,-2.27,-2.96,-2.90,-2.90,-2.89
276.61,-0.92,-0.92,1.99,1.99,-1.99,-2.23,-2.92,-2.91,-2.90,-2.90
279.38,-0.97,-0.97,1.94,1.94,-1.94,-2.19,-2.87,-2.91,-2.91,-2.90
282.17,-1.01,-1.01,1.91,1.90,-1.90,-2.15,-2.83,-2.91,-2.91,-2.91
284.99,-1.05,-1.05,1.86,1.86,-1.86,-2.11,-2.78,-2.91,-2.91,-2.90
287.84,-1.08,-1.08,1.83,1.83,-1.83,-2.07,-2.73,-2.91,-2.91,-2.90
290.72,-1.11,-1.11,1.81,1.80,-1.80,-2.03,-2.68,-2.91,-2.91,-2.91
293.63,-1.13,-1.13,1.79,1.78,-1.78,-1.99,-2.62,-2.91,-2.91,-2.91
296.57,-1.16,-1.15,1.76,1.76,-1.76,-1.95,-2.57,-2.91,-2.91,-2.91
299.53,-1.18,-1.17,1.73,1.73,-1.74,-1.91,-2.51,-2.91,-2.91,-2.90
302.53,-1.19,-1.19,1.73,1.72,-1.72,-1.87,-2.46,-2.91,-2.91,-2.91
305.55,-1.21,-1.21,1.70,1.70,-1.70,-1.82,-2.41,-2.91,-2.91,-2.90
308.61,-1.23,-1.22,1.69,1.69,-1.68,-1.78,-2.35,-2.91,-2.91,-2.91
311.69,-1.24,-1.24,1.67,1.67,-1.67,-1.74,-2.30,-2.91,-2.91,-2.90
314.81,-1.26,-1.25,1.66,1.65,-1.65,-1.70,-2.24,-2.91,-2.91,-2.91
317.96,-1.27,-1.27,1.64,1.64,-1.63,-1.66,-2.19,-2.90,-2.90,-2.90
321.14,-1.29,-1.29,1.62,1.62,-1.61,-1.62,-2.14,-2.90,-2.90,-2.90
324.35,-1.31,-1.31,1.60,1.59,-1.59,-1.58,-2.09,-2.90,-2.90,-2.90
327.59,-1.33,-1.33,1.57,1.57,-1.57,-1.54,-2.04,-2.90,-2.90,-2.89
330.87,-1.35,-1.35,1.55,1.55,-1.55,-1.50,-1.99,-2.90,-2.90,-2.89
334.18,-1.37,-1.37,1.53,1.52,-1.52,-1.47,-1.94,-2.89,-2.89,-2.89
337.52,-1.40,-1.39,1.50,1.50,-1.49,-1.43,-1.89,-2.89,-2.89,-2.89
340.90,-1.42,-1.42,1.48,1.47,-1.46,-1.39,-1.85,-2.88,-2.88,-2.89
344.30,-1.45,-1.45,1.44,1.43,-1.43,-1.36,-1.80,-2.88,-2.88,-2.88
347.75,-1.49,-1.48,1.39,1.40,-1.40,-1.32,-1.76,-2.88,-2.88,-2.87
351.23,-1.52,-1.52,1.37,1.36,-1.36,-1.29,-1.72,-2.88,-2.88,-2.88
354.74,-1.55,-1.55,1.32,1.32,-1.32,-1.25,-1.68,-2.87,-2.87,-2.86
358.28,-1.59,-1.58,1.29,1.28,-1.28,-1.22,-1.64,-2.87,-2.87,-2.87
361.87,-1.62,-1.62,1.25,1.24,-1.25,-1.19,-1.60,-2.86,-2.87,-2.86
365.49,-1.66,-1.66,1.21,1.21,-1.21,-1.16,-1.56,-2.87,-2.86,-2.86
369.14,-1.69,-1.69,1.18,1.17,-1.17,-1.13,-1.53,-2.86,-2.86,-2.86
372.83,-1.72,-1.72,1.14,1.14,-1.14,-1.10,-1.49,-2.86,-2.86,-2.85
376.56,-1.75,-1.75,1.11,1.11,-1.11,-1.08,-1.46,-2.86,-2.86,-2.85
380.33,-1.78,-1.78,1.08,1.08,-1.08,-1.06,-1.43,-2.86,-2.86,-2.85
384.13,-1.81,-1.80,1.06,1.05,-1.05,-1.03,-1.40,-2.86,-2.85,-2.86
387.97,-1.83,-1.83,1.03,1.02,-1.02,-1.01,-1.37,-2.85,-2.85,-2.85
391.85,-1.85,-1.85,1.00,1.00,-1.00,-1.00,-1.34,-2.85,-2.85,-2.84
