frequency,raw,error,smoothed,error_smoothed,equalization,parametric_eq,fixed_band_eq,equalized_raw,equalized_smoothed,target
20.00,6.38,3.57,6.37,3.56,-3.58,-1.86,-1.09,2.80,2.79,2.81
20.20,6.38,3.53,6.38,3.53,-3.54,-1.86,-1.12,2.84,2.84,2.85
20.40,6.38,3.50,6.39,3.50,-3.50,-1.86,-1.16,2.88,2.89,2.88
20.61,6.38,3.47,6.38,3.47,-3.46,-1.86,-1.19,2.92,2.93,2.91
20.81,6.38,3.43,6.38,3.43,-3.41,-1.86,-1.23,2.97,2.97,2.95
21.02,6.38,3.39,6.37,3.39,-3.36,-1.86,-1.27,3.02,3.00,2.99
21.23,6.33,3.33,6.33,3.33,-3.31,-1.86,-1.30,3.02,3.02,3.00
21.44,6.28,3.26,6.28,3.26,-3.26,-1.86,-1.34,3.02,3.03,3.02
21.66,6.23,3.19,6.23,3.19,-3.20,-1.86,-1.38,3.03,3.03,3.04
21.87,6.18,3.13,6.18,3.13,-3.13,-1.86,-1.42,3.05,3.05,3.05
22.09,6.13,3.06,6.13,3.07,-3.07,-1.86,-1.47,3.06,3.06,3.07
22.31,6.08,3.01,6.08,3.01,-3.01,-1.86,-1.51,3.07,3.07,3.07
22.54,6.03,2.95,6.03,2.95,-2.96,-1.86,-1.55,3.07,3.07,3.08
22.76,5.98,2.89,5.98,2.90,-2.92,-1.86,-1.60,3.06,3.06,3.09
22.99,5.93,2.85,5.94,2.86,-2.88,-1.86,-1.65,3.05,3.06,3.08
23.22,5.93,2.84,5.93,2.83,-2.85,-1.86,-1.70,3.08,3.08,3.09
23.45,5.93,2.83,5.93,2.83,-2.82,-1.86,-1.74,3.11,3.10,3.10
23.69,5.93,2.82,5.93,2.82,-2.80,-1.86,-1.80,3.13,3.14,3.11
23.92,5.93,2.81,5.92,2.80,-2.77,-1.86,-1.85,3.16,3.15,3.12
24.16,5.90,2.77,5.90,2.76,-2.74,-1.86,-1.90,3.16,3.16,3.13
24.40,5.85,2.71,5.85,2.72,-2.71,-1.85,-1.95,3.14,3.14,3.14
24.65,5.80,2.67,5.80,2.67,-2.68,-1.85,-2.00,3.12,3.12,3.13
24.89,5.75,2.62,5.76,2.63,-2.65,-1.85,-2.06,3.10,3.11,3.13
25.14,5.73,2.60,5.73,2.60,-2.62,-1.85,-2.11,3.11,3.11,3.13
25.39,5.72,2.59,5.72,2.59,-2.60,-1.85,-2.17,3.12,3.11,3.13
25.65,5.71,2.58,5.71,2.59,-2.59,-1.85,-2.22,3.12,3.11,3.13
25.91,5.70,2.59,5.70,2.58,-2.59,-1.85,-2.27,3.11,3.11,3.11
26.16,5.70,2.58,5.70,2.58,-2.58,-1.85,-2.33,3.12,3.12,3.12
26.43,5.70,2.58,5.70,2.58,-2.57,-1.85,-2.38,3.13,3.13,3.12
26.69,5.70,2.58,5.70,2.58,-2.55,-1.85,-2.43,3.15,3.15,3.12
26.96,5.70,2.58,5.69,2.57,-2.53,-1.85,-2.48,3.17,3.16,3.12
27.23,5.65,2.53,5.65,2.53,-2.51,-1.85,-2.53,3.15,3.14,3.12
27.50,5.58,2.46,5.58,2.47,-2.48,-1.85,-2.58,3.10,3.10,3.12
27.77,5.52,2.41,5.52,2.41,-2.45,-1.84,-2.63,3.07,3.07,3.11
28.05,5.47,2.37,5.48,2.38,-2.42,-1.84,-2.67,3.05,3.06,3.10
28.33,5.47,2.38,5.47,2.37,-2.39,-1.84,-2.72,3.08,3.08,3.09
28.62,5.47,2.37,5.47,2.37,-2.35,-1.84,-2.76,3.12,3.11,3.10
28.90,5.47,2.37,5.46,2.36,-2.32,-1.84,-2.79,3.15,3.14,3.10
29.19,5.43,2.34,5.42,2.33,-2.30,-1.84,-2.83,3.13,3.13,3.09
29.48,5.37,2.27,5.37,2.28,-2.28,-1.84,-2.85,3.09,3.09,3.10
29.78,5.31,2.22,5.31,2.22,-2.25,-1.84,-2.88,3.06,3.06,3.09
30.08,5.26,2.17,5.27,2.18,-2.22,-1.83,-2.90,3.04,3.05,3.09
30.38,5.25,2.17,5.26,2.17,-2.18,-1.83,-2.92,3.07,3.07,3.08
30.68,5.25,2.17,5.25,2.17,-2.14,-1.83,-2.93,3.11,3.10,3.08
30.99,5.24,2.17,5.22,2.15,-2.11,-1.83,-2.94,3.13,3.11,3.07
31.30,5.17,2.11,5.17,2.10,-2.08,-1.83,-2.94,3.09,3.09,3.06
31.61,5.10,2.04,5.10,2.04,-2.05,-1.83,-2.94,3.05,3.05,3.06
31.93,5.03,1.98,5.04,1.99,-2.03,-1.83,-2.94,3.00,3.02,3.05
32.24,5.01,1.97,5.01,1.97,-2.00,-1.82,-2.93,3.01,3.01,3.04
32.57,5.01,1.98,5.00,1.97,-1.99,-1.82,-2.91,3.02,3.02,3.03
32.89,5.01,1.98,5.01,1.98,-1.97,-1.82,-2.90,3.04,3.04,3.03
33.22,5.01,1.98,5.01,1.98,-1.97,-1.82,-2.87,3.04,3.04,3.03
33.55,5.01,1.98,5.01,1.98,-1.98,-1.82,-2.85,3.03,3.03,3.03
33.89,5.01,1.99,5.01,1.99,-1.99,-1.81,-2.82,3.02,3.02,3.02
34.23,5.01,1.99,5.01,1.99,-2.00,-1.81,-2.79,3.01,3.01,3.02
34.57,5.01,2.00,5.01,2.00,-2.01,-1.81,-2.75,3.00,3.00,3.01
34.92,5.01,2.01,5.01,2.01,-2.01,-1.81,-2.72,3.00,3.00,3.00
35.27,5.01,2.01,5.02,2.02,-2.00,-1.81,-2.68,3.01,3.02,3.00
35.62,5.01,2.02,5.01,2.02,-1.98,-1.80,-2.63,3.03,3.03,2.99
35.97,5.01,2.03,4.99,2.00,-1.96,-1.80,-2.59,3.05,3.03,2.98
36.33,4.94,1.96,4.93,1.95,-1.94,-1.80,-2.54,3.00,3.00,2.98
36.70,4.86,1.88,4.87,1.89,-1.91,-1.79,-2.50,2.95,2.95,2.98
37.06,4.79,1.83,4.81,1.84,-1.89,-1.79,-2.45,2.90,2.92,2.96
37.43,4.79,1.83,4.79,1.83,-1.87,-1.79,-2.40,2.92,2.91,2.96
37.81,4.79,1.84,4.78,1.83,-1.86,-1.79,-2.35,2.93,2.92,2.95
38.19,4.79,1.85,4.79,1.85,-1.85,-1.78,-2.31,2.94,2.94,2.94
38.57,4.79,1.86,4.79,1.86,-1.85,-1.78,-2.26,2.94,2.94,2.93
38.95,4.79,1.86,4.79,1.87,-1.84,-1.78,-2.21,2.95,2.95,2.93
39.34,4.78,1.87,4.79,1.87,-1.83,-1.77,-2.16,2.95,2.96,2.91
39.74,4.77,1.87,4.76,1.86,-1.81,-1.77,-2.11,2.96,2.95,2.90
40.14,4.73,1.83,4.71,1.81,-1.79,-1.76,-2.07,2.94,2.92,2.90
40.54,4.65,1.75,4.65,1.75,-1.77,-1.76,-2.02,2.88,2.88,2.90
40.94,4.57,1.68,4.59,1.70,-1.76,-1.76,-1.97,2.81,2.84,2.89
41.35,4.56,1.68,4.56,1.68,-1.74,-1.75,-1.93,2.82,2.82,2.88
41.76,4.56,1.70,4.55,1.69,-1.72,-1.75,-1.89,2.84,2.84,2.86
42.18,4.56,1.72,4.57,1.73,-1.70,-1.74,-1.85,2.86,2.87,2.84
42.60,4.56,1.74,4.56,1.74,-1.70,-1.74,-1.80,2.86,2.87,2.82
43.03,4.55,1.75,4.52,1.72,-1.69,-1.73,-1.77,2.86,2.82,2.80
43.46,4.45,1.68,4.45,1.68,-1.69,-1.73,-1.73,2.76,2.76,2.77
43.90,4.35,1.63,4.39,1.65,-1.67,-1.72,-1.69,2.68,2.71,2.73
44.33,4.33,1.63,4.34,1.65,-1.65,-1.72,-1.65,2.68,2.69,2.70
44.78,4.33,1.67,4.31,1.65,-1.63,-1.71,-1.62,2.70,2.68,2.66
45.23,4.28,1.65,4.25,1.62,-1.61,-1.71,-1.59,2.67,2.65,2.63
45.68,4.17,1.57,4.19,1.58,-1.59,-1.70,-1.55,2.58,2.60,2.60
46.13,4.10,1.52,4.13,1.54,-1.57,-1.69,-1.52,2.53,2.55,2.58
46.60,4.10,1.53,4.09,1.53,-1.55,-1.69,-1.49,2.55,2.54,2.57
47.06,4.10,1.55,4.09,1.54,-1.52,-1.68,-1.47,2.58,2.57,2.55
47.53,4.08,1.54,4.08,1.54,-1.49,-1.67,-1.44,2.59,2.59,2.54
48.01,4.06,1.52,4.03,1.49,-1.46,-1.67,-1.41,2.60,2.57,2.54
48.49,3.97,1.44,3.97,1.44,-1.44,-1.66,-1.39,2.53,2.53,2.53
48.97,3.88,1.36,3.91,1.39,-1.42,-1.65,-1.37,2.46,2.49,2.52
49.46,3.87,1.36,3.87,1.36,-1.39,-1.64,-1.34,2.48,2.47,2.51
49.96,3.87,1.36,3.87,1.35,-1.36,-1.63,-1.32,2.51,2.50,2.51
50.46,3.87,1.35,3.87,1.35,-1.33,-1.63,-1.30,2.54,2.54,2.52
50.96,3.87,1.35,3.86,1.34,-1.30,-1.62,-1.28,2.57,2.56,2.52
51.47,3.82,1.31,3.82,1.31,-1.28,-1.61,-1.26,2.54,2.54,2.51
51.99,3.77,1.27,3.77,1.27,-1.27,-1.60,-1.25,2.50,2.49,2.50
52.51,3.71,1.23,3.71,1.23,-1.27,-1.59,-1.23,2.45,2.44,2.48
53.03,3.65,1.19,3.67,1.21,-1.26,-1.58,-1.21,2.39,2.41,2.46
53.56,3.65,1.23,3.65,1.23,-1.26,-1.57,-1.20,2.39,2.39,2.42
54.10,3.65,1.27,3.65,1.27,-1.26,-1.56,-1.19,2.39,2.40,2.38
54.64,3.65,1.32,3.64,1.30,-1.26,-1.55,-1.17,2.39,2.38,2.33
55.18,3.61,1.32,3.58,1.29,-1.26,-1.54,-1.16,2.35,2.32,2.29
55.74,3.48,1.25,3.51,1.28,-1.26,-1.52,-1.15,2.22,2.25,2.23
56.29,3.42,1.24,3.45,1.27,-1.27,-1.51,-1.14,2.15,2.18,2.18
56.86,3.42,1.30,3.37,1.25,-1.27,-1.50,-1.13,2.15,2.10,2.12
57.42,3.32,1.26,3.30,1.25,-1.27,-1.49,-1.11,2.05,2.03,2.06
58.00,3.19,1.19,3.24,1.24,-1.27,-1.47,-1.10,1.92,1.96,2.00
58.58,3.19,1.25,3.19,1.25,-1.28,-1.46,-1.09,1.91,1.91,1.94
59.16,3.19,1.30,3.19,1.31,-1.29,-1.45,-1.09,1.90,1.90,1.89
59.76,3.19,1.37,3.16,1.34,-1.30,-1.44,-1.08,1.89,1.86,1.82
60.35,3.11,1.36,3.09,1.33,-1.31,-1.42,-1.07,1.80,1.78,1.75
60.96,2.97,1.27,3.03,1.34,-1.32,-1.41,-1.06,1.65,1.71,1.70
61.57,2.96,1.33,2.95,1.32,-1.32,-1.39,-1.05,1.64,1.62,1.63
62.18,2.92,1.36,2.87,1.30,-1.33,-1.38,-1.04,1.59,1.55,1.56
62.80,2.78,1.26,2.82,1.30,-1.32,-1.37,-1.03,1.46,1.49,1.52
63.43,2.74,1.28,2.76,1.30,-1.31,-1.35,-1.03,1.43,1.45,1.46
64.07,2.74,1.32,2.72,1.31,-1.30,-1.34,-1.02,1.44,1.42,1.42
64.71,2.70,1.33,2.68,1.31,-1.29,-1.32,-1.01,1.41,1.39,1.37
65.35,2.63,1.31,2.62,1.30,-1.26,-1.31,-1.00,1.37,1.36,1.32
66.01,2.51,1.22,2.56,1.27,-1.24,-1.29,-1.00,1.27,1.32,1.29
66.67,2.51,1.26,2.48,1.23,-1.23,-1.28,-0.99,1.28,1.25,1.25
67.33,2.43,1.21,2.40,1.18,-1.21,-1.26,-0.98,1.22,1.19,1.22
68.01,2.28,1.09,2.33,1.15,-1.19,-1.25,-0.98,1.09,1.14,1.19
68.69,2.28,1.12,2.28,1.13,-1.17,-1.24,-0.97,1.11,1.11,1.16
69.37,2.28,1.16,2.28,1.15,-1.15,-1.22,-0.96,1.13,1.13,1.12
70.07,2.28,1.19,2.29,1.19,-1.13,-1.21,-0.96,1.15,1.16,1.09
70.77,2.28,1.20,2.24,1.17,-1.12,-1.20,-0.95,1.16,1.12,1.08
71.48,2.17,1.13,2.17,1.12,-1.11,-1.18,-0.95,1.06,1.06,1.04
72.19,2.05,1.03,2.10,1.08,-1.11,-1.17,-0.94,0.94,0.99,1.02
72.91,2.05,1.07,2.05,1.06,-1.11,-1.16,-0.94,0.94,0.93,0.98
73.64,2.05,1.10,2.04,1.08,-1.12,-1.15,-0.94,0.93,0.91,0.95
74.38,2.05,1.12,2.05,1.13,-1.14,-1.14,-0.93,0.91,0.91,0.93
75.12,2.05,1.16,2.05,1.16,-1.16,-1.13,-0.93,0.89,0.89,0.89
75.87,2.05,1.19,2.05,1.19,-1.19,-1.12,-0.93,0.86,0.86,0.86
76.63,2.05,1.22,2.05,1.22,-1.20,-1.11,-0.93,0.85,0.85,0.83
77.40,2.05,1.24,2.07,1.26,-1.21,-1.10,-0.93,0.84,0.85,0.81
78.17,2.05,1.27,2.05,1.27,-1.21,-1.09,-0.93,0.84,0.84,0.78
78.95,2.05,1.29,1.99,1.23,-1.20,-1.08,-0.93,0.85,0.79,0.76
79.74,1.88,1.13,1.92,1.17,-1.18,-1.08,-0.93,0.70,0.73,0.75
80.54,1.82,1.09,1.85,1.12,-1.16,-1.07,-0.93,0.66,0.68,0.73
81.35,1.82,1.11,1.81,1.09,-1.14,-1.06,-0.93,0.68,0.66,0.71
82.16,1.82,1.11,1.81,1.11,-1.12,-1.06,-0.93,0.70,0.69,0.71
82.98,1.82,1.11,1.82,1.12,-1.11,-1.06,-0.94,0.71,0.71,0.71
83.81,1.82,1.12,1.82,1.12,-1.10,-1.05,-0.94,0.72,0.72,0.70
84.65,1.82,1.13,1.82,1.12,-1.10,-1.05,-0.94,0.72,0.72,0.69
85.50,1.82,1.11,1.82,1.12,-1.11,-1.05,-0.95,0.71,0.71,0.71
86.35,1.82,1.11,1.82,1.12,-1.11,-1.04,-0.96,0.71,0.71,0.71
87.22,1.82,1.11,1.82,1.11,-1.12,-1.04,-0.96,0.70,0.70,0.71
88.09,1.82,1.11,1.82,1.11,-1.12,-1.04,-0.97,0.70,0.70,0.71
88.97,1.82,1.09,1.82,1.10,-1.12,-1.04,-0.98,0.70,0.70,0.73
89.86,1.82,1.10,1.82,1.10,-1.11,-1.04,-0.99,0.71,0.71,0.72
90.76,1.82,1.11,1.83,1.11,-1.09,-1.04,-1.00,0.73,0.74,0.71
91.66,1.82,1.10,1.82,1.11,-1.07,-1.04,-1.01,0.75,0.76,0.72
92.58,1.82,1.12,1.78,1.08,-1.05,-1.04,-1.02,0.77,0.73,0.70
93.51,1.72,1.02,1.72,1.02,-1.03,-1.04,-1.03,0.69,0.69,0.70
94.44,1.62,0.93,1.65,0.97,-1.01,-1.04,-1.04,0.61,0.64,0.69
95.39,1.60,0.93,1.60,0.93,-0.99,-1.04,-1.06,0.61,0.61,0.67
96.34,1.60,0.96,1.60,0.95,-0.96,-1.04,-1.07,0.64,0.63,0.64
97.30,1.60,0.98,1.61,0.99,-0.94,-1.05,-1.09,0.66,0.67,0.62
98.28,1.60,1.00,1.57,0.97,-0.93,-1.05,-1.10,0.67,0.64,0.60
99.26,1.54,0.97,1.50,0.93,-0.92,-1.05,-1.12,0.62,0.58,0.57
100.25,1.37,0.82,1.43,0.88,-0.91,-1.05,-1.13,0.46,0.52,0.55
101.25,1.37,0.86,1.38,0.87,-0.90,-1.05,-1.15,0.47,0.48,0.51
102.27,1.37,0.90,1.36,0.89,-0.89,-1.06,-1.16,0.48,0.47,0.47
103.29,1.37,0.94,1.35,0.92,-0.88,-1.06,-1.18,0.49,0.47,0.43
104.32,1.32,0.93,1.29,0.90,-0.89,-1.06,-1.20,0.43,0.41,0.39
105.37,1.20,0.85,1.22,0.88,-0.90,-1.06,-1.21,0.30,0.32,0.35
106.42,1.14,0.85,1.16,0.87,-0.93,-1.06,-1.23,0.21,0.24,0.29
107.48,1.14,0.92,1.13,0.91,-0.95,-1.07,-1.25,0.19,0.18,0.22
108.56,1.14,0.99,1.15,1.00,-0.98,-1.07,-1.26,0.16,0.18,0.15
109.64,1.14,1.06,1.13,1.05,-1.00,-1.07,-1.28,0.14,0.13,0.08
110.74,1.13,1.11,1.07,1.06,-1.03,-1.08,-1.29,0.10,0.04,0.02
111.85,0.94,0.99,1.00,1.05,-1.05,-1.08,-1.31,-0.11,-0.06,-0.05
112.97,0.91,1.05,0.94,1.07,-1.07,-1.08,-1.32,-0.16,-0.14,-0.14
114.10,0.91,1.11,0.88,1.09,-1.09,-1.09,-1.34,-0.18,-0.21,-0.20
115.24,0.88,1.16,0.84,1.12,-1.11,-1.09,-1.35,-0.23,-0.27,-0.28
116.39,0.75,1.10,0.77,1.12,-1.13,-1.09,-1.36,-0.38,-0.35,-0.35
117.55,0.68,1.09,0.71,1.12,-1.15,-1.10,-1.37,-0.47,-0.45,-0.41
118.73,0.68,1.16,0.67,1.15,-1.19,-1.10,-1.38,-0.51,-0.52,-0.48
119.92,0.68,1.20,0.67,1.20,-1.22,-1.11,-1.39,-0.54,-0.54,-0.52
121.12,0.68,1.25,0.68,1.25,-1.24,-1.11,-1.40,-0.56,-0.56,-0.57
122.33,0.68,1.30,0.69,1.30,-1.25,-1.12,-1.41,-0.57,-0.56,-0.62
123.55,0.68,1.32,0.68,1.32,-1.27,-1.13,-1.41,-0.59,-0.59,-0.64
124.79,0.68,1.36,0.63,1.31,-1.28,-1.13,-1.42,-0.60,-0.65,-0.68
126.03,0.53,1.24,0.56,1.27,-1.29,-1.14,-1.42,-0.76,-0.73,-0.71
127.29,0.48,1.22,0.50,1.24,-1.29,-1.15,-1.42,-0.81,-0.80,-0.74
128.57,0.46,1.24,0.45,1.23,-1.28,-1.15,-1.42,-0.82,-0.82,-0.78
129.85,0.46,1.27,0.47,1.28,-1.26,-1.16,-1.42,-0.80,-0.79,-0.81
131.15,0.46,1.30,0.46,1.30,-1.24,-1.17,-1.42,-0.78,-0.78,-0.84
132.46,0.46,1.33,0.41,1.28,-1.24,-1.18,-1.41,-0.78,-0.83,-0.87
133.79,0.32,1.22,0.34,1.24,-1.24,-1.19,-1.41,-0.92,-0.90,-0.90
135.12,0.23,1.18,0.27,1.20,-1.25,-1.21,-1.40,-1.02,-0.99,-0.95
136.48,0.23,1.20,0.22,1.19,-1.26,-1.22,-1.40,-1.03,-1.04,-0.97
137.84,0.23,1.24,0.22,1.24,-1.27,-1.23,-1.39,-1.04,-1.05,-1.01
139.22,0.23,1.29,0.23,1.28,-1.27,-1.24,-1.38,-1.04,-1.04,-1.06
140.61,0.23,1.33,0.25,1.34,-1.27,-1.26,-1.37,-1.04,-1.03,-1.10
142.02,0.23,1.35,0.22,1.35,-1.29,-1.27,-1.36,-1.06,-1.06,-1.12
143.44,0.22,1.39,0.16,1.33,-1.30,-1.29,-1.35,-1.08,-1.14,-1.17
144.87,0.04,1.25,0.09,1.29,-1.32,-1.31,-1.34,-1.28,-1.23,-1.21
146.32,0.01,1.27,0.02,1.27,-1.34,-1.33,-1.33,-1.33,-1.31,-1.26
147.78,0.00,1.29,-0.01,1.29,-1.35,-1.34,-1.32,-1.35,-1.36,-1.29
149.26,0.00,1.36,0.01,1.37,-1.37,-1.36,-1.31,-1.37,-1.36,-1.36
150.75,-0.00,1.44,-0.00,1.43,-1.40,-1.38,-1.30,-1.40,-1.40,-1.44
152.26,-0.01,1.50,-0.06,1.45,-1.44,-1.40,-1.29,-1.45,-1.49,-1.51
153.78,-0.15,1.43,-0.13,1.46,-1.48,-1.42,-1.29,-1.63,-1.60,-1.58
155.32,-0.22,1.46,-0.19,1.48,-1.51,-1.45,-1.28,-1.73,-1.69,-1.68
156.88,-0.23,1.52,-0.23,1.52,-1.52,-1.47,-1.27,-1.75,-1.75,-1.75
158.44,-0.23,1.59,-0.25,1.58,-1.52,-1.49,-1.26,-1.75,-1.76,-1.82
160.03,-0.29,1.60,-0.32,1.58,-1.50,-1.51,-1.25,-1.79,-1.82,-1.89
161.63,-0.43,1.53,-0.44,1.51,-1.48,-1.53,-1.25,-1.91,-1.92,-1.96
163.24,-0.60,1.41,-0.57,1.44,-1.46,-1.55,-1.24,-2.06,-2.03,-2.01
164.88,-0.68,1.37,-0.66,1.39,-1.45,-1.57,-1.24,-2.13,-2.11,-2.05
166.53,-0.68,1.41,-0.69,1.39,-1.45,-1.59,-1.24,-2.13,-2.14,-2.09
168.19,-0.68,1.43,-0.70,1.41,-1.46,-1.61,-1.23,-2.14,-2.16,-2.11
169.87,-0.68,1.45,-0.68,1.45,-1.48,-1.63,-1.23,-2.16,-2.16,-2.13
171.57,-0.68,1.46,-0.63,1.51,-1.51,-1.64,-1.23,-2.19,-2.14,-2.14
173.29,-0.54,1.59,-0.56,1.57,-1.55,-1.65,-1.23,-2.09,-2.11,-2.14
175.02,-0.46,1.66,-0.49,1.63,-1.59,-1.66,-1.23,-2.05,-2.08,-2.12
176.77,-0.46,1.67,-0.45,1.67,-1.62,-1.67,-1.23,-2.08,-2.07,-2.13
178.54,-0.46,1.66,-0.45,1.66,-1.64,-1.68,-1.23,-2.10,-2.10,-2.12
180.32,-0.46,1.65,-0.46,1.65,-1.66,-1.68,-1.24,-2.12,-2.12,-2.11
182.13,-0.46,1.65,-0.46,1.65,-1.68,-1.68,-1.24,-2.14,-2.14,-2.11
183.95,-0.46,1.65,-0.46,1.65,-1.68,-1.68,-1.25,-2.14,-2.14,-2.11
185.79,-0.46,1.66,-0.46,1.66,-1.68,-1.67,-1.25,-2.14,-2.14,-2.12
187.65,-0.46,1.68,-0.46,1.68,-1.67,-1.67,-1.26,-2.13,-2.13,-2.14
189.52,-0.46,1.70,-0.45,1.71,-1.66,-1.66,-1.27,-2.12,-2.11,-2.16
191.42,-0.46,1.72,-0.46,1.72,-1.67,-1.66,-1.28,-2.13,-2.12,-2.18
193.33,-0.46,1.74,-0.51,1.68,-1.68,-1.65,-1.29,-2.14,-2.19,-2.20
195.27,-0.56,1.65,-0.56,1.65,-1.69,-1.64,-1.30,-2.25,-2.26,-2.21
197.22,-0.66,1.56,-0.58,1.65,-1.71,-1.63,-1.31,-2.37,-2.29,-2.22
199.19,-0.55,1.71,-0.56,1.69,-1.73,-1.62,-1.32,-2.28,-2.30,-2.26
201.18,-0.46,1.81,-0.50,1.77,-1.76,-1.60,-1.33,-2.22,-2.27,-2.27
203.19,-0.46,1.82,-0.45,1.83,-1.80,-1.59,-1.34,-2.26,-2.25,-2.28
205.23,-0.46,1.85,-0.45,1.85,-1.83,-1.58,-1.36,-2.29,-2.28,-2.31
207.28,-0.46,1.85,-0.46,1.86,-1.86,-1.57,-1.37,-2.32,-2.32,-2.31
209.35,-0.46,1.88,-0.46,1.88,-1.88,-1.56,-1.39,-2.34,-2.34,-2.34
211.44,-0.46,1.90,-0.44,1.91,-1.89,-1.55,-1.40,-2.35,-2.33,-2.36
213.56,-0.46,1.91,-0.47,1.90,-1.87,-1.54,-1.41,-2.33,-2.34,-2.37
215.69,-0.46,1.91,-0.53,1.85,-1.84,-1.54,-1.43,-2.30,-2.36,-2.37
217.85,-0.66,1.73,-0.59,1.80,-1.79,-1.53,-1.44,-2.45,-2.38,-2.39
220.03,-0.68,1.72,-0.66,1.75,-1.74,-1.52,-1.46,-2.42,-2.40,-2.40
222.23,-0.68,1.75,-0.74,1.68,-1.69,-1.51,-1.47,-2.37,-2.43,-2.43
224.45,-0.79,1.64,-0.79,1.64,-1.65,-1.51,-1.48,-2.44,-2.44,-2.43
226.70,-0.90,1.53,-0.86,1.57,-1.61,-1.50,-1.50,-2.51,-2.47,-2.43
228.96,-0.91,1.53,-0.91,1.52,-1.58,-1.50,-1.51,-2.49,-2.49,-2.44
231.25,-0.91,1.53,-0.92,1.52,-1.56,-1.49,-1.52,-2.47,-2.48,-2.44
233.57,-0.91,1.54,-0.91,1.54,-1.53,-1.49,-1.53,-2.44,-2.44,-2.45
235.90,-0.91,1.55,-0.89,1.56,-1.50,-1.49,-1.54,-2.41,-2.40,-2.46
238.26,-0.91,1.55,-0.91,1.55,-1.48,-1.49,-1.55,-2.39,-2.39,-2.46
240.64,-0.91,1.55,-0.97,1.49,-1.45,-1.49,-1.56,-2.36,-2.41,-2.46
243.05,-1.07,1.38,-1.04,1.41,-1.42,-1.48,-1.56,-2.49,-2.46,-2.45
245.48,-1.14,1.31,-1.11,1.34,-1.38,-1.48,-1.57,-2.52,-2.49,-2.45
247.93,-1.14,1.29,-1.15,1.29,-1.34,-1.48,-1.57,-2.48,-2.50,-2.43
250.41,-1.14,1.30,-1.15,1.29,-1.31,-1.48,-1.58,-2.45,-2.46,-2.44
252.92,-1.14,1.29,-1.14,1.28,-1.28,-1.48,-1.58,-2.42,-2.42,-2.43
255.45,-1.14,1.27,-1.14,1.28,-1.26,-1.48,-1.58,-2.40,-2.40,-2.41
258.00,-1.14,1.26,-1.14,1.26,-1.25,-1.49,-1.58,-2.39,-2.39,-2.40
260.58,-1.14,1.26,-1.14,1.26,-1.25,-1.49,-1.58,-2.39,-2.39,-2.40
263.19,-1.14,1.25,-1.14,1.25,-1.23,-1.49,-1.57,-2.37,-2.37,-2.39
265.82,-1.14,1.24,-1.14,1.24,-1.22,-1.49,-1.57,-2.36,-2.36,-2.38
268.48,-1.14,1.22,-1.14,1.22,-1.21,-1.49,-1.56,-2.35,-2.35,-2.36
271.16,-1.14,1.21,-1.14,1.21,-1.20,-1.50,-1.56,-2.34,-2.34,-2.35
273.87,-1.14,1.19,-1.16,1.17,-1.20,-1.50,-1.55,-2.34,-2.35,-2.33
276.61,-1.14,1.16,-1.14,1.17,-1.20,-1.50,-1.54,-2.34,-2.34,-2.30
279.38,-1.14,1.14,-1.08,1.20,-1.21,-1.50,-1.54,-2.35,-2.29,-2.28
282.17,-0.97,1.29,-1.01,1.24,-1.24,-1.51,-1.53,-2.21,-2.25,-2.26
284.99,-0.91,1.32,-0.95,1.28,-1.28,-1.51,-1.52,-2.19,-2.22,-2.23
287.84,-0.91,1.30,-0.87,1.33,-1.33,-1.51,-1.51,-2.24,-2.20,-2.21
290.72,-0.84,1.33,-0.83,1.35,-1.38,-1.52,-1.50,-2.22,-2.21,-2.17
293.63,-0.70,1.45,-0.74,1.41,-1.43,-1.52,-1.49,-2.13,-2.17,-2.15
296.57,-0.68,1.44,-0.63,1.49,-1.47,-1.52,-1.48,-2.15,-2.10,-2.12
299.53,-0.51,1.58,-0.54,1.56,-1.51,-1.53,-1.48,-2.02,-2.05,-2.09
302.53,-0.46,1.62,-0.48,1.59,-1.54,-1.53,-1.47,-2.00,-2.03,-2.08
305.55,-0.46,1.58,-0.45,1.60,-1.58,-1.53,-1.46,-2.04,-2.02,-2.04
308.61,-0.46,1.57,-0.47,1.55,-1.60,-1.54,-1.45,-2.06,-2.07,-2.03
311.69,-0.46,1.55,-0.46,1.54,-1.62,-1.54,-1.45,-2.08,-2.08,-2.01
314.81,-0.46,1.52,-0.39,1.60,-1.62,-1.54,-1.44,-2.08,-2.01,-1.98
317.96,-0.31,1.68,-0.34,1.65,-1.61,-1.55,-1.44,-1.92,-1.95,-1.99
321.14,-0.24,1.75,-0.33,1.65,-1.59,-1.55,-1.43,-1.83,-1.92,-1.99
324.35,-0.41,1.57,-0.36,1.62,-1.58,-1.56,-1.43,-1.99,-1.94,-1.98
327.59,-0.46,1.51,-0.43,1.55,-1.57,-1.56,-1.43,-2.03,-1.99,-1.97
330.87,-0.46,1.51,-0.47,1.50,-1.56,-1.56,-1.43,-2.02,-2.03,-1.97
334.18,-0.46,1.50,-0.46,1.49,-1.55,-1.57,-1.43,-2.01,-2.01,-1.96
337.52,-0.46,1.49,-0.46,1.49,-1.52,-1.57,-1.43,-1.98,-1.98,-1.95
340.90,-0.46,1.47,-0.46,1.47,-1.48,-1.57,-1.43,-1.94,-1.94,-1.93
344.30,-0.46,1.46,-0.45,1.46,-1.43,-1.57,-1.43,-1.89,-1.88,-1.92
347.75,-0.46,1.44,-0.44,1.45,-1.36,-1.58,-1.44,-1.82,-1.81,-1.90
351.23,-0.46,1.41,-0.49,1.38,-1.28,-1.58,-1.44,-1.74,-1.78,-1.87
354.74,-0.56,1.29,-0.60,1.25,-1.19,-1.58,-1.45,-1.75,-1.79,-1.85
358.28,-0.78,1.05,-0.74,1.09,-1.09,-1.59,-1.46,-1.87,-1.83,-1.83
361.87,-0.89,0.92,-0.86,0.95,-1.01,-1.59,-1.47,-1.90,-1.87,-1.81
365.49,-0.91,0.87,-0.92,0.86,-0.95,-1.59,-1.48,-1.86,-1.87,-1.78
369.14,-0.91,0.85,-0.94,0.82,-0.91,-1.59,-1.49,-1.82,-1.85,-1.76
372.83,-0.91,0.82,-0.90,0.84,-0.91,-1.59,-1.50,-1.82,-1.80,-1.73
376.56,-0.86,0.86,-0.79,0.92,-0.93,-1.60,-1.51,-1.79,-1.72,-1.72
380.33,-0.62,1.07,-0.66,1.03,-0.99,-1.60,-1.53,-1.61,-1.65,-1.69
384.13,-0.48,1.19,-0.54,1.13,-1.07,-1.60,-1.54,-1.55,-1.62,-1.67
387.97,-0.46,1.20,-0.45,1.21,-1.17,-1.60,-1.56,-1.63,-1.61,-1.66
391.85,-0.45,1.20,-0.39,1.26,-1.27,-1.60,-1.57,-1.72,-1.66,-1.65
395.77,-0.29,1.35,-0.33,1.32,-1.35,-1.60,-1.59,-1.64,-1.68,-1.64
399.73,-0.23,1.41,-0.22,1.41,-1.43,-1.60,-1.61,-1.66,-1.65,-1.64
403.72,-0.14,1.49,-0.12,1.51,-1.49,-1.60,-1.63,-1.63,-1.60,-1.63
407.76,-0.03,1.59,-0.06,1.56,-1.53,-1.61,-1.65,-1.56,-1.59,-1.62
411.84,-0.00,1.61,-0.01,1.60,-1.57,-1.61,-1.67,-1.57,-1.58,-1.61
415.96,0.00,1.60,0.01,1.61,-1.59,-1.61,-1.69,-1.59,-1.59,-1.60
420.12,0.00,1.60,0.00,1.60,-1.61,-1.61,-1.71,-1.61,-1.61,-1.60
424.32,0.00,1.60,0.00,1.60,-1.61,-1.61,-1.73,-1.61,-1.61,-1.60
428.56,0.00,1.60,-0.00,1.60,-1.60,-1.61,-1.75,-1.60,-1.60,-1.60
432.85,0.00,1.60,-0.00,1.60,-1.60,-1.61,-1.76,-1.60,-1.60,-1.60
437.18,0.00,1.60,-0.00,1.60,-1.60,-1.60,-1.78,-1.60,-1.60,-1.60
441.55,0.00,1.59,-0.02,1.57,-1.62,-1.60,-1.80,-1.62,-1.64,-1.59
445.96,0.00,1.59,0.00,1.59,-1.64,-1.60,-1.82,-1.64,-1.64,-1.59
450.42,0.00,1.58,0.06,1.64,-1.67,-1.60,-1.83,-1.67,-1.60,-1.58
454.93,0.18,1.75,0.14,1.71,-1.69,-1.60,-1.85,-1.51,-1.55,-1.57
459.48,0.23,1.79,0.20,1.76,-1.70,-1.60,-1.86,-1.47,-1.50,-1.56
464.07,0.23,1.77,0.24,1.79,-1.72,-1.60,-1.87,-1.49,-1.47,-1.54
468.71,0.23,1.75,0.23,1.76,-1.73,-1.59,-1.88,-1.50,-1.50,-1.52
473.40,0.23,1.74,0.23,1.73,-1.75,-1.59,-1.89,-1.52,-1.53,-1.51
478.13,0.23,1.71,0.22,1.71,-1.77,-1.59,-1.89,-1.54,-1.55,-1.48
482.91,0.23,1.69,0.25,1.71,-1.78,-1.59,-1.90,-1.55,-1.53,-1.46
487.74,0.28,1.71,0.31,1.75,-1.79,-1.58,-1.90,-1.51,-1.47,-1.43
