frequency,raw,smoothed,error,error_smoothed,equalization,parametric_eq,fixed_band_eq,equalized_raw,equalized_smoothed,target
20.00,-27.40,-27.40,-19.60,-19.60,6.00,6.69,2.92,-21.40,-21.40,-7.80
20.20,-27.26,-27.26,-19.44,-19.44,6.00,6.68,3.01,-21.26,-21.26,-7.82
20.40,-27.12,-27.12,-19.28,-19.28,6.00,6.67,3.09,-21.12,-21.12,-7.83
20.61,-26.98,-26.98,-19.14,-19.13,6.00,6.67,3.18,-20.98,-20.98,-7.84
20.81,-26.85,-26.85,-18.98,-18.98,6.00,6.66,3.27,-20.85,-20.85,-7.86
21.02,-26.71,-26.72,-18.84,-18.85,6.00,6.65,3.36,-20.71,-20.72,-7.87
21.23,-26.61,-26.61,-18.73,-18.72,6.00,6.64,3.46,-20.61,-20.61,-7.88
21.44,-26.51,-26.51,-18.61,-18.62,6.00,6.63,3.55,-20.51,-20.51,-7.89
21.66,-26.41,-26.41,-18.51,-18.51,6.00,6.62,3.65,-20.41,-20.41,-7.90
21.87,-26.31,-26.30,-18.40,-18.39,6.00,6.62,3.76,-20.31,-20.30,-7.90
22.09,-26.18,-26.17,-18.26,-18.26,6.00,6.61,3.87,-20.18,-20.17,-7.91
22.31,-26.02,-26.02,-18.10,-18.11,6.00,6.60,3.98,-20.02,-20.02,-7.91
22.54,-25.86,-25.86,-17.94,-17.94,6.00,6.59,4.09,-19.86,-19.86,-7.92
22.76,-25.70,-25.70,-17.77,-17.77,6.00,6.58,4.20,-19.70,-19.70,-7.92
22.99,-25.54,-25.56,-17.62,-17.63,6.00,6.57,4.32,-19.54,-19.56,-7.92
23.22,-25.44,-25.44,-17.52,-17.51,6.00,6.56,4.44,-19.44,-19.44,-7.92
23.45,-25.34,-25.34,-17.42,-17.42,6.00,6.55,4.57,-19.34,-19.34,-7.92
23.69,-25.25,-25.25,-17.33,-17.33,6.00,6.54,4.69,-19.25,-19.25,-7.92
23.92,-25.15,-25.14,-17.22,-17.21,6.00,6.53,4.82,-19.15,-19.14,-7.92
24.16,-25.01,-25.01,-17.08,-17.08,6.00,6.52,4.95,-19.01,-19.01,-7.92
24.40,-24.86,-24.86,-16.93,-16.93,6.00,6.51,5.09,-18.86,-18.86,-7.92
24.65,-24.70,-24.70,-16.78,-16.77,6.00,6.50,5.22,-18.70,-18.70,-7.92
24.89,-24.55,-24.56,-16.62,-16.63,6.00,6.49,5.36,-18.55,-18.56,-7.92
25.14,-24.43,-24.44,-16.51,-16.52,6.00,6.48,5.50,-18.43,-18.44,-7.92
25.39,-24.34,-24.34,-16.42,-16.42,6.00,6.47,5.64,-18.34,-18.34,-7.91
25.65,-24.25,-24.25,-16.34,-16.33,6.00,6.46,5.78,-18.25,-18.25,-7.91
25.91,-24.16,-24.15,-16.24,-16.23,6.00,6.44,5.93,-18.16,-18.15,-7.92
26.16,-24.04,-24.04,-16.11,-16.11,6.00,6.43,6.07,-18.04,-18.04,-7.92
26.43,-23.90,-23.90,-15.98,-15.97,6.00,6.42,6.21,-17.90,-17.90,-7.92
26.69,-23.76,-23.76,-15.84,-15.83,6.00,6.41,6.35,-17.76,-17.76,-7.92
26.96,-23.61,-23.63,-15.68,-15.70,6.00,6.40,6.49,-17.61,-17.63,-7.93
27.23,-23.52,-23.52,-15.59,-15.59,6.00,6.39,6.63,-17.52,-17.52,-7.93
27.50,-23.44,-23.44,-15.51,-15.50,6.00,6.37,6.76,-17.44,-17.44,-7.93
27.77,-23.36,-23.36,-15.42,-15.42,6.00,6.36,6.89,-17.36,-17.36,-7.93
28.05,-23.28,-23.27,-15.34,-15.33,6.00,6.35,7.02,-17.28,-17.27,-7.94
28.33,-23.15,-23.16,-15.21,-15.21,6.00,6.34,7.14,-17.15,-17.16,-7.94
28.62,-23.02,-23.03,-15.07,-15.07,6.00,6.32,7.25,-17.02,-17.03,-7.95
28.90,-22.88,-22.87,-14.93,-14.92,6.00,6.31,7.36,-16.88,-16.87,-7.95
29.19,-22.71,-22.71,-14.75,-14.74,6.00,6.30,7.46,-16.71,-16.71,-7.96
29.48,-22.52,-22.51,-14.54,-14.54,6.00,6.28,7.54,-16.52,-16.51,-7.97
29.78,-22.33,-22.34,-14.36,-14.36,6.00,6.27,7.62,-16.33,-16.34,-7.97
30.08,-22.16,-22.19,-14.18,-14.21,6.00,6.26,7.69,-16.16,-16.19,-7.98
30.38,-22.09,-22.09,-14.10,-14.10,6.00,6.24,7.75,-16.09,-16.09,-7.99
30.68,-22.01,-22.01,-14.02,-14.01,6.00,6.23,7.79,-16.01,-16.01,-7.99
30.99,-21.93,-21.92,-13.93,-13.91,6.00,6.22,7.83,-15.93,-15.92,-8.00
31.30,-21.80,-21.80,-13.79,-13.79,6.00,6.20,7.84,-15.80,-15.80,-8.01
31.61,-21.65,-21.66,-13.64,-13.64,6.00,6.19,7.85,-15.65,-15.66,-8.01
31.93,-21.51,-21.51,-13.49,-13.49,6.00,6.17,7.85,-15.51,-15.51,-8.02
32.24,-21.37,-21.37,-13.34,-13.35,6.00,6.16,7.83,-15.37,-15.37,-8.02
32.57,-21.23,-21.23,-13.21,-13.21,6.00,6.15,7.80,-15.23,-15.23,-8.02
32.89,-21.09,-21.08,-13.06,-13.06,6.00,6.13,7.77,-15.09,-15.08,-8.02
33.22,-20.93,-20.93,-12.91,-12.91,6.00,6.12,7.72,-14.93,-14.93,-8.02
33.55,-20.78,-20.78,-12.75,-12.75,6.00,6.10,7.66,-14.78,-14.78,-8.02
33.89,-20.62,-20.63,-12.61,-12.61,6.00,6.09,7.59,-14.62,-14.63,-8.01
34.23,-20.48,-20.48,-12.47,-12.47,6.00,6.08,7.52,-14.48,-14.48,-8.01
34.57,-20.35,-20.34,-12.35,-12.34,6.00,6.06,7.44,-14.35,-14.34,-8.00
34.92,-20.21,-20.22,-12.22,-12.22,6.00,6.05,7.35,-14.21,-14.22,-7.99
35.27,-20.10,-20.10,-12.11,-12.11,6.00,6.03,7.26,-14.10,-14.10,-7.99
35.62,-20.00,-20.00,-12.01,-12.01,6.00,6.02,7.16,-14.00,-14.00,-7.99
35.97,-19.90,-19.90,-11.91,-11.91,6.00,6.01,7.06,-13.90,-13.90,-7.99
36.33,-19.80,-19.81,-11.81,-11.82,6.00,5.99,6.96,-13.80,-13.81,-7.98
36.70,-19.70,-19.70,-11.71,-11.71,6.00,5.98,6.86,-13.70,-13.70,-7.99
37.06,-19.59,-19.57,-11.59,-11.58,6.00,5.97,6.76,-13.59,-13.57,-7.99
37.43,-19.41,-19.42,-11.41,-11.42,6.00,5.95,6.65,-13.41,-13.42,-7.99
37.81,-19.24,-19.25,-11.24,-11.25,6.00,5.94,6.55,-13.24,-13.25,-8.00
38.19,-19.07,-19.07,-11.07,-11.07,6.00,5.93,6.45,-13.07,-13.07,-8.00
38.57,-18.92,-18.91,-10.91,-10.90,6.00,5.92,6.34,-12.92,-12.91,-8.01
38.95,-18.76,-18.77,-10.73,-10.75,6.00,5.91,6.25,-12.76,-12.77,-8.02
39.34,-18.65,-18.65,-10.60,-10.61,6.00,5.90,6.15,-12.65,-12.65,-8.04
39.74,-18.55,-18.55,-10.50,-10.49,6.00,5.89,6.06,-12.55,-12.55,-8.05
40.14,-18.45,-18.47,-10.39,-10.40,6.00,5.88,5.96,-12.45,-12.47,-8.06
40.54,-18.38,-18.38,-10.31,-10.31,6.00,5.87,5.88,-12.38,-12.38,-8.07
40.94,-18.30,-18.27,-10.22,-10.19,6.00,5.86,5.79,-12.30,-12.27,-8.08
41.35,-18.14,-18.14,-10.06,-10.06,6.00,5.86,5.71,-12.14,-12.14,-8.08
41.76,-17.98,-17.99,-9.89,-9.90,6.00,5.85,5.63,-11.98,-11.99,-8.08
42.18,-17.83,-17.85,-9.75,-9.76,6.00,5.85,5.56,-11.83,-11.85,-8.08
42.60,-17.71,-17.71,-9.62,-9.62,6.00,5.85,5.49,-11.71,-11.71,-8.08
43.03,-17.59,-17.56,-9.51,-9.47,6.00,5.84,5.42,-11.59,-11.56,-8.08
43.46,-17.39,-17.39,-9.31,-9.31,6.00,5.84,5.36,-11.39,-11.39,-8.08
43.90,-17.20,-17.23,-9.13,-9.15,6.00,5.85,5.31,-11.20,-11.23,-8.07
44.33,-17.07,-17.08,-9.00,-9.00,6.00,5.85,5.25,-11.07,-11.08,-8.07
44.78,-16.97,-16.96,-8.90,-8.89,6.00,5.86,5.20,-10.97,-10.96,-8.07
45.23,-16.85,-16.85,-8.79,-8.78,6.00,5.87,5.16,-10.85,-10.85,-8.06
45.68,-16.72,-16.72,-8.66,-8.66,6.00,5.88,5.12,-10.72,-10.72,-8.06
46.13,-16.58,-16.56,-8.51,-8.50,6.00,5.89,5.08,-10.58,-10.56,-8.06
46.60,-16.40,-16.40,-8.34,-8.34,6.00,5.90,5.04,-10.40,-10.40,-8.06
47.06,-16.23,-16.25,-8.18,-8.19,6.00,5.92,5.01,-10.23,-10.25,-8.05
47.53,-16.12,-16.12,-8.07,-8.06,6.00,5.94,4.99,-10.12,-10.12,-8.05
48.01,-16.01,-16.03,-7.96,-7.97,6.00,5.95,4.96,-10.01,-10.03,-8.05
48.49,-15.95,-15.95,-7.90,-7.90,6.00,5.98,4.94,-9.95,-9.95,-8.05
48.97,-15.88,-15.85,-7.83,-7.80,6.00,6.00,4.93,-9.88,-9.85,-8.05
49.46,-15.73,-15.73,-7.68,-7.67,6.00,6.02,4.91,-9.73,-9.73,-8.05
49.96,-15.56,-15.58,-7.51,-7.53,6.00,6.03,4.90,-9.56,-9.58,-8.05
50.46,-15.43,-15.43,-7.38,-7.38,6.00,6.05,4.89,-9.43,-9.43,-8.05
50.96,-15.29,-15.29,-7.25,-7.24,6.00,6.06,4.89,-9.29,-9.29,-8.04
51.47,-15.14,-15.14,-7.10,-7.10,6.00,6.07,4.88,-9.14,-9.14,-8.04
51.99,-14.99,-14.98,-6.95,-6.94,6.00,6.08,4.88,-8.99,-8.98,-8.04
52.51,-14.81,-14.81,-6.77,-6.76,6.01,6.07,4.88,-8.80,-8.80,-8.04
53.03,-14.63,-14.65,-6.59,-6.60,6.02,6.05,4.87,-8.61,-8.63,-8.04
53.56,-14.51,-14.51,-6.46,-6.46,6.02,6.03,4.87,-8.49,-8.48,-8.05
54.10,-14.39,-14.38,-6.34,-6.33,6.02,5.99,4.87,-8.38,-8.37,-8.05
54.64,-14.26,-14.27,-6.21,-6.21,5.99,5.94,4.87,-8.27,-8.27,-8.05
55.18,-14.14,-14.14,-6.09,-6.09,5.95,5.88,4.87,-8.19,-8.19,-8.05
55.74,-14.02,-14.02,-5.97,-5.96,5.89,5.81,4.86,-8.13,-8.13,-8.05
56.29,-13.89,-13.89,-5.83,-5.83,5.81,5.72,4.86,-8.08,-8.08,-8.06
56.86,-13.76,-13.76,-5.71,-5.70,5.71,5.63,4.85,-8.05,-8.05,-8.05
57.42,-13.63,-13.63,-5.58,-5.57,5.60,5.53,4.84,-8.03,-8.04,-8.05
58.00,-13.50,-13.50,-5.45,-5.45,5.46,5.42,4.82,-8.04,-8.04,-8.05
58.58,-13.37,-13.37,-5.32,-5.32,5.32,5.30,4.81,-8.05,-8.05,-8.05
59.16,-13.23,-13.23,-5.19,-5.18,5.18,5.18,4.78,-8.05,-8.06,-8.04
59.76,-13.10,-13.10,-5.05,-5.05,5.05,5.05,4.76,-8.06,-8.06,-8.05
60.35,-12.97,-12.96,-4.92,-4.91,4.93,4.93,4.72,-8.04,-8.04,-8.05
60.96,-12.83,-12.82,-4.78,-4.76,4.81,4.80,4.69,-8.03,-8.01,-8.05
61.57,-12.69,-12.71,-4.64,-4.66,4.69,4.67,4.65,-8.00,-8.02,-8.05
62.18,-12.59,-12.63,-4.54,-4.58,4.57,4.54,4.60,-8.02,-8.06,-8.05
62.80,-12.59,-12.54,-4.54,-4.48,4.46,4.41,4.54,-8.13,-8.08,-8.05
63.43,-12.45,-12.43,-4.40,-4.37,4.33,4.28,4.48,-8.12,-8.09,-8.05
64.07,-12.25,-12.29,-4.20,-4.24,4.21,4.16,4.42,-8.04,-8.08,-8.05
64.71,-12.13,-12.14,-4.08,-4.08,4.08,4.03,4.35,-8.05,-8.06,-8.05
65.35,-12.02,-12.01,-3.96,-3.95,3.95,3.91,4.27,-8.07,-8.06,-8.06
66.01,-11.90,-11.89,-3.83,-3.82,3.82,3.78,4.19,-8.08,-8.07,-8.07
66.67,-11.75,-11.74,-3.67,-3.66,3.69,3.66,4.10,-8.06,-8.05,-8.08
67.33,-11.60,-11.60,-3.52,-3.52,3.56,3.54,4.01,-8.04,-8.04,-8.08
68.01,-11.45,-11.50,-3.37,-3.41,3.43,3.42,3.92,-8.02,-8.06,-8.08
68.69,-11.43,-11.41,-3.34,-3.32,3.30,3.30,3.82,-8.13,-8.11,-8.09
69.37,-11.34,-11.32,-3.25,-3.22,3.17,3.18,3.71,-8.17,-8.15,-8.09
70.07,-11.20,-11.20,-3.10,-3.10,3.04,3.07,3.60,-8.16,-8.17,-8.10
70.77,-11.04,-11.05,-2.94,-2.94,2.91,2.95,3.49,-8.13,-8.13,-8.10
71.48,-10.88,-10.87,-2.77,-2.76,2.79,2.83,3.38,-8.09,-8.08,-8.11
72.19,-10.72,-10.72,-2.61,-2.60,2.67,2.71,3.26,-8.05,-8.05,-8.11
72.91,-10.56,-10.61,-2.45,-2.49,2.54,2.60,3.15,-8.02,-8.07,-8.11
73.64,-10.54,-10.52,-2.42,-2.40,2.41,2.48,3.03,-8.13,-8.11,-8.12
74.38,-10.48,-10.46,-2.36,-2.34,2.29,2.36,2.90,-8.19,-8.17,-8.12
75.12,-10.36,-10.37,-2.24,-2.25,2.18,2.24,2.78,-8.18,-8.20,-8.12
75.87,-10.27,-10.22,-2.15,-2.10,2.08,2.13,2.66,-8.19,-8.14,-8.11
76.63,-10.03,-10.05,-1.92,-1.94,1.98,2.01,2.54,-8.05,-8.07,-8.11
77.40,-9.88,-9.94,-1.77,-1.83,1.88,1.89,2.41,-8.00,-8.06,-8.11
78.17,-9.85,-9.85,-1.75,-1.74,1.77,1.77,2.29,-8.08,-8.08,-8.10
78.95,-9.85,-9.79,-1.75,-1.68,1.66,1.66,2.16,-8.19,-8.12,-8.10
79.74,-9.69,-9.70,-1.59,-1.60,1.56,1.54,2.04,-8.13,-8.14,-8.10
80.54,-9.55,-9.58,-1.46,-1.49,1.46,1.42,1.91,-8.09,-8.13,-8.09
81.35,-9.45,-9.43,-1.36,-1.34,1.36,1.31,1.79,-8.09,-8.08,-8.09
82.16,-9.35,-9.33,-1.27,-1.24,1.25,1.19,1.66,-8.10,-8.08,-8.08
82.98,-9.17,-9.23,-1.09,-1.15,1.15,1.08,1.54,-8.02,-8.08,-8.08
83.81,-9.17,-9.12,-1.09,-1.04,1.04,0.96,1.42,-8.13,-8.09,-8.08
84.65,-9.02,-9.01,-0.94,-0.92,0.92,0.85,1.29,-8.10,-8.09,-8.08
85.50,-8.88,-8.90,-0.79,-0.81,0.81,0.74,1.17,-8.07,-8.09,-8.09
86.35,-8.77,-8.79,-0.68,-0.69,0.70,0.63,1.05,-8.07,-8.09,-8.09
87.22,-8.70,-8.71,-0.60,-0.61,0.59,0.52,0.93,-8.11,-8.12,-8.10
88.09,-8.65,-8.61,-0.55,-0.50,0.48,0.42,0.81,-8.17,-8.12,-8.10
88.97,-8.50,-8.49,-0.39,-0.38,0.38,0.31,0.69,-8.12,-8.10,-8.11
89.86,-8.33,-8.38,-0.22,-0.26,0.29,0.21,0.57,-8.04,-8.08,-8.11
90.76,-8.27,-8.29,-0.15,-0.17,0.20,0.11,0.45,-8.07,-8.08,-8.12
91.66,-8.26,-8.22,-0.14,-0.10,0.12,0.02,0.33,-8.14,-8.11,-8.12
92.58,-8.18,-8.17,-0.06,-0.05,0.03,-0.08,0.22,-8.15,-8.15,-8.12
93.51,-8.07,-8.11,0.06,0.02,-0.07,-0.17,0.10,-8.14,-8.18,-8.13
94.44,-8.03,-8.01,0.10,0.13,-0.16,-0.26,-0.02,-8.20,-8.18,-8.13
95.39,-7.93,-7.91,0.21,0.24,-0.26,-0.34,-0.13,-8.19,-8.17,-8.14
96.34,-7.77,-7.79,0.38,0.36,-0.36,-0.43,-0.25,-8.13,-8.15,-8.15
97.30,-7.66,-7.68,0.49,0.48,-0.46,-0.51,-0.36,-8.12,-8.14,-8.15
98.28,-7.57,-7.56,0.59,0.60,-0.56,-0.59,-0.48,-8.13,-8.12,-8.16
99.26,-7.51,-7.47,0.65,0.69,-0.66,-0.66,-0.59,-8.17,-8.13,-8.16
100.25,-7.35,-7.41,0.81,0.76,-0.75,-0.74,-0.70,-8.10,-8.16,-8.16
101.25,-7.35,-7.34,0.82,0.83,-0.83,-0.81,-0.82,-8.19,-8.18,-8.17
102.27,-7.32,-7.28,0.85,0.90,-0.91,-0.88,-0.93,-8.23,-8.19,-8.17
103.29,-7.20,-7.23,0.97,0.95,-0.99,-0.95,-1.04,-8.19,-8.21,-8.17
104.32,-7.12,-7.13,1.05,1.05,-1.06,-1.02,-1.14,-8.18,-8.18,-8.17
105.37,-7.06,-7.03,1.11,1.15,-1.13,-1.09,-1.25,-8.19,-8.15,-8.17
106.42,-6.93,-6.97,1.24,1.20,-1.19,-1.15,-1.35,-8.12,-8.16,-8.17
107.48,-6.89,-6.91,1.28,1.27,-1.26,-1.22,-1.46,-8.15,-8.16,-8.17
108.56,-6.89,-6.83,1.27,1.34,-1.32,-1.29,-1.56,-8.21,-8.15,-8.16
109.64,-6.75,-6.77,1.41,1.40,-1.39,-1.35,-1.66,-8.14,-8.16,-8.16
110.74,-6.66,-6.72,1.49,1.44,-1.46,-1.41,-1.75,-8.12,-8.18,-8.15
111.85,-6.66,-6.64,1.49,1.51,-1.53,-1.48,-1.85,-8.19,-8.17,-8.15
112.97,-6.64,-6.58,1.50,1.57,-1.60,-1.54,-1.94,-8.24,-8.18,-8.14
114.10,-6.43,-6.49,1.71,1.65,-1.67,-1.61,-2.02,-8.10,-8.16,-8.14
115.24,-6.40,-6.38,1.74,1.77,-1.74,-1.67,-2.11,-8.14,-8.11,-8.14
116.39,-6.28,-6.28,1.86,1.86,-1.81,-1.73,-2.19,-8.09,-8.09,-8.14
117.55,-6.21,-6.26,1.93,1.89,-1.89,-1.79,-2.26,-8.10,-8.15,-8.14
118.73,-6.21,-6.19,1.93,1.96,-1.97,-1.86,-2.34,-8.18,-8.16,-8.14
119.92,-6.20,-6.13,1.95,2.02,-2.05,-1.92,-2.40,-8.25,-8.19,-8.15
121.12,-5.98,-6.06,2.17,2.10,-2.13,-1.98,-2.47,-8.11,-8.19,-8.15
122.33,-5.98,-5.95,2.18,2.21,-2.20,-2.05,-2.52,-8.18,-8.15,-8.16
123.55,-5.88,-5.85,2.28,2.31,-2.27,-2.11,-2.58,-8.15,-8.12,-8.16
124.79,-5.76,-5.81,2.41,2.37,-2.35,-2.17,-2.63,-8.11,-8.15,-8.17
126.03,-5.75,-5.76,2.42,2.41,-2.42,-2.23,-2.67,-8.17,-8.18,-8.17
127.29,-5.75,-5.72,2.43,2.47,-2.48,-2.29,-2.71,-8.23,-8.20,-8.18
128.57,-5.70,-5.66,2.48,2.52,-2.54,-2.35,-2.75,-8.24,-8.20,-8.18
129.85,-5.54,-5.59,2.65,2.60,-2.59,-2.42,-2.78,-8.13,-8.18,-8.19
131.15,-5.52,-5.53,2.67,2.67,-2.63,-2.48,-2.81,-8.15,-8.16,-8.19
132.46,-5.52,-5.52,2.68,2.68,-2.68,-2.54,-2.83,-8.20,-8.20,-8.20
133.79,-5.52,-5.51,2.68,2.69,-2.73,-2.60,-2.85,-8.25,-8.24,-8.20
135.12,-5.51,-5.46,2.70,2.75,-2.78,-2.65,-2.87,-8.29,-8.24,-8.21
136.48,-5.35,-5.38,2.86,2.83,-2.83,-2.71,-2.88,-8.18,-8.22,-8.21
137.84,-5.29,-5.33,2.92,2.89,-2.88,-2.77,-2.89,-8.17,-8.21,-8.21
139.22,-5.29,-5.28,2.92,2.94,-2.93,-2.83,-2.90,-8.22,-8.21,-8.21
140.61,-5.29,-5.25,2.93,2.97,-2.98,-2.89,-2.91,-8.27,-8.23,-8.22
142.02,-5.18,-5.19,3.04,3.03,-3.03,-2.94,-2.91,-8.21,-8.22,-8.22
143.44,-5.10,-5.12,3.12,3.10,-3.07,-3.00,-2.92,-8.17,-8.20,-8.22
144.87,-5.07,-5.07,3.15,3.15,-3.12,-3.05,-2.92,-8.19,-8.19,-8.22
146.32,-5.07,-5.08,3.15,3.15,-3.16,-3.11,-2.92,-8.23,-8.24,-8.22
147.78,-5.07,-5.07,3.16,3.16,-3.20,-3.16,-2.92,-8.27,-8.27,-8.23
149.26,-5.07,-5.03,3.16,3.20,-3.24,-3.21,-2.92,-8.31,-8.27,-8.23
150.75,-4.96,-4.97,3.27,3.27,-3.27,-3.27,-2.92,-8.23,-8.24,-8.23
152.26,-4.87,-4.90,3.36,3.34,-3.30,-3.32,-2.92,-8.17,-8.20,-8.23
153.78,-4.84,-4.84,3.39,3.39,-3.34,-3.37,-2.92,-8.18,-8.18,-8.23
155.32,-4.84,-4.84,3.39,3.40,-3.38,-3.42,-2.93,-8.22,-8.22,-8.23
156.88,-4.84,-4.85,3.39,3.39,-3.43,-3.47,-2.93,-8.27,-8.28,-8.23
158.44,-4.84,-4.82,3.39,3.42,-3.47,-3.51,-2.94,-8.31,-8.29,-8.23
160.03,-4.78,-4.75,3.45,3.49,-3.50,-3.56,-2.94,-8.28,-8.25,-8.23
161.63,-4.64,-4.68,3.60,3.56,-3.53,-3.61,-2.95,-8.17,-8.21,-8.24
163.24,-4.61,-4.62,3.63,3.62,-3.57,-3.65,-2.96,-8.18,-8.19,-8.24
164.88,-4.61,-4.60,3.63,3.64,-3.61,-3.70,-2.97,-8.22,-8.21,-8.24
166.53,-4.61,-4.62,3.63,3.62,-3.66,-3.74,-2.99,-8.27,-8.28,-8.24
168.19,-4.61,-4.59,3.62,3.65,-3.70,-3.78,-3.00,-8.31,-8.29,-8.23
169.87,-4.56,-4.53,3.67,3.71,-3.74,-3.83,-3.02,-8.30,-8.27,-8.23
171.57,-4.42,-4.46,3.81,3.78,-3.77,-3.87,-3.04,-8.19,-8.23,-8.23
173.29,-4.38,-4.40,3.85,3.84,-3.79,-3.91,-3.06,-8.18,-8.19,-8.23
175.02,-4.38,-4.37,3.85,3.87,-3.81,-3.95,-3.09,-8.20,-8.18,-8.23
176.77,-4.38,-4.38,3.86,3.86,-3.84,-3.99,-3.12,-8.22,-8.21,-8.24
178.54,-4.38,-4.38,3.86,3.86,-3.86,-4.02,-3.15,-8.24,-8.24,-8.24
180.32,-4.38,-4.38,3.86,3.87,-3.88,-4.06,-3.18,-8.27,-8.27,-8.24
182.13,-4.38,-4.40,3.87,3.86,-3.91,-4.10,-3.22,-8.29,-8.31,-8.25
183.95,-4.38,-4.38,3.87,3.88,-3.94,-4.13,-3.25,-8.32,-8.31,-8.25
185.79,-4.38,-4.32,3.88,3.94,-3.96,-4.17,-3.29,-8.35,-8.29,-8.26
187.65,-4.22,-4.25,4.04,4.01,-4.00,-4.20,-3.34,-8.22,-8.25,-8.26
189.52,-4.16,-4.19,4.10,4.08,-4.03,-4.23,-3.38,-8.19,-8.22,-8.26
191.42,-4.16,-4.15,4.10,4.12,-4.07,-4.26,-3.43,-8.23,-8.21,-8.26
193.33,-4.16,-4.15,4.10,4.11,-4.09,-4.30,-3.48,-8.25,-8.25,-8.26
195.27,-4.16,-4.16,4.10,4.10,-4.11,-4.33,-3.53,-8.27,-8.27,-8.26
197.22,-4.16,-4.16,4.10,4.10,-4.11,-4.36,-3.58,-8.27,-8.27,-8.26
199.19,-4.16,-4.16,4.10,4.10,-4.10,-4.39,-3.63,-8.26,-8.26,-8.26
201.18,-4.16,-4.16,4.10,4.10,-4.10,-4.41,-3.69,-8.26,-8.26,-8.26
203.19,-4.16,-4.16,4.10,4.10,-4.10,-4.44,-3.75,-8.26,-8.26,-8.26
205.23,-4.16,-4.17,4.09,4.08,-4.12,-4.47,-3.81,-8.28,-8.29,-8.25
207.28,-4.16,-4.16,4.09,4.09,-4.15,-4.49,-3.86,-8.31,-8.31,-8.25
209.35,-4.16,-4.11,4.09,4.14,-4.18,-4.52,-3.93,-8.34,-8.29,-8.25
211.44,-4.03,-4.04,4.22,4.21,-4.21,-4.55,-3.99,-8.24,-8.25,-8.25
213.56,-3.94,-3.97,4.31,4.28,-4.24,-4.57,-4.05,-8.18,-8.22,-8.25
215.69,-3.93,-3.93,4.32,4.33,-4.28,-4.59,-4.11,-8.21,-8.20,-8.25
217.85,-3.93,-3.92,4.32,4.33,-4.31,-4.62,-4.17,-8.24,-8.23,-8.25
220.03,-3.93,-3.93,4.32,4.33,-4.33,-4.64,-4.23,-8.26,-8.26,-8.25
222.23,-3.93,-3.93,4.33,4.33,-4.34,-4.66,-4.29,-8.27,-8.27,-8.26
224.45,-3.93,-3.93,4.33,4.33,-4.34,-4.68,-4.34,-8.27,-8.27,-8.26
226.70,-3.93,-3.93,4.33,4.34,-4.33,-4.70,-4.40,-8.27,-8.27,-8.26
228.96,-3.93,-3.93,4.34,4.34,-4.33,-4.72,-4.45,-8.26,-8.26,-8.27
231.25,-3.93,-3.93,4.34,4.34,-4.33,-4.74,-4.50,-8.26,-8.26,-8.27
233.57,-3.93,-3.93,4.34,4.35,-4.35,-4.76,-4.55,-8.28,-8.28,-8.27
235.90,-3.93,-3.95,4.35,4.34,-4.38,-4.78,-4.59,-8.31,-8.33,-8.28
238.26,-3.93,-3.93,4.36,4.36,-4.41,-4.80,-4.63,-8.34,-8.34,-8.29
240.64,-3.93,-3.87,4.36,4.42,-4.45,-4.82,-4.67,-8.38,-8.32,-8.29
243.05,-3.77,-3.80,4.52,4.49,-4.48,-4.84,-4.70,-8.26,-8.29,-8.29
245.48,-3.70,-3.73,4.59,4.56,-4.52,-4.85,-4.73,-8.22,-8.25,-8.29
247.93,-3.70,-3.69,4.59,4.61,-4.56,-4.87,-4.76,-8.26,-8.24,-8.29
250.41,-3.70,-3.69,4.59,4.60,-4.58,-4.89,-4.78,-8.28,-8.28,-8.29
252.92,-3.70,-3.70,4.60,4.60,-4.61,-4.90,-4.79,-8.31,-8.31,-8.30
255.45,-3.70,-3.70,4.60,4.60,-4.62,-4.92,-4.80,-8.32,-8.32,-8.30
258.00,-3.70,-3.70,4.60,4.60,-4.62,-4.93,-4.81,-8.32,-8.32,-8.30
260.58,-3.70,-3.70,4.60,4.60,-4.61,-4.95,-4.82,-8.31,-8.31,-8.30
263.19,-3.70,-3.70,4.60,4.60,-4.59,-4.96,-4.82,-8.29,-8.29,-8.30
265.82,-3.70,-3.70,4.60,4.60,-4.59,-4.98,-4.81,-8.29,-8.29,-8.30
268.48,-3.70,-3.70,4.60,4.60,-4.59,-4.99,-4.81,-8.29,-8.29,-8.30
271.16,-3.70,-3.70,4.59,4.60,-4.60,-5.00,-4.80,-8.30,-8.30,-8.29
273.87,-3.70,-3.72,4.59,4.58,-4.62,-5.02,-4.79,-8.33,-8.34,-8.29
276.61,-3.70,-3.70,4.59,4.60,-4.65,-5.03,-4.77,-8.35,-8.35,-8.29
279.38,-3.70,-3.64,4.59,4.65,-4.68,-5.04,-4.76,-8.38,-8.32,-8.29
282.17,-3.53,-3.57,4.76,4.72,-4.71,-5.06,-4.74,-8.24,-8.28,-8.29
284.99,-3.47,-3.50,4.81,4.79,-4.74,-5.07,-4.72,-8.21,-8.24,-8.28
287.84,-3.47,-3.46,4.80,4.82,-4.76,-5.08,-4.70,-8.24,-8.22,-8.27
290.72,-3.47,-3.47,4.79,4.80,-4.78,-5.09,-4.68,-8.25,-8.25,-8.26
293.63,-3.47,-3.47,4.79,4.79,-4.79,-5.10,-4.66,-8.26,-8.26,-8.26
296.57,-3.47,-3.47,4.78,4.78,-4.78,-5.11,-4.65,-8.25,-8.25,-8.25
299.53,-3.47,-3.47,4.77,4.77,-4.78,-5.12,-4.63,-8.25,-8.25,-8.24
302.53,-3.47,-3.47,4.76,4.76,-4.78,-5.13,-4.61,-8.25,-8.25,-8.23
305.55,-3.47,-3.48,4.75,4.74,-4.78,-5.14,-4.60,-8.25,-8.27,-8.22
308.61,-3.47,-3.47,4.75,4.75,-4.80,-5.16,-4.58,-8.27,-8.27,-8.22
311.69,-3.47,-3.42,4.74,4.80,-4.83,-5.17,-4.57,-8.30,-8.25,-8.21
314.81,-3.33,-3.35,4.88,4.86,-4.87,-5.18,-4.56,-8.20,-8.22,-8.21
317.96,-3.25,-3.28,4.95,4.93,-4.91,-5.19,-4.56,-8.16,-8.19,-8.20
321.14,-3.24,-3.23,4.96,4.97,-4.93,-5.19,-4.55,-8.17,-8.17,-8.20
324.35,-3.24,-3.23,4.95,4.96,-4.94,-5.20,-4.55,-8.18,-8.17,-8.19
327.59,-3.24,-3.23,4.93,4.95,-4.92,-5.21,-4.55,-8.16,-8.15,-8.17
330.87,-3.24,-3.24,4.93,4.93,-4.88,-5.22,-4.56,-8.12,-8.12,-8.17
334.18,-3.24,-3.27,4.92,4.90,-4.81,-5.23,-4.56,-8.06,-8.08,-8.16
337.52,-3.37,-3.37,4.79,4.79,-4.75,-5.24,-4.58,-8.12,-8.12,-8.16
340.90,-3.46,-3.50,4.68,4.65,-4.69,-5.25,-4.59,-8.15,-8.19,-8.14
344.30,-3.65,-3.59,4.48,4.55,-4.65,-5.26,-4.61,-8.30,-8.24,-8.13
347.75,-3.64,-3.61,4.48,4.52,-4.63,-5.27,-4.63,-8.28,-8.24,-8.12
351.23,-3.51,-3.56,4.61,4.55,-4.63,-5.28,-4.65,-8.14,-8.19,-8.12
354.74,-3.47,-3.45,4.62,4.65,-4.64,-5.29,-4.68,-8.11,-8.09,-8.09
358.28,-3.36,-3.36,4.73,4.74,-4.67,-5.30,-4.71,-8.03,-8.02,-8.09
361.87,-3.27,-3.29,4.81,4.79,-4.71,-5.31,-4.75,-7.98,-8.01,-8.08
365.49,-3.24,-3.24,4.83,4.83,-4.77,-5.31,-4.79,-8.01,-8.01,-8.07
369.14,-3.24,-3.24,4.83,4.83,-4.83,-5.32,-4.83,-8.07,-8.07,-8.07
372.83,-3.24,-3.24,4.81,4.82,-4.87,-5.33,-4.88,-8.11,-8.11,-8.05
376.56,-3.24,-3.21,4.81,4.84,-4.89,-5.34,-4.93,-8.14,-8.10,-8.05
380.33,-3.15,-3.14,4.89,4.90,-4.91,-5.35,-4.98,-8.06,-8.06,-8.04
384.13,-3.04,-3.08,5.00,4.97,-4.94,-5.36,-5.03,-7.98,-8.01,-8.04
387.97,-3.02,-3.02,5.02,5.01,-4.97,-5.37,-5.09,-7.99,-7.99,-8.04
391.85,-3.02,-3.02,5.00,5.02,-5.00,-5.38,-5.15,-8.03,-8.02,-8.02
395.77,-3.02,-3.02,5.01,5.00,-5.05,-5.39,-5.22,-8.07,-8.07,-8.03
