frequency,raw,error,smoothed,error_smoothed,equalization,parametric_eq,equalized_raw,equalized_smoothed,target
20,9.98,9.25,9.99,9.27,-9.27,-4.54,0.71,0.72,0.73
21,10.09,9.36,10.10,9.38,-9.38,-5.16,0.71,0.72,0.73
22,10.19,9.46,10.19,9.47,-9.47,-5.83,0.71,0.72,0.72
23,10.28,9.56,10.28,9.56,-9.56,-6.56,0.72,0.72,0.72
24,10.35,9.63,10.36,9.64,-9.64,-7.34,0.71,0.72,0.72
25,10.43,9.71,10.43,9.71,-9.71,-8.16,0.72,0.71,0.72
26,10.50,9.78,10.49,9.77,-9.77,-9.00,0.72,0.71,0.71
27,10.56,9.85,10.54,9.83,-9.83,-9.82,0.73,0.71,0.71
28,10.60,9.89,10.58,9.87,-9.87,-10.59,0.72,0.70,0.71
29,10.63,9.93,10.61,9.91,-9.91,-11.25,0.72,0.70,0.70
30,10.66,9.96,10.63,9.94,-9.94,-11.74,0.72,0.69,0.70
31,10.68,9.99,10.64,9.95,-9.95,-12.02,0.73,0.69,0.69
32,10.66,9.97,10.63,9.95,-9.95,-12.08,0.70,0.68,0.69
33,10.63,9.95,10.62,9.95,-9.95,-11.96,0.68,0.67,0.68
34,10.60,9.93,10.61,9.94,-9.94,-11.70,0.66,0.67,0.67
35,10.56,9.89,10.58,9.92,-9.92,-11.37,0.63,0.66,0.66
36,10.53,9.87,10.55,9.90,-9.90,-11.00,0.62,0.65,0.66
37,10.50,9.85,10.52,9.88,-9.88,-10.64,0.62,0.64,0.65
38,10.47,9.83,10.48,9.85,-9.85,-10.29,0.62,0.63,0.64
39,10.44,9.81,10.44,9.82,-9.82,-9.98,0.61,0.62,0.63
40,10.41,9.79,10.41,9.80,-9.80,-9.72,0.61,0.61,0.62
41,10.37,9.76,10.37,9.77,-9.77,-9.49,0.60,0.60,0.61
42,10.34,9.74,10.33,9.75,-9.75,-9.31,0.59,0.59,0.59
43,10.30,9.72,10.30,9.72,-9.72,-9.17,0.58,0.58,0.58
44,10.26,9.69,10.26,9.70,-9.70,-9.06,0.56,0.57,0.57
45,10.22,9.66,10.22,9.67,-9.67,-9.00,0.55,0.55,0.55
46,10.18,9.64,10.18,9.64,-9.64,-8.96,0.53,0.54,0.54
47,10.14,9.62,10.14,9.62,-9.62,-8.96,0.52,0.52,0.52
48,10.10,9.59,10.09,9.59,-9.59,-8.99,0.51,0.50,0.50
49,10.05,9.56,10.05,9.56,-9.56,-9.03,0.49,0.49,0.49
50,10.00,9.53,9.99,9.53,-9.53,-9.10,0.47,0.47,0.47
51,9.95,9.50,9.94,9.49,-9.49,-9.19,0.46,0.45,0.45
52,9.89,9.46,9.88,9.46,-9.46,-9.28,0.43,0.43,0.43
53,9.83,9.42,9.82,9.42,-9.42,-9.39,0.41,0.40,0.40
54,9.77,9.38,9.76,9.38,-9.38,-9.49,0.39,0.38,0.38
55,9.70,9.34,9.69,9.34,-9.34,-9.60,0.36,0.35,0.36
56,9.63,9.29,9.62,9.30,-9.30,-9.70,0.33,0.33,0.33
57,9.55,9.24,9.56,9.25,-9.25,-9.78,0.29,0.30,0.31
58,9.48,9.19,9.49,9.21,-9.21,-9.85,0.26,0.28,0.28
59,9.40,9.14,9.42,9.17,-9.17,-9.91,0.23,0.25,0.26
60,9.33,9.10,9.35,9.12,-9.12,-9.93,0.20,0.22,0.23
61,9.26,9.06,9.27,9.08,-9.08,-9.94,0.18,0.19,0.20
62,9.19,9.02,9.20,9.03,-9.03,-9.92,0.15,0.16,0.17
63,9.13,8.99,9.12,8.98,-8.98,-9.87,0.14,0.13,0.14
64,9.07,8.96,9.03,8.93,-8.93,-9.80,0.13,0.10,0.11
65,8.99,8.91,8.95,8.88,-8.88,-9.71,0.10,0.07,0.07
66,8.89,8.85,8.86,8.83,-8.83,-9.60,0.06,0.03,0.04
67,8.79,8.78,8.78,8.77,-8.77,-9.47,0.01,0.00,0.01
68,8.69,8.71,8.69,8.72,-8.72,-9.33,-0.03,-0.03,-0.03
69,8.58,8.64,8.59,8.66,-8.66,-9.18,-0.08,-0.07,-0.06
70,8.48,8.58,8.50,8.60,-8.60,-9.02,-0.12,-0.10,-0.10
71,8.38,8.51,8.40,8.54,-8.54,-8.86,-0.16,-0.14,-0.13
72,8.29,8.46,8.30,8.48,-8.48,-8.70,-0.19,-0.18,-0.17
73,8.20,8.41,8.21,8.42,-8.42,-8.53,-0.23,-0.22,-0.21
74,8.12,8.37,8.11,8.37,-8.37,-8.37,-0.25,-0.26,-0.25
75,8.03,8.31,8.02,8.31,-8.31,-8.21,-0.28,-0.29,-0.29
76,7.94,8.26,7.93,8.26,-8.26,-8.06,-0.32,-0.33,-0.33
77,7.84,8.20,7.84,8.20,-8.20,-7.92,-0.37,-0.37,-0.37
78,7.74,8.14,7.75,8.15,-8.15,-7.78,-0.42,-0.41,-0.41
79,7.65,8.09,7.66,8.10,-8.10,-7.65,-0.45,-0.45,-0.45
80,7.57,8.05,7.57,8.05,-8.05,-7.52,-0.48,-0.49,-0.49
81,7.49,8.02,7.48,8.00,-8.00,-7.41,-0.52,-0.53,-0.53
82,7.39,7.96,7.39,7.95,-7.95,-7.30,-0.57,-0.57,-0.57
83,7.30,7.91,7.29,7.91,-7.91,-7.20,-0.61,-0.61,-0.61
84,7.21,7.86,7.20,7.86,-7.86,-7.11,-0.65,-0.65,-0.65
85,7.12,7.81,7.12,7.81,-7.81,-7.03,-0.69,-0.69,-0.69
86,7.02,7.75,7.03,7.76,-7.76,-6.95,-0.75,-0.74,-0.74
87,6.94,7.71,6.94,7.72,-7.72,-6.88,-0.78,-0.78,-0.78
88,6.85,7.67,6.85,7.67,-7.67,-6.82,-0.82,-0.82,-0.82
89,6.77,7.63,6.76,7.63,-7.63,-6.77,-0.86,-0.86,-0.86
90,6.68,7.58,6.68,7.58,-7.58,-6.72,-0.90,-0.90,-0.90
91,6.59,7.53,6.59,7.54,-7.54,-6.68,-0.95,-0.95,-0.94
92,6.51,7.49,6.51,7.49,-7.49,-6.65,-0.99,-0.99,-0.98
93,6.42,7.44,6.43,7.45,-7.45,-6.62,-1.03,-1.02,-1.02
94,6.34,7.40,6.35,7.41,-7.41,-6.60,-1.07,-1.06,-1.07
95,6.25,7.35,6.26,7.36,-7.36,-6.58,-1.11,-1.10,-1.11
96,6.17,7.31,6.17,7.31,-7.31,-6.57,-1.15,-1.14,-1.15
97,6.10,7.28,6.08,7.27,-7.27,-6.56,-1.17,-1.19,-1.19
98,6.01,7.23,5.98,7.22,-7.22,-6.56,-1.21,-1.23,-1.22
99,5.92,7.18,5.89,7.17,-7.17,-6.56,-1.25,-1.28,-1.26
100,5.83,7.13,5.80,7.12,-7.12,-6.57,-1.29,-1.32,-1.30
101,5.74,7.08,5.71,7.07,-7.07,-6.57,-1.33,-1.36,-1.34
102,5.64,7.02,5.62,7.02,-7.02,-6.58,-1.38,-1.40,-1.38
104,5.47,6.92,5.53,6.97,-6.97,-6.61,-1.51,-1.45,-1.45
105,5.39,6.88,5.44,6.93,-6.93,-6.63,-1.54,-1.49,-1.49
106,5.32,6.84,5.36,6.88,-6.88,-6.65,-1.56,-1.52,-1.53
107,5.25,6.81,5.27,6.84,-6.84,-6.66,-1.59,-1.56,-1.56
108,5.19,6.78,5.19,6.79,-6.79,-6.68,-1.60,-1.60,-1.60
109,5.13,6.76,5.11,6.75,-6.75,-6.70,-1.62,-1.64,-1.63
110,5.05,6.71,5.03,6.70,-6.70,-6.72,-1.66,-1.68,-1.66
111,4.98,6.67,4.95,6.66,-6.66,-6.73,-1.68,-1.71,-1.70
112,4.90,6.63,4.87,6.62,-6.62,-6.75,-1.72,-1.74,-1.73
113,4.83,6.59,4.80,6.58,-6.58,-6.76,-1.75,-1.78,-1.76
114,4.75,6.54,4.72,6.53,-6.53,-6.77,-1.79,-1.81,-1.79
115,4.68,6.50,4.65,6.49,-6.49,-6.78,-1.81,-1.84,-1.82
117,4.52,6.40,4.57,6.45,-6.45,-6.79,-1.93,-1.88,-1.89
118,4.44,6.35,4.49,6.40,-6.40,-6.78,-1.96,-1.91,-1.91
119,4.37,6.31,4.40,6.35,-6.35,-6.78,-1.99,-1.95,-1.94
120,4.32,6.29,4.33,6.31,-6.31,-6.77,-1.99,-1.98,-1.97
121,4.26,6.26,4.24,6.26,-6.26,-6.76,-2.00,-2.02,-2.00
123,4.15,6.20,4.16,6.21,-6.21,-6.72,-2.06,-2.05,-2.05
124,4.11,6.19,4.08,6.16,-6.16,-6.70,-2.06,-2.09,-2.08
125,4.04,6.14,3.99,6.11,-6.11,-6.67,-2.08,-2.12,-2.11
126,3.97,6.10,3.91,6.06,-6.06,-6.64,-2.10,-2.15,-2.13
128,3.82,6.00,3.84,6.01,-6.01,-6.57,-2.20,-2.18,-2.18
129,3.74,5.94,3.76,5.96,-5.96,-6.53,-2.22,-2.20,-2.20
130,3.65,5.87,3.68,5.91,-5.91,-6.48,-2.26,-2.23,-2.23
131,3.59,5.83,3.59,5.85,-5.85,-6.43,-2.26,-2.26,-2.25
133,3.46,5.75,3.50,5.80,-5.80,-6.33,-2.34,-2.29,-2.29
134,3.41,5.72,3.42,5.74,-5.74,-6.27,-2.33,-2.32,-2.31
135,3.37,5.70,3.33,5.68,-5.68,-6.21,-2.31,-2.35,-2.33
137,3.27,5.64,3.24,5.62,-5.62,-6.09,-2.36,-2.38,-2.37
138,3.20,5.59,3.16,5.57,-5.57,-6.02,-2.37,-2.41,-2.39
140,3.07,5.50,3.08,5.51,-5.51,-5.89,-2.44,-2.43,-2.43
141,3.00,5.44,3.00,5.45,-5.45,-5.82,-2.46,-2.45,-2.45
142,2.93,5.39,2.92,5.40,-5.40,-5.75,-2.47,-2.47,-2.46
144,2.81,5.31,2.84,5.34,-5.34,-5.61,-2.53,-2.50,-2.50
145,2.75,5.26,2.76,5.28,-5.28,-5.54,-2.53,-2.52,-2.51
147,2.65,5.19,2.68,5.22,-5.22,-5.41,-2.58,-2.54,-2.55
148,2.61,5.17,2.59,5.16,-5.16,-5.34,-2.56,-2.57,-2.56
150,2.52,5.11,2.51,5.10,-5.10,-5.20,-2.59,-2.60,-2.59
151,2.47,5.07,2.43,5.04,-5.04,-5.13,-2.58,-2.62,-2.61
153,2.36,4.99,2.35,4.98,-4.98,-5.00,-2.63,-2.64,-2.63
154,2.29,4.93,2.27,4.92,-4.92,-4.94,-2.64,-2.66,-2.65
156,2.17,4.84,2.19,4.86,-4.86,-4.81,-2.70,-2.68,-2.67
157,2.11,4.79,2.11,4.81,-4.81,-4.75,-2.70,-2.69,-2.68
159,2.00,4.70,2.04,4.75,-4.75,-4.63,-2.75,-2.71,-2.71
160,1.95,4.67,1.96,4.69,-4.69,-4.57,-2.74,-2.73,-2.72
162,1.87,4.61,1.88,4.63,-4.63,-4.45,-2.76,-2.75,-2.74
164,1.80,4.56,1.80,4.57,-4.57,-4.35,-2.77,-2.76,-2.76
165,1.75,4.52,1.73,4.50,-4.50,-4.29,-2.76,-2.78,-2.77
167,1.67,4.46,1.65,4.44,-4.44,-4.19,-2.78,-2.80,-2.79
169,1.57,4.38,1.57,4.38,-4.38,-4.10,-2.81,-2.81,-2.81
170,1.53,4.35,1.49,4.32,-4.32,-4.05,-2.79,-2.83,-2.82
172,1.42,4.25,1.41,4.25,-4.25,-3.96,-2.84,-2.84,-2.84
174,1.32,4.17,1.33,4.19,-4.19,-3.87,-2.87,-2.86,-2.85
175,1.28,4.14,1.25,4.13,-4.13,-3.83,-2.85,-2.87,-2.86
177,1.18,4.05,1.18,4.06,-4.06,-3.76,-2.89,-2.89,-2.88
179,1.08,3.97,1.10,4.00,-4.00,-3.68,-2.92,-2.90,-2.89
181,0.99,3.89,1.03,3.94,-3.94,-3.61,-2.95,-2.91,-2.91
183,0.91,3.83,0.95,3.87,-3.87,-3.55,-2.97,-2.92,-2.92
184,0.87,3.79,0.88,3.81,-3.81,-3.52,-2.94,-2.94,-2.93
186,0.81,3.75,0.80,3.75,-3.75,-3.46,-2.94,-2.95,-2.94
188,0.76,3.71,0.73,3.68,-3.68,-3.40,-2.93,-2.96,-2.95
190,0.69,3.65,0.65,3.62,-3.62,-3.35,-2.93,-2.97,-2.96
192,0.61,3.58,0.58,3.56,-3.56,-3.30,-2.95,-2.98,-2.97
194,0.53,3.51,0.50,3.49,-3.49,-3.25,-2.97,-2.99,-2.98
196,0.44,3.43,0.43,3.43,-3.43,-3.21,-2.99,-3.00,-2.99
198,0.35,3.35,0.36,3.37,-3.37,-3.17,-3.02,-3.01,-3.00
200,0.27,3.28,0.28,3.30,-3.30,-3.13,-3.04,-3.02,-3.01
202,0.19,3.21,0.21,3.24,-3.24,-3.10,-3.05,-3.03,-3.02
204,0.12,3.15,0.14,3.18,-3.18,-3.07,-3.06,-3.04,-3.03
206,0.06,3.10,0.07,3.12,-3.12,-3.04,-3.07,-3.05,-3.04
208,-0.00,3.04,0.01,3.07,-3.07,-3.01,-3.07,-3.06,-3.05
210,-0.05,3.00,-0.05,3.01,-3.01,-2.98,-3.06,-3.06,-3.05
212,-0.11,2.95,-0.11,2.96,-2.96,-2.96,-3.07,-3.07,-3.06
214,-0.15,2.91,-0.17,2.91,-2.91,-2.93,-3.06,-3.07,-3.07
216,-0.20,2.87,-0.22,2.86,-2.86,-2.91,-3.06,-3.08,-3.07
218,-0.24,2.84,-0.28,2.81,-2.81,-2.89,-3.05,-3.09,-3.08
221,-0.31,2.78,-0.33,2.76,-2.76,-2.86,-3.07,-3.09,-3.09
223,-0.38,2.71,-0.39,2.71,-2.71,-2.85,-3.10,-3.10,-3.10
225,-0.43,2.67,-0.44,2.67,-2.67,-2.83,-3.10,-3.11,-3.10
227,-0.49,2.61,-0.49,2.62,-2.62,-2.82,-3.12,-3.11,-3.11
229,-0.54,2.57,-0.54,2.58,-2.58,-2.80,-3.13,-3.12,-3.11
232,-0.61,2.51,-0.58,2.54,-2.54,-2.78,-3.16,-3.13,-3.12
234,-0.65,2.47,-0.62,2.51,-2.51,-2.77,-3.16,-3.13,-3.12
236,-0.68,2.44,-0.66,2.47,-2.47,-2.76,-3.15,-3.14,-3.13
239,-0.71,2.42,-0.70,2.44,-2.44,-2.74,-3.15,-3.14,-3.13
241,-0.73,2.40,-0.73,2.41,-2.41,-2.73,-3.14,-3.14,-3.14
244,-0.76,2.38,-0.77,2.38,-2.38,-2.72,-3.14,-3.15,-3.14
246,-0.77,2.37,-0.80,2.35,-2.35,-2.71,-3.12,-3.15,-3.15
248,-0.79,2.36,-0.83,2.33,-2.33,-2.70,-3.12,-3.15,-3.15
251,-0.83,2.32,-0.86,2.30,-2.30,-2.68,-3.14,-3.16,-3.16
253,-0.85,2.31,-0.88,2.28,-2.28,-2.67,-3.14,-3.17,-3.16
256,-0.89,2.27,-0.91,2.26,-2.26,-2.66,-3.16,-3.17,-3.16
259,-0.93,2.23,-0.93,2.25,-2.25,-2.65,-3.18,-3.18,-3.17
261,-0.96,2.21,-0.94,2.24,-2.24,-2.64,-3.20,-3.18,-3.17
264,-0.98,2.19,-0.96,2.23,-2.23,-2.63,-3.22,-3.19,-3.17
266,-0.99,2.18,-0.96,2.23,-2.23,-2.62,-3.23,-3.19,-3.18
269,-0.99,2.19,-0.96,2.24,-2.24,-2.61,-3.23,-3.20,-3.18
272,-0.97,2.21,-0.95,2.25,-2.25,-2.60,-3.22,-3.20,-3.18
274,-0.95,2.23,-0.93,2.27,-2.27,-2.60,-3.22,-3.20,-3.19
277,-0.92,2.27,-0.91,2.29,-2.29,-2.59,-3.21,-3.20,-3.19
280,-0.88,2.31,-0.89,2.31,-2.31,-2.58,-3.19,-3.20,-3.19
283,-0.84,2.35,-0.86,2.34,-2.34,-2.58,-3.18,-3.20,-3.19
286,-0.80,2.39,-0.84,2.36,-2.36,-2.57,-3.17,-3.20,-3.20
288,-0.78,2.42,-0.81,2.39,-2.39,-2.57,-3.17,-3.20,-3.20
291,-0.76,2.44,-0.79,2.41,-2.41,-2.57,-3.18,-3.20,-3.20
294,-0.74,2.46,-0.77,2.43,-2.43,-2.57,-3.18,-3.20,-3.20
297,-0.73,2.47,-0.75,2.46,-2.46,-2.57,-3.19,-3.21,-3.21
300,-0.73,2.48,-0.73,2.48,-2.48,-2.57,-3.21,-3.21,-3.21
303,-0.72,2.49,-0.72,2.50,-2.50,-2.57,-3.22,-3.21,-3.21
306,-0.71,2.50,-0.70,2.51,-2.51,-2.58,-3.23,-3.22,-3.21
309,-0.70,2.51,-0.69,2.53,-2.53,-2.59,-3.24,-3.22,-3.21
312,-0.68,2.53,-0.67,2.56,-2.56,-2.59,-3.24,-3.22,-3.22
316,-0.65,2.57,-0.64,2.58,-2.58,-2.61,-3.23,-3.23,-3.22
319,-0.62,2.60,-0.62,2.61,-2.61,-2.62,-3.23,-3.23,-3.22
322,-0.58,2.64,-0.58,2.65,-2.65,-2.63,-3.23,-3.23,-3.22
325,-0.54,2.68,-0.54,2.69,-2.69,-2.65,-3.23,-3.23,-3.22
328,-0.50,2.72,-0.50,2.73,-2.73,-2.66,-3.24,-3.23,-3.22
332,-0.44,2.78,-0.45,2.78,-2.78,-2.69,-3.23,-3.23,-3.23
335,-0.39,2.83,-0.39,2.84,-2.84,-2.71,-3.23,-3.23,-3.23
338,-0.34,2.89,-0.33,2.90,-2.90,-2.73,-3.24,-3.23,-3.23
342,-0.26,2.97,-0.27,2.96,-2.96,-2.76,-3.22,-3.23,-3.23
345,-0.20,3.03,-0.20,3.03,-3.03,-2.79,-3.23,-3.23,-3.23
349,-0.12,3.11,-0.13,3.10,-3.10,-2.82,-3.22,-3.23,-3.23
352,-0.06,3.17,-0.06,3.17,-3.17,-2.85,-3.24,-3.23,-3.23
356,0.03,3.26,0.01,3.25,-3.25,-2.89,-3.22,-3.24,-3.23
359,0.09,3.32,0.09,3.33,-3.33,-2.92,-3.24,-3.24,-3.24
363,0.18,3.41,0.17,3.41,-3.41,-2.97,-3.23,-3.24,-3.24
366,0.25,3.48,0.25,3.49,-3.49,-3.00,-3.25,-3.24,-3.24
370,0.34,3.58,0.34,3.58,-3.58,-3.05,-3.25,-3.24,-3.24
374,0.43,3.67,0.43,3.67,-3.67,-3.10,-3.25,-3.24,-3.24
377,0.51,3.75,0.52,3.76,-3.76,-3.14,-3.26,-3.24,-3.24
381,0.61,3.85,0.61,3.86,-3.86,-3.19,-3.25,-3.24,-3.24
385,0.71,3.95,0.71,3.96,-3.96,-3.24,-3.25,-3.25,-3.24
389,0.81,4.05,0.81,4.05,-4.05,-3.30,-3.25,-3.25,-3.24
393,0.91,4.15,0.91,4.15,-4.15,-3.35,-3.25,-3.25,-3.24
397,1.01,4.25,1.01,4.25,-4.25,-3.41,-3.25,-3.25,-3.24
401,1.11,4.35,1.11,4.35,-4.35,-3.46,-3.25,-3.25,-3.25
405,1.21,4.45,1.21,4.45,-4.45,-3.52,-3.25,-3.25,-3.25
409,1.31,4.55,1.30,4.55,-4.55,-3.58,-3.24,-3.25,-3.25
413,1.40,4.64,1.40,4.65,-4.65,-3.64,-3.25,-3.25,-3.25
417,1.49,4.74,1.49,4.74,-4.74,-3.69,-3.25,-3.25,-3.25
421,1.58,4.83,1.58,4.83,-4.83,-3.75,-3.26,-3.25,-3.25
425,1.66,4.91,1.66,4.92,-4.92,-3.80,-3.26,-3.26,-3.25
430,1.76,5.01,1.74,5.00,-5.00,-3.87,-3.25,-3.26,-3.25
434,1.83,5.08,1.82,5.08,-5.08,-3.92,-3.26,-3.26,-3.25
438,1.89,5.14,1.89,5.16,-5.16,-3.97,-3.27,-3.26,-3.25
443,1.96,5.21,1.96,5.22,-5.22,-4.02,-3.27,-3.26,-3.25
447,2.00,5.25,2.03,5.28,-5.28,-4.07,-3.28,-3.25,-3.25
451,2.04,5.28,2.08,5.33,-5.33,-4.11,-3.29,-3.25,-3.25
456,2.10,5.34,2.12,5.36,-5.36,-4.15,-3.26,-3.24,-3.24
460,2.14,5.37,2.15,5.38,-5.38,-4.19,-3.24,-3.23,-3.23
465,2.18,5.40,2.16,5.38,-5.38,-4.22,-3.21,-3.23,-3.23
470,2.20,5.41,2.15,5.37,-5.37,-4.25,-3.17,-3.22,-3.22
474,2.19,5.39,2.13,5.34,-5.34,-4.27,-3.15,-3.21,-3.21
479,2.15,5.34,2.09,5.29,-5.29,-4.28,-3.14,-3.20,-3.20
484,2.08,5.26,2.04,5.22,-5.22,-4.29,-3.14,-3.19,-3.18
489,1.97,5.14,1.96,5.14,-5.14,-4.30,-3.17,-3.17,-3.17
494,1.87,5.02,1.88,5.03,-5.03,-4.29,-3.17,-3.16,-3.16
499,1.75,4.89,1.77,4.91,-4.91,-4.28,-3.17,-3.14,-3.14
504,1.62,4.74,1.65,4.78,-4.78,-4.26,-3.16,-3.13,-3.13
509,1.50,4.61,1.52,4.63,-4.63,-4.24,-3.14,-3.12,-3.11
514,1.37,4.46,1.37,4.47,-4.47,-4.21,-3.11,-3.10,-3.09
519,1.23,4.30,1.22,4.30,-4.30,-4.17,-3.07,-3.08,-3.07
524,1.08,4.13,1.06,4.12,-4.12,-4.13,-3.05,-3.06,-3.06
529,0.92,3.95,0.90,3.94,-3.94,-4.08,-3.02,-3.04,-3.04
535,0.73,3.74,0.73,3.75,-3.75,-4.02,-3.02,-3.02,-3.02
540,0.56,3.55,0.56,3.55,-3.55,-3.96,-3.00,-3.00,-3.00
545,0.40,3.37,0.38,3.35,-3.35,-3.90,-2.96,-2.97,-2.97
551,0.19,3.14,0.20,3.15,-3.15,-3.82,-2.96,-2.95,-2.95
556,0.03,2.95,0.03,2.95,-2.95,-3.75,-2.92,-2.92,-2.92
562,-0.16,2.73,-0.15,2.74,-2.74,-3.67,-2.91,-2.90,-2.90
568,-0.35,2.52,-0.33,2.54,-2.54,-3.58,-2.89,-2.87,-2.87
573,-0.49,2.35,-0.50,2.34,-2.34,-3.51,-2.84,-2.84,-2.84
579,-0.67,2.14,-0.67,2.15,-2.15,-3.41,-2.82,-2.82,-2.81
585,-0.83,1.95,-0.83,1.95,-1.95,-3.32,-2.79,-2.79,-2.78
591,-0.99,1.76,-0.99,1.77,-1.77,-3.23,-2.76,-2.76,-2.75
596,-1.12,1.60,-1.13,1.59,-1.59,-3.15,-2.72,-2.73,-2.72
602,-1.26,1.42,-1.27,1.42,-1.42,-3.05,-2.69,-2.69,-2.69
608,-1.39,1.26,-1.40,1.26,-1.26,-2.96,-2.66,-2.66,-2.66
615,-1.53,1.09,-1.52,1.11,-1.11,-2.85,-2.65,-2.63,-2.62
621,-1.64,0.95,-1.63,0.97,-0.97,-2.76,-2.62,-2.60,-2.59
627,-1.73,0.83,-1.72,0.84,-0.84,-2.67,-2.58,-2.57,-2.56
633,-1.82,0.71,-1.81,0.72,-0.72,-2.58,-2.55,-2.53,-2.53
639,-1.88,0.61,-1.89,0.61,-0.61,-2.49,-2.50,-2.50,-2.50
646,-1.95,0.51,-1.95,0.52,-0.52,-2.39,-2.47,-2.47,-2.46
652,-1.99,0.44,-2.00,0.43,-0.43,-2.30,-2.42,-2.43,-2.43
659,-2.04,0.35,-2.04,0.36,-0.36,-2.21,-2.40,-2.40,-2.40
665,-2.07,0.29,-2.07,0.29,-0.29,-2.13,-2.37,-2.36,-2.36
672,-2.08,0.24,-2.08,0.24,-0.24,-2.03,-2.33,-2.33,-2.33
679,-2.08,0.21,-2.09,0.20,-0.20,-1.94,-2.29,-2.29,-2.29
686,-2.07,0.18,-2.08,0.18,-0.18,-1.85,-2.25,-2.26,-2.25
692,-2.05,0.16,-2.06,0.16,-0.16,-1.78,-2.22,-2.22,-2.21
699,-2.03,0.14,-2.02,0.16,-0.16,-1.69,-2.19,-2.19,-2.17
706,-1.98,0.15,-1.98,0.17,-0.17,-1.61,-2.16,-2.15,-2.14
713,-1.93,0.16,-1.91,0.19,-0.19,-1.53,-2.13,-2.11,-2.10
721,-1.86,0.20,-1.84,0.23,-0.23,-1.44,-2.09,-2.07,-2.06
728,-1.78,0.24,-1.76,0.27,-0.27,-1.37,-2.06,-2.03,-2.02
735,-1.68,0.30,-1.66,0.33,-0.33,-1.29,-2.01,-1.99,-1.98
742,-1.57,0.37,-1.56,0.39,-0.39,-1.22,-1.96,-1.95,-1.94
750,-1.44,0.46,-1.45,0.45,-0.45,-1.14,-1.90,-1.91,-1.90
757,-1.32,0.54,-1.34,0.53,-0.53,-1.07,-1.85,-1.87,-1.86
765,-1.20,0.62,-1.22,0.61,-0.61,-1.00,-1.81,-1.83,-1.82
773,-1.07,0.71,-1.10,0.69,-0.69,-0.92,-1.76,-1.79,-1.79
780,-0.97,0.78,-0.98,0.77,-0.77,-0.86,-1.74,-1.75,-1.75
788,-0.85,0.86,-0.87,0.85,-0.85,-0.79,-1.70,-1.72,-1.71
796,-0.74,0.94,-0.75,0.93,-0.93,-0.72,-1.68,-1.68,-1.68
804,-0.63,1.01,-0.63,1.01,-1.01,-0.65,-1.65,-1.65,-1.65
812,-0.52,1.09,-0.52,1.10,-1.10,-0.58,-1.62,-1.61,-1.61
820,-0.42,1.16,-0.41,1.17,-1.17,-0.52,-1.60,-1.58,-1.58
828,-0.33,1.22,-0.30,1.25,-1.25,-0.46,-1.58,-1.55,-1.55
837,-0.21,1.30,-0.20,1.32,-1.32,-0.39,-1.53,-1.52,-1.52
845,-0.11,1.37,-0.10,1.39,-1.39,-0.33,-1.50,-1.49,-1.49
853,-0.01,1.44,-0.01,1.45,-1.45,-0.27,-1.47,-1.46,-1.46
862,0.10,1.52,0.08,1.51,-1.51,-0.20,-1.41,-1.43,-1.43
871,0.19,1.58,0.16,1.56,-1.56,-0.14,-1.38,-1.40,-1.40
879,0.26,1.62,0.24,1.61,-1.61,-0.08,-1.35,-1.37,-1.37
888,0.31,1.65,0.30,1.64,-1.64,-0.02,-1.34,-1.34,-1.34
897,0.35,1.66,0.36,1.67,-1.67,0.04,-1.32,-1.31,-1.31
906,0.40,1.68,0.40,1.68,-1.68,0.10,-1.29,-1.28,-1.28
915,0.42,1.67,0.44,1.69,-1.69,0.16,-1.27,-1.25,-1.26
924,0.44,1.67,0.45,1.68,-1.68,0.22,-1.24,-1.22,-1.23
933,0.45,1.65,0.45,1.65,-1.65,0.28,-1.20,-1.20,-1.20
943,0.45,1.62,0.44,1.61,-1.61,0.34,-1.16,-1.17,-1.18
952,0.43,1.58,0.40,1.55,-1.55,0.40,-1.12,-1.15,-1.15
962,0.38,1.50,0.35,1.47,-1.47,0.46,-1.09,-1.12,-1.13
971,0.32,1.42,0.28,1.38,-1.38,0.52,-1.06,-1.09,-1.10
981,0.23,1.30,0.20,1.27,-1.27,0.58,-1.04,-1.07,-1.07
991,0.12,1.16,0.10,1.14,-1.14,0.64,-1.02,-1.04,-1.05
1001,-0.01,1.01,-0.02,0.99,-0.99,0.70,-1.01,-1.01,-1.02
1011,-0.15,0.84,-0.15,0.83,-0.83,0.76,-0.99,-0.99,-0.99
1021,-0.31,0.65,-0.30,0.66,-0.66,0.82,-0.97,-0.96,-0.96
1031,-0.47,0.47,-0.46,0.47,-0.47,0.88,-0.94,-0.93,-0.94
1041,-0.64,0.27,-0.63,0.27,-0.27,0.93,-0.91,-0.91,-0.91
1052,-0.83,0.05,-0.82,0.06,-0.06,1.00,-0.90,-0.88,-0.88
1062,-1.00,-0.15,-1.01,-0.15,0.15,1.06,-0.85,-0.85,-0.85
1073,-1.19,-0.37,-1.20,-0.37,0.37,1.12,-0.82,-0.83,-0.82
1084,-1.39,-0.60,-1.40,-0.60,0.60,1.19,-0.80,-0.80,-0.80
1094,-1.57,-0.81,-1.60,-0.82,0.82,1.24,-0.75,-0.78,-0.77
1105,-1.78,-1.05,-1.80,-1.05,1.05,1.31,-0.74,-0.75,-0.74
1116,-1.99,-1.29,-1.99,-1.27,1.27,1.37,-0.72,-0.72,-0.70
1128,-2.21,-1.54,-2.18,-1.49,1.49,1.45,-0.72,-0.69,-0.67
1139,-2.41,-1.77,-2.37,-1.71,1.71,1.51,-0.70,-0.66,-0.64
1150,-2.59,-1.98,-2.55,-1.93,1.93,1.58,-0.66,-0.62,-0.61
1162,-2.78,-2.21,-2.74,-2.15,2.15,1.65,-0.63,-0.58,-0.58
1173,-2.94,-2.40,-2.91,-2.37,2.37,1.72,-0.58,-0.55,-0.55
1185,-3.09,-2.58,-3.09,-2.58,2.58,1.79,-0.52,-0.52,-0.51
1197,-3.24,-2.76,-3.27,-2.78,2.78,1.87,-0.46,-0.49,-0.48
1209,-3.39,-2.94,-3.45,-2.99,2.99,1.94,-0.41,-0.46,-0.45
1221,-3.55,-3.13,-3.62,-3.19,3.19,2.02,-0.37,-0.43,-0.42
1233,-3.72,-3.34,-3.79,-3.38,3.38,2.10,-0.34,-0.41,-0.39
1246,-3.91,-3.56,-3.95,-3.57,3.57,2.18,-0.34,-0.38,-0.35
1258,-4.10,-3.78,-4.10,-3.76,3.76,2.26,-0.35,-0.35,-0.32
1271,-4.29,-4.01,-4.25,-3.93,3.93,2.35,-0.36,-0.31,-0.29
1283,-4.44,-4.19,-4.38,-4.10,4.10,2.43,-0.34,-0.28,-0.25
1296,-4.60,-4.39,-4.51,-4.26,4.26,2.52,-0.34,-0.24,-0.22
1309,-4.70,-4.52,-4.63,-4.42,4.42,2.61,-0.29,-0.21,-0.18
1322,-4.79,-4.65,-4.74,-4.56,4.56,2.71,-0.23,-0.17,-0.14
1335,-4.85,-4.75,-4.84,-4.71,4.71,2.80,-0.15,-0.13,-0.11
1349,-4.90,-4.83,-4.93,-4.84,4.84,2.90,-0.06,-0.09,-0.07
1362,-4.96,-4.93,-5.02,-4.98,4.98,3.00,0.01,-0.05,-0.03
1376,-5.03,-5.04,-5.11,-5.11,5.11,3.10,0.07,-0.00,0.00
1390,-5.13,-5.18,-5.19,-5.24,5.24,3.21,0.11,0.05,0.04
1404,-5.24,-5.32,-5.28,-5.37,5.37,3.32,0.13,0.09,0.08
1418,-5.35,-5.47,-5.37,-5.50,5.50,3.43,0.15,0.13,0.12
1432,-5.46,-5.62,-5.47,-5.63,5.63,3.54,0.16,0.16,0.16
1446,-5.56,-5.76,-5.57,-5.76,5.74,3.66,0.18,0.17,0.20
1461,-5.68,-5.92,-5.67,-5.88,5.83,3.78,0.15,0.17,0.24
1475,-5.76,-6.04,-5.76,-6.00,5.90,3.90,0.14,0.14,0.28
1490,-5.85,-6.17,-5.85,-6.12,5.95,4.02,0.10,0.10,0.31
1505,-5.94,-6.30,-5.93,-6.23,5.98,4.15,0.04,0.05,0.35
1520,-6.02,-6.42,-6.00,-6.34,6.00,4.28,-0.02,-0.00,0.40
1535,-6.08,-6.52,-6.06,-6.43,6.00,4.41,-0.08,-0.06,0.44
1550,-6.13,-6.61,-6.10,-6.52,6.00,4.54,-0.13,-0.10,0.48
1566,-6.15,-6.68,-6.13,-6.59,6.00,4.68,-0.15,-0.13,0.52
1582,-6.16,-6.73,-6.14,-6.66,6.00,4.83,-0.16,-0.14,0.57
1597,-6.15,-6.77,-6.14,-6.71,6.00,4.96,-0.15,-0.14,0.61
1613,-6.13,-6.79,-6.13,-6.75,6.00,5.10,-0.13,-0.13,0.66
1629,-6.11,-6.82,-6.11,-6.78,6.00,5.24,-0.11,-0.11,0.70
1646,-6.08,-6.83,-6.08,-6.80,6.00,5.39,-0.08,-0.08,0.75
1662,-6.04,-6.84,-6.04,-6.82,6.00,5.53,-0.04,-0.04,0.80
1679,-6.00,-6.85,-6.00,-6.83,6.00,5.68,-0.00,0.00,0.84
1696,-5.95,-6.84,-5.95,-6.84,6.00,5.82,0.05,0.05,0.89
