frequency,raw,error,smoothed,error_smoothed,equalization,equalized_raw,equalized_smoothed,target
20,-7.542405131371761,-8.32829133221763,-7.54312626743716,-8.328997121056892,5.999999999999999,-1.542405131371762,-1.5431262674371613,0.785886200845868
21,-7.0904600644774645,-7.876327313085746,-7.135590425726889,-7.921460028586779,6.0,-1.0904600644774645,-1.135590425726889,0.7858672486082812
22,-6.848681100528671,-7.634523557165104,-6.748764144429883,-7.534618915471172,5.999999999999998,-0.8486811005286725,-0.7487641444298845,0.7858424566364333
23,-6.3655080348678545,-7.1513184535693135,-6.382647423546141,-7.16847378171007,5.999999999999999,-0.36550803486785544,-0.3826474235461417,0.7858104187014585
24,-5.961179484161285,-6.746948959815418,-6.037240263075658,-6.823024627303468,6.0,0.03882051583871515,-0.037240263075657865,0.7857694756541327
25,-5.7360209160267654,-6.521738600005431,-5.713350408224189,-6.499080673791834,5.953914351325482,0.2178934352987163,0.24056394310129292,0.7857176839786661
26,-5.424935568695313,-6.210588350744421,-5.410018970357595,-6.195681577975125,5.859688440656768,0.4347528719614555,0.44966947029917304,0.7856527820491079
27,-5.116461444234908,-5.902033598272448,-5.12637622270463,-5.911956044432853,5.723010990910735,0.6065495466758275,0.5966347682061048,0.7855721540375402
28,-4.844332393114408,-5.62980518454312,-4.861241749831188,-5.646721074106756,5.557619277579463,0.7132868844650551,0.6963775277482753,0.785472791428711
29,-4.604179804096369,-5.389531056197821,-4.613281775221807,-5.398639270858419,5.371408096364934,0.7672282922685651,0.7581263211431271,0.7853512521014525
30,-4.402986621910831,-5.188190238855842,-4.38146656937937,-5.166676826244833,5.166676826244834,0.7636902043340035,0.7852102568654642,0.7852036169450121
31,-4.230197094152122,-5.015222538138941,-4.16492402704789,-4.949956889562685,4.949956889562685,0.719759795410563,0.7850328625147949,0.785025443986819
32,-3.94007989939535,-4.7248916194139365,-3.9629069629380202,-4.747727021910456,4.747727021910455,0.807647122515105,0.7848200589724348,0.784811720018586
33,-3.740919881218902,-4.525476690938683,-3.7745715383663767,-4.55913762154926,4.559137621549259,0.8182177403303568,0.7845660831828822,0.7845568097197813
34,-3.50245353811476,-4.286707940406574,-3.5986898998272174,-4.382954458548589,4.382954458548589,0.8805009204338292,0.7842645587213717,0.7842544022918139
35,-3.511882338637279,-4.295779794270359,-3.4335008354277807,-4.21740928172915,4.21740928172915,0.7055269430918711,0.7839084463013695,0.7838974556330802
36,-3.2934528453549214,-4.076930983459555,-3.276712942967162,-4.060202884034256,4.060202884034256,0.7667500386793344,0.7834899410670939,0.7834781381046327
37,-3.0746635130737507,-3.8576512810328145,-3.1257336218381617,-3.9087340094842924,3.9087340094842924,0.8340704964105417,0.7830003876461307,0.7829877679590638
38,-3.0348280293837884,-3.8172447799154643,-2.9780729240288535,-3.7605031342650985,3.7605031342650976,0.7256751048813093,0.7824302102362442,0.7824167505316759
39,-2.860233859683408,-3.6419883730068663,-2.8317996351226853,-3.613568477081718,3.613568477081718,0.75333461739831,0.7817688419590327,0.7817545133234582
40,-2.634779364039228,-3.4157688031796645,-2.6859169824818334,-3.46692164533426,3.466921645334259,0.832142281295031,0.7810046628524256,0.7809894391404364
41,-2.6339975754825167,-3.414106372976386,-2.540535102605067,-3.320660038406075,3.320660038406075,0.6866624629235583,0.7801249358010081,0.7801087974938694
42,-2.4027160569671375,-3.181814731478331,-2.3967860432380457,-3.1759017823997606,3.1759017823997624,0.7731857254326249,0.7791157391617167,0.7790986745111934
43,-2.170040658172511,-2.947984559831433,-2.256504345484635,-3.034466242679838,3.034466242679838,0.8644255845073272,0.7779618971952029,0.7779439016589222
44,-2.165108330552446,-2.9417363141888444,-2.1217573466093986,-2.89840425429524,2.89840425429524,0.7332959237427943,0.7766469076858415,0.7766279836363985
45,-1.9328949248167042,-2.708027950680545,-1.9943426277406404,-2.7694954965102285,2.769495496510229,0.8366005716935248,0.7751528687695886,0.7751330258638407
46,-1.9294928016921271,-2.7029324637519703,-1.8753680671658775,-2.648828473100355,2.6488284731003544,0.7193356714082273,0.773460405934477,0.7734396620598432
47,-1.6988939375715235,-2.47042092005433,-1.7650046467996605,-2.536553246651831,2.5365532466518315,0.837659309080308,0.771548599852171,0.7715269824828064
48,-1.6966731425326178,-2.466045606030437,-1.662464349257809,-2.4318592650905693,2.431859265090569,0.735186122557951,0.7693949158327598,0.7693724634978194
49,-1.5633896232692477,-2.3303415224947592,-1.5662117400990851,-2.333186875542201,2.3331868755421996,0.7697972522729519,0.7669751354431145,0.7669518992255115
50,-1.4656186782784932,-2.2298580144106737,-1.4743706867383004,-2.2386339778067237,2.2386339778067237,0.7730152995282304,0.7642632910684233,0.7642393361321806
51,-1.4200794259043317,-2.1812864374352396,-1.3852363982770748,-2.14646800264652,2.14646800264652,0.7263885767421883,0.7612316043694451,0.761207011530908
52,-1.2377489131582529,-1.995574210239119,-1.2977594359003888,-2.055609865617197,2.055609865617196,0.8178609524589433,0.7578504297168074,0.7578252970808661
53,-1.239006403991561,-1.9930690524873298,-1.2118530946353232,-1.9659412984840867,1.9659412984840872,0.7269348944925262,0.754088203848764,0.7540626484957689
54,-1.2405225568441467,-1.9904081196454295,-1.128408661181368,-1.8783200642893747,1.878320064289375,0.6377975074452282,0.749911403108007,0.7498855628012828
55,-1.0138393679548239,-1.7590979125684494,-1.0489896915194663,-1.7942742012572959,1.7942742012572956,0.7804348333024718,0.7452845097378293,0.7452585446136255
56,-1.0145035091229169,-1.754647592168287,-0.9752940144686278,-1.715464003320121,1.7154640033201214,0.7009604941972045,0.7401699888514935,0.74014408304537
57,-0.7867663374567546,-1.5212689784339002,-0.9085743558989148,-1.643102633717098,1.6431026337170973,0.8563362962603427,0.7345282778181825,0.7345026409771456
58,-0.7868403856424875,-1.5151330442046018,-0.8492435334174571,-1.577561323358478,1.5775613233584782,0.7907209377159907,0.7283177899410211,0.7282926585621143
59,-0.7871632366705494,-1.5086338096205516,-0.7968271563611927,-1.5183220907851898,1.51832209078519,0.7311588541146405,0.7214949344239973,0.7214705729500022
60,-0.7877816379095455,-1.5017724942339106,-0.750283657350183,-1.4642978120815449,1.464297812081545,0.6765161741719996,0.7140141547313621,0.7139908563243651
61,-0.7883302807946349,-1.4941363552299887,-0.7085479163040819,-1.414375903835299,1.4143759038352994,0.6260456230406646,0.7058279875312176,0.7058060744353538
62,-0.7882081623428299,-1.4850751302171807,-0.6710483326951713,-1.3679354771730636,1.3679354771730636,0.5797273148302338,0.6968871444778924,0.6968669678743509
63,-0.5590251511519622,-1.2461477095216167,-0.6379534892942739,-1.3250941084110408,1.3250941084110412,0.7660689572590791,0.6871406191167674,0.6871225583696545
64,-0.5566369268079194,-1.2331572091841898,-0.6100249387866286,-1.2865607600063584,1.2865607600063587,0.7299238331984392,0.6765358212197301,0.6765202823762704
65,-0.5537701598745182,-1.2187763140543262,-0.5881312082815469,-1.2531499489198104,1.2531499489198101,0.699379789045292,0.6650187406382633,0.665006154179808
66,-0.5515730942111654,-1.2040980548370341,-0.5726278081904836,-1.2251619511610647,1.2251619511610652,0.6735888569498998,0.6525341429705815,0.6525249606258687
67,-0.5513667943495602,-1.1903872837630463,-0.5628565866503028,-1.2018823858768877,1.2018823858768874,0.6505155915273273,0.6390257992265846,0.6390204894134861
68,-0.5542729596422635,-1.1787087522877284,-0.5569510373392044,-1.1813877879705914,1.1813877879705916,0.6271148283283281,0.6244367506313873,0.6244357926454649
69,-0.5609280191141766,-1.169641506115977,-0.5519976603652723,-1.1607072693458451,1.1607072693458451,0.5997792502316686,0.6087096089805728,0.6087134870018005
70,-0.5713304283578626,-1.1631265198453025,-0.544477595842935,-1.1362644899115295,1.1362644899115295,0.5649340615536669,0.5917868940685945,0.5917960914874398
71,-0.584805453275969,-1.1584318564727822,-0.5308631052552333,-1.1044745168622345,1.1044745168622347,0.5196690635862657,0.5736114116070015,0.5736264031968132
72,-0.5929557930053075,-1.147103703936259,-0.5082804914042878,-1.0624071654934437,1.0624071654934437,0.4694513724881362,0.554126674089156,0.5541479109309515
73,-0.38752433617403703,-0.9208295819718026,-0.47522385054211663,-1.008501210190429,1.008501210190429,0.6209768740163919,0.5332773596483122,0.5333052457977656
74,-0.40123733733394484,-0.9122820044582425,-0.4323322891511291,-0.9433420871657437,0.943342087165744,0.5421047498317991,0.5110097980146149,0.5110446671242976
75,-0.411931542020858,-0.8992461231388411,-0.3831726631737693,-0.8704451311256118,0.8704451311256116,0.4585135891047536,0.4872724679518423,0.4873145811179831
76,-0.4191204849225114,-0.8811865736655489,-0.3348182834997244,-0.7968347806942413,0.7968347806942413,0.3777142957717299,0.4620164971945169,0.46206608874303745
77,-0.42349020411977634,-0.8587437623639786,-0.29786931154572677,-0.733065501737203,0.733065501737203,0.30957529761742664,0.4351961901914762,0.4352535582442023
78,-0.3636736901168778,-0.7705089067916853,-0.2855413874119423,-0.6923110470956435,0.6923110470956433,0.3286373569787655,0.406769659683701,0.4068352166748075
79,-0.20372670080509758,-0.580500454501927,-0.311635038661756,-0.6883346837279061,0.6883346837279063,0.4846079829228087,0.3766996450661503,0.3767737536968294
80,-0.21229440445616055,-0.5573313343061517,-0.38757161257174977,-0.7325261035687327,0.7325261035687328,0.5202316991125723,0.34495449099698305,0.3450369298499911
81,-0.37109359621126625,-0.6826917766841483,-0.5191153326168354,-0.830624361107521,0.8306243611075214,0.4595307648962551,0.31150902849068596,0.311598180472882
82,-0.48487791107225764,-0.7613151166156746,-0.7037061493613668,-0.9800510351968543,0.9800510351968544,0.4951731241245968,0.27634488583548766,0.276437205543417
83,-0.8259645393676038,-1.065505074301091,-0.929338902091964,-1.1687886579695337,1.168788657969534,0.3428241186019301,0.2394497558775699,0.23954053493348715
84,-1.1639196078673333,-1.3648216658566112,-1.1755833837935867,-1.376398998583185,1.3763989985831853,0.21247939071585198,0.20081561478959853,0.20090205798927796
85,-1.496218462197989,-1.65674196819728,-1.4167329088186764,-1.5771698121589934,1.5771698121589939,0.08095134996100484,0.16043690334031746,0.16052350599929088
86,-1.821198853049915,-1.9396137290881006,-1.6264023743359657,-1.7447132241334846,1.7447132241334844,-0.07648562891643063,0.11831084979751871,0.11841487603818557
87,-1.9354196841726385,-2.0100144690841324,-1.7824156730252851,-1.8568581909664057,1.856858190966406,-0.07856149320623262,0.07444251794112078,0.07459478491149385
88,-2.124810110431159,-2.1539008529321277,-1.8707076126033955,-1.8995634241450283,1.899563424145028,-0.22524668628613087,0.028855811541632637,0.02909074250096877
89,-1.9527958641057932,-1.9347351988439634,-1.8872617729036023,-1.868870005094501,1.8688700050945009,-0.08392585901129235,-0.018391767809101456,-0.01806066526182981
90,-1.7763589977547203,-1.7095453054715706,-1.8377044176999195,-1.770507049173983,1.770507049173983,-0.005851948580737343,-0.06719736852593661,-0.0668136922831497
91,-1.721994956446401,-1.604881502525992,-1.7348627215623105,-1.6174484469198864,1.617448446919886,-0.10454650952651501,-0.11741427464242449,-0.11711345392040906
92,-1.523826604069415,-1.3549305448207334,-1.5951406570335434,-1.426264389156627,1.4262643891566267,-0.09756221491278838,-0.16887626787691667,-0.16889605924868167
93,-1.401686507296146,-1.1795976505924217,-1.4348012296933308,-1.2133534401327786,1.2133534401327786,-0.1883330671633674,-0.22144778956055222,-0.22208885670372425
94,-1.1364645468041021,-0.8598537533884212,-1.2671250880644882,-0.9920343541115776,0.9920343541115777,-0.14443019269252444,-0.2750907339529105,-0.27661079341568096
95,-1.1048504819928389,-0.7724775959857264,-1.1010219334484606,-0.7710963796318531,0.7710963796318531,-0.3337541023609858,-0.3299255538166075,-0.33237288600711246
96,-0.9099036265285725,-0.5206248284859711,-0.9411602554715259,-0.5549035465121821,0.554903546512182,-0.3550000800163905,-0.38625670895934394,-0.38927879804260135
97,-0.8269489346212273,-0.3797234178451503,-0.7892272991390916,-0.3446910579418907,0.3446910579418907,-0.4822578766793366,-0.4445362411972009,-0.447225516776077
98,-0.7247985157276169,-0.21869439628780452,-0.6456650790907619,-0.1404086580230159,0.1404086580230159,-0.584389857704601,-0.5052564210677459,-0.5061041194398124
99,-0.558332794066629,0.007467823079942537,-0.5112028885498032,0.05758616466262692,-0.05758616466262692,-0.6159189587292558,-0.5687890532124301,-0.5658006171465715
100,-0.31187807135346324,0.31431879126312934,-0.38769336843447944,0.24752195241010255,-0.2475219524101025,-0.5594000237635657,-0.6352153208445819,-0.6261968626165926
101,-0.2952624372628172,0.3919090692017839,-0.2780700967679032,0.42613404592899407,-0.4261340459289942,-0.7213964831918114,-0.7042041426968974,-0.6871715064646011
102,-0.11437765064497185,0.6342233350987709,-0.18556966976470557,0.5894208514481225,-0.5894208514481223,-0.7037985020930941,-0.7749905212128279,-0.7486009857437428
104,-0.13453866024536687,0.7377864927949225,-0.11260021450484316,0.7338776365577552,-0.7338776365577552,-0.868416296803122,-0.8464778510625983,-0.8723251530402893
105,-0.017817790386869703,0.9165528680419506,-0.0597266950361695,0.8577212963955612,-0.8577212963955609,-0.8755390867824306,-0.9174479914317304,-0.9343706584288203
106,0.04425652228351451,1.0406310910541303,-0.025168520587355983,0.9616559462300719,-0.9616559462300718,-0.9173994239465573,-0.9868244668174277,-0.9963745687706158
107,0.01624516251970043,1.0744622011446872,-0.005003012672329362,1.0489093592130319,-1.048909359213032,-1.0326641966933316,-1.0539123718853614,-1.0582170386249867
108,-0.01219225703103799,1.1075894366606094,0.005987076090251616,1.124529723014327,-1.124529723014327,-1.136721980045365,-1.1185426469240753,-1.1197816936916474
109,-0.0393556547026348,1.1416007455047246,0.013105266196059796,1.194182782672994,-1.1941827826729945,-1.2335384373756293,-1.1810775164769347,-1.1809564002073594
110,-0.06387355638534542,1.1777603972153274,0.020568942769879004,1.2628465435934701,-1.2628465435934701,-1.3267200999788156,-1.2422776008235912,-1.2416339536006729
111,-0.07755204004206728,1.2241606397271476,0.030739159974530587,1.333813017058195,-1.3338130170581952,-1.4113650571002625,-1.3030738570836646,-1.301712679769215
112,0.12556725700140525,1.4866642015716596,0.043962001508620736,1.4082764787249125,-1.408276478724913,-1.2827092217235077,-1.364314477216292,-1.3610969445702543
113,0.11182257347767388,1.5315201427746898,0.05900954965567921,1.4855691284737567,-1.4855691284737564,-1.3737465549960826,-1.4265595788180772,-1.419697569297016
114,0.101679079950733,1.5791112319329805,0.07390586728739695,1.563881276295454,-1.5638812762954544,-1.4622021963447214,-1.4899754090080575,-1.4774321519822475
115,0.09516616038315728,1.6293914566544356,0.0868132219678154,1.6411570971170213,-1.6411570971170217,-1.5459909367338645,-1.5543438751492062,-1.5342252962712783
117,0.09227943089568535,1.7370008983034193,0.0966711436754558,1.7158373841746444,-1.7158373841746442,-1.6235579532789588,-1.6191662404991884,-1.644721467407734
118,0.09277819156295664,1.7910877654259596,0.10340965834156998,1.7872242715211852,-1.7872242715211848,-1.6944460799582282,-1.6838146131796148,-1.698309573863003
119,0.0960784403019459,1.846804725652655,0.1077397040005463,1.8554183028256377,-1.8554183028256375,-1.7593398625236916,-1.7476785988250911,-1.750726285350709
120,0.10134019358837199,1.9032719386273578,0.11068431204176277,1.9209511597128757,-1.9209511597128752,-1.8196109661245032,-1.8102668476711123,-1.8019317450389858
121,0.10769129142257006,1.9595841035151045,0.11309474040124537,1.984342032741635,-1.984342032741635,-1.876650741319065,-1.8712472923403896,-1.8518928120925344
123,0.11443117109572976,2.0624123577306537,0.11537217081589732,2.0458069979309133,-2.0458069979309137,-1.931375826835184,-1.9304348271150165,-1.947981186634924
124,0.12109042906264245,2.1151636945397883,0.11750492777345348,2.1052560272011998,-2.1052560272011993,-1.9841655981385569,-1.9877510994277459,-1.9940732654771458
125,0.1273478304331075,2.1661976400412044,0.11938336749740204,2.1625665316456546,-2.1625665316456546,-2.035218701212547,-2.0431831641482527,-2.038849809608097
126,0.13291353903365488,2.2152202304355346,0.12122996742757532,2.217987837706458,-2.217987837706457,-2.085074298672802,-2.0967578702788816,-2.0823066914018797
128,0.13749254118263243,2.302760710585229,0.12392781336760114,2.2724617861782983,-2.272461786178299,-2.1349692449956668,-2.1485339728106982,-2.1652681694025966
129,0.1408561784441873,2.34564274311899,0.12906524477596684,2.3276671815742627,-2.3276671815742627,-2.1868110031300754,-2.198601936798296,-2.204786564674803
130,0.14295233582377787,2.3859644657553303,0.13862389555008864,2.385701704576383,-2.385701704576383,-2.242749368752605,-2.2470778090262944,-2.2430121299315524
131,0.14395185713885583,2.423912359878262,0.15438127954348274,2.4484645680897783,-2.448464568089778,-2.304512710950922,-2.294083288546295,-2.279960502739406
133,0.14417838753050694,2.4942804490261654,0.17722281333210954,2.5169377390335663,-2.516937739033567,-2.3727593515030603,-2.3397149257014576,-2.3501020614956585
134,0.1439556875343766,2.5272950331427664,0.20661410569152,2.590628584564289,-2.590628584564289,-2.4466728970299125,-2.384014478872769,-2.38333934560839
135,0.1434678813230934,2.558854877230047,0.24045002510232613,2.667404614953816,-2.667404614953816,-2.523936733630723,-2.42695458985149,-2.4153869959069536
137,0.3706474170167442,2.846668305670799,0.27538256185594456,2.7438306384394355,-2.743830638439435,-2.373183221422691,-2.4684480765834906,-2.476020888654055
138,0.3695984634852425,2.874262324328702,0.30757316092853315,2.8159518440878655,-2.815951844087866,-2.4463533806026234,-2.5083786831593327,-2.5046638608434595
140,0.3682917783112969,2.9270419169066337,0.3336707199091586,2.8803119721871573,-2.8803119721871573,-2.5120201938758604,-2.5466412522779986,-2.558750138595337
141,0.3669937563073309,2.9512482103284836,0.3517337014275275,2.9349087691051716,-2.9349087691051716,-2.5679150127978407,-2.583175067677644,-2.5842544540211527
142,0.3661214941176967,2.974895564689818,0.3618212141860874,2.9797989266851803,-2.979798926685181,-2.6136774325674845,-2.6179777124990937,-2.6087740705721214
144,0.3660042132028174,3.020987477830079,0.36606791436864417,3.0171640523630687,-3.0171640523630683,-2.651159839160251,-2.6510961379944242,-2.6549832646272615
145,0.3666149293608507,3.043349536383287,0.3681998517622118,3.0508017071111198,-3.0508017071111198,-2.684186777750269,-2.682601855348908,-2.6767346070224365
147,0.3674756654897231,3.085158886299774,0.3725998987194089,3.085163238776053,-3.085163238776053,-2.7176875732863297,-2.712563340056644,-2.7176832208100508
148,0.3678468757709741,3.1047871592242737,0.38315152757210713,3.124179954527567,-3.1241799545275666,-2.7563330787565925,-2.7410284269554595,-2.7369402834532996
150,0.36711399929076416,3.1402795367165464,0.4021506297353352,3.170174146573752,-3.170174146573752,-2.803060147282988,-2.768023516838417,-2.773165537425782
151,0.36512457575009716,3.1553147613985373,0.4295663825305475,3.2231341581984094,-3.22313415819841,-2.8580095824483127,-2.7935677756678623,-2.79019018564844
153,0.38534151228372915,3.207541176869921,0.46285841107054804,3.2805519218429957,-3.280551921842995,-2.8952104095592657,-2.817693510772447,-2.8221996645861918
154,0.5536515991132172,3.390888416691406,0.49743247713618255,3.3378941812782292,-3.3378941812782283,-2.784242582165011,-2.840461704142046,-2.837236817578189
156,0.5837833649303006,3.4492845368555614,0.5276615904665529,3.3896263883598152,-3.389626388359816,-2.8058430234295155,-2.861964797893263,-2.8655011719252608
