frequency,raw,error,smoothed,error_smoothed,equalization,parametric_eq,equalized_raw,equalized_smoothed,target
20.00,9.00,3.14,9.01,3.14,-3.14,-2.02,5.87,5.87,5.87
20.20,9.05,3.17,9.05,3.17,-3.17,-2.07,5.88,5.88,5.88
20.40,9.10,3.21,9.10,3.21,-3.21,-2.13,5.89,5.89,5.89
20.61,9.14,3.24,9.14,3.24,-3.24,-2.19,5.90,5.90,5.90
20.81,9.20,3.28,9.19,3.28,-3.28,-2.26,5.92,5.91,5.91
21.02,9.23,3.31,9.24,3.31,-3.31,-2.32,5.92,5.92,5.92
21.23,9.28,3.35,9.28,3.35,-3.35,-2.39,5.93,5.93,5.93
21.44,9.33,3.38,9.33,3.39,-3.39,-2.46,5.94,5.94,5.94
21.66,9.37,3.42,9.37,3.42,-3.42,-2.53,5.95,5.95,5.95
21.87,9.42,3.45,9.42,3.46,-3.46,-2.60,5.96,5.96,5.96
22.09,9.47,3.49,9.47,3.49,-3.49,-2.67,5.97,5.97,5.97
22.31,9.52,3.53,9.51,3.53,-3.53,-2.75,5.99,5.98,5.98
22.54,9.55,3.56,9.56,3.56,-3.56,-2.83,5.99,6.00,6.00
22.76,9.61,3.60,9.60,3.60,-3.60,-2.91,6.01,6.01,6.01
22.99,9.65,3.64,9.65,3.63,-3.63,-2.99,6.02,6.02,6.02
23.22,9.69,3.67,9.70,3.67,-3.67,-3.08,6.03,6.03,6.03
23.45,9.74,3.70,9.74,3.70,-3.70,-3.16,6.04,6.04,6.04
23.69,9.79,3.74,9.79,3.74,-3.74,-3.25,6.05,6.05,6.05
23.92,9.84,3.77,9.84,3.78,-3.78,-3.34,6.06,6.06,6.06
24.16,9.89,3.81,9.89,3.81,-3.81,-3.44,6.07,6.07,6.07
24.40,9.94,3.85,9.93,3.85,-3.85,-3.53,6.09,6.08,6.09
24.65,9.97,3.88,9.98,3.88,-3.88,-3.62,6.09,6.10,6.10
24.89,10.03,3.92,10.02,3.92,-3.92,-3.72,6.11,6.11,6.11
25.14,10.08,3.96,10.07,3.95,-3.95,-3.82,6.12,6.12,6.12
25.39,10.12,3.99,10.12,3.99,-3.99,-3.92,6.13,6.13,6.13
25.65,10.16,4.03,10.16,4.02,-4.02,-4.02,6.14,6.14,6.14
25.91,10.20,4.06,10.21,4.06,-4.06,-4.12,6.14,6.15,6.15
26.16,10.26,4.10,10.25,4.10,-4.10,-4.22,6.16,6.16,6.16
26.43,10.29,4.13,10.30,4.13,-4.13,-4.31,6.16,6.17,6.17
26.69,10.34,4.17,10.34,4.17,-4.17,-4.41,6.18,6.18,6.18
26.96,10.38,4.19,10.39,4.20,-4.20,-4.51,6.18,6.19,6.19
27.23,10.43,4.23,10.44,4.24,-4.24,-4.61,6.20,6.20,6.20
27.50,10.48,4.27,10.48,4.27,-4.27,-4.70,6.21,6.21,6.21
27.77,10.53,4.30,10.53,4.31,-4.31,-4.79,6.22,6.22,6.22
28.05,10.57,4.34,10.57,4.34,-4.34,-4.88,6.23,6.23,6.23
28.33,10.62,4.37,10.62,4.37,-4.37,-4.97,6.24,6.24,6.24
28.62,10.66,4.41,10.66,4.41,-4.41,-5.05,6.25,6.25,6.25
28.90,10.70,4.44,10.70,4.44,-4.44,-5.13,6.26,6.26,6.26
29.19,10.75,4.48,10.75,4.48,-4.48,-5.20,6.28,6.27,6.27
29.48,10.79,4.51,10.79,4.51,-4.51,-5.27,6.28,6.28,6.28
29.78,10.83,4.54,10.84,4.54,-4.54,-5.33,6.29,6.29,6.29
30.08,10.87,4.57,10.88,4.58,-4.58,-5.38,6.30,6.30,6.30
30.38,10.92,4.61,10.93,4.61,-4.61,-5.43,6.31,6.31,6.31
30.68,10.96,4.64,10.97,4.65,-4.65,-5.47,6.32,6.32,6.32
30.99,11.01,4.68,11.01,4.68,-4.68,-5.51,6.33,6.33,6.33
31.30,11.05,4.71,11.06,4.71,-4.71,-5.54,6.34,6.34,6.35
31.61,11.10,4.75,11.10,4.75,-4.75,-5.56,6.36,6.35,6.36
31.93,11.14,4.78,11.14,4.78,-4.78,-5.57,6.36,6.36,6.37
32.24,11.19,4.81,11.19,4.82,-4.82,-5.58,6.37,6.37,6.37
32.57,11.22,4.84,11.23,4.85,-4.85,-5.58,6.38,6.38,6.38
32.89,11.27,4.88,11.27,4.88,-4.88,-5.58,6.40,6.39,6.39
33.22,11.31,4.91,11.31,4.91,-4.91,-5.57,6.40,6.40,6.40
33.55,11.36,4.94,11.35,4.94,-4.94,-5.55,6.41,6.41,6.41
33.89,11.39,4.98,11.39,4.97,-4.97,-5.53,6.42,6.42,6.42
34.23,11.42,5.00,11.42,5.00,-5.00,-5.51,6.43,6.43,6.43
34.57,11.46,5.03,11.46,5.02,-5.02,-5.48,6.44,6.43,6.43
34.92,11.49,5.05,11.49,5.05,-5.05,-5.44,6.45,6.44,6.44
35.27,11.52,5.07,11.52,5.07,-5.07,-5.41,6.45,6.45,6.45
35.62,11.55,5.10,11.55,5.09,-5.09,-5.37,6.46,6.46,6.46
35.97,11.58,5.12,11.58,5.12,-5.12,-5.33,6.47,6.47,6.47
36.33,11.60,5.13,11.61,5.14,-5.14,-5.29,6.47,6.47,6.47
36.70,11.63,5.15,11.64,5.16,-5.16,-5.25,6.48,6.48,6.48
37.06,11.65,5.17,11.66,5.18,-5.18,-5.21,6.48,6.48,6.49
37.43,11.69,5.19,11.69,5.20,-5.20,-5.16,6.49,6.49,6.49
37.81,11.71,5.21,11.71,5.22,-5.22,-5.12,6.50,6.50,6.50
38.19,11.73,5.23,11.74,5.24,-5.24,-5.08,6.50,6.50,6.51
38.57,11.76,5.25,11.77,5.26,-5.26,-5.05,6.51,6.51,6.51
38.95,11.79,5.28,11.79,5.27,-5.27,-5.01,6.52,6.52,6.52
39.34,11.81,5.29,11.82,5.29,-5.29,-4.97,6.52,6.52,6.52
39.74,11.83,5.31,11.84,5.31,-5.31,-4.94,6.52,6.53,6.53
40.14,11.86,5.33,11.87,5.33,-5.33,-4.91,6.53,6.53,6.53
40.54,11.89,5.36,11.89,5.35,-5.35,-4.89,6.54,6.54,6.54
40.94,11.92,5.38,11.92,5.37,-5.37,-4.86,6.55,6.54,6.54
41.35,11.94,5.40,11.94,5.39,-5.39,-4.84,6.55,6.55,6.55
41.76,11.96,5.41,11.96,5.41,-5.41,-4.82,6.55,6.55,6.55
42.18,11.98,5.43,11.99,5.43,-5.43,-4.81,6.55,6.55,6.56
42.60,12.00,5.45,12.01,5.45,-5.45,-4.80,6.55,6.56,6.56
43.03,12.02,5.46,12.04,5.47,-5.47,-4.79,6.55,6.56,6.56
43.46,12.05,5.49,12.06,5.49,-5.49,-4.79,6.56,6.57,6.57
43.90,12.07,5.50,12.08,5.51,-5.51,-4.79,6.56,6.57,6.57
44.33,12.10,5.53,12.11,5.53,-5.53,-4.79,6.58,6.58,6.58
44.78,12.12,5.54,12.13,5.54,-5.54,-4.80,6.58,6.58,6.58
45.23,12.14,5.56,12.14,5.56,-5.56,-4.81,6.59,6.59,6.59
45.68,12.16,5.57,12.16,5.57,-5.57,-4.82,6.59,6.59,6.59
46.13,12.18,5.59,12.18,5.58,-5.58,-4.84,6.60,6.59,6.60
46.60,12.20,5.61,12.19,5.59,-5.59,-4.87,6.61,6.60,6.60
47.06,12.21,5.61,12.20,5.60,-5.60,-4.89,6.61,6.60,6.60
47.53,12.22,5.62,12.21,5.61,-5.61,-4.92,6.62,6.60,6.61
48.01,12.22,5.62,12.22,5.61,-5.61,-4.95,6.61,6.61,6.61
48.49,12.22,5.61,12.22,5.62,-5.62,-4.99,6.61,6.61,6.61
48.97,12.21,5.60,12.23,5.62,-5.62,-5.03,6.60,6.61,6.61
49.46,12.21,5.60,12.23,5.62,-5.62,-5.07,6.60,6.61,6.61
49.96,12.21,5.60,12.23,5.62,-5.62,-5.11,6.60,6.61,6.61
50.46,12.21,5.60,12.22,5.61,-5.61,-5.16,6.60,6.61,6.61
50.96,12.21,5.60,12.22,5.61,-5.61,-5.20,6.60,6.61,6.61
51.47,12.21,5.60,12.21,5.60,-5.60,-5.25,6.61,6.61,6.61
51.99,12.21,5.61,12.20,5.60,-5.60,-5.30,6.62,6.60,6.61
52.51,12.19,5.59,12.19,5.59,-5.59,-5.36,6.61,6.60,6.60
53.03,12.18,5.59,12.17,5.58,-5.58,-5.41,6.61,6.59,6.60
53.56,12.16,5.57,12.16,5.57,-5.57,-5.46,6.60,6.59,6.59
54.10,12.14,5.56,12.14,5.55,-5.55,-5.52,6.59,6.58,6.58
54.64,12.11,5.54,12.12,5.54,-5.54,-5.57,6.57,6.57,6.57
55.18,12.08,5.52,12.09,5.53,-5.53,-5.62,6.56,6.56,6.57
55.74,12.05,5.50,12.06,5.51,-5.51,-5.67,6.54,6.55,6.55
56.29,12.03,5.49,12.03,5.49,-5.49,-5.72,6.54,6.54,6.54
56.86,12.00,5.48,12.00,5.48,-5.48,-5.76,6.53,6.53,6.53
57.42,11.96,5.45,11.97,5.46,-5.46,-5.80,6.51,6.51,6.51
58.00,11.93,5.44,11.94,5.44,-5.44,-5.84,6.49,6.50,6.50
58.58,11.90,5.42,11.90,5.42,-5.42,-5.88,6.48,6.48,6.48
59.16,11.86,5.40,11.87,5.41,-5.41,-5.91,6.46,6.46,6.47
59.76,11.82,5.38,11.83,5.39,-5.39,-5.93,6.44,6.44,6.45
60.35,11.79,5.37,11.79,5.37,-5.37,-5.95,6.42,6.42,6.43
60.96,11.75,5.35,11.76,5.35,-5.35,-5.96,6.40,6.40,6.40
61.57,11.72,5.34,11.72,5.34,-5.34,-5.97,6.39,6.38,6.38
62.18,11.68,5.33,11.68,5.32,-5.32,-5.98,6.36,6.36,6.36
62.80,11.63,5.30,11.64,5.30,-5.30,-5.97,6.33,6.33,6.33
63.43,11.59,5.29,11.59,5.29,-5.29,-5.96,6.31,6.31,6.31
64.07,11.55,5.27,11.55,5.27,-5.27,-5.95,6.29,6.28,6.28
64.71,11.50,5.25,11.51,5.25,-5.25,-5.93,6.25,6.25,6.25
65.35,11.46,5.24,11.46,5.23,-5.23,-5.90,6.23,6.23,6.23
66.01,11.41,5.22,11.42,5.22,-5.22,-5.87,6.20,6.20,6.20
66.67,11.36,5.19,11.37,5.20,-5.20,-5.83,6.17,6.17,6.17
67.33,11.32,5.18,11.32,5.18,-5.18,-5.79,6.14,6.14,6.14
68.01,11.27,5.16,11.27,5.16,-5.16,-5.75,6.11,6.11,6.11
68.69,11.22,5.14,11.22,5.14,-5.14,-5.70,6.08,6.08,6.08
69.37,11.17,5.12,11.18,5.13,-5.13,-5.65,6.05,6.05,6.05
70.07,11.13,5.12,11.13,5.11,-5.11,-5.59,6.02,6.02,6.02
70.77,11.08,5.10,11.08,5.10,-5.10,-5.54,5.99,5.99,5.99
71.48,11.04,5.09,11.04,5.08,-5.08,-5.48,5.96,5.96,5.96
72.19,10.99,5.07,10.99,5.07,-5.07,-5.42,5.93,5.93,5.93
72.91,10.95,5.05,10.95,5.06,-5.06,-5.36,5.90,5.90,5.90
73.64,10.90,5.03,10.92,5.05,-5.05,-5.30,5.86,5.87,5.87
74.38,10.86,5.02,10.88,5.04,-5.04,-5.24,5.82,5.84,5.85
75.12,10.83,5.02,10.85,5.03,-5.03,-5.18,5.80,5.81,5.82
75.87,10.80,5.01,10.82,5.03,-5.03,-5.13,5.78,5.79,5.79
76.63,10.77,5.01,10.79,5.02,-5.02,-5.07,5.75,5.76,5.77
77.40,10.75,5.01,10.76,5.02,-5.02,-5.01,5.74,5.74,5.74
78.17,10.73,5.01,10.73,5.01,-5.01,-4.96,5.72,5.72,5.72
78.95,10.71,5.02,10.71,5.01,-5.01,-4.91,5.70,5.69,5.70
79.74,10.70,5.03,10.68,5.01,-5.01,-4.86,5.70,5.67,5.68
80.54,10.67,5.02,10.66,5.00,-5.00,-4.82,5.67,5.66,5.66
81.35,10.64,5.01,10.63,5.00,-5.00,-4.78,5.65,5.64,5.64
82.16,10.60,4.98,10.61,4.99,-4.99,-4.74,5.62,5.62,5.62
82.98,10.57,4.97,10.58,4.98,-4.98,-4.70,5.60,5.61,5.60
83.81,10.55,4.97,10.56,4.97,-4.97,-4.67,5.59,5.59,5.59
84.65,10.52,4.95,10.53,4.96,-4.96,-4.64,5.57,5.58,5.57
85.50,10.50,4.95,10.50,4.94,-4.94,-4.61,5.56,5.56,5.56
86.35,10.48,4.94,10.47,4.93,-4.93,-4.59,5.56,5.55,5.54
87.22,10.45,4.92,10.45,4.92,-4.92,-4.57,5.54,5.53,5.53
88.09,10.43,4.91,10.42,4.90,-4.90,-4.55,5.53,5.52,5.52
88.97,10.40,4.89,10.40,4.89,-4.89,-4.54,5.51,5.51,5.51
89.86,10.37,4.87,10.38,4.88,-4.88,-4.53,5.50,5.50,5.50
90.76,10.35,4.86,10.36,4.87,-4.87,-4.53,5.48,5.49,5.50
91.66,10.33,4.85,10.35,4.87,-4.87,-4.53,5.47,5.48,5.49
92.58,10.31,4.83,10.34,4.86,-4.86,-4.53,5.45,5.47,5.48
93.51,10.29,4.82,10.33,4.86,-4.86,-4.53,5.43,5.46,5.48
94.44,10.29,4.83,10.32,4.87,-4.87,-4.54,5.43,5.46,5.47
95.39,10.29,4.83,10.32,4.87,-4.87,-4.55,5.42,5.45,5.46
96.34,10.31,4.86,10.32,4.88,-4.88,-4.57,5.43,5.44,5.45
97.30,10.32,4.88,10.32,4.89,-4.89,-4.58,5.43,5.43,5.44
98.28,10.33,4.91,10.32,4.90,-4.90,-4.60,5.43,5.42,5.43
99.26,10.34,4.93,10.32,4.92,-4.92,-4.62,5.43,5.41,5.41
100.25,10.34,4.94,10.32,4.93,-4.93,-4.65,5.42,5.39,5.40
101.25,10.33,4.95,10.32,4.94,-4.94,-4.67,5.39,5.38,5.38
102.27,10.32,4.96,10.32,4.95,-4.95,-4.70,5.37,5.37,5.36
103.29,10.31,4.97,10.31,4.96,-4.96,-4.73,5.36,5.35,5.34
104.32,10.29,4.97,10.29,4.97,-4.97,-4.76,5.33,5.32,5.32
105.37,10.27,4.98,10.27,4.97,-4.97,-4.79,5.30,5.30,5.30
106.42,10.24,4.98,10.24,4.98,-4.98,-4.82,5.27,5.27,5.27
107.48,10.21,4.97,10.21,4.98,-4.98,-4.85,5.24,5.23,5.24
108.56,10.18,4.98,10.18,4.98,-4.98,-4.88,5.21,5.20,5.21
109.64,10.15,4.98,10.14,4.98,-4.98,-4.91,5.18,5.17,5.18
110.74,10.11,4.97,10.11,4.97,-4.97,-4.94,5.14,5.13,5.14
111.85,10.07,4.97,10.07,4.97,-4.97,-4.97,5.10,5.10,5.11
112.97,10.01,4.94,10.04,4.97,-4.97,-4.99,5.04,5.07,5.07
114.10,9.96,4.93,10.00,4.97,-4.97,-5.01,5.00,5.03,5.04
115.24,9.93,4.93,9.96,4.97,-4.97,-5.03,4.97,4.99,5.00
116.39,9.90,4.94,9.92,4.96,-4.96,-5.04,4.94,4.96,4.96
117.55,9.87,4.95,9.88,4.96,-4.96,-5.05,4.92,4.92,4.93
118.73,9.83,4.94,9.84,4.95,-4.95,-5.05,4.88,4.89,4.89
119.92,9.80,4.95,9.80,4.94,-4.94,-5.05,4.86,4.85,4.86
121.12,9.76,4.94,9.75,4.93,-4.93,-5.04,4.83,4.82,4.82
122.33,9.73,4.94,9.71,4.92,-4.92,-5.02,4.82,4.79,4.79
123.55,9.68,4.93,9.66,4.90,-4.90,-5.00,4.79,4.76,4.76
124.79,9.60,4.88,9.61,4.87,-4.87,-4.98,4.73,4.73,4.73
126.03,9.53,4.83,9.55,4.85,-4.85,-4.95,4.69,4.71,4.70
127.29,9.48,4.81,9.49,4.81,-4.81,-4.91,4.67,4.68,4.67
128.57,9.43,4.79,9.43,4.77,-4.77,-4.86,4.66,4.65,4.65
129.85,9.35,4.73,9.36,4.73,-4.73,-4.81,4.63,4.63,4.63
131.15,9.26,4.66,9.28,4.68,-4.68,-4.75,4.59,4.60,4.60
132.46,9.22,4.64,9.20,4.62,-4.62,-4.69,4.60,4.58,4.58
133.79,9.13,4.58,9.12,4.56,-4.56,-4.62,4.57,4.55,4.56
135.12,9.01,4.48,9.03,4.50,-4.50,-4.55,4.51,4.53,4.54
136.48,8.95,4.44,8.94,4.43,-4.43,-4.47,4.52,4.51,4.52
137.84,8.84,4.35,8.85,4.36,-4.36,-4.38,4.48,4.49,4.50
139.22,8.76,4.29,8.76,4.29,-4.29,-4.30,4.48,4.47,4.47
140.61,8.66,4.21,8.66,4.21,-4.21,-4.21,4.46,4.45,4.45
142.02,8.52,4.09,8.56,4.13,-4.13,-4.11,4.40,4.43,4.43
143.44,8.45,4.04,8.45,4.04,-4.04,-4.02,4.41,4.41,4.41
144.87,8.32,3.94,8.34,3.95,-3.95,-3.92,4.37,4.39,4.39
146.32,8.23,3.87,8.22,3.86,-3.86,-3.82,4.37,4.36,4.37
147.78,8.11,3.77,8.11,3.77,-3.77,-3.72,4.35,4.34,4.34
149.26,8.00,3.68,7.99,3.67,-3.67,-3.62,4.34,4.32,4.32
150.75,7.85,3.56,7.86,3.57,-3.57,-3.52,4.29,4.30,4.30
152.26,7.75,3.48,7.74,3.46,-3.46,-3.41,4.29,4.27,4.28
153.78,7.61,3.36,7.61,3.36,-3.36,-3.31,4.26,4.25,4.25
155.32,7.48,3.26,7.48,3.25,-3.25,-3.21,4.24,4.23,4.23
156.88,7.33,3.12,7.34,3.14,-3.14,-3.10,4.19,4.21,4.20
158.44,7.20,3.02,7.21,3.02,-3.02,-3.00,4.18,4.18,4.18
160.03,7.03,2.88,7.06,2.91,-2.91,-2.90,4.13,4.16,4.16
161.63,6.92,2.79,6.92,2.79,-2.79,-2.80,4.13,4.13,4.13
163.24,6.80,2.70,6.78,2.67,-2.67,-2.70,4.13,4.10,4.11
164.88,6.62,2.54,6.63,2.56,-2.56,-2.60,4.07,4.08,4.08
166.53,6.49,2.44,6.49,2.44,-2.44,-2.51,4.06,4.05,4.06
168.19,6.36,2.34,6.35,2.32,-2.32,-2.41,4.05,4.03,4.03
169.87,6.17,2.17,6.20,2.20,-2.20,-2.32,3.97,4.00,4.00
171.57,6.04,2.07,6.05,2.08,-2.08,-2.22,3.96,3.97,3.97
173.29,5.92,1.98,5.90,1.96,-1.96,-2.13,3.96,3.94,3.94
175.02,5.72,1.81,5.75,1.84,-1.84,-2.04,3.88,3.91,3.91
176.77,5.59,1.71,5.60,1.72,-1.72,-1.95,3.87,3.88,3.88
178.54,5.46,1.62,5.45,1.61,-1.61,-1.87,3.86,3.85,3.85
180.32,5.33,1.52,5.30,1.49,-1.49,-1.78,3.85,3.81,3.82
182.13,5.19,1.41,5.15,1.37,-1.37,-1.69,3.82,3.78,3.78
183.95,4.99,1.24,5.01,1.26,-1.26,-1.61,3.74,3.75,3.75
185.79,4.85,1.14,4.86,1.14,-1.14,-1.53,3.71,3.72,3.72
187.65,4.70,1.02,4.72,1.03,-1.03,-1.45,3.67,3.68,3.68
189.52,4.56,0.91,4.58,0.92,-0.92,-1.37,3.64,3.65,3.65
191.42,4.42,0.81,4.44,0.82,-0.82,-1.29,3.61,3.62,3.62
193.33,4.29,0.71,4.30,0.72,-0.72,-1.22,3.58,3.58,3.58
195.27,4.16,0.62,4.17,0.62,-0.62,-1.14,3.54,3.55,3.55
197.22,4.03,0.52,4.04,0.53,-0.53,-1.07,3.51,3.51,3.52
199.19,3.91,0.43,3.92,0.44,-0.44,-1.00,3.47,3.47,3.48
201.18,3.80,0.36,3.80,0.36,-0.36,-0.93,3.44,3.44,3.44
203.19,3.69,0.28,3.69,0.29,-0.29,-0.86,3.41,3.40,3.41
205.23,3.59,0.22,3.58,0.22,-0.22,-0.79,3.38,3.37,3.37
207.28,3.48,0.15,3.48,0.16,-0.16,-0.73,3.33,3.33,3.34
209.35,3.39,0.09,3.39,0.10,-0.10,-0.66,3.29,3.29,3.30
211.44,3.30,0.04,3.31,0.06,-0.06,-0.60,3.25,3.25,3.26
213.56,3.22,-0.00,3.23,0.01,-0.01,-0.54,3.21,3.22,3.23
215.69,3.13,-0.05,3.16,-0.02,0.02,-0.48,3.15,3.18,3.19
217.85,3.06,-0.09,3.10,-0.05,0.05,-0.42,3.11,3.14,3.15
220.03,3.03,-0.08,3.04,-0.07,0.07,-0.36,3.10,3.11,3.12
222.23,2.98,-0.10,3.00,-0.08,0.08,-0.31,3.07,3.08,3.09
224.45,2.94,-0.11,2.96,-0.10,0.10,-0.26,3.04,3.05,3.05
226.70,2.91,-0.11,2.92,-0.10,0.10,-0.20,3.02,3.02,3.03
228.96,2.88,-0.12,2.89,-0.11,0.11,-0.16,3.00,3.00,3.00
231.25,2.87,-0.10,2.86,-0.12,0.12,-0.11,2.99,2.98,2.98
233.57,2.85,-0.11,2.84,-0.13,0.13,-0.06,2.98,2.97,2.96
235.90,2.82,-0.12,2.82,-0.13,0.13,-0.02,2.96,2.95,2.94
238.26,2.80,-0.13,2.80,-0.15,0.15,0.02,2.95,2.94,2.93
240.64,2.78,-0.14,2.77,-0.16,0.16,0.06,2.94,2.93,2.92
243.05,2.77,-0.14,2.75,-0.17,0.17,0.09,2.95,2.92,2.91
245.48,2.74,-0.16,2.72,-0.19,0.19,0.12,2.94,2.91,2.91
247.93,2.70,-0.20,2.69,-0.21,0.21,0.15,2.92,2.90,2.90
250.41,2.68,-0.22,2.66,-0.23,0.23,0.18,2.92,2.89,2.90
252.92,2.63,-0.27,2.63,-0.26,0.26,0.21,2.89,2.89,2.90
255.45,2.61,-0.29,2.61,-0.28,0.28,0.23,2.89,2.89,2.90
258.00,2.58,-0.32,2.59,-0.30,0.30,0.25,2.88,2.89,2.90
260.58,2.55,-0.35,2.57,-0.32,0.32,0.27,2.87,2.89,2.90
263.19,2.53,-0.37,2.56,-0.33,0.33,0.29,2.87,2.89,2.90
265.82,2.50,-0.40,2.55,-0.35,0.35,0.30,2.85,2.89,2.90
268.48,2.51,-0.39,2.55,-0.35,0.35,0.32,2.87,2.90,2.91
271.16,2.52,-0.39,2.55,-0.36,0.36,0.33,2.88,2.90,2.91
273.87,2.55,-0.36,2.56,-0.35,0.35,0.34,2.91,2.91,2.92
276.61,2.58,-0.34,2.57,-0.35,0.35,0.35,2.93,2.92,2.93
279.38,2.60,-0.33,2.60,-0.34,0.34,0.35,2.94,2.93,2.94
282.17,2.63,-0.31,2.63,-0.32,0.32,0.36,2.95,2.95,2.95
284.99,2.66,-0.29,2.66,-0.30,0.30,0.36,2.97,2.96,2.96
287.84,2.69,-0.27,2.69,-0.28,0.28,0.36,2.98,2.97,2.97
290.72,2.72,-0.26,2.73,-0.26,0.26,0.37,2.98,2.98,2.98
293.63,2.76,-0.23,2.76,-0.23,0.23,0.37,3.00,2.99,2.99
296.57,2.79,-0.21,2.80,-0.20,0.20,0.37,3.00,3.00,3.01
299.53,2.84,-0.17,2.83,-0.17,0.17,0.37,3.02,3.01,3.01
302.53,2.88,-0.14,2.87,-0.14,0.14,0.37,3.03,3.01,3.02
305.55,2.92,-0.10,2.91,-0.11,0.11,0.37,3.03,3.02,3.03
308.61,2.96,-0.07,2.95,-0.07,0.07,0.36,3.04,3.03,3.03
311.69,2.99,-0.04,2.99,-0.04,0.04,0.36,3.03,3.03,3.04
314.81,3.01,-0.03,3.04,-0.00,0.00,0.36,3.02,3.04,3.04
317.96,3.05,0.01,3.08,0.04,-0.04,0.36,3.02,3.04,3.05
321.14,3.10,0.06,3.12,0.08,-0.08,0.36,3.02,3.04,3.05
324.35,3.15,0.11,3.17,0.12,-0.12,0.35,3.03,3.05,3.05
327.59,3.20,0.15,3.21,0.16,-0.16,0.35,3.04,3.05,3.05
330.87,3.25,0.20,3.26,0.21,-0.21,0.35,3.05,3.05,3.05
334.18,3.31,0.26,3.30,0.25,-0.25,0.35,3.07,3.05,3.05
337.52,3.35,0.30,3.34,0.29,-0.29,0.35,3.07,3.06,3.06
340.90,3.39,0.34,3.39,0.33,-0.33,0.34,3.07,3.06,3.06
344.30,3.42,0.36,3.42,0.36,-0.36,0.34,3.06,3.06,3.06
347.75,3.44,0.38,3.46,0.39,-0.39,0.34,3.05,3.06,3.06
351.23,3.47,0.41,3.48,0.42,-0.42,0.34,3.05,3.06,3.06
354.74,3.50,0.45,3.50,0.44,-0.44,0.34,3.06,3.06,3.06
358.28,3.53,0.48,3.51,0.46,-0.46,0.34,3.07,3.05,3.06
361.87,3.55,0.50,3.52,0.47,-0.47,0.34,3.08,3.05,3.05
365.49,3.54,0.50,3.52,0.48,-0.48,0.34,3.07,3.04,3.04
369.14,3.53,0.50,3.51,0.48,-0.48,0.34,3.06,3.03,3.04
372.83,3.51,0.49,3.50,0.47,-0.47,0.34,3.04,3.03,3.03
376.56,3.47,0.46,3.48,0.47,-0.47,0.35,3.01,3.02,3.02
380.33,3.44,0.43,3.46,0.45,-0.45,0.35,2.99,3.01,3.01
384.13,3.41,0.41,3.43,0.44,-0.44,0.35,2.98,3.00,3.00
387.97,3.39,0.40,3.40,0.41,-0.41,0.35,2.98,2.99,2.99
391.85,3.36,0.39,3.37,0.39,-0.39,0.36,2.97,2.97,2.98
395.77,3.32,0.36,3.33,0.37,-0.37,0.36,2.96,2.96,2.97
399.73,3.28,0.33,3.29,0.34,-0.34,0.36,2.95,2.95,2.96
403.72,3.24,0.30,3.25,0.31,-0.31,0.37,2.94,2.94,2.95
407.76,3.20,0.27,3.21,0.28,-0.28,0.37,2.93,2.93,2.93
411.84,3.16,0.24,3.17,0.25,-0.25,0.38,2.92,2.92,2.92
415.96,3.11,0.20,3.12,0.21,-0.21,0.38,2.90,2.91,2.91
420.12,3.07,0.17,3.08,0.18,-0.18,0.39,2.90,2.90,2.90
424.32,3.02,0.13,3.03,0.14,-0.14,0.40,2.89,2.89,2.89
428.56,2.98,0.10,2.98,0.10,-0.10,0.40,2.89,2.88,2.88
432.85,2.93,0.06,2.93,0.05,-0.05,0.41,2.88,2.88,2.88
437.18,2.89,0.03,2.88,0.01,-0.01,0.42,2.88,2.87,2.87
441.55,2.84,-0.02,2.83,-0.04,0.04,0.43,2.88,2.87,2.86
445.96,2.79,-0.07,2.78,-0.09,0.09,0.44,2.88,2.87,2.86
450.42,2.72,-0.14,2.73,-0.14,0.14,0.45,2.86,2.86,2.86
454.93,2.65,-0.21,2.67,-0.19,0.19,0.46,2.84,2.86,2.86
459.48,2.60,-0.26,2.62,-0.24,0.24,0.47,2.85,2.86,2.87
464.07,2.56,-0.30,2.57,-0.30,0.30,0.48,2.86,2.87,2.87
468.71,2.51,-0.36,2.51,-0.36,0.36,0.49,2.87,2.87,2.87
473.40,2.46,-0.41,2.46,-0.41,0.41,0.50,2.88,2.87,2.88
478.13,2.40,-0.48,2.40,-0.47,0.47,0.52,2.87,2.87,2.88
482.91,2.34,-0.54,2.35,-0.53,0.53,0.53,2.87,2.88,2.88
487.74,2.29,-0.59,2.29,-0.58,0.58,0.54,2.88,2.88,2.89
492.62,2.23,-0.65,2.24,-0.64,0.64,0.56,2.88,2.88,2.89
497.55,2.19,-0.70,2.19,-0.70,0.70,0.57,2.89,2.89,2.89
502.52,2.14,-0.75,2.14,-0.75,0.75,0.59,2.90,2.89,2.89
507.55,2.09,-0.80,2.09,-0.81,0.81,0.61,2.91,2.90,2.89
512.62,2.02,-0.87,2.03,-0.87,0.87,0.62,2.89,2.90,2.90
517.75,1.96,-0.93,1.98,-0.93,0.93,0.64,2.89,2.90,2.90
522.93,1.91,-0.99,1.92,-0.98,0.98,0.66,2.90,2.90,2.90
528.16,1.87,-1.03,1.87,-1.04,1.04,0.68,2.91,2.91,2.91
533.44,1.83,-1.08,1.81,-1.10,1.10,0.70,2.93,2.91,2.91
538.77,1.77,-1.14,1.76,-1.15,1.15,0.72,2.93,2.91,2.91
544.16,1.70,-1.21,1.71,-1.21,1.21,0.75,2.91,2.92,2.92
549.60,1.64,-1.28,1.65,-1.27,1.27,0.77,2.91,2.92,2.92
555.10,1.58,-1.34,1.60,-1.32,1.32,0.79,2.91,2.92,2.93
560.65,1.54,-1.39,1.55,-1.38,1.38,0.82,2.92,2.93,2.93
566.25,1.50,-1.43,1.50,-1.43,1.43,0.84,2.93,2.93,2.93
571.92,1.45,-1.48,1.45,-1.48,1.48,0.87,2.93,2.93,2.94
577.64,1.40,-1.54,1.40,-1.53,1.53,0.90,2.93,2.94,2.94
583.41,1.36,-1.58,1.36,-1.58,1.58,0.92,2.94,2.94,2.94
589.25,1.31,-1.63,1.31,-1.63,1.63,0.95,2.94,2.94,2.94
595.14,1.27,-1.67,1.27,-1.67,1.67,0.98,2.94,2.94,2.95
601.09,1.23,-1.71,1.23,-1.71,1.71,1.02,2.95,2.94,2.95
607.10,1.19,-1.75,1.19,-1.75,1.75,1.05,2.95,2.95,2.95
613.17,1.14,-1.81,1.16,-1.79,1.79,1.08,2.94,2.95,2.95
619.30,1.10,-1.85,1.12,-1.83,1.83,1.12,2.94,2.96,2.95
625.50,1.07,-1.88,1.09,-1.87,1.87,1.15,2.95,2.96,2.96
631.75,1.04,-1.92,1.06,-1.91,1.91,1.19,2.95,2.97,2.96
638.07,1.02,-1.94,1.03,-1.95,1.95,1.23,2.97,2.97,2.97
644.45,1.00,-1.97,1.00,-1.98,1.98,1.26,2.99,2.98,2.98
650.89,0.98,-2.00,0.97,-2.02,2.02,1.31,3.00,2.99,2.99
657.40,0.95,-2.04,0.94,-2.06,2.06,1.35,3.01,3.00,3.00
663.98,0.92,-2.08,0.92,-2.09,2.09,1.39,3.02,3.01,3.01
670.62,0.89,-2.12,0.89,-2.13,2.13,1.43,3.02,3.02,3.02
677.32,0.86,-2.16,0.86,-2.16,2.16,1.48,3.03,3.02,3.02
684.10,0.83,-2.20,0.83,-2.20,2.20,1.53,3.03,3.03,3.03
690.94,0.80,-2.23,0.80,-2.23,2.23,1.57,3.04,3.03,3.04
697.85,0.77,-2.26,0.77,-2.26,2.26,1.62,3.04,3.03,3.04
704.83,0.75,-2.28,0.74,-2.29,2.29,1.68,3.04,3.03,3.04
711.87,0.71,-2.32,0.71,-2.31,2.31,1.73,3.03,3.02,3.03
718.99,0.68,-2.35,0.68,-2.33,2.33,1.78,3.02,3.01,3.03
726.18,0.65,-2.37,0.66,-2.35,2.35,1.84,3.00,3.01,3.02
733.44,0.62,-2.39,0.64,-2.36,2.36,1.89,2.98,3.00,3.01
740.78,0.60,-2.40,0.63,-2.36,2.36,1.95,2.97,2.99,3.01
748.19,0.58,-2.41,0.62,-2.37,2.37,2.01,2.95,2.98,2.99
755.67,0.57,-2.41,0.61,-2.36,2.36,2.07,2.94,2.97,2.98
