frequency,raw,error,smoothed,error_smoothed,equalization,parametric_eq,fixed_band_eq,equalized_raw,equalized_smoothed,target
20.00,4.89,1.85,4.89,1.84,-1.85,-1.64,-0.61,3.04,3.04,3.04
20.20,4.89,1.86,4.89,1.86,-1.86,-1.65,-0.63,3.03,3.03,3.03
20.40,4.90,1.88,4.90,1.88,-1.88,-1.65,-0.65,3.02,3.02,3.02
20.61,4.90,1.89,4.90,1.89,-1.89,-1.66,-0.67,3.01,3.01,3.01
20.81,4.90,1.91,4.90,1.91,-1.90,-1.66,-0.69,3.00,3.00,2.99
21.02,4.90,1.92,4.90,1.92,-1.91,-1.66,-0.71,2.99,2.99,2.98
21.23,4.90,1.93,4.90,1.92,-1.92,-1.66,-0.74,2.98,2.98,2.97
21.44,4.90,1.92,4.90,1.93,-1.93,-1.66,-0.76,2.97,2.97,2.98
21.66,4.90,1.94,4.90,1.93,-1.94,-1.66,-0.78,2.96,2.96,2.96
21.87,4.90,1.94,4.90,1.94,-1.95,-1.65,-0.81,2.95,2.95,2.96
22.09,4.90,1.96,4.90,1.95,-1.96,-1.65,-0.83,2.94,2.94,2.94
22.31,4.90,1.96,4.90,1.96,-1.97,-1.64,-0.86,2.93,2.93,2.94
22.54,4.90,1.97,4.90,1.97,-1.98,-1.64,-0.89,2.92,2.92,2.93
22.76,4.91,1.98,4.91,1.98,-1.99,-1.63,-0.91,2.92,2.92,2.93
22.99,4.91,1.99,4.91,1.99,-1.99,-1.62,-0.94,2.91,2.92,2.92
23.22,4.92,2.01,4.91,2.00,-2.00,-1.61,-0.97,2.92,2.92,2.91
23.45,4.91,1.99,4.91,2.00,-2.00,-1.60,-1.00,2.91,2.91,2.91
23.69,4.90,1.99,4.90,2.00,-1.99,-1.59,-1.03,2.91,2.91,2.90
23.92,4.89,1.99,4.88,1.98,-1.98,-1.58,-1.06,2.91,2.91,2.89
24.16,4.87,1.96,4.87,1.97,-1.96,-1.57,-1.09,2.90,2.90,2.90
24.40,4.84,1.94,4.84,1.94,-1.94,-1.56,-1.12,2.90,2.90,2.90
24.65,4.82,1.92,4.82,1.91,-1.92,-1.55,-1.15,2.90,2.90,2.90
24.89,4.79,1.89,4.79,1.89,-1.89,-1.54,-1.19,2.90,2.90,2.90
25.14,4.76,1.87,4.76,1.87,-1.86,-1.53,-1.22,2.89,2.89,2.89
25.39,4.73,1.84,4.73,1.84,-1.84,-1.52,-1.25,2.89,2.89,2.89
25.65,4.70,1.81,4.70,1.81,-1.81,-1.51,-1.29,2.89,2.89,2.89
25.91,4.67,1.78,4.67,1.78,-1.79,-1.50,-1.32,2.88,2.89,2.89
26.16,4.65,1.75,4.65,1.76,-1.76,-1.49,-1.35,2.89,2.89,2.90
26.43,4.64,1.74,4.63,1.74,-1.74,-1.48,-1.38,2.90,2.89,2.90
26.69,4.61,1.71,4.61,1.72,-1.72,-1.48,-1.42,2.89,2.90,2.89
26.96,4.59,1.69,4.59,1.70,-1.69,-1.47,-1.45,2.90,2.90,2.89
27.23,4.57,1.68,4.56,1.67,-1.67,-1.46,-1.48,2.90,2.89,2.89
27.50,4.54,1.65,4.54,1.65,-1.65,-1.45,-1.51,2.89,2.90,2.89
27.77,4.52,1.62,4.52,1.62,-1.62,-1.44,-1.54,2.90,2.90,2.90
28.05,4.50,1.60,4.50,1.60,-1.59,-1.43,-1.57,2.90,2.90,2.90
28.33,4.48,1.57,4.48,1.57,-1.57,-1.43,-1.59,2.91,2.91,2.91
28.62,4.45,1.54,4.45,1.54,-1.54,-1.42,-1.62,2.91,2.91,2.91
28.90,4.43,1.51,4.42,1.51,-1.51,-1.41,-1.64,2.92,2.91,2.92
29.19,4.39,1.47,4.39,1.48,-1.49,-1.41,-1.66,2.90,2.91,2.91
29.48,4.37,1.46,4.37,1.46,-1.46,-1.40,-1.68,2.90,2.91,2.91
29.78,4.35,1.44,4.35,1.44,-1.44,-1.39,-1.70,2.91,2.91,2.91
30.08,4.33,1.42,4.33,1.42,-1.42,-1.39,-1.72,2.91,2.91,2.91
30.38,4.30,1.40,4.30,1.40,-1.39,-1.38,-1.73,2.91,2.91,2.90
30.68,4.28,1.38,4.28,1.38,-1.37,-1.38,-1.74,2.90,2.90,2.90
30.99,4.25,1.35,4.25,1.35,-1.35,-1.37,-1.75,2.89,2.89,2.89
31.30,4.22,1.33,4.22,1.33,-1.33,-1.37,-1.75,2.88,2.88,2.89
31.61,4.19,1.30,4.19,1.31,-1.31,-1.36,-1.75,2.87,2.88,2.89
31.93,4.17,1.30,4.17,1.29,-1.29,-1.36,-1.75,2.88,2.88,2.87
32.24,4.15,1.27,4.15,1.28,-1.27,-1.36,-1.75,2.88,2.88,2.88
32.57,4.13,1.26,4.12,1.26,-1.25,-1.35,-1.75,2.88,2.87,2.86
32.89,4.10,1.24,4.10,1.23,-1.23,-1.35,-1.74,2.86,2.86,2.86
33.22,4.07,1.21,4.07,1.21,-1.22,-1.34,-1.73,2.85,2.85,2.86
33.55,4.04,1.18,4.04,1.19,-1.20,-1.34,-1.72,2.84,2.84,2.86
33.89,4.02,1.17,4.02,1.17,-1.18,-1.34,-1.70,2.84,2.84,2.84
34.23,4.00,1.17,4.00,1.16,-1.16,-1.33,-1.68,2.84,2.84,2.83
34.57,3.98,1.15,3.98,1.15,-1.14,-1.33,-1.67,2.84,2.84,2.83
34.92,3.95,1.13,3.95,1.12,-1.12,-1.33,-1.65,2.83,2.83,2.82
35.27,3.92,1.09,3.92,1.10,-1.10,-1.33,-1.63,2.82,2.82,2.83
35.62,3.89,1.08,3.89,1.07,-1.08,-1.32,-1.60,2.80,2.81,2.81
35.97,3.87,1.06,3.86,1.06,-1.07,-1.32,-1.58,2.80,2.79,2.81
36.33,3.84,1.05,3.84,1.05,-1.06,-1.32,-1.56,2.78,2.78,2.79
36.70,3.82,1.05,3.82,1.05,-1.05,-1.32,-1.53,2.77,2.77,2.77
37.06,3.80,1.04,3.80,1.04,-1.04,-1.31,-1.51,2.76,2.76,2.76
37.43,3.78,1.04,3.77,1.03,-1.03,-1.31,-1.48,2.75,2.74,2.74
37.81,3.75,1.02,3.75,1.03,-1.03,-1.31,-1.45,2.72,2.73,2.73
38.19,3.73,1.02,3.73,1.02,-1.02,-1.31,-1.43,2.71,2.71,2.70
38.57,3.71,1.02,3.70,1.01,-1.01,-1.31,-1.40,2.70,2.69,2.69
38.95,3.68,1.00,3.68,1.01,-1.00,-1.30,-1.37,2.68,2.68,2.67
39.34,3.64,0.99,3.64,0.99,-0.99,-1.30,-1.35,2.65,2.65,2.65
39.74,3.61,0.98,3.61,0.98,-0.97,-1.30,-1.32,2.63,2.63,2.63
40.14,3.57,0.96,3.57,0.96,-0.96,-1.30,-1.30,2.61,2.61,2.61
40.54,3.54,0.94,3.54,0.95,-0.95,-1.30,-1.27,2.59,2.58,2.60
40.94,3.51,0.94,3.51,0.93,-0.94,-1.30,-1.25,2.56,2.56,2.57
41.35,3.48,0.92,3.48,0.93,-0.94,-1.29,-1.22,2.54,2.54,2.55
41.76,3.46,0.93,3.46,0.93,-0.93,-1.29,-1.20,2.53,2.53,2.53
42.18,3.45,0.93,3.44,0.93,-0.92,-1.29,-1.18,2.52,2.52,2.52
42.60,3.43,0.93,3.42,0.93,-0.92,-1.29,-1.16,2.51,2.51,2.50
43.03,3.40,0.92,3.40,0.92,-0.91,-1.29,-1.14,2.49,2.49,2.48
43.46,3.36,0.91,3.36,0.91,-0.89,-1.29,-1.12,2.46,2.46,2.45
43.90,3.32,0.88,3.32,0.89,-0.88,-1.29,-1.10,2.44,2.44,2.44
44.33,3.28,0.87,3.28,0.87,-0.87,-1.29,-1.08,2.41,2.41,2.41
44.78,3.24,0.85,3.24,0.85,-0.85,-1.28,-1.06,2.39,2.38,2.39
45.23,3.20,0.83,3.20,0.83,-0.84,-1.28,-1.05,2.36,2.35,2.37
45.68,3.16,0.82,3.16,0.82,-0.84,-1.28,-1.03,2.32,2.32,2.33
46.13,3.13,0.82,3.13,0.82,-0.83,-1.28,-1.02,2.29,2.30,2.31
46.60,3.11,0.83,3.11,0.83,-0.84,-1.28,-1.00,2.27,2.27,2.28
47.06,3.10,0.85,3.09,0.84,-0.84,-1.28,-0.99,2.26,2.25,2.25
47.53,3.07,0.85,3.07,0.86,-0.85,-1.28,-0.98,2.22,2.22,2.22
48.01,3.04,0.87,3.04,0.86,-0.85,-1.28,-0.96,2.19,2.19,2.17
48.49,3.00,0.86,3.00,0.86,-0.85,-1.28,-0.95,2.14,2.14,2.14
48.97,2.96,0.86,2.96,0.86,-0.86,-1.28,-0.94,2.10,2.10,2.10
49.46,2.92,0.85,2.92,0.86,-0.86,-1.28,-0.93,2.06,2.06,2.07
49.96,2.88,0.86,2.88,0.86,-0.86,-1.27,-0.92,2.01,2.02,2.02
50.46,2.85,0.85,2.85,0.86,-0.87,-1.27,-0.91,1.98,1.98,1.99
50.96,2.82,0.86,2.82,0.86,-0.87,-1.27,-0.91,1.95,1.95,1.96
51.47,2.80,0.87,2.80,0.87,-0.87,-1.27,-0.90,1.93,1.93,1.93
51.99,2.77,0.88,2.77,0.88,-0.87,-1.27,-0.89,1.90,1.90,1.89
52.51,2.74,0.88,2.74,0.87,-0.86,-1.27,-0.89,1.88,1.87,1.86
53.03,2.70,0.86,2.70,0.86,-0.86,-1.27,-0.88,1.84,1.84,1.84
53.56,2.65,0.84,2.65,0.85,-0.85,-1.27,-0.88,1.80,1.80,1.80
54.10,2.61,0.85,2.61,0.84,-0.84,-1.27,-0.87,1.76,1.76,1.76
54.64,2.56,0.83,2.56,0.83,-0.84,-1.27,-0.87,1.72,1.72,1.73
55.18,2.52,0.82,2.52,0.82,-0.83,-1.27,-0.86,1.69,1.69,1.70
55.74,2.48,0.82,2.48,0.81,-0.83,-1.27,-0.86,1.65,1.66,1.66
56.29,2.46,0.82,2.45,0.82,-0.82,-1.27,-0.86,1.64,1.63,1.64
56.86,2.43,0.81,2.43,0.82,-0.82,-1.27,-0.85,1.61,1.61,1.62
57.42,2.41,0.83,2.41,0.83,-0.81,-1.27,-0.85,1.60,1.60,1.58
58.00,2.38,0.83,2.37,0.82,-0.80,-1.27,-0.85,1.57,1.57,1.55
58.58,2.34,0.81,2.34,0.81,-0.80,-1.27,-0.84,1.54,1.54,1.53
59.16,2.30,0.79,2.30,0.79,-0.80,-1.26,-0.84,1.50,1.50,1.51
59.76,2.26,0.78,2.26,0.78,-0.80,-1.26,-0.84,1.46,1.46,1.48
60.35,2.22,0.78,2.22,0.78,-0.80,-1.26,-0.84,1.41,1.41,1.44
60.96,2.18,0.78,2.18,0.79,-0.81,-1.26,-0.83,1.37,1.37,1.39
61.57,2.16,0.82,2.16,0.81,-0.82,-1.26,-0.83,1.34,1.33,1.34
62.18,2.14,0.84,2.14,0.84,-0.84,-1.26,-0.83,1.30,1.30,1.30
62.80,2.12,0.87,2.12,0.87,-0.85,-1.26,-0.82,1.27,1.27,1.25
63.43,2.10,0.89,2.09,0.88,-0.86,-1.26,-0.82,1.23,1.23,1.21
64.07,2.06,0.89,2.06,0.89,-0.87,-1.26,-0.82,1.18,1.19,1.17
64.71,2.02,0.88,2.02,0.89,-0.88,-1.26,-0.82,1.14,1.14,1.13
65.35,1.98,0.88,1.98,0.88,-0.88,-1.26,-0.81,1.10,1.10,1.10
66.01,1.94,0.88,1.94,0.88,-0.88,-1.26,-0.81,1.06,1.06,1.06
66.67,1.90,0.87,1.90,0.87,-0.88,-1.26,-0.81,1.02,1.01,1.03
67.33,1.86,0.88,1.86,0.87,-0.89,-1.26,-0.80,0.97,0.97,0.98
68.01,1.83,0.88,1.83,0.88,-0.89,-1.26,-0.80,0.93,0.94,0.95
68.69,1.81,0.90,1.81,0.90,-0.90,-1.26,-0.80,0.90,0.91,0.91
69.37,1.80,0.92,1.80,0.92,-0.92,-1.26,-0.80,0.88,0.88,0.88
70.07,1.78,0.94,1.77,0.94,-0.93,-1.26,-0.79,0.85,0.84,0.83
70.77,1.75,0.96,1.75,0.95,-0.94,-1.26,-0.79,0.80,0.80,0.79
71.48,1.71,0.95,1.71,0.96,-0.95,-1.26,-0.79,0.75,0.76,0.76
72.19,1.68,0.97,1.68,0.97,-0.96,-1.26,-0.79,0.72,0.71,0.71
72.91,1.64,0.97,1.64,0.97,-0.97,-1.26,-0.79,0.67,0.67,0.66
73.64,1.60,0.97,1.60,0.97,-0.97,-1.26,-0.78,0.62,0.62,0.63
74.38,1.56,0.97,1.56,0.97,-0.98,-1.26,-0.78,0.58,0.58,0.59
75.12,1.53,0.97,1.53,0.97,-0.99,-1.26,-0.78,0.54,0.54,0.56
75.87,1.51,0.98,1.51,0.98,-0.99,-1.26,-0.78,0.52,0.52,0.53
76.63,1.49,1.00,1.49,1.00,-1.00,-1.26,-0.78,0.49,0.49,0.49
77.40,1.48,1.01,1.47,1.01,-1.00,-1.26,-0.78,0.48,0.47,0.47
78.17,1.45,1.02,1.45,1.02,-1.00,-1.26,-0.79,0.45,0.45,0.42
78.95,1.42,1.01,1.42,1.01,-1.00,-1.26,-0.79,0.42,0.42,0.41
79.74,1.38,1.00,1.38,1.00,-0.99,-1.26,-0.79,0.38,0.38,0.38
80.54,1.34,0.99,1.34,0.99,-0.99,-1.26,-0.79,0.35,0.35,0.35
81.35,1.30,0.98,1.30,0.98,-0.98,-1.26,-0.80,0.32,0.31,0.32
82.16,1.26,0.96,1.26,0.97,-0.98,-1.26,-0.80,0.28,0.28,0.30
82.98,1.23,0.97,1.23,0.96,-0.98,-1.26,-0.80,0.25,0.25,0.26
83.81,1.20,0.96,1.20,0.97,-0.98,-1.26,-0.81,0.22,0.22,0.23
84.65,1.18,0.98,1.18,0.98,-0.99,-1.26,-0.82,0.19,0.20,0.20
85.50,1.17,1.00,1.17,1.00,-0.99,-1.26,-0.82,0.18,0.17,0.17
86.35,1.15,1.01,1.15,1.01,-0.99,-1.25,-0.83,0.15,0.15,0.14
87.22,1.12,1.01,1.12,1.01,-1.00,-1.25,-0.84,0.12,0.12,0.11
88.09,1.08,1.00,1.08,1.01,-1.00,-1.25,-0.85,0.08,0.08,0.07
88.97,1.04,1.00,1.04,1.00,-0.99,-1.25,-0.85,0.04,0.05,0.04
89.86,1.00,0.99,0.99,0.99,-0.99,-1.25,-0.86,0.01,0.00,0.01
90.76,0.95,0.97,0.95,0.98,-0.99,-1.25,-0.87,-0.04,-0.04,-0.02
91.66,0.91,0.98,0.91,0.97,-0.99,-1.25,-0.88,-0.08,-0.07,-0.07
92.58,0.88,0.97,0.88,0.97,-0.99,-1.25,-0.90,-0.11,-0.11,-0.09
93.51,0.86,0.99,0.86,0.99,-1.00,-1.25,-0.91,-0.14,-0.14,-0.13
94.44,0.84,1.00,0.84,1.00,-1.01,-1.25,-0.92,-0.17,-0.17,-0.16
95.39,0.82,1.03,0.82,1.02,-1.02,-1.25,-0.93,-0.20,-0.20,-0.21
96.34,0.80,1.04,0.79,1.04,-1.02,-1.25,-0.95,-0.23,-0.23,-0.25
97.30,0.76,1.04,0.76,1.05,-1.03,-1.25,-0.96,-0.27,-0.27,-0.28
98.28,0.72,1.05,0.72,1.05,-1.03,-1.25,-0.98,-0.32,-0.31,-0.33
99.26,0.68,1.04,0.67,1.04,-1.04,-1.25,-0.99,-0.36,-0.36,-0.37
100.25,0.63,1.03,0.63,1.03,-1.04,-1.25,-1.01,-0.41,-0.40,-0.40
101.25,0.59,1.02,0.59,1.02,-1.04,-1.25,-1.02,-0.45,-0.45,-0.43
102.27,0.56,1.02,0.56,1.02,-1.04,-1.25,-1.04,-0.48,-0.48,-0.46
103.29,0.53,1.02,0.53,1.03,-1.04,-1.25,-1.05,-0.51,-0.50,-0.50
104.32,0.52,1.04,0.51,1.04,-1.04,-1.25,-1.07,-0.52,-0.52,-0.52
105.37,0.50,1.05,0.49,1.05,-1.04,-1.25,-1.09,-0.54,-0.54,-0.55
106.42,0.47,1.05,0.47,1.05,-1.04,-1.25,-1.10,-0.57,-0.57,-0.58
107.48,0.44,1.06,0.44,1.05,-1.04,-1.25,-1.12,-0.60,-0.60,-0.62
108.56,0.40,1.04,0.40,1.04,-1.03,-1.25,-1.13,-0.64,-0.64,-0.65
109.64,0.36,1.03,0.35,1.03,-1.03,-1.25,-1.15,-0.67,-0.68,-0.67
110.74,0.31,1.02,0.31,1.02,-1.03,-1.25,-1.17,-0.72,-0.71,-0.71
111.85,0.27,1.02,0.27,1.01,-1.02,-1.25,-1.18,-0.76,-0.75,-0.75
112.97,0.24,1.01,0.23,1.01,-1.02,-1.25,-1.20,-0.79,-0.79,-0.77
114.10,0.20,1.01,0.20,1.02,-1.03,-1.25,-1.21,-0.83,-0.83,-0.81
115.24,0.18,1.04,0.18,1.03,-1.04,-1.25,-1.22,-0.86,-0.86,-0.86
116.39,0.16,1.05,0.16,1.05,-1.05,-1.25,-1.23,-0.89,-0.89,-0.89
117.55,0.14,1.07,0.14,1.07,-1.06,-1.25,-1.25,-0.92,-0.92,-0.93
118.73,0.12,1.08,0.12,1.08,-1.07,-1.25,-1.26,-0.95,-0.95,-0.96
119.92,0.10,1.09,0.10,1.09,-1.08,-1.25,-1.27,-0.98,-0.98,-0.99
121.12,0.08,1.09,0.08,1.09,-1.08,-1.25,-1.27,-1.01,-1.01,-1.01
122.33,0.05,1.09,0.05,1.09,-1.09,-1.25,-1.28,-1.04,-1.04,-1.05
123.55,0.02,1.09,0.02,1.09,-1.09,-1.25,-1.29,-1.08,-1.08,-1.07
124.79,-0.01,1.09,-0.01,1.09,-1.10,-1.25,-1.29,-1.11,-1.11,-1.10
126.03,-0.04,1.09,-0.04,1.09,-1.10,-1.25,-1.30,-1.14,-1.14,-1.13
127.29,-0.06,1.10,-0.06,1.10,-1.11,-1.25,-1.30,-1.17,-1.17,-1.16
128.57,-0.08,1.12,-0.08,1.12,-1.12,-1.25,-1.30,-1.20,-1.20,-1.20
129.85,-0.10,1.13,-0.11,1.13,-1.13,-1.25,-1.30,-1.23,-1.23,-1.23
131.15,-0.13,1.14,-0.13,1.14,-1.14,-1.25,-1.30,-1.27,-1.27,-1.27
132.46,-0.16,1.14,-0.16,1.15,-1.15,-1.25,-1.30,-1.31,-1.30,-1.30
133.79,-0.18,1.16,-0.18,1.15,-1.16,-1.25,-1.30,-1.34,-1.34,-1.34
135.12,-0.20,1.16,-0.20,1.16,-1.16,-1.25,-1.29,-1.36,-1.37,-1.37
136.48,-0.22,1.17,-0.22,1.17,-1.17,-1.25,-1.29,-1.39,-1.39,-1.39
137.84,-0.25,1.17,-0.25,1.17,-1.17,-1.25,-1.28,-1.42,-1.42,-1.43
139.22,-0.28,1.18,-0.28,1.18,-1.18,-1.25,-1.28,-1.46,-1.46,-1.46
140.61,-0.31,1.17,-0.31,1.18,-1.18,-1.25,-1.27,-1.49,-1.49,-1.48
142.02,-0.33,1.19,-0.34,1.18,-1.18,-1.25,-1.27,-1.51,-1.52,-1.52
143.44,-0.36,1.18,-0.36,1.18,-1.18,-1.25,-1.26,-1.55,-1.54,-1.54
144.87,-0.38,1.18,-0.38,1.18,-1.18,-1.25,-1.25,-1.57,-1.56,-1.56
146.32,-0.40,1.19,-0.40,1.18,-1.18,-1.25,-1.25,-1.58,-1.58,-1.59
147.78,-0.42,1.19,-0.42,1.19,-1.18,-1.25,-1.24,-1.60,-1.60,-1.61
149.26,-0.45,1.19,-0.45,1.18,-1.18,-1.25,-1.23,-1.63,-1.63,-1.64
150.75,-0.48,1.18,-0.48,1.18,-1.17,-1.25,-1.23,-1.66,-1.66,-1.67
152.26,-0.52,1.16,-0.52,1.17,-1.17,-1.25,-1.22,-1.69,-1.68,-1.68
153.78,-0.54,1.17,-0.55,1.16,-1.16,-1.25,-1.21,-1.71,-1.71,-1.71
155.32,-0.57,1.16,-0.57,1.16,-1.16,-1.25,-1.21,-1.74,-1.73,-1.73
156.88,-0.59,1.16,-0.59,1.17,-1.17,-1.25,-1.20,-1.76,-1.76,-1.76
158.44,-0.61,1.18,-0.62,1.17,-1.18,-1.25,-1.20,-1.79,-1.79,-1.79
160.03,-0.63,1.18,-0.63,1.18,-1.20,-1.26,-1.20,-1.83,-1.83,-1.81
161.63,-0.64,1.20,-0.64,1.21,-1.22,-1.26,-1.19,-1.86,-1.86,-1.84
163.24,-0.63,1.24,-0.63,1.24,-1.25,-1.26,-1.19,-1.89,-1.89,-1.88
164.88,-0.62,1.28,-0.62,1.29,-1.29,-1.26,-1.19,-1.91,-1.91,-1.90
166.53,-0.60,1.34,-0.61,1.33,-1.32,-1.26,-1.19,-1.92,-1.93,-1.94
168.19,-0.60,1.36,-0.60,1.37,-1.35,-1.26,-1.19,-1.96,-1.95,-1.96
169.87,-0.60,1.40,-0.60,1.40,-1.38,-1.26,-1.19,-1.99,-1.99,-2.00
171.57,-0.61,1.42,-0.61,1.42,-1.41,-1.26,-1.19,-2.02,-2.02,-2.04
173.29,-0.63,1.43,-0.63,1.43,-1.43,-1.26,-1.20,-2.06,-2.06,-2.06
175.02,-0.66,1.44,-0.66,1.44,-1.44,-1.26,-1.20,-2.11,-2.10,-2.10
176.77,-0.68,1.45,-0.68,1.45,-1.45,-1.26,-1.20,-2.13,-2.14,-2.13
178.54,-0.71,1.45,-0.71,1.46,-1.46,-1.26,-1.21,-2.17,-2.17,-2.17
180.32,-0.74,1.47,-0.74,1.46,-1.46,-1.26,-1.22,-2.20,-2.20,-2.21
182.13,-0.77,1.46,-0.77,1.46,-1.46,-1.26,-1.22,-2.23,-2.23,-2.23
183.95,-0.80,1.46,-0.80,1.47,-1.47,-1.26,-1.23,-2.27,-2.27,-2.26
185.79,-0.83,1.47,-0.83,1.47,-1.47,-1.26,-1.24,-2.30,-2.30,-2.30
187.65,-0.86,1.47,-0.86,1.47,-1.47,-1.26,-1.25,-2.33,-2.33,-2.34
189.52,-0.89,1.47,-0.89,1.48,-1.48,-1.26,-1.26,-2.37,-2.37,-2.37
191.42,-0.91,1.48,-0.91,1.48,-1.48,-1.26,-1.27,-2.40,-2.40,-2.39
193.33,-0.93,1.49,-0.93,1.49,-1.50,-1.26,-1.29,-2.43,-2.43,-2.42
195.27,-0.95,1.51,-0.95,1.51,-1.51,-1.26,-1.30,-2.47,-2.47,-2.46
197.22,-0.96,1.54,-0.96,1.53,-1.54,-1.26,-1.31,-2.50,-2.50,-2.50
199.19,-0.97,1.54,-0.97,1.56,-1.56,-1.26,-1.33,-2.54,-2.53,-2.52
201.18,-0.96,1.59,-0.96,1.59,-1.59,-1.26,-1.34,-2.55,-2.55,-2.55
203.19,-0.94,1.62,-0.95,1.62,-1.62,-1.26,-1.36,-2.56,-2.57,-2.57
205.23,-0.93,1.65,-0.93,1.66,-1.65,-1.26,-1.38,-2.58,-2.58,-2.58
207.28,-0.92,1.68,-0.92,1.68,-1.67,-1.26,-1.39,-2.60,-2.60,-2.61
209.35,-0.92,1.71,-0.92,1.71,-1.70,-1.26,-1.41,-2.62,-2.62,-2.63
211.44,-0.93,1.72,-0.93,1.72,-1.71,-1.26,-1.43,-2.64,-2.64,-2.65
213.56,-0.95,1.72,-0.95,1.72,-1.72,-1.26,-1.44,-2.67,-2.67,-2.67
215.69,-0.97,1.72,-0.97,1.72,-1.72,-1.26,-1.46,-2.70,-2.70,-2.69
217.85,-0.99,1.72,-0.99,1.72,-1.72,-1.26,-1.48,-2.71,-2.72,-2.71
220.03,-1.02,1.71,-1.02,1.72,-1.71,-1.26,-1.49,-2.74,-2.73,-2.74
222.23,-1.04,1.71,-1.05,1.71,-1.70,-1.27,-1.51,-2.74,-2.75,-2.76
224.45,-1.08,1.69,-1.08,1.69,-1.69,-1.27,-1.53,-2.77,-2.77,-2.77
226.70,-1.11,1.68,-1.11,1.67,-1.67,-1.27,-1.54,-2.78,-2.78,-2.79
228.96,-1.14,1.65,-1.14,1.65,-1.66,-1.27,-1.55,-2.80,-2.80,-2.79
231.25,-1.17,1.64,-1.17,1.63,-1.64,-1.27,-1.57,-2.81,-2.81,-2.81
233.57,-1.20,1.62,-1.20,1.62,-1.62,-1.27,-1.58,-2.82,-2.82,-2.82
235.90,-1.22,1.61,-1.23,1.60,-1.60,-1.27,-1.59,-2.82,-2.83,-2.83
238.26,-1.25,1.59,-1.25,1.59,-1.59,-1.27,-1.60,-2.84,-2.84,-2.85
240.64,-1.27,1.56,-1.27,1.57,-1.58,-1.27,-1.61,-2.85,-2.85,-2.84
243.05,-1.28,1.56,-1.28,1.56,-1.57,-1.27,-1.62,-2.85,-2.85,-2.84
245.48,-1.29,1.56,-1.29,1.56,-1.57,-1.27,-1.63,-2.86,-2.86,-2.85
247.93,-1.29,1.57,-1.29,1.56,-1.56,-1.27,-1.63,-2.86,-2.85,-2.86
250.41,-1.28,1.56,-1.29,1.56,-1.56,-1.27,-1.64,-2.85,-2.85,-2.85
252.92,-1.28,1.56,-1.28,1.57,-1.57,-1.27,-1.64,-2.85,-2.84,-2.84
255.45,-1.27,1.58,-1.27,1.57,-1.57,-1.28,-1.64,-2.84,-2.84,-2.85
258.00,-1.27,1.57,-1.27,1.57,-1.57,-1.28,-1.64,-2.84,-2.84,-2.85
260.58,-1.27,1.57,-1.27,1.57,-1.57,-1.28,-1.64,-2.84,-2.84,-2.84
263.19,-1.27,1.57,-1.27,1.57,-1.57,-1.28,-1.64,-2.84,-2.84,-2.84
265.82,-1.27,1.57,-1.27,1.57,-1.57,-1.28,-1.64,-2.84,-2.84,-2.85
268.48,-1.27,1.57,-1.27,1.57,-1.57,-1.28,-1.63,-2.84,-2.84,-2.84
271.16,-1.27,1.56,-1.27,1.57,-1.57,-1.28,-1.63,-2.84,-2.84,-2.84
273.87,-1.27,1.57,-1.27,1.57,-1.57,-1.28,-1.62,-2.84,-2.84,-2.84
276.61,-1.27,1.56,-1.27,1.57,-1.57,-1.28,-1.62,-2.84,-2.84,-2.84
279.38,-1.27,1.58,-1.27,1.57,-1.57,-1.29,-1.61,-2.84,-2.84,-2.85
282.17,-1.27,1.57,-1.27,1.57,-1.57,-1.29,-1.60,-2.84,-2.84,-2.85
284.99,-1.27,1.56,-1.27,1.57,-1.56,-1.29,-1.60,-2.83,-2.83,-2.83
287.84,-1.27,1.55,-1.27,1.56,-1.56,-1.29,-1.59,-2.83,-2.83,-2.83
290.72,-1.27,1.56,-1.27,1.55,-1.55,-1.29,-1.58,-2.82,-2.82,-2.83
293.63,-1.27,1.54,-1.27,1.55,-1.54,-1.29,-1.57,-2.82,-2.82,-2.81
296.57,-1.27,1.54,-1.27,1.54,-1.54,-1.29,-1.56,-2.81,-2.81,-2.81
299.53,-1.27,1.53,-1.27,1.53,-1.53,-1.30,-1.56,-2.80,-2.80,-2.80
302.53,-1.27,1.51,-1.27,1.52,-1.52,-1.30,-1.55,-2.79,-2.79,-2.78
305.55,-1.27,1.52,-1.27,1.51,-1.51,-1.30,-1.54,-2.78,-2.78,-2.79
308.61,-1.27,1.50,-1.27,1.50,-1.50,-1.30,-1.54,-2.77,-2.77,-2.77
311.69,-1.27,1.49,-1.27,1.50,-1.49,-1.30,-1.53,-2.77,-2.77,-2.76
314.81,-1.27,1.49,-1.27,1.48,-1.48,-1.31,-1.53,-2.76,-2.76,-2.76
317.96,-1.27,1.48,-1.27,1.48,-1.48,-1.31,-1.52,-2.75,-2.75,-2.75
321.14,-1.27,1.46,-1.27,1.47,-1.47,-1.31,-1.52,-2.74,-2.74,-2.73
324.35,-1.27,1.46,-1.27,1.46,-1.46,-1.31,-1.52,-2.73,-2.73,-2.74
327.59,-1.27,1.44,-1.27,1.45,-1.45,-1.32,-1.52,-2.72,-2.72,-2.71
330.87,-1.27,1.44,-1.27,1.44,-1.44,-1.32,-1.52,-2.71,-2.71,-2.71
334.18,-1.27,1.43,-1.27,1.43,-1.43,-1.32,-1.52,-2.70,-2.70,-2.70
337.52,-1.27,1.42,-1.27,1.42,-1.42,-1.32,-1.52,-2.69,-2.69,-2.70
340.90,-1.27,1.41,-1.27,1.41,-1.41,-1.33,-1.52,-2.68,-2.68,-2.68
344.30,-1.27,1.40,-1.27,1.40,-1.40,-1.33,-1.53,-2.67,-2.67,-2.67
347.75,-1.27,1.39,-1.27,1.39,-1.39,-1.33,-1.53,-2.66,-2.66,-2.66
351.23,-1.27,1.39,-1.27,1.38,-1.38,-1.34,-1.54,-2.66,-2.66,-2.66
354.74,-1.27,1.36,-1.27,1.37,-1.37,-1.34,-1.55,-2.65,-2.65,-2.64
358.28,-1.27,1.37,-1.27,1.37,-1.37,-1.34,-1.56,-2.64,-2.64,-2.64
361.87,-1.27,1.36,-1.27,1.36,-1.36,-1.35,-1.57,-2.63,-2.63,-2.63
365.49,-1.27,1.35,-1.27,1.35,-1.35,-1.35,-1.58,-2.62,-2.62,-2.62
369.14,-1.27,1.33,-1.27,1.34,-1.34,-1.35,-1.59,-2.61,-2.61,-2.60
372.83,-1.27,1.32,-1.27,1.33,-1.33,-1.36,-1.61,-2.60,-2.60,-2.60
376.56,-1.27,1.32,-1.27,1.32,-1.31,-1.36,-1.62,-2.58,-2.58,-2.60
380.33,-1.27,1.32,-1.28,1.31,-1.30,-1.37,-1.64,-2.57,-2.58,-2.59
384.13,-1.28,1.29,-1.28,1.29,-1.29,-1.37,-1.66,-2.57,-2.57,-2.57
387.97,-1.29,1.27,-1.29,1.27,-1.28,-1.38,-1.67,-2.57,-2.57,-2.56
391.85,-1.29,1.26,-1.29,1.26,-1.27,-1.38,-1.69,-2.56,-2.56,-2.55
395.77,-1.28,1.26,-1.28,1.26,-1.26,-1.39,-1.71,-2.55,-2.55,-2.54
399.73,-1.27,1.26,-1.27,1.26,-1.26,-1.39,-1.73,-2.53,-2.53,-2.53
403.72,-1.25,1.25,-1.25,1.26,-1.26,-1.40,-1.75,-2.52,-2.52,-2.51
407.76,-1.23,1.27,-1.23,1.27,-1.27,-1.41,-1.78,-2.51,-2.51,-2.51
411.84,-1.21,1.29,-1.21,1.28,-1.29,-1.41,-1.80,-2.50,-2.49,-2.50
415.96,-1.18,1.30,-1.18,1.30,-1.30,-1.42,-1.82,-2.48,-2.48,-2.48
420.12,-1.15,1.33,-1.15,1.32,-1.32,-1.43,-1.84,-2.47,-2.47,-2.48
424.32,-1.12,1.35,-1.12,1.34,-1.34,-1.43,-1.87,-2.47,-2.47,-2.47
428.56,-1.09,1.36,-1.09,1.36,-1.37,-1.44,-1.89,-2.46,-2.46,-2.45
432.85,-1.06,1.38,-1.06,1.38,-1.39,-1.45,-1.91,-2.45,-2.45,-2.44
437.18,-1.03,1.41,-1.03,1.41,-1.41,-1.46,-1.94,-2.44,-2.44,-2.44
441.55,-1.00,1.43,-1.00,1.43,-1.43,-1.47,-1.96,-2.43,-2.43,-2.43
445.96,-0.97,1.45,-0.97,1.45,-1.44,-1.48,-1.98,-2.42,-2.42,-2.42
450.42,-0.95,1.46,-0.95,1.46,-1.45,-1.49,-2.00,-2.40,-2.40,-2.42
454.93,-0.94,1.46,-0.94,1.47,-1.45,-1.50,-2.02,-2.39,-2.39,-2.41
459.48,-0.93,1.46,-0.93,1.46,-1.45,-1.51,-2.03,-2.38,-2.38,-2.40
464.07,-0.93,1.45,-0.94,1.45,-1.44,-1.52,-2.05,-2.37,-2.38,-2.38
468.71,-0.94,1.43,-0.94,1.43,-1.43,-1.53,-2.06,-2.37,-2.37,-2.37
473.40,-0.95,1.41,-0.95,1.41,-1.42,-1.54,-2.08,-2.37,-2.37,-2.36
478.13,-0.95,1.40,-0.95,1.40,-1.41,-1.56,-2.09,-2.36,-2.36,-2.35
