frequency,raw,smoothed,error,error_smoothed,equalization,parametric_eq,fixed_band_eq,equalized_raw,equalized_smoothed,target
20.00,-3.99,-3.99,-9.50,-9.50,6.00,4.36,2.29,2.01,2.01,5.51
20.20,-3.81,-3.80,-9.37,-9.37,6.00,4.36,2.36,2.19,2.20,5.56
20.40,-3.62,-3.62,-9.24,-9.23,6.00,4.36,2.43,2.38,2.38,5.61
20.61,-3.45,-3.44,-9.09,-9.09,6.00,4.36,2.50,2.55,2.56,5.64
20.81,-3.25,-3.26,-8.94,-8.95,6.00,4.36,2.57,2.75,2.74,5.69
21.02,-3.08,-3.08,-8.81,-8.80,6.00,4.36,2.64,2.92,2.92,5.73
21.23,-2.92,-2.91,-8.66,-8.67,6.00,4.36,2.72,3.08,3.09,5.75
21.44,-2.75,-2.75,-8.52,-8.52,6.00,4.36,2.80,3.25,3.25,5.77
21.66,-2.60,-2.59,-8.39,-8.37,6.00,4.35,2.88,3.40,3.41,5.79
21.87,-2.43,-2.45,-8.23,-8.25,6.00,4.35,2.96,3.57,3.55,5.80
22.09,-2.33,-2.35,-8.14,-8.16,6.00,4.35,3.05,3.67,3.65,5.82
22.31,-2.30,-2.28,-8.12,-8.11,6.00,4.35,3.14,3.70,3.72,5.83
22.54,-2.26,-2.26,-8.08,-8.09,6.00,4.35,3.23,3.74,3.74,5.83
22.76,-2.22,-2.23,-8.04,-8.05,6.00,4.35,3.32,3.78,3.77,5.82
22.99,-2.18,-2.13,-7.99,-7.94,6.00,4.35,3.41,3.82,3.87,5.81
23.22,-1.97,-1.97,-7.78,-7.79,6.00,4.35,3.51,4.03,4.03,5.81
23.45,-1.74,-1.75,-7.56,-7.57,6.00,4.35,3.61,4.26,4.25,5.81
23.69,-1.52,-1.51,-7.34,-7.33,6.00,4.34,3.71,4.48,4.49,5.82
23.92,-1.29,-1.32,-7.12,-7.14,6.00,4.34,3.81,4.71,4.68,5.82
24.16,-1.14,-1.15,-6.98,-6.98,6.00,4.34,3.92,4.86,4.85,5.83
24.40,-1.02,-1.01,-6.86,-6.84,6.00,4.34,4.03,4.98,4.99,5.84
24.65,-0.90,-0.89,-6.73,-6.72,6.00,4.34,4.14,5.10,5.11,5.83
24.89,-0.77,-0.79,-6.60,-6.62,6.00,4.34,4.25,5.23,5.21,5.83
25.14,-0.72,-0.73,-6.54,-6.56,6.01,4.34,4.36,5.29,5.28,5.83
25.39,-0.71,-0.71,-6.54,-6.54,6.02,4.33,4.47,5.31,5.31,5.84
25.65,-0.69,-0.69,-6.52,-6.53,6.02,4.33,4.58,5.34,5.33,5.83
25.91,-0.68,-0.64,-6.50,-6.47,6.01,4.33,4.69,5.34,5.37,5.82
26.16,-0.54,-0.54,-6.37,-6.36,5.99,4.33,4.80,5.45,5.46,5.82
26.43,-0.37,-0.37,-6.19,-6.19,5.96,4.33,4.92,5.59,5.59,5.82
26.69,-0.19,-0.19,-6.01,-6.01,5.91,4.33,5.03,5.73,5.73,5.82
26.96,-0.01,-0.03,-5.84,-5.86,5.85,4.32,5.14,5.85,5.82,5.83
27.23,0.08,0.08,-5.74,-5.75,5.78,4.32,5.24,5.86,5.86,5.83
27.50,0.15,0.16,-5.67,-5.66,5.69,4.32,5.35,5.85,5.85,5.83
27.77,0.23,0.23,-5.59,-5.59,5.59,4.32,5.45,5.82,5.82,5.81
28.05,0.30,0.31,-5.51,-5.50,5.49,4.32,5.54,5.80,5.80,5.81
28.33,0.41,0.41,-5.40,-5.40,5.39,4.31,5.63,5.80,5.80,5.80
28.62,0.50,0.50,-5.30,-5.30,5.30,4.31,5.72,5.80,5.80,5.80
28.90,0.60,0.60,-5.20,-5.21,5.22,4.31,5.80,5.82,5.81,5.81
29.19,0.67,0.68,-5.12,-5.13,5.14,4.31,5.88,5.82,5.82,5.80
29.48,0.74,0.75,-5.07,-5.06,5.08,4.30,5.94,5.82,5.82,5.82
29.78,0.80,0.81,-5.00,-5.00,5.02,4.30,6.00,5.82,5.82,5.80
30.08,0.86,0.85,-4.95,-4.95,4.97,4.30,6.05,5.83,5.82,5.81
30.38,0.88,0.88,-4.92,-4.92,4.92,4.30,6.09,5.81,5.81,5.80
30.68,0.90,0.91,-4.89,-4.89,4.88,4.29,6.12,5.79,5.79,5.80
30.99,0.92,0.93,-4.87,-4.86,4.84,4.29,6.15,5.77,5.78,5.80
31.30,0.97,0.98,-4.82,-4.82,4.80,4.29,6.16,5.78,5.78,5.79
31.61,1.03,1.03,-4.76,-4.76,4.76,4.28,6.17,5.79,5.79,5.79
31.93,1.09,1.09,-4.70,-4.70,4.71,4.28,6.16,5.80,5.80,5.79
32.24,1.15,1.14,-4.63,-4.64,4.65,4.28,6.15,5.79,5.79,5.78
32.57,1.19,1.19,-4.59,-4.59,4.58,4.27,6.12,5.77,5.77,5.78
32.89,1.25,1.25,-4.54,-4.52,4.50,4.27,6.10,5.74,5.75,5.78
33.22,1.33,1.34,-4.43,-4.43,4.41,4.27,6.05,5.74,5.75,5.77
33.55,1.44,1.43,-4.33,-4.33,4.32,4.26,6.01,5.75,5.75,5.77
33.89,1.54,1.53,-4.21,-4.22,4.23,4.26,5.95,5.77,5.76,5.75
34.23,1.62,1.63,-4.14,-4.13,4.14,4.25,5.90,5.76,5.77,5.76
34.57,1.70,1.71,-4.04,-4.04,4.06,4.25,5.83,5.76,5.77,5.75
34.92,1.78,1.77,-3.96,-3.97,3.98,4.24,5.76,5.76,5.75,5.74
35.27,1.82,1.83,-3.92,-3.91,3.92,4.24,5.69,5.74,5.75,5.74
35.62,1.85,1.86,-3.88,-3.88,3.88,4.24,5.61,5.74,5.74,5.74
35.97,1.88,1.88,-3.85,-3.86,3.87,4.23,5.53,5.75,5.74,5.73
36.33,1.88,1.89,-3.86,-3.84,3.87,4.23,5.44,5.75,5.76,5.74
36.70,1.88,1.89,-3.84,-3.84,3.88,4.22,5.36,5.76,5.76,5.73
37.06,1.87,1.85,-3.85,-3.88,3.89,4.21,5.27,5.77,5.75,5.72
37.43,1.80,1.80,-3.93,-3.93,3.92,4.21,5.19,5.72,5.72,5.74
37.81,1.73,1.75,-4.00,-3.98,3.95,4.20,5.10,5.68,5.70,5.73
38.19,1.72,1.74,-4.00,-3.99,3.97,4.20,5.01,5.69,5.71,5.73
38.57,1.76,1.76,-3.97,-3.97,3.98,4.19,4.93,5.74,5.73,5.73
38.95,1.80,1.78,-3.93,-3.95,3.95,4.18,4.84,5.76,5.74,5.74
39.34,1.80,1.79,-3.93,-3.95,3.90,4.18,4.76,5.71,5.69,5.73
39.74,1.79,1.81,-3.93,-3.92,3.83,4.17,4.68,5.63,5.64,5.73
40.14,1.85,1.90,-3.88,-3.83,3.76,4.16,4.60,5.61,5.65,5.73
40.54,2.02,2.02,-3.70,-3.70,3.69,4.16,4.53,5.71,5.71,5.73
40.94,2.20,2.16,-3.52,-3.57,3.64,4.15,4.45,5.85,5.80,5.72
41.35,2.22,2.24,-3.49,-3.48,3.62,4.14,4.38,5.84,5.86,5.72
41.76,2.23,2.23,-3.48,-3.48,3.62,4.13,4.31,5.85,5.85,5.71
42.18,2.16,2.13,-3.55,-3.58,3.63,4.12,4.24,5.79,5.76,5.71
42.60,1.99,2.00,-3.70,-3.70,3.67,4.12,4.18,5.66,5.67,5.70
43.03,1.84,1.89,-3.85,-3.81,3.72,4.11,4.12,5.56,5.61,5.69
43.46,1.81,1.81,-3.87,-3.87,3.78,4.10,4.06,5.59,5.59,5.68
43.90,1.79,1.79,-3.86,-3.87,3.83,4.09,4.01,5.63,5.62,5.65
44.33,1.78,1.79,-3.85,-3.85,3.86,4.08,3.96,5.64,5.64,5.64
44.78,1.78,1.78,-3.83,-3.84,3.85,4.07,3.91,5.64,5.63,5.62
45.23,1.78,1.78,-3.83,-3.83,3.82,4.06,3.86,5.60,5.59,5.61
45.68,1.78,1.79,-3.81,-3.80,3.77,4.04,3.82,5.56,5.56,5.59
46.13,1.82,1.84,-3.76,-3.74,3.72,4.03,3.78,5.54,5.57,5.57
46.60,1.91,1.91,-3.66,-3.66,3.67,4.02,3.74,5.59,5.58,5.57
47.06,2.00,1.97,-3.55,-3.59,3.63,4.01,3.71,5.63,5.60,5.55
47.53,1.99,2.00,-3.55,-3.55,3.59,4.00,3.68,5.58,5.59,5.54
48.01,1.98,2.00,-3.56,-3.54,3.55,3.98,3.65,5.54,5.55,5.54
48.49,1.98,1.98,-3.54,-3.54,3.53,3.97,3.63,5.51,5.51,5.52
48.97,1.98,1.98,-3.52,-3.52,3.50,3.95,3.60,5.49,5.49,5.50
49.46,1.98,1.98,-3.50,-3.50,3.48,3.94,3.58,5.47,5.47,5.48
49.96,1.98,1.98,-3.47,-3.48,3.47,3.92,3.56,5.45,5.45,5.46
50.46,1.98,1.98,-3.47,-3.47,3.46,3.91,3.55,5.44,5.44,5.46
50.96,1.98,1.98,-3.46,-3.45,3.45,3.89,3.53,5.44,5.44,5.44
51.47,1.98,1.99,-3.44,-3.44,3.46,3.88,3.52,5.44,5.44,5.42
51.99,1.98,2.00,-3.42,-3.42,3.46,3.86,3.51,5.45,5.46,5.41
52.51,1.98,1.98,-3.42,-3.42,3.47,3.84,3.50,5.45,5.45,5.40
53.03,1.97,1.92,-3.42,-3.47,3.47,3.82,3.49,5.45,5.39,5.40
53.56,1.84,1.86,-3.54,-3.52,3.47,3.80,3.48,5.32,5.33,5.38
54.10,1.76,1.82,-3.60,-3.55,3.47,3.78,3.47,5.24,5.29,5.37
54.64,1.84,1.84,-3.51,-3.52,3.47,3.76,3.46,5.31,5.31,5.35
55.18,1.91,1.90,-3.43,-3.45,3.47,3.74,3.46,5.38,5.37,5.35
55.74,1.94,1.92,-3.39,-3.41,3.47,3.72,3.45,5.42,5.39,5.33
56.29,1.90,1.89,-3.42,-3.43,3.47,3.69,3.44,5.38,5.36,5.32
56.86,1.81,1.86,-3.50,-3.43,3.47,3.67,3.43,5.28,5.34,5.30
57.42,1.81,1.83,-3.46,-3.45,3.47,3.65,3.42,5.29,5.30,5.28
58.00,1.86,1.76,-3.40,-3.50,3.47,3.62,3.41,5.34,5.24,5.27
58.58,1.69,1.73,-3.56,-3.52,3.48,3.60,3.40,5.17,5.21,5.26
59.16,1.62,1.71,-3.62,-3.52,3.48,3.57,3.39,5.09,5.19,5.24
59.76,1.76,1.70,-3.45,-3.51,3.47,3.54,3.37,5.24,5.17,5.21
60.35,1.77,1.73,-3.40,-3.45,3.46,3.51,3.36,5.23,5.19,5.17
60.96,1.69,1.73,-3.45,-3.41,3.44,3.49,3.34,5.14,5.18,5.14
61.57,1.68,1.70,-3.41,-3.40,3.43,3.46,3.32,5.11,5.13,5.10
62.18,1.68,1.68,-3.37,-3.38,3.41,3.43,3.29,5.09,5.09,5.05
62.80,1.66,1.62,-3.34,-3.39,3.40,3.39,3.27,5.06,5.02,5.01
63.43,1.56,1.57,-3.40,-3.40,3.39,3.36,3.24,4.95,4.96,4.96
64.07,1.45,1.53,-3.47,-3.39,3.38,3.33,3.21,4.82,4.91,4.92
64.71,1.54,1.50,-3.33,-3.38,3.36,3.30,3.17,4.90,4.86,4.87
65.35,1.52,1.47,-3.31,-3.36,3.33,3.26,3.14,4.85,4.80,4.83
66.01,1.42,1.44,-3.36,-3.34,3.29,3.23,3.10,4.72,4.74,4.79
66.67,1.39,1.46,-3.34,-3.28,3.26,3.19,3.06,4.65,4.72,4.74
67.33,1.48,1.50,-3.21,-3.19,3.21,3.16,3.02,4.69,4.72,4.69
68.01,1.66,1.53,-2.98,-3.12,3.17,3.12,2.97,4.83,4.70,4.65
68.69,1.47,1.51,-3.12,-3.09,3.14,3.08,2.93,4.61,4.64,4.60
69.37,1.38,1.44,-3.16,-3.10,3.11,3.04,2.88,4.49,4.55,4.54
70.07,1.38,1.38,-3.11,-3.12,3.09,3.01,2.83,4.47,4.46,4.49
70.77,1.38,1.39,-3.06,-3.05,3.07,2.97,2.79,4.45,4.46,4.45
71.48,1.38,1.35,-3.01,-3.04,3.05,2.93,2.74,4.44,4.40,4.39
72.19,1.33,1.28,-2.99,-3.05,3.03,2.89,2.68,4.36,4.31,4.33
72.91,1.12,1.23,-3.15,-3.04,3.00,2.85,2.63,4.12,4.23,4.27
73.64,1.22,1.22,-2.99,-3.00,2.95,2.81,2.58,4.18,4.17,4.21
74.38,1.28,1.24,-2.87,-2.92,2.90,2.77,2.53,4.18,4.14,4.16
75.12,1.28,1.29,-2.81,-2.81,2.84,2.73,2.48,4.12,4.13,4.10
75.87,1.28,1.29,-2.75,-2.75,2.78,2.69,2.43,4.06,4.07,4.04
76.63,1.28,1.28,-2.70,-2.70,2.71,2.65,2.38,3.99,3.99,3.99
77.40,1.28,1.28,-2.65,-2.65,2.64,2.62,2.33,3.93,3.93,3.94
78.17,1.28,1.28,-2.59,-2.60,2.59,2.58,2.28,3.88,3.88,3.88
78.95,1.28,1.29,-2.56,-2.55,2.56,2.54,2.23,3.84,3.85,3.84
79.74,1.28,1.29,-2.51,-2.50,2.54,2.50,2.18,3.82,3.83,3.79
80.54,1.28,1.29,-2.46,-2.46,2.52,2.47,2.14,3.80,3.80,3.75
81.35,1.25,1.21,-2.44,-2.49,2.49,2.43,2.09,3.75,3.70,3.69
82.16,1.15,1.14,-2.49,-2.51,2.46,2.40,2.05,3.62,3.60,3.64
82.98,0.98,1.10,-2.62,-2.50,2.43,2.36,2.00,3.42,3.53,3.61
83.81,1.14,1.10,-2.41,-2.45,2.40,2.33,1.96,3.54,3.50,3.55
84.65,1.18,1.15,-2.32,-2.36,2.36,2.29,1.92,3.54,3.51,3.50
85.50,1.18,1.20,-2.28,-2.26,2.31,2.26,1.88,3.50,3.51,3.47
86.35,1.18,1.19,-2.23,-2.23,2.26,2.23,1.84,3.44,3.44,3.42
87.22,1.18,1.18,-2.18,-2.18,2.19,2.20,1.81,3.38,3.38,3.37
88.09,1.18,1.18,-2.13,-2.13,2.13,2.17,1.77,3.31,3.31,3.32
88.97,1.18,1.18,-2.08,-2.08,2.07,2.14,1.73,3.25,3.25,3.26
89.86,1.18,1.19,-2.03,-2.03,2.01,2.11,1.70,3.19,3.20,3.21
90.76,1.19,1.19,-1.97,-1.97,1.96,2.08,1.67,3.15,3.15,3.16
91.66,1.19,1.19,-1.92,-1.92,1.91,2.05,1.64,3.10,3.10,3.12
92.58,1.19,1.20,-1.86,-1.87,1.87,2.03,1.61,3.06,3.06,3.06
93.51,1.19,1.20,-1.82,-1.81,1.84,2.00,1.58,3.03,3.04,3.01
94.44,1.19,1.21,-1.77,-1.76,1.82,1.97,1.55,3.01,3.02,2.97
95.39,1.19,1.18,-1.73,-1.74,1.80,1.95,1.53,2.99,2.97,2.92
96.34,1.13,1.09,-1.73,-1.78,1.78,1.92,1.50,2.91,2.86,2.87
97.30,0.98,1.01,-1.84,-1.81,1.76,1.89,1.48,2.74,2.77,2.82
98.28,0.89,0.97,-1.88,-1.81,1.73,1.87,1.46,2.63,2.71,2.78
99.26,1.02,0.98,-1.71,-1.75,1.71,1.84,1.43,2.73,2.69,2.73
100.25,1.04,1.02,-1.64,-1.67,1.68,1.81,1.41,2.72,2.70,2.69
101.25,1.02,1.04,-1.62,-1.60,1.64,1.79,1.39,2.66,2.68,2.64
102.27,1.01,1.01,-1.58,-1.58,1.60,1.76,1.38,2.61,2.61,2.59
103.29,0.99,0.99,-1.54,-1.55,1.56,1.73,1.36,2.55,2.55,2.54
104.32,0.97,0.98,-1.53,-1.52,1.53,1.71,1.34,2.50,2.50,2.50
105.37,0.95,0.96,-1.50,-1.50,1.51,1.68,1.32,2.47,2.47,2.46
106.42,0.92,0.92,-1.48,-1.48,1.51,1.65,1.31,2.43,2.43,2.41
107.48,0.87,0.86,-1.48,-1.49,1.51,1.63,1.29,2.39,2.38,2.35
108.56,0.79,0.79,-1.50,-1.51,1.51,1.60,1.28,2.30,2.29,2.30
109.64,0.69,0.71,-1.56,-1.54,1.50,1.57,1.26,2.20,2.21,2.25
110.74,0.64,0.65,-1.55,-1.55,1.50,1.54,1.25,2.14,2.15,2.19
111.85,0.62,0.62,-1.53,-1.53,1.50,1.52,1.23,2.13,2.12,2.16
112.97,0.61,0.62,-1.48,-1.48,1.51,1.49,1.22,2.12,2.12,2.09
114.10,0.60,0.61,-1.44,-1.43,1.50,1.46,1.21,2.11,2.12,2.05
115.24,0.59,0.57,-1.41,-1.43,1.49,1.43,1.19,2.08,2.06,2.00
116.39,0.52,0.48,-1.42,-1.48,1.46,1.40,1.18,1.99,1.94,1.95
117.55,0.36,0.42,-1.55,-1.50,1.43,1.38,1.17,1.79,1.85,1.91
118.73,0.33,0.40,-1.54,-1.47,1.39,1.35,1.15,1.73,1.80,1.87
119.92,0.51,0.44,-1.33,-1.40,1.35,1.32,1.14,1.87,1.80,1.85
121.12,0.52,0.51,-1.28,-1.29,1.31,1.29,1.13,1.84,1.83,1.80
122.33,0.53,0.55,-1.24,-1.23,1.28,1.26,1.11,1.81,1.83,1.77
123.55,0.54,0.55,-1.21,-1.20,1.24,1.23,1.10,1.78,1.78,1.75
124.79,0.55,0.55,-1.17,-1.17,1.20,1.21,1.09,1.75,1.75,1.72
126.03,0.55,0.54,-1.13,-1.15,1.18,1.18,1.07,1.73,1.72,1.69
127.29,0.50,0.51,-1.16,-1.16,1.16,1.15,1.06,1.67,1.67,1.67
128.57,0.46,0.46,-1.17,-1.18,1.16,1.12,1.04,1.63,1.62,1.63
129.85,0.39,0.41,-1.21,-1.19,1.16,1.09,1.03,1.56,1.57,1.60
131.15,0.38,0.39,-1.19,-1.19,1.15,1.06,1.01,1.53,1.54,1.57
132.46,0.38,0.38,-1.16,-1.16,1.13,1.04,0.99,1.51,1.51,1.55
133.79,0.39,0.39,-1.12,-1.13,1.11,1.01,0.98,1.50,1.50,1.52
135.12,0.39,0.39,-1.09,-1.10,1.10,0.98,0.96,1.49,1.49,1.48
136.48,0.39,0.40,-1.07,-1.06,1.09,0.95,0.94,1.49,1.49,1.47
137.84,0.40,0.42,-1.03,-1.01,1.09,0.93,0.93,1.50,1.52,1.43
139.22,0.40,0.40,-1.00,-1.00,1.09,0.90,0.91,1.49,1.49,1.40
140.61,0.40,0.31,-0.96,-1.07,1.08,0.87,0.89,1.49,1.39,1.37
142.02,0.15,0.21,-1.20,-1.14,1.08,0.84,0.88,1.23,1.29,1.36
143.44,0.07,0.16,-1.25,-1.16,1.06,0.82,0.86,1.14,1.22,1.32
144.87,0.20,0.17,-1.08,-1.12,1.04,0.79,0.84,1.24,1.21,1.28
146.32,0.27,0.25,-0.97,-1.00,1.01,0.76,0.83,1.28,1.25,1.24
147.78,0.30,0.30,-0.91,-0.91,0.96,0.74,0.81,1.26,1.26,1.22
149.26,0.30,0.31,-0.86,-0.85,0.89,0.71,0.79,1.19,1.20,1.17
150.75,0.30,0.31,-0.80,-0.80,0.81,0.69,0.77,1.11,1.11,1.10
152.26,0.30,0.30,-0.73,-0.73,0.72,0.66,0.76,1.02,1.02,1.03
153.78,0.30,0.30,-0.66,-0.66,0.64,0.63,0.74,0.94,0.94,0.97
155.32,0.30,0.31,-0.59,-0.59,0.57,0.61,0.72,0.88,0.88,0.89
156.88,0.30,0.31,-0.52,-0.51,0.52,0.58,0.71,0.83,0.83,0.82
158.44,0.30,0.30,-0.43,-0.44,0.47,0.56,0.69,0.78,0.77,0.74
160.03,0.27,0.27,-0.38,-0.39,0.43,0.53,0.68,0.70,0.69,0.65
161.63,0.21,0.21,-0.37,-0.37,0.39,0.51,0.66,0.60,0.60,0.58
163.24,0.14,0.15,-0.38,-0.37,0.36,0.48,0.65,0.50,0.51,0.52
164.88,0.09,0.11,-0.38,-0.36,0.33,0.46,0.63,0.43,0.44,0.47
166.53,0.09,0.09,-0.33,-0.34,0.31,0.44,0.62,0.41,0.40,0.42
168.19,0.08,0.08,-0.30,-0.30,0.30,0.41,0.60,0.38,0.38,0.39
169.87,0.08,0.08,-0.26,-0.27,0.27,0.39,0.59,0.36,0.36,0.35
171.57,0.07,0.07,-0.26,-0.26,0.25,0.37,0.58,0.33,0.33,0.33
173.29,0.06,0.07,-0.25,-0.25,0.24,0.35,0.56,0.31,0.31,0.31
175.02,0.06,0.06,-0.24,-0.24,0.25,0.33,0.55,0.32,0.31,0.31
176.77,0.05,0.06,-0.24,-0.24,0.27,0.31,0.54,0.33,0.33,0.29
178.54,0.05,0.08,-0.24,-0.22,0.30,0.29,0.52,0.35,0.37,0.29
180.32,0.06,0.05,-0.23,-0.25,0.31,0.27,0.51,0.37,0.36,0.30
182.13,0.03,-0.05,-0.27,-0.34,0.30,0.26,0.50,0.34,0.26,0.30
183.95,-0.17,-0.13,-0.46,-0.43,0.29,0.24,0.49,0.13,0.16,0.29
185.79,-0.25,-0.14,-0.54,-0.43,0.28,0.23,0.48,0.04,0.14,0.29
187.65,-0.05,-0.03,-0.32,-0.31,0.27,0.22,0.47,0.22,0.23,0.27
189.52,0.17,0.10,-0.09,-0.16,0.24,0.21,0.46,0.42,0.35,0.26
191.42,0.23,0.15,-0.01,-0.09,0.22,0.21,0.45,0.45,0.37,0.24
193.33,0.04,0.10,-0.18,-0.13,0.19,0.20,0.44,0.24,0.29,0.22
195.27,-0.05,0.01,-0.25,-0.20,0.18,0.20,0.43,0.13,0.19,0.20
197.22,-0.03,-0.03,-0.21,-0.21,0.18,0.20,0.42,0.16,0.16,0.19
199.19,-0.02,-0.01,-0.17,-0.18,0.20,0.20,0.41,0.19,0.19,0.16
201.18,-0.01,-0.07,-0.15,-0.21,0.23,0.21,0.40,0.23,0.16,0.14
203.19,-0.14,-0.16,-0.26,-0.28,0.25,0.21,0.40,0.12,0.09,0.13
205.23,-0.32,-0.22,-0.42,-0.33,0.25,0.22,0.39,-0.06,0.04,0.10
207.28,-0.24,-0.23,-0.33,-0.31,0.23,0.22,0.38,-0.00,0.01,0.10
209.35,-0.12,-0.17,-0.19,-0.24,0.21,0.23,0.38,0.09,0.03,0.07
211.44,-0.11,-0.11,-0.14,-0.16,0.19,0.24,0.37,0.08,0.08,0.04
213.56,-0.11,-0.10,-0.14,-0.13,0.18,0.26,0.37,0.07,0.08,0.03
215.69,-0.12,-0.11,-0.14,-0.13,0.18,0.27,0.36,0.06,0.06,0.02
217.85,-0.12,-0.10,-0.12,-0.10,0.18,0.28,0.36,0.06,0.08,0.01
220.03,-0.13,-0.13,-0.12,-0.12,0.18,0.29,0.36,0.06,0.05,-0.01
222.23,-0.14,-0.24,-0.11,-0.22,0.20,0.31,0.35,0.06,-0.04,-0.03
224.45,-0.39,-0.32,-0.37,-0.30,0.22,0.32,0.35,-0.17,-0.10,-0.02
226.70,-0.47,-0.35,-0.45,-0.33,0.24,0.34,0.35,-0.23,-0.11,-0.02
228.96,-0.22,-0.32,-0.21,-0.31,0.24,0.35,0.35,0.03,-0.08,-0.01
231.25,-0.22,-0.23,-0.21,-0.23,0.24,0.37,0.35,0.03,0.01,-0.00
233.57,-0.21,-0.18,-0.21,-0.19,0.24,0.38,0.35,0.04,0.06,0.01
235.90,-0.19,-0.19,-0.20,-0.20,0.24,0.40,0.36,0.05,0.05,0.02
238.26,-0.18,-0.17,-0.21,-0.21,0.24,0.41,0.36,0.06,0.07,0.03
240.64,-0.16,-0.17,-0.21,-0.22,0.25,0.43,0.37,0.10,0.09,0.05
243.05,-0.19,-0.18,-0.27,-0.26,0.28,0.45,0.37,0.09,0.09,0.08
245.48,-0.21,-0.22,-0.31,-0.32,0.31,0.46,0.38,0.11,0.09,0.10
247.93,-0.27,-0.25,-0.40,-0.38,0.35,0.48,0.39,0.09,0.10,0.14
250.41,-0.28,-0.27,-0.42,-0.42,0.39,0.49,0.39,0.12,0.12,0.15
252.92,-0.27,-0.27,-0.45,-0.45,0.42,0.51,0.40,0.16,0.15,0.18
255.45,-0.25,-0.25,-0.45,-0.45,0.45,0.53,0.42,0.20,0.20,0.20
258.00,-0.25,-0.24,-0.47,-0.47,0.47,0.54,0.43,0.22,0.23,0.23
260.58,-0.24,-0.24,-0.47,-0.48,0.49,0.56,0.44,0.25,0.25,0.24
263.19,-0.24,-0.24,-0.51,-0.50,0.50,0.58,0.46,0.27,0.27,0.27
265.82,-0.24,-0.24,-0.52,-0.52,0.53,0.59,0.47,0.29,0.29,0.29
268.48,-0.24,-0.23,-0.55,-0.55,0.56,0.61,0.49,0.33,0.33,0.31
271.16,-0.25,-0.24,-0.59,-0.58,0.61,0.63,0.51,0.36,0.37,0.34
273.87,-0.25,-0.27,-0.60,-0.63,0.65,0.65,0.53,0.41,0.39,0.36
276.61,-0.32,-0.31,-0.71,-0.70,0.70,0.66,0.55,0.39,0.39,0.39
279.38,-0.37,-0.37,-0.78,-0.79,0.75,0.68,0.57,0.39,0.39,0.42
282.17,-0.43,-0.42,-0.87,-0.86,0.82,0.70,0.59,0.39,0.40,0.44
284.99,-0.45,-0.44,-0.92,-0.91,0.89,0.72,0.61,0.45,0.45,0.48
287.84,-0.44,-0.42,-0.93,-0.92,0.96,0.74,0.64,0.53,0.54,0.49
290.72,-0.43,-0.41,-0.95,-0.94,1.02,0.76,0.66,0.59,0.60,0.53
293.63,-0.41,-0.50,-0.96,-1.05,1.06,0.78,0.69,0.66,0.57,0.55
296.57,-0.57,-0.58,-1.16,-1.17,1.10,0.80,0.72,0.54,0.52,0.59
299.53,-0.78,-0.62,-1.39,-1.24,1.15,0.82,0.74,0.38,0.53,0.62
302.53,-0.57,-0.60,-1.20,-1.25,1.21,0.84,0.77,0.64,0.60,0.63
305.55,-0.48,-0.51,-1.15,-1.18,1.26,0.86,0.80,0.78,0.75,0.68
308.61,-0.46,-0.48,-1.15,-1.18,1.30,0.88,0.83,0.84,0.81,0.69
311.69,-0.52,-0.59,-1.24,-1.31,1.32,0.91,0.87,0.81,0.74,0.72
314.81,-0.78,-0.66,-1.52,-1.40,1.34,0.93,0.90,0.56,0.68,0.75
317.96,-0.72,-0.68,-1.48,-1.44,1.35,0.95,0.93,0.63,0.67,0.76
321.14,-0.57,-0.64,-1.34,-1.41,1.37,0.98,0.97,0.80,0.73,0.77
324.35,-0.55,-0.55,-1.33,-1.34,1.39,1.00,1.00,0.84,0.84,0.79
327.59,-0.55,-0.53,-1.35,-1.33,1.40,1.03,1.04,0.86,0.87,0.80
330.87,-0.55,-0.54,-1.36,-1.36,1.39,1.05,1.08,0.84,0.84,0.81
334.18,-0.55,-0.54,-1.37,-1.37,1.35,1.08,1.12,0.81,0.81,0.83
337.52,-0.55,-0.57,-1.38,-1.41,1.33,1.10,1.16,0.78,0.76,0.84
340.90,-0.55,-0.55,-1.40,-1.40,1.32,1.13,1.20,0.78,0.78,0.85
344.30,-0.56,-0.45,-1.42,-1.31,1.34,1.16,1.24,0.78,0.89,0.86
347.75,-0.35,-0.39,-1.21,-1.26,1.37,1.19,1.29,1.02,0.97,0.86
351.23,-0.28,-0.40,-1.14,-1.27,1.38,1.22,1.33,1.11,0.98,0.87
354.74,-0.54,-0.47,-1.40,-1.34,1.39,1.25,1.38,0.85,0.92,0.86
358.28,-0.65,-0.59,-1.52,-1.46,1.39,1.28,1.42,0.74,0.80,0.87
361.87,-0.64,-0.67,-1.51,-1.54,1.38,1.31,1.47,0.75,0.71,0.87
365.49,-0.64,-0.66,-1.51,-1.53,1.39,1.34,1.52,0.76,0.74,0.88
369.14,-0.63,-0.55,-1.49,-1.42,1.41,1.37,1.57,0.79,0.86,0.87
372.83,-0.50,-0.47,-1.36,-1.34,1.44,1.41,1.62,0.94,0.96,0.87
376.56,-0.31,-0.45,-1.17,-1.32,1.46,1.44,1.67,1.15,1.00,0.86
380.33,-0.55,-0.51,-1.42,-1.38,1.48,1.47,1.72,0.93,0.97,0.87
384.13,-0.70,-0.64,-1.57,-1.50,1.50,1.51,1.77,0.81,0.87,0.87
387.97,-0.77,-0.78,-1.62,-1.64,1.56,1.54,1.83,0.79,0.78,0.86
391.85,-0.85,-0.84,-1.69,-1.70,1.64,1.58,1.88,0.79,0.79,0.85
395.77,-0.90,-0.90,-1.75,-1.75,1.73,1.62,1.94,0.83,0.83,0.86
399.73,-0.96,-0.96,-1.80,-1.81,1.82,1.65,1.99,0.86,0.85,0.84
403.72,-1.04,-1.02,-1.88,-1.86,1.90,1.69,2.05,0.87,0.88,0.84
407.76,-1.10,-1.10,-1.93,-1.94,1.98,1.73,2.10,0.88,0.88,0.83
411.84,-1.18,-1.24,-2.01,-2.07,2.05,1.77,2.16,0.87,0.80,0.83
415.96,-1.36,-1.30,-2.18,-2.13,2.11,1.81,2.21,0.75,0.81,0.83
420.12,-1.47,-1.32,-2.29,-2.15,2.16,1.85,2.27,0.70,0.84,0.83
424.32,-1.21,-1.43,-2.03,-2.26,2.22,1.89,2.32,1.01,0.79,0.83
428.56,-1.44,-1.48,-2.27,-2.32,2.28,1.93,2.37,0.84,0.80,0.84
432.85,-1.75,-1.47,-2.59,-2.31,2.34,1.97,2.42,0.59,0.87,0.84
437.18,-1.42,-1.48,-2.27,-2.34,2.38,2.01,2.47,0.96,0.90,0.85
441.55,-1.28,-1.44,-2.17,-2.33,2.40,2.06,2.52,1.12,0.96,0.89
445.96,-1.48,-1.49,-2.40,-2.41,2.41,2.10,2.57,0.94,0.92,0.92
450.42,-1.67,-1.57,-2.62,-2.53,2.43,2.14,2.61,0.77,0.86,0.95
454.93,-1.70,-1.54,-2.70,-2.53,2.44,2.18,2.65,0.74,0.90,1.00
459.48,-1.25,-1.40,-2.30,-2.44,2.44,2.23,2.69,1.19,1.04,1.05
464.07,-1.20,-1.27,-2.29,-2.37,2.43,2.27,2.72,1.24,1.17,1.10
468.71,-1.27,-1.22,-2.42,-2.37,2.43,2.31,2.75,1.16,1.21,1.16
473.40,-1.31,-1.27,-2.50,-2.47,2.44,2.35,2.78,1.13,1.17,1.20
478.13,-1.26,-1.24,-2.51,-2.49,2.46,2.39,2.80,1.21,1.22,1.26
482.91,-1.17,-1.16,-2.46,-2.46,2.51,2.44,2.82,1.35,1.35,1.30
487.74,-1.10,-1.14,-2.43,-2.48,2.59,2.48,2.84,1.49,1.45,1.33
492.62,-1.17,-1.22,-2.55,-2.60,2.68,2.52,2.85,1.51,1.46,1.38
497.55,-1.40,-1.36,-2.80,-2.77,2.76,2.56,2.85,1.36,1.40,1.40
502.52,-1.55,-1.50,-2.98,-2.93,2.82,2.59,2.85,1.28,1.32,1.43
507.55,-1.57,-1.57,-3.01,-3.02,2.88,2.63,2.85,1.31,1.31,1.44
512.62,-1.56,-1.56,-3.01,-3.02,2.93,2.67,2.84,1.38,1.37,1.45
517.75,-1.53,-1.52,-2.99,-2.98,2.99,2.70,2.82,1.46,1.46,1.46
522.93,-1.50,-1.50,-2.95,-2.95,3.02,2.73,2.81,1.53,1.52,1.45
528.16,-1.51,-1.52,-2.93,-2.94,3.04,2.76,2.78,1.54,1.52,1.42
533.44,-1.58,-1.60,-2.97,-2.99,3.05,2.79,2.76,1.48,1.46,1.39
538.77,-1.72,-1.70,-3.07,-3.06,3.06,2.82,2.73,1.35,1.36,1.36
544.16,-1.84,-1.81,-3.14,-3.12,3.07,2.84,2.69,1.24,1.26,1.31
549.60,-1.89,-1.90,-3.14,-3.15,3.09,2.86,2.66,1.20,1.19,1.26
