frequency,raw,smoothed,error,error_smoothed,equalization,parametric_eq,fixed_band_eq,equalized_raw,equalized_smoothed,target
20.00,-39.18,-39.20,-34.04,-34.06,6.00,5.94,2.72,-33.18,-33.20,-5.14
20.20,-38.91,-38.89,-33.77,-33.75,6.00,5.94,2.80,-32.91,-32.89,-5.14
20.40,-38.64,-38.61,-33.49,-33.47,6.00,5.94,2.87,-32.64,-32.61,-5.14
20.61,-38.37,-38.35,-33.23,-33.21,6.00,5.95,2.96,-32.37,-32.35,-5.14
20.81,-38.10,-38.10,-32.95,-32.96,6.00,5.95,3.04,-32.10,-32.10,-5.14
21.02,-37.85,-37.89,-32.71,-32.75,6.00,5.95,3.13,-31.85,-31.89,-5.14
21.23,-37.76,-37.75,-32.62,-32.61,6.00,5.95,3.21,-31.76,-31.75,-5.14
21.44,-37.67,-37.65,-32.53,-32.51,6.00,5.95,3.31,-31.67,-31.65,-5.14
21.66,-37.58,-37.58,-32.44,-32.44,6.00,5.95,3.40,-31.58,-31.58,-5.14
21.87,-37.48,-37.48,-32.34,-32.34,6.00,5.95,3.50,-31.48,-31.48,-5.14
22.09,-37.37,-37.36,-32.23,-32.22,6.00,5.95,3.59,-31.37,-31.36,-5.14
22.31,-37.22,-37.22,-32.08,-32.08,6.00,5.95,3.70,-31.22,-31.22,-5.14
22.54,-37.07,-37.06,-31.93,-31.92,6.00,5.96,3.80,-31.07,-31.06,-5.14
22.76,-36.92,-36.91,-31.78,-31.77,6.00,5.96,3.91,-30.92,-30.91,-5.14
22.99,-36.77,-36.79,-31.63,-31.65,6.00,5.96,4.02,-30.77,-30.79,-5.14
23.22,-36.71,-36.70,-31.57,-31.56,6.00,5.96,4.13,-30.71,-30.70,-5.14
23.45,-36.65,-36.64,-31.51,-31.50,6.00,5.96,4.24,-30.65,-30.64,-5.14
23.69,-36.60,-36.60,-31.46,-31.46,6.00,5.96,4.36,-30.60,-30.60,-5.14
23.92,-36.55,-36.55,-31.41,-31.41,6.00,5.96,4.48,-30.55,-30.55,-5.14
24.16,-36.50,-36.50,-31.36,-31.36,6.00,5.96,4.60,-30.50,-30.50,-5.14
24.40,-36.46,-36.46,-31.32,-31.32,6.00,5.97,4.73,-30.46,-30.46,-5.14
24.65,-36.41,-36.42,-31.27,-31.28,6.00,5.97,4.85,-30.41,-30.42,-5.14
24.89,-36.37,-36.34,-31.22,-31.20,6.00,5.97,4.98,-30.37,-30.34,-5.14
25.14,-36.24,-36.22,-31.09,-31.08,6.00,5.97,5.11,-30.24,-30.22,-5.14
25.39,-36.06,-36.07,-30.91,-30.93,6.00,5.97,5.24,-30.06,-30.07,-5.14
25.65,-35.87,-35.88,-30.73,-30.74,6.00,5.97,5.37,-29.87,-29.88,-5.14
25.91,-35.69,-35.67,-30.55,-30.53,6.00,5.97,5.50,-29.69,-29.67,-5.14
26.16,-35.41,-35.41,-30.27,-30.27,6.00,5.98,5.63,-29.41,-29.41,-5.14
26.43,-35.11,-35.10,-29.97,-29.96,6.00,5.98,5.77,-29.11,-29.10,-5.14
26.69,-34.79,-34.79,-29.65,-29.64,6.00,5.98,5.90,-28.79,-28.79,-5.14
26.96,-34.48,-34.53,-29.34,-29.39,6.00,5.98,6.02,-28.48,-28.53,-5.14
27.23,-34.34,-34.34,-29.20,-29.19,6.00,5.98,6.15,-28.34,-28.34,-5.14
27.50,-34.24,-34.19,-29.10,-29.05,6.00,5.98,6.27,-28.24,-28.19,-5.14
27.77,-34.13,-34.13,-28.99,-28.99,6.00,5.99,6.39,-28.13,-28.13,-5.14
28.05,-34.09,-34.16,-28.95,-29.01,6.00,5.99,6.51,-28.09,-28.16,-5.14
28.33,-34.29,-34.30,-29.15,-29.16,6.00,5.99,6.62,-28.29,-28.30,-5.14
28.62,-34.50,-34.50,-29.35,-29.36,6.00,5.99,6.73,-28.50,-28.50,-5.14
28.90,-34.70,-34.62,-29.56,-29.48,6.00,5.99,6.82,-28.70,-28.62,-5.14
29.19,-34.60,-34.56,-29.46,-29.42,6.00,5.99,6.92,-28.60,-28.56,-5.14
29.48,-34.35,-34.36,-29.21,-29.22,6.00,6.00,7.00,-28.35,-28.36,-5.14
29.78,-34.10,-34.12,-28.96,-28.98,6.00,6.00,7.08,-28.10,-28.12,-5.14
30.08,-33.91,-33.96,-28.77,-28.82,6.00,6.00,7.14,-27.91,-27.96,-5.14
30.38,-33.91,-33.92,-28.77,-28.78,6.00,6.00,7.20,-27.91,-27.92,-5.14
30.68,-33.92,-33.91,-28.78,-28.77,6.00,6.00,7.25,-27.92,-27.91,-5.14
30.99,-33.92,-33.85,-28.78,-28.71,6.00,6.00,7.28,-27.92,-27.85,-5.14
31.30,-33.68,-33.68,-28.54,-28.54,6.00,6.00,7.31,-27.68,-27.68,-5.14
31.61,-33.43,-33.45,-28.29,-28.30,6.00,6.01,7.33,-27.43,-27.45,-5.14
31.93,-33.18,-33.21,-28.04,-28.07,6.00,6.01,7.33,-27.18,-27.21,-5.14
32.24,-33.04,-33.03,-27.90,-27.89,6.00,6.01,7.33,-27.04,-27.03,-5.14
32.57,-32.93,-32.90,-27.79,-27.76,6.00,6.01,7.31,-26.93,-26.90,-5.14
32.89,-32.82,-32.85,-27.68,-27.71,6.00,6.01,7.29,-26.82,-26.85,-5.14
33.22,-32.85,-32.89,-27.71,-27.75,6.00,6.02,7.26,-26.85,-26.89,-5.14
33.55,-32.94,-32.96,-27.80,-27.82,6.00,6.02,7.22,-26.94,-26.96,-5.14
33.89,-33.04,-32.94,-27.90,-27.80,6.00,6.02,7.17,-27.04,-26.94,-5.14
34.23,-32.80,-32.73,-27.66,-27.59,6.00,6.02,7.11,-26.80,-26.73,-5.14
34.57,-32.39,-32.40,-27.25,-27.26,6.00,6.02,7.05,-26.39,-26.40,-5.14
34.92,-31.98,-32.09,-26.84,-26.95,6.00,6.02,6.99,-25.98,-26.09,-5.14
35.27,-31.91,-31.95,-26.77,-26.81,6.00,6.03,6.92,-25.91,-25.95,-5.14
35.62,-31.95,-31.93,-26.81,-26.79,6.00,6.03,6.85,-25.95,-25.93,-5.14
35.97,-32.00,-31.90,-26.85,-26.76,6.00,6.03,6.77,-26.00,-25.90,-5.14
36.33,-31.76,-31.75,-26.61,-26.61,6.00,6.03,6.69,-25.76,-25.75,-5.14
36.70,-31.50,-31.53,-26.36,-26.39,6.00,6.03,6.62,-25.50,-25.53,-5.14
37.06,-31.28,-31.32,-26.14,-26.18,6.00,6.03,6.54,-25.28,-25.32,-5.14
37.43,-31.21,-31.20,-26.07,-26.06,6.00,6.03,6.46,-25.21,-25.20,-5.14
37.81,-31.14,-31.12,-26.00,-25.98,6.00,6.04,6.38,-25.14,-25.12,-5.14
38.19,-31.05,-31.02,-25.91,-25.87,6.00,6.04,6.30,-25.05,-25.02,-5.14
38.57,-30.92,-30.91,-25.78,-25.77,6.00,6.04,6.23,-24.92,-24.91,-5.14
38.95,-30.79,-30.88,-25.65,-25.74,6.00,6.04,6.15,-24.79,-24.88,-5.14
39.34,-30.90,-30.93,-25.76,-25.79,6.00,6.04,6.08,-24.90,-24.93,-5.14
39.74,-31.04,-30.98,-25.90,-25.84,6.00,6.04,6.01,-25.04,-24.98,-5.14
40.14,-31.01,-30.91,-25.87,-25.77,6.00,6.05,5.94,-25.01,-24.91,-5.14
40.54,-30.66,-30.68,-25.52,-25.54,6.00,6.05,5.88,-24.66,-24.68,-5.14
40.94,-30.31,-30.39,-25.17,-25.25,6.00,6.05,5.82,-24.31,-24.39,-5.14
41.35,-30.13,-30.13,-24.99,-24.98,6.00,6.05,5.77,-24.13,-24.13,-5.14
41.76,-29.98,-29.96,-24.84,-24.82,6.00,6.05,5.71,-23.98,-23.96,-5.14
42.18,-29.83,-29.83,-24.69,-24.69,6.00,6.05,5.66,-23.83,-23.83,-5.14
42.60,-29.71,-29.70,-24.57,-24.56,6.00,6.05,5.62,-23.71,-23.70,-5.14
43.03,-29.58,-29.58,-24.44,-24.44,6.00,6.05,5.58,-23.58,-23.58,-5.14
43.46,-29.45,-29.45,-24.31,-24.31,6.00,6.05,5.54,-23.45,-23.45,-5.14
43.90,-29.32,-29.31,-24.18,-24.17,6.00,6.06,5.51,-23.32,-23.31,-5.14
44.33,-29.18,-29.18,-24.04,-24.04,6.00,6.06,5.48,-23.18,-23.18,-5.14
44.78,-29.04,-29.04,-23.90,-23.90,6.00,6.06,5.46,-23.04,-23.04,-5.14
45.23,-28.91,-28.91,-23.77,-23.77,6.00,6.06,5.44,-22.91,-22.91,-5.14
45.68,-28.78,-28.78,-23.64,-23.64,6.00,6.06,5.42,-22.78,-22.78,-5.14
46.13,-28.65,-28.65,-23.51,-23.51,6.00,6.06,5.41,-22.65,-22.65,-5.14
46.60,-28.53,-28.53,-23.39,-23.39,6.00,6.06,5.40,-22.53,-22.53,-5.14
47.06,-28.41,-28.40,-23.27,-23.26,6.00,6.06,5.39,-22.41,-22.40,-5.14
47.53,-28.27,-28.27,-23.13,-23.13,6.00,6.06,5.39,-22.27,-22.27,-5.14
48.01,-28.13,-28.14,-22.99,-22.99,6.00,6.06,5.40,-22.13,-22.14,-5.14
48.49,-28.01,-28.01,-22.87,-22.87,6.00,6.06,5.40,-22.01,-22.01,-5.14
48.97,-27.89,-27.89,-22.75,-22.75,6.00,6.06,5.41,-21.89,-21.89,-5.14
49.46,-27.77,-27.77,-22.63,-22.63,6.00,6.06,5.43,-21.77,-21.77,-5.14
49.96,-27.65,-27.64,-22.51,-22.50,6.00,6.06,5.44,-21.65,-21.64,-5.14
50.46,-27.51,-27.51,-22.37,-22.37,6.00,6.06,5.46,-21.51,-21.51,-5.14
50.96,-27.37,-27.38,-22.23,-22.24,6.00,6.06,5.48,-21.37,-21.38,-5.14
51.47,-27.25,-27.25,-22.11,-22.11,6.00,6.06,5.51,-21.25,-21.25,-5.14
51.99,-27.13,-27.11,-21.99,-21.97,6.00,6.06,5.53,-21.13,-21.11,-5.14
52.51,-26.96,-26.96,-21.82,-21.82,6.00,6.06,5.56,-20.96,-20.96,-5.14
53.03,-26.79,-26.81,-21.65,-21.67,6.00,6.05,5.59,-20.79,-20.81,-5.14
53.56,-26.67,-26.65,-21.53,-21.51,6.00,6.05,5.62,-20.67,-20.65,-5.14
54.10,-26.54,-26.51,-21.40,-21.37,6.00,6.05,5.65,-20.54,-20.51,-5.14
54.64,-26.40,-26.45,-21.26,-21.31,6.00,6.05,5.69,-20.40,-20.45,-5.14
55.18,-26.37,-26.46,-21.23,-21.32,6.00,6.05,5.72,-20.37,-20.46,-5.14
55.74,-26.54,-26.44,-21.40,-21.30,6.00,6.05,5.75,-20.54,-20.44,-5.14
56.29,-26.43,-26.34,-21.29,-21.20,6.00,6.05,5.78,-20.43,-20.34,-5.14
56.86,-26.05,-26.10,-20.91,-20.96,6.00,6.04,5.81,-20.05,-20.10,-5.14
57.42,-25.78,-25.80,-20.64,-20.66,6.00,6.04,5.84,-19.78,-19.80,-5.14
58.00,-25.53,-25.57,-20.39,-20.42,6.00,6.04,5.86,-19.53,-19.57,-5.14
58.58,-25.43,-25.42,-20.29,-20.27,6.00,6.04,5.89,-19.43,-19.42,-5.14
59.16,-25.32,-25.29,-20.18,-20.15,6.00,6.03,5.91,-19.32,-19.29,-5.14
59.76,-25.16,-25.17,-20.02,-20.03,6.00,6.03,5.93,-19.16,-19.17,-5.14
60.35,-25.03,-25.04,-19.89,-19.90,6.00,6.03,5.94,-19.03,-19.04,-5.14
60.96,-24.92,-24.90,-19.78,-19.76,6.00,6.02,5.95,-18.92,-18.90,-5.14
61.57,-24.76,-24.76,-19.62,-19.61,6.00,6.02,5.96,-18.76,-18.76,-5.14
62.18,-24.60,-24.60,-19.46,-19.46,6.00,6.02,5.97,-18.60,-18.60,-5.14
62.80,-24.44,-24.45,-19.30,-19.31,6.00,6.01,5.97,-18.44,-18.45,-5.14
63.43,-24.32,-24.32,-19.18,-19.18,6.00,6.01,5.96,-18.32,-18.32,-5.14
64.07,-24.20,-24.19,-19.06,-19.04,6.00,6.00,5.96,-18.20,-18.19,-5.14
64.71,-24.06,-24.07,-18.92,-18.92,6.00,6.00,5.95,-18.06,-18.07,-5.14
65.35,-23.93,-23.94,-18.79,-18.80,6.00,5.99,5.93,-17.93,-17.94,-5.14
66.01,-23.83,-23.81,-18.69,-18.67,6.00,5.99,5.92,-17.83,-17.81,-5.14
66.67,-23.68,-23.71,-18.54,-18.57,6.00,5.98,5.90,-17.68,-17.71,-5.14
67.33,-23.55,-23.56,-18.41,-18.42,6.00,5.98,5.88,-17.55,-17.56,-5.14
68.01,-23.44,-23.34,-18.30,-18.20,6.00,5.97,5.85,-17.44,-17.34,-5.14
68.69,-23.05,-23.07,-17.91,-17.93,6.00,5.97,5.83,-17.05,-17.07,-5.14
69.37,-22.79,-22.83,-17.65,-17.69,6.00,5.96,5.80,-16.79,-16.83,-5.14
70.07,-22.66,-22.70,-17.52,-17.56,6.00,5.96,5.77,-16.66,-16.70,-5.14
70.77,-22.74,-22.75,-17.60,-17.61,6.00,5.95,5.74,-16.74,-16.75,-5.14
71.48,-22.88,-22.89,-17.74,-17.74,6.00,5.95,5.71,-16.88,-16.89,-5.14
72.19,-22.99,-22.95,-17.85,-17.80,6.00,5.94,5.68,-16.99,-16.95,-5.14
72.91,-22.93,-22.84,-17.79,-17.70,6.00,5.94,5.65,-16.93,-16.84,-5.14
73.64,-22.55,-22.58,-17.41,-17.44,6.00,5.93,5.62,-16.55,-16.58,-5.14
74.38,-22.21,-22.25,-17.07,-17.11,6.00,5.92,5.59,-16.21,-16.25,-5.14
75.12,-21.96,-21.96,-16.82,-16.82,6.00,5.92,5.57,-15.96,-15.96,-5.14
75.87,-21.76,-21.76,-16.62,-16.62,6.00,5.91,5.54,-15.76,-15.76,-5.14
76.63,-21.61,-21.61,-16.47,-16.47,6.00,5.91,5.52,-15.61,-15.61,-5.14
77.40,-21.49,-21.48,-16.35,-16.34,6.00,5.90,5.50,-15.49,-15.48,-5.14
78.17,-21.38,-21.37,-16.24,-16.23,6.00,5.90,5.48,-15.38,-15.37,-5.14
78.95,-21.25,-21.26,-16.11,-16.11,6.00,5.89,5.47,-15.25,-15.26,-5.14
79.74,-21.14,-21.12,-16.00,-15.98,6.00,5.89,5.46,-15.14,-15.12,-5.14
80.54,-21.00,-20.96,-15.86,-15.82,6.00,5.88,5.45,-15.00,-14.96,-5.14
81.35,-20.86,-20.94,-15.72,-15.80,6.00,5.88,5.44,-14.86,-14.94,-5.14
82.16,-20.84,-20.99,-15.70,-15.85,6.00,5.87,5.44,-14.84,-14.99,-5.14
82.98,-21.14,-20.91,-16.00,-15.77,6.00,5.87,5.45,-15.14,-14.91,-5.14
83.81,-20.81,-20.67,-15.67,-15.52,6.00,5.86,5.45,-14.81,-14.67,-5.14
84.65,-20.14,-20.34,-15.00,-15.20,6.00,5.86,5.46,-14.14,-14.34,-5.14
85.50,-19.89,-19.98,-14.75,-14.84,6.00,5.86,5.48,-13.89,-13.98,-5.14
86.35,-19.90,-19.80,-14.76,-14.66,6.00,5.86,5.50,-13.90,-13.80,-5.14
87.22,-19.75,-19.75,-14.61,-14.61,6.00,5.85,5.52,-13.75,-13.75,-5.14
88.09,-19.65,-19.65,-14.51,-14.50,6.00,5.85,5.55,-13.65,-13.65,-5.14
88.97,-19.50,-19.48,-14.36,-14.34,6.00,5.85,5.58,-13.50,-13.48,-5.14
89.86,-19.31,-19.33,-14.17,-14.19,6.00,5.85,5.62,-13.31,-13.33,-5.14
90.76,-19.16,-19.17,-14.02,-14.03,6.00,5.85,5.66,-13.16,-13.17,-5.14
91.66,-19.05,-19.04,-13.91,-13.90,6.00,5.85,5.70,-13.05,-13.04,-5.14
92.58,-18.92,-18.91,-13.78,-13.77,6.00,5.85,5.75,-12.92,-12.91,-5.14
93.51,-18.78,-18.77,-13.64,-13.63,6.00,5.86,5.80,-12.78,-12.77,-5.14
94.44,-18.61,-18.61,-13.47,-13.47,6.00,5.86,5.86,-12.61,-12.61,-5.14
95.39,-18.44,-18.45,-13.30,-13.30,6.00,5.86,5.92,-12.44,-12.45,-5.14
96.34,-18.29,-18.28,-13.15,-13.14,6.00,5.87,5.98,-12.29,-12.28,-5.14
97.30,-18.12,-18.12,-12.98,-12.98,6.00,5.87,6.05,-12.12,-12.12,-5.14
98.28,-17.98,-17.98,-12.84,-12.84,6.00,5.88,6.12,-11.98,-11.98,-5.14
99.26,-17.85,-17.85,-12.71,-12.70,6.00,5.89,6.19,-11.85,-11.85,-5.14
100.25,-17.74,-17.72,-12.60,-12.58,6.00,5.90,6.27,-11.74,-11.72,-5.14
101.25,-17.64,-17.65,-12.50,-12.51,6.00,5.91,6.34,-11.64,-11.65,-5.14
102.27,-17.59,-17.66,-12.45,-12.52,6.00,5.92,6.42,-11.59,-11.66,-5.14
103.29,-17.74,-17.74,-12.60,-12.60,6.00,5.93,6.50,-11.74,-11.74,-5.14
104.32,-17.80,-17.77,-12.66,-12.63,6.00,5.94,6.59,-11.80,-11.77,-5.14
105.37,-17.68,-17.55,-12.54,-12.41,6.00,5.95,6.67,-11.68,-11.55,-5.14
106.42,-17.17,-17.08,-12.03,-11.94,6.00,5.96,6.75,-11.17,-11.08,-5.14
107.48,-16.42,-16.60,-11.28,-11.45,6.00,5.98,6.83,-10.42,-10.60,-5.14
108.56,-16.18,-16.28,-11.04,-11.14,6.00,5.99,6.91,-10.18,-10.28,-5.14
109.64,-16.25,-16.21,-11.11,-11.07,6.00,6.01,6.99,-10.25,-10.21,-5.14
110.74,-16.35,-16.25,-11.21,-11.11,6.00,6.02,7.06,-10.35,-10.25,-5.14
111.85,-16.29,-16.33,-11.15,-11.19,6.00,6.04,7.13,-10.29,-10.33,-5.14
112.97,-16.17,-16.30,-11.03,-11.16,6.00,6.06,7.19,-10.17,-10.30,-5.14
114.10,-16.33,-16.10,-11.19,-10.96,6.00,6.07,7.25,-10.33,-10.10,-5.14
115.24,-15.80,-15.75,-10.66,-10.61,6.00,6.09,7.30,-9.80,-9.75,-5.14
116.39,-15.28,-15.42,-10.14,-10.28,6.00,6.11,7.35,-9.28,-9.42,-5.14
117.55,-15.03,-15.17,-9.89,-10.03,6.00,6.12,7.38,-9.03,-9.17,-5.14
118.73,-15.25,-15.10,-10.11,-9.96,6.00,6.14,7.41,-9.25,-9.10,-5.14
119.92,-15.22,-15.16,-10.08,-10.02,6.00,6.15,7.41,-9.22,-9.16,-5.14
121.12,-15.09,-15.23,-9.95,-10.09,6.00,6.17,7.42,-9.09,-9.23,-5.14
122.33,-15.29,-15.30,-10.15,-10.16,6.00,6.18,7.41,-9.29,-9.30,-5.14
123.55,-15.32,-15.26,-10.18,-10.12,6.00,6.19,7.39,-9.32,-9.26,-5.14
124.79,-15.21,-15.02,-10.07,-9.88,6.00,6.20,7.35,-9.21,-9.02,-5.14
126.03,-14.45,-14.50,-9.31,-9.36,6.00,6.21,7.31,-8.45,-8.50,-5.14
127.29,-13.92,-13.98,-8.78,-8.84,6.00,6.21,7.24,-7.92,-7.98,-5.14
128.57,-13.52,-13.65,-8.38,-8.51,6.00,6.22,7.17,-7.52,-7.65,-5.14
129.85,-13.69,-13.66,-8.55,-8.52,6.00,6.21,7.08,-7.69,-7.66,-5.14
131.15,-13.83,-13.82,-8.69,-8.68,6.00,6.21,6.99,-7.83,-7.82,-5.14
132.46,-13.99,-14.00,-8.85,-8.86,6.00,6.20,6.88,-7.99,-8.00,-5.14
133.79,-13.97,-13.85,-8.83,-8.71,6.00,6.19,6.76,-7.97,-7.85,-5.14
135.12,-13.60,-13.41,-8.45,-8.26,6.00,6.17,6.63,-7.60,-7.41,-5.14
136.48,-12.74,-12.91,-7.60,-7.77,6.00,6.15,6.50,-6.74,-6.91,-5.14
137.84,-12.35,-12.63,-7.21,-7.49,6.00,6.12,6.35,-6.35,-6.63,-5.14
139.22,-12.64,-12.54,-7.50,-7.40,6.00,6.09,6.20,-6.64,-6.54,-5.14
140.61,-12.83,-12.60,-7.69,-7.46,6.00,6.05,6.03,-6.83,-6.60,-5.14
142.02,-12.38,-12.49,-7.24,-7.35,6.00,6.01,5.87,-6.38,-6.49,-5.14
143.44,-12.21,-12.12,-7.07,-6.98,6.01,5.96,5.70,-6.20,-6.11,-5.14
144.87,-11.71,-11.73,-6.57,-6.59,6.02,5.91,5.53,-5.69,-5.71,-5.14
146.32,-11.43,-11.58,-6.29,-6.44,6.02,5.84,5.35,-5.41,-5.56,-5.14
147.78,-11.49,-11.53,-6.36,-6.39,6.00,5.78,5.17,-5.49,-5.52,-5.13
149.26,-11.73,-11.57,-6.60,-6.44,5.99,5.70,4.99,-5.74,-5.58,-5.13
150.75,-11.51,-11.49,-6.38,-6.36,5.97,5.62,4.80,-5.54,-5.53,-5.13
152.26,-11.27,-11.26,-6.14,-6.13,5.94,5.53,4.62,-5.33,-5.32,-5.13
153.78,-10.92,-10.95,-5.79,-5.81,5.89,5.44,4.43,-5.03,-5.06,-5.13
155.32,-10.76,-10.85,-5.63,-5.72,5.80,5.33,4.25,-4.95,-5.05,-5.13
156.88,-10.75,-10.83,-5.62,-5.70,5.69,5.23,4.06,-5.06,-5.14,-5.13
158.44,-11.02,-10.79,-5.89,-5.65,5.53,5.12,3.88,-5.49,-5.26,-5.13
160.03,-10.62,-10.64,-5.49,-5.50,5.35,5.00,3.70,-5.27,-5.29,-5.13
161.63,-10.30,-10.39,-5.16,-5.25,5.18,4.87,3.51,-5.12,-5.21,-5.14
163.24,-10.09,-10.08,-4.95,-4.94,5.03,4.75,3.33,-5.06,-5.06,-5.14
164.88,-9.91,-9.89,-4.77,-4.75,4.89,4.61,3.15,-5.02,-5.00,-5.14
166.53,-9.72,-9.68,-4.58,-4.54,4.74,4.48,2.97,-4.98,-4.94,-5.14
168.19,-9.56,-9.58,-4.42,-4.44,4.56,4.34,2.80,-5.00,-5.02,-5.14
169.87,-9.40,-9.60,-4.26,-4.46,4.39,4.19,2.62,-5.01,-5.21,-5.14
171.57,-9.74,-9.62,-4.60,-4.47,4.24,4.05,2.44,-5.50,-5.38,-5.14
173.29,-9.63,-9.43,-4.49,-4.29,4.11,3.90,2.27,-5.52,-5.33,-5.14
175.02,-9.13,-9.12,-3.99,-3.97,3.95,3.74,2.10,-5.17,-5.16,-5.14
176.77,-8.51,-8.75,-3.37,-3.61,3.77,3.59,1.93,-4.74,-4.98,-5.14
178.54,-8.54,-8.59,-3.40,-3.45,3.57,3.43,1.76,-4.97,-5.02,-5.14
180.32,-8.66,-8.57,-3.52,-3.42,3.38,3.27,1.59,-5.28,-5.19,-5.14
182.13,-8.61,-8.44,-3.47,-3.29,3.22,3.10,1.42,-5.39,-5.22,-5.14
183.95,-8.14,-8.13,-3.00,-2.99,3.08,2.94,1.26,-5.06,-5.05,-5.14
185.79,-7.65,-7.88,-2.51,-2.74,2.93,2.78,1.10,-4.72,-4.95,-5.14
187.65,-7.73,-7.79,-2.59,-2.65,2.75,2.61,0.93,-4.98,-5.04,-5.14
189.52,-7.97,-7.83,-2.83,-2.69,2.52,2.45,0.77,-5.45,-5.31,-5.14
191.42,-7.86,-7.81,-2.72,-2.67,2.28,2.28,0.61,-5.58,-5.53,-5.14
193.33,-7.51,-7.50,-2.37,-2.36,2.06,2.11,0.45,-5.45,-5.45,-5.14
195.27,-7.03,-6.94,-1.89,-1.80,1.88,1.94,0.29,-5.15,-5.06,-5.14
197.22,-6.40,-6.45,-1.26,-1.31,1.72,1.78,0.14,-4.68,-4.73,-5.14
199.19,-6.00,-6.23,-0.86,-1.09,1.53,1.61,-0.02,-4.47,-4.71,-5.14
201.18,-6.30,-6.31,-1.16,-1.17,1.32,1.44,-0.17,-4.98,-5.00,-5.14
203.19,-6.64,-6.49,-1.50,-1.35,1.11,1.27,-0.32,-5.53,-5.38,-5.14
205.23,-6.62,-6.49,-1.48,-1.35,0.94,1.10,-0.47,-5.67,-5.55,-5.14
207.28,-6.19,-6.22,-1.05,-1.08,0.84,0.94,-0.62,-5.34,-5.38,-5.14
209.35,-5.74,-5.80,-0.60,-0.66,0.78,0.77,-0.76,-4.96,-5.02,-5.14
211.44,-5.52,-5.53,-0.38,-0.39,0.69,0.60,-0.91,-4.83,-4.84,-5.14
213.56,-5.34,-5.47,-0.20,-0.33,0.55,0.43,-1.05,-4.79,-4.92,-5.14
215.69,-5.58,-5.46,-0.44,-0.32,0.35,0.27,-1.19,-5.23,-5.11,-5.14
217.85,-5.51,-5.44,-0.37,-0.29,0.12,0.10,-1.32,-5.39,-5.32,-5.14
220.03,-5.21,-5.33,-0.07,-0.19,-0.10,-0.06,-1.46,-5.31,-5.43,-5.14
222.23,-5.11,-5.04,0.03,0.10,-0.29,-0.23,-1.59,-5.40,-5.33,-5.14
224.45,-4.72,-4.63,0.42,0.51,-0.48,-0.40,-1.72,-5.20,-5.11,-5.14
226.70,-4.26,-4.31,0.88,0.83,-0.69,-0.56,-1.84,-4.95,-5.00,-5.14
228.96,-3.82,-4.02,1.32,1.13,-0.92,-0.73,-1.96,-4.74,-4.93,-5.14
231.25,-4.04,-3.85,1.10,1.29,-1.14,-0.89,-2.07,-5.18,-5.00,-5.14
233.57,-3.76,-3.81,1.38,1.33,-1.35,-1.05,-2.19,-5.11,-5.16,-5.14
235.90,-3.71,-3.72,1.44,1.42,-1.52,-1.22,-2.29,-5.23,-5.25,-5.15
238.26,-3.63,-3.53,1.52,1.62,-1.67,-1.38,-2.39,-5.30,-5.20,-5.15
240.64,-3.30,-3.40,1.85,1.75,-1.81,-1.55,-2.49,-5.11,-5.21,-5.15
243.05,-3.22,-3.23,1.93,1.92,-1.96,-1.71,-2.58,-5.18,-5.19,-5.15
245.48,-3.10,-3.03,2.05,2.13,-2.12,-1.87,-2.67,-5.22,-5.15,-5.15
247.93,-2.86,-2.87,2.29,2.29,-2.29,-2.04,-2.75,-5.15,-5.16,-5.15
250.41,-2.60,-2.67,2.55,2.48,-2.46,-2.20,-2.83,-5.06,-5.14,-5.15
252.92,-2.53,-2.47,2.62,2.68,-2.63,-2.36,-2.90,-5.16,-5.10,-5.15
255.45,-2.32,-2.27,2.82,2.87,-2.80,-2.53,-2.96,-5.12,-5.08,-5.14
258.00,-2.09,-2.17,3.05,2.97,-2.97,-2.69,-3.03,-5.06,-5.14,-5.14
260.58,-2.00,-2.08,3.14,3.06,-3.12,-2.85,-3.08,-5.12,-5.20,-5.14
263.19,-2.12,-1.97,3.02,3.17,-3.25,-3.01,-3.14,-5.36,-5.22,-5.14
265.82,-1.84,-1.77,3.30,3.37,-3.36,-3.18,-3.18,-5.20,-5.13,-5.14
268.48,-1.49,-1.54,3.65,3.60,-3.48,-3.34,-3.23,-4.97,-5.03,-5.14
271.16,-1.25,-1.42,3.89,3.72,-3.63,-3.50,-3.27,-4.88,-5.05,-5.14
273.87,-1.41,-1.40,3.73,3.74,-3.78,-3.66,-3.31,-5.19,-5.18,-5.14
276.61,-1.56,-1.34,3.58,3.80,-3.95,-3.82,-3.34,-5.51,-5.29,-5.14
279.38,-1.16,-1.18,3.98,3.96,-4.11,-3.98,-3.38,-5.27,-5.29,-5.14
282.17,-0.79,-0.91,4.35,4.22,-4.24,-4.14,-3.41,-5.03,-5.16,-5.14
284.99,-0.61,-0.56,4.52,4.57,-4.38,-4.30,-3.44,-4.99,-4.94,-5.13
287.84,-0.51,-0.44,4.61,4.69,-4.53,-4.46,-3.47,-5.04,-4.97,-5.12
290.72,-0.16,-0.40,4.96,4.72,-4.70,-4.62,-3.50,-4.86,-5.10,-5.12
293.63,-0.51,-0.30,4.61,4.82,-4.87,-4.78,-3.52,-5.38,-5.17,-5.12
296.57,-0.28,-0.24,4.83,4.88,-5.04,-4.93,-3.55,-5.31,-5.27,-5.11
299.53,0.09,-0.10,5.19,5.01,-5.17,-5.09,-3.58,-5.08,-5.27,-5.10
302.53,0.02,0.28,5.12,5.38,-5.30,-5.24,-3.61,-5.28,-5.02,-5.10
305.55,0.54,0.44,5.63,5.53,-5.41,-5.39,-3.64,-4.87,-4.97,-5.09
308.61,0.80,0.49,5.89,5.58,-5.52,-5.54,-3.67,-4.72,-5.02,-5.09
311.69,0.30,0.64,5.38,5.72,-5.62,-5.69,-3.70,-5.32,-4.98,-5.08
314.81,0.60,0.68,5.68,5.76,-5.72,-5.83,-3.73,-5.12,-5.04,-5.08
317.96,0.98,0.72,6.05,5.79,-5.84,-5.97,-3.77,-4.86,-5.13,-5.07
321.14,0.83,0.83,5.90,5.90,-5.97,-6.11,-3.81,-5.14,-5.14,-5.07
324.35,0.72,0.84,5.78,5.90,-6.09,-6.24,-3.85,-5.37,-5.25,-5.06
327.59,0.92,0.99,5.96,6.04,-6.22,-6.37,-3.89,-5.30,-5.23,-5.04
330.87,1.31,1.33,6.35,6.37,-6.36,-6.50,-3.94,-5.05,-5.03,-5.04
334.18,1.78,1.64,6.81,6.67,-6.48,-6.62,-3.99,-4.70,-4.84,-5.03
337.52,1.83,1.80,6.86,6.83,-6.60,-6.73,-4.04,-4.77,-4.80,-5.03
340.90,1.74,1.80,6.76,6.82,-6.71,-6.85,-4.09,-4.97,-4.91,-5.02
344.30,1.74,1.74,6.75,6.76,-6.80,-6.95,-4.15,-5.06,-5.06,-5.01
347.75,1.73,1.78,6.73,6.79,-6.88,-7.05,-4.21,-5.15,-5.10,-5.00
351.23,1.88,1.84,6.88,6.84,-6.94,-7.14,-4.28,-5.06,-5.10,-5.00
354.74,1.98,1.94,6.96,6.93,-6.98,-7.23,-4.35,-5.00,-5.04,-4.98
358.28,1.96,2.07,6.94,7.05,-7.04,-7.31,-4.42,-5.08,-4.97,-4.98
361.87,2.21,2.14,7.18,7.11,-7.12,-7.38,-4.50,-4.91,-4.98,-4.97
365.49,2.29,2.23,7.25,7.19,-7.22,-7.44,-4.57,-4.92,-4.99,-4.96
369.14,2.25,2.38,7.21,7.33,-7.30,-7.50,-4.66,-5.05,-4.93,-4.96
