frequency,raw,error,smoothed,error_smoothed,equalization,parametric_eq,fixed_band_eq,equalized_raw,equalized_smoothed,target
20.00,3.32,-1.43,3.31,-1.44,1.45,0.70,-0.45,4.77,4.77,4.75
20.20,3.42,-1.38,3.42,-1.38,1.39,0.66,-0.46,4.80,4.80,4.80
20.40,3.52,-1.33,3.52,-1.33,1.33,0.62,-0.48,4.84,4.84,4.85
20.61,3.61,-1.26,3.62,-1.27,1.26,0.57,-0.49,4.87,4.88,4.88
20.81,3.72,-1.21,3.71,-1.21,1.20,0.53,-0.50,4.91,4.91,4.93
21.02,3.82,-1.15,3.81,-1.15,1.13,0.49,-0.51,4.95,4.95,4.97
21.23,3.91,-1.08,3.91,-1.08,1.07,0.44,-0.53,4.97,4.98,4.99
21.44,4.01,-1.00,4.01,-1.00,1.00,0.40,-0.54,5.01,5.01,5.01
21.66,4.09,-0.93,4.10,-0.92,0.94,0.36,-0.55,5.03,5.04,5.03
21.87,4.20,-0.84,4.19,-0.85,0.87,0.31,-0.57,5.06,5.06,5.04
22.09,4.27,-0.79,4.26,-0.79,0.80,0.27,-0.58,5.07,5.06,5.05
22.31,4.33,-0.74,4.33,-0.73,0.73,0.23,-0.60,5.06,5.06,5.06
22.54,4.38,-0.68,4.39,-0.68,0.67,0.18,-0.61,5.06,5.06,5.06
22.76,4.45,-0.62,4.44,-0.62,0.61,0.14,-0.63,5.05,5.05,5.06
22.99,4.51,-0.55,4.51,-0.55,0.55,0.09,-0.64,5.05,5.06,5.05
23.22,4.58,-0.48,4.57,-0.48,0.48,0.05,-0.66,5.06,5.06,5.05
23.45,4.65,-0.41,4.64,-0.41,0.41,0.01,-0.68,5.06,5.05,5.05
23.69,4.71,-0.35,4.71,-0.34,0.34,-0.04,-0.69,5.05,5.05,5.06
23.92,4.79,-0.27,4.79,-0.27,0.25,-0.08,-0.71,5.04,5.04,5.06
24.16,4.88,-0.19,4.88,-0.19,0.17,-0.13,-0.73,5.04,5.05,5.07
24.40,4.98,-0.10,4.98,-0.09,0.09,-0.17,-0.75,5.06,5.06,5.08
24.65,5.07,0.01,5.08,0.01,0.01,-0.22,-0.77,5.08,5.08,5.07
24.89,5.18,0.11,5.17,0.10,-0.07,-0.26,-0.79,5.10,5.10,5.07
25.14,5.25,0.18,5.24,0.17,-0.15,-0.31,-0.81,5.10,5.09,5.06
25.39,5.30,0.22,5.30,0.23,-0.22,-0.35,-0.83,5.08,5.08,5.07
25.65,5.35,0.27,5.35,0.28,-0.29,-0.40,-0.85,5.06,5.06,5.07
25.91,5.39,0.33,5.40,0.33,-0.35,-0.44,-0.87,5.05,5.05,5.06
26.16,5.46,0.40,5.46,0.40,-0.41,-0.49,-0.89,5.05,5.05,5.06
26.43,5.52,0.46,5.52,0.46,-0.47,-0.53,-0.91,5.06,5.05,5.06
26.69,5.59,0.53,5.59,0.53,-0.53,-0.58,-0.93,5.06,5.06,5.06
26.96,5.65,0.59,5.66,0.59,-0.59,-0.62,-0.95,5.06,5.06,5.07
27.23,5.72,0.66,5.72,0.66,-0.66,-0.67,-0.97,5.06,5.06,5.07
27.50,5.80,0.73,5.79,0.73,-0.73,-0.71,-0.99,5.06,5.06,5.06
27.77,5.86,0.80,5.86,0.80,-0.80,-0.76,-1.02,5.06,5.06,5.05
28.05,5.93,0.87,5.92,0.88,-0.87,-0.81,-1.04,5.06,5.06,5.05
28.33,5.99,0.95,5.98,0.94,-0.93,-0.85,-1.06,5.05,5.05,5.04
28.62,6.03,1.00,6.04,1.00,-0.99,-0.90,-1.08,5.04,5.05,5.04
28.90,6.10,1.05,6.10,1.05,-1.06,-0.94,-1.11,5.04,5.04,5.05
29.19,6.16,1.12,6.15,1.11,-1.12,-0.99,-1.13,5.04,5.04,5.04
29.48,6.22,1.16,6.22,1.17,-1.18,-1.03,-1.15,5.04,5.04,5.05
29.78,6.27,1.23,6.27,1.23,-1.24,-1.08,-1.17,5.04,5.04,5.04
30.08,6.33,1.28,6.33,1.29,-1.29,-1.12,-1.19,5.04,5.04,5.05
30.38,6.39,1.36,6.40,1.36,-1.35,-1.17,-1.22,5.04,5.04,5.04
30.68,6.46,1.42,6.46,1.42,-1.41,-1.21,-1.24,5.05,5.05,5.04
30.99,6.51,1.48,6.51,1.48,-1.46,-1.26,-1.26,5.05,5.05,5.03
31.30,6.55,1.52,6.55,1.52,-1.52,-1.30,-1.28,5.04,5.04,5.03
31.61,6.60,1.57,6.60,1.57,-1.57,-1.35,-1.31,5.02,5.02,5.03
31.93,6.63,1.61,6.64,1.61,-1.62,-1.39,-1.33,5.01,5.01,5.03
32.24,6.69,1.67,6.69,1.67,-1.67,-1.43,-1.35,5.01,5.02,5.01
32.57,6.74,1.72,6.74,1.73,-1.72,-1.48,-1.37,5.02,5.02,5.02
32.89,6.81,1.79,6.80,1.78,-1.78,-1.52,-1.40,5.03,5.02,5.02
33.22,6.85,1.84,6.84,1.83,-1.83,-1.57,-1.42,5.01,5.01,5.01
33.55,6.89,1.88,6.88,1.88,-1.89,-1.61,-1.44,5.00,4.99,5.00
33.89,6.92,1.92,6.92,1.93,-1.94,-1.66,-1.46,4.97,4.98,4.99
34.23,6.98,1.98,6.98,1.99,-1.99,-1.70,-1.49,4.98,4.99,5.00
34.57,7.04,2.05,7.04,2.05,-2.04,-1.74,-1.51,5.00,5.00,4.98
34.92,7.10,2.12,7.09,2.11,-2.08,-1.79,-1.54,5.02,5.01,4.98
35.27,7.13,2.15,7.12,2.14,-2.12,-1.83,-1.56,5.00,4.99,4.98
35.62,7.14,2.16,7.13,2.16,-2.17,-1.87,-1.59,4.97,4.97,4.97
35.97,7.14,2.16,7.15,2.18,-2.21,-1.92,-1.62,4.92,4.94,4.97
36.33,7.20,2.22,7.20,2.23,-2.25,-1.96,-1.64,4.94,4.95,4.98
36.70,7.26,2.30,7.26,2.29,-2.29,-2.00,-1.67,4.97,4.97,4.96
37.06,7.33,2.37,7.32,2.35,-2.33,-2.05,-1.70,4.99,4.98,4.96
37.43,7.36,2.38,7.36,2.39,-2.38,-2.09,-1.73,4.98,4.98,4.98
37.81,7.39,2.41,7.39,2.42,-2.42,-2.13,-1.76,4.97,4.97,4.97
38.19,7.42,2.45,7.42,2.45,-2.46,-2.17,-1.80,4.96,4.97,4.97
38.57,7.47,2.49,7.47,2.49,-2.49,-2.22,-1.83,4.97,4.98,4.97
38.95,7.52,2.54,7.50,2.53,-2.52,-2.26,-1.86,4.99,4.98,4.98
39.34,7.54,2.56,7.53,2.56,-2.55,-2.30,-1.90,4.99,4.98,4.97
39.74,7.55,2.58,7.55,2.58,-2.58,-2.34,-1.94,4.97,4.97,4.97
40.14,7.57,2.59,7.57,2.60,-2.61,-2.38,-1.98,4.95,4.95,4.97
40.54,7.60,2.63,7.59,2.63,-2.65,-2.42,-2.02,4.95,4.94,4.97
40.94,7.63,2.67,7.63,2.67,-2.69,-2.47,-2.06,4.94,4.94,4.96
41.35,7.68,2.72,7.68,2.72,-2.73,-2.51,-2.11,4.95,4.95,4.95
41.76,7.73,2.78,7.72,2.77,-2.77,-2.55,-2.15,4.96,4.95,4.95
42.18,7.77,2.81,7.77,2.82,-2.80,-2.59,-2.20,4.96,4.96,4.95
42.60,7.80,2.86,7.80,2.86,-2.84,-2.63,-2.25,4.96,4.96,4.93
43.03,7.83,2.90,7.82,2.89,-2.87,-2.67,-2.30,4.95,4.95,4.93
43.46,7.83,2.91,7.83,2.91,-2.90,-2.71,-2.35,4.92,4.92,4.92
43.90,7.83,2.93,7.83,2.93,-2.93,-2.75,-2.41,4.89,4.89,4.89
44.33,7.83,2.95,7.82,2.94,-2.96,-2.79,-2.46,4.86,4.86,4.87
44.78,7.83,2.97,7.83,2.97,-3.00,-2.83,-2.52,4.83,4.83,4.86
45.23,7.85,3.00,7.85,3.01,-3.03,-2.87,-2.58,4.81,4.82,4.85
45.68,7.90,3.07,7.89,3.06,-3.07,-2.91,-2.65,4.83,4.82,4.83
46.13,7.94,3.12,7.94,3.12,-3.11,-2.95,-2.71,4.83,4.83,4.81
46.60,7.98,3.17,7.98,3.18,-3.15,-2.99,-2.78,4.83,4.83,4.81
47.06,8.03,3.23,8.01,3.21,-3.20,-3.03,-2.84,4.82,4.81,4.79
47.53,8.03,3.24,8.03,3.24,-3.25,-3.06,-2.91,4.78,4.78,4.78
48.01,8.03,3.24,8.05,3.27,-3.29,-3.10,-2.98,4.73,4.76,4.78
48.49,8.08,3.31,8.08,3.31,-3.33,-3.14,-3.05,4.75,4.75,4.76
48.97,8.13,3.39,8.11,3.37,-3.36,-3.18,-3.13,4.77,4.75,4.74
49.46,8.13,3.41,8.13,3.41,-3.39,-3.22,-3.20,4.74,4.74,4.72
49.96,8.13,3.43,8.13,3.43,-3.41,-3.26,-3.28,4.72,4.72,4.70
50.46,8.13,3.43,8.13,3.43,-3.43,-3.29,-3.35,4.70,4.70,4.69
50.96,8.13,3.44,8.13,3.45,-3.44,-3.33,-3.43,4.68,4.68,4.68
51.47,8.13,3.47,8.13,3.46,-3.46,-3.37,-3.51,4.67,4.67,4.66
51.99,8.13,3.48,8.12,3.47,-3.48,-3.41,-3.59,4.64,4.64,4.65
52.51,8.13,3.48,8.12,3.48,-3.51,-3.44,-3.67,4.62,4.62,4.64
53.03,8.13,3.49,8.14,3.51,-3.54,-3.48,-3.74,4.59,4.60,4.64
53.56,8.18,3.55,8.17,3.55,-3.58,-3.52,-3.82,4.60,4.60,4.62
54.10,8.23,3.62,8.23,3.62,-3.62,-3.55,-3.90,4.61,4.61,4.61
54.64,8.29,3.69,8.28,3.69,-3.66,-3.59,-3.97,4.62,4.62,4.59
55.18,8.33,3.74,8.31,3.73,-3.70,-3.63,-4.05,4.62,4.61,4.58
55.74,8.33,3.76,8.33,3.76,-3.74,-3.66,-4.12,4.59,4.59,4.57
56.29,8.33,3.77,8.33,3.77,-3.77,-3.70,-4.19,4.56,4.56,4.56
56.86,8.33,3.78,8.33,3.79,-3.79,-3.74,-4.26,4.53,4.53,4.54
57.42,8.33,3.81,8.33,3.80,-3.81,-3.77,-4.32,4.52,4.52,4.51
58.00,8.33,3.82,8.33,3.82,-3.82,-3.81,-4.39,4.50,4.50,4.50
58.58,8.33,3.83,8.33,3.83,-3.84,-3.85,-4.44,4.49,4.49,4.49
59.16,8.33,3.85,8.33,3.85,-3.86,-3.88,-4.50,4.47,4.47,4.47
59.76,8.33,3.87,8.33,3.88,-3.89,-3.92,-4.55,4.44,4.44,4.45
60.35,8.33,3.92,8.33,3.91,-3.92,-3.95,-4.59,4.41,4.41,4.41
60.96,8.33,3.95,8.33,3.95,-3.95,-3.99,-4.63,4.38,4.38,4.38
61.57,8.33,3.99,8.33,3.99,-3.98,-4.03,-4.67,4.34,4.34,4.33
62.18,8.33,4.03,8.33,4.03,-4.02,-4.06,-4.70,4.30,4.30,4.29
62.80,8.33,4.08,8.33,4.08,-4.07,-4.10,-4.73,4.25,4.25,4.25
63.43,8.33,4.12,8.32,4.12,-4.13,-4.14,-4.75,4.19,4.19,4.20
64.07,8.33,4.17,8.32,4.16,-4.19,-4.17,-4.77,4.13,4.13,4.16
64.71,8.33,4.22,8.34,4.23,-4.26,-4.21,-4.78,4.07,4.09,4.11
65.35,8.37,4.29,8.38,4.31,-4.32,-4.24,-4.79,4.05,4.06,4.07
66.01,8.45,4.42,8.41,4.39,-4.38,-4.28,-4.79,4.07,4.04,4.02
66.67,8.44,4.46,8.44,4.47,-4.43,-4.32,-4.79,4.01,4.02,3.97
67.33,8.44,4.51,8.45,4.52,-4.48,-4.35,-4.79,3.96,3.97,3.92
68.01,8.45,4.56,8.42,4.54,-4.52,-4.39,-4.78,3.93,3.90,3.88
68.69,8.39,4.55,8.39,4.55,-4.56,-4.42,-4.77,3.83,3.83,3.83
69.37,8.34,4.55,8.35,4.57,-4.59,-4.46,-4.76,3.75,3.76,3.78
70.07,8.32,4.59,8.32,4.59,-4.62,-4.50,-4.74,3.69,3.70,3.73
70.77,8.33,4.64,8.32,4.64,-4.66,-4.53,-4.73,3.66,3.65,3.68
71.48,8.33,4.70,8.32,4.70,-4.71,-4.57,-4.71,3.62,3.61,3.63
72.19,8.33,4.76,8.32,4.76,-4.76,-4.61,-4.69,3.56,3.56,3.56
72.91,8.33,4.82,8.33,4.82,-4.82,-4.64,-4.68,3.51,3.51,3.51
73.64,8.33,4.87,8.34,4.89,-4.87,-4.68,-4.66,3.45,3.47,3.45
74.38,8.35,4.95,8.34,4.95,-4.93,-4.71,-4.64,3.42,3.42,3.39
75.12,8.36,5.02,8.33,5.00,-4.98,-4.75,-4.62,3.38,3.36,3.34
75.87,8.31,5.03,8.31,5.03,-5.02,-4.79,-4.61,3.29,3.29,3.28
76.63,8.26,5.03,8.27,5.04,-5.05,-4.82,-4.59,3.20,3.21,3.23
77.40,8.23,5.05,8.23,5.06,-5.08,-4.86,-4.58,3.14,3.15,3.18
78.17,8.23,5.11,8.23,5.11,-5.11,-4.90,-4.57,3.12,3.12,3.11
78.95,8.23,5.14,8.22,5.15,-5.13,-4.93,-4.56,3.10,3.10,3.08
79.74,8.22,5.20,8.19,5.17,-5.15,-4.97,-4.56,3.07,3.04,3.03
80.54,8.15,5.16,8.16,5.17,-5.18,-5.01,-4.55,2.97,2.98,2.98
81.35,8.10,5.17,8.12,5.19,-5.21,-5.04,-4.55,2.88,2.91,2.93
82.16,8.12,5.23,8.11,5.22,-5.25,-5.08,-4.56,2.87,2.86,2.88
82.98,8.13,5.28,8.12,5.28,-5.29,-5.12,-4.56,2.83,2.82,2.85
83.81,8.13,5.34,8.13,5.33,-5.34,-5.15,-4.57,2.79,2.79,2.79
84.65,8.13,5.38,8.13,5.38,-5.38,-5.19,-4.58,2.75,2.75,2.74
85.50,8.13,5.42,8.13,5.43,-5.42,-5.23,-4.60,2.71,2.71,2.70
86.35,8.13,5.47,8.13,5.48,-5.46,-5.26,-4.62,2.67,2.68,2.65
87.22,8.13,5.52,8.12,5.52,-5.49,-5.30,-4.64,2.64,2.63,2.60
88.09,8.12,5.56,8.09,5.54,-5.52,-5.33,-4.67,2.60,2.57,2.55
88.97,8.03,5.52,8.03,5.53,-5.54,-5.37,-4.70,2.49,2.50,2.50
89.86,7.97,5.51,7.98,5.53,-5.55,-5.41,-4.73,2.41,2.43,2.45
90.76,7.94,5.54,7.94,5.54,-5.57,-5.44,-4.77,2.37,2.37,2.40
91.66,7.94,5.58,7.94,5.59,-5.59,-5.48,-4.81,2.35,2.35,2.36
92.58,7.94,5.64,7.92,5.62,-5.61,-5.51,-4.85,2.32,2.31,2.29
93.51,7.91,5.66,7.89,5.63,-5.64,-5.55,-4.90,2.26,2.24,2.25
94.44,7.84,5.63,7.85,5.64,-5.67,-5.58,-4.95,2.17,2.18,2.21
95.39,7.80,5.63,7.83,5.67,-5.69,-5.61,-5.00,2.11,2.14,2.16
96.34,7.84,5.73,7.84,5.73,-5.70,-5.65,-5.06,2.14,2.14,2.11
97.30,7.87,5.80,7.83,5.77,-5.71,-5.68,-5.12,2.16,2.13,2.06
98.28,7.82,5.80,7.77,5.75,-5.71,-5.71,-5.18,2.10,2.06,2.02
99.26,7.64,5.67,7.67,5.70,-5.72,-5.74,-5.25,1.92,1.95,1.97
100.25,7.54,5.61,7.58,5.66,-5.72,-5.78,-5.32,1.82,1.86,1.92
101.25,7.56,5.68,7.54,5.66,-5.72,-5.81,-5.39,1.84,1.82,1.88
102.27,7.56,5.72,7.54,5.72,-5.71,-5.84,-5.46,1.85,1.84,1.83
103.29,7.54,5.76,7.54,5.76,-5.71,-5.87,-5.53,1.83,1.84,1.78
104.32,7.52,5.78,7.49,5.75,-5.72,-5.90,-5.60,1.80,1.77,1.74
105.37,7.44,5.74,7.42,5.72,-5.74,-5.92,-5.68,1.70,1.68,1.69
106.42,7.32,5.67,7.36,5.71,-5.76,-5.95,-5.75,1.55,1.60,1.65
107.48,7.32,5.72,7.34,5.75,-5.78,-5.98,-5.83,1.54,1.56,1.59
108.56,7.36,5.82,7.34,5.80,-5.79,-6.01,-5.90,1.56,1.55,1.53
109.64,7.37,5.89,7.32,5.84,-5.80,-6.03,-5.98,1.58,1.53,1.49
110.74,7.26,5.82,7.27,5.84,-5.81,-6.06,-6.04,1.45,1.46,1.43
111.85,7.18,5.78,7.21,5.83,-5.82,-6.08,-6.11,1.35,1.39,1.40
112.97,7.16,5.82,7.14,5.80,-5.83,-6.10,-6.18,1.32,1.31,1.33
114.10,7.14,5.85,7.10,5.82,-5.83,-6.12,-6.24,1.30,1.27,1.29
115.24,7.03,5.78,7.07,5.84,-5.82,-6.15,-6.29,1.20,1.25,1.24
116.39,7.04,5.85,7.01,5.82,-5.81,-6.17,-6.35,1.23,1.20,1.19
117.55,6.99,5.83,6.95,5.80,-5.80,-6.18,-6.39,1.19,1.16,1.15
118.73,6.86,5.75,6.91,5.79,-5.79,-6.20,-6.43,1.07,1.12,1.11
119.92,6.87,5.78,6.85,5.77,-5.77,-6.22,-6.46,1.09,1.07,1.09
121.12,6.81,5.76,6.79,5.75,-5.76,-6.23,-6.49,1.05,1.03,1.04
122.33,6.75,5.73,6.75,5.74,-5.74,-6.25,-6.51,1.00,1.01,1.01
123.55,6.70,5.71,6.72,5.74,-5.73,-6.26,-6.52,0.97,0.99,0.99
124.79,6.70,5.74,6.69,5.73,-5.72,-6.27,-6.52,0.97,0.97,0.96
126.03,6.70,5.77,6.64,5.71,-5.73,-6.29,-6.52,0.97,0.91,0.93
127.29,6.58,5.67,6.60,5.70,-5.73,-6.29,-6.51,0.84,0.87,0.91
128.57,6.53,5.66,6.58,5.71,-5.73,-6.30,-6.49,0.80,0.85,0.87
129.85,6.60,5.76,6.57,5.73,-5.72,-6.31,-6.46,0.87,0.85,0.84
131.15,6.60,5.78,6.57,5.76,-5.71,-6.32,-6.43,0.89,0.86,0.81
132.46,6.54,5.75,6.55,5.77,-5.69,-6.32,-6.39,0.84,0.86,0.78
133.79,6.46,5.70,6.46,5.71,-5.68,-6.32,-6.34,0.77,0.78,0.76
135.12,6.41,5.69,6.37,5.65,-5.68,-6.32,-6.29,0.74,0.70,0.72
136.48,6.27,5.56,6.31,5.61,-5.67,-6.32,-6.23,0.59,0.64,0.71
137.84,6.28,5.60,6.29,5.62,-5.67,-6.32,-6.17,0.60,0.62,0.67
139.22,6.32,5.68,6.30,5.66,-5.68,-6.32,-6.11,0.63,0.62,0.64
140.61,6.35,5.74,6.33,5.72,-5.70,-6.32,-6.03,0.65,0.64,0.61
142.02,6.35,5.75,6.35,5.76,-5.73,-6.31,-5.96,0.62,0.62,0.59
143.44,6.35,5.78,6.35,5.79,-5.77,-6.30,-5.89,0.58,0.58,0.56
144.87,6.35,5.82,6.35,5.82,-5.81,-6.30,-5.81,0.53,0.53,0.52
146.32,6.35,5.86,6.35,5.86,-5.85,-6.28,-5.74,0.49,0.49,0.48
147.78,6.35,5.89,6.35,5.90,-5.90,-6.27,-5.66,0.44,0.44,0.45
149.26,6.35,5.94,6.35,5.95,-5.96,-6.26,-5.58,0.38,0.38,0.41
150.75,6.35,6.01,6.35,6.00,-6.04,-6.25,-5.50,0.31,0.31,0.34
152.26,6.35,6.07,6.34,6.07,-6.12,-6.23,-5.43,0.23,0.22,0.27
153.78,6.35,6.14,6.34,6.14,-6.19,-6.21,-5.35,0.15,0.15,0.21
155.32,6.35,6.21,6.37,6.24,-6.25,-6.19,-5.28,0.09,0.12,0.13
156.88,6.40,6.34,6.42,6.37,-6.29,-6.17,-5.21,0.10,0.13,0.06
158.44,6.45,6.47,6.40,6.43,-6.32,-6.15,-5.14,0.13,0.08,-0.03
160.03,6.37,6.47,6.28,6.39,-6.32,-6.13,-5.07,0.04,-0.04,-0.11
161.63,6.05,6.22,6.11,6.28,-6.29,-6.10,-5.01,-0.24,-0.18,-0.18
163.24,5.86,6.09,5.93,6.16,-6.22,-6.07,-4.95,-0.37,-0.30,-0.24
164.88,5.83,6.11,5.79,6.08,-6.11,-6.04,-4.89,-0.29,-0.33,-0.29
166.53,5.71,6.04,5.70,6.04,-5.98,-6.02,-4.84,-0.28,-0.28,-0.34
168.19,5.56,5.93,5.54,5.92,-5.84,-5.98,-4.79,-0.28,-0.30,-0.38
169.87,5.35,5.77,5.32,5.73,-5.70,-5.95,-4.74,-0.35,-0.39,-0.41
171.57,5.06,5.49,5.10,5.53,-5.58,-5.92,-4.70,-0.53,-0.48,-0.43
173.29,4.92,5.36,4.94,5.39,-5.48,-5.88,-4.66,-0.56,-0.54,-0.45
175.02,4.86,5.31,4.85,5.31,-5.38,-5.84,-4.62,-0.53,-0.54,-0.45
176.77,4.85,5.31,4.82,5.29,-5.30,-5.80,-4.59,-0.45,-0.48,-0.47
178.54,4.80,5.27,4.81,5.28,-5.24,-5.76,-4.56,-0.44,-0.43,-0.47
180.32,4.80,5.26,4.80,5.27,-5.21,-5.72,-4.53,-0.42,-0.41,-0.46
182.13,4.80,5.25,4.77,5.23,-5.22,-5.67,-4.51,-0.43,-0.46,-0.46
183.95,4.77,5.24,4.74,5.20,-5.25,-5.63,-4.49,-0.49,-0.52,-0.47
185.79,4.69,5.16,4.74,5.22,-5.29,-5.58,-4.48,-0.61,-0.55,-0.47
187.65,4.77,5.26,4.79,5.28,-5.33,-5.53,-4.47,-0.56,-0.54,-0.49
189.52,4.92,5.42,4.88,5.38,-5.36,-5.48,-4.46,-0.45,-0.48,-0.50
191.42,4.97,5.49,4.96,5.48,-5.40,-5.43,-4.45,-0.43,-0.44,-0.52
193.33,4.98,5.52,4.95,5.49,-5.43,-5.38,-4.45,-0.45,-0.48,-0.54
195.27,4.89,5.44,4.90,5.45,-5.45,-5.32,-4.45,-0.56,-0.55,-0.56
197.22,4.81,5.38,4.85,5.43,-5.44,-5.26,-4.45,-0.64,-0.59,-0.58
199.19,4.83,5.43,4.81,5.41,-5.41,-5.21,-4.45,-0.59,-0.60,-0.60
201.18,4.81,5.43,4.77,5.39,-5.36,-5.15,-4.46,-0.56,-0.60,-0.62
203.19,4.69,5.32,4.69,5.33,-5.30,-5.08,-4.47,-0.62,-0.61,-0.64
205.23,4.57,5.23,4.58,5.23,-5.24,-5.02,-4.48,-0.68,-0.67,-0.66
207.28,4.48,5.14,4.47,5.14,-5.19,-4.96,-4.49,-0.72,-0.73,-0.67
209.35,4.38,5.07,4.39,5.09,-5.14,-4.89,-4.50,-0.77,-0.75,-0.69
211.44,4.34,5.06,4.34,5.06,-5.08,-4.82,-4.51,-0.75,-0.74,-0.73
213.56,4.32,5.04,4.31,5.04,-5.02,-4.75,-4.52,-0.71,-0.71,-0.73
215.69,4.28,5.02,4.27,5.01,-4.96,-4.68,-4.53,-0.69,-0.69,-0.74
217.85,4.22,4.97,4.20,4.95,-4.91,-4.61,-4.54,-0.69,-0.71,-0.75
220.03,4.10,4.86,4.10,4.87,-4.86,-4.53,-4.55,-0.77,-0.76,-0.77
222.23,3.99,4.77,3.99,4.78,-4.81,-4.46,-4.55,-0.82,-0.81,-0.79
224.45,3.92,4.70,3.91,4.69,-4.74,-4.38,-4.55,-0.83,-0.83,-0.78
226.70,3.85,4.63,3.87,4.65,-4.67,-4.30,-4.55,-0.82,-0.80,-0.78
228.96,3.86,4.63,3.86,4.63,-4.59,-4.22,-4.54,-0.74,-0.74,-0.77
231.25,3.86,4.62,3.83,4.59,-4.53,-4.13,-4.53,-0.68,-0.70,-0.76
233.57,3.80,4.55,3.76,4.51,-4.49,-4.05,-4.51,-0.69,-0.72,-0.75
235.90,3.66,4.40,3.67,4.41,-4.46,-3.96,-4.49,-0.80,-0.79,-0.74
238.26,3.57,4.30,3.61,4.34,-4.44,-3.87,-4.46,-0.87,-0.83,-0.73
240.64,3.62,4.33,3.63,4.34,-4.42,-3.78,-4.43,-0.81,-0.79,-0.71
243.05,3.72,4.40,3.69,4.38,-4.40,-3.69,-4.39,-0.69,-0.71,-0.68
245.48,3.79,4.44,3.76,4.42,-4.37,-3.60,-4.34,-0.59,-0.61,-0.66
247.93,3.77,4.39,3.79,4.42,-4.34,-3.50,-4.28,-0.57,-0.55,-0.63
250.41,3.77,4.38,3.75,4.36,-4.29,-3.40,-4.21,-0.52,-0.54,-0.61
252.92,3.70,4.28,3.66,4.24,-4.21,-3.31,-4.14,-0.52,-0.56,-0.58
255.45,3.52,4.07,3.55,4.11,-4.11,-3.20,-4.06,-0.59,-0.56,-0.56
258.00,3.39,3.92,3.42,3.96,-3.97,-3.10,-3.97,-0.58,-0.54,-0.54
260.58,3.33,3.85,3.29,3.80,-3.81,-3.00,-3.88,-0.48,-0.52,-0.52
263.19,3.17,3.66,3.13,3.63,-3.64,-2.89,-3.78,-0.47,-0.50,-0.49
265.82,2.94,3.41,2.96,3.44,-3.46,-2.78,-3.66,-0.53,-0.50,-0.48
268.48,2.77,3.22,2.79,3.24,-3.28,-2.67,-3.55,-0.52,-0.49,-0.45
271.16,2.66,3.07,2.64,3.07,-3.10,-2.56,-3.42,-0.45,-0.46,-0.42
273.87,2.54,2.94,2.52,2.92,-2.91,-2.44,-3.29,-0.37,-0.39,-0.40
276.61,2.37,2.73,2.38,2.75,-2.70,-2.33,-3.16,-0.34,-0.33,-0.37
279.38,2.22,2.56,2.21,2.55,-2.49,-2.21,-3.02,-0.28,-0.28,-0.34
282.17,2.02,2.33,2.01,2.32,-2.28,-2.09,-2.87,-0.26,-0.27,-0.32
284.99,1.80,2.09,1.79,2.08,-2.07,-1.96,-2.72,-0.26,-0.28,-0.28
287.84,1.55,1.81,1.57,1.83,-1.87,-1.84,-2.56,-0.32,-0.30,-0.27
290.72,1.37,1.60,1.37,1.61,-1.67,-1.71,-2.41,-0.31,-0.30,-0.23
293.63,1.23,1.43,1.21,1.42,-1.49,-1.58,-2.24,-0.27,-0.28,-0.21
296.57,1.10,1.27,1.12,1.30,-1.32,-1.45,-2.08,-0.23,-0.20,-0.17
299.53,1.04,1.18,1.03,1.18,-1.17,-1.32,-1.91,-0.14,-0.14,-0.15
302.53,1.00,1.13,0.96,1.08,-1.05,-1.18,-1.74,-0.05,-0.09,-0.13
305.55,0.85,0.93,0.88,0.97,-0.93,-1.05,-1.57,-0.08,-0.05,-0.08
308.61,0.79,0.85,0.77,0.84,-0.82,-0.91,-1.40,-0.03,-0.05,-0.07
311.69,0.68,0.72,0.65,0.69,-0.71,-0.76,-1.23,-0.04,-0.06,-0.04
314.81,0.54,0.55,0.55,0.57,-0.60,-0.62,-1.05,-0.07,-0.05,-0.01
317.96,0.45,0.44,0.49,0.49,-0.50,-0.47,-0.87,-0.05,-0.01,0.00
321.14,0.42,0.41,0.39,0.38,-0.39,-0.33,-0.70,0.03,0.00,0.01
324.35,0.37,0.34,0.27,0.25,-0.27,-0.17,-0.52,0.09,0.00,0.03
327.59,0.07,0.02,0.17,0.13,-0.13,-0.02,-0.34,-0.07,0.03,0.04
330.87,0.02,-0.03,0.06,0.00,0.03,0.13,-0.16,0.04,0.08,0.05
334.18,0.01,-0.06,-0.06,-0.13,0.20,0.29,0.02,0.21,0.14,0.07
337.52,-0.18,-0.26,-0.22,-0.30,0.40,0.45,0.20,0.21,0.18,0.07
340.90,-0.48,-0.58,-0.49,-0.58,0.61,0.61,0.39,0.13,0.12,0.09
344.30,-0.83,-0.93,-0.80,-0.89,0.83,0.77,0.57,-0.00,0.04,0.10
347.75,-1.06,-1.16,-1.05,-1.15,1.07,0.94,0.75,0.00,0.02,0.10
351.23,-1.25,-1.36,-1.24,-1.34,1.31,1.10,0.94,0.05,0.07,0.11
354.74,-1.38,-1.49,-1.41,-1.52,1.54,1.27,1.13,0.15,0.12,0.10
358.28,-1.58,-1.69,-1.61,-1.72,1.75,1.44,1.31,0.17,0.13,0.11
361.87,-1.86,-1.97,-1.83,-1.94,1.93,1.61,1.50,0.07,0.11,0.11
365.49,-2.04,-2.16,-2.03,-2.14,2.10,1.78,1.69,0.05,0.07,0.12
369.14,-2.19,-2.30,-2.22,-2.32,2.25,1.96,1.88,0.06,0.04,0.10
372.83,-2.33,-2.44,-2.33,-2.44,2.42,2.13,2.07,0.08,0.08,0.10
376.56,-2.49,-2.60,-2.44,-2.55,2.59,2.31,2.26,0.09,0.15,0.10
380.33,-2.52,-2.63,-2.57,-2.68,2.76,2.48,2.45,0.23,0.18,0.11
384.13,-2.72,-2.83,-2.76,-2.87,2.92,2.66,2.64,0.20,0.16,0.11
387.97,-3.00,-3.10,-3.00,-3.10,3.10,2.84,2.83,0.09,0.10,0.10
391.85,-3.29,-3.38,-3.24,-3.33,3.29,3.01,3.02,-0.01,0.05,0.09
395.77,-3.44,-3.54,-3.43,-3.52,3.49,3.19,3.22,0.05,0.06,0.09
399.73,-3.57,-3.66,-3.62,-3.70,3.71,3.37,3.41,0.14,0.10,0.08
403.72,-3.77,-3.86,-3.79,-3.87,3.93,3.54,3.60,0.16,0.14,0.08
407.76,-4.06,-4.13,-4.02,-4.09,4.13,3.71,3.80,0.07,0.12,0.07
411.84,-4.22,-4.29,-4.28,-4.35,4.32,3.88,3.99,0.09,0.03,0.07
415.96,-4.49,-4.56,-4.49,-4.55,4.49,4.05,4.18,-0.00,0.01,0.07
420.12,-4.72,-4.79,-4.62,-4.68,4.65,4.22,4.37,-0.07,0.04,0.07
424.32,-4.66,-4.73,-4.75,-4.81,4.79,4.38,4.55,0.12,0.04,0.06
428.56,-4.76,-4.84,-4.82,-4.89,4.90,4.54,4.73,0.13,0.07,0.07
432.85,-4.97,-5.06,-4.87,-4.95,4.98,4.69,4.91,0.00,0.11,0.08
437.18,-4.94,-5.04,-4.99,-5.09,5.04,4.84,5.09,0.09,0.05,0.09
441.55,-4.95,-5.09,-5.02,-5.15,5.09,4.98,5.26,0.14,0.07,0.13
445.96,-5.11,-5.27,-4.95,-5.11,5.15,5.11,5.42,0.03,0.19,0.16
450.42,-4.89,-5.08,-4.95,-5.15,5.21,5.24,5.58,0.31,0.25,0.19
454.93,-4.81,-5.05,-4.95,-5.19,5.27,5.36,5.73,0.45,0.31,0.24
459.48,-5.10,-5.39,-4.99,-5.28,5.33,5.47,5.87,0.23,0.34,0.29
464.07,-5.07,-5.41,-5.10,-5.44,5.40,5.58,6.00,0.32,0.30,0.34
468.71,-5.17,-5.57,-5.12,-5.51,5.46,5.67,6.12,0.29,0.34,0.40
473.40,-5.08,-5.52,-5.08,-5.52,5.52,5.75,6.23,0.44,0.44,0.43
478.13,-4.98,-5.48,-5.10,-5.59,5.57,5.83,6.33,0.59,0.47,0.49
482.91,-5.13,-5.67,-5.10,-5.63,5.61,5.89,6.41,0.47,0.51,0.53
487.74,-5.19,-5.77,-5.08,-5.66,5.63,5.94,6.48,0.43,0.55,0.57
492.62,-4.98,-5.61,-5.05,-5.67,5.63,5.99,6.54,0.65,0.58,0.62
497.55,-4.91,-5.56,-4.96,-5.61,5.63,6.02,6.58,0.71,0.66,0.64
502.52,-4.96,-5.64,-4.91,-5.57,5.62,6.04,6.60,0.66,0.71,0.67
507.55,-4.89,-5.57,-4.94,-5.62,5.63,6.05,6.61,0.73,0.69,0.68
512.62,-4.95,-5.64,-4.95,-5.65,5.64,6.05,6.61,0.68,0.69,0.69
517.75,-5.00,-5.70,-4.95,-5.64,5.67,6.04,6.59,0.66,0.72,0.70
522.93,-4.94,-5.63,-4.98,-5.66,5.70,6.02,6.57,0.76,0.72,0.69
