frequency,raw,error,smoothed,error_smoothed,equalization,parametric_eq,fixed_band_eq,equalized_raw,equalized_smoothed,target
20.00,-1.57,-5.84,-1.57,-5.84,5.84,6.55,1.80,4.27,4.27,4.27
20.20,-1.52,-5.83,-1.52,-5.83,5.83,6.48,1.86,4.31,4.32,4.31
20.40,-1.46,-5.81,-1.46,-5.81,5.82,6.41,1.91,4.36,4.36,4.35
20.61,-1.41,-5.79,-1.41,-5.80,5.80,6.34,1.97,4.39,4.39,4.38
20.81,-1.36,-5.78,-1.36,-5.78,5.78,6.27,2.03,4.42,4.42,4.42
21.02,-1.30,-5.76,-1.30,-5.76,5.75,6.20,2.09,4.46,4.45,4.46
21.23,-1.25,-5.73,-1.25,-5.73,5.73,6.13,2.16,4.48,4.48,4.48
21.44,-1.19,-5.69,-1.19,-5.69,5.69,6.06,2.22,4.51,4.50,4.50
21.66,-1.14,-5.66,-1.14,-5.66,5.66,5.99,2.29,4.52,4.52,4.52
21.87,-1.08,-5.61,-1.08,-5.62,5.62,5.92,2.36,4.54,4.54,4.53
22.09,-1.03,-5.58,-1.03,-5.58,5.57,5.85,2.43,4.55,4.55,4.55
22.31,-0.97,-5.53,-0.97,-5.53,5.53,5.78,2.50,4.56,4.56,4.56
22.54,-0.91,-5.48,-0.91,-5.48,5.48,5.70,2.57,4.57,4.57,4.57
22.76,-0.85,-5.43,-0.85,-5.43,5.43,5.63,2.65,4.58,4.58,4.58
22.99,-0.79,-5.37,-0.79,-5.37,5.37,5.56,2.73,4.59,4.59,4.58
23.22,-0.73,-5.32,-0.73,-5.32,5.32,5.49,2.81,4.60,4.60,4.59
23.45,-0.67,-5.27,-0.67,-5.27,5.27,5.42,2.89,4.61,4.60,4.60
23.69,-0.61,-5.22,-0.61,-5.22,5.22,5.35,2.97,4.61,4.61,4.61
23.92,-0.55,-5.17,-0.55,-5.17,5.17,5.28,3.06,4.63,4.62,4.62
24.16,-0.49,-5.13,-0.49,-5.13,5.12,5.20,3.14,4.64,4.64,4.64
24.40,-0.43,-5.09,-0.43,-5.08,5.07,5.13,3.23,4.65,4.65,4.66
24.65,-0.37,-5.03,-0.37,-5.03,5.02,5.06,3.32,4.66,4.66,4.66
24.89,-0.31,-4.97,-0.30,-4.97,4.97,4.99,3.41,4.67,4.67,4.67
25.14,-0.24,-4.91,-0.24,-4.92,4.92,4.92,3.50,4.68,4.68,4.68
25.39,-0.18,-4.86,-0.18,-4.87,4.87,4.84,3.59,4.69,4.69,4.69
25.65,-0.12,-4.82,-0.11,-4.81,4.81,4.77,3.68,4.70,4.70,4.71
25.91,-0.05,-4.76,-0.05,-4.76,4.76,4.70,3.77,4.71,4.71,4.71
26.16,0.01,-4.70,0.01,-4.70,4.71,4.63,3.86,4.72,4.72,4.71
26.43,0.07,-4.65,0.07,-4.65,4.65,4.56,3.95,4.72,4.73,4.72
26.69,0.14,-4.59,0.14,-4.60,4.60,4.49,4.04,4.74,4.74,4.73
26.96,0.20,-4.55,0.20,-4.55,4.54,4.41,4.12,4.74,4.75,4.75
27.23,0.27,-4.49,0.27,-4.49,4.49,4.34,4.20,4.76,4.76,4.76
27.50,0.34,-4.43,0.34,-4.43,4.43,4.27,4.28,4.77,4.77,4.77
27.77,0.40,-4.37,0.41,-4.37,4.37,4.20,4.36,4.77,4.78,4.77
28.05,0.47,-4.32,0.47,-4.31,4.31,4.13,4.43,4.78,4.78,4.79
28.33,0.54,-4.25,0.54,-4.25,4.25,4.06,4.50,4.79,4.79,4.79
28.62,0.61,-4.19,0.61,-4.19,4.19,3.99,4.57,4.80,4.80,4.80
28.90,0.68,-4.13,0.68,-4.12,4.13,3.92,4.62,4.81,4.81,4.81
29.19,0.75,-4.05,0.75,-4.06,4.07,3.84,4.67,4.82,4.82,4.81
29.48,0.82,-4.01,0.82,-4.01,4.00,3.77,4.71,4.83,4.82,4.84
29.78,0.89,-3.94,0.89,-3.94,3.94,3.70,4.75,4.83,4.83,4.83
30.08,0.96,-3.88,0.96,-3.88,3.88,3.63,4.78,4.84,4.84,4.84
30.38,1.03,-3.81,1.03,-3.82,3.82,3.56,4.80,4.85,4.85,4.84
30.68,1.10,-3.76,1.10,-3.75,3.76,3.49,4.81,4.86,4.86,4.86
30.99,1.17,-3.69,1.17,-3.69,3.69,3.42,4.81,4.87,4.87,4.86
31.30,1.24,-3.63,1.24,-3.63,3.63,3.35,4.81,4.87,4.87,4.87
31.61,1.30,-3.58,1.30,-3.57,3.57,3.28,4.79,4.87,4.87,4.88
31.93,1.37,-3.52,1.37,-3.51,3.51,3.21,4.77,4.88,4.88,4.89
32.24,1.45,-3.43,1.45,-3.44,3.44,3.15,4.74,4.90,4.89,4.89
32.57,1.52,-3.38,1.52,-3.38,3.38,3.08,4.69,4.90,4.90,4.90
32.89,1.60,-3.31,1.60,-3.31,3.32,3.01,4.64,4.92,4.92,4.91
33.22,1.67,-3.25,1.67,-3.25,3.25,2.94,4.58,4.92,4.92,4.92
33.55,1.74,-3.19,1.75,-3.18,3.19,2.87,4.52,4.93,4.93,4.93
33.89,1.82,-3.12,1.82,-3.12,3.12,2.81,4.45,4.94,4.94,4.94
34.23,1.89,-3.05,1.89,-3.05,3.05,2.74,4.37,4.94,4.94,4.95
34.57,1.97,-2.98,1.97,-2.98,2.98,2.67,4.29,4.95,4.95,4.95
34.92,2.05,-2.90,2.05,-2.91,2.90,2.61,4.20,4.95,4.95,4.95
35.27,2.13,-2.83,2.13,-2.83,2.83,2.54,4.10,4.96,4.96,4.96
35.62,2.22,-2.75,2.22,-2.75,2.75,2.47,4.00,4.97,4.97,4.97
35.97,2.30,-2.66,2.30,-2.67,2.67,2.41,3.90,4.97,4.97,4.97
36.33,2.38,-2.59,2.38,-2.59,2.59,2.34,3.80,4.97,4.97,4.97
36.70,2.46,-2.51,2.46,-2.51,2.51,2.28,3.69,4.97,4.97,4.97
37.06,2.54,-2.44,2.55,-2.43,2.43,2.21,3.58,4.97,4.97,4.98
37.43,2.63,-2.35,2.63,-2.35,2.35,2.15,3.47,4.98,4.98,4.99
37.81,2.72,-2.26,2.72,-2.27,2.27,2.09,3.36,4.99,4.99,4.98
38.19,2.80,-2.18,2.80,-2.18,2.19,2.02,3.25,4.99,4.99,4.98
38.57,2.87,-2.11,2.87,-2.11,2.11,1.96,3.13,4.98,4.98,4.98
38.95,2.94,-2.03,2.95,-2.03,2.03,1.90,3.02,4.97,4.98,4.98
39.34,3.02,-1.95,3.02,-1.95,1.96,1.84,2.90,4.98,4.97,4.97
39.74,3.09,-1.88,3.09,-1.88,1.88,1.77,2.79,4.97,4.97,4.97
40.14,3.16,-1.82,3.16,-1.81,1.81,1.71,2.68,4.97,4.98,4.98
40.54,3.23,-1.74,3.23,-1.74,1.75,1.65,2.57,4.98,4.97,4.97
40.94,3.29,-1.68,3.29,-1.68,1.68,1.59,2.46,4.97,4.97,4.97
41.35,3.35,-1.61,3.36,-1.61,1.62,1.53,2.35,4.97,4.97,4.97
41.76,3.42,-1.55,3.42,-1.55,1.55,1.48,2.24,4.97,4.97,4.97
42.18,3.48,-1.50,3.48,-1.49,1.49,1.42,2.13,4.97,4.97,4.98
42.60,3.55,-1.42,3.55,-1.43,1.42,1.36,2.02,4.98,4.97,4.97
43.03,3.61,-1.37,3.61,-1.36,1.36,1.30,1.92,4.97,4.97,4.98
43.46,3.68,-1.29,3.68,-1.29,1.29,1.24,1.81,4.97,4.97,4.98
43.90,3.74,-1.22,3.74,-1.22,1.23,1.19,1.71,4.97,4.97,4.96
44.33,3.81,-1.15,3.81,-1.15,1.16,1.13,1.61,4.97,4.97,4.97
44.78,3.87,-1.09,3.87,-1.09,1.09,1.08,1.51,4.96,4.96,4.96
45.23,3.93,-1.03,3.94,-1.02,1.02,1.02,1.41,4.96,4.96,4.96
45.68,4.00,-0.96,4.00,-0.96,0.96,0.97,1.31,4.96,4.96,4.96
46.13,4.07,-0.88,4.07,-0.89,0.90,0.91,1.21,4.97,4.96,4.96
46.60,4.13,-0.84,4.14,-0.83,0.83,0.86,1.12,4.96,4.97,4.97
47.06,4.20,-0.76,4.20,-0.77,0.77,0.81,1.02,4.97,4.97,4.96
47.53,4.26,-0.70,4.26,-0.71,0.70,0.75,0.93,4.96,4.96,4.96
48.01,4.32,-0.65,4.32,-0.64,0.64,0.70,0.84,4.96,4.96,4.97
48.49,4.38,-0.57,4.38,-0.57,0.57,0.65,0.75,4.95,4.95,4.96
48.97,4.44,-0.50,4.44,-0.50,0.50,0.60,0.66,4.94,4.94,4.94
49.46,4.50,-0.43,4.50,-0.43,0.43,0.55,0.57,4.93,4.93,4.93
49.96,4.56,-0.35,4.56,-0.36,0.36,0.50,0.48,4.92,4.92,4.91
50.46,4.62,-0.30,4.62,-0.29,0.29,0.45,0.40,4.91,4.91,4.92
50.96,4.68,-0.23,4.68,-0.22,0.22,0.40,0.31,4.90,4.90,4.91
51.47,4.74,-0.14,4.74,-0.15,0.15,0.35,0.23,4.89,4.89,4.88
51.99,4.80,-0.07,4.80,-0.07,0.08,0.31,0.15,4.88,4.88,4.87
52.51,4.86,-0.01,4.86,-0.01,0.01,0.26,0.07,4.87,4.86,4.87
53.03,4.91,0.06,4.91,0.06,-0.07,0.21,-0.01,4.85,4.85,4.85
53.56,4.97,0.13,4.97,0.13,-0.14,0.16,-0.09,4.83,4.83,4.84
54.10,5.03,0.21,5.03,0.20,-0.21,0.12,-0.16,4.82,4.82,4.82
54.64,5.09,0.28,5.09,0.28,-0.28,0.07,-0.24,4.81,4.81,4.81
55.18,5.15,0.36,5.15,0.35,-0.35,0.02,-0.31,4.81,4.80,4.79
55.74,5.20,0.43,5.20,0.42,-0.41,-0.02,-0.38,4.79,4.79,4.77
56.29,5.24,0.47,5.24,0.48,-0.48,-0.07,-0.45,4.77,4.77,4.77
56.86,5.28,0.53,5.28,0.53,-0.53,-0.11,-0.52,4.75,4.75,4.75
57.42,5.32,0.59,5.32,0.59,-0.59,-0.16,-0.58,4.73,4.73,4.73
58.00,5.36,0.65,5.36,0.64,-0.64,-0.20,-0.65,4.72,4.72,4.72
58.58,5.39,0.69,5.39,0.69,-0.69,-0.24,-0.71,4.70,4.71,4.70
59.16,5.42,0.73,5.42,0.73,-0.73,-0.29,-0.77,4.69,4.69,4.69
59.76,5.45,0.77,5.45,0.77,-0.78,-0.33,-0.82,4.67,4.67,4.68
60.35,5.47,0.82,5.47,0.82,-0.83,-0.38,-0.88,4.64,4.65,4.65
60.96,5.49,0.86,5.49,0.87,-0.87,-0.42,-0.93,4.62,4.62,4.63
61.57,5.51,0.92,5.51,0.92,-0.92,-0.46,-0.98,4.60,4.59,4.59
62.18,5.52,0.96,5.52,0.96,-0.96,-0.51,-1.03,4.56,4.57,4.56
62.80,5.54,1.00,5.54,1.00,-1.00,-0.55,-1.07,4.54,4.54,4.54
63.43,5.54,1.04,5.54,1.04,-1.03,-0.59,-1.12,4.51,4.51,4.51
64.07,5.55,1.07,5.55,1.07,-1.07,-0.63,-1.16,4.48,4.48,4.48
64.71,5.55,1.10,5.55,1.10,-1.10,-0.68,-1.20,4.45,4.45,4.45
65.35,5.55,1.13,5.55,1.13,-1.12,-0.72,-1.24,4.43,4.43,4.42
66.01,5.54,1.15,5.55,1.15,-1.15,-0.76,-1.27,4.40,4.40,4.39
66.67,5.54,1.17,5.54,1.17,-1.17,-0.80,-1.30,4.37,4.37,4.38
67.33,5.53,1.19,5.53,1.19,-1.19,-0.85,-1.34,4.34,4.34,4.35
68.01,5.52,1.21,5.53,1.21,-1.22,-0.89,-1.37,4.31,4.31,4.32
68.69,5.52,1.24,5.52,1.24,-1.24,-0.93,-1.40,4.28,4.28,4.28
69.37,5.52,1.27,5.52,1.27,-1.27,-0.97,-1.43,4.25,4.25,4.25
70.07,5.52,1.30,5.52,1.30,-1.29,-1.02,-1.45,4.23,4.23,4.22
70.77,5.52,1.32,5.52,1.32,-1.32,-1.06,-1.48,4.20,4.20,4.20
71.48,5.52,1.35,5.52,1.35,-1.35,-1.10,-1.51,4.17,4.17,4.18
72.19,5.52,1.38,5.52,1.38,-1.38,-1.14,-1.53,4.15,4.15,4.14
72.91,5.52,1.40,5.52,1.40,-1.40,-1.18,-1.56,4.12,4.12,4.12
73.64,5.52,1.43,5.52,1.43,-1.43,-1.22,-1.59,4.10,4.10,4.09
74.38,5.52,1.44,5.52,1.45,-1.45,-1.26,-1.61,4.07,4.07,4.08
75.12,5.52,1.47,5.52,1.47,-1.47,-1.31,-1.64,4.05,4.05,4.05
75.87,5.52,1.49,5.52,1.49,-1.49,-1.35,-1.67,4.03,4.03,4.04
76.63,5.52,1.50,5.52,1.50,-1.50,-1.39,-1.69,4.02,4.02,4.02
77.40,5.52,1.52,5.52,1.52,-1.52,-1.43,-1.72,4.00,4.01,4.00
78.17,5.52,1.54,5.52,1.54,-1.53,-1.47,-1.75,3.99,4.00,3.98
78.95,5.52,1.55,5.52,1.54,-1.54,-1.50,-1.78,3.99,3.98,3.97
79.74,5.51,1.55,5.51,1.55,-1.54,-1.54,-1.81,3.97,3.97,3.96
80.54,5.49,1.54,5.50,1.54,-1.55,-1.58,-1.85,3.94,3.95,3.95
81.35,5.49,1.55,5.49,1.55,-1.56,-1.62,-1.88,3.93,3.93,3.94
82.16,5.49,1.56,5.49,1.56,-1.57,-1.65,-1.92,3.92,3.93,3.93
82.98,5.50,1.57,5.50,1.58,-1.58,-1.69,-1.95,3.92,3.92,3.93
83.81,5.51,1.59,5.51,1.59,-1.59,-1.72,-1.99,3.92,3.92,3.92
84.65,5.52,1.62,5.53,1.61,-1.61,-1.76,-2.03,3.92,3.92,3.90
85.50,5.54,1.63,5.54,1.63,-1.62,-1.79,-2.07,3.92,3.92,3.91
86.35,5.56,1.65,5.56,1.65,-1.65,-1.83,-2.11,3.91,3.91,3.91
87.22,5.57,1.67,5.57,1.67,-1.68,-1.86,-2.16,3.90,3.90,3.90
88.09,5.59,1.69,5.60,1.69,-1.71,-1.89,-2.20,3.89,3.89,3.90
88.97,5.63,1.73,5.63,1.73,-1.74,-1.92,-2.25,3.89,3.89,3.90
89.86,5.67,1.76,5.67,1.77,-1.77,-1.96,-2.30,3.90,3.90,3.91
90.76,5.72,1.83,5.72,1.82,-1.81,-1.99,-2.35,3.91,3.90,3.89
91.66,5.76,1.87,5.76,1.87,-1.86,-2.03,-2.41,3.90,3.90,3.89
92.58,5.80,1.91,5.80,1.91,-1.91,-2.07,-2.46,3.89,3.89,3.89
93.51,5.85,1.95,5.85,1.95,-1.96,-2.11,-2.52,3.89,3.89,3.90
94.44,5.90,2.01,5.90,2.01,-2.02,-2.16,-2.58,3.88,3.88,3.89
95.39,5.96,2.07,5.96,2.07,-2.08,-2.21,-2.64,3.88,3.89,3.89
96.34,6.02,2.15,6.02,2.14,-2.14,-2.26,-2.70,3.89,3.88,3.88
97.30,6.08,2.21,6.08,2.21,-2.20,-2.32,-2.76,3.88,3.88,3.87
98.28,6.12,2.26,6.12,2.27,-2.26,-2.38,-2.83,3.86,3.87,3.86
99.26,6.17,2.32,6.17,2.32,-2.32,-2.44,-2.89,3.85,3.85,3.85
100.25,6.22,2.38,6.23,2.38,-2.38,-2.51,-2.96,3.84,3.84,3.84
101.25,6.28,2.45,6.28,2.45,-2.45,-2.57,-3.03,3.83,3.83,3.83
102.27,6.34,2.53,6.33,2.51,-2.51,-2.64,-3.09,3.83,3.82,3.81
103.29,6.37,2.58,6.38,2.58,-2.58,-2.71,-3.16,3.79,3.79,3.79
104.32,6.41,2.63,6.42,2.64,-2.65,-2.78,-3.23,3.76,3.77,3.78
105.37,6.48,2.72,6.48,2.71,-2.73,-2.84,-3.30,3.75,3.75,3.76
106.42,6.54,2.81,6.54,2.80,-2.80,-2.91,-3.37,3.74,3.73,3.74
107.48,6.59,2.88,6.59,2.88,-2.88,-2.98,-3.44,3.71,3.72,3.72
108.56,6.64,2.96,6.64,2.96,-2.95,-3.04,-3.50,3.69,3.69,3.68
109.64,6.69,3.04,6.69,3.04,-3.03,-3.10,-3.57,3.66,3.66,3.65
110.74,6.72,3.10,6.73,3.11,-3.10,-3.17,-3.63,3.62,3.62,3.62
111.85,6.76,3.18,6.76,3.18,-3.18,-3.23,-3.70,3.58,3.58,3.58
112.97,6.78,3.25,6.78,3.25,-3.25,-3.29,-3.75,3.53,3.53,3.53
114.10,6.81,3.31,6.82,3.32,-3.33,-3.34,-3.81,3.48,3.49,3.50
115.24,6.85,3.40,6.85,3.39,-3.40,-3.40,-3.87,3.45,3.45,3.45
116.39,6.88,3.48,6.88,3.47,-3.47,-3.45,-3.92,3.41,3.41,3.41
117.55,6.91,3.54,6.91,3.55,-3.54,-3.51,-3.96,3.37,3.37,3.37
118.73,6.94,3.62,6.94,3.62,-3.61,-3.56,-4.01,3.33,3.33,3.32
119.92,6.97,3.68,6.97,3.68,-3.68,-3.61,-4.05,3.29,3.29,3.29
121.12,7.00,3.75,7.00,3.75,-3.75,-3.66,-4.08,3.25,3.25,3.25
122.33,7.02,3.81,7.03,3.81,-3.82,-3.71,-4.11,3.20,3.21,3.21
123.55,7.05,3.87,7.06,3.88,-3.88,-3.75,-4.14,3.17,3.17,3.18
124.79,7.09,3.94,7.09,3.94,-3.94,-3.80,-4.16,3.15,3.14,3.15
126.03,7.12,4.01,7.12,4.00,-4.00,-3.84,-4.18,3.12,3.11,3.11
127.29,7.13,4.05,7.14,4.06,-4.05,-3.88,-4.19,3.08,3.08,3.08
128.57,7.15,4.12,7.15,4.11,-4.10,-3.93,-4.20,3.05,3.05,3.04
129.85,7.16,4.15,7.16,4.15,-4.13,-3.96,-4.20,3.03,3.02,3.01
131.15,7.16,4.18,7.16,4.18,-4.17,-4.00,-4.20,3.00,2.99,2.98
132.46,7.15,4.19,7.15,4.20,-4.19,-4.04,-4.19,2.96,2.96,2.96
133.79,7.14,4.21,7.14,4.21,-4.21,-4.08,-4.19,2.93,2.93,2.93
135.12,7.13,4.23,7.13,4.22,-4.23,-4.11,-4.17,2.90,2.90,2.90
136.48,7.12,4.24,7.12,4.24,-4.26,-4.14,-4.16,2.86,2.87,2.88
137.84,7.12,4.27,7.12,4.27,-4.28,-4.18,-4.14,2.84,2.84,2.85
139.22,7.13,4.31,7.13,4.31,-4.31,-4.21,-4.12,2.82,2.82,2.82
140.61,7.14,4.35,7.15,4.35,-4.35,-4.24,-4.10,2.79,2.80,2.79
142.02,7.17,4.39,7.17,4.39,-4.39,-4.26,-4.07,2.78,2.78,2.78
143.44,7.19,4.42,7.19,4.43,-4.43,-4.29,-4.05,2.76,2.76,2.77
144.87,7.22,4.48,7.22,4.48,-4.47,-4.32,-4.02,2.75,2.74,2.74
146.32,7.23,4.52,7.24,4.52,-4.51,-4.34,-3.99,2.72,2.72,2.71
147.78,7.25,4.55,7.25,4.56,-4.55,-4.36,-3.97,2.70,2.70,2.70
149.26,7.26,4.59,7.26,4.59,-4.59,-4.38,-3.94,2.67,2.67,2.67
150.75,7.26,4.64,7.26,4.63,-4.63,-4.40,-3.92,2.63,2.64,2.63
152.26,7.26,4.66,7.26,4.66,-4.66,-4.42,-3.89,2.60,2.60,2.60
153.78,7.26,4.68,7.26,4.69,-4.69,-4.44,-3.87,2.58,2.57,2.58
155.32,7.25,4.72,7.25,4.71,-4.71,-4.46,-3.84,2.54,2.54,2.53
156.88,7.24,4.73,7.24,4.73,-4.73,-4.47,-3.82,2.51,2.51,2.51
158.44,7.23,4.75,7.23,4.75,-4.75,-4.48,-3.80,2.48,2.48,2.48
160.03,7.21,4.77,7.21,4.77,-4.77,-4.49,-3.78,2.44,2.44,2.44
161.63,7.19,4.79,7.19,4.79,-4.79,-4.50,-3.77,2.41,2.41,2.40
163.24,7.17,4.80,7.17,4.80,-4.81,-4.51,-3.76,2.36,2.36,2.37
164.88,7.15,4.81,7.15,4.82,-4.83,-4.52,-3.75,2.32,2.32,2.34
166.53,7.14,4.84,7.14,4.84,-4.86,-4.53,-3.74,2.28,2.29,2.30
168.19,7.14,4.88,7.14,4.88,-4.89,-4.53,-3.73,2.25,2.25,2.26
169.87,7.14,4.92,7.14,4.92,-4.92,-4.54,-3.73,2.22,2.22,2.22
171.57,7.14,4.96,7.14,4.96,-4.96,-4.54,-3.73,2.19,2.18,2.18
173.29,7.13,4.99,7.13,4.99,-4.99,-4.54,-3.73,2.14,2.14,2.14
175.02,7.12,5.02,7.12,5.03,-5.02,-4.54,-3.74,2.10,2.10,2.10
176.77,7.10,5.06,7.10,5.05,-5.05,-4.54,-3.75,2.05,2.05,2.04
178.54,7.07,5.07,7.08,5.08,-5.07,-4.53,-3.76,2.00,2.01,2.00
180.32,7.04,5.09,7.04,5.09,-5.08,-4.53,-3.78,1.96,1.96,1.95
182.13,7.01,5.10,7.00,5.09,-5.09,-4.52,-3.80,1.92,1.91,1.91
183.95,6.93,5.08,6.94,5.09,-5.09,-4.52,-3.82,1.84,1.86,1.85
185.79,6.88,5.07,6.88,5.08,-5.08,-4.51,-3.84,1.80,1.80,1.81
187.65,6.82,5.07,6.82,5.07,-5.06,-4.50,-3.87,1.76,1.76,1.75
189.52,6.76,5.06,6.76,5.05,-5.05,-4.49,-3.90,1.72,1.71,1.70
191.42,6.68,5.02,6.68,5.02,-5.02,-4.48,-3.93,1.66,1.66,1.66
193.33,6.60,4.98,6.61,4.99,-4.99,-4.46,-3.96,1.61,1.61,1.62
195.27,6.53,4.95,6.53,4.95,-4.96,-4.45,-4.00,1.57,1.57,1.58
197.22,6.45,4.92,6.45,4.93,-4.93,-4.43,-4.04,1.53,1.53,1.53
199.19,6.37,4.90,6.37,4.89,-4.89,-4.42,-4.08,1.48,1.48,1.48
201.18,6.29,4.86,6.29,4.85,-4.85,-4.40,-4.12,1.44,1.44,1.44
203.19,6.20,4.80,6.21,4.81,-4.80,-4.38,-4.16,1.40,1.40,1.41
205.23,6.12,4.77,6.12,4.75,-4.76,-4.36,-4.21,1.37,1.36,1.36
207.28,6.03,4.70,6.03,4.70,-4.71,-4.34,-4.25,1.32,1.32,1.34
209.35,5.94,4.65,5.94,4.66,-4.66,-4.32,-4.30,1.28,1.29,1.29
211.44,5.85,4.61,5.85,4.61,-4.61,-4.30,-4.34,1.24,1.25,1.24
213.56,5.77,4.56,5.76,4.55,-4.56,-4.28,-4.39,1.22,1.21,1.21
215.69,5.67,4.48,5.68,4.50,-4.50,-4.25,-4.44,1.17,1.17,1.19
217.85,5.59,4.44,5.60,4.45,-4.45,-4.23,-4.48,1.14,1.15,1.15
220.03,5.53,4.42,5.53,4.41,-4.40,-4.20,-4.52,1.13,1.13,1.12
222.23,5.46,4.37,5.45,4.36,-4.35,-4.18,-4.56,1.12,1.11,1.09
224.45,5.37,4.30,5.37,4.30,-4.29,-4.15,-4.60,1.08,1.08,1.07
226.70,5.28,4.23,5.29,4.24,-4.24,-4.12,-4.64,1.04,1.04,1.05
228.96,5.21,4.18,5.22,4.18,-4.20,-4.10,-4.67,1.01,1.02,1.03
231.25,5.16,4.14,5.15,4.14,-4.15,-4.07,-4.70,1.01,1.00,1.02
233.57,5.10,4.10,5.10,4.10,-4.10,-4.04,-4.73,1.00,1.00,1.00
235.90,5.04,4.05,5.05,4.06,-4.06,-4.01,-4.74,0.98,0.99,0.99
238.26,5.01,4.03,5.00,4.02,-4.01,-3.98,-4.76,1.00,0.99,0.98
240.64,4.96,3.98,4.96,3.98,-3.97,-3.94,-4.77,0.99,0.99,0.98
243.05,4.91,3.93,4.91,3.93,-3.93,-3.91,-4.77,0.98,0.98,0.98
245.48,4.86,3.88,4.86,3.88,-3.88,-3.88,-4.77,0.98,0.98,0.98
247.93,4.81,3.83,4.82,3.84,-3.84,-3.85,-4.76,0.97,0.97,0.98
250.41,4.78,3.80,4.77,3.79,-3.80,-3.81,-4.75,0.98,0.97,0.98
252.92,4.73,3.74,4.74,3.75,-3.76,-3.78,-4.73,0.97,0.98,0.99
255.45,4.71,3.70,4.71,3.71,-3.72,-3.75,-4.70,1.00,1.00,1.01
258.00,4.69,3.68,4.69,3.67,-3.67,-3.71,-4.67,1.02,1.02,1.01
260.58,4.66,3.64,4.66,3.64,-3.63,-3.68,-4.63,1.04,1.04,1.02
263.19,4.63,3.60,4.63,3.59,-3.58,-3.64,-4.59,1.05,1.05,1.04
265.82,4.58,3.54,4.59,3.54,-3.53,-3.61,-4.54,1.05,1.06,1.04
268.48,4.54,3.47,4.54,3.48,-3.48,-3.57,-4.48,1.07,1.07,1.07
271.16,4.50,3.42,4.50,3.42,-3.42,-3.54,-4.42,1.08,1.07,1.08
273.87,4.45,3.36,4.46,3.36,-3.37,-3.50,-4.36,1.08,1.09,1.09
276.61,4.42,3.30,4.42,3.31,-3.32,-3.46,-4.29,1.11,1.11,1.12
279.38,4.39,3.27,4.39,3.26,-3.26,-3.43,-4.22,1.13,1.12,1.13
282.17,4.36,3.22,4.36,3.22,-3.22,-3.39,-4.14,1.14,1.14,1.14
284.99,4.33,3.17,4.33,3.18,-3.17,-3.36,-4.07,1.16,1.16,1.16
287.84,4.30,3.14,4.30,3.13,-3.13,-3.32,-3.99,1.17,1.17,1.17
290.72,4.28,3.10,4.28,3.10,-3.10,-3.28,-3.90,1.18,1.18,1.18
293.63,4.26,3.06,4.26,3.06,-3.06,-3.25,-3.82,1.20,1.20,1.20
296.57,4.24,3.02,4.24,3.03,-3.03,-3.21,-3.74,1.21,1.21,1.22
299.53,4.22,3.00,4.22,2.99,-2.99,-3.17,-3.65,1.23,1.23,1.23
302.53,4.20,2.97,4.20,2.96,-2.96,-3.14,-3.57,1.24,1.24,1.23
305.55,4.18,2.92,4.18,2.93,-2.93,-3.10,-3.48,1.25,1.25,1.26
308.61,4.17,2.90,4.17,2.90,-2.90,-3.07,-3.40,1.27,1.27,1.27
311.69,4.15,2.87,4.15,2.87,-2.87,-3.03,-3.31,1.29,1.29,1.28
314.81,4.14,2.84,4.13,2.84,-2.83,-3.00,-3.23,1.31,1.30,1.31
317.96,4.10,2.80,4.11,2.80,-2.79,-2.96,-3.15,1.31,1.31,1.30
321.14,4.07,2.76,4.07,2.76,-2.76,-2.93,-3.07,1.31,1.32,1.31
324.35,4.04,2.73,4.04,2.72,-2.72,-2.89,-2.99,1.32,1.32,1.31
327.59,4.00,2.67,4.00,2.68,-2.68,-2.86,-2.91,1.32,1.32,1.33
330.87,3.97,2.64,3.97,2.64,-2.64,-2.83,-2.83,1.33,1.33,1.33
334.18,3.94,2.62,3.94,2.61,-2.61,-2.80,-2.76,1.33,1.33,1.33
337.52,3.91,2.58,3.92,2.58,-2.59,-2.77,-2.68,1.33,1.33,1.33
340.90,3.90,2.56,3.90,2.56,-2.57,-2.73,-2.61,1.34,1.33,1.34
344.30,3.88,2.54,3.88,2.54,-2.55,-2.71,-2.54,1.33,1.33,1.34
347.75,3.88,2.54,3.88,2.54,-2.55,-2.68,-2.47,1.33,1.33,1.34
351.23,3.88,2.54,3.88,2.54,-2.55,-2.65,-2.40,1.33,1.33,1.34
354.74,3.89,2.55,3.89,2.56,-2.56,-2.62,-2.34,1.33,1.33,1.34
358.28,3.90,2.58,3.90,2.57,-2.57,-2.60,-2.28,1.33,1.33,1.33
361.87,3.91,2.59,3.91,2.59,-2.58,-2.57,-2.22,1.33,1.33,1.32
365.49,3.92,2.60,3.92,2.60,-2.58,-2.55,-2.16,1.34,1.33,1.32
369.14,3.91,2.60,3.91,2.60,-2.59,-2.53,-2.10,1.32,1.32,1.31
372.83,3.90,2.59,3.90,2.59,-2.59,-2.51,-2.04,1.32,1.31,1.31
376.56,3.88,2.58,3.88,2.58,-2.58,-2.49,-1.99,1.30,1.30,1.30
380.33,3.86,2.56,3.86,2.57,-2.57,-2.47,-1.94,1.29,1.30,1.30
384.13,3.84,2.55,3.84,2.55,-2.55,-2.46,-1.88,1.29,1.29,1.29
387.97,3.81,2.53,3.81,2.53,-2.53,-2.44,-1.83,1.28,1.28,1.28
391.85,3.78,2.51,3.78,2.51,-2.51,-2.43,-1.79,1.27,1.27,1.27
395.77,3.75,2.47,3.76,2.49,-2.49,-2.41,-1.74,1.26,1.27,1.28
399.73,3.73,2.47,3.73,2.47,-2.46,-2.40,-1.70,1.27,1.27,1.27
403.72,3.70,2.45,3.70,2.44,-2.43,-2.39,-1.65,1.27,1.26,1.26
407.76,3.66,2.42,3.66,2.41,-2.41,-2.37,-1.61,1.26,1.26,1.24
411.84,3.62,2.37,3.62,2.38,-2.38,-2.36,-1.57,1.24,1.24,1.25
415.96,3.58,2.34,3.58,2.34,-2.35,-2.34,-1.53,1.23,1.24,1.24
420.12,3.55,2.31,3.55,2.31,-2.32,-2.31,-1.49,1.23,1.23,1.24
424.32,3.52,2.28,3.52,2.28,-2.29,-2.29,-1.45,1.23,1.23,1.24
428.56,3.49,2.26,3.49,2.26,-2.26,-2.26,-1.42,1.24,1.24,1.23
432.85,3.46,2.23,3.46,2.23,-2.22,-2.22,-1.38,1.24,1.24,1.23
437.18,3.42,2.19,3.42,2.19,-2.19,-2.17,-1.35,1.24,1.24,1.23
441.55,3.38,2.14,3.38,2.15,-2.15,-2.12,-1.31,1.24,1.24,1.24
445.96,3.34,2.10,3.34,2.10,-2.10,-2.07,-1.28,1.24,1.24,1.24
450.42,3.28,2.05,3.29,2.05,-2.05,-2.01,-1.25,1.23,1.24,1.23
454.93,3.23,1.99,3.23,1.99,-1.99,-1.94,-1.21,1.24,1.24,1.24
459.48,3.17,1.93,3.17,1.93,-1.93,-1.87,-1.18,1.25,1.24,1.24
464.07,3.10,1.85,3.11,1.86,-1.86,-1.79,-1.15,1.24,1.25,1.25
468.71,3.04,1.78,3.04,1.78,-1.79,-1.72,-1.12,1.25,1.25,1.26
473.40,2.96,1.70,2.97,1.71,-1.71,-1.64,-1.09,1.25,1.25,1.26
478.13,2.89,1.62,2.89,1.63,-1.63,-1.56,-1.06,1.26,1.26,1.27
482.91,2.82,1.56,2.82,1.55,-1.55,-1.48,-1.03,1.27,1.27,1.27
487.74,2.74,1.47,2.74,1.46,-1.46,-1.40,-1.00,1.28,1.28,1.28
492.62,2.65,1.37,2.66,1.37,-1.37,-1.32,-0.97,1.28,1.29,1.29
497.55,2.57,1.29,2.57,1.28,-1.27,-1.24,-0.94,1.30,1.29,1.29
502.52,2.47,1.18,2.47,1.18,-1.18,-1.16,-0.91,1.29,1.29,1.30
507.55,2.37,1.08,2.37,1.08,-1.08,-1.08,-0.88,1.29,1.30,1.29
512.62,2.27,0.98,2.27,0.98,-0.98,-1.01,-0.85,1.30,1.30,1.29
517.75,2.18,0.88,2.18,0.88,-0.88,-0.93,-0.82,1.31,1.30,1.30
522.93,2.08,0.78,2.08,0.78,-0.78,-0.86,-0.79,1.30,1.30,1.30
528.16,1.98,0.68,1.99,0.68,-0.68,-0.78,-0.76,1.30,1.30,1.30
533.44,1.89,0.59,1.89,0.59,-0.59,-0.71,-0.73,1.30,1.30,1.30
538.77,1.81,0.51,1.81,0.50,-0.51,-0.64,-0.70,1.30,1.30,1.30
544.16,1.72,0.42,1.73,0.43,-0.43,-0.57,-0.67,1.29,1.30,1.30
549.60,1.66,0.36,1.66,0.36,-0.36,-0.51,-0.64,1.30,1.30,1.30
