frequency,raw,smoothed,error,error_smoothed,equalization,parametric_eq,fixed_band_eq,equalized_raw,equalized_smoothed,target
20.00,16.16,16.16,10.54,10.54,-10.54,-8.91,-4.35,5.62,5.62,5.62
20.20,16.14,16.14,10.49,10.49,-10.49,-8.91,-4.47,5.65,5.65,5.65
20.40,16.11,16.11,10.43,10.44,-10.44,-8.91,-4.59,5.67,5.68,5.68
20.61,16.09,16.09,10.40,10.39,-10.39,-8.91,-4.71,5.70,5.70,5.70
20.81,16.07,16.07,10.34,10.34,-10.35,-8.91,-4.83,5.72,5.72,5.73
21.02,16.05,16.05,10.30,10.30,-10.30,-8.91,-4.96,5.75,5.75,5.76
21.23,16.02,16.02,10.26,10.26,-10.26,-8.91,-5.10,5.76,5.76,5.76
21.44,16.00,16.00,10.23,10.22,-10.23,-8.90,-5.23,5.77,5.77,5.77
21.66,15.97,15.97,10.19,10.19,-10.19,-8.90,-5.37,5.78,5.78,5.78
21.87,15.95,15.95,10.17,10.16,-10.16,-8.90,-5.52,5.79,5.79,5.78
22.09,15.92,15.92,10.13,10.13,-10.13,-8.90,-5.66,5.79,5.79,5.79
22.31,15.90,15.90,10.11,10.11,-10.11,-8.90,-5.82,5.80,5.79,5.79
22.54,15.87,15.87,10.08,10.08,-10.08,-8.90,-5.97,5.79,5.79,5.79
22.76,15.84,15.84,10.05,10.05,-10.05,-8.90,-6.13,5.79,5.79,5.79
22.99,15.81,15.81,10.03,10.03,-10.03,-8.89,-6.29,5.78,5.78,5.78
23.22,15.78,15.78,10.00,10.00,-10.00,-8.89,-6.46,5.78,5.78,5.78
23.45,15.75,15.75,9.97,9.98,-9.97,-8.89,-6.63,5.78,5.78,5.78
23.69,15.73,15.73,9.95,9.95,-9.95,-8.89,-6.81,5.78,5.78,5.78
23.92,15.70,15.70,9.92,9.92,-9.92,-8.89,-6.99,5.78,5.78,5.78
24.16,15.67,15.67,9.88,9.89,-9.89,-8.89,-7.17,5.78,5.78,5.79
24.40,15.64,15.64,9.86,9.86,-9.86,-8.88,-7.36,5.78,5.78,5.78
24.65,15.61,15.61,9.84,9.83,-9.83,-8.88,-7.55,5.78,5.78,5.77
24.89,15.58,15.58,9.81,9.81,-9.81,-8.88,-7.75,5.77,5.78,5.77
25.14,15.55,15.55,9.78,9.78,-9.78,-8.88,-7.94,5.77,5.77,5.77
25.39,15.52,15.52,9.75,9.75,-9.75,-8.88,-8.14,5.77,5.77,5.77
25.65,15.48,15.48,9.71,9.72,-9.72,-8.87,-8.35,5.76,5.77,5.77
25.91,15.45,15.45,9.69,9.69,-9.69,-8.87,-8.55,5.76,5.76,5.76
26.16,15.42,15.42,9.66,9.66,-9.66,-8.87,-8.76,5.76,5.76,5.76
26.43,15.38,15.38,9.62,9.63,-9.62,-8.86,-8.96,5.76,5.76,5.76
26.69,15.35,15.35,9.60,9.59,-9.59,-8.86,-9.17,5.76,5.76,5.76
26.96,15.31,15.31,9.56,9.56,-9.56,-8.86,-9.38,5.75,5.75,5.75
27.23,15.28,15.28,9.53,9.53,-9.53,-8.85,-9.58,5.75,5.75,5.75
27.50,15.24,15.24,9.49,9.49,-9.50,-8.85,-9.78,5.74,5.74,5.75
27.77,15.21,15.21,9.47,9.47,-9.47,-8.85,-9.98,5.74,5.74,5.74
28.05,15.17,15.17,9.43,9.44,-9.44,-8.84,-10.17,5.73,5.74,5.74
28.33,15.14,15.14,9.41,9.41,-9.40,-8.84,-10.35,5.74,5.73,5.73
28.62,15.10,15.10,9.38,9.38,-9.37,-8.84,-10.53,5.73,5.73,5.73
28.90,15.07,15.07,9.35,9.35,-9.34,-8.83,-10.69,5.73,5.72,5.72
29.19,15.03,15.03,9.32,9.31,-9.31,-8.83,-10.85,5.72,5.72,5.71
29.48,14.99,14.99,9.27,9.28,-9.28,-8.82,-10.99,5.71,5.71,5.72
29.78,14.95,14.95,9.24,9.24,-9.25,-8.82,-11.12,5.70,5.71,5.71
30.08,14.92,14.92,9.21,9.21,-9.21,-8.81,-11.22,5.71,5.70,5.71
30.38,14.88,14.88,9.19,9.18,-9.18,-8.80,-11.32,5.70,5.70,5.70
30.68,14.84,14.84,9.15,9.15,-9.15,-8.80,-11.39,5.70,5.70,5.69
30.99,14.80,14.80,9.12,9.11,-9.11,-8.79,-11.45,5.69,5.69,5.68
31.30,14.75,14.75,9.07,9.07,-9.07,-8.78,-11.48,5.68,5.68,5.68
31.61,14.70,14.71,9.02,9.03,-9.03,-8.78,-11.51,5.67,5.67,5.68
31.93,14.66,14.66,9.00,8.99,-8.99,-8.77,-11.50,5.67,5.66,5.66
32.24,14.61,14.61,8.96,8.95,-8.95,-8.76,-11.48,5.66,5.66,5.65
32.57,14.56,14.56,8.91,8.91,-8.91,-8.75,-11.44,5.65,5.65,5.65
32.89,14.51,14.51,8.86,8.87,-8.87,-8.75,-11.39,5.64,5.64,5.65
33.22,14.46,14.46,8.83,8.83,-8.83,-8.74,-11.31,5.63,5.64,5.63
33.55,14.42,14.42,8.79,8.79,-8.79,-8.73,-11.23,5.63,5.63,5.63
33.89,14.37,14.37,8.75,8.75,-8.75,-8.72,-11.13,5.62,5.62,5.62
34.23,14.32,14.32,8.71,8.71,-8.71,-8.71,-11.02,5.61,5.61,5.62
34.57,14.27,14.27,8.67,8.67,-8.67,-8.69,-10.91,5.60,5.60,5.60
34.92,14.23,14.23,8.64,8.63,-8.63,-8.68,-10.78,5.60,5.59,5.59
35.27,14.18,14.18,8.60,8.60,-8.60,-8.67,-10.65,5.58,5.58,5.59
35.62,14.13,14.14,8.56,8.56,-8.56,-8.66,-10.52,5.57,5.57,5.57
35.97,14.09,14.09,8.53,8.52,-8.52,-8.64,-10.38,5.57,5.56,5.56
36.33,14.04,14.04,8.49,8.49,-8.49,-8.63,-10.24,5.55,5.55,5.55
36.70,13.99,13.99,8.45,8.45,-8.45,-8.61,-10.10,5.54,5.54,5.54
37.06,13.95,13.95,8.42,8.42,-8.42,-8.60,-9.96,5.53,5.53,5.53
37.43,13.90,13.90,8.38,8.38,-8.38,-8.58,-9.82,5.52,5.52,5.52
37.81,13.86,13.86,8.35,8.35,-8.35,-8.56,-9.69,5.51,5.51,5.51
38.19,13.81,13.81,8.32,8.31,-8.32,-8.54,-9.55,5.50,5.50,5.49
38.57,13.77,13.77,8.28,8.28,-8.28,-8.52,-9.42,5.49,5.48,5.49
38.95,13.72,13.72,8.25,8.25,-8.25,-8.50,-9.30,5.47,5.47,5.47
39.34,13.68,13.68,8.22,8.22,-8.22,-8.48,-9.17,5.46,5.46,5.46
39.74,13.64,13.64,8.20,8.19,-8.19,-8.46,-9.06,5.45,5.45,5.44
40.14,13.60,13.60,8.16,8.17,-8.16,-8.44,-8.94,5.44,5.44,5.44
40.54,13.56,13.56,8.14,8.14,-8.13,-8.41,-8.84,5.43,5.43,5.42
40.94,13.52,13.52,8.10,8.11,-8.10,-8.39,-8.73,5.42,5.42,5.42
41.35,13.48,13.48,8.08,8.08,-8.07,-8.36,-8.64,5.41,5.41,5.40
41.76,13.44,13.44,8.05,8.05,-8.04,-8.34,-8.54,5.40,5.40,5.40
42.18,13.40,13.40,8.01,8.01,-8.02,-8.31,-8.46,5.38,5.38,5.39
42.60,13.36,13.36,7.99,7.98,-7.99,-8.28,-8.38,5.37,5.37,5.37
43.03,13.32,13.32,7.96,7.96,-7.97,-8.25,-8.31,5.35,5.35,5.36
43.46,13.29,13.29,7.94,7.94,-7.95,-8.22,-8.24,5.34,5.34,5.35
43.90,13.25,13.25,7.93,7.93,-7.93,-8.19,-8.18,5.32,5.32,5.32
44.33,13.22,13.22,7.92,7.92,-7.91,-8.17,-8.12,5.31,5.31,5.30
44.78,13.18,13.18,7.90,7.90,-7.90,-8.14,-8.07,5.28,5.29,5.28
45.23,13.15,13.15,7.88,7.89,-7.88,-8.11,-8.03,5.27,5.27,5.27
45.68,13.12,13.12,7.87,7.87,-7.86,-8.08,-7.99,5.26,5.25,5.25
46.13,13.08,13.08,7.85,7.85,-7.85,-8.06,-7.96,5.23,5.23,5.23
46.60,13.05,13.05,7.83,7.84,-7.84,-8.03,-7.93,5.22,5.22,5.22
47.06,13.02,13.02,7.82,7.82,-7.82,-8.01,-7.91,5.20,5.20,5.20
47.53,12.99,12.99,7.81,7.81,-7.81,-7.99,-7.89,5.18,5.18,5.18
48.01,12.96,12.96,7.79,7.80,-7.81,-7.97,-7.88,5.16,5.16,5.17
48.49,12.93,12.93,7.79,7.80,-7.80,-7.95,-7.87,5.13,5.13,5.14
48.97,12.91,12.91,7.80,7.80,-7.80,-7.94,-7.87,5.11,5.11,5.11
49.46,12.88,12.88,7.80,7.80,-7.80,-7.93,-7.87,5.08,5.08,5.08
49.96,12.85,12.85,7.81,7.80,-7.80,-7.92,-7.88,5.05,5.06,5.04
50.46,12.83,12.83,7.80,7.80,-7.80,-7.91,-7.89,5.03,5.03,5.03
50.96,12.80,12.80,7.79,7.80,-7.80,-7.91,-7.90,5.00,5.01,5.01
51.47,12.78,12.78,7.80,7.80,-7.80,-7.90,-7.92,4.98,4.98,4.98
51.99,12.75,12.75,7.80,7.79,-7.79,-7.90,-7.94,4.96,4.96,4.95
52.51,12.72,12.73,7.78,7.79,-7.79,-7.90,-7.97,4.93,4.93,4.94
53.03,12.70,12.70,7.79,7.79,-7.79,-7.91,-7.99,4.91,4.91,4.91
53.56,12.68,12.68,7.79,7.79,-7.79,-7.91,-8.02,4.89,4.89,4.89
54.10,12.65,12.65,7.79,7.79,-7.79,-7.92,-8.04,4.86,4.86,4.86
54.64,12.63,12.63,7.79,7.79,-7.79,-7.92,-8.07,4.84,4.84,4.84
55.18,12.60,12.60,7.79,7.79,-7.79,-7.93,-8.10,4.81,4.81,4.81
55.74,12.58,12.58,7.80,7.79,-7.79,-7.93,-8.13,4.79,4.79,4.78
56.29,12.55,12.55,7.78,7.79,-7.79,-7.94,-8.15,4.76,4.76,4.77
56.86,12.53,12.53,7.79,7.79,-7.79,-7.94,-8.17,4.74,4.74,4.74
57.42,12.51,12.51,7.80,7.79,-7.79,-7.95,-8.20,4.72,4.72,4.71
58.00,12.48,12.48,7.79,7.79,-7.79,-7.95,-8.21,4.69,4.70,4.69
58.58,12.46,12.46,7.79,7.79,-7.79,-7.95,-8.23,4.67,4.67,4.67
59.16,12.44,12.44,7.79,7.79,-7.79,-7.95,-8.24,4.65,4.65,4.65
59.76,12.41,12.41,7.78,7.78,-7.79,-7.95,-8.24,4.62,4.62,4.63
60.35,12.38,12.38,7.78,7.78,-7.79,-7.95,-8.24,4.59,4.59,4.60
60.96,12.36,12.36,7.79,7.79,-7.79,-7.95,-8.24,4.57,4.56,4.58
61.57,12.33,12.33,7.80,7.80,-7.80,-7.94,-8.23,4.53,4.54,4.53
62.18,12.31,12.31,7.81,7.81,-7.80,-7.94,-8.21,4.51,4.51,4.50
62.80,12.28,12.28,7.81,7.81,-7.80,-7.93,-8.19,4.48,4.48,4.47
63.43,12.25,12.25,7.81,7.81,-7.81,-7.92,-8.16,4.44,4.45,4.44
64.07,12.22,12.22,7.81,7.81,-7.81,-7.91,-8.12,4.41,4.41,4.41
64.71,12.19,12.19,7.80,7.81,-7.81,-7.90,-8.08,4.38,4.38,4.39
65.35,12.16,12.16,7.80,7.80,-7.80,-7.89,-8.03,4.36,4.36,4.36
66.01,12.13,12.13,7.80,7.80,-7.80,-7.88,-7.98,4.33,4.33,4.33
66.67,12.10,12.10,7.80,7.80,-7.80,-7.86,-7.92,4.30,4.30,4.30
67.33,12.07,12.07,7.80,7.80,-7.80,-7.85,-7.86,4.27,4.27,4.27
68.01,12.03,12.03,7.79,7.79,-7.79,-7.83,-7.80,4.24,4.24,4.24
68.69,12.00,12.00,7.79,7.79,-7.79,-7.81,-7.73,4.21,4.21,4.21
69.37,11.97,11.97,7.79,7.79,-7.79,-7.79,-7.66,4.18,4.18,4.18
70.07,11.93,11.93,7.79,7.79,-7.78,-7.77,-7.58,4.15,4.15,4.15
70.77,11.90,11.90,7.78,7.78,-7.78,-7.75,-7.51,4.12,4.12,4.12
71.48,11.86,11.86,7.77,7.77,-7.78,-7.73,-7.43,4.08,4.08,4.09
72.19,11.82,11.82,7.77,7.77,-7.77,-7.70,-7.36,4.05,4.05,4.05
72.91,11.79,11.79,7.77,7.77,-7.77,-7.68,-7.28,4.02,4.02,4.02
73.64,11.75,11.75,7.77,7.77,-7.76,-7.65,-7.20,3.99,3.99,3.98
74.38,11.71,11.71,7.76,7.76,-7.76,-7.63,-7.13,3.95,3.95,3.95
75.12,11.67,11.67,7.76,7.75,-7.75,-7.60,-7.05,3.92,3.92,3.91
75.87,11.62,11.62,7.74,7.74,-7.74,-7.57,-6.98,3.88,3.88,3.88
76.63,11.58,11.58,7.73,7.73,-7.73,-7.54,-6.91,3.85,3.85,3.85
77.40,11.54,11.54,7.72,7.72,-7.72,-7.51,-6.84,3.82,3.82,3.82
78.17,11.49,11.49,7.71,7.71,-7.71,-7.48,-6.78,3.79,3.79,3.78
78.95,11.45,11.45,7.69,7.69,-7.69,-7.45,-6.72,3.76,3.76,3.76
79.74,11.40,11.40,7.68,7.68,-7.68,-7.42,-6.66,3.72,3.72,3.72
80.54,11.35,11.35,7.66,7.66,-7.66,-7.39,-6.61,3.69,3.69,3.69
81.35,11.30,11.30,7.64,7.64,-7.65,-7.36,-6.56,3.65,3.66,3.66
82.16,11.25,11.25,7.63,7.63,-7.63,-7.33,-6.51,3.62,3.62,3.62
82.98,11.20,11.20,7.61,7.61,-7.61,-7.29,-6.47,3.59,3.59,3.59
83.81,11.14,11.14,7.59,7.59,-7.59,-7.26,-6.43,3.55,3.55,3.55
84.65,11.09,11.09,7.58,7.57,-7.57,-7.23,-6.40,3.52,3.52,3.51
85.50,11.03,11.03,7.55,7.55,-7.55,-7.19,-6.37,3.48,3.48,3.48
86.35,10.97,10.97,7.53,7.53,-7.53,-7.16,-6.34,3.44,3.44,3.44
87.22,10.91,10.91,7.51,7.51,-7.51,-7.13,-6.33,3.40,3.40,3.40
88.09,10.85,10.85,7.49,7.49,-7.49,-7.09,-6.31,3.36,3.36,3.36
88.97,10.79,10.79,7.46,7.47,-7.47,-7.06,-6.30,3.32,3.32,3.33
89.86,10.73,10.73,7.44,7.44,-7.45,-7.03,-6.30,3.28,3.28,3.29
90.76,10.67,10.67,7.43,7.43,-7.42,-7.00,-6.30,3.25,3.24,3.24
91.66,10.60,10.60,7.40,7.41,-7.40,-6.96,-6.30,3.20,3.20,3.20
92.58,10.54,10.54,7.39,7.38,-7.38,-6.93,-6.31,3.16,3.16,3.15
93.51,10.47,10.47,7.35,7.35,-7.36,-6.90,-6.32,3.11,3.11,3.12
94.44,10.40,10.40,7.33,7.33,-7.33,-6.87,-6.34,3.07,3.07,3.07
95.39,10.33,10.33,7.30,7.30,-7.31,-6.84,-6.36,3.02,3.02,3.03
96.34,10.26,10.26,7.29,7.28,-7.28,-6.81,-6.38,2.98,2.98,2.97
97.30,10.19,10.19,7.26,7.26,-7.26,-6.78,-6.41,2.93,2.93,2.93
98.28,10.12,10.12,7.24,7.24,-7.23,-6.75,-6.44,2.89,2.89,2.88
99.26,10.04,10.04,7.20,7.21,-7.21,-6.72,-6.48,2.83,2.84,2.84
100.25,9.97,9.97,7.18,7.18,-7.18,-6.69,-6.52,2.79,2.79,2.79
101.25,9.89,9.89,7.14,7.15,-7.15,-6.66,-6.56,2.74,2.74,2.75
102.27,9.82,9.82,7.12,7.12,-7.12,-6.64,-6.60,2.70,2.70,2.70
103.29,9.74,9.74,7.10,7.09,-7.09,-6.61,-6.65,2.65,2.65,2.64
104.32,9.66,9.66,7.05,7.06,-7.05,-6.59,-6.70,2.61,2.61,2.61
105.37,9.58,9.58,7.02,7.02,-7.02,-6.56,-6.74,2.56,2.56,2.56
106.42,9.49,9.50,6.98,6.98,-6.98,-6.54,-6.79,2.51,2.51,2.51
107.48,9.41,9.41,6.94,6.95,-6.95,-6.52,-6.84,2.46,2.46,2.47
108.56,9.33,9.33,6.92,6.91,-6.91,-6.50,-6.89,2.42,2.42,2.41
109.64,9.24,9.24,6.87,6.87,-6.87,-6.48,-6.93,2.37,2.37,2.37
110.74,9.15,9.15,6.83,6.84,-6.84,-6.46,-6.98,2.31,2.32,2.32
111.85,9.07,9.07,6.80,6.80,-6.80,-6.44,-7.02,2.27,2.27,2.27
112.97,8.98,8.98,6.77,6.76,-6.77,-6.42,-7.05,2.22,2.21,2.21
114.10,8.89,8.89,6.73,6.73,-6.73,-6.41,-7.09,2.16,2.16,2.16
115.24,8.80,8.80,6.69,6.69,-6.69,-6.39,-7.11,2.11,2.11,2.11
116.39,8.71,8.71,6.66,6.66,-6.66,-6.37,-7.14,2.05,2.05,2.05
117.55,8.62,8.62,6.62,6.62,-6.62,-6.36,-7.15,2.00,2.00,2.00
118.73,8.53,8.53,6.58,6.58,-6.58,-6.34,-7.16,1.95,1.95,1.95
119.92,8.44,8.44,6.54,6.54,-6.54,-6.33,-7.16,1.90,1.90,1.90
121.12,8.35,8.35,6.50,6.50,-6.50,-6.31,-7.15,1.86,1.85,1.85
122.33,8.25,8.25,6.45,6.45,-6.45,-6.29,-7.13,1.80,1.80,1.80
123.55,8.16,8.16,6.40,6.41,-6.41,-6.28,-7.11,1.75,1.75,1.76
124.79,8.06,8.06,6.36,6.36,-6.36,-6.26,-7.07,1.70,1.70,1.71
126.03,7.97,7.97,6.32,6.31,-6.32,-6.24,-7.03,1.65,1.65,1.65
127.29,7.87,7.87,6.27,6.27,-6.27,-6.22,-6.97,1.60,1.60,1.60
128.57,7.77,7.77,6.23,6.22,-6.22,-6.20,-6.91,1.55,1.55,1.55
129.85,7.67,7.67,6.17,6.18,-6.17,-6.18,-6.84,1.50,1.50,1.50
131.15,7.57,7.57,6.12,6.12,-6.12,-6.15,-6.76,1.45,1.45,1.45
132.46,7.47,7.47,6.07,6.06,-6.06,-6.13,-6.67,1.41,1.41,1.40
133.79,7.36,7.36,6.00,6.00,-6.00,-6.10,-6.57,1.36,1.36,1.36
135.12,7.25,7.25,5.94,5.94,-5.94,-6.06,-6.46,1.31,1.31,1.31
136.48,7.14,7.14,5.87,5.87,-5.87,-6.03,-6.35,1.27,1.27,1.27
137.84,7.03,7.03,5.80,5.81,-5.81,-5.99,-6.23,1.23,1.22,1.23
139.22,6.92,6.92,5.75,5.74,-5.73,-5.95,-6.11,1.19,1.19,1.18
140.61,6.80,6.80,5.67,5.66,-5.66,-5.90,-5.98,1.14,1.15,1.13
142.02,6.69,6.69,5.58,5.58,-5.58,-5.85,-5.85,1.11,1.11,1.11
143.44,6.57,6.57,5.50,5.50,-5.50,-5.80,-5.72,1.07,1.07,1.07
144.87,6.45,6.46,5.42,5.42,-5.43,-5.74,-5.58,1.03,1.03,1.03
146.32,6.34,6.34,5.35,5.34,-5.35,-5.68,-5.44,0.99,0.99,0.99
147.78,6.22,6.22,5.26,5.26,-5.27,-5.61,-5.30,0.95,0.95,0.96
149.26,6.10,6.10,5.18,5.18,-5.19,-5.54,-5.15,0.91,0.92,0.92
150.75,5.99,5.99,5.11,5.11,-5.11,-5.46,-5.01,0.88,0.88,0.88
152.26,5.87,5.87,5.03,5.03,-5.03,-5.38,-4.87,0.84,0.84,0.84
153.78,5.76,5.76,4.96,4.96,-4.96,-5.30,-4.72,0.80,0.80,0.80
155.32,5.64,5.64,4.88,4.88,-4.88,-5.20,-4.58,0.76,0.76,0.76
156.88,5.53,5.53,4.81,4.81,-4.81,-5.11,-4.44,0.72,0.72,0.73
158.44,5.41,5.41,4.73,4.73,-4.73,-5.01,-4.29,0.68,0.68,0.68
160.03,5.30,5.30,4.66,4.66,-4.66,-4.91,-4.15,0.65,0.64,0.64
161.63,5.18,5.18,4.58,4.58,-4.58,-4.80,-4.02,0.60,0.60,0.60
163.24,5.06,5.06,4.50,4.50,-4.50,-4.69,-3.88,0.56,0.57,0.56
164.88,4.94,4.94,4.41,4.42,-4.41,-4.58,-3.74,0.53,0.53,0.53
166.53,4.82,4.82,4.33,4.33,-4.33,-4.46,-3.61,0.49,0.49,0.49
168.19,4.69,4.69,4.24,4.24,-4.24,-4.34,-3.48,0.45,0.45,0.45
169.87,4.57,4.57,4.16,4.16,-4.16,-4.22,-3.35,0.42,0.41,0.41
171.57,4.44,4.44,4.06,4.06,-4.07,-4.09,-3.22,0.38,0.38,0.38
173.29,4.31,4.31,3.97,3.97,-3.97,-3.97,-3.09,0.34,0.34,0.34
175.02,4.18,4.18,3.88,3.88,-3.88,-3.84,-2.97,0.30,0.30,0.30
176.77,4.04,4.04,3.78,3.78,-3.78,-3.71,-2.85,0.26,0.26,0.26
178.54,3.91,3.91,3.70,3.69,-3.69,-3.58,-2.73,0.22,0.22,0.22
180.32,3.77,3.77,3.59,3.59,-3.59,-3.45,-2.61,0.18,0.18,0.18
182.13,3.63,3.63,3.48,3.49,-3.48,-3.32,-2.50,0.15,0.15,0.15
183.95,3.49,3.49,3.38,3.38,-3.38,-3.19,-2.38,0.11,0.11,0.11
185.79,3.34,3.34,3.26,3.27,-3.27,-3.06,-2.27,0.07,0.07,0.08
187.65,3.19,3.19,3.16,3.15,-3.15,-2.92,-2.16,0.04,0.04,0.04
189.52,3.04,3.04,3.03,3.04,-3.04,-2.79,-2.06,0.00,0.01,0.01
191.42,2.89,2.89,2.91,2.92,-2.92,-2.66,-1.95,-0.02,-0.02,-0.02
193.33,2.74,2.74,2.79,2.79,-2.79,-2.53,-1.85,-0.05,-0.05,-0.05
195.27,2.58,2.58,2.66,2.66,-2.66,-2.40,-1.74,-0.08,-0.08,-0.08
197.22,2.42,2.42,2.53,2.53,-2.53,-2.27,-1.64,-0.11,-0.11,-0.11
199.19,2.26,2.26,2.41,2.40,-2.40,-2.14,-1.55,-0.14,-0.14,-0.15
201.18,2.10,2.10,2.26,2.26,-2.26,-2.02,-1.45,-0.16,-0.16,-0.16
203.19,1.94,1.94,2.12,2.12,-2.12,-1.89,-1.35,-0.18,-0.18,-0.18
205.23,1.78,1.78,1.99,1.98,-1.98,-1.77,-1.26,-0.20,-0.20,-0.20
207.28,1.62,1.62,1.83,1.84,-1.84,-1.64,-1.17,-0.22,-0.22,-0.21
209.35,1.46,1.46,1.69,1.70,-1.70,-1.52,-1.08,-0.24,-0.24,-0.23
211.44,1.31,1.31,1.57,1.56,-1.56,-1.40,-0.99,-0.25,-0.25,-0.26
213.56,1.17,1.17,1.43,1.43,-1.44,-1.29,-0.91,-0.27,-0.27,-0.26
215.69,1.04,1.04,1.31,1.31,-1.32,-1.17,-0.82,-0.28,-0.28,-0.26
217.85,0.91,0.91,1.19,1.19,-1.20,-1.05,-0.74,-0.29,-0.29,-0.28
220.03,0.80,0.80,1.09,1.09,-1.10,-0.94,-0.66,-0.30,-0.29,-0.29
222.23,0.70,0.70,1.00,1.00,-1.00,-0.83,-0.58,-0.30,-0.30,-0.30
224.45,0.61,0.61,0.90,0.91,-0.90,-0.72,-0.50,-0.29,-0.29,-0.29
226.70,0.52,0.52,0.82,0.81,-0.81,-0.61,-0.43,-0.29,-0.29,-0.29
228.96,0.43,0.43,0.73,0.73,-0.73,-0.50,-0.35,-0.30,-0.29,-0.30
231.25,0.35,0.35,0.64,0.64,-0.64,-0.39,-0.28,-0.29,-0.29,-0.29
233.57,0.27,0.27,0.56,0.55,-0.55,-0.29,-0.21,-0.28,-0.29,-0.29
235.90,0.18,0.18,0.47,0.47,-0.46,-0.19,-0.14,-0.28,-0.28,-0.29
238.26,0.10,0.10,0.39,0.38,-0.37,-0.09,-0.08,-0.27,-0.28,-0.28
240.64,0.01,0.01,0.28,0.29,-0.28,0.01,-0.01,-0.27,-0.27,-0.27
243.05,-0.07,-0.07,0.19,0.19,-0.19,0.11,0.05,-0.26,-0.26,-0.26
245.48,-0.16,-0.16,0.09,0.09,-0.10,0.21,0.11,-0.25,-0.25,-0.25
247.93,-0.25,-0.25,-0.01,-0.00,0.00,0.30,0.17,-0.25,-0.24,-0.24
250.41,-0.33,-0.33,-0.09,-0.10,0.10,0.40,0.22,-0.23,-0.23,-0.24
252.92,-0.42,-0.42,-0.20,-0.20,0.20,0.49,0.28,-0.22,-0.21,-0.21
255.45,-0.50,-0.50,-0.31,-0.30,0.31,0.58,0.33,-0.19,-0.20,-0.19
258.00,-0.59,-0.59,-0.41,-0.41,0.41,0.67,0.38,-0.18,-0.18,-0.18
260.58,-0.68,-0.68,-0.51,-0.52,0.52,0.76,0.43,-0.16,-0.16,-0.17
263.19,-0.77,-0.77,-0.63,-0.62,0.63,0.84,0.48,-0.14,-0.14,-0.14
265.82,-0.86,-0.86,-0.73,-0.74,0.74,0.93,0.52,-0.12,-0.12,-0.13
268.48,-0.96,-0.96,-0.85,-0.85,0.85,1.01,0.57,-0.11,-0.10,-0.10
271.16,-1.05,-1.05,-0.97,-0.97,0.97,1.09,0.61,-0.08,-0.09,-0.08
273.87,-1.15,-1.15,-1.08,-1.08,1.08,1.18,0.65,-0.07,-0.07,-0.07
276.61,-1.24,-1.24,-1.20,-1.19,1.19,1.26,0.69,-0.05,-0.05,-0.04
279.38,-1.33,-1.33,-1.30,-1.30,1.30,1.33,0.74,-0.03,-0.03,-0.03
282.17,-1.42,-1.42,-1.41,-1.41,1.41,1.41,0.78,-0.01,-0.01,-0.01
284.99,-1.51,-1.51,-1.52,-1.52,1.52,1.49,0.82,0.01,0.01,0.01
287.84,-1.60,-1.60,-1.63,-1.63,1.63,1.56,0.86,0.03,0.03,0.03
290.72,-1.68,-1.68,-1.73,-1.73,1.73,1.63,0.89,0.05,0.05,0.05
293.63,-1.77,-1.76,-1.84,-1.84,1.83,1.71,0.93,0.06,0.07,0.07
296.57,-1.84,-1.84,-1.93,-1.93,1.94,1.78,0.97,0.10,0.09,0.10
299.53,-1.92,-1.92,-2.03,-2.03,2.03,1.85,1.01,0.12,0.11,0.11
302.53,-2.00,-2.00,-2.13,-2.13,2.13,1.92,1.05,0.13,0.14,0.13
305.55,-2.07,-2.07,-2.23,-2.22,2.23,1.98,1.09,0.16,0.16,0.16
308.61,-2.13,-2.13,-2.31,-2.32,2.32,2.05,1.13,0.19,0.18,0.18
311.69,-2.20,-2.20,-2.41,-2.41,2.41,2.11,1.18,0.21,0.21,0.21
314.81,-2.26,-2.26,-2.50,-2.49,2.49,2.18,1.22,0.23,0.23,0.24
317.96,-2.32,-2.32,-2.58,-2.58,2.57,2.24,1.26,0.25,0.26,0.26
321.14,-2.37,-2.37,-2.65,-2.65,2.65,2.30,1.31,0.28,0.28,0.28
324.35,-2.43,-2.43,-2.72,-2.72,2.73,2.36,1.35,0.30,0.30,0.29
327.59,-2.48,-2.48,-2.80,-2.80,2.80,2.42,1.40,0.32,0.32,0.32
330.87,-2.53,-2.53,-2.87,-2.86,2.87,2.47,1.45,0.34,0.34,0.34
334.18,-2.57,-2.57,-2.92,-2.93,2.93,2.53,1.50,0.36,0.36,0.35
337.52,-2.62,-2.62,-2.99,-2.99,2.99,2.58,1.55,0.38,0.38,0.37
340.90,-2.66,-2.66,-3.06,-3.05,3.06,2.64,1.60,0.40,0.40,0.40
344.30,-2.69,-2.69,-3.11,-3.11,3.11,2.69,1.65,0.42,0.42,0.42
347.75,-2.73,-2.73,-3.16,-3.16,3.17,2.74,1.71,0.44,0.44,0.43
351.23,-2.76,-2.76,-3.21,-3.21,3.21,2.79,1.76,0.45,0.45,0.45
354.74,-2.79,-2.79,-3.26,-3.26,3.25,2.83,1.82,0.46,0.46,0.47
358.28,-2.81,-2.81,-3.30,-3.30,3.29,2.88,1.88,0.48,0.48,0.49
361.87,-2.82,-2.82,-3.33,-3.32,3.32,2.92,1.94,0.50,0.50,0.51
365.49,-2.82,-2.82,-3.33,-3.34,3.34,2.97,2.01,0.52,0.51,0.51
369.14,-2.83,-2.82,-3.35,-3.35,3.36,3.01,2.07,0.53,0.53,0.52
372.83,-2.82,-2.82,-3.36,-3.36,3.37,3.05,2.14,0.55,0.55,0.54
376.56,-2.82,-2.82,-3.37,-3.37,3.38,3.09,2.20,0.56,0.56,0.55
380.33,-2.81,-2.81,-3.39,-3.38,3.38,3.12,2.27,0.57,0.57,0.58
384.13,-2.80,-2.80,-3.38,-3.38,3.38,3.16,2.34,0.58,0.58,0.59
387.97,-2.79,-2.79,-3.38,-3.38,3.38,3.19,2.41,0.59,0.59,0.59
391.85,-2.77,-2.77,-3.37,-3.38,3.38,3.23,2.48,0.61,0.61,0.60
395.77,-2.75,-2.75,-3.37,-3.37,3.37,3.26,2.56,0.62,0.62,0.62
399.73,-2.73,-2.73,-3.36,-3.36,3.36,3.29,2.63,0.63,0.63,0.63
403.72,-2.71,-2.71,-3.35,-3.35,3.35,3.32,2.70,0.64,0.64,0.64
407.76,-2.69,-2.69,-3.34,-3.34,3.34,3.34,2.78,0.65,0.65,0.65
411.84,-2.66,-2.66,-3.33,-3.33,3.32,3.37,2.85,0.66,0.66,0.67
415.96,-2.64,-2.64,-3.31,-3.31,3.31,3.39,2.93,0.67,0.67,0.67
420.12,-2.61,-2.61,-3.29,-3.29,3.29,3.41,3.00,0.68,0.68,0.68
424.32,-2.58,-2.58,-3.27,-3.27,3.27,3.43,3.08,0.69,0.69,0.69
428.56,-2.55,-2.55,-3.25,-3.25,3.25,3.45,3.15,0.70,0.70,0.70
432.85,-2.52,-2.52,-3.23,-3.23,3.23,3.47,3.22,0.71,0.71,0.71
437.18,-2.49,-2.48,-3.21,-3.21,3.21,3.48,3.29,0.72,0.72,0.72
441.55,-2.45,-2.45,-3.19,-3.18,3.19,3.50,3.36,0.74,0.74,0.74
445.96,-2.41,-2.42,-3.16,-3.17,3.18,3.51,3.42,0.77,0.76,0.75
450.42,-2.40,-2.40,-3.16,-3.16,3.17,3.52,3.48,0.77,0.77,0.76
454.93,-2.39,-2.38,-3.16,-3.16,3.16,3.53,3.54,0.77,0.77,0.78
459.48,-2.37,-2.37,-3.15,-3.16,3.15,3.53,3.60,0.78,0.78,0.78
464.07,-2.35,-2.35,-3.15,-3.15,3.15,3.54,3.65,0.80,0.80,0.80
468.71,-2.33,-2.33,-3.15,-3.15,3.14,3.54,3.69,0.82,0.82,0.82
473.40,-2.31,-2.31,-3.14,-3.14,3.14,3.55,3.73,0.83,0.83,0.83
478.13,-2.29,-2.29,-3.14,-3.14,3.14,3.55,3.77,0.85,0.85,0.85
482.91,-2.27,-2.27,-3.13,-3.13,3.13,3.55,3.80,0.86,0.86,0.86
487.74,-2.25,-2.25,-3.13,-3.13,3.13,3.55,3.82,0.88,0.88,0.88
492.62,-2.23,-2.23,-3.13,-3.12,3.12,3.54,3.84,0.90,0.90,0.90
497.55,-2.21,-2.21,-3.12,-3.12,3.12,3.54,3.86,0.91,0.91,0.91
