frequency,raw,error,smoothed,error_smoothed,equalization,parametric_eq,fixed_band_eq,equalized_raw,equalized_smoothed,target
20.00,7.97,0.62,7.97,0.62,-0.62,-1.29,-0.91,7.35,7.36,7.35
20.20,7.99,0.64,7.99,0.63,-0.63,-1.30,-0.93,7.36,7.35,7.35
20.40,8.00,0.65,8.00,0.65,-0.65,-1.30,-0.96,7.35,7.35,7.35
20.61,8.02,0.67,8.02,0.67,-0.67,-1.31,-0.99,7.35,7.35,7.35
20.81,8.05,0.70,8.04,0.69,-0.70,-1.32,-1.02,7.35,7.34,7.35
21.02,8.06,0.71,8.07,0.72,-0.73,-1.32,-1.05,7.33,7.34,7.35
21.23,8.09,0.76,8.09,0.75,-0.76,-1.33,-1.08,7.33,7.33,7.33
21.44,8.11,0.79,8.11,0.79,-0.79,-1.34,-1.12,7.32,7.32,7.32
21.66,8.13,0.83,8.13,0.83,-0.83,-1.35,-1.15,7.30,7.30,7.30
21.87,8.15,0.87,8.15,0.87,-0.87,-1.35,-1.19,7.28,7.28,7.28
22.09,8.18,0.91,8.18,0.92,-0.91,-1.36,-1.22,7.26,7.26,7.27
22.31,8.20,0.96,8.20,0.96,-0.96,-1.37,-1.26,7.24,7.24,7.24
22.54,8.22,1.00,8.22,1.01,-1.01,-1.38,-1.30,7.21,7.21,7.22
22.76,8.25,1.05,8.25,1.06,-1.06,-1.39,-1.33,7.19,7.19,7.19
22.99,8.27,1.10,8.27,1.11,-1.11,-1.40,-1.37,7.16,7.16,7.16
23.22,8.30,1.17,8.30,1.16,-1.16,-1.41,-1.41,7.14,7.14,7.13
23.45,8.33,1.22,8.33,1.21,-1.20,-1.42,-1.46,7.13,7.12,7.11
23.69,8.35,1.25,8.35,1.25,-1.25,-1.43,-1.50,7.10,7.10,7.10
23.92,8.38,1.30,8.38,1.29,-1.29,-1.45,-1.54,7.09,7.08,7.08
24.16,8.40,1.33,8.40,1.33,-1.33,-1.46,-1.58,7.06,7.06,7.07
24.40,8.42,1.37,8.42,1.37,-1.38,-1.47,-1.63,7.04,7.05,7.05
24.65,8.44,1.41,8.44,1.41,-1.42,-1.49,-1.67,7.02,7.03,7.03
24.89,8.47,1.46,8.47,1.46,-1.46,-1.50,-1.72,7.01,7.01,7.01
25.14,8.49,1.49,8.49,1.49,-1.50,-1.52,-1.76,6.99,6.99,7.00
25.39,8.51,1.53,8.51,1.54,-1.54,-1.53,-1.81,6.97,6.98,6.98
25.65,8.54,1.57,8.54,1.58,-1.58,-1.55,-1.85,6.96,6.96,6.96
25.91,8.56,1.62,8.56,1.62,-1.62,-1.56,-1.90,6.94,6.94,6.93
26.16,8.58,1.66,8.58,1.66,-1.65,-1.58,-1.94,6.93,6.93,6.92
26.43,8.60,1.69,8.60,1.69,-1.69,-1.60,-1.99,6.91,6.91,6.91
26.69,8.62,1.73,8.62,1.72,-1.72,-1.62,-2.03,6.90,6.90,6.89
26.96,8.63,1.75,8.63,1.75,-1.75,-1.64,-2.07,6.88,6.88,6.88
27.23,8.65,1.78,8.65,1.78,-1.78,-1.66,-2.11,6.86,6.86,6.87
27.50,8.66,1.80,8.66,1.81,-1.81,-1.68,-2.15,6.85,6.85,6.86
27.77,8.68,1.84,8.68,1.84,-1.84,-1.70,-2.19,6.84,6.83,6.83
28.05,8.69,1.87,8.69,1.87,-1.87,-1.73,-2.23,6.82,6.82,6.82
28.33,8.70,1.90,8.70,1.90,-1.89,-1.75,-2.26,6.81,6.81,6.80
28.62,8.72,1.93,8.71,1.92,-1.92,-1.77,-2.29,6.80,6.79,6.79
28.90,8.72,1.94,8.72,1.95,-1.94,-1.80,-2.32,6.78,6.78,6.78
29.19,8.72,1.96,8.73,1.96,-1.96,-1.82,-2.35,6.76,6.76,6.76
29.48,8.74,1.98,8.73,1.98,-1.98,-1.85,-2.37,6.75,6.75,6.76
29.78,8.74,2.00,8.74,2.00,-2.00,-1.87,-2.39,6.74,6.74,6.74
30.08,8.75,2.02,8.75,2.02,-2.02,-1.90,-2.40,6.73,6.73,6.73
30.38,8.75,2.04,8.75,2.04,-2.04,-1.93,-2.41,6.71,6.71,6.71
30.68,8.75,2.05,8.75,2.06,-2.05,-1.95,-2.42,6.70,6.70,6.70
30.99,8.75,2.07,8.75,2.07,-2.06,-1.98,-2.43,6.69,6.68,6.68
31.30,8.74,2.08,8.74,2.08,-2.08,-2.01,-2.42,6.66,6.67,6.66
31.61,8.73,2.08,8.73,2.08,-2.08,-2.03,-2.42,6.65,6.65,6.65
31.93,8.72,2.09,8.72,2.09,-2.09,-2.05,-2.41,6.63,6.63,6.63
32.24,8.70,2.10,8.70,2.10,-2.10,-2.08,-2.40,6.60,6.61,6.60
32.57,8.69,2.11,8.68,2.10,-2.10,-2.10,-2.38,6.59,6.58,6.58
32.89,8.66,2.09,8.67,2.10,-2.10,-2.12,-2.36,6.56,6.56,6.57
33.22,8.65,2.11,8.65,2.10,-2.11,-2.14,-2.34,6.54,6.54,6.54
33.55,8.63,2.10,8.63,2.10,-2.11,-2.15,-2.31,6.52,6.52,6.53
33.89,8.61,2.11,8.61,2.11,-2.11,-2.17,-2.28,6.50,6.50,6.50
34.23,8.59,2.11,8.59,2.11,-2.11,-2.18,-2.25,6.48,6.48,6.48
34.57,8.57,2.11,8.57,2.11,-2.11,-2.19,-2.21,6.46,6.46,6.46
34.92,8.54,2.11,8.54,2.11,-2.10,-2.19,-2.17,6.44,6.44,6.43
35.27,8.52,2.10,8.52,2.10,-2.10,-2.19,-2.13,6.42,6.42,6.42
35.62,8.49,2.09,8.49,2.09,-2.09,-2.19,-2.09,6.40,6.40,6.40
35.97,8.46,2.09,8.46,2.09,-2.09,-2.19,-2.05,6.37,6.38,6.37
36.33,8.44,2.08,8.43,2.08,-2.08,-2.18,-2.00,6.36,6.35,6.36
36.70,8.40,2.06,8.40,2.07,-2.07,-2.17,-1.95,6.33,6.34,6.34
37.06,8.37,2.06,8.37,2.05,-2.06,-2.15,-1.91,6.31,6.31,6.31
37.43,8.34,2.04,8.34,2.04,-2.04,-2.14,-1.86,6.30,6.29,6.30
37.81,8.30,2.03,8.30,2.03,-2.03,-2.12,-1.81,6.27,6.27,6.27
38.19,8.27,2.02,8.26,2.01,-2.01,-2.09,-1.76,6.26,6.25,6.25
38.57,8.22,1.99,8.22,1.99,-1.99,-2.07,-1.71,6.23,6.23,6.23
38.95,8.18,1.97,8.18,1.97,-1.97,-2.04,-1.66,6.21,6.21,6.21
39.34,8.14,1.96,8.14,1.95,-1.95,-2.01,-1.61,6.19,6.19,6.18
39.74,8.10,1.94,8.10,1.93,-1.93,-1.98,-1.56,6.17,6.17,6.16
40.14,8.05,1.90,8.05,1.90,-1.90,-1.95,-1.51,6.15,6.15,6.15
40.54,8.00,1.87,8.00,1.87,-1.88,-1.92,-1.46,6.12,6.13,6.13
40.94,7.96,1.85,7.96,1.85,-1.85,-1.88,-1.41,6.11,6.11,6.11
41.35,7.91,1.82,7.91,1.82,-1.82,-1.85,-1.36,6.09,6.09,6.09
41.76,7.87,1.79,7.87,1.79,-1.79,-1.81,-1.31,6.08,6.08,6.08
42.18,7.82,1.76,7.82,1.76,-1.76,-1.78,-1.26,6.06,6.06,6.06
42.60,7.77,1.73,7.77,1.73,-1.73,-1.74,-1.22,6.04,6.04,6.04
43.03,7.72,1.69,7.72,1.70,-1.70,-1.71,-1.17,6.02,6.02,6.03
43.46,7.67,1.67,7.67,1.67,-1.67,-1.67,-1.13,6.00,6.00,6.00
43.90,7.62,1.64,7.62,1.64,-1.64,-1.63,-1.08,5.98,5.98,5.97
44.33,7.57,1.61,7.57,1.61,-1.61,-1.60,-1.04,5.96,5.96,5.96
44.78,7.51,1.57,7.51,1.58,-1.58,-1.56,-0.99,5.93,5.94,5.94
45.23,7.46,1.55,7.46,1.54,-1.54,-1.53,-0.95,5.92,5.92,5.91
45.68,7.40,1.51,7.40,1.51,-1.51,-1.49,-0.91,5.89,5.90,5.89
46.13,7.35,1.48,7.35,1.47,-1.47,-1.45,-0.87,5.88,5.88,5.87
46.60,7.29,1.43,7.29,1.43,-1.43,-1.42,-0.83,5.86,5.86,5.86
47.06,7.23,1.39,7.23,1.39,-1.39,-1.38,-0.79,5.84,5.84,5.84
47.53,7.17,1.34,7.17,1.34,-1.35,-1.35,-0.75,5.82,5.82,5.82
48.01,7.11,1.30,7.11,1.30,-1.31,-1.31,-0.72,5.80,5.80,5.81
48.49,7.04,1.26,7.04,1.26,-1.26,-1.28,-0.68,5.78,5.78,5.78
48.97,6.98,1.23,6.98,1.22,-1.22,-1.24,-0.65,5.76,5.75,5.75
49.46,6.91,1.19,6.91,1.19,-1.18,-1.21,-0.61,5.73,5.73,5.72
49.96,6.84,1.15,6.84,1.14,-1.14,-1.17,-0.58,5.70,5.70,5.69
50.46,6.78,1.09,6.78,1.10,-1.10,-1.13,-0.55,5.68,5.68,5.69
50.96,6.72,1.06,6.72,1.06,-1.06,-1.10,-0.51,5.66,5.66,5.66
51.47,6.65,1.02,6.65,1.01,-1.01,-1.06,-0.48,5.64,5.64,5.63
51.99,6.58,0.97,6.58,0.97,-0.97,-1.02,-0.45,5.61,5.61,5.61
52.51,6.51,0.92,6.51,0.92,-0.92,-0.98,-0.42,5.59,5.59,5.59
53.03,6.44,0.87,6.44,0.87,-0.88,-0.94,-0.40,5.56,5.57,5.57
53.56,6.37,0.83,6.37,0.83,-0.83,-0.90,-0.37,5.54,5.54,5.54
54.10,6.31,0.79,6.30,0.78,-0.78,-0.86,-0.34,5.53,5.52,5.52
54.64,6.23,0.74,6.23,0.74,-0.74,-0.82,-0.32,5.49,5.50,5.49
55.18,6.16,0.69,6.16,0.69,-0.69,-0.78,-0.30,5.47,5.47,5.47
55.74,6.09,0.65,6.09,0.64,-0.65,-0.73,-0.27,5.44,5.44,5.44
56.29,6.02,0.60,6.02,0.60,-0.60,-0.69,-0.25,5.42,5.42,5.42
56.86,5.95,0.56,5.95,0.56,-0.56,-0.64,-0.24,5.39,5.39,5.39
57.42,5.89,0.52,5.88,0.52,-0.52,-0.59,-0.22,5.37,5.37,5.37
58.00,5.82,0.47,5.82,0.48,-0.47,-0.55,-0.20,5.35,5.35,5.35
58.58,5.75,0.43,5.76,0.44,-0.43,-0.50,-0.19,5.32,5.32,5.32
59.16,5.70,0.40,5.69,0.40,-0.40,-0.45,-0.18,5.30,5.30,5.30
59.76,5.63,0.36,5.63,0.36,-0.36,-0.40,-0.17,5.27,5.27,5.27
60.35,5.57,0.33,5.57,0.32,-0.33,-0.35,-0.16,5.24,5.24,5.24
60.96,5.51,0.28,5.51,0.29,-0.30,-0.30,-0.15,5.21,5.21,5.23
61.57,5.45,0.26,5.45,0.26,-0.27,-0.25,-0.14,5.18,5.18,5.19
62.18,5.40,0.25,5.40,0.24,-0.24,-0.20,-0.14,5.16,5.16,5.15
62.80,5.35,0.22,5.35,0.22,-0.22,-0.16,-0.14,5.13,5.13,5.13
63.43,5.30,0.21,5.30,0.20,-0.19,-0.11,-0.14,5.11,5.10,5.09
64.07,5.24,0.17,5.25,0.17,-0.17,-0.07,-0.14,5.07,5.07,5.07
64.71,5.20,0.15,5.20,0.15,-0.15,-0.03,-0.14,5.05,5.05,5.05
65.35,5.15,0.13,5.15,0.12,-0.13,0.00,-0.15,5.02,5.02,5.02
66.01,5.11,0.10,5.11,0.11,-0.11,0.03,-0.16,5.00,5.00,5.01
66.67,5.07,0.09,5.07,0.09,-0.09,0.06,-0.17,4.98,4.98,4.98
67.33,5.04,0.08,5.03,0.08,-0.08,0.08,-0.18,4.96,4.96,4.96
68.01,4.99,0.06,4.99,0.07,-0.06,0.09,-0.19,4.93,4.93,4.93
68.69,4.96,0.05,4.96,0.05,-0.05,0.10,-0.20,4.91,4.90,4.91
69.37,4.92,0.05,4.92,0.04,-0.05,0.11,-0.22,4.87,4.88,4.87
70.07,4.89,0.04,4.89,0.04,-0.04,0.10,-0.23,4.85,4.85,4.85
70.77,4.86,0.03,4.86,0.04,-0.04,0.10,-0.25,4.82,4.82,4.83
71.48,4.83,0.04,4.83,0.03,-0.03,0.08,-0.27,4.80,4.79,4.79
72.19,4.80,0.03,4.80,0.04,-0.04,0.06,-0.29,4.76,4.76,4.77
72.91,4.77,0.04,4.77,0.04,-0.04,0.04,-0.31,4.73,4.73,4.73
73.64,4.74,0.05,4.74,0.04,-0.05,0.01,-0.34,4.69,4.69,4.69
74.38,4.71,0.04,4.72,0.06,-0.05,-0.02,-0.36,4.66,4.66,4.67
75.12,4.70,0.08,4.69,0.07,-0.06,-0.06,-0.38,4.64,4.63,4.62
75.87,4.67,0.08,4.67,0.08,-0.07,-0.09,-0.41,4.59,4.59,4.59
76.63,4.64,0.08,4.64,0.09,-0.09,-0.13,-0.44,4.55,4.55,4.56
77.40,4.61,0.09,4.61,0.10,-0.10,-0.17,-0.46,4.51,4.51,4.52
78.17,4.59,0.12,4.59,0.11,-0.11,-0.21,-0.49,4.47,4.47,4.47
78.95,4.57,0.13,4.56,0.13,-0.13,-0.25,-0.52,4.44,4.43,4.44
79.74,4.54,0.14,4.54,0.14,-0.15,-0.29,-0.55,4.39,4.40,4.40
80.54,4.52,0.16,4.52,0.16,-0.17,-0.33,-0.58,4.35,4.35,4.36
81.35,4.50,0.19,4.50,0.19,-0.19,-0.37,-0.61,4.31,4.31,4.31
82.16,4.48,0.21,4.48,0.21,-0.21,-0.41,-0.64,4.27,4.27,4.26
82.98,4.46,0.23,4.45,0.23,-0.23,-0.45,-0.68,4.23,4.22,4.23
83.81,4.43,0.26,4.43,0.26,-0.26,-0.49,-0.71,4.17,4.17,4.17
84.65,4.40,0.28,4.41,0.28,-0.28,-0.52,-0.74,4.12,4.13,4.12
85.50,4.39,0.30,4.38,0.30,-0.30,-0.56,-0.78,4.09,4.08,4.09
86.35,4.37,0.33,4.37,0.33,-0.33,-0.59,-0.81,4.04,4.04,4.04
87.22,4.34,0.35,4.35,0.36,-0.36,-0.62,-0.85,3.98,3.99,3.99
88.09,4.33,0.39,4.32,0.38,-0.39,-0.65,-0.89,3.94,3.94,3.94
88.97,4.30,0.40,4.30,0.41,-0.41,-0.68,-0.92,3.88,3.89,3.89
89.86,4.28,0.44,4.28,0.44,-0.44,-0.71,-0.96,3.83,3.84,3.84
90.76,4.27,0.49,4.27,0.48,-0.48,-0.74,-1.00,3.79,3.79,3.78
91.66,4.25,0.51,4.25,0.51,-0.51,-0.77,-1.04,3.74,3.74,3.74
92.58,4.23,0.55,4.23,0.55,-0.54,-0.79,-1.08,3.69,3.69,3.68
93.51,4.21,0.57,4.22,0.58,-0.58,-0.82,-1.12,3.63,3.64,3.64
94.44,4.21,0.62,4.20,0.62,-0.62,-0.84,-1.16,3.59,3.58,3.59
95.39,4.19,0.66,4.19,0.66,-0.66,-0.86,-1.20,3.53,3.53,3.53
96.34,4.17,0.70,4.17,0.70,-0.70,-0.88,-1.24,3.47,3.47,3.47
97.30,4.16,0.75,4.16,0.75,-0.75,-0.90,-1.29,3.41,3.41,3.41
98.28,4.15,0.79,4.15,0.79,-0.79,-0.92,-1.33,3.36,3.36,3.36
99.26,4.14,0.85,4.14,0.84,-0.84,-0.94,-1.37,3.30,3.30,3.29
100.25,4.13,0.89,4.13,0.89,-0.89,-0.96,-1.42,3.24,3.24,3.24
101.25,4.12,0.94,4.12,0.94,-0.94,-0.98,-1.46,3.18,3.18,3.18
102.27,4.11,0.99,4.11,1.00,-0.99,-1.00,-1.50,3.11,3.12,3.11
103.29,4.10,1.05,4.10,1.05,-1.05,-1.02,-1.55,3.05,3.05,3.05
104.32,4.10,1.11,4.10,1.10,-1.10,-1.04,-1.59,3.00,2.99,2.99
105.37,4.09,1.15,4.09,1.16,-1.16,-1.05,-1.63,2.93,2.93,2.94
106.42,4.08,1.21,4.08,1.21,-1.22,-1.07,-1.68,2.86,2.87,2.87
107.48,4.08,1.28,4.08,1.28,-1.28,-1.09,-1.72,2.80,2.80,2.80
108.56,4.08,1.34,4.08,1.34,-1.34,-1.11,-1.76,2.74,2.74,2.74
109.64,4.07,1.40,4.07,1.40,-1.40,-1.12,-1.80,2.67,2.68,2.67
110.74,4.07,1.45,4.07,1.46,-1.46,-1.14,-1.84,2.61,2.61,2.61
111.85,4.07,1.52,4.07,1.52,-1.53,-1.16,-1.88,2.54,2.54,2.55
112.97,4.06,1.60,4.06,1.59,-1.59,-1.18,-1.91,2.47,2.47,2.46
114.10,4.06,1.65,4.06,1.66,-1.66,-1.19,-1.95,2.40,2.41,2.41
115.24,4.06,1.72,4.06,1.72,-1.72,-1.21,-1.98,2.34,2.34,2.34
116.39,4.06,1.79,4.06,1.78,-1.78,-1.23,-2.02,2.28,2.27,2.27
117.55,4.05,1.84,4.05,1.85,-1.84,-1.25,-2.04,2.21,2.21,2.20
118.73,4.05,1.91,4.05,1.91,-1.90,-1.27,-2.07,2.15,2.15,2.14
119.92,4.05,1.96,4.04,1.96,-1.96,-1.28,-2.10,2.09,2.08,2.09
121.12,4.04,2.01,4.04,2.02,-2.01,-1.30,-2.12,2.02,2.03,2.03
122.33,4.03,2.07,4.03,2.07,-2.07,-1.32,-2.14,1.96,1.97,1.96
123.55,4.03,2.12,4.03,2.12,-2.12,-1.34,-2.16,1.91,1.91,1.91
124.79,4.02,2.17,4.02,2.17,-2.17,-1.36,-2.17,1.85,1.85,1.85
126.03,4.01,2.21,4.01,2.21,-2.22,-1.38,-2.18,1.79,1.79,1.80
127.29,4.00,2.26,4.00,2.27,-2.27,-1.40,-2.19,1.73,1.73,1.74
128.57,3.99,2.32,3.99,2.31,-2.31,-1.42,-2.20,1.68,1.68,1.67
129.85,3.98,2.36,3.98,2.36,-2.35,-1.44,-2.21,1.63,1.63,1.62
131.15,3.96,2.39,3.96,2.39,-2.39,-1.47,-2.21,1.57,1.57,1.57
132.46,3.95,2.43,3.95,2.43,-2.43,-1.49,-2.21,1.52,1.52,1.52
133.79,3.93,2.45,3.93,2.46,-2.46,-1.51,-2.21,1.47,1.47,1.48
135.12,3.91,2.49,3.91,2.48,-2.48,-1.53,-2.20,1.43,1.43,1.42
136.48,3.89,2.50,3.89,2.50,-2.51,-1.56,-2.20,1.38,1.38,1.39
137.84,3.87,2.52,3.87,2.53,-2.52,-1.58,-2.19,1.35,1.35,1.35
139.22,3.85,2.55,3.85,2.54,-2.54,-1.61,-2.18,1.31,1.31,1.30
140.61,3.82,2.56,3.82,2.55,-2.55,-1.63,-2.17,1.27,1.27,1.26
142.02,3.79,2.54,3.79,2.55,-2.55,-1.66,-2.16,1.24,1.24,1.25
143.44,3.76,2.55,3.76,2.55,-2.55,-1.68,-2.15,1.21,1.21,1.21
144.87,3.72,2.55,3.72,2.54,-2.55,-1.71,-2.14,1.17,1.18,1.17
146.32,3.69,2.54,3.69,2.54,-2.54,-1.73,-2.13,1.15,1.15,1.14
147.78,3.65,2.52,3.65,2.53,-2.53,-1.76,-2.12,1.12,1.12,1.13
149.26,3.61,2.51,3.61,2.51,-2.51,-1.79,-2.11,1.09,1.09,1.10
150.75,3.56,2.50,3.56,2.50,-2.50,-1.81,-2.10,1.06,1.06,1.06
152.26,3.52,2.49,3.52,2.49,-2.48,-1.84,-2.09,1.04,1.04,1.03
153.78,3.48,2.47,3.48,2.47,-2.47,-1.87,-2.07,1.01,1.01,1.01
155.32,3.43,2.45,3.43,2.45,-2.45,-1.89,-2.07,0.98,0.98,0.98
156.88,3.38,2.42,3.38,2.42,-2.42,-1.92,-2.06,0.95,0.96,0.96
158.44,3.33,2.40,3.33,2.40,-2.40,-1.95,-2.05,0.93,0.93,0.93
160.03,3.28,2.38,3.28,2.38,-2.38,-1.97,-2.04,0.90,0.90,0.89
161.63,3.22,2.36,3.22,2.36,-2.35,-2.00,-2.04,0.87,0.87,0.86
163.24,3.17,2.33,3.17,2.33,-2.33,-2.03,-2.03,0.84,0.84,0.84
164.88,3.12,2.30,3.12,2.30,-2.30,-2.05,-2.03,0.82,0.82,0.82
166.53,3.07,2.28,3.07,2.28,-2.28,-2.08,-2.03,0.79,0.79,0.79
168.19,3.01,2.25,3.01,2.25,-2.25,-2.11,-2.03,0.76,0.76,0.76
169.87,2.96,2.23,2.96,2.23,-2.23,-2.13,-2.03,0.73,0.73,0.73
171.57,2.91,2.21,2.91,2.21,-2.21,-2.15,-2.04,0.70,0.70,0.70
173.29,2.85,2.17,2.85,2.18,-2.19,-2.18,-2.04,0.66,0.67,0.67
175.02,2.81,2.17,2.80,2.17,-2.17,-2.20,-2.05,0.64,0.63,0.64
176.77,2.75,2.15,2.75,2.16,-2.15,-2.22,-2.06,0.59,0.60,0.59
178.54,2.71,2.15,2.71,2.15,-2.14,-2.24,-2.07,0.57,0.57,0.56
180.32,2.66,2.13,2.66,2.13,-2.13,-2.26,-2.08,0.53,0.53,0.53
182.13,2.61,2.11,2.61,2.12,-2.12,-2.28,-2.10,0.49,0.49,0.49
183.95,2.56,2.11,2.57,2.11,-2.11,-2.30,-2.11,0.45,0.45,0.45
185.79,2.53,2.11,2.52,2.10,-2.10,-2.32,-2.13,0.42,0.42,0.42
187.65,2.49,2.11,2.48,2.10,-2.10,-2.33,-2.15,0.39,0.39,0.38
189.52,2.44,2.09,2.45,2.10,-2.09,-2.34,-2.17,0.34,0.36,0.35
191.42,2.42,2.10,2.42,2.09,-2.09,-2.35,-2.19,0.33,0.32,0.32
193.33,2.39,2.09,2.39,2.09,-2.09,-2.36,-2.21,0.30,0.29,0.30
195.27,2.36,2.09,2.36,2.09,-2.09,-2.37,-2.24,0.27,0.27,0.27
197.22,2.33,2.08,2.33,2.09,-2.09,-2.37,-2.26,0.23,0.24,0.25
199.19,2.31,2.11,2.31,2.10,-2.10,-2.38,-2.29,0.21,0.21,0.20
201.18,2.30,2.12,2.29,2.11,-2.10,-2.38,-2.31,0.20,0.19,0.18
203.19,2.27,2.10,2.27,2.11,-2.11,-2.38,-2.34,0.16,0.17,0.17
205.23,2.25,2.11,2.25,2.11,-2.11,-2.37,-2.37,0.14,0.14,0.14
207.28,2.24,2.10,2.23,2.11,-2.11,-2.37,-2.39,0.12,0.12,0.14
209.35,2.22,2.12,2.22,2.12,-2.12,-2.36,-2.42,0.10,0.10,0.10
211.44,2.21,2.13,2.21,2.13,-2.12,-2.35,-2.45,0.08,0.08,0.08
213.56,2.20,2.14,2.20,2.13,-2.13,-2.33,-2.47,0.07,0.06,0.06
215.69,2.19,2.13,2.19,2.13,-2.14,-2.31,-2.50,0.05,0.05,0.06
217.85,2.18,2.13,2.19,2.14,-2.15,-2.29,-2.52,0.03,0.03,0.05
220.03,2.19,2.16,2.19,2.16,-2.16,-2.27,-2.54,0.03,0.03,0.02
222.23,2.19,2.18,2.19,2.17,-2.17,-2.25,-2.56,0.02,0.02,0.01
224.45,2.19,2.17,2.19,2.18,-2.17,-2.22,-2.58,0.02,0.02,0.02
226.70,2.19,2.18,2.19,2.18,-2.17,-2.19,-2.60,0.02,0.02,0.01
228.96,2.19,2.18,2.19,2.17,-2.17,-2.16,-2.61,0.02,0.02,0.01
231.25,2.18,2.16,2.18,2.16,-2.16,-2.13,-2.62,0.02,0.02,0.02
233.57,2.17,2.14,2.17,2.15,-2.15,-2.09,-2.62,0.02,0.02,0.03
235.90,2.16,2.13,2.16,2.13,-2.13,-2.05,-2.62,0.03,0.03,0.03
238.26,2.15,2.12,2.14,2.11,-2.10,-2.01,-2.62,0.05,0.04,0.03
240.64,2.12,2.07,2.12,2.08,-2.07,-1.96,-2.61,0.05,0.05,0.05
243.05,2.10,2.04,2.10,2.03,-2.03,-1.92,-2.60,0.07,0.06,0.06
245.48,2.07,1.99,2.07,1.99,-1.99,-1.87,-2.58,0.08,0.08,0.08
247.93,2.04,1.94,2.04,1.95,-1.95,-1.82,-2.56,0.09,0.10,0.10
250.41,2.02,1.91,2.01,1.90,-1.90,-1.77,-2.53,0.12,0.11,0.11
252.92,1.99,1.85,1.99,1.85,-1.85,-1.71,-2.50,0.14,0.13,0.14
255.45,1.95,1.79,1.96,1.80,-1.80,-1.66,-2.46,0.15,0.16,0.16
258.00,1.93,1.74,1.93,1.74,-1.75,-1.60,-2.42,0.18,0.18,0.19
260.58,1.91,1.71,1.90,1.70,-1.70,-1.54,-2.37,0.21,0.20,0.20
263.19,1.87,1.65,1.88,1.65,-1.65,-1.48,-2.32,0.22,0.23,0.22
265.82,1.85,1.60,1.85,1.60,-1.60,-1.42,-2.27,0.25,0.25,0.25
268.48,1.82,1.55,1.82,1.55,-1.55,-1.36,-2.21,0.27,0.27,0.27
271.16,1.80,1.50,1.79,1.49,-1.49,-1.29,-2.14,0.30,0.30,0.30
273.87,1.76,1.44,1.76,1.44,-1.44,-1.23,-2.07,0.32,0.32,0.32
276.61,1.73,1.38,1.73,1.38,-1.39,-1.16,-2.00,0.34,0.35,0.35
279.38,1.70,1.33,1.70,1.33,-1.33,-1.09,-1.92,0.37,0.37,0.37
282.17,1.67,1.28,1.66,1.27,-1.27,-1.03,-1.84,0.40,0.39,0.39
284.99,1.63,1.21,1.63,1.21,-1.21,-0.96,-1.76,0.42,0.42,0.42
287.84,1.59,1.15,1.60,1.15,-1.15,-0.89,-1.67,0.44,0.44,0.44
290.72,1.57,1.09,1.56,1.09,-1.09,-0.82,-1.58,0.48,0.47,0.48
293.63,1.53,1.04,1.53,1.03,-1.03,-0.75,-1.49,0.50,0.50,0.49
296.57,1.49,0.96,1.49,0.97,-0.96,-0.68,-1.40,0.53,0.53,0.53
299.53,1.45,0.89,1.45,0.89,-0.89,-0.61,-1.31,0.56,0.56,0.56
302.53,1.41,0.83,1.41,0.82,-0.82,-0.54,-1.21,0.59,0.59,0.58
305.55,1.36,0.73,1.37,0.74,-0.74,-0.47,-1.11,0.61,0.62,0.63
308.61,1.33,0.68,1.32,0.67,-0.67,-0.40,-1.02,0.66,0.65,0.65
311.69,1.28,0.59,1.28,0.59,-0.59,-0.33,-0.92,0.69,0.69,0.69
314.81,1.24,0.51,1.24,0.51,-0.52,-0.26,-0.82,0.72,0.72,0.73
317.96,1.19,0.44,1.19,0.44,-0.44,-0.19,-0.72,0.75,0.75,0.75
321.14,1.15,0.37,1.15,0.36,-0.36,-0.12,-0.62,0.79,0.79,0.78
324.35,1.10,0.29,1.10,0.29,-0.29,-0.05,-0.52,0.81,0.81,0.81
327.59,1.05,0.20,1.05,0.21,-0.21,0.02,-0.41,0.84,0.84,0.85
330.87,1.00,0.13,1.00,0.13,-0.13,0.09,-0.31,0.86,0.86,0.87
334.18,0.95,0.06,0.95,0.05,-0.06,0.16,-0.21,0.89,0.89,0.89
337.52,0.90,-0.02,0.90,-0.02,0.01,0.23,-0.11,0.91,0.91,0.92
340.90,0.85,-0.09,0.85,-0.09,0.09,0.30,-0.00,0.94,0.94,0.94
344.30,0.80,-0.16,0.80,-0.17,0.17,0.37,0.10,0.97,0.96,0.96
347.75,0.74,-0.25,0.75,-0.24,0.25,0.44,0.21,0.99,0.99,0.99
351.23,0.69,-0.32,0.69,-0.32,0.33,0.51,0.31,1.02,1.02,1.01
354.74,0.63,-0.40,0.62,-0.40,0.42,0.57,0.42,1.05,1.04,1.03
358.28,0.54,-0.50,0.55,-0.50,0.50,0.64,0.52,1.04,1.05,1.04
361.87,0.47,-0.59,0.47,-0.60,0.59,0.71,0.63,1.06,1.06,1.06
365.49,0.39,-0.70,0.39,-0.69,0.68,0.77,0.73,1.07,1.07,1.09
369.14,0.32,-0.78,0.32,-0.78,0.77,0.84,0.84,1.09,1.09,1.10
372.83,0.26,-0.86,0.26,-0.86,0.86,0.90,0.94,1.11,1.11,1.12
376.56,0.20,-0.93,0.20,-0.94,0.94,0.97,1.05,1.14,1.14,1.13
380.33,0.14,-1.02,0.14,-1.02,1.02,1.03,1.16,1.16,1.16,1.16
384.13,0.09,-1.09,0.09,-1.09,1.10,1.10,1.26,1.18,1.18,1.18
387.97,0.03,-1.17,0.03,-1.17,1.17,1.16,1.37,1.20,1.20,1.20
391.85,-0.02,-1.24,-0.02,-1.24,1.24,1.22,1.47,1.22,1.22,1.22
395.77,-0.07,-1.32,-0.07,-1.31,1.31,1.29,1.58,1.24,1.24,1.25
399.73,-0.11,-1.37,-0.11,-1.37,1.38,1.35,1.69,1.27,1.26,1.26
403.72,-0.15,-1.43,-0.16,-1.44,1.44,1.41,1.79,1.29,1.29,1.28
407.76,-0.20,-1.50,-0.20,-1.50,1.50,1.47,1.90,1.30,1.31,1.30
411.84,-0.24,-1.57,-0.24,-1.56,1.56,1.53,2.00,1.32,1.33,1.33
415.96,-0.27,-1.62,-0.28,-1.62,1.62,1.59,2.11,1.35,1.35,1.35
420.12,-0.31,-1.68,-0.31,-1.68,1.68,1.65,2.21,1.37,1.37,1.37
424.32,-0.34,-1.74,-0.34,-1.73,1.73,1.70,2.31,1.39,1.39,1.40
428.56,-0.37,-1.79,-0.37,-1.79,1.78,1.76,2.41,1.41,1.41,1.42
432.85,-0.40,-1.84,-0.40,-1.84,1.84,1.82,2.50,1.44,1.44,1.43
437.18,-0.43,-1.89,-0.43,-1.89,1.89,1.87,2.60,1.46,1.46,1.46
441.55,-0.45,-1.94,-0.46,-1.94,1.95,1.93,2.69,1.50,1.49,1.49
445.96,-0.49,-2.00,-0.49,-2.00,2.00,1.98,2.78,1.51,1.52,1.51
450.42,-0.52,-2.05,-0.52,-2.06,2.06,2.04,2.87,1.54,1.54,1.53
454.93,-0.56,-2.13,-0.56,-2.12,2.13,2.09,2.95,1.57,1.57,1.57
459.48,-0.60,-2.19,-0.60,-2.19,2.20,2.14,3.03,1.60,1.60,1.59
464.07,-0.65,-2.27,-0.65,-2.27,2.27,2.19,3.10,1.62,1.62,1.62
468.71,-0.69,-2.35,-0.69,-2.34,2.34,2.25,3.17,1.65,1.65,1.66
473.40,-0.74,-2.42,-0.74,-2.42,2.42,2.30,3.24,1.68,1.68,1.68
478.13,-0.79,-2.50,-0.79,-2.50,2.50,2.34,3.30,1.70,1.70,1.71
482.91,-0.84,-2.58,-0.84,-2.58,2.57,2.39,3.35,1.73,1.73,1.74
487.74,-0.89,-2.66,-0.89,-2.65,2.65,2.44,3.40,1.76,1.76,1.76
492.62,-0.93,-2.72,-0.93,-2.72,2.73,2.49,3.45,1.79,1.79,1.79
497.55,-0.97,-2.78,-0.98,-2.80,2.80,2.53,3.48,1.83,1.82,1.81
502.52,-1.03,-2.88,-1.02,-2.87,2.87,2.58,3.52,1.84,1.85,1.85
507.55,-1.07,-2.94,-1.07,-2.94,2.95,2.62,3.54,1.88,1.88,1.87
512.62,-1.11,-3.01,-1.11,-3.02,3.01,2.67,3.57,1.90,1.90,1.90
517.75,-1.15,-3.08,-1.15,-3.08,3.08,2.71,3.58,1.93,1.93,1.93
522.93,-1.19,-3.15,-1.19,-3.15,3.14,2.75,3.59,1.95,1.95,1.96
528.16,-1.22,-3.20,-1.22,-3.20,3.20,2.79,3.60,1.98,1.98,1.98
533.44,-1.24,-3.25,-1.24,-3.25,3.25,2.83,3.60,2.01,2.01,2.01
538.77,-1.26,-3.30,-1.26,-3.30,3.30,2.87,3.60,2.04,2.04,2.04
544.16,-1.27,-3.34,-1.27,-3.34,3.34,2.90,3.59,2.07,2.06,2.07
