frequency,raw,error,smoothed,error_smoothed,equalization,parametric_eq,fixed_band_eq,equalized_raw,equalized_smoothed,target
20.00,16.19,8.77,16.19,8.74,-8.74,-8.03,-3.99,7.45,7.45,7.42
20.20,16.20,8.74,16.20,8.72,-8.72,-8.05,-4.10,7.48,7.48,7.46
20.40,16.21,8.71,16.21,8.71,-8.71,-8.07,-4.21,7.51,7.51,7.50
20.61,16.22,8.69,16.22,8.69,-8.69,-8.09,-4.32,7.53,7.53,7.53
20.81,16.23,8.66,16.23,8.67,-8.67,-8.11,-4.44,7.56,7.56,7.57
21.02,16.24,8.63,16.25,8.66,-8.66,-8.13,-4.56,7.58,7.59,7.61
21.23,16.25,8.62,16.26,8.65,-8.65,-8.14,-4.68,7.61,7.61,7.63
21.44,16.27,8.62,16.27,8.63,-8.63,-8.16,-4.81,7.64,7.63,7.65
21.66,16.28,8.61,16.28,8.62,-8.62,-8.18,-4.94,7.66,7.65,7.67
21.87,16.29,8.61,16.29,8.62,-8.62,-8.20,-5.07,7.68,7.67,7.68
22.09,16.30,8.60,16.30,8.61,-8.61,-8.22,-5.21,7.69,7.69,7.70
22.31,16.31,8.60,16.31,8.60,-8.60,-8.23,-5.35,7.71,7.71,7.71
22.54,16.32,8.60,16.32,8.60,-8.60,-8.25,-5.49,7.72,7.72,7.72
22.76,16.33,8.60,16.33,8.60,-8.60,-8.27,-5.64,7.73,7.73,7.73
22.99,16.34,8.61,16.34,8.60,-8.60,-8.29,-5.79,7.74,7.74,7.73
23.22,16.35,8.61,16.35,8.61,-8.61,-8.30,-5.94,7.75,7.75,7.74
23.45,16.36,8.61,16.36,8.61,-8.61,-8.32,-6.10,7.76,7.76,7.75
23.69,16.37,8.61,16.37,8.61,-8.61,-8.33,-6.26,7.76,7.77,7.76
23.92,16.38,8.61,16.38,8.61,-8.61,-8.35,-6.43,7.78,7.78,7.77
24.16,16.39,8.61,16.39,8.61,-8.61,-8.37,-6.60,7.79,7.78,7.79
24.40,16.40,8.60,16.40,8.61,-8.61,-8.38,-6.77,7.80,7.79,7.81
24.65,16.41,8.61,16.41,8.60,-8.60,-8.40,-6.95,7.81,7.80,7.81
24.89,16.42,8.61,16.42,8.60,-8.60,-8.41,-7.12,7.82,7.81,7.82
25.14,16.42,8.60,16.43,8.60,-8.60,-8.42,-7.30,7.82,7.82,7.82
25.39,16.43,8.60,16.43,8.60,-8.60,-8.44,-7.49,7.83,7.84,7.83
25.65,16.44,8.59,16.44,8.60,-8.60,-8.45,-7.67,7.85,7.85,7.85
25.91,16.45,8.60,16.45,8.59,-8.59,-8.47,-7.86,7.86,7.86,7.85
26.16,16.46,8.60,16.46,8.59,-8.59,-8.48,-8.04,7.87,7.87,7.86
26.43,16.46,8.59,16.47,8.59,-8.59,-8.49,-8.23,7.87,7.88,7.87
26.69,16.47,8.59,16.47,8.59,-8.59,-8.51,-8.41,7.88,7.89,7.88
26.96,16.48,8.58,16.48,8.59,-8.59,-8.52,-8.60,7.89,7.89,7.90
27.23,16.49,8.58,16.49,8.59,-8.59,-8.53,-8.78,7.91,7.90,7.91
27.50,16.50,8.58,16.50,8.58,-8.58,-8.54,-8.96,7.92,7.91,7.92
27.77,16.50,8.58,16.50,8.58,-8.58,-8.56,-9.13,7.92,7.92,7.92
28.05,16.51,8.57,16.51,8.58,-8.58,-8.57,-9.30,7.93,7.93,7.94
28.33,16.52,8.58,16.52,8.58,-8.58,-8.58,-9.46,7.94,7.94,7.94
28.62,16.52,8.58,16.52,8.58,-8.58,-8.59,-9.62,7.95,7.95,7.95
28.90,16.53,8.58,16.53,8.57,-8.57,-8.60,-9.76,7.96,7.96,7.96
29.19,16.53,8.58,16.54,8.57,-8.57,-8.61,-9.90,7.96,7.97,7.95
29.48,16.54,8.56,16.54,8.57,-8.57,-8.62,-10.02,7.97,7.97,7.98
29.78,16.55,8.57,16.54,8.57,-8.57,-8.64,-10.13,7.99,7.98,7.98
30.08,16.55,8.56,16.55,8.56,-8.56,-8.65,-10.23,7.99,7.99,7.99
30.38,16.55,8.56,16.55,8.56,-8.56,-8.66,-10.31,7.99,7.99,7.99
30.68,16.55,8.54,16.55,8.55,-8.55,-8.67,-10.38,8.00,8.00,8.01
30.99,16.55,8.54,16.56,8.55,-8.55,-8.68,-10.43,8.01,8.01,8.01
31.30,16.55,8.53,16.56,8.54,-8.54,-8.69,-10.47,8.01,8.02,8.02
31.61,16.56,8.54,16.56,8.53,-8.53,-8.70,-10.49,8.03,8.03,8.03
31.93,16.56,8.53,16.56,8.52,-8.52,-8.70,-10.49,8.04,8.04,8.03
32.24,16.56,8.53,16.55,8.51,-8.51,-8.71,-10.48,8.05,8.04,8.03
32.57,16.55,8.50,16.55,8.50,-8.50,-8.72,-10.45,8.05,8.05,8.05
32.89,16.55,8.49,16.55,8.49,-8.49,-8.73,-10.41,8.06,8.06,8.06
33.22,16.55,8.48,16.55,8.48,-8.48,-8.74,-10.36,8.07,8.07,8.07
33.55,16.54,8.46,16.54,8.47,-8.47,-8.75,-10.30,8.07,8.07,8.08
33.89,16.53,8.45,16.54,8.46,-8.46,-8.76,-10.22,8.07,8.08,8.09
34.23,16.53,8.44,16.54,8.45,-8.45,-8.76,-10.14,8.08,8.09,8.09
34.57,16.53,8.43,16.54,8.44,-8.44,-8.77,-10.05,8.09,8.10,8.10
34.92,16.53,8.43,16.53,8.43,-8.43,-8.78,-9.95,8.10,8.10,8.10
35.27,16.53,8.42,16.53,8.42,-8.42,-8.79,-9.85,8.11,8.11,8.11
35.62,16.53,8.42,16.53,8.42,-8.42,-8.80,-9.75,8.12,8.11,8.12
35.97,16.53,8.42,16.53,8.41,-8.41,-8.80,-9.64,8.12,8.12,8.11
36.33,16.53,8.41,16.53,8.41,-8.41,-8.81,-9.53,8.12,8.12,8.12
36.70,16.53,8.41,16.53,8.41,-8.41,-8.82,-9.42,8.12,8.12,8.12
37.06,16.53,8.40,16.53,8.41,-8.41,-8.82,-9.31,8.13,8.13,8.13
37.43,16.53,8.40,16.53,8.40,-8.40,-8.83,-9.20,8.13,8.13,8.13
37.81,16.53,8.40,16.53,8.41,-8.41,-8.84,-9.10,8.13,8.13,8.13
38.19,16.53,8.40,16.53,8.41,-8.41,-8.84,-9.00,8.13,8.13,8.13
38.57,16.53,8.40,16.53,8.41,-8.41,-8.85,-8.90,8.13,8.13,8.13
38.95,16.53,8.41,16.53,8.41,-8.41,-8.85,-8.80,8.13,8.13,8.12
39.34,16.53,8.41,16.53,8.41,-8.41,-8.86,-8.71,8.13,8.13,8.12
39.74,16.53,8.41,16.53,8.41,-8.41,-8.87,-8.62,8.12,8.12,8.12
40.14,16.53,8.41,16.53,8.41,-8.41,-8.87,-8.53,8.12,8.12,8.12
40.54,16.53,8.41,16.53,8.41,-8.41,-8.88,-8.45,8.12,8.12,8.12
40.94,16.53,8.41,16.53,8.41,-8.41,-8.88,-8.38,8.12,8.12,8.12
41.35,16.53,8.42,16.53,8.41,-8.41,-8.89,-8.31,8.12,8.12,8.11
41.76,16.53,8.41,16.53,8.41,-8.41,-8.89,-8.25,8.12,8.12,8.12
42.18,16.53,8.41,16.53,8.41,-8.41,-8.90,-8.19,8.12,8.12,8.13
42.60,16.53,8.41,16.53,8.41,-8.41,-8.90,-8.14,8.12,8.12,8.12
43.03,16.53,8.40,16.53,8.42,-8.42,-8.90,-8.09,8.11,8.12,8.13
43.46,16.53,8.41,16.54,8.42,-8.42,-8.91,-8.05,8.11,8.12,8.12
43.90,16.53,8.42,16.54,8.42,-8.42,-8.91,-8.02,8.11,8.12,8.11
44.33,16.53,8.42,16.54,8.42,-8.42,-8.92,-7.99,8.11,8.12,8.11
44.78,16.54,8.43,16.54,8.43,-8.43,-8.92,-7.97,8.12,8.12,8.11
45.23,16.54,8.44,16.55,8.43,-8.43,-8.92,-7.95,8.11,8.12,8.10
45.68,16.55,8.44,16.55,8.43,-8.43,-8.93,-7.94,8.12,8.11,8.11
46.13,16.55,8.45,16.55,8.43,-8.43,-8.93,-7.93,8.12,8.11,8.10
46.60,16.55,8.43,16.55,8.44,-8.44,-8.94,-7.93,8.11,8.11,8.12
47.06,16.55,8.44,16.55,8.44,-8.44,-8.94,-7.94,8.11,8.11,8.11
47.53,16.55,8.45,16.55,8.44,-8.44,-8.94,-7.95,8.11,8.10,8.11
48.01,16.55,8.43,16.54,8.44,-8.44,-8.94,-7.96,8.11,8.10,8.12
48.49,16.54,8.44,16.54,8.44,-8.44,-8.95,-7.98,8.10,8.09,8.10
48.97,16.53,8.45,16.53,8.44,-8.44,-8.95,-8.01,8.09,8.09,8.09
49.46,16.52,8.44,16.52,8.44,-8.44,-8.95,-8.04,8.08,8.08,8.08
49.96,16.51,8.45,16.51,8.44,-8.44,-8.96,-8.07,8.07,8.07,8.06
50.46,16.50,8.44,16.50,8.44,-8.44,-8.96,-8.11,8.06,8.06,8.06
50.96,16.49,8.44,16.49,8.44,-8.44,-8.96,-8.15,8.05,8.05,8.06
51.47,16.48,8.45,16.48,8.44,-8.44,-8.96,-8.20,8.04,8.04,8.03
51.99,16.46,8.44,16.46,8.44,-8.44,-8.96,-8.24,8.02,8.03,8.02
52.51,16.44,8.42,16.45,8.44,-8.44,-8.97,-8.29,8.01,8.01,8.02
53.03,16.43,8.43,16.43,8.44,-8.44,-8.97,-8.35,8.00,8.00,8.00
53.56,16.41,8.42,16.42,8.43,-8.43,-8.97,-8.40,7.98,7.99,7.99
54.10,16.40,8.43,16.40,8.43,-8.43,-8.97,-8.45,7.97,7.97,7.97
54.64,16.38,8.42,16.39,8.43,-8.43,-8.97,-8.51,7.95,7.96,7.96
55.18,16.37,8.43,16.37,8.42,-8.42,-8.97,-8.56,7.95,7.95,7.94
55.74,16.36,8.44,16.35,8.42,-8.42,-8.97,-8.62,7.94,7.93,7.92
56.29,16.34,8.42,16.33,8.42,-8.42,-8.97,-8.67,7.93,7.92,7.92
56.86,16.32,8.42,16.31,8.41,-8.41,-8.98,-8.72,7.91,7.90,7.90
57.42,16.29,8.42,16.29,8.40,-8.40,-8.98,-8.76,7.89,7.89,7.88
58.00,16.27,8.41,16.27,8.40,-8.40,-8.98,-8.81,7.87,7.87,7.86
58.58,16.25,8.40,16.25,8.40,-8.40,-8.98,-8.85,7.86,7.85,7.85
59.16,16.22,8.38,16.22,8.39,-8.39,-8.98,-8.88,7.83,7.83,7.84
59.76,16.20,8.38,16.20,8.39,-8.39,-8.98,-8.91,7.81,7.81,7.82
60.35,16.17,8.37,16.17,8.39,-8.39,-8.98,-8.93,7.78,7.79,7.80
60.96,16.14,8.37,16.15,8.39,-8.39,-8.98,-8.95,7.75,7.76,7.78
61.57,16.12,8.38,16.13,8.39,-8.39,-8.98,-8.96,7.73,7.74,7.74
62.18,16.09,8.39,16.10,8.39,-8.39,-8.98,-8.96,7.70,7.71,7.71
62.80,16.08,8.39,16.08,8.40,-8.40,-8.98,-8.96,7.69,7.69,7.69
63.43,16.06,8.41,16.07,8.40,-8.40,-8.98,-8.95,7.66,7.66,7.65
64.07,16.04,8.42,16.05,8.41,-8.41,-8.98,-8.93,7.63,7.63,7.63
64.71,16.03,8.43,16.03,8.43,-8.43,-8.98,-8.91,7.61,7.60,7.60
65.35,16.01,8.44,16.01,8.44,-8.44,-8.98,-8.88,7.57,7.57,7.57
66.01,16.00,8.46,16.00,8.45,-8.45,-8.98,-8.84,7.55,7.54,7.54
66.67,15.98,8.46,15.98,8.47,-8.47,-8.97,-8.80,7.52,7.51,7.52
67.33,15.96,8.47,15.96,8.48,-8.48,-8.97,-8.75,7.48,7.49,7.49
68.01,15.95,8.49,15.95,8.49,-8.49,-8.97,-8.71,7.46,7.46,7.46
68.69,15.94,8.51,15.93,8.50,-8.50,-8.97,-8.65,7.44,7.43,7.43
69.37,15.92,8.52,15.92,8.51,-8.51,-8.97,-8.59,7.41,7.40,7.40
70.07,15.90,8.53,15.90,8.52,-8.52,-8.97,-8.54,7.38,7.37,7.37
70.77,15.88,8.53,15.88,8.53,-8.53,-8.97,-8.48,7.35,7.35,7.35
71.48,15.86,8.54,15.86,8.54,-8.54,-8.97,-8.41,7.32,7.32,7.32
72.19,15.83,8.54,15.84,8.55,-8.55,-8.96,-8.35,7.28,7.29,7.29
72.91,15.81,8.55,15.82,8.55,-8.55,-8.96,-8.29,7.26,7.27,7.27
73.64,15.80,8.56,15.80,8.55,-8.55,-8.96,-8.23,7.25,7.25,7.24
74.38,15.78,8.56,15.78,8.55,-8.55,-8.96,-8.17,7.23,7.22,7.23
75.12,15.77,8.57,15.75,8.55,-8.55,-8.95,-8.11,7.22,7.20,7.20
75.87,15.74,8.56,15.73,8.55,-8.55,-8.95,-8.06,7.19,7.18,7.18
76.63,15.72,8.56,15.71,8.54,-8.54,-8.95,-8.01,7.18,7.17,7.17
77.40,15.69,8.54,15.69,8.54,-8.54,-8.95,-7.96,7.15,7.15,7.15
78.17,15.66,8.53,15.67,8.53,-8.53,-8.95,-7.91,7.13,7.14,7.13
78.95,15.64,8.52,15.65,8.53,-8.53,-8.94,-7.87,7.11,7.12,7.12
79.74,15.62,8.51,15.63,8.52,-8.52,-8.94,-7.83,7.10,7.11,7.11
80.54,15.60,8.50,15.62,8.52,-8.52,-8.94,-7.80,7.08,7.10,7.10
81.35,15.58,8.49,15.60,8.51,-8.51,-8.93,-7.77,7.07,7.09,7.09
82.16,15.57,8.49,15.59,8.51,-8.51,-8.93,-7.75,7.06,7.08,7.08
82.98,15.57,8.49,15.58,8.50,-8.50,-8.93,-7.73,7.07,7.07,7.08
83.81,15.56,8.50,15.56,8.50,-8.50,-8.92,-7.72,7.06,7.07,7.07
84.65,15.55,8.50,15.55,8.49,-8.49,-8.92,-7.71,7.06,7.06,7.05
85.50,15.55,8.49,15.54,8.48,-8.48,-8.92,-7.71,7.07,7.06,7.06
86.35,15.54,8.49,15.53,8.47,-8.47,-8.91,-7.71,7.07,7.05,7.06
87.22,15.53,8.48,15.51,8.46,-8.46,-8.91,-7.72,7.07,7.05,7.05
88.09,15.51,8.47,15.49,8.44,-8.44,-8.91,-7.73,7.07,7.05,7.05
88.97,15.48,8.43,15.47,8.42,-8.42,-8.90,-7.75,7.06,7.05,7.05
89.86,15.45,8.40,15.44,8.40,-8.40,-8.90,-7.78,7.05,7.05,7.05
90.76,15.43,8.39,15.42,8.37,-8.37,-8.89,-7.81,7.06,7.05,7.04
91.66,15.39,8.35,15.39,8.34,-8.34,-8.89,-7.85,7.05,7.04,7.04
92.58,15.36,8.33,15.35,8.31,-8.31,-8.89,-7.89,7.05,7.04,7.04
93.51,15.33,8.28,15.33,8.29,-8.29,-8.88,-7.94,7.05,7.04,7.05
94.44,15.30,8.26,15.30,8.26,-8.26,-8.88,-7.99,7.04,7.04,7.04
95.39,15.27,8.23,15.27,8.24,-8.24,-8.87,-8.05,7.03,7.03,7.04
96.34,15.24,8.22,15.25,8.23,-8.23,-8.87,-8.11,7.01,7.03,7.02
97.30,15.21,8.20,15.24,8.22,-8.22,-8.86,-8.18,6.99,7.02,7.02
98.28,15.20,8.19,15.23,8.22,-8.22,-8.86,-8.25,6.98,7.01,7.01
99.26,15.19,8.19,15.23,8.23,-8.23,-8.86,-8.33,6.97,7.00,7.00
100.25,15.21,8.22,15.23,8.24,-8.24,-8.85,-8.41,6.97,6.99,6.99
101.25,15.23,8.25,15.24,8.26,-8.26,-8.85,-8.50,6.97,6.98,6.98
102.27,15.26,8.30,15.26,8.29,-8.29,-8.84,-8.59,6.97,6.96,6.96
103.29,15.28,8.34,15.28,8.33,-8.33,-8.84,-8.68,6.95,6.95,6.94
104.32,15.30,8.37,15.30,8.38,-8.38,-8.83,-8.77,6.92,6.93,6.93
105.37,15.33,8.42,15.34,8.43,-8.43,-8.83,-8.87,6.90,6.90,6.91
106.42,15.36,8.48,15.37,8.49,-8.49,-8.83,-8.96,6.87,6.88,6.88
107.48,15.40,8.54,15.40,8.55,-8.55,-8.82,-9.06,6.85,6.85,6.86
108.56,15.44,8.62,15.44,8.61,-8.61,-8.82,-9.16,6.83,6.82,6.82
109.64,15.47,8.68,15.47,8.68,-8.68,-8.81,-9.26,6.80,6.79,6.80
110.74,15.50,8.74,15.50,8.74,-8.74,-8.81,-9.35,6.76,6.76,6.77
111.85,15.54,8.81,15.52,8.80,-8.80,-8.81,-9.44,6.74,6.72,6.73
112.97,15.56,8.88,15.54,8.86,-8.86,-8.80,-9.53,6.70,6.68,6.68
114.10,15.57,8.92,15.56,8.92,-8.92,-8.80,-9.61,6.65,6.64,6.65
115.24,15.58,8.98,15.58,8.97,-8.97,-8.80,-9.69,6.61,6.60,6.60
116.39,15.59,9.04,15.58,9.02,-9.02,-8.79,-9.76,6.57,6.56,6.55
117.55,15.59,9.08,15.59,9.07,-9.07,-8.79,-9.82,6.52,6.52,6.52
118.73,15.58,9.11,15.59,9.11,-9.11,-8.79,-9.88,6.48,6.48,6.47
119.92,15.58,9.14,15.58,9.14,-9.14,-8.79,-9.92,6.44,6.44,6.44
121.12,15.57,9.18,15.57,9.17,-9.17,-8.79,-9.96,6.40,6.40,6.39
122.33,15.56,9.20,15.56,9.19,-9.19,-8.79,-9.98,6.37,6.36,6.36
123.55,15.54,9.21,15.54,9.21,-9.21,-8.79,-10.00,6.33,6.33,6.33
124.79,15.51,9.21,15.51,9.22,-9.22,-8.79,-10.00,6.29,6.29,6.30
126.03,15.48,9.22,15.49,9.23,-9.23,-8.79,-9.99,6.25,6.26,6.26
127.29,15.46,9.23,15.46,9.24,-9.24,-8.79,-9.97,6.23,6.23,6.23
128.57,15.43,9.25,15.43,9.24,-9.24,-8.79,-9.94,6.20,6.19,6.18
129.85,15.39,9.23,15.40,9.23,-9.23,-8.79,-9.90,6.16,6.16,6.16
131.15,15.36,9.23,15.36,9.23,-9.23,-8.80,-9.84,6.14,6.13,6.13
132.46,15.32,9.22,15.32,9.22,-9.22,-8.80,-9.78,6.10,6.11,6.10
133.79,15.28,9.20,15.28,9.21,-9.21,-8.81,-9.71,6.07,6.08,6.08
135.12,15.23,9.18,15.24,9.19,-9.19,-8.81,-9.63,6.04,6.05,6.05
136.48,15.20,9.17,15.20,9.18,-9.18,-8.82,-9.54,6.03,6.03,6.03
137.84,15.16,9.16,15.16,9.16,-9.16,-8.83,-9.45,6.00,6.00,6.00
139.22,15.12,9.15,15.12,9.14,-9.14,-8.84,-9.35,5.99,5.98,5.97
140.61,15.07,9.13,15.07,9.11,-9.11,-8.85,-9.25,5.96,5.96,5.94
142.02,15.01,9.08,15.02,9.09,-9.09,-8.86,-9.15,5.92,5.93,5.93
143.44,14.97,9.06,14.97,9.07,-9.07,-8.87,-9.04,5.91,5.91,5.91
144.87,14.93,9.04,14.93,9.04,-9.04,-8.88,-8.93,5.89,5.88,5.89
146.32,14.89,9.03,14.87,9.01,-9.01,-8.89,-8.82,5.88,5.86,5.86
147.78,14.82,8.98,14.82,8.99,-8.99,-8.90,-8.71,5.83,5.83,5.84
149.26,14.77,8.95,14.77,8.96,-8.96,-8.91,-8.60,5.81,5.81,5.82
150.75,14.70,8.93,14.72,8.94,-8.94,-8.92,-8.50,5.76,5.78,5.77
152.26,14.66,8.91,14.66,8.91,-8.91,-8.93,-8.39,5.75,5.75,5.75
153.78,14.60,8.88,14.61,8.89,-8.89,-8.94,-8.29,5.71,5.72,5.73
155.32,14.56,8.88,14.56,8.87,-8.87,-8.95,-8.19,5.70,5.69,5.68
156.88,14.49,8.83,14.50,8.84,-8.84,-8.95,-8.10,5.65,5.66,5.66
158.44,14.44,8.81,14.45,8.82,-8.82,-8.95,-8.01,5.62,5.62,5.63
160.03,14.37,8.79,14.39,8.80,-8.80,-8.95,-7.92,5.57,5.59,5.59
161.63,14.32,8.78,14.33,8.77,-8.77,-8.94,-7.84,5.55,5.56,5.55
163.24,14.28,8.77,14.27,8.75,-8.75,-8.92,-7.76,5.53,5.52,5.52
164.88,14.22,8.74,14.21,8.73,-8.73,-8.90,-7.69,5.49,5.48,5.49
166.53,14.16,8.72,14.15,8.71,-8.71,-8.88,-7.62,5.45,5.44,5.45
168.19,14.11,8.70,14.09,8.68,-8.68,-8.85,-7.55,5.43,5.41,5.41
169.87,14.01,8.64,14.02,8.66,-8.66,-8.81,-7.50,5.35,5.37,5.37
171.57,13.94,8.61,13.95,8.63,-8.63,-8.77,-7.45,5.31,5.33,5.33
173.29,13.88,8.60,13.88,8.60,-8.60,-8.72,-7.40,5.28,5.28,5.28
175.02,13.79,8.54,13.81,8.57,-8.57,-8.67,-7.36,5.22,5.24,5.25
176.77,13.74,8.55,13.73,8.53,-8.53,-8.61,-7.32,5.21,5.19,5.19
178.54,13.66,8.52,13.65,8.50,-8.50,-8.55,-7.29,5.16,5.15,5.15
180.32,13.58,8.48,13.56,8.46,-8.46,-8.49,-7.27,5.12,5.10,5.10
182.13,13.50,8.45,13.47,8.42,-8.42,-8.43,-7.25,5.08,5.05,5.06
183.95,13.37,8.37,13.38,8.38,-8.38,-8.36,-7.23,4.99,5.00,5.00
185.79,13.28,8.32,13.29,8.34,-8.34,-8.29,-7.22,4.95,4.95,4.96
187.65,13.19,8.30,13.20,8.29,-8.29,-8.22,-7.22,4.90,4.91,4.90
189.52,13.09,8.24,13.10,8.24,-8.24,-8.16,-7.22,4.85,4.86,4.85
191.42,12.99,8.18,13.01,8.20,-8.20,-8.09,-7.22,4.80,4.81,4.81
193.33,12.89,8.12,12.91,8.14,-8.14,-8.02,-7.23,4.75,4.76,4.77
195.27,12.81,8.09,12.81,8.09,-8.09,-7.95,-7.25,4.72,4.72,4.73
197.22,12.72,8.05,12.71,8.04,-8.04,-7.88,-7.27,4.69,4.68,4.67
199.19,12.62,8.00,12.61,7.98,-7.98,-7.81,-7.29,4.64,4.63,4.62
201.18,12.52,7.94,12.51,7.93,-7.93,-7.74,-7.31,4.60,4.59,4.58
203.19,12.42,7.87,12.42,7.87,-7.87,-7.67,-7.34,4.55,4.55,4.55
205.23,12.32,7.82,12.32,7.82,-7.82,-7.61,-7.37,4.51,4.51,4.50
207.28,12.22,7.74,12.22,7.76,-7.76,-7.54,-7.41,4.47,4.47,4.48
209.35,12.13,7.70,12.13,7.69,-7.69,-7.47,-7.44,4.44,4.43,4.43
211.44,12.03,7.65,12.03,7.63,-7.63,-7.41,-7.48,4.40,4.40,4.39
213.56,11.93,7.57,11.93,7.57,-7.57,-7.34,-7.51,4.36,4.36,4.36
215.69,11.83,7.49,11.83,7.50,-7.50,-7.28,-7.55,4.33,4.33,4.34
217.85,11.72,7.42,11.74,7.44,-7.44,-7.21,-7.59,4.28,4.30,4.30
220.03,11.65,7.39,11.64,7.37,-7.37,-7.15,-7.62,4.28,4.27,4.26
222.23,11.56,7.33,11.55,7.30,-7.30,-7.08,-7.65,4.26,4.24,4.24
224.45,11.46,7.24,11.46,7.24,-7.24,-7.01,-7.68,4.23,4.22,4.22
226.70,11.35,7.15,11.37,7.17,-7.17,-6.95,-7.70,4.18,4.20,4.20
228.96,11.25,7.08,11.28,7.10,-7.10,-6.88,-7.72,4.15,4.18,4.17
231.25,11.20,7.03,11.19,7.03,-7.03,-6.82,-7.73,4.17,4.16,4.17
233.57,11.11,6.96,11.11,6.96,-6.96,-6.75,-7.73,4.15,4.15,4.15
235.90,11.01,6.88,11.03,6.89,-6.89,-6.68,-7.73,4.12,4.14,4.14
238.26,10.96,6.83,10.96,6.82,-6.82,-6.62,-7.72,4.14,4.13,4.13
240.64,10.87,6.75,10.88,6.75,-6.75,-6.55,-7.70,4.12,4.13,4.13
243.05,10.81,6.68,10.81,6.68,-6.68,-6.48,-7.67,4.13,4.13,4.13
245.48,10.74,6.62,10.73,6.61,-6.61,-6.41,-7.63,4.13,4.13,4.12
247.93,10.65,6.52,10.66,6.53,-6.53,-6.34,-7.57,4.12,4.13,4.13
250.41,10.60,6.48,10.59,6.46,-6.46,-6.27,-7.51,4.14,4.13,4.12
252.92,10.52,6.38,10.53,6.39,-6.39,-6.20,-7.44,4.14,4.14,4.14
255.45,10.46,6.31,10.46,6.31,-6.31,-6.13,-7.35,4.15,4.15,4.16
258.00,10.40,6.24,10.39,6.23,-6.23,-6.05,-7.26,4.17,4.16,4.16
260.58,10.31,6.14,10.32,6.15,-6.15,-5.98,-7.15,4.16,4.17,4.17
263.19,10.24,6.06,10.25,6.06,-6.06,-5.90,-7.03,4.18,4.18,4.18
265.82,10.16,5.97,10.17,5.98,-5.98,-5.83,-6.91,4.19,4.20,4.19
268.48,10.10,5.89,10.10,5.89,-5.89,-5.75,-6.77,4.21,4.21,4.22
271.16,10.03,5.80,10.02,5.80,-5.80,-5.67,-6.63,4.24,4.23,4.23
273.87,9.93,5.69,9.94,5.70,-5.70,-5.59,-6.48,4.23,4.24,4.24
276.61,9.86,5.60,9.86,5.61,-5.61,-5.51,-6.32,4.26,4.26,4.27
279.38,9.79,5.52,9.78,5.51,-5.51,-5.43,-6.15,4.29,4.27,4.27
282.17,9.70,5.41,9.69,5.40,-5.40,-5.34,-5.98,4.30,4.29,4.29
284.99,9.61,5.30,9.60,5.29,-5.29,-5.26,-5.81,4.32,4.30,4.31
287.84,9.49,5.18,9.50,5.18,-5.18,-5.17,-5.63,4.31,4.32,4.31
290.72,9.40,5.07,9.40,5.07,-5.07,-5.08,-5.45,4.33,4.33,4.33
293.63,9.30,4.95,9.30,4.95,-4.95,-4.99,-5.26,4.35,4.35,4.35
296.57,9.20,4.84,9.19,4.83,-4.83,-4.90,-5.07,4.37,4.36,4.37
299.53,9.09,4.72,9.08,4.70,-4.70,-4.81,-4.88,4.39,4.38,4.37
302.53,8.97,4.59,8.97,4.57,-4.57,-4.72,-4.69,4.40,4.39,4.38
305.55,8.85,4.44,8.85,4.44,-4.44,-4.62,-4.50,4.41,4.40,4.41
308.61,8.72,4.30,8.73,4.31,-4.31,-4.52,-4.31,4.41,4.42,4.42
311.69,8.57,4.15,8.60,4.17,-4.17,-4.42,-4.12,4.40,4.43,4.43
314.81,8.48,4.03,8.47,4.04,-4.04,-4.32,-3.93,4.45,4.44,4.45
317.96,8.36,3.91,8.35,3.90,-3.90,-4.22,-3.74,4.46,4.45,4.45
321.14,8.23,3.77,8.22,3.76,-3.76,-4.11,-3.55,4.47,4.46,4.46
324.35,8.08,3.62,8.09,3.62,-3.62,-4.01,-3.36,4.46,4.47,4.46
327.59,7.94,3.47,7.96,3.48,-3.48,-3.90,-3.17,4.46,4.47,4.48
330.87,7.82,3.35,7.82,3.35,-3.35,-3.79,-2.99,4.47,4.48,4.47
334.18,7.68,3.21,7.69,3.21,-3.21,-3.68,-2.80,4.47,4.48,4.47
337.52,7.54,3.06,7.56,3.08,-3.08,-3.56,-2.62,4.46,4.48,4.48
340.90,7.42,2.93,7.43,2.95,-2.95,-3.45,-2.43,4.48,4.48,4.49
344.30,7.29,2.80,7.30,2.81,-2.81,-3.33,-2.25,4.48,4.49,4.49
347.75,7.17,2.68,7.16,2.68,-2.68,-3.21,-2.07,4.49,4.49,4.49
351.23,7.03,2.55,7.03,2.54,-2.54,-3.08,-1.89,4.49,4.48,4.49
354.74,6.90,2.42,6.89,2.41,-2.41,-2.96,-1.71,4.49,4.48,4.49
358.28,6.76,2.29,6.75,2.28,-2.28,-2.83,-1.54,4.49,4.48,4.47
361.87,6.63,2.16,6.62,2.14,-2.14,-2.70,-1.36,4.49,4.47,4.47
365.49,6.47,2.00,6.48,2.01,-2.01,-2.57,-1.18,4.46,4.47,4.47
369.14,6.34,1.88,6.34,1.88,-1.88,-2.43,-1.01,4.46,4.46,4.46
372.83,6.21,1.75,6.20,1.75,-1.75,-2.30,-0.84,4.47,4.46,4.46
376.56,6.04,1.59,6.06,1.61,-1.61,-2.16,-0.67,4.43,4.45,4.45
380.33,5.90,1.45,5.92,1.47,-1.47,-2.02,-0.50,4.43,4.44,4.45
384.13,5.76,1.32,5.77,1.33,-1.33,-1.87,-0.33,4.43,4.44,4.44
387.97,5.63,1.21,5.62,1.19,-1.19,-1.73,-0.16,4.44,4.43,4.43
391.85,5.48,1.07,5.47,1.05,-1.05,-1.58,0.01,4.43,4.42,4.42
395.77,5.34,0.92,5.32,0.91,-0.91,-1.43,0.17,4.44,4.42,4.42
399.73,5.19,0.78,5.17,0.76,-0.76,-1.27,0.34,4.43,4.41,4.41
403.72,5.02,0.62,5.02,0.61,-0.61,-1.12,0.50,4.41,4.41,4.40
407.76,4.86,0.47,4.86,0.46,-0.46,-0.96,0.66,4.40,4.40,4.39
411.84,4.71,0.31,4.71,0.31,-0.31,-0.80,0.82,4.40,4.40,4.40
415.96,4.55,0.16,4.55,0.16,-0.16,-0.63,0.98,4.39,4.39,4.39
420.12,4.38,-0.01,4.39,0.00,-0.00,-0.47,1.13,4.38,4.39,4.39
424.32,4.21,-0.18,4.23,-0.16,0.16,-0.30,1.28,4.37,4.39,4.39
428.56,4.07,-0.31,4.07,-0.32,0.32,-0.13,1.43,4.39,4.38,4.38
432.85,3.92,-0.46,3.91,-0.48,0.48,0.04,1.58,4.40,4.38,4.38
437.18,3.74,-0.64,3.75,-0.64,0.64,0.22,1.72,4.38,4.38,4.38
441.55,3.59,-0.80,3.59,-0.80,0.80,0.39,1.86,4.39,4.38,4.39
445.96,3.43,-0.96,3.43,-0.96,0.96,0.57,2.00,4.39,4.38,4.39
450.42,3.26,-1.12,3.27,-1.11,1.11,0.75,2.13,4.38,4.39,4.38
454.93,3.11,-1.27,3.12,-1.27,1.27,0.93,2.26,4.38,4.39,4.39
459.48,2.94,-1.44,2.96,-1.43,1.43,1.12,2.38,4.37,4.39,4.39
464.07,2.79,-1.60,2.81,-1.59,1.59,1.30,2.49,4.38,4.40,4.40
468.71,2.66,-1.74,2.66,-1.74,1.74,1.49,2.61,4.41,4.40,4.41
473.40,2.50,-1.90,2.51,-1.90,1.90,1.67,2.71,4.40,4.41,4.40
478.13,2.36,-2.05,2.35,-2.06,2.06,1.86,2.81,4.42,4.41,4.41
482.91,2.21,-2.20,2.20,-2.22,2.22,2.05,2.90,4.43,4.42,4.41
487.74,2.06,-2.36,2.05,-2.37,2.37,2.23,2.99,4.43,4.42,4.42
492.62,1.91,-2.52,1.90,-2.53,2.53,2.42,3.07,4.44,4.43,4.43
497.55,1.76,-2.67,1.75,-2.68,2.68,2.60,3.14,4.44,4.43,4.43
502.52,1.61,-2.83,1.60,-2.84,2.84,2.79,3.21,4.45,4.44,4.44
