frequency,raw,smoothed,error,error_smoothed,equalization,parametric_eq,fixed_band_eq,equalized_raw,equalized_smoothed,target
20.00,1.57,1.57,-4.30,-4.30,4.27,3.90,1.66,5.84,5.84,5.86
20.20,1.59,1.59,-4.28,-4.28,4.27,3.90,1.71,5.86,5.86,5.86
20.40,1.60,1.60,-4.26,-4.26,4.27,3.89,1.76,5.86,5.87,5.86
20.61,1.62,1.62,-4.24,-4.24,4.26,3.89,1.81,5.87,5.88,5.86
20.81,1.64,1.63,-4.22,-4.23,4.25,3.89,1.87,5.89,5.88,5.86
21.02,1.65,1.64,-4.21,-4.22,4.24,3.88,1.92,5.88,5.88,5.86
21.23,1.65,1.65,-4.21,-4.21,4.22,3.88,1.98,5.87,5.87,5.86
21.44,1.66,1.65,-4.20,-4.21,4.21,3.88,2.04,5.86,5.86,5.86
21.66,1.66,1.66,-4.20,-4.20,4.19,3.87,2.10,5.85,5.85,5.86
21.87,1.67,1.67,-4.19,-4.19,4.17,3.87,2.16,5.83,5.84,5.86
22.09,1.69,1.69,-4.17,-4.17,4.14,3.86,2.22,5.83,5.83,5.86
22.31,1.73,1.73,-4.13,-4.13,4.11,3.86,2.29,5.84,5.84,5.86
22.54,1.77,1.77,-4.09,-4.08,4.09,3.85,2.36,5.85,5.86,5.85
22.76,1.82,1.82,-4.04,-4.04,4.06,3.85,2.42,5.88,5.87,5.85
22.99,1.86,1.84,-4.00,-4.01,4.03,3.85,2.49,5.89,5.88,5.85
23.22,1.86,1.86,-3.99,-3.99,4.01,3.84,2.57,5.87,5.87,5.85
23.45,1.86,1.86,-3.99,-3.99,4.00,3.84,2.64,5.85,5.86,5.85
23.69,1.86,1.86,-3.99,-3.99,3.98,3.83,2.72,5.84,5.84,5.85
23.92,1.86,1.86,-3.99,-3.99,3.98,3.83,2.79,5.83,5.84,5.85
24.16,1.87,1.87,-3.98,-3.98,3.97,3.82,2.87,5.84,5.84,5.85
24.40,1.88,1.88,-3.97,-3.97,3.96,3.82,2.95,5.84,5.84,5.85
24.65,1.89,1.89,-3.96,-3.96,3.96,3.81,3.03,5.84,5.84,5.84
24.89,1.90,1.90,-3.95,-3.94,3.95,3.81,3.11,5.84,5.85,5.84
25.14,1.92,1.91,-3.92,-3.93,3.93,3.80,3.19,5.85,5.85,5.84
25.39,1.93,1.93,-3.91,-3.91,3.92,3.79,3.27,5.84,5.84,5.84
25.65,1.94,1.94,-3.90,-3.90,3.90,3.79,3.36,5.84,5.84,5.84
25.91,1.95,1.95,-3.89,-3.89,3.88,3.78,3.44,5.83,5.83,5.84
26.16,1.97,1.97,-3.87,-3.87,3.86,3.78,3.52,5.83,5.83,5.84
26.43,1.99,1.99,-3.85,-3.84,3.84,3.77,3.60,5.83,5.83,5.83
26.69,2.02,2.02,-3.82,-3.82,3.82,3.77,3.68,5.84,5.84,5.83
26.96,2.05,2.04,-3.78,-3.79,3.81,3.76,3.76,5.85,5.85,5.83
27.23,2.05,2.05,-3.78,-3.78,3.79,3.75,3.84,5.84,5.84,5.83
27.50,2.06,2.05,-3.77,-3.77,3.77,3.75,3.92,5.83,5.83,5.83
27.77,2.06,2.06,-3.77,-3.77,3.76,3.74,3.99,5.81,5.81,5.83
28.05,2.06,2.07,-3.77,-3.76,3.74,3.73,4.06,5.80,5.81,5.82
28.33,2.09,2.08,-3.73,-3.74,3.73,3.73,4.12,5.81,5.81,5.82
28.62,2.11,2.11,-3.71,-3.71,3.71,3.72,4.19,5.82,5.82,5.82
28.90,2.13,2.13,-3.69,-3.69,3.70,3.71,4.24,5.83,5.83,5.82
29.19,2.14,2.13,-3.68,-3.68,3.69,3.70,4.30,5.83,5.83,5.81
29.48,2.14,2.14,-3.68,-3.67,3.68,3.70,4.35,5.82,5.82,5.81
29.78,2.14,2.14,-3.67,-3.67,3.67,3.69,4.39,5.81,5.81,5.81
30.08,2.14,2.14,-3.67,-3.67,3.67,3.68,4.42,5.81,5.81,5.81
30.38,2.14,2.14,-3.67,-3.67,3.67,3.67,4.46,5.81,5.81,5.80
30.68,2.14,2.14,-3.66,-3.66,3.67,3.66,4.48,5.80,5.80,5.80
30.99,2.14,2.14,-3.66,-3.66,3.66,3.66,4.50,5.79,5.79,5.80
31.30,2.15,2.14,-3.65,-3.65,3.64,3.65,4.51,5.79,5.78,5.80
31.61,2.16,2.16,-3.64,-3.64,3.61,3.64,4.51,5.77,5.77,5.79
31.93,2.18,2.18,-3.61,-3.61,3.59,3.63,4.51,5.76,5.77,5.79
32.24,2.22,2.22,-3.57,-3.56,3.55,3.62,4.50,5.77,5.78,5.79
32.57,2.27,2.27,-3.52,-3.51,3.52,3.61,4.49,5.79,5.79,5.78
32.89,2.32,2.31,-3.46,-3.47,3.49,3.60,4.47,5.81,5.80,5.78
33.22,2.34,2.33,-3.44,-3.44,3.47,3.59,4.44,5.80,5.80,5.77
33.55,2.34,2.34,-3.43,-3.43,3.44,3.58,4.41,5.78,5.79,5.77
33.89,2.34,2.34,-3.43,-3.43,3.43,3.57,4.37,5.76,5.77,5.77
34.23,2.34,2.34,-3.43,-3.43,3.42,3.56,4.33,5.75,5.75,5.76
34.57,2.34,2.34,-3.42,-3.42,3.41,3.55,4.28,5.75,5.75,5.76
34.92,2.34,2.34,-3.42,-3.42,3.41,3.54,4.23,5.75,5.75,5.75
35.27,2.34,2.34,-3.41,-3.41,3.41,3.53,4.18,5.75,5.75,5.75
35.62,2.34,2.34,-3.41,-3.41,3.41,3.52,4.13,5.75,5.75,5.74
35.97,2.34,2.34,-3.40,-3.40,3.41,3.51,4.07,5.74,5.74,5.74
36.33,2.34,2.34,-3.40,-3.40,3.40,3.49,4.01,5.74,5.74,5.73
36.70,2.34,2.34,-3.39,-3.39,3.39,3.48,3.95,5.73,5.73,5.73
37.06,2.34,2.34,-3.39,-3.39,3.38,3.47,3.89,5.72,5.72,5.72
37.43,2.34,2.33,-3.38,-3.38,3.37,3.46,3.83,5.71,5.70,5.72
37.81,2.34,2.34,-3.37,-3.37,3.35,3.45,3.77,5.69,5.69,5.71
38.19,2.36,2.36,-3.35,-3.34,3.33,3.43,3.71,5.69,5.69,5.70
38.57,2.39,2.39,-3.31,-3.31,3.31,3.42,3.65,5.70,5.70,5.70
38.95,2.43,2.41,-3.26,-3.28,3.29,3.41,3.59,5.72,5.71,5.69
39.34,2.43,2.43,-3.26,-3.26,3.27,3.39,3.53,5.70,5.70,5.68
39.74,2.43,2.43,-3.25,-3.25,3.26,3.38,3.47,5.68,5.69,5.68
40.14,2.43,2.43,-3.24,-3.24,3.24,3.36,3.41,5.67,5.67,5.67
40.54,2.43,2.43,-3.23,-3.23,3.23,3.35,3.36,5.66,5.66,5.66
40.94,2.43,2.43,-3.23,-3.23,3.22,3.33,3.31,5.65,5.65,5.65
41.35,2.43,2.43,-3.22,-3.22,3.22,3.32,3.25,5.64,5.64,5.64
41.76,2.43,2.43,-3.21,-3.21,3.21,3.30,3.21,5.64,5.64,5.64
42.18,2.43,2.43,-3.20,-3.20,3.21,3.29,3.16,5.63,5.63,5.63
42.60,2.43,2.43,-3.19,-3.19,3.19,3.27,3.11,5.62,5.62,5.62
43.03,2.43,2.42,-3.18,-3.18,3.18,3.25,3.07,5.60,5.60,5.61
43.46,2.43,2.42,-3.17,-3.17,3.15,3.24,3.03,5.58,5.58,5.60
43.90,2.43,2.44,-3.16,-3.15,3.13,3.22,3.00,5.56,5.57,5.59
44.33,2.46,2.46,-3.12,-3.11,3.11,3.20,2.96,5.57,5.57,5.58
44.78,2.51,2.50,-3.06,-3.07,3.08,3.18,2.93,5.59,5.58,5.56
45.23,2.53,2.52,-3.03,-3.03,3.06,3.16,2.90,5.58,5.58,5.55
45.68,2.53,2.53,-3.01,-3.01,3.03,3.14,2.87,5.55,5.56,5.54
46.13,2.53,2.53,-3.00,-3.00,3.00,3.13,2.84,5.52,5.52,5.53
46.60,2.53,2.53,-2.99,-2.99,2.96,3.11,2.82,5.49,5.49,5.52
47.06,2.54,2.55,-2.97,-2.95,2.94,3.09,2.80,5.47,5.48,5.50
47.53,2.58,2.58,-2.91,-2.91,2.91,3.06,2.78,5.49,5.49,5.49
48.01,2.62,2.60,-2.86,-2.87,2.88,3.04,2.76,5.50,5.49,5.47
48.49,2.62,2.62,-2.84,-2.84,2.86,3.02,2.75,5.48,5.48,5.46
48.97,2.62,2.62,-2.83,-2.82,2.83,3.00,2.73,5.45,5.46,5.44
49.46,2.62,2.62,-2.81,-2.81,2.81,2.98,2.72,5.43,5.43,5.43
49.96,2.62,2.62,-2.80,-2.80,2.79,2.95,2.71,5.41,5.41,5.41
50.46,2.62,2.62,-2.78,-2.78,2.77,2.93,2.70,5.39,5.39,5.40
50.96,2.62,2.62,-2.76,-2.76,2.76,2.91,2.69,5.37,5.37,5.38
51.47,2.62,2.62,-2.74,-2.74,2.74,2.88,2.69,5.36,5.36,5.36
51.99,2.62,2.62,-2.72,-2.72,2.72,2.86,2.68,5.34,5.34,5.34
52.51,2.62,2.62,-2.70,-2.70,2.70,2.83,2.68,5.32,5.32,5.32
53.03,2.62,2.62,-2.68,-2.68,2.68,2.81,2.67,5.30,5.30,5.30
53.56,2.62,2.62,-2.66,-2.66,2.66,2.78,2.67,5.28,5.28,5.28
54.10,2.62,2.62,-2.64,-2.64,2.64,2.75,2.66,5.26,5.26,5.26
54.64,2.62,2.62,-2.62,-2.62,2.62,2.72,2.66,5.24,5.24,5.24
55.18,2.62,2.62,-2.60,-2.60,2.60,2.70,2.65,5.22,5.22,5.22
55.74,2.62,2.62,-2.57,-2.57,2.57,2.67,2.65,5.19,5.19,5.19
56.29,2.62,2.62,-2.55,-2.55,2.55,2.64,2.64,5.17,5.17,5.17
56.86,2.62,2.62,-2.53,-2.53,2.53,2.61,2.63,5.14,5.14,5.14
57.42,2.62,2.62,-2.50,-2.50,2.50,2.58,2.62,5.12,5.12,5.12
58.00,2.62,2.62,-2.47,-2.47,2.47,2.54,2.61,5.09,5.09,5.09
58.58,2.62,2.62,-2.45,-2.45,2.45,2.51,2.60,5.06,5.06,5.06
59.16,2.62,2.62,-2.42,-2.42,2.42,2.48,2.58,5.04,5.04,5.04
59.76,2.62,2.62,-2.39,-2.39,2.39,2.45,2.57,5.01,5.01,5.01
60.35,2.62,2.62,-2.36,-2.36,2.36,2.41,2.55,4.98,4.98,4.98
60.96,2.62,2.62,-2.33,-2.33,2.33,2.38,2.52,4.95,4.95,4.95
61.57,2.62,2.62,-2.30,-2.30,2.30,2.34,2.50,4.91,4.91,4.91
62.18,2.62,2.62,-2.27,-2.27,2.27,2.31,2.47,4.88,4.88,4.88
62.80,2.62,2.62,-2.23,-2.23,2.23,2.27,2.44,4.85,4.85,4.85
63.43,2.62,2.62,-2.20,-2.20,2.20,2.23,2.40,4.81,4.81,4.81
64.07,2.62,2.62,-2.16,-2.16,2.16,2.19,2.36,4.78,4.78,4.78
64.71,2.62,2.62,-2.13,-2.13,2.13,2.15,2.32,4.74,4.74,4.74
65.35,2.62,2.62,-2.09,-2.09,2.09,2.11,2.28,4.71,4.71,4.71
66.01,2.62,2.62,-2.05,-2.05,2.05,2.07,2.23,4.67,4.67,4.67
66.67,2.62,2.62,-2.01,-2.01,2.01,2.03,2.18,4.63,4.63,4.63
67.33,2.62,2.62,-1.97,-1.97,1.97,1.99,2.13,4.59,4.59,4.59
68.01,2.62,2.62,-1.93,-1.93,1.93,1.95,2.07,4.55,4.55,4.55
68.69,2.62,2.62,-1.89,-1.89,1.89,1.90,2.02,4.51,4.51,4.51
69.37,2.62,2.62,-1.85,-1.85,1.85,1.86,1.96,4.46,4.46,4.46
70.07,2.62,2.62,-1.80,-1.80,1.80,1.81,1.90,4.42,4.42,4.42
70.77,2.62,2.62,-1.76,-1.76,1.76,1.77,1.83,4.37,4.37,4.37
71.48,2.62,2.62,-1.71,-1.71,1.71,1.72,1.77,4.33,4.33,4.33
72.19,2.62,2.62,-1.66,-1.66,1.66,1.67,1.70,4.28,4.28,4.28
72.91,2.62,2.62,-1.62,-1.62,1.62,1.63,1.64,4.23,4.23,4.23
73.64,2.62,2.62,-1.57,-1.57,1.57,1.58,1.57,4.18,4.18,4.18
74.38,2.62,2.62,-1.52,-1.52,1.52,1.53,1.50,4.13,4.13,4.13
75.12,2.62,2.62,-1.46,-1.46,1.46,1.48,1.43,4.08,4.08,4.08
75.87,2.62,2.62,-1.41,-1.41,1.41,1.42,1.36,4.03,4.03,4.03
76.63,2.62,2.62,-1.36,-1.36,1.36,1.37,1.29,3.98,3.98,3.98
77.40,2.62,2.62,-1.30,-1.30,1.30,1.32,1.22,3.92,3.92,3.92
78.17,2.62,2.62,-1.25,-1.25,1.25,1.27,1.14,3.87,3.87,3.87
78.95,2.62,2.62,-1.19,-1.19,1.19,1.21,1.07,3.81,3.81,3.81
79.74,2.62,2.62,-1.14,-1.14,1.14,1.16,1.00,3.75,3.75,3.75
80.54,2.62,2.62,-1.08,-1.08,1.08,1.10,0.93,3.69,3.69,3.69
81.35,2.62,2.62,-1.02,-1.02,1.02,1.04,0.86,3.64,3.64,3.64
82.16,2.62,2.62,-0.96,-0.96,0.96,0.99,0.79,3.58,3.58,3.58
82.98,2.62,2.62,-0.90,-0.90,0.90,0.93,0.71,3.51,3.51,3.51
83.81,2.62,2.62,-0.84,-0.84,0.84,0.87,0.64,3.45,3.45,3.45
84.65,2.62,2.62,-0.77,-0.77,0.77,0.81,0.57,3.39,3.39,3.39
85.50,2.62,2.62,-0.71,-0.71,0.71,0.75,0.50,3.32,3.32,3.33
86.35,2.62,2.62,-0.64,-0.64,0.64,0.69,0.43,3.26,3.26,3.26
87.22,2.62,2.62,-0.58,-0.58,0.58,0.63,0.36,3.19,3.20,3.20
88.09,2.63,2.62,-0.50,-0.51,0.51,0.57,0.29,3.13,3.13,3.13
88.97,2.63,2.63,-0.44,-0.44,0.44,0.50,0.22,3.07,3.07,3.06
89.86,2.63,2.63,-0.37,-0.37,0.37,0.44,0.15,3.00,3.00,3.00
90.76,2.63,2.63,-0.30,-0.30,0.30,0.38,0.08,2.93,2.93,2.93
91.66,2.63,2.63,-0.23,-0.23,0.23,0.31,0.01,2.86,2.86,2.86
92.58,2.63,2.63,-0.16,-0.16,0.16,0.25,-0.06,2.79,2.79,2.79
93.51,2.63,2.63,-0.09,-0.09,0.09,0.19,-0.13,2.72,2.72,2.72
94.44,2.63,2.63,-0.02,-0.02,0.02,0.12,-0.20,2.65,2.65,2.65
95.39,2.63,2.63,0.05,0.05,-0.05,0.05,-0.27,2.58,2.58,2.58
96.34,2.63,2.62,0.12,0.12,-0.11,-0.01,-0.34,2.52,2.51,2.51
97.30,2.62,2.62,0.18,0.18,-0.18,-0.08,-0.41,2.44,2.44,2.44
98.28,2.61,2.61,0.24,0.24,-0.24,-0.14,-0.47,2.37,2.37,2.37
99.26,2.60,2.59,0.30,0.30,-0.30,-0.21,-0.54,2.30,2.29,2.29
100.25,2.58,2.58,0.36,0.36,-0.36,-0.28,-0.61,2.22,2.22,2.22
101.25,2.56,2.56,0.41,0.41,-0.42,-0.34,-0.68,2.14,2.14,2.15
102.27,2.55,2.55,0.47,0.47,-0.48,-0.41,-0.74,2.07,2.07,2.07
103.29,2.54,2.53,0.53,0.53,-0.53,-0.48,-0.81,2.00,2.00,2.00
104.32,2.52,2.52,0.59,0.59,-0.58,-0.54,-0.87,1.93,1.93,1.93
105.37,2.49,2.49,0.63,0.63,-0.63,-0.61,-0.94,1.86,1.86,1.86
106.42,2.47,2.47,0.68,0.69,-0.67,-0.68,-1.00,1.80,1.80,1.78
107.48,2.44,2.44,0.73,0.73,-0.71,-0.74,-1.07,1.73,1.73,1.71
108.56,2.42,2.39,0.78,0.75,-0.74,-0.81,-1.13,1.68,1.65,1.64
109.64,2.33,2.33,0.76,0.77,-0.78,-0.88,-1.19,1.55,1.56,1.56
110.74,2.27,2.29,0.78,0.80,-0.82,-0.94,-1.25,1.45,1.47,1.49
111.85,2.26,2.25,0.84,0.83,-0.86,-1.01,-1.30,1.39,1.39,1.42
112.97,2.26,2.25,0.91,0.90,-0.91,-1.08,-1.36,1.34,1.33,1.35
114.10,2.25,2.25,0.97,0.97,-0.97,-1.14,-1.41,1.28,1.28,1.28
115.24,2.25,2.25,1.04,1.04,-1.04,-1.21,-1.47,1.21,1.21,1.20
116.39,2.25,2.25,1.11,1.11,-1.11,-1.27,-1.52,1.14,1.14,1.13
117.55,2.26,2.25,1.19,1.19,-1.19,-1.33,-1.56,1.07,1.07,1.06
118.73,2.26,2.26,1.26,1.27,-1.26,-1.40,-1.61,0.99,1.00,0.99
119.92,2.27,2.26,1.34,1.34,-1.34,-1.46,-1.65,0.93,0.92,0.92
121.12,2.27,2.27,1.41,1.41,-1.42,-1.52,-1.70,0.85,0.85,0.86
122.33,2.28,2.28,1.49,1.49,-1.50,-1.59,-1.73,0.78,0.78,0.79
123.55,2.29,2.29,1.57,1.57,-1.57,-1.65,-1.77,0.71,0.71,0.72
124.79,2.30,2.29,1.64,1.64,-1.65,-1.71,-1.80,0.65,0.64,0.65
126.03,2.30,2.30,1.71,1.71,-1.72,-1.77,-1.84,0.58,0.58,0.59
127.29,2.31,2.32,1.79,1.80,-1.78,-1.83,-1.87,0.53,0.54,0.52
128.57,2.33,2.32,1.87,1.87,-1.84,-1.88,-1.89,0.49,0.48,0.46
129.85,2.34,2.31,1.94,1.92,-1.90,-1.94,-1.92,0.44,0.41,0.39
131.15,2.27,2.28,1.94,1.95,-1.95,-2.00,-1.94,0.31,0.33,0.33
132.46,2.25,2.25,1.98,1.99,-2.01,-2.05,-1.96,0.24,0.25,0.27
133.79,2.24,2.24,2.03,2.03,-2.06,-2.11,-1.98,0.18,0.18,0.21
135.12,2.25,2.24,2.10,2.10,-2.11,-2.16,-1.99,0.13,0.13,0.15
136.48,2.25,2.25,2.16,2.16,-2.17,-2.22,-2.01,0.08,0.08,0.09
137.84,2.25,2.25,2.22,2.22,-2.22,-2.27,-2.02,0.03,0.03,0.03
139.22,2.25,2.25,2.28,2.28,-2.26,-2.32,-2.04,-0.02,-0.01,-0.03
140.61,2.25,2.25,2.33,2.34,-2.31,-2.37,-2.05,-0.06,-0.06,-0.09
142.02,2.26,2.23,2.40,2.37,-2.35,-2.42,-2.06,-0.10,-0.12,-0.14
143.44,2.20,2.20,2.39,2.39,-2.39,-2.47,-2.07,-0.20,-0.20,-0.20
144.87,2.14,2.16,2.39,2.41,-2.43,-2.51,-2.08,-0.30,-0.27,-0.25
146.32,2.15,2.14,2.45,2.44,-2.47,-2.56,-2.09,-0.32,-0.33,-0.30
147.78,2.16,2.15,2.50,2.50,-2.51,-2.60,-2.10,-0.35,-0.36,-0.34
149.26,2.16,2.16,2.55,2.55,-2.55,-2.65,-2.11,-0.39,-0.39,-0.40
150.75,2.16,2.16,2.60,2.60,-2.60,-2.69,-2.12,-0.44,-0.44,-0.45
152.26,2.16,2.16,2.65,2.65,-2.65,-2.73,-2.13,-0.49,-0.49,-0.49
153.78,2.16,2.16,2.70,2.70,-2.70,-2.77,-2.15,-0.54,-0.54,-0.54
155.32,2.16,2.16,2.74,2.74,-2.75,-2.81,-2.16,-0.59,-0.60,-0.59
156.88,2.16,2.16,2.79,2.79,-2.79,-2.85,-2.18,-0.64,-0.63,-0.63
158.44,2.16,2.17,2.83,2.85,-2.83,-2.89,-2.19,-0.67,-0.66,-0.68
160.03,2.18,2.16,2.90,2.89,-2.87,-2.92,-2.21,-0.69,-0.70,-0.72
161.63,2.16,2.14,2.93,2.91,-2.90,-2.96,-2.23,-0.74,-0.76,-0.77
163.24,2.10,2.11,2.91,2.92,-2.92,-2.99,-2.25,-0.83,-0.82,-0.81
164.88,2.06,2.07,2.91,2.92,-2.94,-3.02,-2.27,-0.89,-0.88,-0.85
166.53,2.05,2.05,2.94,2.94,-2.96,-3.05,-2.29,-0.91,-0.91,-0.89
168.19,2.05,2.05,2.98,2.98,-2.97,-3.08,-2.32,-0.92,-0.92,-0.93
169.87,2.04,2.03,3.01,3.00,-2.98,-3.11,-2.34,-0.94,-0.94,-0.97
171.57,2.02,2.00,3.02,3.00,-2.99,-3.14,-2.37,-0.97,-0.99,-1.01
173.29,1.95,1.96,2.99,3.00,-3.00,-3.16,-2.40,-1.06,-1.04,-1.04
175.02,1.91,1.92,2.98,3.00,-3.02,-3.19,-2.44,-1.11,-1.10,-1.08
176.77,1.92,1.91,3.03,3.02,-3.04,-3.21,-2.47,-1.13,-1.13,-1.11
178.54,1.92,1.91,3.06,3.06,-3.07,-3.23,-2.51,-1.15,-1.15,-1.14
180.32,1.93,1.92,3.10,3.10,-3.10,-3.26,-2.55,-1.18,-1.18,-1.17
182.13,1.93,1.93,3.13,3.13,-3.14,-3.28,-2.59,-1.21,-1.21,-1.20
183.95,1.94,1.94,3.17,3.17,-3.18,-3.30,-2.63,-1.24,-1.24,-1.23
185.79,1.95,1.95,3.21,3.22,-3.21,-3.31,-2.67,-1.27,-1.26,-1.26
187.65,1.97,1.97,3.26,3.26,-3.24,-3.33,-2.72,-1.27,-1.27,-1.29
189.52,2.00,1.98,3.32,3.30,-3.26,-3.34,-2.77,-1.26,-1.28,-1.32
191.42,1.96,1.96,3.30,3.31,-3.27,-3.36,-2.82,-1.32,-1.31,-1.35
193.33,1.93,1.92,3.30,3.29,-3.29,-3.37,-2.87,-1.36,-1.37,-1.37
195.27,1.86,1.87,3.25,3.26,-3.30,-3.38,-2.92,-1.44,-1.43,-1.40
197.22,1.83,1.85,3.25,3.27,-3.30,-3.40,-2.98,-1.48,-1.46,-1.42
199.19,1.85,1.84,3.29,3.29,-3.31,-3.41,-3.03,-1.47,-1.47,-1.45
201.18,1.87,1.86,3.34,3.32,-3.33,-3.41,-3.09,-1.46,-1.47,-1.47
203.19,1.87,1.87,3.36,3.36,-3.35,-3.42,-3.14,-1.48,-1.48,-1.49
205.23,1.87,1.87,3.38,3.38,-3.37,-3.43,-3.20,-1.51,-1.51,-1.51
207.28,1.87,1.87,3.40,3.40,-3.41,-3.43,-3.26,-1.54,-1.54,-1.53
209.35,1.87,1.87,3.42,3.42,-3.43,-3.44,-3.32,-1.56,-1.56,-1.55
211.44,1.87,1.86,3.44,3.44,-3.44,-3.44,-3.37,-1.57,-1.58,-1.57
213.56,1.87,1.88,3.46,3.47,-3.44,-3.44,-3.43,-1.57,-1.56,-1.59
215.69,1.86,1.87,3.47,3.48,-3.43,-3.44,-3.49,-1.57,-1.56,-1.61
217.85,1.88,1.83,3.50,3.45,-3.42,-3.44,-3.54,-1.54,-1.59,-1.63
220.03,1.76,1.76,3.40,3.40,-3.40,-3.44,-3.60,-1.64,-1.64,-1.64
222.23,1.66,1.69,3.32,3.36,-3.39,-3.44,-3.65,-1.73,-1.69,-1.66
224.45,1.65,1.65,3.32,3.32,-3.38,-3.44,-3.70,-1.73,-1.73,-1.68
226.70,1.66,1.64,3.35,3.34,-3.38,-3.43,-3.74,-1.72,-1.73,-1.69
228.96,1.66,1.66,3.36,3.36,-3.38,-3.43,-3.79,-1.72,-1.72,-1.71
231.25,1.67,1.67,3.39,3.39,-3.38,-3.42,-3.83,-1.71,-1.71,-1.72
233.57,1.68,1.68,3.41,3.42,-3.39,-3.42,-3.87,-1.71,-1.71,-1.74
235.90,1.69,1.69,3.45,3.44,-3.40,-3.41,-3.90,-1.72,-1.72,-1.76
238.26,1.69,1.67,3.46,3.45,-3.42,-3.40,-3.93,-1.73,-1.74,-1.77
240.64,1.65,1.65,3.43,3.43,-3.43,-3.39,-3.95,-1.78,-1.78,-1.78
243.05,1.61,1.61,3.40,3.41,-3.44,-3.38,-3.97,-1.83,-1.82,-1.80
245.48,1.59,1.60,3.40,3.40,-3.44,-3.37,-3.98,-1.85,-1.84,-1.81
247.93,1.60,1.60,3.42,3.42,-3.44,-3.36,-3.99,-1.84,-1.84,-1.82
250.41,1.62,1.62,3.45,3.45,-3.44,-3.35,-3.99,-1.82,-1.82,-1.83
252.92,1.63,1.63,3.47,3.47,-3.44,-3.34,-3.98,-1.81,-1.81,-1.84
255.45,1.64,1.62,3.48,3.46,-3.44,-3.32,-3.97,-1.81,-1.83,-1.84
258.00,1.60,1.58,3.45,3.44,-3.45,-3.31,-3.96,-1.85,-1.86,-1.85
260.58,1.53,1.57,3.39,3.43,-3.45,-3.29,-3.94,-1.92,-1.88,-1.86
263.19,1.56,1.56,3.43,3.43,-3.44,-3.28,-3.92,-1.88,-1.88,-1.87
265.82,1.60,1.55,3.48,3.43,-3.42,-3.26,-3.89,-1.83,-1.87,-1.88
268.48,1.54,1.54,3.42,3.43,-3.40,-3.25,-3.85,-1.86,-1.86,-1.89
271.16,1.48,1.50,3.37,3.40,-3.38,-3.23,-3.82,-1.90,-1.87,-1.90
273.87,1.46,1.46,3.36,3.36,-3.36,-3.21,-3.78,-1.90,-1.90,-1.90
276.61,1.45,1.42,3.36,3.33,-3.34,-3.19,-3.73,-1.90,-1.93,-1.91
279.38,1.38,1.39,3.30,3.30,-3.33,-3.17,-3.68,-1.96,-1.95,-1.92
282.17,1.34,1.36,3.26,3.28,-3.32,-3.15,-3.63,-1.99,-1.97,-1.93
284.99,1.36,1.35,3.28,3.27,-3.31,-3.13,-3.58,-1.95,-1.96,-1.92
287.84,1.37,1.39,3.29,3.31,-3.29,-3.11,-3.53,-1.92,-1.90,-1.92
290.72,1.42,1.41,3.34,3.34,-3.27,-3.09,-3.47,-1.85,-1.86,-1.93
293.63,1.44,1.39,3.37,3.31,-3.26,-3.07,-3.41,-1.82,-1.87,-1.93
296.57,1.33,1.33,3.25,3.26,-3.24,-3.05,-3.35,-1.92,-1.92,-1.93
299.53,1.22,1.26,3.14,3.18,-3.23,-3.02,-3.30,-2.02,-1.98,-1.92
302.53,1.21,1.22,3.14,3.14,-3.21,-3.00,-3.24,-2.01,-2.00,-1.93
305.55,1.24,1.23,3.16,3.15,-3.19,-2.98,-3.18,-1.95,-1.96,-1.92
308.61,1.26,1.25,3.19,3.18,-3.16,-2.95,-3.12,-1.90,-1.90,-1.93
311.69,1.27,1.26,3.19,3.18,-3.13,-2.93,-3.06,-1.86,-1.87,-1.92
314.81,1.23,1.22,3.16,3.15,-3.11,-2.91,-3.01,-1.88,-1.88,-1.93
317.96,1.18,1.17,3.10,3.10,-3.09,-2.88,-2.95,-1.91,-1.92,-1.92
321.14,1.10,1.12,3.03,3.04,-3.07,-2.86,-2.90,-1.97,-1.96,-1.93
324.35,1.08,1.08,3.00,3.00,-3.05,-2.83,-2.85,-1.97,-1.96,-1.92
327.59,1.08,1.08,2.98,2.99,-3.02,-2.81,-2.79,-1.94,-1.94,-1.91
330.87,1.08,1.07,2.99,2.98,-2.98,-2.78,-2.74,-1.90,-1.90,-1.91
334.18,1.08,1.06,2.98,2.97,-2.94,-2.75,-2.70,-1.86,-1.88,-1.90
337.52,1.02,1.03,2.92,2.93,-2.90,-2.73,-2.65,-1.88,-1.87,-1.91
340.90,0.99,0.99,2.89,2.89,-2.86,-2.70,-2.61,-1.87,-1.87,-1.90
344.30,0.94,0.94,2.83,2.83,-2.82,-2.68,-2.56,-1.89,-1.89,-1.90
347.75,0.90,0.88,2.79,2.77,-2.79,-2.65,-2.52,-1.89,-1.91,-1.89
351.23,0.81,0.82,2.70,2.70,-2.75,-2.62,-2.48,-1.94,-1.93,-1.89
354.74,0.76,0.78,2.63,2.66,-2.71,-2.59,-2.45,-1.95,-1.93,-1.87
358.28,0.78,0.78,2.65,2.65,-2.67,-2.57,-2.41,-1.89,-1.89,-1.88
361.87,0.80,0.80,2.67,2.67,-2.63,-2.54,-2.38,-1.84,-1.83,-1.87
365.49,0.83,0.79,2.69,2.65,-2.60,-2.51,-2.35,-1.77,-1.82,-1.86
369.14,0.75,0.73,2.61,2.59,-2.57,-2.49,-2.32,-1.82,-1.84,-1.87
372.83,0.63,0.67,2.48,2.53,-2.54,-2.46,-2.29,-1.91,-1.87,-1.85
376.56,0.63,0.64,2.48,2.49,-2.52,-2.43,-2.26,-1.89,-1.88,-1.85
380.33,0.64,0.62,2.48,2.47,-2.49,-2.40,-2.24,-1.85,-1.87,-1.84
384.13,0.65,0.60,2.49,2.44,-2.46,-2.37,-2.22,-1.81,-1.86,-1.85
387.97,0.56,0.57,2.38,2.40,-2.42,-2.35,-2.20,-1.86,-1.85,-1.83
391.85,0.52,0.58,2.33,2.40,-2.38,-2.32,-2.18,-1.87,-1.80,-1.81
395.77,0.60,0.58,2.41,2.39,-2.35,-2.29,-2.16,-1.75,-1.76,-1.81
399.73,0.64,0.55,2.44,2.35,-2.31,-2.26,-2.14,-1.67,-1.75,-1.80
403.72,0.47,0.48,2.26,2.28,-2.26,-2.24,-2.13,-1.79,-1.78,-1.80
407.76,0.32,0.39,2.11,2.18,-2.20,-2.21,-2.12,-1.89,-1.82,-1.80
411.84,0.32,0.32,2.11,2.11,-2.15,-2.18,-2.10,-1.83,-1.83,-1.79
415.96,0.35,0.31,2.13,2.09,-2.10,-2.15,-2.09,-1.75,-1.80,-1.78
420.12,0.29,0.29,2.07,2.07,-2.06,-2.12,-2.08,-1.77,-1.77,-1.78
424.32,0.25,0.24,2.02,2.02,-2.02,-2.10,-2.07,-1.78,-1.78,-1.77
428.56,0.20,0.21,1.96,1.98,-2.00,-2.07,-2.06,-1.80,-1.79,-1.77
432.85,0.20,0.23,1.95,1.98,-1.99,-2.04,-2.05,-1.79,-1.76,-1.76
437.18,0.27,0.25,2.02,2.00,-1.99,-2.01,-2.04,-1.72,-1.74,-1.75
441.55,0.32,0.27,2.06,2.01,-2.00,-1.99,-2.03,-1.68,-1.73,-1.74
445.96,0.26,0.28,1.99,2.01,-2.02,-1.96,-2.03,-1.76,-1.74,-1.73
450.42,0.27,0.28,1.98,2.00,-2.04,-1.93,-2.02,-1.77,-1.75,-1.71
454.93,0.32,0.32,2.02,2.03,-2.06,-1.90,-2.01,-1.74,-1.74,-1.70
459.48,0.39,0.41,2.08,2.10,-2.08,-1.88,-2.00,-1.69,-1.67,-1.69
464.07,0.49,0.45,2.18,2.15,-2.09,-1.85,-1.99,-1.60,-1.64,-1.70
468.71,0.50,0.45,2.18,2.14,-2.10,-1.82,-1.98,-1.60,-1.65,-1.69
473.40,0.38,0.43,2.06,2.10,-2.11,-1.80,-1.97,-1.73,-1.68,-1.68
478.13,0.38,0.42,2.05,2.08,-2.11,-1.77,-1.95,-1.74,-1.70,-1.67
482.91,0.46,0.44,2.11,2.09,-2.12,-1.74,-1.94,-1.66,-1.68,-1.65
487.74,0.51,0.47,2.15,2.11,-2.11,-1.72,-1.92,-1.61,-1.65,-1.64
492.62,0.48,0.47,2.11,2.10,-2.10,-1.69,-1.91,-1.62,-1.63,-1.63
497.55,0.42,0.46,2.04,2.08,-2.09,-1.66,-1.89,-1.67,-1.63,-1.62
502.52,0.47,0.48,2.08,2.09,-2.08,-1.64,-1.87,-1.61,-1.60,-1.61
507.55,0.52,0.50,2.11,2.10,-2.07,-1.61,-1.85,-1.56,-1.58,-1.59
512.62,0.54,0.48,2.12,2.07,-2.06,-1.58,-1.83,-1.52,-1.58,-1.59
517.75,0.40,0.42,1.97,2.00,-2.03,-1.56,-1.80,-1.63,-1.61,-1.58
522.93,0.35,0.40,1.90,1.96,-1.99,-1.53,-1.78,-1.64,-1.59,-1.56
