frequency,raw,error,smoothed,error_smoothed,equalization,parametric_eq,equalized_raw,equalized_smoothed,target
20,-13.63,-15.27,-13.59,-15.23,6.00,3.72,-7.63,-7.59,1.64
21,-13.11,-14.75,-13.14,-14.78,6.00,4.00,-7.11,-7.14,1.64
22,-12.72,-14.35,-12.71,-14.34,6.00,4.27,-6.72,-6.71,1.64
23,-12.22,-13.85,-12.29,-13.92,6.00,4.54,-6.22,-6.29,1.63
24,-11.90,-13.53,-11.89,-13.52,6.00,4.80,-5.90,-5.89,1.63
25,-11.50,-13.13,-11.52,-13.14,6.00,5.05,-5.50,-5.52,1.63
26,-11.14,-12.76,-11.16,-12.78,6.00,5.28,-5.14,-5.16,1.62
27,-10.84,-12.46,-10.82,-12.44,6.00,5.50,-4.84,-4.82,1.62
28,-10.55,-12.17,-10.49,-12.10,6.00,5.69,-4.55,-4.49,1.62
29,-10.19,-11.80,-10.17,-11.79,6.00,5.86,-4.19,-4.17,1.61
30,-9.83,-11.44,-9.87,-11.48,6.00,6.01,-3.83,-3.87,1.61
31,-9.59,-11.19,-9.59,-11.19,6.00,6.12,-3.59,-3.59,1.60
32,-9.31,-10.91,-9.31,-10.91,6.00,6.20,-3.31,-3.31,1.60
33,-9.09,-10.68,-9.06,-10.65,6.00,6.24,-3.09,-3.06,1.59
34,-8.78,-10.36,-8.81,-10.39,6.00,6.24,-2.78,-2.81,1.58
35,-8.51,-10.08,-8.58,-10.15,6.00,6.20,-2.51,-2.58,1.58
36,-8.37,-9.94,-8.36,-9.93,6.00,6.13,-2.37,-2.36,1.57
37,-8.21,-9.77,-8.15,-9.71,6.00,6.02,-2.21,-2.15,1.56
38,-7.93,-9.48,-7.94,-9.49,6.00,5.90,-1.93,-1.94,1.55
39,-7.78,-9.32,-7.75,-9.29,6.00,5.80,-1.78,-1.75,1.54
40,-7.55,-9.08,-7.55,-9.08,6.00,5.72,-1.55,-1.55,1.53
41,-7.37,-8.89,-7.37,-8.89,6.00,5.70,-1.37,-1.37,1.52
42,-7.19,-8.69,-7.19,-8.69,6.00,5.73,-1.19,-1.19,1.51
43,-6.97,-8.46,-7.01,-8.50,6.00,5.80,-0.97,-1.01,1.49
44,-6.82,-8.30,-6.84,-8.32,6.00,5.88,-0.82,-0.84,1.48
45,-6.73,-8.19,-6.67,-8.14,6.00,5.97,-0.73,-0.67,1.46
46,-6.52,-7.97,-6.51,-7.96,6.00,6.04,-0.52,-0.51,1.45
47,-6.31,-7.74,-6.36,-7.79,6.00,6.09,-0.31,-0.36,1.43
48,-6.27,-7.68,-6.21,-7.63,6.00,6.13,-0.27,-0.21,1.42
49,-6.07,-7.47,-6.07,-7.47,6.00,6.15,-0.07,-0.07,1.40
50,-5.87,-7.25,-5.94,-7.32,6.00,6.15,0.13,0.06,1.38
51,-5.86,-7.22,-5.81,-7.17,6.00,6.14,0.14,0.19,1.36
52,-5.66,-7.00,-5.69,-7.03,6.00,6.12,0.34,0.31,1.34
53,-5.60,-6.92,-5.57,-6.89,6.00,6.09,0.40,0.43,1.32
54,-5.46,-6.75,-5.46,-6.76,6.00,6.06,0.54,0.54,1.29
55,-5.36,-6.63,-5.36,-6.63,6.00,6.02,0.64,0.64,1.27
56,-5.26,-6.50,-5.25,-6.50,6.00,5.97,0.74,0.75,1.25
57,-5.16,-6.38,-5.16,-6.38,6.00,5.92,0.84,0.84,1.22
58,-5.06,-6.25,-5.07,-6.26,6.00,5.88,0.94,0.93,1.19
59,-5.00,-6.17,-4.98,-6.15,5.98,5.83,0.98,1.00,1.17
60,-4.86,-6.00,-4.90,-6.04,5.94,5.78,1.08,1.04,1.14
61,-4.86,-5.97,-4.83,-5.94,5.88,5.73,1.02,1.06,1.11
62,-4.76,-5.84,-4.76,-5.84,5.81,5.68,1.05,1.05,1.08
63,-4.66,-5.71,-4.70,-5.75,5.74,5.63,1.08,1.04,1.05
64,-4.66,-5.68,-4.64,-5.66,5.66,5.58,1.00,1.02,1.02
65,-4.66,-5.65,-4.59,-5.57,5.57,5.53,0.91,0.99,0.99
66,-4.46,-5.41,-4.54,-5.49,5.49,5.48,1.03,0.95,0.95
67,-4.46,-5.38,-4.49,-5.41,5.41,5.43,0.95,0.92,0.92
68,-4.46,-5.34,-4.45,-5.33,5.33,5.38,0.87,0.88,0.88
69,-4.46,-5.31,-4.41,-5.26,5.26,5.33,0.80,0.85,0.85
70,-4.36,-5.17,-4.37,-5.18,5.18,5.29,0.82,0.81,0.81
71,-4.36,-5.14,-4.33,-5.10,5.10,5.23,0.75,0.78,0.78
72,-4.28,-5.02,-4.29,-5.03,5.03,5.18,0.75,0.74,0.74
73,-4.26,-4.96,-4.26,-4.96,4.96,5.13,0.70,0.70,0.70
74,-4.26,-4.92,-4.23,-4.90,4.90,5.08,0.64,0.66,0.66
75,-4.20,-4.82,-4.22,-4.84,4.84,5.02,0.64,0.62,0.62
76,-4.15,-4.73,-4.21,-4.79,4.79,4.96,0.64,0.59,0.59
77,-4.15,-4.69,-4.21,-4.75,4.75,4.90,0.60,0.55,0.55
78,-4.21,-4.71,-4.21,-4.72,4.72,4.84,0.51,0.51,0.51
79,-4.26,-4.72,-4.23,-4.69,4.69,4.78,0.43,0.47,0.47
80,-4.26,-4.68,-4.24,-4.66,4.66,4.71,0.40,0.42,0.42
81,-4.26,-4.64,-4.24,-4.63,4.63,4.64,0.37,0.38,0.38
82,-4.26,-4.60,-4.24,-4.59,4.59,4.57,0.33,0.34,0.34
83,-4.26,-4.56,-4.24,-4.54,4.54,4.50,0.28,0.30,0.30
84,-4.24,-4.50,-4.22,-4.48,4.48,4.42,0.24,0.26,0.26
85,-4.16,-4.38,-4.19,-4.41,4.41,4.34,0.25,0.22,0.22
86,-4.15,-4.33,-4.15,-4.33,4.33,4.26,0.18,0.18,0.18
87,-4.15,-4.28,-4.11,-4.25,4.25,4.18,0.10,0.14,0.14
88,-4.05,-4.14,-4.07,-4.16,4.16,4.10,0.11,0.09,0.09
89,-3.99,-4.04,-4.02,-4.07,4.07,4.02,0.08,0.05,0.05
90,-3.95,-3.96,-3.97,-3.98,3.98,3.93,0.03,0.01,0.01
91,-3.95,-3.92,-3.92,-3.89,3.89,3.85,-0.06,-0.03,-0.03
92,-3.86,-3.79,-3.88,-3.80,3.80,3.76,-0.06,-0.07,-0.07
93,-3.85,-3.74,-3.83,-3.71,3.71,3.68,-0.14,-0.11,-0.11
94,-3.85,-3.69,-3.78,-3.62,3.62,3.59,-0.23,-0.15,-0.15
95,-3.66,-3.46,-3.72,-3.53,3.53,3.50,-0.13,-0.19,-0.20
96,-3.65,-3.41,-3.67,-3.44,3.44,3.42,-0.21,-0.23,-0.24
97,-3.65,-3.37,-3.62,-3.35,3.35,3.33,-0.30,-0.27,-0.28
98,-3.59,-3.27,-3.57,-3.26,3.26,3.25,-0.33,-0.32,-0.32
99,-3.49,-3.13,-3.53,-3.17,3.17,3.16,-0.32,-0.36,-0.36
100,-3.49,-3.09,-3.49,-3.09,3.09,3.08,-0.40,-0.40,-0.39
101,-3.51,-3.08,-3.46,-3.01,3.01,2.99,-0.50,-0.44,-0.43
102,-3.42,-2.95,-3.43,-2.94,2.94,2.91,-0.48,-0.49,-0.47
104,-3.35,-2.80,-3.40,-2.87,2.87,2.75,-0.48,-0.53,-0.55
105,-3.37,-2.79,-3.39,-2.81,2.81,2.67,-0.55,-0.57,-0.58
106,-3.39,-2.77,-3.37,-2.76,2.76,2.59,-0.63,-0.61,-0.62
107,-3.34,-2.69,-3.36,-2.71,2.71,2.52,-0.63,-0.65,-0.65
108,-3.34,-2.65,-3.35,-2.67,2.67,2.44,-0.67,-0.69,-0.69
109,-3.36,-2.64,-3.34,-2.62,2.62,2.37,-0.74,-0.72,-0.72
110,-3.38,-2.63,-3.32,-2.57,2.57,2.29,-0.81,-0.75,-0.75
111,-3.30,-2.52,-3.29,-2.51,2.51,2.22,-0.79,-0.78,-0.78
112,-3.21,-2.40,-3.25,-2.44,2.44,2.15,-0.77,-0.81,-0.81
113,-3.22,-2.38,-3.21,-2.36,2.36,2.08,-0.85,-0.84,-0.84
114,-3.16,-2.29,-3.15,-2.28,2.28,2.01,-0.88,-0.88,-0.87
115,-3.13,-2.23,-3.09,-2.18,2.18,1.95,-0.94,-0.91,-0.90
117,-3.02,-2.07,-3.02,-2.08,2.08,1.82,-0.94,-0.94,-0.95
118,-2.94,-1.96,-2.94,-1.98,1.98,1.76,-0.96,-0.97,-0.98
119,-2.82,-1.82,-2.86,-1.87,1.87,1.69,-0.95,-1.00,-1.00
120,-2.81,-1.79,-2.78,-1.76,1.76,1.63,-1.05,-1.02,-1.02
121,-2.75,-1.71,-2.70,-1.65,1.65,1.57,-1.10,-1.05,-1.04
123,-2.57,-1.48,-2.61,-1.54,1.54,1.46,-1.03,-1.08,-1.09
124,-2.48,-1.37,-2.53,-1.43,1.43,1.40,-1.05,-1.10,-1.11
125,-2.47,-1.34,-2.45,-1.33,1.33,1.34,-1.14,-1.13,-1.12
126,-2.43,-1.29,-2.38,-1.23,1.23,1.29,-1.20,-1.15,-1.14
128,-2.26,-1.08,-2.30,-1.13,1.13,1.18,-1.13,-1.17,-1.18
129,-2.25,-1.05,-2.23,-1.04,1.04,1.13,-1.21,-1.19,-1.20
130,-2.21,-1.00,-2.17,-0.95,0.95,1.08,-1.26,-1.22,-1.21
131,-2.04,-0.81,-2.10,-0.87,0.87,1.03,-1.17,-1.24,-1.23
133,-2.04,-0.77,-2.04,-0.78,0.78,0.93,-1.26,-1.26,-1.26
134,-2.03,-0.75,-1.98,-0.70,0.70,0.89,-1.33,-1.28,-1.28
135,-1.93,-0.64,-1.93,-0.63,0.63,0.84,-1.30,-1.30,-1.29
137,-1.82,-0.49,-1.87,-0.55,0.55,0.75,-1.27,-1.32,-1.33
138,-1.82,-0.48,-1.82,-0.48,0.48,0.71,-1.34,-1.34,-1.34
140,-1.82,-0.45,-1.77,-0.41,0.41,0.62,-1.41,-1.36,-1.37
141,-1.75,-0.36,-1.73,-0.34,0.34,0.58,-1.40,-1.38,-1.38
142,-1.65,-0.25,-1.68,-0.28,0.28,0.54,-1.37,-1.40,-1.40
144,-1.62,-0.19,-1.64,-0.22,0.22,0.46,-1.40,-1.42,-1.43
145,-1.62,-0.18,-1.60,-0.16,0.16,0.42,-1.46,-1.45,-1.44
147,-1.55,-0.08,-1.56,-0.09,0.09,0.34,-1.45,-1.47,-1.47
148,-1.52,-0.04,-1.52,-0.03,0.03,0.30,-1.49,-1.49,-1.48
150,-1.52,-0.01,-1.47,0.03,-0.03,0.23,-1.55,-1.51,-1.51
151,-1.47,0.05,-1.43,0.09,-0.09,0.19,-1.56,-1.53,-1.52
153,-1.42,0.13,-1.40,0.15,-0.15,0.12,-1.57,-1.55,-1.55
154,-1.39,0.17,-1.37,0.19,-0.19,0.09,-1.58,-1.56,-1.56
156,-1.31,0.28,-1.36,0.22,-0.22,0.02,-1.53,-1.58,-1.59
157,-1.31,0.29,-1.37,0.23,-0.23,-0.01,-1.54,-1.60,-1.60
159,-1.31,0.31,-1.39,0.23,-0.23,-0.07,-1.54,-1.62,-1.62
160,-1.34,0.29,-1.42,0.21,-0.21,-0.11,-1.55,-1.64,-1.63
162,-1.41,0.24,-1.46,0.19,-0.19,-0.17,-1.60,-1.65,-1.65
164,-1.58,0.10,-1.50,0.17,-0.17,-0.23,-1.75,-1.67,-1.67
165,-1.62,0.06,-1.52,0.16,-0.16,-0.26,-1.78,-1.69,-1.68
167,-1.63,0.07,-1.52,0.18,-0.18,-0.31,-1.81,-1.70,-1.70
169,-1.58,0.14,-1.50,0.21,-0.21,-0.37,-1.79,-1.71,-1.72
170,-1.53,0.19,-1.46,0.26,-0.26,-0.40,-1.79,-1.73,-1.72
172,-1.31,0.43,-1.40,0.34,-0.34,-0.45,-1.65,-1.74,-1.74
174,-1.25,0.50,-1.33,0.42,-0.42,-0.50,-1.67,-1.75,-1.75
175,-1.26,0.49,-1.25,0.50,-0.50,-0.53,-1.76,-1.76,-1.75
177,-1.17,0.59,-1.18,0.58,-0.58,-0.57,-1.75,-1.76,-1.76
179,-1.06,0.71,-1.12,0.65,-0.65,-0.62,-1.71,-1.77,-1.77
181,-1.05,0.73,-1.07,0.71,-0.71,-0.67,-1.76,-1.78,-1.78
183,-1.05,0.73,-1.02,0.76,-0.76,-0.71,-1.81,-1.78,-1.78
184,-1.03,0.75,-0.99,0.80,-0.80,-0.74,-1.83,-1.78,-1.78
186,-0.93,0.86,-0.96,0.83,-0.83,-0.78,-1.76,-1.79,-1.79
188,-0.91,0.88,-0.93,0.86,-0.86,-0.82,-1.77,-1.79,-1.79
190,-0.90,0.89,-0.90,0.89,-0.89,-0.86,-1.79,-1.79,-1.79
192,-0.88,0.91,-0.87,0.92,-0.92,-0.90,-1.80,-1.79,-1.79
194,-0.86,0.94,-0.84,0.96,-0.96,-0.94,-1.82,-1.79,-1.79
196,-0.85,0.95,-0.80,0.99,-0.99,-0.98,-1.84,-1.80,-1.80
198,-0.77,1.03,-0.77,1.03,-1.03,-1.01,-1.80,-1.80,-1.80
200,-0.73,1.07,-0.73,1.07,-1.07,-1.05,-1.80,-1.80,-1.80
202,-0.71,1.09,-0.70,1.10,-1.10,-1.08,-1.81,-1.80,-1.80
204,-0.62,1.18,-0.67,1.13,-1.13,-1.11,-1.75,-1.80,-1.80
206,-0.61,1.19,-0.65,1.15,-1.15,-1.15,-1.76,-1.80,-1.80
208,-0.61,1.19,-0.63,1.17,-1.17,-1.18,-1.78,-1.80,-1.80
210,-0.62,1.18,-0.61,1.19,-1.19,-1.21,-1.81,-1.80,-1.80
212,-0.62,1.18,-0.60,1.20,-1.20,-1.23,-1.82,-1.80,-1.80
214,-0.62,1.18,-0.59,1.21,-1.21,-1.26,-1.83,-1.80,-1.80
216,-0.63,1.17,-0.59,1.22,-1.22,-1.29,-1.84,-1.80,-1.80
218,-0.56,1.24,-0.57,1.23,-1.23,-1.31,-1.79,-1.80,-1.80
221,-0.53,1.27,-0.56,1.24,-1.24,-1.35,-1.77,-1.80,-1.80
223,-0.53,1.27,-0.54,1.26,-1.26,-1.37,-1.78,-1.80,-1.80
225,-0.54,1.26,-0.52,1.27,-1.27,-1.39,-1.81,-1.80,-1.80
227,-0.53,1.27,-0.50,1.29,-1.29,-1.42,-1.82,-1.80,-1.80
229,-0.52,1.27,-0.48,1.31,-1.31,-1.44,-1.83,-1.79,-1.79
232,-0.42,1.37,-0.46,1.33,-1.33,-1.47,-1.75,-1.79,-1.79
234,-0.41,1.38,-0.43,1.35,-1.35,-1.48,-1.76,-1.79,-1.79
236,-0.40,1.38,-0.41,1.37,-1.37,-1.50,-1.77,-1.78,-1.78
239,-0.38,1.40,-0.39,1.39,-1.39,-1.53,-1.77,-1.78,-1.78
241,-0.37,1.40,-0.36,1.41,-1.41,-1.54,-1.78,-1.77,-1.77
244,-0.35,1.42,-0.34,1.43,-1.43,-1.56,-1.78,-1.76,-1.77
246,-0.33,1.43,-0.31,1.44,-1.44,-1.58,-1.77,-1.76,-1.76
248,-0.31,1.44,-0.29,1.46,-1.46,-1.59,-1.77,-1.75,-1.75
251,-0.29,1.45,-0.27,1.48,-1.48,-1.61,-1.76,-1.74,-1.74
253,-0.26,1.48,-0.25,1.49,-1.49,-1.62,-1.75,-1.74,-1.73
256,-0.16,1.57,-0.24,1.49,-1.49,-1.64,-1.65,-1.73,-1.73
259,-0.18,1.54,-0.23,1.49,-1.49,-1.65,-1.67,-1.72,-1.72
261,-0.25,1.46,-0.23,1.49,-1.49,-1.66,-1.74,-1.71,-1.71
264,-0.24,1.47,-0.23,1.48,-1.48,-1.67,-1.72,-1.71,-1.71
266,-0.25,1.45,-0.23,1.46,-1.46,-1.68,-1.71,-1.70,-1.70
269,-0.25,1.44,-0.24,1.45,-1.45,-1.69,-1.70,-1.69,-1.69
272,-0.25,1.43,-0.25,1.43,-1.43,-1.70,-1.68,-1.68,-1.68
274,-0.26,1.42,-0.26,1.42,-1.42,-1.70,-1.68,-1.68,-1.68
277,-0.26,1.41,-0.26,1.41,-1.41,-1.71,-1.67,-1.67,-1.67
280,-0.26,1.40,-0.26,1.40,-1.40,-1.71,-1.66,-1.66,-1.66
283,-0.25,1.41,-0.26,1.40,-1.40,-1.72,-1.65,-1.66,-1.66
286,-0.25,1.40,-0.25,1.40,-1.40,-1.72,-1.65,-1.65,-1.65
288,-0.24,1.41,-0.24,1.41,-1.41,-1.72,-1.64,-1.64,-1.64
291,-0.23,1.41,-0.22,1.42,-1.42,-1.73,-1.65,-1.64,-1.64
294,-0.22,1.41,-0.20,1.43,-1.43,-1.73,-1.65,-1.63,-1.63
297,-0.20,1.43,-0.18,1.45,-1.45,-1.73,-1.65,-1.63,-1.63
300,-0.19,1.43,-0.15,1.47,-1.47,-1.73,-1.66,-1.62,-1.62
303,-0.08,1.54,-0.12,1.49,-1.49,-1.73,-1.57,-1.62,-1.62
306,-0.07,1.54,-0.10,1.51,-1.51,-1.72,-1.58,-1.61,-1.61
309,-0.06,1.55,-0.07,1.53,-1.53,-1.72,-1.59,-1.60,-1.60
312,-0.05,1.55,-0.06,1.54,-1.54,-1.72,-1.59,-1.60,-1.60
316,-0.05,1.55,-0.04,1.55,-1.55,-1.71,-1.60,-1.59,-1.59
319,-0.05,1.54,-0.04,1.55,-1.55,-1.71,-1.60,-1.59,-1.59
322,-0.05,1.54,-0.04,1.54,-1.54,-1.70,-1.59,-1.58,-1.58
325,0.00,1.58,-0.05,1.53,-1.53,-1.70,-1.53,-1.58,-1.58
328,-0.04,1.54,-0.05,1.52,-1.52,-1.69,-1.56,-1.57,-1.57
332,-0.05,1.52,-0.06,1.51,-1.51,-1.68,-1.56,-1.57,-1.57
335,-0.05,1.52,-0.05,1.51,-1.51,-1.67,-1.56,-1.57,-1.57
338,-0.05,1.51,-0.04,1.52,-1.52,-1.67,-1.57,-1.56,-1.56
342,-0.06,1.50,-0.01,1.55,-1.55,-1.66,-1.61,-1.56,-1.56
345,-0.06,1.50,0.03,1.59,-1.59,-1.65,-1.65,-1.56,-1.56
349,-0.02,1.53,0.09,1.64,-1.64,-1.64,-1.66,-1.55,-1.55
352,0.17,1.72,0.15,1.70,-1.70,-1.63,-1.53,-1.55,-1.55
356,0.30,1.85,0.21,1.76,-1.76,-1.61,-1.46,-1.55,-1.55
359,0.35,1.90,0.27,1.82,-1.82,-1.60,-1.47,-1.55,-1.55
363,0.36,1.91,0.32,1.87,-1.87,-1.59,-1.51,-1.55,-1.54
366,0.37,1.91,0.36,1.91,-1.91,-1.58,-1.54,-1.54,-1.54
370,0.37,1.91,0.39,1.93,-1.93,-1.57,-1.56,-1.54,-1.54
374,0.38,1.92,0.41,1.95,-1.95,-1.55,-1.57,-1.54,-1.54
377,0.39,1.93,0.41,1.95,-1.95,-1.54,-1.56,-1.54,-1.54
381,0.40,1.94,0.41,1.95,-1.95,-1.53,-1.55,-1.54,-1.54
385,0.41,1.94,0.40,1.94,-1.94,-1.51,-1.52,-1.53,-1.53
389,0.41,1.94,0.39,1.92,-1.92,-1.50,-1.50,-1.53,-1.53
393,0.34,1.86,0.36,1.89,-1.89,-1.48,-1.55,-1.52,-1.52
397,0.31,1.82,0.33,1.85,-1.85,-1.47,-1.53,-1.51,-1.51
401,0.31,1.82,0.29,1.79,-1.79,-1.45,-1.48,-1.50,-1.50
405,0.31,1.80,0.24,1.73,-1.73,-1.44,-1.42,-1.49,-1.49
409,0.30,1.78,0.18,1.66,-1.66,-1.42,-1.36,-1.48,-1.48
413,0.10,1.56,0.13,1.59,-1.59,-1.41,-1.49,-1.46,-1.46
417,-0.01,1.43,0.08,1.52,-1.52,-1.39,-1.53,-1.44,-1.44
421,-0.03,1.39,0.04,1.46,-1.46,-1.37,-1.49,-1.42,-1.42
425,0.01,1.41,0.02,1.42,-1.42,-1.36,-1.41,-1.39,-1.40
430,0.02,1.39,0.03,1.39,-1.39,-1.34,-1.37,-1.37,-1.37
434,0.00,1.34,0.05,1.38,-1.38,-1.33,-1.38,-1.34,-1.34
438,0.04,1.34,0.09,1.39,-1.39,-1.31,-1.35,-1.30,-1.30
443,0.20,1.47,0.15,1.41,-1.41,-1.29,-1.21,-1.27,-1.27
447,0.25,1.48,0.21,1.44,-1.44,-1.28,-1.19,-1.23,-1.23
451,0.30,1.49,0.28,1.47,-1.47,-1.26,-1.17,-1.19,-1.19
456,0.36,1.51,0.35,1.50,-1.50,-1.24,-1.14,-1.15,-1.15
460,0.42,1.53,0.42,1.52,-1.52,-1.23,-1.10,-1.11,-1.11
465,0.48,1.55,0.48,1.55,-1.55,-1.21,-1.06,-1.07,-1.07
470,0.54,1.57,0.54,1.57,-1.57,-1.19,-1.03,-1.03,-1.03
474,0.60,1.59,0.60,1.59,-1.59,-1.18,-0.99,-0.99,-0.99
479,0.65,1.60,0.67,1.62,-1.62,-1.16,-0.97,-0.95,-0.95
484,0.69,1.61,0.73,1.64,-1.64,-1.14,-0.95,-0.92,-0.92
489,0.72,1.61,0.78,1.67,-1.67,-1.13,-0.95,-0.89,-0.88
494,0.83,1.69,0.83,1.69,-1.69,-1.11,-0.86,-0.86,-0.86
499,0.90,1.73,0.86,1.70,-1.70,-1.09,-0.80,-0.84,-0.83
504,0.93,1.75,0.88,1.70,-1.70,-1.08,-0.76,-0.82,-0.81
509,0.90,1.70,0.87,1.67,-1.67,-1.06,-0.77,-0.80,-0.80
514,0.86,1.65,0.84,1.63,-1.63,-1.04,-0.77,-0.79,-0.79
519,0.86,1.64,0.78,1.57,-1.57,-1.03,-0.71,-0.78,-0.78
524,0.75,1.53,0.71,1.49,-1.49,-1.01,-0.74,-0.78,-0.78
529,0.58,1.36,0.62,1.40,-1.40,-1.00,-0.82,-0.78,-0.78
535,0.44,1.23,0.52,1.31,-1.31,-0.98,-0.87,-0.79,-0.79
540,0.37,1.17,0.42,1.22,-1.22,-0.96,-0.85,-0.80,-0.80
545,0.35,1.16,0.32,1.13,-1.13,-0.95,-0.78,-0.81,-0.80
551,0.22,1.04,0.23,1.04,-1.04,-0.93,-0.82,-0.82,-0.82
556,0.14,0.97,0.14,0.97,-0.97,-0.92,-0.83,-0.83,-0.83
562,0.14,0.98,0.07,0.91,-0.91,-0.90,-0.76,-0.84,-0.84
568,-0.04,0.81,0.00,0.85,-0.85,-0.89,-0.89,-0.85,-0.85
573,-0.09,0.77,-0.05,0.80,-0.80,-0.87,-0.89,-0.86,-0.86
579,-0.12,0.74,-0.10,0.76,-0.76,-0.86,-0.88,-0.86,-0.86
585,-0.15,0.72,-0.14,0.73,-0.73,-0.84,-0.88,-0.86,-0.87
591,-0.16,0.71,-0.16,0.70,-0.70,-0.83,-0.86,-0.86,-0.87
596,-0.17,0.69,-0.18,0.68,-0.68,-0.81,-0.85,-0.86,-0.86
602,-0.14,0.72,-0.20,0.66,-0.66,-0.80,-0.80,-0.85,-0.86
608,-0.19,0.66,-0.20,0.64,-0.64,-0.79,-0.83,-0.84,-0.84
615,-0.24,0.59,-0.20,0.62,-0.62,-0.77,-0.86,-0.83,-0.83
621,-0.22,0.59,-0.19,0.61,-0.61,-0.76,-0.83,-0.81,-0.81
627,-0.19,0.60,-0.18,0.61,-0.61,-0.74,-0.80,-0.79,-0.79
633,-0.16,0.60,-0.15,0.61,-0.61,-0.73,-0.77,-0.76,-0.76
639,-0.13,0.60,-0.12,0.61,-0.61,-0.72,-0.74,-0.73,-0.73
646,-0.06,0.64,-0.08,0.62,-0.62,-0.70,-0.68,-0.70,-0.70
652,-0.05,0.62,-0.04,0.63,-0.63,-0.69,-0.68,-0.67,-0.67
659,0.00,0.64,0.01,0.65,-0.65,-0.68,-0.65,-0.64,-0.64
665,0.05,0.65,0.06,0.66,-0.66,-0.67,-0.61,-0.60,-0.60
672,0.10,0.67,0.10,0.67,-0.67,-0.65,-0.57,-0.57,-0.57
679,0.15,0.68,0.14,0.68,-0.68,-0.64,-0.52,-0.53,-0.53
686,0.20,0.70,0.17,0.67,-0.67,-0.63,-0.47,-0.50,-0.50
692,0.23,0.70,0.19,0.66,-0.66,-0.62,-0.43,-0.47,-0.47
699,0.16,0.60,0.20,0.64,-0.64,-0.61,-0.48,-0.44,-0.44
706,0.25,0.66,0.20,0.61,-0.61,-0.59,-0.36,-0.41,-0.41
713,0.18,0.56,0.19,0.58,-0.58,-0.58,-0.40,-0.38,-0.38
721,0.17,0.53,0.18,0.54,-0.54,-0.57,-0.36,-0.36,-0.36
728,0.16,0.50,0.15,0.49,-0.49,-0.56,-0.33,-0.34,-0.34
735,0.13,0.45,0.13,0.44,-0.44,-0.55,-0.31,-0.32,-0.32
742,0.10,0.40,0.10,0.40,-0.40,-0.54,-0.30,-0.30,-0.30
750,0.07,0.35,0.07,0.36,-0.36,-0.53,-0.29,-0.28,-0.28
757,0.05,0.32,0.06,0.33,-0.33,-0.52,-0.27,-0.27,-0.27
765,0.02,0.28,0.04,0.30,-0.30,-0.51,-0.28,-0.26,-0.26
773,0.01,0.26,0.04,0.29,-0.29,-0.50,-0.27,-0.25,-0.25
780,0.00,0.24,0.04,0.28,-0.28,-0.49,-0.28,-0.24,-0.24
788,0.07,0.30,0.05,0.28,-0.28,-0.48,-0.21,-0.23,-0.23
796,0.09,0.31,0.07,0.28,-0.28,-0.47,-0.19,-0.22,-0.22
804,0.09,0.30,0.08,0.29,-0.29,-0.46,-0.20,-0.21,-0.21
812,0.10,0.30,0.09,0.30,-0.30,-0.45,-0.20,-0.20,-0.20
820,0.10,0.30,0.11,0.30,-0.30,-0.44,-0.20,-0.20,-0.20
828,0.11,0.30,0.11,0.30,-0.30,-0.43,-0.19,-0.19,-0.19
837,0.11,0.29,0.11,0.30,-0.30,-0.42,-0.18,-0.18,-0.18
845,0.11,0.29,0.11,0.28,-0.28,-0.42,-0.17,-0.18,-0.18
853,0.10,0.27,0.09,0.26,-0.26,-0.41,-0.16,-0.17,-0.17
862,0.10,0.26,0.07,0.23,-0.23,-0.40,-0.13,-0.16,-0.16
871,0.09,0.24,0.05,0.20,-0.20,-0.39,-0.11,-0.15,-0.15
879,0.05,0.20,0.03,0.17,-0.17,-0.39,-0.12,-0.15,-0.15
888,-0.05,0.09,0.00,0.14,-0.14,-0.38,-0.19,-0.14,-0.14
897,-0.04,0.09,-0.01,0.12,-0.12,-0.37,-0.15,-0.13,-0.13
906,-0.04,0.08,-0.02,0.10,-0.10,-0.37,-0.14,-0.12,-0.12
915,-0.05,0.06,-0.02,0.09,-0.09,-0.36,-0.14,-0.11,-0.11
924,-0.05,0.05,-0.01,0.09,-0.09,-0.35,-0.14,-0.10,-0.10
933,-0.05,0.04,0.00,0.09,-0.09,-0.35,-0.14,-0.09,-0.09
943,0.08,0.16,0.02,0.10,-0.10,-0.34,-0.02,-0.08,-0.08
952,0.09,0.16,0.04,0.10,-0.10,-0.34,-0.01,-0.07,-0.07
962,0.07,0.12,0.05,0.10,-0.10,-0.33,-0.03,-0.05,-0.05
971,0.10,0.14,0.06,0.09,-0.09,-0.33,0.01,-0.04,-0.04
981,0.08,0.10,0.06,0.08,-0.08,-0.33,0.00,-0.02,-0.02
991,-0.01,-0.00,0.05,0.06,-0.06,-0.32,-0.07,-0.01,-0.01
1001,0.00,-0.01,0.05,0.04,-0.04,-0.32,-0.03,0.01,0.01
1011,0.02,-0.01,0.04,0.01,-0.01,-0.32,0.01,0.03,0.03
1021,0.06,0.01,0.04,-0.02,0.02,-0.31,0.08,0.06,0.06
1031,0.09,0.01,0.04,-0.04,0.04,-0.31,0.13,0.08,0.08
1041,0.01,-0.09,0.04,-0.07,0.07,-0.31,0.08,0.10,0.10
1052,0.04,-0.09,0.04,-0.09,0.09,-0.31,0.13,0.13,0.13
1062,0.08,-0.08,0.05,-0.11,0.11,-0.31,0.19,0.16,0.16
1073,0.04,-0.15,0.05,-0.14,0.14,-0.31,0.18,0.19,0.19
1084,0.04,-0.18,0.06,-0.16,0.16,-0.31,0.20,0.22,0.22
1094,0.02,-0.23,0.07,-0.18,0.18,-0.31,0.20,0.25,0.25
1105,0.08,-0.21,0.08,-0.20,0.20,-0.31,0.28,0.29,0.29
1116,0.13,-0.19,0.09,-0.23,0.23,-0.31,0.36,0.32,0.32
1128,0.15,-0.20,0.10,-0.25,0.25,-0.31,0.40,0.36,0.36
1139,0.13,-0.26,0.11,-0.28,0.28,-0.32,0.41,0.39,0.39
1150,0.07,-0.35,0.12,-0.31,0.31,-0.32,0.38,0.42,0.42
1162,0.15,-0.31,0.12,-0.34,0.34,-0.33,0.49,0.46,0.46
1173,0.12,-0.37,0.12,-0.36,0.36,-0.33,0.49,0.49,0.49
1185,0.11,-0.41,0.13,-0.39,0.39,-0.34,0.50,0.52,0.52
1197,0.15,-0.40,0.14,-0.41,0.41,-0.35,0.56,0.55,0.55
1209,0.14,-0.43,0.16,-0.42,0.42,-0.35,0.56,0.57,0.57
1221,0.16,-0.44,0.18,-0.42,0.42,-0.36,0.58,0.60,0.60
1233,0.21,-0.41,0.21,-0.41,0.41,-0.37,0.62,0.62,0.62
1246,0.27,-0.37,0.25,-0.38,0.38,-0.39,0.65,0.64,0.64
1258,0.32,-0.33,0.30,-0.35,0.35,-0.40,0.67,0.65,0.65
1271,0.31,-0.36,0.36,-0.31,0.31,-0.41,0.62,0.67,0.67
1283,0.41,-0.27,0.42,-0.26,0.26,-0.43,0.67,0.68,0.68
1296,0.46,-0.22,0.48,-0.20,0.20,-0.45,0.66,0.68,0.68
1309,0.57,-0.12,0.55,-0.14,0.14,-0.46,0.71,0.69,0.69
1322,0.67,-0.02,0.61,-0.08,0.08,-0.48,0.75,0.69,0.69
1335,0.66,-0.02,0.67,-0.02,0.02,-0.51,0.68,0.68,0.68
1349,0.73,0.05,0.73,0.05,-0.05,-0.53,0.68,0.68,0.68
1362,0.84,0.17,0.78,0.11,-0.11,-0.55,0.73,0.67,0.67
1376,0.82,0.15,0.84,0.18,-0.18,-0.58,0.64,0.67,0.67
1390,0.86,0.20,0.91,0.25,-0.25,-0.61,0.61,0.66,0.66
1404,0.99,0.34,0.98,0.33,-0.33,-0.65,0.66,0.65,0.65
1418,1.08,0.44,1.06,0.42,-0.42,-0.68,0.66,0.64,0.64
1432,1.03,0.40,1.15,0.52,-0.52,-0.72,0.51,0.63,0.63
1446,1.15,0.53,1.25,0.63,-0.63,-0.76,0.53,0.63,0.63
1461,1.42,0.80,1.35,0.73,-0.73,-0.80,0.69,0.62,0.62
1475,1.57,0.95,1.44,0.83,-0.83,-0.85,0.74,0.62,0.62
1490,1.64,1.03,1.53,0.92,-0.92,-0.90,0.73,0.62,0.62
1505,1.57,0.95,1.61,0.99,-0.99,-0.95,0.58,0.62,0.62
1520,1.61,0.99,1.68,1.06,-1.06,-1.00,0.55,0.62,0.62
1535,1.76,1.13,1.75,1.11,-1.11,-1.06,0.65,0.63,0.63
1550,1.83,1.18,1.81,1.16,-1.16,-1.12,0.67,0.65,0.65
1566,1.90,1.23,1.88,1.21,-1.21,-1.18,0.69,0.67,0.67
1582,1.96,1.27,1.96,1.27,-1.27,-1.25,0.70,0.69,0.69
1597,2.03,1.31,2.05,1.33,-1.33,-1.31,0.70,0.72,0.72
1613,2.01,1.26,2.15,1.40,-1.40,-1.38,0.61,0.76,0.75
1629,2.13,1.34,2.27,1.47,-1.47,-1.45,0.66,0.80,0.79
1646,2.50,1.66,2.39,1.55,-1.55,-1.53,0.95,0.84,0.84
1662,2.52,1.63,2.51,1.62,-1.62,-1.60,0.90,0.89,0.89
1679,2.76,1.81,2.63,1.68,-1.68,-1.67,1.08,0.95,0.95
