frequency,raw
20,-25.43
21,-25.18
22,-24.94
23,-24.71
24,-24.49
25,-24.28
26,-24.07
27,-23.88
28,-23.65
29,-23.14
30,-22.57
31,-22.02
32,-21.51
33,-21.02
34,-20.54
35,-20.07
36,-19.57
37,-19.09
38,-18.60
39,-18.11
40,-17.62
41,-17.16
42,-16.70
43,-16.28
44,-15.87
45,-15.44
46,-15.03
47,-14.63
48,-14.24
49,-13.85
50,-13.50
51,-13.12
52,-12.76
53,-12.40
54,-12.05
55,-11.67
56,-11.34
57,-10.99
58,-10.66
59,-10.33
60,-10.00
61,-9.66
62,-9.35
63,-9.03
64,-8.75
65,-8.44
66,-8.16
67,-7.89
68,-7.63
69,-7.36
70,-7.12
71,-6.88
72,-6.63
73,-6.40
74,-6.17
75,-5.96
76,-5.73
77,-5.50
78,-5.28
79,-5.07
80,-4.85
81,-4.65
82,-4.46
83,-4.25
84,-4.07
85,-3.86
86,-3.70
87,-3.53
88,-3.37
89,-3.21
90,-3.07
91,-2.91
92,-2.78
93,-2.64
94,-2.51
95,-2.40
96,-2.29
97,-2.19
98,-2.08
99,-1.97
100,-1.87
101,-1.79
102,-1.69
104,-1.55
105,-1.48
106,-1.41
107,-1.34
108,-1.30
109,-1.25
110,-1.21
111,-1.17
112,-1.13
113,-1.10
114,-1.06
115,-1.03
117,-0.99
118,-0.97
119,-0.97
120,-0.96
121,-0.93
123,-0.93
124,-0.93
125,-0.93
126,-0.93
128,-0.93
129,-0.96
130,-0.97
131,-0.97
133,-1.01
134,-1.01
135,-1.03
137,-1.06
138,-1.10
140,-1.13
141,-1.14
142,-1.18
144,-1.21
145,-1.24
147,-1.29
148,-1.31
150,-1.36
151,-1.38
153,-1.44
154,-1.45
156,-1.51
157,-1.53
159,-1.59
160,-1.60
162,-1.67
164,-1.71
165,-1.74
167,-1.80
169,-1.86
170,-1.87
172,-1.93
174,-1.99
175,-2.00
177,-2.05
179,-2.10
181,-2.10
183,-2.14
184,-2.14
186,-2.15
188,-2.18
190,-2.23
192,-2.24
194,-2.28
196,-2.31
198,-2.34
200,-2.36
202,-2.40
204,-2.43
206,-2.44
208,-2.49
210,-2.49
212,-2.53
214,-2.53
216,-2.57
218,-2.57
221,-2.60
223,-2.62
225,-2.62
227,-2.66
229,-2.66
232,-2.66
234,-2.70
236,-2.70
239,-2.70
241,-2.75
244,-2.75
246,-2.75
248,-2.75
251,-2.79
253,-2.79
256,-2.79
259,-2.79
261,-2.83
264,-2.83
266,-2.83
269,-2.83
272,-2.83
274,-2.85
277,-2.88
280,-2.88
283,-2.88
286,-2.88
288,-2.88
291,-2.88
294,-2.88
297,-2.88
300,-2.88
303,-2.88
306,-2.88
309,-2.88
312,-2.84
316,-2.83
319,-2.83
322,-2.79
325,-2.78
328,-2.75
332,-2.71
335,-2.70
338,-2.66
342,-2.64
345,-2.62
349,-2.57
352,-2.56
356,-2.53
359,-2.52
363,-2.49
366,-2.49
370,-2.44
374,-2.44
377,-2.44
381,-2.41
385,-2.40
389,-2.40
393,-2.40
397,-2.40
401,-2.40
405,-2.44
409,-2.44
413,-2.44
417,-2.49
421,-2.49
425,-2.53
430,-2.54
434,-2.57
438,-2.57
443,-2.62
447,-2.62
451,-2.66
456,-2.66
460,-2.66
465,-2.67
470,-2.70
474,-2.70
479,-2.70
484,-2.70
489,-2.75
494,-2.75
499,-2.77
504,-2.80
509,-2.83
514,-2.86
519,-2.88
524,-2.92
529,-2.92
535,-2.96
540,-2.96
545,-2.96
551,-2.96
556,-2.96
562,-2.96
568,-2.92
573,-2.92
579,-2.92
585,-2.88
591,-2.88
596,-2.86
602,-2.83
608,-2.80
615,-2.79
621,-2.75
627,-2.73
633,-2.70
639,-2.67
646,-2.66
652,-2.65
659,-2.62
665,-2.62
672,-2.62
679,-2.62
686,-2.66
692,-2.66
699,-2.68
706,-2.70
713,-2.72
721,-2.75
728,-2.75
735,-2.75
742,-2.77
750,-2.75
757,-2.75
765,-2.74
773,-2.69
780,-2.64
788,-2.56
796,-2.49
804,-2.37
812,-2.26
820,-2.14
828,-2.00
837,-1.84
845,-1.67
853,-1.52
862,-1.34
871,-1.17
879,-1.03
888,-0.88
897,-0.73
906,-0.63
915,-0.51
924,-0.43
933,-0.35
943,-0.28
952,-0.21
962,-0.17
971,-0.12
981,-0.06
991,-0.03
1001,0.00
1011,0.05
1021,0.07
1031,0.11
1041,0.11
1052,0.16
1062,0.16
1073,0.20
1084,0.20
1094,0.20
1105,0.24
1116,0.24
1128,0.24
1139,0.28
1150,0.29
1162,0.29
1173,0.29
1185,0.29
1197,0.33
1209,0.33
1221,0.37
1233,0.38
1246,0.44
1258,0.48
1271,0.52
1283,0.57
1296,0.63
1309,0.69
1322,0.75
1335,0.80
1349,0.87
1362,0.95
1376,1.02
1390,1.12
1404,1.21
1418,1.30
1432,1.41
1446,1.54
1461,1.66
1475,1.76
1490,1.86
1505,1.96
1520,2.07
1535,2.17
1550,2.29
1566,2.44
1582,2.57
1597,2.71
1613,2.85
1629,2.98
1646,3.15
1662,3.30
1679,3.46
1696,3.63
1713,3.83
1730,4.01
1747,4.20
1764,4.38
1782,4.55
1800,4.75
1818,4.91
1836,5.06
1854,5.21
1873,5.35
1892,5.48
1911,5.61
1930,5.69
1949,5.79
1969,5.86
1988,5.93
2008,5.99
2028,6.04
2048,6.09
2069,6.12
2090,6.13
2111,6.13
2132,6.16
2153,6.16
2175,6.13
2196,6.13
2218,6.13
2240,6.18
2263,6.22
2285,6.25
2308,6.30
2331,6.35
2355,6.36
2378,6.42
2402,6.48
2426,6.57
2450,6.65
2475,6.72
2500,6.79
2525,6.87
2550,6.94
2575,7.03
2601,7.14
2627,7.23
2653,7.30
2680,7.40
2707,7.49
2734,7.57
2761,7.63
2789,7.67
2817,7.74
2845,7.81
2873,7.91
2902,7.99
2931,8.09
2960,8.19
2990,8.28
3020,8.36
3050,8.41
3080,8.43
3111,8.43
3142,8.43
3174,8.38
3206,8.32
3238,8.27
3270,8.20
3303,8.12
3336,8.01
3369,7.93
3403,7.83
3437,7.70
3471,7.60
3506,7.46
3541,7.31
3576,7.18
3612,7.05
3648,6.91
3685,6.77
3721,6.61
3759,6.45
3796,6.29
3834,6.14
3873,5.94
3911,5.75
3950,5.57
3990,5.36
4030,5.15
4070,4.97
4111,4.78
4152,4.62
4193,4.45
4235,4.33
4278,4.20
4321,4.10
4364,3.99
4407,3.92
4451,3.85
4496,3.84
4541,3.85
4586,3.90
4632,3.97
4679,4.05
4725,4.14
4773,4.21
4820,4.23
4868,4.18
4917,4.06
4966,3.90
5016,3.69
5066,3.46
5117,3.19
5168,2.90
5220,2.57
5272,2.24
5325,1.91
5378,1.58
5432,1.25
5486,0.96
5541,0.65
5596,0.38
5652,0.10
5709,-0.14
5766,-0.37
5823,-0.57
5882,-0.75
5940,-0.93
6000,-1.06
6060,-1.18
6120,-1.29
6182,-1.37
6244,-1.44
6306,-1.39
6369,-1.29
6433,-1.20
6497,-1.10
6562,-1.15
6628,-1.42
6694,-1.89
6761,-2.58
6828,-3.46
6897,-4.53
6966,-5.62
7035,-6.69
7106,-7.66
7177,-8.49
7249,-9.01
7321,-9.15
7394,-8.47
7468,-7.44
7543,-6.21
7618,-4.81
7694,-3.50
7771,-2.32
7849,-1.30
7928,-0.45
8007,0.19
8087,0.60
8168,0.78
8250,0.58
8332,0.26
8415,-0.16
8499,-0.62
8584,-1.08
8670,-1.57
8757,-2.03
8845,-2.50
8933,-2.94
9022,-3.35
9113,-3.72
9204,-4.04
9296,-4.30
9389,-4.49
9483,-4.61
9577,-4.57
9673,-4.34
9770,-4.04
9868,-3.61
9966,-3.14
10066,-2.66
10167,-2.20
10268,-1.82
10371,-1.56
10475,-1.51
10579,-1.82
10685,-2.35
10792,-3.04
10900,-3.83
11009,-4.42
11119,-4.92
11230,-4.75
11343,-3.95
11456,-2.86
11571,-1.56
11686,-0.25
11803,0.79
11921,1.49
12040,1.90
12161,1.82
12282,1.53
12405,1.15
12529,0.67
12655,0.20
12781,-0.22
12909,-0.62
13038,-0.89
13168,-1.08
13300,-1.16
13433,-1.11
13567,-1.02
13703,-1.21
13840,-1.73
13978,-2.69
14118,-4.21
14259,-6.27
14402,-8.81
14546,-11.40
14692,-13.18
14838,-14.42
14987,-13.37
15137,-12.07
15288,-10.25
15441,-8.46
15595,-7.22
15751,-6.38
15909,-5.84
16068,-5.52
16229,-5.30
16391,-5.17
16555,-5.13
16720,-5.28
16888,-5.68
17056,-6.29
17227,-7.24
17399,-8.46
17573,-9.78
17749,-11.04
17926,-11.94
18106,-12.58
18287,-12.63
18470,-12.29
18654,-11.82
18841,-11.31
19029,-10.77
19220,-10.36
19412,-10.08
19606,-9.92
19802,-9.90
20000,-9.96
