frequency,raw
20.00,2.51
20.20,2.54
20.40,2.57
20.61,2.60
20.81,2.63
21.02,2.65
21.23,2.68
21.44,2.70
21.66,2.72
21.87,2.74
22.09,2.76
22.31,2.78
22.54,2.81
22.76,2.83
22.99,2.85
23.22,2.87
23.45,2.89
23.69,2.91
23.92,2.93
24.16,2.95
24.40,2.96
24.65,2.97
24.89,2.99
25.14,3.00
25.39,3.01
25.65,3.03
25.91,3.04
26.16,3.06
26.43,3.07
26.69,3.08
26.96,3.09
27.23,3.10
27.50,3.10
27.77,3.10
28.05,3.10
28.33,3.10
28.62,3.10
28.90,3.11
29.19,3.11
29.48,3.12
29.78,3.13
30.08,3.14
30.38,3.14
30.68,3.15
30.99,3.15
31.30,3.15
31.61,3.15
31.93,3.15
32.24,3.16
32.57,3.16
32.89,3.15
33.22,3.15
33.55,3.14
33.89,3.13
34.23,3.13
34.57,3.12
34.92,3.12
35.27,3.12
35.62,3.12
35.97,3.11
36.33,3.10
36.70,3.09
37.06,3.08
37.43,3.07
37.81,3.05
38.19,3.04
38.57,3.03
38.95,3.01
39.34,3.00
39.74,2.99
40.14,2.98
40.54,2.96
40.94,2.95
41.35,2.93
41.76,2.92
42.18,2.91
42.60,2.90
43.03,2.89
43.46,2.88
43.90,2.86
44.33,2.85
44.78,2.83
45.23,2.82
45.68,2.80
46.13,2.78
46.60,2.76
47.06,2.74
47.53,2.73
48.01,2.71
48.49,2.69
48.97,2.67
49.46,2.65
49.96,2.63
50.46,2.60
50.96,2.58
51.47,2.55
51.99,2.53
52.51,2.51
53.03,2.48
53.56,2.46
54.10,2.44
54.64,2.42
55.18,2.39
55.74,2.37
56.29,2.35
56.86,2.32
57.42,2.30
58.00,2.28
58.58,2.25
59.16,2.22
59.76,2.19
60.35,2.17
60.96,2.14
61.57,2.12
62.18,2.09
62.80,2.07
63.43,2.04
64.07,2.01
64.71,1.98
65.35,1.95
66.01,1.91
66.67,1.88
67.33,1.84
68.01,1.81
68.69,1.78
69.37,1.74
70.07,1.71
70.77,1.67
71.48,1.64
72.19,1.61
72.91,1.59
73.64,1.56
74.38,1.53
75.12,1.50
75.87,1.47
76.63,1.44
77.40,1.41
78.17,1.37
78.95,1.33
79.74,1.30
80.54,1.26
81.35,1.23
82.16,1.19
82.98,1.16
83.81,1.12
84.65,1.08
85.50,1.04
86.35,0.99
87.22,0.94
88.09,0.89
88.97,0.85
89.86,0.82
90.76,0.80
91.66,0.77
92.58,0.74
93.51,0.70
94.44,0.67
95.39,0.64
96.34,0.60
97.30,0.57
98.28,0.54
99.26,0.50
100.25,0.46
101.25,0.42
102.27,0.38
103.29,0.34
104.32,0.30
105.37,0.26
106.42,0.22
107.48,0.18
108.56,0.14
109.64,0.10
110.74,0.06
111.85,0.03
112.97,-0.01
114.10,-0.05
115.24,-0.09
116.39,-0.12
117.55,-0.16
118.73,-0.20
119.92,-0.24
121.12,-0.27
122.33,-0.31
123.55,-0.35
124.79,-0.39
126.03,-0.42
127.29,-0.46
128.57,-0.50
129.85,-0.53
131.15,-0.57
132.46,-0.60
133.79,-0.63
135.12,-0.67
136.48,-0.71
137.84,-0.74
139.22,-0.78
140.61,-0.81
142.02,-0.85
143.44,-0.88
144.87,-0.91
146.32,-0.94
147.78,-0.98
149.26,-1.01
150.75,-1.04
152.26,-1.08
153.78,-1.10
155.32,-1.13
156.88,-1.16
158.44,-1.19
160.03,-1.21
161.63,-1.24
163.24,-1.26
164.88,-1.28
166.53,-1.30
168.19,-1.32
169.87,-1.34
171.57,-1.37
173.29,-1.40
175.02,-1.44
176.77,-1.49
178.54,-1.54
180.32,-1.59
182.13,-1.64
183.95,-1.67
185.79,-1.71
187.65,-1.74
189.52,-1.77
191.42,-1.81
193.33,-1.84
195.27,-1.87
197.22,-1.90
199.19,-1.93
201.18,-1.97
203.19,-1.99
205.23,-2.02
207.28,-2.05
209.35,-2.07
211.44,-2.10
213.56,-2.12
215.69,-2.14
217.85,-2.16
220.03,-2.18
222.23,-2.21
224.45,-2.23
226.70,-2.25
228.96,-2.27
231.25,-2.29
233.57,-2.31
235.90,-2.33
238.26,-2.35
240.64,-2.36
243.05,-2.38
245.48,-2.40
247.93,-2.41
250.41,-2.43
252.92,-2.45
255.45,-2.46
258.00,-2.48
260.58,-2.49
263.19,-2.51
265.82,-2.52
268.48,-2.54
271.16,-2.55
273.87,-2.57
276.61,-2.58
279.38,-2.59
282.17,-2.60
284.99,-2.61
287.84,-2.62
290.72,-2.63
293.63,-2.64
296.57,-2.65
299.53,-2.66
302.53,-2.66
305.55,-2.67
308.61,-2.67
311.69,-2.68
314.81,-2.68
317.96,-2.69
321.14,-2.69
324.35,-2.69
327.59,-2.69
330.87,-2.69
334.18,-2.69
337.52,-2.69
340.90,-2.69
344.30,-2.69
347.75,-2.69
351.23,-2.68
354.74,-2.68
358.28,-2.67
361.87,-2.67
365.49,-2.66
369.14,-2.66
372.83,-2.65
376.56,-2.64
380.33,-2.63
384.13,-2.62
387.97,-2.61
391.85,-2.60
395.77,-2.59
399.73,-2.58
403.72,-2.56
407.76,-2.55
411.84,-2.53
415.96,-2.52
420.12,-2.50
424.32,-2.48
428.56,-2.46
432.85,-2.44
437.18,-2.41
441.55,-2.39
445.96,-2.36
450.42,-2.33
454.93,-2.31
459.48,-2.28
464.07,-2.25
468.71,-2.22
473.40,-2.19
478.13,-2.16
482.91,-2.13
487.74,-2.09
492.62,-2.06
497.55,-2.02
502.52,-1.99
507.55,-1.95
512.62,-1.92
517.75,-1.88
522.93,-1.84
528.16,-1.81
533.44,-1.77
538.77,-1.73
544.16,-1.69
549.60,-1.65
555.10,-1.61
560.65,-1.56
566.25,-1.52
571.92,-1.47
577.64,-1.43
583.41,-1.38
589.25,-1.34
595.14,-1.29
601.09,-1.25
607.10,-1.20
613.17,-1.16
619.30,-1.12
625.50,-1.07
631.75,-1.03
638.07,-0.99
644.45,-0.95
650.89,-0.91
657.40,-0.87
663.98,-0.83
670.62,-0.79
677.32,-0.76
684.10,-0.72
690.94,-0.68
697.85,-0.64
704.83,-0.60
711.87,-0.57
718.99,-0.53
726.18,-0.50
733.44,-0.47
740.78,-0.44
748.19,-0.41
755.67,-0.39
763.23,-0.37
770.86,-0.35
778.57,-0.33
786.35,-0.32
794.22,-0.30
802.16,-0.29
810.18,-0.28
818.28,-0.26
826.46,-0.25
834.73,-0.25
843.08,-0.24
851.51,-0.23
860.02,-0.23
868.62,-0.22
877.31,-0.21
886.08,-0.21
894.94,-0.20
903.89,-0.19
912.93,-0.18
922.06,-0.16
931.28,-0.15
940.59,-0.13
950.00,-0.12
959.50,-0.10
969.09,-0.08
978.78,-0.06
988.57,-0.03
998.46,-0.00
1008.44,0.03
1018.53,0.06
1028.71,0.09
1039.00,0.13
1049.39,0.16
1059.88,0.20
1070.48,0.24
1081.19,0.28
1092.00,0.32
1102.92,0.37
1113.95,0.42
1125.09,0.47
1136.34,0.52
1147.70,0.57
1159.18,0.62
1170.77,0.67
1182.48,0.71
1194.30,0.76
1206.25,0.81
1218.31,0.85
1230.49,0.90
1242.80,0.95
1255.22,0.99
1267.78,1.03
1280.45,1.08
1293.26,1.12
1306.19,1.16
1319.25,1.20
1332.45,1.24
1345.77,1.28
1359.23,1.32
1372.82,1.37
1386.55,1.41
1400.41,1.46
1414.42,1.50
1428.56,1.55
1442.85,1.60
1457.28,1.65
1471.85,1.70
1486.57,1.75
1501.43,1.80
1516.45,1.85
1531.61,1.91
1546.93,1.96
1562.40,2.02
1578.02,2.08
1593.80,2.13
1609.74,2.19
1625.84,2.26
1642.10,2.32
1658.52,2.39
1675.10,2.46
1691.85,2.52
1708.77,2.59
1725.86,2.66
1743.12,2.73
1760.55,2.80
1778.15,2.87
1795.94,2.94
1813.90,3.01
1832.03,3.08
1850.36,3.15
1868.86,3.22
1887.55,3.28
1906.42,3.35
1925.49,3.41
1944.74,3.47
1964.19,3.53
1983.83,3.58
2003.67,3.63
2023.71,3.68
2043.94,3.72
2064.38,3.75
2085.03,3.78
2105.88,3.81
2126.94,3.83
2148.20,3.84
2169.69,3.85
2191.38,3.85
2213.30,3.84
2235.43,3.82
2257.78,3.80
2280.36,3.77
2303.17,3.73
2326.20,3.68
2349.46,3.63
2372.95,3.57
2396.68,3.51
2420.65,3.44
2444.86,3.36
2469.31,3.28
2494.00,3.20
2518.94,3.11
2544.13,3.03
2569.57,2.94
2595.27,2.86
2621.22,2.78
2647.43,2.70
2673.90,2.63
2700.64,2.56
2727.65,2.49
2754.93,2.43
2782.48,2.37
2810.30,2.32
2838.40,2.27
2866.79,2.24
2895.46,2.21
2924.41,2.19
2953.65,2.18
2983.19,2.18
3013.02,2.18
3043.15,2.20
3073.58,2.22
3104.32,2.24
3135.36,2.28
3166.72,2.32
3198.38,2.37
3230.37,2.43
3262.67,2.49
3295.30,2.55
3328.25,2.62
3361.53,2.69
3395.15,2.75
3429.10,2.82
3463.39,2.87
3498.03,2.93
3533.01,2.97
3568.34,3.02
3604.02,3.05
3640.06,3.07
3676.46,3.09
3713.22,3.09
3750.36,3.08
3787.86,3.05
3825.74,3.02
3864.00,2.98
3902.64,2.94
3941.66,2.88
3981.08,2.83
4020.89,2.77
4061.10,2.71
4101.71,2.65
4142.73,2.58
4184.15,2.52
4226.00,2.46
4268.26,2.40
4310.94,2.34
4354.05,2.27
4397.59,2.20
4441.56,2.14
4485.98,2.07
4530.84,2.00
4576.15,1.93
4621.91,1.86
4668.13,1.78
4714.81,1.71
4761.96,1.63
4809.58,1.55
4857.67,1.48
4906.25,1.40
4955.31,1.32
5004.87,1.25
5054.91,1.18
5105.46,1.12
5156.52,1.07
5208.08,1.01
5260.16,0.97
5312.77,0.93
5365.89,0.90
5419.55,0.88
5473.75,0.86
5528.49,0.85
5583.77,0.86
5639.61,0.87
5696.00,0.89
5752.96,0.92
5810.49,0.96
5868.60,1.00
5927.28,1.05
5986.56,1.11
6046.42,1.16
6106.89,1.22
6167.96,1.28
6229.64,1.33
6291.93,1.37
6354.85,1.39
6418.40,1.39
6482.58,1.37
6547.41,1.33
6612.88,1.26
6679.01,1.17
6745.80,1.07
6813.26,0.95
6881.39,0.81
6950.21,0.66
7019.71,0.51
7089.91,0.37
7160.81,0.22
7232.41,0.09
7304.74,-0.02
7377.79,-0.12
7451.56,-0.20
7526.08,-0.25
7601.34,-0.28
7677.35,-0.28
7754.13,-0.28
7831.67,-0.26
7909.98,-0.23
7989.08,-0.22
8068.98,-0.21
8149.67,-0.23
8231.16,-0.27
8313.47,-0.34
8396.61,-0.43
8480.57,-0.53
8565.38,-0.64
8651.03,-0.75
8737.54,-0.85
8824.92,-0.95
8913.17,-1.04
9002.30,-1.12
9092.32,-1.23
9183.25,-1.37
9275.08,-1.54
9367.83,-1.75
9461.51,-2.03
9556.12,-2.36
9651.68,-2.72
9748.20,-3.09
9845.68,-3.45
9944.14,-3.78
10043.58,-4.05
10144.02,-4.27
10245.46,-4.44
10347.91,-4.55
10451.39,-4.63
10555.91,-4.69
10661.46,-4.72
10768.08,-4.73
10875.76,-4.72
10984.52,-4.68
11094.36,-4.63
11205.31,-4.57
11317.36,-4.49
11430.53,-4.40
11544.84,-4.32
11660.29,-4.23
11776.89,-4.15
11894.66,-4.08
12013.60,-4.02
12133.74,-4.01
12255.08,-4.02
12377.63,-4.06
12501.41,-4.13
12626.42,-4.20
12752.68,-4.27
12880.21,-4.32
13009.01,-4.35
13139.10,-4.36
13270.49,-4.35
13403.20,-4.32
13537.23,-4.29
13672.60,-4.28
13809.33,-4.30
13947.42,-4.36
14086.90,-4.46
14227.77,-4.62
14370.04,-4.82
14513.74,-5.06
14658.88,-5.36
14805.47,-5.68
14953.52,-6.02
15103.06,-6.38
15254.09,-6.72
15406.63,-7.04
15560.70,-7.35
15716.30,-7.64
15873.47,-7.92
16032.20,-8.18
16192.52,-8.41
16354.45,-8.57
16517.99,-8.70
16683.17,-8.75
16850.01,-8.81
17018.51,-8.92
17188.69,-9.13
17360.58,-9.59
17534.18,-10.23
17709.53,-11.13
17886.62,-12.28
18065.49,-13.51
18246.14,-14.81
18428.60,-15.96
18612.89,-16.99
18799.02,-17.90
18987.01,-18.68
19176.88,-19.42
19368.65,-20.15
19562.33,-20.88
19757.96,-21.49
19955.54,-22.08
