frequency,raw
20.00,-0.97
20.20,-0.98
20.40,-0.99
20.61,-1.00
20.81,-1.01
21.02,-1.02
21.23,-1.02
21.44,-0.97
21.66,-0.93
21.87,-0.87
22.09,-0.79
22.31,-0.71
22.54,-0.63
22.76,-0.57
22.99,-0.50
23.22,-0.45
23.45,-0.41
23.69,-0.37
23.92,-0.33
24.16,-0.30
24.40,-0.26
24.65,-0.22
24.89,-0.18
25.14,-0.14
25.39,-0.09
25.65,-0.04
25.91,0.01
26.16,0.07
26.43,0.13
26.69,0.18
26.96,0.23
27.23,0.27
27.50,0.30
27.77,0.34
28.05,0.37
28.33,0.41
28.62,0.46
28.90,0.50
29.19,0.54
29.48,0.59
29.78,0.63
30.08,0.66
30.38,0.68
30.68,0.69
30.99,0.71
31.30,0.74
31.61,0.77
31.93,0.83
32.24,0.89
32.57,0.94
32.89,0.99
33.22,1.03
33.55,1.07
33.89,1.07
34.23,1.07
34.57,1.08
34.92,1.09
35.27,1.10
35.62,1.12
35.97,1.15
36.33,1.18
36.70,1.22
37.06,1.26
37.43,1.29
37.81,1.33
38.19,1.36
38.57,1.39
38.95,1.43
39.34,1.46
39.74,1.49
40.14,1.52
40.54,1.54
40.94,1.57
41.35,1.59
41.76,1.61
42.18,1.62
42.60,1.64
43.03,1.66
43.46,1.68
43.90,1.69
44.33,1.69
44.78,1.69
45.23,1.70
45.68,1.72
46.13,1.74
46.60,1.75
47.06,1.77
47.53,1.79
48.01,1.79
48.49,1.80
48.97,1.80
49.46,1.81
49.96,1.81
50.46,1.84
50.96,1.88
51.47,1.91
51.99,1.93
52.51,1.96
53.03,1.98
53.56,1.99
54.10,1.99
54.64,2.00
55.18,2.00
55.74,2.01
56.29,2.01
56.86,2.02
57.42,2.02
58.00,2.03
58.58,2.04
59.16,2.06
59.76,2.08
60.35,2.08
60.96,2.08
61.57,2.07
62.18,2.06
62.80,2.05
63.43,2.05
64.07,2.05
64.71,2.06
65.35,2.07
66.01,2.08
66.67,2.10
67.33,2.11
68.01,2.13
68.69,2.14
69.37,2.14
70.07,2.14
70.77,2.14
71.48,2.14
72.19,2.15
72.91,2.15
73.64,2.15
74.38,2.15
75.12,2.15
75.87,2.15
76.63,2.15
77.40,2.15
78.17,2.15
78.95,2.15
79.74,2.16
80.54,2.16
81.35,2.16
82.16,2.16
82.98,2.16
83.81,2.16
84.65,2.15
85.50,2.15
86.35,2.15
87.22,2.15
88.09,2.15
88.97,2.14
89.86,2.13
90.76,2.12
91.66,2.11
92.58,2.11
93.51,2.11
94.44,2.10
95.39,2.10
96.34,2.10
97.30,2.09
98.28,2.08
99.26,2.08
100.25,2.07
101.25,2.06
102.27,2.05
103.29,2.04
104.32,2.03
105.37,2.03
106.42,2.02
107.48,2.01
108.56,2.01
109.64,2.00
110.74,1.99
111.85,1.98
112.97,1.98
114.10,1.97
115.24,1.96
116.39,1.94
117.55,1.93
118.73,1.92
119.92,1.90
121.12,1.89
122.33,1.88
123.55,1.86
124.79,1.85
126.03,1.84
127.29,1.82
128.57,1.81
129.85,1.80
131.15,1.79
132.46,1.78
133.79,1.76
135.12,1.74
136.48,1.73
137.84,1.71
139.22,1.69
140.61,1.67
142.02,1.65
143.44,1.63
144.87,1.62
146.32,1.60
147.78,1.58
149.26,1.56
150.75,1.54
152.26,1.52
153.78,1.50
155.32,1.48
156.88,1.46
158.44,1.44
160.03,1.42
161.63,1.40
163.24,1.38
164.88,1.36
166.53,1.33
168.19,1.31
169.87,1.29
171.57,1.27
173.29,1.24
175.02,1.22
176.77,1.20
178.54,1.18
180.32,1.15
182.13,1.13
183.95,1.10
185.79,1.08
187.65,1.05
189.52,1.02
191.42,1.00
193.33,0.97
195.27,0.94
197.22,0.91
199.19,0.89
201.18,0.86
203.19,0.83
205.23,0.80
207.28,0.77
209.35,0.74
211.44,0.71
213.56,0.68
215.69,0.65
217.85,0.62
220.03,0.59
222.23,0.55
224.45,0.52
226.70,0.49
228.96,0.46
231.25,0.43
233.57,0.39
235.90,0.36
238.26,0.33
240.64,0.30
243.05,0.27
245.48,0.23
247.93,0.20
250.41,0.17
252.92,0.14
255.45,0.10
258.00,0.07
260.58,0.04
263.19,0.01
265.82,-0.02
268.48,-0.06
271.16,-0.09
273.87,-0.12
276.61,-0.15
279.38,-0.18
282.17,-0.21
284.99,-0.24
287.84,-0.27
290.72,-0.30
293.63,-0.33
296.57,-0.37
299.53,-0.40
302.53,-0.43
305.55,-0.46
308.61,-0.49
311.69,-0.52
314.81,-0.55
317.96,-0.59
321.14,-0.62
324.35,-0.65
327.59,-0.69
330.87,-0.72
334.18,-0.75
337.52,-0.78
340.90,-0.82
344.30,-0.85
347.75,-0.88
351.23,-0.91
354.74,-0.95
358.28,-0.98
361.87,-1.01
365.49,-1.04
369.14,-1.07
372.83,-1.10
376.56,-1.14
380.33,-1.17
384.13,-1.20
387.97,-1.23
391.85,-1.26
395.77,-1.29
399.73,-1.32
403.72,-1.35
407.76,-1.38
411.84,-1.41
415.96,-1.44
420.12,-1.47
424.32,-1.50
428.56,-1.53
432.85,-1.56
437.18,-1.59
441.55,-1.62
445.96,-1.65
450.42,-1.68
454.93,-1.70
459.48,-1.73
464.07,-1.76
468.71,-1.78
473.40,-1.81
478.13,-1.83
482.91,-1.86
487.74,-1.88
492.62,-1.91
497.55,-1.93
502.52,-1.95
507.55,-1.97
512.62,-1.99
517.75,-2.01
522.93,-2.04
528.16,-2.06
533.44,-2.07
538.77,-2.09
544.16,-2.11
549.60,-2.12
555.10,-2.14
560.65,-2.16
566.25,-2.17
571.92,-2.18
577.64,-2.20
583.41,-2.21
589.25,-2.22
595.14,-2.24
601.09,-2.25
607.10,-2.25
613.17,-2.26
619.30,-2.27
625.50,-2.27
631.75,-2.28
638.07,-2.28
644.45,-2.28
650.89,-2.29
657.40,-2.28
663.98,-2.28
670.62,-2.28
677.32,-2.28
684.10,-2.27
690.94,-2.27
697.85,-2.26
704.83,-2.25
711.87,-2.24
718.99,-2.22
726.18,-2.21
733.44,-2.19
740.78,-2.17
748.19,-2.15
755.67,-2.12
763.23,-2.09
770.86,-2.07
778.57,-2.03
786.35,-2.00
794.22,-1.96
802.16,-1.92
810.18,-1.87
818.28,-1.83
826.46,-1.78
834.73,-1.72
843.08,-1.66
851.51,-1.60
860.02,-1.53
868.62,-1.46
877.31,-1.38
886.08,-1.30
894.94,-1.21
903.89,-1.12
912.93,-1.02
922.06,-0.93
931.28,-0.82
940.59,-0.71
950.00,-0.61
959.50,-0.49
969.09,-0.38
978.78,-0.26
988.57,-0.14
998.46,-0.02
1008.44,0.10
1018.53,0.23
1028.71,0.35
1039.00,0.48
1049.39,0.61
1059.88,0.73
1070.48,0.86
1081.19,0.99
1092.00,1.11
1102.92,1.24
1113.95,1.36
1125.09,1.48
1136.34,1.60
1147.70,1.71
1159.18,1.82
1170.77,1.93
1182.48,2.03
1194.30,2.13
1206.25,2.22
1218.31,2.32
1230.49,2.41
1242.80,2.49
1255.22,2.57
1267.78,2.65
1280.45,2.73
1293.26,2.81
1306.19,2.89
1319.25,2.96
1332.45,3.04
1345.77,3.11
1359.23,3.19
1372.82,3.26
1386.55,3.34
1400.41,3.42
1414.42,3.50
1428.56,3.58
1442.85,3.66
1457.28,3.75
1471.85,3.83
1486.57,3.92
1501.43,4.01
1516.45,4.10
1531.61,4.20
1546.93,4.29
1562.40,4.39
1578.02,4.49
1593.80,4.59
1609.74,4.69
1625.84,4.80
1642.10,4.90
1658.52,5.01
1675.10,5.12
1691.85,5.23
1708.77,5.35
1725.86,5.46
1743.12,5.57
1760.55,5.69
1778.15,5.81
1795.94,5.93
1813.90,6.05
1832.03,6.17
1850.36,6.29
1868.86,6.40
1887.55,6.52
1906.42,6.64
1925.49,6.76
1944.74,6.88
1964.19,6.99
1983.83,7.10
2003.67,7.21
2023.71,7.31
2043.94,7.41
2064.38,7.51
2085.03,7.60
2105.88,7.69
2126.94,7.77
2148.20,7.83
2169.69,7.90
2191.38,7.95
2213.30,8.00
2235.43,8.04
2257.78,8.06
2280.36,8.08
2303.17,8.10
2326.20,8.09
2349.46,8.08
2372.95,8.05
2396.68,8.02
2420.65,7.98
2444.86,7.93
2469.31,7.86
2494.00,7.80
2518.94,7.71
2544.13,7.63
2569.57,7.54
2595.27,7.44
2621.22,7.33
2647.43,7.22
2673.90,7.10
2700.64,6.98
2727.65,6.85
2754.93,6.72
2782.48,6.59
2810.30,6.46
2838.40,6.33
2866.79,6.19
2895.46,6.06
2924.41,5.92
2953.65,5.79
2983.19,5.66
3013.02,5.52
3043.15,5.40
3073.58,5.27
3104.32,5.14
3135.36,5.02
3166.72,4.90
3198.38,4.78
3230.37,4.66
3262.67,4.55
3295.30,4.45
3328.25,4.34
3361.53,4.24
3395.15,4.14
3429.10,4.04
3463.39,3.95
3498.03,3.87
3533.01,3.78
3568.34,3.70
3604.02,3.63
3640.06,3.55
3676.46,3.48
3713.22,3.42
3750.36,3.35
3787.86,3.29
3825.74,3.24
3864.00,3.18
3902.64,3.13
3941.66,3.08
3981.08,3.03
4020.89,2.98
4061.10,2.93
4101.71,2.88
4142.73,2.84
4184.15,2.79
4226.00,2.74
4268.26,2.69
4310.94,2.64
4354.05,2.59
4397.59,2.53
4441.56,2.47
4485.98,2.41
4530.84,2.35
4576.15,2.28
4621.91,2.20
4668.13,2.12
4714.81,2.04
4761.96,1.95
4809.58,1.85
4857.67,1.75
4906.25,1.64
4955.31,1.53
5004.87,1.41
5054.91,1.28
5105.46,1.16
5156.52,1.03
5208.08,0.89
5260.16,0.76
5312.77,0.62
5365.89,0.48
5419.55,0.35
5473.75,0.21
5528.49,0.08
5583.77,-0.06
5639.61,-0.18
5696.00,-0.30
5752.96,-0.42
5810.49,-0.54
5868.60,-0.63
5927.28,-0.73
5986.56,-0.82
6046.42,-0.89
6106.89,-0.95
6167.96,-1.00
6229.64,-1.04
6291.93,-1.07
6354.85,-1.07
6418.40,-1.06
6482.58,-1.05
6547.41,-1.02
6612.88,-0.97
6679.01,-0.93
6745.80,-0.84
6813.26,-0.75
6881.39,-0.65
6950.21,-0.47
7019.71,-0.26
7089.91,-0.05
7160.81,0.31
7232.41,0.70
7304.74,1.10
7377.79,1.66
7451.56,2.21
7526.08,2.77
7601.34,3.34
7677.35,3.91
7754.13,4.45
7831.67,4.62
7909.98,4.79
7989.08,4.96
8068.98,4.56
8149.67,4.07
8231.16,3.58
8313.47,2.73
8396.61,1.79
8480.57,0.84
8565.38,-0.17
8651.03,-1.19
8737.54,-2.21
8824.92,-3.09
8913.17,-3.96
9002.30,-4.82
9092.32,-5.50
9183.25,-6.17
9275.08,-6.81
9367.83,-7.32
9461.51,-7.84
9556.12,-8.28
9651.68,-8.67
9748.20,-9.06
9845.68,-9.36
9944.14,-9.65
10043.58,-9.90
10144.02,-10.10
10245.46,-10.30
10347.91,-10.46
10451.39,-10.59
10555.91,-10.71
10661.46,-10.80
10768.08,-10.86
10875.76,-10.92
10984.52,-10.95
11094.36,-10.97
11205.31,-10.99
11317.36,-11.01
11430.53,-11.03
11544.84,-11.08
11660.29,-11.15
11776.89,-11.23
11894.66,-11.37
12013.60,-11.52
12133.74,-11.68
12255.08,-11.86
12377.63,-12.07
12501.41,-12.28
12626.42,-12.60
12752.68,-12.91
12880.21,-13.29
13009.01,-13.70
13139.10,-14.11
13270.49,-14.52
13403.20,-14.95
13537.23,-15.37
13672.60,-15.71
13809.33,-15.97
13947.42,-16.23
14086.90,-16.14
14227.77,-15.83
14370.04,-15.52
14513.74,-15.15
14658.88,-14.18
14805.47,-13.21
14953.52,-12.24
15103.06,-11.31
15254.09,-10.39
15406.63,-9.48
15560.70,-8.87
15716.30,-8.72
15873.47,-8.58
16032.20,-8.62
16192.52,-9.38
16354.45,-10.15
16517.99,-10.96
16683.17,-12.15
16850.01,-13.33
17018.51,-14.52
17188.69,-15.67
17360.58,-16.81
17534.18,-17.94
17709.53,-18.98
17886.62,-20.02
18065.49,-21.03
18246.14,-21.98
18428.60,-22.94
18612.89,-23.77
18799.02,-24.53
18987.01,-25.28
19176.88,-25.65
19368.65,-25.99
19562.33,-26.25
19757.96,-26.34
19955.54,-26.43
