frequency,raw
20.00,7.32
20.20,7.35
20.40,7.38
20.61,7.41
20.81,7.44
21.02,7.47
21.23,7.50
21.44,7.53
21.66,7.55
21.87,7.58
22.09,7.60
22.31,7.61
22.54,7.63
22.76,7.65
22.99,7.66
23.22,7.68
23.45,7.69
23.69,7.71
23.92,7.73
24.16,7.75
24.40,7.77
24.65,7.79
24.89,7.80
25.14,7.82
25.39,7.83
25.65,7.84
25.91,7.85
26.16,7.86
26.43,7.86
26.69,7.87
26.96,7.88
27.23,7.88
27.50,7.88
27.77,7.89
28.05,7.89
28.33,7.89
28.62,7.89
28.90,7.90
29.19,7.90
29.48,7.90
29.78,7.90
30.08,7.90
30.38,7.90
30.68,7.90
30.99,7.89
31.30,7.89
31.61,7.88
31.93,7.88
32.24,7.87
32.57,7.86
32.89,7.85
33.22,7.85
33.55,7.84
33.89,7.82
34.23,7.81
34.57,7.79
34.92,7.77
35.27,7.76
35.62,7.74
35.97,7.73
36.33,7.71
36.70,7.70
37.06,7.68
37.43,7.66
37.81,7.64
38.19,7.62
38.57,7.60
38.95,7.58
39.34,7.55
39.74,7.53
40.14,7.50
40.54,7.48
40.94,7.45
41.35,7.42
41.76,7.39
42.18,7.36
42.60,7.33
43.03,7.31
43.46,7.28
43.90,7.25
44.33,7.21
44.78,7.18
45.23,7.15
45.68,7.12
46.13,7.08
46.60,7.05
47.06,7.01
47.53,6.97
48.01,6.94
48.49,6.90
48.97,6.86
49.46,6.82
49.96,6.78
50.46,6.73
50.96,6.69
51.47,6.64
51.99,6.60
52.51,6.55
53.03,6.51
53.56,6.46
54.10,6.42
54.64,6.37
55.18,6.32
55.74,6.27
56.29,6.22
56.86,6.16
57.42,6.11
58.00,6.06
58.58,6.00
59.16,5.95
59.76,5.89
60.35,5.84
60.96,5.78
61.57,5.73
62.18,5.67
62.80,5.61
63.43,5.55
64.07,5.49
64.71,5.43
65.35,5.37
66.01,5.30
66.67,5.24
67.33,5.18
68.01,5.11
68.69,5.05
69.37,4.98
70.07,4.92
70.77,4.85
71.48,4.78
72.19,4.71
72.91,4.65
73.64,4.58
74.38,4.51
75.12,4.43
75.87,4.36
76.63,4.29
77.40,4.21
78.17,4.14
78.95,4.06
79.74,3.99
80.54,3.91
81.35,3.84
82.16,3.76
82.98,3.68
83.81,3.61
84.65,3.53
85.50,3.45
86.35,3.37
87.22,3.29
88.09,3.21
88.97,3.12
89.86,3.04
90.76,2.96
91.66,2.88
92.58,2.79
93.51,2.71
94.44,2.63
95.39,2.54
96.34,2.46
97.30,2.37
98.28,2.28
99.26,2.20
100.25,2.11
101.25,2.02
102.27,1.93
103.29,1.84
104.32,1.76
105.37,1.67
106.42,1.58
107.48,1.50
108.56,1.41
109.64,1.32
110.74,1.24
111.85,1.15
112.97,1.06
114.10,0.97
115.24,0.89
116.39,0.80
117.55,0.71
118.73,0.63
119.92,0.54
121.12,0.46
122.33,0.37
123.55,0.29
124.79,0.20
126.03,0.12
127.29,0.04
128.57,-0.05
129.85,-0.13
131.15,-0.21
132.46,-0.29
133.79,-0.37
135.12,-0.45
136.48,-0.52
137.84,-0.60
139.22,-0.68
140.61,-0.75
142.02,-0.82
143.44,-0.90
144.87,-0.97
146.32,-1.04
147.78,-1.11
149.26,-1.18
150.75,-1.24
152.26,-1.31
153.78,-1.37
155.32,-1.43
156.88,-1.49
158.44,-1.55
160.03,-1.60
161.63,-1.66
163.24,-1.71
164.88,-1.76
166.53,-1.81
168.19,-1.86
169.87,-1.90
171.57,-1.94
173.29,-1.99
175.02,-2.03
176.77,-2.06
178.54,-2.10
180.32,-2.13
182.13,-2.16
183.95,-2.20
185.79,-2.22
187.65,-2.25
189.52,-2.28
191.42,-2.30
193.33,-2.32
195.27,-2.34
197.22,-2.36
199.19,-2.38
201.18,-2.39
203.19,-2.41
205.23,-2.42
207.28,-2.43
209.35,-2.44
211.44,-2.45
213.56,-2.45
215.69,-2.46
217.85,-2.46
220.03,-2.46
222.23,-2.46
224.45,-2.46
226.70,-2.46
228.96,-2.46
231.25,-2.45
233.57,-2.45
235.90,-2.44
238.26,-2.43
240.64,-2.43
243.05,-2.42
245.48,-2.41
247.93,-2.40
250.41,-2.39
252.92,-2.38
255.45,-2.37
258.00,-2.35
260.58,-2.34
263.19,-2.33
265.82,-2.31
268.48,-2.30
271.16,-2.28
273.87,-2.26
276.61,-2.25
279.38,-2.23
282.17,-2.21
284.99,-2.19
287.84,-2.18
290.72,-2.16
293.63,-2.14
296.57,-2.12
299.53,-2.10
302.53,-2.08
305.55,-2.06
308.61,-2.04
311.69,-2.02
314.81,-2.00
317.96,-1.98
321.14,-1.97
324.35,-1.95
327.59,-1.93
330.87,-1.91
334.18,-1.89
337.52,-1.87
340.90,-1.85
344.30,-1.84
347.75,-1.82
351.23,-1.80
354.74,-1.78
358.28,-1.76
361.87,-1.75
365.49,-1.73
369.14,-1.71
372.83,-1.70
376.56,-1.68
380.33,-1.67
384.13,-1.65
387.97,-1.64
391.85,-1.62
395.77,-1.61
399.73,-1.60
403.72,-1.59
407.76,-1.58
411.84,-1.57
415.96,-1.57
420.12,-1.56
424.32,-1.55
428.56,-1.54
432.85,-1.54
437.18,-1.53
441.55,-1.53
445.96,-1.52
450.42,-1.52
454.93,-1.52
459.48,-1.51
464.07,-1.51
468.71,-1.51
473.40,-1.50
478.13,-1.50
482.91,-1.49
487.74,-1.49
492.62,-1.48
497.55,-1.48
502.52,-1.47
507.55,-1.47
512.62,-1.47
517.75,-1.46
522.93,-1.46
528.16,-1.46
533.44,-1.45
538.77,-1.45
544.16,-1.44
549.60,-1.44
555.10,-1.44
560.65,-1.43
566.25,-1.43
571.92,-1.42
577.64,-1.42
583.41,-1.41
589.25,-1.41
595.14,-1.40
601.09,-1.40
607.10,-1.39
613.17,-1.38
619.30,-1.38
625.50,-1.37
631.75,-1.36
638.07,-1.36
644.45,-1.35
650.89,-1.34
657.40,-1.33
663.98,-1.32
670.62,-1.32
677.32,-1.31
684.10,-1.30
690.94,-1.28
697.85,-1.27
704.83,-1.26
711.87,-1.25
718.99,-1.24
726.18,-1.22
733.44,-1.21
740.78,-1.19
748.19,-1.17
755.67,-1.16
763.23,-1.14
770.86,-1.12
778.57,-1.10
786.35,-1.08
794.22,-1.05
802.16,-1.03
810.18,-1.00
818.28,-0.97
826.46,-0.95
834.73,-0.91
843.08,-0.88
851.51,-0.84
860.02,-0.81
868.62,-0.77
877.31,-0.73
886.08,-0.69
894.94,-0.64
903.89,-0.60
912.93,-0.55
922.06,-0.49
931.28,-0.44
940.59,-0.38
950.00,-0.33
959.50,-0.27
969.09,-0.21
978.78,-0.15
988.57,-0.08
998.46,-0.01
1008.44,0.06
1018.53,0.13
1028.71,0.20
1039.00,0.27
1049.39,0.35
1059.88,0.42
1070.48,0.50
1081.19,0.57
1092.00,0.65
1102.92,0.73
1113.95,0.80
1125.09,0.88
1136.34,0.96
1147.70,1.03
1159.18,1.11
1170.77,1.18
1182.48,1.26
1194.30,1.33
1206.25,1.40
1218.31,1.47
1230.49,1.54
1242.80,1.61
1255.22,1.67
1267.78,1.74
1280.45,1.80
1293.26,1.86
1306.19,1.93
1319.25,1.99
1332.45,2.04
1345.77,2.10
1359.23,2.16
1372.82,2.21
1386.55,2.26
1400.41,2.31
1414.42,2.36
1428.56,2.41
1442.85,2.46
1457.28,2.50
1471.85,2.55
1486.57,2.60
1501.43,2.64
1516.45,2.69
1531.61,2.73
1546.93,2.77
1562.40,2.82
1578.02,2.86
1593.80,2.90
1609.74,2.95
1625.84,2.99
1642.10,3.03
1658.52,3.08
1675.10,3.12
1691.85,3.16
1708.77,3.21
1725.86,3.25
1743.12,3.30
1760.55,3.34
1778.15,3.39
1795.94,3.43
1813.90,3.48
1832.03,3.53
1850.36,3.57
1868.86,3.62
1887.55,3.67
1906.42,3.71
1925.49,3.76
1944.74,3.81
1964.19,3.86
1983.83,3.91
2003.67,3.96
2023.71,4.01
2043.94,4.07
2064.38,4.12
2085.03,4.17
2105.88,4.22
2126.94,4.27
2148.20,4.32
2169.69,4.37
2191.38,4.42
2213.30,4.47
2235.43,4.52
2257.78,4.57
2280.36,4.63
2303.17,4.68
2326.20,4.72
2349.46,4.77
2372.95,4.81
2396.68,4.86
2420.65,4.90
2444.86,4.94
2469.31,4.98
2494.00,5.02
2518.94,5.06
2544.13,5.09
2569.57,5.12
2595.27,5.15
2621.22,5.18
2647.43,5.20
2673.90,5.22
2700.64,5.24
2727.65,5.26
2754.93,5.27
2782.48,5.28
2810.30,5.29
2838.40,5.29
2866.79,5.29
2895.46,5.28
2924.41,5.27
2953.65,5.26
2983.19,5.25
3013.02,5.24
3043.15,5.22
3073.58,5.19
3104.32,5.17
3135.36,5.14
3166.72,5.10
3198.38,5.07
3230.37,5.03
3262.67,4.99
3295.30,4.95
3328.25,4.91
3361.53,4.87
3395.15,4.82
3429.10,4.78
3463.39,4.73
3498.03,4.68
3533.01,4.63
3568.34,4.58
3604.02,4.52
3640.06,4.46
3676.46,4.40
3713.22,4.34
3750.36,4.27
3787.86,4.20
3825.74,4.13
3864.00,4.05
3902.64,3.96
3941.66,3.87
3981.08,3.78
4020.89,3.68
4061.10,3.57
4101.71,3.46
4142.73,3.34
4184.15,3.21
4226.00,3.07
4268.26,2.93
4310.94,2.77
4354.05,2.62
4397.59,2.44
4441.56,2.26
4485.98,2.08
4530.84,1.89
4576.15,1.69
4621.91,1.49
4668.13,1.27
4714.81,1.06
4761.96,0.85
4809.58,0.63
4857.67,0.41
4906.25,0.20
4955.31,-0.01
5004.87,-0.22
5054.91,-0.42
5105.46,-0.63
5156.52,-0.83
5208.08,-1.02
5260.16,-1.21
5312.77,-1.39
5365.89,-1.56
5419.55,-1.73
5473.75,-1.89
5528.49,-2.03
5583.77,-2.17
5639.61,-2.28
5696.00,-2.38
5752.96,-2.48
5810.49,-2.56
5868.60,-2.60
5927.28,-2.64
5986.56,-2.67
6046.42,-2.66
6106.89,-2.64
6167.96,-2.60
6229.64,-2.51
6291.93,-2.42
6354.85,-2.27
6418.40,-2.10
6482.58,-1.93
6547.41,-1.69
6612.88,-1.42
6679.01,-1.15
6745.80,-0.82
6813.26,-0.45
6881.39,-0.08
6950.21,0.33
7019.71,0.77
7089.91,1.20
7160.81,1.64
7232.41,2.08
7304.74,2.52
7377.79,2.89
7451.56,3.26
7526.08,3.59
7601.34,3.83
7677.35,4.07
7754.13,4.30
7831.67,4.40
7909.98,4.50
7989.08,4.60
8068.98,4.62
8149.67,4.63
8231.16,4.64
8313.47,4.59
8396.61,4.53
8480.57,4.47
8565.38,4.34
8651.03,4.19
8737.54,4.04
8824.92,3.82
8913.17,3.58
9002.30,3.34
9092.32,3.02
9183.25,2.70
9275.08,2.36
9367.83,1.99
9461.51,1.61
9556.12,1.21
9651.68,0.78
9748.20,0.36
9845.68,-0.11
9944.14,-0.58
10043.58,-1.07
10144.02,-1.58
10245.46,-2.10
10347.91,-2.62
10451.39,-3.16
10555.91,-3.70
10661.46,-4.21
10768.08,-4.70
10875.76,-5.19
10984.52,-5.60
11094.36,-6.00
11205.31,-6.39
11317.36,-6.66
11430.53,-6.94
11544.84,-7.16
11660.29,-7.30
11776.89,-7.43
11894.66,-7.44
12013.60,-7.41
12133.74,-7.38
12255.08,-7.27
12377.63,-7.08
12501.41,-6.88
12626.42,-6.54
12752.68,-6.20
12880.21,-5.77
13009.01,-5.28
13139.10,-4.79
13270.49,-4.25
13403.20,-3.67
13537.23,-3.09
13672.60,-2.54
13809.33,-2.02
13947.42,-1.49
14086.90,-1.14
14227.77,-0.88
14370.04,-0.62
14513.74,-0.39
14658.88,-0.40
14805.47,-0.42
14953.52,-0.44
15103.06,-0.48
15254.09,-0.54
15406.63,-0.60
15560.70,-0.59
15716.30,-0.46
15873.47,-0.34
16032.20,-0.19
16192.52,0.09
16354.45,0.36
16517.99,0.59
16683.17,0.49
16850.01,0.39
17018.51,0.21
17188.69,-0.62
17360.58,-1.44
17534.18,-2.37
17709.53,-3.75
17886.62,-5.13
18065.49,-6.54
18246.14,-7.99
18428.60,-9.44
18612.89,-10.66
18799.02,-11.74
18987.01,-12.81
19176.88,-13.46
19368.65,-14.07
19562.33,-14.61
19757.96,-14.98
19955.54,-15.36
