frequency,raw
20.00,3.35
20.20,3.40
20.40,3.45
20.61,3.50
20.81,3.54
21.02,3.59
21.23,3.64
21.44,3.69
21.66,3.74
21.87,3.79
22.09,3.83
22.31,3.88
22.54,3.92
22.76,3.97
22.99,4.02
23.22,4.06
23.45,4.11
23.69,4.16
23.92,4.20
24.16,4.24
24.40,4.28
24.65,4.32
24.89,4.35
25.14,4.37
25.39,4.39
25.65,4.40
25.91,4.42
26.16,4.43
26.43,4.45
26.69,4.49
26.96,4.53
27.23,4.58
27.50,4.64
27.77,4.70
28.05,4.76
28.33,4.80
28.62,4.83
28.90,4.87
29.19,4.89
29.48,4.91
29.78,4.93
30.08,4.95
30.38,4.97
30.68,4.99
30.99,5.02
31.30,5.04
31.61,5.06
31.93,5.07
32.24,5.09
32.57,5.10
32.89,5.12
33.22,5.14
33.55,5.16
33.89,5.17
34.23,5.19
34.57,5.21
34.92,5.23
35.27,5.24
35.62,5.27
35.97,5.31
36.33,5.34
36.70,5.37
37.06,5.40
37.43,5.42
37.81,5.44
38.19,5.45
38.57,5.46
38.95,5.49
39.34,5.52
39.74,5.55
40.14,5.57
40.54,5.57
40.94,5.56
41.35,5.56
41.76,5.54
42.18,5.53
42.60,5.53
43.03,5.55
43.46,5.57
43.90,5.59
44.33,5.61
44.78,5.63
45.23,5.64
45.68,5.64
46.13,5.64
46.60,5.64
47.06,5.64
47.53,5.64
48.01,5.64
48.49,5.64
48.97,5.64
49.46,5.64
49.96,5.63
50.46,5.62
50.96,5.62
51.47,5.61
51.99,5.60
52.51,5.60
53.03,5.60
53.56,5.59
54.10,5.59
54.64,5.58
55.18,5.57
55.74,5.56
56.29,5.56
56.86,5.55
57.42,5.54
58.00,5.54
58.58,5.53
59.16,5.52
59.76,5.51
60.35,5.51
60.96,5.50
61.57,5.49
62.18,5.48
62.80,5.47
63.43,5.45
64.07,5.45
64.71,5.44
65.35,5.42
66.01,5.40
66.67,5.38
67.33,5.36
68.01,5.34
68.69,5.33
69.37,5.31
70.07,5.29
70.77,5.27
71.48,5.26
72.19,5.25
72.91,5.24
73.64,5.22
74.38,5.20
75.12,5.18
75.87,5.15
76.63,5.13
77.40,5.10
78.17,5.08
78.95,5.06
79.74,5.04
80.54,5.02
81.35,5.00
82.16,4.98
82.98,4.96
83.81,4.93
84.65,4.91
85.50,4.89
86.35,4.87
87.22,4.86
88.09,4.84
88.97,4.83
89.86,4.82
90.76,4.79
91.66,4.76
92.58,4.74
93.51,4.70
94.44,4.67
95.39,4.64
96.34,4.61
97.30,4.58
98.28,4.55
99.26,4.52
100.25,4.49
101.25,4.46
102.27,4.43
103.29,4.40
104.32,4.36
105.37,4.33
106.42,4.29
107.48,4.26
108.56,4.23
109.64,4.19
110.74,4.16
111.85,4.13
112.97,4.09
114.10,4.06
115.24,4.03
116.39,3.99
117.55,3.96
118.73,3.92
119.92,3.89
121.12,3.85
122.33,3.82
123.55,3.78
124.79,3.75
126.03,3.71
127.29,3.67
128.57,3.63
129.85,3.59
131.15,3.55
132.46,3.51
133.79,3.47
135.12,3.43
136.48,3.39
137.84,3.35
139.22,3.31
140.61,3.27
142.02,3.23
143.44,3.19
144.87,3.15
146.32,3.11
147.78,3.07
149.26,3.02
150.75,2.98
152.26,2.94
153.78,2.90
155.32,2.85
156.88,2.81
158.44,2.77
160.03,2.73
161.63,2.69
163.24,2.64
164.88,2.60
166.53,2.55
168.19,2.51
169.87,2.47
171.57,2.42
173.29,2.38
175.02,2.34
176.77,2.30
178.54,2.26
180.32,2.22
182.13,2.18
183.95,2.14
185.79,2.10
187.65,2.06
189.52,2.02
191.42,1.99
193.33,1.95
195.27,1.92
197.22,1.88
199.19,1.85
201.18,1.81
203.19,1.78
205.23,1.74
207.28,1.71
209.35,1.67
211.44,1.63
213.56,1.60
215.69,1.56
217.85,1.52
220.03,1.48
222.23,1.44
224.45,1.40
226.70,1.36
228.96,1.32
231.25,1.28
233.57,1.24
235.90,1.20
238.26,1.16
240.64,1.11
243.05,1.07
245.48,1.03
247.93,0.99
250.41,0.94
252.92,0.90
255.45,0.86
258.00,0.82
260.58,0.78
263.19,0.74
265.82,0.70
268.48,0.66
271.16,0.62
273.87,0.58
276.61,0.54
279.38,0.50
282.17,0.46
284.99,0.42
287.84,0.38
290.72,0.34
293.63,0.30
296.57,0.27
299.53,0.23
302.53,0.19
305.55,0.15
308.61,0.11
311.69,0.07
314.81,0.03
317.96,-0.01
321.14,-0.05
324.35,-0.09
327.59,-0.13
330.87,-0.17
334.18,-0.21
337.52,-0.24
340.90,-0.28
344.30,-0.32
347.75,-0.36
351.23,-0.40
354.74,-0.44
358.28,-0.48
361.87,-0.52
365.49,-0.56
369.14,-0.59
372.83,-0.63
376.56,-0.66
380.33,-0.70
384.13,-0.73
387.97,-0.77
391.85,-0.80
395.77,-0.83
399.73,-0.86
403.72,-0.89
407.76,-0.91
411.84,-0.94
415.96,-0.96
420.12,-0.99
424.32,-1.01
428.56,-1.03
432.85,-1.05
437.18,-1.07
441.55,-1.09
445.96,-1.11
450.42,-1.13
454.93,-1.15
459.48,-1.17
464.07,-1.19
468.71,-1.21
473.40,-1.24
478.13,-1.26
482.91,-1.28
487.74,-1.31
492.62,-1.33
497.55,-1.35
502.52,-1.37
507.55,-1.40
512.62,-1.43
517.75,-1.45
522.93,-1.48
528.16,-1.51
533.44,-1.52
538.77,-1.53
544.16,-1.54
549.60,-1.54
555.10,-1.54
560.65,-1.54
566.25,-1.54
571.92,-1.55
577.64,-1.55
583.41,-1.55
589.25,-1.56
595.14,-1.57
601.09,-1.58
607.10,-1.58
613.17,-1.59
619.30,-1.59
625.50,-1.60
631.75,-1.60
638.07,-1.61
644.45,-1.61
650.89,-1.61
657.40,-1.61
663.98,-1.61
670.62,-1.61
677.32,-1.61
684.10,-1.60
690.94,-1.60
697.85,-1.59
704.83,-1.58
711.87,-1.57
718.99,-1.56
726.18,-1.55
733.44,-1.54
740.78,-1.52
748.19,-1.51
755.67,-1.49
763.23,-1.47
770.86,-1.45
778.57,-1.42
786.35,-1.40
794.22,-1.37
802.16,-1.34
810.18,-1.30
818.28,-1.27
826.46,-1.23
834.73,-1.19
843.08,-1.15
851.51,-1.11
860.02,-1.06
868.62,-1.01
877.31,-0.96
886.08,-0.90
894.94,-0.84
903.89,-0.78
912.93,-0.72
922.06,-0.65
931.28,-0.58
940.59,-0.51
950.00,-0.43
959.50,-0.35
969.09,-0.27
978.78,-0.19
988.57,-0.10
998.46,-0.01
1008.44,0.08
1018.53,0.17
1028.71,0.26
1039.00,0.36
1049.39,0.45
1059.88,0.55
1070.48,0.64
1081.19,0.74
1092.00,0.83
1102.92,0.93
1113.95,1.02
1125.09,1.11
1136.34,1.21
1147.70,1.30
1159.18,1.39
1170.77,1.48
1182.48,1.57
1194.30,1.65
1206.25,1.74
1218.31,1.82
1230.49,1.90
1242.80,1.99
1255.22,2.06
1267.78,2.14
1280.45,2.22
1293.26,2.29
1306.19,2.37
1319.25,2.44
1332.45,2.51
1345.77,2.58
1359.23,2.65
1372.82,2.72
1386.55,2.79
1400.41,2.85
1414.42,2.92
1428.56,2.99
1442.85,3.05
1457.28,3.12
1471.85,3.19
1486.57,3.26
1501.43,3.32
1516.45,3.39
1531.61,3.46
1546.93,3.53
1562.40,3.60
1578.02,3.68
1593.80,3.75
1609.74,3.82
1625.84,3.89
1642.10,3.96
1658.52,4.03
1675.10,4.10
1691.85,4.17
1708.77,4.25
1725.86,4.32
1743.12,4.39
1760.55,4.46
1778.15,4.53
1795.94,4.60
1813.90,4.67
1832.03,4.75
1850.36,4.82
1868.86,4.89
1887.55,4.96
1906.42,5.02
1925.49,5.09
1944.74,5.15
1964.19,5.21
1983.83,5.27
2003.67,5.32
2023.71,5.38
2043.94,5.43
2064.38,5.48
2085.03,5.52
2105.88,5.56
2126.94,5.60
2148.20,5.63
2169.69,5.66
2191.38,5.68
2213.30,5.69
2235.43,5.70
2257.78,5.70
2280.36,5.70
2303.17,5.70
2326.20,5.68
2349.46,5.67
2372.95,5.65
2396.68,5.63
2420.65,5.61
2444.86,5.57
2469.31,5.54
2494.00,5.50
2518.94,5.45
2544.13,5.40
2569.57,5.36
2595.27,5.30
2621.22,5.25
2647.43,5.19
2673.90,5.13
2700.64,5.07
2727.65,5.01
2754.93,4.95
2782.48,4.89
2810.30,4.82
2838.40,4.76
2866.79,4.69
2895.46,4.63
2924.41,4.57
2953.65,4.51
2983.19,4.45
3013.02,4.40
3043.15,4.37
3073.58,4.34
3104.32,4.33
3135.36,4.32
3166.72,4.32
3198.38,4.33
3230.37,4.34
3262.67,4.35
3295.30,4.35
3328.25,4.35
3361.53,4.36
3395.15,4.36
3429.10,4.36
3463.39,4.37
3498.03,4.38
3533.01,4.38
3568.34,4.40
3604.02,4.41
3640.06,4.42
3676.46,4.45
3713.22,4.48
3750.36,4.51
3787.86,4.58
3825.74,4.64
3864.00,4.71
3902.64,4.80
3941.66,4.91
3981.08,5.01
4020.89,5.13
4061.10,5.26
4101.71,5.38
4142.73,5.51
4184.15,5.63
4226.00,5.75
4268.26,5.85
4310.94,5.94
4354.05,6.02
4397.59,6.06
4441.56,6.07
4485.98,6.08
4530.84,6.03
4576.15,5.94
4621.91,5.85
4668.13,5.67
4714.81,5.48
4761.96,5.28
4809.58,5.01
4857.67,4.75
4906.25,4.45
4955.31,4.15
5004.87,3.84
5054.91,3.52
5105.46,3.20
5156.52,2.89
5208.08,2.58
5260.16,2.27
5312.77,1.97
5365.89,1.68
5419.55,1.40
5473.75,1.12
5528.49,0.86
5583.77,0.60
5639.61,0.37
5696.00,0.14
5752.96,-0.09
5810.49,-0.30
5868.60,-0.48
5927.28,-0.66
5986.56,-0.84
6046.42,-0.98
6106.89,-1.10
6167.96,-1.22
6229.64,-1.30
6291.93,-1.38
6354.85,-1.41
6418.40,-1.44
6482.58,-1.47
6547.41,-1.45
6612.88,-1.41
6679.01,-1.37
6745.80,-1.28
6813.26,-1.17
6881.39,-1.06
6950.21,-0.88
7019.71,-0.67
7089.91,-0.46
7160.81,-0.14
7232.41,0.20
7304.74,0.55
7377.79,1.05
7451.56,1.56
7526.08,2.09
7601.34,2.70
7677.35,3.30
7754.13,3.89
7831.67,4.27
7909.98,4.65
7989.08,5.02
8068.98,4.89
8149.67,4.68
8231.16,4.47
8313.47,3.84
8396.61,3.08
8480.57,2.32
8565.38,1.42
8651.03,0.48
8737.54,-0.46
8824.92,-1.32
8913.17,-2.17
9002.30,-3.02
9092.32,-3.67
9183.25,-4.33
9275.08,-4.92
9367.83,-5.33
9461.51,-5.74
9556.12,-5.98
9651.68,-6.09
9748.20,-6.21
9845.68,-6.09
9944.14,-5.96
10043.58,-5.84
10144.02,-5.73
10245.46,-5.61
10347.91,-5.55
10451.39,-5.55
10555.91,-5.54
10661.46,-5.50
10768.08,-5.44
10875.76,-5.37
10984.52,-5.14
11094.36,-4.86
11205.31,-4.57
11317.36,-4.03
11430.53,-3.50
11544.84,-2.89
11660.29,-2.18
11776.89,-1.46
11894.66,-0.90
12013.60,-0.37
12133.74,0.17
12255.08,0.38
12377.63,0.23
12501.41,0.06
12626.42,-0.78
12752.68,-1.62
12880.21,-2.72
13009.01,-3.98
13139.10,-5.23
13270.49,-6.48
13403.20,-7.71
13537.23,-8.94
13672.60,-9.95
13809.33,-10.77
13947.42,-11.59
14086.90,-11.94
14227.77,-12.00
14370.04,-12.06
14513.74,-12.07
14658.88,-11.52
14805.47,-10.98
14953.52,-10.43
15103.06,-9.71
15254.09,-8.91
15406.63,-8.11
15560.70,-7.45
15716.30,-7.00
15873.47,-6.55
16032.20,-6.23
16192.52,-6.46
16354.45,-6.68
16517.99,-6.94
16683.17,-7.45
16850.01,-7.96
17018.51,-8.46
17188.69,-8.80
17360.58,-9.15
17534.18,-9.45
17709.53,-9.58
17886.62,-9.71
18065.49,-9.86
18246.14,-10.07
18428.60,-10.28
18612.89,-10.74
18799.02,-11.37
18987.01,-11.99
19176.88,-13.00
19368.65,-14.04
19562.33,-15.03
19757.96,-15.91
19955.54,-16.80
