frequency,raw
20.00,4.84
20.20,4.90
20.40,4.96
20.61,5.02
20.81,5.08
21.02,5.15
21.23,5.21
21.44,5.26
21.66,5.32
21.87,5.38
22.09,5.43
22.31,5.49
22.54,5.54
22.76,5.60
22.99,5.65
23.22,5.70
23.45,5.75
23.69,5.80
23.92,5.85
24.16,5.90
24.40,5.95
24.65,5.99
24.89,6.04
25.14,6.08
25.39,6.12
25.65,6.16
25.91,6.21
26.16,6.25
26.43,6.29
26.69,6.33
26.96,6.37
27.23,6.41
27.50,6.45
27.77,6.49
28.05,6.52
28.33,6.55
28.62,6.59
28.90,6.62
29.19,6.65
29.48,6.68
29.78,6.71
30.08,6.74
30.38,6.76
30.68,6.79
30.99,6.81
31.30,6.83
31.61,6.86
31.93,6.88
32.24,6.90
32.57,6.92
32.89,6.94
33.22,6.96
33.55,6.98
33.89,6.99
34.23,7.01
34.57,7.03
34.92,7.05
35.27,7.06
35.62,7.08
35.97,7.09
36.33,7.10
36.70,7.12
37.06,7.13
37.43,7.14
37.81,7.15
38.19,7.16
38.57,7.16
38.95,7.17
39.34,7.18
39.74,7.18
40.14,7.19
40.54,7.19
40.94,7.19
41.35,7.19
41.76,7.18
42.18,7.18
42.60,7.18
43.03,7.18
43.46,7.18
43.90,7.17
44.33,7.17
44.78,7.17
45.23,7.16
45.68,7.16
46.13,7.15
46.60,7.15
47.06,7.14
47.53,7.14
48.01,7.13
48.49,7.13
48.97,7.12
49.46,7.10
49.96,7.08
50.46,7.06
50.96,7.04
51.47,7.02
51.99,7.00
52.51,6.98
53.03,6.96
53.56,6.94
54.10,6.91
54.64,6.89
55.18,6.87
55.74,6.84
56.29,6.82
56.86,6.79
57.42,6.77
58.00,6.75
58.58,6.72
59.16,6.70
59.76,6.67
60.35,6.64
60.96,6.61
61.57,6.58
62.18,6.54
62.80,6.51
63.43,6.47
64.07,6.44
64.71,6.40
65.35,6.37
66.01,6.33
66.67,6.30
67.33,6.26
68.01,6.22
68.69,6.18
69.37,6.14
70.07,6.10
70.77,6.06
71.48,6.02
72.19,5.97
72.91,5.93
73.64,5.88
74.38,5.84
75.12,5.79
75.87,5.74
76.63,5.70
77.40,5.65
78.17,5.60
78.95,5.55
79.74,5.50
80.54,5.45
81.35,5.39
82.16,5.34
82.98,5.28
83.81,5.23
84.65,5.17
85.50,5.12
86.35,5.06
87.22,5.00
88.09,4.94
88.97,4.88
89.86,4.83
90.76,4.76
91.66,4.70
92.58,4.64
93.51,4.58
94.44,4.52
95.39,4.45
96.34,4.39
97.30,4.33
98.28,4.26
99.26,4.20
100.25,4.13
101.25,4.06
102.27,3.99
103.29,3.93
104.32,3.86
105.37,3.79
106.42,3.72
107.48,3.65
108.56,3.58
109.64,3.51
110.74,3.44
111.85,3.37
112.97,3.29
114.10,3.22
115.24,3.15
116.39,3.08
117.55,3.01
118.73,2.93
119.92,2.86
121.12,2.79
122.33,2.72
123.55,2.65
124.79,2.58
126.03,2.50
127.29,2.43
128.57,2.36
129.85,2.29
131.15,2.22
132.46,2.15
133.79,2.08
135.12,2.01
136.48,1.94
137.84,1.87
139.22,1.81
140.61,1.74
142.02,1.68
143.44,1.61
144.87,1.55
146.32,1.48
147.78,1.42
149.26,1.36
150.75,1.30
152.26,1.24
153.78,1.18
155.32,1.12
156.88,1.07
158.44,1.01
160.03,0.96
161.63,0.91
163.24,0.86
164.88,0.81
166.53,0.76
168.19,0.71
169.87,0.67
171.57,0.62
173.29,0.58
175.02,0.54
176.77,0.50
178.54,0.47
180.32,0.43
182.13,0.39
183.95,0.36
185.79,0.33
187.65,0.29
189.52,0.26
191.42,0.23
193.33,0.21
195.27,0.18
197.22,0.16
199.19,0.13
201.18,0.11
203.19,0.09
205.23,0.07
207.28,0.05
209.35,0.04
211.44,0.02
213.56,0.01
215.69,0.01
217.85,-0.00
220.03,-0.01
222.23,-0.01
224.45,-0.01
226.70,-0.02
228.96,-0.02
231.25,-0.02
233.57,-0.02
235.90,-0.02
238.26,-0.01
240.64,-0.01
243.05,-0.01
245.48,-0.01
247.93,-0.01
250.41,-0.01
252.92,-0.01
255.45,-0.01
258.00,-0.01
260.58,-0.01
263.19,-0.01
265.82,-0.01
268.48,-0.01
271.16,-0.01
273.87,-0.01
276.61,-0.01
279.38,-0.01
282.17,-0.01
284.99,-0.01
287.84,-0.01
290.72,-0.01
293.63,-0.01
296.57,-0.01
299.53,-0.01
302.53,-0.01
305.55,-0.02
308.61,-0.02
311.69,-0.02
314.81,-0.02
317.96,-0.03
321.14,-0.03
324.35,-0.03
327.59,-0.04
330.87,-0.04
334.18,-0.05
337.52,-0.05
340.90,-0.06
344.30,-0.07
347.75,-0.07
351.23,-0.08
354.74,-0.09
358.28,-0.10
361.87,-0.10
365.49,-0.11
369.14,-0.12
372.83,-0.13
376.56,-0.14
380.33,-0.14
384.13,-0.15
387.97,-0.16
391.85,-0.17
395.77,-0.18
399.73,-0.19
403.72,-0.20
407.76,-0.22
411.84,-0.23
415.96,-0.24
420.12,-0.26
424.32,-0.27
428.56,-0.28
432.85,-0.30
437.18,-0.31
441.55,-0.32
445.96,-0.34
450.42,-0.35
454.93,-0.36
459.48,-0.38
464.07,-0.39
468.71,-0.41
473.40,-0.42
478.13,-0.43
482.91,-0.45
487.74,-0.46
492.62,-0.48
497.55,-0.49
502.52,-0.51
507.55,-0.52
512.62,-0.54
517.75,-0.55
522.93,-0.57
528.16,-0.58
533.44,-0.59
538.77,-0.61
544.16,-0.62
549.60,-0.63
555.10,-0.64
560.65,-0.65
566.25,-0.65
571.92,-0.66
577.64,-0.67
583.41,-0.68
589.25,-0.68
595.14,-0.69
601.09,-0.70
607.10,-0.71
613.17,-0.71
619.30,-0.72
625.50,-0.73
631.75,-0.74
638.07,-0.74
644.45,-0.75
650.89,-0.76
657.40,-0.76
663.98,-0.77
670.62,-0.78
677.32,-0.78
684.10,-0.79
690.94,-0.79
697.85,-0.79
704.83,-0.80
711.87,-0.80
718.99,-0.80
726.18,-0.80
733.44,-0.80
740.78,-0.80
748.19,-0.79
755.67,-0.79
763.23,-0.78
770.86,-0.78
778.57,-0.77
786.35,-0.76
794.22,-0.75
802.16,-0.74
810.18,-0.73
818.28,-0.71
826.46,-0.70
834.73,-0.68
843.08,-0.66
851.51,-0.64
860.02,-0.61
868.62,-0.59
877.31,-0.56
886.08,-0.53
894.94,-0.50
903.89,-0.47
912.93,-0.43
922.06,-0.39
931.28,-0.35
940.59,-0.31
950.00,-0.26
959.50,-0.21
969.09,-0.17
978.78,-0.12
988.57,-0.06
998.46,-0.01
1008.44,0.05
1018.53,0.11
1028.71,0.16
1039.00,0.23
1049.39,0.29
1059.88,0.35
1070.48,0.41
1081.19,0.48
1092.00,0.54
1102.92,0.61
1113.95,0.67
1125.09,0.73
1136.34,0.80
1147.70,0.86
1159.18,0.92
1170.77,0.98
1182.48,1.05
1194.30,1.11
1206.25,1.17
1218.31,1.22
1230.49,1.28
1242.80,1.34
1255.22,1.40
1267.78,1.45
1280.45,1.51
1293.26,1.57
1306.19,1.63
1319.25,1.69
1332.45,1.75
1345.77,1.81
1359.23,1.88
1372.82,1.95
1386.55,2.02
1400.41,2.09
1414.42,2.17
1428.56,2.24
1442.85,2.32
1457.28,2.40
1471.85,2.48
1486.57,2.56
1501.43,2.65
1516.45,2.72
1531.61,2.80
1546.93,2.88
1562.40,2.95
1578.02,3.03
1593.80,3.10
1609.74,3.16
1625.84,3.22
1642.10,3.28
1658.52,3.34
1675.10,3.40
1691.85,3.45
1708.77,3.50
1725.86,3.55
1743.12,3.60
1760.55,3.65
1778.15,3.70
1795.94,3.75
1813.90,3.80
1832.03,3.85
1850.36,3.90
1868.86,3.95
1887.55,4.00
1906.42,4.05
1925.49,4.11
1944.74,4.16
1964.19,4.22
1983.83,4.28
2003.67,4.33
2023.71,4.40
2043.94,4.46
2064.38,4.52
2085.03,4.58
2105.88,4.65
2126.94,4.71
2148.20,4.78
2169.69,4.85
2191.38,4.92
2213.30,4.99
2235.43,5.05
2257.78,5.12
2280.36,5.19
2303.17,5.26
2326.20,5.34
2349.46,5.41
2372.95,5.48
2396.68,5.55
2420.65,5.62
2444.86,5.69
2469.31,5.76
2494.00,5.83
2518.94,5.90
2544.13,5.96
2569.57,6.03
2595.27,6.09
2621.22,6.16
2647.43,6.22
2673.90,6.28
2700.64,6.34
2727.65,6.39
2754.93,6.45
2782.48,6.50
2810.30,6.55
2838.40,6.59
2866.79,6.63
2895.46,6.67
2924.41,6.70
2953.65,6.72
2983.19,6.75
3013.02,6.76
3043.15,6.77
3073.58,6.78
3104.32,6.79
3135.36,6.79
3166.72,6.79
3198.38,6.79
3230.37,6.79
3262.67,6.78
3295.30,6.76
3328.25,6.74
3361.53,6.71
3395.15,6.67
3429.10,6.63
3463.39,6.59
3498.03,6.53
3533.01,6.48
3568.34,6.42
3604.02,6.35
3640.06,6.29
3676.46,6.21
3713.22,6.14
3750.36,6.06
3787.86,5.98
3825.74,5.90
3864.00,5.81
3902.64,5.72
3941.66,5.63
3981.08,5.54
4020.89,5.44
4061.10,5.34
4101.71,5.24
4142.73,5.13
4184.15,5.02
4226.00,4.91
4268.26,4.80
4310.94,4.68
4354.05,4.56
4397.59,4.44
4441.56,4.31
4485.98,4.19
4530.84,4.06
4576.15,3.92
4621.91,3.79
4668.13,3.65
4714.81,3.51
4761.96,3.37
4809.58,3.22
4857.67,3.08
4906.25,2.93
4955.31,2.78
5004.87,2.63
5054.91,2.47
5105.46,2.32
5156.52,2.16
5208.08,2.00
5260.16,1.84
5312.77,1.69
5365.89,1.52
5419.55,1.36
5473.75,1.20
5528.49,1.05
5583.77,0.89
5639.61,0.73
5696.00,0.58
5752.96,0.42
5810.49,0.27
5868.60,0.12
5927.28,-0.03
5986.56,-0.18
6046.42,-0.32
6106.89,-0.45
6167.96,-0.59
6229.64,-0.72
6291.93,-0.85
6354.85,-0.96
6418.40,-1.08
6482.58,-1.19
6547.41,-1.29
6612.88,-1.39
6679.01,-1.49
6745.80,-1.57
6813.26,-1.64
6881.39,-1.71
6950.21,-1.76
7019.71,-1.80
7089.91,-1.84
7160.81,-1.85
7232.41,-1.85
7304.74,-1.84
7377.79,-1.79
7451.56,-1.74
7526.08,-1.67
7601.34,-1.57
7677.35,-1.46
7754.13,-1.35
7831.67,-1.18
7909.98,-1.01
7989.08,-0.84
8068.98,-0.59
8149.67,-0.34
8231.16,-0.08
8313.47,0.26
8396.61,0.62
8480.57,0.97
8565.38,1.40
8651.03,1.84
8737.54,2.28
8824.92,2.67
8913.17,3.05
9002.30,3.43
9092.32,3.53
9183.25,3.64
9275.08,3.63
9367.83,3.32
9461.51,3.02
9556.12,2.53
9651.68,1.91
9748.20,1.30
9845.68,0.58
9944.14,-0.14
10043.58,-0.84
10144.02,-1.50
10245.46,-2.15
10347.91,-2.74
10451.39,-3.25
10555.91,-3.75
10661.46,-4.17
10768.08,-4.52
10875.76,-4.87
10984.52,-5.12
11094.36,-5.35
11205.31,-5.57
11317.36,-5.72
11430.53,-5.87
11544.84,-6.00
11660.29,-6.11
11776.89,-6.21
11894.66,-6.23
12013.60,-6.22
12133.74,-6.22
12255.08,-6.08
12377.63,-5.80
12501.41,-5.51
12626.42,-4.85
12752.68,-4.20
12880.21,-3.31
13009.01,-2.29
13139.10,-1.26
13270.49,-0.36
13403.20,0.44
13537.23,1.24
13672.60,1.46
13809.33,1.17
13947.42,0.89
14086.90,-0.08
14227.77,-1.45
14370.04,-2.82
14513.74,-4.22
14658.88,-5.84
14805.47,-7.46
14953.52,-9.08
15103.06,-10.53
15254.09,-11.90
15406.63,-13.28
15560.70,-14.55
15716.30,-15.65
15873.47,-16.75
16032.20,-17.79
16192.52,-18.59
16354.45,-19.39
16517.99,-20.15
16683.17,-20.51
16850.01,-20.87
17018.51,-21.17
17188.69,-20.98
17360.58,-20.79
17534.18,-20.53
17709.53,-19.95
17886.62,-19.36
18065.49,-18.75
18246.14,-18.10
18428.60,-17.44
18612.89,-16.93
18799.02,-16.51
18987.01,-16.09
19176.88,-16.08
19368.65,-16.10
19562.33,-16.12
19757.96,-16.14
19955.54,-16.16
