frequency,raw,error,smoothed,error_smoothed,equalization,parametric_eq,fixed_band_eq,equalized_raw,equalized_smoothed,target
20.00,-12.55,-13.07,-12.55,-13.10,6.00,5.19,2.70,-6.55,-6.55,0.52
20.20,-12.51,-13.07,-12.50,-13.08,6.00,5.23,2.77,-6.51,-6.50,0.56
20.40,-12.45,-13.06,-12.46,-13.07,6.00,5.27,2.85,-6.45,-6.46,0.60
20.61,-12.42,-13.05,-12.41,-13.05,6.00,5.31,2.93,-6.42,-6.41,0.63
20.81,-12.36,-13.04,-12.37,-13.03,6.00,5.34,3.02,-6.36,-6.37,0.67
21.02,-12.33,-13.04,-12.32,-13.01,6.00,5.38,3.10,-6.33,-6.32,0.71
21.23,-12.28,-13.01,-12.27,-12.98,6.00,5.42,3.19,-6.28,-6.27,0.73
21.44,-12.22,-12.98,-12.22,-12.96,6.00,5.46,3.28,-6.22,-6.22,0.75
21.66,-12.18,-12.95,-12.18,-12.93,6.00,5.50,3.38,-6.18,-6.18,0.77
21.87,-12.12,-12.91,-12.13,-12.90,6.00,5.53,3.48,-6.12,-6.13,0.78
22.09,-12.07,-12.88,-12.08,-12.87,6.00,5.57,3.57,-6.07,-6.08,0.80
22.31,-12.02,-12.84,-12.03,-12.84,6.00,5.60,3.68,-6.02,-6.03,0.81
22.54,-11.98,-12.80,-11.98,-12.80,6.00,5.64,3.78,-5.98,-5.98,0.82
22.76,-11.92,-12.76,-11.93,-12.76,6.00,5.68,3.89,-5.92,-5.93,0.83
22.99,-11.88,-12.71,-11.88,-12.72,6.00,5.71,4.00,-5.88,-5.88,0.83
23.22,-11.83,-12.67,-11.83,-12.67,6.00,5.74,4.11,-5.83,-5.83,0.84
23.45,-11.78,-12.63,-11.77,-12.63,6.00,5.78,4.23,-5.78,-5.77,0.85
23.69,-11.73,-12.59,-11.72,-12.59,6.00,5.81,4.35,-5.73,-5.72,0.86
23.92,-11.67,-12.54,-11.67,-12.55,6.00,5.84,4.47,-5.67,-5.67,0.87
24.16,-11.61,-12.50,-11.62,-12.50,6.00,5.87,4.59,-5.61,-5.62,0.89
24.40,-11.56,-12.47,-11.56,-12.46,6.00,5.90,4.72,-5.56,-5.56,0.91
24.65,-11.51,-12.41,-11.51,-12.41,6.00,5.93,4.85,-5.51,-5.51,0.91
24.89,-11.44,-12.36,-11.45,-12.37,6.00,5.96,4.98,-5.44,-5.45,0.92
25.14,-11.39,-12.32,-11.40,-12.32,6.00,5.99,5.11,-5.39,-5.40,0.93
25.39,-11.33,-12.27,-11.34,-12.28,6.00,6.02,5.24,-5.33,-5.34,0.94
25.65,-11.29,-12.24,-11.28,-12.23,6.00,6.05,5.38,-5.29,-5.28,0.96
25.91,-11.23,-12.18,-11.22,-12.18,6.00,6.07,5.51,-5.23,-5.22,0.96
26.16,-11.16,-12.13,-11.16,-12.13,6.00,6.10,5.64,-5.16,-5.16,0.97
26.43,-11.11,-12.08,-11.10,-12.08,6.00,6.13,5.78,-5.11,-5.10,0.97
26.69,-11.05,-12.03,-11.04,-12.03,6.00,6.15,5.91,-5.05,-5.04,0.98
26.96,-10.99,-11.99,-10.98,-11.98,6.00,6.17,6.05,-4.99,-4.98,1.00
27.23,-10.93,-11.94,-10.92,-11.93,6.00,6.20,6.18,-4.93,-4.92,1.01
27.50,-10.86,-11.88,-10.86,-11.88,6.00,6.22,6.30,-4.86,-4.86,1.02
27.77,-10.79,-11.82,-10.80,-11.82,6.00,6.24,6.43,-4.79,-4.80,1.02
28.05,-10.74,-11.78,-10.74,-11.77,6.00,6.26,6.55,-4.74,-4.74,1.04
28.33,-10.67,-11.71,-10.67,-11.72,6.00,6.28,6.67,-4.67,-4.67,1.04
28.62,-10.61,-11.65,-10.61,-11.66,6.00,6.30,6.78,-4.61,-4.61,1.05
28.90,-10.55,-11.60,-10.55,-11.61,6.00,6.32,6.88,-4.55,-4.55,1.06
29.19,-10.49,-11.54,-10.48,-11.55,6.00,6.34,6.98,-4.49,-4.48,1.06
29.48,-10.41,-11.50,-10.41,-11.49,6.00,6.35,7.07,-4.41,-4.41,1.09
29.78,-10.35,-11.43,-10.35,-11.43,6.00,6.37,7.15,-4.35,-4.35,1.08
30.08,-10.28,-11.37,-10.28,-11.37,6.00,6.38,7.22,-4.28,-4.28,1.09
30.38,-10.22,-11.31,-10.21,-11.31,6.00,6.40,7.28,-4.22,-4.21,1.09
30.68,-10.15,-11.26,-10.14,-11.25,6.00,6.41,7.33,-4.15,-4.14,1.11
30.99,-10.08,-11.19,-10.07,-11.19,6.00,6.42,7.37,-4.08,-4.07,1.11
31.30,-10.01,-11.13,-10.00,-11.12,6.00,6.43,7.40,-4.01,-4.00,1.12
31.61,-9.93,-11.05,-9.93,-11.06,6.00,6.44,7.42,-3.93,-3.93,1.13
31.93,-9.86,-10.99,-9.85,-10.99,6.00,6.45,7.43,-3.86,-3.85,1.14
32.24,-9.77,-10.91,-9.78,-10.93,6.00,6.46,7.43,-3.77,-3.78,1.14
32.57,-9.71,-10.86,-9.70,-10.86,6.00,6.47,7.42,-3.71,-3.70,1.15
32.89,-9.62,-10.79,-9.63,-10.79,6.00,6.47,7.39,-3.62,-3.63,1.16
33.22,-9.55,-10.73,-9.56,-10.73,6.00,6.48,7.36,-3.55,-3.56,1.17
33.55,-9.47,-10.65,-9.48,-10.66,6.00,6.48,7.33,-3.47,-3.48,1.18
33.89,-9.40,-10.58,-9.40,-10.59,6.00,6.48,7.28,-3.40,-3.40,1.19
34.23,-9.32,-10.51,-9.32,-10.52,6.00,6.49,7.23,-3.32,-3.32,1.20
34.57,-9.25,-10.45,-9.25,-10.45,6.00,6.49,7.17,-3.25,-3.25,1.20
34.92,-9.18,-10.38,-9.17,-10.37,6.00,6.49,7.11,-3.18,-3.17,1.20
35.27,-9.10,-10.31,-9.09,-10.30,6.00,6.49,7.04,-3.10,-3.09,1.21
35.62,-9.02,-10.23,-9.01,-10.23,6.00,6.48,6.97,-3.02,-3.01,1.22
35.97,-8.93,-10.15,-8.93,-10.15,6.00,6.48,6.90,-2.93,-2.93,1.22
36.33,-8.84,-10.07,-8.84,-10.07,6.00,6.48,6.82,-2.84,-2.84,1.22
36.70,-8.77,-9.99,-8.76,-9.99,6.00,6.47,6.75,-2.77,-2.76,1.22
37.06,-8.67,-9.90,-8.68,-9.90,6.00,6.47,6.67,-2.67,-2.68,1.23
37.43,-8.58,-9.82,-8.59,-9.82,6.00,6.46,6.59,-2.58,-2.59,1.24
37.81,-8.51,-9.74,-8.50,-9.73,6.00,6.45,6.52,-2.51,-2.50,1.23
38.19,-8.42,-9.65,-8.41,-9.64,6.00,6.44,6.44,-2.42,-2.41,1.23
38.57,-8.33,-9.55,-8.32,-9.55,6.00,6.44,6.37,-2.33,-2.32,1.23
38.95,-8.24,-9.47,-8.24,-9.46,6.00,6.42,6.30,-2.24,-2.24,1.23
39.34,-8.15,-9.38,-8.15,-9.37,6.00,6.41,6.23,-2.15,-2.15,1.22
39.74,-8.06,-9.28,-8.06,-9.29,6.00,6.40,6.17,-2.06,-2.06,1.22
40.14,-7.97,-9.19,-7.97,-9.20,6.00,6.39,6.11,-1.97,-1.97,1.23
40.54,-7.89,-9.11,-7.89,-9.11,6.00,6.37,6.05,-1.89,-1.89,1.22
40.94,-7.79,-9.02,-7.80,-9.02,6.00,6.36,6.00,-1.79,-1.80,1.22
41.35,-7.72,-8.93,-7.72,-8.94,6.00,6.34,5.95,-1.72,-1.72,1.22
41.76,-7.63,-8.86,-7.63,-8.86,6.00,6.32,5.90,-1.63,-1.63,1.22
42.18,-7.55,-8.78,-7.55,-8.78,6.00,6.31,5.86,-1.55,-1.55,1.23
42.60,-7.47,-8.70,-7.48,-8.70,6.00,6.29,5.82,-1.47,-1.48,1.22
43.03,-7.41,-8.64,-7.41,-8.62,6.00,6.27,5.79,-1.41,-1.41,1.23
43.46,-7.34,-8.56,-7.34,-8.55,6.00,6.25,5.76,-1.34,-1.34,1.23
43.90,-7.27,-8.48,-7.27,-8.49,6.00,6.23,5.73,-1.27,-1.27,1.21
44.33,-7.19,-8.41,-7.21,-8.43,6.00,6.20,5.71,-1.19,-1.21,1.22
44.78,-7.14,-8.35,-7.15,-8.36,6.00,6.18,5.70,-1.14,-1.15,1.21
45.23,-7.08,-8.28,-7.09,-8.31,6.00,6.16,5.68,-1.08,-1.09,1.21
45.68,-7.04,-8.25,-7.03,-8.25,6.00,6.13,5.68,-1.04,-1.03,1.21
46.13,-6.98,-8.19,-6.98,-8.20,6.00,6.11,5.67,-0.98,-0.98,1.21
46.60,-6.94,-8.16,-6.93,-8.15,6.00,6.08,5.68,-0.94,-0.93,1.22
47.06,-6.89,-8.10,-6.89,-8.10,6.00,6.05,5.68,-0.89,-0.89,1.21
47.53,-6.85,-8.05,-6.84,-8.05,6.00,6.03,5.69,-0.85,-0.84,1.21
48.01,-6.80,-8.02,-6.80,-8.00,6.00,6.00,5.70,-0.80,-0.80,1.22
48.49,-6.76,-7.96,-6.76,-7.95,6.00,5.97,5.72,-0.76,-0.76,1.21
48.97,-6.71,-7.89,-6.71,-7.90,6.00,5.94,5.74,-0.71,-0.71,1.19
49.46,-6.68,-7.86,-6.67,-7.86,6.00,5.91,5.77,-0.68,-0.67,1.18
49.96,-6.64,-7.80,-6.63,-7.81,6.00,5.88,5.79,-0.64,-0.63,1.16
50.46,-6.60,-7.76,-6.59,-7.75,6.00,5.85,5.82,-0.60,-0.59,1.17
50.96,-6.56,-7.71,-6.55,-7.70,6.00,5.81,5.85,-0.56,-0.55,1.16
51.47,-6.52,-7.65,-6.51,-7.65,6.00,5.78,5.89,-0.52,-0.51,1.13
51.99,-6.47,-7.59,-6.46,-7.59,6.00,5.75,5.92,-0.47,-0.46,1.12
52.51,-6.43,-7.55,-6.42,-7.54,6.00,5.71,5.96,-0.43,-0.42,1.12
53.03,-6.39,-7.49,-6.38,-7.48,6.00,5.68,6.00,-0.39,-0.38,1.10
53.56,-6.34,-7.43,-6.34,-7.43,6.00,5.64,6.03,-0.34,-0.34,1.09
54.10,-6.29,-7.36,-6.30,-7.37,6.00,5.61,6.07,-0.29,-0.30,1.08
54.64,-6.26,-7.32,-6.26,-7.32,6.00,5.57,6.11,-0.26,-0.26,1.06
55.18,-6.22,-7.26,-6.22,-7.26,6.00,5.54,6.14,-0.22,-0.22,1.04
55.74,-6.18,-7.20,-6.18,-7.21,6.00,5.50,6.18,-0.18,-0.18,1.02
56.29,-6.14,-7.16,-6.14,-7.16,6.00,5.46,6.21,-0.14,-0.14,1.02
56.86,-6.09,-7.09,-6.10,-7.10,6.00,5.42,6.24,-0.09,-0.10,1.00
57.42,-6.05,-7.02,-6.06,-7.05,6.00,5.38,6.26,-0.05,-0.06,0.98
58.00,-6.02,-6.98,-6.02,-6.99,6.00,5.34,6.28,-0.02,-0.02,0.97
58.58,-5.99,-6.94,-5.98,-6.93,6.00,5.30,6.30,0.01,0.02,0.95
59.16,-5.95,-6.89,-5.94,-6.87,6.00,5.26,6.31,0.05,0.06,0.94
59.76,-5.91,-6.83,-5.90,-6.81,6.00,5.22,6.31,0.09,0.10,0.93
60.35,-5.87,-6.77,-5.86,-6.75,6.00,5.18,6.31,0.13,0.14,0.90
60.96,-5.83,-6.70,-5.81,-6.68,6.00,5.14,6.30,0.17,0.19,0.88
61.57,-5.78,-6.62,-5.77,-6.61,6.00,5.10,6.29,0.22,0.23,0.84
62.18,-5.73,-6.53,-5.72,-6.54,6.00,5.06,6.27,0.27,0.28,0.81
62.80,-5.67,-6.47,-5.67,-6.46,6.00,5.02,6.24,0.33,0.33,0.79
63.43,-5.62,-6.37,-5.62,-6.39,6.00,4.98,6.20,0.38,0.38,0.76
64.07,-5.56,-6.28,-5.57,-6.31,6.00,4.93,6.16,0.44,0.43,0.73
64.71,-5.51,-6.21,-5.52,-6.22,5.99,4.89,6.11,0.48,0.47,0.70
65.35,-5.46,-6.13,-5.46,-6.14,5.97,4.85,6.05,0.51,0.51,0.67
66.01,-5.41,-6.05,-5.40,-6.05,5.93,4.80,5.99,0.52,0.53,0.64
66.67,-5.35,-5.97,-5.34,-5.96,5.88,4.76,5.92,0.54,0.54,0.63
67.33,-5.28,-5.88,-5.28,-5.87,5.82,4.72,5.84,0.54,0.54,0.60
68.01,-5.23,-5.79,-5.21,-5.77,5.75,4.67,5.76,0.53,0.54,0.57
68.69,-5.16,-5.69,-5.15,-5.68,5.67,4.63,5.67,0.52,0.53,0.54
69.37,-5.08,-5.59,-5.08,-5.58,5.58,4.59,5.58,0.50,0.50,0.50
70.07,-5.01,-5.48,-5.00,-5.48,5.48,4.54,5.49,0.48,0.48,0.47
70.77,-4.94,-5.38,-4.93,-5.38,5.38,4.50,5.39,0.44,0.45,0.45
71.48,-4.86,-5.28,-4.85,-5.28,5.28,4.45,5.29,0.42,0.42,0.43
72.19,-4.79,-5.18,-4.78,-5.17,5.17,4.41,5.19,0.39,0.40,0.39
72.91,-4.69,-5.06,-4.70,-5.07,5.07,4.36,5.09,0.37,0.37,0.37
73.64,-4.62,-4.96,-4.62,-4.97,4.97,4.32,4.99,0.35,0.35,0.34
74.38,-4.54,-4.86,-4.54,-4.87,4.87,4.27,4.88,0.33,0.33,0.33
75.12,-4.47,-4.77,-4.47,-4.77,4.77,4.23,4.78,0.31,0.31,0.30
75.87,-4.38,-4.67,-4.39,-4.68,4.68,4.18,4.67,0.29,0.29,0.29
76.63,-4.32,-4.58,-4.32,-4.59,4.59,4.14,4.57,0.27,0.27,0.27
77.40,-4.24,-4.49,-4.25,-4.50,4.50,4.09,4.46,0.27,0.25,0.25
78.17,-4.18,-4.41,-4.18,-4.42,4.42,4.04,4.36,0.25,0.24,0.23
78.95,-4.12,-4.34,-4.12,-4.34,4.34,4.00,4.26,0.23,0.22,0.22
79.74,-4.07,-4.28,-4.06,-4.27,4.27,3.95,4.16,0.20,0.21,0.21
80.54,-4.01,-4.21,-4.00,-4.20,4.20,3.91,4.06,0.19,0.20,0.20
81.35,-3.96,-4.15,-3.94,-4.13,4.13,3.86,3.97,0.18,0.19,0.19
82.16,-3.90,-4.08,-3.89,-4.07,4.07,3.81,3.87,0.18,0.18,0.18
82.98,-3.84,-4.02,-3.84,-4.02,4.02,3.77,3.78,0.18,0.18,0.18
83.81,-3.79,-3.95,-3.80,-3.97,3.97,3.72,3.69,0.18,0.17,0.17
84.65,-3.75,-3.90,-3.76,-3.92,3.92,3.68,3.60,0.18,0.16,0.16
85.50,-3.71,-3.87,-3.72,-3.88,3.88,3.63,3.52,0.17,0.16,0.16
86.35,-3.67,-3.82,-3.68,-3.84,3.84,3.58,3.43,0.17,0.16,0.16
87.22,-3.64,-3.79,-3.65,-3.80,3.80,3.54,3.35,0.17,0.16,0.15
88.09,-3.62,-3.76,-3.61,-3.77,3.77,3.49,3.27,0.15,0.15,0.15
88.97,-3.59,-3.74,-3.58,-3.73,3.73,3.44,3.20,0.15,0.15,0.15
89.86,-3.56,-3.71,-3.55,-3.70,3.70,3.40,3.12,0.14,0.15,0.16
90.76,-3.53,-3.67,-3.52,-3.67,3.67,3.35,3.05,0.14,0.15,0.14
91.66,-3.50,-3.64,-3.49,-3.64,3.64,3.30,2.99,0.14,0.15,0.14
92.58,-3.47,-3.60,-3.46,-3.60,3.60,3.25,2.92,0.14,0.14,0.14
93.51,-3.43,-3.58,-3.42,-3.56,3.56,3.21,2.86,0.14,0.14,0.15
94.44,-3.39,-3.53,-3.38,-3.52,3.52,3.16,2.79,0.14,0.14,0.14
95.39,-3.34,-3.48,-3.34,-3.48,3.48,3.11,2.73,0.14,0.13,0.14
96.34,-3.31,-3.43,-3.30,-3.43,3.43,3.06,2.68,0.12,0.13,0.13
97.30,-3.26,-3.37,-3.25,-3.37,3.37,3.01,2.62,0.12,0.12,0.12
98.28,-3.22,-3.32,-3.20,-3.31,3.31,2.96,2.57,0.10,0.11,0.11
99.26,-3.16,-3.26,-3.14,-3.25,3.25,2.91,2.52,0.09,0.10,0.10
100.25,-3.08,-3.17,-3.09,-3.18,3.18,2.86,2.47,0.10,0.09,0.09
101.25,-3.02,-3.10,-3.03,-3.11,3.11,2.81,2.42,0.09,0.08,0.08
102.27,-2.95,-3.01,-2.96,-3.03,3.03,2.76,2.37,0.08,0.07,0.06
103.29,-2.90,-2.94,-2.89,-2.94,2.94,2.70,2.33,0.05,0.05,0.04
104.32,-2.84,-2.87,-2.82,-2.85,2.85,2.65,2.29,0.01,0.03,0.03
105.37,-2.75,-2.76,-2.74,-2.75,2.75,2.59,2.25,0.00,0.01,0.02
106.42,-2.68,-2.66,-2.66,-2.65,2.65,2.53,2.21,-0.03,-0.02,-0.01
107.48,-2.60,-2.56,-2.58,-2.54,2.54,2.47,2.17,-0.06,-0.04,-0.03
108.56,-2.52,-2.44,-2.50,-2.43,2.43,2.41,2.13,-0.09,-0.07,-0.07
109.64,-2.43,-2.32,-2.42,-2.31,2.31,2.35,2.09,-0.11,-0.11,-0.10
110.74,-2.34,-2.20,-2.33,-2.19,2.19,2.28,2.06,-0.14,-0.14,-0.13
111.85,-2.25,-2.08,-2.25,-2.07,2.07,2.21,2.02,-0.18,-0.18,-0.17
112.97,-2.16,-1.94,-2.16,-1.95,1.95,2.13,1.99,-0.21,-0.22,-0.22
114.10,-2.07,-1.82,-2.08,-1.83,1.83,2.06,1.96,-0.24,-0.25,-0.25
115.24,-1.98,-1.68,-2.00,-1.70,1.70,1.97,1.93,-0.27,-0.29,-0.30
116.39,-1.93,-1.58,-1.92,-1.58,1.58,1.88,1.89,-0.34,-0.34,-0.34
117.55,-1.87,-1.48,-1.85,-1.47,1.47,1.78,1.86,-0.39,-0.38,-0.38
118.73,-1.79,-1.36,-1.78,-1.36,1.36,1.68,1.83,-0.42,-0.42,-0.43
119.92,-1.71,-1.25,-1.71,-1.26,1.26,1.57,1.80,-0.45,-0.46,-0.46
121.12,-1.64,-1.13,-1.66,-1.16,1.16,1.45,1.77,-0.47,-0.50,-0.50
122.33,-1.61,-1.07,-1.61,-1.07,1.07,1.33,1.74,-0.53,-0.53,-0.54
123.55,-1.58,-1.01,-1.57,-1.00,1.00,1.20,1.71,-0.58,-0.57,-0.56
124.79,-1.53,-0.93,-1.53,-0.93,0.93,1.07,1.68,-0.60,-0.61,-0.60
126.03,-1.49,-0.85,-1.51,-0.87,0.87,0.94,1.65,-0.62,-0.64,-0.64
127.29,-1.48,-0.81,-1.48,-0.81,0.81,0.82,1.61,-0.66,-0.67,-0.67
128.57,-1.47,-0.75,-1.47,-0.77,0.77,0.72,1.58,-0.70,-0.70,-0.71
129.85,-1.46,-0.72,-1.46,-0.73,0.73,0.65,1.55,-0.73,-0.73,-0.74
131.15,-1.46,-0.69,-1.46,-0.70,0.70,0.60,1.52,-0.76,-0.76,-0.77
132.46,-1.47,-0.67,-1.47,-0.68,0.68,0.58,1.49,-0.79,-0.79,-0.79
133.79,-1.50,-0.68,-1.49,-0.67,0.67,0.59,1.46,-0.83,-0.82,-0.81
135.12,-1.53,-0.68,-1.51,-0.66,0.66,0.63,1.43,-0.86,-0.85,-0.85
136.48,-1.54,-0.67,-1.53,-0.66,0.66,0.68,1.40,-0.87,-0.87,-0.87
137.84,-1.57,-0.67,-1.57,-0.67,0.67,0.73,1.37,-0.90,-0.90,-0.90
139.22,-1.59,-0.66,-1.60,-0.68,0.68,0.80,1.34,-0.90,-0.92,-0.93
140.61,-1.63,-0.67,-1.64,-0.70,0.70,0.86,1.30,-0.92,-0.94,-0.96
142.02,-1.70,-0.73,-1.69,-0.72,0.72,0.91,1.27,-0.97,-0.97,-0.96
143.44,-1.74,-0.75,-1.73,-0.74,0.74,0.96,1.24,-0.99,-0.99,-0.98
144.87,-1.79,-0.78,-1.78,-0.77,0.77,1.00,1.21,-1.02,-1.01,-1.01
146.32,-1.83,-0.79,-1.83,-0.79,0.79,1.03,1.18,-1.03,-1.04,-1.04
147.78,-1.89,-0.83,-1.88,-0.82,0.82,1.06,1.15,-1.07,-1.06,-1.05
149.26,-1.94,-0.86,-1.93,-0.84,0.84,1.08,1.12,-1.10,-1.09,-1.08
150.75,-2.01,-0.88,-1.98,-0.87,0.87,1.10,1.09,-1.14,-1.12,-1.12
152.26,-2.05,-0.90,-2.04,-0.89,0.89,1.11,1.06,-1.16,-1.15,-1.15
153.78,-2.10,-0.92,-2.09,-0.91,0.91,1.11,1.04,-1.18,-1.18,-1.17
155.32,-2.14,-0.92,-2.14,-0.93,0.93,1.11,1.01,-1.20,-1.21,-1.21
156.88,-2.20,-0.96,-2.19,-0.95,0.95,1.11,0.98,-1.24,-1.24,-1.24
158.44,-2.24,-0.97,-2.24,-0.97,0.97,1.11,0.95,-1.27,-1.27,-1.27
160.03,-2.32,-1.00,-2.30,-0.99,0.99,1.10,0.93,-1.33,-1.31,-1.31
161.63,-2.36,-1.00,-2.35,-1.01,1.01,1.09,0.90,-1.35,-1.34,-1.35
163.24,-2.40,-1.01,-2.40,-1.03,1.03,1.08,0.87,-1.37,-1.38,-1.38
164.88,-2.46,-1.04,-2.46,-1.04,1.04,1.07,0.85,-1.41,-1.41,-1.41
166.53,-2.51,-1.05,-2.51,-1.06,1.06,1.05,0.82,-1.45,-1.45,-1.45
168.19,-2.56,-1.07,-2.57,-1.08,1.08,1.04,0.80,-1.48,-1.49,-1.49
169.87,-2.63,-1.10,-2.63,-1.10,1.10,1.02,0.77,-1.53,-1.53,-1.53
171.57,-2.70,-1.13,-2.69,-1.12,1.12,1.01,0.75,-1.58,-1.57,-1.57
173.29,-2.76,-1.14,-2.76,-1.14,1.14,0.99,0.73,-1.61,-1.62,-1.61
175.02,-2.84,-1.19,-2.82,-1.16,1.16,0.97,0.71,-1.67,-1.66,-1.65
176.77,-2.89,-1.18,-2.89,-1.19,1.19,0.95,0.68,-1.70,-1.70,-1.71
178.54,-2.95,-1.19,-2.97,-1.22,1.22,0.93,0.66,-1.73,-1.75,-1.75
180.32,-3.01,-1.21,-3.04,-1.25,1.25,0.91,0.64,-1.76,-1.80,-1.80
182.13,-3.09,-1.24,-3.12,-1.27,1.27,0.89,0.62,-1.81,-1.85,-1.84
183.95,-3.21,-1.31,-3.19,-1.30,1.30,0.87,0.60,-1.90,-1.89,-1.90
185.79,-3.28,-1.34,-3.27,-1.33,1.33,0.85,0.58,-1.95,-1.94,-1.94
187.65,-3.36,-1.35,-3.34,-1.35,1.35,0.83,0.56,-2.00,-1.99,-2.00
189.52,-3.42,-1.37,-3.41,-1.37,1.37,0.81,0.54,-2.04,-2.04,-2.05
191.42,-3.50,-1.41,-3.48,-1.39,1.39,0.79,0.52,-2.10,-2.09,-2.09
193.33,-3.56,-1.43,-3.54,-1.41,1.41,0.76,0.51,-2.15,-2.13,-2.13
195.27,-3.62,-1.44,-3.60,-1.42,1.42,0.74,0.49,-2.19,-2.18,-2.17
197.22,-3.66,-1.43,-3.65,-1.43,1.43,0.72,0.47,-2.22,-2.22,-2.22
199.19,-3.70,-1.42,-3.70,-1.43,1.43,0.70,0.45,-2.26,-2.27,-2.27
201.18,-3.74,-1.42,-3.74,-1.43,1.43,0.68,0.44,-2.31,-2.31,-2.31
203.19,-3.77,-1.42,-3.77,-1.42,1.42,0.66,0.42,-2.35,-2.35,-2.34
205.23,-3.79,-1.39,-3.79,-1.40,1.40,0.63,0.40,-2.39,-2.39,-2.39
207.28,-3.81,-1.39,-3.80,-1.37,1.37,0.61,0.39,-2.43,-2.43,-2.41
209.35,-3.82,-1.35,-3.81,-1.35,1.35,0.59,0.37,-2.47,-2.47,-2.46
211.44,-3.82,-1.30,-3.81,-1.31,1.31,0.57,0.35,-2.50,-2.50,-2.51
213.56,-3.81,-1.26,-3.81,-1.27,1.27,0.55,0.34,-2.54,-2.54,-2.54
215.69,-3.78,-1.22,-3.79,-1.22,1.22,0.52,0.32,-2.56,-2.57,-2.56
217.85,-3.76,-1.16,-3.76,-1.16,1.16,0.50,0.31,-2.59,-2.60,-2.60
220.03,-3.75,-1.11,-3.73,-1.10,1.10,0.48,0.29,-2.64,-2.63,-2.63
222.23,-3.71,-1.04,-3.69,-1.04,1.04,0.46,0.28,-2.67,-2.65,-2.66
224.45,-3.65,-0.97,-3.63,-0.96,0.96,0.44,0.26,-2.69,-2.68,-2.68
226.70,-3.59,-0.89,-3.57,-0.87,0.87,0.42,0.25,-2.71,-2.70,-2.70
228.96,-3.51,-0.78,-3.50,-0.78,0.78,0.39,0.23,-2.72,-2.72,-2.72
231.25,-3.44,-0.71,-3.42,-0.68,0.68,0.37,0.22,-2.75,-2.73,-2.73
233.57,-3.35,-0.60,-3.33,-0.58,0.58,0.35,0.20,-2.77,-2.75,-2.75
235.90,-3.23,-0.46,-3.23,-0.47,0.47,0.33,0.19,-2.75,-2.76,-2.76
238.26,-3.15,-0.38,-3.13,-0.36,0.36,0.31,0.18,-2.78,-2.76,-2.77
240.64,-3.03,-0.25,-3.02,-0.25,0.25,0.29,0.16,-2.78,-2.77,-2.77
243.05,-2.92,-0.15,-2.90,-0.13,0.13,0.26,0.15,-2.78,-2.77,-2.77
245.48,-2.79,-0.01,-2.79,-0.02,0.02,0.24,0.13,-2.77,-2.77,-2.77
247.93,-2.64,0.13,-2.67,0.10,-0.10,0.22,0.12,-2.73,-2.77,-2.77
250.41,-2.55,0.23,-2.55,0.21,-0.21,0.20,0.10,-2.76,-2.76,-2.77
252.92,-2.42,0.34,-2.44,0.32,-0.32,0.18,0.09,-2.74,-2.76,-2.76
255.45,-2.33,0.42,-2.32,0.43,-0.43,0.16,0.07,-2.75,-2.75,-2.74
258.00,-2.24,0.50,-2.21,0.53,-0.53,0.13,0.06,-2.76,-2.74,-2.74
260.58,-2.11,0.62,-2.11,0.62,-0.62,0.11,0.04,-2.72,-2.73,-2.73
263.19,-2.02,0.70,-2.01,0.70,-0.70,0.09,0.03,-2.72,-2.71,-2.71
265.82,-1.91,0.80,-1.92,0.78,-0.78,0.07,0.01,-2.69,-2.70,-2.71
268.48,-1.83,0.86,-1.84,0.85,-0.85,0.05,-0.00,-2.68,-2.69,-2.68
271.16,-1.75,0.92,-1.76,0.91,-0.91,0.03,-0.02,-2.65,-2.67,-2.66
273.87,-1.67,0.99,-1.70,0.96,-0.96,0.00,-0.03,-2.62,-2.66,-2.66
276.61,-1.63,1.01,-1.64,1.00,-1.00,-0.02,-0.05,-2.62,-2.64,-2.63
279.38,-1.58,1.05,-1.59,1.03,-1.03,-0.04,-0.07,-2.61,-2.62,-2.62
282.17,-1.55,1.06,-1.56,1.05,-1.05,-0.06,-0.08,-2.60,-2.61,-2.61
284.99,-1.53,1.07,-1.53,1.07,-1.07,-0.08,-0.10,-2.59,-2.59,-2.59
287.84,-1.50,1.09,-1.50,1.08,-1.08,-0.10,-0.12,-2.57,-2.58,-2.58
290.72,-1.49,1.08,-1.49,1.07,-1.07,-0.13,-0.13,-2.56,-2.56,-2.57
293.63,-1.48,1.07,-1.48,1.07,-1.07,-0.15,-0.15,-2.55,-2.55,-2.55
296.57,-1.48,1.06,-1.47,1.06,-1.06,-0.17,-0.17,-2.54,-2.53,-2.53
299.53,-1.48,1.05,-1.47,1.05,-1.05,-0.19,-0.19,-2.53,-2.52,-2.52
302.53,-1.49,1.03,-1.46,1.04,-1.04,-0.21,-0.20,-2.53,-2.51,-2.52
305.55,-1.50,0.99,-1.46,1.03,-1.03,-0.24,-0.22,-2.52,-2.49,-2.49
308.61,-1.50,0.98,-1.47,1.01,-1.01,-0.26,-0.24,-2.51,-2.48,-2.48
311.69,-1.49,0.99,-1.47,1.00,-1.00,-0.28,-0.26,-2.48,-2.47,-2.47
314.81,-1.48,0.97,-1.48,0.98,-0.98,-0.30,-0.28,-2.45,-2.46,-2.44
317.96,-1.48,0.97,-1.49,0.96,-0.96,-0.32,-0.30,-2.44,-2.45,-2.45
321.14,-1.49,0.95,-1.50,0.94,-0.94,-0.35,-0.32,-2.42,-2.44,-2.44
324.35,-1.50,0.94,-1.51,0.92,-0.92,-0.37,-0.34,-2.41,-2.43,-2.44
327.59,-1.52,0.91,-1.53,0.90,-0.90,-0.39,-0.36,-2.41,-2.43,-2.42
330.87,-1.54,0.89,-1.55,0.88,-0.88,-0.41,-0.38,-2.41,-2.42,-2.42
334.18,-1.57,0.86,-1.57,0.85,-0.85,-0.44,-0.40,-2.42,-2.42,-2.42
337.52,-1.61,0.81,-1.59,0.82,-0.82,-0.46,-0.42,-2.43,-2.41,-2.42
340.90,-1.63,0.78,-1.62,0.80,-0.80,-0.48,-0.44,-2.42,-2.41,-2.41
344.30,-1.66,0.75,-1.65,0.76,-0.76,-0.51,-0.47,-2.42,-2.41,-2.41
347.75,-1.68,0.73,-1.68,0.73,-0.73,-0.53,-0.49,-2.40,-2.41,-2.41
351.23,-1.71,0.71,-1.72,0.70,-0.70,-0.55,-0.51,-2.40,-2.41,-2.41
354.74,-1.75,0.67,-1.75,0.66,-0.66,-0.58,-0.54,-2.41,-2.42,-2.41
358.28,-1.79,0.64,-1.79,0.63,-0.63,-0.60,-0.56,-2.42,-2.42,-2.42
361.87,-1.83,0.60,-1.82,0.60,-0.60,-0.62,-0.58,-2.43,-2.42,-2.42
365.49,-1.87,0.56,-1.86,0.57,-0.57,-0.65,-0.61,-2.43,-2.43,-2.43
369.14,-1.91,0.53,-1.90,0.54,-0.54,-0.67,-0.64,-2.44,-2.43,-2.44
372.83,-1.94,0.50,-1.93,0.51,-0.51,-0.69,-0.66,-2.44,-2.44,-2.44
376.56,-1.98,0.47,-1.97,0.48,-0.48,-0.72,-0.69,-2.45,-2.45,-2.45
380.33,-2.00,0.45,-2.01,0.45,-0.45,-0.74,-0.71,-2.44,-2.45,-2.45
384.13,-2.03,0.44,-2.04,0.42,-0.42,-0.77,-0.74,-2.44,-2.46,-2.46
387.97,-2.06,0.42,-2.07,0.39,-0.39,-0.79,-0.77,-2.45,-2.47,-2.47
391.85,-2.09,0.40,-2.10,0.38,-0.38,-0.82,-0.80,-2.46,-2.47,-2.48
395.77,-2.12,0.36,-2.12,0.36,-0.36,-0.84,-0.82,-2.48,-2.48,-2.47
399.73,-2.15,0.34,-2.13,0.35,-0.35,-0.87,-0.85,-2.50,-2.49,-2.48
403.72,-2.18,0.32,-2.14,0.35,-0.35,-0.89,-0.88,-2.52,-2.49,-2.49
407.76,-2.19,0.32,-2.15,0.35,-0.35,-0.91,-0.91,-2.53,-2.50,-2.51
411.84,-2.18,0.32,-2.15,0.35,-0.35,-0.94,-0.94,-2.53,-2.50,-2.50
415.96,-2.17,0.34,-2.14,0.37,-0.37,-0.97,-0.97,-2.53,-2.51,-2.51
420.12,-2.13,0.38,-2.13,0.38,-0.38,-0.99,-1.00,-2.51,-2.51,-2.51
424.32,-2.10,0.41,-2.11,0.40,-0.40,-1.02,-1.02,-2.50,-2.51,-2.51
428.56,-2.07,0.45,-2.08,0.43,-0.43,-1.04,-1.05,-2.50,-2.51,-2.52
432.85,-2.05,0.47,-2.05,0.46,-0.46,-1.07,-1.08,-2.51,-2.51,-2.52
437.18,-2.02,0.50,-2.02,0.50,-0.50,-1.09,-1.11,-2.51,-2.52,-2.52
441.55,-1.99,0.52,-1.98,0.53,-0.53,-1.12,-1.14,-2.52,-2.52,-2.51
445.96,-1.95,0.56,-1.94,0.57,-0.57,-1.15,-1.16,-2.52,-2.51,-2.51
