frequency,raw,error,smoothed,error_smoothed,equalization,parametric_eq,equalized_raw,equalized_smoothed,target
20,-3.97,-4.01,-3.96,-4.00,4.00,1.25,0.02,0.03,0.04
21,-3.84,-3.88,-3.83,-3.86,3.86,1.44,0.02,0.03,0.04
22,-3.69,-3.73,-3.69,-3.72,3.72,1.65,0.03,0.03,0.04
23,-3.55,-3.59,-3.56,-3.60,3.60,1.88,0.04,0.03,0.03
24,-3.42,-3.45,-3.44,-3.47,3.47,2.12,0.05,0.03,0.03
25,-3.30,-3.33,-3.32,-3.35,3.35,2.37,0.05,0.03,0.03
26,-3.21,-3.24,-3.21,-3.24,3.24,2.61,0.02,0.02,0.02
27,-3.11,-3.13,-3.11,-3.13,3.13,2.84,0.01,0.02,0.02
28,-3.01,-3.03,-3.01,-3.02,3.02,3.03,0.01,0.02,0.02
29,-2.91,-2.93,-2.91,-2.92,2.92,3.19,0.01,0.01,0.01
30,-2.82,-2.83,-2.82,-2.83,2.83,3.29,0.01,0.01,0.01
31,-2.74,-2.75,-2.74,-2.74,2.74,3.34,-0.00,0.00,0.00
32,-2.66,-2.66,-2.66,-2.66,2.66,3.34,-0.01,-0.00,-0.00
33,-2.59,-2.58,-2.59,-2.58,2.58,3.29,-0.01,-0.01,-0.01
34,-2.52,-2.51,-2.52,-2.50,2.50,3.20,-0.02,-0.02,-0.02
35,-2.44,-2.42,-2.46,-2.44,2.44,3.08,-0.01,-0.03,-0.02
36,-2.39,-2.36,-2.40,-2.37,2.37,2.95,-0.02,-0.03,-0.03
37,-2.34,-2.30,-2.35,-2.31,2.31,2.81,-0.03,-0.04,-0.04
38,-2.30,-2.25,-2.30,-2.25,2.25,2.66,-0.05,-0.05,-0.05
39,-2.26,-2.20,-2.26,-2.20,2.20,2.52,-0.06,-0.06,-0.06
40,-2.21,-2.14,-2.22,-2.15,2.15,2.39,-0.07,-0.07,-0.07
41,-2.17,-2.09,-2.18,-2.10,2.10,2.26,-0.08,-0.09,-0.08
42,-2.16,-2.07,-2.15,-2.05,2.05,2.15,-0.12,-0.10,-0.09
43,-2.13,-2.03,-2.11,-2.00,2.00,2.05,-0.14,-0.11,-0.11
44,-2.08,-1.96,-2.08,-1.95,1.95,1.95,-0.13,-0.13,-0.12
45,-2.04,-1.91,-2.04,-1.90,1.90,1.87,-0.14,-0.14,-0.14
46,-2.00,-1.85,-2.01,-1.85,1.85,1.79,-0.15,-0.16,-0.15
47,-1.97,-1.81,-1.97,-1.80,1.80,1.73,-0.17,-0.17,-0.17
48,-1.94,-1.76,-1.94,-1.75,1.75,1.67,-0.20,-0.19,-0.18
49,-1.91,-1.71,-1.90,-1.69,1.69,1.62,-0.22,-0.21,-0.20
50,-1.87,-1.65,-1.87,-1.64,1.64,1.57,-0.23,-0.22,-0.22
51,-1.82,-1.58,-1.83,-1.59,1.59,1.53,-0.23,-0.24,-0.24
52,-1.78,-1.52,-1.80,-1.54,1.54,1.50,-0.24,-0.26,-0.26
53,-1.78,-1.50,-1.77,-1.49,1.49,1.46,-0.29,-0.28,-0.28
54,-1.74,-1.44,-1.75,-1.44,1.44,1.43,-0.30,-0.31,-0.31
55,-1.69,-1.36,-1.72,-1.39,1.39,1.40,-0.30,-0.33,-0.33
56,-1.69,-1.34,-1.70,-1.35,1.35,1.37,-0.35,-0.36,-0.35
57,-1.69,-1.31,-1.68,-1.30,1.30,1.35,-0.39,-0.38,-0.38
58,-1.65,-1.25,-1.66,-1.25,1.25,1.32,-0.40,-0.41,-0.41
59,-1.65,-1.22,-1.65,-1.21,1.21,1.29,-0.44,-0.44,-0.43
60,-1.65,-1.19,-1.63,-1.17,1.17,1.25,-0.49,-0.46,-0.46
61,-1.61,-1.12,-1.62,-1.12,1.12,1.22,-0.49,-0.49,-0.49
62,-1.61,-1.09,-1.60,-1.08,1.08,1.18,-0.53,-0.52,-0.52
63,-1.61,-1.06,-1.59,-1.04,1.04,1.15,-0.58,-0.55,-0.55
64,-1.56,-0.98,-1.58,-0.99,0.99,1.11,-0.57,-0.58,-0.58
65,-1.56,-0.95,-1.57,-0.95,0.95,1.06,-0.61,-0.62,-0.61
66,-1.56,-0.92,-1.56,-0.91,0.91,1.02,-0.66,-0.65,-0.65
67,-1.54,-0.86,-1.55,-0.87,0.87,0.97,-0.68,-0.68,-0.68
68,-1.52,-0.81,-1.54,-0.82,0.82,0.93,-0.70,-0.72,-0.72
69,-1.52,-0.77,-1.53,-0.78,0.78,0.88,-0.74,-0.75,-0.75
70,-1.52,-0.74,-1.53,-0.74,0.74,0.83,-0.78,-0.79,-0.79
71,-1.52,-0.70,-1.53,-0.70,0.70,0.78,-0.82,-0.83,-0.82
72,-1.52,-0.66,-1.52,-0.66,0.66,0.73,-0.87,-0.86,-0.86
73,-1.52,-0.62,-1.52,-0.61,0.61,0.68,-0.91,-0.90,-0.90
74,-1.52,-0.59,-1.51,-0.57,0.57,0.63,-0.95,-0.94,-0.94
75,-1.52,-0.55,-1.51,-0.53,0.53,0.58,-0.99,-0.98,-0.98
76,-1.52,-0.51,-1.51,-0.49,0.49,0.52,-1.03,-1.02,-1.01
77,-1.51,-0.46,-1.50,-0.45,0.45,0.47,-1.07,-1.06,-1.05
78,-1.49,-0.40,-1.50,-0.40,0.40,0.42,-1.09,-1.10,-1.09
79,-1.48,-0.35,-1.50,-0.36,0.36,0.37,-1.12,-1.14,-1.13
80,-1.48,-0.31,-1.49,-0.31,0.31,0.32,-1.17,-1.18,-1.18
81,-1.48,-0.27,-1.49,-0.27,0.27,0.28,-1.21,-1.22,-1.22
82,-1.48,-0.23,-1.49,-0.23,0.23,0.23,-1.26,-1.26,-1.26
83,-1.48,-0.18,-1.48,-0.18,0.18,0.18,-1.30,-1.30,-1.30
84,-1.48,-0.14,-1.48,-0.14,0.14,0.13,-1.34,-1.34,-1.34
85,-1.48,-0.10,-1.48,-0.10,0.10,0.08,-1.38,-1.38,-1.38
86,-1.48,-0.06,-1.48,-0.06,0.06,0.04,-1.43,-1.42,-1.42
87,-1.48,-0.02,-1.48,-0.01,0.01,-0.01,-1.47,-1.47,-1.47
88,-1.48,0.02,-1.48,0.03,-0.03,-0.06,-1.51,-1.51,-1.51
89,-1.48,0.07,-1.48,0.07,-0.07,-0.10,-1.55,-1.55,-1.55
90,-1.48,0.11,-1.48,0.11,-0.11,-0.15,-1.59,-1.59,-1.59
91,-1.48,0.15,-1.48,0.15,-0.15,-0.19,-1.63,-1.63,-1.63
92,-1.48,0.19,-1.48,0.19,-0.19,-0.24,-1.67,-1.67,-1.67
93,-1.48,0.23,-1.48,0.23,-0.23,-0.28,-1.71,-1.71,-1.71
94,-1.48,0.27,-1.48,0.27,-0.27,-0.32,-1.75,-1.75,-1.75
95,-1.48,0.31,-1.49,0.31,-0.31,-0.37,-1.79,-1.79,-1.79
96,-1.48,0.35,-1.49,0.35,-0.35,-0.41,-1.83,-1.84,-1.83
97,-1.48,0.39,-1.49,0.39,-0.39,-0.45,-1.87,-1.88,-1.87
98,-1.48,0.43,-1.49,0.43,-0.43,-0.50,-1.91,-1.92,-1.91
99,-1.50,0.45,-1.50,0.46,-0.46,-0.54,-1.97,-1.96,-1.95
100,-1.50,0.49,-1.50,0.50,-0.50,-0.58,-2.00,-2.00,-1.99
101,-1.52,0.51,-1.51,0.54,-0.54,-0.62,-2.06,-2.04,-2.03
102,-1.52,0.54,-1.51,0.57,-0.57,-0.66,-2.10,-2.09,-2.07
104,-1.52,0.62,-1.52,0.61,-0.61,-0.74,-2.13,-2.13,-2.14
105,-1.52,0.65,-1.53,0.64,-0.64,-0.77,-2.17,-2.17,-2.18
106,-1.52,0.69,-1.53,0.68,-0.68,-0.81,-2.20,-2.21,-2.21
107,-1.52,0.73,-1.54,0.71,-0.71,-0.84,-2.23,-2.24,-2.25
108,-1.54,0.74,-1.54,0.74,-0.74,-0.88,-2.28,-2.28,-2.28
109,-1.56,0.76,-1.55,0.77,-0.77,-0.91,-2.33,-2.32,-2.32
110,-1.56,0.79,-1.56,0.80,-0.80,-0.95,-2.36,-2.35,-2.35
111,-1.56,0.82,-1.56,0.83,-0.83,-0.98,-2.39,-2.39,-2.39
112,-1.56,0.86,-1.57,0.86,-0.86,-1.01,-2.42,-2.42,-2.42
113,-1.56,0.89,-1.58,0.88,-0.88,-1.04,-2.45,-2.46,-2.45
114,-1.56,0.92,-1.59,0.91,-0.91,-1.06,-2.47,-2.50,-2.48
115,-1.61,0.90,-1.59,0.94,-0.94,-1.09,-2.55,-2.53,-2.51
117,-1.61,0.96,-1.60,0.96,-0.96,-1.14,-2.58,-2.56,-2.57
118,-1.61,0.99,-1.61,0.99,-0.99,-1.16,-2.60,-2.60,-2.60
119,-1.61,1.02,-1.62,1.01,-1.01,-1.18,-2.63,-2.63,-2.63
120,-1.61,1.05,-1.62,1.04,-1.04,-1.20,-2.65,-2.66,-2.66
121,-1.63,1.05,-1.63,1.07,-1.07,-1.21,-2.70,-2.70,-2.69
123,-1.65,1.09,-1.64,1.09,-1.09,-1.24,-2.74,-2.73,-2.74
124,-1.65,1.11,-1.65,1.11,-1.11,-1.26,-2.77,-2.77,-2.77
125,-1.65,1.14,-1.66,1.14,-1.14,-1.27,-2.79,-2.80,-2.79
126,-1.65,1.17,-1.67,1.16,-1.16,-1.28,-2.81,-2.83,-2.82
128,-1.69,1.17,-1.68,1.18,-1.18,-1.29,-2.87,-2.86,-2.87
129,-1.69,1.20,-1.69,1.20,-1.20,-1.30,-2.89,-2.89,-2.89
130,-1.69,1.22,-1.70,1.22,-1.22,-1.30,-2.91,-2.92,-2.91
131,-1.69,1.24,-1.71,1.24,-1.24,-1.30,-2.93,-2.95,-2.94
133,-1.73,1.25,-1.72,1.26,-1.26,-1.31,-2.99,-2.98,-2.98
134,-1.74,1.26,-1.73,1.27,-1.27,-1.31,-3.02,-3.00,-3.00
135,-1.74,1.28,-1.74,1.29,-1.29,-1.31,-3.03,-3.03,-3.02
137,-1.74,1.32,-1.75,1.31,-1.31,-1.30,-3.05,-3.06,-3.06
138,-1.75,1.33,-1.76,1.32,-1.32,-1.30,-3.07,-3.08,-3.08
140,-1.78,1.33,-1.77,1.34,-1.34,-1.29,-3.12,-3.11,-3.12
141,-1.78,1.35,-1.78,1.35,-1.35,-1.29,-3.13,-3.13,-3.14
142,-1.78,1.37,-1.80,1.36,-1.36,-1.28,-3.15,-3.16,-3.15
144,-1.82,1.36,-1.81,1.38,-1.38,-1.27,-3.20,-3.18,-3.19
145,-1.82,1.38,-1.82,1.39,-1.39,-1.27,-3.21,-3.21,-3.20
147,-1.82,1.41,-1.83,1.40,-1.40,-1.25,-3.22,-3.23,-3.23
148,-1.82,1.43,-1.84,1.41,-1.41,-1.25,-3.23,-3.25,-3.25
150,-1.87,1.41,-1.86,1.42,-1.42,-1.23,-3.29,-3.28,-3.28
151,-1.87,1.42,-1.87,1.43,-1.43,-1.23,-3.30,-3.30,-3.29
153,-1.87,1.45,-1.88,1.43,-1.43,-1.22,-3.31,-3.32,-3.32
154,-1.91,1.42,-1.90,1.44,-1.44,-1.21,-3.35,-3.34,-3.33
156,-1.91,1.45,-1.91,1.45,-1.45,-1.20,-3.36,-3.36,-3.36
157,-1.91,1.46,-1.93,1.45,-1.45,-1.19,-3.36,-3.38,-3.37
159,-1.95,1.44,-1.94,1.45,-1.45,-1.18,-3.41,-3.39,-3.40
160,-1.95,1.45,-1.96,1.46,-1.46,-1.18,-3.41,-3.41,-3.41
162,-1.95,1.48,-1.97,1.46,-1.46,-1.17,-3.41,-3.43,-3.43
164,-2.00,1.45,-1.99,1.46,-1.46,-1.16,-3.46,-3.45,-3.45
165,-2.00,1.46,-2.00,1.46,-1.46,-1.16,-3.46,-3.46,-3.46
167,-2.01,1.47,-2.02,1.46,-1.46,-1.15,-3.47,-3.48,-3.48
169,-2.04,1.46,-2.04,1.46,-1.46,-1.15,-3.50,-3.50,-3.50
170,-2.04,1.46,-2.05,1.46,-1.46,-1.15,-3.50,-3.51,-3.51
172,-2.08,1.44,-2.07,1.46,-1.46,-1.15,-3.54,-3.53,-3.53
174,-2.08,1.46,-2.09,1.46,-1.46,-1.14,-3.54,-3.54,-3.54
175,-2.08,1.47,-2.10,1.45,-1.45,-1.14,-3.54,-3.55,-3.55
177,-2.13,1.43,-2.11,1.45,-1.45,-1.15,-3.59,-3.57,-3.57
179,-2.13,1.45,-2.13,1.45,-1.45,-1.15,-3.58,-3.58,-3.58
181,-2.13,1.46,-2.15,1.45,-1.45,-1.15,-3.58,-3.59,-3.59
183,-2.17,1.44,-2.16,1.45,-1.45,-1.15,-3.62,-3.61,-3.61
184,-2.17,1.44,-2.17,1.44,-1.44,-1.16,-3.62,-3.62,-3.61
186,-2.17,1.45,-2.19,1.44,-1.44,-1.16,-3.61,-3.63,-3.63
188,-2.21,1.43,-2.20,1.44,-1.44,-1.17,-3.65,-3.64,-3.64
190,-2.21,1.44,-2.21,1.44,-1.44,-1.18,-3.65,-3.65,-3.65
192,-2.21,1.45,-2.23,1.43,-1.43,-1.19,-3.65,-3.66,-3.66
194,-2.26,1.41,-2.24,1.43,-1.43,-1.19,-3.69,-3.67,-3.67
196,-2.26,1.42,-2.25,1.43,-1.43,-1.20,-3.69,-3.68,-3.68
198,-2.26,1.43,-2.27,1.43,-1.43,-1.21,-3.69,-3.69,-3.69
200,-2.26,1.44,-2.28,1.42,-1.42,-1.22,-3.69,-3.70,-3.70
202,-2.30,1.41,-2.29,1.42,-1.42,-1.24,-3.72,-3.71,-3.71
204,-2.30,1.42,-2.30,1.42,-1.42,-1.25,-3.72,-3.72,-3.72
206,-2.30,1.42,-2.32,1.41,-1.41,-1.26,-3.72,-3.73,-3.73
208,-2.34,1.39,-2.33,1.41,-1.41,-1.27,-3.75,-3.74,-3.73
210,-2.34,1.40,-2.34,1.41,-1.41,-1.28,-3.75,-3.75,-3.74
212,-2.34,1.41,-2.35,1.40,-1.40,-1.29,-3.74,-3.75,-3.75
214,-2.34,1.42,-2.36,1.40,-1.40,-1.30,-3.74,-3.76,-3.76
216,-2.39,1.37,-2.38,1.39,-1.39,-1.31,-3.78,-3.77,-3.77
218,-2.39,1.38,-2.39,1.39,-1.39,-1.32,-3.78,-3.77,-3.77
221,-2.39,1.39,-2.40,1.38,-1.38,-1.34,-3.77,-3.78,-3.78
223,-2.43,1.35,-2.41,1.37,-1.37,-1.35,-3.80,-3.78,-3.79
225,-2.43,1.35,-2.43,1.36,-1.36,-1.35,-3.79,-3.79,-3.79
227,-2.43,1.36,-2.44,1.35,-1.35,-1.36,-3.78,-3.79,-3.79
229,-2.43,1.36,-2.45,1.34,-1.34,-1.37,-3.77,-3.79,-3.79
232,-2.47,1.32,-2.47,1.32,-1.32,-1.37,-3.80,-3.79,-3.79
234,-2.47,1.31,-2.48,1.31,-1.31,-1.38,-3.78,-3.79,-3.79
236,-2.47,1.31,-2.49,1.29,-1.29,-1.38,-3.76,-3.78,-3.78
239,-2.52,1.25,-2.50,1.27,-1.27,-1.38,-3.80,-3.77,-3.78
241,-2.52,1.24,-2.51,1.25,-1.25,-1.38,-3.78,-3.77,-3.77
244,-2.52,1.24,-2.52,1.23,-1.23,-1.38,-3.76,-3.76,-3.76
246,-2.52,1.22,-2.53,1.21,-1.21,-1.37,-3.74,-3.75,-3.75
248,-2.56,1.17,-2.55,1.19,-1.19,-1.37,-3.76,-3.74,-3.74
251,-2.56,1.16,-2.56,1.17,-1.17,-1.36,-3.73,-3.73,-3.73
253,-2.56,1.15,-2.57,1.15,-1.15,-1.35,-3.71,-3.72,-3.71
256,-2.56,1.14,-2.58,1.13,-1.13,-1.34,-3.69,-3.71,-3.70
259,-2.60,1.09,-2.59,1.11,-1.11,-1.32,-3.71,-3.70,-3.69
261,-2.60,1.08,-2.60,1.08,-1.08,-1.31,-3.69,-3.69,-3.68
264,-2.60,1.07,-2.61,1.06,-1.06,-1.28,-3.67,-3.67,-3.67
266,-2.60,1.06,-2.62,1.04,-1.04,-1.27,-3.64,-3.66,-3.66
269,-2.65,1.00,-2.63,1.02,-1.02,-1.24,-3.67,-3.65,-3.65
272,-2.65,0.99,-2.64,0.99,-0.99,-1.22,-3.65,-3.64,-3.64
274,-2.65,0.97,-2.65,0.97,-0.97,-1.20,-3.62,-3.62,-3.63
277,-2.65,0.96,-2.66,0.94,-0.94,-1.17,-3.60,-3.61,-3.61
280,-2.67,0.92,-2.67,0.92,-0.92,-1.14,-3.59,-3.59,-3.60
283,-2.69,0.88,-2.68,0.89,-0.89,-1.11,-3.59,-3.58,-3.58
286,-2.69,0.86,-2.69,0.87,-0.87,-1.08,-3.56,-3.56,-3.56
288,-2.69,0.84,-2.70,0.84,-0.84,-1.06,-3.53,-3.54,-3.54
291,-2.69,0.82,-2.70,0.81,-0.81,-1.02,-3.51,-3.52,-3.51
294,-2.70,0.79,-2.71,0.78,-0.78,-0.99,-3.49,-3.50,-3.49
297,-2.73,0.74,-2.72,0.76,-0.76,-0.96,-3.49,-3.47,-3.47
300,-2.73,0.72,-2.72,0.73,-0.73,-0.92,-3.46,-3.45,-3.45
303,-2.73,0.70,-2.73,0.70,-0.70,-0.89,-3.44,-3.44,-3.43
306,-2.73,0.68,-2.74,0.68,-0.68,-0.86,-3.41,-3.42,-3.41
309,-2.73,0.66,-2.75,0.65,-0.65,-0.82,-3.38,-3.40,-3.39
312,-2.73,0.64,-2.75,0.62,-0.62,-0.79,-3.36,-3.38,-3.37
316,-2.75,0.60,-2.76,0.60,-0.60,-0.75,-3.35,-3.36,-3.36
319,-2.78,0.56,-2.77,0.57,-0.57,-0.71,-3.36,-3.34,-3.34
322,-2.78,0.54,-2.77,0.55,-0.55,-0.68,-3.33,-3.32,-3.32
325,-2.78,0.52,-2.77,0.53,-0.53,-0.65,-3.31,-3.30,-3.30
328,-2.78,0.50,-2.78,0.50,-0.50,-0.62,-3.28,-3.28,-3.28
332,-2.78,0.48,-2.78,0.48,-0.48,-0.58,-3.26,-3.26,-3.26
335,-2.78,0.46,-2.78,0.45,-0.45,-0.55,-3.24,-3.24,-3.24
338,-2.78,0.43,-2.79,0.43,-0.43,-0.51,-3.21,-3.22,-3.22
342,-2.78,0.41,-2.79,0.41,-0.41,-0.48,-3.19,-3.20,-3.19
345,-2.78,0.39,-2.79,0.38,-0.38,-0.45,-3.17,-3.17,-3.17
349,-2.78,0.37,-2.79,0.36,-0.36,-0.41,-3.14,-3.15,-3.15
352,-2.78,0.35,-2.79,0.34,-0.34,-0.38,-3.12,-3.13,-3.13
356,-2.80,0.31,-2.80,0.32,-0.32,-0.34,-3.12,-3.11,-3.11
359,-2.80,0.29,-2.80,0.29,-0.29,-0.31,-3.10,-3.09,-3.09
363,-2.80,0.27,-2.80,0.27,-0.27,-0.28,-3.08,-3.08,-3.07
366,-2.80,0.26,-2.81,0.25,-0.25,-0.25,-3.06,-3.06,-3.06
370,-2.81,0.23,-2.81,0.23,-0.23,-0.22,-3.05,-3.05,-3.05
374,-2.82,0.21,-2.82,0.22,-0.22,-0.18,-3.04,-3.03,-3.03
377,-2.82,0.20,-2.82,0.20,-0.20,-0.16,-3.02,-3.02,-3.02
381,-2.82,0.18,-2.82,0.19,-0.19,-0.13,-3.01,-3.01,-3.01
385,-2.82,0.17,-2.82,0.17,-0.17,-0.09,-3.00,-3.00,-2.99
389,-2.82,0.16,-2.82,0.16,-0.16,-0.06,-2.98,-2.98,-2.98
393,-2.82,0.15,-2.82,0.15,-0.15,-0.03,-2.97,-2.97,-2.97
397,-2.82,0.14,-2.82,0.14,-0.14,-0.00,-2.97,-2.97,-2.96
401,-2.82,0.13,-2.82,0.14,-0.14,0.03,-2.96,-2.96,-2.96
405,-2.82,0.13,-2.82,0.13,-0.13,0.05,-2.95,-2.95,-2.95
409,-2.82,0.12,-2.82,0.12,-0.12,0.08,-2.95,-2.95,-2.94
413,-2.82,0.12,-2.82,0.12,-0.12,0.11,-2.94,-2.94,-2.94
417,-2.82,0.11,-2.82,0.11,-0.11,0.13,-2.94,-2.94,-2.94
421,-2.82,0.11,-2.82,0.11,-0.11,0.16,-2.93,-2.93,-2.93
425,-2.82,0.10,-2.83,0.10,-0.10,0.18,-2.92,-2.93,-2.93
430,-2.82,0.10,-2.83,0.10,-0.10,0.21,-2.92,-2.92,-2.92
434,-2.82,0.09,-2.83,0.09,-0.09,0.23,-2.91,-2.91,-2.92
438,-2.82,0.09,-2.82,0.08,-0.08,0.25,-2.91,-2.91,-2.91
443,-2.82,0.08,-2.82,0.08,-0.08,0.27,-2.90,-2.90,-2.90
447,-2.82,0.07,-2.82,0.07,-0.07,0.28,-2.89,-2.89,-2.89
451,-2.82,0.06,-2.82,0.06,-0.06,0.30,-2.88,-2.88,-2.88
456,-2.82,0.04,-2.81,0.05,-0.05,0.32,-2.88,-2.87,-2.87
460,-2.82,0.03,-2.81,0.05,-0.05,0.33,-2.87,-2.85,-2.85
465,-2.79,0.04,-2.80,0.04,-0.04,0.34,-2.83,-2.84,-2.84
470,-2.78,0.04,-2.80,0.03,-0.03,0.35,-2.82,-2.83,-2.82
474,-2.78,0.03,-2.79,0.03,-0.03,0.36,-2.81,-2.81,-2.81
479,-2.78,0.01,-2.78,0.02,-0.02,0.36,-2.81,-2.80,-2.79
484,-2.78,-0.00,-2.77,0.02,-0.02,0.37,-2.80,-2.79,-2.78
489,-2.75,0.02,-2.76,0.01,-0.01,0.37,-2.77,-2.77,-2.77
494,-2.73,0.02,-2.75,0.01,-0.01,0.36,-2.74,-2.76,-2.75
499,-2.73,0.01,-2.74,0.01,-0.01,0.36,-2.74,-2.74,-2.74
504,-2.73,-0.00,-2.72,0.00,-0.00,0.35,-2.73,-2.73,-2.73
509,-2.71,0.00,-2.71,-0.00,0.00,0.34,-2.71,-2.71,-2.71
514,-2.69,0.01,-2.70,-0.01,0.01,0.33,-2.68,-2.69,-2.70
519,-2.69,-0.01,-2.69,-0.02,0.02,0.32,-2.68,-2.68,-2.68
524,-2.69,-0.03,-2.68,-0.02,0.02,0.31,-2.67,-2.66,-2.66
529,-2.65,-0.01,-2.67,-0.03,0.03,0.29,-2.62,-2.64,-2.64
535,-2.65,-0.04,-2.65,-0.04,0.04,0.26,-2.62,-2.62,-2.62
540,-2.65,-0.06,-2.64,-0.04,0.04,0.24,-2.61,-2.60,-2.59
545,-2.60,-0.03,-2.62,-0.05,0.05,0.22,-2.55,-2.57,-2.57
551,-2.60,-0.06,-2.61,-0.05,0.05,0.19,-2.55,-2.55,-2.55
556,-2.60,-0.08,-2.59,-0.06,0.06,0.17,-2.54,-2.53,-2.52
562,-2.56,-0.06,-2.56,-0.06,0.06,0.13,-2.50,-2.50,-2.50
568,-2.55,-0.08,-2.54,-0.06,0.06,0.10,-2.49,-2.48,-2.48
573,-2.52,-0.07,-2.52,-0.06,0.06,0.07,-2.46,-2.46,-2.45
579,-2.50,-0.07,-2.50,-0.06,0.06,0.04,-2.45,-2.44,-2.43
585,-2.47,-0.06,-2.47,-0.05,0.05,-0.00,-2.42,-2.42,-2.41
591,-2.44,-0.05,-2.45,-0.05,0.05,-0.04,-2.40,-2.40,-2.40
596,-2.41,-0.03,-2.43,-0.04,0.04,-0.07,-2.37,-2.39,-2.38
602,-2.39,-0.03,-2.40,-0.03,0.03,-0.11,-2.36,-2.37,-2.37
608,-2.35,0.00,-2.38,-0.02,0.02,-0.15,-2.33,-2.36,-2.35
615,-2.34,-0.00,-2.35,-0.01,0.01,-0.20,-2.33,-2.34,-2.34
621,-2.34,-0.02,-2.32,0.00,-0.00,-0.24,-2.35,-2.33,-2.33
627,-2.30,0.01,-2.30,0.02,-0.02,-0.28,-2.32,-2.31,-2.31
633,-2.28,0.02,-2.27,0.03,-0.03,-0.33,-2.31,-2.30,-2.30
639,-2.25,0.03,-2.24,0.05,-0.05,-0.37,-2.30,-2.28,-2.29
646,-2.21,0.06,-2.20,0.06,-0.06,-0.42,-2.28,-2.27,-2.27
652,-2.17,0.08,-2.17,0.08,-0.08,-0.46,-2.25,-2.26,-2.26
659,-2.13,0.11,-2.14,0.10,-0.10,-0.51,-2.23,-2.24,-2.24
665,-2.10,0.12,-2.11,0.12,-0.12,-0.56,-2.23,-2.23,-2.23
672,-2.05,0.16,-2.07,0.15,-0.15,-0.61,-2.20,-2.22,-2.21
679,-2.02,0.18,-2.03,0.17,-0.17,-0.66,-2.20,-2.21,-2.20
686,-1.99,0.19,-2.00,0.20,-0.20,-0.71,-2.19,-2.20,-2.19
692,-1.95,0.23,-1.96,0.23,-0.23,-0.76,-2.18,-2.19,-2.18
699,-1.91,0.26,-1.92,0.26,-0.26,-0.81,-2.17,-2.18,-2.17
706,-1.90,0.26,-1.88,0.29,-0.29,-0.86,-2.20,-2.17,-2.16
713,-1.85,0.31,-1.84,0.33,-0.33,-0.91,-2.18,-2.16,-2.16
721,-1.80,0.35,-1.80,0.36,-0.36,-0.97,-2.16,-2.16,-2.16
728,-1.76,0.39,-1.75,0.40,-0.40,-1.03,-2.16,-2.15,-2.15
735,-1.71,0.43,-1.71,0.43,-0.43,-1.08,-2.15,-2.15,-2.15
742,-1.67,0.47,-1.67,0.47,-0.47,-1.13,-2.14,-2.14,-2.14
750,-1.60,0.53,-1.63,0.51,-0.51,-1.19,-2.11,-2.13,-2.14
757,-1.56,0.57,-1.58,0.54,-0.54,-1.25,-2.11,-2.13,-2.13
765,-1.52,0.60,-1.54,0.58,-0.58,-1.31,-2.10,-2.12,-2.12
773,-1.48,0.63,-1.49,0.62,-0.62,-1.37,-2.10,-2.11,-2.11
780,-1.45,0.65,-1.45,0.66,-0.66,-1.42,-2.11,-2.10,-2.10
788,-1.42,0.67,-1.40,0.69,-0.69,-1.48,-2.12,-2.09,-2.09
796,-1.37,0.71,-1.35,0.73,-0.73,-1.54,-2.11,-2.09,-2.08
804,-1.31,0.76,-1.30,0.78,-0.78,-1.60,-2.09,-2.08,-2.07
812,-1.25,0.81,-1.25,0.82,-0.82,-1.65,-2.07,-2.07,-2.07
820,-1.19,0.87,-1.20,0.86,-0.86,-1.71,-2.06,-2.07,-2.06
828,-1.15,0.90,-1.15,0.91,-0.91,-1.77,-2.06,-2.06,-2.05
837,-1.11,0.94,-1.10,0.96,-0.96,-1.83,-2.07,-2.06,-2.05
845,-1.02,1.02,-1.04,1.01,-1.01,-1.88,-2.03,-2.06,-2.05
853,-0.98,1.07,-0.99,1.06,-1.06,-1.94,-2.05,-2.05,-2.05
862,-0.93,1.12,-0.93,1.12,-1.12,-1.99,-2.05,-2.05,-2.05
871,-0.87,1.18,-0.87,1.18,-1.18,-2.05,-2.05,-2.05,-2.05
879,-0.82,1.23,-0.82,1.23,-1.23,-2.09,-2.06,-2.05,-2.05
888,-0.76,1.29,-0.76,1.29,-1.29,-2.14,-2.05,-2.05,-2.05
897,-0.70,1.35,-0.70,1.35,-1.35,-2.19,-2.05,-2.05,-2.05
906,-0.64,1.41,-0.64,1.40,-1.40,-2.24,-2.05,-2.05,-2.05
915,-0.58,1.47,-0.58,1.46,-1.46,-2.28,-2.04,-2.05,-2.05
924,-0.52,1.52,-0.52,1.52,-1.52,-2.32,-2.04,-2.04,-2.04
933,-0.46,1.58,-0.46,1.57,-1.57,-2.35,-2.03,-2.04,-2.04
943,-0.40,1.63,-0.40,1.63,-1.63,-2.39,-2.03,-2.03,-2.03
952,-0.33,1.69,-0.34,1.68,-1.68,-2.42,-2.01,-2.02,-2.02
962,-0.26,1.74,-0.27,1.73,-1.73,-2.44,-1.99,-2.00,-2.01
971,-0.21,1.78,-0.21,1.78,-1.78,-2.46,-2.00,-1.99,-1.99
981,-0.13,1.84,-0.14,1.84,-1.84,-2.48,-1.97,-1.97,-1.97
991,-0.06,1.89,-0.07,1.89,-1.89,-2.49,-1.95,-1.96,-1.95
1001,0.01,1.94,0.01,1.94,-1.94,-2.50,-1.94,-1.94,-1.93
1011,0.09,2.00,0.08,2.00,-2.00,-2.51,-1.91,-1.91,-1.91
1021,0.15,2.03,0.16,2.06,-2.06,-2.51,-1.91,-1.89,-1.88
1031,0.25,2.10,0.25,2.11,-2.11,-2.50,-1.87,-1.87,-1.86
1041,0.33,2.16,0.33,2.17,-2.17,-2.50,-1.85,-1.84,-1.83
1052,0.41,2.21,0.42,2.24,-2.24,-2.49,-1.83,-1.81,-1.80
1062,0.51,2.28,0.51,2.30,-2.30,-2.47,-1.79,-1.79,-1.78
1073,0.62,2.36,0.61,2.36,-2.36,-2.45,-1.75,-1.75,-1.75
1084,0.70,2.42,0.70,2.43,-2.43,-2.43,-1.73,-1.72,-1.72
1094,0.80,2.49,0.80,2.49,-2.49,-2.41,-1.69,-1.69,-1.69
1105,0.90,2.55,0.90,2.56,-2.56,-2.38,-1.66,-1.66,-1.66
1116,1.00,2.62,0.99,2.62,-2.62,-2.35,-1.62,-1.63,-1.63
1128,1.11,2.70,1.09,2.68,-2.68,-2.32,-1.57,-1.59,-1.60
1139,1.19,2.75,1.18,2.74,-2.74,-2.28,-1.55,-1.56,-1.56
1150,1.29,2.81,1.27,2.80,-2.80,-2.25,-1.51,-1.53,-1.53
1162,1.39,2.88,1.37,2.86,-2.86,-2.21,-1.47,-1.49,-1.49
1173,1.46,2.91,1.46,2.91,-2.91,-2.17,-1.46,-1.45,-1.45
1185,1.56,2.97,1.56,2.97,-2.97,-2.14,-1.41,-1.41,-1.41
1197,1.63,2.99,1.65,3.02,-3.02,-2.10,-1.39,-1.37,-1.37
1209,1.72,3.04,1.75,3.07,-3.07,-2.06,-1.36,-1.33,-1.32
1221,1.81,3.08,1.84,3.13,-3.13,-2.02,-1.32,-1.28,-1.27
1233,1.93,3.15,1.94,3.17,-3.17,-1.98,-1.25,-1.23,-1.22
1246,2.04,3.21,2.04,3.22,-3.22,-1.94,-1.19,-1.18,-1.17
1258,2.16,3.27,2.14,3.27,-3.27,-1.90,-1.11,-1.12,-1.12
1271,2.25,3.31,2.24,3.30,-3.30,-1.86,-1.06,-1.06,-1.06
1283,2.34,3.34,2.34,3.34,-3.34,-1.82,-1.00,-0.99,-1.00
1296,2.41,3.35,2.43,3.36,-3.36,-1.79,-0.95,-0.93,-0.94
1309,2.51,3.39,2.51,3.37,-3.37,-1.75,-0.87,-0.86,-0.88
1322,2.60,3.41,2.58,3.38,-3.38,-1.71,-0.78,-0.80,-0.81
1335,2.67,3.41,2.64,3.37,-3.37,-1.68,-0.71,-0.73,-0.75
1349,2.75,3.42,2.69,3.36,-3.36,-1.65,-0.61,-0.67,-0.68
1362,2.80,3.41,2.72,3.33,-3.33,-1.61,-0.54,-0.61,-0.61
1376,2.81,3.35,2.75,3.30,-3.30,-1.58,-0.49,-0.55,-0.54
1390,2.77,3.24,2.77,3.26,-3.26,-1.55,-0.49,-0.48,-0.47
1404,2.77,3.17,2.80,3.21,-3.21,-1.52,-0.44,-0.41,-0.40
1418,2.77,3.09,2.82,3.15,-3.15,-1.50,-0.39,-0.33,-0.33
1432,2.79,3.04,2.84,3.10,-3.10,-1.47,-0.31,-0.26,-0.26
1446,2.80,2.98,2.85,3.03,-3.03,-1.45,-0.23,-0.19,-0.18
1461,2.80,2.91,2.85,2.96,-2.96,-1.42,-0.17,-0.11,-0.11
1475,2.82,2.85,2.85,2.89,-2.89,-1.40,-0.08,-0.04,-0.04
1490,2.85,2.81,2.85,2.82,-2.82,-1.38,0.03,0.03,0.04
1505,2.92,2.80,2.85,2.74,-2.74,-1.36,0.17,0.11,0.11
1520,2.98,2.79,2.85,2.66,-2.66,-1.34,0.31,0.19,0.19
1535,2.92,2.65,2.85,2.58,-2.58,-1.32,0.34,0.27,0.27
1550,2.86,2.50,2.84,2.49,-2.49,-1.31,0.37,0.35,0.35
1566,2.80,2.36,2.83,2.39,-2.39,-1.29,0.41,0.44,0.44
1582,2.77,2.24,2.82,2.29,-2.29,-1.27,0.48,0.53,0.52
