frequency,raw
20.00,-18.65
20.20,-18.51
20.40,-18.37
20.61,-18.23
20.81,-18.09
21.02,-17.95
21.23,-17.80
21.44,-17.65
21.66,-17.50
21.87,-17.36
22.09,-17.22
22.31,-17.09
22.54,-16.96
22.76,-16.83
22.99,-16.70
23.22,-16.55
23.45,-16.41
23.69,-16.26
23.92,-16.12
24.16,-15.97
24.40,-15.82
24.65,-15.67
24.89,-15.51
25.14,-15.37
25.39,-15.23
25.65,-15.10
25.91,-14.96
26.16,-14.82
26.43,-14.69
26.69,-14.55
26.96,-14.41
27.23,-14.28
27.50,-14.14
27.77,-14.00
28.05,-13.86
28.33,-13.70
28.62,-13.53
28.90,-13.37
29.19,-13.20
29.48,-13.04
29.78,-12.88
30.08,-12.73
30.38,-12.60
30.68,-12.47
30.99,-12.34
31.30,-12.15
31.61,-11.96
31.93,-11.76
32.24,-11.62
32.57,-11.50
32.89,-11.37
33.22,-11.25
33.55,-11.12
33.89,-11.00
34.23,-10.81
34.57,-10.60
34.92,-10.38
35.27,-10.22
35.62,-10.08
35.97,-9.93
36.33,-9.81
36.70,-9.68
37.06,-9.56
37.43,-9.43
37.81,-9.30
38.19,-9.14
38.57,-8.94
38.95,-8.74
39.34,-8.61
39.74,-8.48
40.14,-8.34
40.54,-8.18
40.94,-8.03
41.35,-7.83
41.76,-7.61
42.18,-7.43
42.60,-7.28
43.03,-7.13
43.46,-6.94
43.90,-6.75
44.33,-6.55
44.78,-6.36
45.23,-6.19
45.68,-6.04
46.13,-5.90
46.60,-5.75
47.06,-5.60
47.53,-5.41
48.01,-5.22
48.49,-5.08
48.97,-4.94
49.46,-4.70
49.96,-4.46
50.46,-4.31
50.96,-4.16
51.47,-4.01
51.99,-3.86
52.51,-3.69
53.03,-3.51
53.56,-3.35
54.10,-3.19
54.64,-3.05
55.18,-2.92
55.74,-2.80
56.29,-2.65
56.86,-2.47
57.42,-2.32
58.00,-2.19
58.58,-1.97
59.16,-1.77
59.76,-1.64
60.35,-1.51
60.96,-1.38
61.57,-1.24
62.18,-1.14
62.80,-1.09
63.43,-0.99
64.07,-0.88
64.71,-0.76
65.35,-0.65
66.01,-0.56
66.67,-0.46
67.33,-0.37
68.01,-0.28
68.69,-0.12
69.37,0.01
70.07,0.12
70.77,0.17
71.48,0.26
72.19,0.36
72.91,0.45
73.64,0.54
74.38,0.65
75.12,0.76
75.87,0.84
76.63,0.90
77.40,0.98
78.17,1.08
78.95,1.19
79.74,1.24
80.54,1.29
81.35,1.40
82.16,1.54
82.98,1.60
83.81,1.72
84.65,1.78
85.50,1.82
86.35,1.85
87.22,1.87
88.09,1.96
88.97,2.02
89.86,2.05
90.76,2.06
91.66,2.06
92.58,2.06
93.51,2.06
94.44,2.06
95.39,2.06
96.34,2.06
97.30,2.05
98.28,2.04
99.26,2.03
100.25,2.01
101.25,1.99
102.27,1.98
103.29,1.97
104.32,1.95
105.37,1.92
106.42,1.90
107.48,1.84
108.56,1.76
109.64,1.67
110.74,1.61
111.85,1.58
112.97,1.48
114.10,1.43
115.24,1.36
116.39,1.30
117.55,1.28
118.73,1.21
119.92,1.12
121.12,1.08
122.33,1.03
123.55,1.01
124.79,1.02
126.03,1.02
127.29,0.97
128.57,0.93
129.85,0.86
131.15,0.85
132.46,0.85
133.79,0.86
135.12,0.86
136.48,0.86
137.84,0.87
139.22,0.81
140.61,0.77
142.02,0.77
143.44,0.70
144.87,0.67
146.32,0.67
147.78,0.67
149.26,0.67
150.75,0.67
152.26,0.67
153.78,0.66
155.32,0.60
156.88,0.57
158.44,0.57
160.03,0.54
161.63,0.48
163.24,0.43
164.88,0.33
166.53,0.27
168.19,0.19
169.87,0.14
171.57,0.14
173.29,0.13
175.02,0.12
176.77,0.12
178.54,0.12
180.32,0.12
182.13,0.13
183.95,0.14
185.79,0.15
187.65,0.17
189.52,0.18
191.42,0.19
193.33,0.21
195.27,0.22
197.22,0.24
199.19,0.21
201.18,0.17
203.19,0.16
205.23,0.16
207.28,0.16
209.35,0.16
211.44,0.16
213.56,0.15
215.69,0.15
217.85,0.15
220.03,0.14
222.23,0.14
224.45,0.14
226.70,0.14
228.96,0.15
231.25,0.15
233.57,0.13
235.90,0.07
238.26,0.09
240.64,0.11
243.05,0.12
245.48,0.14
247.93,0.17
250.41,0.15
252.92,0.10
255.45,0.11
258.00,0.12
260.58,0.13
263.19,0.13
265.82,0.13
268.48,0.13
271.16,0.12
273.87,0.04
276.61,0.00
279.38,0.02
282.17,-0.07
284.99,-0.09
287.84,-0.10
290.72,-0.15
293.63,-0.24
296.57,-0.23
299.53,-0.22
302.53,-0.19
305.55,-0.16
308.61,-0.24
311.69,-0.28
314.81,-0.28
317.96,-0.28
321.14,-0.28
324.35,-0.28
327.59,-0.28
330.87,-0.28
334.18,-0.28
337.52,-0.28
340.90,-0.27
344.30,-0.29
347.75,-0.36
351.23,-0.45
354.74,-0.49
358.28,-0.48
361.87,-0.47
365.49,-0.47
369.14,-0.46
372.83,-0.47
376.56,-0.46
380.33,-0.36
384.13,-0.33
387.97,-0.32
391.85,-0.32
395.77,-0.32
399.73,-0.32
403.72,-0.37
407.76,-0.42
411.84,-0.43
415.96,-0.43
420.12,-0.48
424.32,-0.52
428.56,-0.54
432.85,-0.58
437.18,-0.55
441.55,-0.46
445.96,-0.39
450.42,-0.34
454.93,-0.28
459.48,-0.22
464.07,-0.19
468.71,-0.22
473.40,-0.23
478.13,-0.21
482.91,-0.28
487.74,-0.37
492.62,-0.32
497.55,-0.25
502.52,-0.22
507.55,-0.20
512.62,-0.04
517.75,-0.00
522.93,-0.06
528.16,-0.15
533.44,-0.16
538.77,-0.07
544.16,-0.07
549.60,-0.11
555.10,-0.16
560.65,-0.22
566.25,-0.27
571.92,-0.26
577.64,-0.17
583.41,-0.22
589.25,-0.28
595.14,-0.30
601.09,-0.29
607.10,-0.28
613.17,-0.27
619.30,-0.25
625.50,-0.22
631.75,-0.20
638.07,-0.16
644.45,-0.19
650.89,-0.15
657.40,0.02
663.98,0.11
670.62,0.16
677.32,0.29
684.10,0.36
690.94,0.33
697.85,0.50
704.83,0.71
711.87,0.76
718.99,0.68
726.18,0.56
733.44,0.51
740.78,0.65
748.19,0.81
755.67,0.83
763.23,0.73
770.86,0.69
778.57,0.67
786.35,0.67
794.22,0.67
802.16,0.67
810.18,0.79
818.28,0.77
826.46,0.58
834.73,0.53
843.08,0.45
851.51,0.53
860.02,0.48
868.62,0.27
877.31,0.18
886.08,0.13
894.94,0.01
903.89,0.10
912.93,0.18
922.06,-0.06
931.28,-0.18
940.59,-0.23
950.00,-0.15
959.50,-0.01
969.09,0.04
978.78,-0.01
988.57,-0.01
998.46,-0.00
1008.44,0.02
1018.53,0.28
1028.71,0.46
1039.00,0.51
1049.39,0.58
1059.88,0.64
1070.48,0.81
1081.19,0.96
1092.00,1.10
1102.92,1.24
1113.95,1.31
1125.09,1.39
1136.34,1.50
1147.70,1.63
1159.18,1.68
1170.77,1.53
1182.48,1.51
1194.30,1.67
1206.25,1.66
1218.31,1.60
1230.49,1.59
1242.80,1.67
1255.22,1.73
1267.78,1.70
1280.45,1.74
1293.26,1.79
1306.19,1.86
1319.25,1.94
1332.45,1.94
1345.77,1.94
1359.23,1.99
1372.82,2.01
1386.55,2.01
1400.41,2.05
1414.42,2.14
1428.56,2.18
1442.85,2.17
1457.28,2.18
1471.85,2.16
1486.57,2.14
1501.43,2.15
1516.45,2.18
1531.61,2.22
1546.93,2.21
1562.40,2.27
1578.02,2.34
1593.80,2.29
1609.74,2.25
1625.84,2.32
1642.10,2.29
1658.52,2.25
1675.10,2.32
1691.85,2.40
1708.77,2.38
1725.86,2.36
1743.12,2.39
1760.55,2.39
1778.15,2.43
1795.94,2.42
1813.90,2.39
1832.03,2.37
1850.36,2.38
1868.86,2.36
1887.55,2.35
1906.42,2.37
1925.49,2.36
1944.74,2.28
1964.19,2.21
1983.83,2.12
2003.67,2.03
2023.71,1.96
2043.94,1.84
2064.38,1.73
2085.03,1.65
2105.88,1.50
2126.94,1.44
2148.20,1.42
2169.69,1.20
2191.38,1.07
2213.30,1.06
2235.43,0.93
2257.78,0.78
2280.36,0.78
2303.17,0.79
2326.20,0.73
2349.46,0.70
2372.95,0.54
2396.68,0.38
2420.65,0.33
2444.86,0.45
2469.31,0.43
2494.00,0.38
2518.94,0.39
2544.13,0.47
2569.57,0.48
2595.27,0.55
2621.22,0.68
2647.43,0.87
2673.90,0.93
2700.64,1.02
2727.65,1.23
2754.93,1.40
2782.48,1.49
2810.30,1.61
2838.40,1.71
2866.79,1.80
2895.46,1.90
2924.41,2.05
2953.65,2.22
2983.19,2.32
3013.02,2.46
3043.15,2.64
3073.58,2.86
3104.32,3.17
3135.36,3.55
3166.72,3.93
3198.38,4.22
3230.37,4.52
3262.67,4.65
3295.30,4.74
3328.25,4.86
3361.53,4.99
3395.15,5.21
3429.10,5.42
3463.39,5.64
3498.03,5.92
3533.01,6.18
3568.34,6.46
3604.02,6.87
3640.06,7.11
3676.46,7.29
3713.22,7.42
3750.36,7.52
3787.86,7.56
3825.74,7.51
3864.00,7.45
3902.64,7.37
3941.66,7.38
3981.08,7.45
4020.89,7.36
4061.10,7.08
4101.71,6.60
4142.73,6.05
4184.15,5.58
4226.00,4.99
4268.26,4.25
4310.94,3.70
4354.05,3.14
4397.59,2.37
4441.56,1.87
4485.98,1.41
4530.84,0.69
4576.15,0.06
4621.91,-0.54
4668.13,-1.58
4714.81,-2.24
4761.96,-2.87
4809.58,-3.36
4857.67,-3.48
4906.25,-3.23
4955.31,-2.89
5004.87,-3.07
5054.91,-3.43
5105.46,-3.65
5156.52,-3.91
5208.08,-4.23
5260.16,-4.48
5312.77,-4.84
5365.89,-5.19
5419.55,-5.23
5473.75,-5.24
5528.49,-5.38
5583.77,-5.36
5639.61,-5.39
5696.00,-5.57
5752.96,-5.64
5810.49,-5.62
5868.60,-5.39
5927.28,-5.05
5986.56,-4.81
6046.42,-4.58
6106.89,-4.65
6167.96,-5.02
6229.64,-5.30
6291.93,-5.54
6354.85,-5.83
6418.40,-6.08
6482.58,-6.09
6547.41,-6.41
6612.88,-7.03
6679.01,-7.94
6745.80,-8.73
6813.26,-10.39
6881.39,-11.63
6950.21,-12.80
7019.71,-14.29
7089.91,-15.24
7160.81,-16.18
7232.41,-18.43
7304.74,-19.51
7377.79,-18.87
7451.56,-17.76
7526.08,-17.39
7601.34,-16.52
7677.35,-14.94
7754.13,-13.50
7831.67,-12.45
7909.98,-11.53
7989.08,-10.66
8068.98,-9.86
8149.67,-9.24
8231.16,-8.45
8313.47,-7.31
8396.61,-6.53
8480.57,-5.78
8565.38,-4.71
8651.03,-4.04
8737.54,-3.27
8824.92,-2.16
8913.17,-1.08
9002.30,0.27
9092.32,1.19
9183.25,1.84
9275.08,2.00
9367.83,1.74
9461.51,1.32
9556.12,0.92
9651.68,0.35
9748.20,-0.29
9845.68,-0.84
9944.14,-1.35
10043.58,-1.86
10144.02,-2.03
10245.46,-2.07
10347.91,-1.92
10451.39,-1.34
10555.91,-1.00
10661.46,-0.73
10768.08,-0.86
10875.76,-1.05
10984.52,-0.37
11094.36,0.71
11205.31,0.99
11317.36,0.68
11430.53,0.43
11544.84,-0.13
11660.29,-0.65
11776.89,-1.44
11894.66,-2.21
12013.60,-2.92
12133.74,-3.59
12255.08,-4.29
12377.63,-5.17
12501.41,-6.11
12626.42,-7.59
12752.68,-9.75
12880.21,-11.34
13009.01,-12.81
13139.10,-14.57
13270.49,-15.08
13403.20,-14.37
13537.23,-14.05
13672.60,-12.57
13809.33,-11.96
13947.42,-11.03
14086.90,-10.41
14227.77,-10.07
14370.04,-10.27
14513.74,-11.10
14658.88,-12.13
14805.47,-13.26
14953.52,-14.81
15103.06,-14.57
15254.09,-13.77
15406.63,-12.57
15560.70,-11.14
15716.30,-9.93
15873.47,-8.97
16032.20,-9.09
16192.52,-9.44
16354.45,-9.33
16517.99,-9.01
16683.17,-9.32
16850.01,-9.46
17018.51,-9.02
17188.69,-8.07
17360.58,-7.26
17534.18,-7.08
17709.53,-7.44
17886.62,-8.02
18065.49,-8.94
18246.14,-10.47
18428.60,-12.13
18612.89,-13.61
18799.02,-15.26
18987.01,-16.86
19176.88,-17.65
19368.65,-18.42
19562.33,-17.49
19757.96,-17.07
19955.54,-17.10
