frequency,raw,smoothed,error,error_smoothed,equalization,parametric_eq,fixed_band_eq,equalized_raw,equalized_smoothed,target
20.00,5.24,5.25,-0.36,-0.35,0.41,-0.18,-0.92,5.65,5.66,5.60
20.20,5.33,5.32,-0.32,-0.32,0.35,-0.23,-0.94,5.67,5.67,5.65
20.40,5.42,5.41,-0.28,-0.29,0.28,-0.28,-0.97,5.70,5.68,5.70
20.61,5.50,5.50,-0.23,-0.24,0.20,-0.34,-0.99,5.70,5.70,5.73
20.81,5.59,5.59,-0.19,-0.19,0.13,-0.39,-1.02,5.72,5.72,5.78
21.02,5.68,5.70,-0.14,-0.11,0.05,-0.44,-1.05,5.73,5.75,5.82
21.23,5.83,5.82,-0.01,-0.02,-0.03,-0.49,-1.07,5.80,5.79,5.84
21.44,5.97,5.97,0.12,0.11,-0.12,-0.55,-1.10,5.85,5.85,5.86
21.66,6.11,6.12,0.23,0.25,-0.22,-0.60,-1.13,5.88,5.90,5.87
21.87,6.26,6.25,0.38,0.36,-0.33,-0.65,-1.16,5.93,5.92,5.88
22.09,6.37,6.36,0.47,0.46,-0.43,-0.71,-1.19,5.94,5.93,5.90
22.31,6.44,6.45,0.53,0.54,-0.53,-0.76,-1.23,5.91,5.92,5.91
22.54,6.51,6.52,0.60,0.61,-0.61,-0.81,-1.26,5.90,5.91,5.91
22.76,6.59,6.59,0.68,0.68,-0.67,-0.87,-1.29,5.92,5.92,5.91
22.99,6.66,6.65,0.76,0.75,-0.73,-0.92,-1.33,5.93,5.92,5.90
23.22,6.70,6.70,0.80,0.80,-0.78,-0.98,-1.36,5.92,5.93,5.90
23.45,6.74,6.74,0.84,0.84,-0.83,-1.03,-1.40,5.91,5.90,5.90
23.69,6.78,6.77,0.87,0.87,-0.90,-1.08,-1.43,5.88,5.87,5.91
23.92,6.82,6.83,0.91,0.92,-0.97,-1.14,-1.47,5.85,5.86,5.91
24.16,6.91,6.92,0.99,1.00,-1.06,-1.19,-1.51,5.86,5.86,5.92
24.40,7.04,7.04,1.12,1.12,-1.14,-1.25,-1.55,5.90,5.89,5.93
24.65,7.16,7.16,1.24,1.25,-1.23,-1.30,-1.59,5.93,5.93,5.92
24.89,7.29,7.28,1.38,1.36,-1.32,-1.35,-1.63,5.97,5.96,5.91
25.14,7.37,7.36,1.46,1.45,-1.41,-1.41,-1.67,5.96,5.95,5.91
25.39,7.42,7.43,1.50,1.51,-1.49,-1.46,-1.71,5.93,5.94,5.92
25.65,7.47,7.47,1.55,1.56,-1.55,-1.52,-1.75,5.91,5.92,5.92
25.91,7.52,7.51,1.61,1.60,-1.60,-1.57,-1.80,5.91,5.91,5.91
26.16,7.55,7.55,1.64,1.64,-1.64,-1.63,-1.84,5.91,5.91,5.91
26.43,7.57,7.58,1.66,1.67,-1.66,-1.68,-1.88,5.91,5.91,5.91
26.69,7.60,7.60,1.69,1.69,-1.68,-1.73,-1.93,5.92,5.92,5.91
26.96,7.62,7.62,1.70,1.70,-1.70,-1.79,-1.97,5.92,5.92,5.92
27.23,7.63,7.63,1.72,1.72,-1.72,-1.84,-2.01,5.91,5.91,5.91
27.50,7.65,7.65,1.74,1.73,-1.74,-1.90,-2.05,5.91,5.90,5.91
27.77,7.67,7.67,1.77,1.76,-1.77,-1.95,-2.10,5.89,5.89,5.90
28.05,7.69,7.70,1.79,1.81,-1.82,-2.01,-2.14,5.87,5.88,5.90
28.33,7.76,7.75,1.87,1.86,-1.88,-2.06,-2.18,5.88,5.87,5.89
28.62,7.82,7.82,1.93,1.93,-1.96,-2.11,-2.22,5.86,5.86,5.89
28.90,7.89,7.90,1.99,2.01,-2.03,-2.17,-2.26,5.85,5.86,5.90
29.19,7.99,7.99,2.11,2.10,-2.11,-2.22,-2.30,5.88,5.88,5.88
29.48,8.10,8.11,2.20,2.22,-2.18,-2.28,-2.34,5.92,5.93,5.90
29.78,8.22,8.21,2.33,2.32,-2.24,-2.33,-2.38,5.97,5.97,5.89
30.08,8.31,8.28,2.41,2.38,-2.31,-2.38,-2.42,6.00,5.97,5.90
30.38,8.29,8.29,2.40,2.40,-2.38,-2.44,-2.45,5.91,5.90,5.89
30.68,8.28,8.28,2.40,2.40,-2.46,-2.49,-2.49,5.82,5.83,5.88
30.99,8.27,8.31,2.39,2.43,-2.53,-2.55,-2.52,5.74,5.78,5.88
31.30,8.41,8.41,2.53,2.53,-2.60,-2.60,-2.56,5.81,5.81,5.88
31.61,8.56,8.55,2.68,2.67,-2.67,-2.65,-2.59,5.88,5.87,5.88
31.93,8.71,8.68,2.83,2.81,-2.75,-2.71,-2.62,5.95,5.93,5.88
32.24,8.77,8.77,2.91,2.90,-2.84,-2.76,-2.65,5.93,5.93,5.86
32.57,8.81,8.81,2.94,2.95,-2.92,-2.81,-2.68,5.89,5.90,5.87
32.89,8.84,8.85,2.97,2.98,-2.99,-2.87,-2.71,5.85,5.86,5.87
33.22,8.88,8.89,3.02,3.03,-3.04,-2.92,-2.73,5.84,5.85,5.86
33.55,8.93,8.93,3.08,3.08,-3.07,-2.97,-2.76,5.86,5.86,5.85
33.89,8.97,8.96,3.13,3.12,-3.10,-3.02,-2.79,5.87,5.86,5.84
34.23,8.99,8.98,3.14,3.14,-3.13,-3.08,-2.81,5.85,5.84,5.85
34.57,8.99,8.99,3.16,3.15,-3.18,-3.13,-2.84,5.81,5.81,5.83
34.92,8.99,9.01,3.16,3.18,-3.22,-3.18,-2.87,5.76,5.79,5.83
35.27,9.07,9.07,3.24,3.25,-3.28,-3.23,-2.89,5.79,5.80,5.83
35.62,9.16,9.16,3.34,3.33,-3.33,-3.29,-2.92,5.83,5.82,5.82
35.97,9.26,9.24,3.44,3.42,-3.39,-3.34,-2.95,5.87,5.85,5.82
36.33,9.31,9.30,3.48,3.49,-3.46,-3.39,-2.98,5.85,5.84,5.83
36.70,9.35,9.35,3.54,3.54,-3.53,-3.44,-3.00,5.82,5.82,5.81
37.06,9.39,9.40,3.58,3.59,-3.60,-3.49,-3.03,5.79,5.80,5.81
37.43,9.47,9.47,3.65,3.66,-3.66,-3.55,-3.07,5.81,5.81,5.82
37.81,9.55,9.54,3.73,3.72,-3.72,-3.60,-3.10,5.83,5.82,5.82
38.19,9.61,9.60,3.79,3.78,-3.77,-3.65,-3.14,5.84,5.83,5.81
38.57,9.65,9.65,3.83,3.83,-3.82,-3.70,-3.17,5.83,5.83,5.82
38.95,9.70,9.70,3.87,3.88,-3.88,-3.75,-3.21,5.82,5.82,5.83
39.34,9.74,9.74,3.92,3.92,-3.94,-3.80,-3.25,5.80,5.80,5.82
39.74,9.79,9.79,3.97,3.97,-3.99,-3.85,-3.29,5.80,5.80,5.82
40.14,9.84,9.85,4.02,4.03,-4.04,-3.90,-3.34,5.80,5.81,5.82
40.54,9.91,9.91,4.09,4.10,-4.08,-3.95,-3.38,5.83,5.83,5.81
40.94,9.98,9.96,4.17,4.15,-4.12,-4.00,-3.43,5.86,5.84,5.81
41.35,10.00,10.00,4.20,4.19,-4.17,-4.05,-3.49,5.83,5.83,5.80
41.76,10.01,10.02,4.21,4.22,-4.22,-4.10,-3.54,5.79,5.80,5.80
42.18,10.04,10.04,4.24,4.25,-4.28,-4.15,-3.60,5.76,5.76,5.80
42.60,10.08,10.08,4.30,4.29,-4.34,-4.20,-3.66,5.74,5.74,5.78
43.03,10.13,10.14,4.35,4.36,-4.39,-4.25,-3.72,5.73,5.74,5.78
43.46,10.21,10.21,4.44,4.45,-4.46,-4.30,-3.79,5.75,5.76,5.77
43.90,10.30,10.29,4.56,4.54,-4.52,-4.35,-3.85,5.78,5.77,5.74
44.33,10.35,10.35,4.63,4.63,-4.59,-4.39,-3.92,5.76,5.77,5.72
44.78,10.40,10.39,4.69,4.68,-4.65,-4.44,-4.00,5.74,5.74,5.71
45.23,10.42,10.41,4.72,4.72,-4.72,-4.49,-4.08,5.70,5.69,5.70
45.68,10.42,10.43,4.74,4.75,-4.78,-4.54,-4.16,5.64,5.65,5.68
46.13,10.45,10.48,4.79,4.81,-4.83,-4.59,-4.24,5.62,5.65,5.66
46.60,10.54,10.53,4.88,4.88,-4.88,-4.64,-4.32,5.66,5.66,5.66
47.06,10.62,10.59,4.98,4.94,-4.93,-4.68,-4.41,5.69,5.66,5.64
47.53,10.62,10.62,4.99,4.98,-4.98,-4.73,-4.50,5.64,5.64,5.63
48.01,10.62,10.65,4.99,5.02,-5.04,-4.78,-4.59,5.58,5.61,5.63
48.49,10.68,10.68,5.07,5.07,-5.09,-4.83,-4.69,5.59,5.59,5.61
48.97,10.75,10.74,5.16,5.15,-5.14,-4.87,-4.79,5.61,5.59,5.59
49.46,10.78,10.79,5.21,5.22,-5.19,-4.92,-4.89,5.59,5.60,5.57
49.96,10.82,10.81,5.27,5.25,-5.23,-4.97,-4.99,5.59,5.57,5.55
50.46,10.82,10.82,5.28,5.28,-5.28,-5.01,-5.09,5.54,5.54,5.54
50.96,10.82,10.84,5.29,5.31,-5.33,-5.06,-5.20,5.49,5.51,5.53
51.47,10.87,10.87,5.36,5.36,-5.38,-5.11,-5.31,5.49,5.49,5.51
51.99,10.92,10.90,5.43,5.41,-5.43,-5.15,-5.41,5.49,5.48,5.49
52.51,10.95,10.95,5.46,5.46,-5.48,-5.20,-5.52,5.47,5.47,5.49
53.03,10.98,11.00,5.49,5.52,-5.52,-5.25,-5.63,5.46,5.48,5.49
53.56,11.06,11.06,5.59,5.59,-5.57,-5.29,-5.74,5.49,5.49,5.47
54.10,11.13,11.10,5.67,5.65,-5.62,-5.34,-5.84,5.51,5.49,5.46
54.64,11.13,11.13,5.69,5.69,-5.66,-5.39,-5.95,5.47,5.47,5.44
55.18,11.13,11.13,5.70,5.70,-5.70,-5.43,-6.05,5.43,5.44,5.43
55.74,11.13,11.13,5.71,5.71,-5.73,-5.48,-6.15,5.40,5.40,5.42
56.29,11.14,11.14,5.73,5.74,-5.76,-5.52,-6.25,5.38,5.38,5.41
56.86,11.16,11.17,5.77,5.78,-5.79,-5.57,-6.34,5.37,5.38,5.39
57.42,11.20,11.20,5.84,5.83,-5.81,-5.62,-6.43,5.39,5.39,5.36
58.00,11.23,11.22,5.88,5.86,-5.84,-5.66,-6.52,5.39,5.38,5.35
58.58,11.23,11.23,5.89,5.89,-5.88,-5.71,-6.60,5.35,5.35,5.34
59.16,11.23,11.24,5.91,5.91,-5.93,-5.75,-6.68,5.30,5.30,5.32
59.76,11.25,11.25,5.95,5.95,-5.99,-5.80,-6.75,5.26,5.26,5.30
60.35,11.28,11.28,6.02,6.02,-6.05,-5.84,-6.81,5.23,5.23,5.26
60.96,11.33,11.33,6.10,6.11,-6.12,-5.89,-6.87,5.21,5.22,5.23
61.57,11.39,11.38,6.21,6.20,-6.18,-5.94,-6.91,5.21,5.20,5.18
62.18,11.43,11.42,6.29,6.28,-6.25,-5.98,-6.96,5.18,5.17,5.14
62.80,11.43,11.43,6.33,6.34,-6.31,-6.03,-6.99,5.12,5.13,5.09
63.43,11.43,11.43,6.38,6.38,-6.37,-6.07,-7.02,5.06,5.07,5.05
64.07,11.43,11.43,6.43,6.43,-6.42,-6.12,-7.04,5.01,5.01,5.00
64.71,11.43,11.43,6.47,6.47,-6.48,-6.17,-7.05,4.95,4.95,4.96
65.35,11.43,11.43,6.51,6.51,-6.53,-6.21,-7.06,4.90,4.89,4.92
66.01,11.43,11.42,6.56,6.55,-6.59,-6.26,-7.06,4.84,4.84,4.87
66.67,11.43,11.45,6.61,6.62,-6.64,-6.30,-7.06,4.79,4.80,4.82
67.33,11.47,11.48,6.70,6.71,-6.70,-6.35,-7.05,4.77,4.78,4.77
68.01,11.55,11.52,6.82,6.79,-6.77,-6.40,-7.03,4.78,4.75,4.73
68.69,11.54,11.54,6.86,6.86,-6.83,-6.44,-7.02,4.71,4.71,4.68
69.37,11.53,11.54,6.90,6.91,-6.89,-6.49,-6.99,4.64,4.65,4.63
70.07,11.53,11.53,6.95,6.95,-6.95,-6.53,-6.97,4.58,4.58,4.58
70.77,11.53,11.53,7.00,7.00,-7.01,-6.58,-6.94,4.52,4.52,4.53
71.48,11.53,11.53,7.05,7.05,-7.07,-6.63,-6.91,4.46,4.46,4.48
72.19,11.53,11.53,7.12,7.11,-7.12,-6.67,-6.88,4.41,4.41,4.41
72.91,11.53,11.53,7.17,7.17,-7.17,-6.72,-6.85,4.36,4.36,4.36
73.64,11.53,11.53,7.23,7.23,-7.23,-6.77,-6.82,4.30,4.30,4.30
74.38,11.53,11.53,7.29,7.29,-7.29,-6.81,-6.80,4.24,4.24,4.24
75.12,11.53,11.53,7.35,7.35,-7.34,-6.86,-6.77,4.18,4.18,4.18
75.87,11.53,11.53,7.40,7.40,-7.40,-6.91,-6.74,4.13,4.13,4.12
76.63,11.53,11.53,7.45,7.46,-7.45,-6.95,-6.72,4.08,4.08,4.07
77.40,11.53,11.53,7.51,7.51,-7.51,-7.00,-6.70,4.02,4.02,4.02
78.17,11.53,11.53,7.57,7.56,-7.56,-7.04,-6.68,3.97,3.97,3.96
78.95,11.53,11.53,7.60,7.61,-7.61,-7.09,-6.66,3.92,3.92,3.93
79.74,11.53,11.53,7.65,7.65,-7.65,-7.14,-6.65,3.87,3.87,3.88
80.54,11.53,11.53,7.70,7.70,-7.70,-7.18,-6.64,3.83,3.83,3.83
81.35,11.53,11.53,7.75,7.75,-7.75,-7.23,-6.64,3.78,3.78,3.78
82.16,11.53,11.53,7.80,7.79,-7.80,-7.27,-6.64,3.73,3.73,3.73
82.98,11.53,11.53,7.83,7.84,-7.85,-7.32,-6.64,3.68,3.68,3.69
83.81,11.53,11.53,7.89,7.89,-7.90,-7.37,-6.65,3.63,3.63,3.64
84.65,11.53,11.53,7.94,7.93,-7.94,-7.41,-6.66,3.59,3.59,3.59
85.50,11.53,11.53,7.98,7.98,-7.98,-7.46,-6.68,3.55,3.55,3.55
86.35,11.53,11.54,8.03,8.04,-8.02,-7.50,-6.70,3.51,3.52,3.50
87.22,11.53,11.52,8.08,8.07,-8.05,-7.54,-6.73,3.48,3.47,3.45
88.09,11.52,11.50,8.12,8.10,-8.08,-7.59,-6.76,3.44,3.42,3.40
88.97,11.43,11.46,8.08,8.11,-8.10,-7.63,-6.80,3.33,3.36,3.35
89.86,11.43,11.41,8.13,8.10,-8.12,-7.67,-6.84,3.31,3.29,3.30
90.76,11.35,11.37,8.10,8.12,-8.13,-7.72,-6.89,3.22,3.23,3.25
91.66,11.33,11.34,8.12,8.15,-8.15,-7.76,-6.95,3.18,3.19,3.20
92.58,11.33,11.30,8.19,8.16,-8.17,-7.80,-7.00,3.16,3.13,3.14
93.51,11.28,11.27,8.18,8.17,-8.19,-7.84,-7.07,3.09,3.08,3.10
94.44,11.22,11.24,8.17,8.19,-8.21,-7.88,-7.13,3.01,3.03,3.05
95.39,11.21,11.23,8.20,8.23,-8.22,-7.91,-7.21,2.99,3.01,3.01
96.34,11.24,11.22,8.28,8.26,-8.22,-7.95,-7.28,3.01,3.00,2.95
97.30,11.22,11.18,8.31,8.27,-8.22,-7.99,-7.36,2.99,2.95,2.91
98.28,11.09,11.11,8.23,8.25,-8.22,-8.02,-7.45,2.87,2.89,2.86
99.26,10.98,11.01,8.16,8.20,-8.21,-8.06,-7.54,2.77,2.80,2.82
100.25,10.96,10.92,8.19,8.15,-8.20,-8.09,-7.63,2.76,2.72,2.77
101.25,10.86,10.87,8.13,8.15,-8.18,-8.12,-7.73,2.68,2.69,2.73
102.27,10.80,10.84,8.12,8.16,-8.16,-8.15,-7.83,2.64,2.68,2.68
103.29,10.82,10.77,8.19,8.14,-8.13,-8.17,-7.93,2.69,2.64,2.62
104.32,10.75,10.72,8.16,8.13,-8.10,-8.20,-8.03,2.65,2.62,2.59
105.37,10.58,10.66,8.04,8.12,-8.08,-8.22,-8.14,2.50,2.58,2.54
106.42,10.59,10.55,8.09,8.06,-8.05,-8.24,-8.24,2.54,2.50,2.50
107.48,10.49,10.44,8.05,8.00,-8.02,-8.26,-8.35,2.47,2.42,2.44
108.56,10.30,10.35,7.92,7.97,-7.99,-8.28,-8.46,2.31,2.36,2.38
109.64,10.25,10.26,7.91,7.93,-7.96,-8.29,-8.56,2.29,2.31,2.34
110.74,10.22,10.19,7.94,7.91,-7.92,-8.30,-8.66,2.29,2.27,2.28
111.85,10.17,10.16,7.92,7.92,-7.89,-8.31,-8.77,2.27,2.27,2.25
112.97,10.07,10.10,7.89,7.91,-7.87,-8.31,-8.86,2.20,2.22,2.18
114.10,10.05,10.01,7.91,7.88,-7.86,-8.31,-8.95,2.19,2.15,2.13
115.24,9.93,9.93,7.84,7.85,-7.86,-8.31,-9.04,2.07,2.07,2.09
116.39,9.85,9.87,7.81,7.83,-7.86,-8.31,-9.12,1.99,2.01,2.04
117.55,9.83,9.83,7.83,7.84,-7.87,-8.30,-9.19,1.96,1.97,2.00
118.73,9.85,9.84,7.89,7.88,-7.88,-8.29,-9.26,1.96,1.96,1.96
119.92,9.86,9.86,7.93,7.93,-7.91,-8.28,-9.31,1.95,1.94,1.93
121.12,9.87,9.86,7.98,7.96,-7.95,-8.27,-9.36,1.92,1.90,1.89
122.33,9.86,9.86,8.00,8.00,-8.01,-8.26,-9.40,1.85,1.86,1.86
123.55,9.86,9.89,8.02,8.06,-8.07,-8.24,-9.43,1.79,1.82,1.84
124.79,9.95,9.93,8.14,8.12,-8.13,-8.23,-9.44,1.81,1.79,1.81
126.03,10.00,9.98,8.22,8.20,-8.20,-8.22,-9.45,1.80,1.77,1.78
127.29,10.00,10.03,8.24,8.28,-8.27,-8.22,-9.45,1.73,1.76,1.76
128.57,10.06,10.06,8.34,8.34,-8.33,-8.21,-9.44,1.72,1.73,1.72
129.85,10.12,10.09,8.43,8.41,-8.40,-8.22,-9.41,1.72,1.69,1.69
131.15,10.12,10.12,8.46,8.46,-8.46,-8.22,-9.38,1.66,1.66,1.66
132.46,10.13,10.14,8.50,8.51,-8.51,-8.24,-9.33,1.62,1.63,1.63
133.79,10.15,10.16,8.54,8.56,-8.55,-8.26,-9.28,1.59,1.60,1.61
135.12,10.20,10.17,8.63,8.59,-8.58,-8.29,-9.22,1.62,1.59,1.57
136.48,10.16,10.17,8.60,8.62,-8.60,-8.32,-9.16,1.56,1.57,1.55
137.84,10.14,10.16,8.62,8.64,-8.61,-8.36,-9.09,1.53,1.55,1.52
139.22,10.14,10.12,8.65,8.63,-8.62,-8.41,-9.02,1.52,1.50,1.49
140.61,10.11,10.09,8.66,8.63,-8.63,-8.46,-8.94,1.48,1.46,1.45
142.02,10.04,10.06,8.60,8.62,-8.64,-8.51,-8.86,1.40,1.42,1.44
143.44,10.04,10.04,8.63,8.63,-8.66,-8.56,-8.77,1.38,1.37,1.41
144.87,10.04,10.05,8.67,8.68,-8.70,-8.62,-8.69,1.34,1.35,1.37
146.32,10.08,10.09,8.75,8.75,-8.75,-8.67,-8.61,1.33,1.34,1.33
147.78,10.15,10.11,8.85,8.81,-8.83,-8.72,-8.52,1.32,1.28,1.30
149.26,10.14,10.14,8.89,8.89,-8.93,-8.77,-8.44,1.21,1.21,1.25
150.75,10.13,10.20,8.94,9.01,-9.04,-8.82,-8.36,1.09,1.15,1.19
152.26,10.28,10.25,9.16,9.13,-9.17,-8.86,-8.28,1.11,1.08,1.12
153.78,10.36,10.32,9.30,9.26,-9.29,-8.91,-8.20,1.06,1.02,1.05
155.32,10.34,10.37,9.36,9.39,-9.39,-8.94,-8.13,0.95,0.98,0.98
156.88,10.36,10.39,9.45,9.49,-9.45,-8.98,-8.06,0.91,0.94,0.91
158.44,10.39,10.36,9.57,9.54,-9.46,-9.01,-7.99,0.93,0.90,0.82
160.03,10.31,10.26,9.57,9.52,-9.41,-9.04,-7.93,0.90,0.85,0.74
161.63,10.04,10.08,9.37,9.41,-9.29,-9.07,-7.87,0.75,0.79,0.67
163.24,9.81,9.80,9.20,9.19,-9.12,-9.09,-7.82,0.69,0.68,0.61
164.88,9.52,9.48,8.96,8.92,-8.91,-9.11,-7.77,0.61,0.58,0.56
166.53,9.12,9.17,8.61,8.66,-8.66,-9.12,-7.73,0.46,0.50,0.51
168.19,8.86,8.85,8.39,8.38,-8.42,-9.14,-7.69,0.44,0.43,0.47
169.87,8.59,8.57,8.16,8.14,-8.21,-9.15,-7.66,0.38,0.37,0.43
171.57,8.36,8.38,7.94,7.96,-8.04,-9.16,-7.64,0.32,0.34,0.42
173.29,8.24,8.25,7.84,7.85,-7.93,-9.16,-7.61,0.31,0.32,0.40
175.02,8.21,8.21,7.81,7.82,-7.90,-9.17,-7.60,0.31,0.31,0.40
176.77,8.28,8.25,7.90,7.87,-7.92,-9.17,-7.59,0.36,0.33,0.38
178.54,8.32,8.37,7.94,7.99,-8.00,-9.17,-7.59,0.32,0.37,0.38
180.32,8.53,8.52,8.15,8.14,-8.12,-9.17,-7.59,0.41,0.40,0.38
182.13,8.73,8.70,8.34,8.31,-8.27,-9.17,-7.60,0.45,0.42,0.39
183.95,8.86,8.87,8.48,8.49,-8.44,-9.16,-7.61,0.42,0.43,0.38
185.79,9.01,9.01,8.63,8.63,-8.60,-9.16,-7.63,0.40,0.40,0.38
187.65,9.12,9.12,8.76,8.76,-8.75,-9.15,-7.65,0.37,0.36,0.36
189.52,9.23,9.23,8.88,8.89,-8.88,-9.15,-7.68,0.35,0.35,0.35
191.42,9.32,9.34,8.99,9.02,-8.98,-9.14,-7.71,0.34,0.36,0.33
193.33,9.44,9.43,9.13,9.11,-9.06,-9.13,-7.75,0.38,0.36,0.31
195.27,9.50,9.45,9.21,9.16,-9.13,-9.12,-7.80,0.37,0.32,0.29
197.22,9.43,9.45,9.16,9.18,-9.19,-9.12,-7.85,0.24,0.26,0.27
199.19,9.40,9.45,9.15,9.20,-9.24,-9.11,-7.90,0.15,0.21,0.25
201.18,9.49,9.48,9.26,9.25,-9.30,-9.10,-7.95,0.19,0.18,0.23
203.19,9.57,9.53,9.36,9.32,-9.34,-9.10,-8.01,0.23,0.18,0.21
205.23,9.56,9.58,9.37,9.38,-9.39,-9.09,-8.07,0.17,0.19,0.19
207.28,9.59,9.62,9.41,9.45,-9.44,-9.09,-8.14,0.15,0.18,0.18
209.35,9.67,9.64,9.51,9.48,-9.49,-9.08,-8.20,0.18,0.15,0.16
211.44,9.69,9.68,9.57,9.54,-9.53,-9.08,-8.27,0.16,0.14,0.12
213.56,9.64,9.69,9.52,9.57,-9.56,-9.08,-8.34,0.08,0.12,0.12
215.69,9.72,9.67,9.61,9.57,-9.57,-9.07,-8.40,0.15,0.10,0.11
217.85,9.63,9.65,9.54,9.56,-9.55,-9.07,-8.47,0.08,0.10,0.09
220.03,9.62,9.62,9.54,9.54,-9.51,-9.07,-8.53,0.11,0.11,0.08
222.23,9.56,9.56,9.50,9.49,-9.45,-9.06,-8.59,0.11,0.11,0.06
224.45,9.48,9.47,9.41,9.40,-9.37,-9.04,-8.64,0.11,0.09,0.07
226.70,9.38,9.34,9.31,9.27,-9.28,-9.02,-8.69,0.10,0.05,0.07
228.96,9.15,9.22,9.07,9.14,-9.18,-9.00,-8.73,-0.04,0.03,0.08
231.25,9.11,9.12,9.02,9.04,-9.08,-8.96,-8.76,0.03,0.05,0.09
233.57,9.08,9.04,8.98,8.94,-8.97,-8.91,-8.79,0.11,0.07,0.10
235.90,9.00,8.98,8.89,8.88,-8.86,-8.84,-8.80,0.14,0.12,0.11
238.26,8.86,8.91,8.74,8.79,-8.76,-8.76,-8.81,0.10,0.15,0.12
240.64,8.83,8.80,8.69,8.66,-8.67,-8.66,-8.79,0.16,0.13,0.14
243.05,8.75,8.71,8.58,8.54,-8.58,-8.56,-8.77,0.17,0.13,0.17
245.48,8.58,8.65,8.39,8.46,-8.48,-8.43,-8.73,0.10,0.18,0.19
247.93,8.60,8.60,8.38,8.38,-8.37,-8.30,-8.68,0.23,0.23,0.22
250.41,8.58,8.54,8.34,8.30,-8.26,-8.15,-8.61,0.32,0.28,0.23
252.92,8.47,8.45,8.20,8.18,-8.15,-7.99,-8.53,0.32,0.30,0.27
255.45,8.30,8.31,8.01,8.02,-8.04,-7.83,-8.43,0.26,0.26,0.29
258.00,8.12,8.15,7.81,7.84,-7.93,-7.66,-8.32,0.19,0.23,0.31
260.58,8.07,8.06,7.74,7.73,-7.79,-7.49,-8.19,0.28,0.27,0.33
263.19,7.97,8.01,7.61,7.66,-7.63,-7.31,-8.06,0.34,0.38,0.36
265.82,7.98,7.94,7.61,7.56,-7.45,-7.14,-7.90,0.53,0.48,0.37
268.48,7.81,7.75,7.41,7.35,-7.26,-6.96,-7.74,0.55,0.49,0.40
271.16,7.51,7.53,7.08,7.11,-7.06,-6.79,-7.56,0.45,0.47,0.43
273.87,7.19,7.27,6.74,6.82,-6.85,-6.61,-7.37,0.33,0.42,0.44
276.61,7.10,7.04,6.62,6.56,-6.64,-6.43,-7.18,0.46,0.40,0.48
279.38,6.86,6.85,6.36,6.34,-6.42,-6.25,-6.97,0.44,0.43,0.50
282.17,6.65,6.69,6.12,6.16,-6.19,-6.08,-6.76,0.46,0.51,0.53
284.99,6.52,6.52,5.96,5.96,-5.97,-5.90,-6.55,0.55,0.56,0.56
287.84,6.41,6.37,5.83,5.78,-5.75,-5.72,-6.33,0.65,0.61,0.58
290.72,6.19,6.20,5.57,5.59,-5.55,-5.54,-6.10,0.64,0.66,0.61
293.63,5.99,6.01,5.35,5.36,-5.34,-5.35,-5.87,0.65,0.67,0.64
296.57,5.82,5.79,5.14,5.12,-5.12,-5.17,-5.64,0.70,0.67,0.68
299.53,5.57,5.59,4.87,4.89,-4.89,-4.98,-5.41,0.68,0.69,0.70
302.53,5.37,5.39,4.65,4.66,-4.66,-4.80,-5.17,0.71,0.73,0.72
305.55,5.19,5.17,4.42,4.42,-4.43,-4.60,-4.94,0.76,0.74,0.76
308.61,4.99,4.97,4.21,4.19,-4.20,-4.41,-4.70,0.79,0.77,0.78
311.69,4.73,4.75,3.92,3.94,-3.97,-4.21,-4.46,0.76,0.78,0.81
314.81,4.53,4.54,3.70,3.71,-3.72,-4.01,-4.23,0.80,0.81,0.83
317.96,4.32,4.33,3.47,3.48,-3.47,-3.81,-3.99,0.85,0.86,0.85
321.14,4.15,4.12,3.29,3.26,-3.20,-3.60,-3.76,0.94,0.92,0.86
324.35,3.87,3.87,3.00,3.00,-2.93,-3.39,-3.52,0.94,0.94,0.87
327.59,3.59,3.58,2.70,2.69,-2.66,-3.18,-3.29,0.93,0.92,0.89
330.87,3.26,3.25,2.36,2.35,-2.38,-2.96,-3.05,0.88,0.87,0.90
334.18,2.92,2.95,2.00,2.04,-2.10,-2.73,-2.82,0.82,0.85,0.92
337.52,2.68,2.68,1.76,1.75,-1.82,-2.51,-2.59,0.86,0.87,0.92
340.90,2.46,2.45,1.52,1.51,-1.53,-2.27,-2.36,0.93,0.92,0.94
344.30,2.23,2.23,1.28,1.29,-1.26,-2.03,-2.13,0.97,0.97,0.95
347.75,2.00,1.99,1.05,1.04,-1.00,-1.79,-1.91,1.00,0.99,0.95
351.23,1.73,1.71,0.78,0.76,-0.75,-1.54,-1.68,0.98,0.96,0.95
354.74,1.43,1.44,0.48,0.49,-0.51,-1.29,-1.45,0.92,0.93,0.95
358.28,1.15,1.19,0.19,0.23,-0.26,-1.03,-1.23,0.89,0.93,0.96
361.87,0.97,0.95,0.01,-0.01,-0.00,-0.76,-1.01,0.97,0.95,0.96
365.49,0.73,0.71,-0.24,-0.25,0.26,-0.49,-0.78,0.99,0.98,0.97
369.14,0.46,0.46,-0.49,-0.49,0.53,-0.22,-0.56,0.99,0.99,0.95
372.83,0.17,0.17,-0.78,-0.78,0.80,0.06,-0.34,0.97,0.97,0.95
376.56,-0.11,-0.12,-1.06,-1.07,1.07,0.34,-0.12,0.96,0.95,0.95
380.33,-0.41,-0.40,-1.37,-1.36,1.34,0.63,0.10,0.93,0.94,0.96
384.13,-0.69,-0.69,-1.65,-1.64,1.62,0.93,0.32,0.93,0.93,0.96
387.97,-0.97,-0.97,-1.92,-1.92,1.91,1.22,0.53,0.94,0.93,0.94
391.85,-1.25,-1.24,-2.18,-2.18,2.20,1.52,0.75,0.95,0.96,0.93
395.77,-1.53,-1.52,-2.47,-2.46,2.49,1.83,0.97,0.96,0.97,0.94
399.73,-1.79,-1.82,-2.72,-2.75,2.79,2.13,1.18,1.00,0.97,0.93
403.72,-2.13,-2.13,-3.06,-3.06,3.08,2.43,1.39,0.95,0.95,0.93
407.76,-2.45,-2.43,-3.37,-3.35,3.36,2.73,1.60,0.91,0.93,0.92
411.84,-2.72,-2.72,-3.64,-3.64,3.62,3.03,1.81,0.90,0.90,0.92
415.96,-2.96,-2.98,-3.88,-3.90,3.86,3.33,2.01,0.90,0.88,0.92
420.12,-3.23,-3.21,-4.14,-4.13,4.08,3.62,2.22,0.85,0.87,0.91
424.32,-3.41,-3.40,-4.32,-4.32,4.27,3.90,2.42,0.86,0.87,0.91
428.56,-3.54,-3.54,-4.46,-4.46,4.43,4.16,2.61,0.89,0.89,0.92
432.85,-3.62,-3.62,-4.55,-4.55,4.56,4.42,2.80,0.94,0.94,0.93
437.18,-3.68,-3.70,-4.62,-4.65,4.68,4.65,2.99,1.00,0.98,0.94
441.55,-3.76,-3.77,-4.74,-4.74,4.78,4.87,3.17,1.02,1.01,0.98
445.96,-3.86,-3.82,-4.87,-4.83,4.87,5.06,3.35,1.01,1.04,1.01
450.42,-3.87,-3.89,-4.91,-4.93,4.94,5.23,3.51,1.07,1.06,1.04
454.93,-3.90,-3.94,-4.99,-5.02,5.01,5.37,3.67,1.11,1.07,1.09
459.48,-4.00,-3.96,-5.14,-5.09,5.07,5.48,3.83,1.07,1.12,1.14
464.07,-3.97,-3.95,-5.16,-5.14,5.12,5.56,3.97,1.15,1.17,1.18
468.71,-3.89,-3.93,-5.13,-5.17,5.16,5.60,4.10,1.27,1.23,1.24
473.40,-3.86,-3.88,-5.14,-5.17,5.17,5.62,4.23,1.31,1.29,1.28
478.13,-3.87,-3.83,-5.21,-5.16,5.16,5.61,4.34,1.29,1.34,1.34
482.91,-3.76,-3.76,-5.14,-5.15,5.14,5.57,4.44,1.38,1.37,1.38
487.74,-3.66,-3.68,-5.08,-5.11,5.09,5.51,4.53,1.43,1.41,1.42
492.62,-3.58,-3.58,-5.05,-5.05,5.04,5.42,4.60,1.46,1.46,1.47
497.55,-3.50,-3.48,-4.99,-4.98,4.98,5.32,4.67,1.48,1.50,1.49
502.52,-3.39,-3.37,-4.91,-4.89,4.91,5.19,4.72,1.52,1.54,1.52
507.55,-3.24,-3.28,-4.77,-4.81,4.83,5.05,4.76,1.59,1.56,1.53
512.62,-3.18,-3.19,-4.72,-4.73,4.75,4.90,4.79,1.57,1.56,1.54
517.75,-3.14,-3.12,-4.69,-4.66,4.65,4.74,4.80,1.51,1.53,1.55
