frequency,raw,error,smoothed,error_smoothed,equalization,parametric_eq,fixed_band_eq,equalized_raw,equalized_smoothed,target
20.00,-8.49,-10.28,-8.36,-10.17,6.00,5.53,2.61,-2.49,-2.36,1.78
20.20,-8.31,-10.15,-8.24,-10.09,6.00,5.59,2.68,-2.31,-2.24,1.83
20.40,-8.13,-10.02,-8.13,-10.01,6.00,5.64,2.76,-2.13,-2.13,1.88
20.61,-7.96,-9.87,-8.01,-9.93,6.00,5.70,2.84,-1.96,-2.01,1.91
20.81,-7.77,-9.74,-7.89,-9.84,6.00,5.75,2.92,-1.77,-1.89,1.96
21.02,-7.61,-9.62,-7.78,-9.75,6.00,5.80,3.01,-1.61,-1.78,2.00
21.23,-7.55,-9.58,-7.66,-9.66,6.00,5.84,3.09,-1.55,-1.66,2.02
21.44,-7.50,-9.55,-7.55,-9.57,6.00,5.89,3.18,-1.50,-1.55,2.04
21.66,-7.46,-9.52,-7.43,-9.48,6.00,5.93,3.27,-1.46,-1.43,2.06
21.87,-7.40,-9.47,-7.32,-9.38,6.00,5.97,3.37,-1.40,-1.32,2.07
22.09,-7.31,-9.40,-7.21,-9.28,6.00,6.01,3.46,-1.31,-1.21,2.09
22.31,-7.16,-9.26,-7.10,-9.19,6.00,6.05,3.56,-1.16,-1.10,2.10
22.54,-7.02,-9.12,-7.00,-9.10,6.00,6.08,3.67,-1.02,-1.00,2.10
22.76,-6.86,-8.96,-6.90,-9.00,6.00,6.11,3.77,-0.86,-0.90,2.10
22.99,-6.71,-8.80,-6.80,-8.90,6.00,6.14,3.88,-0.71,-0.80,2.09
23.22,-6.63,-8.72,-6.69,-8.80,6.00,6.17,3.99,-0.63,-0.69,2.09
23.45,-6.55,-8.64,-6.58,-8.68,6.00,6.19,4.10,-0.55,-0.58,2.09
23.69,-6.48,-8.57,-6.45,-8.56,6.00,6.21,4.21,-0.48,-0.45,2.10
23.92,-6.39,-8.49,-6.33,-8.43,6.00,6.22,4.33,-0.39,-0.33,2.10
24.16,-6.27,-8.38,-6.20,-8.31,6.00,6.23,4.45,-0.27,-0.20,2.11
24.40,-6.12,-8.24,-6.08,-8.18,6.00,6.24,4.57,-0.12,-0.08,2.12
24.65,-5.98,-8.08,-5.96,-8.07,6.00,6.24,4.69,0.02,0.04,2.11
24.89,-5.82,-7.93,-5.85,-7.96,6.00,6.25,4.81,0.18,0.15,2.11
25.14,-5.70,-7.81,-5.74,-7.85,6.00,6.24,4.94,0.30,0.26,2.11
25.39,-5.59,-7.71,-5.64,-7.75,6.00,6.24,5.06,0.41,0.36,2.11
25.65,-5.50,-7.61,-5.53,-7.64,6.00,6.23,5.19,0.50,0.47,2.11
25.91,-5.39,-7.49,-5.43,-7.54,6.00,6.21,5.31,0.61,0.57,2.10
26.16,-5.28,-7.39,-5.32,-7.43,6.00,6.19,5.44,0.72,0.68,2.10
26.43,-5.20,-7.30,-5.21,-7.32,6.00,6.17,5.56,0.80,0.79,2.10
26.69,-5.10,-7.21,-5.10,-7.20,6.00,6.15,5.68,0.90,0.90,2.10
26.96,-5.02,-7.13,-4.99,-7.09,6.00,6.12,5.80,0.98,1.01,2.11
27.23,-4.94,-7.05,-4.89,-6.99,6.00,6.08,5.92,1.06,1.11,2.11
27.50,-4.86,-6.96,-4.79,-6.89,6.00,6.04,6.03,1.14,1.21,2.11
27.77,-4.77,-6.87,-4.69,-6.79,6.00,6.00,6.14,1.23,1.31,2.10
28.05,-4.67,-6.77,-4.59,-6.69,6.00,5.96,6.24,1.33,1.41,2.10
28.33,-4.48,-6.57,-4.49,-6.59,6.00,5.91,6.33,1.52,1.51,2.09
28.62,-4.30,-6.38,-4.39,-6.48,6.00,5.86,6.42,1.70,1.61,2.09
28.90,-4.10,-6.20,-4.28,-6.37,6.00,5.80,6.50,1.90,1.72,2.10
29.19,-4.03,-6.12,-4.16,-6.25,5.98,5.75,6.56,1.95,1.82,2.08
29.48,-4.02,-6.13,-4.04,-6.13,5.95,5.69,6.62,1.92,1.91,2.10
29.78,-4.00,-6.10,-3.92,-6.01,5.89,5.62,6.67,1.89,1.98,2.09
30.08,-3.96,-6.06,-3.80,-5.89,5.82,5.55,6.71,1.87,2.02,2.10
30.38,-3.79,-5.88,-3.68,-5.77,5.74,5.48,6.73,1.95,2.05,2.09
30.68,-3.62,-5.71,-3.57,-5.66,5.65,5.41,6.74,2.02,2.07,2.09
30.99,-3.47,-5.56,-3.47,-5.56,5.56,5.33,6.73,2.09,2.09,2.09
31.30,-3.32,-5.40,-3.37,-5.46,5.46,5.26,6.72,2.14,2.09,2.09
31.61,-3.18,-5.26,-3.27,-5.36,5.36,5.18,6.69,2.18,2.09,2.09
31.93,-3.03,-5.11,-3.17,-5.25,5.25,5.09,6.64,2.22,2.08,2.08
32.24,-2.96,-5.04,-3.05,-5.13,5.13,5.01,6.59,2.17,2.08,2.07
32.57,-2.93,-5.02,-2.93,-5.00,5.00,4.92,6.52,2.07,2.08,2.08
32.89,-2.89,-4.97,-2.80,-4.87,4.87,4.83,6.44,1.98,2.07,2.08
33.22,-2.79,-4.86,-2.68,-4.75,4.75,4.74,6.34,1.96,2.07,2.07
33.55,-2.66,-4.73,-2.57,-4.64,4.64,4.65,6.24,1.97,2.07,2.07
33.89,-2.53,-4.59,-2.48,-4.54,4.54,4.56,6.13,2.00,2.06,2.06
34.23,-2.39,-4.45,-2.38,-4.44,4.44,4.46,6.01,2.05,2.06,2.06
34.57,-2.22,-4.28,-2.27,-4.33,4.33,4.36,5.88,2.11,2.06,2.05
34.92,-2.07,-4.12,-2.17,-4.22,4.22,4.27,5.74,2.15,2.05,2.05
35.27,-1.98,-4.02,-2.06,-4.11,4.11,4.17,5.60,2.14,2.05,2.05
35.62,-1.91,-3.96,-1.96,-4.01,4.01,4.07,5.45,2.09,2.05,2.05
35.97,-1.84,-3.89,-1.85,-3.90,3.90,3.97,5.30,2.06,2.05,2.04
36.33,-1.78,-3.84,-1.75,-3.80,3.80,3.87,5.14,2.01,2.05,2.05
36.70,-1.72,-3.76,-1.65,-3.70,3.70,3.76,4.98,1.98,2.05,2.04
37.06,-1.62,-3.66,-1.56,-3.61,3.61,3.66,4.82,1.98,2.05,2.04
37.43,-1.46,-3.52,-1.47,-3.52,3.52,3.56,4.65,2.05,2.05,2.06
37.81,-1.30,-3.36,-1.38,-3.43,3.43,3.45,4.49,2.12,2.05,2.05
38.19,-1.22,-3.27,-1.29,-3.34,3.34,3.35,4.32,2.13,2.05,2.05
38.57,-1.20,-3.26,-1.20,-3.25,3.25,3.24,4.16,2.05,2.06,2.06
38.95,-1.18,-3.25,-1.10,-3.16,3.16,3.14,3.99,1.98,2.06,2.06
39.34,-1.05,-3.11,-1.00,-3.06,3.06,3.03,3.82,2.01,2.06,2.06
39.74,-0.92,-2.97,-0.89,-2.95,2.95,2.93,3.66,2.04,2.06,2.06
40.14,-0.79,-2.85,-0.79,-2.85,2.85,2.82,3.49,2.06,2.06,2.06
40.54,-0.67,-2.73,-0.68,-2.74,2.74,2.72,3.33,2.07,2.06,2.06
40.94,-0.55,-2.61,-0.57,-2.63,2.63,2.61,3.17,2.08,2.06,2.06
41.35,-0.46,-2.52,-0.47,-2.53,2.53,2.51,3.01,2.06,2.06,2.05
41.76,-0.38,-2.43,-0.37,-2.43,2.43,2.40,2.84,2.04,2.05,2.05
42.18,-0.28,-2.34,-0.28,-2.33,2.33,2.29,2.69,2.04,2.05,2.06
42.60,-0.15,-2.20,-0.18,-2.21,2.21,2.19,2.53,2.06,2.04,2.04
43.03,-0.02,-2.06,-0.06,-2.09,2.09,2.08,2.37,2.07,2.03,2.04
43.46,0.06,-1.98,0.04,-1.98,1.98,1.98,2.22,2.04,2.02,2.03
43.90,0.14,-1.87,0.13,-1.88,1.88,1.87,2.06,2.03,2.01,2.01
44.33,0.23,-1.77,0.22,-1.78,1.78,1.77,1.91,2.01,2.00,1.99
44.78,0.31,-1.67,0.30,-1.69,1.69,1.66,1.76,2.00,1.99,1.98
45.23,0.37,-1.60,0.39,-1.59,1.59,1.56,1.61,1.96,1.98,1.98
45.68,0.42,-1.54,0.48,-1.48,1.48,1.45,1.47,1.90,1.97,1.96
46.13,0.51,-1.44,0.58,-1.38,1.38,1.35,1.32,1.89,1.96,1.94
46.60,0.69,-1.25,0.67,-1.27,1.27,1.25,1.18,1.97,1.95,1.95
47.06,0.87,-1.07,0.76,-1.18,1.18,1.14,1.03,2.04,1.93,1.93
47.53,0.88,-1.05,0.84,-1.08,1.08,1.04,0.89,1.96,1.92,1.93
48.01,0.88,-1.05,0.93,-0.98,0.98,0.94,0.75,1.86,1.91,1.93
48.49,0.98,-0.93,1.03,-0.87,0.87,0.84,0.61,1.86,1.90,1.91
48.97,1.10,-0.80,1.12,-0.77,0.77,0.74,0.47,1.87,1.89,1.90
49.46,1.24,-0.64,1.22,-0.67,0.67,0.63,0.34,1.90,1.88,1.88
49.96,1.36,-0.50,1.32,-0.56,0.56,0.53,0.20,1.92,1.87,1.86
50.46,1.43,-0.43,1.42,-0.45,0.45,0.43,0.07,1.88,1.87,1.86
50.96,1.50,-0.36,1.51,-0.35,0.35,0.33,-0.06,1.84,1.86,1.86
51.47,1.55,-0.29,1.60,-0.25,0.25,0.23,-0.19,1.80,1.85,1.84
51.99,1.59,-0.24,1.69,-0.16,0.16,0.13,-0.32,1.75,1.84,1.83
52.51,1.79,-0.04,1.78,-0.05,0.05,0.03,-0.45,1.85,1.83,1.83
53.03,1.99,0.15,1.88,0.05,-0.05,-0.06,-0.57,1.93,1.82,1.83
53.56,1.99,0.16,1.97,0.15,-0.15,-0.16,-0.69,1.84,1.82,1.82
54.10,2.02,0.20,2.05,0.23,-0.23,-0.26,-0.81,1.78,1.81,1.81
54.64,2.17,0.37,2.13,0.32,-0.32,-0.36,-0.93,1.86,1.81,1.80
55.18,2.27,0.46,2.21,0.40,-0.40,-0.45,-1.05,1.86,1.80,1.80
55.74,2.22,0.42,2.29,0.49,-0.49,-0.55,-1.16,1.72,1.80,1.79
56.29,2.31,0.52,2.37,0.58,-0.58,-0.65,-1.27,1.72,1.79,1.79
56.86,2.50,0.72,2.45,0.67,-0.67,-0.74,-1.37,1.83,1.78,1.78
57.42,2.56,0.80,2.53,0.76,-0.76,-0.84,-1.48,1.80,1.77,1.76
58.00,2.57,0.81,2.61,0.85,-0.85,-0.93,-1.58,1.72,1.76,1.75
58.58,2.64,0.88,2.68,0.93,-0.93,-1.02,-1.67,1.70,1.74,1.75
59.16,2.72,0.98,2.74,1.02,-1.02,-1.12,-1.76,1.70,1.72,1.74
59.76,2.83,1.11,2.82,1.11,-1.11,-1.21,-1.85,1.72,1.70,1.72
60.35,2.93,1.23,2.89,1.21,-1.21,-1.30,-1.93,1.72,1.68,1.69
60.96,2.99,1.32,2.96,1.30,-1.30,-1.39,-2.01,1.68,1.66,1.67
61.57,3.05,1.41,3.03,1.40,-1.40,-1.48,-2.09,1.64,1.63,1.63
62.18,3.11,1.51,3.10,1.50,-1.50,-1.58,-2.16,1.60,1.60,1.60
62.80,3.17,1.61,3.16,1.60,-1.60,-1.67,-2.22,1.57,1.57,1.56
63.43,3.24,1.71,3.22,1.69,-1.69,-1.76,-2.28,1.55,1.53,1.52
64.07,3.30,1.82,3.29,1.79,-1.79,-1.84,-2.34,1.51,1.50,1.49
64.71,3.29,1.84,3.37,1.91,-1.91,-1.93,-2.40,1.38,1.46,1.45
65.35,3.38,1.96,3.43,2.01,-2.01,-2.02,-2.45,1.37,1.42,1.42
66.01,3.56,2.18,3.50,2.11,-2.11,-2.11,-2.49,1.45,1.38,1.38
66.67,3.54,2.19,3.56,2.21,-2.21,-2.20,-2.54,1.33,1.35,1.34
67.33,3.58,2.27,3.62,2.31,-2.31,-2.28,-2.58,1.27,1.31,1.30
68.01,3.67,2.39,3.68,2.41,-2.41,-2.37,-2.61,1.26,1.27,1.27
68.69,3.75,2.51,3.74,2.51,-2.51,-2.45,-2.65,1.24,1.23,1.23
69.37,3.83,2.63,3.80,2.61,-2.61,-2.54,-2.68,1.21,1.19,1.19
70.07,3.90,2.75,3.87,2.72,-2.72,-2.62,-2.71,1.18,1.15,1.15
70.77,4.01,2.89,3.92,2.81,-2.81,-2.70,-2.74,1.19,1.11,1.12
71.48,4.00,2.92,3.97,2.91,-2.91,-2.79,-2.77,1.09,1.06,1.07
72.19,3.97,2.94,4.02,3.00,-3.00,-2.87,-2.80,0.96,1.02,1.02
72.91,4.03,3.05,4.07,3.09,-3.09,-2.95,-2.82,0.93,0.98,0.98
73.64,4.10,3.16,4.12,3.18,-3.18,-3.03,-2.85,0.91,0.93,0.93
74.38,4.17,3.28,4.16,3.27,-3.27,-3.11,-2.88,0.89,0.89,0.89
75.12,4.23,3.39,4.20,3.36,-3.36,-3.19,-2.90,0.87,0.85,0.84
75.87,4.28,3.48,4.24,3.44,-3.44,-3.26,-2.93,0.84,0.80,0.79
76.63,4.29,3.53,4.27,3.51,-3.51,-3.34,-2.96,0.77,0.76,0.76
77.40,4.27,3.55,4.31,3.59,-3.59,-3.42,-2.99,0.68,0.72,0.72
78.17,4.28,3.61,4.35,3.67,-3.67,-3.49,-3.02,0.61,0.68,0.67
78.95,4.42,3.76,4.39,3.74,-3.74,-3.57,-3.05,0.68,0.65,0.65
79.74,4.50,3.88,4.43,3.82,-3.82,-3.64,-3.09,0.68,0.61,0.61
80.54,4.50,3.91,4.47,3.89,-3.89,-3.71,-3.12,0.61,0.58,0.58
81.35,4.48,3.93,4.50,3.96,-3.96,-3.79,-3.16,0.52,0.55,0.54
82.16,4.47,3.96,4.54,4.03,-4.03,-3.86,-3.20,0.44,0.51,0.51
82.98,4.59,4.10,4.57,4.09,-4.09,-3.93,-3.24,0.49,0.48,0.49
83.81,4.59,4.14,4.61,4.16,-4.16,-4.00,-3.29,0.43,0.45,0.45
84.65,4.66,4.24,4.64,4.22,-4.22,-4.06,-3.34,0.43,0.42,0.41
85.50,4.70,4.31,4.67,4.29,-4.29,-4.13,-3.39,0.41,0.38,0.39
86.35,4.69,4.33,4.69,4.34,-4.34,-4.20,-3.44,0.34,0.35,0.36
87.22,4.69,4.36,4.72,4.40,-4.40,-4.26,-3.50,0.29,0.32,0.32
88.09,4.80,4.51,4.73,4.45,-4.45,-4.32,-3.55,0.35,0.28,0.29
88.97,4.80,4.54,4.75,4.50,-4.50,-4.39,-3.61,0.30,0.25,0.25
89.86,4.80,4.58,4.77,4.56,-4.56,-4.45,-3.68,0.24,0.22,0.22
90.76,4.80,4.62,4.80,4.61,-4.61,-4.51,-3.75,0.18,0.18,0.18
91.66,4.80,4.64,4.82,4.67,-4.67,-4.56,-3.82,0.13,0.15,0.15
92.58,4.79,4.68,4.83,4.71,-4.71,-4.62,-3.89,0.07,0.12,0.11
93.51,4.78,4.70,4.85,4.77,-4.77,-4.68,-3.96,0.01,0.08,0.08
94.44,4.83,4.77,4.86,4.81,-4.81,-4.73,-4.04,0.01,0.05,0.05
95.39,4.89,4.86,4.88,4.86,-4.86,-4.78,-4.12,0.02,0.02,0.02
96.34,4.90,4.91,4.89,4.91,-4.91,-4.84,-4.21,-0.01,-0.01,-0.02
97.30,4.90,4.94,4.90,4.95,-4.95,-4.89,-4.29,-0.05,-0.04,-0.04
98.28,4.95,5.02,4.91,4.98,-4.98,-4.93,-4.38,-0.03,-0.07,-0.07
99.26,4.99,5.09,4.92,5.02,-5.02,-4.98,-4.47,-0.03,-0.10,-0.10
100.25,4.96,5.09,4.93,5.06,-5.06,-5.03,-4.56,-0.10,-0.13,-0.13
101.25,4.93,5.08,4.93,5.09,-5.09,-5.07,-4.65,-0.16,-0.16,-0.16
102.27,4.92,5.10,4.92,5.11,-5.11,-5.11,-4.75,-0.20,-0.19,-0.19
103.29,4.91,5.13,4.91,5.13,-5.13,-5.15,-4.84,-0.22,-0.22,-0.23
104.32,4.89,5.13,4.89,5.14,-5.14,-5.19,-4.94,-0.25,-0.25,-0.25
105.37,4.87,5.14,4.86,5.15,-5.15,-5.23,-5.03,-0.28,-0.28,-0.28
106.42,4.84,5.14,4.83,5.15,-5.15,-5.27,-5.13,-0.31,-0.32,-0.31
107.48,4.82,5.16,4.80,5.16,-5.16,-5.30,-5.22,-0.34,-0.35,-0.35
108.56,4.80,5.18,4.78,5.16,-5.16,-5.33,-5.31,-0.37,-0.38,-0.38
109.64,4.79,5.20,4.75,5.16,-5.16,-5.36,-5.40,-0.38,-0.42,-0.41
110.74,4.70,5.15,4.72,5.17,-5.17,-5.39,-5.49,-0.47,-0.45,-0.45
111.85,4.64,5.11,4.69,5.17,-5.17,-5.42,-5.58,-0.54,-0.48,-0.47
112.97,4.63,5.15,4.67,5.19,-5.19,-5.45,-5.66,-0.56,-0.52,-0.52
114.10,4.62,5.16,4.65,5.19,-5.19,-5.47,-5.74,-0.58,-0.55,-0.55
115.24,4.62,5.19,4.63,5.20,-5.20,-5.49,-5.81,-0.59,-0.57,-0.58
116.39,4.62,5.23,4.61,5.21,-5.21,-5.51,-5.87,-0.59,-0.60,-0.62
117.55,4.62,5.25,4.59,5.22,-5.22,-5.53,-5.94,-0.60,-0.63,-0.63
118.73,4.63,5.29,4.58,5.23,-5.23,-5.55,-5.99,-0.60,-0.65,-0.66
119.92,4.56,5.22,4.56,5.23,-5.23,-5.56,-6.04,-0.68,-0.67,-0.67
121.12,4.52,5.21,4.55,5.24,-5.24,-5.58,-6.08,-0.73,-0.69,-0.69
122.33,4.54,5.25,4.55,5.25,-5.25,-5.59,-6.11,-0.72,-0.71,-0.71
123.55,4.57,5.28,4.54,5.26,-5.26,-5.60,-6.13,-0.70,-0.72,-0.72
124.79,4.57,5.30,4.53,5.26,-5.26,-5.60,-6.15,-0.70,-0.74,-0.73
126.03,4.48,5.22,4.51,5.26,-5.26,-5.61,-6.15,-0.78,-0.75,-0.75
127.29,4.48,5.23,4.49,5.26,-5.26,-5.62,-6.15,-0.78,-0.76,-0.75
128.57,4.48,5.25,4.48,5.25,-5.25,-5.62,-6.14,-0.78,-0.78,-0.78
129.85,4.49,5.27,4.46,5.25,-5.25,-5.62,-6.12,-0.76,-0.79,-0.79
131.15,4.47,5.27,4.44,5.24,-5.24,-5.62,-6.10,-0.78,-0.80,-0.80
132.46,4.42,5.23,4.42,5.23,-5.23,-5.62,-6.07,-0.82,-0.81,-0.81
133.79,4.42,5.24,4.40,5.23,-5.23,-5.61,-6.03,-0.81,-0.83,-0.83
135.12,4.37,5.21,4.38,5.21,-5.21,-5.61,-5.98,-0.85,-0.84,-0.85
136.48,4.33,5.17,4.35,5.19,-5.19,-5.60,-5.93,-0.87,-0.85,-0.85
137.84,4.31,5.17,4.32,5.18,-5.18,-5.59,-5.87,-0.87,-0.86,-0.87
139.22,4.32,5.20,4.30,5.17,-5.17,-5.58,-5.81,-0.86,-0.88,-0.89
140.61,4.32,5.22,4.28,5.17,-5.17,-5.57,-5.75,-0.85,-0.89,-0.91
142.02,4.23,5.13,4.25,5.16,-5.16,-5.55,-5.68,-0.94,-0.91,-0.91
143.44,4.22,5.14,4.22,5.15,-5.15,-5.54,-5.61,-0.94,-0.93,-0.92
144.87,4.19,5.14,4.19,5.15,-5.15,-5.52,-5.54,-0.96,-0.96,-0.95
146.32,4.14,5.11,4.17,5.15,-5.15,-5.50,-5.47,-1.02,-0.99,-0.98
147.78,4.12,5.11,4.14,5.16,-5.16,-5.48,-5.39,-1.04,-1.02,-1.00
149.26,4.12,5.15,4.11,5.18,-5.18,-5.46,-5.32,-1.06,-1.06,-1.03
150.75,4.12,5.20,4.09,5.20,-5.20,-5.44,-5.25,-1.08,-1.11,-1.09
152.26,4.12,5.26,4.07,5.23,-5.23,-5.42,-5.17,-1.11,-1.16,-1.14
153.78,4.11,5.30,4.04,5.25,-5.25,-5.40,-5.10,-1.15,-1.21,-1.19
155.32,3.99,5.24,4.01,5.28,-5.28,-5.37,-5.03,-1.30,-1.27,-1.26
156.88,3.92,5.23,3.99,5.32,-5.32,-5.34,-4.96,-1.40,-1.33,-1.32
158.44,3.92,5.31,3.97,5.35,-5.35,-5.32,-4.89,-1.44,-1.39,-1.39
160.03,3.92,5.38,3.93,5.38,-5.38,-5.29,-4.83,-1.46,-1.45,-1.46
161.63,3.92,5.44,3.90,5.40,-5.40,-5.26,-4.76,-1.49,-1.50,-1.52
163.24,3.91,5.48,3.87,5.42,-5.42,-5.23,-4.70,-1.51,-1.55,-1.57
164.88,3.89,5.50,3.83,5.42,-5.42,-5.19,-4.65,-1.54,-1.60,-1.61
166.53,3.82,5.47,3.79,5.42,-5.42,-5.16,-4.59,-1.60,-1.63,-1.65
168.19,3.74,5.42,3.74,5.40,-5.40,-5.13,-4.54,-1.67,-1.66,-1.68
169.87,3.69,5.40,3.69,5.38,-5.38,-5.09,-4.50,-1.69,-1.69,-1.71
171.57,3.67,5.38,3.64,5.35,-5.35,-5.06,-4.45,-1.68,-1.70,-1.72
173.29,3.61,5.33,3.60,5.31,-5.31,-5.02,-4.41,-1.71,-1.71,-1.72
175.02,3.54,5.26,3.55,5.27,-5.27,-4.99,-4.37,-1.74,-1.72,-1.72
176.77,3.48,5.20,3.50,5.22,-5.22,-4.95,-4.34,-1.75,-1.72,-1.73
178.54,3.47,5.19,3.45,5.17,-5.17,-4.91,-4.31,-1.70,-1.72,-1.72
180.32,3.40,5.10,3.40,5.12,-5.12,-4.87,-4.28,-1.72,-1.72,-1.71
182.13,3.34,5.03,3.36,5.08,-5.08,-4.83,-4.25,-1.74,-1.72,-1.69
183.95,3.29,4.98,3.32,5.03,-5.03,-4.79,-4.23,-1.75,-1.71,-1.70
185.79,3.23,4.92,3.28,4.99,-4.99,-4.75,-4.22,-1.77,-1.71,-1.69
187.65,3.20,4.90,3.24,4.96,-4.96,-4.71,-4.20,-1.76,-1.72,-1.70
189.52,3.24,4.94,3.21,4.92,-4.92,-4.67,-4.19,-1.69,-1.72,-1.71
191.42,3.24,4.95,3.17,4.90,-4.90,-4.63,-4.18,-1.66,-1.72,-1.72
193.33,3.19,4.92,3.14,4.87,-4.87,-4.59,-4.18,-1.69,-1.73,-1.73
195.27,3.12,4.86,3.11,4.85,-4.85,-4.54,-4.17,-1.74,-1.74,-1.74
197.22,3.08,4.83,3.08,4.83,-4.83,-4.50,-4.17,-1.75,-1.75,-1.75
199.19,3.05,4.82,3.04,4.81,-4.81,-4.46,-4.17,-1.76,-1.77,-1.78
201.18,3.01,4.79,3.01,4.79,-4.79,-4.41,-4.18,-1.79,-1.78,-1.79
203.19,2.94,4.73,2.97,4.77,-4.77,-4.37,-4.18,-1.84,-1.80,-1.80
205.23,2.91,4.72,2.93,4.74,-4.74,-4.33,-4.19,-1.84,-1.81,-1.82
207.28,2.91,4.72,2.89,4.72,-4.72,-4.28,-4.20,-1.81,-1.83,-1.82
209.35,2.89,4.72,2.84,4.68,-4.68,-4.24,-4.21,-1.80,-1.84,-1.83
211.44,2.82,4.68,2.79,4.65,-4.65,-4.19,-4.22,-1.83,-1.85,-1.86
213.56,2.75,4.61,2.75,4.61,-4.61,-4.15,-4.23,-1.87,-1.86,-1.86
215.69,2.70,4.57,2.70,4.58,-4.58,-4.10,-4.24,-1.88,-1.87,-1.87
217.85,2.69,4.56,2.66,4.54,-4.54,-4.06,-4.25,-1.86,-1.88,-1.88
220.03,2.62,4.50,2.62,4.50,-4.50,-4.02,-4.27,-1.89,-1.88,-1.89
222.23,2.55,4.45,2.58,4.46,-4.46,-3.97,-4.27,-1.92,-1.89,-1.90
224.45,2.49,4.38,2.53,4.42,-4.42,-3.93,-4.28,-1.93,-1.88,-1.89
226.70,2.48,4.36,2.49,4.38,-4.38,-3.88,-4.29,-1.90,-1.88,-1.89
228.96,2.49,4.36,2.46,4.33,-4.33,-3.84,-4.30,-1.84,-1.87,-1.87
231.25,2.43,4.29,2.42,4.28,-4.28,-3.79,-4.30,-1.85,-1.86,-1.86
233.57,2.39,4.23,2.38,4.23,-4.23,-3.75,-4.30,-1.84,-1.85,-1.85
235.90,2.32,4.15,2.35,4.17,-4.17,-3.70,-4.29,-1.86,-1.83,-1.83
238.26,2.33,4.14,2.31,4.12,-4.12,-3.66,-4.29,-1.79,-1.81,-1.82
240.64,2.31,4.10,2.28,4.07,-4.07,-3.61,-4.28,-1.77,-1.79,-1.79
243.05,2.27,4.03,2.26,4.02,-4.02,-3.57,-4.26,-1.76,-1.76,-1.76
245.48,2.22,3.95,2.24,3.97,-3.97,-3.53,-4.24,-1.76,-1.74,-1.73
247.93,2.21,3.91,2.21,3.92,-3.92,-3.48,-4.22,-1.71,-1.71,-1.70
250.41,2.19,3.87,2.18,3.86,-3.86,-3.44,-4.19,-1.68,-1.69,-1.68
252.92,2.14,3.78,2.15,3.81,-3.81,-3.39,-4.16,-1.67,-1.66,-1.65
255.45,2.09,3.71,2.12,3.75,-3.75,-3.35,-4.12,-1.67,-1.63,-1.62
258.00,2.07,3.66,2.09,3.69,-3.69,-3.31,-4.08,-1.63,-1.60,-1.60
260.58,2.07,3.65,2.05,3.63,-3.63,-3.27,-4.04,-1.57,-1.58,-1.58
263.19,2.08,3.62,2.02,3.57,-3.57,-3.22,-3.99,-1.50,-1.55,-1.55
265.82,2.09,3.62,1.99,3.51,-3.51,-3.18,-3.93,-1.42,-1.52,-1.53
268.48,1.94,3.44,1.95,3.45,-3.45,-3.14,-3.88,-1.51,-1.50,-1.50
271.16,1.86,3.32,1.91,3.38,-3.38,-3.10,-3.82,-1.53,-1.47,-1.47
273.87,1.86,3.31,1.87,3.31,-3.31,-3.05,-3.75,-1.46,-1.44,-1.45
276.61,1.87,3.28,1.83,3.25,-3.25,-3.01,-3.69,-1.38,-1.42,-1.41
279.38,1.85,3.23,1.79,3.18,-3.18,-2.97,-3.62,-1.33,-1.39,-1.39
282.17,1.71,3.06,1.76,3.11,-3.11,-2.93,-3.54,-1.41,-1.36,-1.36
284.99,1.65,2.97,1.72,3.05,-3.05,-2.89,-3.47,-1.40,-1.33,-1.32
287.84,1.69,2.99,1.68,2.98,-2.98,-2.85,-3.40,-1.30,-1.30,-1.31
290.72,1.70,2.96,1.65,2.91,-2.91,-2.81,-3.32,-1.22,-1.27,-1.27
293.63,1.61,2.85,1.61,2.85,-2.85,-2.77,-3.24,-1.24,-1.24,-1.24
296.57,1.56,2.76,1.58,2.79,-2.79,-2.73,-3.16,-1.23,-1.20,-1.20
299.53,1.51,2.68,1.56,2.74,-2.74,-2.69,-3.09,-1.23,-1.18,-1.18
302.53,1.53,2.68,1.53,2.68,-2.68,-2.66,-3.01,-1.15,-1.15,-1.16
305.55,1.56,2.67,1.50,2.62,-2.62,-2.62,-2.93,-1.06,-1.12,-1.11
308.61,1.49,2.58,1.46,2.56,-2.56,-2.58,-2.85,-1.07,-1.10,-1.09
311.69,1.45,2.51,1.43,2.50,-2.50,-2.54,-2.77,-1.06,-1.07,-1.06
314.81,1.43,2.46,1.40,2.45,-2.45,-2.50,-2.69,-1.02,-1.05,-1.04
317.96,1.38,2.39,1.36,2.39,-2.39,-2.47,-2.62,-1.01,-1.03,-1.02
321.14,1.31,2.32,1.32,2.33,-2.33,-2.43,-2.54,-1.02,-1.01,-1.01
324.35,1.27,2.26,1.29,2.27,-2.27,-2.40,-2.46,-1.01,-0.99,-0.99
327.59,1.26,2.23,1.25,2.22,-2.22,-2.36,-2.39,-0.96,-0.97,-0.97
330.87,1.22,2.18,1.21,2.16,-2.16,-2.32,-2.32,-0.95,-0.96,-0.96
334.18,1.16,2.10,1.16,2.10,-2.10,-2.29,-2.25,-0.95,-0.95,-0.95
337.52,1.10,2.03,1.11,2.04,-2.04,-2.25,-2.18,-0.95,-0.93,-0.94
340.90,1.06,1.97,1.06,1.99,-1.99,-2.22,-2.11,-0.93,-0.93,-0.92
344.30,1.03,1.94,1.02,1.94,-1.94,-2.19,-2.04,-0.91,-0.92,-0.91
347.75,0.97,1.88,0.98,1.89,-1.89,-2.15,-1.97,-0.92,-0.91,-0.91
351.23,0.95,1.85,0.93,1.84,-1.84,-2.12,-1.91,-0.89,-0.91,-0.90
354.74,0.93,1.83,0.89,1.79,-1.79,-2.09,-1.84,-0.87,-0.90,-0.90
358.28,0.83,1.72,0.85,1.74,-1.74,-2.06,-1.78,-0.92,-0.90,-0.90
361.87,0.77,1.66,0.80,1.69,-1.69,-2.02,-1.72,-0.93,-0.89,-0.90
365.49,0.77,1.65,0.75,1.65,-1.65,-1.99,-1.66,-0.88,-0.89,-0.89
369.14,0.70,1.59,0.71,1.61,-1.61,-1.96,-1.60,-0.91,-0.89,-0.90
372.83,0.68,1.58,0.68,1.57,-1.57,-1.93,-1.54,-0.90,-0.89,-0.90
376.56,0.69,1.59,0.64,1.53,-1.53,-1.90,-1.49,-0.85,-0.90,-0.90
380.33,0.61,1.50,0.59,1.49,-1.49,-1.87,-1.43,-0.89,-0.90,-0.89
384.13,0.52,1.41,0.55,1.46,-1.46,-1.84,-1.38,-0.94,-0.90,-0.89
387.97,0.51,1.41,0.51,1.42,-1.42,-1.81,-1.33,-0.91,-0.91,-0.90
391.85,0.46,1.37,0.47,1.38,-1.38,-1.78,-1.28,-0.92,-0.91,-0.91
395.77,0.42,1.32,0.43,1.34,-1.34,-1.75,-1.23,-0.93,-0.92,-0.90
399.73,0.41,1.32,0.38,1.30,-1.30,-1.72,-1.18,-0.90,-0.92,-0.92
403.72,0.40,1.31,0.33,1.26,-1.26,-1.70,-1.14,-0.86,-0.93,-0.92
407.76,0.34,1.26,0.29,1.22,-1.22,-1.67,-1.09,-0.88,-0.93,-0.93
411.84,0.27,1.19,0.25,1.18,-1.18,-1.64,-1.05,-0.92,-0.93,-0.93
415.96,0.21,1.13,0.22,1.15,-1.15,-1.61,-1.00,-0.94,-0.93,-0.93
420.12,0.20,1.12,0.18,1.11,-1.11,-1.59,-0.96,-0.92,-0.93,-0.93
424.32,0.14,1.07,0.16,1.08,-1.08,-1.56,-0.92,-0.95,-0.92,-0.93
428.56,0.09,1.01,0.14,1.05,-1.05,-1.54,-0.88,-0.97,-0.91,-0.92
432.85,0.05,0.96,0.12,1.02,-1.02,-1.51,-0.84,-0.97,-0.90,-0.91
437.18,0.06,0.96,0.11,0.99,-0.99,-1.49,-0.80,-0.93,-0.88,-0.90
441.55,0.09,0.95,0.11,0.96,-0.96,-1.46,-0.77,-0.88,-0.85,-0.86
445.96,0.14,0.97,0.11,0.93,-0.93,-1.44,-0.73,-0.80,-0.82,-0.83
450.42,0.16,0.96,0.12,0.90,-0.90,-1.41,-0.70,-0.75,-0.78,-0.80
454.93,0.16,0.91,0.13,0.87,-0.87,-1.39,-0.67,-0.72,-0.74,-0.75
459.48,0.14,0.84,0.14,0.84,-0.84,-1.37,-0.64,-0.70,-0.70,-0.70
464.07,0.17,0.82,0.16,0.81,-0.81,-1.34,-0.61,-0.64,-0.65,-0.65
468.71,0.19,0.78,0.18,0.78,-0.78,-1.32,-0.58,-0.59,-0.60,-0.59
473.40,0.20,0.75,0.19,0.75,-0.75,-1.30,-0.55,-0.55,-0.55,-0.55
478.13,0.24,0.73,0.21,0.71,-0.71,-1.28,-0.52,-0.48,-0.50,-0.50
482.91,0.29,0.74,0.22,0.68,-0.68,-1.25,-0.50,-0.39,-0.46,-0.46
487.74,0.20,0.61,0.23,0.65,-0.65,-1.23,-0.48,-0.45,-0.42,-0.42
492.62,0.17,0.53,0.24,0.62,-0.62,-1.21,-0.45,-0.45,-0.38,-0.37
