frequency,raw,error,smoothed,error_smoothed,equalization,parametric_eq,equalized_raw,equalized_smoothed,target
20.00,-1.88,-0.95,-1.89,-0.96,0.96,-0.51,-0.92,-0.93,-0.93
20.20,-1.82,-0.89,-1.82,-0.89,0.89,-0.53,-0.93,-0.93,-0.93
20.40,-1.76,-0.83,-1.76,-0.83,0.83,-0.54,-0.93,-0.93,-0.93
20.61,-1.70,-0.77,-1.69,-0.76,0.76,-0.56,-0.94,-0.93,-0.93
20.81,-1.63,-0.70,-1.63,-0.69,0.69,-0.58,-0.94,-0.93,-0.93
21.02,-1.57,-0.64,-1.56,-0.63,0.63,-0.59,-0.94,-0.93,-0.93
21.23,-1.50,-0.57,-1.50,-0.56,0.56,-0.61,-0.94,-0.94,-0.93
21.44,-1.43,-0.49,-1.43,-0.50,0.50,-0.63,-0.93,-0.94,-0.94
21.66,-1.37,-0.43,-1.37,-0.43,0.43,-0.65,-0.94,-0.94,-0.94
21.87,-1.31,-0.37,-1.31,-0.37,0.37,-0.67,-0.94,-0.94,-0.94
22.09,-1.24,-0.30,-1.24,-0.30,0.30,-0.69,-0.93,-0.94,-0.94
22.31,-1.18,-0.24,-1.18,-0.24,0.24,-0.71,-0.94,-0.94,-0.94
22.54,-1.12,-0.18,-1.12,-0.18,0.18,-0.73,-0.94,-0.94,-0.94
22.76,-1.05,-0.11,-1.06,-0.11,0.11,-0.75,-0.94,-0.94,-0.94
22.99,-0.99,-0.05,-0.99,-0.05,0.05,-0.77,-0.94,-0.94,-0.94
23.22,-0.94,0.00,-0.93,0.01,-0.01,-0.80,-0.95,-0.94,-0.94
23.45,-0.87,0.08,-0.87,0.07,-0.07,-0.82,-0.94,-0.95,-0.95
23.69,-0.81,0.14,-0.81,0.14,-0.14,-0.84,-0.95,-0.95,-0.95
23.92,-0.75,0.20,-0.75,0.20,-0.20,-0.86,-0.95,-0.95,-0.95
24.16,-0.69,0.26,-0.69,0.26,-0.26,-0.89,-0.95,-0.95,-0.95
24.40,-0.64,0.31,-0.63,0.32,-0.32,-0.91,-0.96,-0.95,-0.95
24.65,-0.58,0.37,-0.57,0.38,-0.38,-0.94,-0.96,-0.95,-0.95
24.89,-0.51,0.44,-0.51,0.45,-0.45,-0.96,-0.95,-0.95,-0.95
25.14,-0.45,0.51,-0.45,0.51,-0.51,-0.99,-0.96,-0.96,-0.96
25.39,-0.39,0.57,-0.39,0.57,-0.57,-1.01,-0.96,-0.96,-0.96
25.65,-0.33,0.63,-0.33,0.63,-0.63,-1.04,-0.96,-0.96,-0.96
25.91,-0.27,0.69,-0.27,0.69,-0.69,-1.06,-0.96,-0.96,-0.96
26.16,-0.21,0.75,-0.22,0.75,-0.75,-1.09,-0.96,-0.96,-0.96
26.43,-0.16,0.80,-0.16,0.80,-0.80,-1.11,-0.97,-0.96,-0.96
26.69,-0.10,0.86,-0.10,0.86,-0.86,-1.14,-0.96,-0.97,-0.96
26.96,-0.05,0.92,-0.05,0.92,-0.92,-1.16,-0.97,-0.97,-0.97
27.23,0.01,0.98,0.00,0.97,-0.97,-1.19,-0.96,-0.97,-0.97
27.50,0.05,1.02,0.06,1.03,-1.03,-1.21,-0.98,-0.97,-0.97
27.77,0.10,1.07,0.11,1.08,-1.08,-1.23,-0.98,-0.97,-0.97
28.05,0.16,1.13,0.15,1.13,-1.13,-1.25,-0.97,-0.98,-0.97
28.33,0.20,1.18,0.20,1.18,-1.18,-1.27,-0.98,-0.98,-0.98
28.62,0.25,1.23,0.25,1.23,-1.23,-1.29,-0.98,-0.98,-0.98
28.90,0.29,1.27,0.29,1.28,-1.28,-1.31,-0.99,-0.98,-0.98
29.19,0.33,1.31,0.34,1.32,-1.32,-1.33,-0.99,-0.98,-0.98
29.48,0.38,1.37,0.38,1.37,-1.37,-1.34,-0.99,-0.99,-0.99
29.78,0.42,1.41,0.42,1.41,-1.41,-1.35,-0.99,-0.99,-0.99
30.08,0.46,1.45,0.46,1.45,-1.45,-1.36,-0.99,-0.99,-0.99
30.38,0.49,1.48,0.49,1.48,-1.48,-1.37,-0.99,-0.99,-0.99
30.68,0.53,1.53,0.52,1.52,-1.52,-1.38,-0.99,-1.00,-1.00
30.99,0.56,1.56,0.55,1.55,-1.55,-1.39,-0.99,-1.00,-1.00
31.30,0.58,1.58,0.58,1.58,-1.58,-1.39,-1.00,-1.00,-1.00
31.61,0.61,1.61,0.60,1.61,-1.61,-1.39,-1.00,-1.00,-1.00
31.93,0.63,1.64,0.63,1.63,-1.63,-1.39,-1.00,-1.01,-1.01
32.24,0.64,1.65,0.65,1.65,-1.65,-1.39,-1.01,-1.01,-1.01
32.57,0.66,1.67,0.66,1.67,-1.67,-1.39,-1.01,-1.01,-1.01
32.89,0.67,1.69,0.68,1.69,-1.69,-1.38,-1.02,-1.02,-1.02
33.22,0.69,1.71,0.69,1.71,-1.71,-1.37,-1.02,-1.02,-1.02
33.55,0.70,1.72,0.70,1.72,-1.72,-1.36,-1.02,-1.02,-1.02
33.89,0.70,1.73,0.70,1.73,-1.73,-1.35,-1.03,-1.03,-1.03
34.23,0.71,1.74,0.71,1.74,-1.74,-1.34,-1.03,-1.03,-1.03
34.57,0.72,1.75,0.72,1.75,-1.75,-1.33,-1.03,-1.03,-1.03
34.92,0.72,1.76,0.72,1.76,-1.76,-1.32,-1.04,-1.04,-1.04
35.27,0.72,1.76,0.72,1.76,-1.76,-1.30,-1.04,-1.04,-1.04
35.62,0.72,1.76,0.72,1.77,-1.77,-1.28,-1.05,-1.05,-1.04
35.97,0.71,1.76,0.72,1.77,-1.77,-1.27,-1.06,-1.05,-1.05
36.33,0.72,1.77,0.72,1.77,-1.77,-1.25,-1.05,-1.05,-1.05
36.70,0.71,1.77,0.71,1.77,-1.77,-1.23,-1.06,-1.06,-1.06
37.06,0.71,1.77,0.71,1.77,-1.77,-1.22,-1.06,-1.06,-1.06
37.43,0.70,1.77,0.70,1.77,-1.77,-1.20,-1.07,-1.07,-1.07
37.81,0.70,1.77,0.70,1.77,-1.77,-1.18,-1.07,-1.07,-1.07
38.19,0.69,1.77,0.69,1.76,-1.76,-1.16,-1.07,-1.08,-1.08
38.57,0.68,1.76,0.68,1.76,-1.76,-1.14,-1.08,-1.08,-1.08
38.95,0.67,1.76,0.66,1.75,-1.75,-1.12,-1.08,-1.09,-1.09
39.34,0.65,1.74,0.65,1.74,-1.74,-1.11,-1.09,-1.09,-1.09
39.74,0.64,1.74,0.64,1.73,-1.73,-1.09,-1.09,-1.10,-1.10
40.14,0.62,1.72,0.62,1.72,-1.72,-1.07,-1.10,-1.10,-1.10
40.54,0.60,1.71,0.61,1.71,-1.71,-1.06,-1.11,-1.11,-1.11
40.94,0.59,1.70,0.59,1.70,-1.70,-1.04,-1.11,-1.11,-1.11
41.35,0.56,1.68,0.57,1.69,-1.69,-1.02,-1.13,-1.12,-1.12
41.76,0.55,1.68,0.55,1.67,-1.67,-1.01,-1.12,-1.13,-1.13
42.18,0.53,1.66,0.53,1.66,-1.66,-1.00,-1.13,-1.13,-1.13
42.60,0.51,1.65,0.50,1.64,-1.64,-0.98,-1.13,-1.14,-1.14
43.03,0.48,1.63,0.48,1.63,-1.63,-0.97,-1.15,-1.15,-1.15
43.46,0.46,1.61,0.46,1.61,-1.61,-0.96,-1.15,-1.15,-1.15
43.90,0.44,1.60,0.43,1.60,-1.60,-0.94,-1.15,-1.16,-1.16
44.33,0.41,1.58,0.41,1.58,-1.58,-0.93,-1.17,-1.17,-1.17
44.78,0.38,1.55,0.39,1.56,-1.56,-0.92,-1.18,-1.18,-1.17
45.23,0.36,1.54,0.36,1.54,-1.54,-0.91,-1.18,-1.18,-1.18
45.68,0.33,1.52,0.33,1.53,-1.53,-0.90,-1.20,-1.19,-1.19
46.13,0.31,1.51,0.31,1.51,-1.51,-0.90,-1.20,-1.20,-1.20
46.60,0.28,1.49,0.28,1.49,-1.49,-0.89,-1.21,-1.21,-1.21
47.06,0.25,1.47,0.26,1.47,-1.47,-0.88,-1.22,-1.22,-1.22
47.53,0.23,1.46,0.23,1.46,-1.46,-0.88,-1.23,-1.23,-1.23
48.01,0.20,1.43,0.21,1.44,-1.44,-0.87,-1.24,-1.24,-1.23
48.49,0.18,1.42,0.18,1.42,-1.42,-0.87,-1.24,-1.25,-1.24
48.97,0.15,1.40,0.15,1.41,-1.41,-0.86,-1.26,-1.26,-1.25
49.46,0.12,1.38,0.13,1.39,-1.39,-0.86,-1.27,-1.26,-1.26
49.96,0.10,1.37,0.10,1.37,-1.37,-0.86,-1.27,-1.28,-1.27
50.46,0.08,1.37,0.07,1.36,-1.36,-0.86,-1.28,-1.29,-1.29
50.96,0.04,1.34,0.04,1.34,-1.34,-0.86,-1.30,-1.30,-1.30
51.47,0.01,1.32,0.01,1.32,-1.32,-0.85,-1.31,-1.31,-1.31
51.99,-0.02,1.30,-0.02,1.30,-1.30,-0.86,-1.32,-1.32,-1.32
52.51,-0.06,1.27,-0.06,1.27,-1.27,-0.86,-1.33,-1.33,-1.33
53.03,-0.09,1.25,-0.09,1.25,-1.25,-0.86,-1.34,-1.34,-1.34
53.56,-0.13,1.23,-0.13,1.23,-1.23,-0.86,-1.36,-1.35,-1.36
54.10,-0.16,1.21,-0.17,1.20,-1.20,-0.86,-1.36,-1.37,-1.37
54.64,-0.21,1.17,-0.21,1.17,-1.17,-0.87,-1.38,-1.38,-1.38
55.18,-0.25,1.14,-0.25,1.14,-1.14,-0.87,-1.39,-1.39,-1.39
55.74,-0.29,1.12,-0.30,1.11,-1.11,-0.87,-1.40,-1.41,-1.41
56.29,-0.34,1.08,-0.35,1.08,-1.08,-0.88,-1.42,-1.42,-1.42
56.86,-0.39,1.05,-0.40,1.04,-1.04,-0.88,-1.43,-1.44,-1.44
57.42,-0.44,1.01,-0.44,1.01,-1.01,-0.89,-1.45,-1.45,-1.45
58.00,-0.49,0.98,-0.49,0.97,-0.97,-0.90,-1.46,-1.47,-1.47
58.58,-0.55,0.93,-0.54,0.94,-0.94,-0.90,-1.49,-1.48,-1.48
59.16,-0.59,0.91,-0.59,0.91,-0.91,-0.91,-1.50,-1.50,-1.50
59.76,-0.65,0.87,-0.64,0.87,-0.87,-0.92,-1.52,-1.52,-1.52
60.35,-0.69,0.84,-0.69,0.84,-0.84,-0.93,-1.53,-1.54,-1.53
60.96,-0.75,0.80,-0.74,0.82,-0.82,-0.94,-1.57,-1.55,-1.55
61.57,-0.79,0.78,-0.78,0.79,-0.79,-0.95,-1.58,-1.57,-1.57
62.18,-0.82,0.77,-0.82,0.77,-0.77,-0.96,-1.59,-1.59,-1.59
62.80,-0.86,0.74,-0.86,0.75,-0.75,-0.97,-1.61,-1.61,-1.60
63.43,-0.89,0.73,-0.89,0.73,-0.73,-0.98,-1.62,-1.63,-1.62
64.07,-0.93,0.71,-0.92,0.72,-0.72,-0.99,-1.65,-1.65,-1.64
64.71,-0.95,0.71,-0.95,0.72,-0.72,-1.01,-1.67,-1.66,-1.66
65.35,-0.98,0.70,-0.97,0.71,-0.71,-1.02,-1.69,-1.68,-1.68
66.01,-1.00,0.70,-0.99,0.71,-0.71,-1.03,-1.71,-1.70,-1.70
66.67,-1.01,0.71,-1.01,0.71,-0.71,-1.05,-1.72,-1.72,-1.72
67.33,-1.02,0.72,-1.02,0.72,-0.72,-1.06,-1.74,-1.75,-1.75
68.01,-1.04,0.73,-1.04,0.73,-0.73,-1.08,-1.77,-1.77,-1.77
68.69,-1.04,0.75,-1.04,0.75,-0.75,-1.09,-1.79,-1.79,-1.79
69.37,-1.05,0.76,-1.05,0.76,-0.76,-1.11,-1.81,-1.81,-1.81
70.07,-1.05,0.79,-1.05,0.78,-0.78,-1.13,-1.83,-1.84,-1.84
70.77,-1.05,0.81,-1.05,0.81,-0.81,-1.15,-1.86,-1.86,-1.86
71.48,-1.05,0.83,-1.05,0.83,-0.83,-1.17,-1.88,-1.88,-1.88
72.19,-1.05,0.86,-1.05,0.86,-0.86,-1.19,-1.91,-1.91,-1.91
72.91,-1.04,0.89,-1.04,0.89,-0.89,-1.21,-1.93,-1.93,-1.93
73.64,-1.04,0.92,-1.03,0.92,-0.92,-1.23,-1.96,-1.96,-1.96
74.38,-1.03,0.95,-1.02,0.96,-0.96,-1.26,-1.99,-1.98,-1.98
75.12,-1.01,1.00,-1.01,1.00,-1.00,-1.28,-2.01,-2.01,-2.01
75.87,-1.00,1.04,-1.00,1.04,-1.04,-1.31,-2.04,-2.04,-2.04
76.63,-0.99,1.07,-0.99,1.08,-1.08,-1.34,-2.07,-2.06,-2.06
77.40,-0.97,1.12,-0.97,1.12,-1.12,-1.37,-2.09,-2.09,-2.09
78.17,-0.96,1.16,-0.96,1.16,-1.16,-1.40,-2.12,-2.12,-2.12
78.95,-0.94,1.21,-0.94,1.20,-1.20,-1.43,-2.14,-2.15,-2.15
79.74,-0.92,1.25,-0.93,1.25,-1.25,-1.46,-2.17,-2.17,-2.17
80.54,-0.91,1.29,-0.91,1.29,-1.29,-1.49,-2.20,-2.20,-2.20
81.35,-0.89,1.34,-0.90,1.34,-1.34,-1.53,-2.23,-2.23,-2.23
82.16,-0.87,1.39,-0.88,1.38,-1.38,-1.56,-2.25,-2.26,-2.26
82.98,-0.86,1.43,-0.87,1.43,-1.43,-1.60,-2.29,-2.29,-2.29
83.81,-0.85,1.47,-0.85,1.47,-1.47,-1.64,-2.32,-2.32,-2.32
84.65,-0.84,1.51,-0.84,1.52,-1.52,-1.68,-2.36,-2.35,-2.35
85.50,-0.82,1.56,-0.82,1.57,-1.57,-1.73,-2.39,-2.39,-2.38
86.35,-0.81,1.60,-0.80,1.61,-1.61,-1.77,-2.42,-2.42,-2.41
87.22,-0.80,1.65,-0.79,1.66,-1.66,-1.82,-2.46,-2.45,-2.45
88.09,-0.77,1.71,-0.77,1.71,-1.71,-1.86,-2.48,-2.48,-2.48
88.97,-0.75,1.76,-0.75,1.77,-1.77,-1.91,-2.52,-2.51,-2.51
89.86,-0.73,1.81,-0.73,1.82,-1.82,-1.96,-2.55,-2.54,-2.54
90.76,-0.71,1.86,-0.71,1.87,-1.87,-2.01,-2.58,-2.58,-2.57
91.66,-0.69,1.92,-0.68,1.93,-1.93,-2.07,-2.62,-2.61,-2.61
92.58,-0.67,1.97,-0.66,1.98,-1.98,-2.12,-2.65,-2.64,-2.64
93.51,-0.64,2.03,-0.64,2.03,-2.03,-2.18,-2.67,-2.67,-2.67
94.44,-0.61,2.09,-0.62,2.09,-2.09,-2.23,-2.70,-2.70,-2.70
95.39,-0.59,2.15,-0.60,2.14,-2.14,-2.29,-2.73,-2.74,-2.74
96.34,-0.57,2.20,-0.58,2.19,-2.19,-2.35,-2.76,-2.77,-2.77
97.30,-0.56,2.24,-0.56,2.24,-2.24,-2.41,-2.80,-2.80,-2.80
98.28,-0.54,2.30,-0.55,2.29,-2.29,-2.47,-2.83,-2.84,-2.84
99.26,-0.53,2.34,-0.54,2.33,-2.33,-2.53,-2.86,-2.87,-2.87
100.25,-0.52,2.38,-0.53,2.38,-2.38,-2.59,-2.90,-2.90,-2.90
101.25,-0.52,2.42,-0.52,2.42,-2.42,-2.66,-2.94,-2.94,-2.94
102.27,-0.51,2.46,-0.51,2.45,-2.45,-2.72,-2.96,-2.97,-2.97
103.29,-0.52,2.48,-0.51,2.49,-2.49,-2.78,-3.01,-3.00,-3.00
104.32,-0.52,2.51,-0.51,2.52,-2.52,-2.84,-3.04,-3.04,-3.03
105.37,-0.52,2.55,-0.52,2.55,-2.55,-2.90,-3.07,-3.07,-3.07
106.42,-0.53,2.57,-0.52,2.58,-2.58,-2.96,-3.11,-3.10,-3.10
107.48,-0.54,2.59,-0.53,2.60,-2.60,-3.02,-3.14,-3.13,-3.13
108.56,-0.54,2.63,-0.54,2.62,-2.62,-3.07,-3.16,-3.17,-3.17
109.64,-0.55,2.65,-0.56,2.64,-2.64,-3.12,-3.19,-3.20,-3.20
110.74,-0.57,2.66,-0.57,2.66,-2.66,-3.17,-3.23,-3.23,-3.23
111.85,-0.59,2.67,-0.59,2.67,-2.67,-3.22,-3.26,-3.26,-3.26
112.97,-0.61,2.68,-0.62,2.68,-2.68,-3.26,-3.29,-3.29,-3.29
114.10,-0.64,2.69,-0.64,2.69,-2.69,-3.29,-3.33,-3.33,-3.33
115.24,-0.66,2.70,-0.67,2.69,-2.69,-3.33,-3.35,-3.36,-3.36
116.39,-0.69,2.70,-0.70,2.69,-2.69,-3.35,-3.38,-3.39,-3.39
117.55,-0.73,2.69,-0.73,2.69,-2.69,-3.37,-3.42,-3.42,-3.42
118.73,-0.76,2.69,-0.76,2.69,-2.69,-3.39,-3.45,-3.45,-3.45
119.92,-0.80,2.68,-0.80,2.68,-2.68,-3.39,-3.48,-3.48,-3.48
121.12,-0.84,2.67,-0.84,2.68,-2.68,-3.39,-3.52,-3.51,-3.51
122.33,-0.88,2.66,-0.87,2.67,-2.67,-3.39,-3.55,-3.54,-3.54
123.55,-0.92,2.65,-0.91,2.66,-2.66,-3.37,-3.58,-3.57,-3.57
124.79,-0.96,2.64,-0.95,2.65,-2.65,-3.35,-3.61,-3.60,-3.60
126.03,-0.99,2.64,-0.99,2.64,-2.64,-3.32,-3.63,-3.63,-3.63
127.29,-1.03,2.63,-1.03,2.63,-2.63,-3.28,-3.66,-3.66,-3.66
128.57,-1.07,2.61,-1.07,2.62,-2.62,-3.23,-3.69,-3.69,-3.68
129.85,-1.11,2.60,-1.11,2.60,-2.60,-3.18,-3.71,-3.71,-3.71
131.15,-1.15,2.59,-1.15,2.59,-2.59,-3.12,-3.74,-3.74,-3.74
132.46,-1.19,2.57,-1.19,2.57,-2.57,-3.05,-3.76,-3.77,-3.76
133.79,-1.24,2.55,-1.24,2.55,-2.55,-2.98,-3.79,-3.79,-3.79
135.12,-1.28,2.54,-1.28,2.53,-2.53,-2.90,-3.81,-3.82,-3.82
136.48,-1.33,2.51,-1.33,2.51,-2.51,-2.81,-3.84,-3.84,-3.84
137.84,-1.38,2.49,-1.38,2.49,-2.49,-2.72,-3.87,-3.87,-3.87
139.22,-1.43,2.46,-1.43,2.46,-2.46,-2.62,-3.89,-3.89,-3.89
140.61,-1.49,2.43,-1.49,2.43,-2.43,-2.51,-3.92,-3.92,-3.92
142.02,-1.54,2.40,-1.54,2.40,-2.40,-2.41,-3.94,-3.94,-3.94
143.44,-1.60,2.36,-1.60,2.37,-2.37,-2.29,-3.97,-3.96,-3.96
144.87,-1.66,2.33,-1.66,2.33,-2.33,-2.18,-3.99,-3.99,-3.99
146.32,-1.72,2.29,-1.72,2.29,-2.29,-2.06,-4.01,-4.01,-4.01
147.78,-1.79,2.24,-1.79,2.25,-2.25,-1.94,-4.04,-4.03,-4.03
149.26,-1.85,2.20,-1.85,2.20,-2.20,-1.81,-4.05,-4.05,-4.05
150.75,-1.93,2.14,-1.93,2.15,-2.15,-1.69,-4.08,-4.07,-4.07
152.26,-2.00,2.09,-2.00,2.10,-2.10,-1.56,-4.10,-4.10,-4.09
153.78,-2.07,2.04,-2.08,2.04,-2.04,-1.43,-4.11,-4.12,-4.12
155.32,-2.15,1.98,-2.16,1.98,-1.98,-1.30,-4.13,-4.13,-4.14
156.88,-2.24,1.91,-2.24,1.91,-1.91,-1.16,-4.15,-4.15,-4.15
158.44,-2.33,1.84,-2.33,1.84,-1.84,-1.03,-4.17,-4.17,-4.17
160.03,-2.42,1.77,-2.42,1.77,-1.77,-0.90,-4.19,-4.19,-4.19
161.63,-2.52,1.69,-2.52,1.69,-1.69,-0.76,-4.21,-4.21,-4.21
163.24,-2.62,1.61,-2.62,1.61,-1.61,-0.62,-4.23,-4.23,-4.23
164.88,-2.72,1.53,-2.72,1.52,-1.52,-0.49,-4.24,-4.24,-4.25
166.53,-2.82,1.44,-2.83,1.43,-1.43,-0.35,-4.25,-4.26,-4.26
168.19,-2.94,1.34,-2.94,1.34,-1.34,-0.21,-4.28,-4.28,-4.28
169.87,-3.05,1.25,-3.05,1.25,-1.25,-0.07,-4.30,-4.30,-4.30
171.57,-3.16,1.15,-3.17,1.15,-1.15,0.07,-4.31,-4.31,-4.31
173.29,-3.29,1.04,-3.28,1.05,-1.05,0.21,-4.34,-4.33,-4.33
175.02,-3.40,0.94,-3.40,0.94,-0.94,0.35,-4.35,-4.35,-4.34
176.77,-3.53,0.83,-3.52,0.84,-0.84,0.49,-4.37,-4.36,-4.36
178.54,-3.65,0.72,-3.64,0.73,-0.73,0.63,-4.38,-4.38,-4.37
180.32,-3.77,0.62,-3.77,0.62,-0.62,0.77,-4.39,-4.39,-4.39
182.13,-3.90,0.50,-3.89,0.51,-0.51,0.91,-4.41,-4.40,-4.40
183.95,-4.03,0.38,-4.02,0.40,-0.40,1.05,-4.43,-4.42,-4.41
185.79,-4.15,0.28,-4.14,0.29,-0.29,1.19,-4.44,-4.43,-4.43
187.65,-4.27,0.17,-4.27,0.17,-0.17,1.34,-4.44,-4.44,-4.44
189.52,-4.41,0.04,-4.41,0.05,-0.05,1.48,-4.46,-4.45,-4.45
191.42,-4.54,-0.08,-4.54,-0.08,0.08,1.62,-4.46,-4.47,-4.46
193.33,-4.68,-0.21,-4.68,-0.20,0.20,1.76,-4.48,-4.48,-4.47
195.27,-4.82,-0.33,-4.82,-0.34,0.34,1.91,-4.48,-4.49,-4.49
197.22,-4.97,-0.47,-4.97,-0.48,0.48,2.05,-4.49,-4.50,-4.50
199.19,-5.12,-0.61,-5.13,-0.62,0.62,2.19,-4.50,-4.51,-4.51
201.18,-5.28,-0.76,-5.29,-0.77,0.77,2.33,-4.51,-4.52,-4.52
203.19,-5.45,-0.92,-5.45,-0.93,0.93,2.47,-4.52,-4.52,-4.53
205.23,-5.62,-1.08,-5.63,-1.09,1.09,2.61,-4.53,-4.54,-4.54
207.28,-5.79,-1.24,-5.81,-1.26,1.26,2.75,-4.53,-4.55,-4.55
209.35,-5.99,-1.43,-6.00,-1.44,1.44,2.89,-4.55,-4.56,-4.56
211.44,-6.17,-1.60,-6.19,-1.63,1.63,3.02,-4.54,-4.57,-4.57
213.56,-6.38,-1.80,-6.39,-1.81,1.81,3.15,-4.57,-4.58,-4.58
215.69,-6.59,-2.01,-6.60,-2.01,2.01,3.28,-4.58,-4.59,-4.58
217.85,-6.81,-2.22,-6.80,-2.21,2.21,3.40,-4.60,-4.60,-4.59
220.03,-7.02,-2.42,-7.01,-2.41,2.41,3.52,-4.61,-4.61,-4.60
222.23,-7.23,-2.62,-7.22,-2.61,2.61,3.63,-4.62,-4.61,-4.61
224.45,-7.45,-2.83,-7.44,-2.82,2.82,3.74,-4.63,-4.62,-4.62
226.70,-7.67,-3.05,-7.65,-3.02,3.02,3.84,-4.65,-4.63,-4.62
228.96,-7.87,-3.24,-7.86,-3.23,3.23,3.93,-4.64,-4.64,-4.63
231.25,-8.08,-3.44,-8.08,-3.44,3.44,4.02,-4.64,-4.64,-4.64
233.57,-8.29,-3.64,-8.29,-3.64,3.64,4.10,-4.65,-4.65,-4.64
235.90,-8.49,-3.84,-8.50,-3.85,3.85,4.16,-4.64,-4.65,-4.65
238.26,-8.69,-4.03,-8.71,-4.06,4.06,4.22,-4.63,-4.66,-4.66
240.64,-8.90,-4.24,-8.92,-4.26,4.26,4.27,-4.64,-4.66,-4.66
243.05,-9.10,-4.43,-9.13,-4.47,4.47,4.31,-4.63,-4.66,-4.67
245.48,-9.31,-4.63,-9.33,-4.67,4.67,4.33,-4.64,-4.67,-4.68
247.93,-9.51,-4.83,-9.53,-4.86,4.86,4.35,-4.65,-4.68,-4.68
250.41,-9.70,-5.01,-9.73,-5.04,5.04,4.35,-4.66,-4.68,-4.69
252.92,-9.89,-5.20,-9.91,-5.22,5.22,4.34,-4.67,-4.69,-4.69
255.45,-10.07,-5.37,-10.08,-5.38,5.38,4.33,-4.69,-4.70,-4.70
258.00,-10.23,-5.53,-10.24,-5.52,5.52,4.29,-4.71,-4.72,-4.70
260.58,-10.37,-5.66,-10.38,-5.65,5.65,4.25,-4.72,-4.73,-4.71
263.19,-10.50,-5.79,-10.49,-5.75,5.75,4.20,-4.75,-4.74,-4.71
265.82,-10.60,-5.88,-10.57,-5.82,5.82,4.14,-4.78,-4.75,-4.72
268.48,-10.67,-5.95,-10.62,-5.86,5.86,4.07,-4.81,-4.76,-4.72
271.16,-10.69,-5.96,-10.64,-5.87,5.87,3.98,-4.82,-4.77,-4.73
273.87,-10.69,-5.96,-10.62,-5.85,5.85,3.89,-4.84,-4.78,-4.73
276.61,-10.64,-5.90,-10.57,-5.79,5.79,3.80,-4.85,-4.78,-4.74
279.38,-10.54,-5.80,-10.48,-5.69,5.69,3.69,-4.85,-4.79,-4.74
282.17,-10.41,-5.67,-10.35,-5.56,5.56,3.58,-4.85,-4.79,-4.74
284.99,-10.24,-5.49,-10.19,-5.40,5.40,3.47,-4.84,-4.79,-4.75
287.84,-10.03,-5.28,-9.99,-5.21,5.21,3.35,-4.82,-4.79,-4.75
290.72,-9.78,-5.02,-9.77,-4.99,4.99,3.22,-4.79,-4.78,-4.76
293.63,-9.53,-4.77,-9.53,-4.75,4.75,3.09,-4.78,-4.78,-4.76
296.57,-9.25,-4.49,-9.27,-4.49,4.49,2.96,-4.76,-4.78,-4.76
299.53,-8.96,-4.19,-8.99,-4.22,4.22,2.82,-4.74,-4.77,-4.77
302.53,-8.67,-3.90,-8.71,-3.94,3.94,2.69,-4.73,-4.77,-4.77
305.55,-8.38,-3.61,-8.42,-3.65,3.65,2.55,-4.73,-4.77,-4.77
308.61,-8.09,-3.31,-8.12,-3.36,3.36,2.41,-4.73,-4.77,-4.78
311.69,-7.80,-3.02,-7.83,-3.06,3.06,2.27,-4.74,-4.77,-4.78
314.81,-7.52,-2.74,-7.55,-2.78,2.78,2.12,-4.74,-4.77,-4.78
317.96,-7.25,-2.47,-7.27,-2.49,2.49,1.98,-4.76,-4.78,-4.78
321.14,-6.98,-2.19,-7.00,-2.22,2.22,1.84,-4.76,-4.78,-4.79
324.35,-6.73,-1.94,-6.74,-1.95,1.95,1.69,-4.78,-4.79,-4.79
327.59,-6.48,-1.69,-6.48,-1.69,1.69,1.55,-4.79,-4.79,-4.79
330.87,-6.24,-1.44,-6.24,-1.44,1.44,1.41,-4.80,-4.79,-4.80
334.18,-6.00,-1.20,-6.00,-1.21,1.21,1.26,-4.79,-4.80,-4.80
337.52,-5.77,-0.97,-5.78,-0.98,0.98,1.12,-4.79,-4.80,-4.80
340.90,-5.56,-0.76,-5.56,-0.76,0.76,0.98,-4.80,-4.80,-4.80
344.30,-5.35,-0.54,-5.36,-0.55,0.55,0.83,-4.80,-4.80,-4.81
347.75,-5.15,-0.34,-5.16,-0.35,0.35,0.69,-4.80,-4.81,-4.81
351.23,-4.95,-0.14,-4.97,-0.16,0.16,0.55,-4.79,-4.81,-4.81
354.74,-4.77,0.04,-4.79,0.02,-0.02,0.41,-4.79,-4.81,-4.81
358.28,-4.62,0.19,-4.62,0.20,-0.20,0.27,-4.82,-4.82,-4.81
361.87,-4.46,0.36,-4.46,0.36,-0.36,0.13,-4.82,-4.82,-4.82
365.49,-4.31,0.51,-4.30,0.52,-0.52,-0.01,-4.83,-4.82,-4.82
369.14,-4.16,0.66,-4.15,0.67,-0.67,-0.15,-4.83,-4.82,-4.82
372.83,-4.02,0.80,-4.01,0.81,-0.81,-0.29,-4.83,-4.82,-4.82
376.56,-3.88,0.94,-3.88,0.95,-0.95,-0.43,-4.83,-4.83,-4.82
380.33,-3.76,1.06,-3.75,1.08,-1.08,-0.57,-4.84,-4.83,-4.82
384.13,-3.63,1.20,-3.63,1.20,-1.20,-0.71,-4.83,-4.83,-4.83
387.97,-3.52,1.31,-3.52,1.31,-1.31,-0.85,-4.83,-4.83,-4.83
391.85,-3.41,1.42,-3.41,1.42,-1.42,-0.98,-4.83,-4.83,-4.83
395.77,-3.30,1.53,-3.31,1.52,-1.52,-1.12,-4.82,-4.83,-4.83
399.73,-3.20,1.63,-3.21,1.62,-1.62,-1.25,-4.82,-4.83,-4.83
403.72,-3.12,1.71,-3.13,1.70,-1.70,-1.39,-4.82,-4.83,-4.83
407.76,-3.04,1.80,-3.05,1.79,-1.79,-1.52,-4.83,-4.83,-4.84
411.84,-2.97,1.87,-2.98,1.86,-1.86,-1.65,-4.83,-4.84,-4.84
415.96,-2.89,1.95,-2.91,1.93,-1.93,-1.78,-4.82,-4.84,-4.84
420.12,-2.83,2.01,-2.85,2.00,-2.00,-1.91,-4.83,-4.85,-4.84
424.32,-2.77,2.07,-2.79,2.06,-2.06,-2.04,-4.83,-4.85,-4.84
428.56,-2.72,2.13,-2.73,2.12,-2.12,-2.16,-4.84,-4.85,-4.85
432.85,-2.68,2.17,-2.67,2.18,-2.18,-2.28,-4.86,-4.85,-4.85
437.18,-2.63,2.22,-2.61,2.24,-2.24,-2.40,-4.87,-4.86,-4.85
441.55,-2.58,2.27,-2.56,2.30,-2.30,-2.51,-4.88,-4.86,-4.85
445.96,-2.54,2.30,-2.50,2.36,-2.36,-2.62,-4.90,-4.85,-4.84
450.42,-2.46,2.38,-2.44,2.41,-2.41,-2.73,-4.87,-4.85,-4.84
454.93,-2.39,2.45,-2.37,2.47,-2.47,-2.83,-4.86,-4.85,-4.84
459.48,-2.31,2.52,-2.30,2.53,-2.53,-2.92,-4.84,-4.84,-4.83
464.07,-2.24,2.58,-2.24,2.60,-2.60,-3.01,-4.84,-4.83,-4.82
468.71,-2.16,2.66,-2.17,2.66,-2.66,-3.10,-4.82,-4.82,-4.82
473.40,-2.09,2.72,-2.09,2.72,-2.72,-3.18,-4.81,-4.81,-4.81
478.13,-2.01,2.79,-2.02,2.78,-2.78,-3.25,-4.79,-4.80,-4.80
482.91,-1.94,2.85,-1.95,2.84,-2.84,-3.32,-4.78,-4.79,-4.79
487.74,-1.87,2.90,-1.87,2.90,-2.90,-3.37,-4.77,-4.77,-4.77
492.62,-1.79,2.97,-1.80,2.96,-2.96,-3.43,-4.75,-4.76,-4.76
497.55,-1.72,3.03,-1.73,3.01,-3.01,-3.47,-4.73,-4.74,-4.75
502.52,-1.67,3.06,-1.67,3.06,-3.06,-3.51,-4.73,-4.73,-4.73
507.55,-1.60,3.11,-1.61,3.11,-3.11,-3.54,-4.71,-4.71,-4.71
512.62,-1.55,3.15,-1.55,3.15,-3.15,-3.56,-4.70,-4.70,-4.70
517.75,-1.48,3.20,-1.49,3.19,-3.19,-3.58,-4.67,-4.68,-4.68
522.93,-1.43,3.23,-1.43,3.23,-3.23,-3.59,-4.66,-4.67,-4.66
528.16,-1.38,3.27,-1.38,3.27,-3.27,-3.59,-4.65,-4.65,-4.65
533.44,-1.33,3.30,-1.33,3.30,-3.30,-3.59,-4.63,-4.63,-4.63
538.77,-1.28,3.33,-1.27,3.33,-3.33,-3.58,-4.61,-4.61,-4.61
544.16,-1.23,3.36,-1.22,3.36,-3.36,-3.57,-4.59,-4.58,-4.59
549.60,-1.18,3.38,-1.18,3.38,-3.38,-3.55,-4.56,-4.56,-4.56
555.10,-1.13,3.41,-1.13,3.41,-3.41,-3.53,-4.54,-4.53,-4.54
560.65,-1.09,3.42,-1.08,3.43,-3.43,-3.50,-4.52,-4.51,-4.51
566.25,-1.04,3.44,-1.04,3.44,-3.44,-3.47,-4.48,-4.48,-4.48
571.92,-0.99,3.46,-1.00,3.46,-3.46,-3.44,-4.45,-4.45,-4.45
577.64,-0.95,3.48,-0.96,3.47,-3.47,-3.41,-4.42,-4.43,-4.43
583.41,-0.91,3.49,-0.92,3.48,-3.48,-3.37,-4.39,-4.40,-4.40
589.25,-0.87,3.50,-0.88,3.49,-3.49,-3.33,-4.36,-4.37,-4.37
