frequency,raw,smoothed,error,error_smoothed,equalization,parametric_eq,fixed_band_eq,equalized_raw,equalized_smoothed,target
20.00,-0.51,-0.51,-3.23,-3.22,3.22,2.75,0.68,2.71,2.71,2.72
20.20,-0.48,-0.48,-3.18,-3.17,3.17,2.71,0.70,2.70,2.70,2.70
20.40,-0.44,-0.45,-3.11,-3.12,3.13,2.68,0.72,2.69,2.68,2.68
20.61,-0.41,-0.41,-3.08,-3.07,3.08,2.65,0.75,2.67,2.66,2.67
20.81,-0.38,-0.38,-3.02,-3.03,3.03,2.61,0.77,2.65,2.65,2.65
21.02,-0.35,-0.34,-2.98,-2.97,2.97,2.58,0.79,2.62,2.63,2.63
21.23,-0.30,-0.30,-2.91,-2.92,2.92,2.54,0.82,2.62,2.61,2.61
21.44,-0.26,-0.26,-2.86,-2.86,2.86,2.51,0.85,2.60,2.60,2.60
21.66,-0.22,-0.22,-2.81,-2.80,2.81,2.48,0.87,2.59,2.59,2.59
21.87,-0.17,-0.17,-2.74,-2.75,2.75,2.44,0.90,2.58,2.58,2.57
22.09,-0.13,-0.13,-2.69,-2.69,2.69,2.41,0.93,2.56,2.56,2.56
22.31,-0.08,-0.08,-2.63,-2.63,2.63,2.37,0.96,2.55,2.55,2.55
22.54,-0.03,-0.03,-2.57,-2.57,2.56,2.34,0.99,2.53,2.54,2.54
22.76,0.03,0.03,-2.50,-2.50,2.50,2.31,1.02,2.53,2.53,2.53
22.99,0.08,0.08,-2.44,-2.44,2.44,2.27,1.05,2.52,2.52,2.52
23.22,0.13,0.14,-2.38,-2.38,2.38,2.24,1.08,2.51,2.51,2.51
23.45,0.19,0.19,-2.32,-2.31,2.32,2.20,1.11,2.51,2.51,2.51
23.69,0.25,0.25,-2.25,-2.25,2.26,2.17,1.14,2.51,2.50,2.50
23.92,0.30,0.30,-2.19,-2.19,2.20,2.14,1.18,2.50,2.50,2.50
24.16,0.35,0.36,-2.14,-2.14,2.14,2.10,1.21,2.49,2.49,2.50
24.40,0.41,0.41,-2.08,-2.09,2.08,2.07,1.25,2.49,2.49,2.49
24.65,0.46,0.46,-2.03,-2.03,2.02,2.04,1.28,2.48,2.48,2.49
24.89,0.51,0.51,-1.98,-1.98,1.97,2.00,1.32,2.48,2.48,2.49
25.14,0.56,0.56,-1.93,-1.93,1.92,1.97,1.35,2.48,2.48,2.49
25.39,0.61,0.61,-1.88,-1.88,1.89,1.94,1.39,2.50,2.50,2.49
25.65,0.65,0.66,-1.84,-1.83,1.86,1.90,1.42,2.51,2.52,2.49
25.91,0.70,0.69,-1.80,-1.80,1.84,1.87,1.46,2.54,2.54,2.50
26.16,0.71,0.70,-1.79,-1.79,1.83,1.84,1.49,2.54,2.53,2.50
26.43,0.69,0.69,-1.81,-1.81,1.81,1.81,1.53,2.50,2.50,2.50
26.69,0.67,0.67,-1.82,-1.83,1.79,1.77,1.56,2.46,2.46,2.50
26.96,0.65,0.67,-1.84,-1.82,1.76,1.74,1.59,2.41,2.44,2.49
27.23,0.71,0.71,-1.78,-1.78,1.73,1.71,1.62,2.44,2.44,2.49
27.50,0.79,0.79,-1.70,-1.71,1.69,1.68,1.65,2.48,2.47,2.49
27.77,0.87,0.87,-1.62,-1.62,1.64,1.64,1.68,2.51,2.51,2.49
28.05,0.94,0.93,-1.55,-1.56,1.59,1.61,1.71,2.53,2.52,2.49
28.33,0.97,0.98,-1.51,-1.51,1.54,1.58,1.73,2.51,2.51,2.48
28.62,1.00,1.01,-1.48,-1.47,1.49,1.55,1.76,2.49,2.50,2.48
28.90,1.04,1.03,-1.43,-1.44,1.45,1.52,1.78,2.50,2.49,2.47
29.19,1.06,1.06,-1.41,-1.42,1.42,1.49,1.79,2.48,2.47,2.47
29.48,1.07,1.07,-1.40,-1.40,1.38,1.45,1.81,2.45,2.45,2.47
29.78,1.08,1.08,-1.39,-1.39,1.34,1.42,1.82,2.42,2.42,2.47
30.08,1.11,1.12,-1.36,-1.35,1.30,1.39,1.83,2.41,2.42,2.47
30.38,1.18,1.19,-1.29,-1.27,1.27,1.36,1.83,2.45,2.46,2.46
30.68,1.26,1.26,-1.19,-1.20,1.24,1.33,1.83,2.50,2.50,2.45
30.99,1.34,1.31,-1.11,-1.14,1.20,1.30,1.83,2.54,2.51,2.45
31.30,1.32,1.32,-1.12,-1.12,1.15,1.27,1.83,2.47,2.47,2.44
31.61,1.30,1.30,-1.14,-1.13,1.11,1.24,1.82,2.41,2.41,2.44
31.93,1.28,1.30,-1.15,-1.13,1.06,1.21,1.81,2.34,2.37,2.43
32.24,1.34,1.35,-1.08,-1.07,1.03,1.18,1.79,2.37,2.38,2.42
32.57,1.43,1.42,-0.99,-0.99,1.00,1.15,1.77,2.43,2.42,2.42
32.89,1.51,1.49,-0.91,-0.92,0.97,1.12,1.75,2.48,2.47,2.42
33.22,1.53,1.52,-0.88,-0.89,0.94,1.09,1.72,2.47,2.46,2.41
33.55,1.52,1.52,-0.89,-0.89,0.91,1.06,1.70,2.43,2.43,2.41
33.89,1.50,1.52,-0.92,-0.90,0.88,1.03,1.66,2.38,2.40,2.42
34.23,1.53,1.53,-0.88,-0.89,0.85,1.00,1.63,2.38,2.38,2.42
34.57,1.56,1.56,-0.85,-0.86,0.83,0.97,1.59,2.39,2.39,2.41
34.92,1.60,1.60,-0.82,-0.82,0.81,0.95,1.56,2.41,2.41,2.42
35.27,1.63,1.64,-0.79,-0.78,0.79,0.92,1.52,2.42,2.43,2.42
35.62,1.67,1.67,-0.75,-0.75,0.77,0.89,1.47,2.44,2.44,2.42
35.97,1.70,1.69,-0.72,-0.73,0.75,0.86,1.43,2.45,2.44,2.42
36.33,1.70,1.70,-0.71,-0.72,0.73,0.83,1.38,2.43,2.43,2.41
36.70,1.70,1.70,-0.71,-0.71,0.70,0.80,1.34,2.40,2.40,2.41
37.06,1.70,1.71,-0.71,-0.69,0.67,0.78,1.29,2.37,2.38,2.41
37.43,1.73,1.73,-0.66,-0.67,0.64,0.75,1.24,2.37,2.37,2.39
37.81,1.76,1.76,-0.63,-0.63,0.60,0.72,1.19,2.37,2.36,2.39
38.19,1.79,1.80,-0.58,-0.57,0.57,0.69,1.14,2.36,2.37,2.37
38.57,1.84,1.84,-0.52,-0.52,0.53,0.67,1.09,2.37,2.38,2.36
38.95,1.89,1.88,-0.45,-0.47,0.50,0.64,1.04,2.39,2.38,2.34
39.34,1.90,1.90,-0.43,-0.43,0.47,0.61,0.99,2.37,2.37,2.33
39.74,1.90,1.90,-0.42,-0.41,0.43,0.58,0.94,2.33,2.34,2.32
40.14,1.90,1.90,-0.41,-0.41,0.40,0.56,0.89,2.30,2.30,2.31
40.54,1.90,1.90,-0.39,-0.40,0.37,0.53,0.84,2.27,2.26,2.29
40.94,1.90,1.92,-0.39,-0.37,0.33,0.50,0.78,2.24,2.25,2.29
41.35,1.95,1.95,-0.33,-0.32,0.30,0.48,0.73,2.25,2.25,2.28
41.76,2.01,2.00,-0.25,-0.27,0.27,0.45,0.68,2.28,2.27,2.26
42.18,2.05,2.05,-0.21,-0.21,0.23,0.42,0.63,2.29,2.29,2.26
42.60,2.08,2.08,-0.18,-0.17,0.20,0.40,0.58,2.28,2.28,2.26
43.03,2.10,2.10,-0.15,-0.16,0.18,0.37,0.53,2.28,2.28,2.25
43.46,2.10,2.10,-0.15,-0.15,0.16,0.35,0.49,2.26,2.26,2.25
43.90,2.10,2.10,-0.15,-0.14,0.15,0.32,0.44,2.25,2.25,2.25
44.33,2.10,2.10,-0.14,-0.14,0.14,0.29,0.39,2.24,2.24,2.24
44.78,2.10,2.10,-0.13,-0.14,0.12,0.27,0.34,2.22,2.22,2.23
45.23,2.10,2.09,-0.13,-0.14,0.10,0.24,0.29,2.20,2.20,2.24
45.68,2.10,2.11,-0.13,-0.12,0.08,0.21,0.25,2.18,2.19,2.23
46.13,2.12,2.15,-0.10,-0.07,0.06,0.19,0.20,2.18,2.21,2.22
46.60,2.20,2.19,-0.01,-0.01,0.04,0.16,0.15,2.24,2.24,2.21
47.06,2.26,2.23,0.06,0.03,0.02,0.13,0.11,2.29,2.25,2.20
47.53,2.23,2.24,0.04,0.05,0.00,0.11,0.06,2.23,2.24,2.19
48.01,2.20,2.20,0.02,0.02,-0.03,0.08,0.02,2.17,2.17,2.18
48.49,2.17,2.17,0.01,0.00,-0.06,0.06,-0.03,2.11,2.11,2.16
48.97,2.14,2.18,-0.01,0.03,-0.08,0.03,-0.07,2.06,2.09,2.15
49.46,2.21,2.21,0.08,0.08,-0.11,0.00,-0.12,2.10,2.11,2.14
49.96,2.29,2.26,0.18,0.14,-0.13,-0.02,-0.16,2.16,2.13,2.11
50.46,2.30,2.30,0.20,0.20,-0.15,-0.05,-0.21,2.15,2.15,2.10
50.96,2.30,2.31,0.21,0.22,-0.18,-0.08,-0.25,2.12,2.13,2.09
51.47,2.30,2.30,0.22,0.23,-0.21,-0.11,-0.29,2.09,2.09,2.08
51.99,2.30,2.30,0.24,0.24,-0.24,-0.13,-0.33,2.06,2.06,2.06
52.51,2.30,2.30,0.25,0.25,-0.27,-0.16,-0.38,2.03,2.03,2.05
53.03,2.30,2.29,0.27,0.26,-0.30,-0.19,-0.42,2.00,2.00,2.03
53.56,2.30,2.31,0.28,0.29,-0.32,-0.22,-0.46,1.98,1.98,2.02
54.10,2.32,2.35,0.32,0.34,-0.35,-0.24,-0.50,1.97,1.99,2.00
54.64,2.40,2.39,0.41,0.40,-0.38,-0.27,-0.54,2.02,2.01,1.99
55.18,2.45,2.42,0.48,0.45,-0.42,-0.30,-0.58,2.04,2.01,1.97
55.74,2.42,2.43,0.47,0.47,-0.44,-0.33,-0.62,1.98,1.99,1.95
56.29,2.40,2.41,0.46,0.48,-0.47,-0.36,-0.65,1.93,1.94,1.94
56.86,2.40,2.40,0.48,0.48,-0.49,-0.39,-0.69,1.91,1.91,1.92
57.42,2.40,2.40,0.50,0.50,-0.51,-0.42,-0.73,1.89,1.89,1.90
58.00,2.40,2.40,0.51,0.51,-0.52,-0.44,-0.76,1.88,1.88,1.89
58.58,2.40,2.40,0.53,0.53,-0.53,-0.47,-0.80,1.87,1.87,1.87
59.16,2.40,2.40,0.55,0.55,-0.55,-0.51,-0.83,1.85,1.85,1.85
59.76,2.40,2.40,0.57,0.57,-0.57,-0.54,-0.87,1.83,1.83,1.83
60.35,2.40,2.40,0.59,0.59,-0.59,-0.57,-0.90,1.81,1.81,1.81
60.96,2.40,2.40,0.62,0.61,-0.62,-0.60,-0.93,1.78,1.78,1.78
61.57,2.40,2.40,0.64,0.64,-0.64,-0.63,-0.96,1.76,1.76,1.76
62.18,2.40,2.40,0.66,0.67,-0.67,-0.66,-0.99,1.73,1.73,1.74
62.80,2.40,2.40,0.70,0.69,-0.69,-0.69,-1.02,1.71,1.71,1.70
63.43,2.40,2.40,0.72,0.72,-0.72,-0.73,-1.05,1.68,1.68,1.68
64.07,2.40,2.40,0.75,0.75,-0.75,-0.76,-1.08,1.65,1.65,1.65
64.71,2.40,2.40,0.78,0.78,-0.78,-0.79,-1.10,1.62,1.62,1.62
65.35,2.40,2.40,0.81,0.81,-0.81,-0.83,-1.13,1.59,1.59,1.59
66.01,2.40,2.40,0.85,0.85,-0.85,-0.86,-1.16,1.55,1.55,1.55
66.67,2.40,2.40,0.88,0.88,-0.88,-0.90,-1.18,1.52,1.52,1.52
67.33,2.40,2.40,0.92,0.92,-0.92,-0.93,-1.21,1.48,1.48,1.48
68.01,2.40,2.40,0.95,0.95,-0.95,-0.97,-1.23,1.45,1.45,1.45
68.69,2.40,2.40,0.99,0.99,-0.99,-1.01,-1.26,1.41,1.41,1.41
69.37,2.40,2.40,1.02,1.03,-1.02,-1.04,-1.28,1.38,1.38,1.38
70.07,2.40,2.40,1.07,1.06,-1.06,-1.08,-1.30,1.34,1.34,1.34
70.77,2.40,2.40,1.10,1.10,-1.10,-1.12,-1.33,1.30,1.30,1.30
71.48,2.40,2.40,1.13,1.14,-1.14,-1.16,-1.35,1.26,1.26,1.27
72.19,2.40,2.40,1.18,1.18,-1.18,-1.20,-1.38,1.23,1.23,1.22
72.91,2.40,2.40,1.22,1.21,-1.21,-1.24,-1.40,1.19,1.19,1.19
73.64,2.40,2.40,1.25,1.25,-1.25,-1.28,-1.43,1.15,1.15,1.15
74.38,2.40,2.40,1.29,1.29,-1.29,-1.32,-1.45,1.11,1.11,1.11
75.12,2.40,2.40,1.34,1.33,-1.33,-1.36,-1.48,1.07,1.07,1.06
75.87,2.40,2.40,1.38,1.38,-1.38,-1.40,-1.51,1.03,1.03,1.02
76.63,2.40,2.40,1.42,1.42,-1.42,-1.44,-1.53,0.98,0.98,0.98
77.40,2.40,2.40,1.46,1.46,-1.46,-1.49,-1.56,0.94,0.94,0.94
78.17,2.40,2.40,1.50,1.50,-1.50,-1.53,-1.59,0.90,0.90,0.90
78.95,2.40,2.40,1.54,1.54,-1.54,-1.57,-1.62,0.86,0.86,0.86
79.74,2.40,2.40,1.59,1.59,-1.59,-1.62,-1.66,0.81,0.81,0.81
80.54,2.40,2.40,1.63,1.63,-1.63,-1.66,-1.69,0.77,0.77,0.77
81.35,2.40,2.40,1.68,1.68,-1.68,-1.71,-1.73,0.73,0.73,0.73
82.16,2.40,2.40,1.72,1.72,-1.72,-1.75,-1.76,0.68,0.68,0.68
82.98,2.40,2.40,1.77,1.77,-1.77,-1.80,-1.80,0.63,0.63,0.63
83.81,2.40,2.40,1.81,1.81,-1.82,-1.85,-1.84,0.59,0.59,0.59
84.65,2.40,2.40,1.86,1.87,-1.87,-1.89,-1.88,0.53,0.53,0.54
85.50,2.40,2.40,1.92,1.92,-1.92,-1.94,-1.92,0.48,0.48,0.48
86.35,2.40,2.40,1.97,1.97,-1.98,-1.99,-1.96,0.42,0.42,0.43
87.22,2.40,2.40,2.02,2.02,-2.03,-2.04,-2.01,0.37,0.37,0.38
88.09,2.40,2.42,2.07,2.09,-2.08,-2.09,-2.06,0.32,0.33,0.33
88.97,2.42,2.43,2.14,2.15,-2.13,-2.13,-2.10,0.29,0.30,0.28
89.86,2.46,2.42,2.24,2.20,-2.17,-2.18,-2.15,0.29,0.24,0.22
90.76,2.38,2.39,2.22,2.22,-2.21,-2.23,-2.21,0.17,0.18,0.17
91.66,2.32,2.35,2.22,2.24,-2.24,-2.28,-2.26,0.08,0.10,0.10
92.58,2.31,2.32,2.26,2.27,-2.27,-2.33,-2.31,0.04,0.04,0.05
93.51,2.31,2.30,2.32,2.31,-2.30,-2.38,-2.37,0.01,-0.01,-0.01
94.44,2.28,2.26,2.36,2.33,-2.34,-2.43,-2.43,-0.06,-0.08,-0.08
95.39,2.20,2.22,2.34,2.36,-2.37,-2.48,-2.49,-0.17,-0.16,-0.14
96.34,2.16,2.19,2.37,2.40,-2.42,-2.53,-2.55,-0.26,-0.23,-0.21
97.30,2.19,2.18,2.47,2.45,-2.47,-2.58,-2.61,-0.28,-0.29,-0.28
98.28,2.19,2.18,2.54,2.53,-2.53,-2.63,-2.67,-0.34,-0.34,-0.35
99.26,2.18,2.18,2.60,2.60,-2.59,-2.68,-2.73,-0.41,-0.41,-0.42
100.25,2.16,2.16,2.66,2.66,-2.66,-2.73,-2.80,-0.49,-0.49,-0.50
101.25,2.14,2.15,2.72,2.72,-2.72,-2.78,-2.86,-0.58,-0.58,-0.57
102.27,2.13,2.13,2.78,2.78,-2.79,-2.83,-2.93,-0.66,-0.66,-0.65
103.29,2.12,2.12,2.85,2.84,-2.86,-2.88,-3.00,-0.73,-0.74,-0.73
104.32,2.10,2.11,2.90,2.92,-2.91,-2.93,-3.06,-0.81,-0.79,-0.80
105.37,2.09,2.09,2.97,2.98,-2.95,-2.98,-3.13,-0.86,-0.86,-0.88
106.42,2.08,2.05,3.05,3.01,-2.98,-3.03,-3.19,-0.90,-0.94,-0.97
107.48,1.98,1.99,3.02,3.03,-3.01,-3.07,-3.26,-1.03,-1.02,-1.04
108.56,1.90,1.93,3.01,3.05,-3.03,-3.12,-3.32,-1.13,-1.10,-1.11
109.64,1.88,1.86,3.07,3.04,-3.05,-3.17,-3.39,-1.17,-1.19,-1.18
110.74,1.82,1.79,3.08,3.05,-3.07,-3.22,-3.45,-1.25,-1.28,-1.26
111.85,1.70,1.74,3.03,3.07,-3.09,-3.26,-3.51,-1.39,-1.35,-1.33
112.97,1.69,1.70,3.08,3.10,-3.13,-3.31,-3.56,-1.44,-1.43,-1.39
114.10,1.72,1.70,3.18,3.16,-3.18,-3.35,-3.62,-1.46,-1.49,-1.46
115.24,1.72,1.72,3.24,3.24,-3.25,-3.40,-3.67,-1.53,-1.53,-1.52
116.39,1.72,1.72,3.31,3.31,-3.31,-3.44,-3.72,-1.59,-1.59,-1.59
117.55,1.73,1.73,3.37,3.37,-3.37,-3.48,-3.76,-1.64,-1.64,-1.64
118.73,1.73,1.76,3.43,3.46,-3.42,-3.53,-3.81,-1.69,-1.67,-1.70
119.92,1.78,1.77,3.54,3.53,-3.47,-3.57,-3.84,-1.69,-1.69,-1.76
121.12,1.79,1.75,3.60,3.56,-3.50,-3.61,-3.88,-1.71,-1.75,-1.81
122.33,1.69,1.68,3.55,3.54,-3.53,-3.65,-3.90,-1.84,-1.85,-1.86
123.55,1.57,1.60,3.48,3.51,-3.55,-3.69,-3.93,-1.98,-1.95,-1.91
124.79,1.51,1.55,3.48,3.51,-3.58,-3.72,-3.95,-2.07,-2.03,-1.97
126.03,1.57,1.55,3.59,3.56,-3.62,-3.76,-3.96,-2.05,-2.07,-2.02
127.29,1.58,1.57,3.65,3.64,-3.66,-3.80,-3.97,-2.08,-2.09,-2.07
128.57,1.59,1.59,3.71,3.70,-3.71,-3.83,-3.98,-2.12,-2.12,-2.12
129.85,1.59,1.59,3.75,3.76,-3.76,-3.87,-3.98,-2.16,-2.16,-2.16
131.15,1.60,1.62,3.81,3.83,-3.80,-3.90,-3.98,-2.20,-2.18,-2.21
132.46,1.64,1.65,3.90,3.91,-3.83,-3.93,-3.97,-2.19,-2.19,-2.26
133.79,1.67,1.62,3.98,3.93,-3.86,-3.96,-3.96,-2.19,-2.24,-2.31
135.12,1.57,1.55,3.92,3.90,-3.88,-3.99,-3.95,-2.31,-2.33,-2.35
136.48,1.41,1.46,3.81,3.86,-3.91,-4.02,-3.93,-2.50,-2.45,-2.40
137.84,1.38,1.40,3.82,3.84,-3.93,-4.05,-3.91,-2.55,-2.53,-2.44
139.22,1.41,1.39,3.91,3.88,-3.95,-4.08,-3.89,-2.54,-2.57,-2.49
140.61,1.42,1.42,3.96,3.96,-3.97,-4.10,-3.87,-2.55,-2.55,-2.54
142.02,1.42,1.44,4.01,4.04,-3.98,-4.13,-3.85,-2.56,-2.54,-2.59
143.44,1.46,1.45,4.10,4.09,-4.00,-4.15,-3.82,-2.54,-2.55,-2.64
144.87,1.44,1.41,4.13,4.10,-4.03,-4.17,-3.79,-2.59,-2.62,-2.69
146.32,1.34,1.33,4.07,4.07,-4.05,-4.19,-3.76,-2.71,-2.72,-2.73
147.78,1.21,1.25,3.99,4.03,-4.08,-4.21,-3.74,-2.87,-2.83,-2.78
149.26,1.19,1.20,4.02,4.03,-4.11,-4.23,-3.71,-2.92,-2.91,-2.83
150.75,1.21,1.19,4.09,4.07,-4.13,-4.25,-3.68,-2.92,-2.94,-2.87
152.26,1.22,1.21,4.14,4.13,-4.15,-4.26,-3.65,-2.93,-2.93,-2.92
153.78,1.22,1.25,4.18,4.20,-4.17,-4.28,-3.63,-2.95,-2.92,-2.96
155.32,1.25,1.25,4.25,4.26,-4.18,-4.29,-3.60,-2.93,-2.93,-3.00
156.88,1.28,1.23,4.33,4.28,-4.21,-4.31,-3.58,-2.93,-2.97,-3.05
158.44,1.16,1.17,4.25,4.26,-4.23,-4.32,-3.56,-3.07,-3.06,-3.09
160.03,1.08,1.08,4.21,4.22,-4.25,-4.33,-3.54,-3.17,-3.17,-3.13
161.63,0.98,1.01,4.16,4.19,-4.27,-4.34,-3.52,-3.29,-3.26,-3.18
163.24,1.00,0.99,4.22,4.21,-4.29,-4.35,-3.51,-3.28,-3.29,-3.22
164.88,1.01,1.00,4.27,4.26,-4.29,-4.35,-3.49,-3.28,-3.29,-3.26
166.53,1.01,1.04,4.31,4.34,-4.29,-4.36,-3.48,-3.28,-3.25,-3.30
168.19,1.04,1.04,4.38,4.38,-4.29,-4.36,-3.47,-3.25,-3.25,-3.34
169.87,1.06,1.00,4.44,4.38,-4.30,-4.37,-3.47,-3.24,-3.31,-3.38
171.57,0.90,0.91,4.32,4.32,-4.32,-4.37,-3.46,-3.42,-3.41,-3.41
173.29,0.77,0.81,4.22,4.25,-4.32,-4.37,-3.46,-3.55,-3.52,-3.45
175.02,0.73,0.75,4.21,4.23,-4.32,-4.38,-3.47,-3.59,-3.56,-3.48
176.77,0.77,0.77,4.28,4.28,-4.30,-4.38,-3.47,-3.53,-3.54,-3.51
178.54,0.82,0.78,4.37,4.32,-4.29,-4.37,-3.48,-3.47,-3.50,-3.54
180.32,0.78,0.78,4.35,4.35,-4.28,-4.37,-3.49,-3.50,-3.50,-3.57
182.13,0.71,0.73,4.30,4.32,-4.28,-4.37,-3.50,-3.57,-3.55,-3.59
183.95,0.69,0.66,4.30,4.27,-4.30,-4.37,-3.51,-3.61,-3.64,-3.61
185.79,0.60,0.61,4.23,4.25,-4.31,-4.36,-3.53,-3.71,-3.70,-3.63
187.65,0.57,0.60,4.23,4.26,-4.32,-4.36,-3.55,-3.74,-3.71,-3.65
189.52,0.62,0.62,4.30,4.30,-4.31,-4.35,-3.57,-3.69,-3.68,-3.67
191.42,0.68,0.66,4.36,4.35,-4.30,-4.34,-3.60,-3.62,-3.64,-3.68
193.33,0.69,0.67,4.39,4.37,-4.30,-4.33,-3.63,-3.61,-3.63,-3.70
195.27,0.62,0.63,4.34,4.35,-4.31,-4.32,-3.66,-3.69,-3.68,-3.72
197.22,0.56,0.55,4.30,4.29,-4.32,-4.31,-3.69,-3.76,-3.77,-3.74
199.19,0.48,0.49,4.24,4.25,-4.32,-4.30,-3.72,-3.84,-3.83,-3.76
201.18,0.45,0.49,4.22,4.26,-4.31,-4.29,-3.76,-3.86,-3.82,-3.77
203.19,0.51,0.50,4.30,4.29,-4.29,-4.28,-3.79,-3.78,-3.79,-3.79
205.23,0.56,0.51,4.37,4.32,-4.27,-4.27,-3.83,-3.71,-3.76,-3.80
207.28,0.48,0.50,4.30,4.32,-4.26,-4.25,-3.87,-3.78,-3.76,-3.82
209.35,0.42,0.43,4.25,4.27,-4.25,-4.24,-3.91,-3.83,-3.82,-3.83
211.44,0.39,0.35,4.25,4.20,-4.25,-4.22,-3.95,-3.86,-3.90,-3.86
213.56,0.27,0.31,4.14,4.19,-4.23,-4.21,-3.98,-3.96,-3.92,-3.87
215.69,0.26,0.30,4.16,4.19,-4.21,-4.19,-4.02,-3.95,-3.91,-3.90
217.85,0.34,0.28,4.25,4.19,-4.18,-4.18,-4.06,-3.84,-3.90,-3.91
220.03,0.28,0.28,4.21,4.21,-4.16,-4.16,-4.10,-3.88,-3.87,-3.93
222.23,0.21,0.24,4.15,4.18,-4.14,-4.14,-4.13,-3.93,-3.90,-3.94
224.45,0.19,0.15,4.14,4.11,-4.13,-4.12,-4.17,-3.94,-3.98,-3.95
226.70,0.09,0.10,4.06,4.07,-4.12,-4.10,-4.20,-4.02,-4.01,-3.96
228.96,0.04,0.10,4.02,4.07,-4.10,-4.08,-4.23,-4.06,-4.00,-3.98
231.25,0.12,0.09,4.10,4.07,-4.08,-4.06,-4.26,-3.95,-3.98,-3.98
233.57,0.15,0.10,4.14,4.09,-4.06,-4.04,-4.28,-3.90,-3.95,-3.99
235.90,0.04,0.08,4.04,4.08,-4.04,-4.02,-4.30,-4.00,-3.95,-4.00
238.26,0.04,0.03,4.04,4.02,-4.03,-4.00,-4.31,-3.99,-4.00,-4.00
240.64,-0.01,-0.00,3.98,3.99,-4.02,-3.97,-4.32,-4.03,-4.02,-3.99
243.05,-0.03,-0.00,3.96,3.99,-4.00,-3.95,-4.33,-4.03,-4.00,-3.99
245.48,0.03,-0.02,4.02,3.98,-3.99,-3.93,-4.33,-3.96,-4.00,-3.99
247.93,-0.03,-0.02,3.96,3.97,-3.96,-3.91,-4.33,-3.99,-3.99,-3.99
250.41,-0.06,-0.03,3.93,3.95,-3.94,-3.88,-4.32,-4.00,-3.97,-3.99
252.92,-0.05,-0.06,3.94,3.93,-3.92,-3.86,-4.31,-3.97,-3.97,-3.98
255.45,-0.06,-0.08,3.93,3.91,-3.90,-3.83,-4.29,-3.96,-3.97,-3.99
258.00,-0.11,-0.11,3.88,3.88,-3.88,-3.81,-4.27,-3.99,-3.99,-3.99
260.58,-0.17,-0.16,3.83,3.84,-3.86,-3.78,-4.24,-4.03,-4.02,-4.00
263.19,-0.21,-0.20,3.79,3.80,-3.83,-3.76,-4.21,-4.04,-4.04,-4.00
265.82,-0.22,-0.22,3.80,3.80,-3.81,-3.73,-4.17,-4.03,-4.02,-4.02
268.48,-0.23,-0.23,3.80,3.80,-3.78,-3.70,-4.13,-4.01,-4.01,-4.03
271.16,-0.23,-0.25,3.81,3.79,-3.76,-3.68,-4.09,-3.99,-4.01,-4.04
273.87,-0.30,-0.30,3.75,3.75,-3.74,-3.65,-4.04,-4.04,-4.04,-4.05
276.61,-0.36,-0.36,3.70,3.70,-3.71,-3.62,-3.99,-4.07,-4.07,-4.06
279.38,-0.43,-0.41,3.65,3.67,-3.69,-3.60,-3.93,-4.12,-4.09,-4.08
282.17,-0.43,-0.43,3.65,3.65,-3.66,-3.57,-3.88,-4.08,-4.09,-4.08
284.99,-0.43,-0.44,3.66,3.64,-3.62,-3.54,-3.82,-4.05,-4.07,-4.09
287.84,-0.47,-0.47,3.61,3.61,-3.60,-3.51,-3.76,-4.06,-4.07,-4.08
290.72,-0.51,-0.52,3.58,3.56,-3.57,-3.49,-3.70,-4.08,-4.10,-4.09
293.63,-0.59,-0.56,3.50,3.52,-3.55,-3.46,-3.64,-4.14,-4.12,-4.09
296.57,-0.59,-0.58,3.50,3.51,-3.53,-3.43,-3.58,-4.12,-4.11,-4.09
299.53,-0.57,-0.58,3.51,3.51,-3.51,-3.40,-3.52,-4.08,-4.09,-4.08
302.53,-0.56,-0.57,3.52,3.51,-3.49,-3.37,-3.45,-4.05,-4.05,-4.08
305.55,-0.58,-0.59,3.50,3.49,-3.46,-3.34,-3.39,-4.04,-4.05,-4.08
308.61,-0.63,-0.63,3.45,3.45,-3.44,-3.31,-3.33,-4.07,-4.07,-4.08
311.69,-0.69,-0.68,3.39,3.41,-3.41,-3.29,-3.27,-4.10,-4.09,-4.08
314.81,-0.72,-0.71,3.37,3.38,-3.39,-3.26,-3.21,-4.11,-4.09,-4.09
317.96,-0.73,-0.75,3.36,3.35,-3.36,-3.23,-3.15,-4.09,-4.10,-4.09
321.14,-0.75,-0.78,3.34,3.31,-3.32,-3.20,-3.09,-4.07,-4.10,-4.09
324.35,-0.86,-0.81,3.23,3.28,-3.28,-3.17,-3.04,-4.14,-4.09,-4.09
327.59,-0.83,-0.85,3.26,3.24,-3.24,-3.14,-2.98,-4.07,-4.09,-4.09
330.87,-0.86,-0.87,3.23,3.22,-3.20,-3.11,-2.93,-4.06,-4.07,-4.09
334.18,-0.92,-0.90,3.18,3.19,-3.17,-3.08,-2.88,-4.09,-4.08,-4.10
337.52,-0.94,-0.98,3.16,3.12,-3.14,-3.05,-2.83,-4.08,-4.12,-4.10
340.90,-1.05,-1.03,3.05,3.07,-3.11,-3.02,-2.78,-4.16,-4.14,-4.10
344.30,-1.09,-1.04,3.00,3.06,-3.07,-2.99,-2.74,-4.16,-4.11,-4.09
347.75,-1.02,-1.05,3.07,3.05,-3.03,-2.97,-2.70,-4.05,-4.08,-4.09
351.23,-1.00,-1.04,3.10,3.05,-3.00,-2.94,-2.65,-3.99,-4.04,-4.10
354.74,-1.10,-1.07,2.98,3.02,-2.96,-2.91,-2.61,-4.06,-4.03,-4.08
358.28,-1.13,-1.15,2.95,2.93,-2.94,-2.88,-2.58,-4.07,-4.09,-4.08
361.87,-1.21,-1.21,2.86,2.86,-2.92,-2.85,-2.54,-4.13,-4.14,-4.07
365.49,-1.27,-1.24,2.80,2.83,-2.90,-2.82,-2.51,-4.17,-4.13,-4.07
369.14,-1.23,-1.22,2.84,2.84,-2.86,-2.79,-2.48,-4.09,-4.08,-4.07
372.83,-1.18,-1.19,2.87,2.87,-2.83,-2.76,-2.45,-4.00,-4.01,-4.05
376.56,-1.14,-1.18,2.91,2.87,-2.80,-2.74,-2.42,-3.93,-3.97,-4.05
380.33,-1.24,-1.23,2.81,2.82,-2.78,-2.71,-2.39,-4.02,-4.01,-4.05
384.13,-1.31,-1.31,2.75,2.74,-2.77,-2.68,-2.37,-4.07,-4.08,-4.05
387.97,-1.41,-1.38,2.65,2.67,-2.75,-2.65,-2.35,-4.16,-4.13,-4.06
391.85,-1.41,-1.39,2.64,2.66,-2.72,-2.62,-2.33,-4.13,-4.11,-4.05
395.77,-1.37,-1.38,2.69,2.68,-2.68,-2.60,-2.31,-4.04,-4.05,-4.06
399.73,-1.33,-1.36,2.73,2.70,-2.63,-2.57,-2.29,-3.96,-3.99,-4.06
403.72,-1.39,-1.39,2.67,2.68,-2.60,-2.54,-2.28,-3.99,-3.99,-4.06
407.76,-1.46,-1.48,2.62,2.60,-2.59,-2.51,-2.26,-4.05,-4.06,-4.08
411.84,-1.59,-1.57,2.50,2.52,-2.57,-2.49,-2.25,-4.16,-4.14,-4.08
415.96,-1.65,-1.62,2.44,2.47,-2.55,-2.46,-2.24,-4.20,-4.17,-4.09
420.12,-1.62,-1.63,2.48,2.46,-2.51,-2.43,-2.23,-4.13,-4.14,-4.10
424.32,-1.59,-1.57,2.50,2.51,-2.47,-2.41,-2.22,-4.06,-4.05,-4.09
428.56,-1.54,-1.55,2.54,2.53,-2.44,-2.38,-2.21,-3.98,-3.99,-4.08
432.85,-1.53,-1.59,2.53,2.47,-2.41,-2.35,-2.20,-3.94,-4.01,-4.06
437.18,-1.69,-1.65,2.36,2.39,-2.40,-2.33,-2.19,-4.09,-4.05,-4.05
441.55,-1.74,-1.69,2.27,2.32,-2.38,-2.30,-2.18,-4.12,-4.07,-4.01
445.96,-1.67,-1.68,2.30,2.29,-2.36,-2.28,-2.18,-4.03,-4.04,-3.97
450.42,-1.60,-1.61,2.32,2.32,-2.33,-2.25,-2.17,-3.93,-3.94,-3.92
454.93,-1.54,-1.53,2.34,2.34,-2.31,-2.23,-2.16,-3.85,-3.84,-3.88
459.48,-1.48,-1.51,2.34,2.31,-2.29,-2.20,-2.16,-3.77,-3.80,-3.82
464.07,-1.47,-1.47,2.30,2.30,-2.28,-2.18,-2.15,-3.75,-3.75,-3.77
468.71,-1.49,-1.43,2.23,2.28,-2.27,-2.15,-2.14,-3.76,-3.70,-3.72
473.40,-1.36,-1.41,2.30,2.25,-2.25,-2.13,-2.14,-3.61,-3.66,-3.66
478.13,-1.37,-1.38,2.23,2.22,-2.23,-2.11,-2.13,-3.59,-3.61,-3.60
482.91,-1.39,-1.36,2.16,2.19,-2.19,-2.08,-2.12,-3.58,-3.55,-3.55
487.74,-1.36,-1.35,2.15,2.16,-2.16,-2.06,-2.11,-3.52,-3.51,-3.51
492.62,-1.33,-1.34,2.14,2.13,-2.13,-2.04,-2.10,-3.45,-3.47,-3.47
497.55,-1.31,-1.34,2.12,2.09,-2.09,-2.02,-2.09,-3.40,-3.44,-3.43
