frequency,raw,smoothed,error,error_smoothed,equalization,parametric_eq,fixed_band_eq,equalized_raw,equalized_smoothed,target
20.00,-7.22,-7.21,-8.33,-8.32,6.00,7.22,1.79,-1.22,-1.21,1.11
20.20,-7.12,-7.12,-8.28,-8.29,6.00,7.14,1.85,-1.12,-1.12,1.16
20.40,-7.03,-7.03,-8.24,-8.24,6.00,7.06,1.90,-1.03,-1.03,1.21
20.61,-6.93,-6.93,-8.17,-8.18,6.00,6.97,1.96,-0.93,-0.93,1.24
20.81,-6.84,-6.84,-8.13,-8.13,6.00,6.89,2.02,-0.84,-0.84,1.29
21.02,-6.74,-6.73,-8.07,-8.05,6.00,6.81,2.08,-0.74,-0.73,1.33
21.23,-6.61,-6.61,-7.96,-7.97,6.00,6.72,2.14,-0.61,-0.61,1.35
21.44,-6.49,-6.49,-7.86,-7.86,6.00,6.64,2.21,-0.49,-0.49,1.37
21.66,-6.36,-6.36,-7.75,-7.74,6.00,6.56,2.27,-0.36,-0.36,1.39
21.87,-6.23,-6.23,-7.62,-7.63,6.00,6.47,2.34,-0.23,-0.23,1.40
22.09,-6.11,-6.11,-7.52,-7.53,6.00,6.39,2.41,-0.11,-0.11,1.42
22.31,-6.01,-6.00,-7.43,-7.43,6.00,6.30,2.49,-0.01,-0.00,1.43
22.54,-5.90,-5.90,-7.33,-7.33,6.00,6.22,2.56,0.10,0.10,1.43
22.76,-5.79,-5.79,-7.21,-7.22,6.00,6.13,2.64,0.21,0.21,1.42
22.99,-5.68,-5.67,-7.09,-7.08,6.00,6.05,2.71,0.32,0.33,1.41
23.22,-5.53,-5.53,-6.94,-6.94,6.00,5.96,2.79,0.47,0.47,1.41
23.45,-5.37,-5.36,-6.78,-6.78,6.00,5.88,2.88,0.63,0.64,1.41
23.69,-5.21,-5.20,-6.63,-6.62,6.00,5.79,2.96,0.79,0.80,1.42
23.92,-5.05,-5.07,-6.47,-6.50,6.01,5.71,3.04,0.96,0.94,1.42
24.16,-4.98,-4.99,-6.41,-6.42,6.02,5.62,3.13,1.04,1.03,1.43
24.40,-4.96,-4.95,-6.40,-6.38,6.03,5.54,3.22,1.07,1.07,1.44
24.65,-4.93,-4.93,-6.36,-6.37,6.01,5.45,3.31,1.08,1.08,1.43
24.89,-4.90,-4.88,-6.32,-6.31,5.98,5.37,3.39,1.09,1.10,1.43
25.14,-4.79,-4.77,-6.21,-6.20,5.94,5.28,3.48,1.16,1.17,1.43
25.39,-4.61,-4.61,-6.04,-6.04,5.89,5.19,3.57,1.29,1.29,1.44
25.65,-4.43,-4.42,-5.86,-5.86,5.84,5.11,3.66,1.41,1.42,1.43
25.91,-4.25,-4.28,-5.68,-5.70,5.78,5.02,3.76,1.53,1.51,1.42
26.16,-4.17,-4.18,-5.59,-5.60,5.71,4.94,3.84,1.54,1.53,1.42
26.43,-4.15,-4.14,-5.57,-5.57,5.63,4.85,3.93,1.48,1.48,1.42
26.69,-4.12,-4.12,-5.54,-5.55,5.53,4.76,4.02,1.41,1.40,1.42
26.96,-4.10,-4.07,-5.53,-5.49,5.42,4.68,4.11,1.32,1.35,1.43
27.23,-3.96,-3.96,-5.39,-5.38,5.30,4.59,4.19,1.34,1.34,1.43
27.50,-3.79,-3.80,-5.22,-5.23,5.18,4.51,4.27,1.39,1.37,1.43
27.77,-3.63,-3.63,-5.04,-5.04,5.04,4.42,4.34,1.42,1.42,1.41
28.05,-3.46,-3.47,-4.87,-4.87,4.90,4.33,4.42,1.44,1.44,1.41
28.33,-3.32,-3.31,-4.72,-4.72,4.76,4.25,4.48,1.44,1.45,1.40
28.62,-3.17,-3.16,-4.57,-4.57,4.62,4.16,4.54,1.45,1.46,1.40
28.90,-3.03,-3.04,-4.44,-4.45,4.49,4.08,4.60,1.47,1.45,1.41
29.19,-2.94,-2.95,-4.34,-4.35,4.38,3.99,4.65,1.44,1.43,1.40
29.48,-2.88,-2.88,-4.29,-4.29,4.28,3.90,4.69,1.40,1.40,1.42
29.78,-2.82,-2.81,-4.22,-4.22,4.17,3.82,4.72,1.36,1.36,1.40
30.08,-2.74,-2.72,-4.15,-4.13,4.08,3.73,4.75,1.34,1.35,1.41
30.38,-2.60,-2.60,-4.00,-4.00,3.97,3.65,4.77,1.37,1.37,1.40
30.68,-2.46,-2.47,-3.86,-3.87,3.87,3.56,4.77,1.41,1.40,1.40
30.99,-2.33,-2.34,-3.73,-3.73,3.76,3.48,4.78,1.43,1.42,1.40
31.30,-2.23,-2.23,-3.62,-3.62,3.64,3.39,4.77,1.41,1.42,1.39
31.61,-2.13,-2.13,-3.52,-3.52,3.53,3.30,4.75,1.40,1.40,1.39
31.93,-2.03,-2.03,-3.42,-3.42,3.42,3.22,4.72,1.39,1.39,1.39
32.24,-1.94,-1.93,-3.31,-3.32,3.32,3.14,4.68,1.38,1.39,1.38
32.57,-1.84,-1.84,-3.22,-3.22,3.23,3.05,4.64,1.39,1.40,1.38
32.89,-1.74,-1.75,-3.12,-3.12,3.14,2.97,4.58,1.40,1.39,1.38
33.22,-1.67,-1.68,-3.04,-3.05,3.05,2.88,4.52,1.38,1.37,1.37
33.55,-1.61,-1.61,-2.97,-2.97,2.95,2.80,4.45,1.34,1.34,1.37
33.89,-1.55,-1.53,-2.90,-2.89,2.85,2.71,4.37,1.30,1.32,1.35
34.23,-1.43,-1.42,-2.79,-2.77,2.76,2.63,4.29,1.33,1.34,1.36
34.57,-1.28,-1.28,-2.63,-2.63,2.65,2.55,4.20,1.37,1.37,1.35
34.92,-1.13,-1.15,-2.47,-2.50,2.53,2.47,4.11,1.40,1.38,1.34
35.27,-1.05,-1.06,-2.39,-2.40,2.41,2.38,4.01,1.36,1.34,1.34
35.62,-0.99,-0.99,-2.33,-2.33,2.28,2.30,3.90,1.29,1.29,1.34
35.97,-0.93,-0.89,-2.26,-2.22,2.16,2.22,3.79,1.23,1.27,1.33
36.33,-0.75,-0.73,-2.09,-2.06,2.06,2.14,3.68,1.31,1.33,1.34
36.70,-0.55,-0.56,-1.88,-1.89,1.97,2.06,3.57,1.42,1.40,1.33
37.06,-0.39,-0.45,-1.71,-1.78,1.88,1.98,3.45,1.49,1.43,1.32
37.43,-0.42,-0.42,-1.76,-1.75,1.79,1.90,3.34,1.38,1.38,1.34
37.81,-0.45,-0.41,-1.78,-1.74,1.71,1.82,3.22,1.26,1.30,1.33
38.19,-0.40,-0.38,-1.73,-1.71,1.63,1.74,3.10,1.23,1.25,1.33
38.57,-0.27,-0.28,-1.60,-1.61,1.55,1.66,2.98,1.28,1.27,1.33
38.95,-0.14,-0.15,-1.48,-1.49,1.48,1.58,2.86,1.34,1.32,1.34
39.34,-0.04,-0.03,-1.37,-1.37,1.40,1.50,2.73,1.36,1.36,1.33
39.74,0.06,0.06,-1.27,-1.27,1.30,1.43,2.61,1.36,1.36,1.33
40.14,0.15,0.14,-1.18,-1.19,1.20,1.35,2.49,1.35,1.34,1.33
40.54,0.22,0.22,-1.11,-1.10,1.09,1.28,2.37,1.31,1.32,1.33
40.94,0.30,0.31,-1.02,-1.01,1.00,1.20,2.25,1.30,1.31,1.32
41.35,0.40,0.41,-0.91,-0.91,0.91,1.13,2.13,1.32,1.32,1.32
41.76,0.51,0.50,-0.80,-0.81,0.83,1.05,2.02,1.35,1.34,1.31
42.18,0.59,0.58,-0.72,-0.72,0.75,0.98,1.90,1.34,1.33,1.31
42.60,0.64,0.64,-0.65,-0.66,0.66,0.91,1.78,1.30,1.30,1.30
43.03,0.68,0.69,-0.61,-0.60,0.57,0.84,1.67,1.25,1.26,1.29
43.46,0.74,0.74,-0.54,-0.54,0.48,0.77,1.56,1.23,1.22,1.28
43.90,0.81,0.83,-0.44,-0.43,0.41,0.70,1.44,1.22,1.24,1.25
44.33,0.92,0.94,-0.31,-0.30,0.34,0.63,1.33,1.26,1.27,1.24
44.78,1.06,1.03,-0.16,-0.19,0.26,0.56,1.22,1.32,1.29,1.22
45.23,1.10,1.07,-0.11,-0.14,0.18,0.49,1.11,1.28,1.25,1.21
45.68,1.06,1.08,-0.13,-0.11,0.10,0.42,1.00,1.16,1.18,1.19
46.13,1.06,1.10,-0.11,-0.08,0.02,0.36,0.90,1.08,1.12,1.17
46.60,1.18,1.17,0.01,0.01,-0.07,0.29,0.79,1.11,1.10,1.17
47.06,1.29,1.28,0.14,0.12,-0.15,0.23,0.69,1.14,1.13,1.15
47.53,1.39,1.39,0.25,0.24,-0.23,0.16,0.58,1.16,1.16,1.14
48.01,1.48,1.47,0.34,0.34,-0.30,0.10,0.48,1.18,1.17,1.14
48.49,1.53,1.53,0.41,0.41,-0.37,0.04,0.38,1.16,1.16,1.12
48.97,1.58,1.60,0.48,0.49,-0.44,-0.02,0.28,1.14,1.15,1.10
49.46,1.63,1.64,0.55,0.56,-0.52,-0.08,0.18,1.12,1.12,1.08
49.96,1.68,1.63,0.62,0.56,-0.58,-0.14,0.08,1.10,1.04,1.06
50.46,1.62,1.61,0.57,0.56,-0.64,-0.20,-0.02,0.98,0.97,1.06
50.96,1.56,1.66,0.52,0.63,-0.70,-0.26,-0.12,0.86,0.96,1.04
51.47,1.75,1.76,0.73,0.73,-0.76,-0.32,-0.21,0.99,1.00,1.02
51.99,1.96,1.88,0.95,0.86,-0.81,-0.37,-0.30,1.15,1.06,1.01
52.51,1.95,1.96,0.95,0.96,-0.86,-0.43,-0.40,1.09,1.10,1.00
53.03,1.94,1.94,0.94,0.95,-0.91,-0.48,-0.49,1.03,1.03,1.00
53.56,1.91,1.92,0.93,0.94,-0.96,-0.53,-0.58,0.95,0.96,0.98
54.10,1.90,1.96,0.93,0.99,-1.01,-0.59,-0.66,0.89,0.96,0.97
54.64,2.03,1.99,1.08,1.03,-1.04,-0.64,-0.75,0.99,0.95,0.95
55.18,2.07,1.98,1.12,1.04,-1.06,-0.69,-0.83,1.01,0.92,0.95
55.74,1.92,2.01,0.99,1.08,-1.08,-0.74,-0.92,0.84,0.93,0.93
56.29,1.96,2.04,1.04,1.12,-1.11,-0.79,-1.00,0.86,0.94,0.92
56.86,2.18,2.07,1.28,1.17,-1.15,-0.84,-1.08,1.03,0.92,0.90
57.42,2.15,2.11,1.28,1.23,-1.21,-0.89,-1.15,0.94,0.91,0.87
58.00,2.04,2.12,1.18,1.25,-1.27,-0.93,-1.23,0.77,0.85,0.87
58.58,2.11,2.12,1.26,1.27,-1.34,-0.98,-1.30,0.77,0.78,0.86
59.16,2.20,2.20,1.37,1.36,-1.42,-1.02,-1.37,0.78,0.78,0.84
59.76,2.33,2.33,1.52,1.52,-1.50,-1.07,-1.43,0.83,0.83,0.81
60.35,2.42,2.42,1.65,1.64,-1.58,-1.11,-1.49,0.84,0.83,0.77
60.96,2.49,2.45,1.75,1.71,-1.66,-1.15,-1.55,0.83,0.79,0.74
61.57,2.45,2.48,1.75,1.78,-1.76,-1.20,-1.61,0.70,0.72,0.70
62.18,2.45,2.50,1.80,1.85,-1.86,-1.24,-1.67,0.60,0.64,0.65
62.80,2.56,2.50,1.95,1.89,-1.95,-1.28,-1.72,0.61,0.54,0.61
63.43,2.54,2.53,1.98,1.97,-2.03,-1.31,-1.77,0.51,0.50,0.56
64.07,2.50,2.59,1.98,2.07,-2.10,-1.35,-1.82,0.40,0.49,0.52
64.71,2.68,2.65,2.21,2.18,-2.15,-1.39,-1.86,0.53,0.50,0.47
65.35,2.74,2.70,2.31,2.27,-2.21,-1.42,-1.90,0.54,0.50,0.43
66.01,2.71,2.70,2.33,2.31,-2.24,-1.45,-1.94,0.47,0.46,0.39
66.67,2.59,2.61,2.26,2.27,-2.26,-1.48,-1.98,0.33,0.35,0.34
67.33,2.49,2.51,2.20,2.22,-2.26,-1.51,-2.02,0.23,0.25,0.29
68.01,2.42,2.43,2.18,2.19,-2.23,-1.53,-2.05,0.19,0.21,0.25
68.69,2.38,2.37,2.19,2.17,-2.18,-1.55,-2.09,0.20,0.19,0.20
69.37,2.28,2.27,2.14,2.12,-2.11,-1.57,-2.12,0.17,0.16,0.14
70.07,2.14,2.14,2.05,2.04,-2.04,-1.58,-2.15,0.11,0.10,0.09
70.77,1.96,1.98,1.92,1.94,-1.95,-1.59,-2.18,0.02,0.03,0.05
71.48,1.81,1.82,1.82,1.83,-1.84,-1.59,-2.21,-0.03,-0.02,-0.01
72.19,1.66,1.65,1.73,1.72,-1.71,-1.59,-2.24,-0.04,-0.06,-0.07
72.91,1.46,1.47,1.59,1.60,-1.55,-1.57,-2.27,-0.09,-0.08,-0.13
73.64,1.26,1.25,1.45,1.44,-1.37,-1.55,-2.30,-0.11,-0.12,-0.19
74.38,1.01,0.99,1.26,1.24,-1.18,-1.52,-2.33,-0.17,-0.19,-0.24
75.12,0.72,0.71,1.02,1.02,-1.01,-1.48,-2.36,-0.28,-0.29,-0.30
75.87,0.42,0.45,0.78,0.81,-0.84,-1.44,-2.39,-0.42,-0.39,-0.36
76.63,0.23,0.24,0.64,0.65,-0.71,-1.39,-2.42,-0.48,-0.47,-0.41
77.40,0.09,0.08,0.55,0.54,-0.61,-1.35,-2.45,-0.52,-0.53,-0.46
78.17,-0.01,-0.02,0.52,0.50,-0.56,-1.31,-2.49,-0.57,-0.58,-0.52
78.95,-0.08,-0.04,0.48,0.52,-0.57,-1.30,-2.52,-0.65,-0.61,-0.56
79.74,-0.01,0.01,0.60,0.62,-0.64,-1.31,-2.56,-0.65,-0.63,-0.61
80.54,0.13,0.08,0.79,0.74,-0.75,-1.36,-2.60,-0.62,-0.67,-0.65
81.35,0.22,0.19,0.93,0.90,-0.90,-1.44,-2.64,-0.67,-0.71,-0.71
82.16,0.24,0.33,1.00,1.08,-1.06,-1.55,-2.68,-0.82,-0.73,-0.76
82.98,0.49,0.49,1.28,1.29,-1.23,-1.68,-2.73,-0.74,-0.75,-0.79
83.81,0.70,0.64,1.55,1.48,-1.42,-1.82,-2.77,-0.72,-0.78,-0.85
84.65,0.77,0.76,1.67,1.65,-1.61,-1.97,-2.82,-0.84,-0.85,-0.90
85.50,0.81,0.84,1.75,1.78,-1.80,-2.11,-2.87,-0.99,-0.96,-0.94
86.35,0.92,0.96,1.91,1.94,-1.99,-2.25,-2.93,-1.07,-1.03,-0.98
87.22,1.11,1.12,2.14,2.15,-2.19,-2.38,-2.98,-1.08,-1.08,-1.03
88.09,1.36,1.29,2.45,2.37,-2.40,-2.51,-3.04,-1.04,-1.11,-1.08
88.97,1.43,1.47,2.57,2.61,-2.61,-2.62,-3.10,-1.18,-1.14,-1.14
89.86,1.61,1.64,2.80,2.82,-2.82,-2.73,-3.16,-1.21,-1.18,-1.19
90.76,1.83,1.78,3.07,3.02,-3.01,-2.83,-3.23,-1.18,-1.24,-1.24
91.66,1.94,1.96,3.22,3.25,-3.21,-2.93,-3.29,-1.26,-1.25,-1.28
92.58,2.06,2.11,3.41,3.45,-3.39,-3.01,-3.36,-1.32,-1.27,-1.34
93.51,2.26,2.18,3.65,3.57,-3.55,-3.10,-3.43,-1.29,-1.36,-1.39
94.44,2.27,2.22,3.70,3.66,-3.69,-3.18,-3.51,-1.42,-1.47,-1.43
95.39,2.16,2.27,3.64,3.75,-3.80,-3.26,-3.58,-1.64,-1.53,-1.48
96.34,2.31,2.36,3.84,3.88,-3.91,-3.33,-3.66,-1.59,-1.55,-1.53
97.30,2.52,2.46,4.10,4.03,-4.00,-3.40,-3.74,-1.48,-1.54,-1.58
98.28,2.59,2.50,4.21,4.13,-4.08,-3.47,-3.82,-1.49,-1.57,-1.62
99.26,2.43,2.49,4.10,4.16,-4.14,-3.54,-3.91,-1.71,-1.65,-1.67
100.25,2.37,2.46,4.09,4.17,-4.20,-3.60,-3.99,-1.83,-1.75,-1.71
101.25,2.52,2.46,4.28,4.22,-4.25,-3.67,-4.08,-1.73,-1.79,-1.76
102.27,2.51,2.51,4.32,4.31,-4.28,-3.73,-4.17,-1.77,-1.78,-1.81
103.29,2.50,2.51,4.36,4.36,-4.32,-3.79,-4.25,-1.82,-1.81,-1.86
104.32,2.47,2.44,4.37,4.34,-4.35,-3.85,-4.34,-1.88,-1.91,-1.90
105.37,2.38,2.40,4.33,4.35,-4.39,-3.92,-4.43,-2.01,-1.99,-1.94
106.42,2.34,2.39,4.33,4.39,-4.44,-3.97,-4.52,-2.10,-2.05,-1.99
107.48,2.44,2.42,4.49,4.46,-4.49,-4.03,-4.61,-2.04,-2.07,-2.05
108.56,2.48,2.45,4.59,4.56,-4.53,-4.09,-4.69,-2.05,-2.08,-2.10
109.64,2.46,2.47,4.61,4.62,-4.57,-4.15,-4.78,-2.11,-2.11,-2.15
110.74,2.44,2.45,4.65,4.65,-4.63,-4.20,-4.86,-2.19,-2.18,-2.21
111.85,2.42,2.43,4.66,4.68,-4.68,-4.26,-4.94,-2.26,-2.26,-2.24
112.97,2.42,2.42,4.73,4.72,-4.73,-4.31,-5.02,-2.31,-2.32,-2.31
114.10,2.41,2.41,4.76,4.76,-4.77,-4.37,-5.10,-2.36,-2.36,-2.35
115.24,2.41,2.41,4.81,4.81,-4.81,-4.42,-5.16,-2.40,-2.40,-2.40
116.39,2.41,2.41,4.86,4.86,-4.85,-4.47,-5.23,-2.43,-2.44,-2.45
117.55,2.41,2.42,4.90,4.91,-4.89,-4.53,-5.29,-2.48,-2.47,-2.49
118.73,2.42,2.40,4.95,4.93,-4.94,-4.58,-5.35,-2.52,-2.54,-2.53
119.92,2.42,2.39,4.97,4.95,-4.99,-4.63,-5.40,-2.57,-2.60,-2.55
121.12,2.34,2.41,4.94,5.00,-5.03,-4.68,-5.45,-2.69,-2.62,-2.60
122.33,2.46,2.47,5.09,5.09,-5.06,-4.73,-5.48,-2.60,-2.60,-2.63
123.55,2.54,2.50,5.19,5.15,-5.10,-4.78,-5.52,-2.56,-2.60,-2.65
124.79,2.56,2.51,5.24,5.19,-5.14,-4.82,-5.54,-2.58,-2.63,-2.68
126.03,2.40,2.47,5.11,5.17,-5.18,-4.87,-5.57,-2.78,-2.72,-2.71
127.29,2.42,2.43,5.15,5.17,-5.23,-4.92,-5.58,-2.81,-2.80,-2.73
128.57,2.45,2.43,5.22,5.20,-5.27,-4.96,-5.59,-2.82,-2.84,-2.77
129.85,2.48,2.48,5.28,5.28,-5.30,-5.01,-5.59,-2.82,-2.82,-2.80
131.15,2.50,2.53,5.33,5.36,-5.32,-5.05,-5.59,-2.82,-2.78,-2.83
132.46,2.57,2.55,5.43,5.41,-5.34,-5.09,-5.57,-2.77,-2.79,-2.85
133.79,2.59,2.53,5.47,5.42,-5.36,-5.13,-5.56,-2.77,-2.83,-2.88
135.12,2.44,2.49,5.36,5.40,-5.39,-5.17,-5.54,-2.95,-2.91,-2.92
136.48,2.41,2.43,5.34,5.37,-5.41,-5.21,-5.52,-3.00,-2.99,-2.93
137.84,2.40,2.40,5.37,5.36,-5.42,-5.25,-5.49,-3.02,-3.03,-2.97
139.22,2.41,2.41,5.41,5.40,-5.42,-5.29,-5.46,-3.01,-3.01,-3.00
140.61,2.41,2.41,5.44,5.44,-5.41,-5.33,-5.43,-3.00,-3.00,-3.03
142.02,2.41,2.42,5.46,5.47,-5.42,-5.36,-5.40,-3.01,-3.00,-3.04
143.44,2.41,2.40,5.49,5.48,-5.44,-5.40,-5.36,-3.03,-3.05,-3.08
144.87,2.38,2.34,5.50,5.45,-5.47,-5.43,-5.33,-3.09,-3.13,-3.12
146.32,2.25,2.29,5.41,5.44,-5.51,-5.46,-5.29,-3.26,-3.22,-3.16
147.78,2.24,2.29,5.43,5.48,-5.54,-5.50,-5.25,-3.30,-3.25,-3.18
149.26,2.33,2.32,5.56,5.56,-5.58,-5.52,-5.21,-3.25,-3.25,-3.23
150.75,2.42,2.35,5.72,5.65,-5.62,-5.55,-5.18,-3.19,-3.27,-3.30
152.26,2.32,2.33,5.69,5.69,-5.65,-5.58,-5.14,-3.33,-3.32,-3.37
153.78,2.22,2.27,5.65,5.70,-5.67,-5.61,-5.11,-3.45,-3.40,-3.43
155.32,2.20,2.19,5.71,5.70,-5.68,-5.63,-5.07,-3.48,-3.49,-3.51
156.88,2.14,2.13,5.72,5.71,-5.67,-5.66,-5.04,-3.52,-3.54,-3.58
158.44,2.04,2.03,5.70,5.70,-5.65,-5.68,-5.02,-3.61,-3.62,-3.66
160.03,1.91,1.89,5.66,5.64,-5.63,-5.70,-4.99,-3.72,-3.74,-3.75
161.63,1.74,1.78,5.56,5.59,-5.63,-5.72,-4.97,-3.88,-3.85,-3.82
163.24,1.66,1.67,5.54,5.54,-5.64,-5.74,-4.95,-3.98,-3.97,-3.88
164.88,1.67,1.62,5.60,5.55,-5.66,-5.76,-4.93,-3.99,-4.04,-3.93
166.53,1.60,1.70,5.58,5.68,-5.70,-5.77,-4.92,-4.10,-4.00,-3.98
168.19,1.77,1.78,5.79,5.80,-5.76,-5.79,-4.91,-3.98,-3.97,-4.02
169.87,1.99,1.82,6.04,5.87,-5.82,-5.80,-4.91,-3.83,-4.00,-4.05
171.57,1.80,1.88,5.87,5.95,-5.89,-5.81,-4.90,-4.09,-4.01,-4.07
173.29,1.79,1.88,5.88,5.97,-5.95,-5.83,-4.90,-4.16,-4.07,-4.09
175.02,1.96,1.89,6.05,5.98,-6.01,-5.83,-4.91,-4.05,-4.12,-4.09
176.77,1.96,1.95,6.07,6.06,-6.05,-5.84,-4.92,-4.09,-4.10,-4.11
178.54,1.96,1.98,6.07,6.08,-6.07,-5.85,-4.93,-4.11,-4.09,-4.11
180.32,1.96,1.96,6.06,6.07,-6.08,-5.85,-4.95,-4.11,-4.11,-4.10
182.13,1.97,1.97,6.07,6.07,-6.07,-5.86,-4.97,-4.10,-4.10,-4.10
183.95,1.98,2.00,6.09,6.10,-6.06,-5.86,-4.99,-4.08,-4.07,-4.11
185.79,1.99,1.99,6.10,6.10,-6.07,-5.86,-5.02,-4.07,-4.07,-4.11
187.65,2.01,1.94,6.14,6.07,-6.07,-5.86,-5.05,-4.06,-4.13,-4.13
189.52,1.85,1.89,5.99,6.03,-6.09,-5.86,-5.09,-4.23,-4.19,-4.14
191.42,1.81,1.86,5.97,6.02,-6.11,-5.86,-5.13,-4.29,-4.24,-4.16
193.33,1.91,1.89,6.09,6.06,-6.13,-5.85,-5.17,-4.22,-4.24,-4.18
195.27,1.96,1.98,6.16,6.17,-6.15,-5.85,-5.21,-4.19,-4.17,-4.20
197.22,2.05,2.03,6.27,6.24,-6.16,-5.84,-5.26,-4.11,-4.13,-4.21
199.19,2.05,2.01,6.29,6.25,-6.17,-5.84,-5.31,-4.12,-4.16,-4.24
201.18,1.94,1.98,6.20,6.24,-6.19,-5.83,-5.36,-4.25,-4.21,-4.26
203.19,1.90,1.92,6.18,6.20,-6.20,-5.82,-5.42,-4.30,-4.28,-4.27
205.23,1.90,1.88,6.20,6.17,-6.22,-5.80,-5.47,-4.32,-4.34,-4.30
207.28,1.87,1.84,6.18,6.16,-6.24,-5.79,-5.53,-4.37,-4.40,-4.30
209.35,1.82,1.84,6.15,6.17,-6.26,-5.78,-5.59,-4.43,-4.42,-4.33
211.44,1.82,1.89,6.19,6.24,-6.28,-5.76,-5.65,-4.46,-4.39,-4.36
213.56,1.99,1.95,6.36,6.32,-6.30,-5.75,-5.71,-4.31,-4.35,-4.37
215.69,2.07,2.00,6.45,6.38,-6.31,-5.73,-5.76,-4.24,-4.32,-4.38
217.85,1.95,2.02,6.34,6.41,-6.31,-5.71,-5.82,-4.36,-4.30,-4.39
220.03,1.93,1.95,6.34,6.36,-6.30,-5.69,-5.88,-4.36,-4.34,-4.41
222.23,1.93,1.85,6.36,6.27,-6.26,-5.67,-5.93,-4.33,-4.41,-4.43
224.45,1.74,1.78,6.16,6.20,-6.21,-5.65,-5.98,-4.47,-4.43,-4.42
226.70,1.63,1.69,6.05,6.11,-6.15,-5.63,-6.03,-4.52,-4.46,-4.42
228.96,1.68,1.60,6.09,6.01,-6.09,-5.60,-6.08,-4.41,-4.49,-4.41
231.25,1.55,1.59,5.95,5.99,-6.03,-5.58,-6.12,-4.48,-4.44,-4.40
233.57,1.54,1.58,5.93,5.97,-5.97,-5.56,-6.15,-4.43,-4.39,-4.39
235.90,1.61,1.56,5.99,5.94,-5.92,-5.53,-6.18,-4.31,-4.36,-4.38
238.26,1.55,1.55,5.92,5.92,-5.87,-5.50,-6.21,-4.32,-4.32,-4.37
240.64,1.51,1.53,5.86,5.88,-5.83,-5.47,-6.22,-4.32,-4.30,-4.35
243.05,1.48,1.49,5.80,5.81,-5.80,-5.45,-6.24,-4.32,-4.32,-4.32
245.48,1.48,1.44,5.78,5.73,-5.78,-5.42,-6.24,-4.30,-4.34,-4.30
247.93,1.38,1.40,5.65,5.67,-5.75,-5.39,-6.24,-4.37,-4.35,-4.26
250.41,1.35,1.40,5.60,5.65,-5.71,-5.36,-6.22,-4.36,-4.31,-4.25
252.92,1.44,1.45,5.66,5.67,-5.66,-5.32,-6.21,-4.22,-4.21,-4.22
255.45,1.51,1.48,5.71,5.68,-5.60,-5.29,-6.18,-4.09,-4.12,-4.20
258.00,1.51,1.45,5.69,5.62,-5.53,-5.26,-6.15,-4.02,-4.08,-4.17
260.58,1.31,1.36,5.47,5.51,-5.45,-5.23,-6.11,-4.14,-4.09,-4.16
263.19,1.19,1.23,5.32,5.37,-5.36,-5.19,-6.06,-4.17,-4.13,-4.13
265.82,1.17,1.11,5.29,5.22,-5.27,-5.16,-6.00,-4.10,-4.16,-4.11
268.48,1.00,1.02,5.09,5.11,-5.16,-5.12,-5.95,-4.16,-4.14,-4.09
271.16,0.93,0.96,4.99,5.02,-5.06,-5.09,-5.88,-4.13,-4.10,-4.06
273.87,0.92,0.91,4.96,4.95,-4.98,-5.05,-5.81,-4.05,-4.06,-4.04
276.61,0.92,0.90,4.93,4.91,-4.91,-5.02,-5.74,-3.99,-4.00,-4.01
279.38,0.89,0.89,4.87,4.87,-4.86,-4.98,-5.66,-3.96,-3.97,-3.98
282.17,0.86,0.87,4.82,4.83,-4.82,-4.94,-5.58,-3.96,-3.95,-3.96
284.99,0.86,0.86,4.78,4.79,-4.79,-4.91,-5.49,-3.93,-3.93,-3.92
287.84,0.87,0.87,4.78,4.77,-4.77,-4.87,-5.40,-3.90,-3.90,-3.91
290.72,0.88,0.88,4.75,4.75,-4.75,-4.83,-5.32,-3.87,-3.87,-3.87
293.63,0.89,0.89,4.74,4.74,-4.74,-4.79,-5.23,-3.85,-3.85,-3.85
296.57,0.90,0.90,4.71,4.72,-4.72,-4.75,-5.14,-3.82,-3.82,-3.81
299.53,0.92,0.92,4.71,4.70,-4.71,-4.71,-5.05,-3.78,-3.79,-3.78
302.53,0.93,0.93,4.70,4.69,-4.68,-4.68,-4.95,-3.75,-3.75,-3.77
305.55,0.94,0.94,4.66,4.67,-4.66,-4.64,-4.86,-3.72,-3.72,-3.72
308.61,0.95,0.96,4.66,4.66,-4.64,-4.60,-4.78,-3.69,-3.68,-3.71
311.69,0.95,0.96,4.63,4.63,-4.62,-4.56,-4.69,-3.67,-3.66,-3.68
314.81,0.96,0.90,4.61,4.55,-4.60,-4.52,-4.60,-3.64,-3.70,-3.65
317.96,0.84,0.86,4.48,4.50,-4.57,-4.48,-4.52,-3.73,-3.71,-3.64
321.14,0.76,0.89,4.39,4.52,-4.53,-4.44,-4.43,-3.76,-3.63,-3.63
324.35,0.96,0.91,4.57,4.52,-4.47,-4.40,-4.35,-3.51,-3.56,-3.61
327.59,1.02,0.87,4.62,4.46,-4.40,-4.36,-4.28,-3.38,-3.54,-3.60
330.87,0.73,0.82,4.32,4.41,-4.33,-4.32,-4.20,-3.60,-3.51,-3.59
334.18,0.58,0.72,4.15,4.29,-4.26,-4.28,-4.13,-3.68,-3.55,-3.57
337.52,0.74,0.59,4.30,4.15,-4.20,-4.25,-4.06,-3.46,-3.61,-3.56
340.90,0.55,0.51,4.10,4.06,-4.13,-4.21,-3.99,-3.58,-3.62,-3.55
344.30,0.33,0.44,3.87,3.98,-4.05,-4.17,-3.92,-3.72,-3.61,-3.54
347.75,0.37,0.41,3.91,3.94,-3.98,-4.13,-3.86,-3.61,-3.58,-3.54
351.23,0.46,0.43,3.99,3.97,-3.93,-4.09,-3.80,-3.47,-3.50,-3.53
354.74,0.53,0.42,4.07,3.95,-3.88,-4.05,-3.75,-3.35,-3.46,-3.54
358.28,0.30,0.35,3.83,3.88,-3.85,-4.01,-3.69,-3.55,-3.49,-3.53
361.87,0.19,0.27,3.72,3.80,-3.81,-3.98,-3.64,-3.62,-3.55,-3.53
365.49,0.25,0.20,3.77,3.73,-3.77,-3.94,-3.59,-3.52,-3.57,-3.52
369.14,0.20,0.19,3.73,3.72,-3.73,-3.90,-3.55,-3.53,-3.54,-3.53
372.83,0.15,0.16,3.69,3.69,-3.68,-3.86,-3.51,-3.53,-3.52,-3.53
376.56,0.10,0.10,3.64,3.63,-3.62,-3.83,-3.47,-3.52,-3.52,-3.54
380.33,0.03,0.05,3.56,3.58,-3.56,-3.79,-3.43,-3.53,-3.52,-3.53
384.13,-0.01,-0.02,3.52,3.52,-3.51,-3.75,-3.39,-3.52,-3.53,-3.53
387.97,-0.07,-0.09,3.47,3.45,-3.46,-3.72,-3.36,-3.52,-3.55,-3.54
391.85,-0.17,-0.14,3.38,3.41,-3.40,-3.68,-3.33,-3.57,-3.54,-3.55
395.77,-0.23,-0.20,3.32,3.35,-3.35,-3.65,-3.31,-3.58,-3.55,-3.54
399.73,-0.20,-0.30,3.36,3.26,-3.30,-3.61,-3.28,-3.50,-3.59,-3.56
403.72,-0.38,-0.34,3.18,3.22,-3.25,-3.58,-3.26,-3.63,-3.59,-3.56
407.76,-0.47,-0.37,3.10,3.20,-3.20,-3.54,-3.24,-3.67,-3.57,-3.57
411.84,-0.30,-0.40,3.27,3.17,-3.15,-3.51,-3.22,-3.45,-3.56,-3.57
415.96,-0.41,-0.42,3.16,3.15,-3.10,-3.48,-3.20,-3.51,-3.53,-3.57
420.12,-0.52,-0.48,3.05,3.09,-3.04,-3.45,-3.18,-3.56,-3.53,-3.57
424.32,-0.59,-0.59,2.98,2.98,-2.98,-3.41,-3.17,-3.57,-3.57,-3.57
428.56,-0.65,-0.65,2.92,2.92,-2.93,-3.38,-3.16,-3.57,-3.57,-3.56
432.85,-0.68,-0.69,2.88,2.87,-2.87,-3.35,-3.14,-3.55,-3.56,-3.56
437.18,-0.73,-0.73,2.82,2.81,-2.83,-3.32,-3.13,-3.56,-3.56,-3.55
441.55,-0.76,-0.75,2.75,2.76,-2.81,-3.29,-3.12,-3.56,-3.56,-3.51
445.96,-0.76,-0.76,2.72,2.72,-2.79,-3.27,-3.11,-3.54,-3.55,-3.48
450.42,-0.71,-0.71,2.74,2.74,-2.77,-3.24,-3.10,-3.48,-3.48,-3.45
454.93,-0.66,-0.60,2.74,2.80,-2.76,-3.21,-3.09,-3.42,-3.36,-3.40
459.48,-0.48,-0.53,2.87,2.82,-2.75,-3.18,-3.08,-3.23,-3.28,-3.35
464.07,-0.44,-0.51,2.86,2.79,-2.73,-3.16,-3.07,-3.17,-3.24,-3.30
468.71,-0.60,-0.52,2.64,2.73,-2.70,-3.13,-3.06,-3.29,-3.21,-3.24
473.40,-0.58,-0.55,2.62,2.65,-2.65,-3.11,-3.05,-3.23,-3.20,-3.20
478.13,-0.52,-0.58,2.63,2.57,-2.60,-3.08,-3.04,-3.12,-3.17,-3.14
482.91,-0.56,-0.57,2.55,2.53,-2.53,-3.06,-3.03,-3.09,-3.10,-3.10
487.74,-0.65,-0.58,2.42,2.48,-2.47,-3.04,-3.01,-3.11,-3.05,-3.07
