frequency,raw,smoothed,error,error_smoothed,equalization,parametric_eq,fixed_band_eq,equalized_raw,equalized_smoothed,target
20.00,1.34,1.34,-3.61,-3.61,3.63,3.35,1.39,4.96,4.96,4.95
20.20,1.36,1.36,-3.59,-3.59,3.60,3.34,1.43,4.96,4.96,4.95
20.40,1.38,1.38,-3.57,-3.57,3.57,3.34,1.47,4.95,4.95,4.95
20.61,1.40,1.40,-3.55,-3.55,3.55,3.34,1.52,4.94,4.94,4.95
20.81,1.42,1.42,-3.53,-3.53,3.52,3.33,1.56,4.94,4.94,4.95
21.02,1.44,1.44,-3.51,-3.51,3.50,3.33,1.61,4.94,4.94,4.95
21.23,1.46,1.46,-3.49,-3.49,3.48,3.32,1.66,4.94,4.94,4.95
21.44,1.48,1.48,-3.47,-3.47,3.46,3.32,1.71,4.94,4.95,4.95
21.66,1.51,1.51,-3.44,-3.44,3.45,3.31,1.76,4.95,4.95,4.95
21.87,1.53,1.52,-3.42,-3.42,3.43,3.31,1.81,4.96,4.96,4.95
22.09,1.54,1.54,-3.41,-3.41,3.42,3.30,1.87,4.96,4.95,4.95
22.31,1.54,1.54,-3.41,-3.41,3.41,3.30,1.92,4.95,4.95,4.94
22.54,1.54,1.54,-3.41,-3.40,3.41,3.29,1.98,4.94,4.94,4.94
22.76,1.54,1.54,-3.40,-3.40,3.40,3.29,2.04,4.94,4.94,4.94
22.99,1.54,1.54,-3.40,-3.40,3.41,3.28,2.10,4.94,4.94,4.94
23.22,1.54,1.54,-3.40,-3.40,3.41,3.27,2.16,4.94,4.94,4.94
23.45,1.54,1.54,-3.40,-3.40,3.40,3.27,2.22,4.94,4.94,4.94
23.69,1.54,1.54,-3.40,-3.40,3.39,3.26,2.28,4.93,4.93,4.94
23.92,1.54,1.54,-3.40,-3.39,3.38,3.26,2.35,4.92,4.92,4.94
24.16,1.56,1.56,-3.38,-3.38,3.36,3.25,2.42,4.92,4.92,4.94
24.40,1.59,1.59,-3.35,-3.35,3.34,3.24,2.48,4.93,4.93,4.93
24.65,1.62,1.62,-3.32,-3.32,3.32,3.24,2.55,4.94,4.94,4.93
24.89,1.65,1.64,-3.28,-3.29,3.29,3.23,2.62,4.94,4.94,4.93
25.14,1.67,1.67,-3.26,-3.26,3.27,3.22,2.69,4.94,4.94,4.93
25.39,1.69,1.69,-3.24,-3.24,3.24,3.22,2.76,4.93,4.93,4.93
25.65,1.71,1.71,-3.22,-3.22,3.22,3.21,2.83,4.93,4.93,4.93
25.91,1.73,1.73,-3.20,-3.20,3.21,3.20,2.90,4.93,4.93,4.93
26.16,1.74,1.74,-3.19,-3.19,3.20,3.20,2.97,4.93,4.93,4.92
26.43,1.74,1.74,-3.19,-3.18,3.19,3.19,3.03,4.93,4.93,4.92
26.69,1.74,1.74,-3.18,-3.18,3.19,3.18,3.10,4.92,4.93,4.92
26.96,1.74,1.74,-3.18,-3.18,3.18,3.17,3.17,4.92,4.92,4.92
27.23,1.74,1.74,-3.18,-3.18,3.18,3.17,3.23,4.92,4.92,4.92
27.50,1.74,1.74,-3.18,-3.18,3.17,3.16,3.30,4.91,4.91,4.92
27.77,1.74,1.74,-3.18,-3.17,3.16,3.15,3.36,4.90,4.90,4.91
28.05,1.75,1.75,-3.16,-3.16,3.14,3.14,3.42,4.89,4.90,4.91
28.33,1.78,1.78,-3.13,-3.13,3.13,3.13,3.47,4.91,4.91,4.91
28.62,1.81,1.81,-3.10,-3.10,3.11,3.12,3.52,4.92,4.92,4.91
28.90,1.84,1.83,-3.07,-3.07,3.09,3.12,3.57,4.93,4.93,4.91
29.19,1.85,1.84,-3.06,-3.06,3.07,3.11,3.61,4.92,4.92,4.90
29.48,1.85,1.85,-3.05,-3.05,3.05,3.10,3.65,4.90,4.90,4.90
29.78,1.85,1.85,-3.05,-3.05,3.03,3.09,3.69,4.88,4.88,4.90
30.08,1.86,1.86,-3.04,-3.03,3.01,3.08,3.72,4.87,4.87,4.90
30.38,1.89,1.89,-3.01,-3.00,3.00,3.07,3.74,4.88,4.88,4.89
30.68,1.92,1.92,-2.97,-2.97,2.98,3.06,3.76,4.90,4.90,4.89
30.99,1.95,1.94,-2.94,-2.95,2.96,3.05,3.77,4.91,4.90,4.89
31.30,1.95,1.95,-2.94,-2.94,2.95,3.04,3.78,4.90,4.90,4.88
31.61,1.95,1.95,-2.93,-2.93,2.94,3.03,3.78,4.89,4.89,4.88
31.93,1.95,1.95,-2.93,-2.93,2.93,3.02,3.78,4.88,4.88,4.88
32.24,1.95,1.95,-2.93,-2.93,2.93,3.01,3.77,4.87,4.87,4.87
32.57,1.95,1.95,-2.92,-2.92,2.92,3.00,3.75,4.87,4.87,4.87
32.89,1.95,1.95,-2.92,-2.92,2.92,2.98,3.74,4.87,4.87,4.87
33.22,1.95,1.95,-2.92,-2.92,2.91,2.97,3.71,4.86,4.86,4.86
33.55,1.95,1.94,-2.91,-2.91,2.90,2.96,3.68,4.85,4.84,4.86
33.89,1.95,1.95,-2.91,-2.90,2.88,2.95,3.65,4.83,4.84,4.86
34.23,1.97,1.97,-2.88,-2.88,2.87,2.94,3.61,4.83,4.84,4.85
34.57,2.01,2.00,-2.84,-2.84,2.85,2.92,3.57,4.86,4.85,4.85
34.92,2.04,2.03,-2.81,-2.81,2.83,2.91,3.53,4.87,4.86,4.84
35.27,2.05,2.05,-2.79,-2.79,2.81,2.90,3.48,4.86,4.86,4.84
35.62,2.05,2.05,-2.79,-2.78,2.80,2.89,3.43,4.85,4.85,4.83
35.97,2.05,2.05,-2.78,-2.78,2.78,2.87,3.38,4.83,4.83,4.83
36.33,2.05,2.05,-2.77,-2.78,2.76,2.86,3.33,4.81,4.81,4.82
36.70,2.05,2.05,-2.77,-2.77,2.74,2.84,3.27,4.79,4.79,4.82
37.06,2.06,2.06,-2.75,-2.75,2.73,2.83,3.22,4.79,4.79,4.81
37.43,2.09,2.09,-2.72,-2.71,2.71,2.82,3.16,4.80,4.80,4.81
37.81,2.13,2.12,-2.67,-2.68,2.69,2.80,3.10,4.82,4.81,4.80
38.19,2.15,2.14,-2.65,-2.65,2.67,2.79,3.05,4.82,4.81,4.79
38.57,2.15,2.15,-2.64,-2.64,2.65,2.77,2.99,4.80,4.80,4.79
38.95,2.15,2.15,-2.63,-2.63,2.63,2.76,2.94,4.78,4.78,4.78
39.34,2.15,2.15,-2.63,-2.63,2.62,2.74,2.89,4.77,4.77,4.77
39.74,2.15,2.15,-2.62,-2.62,2.61,2.72,2.83,4.76,4.76,4.77
40.14,2.15,2.15,-2.61,-2.61,2.61,2.71,2.78,4.75,4.75,4.76
40.54,2.15,2.15,-2.60,-2.60,2.60,2.69,2.73,4.75,4.75,4.75
40.94,2.15,2.15,-2.59,-2.59,2.60,2.67,2.68,4.74,4.74,4.74
41.35,2.15,2.15,-2.59,-2.59,2.59,2.66,2.63,4.74,4.74,4.73
41.76,2.15,2.15,-2.58,-2.58,2.58,2.64,2.59,4.73,4.73,4.72
42.18,2.15,2.15,-2.57,-2.57,2.57,2.62,2.54,4.72,4.71,4.72
42.60,2.15,2.15,-2.56,-2.56,2.55,2.60,2.50,4.70,4.70,4.71
43.03,2.15,2.15,-2.55,-2.54,2.53,2.58,2.46,4.68,4.68,4.70
43.46,2.17,2.17,-2.52,-2.52,2.51,2.56,2.42,4.67,4.67,4.69
43.90,2.19,2.19,-2.49,-2.49,2.48,2.54,2.38,4.67,4.67,4.68
44.33,2.22,2.22,-2.45,-2.45,2.46,2.52,2.35,4.68,4.67,4.67
44.78,2.24,2.23,-2.42,-2.42,2.43,2.50,2.32,4.67,4.67,4.65
45.23,2.25,2.25,-2.39,-2.40,2.41,2.48,2.29,4.66,4.65,4.64
45.68,2.25,2.25,-2.38,-2.38,2.39,2.46,2.26,4.63,4.64,4.63
46.13,2.25,2.25,-2.37,-2.37,2.37,2.44,2.23,4.62,4.62,4.62
46.60,2.25,2.25,-2.36,-2.36,2.35,2.42,2.20,4.60,4.60,4.60
47.06,2.25,2.25,-2.34,-2.34,2.34,2.39,2.18,4.59,4.59,4.59
47.53,2.25,2.25,-2.33,-2.33,2.33,2.37,2.16,4.58,4.58,4.58
48.01,2.25,2.25,-2.32,-2.32,2.32,2.35,2.14,4.57,4.57,4.56
48.49,2.25,2.25,-2.30,-2.30,2.30,2.32,2.12,4.55,4.55,4.55
48.97,2.25,2.24,-2.29,-2.29,2.28,2.30,2.10,4.52,4.52,4.53
49.46,2.25,2.25,-2.27,-2.27,2.25,2.27,2.08,4.50,4.49,4.52
49.96,2.25,2.27,-2.25,-2.23,2.22,2.25,2.07,4.47,4.48,4.50
50.46,2.30,2.30,-2.19,-2.19,2.19,2.22,2.05,4.48,4.48,4.48
50.96,2.35,2.33,-2.12,-2.14,2.15,2.20,2.04,4.50,4.48,4.47
51.47,2.35,2.35,-2.10,-2.10,2.12,2.17,2.03,4.47,4.47,4.45
51.99,2.35,2.35,-2.08,-2.08,2.09,2.14,2.02,4.44,4.44,4.43
52.51,2.35,2.35,-2.06,-2.06,2.06,2.12,2.01,4.41,4.41,4.41
53.03,2.35,2.35,-2.04,-2.04,2.04,2.09,2.00,4.39,4.39,4.39
53.56,2.35,2.35,-2.02,-2.02,2.02,2.06,1.99,4.36,4.36,4.37
54.10,2.35,2.35,-2.00,-2.00,2.00,2.03,1.98,4.34,4.34,4.35
54.64,2.35,2.35,-1.98,-1.98,1.98,2.00,1.97,4.33,4.33,4.33
55.18,2.35,2.35,-1.96,-1.96,1.96,1.97,1.95,4.30,4.30,4.30
55.74,2.35,2.35,-1.93,-1.93,1.93,1.94,1.94,4.28,4.28,4.28
56.29,2.35,2.35,-1.91,-1.91,1.91,1.91,1.93,4.26,4.26,4.26
56.86,2.35,2.35,-1.88,-1.88,1.88,1.88,1.92,4.23,4.23,4.23
57.42,2.35,2.35,-1.86,-1.86,1.86,1.84,1.90,4.21,4.21,4.21
58.00,2.35,2.35,-1.83,-1.83,1.83,1.81,1.89,4.18,4.18,4.18
58.58,2.35,2.35,-1.80,-1.80,1.80,1.78,1.87,4.15,4.15,4.15
59.16,2.35,2.35,-1.78,-1.78,1.78,1.74,1.85,4.12,4.12,4.12
59.76,2.35,2.35,-1.75,-1.75,1.75,1.71,1.83,4.10,4.10,4.10
60.35,2.35,2.35,-1.72,-1.72,1.72,1.67,1.80,4.07,4.07,4.07
60.96,2.35,2.35,-1.69,-1.69,1.69,1.63,1.78,4.04,4.04,4.04
61.57,2.35,2.35,-1.66,-1.66,1.66,1.60,1.75,4.01,4.01,4.00
62.18,2.35,2.35,-1.62,-1.62,1.63,1.56,1.72,3.98,3.98,3.97
62.80,2.35,2.35,-1.59,-1.59,1.59,1.52,1.69,3.94,3.94,3.94
63.43,2.35,2.34,-1.56,-1.56,1.55,1.48,1.65,3.90,3.89,3.90
64.07,2.35,2.34,-1.52,-1.52,1.50,1.44,1.61,3.85,3.85,3.87
64.71,2.35,2.36,-1.49,-1.47,1.45,1.40,1.57,3.80,3.82,3.83
65.35,2.39,2.39,-1.41,-1.40,1.40,1.36,1.53,3.79,3.79,3.80
66.01,2.45,2.43,-1.31,-1.33,1.35,1.32,1.49,3.79,3.77,3.76
66.67,2.45,2.45,-1.27,-1.27,1.29,1.27,1.44,3.74,3.74,3.72
67.33,2.45,2.45,-1.23,-1.23,1.24,1.23,1.39,3.69,3.69,3.68
68.01,2.45,2.45,-1.19,-1.19,1.19,1.19,1.34,3.64,3.64,3.64
68.69,2.45,2.45,-1.15,-1.15,1.14,1.14,1.28,3.59,3.59,3.60
69.37,2.45,2.45,-1.10,-1.10,1.10,1.10,1.23,3.55,3.55,3.55
70.07,2.45,2.45,-1.06,-1.06,1.06,1.05,1.17,3.50,3.50,3.51
70.77,2.45,2.45,-1.02,-1.02,1.01,1.00,1.11,3.46,3.46,3.46
71.48,2.45,2.45,-0.97,-0.97,0.97,0.96,1.05,3.42,3.42,3.42
72.19,2.45,2.45,-0.92,-0.92,0.92,0.91,0.99,3.37,3.37,3.37
72.91,2.45,2.45,-0.87,-0.87,0.87,0.86,0.93,3.32,3.32,3.32
73.64,2.45,2.45,-0.82,-0.82,0.82,0.81,0.86,3.27,3.27,3.27
74.38,2.45,2.45,-0.77,-0.77,0.77,0.76,0.80,3.22,3.22,3.22
75.12,2.45,2.45,-0.72,-0.72,0.72,0.71,0.73,3.17,3.17,3.17
75.87,2.45,2.45,-0.67,-0.67,0.67,0.66,0.66,3.12,3.12,3.12
76.63,2.45,2.45,-0.62,-0.62,0.62,0.60,0.59,3.07,3.07,3.07
77.40,2.45,2.45,-0.56,-0.56,0.56,0.55,0.53,3.01,3.01,3.01
78.17,2.45,2.45,-0.51,-0.51,0.51,0.50,0.46,2.96,2.96,2.96
78.95,2.45,2.45,-0.45,-0.45,0.45,0.44,0.39,2.90,2.90,2.90
79.74,2.45,2.45,-0.39,-0.39,0.39,0.39,0.32,2.84,2.84,2.84
80.54,2.45,2.45,-0.34,-0.34,0.34,0.33,0.25,2.78,2.78,2.78
81.35,2.45,2.45,-0.28,-0.28,0.28,0.27,0.18,2.72,2.72,2.72
82.16,2.45,2.45,-0.22,-0.22,0.22,0.22,0.11,2.66,2.66,2.66
82.98,2.45,2.45,-0.16,-0.16,0.16,0.16,0.04,2.60,2.60,2.60
83.81,2.45,2.45,-0.09,-0.09,0.09,0.10,-0.04,2.54,2.54,2.54
84.65,2.45,2.45,-0.03,-0.03,0.03,0.04,-0.11,2.48,2.48,2.48
85.50,2.45,2.45,0.03,0.03,-0.03,-0.02,-0.18,2.42,2.42,2.42
86.35,2.45,2.45,0.10,0.10,-0.10,-0.08,-0.25,2.35,2.35,2.35
87.22,2.45,2.45,0.16,0.16,-0.16,-0.14,-0.33,2.29,2.29,2.29
88.09,2.45,2.45,0.23,0.23,-0.23,-0.20,-0.40,2.22,2.22,2.22
88.97,2.45,2.45,0.29,0.29,-0.30,-0.27,-0.47,2.15,2.15,2.15
89.86,2.45,2.45,0.36,0.36,-0.37,-0.33,-0.55,2.08,2.08,2.09
90.76,2.45,2.45,0.43,0.43,-0.44,-0.39,-0.62,2.01,2.02,2.02
91.66,2.46,2.45,0.51,0.51,-0.51,-0.45,-0.69,1.95,1.95,1.95
92.58,2.46,2.46,0.58,0.58,-0.58,-0.52,-0.77,1.88,1.88,1.88
93.51,2.46,2.46,0.65,0.65,-0.65,-0.58,-0.84,1.81,1.81,1.81
94.44,2.46,2.45,0.72,0.71,-0.72,-0.65,-0.92,1.74,1.74,1.74
95.39,2.45,2.45,0.78,0.78,-0.78,-0.71,-0.99,1.66,1.67,1.67
96.34,2.45,2.45,0.85,0.85,-0.85,-0.78,-1.07,1.60,1.60,1.60
97.30,2.45,2.44,0.92,0.92,-0.91,-0.84,-1.14,1.53,1.53,1.53
98.28,2.44,2.44,0.98,0.98,-0.97,-0.91,-1.22,1.46,1.46,1.45
99.26,2.42,2.42,1.04,1.04,-1.04,-0.97,-1.30,1.38,1.38,1.38
100.25,2.40,2.40,1.09,1.09,-1.09,-1.04,-1.37,1.30,1.30,1.31
101.25,2.38,2.38,1.14,1.14,-1.15,-1.11,-1.45,1.23,1.23,1.24
102.27,2.37,2.37,1.20,1.20,-1.21,-1.17,-1.52,1.16,1.16,1.16
103.29,2.36,2.35,1.27,1.26,-1.26,-1.24,-1.60,1.10,1.09,1.09
104.32,2.34,2.34,1.32,1.32,-1.31,-1.30,-1.67,1.03,1.03,1.02
105.37,2.32,2.32,1.37,1.37,-1.36,-1.37,-1.75,0.95,0.95,0.94
106.42,2.29,2.29,1.42,1.42,-1.42,-1.44,-1.82,0.87,0.87,0.87
107.48,2.27,2.26,1.47,1.46,-1.47,-1.50,-1.89,0.80,0.80,0.80
108.56,2.24,2.24,1.51,1.51,-1.52,-1.57,-1.96,0.72,0.72,0.73
109.64,2.22,2.22,1.56,1.57,-1.57,-1.64,-2.03,0.65,0.65,0.65
110.74,2.21,2.20,1.63,1.62,-1.62,-1.70,-2.10,0.58,0.58,0.58
111.85,2.19,2.19,1.68,1.68,-1.68,-1.77,-2.17,0.51,0.51,0.51
112.97,2.18,2.18,1.74,1.74,-1.74,-1.83,-2.23,0.43,0.43,0.44
114.10,2.17,2.17,1.80,1.80,-1.81,-1.90,-2.30,0.36,0.36,0.36
115.24,2.17,2.17,1.87,1.87,-1.88,-1.96,-2.36,0.29,0.29,0.29
116.39,2.17,2.17,1.95,1.95,-1.95,-2.03,-2.42,0.22,0.22,0.22
117.55,2.18,2.17,2.03,2.02,-2.02,-2.09,-2.47,0.16,0.15,0.15
118.73,2.18,2.18,2.10,2.10,-2.09,-2.16,-2.52,0.08,0.08,0.08
119.92,2.19,2.18,2.17,2.17,-2.17,-2.22,-2.57,0.02,0.01,0.01
121.12,2.19,2.19,2.24,2.25,-2.25,-2.28,-2.62,-0.06,-0.06,-0.06
122.33,2.20,2.20,2.32,2.32,-2.32,-2.34,-2.66,-0.13,-0.12,-0.12
123.55,2.21,2.21,2.40,2.40,-2.40,-2.41,-2.70,-0.19,-0.19,-0.19
124.79,2.22,2.21,2.48,2.47,-2.47,-2.47,-2.74,-0.25,-0.26,-0.26
126.03,2.22,2.22,2.54,2.55,-2.55,-2.53,-2.77,-0.33,-0.32,-0.32
127.29,2.23,2.23,2.62,2.62,-2.62,-2.59,-2.80,-0.39,-0.39,-0.39
128.57,2.24,2.23,2.69,2.69,-2.69,-2.65,-2.83,-0.45,-0.45,-0.45
129.85,2.24,2.24,2.76,2.76,-2.76,-2.71,-2.85,-0.52,-0.52,-0.52
131.15,2.25,2.25,2.83,2.83,-2.83,-2.76,-2.88,-0.58,-0.58,-0.58
132.46,2.25,2.25,2.89,2.89,-2.90,-2.82,-2.89,-0.65,-0.65,-0.64
133.79,2.26,2.25,2.96,2.96,-2.97,-2.88,-2.91,-0.71,-0.71,-0.71
135.12,2.26,2.26,3.02,3.02,-3.03,-2.93,-2.92,-0.78,-0.78,-0.77
136.48,2.26,2.26,3.08,3.09,-3.10,-2.99,-2.94,-0.84,-0.84,-0.83
137.84,2.27,2.26,3.15,3.15,-3.15,-3.04,-2.95,-0.89,-0.89,-0.88
139.22,2.27,2.27,3.21,3.21,-3.20,-3.10,-2.96,-0.93,-0.93,-0.94
140.61,2.27,2.27,3.27,3.27,-3.24,-3.15,-2.96,-0.97,-0.97,-1.00
142.02,2.27,2.25,3.32,3.30,-3.27,-3.20,-2.97,-1.00,-1.02,-1.05
143.44,2.20,2.20,3.31,3.31,-3.29,-3.25,-2.98,-1.09,-1.09,-1.11
144.87,2.14,2.14,3.30,3.30,-3.32,-3.30,-2.98,-1.18,-1.17,-1.16
146.32,2.09,2.09,3.30,3.30,-3.34,-3.35,-2.99,-1.25,-1.24,-1.21
147.78,2.07,2.07,3.32,3.33,-3.36,-3.40,-2.99,-1.29,-1.29,-1.26
149.26,2.07,2.06,3.37,3.37,-3.39,-3.44,-3.00,-1.32,-1.32,-1.31
150.75,2.07,2.07,3.42,3.42,-3.42,-3.49,-3.01,-1.35,-1.36,-1.36
152.26,2.07,2.07,3.47,3.47,-3.46,-3.54,-3.01,-1.39,-1.39,-1.40
153.78,2.07,2.07,3.52,3.52,-3.51,-3.58,-3.02,-1.44,-1.44,-1.45
155.32,2.07,2.07,3.57,3.57,-3.56,-3.62,-3.03,-1.49,-1.49,-1.50
156.88,2.07,2.07,3.61,3.61,-3.61,-3.67,-3.04,-1.54,-1.54,-1.54
158.44,2.07,2.07,3.66,3.66,-3.66,-3.71,-3.06,-1.59,-1.59,-1.59
160.03,2.07,2.07,3.70,3.70,-3.70,-3.75,-3.07,-1.64,-1.64,-1.63
161.63,2.07,2.07,3.75,3.75,-3.75,-3.79,-3.09,-1.68,-1.68,-1.68
163.24,2.07,2.07,3.79,3.79,-3.79,-3.83,-3.11,-1.72,-1.72,-1.73
164.88,2.07,2.06,3.83,3.83,-3.82,-3.86,-3.13,-1.76,-1.76,-1.77
166.53,2.06,2.06,3.86,3.86,-3.86,-3.90,-3.15,-1.80,-1.80,-1.81
168.19,2.05,2.05,3.89,3.90,-3.89,-3.94,-3.18,-1.85,-1.84,-1.84
169.87,2.05,2.04,3.93,3.92,-3.93,-3.97,-3.21,-1.88,-1.88,-1.88
171.57,2.04,2.04,3.95,3.95,-3.96,-4.00,-3.24,-1.92,-1.92,-1.92
173.29,2.03,2.03,3.98,3.98,-3.99,-4.04,-3.27,-1.96,-1.96,-1.95
175.02,2.03,2.03,4.01,4.01,-4.02,-4.07,-3.31,-1.99,-1.99,-1.99
176.77,2.03,2.03,4.05,4.05,-4.04,-4.10,-3.34,-2.02,-2.02,-2.02
178.54,2.03,2.03,4.08,4.08,-4.07,-4.13,-3.38,-2.04,-2.04,-2.05
180.32,2.03,2.02,4.11,4.11,-4.09,-4.16,-3.43,-2.07,-2.07,-2.09
182.13,2.02,2.01,4.13,4.12,-4.12,-4.18,-3.47,-2.10,-2.11,-2.12
183.95,1.98,1.98,4.12,4.13,-4.14,-4.21,-3.52,-2.17,-2.16,-2.15
185.79,1.96,1.97,4.13,4.14,-4.17,-4.23,-3.57,-2.21,-2.20,-2.18
187.65,1.97,1.97,4.17,4.17,-4.19,-4.26,-3.63,-2.22,-2.22,-2.20
189.52,1.99,1.99,4.22,4.22,-4.21,-4.28,-3.68,-2.22,-2.22,-2.23
191.42,2.00,1.99,4.26,4.25,-4.23,-4.30,-3.74,-2.23,-2.23,-2.26
193.33,2.00,1.98,4.28,4.27,-4.25,-4.32,-3.80,-2.25,-2.27,-2.28
195.27,1.96,1.96,4.27,4.27,-4.27,-4.34,-3.86,-2.32,-2.31,-2.31
197.22,1.94,1.95,4.27,4.28,-4.30,-4.36,-3.93,-2.36,-2.35,-2.33
199.19,1.95,1.94,4.30,4.30,-4.32,-4.38,-4.00,-2.37,-2.38,-2.36
201.18,1.96,1.95,4.34,4.33,-4.34,-4.40,-4.06,-2.38,-2.39,-2.38
203.19,1.96,1.96,4.36,4.36,-4.36,-4.41,-4.13,-2.40,-2.40,-2.40
205.23,1.97,1.97,4.39,4.39,-4.39,-4.43,-4.20,-2.42,-2.42,-2.42
207.28,1.97,1.97,4.41,4.41,-4.41,-4.44,-4.27,-2.44,-2.44,-2.44
209.35,1.97,1.97,4.43,4.43,-4.43,-4.46,-4.34,-2.46,-2.47,-2.46
211.44,1.96,1.96,4.44,4.45,-4.45,-4.47,-4.41,-2.49,-2.48,-2.48
213.56,1.96,1.96,4.46,4.47,-4.46,-4.48,-4.48,-2.50,-2.49,-2.50
215.69,1.96,1.95,4.48,4.47,-4.46,-4.49,-4.55,-2.50,-2.50,-2.52
217.85,1.95,1.93,4.49,4.47,-4.45,-4.50,-4.62,-2.50,-2.53,-2.54
220.03,1.88,1.89,4.43,4.45,-4.44,-4.51,-4.69,-2.56,-2.55,-2.56
222.23,1.85,1.86,4.42,4.43,-4.43,-4.51,-4.75,-2.58,-2.57,-2.57
224.45,1.84,1.82,4.43,4.41,-4.42,-4.52,-4.81,-2.58,-2.59,-2.59
226.70,1.82,1.80,4.42,4.40,-4.41,-4.52,-4.87,-2.59,-2.61,-2.60
228.96,1.75,1.77,4.37,4.39,-4.40,-4.53,-4.93,-2.66,-2.63,-2.62
231.25,1.76,1.76,4.39,4.39,-4.41,-4.53,-4.98,-2.65,-2.65,-2.63
233.57,1.76,1.76,4.40,4.41,-4.42,-4.54,-5.02,-2.67,-2.67,-2.65
235.90,1.78,1.78,4.45,4.44,-4.45,-4.54,-5.06,-2.67,-2.67,-2.67
238.26,1.79,1.79,4.47,4.47,-4.47,-4.54,-5.10,-2.69,-2.69,-2.68
240.64,1.81,1.80,4.50,4.50,-4.50,-4.54,-5.13,-2.70,-2.70,-2.70
243.05,1.82,1.82,4.53,4.53,-4.53,-4.54,-5.16,-2.71,-2.70,-2.71
245.48,1.84,1.85,4.56,4.57,-4.54,-4.53,-5.17,-2.71,-2.70,-2.72
247.93,1.87,1.86,4.60,4.59,-4.55,-4.53,-5.18,-2.69,-2.70,-2.73
250.41,1.86,1.84,4.60,4.59,-4.55,-4.53,-5.19,-2.70,-2.71,-2.74
252.92,1.81,1.81,4.56,4.56,-4.55,-4.52,-5.19,-2.74,-2.74,-2.75
255.45,1.76,1.77,4.51,4.52,-4.54,-4.52,-5.17,-2.78,-2.77,-2.75
258.00,1.74,1.74,4.50,4.50,-4.53,-4.51,-5.16,-2.80,-2.79,-2.76
260.58,1.73,1.73,4.50,4.50,-4.53,-4.51,-5.14,-2.80,-2.80,-2.77
263.19,1.73,1.73,4.51,4.51,-4.52,-4.50,-5.11,-2.79,-2.80,-2.78
265.82,1.73,1.73,4.52,4.52,-4.52,-4.49,-5.08,-2.80,-2.80,-2.79
268.48,1.73,1.73,4.53,4.53,-4.52,-4.48,-5.04,-2.80,-2.80,-2.80
271.16,1.73,1.73,4.53,4.53,-4.52,-4.47,-4.99,-2.80,-2.80,-2.81
273.87,1.72,1.73,4.53,4.54,-4.52,-4.46,-4.95,-2.80,-2.79,-2.81
276.61,1.72,1.71,4.54,4.54,-4.50,-4.45,-4.89,-2.79,-2.79,-2.82
279.38,1.70,1.68,4.53,4.51,-4.48,-4.43,-4.84,-2.79,-2.80,-2.83
282.17,1.64,1.64,4.47,4.47,-4.46,-4.42,-4.78,-2.83,-2.83,-2.84
284.99,1.58,1.58,4.41,4.42,-4.44,-4.41,-4.72,-2.87,-2.86,-2.83
287.84,1.54,1.55,4.37,4.39,-4.43,-4.39,-4.66,-2.89,-2.88,-2.83
290.72,1.55,1.54,4.38,4.38,-4.42,-4.38,-4.59,-2.87,-2.87,-2.84
293.63,1.56,1.55,4.40,4.39,-4.41,-4.36,-4.53,-2.85,-2.86,-2.84
296.57,1.57,1.57,4.41,4.41,-4.41,-4.35,-4.46,-2.84,-2.84,-2.84
299.53,1.58,1.59,4.41,4.43,-4.40,-4.33,-4.39,-2.83,-2.82,-2.83
302.53,1.60,1.59,4.44,4.43,-4.40,-4.31,-4.33,-2.80,-2.81,-2.84
305.55,1.61,1.58,4.44,4.42,-4.40,-4.29,-4.26,-2.79,-2.81,-2.84
308.61,1.55,1.56,4.39,4.40,-4.39,-4.27,-4.20,-2.84,-2.82,-2.84
311.69,1.52,1.52,4.35,4.36,-4.37,-4.26,-4.13,-2.85,-2.84,-2.84
314.81,1.50,1.48,4.34,4.32,-4.34,-4.24,-4.07,-2.84,-2.86,-2.84
317.96,1.45,1.46,4.28,4.29,-4.31,-4.21,-4.01,-2.86,-2.86,-2.83
321.14,1.43,1.44,4.27,4.27,-4.28,-4.19,-3.95,-2.85,-2.84,-2.84
324.35,1.43,1.43,4.26,4.26,-4.25,-4.17,-3.89,-2.82,-2.82,-2.83
327.59,1.43,1.41,4.25,4.23,-4.23,-4.15,-3.84,-2.80,-2.82,-2.82
330.87,1.38,1.38,4.20,4.20,-4.20,-4.13,-3.79,-2.82,-2.82,-2.82
334.18,1.33,1.34,4.14,4.16,-4.18,-4.10,-3.74,-2.85,-2.83,-2.82
337.52,1.32,1.32,4.14,4.14,-4.15,-4.08,-3.69,-2.83,-2.82,-2.82
340.90,1.32,1.32,4.13,4.13,-4.11,-4.06,-3.64,-2.79,-2.80,-2.81
344.30,1.32,1.30,4.12,4.11,-4.08,-4.03,-3.60,-2.76,-2.78,-2.81
347.75,1.26,1.26,4.06,4.06,-4.04,-4.01,-3.56,-2.78,-2.78,-2.80
351.23,1.21,1.20,4.01,4.00,-4.01,-3.98,-3.52,-2.80,-2.80,-2.80
354.74,1.15,1.15,3.93,3.95,-3.97,-3.96,-3.49,-2.83,-2.82,-2.79
358.28,1.12,1.13,3.91,3.92,-3.94,-3.93,-3.46,-2.82,-2.81,-2.79
361.87,1.13,1.13,3.91,3.91,-3.91,-3.90,-3.43,-2.79,-2.79,-2.78
365.49,1.14,1.12,3.91,3.90,-3.89,-3.88,-3.40,-2.75,-2.77,-2.77
369.14,1.11,1.10,3.88,3.87,-3.87,-3.85,-3.38,-2.76,-2.77,-2.78
372.83,1.06,1.08,3.82,3.84,-3.85,-3.82,-3.36,-2.79,-2.77,-2.76
376.56,1.06,1.07,3.82,3.83,-3.83,-3.79,-3.34,-2.77,-2.76,-2.76
380.33,1.07,1.06,3.82,3.82,-3.80,-3.77,-3.32,-2.73,-2.74,-2.75
384.13,1.07,1.05,3.82,3.80,-3.77,-3.74,-3.31,-2.70,-2.72,-2.76
387.97,1.02,1.02,3.76,3.76,-3.74,-3.71,-3.30,-2.72,-2.72,-2.74
391.85,0.97,0.96,3.69,3.69,-3.70,-3.68,-3.29,-2.73,-2.74,-2.72
395.77,0.90,0.91,3.62,3.63,-3.67,-3.65,-3.28,-2.77,-2.75,-2.72
399.73,0.88,0.89,3.59,3.60,-3.63,-3.62,-3.28,-2.75,-2.74,-2.71
403.72,0.88,0.87,3.58,3.58,-3.58,-3.59,-3.27,-2.70,-2.71,-2.71
407.76,0.87,0.85,3.58,3.55,-3.53,-3.56,-3.27,-2.66,-2.68,-2.71
411.84,0.80,0.81,3.50,3.51,-3.48,-3.53,-3.27,-2.69,-2.67,-2.70
415.96,0.77,0.77,3.46,3.46,-3.44,-3.50,-3.27,-2.68,-2.67,-2.69
420.12,0.72,0.72,3.41,3.41,-3.41,-3.47,-3.27,-2.69,-2.69,-2.69
424.32,0.69,0.67,3.37,3.36,-3.37,-3.44,-3.27,-2.69,-2.70,-2.69
428.56,0.62,0.63,3.29,3.31,-3.34,-3.41,-3.28,-2.72,-2.71,-2.68
432.85,0.61,0.62,3.28,3.28,-3.31,-3.38,-3.28,-2.71,-2.70,-2.67
437.18,0.63,0.63,3.29,3.29,-3.29,-3.35,-3.28,-2.66,-2.66,-2.66
441.55,0.66,0.66,3.31,3.31,-3.28,-3.32,-3.29,-2.62,-2.62,-2.65
445.96,0.70,0.66,3.34,3.30,-3.28,-3.28,-3.29,-2.58,-2.61,-2.64
450.42,0.65,0.65,3.27,3.28,-3.28,-3.25,-3.29,-2.64,-2.63,-2.62
454.93,0.62,0.65,3.23,3.27,-3.30,-3.22,-3.29,-2.68,-2.64,-2.61
459.48,0.68,0.67,3.28,3.28,-3.32,-3.19,-3.29,-2.64,-2.64,-2.61
464.07,0.74,0.72,3.34,3.32,-3.33,-3.16,-3.29,-2.60,-2.62,-2.61
468.71,0.76,0.76,3.36,3.35,-3.34,-3.13,-3.29,-2.59,-2.59,-2.60
473.40,0.77,0.79,3.36,3.38,-3.35,-3.10,-3.28,-2.58,-2.56,-2.59
478.13,0.81,0.81,3.39,3.39,-3.36,-3.06,-3.28,-2.55,-2.54,-2.58
482.91,0.85,0.82,3.41,3.39,-3.37,-3.03,-3.27,-2.52,-2.54,-2.56
487.74,0.83,0.81,3.38,3.36,-3.37,-3.00,-3.26,-2.54,-2.56,-2.55
492.62,0.76,0.78,3.30,3.32,-3.35,-2.97,-3.24,-2.60,-2.57,-2.54
497.55,0.75,0.76,3.28,3.30,-3.33,-2.94,-3.22,-2.58,-2.56,-2.53
502.52,0.78,0.78,3.30,3.30,-3.30,-2.91,-3.21,-2.52,-2.52,-2.52
507.55,0.80,0.78,3.30,3.29,-3.27,-2.87,-3.18,-2.47,-2.48,-2.51
512.62,0.79,0.75,3.28,3.25,-3.23,-2.84,-3.16,-2.44,-2.48,-2.50
517.75,0.67,0.69,3.15,3.18,-3.19,-2.81,-3.13,-2.52,-2.50,-2.49
