frequency,raw,error,smoothed,error_smoothed,equalization,equalized_raw,equalized_smoothed,target
20,-17.221642708871617,-17.238121871265804,-17.152264394879005,-17.168729181403453,5.999999999999999,-11.221642708871617,-11.152264394879005,0.016479162394188673
21,-16.524637641553,-16.542283728022298,-16.570035419373895,-16.5876831369901,6.0,-10.524637641553,-10.570035419373895,0.017646086469297995
22,-15.969625083526292,-15.988387654518863,-16.00500877515653,-16.023782403156932,6.0,-9.969625083526292,-10.00500877515653,0.01876257099257117
23,-15.434888227896735,-15.454715437631878,-15.457184462226904,-15.477026979903947,5.999999999999999,-9.434888227896735,-9.457184462226905,0.01982720973514196
24,-14.894201609769883,-14.91503995331767,-14.926562480585002,-14.947416867231132,5.999999999999998,-8.894201609769885,-8.926562480585003,0.020838343547786575
25,-14.284503533799203,-14.306297562713919,-14.414662136891181,-14.436473436943022,6.000000000000001,-8.284503533799203,-8.414662136891181,0.02179402891471538
26,-13.995746366888069,-14.018438371098046,-13.919539794014813,-13.942251164908015,6.0,-7.995746366888069,-7.919539794014813,0.022692004209976968
27,-13.516755832049652,-13.540289979596656,-13.439587457996154,-13.463139864807417,6.0,-7.516755832049652,-7.439587457996154,0.023534147547003226
28,-13.014325470298436,-13.038638945266369,-12.972813169273579,-12.997143740111671,6.0,-7.014325470298436,-6.972813169273579,0.02431347496793279
29,-12.533829680409449,-12.558854399754223,-12.517202535158608,-12.542242745194745,6.000000000000001,-6.533829680409448,-6.517202535158607,0.02502471934477457
30,-11.974041298239305,-11.999702551710268,-12.071646434939883,-12.097320978940246,6.000000000000001,-5.974041298239304,-6.071646434939882,0.025661253470963263
31,-11.636101291599257,-11.66231635115943,-11.635609839061093,-11.661835267963365,5.999999999999998,-5.6361012915992585,-5.635609839061095,0.026215059560172893
32,-11.215701141628102,-11.242377950570237,-11.20914267807127,-11.235826388264547,5.999999999999999,-5.215701141628103,-5.209142678071271,0.0266768089421352
33,-10.813446507808704,-10.840482573182342,-10.792609449168394,-10.81964892799515,6.0,-4.813446507808704,-4.792609449168394,0.027036065373637452
34,-10.428662298426179,-10.455944684418382,-10.38634744125578,-10.413629715875254,5.999999999999997,-4.428662298426182,-4.386347441255782,0.027282385992203118
35,-9.980884918691594,-10.00828971098623,-9.990564828095515,-10.01796622929759,6.000000000000001,-3.9808849186915927,-3.990564828095514,0.02740479229463677
36,-9.566769906597084,-9.594162233910978,-9.605329296925586,-9.632715476692429,5.999999999999999,-3.5667699065970853,-3.6053292969255866,0.02739232731389496
37,-9.219122986352001,-9.246357337957802,-9.230708677539065,-9.25793487631628,5.999999999999999,-3.2191229863520023,-3.2307086775390657,0.02723435160580001
38,-8.869494910943674,-8.896415688758676,-8.866961590740281,-8.893873124242507,6.000000000000002,-2.869494910943672,-2.8669615907402797,0.026920777815003127
39,-8.540707551144436,-8.567149769273598,-8.514646103869698,-8.541079004186958,6.0,-2.540707551144436,-2.5146461038696977,0.026442218129161255
40,-8.213289357912892,-8.239079387507093,-8.174584973883729,-8.200366721092069,5.999999999999998,-2.2132893579128936,-2.1745849738837304,0.0257900295942024
41,-7.823362172743205,-7.848318560750419,-7.8476466600769434,-7.872596921468897,5.999999999999997,-1.8233621727432077,-1.8476466600769461,0.024956388007214336
42,-7.512576676858791,-7.536510862422652,-7.534390465845561,-7.558321754869253,6.0000000000000036,-1.5125766768587878,-1.5343904658455578,0.023934185563861288
43,-7.218800725264499,-7.241517582785713,-7.234691729781192,-7.257409897394523,6.0,-1.218800725264499,-1.2346917297811917,0.02271685752121444
44,-6.925455478325122,-6.946753603377133,-6.947488054813276,-6.968792527861417,5.999999999999998,-0.9254554783251239,-0.9474880548132774,0.02129812505201123
45,-6.6363077029443485,-6.65597936465451,-6.670768656864455,-6.690452346874729,5.999999999999999,-0.6363077029443494,-0.670768656864456,0.019671661710161104
46,-6.376047884871808,-6.3938785766983575,-6.401849620293238,-6.419698437608038,5.95565351870383,-0.42039436616797765,-0.4461961015894076,0.017830691826550282
47,-6.215342995565715,-6.231110525181908,-6.137872374711112,-6.1536642976050455,5.8624480150202265,-0.3528949805454884,-0.2754243596908852,0.015767529616192544
48,-5.911210472264177,-5.924683563650415,-5.876372326037301,-5.88987599211754,5.723518929156058,-0.18769154310811853,-0.1528533968812429,0.013473091386238423
49,-5.665682381857093,-5.676618774035733,-5.615729075755411,-5.626701882103257,5.546959478498458,-0.118722903358635,-0.06876959725695286,0.010936392178639842
50,-5.324597217424082,-5.332741266328994,-5.355352203041528,-5.3635379217009564,5.338700026416568,0.014102808992485727,-0.016652176624960546,0.008144048904911827
51,-5.082823986498854,-5.087903797372558,-5.095561721428631,-5.100687656891371,5.100687656891372,0.01786367039251857,0.005125935462741538,0.005079810873704016
52,-4.816856526060791,-4.818580663777274,-4.837244195497943,-4.83901792977373,4.83901792977373,0.022161403712939176,0.0017737342757868646,0.001724137716482943
53,-4.557051185580397,-4.555105027945983,-4.5814490101244765,-4.579554797997888,4.579554797997886,0.02250361241748955,-0.0018942121265901335,-0.0019461576344146359
54,-4.339806891449274,-4.333848704191674,-4.329096357235905,-4.323191248599178,4.323191248599179,-0.01661564285009476,-0.0059051086367256644,-0.005958187257600667
55,-4.084560347425291,-4.074217171500767,-4.080897521493764,-4.070607298632637,4.070607298632638,-0.013953048792653355,-0.010290222861126352,-0.010343175924523607
56,-3.8690317619498247,-3.8538952110513365,-3.8374746883334887,-3.822389713329133,3.822389713329133,-0.04664204862069177,-0.015084975004355794,-0.015136550898488199
57,-3.598125832717321,-3.5777479021128684,-3.599567216956262,-3.5792382877397984,3.579238287739799,-0.018887544977522097,-0.02032892921646301,-0.020377930604452477
58,-3.4096925877792206,-3.383581574799127,-3.3681721846934702,-3.3421064977600627,3.3421064977600627,-0.06758609001915783,-0.026065686933407495,-0.026111012980093662
59,-3.1105083955548616,-3.0781250274642207,-3.144505799220803,-3.1121631127824503,3.1121631127824503,0.0016547172275886979,-0.0323426864383527,-0.03238336809064091
60,-2.9042875853149983,-2.8650414423640393,-2.929767082535954,-2.8905561663548793,2.8905561663548793,-0.01373141896011898,-0.03921091618107475,-0.03924614295095896
61,-2.6849540848799656,-2.6382003954178668,-2.7247885215887093,-2.678063969431783,2.678063969431783,-0.00689011544818241,-0.04672455215692617,-0.04675368946209879
62,-2.528308476597468,-2.473345348155153,-2.5297206251207953,-2.474780093372064,2.4747800933720643,-0.053528383225403875,-0.054940531748731036,-0.05496312844231532
63,-2.3653664396495975,-2.3014325755493736,-2.3438904307396227,-2.2799723529387976,2.279972352938798,-0.0853940867107994,-0.06391807780082459,-0.06393386410022384
64,-2.1741178939968053,-2.1003908301374303,-2.165903706150794,-2.0921855188923297,2.09218551889233,-0.08193237510447515,-0.0737181872584638,-0.073727063859375
65,-1.9680103226464534,-1.8836052044219553,-1.9939616700941127,-1.9095585713770484,1.909558571377048,-0.05845175126940538,-0.08440309871706475,-0.08440511822449803
66,-1.8351683693590588,-1.7391372749239262,-1.8262813765131898,-1.7302456244551507,1.7302456244551516,-0.10492274490390718,-0.09603575205803816,-0.09603109443513258
67,-1.685467533856202,-1.5767993377746663,-1.661479181243462,-1.552799929401466,1.5527999294014656,-0.13266760445473635,-0.10867925184199634,-0.10866819608153566
68,-1.5391820735859547,-1.4168028347655601,-1.4988068794087193,-1.3764105343978246,1.3764105343978246,-0.16277153918813014,-0.12239634501089469,-0.12237923882039459
69,-1.361289509429933,-1.2240633594707573,-1.338199639125496,-1.200950717514667,1.200950717514667,-0.16033879191526612,-0.13724892161082902,-0.1372261499591758
70,-1.12295645823745,-0.9696869610882843,-1.180166809710813,-1.0268692663964694,1.0268692663964694,-0.09608719184098069,-0.15329754331434353,-0.1532694971491657
71,-0.9926867248558702,-0.8221186759536614,-1.0255979580018755,-0.8549969583080002,0.854996958308,-0.13768976654787013,-0.17060099969387543,-0.17056804890220878
72,-0.8762567186406847,-0.6870783513629093,-0.8755540390937989,-0.6863381488340198,0.6863381488340197,-0.189918569806665,-0.18921589025977925,-0.18917836727777537
73,-0.7723475227486879,-0.563193091742988,-0.7310792376561392,-0.521883002709377,0.5218830027093769,-0.25046452003931097,-0.20919623494676232,-0.20915443100569986
74,-0.595345821416207,-0.36479853579945176,-0.5930308948876679,-0.3624377756913765,0.3624377756913764,-0.23290804572483054,-0.2305931191962915,-0.2305472856167552
75,-0.4824018171454197,-0.22899710122569378,-0.46191084859021536,-0.2084564662217146,0.20845646622171454,-0.27394535092370514,-0.2534543823685008,-0.2534047159197259
76,-0.31522921232825923,-0.03745827690351461,-0.33770156648762684,-0.05987721666017437,0.05987721666017438,-0.25535199566808486,-0.27782434982745247,-0.2777709354247446
77,-0.18847682355559273,0.11520946351434477,-0.21974987732576978,0.08399369609497592,-0.08399369609497592,-0.2724705196505687,-0.3037435734207457,-0.3036862870699375
78,-0.05727157183370116,0.2739153779996315,-0.10676909550736181,0.22447939792127405,-0.22447939792127403,-0.28175096975497516,-0.3312484934286358,-0.33118694983333263
79,0.019435120462548666,0.3797397669130571,0.002979857141609898,0.3633507847485279,-0.3633507847485281,-0.3439156642859794,-0.3603709276069182,-0.3603046464505084
80,0.04736515922605608,0.4384315076647264,0.11132250166987936,0.5024599039396491,-0.5024599039396491,-0.455094744713593,-0.3911374022697698,-0.3910663484386703
81,0.14329189679062057,0.5667858726564955,0.21969343697042712,0.6432620087183516,-0.6432620087183517,-0.4999701119277311,-0.4235685717479246,-0.4234939758658749
82,0.36790118412244893,0.8255052748354197,0.32868700756458025,0.7863661954683825,-0.7863661954683825,-0.41846501134593356,-0.45767918790380224,-0.4576040907129708
83,0.40395262740510635,0.8973602115759984,0.43779167106083366,0.9312707539464354,-0.9312707539464358,-0.5273181265413294,-0.4934790828856021,-0.49340758417089203
84,0.5444105022407063,1.0753198619618924,0.5454157230435608,1.0763908836969989,-1.076390883696999,-0.5319803814562928,-0.5309751606534383,-0.530909359721186
85,0.6546289385012782,1.2247369538002246,0.6492173448485066,1.2193907228892813,-1.2193907228892815,-0.5647617843880033,-0.570173378040775,-0.5701080152989464
86,0.783449132950918,1.3944446621355415,0.7466504991412546,1.3577290284602677,-1.3577290284602672,-0.5742798955093492,-0.6110785293190126,-0.6109955291846236
87,0.8877685513659533,1.5413255068447551,0.8355706718664967,1.489259917259772,-1.489259917259772,-0.6014913658938187,-0.6536892453932753,-0.6535569554788019
88,0.8982398845854819,1.5960100206441918,0.9147341081991283,1.6127210807627423,-1.6127210807627426,-0.7144811961772607,-0.6979869725636143,-0.6977701360587099
89,0.9727151163175747,1.716320553101474,0.9840679276089351,1.7279890597219096,-1.7279890597219094,-0.7552739434043347,-0.7439211321129743,-0.7436054367838993
90,1.039208731134322,1.8302342475385325,1.0446622860359904,1.8360595059361335,-1.8360595059361335,-0.7968507748018114,-0.7913972199001431,-0.7910255164042104
91,1.1285651169666808,1.9685502540879392,1.098508377059112,1.9387864574631548,-1.9387864574631544,-0.8102213404964735,-0.8402780804040424,-0.8399851371212583
92,1.1406505836136074,2.031081609673164,1.1480563535581787,2.0384643520167094,-2.038464352016709,-0.8978137684031016,-0.8904079984585302,-0.8904310260595567
93,1.154956581119513,2.097258378124459,1.195691780044025,2.137354318981144,-2.1373543189811444,-0.9823977378616313,-0.9416625389371194,-0.9423017970049461
94,1.2724594927228121,2.267987434373488,1.2432356089943561,2.2372505839995966,-2.2372505839995975,-0.9647910912767854,-0.9940149750052414,-0.9955279416506757
95,1.2901342944551277,2.3401661936882627,1.291567417088653,2.3391644140953853,-2.339164414095385,-1.0490301196402572,-1.0475969970067318,-1.0500318992331348
96,1.3078556310932776,2.4135838439067223,1.3404540508940261,2.4431777966433628,-2.4431777966433623,-1.1353221655500847,-1.1027237457493362,-1.1057282128134447
97,1.323936037748267,2.486459817286826,1.3886301378503665,2.548487106054933,-2.548487106054933,-1.224551068306666,-1.1598569682045665,-1.1625237795385592
98,1.4241264421992021,2.6444446431682067,1.4341208620484975,2.6536181185989207,-2.6536181185989203,-1.2294916763997181,-1.2194972565504227,-1.2203182009690048
99,1.5473188279842662,2.82632306595333,1.4747299856555953,2.756752959202208,-2.7567529592022075,-1.2094341312179413,-1.2820229735466122,-1.2790042379690636
100,1.5510198048214427,2.8894881775309305,1.508560516367755,2.8560802769164773,-2.856080276916477,-1.305060472095034,-1.347519760548722,-1.338468372709488
101,1.5510189688489966,2.949610446888646,1.5344199008014916,2.9500785173622943,-2.950078517362295,-1.3990595485132986,-1.4156586165608036,-1.3985914780396493
102,1.549000018008381,3.008249609881533,1.5520014287398243,3.0376754692274863,-3.0376754692274854,-1.4886754512191045,-1.4856740404876612,-1.459249591873152
104,1.5468702190033938,3.1291496355147825,1.5618175854995147,3.1182838022520594,-3.1182838022520594,-1.5714135832486655,-1.5564662167525447,-1.5822794165113887
105,1.5461716255874403,3.189873289435581,1.5649538540880963,3.1917649099493612,-3.191764909949361,-1.6455932843619205,-1.6268110558612645,-1.6437016638481405
106,1.5476786668792264,3.252823402880231,1.5627698572607038,3.2583933165562255,-3.258393316556224,-1.7107146496769978,-1.6956234592955204,-1.7051447360010048
107,1.5513140054672332,3.3177915621750076,1.5566702744260543,3.3188676594862576,-3.3188676594862576,-1.7675536540190244,-1.7621973850602033,-1.7664775567077742
108,1.5563830703446966,3.383953281584656,1.5480033748308082,3.374353751937192,-3.374353751937191,-1.8179706815924943,-1.8263503771063827,-1.8275702112399594
109,1.5619998550318681,3.450294915858052,1.5380558214395297,3.4264851652333386,-3.4264851652333395,-1.8644853102014713,-1.8884293437938098,-1.888295060826184
110,1.567499343699677,3.5160271970862804,1.5280495388814652,3.4772276226279044,-3.477227622627903,-1.9097282789282262,-1.9491780837464379,-1.9485278533866035
111,1.4935710236606277,3.5017198324430945,1.519047428265752,3.528557129327054,-3.5285571293270546,-2.0349861056664267,-2.0095097010613028,-2.008148808782467
112,1.4763971800659426,3.5434408360414147,1.511741285970282,3.5819953054119558,-3.5819953054119558,-2.105598125346013,-2.070254019441674,-2.067043655975472
113,1.4812658564452839,3.606370455883643,1.50619099525567,3.6381438065920952,-3.638143806592095,-2.1568779501468107,-2.131952811336425,-2.125104599438359
114,1.4861057292178224,3.668336922149642,1.5016533905337517,3.696407931871173,-3.6964079318711733,-2.210302202653351,-2.1947545413374216,-2.1822311929318197
115,1.4906592585708616,3.728990358966686,1.4966369703128763,3.755061386628892,-3.7550613866288933,-2.2644021280580318,-2.258424416316017,-2.2383311003958246
117,1.4945455558927239,3.8425789981886043,1.4892363213250315,3.8116848812289468,-3.811684881228946,-2.317139325336222,-2.3224485599039144,-2.3480334422958804
118,1.497505925886189,3.8982197324611727,1.477672946264439,3.8638588672504914,-3.8638588672504905,-2.3663529413643016,-2.3861859209860516,-2.400713806574984
119,1.4995614151095835,3.9516593334474797,1.4608600682987696,3.9098753388105365,-3.909875338810536,-2.4103139237009525,-2.4490152705117665,-2.452097918337896
120,1.5009780883432537,4.003115701376463,1.438775320366459,3.949212325127193,-3.949212325127192,-2.4482342367839385,-2.5104370047607327,-2.5021376130332094
121,1.4445216355266643,3.995315875925611,1.4124885920740624,3.9826021347936935,-3.982602134793694,-2.5380804992670294,-2.5701135427196315,-2.5507942403989463
123,1.3008317532919274,3.946268600259887,1.3838267126928643,4.011683776839976,-4.011683776839976,-2.710852023548049,-2.6278570641471117,-2.6454368469679594
124,1.301933958304083,3.991875944207499,1.354801261993497,4.03839052137968,-4.03839052137968,-2.7364565630755964,-2.6835892593861823,-2.689941985903416
125,1.3031611799783083,4.036154420176531,1.3270147826263128,4.064314628890452,-4.064314628890451,-2.761153448912143,-2.7372998462641385,-2.7329932401982227
126,1.3046610335983813,4.079252770096025,1.3012561864844165,4.090276919052777,-4.090276919052777,-2.785615885454396,-2.7890207325683605,-2.774591736497644
128,1.3066705561246355,4.162239666533137,1.2774050981258673,4.116222927418543,-4.116222927418545,-2.8095523712939094,-2.838817829292678,-2.8555691104085015
129,1.2932538836207352,4.186240696852414,1.2546338833917823,4.141424380402681,-4.141424380402682,-2.8481704967819463,-2.8867904970108995,-2.8929868132316785
130,1.2220782460749002,4.1510838154081515,1.231785544100556,4.164850562153867,-4.164850562153868,-2.9427723160789676,-2.9330650180533118,-2.9290055693332513
131,1.216040961470213,4.1796933560061555,1.2077605451334237,4.185534789274475,-4.185534789274475,-2.9694938278042615,-2.977774244141051,-2.9636523945359423
133,1.161799802294537,4.193209315678809,1.1817760148866965,4.202802382472099,-4.202802382472099,-3.0410025801775618,-3.021026367585402,-3.031409513384272
134,1.1240102832980539,4.186201638273535,1.1534412522832596,4.2163161152411925,-4.216316115241193,-3.09230583194314,-3.062874862957934,-3.062191354975481
135,1.1283314369355775,4.220055536797516,1.1226801508765858,4.2259839270140755,-4.2259839270140755,-3.097652490078498,-3.1033037761374898,-3.091724099861939
137,1.13233995034267,4.282134415680572,1.0895855913664518,4.231822264451316,-4.231822264451315,-3.099482314108645,-3.1422366730848634,-3.149794465337902
138,1.0741123011280878,4.249947438747844,1.0542960714966279,4.233863170360924,-4.233863170360925,-3.159750869232837,-3.179567098864297,-3.1758351376197558
140,0.9887330456363702,4.216022015696362,1.0169497129723755,4.2321482324242945,-4.232148232424294,-3.2434151867879235,-3.215198519451918,-3.227288970059992
141,0.9396563412140505,4.189794277646341,0.9777197124166712,4.226797210050263,-4.226797210050263,-3.2871408688362123,-3.249077497633592,-3.2501379364322904
142,0.9412678766329172,4.213252935986617,0.936894453404149,4.2181019027033315,-4.218101902703332,-3.276834026070415,-3.2812074492991834,-3.2719850593537
144,0.9416228331845897,4.2571316914752515,0.8949495279203094,4.206589199568628,-4.2065891995686275,-3.264966366384038,-3.3116396716483183,-3.3155088582906616
145,0.9058764368054602,4.240441091415941,0.8525674191134367,4.193015969454067,-4.193015969454068,-3.2871395326486077,-3.340448550340631,-3.3345646546104812
147,0.7373855402883037,4.1101944416612834,0.8105833845380159,4.1782874115356,-4.178287411535599,-3.440901871247295,-3.3677040269975826,-3.3728089013729794
148,0.7366536164400882,4.126006412233883,0.769861712659428,4.16331580812956,-4.163315808129559,-3.4266621916894704,-3.3934540954701307,-3.389352795793795
150,0.7371437826690048,4.159998709803302,0.7311267820284137,4.148850919164632,-4.148850919164633,-3.411707136495628,-3.417724137136219,-3.4228549271342974
151,0.7391205729947817,4.17626489802754,0.6947856531695451,4.135316918515027,-4.135316918515027,-3.3961963455202455,-3.440531265345482,-3.437144325032758
153,0.6427226865248924,4.109126076709579,0.6607835104465167,4.122688363347794,-4.122688363347793,-3.4799656768229004,-3.4619048529012764,-3.466403390184687
154,0.6339895524415564,4.1126607726004165,0.6285312642233891,4.110433477446801,-4.110433477446802,-3.4764439250052455,-3.4819022132234125,-3.47867122015886
156,0.547560788724052,4.051703814446433,0.5969346654376402,4.097546187743446,-4.097546187743447,-3.549985399019395,-3.5006115223058067,-3.504143025722381
157,0.5515148945199123,4.0661123833113315,0.5645347610363141,4.082675259119529,-4.082675259119529,-3.531160364599617,-3.5181404980832154,-3.5145974887914195
