frequency,raw,error,smoothed,error_smoothed,equalization,equalized_raw,equalized_smoothed,target
20,-16.962555540025598,-21.08317629063351,-17.012324755211402,-21.132963750389703,5.999999999999999,-10.962555540025598,-11.012324755211402,4.120620750607913
21,-16.368101316925486,-20.52033646163482,-16.244435350367336,-20.396659870880978,6.0,-10.368101316925486,-10.244435350367336,4.152235144709332
22,-15.386946147503677,-19.56739462752717,-15.49687201073688,-19.677298429098016,6.0,-9.386946147503677,-9.49687201073688,4.180448480023496
23,-14.81623700479008,-19.02149635511162,-14.769634736320036,-18.974879425040825,5.999999999999999,-8.816237004790082,-8.769634736320036,4.205259350321538
24,-14.071780215606113,-18.29844631206035,-14.062723527116788,-18.28940285870938,5.999999999999998,-8.071780215606115,-8.06272352711679,4.2266660964542355
25,-13.388458114407735,-17.63312488931353,-13.376751166951,-17.621489867685376,6.000000000000001,-7.388458114407734,-7.376751166950998,4.244666774905798
26,-12.654856433337624,-16.914115557387884,-12.710569248136338,-16.9699876543778,6.0,-6.654856433337624,-6.710569248136338,4.259259124050261
27,-12.028180181850908,-16.29868965556145,-12.063590596316955,-16.33430069404643,6.0,-6.028180181850908,-6.0635905963169545,4.270509473710542
28,-11.400548248634411,-15.67890988922036,-11.435673805502958,-15.714268106691911,6.0,-5.400548248634411,-5.435673805502958,4.278361640585948
29,-11.089067549983156,-15.371854241494868,-10.8275084403435,-15.110544461234864,6.000000000000001,-5.089067549983155,-4.827508440343499,4.282786691511712
30,-10.199046864808752,-14.482784553469546,-10.24105882564507,-14.525042280282829,6.0,-4.199046864808752,-4.241058825645069,4.2837376886607945
31,-9.66776617141242,-13.9489130382873,-9.678921705555265,-13.960286732395176,5.999999999999999,-3.6677661714124214,-3.6789217055552657,4.281146866874879
32,-8.999399816548552,-13.274324098075017,-9.143684620341865,-13.418774153308473,5.999999999999999,-2.9993998165485527,-3.1436846203418662,4.274924281526465
33,-8.664156859226239,-12.929115479634433,-8.637070756957613,-12.902118725342644,6.0,-2.664156859226239,-2.6370707569576126,4.264958620408194
34,-8.032321061993873,-12.28345311792891,-8.15924619139362,-12.410363495761686,5.999999999999997,-2.0323210619938754,-2.159246191393623,4.251132055935038
35,-7.731457887884887,-11.964772449143023,-7.708678567607244,-11.941845347414848,6.000000000000001,-1.7314578878848863,-1.708678567607243,4.233314561258136
36,-7.36077880774203,-11.572153925245356,-7.282486789936984,-11.493553130113222,6.0,-1.3607788077420304,-1.2824867899369838,4.211375117503325
37,-6.912071229716704,-11.097263434653527,-6.877214351721683,-11.061911704084729,5.999999999999999,-0.9120712297167053,-0.8772143517216842,4.185192204936822
38,-6.588408042536686,-10.74307449367613,-6.48973000726909,-10.64369548003485,6.000000000000003,-0.5884080425366838,-0.48973000726908733,4.154666451139444
39,-5.991922470764504,-10.111657560610269,-6.117920779297078,-10.236736175981433,6.0,0.008077529235496428,-0.11792077929707823,4.119735089845765
40,-5.800945091527496,-9.88133285344696,-5.760973776698025,-9.84022090829695,5.999999999999998,0.19905490847250196,0.23902622330197332,4.0803877619194635
41,-5.436813268850084,-9.473498180891148,-5.41919516621747,-9.454528366446496,5.999999999999998,0.5631867311499139,0.580804833782528,4.036684912041063
42,-5.073031454782536,-9.061806882736123,-5.0935045045685925,-9.080740507223107,6.000000000000003,0.9269685452174663,0.9064954954314102,3.9887754279535863
43,-4.770464053398206,-8.707377938777594,-4.784847475642286,-8.7200718761269,6.0,1.2295359466017937,1.2151525243577144,3.9369138853793864
44,-4.46541994239339,-8.346896045210748,-4.493759064521089,-8.373447521299036,6.0,1.5345800576066102,1.5062409354789112,3.881476102817359
45,-4.145847097632219,-7.968818938131289,-4.220210227639008,-8.04136143426728,5.999999999999999,1.8541529023677805,1.7797897723609912,3.8229718404990702
46,-4.183284000894748,-7.945337436019116,-3.9637249654545963,-7.72400130417387,5.999999999999999,1.8167159991052513,2.036275034545403,3.762053435124368
47,-3.710193782141647,-7.409712970868653,-3.72363555003263,-7.4215062971780785,6.000000000000001,2.289806217858354,2.276364449967371,3.699519188727006
48,-3.2108672473349844,-6.84717798063863,-3.499302314421662,-7.134183379233831,6.0,2.7891327526650156,2.500697685578338,3.6363107333036453
49,-3.49557183427426,-7.069075375440887,-3.2901734646486815,-6.8625569746729145,5.999999999999999,2.5044281657257392,2.7098265353513176,3.573503541166627
50,-3.1213114815637146,-6.633601635972795,-3.0956714111137664,-6.607238071500575,6.0,2.8786885184362854,2.9043285888862336,3.5122901544090803
51,-2.8985457615655568,-6.352501800169019,-2.915005528976618,-6.368712630383902,5.968426991550221,3.069881229984664,3.0534214625736027,3.453956038603463
52,-2.7617411864957075,-6.161589537974155,-2.7470681535315133,-6.147206419293099,5.901854831190576,3.1401136446948685,3.1547866776590627,3.3998483514784477
53,-2.527925772839233,-5.879264088474539,-2.5905401444622376,-5.942753308422523,5.802378769069256,3.2744529962300235,3.2118386246070187,3.351338315635306
54,-2.2516129571524943,-5.561391225136568,-2.4442234857637697,-5.755485572075274,5.685980942541972,3.434367985389478,3.2417574567782026,3.309778267984073
55,-2.5167564997963003,-5.793211346658886,-2.307482776168635,-5.586029482821746,5.563668616981942,3.0469121171856415,3.256185840813307,3.2764548468625856
56,-2.3183376676176257,-5.570877754231153,-2.1805863839988833,-5.435798701683391,5.435798701683391,3.117461034065765,3.2552123176845074,3.2525400866135277
57,-2.0280438089653137,-5.267086242788267,-2.064747333201553,-5.306987488315974,5.306987488315974,3.27894367935066,3.2422401551144207,3.239042433822953
58,-2.0540135127341057,-5.2907733633564344,-1.9617811007288575,-5.202183006501265,5.202183006501266,3.1481694937671603,3.2404019057724085,3.2367598506223283
59,-1.6865474271221594,-4.932784642900783,-1.873473597540317,-5.12369212788875,5.12369212788875,3.437144700766591,3.2502185303484334,3.2462372157786232
60,-1.5942725216796754,-4.862002686531715,-1.8009039754914278,-5.072829432561556,5.072829432561557,3.4785569108818812,3.271925457070129,3.26773016485204
61,-1.809481519347622,-5.110658842198487,-1.744014651420299,-5.049460668603672,5.049460668603671,3.2399791492560492,3.305446017183372,3.301177322850865
62,-1.8850997960762959,-5.231282381772999,-1.701629578829055,-5.052004280764672,5.052004280764672,3.1669044846883763,3.350374701935617,3.346182585696703
63,-1.6493277464769884,-5.051336456360154,-1.6719242421599223,-5.0778956778759055,5.077895677875904,3.4285679313989155,3.4059714357159816,3.4020087098831655
64,-1.6493278303652463,-5.11691082253054,-1.6531366314145681,-5.124304230337971,5.124304230337971,3.474976399972725,3.471167598923403,3.4675829921652936
65,-1.6493281367493304,-5.19084342348802,-1.6441815588880853,-5.1887655785130695,5.188765578513069,3.539437441763738,3.5445840196249834,3.541515286738689
66,-1.6493287413948294,-5.271456785522945,-1.6448561531382029,-5.269416765548646,5.269416765548646,3.6200880241538167,3.6245606124104435,3.6221280441281154
67,-1.6493296262461081,-5.356827120469316,-1.6554976684469793,-5.364694472533142,5.364694472533141,3.7153648462870326,3.7091968040861616,3.707497494223208
68,-1.649330590520169,-5.444835156654762,-1.6762011436074697,-5.472602521232417,5.472602521232418,3.8232719307122496,3.7964013776249486,3.7955045661345936
69,-1.6493311716048769,-5.533224841031161,-1.7059137898452867,-5.589863707099685,5.589863707099687,3.9405325354948095,3.8839499172544,3.8838936694262842
70,-1.6911454321599657,-5.661482513137638,-1.7418008236425147,-5.711348498733537,5.711348498733537,4.020203066573572,3.9695476750910226,3.970337080977672
71,-1.7775234526430996,-5.830025863231254,-1.7791891463391771,-5.83008456881455,5.812229608974227,4.0347061563311275,4.03304046263505,4.052502410588154
72,-1.8504719043366202,-5.978592375904926,-1.8121801841990395,-5.937935892010377,5.889330145815485,4.038858241478865,4.0771499616164455,4.128120471568305
73,-1.8504631410884527,-6.045514008987235,-1.8347745593989058,-6.0267914805951435,5.943621681133441,4.093158540044988,4.108847121734534,4.195050867898782
74,-1.8504520006384946,-6.101794727997573,-1.842170034835927,-6.089922707486176,5.978649793688618,4.1281977930501235,4.1364797588526905,4.251342727359079
75,-2.0515905825378478,-6.346878835463219,-1.8318473280641148,-6.123121546177545,5.997227210212072,3.9456366276742245,4.165379882147958,4.295288252925371
76,-1.816598838452605,-6.142065956630623,-1.804149149406145,-6.125323161427005,5.999999999999998,4.183401161547393,4.195850850593853,4.325467118178018
77,-1.7218950161610425,-6.062675191902693,-1.762234239989855,-6.098593163914888,5.987583433106756,4.265688416945713,4.225349193116901,4.340780175741651
78,-1.4481713120915387,-5.788642767492538,-1.7114732206003043,-6.047545414585549,5.9605637801747156,4.512392468083177,4.2490905595744115,4.3404714554009995
79,-1.8505267391712483,-6.174664711018543,-1.658479856077757,-5.978383586896601,5.9195029888323205,4.068976249661072,4.261023132754564,4.3241379718472945
80,-1.6435543872724858,-5.935281798330642,-1.6100119442720942,-5.897800718442161,5.865945167294387,4.222390780021901,4.255933223022293,4.291727411058156
81,-1.549010611621029,-5.792534901336397,-1.5719468872058013,-5.81194210800534,5.801163303681079,4.252152692060051,4.229216416475278,4.243524289715368
82,-1.5491423645407694,-5.729268021339863,-1.5484776803262879,-5.725577837514556,5.725577837514555,4.176435472973786,4.177100157188267,4.180125656799094
83,-1.407958774863978,-5.510366582358897,-1.5416224011748794,-5.641578933863858,5.641578933863858,4.23362015899988,4.099956532688979,4.102407807494919
84,-1.4681419860188838,-5.479627774989506,-1.5511035019280999,-5.560755181552546,5.560755181552546,4.092613195533662,4.0096516796244455,4.011485788970623
85,-1.6497940183869821,-5.558461702085519,-1.5746194622595118,-5.4820800711660445,5.4820800711660445,3.8322860527790623,3.9074606089065327,3.908667683698537
86,-1.6495104998515744,-5.44491625351179,-1.608479523328533,-5.403277803853877,5.403277803853879,3.753767304002304,3.7947982805253457,3.795405753660216
87,-1.6489609704521169,-5.322207489834243,-1.6484919589102298,-5.321667411463553,5.321667411463553,3.672706441011436,3.673175452553323,3.673246519382126
88,-1.6481020906855612,-5.191883829540766,-1.6909077775738663,-5.235069041635615,5.235069041635614,3.5869669509500532,3.544161264061748,3.543781738855204
89,-1.7739529150078381,-5.182554970846744,-1.733170001294248,-5.1425220936900935,5.142522093690095,3.3685691786822574,3.4093520923958476,3.4086020558389056
90,-1.9271288151773682,-5.1963836370521905,-1.7742461024655074,-5.044587522756437,5.044587522756435,3.1174587075790674,3.270341420290928,3.2692548218748225
91,-1.7445820696186645,-4.87178935102476,-1.8144404306542958,-4.9431221067896765,4.9431221067896765,3.198540037171012,3.128681676135381,3.1272072814060956
92,-1.8032480594793292,-4.787064025448965,-1.8547604965205153,-4.8405897716493005,4.840589771649301,3.0373417121699724,2.9858292751287863,2.9838159659696353
93,-1.8562348365450119,-4.696537629227239,-1.896079671911305,-4.739150137439747,4.739150137439747,2.8829153008947355,2.843070465528442,2.8403027926822273
94,-1.9434873966985682,-4.641225420640312,-1.9384244007439975,-4.639861747147277,4.639861747147277,2.6963743504487088,2.7014373464032797,2.697738023941744
95,-1.9448804571452278,-4.5019103937426515,-1.980668939378194,-4.542305209536163,4.542305209536163,2.5974247523909355,2.5616362701579694,2.5570299365974236
96,-1.9481513187053852,-4.367072102229324,-2.0207576539146777,-4.444775882734066,4.444775882734066,2.4966245640286813,2.4240182288193886,2.4189207835239386
97,-2.1624114046789487,-4.446399822904088,-2.0563614327618316,-4.344978287835562,4.344978287835562,2.182566883156613,2.2886168550737302,2.2839884182251398
98,-2.238810246988041,-4.391463046138185,-2.085700815481406,-4.240963162346732,4.240963162346732,2.002152915358691,2.1552623468653263,2.152652799150144
99,-2.0740551366113853,-4.099241632557902,-2.108206844139516,-4.131959723359322,4.131959723359322,2.0579045867479366,2.023752879219806,2.0251864959465165
100,-2.0885012417578785,-3.990229523909754,-2.1247643151410562,-4.01880303987979,4.018803039879791,1.9303017981219126,1.894038724738735,1.9017282821518755
101,-2.1059351229736087,-3.8882340347969495,-2.137456647898208,-3.9038168601855885,3.903816860185589,1.7978817372119802,1.7663602122873807,1.7822989118233408
102,-2.1260487189595945,-3.7928669517938842,-2.1489276348364763,-3.7902148261602813,3.7902148261602817,1.6641661072006873,1.6412871913238054,1.6668182328342898
104,-2.148339527564977,-3.641497779356722,-2.1616085311936244,-3.6812437865654806,3.6812437865654806,1.5329042590005035,1.5196352553718562,1.493158251791745
105,-2.1721389822285326,-3.557077352457055,-2.1770825800161386,-3.579356823264404,3.579356823264404,1.4072178410358713,1.4022742432482653,1.3849383702285227
106,-2.196656125080493,-3.4767758846868957,-2.1957768275354486,-3.4856599155282666,3.485659915528266,1.2890037904477731,1.2898830879928176,1.2801197596064027
107,-2.2210321462562987,-3.3994217809089684,-2.2170291111198024,-3.399756100318931,3.3997561003189305,1.1787239540626318,1.182726989199128,1.1783896346526697
108,-2.244400500929576,-3.323816954242794,-2.239441058489901,-3.3199699645678864,3.3199699645678864,1.0755694636383102,1.0805289060779852,1.0794164533132178
109,-2.2659471139140006,-3.248810275929177,-2.2613491611834533,-3.243827506250456,3.2438275062504567,0.9778803923364561,0.9824783450670034,0.9828631620151764
110,-2.284965526928901,-3.1733643584289015,-2.2812459433621552,-3.168622730317152,3.168622730317152,0.883657203388251,0.8873767869549969,0.8883988315000004
111,-2.300902564887849,-3.096611201489986,-2.2980437446725253,-3.0919202678506847,3.091920267850685,0.791017702962836,0.7938765231781599,0.7957086366021369
112,-2.313391035731948,-3.017893216936267,-2.3111557476065303,-3.0118985030747676,3.0118985030747676,0.6985074673428198,0.7007427554682373,0.7045021812043191
113,-2.3222670428763355,-2.936787244129979,-2.320436269605276,-2.9275024135579213,2.927502413557921,0.6052353706815854,0.607066143952645,0.6145202012536437
114,-2.3275706636307385,-2.8531103609496187,-2.3260532631487765,-2.8384273941495604,2.838427394149561,0.5108567305188223,0.5123741310007843,0.5255396973188802
115,-2.329530053845276,-2.766907611429733,-2.328359235772205,-2.7449845273183153,2.7449845273183158,0.4154544734730399,0.4166252915461106,0.43737755758445696
117,-2.3285304860108846,-2.6237105064135315,-2.3277975688968597,-2.6479055159798532,2.647905515979852,0.3193750299689673,0.3201079470829922,0.2951800204026471
118,-2.3250713553501487,-2.5344703064595784,-2.324849934284255,-2.5481394327362223,2.5481394327362215,0.2230680773860727,0.22328949845196666,0.20939895110942963
119,-2.319715617387765,-2.4439036193149137,-2.320011389127446,-2.4466805882801257,2.446680588280126,0.12696497089236125,0.12666919915268027,0.12418800192714885
120,-2.313037190867668,-2.3525622779496067,-2.3137753515393307,-2.3444500932557792,2.3444500932557792,0.03141290238811134,0.030674741716448573,0.0395250870819388
121,-2.3055723068470275,-2.2609984494130675,-2.3066162213732495,-2.242235200568229,2.242235200568229,-0.0633371062787984,-0.0643810208050204,-0.04457385743395981
123,-2.2977804096833143,-2.1223233546124396,-2.298966296180572,-2.140674464543676,2.1406744645436757,-0.1571059451396386,-0.15829183163689642,-0.17545705507087472
124,-2.2900189467042447,-2.0330772390949834,-2.291190310638144,-2.040267534255075,2.0402675342550753,-0.24975141244916932,-0.2509227763830686,-0.2569417076092615
125,-2.2825343236595543,-1.9449149700318706,-2.283563614443352,-1.941389029101894,1.941389029101894,-0.3411452945576603,-0.34217458534145817,-0.3376193536276837
126,-2.2754687614389337,-1.85809593314687,-2.2762603890542716,-1.8442962343739355,1.8442962343739353,-0.4311725270649984,-0.43196415468033633,-0.4173728282920637
128,-2.2688802367637027,-1.7319841944379062,-2.2693585151370153,-1.749135462882732,1.749135462882733,-0.5197447738809697,-0.5202230522542823,-0.5368960423257965
129,-2.2627706461209907,-1.6496704393872368,-2.262867127071427,-1.6559633929216635,1.655963392921664,-0.6068072531993267,-0.6069037341497632,-0.6131002067337539
130,-2.2571162376715965,-1.569126198871043,-2.2567782929882467,-1.5647986921202488,1.564798692120249,-0.6923175455513475,-0.6919796008679977,-0.6879900388005535
131,-2.2518944460977397,-1.4904573580610259,-2.2511337967599063,-1.4757030137980645,1.4757030137980645,-0.7761914322996752,-0.7754307829618419,-0.7614370880367138
133,-2.247102499469756,-1.3793282355045684,-2.2460840315484787,-1.3888656704732916,1.388865670473292,-0.8582368289964641,-0.8572183610751867,-0.8677742639651878
134,-2.2427652245102165,-1.305987705085273,-2.2419054325956598,-1.3046465786342085,1.3046465786342085,-0.938118645876008,-0.9372588539614513,-0.9367775194249435
135,-2.238931877083976,-1.23488289769715,-2.238944389064509,-1.2235314086231812,1.2235314086231812,-1.015400468460795,-1.0154129804413279,-1.0040489793868261
137,-2.2356640559034617,-1.1363959804544805,-2.23747541147322,-1.1459785214144587,1.1459785214144589,-1.0896855344890028,-1.091496890058761,-1.0992680754489812
138,-2.2330183751661767,-1.0712403432281556,-2.237497095174553,-1.0721834379758821,1.0721834379758821,-1.1608349371902946,-1.1653136571986709,-1.161778031938021
140,-2.231028286372454,-0.9820784558916884,-2.2385279481905433,-1.0018349256593322,1.0018349256593322,-1.2291933607131218,-1.2366930225312112,-1.2489498304807656
141,-2.229689187013171,-0.9229794651671304,-2.2394864398199843,-0.933963226862416,0.933963226862416,-1.2957259601507554,-1.3055232129575685,-1.3067097218460408
142,-2.2289499137839397,-0.8663312594392609,-2.2387320779687276,-0.8669697457803417,0.8669697457803417,-1.3619801680035981,-1.371762332188386,-1.3626186543446788
144,-2.228712238147145,-0.7893888631197472,-2.23430595518383,-0.7988797366134153,0.798879736613415,-1.4298325015337299,-1.4354262185704147,-1.4393233750273977
145,-2.228838458351765,-0.7381846537621226,-2.224352413240368,-0.7277924821620121,0.7277924821620122,-1.501045976189753,-1.4965599310783557,-1.4906538045896425
147,-2.2291659400282016,-0.6689227856373523,-2.207647241970027,-0.6524410082159338,0.6524410082159335,-1.576724931812268,-1.5552062337540933,-1.5602431543908493
148,-2.229526653595166,-0.6223492891716886,-2.1841189910134418,-0.5727348364855858,0.5727348364855855,-1.6567918171095803,-1.6113841545278562,-1.6071773644234773
150,-2.2297693638464593,-0.5596854265519324,-2.1552347805072403,-0.490150043630656,0.4901500436306561,-1.7396193202158032,-1.6650847368765842,-1.6700839372945269
151,-2.20748566726997,-0.4947338297276547,-2.1241273143560715,-0.407844869612276,0.40784486961227606,-1.799640797657694,-1.7162824447437954,-1.7127518375423154
153,-1.9076726119115037,-0.13836040627267576,-2.0953621389155694,-0.3304084899106541,0.3304084899106541,-1.5772641220008496,-1.7649536490049154,-1.769312205638828
154,-1.9904301970635259,-0.18268958420712567,-2.0742911097437475,-0.2631997415459002,0.2631997415459002,-1.7272304555176257,-1.8110913681978473,-1.8077406128564002
156,-2.1277163687001033,-0.2695596714242927,-2.066022400221947,-0.2113139135846944,0.21131391358469445,-1.9164024551154089,-1.8547084866372525,-1.8581566972758106
157,-2.127054855162924,-0.23480175746334897,-2.0741609517520456,-0.17833292550934482,0.17833292550934476,-1.948721929653579,-1.8958280262427007,-1.8922530976995748
159,-2.1266730630420203,-0.19007821836504402,-2.099609248728914,-0.1651437727889593,0.16514377278895928,-1.961529290253061,-1.9344654759399547,-1.9365948446769763
160,-2.126864893379401,-0.1606915903203041,-2.139808880143378,-0.16919699223829276,0.16919699223829276,-1.9576679011411082,-1.9706118879050853,-1.9661733030590969
