frequency,raw,error,smoothed,error_smoothed,equalization,parametric_eq,equalized_raw,equalized_smoothed,target
20,-0.80,-7.45,-0.83,-7.49,6.00,2.35,5.20,5.17,6.65
21,-0.62,-7.26,-0.60,-7.24,6.00,2.71,5.38,5.40,6.65
22,-0.41,-7.04,-0.37,-7.01,6.00,3.10,5.59,5.63,6.64
23,-0.17,-6.79,-0.15,-6.78,6.00,3.52,5.83,5.85,6.63
24,0.05,-6.56,0.06,-6.56,6.00,3.97,6.05,6.06,6.61
25,0.26,-6.34,0.26,-6.34,5.97,4.43,6.23,6.23,6.60
26,0.47,-6.12,0.45,-6.14,5.90,4.89,6.38,6.35,6.59
27,0.62,-5.95,0.63,-5.94,5.81,5.32,6.43,6.44,6.57
28,0.79,-5.77,0.80,-5.75,5.69,5.71,6.48,6.50,6.56
29,0.97,-5.57,0.97,-5.57,5.55,6.02,6.53,6.52,6.54
30,1.14,-5.38,1.12,-5.40,5.40,6.22,6.55,6.52,6.52
31,1.25,-5.25,1.27,-5.24,5.24,6.32,6.49,6.51,6.51
32,1.41,-5.07,1.40,-5.08,5.08,6.29,6.50,6.49,6.49
33,1.53,-4.93,1.53,-4.93,4.93,6.17,6.46,6.47,6.47
34,1.66,-4.78,1.66,-4.79,4.79,5.97,6.45,6.44,6.44
35,1.74,-4.68,1.77,-4.65,4.65,5.72,6.39,6.42,6.42
36,1.87,-4.52,1.88,-4.51,4.51,5.43,6.39,6.40,6.40
37,2.01,-4.36,1.99,-4.38,4.38,5.13,6.40,6.37,6.37
38,2.07,-4.27,2.09,-4.26,4.26,4.83,6.33,6.34,6.34
39,2.16,-4.15,2.18,-4.14,4.14,4.55,6.30,6.31,6.31
40,2.31,-3.97,2.26,-4.02,4.02,4.28,6.33,6.29,6.29
41,2.36,-3.89,2.35,-3.91,3.91,4.02,6.27,6.25,6.25
42,2.40,-3.82,2.42,-3.80,3.80,3.79,6.20,6.22,6.22
43,2.44,-3.75,2.50,-3.70,3.70,3.58,6.14,6.19,6.19
44,2.56,-3.59,2.56,-3.59,3.59,3.38,6.16,6.16,6.16
45,2.65,-3.47,2.63,-3.49,3.49,3.21,6.14,6.12,6.12
46,2.73,-3.35,2.69,-3.39,3.39,3.05,6.12,6.08,6.08
47,2.75,-3.29,2.76,-3.29,3.29,2.91,6.04,6.05,6.05
48,2.80,-3.21,2.82,-3.19,3.19,2.78,5.99,6.01,6.01
49,2.86,-3.11,2.88,-3.09,3.09,2.67,5.95,5.97,5.97
50,2.94,-2.99,2.94,-2.99,2.99,2.56,5.93,5.93,5.93
51,3.01,-2.87,3.01,-2.88,2.88,2.46,5.89,5.89,5.89
52,3.07,-2.77,3.08,-2.77,2.77,2.37,5.84,5.84,5.84
53,3.15,-2.65,3.15,-2.65,2.65,2.29,5.80,5.80,5.80
54,3.21,-2.54,3.23,-2.53,2.53,2.21,5.74,5.76,5.76
55,3.30,-2.41,3.31,-2.40,2.40,2.14,5.70,5.71,5.71
56,3.37,-2.29,3.40,-2.26,2.26,2.06,5.63,5.66,5.66
57,3.51,-2.10,3.49,-2.12,2.12,1.99,5.64,5.62,5.62
58,3.57,-2.00,3.59,-1.98,1.98,1.91,5.56,5.57,5.57
59,3.71,-1.81,3.68,-1.84,1.84,1.83,5.56,5.52,5.52
60,3.79,-1.68,3.76,-1.71,1.71,1.75,5.50,5.47,5.47
61,3.82,-1.60,3.85,-1.57,1.57,1.67,5.40,5.42,5.42
62,3.94,-1.43,3.93,-1.44,1.44,1.58,5.39,5.37,5.37
63,3.99,-1.33,4.00,-1.32,1.32,1.49,5.31,5.32,5.32
64,4.05,-1.21,4.07,-1.20,1.20,1.39,5.25,5.27,5.27
65,4.17,-1.04,4.14,-1.08,1.08,1.30,5.25,5.22,5.22
66,4.18,-0.98,4.20,-0.96,0.96,1.19,5.15,5.16,5.16
67,4.24,-0.87,4.26,-0.85,0.85,1.09,5.09,5.11,5.11
68,4.35,-0.70,4.31,-0.74,0.74,0.98,5.10,5.06,5.06
69,4.36,-0.64,4.37,-0.64,0.64,0.87,5.00,5.00,5.00
70,4.40,-0.55,4.42,-0.53,0.53,0.76,4.93,4.95,4.95
71,4.47,-0.42,4.47,-0.42,0.42,0.64,4.90,4.90,4.90
72,4.51,-0.33,4.52,-0.32,0.32,0.53,4.83,4.84,4.84
73,4.58,-0.20,4.58,-0.21,0.21,0.41,4.79,4.79,4.79
74,4.62,-0.11,4.63,-0.10,0.10,0.29,4.73,4.73,4.73
75,4.68,0.00,4.68,0.00,-0.00,0.17,4.68,4.68,4.68
76,4.72,0.10,4.73,0.11,-0.11,0.05,4.62,4.62,4.62
77,4.80,0.23,4.78,0.21,-0.21,-0.07,4.59,4.57,4.57
78,4.83,0.32,4.83,0.32,-0.32,-0.19,4.51,4.52,4.52
79,4.86,0.40,4.88,0.42,-0.42,-0.31,4.44,4.46,4.46
80,4.95,0.55,4.93,0.53,-0.53,-0.43,4.43,4.41,4.41
81,4.97,0.62,4.98,0.63,-0.63,-0.55,4.34,4.35,4.35
82,5.07,0.77,5.03,0.73,-0.73,-0.67,4.34,4.30,4.30
83,5.05,0.81,5.08,0.83,-0.83,-0.79,4.22,4.25,4.25
84,5.11,0.92,5.13,0.94,-0.94,-0.91,4.18,4.19,4.19
85,5.16,1.02,5.18,1.04,-1.04,-1.03,4.13,4.14,4.14
86,5.26,1.17,5.23,1.14,-1.14,-1.15,4.12,4.09,4.09
87,5.27,1.23,5.28,1.24,-1.24,-1.27,4.03,4.04,4.04
88,5.33,1.35,5.33,1.34,-1.34,-1.39,3.99,3.99,3.99
89,5.37,1.44,5.38,1.44,-1.44,-1.51,3.93,3.94,3.94
90,5.43,1.55,5.43,1.54,-1.54,-1.63,3.89,3.89,3.89
91,5.47,1.64,5.48,1.64,-1.64,-1.75,3.83,3.83,3.84
92,5.53,1.75,5.52,1.74,-1.74,-1.87,3.80,3.79,3.79
93,5.58,1.85,5.57,1.83,-1.83,-1.99,3.75,3.74,3.74
94,5.59,1.91,5.61,1.92,-1.92,-2.11,3.67,3.69,3.69
95,5.66,2.02,5.65,2.01,-2.01,-2.23,3.65,3.64,3.64
96,5.68,2.09,5.70,2.10,-2.10,-2.34,3.58,3.59,3.59
97,5.75,2.21,5.74,2.19,-2.19,-2.46,3.56,3.55,3.54
98,5.80,2.30,5.79,2.29,-2.29,-2.58,3.51,3.50,3.50
99,5.81,2.36,5.84,2.39,-2.39,-2.70,3.43,3.45,3.45
100,5.90,2.50,5.89,2.49,-2.49,-2.82,3.41,3.40,3.41
101,5.91,2.55,5.95,2.59,-2.59,-2.94,3.32,3.35,3.36
102,5.96,2.64,6.00,2.70,-2.70,-3.05,3.26,3.30,3.32
104,6.08,2.85,6.06,2.81,-2.81,-3.28,3.27,3.25,3.23
105,6.13,2.94,6.12,2.92,-2.92,-3.39,3.22,3.20,3.19
106,6.20,3.05,6.17,3.02,-3.02,-3.50,3.18,3.15,3.15
107,6.25,3.15,6.23,3.12,-3.12,-3.61,3.14,3.11,3.11
108,6.26,3.20,6.28,3.21,-3.21,-3.71,3.05,3.07,3.07
109,6.33,3.31,6.32,3.30,-3.30,-3.82,3.04,3.03,3.03
110,6.36,3.38,6.37,3.38,-3.38,-3.92,2.98,2.99,2.99
111,6.38,3.43,6.41,3.47,-3.47,-4.01,2.92,2.95,2.95
112,6.47,3.56,6.46,3.55,-3.55,-4.11,2.92,2.91,2.91
113,6.51,3.64,6.51,3.64,-3.64,-4.20,2.87,2.87,2.87
114,6.53,3.70,6.56,3.73,-3.73,-4.29,2.81,2.83,2.84
115,6.57,3.77,6.61,3.82,-3.82,-4.37,2.75,2.79,2.80
117,6.70,3.97,6.66,3.91,-3.91,-4.52,2.79,2.75,2.73
118,6.70,4.01,6.71,4.01,-4.01,-4.60,2.70,2.70,2.70
119,6.78,4.12,6.76,4.10,-4.10,-4.66,2.69,2.66,2.66
120,6.82,4.19,6.81,4.19,-4.19,-4.73,2.64,2.62,2.63
121,6.80,4.21,6.86,4.27,-4.27,-4.79,2.53,2.58,2.60
123,6.93,4.40,6.90,4.36,-4.36,-4.89,2.58,2.54,2.53
124,6.95,4.45,6.94,4.44,-4.44,-4.94,2.52,2.51,2.50
125,6.95,4.48,6.98,4.52,-4.52,-4.98,2.44,2.47,2.47
126,7.00,4.56,7.02,4.59,-4.59,-5.01,2.41,2.43,2.44
128,7.09,4.71,7.06,4.66,-4.66,-5.08,2.43,2.39,2.38
129,7.11,4.76,7.09,4.74,-4.74,-5.10,2.38,2.36,2.35
130,7.12,4.80,7.13,4.80,-4.80,-5.13,2.32,2.32,2.33
131,7.12,4.82,7.16,4.87,-4.87,-5.15,2.25,2.29,2.30
133,7.23,4.99,7.19,4.94,-4.94,-5.18,2.30,2.25,2.25
134,7.21,4.99,7.22,5.00,-5.00,-5.19,2.21,2.22,2.22
135,7.21,5.02,7.25,5.07,-5.07,-5.20,2.14,2.19,2.19
137,7.30,5.16,7.28,5.13,-5.13,-5.21,2.17,2.15,2.15
138,7.28,5.16,7.32,5.20,-5.20,-5.21,2.09,2.12,2.12
140,7.41,5.34,7.35,5.26,-5.26,-5.21,2.15,2.09,2.08
141,7.37,5.32,7.38,5.32,-5.32,-5.21,2.05,2.05,2.05
142,7.38,5.35,7.41,5.39,-5.39,-5.21,2.00,2.02,2.03
144,7.44,5.46,7.44,5.45,-5.45,-5.21,2.00,1.99,1.99
145,7.46,5.50,7.47,5.51,-5.51,-5.21,1.96,1.96,1.97
147,7.48,5.56,7.50,5.57,-5.57,-5.20,1.92,1.93,1.93
148,7.53,5.63,7.52,5.62,-5.62,-5.20,1.91,1.90,1.91
150,7.55,5.69,7.55,5.68,-5.68,-5.20,1.87,1.87,1.87
151,7.57,5.72,7.58,5.73,-5.73,-5.19,1.84,1.84,1.85
153,7.61,5.80,7.60,5.79,-5.79,-5.19,1.83,1.82,1.81
154,7.63,5.84,7.63,5.84,-5.84,-5.20,1.80,1.79,1.79
156,7.66,5.90,7.65,5.88,-5.88,-5.20,1.78,1.76,1.76
157,7.66,5.92,7.67,5.93,-5.93,-5.21,1.73,1.74,1.74
159,7.69,5.98,7.69,5.98,-5.98,-5.22,1.71,1.71,1.71
160,7.69,6.00,7.72,6.03,-6.03,-5.23,1.66,1.69,1.70
162,7.74,6.08,7.74,6.08,-6.08,-5.24,1.66,1.66,1.66
164,7.79,6.16,7.77,6.13,-6.13,-5.27,1.66,1.64,1.64
165,7.76,6.14,7.80,6.18,-6.18,-5.28,1.58,1.62,1.62
167,7.86,6.27,7.83,6.24,-6.24,-5.31,1.62,1.59,1.59
169,7.86,6.30,7.87,6.29,-6.29,-5.35,1.57,1.57,1.57
170,7.89,6.34,7.90,6.35,-6.35,-5.37,1.54,1.55,1.55
172,7.94,6.42,7.94,6.41,-6.41,-5.41,1.54,1.53,1.53
174,7.97,6.47,7.97,6.47,-6.47,-5.46,1.51,1.51,1.50
175,8.01,6.52,8.01,6.52,-6.52,-5.49,1.49,1.49,1.49
177,8.02,6.55,8.05,6.58,-6.58,-5.55,1.44,1.47,1.47
179,8.07,6.63,8.08,6.64,-6.64,-5.61,1.44,1.45,1.45
181,8.14,6.72,8.12,6.69,-6.69,-5.67,1.45,1.43,1.42
183,8.18,6.78,8.16,6.75,-6.75,-5.74,1.43,1.41,1.40
184,8.19,6.80,8.20,6.81,-6.81,-5.78,1.39,1.39,1.39
186,8.20,6.83,8.23,6.86,-6.86,-5.86,1.34,1.37,1.37
188,8.23,6.88,8.27,6.91,-6.91,-5.94,1.32,1.35,1.36
190,8.31,6.98,8.30,6.96,-6.96,-6.02,1.35,1.34,1.34
192,8.34,7.02,8.32,7.01,-7.01,-6.11,1.34,1.32,1.32
194,8.38,7.08,8.35,7.05,-7.05,-6.20,1.34,1.30,1.30
196,8.36,7.08,8.37,7.08,-7.08,-6.30,1.28,1.29,1.29
198,8.37,7.10,8.38,7.11,-7.11,-6.39,1.26,1.27,1.27
200,8.37,7.12,8.39,7.14,-7.14,-6.49,1.24,1.26,1.25
202,8.38,7.14,8.40,7.15,-7.15,-6.59,1.23,1.24,1.24
204,8.41,7.19,8.39,7.17,-7.17,-6.69,1.25,1.23,1.23
206,8.39,7.18,8.39,7.18,-7.18,-6.79,1.22,1.21,1.21
208,8.39,7.19,8.38,7.18,-7.18,-6.90,1.21,1.20,1.20
210,8.38,7.20,8.36,7.18,-7.18,-7.00,1.20,1.19,1.19
212,8.34,7.17,8.35,7.18,-7.18,-7.10,1.17,1.17,1.17
214,8.32,7.16,8.34,7.17,-7.17,-7.20,1.15,1.16,1.16
216,8.32,7.17,8.32,7.17,-7.17,-7.30,1.15,1.15,1.15
218,8.29,7.15,8.31,7.18,-7.18,-7.40,1.12,1.14,1.14
221,8.27,7.15,8.30,7.18,-7.18,-7.53,1.09,1.12,1.12
223,8.26,7.15,8.30,7.19,-7.19,-7.62,1.08,1.11,1.11
225,8.31,7.21,8.29,7.19,-7.19,-7.70,1.12,1.10,1.10
227,8.30,7.21,8.29,7.20,-7.20,-7.78,1.11,1.09,1.09
229,8.32,7.24,8.28,7.20,-7.20,-7.85,1.13,1.08,1.08
232,8.27,7.20,8.26,7.19,-7.19,-7.95,1.08,1.07,1.07
234,8.23,7.17,8.24,7.18,-7.18,-8.01,1.05,1.06,1.06
236,8.21,7.16,8.21,7.16,-7.16,-8.06,1.05,1.05,1.05
239,8.17,7.13,8.18,7.14,-7.14,-8.12,1.04,1.04,1.04
241,8.12,7.09,8.14,7.11,-7.11,-8.15,1.01,1.03,1.03
244,8.12,7.10,8.10,7.08,-7.08,-8.17,1.04,1.02,1.02
246,8.06,7.05,8.07,7.05,-7.05,-8.18,1.01,1.01,1.01
248,8.00,7.00,8.03,7.02,-7.02,-8.19,0.98,1.01,1.01
251,8.00,7.01,7.99,6.99,-6.99,-8.17,1.01,1.00,1.00
253,7.95,6.96,7.95,6.96,-6.96,-8.15,0.99,0.99,0.99
256,7.89,6.91,7.91,6.93,-6.93,-8.11,0.96,0.98,0.98
259,7.86,6.89,7.87,6.90,-6.90,-8.05,0.96,0.97,0.97
261,7.83,6.87,7.83,6.87,-6.87,-8.00,0.96,0.97,0.97
264,7.82,6.87,7.79,6.84,-6.84,-7.92,0.99,0.96,0.96
266,7.76,6.81,7.75,6.80,-6.80,-7.86,0.96,0.95,0.95
269,7.71,6.77,7.71,6.76,-6.76,-7.76,0.95,0.94,0.94
272,7.63,6.70,7.67,6.73,-6.73,-7.64,0.91,0.94,0.94
274,7.61,6.68,7.62,6.69,-6.69,-7.56,0.92,0.93,0.93
277,7.59,6.67,7.58,6.65,-6.65,-7.44,0.94,0.92,0.93
280,7.53,6.61,7.53,6.61,-6.61,-7.31,0.92,0.92,0.92
283,7.48,6.57,7.48,6.57,-6.57,-7.17,0.91,0.91,0.91
286,7.41,6.51,7.44,6.53,-6.53,-7.03,0.88,0.91,0.91
288,7.39,6.49,7.39,6.49,-6.49,-6.94,0.91,0.90,0.90
291,7.36,6.47,7.34,6.44,-6.44,-6.80,0.92,0.90,0.90
294,7.29,6.40,7.29,6.40,-6.40,-6.66,0.90,0.89,0.89
297,7.21,6.33,7.23,6.35,-6.35,-6.52,0.86,0.89,0.89
300,7.17,6.29,7.18,6.30,-6.30,-6.38,0.87,0.88,0.88
303,7.14,6.27,7.13,6.25,-6.25,-6.24,0.89,0.88,0.88
306,7.07,6.20,7.07,6.20,-6.20,-6.10,0.87,0.87,0.87
309,7.00,6.14,7.01,6.15,-6.15,-5.97,0.86,0.87,0.87
312,6.95,6.09,6.96,6.09,-6.09,-5.84,0.86,0.86,0.86
316,6.91,6.06,6.90,6.04,-6.04,-5.67,0.87,0.86,0.86
319,6.81,5.96,6.84,5.99,-5.99,-5.54,0.82,0.85,0.85
322,6.79,5.94,6.78,5.94,-5.94,-5.42,0.86,0.85,0.85
325,6.73,5.89,6.73,5.88,-5.88,-5.31,0.85,0.84,0.84
328,6.67,5.83,6.67,5.83,-5.83,-5.19,0.85,0.84,0.84
332,6.58,5.75,6.61,5.77,-5.77,-5.05,0.81,0.84,0.84
335,6.56,5.73,6.55,5.72,-5.72,-4.94,0.85,0.83,0.83
338,6.49,5.66,6.49,5.66,-5.66,-4.84,0.84,0.83,0.83
342,6.42,5.60,6.42,5.60,-5.60,-4.71,0.83,0.83,0.83
345,6.37,5.55,6.36,5.54,-5.54,-4.62,0.84,0.82,0.82
349,6.28,5.46,6.29,5.47,-5.47,-4.50,0.81,0.82,0.82
352,6.24,5.43,6.23,5.41,-5.41,-4.41,0.83,0.82,0.82
356,6.12,5.31,6.16,5.35,-5.35,-4.31,0.78,0.81,0.81
359,6.09,5.28,6.09,5.28,-5.28,-4.23,0.81,0.81,0.81
363,6.04,5.24,6.02,5.22,-5.22,-4.13,0.83,0.81,0.81
366,5.94,5.14,5.95,5.15,-5.15,-4.06,0.79,0.80,0.80
370,5.89,5.09,5.88,5.08,-5.08,-3.96,0.81,0.80,0.80
374,5.79,5.00,5.81,5.01,-5.01,-3.88,0.78,0.80,0.80
377,5.75,4.96,5.74,4.94,-4.94,-3.82,0.81,0.79,0.79
381,5.66,4.87,5.66,4.87,-4.87,-3.74,0.79,0.79,0.79
385,5.58,4.79,5.59,4.80,-4.80,-3.66,0.78,0.79,0.79
389,5.51,4.73,5.51,4.73,-4.73,-3.59,0.79,0.78,0.79
393,5.44,4.66,5.43,4.65,-4.65,-3.52,0.79,0.78,0.78
397,5.34,4.56,5.35,4.57,-4.57,-3.46,0.77,0.78,0.78
401,5.27,4.50,5.27,4.50,-4.50,-3.40,0.78,0.78,0.78
405,5.17,4.40,5.19,4.41,-4.41,-3.34,0.76,0.77,0.77
409,5.12,4.35,5.10,4.33,-4.33,-3.28,0.79,0.77,0.77
413,5.02,4.25,5.02,4.25,-4.25,-3.23,0.78,0.77,0.77
417,4.93,4.17,4.93,4.16,-4.16,-3.17,0.77,0.77,0.77
421,4.82,4.06,4.84,4.07,-4.07,-3.12,0.75,0.77,0.77
425,4.75,3.99,4.74,3.98,-3.98,-3.08,0.78,0.77,0.77
430,4.62,3.86,4.65,3.88,-3.88,-3.02,0.74,0.77,0.77
434,4.55,3.79,4.56,3.79,-3.79,-2.97,0.76,0.77,0.77
438,4.48,3.72,4.46,3.69,-3.69,-2.93,0.79,0.77,0.77
443,4.35,3.58,4.36,3.60,-3.60,-2.87,0.76,0.77,0.77
447,4.27,3.50,4.27,3.50,-3.50,-2.83,0.78,0.77,0.77
451,4.17,3.40,4.17,3.40,-3.40,-2.79,0.78,0.77,0.77
456,4.07,3.30,4.07,3.29,-3.29,-2.73,0.78,0.78,0.78
460,3.98,3.20,3.97,3.19,-3.19,-2.69,0.79,0.78,0.78
465,3.85,3.06,3.88,3.09,-3.09,-2.64,0.77,0.79,0.79
470,3.75,2.96,3.78,2.98,-2.98,-2.58,0.77,0.80,0.80
474,3.70,2.90,3.68,2.87,-2.87,-2.54,0.83,0.80,0.80
479,3.58,2.77,3.58,2.77,-2.77,-2.48,0.82,0.81,0.81
484,3.47,2.65,3.48,2.66,-2.66,-2.43,0.82,0.82,0.82
489,3.40,2.57,3.38,2.54,-2.54,-2.37,0.86,0.83,0.83
494,3.26,2.42,3.28,2.43,-2.43,-2.31,0.83,0.85,0.85
499,3.16,2.30,3.17,2.31,-2.31,-2.25,0.85,0.86,0.86
504,3.06,2.19,3.06,2.19,-2.19,-2.19,0.87,0.87,0.87
509,2.98,2.09,2.96,2.07,-2.07,-2.13,0.92,0.89,0.89
514,2.85,1.95,2.85,1.94,-1.94,-2.07,0.91,0.91,0.91
519,2.72,1.80,2.74,1.82,-1.82,-2.00,0.90,0.92,0.92
524,2.61,1.67,2.63,1.69,-1.69,-1.94,0.92,0.94,0.94
529,2.52,1.56,2.53,1.56,-1.56,-1.87,0.96,0.96,0.96
535,2.41,1.43,2.41,1.43,-1.43,-1.79,0.98,0.98,0.98
540,2.33,1.33,2.30,1.30,-1.30,-1.72,1.04,1.01,1.01
545,2.22,1.19,2.19,1.16,-1.16,-1.65,1.06,1.03,1.03
551,2.08,1.03,2.08,1.02,-1.02,-1.57,1.06,1.05,1.05
556,1.96,0.89,1.96,0.89,-0.89,-1.50,1.07,1.08,1.08
562,1.82,0.72,1.86,0.76,-0.76,-1.41,1.07,1.10,1.10
568,1.72,0.60,1.75,0.63,-0.63,-1.33,1.10,1.13,1.13
573,1.65,0.50,1.65,0.50,-0.50,-1.25,1.15,1.15,1.15
579,1.53,0.35,1.56,0.38,-0.38,-1.17,1.15,1.18,1.18
585,1.45,0.24,1.47,0.26,-0.26,-1.08,1.20,1.21,1.21
591,1.39,0.15,1.38,0.14,-0.14,-0.99,1.26,1.24,1.24
596,1.33,0.06,1.28,0.01,-0.01,-0.92,1.32,1.27,1.27
602,1.22,-0.08,1.19,-0.11,0.11,-0.83,1.34,1.30,1.30
608,1.10,-0.23,1.09,-0.24,0.24,-0.75,1.35,1.33,1.33
615,0.97,-0.39,0.99,-0.38,0.38,-0.65,1.35,1.36,1.36
621,0.85,-0.54,0.88,-0.51,0.51,-0.56,1.36,1.39,1.39
627,0.76,-0.66,0.79,-0.64,0.64,-0.47,1.40,1.42,1.42
633,0.67,-0.78,0.69,-0.77,0.77,-0.39,1.44,1.46,1.46
639,0.62,-0.87,0.60,-0.89,0.89,-0.30,1.51,1.49,1.49
646,0.51,-1.01,0.52,-1.01,1.01,-0.20,1.52,1.53,1.53
652,0.47,-1.09,0.44,-1.12,1.12,-0.12,1.59,1.56,1.56
659,0.35,-1.24,0.37,-1.22,1.22,-0.02,1.57,1.60,1.60
665,0.31,-1.32,0.31,-1.32,1.32,0.06,1.63,1.63,1.63
672,0.27,-1.39,0.25,-1.41,1.41,0.16,1.69,1.67,1.67
679,0.17,-1.53,0.20,-1.50,1.50,0.26,1.68,1.70,1.70
686,0.17,-1.57,0.16,-1.58,1.58,0.35,1.76,1.74,1.74
692,0.09,-1.68,0.12,-1.66,1.66,0.43,1.75,1.78,1.78
699,0.09,-1.72,0.08,-1.73,1.73,0.53,1.82,1.81,1.81
706,0.05,-1.80,0.06,-1.79,1.79,0.62,1.85,1.85,1.85
713,0.05,-1.84,0.04,-1.85,1.85,0.72,1.90,1.89,1.89
721,0.05,-1.87,0.03,-1.90,1.90,0.83,1.95,1.93,1.93
728,0.01,-1.95,0.02,-1.94,1.94,0.92,1.96,1.97,1.97
735,-0.02,-2.02,0.02,-1.98,1.98,1.01,1.96,2.00,2.00
742,0.01,-2.03,0.03,-2.01,2.01,1.10,2.03,2.04,2.04
750,0.05,-2.02,0.04,-2.04,2.04,1.21,2.09,2.08,2.08
757,0.06,-2.05,0.05,-2.06,2.06,1.30,2.13,2.12,2.12
765,0.06,-2.09,0.07,-2.08,2.08,1.41,2.15,2.15,2.15
773,0.10,-2.09,0.09,-2.10,2.10,1.51,2.20,2.19,2.19
780,0.11,-2.11,0.11,-2.12,2.12,1.60,2.23,2.22,2.22
788,0.13,-2.13,0.12,-2.13,2.13,1.70,2.27,2.26,2.26
796,0.15,-2.14,0.14,-2.15,2.15,1.80,2.30,2.29,2.29
804,0.16,-2.17,0.17,-2.16,2.16,1.91,2.33,2.33,2.33
812,0.17,-2.19,0.19,-2.17,2.17,2.01,2.35,2.36,2.36
820,0.19,-2.20,0.22,-2.18,2.18,2.10,2.37,2.40,2.40
828,0.23,-2.20,0.24,-2.18,2.18,2.20,2.42,2.43,2.43
837,0.27,-2.19,0.27,-2.19,2.19,2.31,2.46,2.46,2.46
845,0.31,-2.18,0.30,-2.19,2.19,2.40,2.50,2.49,2.49
853,0.34,-2.18,0.33,-2.19,2.19,2.50,2.53,2.52,2.52
862,0.36,-2.19,0.36,-2.20,2.20,2.60,2.56,2.55,2.55
871,0.38,-2.20,0.38,-2.21,2.21,2.70,2.59,2.58,2.58
879,0.38,-2.23,0.39,-2.22,2.22,2.78,2.60,2.61,2.61
888,0.40,-2.24,0.40,-2.24,2.24,2.88,2.65,2.64,2.64
897,0.40,-2.26,0.40,-2.27,2.27,2.97,2.67,2.67,2.67
906,0.38,-2.31,0.39,-2.31,2.31,3.06,2.69,2.69,2.69
915,0.37,-2.35,0.37,-2.35,2.35,3.14,2.72,2.72,2.72
924,0.36,-2.39,0.36,-2.39,2.39,3.22,2.76,2.75,2.75
933,0.31,-2.46,0.33,-2.44,2.44,3.30,2.76,2.78,2.78
943,0.29,-2.51,0.30,-2.50,2.50,3.37,2.79,2.80,2.80
952,0.28,-2.55,0.26,-2.56,2.56,3.44,2.85,2.83,2.83
962,0.22,-2.63,0.22,-2.63,2.63,3.51,2.86,2.85,2.85
971,0.18,-2.70,0.17,-2.71,2.71,3.57,2.89,2.88,2.88
981,0.11,-2.79,0.12,-2.79,2.79,3.63,2.90,2.91,2.91
991,0.06,-2.87,0.06,-2.87,2.87,3.69,2.94,2.93,2.93
1001,-0.01,-2.97,-0.00,-2.96,2.96,3.74,2.96,2.96,2.96
1011,-0.06,-3.05,-0.07,-3.06,3.06,3.78,3.00,2.99,2.99
1021,-0.13,-3.14,-0.14,-3.16,3.16,3.83,3.03,3.02,3.02
1031,-0.21,-3.25,-0.21,-3.25,3.25,3.86,3.04,3.04,3.04
1041,-0.27,-3.34,-0.27,-3.34,3.34,3.90,3.08,3.07,3.07
1052,-0.36,-3.46,-0.33,-3.43,3.43,3.93,3.07,3.10,3.10
1062,-0.40,-3.52,-0.39,-3.51,3.51,3.95,3.11,3.13,3.13
1073,-0.46,-3.61,-0.43,-3.58,3.58,3.98,3.13,3.16,3.16
1084,-0.50,-3.68,-0.47,-3.65,3.65,4.00,3.15,3.18,3.18
1094,-0.51,-3.72,-0.50,-3.71,3.71,4.02,3.20,3.21,3.21
1105,-0.54,-3.78,-0.53,-3.77,3.77,4.04,3.23,3.24,3.24
1116,-0.52,-3.79,-0.56,-3.83,3.83,4.05,3.31,3.27,3.27
1128,-0.58,-3.88,-0.59,-3.90,3.90,4.07,3.32,3.30,3.30
1139,-0.61,-3.94,-0.64,-3.97,3.97,4.08,3.37,3.33,3.33
1150,-0.65,-4.01,-0.69,-4.06,4.06,4.09,3.41,3.36,3.36
1162,-0.72,-4.11,-0.75,-4.15,4.15,4.10,3.43,3.40,3.40
1173,-0.80,-4.22,-0.81,-4.24,4.24,4.11,3.44,3.43,3.43
1185,-0.89,-4.35,-0.87,-4.33,4.33,4.12,3.44,3.46,3.46
1197,-0.95,-4.44,-0.91,-4.40,4.40,4.14,3.46,3.49,3.49
1209,-1.00,-4.52,-0.94,-4.46,4.46,4.15,3.47,3.52,3.52
1221,-1.01,-4.56,-0.95,-4.51,4.51,4.17,3.50,3.56,3.56
1233,-0.97,-4.56,-0.94,-4.53,4.53,4.18,3.56,3.59,3.59
1246,-0.94,-4.56,-0.91,-4.54,4.54,4.20,3.60,3.62,3.62
1258,-0.88,-4.53,-0.87,-4.53,4.53,4.23,3.65,3.66,3.66
1271,-0.80,-4.49,-0.83,-4.52,4.52,4.25,3.73,3.69,3.69
1283,-0.77,-4.49,-0.79,-4.52,4.52,4.27,3.75,3.73,3.73
1296,-0.71,-4.47,-0.76,-4.52,4.52,4.30,3.81,3.76,3.76
1309,-0.74,-4.53,-0.74,-4.54,4.54,4.34,3.80,3.80,3.80
1322,-0.73,-4.56,-0.74,-4.58,4.58,4.37,3.85,3.83,3.83
1335,-0.76,-4.62,-0.76,-4.63,4.63,4.41,3.87,3.87,3.87
1349,-0.79,-4.69,-0.79,-4.70,4.70,4.45,3.91,3.90,3.90
1362,-0.86,-4.80,-0.84,-4.78,4.78,4.50,3.93,3.94,3.94
1376,-0.89,-4.87,-0.90,-4.88,4.88,4.55,3.99,3.98,3.98
1390,-0.97,-4.98,-0.97,-4.99,4.99,4.60,4.02,4.02,4.02
1404,-1.06,-5.11,-1.04,-5.10,5.10,4.66,4.04,4.05,4.05
1418,-1.14,-5.23,-1.12,-5.22,5.22,4.72,4.08,4.09,4.09
1432,-1.21,-5.34,-1.21,-5.34,5.34,4.78,4.13,4.13,4.13
1446,-1.29,-5.46,-1.29,-5.46,5.46,4.84,4.17,4.17,4.17
1461,-1.40,-5.61,-1.37,-5.58,5.58,4.92,4.19,4.21,4.21
1475,-1.47,-5.72,-1.46,-5.71,5.71,4.99,4.24,4.25,4.25
1490,-1.52,-5.81,-1.55,-5.84,5.82,5.07,4.30,4.27,4.29
1505,-1.63,-5.96,-1.63,-5.96,5.90,5.15,4.27,4.26,4.33
1520,-1.73,-6.10,-1.72,-6.09,5.94,5.24,4.22,4.22,4.37
1535,-1.80,-6.21,-1.81,-6.22,5.97,5.32,4.18,4.16,4.41
1550,-1.89,-6.34,-1.90,-6.35,5.99,5.41,4.10,4.10,4.46
1566,-2.01,-6.50,-1.98,-6.48,6.00,5.51,3.99,4.02,4.50
1582,-2.09,-6.63,-2.07,-6.61,6.00,5.61,3.91,3.93,4.54
1597,-2.16,-6.74,-2.15,-6.74,6.00,5.71,3.84,3.85,4.58
1613,-2.22,-6.84,-2.24,-6.86,6.00,5.81,3.78,3.76,4.63
1629,-2.31,-6.98,-2.32,-6.99,6.00,5.91,3.69,3.68,4.67
1646,-2.42,-7.13,-2.40,-7.12,6.00,6.02,3.58,3.60,4.72
1662,-2.49,-7.25,-2.49,-7.25,6.00,6.13,3.51,3.51,4.76
1679,-2.57,-7.37,-2.57,-7.38,6.00,6.24,3.43,3.43,4.81
1696,-2.63,-7.48,-2.66,-7.51,6.00,6.35,3.37,3.34,4.85
1713,-2.75,-7.65,-2.75,-7.65,6.00,6.46,3.25,3.25,4.90
1730,-2.85,-7.79,-2.83,-7.78,6.00,6.56,3.15,3.17,4.95
1747,-2.94,-7.93,-2.92,-7.91,6.00,6.66,3.06,3.08,5.00
1764,-3.01,-8.05,-3.00,-8.04,6.00,6.76,2.99,3.00,5.05
1782,-3.08,-8.17,-3.08,-8.18,6.00,6.86,2.92,2.92,5.10
1800,-3.15,-8.30,-3.16,-8.31,6.00,6.95,2.85,2.84,5.15
1818,-3.23,-8.43,-3.24,-8.44,6.00,7.04,2.77,2.76,5.20
1836,-3.31,-8.56,-3.31,-8.57,6.00,7.12,2.69,2.69,5.26
1854,-3.38,-8.69,-3.38,-8.70,6.00,7.19,2.62,2.62,5.32
1873,-3.46,-8.83,-3.45,-8.83,6.00,7.26,2.54,2.55,5.38
1892,-3.52,-8.96,-3.52,-8.96,6.00,7.32,2.48,2.48,5.44
1911,-3.60,-9.10,-3.58,-9.09,6.00,7.37,2.40,2.42,5.51
1930,-3.64,-9.21,-3.64,-9.22,6.00,7.40,2.36,2.36,5.58
1949,-3.68,-9.33,-3.69,-9.34,6.00,7.43,2.32,2.31,5.65
1969,-3.75,-9.48,-3.73,-9.46,6.00,7.44,2.25,2.27,5.73
1988,-3.77,-9.58,-3.77,-9.58,6.00,7.44,2.23,2.23,5.82
2008,-3.80,-9.70,-3.79,-9.70,6.00,7.43,2.20,2.21,5.91
2028,-3.82,-9.82,-3.80,-9.81,6.00,7.41,2.18,2.20,6.01
2048,-3.83,-9.94,-3.81,-9.92,6.00,7.37,2.17,2.19,6.11
2069,-3.79,-10.01,-3.80,-10.03,6.00,7.32,2.21,2.20,6.22
2090,-3.78,-10.12,-3.80,-10.14,6.00,7.26,2.22,2.20,6.34
