frequency,raw,error,smoothed,error_smoothed,equalization,parametric_eq,equalized_raw,equalized_smoothed,target
20.00,-23.15,-19.84,-23.15,-19.84,6.00,2.73,-17.15,-17.15,-3.31
20.20,-22.97,-19.70,-22.97,-19.70,6.00,2.80,-16.97,-16.97,-3.27
20.40,-22.78,-19.56,-22.79,-19.56,6.00,2.88,-16.78,-16.79,-3.23
20.61,-22.61,-19.42,-22.61,-19.42,6.00,2.96,-16.61,-16.61,-3.19
20.81,-22.42,-19.28,-22.42,-19.28,6.00,3.05,-16.42,-16.42,-3.15
21.02,-22.25,-19.14,-22.24,-19.13,6.00,3.13,-16.25,-16.24,-3.11
21.23,-22.07,-19.00,-22.06,-18.99,6.00,3.22,-16.07,-16.06,-3.07
21.44,-21.87,-18.85,-21.88,-18.85,6.00,3.31,-15.87,-15.88,-3.03
21.66,-21.70,-18.71,-21.69,-18.71,6.00,3.40,-15.70,-15.69,-2.99
21.87,-21.51,-18.57,-21.51,-18.56,6.00,3.50,-15.51,-15.51,-2.95
22.09,-21.32,-18.42,-21.33,-18.42,6.00,3.60,-15.32,-15.33,-2.91
22.31,-21.14,-18.27,-21.15,-18.28,6.00,3.70,-15.14,-15.15,-2.87
22.54,-20.97,-18.14,-20.96,-18.13,6.00,3.80,-14.97,-14.96,-2.83
22.76,-20.77,-17.98,-20.78,-17.99,6.00,3.90,-14.77,-14.78,-2.79
22.99,-20.60,-17.85,-20.59,-17.84,6.00,4.01,-14.60,-14.59,-2.75
23.22,-20.41,-17.70,-20.41,-17.70,6.00,4.12,-14.41,-14.41,-2.71
23.45,-20.22,-17.55,-20.22,-17.55,6.00,4.24,-14.22,-14.22,-2.67
23.69,-20.04,-17.41,-20.04,-17.41,6.00,4.35,-14.04,-14.04,-2.63
23.92,-19.85,-17.26,-19.86,-17.26,6.00,4.47,-13.85,-13.86,-2.60
24.16,-19.67,-17.12,-19.67,-17.12,6.00,4.59,-13.67,-13.67,-2.56
24.40,-19.48,-16.97,-19.49,-16.97,6.00,4.71,-13.48,-13.49,-2.52
24.65,-19.31,-16.83,-19.30,-16.82,6.00,4.83,-13.31,-13.30,-2.48
24.89,-19.12,-16.68,-19.12,-16.68,6.00,4.96,-13.12,-13.12,-2.44
25.14,-18.93,-16.53,-18.93,-16.53,6.00,5.08,-12.93,-12.93,-2.40
25.39,-18.75,-16.39,-18.75,-16.38,6.00,5.21,-12.75,-12.75,-2.37
25.65,-18.57,-16.24,-18.57,-16.24,6.00,5.34,-12.57,-12.57,-2.33
25.91,-18.39,-16.10,-18.39,-16.09,6.00,5.47,-12.39,-12.39,-2.29
26.16,-18.19,-15.94,-18.20,-15.95,6.00,5.59,-12.19,-12.20,-2.26
26.43,-18.02,-15.80,-18.02,-15.80,6.00,5.72,-12.02,-12.02,-2.22
26.69,-17.84,-15.65,-17.84,-15.65,6.00,5.85,-11.84,-11.84,-2.19
26.96,-17.66,-15.51,-17.66,-15.51,6.00,5.97,-11.66,-11.66,-2.15
27.23,-17.48,-15.36,-17.47,-15.36,6.00,6.09,-11.48,-11.47,-2.12
27.50,-17.30,-15.21,-17.29,-15.21,6.00,6.21,-11.30,-11.29,-2.08
27.77,-17.11,-15.06,-17.11,-15.06,6.00,6.33,-11.11,-11.11,-2.05
28.05,-16.93,-14.92,-16.93,-14.92,6.00,6.44,-10.93,-10.93,-2.02
28.33,-16.75,-14.77,-16.75,-14.77,6.00,6.55,-10.75,-10.75,-1.98
28.62,-16.58,-14.63,-16.57,-14.62,6.00,6.65,-10.58,-10.57,-1.95
28.90,-16.39,-14.47,-16.40,-14.48,6.00,6.74,-10.39,-10.40,-1.92
29.19,-16.22,-14.33,-16.22,-14.33,6.00,6.83,-10.22,-10.22,-1.89
29.48,-16.04,-14.19,-16.04,-14.18,6.00,6.91,-10.04,-10.04,-1.86
29.78,-15.87,-14.04,-15.87,-14.04,6.00,6.98,-9.87,-9.87,-1.83
30.08,-15.70,-13.90,-15.69,-13.89,6.00,7.04,-9.70,-9.69,-1.80
30.38,-15.52,-13.75,-15.52,-13.74,6.00,7.09,-9.52,-9.52,-1.77
30.68,-15.34,-13.59,-15.34,-13.60,6.00,7.14,-9.34,-9.34,-1.74
30.99,-15.17,-13.45,-15.17,-13.46,6.00,7.17,-9.17,-9.17,-1.72
31.30,-15.00,-13.31,-15.00,-13.31,6.00,7.19,-9.00,-9.00,-1.69
31.61,-14.84,-13.17,-14.84,-13.17,6.00,7.20,-8.84,-8.84,-1.67
31.93,-14.68,-13.04,-14.67,-13.03,6.00,7.21,-8.68,-8.67,-1.64
32.24,-14.51,-12.89,-14.51,-12.89,6.00,7.20,-8.51,-8.51,-1.62
32.57,-14.35,-12.75,-14.35,-12.75,6.00,7.18,-8.35,-8.35,-1.60
32.89,-14.18,-12.61,-14.19,-12.62,6.00,7.16,-8.18,-8.19,-1.58
33.22,-14.04,-12.48,-14.04,-12.48,6.00,7.13,-8.04,-8.04,-1.56
33.55,-13.88,-12.35,-13.88,-12.34,6.00,7.09,-7.88,-7.88,-1.54
33.89,-13.74,-12.22,-13.73,-12.21,6.00,7.04,-7.74,-7.73,-1.52
34.23,-13.59,-12.09,-13.58,-12.08,6.00,6.98,-7.59,-7.58,-1.50
34.57,-13.44,-11.95,-13.43,-11.95,6.00,6.92,-7.44,-7.43,-1.49
34.92,-13.29,-11.82,-13.29,-11.82,6.00,6.86,-7.29,-7.29,-1.47
35.27,-13.14,-11.68,-13.14,-11.69,6.00,6.79,-7.14,-7.14,-1.46
35.62,-13.00,-11.55,-13.00,-11.56,6.00,6.72,-7.00,-7.00,-1.44
35.97,-12.85,-11.42,-12.86,-11.43,6.00,6.65,-6.85,-6.86,-1.43
36.33,-12.72,-11.30,-12.72,-11.30,6.00,6.57,-6.72,-6.72,-1.42
36.70,-12.59,-11.18,-12.59,-11.18,6.00,6.49,-6.59,-6.59,-1.41
37.06,-12.45,-11.05,-12.45,-11.05,6.00,6.42,-6.45,-6.45,-1.40
37.43,-12.32,-10.93,-12.32,-10.93,6.00,6.34,-6.32,-6.32,-1.39
37.81,-12.20,-10.81,-12.19,-10.81,6.00,6.26,-6.20,-6.19,-1.39
38.19,-12.07,-10.69,-12.07,-10.68,6.00,6.19,-6.07,-6.07,-1.38
38.57,-11.94,-10.56,-11.94,-10.56,6.00,6.11,-5.94,-5.94,-1.38
38.95,-11.80,-10.43,-11.82,-10.44,6.00,6.04,-5.80,-5.82,-1.37
39.34,-11.69,-10.32,-11.70,-10.32,6.00,5.97,-5.69,-5.70,-1.37
39.74,-11.58,-10.21,-11.57,-10.20,6.00,5.90,-5.58,-5.57,-1.37
40.14,-11.46,-10.09,-11.45,-10.09,6.00,5.84,-5.46,-5.45,-1.37
40.54,-11.34,-9.97,-11.33,-9.97,6.00,5.78,-5.34,-5.33,-1.37
40.94,-11.22,-9.85,-11.21,-9.85,6.00,5.72,-5.22,-5.21,-1.37
41.35,-11.10,-9.73,-11.10,-9.73,6.00,5.66,-5.10,-5.10,-1.37
41.76,-10.98,-9.62,-10.98,-9.61,6.00,5.61,-4.98,-4.98,-1.37
42.18,-10.86,-9.49,-10.86,-9.49,6.00,5.56,-4.86,-4.86,-1.37
42.60,-10.73,-9.37,-10.73,-9.37,6.00,5.52,-4.73,-4.73,-1.37
43.03,-10.61,-9.24,-10.61,-9.24,6.00,5.48,-4.61,-4.61,-1.37
43.46,-10.49,-9.12,-10.49,-9.12,6.00,5.45,-4.49,-4.49,-1.37
43.90,-10.38,-9.01,-10.36,-9.00,6.00,5.41,-4.38,-4.36,-1.37
44.33,-10.24,-8.88,-10.24,-8.87,6.00,5.39,-4.24,-4.24,-1.37
44.78,-10.12,-8.75,-10.11,-8.75,6.00,5.36,-4.12,-4.11,-1.37
45.23,-9.99,-8.62,-9.99,-8.62,6.00,5.34,-3.99,-3.99,-1.37
45.68,-9.86,-8.49,-9.86,-8.49,6.00,5.33,-3.86,-3.86,-1.37
46.13,-9.72,-8.36,-9.73,-8.36,6.00,5.32,-3.72,-3.73,-1.37
46.60,-9.60,-8.23,-9.60,-8.23,6.00,5.31,-3.60,-3.60,-1.36
47.06,-9.47,-8.10,-9.47,-8.11,6.00,5.31,-3.47,-3.47,-1.36
47.53,-9.34,-7.98,-9.34,-7.98,6.00,5.31,-3.34,-3.34,-1.36
48.01,-9.21,-7.85,-9.20,-7.85,6.00,5.31,-3.21,-3.20,-1.36
48.49,-9.08,-7.72,-9.07,-7.72,6.00,5.32,-3.08,-3.07,-1.35
48.97,-8.95,-7.60,-8.94,-7.59,6.00,5.33,-2.95,-2.94,-1.35
49.46,-8.81,-7.46,-8.81,-7.46,6.00,5.34,-2.81,-2.81,-1.34
49.96,-8.67,-7.33,-8.67,-7.33,6.00,5.36,-2.67,-2.67,-1.34
50.46,-8.54,-7.20,-8.54,-7.20,6.00,5.38,-2.54,-2.54,-1.33
50.96,-8.41,-7.08,-8.41,-7.08,6.00,5.40,-2.41,-2.41,-1.33
51.47,-8.28,-6.95,-8.28,-6.95,6.00,5.42,-2.28,-2.28,-1.32
51.99,-8.15,-6.83,-8.14,-6.82,6.00,5.45,-2.15,-2.14,-1.32
52.51,-8.03,-6.71,-8.02,-6.70,6.00,5.47,-2.03,-2.02,-1.31
53.03,-7.90,-6.58,-7.89,-6.57,6.00,5.50,-1.90,-1.89,-1.31
53.56,-7.77,-6.46,-7.76,-6.45,6.00,5.53,-1.77,-1.76,-1.31
54.10,-7.65,-6.34,-7.64,-6.33,5.99,5.56,-1.66,-1.65,-1.31
54.64,-7.52,-6.21,-7.52,-6.21,5.96,5.59,-1.55,-1.56,-1.30
55.18,-7.40,-6.09,-7.41,-6.10,5.92,5.61,-1.47,-1.48,-1.30
55.74,-7.29,-5.98,-7.30,-5.99,5.87,5.64,-1.41,-1.42,-1.31
56.29,-7.19,-5.88,-7.19,-5.88,5.81,5.67,-1.38,-1.38,-1.31
56.86,-7.09,-5.77,-7.09,-5.77,5.74,5.69,-1.35,-1.35,-1.31
57.42,-7.00,-5.68,-6.99,-5.67,5.66,5.71,-1.33,-1.33,-1.32
58.00,-6.90,-5.57,-6.90,-5.58,5.58,5.73,-1.32,-1.32,-1.32
58.58,-6.82,-5.48,-6.82,-5.49,5.49,5.74,-1.33,-1.33,-1.33
59.16,-6.75,-5.41,-6.75,-5.41,5.41,5.75,-1.34,-1.34,-1.34
59.76,-6.68,-5.33,-6.68,-5.33,5.33,5.76,-1.35,-1.35,-1.35
60.35,-6.62,-5.26,-6.62,-5.26,5.26,5.76,-1.36,-1.36,-1.36
60.96,-6.56,-5.19,-6.56,-5.19,5.19,5.76,-1.36,-1.37,-1.37
61.57,-6.51,-5.13,-6.51,-5.13,5.13,5.75,-1.37,-1.38,-1.38
62.18,-6.47,-5.08,-6.47,-5.08,5.08,5.74,-1.38,-1.39,-1.39
62.80,-6.43,-5.03,-6.43,-5.04,5.04,5.73,-1.39,-1.40,-1.40
63.43,-6.40,-4.99,-6.40,-5.00,5.00,5.70,-1.40,-1.40,-1.41
64.07,-6.38,-4.96,-6.38,-4.97,4.97,5.68,-1.41,-1.41,-1.42
64.71,-6.37,-4.94,-6.36,-4.94,4.94,5.64,-1.43,-1.42,-1.42
65.35,-6.35,-4.91,-6.35,-4.92,4.92,5.61,-1.43,-1.43,-1.43
66.01,-6.34,-4.90,-6.34,-4.90,4.90,5.56,-1.44,-1.44,-1.44
66.67,-6.33,-4.88,-6.33,-4.89,4.89,5.52,-1.44,-1.44,-1.44
67.33,-6.33,-4.88,-6.33,-4.88,4.88,5.47,-1.45,-1.45,-1.45
68.01,-6.33,-4.87,-6.33,-4.87,4.87,5.42,-1.45,-1.45,-1.45
68.69,-6.34,-4.88,-6.33,-4.87,4.87,5.36,-1.47,-1.46,-1.46
69.37,-6.34,-4.88,-6.33,-4.87,4.87,5.30,-1.47,-1.46,-1.46
70.07,-6.34,-4.87,-6.33,-4.87,4.87,5.24,-1.47,-1.46,-1.46
70.77,-6.35,-4.88,-6.34,-4.87,4.87,5.18,-1.47,-1.47,-1.47
71.48,-6.35,-4.88,-6.34,-4.87,4.87,5.11,-1.47,-1.47,-1.47
72.19,-6.36,-4.88,-6.35,-4.88,4.88,5.05,-1.48,-1.47,-1.47
72.91,-6.36,-4.88,-6.36,-4.88,4.88,4.98,-1.48,-1.48,-1.47
73.64,-6.36,-4.88,-6.36,-4.88,4.88,4.91,-1.48,-1.48,-1.48
74.38,-6.36,-4.87,-6.37,-4.88,4.88,4.85,-1.47,-1.49,-1.48
75.12,-6.37,-4.88,-6.37,-4.88,4.88,4.78,-1.49,-1.49,-1.48
75.87,-6.38,-4.89,-6.37,-4.88,4.88,4.72,-1.50,-1.50,-1.49
76.63,-6.38,-4.88,-6.37,-4.87,4.87,4.65,-1.50,-1.50,-1.49
77.40,-6.38,-4.88,-6.37,-4.87,4.87,4.59,-1.51,-1.50,-1.50
78.17,-6.38,-4.87,-6.36,-4.86,4.86,4.53,-1.52,-1.51,-1.50
78.95,-6.37,-4.86,-6.35,-4.85,4.85,4.47,-1.52,-1.51,-1.51
79.74,-6.36,-4.85,-6.34,-4.84,4.84,4.42,-1.52,-1.51,-1.51
80.54,-6.34,-4.82,-6.33,-4.82,4.82,4.36,-1.51,-1.51,-1.51
81.35,-6.32,-4.80,-6.32,-4.81,4.81,4.31,-1.51,-1.51,-1.51
82.16,-6.31,-4.79,-6.30,-4.79,4.79,4.26,-1.52,-1.51,-1.51
82.98,-6.28,-4.76,-6.28,-4.77,4.77,4.22,-1.51,-1.51,-1.51
83.81,-6.25,-4.74,-6.26,-4.75,4.75,4.18,-1.50,-1.51,-1.51
84.65,-6.22,-4.71,-6.23,-4.73,4.73,4.14,-1.49,-1.50,-1.51
85.50,-6.20,-4.69,-6.20,-4.70,4.70,4.10,-1.49,-1.50,-1.50
86.35,-6.18,-4.68,-6.17,-4.68,4.68,4.06,-1.50,-1.50,-1.50
87.22,-6.15,-4.65,-6.14,-4.65,4.65,4.03,-1.50,-1.50,-1.50
88.09,-6.13,-4.63,-6.11,-4.62,4.62,4.01,-1.51,-1.50,-1.50
88.97,-6.10,-4.60,-6.08,-4.58,4.58,3.98,-1.51,-1.50,-1.50
89.86,-6.07,-4.57,-6.05,-4.55,4.55,3.96,-1.52,-1.51,-1.50
90.76,-6.02,-4.51,-6.02,-4.51,4.51,3.94,-1.51,-1.52,-1.50
91.66,-5.99,-4.47,-5.99,-4.47,4.47,3.93,-1.52,-1.52,-1.51
92.58,-5.96,-4.43,-5.96,-4.42,4.42,3.91,-1.54,-1.54,-1.52
93.51,-5.92,-4.37,-5.93,-4.37,4.37,3.90,-1.54,-1.56,-1.54
94.44,-5.90,-4.33,-5.89,-4.32,4.32,3.90,-1.58,-1.58,-1.56
95.39,-5.87,-4.28,-5.86,-4.26,4.26,3.89,-1.60,-1.60,-1.59
96.34,-5.85,-4.23,-5.83,-4.21,4.21,3.89,-1.64,-1.63,-1.62
97.30,-5.82,-4.17,-5.80,-4.15,4.15,3.89,-1.67,-1.65,-1.65
98.28,-5.79,-4.10,-5.78,-4.09,4.09,3.90,-1.70,-1.69,-1.68
99.26,-5.75,-4.03,-5.76,-4.03,4.03,3.90,-1.72,-1.73,-1.72
100.25,-5.73,-3.96,-5.74,-3.97,3.97,3.91,-1.75,-1.77,-1.76
101.25,-5.71,-3.90,-5.72,-3.92,3.92,3.92,-1.79,-1.81,-1.80
102.27,-5.70,-3.85,-5.71,-3.86,3.86,3.93,-1.84,-1.85,-1.85
103.29,-5.69,-3.79,-5.70,-3.81,3.81,3.95,-1.88,-1.90,-1.89
104.32,-5.69,-3.75,-5.69,-3.76,3.76,3.96,-1.93,-1.94,-1.94
105.37,-5.69,-3.70,-5.69,-3.71,3.71,3.98,-1.98,-1.98,-1.98
106.42,-5.69,-3.66,-5.69,-3.66,3.66,3.99,-2.02,-2.02,-2.03
107.48,-5.70,-3.63,-5.69,-3.62,3.62,4.01,-2.07,-2.06,-2.07
108.56,-5.71,-3.60,-5.69,-3.59,3.59,4.02,-2.12,-2.10,-2.11
109.64,-5.71,-3.56,-5.69,-3.55,3.55,4.04,-2.15,-2.14,-2.15
110.74,-5.71,-3.52,-5.70,-3.52,3.52,4.05,-2.18,-2.18,-2.18
111.85,-5.71,-3.49,-5.71,-3.50,3.50,4.07,-2.21,-2.21,-2.21
112.97,-5.71,-3.46,-5.71,-3.47,3.47,4.08,-2.23,-2.24,-2.24
114.10,-5.71,-3.43,-5.72,-3.45,3.45,4.09,-2.26,-2.27,-2.27
115.24,-5.71,-3.41,-5.72,-3.43,3.43,4.10,-2.28,-2.29,-2.30
116.39,-5.72,-3.40,-5.72,-3.41,3.41,4.11,-2.31,-2.32,-2.32
117.55,-5.73,-3.39,-5.72,-3.39,3.39,4.11,-2.34,-2.34,-2.34
118.73,-5.73,-3.38,-5.72,-3.36,3.36,4.11,-2.36,-2.36,-2.35
119.92,-5.73,-3.36,-5.71,-3.34,3.34,4.11,-2.38,-2.37,-2.36
121.12,-5.72,-3.34,-5.70,-3.32,3.32,4.10,-2.40,-2.38,-2.37
122.33,-5.71,-3.32,-5.69,-3.29,3.29,4.09,-2.41,-2.39,-2.38
123.55,-5.69,-3.30,-5.67,-3.26,3.26,4.08,-2.42,-2.40,-2.39
124.79,-5.66,-3.26,-5.64,-3.23,3.23,4.06,-2.43,-2.41,-2.40
126.03,-5.63,-3.22,-5.61,-3.20,3.20,4.04,-2.43,-2.42,-2.40
127.29,-5.61,-3.20,-5.58,-3.16,3.16,4.02,-2.45,-2.42,-2.41
128.57,-5.58,-3.16,-5.55,-3.12,3.12,3.99,-2.45,-2.42,-2.41
129.85,-5.53,-3.11,-5.52,-3.09,3.09,3.95,-2.44,-2.43,-2.42
131.15,-5.48,-3.05,-5.49,-3.05,3.05,3.92,-2.42,-2.43,-2.42
132.46,-5.45,-3.01,-5.46,-3.02,3.02,3.88,-2.42,-2.44,-2.43
133.79,-5.42,-2.97,-5.44,-2.99,2.99,3.83,-2.42,-2.45,-2.44
135.12,-5.39,-2.93,-5.43,-2.97,2.97,3.79,-2.42,-2.46,-2.45
136.48,-5.38,-2.91,-5.42,-2.95,2.95,3.74,-2.43,-2.47,-2.46
137.84,-5.39,-2.91,-5.41,-2.93,2.93,3.69,-2.45,-2.48,-2.48
139.22,-5.40,-2.90,-5.42,-2.92,2.92,3.63,-2.47,-2.50,-2.49
140.61,-5.42,-2.91,-5.43,-2.92,2.92,3.58,-2.50,-2.51,-2.51
142.02,-5.47,-2.94,-5.45,-2.92,2.92,3.52,-2.55,-2.53,-2.53
143.44,-5.49,-2.94,-5.48,-2.93,2.93,3.47,-2.56,-2.55,-2.55
144.87,-5.53,-2.96,-5.51,-2.94,2.94,3.41,-2.59,-2.57,-2.57
146.32,-5.56,-2.97,-5.54,-2.95,2.95,3.35,-2.61,-2.60,-2.59
147.78,-5.60,-2.99,-5.58,-2.96,2.96,3.29,-2.63,-2.62,-2.61
149.26,-5.64,-3.01,-5.62,-2.98,2.98,3.23,-2.65,-2.64,-2.63
150.75,-5.67,-3.01,-5.66,-3.00,3.00,3.17,-2.66,-2.66,-2.65
152.26,-5.71,-3.03,-5.70,-3.02,3.02,3.11,-2.68,-2.68,-2.67
153.78,-5.76,-3.06,-5.75,-3.04,3.04,3.06,-2.71,-2.70,-2.70
155.32,-5.80,-3.08,-5.79,-3.07,3.07,3.00,-2.73,-2.73,-2.72
156.88,-5.86,-3.11,-5.84,-3.10,3.10,2.95,-2.76,-2.75,-2.74
158.44,-5.89,-3.12,-5.90,-3.13,3.13,2.89,-2.76,-2.77,-2.77
160.03,-5.95,-3.16,-5.95,-3.16,3.16,2.84,-2.78,-2.79,-2.79
161.63,-5.99,-3.17,-6.01,-3.20,3.20,2.79,-2.79,-2.81,-2.81
163.24,-6.05,-3.21,-6.08,-3.24,3.24,2.74,-2.80,-2.83,-2.83
164.88,-6.14,-3.28,-6.14,-3.29,3.29,2.70,-2.85,-2.86,-2.86
166.53,-6.20,-3.32,-6.21,-3.34,3.34,2.65,-2.86,-2.88,-2.88
168.19,-6.27,-3.37,-6.29,-3.39,3.39,2.61,-2.88,-2.90,-2.89
169.87,-6.37,-3.45,-6.36,-3.44,3.44,2.57,-2.92,-2.91,-2.91
171.57,-6.44,-3.51,-6.43,-3.50,3.50,2.53,-2.93,-2.93,-2.93
173.29,-6.51,-3.57,-6.50,-3.56,3.56,2.50,-2.95,-2.94,-2.94
175.02,-6.60,-3.65,-6.57,-3.62,3.62,2.46,-2.98,-2.95,-2.95
176.77,-6.66,-3.70,-6.64,-3.68,3.68,2.43,-2.98,-2.96,-2.96
178.54,-6.72,-3.75,-6.70,-3.74,3.74,2.40,-2.98,-2.96,-2.96
180.32,-6.78,-3.81,-6.76,-3.80,3.80,2.38,-2.98,-2.97,-2.97
182.13,-6.83,-3.86,-6.82,-3.85,3.85,2.35,-2.97,-2.97,-2.97
183.95,-6.88,-3.91,-6.87,-3.91,3.91,2.33,-2.97,-2.97,-2.97
185.79,-6.92,-3.95,-6.92,-3.96,3.96,2.31,-2.96,-2.97,-2.96
187.65,-6.95,-3.99,-6.97,-4.01,4.01,2.29,-2.94,-2.96,-2.96
189.52,-7.00,-4.04,-7.01,-4.05,4.05,2.28,-2.94,-2.96,-2.96
191.42,-7.04,-4.08,-7.04,-4.09,4.09,2.26,-2.94,-2.95,-2.95
193.33,-7.08,-4.13,-7.08,-4.13,4.13,2.25,-2.95,-2.95,-2.95
195.27,-7.11,-4.16,-7.11,-4.16,4.16,2.23,-2.94,-2.94,-2.94
197.22,-7.13,-4.18,-7.13,-4.19,4.19,2.22,-2.94,-2.94,-2.94
199.19,-7.15,-4.21,-7.15,-4.21,4.21,2.21,-2.94,-2.94,-2.94
201.18,-7.17,-4.23,-7.17,-4.22,4.22,2.20,-2.95,-2.95,-2.94
203.19,-7.17,-4.22,-7.17,-4.22,4.22,2.20,-2.94,-2.95,-2.94
205.23,-7.17,-4.22,-7.17,-4.22,4.22,2.19,-2.95,-2.96,-2.94
207.28,-7.17,-4.22,-7.16,-4.20,4.20,2.18,-2.96,-2.96,-2.95
209.35,-7.16,-4.20,-7.14,-4.18,4.18,2.17,-2.98,-2.97,-2.95
211.44,-7.13,-4.16,-7.11,-4.14,4.14,2.16,-2.99,-2.97,-2.96
213.56,-7.09,-4.12,-7.07,-4.09,4.09,2.15,-3.00,-2.98,-2.97
215.69,-7.05,-4.06,-7.02,-4.03,4.03,2.14,-3.02,-2.99,-2.98
217.85,-6.97,-3.97,-6.96,-3.95,3.95,2.12,-3.01,-3.00,-2.99
220.03,-6.90,-3.89,-6.88,-3.87,3.87,2.10,-3.03,-3.02,-3.01
222.23,-6.81,-3.78,-6.80,-3.77,3.77,2.09,-3.04,-3.03,-3.02
224.45,-6.70,-3.66,-6.71,-3.66,3.66,2.06,-3.03,-3.05,-3.04
226.70,-6.59,-3.53,-6.61,-3.55,3.55,2.04,-3.04,-3.07,-3.06
228.96,-6.46,-3.38,-6.50,-3.42,3.42,2.01,-3.04,-3.08,-3.07
231.25,-6.38,-3.28,-6.37,-3.28,3.28,1.97,-3.10,-3.09,-3.09
233.57,-6.26,-3.15,-6.24,-3.13,3.13,1.93,-3.12,-3.11,-3.11
235.90,-6.09,-2.96,-6.10,-2.97,2.97,1.88,-3.11,-3.12,-3.13
238.26,-5.97,-2.82,-5.95,-2.81,2.81,1.83,-3.16,-3.14,-3.14
240.64,-5.79,-2.63,-5.79,-2.63,2.63,1.77,-3.15,-3.16,-3.16
243.05,-5.65,-2.47,-5.62,-2.45,2.45,1.71,-3.20,-3.17,-3.17
245.48,-5.47,-2.28,-5.44,-2.26,2.26,1.64,-3.21,-3.19,-3.19
247.93,-5.23,-2.03,-5.26,-2.06,2.06,1.56,-3.17,-3.20,-3.19
250.41,-5.06,-1.85,-5.06,-1.85,1.85,1.48,-3.21,-3.21,-3.20
252.92,-4.82,-1.61,-4.84,-1.63,1.63,1.38,-3.19,-3.21,-3.21
255.45,-4.63,-1.41,-4.62,-1.40,1.40,1.28,-3.22,-3.22,-3.21
258.00,-4.44,-1.22,-4.39,-1.17,1.17,1.18,-3.27,-3.22,-3.22
260.58,-4.17,-0.95,-4.15,-0.92,0.92,1.06,-3.24,-3.23,-3.22
263.19,-3.94,-0.72,-3.90,-0.68,0.68,0.94,-3.26,-3.23,-3.22
265.82,-3.62,-0.40,-3.64,-0.42,0.42,0.81,-3.20,-3.22,-3.22
268.48,-3.37,-0.15,-3.37,-0.16,0.16,0.68,-3.21,-3.22,-3.21
271.16,-3.13,0.08,-3.10,0.11,-0.11,0.54,-3.24,-3.21,-3.21
273.87,-2.80,0.41,-2.82,0.38,-0.38,0.39,-3.18,-3.20,-3.20
276.61,-2.53,0.67,-2.54,0.66,-0.66,0.24,-3.18,-3.19,-3.19
279.38,-2.25,0.93,-2.25,0.94,-0.94,0.08,-3.18,-3.18,-3.18
282.17,-1.98,1.19,-1.95,1.21,-1.21,-0.08,-3.19,-3.16,-3.16
284.99,-1.70,1.45,-1.65,1.49,-1.49,-0.25,-3.19,-3.15,-3.15
287.84,-1.32,1.82,-1.36,1.77,-1.77,-0.42,-3.09,-3.13,-3.13
290.72,-1.05,2.07,-1.07,2.05,-2.05,-0.60,-3.09,-3.12,-3.12
293.63,-0.77,2.34,-0.78,2.32,-2.32,-0.78,-3.09,-3.10,-3.10
296.57,-0.48,2.61,-0.50,2.59,-2.59,-0.96,-3.07,-3.09,-3.09
299.53,-0.20,2.87,-0.21,2.87,-2.87,-1.15,-3.06,-3.07,-3.07
302.53,0.09,3.15,0.07,3.13,-3.13,-1.34,-3.04,-3.06,-3.05
305.55,0.37,3.41,0.35,3.40,-3.40,-1.53,-3.02,-3.05,-3.04
308.61,0.64,3.67,0.63,3.66,-3.66,-1.73,-3.02,-3.03,-3.02
311.69,0.93,3.94,0.91,3.93,-3.93,-1.93,-2.99,-3.01,-3.01
314.81,1.15,4.14,1.19,4.19,-4.19,-2.13,-3.03,-3.00,-2.99
317.96,1.41,4.39,1.47,4.45,-4.45,-2.34,-3.03,-2.98,-2.97
321.14,1.71,4.67,1.74,4.70,-4.70,-2.54,-2.99,-2.96,-2.95
324.35,2.01,4.95,2.02,4.96,-4.96,-2.75,-2.95,-2.94,-2.94
327.59,2.30,5.22,2.30,5.22,-5.22,-2.96,-2.92,-2.92,-2.92
330.87,2.54,5.44,2.58,5.48,-5.48,-3.18,-2.93,-2.90,-2.89
334.18,2.83,5.71,2.86,5.73,-5.73,-3.39,-2.90,-2.88,-2.87
337.52,3.15,6.00,3.13,5.99,-5.99,-3.61,-2.83,-2.85,-2.85
340.90,3.41,6.24,3.41,6.24,-6.24,-3.83,-2.83,-2.83,-2.82
344.30,3.71,6.51,3.69,6.49,-6.49,-4.06,-2.78,-2.80,-2.80
347.75,3.96,6.73,3.96,6.74,-6.74,-4.28,-2.77,-2.77,-2.77
351.23,4.23,6.98,4.23,6.98,-6.98,-4.51,-2.74,-2.74,-2.74
354.74,4.47,7.19,4.50,7.21,-7.21,-4.75,-2.74,-2.72,-2.72
358.28,4.74,7.44,4.75,7.44,-7.44,-4.98,-2.70,-2.69,-2.70
361.87,4.98,7.66,4.99,7.66,-7.66,-5.22,-2.68,-2.67,-2.67
365.49,5.25,7.90,5.23,7.88,-7.88,-5.46,-2.63,-2.65,-2.65
369.14,5.47,8.10,5.46,8.09,-8.09,-5.70,-2.61,-2.63,-2.63
372.83,5.68,8.29,5.68,8.29,-8.29,-5.95,-2.60,-2.61,-2.61
376.56,5.91,8.50,5.88,8.48,-8.48,-6.20,-2.56,-2.59,-2.59
380.33,6.10,8.67,6.08,8.66,-8.66,-6.46,-2.56,-2.58,-2.57
384.13,6.28,8.84,6.27,8.83,-8.83,-6.72,-2.55,-2.56,-2.55
387.97,6.45,8.99,6.46,9.00,-9.00,-6.98,-2.55,-2.54,-2.54
391.85,6.61,9.14,6.63,9.16,-9.16,-7.24,-2.55,-2.53,-2.53
395.77,6.76,9.28,6.79,9.31,-9.31,-7.51,-2.55,-2.52,-2.52
399.73,6.91,9.42,6.93,9.45,-9.45,-7.78,-2.54,-2.52,-2.51
403.72,7.06,9.57,7.07,9.59,-9.59,-8.06,-2.52,-2.52,-2.51
407.76,7.19,9.70,7.20,9.71,-9.71,-8.34,-2.52,-2.52,-2.50
411.84,7.32,9.83,7.32,9.83,-9.83,-8.62,-2.51,-2.52,-2.51
415.96,7.43,9.94,7.42,9.94,-9.94,-8.90,-2.51,-2.52,-2.51
420.12,7.54,10.06,7.52,10.04,-10.04,-9.19,-2.50,-2.52,-2.52
424.32,7.63,10.16,7.61,10.13,-10.13,-9.47,-2.50,-2.52,-2.52
428.56,7.68,10.22,7.68,10.21,-10.21,-9.76,-2.53,-2.53,-2.53
432.85,7.74,10.28,7.75,10.28,-10.28,-10.05,-2.54,-2.53,-2.54
437.18,7.80,10.35,7.80,10.34,-10.34,-10.33,-2.54,-2.54,-2.55
441.55,7.85,10.41,7.84,10.40,-10.40,-10.61,-2.54,-2.55,-2.56
445.96,7.88,10.45,7.88,10.44,-10.44,-10.89,-2.55,-2.56,-2.57
450.42,7.91,10.49,7.90,10.47,-10.47,-11.15,-2.56,-2.57,-2.57
454.93,7.93,10.51,7.92,10.50,-10.50,-11.41,-2.57,-2.58,-2.58
459.48,7.93,10.52,7.93,10.52,-10.52,-11.66,-2.59,-2.59,-2.58
464.07,7.93,10.52,7.94,10.54,-10.54,-11.89,-2.60,-2.60,-2.59
468.71,7.93,10.52,7.95,10.55,-10.55,-12.11,-2.61,-2.60,-2.59
473.40,7.93,10.52,7.95,10.56,-10.56,-12.30,-2.62,-2.60,-2.59
478.13,7.92,10.51,7.95,10.56,-10.56,-12.47,-2.63,-2.60,-2.59
482.91,7.92,10.51,7.95,10.56,-10.56,-12.62,-2.63,-2.61,-2.59
487.74,7.93,10.53,7.95,10.55,-10.55,-12.73,-2.62,-2.61,-2.59
492.62,7.93,10.53,7.94,10.55,-10.55,-12.82,-2.61,-2.60,-2.59
497.55,7.93,10.52,7.94,10.53,-10.53,-12.87,-2.60,-2.60,-2.59
502.52,7.92,10.51,7.92,10.52,-10.52,-12.90,-2.59,-2.59,-2.59
507.55,7.91,10.50,7.91,10.50,-10.50,-12.88,-2.58,-2.59,-2.59
512.62,7.90,10.48,7.89,10.47,-10.47,-12.84,-2.56,-2.58,-2.58
517.75,7.88,10.46,7.87,10.43,-10.43,-12.77,-2.55,-2.56,-2.57
522.93,7.86,10.43,7.84,10.39,-10.39,-12.67,-2.53,-2.55,-2.56
528.16,7.82,10.37,7.81,10.35,-10.35,-12.54,-2.52,-2.54,-2.55
533.44,7.77,10.31,7.77,10.29,-10.29,-12.39,-2.52,-2.52,-2.54
538.77,7.72,10.24,7.72,10.23,-10.23,-12.22,-2.51,-2.51,-2.52
544.16,7.67,10.18,7.67,10.16,-10.16,-12.03,-2.49,-2.50,-2.50
