frequency,raw,smoothed,error,error_smoothed,equalization,parametric_eq,fixed_band_eq,equalized_raw,equalized_smoothed,target
20.00,2.31,2.31,0.82,0.82,-0.81,-1.42,-0.33,1.50,1.50,1.49
20.20,2.45,2.46,0.93,0.93,-0.93,-1.40,-0.34,1.52,1.52,1.52
20.40,2.59,2.59,1.03,1.04,-1.04,-1.39,-0.35,1.54,1.55,1.55
20.61,2.72,2.72,1.15,1.14,-1.15,-1.38,-0.36,1.57,1.57,1.57
20.81,2.84,2.84,1.24,1.24,-1.25,-1.37,-0.38,1.59,1.59,1.60
21.02,2.95,2.95,1.33,1.33,-1.34,-1.36,-0.39,1.62,1.62,1.63
21.23,3.05,3.05,1.42,1.41,-1.42,-1.34,-0.40,1.64,1.63,1.64
21.44,3.15,3.14,1.50,1.49,-1.49,-1.33,-0.42,1.65,1.65,1.65
21.66,3.21,3.22,1.56,1.56,-1.56,-1.32,-0.43,1.65,1.66,1.66
21.87,3.29,3.29,1.63,1.62,-1.62,-1.30,-0.45,1.66,1.66,1.66
22.09,3.34,3.34,1.68,1.68,-1.68,-1.29,-0.46,1.67,1.66,1.67
22.31,3.38,3.39,1.72,1.72,-1.72,-1.27,-0.48,1.67,1.67,1.67
22.54,3.41,3.42,1.75,1.75,-1.75,-1.26,-0.49,1.67,1.67,1.67
22.76,3.43,3.43,1.77,1.77,-1.77,-1.24,-0.51,1.67,1.67,1.66
22.99,3.43,3.43,1.78,1.78,-1.77,-1.23,-0.53,1.66,1.66,1.65
23.22,3.42,3.42,1.77,1.77,-1.76,-1.21,-0.55,1.66,1.66,1.65
23.45,3.40,3.40,1.75,1.75,-1.75,-1.19,-0.56,1.66,1.66,1.65
23.69,3.37,3.38,1.72,1.73,-1.72,-1.17,-0.58,1.65,1.65,1.65
23.92,3.34,3.34,1.69,1.69,-1.69,-1.16,-0.60,1.65,1.65,1.65
24.16,3.30,3.30,1.64,1.64,-1.65,-1.14,-0.62,1.65,1.65,1.66
24.40,3.25,3.26,1.59,1.60,-1.61,-1.12,-0.63,1.65,1.65,1.66
24.65,3.20,3.21,1.56,1.56,-1.56,-1.10,-0.65,1.64,1.65,1.65
24.89,3.16,3.16,1.52,1.51,-1.51,-1.08,-0.67,1.65,1.65,1.65
25.14,3.11,3.11,1.47,1.47,-1.47,-1.06,-0.69,1.65,1.65,1.65
25.39,3.06,3.06,1.42,1.42,-1.42,-1.04,-0.71,1.64,1.65,1.65
25.65,3.01,3.01,1.37,1.37,-1.37,-1.02,-0.73,1.64,1.64,1.64
25.91,2.96,2.96,1.32,1.32,-1.32,-1.00,-0.74,1.63,1.64,1.63
26.16,2.90,2.91,1.27,1.27,-1.27,-0.97,-0.76,1.63,1.63,1.63
26.43,2.86,2.85,1.22,1.22,-1.22,-0.95,-0.78,1.63,1.63,1.63
26.69,2.80,2.81,1.17,1.18,-1.17,-0.93,-0.79,1.63,1.63,1.63
26.96,2.75,2.75,1.13,1.13,-1.12,-0.90,-0.81,1.63,1.63,1.63
27.23,2.71,2.70,1.08,1.07,-1.08,-0.88,-0.82,1.63,1.63,1.63
27.50,2.64,2.65,1.02,1.03,-1.03,-0.85,-0.83,1.62,1.62,1.63
27.77,2.59,2.59,0.98,0.98,-0.98,-0.83,-0.84,1.61,1.62,1.61
28.05,2.54,2.54,0.93,0.93,-0.93,-0.80,-0.85,1.61,1.61,1.61
28.33,2.48,2.49,0.88,0.88,-0.88,-0.77,-0.86,1.60,1.60,1.60
28.62,2.44,2.44,0.84,0.84,-0.84,-0.74,-0.87,1.60,1.60,1.60
28.90,2.38,2.38,0.79,0.79,-0.79,-0.71,-0.87,1.60,1.60,1.60
29.19,2.33,2.33,0.75,0.74,-0.74,-0.68,-0.87,1.60,1.59,1.59
29.48,2.27,2.28,0.68,0.69,-0.69,-0.65,-0.87,1.59,1.59,1.59
29.78,2.22,2.22,0.64,0.64,-0.64,-0.62,-0.87,1.59,1.59,1.58
30.08,2.17,2.16,0.58,0.58,-0.58,-0.59,-0.86,1.58,1.58,1.58
30.38,2.11,2.10,0.54,0.53,-0.53,-0.55,-0.85,1.58,1.57,1.57
30.68,2.03,2.04,0.47,0.47,-0.47,-0.52,-0.84,1.56,1.57,1.57
30.99,1.98,1.98,0.42,0.42,-0.42,-0.48,-0.83,1.56,1.56,1.56
31.30,1.92,1.91,0.36,0.36,-0.36,-0.45,-0.81,1.56,1.56,1.55
31.61,1.84,1.85,0.29,0.30,-0.30,-0.41,-0.79,1.55,1.55,1.55
31.93,1.78,1.77,0.24,0.24,-0.23,-0.37,-0.76,1.54,1.54,1.54
32.24,1.70,1.70,0.18,0.17,-0.17,-0.33,-0.74,1.53,1.53,1.53
32.57,1.64,1.64,0.11,0.11,-0.12,-0.29,-0.71,1.52,1.52,1.52
32.89,1.57,1.57,0.05,0.06,-0.06,-0.25,-0.68,1.51,1.51,1.52
33.22,1.51,1.51,0.01,0.00,-0.01,-0.21,-0.64,1.51,1.51,1.51
33.55,1.45,1.45,-0.05,-0.05,0.05,-0.16,-0.61,1.50,1.50,1.51
33.89,1.39,1.40,-0.10,-0.10,0.10,-0.12,-0.57,1.49,1.49,1.49
34.23,1.34,1.34,-0.14,-0.14,0.14,-0.07,-0.52,1.49,1.49,1.49
34.57,1.29,1.29,-0.18,-0.19,0.19,-0.03,-0.48,1.48,1.48,1.48
34.92,1.24,1.24,-0.23,-0.23,0.23,0.02,-0.43,1.46,1.47,1.46
35.27,1.19,1.18,-0.27,-0.27,0.27,0.07,-0.38,1.46,1.46,1.46
35.62,1.13,1.13,-0.31,-0.32,0.31,0.12,-0.33,1.45,1.44,1.45
35.97,1.07,1.08,-0.36,-0.36,0.36,0.18,-0.28,1.43,1.43,1.43
36.33,1.02,1.03,-0.41,-0.40,0.40,0.23,-0.23,1.42,1.43,1.43
36.70,0.97,0.97,-0.44,-0.44,0.45,0.28,-0.17,1.42,1.42,1.42
37.06,0.91,0.91,-0.49,-0.49,0.50,0.34,-0.11,1.41,1.41,1.40
37.43,0.85,0.85,-0.54,-0.54,0.55,0.40,-0.05,1.40,1.40,1.40
37.81,0.77,0.78,-0.61,-0.60,0.60,0.46,0.01,1.38,1.38,1.38
38.19,0.70,0.71,-0.66,-0.67,0.66,0.52,0.07,1.37,1.37,1.37
38.57,0.63,0.63,-0.73,-0.73,0.72,0.58,0.13,1.36,1.36,1.36
38.95,0.55,0.56,-0.79,-0.79,0.79,0.64,0.20,1.34,1.35,1.35
39.34,0.48,0.48,-0.85,-0.85,0.86,0.71,0.26,1.34,1.34,1.33
39.74,0.40,0.40,-0.91,-0.92,0.92,0.77,0.33,1.33,1.33,1.32
40.14,0.32,0.32,-1.00,-0.99,0.99,0.84,0.40,1.31,1.31,1.31
40.54,0.24,0.24,-1.06,-1.06,1.06,0.91,0.47,1.30,1.30,1.30
40.94,0.15,0.15,-1.14,-1.14,1.13,0.97,0.54,1.29,1.29,1.29
41.35,0.07,0.07,-1.20,-1.21,1.20,1.04,0.61,1.28,1.28,1.28
41.76,-0.01,-0.01,-1.28,-1.28,1.27,1.12,0.68,1.26,1.26,1.27
42.18,-0.09,-0.08,-1.35,-1.34,1.34,1.19,0.75,1.25,1.25,1.26
42.60,-0.16,-0.16,-1.40,-1.41,1.40,1.26,0.82,1.25,1.25,1.25
43.03,-0.23,-0.23,-1.46,-1.46,1.47,1.34,0.90,1.24,1.24,1.24
43.46,-0.31,-0.30,-1.53,-1.52,1.53,1.41,0.97,1.22,1.22,1.22
43.90,-0.38,-0.39,-1.58,-1.59,1.59,1.49,1.05,1.20,1.20,1.19
44.33,-0.48,-0.48,-1.65,-1.65,1.65,1.56,1.12,1.17,1.18,1.18
44.78,-0.57,-0.56,-1.72,-1.72,1.71,1.64,1.20,1.15,1.15,1.16
45.23,-0.64,-0.64,-1.78,-1.78,1.78,1.71,1.28,1.14,1.14,1.14
45.68,-0.73,-0.72,-1.85,-1.85,1.85,1.79,1.36,1.13,1.13,1.12
46.13,-0.81,-0.81,-1.91,-1.91,1.92,1.87,1.44,1.12,1.12,1.10
46.60,-0.89,-0.90,-1.99,-1.99,2.00,1.94,1.52,1.10,1.10,1.09
47.06,-1.00,-0.99,-2.07,-2.07,2.07,2.02,1.60,1.07,1.08,1.07
47.53,-1.10,-1.09,-2.15,-2.15,2.15,2.09,1.68,1.05,1.05,1.05
48.01,-1.20,-1.20,-2.24,-2.23,2.22,2.17,1.76,1.03,1.03,1.04
48.49,-1.30,-1.30,-2.31,-2.31,2.30,2.24,1.85,1.00,1.00,1.01
48.97,-1.40,-1.39,-2.38,-2.38,2.38,2.31,1.93,0.98,0.98,0.98
49.46,-1.50,-1.50,-2.45,-2.45,2.46,2.38,2.01,0.96,0.96,0.95
49.96,-1.59,-1.60,-2.51,-2.52,2.53,2.45,2.10,0.94,0.93,0.92
50.46,-1.70,-1.71,-2.61,-2.61,2.61,2.51,2.18,0.90,0.90,0.91
50.96,-1.82,-1.81,-2.70,-2.69,2.68,2.58,2.26,0.87,0.87,0.88
51.47,-1.93,-1.92,-2.78,-2.77,2.77,2.63,2.35,0.84,0.85,0.85
51.99,-2.01,-2.02,-2.84,-2.85,2.85,2.69,2.43,0.84,0.84,0.83
52.51,-2.11,-2.11,-2.93,-2.92,2.95,2.74,2.51,0.83,0.83,0.81
53.03,-2.22,-2.22,-3.00,-3.01,3.04,2.79,2.59,0.82,0.82,0.79
53.56,-2.34,-2.34,-3.10,-3.10,3.13,2.84,2.67,0.79,0.79,0.76
54.10,-2.46,-2.47,-3.20,-3.20,3.21,2.87,2.74,0.74,0.74,0.74
54.64,-2.58,-2.59,-3.30,-3.30,3.27,2.91,2.82,0.69,0.69,0.71
55.18,-2.69,-2.68,-3.37,-3.36,3.32,2.94,2.89,0.63,0.64,0.69
55.74,-2.74,-2.73,-3.39,-3.39,3.35,2.97,2.96,0.61,0.61,0.66
56.29,-2.75,-2.75,-3.39,-3.39,3.35,2.99,3.02,0.61,0.60,0.64
56.86,-2.74,-2.73,-3.35,-3.35,3.34,3.00,3.08,0.60,0.61,0.61
57.42,-2.71,-2.71,-3.29,-3.29,3.31,3.01,3.14,0.61,0.60,0.58
58.00,-2.67,-2.67,-3.23,-3.24,3.27,3.02,3.19,0.61,0.60,0.57
58.58,-2.65,-2.64,-3.19,-3.19,3.22,3.02,3.23,0.58,0.58,0.55
59.16,-2.62,-2.62,-3.14,-3.15,3.17,3.01,3.28,0.56,0.55,0.52
59.76,-2.62,-2.62,-3.12,-3.12,3.12,3.00,3.31,0.50,0.50,0.50
60.35,-2.61,-2.61,-3.08,-3.08,3.06,2.98,3.34,0.45,0.45,0.47
60.96,-2.60,-2.59,-3.05,-3.03,3.00,2.96,3.36,0.40,0.41,0.45
61.57,-2.56,-2.55,-2.96,-2.96,2.93,2.94,3.38,0.38,0.38,0.41
62.18,-2.50,-2.50,-2.87,-2.88,2.86,2.90,3.39,0.37,0.36,0.37
62.80,-2.44,-2.44,-2.78,-2.78,2.79,2.87,3.39,0.35,0.35,0.35
63.43,-2.39,-2.38,-2.70,-2.70,2.72,2.83,3.39,0.33,0.33,0.31
64.07,-2.34,-2.34,-2.62,-2.63,2.65,2.79,3.38,0.32,0.31,0.29
64.71,-2.32,-2.31,-2.58,-2.57,2.60,2.74,3.37,0.28,0.28,0.26
65.35,-2.31,-2.30,-2.54,-2.54,2.56,2.69,3.34,0.25,0.25,0.23
66.01,-2.31,-2.31,-2.51,-2.51,2.53,2.64,3.32,0.23,0.22,0.20
66.67,-2.33,-2.33,-2.50,-2.50,2.52,2.59,3.28,0.19,0.19,0.18
67.33,-2.36,-2.36,-2.50,-2.50,2.50,2.53,3.24,0.15,0.15,0.15
68.01,-2.39,-2.38,-2.50,-2.50,2.49,2.47,3.20,0.10,0.10,0.12
68.69,-2.41,-2.40,-2.49,-2.49,2.46,2.41,3.15,0.06,0.06,0.08
69.37,-2.41,-2.40,-2.46,-2.46,2.43,2.35,3.10,0.02,0.02,0.05
70.07,-2.39,-2.38,-2.41,-2.41,2.38,2.29,3.04,-0.01,-0.01,0.02
70.77,-2.35,-2.34,-2.34,-2.34,2.31,2.23,2.98,-0.03,-0.03,-0.00
71.48,-2.29,-2.29,-2.25,-2.25,2.23,2.16,2.92,-0.05,-0.05,-0.04
72.19,-2.23,-2.22,-2.15,-2.15,2.15,2.10,2.86,-0.08,-0.07,-0.07
72.91,-2.16,-2.16,-2.05,-2.05,2.06,2.03,2.79,-0.09,-0.09,-0.11
73.64,-2.11,-2.10,-1.96,-1.96,1.99,1.97,2.72,-0.12,-0.12,-0.15
74.38,-2.07,-2.07,-1.89,-1.89,1.92,1.91,2.65,-0.14,-0.15,-0.17
75.12,-2.05,-2.05,-1.83,-1.84,1.87,1.84,2.58,-0.18,-0.18,-0.21
75.87,-2.06,-2.06,-1.81,-1.81,1.83,1.78,2.50,-0.23,-0.23,-0.24
76.63,-2.08,-2.08,-1.80,-1.80,1.80,1.72,2.43,-0.27,-0.27,-0.27
77.40,-2.11,-2.10,-1.80,-1.80,1.79,1.66,2.36,-0.32,-0.31,-0.30
78.17,-2.13,-2.13,-1.78,-1.79,1.78,1.60,2.28,-0.35,-0.35,-0.35
78.95,-2.15,-2.15,-1.78,-1.78,1.77,1.54,2.21,-0.38,-0.38,-0.37
79.74,-2.17,-2.16,-1.76,-1.76,1.76,1.48,2.13,-0.41,-0.41,-0.40
80.54,-2.18,-2.18,-1.74,-1.74,1.73,1.42,2.06,-0.45,-0.45,-0.44
81.35,-2.19,-2.18,-1.72,-1.71,1.70,1.37,1.99,-0.49,-0.49,-0.47
82.16,-2.18,-2.17,-1.67,-1.67,1.65,1.31,1.92,-0.53,-0.52,-0.51
82.98,-2.15,-2.15,-1.61,-1.61,1.60,1.26,1.85,-0.55,-0.55,-0.53
83.81,-2.12,-2.12,-1.54,-1.54,1.54,1.21,1.78,-0.58,-0.58,-0.58
84.65,-2.09,-2.09,-1.47,-1.47,1.48,1.16,1.71,-0.61,-0.61,-0.62
85.50,-2.06,-2.06,-1.41,-1.41,1.42,1.11,1.64,-0.64,-0.64,-0.65
86.35,-2.04,-2.03,-1.35,-1.35,1.36,1.06,1.57,-0.67,-0.67,-0.68
87.22,-2.02,-2.02,-1.29,-1.30,1.31,1.01,1.51,-0.70,-0.71,-0.72
88.09,-2.03,-2.03,-1.26,-1.27,1.27,0.97,1.44,-0.75,-0.75,-0.76
88.97,-2.05,-2.04,-1.25,-1.24,1.24,0.93,1.38,-0.80,-0.80,-0.80
89.86,-2.06,-2.06,-1.22,-1.22,1.22,0.88,1.32,-0.84,-0.84,-0.84
90.76,-2.09,-2.09,-1.20,-1.20,1.21,0.84,1.25,-0.88,-0.88,-0.89
91.66,-2.13,-2.12,-1.20,-1.19,1.20,0.81,1.19,-0.93,-0.92,-0.92
92.58,-2.16,-2.16,-1.18,-1.19,1.19,0.77,1.14,-0.96,-0.97,-0.98
93.51,-2.20,-2.20,-1.19,-1.19,1.18,0.73,1.08,-1.01,-1.02,-1.01
94.44,-2.25,-2.24,-1.19,-1.19,1.18,0.70,1.02,-1.07,-1.06,-1.05
95.39,-2.29,-2.28,-1.19,-1.18,1.17,0.66,0.96,-1.12,-1.11,-1.10
96.34,-2.31,-2.31,-1.15,-1.17,1.16,0.63,0.91,-1.15,-1.16,-1.15
97.30,-2.35,-2.34,-1.15,-1.15,1.15,0.60,0.86,-1.20,-1.20,-1.20
98.28,-2.38,-2.37,-1.13,-1.13,1.13,0.57,0.80,-1.24,-1.24,-1.24
99.26,-2.40,-2.40,-1.11,-1.11,1.11,0.54,0.75,-1.28,-1.29,-1.29
100.25,-2.43,-2.43,-1.09,-1.09,1.10,0.51,0.70,-1.33,-1.33,-1.33
101.25,-2.46,-2.45,-1.08,-1.07,1.08,0.49,0.65,-1.38,-1.38,-1.38
102.27,-2.49,-2.48,-1.06,-1.05,1.06,0.46,0.61,-1.43,-1.43,-1.43
103.29,-2.51,-2.51,-1.02,-1.03,1.04,0.44,0.56,-1.47,-1.47,-1.48
104.32,-2.54,-2.53,-1.02,-1.01,1.02,0.41,0.51,-1.52,-1.52,-1.52
105.37,-2.56,-2.56,-0.99,-0.99,0.99,0.39,0.47,-1.56,-1.57,-1.57
106.42,-2.58,-2.58,-0.96,-0.97,0.96,0.37,0.42,-1.61,-1.62,-1.61
107.48,-2.61,-2.60,-0.95,-0.94,0.93,0.35,0.38,-1.68,-1.67,-1.66
108.56,-2.61,-2.61,-0.89,-0.90,0.89,0.33,0.34,-1.71,-1.72,-1.71
109.64,-2.62,-2.61,-0.86,-0.86,0.85,0.31,0.30,-1.77,-1.76,-1.76
110.74,-2.63,-2.61,-0.82,-0.80,0.80,0.29,0.26,-1.83,-1.81,-1.81
111.85,-2.58,-2.60,-0.72,-0.75,0.74,0.27,0.22,-1.83,-1.86,-1.85
112.97,-2.60,-2.60,-0.68,-0.69,0.69,0.26,0.18,-1.91,-1.91,-1.92
114.10,-2.61,-2.59,-0.64,-0.62,0.62,0.24,0.14,-1.98,-1.96,-1.96
115.24,-2.58,-2.58,-0.56,-0.56,0.56,0.22,0.11,-2.01,-2.02,-2.02
116.39,-2.57,-2.57,-0.49,-0.50,0.50,0.21,0.08,-2.06,-2.07,-2.07
117.55,-2.56,-2.56,-0.43,-0.43,0.44,0.19,0.04,-2.11,-2.11,-2.13
118.73,-2.56,-2.55,-0.38,-0.38,0.38,0.18,0.01,-2.17,-2.17,-2.18
119.92,-2.55,-2.55,-0.32,-0.32,0.32,0.16,-0.02,-2.22,-2.23,-2.22
121.12,-2.55,-2.55,-0.27,-0.27,0.26,0.15,-0.05,-2.28,-2.28,-2.28
122.33,-2.55,-2.53,-0.22,-0.21,0.20,0.14,-0.07,-2.34,-2.33,-2.33
123.55,-2.51,-2.52,-0.14,-0.14,0.14,0.12,-0.10,-2.36,-2.37,-2.37
124.79,-2.50,-2.50,-0.07,-0.08,0.08,0.11,-0.13,-2.41,-2.42,-2.42
126.03,-2.49,-2.49,-0.01,-0.02,0.02,0.10,-0.15,-2.47,-2.47,-2.47
127.29,-2.49,-2.48,0.04,0.04,-0.06,0.08,-0.17,-2.54,-2.54,-2.52
128.57,-2.48,-2.47,0.11,0.11,-0.13,0.07,-0.19,-2.60,-2.60,-2.58
129.85,-2.46,-2.46,0.17,0.17,-0.19,0.06,-0.21,-2.65,-2.65,-2.63
131.15,-2.44,-2.43,0.24,0.24,-0.24,0.05,-0.23,-2.68,-2.67,-2.68
132.46,-2.42,-2.41,0.31,0.31,-0.28,0.03,-0.25,-2.69,-2.69,-2.72
133.79,-2.40,-2.39,0.37,0.38,-0.31,0.02,-0.27,-2.71,-2.70,-2.76
135.12,-2.41,-2.43,0.41,0.38,-0.34,0.01,-0.29,-2.75,-2.77,-2.82
136.48,-2.48,-2.51,0.38,0.35,-0.37,-0.01,-0.30,-2.84,-2.87,-2.85
137.84,-2.65,-2.59,0.25,0.31,-0.38,-0.02,-0.32,-3.02,-2.97,-2.90
139.22,-2.66,-2.64,0.29,0.30,-0.37,-0.03,-0.33,-3.03,-3.01,-2.95
140.61,-2.64,-2.63,0.36,0.35,-0.35,-0.05,-0.34,-2.98,-2.98,-2.99
142.02,-2.60,-2.61,0.42,0.41,-0.32,-0.06,-0.36,-2.91,-2.93,-3.02
143.44,-2.62,-2.66,0.44,0.40,-0.29,-0.07,-0.37,-2.91,-2.95,-3.06
144.87,-2.77,-2.77,0.33,0.33,-0.29,-0.09,-0.38,-3.06,-3.06,-3.10
146.32,-2.91,-2.89,0.23,0.24,-0.32,-0.10,-0.39,-3.23,-3.21,-3.14
147.78,-3.00,-2.96,0.17,0.21,-0.36,-0.12,-0.41,-3.36,-3.32,-3.16
149.26,-2.93,-2.93,0.28,0.28,-0.41,-0.13,-0.42,-3.34,-3.34,-3.20
150.75,-2.84,-2.84,0.41,0.40,-0.45,-0.15,-0.43,-3.29,-3.29,-3.25
152.26,-2.74,-2.73,0.55,0.56,-0.48,-0.17,-0.44,-3.22,-3.21,-3.29
153.78,-2.66,-2.65,0.67,0.67,-0.52,-0.18,-0.45,-3.18,-3.18,-3.32
155.32,-2.62,-2.64,0.75,0.73,-0.58,-0.20,-0.47,-3.19,-3.21,-3.37
156.88,-2.70,-2.74,0.71,0.67,-0.63,-0.22,-0.48,-3.32,-3.36,-3.40
158.44,-2.87,-2.88,0.58,0.56,-0.66,-0.24,-0.49,-3.52,-3.54,-3.44
160.03,-3.10,-3.01,0.39,0.48,-0.64,-0.26,-0.50,-3.73,-3.65,-3.49
161.63,-3.05,-3.01,0.48,0.51,-0.58,-0.28,-0.51,-3.62,-3.59,-3.53
163.24,-2.98,-2.97,0.59,0.59,-0.49,-0.31,-0.53,-3.47,-3.47,-3.57
164.88,-2.88,-2.98,0.72,0.62,-0.40,-0.33,-0.54,-3.28,-3.39,-3.60
166.53,-3.14,-3.17,0.49,0.47,-0.33,-0.36,-0.56,-3.48,-3.50,-3.64
168.19,-3.44,-3.42,0.24,0.26,-0.28,-0.38,-0.57,-3.72,-3.70,-3.68
169.87,-3.72,-3.63,-0.00,0.08,-0.26,-0.41,-0.58,-3.97,-3.89,-3.71
171.57,-3.70,-3.69,0.05,0.06,-0.25,-0.44,-0.60,-3.94,-3.94,-3.75
173.29,-3.62,-3.64,0.17,0.15,-0.25,-0.48,-0.61,-3.87,-3.89,-3.79
175.02,-3.52,-3.53,0.31,0.30,-0.28,-0.51,-0.63,-3.80,-3.81,-3.82
176.77,-3.44,-3.44,0.43,0.42,-0.35,-0.55,-0.65,-3.79,-3.80,-3.87
178.54,-3.38,-3.37,0.53,0.53,-0.46,-0.59,-0.66,-3.84,-3.84,-3.91
180.32,-3.32,-3.31,0.63,0.63,-0.59,-0.63,-0.68,-3.91,-3.91,-3.94
182.13,-3.26,-3.26,0.72,0.72,-0.72,-0.68,-0.70,-3.97,-3.97,-3.98
183.95,-3.20,-3.20,0.82,0.82,-0.82,-0.73,-0.72,-4.02,-4.02,-4.02
185.79,-3.15,-3.14,0.90,0.91,-0.91,-0.78,-0.74,-4.06,-4.05,-4.05
187.65,-3.10,-3.09,0.99,0.99,-0.99,-0.84,-0.76,-4.08,-4.08,-4.09
189.52,-3.05,-3.05,1.07,1.07,-1.06,-0.90,-0.78,-4.11,-4.11,-4.12
191.42,-3.01,-3.01,1.14,1.14,-1.14,-0.96,-0.80,-4.15,-4.15,-4.15
193.33,-2.98,-2.98,1.20,1.20,-1.21,-1.03,-0.82,-4.19,-4.19,-4.18
195.27,-2.95,-2.94,1.26,1.27,-1.28,-1.11,-0.84,-4.22,-4.22,-4.21
197.22,-2.91,-2.90,1.33,1.34,-1.34,-1.19,-0.86,-4.25,-4.24,-4.23
199.19,-2.85,-2.86,1.43,1.40,-1.40,-1.27,-0.89,-4.25,-4.26,-4.27
201.18,-2.82,-2.82,1.47,1.47,-1.46,-1.36,-0.91,-4.28,-4.28,-4.29
203.19,-2.81,-2.79,1.50,1.52,-1.52,-1.45,-0.93,-4.32,-4.30,-4.30
205.23,-2.75,-2.76,1.58,1.57,-1.57,-1.55,-0.96,-4.32,-4.33,-4.33
207.28,-2.72,-2.72,1.62,1.62,-1.62,-1.65,-0.98,-4.34,-4.35,-4.34
209.35,-2.70,-2.69,1.66,1.67,-1.67,-1.75,-1.00,-4.37,-4.36,-4.36
211.44,-2.66,-2.65,1.73,1.72,-1.72,-1.84,-1.03,-4.37,-4.37,-4.38
213.56,-2.62,-2.62,1.77,1.77,-1.77,-1.93,-1.05,-4.38,-4.38,-4.39
215.69,-2.58,-2.58,1.82,1.81,-1.81,-2.02,-1.07,-4.39,-4.40,-4.39
217.85,-2.55,-2.54,1.86,1.86,-1.86,-2.09,-1.10,-4.41,-4.41,-4.40
220.03,-2.51,-2.50,1.91,1.91,-1.91,-2.15,-1.12,-4.42,-4.41,-4.42
222.23,-2.45,-2.45,1.98,1.97,-1.96,-2.19,-1.14,-4.41,-4.41,-4.43
224.45,-2.40,-2.39,2.02,2.03,-2.03,-2.22,-1.16,-4.43,-4.42,-4.42
226.70,-2.34,-2.32,2.08,2.10,-2.13,-2.23,-1.18,-4.47,-4.45,-4.42
228.96,-2.25,-2.25,2.18,2.16,-2.25,-2.22,-1.20,-4.50,-4.50,-4.42
231.25,-2.17,-2.19,2.25,2.23,-2.35,-2.19,-1.22,-4.52,-4.54,-4.41
233.57,-2.11,-2.09,2.31,2.33,-2.40,-2.15,-1.24,-4.51,-4.49,-4.41
235.90,-2.01,-1.93,2.41,2.48,-2.39,-2.09,-1.26,-4.40,-4.32,-4.41
238.26,-1.79,-1.77,2.62,2.64,-2.32,-2.03,-1.28,-4.10,-4.09,-4.41
240.64,-1.68,-1.79,2.72,2.61,-2.23,-1.96,-1.29,-3.90,-4.01,-4.40
243.05,-1.91,-2.05,2.48,2.34,-2.16,-1.88,-1.31,-4.06,-4.21,-4.39
245.48,-2.54,-2.45,1.84,1.93,-2.15,-1.81,-1.32,-4.69,-4.60,-4.38
247.93,-2.90,-2.74,1.47,1.63,-2.18,-1.73,-1.33,-5.08,-4.92,-4.36
250.41,-2.77,-2.75,1.60,1.60,-2.20,-1.66,-1.34,-4.96,-4.95,-4.36
252.92,-2.43,-2.48,1.91,1.86,-2.13,-1.59,-1.35,-4.56,-4.61,-4.34
255.45,-2.12,-2.07,2.20,2.26,-1.99,-1.52,-1.36,-4.10,-4.05,-4.32
258.00,-1.83,-1.74,2.48,2.56,-1.81,-1.46,-1.37,-3.64,-3.55,-4.30
260.58,-1.62,-1.82,2.68,2.47,-1.67,-1.41,-1.38,-3.28,-3.48,-4.29
263.19,-2.15,-2.44,2.12,1.83,-1.53,-1.35,-1.38,-3.67,-3.97,-4.27
265.82,-3.40,-3.29,0.86,0.96,-1.35,-1.31,-1.39,-4.75,-4.64,-4.25
268.48,-4.34,-3.94,-0.11,0.29,-1.10,-1.27,-1.39,-5.45,-5.04,-4.23
271.16,-4.09,-4.02,0.12,0.19,-0.80,-1.23,-1.39,-4.88,-4.81,-4.21
273.87,-3.54,-3.67,0.66,0.52,-0.49,-1.20,-1.40,-4.03,-4.16,-4.19
276.61,-3.17,-3.36,1.00,0.81,-0.27,-1.17,-1.40,-3.43,-3.63,-4.17
279.38,-3.45,-3.52,0.71,0.63,-0.17,-1.14,-1.40,-3.61,-3.69,-4.15
282.17,-3.91,-3.88,0.23,0.25,-0.18,-1.12,-1.40,-4.09,-4.07,-4.14
284.99,-4.41,-4.15,-0.29,-0.03,-0.26,-1.10,-1.40,-4.66,-4.41,-4.11
287.84,-4.10,-4.13,0.00,-0.03,-0.33,-1.09,-1.40,-4.43,-4.46,-4.10
290.72,-3.81,-3.90,0.27,0.17,-0.37,-1.08,-1.40,-4.17,-4.27,-4.07
293.63,-3.61,-3.59,0.45,0.46,-0.39,-1.07,-1.40,-4.00,-3.99,-4.06
296.57,-3.42,-3.41,0.61,0.63,-0.46,-1.06,-1.40,-3.87,-3.87,-4.03
299.53,-3.26,-3.27,0.76,0.74,-0.57,-1.05,-1.40,-3.83,-3.85,-4.01
302.53,-3.19,-3.18,0.81,0.82,-0.70,-1.05,-1.41,-3.88,-3.87,-4.00
305.55,-3.13,-3.13,0.84,0.84,-0.80,-1.05,-1.41,-3.92,-3.93,-3.96
308.61,-3.11,-3.12,0.84,0.82,-0.85,-1.05,-1.41,-3.96,-3.97,-3.95
311.69,-3.13,-3.10,0.79,0.81,-0.88,-1.05,-1.41,-4.01,-3.98,-3.92
314.81,-3.08,-3.06,0.81,0.83,-0.89,-1.05,-1.42,-3.97,-3.96,-3.88
317.96,-2.99,-2.99,0.88,0.88,-0.92,-1.06,-1.42,-3.90,-3.91,-3.87
321.14,-2.90,-2.89,0.95,0.95,-0.95,-1.06,-1.43,-3.85,-3.84,-3.85
324.35,-2.80,-2.81,1.04,1.02,-0.99,-1.07,-1.44,-3.78,-3.80,-3.83
327.59,-2.75,-2.74,1.06,1.06,-1.04,-1.08,-1.44,-3.78,-3.78,-3.81
330.87,-2.70,-2.68,1.09,1.11,-1.09,-1.09,-1.45,-3.78,-3.77,-3.79
334.18,-2.63,-2.63,1.15,1.14,-1.14,-1.10,-1.46,-3.77,-3.77,-3.77
337.52,-2.57,-2.57,1.19,1.18,-1.19,-1.11,-1.47,-3.75,-3.76,-3.75
340.90,-2.51,-2.50,1.22,1.23,-1.23,-1.12,-1.49,-3.74,-3.74,-3.73
344.30,-2.44,-2.43,1.27,1.28,-1.28,-1.14,-1.50,-3.71,-3.71,-3.71
347.75,-2.36,-2.36,1.34,1.33,-1.32,-1.15,-1.51,-3.67,-3.67,-3.69
351.23,-2.28,-2.28,1.40,1.39,-1.36,-1.17,-1.53,-3.64,-3.65,-3.67
354.74,-2.22,-2.21,1.44,1.45,-1.44,-1.18,-1.55,-3.66,-3.65,-3.66
358.28,-2.13,-2.12,1.51,1.51,-1.57,-1.20,-1.57,-3.69,-3.69,-3.64
361.87,-2.03,-2.03,1.59,1.59,-1.72,-1.22,-1.59,-3.75,-3.75,-3.62
365.49,-1.91,-1.91,1.70,1.69,-1.86,-1.24,-1.61,-3.77,-3.77,-3.60
369.14,-1.78,-1.78,1.82,1.81,-1.94,-1.26,-1.63,-3.72,-3.72,-3.59
372.83,-1.61,-1.52,1.97,2.06,-1.96,-1.28,-1.65,-3.57,-3.48,-3.58
376.56,-1.36,-1.26,2.21,2.30,-1.95,-1.30,-1.68,-3.30,-3.20,-3.57
380.33,-1.01,-1.28,2.53,2.27,-1.88,-1.32,-1.70,-2.89,-3.16,-3.54
384.13,-1.43,-1.56,2.10,1.97,-1.78,-1.34,-1.73,-3.21,-3.34,-3.53
387.97,-2.27,-2.06,1.26,1.46,-1.64,-1.36,-1.75,-3.90,-3.70,-3.52
391.85,-2.50,-2.39,1.02,1.12,-1.47,-1.39,-1.78,-3.97,-3.86,-3.51
395.77,-2.59,-2.44,0.91,1.06,-1.29,-1.41,-1.81,-3.88,-3.73,-3.49
399.73,-2.06,-2.37,1.43,1.12,-1.11,-1.44,-1.84,-3.17,-3.48,-3.49
403.72,-2.41,-2.48,1.07,1.00,-0.95,-1.47,-1.87,-3.35,-3.42,-3.48
407.76,-2.71,-2.55,0.76,0.91,-0.82,-1.49,-1.90,-3.53,-3.38,-3.47
411.84,-2.85,-2.59,0.60,0.86,-0.76,-1.52,-1.94,-3.60,-3.35,-3.45
415.96,-2.36,-2.62,1.09,0.82,-0.74,-1.55,-1.97,-3.09,-3.36,-3.44
420.12,-2.45,-2.70,0.99,0.73,-0.72,-1.58,-2.00,-3.17,-3.43,-3.43
424.32,-3.14,-2.80,0.29,0.62,-0.72,-1.61,-2.03,-3.85,-3.52,-3.42
428.56,-2.95,-2.88,0.47,0.53,-0.74,-1.64,-2.06,-3.68,-3.62,-3.41
432.85,-2.65,-2.75,0.76,0.66,-0.79,-1.67,-2.10,-3.44,-3.54,-3.41
437.18,-2.42,-2.46,0.98,0.94,-0.87,-1.70,-2.13,-3.29,-3.33,-3.40
441.55,-2.32,-2.30,1.06,1.08,-0.97,-1.73,-2.16,-3.28,-3.27,-3.38
445.96,-2.22,-2.21,1.15,1.16,-1.08,-1.77,-2.19,-3.29,-3.29,-3.37
450.42,-2.14,-2.13,1.22,1.23,-1.20,-1.80,-2.22,-3.33,-3.33,-3.36
454.93,-2.04,-2.03,1.30,1.32,-1.31,-1.84,-2.25,-3.35,-3.34,-3.34
459.48,-1.93,-1.93,1.41,1.39,-1.41,-1.87,-2.27,-3.34,-3.35,-3.33
464.07,-1.84,-1.84,1.48,1.47,-1.48,-1.91,-2.30,-3.32,-3.32,-3.31
468.71,-1.77,-1.76,1.53,1.54,-1.54,-1.94,-2.32,-3.30,-3.29,-3.29
