frequency,raw,error,smoothed,error_smoothed,equalization,parametric_eq,fixed_band_eq,equalized_raw,equalized_smoothed,target
20.00,1.57,-3.31,1.57,-3.31,3.29,3.36,1.27,4.85,4.85,4.88
20.20,1.59,-3.28,1.59,-3.28,3.28,3.34,1.31,4.86,4.86,4.87
20.40,1.60,-3.26,1.60,-3.26,3.26,3.33,1.35,4.86,4.87,4.86
20.61,1.62,-3.24,1.62,-3.23,3.25,3.31,1.39,4.87,4.87,4.86
20.81,1.64,-3.20,1.63,-3.21,3.23,3.30,1.44,4.87,4.87,4.84
21.02,1.65,-3.19,1.64,-3.19,3.22,3.28,1.48,4.86,4.86,4.84
21.23,1.65,-3.18,1.65,-3.18,3.20,3.27,1.52,4.84,4.85,4.83
21.44,1.66,-3.18,1.65,-3.18,3.17,3.25,1.57,4.83,4.83,4.84
21.66,1.66,-3.17,1.66,-3.17,3.15,3.23,1.62,4.81,4.81,4.83
21.87,1.67,-3.15,1.67,-3.15,3.12,3.22,1.67,4.79,4.79,4.82
22.09,1.69,-3.12,1.69,-3.12,3.09,3.20,1.72,4.78,4.78,4.80
22.31,1.73,-3.08,1.73,-3.08,3.06,3.18,1.77,4.79,4.79,4.80
22.54,1.77,-3.03,1.77,-3.02,3.03,3.17,1.82,4.79,4.80,4.79
22.76,1.82,-2.98,1.82,-2.97,2.99,3.15,1.88,4.81,4.81,4.79
22.99,1.86,-2.93,1.84,-2.94,2.96,3.13,1.93,4.82,4.81,4.78
23.22,1.86,-2.92,1.86,-2.92,2.94,3.12,1.99,4.80,4.80,4.77
23.45,1.86,-2.92,1.86,-2.91,2.92,3.10,2.05,4.78,4.78,4.78
23.69,1.86,-2.91,1.86,-2.92,2.91,3.08,2.11,4.77,4.77,4.77
23.92,1.86,-2.91,1.86,-2.92,2.91,3.06,2.17,4.76,4.77,4.77
24.16,1.87,-2.91,1.87,-2.91,2.90,3.04,2.23,4.77,4.77,4.78
24.40,1.88,-2.91,1.88,-2.91,2.90,3.03,2.29,4.78,4.77,4.79
24.65,1.89,-2.90,1.89,-2.90,2.90,3.01,2.35,4.78,4.78,4.79
24.89,1.90,-2.89,1.90,-2.89,2.89,2.99,2.42,4.79,4.79,4.79
25.14,1.92,-2.87,1.91,-2.87,2.88,2.97,2.48,4.80,4.79,4.79
25.39,1.93,-2.86,1.93,-2.86,2.87,2.95,2.54,4.79,4.79,4.79
25.65,1.94,-2.85,1.94,-2.85,2.85,2.93,2.61,4.79,4.79,4.79
25.91,1.95,-2.85,1.95,-2.85,2.84,2.91,2.67,4.78,4.78,4.79
26.16,1.97,-2.84,1.97,-2.83,2.82,2.89,2.74,4.79,4.79,4.80
26.43,1.99,-2.82,1.99,-2.81,2.81,2.87,2.80,4.79,4.80,4.80
26.69,2.02,-2.78,2.02,-2.79,2.79,2.85,2.86,4.81,4.81,4.80
26.96,2.05,-2.75,2.04,-2.76,2.78,2.83,2.92,4.83,4.82,4.80
27.23,2.05,-2.75,2.05,-2.75,2.76,2.81,2.98,4.81,4.82,4.80
27.50,2.06,-2.74,2.05,-2.75,2.75,2.79,3.04,4.80,4.80,4.80
27.77,2.06,-2.75,2.06,-2.75,2.73,2.77,3.09,4.79,4.79,4.81
28.05,2.06,-2.75,2.07,-2.73,2.72,2.75,3.14,4.78,4.79,4.81
28.33,2.09,-2.71,2.08,-2.72,2.71,2.73,3.19,4.79,4.79,4.79
28.62,2.11,-2.69,2.11,-2.69,2.70,2.71,3.24,4.80,4.80,4.79
28.90,2.13,-2.68,2.13,-2.67,2.69,2.69,3.28,4.81,4.81,4.80
29.19,2.14,-2.66,2.13,-2.66,2.68,2.66,3.32,4.81,4.81,4.80
29.48,2.14,-2.66,2.14,-2.66,2.67,2.64,3.35,4.81,4.81,4.80
29.78,2.14,-2.66,2.14,-2.66,2.66,2.62,3.38,4.80,4.80,4.80
30.08,2.14,-2.67,2.14,-2.66,2.66,2.60,3.40,4.80,4.80,4.81
30.38,2.14,-2.66,2.14,-2.66,2.66,2.58,3.42,4.79,4.79,4.79
30.68,2.14,-2.65,2.14,-2.65,2.65,2.55,3.43,4.79,4.79,4.78
30.99,2.14,-2.64,2.14,-2.64,2.64,2.53,3.44,4.77,4.78,4.78
31.30,2.15,-2.62,2.14,-2.63,2.62,2.51,3.43,4.76,4.76,4.77
31.61,2.16,-2.61,2.16,-2.61,2.59,2.49,3.43,4.74,4.74,4.77
31.93,2.18,-2.58,2.18,-2.58,2.55,2.46,3.42,4.73,4.74,4.76
32.24,2.22,-2.54,2.22,-2.53,2.52,2.44,3.40,4.74,4.74,4.75
32.57,2.27,-2.47,2.27,-2.48,2.49,2.42,3.38,4.75,4.75,4.74
32.89,2.32,-2.42,2.31,-2.43,2.46,2.39,3.35,4.77,4.76,4.74
33.22,2.34,-2.40,2.33,-2.40,2.43,2.37,3.32,4.77,4.76,4.74
33.55,2.34,-2.40,2.34,-2.40,2.41,2.34,3.29,4.75,4.75,4.73
33.89,2.34,-2.40,2.34,-2.40,2.39,2.32,3.24,4.73,4.73,4.74
34.23,2.34,-2.39,2.34,-2.39,2.39,2.30,3.20,4.72,4.72,4.73
34.57,2.34,-2.39,2.34,-2.39,2.38,2.27,3.15,4.72,4.72,4.73
34.92,2.34,-2.39,2.34,-2.39,2.38,2.25,3.10,4.72,4.72,4.72
35.27,2.34,-2.39,2.34,-2.39,2.38,2.22,3.04,4.72,4.72,4.73
35.62,2.34,-2.38,2.34,-2.38,2.38,2.20,2.98,4.72,4.72,4.72
35.97,2.34,-2.38,2.34,-2.37,2.38,2.17,2.92,4.71,4.71,4.71
36.33,2.34,-2.36,2.34,-2.36,2.37,2.15,2.86,4.70,4.70,4.70
36.70,2.34,-2.35,2.34,-2.35,2.35,2.12,2.80,4.69,4.69,4.69
37.06,2.34,-2.34,2.34,-2.33,2.33,2.10,2.73,4.67,4.67,4.67
37.43,2.34,-2.31,2.33,-2.32,2.30,2.07,2.66,4.64,4.64,4.65
37.81,2.34,-2.30,2.34,-2.29,2.27,2.05,2.60,4.61,4.61,4.63
38.19,2.36,-2.25,2.36,-2.25,2.24,2.02,2.53,4.59,4.60,4.61
38.57,2.39,-2.20,2.39,-2.20,2.20,1.99,2.46,4.59,4.59,4.59
38.95,2.43,-2.13,2.41,-2.14,2.16,1.97,2.40,4.59,4.58,4.56
39.34,2.43,-2.10,2.43,-2.11,2.13,1.94,2.33,4.55,4.55,4.53
39.74,2.43,-2.09,2.43,-2.08,2.09,1.92,2.26,4.52,4.52,4.51
40.14,2.43,-2.06,2.43,-2.06,2.06,1.89,2.20,4.48,4.48,4.49
40.54,2.43,-2.04,2.43,-2.04,2.03,1.86,2.13,4.46,4.46,4.46
40.94,2.43,-2.01,2.43,-2.01,2.01,1.84,2.07,4.43,4.43,4.44
41.35,2.43,-1.99,2.43,-1.99,1.99,1.81,2.00,4.42,4.42,4.42
41.76,2.43,-1.96,2.43,-1.96,1.97,1.78,1.94,4.40,4.40,4.38
42.18,2.43,-1.94,2.43,-1.94,1.95,1.75,1.88,4.38,4.38,4.37
42.60,2.43,-1.93,2.43,-1.92,1.92,1.73,1.82,4.35,4.35,4.35
43.03,2.43,-1.90,2.42,-1.90,1.89,1.70,1.76,4.32,4.32,4.33
43.46,2.43,-1.87,2.42,-1.88,1.86,1.67,1.71,4.29,4.28,4.30
43.90,2.43,-1.86,2.44,-1.84,1.83,1.64,1.65,4.25,4.26,4.28
44.33,2.46,-1.80,2.46,-1.79,1.79,1.61,1.60,4.25,4.25,4.25
44.78,2.51,-1.72,2.50,-1.74,1.75,1.59,1.54,4.26,4.25,4.23
45.23,2.53,-1.69,2.52,-1.69,1.71,1.56,1.49,4.24,4.23,4.22
45.68,2.53,-1.65,2.53,-1.65,1.66,1.53,1.44,4.19,4.19,4.18
46.13,2.53,-1.62,2.53,-1.62,1.62,1.50,1.39,4.14,4.14,4.14
46.60,2.53,-1.59,2.53,-1.59,1.57,1.47,1.34,4.09,4.09,4.11
47.06,2.54,-1.55,2.55,-1.53,1.52,1.44,1.29,4.05,4.06,4.08
47.53,2.58,-1.48,2.58,-1.47,1.47,1.41,1.25,4.04,4.04,4.05
48.01,2.62,-1.39,2.60,-1.41,1.42,1.38,1.20,4.03,4.02,4.01
48.49,2.62,-1.35,2.62,-1.35,1.37,1.35,1.16,3.98,3.98,3.97
48.97,2.62,-1.31,2.62,-1.30,1.32,1.32,1.12,3.93,3.94,3.92
49.46,2.62,-1.28,2.62,-1.27,1.27,1.29,1.08,3.88,3.88,3.89
49.96,2.62,-1.22,2.62,-1.22,1.22,1.26,1.04,3.84,3.84,3.83
50.46,2.62,-1.18,2.62,-1.19,1.18,1.23,1.00,3.80,3.80,3.80
50.96,2.62,-1.15,2.62,-1.15,1.15,1.20,0.96,3.77,3.77,3.77
51.47,2.62,-1.12,2.62,-1.11,1.11,1.17,0.92,3.73,3.73,3.74
51.99,2.62,-1.08,2.62,-1.08,1.08,1.14,0.88,3.70,3.70,3.69
52.51,2.62,-1.04,2.62,-1.05,1.04,1.11,0.85,3.66,3.66,3.66
53.03,2.62,-1.02,2.62,-1.01,1.01,1.08,0.81,3.62,3.62,3.63
53.56,2.62,-0.97,2.62,-0.97,0.97,1.05,0.78,3.58,3.58,3.59
54.10,2.62,-0.93,2.62,-0.93,0.93,1.02,0.74,3.55,3.55,3.55
54.64,2.62,-0.89,2.62,-0.89,0.89,0.98,0.71,3.51,3.51,3.51
55.18,2.62,-0.85,2.62,-0.85,0.85,0.95,0.68,3.47,3.47,3.46
55.74,2.62,-0.81,2.62,-0.82,0.82,0.92,0.65,3.43,3.43,3.43
56.29,2.62,-0.78,2.62,-0.78,0.78,0.89,0.61,3.40,3.40,3.40
56.86,2.62,-0.76,2.62,-0.75,0.75,0.85,0.58,3.37,3.37,3.37
57.42,2.62,-0.71,2.62,-0.72,0.72,0.82,0.55,3.34,3.34,3.32
58.00,2.62,-0.69,2.62,-0.69,0.69,0.78,0.52,3.31,3.31,3.30
58.58,2.62,-0.67,2.62,-0.66,0.66,0.75,0.49,3.28,3.28,3.28
59.16,2.62,-0.64,2.62,-0.64,0.63,0.72,0.46,3.25,3.25,3.25
59.76,2.62,-0.61,2.62,-0.60,0.59,0.68,0.43,3.21,3.21,3.22
60.35,2.62,-0.56,2.62,-0.56,0.55,0.65,0.40,3.17,3.17,3.17
60.96,2.62,-0.51,2.62,-0.51,0.51,0.61,0.37,3.12,3.12,3.13
61.57,2.62,-0.46,2.62,-0.46,0.46,0.58,0.34,3.08,3.08,3.08
62.18,2.62,-0.41,2.62,-0.41,0.41,0.54,0.31,3.03,3.03,3.02
62.80,2.62,-0.35,2.62,-0.36,0.36,0.50,0.28,2.98,2.98,2.97
63.43,2.62,-0.31,2.62,-0.31,0.32,0.47,0.25,2.93,2.93,2.92
64.07,2.62,-0.27,2.62,-0.27,0.27,0.43,0.22,2.89,2.89,2.89
64.71,2.62,-0.22,2.62,-0.23,0.23,0.39,0.19,2.84,2.84,2.84
65.35,2.62,-0.19,2.62,-0.19,0.18,0.36,0.15,2.80,2.80,2.80
66.01,2.62,-0.14,2.62,-0.14,0.14,0.32,0.12,2.76,2.76,2.76
66.67,2.62,-0.11,2.62,-0.10,0.10,0.28,0.09,2.72,2.72,2.73
67.33,2.62,-0.05,2.62,-0.05,0.06,0.24,0.06,2.67,2.67,2.67
68.01,2.62,-0.01,2.62,-0.01,0.01,0.20,0.03,2.63,2.63,2.63
68.69,2.62,0.04,2.62,0.04,-0.03,0.16,-0.00,2.58,2.58,2.58
69.37,2.62,0.07,2.62,0.08,-0.08,0.12,-0.04,2.54,2.54,2.54
70.07,2.62,0.13,2.62,0.12,-0.13,0.08,-0.07,2.49,2.49,2.49
70.77,2.62,0.17,2.62,0.17,-0.17,0.04,-0.10,2.44,2.44,2.45
71.48,2.62,0.21,2.62,0.22,-0.22,-0.00,-0.14,2.40,2.40,2.40
72.19,2.62,0.27,2.62,0.27,-0.27,-0.04,-0.17,2.35,2.35,2.35
72.91,2.62,0.32,2.62,0.32,-0.31,-0.08,-0.20,2.30,2.30,2.30
73.64,2.62,0.36,2.62,0.36,-0.36,-0.13,-0.24,2.26,2.26,2.25
74.38,2.62,0.40,2.62,0.41,-0.40,-0.17,-0.27,2.21,2.21,2.21
75.12,2.62,0.45,2.62,0.45,-0.44,-0.21,-0.31,2.17,2.17,2.17
75.87,2.62,0.48,2.62,0.48,-0.48,-0.26,-0.35,2.13,2.13,2.14
76.63,2.62,0.52,2.62,0.52,-0.52,-0.30,-0.38,2.10,2.10,2.10
77.40,2.62,0.55,2.62,0.56,-0.56,-0.34,-0.42,2.06,2.06,2.06
78.17,2.62,0.60,2.62,0.59,-0.59,-0.39,-0.46,2.03,2.03,2.02
78.95,2.62,0.62,2.62,0.62,-0.62,-0.43,-0.49,2.00,2.00,2.00
79.74,2.62,0.65,2.62,0.66,-0.65,-0.48,-0.53,1.96,1.96,1.96
80.54,2.62,0.69,2.62,0.69,-0.69,-0.53,-0.57,1.93,1.93,1.93
81.35,2.62,0.72,2.62,0.72,-0.72,-0.57,-0.61,1.90,1.90,1.89
82.16,2.62,0.75,2.62,0.75,-0.76,-0.62,-0.65,1.86,1.86,1.87
82.98,2.62,0.79,2.62,0.79,-0.79,-0.67,-0.69,1.83,1.83,1.83
83.81,2.62,0.83,2.62,0.83,-0.83,-0.71,-0.73,1.79,1.79,1.79
84.65,2.62,0.86,2.62,0.87,-0.86,-0.76,-0.78,1.75,1.75,1.75
85.50,2.62,0.91,2.62,0.91,-0.90,-0.81,-0.82,1.71,1.71,1.70
86.35,2.62,0.94,2.62,0.94,-0.94,-0.86,-0.86,1.67,1.67,1.67
87.22,2.62,0.97,2.62,0.98,-0.98,-0.91,-0.91,1.63,1.64,1.64
88.09,2.63,1.03,2.62,1.02,-1.02,-0.95,-0.95,1.60,1.60,1.60
88.97,2.63,1.06,2.63,1.06,-1.06,-1.00,-1.00,1.56,1.56,1.57
89.86,2.63,1.11,2.63,1.11,-1.10,-1.05,-1.04,1.52,1.52,1.52
90.76,2.63,1.14,2.63,1.15,-1.15,-1.10,-1.09,1.48,1.48,1.48
91.66,2.63,1.20,2.63,1.19,-1.19,-1.15,-1.14,1.44,1.44,1.43
92.58,2.63,1.23,2.63,1.23,-1.24,-1.20,-1.19,1.39,1.39,1.39
93.51,2.63,1.28,2.63,1.28,-1.28,-1.25,-1.24,1.34,1.34,1.35
94.44,2.63,1.32,2.63,1.33,-1.33,-1.30,-1.29,1.29,1.30,1.30
95.39,2.63,1.38,2.63,1.38,-1.38,-1.35,-1.34,1.25,1.25,1.25
96.34,2.63,1.44,2.62,1.43,-1.43,-1.40,-1.39,1.20,1.19,1.19
97.30,2.62,1.48,2.62,1.48,-1.48,-1.45,-1.44,1.14,1.14,1.14
98.28,2.61,1.53,2.61,1.53,-1.53,-1.50,-1.50,1.08,1.08,1.08
99.26,2.60,1.59,2.59,1.58,-1.57,-1.55,-1.55,1.02,1.02,1.01
100.25,2.58,1.62,2.58,1.62,-1.62,-1.60,-1.60,0.96,0.96,0.95
101.25,2.56,1.65,2.56,1.66,-1.66,-1.65,-1.66,0.89,0.90,0.91
102.27,2.55,1.70,2.55,1.70,-1.71,-1.70,-1.71,0.84,0.84,0.85
103.29,2.54,1.75,2.53,1.74,-1.74,-1.75,-1.76,0.79,0.79,0.79
104.32,2.52,1.77,2.52,1.77,-1.78,-1.80,-1.82,0.74,0.74,0.74
105.37,2.49,1.80,2.49,1.81,-1.80,-1.85,-1.87,0.68,0.69,0.69
106.42,2.47,1.84,2.47,1.84,-1.83,-1.90,-1.92,0.64,0.65,0.63
107.48,2.44,1.88,2.44,1.87,-1.84,-1.95,-1.98,0.59,0.60,0.56
108.56,2.42,1.90,2.39,1.88,-1.86,-2.00,-2.03,0.56,0.53,0.52
109.64,2.33,1.86,2.33,1.87,-1.88,-2.05,-2.08,0.45,0.46,0.46
110.74,2.27,1.86,2.29,1.88,-1.90,-2.09,-2.13,0.37,0.39,0.41
111.85,2.26,1.90,2.25,1.89,-1.92,-2.14,-2.18,0.33,0.33,0.36
112.97,2.26,1.94,2.25,1.94,-1.95,-2.19,-2.23,0.30,0.29,0.31
114.10,2.25,1.98,2.25,1.99,-1.99,-2.24,-2.28,0.26,0.26,0.27
115.24,2.25,2.04,2.25,2.04,-2.03,-2.28,-2.32,0.21,0.22,0.21
116.39,2.25,2.09,2.25,2.09,-2.08,-2.33,-2.36,0.17,0.17,0.15
117.55,2.26,2.14,2.25,2.14,-2.13,-2.37,-2.40,0.13,0.12,0.12
118.73,2.26,2.19,2.26,2.19,-2.18,-2.42,-2.44,0.08,0.08,0.06
119.92,2.27,2.24,2.26,2.23,-2.23,-2.46,-2.48,0.04,0.04,0.03
121.12,2.27,2.26,2.27,2.27,-2.27,-2.51,-2.51,-0.01,-0.00,0.00
122.33,2.28,2.32,2.28,2.31,-2.32,-2.55,-2.54,-0.04,-0.04,-0.04
123.55,2.29,2.36,2.29,2.36,-2.37,-2.59,-2.57,-0.08,-0.08,-0.07
124.79,2.30,2.40,2.29,2.40,-2.41,-2.63,-2.60,-0.12,-0.12,-0.10
126.03,2.30,2.44,2.30,2.45,-2.45,-2.68,-2.62,-0.16,-0.15,-0.15
127.29,2.31,2.49,2.32,2.50,-2.49,-2.72,-2.64,-0.18,-0.17,-0.19
128.57,2.33,2.55,2.32,2.55,-2.52,-2.76,-2.66,-0.20,-0.20,-0.23
129.85,2.34,2.60,2.31,2.58,-2.56,-2.79,-2.67,-0.22,-0.25,-0.27
131.15,2.27,2.57,2.28,2.59,-2.59,-2.83,-2.69,-0.32,-0.30,-0.31
132.46,2.25,2.59,2.25,2.60,-2.62,-2.87,-2.70,-0.37,-0.36,-0.34
133.79,2.24,2.62,2.24,2.62,-2.65,-2.91,-2.71,-0.41,-0.41,-0.38
135.12,2.25,2.67,2.24,2.66,-2.68,-2.94,-2.71,-0.43,-0.43,-0.42
136.48,2.25,2.69,2.25,2.70,-2.70,-2.98,-2.72,-0.46,-0.46,-0.44
137.84,2.25,2.73,2.25,2.73,-2.73,-3.01,-2.73,-0.48,-0.48,-0.48
139.22,2.25,2.78,2.25,2.78,-2.76,-3.05,-2.73,-0.51,-0.50,-0.53
140.61,2.25,2.80,2.25,2.82,-2.78,-3.08,-2.73,-0.54,-0.53,-0.56
142.02,2.26,2.86,2.23,2.83,-2.81,-3.11,-2.73,-0.55,-0.58,-0.60
143.44,2.20,2.84,2.20,2.83,-2.83,-3.14,-2.73,-0.64,-0.64,-0.64
144.87,2.14,2.81,2.16,2.84,-2.86,-3.17,-2.74,-0.72,-0.69,-0.67
146.32,2.15,2.85,2.14,2.85,-2.88,-3.20,-2.74,-0.73,-0.74,-0.70
147.78,2.16,2.90,2.15,2.89,-2.91,-3.23,-2.74,-0.75,-0.76,-0.74
149.26,2.16,2.94,2.16,2.94,-2.93,-3.26,-2.74,-0.78,-0.78,-0.78
150.75,2.16,2.99,2.16,2.98,-2.97,-3.29,-2.74,-0.81,-0.81,-0.83
152.26,2.16,3.01,2.16,3.01,-3.01,-3.31,-2.75,-0.85,-0.85,-0.86
153.78,2.16,3.05,2.16,3.05,-3.05,-3.34,-2.75,-0.90,-0.90,-0.89
155.32,2.16,3.08,2.16,3.08,-3.10,-3.37,-2.76,-0.94,-0.94,-0.93
156.88,2.16,3.13,2.16,3.13,-3.13,-3.39,-2.76,-0.98,-0.97,-0.97
158.44,2.16,3.17,2.17,3.18,-3.17,-3.41,-2.77,-1.01,-1.00,-1.01
160.03,2.18,3.23,2.16,3.22,-3.20,-3.44,-2.78,-1.02,-1.03,-1.06
161.63,2.16,3.25,2.14,3.24,-3.23,-3.46,-2.79,-1.07,-1.09,-1.10
163.24,2.10,3.24,2.11,3.25,-3.26,-3.48,-2.81,-1.16,-1.15,-1.15
164.88,2.06,3.25,2.07,3.26,-3.28,-3.50,-2.82,-1.22,-1.21,-1.19
166.53,2.05,3.28,2.05,3.28,-3.30,-3.52,-2.84,-1.25,-1.25,-1.24
168.19,2.05,3.32,2.05,3.32,-3.32,-3.53,-2.86,-1.27,-1.27,-1.28
169.87,2.04,3.36,2.03,3.36,-3.33,-3.55,-2.88,-1.29,-1.30,-1.32
171.57,2.02,3.39,2.00,3.37,-3.35,-3.57,-2.91,-1.33,-1.35,-1.37
173.29,1.95,3.36,1.96,3.37,-3.37,-3.59,-2.93,-1.43,-1.42,-1.42
175.02,1.91,3.36,1.92,3.38,-3.40,-3.60,-2.96,-1.49,-1.48,-1.45
176.77,1.92,3.41,1.91,3.41,-3.43,-3.62,-2.99,-1.51,-1.52,-1.50
178.54,1.92,3.46,1.91,3.45,-3.46,-3.63,-3.03,-1.55,-1.55,-1.54
180.32,1.93,3.51,1.92,3.50,-3.50,-3.64,-3.06,-1.58,-1.58,-1.58
182.13,1.93,3.54,1.93,3.54,-3.55,-3.66,-3.10,-1.62,-1.62,-1.62
183.95,1.94,3.58,1.94,3.59,-3.59,-3.67,-3.14,-1.66,-1.66,-1.65
185.79,1.95,3.63,1.95,3.64,-3.63,-3.68,-3.19,-1.69,-1.68,-1.69
187.65,1.97,3.69,1.97,3.69,-3.67,-3.69,-3.23,-1.70,-1.70,-1.72
189.52,2.00,3.76,1.98,3.73,-3.69,-3.70,-3.28,-1.70,-1.71,-1.76
191.42,1.96,3.73,1.96,3.74,-3.71,-3.71,-3.33,-1.76,-1.75,-1.78
193.33,1.93,3.74,1.92,3.73,-3.73,-3.72,-3.38,-1.81,-1.82,-1.82
195.27,1.86,3.71,1.87,3.72,-3.75,-3.72,-3.43,-1.89,-1.88,-1.85
197.22,1.83,3.72,1.85,3.73,-3.77,-3.73,-3.49,-1.94,-1.92,-1.89
199.19,1.85,3.77,1.84,3.76,-3.78,-3.74,-3.54,-1.94,-1.94,-1.92
201.18,1.87,3.82,1.86,3.81,-3.81,-3.74,-3.60,-1.94,-1.95,-1.95
203.19,1.87,3.85,1.87,3.85,-3.83,-3.75,-3.66,-1.97,-1.97,-1.98
205.23,1.87,3.87,1.87,3.87,-3.87,-3.75,-3.72,-2.00,-2.00,-2.01
207.28,1.87,3.90,1.87,3.90,-3.91,-3.76,-3.78,-2.04,-2.04,-2.03
209.35,1.87,3.93,1.87,3.93,-3.94,-3.76,-3.84,-2.08,-2.08,-2.06
211.44,1.87,3.96,1.86,3.96,-3.96,-3.76,-3.90,-2.10,-2.10,-2.10
213.56,1.87,3.99,1.88,4.00,-3.97,-3.77,-3.96,-2.11,-2.10,-2.12
215.69,1.86,4.01,1.87,4.02,-3.98,-3.77,-4.02,-2.12,-2.11,-2.15
217.85,1.88,4.05,1.83,4.01,-3.97,-3.77,-4.07,-2.10,-2.15,-2.18
220.03,1.76,3.98,1.76,3.97,-3.97,-3.77,-4.13,-2.21,-2.21,-2.22
222.23,1.66,3.90,1.69,3.93,-3.96,-3.77,-4.18,-2.31,-2.27,-2.24
224.45,1.65,3.91,1.65,3.91,-3.96,-3.77,-4.24,-2.32,-2.32,-2.26
226.70,1.66,3.94,1.64,3.92,-3.96,-3.77,-4.28,-2.31,-2.32,-2.28
228.96,1.66,3.95,1.66,3.95,-3.96,-3.77,-4.33,-2.31,-2.30,-2.29
231.25,1.67,3.97,1.67,3.97,-3.97,-3.77,-4.37,-2.30,-2.30,-2.30
233.57,1.68,4.00,1.68,4.00,-3.97,-3.76,-4.41,-2.29,-2.29,-2.32
235.90,1.69,4.02,1.69,4.02,-3.98,-3.76,-4.44,-2.29,-2.29,-2.33
238.26,1.69,4.03,1.67,4.01,-3.98,-3.76,-4.47,-2.29,-2.31,-2.34
240.64,1.65,3.97,1.65,3.98,-3.98,-3.75,-4.49,-2.34,-2.34,-2.33
243.05,1.61,3.94,1.61,3.95,-3.98,-3.75,-4.51,-2.37,-2.36,-2.34
245.48,1.59,3.93,1.60,3.94,-3.97,-3.74,-4.52,-2.38,-2.38,-2.34
247.93,1.60,3.95,1.60,3.94,-3.96,-3.74,-4.53,-2.36,-2.36,-2.35
250.41,1.62,3.96,1.62,3.96,-3.95,-3.73,-4.53,-2.34,-2.34,-2.34
252.92,1.63,3.96,1.63,3.98,-3.95,-3.73,-4.52,-2.32,-2.32,-2.34
255.45,1.64,3.99,1.62,3.96,-3.95,-3.72,-4.51,-2.31,-2.33,-2.35
258.00,1.60,3.95,1.58,3.94,-3.95,-3.71,-4.50,-2.35,-2.36,-2.35
260.58,1.53,3.88,1.57,3.93,-3.94,-3.70,-4.47,-2.42,-2.37,-2.36
263.19,1.56,3.92,1.56,3.93,-3.94,-3.70,-4.45,-2.38,-2.37,-2.36
265.82,1.60,3.98,1.55,3.93,-3.92,-3.69,-4.41,-2.32,-2.37,-2.38
268.48,1.54,3.92,1.54,3.92,-3.90,-3.68,-4.37,-2.36,-2.36,-2.38
271.16,1.48,3.88,1.50,3.90,-3.88,-3.67,-4.33,-2.40,-2.38,-2.40
273.87,1.46,3.86,1.46,3.87,-3.86,-3.66,-4.29,-2.41,-2.41,-2.41
276.61,1.45,3.87,1.42,3.84,-3.86,-3.65,-4.24,-2.41,-2.44,-2.42
279.38,1.38,3.82,1.39,3.82,-3.85,-3.64,-4.18,-2.47,-2.46,-2.45
282.17,1.34,3.78,1.36,3.80,-3.84,-3.63,-4.13,-2.50,-2.49,-2.44
284.99,1.36,3.80,1.35,3.79,-3.83,-3.62,-4.07,-2.47,-2.48,-2.44
287.84,1.37,3.81,1.39,3.83,-3.81,-3.60,-4.01,-2.44,-2.42,-2.44
290.72,1.42,3.87,1.41,3.86,-3.79,-3.59,-3.95,-2.37,-2.38,-2.45
293.63,1.44,3.88,1.39,3.83,-3.78,-3.58,-3.89,-2.34,-2.39,-2.45
296.57,1.33,3.77,1.33,3.77,-3.76,-3.57,-3.82,-2.43,-2.43,-2.44
299.53,1.22,3.66,1.26,3.70,-3.75,-3.55,-3.76,-2.53,-2.49,-2.44
302.53,1.21,3.64,1.22,3.65,-3.73,-3.54,-3.69,-2.52,-2.51,-2.44
305.55,1.24,3.68,1.23,3.67,-3.70,-3.52,-3.63,-2.47,-2.48,-2.44
308.61,1.26,3.69,1.25,3.69,-3.67,-3.51,-3.57,-2.41,-2.42,-2.43
311.69,1.27,3.71,1.26,3.70,-3.64,-3.49,-3.51,-2.38,-2.39,-2.45
314.81,1.23,3.67,1.22,3.67,-3.62,-3.48,-3.45,-2.40,-2.40,-2.44
317.96,1.18,3.63,1.17,3.62,-3.61,-3.46,-3.39,-2.43,-2.44,-2.45
321.14,1.10,3.54,1.12,3.56,-3.60,-3.44,-3.33,-2.50,-2.48,-2.45
324.35,1.08,3.53,1.08,3.53,-3.58,-3.43,-3.27,-2.50,-2.49,-2.45
327.59,1.08,3.52,1.08,3.52,-3.55,-3.41,-3.22,-2.47,-2.47,-2.44
330.87,1.08,3.52,1.07,3.52,-3.52,-3.39,-3.16,-2.44,-2.44,-2.44
334.18,1.08,3.53,1.06,3.51,-3.48,-3.37,-3.11,-2.40,-2.42,-2.46
337.52,1.02,3.47,1.03,3.48,-3.44,-3.35,-3.06,-2.43,-2.41,-2.45
340.90,0.99,3.44,0.99,3.44,-3.41,-3.34,-3.02,-2.42,-2.42,-2.45
344.30,0.94,3.38,0.94,3.38,-3.37,-3.32,-2.97,-2.44,-2.44,-2.44
347.75,0.90,3.33,0.88,3.32,-3.34,-3.30,-2.93,-2.44,-2.46,-2.44
351.23,0.81,3.25,0.82,3.25,-3.30,-3.28,-2.89,-2.49,-2.48,-2.45
354.74,0.76,3.19,0.78,3.21,-3.26,-3.25,-2.85,-2.50,-2.48,-2.43
358.28,0.78,3.21,0.78,3.21,-3.22,-3.23,-2.81,-2.44,-2.44,-2.43
361.87,0.80,3.22,0.80,3.22,-3.18,-3.21,-2.78,-2.39,-2.38,-2.42
365.49,0.83,3.24,0.79,3.20,-3.15,-3.19,-2.75,-2.32,-2.36,-2.41
369.14,0.75,3.15,0.73,3.14,-3.12,-3.17,-2.72,-2.37,-2.38,-2.41
372.83,0.63,3.03,0.67,3.08,-3.09,-3.14,-2.69,-2.46,-2.42,-2.40
376.56,0.63,3.03,0.64,3.04,-3.07,-3.12,-2.67,-2.44,-2.43,-2.40
380.33,0.64,3.04,0.62,3.02,-3.05,-3.10,-2.64,-2.41,-2.42,-2.40
384.13,0.65,3.04,0.60,3.00,-3.02,-3.07,-2.62,-2.37,-2.42,-2.39
387.97,0.56,2.95,0.57,2.97,-2.99,-3.05,-2.60,-2.43,-2.42,-2.39
391.85,0.52,2.91,0.58,2.98,-2.96,-3.02,-2.58,-2.44,-2.38,-2.40
395.77,0.60,3.00,0.58,2.98,-2.94,-3.00,-2.57,-2.34,-2.35,-2.41
399.73,0.64,3.04,0.55,2.96,-2.91,-2.97,-2.55,-2.27,-2.35,-2.41
403.72,0.47,2.87,0.48,2.89,-2.87,-2.95,-2.54,-2.40,-2.39,-2.40
407.76,0.32,2.74,0.39,2.80,-2.83,-2.92,-2.53,-2.51,-2.44,-2.42
411.84,0.32,2.74,0.32,2.74,-2.78,-2.89,-2.52,-2.47,-2.46,-2.42
415.96,0.35,2.77,0.31,2.73,-2.74,-2.86,-2.51,-2.39,-2.44,-2.42
420.12,0.29,2.72,0.29,2.72,-2.70,-2.84,-2.50,-2.42,-2.41,-2.43
424.32,0.25,2.67,0.24,2.66,-2.67,-2.81,-2.49,-2.42,-2.43,-2.42
428.56,0.20,2.60,0.21,2.62,-2.64,-2.78,-2.49,-2.44,-2.43,-2.40
432.85,0.20,2.58,0.23,2.62,-2.62,-2.75,-2.48,-2.42,-2.39,-2.39
437.18,0.27,2.64,0.25,2.62,-2.61,-2.72,-2.47,-2.34,-2.36,-2.38
441.55,0.32,2.65,0.27,2.61,-2.60,-2.69,-2.47,-2.28,-2.33,-2.34
445.96,0.26,2.55,0.28,2.58,-2.58,-2.66,-2.46,-2.33,-2.30,-2.30
450.42,0.27,2.53,0.28,2.54,-2.57,-2.63,-2.45,-2.30,-2.29,-2.26
454.93,0.32,2.53,0.32,2.53,-2.55,-2.59,-2.44,-2.23,-2.23,-2.21
459.48,0.39,2.54,0.41,2.56,-2.52,-2.56,-2.43,-2.13,-2.11,-2.15
464.07,0.49,2.57,0.45,2.54,-2.49,-2.53,-2.42,-2.00,-2.03,-2.08
468.71,0.50,2.53,0.45,2.47,-2.45,-2.50,-2.41,-1.95,-2.00,-2.03
473.40,0.38,2.35,0.43,2.39,-2.41,-2.46,-2.40,-2.03,-1.98,-1.97
478.13,0.38,2.29,0.42,2.33,-2.37,-2.43,-2.39,-1.99,-1.95,-1.91
482.91,0.46,2.32,0.44,2.30,-2.33,-2.39,-2.37,-1.88,-1.89,-1.86
487.74,0.51,2.33,0.47,2.29,-2.29,-2.36,-2.35,-1.78,-1.82,-1.82
492.62,0.48,2.26,0.47,2.25,-2.25,-2.32,-2.33,-1.77,-1.78,-1.78
497.55,0.42,2.16,0.46,2.21,-2.21,-2.28,-2.31,-1.80,-1.75,-1.74
502.52,0.47,2.19,0.48,2.20,-2.19,-2.25,-2.29,-1.72,-1.71,-1.72
507.55,0.52,2.21,0.50,2.20,-2.18,-2.21,-2.27,-1.66,-1.68,-1.70
512.62,0.54,2.22,0.48,2.16,-2.16,-2.17,-2.24,-1.63,-1.68,-1.69
517.75,0.40,2.07,0.42,2.10,-2.14,-2.13,-2.21,-1.74,-1.72,-1.68
