frequency,raw,error,smoothed,error_smoothed,equalization,parametric_eq,fixed_band_eq,equalized_raw,equalized_smoothed,target
20.00,-7.29,-7.79,-7.28,-7.78,6.00,5.88,2.51,-1.29,-1.28,0.50
20.20,-7.25,-7.79,-7.25,-7.79,6.00,5.92,2.58,-1.25,-1.25,0.54
20.40,-7.20,-7.77,-7.21,-7.78,6.00,5.95,2.65,-1.20,-1.21,0.57
20.61,-7.16,-7.76,-7.16,-7.77,6.00,5.98,2.73,-1.16,-1.16,0.60
20.81,-7.11,-7.75,-7.11,-7.75,6.00,6.00,2.81,-1.11,-1.11,0.64
21.02,-7.06,-7.74,-7.05,-7.71,6.00,6.03,2.89,-1.06,-1.05,0.68
21.23,-6.96,-7.65,-6.96,-7.66,6.00,6.05,2.97,-0.96,-0.96,0.69
21.44,-6.86,-7.57,-6.87,-7.58,6.00,6.07,3.06,-0.86,-0.87,0.71
21.66,-6.77,-7.50,-6.76,-7.49,6.00,6.09,3.14,-0.77,-0.76,0.73
21.87,-6.67,-7.41,-6.67,-7.41,6.00,6.11,3.23,-0.67,-0.67,0.74
22.09,-6.58,-7.34,-6.59,-7.34,6.00,6.12,3.32,-0.58,-0.59,0.76
22.31,-6.52,-7.28,-6.52,-7.28,6.00,6.14,3.42,-0.52,-0.52,0.76
22.54,-6.46,-7.23,-6.45,-7.22,6.00,6.15,3.52,-0.46,-0.45,0.77
22.76,-6.40,-7.18,-6.40,-7.17,6.00,6.15,3.62,-0.40,-0.40,0.78
22.99,-6.33,-7.11,-6.34,-7.12,6.00,6.16,3.72,-0.33,-0.34,0.78
23.22,-6.29,-7.08,-6.29,-7.08,6.00,6.16,3.82,-0.29,-0.29,0.79
23.45,-6.25,-7.05,-6.25,-7.05,6.00,6.16,3.93,-0.25,-0.25,0.80
23.69,-6.21,-7.02,-6.21,-7.02,6.00,6.16,4.04,-0.21,-0.21,0.80
23.92,-6.16,-6.97,-6.15,-6.97,6.00,6.16,4.15,-0.16,-0.15,0.81
24.16,-6.08,-6.90,-6.08,-6.90,6.00,6.15,4.26,-0.08,-0.08,0.82
24.40,-5.98,-6.81,-5.98,-6.81,6.00,6.14,4.37,0.02,0.02,0.83
24.65,-5.88,-6.70,-5.88,-6.70,6.00,6.13,4.49,0.12,0.12,0.82
24.89,-5.77,-6.59,-5.78,-6.60,6.00,6.11,4.61,0.23,0.22,0.82
25.14,-5.69,-6.51,-5.69,-6.52,6.00,6.10,4.72,0.31,0.31,0.82
25.39,-5.63,-6.45,-5.62,-6.44,6.00,6.08,4.84,0.37,0.38,0.82
25.65,-5.56,-6.38,-5.56,-6.38,6.00,6.06,4.96,0.44,0.45,0.82
25.91,-5.49,-6.30,-5.49,-6.31,6.01,6.04,5.08,0.52,0.51,0.81
26.16,-5.43,-6.25,-5.43,-6.25,6.01,6.01,5.20,0.58,0.58,0.82
26.43,-5.37,-6.19,-5.37,-6.19,6.01,5.98,5.32,0.64,0.64,0.82
26.69,-5.31,-6.13,-5.31,-6.13,6.00,5.95,5.43,0.69,0.69,0.82
26.96,-5.25,-6.07,-5.25,-6.07,5.99,5.92,5.55,0.74,0.74,0.82
27.23,-5.19,-6.01,-5.19,-6.01,5.96,5.89,5.66,0.77,0.77,0.82
27.50,-5.13,-5.95,-5.13,-5.95,5.93,5.85,5.76,0.80,0.79,0.82
27.77,-5.08,-5.89,-5.08,-5.88,5.88,5.82,5.87,0.80,0.80,0.81
28.05,-5.02,-5.82,-5.02,-5.82,5.82,5.78,5.97,0.80,0.81,0.81
28.33,-4.95,-5.74,-4.95,-5.75,5.76,5.74,6.06,0.81,0.81,0.79
28.62,-4.88,-5.68,-4.88,-5.68,5.69,5.70,6.15,0.81,0.81,0.80
28.90,-4.81,-5.61,-4.81,-5.61,5.62,5.65,6.23,0.81,0.81,0.80
29.19,-4.75,-5.54,-4.75,-5.55,5.55,5.61,6.30,0.80,0.80,0.79
29.48,-4.69,-5.49,-4.69,-5.49,5.48,5.56,6.36,0.79,0.79,0.80
29.78,-4.63,-5.43,-4.63,-5.43,5.42,5.51,6.41,0.79,0.79,0.80
30.08,-4.57,-5.37,-4.57,-5.37,5.36,5.47,6.46,0.79,0.79,0.80
30.38,-4.51,-5.30,-4.51,-5.30,5.31,5.42,6.49,0.80,0.80,0.79
30.68,-4.46,-5.25,-4.46,-5.24,5.26,5.36,6.51,0.80,0.81,0.79
30.99,-4.40,-5.18,-4.41,-5.19,5.21,5.31,6.53,0.81,0.80,0.78
31.30,-4.38,-5.15,-4.38,-5.16,5.16,5.26,6.53,0.78,0.78,0.77
31.61,-4.36,-5.13,-4.36,-5.13,5.11,5.20,6.52,0.75,0.76,0.77
31.93,-4.34,-5.10,-4.33,-5.09,5.06,5.15,6.50,0.72,0.73,0.76
32.24,-4.27,-5.02,-4.27,-5.03,5.00,5.09,6.47,0.73,0.73,0.75
32.57,-4.20,-4.95,-4.20,-4.95,4.94,5.04,6.42,0.74,0.74,0.75
32.89,-4.12,-4.87,-4.12,-4.87,4.87,4.98,6.37,0.75,0.75,0.75
33.22,-4.05,-4.80,-4.05,-4.79,4.80,4.92,6.31,0.75,0.75,0.75
33.55,-3.97,-4.71,-3.97,-4.72,4.72,4.86,6.24,0.75,0.75,0.74
33.89,-3.90,-4.64,-3.90,-4.64,4.64,4.81,6.17,0.74,0.74,0.74
34.23,-3.83,-4.57,-3.83,-4.57,4.58,4.75,6.08,0.75,0.74,0.74
34.57,-3.78,-4.51,-3.77,-4.51,4.52,4.69,5.99,0.74,0.74,0.73
34.92,-3.72,-4.45,-3.73,-4.45,4.47,4.63,5.90,0.75,0.74,0.73
35.27,-3.69,-4.42,-3.69,-4.41,4.43,4.57,5.80,0.74,0.74,0.73
35.62,-3.67,-4.38,-3.67,-4.38,4.40,4.51,5.69,0.73,0.74,0.71
35.97,-3.65,-4.36,-3.65,-4.37,4.37,4.45,5.58,0.72,0.72,0.71
36.33,-3.64,-4.35,-3.65,-4.35,4.34,4.39,5.47,0.70,0.70,0.71
36.70,-3.63,-4.34,-3.63,-4.33,4.30,4.33,5.36,0.67,0.67,0.71
37.06,-3.61,-4.30,-3.59,-4.29,4.25,4.27,5.24,0.64,0.66,0.69
37.43,-3.53,-4.22,-3.54,-4.23,4.19,4.21,5.13,0.67,0.66,0.69
37.81,-3.46,-4.15,-3.46,-4.15,4.13,4.14,5.01,0.67,0.67,0.69
38.19,-3.38,-4.06,-3.37,-4.05,4.07,4.08,4.90,0.69,0.70,0.68
38.57,-3.29,-3.96,-3.29,-3.96,4.00,4.02,4.78,0.71,0.72,0.67
38.95,-3.20,-3.87,-3.23,-3.89,3.93,3.96,4.67,0.73,0.71,0.67
39.34,-3.19,-3.85,-3.20,-3.85,3.87,3.90,4.55,0.68,0.67,0.66
39.74,-3.19,-3.84,-3.18,-3.83,3.81,3.84,4.44,0.62,0.64,0.65
40.14,-3.16,-3.81,-3.14,-3.79,3.76,3.78,4.33,0.60,0.63,0.65
40.54,-3.07,-3.72,-3.07,-3.72,3.71,3.72,4.23,0.64,0.64,0.65
40.94,-2.98,-3.63,-3.01,-3.66,3.66,3.67,4.12,0.68,0.65,0.65
41.35,-2.97,-3.60,-2.97,-3.61,3.60,3.61,4.01,0.63,0.63,0.63
41.76,-2.96,-3.58,-2.95,-3.56,3.54,3.55,3.91,0.58,0.60,0.62
42.18,-2.92,-3.52,-2.90,-3.50,3.48,3.49,3.81,0.56,0.58,0.60
42.60,-2.83,-3.41,-2.83,-3.42,3.42,3.43,3.72,0.59,0.59,0.58
43.03,-2.74,-3.31,-2.77,-3.33,3.37,3.37,3.62,0.63,0.60,0.57
43.46,-2.74,-3.28,-2.74,-3.27,3.31,3.32,3.53,0.57,0.57,0.54
43.90,-2.74,-3.24,-2.74,-3.24,3.24,3.26,3.44,0.50,0.51,0.50
44.33,-2.74,-3.21,-2.75,-3.22,3.18,3.20,3.36,0.44,0.43,0.47
44.78,-2.74,-3.18,-2.72,-3.16,3.12,3.15,3.27,0.38,0.39,0.44
45.23,-2.69,-3.10,-2.67,-3.08,3.06,3.09,3.19,0.37,0.39,0.41
45.68,-2.58,-2.97,-2.60,-2.99,3.01,3.03,3.11,0.43,0.41,0.39
46.13,-2.51,-2.88,-2.54,-2.91,2.96,2.98,3.04,0.45,0.42,0.37
46.60,-2.51,-2.88,-2.50,-2.86,2.90,2.92,2.96,0.39,0.40,0.37
47.06,-2.51,-2.86,-2.50,-2.85,2.84,2.87,2.89,0.33,0.34,0.35
47.53,-2.48,-2.82,-2.49,-2.84,2.78,2.82,2.82,0.30,0.30,0.34
48.01,-2.46,-2.81,-2.43,-2.78,2.74,2.76,2.75,0.28,0.30,0.35
48.49,-2.37,-2.71,-2.37,-2.71,2.71,2.71,2.69,0.34,0.34,0.34
48.97,-2.28,-2.61,-2.31,-2.65,2.69,2.66,2.63,0.41,0.37,0.33
49.46,-2.28,-2.61,-2.28,-2.60,2.67,2.60,2.57,0.39,0.39,0.33
49.96,-2.28,-2.61,-2.27,-2.61,2.65,2.55,2.51,0.37,0.38,0.33
50.46,-2.28,-2.62,-2.28,-2.62,2.62,2.50,2.45,0.34,0.34,0.34
50.96,-2.28,-2.63,-2.29,-2.64,2.59,2.45,2.40,0.31,0.30,0.35
51.47,-2.28,-2.63,-2.28,-2.63,2.57,2.40,2.34,0.29,0.28,0.35
51.99,-2.28,-2.62,-2.24,-2.58,2.54,2.35,2.29,0.26,0.30,0.34
52.51,-2.16,-2.49,-2.16,-2.49,2.50,2.30,2.24,0.34,0.33,0.33
53.03,-2.05,-2.36,-2.09,-2.40,2.44,2.25,2.19,0.39,0.35,0.31
53.56,-2.05,-2.33,-2.05,-2.33,2.37,2.20,2.14,0.32,0.32,0.28
54.10,-2.05,-2.29,-2.05,-2.29,2.28,2.15,2.10,0.23,0.23,0.24
54.64,-2.05,-2.25,-2.04,-2.24,2.20,2.11,2.05,0.15,0.16,0.20
55.18,-2.01,-2.17,-1.98,-2.13,2.12,2.06,2.01,0.11,0.14,0.16
55.74,-1.88,-1.99,-1.91,-2.02,2.03,2.01,1.97,0.15,0.13,0.11
56.29,-1.82,-1.89,-1.84,-1.91,1.94,1.97,1.92,0.12,0.10,0.07
56.86,-1.82,-1.84,-1.82,-1.84,1.84,1.92,1.88,0.02,0.02,0.02
57.42,-1.82,-1.77,-1.82,-1.77,1.74,1.87,1.84,-0.08,-0.07,-0.05
58.00,-1.82,-1.72,-1.77,-1.68,1.64,1.83,1.80,-0.18,-0.13,-0.10
58.58,-1.69,-1.54,-1.70,-1.56,1.55,1.78,1.76,-0.14,-0.16,-0.15
59.16,-1.60,-1.41,-1.64,-1.44,1.46,1.74,1.71,-0.14,-0.18,-0.19
59.76,-1.60,-1.35,-1.59,-1.34,1.38,1.69,1.67,-0.22,-0.21,-0.25
60.35,-1.60,-1.29,-1.59,-1.29,1.30,1.65,1.63,-0.30,-0.29,-0.31
60.96,-1.60,-1.24,-1.60,-1.24,1.23,1.60,1.59,-0.37,-0.37,-0.36
61.57,-1.60,-1.18,-1.60,-1.18,1.16,1.56,1.55,-0.44,-0.44,-0.42
62.18,-1.60,-1.12,-1.60,-1.13,1.10,1.52,1.51,-0.50,-0.50,-0.48
62.80,-1.60,-1.09,-1.60,-1.08,1.05,1.47,1.47,-0.55,-0.54,-0.51
63.43,-1.60,-1.04,-1.59,-1.04,1.03,1.43,1.42,-0.57,-0.57,-0.56
64.07,-1.60,-1.00,-1.60,-1.01,1.02,1.39,1.38,-0.58,-0.58,-0.60
64.71,-1.63,-1.00,-1.64,-1.00,1.04,1.35,1.34,-0.59,-0.60,-0.63
65.35,-1.70,-1.03,-1.70,-1.03,1.09,1.31,1.30,-0.61,-0.61,-0.67
66.01,-1.82,-1.12,-1.80,-1.10,1.17,1.26,1.25,-0.65,-0.63,-0.70
66.67,-1.93,-1.20,-1.96,-1.23,1.28,1.22,1.21,-0.65,-0.68,-0.73
67.33,-2.12,-1.37,-2.14,-1.39,1.41,1.18,1.16,-0.71,-0.73,-0.75
68.01,-2.38,-1.61,-2.32,-1.55,1.54,1.14,1.12,-0.83,-0.78,-0.77
68.69,-2.48,-1.69,-2.50,-1.71,1.67,1.10,1.07,-0.81,-0.83,-0.79
69.37,-2.61,-1.80,-2.63,-1.82,1.78,1.06,1.03,-0.83,-0.85,-0.81
70.07,-2.74,-1.91,-2.70,-1.88,1.84,1.02,0.98,-0.90,-0.86,-0.83
70.77,-2.74,-1.90,-2.76,-1.92,1.87,0.98,0.93,-0.87,-0.89,-0.84
71.48,-2.74,-1.88,-2.74,-1.89,1.83,0.94,0.89,-0.91,-0.91,-0.86
72.19,-2.69,-1.82,-2.66,-1.78,1.75,0.90,0.84,-0.94,-0.91,-0.87
72.91,-2.53,-1.63,-2.54,-1.64,1.62,0.86,0.79,-0.91,-0.92,-0.90
73.64,-2.36,-1.45,-2.39,-1.48,1.46,0.82,0.75,-0.90,-0.93,-0.91
74.38,-2.22,-1.29,-2.21,-1.28,1.29,0.78,0.70,-0.93,-0.92,-0.93
75.12,-2.07,-1.12,-2.02,-1.07,1.11,0.74,0.65,-0.96,-0.92,-0.95
75.87,-1.80,-0.83,-1.84,-0.87,0.92,0.70,0.60,-0.88,-0.92,-0.97
76.63,-1.66,-0.67,-1.68,-0.70,0.74,0.66,0.55,-0.92,-0.94,-0.99
77.40,-1.57,-0.58,-1.57,-0.57,0.58,0.63,0.51,-0.99,-0.98,-0.99
78.17,-1.50,-0.49,-1.47,-0.47,0.45,0.59,0.46,-1.05,-1.02,-1.01
78.95,-1.38,-0.37,-1.35,-0.34,0.34,0.55,0.41,-1.04,-1.01,-1.01
79.74,-1.20,-0.19,-1.24,-0.22,0.24,0.51,0.36,-0.96,-1.00,-1.01
80.54,-1.14,-0.12,-1.16,-0.14,0.16,0.47,0.31,-0.98,-1.00,-1.02
81.35,-1.14,-0.12,-1.13,-0.11,0.10,0.43,0.26,-1.04,-1.02,-1.02
82.16,-1.12,-0.11,-1.09,-0.08,0.06,0.39,0.22,-1.06,-1.03,-1.01
82.98,-1.04,-0.05,-1.03,-0.03,0.02,0.35,0.17,-1.02,-1.01,-0.99
83.81,-0.93,0.06,-0.96,0.03,-0.00,0.31,0.12,-0.93,-0.97,-0.99
84.65,-0.91,0.07,-0.92,0.06,-0.03,0.27,0.07,-0.94,-0.94,-0.98
85.50,-0.91,0.04,-0.91,0.05,-0.05,0.24,0.02,-0.96,-0.95,-0.95
86.35,-0.91,0.03,-0.92,0.02,-0.07,0.20,-0.03,-0.98,-0.98,-0.94
87.22,-0.90,0.02,-0.88,0.04,-0.08,0.16,-0.08,-0.98,-0.96,-0.92
88.09,-0.84,0.07,-0.81,0.09,-0.10,0.12,-0.13,-0.94,-0.91,-0.91
88.97,-0.69,0.18,-0.74,0.14,-0.11,0.08,-0.18,-0.80,-0.85,-0.87
89.86,-0.68,0.18,-0.68,0.17,-0.13,0.04,-0.23,-0.81,-0.82,-0.86
90.76,-0.68,0.17,-0.68,0.17,-0.16,-0.00,-0.28,-0.84,-0.84,-0.85
91.66,-0.68,0.15,-0.68,0.15,-0.19,-0.04,-0.33,-0.87,-0.88,-0.83
92.58,-0.68,0.16,-0.64,0.18,-0.23,-0.08,-0.38,-0.91,-0.87,-0.84
93.51,-0.58,0.23,-0.58,0.24,-0.26,-0.12,-0.43,-0.84,-0.84,-0.81
94.44,-0.48,0.33,-0.51,0.30,-0.29,-0.16,-0.48,-0.77,-0.80,-0.81
95.39,-0.46,0.35,-0.46,0.35,-0.31,-0.20,-0.53,-0.77,-0.77,-0.81
96.34,-0.46,0.37,-0.45,0.37,-0.33,-0.24,-0.58,-0.79,-0.79,-0.83
97.30,-0.46,0.37,-0.46,0.37,-0.36,-0.28,-0.64,-0.82,-0.81,-0.83
98.28,-0.46,0.38,-0.46,0.38,-0.37,-0.32,-0.69,-0.83,-0.83,-0.84
99.26,-0.46,0.38,-0.46,0.38,-0.38,-0.37,-0.74,-0.84,-0.84,-0.84
100.25,-0.46,0.39,-0.46,0.39,-0.40,-0.41,-0.79,-0.86,-0.86,-0.85
101.25,-0.46,0.41,-0.46,0.41,-0.42,-0.45,-0.84,-0.88,-0.89,-0.87
102.27,-0.46,0.43,-0.47,0.42,-0.46,-0.49,-0.89,-0.92,-0.93,-0.89
103.29,-0.46,0.46,-0.44,0.47,-0.52,-0.53,-0.94,-0.98,-0.96,-0.92
104.32,-0.41,0.53,-0.38,0.56,-0.58,-0.58,-0.99,-0.99,-0.96,-0.94
105.37,-0.29,0.68,-0.31,0.66,-0.65,-0.62,-1.04,-0.94,-0.96,-0.97
106.42,-0.23,0.78,-0.25,0.76,-0.72,-0.66,-1.09,-0.95,-0.97,-1.01
107.48,-0.23,0.83,-0.22,0.84,-0.80,-0.71,-1.14,-1.03,-1.02,-1.06
108.56,-0.23,0.89,-0.22,0.89,-0.87,-0.75,-1.19,-1.10,-1.09,-1.12
109.64,-0.23,0.94,-0.23,0.93,-0.94,-0.79,-1.23,-1.17,-1.17,-1.17
110.74,-0.23,0.99,-0.23,0.99,-1.00,-0.84,-1.28,-1.23,-1.23,-1.22
111.85,-0.23,1.03,-0.23,1.04,-1.06,-0.88,-1.32,-1.29,-1.29,-1.26
112.97,-0.23,1.10,-0.23,1.10,-1.11,-0.93,-1.36,-1.34,-1.34,-1.33
114.10,-0.23,1.15,-0.23,1.16,-1.16,-0.97,-1.40,-1.39,-1.39,-1.38
115.24,-0.23,1.21,-0.23,1.21,-1.21,-1.02,-1.44,-1.44,-1.44,-1.44
116.39,-0.23,1.27,-0.23,1.27,-1.26,-1.06,-1.48,-1.49,-1.49,-1.50
117.55,-0.23,1.32,-0.23,1.32,-1.31,-1.11,-1.51,-1.54,-1.54,-1.55
118.73,-0.23,1.36,-0.23,1.36,-1.35,-1.15,-1.54,-1.58,-1.58,-1.59
119.92,-0.23,1.39,-0.23,1.40,-1.39,-1.20,-1.57,-1.62,-1.62,-1.62
121.12,-0.23,1.43,-0.23,1.42,-1.42,-1.24,-1.60,-1.65,-1.65,-1.66
122.33,-0.23,1.45,-0.23,1.45,-1.45,-1.29,-1.62,-1.68,-1.68,-1.68
123.55,-0.23,1.46,-0.23,1.47,-1.47,-1.33,-1.65,-1.70,-1.70,-1.69
124.79,-0.23,1.49,-0.23,1.48,-1.49,-1.38,-1.66,-1.72,-1.72,-1.72
126.03,-0.23,1.50,-0.23,1.50,-1.50,-1.42,-1.68,-1.73,-1.73,-1.73
127.29,-0.23,1.51,-0.23,1.52,-1.52,-1.47,-1.70,-1.75,-1.75,-1.74
128.57,-0.23,1.54,-0.23,1.53,-1.53,-1.51,-1.71,-1.76,-1.76,-1.77
129.85,-0.23,1.55,-0.23,1.55,-1.55,-1.56,-1.72,-1.78,-1.78,-1.78
131.15,-0.23,1.57,-0.23,1.57,-1.57,-1.60,-1.72,-1.80,-1.80,-1.80
132.46,-0.23,1.59,-0.23,1.59,-1.59,-1.64,-1.73,-1.82,-1.82,-1.82
133.79,-0.23,1.60,-0.23,1.60,-1.61,-1.69,-1.73,-1.84,-1.84,-1.83
135.12,-0.23,1.63,-0.23,1.62,-1.63,-1.73,-1.73,-1.86,-1.86,-1.86
136.48,-0.23,1.64,-0.23,1.64,-1.65,-1.77,-1.73,-1.88,-1.88,-1.87
137.84,-0.23,1.66,-0.23,1.67,-1.67,-1.81,-1.73,-1.90,-1.90,-1.89
139.22,-0.23,1.70,-0.23,1.70,-1.69,-1.85,-1.72,-1.92,-1.92,-1.93
140.61,-0.23,1.73,-0.23,1.72,-1.72,-1.89,-1.72,-1.95,-1.95,-1.96
142.02,-0.23,1.74,-0.23,1.75,-1.74,-1.93,-1.71,-1.97,-1.97,-1.97
143.44,-0.23,1.77,-0.23,1.77,-1.78,-1.97,-1.70,-2.01,-2.01,-2.00
144.87,-0.23,1.79,-0.23,1.79,-1.81,-2.00,-1.69,-2.04,-2.04,-2.02
146.32,-0.23,1.83,-0.23,1.83,-1.85,-2.04,-1.69,-2.08,-2.08,-2.06
147.78,-0.23,1.86,-0.23,1.87,-1.87,-2.07,-1.68,-2.10,-2.10,-2.09
149.26,-0.23,1.91,-0.22,1.93,-1.90,-2.10,-1.67,-2.13,-2.12,-2.14
150.75,-0.23,1.98,-0.23,1.97,-1.93,-2.13,-1.66,-2.16,-2.16,-2.21
152.26,-0.24,2.02,-0.29,1.98,-1.96,-2.16,-1.65,-2.20,-2.25,-2.26
153.78,-0.38,1.95,-0.36,1.98,-2.00,-2.19,-1.64,-2.38,-2.35,-2.33
155.32,-0.45,1.96,-0.42,1.98,-2.02,-2.22,-1.63,-2.47,-2.45,-2.41
156.88,-0.46,2.01,-0.47,2.01,-2.04,-2.24,-1.63,-2.50,-2.51,-2.47
158.44,-0.46,2.07,-0.45,2.08,-2.05,-2.26,-1.62,-2.51,-2.50,-2.53
160.03,-0.46,2.14,-0.46,2.13,-2.07,-2.28,-1.61,-2.53,-2.53,-2.60
161.63,-0.46,2.19,-0.51,2.13,-2.09,-2.30,-1.61,-2.55,-2.61,-2.65
163.24,-0.60,2.09,-0.59,2.10,-2.13,-2.32,-1.60,-2.73,-2.71,-2.69
164.88,-0.68,2.04,-0.63,2.08,-2.16,-2.33,-1.60,-2.84,-2.79,-2.72
166.53,-0.64,2.11,-0.62,2.12,-2.19,-2.35,-1.60,-2.83,-2.81,-2.75
168.19,-0.53,2.23,-0.55,2.21,-2.22,-2.36,-1.60,-2.75,-2.77,-2.76
169.87,-0.46,2.31,-0.48,2.29,-2.23,-2.36,-1.60,-2.69,-2.72,-2.77
171.57,-0.46,2.31,-0.45,2.31,-2.25,-2.37,-1.60,-2.71,-2.71,-2.77
173.29,-0.46,2.30,-0.45,2.30,-2.27,-2.37,-1.60,-2.73,-2.72,-2.76
175.02,-0.46,2.27,-0.46,2.28,-2.28,-2.38,-1.61,-2.74,-2.74,-2.73
176.77,-0.46,2.27,-0.46,2.27,-2.28,-2.38,-1.61,-2.74,-2.74,-2.73
178.54,-0.46,2.26,-0.46,2.25,-2.27,-2.37,-1.62,-2.73,-2.73,-2.72
180.32,-0.46,2.24,-0.46,2.24,-2.25,-2.37,-1.63,-2.71,-2.71,-2.70
182.13,-0.46,2.23,-0.46,2.23,-2.24,-2.36,-1.64,-2.70,-2.70,-2.69
183.95,-0.46,2.22,-0.46,2.22,-2.23,-2.36,-1.65,-2.69,-2.69,-2.68
185.79,-0.46,2.22,-0.46,2.23,-2.23,-2.35,-1.66,-2.69,-2.69,-2.68
187.65,-0.46,2.24,-0.46,2.24,-2.24,-2.34,-1.68,-2.70,-2.70,-2.70
189.52,-0.46,2.25,-0.46,2.25,-2.24,-2.32,-1.69,-2.70,-2.70,-2.71
191.42,-0.46,2.26,-0.46,2.26,-2.26,-2.31,-1.71,-2.72,-2.72,-2.72
193.33,-0.46,2.27,-0.46,2.27,-2.27,-2.29,-1.72,-2.73,-2.73,-2.73
195.27,-0.46,2.28,-0.46,2.28,-2.28,-2.27,-1.74,-2.74,-2.74,-2.74
197.22,-0.46,2.29,-0.46,2.29,-2.30,-2.25,-1.76,-2.76,-2.76,-2.75
199.19,-0.46,2.32,-0.46,2.31,-2.32,-2.23,-1.78,-2.78,-2.78,-2.78
201.18,-0.46,2.32,-0.46,2.32,-2.33,-2.21,-1.80,-2.79,-2.79,-2.78
203.19,-0.46,2.33,-0.46,2.33,-2.34,-2.19,-1.82,-2.80,-2.80,-2.79
205.23,-0.46,2.35,-0.46,2.34,-2.34,-2.17,-1.84,-2.80,-2.80,-2.81
207.28,-0.46,2.35,-0.45,2.37,-2.33,-2.14,-1.86,-2.79,-2.78,-2.81
209.35,-0.46,2.37,-0.46,2.37,-2.31,-2.12,-1.89,-2.77,-2.77,-2.83
211.44,-0.46,2.39,-0.51,2.32,-2.30,-2.09,-1.91,-2.76,-2.81,-2.85
213.56,-0.61,2.24,-0.58,2.26,-2.29,-2.07,-1.93,-2.90,-2.87,-2.85
215.69,-0.68,2.16,-0.65,2.20,-2.27,-2.04,-1.95,-2.95,-2.92,-2.84
217.85,-0.68,2.18,-0.69,2.17,-2.25,-2.01,-1.97,-2.93,-2.94,-2.86
220.03,-0.68,2.19,-0.69,2.18,-2.22,-1.99,-1.99,-2.90,-2.90,-2.87
222.23,-0.68,2.21,-0.66,2.22,-2.16,-1.96,-2.01,-2.84,-2.83,-2.89
224.45,-0.68,2.20,-0.67,2.22,-2.10,-1.93,-2.03,-2.78,-2.77,-2.88
226.70,-0.68,2.20,-0.74,2.15,-2.04,-1.90,-2.05,-2.72,-2.78,-2.88
228.96,-0.84,2.05,-0.87,2.02,-1.98,-1.87,-2.06,-2.82,-2.84,-2.89
231.25,-1.07,1.81,-1.01,1.88,-1.92,-1.84,-2.08,-2.99,-2.93,-2.88
233.57,-1.14,1.75,-1.12,1.77,-1.88,-1.82,-2.09,-3.02,-3.00,-2.89
235.90,-1.14,1.76,-1.17,1.72,-1.85,-1.79,-2.10,-2.99,-3.02,-2.90
238.26,-1.14,1.75,-1.15,1.75,-1.82,-1.76,-2.11,-2.96,-2.97,-2.89
240.64,-1.14,1.75,-1.08,1.80,-1.81,-1.73,-2.11,-2.95,-2.89,-2.89
243.05,-0.98,1.89,-0.99,1.88,-1.80,-1.70,-2.11,-2.78,-2.79,-2.87
245.48,-0.91,1.96,-0.95,1.92,-1.80,-1.68,-2.11,-2.71,-2.75,-2.87
247.93,-0.91,1.94,-0.96,1.90,-1.80,-1.65,-2.11,-2.71,-2.77,-2.85
250.41,-1.10,1.76,-1.04,1.81,-1.80,-1.62,-2.11,-2.90,-2.84,-2.86
252.92,-1.14,1.70,-1.12,1.72,-1.77,-1.60,-2.10,-2.91,-2.89,-2.84
255.45,-1.14,1.68,-1.16,1.67,-1.74,-1.57,-2.09,-2.88,-2.90,-2.82
258.00,-1.14,1.67,-1.14,1.67,-1.70,-1.54,-2.08,-2.84,-2.85,-2.81
260.58,-1.14,1.66,-1.14,1.66,-1.66,-1.52,-2.06,-2.80,-2.80,-2.80
263.19,-1.14,1.65,-1.14,1.65,-1.64,-1.49,-2.04,-2.78,-2.78,-2.79
265.82,-1.14,1.64,-1.14,1.64,-1.62,-1.47,-2.02,-2.76,-2.76,-2.78
268.48,-1.14,1.62,-1.14,1.62,-1.61,-1.44,-2.00,-2.75,-2.75,-2.76
271.16,-1.14,1.60,-1.14,1.60,-1.60,-1.42,-1.97,-2.74,-2.74,-2.74
273.87,-1.14,1.58,-1.14,1.58,-1.58,-1.40,-1.95,-2.72,-2.72,-2.72
276.61,-1.14,1.55,-1.14,1.55,-1.55,-1.38,-1.92,-2.69,-2.69,-2.69
279.38,-1.14,1.53,-1.14,1.53,-1.53,-1.35,-1.89,-2.67,-2.67,-2.67
282.17,-1.14,1.50,-1.14,1.50,-1.50,-1.33,-1.86,-2.64,-2.64,-2.64
284.99,-1.14,1.48,-1.14,1.48,-1.47,-1.31,-1.82,-2.61,-2.61,-2.62
287.84,-1.14,1.45,-1.14,1.44,-1.44,-1.29,-1.79,-2.58,-2.58,-2.59
290.72,-1.14,1.41,-1.14,1.41,-1.42,-1.27,-1.75,-2.56,-2.56,-2.55
293.63,-1.14,1.38,-1.14,1.38,-1.39,-1.25,-1.72,-2.53,-2.53,-2.52
296.57,-1.14,1.36,-1.14,1.36,-1.36,-1.23,-1.68,-2.50,-2.50,-2.50
299.53,-1.14,1.33,-1.14,1.33,-1.32,-1.21,-1.65,-2.46,-2.46,-2.47
302.53,-1.14,1.31,-1.14,1.30,-1.29,-1.20,-1.61,-2.43,-2.43,-2.45
305.55,-1.14,1.27,-1.14,1.28,-1.27,-1.18,-1.57,-2.41,-2.41,-2.41
308.61,-1.14,1.25,-1.14,1.25,-1.26,-1.16,-1.54,-2.40,-2.40,-2.39
311.69,-1.14,1.24,-1.14,1.23,-1.26,-1.15,-1.50,-2.40,-2.40,-2.38
314.81,-1.14,1.21,-1.16,1.20,-1.26,-1.13,-1.47,-2.40,-2.42,-2.35
317.96,-1.14,1.21,-1.13,1.22,-1.27,-1.12,-1.43,-2.41,-2.40,-2.35
321.14,-1.13,1.22,-1.06,1.29,-1.27,-1.10,-1.39,-2.40,-2.33,-2.35
324.35,-0.96,1.38,-1.01,1.33,-1.26,-1.09,-1.36,-2.22,-2.28,-2.34
327.59,-0.94,1.40,-1.01,1.33,-1.26,-1.07,-1.33,-2.20,-2.26,-2.34
330.87,-1.09,1.24,-1.04,1.29,-1.25,-1.06,-1.29,-2.34,-2.29,-2.33
334.18,-1.14,1.18,-1.11,1.20,-1.23,-1.05,-1.26,-2.37,-2.35,-2.32
337.52,-1.14,1.17,-1.15,1.15,-1.21,-1.04,-1.23,-2.35,-2.36,-2.31
340.90,-1.14,1.14,-1.14,1.15,-1.17,-1.03,-1.20,-2.31,-2.32,-2.28
344.30,-1.14,1.13,-1.14,1.13,-1.14,-1.01,-1.17,-2.28,-2.28,-2.27
347.75,-1.14,1.11,-1.14,1.11,-1.10,-1.00,-1.14,-2.24,-2.24,-2.25
351.23,-1.14,1.09,-1.14,1.09,-1.08,-0.99,-1.11,-2.22,-2.22,-2.23
354.74,-1.14,1.07,-1.14,1.07,-1.06,-0.98,-1.08,-2.20,-2.20,-2.21
358.28,-1.14,1.04,-1.14,1.04,-1.04,-0.97,-1.05,-2.18,-2.18,-2.18
361.87,-1.14,1.02,-1.14,1.02,-1.01,-0.97,-1.03,-2.15,-2.15,-2.16
365.49,-1.14,0.99,-1.14,0.99,-0.98,-0.96,-1.00,-2.12,-2.12,-2.13
369.14,-1.14,0.97,-1.14,0.97,-0.95,-0.95,-0.98,-2.09,-2.09,-2.11
372.83,-1.14,0.94,-1.14,0.94,-0.94,-0.94,-0.96,-2.08,-2.08,-2.08
376.56,-1.14,0.92,-1.15,0.91,-0.94,-0.93,-0.93,-2.08,-2.10,-2.06
380.33,-1.14,0.89,-1.14,0.90,-0.95,-0.93,-0.91,-2.09,-2.09,-2.03
384.13,-1.14,0.88,-1.09,0.93,-0.97,-0.92,-0.89,-2.11,-2.06,-2.02
387.97,-0.99,1.02,-1.02,0.99,-0.99,-0.92,-0.87,-1.98,-2.00,-2.01
391.85,-0.92,1.08,-0.95,1.05,-1.01,-0.91,-0.85,-1.93,-1.96,-2.00
395.77,-0.91,1.08,-0.90,1.09,-1.03,-0.91,-0.83,-1.94,-1.93,-1.99
399.73,-0.91,1.07,-0.90,1.07,-1.05,-0.90,-0.81,-1.96,-1.95,-1.98
403.72,-0.91,1.06,-0.91,1.06,-1.06,-0.90,-0.80,-1.97,-1.97,-1.97
407.76,-0.91,1.05,-0.91,1.05,-1.06,-0.89,-0.78,-1.97,-1.97,-1.96
411.84,-0.91,1.04,-0.91,1.04,-1.06,-0.89,-0.76,-1.97,-1.97,-1.95
415.96,-0.91,1.03,-0.91,1.03,-1.05,-0.89,-0.75,-1.96,-1.96,-1.94
420.12,-0.91,1.03,-0.91,1.03,-1.04,-0.88,-0.73,-1.95,-1.95,-1.94
424.32,-0.91,1.03,-0.91,1.03,-1.03,-0.88,-0.72,-1.94,-1.94,-1.94
428.56,-0.91,1.03,-0.91,1.03,-1.03,-0.88,-0.71,-1.94,-1.94,-1.94
432.85,-0.91,1.03,-0.91,1.03,-1.04,-0.88,-0.69,-1.95,-1.95,-1.94
437.18,-0.91,1.02,-0.91,1.03,-1.04,-0.87,-0.68,-1.95,-1.95,-1.93
441.55,-0.91,1.01,-0.91,1.02,-1.03,-0.87,-0.67,-1.94,-1.94,-1.92
445.96,-0.91,1.02,-0.91,1.01,-1.02,-0.87,-0.65,-1.93,-1.93,-1.93
450.42,-0.91,1.01,-0.90,1.02,-0.99,-0.87,-0.64,-1.90,-1.89,-1.92
