frequency,raw,smoothed,error,error_smoothed,equalization,parametric_eq,fixed_band_eq,equalized_raw,equalized_smoothed,target
20.00,0.68,0.69,-5.42,-5.42,5.45,5.96,1.66,6.13,6.13,6.11
20.20,0.74,0.74,-5.39,-5.39,5.40,5.89,1.71,6.15,6.14,6.14
20.40,0.80,0.80,-5.36,-5.36,5.35,5.82,1.77,6.16,6.16,6.16
20.61,0.86,0.86,-5.32,-5.33,5.31,5.75,1.82,6.17,6.17,6.18
20.81,0.92,0.93,-5.29,-5.29,5.26,5.68,1.87,6.19,6.19,6.21
21.02,0.99,0.99,-5.25,-5.24,5.22,5.62,1.93,6.21,6.21,6.24
21.23,1.06,1.06,-5.19,-5.19,5.17,5.55,1.99,6.24,6.23,6.25
21.44,1.13,1.14,-5.13,-5.13,5.13,5.48,2.05,6.26,6.26,6.26
21.66,1.20,1.21,-5.07,-5.06,5.08,5.42,2.11,6.28,6.29,6.27
21.87,1.27,1.27,-5.00,-5.01,5.03,5.35,2.17,6.31,6.30,6.27
22.09,1.32,1.32,-4.96,-4.96,4.99,5.28,2.23,6.31,6.30,6.28
22.31,1.34,1.35,-4.94,-4.93,4.94,5.22,2.30,6.29,6.29,6.28
22.54,1.37,1.37,-4.91,-4.91,4.90,5.15,2.37,6.27,6.27,6.28
22.76,1.39,1.39,-4.88,-4.88,4.85,5.09,2.44,6.25,6.25,6.28
22.99,1.42,1.44,-4.84,-4.84,4.81,5.02,2.51,6.23,6.24,6.27
23.22,1.49,1.49,-4.77,-4.78,4.76,4.96,2.58,6.25,6.25,6.27
23.45,1.56,1.56,-4.70,-4.70,4.70,4.89,2.66,6.27,6.27,6.27
23.69,1.63,1.64,-4.63,-4.63,4.65,4.83,2.74,6.28,6.28,6.27
23.92,1.70,1.70,-4.56,-4.57,4.59,4.76,2.81,6.29,6.29,6.26
24.16,1.75,1.75,-4.52,-4.52,4.53,4.70,2.89,6.29,6.28,6.27
24.40,1.79,1.80,-4.48,-4.47,4.48,4.64,2.97,6.27,6.27,6.27
24.65,1.83,1.83,-4.43,-4.43,4.42,4.58,3.05,6.26,6.26,6.26
24.89,1.87,1.88,-4.39,-4.38,4.37,4.51,3.13,6.25,6.25,6.26
25.14,1.92,1.92,-4.34,-4.34,4.33,4.45,3.22,6.25,6.25,6.26
25.39,1.97,1.97,-4.28,-4.29,4.28,4.39,3.30,6.26,6.25,6.26
25.65,2.01,2.02,-4.24,-4.24,4.24,4.33,3.38,6.25,6.26,6.26
25.91,2.06,2.06,-4.18,-4.19,4.20,4.27,3.47,6.26,6.26,6.25
26.16,2.10,2.10,-4.14,-4.15,4.16,4.21,3.55,6.26,6.26,6.25
26.43,2.13,2.14,-4.11,-4.11,4.12,4.15,3.63,6.25,6.25,6.24
26.69,2.16,2.16,-4.08,-4.08,4.08,4.09,3.71,6.24,6.24,6.24
26.96,2.19,2.19,-4.05,-4.05,4.04,4.03,3.79,6.23,6.23,6.24
27.23,2.22,2.23,-4.02,-4.01,4.00,3.98,3.87,6.23,6.23,6.24
27.50,2.27,2.27,-3.97,-3.97,3.96,3.92,3.94,6.24,6.23,6.24
27.77,2.31,2.31,-3.91,-3.92,3.92,3.86,4.01,6.24,6.23,6.23
28.05,2.35,2.35,-3.87,-3.87,3.88,3.81,4.08,6.23,6.23,6.23
28.33,2.39,2.39,-3.82,-3.83,3.83,3.75,4.14,6.22,6.22,6.22
28.62,2.43,2.44,-3.78,-3.78,3.77,3.70,4.20,6.21,6.21,6.21
28.90,2.48,2.48,-3.73,-3.73,3.72,3.65,4.26,6.20,6.20,6.21
29.19,2.53,2.54,-3.67,-3.67,3.66,3.59,4.31,6.20,6.20,6.20
29.48,2.59,2.59,-3.61,-3.61,3.61,3.54,4.35,6.20,6.20,6.21
29.78,2.65,2.65,-3.54,-3.55,3.55,3.49,4.39,6.20,6.20,6.20
30.08,2.70,2.70,-3.49,-3.49,3.50,3.44,4.42,6.20,6.20,6.20
30.38,2.74,2.75,-3.44,-3.44,3.45,3.39,4.44,6.19,6.20,6.18
30.68,2.79,2.79,-3.39,-3.39,3.40,3.34,4.45,6.20,6.19,6.18
30.99,2.83,2.83,-3.34,-3.35,3.36,3.29,4.46,6.19,6.19,6.17
31.30,2.85,2.85,-3.31,-3.31,3.32,3.25,4.46,6.18,6.18,6.17
31.61,2.87,2.87,-3.29,-3.29,3.28,3.20,4.46,6.16,6.16,6.16
31.93,2.89,2.90,-3.26,-3.25,3.24,3.15,4.44,6.13,6.14,6.15
32.24,2.93,2.93,-3.21,-3.21,3.18,3.11,4.42,6.12,6.12,6.14
32.57,2.98,2.98,-3.15,-3.16,3.13,3.07,4.39,6.11,6.11,6.14
32.89,3.02,3.03,-3.11,-3.10,3.08,3.02,4.36,6.10,6.11,6.13
33.22,3.09,3.10,-3.03,-3.02,3.03,2.98,4.31,6.12,6.13,6.12
33.55,3.16,3.17,-2.95,-2.95,2.99,2.94,4.27,6.15,6.16,6.12
33.89,3.24,3.22,-2.86,-2.89,2.95,2.90,4.21,6.19,6.17,6.11
34.23,3.23,3.23,-2.87,-2.87,2.92,2.86,4.15,6.15,6.14,6.10
34.57,3.20,3.21,-2.89,-2.89,2.88,2.82,4.09,6.09,6.09,6.09
34.92,3.16,3.18,-2.91,-2.90,2.85,2.79,4.02,6.01,6.03,6.08
35.27,3.19,3.20,-2.88,-2.87,2.81,2.75,3.94,6.01,6.01,6.07
35.62,3.24,3.24,-2.82,-2.82,2.78,2.71,3.87,6.02,6.02,6.06
35.97,3.30,3.30,-2.74,-2.75,2.74,2.68,3.79,6.05,6.04,6.05
36.33,3.35,3.36,-2.69,-2.68,2.71,2.64,3.71,6.06,6.07,6.04
36.70,3.41,3.41,-2.62,-2.61,2.66,2.61,3.62,6.08,6.08,6.03
37.06,3.46,3.44,-2.55,-2.58,2.62,2.57,3.54,6.08,6.06,6.02
37.43,3.44,3.44,-2.57,-2.56,2.57,2.54,3.45,6.02,6.02,6.01
37.81,3.42,3.44,-2.57,-2.56,2.53,2.51,3.37,5.96,5.97,6.00
38.19,3.43,3.45,-2.55,-2.54,2.50,2.47,3.28,5.93,5.94,5.98
38.57,3.48,3.48,-2.49,-2.50,2.47,2.44,3.19,5.96,5.95,5.98
38.95,3.52,3.52,-2.44,-2.44,2.45,2.41,3.10,5.97,5.97,5.96
39.34,3.55,3.56,-2.39,-2.39,2.43,2.37,3.02,5.98,5.99,5.95
39.74,3.58,3.58,-2.35,-2.35,2.40,2.34,2.93,5.98,5.98,5.93
40.14,3.59,3.58,-2.33,-2.35,2.36,2.31,2.84,5.95,5.93,5.93
40.54,3.57,3.57,-2.34,-2.35,2.32,2.27,2.76,5.89,5.88,5.91
40.94,3.54,3.58,-2.36,-2.32,2.27,2.24,2.68,5.82,5.85,5.91
41.35,3.61,3.62,-2.28,-2.27,2.23,2.20,2.60,5.85,5.85,5.89
41.76,3.70,3.69,-2.18,-2.20,2.19,2.17,2.51,5.90,5.88,5.88
42.18,3.76,3.75,-2.11,-2.12,2.15,2.13,2.44,5.92,5.91,5.88
42.60,3.78,3.79,-2.08,-2.07,2.12,2.09,2.36,5.90,5.91,5.86
43.03,3.80,3.80,-2.05,-2.05,2.08,2.06,2.28,5.89,5.89,5.85
43.46,3.80,3.81,-2.03,-2.03,2.05,2.02,2.21,5.85,5.86,5.84
43.90,3.80,3.79,-2.00,-2.02,2.02,1.98,2.13,5.82,5.81,5.81
44.33,3.78,3.78,-2.01,-2.02,1.99,1.95,2.06,5.77,5.76,5.79
44.78,3.75,3.77,-2.02,-2.00,1.95,1.91,1.99,5.70,5.72,5.77
45.23,3.78,3.79,-1.97,-1.96,1.91,1.87,1.92,5.69,5.70,5.75
45.68,3.85,3.85,-1.88,-1.89,1.86,1.83,1.86,5.72,5.71,5.74
46.13,3.92,3.92,-1.79,-1.80,1.81,1.79,1.79,5.74,5.74,5.72
46.60,3.98,3.98,-1.72,-1.72,1.76,1.75,1.73,5.75,5.75,5.71
47.06,4.03,4.01,-1.65,-1.67,1.72,1.71,1.67,5.75,5.73,5.69
47.53,4.01,4.02,-1.65,-1.65,1.68,1.67,1.61,5.70,5.70,5.67
48.01,4.00,4.02,-1.65,-1.64,1.65,1.63,1.55,5.66,5.67,5.66
48.49,4.00,4.00,-1.62,-1.62,1.62,1.60,1.49,5.63,5.63,5.63
48.97,4.00,3.98,-1.59,-1.61,1.59,1.56,1.44,5.60,5.58,5.60
49.46,3.97,3.97,-1.59,-1.59,1.55,1.52,1.38,5.53,5.52,5.56
49.96,3.94,3.97,-1.59,-1.56,1.51,1.48,1.33,5.45,5.48,5.53
50.46,4.01,4.01,-1.51,-1.50,1.45,1.44,1.28,5.47,5.47,5.52
50.96,4.09,4.09,-1.40,-1.40,1.40,1.40,1.23,5.49,5.49,5.50
51.47,4.17,4.18,-1.29,-1.29,1.34,1.36,1.18,5.51,5.52,5.46
51.99,4.25,4.22,-1.19,-1.22,1.28,1.32,1.13,5.54,5.50,5.44
52.51,4.22,4.23,-1.20,-1.19,1.23,1.28,1.08,5.46,5.46,5.43
53.03,4.20,4.22,-1.20,-1.18,1.19,1.24,1.04,5.39,5.41,5.40
53.56,4.20,4.20,-1.17,-1.18,1.15,1.20,0.99,5.35,5.35,5.38
54.10,4.20,4.20,-1.15,-1.15,1.13,1.16,0.95,5.33,5.33,5.35
54.64,4.20,4.20,-1.12,-1.12,1.11,1.12,0.91,5.32,5.32,5.33
55.18,4.20,4.20,-1.10,-1.10,1.10,1.08,0.87,5.31,5.31,5.30
55.74,4.20,4.21,-1.07,-1.07,1.09,1.04,0.83,5.29,5.30,5.27
56.29,4.20,4.21,-1.05,-1.05,1.07,1.00,0.79,5.27,5.27,5.26
56.86,4.20,4.18,-1.02,-1.04,1.04,0.96,0.75,5.24,5.22,5.23
57.42,4.17,4.17,-1.02,-1.03,1.00,0.92,0.71,5.18,5.17,5.20
58.00,4.14,4.19,-1.04,-0.99,0.96,0.88,0.67,5.10,5.15,5.18
58.58,4.23,4.22,-0.93,-0.94,0.91,0.84,0.63,5.14,5.13,5.16
59.16,4.30,4.27,-0.83,-0.87,0.85,0.80,0.60,5.15,5.12,5.14
59.76,4.30,4.34,-0.81,-0.78,0.79,0.77,0.56,5.10,5.13,5.12
60.35,4.36,4.38,-0.72,-0.71,0.73,0.73,0.53,5.10,5.11,5.09
60.96,4.45,4.41,-0.61,-0.64,0.67,0.69,0.49,5.13,5.09,5.06
61.57,4.43,4.43,-0.59,-0.59,0.62,0.65,0.46,5.06,5.05,5.02
62.18,4.40,4.42,-0.58,-0.57,0.58,0.62,0.43,4.98,5.00,4.99
62.80,4.40,4.40,-0.56,-0.55,0.54,0.58,0.40,4.95,4.95,4.96
63.43,4.40,4.40,-0.52,-0.53,0.51,0.55,0.36,4.92,4.91,4.93
64.07,4.40,4.40,-0.50,-0.50,0.49,0.51,0.33,4.89,4.89,4.90
64.71,4.40,4.40,-0.47,-0.47,0.47,0.48,0.30,4.87,4.87,4.87
65.35,4.40,4.40,-0.44,-0.44,0.44,0.45,0.27,4.85,4.85,4.85
66.01,4.40,4.40,-0.41,-0.41,0.42,0.42,0.24,4.82,4.82,4.82
66.67,4.40,4.40,-0.39,-0.39,0.39,0.39,0.21,4.79,4.79,4.79
67.33,4.40,4.40,-0.36,-0.36,0.36,0.36,0.18,4.76,4.76,4.76
68.01,4.40,4.40,-0.33,-0.33,0.33,0.33,0.15,4.73,4.73,4.73
68.69,4.40,4.40,-0.29,-0.29,0.30,0.30,0.12,4.70,4.70,4.70
69.37,4.40,4.40,-0.26,-0.26,0.26,0.27,0.09,4.67,4.67,4.67
70.07,4.40,4.40,-0.23,-0.23,0.23,0.24,0.06,4.63,4.63,4.63
70.77,4.40,4.40,-0.21,-0.20,0.20,0.22,0.03,4.60,4.60,4.61
71.48,4.40,4.40,-0.17,-0.17,0.17,0.19,0.00,4.58,4.58,4.58
72.19,4.40,4.40,-0.14,-0.14,0.15,0.16,-0.03,4.55,4.55,4.54
72.91,4.40,4.41,-0.10,-0.10,0.12,0.13,-0.05,4.52,4.52,4.50
73.64,4.40,4.40,-0.06,-0.07,0.08,0.11,-0.08,4.49,4.48,4.47
74.38,4.39,4.38,-0.05,-0.06,0.04,0.08,-0.11,4.43,4.42,4.44
75.12,4.37,4.37,-0.03,-0.03,-0.00,0.05,-0.14,4.37,4.37,4.40
75.87,4.34,4.39,-0.03,0.02,-0.05,0.02,-0.17,4.29,4.34,4.37
76.63,4.44,4.43,0.10,0.09,-0.10,-0.01,-0.20,4.35,4.33,4.34
77.40,4.50,4.48,0.19,0.17,-0.15,-0.04,-0.23,4.36,4.33,4.31
78.17,4.50,4.51,0.23,0.23,-0.20,-0.07,-0.26,4.31,4.31,4.27
78.95,4.50,4.51,0.26,0.27,-0.24,-0.10,-0.29,4.26,4.26,4.25
79.74,4.50,4.50,0.29,0.29,-0.29,-0.14,-0.32,4.21,4.21,4.21
80.54,4.50,4.50,0.33,0.33,-0.33,-0.17,-0.35,4.17,4.17,4.18
81.35,4.50,4.50,0.36,0.36,-0.37,-0.21,-0.39,4.13,4.13,4.14
82.16,4.50,4.50,0.40,0.39,-0.40,-0.24,-0.42,4.10,4.10,4.11
82.98,4.50,4.50,0.42,0.43,-0.43,-0.28,-0.45,4.07,4.07,4.08
83.81,4.50,4.50,0.47,0.47,-0.46,-0.32,-0.48,4.04,4.04,4.03
84.65,4.50,4.50,0.51,0.50,-0.50,-0.36,-0.52,4.00,4.00,4.00
85.50,4.50,4.50,0.54,0.54,-0.54,-0.40,-0.55,3.97,3.97,3.97
86.35,4.50,4.50,0.57,0.58,-0.58,-0.44,-0.58,3.93,3.93,3.93
87.22,4.50,4.50,0.61,0.61,-0.61,-0.48,-0.62,3.89,3.89,3.89
88.09,4.50,4.50,0.65,0.65,-0.65,-0.52,-0.65,3.85,3.85,3.85
88.97,4.50,4.51,0.69,0.69,-0.70,-0.56,-0.69,3.81,3.81,3.82
89.86,4.51,4.51,0.74,0.74,-0.74,-0.61,-0.73,3.78,3.77,3.78
90.76,4.51,4.51,0.79,0.78,-0.78,-0.65,-0.76,3.73,3.73,3.72
91.66,4.51,4.51,0.82,0.83,-0.82,-0.70,-0.80,3.69,3.69,3.69
92.58,4.51,4.51,0.88,0.87,-0.87,-0.74,-0.84,3.64,3.64,3.64
93.51,4.51,4.51,0.91,0.91,-0.92,-0.79,-0.88,3.60,3.60,3.60
94.44,4.51,4.51,0.95,0.96,-0.97,-0.84,-0.91,3.55,3.55,3.56
95.39,4.51,4.51,1.00,1.00,-1.01,-0.89,-0.95,3.50,3.50,3.52
96.34,4.51,4.51,1.05,1.05,-1.05,-0.93,-0.99,3.47,3.46,3.46
97.30,4.50,4.51,1.09,1.09,-1.08,-0.98,-1.03,3.43,3.43,3.42
98.28,4.49,4.50,1.12,1.13,-1.10,-1.03,-1.08,3.39,3.40,3.37
99.26,4.48,4.48,1.16,1.16,-1.12,-1.08,-1.12,3.36,3.36,3.33
100.25,4.45,4.43,1.17,1.15,-1.14,-1.13,-1.16,3.32,3.29,3.28
101.25,4.37,4.37,1.14,1.14,-1.15,-1.18,-1.20,3.22,3.22,3.23
102.27,4.27,4.32,1.09,1.13,-1.17,-1.23,-1.24,3.11,3.15,3.19
103.29,4.29,4.29,1.16,1.15,-1.18,-1.28,-1.28,3.12,3.11,3.13
104.32,4.29,4.28,1.20,1.19,-1.19,-1.33,-1.33,3.10,3.09,3.10
105.37,4.27,4.28,1.23,1.23,-1.21,-1.38,-1.37,3.06,3.06,3.05
106.42,4.25,4.25,1.25,1.25,-1.24,-1.43,-1.41,3.02,3.02,3.00
107.48,4.22,4.23,1.27,1.27,-1.26,-1.48,-1.45,2.96,2.96,2.96
108.56,4.20,4.20,1.30,1.30,-1.30,-1.53,-1.49,2.91,2.91,2.90
109.64,4.18,4.18,1.33,1.33,-1.33,-1.58,-1.53,2.85,2.85,2.85
110.74,4.16,4.16,1.36,1.36,-1.36,-1.63,-1.57,2.80,2.80,2.81
111.85,4.14,4.15,1.38,1.39,-1.39,-1.68,-1.61,2.75,2.75,2.76
112.97,4.13,4.14,1.44,1.43,-1.44,-1.73,-1.65,2.70,2.70,2.70
114.10,4.13,4.13,1.48,1.48,-1.49,-1.78,-1.68,2.65,2.64,2.65
115.24,4.12,4.13,1.53,1.53,-1.54,-1.83,-1.72,2.58,2.58,2.60
116.39,4.12,4.12,1.58,1.58,-1.60,-1.88,-1.75,2.53,2.53,2.54
117.55,4.13,4.13,1.65,1.64,-1.65,-1.93,-1.78,2.49,2.48,2.49
118.73,4.13,4.16,1.70,1.72,-1.70,-1.97,-1.81,2.43,2.46,2.43
119.92,4.18,4.17,1.79,1.78,-1.75,-2.02,-1.84,2.43,2.42,2.39
121.12,4.19,4.16,1.86,1.82,-1.80,-2.07,-1.87,2.40,2.36,2.34
122.33,4.10,4.12,1.82,1.83,-1.83,-2.11,-1.89,2.27,2.29,2.29
123.55,4.06,4.09,1.82,1.85,-1.87,-2.16,-1.92,2.20,2.22,2.24
124.79,4.07,4.07,1.88,1.88,-1.89,-2.20,-1.94,2.18,2.18,2.19
126.03,4.08,4.08,1.94,1.94,-1.93,-2.25,-1.96,2.16,2.16,2.14
127.29,4.08,4.06,1.99,1.97,-1.96,-2.29,-1.98,2.12,2.10,2.09
128.57,4.02,4.02,1.99,1.98,-2.00,-2.34,-1.99,2.03,2.02,2.03
129.85,3.94,3.99,1.96,2.00,-2.04,-2.38,-2.01,1.91,1.95,1.98
131.15,3.98,3.99,2.05,2.06,-2.08,-2.42,-2.02,1.91,1.92,1.94
132.46,4.03,4.02,2.14,2.13,-2.12,-2.46,-2.03,1.92,1.90,1.89
133.79,4.07,4.03,2.22,2.19,-2.15,-2.50,-2.04,1.92,1.88,1.85
135.12,3.99,4.01,2.20,2.20,-2.18,-2.54,-2.05,1.81,1.83,1.80
136.48,3.94,3.96,2.18,2.20,-2.20,-2.58,-2.06,1.74,1.76,1.76
137.84,3.92,3.94,2.21,2.23,-2.22,-2.61,-2.06,1.70,1.71,1.72
139.22,3.92,3.92,2.26,2.25,-2.24,-2.65,-2.07,1.68,1.68,1.66
140.61,3.92,3.88,2.30,2.25,-2.26,-2.69,-2.07,1.67,1.62,1.62
142.02,3.81,3.83,2.22,2.24,-2.27,-2.72,-2.08,1.54,1.56,1.60
143.44,3.77,3.80,2.22,2.25,-2.28,-2.75,-2.08,1.49,1.52,1.56
144.87,3.79,3.81,2.28,2.29,-2.29,-2.79,-2.08,1.50,1.51,1.52
146.32,3.85,3.83,2.38,2.35,-2.30,-2.82,-2.09,1.55,1.52,1.48
147.78,3.84,3.82,2.39,2.37,-2.32,-2.85,-2.09,1.53,1.50,1.45
149.26,3.76,3.78,2.35,2.37,-2.34,-2.87,-2.10,1.42,1.43,1.41
150.75,3.70,3.72,2.34,2.35,-2.38,-2.90,-2.10,1.32,1.34,1.36
152.26,3.69,3.70,2.37,2.37,-2.43,-2.93,-2.11,1.26,1.27,1.33
153.78,3.70,3.72,2.41,2.43,-2.49,-2.95,-2.12,1.21,1.23,1.29
155.32,3.78,3.77,2.54,2.51,-2.56,-2.98,-2.13,1.23,1.21,1.25
156.88,3.82,3.84,2.61,2.62,-2.63,-3.00,-2.14,1.20,1.21,1.21
158.44,3.89,3.90,2.72,2.73,-2.70,-3.02,-2.15,1.20,1.20,1.17
160.03,3.96,3.94,2.84,2.82,-2.76,-3.04,-2.16,1.20,1.18,1.13
161.63,3.95,3.96,2.87,2.87,-2.82,-3.06,-2.17,1.14,1.14,1.09
163.24,3.94,3.94,2.90,2.89,-2.85,-3.08,-2.19,1.09,1.08,1.05
164.88,3.87,3.88,2.86,2.87,-2.87,-3.09,-2.20,1.01,1.01,1.02
166.53,3.82,3.82,2.85,2.84,-2.86,-3.11,-2.22,0.97,0.96,0.98
168.19,3.74,3.76,2.81,2.82,-2.84,-3.12,-2.24,0.91,0.92,0.94
169.87,3.70,3.71,2.80,2.80,-2.81,-3.14,-2.26,0.89,0.89,0.90
171.57,3.65,3.65,2.79,2.78,-2.78,-3.15,-2.29,0.87,0.86,0.86
173.29,3.59,3.58,2.77,2.76,-2.76,-3.16,-2.31,0.84,0.83,0.83
175.02,3.50,3.51,2.71,2.72,-2.73,-3.17,-2.34,0.77,0.78,0.79
176.77,3.44,3.45,2.70,2.70,-2.71,-3.18,-2.37,0.73,0.74,0.75
178.54,3.39,3.41,2.69,2.71,-2.69,-3.18,-2.40,0.70,0.72,0.70
180.32,3.39,3.38,2.72,2.71,-2.68,-3.19,-2.43,0.71,0.70,0.67
182.13,3.35,3.32,2.72,2.68,-2.67,-3.19,-2.47,0.68,0.65,0.64
183.95,3.23,3.26,2.64,2.66,-2.68,-3.19,-2.50,0.56,0.58,0.60
185.79,3.19,3.22,2.63,2.65,-2.69,-3.19,-2.54,0.50,0.53,0.56
187.65,3.21,3.21,2.69,2.68,-2.72,-3.20,-2.58,0.50,0.49,0.52
189.52,3.24,3.23,2.75,2.74,-2.75,-3.19,-2.63,0.50,0.48,0.49
191.42,3.25,3.25,2.79,2.79,-2.79,-3.19,-2.67,0.47,0.47,0.46
193.33,3.26,3.27,2.83,2.83,-2.83,-3.19,-2.71,0.44,0.44,0.44
195.27,3.28,3.28,2.88,2.87,-2.87,-3.19,-2.76,0.42,0.41,0.41
197.22,3.29,3.30,2.91,2.92,-2.90,-3.18,-2.81,0.39,0.40,0.38
199.19,3.30,3.31,2.96,2.96,-2.93,-3.17,-2.86,0.38,0.38,0.34
201.18,3.31,3.29,2.99,2.97,-2.94,-3.17,-2.91,0.37,0.35,0.33
203.19,3.27,3.26,2.96,2.96,-2.95,-3.16,-2.96,0.33,0.32,0.31
205.23,3.20,3.23,2.92,2.94,-2.95,-3.15,-3.01,0.25,0.28,0.28
207.28,3.20,3.21,2.92,2.93,-2.96,-3.14,-3.06,0.24,0.25,0.28
209.35,3.21,3.18,2.96,2.93,-2.97,-3.13,-3.11,0.24,0.21,0.25
211.44,3.18,3.19,2.95,2.95,-2.99,-3.11,-3.16,0.20,0.21,0.23
213.56,3.17,3.22,2.95,2.99,-3.00,-3.10,-3.21,0.17,0.21,0.23
215.69,3.28,3.25,3.06,3.03,-3.03,-3.09,-3.26,0.26,0.22,0.22
217.85,3.30,3.29,3.09,3.08,-3.05,-3.07,-3.31,0.25,0.24,0.21
220.03,3.30,3.31,3.11,3.11,-3.08,-3.05,-3.35,0.23,0.24,0.20
222.23,3.30,3.30,3.12,3.11,-3.10,-3.04,-3.40,0.21,0.20,0.19
224.45,3.29,3.30,3.10,3.11,-3.12,-3.02,-3.44,0.17,0.18,0.19
226.70,3.30,3.30,3.11,3.11,-3.13,-3.00,-3.48,0.17,0.17,0.19
228.96,3.30,3.30,3.11,3.11,-3.13,-2.98,-3.51,0.17,0.17,0.19
231.25,3.31,3.31,3.11,3.12,-3.12,-2.96,-3.54,0.19,0.19,0.20
233.57,3.32,3.34,3.12,3.14,-3.11,-2.94,-3.57,0.22,0.23,0.20
235.90,3.34,3.34,3.14,3.14,-3.09,-2.92,-3.60,0.26,0.25,0.20
238.26,3.35,3.31,3.15,3.10,-3.07,-2.90,-3.62,0.29,0.24,0.20
240.64,3.23,3.26,3.02,3.04,-3.05,-2.87,-3.63,0.19,0.21,0.21
243.05,3.18,3.21,2.96,2.98,-3.03,-2.85,-3.64,0.16,0.18,0.23
245.48,3.19,3.19,2.96,2.95,-3.01,-2.83,-3.64,0.18,0.18,0.24
247.93,3.22,3.22,2.97,2.97,-2.99,-2.80,-3.64,0.23,0.22,0.25
250.41,3.24,3.24,2.99,2.98,-2.98,-2.78,-3.63,0.27,0.27,0.25
252.92,3.26,3.26,2.99,2.99,-2.97,-2.75,-3.62,0.30,0.29,0.27
255.45,3.27,3.27,2.98,2.98,-2.96,-2.72,-3.60,0.31,0.31,0.30
258.00,3.28,3.28,2.97,2.97,-2.96,-2.70,-3.58,0.32,0.32,0.31
260.58,3.28,3.28,2.96,2.96,-2.96,-2.67,-3.55,0.33,0.33,0.32
263.19,3.28,3.28,2.94,2.94,-2.94,-2.64,-3.52,0.34,0.34,0.35
265.82,3.28,3.28,2.92,2.92,-2.92,-2.61,-3.48,0.36,0.36,0.36
268.48,3.28,3.28,2.90,2.90,-2.90,-2.59,-3.44,0.39,0.39,0.38
271.16,3.28,3.28,2.88,2.88,-2.88,-2.56,-3.39,0.41,0.40,0.41
273.87,3.27,3.28,2.85,2.85,-2.86,-2.53,-3.34,0.41,0.42,0.42
276.61,3.27,3.27,2.83,2.83,-2.84,-2.50,-3.28,0.43,0.43,0.45
279.38,3.27,3.27,2.81,2.81,-2.82,-2.47,-3.22,0.45,0.45,0.46
282.17,3.27,3.28,2.80,2.80,-2.80,-2.44,-3.16,0.47,0.48,0.48
284.99,3.28,3.30,2.78,2.80,-2.78,-2.41,-3.10,0.51,0.52,0.50
287.84,3.31,3.30,2.80,2.78,-2.76,-2.38,-3.03,0.56,0.55,0.52
290.72,3.32,3.29,2.78,2.75,-2.74,-2.34,-2.97,0.59,0.55,0.54
293.63,3.22,3.26,2.67,2.70,-2.72,-2.31,-2.90,0.51,0.54,0.56
296.57,3.22,3.23,2.64,2.65,-2.69,-2.28,-2.83,0.53,0.54,0.58
299.53,3.23,3.23,2.63,2.63,-2.66,-2.25,-2.75,0.57,0.57,0.60
302.53,3.25,3.26,2.64,2.64,-2.62,-2.22,-2.68,0.63,0.64,0.62
305.55,3.26,3.27,2.61,2.63,-2.57,-2.18,-2.61,0.69,0.70,0.65
308.61,3.27,3.25,2.61,2.58,-2.53,-2.15,-2.54,0.75,0.72,0.67
311.69,3.20,3.20,2.51,2.50,-2.48,-2.12,-2.47,0.72,0.71,0.69
314.81,3.11,3.14,2.38,2.41,-2.44,-2.09,-2.39,0.67,0.69,0.73
317.96,3.08,3.09,2.34,2.34,-2.40,-2.05,-2.32,0.68,0.69,0.75
321.14,3.08,3.08,2.32,2.31,-2.36,-2.02,-2.25,0.73,0.72,0.76
324.35,3.08,3.08,2.30,2.30,-2.31,-1.99,-2.18,0.78,0.78,0.78
327.59,3.08,3.09,2.28,2.29,-2.25,-1.95,-2.11,0.83,0.84,0.81
330.87,3.08,3.09,2.26,2.26,-2.21,-1.92,-2.05,0.87,0.88,0.83
334.18,3.07,3.05,2.23,2.20,-2.17,-1.88,-1.98,0.90,0.88,0.84
337.52,2.99,2.99,2.13,2.13,-2.13,-1.85,-1.91,0.87,0.86,0.86
340.90,2.90,2.93,2.02,2.04,-2.08,-1.82,-1.85,0.83,0.85,0.89
344.30,2.87,2.88,1.97,1.98,-2.02,-1.78,-1.79,0.86,0.87,0.91
347.75,2.87,2.88,1.95,1.95,-1.95,-1.75,-1.72,0.92,0.92,0.92
351.23,2.87,2.87,1.93,1.92,-1.89,-1.71,-1.66,0.98,0.97,0.94
354.74,2.85,2.82,1.90,1.86,-1.84,-1.68,-1.60,1.01,0.98,0.96
358.28,2.75,2.77,1.78,1.79,-1.80,-1.64,-1.54,0.96,0.97,0.98
361.87,2.69,2.72,1.70,1.73,-1.75,-1.61,-1.49,0.94,0.96,0.99
365.49,2.69,2.70,1.69,1.69,-1.72,-1.57,-1.43,0.98,0.98,1.00
369.14,2.70,2.69,1.69,1.68,-1.68,-1.54,-1.38,1.02,1.01,1.01
372.83,2.70,2.68,1.68,1.66,-1.65,-1.50,-1.32,1.06,1.04,1.03
376.56,2.64,2.66,1.61,1.61,-1.61,-1.47,-1.27,1.03,1.04,1.04
380.33,2.62,2.64,1.56,1.58,-1.58,-1.43,-1.22,1.04,1.06,1.07
384.13,2.62,2.62,1.55,1.55,-1.55,-1.40,-1.17,1.07,1.07,1.07
387.97,2.63,2.62,1.55,1.53,-1.52,-1.36,-1.12,1.12,1.10,1.08
391.85,2.58,2.58,1.49,1.49,-1.47,-1.33,-1.08,1.11,1.11,1.09
395.77,2.53,2.53,1.42,1.42,-1.43,-1.29,-1.03,1.11,1.10,1.11
399.73,2.46,2.48,1.35,1.36,-1.37,-1.25,-0.98,1.09,1.11,1.12
403.72,2.43,2.45,1.31,1.32,-1.32,-1.22,-0.94,1.12,1.14,1.13
407.76,2.43,2.41,1.30,1.28,-1.26,-1.18,-0.90,1.17,1.15,1.13
411.84,2.39,2.36,1.24,1.21,-1.20,-1.14,-0.85,1.19,1.16,1.15
415.96,2.27,2.30,1.11,1.14,-1.15,-1.11,-0.81,1.12,1.15,1.16
420.12,2.22,2.25,1.05,1.08,-1.10,-1.07,-0.77,1.12,1.15,1.17
424.32,2.23,2.21,1.05,1.03,-1.05,-1.03,-0.73,1.18,1.16,1.18
428.56,2.21,2.21,1.02,1.02,-1.01,-1.00,-0.69,1.20,1.20,1.19
432.85,2.17,2.20,0.98,1.00,-0.97,-0.96,-0.65,1.20,1.22,1.20
437.18,2.18,2.16,0.98,0.95,-0.94,-0.92,-0.62,1.24,1.22,1.21
441.55,2.14,2.13,0.92,0.91,-0.92,-0.88,-0.58,1.22,1.21,1.23
445.96,2.09,2.12,0.86,0.89,-0.91,-0.84,-0.54,1.19,1.22,1.24
450.42,2.11,2.13,0.87,0.88,-0.89,-0.80,-0.51,1.22,1.23,1.24
454.93,2.17,2.14,0.91,0.89,-0.88,-0.76,-0.47,1.29,1.26,1.26
459.48,2.16,2.17,0.89,0.89,-0.87,-0.72,-0.44,1.29,1.30,1.27
464.07,2.16,2.17,0.87,0.88,-0.87,-0.69,-0.40,1.30,1.30,1.29
468.71,2.16,2.16,0.85,0.85,-0.86,-0.64,-0.37,1.30,1.29,1.31
473.40,2.15,2.17,0.83,0.85,-0.86,-0.60,-0.34,1.30,1.31,1.32
478.13,2.17,2.18,0.83,0.84,-0.84,-0.56,-0.30,1.33,1.33,1.34
482.91,2.20,2.19,0.85,0.84,-0.82,-0.52,-0.27,1.38,1.36,1.35
487.74,2.17,2.19,0.81,0.82,-0.80,-0.48,-0.24,1.38,1.39,1.37
492.62,2.18,2.17,0.80,0.78,-0.77,-0.44,-0.21,1.42,1.40,1.39
497.55,2.13,2.12,0.74,0.72,-0.73,-0.39,-0.18,1.41,1.40,1.40
502.52,2.06,2.09,0.65,0.68,-0.69,-0.35,-0.15,1.38,1.41,1.42
507.55,2.05,2.06,0.63,0.63,-0.64,-0.30,-0.11,1.42,1.42,1.43
512.62,2.04,2.02,0.60,0.57,-0.58,-0.26,-0.08,1.46,1.44,1.45
517.75,1.98,1.98,0.52,0.52,-0.52,-0.21,-0.05,1.46,1.46,1.46
522.93,1.91,1.93,0.43,0.45,-0.46,-0.17,-0.02,1.45,1.47,1.48
528.16,1.87,1.89,0.38,0.39,-0.39,-0.12,0.01,1.48,1.49,1.49
533.44,1.85,1.84,0.34,0.33,-0.32,-0.07,0.04,1.54,1.53,1.51
538.77,1.80,1.79,0.27,0.25,-0.23,-0.02,0.07,1.57,1.55,1.53
544.16,1.69,1.70,0.14,0.15,-0.14,0.03,0.10,1.56,1.56,1.55
549.60,1.59,1.61,0.02,0.04,-0.03,0.08,0.13,1.56,1.57,1.57
555.10,1.49,1.51,-0.09,-0.08,0.08,0.13,0.16,1.57,1.58,1.58
560.65,1.43,1.40,-0.17,-0.20,0.20,0.19,0.19,1.64,1.60,1.60
