frequency,raw,smoothed,error,error_smoothed,equalization,parametric_eq,fixed_band_eq,equalized_raw,equalized_smoothed,target
20.00,0.68,0.69,-5.15,-5.15,5.18,4.83,1.61,5.86,5.86,5.84
20.20,0.74,0.74,-5.14,-5.14,5.15,4.80,1.65,5.89,5.89,5.88
20.40,0.80,0.80,-5.13,-5.13,5.12,4.77,1.70,5.93,5.92,5.93
20.61,0.86,0.86,-5.10,-5.11,5.09,4.74,1.75,5.95,5.95,5.96
20.81,0.92,0.93,-5.09,-5.09,5.06,4.71,1.81,5.98,5.99,6.01
21.02,0.99,0.99,-5.06,-5.05,5.03,4.68,1.86,6.02,6.02,6.05
21.23,1.06,1.06,-5.01,-5.01,4.99,4.65,1.92,6.06,6.06,6.07
21.44,1.13,1.14,-4.96,-4.96,4.96,4.62,1.97,6.09,6.10,6.09
21.66,1.20,1.21,-4.91,-4.90,4.92,4.59,2.03,6.12,6.13,6.11
21.87,1.27,1.27,-4.85,-4.86,4.88,4.56,2.09,6.16,6.15,6.12
22.09,1.32,1.32,-4.82,-4.82,4.85,4.52,2.16,6.17,6.16,6.14
22.31,1.34,1.35,-4.81,-4.80,4.81,4.49,2.22,6.15,6.16,6.15
22.54,1.37,1.37,-4.78,-4.78,4.77,4.46,2.29,6.14,6.14,6.15
22.76,1.39,1.39,-4.75,-4.75,4.72,4.43,2.35,6.12,6.12,6.15
22.99,1.42,1.44,-4.71,-4.70,4.68,4.40,2.42,6.10,6.11,6.14
23.22,1.49,1.49,-4.64,-4.65,4.63,4.37,2.49,6.12,6.12,6.14
23.45,1.56,1.56,-4.57,-4.58,4.58,4.34,2.56,6.14,6.14,6.14
23.69,1.63,1.64,-4.51,-4.51,4.53,4.30,2.64,6.16,6.16,6.15
23.92,1.70,1.70,-4.44,-4.45,4.47,4.27,2.71,6.17,6.17,6.14
24.16,1.75,1.75,-4.40,-4.40,4.41,4.24,2.79,6.17,6.17,6.15
24.40,1.79,1.80,-4.37,-4.36,4.36,4.21,2.87,6.16,6.16,6.16
24.65,1.83,1.83,-4.32,-4.32,4.31,4.17,2.94,6.15,6.15,6.15
24.89,1.87,1.88,-4.28,-4.27,4.27,4.14,3.02,6.14,6.14,6.15
25.14,1.92,1.92,-4.23,-4.23,4.22,4.11,3.10,6.15,6.15,6.15
25.39,1.97,1.97,-4.18,-4.18,4.18,4.08,3.18,6.15,6.15,6.16
25.65,2.01,2.02,-4.14,-4.14,4.14,4.04,3.26,6.15,6.16,6.16
25.91,2.06,2.06,-4.08,-4.09,4.10,4.01,3.34,6.16,6.16,6.15
26.16,2.10,2.10,-4.04,-4.05,4.06,3.98,3.42,6.16,6.16,6.15
26.43,2.13,2.14,-4.01,-4.01,4.02,3.94,3.50,6.15,6.16,6.14
26.69,2.16,2.16,-3.98,-3.98,3.98,3.91,3.58,6.15,6.15,6.14
26.96,2.19,2.19,-3.96,-3.96,3.95,3.88,3.66,6.14,6.14,6.15
27.23,2.22,2.23,-3.93,-3.92,3.91,3.85,3.73,6.13,6.14,6.15
27.50,2.27,2.27,-3.88,-3.88,3.87,3.81,3.80,6.14,6.14,6.15
27.77,2.31,2.31,-3.82,-3.83,3.83,3.78,3.87,6.14,6.14,6.14
28.05,2.35,2.35,-3.78,-3.78,3.79,3.75,3.94,6.14,6.14,6.14
28.33,2.39,2.39,-3.73,-3.74,3.74,3.71,4.00,6.13,6.13,6.13
28.62,2.43,2.44,-3.69,-3.69,3.69,3.68,4.06,6.12,6.13,6.12
28.90,2.48,2.48,-3.65,-3.64,3.64,3.65,4.11,6.12,6.12,6.13
29.19,2.53,2.54,-3.59,-3.59,3.58,3.61,4.16,6.12,6.12,6.12
29.48,2.59,2.59,-3.54,-3.54,3.53,3.58,4.20,6.13,6.13,6.14
29.78,2.65,2.65,-3.47,-3.48,3.48,3.54,4.24,6.13,6.13,6.13
30.08,2.70,2.70,-3.43,-3.43,3.43,3.51,4.27,6.13,6.13,6.13
30.38,2.74,2.75,-3.38,-3.38,3.39,3.48,4.30,6.13,6.14,6.12
30.68,2.79,2.79,-3.33,-3.33,3.34,3.44,4.31,6.14,6.14,6.12
30.99,2.83,2.83,-3.29,-3.29,3.31,3.41,4.32,6.14,6.14,6.12
31.30,2.85,2.85,-3.26,-3.26,3.27,3.38,4.33,6.13,6.13,6.12
31.61,2.87,2.87,-3.24,-3.24,3.24,3.34,4.32,6.11,6.11,6.11
31.93,2.89,2.90,-3.22,-3.21,3.19,3.31,4.31,6.09,6.09,6.11
32.24,2.93,2.93,-3.17,-3.17,3.15,3.28,4.30,6.08,6.08,6.10
32.57,2.98,2.98,-3.12,-3.13,3.09,3.24,4.27,6.08,6.07,6.11
32.89,3.02,3.03,-3.08,-3.07,3.04,3.21,4.24,6.07,6.08,6.10
33.22,3.09,3.10,-3.00,-2.99,3.00,3.18,4.20,6.09,6.10,6.09
33.55,3.16,3.17,-2.92,-2.92,2.96,3.14,4.16,6.12,6.13,6.09
33.89,3.24,3.22,-2.83,-2.86,2.93,3.11,4.11,6.17,6.15,6.08
34.23,3.23,3.23,-2.85,-2.85,2.90,3.08,4.06,6.13,6.12,6.08
34.57,3.20,3.21,-2.87,-2.87,2.87,3.04,4.00,6.07,6.07,6.07
34.92,3.16,3.18,-2.90,-2.88,2.84,3.01,3.94,6.00,6.02,6.07
35.27,3.19,3.20,-2.87,-2.86,2.81,2.98,3.88,6.00,6.00,6.06
35.62,3.24,3.24,-2.82,-2.82,2.78,2.94,3.81,6.02,6.02,6.06
35.97,3.30,3.30,-2.75,-2.76,2.75,2.91,3.74,6.06,6.05,6.06
36.33,3.35,3.36,-2.71,-2.69,2.72,2.88,3.67,6.08,6.09,6.06
36.70,3.41,3.41,-2.64,-2.64,2.69,2.84,3.59,6.10,6.10,6.05
37.06,3.46,3.44,-2.58,-2.61,2.65,2.81,3.52,6.12,6.09,6.05
37.43,3.44,3.44,-2.62,-2.61,2.62,2.78,3.44,6.06,6.06,6.06
37.81,3.42,3.44,-2.63,-2.62,2.59,2.74,3.36,6.02,6.03,6.06
38.19,3.43,3.45,-2.62,-2.61,2.57,2.71,3.28,6.00,6.01,6.05
38.57,3.48,3.48,-2.57,-2.58,2.56,2.68,3.21,6.04,6.03,6.06
38.95,3.52,3.52,-2.54,-2.54,2.55,2.64,3.13,6.07,6.07,6.06
39.34,3.55,3.56,-2.50,-2.50,2.53,2.61,3.05,6.09,6.09,6.06
39.74,3.58,3.58,-2.47,-2.47,2.51,2.58,2.98,6.10,6.10,6.05
40.14,3.59,3.58,-2.46,-2.48,2.49,2.55,2.90,6.08,6.06,6.06
40.54,3.57,3.57,-2.48,-2.48,2.45,2.51,2.83,6.03,6.02,6.05
40.94,3.54,3.58,-2.50,-2.47,2.42,2.48,2.76,5.96,5.99,6.05
41.35,3.61,3.62,-2.43,-2.42,2.38,2.45,2.69,5.99,6.00,6.04
41.76,3.70,3.69,-2.33,-2.35,2.34,2.41,2.62,6.05,6.03,6.03
42.18,3.76,3.75,-2.27,-2.28,2.31,2.38,2.55,6.07,6.06,6.04
42.60,3.78,3.79,-2.24,-2.23,2.28,2.35,2.48,6.06,6.07,6.02
43.03,3.80,3.80,-2.21,-2.21,2.25,2.32,2.42,6.05,6.05,6.01
43.46,3.80,3.81,-2.20,-2.19,2.22,2.28,2.36,6.02,6.02,6.01
43.90,3.80,3.79,-2.17,-2.19,2.19,2.25,2.30,5.99,5.98,5.98
44.33,3.78,3.78,-2.18,-2.19,2.16,2.22,2.24,5.94,5.93,5.96
44.78,3.75,3.77,-2.19,-2.17,2.12,2.18,2.18,5.88,5.90,5.94
45.23,3.78,3.79,-2.15,-2.13,2.09,2.15,2.12,5.87,5.88,5.93
45.68,3.85,3.85,-2.06,-2.07,2.04,2.12,2.07,5.90,5.89,5.92
46.13,3.92,3.92,-1.97,-1.98,2.00,2.09,2.02,5.92,5.92,5.90
46.60,3.98,3.98,-1.91,-1.91,1.95,2.05,1.97,5.94,5.94,5.90
47.06,4.03,4.01,-1.84,-1.87,1.91,2.02,1.92,5.95,5.93,5.88
47.53,4.01,4.02,-1.85,-1.85,1.88,1.99,1.87,5.90,5.90,5.87
48.01,4.00,4.02,-1.86,-1.84,1.86,1.95,1.83,5.87,5.88,5.87
48.49,4.00,4.00,-1.84,-1.84,1.84,1.92,1.78,5.85,5.85,5.85
48.97,4.00,3.98,-1.82,-1.84,1.82,1.89,1.74,5.82,5.81,5.83
49.46,3.97,3.97,-1.83,-1.83,1.79,1.85,1.70,5.77,5.76,5.80
49.96,3.94,3.97,-1.84,-1.81,1.76,1.82,1.66,5.70,5.73,5.78
50.46,4.01,4.01,-1.77,-1.76,1.71,1.79,1.62,5.73,5.73,5.78
50.96,4.09,4.09,-1.67,-1.67,1.67,1.75,1.58,5.76,5.76,5.77
51.47,4.17,4.18,-1.57,-1.57,1.62,1.72,1.55,5.79,5.80,5.74
51.99,4.25,4.22,-1.48,-1.52,1.58,1.68,1.51,5.83,5.80,5.73
52.51,4.22,4.23,-1.50,-1.50,1.54,1.65,1.48,5.76,5.77,5.73
53.03,4.20,4.22,-1.52,-1.50,1.50,1.62,1.45,5.71,5.72,5.72
53.56,4.20,4.20,-1.50,-1.50,1.48,1.58,1.41,5.68,5.68,5.71
54.10,4.20,4.20,-1.49,-1.49,1.47,1.55,1.38,5.67,5.67,5.69
54.64,4.20,4.20,-1.47,-1.47,1.47,1.51,1.35,5.67,5.67,5.68
55.18,4.20,4.20,-1.47,-1.46,1.47,1.48,1.32,5.67,5.67,5.67
55.74,4.20,4.21,-1.45,-1.45,1.47,1.44,1.29,5.67,5.67,5.65
56.29,4.20,4.21,-1.44,-1.44,1.46,1.40,1.26,5.66,5.66,5.65
56.86,4.20,4.18,-1.42,-1.44,1.44,1.37,1.23,5.64,5.62,5.63
57.42,4.17,4.17,-1.42,-1.44,1.41,1.33,1.20,5.58,5.58,5.60
58.00,4.14,4.19,-1.45,-1.40,1.37,1.30,1.17,5.51,5.56,5.59
58.58,4.23,4.22,-1.35,-1.36,1.32,1.26,1.14,5.56,5.54,5.58
59.16,4.30,4.27,-1.25,-1.29,1.27,1.22,1.11,5.57,5.53,5.56
59.76,4.30,4.34,-1.23,-1.20,1.21,1.19,1.08,5.51,5.54,5.54
60.35,4.36,4.38,-1.13,-1.12,1.14,1.15,1.04,5.51,5.53,5.50
60.96,4.45,4.41,-1.01,-1.05,1.08,1.11,1.01,5.53,5.49,5.46
61.57,4.43,4.43,-0.99,-0.99,1.02,1.07,0.98,5.45,5.45,5.42
62.18,4.40,4.42,-0.97,-0.95,0.96,1.03,0.95,5.37,5.39,5.38
62.80,4.40,4.40,-0.93,-0.93,0.91,0.99,0.91,5.32,5.32,5.33
63.43,4.40,4.40,-0.88,-0.88,0.87,0.95,0.88,5.27,5.27,5.29
64.07,4.40,4.40,-0.84,-0.84,0.83,0.91,0.84,5.23,5.23,5.24
64.71,4.40,4.40,-0.79,-0.79,0.79,0.87,0.81,5.19,5.19,5.19
65.35,4.40,4.40,-0.75,-0.75,0.75,0.83,0.77,5.15,5.15,5.16
66.01,4.40,4.40,-0.70,-0.70,0.71,0.79,0.73,5.11,5.11,5.11
66.67,4.40,4.40,-0.66,-0.66,0.66,0.75,0.70,5.06,5.06,5.06
67.33,4.40,4.40,-0.61,-0.61,0.61,0.71,0.66,5.01,5.01,5.01
68.01,4.40,4.40,-0.57,-0.56,0.56,0.67,0.62,4.97,4.97,4.97
68.69,4.40,4.40,-0.51,-0.51,0.51,0.62,0.58,4.92,4.92,4.92
69.37,4.40,4.40,-0.46,-0.46,0.46,0.58,0.54,4.87,4.87,4.87
70.07,4.40,4.40,-0.41,-0.41,0.41,0.54,0.50,4.81,4.81,4.81
70.77,4.40,4.40,-0.37,-0.36,0.36,0.49,0.45,4.76,4.76,4.77
71.48,4.40,4.40,-0.31,-0.31,0.31,0.45,0.41,4.71,4.71,4.72
72.19,4.40,4.40,-0.25,-0.25,0.26,0.40,0.37,4.66,4.66,4.65
72.91,4.40,4.41,-0.19,-0.19,0.21,0.36,0.33,4.61,4.61,4.59
73.64,4.40,4.40,-0.13,-0.13,0.15,0.31,0.28,4.55,4.55,4.54
74.38,4.39,4.38,-0.09,-0.10,0.08,0.26,0.24,4.48,4.46,4.48
75.12,4.37,4.37,-0.05,-0.05,0.01,0.22,0.19,4.39,4.38,4.42
75.87,4.34,4.39,-0.02,0.02,-0.06,0.17,0.15,4.29,4.33,4.36
76.63,4.44,4.43,0.13,0.12,-0.13,0.12,0.10,4.32,4.30,4.31
77.40,4.50,4.48,0.24,0.22,-0.20,0.07,0.05,4.31,4.28,4.26
78.17,4.50,4.51,0.31,0.30,-0.26,0.02,0.01,4.24,4.25,4.20
78.95,4.50,4.51,0.34,0.35,-0.33,-0.03,-0.04,4.18,4.18,4.17
79.74,4.50,4.50,0.39,0.39,-0.39,-0.08,-0.09,4.11,4.11,4.11
80.54,4.50,4.50,0.44,0.44,-0.45,-0.13,-0.14,4.06,4.06,4.07
81.35,4.50,4.50,0.49,0.49,-0.50,-0.18,-0.18,4.01,4.01,4.01
82.16,4.50,4.50,0.54,0.53,-0.54,-0.23,-0.23,3.97,3.97,3.97
82.98,4.50,4.50,0.57,0.58,-0.58,-0.28,-0.28,3.92,3.92,3.93
83.81,4.50,4.50,0.63,0.63,-0.62,-0.33,-0.33,3.88,3.88,3.87
84.65,4.50,4.50,0.68,0.67,-0.67,-0.38,-0.38,3.83,3.83,3.83
85.50,4.50,4.50,0.72,0.72,-0.72,-0.43,-0.43,3.78,3.78,3.79
86.35,4.50,4.50,0.76,0.77,-0.77,-0.48,-0.48,3.74,3.74,3.74
87.22,4.50,4.50,0.81,0.81,-0.82,-0.54,-0.53,3.69,3.69,3.69
88.09,4.50,4.50,0.86,0.87,-0.87,-0.59,-0.59,3.64,3.64,3.64
88.97,4.50,4.51,0.92,0.92,-0.92,-0.64,-0.64,3.58,3.59,3.59
89.86,4.51,4.51,0.98,0.97,-0.97,-0.69,-0.69,3.54,3.54,3.54
90.76,4.51,4.51,1.03,1.03,-1.02,-0.75,-0.75,3.49,3.49,3.48
91.66,4.51,4.51,1.07,1.08,-1.08,-0.80,-0.80,3.44,3.44,3.44
92.58,4.51,4.51,1.14,1.13,-1.13,-0.85,-0.85,3.38,3.38,3.38
93.51,4.51,4.51,1.18,1.18,-1.18,-0.91,-0.91,3.33,3.33,3.33
94.44,4.51,4.51,1.22,1.23,-1.23,-0.96,-0.97,3.28,3.28,3.29
95.39,4.51,4.51,1.27,1.27,-1.28,-1.01,-1.02,3.23,3.23,3.25
96.34,4.51,4.51,1.32,1.32,-1.32,-1.06,-1.08,3.19,3.19,3.19
97.30,4.50,4.51,1.36,1.36,-1.35,-1.11,-1.13,3.15,3.16,3.15
98.28,4.49,4.50,1.39,1.40,-1.37,-1.17,-1.19,3.12,3.13,3.10
99.26,4.48,4.48,1.43,1.43,-1.39,-1.22,-1.25,3.09,3.09,3.06
100.25,4.45,4.43,1.44,1.42,-1.41,-1.27,-1.30,3.05,3.02,3.01
101.25,4.37,4.37,1.41,1.41,-1.42,-1.32,-1.36,2.95,2.95,2.96
102.27,4.27,4.32,1.36,1.40,-1.43,-1.37,-1.42,2.84,2.88,2.92
103.29,4.29,4.29,1.43,1.42,-1.45,-1.42,-1.48,2.85,2.84,2.86
104.32,4.29,4.28,1.47,1.46,-1.46,-1.47,-1.53,2.83,2.81,2.83
105.37,4.27,4.28,1.50,1.50,-1.48,-1.51,-1.59,2.79,2.79,2.78
106.42,4.25,4.25,1.52,1.52,-1.51,-1.56,-1.64,2.74,2.74,2.73
107.48,4.22,4.23,1.55,1.55,-1.54,-1.61,-1.70,2.68,2.69,2.68
108.56,4.20,4.20,1.58,1.58,-1.58,-1.65,-1.75,2.63,2.63,2.62
109.64,4.18,4.18,1.61,1.61,-1.61,-1.69,-1.81,2.57,2.57,2.57
110.74,4.16,4.16,1.65,1.64,-1.64,-1.73,-1.86,2.52,2.52,2.52
111.85,4.14,4.15,1.66,1.67,-1.68,-1.78,-1.91,2.47,2.47,2.48
112.97,4.13,4.14,1.72,1.71,-1.72,-1.81,-1.95,2.42,2.42,2.42
114.10,4.13,4.13,1.76,1.76,-1.76,-1.85,-2.00,2.37,2.36,2.37
115.24,4.12,4.13,1.80,1.80,-1.81,-1.89,-2.04,2.31,2.31,2.33
116.39,4.12,4.12,1.85,1.85,-1.86,-1.92,-2.09,2.26,2.26,2.27
117.55,4.13,4.13,1.90,1.89,-1.90,-1.95,-2.12,2.23,2.23,2.24
118.73,4.13,4.16,1.94,1.96,-1.94,-1.98,-2.16,2.19,2.22,2.19
119.92,4.18,4.17,2.01,2.01,-1.97,-2.01,-2.19,2.21,2.20,2.17
121.12,4.19,4.16,2.07,2.02,-2.00,-2.03,-2.23,2.19,2.15,2.13
122.33,4.10,4.12,2.01,2.02,-2.02,-2.05,-2.25,2.08,2.10,2.10
123.55,4.06,4.09,1.99,2.02,-2.03,-2.07,-2.28,2.03,2.05,2.07
124.79,4.07,4.07,2.03,2.03,-2.04,-2.08,-2.30,2.03,2.03,2.04
126.03,4.08,4.08,2.07,2.06,-2.05,-2.09,-2.32,2.03,2.03,2.01
127.29,4.08,4.06,2.09,2.07,-2.06,-2.10,-2.33,2.02,1.99,1.99
128.57,4.02,4.02,2.07,2.06,-2.08,-2.10,-2.35,1.94,1.94,1.95
129.85,3.94,3.99,2.02,2.06,-2.10,-2.10,-2.36,1.85,1.89,1.92
131.15,3.98,3.99,2.09,2.10,-2.12,-2.10,-2.36,1.87,1.88,1.90
132.46,4.03,4.02,2.16,2.15,-2.14,-2.09,-2.37,1.89,1.88,1.87
133.79,4.07,4.03,2.23,2.19,-2.16,-2.09,-2.37,1.92,1.88,1.84
135.12,3.99,4.01,2.19,2.19,-2.17,-2.08,-2.37,1.83,1.84,1.81
136.48,3.94,3.96,2.15,2.18,-2.17,-2.08,-2.37,1.77,1.79,1.79
137.84,3.92,3.94,2.17,2.18,-2.18,-2.08,-2.36,1.75,1.76,1.76
139.22,3.92,3.92,2.20,2.19,-2.18,-2.08,-2.36,1.74,1.74,1.72
140.61,3.92,3.88,2.23,2.18,-2.19,-2.10,-2.35,1.74,1.70,1.69
142.02,3.81,3.83,2.14,2.16,-2.19,-2.12,-2.34,1.63,1.64,1.68
143.44,3.77,3.80,2.13,2.16,-2.19,-2.15,-2.34,1.58,1.61,1.65
144.87,3.79,3.81,2.19,2.19,-2.20,-2.19,-2.33,1.59,1.61,1.61
146.32,3.85,3.83,2.29,2.25,-2.21,-2.24,-2.32,1.64,1.62,1.57
147.78,3.84,3.82,2.30,2.28,-2.23,-2.29,-2.31,1.61,1.58,1.54
149.26,3.76,3.78,2.27,2.29,-2.27,-2.35,-2.30,1.49,1.51,1.49
150.75,3.70,3.72,2.28,2.29,-2.33,-2.41,-2.29,1.38,1.39,1.42
152.26,3.69,3.70,2.34,2.34,-2.40,-2.46,-2.28,1.29,1.29,1.36
153.78,3.70,3.72,2.41,2.43,-2.49,-2.52,-2.27,1.21,1.22,1.29
155.32,3.78,3.77,2.57,2.55,-2.59,-2.57,-2.26,1.19,1.17,1.22
156.88,3.82,3.84,2.68,2.69,-2.70,-2.62,-2.25,1.12,1.14,1.14
158.44,3.89,3.90,2.83,2.84,-2.81,-2.66,-2.25,1.09,1.09,1.06
160.03,3.96,3.94,2.99,2.96,-2.91,-2.71,-2.24,1.06,1.04,0.98
161.63,3.95,3.96,3.05,3.05,-2.99,-2.74,-2.24,0.96,0.97,0.91
163.24,3.94,3.94,3.10,3.09,-3.05,-2.78,-2.24,0.89,0.89,0.85
164.88,3.87,3.88,3.08,3.09,-3.08,-2.81,-2.24,0.79,0.80,0.80
166.53,3.82,3.82,3.08,3.07,-3.09,-2.84,-2.24,0.74,0.73,0.75
168.19,3.74,3.76,3.04,3.05,-3.07,-2.86,-2.24,0.68,0.69,0.71
169.87,3.70,3.71,3.03,3.03,-3.03,-2.89,-2.24,0.67,0.67,0.67
171.57,3.65,3.65,3.00,2.99,-2.99,-2.90,-2.25,0.66,0.65,0.65
173.29,3.59,3.58,2.96,2.95,-2.94,-2.92,-2.26,0.65,0.64,0.64
175.02,3.50,3.51,2.87,2.88,-2.89,-2.93,-2.27,0.61,0.62,0.63
176.77,3.44,3.45,2.83,2.83,-2.84,-2.95,-2.28,0.61,0.61,0.62
178.54,3.39,3.41,2.78,2.80,-2.78,-2.96,-2.29,0.61,0.63,0.61
180.32,3.39,3.38,2.77,2.76,-2.73,-2.97,-2.31,0.66,0.64,0.62
182.13,3.35,3.32,2.73,2.70,-2.69,-2.97,-2.33,0.66,0.63,0.63
183.95,3.23,3.26,2.62,2.64,-2.66,-2.98,-2.34,0.57,0.60,0.62
185.79,3.19,3.22,2.58,2.61,-2.65,-2.98,-2.37,0.55,0.57,0.61
187.65,3.21,3.21,2.62,2.61,-2.65,-2.99,-2.39,0.56,0.56,0.59
189.52,3.24,3.23,2.66,2.65,-2.66,-2.99,-2.41,0.58,0.57,0.58
191.42,3.25,3.25,2.69,2.69,-2.68,-2.99,-2.44,0.57,0.57,0.56
193.33,3.26,3.27,2.72,2.72,-2.71,-2.99,-2.46,0.55,0.56,0.55
195.27,3.28,3.28,2.76,2.75,-2.74,-2.98,-2.49,0.54,0.54,0.53
197.22,3.29,3.30,2.78,2.79,-2.77,-2.98,-2.52,0.52,0.53,0.51
199.19,3.30,3.31,2.82,2.82,-2.79,-2.98,-2.55,0.51,0.52,0.48
201.18,3.31,3.29,2.85,2.83,-2.80,-2.97,-2.58,0.51,0.49,0.47
203.19,3.27,3.26,2.82,2.82,-2.80,-2.97,-2.62,0.47,0.46,0.45
205.23,3.20,3.23,2.78,2.80,-2.81,-2.96,-2.65,0.39,0.42,0.42
207.28,3.20,3.21,2.79,2.80,-2.82,-2.95,-2.68,0.38,0.39,0.42
209.35,3.21,3.18,2.82,2.79,-2.83,-2.95,-2.72,0.38,0.35,0.39
211.44,3.18,3.19,2.82,2.82,-2.85,-2.94,-2.75,0.33,0.34,0.36
213.56,3.17,3.22,2.82,2.86,-2.88,-2.93,-2.78,0.30,0.34,0.36
215.69,3.28,3.25,2.94,2.91,-2.90,-2.92,-2.82,0.38,0.35,0.34
217.85,3.30,3.29,2.97,2.96,-2.93,-2.91,-2.85,0.37,0.36,0.33
220.03,3.30,3.31,2.99,3.00,-2.96,-2.90,-2.88,0.34,0.35,0.32
222.23,3.30,3.30,3.01,3.00,-2.99,-2.89,-2.91,0.32,0.32,0.30
224.45,3.29,3.30,2.99,3.00,-3.01,-2.88,-2.94,0.29,0.29,0.30
226.70,3.30,3.30,3.00,3.00,-3.02,-2.87,-2.96,0.29,0.28,0.30
228.96,3.30,3.30,2.99,2.99,-3.02,-2.86,-2.99,0.29,0.29,0.31
231.25,3.31,3.31,2.99,2.99,-3.00,-2.85,-3.01,0.31,0.31,0.32
233.57,3.32,3.34,2.99,3.01,-2.98,-2.84,-3.02,0.35,0.36,0.33
235.90,3.34,3.34,3.00,3.00,-2.95,-2.83,-3.04,0.40,0.39,0.34
238.26,3.35,3.31,3.00,2.95,-2.92,-2.82,-3.05,0.44,0.39,0.35
240.64,3.23,3.26,2.86,2.88,-2.88,-2.80,-3.05,0.35,0.37,0.37
243.05,3.18,3.21,2.78,2.81,-2.85,-2.79,-3.06,0.33,0.36,0.41
245.48,3.19,3.19,2.77,2.76,-2.82,-2.78,-3.06,0.38,0.37,0.43
247.93,3.22,3.22,2.76,2.76,-2.79,-2.77,-3.05,0.44,0.43,0.46
250.41,3.24,3.24,2.77,2.77,-2.76,-2.75,-3.04,0.48,0.48,0.47
252.92,3.26,3.26,2.76,2.76,-2.74,-2.74,-3.03,0.52,0.52,0.50
255.45,3.27,3.27,2.75,2.75,-2.73,-2.73,-3.01,0.54,0.54,0.53
258.00,3.28,3.28,2.73,2.73,-2.72,-2.71,-2.99,0.56,0.56,0.55
260.58,3.28,3.28,2.72,2.72,-2.71,-2.69,-2.97,0.57,0.57,0.56
263.19,3.28,3.28,2.69,2.70,-2.70,-2.68,-2.94,0.59,0.59,0.60
265.82,3.28,3.28,2.67,2.67,-2.67,-2.66,-2.90,0.61,0.61,0.61
268.48,3.28,3.28,2.65,2.65,-2.64,-2.64,-2.87,0.64,0.64,0.63
271.16,3.28,3.28,2.62,2.62,-2.62,-2.62,-2.83,0.67,0.66,0.67
273.87,3.27,3.28,2.59,2.59,-2.60,-2.59,-2.78,0.68,0.68,0.68
276.61,3.27,3.27,2.56,2.56,-2.57,-2.57,-2.74,0.70,0.70,0.72
279.38,3.27,3.27,2.53,2.53,-2.55,-2.54,-2.69,0.73,0.72,0.74
282.17,3.27,3.28,2.51,2.51,-2.51,-2.51,-2.64,0.76,0.76,0.77
284.99,3.28,3.30,2.48,2.51,-2.48,-2.48,-2.59,0.80,0.82,0.80
287.84,3.31,3.30,2.50,2.48,-2.45,-2.45,-2.53,0.86,0.85,0.82
290.72,3.32,3.29,2.47,2.44,-2.42,-2.42,-2.48,0.90,0.86,0.85
293.63,3.22,3.26,2.35,2.38,-2.39,-2.39,-2.42,0.83,0.86,0.88
296.57,3.22,3.23,2.31,2.32,-2.36,-2.35,-2.36,0.86,0.87,0.91
299.53,3.23,3.23,2.29,2.29,-2.32,-2.31,-2.31,0.91,0.90,0.94
302.53,3.25,3.26,2.30,2.29,-2.28,-2.28,-2.25,0.98,0.98,0.96
305.55,3.26,3.27,2.26,2.28,-2.23,-2.24,-2.19,1.04,1.04,1.00
308.61,3.27,3.25,2.26,2.23,-2.18,-2.20,-2.13,1.09,1.07,1.02
311.69,3.20,3.20,2.16,2.15,-2.14,-2.16,-2.07,1.07,1.06,1.04
314.81,3.11,3.14,2.04,2.07,-2.10,-2.12,-2.01,1.01,1.04,1.07
317.96,3.08,3.09,2.00,2.01,-2.06,-2.08,-1.96,1.02,1.03,1.09
321.14,3.08,3.08,1.99,1.98,-2.02,-2.04,-1.90,1.06,1.05,1.09
324.35,3.08,3.08,1.97,1.97,-1.98,-2.00,-1.84,1.11,1.11,1.11
327.59,3.08,3.09,1.96,1.97,-1.93,-1.96,-1.79,1.15,1.16,1.13
330.87,3.08,3.09,1.95,1.95,-1.89,-1.92,-1.73,1.19,1.19,1.14
334.18,3.07,3.05,1.92,1.90,-1.86,-1.89,-1.68,1.21,1.19,1.15
337.52,2.99,2.99,1.83,1.83,-1.83,-1.85,-1.63,1.17,1.16,1.16
340.90,2.90,2.93,1.73,1.75,-1.79,-1.81,-1.57,1.12,1.14,1.18
344.30,2.87,2.88,1.69,1.70,-1.74,-1.77,-1.52,1.13,1.14,1.19
347.75,2.87,2.88,1.69,1.69,-1.69,-1.73,-1.47,1.18,1.18,1.18
351.23,2.87,2.87,1.68,1.68,-1.65,-1.70,-1.42,1.23,1.22,1.19
354.74,2.85,2.82,1.67,1.63,-1.61,-1.66,-1.38,1.25,1.22,1.19
358.28,2.75,2.77,1.56,1.57,-1.57,-1.62,-1.33,1.18,1.19,1.20
361.87,2.69,2.72,1.50,1.52,-1.55,-1.58,-1.29,1.15,1.17,1.19
365.49,2.69,2.70,1.49,1.50,-1.52,-1.55,-1.24,1.17,1.17,1.20
369.14,2.70,2.69,1.51,1.50,-1.50,-1.51,-1.20,1.20,1.19,1.19
372.83,2.70,2.68,1.52,1.49,-1.48,-1.47,-1.16,1.22,1.20,1.19
376.56,2.64,2.66,1.46,1.47,-1.46,-1.44,-1.11,1.18,1.19,1.19
380.33,2.62,2.64,1.43,1.45,-1.45,-1.40,-1.07,1.17,1.19,1.20
384.13,2.62,2.62,1.43,1.44,-1.43,-1.37,-1.04,1.19,1.19,1.19
387.97,2.63,2.62,1.45,1.43,-1.42,-1.33,-1.00,1.22,1.20,1.18
391.85,2.58,2.58,1.41,1.41,-1.39,-1.30,-0.96,1.19,1.19,1.17
395.77,2.53,2.53,1.35,1.36,-1.36,-1.26,-0.92,1.17,1.17,1.18
399.73,2.46,2.48,1.30,1.31,-1.32,-1.23,-0.89,1.14,1.16,1.17
403.72,2.43,2.45,1.27,1.29,-1.28,-1.19,-0.85,1.15,1.17,1.17
407.76,2.43,2.41,1.28,1.26,-1.24,-1.16,-0.82,1.19,1.17,1.15
411.84,2.39,2.36,1.24,1.21,-1.20,-1.12,-0.79,1.19,1.16,1.15
415.96,2.27,2.30,1.12,1.15,-1.16,-1.09,-0.75,1.11,1.14,1.15
420.12,2.22,2.25,1.07,1.10,-1.12,-1.05,-0.72,1.10,1.13,1.15
424.32,2.23,2.21,1.08,1.06,-1.08,-1.01,-0.69,1.15,1.13,1.15
428.56,2.21,2.21,1.05,1.05,-1.04,-0.98,-0.66,1.17,1.17,1.16
432.85,2.17,2.20,1.01,1.03,-1.00,-0.94,-0.63,1.17,1.19,1.17
437.18,2.18,2.16,1.01,0.98,-0.97,-0.91,-0.60,1.22,1.20,1.18
441.55,2.14,2.13,0.93,0.92,-0.93,-0.87,-0.57,1.21,1.20,1.22
445.96,2.09,2.12,0.85,0.88,-0.90,-0.84,-0.54,1.20,1.23,1.25
450.42,2.11,2.13,0.84,0.84,-0.86,-0.80,-0.52,1.26,1.27,1.27
454.93,2.17,2.14,0.85,0.82,-0.82,-0.76,-0.49,1.36,1.33,1.32
459.48,2.16,2.17,0.79,0.80,-0.77,-0.73,-0.46,1.39,1.39,1.37
464.07,2.16,2.17,0.74,0.74,-0.74,-0.69,-0.43,1.43,1.43,1.42
468.71,2.16,2.16,0.68,0.68,-0.70,-0.65,-0.40,1.47,1.46,1.48
473.40,2.15,2.17,0.63,0.64,-0.65,-0.62,-0.38,1.50,1.51,1.52
478.13,2.17,2.18,0.59,0.60,-0.61,-0.58,-0.35,1.57,1.57,1.58
482.91,2.20,2.19,0.59,0.57,-0.56,-0.54,-0.32,1.65,1.63,1.62
487.74,2.17,2.19,0.52,0.53,-0.50,-0.50,-0.30,1.67,1.69,1.66
492.62,2.18,2.17,0.48,0.47,-0.45,-0.46,-0.27,1.73,1.71,1.71
497.55,2.13,2.12,0.41,0.39,-0.40,-0.42,-0.24,1.74,1.73,1.73
502.52,2.06,2.09,0.31,0.34,-0.35,-0.39,-0.22,1.72,1.75,1.76
507.55,2.05,2.06,0.29,0.29,-0.30,-0.35,-0.19,1.76,1.76,1.77
512.62,2.04,2.02,0.27,0.24,-0.25,-0.30,-0.16,1.79,1.77,1.77
517.75,1.98,1.98,0.20,0.20,-0.21,-0.26,-0.13,1.77,1.77,1.78
522.93,1.91,1.93,0.14,0.16,-0.18,-0.22,-0.11,1.74,1.75,1.77
528.16,1.87,1.89,0.13,0.14,-0.15,-0.18,-0.08,1.73,1.74,1.74
533.44,1.85,1.84,0.14,0.13,-0.12,-0.14,-0.05,1.74,1.72,1.71
538.77,1.80,1.79,0.12,0.11,-0.09,-0.09,-0.02,1.71,1.70,1.68
544.16,1.69,1.70,0.06,0.07,-0.06,-0.05,0.01,1.64,1.64,1.63
549.60,1.59,1.61,0.01,0.03,-0.02,-0.00,0.03,1.57,1.58,1.58
555.10,1.49,1.51,-0.03,-0.02,0.02,0.04,0.06,1.51,1.53,1.52
560.65,1.43,1.40,-0.04,-0.07,0.07,0.09,0.09,1.51,1.47,1.47
