frequency,raw,error,smoothed,error_smoothed,equalization,parametric_eq,equalized_raw,equalized_smoothed,target
20.00,20.51,11.78,20.51,11.78,-11.78,-4.67,8.73,8.73,8.73
20.20,20.46,11.73,20.46,11.73,-11.73,-4.79,8.73,8.73,8.73
20.40,20.42,11.69,20.41,11.68,-11.68,-4.91,8.73,8.73,8.73
20.61,20.37,11.63,20.37,11.63,-11.63,-5.04,8.73,8.73,8.73
20.81,20.32,11.58,20.32,11.59,-11.59,-5.17,8.73,8.74,8.74
21.02,20.28,11.54,20.27,11.54,-11.54,-5.31,8.74,8.74,8.74
21.23,20.23,11.49,20.23,11.49,-11.49,-5.45,8.74,8.74,8.74
21.44,20.18,11.43,20.18,11.44,-11.44,-5.59,8.74,8.74,8.74
21.66,20.13,11.38,20.13,11.39,-11.39,-5.74,8.74,8.74,8.74
21.87,20.09,11.34,20.08,11.33,-11.33,-5.89,8.75,8.75,8.75
22.09,20.04,11.29,20.03,11.28,-11.28,-6.04,8.75,8.75,8.75
22.31,19.99,11.23,19.98,11.23,-11.23,-6.20,8.75,8.75,8.75
22.54,19.94,11.18,19.93,11.18,-11.18,-6.37,8.76,8.75,8.75
22.76,19.88,11.12,19.88,11.13,-11.13,-6.53,8.75,8.75,8.75
22.99,19.83,11.07,19.83,11.07,-11.07,-6.71,8.75,8.76,8.76
23.22,19.78,11.02,19.78,11.02,-11.02,-6.88,8.76,8.76,8.76
23.45,19.73,10.97,19.73,10.97,-10.97,-7.06,8.76,8.76,8.76
23.69,19.68,10.91,19.68,10.91,-10.91,-7.25,8.76,8.76,8.76
23.92,19.63,10.86,19.63,10.86,-10.86,-7.44,8.77,8.77,8.77
24.16,19.58,10.81,19.57,10.81,-10.81,-7.64,8.77,8.77,8.77
24.40,19.52,10.75,19.52,10.75,-10.75,-7.84,8.76,8.77,8.77
24.65,19.47,10.69,19.47,10.70,-10.70,-8.04,8.77,8.77,8.77
24.89,19.42,10.64,19.42,10.64,-10.64,-8.25,8.77,8.77,8.77
25.14,19.37,10.59,19.36,10.59,-10.59,-8.46,8.78,8.78,8.78
25.39,19.32,10.54,19.31,10.53,-10.53,-8.67,8.78,8.78,8.78
25.65,19.26,10.48,19.26,10.48,-10.48,-8.89,8.78,8.78,8.78
25.91,19.21,10.42,19.20,10.42,-10.42,-9.11,8.79,8.78,8.78
26.16,19.15,10.36,19.15,10.36,-10.36,-9.33,8.78,8.78,8.79
26.43,19.10,10.31,19.09,10.31,-10.31,-9.56,8.79,8.79,8.79
26.69,19.04,10.25,19.04,10.25,-10.25,-9.78,8.79,8.79,8.79
26.96,18.99,10.20,18.98,10.19,-10.19,-10.01,8.79,8.79,8.79
27.23,18.93,10.13,18.93,10.14,-10.14,-10.23,8.79,8.79,8.79
27.50,18.87,10.07,18.87,10.08,-10.08,-10.45,8.79,8.79,8.79
27.77,18.82,10.02,18.82,10.02,-10.02,-10.67,8.80,8.80,8.80
28.05,18.76,9.96,18.76,9.96,-9.96,-10.88,8.80,8.80,8.80
28.33,18.70,9.90,18.70,9.90,-9.90,-11.08,8.79,8.80,8.80
28.62,18.65,9.85,18.64,9.84,-9.84,-11.28,8.81,8.80,8.80
28.90,18.59,9.79,18.58,9.78,-9.78,-11.46,8.80,8.80,8.80
29.19,18.53,9.73,18.52,9.72,-9.72,-11.63,8.80,8.80,8.80
29.48,18.47,9.66,18.46,9.66,-9.66,-11.78,8.80,8.80,8.80
29.78,18.41,9.60,18.41,9.60,-9.60,-11.92,8.80,8.80,8.80
30.08,18.35,9.54,18.35,9.54,-9.54,-12.04,8.80,8.80,8.80
30.38,18.29,9.48,18.29,9.49,-9.49,-12.13,8.80,8.80,8.80
30.68,18.23,9.42,18.23,9.43,-9.43,-12.20,8.80,8.80,8.80
30.99,18.16,9.35,18.17,9.37,-9.37,-12.25,8.79,8.80,8.80
31.30,18.11,9.30,18.11,9.31,-9.31,-12.28,8.80,8.80,8.80
31.61,18.05,9.24,18.05,9.25,-9.25,-12.28,8.80,8.80,8.80
31.93,17.99,9.18,17.99,9.19,-9.19,-12.25,8.80,8.80,8.80
32.24,17.94,9.13,17.93,9.13,-9.13,-12.20,8.81,8.80,8.80
32.57,17.88,9.08,17.87,9.07,-9.07,-12.13,8.81,8.80,8.80
32.89,17.82,9.01,17.81,9.01,-9.01,-12.04,8.80,8.80,8.80
33.22,17.76,8.96,17.75,8.95,-8.95,-11.93,8.80,8.80,8.80
33.55,17.70,8.90,17.69,8.90,-8.90,-11.80,8.80,8.80,8.80
33.89,17.64,8.84,17.63,8.84,-8.84,-11.65,8.80,8.80,8.80
34.23,17.58,8.78,17.57,8.78,-8.78,-11.50,8.80,8.80,8.80
34.57,17.52,8.72,17.51,8.72,-8.72,-11.33,8.80,8.80,8.80
34.92,17.45,8.65,17.45,8.66,-8.66,-11.15,8.79,8.79,8.79
35.27,17.39,8.59,17.39,8.60,-8.60,-10.97,8.79,8.79,8.79
35.62,17.33,8.54,17.33,8.54,-8.54,-10.78,8.79,8.79,8.79
35.97,17.27,8.48,17.27,8.48,-8.48,-10.59,8.79,8.79,8.79
36.33,17.21,8.42,17.20,8.42,-8.42,-10.40,8.79,8.79,8.79
36.70,17.14,8.35,17.14,8.36,-8.36,-10.21,8.78,8.78,8.78
37.06,17.08,8.29,17.08,8.30,-8.30,-10.01,8.78,8.78,8.78
37.43,17.02,8.24,17.02,8.24,-8.24,-9.82,8.78,8.78,8.78
37.81,16.96,8.18,16.95,8.18,-8.18,-9.63,8.78,8.78,8.78
38.19,16.90,8.12,16.89,8.12,-8.12,-9.45,8.78,8.77,8.77
38.57,16.83,8.06,16.83,8.06,-8.06,-9.26,8.77,8.77,8.77
38.95,16.77,8.00,16.77,8.00,-8.00,-9.08,8.77,8.77,8.77
39.34,16.70,7.94,16.70,7.94,-7.94,-8.91,8.76,8.76,8.76
39.74,16.64,7.88,16.64,7.88,-7.88,-8.74,8.76,8.76,8.76
40.14,16.58,7.83,16.57,7.82,-7.82,-8.57,8.76,8.75,8.75
40.54,16.51,7.76,16.51,7.76,-7.76,-8.41,8.75,8.75,8.75
40.94,16.45,7.70,16.44,7.70,-7.70,-8.26,8.75,8.74,8.74
41.35,16.38,7.64,16.38,7.64,-7.64,-8.11,8.74,8.74,8.74
41.76,16.32,7.58,16.31,7.58,-7.58,-7.96,8.74,8.73,8.73
42.18,16.25,7.52,16.24,7.51,-7.51,-7.82,8.73,8.73,8.73
42.60,16.18,7.45,16.18,7.45,-7.45,-7.69,8.73,8.72,8.72
43.03,16.11,7.39,16.11,7.39,-7.39,-7.56,8.72,8.72,8.72
43.46,16.04,7.32,16.04,7.32,-7.32,-7.43,8.71,8.71,8.71
43.90,15.97,7.26,15.97,7.26,-7.26,-7.32,8.71,8.71,8.71
44.33,15.90,7.20,15.90,7.20,-7.20,-7.20,8.70,8.70,8.70
44.78,15.83,7.13,15.83,7.14,-7.14,-7.10,8.69,8.69,8.69
45.23,15.76,7.07,15.76,7.07,-7.07,-6.99,8.69,8.68,8.69
45.68,15.69,7.01,15.69,7.01,-7.01,-6.90,8.68,8.68,8.68
46.13,15.62,6.95,15.62,6.95,-6.95,-6.80,8.67,8.67,8.67
46.60,15.54,6.88,15.55,6.89,-6.89,-6.71,8.65,8.66,8.66
47.06,15.47,6.82,15.47,6.83,-6.83,-6.63,8.64,8.65,8.65
47.53,15.41,6.77,15.40,6.77,-6.77,-6.55,8.64,8.64,8.64
48.01,15.34,6.71,15.33,6.71,-6.71,-6.48,8.63,8.63,8.63
48.49,15.27,6.65,15.26,6.65,-6.65,-6.41,8.62,8.61,8.62
48.97,15.19,6.58,15.19,6.59,-6.59,-6.34,8.60,8.60,8.60
49.46,15.12,6.53,15.12,6.53,-6.53,-6.28,8.59,8.59,8.59
49.96,15.06,6.48,15.05,6.47,-6.47,-6.22,8.59,8.58,8.58
50.46,14.98,6.41,14.98,6.41,-6.41,-6.17,8.56,8.56,8.56
50.96,14.91,6.36,14.91,6.36,-6.36,-6.11,8.55,8.55,8.55
51.47,14.83,6.29,14.84,6.30,-6.30,-6.07,8.53,8.54,8.54
51.99,14.76,6.24,14.77,6.25,-6.25,-6.02,8.51,8.52,8.52
52.51,14.69,6.18,14.70,6.19,-6.19,-5.98,8.50,8.51,8.51
53.03,14.63,6.14,14.62,6.13,-6.13,-5.94,8.49,8.49,8.49
53.56,14.56,6.08,14.55,6.08,-6.08,-5.90,8.48,8.47,8.48
54.10,14.49,6.03,14.48,6.03,-6.03,-5.86,8.46,8.46,8.46
54.64,14.42,5.97,14.41,5.97,-5.97,-5.82,8.45,8.44,8.44
55.18,14.35,5.92,14.34,5.92,-5.92,-5.79,8.43,8.43,8.43
55.74,14.28,5.87,14.27,5.86,-5.86,-5.75,8.41,8.41,8.41
56.29,14.21,5.81,14.20,5.81,-5.81,-5.72,8.40,8.39,8.39
56.86,14.14,5.76,14.13,5.76,-5.76,-5.68,8.38,8.38,8.38
57.42,14.06,5.70,14.06,5.70,-5.70,-5.65,8.35,8.36,8.36
58.00,13.99,5.65,13.99,5.65,-5.65,-5.62,8.34,8.34,8.34
58.58,13.92,5.60,13.92,5.60,-5.60,-5.58,8.32,8.32,8.32
59.16,13.85,5.55,13.85,5.55,-5.55,-5.54,8.30,8.30,8.30
59.76,13.78,5.50,13.77,5.49,-5.49,-5.51,8.28,8.28,8.28
60.35,13.70,5.44,13.70,5.44,-5.44,-5.47,8.25,8.26,8.26
60.96,13.63,5.39,13.63,5.39,-5.39,-5.43,8.24,8.24,8.24
61.57,13.56,5.34,13.56,5.34,-5.34,-5.38,8.22,8.21,8.22
62.18,13.49,5.29,13.48,5.29,-5.29,-5.34,8.20,8.19,8.19
62.80,13.41,5.24,13.41,5.24,-5.24,-5.29,8.16,8.17,8.17
63.43,13.34,5.19,13.34,5.19,-5.19,-5.24,8.14,8.14,8.14
64.07,13.26,5.14,13.27,5.15,-5.15,-5.19,8.11,8.12,8.12
64.71,13.20,5.10,13.19,5.10,-5.10,-5.14,8.10,8.09,8.09
65.35,13.13,5.06,13.12,5.05,-5.05,-5.08,8.07,8.07,8.07
66.01,13.05,5.01,13.04,5.01,-5.01,-5.02,8.04,8.04,8.04
66.67,12.98,4.96,12.97,4.96,-4.96,-4.97,8.02,8.01,8.01
67.33,12.90,4.91,12.90,4.92,-4.92,-4.90,7.98,7.98,7.98
68.01,12.83,4.87,12.83,4.87,-4.87,-4.84,7.95,7.95,7.95
68.69,12.75,4.82,12.75,4.83,-4.83,-4.78,7.92,7.92,7.92
69.37,12.68,4.78,12.68,4.79,-4.79,-4.72,7.89,7.89,7.89
70.07,12.61,4.74,12.61,4.75,-4.75,-4.65,7.86,7.86,7.86
70.77,12.54,4.71,12.54,4.71,-4.71,-4.59,7.83,7.83,7.83
71.48,12.46,4.66,12.47,4.67,-4.67,-4.52,7.79,7.80,7.80
72.19,12.39,4.62,12.39,4.63,-4.63,-4.46,7.76,7.76,7.76
72.91,12.33,4.60,12.32,4.59,-4.59,-4.39,7.73,7.73,7.73
73.64,12.26,4.56,12.25,4.56,-4.56,-4.33,7.70,7.70,7.70
74.38,12.19,4.52,12.18,4.52,-4.52,-4.27,7.66,7.66,7.66
75.12,12.12,4.49,12.11,4.49,-4.49,-4.20,7.63,7.63,7.63
75.87,12.05,4.46,12.04,4.45,-4.45,-4.14,7.59,7.59,7.59
76.63,11.98,4.42,11.97,4.42,-4.42,-4.08,7.56,7.55,7.55
77.40,11.90,4.38,11.90,4.38,-4.38,-4.03,7.51,7.52,7.52
78.17,11.83,4.35,11.83,4.35,-4.35,-3.97,7.48,7.48,7.48
78.95,11.76,4.31,11.76,4.31,-4.31,-3.91,7.44,7.44,7.44
79.74,11.69,4.28,11.69,4.28,-4.28,-3.86,7.41,7.41,7.41
80.54,11.62,4.25,11.61,4.24,-4.24,-3.81,7.37,7.37,7.37
81.35,11.55,4.22,11.54,4.21,-4.21,-3.76,7.34,7.33,7.33
82.16,11.47,4.18,11.47,4.18,-4.18,-3.72,7.29,7.29,7.29
82.98,11.39,4.13,11.39,4.14,-4.14,-3.67,7.25,7.25,7.25
83.81,11.32,4.10,11.32,4.11,-4.11,-3.63,7.21,7.21,7.21
84.65,11.26,4.08,11.25,4.07,-4.07,-3.59,7.19,7.18,7.18
85.50,11.19,4.05,11.18,4.04,-4.04,-3.56,7.15,7.14,7.14
86.35,11.10,4.00,11.10,4.00,-4.00,-3.52,7.09,7.10,7.10
87.22,11.02,3.95,11.03,3.97,-3.97,-3.49,7.05,7.06,7.06
88.09,10.96,3.93,10.96,3.94,-3.94,-3.46,7.02,7.02,7.03
88.97,10.90,3.91,10.89,3.91,-3.91,-3.43,6.99,6.99,6.99
89.86,10.82,3.87,10.82,3.87,-3.87,-3.41,6.94,6.95,6.95
90.76,10.75,3.84,10.75,3.84,-3.84,-3.39,6.90,6.91,6.91
91.66,10.68,3.80,10.68,3.81,-3.81,-3.37,6.86,6.87,6.87
92.58,10.62,3.78,10.61,3.78,-3.78,-3.35,6.84,6.83,6.83
93.51,10.55,3.75,10.54,3.75,-3.75,-3.34,6.80,6.79,6.79
94.44,10.48,3.72,10.47,3.72,-3.72,-3.32,6.76,6.75,6.75
95.39,10.41,3.69,10.40,3.69,-3.69,-3.31,6.72,6.71,6.71
96.34,10.34,3.66,10.33,3.66,-3.66,-3.31,6.68,6.67,6.67
97.30,10.27,3.64,10.26,3.63,-3.63,-3.30,6.64,6.63,6.63
98.28,10.19,3.60,10.19,3.60,-3.60,-3.29,6.59,6.59,6.59
99.26,10.11,3.56,10.11,3.57,-3.57,-3.29,6.54,6.54,6.55
100.25,10.03,3.52,10.04,3.54,-3.54,-3.29,6.49,6.50,6.50
101.25,9.95,3.48,9.97,3.51,-3.51,-3.29,6.44,6.46,6.46
102.27,9.87,3.45,9.90,3.48,-3.48,-3.29,6.39,6.42,6.42
103.29,9.83,3.45,9.82,3.44,-3.44,-3.29,6.38,6.38,6.38
104.32,9.77,3.43,9.74,3.41,-3.41,-3.30,6.36,6.33,6.33
105.37,9.69,3.40,9.66,3.38,-3.38,-3.30,6.31,6.28,6.29
106.42,9.61,3.36,9.58,3.34,-3.34,-3.30,6.26,6.24,6.25
107.48,9.52,3.31,9.51,3.31,-3.31,-3.31,6.21,6.20,6.21
108.56,9.44,3.27,9.43,3.27,-3.27,-3.31,6.16,6.16,6.16
109.64,9.35,3.23,9.35,3.24,-3.24,-3.31,6.11,6.11,6.12
110.74,9.27,3.19,9.28,3.21,-3.21,-3.32,6.06,6.07,6.08
111.85,9.19,3.15,9.20,3.17,-3.17,-3.32,6.02,6.03,6.03
112.97,9.11,3.12,9.12,3.14,-3.14,-3.32,5.97,5.99,5.99
114.10,9.02,3.07,9.05,3.11,-3.11,-3.32,5.91,5.94,5.95
115.24,8.95,3.04,8.97,3.07,-3.07,-3.31,5.87,5.89,5.90
116.39,8.91,3.05,8.90,3.04,-3.04,-3.31,5.86,5.85,5.86
117.55,8.86,3.04,8.83,3.01,-3.01,-3.30,5.84,5.81,5.82
118.73,8.77,2.99,8.75,2.98,-2.98,-3.29,5.78,5.77,5.78
119.92,8.68,2.94,8.69,2.95,-2.95,-3.28,5.72,5.73,5.73
121.12,8.60,2.90,8.62,2.92,-2.92,-3.26,5.67,5.69,5.69
122.33,8.56,2.90,8.55,2.89,-2.89,-3.24,5.66,5.65,5.65
123.55,8.50,2.88,8.48,2.86,-2.86,-3.22,5.63,5.62,5.61
124.79,8.41,2.83,8.41,2.83,-2.83,-3.20,5.58,5.58,5.57
126.03,8.32,2.78,8.34,2.80,-2.80,-3.17,5.52,5.54,5.54
127.29,8.28,2.78,8.27,2.77,-2.77,-3.14,5.51,5.50,5.50
128.57,8.23,2.76,8.20,2.73,-2.73,-3.10,5.49,5.47,5.46
129.85,8.13,2.70,8.13,2.70,-2.70,-3.06,5.43,5.43,5.43
131.15,8.03,2.63,8.05,2.66,-2.66,-3.02,5.37,5.40,5.40
132.46,7.99,2.62,7.99,2.62,-2.62,-2.97,5.37,5.36,5.36
133.79,7.92,2.59,7.91,2.58,-2.58,-2.93,5.33,5.33,5.33
135.12,7.84,2.54,7.84,2.54,-2.54,-2.88,5.29,5.30,5.30
136.48,7.78,2.51,7.77,2.50,-2.50,-2.82,5.27,5.27,5.27
137.84,7.70,2.46,7.70,2.46,-2.46,-2.77,5.23,5.24,5.24
139.22,7.65,2.44,7.63,2.42,-2.42,-2.71,5.22,5.21,5.21
140.61,7.58,2.39,7.56,2.38,-2.38,-2.65,5.19,5.18,5.18
142.02,7.49,2.33,7.50,2.34,-2.34,-2.59,5.15,5.15,5.16
143.44,7.43,2.30,7.43,2.30,-2.30,-2.53,5.13,5.13,5.13
144.87,7.34,2.23,7.36,2.26,-2.26,-2.46,5.08,5.10,5.10
146.32,7.30,2.22,7.30,2.22,-2.22,-2.40,5.08,5.08,5.08
147.78,7.23,2.17,7.23,2.18,-2.18,-2.33,5.05,5.05,5.05
149.26,7.18,2.15,7.16,2.14,-2.14,-2.27,5.04,5.03,5.03
150.75,7.09,2.08,7.10,2.10,-2.10,-2.20,4.99,5.00,5.00
152.26,7.03,2.05,7.03,2.05,-2.05,-2.13,4.97,4.98,4.98
153.78,6.97,2.01,6.96,2.01,-2.01,-2.07,4.95,4.95,4.95
155.32,6.92,1.99,6.90,1.97,-1.97,-2.00,4.94,4.92,4.93
156.88,6.83,1.92,6.83,1.93,-1.93,-1.93,4.90,4.90,4.90
158.44,6.77,1.89,6.77,1.89,-1.89,-1.87,4.88,4.88,4.88
160.03,6.68,1.82,6.70,1.85,-1.85,-1.80,4.83,4.85,4.85
161.63,6.64,1.81,6.63,1.80,-1.80,-1.74,4.83,4.83,4.83
163.24,6.59,1.78,6.56,1.76,-1.76,-1.67,4.83,4.80,4.80
164.88,6.49,1.71,6.49,1.71,-1.71,-1.61,4.77,4.78,4.78
166.53,6.42,1.66,6.42,1.67,-1.67,-1.55,4.75,4.75,4.75
168.19,6.36,1.63,6.35,1.62,-1.62,-1.49,4.73,4.73,4.73
169.87,6.29,1.58,6.29,1.58,-1.58,-1.43,4.71,4.71,4.71
171.57,6.23,1.54,6.22,1.53,-1.53,-1.37,4.69,4.69,4.69
173.29,6.17,1.50,6.15,1.49,-1.49,-1.31,4.68,4.67,4.67
175.02,6.06,1.41,6.09,1.44,-1.44,-1.25,4.62,4.65,4.65
176.77,6.00,1.37,6.02,1.39,-1.39,-1.19,4.60,4.63,4.63
178.54,5.95,1.34,5.96,1.35,-1.35,-1.14,4.60,4.61,4.61
180.32,5.91,1.31,5.89,1.30,-1.30,-1.08,4.61,4.59,4.60
182.13,5.85,1.26,5.83,1.25,-1.25,-1.02,4.60,4.58,4.58
183.95,5.76,1.19,5.77,1.20,-1.20,-0.97,4.55,4.57,4.57
185.79,5.72,1.16,5.71,1.16,-1.16,-0.92,4.56,4.56,4.56
187.65,5.66,1.11,5.65,1.11,-1.11,-0.87,4.55,4.54,4.55
189.52,5.60,1.06,5.59,1.06,-1.06,-0.81,4.54,4.53,4.53
191.42,5.54,1.01,5.53,1.01,-1.01,-0.76,4.53,4.52,4.52
193.33,5.47,0.95,5.47,0.96,-0.96,-0.71,4.51,4.52,4.51
195.27,5.41,0.90,5.42,0.91,-0.91,-0.66,4.50,4.51,4.51
197.22,5.35,0.85,5.35,0.86,-0.86,-0.62,4.49,4.50,4.50
199.19,5.30,0.81,5.29,0.81,-0.81,-0.57,4.49,4.48,4.49
201.18,5.24,0.76,5.23,0.75,-0.75,-0.52,4.48,4.47,4.48
203.19,5.18,0.71,5.17,0.70,-0.70,-0.47,4.48,4.46,4.47
205.23,5.11,0.65,5.11,0.65,-0.65,-0.43,4.46,4.46,4.46
207.28,5.05,0.60,5.04,0.60,-0.60,-0.38,4.45,4.45,4.45
209.35,4.98,0.54,4.98,0.54,-0.54,-0.34,4.43,4.44,4.44
211.44,4.92,0.49,4.92,0.49,-0.49,-0.30,4.42,4.43,4.43
213.56,4.85,0.43,4.86,0.44,-0.44,-0.25,4.41,4.42,4.42
215.69,4.79,0.38,4.80,0.39,-0.39,-0.21,4.40,4.41,4.41
217.85,4.72,0.32,4.73,0.33,-0.33,-0.17,4.38,4.40,4.40
220.03,4.69,0.30,4.67,0.28,-0.28,-0.12,4.41,4.39,4.39
222.23,4.63,0.24,4.61,0.23,-0.23,-0.08,4.40,4.38,4.38
224.45,4.56,0.18,4.54,0.17,-0.17,-0.04,4.39,4.37,4.37
226.70,4.49,0.12,4.48,0.12,-0.12,-0.00,4.37,4.37,4.37
228.96,4.42,0.06,4.42,0.06,-0.06,0.04,4.35,4.36,4.36
231.25,4.37,0.02,4.36,0.01,-0.01,0.08,4.35,4.35,4.35
233.57,4.30,-0.05,4.30,-0.04,0.04,0.12,4.34,4.34,4.34
235.90,4.22,-0.12,4.25,-0.09,0.09,0.16,4.31,4.34,4.34
238.26,4.18,-0.16,4.19,-0.14,0.14,0.19,4.32,4.34,4.33
240.64,4.14,-0.19,4.13,-0.19,0.19,0.23,4.33,4.33,4.33
243.05,4.10,-0.23,4.08,-0.24,0.24,0.27,4.34,4.32,4.33
245.48,4.03,-0.30,4.02,-0.29,0.29,0.31,4.32,4.32,4.32
247.93,3.96,-0.36,3.97,-0.34,0.34,0.34,4.30,4.32,4.32
250.41,3.92,-0.40,3.92,-0.39,0.39,0.38,4.31,4.31,4.32
252.92,3.87,-0.45,3.87,-0.44,0.44,0.41,4.30,4.31,4.31
255.45,3.84,-0.47,3.82,-0.48,0.48,0.45,4.32,4.30,4.31
258.00,3.79,-0.52,3.77,-0.53,0.53,0.49,4.32,4.30,4.30
260.58,3.72,-0.58,3.72,-0.58,0.58,0.52,4.29,4.30,4.30
263.19,3.67,-0.62,3.66,-0.63,0.63,0.56,4.29,4.29,4.29
265.82,3.61,-0.68,3.61,-0.67,0.67,0.59,4.28,4.28,4.28
268.48,3.57,-0.71,3.55,-0.72,0.72,0.63,4.29,4.28,4.28
271.16,3.52,-0.75,3.50,-0.77,0.77,0.66,4.29,4.27,4.27
273.87,3.45,-0.82,3.45,-0.82,0.82,0.70,4.26,4.26,4.26
276.61,3.39,-0.87,3.39,-0.87,0.87,0.73,4.25,4.26,4.26
279.38,3.32,-0.94,3.34,-0.92,0.92,0.77,4.23,4.25,4.25
282.17,3.27,-0.98,3.28,-0.96,0.96,0.81,4.23,4.25,4.25
284.99,3.23,-1.02,3.23,-1.01,1.01,0.84,4.24,4.24,4.24
287.84,3.17,-1.07,3.18,-1.06,1.06,0.88,4.23,4.24,4.24
290.72,3.13,-1.11,3.12,-1.11,1.11,0.92,4.24,4.24,4.24
293.63,3.08,-1.16,3.07,-1.16,1.16,0.96,4.24,4.24,4.24
296.57,3.02,-1.22,3.02,-1.21,1.21,1.00,4.23,4.24,4.24
299.53,2.97,-1.27,2.97,-1.26,1.26,1.04,4.23,4.23,4.24
302.53,2.93,-1.31,2.92,-1.31,1.31,1.08,4.24,4.24,4.24
305.55,2.89,-1.35,2.87,-1.36,1.36,1.12,4.25,4.24,4.24
308.61,2.84,-1.40,2.82,-1.42,1.42,1.16,4.25,4.24,4.24
311.69,2.78,-1.46,2.78,-1.47,1.47,1.20,4.24,4.24,4.24
314.81,2.73,-1.52,2.72,-1.52,1.52,1.25,4.25,4.24,4.24
317.96,2.67,-1.58,2.67,-1.57,1.57,1.29,4.24,4.24,4.24
321.14,2.62,-1.63,2.62,-1.62,1.62,1.34,4.24,4.25,4.25
324.35,2.58,-1.67,2.57,-1.67,1.67,1.39,4.25,4.25,4.25
327.59,2.53,-1.73,2.52,-1.73,1.73,1.44,4.25,4.25,4.25
330.87,2.48,-1.78,2.47,-1.78,1.78,1.49,4.25,4.25,4.26
334.18,2.43,-1.83,2.43,-1.83,1.83,1.54,4.25,4.25,4.26
337.52,2.38,-1.88,2.38,-1.88,1.88,1.59,4.25,4.26,4.26
340.90,2.33,-1.93,2.33,-1.93,1.93,1.64,4.25,4.26,4.26
344.30,2.28,-1.99,2.29,-1.97,1.97,1.70,4.25,4.26,4.26
347.75,2.24,-2.03,2.24,-2.02,2.02,1.76,4.26,4.26,4.27
351.23,2.20,-2.07,2.20,-2.07,2.07,1.81,4.26,4.27,4.27
354.74,2.16,-2.11,2.15,-2.11,2.11,1.87,4.27,4.27,4.27
358.28,2.12,-2.16,2.11,-2.16,2.16,1.93,4.28,4.27,4.27
361.87,2.08,-2.20,2.07,-2.20,2.20,2.00,4.28,4.27,4.28
365.49,2.04,-2.24,2.03,-2.25,2.25,2.06,4.28,4.28,4.28
369.14,2.00,-2.28,1.99,-2.29,2.29,2.13,4.29,4.28,4.28
372.83,1.95,-2.34,1.95,-2.34,2.34,2.19,4.28,4.29,4.28
376.56,1.90,-2.39,1.91,-2.38,2.38,2.26,4.28,4.29,4.29
380.33,1.86,-2.43,1.87,-2.42,2.42,2.33,4.28,4.29,4.29
384.13,1.82,-2.48,1.83,-2.47,2.47,2.40,4.28,4.30,4.30
387.97,1.79,-2.51,1.79,-2.51,2.51,2.48,4.30,4.30,4.30
391.85,1.76,-2.55,1.75,-2.56,2.56,2.55,4.31,4.30,4.30
395.77,1.72,-2.59,1.71,-2.60,2.60,2.62,4.32,4.31,4.31
399.73,1.69,-2.63,1.67,-2.64,2.64,2.70,4.33,4.31,4.32
403.72,1.65,-2.67,1.63,-2.69,2.69,2.77,4.33,4.32,4.32
407.76,1.60,-2.73,1.60,-2.73,2.73,2.85,4.32,4.32,4.33
411.84,1.54,-2.80,1.56,-2.77,2.77,2.92,4.31,4.33,4.33
415.96,1.50,-2.84,1.52,-2.81,2.81,3.00,4.31,4.34,4.34
420.12,1.47,-2.88,1.49,-2.85,2.85,3.08,4.32,4.34,4.34
424.32,1.44,-2.91,1.45,-2.89,2.89,3.15,4.33,4.34,4.35
428.56,1.43,-2.92,1.41,-2.93,2.93,3.23,4.36,4.34,4.35
432.85,1.41,-2.95,1.37,-2.97,2.97,3.30,4.38,4.34,4.35
437.18,1.36,-3.00,1.34,-3.01,3.01,3.37,4.36,4.34,4.35
441.55,1.32,-3.04,1.30,-3.04,3.04,3.44,4.36,4.35,4.35
445.96,1.28,-3.08,1.27,-3.08,3.08,3.51,4.36,4.35,4.36
450.42,1.23,-3.13,1.24,-3.11,3.11,3.58,4.34,4.35,4.36
454.93,1.19,-3.17,1.21,-3.15,3.15,3.64,4.34,4.36,4.36
459.48,1.15,-3.21,1.17,-3.18,3.18,3.70,4.33,4.36,4.36
464.07,1.13,-3.23,1.14,-3.22,3.22,3.76,4.35,4.36,4.36
468.71,1.11,-3.25,1.11,-3.25,3.25,3.81,4.36,4.36,4.36
473.40,1.08,-3.29,1.07,-3.29,3.29,3.86,4.37,4.36,4.36
478.13,1.06,-3.31,1.04,-3.32,3.32,3.90,4.38,4.36,4.37
482.91,1.03,-3.34,1.01,-3.36,3.36,3.94,4.39,4.37,4.37
487.74,0.99,-3.39,0.98,-3.40,3.40,3.98,4.38,4.38,4.38
492.62,0.96,-3.43,0.95,-3.43,3.43,4.01,4.39,4.38,4.38
497.55,0.92,-3.47,0.92,-3.47,3.47,4.03,4.39,4.39,4.39
502.52,0.89,-3.51,0.90,-3.51,3.51,4.06,4.39,4.40,4.40
507.55,0.86,-3.56,0.87,-3.54,3.54,4.07,4.40,4.41,4.41
512.62,0.84,-3.59,0.84,-3.58,3.58,4.08,4.42,4.42,4.42
517.75,0.81,-3.63,0.81,-3.61,3.61,4.09,4.42,4.42,4.43
522.93,0.78,-3.67,0.78,-3.65,3.65,4.09,4.43,4.43,4.44
528.16,0.75,-3.70,0.75,-3.69,3.69,4.08,4.43,4.44,4.45
533.44,0.74,-3.72,0.73,-3.72,3.72,4.08,4.46,4.45,4.46
538.77,0.71,-3.76,0.70,-3.76,3.76,4.07,4.47,4.47,4.47
544.16,0.68,-3.80,0.68,-3.80,3.80,4.05,4.48,4.48,4.48
549.60,0.66,-3.83,0.65,-3.84,3.84,4.03,4.50,4.49,4.49
555.10,0.63,-3.87,0.63,-3.88,3.88,4.01,4.51,4.51,4.50
560.65,0.60,-3.91,0.60,-3.92,3.92,3.99,4.52,4.52,4.51
566.25,0.58,-3.95,0.57,-3.96,3.96,3.97,4.54,4.53,4.52
571.92,0.55,-3.99,0.54,-4.00,4.00,3.94,4.55,4.54,4.54
577.64,0.52,-4.03,0.51,-4.04,4.04,3.91,4.56,4.55,4.55
583.41,0.50,-4.07,0.48,-4.08,4.08,3.88,4.58,4.56,4.57
589.25,0.46,-4.12,0.45,-4.12,4.12,3.86,4.58,4.57,4.58
595.14,0.43,-4.17,0.42,-4.16,4.16,3.83,4.59,4.58,4.59
601.09,0.39,-4.22,0.40,-4.19,4.19,3.80,4.58,4.59,4.61
607.10,0.36,-4.26,0.38,-4.23,4.23,3.77,4.58,4.60,4.62
613.17,0.35,-4.28,0.36,-4.25,4.25,3.74,4.60,4.61,4.62
619.30,0.33,-4.31,0.34,-4.27,4.27,3.72,4.60,4.62,4.63
625.50,0.31,-4.33,0.33,-4.29,4.29,3.69,4.60,4.62,4.64
631.75,0.30,-4.35,0.32,-4.31,4.31,3.67,4.60,4.63,4.64
638.07,0.31,-4.34,0.32,-4.32,4.32,3.65,4.62,4.63,4.64
644.45,0.32,-4.33,0.31,-4.32,4.32,3.63,4.64,4.63,4.64
650.89,0.33,-4.32,0.31,-4.32,4.32,3.61,4.65,4.64,4.64
657.40,0.33,-4.31,0.31,-4.33,4.33,3.60,4.65,4.64,4.64
663.98,0.33,-4.31,0.31,-4.32,4.32,3.58,4.65,4.64,4.64
670.62,0.33,-4.31,0.32,-4.32,4.32,3.57,4.65,4.64,4.64
677.32,0.33,-4.31,0.32,-4.32,4.32,3.57,4.65,4.64,4.63
684.10,0.33,-4.31,0.32,-4.32,4.32,3.56,4.65,4.64,4.63
690.94,0.33,-4.31,0.33,-4.32,4.32,3.56,4.64,4.64,4.63
697.85,0.33,-4.31,0.33,-4.31,4.31,3.56,4.64,4.64,4.63
704.83,0.33,-4.31,0.33,-4.31,4.31,3.56,4.64,4.64,4.64
711.87,0.33,-4.31,0.33,-4.31,4.31,3.57,4.64,4.64,4.64
718.99,0.33,-4.32,0.33,-4.31,4.31,3.58,4.64,4.64,4.64
726.18,0.33,-4.32,0.33,-4.31,4.31,3.59,4.64,4.64,4.64
