frequency,raw,error,smoothed,error_smoothed,equalization,parametric_eq,equalized_raw,equalized_smoothed,target
20.00,14.96,11.06,14.96,11.06,-11.06,-6.02,3.90,3.90,3.90
20.20,15.02,11.11,15.02,11.11,-11.11,-6.17,3.91,3.90,3.90
20.40,15.07,11.16,15.07,11.17,-11.17,-6.32,3.90,3.91,3.91
20.61,15.13,11.22,15.13,11.22,-11.22,-6.47,3.91,3.91,3.91
20.81,15.19,11.28,15.19,11.28,-11.28,-6.63,3.91,3.91,3.91
21.02,15.25,11.34,15.24,11.33,-11.33,-6.79,3.92,3.91,3.91
21.23,15.30,11.38,15.30,11.38,-11.38,-6.96,3.91,3.91,3.91
21.44,15.35,11.43,15.35,11.44,-11.44,-7.13,3.91,3.92,3.92
21.66,15.41,11.49,15.41,11.49,-11.49,-7.31,3.92,3.92,3.92
21.87,15.46,11.54,15.46,11.54,-11.54,-7.49,3.92,3.92,3.92
22.09,15.51,11.58,15.51,11.59,-11.59,-7.68,3.92,3.92,3.92
22.31,15.57,11.64,15.57,11.64,-11.64,-7.87,3.93,3.92,3.93
22.54,15.62,11.69,15.62,11.69,-11.69,-8.07,3.92,3.93,3.93
22.76,15.67,11.74,15.67,11.74,-11.74,-8.27,3.93,3.93,3.93
22.99,15.73,11.80,15.72,11.79,-11.79,-8.48,3.94,3.93,3.93
23.22,15.78,11.84,15.77,11.84,-11.84,-8.69,3.94,3.93,3.93
23.45,15.83,11.89,15.82,11.89,-11.89,-8.91,3.94,3.93,3.94
23.69,15.88,11.94,15.87,11.94,-11.94,-9.13,3.94,3.94,3.94
23.92,15.92,11.98,15.92,11.98,-11.98,-9.36,3.93,3.94,3.94
24.16,15.97,12.03,15.97,12.03,-12.03,-9.60,3.94,3.94,3.94
24.40,16.02,12.07,16.02,12.08,-12.08,-9.84,3.94,3.94,3.94
24.65,16.07,12.12,16.07,12.12,-12.12,-10.08,3.94,3.95,3.95
24.89,16.12,12.17,16.12,12.17,-12.17,-10.33,3.95,3.95,3.95
25.14,16.17,12.22,16.16,12.21,-12.21,-10.59,3.95,3.95,3.95
25.39,16.21,12.26,16.21,12.26,-12.26,-10.85,3.95,3.95,3.95
25.65,16.26,12.30,16.25,12.30,-12.30,-11.12,3.96,3.95,3.96
25.91,16.30,12.34,16.30,12.34,-12.34,-11.39,3.95,3.96,3.96
26.16,16.35,12.39,16.34,12.38,-12.38,-11.67,3.96,3.96,3.96
26.43,16.39,12.42,16.39,12.42,-12.42,-11.94,3.96,3.96,3.96
26.69,16.43,12.46,16.43,12.46,-12.46,-12.23,3.96,3.96,3.96
26.96,16.47,12.50,16.47,12.50,-12.50,-12.51,3.96,3.97,3.97
27.23,16.51,12.54,16.51,12.54,-12.54,-12.79,3.96,3.97,3.97
27.50,16.55,12.58,16.55,12.58,-12.58,-13.07,3.97,3.97,3.97
27.77,16.59,12.62,16.59,12.62,-12.62,-13.35,3.97,3.97,3.97
28.05,16.63,12.66,16.62,12.65,-12.65,-13.63,3.98,3.97,3.97
28.33,16.66,12.69,16.66,12.69,-12.69,-13.90,3.97,3.97,3.97
28.62,16.69,12.71,16.69,12.72,-12.72,-14.16,3.97,3.97,3.97
28.90,16.73,12.75,16.73,12.75,-12.75,-14.41,3.97,3.97,3.97
29.19,16.76,12.78,16.76,12.79,-12.79,-14.64,3.97,3.97,3.98
29.48,16.79,12.81,16.79,12.82,-12.82,-14.86,3.97,3.98,3.98
29.78,16.82,12.84,16.82,12.85,-12.85,-15.05,3.97,3.98,3.98
30.08,16.85,12.87,16.85,12.87,-12.87,-15.23,3.97,3.98,3.98
30.38,16.87,12.89,16.87,12.90,-12.90,-15.37,3.97,3.98,3.98
30.68,16.90,12.92,16.90,12.92,-12.92,-15.49,3.98,3.98,3.98
30.99,16.93,12.95,16.92,12.94,-12.94,-15.58,3.99,3.98,3.98
31.30,16.94,12.96,16.93,12.96,-12.96,-15.64,3.98,3.98,3.98
31.61,16.96,12.98,16.95,12.97,-12.97,-15.67,3.99,3.98,3.98
31.93,16.98,13.00,16.96,12.98,-12.98,-15.67,4.00,3.98,3.98
32.24,16.98,13.00,16.97,12.99,-12.99,-15.64,3.99,3.98,3.98
32.57,16.98,13.00,16.97,13.00,-13.00,-15.58,3.98,3.97,3.98
32.89,16.98,13.00,16.98,13.00,-13.00,-15.50,3.97,3.97,3.98
33.22,16.98,13.00,16.98,13.01,-13.01,-15.39,3.97,3.97,3.98
33.55,16.97,12.99,16.98,13.01,-13.01,-15.26,3.96,3.97,3.97
33.89,16.97,12.99,16.98,13.01,-13.01,-15.12,3.96,3.97,3.97
34.23,16.97,13.00,16.98,13.01,-13.01,-14.97,3.96,3.97,3.97
34.57,16.97,13.00,16.98,13.01,-13.01,-14.80,3.96,3.97,3.97
34.92,16.97,13.00,16.97,13.01,-13.01,-14.63,3.96,3.97,3.97
35.27,16.97,13.00,16.97,13.01,-13.01,-14.45,3.96,3.96,3.97
35.62,16.97,13.00,16.97,13.01,-13.01,-14.27,3.96,3.96,3.97
35.97,16.97,13.00,16.97,13.01,-13.01,-14.08,3.96,3.96,3.96
36.33,16.97,13.01,16.97,13.01,-13.01,-13.90,3.96,3.96,3.96
36.70,16.97,13.01,16.96,13.01,-13.01,-13.72,3.96,3.96,3.96
37.06,16.97,13.01,16.96,13.00,-13.00,-13.54,3.96,3.96,3.96
37.43,16.96,13.00,16.96,13.00,-13.00,-13.37,3.96,3.96,3.95
37.81,16.95,13.00,16.95,13.00,-13.00,-13.20,3.95,3.95,3.95
38.19,16.94,12.99,16.94,12.99,-12.99,-13.04,3.95,3.95,3.95
38.57,16.93,12.98,16.93,12.98,-12.98,-12.88,3.94,3.94,3.94
38.95,16.92,12.98,16.91,12.97,-12.97,-12.73,3.94,3.94,3.94
39.34,16.91,12.97,16.90,12.96,-12.96,-12.59,3.94,3.94,3.94
39.74,16.89,12.96,16.88,12.95,-12.95,-12.45,3.94,3.93,3.93
40.14,16.87,12.94,16.86,12.93,-12.93,-12.33,3.93,3.93,3.93
40.54,16.84,12.92,16.84,12.92,-12.92,-12.21,3.92,3.92,3.92
40.94,16.81,12.89,16.82,12.90,-12.90,-12.10,3.91,3.92,3.92
41.35,16.79,12.87,16.79,12.88,-12.88,-11.99,3.91,3.91,3.91
41.76,16.76,12.85,16.76,12.86,-12.86,-11.89,3.90,3.91,3.91
42.18,16.74,12.83,16.74,12.83,-12.83,-11.81,3.91,3.90,3.90
42.60,16.71,12.81,16.70,12.81,-12.81,-11.73,3.90,3.90,3.90
43.03,16.68,12.78,16.67,12.78,-12.78,-11.66,3.90,3.89,3.89
43.46,16.64,12.75,16.64,12.75,-12.75,-11.59,3.89,3.89,3.89
43.90,16.61,12.73,16.60,12.72,-12.72,-11.54,3.89,3.88,3.88
44.33,16.57,12.69,16.57,12.69,-12.69,-11.49,3.87,3.87,3.88
44.78,16.53,12.66,16.53,12.66,-12.66,-11.45,3.87,3.87,3.87
45.23,16.49,12.63,16.49,12.63,-12.63,-11.42,3.86,3.86,3.86
45.68,16.45,12.59,16.45,12.60,-12.60,-11.39,3.85,3.85,3.85
46.13,16.41,12.56,16.41,12.57,-12.57,-11.37,3.84,3.84,3.84
46.60,16.36,12.52,16.37,12.53,-12.53,-11.36,3.82,3.83,3.84
47.06,16.32,12.49,16.32,12.50,-12.50,-11.36,3.82,3.82,3.82
47.53,16.28,12.46,16.28,12.47,-12.47,-11.37,3.81,3.81,3.81
48.01,16.24,12.43,16.23,12.43,-12.43,-11.38,3.81,3.80,3.80
48.49,16.19,12.40,16.19,12.40,-12.40,-11.40,3.79,3.79,3.79
48.97,16.14,12.36,16.14,12.36,-12.36,-11.42,3.78,3.78,3.78
49.46,16.09,12.32,16.09,12.33,-12.33,-11.45,3.76,3.77,3.77
49.96,16.04,12.29,16.04,12.29,-12.29,-11.49,3.75,3.75,3.75
50.46,16.00,12.26,15.99,12.25,-12.25,-11.53,3.75,3.74,3.74
50.96,15.95,12.22,15.94,12.21,-12.21,-11.58,3.73,3.72,3.72
51.47,15.89,12.18,15.88,12.17,-12.17,-11.63,3.71,3.71,3.71
51.99,15.83,12.13,15.83,12.13,-12.13,-11.69,3.70,3.70,3.70
52.51,15.77,12.09,15.77,12.09,-12.09,-11.75,3.68,3.68,3.68
53.03,15.72,12.05,15.71,12.05,-12.05,-11.81,3.67,3.67,3.67
53.56,15.65,12.00,15.65,12.00,-12.00,-11.87,3.64,3.65,3.65
54.10,15.59,11.95,15.59,11.96,-11.96,-11.94,3.63,3.63,3.63
54.64,15.53,11.91,15.53,11.91,-11.91,-12.00,3.62,3.62,3.62
55.18,15.47,11.87,15.47,11.87,-11.87,-12.06,3.60,3.60,3.60
55.74,15.41,11.82,15.40,11.82,-11.82,-12.12,3.59,3.58,3.58
56.29,15.34,11.77,15.34,11.77,-11.77,-12.18,3.57,3.57,3.57
56.86,15.27,11.72,15.27,11.72,-11.72,-12.23,3.55,3.55,3.55
57.42,15.20,11.67,15.20,11.67,-11.67,-12.28,3.53,3.53,3.53
58.00,15.13,11.62,15.13,11.62,-11.62,-12.32,3.51,3.51,3.51
58.58,15.06,11.56,15.06,11.57,-11.57,-12.35,3.49,3.49,3.49
59.16,14.99,11.51,14.99,11.52,-11.52,-12.37,3.47,3.47,3.47
59.76,14.92,11.46,14.92,11.46,-11.46,-12.38,3.46,3.45,3.45
60.35,14.84,11.40,14.84,11.41,-11.41,-12.38,3.43,3.43,3.43
60.96,14.77,11.36,14.76,11.35,-11.35,-12.37,3.42,3.41,3.41
61.57,14.69,11.30,14.68,11.29,-11.29,-12.34,3.40,3.39,3.39
62.18,14.60,11.23,14.60,11.23,-11.23,-12.30,3.37,3.37,3.37
62.80,14.52,11.17,14.51,11.17,-11.17,-12.24,3.35,3.34,3.34
63.43,14.43,11.11,14.43,11.11,-11.11,-12.17,3.32,3.32,3.32
64.07,14.34,11.04,14.34,11.04,-11.04,-12.09,3.29,3.29,3.29
64.71,14.24,10.97,14.25,10.98,-10.98,-11.99,3.26,3.27,3.27
65.35,14.15,10.90,14.15,10.91,-10.91,-11.88,3.23,3.24,3.24
66.01,14.07,10.85,14.06,10.85,-10.85,-11.75,3.22,3.21,3.22
66.67,13.96,10.77,13.96,10.78,-10.78,-11.62,3.18,3.19,3.19
67.33,13.86,10.70,13.87,10.71,-10.71,-11.47,3.15,3.16,3.16
68.01,13.77,10.64,13.77,10.64,-10.64,-11.32,3.13,3.13,3.13
68.69,13.67,10.57,13.66,10.57,-10.57,-11.16,3.10,3.10,3.10
69.37,13.56,10.49,13.56,10.49,-10.49,-10.99,3.06,3.07,3.07
70.07,13.46,10.42,13.45,10.42,-10.42,-10.81,3.04,3.04,3.04
70.77,13.35,10.34,13.35,10.34,-10.34,-10.63,3.00,3.00,3.01
71.48,13.24,10.27,13.24,10.27,-10.27,-10.45,2.97,2.97,2.97
72.19,13.13,10.19,13.12,10.19,-10.19,-10.27,2.94,2.94,2.94
72.91,13.02,10.11,13.01,10.10,-10.10,-10.08,2.91,2.90,2.91
73.64,12.89,10.02,12.89,10.02,-10.02,-9.89,2.87,2.87,2.87
74.38,12.77,9.93,12.77,9.93,-9.93,-9.71,2.83,2.84,2.84
75.12,12.64,9.84,12.65,9.85,-9.85,-9.52,2.79,2.80,2.80
75.87,12.52,9.75,12.52,9.76,-9.76,-9.34,2.76,2.76,2.77
76.63,12.39,9.66,12.39,9.66,-9.66,-9.16,2.73,2.73,2.73
77.40,12.26,9.57,12.26,9.57,-9.57,-8.98,2.69,2.69,2.69
78.17,12.13,9.47,12.12,9.47,-9.47,-8.81,2.66,2.65,2.66
78.95,11.99,9.37,11.98,9.36,-9.36,-8.64,2.62,2.62,2.62
79.74,11.85,9.27,11.84,9.26,-9.26,-8.47,2.59,2.58,2.58
80.54,11.69,9.15,11.69,9.15,-9.15,-8.31,2.54,2.54,2.54
81.35,11.54,9.03,11.54,9.04,-9.04,-8.15,2.50,2.50,2.50
82.16,11.39,8.92,11.39,8.92,-8.92,-8.00,2.47,2.47,2.47
82.98,11.22,8.79,11.23,8.80,-8.80,-7.85,2.41,2.43,2.43
83.81,11.07,8.68,11.07,8.68,-8.68,-7.70,2.39,2.39,2.39
84.65,10.90,8.55,10.90,8.55,-8.55,-7.56,2.35,2.35,2.35
85.50,10.74,8.42,10.73,8.42,-8.42,-7.43,2.32,2.31,2.31
86.35,10.57,8.29,10.56,8.29,-8.29,-7.30,2.28,2.27,2.28
87.22,10.40,8.16,10.38,8.15,-8.15,-7.18,2.25,2.23,2.24
88.09,10.22,8.02,10.20,8.01,-8.01,-7.06,2.21,2.20,2.20
88.97,10.04,7.88,10.02,7.86,-7.86,-6.94,2.18,2.16,2.16
89.86,9.83,7.70,9.84,7.71,-7.71,-6.83,2.12,2.13,2.12
90.76,9.63,7.54,9.65,7.56,-7.56,-6.72,2.07,2.09,2.09
91.66,9.44,7.39,9.45,7.40,-7.40,-6.62,2.03,2.05,2.05
92.58,9.25,7.24,9.25,7.25,-7.25,-6.53,2.00,2.01,2.01
93.51,9.06,7.09,9.05,7.09,-7.09,-6.44,1.97,1.96,1.97
94.44,8.87,6.94,8.85,6.93,-6.93,-6.35,1.94,1.91,1.93
95.39,8.68,6.79,8.64,6.77,-6.77,-6.27,1.91,1.87,1.89
96.34,8.48,6.63,8.45,6.62,-6.62,-6.19,1.86,1.83,1.85
97.30,8.27,6.46,8.25,6.46,-6.46,-6.11,1.80,1.79,1.81
98.28,8.05,6.29,8.06,6.31,-6.31,-6.04,1.74,1.75,1.76
99.26,7.83,6.11,7.87,6.16,-6.16,-5.97,1.67,1.71,1.72
100.25,7.62,5.94,7.68,6.01,-6.01,-5.91,1.61,1.67,1.68
101.25,7.42,5.78,7.49,5.86,-5.86,-5.85,1.56,1.63,1.64
102.27,7.24,5.64,7.30,5.71,-5.71,-5.79,1.52,1.59,1.59
103.29,7.14,5.59,7.11,5.57,-5.57,-5.74,1.57,1.54,1.55
104.32,7.01,5.50,6.92,5.43,-5.43,-5.69,1.58,1.49,1.51
105.37,6.81,5.34,6.73,5.28,-5.28,-5.64,1.52,1.45,1.47
106.42,6.62,5.19,6.55,5.14,-5.14,-5.59,1.47,1.40,1.42
107.48,6.42,5.04,6.37,5.01,-5.01,-5.55,1.41,1.36,1.38
108.56,6.22,4.88,6.20,4.88,-4.88,-5.51,1.34,1.33,1.34
109.64,6.02,4.72,6.03,4.75,-4.75,-5.47,1.27,1.29,1.29
110.74,5.83,4.58,5.87,4.62,-4.62,-5.43,1.20,1.24,1.25
111.85,5.66,4.45,5.71,4.51,-4.51,-5.39,1.15,1.20,1.21
112.97,5.51,4.34,5.55,4.40,-4.40,-5.35,1.11,1.15,1.16
114.10,5.37,4.25,5.41,4.30,-4.30,-5.31,1.07,1.11,1.12
115.24,5.25,4.17,5.27,4.21,-4.21,-5.28,1.04,1.06,1.08
116.39,5.18,4.14,5.15,4.13,-4.13,-5.24,1.04,1.01,1.04
117.55,5.08,4.08,5.04,4.07,-4.07,-5.20,1.01,0.97,0.99
118.73,4.95,4.00,4.95,4.02,-4.02,-5.17,0.93,0.93,0.95
119.92,4.85,3.94,4.87,3.98,-3.98,-5.13,0.87,0.90,0.91
121.12,4.77,3.90,4.81,3.95,-3.95,-5.09,0.82,0.86,0.87
122.33,4.74,3.91,4.76,3.93,-3.93,-5.05,0.80,0.82,0.83
123.55,4.70,3.91,4.71,3.93,-3.93,-5.02,0.77,0.79,0.79
124.79,4.67,3.92,4.68,3.93,-3.93,-4.97,0.74,0.75,0.75
126.03,4.64,3.93,4.65,3.94,-3.94,-4.93,0.70,0.71,0.71
127.29,4.63,3.95,4.63,3.96,-3.96,-4.89,0.67,0.67,0.67
128.57,4.64,4.00,4.61,3.98,-3.98,-4.85,0.66,0.63,0.64
129.85,4.63,4.02,4.60,4.01,-4.01,-4.80,0.62,0.60,0.60
131.15,4.63,4.06,4.60,4.04,-4.04,-4.76,0.59,0.57,0.57
132.46,4.63,4.09,4.61,4.07,-4.07,-4.71,0.56,0.53,0.54
133.79,4.63,4.12,4.61,4.11,-4.11,-4.66,0.52,0.50,0.51
135.12,4.63,4.15,4.62,4.15,-4.15,-4.62,0.48,0.47,0.47
136.48,4.63,4.18,4.63,4.19,-4.19,-4.57,0.44,0.44,0.44
137.84,4.64,4.22,4.65,4.24,-4.24,-4.52,0.40,0.41,0.41
139.22,4.65,4.26,4.66,4.28,-4.28,-4.47,0.36,0.38,0.39
140.61,4.67,4.31,4.69,4.33,-4.33,-4.42,0.33,0.35,0.36
142.02,4.70,4.37,4.71,4.38,-4.38,-4.38,0.31,0.32,0.33
143.44,4.72,4.41,4.73,4.44,-4.44,-4.33,0.28,0.30,0.30
144.87,4.76,4.48,4.76,4.49,-4.49,-4.28,0.27,0.27,0.28
146.32,4.79,4.54,4.79,4.54,-4.54,-4.24,0.24,0.25,0.25
147.78,4.83,4.60,4.82,4.60,-4.60,-4.19,0.23,0.22,0.23
149.26,4.86,4.66,4.85,4.65,-4.65,-4.15,0.21,0.20,0.20
150.75,4.89,4.71,4.88,4.71,-4.71,-4.10,0.18,0.17,0.18
152.26,4.92,4.76,4.91,4.76,-4.76,-4.06,0.16,0.15,0.15
153.78,4.95,4.82,4.93,4.81,-4.81,-4.02,0.14,0.12,0.13
155.32,4.97,4.86,4.95,4.85,-4.85,-3.99,0.11,0.10,0.10
156.88,4.99,4.91,4.97,4.90,-4.90,-3.95,0.09,0.07,0.08
158.44,5.00,4.95,4.99,4.94,-4.94,-3.92,0.06,0.05,0.05
160.03,5.00,4.97,5.00,4.98,-4.98,-3.89,0.02,0.02,0.03
161.63,4.99,4.98,5.01,5.01,-5.01,-3.86,-0.02,-0.00,0.00
163.24,5.00,5.02,5.01,5.04,-5.04,-3.83,-0.04,-0.03,-0.02
164.88,5.00,5.04,5.01,5.07,-5.07,-3.81,-0.07,-0.05,-0.05
166.53,5.00,5.07,5.01,5.09,-5.09,-3.79,-0.09,-0.07,-0.07
168.19,5.00,5.09,5.00,5.10,-5.10,-3.77,-0.10,-0.10,-0.09
169.87,5.00,5.11,4.99,5.11,-5.11,-3.75,-0.11,-0.12,-0.12
171.57,4.98,5.12,4.97,5.11,-5.11,-3.74,-0.13,-0.14,-0.14
173.29,4.96,5.12,4.94,5.10,-5.10,-3.73,-0.14,-0.16,-0.16
175.02,4.91,5.09,4.91,5.09,-5.09,-3.72,-0.18,-0.18,-0.18
176.77,4.88,5.07,4.87,5.06,-5.06,-3.71,-0.19,-0.19,-0.20
178.54,4.84,5.05,4.82,5.03,-5.03,-3.71,-0.20,-0.21,-0.21
180.32,4.79,5.02,4.77,5.00,-5.00,-3.71,-0.21,-0.23,-0.23
182.13,4.74,4.98,4.71,4.95,-4.95,-3.71,-0.21,-0.24,-0.24
183.95,4.63,4.88,4.64,4.89,-4.89,-3.71,-0.27,-0.26,-0.26
185.79,4.56,4.83,4.56,4.83,-4.83,-3.72,-0.27,-0.27,-0.27
187.65,4.48,4.76,4.48,4.76,-4.76,-3.73,-0.28,-0.28,-0.28
189.52,4.39,4.68,4.39,4.69,-4.69,-3.74,-0.30,-0.29,-0.29
191.42,4.30,4.60,4.30,4.60,-4.60,-3.75,-0.31,-0.30,-0.30
193.33,4.20,4.51,4.20,4.51,-4.51,-3.77,-0.32,-0.31,-0.31
195.27,4.10,4.42,4.10,4.42,-4.42,-3.79,-0.32,-0.32,-0.32
197.22,3.99,4.32,3.99,4.32,-4.32,-3.81,-0.34,-0.33,-0.33
199.19,3.89,4.23,3.88,4.22,-4.22,-3.83,-0.34,-0.34,-0.34
201.18,3.78,4.12,3.77,4.12,-4.12,-3.85,-0.34,-0.35,-0.35
203.19,3.67,4.02,3.65,4.01,-4.01,-3.88,-0.35,-0.36,-0.36
205.23,3.56,3.92,3.54,3.91,-3.91,-3.90,-0.35,-0.37,-0.37
207.28,3.45,3.82,3.42,3.80,-3.80,-3.93,-0.35,-0.38,-0.38
209.35,3.32,3.70,3.30,3.69,-3.69,-3.96,-0.38,-0.39,-0.38
211.44,3.19,3.58,3.19,3.59,-3.59,-3.99,-0.40,-0.40,-0.39
213.56,3.07,3.47,3.08,3.49,-3.49,-4.02,-0.42,-0.41,-0.40
215.69,2.95,3.36,2.97,3.39,-3.39,-4.05,-0.44,-0.42,-0.41
217.85,2.84,3.26,2.87,3.30,-3.30,-4.08,-0.46,-0.43,-0.42
220.03,2.76,3.19,2.77,3.21,-3.21,-4.10,-0.46,-0.44,-0.43
222.23,2.68,3.12,2.68,3.14,-3.14,-4.13,-0.46,-0.45,-0.44
224.45,2.59,3.04,2.60,3.07,-3.07,-4.16,-0.48,-0.46,-0.45
226.70,2.52,2.98,2.54,3.00,-3.00,-4.18,-0.49,-0.47,-0.46
228.96,2.47,2.94,2.48,2.95,-2.95,-4.21,-0.48,-0.47,-0.47
231.25,2.43,2.90,2.43,2.91,-2.91,-4.23,-0.48,-0.48,-0.47
233.57,2.40,2.88,2.39,2.88,-2.88,-4.25,-0.48,-0.48,-0.48
235.90,2.36,2.84,2.37,2.85,-2.85,-4.27,-0.49,-0.49,-0.49
238.26,2.34,2.83,2.35,2.83,-2.83,-4.28,-0.50,-0.49,-0.49
240.64,2.33,2.82,2.33,2.83,-2.83,-4.29,-0.50,-0.49,-0.49
243.05,2.34,2.84,2.33,2.83,-2.83,-4.30,-0.49,-0.50,-0.50
245.48,2.35,2.85,2.34,2.84,-2.84,-4.31,-0.49,-0.51,-0.50
247.93,2.37,2.87,2.35,2.86,-2.86,-4.31,-0.49,-0.51,-0.50
250.41,2.39,2.90,2.37,2.89,-2.89,-4.30,-0.50,-0.52,-0.51
252.92,2.41,2.92,2.40,2.92,-2.92,-4.30,-0.52,-0.52,-0.51
255.45,2.43,2.95,2.44,2.97,-2.97,-4.29,-0.54,-0.53,-0.52
258.00,2.47,2.99,2.49,3.02,-3.02,-4.28,-0.55,-0.53,-0.52
260.58,2.53,3.06,2.54,3.08,-3.08,-4.26,-0.55,-0.54,-0.53
263.19,2.58,3.11,2.60,3.15,-3.15,-4.25,-0.57,-0.55,-0.54
265.82,2.66,3.20,2.67,3.23,-3.23,-4.22,-0.57,-0.55,-0.54
268.48,2.74,3.29,2.75,3.31,-3.31,-4.20,-0.57,-0.56,-0.55
271.16,2.81,3.36,2.83,3.40,-3.40,-4.17,-0.59,-0.56,-0.56
273.87,2.93,3.49,2.92,3.49,-3.49,-4.15,-0.56,-0.57,-0.56
276.61,3.02,3.59,3.01,3.58,-3.58,-4.12,-0.56,-0.57,-0.57
279.38,3.11,3.68,3.10,3.68,-3.68,-4.08,-0.57,-0.58,-0.57
282.17,3.20,3.78,3.20,3.78,-3.78,-4.05,-0.58,-0.58,-0.58
284.99,3.29,3.87,3.29,3.87,-3.87,-4.02,-0.58,-0.58,-0.58
287.84,3.41,3.99,3.39,3.97,-3.97,-3.98,-0.56,-0.58,-0.58
290.72,3.50,4.08,3.48,4.06,-4.06,-3.95,-0.56,-0.58,-0.59
293.63,3.58,4.17,3.56,4.15,-4.15,-3.91,-0.57,-0.58,-0.59
296.57,3.66,4.25,3.64,4.23,-4.23,-3.88,-0.57,-0.59,-0.59
299.53,3.73,4.32,3.72,4.31,-4.31,-3.85,-0.58,-0.59,-0.59
302.53,3.80,4.39,3.80,4.38,-4.38,-3.81,-0.59,-0.59,-0.59
305.55,3.86,4.45,3.86,4.45,-4.45,-3.78,-0.59,-0.59,-0.59
308.61,3.93,4.51,3.93,4.51,-4.51,-3.75,-0.59,-0.59,-0.59
311.69,3.99,4.57,3.99,4.57,-4.57,-3.72,-0.58,-0.59,-0.58
314.81,4.04,4.62,4.04,4.62,-4.62,-3.70,-0.59,-0.58,-0.58
317.96,4.09,4.67,4.09,4.67,-4.67,-3.67,-0.58,-0.58,-0.58
321.14,4.14,4.72,4.14,4.71,-4.71,-3.65,-0.58,-0.58,-0.58
324.35,4.18,4.75,4.18,4.75,-4.75,-3.63,-0.57,-0.58,-0.58
327.59,4.22,4.79,4.21,4.79,-4.79,-3.61,-0.57,-0.57,-0.57
330.87,4.25,4.82,4.24,4.81,-4.81,-3.59,-0.57,-0.57,-0.57
334.18,4.27,4.84,4.27,4.84,-4.84,-3.57,-0.57,-0.57,-0.57
337.52,4.30,4.86,4.29,4.86,-4.86,-3.56,-0.56,-0.57,-0.57
340.90,4.31,4.87,4.31,4.87,-4.87,-3.55,-0.57,-0.57,-0.56
344.30,4.34,4.90,4.32,4.89,-4.89,-3.55,-0.55,-0.57,-0.56
347.75,4.35,4.91,4.33,4.89,-4.89,-3.54,-0.55,-0.56,-0.56
351.23,4.35,4.90,4.34,4.90,-4.90,-3.54,-0.55,-0.56,-0.56
354.74,4.34,4.89,4.34,4.91,-4.91,-3.54,-0.57,-0.56,-0.55
358.28,4.34,4.89,4.35,4.91,-4.91,-3.55,-0.57,-0.56,-0.55
361.87,4.33,4.88,4.35,4.91,-4.91,-3.55,-0.58,-0.56,-0.55
365.49,4.33,4.87,4.35,4.91,-4.91,-3.56,-0.58,-0.56,-0.55
369.14,4.33,4.87,4.35,4.90,-4.90,-3.57,-0.58,-0.55,-0.54
372.83,4.34,4.88,4.35,4.90,-4.90,-3.59,-0.56,-0.55,-0.54
376.56,4.34,4.88,4.35,4.89,-4.89,-3.61,-0.55,-0.54,-0.54
380.33,4.35,4.88,4.34,4.88,-4.88,-3.63,-0.53,-0.54,-0.53
384.13,4.35,4.88,4.34,4.87,-4.87,-3.65,-0.52,-0.53,-0.53
387.97,4.34,4.86,4.33,4.85,-4.85,-3.67,-0.52,-0.53,-0.53
391.85,4.33,4.85,4.32,4.84,-4.84,-3.70,-0.51,-0.52,-0.52
395.77,4.31,4.82,4.30,4.81,-4.81,-3.72,-0.51,-0.51,-0.52
399.73,4.29,4.80,4.28,4.79,-4.79,-3.75,-0.50,-0.51,-0.51
403.72,4.27,4.77,4.26,4.76,-4.76,-3.78,-0.49,-0.50,-0.50
407.76,4.24,4.74,4.23,4.72,-4.72,-3.82,-0.49,-0.50,-0.50
411.84,4.21,4.70,4.19,4.69,-4.69,-3.85,-0.48,-0.49,-0.49
415.96,4.16,4.65,4.15,4.64,-4.64,-3.88,-0.49,-0.49,-0.49
420.12,4.11,4.59,4.11,4.60,-4.60,-3.92,-0.49,-0.49,-0.48
424.32,4.06,4.54,4.07,4.55,-4.55,-3.95,-0.50,-0.49,-0.48
428.56,4.01,4.48,4.02,4.51,-4.51,-3.99,-0.50,-0.48,-0.48
432.85,3.97,4.44,3.98,4.46,-4.46,-4.02,-0.49,-0.48,-0.47
437.18,3.93,4.40,3.93,4.41,-4.41,-4.05,-0.48,-0.48,-0.47
441.55,3.88,4.35,3.88,4.35,-4.35,-4.08,-0.48,-0.48,-0.47
445.96,3.82,4.29,3.83,4.30,-4.30,-4.11,-0.49,-0.48,-0.47
450.42,3.77,4.24,3.78,4.25,-4.25,-4.14,-0.48,-0.47,-0.47
454.93,3.73,4.20,3.73,4.20,-4.20,-4.16,-0.47,-0.47,-0.47
459.48,3.69,4.16,3.68,4.15,-4.15,-4.19,-0.46,-0.47,-0.47
464.07,3.64,4.10,3.63,4.09,-4.09,-4.20,-0.46,-0.47,-0.47
468.71,3.59,4.05,3.58,4.04,-4.04,-4.22,-0.45,-0.46,-0.46
473.40,3.53,3.99,3.53,3.99,-3.99,-4.23,-0.46,-0.46,-0.46
478.13,3.47,3.93,3.48,3.93,-3.93,-4.24,-0.47,-0.46,-0.46
482.91,3.41,3.86,3.43,3.88,-3.88,-4.24,-0.47,-0.45,-0.45
487.74,3.37,3.82,3.38,3.82,-3.82,-4.24,-0.46,-0.45,-0.45
492.62,3.33,3.77,3.33,3.77,-3.77,-4.23,-0.44,-0.44,-0.44
497.55,3.29,3.72,3.28,3.71,-3.71,-4.21,-0.43,-0.43,-0.43
502.52,3.24,3.66,3.23,3.66,-3.66,-4.20,-0.42,-0.42,-0.42
507.55,3.18,3.59,3.18,3.60,-3.60,-4.17,-0.42,-0.42,-0.41
512.62,3.13,3.53,3.13,3.54,-3.54,-4.14,-0.42,-0.41,-0.40
517.75,3.08,3.47,3.09,3.49,-3.49,-4.11,-0.41,-0.40,-0.39
522.93,3.05,3.43,3.04,3.43,-3.43,-4.07,-0.38,-0.39,-0.38
528.16,3.01,3.38,2.99,3.37,-3.37,-4.03,-0.36,-0.38,-0.37
533.44,2.96,3.32,2.95,3.31,-3.31,-3.98,-0.35,-0.37,-0.37
538.77,2.90,3.26,2.90,3.25,-3.25,-3.92,-0.35,-0.36,-0.36
544.16,2.84,3.19,2.84,3.19,-3.19,-3.87,-0.35,-0.35,-0.35
549.60,2.79,3.13,2.79,3.13,-3.13,-3.81,-0.34,-0.34,-0.34
555.10,2.74,3.07,2.74,3.07,-3.07,-3.74,-0.33,-0.32,-0.33
560.65,2.70,3.01,2.70,3.01,-3.01,-3.68,-0.31,-0.31,-0.32
566.25,2.66,2.96,2.65,2.94,-2.94,-3.61,-0.29,-0.30,-0.30
571.92,2.60,2.89,2.60,2.88,-2.88,-3.54,-0.28,-0.29,-0.29
577.64,2.54,2.81,2.54,2.82,-2.82,-3.46,-0.28,-0.27,-0.27
583.41,2.49,2.75,2.49,2.75,-2.75,-3.39,-0.27,-0.26,-0.26
589.25,2.43,2.67,2.44,2.69,-2.69,-3.31,-0.26,-0.25,-0.25
595.14,2.39,2.62,2.39,2.63,-2.63,-3.24,-0.24,-0.24,-0.23
601.09,2.35,2.57,2.35,2.57,-2.57,-3.16,-0.22,-0.22,-0.22
607.10,2.31,2.52,2.30,2.51,-2.51,-3.08,-0.20,-0.21,-0.21
613.17,2.26,2.46,2.24,2.45,-2.45,-3.01,-0.19,-0.21,-0.20
619.30,2.20,2.39,2.19,2.39,-2.39,-2.93,-0.20,-0.20,-0.19
625.50,2.14,2.32,2.14,2.34,-2.34,-2.85,-0.20,-0.20,-0.19
631.75,2.09,2.27,2.09,2.28,-2.28,-2.78,-0.20,-0.19,-0.18
