frequency,raw,error,smoothed,error_smoothed,equalization,equalized_raw,equalized_smoothed,target
20,-25.071225071225083,-25.08770423361927,-25.152339787363783,-25.16880457388828,5.999999999999999,-19.071225071225083,-19.152339787363783,0.016479162394188673
21,-24.61538461538462,-24.63303070185392,-24.503242377272997,-24.520890094889246,6.0,-18.61538461538462,-18.503242377272997,0.017646086469297995
22,-23.914128975573433,-23.932891546566005,-23.85519299527782,-23.873966623278264,6.0,-17.914128975573433,-17.85519299527782,0.01876257099257117
23,-23.068147636911604,-23.087974846646745,-23.208191641378257,-23.22803415905533,5.999999999999999,-17.068147636911604,-17.208191641378257,0.01982720973514196
24,-22.64896422952552,-22.66980257307331,-22.562238315574277,-22.583092702220412,5.999999999999998,-16.648964229525525,-16.562238315574277,0.020838343547786575
25,-21.916097062582935,-21.93789109149765,-21.91498494049558,-21.936796240547423,6.000000000000001,-15.916097062582935,-15.914984940495579,0.02179402891471538
26,-21.33934799772198,-21.362040001931955,-21.268210491807412,-21.290921862700614,6.0,-15.33934799772198,-15.268210491807412,0.022692004209976968
27,-20.512820512820518,-20.53635466036752,-20.624703896422417,-20.64825630323368,6.0,-14.512820512820518,-14.624703896422417,0.023534147547003226
28,-20.05698005698006,-20.081293531947992,-19.989890351237868,-20.014220922075957,6.0,-14.05698005698006,-13.989890351237868,0.02431347496793279
29,-19.601139601139604,-19.626164320484378,-19.37190415630251,-19.396944366338644,6.000000000000001,-13.601139601139604,-13.37190415630251,0.02502471934477457
30,-18.71143907269466,-18.737100326165624,-18.780170739793725,-18.805845283794092,6.0,-12.71143907269466,-12.780170739793725,0.025661253470963263
31,-18.163236178432456,-18.18945123799263,-18.223877987811022,-18.250103416713298,5.999999999999999,-12.163236178432456,-12.223877987811022,0.026215059560172893
32,-17.54985754985755,-17.576534358799684,-17.7096951631324,-17.73637887332568,5.999999999999999,-11.549857549857549,-11.709695163132402,0.0266768089421352
33,-17.11382617073464,-17.140862236108276,-17.239838985310904,-17.26687846413766,6.0,-11.11382617073464,-11.239838985310904,0.027036065373637452
34,-16.63817663817664,-16.66545902416884,-16.811152596821724,-16.8384348714412,5.999999999999998,-10.63817663817664,-10.811152596821726,0.027282385992203118
35,-16.410256410256416,-16.437661202551052,-16.41553786617903,-16.442939267381107,6.000000000000001,-10.410256410256416,-10.41553786617903,0.02740479229463677
36,-16.190541766567076,-16.21793409388097,-16.041737545884814,-16.069123725651657,5.999999999999998,-10.190541766567078,-10.041737545884816,0.02739232731389496
37,-15.925031401629576,-15.952265753235377,-15.677923445183012,-15.705149643960226,6.0,-9.925031401629576,-9.677923445183012,0.02723435160580001
38,-15.270655270655276,-15.29757604847028,-15.314280714945046,-15.341192248447271,6.000000000000001,-9.270655270655276,-9.314280714945046,0.026920777815003127
39,-15.042735042735046,-15.069177260864208,-14.944811144671782,-14.97124404498904,6.0,-9.042735042735046,-8.944811144671782,0.026442218129161255
40,-14.556247287830434,-14.582037317424636,-14.567906597367992,-14.59368834457633,5.999999999999999,-8.556247287830434,-8.567906597367994,0.0257900295942024
41,-14.134068857424142,-14.159025245431355,-14.18571509611982,-14.210665357511772,5.999999999999999,-8.134068857424143,-8.185715096119822,0.024956388007214336
42,-13.727556989786748,-13.75149117535061,-13.802738347776037,-13.826669636799732,6.000000000000003,-7.727556989786746,-7.802738347776034,0.023934185563861288
43,-13.447293447293443,-13.470010304814657,-13.424285341713087,-13.447003509326418,6.0,-7.447293447293443,-7.424285341713087,0.02271685752121444
44,-12.991452991452995,-13.012751116505006,-13.055309609066093,-13.076614082114236,6.0,-6.991452991452995,-7.055309609066093,0.02129812505201123
45,-12.763532763532764,-12.783204425242925,-12.699859313734985,-12.719543003745258,5.999999999999998,-6.763532763532766,-6.699859313734986,0.019671661710161104
46,-12.472084269111875,-12.489914960938425,-12.36102817487905,-12.378876992193849,6.0,-6.472084269111875,-6.361028174879049,0.017830691826550282
47,-11.90587625411652,-11.921643783732714,-12.04108369612463,-12.056875619018562,6.0,-5.905876254116521,-6.04108369612463,0.015767529616192544
48,-11.807429753782603,-11.820902845168842,-11.741454457153434,-11.75495812323367,6.0,-5.807429753782603,-5.741454457153434,0.013473091386238423
49,-11.492492440926656,-11.503428833105296,-11.462447750163303,-11.473420556511147,5.999999999999999,-5.4924924409266564,-5.462447750163304,0.010936392178639842
50,-10.96060247287993,-10.968746521784842,-11.20282013537783,-11.211005854037259,5.999999999999999,-4.960602472879931,-5.202820135377832,0.008144048904911827
51,-10.940170940170942,-10.945250751044647,-10.959494075936105,-10.964620011398846,5.999999999999999,-4.940170940170943,-4.959494075936106,0.005079810873704016
52,-10.839693863859404,-10.841418001575887,-10.727710918659026,-10.729484652934811,5.999999999999999,-4.839693863859405,-4.727710918659027,0.001724137716482943
53,-10.484330484330485,-10.48238432669607,-10.501736082411124,-10.499841870284534,6.000000000000002,-4.484330484330483,-4.5017360824111226,-0.0019461576344146359
54,-10.256410256410255,-10.250452069152654,-10.275978119123103,-10.270073010486374,6.0,-4.2564102564102555,-4.275978119123103,-0.005958187257600667
55,-10.256410256410254,-10.24606708048573,-10.046180261742117,-10.03589003888099,6.0,-4.256410256410254,-4.046180261742117,-0.010343175924523607
56,-9.800285432842738,-9.78514888194425,-9.810290125169773,-9.795205150165415,6.000000000000002,-3.8002854328427365,-3.8102901251697716,-0.015136550898488199
57,-9.572649572649574,-9.552271642045122,-9.568730554379567,-9.548401625163098,5.999999999999998,-3.572649572649576,-3.5687305543795684,-0.020377930604452477
58,-9.332253623457213,-9.306142610477119,-9.324022191418047,-9.297956504484638,6.0,-3.3322536234572127,-3.324022191418047,-0.026111012980093662
59,-8.888888888888893,-8.856505520798251,-9.079942107144458,-9.047599420706103,6.0,-2.888888888888893,-3.0799421071444577,-0.03238336809064091
60,-8.888888888888895,-8.849642745937935,-8.840543253203641,-8.801332337022567,6.000000000000002,-2.888888888888893,-2.8405432532036397,-0.03924614295095896
61,-8.660968660968665,-8.614214971506566,-8.609358833680279,-8.562634281523351,6.000000000000001,-2.6609686609686642,-2.609358833680278,-0.04675368946209879
62,-8.433048433048434,-8.378085304606119,-8.388993849867358,-8.334053318118624,6.0,-2.433048433048434,-2.388993849867358,-0.05496312844231532
63,-8.205128205128204,-8.14119434102798,-8.181130673190255,-8.117212595389429,6.0,-2.2051282051282044,-2.181130673190255,-0.06393386410022384
64,-7.88015819683859,-7.806431132979215,-7.9868232589755905,-7.9131050717171245,6.000000000000001,-1.8801581968385888,-1.9868232589755896,-0.073727063859375
65,-7.749287749287752,-7.664882631063254,-7.806876727829859,-7.722473629112795,5.999999999999999,-1.7492877492877525,-1.8068767278298603,-0.08440511822449803
66,-7.7492877492877525,-7.65325665485262,-7.642117709272683,-7.5460819572146445,6.000000000000003,-1.7492877492877499,-1.6421177092726804,-0.09603109443513258
67,-7.521367521367525,-7.412699325285989,-7.493434904974372,-7.384755653132377,5.999999999999998,-1.5213675213675266,-1.4934349049743734,-0.10866819608153566
68,-7.293447293447293,-7.171068054626899,-7.361570262234739,-7.239173917223845,6.000000000000002,-1.293447293447291,-1.3615702622347374,-0.12237923882039459
69,-7.267223059714685,-7.129996909755509,-7.246733924284877,-7.109485002674048,6.0,-1.2672230597146852,-1.246733924284877,-0.1372261499591758
70,-7.065527065527073,-6.912257568377907,-7.148179087212565,-6.994881543898222,6.0,-1.065527065527073,-1.148179087212565,-0.1532694971491657
71,-7.065527065527073,-6.894959016624864,-7.063895604949366,-6.893294605255489,6.000000000000001,-1.065527065527072,-1.0638956049493649,-0.17056804890220878
72,-7.058409000225863,-6.869230632948088,-6.9905605524929175,-6.801344662233138,6.0,-1.058409000225863,-0.9905605524929175,-0.18917836727777537
73,-6.837606837606842,-6.628452406601141,-6.923821350063573,-6.71462511511681,5.999999999999999,-0.8376068376068426,-0.9238213500635739,-0.20915443100569986
74,-6.837606837606843,-6.607059551990087,-6.858892583036734,-6.6282994638404436,6.0,-0.8376068376068426,-0.8588925830367344,-0.2305472856167552
75,-6.837606837606842,-6.584202121687116,-6.791344294587272,-6.5378899122187715,6.0,-0.8376068376068417,-0.7913442945872724,-0.2534047159197259
76,-6.837606837606842,-6.5598359021820976,-6.7178798685161665,-6.440055518688715,5.999999999999999,-0.8376068376068426,-0.7178798685161674,-0.2777709354247446
77,-6.658309767214256,-6.354623480144318,-6.636878482973063,-6.333134909552319,6.0,-0.6583097672142557,-0.6368784829730627,-0.3036862870699375
78,-6.546513566143142,-6.2153266163098095,-6.548529560031572,-6.217281066602936,5.9802551393805,-0.5662584267626425,-0.5682744206510719,-0.33118694983333263
79,-6.381766381766382,-6.0214617353158735,-6.4545060112867585,-6.094135083679842,5.938195399510894,-0.44357098225548786,-0.5163106117758645,-0.3603046464505084
80,-6.381766381766381,-5.990700033327711,-6.357272192766419,-5.96613479049665,5.874667683745296,-0.5070986980210854,-0.4826045090211233,-0.3910663484386703
81,-6.236659803613147,-5.813165827747272,-6.2592462735646945,-5.8356777018167705,5.791657023545173,-0.44500278006797434,-0.4675892500195218,-0.4234939758658749
82,-6.153846153846153,-5.696242063133182,-6.16208558746705,-5.704406399563248,5.690827283948704,-0.4630188698974491,-0.4712583035183462,-0.4576040907129708
83,-6.050330424543819,-5.556922840372927,-6.066316501184593,-5.57283741829899,5.57283741829899,-0.4774930062448295,-0.49347908288560305,-0.49340758417089203
84,-5.92592592592593,-5.395016566204744,-5.971403770703099,-5.44042861004966,5.44042861004966,-0.48549731587626965,-0.5309751606534387,-0.530909359721186
85,-5.92592592592593,-5.355817910626984,-5.8761962606694365,-5.30602288262866,5.306022882628662,-0.6199030432972679,-0.5701733780407743,-0.5701080152989464
86,-5.7992831594503755,-5.1882876302657515,-5.779557805751065,-5.168479276432052,5.16847927643205,-0.6308038830183254,-0.6110785293190144,-0.6109955291846236
87,-5.6980056980057014,-5.0444487425269,-5.680941439316312,-5.0272521939230375,5.02725219392304,-0.6707535040826613,-0.6536892453932719,-0.6535569554788019
88,-5.64986344289102,-4.95209330683231,-5.58070682826185,-4.882719855698237,4.882719855698237,-0.7671435871927823,-0.697986972563613,-0.6977701360587099
89,-5.470085470085472,-4.726480033301573,-5.48009053869399,-4.736169406581016,4.736169406581016,-0.7339160635044557,-0.7439211321129742,-0.7436054367838993
90,-5.286126008637186,-4.495100492232976,-5.380867727932019,-4.589470508031877,4.5894705080318765,-0.6966555006053099,-0.7913972199001424,-0.7910255164042104
91,-5.242165242165242,-4.402180105043984,-5.284842330373894,-4.444564249969852,4.444564249969851,-0.7976009921953908,-0.8402780804040431,-0.8399851371212583
92,-5.2421652421652425,-4.351734216105686,-5.193339210578028,-4.302931212119498,4.302931212119498,-0.9392340300457445,-0.8904079984585298,-0.8904310260595567
93,-5.106607452666773,-4.164305655661827,-5.106844554969041,-4.165182016031922,4.165182016031923,-0.9414254366348498,-0.941662538937118,-0.9423017970049461
94,-5.014245014245021,-4.018717072594345,-5.024875345684887,-4.030860370679647,4.030860370679647,-0.9833846435653744,-0.99401497500524,-0.9955279416506757
95,-5.002263839987368,-3.952231940754233,-4.946089025089181,-3.8984920280824493,3.8984920280824493,-1.1037718119049185,-1.0475969970067318,-1.0500318992331348
96,-4.786324786324791,-3.680596573511346,-4.868595188788773,-3.765871443039437,3.7658714430394356,-1.020453343285355,-1.1027237457493375,-1.1057282128134447
97,-4.786324786324791,-3.6238010067862314,-4.790406673730136,-3.6305497055255707,3.6305497055255707,-1.15577508079922,-1.159856968204565,-1.1625237795385592
98,-4.786324786324791,-3.566006585355786,-4.709955817875706,-3.4904585613252834,3.4904585613252834,-1.2958662249995072,-1.2194972565504223,-1.2203182009690048
99,-4.600194018358087,-3.321189780389023,-4.626589251502132,-3.3445662779555194,3.344566277955519,-1.2556277404025677,-1.282022973546613,-1.2790042379690636
100,-4.558404558404561,-3.2199361856950732,-4.540937192813325,-3.193417432264603,3.1934174322646034,-1.3649871261399578,-1.3475197605487215,-1.338468372709488
101,-4.529463762247548,-3.130872284207899,-4.455044101369852,-3.03938548480905,3.0393854848090505,-1.490078277438498,-1.4156586165608016,-1.3985914780396493
102,-4.330484330484332,-2.8712347386111796,-4.372169238504085,-2.8864951980164246,2.8864951980164246,-1.443989132467907,-1.4856740404876607,-1.459249591873152
104,-4.330484330484332,-2.748204913972943,-4.296232690276408,-2.739766473523863,2.7397664735238627,-1.590717856960469,-1.5564662167525456,-1.5822794165113887
105,-4.190662599378233,-2.5469609355300924,-4.23098701772321,-2.6041759618619444,2.604175961861944,-1.586486637516289,-1.6268110558612663,-1.6437016638481405
106,-4.102564102564102,-2.3974193665630974,-4.179102480456191,-2.4834790211606683,2.4834790211606683,-1.6190850814034339,-1.6956234592955224,-1.7051447360010048
107,-4.102564102564102,-2.336086545856328,-4.1414171362357415,-2.3792197511755377,2.3792197511755377,-1.7233443513885645,-1.7621973850602037,-1.7664775567077742
108,-4.102564102564102,-2.2749938913241428,-4.116585153576379,-2.2902347764699935,2.2902347764699935,-1.8123293260941087,-1.8263503771063854,-1.8275702112399594
109,-4.102564102564102,-2.2142690417379183,-4.101251203463377,-2.2128218596695683,2.212821859669569,-1.8897422428945334,-1.8884293437938084,-1.888295060826184
110,-4.102564102564102,-2.1540362491774987,-4.09071958244108,-2.1415414986946404,2.14154149869464,-1.9610226038694623,-1.9491780837464403,-1.9485278533866035
111,-4.102564102564102,-2.094415293781635,-4.079932879654212,-2.0704231785929093,2.0704231785929097,-2.0321409239711925,-2.0095097010613023,-2.008148808782467
112,-4.102564102564102,-2.03552044658863,-4.064485712829878,-1.9942316933882043,1.9942316933882043,-2.108332409175898,-2.070254019441674,-2.067043655975472
113,-4.102564102564102,-1.9774595031257434,-4.041406844874068,-1.9094540335376429,1.9094540335376424,-2.19311006902646,-2.1319528113364257,-2.125104599438359
114,-4.076808129301351,-1.894576936369531,-4.009538460232278,-1.8147839188948574,1.8147839188948578,-2.262024210406493,-2.1947545413374203,-2.1822311929318197
115,-3.874643874643879,-1.6363127742480543,-3.969480044991135,-1.71105562867512,1.7110556286751206,-2.163588245968758,-2.2584244163160143,-2.2383311003958246
117,-3.874643874643879,-1.5266104323479985,-3.9231898016527076,-1.6007412417487932,1.6007412417487927,-2.273902632895086,-2.322448559903915,-2.3480334422958804
118,-3.874643874643879,-1.4739300680688951,-3.8734074544064594,-1.4872215334204077,1.4872215334204073,-2.3874223412234716,-2.386185920986052,-2.400713806574984
119,-3.8746438746438785,-1.4225459563059824,-3.8230685485101863,-1.3740532779984196,1.3740532779984194,-2.500590596645459,-2.449015270511767,-2.452097918337896
120,-3.865976958815711,-1.3638393457825018,-3.7748388718499153,-1.2644018670891821,1.2644018670891823,-2.601575091726529,-2.5104370047607327,-2.5021376130332094
121,-3.647488916863678,-1.0966946764647316,-3.7308391180175824,-1.1607255752979522,1.1607255752979524,-2.4867633415657258,-2.57011354271963,-2.5507942403989463
123,-3.6467236467236512,-1.0012867997556918,-3.692579206022028,-1.0647221418749164,1.0647221418749164,-2.582001504848735,-2.6278570641471117,-2.6454368469679594
124,-3.6467236467236503,-0.9567816608202344,-3.6610856369967175,-0.9774963776105352,0.9774963776105352,-2.669227269113115,-2.6835892593861823,-2.689941985903416
125,-3.6467236467236512,-0.9137304065254286,-3.6371756125552155,-0.8998757662910755,0.8998757662910752,-2.746847880432576,-2.7372998462641402,-2.7329932401982227
126,-3.646723646723651,-0.872131910226007,-3.621798999991844,-0.8327782674234824,0.8327782674234822,-2.8139453793001685,-2.789020732568362,-2.774591736497644
128,-3.646723646723651,-0.7911545363151493,-3.616337353154144,-0.7775195238614664,0.7775195238614667,-2.8692041228621843,-2.838817829292677,-2.8555691104085015
129,-3.6467236467236503,-0.7537368334919718,-3.6227354855291267,-0.7359449885182268,0.7359449885182268,-2.9107786582054236,-2.8867904970109,-2.8929868132316785
130,-3.646723646723651,-0.7177180773903995,-3.6433648014676674,-0.7102997834143556,0.7102997834143556,-2.936423863309295,-2.9330650180533118,-2.9290055693332513
131,-3.646723646723651,-0.6830712521877085,-3.6805871389000666,-0.7028128947590153,0.7028128947590154,-2.9439107519646353,-2.977774244141051,-2.9636523945359423
133,-3.646723646723651,-0.6153141333393788,-3.7360892025431722,-0.7150628349577683,0.7150628349577686,-2.931660811765882,-3.021026367585404,-3.031409513384272
134,-3.8255537327923337,-0.7633623778168528,-3.8101548819818913,-0.7472800190239571,0.7472800190239571,-3.0782737137683767,-3.0628748629579343,-3.062191354975481
135,-3.8746438746438794,-0.7829197747819405,-3.90109333672941,-0.797789560591919,0.7977895605919191,-3.0768543140519604,-3.103303776137491,-3.091724099861939
137,-3.9526372658143587,-0.8028428004764567,-4.005018227956198,-0.8627815548713336,0.8627815548713335,-3.0898557109430254,-3.1422366730848643,-3.149794465337902
138,-4.102564102564102,-0.9267289649443464,-4.11608276414648,-0.9365156652821828,0.936515665282183,-3.166048437281919,-3.179567098864297,-3.1758351376197558
140,-4.29501351597034,-1.0677245459103482,-4.227148536106635,-1.0119500166547157,1.0119500166547157,-3.2830634993156247,-3.2151985194519197,-3.227288970059992
141,-4.330484330484332,-1.0803463940520412,-4.330747566968897,-1.0816700693353047,1.0816700693353047,-3.248814261149027,-3.2490774976335928,-3.2501379364322904
142,-4.44054150635318,-1.1685564469994802,-4.42012530395454,-1.1389178546553582,1.1389178546553584,-3.301623651697822,-3.281207449299182,-3.2719850593537
144,-4.558404558404561,-1.2428957001138996,-4.49014483562519,-1.1785051639768718,1.1785051639768716,-3.3798993944276896,-3.3116396716483187,-3.3155088582906616
145,-4.558404558404561,-1.22383990379408,-4.537881005878888,-1.1974324555382578,1.1974324555382578,-3.3609721028663033,-3.3404485503406303,-3.3345646546104812
147,-4.558404558404561,-1.1855956570315818,-4.5628129370807216,-1.1951089100831371,1.1951089100831371,-3.363295648321424,-3.3677040269975844,-3.3728089013729794
148,-4.558404558404561,-1.1690517626107662,-4.566610001895167,-1.1731559064250368,1.1731559064250365,-3.3852486519795244,-3.3934540954701307,-3.389352795793795
150,-4.558404558404561,-1.1355496312702638,-4.55258380545312,-1.134859668316902,1.134859668316902,-3.4235448900876593,-3.4177241371362177,-3.4228549271342974
151,-4.558404558404561,-1.1212602333718031,-4.524938353610832,-1.0844070882653496,1.0844070882653496,-3.473997470139212,-3.4405312653454825,-3.437144325032758
153,-4.5353001321002155,-1.0688967419155286,-4.487985691215572,-1.0260808383142943,1.0260808383142943,-3.5092192937859212,-3.4619048529012777,-3.466403390184687
154,-4.363783838479877,-0.8851126183210174,-4.445498359987993,-0.96359614676458,0.9635961467645799,-3.4001876917152973,-3.481902213223413,-3.47867122015886
156,-4.330484330484332,-0.8263413047619506,-4.400336193300474,-0.8997246709946658,0.899724670994666,-3.4307596594896657,-3.5006115223058076,-3.504143025722381
157,-4.330484330484332,-0.8158868416929121,-4.354411250671191,-0.8362707525879751,0.836270752587975,-3.494213577896357,-3.5181404980832163,-3.5145974887914195
159,-4.330484330484332,-0.7937910892901869,-4.3089539658839975,-0.7743581022671788,0.7743581022671788,-3.5561262282171526,-3.5345958636168184,-3.5366932411941447
