frequency,raw,smoothed,error,error_smoothed,equalization,parametric_eq,fixed_band_eq,equalized_raw,equalized_smoothed,target
20.00,5.40,5.40,-0.32,-0.32,0.32,-0.05,-0.32,5.72,5.72,5.72
20.20,5.43,5.43,-0.32,-0.32,0.32,-0.05,-0.32,5.75,5.75,5.75
20.40,5.46,5.46,-0.32,-0.32,0.32,-0.06,-0.33,5.78,5.78,5.78
20.61,5.49,5.48,-0.31,-0.32,0.32,-0.07,-0.34,5.81,5.80,5.80
20.81,5.51,5.51,-0.32,-0.32,0.31,-0.07,-0.35,5.82,5.82,5.83
21.02,5.54,5.54,-0.32,-0.31,0.30,-0.08,-0.36,5.84,5.84,5.86
21.23,5.57,5.57,-0.30,-0.30,0.29,-0.09,-0.37,5.86,5.86,5.86
21.44,5.60,5.60,-0.28,-0.28,0.28,-0.09,-0.38,5.87,5.87,5.87
21.66,5.63,5.63,-0.26,-0.25,0.25,-0.10,-0.39,5.88,5.88,5.88
21.87,5.66,5.66,-0.22,-0.23,0.23,-0.11,-0.40,5.89,5.89,5.88
22.09,5.69,5.69,-0.20,-0.20,0.20,-0.11,-0.41,5.89,5.89,5.89
22.31,5.72,5.72,-0.17,-0.17,0.17,-0.12,-0.42,5.89,5.89,5.89
22.54,5.75,5.75,-0.14,-0.14,0.14,-0.13,-0.43,5.89,5.89,5.89
22.76,5.78,5.78,-0.11,-0.11,0.11,-0.14,-0.44,5.89,5.89,5.89
22.99,5.81,5.81,-0.07,-0.08,0.08,-0.15,-0.46,5.89,5.89,5.88
23.22,5.84,5.83,-0.04,-0.04,0.05,-0.15,-0.47,5.89,5.88,5.88
23.45,5.86,5.86,-0.02,-0.02,0.02,-0.16,-0.48,5.88,5.88,5.88
23.69,5.89,5.89,0.01,0.01,-0.01,-0.17,-0.49,5.88,5.88,5.88
23.92,5.92,5.92,0.04,0.04,-0.04,-0.18,-0.51,5.88,5.88,5.88
24.16,5.95,5.95,0.06,0.07,-0.07,-0.19,-0.52,5.88,5.88,5.89
24.40,5.98,5.98,0.09,0.10,-0.10,-0.20,-0.53,5.88,5.88,5.89
24.65,6.01,6.01,0.13,0.13,-0.13,-0.21,-0.55,5.88,5.88,5.87
24.89,6.04,6.04,0.17,0.16,-0.16,-0.21,-0.56,5.88,5.88,5.87
25.14,6.06,6.06,0.19,0.19,-0.19,-0.22,-0.57,5.87,5.87,5.87
25.39,6.09,6.09,0.22,0.22,-0.22,-0.23,-0.59,5.87,5.87,5.87
25.65,6.12,6.12,0.25,0.25,-0.25,-0.24,-0.60,5.87,5.87,5.87
25.91,6.14,6.14,0.28,0.28,-0.28,-0.25,-0.62,5.86,5.86,5.86
26.16,6.17,6.17,0.31,0.31,-0.30,-0.26,-0.63,5.86,5.86,5.86
26.43,6.19,6.19,0.33,0.33,-0.33,-0.27,-0.64,5.86,5.86,5.86
26.69,6.22,6.22,0.36,0.36,-0.36,-0.28,-0.66,5.86,5.86,5.86
26.96,6.24,6.24,0.38,0.38,-0.39,-0.29,-0.67,5.85,5.85,5.85
27.23,6.27,6.27,0.41,0.41,-0.42,-0.30,-0.69,5.85,5.85,5.85
27.50,6.29,6.29,0.44,0.44,-0.45,-0.32,-0.70,5.84,5.84,5.85
27.77,6.32,6.32,0.48,0.47,-0.47,-0.33,-0.71,5.84,5.84,5.84
28.05,6.34,6.34,0.50,0.50,-0.50,-0.34,-0.73,5.83,5.84,5.84
28.33,6.37,6.37,0.54,0.54,-0.53,-0.35,-0.74,5.84,5.83,5.83
28.62,6.39,6.39,0.56,0.57,-0.56,-0.36,-0.76,5.83,5.83,5.83
28.90,6.42,6.42,0.59,0.59,-0.59,-0.37,-0.77,5.83,5.83,5.82
29.19,6.44,6.44,0.63,0.62,-0.62,-0.39,-0.78,5.82,5.82,5.81
29.48,6.46,6.46,0.64,0.64,-0.65,-0.40,-0.79,5.81,5.81,5.82
29.78,6.48,6.48,0.67,0.67,-0.67,-0.41,-0.80,5.81,5.81,5.81
30.08,6.50,6.50,0.69,0.69,-0.70,-0.42,-0.81,5.80,5.80,5.81
30.38,6.52,6.52,0.72,0.72,-0.72,-0.44,-0.83,5.80,5.80,5.80
30.68,6.54,6.54,0.74,0.74,-0.74,-0.45,-0.84,5.80,5.79,5.79
30.99,6.55,6.55,0.77,0.76,-0.76,-0.46,-0.85,5.79,5.79,5.78
31.30,6.56,6.56,0.78,0.78,-0.78,-0.48,-0.85,5.78,5.78,5.78
31.61,6.57,6.57,0.79,0.79,-0.79,-0.49,-0.86,5.77,5.77,5.78
31.93,6.57,6.57,0.80,0.81,-0.81,-0.51,-0.87,5.76,5.76,5.76
32.24,6.58,6.58,0.83,0.82,-0.82,-0.52,-0.88,5.76,5.76,5.75
32.57,6.58,6.58,0.83,0.83,-0.83,-0.53,-0.89,5.75,5.75,5.75
32.89,6.58,6.58,0.83,0.84,-0.84,-0.55,-0.89,5.74,5.74,5.75
33.22,6.58,6.58,0.84,0.84,-0.84,-0.56,-0.90,5.74,5.74,5.73
33.55,6.58,6.58,0.85,0.85,-0.85,-0.58,-0.90,5.73,5.73,5.73
33.89,6.58,6.58,0.86,0.85,-0.85,-0.60,-0.91,5.72,5.72,5.72
34.23,6.57,6.57,0.85,0.86,-0.86,-0.61,-0.92,5.71,5.71,5.72
34.57,6.57,6.57,0.87,0.86,-0.86,-0.63,-0.92,5.70,5.70,5.70
34.92,6.56,6.56,0.87,0.87,-0.87,-0.64,-0.93,5.69,5.69,5.69
35.27,6.56,6.56,0.87,0.87,-0.87,-0.66,-0.93,5.68,5.68,5.69
35.62,6.55,6.55,0.88,0.88,-0.88,-0.68,-0.94,5.67,5.67,5.67
35.97,6.55,6.55,0.89,0.88,-0.88,-0.70,-0.94,5.67,5.66,5.66
36.33,6.54,6.54,0.88,0.89,-0.88,-0.71,-0.95,5.65,5.65,5.66
36.70,6.53,6.53,0.89,0.89,-0.89,-0.73,-0.95,5.64,5.64,5.64
37.06,6.52,6.52,0.89,0.89,-0.89,-0.75,-0.96,5.63,5.63,5.63
37.43,6.51,6.51,0.89,0.89,-0.89,-0.77,-0.96,5.62,5.62,5.62
37.81,6.50,6.50,0.89,0.89,-0.89,-0.79,-0.97,5.61,5.61,5.61
38.19,6.49,6.49,0.89,0.89,-0.89,-0.81,-0.97,5.60,5.60,5.59
38.57,6.48,6.48,0.89,0.89,-0.89,-0.83,-0.98,5.59,5.59,5.59
38.95,6.47,6.47,0.89,0.89,-0.90,-0.85,-0.99,5.57,5.57,5.57
39.34,6.46,6.46,0.90,0.90,-0.90,-0.87,-1.00,5.56,5.56,5.56
39.74,6.45,6.45,0.90,0.90,-0.90,-0.89,-1.00,5.54,5.55,5.54
40.14,6.45,6.44,0.91,0.91,-0.91,-0.91,-1.01,5.54,5.53,5.54
40.54,6.44,6.44,0.91,0.92,-0.92,-0.93,-1.02,5.52,5.52,5.52
40.94,6.44,6.44,0.92,0.92,-0.92,-0.95,-1.03,5.52,5.52,5.52
41.35,6.44,6.44,0.94,0.93,-0.93,-0.97,-1.04,5.51,5.51,5.50
41.76,6.44,6.44,0.94,0.94,-0.94,-0.99,-1.05,5.50,5.50,5.50
42.18,6.44,6.43,0.95,0.95,-0.95,-1.02,-1.07,5.49,5.49,5.49
42.60,6.43,6.43,0.96,0.95,-0.96,-1.04,-1.08,5.47,5.47,5.47
43.03,6.43,6.43,0.96,0.97,-0.97,-1.06,-1.09,5.46,5.46,5.47
43.46,6.43,6.43,0.98,0.98,-0.99,-1.08,-1.11,5.44,5.44,5.45
43.90,6.43,6.43,1.01,1.00,-1.00,-1.11,-1.12,5.42,5.42,5.42
44.33,6.43,6.43,1.03,1.02,-1.02,-1.13,-1.14,5.41,5.40,5.40
44.78,6.43,6.43,1.04,1.05,-1.04,-1.16,-1.15,5.39,5.39,5.38
45.23,6.43,6.43,1.06,1.07,-1.06,-1.18,-1.17,5.37,5.37,5.37
45.68,6.44,6.43,1.09,1.09,-1.08,-1.21,-1.19,5.35,5.35,5.35
46.13,6.44,6.44,1.11,1.11,-1.11,-1.23,-1.21,5.33,5.34,5.33
46.60,6.45,6.45,1.13,1.13,-1.13,-1.26,-1.23,5.32,5.32,5.32
47.06,6.46,6.45,1.16,1.15,-1.15,-1.29,-1.25,5.30,5.30,5.30
47.53,6.46,6.46,1.18,1.18,-1.18,-1.31,-1.27,5.28,5.28,5.28
48.01,6.47,6.47,1.20,1.21,-1.21,-1.34,-1.29,5.25,5.26,5.27
48.49,6.48,6.48,1.24,1.24,-1.25,-1.37,-1.31,5.23,5.23,5.24
48.97,6.49,6.49,1.28,1.28,-1.28,-1.40,-1.34,5.21,5.21,5.21
49.46,6.50,6.50,1.32,1.33,-1.32,-1.42,-1.36,5.18,5.18,5.18
49.96,6.52,6.51,1.37,1.36,-1.36,-1.45,-1.39,5.16,5.16,5.14
50.46,6.53,6.53,1.40,1.40,-1.40,-1.48,-1.41,5.13,5.13,5.13
50.96,6.54,6.54,1.43,1.44,-1.44,-1.51,-1.44,5.10,5.11,5.11
51.47,6.56,6.56,1.48,1.47,-1.47,-1.54,-1.47,5.08,5.08,5.08
51.99,6.57,6.57,1.51,1.51,-1.51,-1.57,-1.49,5.06,5.06,5.05
52.51,6.59,6.59,1.55,1.55,-1.55,-1.60,-1.52,5.04,5.03,5.04
53.03,6.60,6.60,1.58,1.59,-1.59,-1.64,-1.55,5.01,5.01,5.01
53.56,6.62,6.62,1.63,1.63,-1.63,-1.67,-1.58,4.99,4.99,4.99
54.10,6.64,6.63,1.67,1.67,-1.67,-1.70,-1.61,4.97,4.96,4.96
54.64,6.65,6.65,1.71,1.71,-1.71,-1.73,-1.64,4.93,4.94,4.94
55.18,6.67,6.67,1.76,1.76,-1.76,-1.77,-1.67,4.91,4.91,4.91
55.74,6.69,6.69,1.80,1.80,-1.80,-1.80,-1.70,4.89,4.89,4.89
56.29,6.71,6.71,1.84,1.84,-1.84,-1.83,-1.73,4.87,4.87,4.87
56.86,6.73,6.72,1.89,1.89,-1.88,-1.87,-1.76,4.84,4.84,4.84
57.42,6.74,6.74,1.93,1.93,-1.93,-1.90,-1.79,4.81,4.82,4.81
58.00,6.76,6.76,1.97,1.97,-1.97,-1.94,-1.82,4.79,4.79,4.79
58.58,6.78,6.78,2.01,2.01,-2.01,-1.97,-1.85,4.77,4.77,4.77
59.16,6.80,6.80,2.05,2.05,-2.05,-2.01,-1.88,4.75,4.75,4.75
59.76,6.82,6.82,2.09,2.09,-2.09,-2.05,-1.91,4.73,4.72,4.73
60.35,6.83,6.83,2.13,2.13,-2.13,-2.08,-1.94,4.69,4.70,4.70
60.96,6.85,6.85,2.17,2.18,-2.18,-2.12,-1.98,4.67,4.67,4.68
61.57,6.86,6.86,2.23,2.22,-2.22,-2.16,-2.01,4.64,4.64,4.63
62.18,6.87,6.87,2.27,2.27,-2.26,-2.20,-2.04,4.61,4.61,4.60
62.80,6.88,6.88,2.30,2.31,-2.30,-2.24,-2.07,4.57,4.57,4.57
63.43,6.89,6.89,2.35,2.35,-2.35,-2.28,-2.10,4.54,4.54,4.54
64.07,6.90,6.90,2.39,2.38,-2.38,-2.32,-2.13,4.51,4.51,4.51
64.71,6.91,6.91,2.42,2.42,-2.42,-2.36,-2.16,4.48,4.48,4.49
65.35,6.92,6.92,2.46,2.46,-2.46,-2.40,-2.19,4.46,4.46,4.46
66.01,6.93,6.93,2.50,2.50,-2.50,-2.44,-2.22,4.43,4.43,4.43
66.67,6.94,6.94,2.54,2.54,-2.54,-2.48,-2.25,4.40,4.40,4.40
67.33,6.95,6.95,2.58,2.58,-2.57,-2.52,-2.28,4.37,4.37,4.37
68.01,6.96,6.95,2.62,2.61,-2.61,-2.57,-2.31,4.35,4.34,4.34
68.69,6.96,6.96,2.65,2.65,-2.65,-2.61,-2.34,4.31,4.31,4.31
69.37,6.97,6.97,2.69,2.69,-2.69,-2.65,-2.38,4.28,4.28,4.28
70.07,6.98,6.97,2.73,2.72,-2.73,-2.70,-2.41,4.25,4.25,4.25
70.77,6.98,6.98,2.76,2.76,-2.77,-2.74,-2.45,4.21,4.22,4.22
71.48,6.99,6.99,2.80,2.80,-2.81,-2.79,-2.48,4.18,4.18,4.19
72.19,7.00,7.00,2.85,2.84,-2.85,-2.83,-2.52,4.15,4.15,4.15
72.91,7.01,7.00,2.89,2.89,-2.89,-2.88,-2.56,4.12,4.12,4.12
73.64,7.01,7.01,2.93,2.93,-2.93,-2.92,-2.59,4.08,4.08,4.08
74.38,7.02,7.02,2.97,2.97,-2.97,-2.97,-2.64,4.05,4.05,4.05
75.12,7.03,7.03,3.02,3.01,-3.01,-3.02,-2.68,4.02,4.02,4.01
75.87,7.04,7.04,3.05,3.05,-3.05,-3.07,-2.72,3.99,3.99,3.98
76.63,7.05,7.04,3.09,3.09,-3.09,-3.11,-2.77,3.96,3.95,3.95
77.40,7.05,7.05,3.13,3.13,-3.13,-3.16,-2.81,3.91,3.92,3.92
78.17,7.06,7.06,3.18,3.17,-3.18,-3.21,-2.86,3.88,3.89,3.88
78.95,7.08,7.07,3.22,3.22,-3.22,-3.26,-2.92,3.86,3.86,3.86
79.74,7.09,7.09,3.26,3.26,-3.26,-3.31,-2.97,3.83,3.83,3.83
80.54,7.10,7.10,3.31,3.31,-3.31,-3.36,-3.02,3.79,3.79,3.79
81.35,7.11,7.11,3.35,3.35,-3.35,-3.41,-3.08,3.76,3.76,3.76
82.16,7.12,7.12,3.40,3.40,-3.40,-3.47,-3.14,3.72,3.72,3.72
82.98,7.14,7.13,3.44,3.45,-3.45,-3.52,-3.21,3.69,3.69,3.69
83.81,7.15,7.15,3.50,3.50,-3.50,-3.57,-3.27,3.65,3.65,3.65
84.65,7.16,7.16,3.55,3.55,-3.55,-3.62,-3.34,3.61,3.62,3.61
85.50,7.18,7.18,3.60,3.60,-3.60,-3.67,-3.41,3.58,3.58,3.58
86.35,7.20,7.19,3.66,3.65,-3.65,-3.73,-3.48,3.54,3.54,3.54
87.22,7.21,7.21,3.71,3.71,-3.71,-3.78,-3.56,3.50,3.50,3.50
88.09,7.23,7.23,3.77,3.76,-3.77,-3.84,-3.64,3.46,3.46,3.46
88.97,7.25,7.25,3.82,3.82,-3.82,-3.89,-3.72,3.42,3.42,3.43
89.86,7.27,7.27,3.88,3.88,-3.88,-3.94,-3.80,3.39,3.39,3.39
90.76,7.29,7.29,3.95,3.94,-3.94,-4.00,-3.89,3.35,3.35,3.34
91.66,7.31,7.30,4.00,4.01,-4.00,-4.05,-3.98,3.31,3.30,3.30
92.58,7.32,7.32,4.07,4.07,-4.06,-4.11,-4.07,3.25,3.26,3.25
93.51,7.34,7.34,4.12,4.12,-4.13,-4.17,-4.17,3.21,3.21,3.22
94.44,7.36,7.36,4.19,4.19,-4.19,-4.22,-4.27,3.17,3.17,3.17
95.39,7.38,7.38,4.25,4.25,-4.25,-4.28,-4.36,3.12,3.12,3.13
96.34,7.40,7.40,4.32,4.32,-4.32,-4.34,-4.47,3.08,3.08,3.07
97.30,7.42,7.42,4.39,4.39,-4.38,-4.39,-4.57,3.03,3.03,3.03
98.28,7.44,7.43,4.45,4.45,-4.45,-4.45,-4.68,2.99,2.99,2.98
99.26,7.45,7.45,4.51,4.51,-4.51,-4.51,-4.79,2.93,2.94,2.94
100.25,7.47,7.47,4.58,4.58,-4.58,-4.57,-4.90,2.89,2.89,2.89
101.25,7.49,7.49,4.64,4.64,-4.64,-4.62,-5.01,2.85,2.84,2.85
102.27,7.51,7.51,4.71,4.71,-4.71,-4.68,-5.12,2.80,2.80,2.80
103.29,7.52,7.52,4.77,4.77,-4.77,-4.74,-5.24,2.75,2.75,2.74
104.32,7.54,7.54,4.83,4.83,-4.83,-4.80,-5.35,2.71,2.71,2.71
105.37,7.55,7.55,4.89,4.89,-4.89,-4.86,-5.46,2.66,2.66,2.66
106.42,7.57,7.57,4.95,4.95,-4.95,-4.91,-5.58,2.61,2.61,2.61
107.48,7.58,7.58,5.01,5.02,-5.02,-4.97,-5.69,2.56,2.57,2.57
108.56,7.60,7.60,5.09,5.08,-5.08,-5.03,-5.80,2.52,2.52,2.51
109.64,7.61,7.61,5.14,5.14,-5.14,-5.09,-5.91,2.47,2.47,2.47
110.74,7.62,7.62,5.20,5.20,-5.20,-5.15,-6.02,2.41,2.42,2.42
111.85,7.63,7.63,5.25,5.26,-5.27,-5.21,-6.12,2.36,2.36,2.37
112.97,7.65,7.64,5.34,5.33,-5.33,-5.26,-6.22,2.32,2.31,2.31
114.10,7.66,7.66,5.39,5.40,-5.39,-5.32,-6.32,2.26,2.26,2.26
115.24,7.67,7.67,5.46,5.46,-5.46,-5.38,-6.41,2.21,2.21,2.21
116.39,7.68,7.67,5.52,5.52,-5.52,-5.44,-6.50,2.16,2.16,2.15
117.55,7.68,7.68,5.58,5.58,-5.58,-5.49,-6.57,2.10,2.10,2.10
118.73,7.69,7.69,5.64,5.64,-5.64,-5.55,-6.65,2.05,2.05,2.05
119.92,7.70,7.69,5.69,5.70,-5.70,-5.61,-6.71,2.00,2.00,2.00
121.12,7.70,7.70,5.75,5.75,-5.75,-5.67,-6.77,1.95,1.95,1.95
122.33,7.71,7.71,5.81,5.80,-5.81,-5.72,-6.82,1.90,1.90,1.90
123.55,7.71,7.71,5.85,5.86,-5.86,-5.78,-6.87,1.85,1.85,1.86
124.79,7.72,7.72,5.91,5.91,-5.91,-5.83,-6.90,1.80,1.80,1.81
126.03,7.72,7.72,5.96,5.96,-5.97,-5.89,-6.93,1.75,1.75,1.75
127.29,7.72,7.72,6.01,6.02,-6.02,-5.95,-6.94,1.70,1.70,1.70
128.57,7.72,7.72,6.07,6.07,-6.06,-6.00,-6.95,1.65,1.65,1.65
129.85,7.71,7.71,6.11,6.11,-6.11,-6.05,-6.95,1.60,1.60,1.60
131.15,7.71,7.71,6.16,6.16,-6.16,-6.11,-6.95,1.55,1.55,1.55
132.46,7.70,7.70,6.20,6.20,-6.20,-6.16,-6.93,1.50,1.50,1.50
133.79,7.70,7.70,6.23,6.24,-6.24,-6.21,-6.92,1.46,1.46,1.46
135.12,7.69,7.69,6.28,6.27,-6.27,-6.26,-6.89,1.42,1.42,1.41
136.48,7.68,7.68,6.30,6.31,-6.31,-6.31,-6.86,1.37,1.37,1.37
137.84,7.67,7.66,6.34,6.34,-6.34,-6.36,-6.82,1.33,1.33,1.33
139.22,7.65,7.65,6.37,6.37,-6.37,-6.41,-6.79,1.28,1.28,1.28
140.61,7.64,7.64,6.41,6.40,-6.40,-6.46,-6.74,1.24,1.24,1.23
142.02,7.64,7.63,6.43,6.43,-6.43,-6.51,-6.70,1.21,1.20,1.21
143.44,7.63,7.63,6.46,6.46,-6.46,-6.55,-6.65,1.17,1.17,1.17
144.87,7.62,7.62,6.49,6.49,-6.49,-6.60,-6.61,1.12,1.13,1.13
146.32,7.62,7.62,6.53,6.52,-6.53,-6.64,-6.56,1.09,1.09,1.09
147.78,7.62,7.62,6.56,6.56,-6.57,-6.68,-6.51,1.05,1.05,1.06
149.26,7.62,7.62,6.60,6.60,-6.60,-6.73,-6.46,1.01,1.02,1.02
150.75,7.63,7.62,6.65,6.64,-6.64,-6.77,-6.41,0.99,0.98,0.98
152.26,7.63,7.63,6.69,6.69,-6.68,-6.80,-6.37,0.94,0.94,0.94
153.78,7.63,7.63,6.72,6.73,-6.73,-6.84,-6.32,0.90,0.90,0.90
155.32,7.63,7.63,6.77,6.77,-6.77,-6.88,-6.28,0.86,0.86,0.86
156.88,7.63,7.63,6.80,6.80,-6.81,-6.91,-6.24,0.82,0.82,0.83
158.44,7.63,7.63,6.85,6.84,-6.84,-6.95,-6.21,0.78,0.78,0.78
160.03,7.62,7.62,6.88,6.88,-6.88,-6.98,-6.17,0.74,0.74,0.74
161.63,7.62,7.62,6.92,6.92,-6.91,-7.01,-6.15,0.71,0.70,0.70
163.24,7.61,7.61,6.95,6.94,-6.94,-7.04,-6.12,0.67,0.67,0.66
164.88,7.59,7.59,6.96,6.97,-6.97,-7.06,-6.10,0.62,0.63,0.63
166.53,7.58,7.58,6.99,6.99,-6.99,-7.09,-6.08,0.59,0.59,0.59
168.19,7.56,7.56,7.01,7.01,-7.01,-7.11,-6.07,0.55,0.55,0.55
169.87,7.54,7.54,7.03,7.03,-7.03,-7.13,-6.06,0.51,0.51,0.51
171.57,7.52,7.52,7.04,7.04,-7.04,-7.15,-6.05,0.48,0.48,0.48
173.29,7.50,7.50,7.06,7.06,-7.06,-7.17,-6.05,0.44,0.44,0.44
175.02,7.47,7.47,7.06,7.07,-7.07,-7.18,-6.06,0.40,0.40,0.40
176.77,7.45,7.45,7.09,7.09,-7.09,-7.20,-6.07,0.36,0.36,0.36
178.54,7.42,7.42,7.10,7.10,-7.10,-7.21,-6.08,0.32,0.32,0.32
180.32,7.40,7.40,7.12,7.12,-7.12,-7.22,-6.10,0.28,0.28,0.28
182.13,7.38,7.37,7.13,7.13,-7.13,-7.22,-6.13,0.25,0.24,0.25
183.95,7.35,7.35,7.14,7.14,-7.14,-7.23,-6.15,0.20,0.21,0.21
185.79,7.33,7.33,7.15,7.15,-7.16,-7.23,-6.19,0.17,0.17,0.18
187.65,7.31,7.31,7.17,7.17,-7.17,-7.23,-6.22,0.14,0.14,0.14
189.52,7.29,7.29,7.18,7.18,-7.18,-7.23,-6.26,0.11,0.11,0.11
191.42,7.27,7.27,7.19,7.19,-7.19,-7.22,-6.31,0.08,0.08,0.08
193.33,7.24,7.24,7.19,7.19,-7.20,-7.22,-6.36,0.04,0.05,0.05
195.27,7.22,7.22,7.20,7.20,-7.20,-7.21,-6.41,0.02,0.02,0.02
197.22,7.19,7.19,7.20,7.20,-7.20,-7.20,-6.47,-0.01,-0.01,-0.01
199.19,7.16,7.16,7.20,7.20,-7.19,-7.18,-6.52,-0.04,-0.03,-0.05
201.18,7.13,7.13,7.19,7.19,-7.19,-7.16,-6.59,-0.06,-0.06,-0.06
203.19,7.10,7.10,7.18,7.18,-7.17,-7.15,-6.65,-0.08,-0.08,-0.08
205.23,7.06,7.06,7.16,7.16,-7.16,-7.12,-6.72,-0.10,-0.10,-0.10
207.28,7.02,7.02,7.13,7.14,-7.14,-7.10,-6.79,-0.12,-0.12,-0.11
209.35,6.98,6.98,7.11,7.11,-7.11,-7.07,-6.86,-0.14,-0.13,-0.13
211.44,6.94,6.94,7.10,7.09,-7.09,-7.04,-6.93,-0.15,-0.15,-0.16
213.56,6.90,6.90,7.06,7.06,-7.06,-7.01,-6.99,-0.16,-0.16,-0.16
215.69,6.85,6.85,7.01,7.02,-7.02,-6.98,-7.06,-0.18,-0.17,-0.16
217.85,6.81,6.81,6.99,6.99,-6.99,-6.94,-7.13,-0.18,-0.18,-0.18
220.03,6.76,6.76,6.95,6.95,-6.95,-6.90,-7.19,-0.19,-0.19,-0.19
222.23,6.72,6.72,6.92,6.91,-6.91,-6.86,-7.25,-0.19,-0.19,-0.20
224.45,6.67,6.67,6.86,6.87,-6.86,-6.81,-7.31,-0.19,-0.19,-0.19
226.70,6.62,6.62,6.81,6.81,-6.81,-6.76,-7.36,-0.20,-0.19,-0.19
228.96,6.57,6.57,6.76,6.76,-6.76,-6.72,-7.41,-0.20,-0.20,-0.19
231.25,6.52,6.52,6.70,6.71,-6.71,-6.66,-7.44,-0.19,-0.19,-0.19
233.57,6.47,6.47,6.65,6.66,-6.66,-6.61,-7.47,-0.19,-0.19,-0.19
235.90,6.42,6.42,6.60,6.60,-6.60,-6.55,-7.49,-0.18,-0.18,-0.19
238.26,6.37,6.37,6.55,6.55,-6.54,-6.49,-7.50,-0.17,-0.18,-0.18
240.64,6.31,6.31,6.48,6.49,-6.48,-6.43,-7.50,-0.17,-0.17,-0.17
243.05,6.26,6.25,6.42,6.42,-6.42,-6.37,-7.49,-0.16,-0.16,-0.16
245.48,6.20,6.20,6.35,6.35,-6.35,-6.30,-7.46,-0.16,-0.16,-0.15
247.93,6.14,6.14,6.28,6.29,-6.28,-6.23,-7.43,-0.15,-0.14,-0.14
250.41,6.09,6.08,6.22,6.21,-6.21,-6.16,-7.37,-0.12,-0.13,-0.14
252.92,6.03,6.03,6.14,6.14,-6.14,-6.09,-7.31,-0.11,-0.11,-0.11
255.45,5.96,5.96,6.05,6.06,-6.06,-6.01,-7.23,-0.10,-0.10,-0.09
258.00,5.90,5.90,5.98,5.97,-5.98,-5.94,-7.15,-0.08,-0.08,-0.08
260.58,5.83,5.83,5.89,5.89,-5.89,-5.86,-7.04,-0.07,-0.06,-0.07
263.19,5.77,5.76,5.81,5.81,-5.81,-5.78,-6.93,-0.04,-0.04,-0.04
265.82,5.69,5.69,5.72,5.72,-5.71,-5.69,-6.81,-0.02,-0.02,-0.03
268.48,5.62,5.62,5.62,5.62,-5.62,-5.61,-6.68,0.00,0.00,-0.00
271.16,5.54,5.54,5.52,5.52,-5.52,-5.52,-6.53,0.02,0.02,0.02
273.87,5.46,5.46,5.42,5.42,-5.42,-5.43,-6.38,0.04,0.04,0.03
276.61,5.37,5.37,5.31,5.32,-5.31,-5.34,-6.22,0.06,0.06,0.06
279.38,5.29,5.28,5.21,5.21,-5.21,-5.24,-6.05,0.08,0.07,0.07
282.17,5.20,5.20,5.11,5.11,-5.11,-5.15,-5.87,0.09,0.09,0.09
284.99,5.12,5.12,5.00,5.01,-5.01,-5.05,-5.70,0.10,0.10,0.11
287.84,5.05,5.04,4.92,4.91,-4.93,-4.95,-5.51,0.12,0.12,0.13
290.72,4.98,4.98,4.82,4.83,-4.84,-4.85,-5.32,0.13,0.14,0.15
293.63,4.93,4.93,4.76,4.76,-4.77,-4.74,-5.13,0.16,0.16,0.17
296.57,4.89,4.89,4.69,4.69,-4.70,-4.64,-4.94,0.19,0.19,0.20
299.53,4.85,4.85,4.64,4.64,-4.63,-4.53,-4.74,0.22,0.22,0.21
302.53,4.81,4.81,4.58,4.57,-4.57,-4.42,-4.54,0.24,0.24,0.23
305.55,4.77,4.77,4.50,4.51,-4.51,-4.31,-4.34,0.26,0.26,0.26
308.61,4.73,4.73,4.45,4.45,-4.44,-4.20,-4.14,0.29,0.29,0.28
311.69,4.69,4.69,4.38,4.37,-4.38,-4.08,-3.94,0.31,0.31,0.31
314.81,4.64,4.64,4.30,4.30,-4.31,-3.97,-3.74,0.33,0.33,0.34
317.96,4.58,4.58,4.22,4.22,-4.23,-3.85,-3.54,0.35,0.35,0.36
321.14,4.52,4.52,4.14,4.14,-4.15,-3.73,-3.35,0.37,0.37,0.38
324.35,4.46,4.45,4.06,4.06,-4.06,-3.61,-3.15,0.40,0.40,0.39
327.59,4.38,4.38,3.96,3.96,-3.95,-3.48,-2.95,0.42,0.43,0.42
330.87,4.29,4.29,3.85,3.85,-3.85,-3.36,-2.75,0.44,0.44,0.44
334.18,4.19,4.18,3.73,3.73,-3.73,-3.23,-2.56,0.46,0.46,0.46
337.52,4.06,4.06,3.59,3.59,-3.60,-3.10,-2.36,0.46,0.47,0.47
340.90,3.93,3.93,3.43,3.43,-3.44,-2.97,-2.17,0.48,0.48,0.50
344.30,3.78,3.78,3.26,3.26,-3.27,-2.84,-1.97,0.51,0.51,0.52
347.75,3.62,3.63,3.08,3.10,-3.07,-2.71,-1.78,0.55,0.56,0.54
351.23,3.46,3.45,2.91,2.90,-2.85,-2.57,-1.59,0.61,0.60,0.55
354.74,3.26,3.23,2.69,2.66,-2.61,-2.44,-1.40,0.65,0.62,0.57
358.28,2.96,2.97,2.37,2.38,-2.36,-2.30,-1.21,0.60,0.61,0.59
361.87,2.67,2.68,2.06,2.08,-2.09,-2.16,-1.02,0.57,0.59,0.61
365.49,2.40,2.40,1.78,1.78,-1.83,-2.01,-0.84,0.57,0.57,0.61
369.14,2.15,2.15,1.53,1.53,-1.57,-1.87,-0.65,0.58,0.59,0.62
372.83,1.93,1.93,1.29,1.29,-1.31,-1.72,-0.47,0.62,0.61,0.64
376.56,1.72,1.72,1.07,1.06,-1.07,-1.58,-0.28,0.65,0.64,0.65
380.33,1.52,1.52,0.84,0.85,-0.85,-1.43,-0.10,0.67,0.67,0.68
384.13,1.33,1.33,0.64,0.65,-0.64,-1.28,0.08,0.68,0.69,0.69
387.97,1.15,1.15,0.45,0.45,-0.45,-1.12,0.26,0.70,0.70,0.69
391.85,0.97,0.97,0.27,0.26,-0.26,-0.97,0.44,0.71,0.71,0.70
395.77,0.79,0.79,0.07,0.07,-0.07,-0.81,0.62,0.72,0.72,0.72
399.73,0.62,0.61,-0.11,-0.11,0.12,-0.66,0.80,0.74,0.73,0.73
403.72,0.44,0.44,-0.30,-0.30,0.31,-0.50,0.98,0.75,0.74,0.74
407.76,0.26,0.26,-0.49,-0.49,0.49,-0.34,1.15,0.75,0.75,0.75
411.84,0.08,0.08,-0.69,-0.68,0.69,-0.17,1.32,0.76,0.76,0.77
415.96,-0.10,-0.10,-0.88,-0.87,0.88,-0.01,1.49,0.78,0.78,0.77
420.12,-0.28,-0.28,-1.07,-1.07,1.08,0.16,1.66,0.80,0.80,0.78
424.32,-0.46,-0.47,-1.25,-1.26,1.28,0.32,1.82,0.82,0.81,0.79
428.56,-0.65,-0.65,-1.45,-1.45,1.47,0.49,1.99,0.82,0.82,0.80
432.85,-0.83,-0.83,-1.64,-1.64,1.65,0.66,2.14,0.82,0.83,0.81
437.18,-1.00,-1.01,-1.82,-1.84,1.82,0.83,2.30,0.82,0.81,0.82
441.55,-1.17,-1.18,-2.01,-2.01,1.97,1.00,2.45,0.79,0.79,0.84
445.96,-1.33,-1.30,-2.18,-2.14,2.09,1.17,2.59,0.76,0.79,0.85
450.42,-1.37,-1.38,-2.23,-2.24,2.20,1.35,2.73,0.82,0.82,0.86
454.93,-1.40,-1.42,-2.28,-2.29,2.28,1.52,2.87,0.88,0.87,0.88
459.48,-1.44,-1.44,-2.33,-2.33,2.35,1.69,2.99,0.91,0.91,0.88
464.07,-1.47,-1.47,-2.38,-2.38,2.40,1.87,3.11,0.93,0.93,0.90
468.71,-1.51,-1.51,-2.43,-2.43,2.45,2.04,3.23,0.94,0.94,0.92
473.40,-1.55,-1.55,-2.48,-2.49,2.50,2.22,3.33,0.95,0.95,0.93
478.13,-1.59,-1.59,-2.54,-2.54,2.55,2.39,3.43,0.96,0.95,0.95
482.91,-1.64,-1.64,-2.60,-2.60,2.61,2.57,3.52,0.97,0.97,0.96
487.74,-1.69,-1.69,-2.67,-2.67,2.67,2.74,3.60,0.98,0.98,0.98
492.62,-1.74,-1.74,-2.74,-2.74,2.74,2.91,3.67,1.00,1.00,1.00
497.55,-1.80,-1.80,-2.81,-2.81,2.81,3.08,3.74,1.01,1.01,1.01
502.52,-1.86,-1.86,-2.89,-2.89,2.89,3.25,3.79,1.02,1.02,1.03
507.55,-1.92,-1.92,-2.96,-2.96,2.96,3.42,3.83,1.04,1.04,1.04
512.62,-1.98,-1.98,-3.04,-3.04,3.04,3.58,3.87,1.06,1.06,1.06
517.75,-2.04,-2.04,-3.12,-3.12,3.12,3.74,3.90,1.08,1.08,1.08
522.93,-2.11,-2.11,-3.21,-3.20,3.20,3.90,3.92,1.09,1.09,1.10
528.16,-2.17,-2.17,-3.28,-3.28,3.28,4.05,3.93,1.11,1.11,1.11
533.44,-2.24,-2.24,-3.37,-3.37,3.37,4.20,3.94,1.13,1.13,1.13
