frequency,raw,error,smoothed,error_smoothed,equalization,parametric_eq,fixed_band_eq,equalized_raw,equalized_smoothed,target
20.00,17.58,10.44,17.57,10.43,-10.43,-10.10,-4.41,7.15,7.14,7.14
20.20,17.55,10.42,17.54,10.41,-10.41,-10.09,-4.53,7.14,7.13,7.13
20.40,17.51,10.39,17.51,10.39,-10.39,-10.08,-4.65,7.12,7.12,7.12
20.61,17.48,10.37,17.49,10.37,-10.37,-10.07,-4.77,7.11,7.11,7.12
20.81,17.44,10.35,17.46,10.36,-10.36,-10.05,-4.90,7.09,7.10,7.10
21.02,17.41,10.32,17.43,10.34,-10.34,-10.04,-5.02,7.08,7.09,7.10
21.23,17.39,10.31,17.40,10.31,-10.31,-10.03,-5.16,7.08,7.09,7.08
21.44,17.37,10.28,17.37,10.29,-10.29,-10.01,-5.29,7.08,7.08,7.09
21.66,17.34,10.26,17.35,10.27,-10.27,-10.00,-5.43,7.07,7.07,7.08
21.87,17.32,10.25,17.32,10.25,-10.25,-9.99,-5.58,7.07,7.07,7.07
22.09,17.30,10.24,17.29,10.23,-10.23,-9.97,-5.72,7.07,7.06,7.06
22.31,17.28,10.22,17.26,10.20,-10.20,-9.96,-5.88,7.08,7.06,7.06
22.54,17.26,10.21,17.23,10.18,-10.18,-9.94,-6.03,7.08,7.05,7.05
22.76,17.23,10.18,17.21,10.16,-10.16,-9.93,-6.19,7.07,7.05,7.05
22.99,17.21,10.17,17.18,10.13,-10.13,-9.91,-6.36,7.08,7.05,7.04
23.22,17.16,10.13,17.16,10.11,-10.11,-9.90,-6.52,7.05,7.04,7.03
23.45,17.11,10.07,17.13,10.09,-10.09,-9.88,-6.69,7.02,7.04,7.04
23.69,17.06,10.03,17.10,10.06,-10.06,-9.86,-6.87,7.00,7.04,7.03
23.92,17.02,9.99,17.07,10.04,-10.04,-9.85,-7.05,6.99,7.04,7.03
24.16,17.00,9.96,17.04,10.01,-10.01,-9.83,-7.23,7.00,7.04,7.04
24.40,17.00,9.95,17.01,9.97,-9.97,-9.81,-7.42,7.03,7.04,7.05
24.65,17.00,9.95,16.98,9.94,-9.94,-9.79,-7.61,7.06,7.04,7.05
24.89,17.00,9.95,16.95,9.91,-9.91,-9.78,-7.80,7.09,7.04,7.05
25.14,16.97,9.93,16.92,9.88,-9.88,-9.76,-8.00,7.09,7.04,7.05
25.39,16.92,9.88,16.89,9.84,-9.84,-9.74,-8.20,7.08,7.05,7.04
25.65,16.87,9.83,16.86,9.81,-9.81,-9.72,-8.40,7.06,7.05,7.04
25.91,16.82,9.77,16.84,9.78,-9.78,-9.70,-8.61,7.04,7.05,7.05
26.16,16.78,9.72,16.81,9.75,-9.75,-9.68,-8.81,7.03,7.05,7.06
26.43,16.76,9.70,16.78,9.72,-9.72,-9.66,-9.01,7.04,7.06,7.06
26.69,16.73,9.67,16.75,9.69,-9.69,-9.64,-9.22,7.04,7.06,7.06
26.96,16.70,9.64,16.72,9.66,-9.66,-9.62,-9.42,7.04,7.06,7.06
27.23,16.68,9.62,16.69,9.63,-9.63,-9.60,-9.62,7.05,7.06,7.06
27.50,16.65,9.59,16.65,9.59,-9.59,-9.58,-9.82,7.06,7.06,7.06
27.77,16.62,9.55,16.62,9.56,-9.56,-9.55,-10.02,7.07,7.06,7.07
28.05,16.59,9.53,16.58,9.52,-9.52,-9.53,-10.20,7.07,7.06,7.06
28.33,16.57,9.52,16.55,9.49,-9.49,-9.51,-10.38,7.08,7.06,7.05
28.62,16.54,9.49,16.52,9.46,-9.46,-9.49,-10.56,7.08,7.06,7.05
28.90,16.51,9.45,16.48,9.42,-9.42,-9.47,-10.72,7.09,7.06,7.06
29.19,16.46,9.40,16.45,9.39,-9.39,-9.44,-10.87,7.07,7.06,7.06
29.48,16.40,9.34,16.40,9.35,-9.35,-9.42,-11.00,7.05,7.06,7.06
29.78,16.34,9.29,16.36,9.31,-9.31,-9.40,-11.12,7.03,7.05,7.06
30.08,16.29,9.23,16.31,9.26,-9.26,-9.37,-11.23,7.03,7.05,7.06
30.38,16.26,9.21,16.27,9.22,-9.22,-9.35,-11.31,7.04,7.04,7.05
30.68,16.23,9.19,16.22,9.18,-9.18,-9.32,-11.38,7.05,7.04,7.04
30.99,16.20,9.16,16.18,9.14,-9.14,-9.30,-11.43,7.06,7.04,7.04
31.30,16.15,9.12,16.14,9.11,-9.11,-9.27,-11.46,7.05,7.03,7.03
31.61,16.09,9.07,16.10,9.07,-9.07,-9.25,-11.46,7.02,7.02,7.03
31.93,16.03,9.02,16.06,9.04,-9.04,-9.22,-11.45,6.99,7.02,7.01
32.24,15.99,8.98,16.02,9.01,-9.01,-9.20,-11.42,6.98,7.01,7.01
32.57,15.95,8.95,15.99,8.98,-8.98,-9.17,-11.38,6.97,7.01,7.00
32.89,15.91,8.91,15.95,8.95,-8.95,-9.14,-11.31,6.96,7.00,7.00
33.22,15.90,8.91,15.92,8.92,-8.92,-9.12,-11.24,6.98,7.00,6.99
33.55,15.90,8.91,15.88,8.88,-8.88,-9.09,-11.14,7.02,7.00,6.99
33.89,15.90,8.90,15.84,8.84,-8.84,-9.06,-11.04,7.06,6.99,7.00
34.23,15.85,8.86,15.79,8.80,-8.80,-9.04,-10.93,7.05,6.99,6.99
34.57,15.79,8.81,15.75,8.76,-8.76,-9.01,-10.80,7.03,6.99,6.98
34.92,15.72,8.74,15.71,8.72,-8.72,-8.98,-10.67,7.00,6.98,6.98
35.27,15.66,8.67,15.66,8.69,-8.69,-8.95,-10.54,6.97,6.98,6.99
35.62,15.60,8.63,15.62,8.65,-8.65,-8.92,-10.40,6.95,6.97,6.97
35.97,15.54,8.57,15.57,8.61,-8.61,-8.90,-10.25,6.93,6.96,6.97
36.33,15.50,8.54,15.52,8.57,-8.57,-8.87,-10.11,6.93,6.95,6.96
36.70,15.46,8.52,15.47,8.54,-8.54,-8.84,-9.97,6.92,6.94,6.94
37.06,15.42,8.49,15.43,8.50,-8.50,-8.81,-9.82,6.92,6.92,6.93
37.43,15.37,8.46,15.38,8.47,-8.47,-8.78,-9.68,6.90,6.91,6.91
37.81,15.32,8.43,15.33,8.45,-8.45,-8.75,-9.54,6.87,6.89,6.89
38.19,15.28,8.41,15.29,8.42,-8.42,-8.72,-9.40,6.86,6.87,6.87
38.57,15.25,8.41,15.25,8.40,-8.40,-8.69,-9.27,6.85,6.84,6.84
38.95,15.22,8.40,15.21,8.39,-8.39,-8.66,-9.13,6.83,6.82,6.82
39.34,15.17,8.39,15.16,8.37,-8.37,-8.63,-9.01,6.80,6.80,6.79
39.74,15.12,8.35,15.12,8.34,-8.34,-8.60,-8.89,6.78,6.77,6.77
40.14,15.08,8.34,15.07,8.32,-8.32,-8.57,-8.77,6.76,6.75,6.75
40.54,15.04,8.32,15.02,8.30,-8.30,-8.54,-8.66,6.74,6.72,6.72
40.94,15.00,8.31,14.97,8.27,-8.27,-8.51,-8.55,6.73,6.70,6.69
41.35,14.93,8.25,14.92,8.25,-8.25,-8.47,-8.45,6.69,6.68,6.68
41.76,14.85,8.21,14.87,8.21,-8.21,-8.44,-8.35,6.64,6.65,6.64
42.18,14.79,8.16,14.81,8.18,-8.18,-8.41,-8.26,6.61,6.63,6.63
42.60,14.74,8.13,14.75,8.14,-8.14,-8.38,-8.18,6.60,6.61,6.61
43.03,14.69,8.11,14.69,8.11,-8.11,-8.35,-8.10,6.58,6.59,6.58
43.46,14.64,8.08,14.64,8.07,-8.07,-8.32,-8.03,6.57,6.56,6.56
43.90,14.60,8.06,14.59,8.05,-8.05,-8.28,-7.96,6.55,6.54,6.54
44.33,14.54,8.03,14.54,8.02,-8.02,-8.25,-7.90,6.52,6.51,6.51
44.78,14.48,8.00,14.49,8.00,-8.00,-8.22,-7.84,6.48,6.49,6.49
45.23,14.41,7.93,14.44,7.98,-7.98,-8.19,-7.79,6.44,6.46,6.48
45.68,14.34,7.90,14.39,7.96,-7.96,-8.15,-7.75,6.38,6.43,6.44
46.13,14.29,7.89,14.34,7.94,-7.94,-8.12,-7.71,6.35,6.40,6.40
46.60,14.29,7.92,14.29,7.92,-7.92,-8.09,-7.68,6.37,6.37,6.37
47.06,14.28,7.94,14.24,7.90,-7.90,-8.06,-7.65,6.38,6.33,6.34
47.53,14.23,7.92,14.18,7.89,-7.89,-8.02,-7.63,6.34,6.30,6.31
48.01,14.18,7.92,14.13,7.87,-7.87,-7.99,-7.61,6.31,6.26,6.26
48.49,14.11,7.89,14.08,7.85,-7.85,-7.96,-7.59,6.26,6.23,6.22
48.97,14.03,7.85,14.02,7.84,-7.84,-7.93,-7.59,6.19,6.19,6.18
49.46,13.96,7.81,13.97,7.82,-7.82,-7.89,-7.58,6.14,6.15,6.15
49.96,13.89,7.80,13.91,7.81,-7.81,-7.86,-7.58,6.09,6.11,6.09
50.46,13.82,7.76,13.86,7.79,-7.79,-7.83,-7.58,6.03,6.07,6.06
50.96,13.76,7.73,13.80,7.77,-7.77,-7.79,-7.59,5.99,6.03,6.03
51.47,13.73,7.74,13.75,7.75,-7.75,-7.76,-7.60,5.98,5.99,5.99
51.99,13.69,7.74,13.68,7.73,-7.73,-7.73,-7.61,5.96,5.95,5.95
52.51,13.63,7.71,13.62,7.71,-7.71,-7.70,-7.63,5.92,5.91,5.92
53.03,13.58,7.69,13.57,7.69,-7.69,-7.66,-7.65,5.89,5.87,5.89
53.56,13.52,7.67,13.51,7.68,-7.68,-7.63,-7.66,5.85,5.84,5.85
54.10,13.47,7.67,13.46,7.66,-7.66,-7.60,-7.68,5.81,5.80,5.80
54.64,13.41,7.64,13.41,7.64,-7.64,-7.56,-7.70,5.77,5.77,5.77
55.18,13.35,7.63,13.35,7.62,-7.62,-7.53,-7.72,5.74,5.74,5.72
55.74,13.30,7.62,13.29,7.59,-7.59,-7.50,-7.74,5.71,5.70,5.69
56.29,13.24,7.58,13.23,7.56,-7.56,-7.47,-7.76,5.68,5.67,5.66
56.86,13.15,7.52,13.17,7.53,-7.53,-7.43,-7.78,5.62,5.64,5.63
57.42,13.10,7.52,13.10,7.50,-7.50,-7.40,-7.79,5.60,5.60,5.58
58.00,13.06,7.50,13.04,7.47,-7.47,-7.37,-7.80,5.59,5.57,5.56
58.58,12.97,7.43,12.97,7.45,-7.45,-7.34,-7.81,5.53,5.53,5.54
59.16,12.90,7.39,12.90,7.41,-7.41,-7.31,-7.81,5.49,5.49,5.51
59.76,12.86,7.38,12.83,7.38,-7.38,-7.28,-7.81,5.48,5.45,5.48
60.35,12.78,7.35,12.77,7.35,-7.35,-7.24,-7.80,5.43,5.41,5.43
60.96,12.68,7.29,12.71,7.33,-7.33,-7.21,-7.79,5.35,5.37,5.39
61.57,12.64,7.31,12.65,7.32,-7.32,-7.18,-7.78,5.33,5.33,5.34
62.18,12.59,7.31,12.59,7.30,-7.30,-7.15,-7.75,5.29,5.29,5.28
62.80,12.50,7.27,12.53,7.28,-7.28,-7.12,-7.73,5.22,5.25,5.23
63.43,12.44,7.26,12.47,7.27,-7.27,-7.09,-7.69,5.17,5.20,5.18
64.07,12.40,7.25,12.41,7.25,-7.25,-7.06,-7.65,5.15,5.15,5.15
64.71,12.31,7.21,12.35,7.24,-7.24,-7.03,-7.61,5.07,5.11,5.10
65.35,12.27,7.21,12.29,7.23,-7.23,-7.00,-7.56,5.05,5.06,5.06
66.01,12.28,7.27,12.23,7.21,-7.21,-6.97,-7.50,5.07,5.02,5.01
66.67,12.25,7.27,12.17,7.20,-7.20,-6.94,-7.44,5.05,4.97,4.99
67.33,12.17,7.24,12.11,7.19,-7.19,-6.91,-7.38,4.98,4.93,4.93
68.01,12.04,7.16,12.06,7.18,-7.18,-6.88,-7.31,4.86,4.88,4.89
68.69,11.94,7.11,12.00,7.16,-7.16,-6.85,-7.24,4.78,4.84,4.83
69.37,11.89,7.09,11.93,7.14,-7.14,-6.82,-7.17,4.75,4.79,4.80
70.07,11.87,7.12,11.87,7.13,-7.13,-6.80,-7.09,4.74,4.75,4.75
70.77,11.83,7.13,11.81,7.11,-7.11,-6.77,-7.02,4.72,4.70,4.70
71.48,11.75,7.09,11.74,7.09,-7.09,-6.74,-6.94,4.66,4.65,4.66
72.19,11.67,7.07,11.68,7.07,-7.07,-6.71,-6.86,4.60,4.61,4.60
72.91,11.65,7.09,11.61,7.05,-7.05,-6.69,-6.78,4.60,4.56,4.56
73.64,11.53,7.02,11.55,7.03,-7.03,-6.66,-6.70,4.50,4.52,4.51
74.38,11.47,7.00,11.48,7.00,-7.00,-6.63,-6.62,4.47,4.48,4.47
75.12,11.45,7.03,11.42,6.99,-6.99,-6.61,-6.54,4.46,4.44,4.42
75.87,11.34,6.95,11.37,6.97,-6.97,-6.58,-6.47,4.37,4.40,4.39
76.63,11.29,6.94,11.31,6.95,-6.95,-6.56,-6.40,4.34,4.36,4.35
77.40,11.25,6.93,11.24,6.92,-6.92,-6.53,-6.33,4.33,4.32,4.32
78.17,11.19,6.91,11.18,6.89,-6.89,-6.51,-6.26,4.30,4.29,4.28
78.95,11.08,6.82,11.11,6.86,-6.86,-6.48,-6.19,4.22,4.25,4.26
79.74,11.07,6.85,11.05,6.83,-6.83,-6.46,-6.13,4.24,4.22,4.22
80.54,10.98,6.79,10.99,6.80,-6.80,-6.43,-6.07,4.18,4.18,4.19
81.35,10.90,6.75,10.92,6.77,-6.77,-6.41,-6.01,4.13,4.15,4.15
82.16,10.87,6.75,10.86,6.74,-6.74,-6.39,-5.96,4.13,4.12,4.13
82.98,10.87,6.78,10.79,6.71,-6.71,-6.37,-5.91,4.16,4.08,4.09
83.81,10.71,6.66,10.72,6.68,-6.68,-6.34,-5.87,4.04,4.05,4.05
84.65,10.65,6.64,10.66,6.64,-6.64,-6.32,-5.83,4.01,4.01,4.01
85.50,10.56,6.60,10.59,6.61,-6.61,-6.30,-5.79,3.95,3.97,3.96
86.35,10.48,6.55,10.52,6.58,-6.58,-6.28,-5.76,3.90,3.94,3.93
87.22,10.45,6.55,10.45,6.55,-6.55,-6.26,-5.73,3.90,3.90,3.90
88.09,10.39,6.53,10.38,6.52,-6.52,-6.24,-5.71,3.87,3.86,3.86
88.97,10.27,6.44,10.31,6.49,-6.49,-6.22,-5.69,3.78,3.82,3.83
89.86,10.27,6.50,10.24,6.46,-6.46,-6.20,-5.68,3.81,3.78,3.77
90.76,10.19,6.45,10.17,6.43,-6.43,-6.18,-5.67,3.76,3.74,3.74
91.66,10.08,6.39,10.10,6.41,-6.41,-6.16,-5.66,3.67,3.69,3.69
92.58,10.01,6.36,10.02,6.38,-6.38,-6.14,-5.66,3.63,3.65,3.65
93.51,9.96,6.35,9.95,6.36,-6.36,-6.12,-5.66,3.61,3.60,3.61
94.44,9.90,6.34,9.88,6.33,-6.33,-6.10,-5.66,3.57,3.55,3.56
95.39,9.82,6.32,9.80,6.30,-6.30,-6.09,-5.67,3.52,3.50,3.51
96.34,9.72,6.27,9.72,6.27,-6.27,-6.07,-5.68,3.45,3.45,3.45
97.30,9.65,6.26,9.64,6.25,-6.25,-6.05,-5.70,3.40,3.39,3.39
98.28,9.57,6.23,9.55,6.22,-6.22,-6.03,-5.72,3.35,3.34,3.34
99.26,9.45,6.18,9.47,6.19,-6.19,-6.02,-5.74,3.26,3.28,3.27
100.25,9.39,6.18,9.38,6.16,-6.16,-6.00,-5.76,3.23,3.22,3.21
101.25,9.28,6.12,9.30,6.13,-6.13,-5.99,-5.79,3.15,3.17,3.16
102.27,9.18,6.07,9.21,6.10,-6.10,-5.97,-5.82,3.08,3.11,3.11
103.29,9.13,6.08,9.12,6.07,-6.07,-5.95,-5.85,3.06,3.05,3.05
104.32,9.05,6.05,9.03,6.04,-6.04,-5.94,-5.89,3.01,2.99,3.00
105.37,8.93,5.99,8.94,6.01,-6.01,-5.92,-5.92,2.92,2.94,2.94
106.42,8.89,6.01,8.86,5.98,-5.98,-5.91,-5.95,2.91,2.88,2.89
107.48,8.78,5.96,8.78,5.95,-5.95,-5.89,-5.99,2.83,2.83,2.82
108.56,8.67,5.89,8.69,5.92,-5.92,-5.88,-6.03,2.75,2.77,2.78
109.64,8.63,5.91,8.61,5.89,-5.89,-5.86,-6.06,2.74,2.72,2.72
110.74,8.53,5.87,8.53,5.87,-5.87,-5.85,-6.09,2.66,2.67,2.66
111.85,8.41,5.79,8.46,5.84,-5.84,-5.83,-6.13,2.57,2.62,2.62
112.97,8.39,5.82,8.39,5.82,-5.82,-5.82,-6.16,2.57,2.57,2.57
114.10,8.34,5.82,8.31,5.80,-5.80,-5.80,-6.18,2.54,2.52,2.52
115.24,8.20,5.73,8.24,5.77,-5.77,-5.79,-6.21,2.43,2.47,2.47
116.39,8.17,5.76,8.17,5.75,-5.75,-5.77,-6.23,2.42,2.42,2.41
117.55,8.11,5.73,8.11,5.73,-5.73,-5.75,-6.25,2.38,2.38,2.38
118.73,8.01,5.69,8.04,5.70,-5.70,-5.74,-6.26,2.31,2.34,2.32
119.92,8.00,5.71,7.97,5.68,-5.68,-5.72,-6.26,2.32,2.30,2.29
121.12,7.93,5.67,7.91,5.65,-5.65,-5.71,-6.27,2.28,2.26,2.26
122.33,7.85,5.63,7.84,5.63,-5.63,-5.69,-6.26,2.22,2.22,2.22
123.55,7.81,5.62,7.78,5.60,-5.60,-5.67,-6.25,2.21,2.18,2.19
124.79,7.73,5.58,7.72,5.58,-5.58,-5.66,-6.24,2.16,2.14,2.15
126.03,7.64,5.53,7.65,5.55,-5.55,-5.64,-6.21,2.09,2.10,2.11
127.29,7.57,5.50,7.58,5.52,-5.52,-5.62,-6.19,2.05,2.07,2.07
128.57,7.50,5.47,7.52,5.49,-5.49,-5.60,-6.15,2.01,2.03,2.03
129.85,7.45,5.46,7.46,5.47,-5.47,-5.59,-6.11,1.98,1.99,1.99
131.15,7.38,5.43,7.39,5.44,-5.44,-5.57,-6.07,1.94,1.96,1.95
132.46,7.32,5.41,7.33,5.41,-5.41,-5.55,-6.02,1.91,1.92,1.91
133.79,7.27,5.39,7.26,5.38,-5.38,-5.53,-5.96,1.89,1.88,1.88
135.12,7.20,5.36,7.20,5.36,-5.36,-5.51,-5.90,1.85,1.84,1.84
136.48,7.14,5.33,7.13,5.33,-5.33,-5.49,-5.84,1.81,1.81,1.81
137.84,7.08,5.30,7.07,5.30,-5.30,-5.47,-5.77,1.78,1.77,1.78
139.22,7.01,5.29,7.00,5.27,-5.27,-5.44,-5.70,1.74,1.73,1.72
140.61,6.96,5.26,6.94,5.24,-5.24,-5.42,-5.63,1.72,1.70,1.70
142.02,6.89,5.23,6.87,5.21,-5.21,-5.40,-5.56,1.68,1.66,1.66
143.44,6.80,5.18,6.81,5.18,-5.18,-5.37,-5.48,1.62,1.62,1.62
144.87,6.71,5.13,6.74,5.15,-5.15,-5.35,-5.40,1.56,1.59,1.58
146.32,6.67,5.12,6.67,5.11,-5.11,-5.32,-5.32,1.56,1.55,1.55
147.78,6.58,5.06,6.60,5.08,-5.08,-5.29,-5.24,1.50,1.51,1.52
149.26,6.50,5.02,6.52,5.04,-5.04,-5.27,-5.16,1.46,1.48,1.48
150.75,6.47,5.04,6.45,5.01,-5.01,-5.24,-5.09,1.46,1.44,1.43
152.26,6.38,4.98,6.37,4.97,-4.97,-5.21,-5.01,1.41,1.40,1.40
153.78,6.28,4.91,6.30,4.94,-4.94,-5.18,-4.93,1.34,1.36,1.37
155.32,6.27,4.94,6.23,4.91,-4.91,-5.15,-4.86,1.36,1.32,1.33
156.88,6.19,4.90,6.16,4.88,-4.88,-5.12,-4.78,1.31,1.28,1.29
158.44,6.09,4.85,6.09,4.85,-4.85,-5.08,-4.71,1.24,1.24,1.24
160.03,5.99,4.79,6.03,4.83,-4.83,-5.05,-4.64,1.16,1.20,1.20
161.63,5.93,4.77,5.96,4.80,-4.80,-5.02,-4.58,1.13,1.16,1.16
163.24,5.88,4.77,5.89,4.77,-4.77,-4.98,-4.51,1.11,1.11,1.11
164.88,5.80,4.73,5.82,4.75,-4.75,-4.95,-4.45,1.05,1.07,1.07
166.53,5.76,4.74,5.74,4.72,-4.72,-4.91,-4.39,1.04,1.02,1.02
168.19,5.69,4.71,5.67,4.69,-4.69,-4.87,-4.34,1.00,0.98,0.98
169.87,5.64,4.71,5.60,4.67,-4.67,-4.83,-4.28,0.97,0.93,0.93
171.57,5.54,4.65,5.53,4.64,-4.64,-4.79,-4.23,0.90,0.89,0.89
173.29,5.46,4.62,5.46,4.61,-4.61,-4.75,-4.19,0.85,0.85,0.84
175.02,5.39,4.58,5.39,4.59,-4.59,-4.71,-4.14,0.80,0.80,0.81
176.77,5.33,4.57,5.33,4.57,-4.57,-4.67,-4.10,0.76,0.76,0.76
178.54,5.24,4.52,5.27,4.55,-4.55,-4.63,-4.06,0.69,0.72,0.72
180.32,5.18,4.51,5.21,4.52,-4.52,-4.58,-4.03,0.66,0.68,0.68
182.13,5.13,4.49,5.15,4.50,-4.50,-4.54,-4.00,0.63,0.65,0.64
183.95,5.07,4.46,5.09,4.48,-4.48,-4.50,-3.97,0.59,0.61,0.61
185.79,5.03,4.46,5.03,4.46,-4.46,-4.45,-3.94,0.57,0.57,0.57
187.65,4.97,4.43,4.97,4.44,-4.44,-4.40,-3.92,0.53,0.54,0.54
189.52,4.91,4.41,4.92,4.42,-4.42,-4.36,-3.90,0.50,0.50,0.50
191.42,4.88,4.40,4.87,4.40,-4.40,-4.31,-3.89,0.48,0.47,0.48
193.33,4.83,4.39,4.81,4.38,-4.38,-4.26,-3.87,0.45,0.44,0.44
195.27,4.77,4.37,4.76,4.35,-4.35,-4.21,-3.86,0.42,0.40,0.40
197.22,4.73,4.36,4.70,4.32,-4.32,-4.16,-3.85,0.41,0.37,0.37
199.19,4.64,4.30,4.63,4.29,-4.29,-4.11,-3.84,0.35,0.34,0.34
201.18,4.56,4.26,4.57,4.26,-4.26,-4.06,-3.83,0.31,0.31,0.30
203.19,4.49,4.21,4.50,4.22,-4.22,-4.01,-3.83,0.28,0.28,0.28
205.23,4.43,4.18,4.42,4.17,-4.17,-3.96,-3.83,0.26,0.25,0.25
207.28,4.37,4.14,4.34,4.13,-4.13,-3.91,-3.83,0.25,0.22,0.23
209.35,4.30,4.11,4.27,4.08,-4.08,-3.86,-3.83,0.22,0.19,0.19
211.44,4.23,4.07,4.20,4.04,-4.04,-3.81,-3.83,0.19,0.16,0.16
213.56,4.11,3.97,4.13,4.00,-4.00,-3.75,-3.83,0.11,0.13,0.14
215.69,4.00,3.90,4.06,3.96,-3.96,-3.70,-3.83,0.04,0.10,0.10
217.85,3.93,3.85,3.99,3.92,-3.92,-3.65,-3.83,0.01,0.07,0.08
220.03,3.88,3.84,3.92,3.87,-3.87,-3.60,-3.83,0.01,0.05,0.04
222.23,3.84,3.82,3.85,3.83,-3.83,-3.54,-3.83,0.01,0.03,0.02
224.45,3.76,3.76,3.78,3.78,-3.78,-3.49,-3.83,-0.02,0.01,-0.00
226.70,3.73,3.75,3.72,3.73,-3.73,-3.44,-3.83,-0.00,-0.01,-0.02
228.96,3.73,3.76,3.66,3.69,-3.69,-3.38,-3.82,0.04,-0.03,-0.03
231.25,3.66,3.70,3.59,3.64,-3.64,-3.33,-3.81,0.02,-0.05,-0.04
233.57,3.59,3.65,3.54,3.59,-3.59,-3.28,-3.81,-0.00,-0.06,-0.06
235.90,3.52,3.59,3.49,3.55,-3.55,-3.22,-3.79,-0.03,-0.07,-0.07
238.26,3.40,3.48,3.44,3.51,-3.51,-3.17,-3.78,-0.11,-0.07,-0.08
240.64,3.31,3.38,3.39,3.47,-3.47,-3.11,-3.76,-0.16,-0.08,-0.07
243.05,3.27,3.35,3.34,3.42,-3.42,-3.06,-3.74,-0.15,-0.08,-0.08
245.48,3.24,3.33,3.30,3.38,-3.38,-3.01,-3.72,-0.14,-0.08,-0.09
247.93,3.25,3.34,3.25,3.33,-3.33,-2.95,-3.69,-0.08,-0.09,-0.09
250.41,3.24,3.32,3.20,3.29,-3.29,-2.90,-3.65,-0.05,-0.09,-0.08
252.92,3.13,3.21,3.15,3.25,-3.25,-2.85,-3.62,-0.11,-0.09,-0.08
255.45,3.11,3.21,3.11,3.20,-3.20,-2.79,-3.58,-0.09,-0.10,-0.10
258.00,3.11,3.20,3.07,3.17,-3.17,-2.74,-3.53,-0.06,-0.10,-0.09
260.58,3.06,3.16,3.02,3.13,-3.13,-2.69,-3.49,-0.07,-0.11,-0.10
263.19,3.01,3.12,2.98,3.09,-3.09,-2.64,-3.43,-0.08,-0.11,-0.10
265.82,2.93,3.05,2.93,3.05,-3.05,-2.58,-3.38,-0.12,-0.12,-0.12
268.48,2.87,3.00,2.87,3.00,-3.00,-2.53,-3.32,-0.13,-0.13,-0.13
271.16,2.82,2.96,2.81,2.95,-2.95,-2.48,-3.26,-0.13,-0.14,-0.14
273.87,2.73,2.88,2.74,2.89,-2.89,-2.43,-3.20,-0.16,-0.15,-0.15
276.61,2.68,2.84,2.67,2.83,-2.83,-2.38,-3.13,-0.15,-0.16,-0.16
279.38,2.61,2.80,2.60,2.77,-2.77,-2.33,-3.06,-0.16,-0.17,-0.19
282.17,2.54,2.72,2.54,2.71,-2.71,-2.28,-2.99,-0.17,-0.17,-0.18
284.99,2.49,2.68,2.47,2.65,-2.65,-2.23,-2.92,-0.16,-0.18,-0.19
287.84,2.37,2.55,2.40,2.59,-2.59,-2.18,-2.84,-0.21,-0.18,-0.18
290.72,2.32,2.52,2.34,2.52,-2.52,-2.13,-2.77,-0.20,-0.18,-0.19
293.63,2.25,2.44,2.28,2.47,-2.47,-2.08,-2.69,-0.22,-0.19,-0.19
296.57,2.21,2.39,2.23,2.42,-2.42,-2.03,-2.61,-0.21,-0.19,-0.18
299.53,2.17,2.36,2.17,2.36,-2.36,-1.98,-2.53,-0.19,-0.19,-0.19
302.53,2.09,2.27,2.12,2.31,-2.31,-1.93,-2.46,-0.21,-0.19,-0.18
305.55,2.05,2.23,2.07,2.26,-2.26,-1.88,-2.38,-0.20,-0.19,-0.18
308.61,2.00,2.18,2.01,2.20,-2.20,-1.83,-2.30,-0.20,-0.19,-0.18
311.69,1.99,2.18,1.96,2.15,-2.15,-1.79,-2.22,-0.16,-0.19,-0.19
314.81,1.97,2.15,1.91,2.10,-2.10,-1.74,-2.14,-0.13,-0.19,-0.18
317.96,1.87,2.07,1.86,2.05,-2.05,-1.69,-2.07,-0.18,-0.19,-0.20
321.14,1.81,2.00,1.81,2.00,-2.00,-1.64,-1.99,-0.19,-0.19,-0.19
324.35,1.79,1.98,1.75,1.94,-1.94,-1.60,-1.91,-0.15,-0.19,-0.19
327.59,1.68,1.86,1.70,1.89,-1.89,-1.55,-1.84,-0.21,-0.19,-0.18
330.87,1.61,1.80,1.64,1.83,-1.83,-1.51,-1.76,-0.22,-0.19,-0.19
334.18,1.59,1.79,1.57,1.76,-1.76,-1.46,-1.69,-0.17,-0.19,-0.20
337.52,1.51,1.70,1.51,1.70,-1.70,-1.42,-1.61,-0.19,-0.19,-0.19
340.90,1.42,1.61,1.45,1.64,-1.64,-1.37,-1.54,-0.22,-0.19,-0.19
344.30,1.39,1.58,1.39,1.57,-1.57,-1.33,-1.47,-0.18,-0.19,-0.19
347.75,1.33,1.51,1.33,1.51,-1.51,-1.28,-1.40,-0.18,-0.18,-0.18
351.23,1.28,1.47,1.27,1.45,-1.45,-1.24,-1.33,-0.17,-0.18,-0.19
354.74,1.22,1.39,1.22,1.39,-1.39,-1.19,-1.26,-0.17,-0.17,-0.17
358.28,1.15,1.32,1.17,1.34,-1.34,-1.15,-1.19,-0.18,-0.17,-0.17
361.87,1.10,1.27,1.11,1.28,-1.28,-1.11,-1.13,-0.18,-0.16,-0.17
365.49,1.02,1.18,1.06,1.22,-1.22,-1.06,-1.06,-0.20,-0.16,-0.16
369.14,1.01,1.16,1.01,1.16,-1.16,-1.02,-0.99,-0.15,-0.15,-0.15
372.83,0.98,1.12,0.96,1.11,-1.11,-0.98,-0.93,-0.13,-0.15,-0.14
376.56,0.94,1.08,0.91,1.06,-1.06,-0.94,-0.87,-0.12,-0.14,-0.14
380.33,0.87,1.01,0.86,1.01,-1.01,-0.89,-0.80,-0.14,-0.14,-0.14
384.13,0.83,0.96,0.81,0.96,-0.96,-0.85,-0.74,-0.13,-0.14,-0.13
387.97,0.77,0.91,0.76,0.91,-0.91,-0.81,-0.68,-0.13,-0.14,-0.14
391.85,0.70,0.84,0.70,0.85,-0.85,-0.77,-0.62,-0.15,-0.15,-0.14
395.77,0.65,0.80,0.65,0.80,-0.80,-0.73,-0.56,-0.15,-0.15,-0.15
399.73,0.56,0.71,0.59,0.75,-0.75,-0.69,-0.51,-0.19,-0.15,-0.15
403.72,0.54,0.68,0.54,0.70,-0.70,-0.64,-0.45,-0.16,-0.16,-0.14
407.76,0.55,0.71,0.48,0.64,-0.64,-0.60,-0.39,-0.09,-0.16,-0.16
411.84,0.44,0.60,0.42,0.58,-0.58,-0.56,-0.34,-0.14,-0.16,-0.16
415.96,0.35,0.51,0.37,0.53,-0.53,-0.52,-0.28,-0.18,-0.16,-0.16
420.12,0.32,0.50,0.32,0.48,-0.48,-0.48,-0.23,-0.16,-0.16,-0.17
424.32,0.26,0.43,0.27,0.43,-0.43,-0.44,-0.17,-0.16,-0.15,-0.17
428.56,0.18,0.33,0.23,0.37,-0.37,-0.40,-0.12,-0.19,-0.14,-0.15
432.85,0.16,0.29,0.20,0.32,-0.32,-0.36,-0.07,-0.16,-0.12,-0.13
437.18,0.21,0.33,0.18,0.27,-0.27,-0.32,-0.02,-0.06,-0.09,-0.12
441.55,0.17,0.25,0.16,0.22,-0.22,-0.28,0.03,-0.05,-0.06,-0.08
445.96,0.08,0.12,0.15,0.18,-0.18,-0.24,0.08,-0.10,-0.02,-0.04
450.42,0.12,0.12,0.15,0.13,-0.13,-0.20,0.12,-0.01,0.02,-0.00
454.93,0.15,0.10,0.15,0.08,-0.08,-0.16,0.17,0.07,0.07,0.05
459.48,0.15,0.04,0.15,0.04,-0.04,-0.12,0.21,0.11,0.12,0.11
464.07,0.13,-0.05,0.17,-0.00,0.00,-0.08,0.25,0.13,0.17,0.18
468.71,0.17,-0.06,0.18,-0.04,0.04,-0.04,0.30,0.21,0.23,0.23
473.40,0.22,-0.07,0.19,-0.09,0.09,-0.00,0.34,0.31,0.28,0.29
478.13,0.25,-0.10,0.20,-0.13,0.13,0.04,0.38,0.38,0.33,0.35
482.91,0.21,-0.18,0.21,-0.18,0.18,0.08,0.41,0.39,0.38,0.40
487.74,0.25,-0.18,0.20,-0.23,0.23,0.12,0.45,0.48,0.43,0.44
492.62,0.23,-0.24,0.20,-0.27,0.27,0.16,0.49,0.50,0.47,0.47
