frequency,raw,error,smoothed,error_smoothed,equalization,parametric_eq,fixed_band_eq,equalized_raw,equalized_smoothed,target
20.00,2.65,-0.95,2.66,-0.95,0.96,0.70,0.13,3.62,3.62,3.61
20.20,2.64,-0.94,2.64,-0.94,0.95,0.69,0.14,3.59,3.59,3.59
20.40,2.63,-0.93,2.63,-0.94,0.94,0.69,0.14,3.57,3.57,3.57
20.61,2.63,-0.92,2.63,-0.93,0.92,0.68,0.15,3.55,3.55,3.56
20.81,2.62,-0.91,2.62,-0.91,0.90,0.68,0.15,3.52,3.52,3.53
21.02,2.61,-0.91,2.63,-0.90,0.88,0.67,0.16,3.49,3.50,3.52
21.23,2.64,-0.86,2.64,-0.87,0.85,0.66,0.16,3.50,3.49,3.50
21.44,2.66,-0.83,2.66,-0.83,0.82,0.66,0.17,3.49,3.49,3.49
21.66,2.69,-0.79,2.69,-0.78,0.79,0.65,0.17,3.48,3.48,3.48
21.87,2.72,-0.74,2.72,-0.74,0.75,0.65,0.18,3.48,3.47,3.46
22.09,2.74,-0.71,2.74,-0.71,0.71,0.64,0.19,3.46,3.46,3.45
22.31,2.76,-0.68,2.77,-0.67,0.67,0.63,0.19,3.44,3.44,3.44
22.54,2.78,-0.65,2.79,-0.64,0.64,0.63,0.20,3.42,3.43,3.43
22.76,2.81,-0.61,2.81,-0.61,0.61,0.62,0.21,3.42,3.42,3.42
22.99,2.83,-0.57,2.83,-0.58,0.58,0.61,0.21,3.42,3.41,3.41
23.22,2.84,-0.55,2.85,-0.55,0.56,0.61,0.22,3.40,3.41,3.40
23.45,2.85,-0.54,2.85,-0.54,0.54,0.60,0.23,3.39,3.40,3.40
23.69,2.86,-0.52,2.86,-0.52,0.52,0.59,0.24,3.39,3.39,3.39
23.92,2.87,-0.51,2.87,-0.51,0.51,0.59,0.24,3.38,3.38,3.39
24.16,2.88,-0.50,2.88,-0.50,0.50,0.58,0.25,3.38,3.38,3.38
24.40,2.89,-0.49,2.89,-0.49,0.49,0.57,0.26,3.38,3.38,3.38
24.65,2.90,-0.48,2.90,-0.48,0.48,0.56,0.27,3.38,3.38,3.38
24.89,2.91,-0.47,2.91,-0.47,0.47,0.56,0.28,3.39,3.39,3.38
25.14,2.92,-0.46,2.92,-0.46,0.47,0.55,0.28,3.39,3.39,3.38
25.39,2.92,-0.46,2.92,-0.46,0.46,0.54,0.29,3.39,3.38,3.38
25.65,2.92,-0.46,2.92,-0.46,0.45,0.53,0.30,3.38,3.38,3.38
25.91,2.92,-0.46,2.93,-0.45,0.44,0.52,0.31,3.37,3.37,3.39
26.16,2.94,-0.44,2.94,-0.44,0.43,0.52,0.31,3.38,3.37,3.39
26.43,2.96,-0.42,2.96,-0.42,0.42,0.51,0.32,3.38,3.38,3.39
26.69,2.98,-0.40,2.99,-0.40,0.40,0.50,0.33,3.38,3.39,3.38
26.96,3.01,-0.37,3.01,-0.38,0.38,0.49,0.34,3.39,3.39,3.38
27.23,3.02,-0.36,3.03,-0.35,0.36,0.48,0.34,3.38,3.39,3.38
27.50,3.04,-0.34,3.05,-0.34,0.34,0.47,0.35,3.38,3.38,3.38
27.77,3.06,-0.32,3.06,-0.32,0.32,0.46,0.35,3.38,3.38,3.38
28.05,3.07,-0.30,3.07,-0.30,0.30,0.45,0.36,3.37,3.37,3.38
28.33,3.08,-0.28,3.09,-0.28,0.28,0.44,0.36,3.37,3.37,3.37
28.62,3.09,-0.27,3.10,-0.27,0.27,0.43,0.37,3.36,3.37,3.36
28.90,3.11,-0.25,3.11,-0.25,0.26,0.42,0.37,3.37,3.37,3.36
29.19,3.11,-0.25,3.11,-0.25,0.25,0.41,0.37,3.37,3.37,3.36
29.48,3.11,-0.25,3.12,-0.24,0.25,0.40,0.37,3.36,3.36,3.36
29.78,3.11,-0.24,3.11,-0.24,0.24,0.39,0.37,3.36,3.36,3.36
30.08,3.11,-0.24,3.11,-0.24,0.24,0.38,0.37,3.35,3.35,3.36
30.38,3.11,-0.24,3.11,-0.24,0.24,0.37,0.37,3.35,3.35,3.35
30.68,3.11,-0.23,3.11,-0.23,0.23,0.36,0.37,3.35,3.35,3.34
30.99,3.11,-0.23,3.11,-0.22,0.23,0.35,0.37,3.34,3.34,3.34
31.30,3.11,-0.21,3.11,-0.22,0.22,0.34,0.36,3.33,3.33,3.33
31.61,3.11,-0.21,3.11,-0.21,0.20,0.33,0.36,3.32,3.32,3.33
31.93,3.11,-0.21,3.12,-0.20,0.18,0.31,0.35,3.30,3.30,3.32
32.24,3.13,-0.18,3.14,-0.17,0.16,0.30,0.35,3.29,3.30,3.31
32.57,3.17,-0.13,3.17,-0.14,0.13,0.29,0.34,3.31,3.30,3.31
32.89,3.20,-0.10,3.20,-0.10,0.10,0.28,0.33,3.31,3.31,3.31
33.22,3.23,-0.07,3.24,-0.07,0.08,0.26,0.32,3.31,3.31,3.30
33.55,3.26,-0.04,3.27,-0.04,0.05,0.25,0.31,3.31,3.32,3.30
33.89,3.29,-0.01,3.29,-0.01,0.03,0.24,0.30,3.32,3.32,3.31
34.23,3.30,-0.00,3.30,-0.00,0.01,0.23,0.28,3.32,3.31,3.30
34.57,3.30,0.00,3.31,0.00,0.00,0.21,0.27,3.31,3.31,3.30
34.92,3.30,-0.00,3.30,-0.00,-0.00,0.20,0.26,3.30,3.30,3.31
35.27,3.30,-0.00,3.30,-0.00,-0.00,0.18,0.24,3.30,3.30,3.30
35.62,3.30,-0.01,3.30,-0.00,-0.00,0.17,0.23,3.30,3.30,3.31
35.97,3.30,-0.00,3.30,-0.00,-0.00,0.16,0.21,3.30,3.30,3.31
36.33,3.30,0.00,3.30,-0.00,-0.00,0.14,0.19,3.30,3.30,3.30
36.70,3.30,0.00,3.30,0.00,-0.01,0.13,0.18,3.30,3.30,3.30
37.06,3.30,0.01,3.30,0.01,-0.01,0.11,0.16,3.29,3.29,3.30
37.43,3.30,0.02,3.30,0.02,-0.02,0.10,0.14,3.28,3.28,3.28
37.81,3.30,0.03,3.30,0.03,-0.03,0.08,0.13,3.27,3.27,3.28
38.19,3.30,0.04,3.30,0.04,-0.04,0.06,0.11,3.26,3.26,3.26
38.57,3.30,0.06,3.30,0.06,-0.05,0.05,0.09,3.25,3.25,3.25
38.95,3.30,0.07,3.30,0.07,-0.06,0.03,0.07,3.24,3.24,3.23
39.34,3.30,0.09,3.30,0.08,-0.08,0.02,0.05,3.23,3.23,3.22
39.74,3.30,0.09,3.30,0.10,-0.09,-0.00,0.04,3.21,3.21,3.21
40.14,3.30,0.11,3.30,0.10,-0.11,-0.02,0.02,3.19,3.19,3.20
40.54,3.30,0.12,3.30,0.12,-0.13,-0.03,-0.00,3.17,3.17,3.18
40.94,3.30,0.13,3.32,0.14,-0.16,-0.05,-0.02,3.15,3.16,3.18
41.35,3.34,0.17,3.34,0.18,-0.18,-0.07,-0.04,3.16,3.16,3.17
41.76,3.38,0.23,3.38,0.22,-0.21,-0.09,-0.06,3.17,3.17,3.15
42.18,3.41,0.27,3.41,0.26,-0.24,-0.11,-0.08,3.17,3.16,3.15
42.60,3.42,0.27,3.42,0.28,-0.27,-0.12,-0.10,3.15,3.15,3.15
43.03,3.43,0.29,3.44,0.30,-0.30,-0.14,-0.11,3.13,3.14,3.14
43.46,3.46,0.33,3.47,0.33,-0.33,-0.16,-0.13,3.14,3.14,3.14
43.90,3.49,0.35,3.49,0.35,-0.34,-0.18,-0.15,3.15,3.14,3.14
44.33,3.50,0.37,3.50,0.37,-0.36,-0.20,-0.17,3.15,3.14,3.13
44.78,3.49,0.37,3.50,0.37,-0.37,-0.22,-0.19,3.13,3.13,3.12
45.23,3.49,0.37,3.50,0.37,-0.38,-0.24,-0.21,3.12,3.12,3.12
45.68,3.49,0.38,3.49,0.38,-0.38,-0.26,-0.23,3.11,3.11,3.12
46.13,3.49,0.39,3.49,0.39,-0.39,-0.28,-0.25,3.10,3.10,3.11
46.60,3.49,0.40,3.49,0.40,-0.40,-0.30,-0.27,3.10,3.10,3.10
47.06,3.49,0.41,3.49,0.40,-0.41,-0.32,-0.29,3.09,3.09,3.09
47.53,3.49,0.42,3.49,0.42,-0.42,-0.35,-0.31,3.08,3.08,3.08
48.01,3.49,0.43,3.49,0.43,-0.43,-0.37,-0.33,3.06,3.06,3.07
48.49,3.49,0.45,3.49,0.44,-0.44,-0.39,-0.35,3.05,3.05,3.05
48.97,3.49,0.46,3.49,0.46,-0.46,-0.41,-0.37,3.04,3.04,3.04
49.46,3.49,0.47,3.49,0.47,-0.47,-0.43,-0.39,3.02,3.02,3.02
49.96,3.49,0.49,3.49,0.49,-0.49,-0.46,-0.41,3.01,3.01,3.00
50.46,3.49,0.50,3.49,0.50,-0.50,-0.48,-0.43,2.99,2.99,2.99
50.96,3.49,0.52,3.49,0.52,-0.51,-0.50,-0.45,2.98,2.98,2.98
51.47,3.49,0.53,3.49,0.53,-0.53,-0.53,-0.47,2.96,2.96,2.97
51.99,3.49,0.54,3.49,0.54,-0.54,-0.55,-0.49,2.95,2.95,2.95
52.51,3.49,0.56,3.49,0.56,-0.56,-0.58,-0.51,2.94,2.94,2.94
53.03,3.49,0.57,3.49,0.57,-0.57,-0.60,-0.53,2.92,2.92,2.92
53.56,3.49,0.59,3.49,0.59,-0.59,-0.63,-0.55,2.91,2.91,2.91
54.10,3.49,0.60,3.49,0.60,-0.60,-0.65,-0.57,2.89,2.89,2.89
54.64,3.49,0.62,3.49,0.62,-0.62,-0.68,-0.60,2.88,2.88,2.88
55.18,3.49,0.63,3.49,0.63,-0.63,-0.70,-0.62,2.86,2.86,2.86
55.74,3.49,0.65,3.49,0.65,-0.64,-0.73,-0.64,2.85,2.85,2.84
56.29,3.49,0.67,3.49,0.67,-0.66,-0.75,-0.66,2.83,2.83,2.83
56.86,3.49,0.69,3.49,0.69,-0.68,-0.78,-0.68,2.81,2.81,2.81
57.42,3.49,0.70,3.49,0.70,-0.70,-0.81,-0.71,2.79,2.79,2.79
58.00,3.49,0.71,3.49,0.71,-0.73,-0.83,-0.73,2.76,2.76,2.78
58.58,3.49,0.73,3.50,0.74,-0.76,-0.86,-0.75,2.73,2.74,2.76
59.16,3.51,0.77,3.53,0.79,-0.80,-0.89,-0.78,2.72,2.73,2.74
59.76,3.57,0.86,3.56,0.84,-0.83,-0.92,-0.80,2.74,2.73,2.72
60.35,3.59,0.90,3.59,0.89,-0.87,-0.94,-0.83,2.73,2.72,2.70
60.96,3.59,0.92,3.60,0.92,-0.90,-0.97,-0.85,2.69,2.69,2.67
61.57,3.59,0.94,3.60,0.95,-0.94,-1.00,-0.88,2.65,2.66,2.65
62.18,3.59,0.97,3.59,0.97,-0.97,-1.03,-0.90,2.62,2.62,2.63
62.80,3.59,1.00,3.59,1.00,-1.00,-1.06,-0.93,2.59,2.59,2.59
63.43,3.59,1.03,3.59,1.03,-1.03,-1.09,-0.95,2.56,2.56,2.57
64.07,3.59,1.05,3.59,1.06,-1.06,-1.12,-0.98,2.54,2.54,2.54
64.71,3.59,1.09,3.59,1.09,-1.09,-1.15,-1.01,2.51,2.51,2.51
65.35,3.59,1.12,3.59,1.12,-1.12,-1.19,-1.04,2.48,2.48,2.48
66.01,3.59,1.15,3.59,1.15,-1.15,-1.22,-1.07,2.44,2.44,2.44
66.67,3.59,1.18,3.59,1.19,-1.19,-1.25,-1.09,2.41,2.41,2.41
67.33,3.59,1.22,3.59,1.22,-1.22,-1.28,-1.12,2.37,2.37,2.37
68.01,3.59,1.25,3.59,1.26,-1.26,-1.32,-1.15,2.34,2.34,2.34
68.69,3.59,1.29,3.59,1.29,-1.29,-1.35,-1.19,2.30,2.30,2.30
69.37,3.59,1.33,3.59,1.33,-1.33,-1.39,-1.22,2.27,2.27,2.27
70.07,3.59,1.37,3.59,1.37,-1.37,-1.42,-1.25,2.23,2.23,2.22
70.77,3.59,1.40,3.59,1.40,-1.40,-1.46,-1.28,2.19,2.19,2.19
71.48,3.59,1.44,3.59,1.44,-1.44,-1.50,-1.32,2.15,2.15,2.16
72.19,3.59,1.48,3.59,1.48,-1.48,-1.54,-1.35,2.11,2.11,2.11
72.91,3.59,1.52,3.59,1.52,-1.52,-1.57,-1.39,2.08,2.08,2.07
73.64,3.59,1.56,3.59,1.56,-1.56,-1.61,-1.43,2.04,2.04,2.04
74.38,3.59,1.59,3.59,1.60,-1.60,-1.65,-1.46,2.00,2.00,2.00
75.12,3.59,1.64,3.59,1.64,-1.64,-1.70,-1.50,1.96,1.96,1.95
75.87,3.59,1.68,3.59,1.68,-1.68,-1.74,-1.54,1.91,1.91,1.91
76.63,3.59,1.72,3.59,1.72,-1.72,-1.78,-1.59,1.87,1.87,1.87
77.40,3.59,1.76,3.59,1.76,-1.76,-1.83,-1.63,1.83,1.83,1.83
78.17,3.59,1.80,3.59,1.80,-1.80,-1.87,-1.67,1.79,1.79,1.79
78.95,3.59,1.85,3.59,1.85,-1.85,-1.91,-1.72,1.75,1.75,1.75
79.74,3.59,1.89,3.59,1.89,-1.89,-1.96,-1.77,1.70,1.70,1.70
80.54,3.59,1.93,3.59,1.93,-1.93,-2.01,-1.82,1.66,1.66,1.66
81.35,3.59,1.98,3.59,1.98,-1.98,-2.05,-1.87,1.61,1.61,1.61
82.16,3.59,2.02,3.59,2.02,-2.03,-2.10,-1.92,1.57,1.57,1.57
82.98,3.59,2.07,3.59,2.07,-2.07,-2.15,-1.97,1.52,1.52,1.52
83.81,3.59,2.12,3.59,2.12,-2.12,-2.20,-2.03,1.47,1.47,1.48
84.65,3.59,2.17,3.59,2.17,-2.17,-2.25,-2.08,1.42,1.42,1.43
85.50,3.59,2.22,3.59,2.22,-2.22,-2.29,-2.14,1.38,1.38,1.37
86.35,3.59,2.27,3.59,2.27,-2.27,-2.34,-2.20,1.32,1.32,1.32
87.22,3.59,2.32,3.59,2.32,-2.32,-2.39,-2.26,1.27,1.27,1.27
88.09,3.59,2.37,3.59,2.37,-2.38,-2.44,-2.33,1.22,1.22,1.22
88.97,3.59,2.42,3.59,2.43,-2.43,-2.49,-2.39,1.16,1.16,1.17
89.86,3.59,2.49,3.60,2.49,-2.49,-2.54,-2.46,1.11,1.11,1.11
90.76,3.60,2.55,3.60,2.55,-2.55,-2.60,-2.53,1.06,1.05,1.06
91.66,3.60,2.61,3.60,2.61,-2.61,-2.65,-2.60,1.00,1.00,0.99
92.58,3.60,2.66,3.60,2.67,-2.67,-2.70,-2.67,0.94,0.94,0.94
93.51,3.60,2.73,3.60,2.73,-2.73,-2.75,-2.74,0.87,0.88,0.88
94.44,3.60,2.79,3.60,2.79,-2.79,-2.80,-2.82,0.81,0.81,0.81
95.39,3.60,2.86,3.60,2.85,-2.85,-2.85,-2.90,0.75,0.75,0.75
96.34,3.59,2.91,3.60,2.92,-2.92,-2.90,-2.98,0.68,0.68,0.68
97.30,3.59,2.99,3.59,2.98,-2.98,-2.95,-3.05,0.62,0.61,0.61
98.28,3.58,3.04,3.58,3.04,-3.04,-3.00,-3.14,0.54,0.54,0.54
99.26,3.56,3.10,3.57,3.10,-3.10,-3.06,-3.22,0.46,0.47,0.47
100.25,3.55,3.16,3.55,3.16,-3.16,-3.11,-3.30,0.39,0.39,0.39
101.25,3.53,3.22,3.54,3.22,-3.22,-3.16,-3.39,0.31,0.31,0.31
102.27,3.52,3.29,3.52,3.28,-3.28,-3.21,-3.47,0.24,0.24,0.24
103.29,3.50,3.34,3.50,3.34,-3.34,-3.26,-3.56,0.16,0.16,0.16
104.32,3.48,3.40,3.49,3.40,-3.40,-3.31,-3.64,0.08,0.09,0.09
105.37,3.46,3.45,3.46,3.46,-3.46,-3.36,-3.73,0.01,0.01,0.01
106.42,3.44,3.52,3.44,3.51,-3.51,-3.41,-3.81,-0.07,-0.07,-0.08
107.48,3.41,3.57,3.42,3.57,-3.56,-3.47,-3.89,-0.15,-0.15,-0.15
108.56,3.39,3.61,3.39,3.62,-3.62,-3.52,-3.98,-0.22,-0.22,-0.22
109.64,3.37,3.67,3.37,3.67,-3.67,-3.57,-4.06,-0.29,-0.30,-0.30
110.74,3.35,3.73,3.35,3.72,-3.72,-3.62,-4.14,-0.37,-0.37,-0.37
111.85,3.33,3.77,3.34,3.77,-3.78,-3.67,-4.22,-0.44,-0.44,-0.44
112.97,3.32,3.83,3.32,3.83,-3.83,-3.72,-4.29,-0.51,-0.51,-0.50
114.10,3.31,3.88,3.31,3.88,-3.89,-3.77,-4.36,-0.58,-0.57,-0.57
115.24,3.31,3.95,3.31,3.95,-3.95,-3.82,-4.43,-0.64,-0.64,-0.63
116.39,3.31,4.01,3.32,4.01,-4.01,-3.87,-4.50,-0.70,-0.69,-0.70
117.55,3.32,4.07,3.32,4.07,-4.07,-3.92,-4.56,-0.75,-0.75,-0.75
118.73,3.32,4.14,3.33,4.14,-4.14,-3.97,-4.62,-0.81,-0.81,-0.81
119.92,3.33,4.20,3.33,4.20,-4.20,-4.02,-4.67,-0.86,-0.86,-0.87
121.12,3.34,4.26,3.34,4.26,-4.26,-4.07,-4.72,-0.92,-0.92,-0.92
122.33,3.34,4.32,3.35,4.32,-4.32,-4.11,-4.76,-0.98,-0.97,-0.97
123.55,3.35,4.38,3.36,4.38,-4.38,-4.16,-4.80,-1.03,-1.03,-1.02
124.79,3.36,4.44,3.36,4.44,-4.45,-4.21,-4.83,-1.08,-1.08,-1.08
126.03,3.37,4.50,3.37,4.50,-4.51,-4.26,-4.87,-1.13,-1.13,-1.13
127.29,3.37,4.55,3.38,4.55,-4.56,-4.30,-4.89,-1.19,-1.18,-1.18
128.57,3.38,4.61,3.39,4.61,-4.61,-4.35,-4.91,-1.23,-1.23,-1.23
129.85,3.39,4.67,3.40,4.67,-4.65,-4.40,-4.92,-1.26,-1.26,-1.27
131.15,3.39,4.72,3.39,4.71,-4.69,-4.44,-4.93,-1.30,-1.30,-1.32
132.46,3.38,4.75,3.37,4.74,-4.72,-4.49,-4.93,-1.33,-1.35,-1.37
133.79,3.32,4.74,3.34,4.75,-4.74,-4.53,-4.94,-1.42,-1.40,-1.42
135.12,3.30,4.77,3.29,4.76,-4.76,-4.58,-4.93,-1.46,-1.47,-1.46
136.48,3.25,4.76,3.26,4.76,-4.79,-4.62,-4.93,-1.53,-1.53,-1.51
137.84,3.22,4.78,3.23,4.79,-4.81,-4.67,-4.92,-1.59,-1.58,-1.55
139.22,3.22,4.83,3.22,4.82,-4.84,-4.71,-4.91,-1.62,-1.62,-1.61
140.61,3.22,4.87,3.22,4.87,-4.88,-4.75,-4.89,-1.65,-1.66,-1.65
142.02,3.22,4.92,3.22,4.93,-4.92,-4.79,-4.88,-1.69,-1.69,-1.70
143.44,3.22,4.98,3.22,4.97,-4.97,-4.84,-4.87,-1.74,-1.74,-1.75
144.87,3.22,5.03,3.22,5.02,-5.02,-4.88,-4.85,-1.79,-1.79,-1.80
146.32,3.22,5.07,3.22,5.07,-5.07,-4.92,-4.83,-1.84,-1.84,-1.84
147.78,3.22,5.11,3.22,5.11,-5.11,-4.96,-4.82,-1.89,-1.89,-1.89
149.26,3.22,5.16,3.22,5.16,-5.16,-5.00,-4.80,-1.94,-1.94,-1.94
150.75,3.22,5.21,3.22,5.21,-5.21,-5.04,-4.79,-1.98,-1.98,-1.99
152.26,3.22,5.26,3.22,5.25,-5.25,-5.08,-4.77,-2.03,-2.03,-2.03
153.78,3.22,5.29,3.22,5.29,-5.29,-5.11,-4.76,-2.07,-2.07,-2.07
155.32,3.22,5.34,3.22,5.34,-5.34,-5.15,-4.75,-2.11,-2.11,-2.11
156.88,3.22,5.38,3.22,5.38,-5.38,-5.19,-4.74,-2.16,-2.16,-2.16
158.44,3.22,5.42,3.22,5.42,-5.43,-5.22,-4.74,-2.20,-2.20,-2.20
160.03,3.22,5.46,3.22,5.47,-5.47,-5.26,-4.74,-2.25,-2.25,-2.24
161.63,3.22,5.52,3.22,5.51,-5.52,-5.29,-4.74,-2.30,-2.30,-2.29
163.24,3.22,5.56,3.22,5.56,-5.56,-5.33,-4.74,-2.34,-2.34,-2.33
164.88,3.22,5.60,3.22,5.60,-5.60,-5.36,-4.75,-2.37,-2.38,-2.37
166.53,3.21,5.63,3.22,5.63,-5.62,-5.39,-4.75,-2.41,-2.40,-2.41
168.19,3.21,5.66,3.21,5.66,-5.64,-5.42,-4.77,-2.43,-2.43,-2.45
169.87,3.20,5.69,3.19,5.68,-5.65,-5.45,-4.78,-2.44,-2.46,-2.49
171.57,3.14,5.67,3.15,5.67,-5.65,-5.48,-4.80,-2.51,-2.50,-2.53
173.29,3.09,5.66,3.09,5.65,-5.65,-5.51,-4.83,-2.56,-2.56,-2.56
175.02,3.02,5.61,3.03,5.62,-5.65,-5.54,-4.85,-2.63,-2.62,-2.59
176.77,2.99,5.62,3.00,5.62,-5.65,-5.57,-4.88,-2.66,-2.65,-2.62
178.54,2.99,5.65,2.99,5.64,-5.66,-5.60,-4.92,-2.67,-2.67,-2.66
180.32,2.99,5.67,2.99,5.67,-5.67,-5.62,-4.96,-2.68,-2.68,-2.68
182.13,2.99,5.70,3.00,5.70,-5.70,-5.65,-5.00,-2.70,-2.70,-2.70
183.95,3.00,5.73,3.01,5.73,-5.73,-5.68,-5.04,-2.72,-2.72,-2.72
185.79,3.02,5.77,3.02,5.77,-5.76,-5.70,-5.09,-2.74,-2.74,-2.74
187.65,3.03,5.80,3.04,5.80,-5.80,-5.72,-5.15,-2.77,-2.76,-2.77
189.52,3.05,5.84,3.05,5.83,-5.84,-5.74,-5.20,-2.78,-2.78,-2.79
191.42,3.06,5.86,3.06,5.86,-5.87,-5.77,-5.26,-2.80,-2.80,-2.79
193.33,3.07,5.89,3.08,5.89,-5.89,-5.79,-5.32,-2.82,-2.81,-2.81
195.27,3.09,5.93,3.09,5.93,-5.91,-5.81,-5.39,-2.82,-2.82,-2.83
197.22,3.10,5.95,3.10,5.95,-5.93,-5.83,-5.46,-2.83,-2.83,-2.85
199.19,3.09,5.96,3.08,5.95,-5.94,-5.84,-5.53,-2.85,-2.86,-2.87
201.18,3.05,5.94,3.06,5.95,-5.95,-5.86,-5.60,-2.90,-2.89,-2.88
203.19,3.03,5.93,3.04,5.94,-5.95,-5.88,-5.68,-2.92,-2.91,-2.90
205.23,3.03,5.95,3.04,5.95,-5.95,-5.89,-5.76,-2.92,-2.91,-2.92
207.28,3.03,5.96,3.02,5.96,-5.94,-5.91,-5.83,-2.91,-2.92,-2.93
209.35,3.01,5.96,3.00,5.95,-5.94,-5.92,-5.91,-2.93,-2.94,-2.94
211.44,2.95,5.92,2.97,5.93,-5.94,-5.93,-5.99,-2.99,-2.98,-2.97
213.56,2.93,5.92,2.94,5.92,-5.94,-5.94,-6.07,-3.01,-3.01,-2.98
215.69,2.92,5.93,2.92,5.93,-5.95,-5.96,-6.15,-3.02,-3.02,-3.01
217.85,2.92,5.94,2.92,5.94,-5.94,-5.96,-6.23,-3.02,-3.02,-3.02
220.03,2.92,5.96,2.93,5.96,-5.94,-5.97,-6.31,-3.02,-3.01,-3.04
222.23,2.91,5.97,2.91,5.96,-5.94,-5.98,-6.38,-3.02,-3.03,-3.05
224.45,2.90,5.97,2.88,5.95,-5.94,-5.99,-6.45,-3.04,-3.06,-3.06
226.70,2.83,5.91,2.85,5.93,-5.94,-5.99,-6.52,-3.11,-3.09,-3.08
228.96,2.82,5.91,2.83,5.92,-5.94,-6.00,-6.58,-3.12,-3.11,-3.09
231.25,2.83,5.92,2.83,5.92,-5.94,-6.00,-6.64,-3.11,-3.11,-3.09
233.57,2.84,5.94,2.85,5.94,-5.94,-6.01,-6.69,-3.09,-3.09,-3.10
235.90,2.85,5.96,2.85,5.95,-5.93,-6.01,-6.74,-3.08,-3.09,-3.11
238.26,2.85,5.96,2.84,5.95,-5.93,-6.01,-6.78,-3.08,-3.09,-3.11
240.64,2.81,5.92,2.83,5.93,-5.93,-6.01,-6.81,-3.12,-3.11,-3.10
243.05,2.81,5.92,2.83,5.93,-5.93,-6.01,-6.84,-3.11,-3.10,-3.10
245.48,2.82,5.93,2.82,5.93,-5.92,-6.01,-6.85,-3.10,-3.10,-3.10
247.93,2.85,5.95,2.82,5.92,-5.92,-6.01,-6.86,-3.07,-3.10,-3.10
250.41,2.79,5.89,2.81,5.91,-5.92,-6.00,-6.86,-3.12,-3.11,-3.10
252.92,2.79,5.89,2.80,5.90,-5.92,-6.00,-6.85,-3.13,-3.12,-3.10
255.45,2.80,5.91,2.80,5.90,-5.92,-5.99,-6.83,-3.12,-3.13,-3.10
258.00,2.81,5.91,2.81,5.91,-5.92,-5.99,-6.81,-3.11,-3.11,-3.10
260.58,2.82,5.93,2.83,5.94,-5.91,-5.98,-6.77,-3.09,-3.09,-3.11
263.19,2.82,5.94,2.83,5.94,-5.90,-5.97,-6.73,-3.08,-3.07,-3.11
265.82,2.82,5.95,2.80,5.93,-5.89,-5.96,-6.68,-3.06,-3.08,-3.13
268.48,2.74,5.88,2.75,5.88,-5.87,-5.95,-6.63,-3.13,-3.12,-3.14
271.16,2.68,5.84,2.68,5.83,-5.85,-5.94,-6.57,-3.17,-3.17,-3.15
273.87,2.61,5.77,2.63,5.79,-5.84,-5.93,-6.50,-3.23,-3.21,-3.16
276.61,2.61,5.79,2.61,5.78,-5.82,-5.92,-6.43,-3.21,-3.21,-3.17
279.38,2.61,5.80,2.61,5.79,-5.81,-5.90,-6.36,-3.20,-3.20,-3.19
282.17,2.61,5.81,2.62,5.82,-5.80,-5.89,-6.28,-3.19,-3.18,-3.19
284.99,2.62,5.82,2.62,5.82,-5.79,-5.87,-6.20,-3.17,-3.17,-3.20
287.84,2.63,5.83,2.61,5.81,-5.78,-5.86,-6.11,-3.15,-3.17,-3.19
290.72,2.58,5.78,2.60,5.80,-5.78,-5.84,-6.03,-3.19,-3.18,-3.20
293.63,2.56,5.77,2.57,5.77,-5.77,-5.82,-5.94,-3.20,-3.20,-3.20
296.57,2.56,5.76,2.54,5.74,-5.75,-5.80,-5.85,-3.19,-3.22,-3.20
299.53,2.50,5.69,2.52,5.71,-5.74,-5.78,-5.77,-3.24,-3.22,-3.19
302.53,2.50,5.70,2.51,5.70,-5.72,-5.76,-5.68,-3.22,-3.21,-3.19
305.55,2.51,5.70,2.51,5.70,-5.71,-5.74,-5.59,-3.20,-3.20,-3.19
308.61,2.52,5.72,2.52,5.71,-5.70,-5.72,-5.51,-3.17,-3.18,-3.19
311.69,2.52,5.72,2.50,5.70,-5.68,-5.70,-5.43,-3.16,-3.18,-3.20
314.81,2.46,5.66,2.48,5.68,-5.67,-5.67,-5.35,-3.21,-3.19,-3.20
317.96,2.43,5.64,2.45,5.65,-5.65,-5.65,-5.27,-3.21,-3.20,-3.20
321.14,2.43,5.64,2.43,5.63,-5.62,-5.62,-5.19,-3.19,-3.19,-3.20
324.35,2.41,5.61,2.40,5.60,-5.59,-5.59,-5.12,-3.17,-3.19,-3.20
327.59,2.35,5.55,2.35,5.55,-5.55,-5.57,-5.05,-3.19,-3.19,-3.20
330.87,2.28,5.49,2.30,5.51,-5.51,-5.54,-4.98,-3.22,-3.20,-3.20
334.18,2.25,5.46,2.25,5.46,-5.47,-5.51,-4.92,-3.22,-3.22,-3.21
337.52,2.23,5.44,2.21,5.42,-5.44,-5.48,-4.86,-3.20,-3.23,-3.21
340.90,2.16,5.38,2.18,5.39,-5.41,-5.45,-4.80,-3.24,-3.23,-3.21
344.30,2.14,5.35,2.15,5.36,-5.38,-5.42,-4.74,-3.23,-3.22,-3.20
347.75,2.14,5.34,2.14,5.34,-5.35,-5.39,-4.69,-3.20,-3.20,-3.20
351.23,2.14,5.35,2.14,5.34,-5.32,-5.35,-4.65,-3.17,-3.18,-3.21
354.74,2.13,5.32,2.13,5.32,-5.29,-5.32,-4.60,-3.16,-3.16,-3.19
358.28,2.08,5.28,2.09,5.28,-5.26,-5.29,-4.56,-3.18,-3.18,-3.19
361.87,2.05,5.24,2.04,5.23,-5.24,-5.25,-4.53,-3.18,-3.20,-3.18
365.49,1.98,5.16,2.00,5.18,-5.21,-5.22,-4.49,-3.23,-3.21,-3.18
369.14,1.97,5.15,1.99,5.16,-5.18,-5.18,-4.47,-3.21,-3.19,-3.18
372.83,1.98,5.14,1.98,5.14,-5.15,-5.14,-4.44,-3.16,-3.17,-3.16
376.56,1.99,5.16,1.97,5.14,-5.11,-5.11,-4.42,-3.12,-3.14,-3.16
380.33,1.93,5.10,1.94,5.10,-5.08,-5.07,-4.40,-3.14,-3.14,-3.16
384.13,1.89,5.06,1.89,5.06,-5.05,-5.03,-4.38,-3.15,-3.15,-3.17
387.97,1.83,5.00,1.85,5.01,-5.02,-4.99,-4.37,-3.19,-3.17,-3.17
391.85,1.82,4.98,1.81,4.98,-5.00,-4.95,-4.36,-3.17,-3.18,-3.16
395.77,1.78,4.95,1.77,4.94,-4.97,-4.91,-4.35,-3.18,-3.19,-3.17
399.73,1.73,4.91,1.75,4.92,-4.94,-4.87,-4.34,-3.20,-3.18,-3.17
403.72,1.72,4.90,1.73,4.91,-4.90,-4.83,-4.34,-3.18,-3.18,-3.17
407.76,1.72,4.92,1.71,4.89,-4.87,-4.78,-4.34,-3.15,-3.16,-3.19
411.84,1.67,4.87,1.67,4.87,-4.84,-4.74,-4.34,-3.17,-3.17,-3.20
415.96,1.62,4.82,1.62,4.83,-4.81,-4.70,-4.34,-3.18,-3.18,-3.20
420.12,1.55,4.76,1.57,4.77,-4.78,-4.66,-4.34,-3.22,-3.21,-3.21
424.32,1.53,4.73,1.52,4.72,-4.74,-4.61,-4.35,-3.21,-3.22,-3.20
428.56,1.48,4.67,1.49,4.68,-4.71,-4.57,-4.35,-3.22,-3.22,-3.19
432.85,1.46,4.63,1.48,4.66,-4.67,-4.52,-4.36,-3.21,-3.19,-3.17
437.18,1.49,4.66,1.48,4.64,-4.64,-4.48,-4.36,-3.14,-3.15,-3.16
441.55,1.51,4.64,1.50,4.62,-4.60,-4.43,-4.37,-3.09,-3.10,-3.12
445.96,1.49,4.58,1.50,4.59,-4.57,-4.38,-4.37,-3.08,-3.07,-3.08
450.42,1.51,4.55,1.51,4.54,-4.53,-4.34,-4.38,-3.02,-3.03,-3.03
454.93,1.49,4.48,1.52,4.50,-4.50,-4.29,-4.38,-3.00,-2.98,-2.99
459.48,1.54,4.47,1.52,4.45,-4.46,-4.24,-4.38,-2.91,-2.93,-2.93
464.07,1.53,4.41,1.52,4.40,-4.41,-4.19,-4.38,-2.88,-2.90,-2.88
468.71,1.49,4.32,1.53,4.35,-4.36,-4.14,-4.37,-2.87,-2.84,-2.83
473.40,1.53,4.30,1.54,4.31,-4.31,-4.09,-4.37,-2.78,-2.78,-2.77
478.13,1.58,4.29,1.56,4.27,-4.27,-4.05,-4.36,-2.68,-2.70,-2.71
482.91,1.57,4.23,1.58,4.24,-4.22,-4.00,-4.35,-2.64,-2.64,-2.66
487.74,1.57,4.19,1.57,4.19,-4.17,-3.95,-4.33,-2.60,-2.60,-2.62
492.62,1.53,4.12,1.54,4.12,-4.13,-3.90,-4.31,-2.59,-2.59,-2.58
497.55,1.51,4.06,1.51,4.05,-4.08,-3.84,-4.29,-2.57,-2.57,-2.54
502.52,1.47,4.00,1.50,4.02,-4.03,-3.79,-4.26,-2.56,-2.53,-2.52
507.55,1.49,3.99,1.50,4.00,-3.99,-3.74,-4.23,-2.49,-2.49,-2.49
512.62,1.52,4.01,1.46,3.95,-3.94,-3.69,-4.19,-2.42,-2.48,-2.48
