frequency,raw,smoothed,error,error_smoothed,equalization,parametric_eq,fixed_band_eq,equalized_raw,equalized_smoothed,target
20.00,2.65,2.66,-1.81,-1.81,1.82,1.76,0.60,4.47,4.48,4.46
20.20,2.64,2.64,-1.82,-1.82,1.83,1.76,0.62,4.47,4.47,4.46
20.40,2.63,2.63,-1.83,-1.83,1.83,1.75,0.64,4.46,4.46,4.46
20.61,2.63,2.63,-1.83,-1.83,1.83,1.75,0.66,4.46,4.45,4.46
20.81,2.62,2.62,-1.84,-1.84,1.82,1.74,0.68,4.45,4.45,4.46
21.02,2.61,2.63,-1.85,-1.83,1.82,1.73,0.70,4.43,4.44,4.46
21.23,2.64,2.64,-1.82,-1.82,1.80,1.73,0.73,4.45,4.44,4.46
21.44,2.66,2.66,-1.79,-1.79,1.79,1.72,0.75,4.46,4.46,4.46
21.66,2.69,2.69,-1.76,-1.76,1.77,1.72,0.77,4.46,4.46,4.46
21.87,2.72,2.72,-1.73,-1.74,1.74,1.71,0.80,4.47,4.46,4.46
22.09,2.74,2.74,-1.71,-1.71,1.72,1.70,0.82,4.46,4.46,4.46
22.31,2.76,2.77,-1.69,-1.69,1.69,1.70,0.84,4.45,4.46,4.45
22.54,2.78,2.79,-1.67,-1.67,1.67,1.69,0.87,4.45,4.45,4.45
22.76,2.81,2.81,-1.64,-1.64,1.64,1.68,0.90,4.46,4.46,4.45
22.99,2.83,2.83,-1.62,-1.62,1.63,1.68,0.92,4.46,4.46,4.45
23.22,2.84,2.85,-1.61,-1.61,1.61,1.67,0.95,4.45,4.46,4.45
23.45,2.85,2.85,-1.60,-1.60,1.60,1.66,0.98,4.45,4.45,4.45
23.69,2.86,2.86,-1.59,-1.59,1.58,1.65,1.01,4.45,4.45,4.45
23.92,2.87,2.87,-1.57,-1.57,1.57,1.65,1.04,4.44,4.44,4.45
24.16,2.88,2.88,-1.56,-1.56,1.56,1.64,1.07,4.44,4.44,4.45
24.40,2.89,2.89,-1.55,-1.55,1.55,1.63,1.10,4.44,4.44,4.45
24.65,2.90,2.90,-1.54,-1.54,1.54,1.62,1.13,4.45,4.45,4.44
24.89,2.91,2.91,-1.53,-1.53,1.54,1.61,1.16,4.45,4.45,4.44
25.14,2.92,2.92,-1.52,-1.52,1.53,1.61,1.19,4.45,4.45,4.44
25.39,2.92,2.92,-1.52,-1.52,1.52,1.60,1.22,4.44,4.44,4.44
25.65,2.92,2.92,-1.51,-1.51,1.51,1.59,1.25,4.43,4.43,4.44
25.91,2.92,2.93,-1.51,-1.51,1.50,1.58,1.29,4.42,4.43,4.44
26.16,2.94,2.94,-1.49,-1.49,1.48,1.57,1.32,4.43,4.42,4.44
26.43,2.96,2.96,-1.47,-1.47,1.47,1.56,1.35,4.43,4.43,4.43
26.69,2.98,2.99,-1.45,-1.45,1.45,1.55,1.38,4.43,4.43,4.43
26.96,3.01,3.01,-1.42,-1.42,1.43,1.54,1.41,4.44,4.43,4.43
27.23,3.02,3.03,-1.41,-1.40,1.41,1.53,1.43,4.43,4.43,4.43
27.50,3.04,3.05,-1.38,-1.38,1.39,1.52,1.46,4.43,4.43,4.43
27.77,3.06,3.06,-1.36,-1.36,1.37,1.51,1.49,4.43,4.43,4.42
28.05,3.07,3.07,-1.35,-1.35,1.35,1.50,1.51,4.42,4.42,4.42
28.33,3.08,3.09,-1.34,-1.33,1.33,1.49,1.54,4.42,4.42,4.42
28.62,3.09,3.10,-1.32,-1.32,1.32,1.48,1.56,4.42,4.42,4.42
28.90,3.11,3.11,-1.30,-1.31,1.31,1.47,1.58,4.43,4.42,4.42
29.19,3.11,3.11,-1.30,-1.30,1.30,1.46,1.60,4.42,4.42,4.41
29.48,3.11,3.12,-1.30,-1.30,1.30,1.45,1.61,4.41,4.41,4.41
29.78,3.11,3.11,-1.30,-1.30,1.29,1.44,1.62,4.41,4.41,4.41
30.08,3.11,3.11,-1.29,-1.29,1.29,1.43,1.63,4.41,4.41,4.41
30.38,3.11,3.11,-1.29,-1.29,1.29,1.41,1.64,4.41,4.41,4.40
30.68,3.11,3.11,-1.29,-1.29,1.29,1.40,1.65,4.41,4.41,4.40
30.99,3.11,3.11,-1.28,-1.28,1.29,1.39,1.65,4.40,4.40,4.40
31.30,3.11,3.11,-1.28,-1.28,1.28,1.38,1.65,4.40,4.39,4.39
31.61,3.11,3.11,-1.28,-1.28,1.27,1.37,1.65,4.38,4.38,4.39
31.93,3.11,3.12,-1.27,-1.27,1.25,1.35,1.64,4.37,4.37,4.39
32.24,3.13,3.14,-1.25,-1.25,1.23,1.34,1.63,4.37,4.37,4.39
32.57,3.17,3.17,-1.21,-1.21,1.20,1.33,1.62,4.38,4.37,4.38
32.89,3.20,3.20,-1.17,-1.18,1.18,1.31,1.61,4.38,4.38,4.38
33.22,3.23,3.24,-1.14,-1.14,1.15,1.30,1.59,4.38,4.38,4.37
33.55,3.26,3.27,-1.11,-1.10,1.12,1.29,1.58,4.38,4.38,4.37
33.89,3.29,3.29,-1.07,-1.08,1.09,1.27,1.55,4.39,4.38,4.37
34.23,3.30,3.30,-1.06,-1.06,1.07,1.26,1.53,4.37,4.37,4.36
34.57,3.30,3.31,-1.05,-1.05,1.06,1.24,1.51,4.36,4.36,4.36
34.92,3.30,3.30,-1.05,-1.05,1.05,1.23,1.48,4.35,4.35,4.35
35.27,3.30,3.30,-1.04,-1.04,1.04,1.21,1.46,4.34,4.34,4.35
35.62,3.30,3.30,-1.04,-1.04,1.03,1.20,1.43,4.34,4.34,4.34
35.97,3.30,3.30,-1.03,-1.03,1.03,1.18,1.40,4.34,4.34,4.34
36.33,3.30,3.30,-1.03,-1.03,1.03,1.17,1.37,4.33,4.33,4.33
36.70,3.30,3.30,-1.02,-1.02,1.02,1.15,1.34,4.33,4.33,4.33
37.06,3.30,3.30,-1.02,-1.02,1.02,1.14,1.30,4.32,4.32,4.32
37.43,3.30,3.30,-1.01,-1.01,1.01,1.12,1.27,4.32,4.32,4.32
37.81,3.30,3.30,-1.01,-1.01,1.01,1.10,1.24,4.31,4.31,4.31
38.19,3.30,3.30,-1.00,-1.00,1.00,1.09,1.21,4.30,4.30,4.30
38.57,3.30,3.30,-0.99,-0.99,1.00,1.07,1.17,4.30,4.30,4.30
38.95,3.30,3.30,-0.99,-0.99,0.99,1.05,1.14,4.30,4.30,4.29
39.34,3.30,3.30,-0.98,-0.98,0.99,1.03,1.11,4.29,4.29,4.28
39.74,3.30,3.30,-0.97,-0.97,0.98,1.01,1.07,4.28,4.28,4.28
40.14,3.30,3.30,-0.96,-0.97,0.96,1.00,1.04,4.26,4.26,4.27
40.54,3.30,3.30,-0.96,-0.96,0.94,0.98,1.01,4.25,4.24,4.26
40.94,3.30,3.32,-0.95,-0.94,0.92,0.96,0.98,4.22,4.24,4.25
41.35,3.34,3.34,-0.90,-0.90,0.89,0.94,0.95,4.24,4.24,4.24
41.76,3.38,3.38,-0.85,-0.86,0.86,0.92,0.92,4.25,4.24,4.24
42.18,3.41,3.41,-0.81,-0.82,0.83,0.90,0.89,4.24,4.24,4.23
42.60,3.42,3.42,-0.79,-0.79,0.79,0.88,0.86,4.22,4.22,4.22
43.03,3.43,3.44,-0.77,-0.76,0.76,0.86,0.83,4.20,4.21,4.21
43.46,3.46,3.47,-0.73,-0.73,0.73,0.84,0.80,4.20,4.20,4.20
43.90,3.49,3.49,-0.69,-0.70,0.71,0.82,0.78,4.20,4.19,4.19
44.33,3.50,3.50,-0.67,-0.68,0.69,0.80,0.75,4.19,4.19,4.18
44.78,3.49,3.50,-0.67,-0.66,0.67,0.78,0.73,4.16,4.17,4.16
45.23,3.49,3.50,-0.66,-0.66,0.66,0.75,0.70,4.15,4.15,4.15
45.68,3.49,3.49,-0.65,-0.65,0.64,0.73,0.68,4.14,4.13,4.14
46.13,3.49,3.49,-0.63,-0.63,0.63,0.71,0.65,4.12,4.12,4.13
46.60,3.49,3.49,-0.62,-0.62,0.62,0.69,0.63,4.11,4.11,4.12
47.06,3.49,3.49,-0.61,-0.61,0.61,0.66,0.61,4.10,4.10,4.10
47.53,3.49,3.49,-0.59,-0.59,0.59,0.64,0.59,4.09,4.09,4.09
48.01,3.49,3.49,-0.58,-0.58,0.58,0.62,0.56,4.07,4.07,4.07
48.49,3.49,3.49,-0.57,-0.57,0.57,0.59,0.54,4.06,4.06,4.06
48.97,3.49,3.49,-0.55,-0.55,0.55,0.57,0.52,4.04,4.04,4.04
49.46,3.49,3.49,-0.53,-0.53,0.53,0.54,0.50,4.03,4.03,4.03
49.96,3.49,3.49,-0.52,-0.52,0.52,0.52,0.48,4.01,4.01,4.01
50.46,3.49,3.49,-0.50,-0.50,0.50,0.49,0.46,3.99,3.99,3.99
50.96,3.49,3.49,-0.48,-0.48,0.48,0.47,0.45,3.98,3.98,3.98
51.47,3.49,3.49,-0.47,-0.47,0.47,0.44,0.43,3.96,3.96,3.96
51.99,3.49,3.49,-0.45,-0.45,0.45,0.42,0.41,3.94,3.94,3.94
52.51,3.49,3.49,-0.43,-0.43,0.43,0.39,0.39,3.92,3.92,3.92
53.03,3.49,3.49,-0.41,-0.41,0.41,0.36,0.37,3.90,3.90,3.90
53.56,3.49,3.49,-0.39,-0.39,0.39,0.34,0.35,3.88,3.88,3.88
54.10,3.49,3.49,-0.37,-0.37,0.37,0.31,0.33,3.86,3.86,3.86
54.64,3.49,3.49,-0.34,-0.34,0.34,0.28,0.31,3.84,3.84,3.84
55.18,3.49,3.49,-0.32,-0.32,0.32,0.25,0.29,3.82,3.82,3.81
55.74,3.49,3.49,-0.30,-0.30,0.30,0.22,0.28,3.80,3.80,3.79
56.29,3.49,3.49,-0.27,-0.27,0.28,0.20,0.25,3.77,3.77,3.77
56.86,3.49,3.49,-0.25,-0.25,0.25,0.17,0.23,3.75,3.75,3.74
57.42,3.49,3.49,-0.22,-0.23,0.22,0.14,0.21,3.71,3.71,3.72
58.00,3.49,3.49,-0.20,-0.20,0.18,0.11,0.19,3.68,3.67,3.69
58.58,3.49,3.50,-0.17,-0.16,0.14,0.07,0.17,3.64,3.64,3.66
59.16,3.51,3.53,-0.12,-0.11,0.10,0.04,0.14,3.61,3.63,3.64
59.76,3.57,3.56,-0.03,-0.05,0.06,0.01,0.12,3.63,3.61,3.61
60.35,3.59,3.59,0.02,0.01,0.01,-0.02,0.09,3.60,3.60,3.58
60.96,3.59,3.60,0.05,0.05,-0.03,-0.06,0.07,3.56,3.57,3.55
61.57,3.59,3.60,0.08,0.08,-0.08,-0.09,0.04,3.52,3.52,3.51
62.18,3.59,3.59,0.11,0.11,-0.12,-0.13,0.01,3.48,3.48,3.48
62.80,3.59,3.59,0.15,0.15,-0.15,-0.16,-0.02,3.44,3.44,3.45
63.43,3.59,3.59,0.18,0.18,-0.18,-0.20,-0.05,3.41,3.41,3.41
64.07,3.59,3.59,0.21,0.21,-0.22,-0.24,-0.09,3.38,3.38,3.38
64.71,3.59,3.59,0.25,0.25,-0.25,-0.28,-0.12,3.34,3.34,3.34
65.35,3.59,3.59,0.29,0.29,-0.29,-0.32,-0.16,3.31,3.31,3.31
66.01,3.59,3.59,0.33,0.33,-0.33,-0.36,-0.19,3.27,3.27,3.27
66.67,3.59,3.59,0.36,0.36,-0.36,-0.40,-0.23,3.23,3.23,3.23
67.33,3.59,3.59,0.40,0.40,-0.40,-0.44,-0.27,3.19,3.19,3.19
68.01,3.59,3.59,0.45,0.45,-0.45,-0.49,-0.31,3.15,3.15,3.15
68.69,3.59,3.59,0.49,0.49,-0.49,-0.53,-0.35,3.11,3.11,3.11
69.37,3.59,3.59,0.53,0.53,-0.53,-0.58,-0.40,3.06,3.06,3.06
70.07,3.59,3.59,0.57,0.57,-0.57,-0.62,-0.44,3.02,3.02,3.02
70.77,3.59,3.59,0.62,0.62,-0.62,-0.67,-0.49,2.97,2.97,2.97
71.48,3.59,3.59,0.67,0.67,-0.67,-0.72,-0.54,2.93,2.93,2.93
72.19,3.59,3.59,0.71,0.71,-0.71,-0.77,-0.58,2.88,2.88,2.88
72.91,3.59,3.59,0.76,0.76,-0.76,-0.82,-0.63,2.83,2.83,2.83
73.64,3.59,3.59,0.81,0.81,-0.81,-0.87,-0.68,2.78,2.78,2.78
74.38,3.59,3.59,0.86,0.86,-0.86,-0.92,-0.74,2.73,2.73,2.73
75.12,3.59,3.59,0.91,0.91,-0.91,-0.97,-0.79,2.68,2.68,2.68
75.87,3.59,3.59,0.96,0.96,-0.96,-1.03,-0.84,2.63,2.63,2.63
76.63,3.59,3.59,1.02,1.02,-1.02,-1.08,-0.90,2.58,2.58,2.58
77.40,3.59,3.59,1.07,1.07,-1.07,-1.13,-0.95,2.52,2.52,2.52
78.17,3.59,3.59,1.13,1.13,-1.13,-1.19,-1.01,2.47,2.47,2.47
78.95,3.59,3.59,1.18,1.18,-1.18,-1.24,-1.07,2.41,2.41,2.41
79.74,3.59,3.59,1.24,1.24,-1.24,-1.30,-1.13,2.35,2.35,2.35
80.54,3.59,3.59,1.30,1.30,-1.30,-1.35,-1.19,2.29,2.29,2.29
81.35,3.59,3.59,1.36,1.36,-1.36,-1.41,-1.25,2.24,2.24,2.24
82.16,3.59,3.59,1.42,1.42,-1.42,-1.46,-1.31,2.17,2.17,2.17
82.98,3.59,3.59,1.48,1.48,-1.48,-1.52,-1.38,2.11,2.11,2.11
83.81,3.59,3.59,1.54,1.54,-1.54,-1.58,-1.45,2.05,2.05,2.05
84.65,3.59,3.59,1.60,1.60,-1.60,-1.64,-1.51,1.99,1.99,1.99
85.50,3.59,3.59,1.67,1.67,-1.67,-1.69,-1.58,1.93,1.93,1.93
86.35,3.59,3.59,1.73,1.73,-1.73,-1.75,-1.65,1.86,1.86,1.86
87.22,3.59,3.59,1.80,1.80,-1.80,-1.81,-1.72,1.80,1.80,1.80
88.09,3.59,3.59,1.86,1.86,-1.87,-1.87,-1.79,1.73,1.73,1.73
88.97,3.59,3.59,1.93,1.93,-1.93,-1.93,-1.87,1.66,1.66,1.66
89.86,3.59,3.60,2.00,2.00,-2.00,-1.98,-1.94,1.59,1.59,1.60
90.76,3.60,3.60,2.08,2.07,-2.07,-2.04,-2.02,1.53,1.53,1.53
91.66,3.60,3.60,2.14,2.14,-2.14,-2.10,-2.10,1.46,1.46,1.46
92.58,3.60,3.60,2.21,2.21,-2.21,-2.16,-2.17,1.39,1.39,1.39
93.51,3.60,3.60,2.28,2.28,-2.28,-2.22,-2.25,1.32,1.32,1.32
94.44,3.60,3.60,2.35,2.35,-2.35,-2.28,-2.34,1.25,1.25,1.25
95.39,3.60,3.60,2.42,2.42,-2.42,-2.34,-2.42,1.18,1.18,1.18
96.34,3.59,3.60,2.49,2.49,-2.49,-2.40,-2.50,1.11,1.11,1.11
97.30,3.59,3.59,2.56,2.55,-2.55,-2.46,-2.59,1.04,1.04,1.04
98.28,3.58,3.58,2.62,2.62,-2.61,-2.52,-2.67,0.97,0.97,0.96
99.26,3.56,3.57,2.67,2.67,-2.67,-2.58,-2.76,0.89,0.89,0.89
100.25,3.55,3.55,2.73,2.73,-2.73,-2.65,-2.85,0.82,0.82,0.82
101.25,3.53,3.54,2.79,2.79,-2.79,-2.71,-2.93,0.74,0.75,0.75
102.27,3.52,3.52,2.85,2.85,-2.85,-2.77,-3.02,0.68,0.67,0.67
103.29,3.50,3.50,2.90,2.90,-2.90,-2.83,-3.11,0.60,0.60,0.60
104.32,3.48,3.49,2.96,2.96,-2.95,-2.89,-3.20,0.53,0.53,0.53
105.37,3.46,3.46,3.01,3.01,-3.01,-2.95,-3.29,0.46,0.46,0.46
106.42,3.44,3.44,3.06,3.06,-3.06,-3.01,-3.37,0.39,0.38,0.38
107.48,3.41,3.42,3.10,3.11,-3.11,-3.07,-3.46,0.31,0.31,0.31
108.56,3.39,3.39,3.16,3.16,-3.16,-3.13,-3.55,0.24,0.24,0.24
109.64,3.37,3.37,3.21,3.21,-3.21,-3.19,-3.63,0.16,0.16,0.16
110.74,3.35,3.35,3.26,3.26,-3.26,-3.25,-3.71,0.09,0.09,0.09
111.85,3.33,3.34,3.31,3.32,-3.32,-3.31,-3.79,0.01,0.02,0.02
112.97,3.32,3.32,3.38,3.38,-3.38,-3.37,-3.87,-0.06,-0.06,-0.05
114.10,3.31,3.31,3.44,3.44,-3.44,-3.43,-3.94,-0.13,-0.13,-0.12
115.24,3.31,3.31,3.51,3.51,-3.51,-3.49,-4.02,-0.20,-0.20,-0.20
116.39,3.31,3.32,3.58,3.58,-3.58,-3.55,-4.09,-0.27,-0.27,-0.27
117.55,3.32,3.32,3.66,3.66,-3.66,-3.61,-4.15,-0.33,-0.34,-0.34
118.73,3.32,3.33,3.73,3.73,-3.73,-3.66,-4.21,-0.41,-0.40,-0.41
119.92,3.33,3.33,3.81,3.81,-3.81,-3.72,-4.27,-0.47,-0.47,-0.48
121.12,3.34,3.34,3.89,3.88,-3.88,-3.78,-4.32,-0.54,-0.54,-0.55
122.33,3.34,3.35,3.96,3.96,-3.96,-3.84,-4.37,-0.62,-0.61,-0.61
123.55,3.35,3.36,4.03,4.04,-4.04,-3.89,-4.41,-0.68,-0.68,-0.68
124.79,3.36,3.36,4.11,4.11,-4.12,-3.95,-4.45,-0.75,-0.75,-0.75
126.03,3.37,3.37,4.19,4.18,-4.19,-4.01,-4.48,-0.82,-0.82,-0.81
127.29,3.37,3.38,4.25,4.26,-4.26,-4.06,-4.51,-0.89,-0.89,-0.88
128.57,3.38,3.39,4.33,4.33,-4.33,-4.12,-4.53,-0.95,-0.94,-0.94
129.85,3.39,3.40,4.40,4.40,-4.39,-4.17,-4.55,-0.99,-0.99,-1.01
131.15,3.39,3.39,4.46,4.46,-4.44,-4.23,-4.57,-1.04,-1.05,-1.07
132.46,3.38,3.37,4.52,4.51,-4.48,-4.28,-4.58,-1.10,-1.11,-1.13
133.79,3.32,3.34,4.52,4.53,-4.52,-4.33,-4.59,-1.20,-1.18,-1.19
135.12,3.30,3.29,4.56,4.55,-4.56,-4.39,-4.59,-1.25,-1.26,-1.25
136.48,3.25,3.26,4.57,4.57,-4.59,-4.44,-4.60,-1.34,-1.34,-1.31
137.84,3.22,3.23,4.60,4.61,-4.63,-4.49,-4.59,-1.41,-1.39,-1.37
139.22,3.22,3.22,4.65,4.65,-4.67,-4.54,-4.59,-1.44,-1.45,-1.43
140.61,3.22,3.22,4.71,4.71,-4.71,-4.59,-4.59,-1.49,-1.49,-1.49
142.02,3.22,3.22,4.77,4.77,-4.76,-4.64,-4.58,-1.54,-1.54,-1.54
143.44,3.22,3.22,4.82,4.82,-4.81,-4.69,-4.57,-1.59,-1.59,-1.60
144.87,3.22,3.22,4.87,4.87,-4.87,-4.74,-4.56,-1.64,-1.64,-1.65
146.32,3.22,3.22,4.93,4.92,-4.92,-4.78,-4.56,-1.70,-1.70,-1.70
147.78,3.22,3.22,4.97,4.97,-4.97,-4.83,-4.55,-1.75,-1.75,-1.75
149.26,3.22,3.22,5.02,5.02,-5.02,-4.88,-4.54,-1.80,-1.80,-1.80
150.75,3.22,3.22,5.07,5.07,-5.07,-4.92,-4.54,-1.85,-1.85,-1.85
152.26,3.22,3.22,5.12,5.12,-5.12,-4.97,-4.53,-1.89,-1.89,-1.89
153.78,3.22,3.22,5.17,5.17,-5.16,-5.01,-4.53,-1.94,-1.94,-1.94
155.32,3.22,3.22,5.21,5.21,-5.21,-5.05,-4.53,-1.99,-1.99,-1.99
156.88,3.22,3.22,5.26,5.26,-5.26,-5.09,-4.53,-2.03,-2.03,-2.03
158.44,3.22,3.22,5.30,5.30,-5.31,-5.14,-4.53,-2.08,-2.08,-2.08
160.03,3.22,3.22,5.34,5.35,-5.35,-5.18,-4.53,-2.13,-2.13,-2.12
161.63,3.22,3.22,5.40,5.39,-5.40,-5.22,-4.54,-2.18,-2.18,-2.17
163.24,3.22,3.22,5.44,5.44,-5.44,-5.26,-4.55,-2.22,-2.22,-2.21
164.88,3.22,3.22,5.48,5.48,-5.48,-5.29,-4.57,-2.25,-2.26,-2.26
166.53,3.21,3.22,5.51,5.52,-5.50,-5.33,-4.58,-2.29,-2.28,-2.29
168.19,3.21,3.21,5.55,5.55,-5.52,-5.37,-4.60,-2.31,-2.31,-2.33
169.87,3.20,3.19,5.57,5.56,-5.53,-5.40,-4.63,-2.33,-2.34,-2.37
171.57,3.14,3.15,5.55,5.55,-5.53,-5.44,-4.66,-2.39,-2.39,-2.41
173.29,3.09,3.09,5.54,5.53,-5.53,-5.47,-4.68,-2.44,-2.45,-2.44
175.02,3.02,3.03,5.50,5.51,-5.54,-5.51,-4.72,-2.51,-2.50,-2.48
176.77,2.99,3.00,5.50,5.51,-5.54,-5.54,-4.76,-2.55,-2.54,-2.51
178.54,2.99,2.99,5.54,5.53,-5.55,-5.57,-4.80,-2.56,-2.56,-2.54
180.32,2.99,2.99,5.57,5.56,-5.57,-5.60,-4.84,-2.58,-2.58,-2.57
182.13,2.99,3.00,5.60,5.60,-5.60,-5.63,-4.89,-2.61,-2.60,-2.61
183.95,3.00,3.01,5.64,5.64,-5.64,-5.66,-4.94,-2.63,-2.63,-2.64
185.79,3.02,3.02,5.69,5.68,-5.68,-5.69,-5.00,-2.66,-2.66,-2.66
187.65,3.03,3.04,5.73,5.73,-5.73,-5.71,-5.06,-2.69,-2.69,-2.69
189.52,3.05,3.05,5.77,5.77,-5.77,-5.74,-5.12,-2.72,-2.72,-2.72
191.42,3.06,3.06,5.81,5.81,-5.81,-5.77,-5.19,-2.75,-2.75,-2.75
193.33,3.07,3.08,5.85,5.85,-5.85,-5.79,-5.26,-2.77,-2.77,-2.77
195.27,3.09,3.09,5.89,5.89,-5.88,-5.81,-5.33,-2.78,-2.78,-2.80
197.22,3.10,3.10,5.93,5.92,-5.90,-5.84,-5.41,-2.80,-2.81,-2.82
199.19,3.09,3.08,5.94,5.93,-5.92,-5.86,-5.48,-2.83,-2.84,-2.85
201.18,3.05,3.06,5.92,5.93,-5.94,-5.88,-5.56,-2.88,-2.88,-2.87
203.19,3.03,3.04,5.92,5.93,-5.94,-5.90,-5.64,-2.91,-2.90,-2.89
205.23,3.03,3.04,5.95,5.95,-5.95,-5.92,-5.73,-2.91,-2.91,-2.91
207.28,3.03,3.02,5.97,5.96,-5.95,-5.93,-5.81,-2.91,-2.92,-2.93
209.35,3.01,3.00,5.97,5.95,-5.95,-5.95,-5.90,-2.93,-2.95,-2.95
211.44,2.95,2.97,5.93,5.94,-5.95,-5.97,-5.98,-2.99,-2.98,-2.97
213.56,2.93,2.94,5.93,5.93,-5.95,-5.98,-6.07,-3.02,-3.01,-2.99
215.69,2.92,2.92,5.93,5.93,-5.95,-6.00,-6.15,-3.03,-3.03,-3.01
217.85,2.92,2.92,5.95,5.95,-5.95,-6.01,-6.24,-3.03,-3.03,-3.03
220.03,2.92,2.93,5.97,5.97,-5.95,-6.02,-6.32,-3.02,-3.02,-3.04
222.23,2.91,2.91,5.97,5.97,-5.95,-6.03,-6.40,-3.03,-3.04,-3.06
224.45,2.90,2.88,5.98,5.96,-5.95,-6.04,-6.47,-3.05,-3.07,-3.08
226.70,2.83,2.85,5.93,5.95,-5.96,-6.05,-6.55,-3.13,-3.11,-3.09
228.96,2.82,2.83,5.93,5.94,-5.97,-6.06,-6.61,-3.14,-3.13,-3.11
231.25,2.83,2.83,5.96,5.95,-5.97,-6.07,-6.68,-3.14,-3.14,-3.12
233.57,2.84,2.85,5.98,5.99,-5.98,-6.07,-6.73,-3.14,-3.13,-3.14
235.90,2.85,2.85,6.01,6.01,-5.99,-6.08,-6.78,-3.13,-3.14,-3.16
238.26,2.85,2.84,6.03,6.01,-6.00,-6.08,-6.83,-3.15,-3.16,-3.17
240.64,2.81,2.83,6.00,6.01,-6.01,-6.09,-6.86,-3.20,-3.19,-3.18
243.05,2.81,2.83,6.01,6.02,-6.02,-6.09,-6.89,-3.21,-3.20,-3.20
245.48,2.82,2.82,6.03,6.03,-6.03,-6.09,-6.91,-3.21,-3.21,-3.21
247.93,2.85,2.82,6.07,6.04,-6.04,-6.09,-6.92,-3.19,-3.22,-3.22
250.41,2.79,2.81,6.02,6.04,-6.05,-6.09,-6.92,-3.25,-3.24,-3.23
252.92,2.79,2.80,6.04,6.04,-6.06,-6.09,-6.92,-3.27,-3.26,-3.24
255.45,2.80,2.80,6.05,6.04,-6.07,-6.09,-6.90,-3.27,-3.27,-3.24
258.00,2.81,2.81,6.07,6.07,-6.07,-6.09,-6.88,-3.26,-3.26,-3.25
260.58,2.82,2.83,6.09,6.09,-6.07,-6.08,-6.84,-3.24,-3.24,-3.26
263.19,2.82,2.83,6.09,6.10,-6.05,-6.08,-6.81,-3.23,-3.23,-3.27
265.82,2.82,2.80,6.10,6.08,-6.04,-6.07,-6.76,-3.21,-3.24,-3.28
268.48,2.74,2.75,6.03,6.03,-6.02,-6.06,-6.71,-3.28,-3.27,-3.29
271.16,2.68,2.68,5.98,5.98,-6.00,-6.06,-6.64,-3.32,-3.32,-3.30
273.87,2.61,2.63,5.92,5.94,-5.98,-6.05,-6.58,-3.37,-3.35,-3.30
276.61,2.61,2.61,5.93,5.92,-5.96,-6.04,-6.51,-3.35,-3.35,-3.31
279.38,2.61,2.61,5.93,5.93,-5.95,-6.03,-6.43,-3.33,-3.34,-3.32
282.17,2.61,2.62,5.94,5.94,-5.93,-6.02,-6.35,-3.32,-3.31,-3.33
284.99,2.62,2.62,5.95,5.95,-5.92,-6.00,-6.27,-3.30,-3.30,-3.32
287.84,2.63,2.61,5.95,5.94,-5.91,-5.99,-6.19,-3.28,-3.30,-3.32
290.72,2.58,2.60,5.91,5.93,-5.91,-5.98,-6.10,-3.32,-3.31,-3.33
293.63,2.56,2.57,5.90,5.90,-5.90,-5.96,-6.01,-3.33,-3.33,-3.33
296.57,2.56,2.54,5.89,5.87,-5.89,-5.94,-5.93,-3.32,-3.35,-3.33
299.53,2.50,2.52,5.83,5.85,-5.87,-5.93,-5.84,-3.37,-3.35,-3.32
302.53,2.50,2.51,5.83,5.84,-5.86,-5.91,-5.75,-3.35,-3.35,-3.33
305.55,2.51,2.51,5.84,5.84,-5.84,-5.89,-5.67,-3.33,-3.33,-3.32
308.61,2.52,2.52,5.85,5.85,-5.83,-5.87,-5.58,-3.31,-3.31,-3.33
311.69,2.52,2.50,5.85,5.83,-5.82,-5.85,-5.50,-3.29,-3.31,-3.32
314.81,2.46,2.48,5.79,5.80,-5.80,-5.83,-5.42,-3.34,-3.32,-3.33
317.96,2.43,2.45,5.76,5.78,-5.77,-5.81,-5.34,-3.34,-3.32,-3.32
321.14,2.43,2.43,5.76,5.75,-5.74,-5.79,-5.26,-3.31,-3.32,-3.33
324.35,2.41,2.40,5.74,5.72,-5.70,-5.76,-5.19,-3.29,-3.31,-3.32
327.59,2.35,2.35,5.66,5.67,-5.66,-5.74,-5.12,-3.30,-3.31,-3.31
330.87,2.28,2.30,5.59,5.61,-5.61,-5.71,-5.05,-3.33,-3.31,-3.31
334.18,2.25,2.25,5.56,5.56,-5.57,-5.69,-4.99,-3.32,-3.32,-3.30
337.52,2.23,2.21,5.54,5.52,-5.53,-5.66,-4.93,-3.30,-3.32,-3.31
340.90,2.16,2.18,5.47,5.48,-5.50,-5.63,-4.87,-3.34,-3.32,-3.30
344.30,2.14,2.15,5.44,5.45,-5.47,-5.60,-4.82,-3.32,-3.31,-3.30
347.75,2.14,2.14,5.43,5.43,-5.43,-5.57,-4.77,-3.29,-3.29,-3.29
351.23,2.14,2.14,5.44,5.42,-5.40,-5.54,-4.72,-3.26,-3.26,-3.29
354.74,2.13,2.13,5.41,5.41,-5.38,-5.51,-4.68,-3.24,-3.25,-3.27
358.28,2.08,2.09,5.36,5.36,-5.35,-5.48,-4.64,-3.27,-3.26,-3.28
361.87,2.05,2.04,5.32,5.31,-5.33,-5.45,-4.60,-3.27,-3.29,-3.27
365.49,1.98,2.00,5.25,5.27,-5.30,-5.42,-4.57,-3.31,-3.30,-3.26
369.14,1.97,1.99,5.24,5.25,-5.27,-5.39,-4.54,-3.29,-3.28,-3.27
372.83,1.98,1.98,5.23,5.23,-5.23,-5.35,-4.51,-3.25,-3.25,-3.25
376.56,1.99,1.97,5.24,5.22,-5.19,-5.32,-4.49,-3.20,-3.22,-3.25
380.33,1.93,1.94,5.18,5.18,-5.16,-5.28,-4.47,-3.22,-3.22,-3.24
384.13,1.89,1.89,5.14,5.13,-5.12,-5.25,-4.46,-3.23,-3.23,-3.25
387.97,1.83,1.85,5.06,5.08,-5.09,-5.21,-4.44,-3.25,-3.24,-3.23
391.85,1.82,1.81,5.03,5.03,-5.05,-5.17,-4.43,-3.23,-3.24,-3.21
395.77,1.78,1.77,5.00,4.98,-5.01,-5.13,-4.43,-3.23,-3.23,-3.21
399.73,1.73,1.75,4.94,4.96,-4.97,-5.09,-4.42,-3.23,-3.21,-3.20
403.72,1.72,1.73,4.92,4.93,-4.92,-5.06,-4.42,-3.20,-3.19,-3.20
407.76,1.72,1.71,4.92,4.90,-4.88,-5.02,-4.42,-3.15,-3.17,-3.20
411.84,1.67,1.67,4.86,4.86,-4.83,-4.98,-4.42,-3.16,-3.16,-3.19
415.96,1.62,1.62,4.81,4.81,-4.79,-4.94,-4.43,-3.17,-3.17,-3.18
420.12,1.55,1.57,4.74,4.75,-4.75,-4.89,-4.43,-3.20,-3.19,-3.18
424.32,1.53,1.52,4.71,4.69,-4.72,-4.85,-4.44,-3.18,-3.20,-3.17
428.56,1.48,1.49,4.65,4.65,-4.68,-4.81,-4.44,-3.20,-3.20,-3.17
432.85,1.46,1.48,4.62,4.64,-4.66,-4.77,-4.45,-3.19,-3.17,-3.16
437.18,1.49,1.48,4.64,4.63,-4.64,-4.72,-4.46,-3.14,-3.15,-3.15
441.55,1.51,1.50,4.65,4.64,-4.62,-4.68,-4.46,-3.11,-3.13,-3.14
445.96,1.49,1.50,4.63,4.63,-4.62,-4.64,-4.47,-3.12,-3.12,-3.13
450.42,1.51,1.51,4.63,4.62,-4.62,-4.59,-4.48,-3.10,-3.11,-3.11
454.93,1.49,1.52,4.60,4.62,-4.62,-4.55,-4.48,-3.13,-3.10,-3.10
459.48,1.54,1.52,4.64,4.62,-4.62,-4.50,-4.48,-3.08,-3.10,-3.10
464.07,1.53,1.52,4.63,4.61,-4.63,-4.45,-4.48,-3.09,-3.11,-3.10
468.71,1.49,1.53,4.58,4.62,-4.63,-4.41,-4.48,-3.13,-3.10,-3.09
473.40,1.53,1.54,4.61,4.62,-4.62,-4.36,-4.48,-3.09,-3.08,-3.08
478.13,1.58,1.56,4.65,4.63,-4.62,-4.31,-4.47,-3.03,-3.05,-3.07
482.91,1.57,1.58,4.62,4.63,-4.61,-4.27,-4.46,-3.03,-3.03,-3.05
487.74,1.57,1.57,4.62,4.61,-4.60,-4.22,-4.45,-3.02,-3.03,-3.04
492.62,1.53,1.54,4.57,4.57,-4.58,-4.17,-4.44,-3.05,-3.05,-3.03
497.55,1.51,1.51,4.54,4.53,-4.56,-4.12,-4.42,-3.04,-3.05,-3.02
502.52,1.47,1.50,4.49,4.52,-4.52,-4.07,-4.39,-3.05,-3.02,-3.01
507.55,1.49,1.50,4.49,4.50,-4.48,-4.02,-4.37,-2.99,-2.98,-2.99
512.62,1.52,1.46,4.51,4.45,-4.44,-3.97,-4.34,-2.91,-2.97,-2.99
517.75,1.39,1.42,4.37,4.39,-4.38,-3.92,-4.30,-2.99,-2.96,-2.98
