frequency,raw,smoothed,error,error_smoothed,equalization,parametric_eq,fixed_band_eq,equalized_raw,equalized_smoothed,target
20.00,-14.33,-14.33,-14.08,-14.09,6.00,5.82,2.75,-8.33,-8.33,-0.24
20.20,-14.22,-14.22,-13.97,-13.97,6.00,5.82,2.83,-8.22,-8.22,-0.24
20.40,-14.12,-14.11,-13.87,-13.87,6.00,5.83,2.91,-8.12,-8.11,-0.24
20.61,-14.02,-14.02,-13.78,-13.78,6.00,5.83,2.99,-8.02,-8.02,-0.24
20.81,-13.94,-13.94,-13.69,-13.70,6.00,5.84,3.08,-7.94,-7.94,-0.24
21.02,-13.87,-13.87,-13.62,-13.62,6.00,5.85,3.17,-7.87,-7.87,-0.24
21.23,-13.81,-13.80,-13.56,-13.56,6.00,5.85,3.26,-7.81,-7.80,-0.24
21.44,-13.74,-13.74,-13.49,-13.50,6.00,5.86,3.35,-7.74,-7.74,-0.24
21.66,-13.68,-13.67,-13.44,-13.43,6.00,5.87,3.45,-7.68,-7.67,-0.24
21.87,-13.60,-13.60,-13.35,-13.35,6.00,5.87,3.55,-7.60,-7.60,-0.24
22.09,-13.52,-13.52,-13.27,-13.27,6.00,5.88,3.65,-7.52,-7.52,-0.24
22.31,-13.44,-13.43,-13.19,-13.19,6.00,5.89,3.75,-7.44,-7.43,-0.24
22.54,-13.35,-13.35,-13.11,-13.11,6.00,5.90,3.86,-7.35,-7.35,-0.24
22.76,-13.27,-13.27,-13.03,-13.03,6.00,5.90,3.97,-7.27,-7.27,-0.23
22.99,-13.19,-13.19,-12.96,-12.96,6.00,5.91,4.08,-7.19,-7.19,-0.22
23.22,-13.12,-13.12,-12.90,-12.91,6.00,5.92,4.20,-7.12,-7.12,-0.21
23.45,-13.06,-13.06,-12.85,-12.86,6.00,5.93,4.31,-7.06,-7.06,-0.20
23.69,-13.01,-13.01,-12.82,-12.81,6.00,5.93,4.43,-7.01,-7.01,-0.19
23.92,-12.96,-12.95,-12.76,-12.76,6.00,5.94,4.56,-6.96,-6.95,-0.19
24.16,-12.90,-12.90,-12.70,-12.70,6.00,5.95,4.68,-6.90,-6.90,-0.19
24.40,-12.84,-12.84,-12.63,-12.64,6.00,5.96,4.81,-6.84,-6.84,-0.20
24.65,-12.77,-12.77,-12.58,-12.58,6.00,5.97,4.94,-6.77,-6.77,-0.19
24.89,-12.70,-12.69,-12.51,-12.51,6.00,5.98,5.07,-6.70,-6.69,-0.18
25.14,-12.61,-12.61,-12.43,-12.43,6.00,5.98,5.20,-6.61,-6.61,-0.17
25.39,-12.52,-12.52,-12.35,-12.35,6.00,5.99,5.33,-6.52,-6.52,-0.16
25.65,-12.43,-12.43,-12.27,-12.27,6.00,6.00,5.47,-6.43,-6.43,-0.16
25.91,-12.34,-12.34,-12.19,-12.18,6.00,6.01,5.60,-6.34,-6.34,-0.15
26.16,-12.25,-12.25,-12.09,-12.10,6.00,6.02,5.74,-6.25,-6.25,-0.15
26.43,-12.17,-12.16,-12.03,-12.02,6.00,6.03,5.87,-6.17,-6.16,-0.14
26.69,-12.08,-12.08,-11.92,-11.93,6.00,6.03,6.01,-6.08,-6.08,-0.15
26.96,-11.99,-11.99,-11.84,-11.83,6.00,6.04,6.14,-5.99,-5.99,-0.15
27.23,-11.89,-11.89,-11.74,-11.74,6.00,6.05,6.27,-5.89,-5.89,-0.15
27.50,-11.79,-11.79,-11.63,-11.64,6.00,6.06,6.39,-5.79,-5.79,-0.15
27.77,-11.70,-11.69,-11.54,-11.54,6.00,6.07,6.52,-5.70,-5.69,-0.15
28.05,-11.61,-11.61,-11.44,-11.45,6.00,6.08,6.63,-5.61,-5.61,-0.16
28.33,-11.53,-11.53,-11.35,-11.36,6.00,6.08,6.75,-5.53,-5.53,-0.17
28.62,-11.46,-11.45,-11.29,-11.28,6.00,6.09,6.85,-5.46,-5.45,-0.17
28.90,-11.38,-11.37,-11.19,-11.19,6.00,6.10,6.95,-5.38,-5.37,-0.18
29.19,-11.29,-11.29,-11.08,-11.09,6.00,6.11,7.05,-5.29,-5.29,-0.20
29.48,-11.19,-11.18,-10.97,-10.97,6.00,6.12,7.13,-5.19,-5.18,-0.21
29.78,-11.08,-11.08,-10.86,-10.85,6.00,6.13,7.20,-5.08,-5.08,-0.22
30.08,-10.97,-10.97,-10.73,-10.73,6.00,6.13,7.27,-4.97,-4.97,-0.24
30.38,-10.87,-10.87,-10.62,-10.62,6.00,6.14,7.32,-4.87,-4.87,-0.25
30.68,-10.78,-10.78,-10.51,-10.52,6.00,6.15,7.36,-4.78,-4.78,-0.26
30.99,-10.71,-10.70,-10.44,-10.43,6.00,6.16,7.40,-4.71,-4.70,-0.27
31.30,-10.63,-10.62,-10.34,-10.33,6.00,6.16,7.41,-4.63,-4.62,-0.29
31.61,-10.54,-10.54,-10.22,-10.23,6.00,6.17,7.43,-4.54,-4.54,-0.31
31.93,-10.44,-10.43,-10.11,-10.10,6.00,6.18,7.42,-4.44,-4.43,-0.33
32.24,-10.33,-10.33,-9.97,-9.97,6.00,6.18,7.41,-4.33,-4.33,-0.35
32.57,-10.23,-10.23,-9.85,-9.85,6.00,6.19,7.38,-4.23,-4.23,-0.38
32.89,-10.14,-10.14,-9.73,-9.74,6.00,6.19,7.35,-4.14,-4.14,-0.40
33.22,-10.08,-10.08,-9.65,-9.66,6.00,6.20,7.31,-4.08,-4.08,-0.42
33.55,-10.04,-10.04,-9.59,-9.59,6.00,6.20,7.26,-4.04,-4.04,-0.44
33.89,-10.00,-9.99,-9.52,-9.52,6.00,6.21,7.19,-4.00,-3.99,-0.47
34.23,-9.93,-9.93,-9.44,-9.43,6.00,6.21,7.13,-3.93,-3.93,-0.49
34.57,-9.85,-9.84,-9.32,-9.32,6.00,6.21,7.05,-3.85,-3.84,-0.52
34.92,-9.75,-9.75,-9.21,-9.20,6.00,6.22,6.97,-3.75,-3.75,-0.54
35.27,-9.65,-9.65,-9.08,-9.09,6.00,6.22,6.89,-3.65,-3.65,-0.57
35.62,-9.57,-9.57,-8.98,-8.98,6.00,6.22,6.80,-3.57,-3.57,-0.59
35.97,-9.51,-9.50,-8.90,-8.90,6.00,6.22,6.71,-3.51,-3.50,-0.60
36.33,-9.45,-9.44,-8.82,-8.82,6.00,6.22,6.62,-3.45,-3.44,-0.62
36.70,-9.37,-9.37,-8.74,-8.74,6.00,6.22,6.52,-3.37,-3.37,-0.63
37.06,-9.29,-9.28,-8.64,-8.64,6.00,6.22,6.43,-3.29,-3.28,-0.64
37.43,-9.19,-9.19,-8.53,-8.54,6.00,6.22,6.33,-3.19,-3.19,-0.65
37.81,-9.10,-9.10,-8.43,-8.43,6.00,6.21,6.24,-3.10,-3.10,-0.66
38.19,-9.01,-9.01,-8.34,-8.34,6.00,6.21,6.14,-3.01,-3.01,-0.67
38.57,-8.94,-8.94,-8.26,-8.26,6.00,6.20,6.05,-2.94,-2.94,-0.67
38.95,-8.87,-8.86,-8.19,-8.19,6.00,6.20,5.96,-2.87,-2.86,-0.67
39.34,-8.79,-8.79,-8.11,-8.11,6.00,6.19,5.87,-2.79,-2.79,-0.67
39.74,-8.71,-8.71,-8.03,-8.03,6.00,6.18,5.78,-2.71,-2.71,-0.67
40.14,-8.63,-8.63,-7.96,-7.96,6.00,6.17,5.70,-2.63,-2.63,-0.67
40.54,-8.56,-8.56,-7.89,-7.89,6.00,6.16,5.62,-2.56,-2.56,-0.67
40.94,-8.50,-8.49,-7.82,-7.82,6.00,6.15,5.54,-2.50,-2.49,-0.67
41.35,-8.43,-8.42,-7.75,-7.75,6.00,6.14,5.47,-2.43,-2.42,-0.67
41.76,-8.34,-8.33,-7.66,-7.66,6.00,6.12,5.40,-2.34,-2.33,-0.67
42.18,-8.24,-8.23,-7.55,-7.55,6.00,6.10,5.33,-2.24,-2.23,-0.68
42.60,-8.13,-8.14,-7.44,-7.45,6.00,6.09,5.27,-2.13,-2.14,-0.68
43.03,-8.05,-8.05,-7.35,-7.36,6.00,6.07,5.21,-2.05,-2.05,-0.69
43.46,-7.98,-7.98,-7.28,-7.28,6.00,6.05,5.16,-1.98,-1.98,-0.69
43.90,-7.90,-7.89,-7.20,-7.19,6.00,6.02,5.11,-1.90,-1.89,-0.70
44.33,-7.79,-7.77,-7.07,-7.06,6.00,6.00,5.06,-1.79,-1.77,-0.71
44.78,-7.62,-7.62,-6.90,-6.90,6.00,5.97,5.02,-1.62,-1.62,-0.72
45.23,-7.46,-7.47,-6.74,-6.74,6.00,5.95,4.98,-1.46,-1.47,-0.72
45.68,-7.35,-7.37,-6.61,-6.63,6.00,5.92,4.95,-1.35,-1.37,-0.74
46.13,-7.32,-7.33,-6.56,-6.58,6.00,5.89,4.91,-1.32,-1.33,-0.75
46.60,-7.35,-7.34,-6.58,-6.57,6.00,5.85,4.89,-1.35,-1.34,-0.76
47.06,-7.36,-7.34,-6.57,-6.56,6.01,5.82,4.86,-1.35,-1.34,-0.78
47.53,-7.33,-7.30,-6.52,-6.50,6.01,5.78,4.84,-1.31,-1.29,-0.80
48.01,-7.21,-7.22,-6.39,-6.40,6.02,5.74,4.83,-1.19,-1.20,-0.82
48.49,-7.10,-7.11,-6.27,-6.28,6.02,5.70,4.81,-1.08,-1.10,-0.83
48.97,-7.02,-7.02,-6.16,-6.17,6.00,5.66,4.80,-1.01,-1.02,-0.85
49.46,-6.95,-6.95,-6.07,-6.08,5.98,5.62,4.79,-0.97,-0.97,-0.87
49.96,-6.89,-6.88,-6.00,-6.00,5.94,5.57,4.79,-0.95,-0.94,-0.88
50.46,-6.82,-6.81,-5.92,-5.91,5.88,5.52,4.78,-0.93,-0.93,-0.90
50.96,-6.74,-6.74,-5.81,-5.82,5.81,5.47,4.78,-0.92,-0.93,-0.92
51.47,-6.67,-6.67,-5.71,-5.72,5.73,5.42,4.78,-0.94,-0.93,-0.95
51.99,-6.59,-6.59,-5.62,-5.62,5.64,5.36,4.78,-0.95,-0.95,-0.97
52.51,-6.52,-6.51,-5.53,-5.52,5.53,5.31,4.79,-0.99,-0.98,-0.99
53.03,-6.44,-6.44,-5.42,-5.42,5.42,5.25,4.79,-1.01,-1.02,-1.01
53.56,-6.36,-6.36,-5.31,-5.32,5.32,5.19,4.79,-1.04,-1.04,-1.04
54.10,-6.28,-6.27,-5.22,-5.21,5.21,5.12,4.79,-1.06,-1.06,-1.06
54.64,-6.19,-6.19,-5.10,-5.10,5.11,5.06,4.80,-1.07,-1.08,-1.09
55.18,-6.12,-6.12,-5.00,-5.01,5.02,4.99,4.80,-1.10,-1.11,-1.11
55.74,-6.06,-6.05,-4.92,-4.92,4.92,4.92,4.79,-1.14,-1.14,-1.14
56.29,-6.00,-5.99,-4.83,-4.83,4.82,4.85,4.79,-1.18,-1.17,-1.16
56.86,-5.92,-5.92,-4.73,-4.73,4.72,4.78,4.78,-1.20,-1.20,-1.19
57.42,-5.85,-5.85,-4.62,-4.63,4.62,4.70,4.77,-1.22,-1.22,-1.22
58.00,-5.77,-5.77,-4.52,-4.53,4.52,4.62,4.76,-1.25,-1.25,-1.24
58.58,-5.69,-5.69,-4.42,-4.42,4.42,4.54,4.74,-1.27,-1.27,-1.26
59.16,-5.61,-5.60,-4.32,-4.32,4.31,4.46,4.71,-1.29,-1.29,-1.28
59.76,-5.51,-5.51,-4.20,-4.20,4.21,4.38,4.68,-1.30,-1.30,-1.31
60.35,-5.43,-5.43,-4.09,-4.09,4.10,4.29,4.65,-1.32,-1.32,-1.33
60.96,-5.35,-5.35,-3.99,-3.99,4.00,4.21,4.61,-1.35,-1.35,-1.36
61.57,-5.28,-5.28,-3.90,-3.89,3.89,4.12,4.56,-1.38,-1.38,-1.38
62.18,-5.21,-5.21,-3.79,-3.80,3.79,4.03,4.51,-1.42,-1.42,-1.41
62.80,-5.14,-5.13,-3.70,-3.70,3.68,3.94,4.45,-1.45,-1.45,-1.43
63.43,-5.05,-5.05,-3.59,-3.59,3.58,3.84,4.38,-1.47,-1.47,-1.45
64.07,-4.96,-4.96,-3.48,-3.48,3.48,3.75,4.30,-1.48,-1.48,-1.48
64.71,-4.87,-4.87,-3.37,-3.36,3.38,3.65,4.22,-1.49,-1.49,-1.50
65.35,-4.78,-4.78,-3.25,-3.26,3.28,3.55,4.14,-1.50,-1.51,-1.52
66.01,-4.71,-4.71,-3.16,-3.17,3.18,3.45,4.04,-1.53,-1.53,-1.54
66.67,-4.65,-4.64,-3.08,-3.08,3.08,3.35,3.94,-1.57,-1.56,-1.56
67.33,-4.58,-4.58,-2.99,-2.99,2.99,3.25,3.84,-1.59,-1.59,-1.58
68.01,-4.52,-4.51,-2.90,-2.90,2.89,3.14,3.73,-1.62,-1.62,-1.61
68.69,-4.44,-4.44,-2.80,-2.80,2.80,3.04,3.61,-1.64,-1.64,-1.63
69.37,-4.36,-4.36,-2.70,-2.71,2.71,2.93,3.49,-1.65,-1.65,-1.65
70.07,-4.29,-4.29,-2.61,-2.61,2.62,2.82,3.36,-1.67,-1.67,-1.67
70.77,-4.22,-4.22,-2.52,-2.52,2.52,2.71,3.24,-1.69,-1.69,-1.69
71.48,-4.15,-4.14,-2.42,-2.42,2.43,2.60,3.10,-1.72,-1.71,-1.72
72.19,-4.07,-4.07,-2.32,-2.33,2.34,2.49,2.97,-1.73,-1.73,-1.74
72.91,-4.00,-4.00,-2.23,-2.24,2.24,2.38,2.83,-1.75,-1.76,-1.76
73.64,-3.94,-3.93,-2.15,-2.15,2.15,2.27,2.69,-1.79,-1.78,-1.78
74.38,-3.87,-3.87,-2.06,-2.06,2.05,2.15,2.55,-1.82,-1.82,-1.80
75.12,-3.80,-3.80,-1.96,-1.97,1.95,2.04,2.41,-1.84,-1.84,-1.83
75.87,-3.73,-3.72,-1.86,-1.86,1.86,1.92,2.26,-1.87,-1.87,-1.86
76.63,-3.65,-3.65,-1.75,-1.75,1.76,1.80,2.11,-1.89,-1.89,-1.89
77.40,-3.57,-3.57,-1.64,-1.65,1.66,1.68,1.97,-1.91,-1.91,-1.92
78.17,-3.50,-3.50,-1.54,-1.54,1.56,1.56,1.82,-1.94,-1.94,-1.95
78.95,-3.43,-3.43,-1.44,-1.45,1.45,1.45,1.67,-1.98,-1.98,-1.98
79.74,-3.38,-3.37,-1.35,-1.35,1.34,1.33,1.52,-2.03,-2.03,-2.02
80.54,-3.31,-3.30,-1.25,-1.25,1.23,1.20,1.37,-2.07,-2.07,-2.05
81.35,-3.23,-3.23,-1.12,-1.13,1.12,1.08,1.22,-2.11,-2.11,-2.10
82.16,-3.16,-3.16,-1.00,-1.00,1.00,0.96,1.07,-2.16,-2.16,-2.15
82.98,-3.09,-3.09,-0.87,-0.88,0.88,0.84,0.92,-2.21,-2.20,-2.21
83.81,-3.02,-3.01,-0.75,-0.75,0.76,0.72,0.77,-2.26,-2.26,-2.26
84.65,-2.94,-2.94,-0.62,-0.62,0.63,0.59,0.62,-2.31,-2.31,-2.31
85.50,-2.87,-2.87,-0.50,-0.50,0.50,0.47,0.47,-2.37,-2.37,-2.37
86.35,-2.80,-2.80,-0.37,-0.37,0.37,0.34,0.32,-2.42,-2.42,-2.42
87.22,-2.73,-2.73,-0.25,-0.24,0.24,0.22,0.17,-2.48,-2.48,-2.48
88.09,-2.66,-2.66,-0.11,-0.12,0.11,0.10,0.02,-2.55,-2.55,-2.54
88.97,-2.60,-2.60,0.02,0.02,-0.02,-0.03,-0.13,-2.62,-2.62,-2.61
89.86,-2.54,-2.53,0.15,0.15,-0.15,-0.15,-0.28,-2.69,-2.69,-2.68
90.76,-2.47,-2.47,0.29,0.29,-0.29,-0.28,-0.43,-2.75,-2.76,-2.76
91.66,-2.41,-2.40,0.43,0.42,-0.42,-0.40,-0.58,-2.83,-2.82,-2.83
92.58,-2.33,-2.33,0.56,0.56,-0.56,-0.53,-0.73,-2.88,-2.88,-2.88
93.51,-2.25,-2.25,0.69,0.69,-0.69,-0.65,-0.87,-2.94,-2.94,-2.94
94.44,-2.18,-2.18,0.83,0.82,-0.83,-0.78,-1.02,-3.00,-3.00,-3.00
95.39,-2.11,-2.11,0.95,0.96,-0.96,-0.90,-1.17,-3.07,-3.07,-3.06
96.34,-2.05,-2.04,1.09,1.09,-1.09,-1.03,-1.32,-3.13,-3.13,-3.13
97.30,-1.98,-1.98,1.22,1.22,-1.21,-1.15,-1.47,-3.19,-3.19,-3.19
98.28,-1.91,-1.91,1.35,1.34,-1.34,-1.28,-1.62,-3.24,-3.25,-3.25
99.26,-1.85,-1.85,1.47,1.46,-1.46,-1.40,-1.77,-3.30,-3.30,-3.31
100.25,-1.79,-1.79,1.58,1.58,-1.58,-1.52,-1.92,-3.36,-3.36,-3.36
101.25,-1.73,-1.73,1.70,1.69,-1.70,-1.64,-2.07,-3.42,-3.42,-3.42
102.27,-1.67,-1.67,1.81,1.81,-1.81,-1.77,-2.21,-3.48,-3.48,-3.47
103.29,-1.61,-1.60,1.92,1.92,-1.93,-1.89,-2.36,-3.54,-3.53,-3.52
104.32,-1.54,-1.54,2.05,2.04,-2.04,-2.01,-2.50,-3.58,-3.58,-3.58
105.37,-1.47,-1.47,2.16,2.16,-2.16,-2.13,-2.65,-3.63,-3.63,-3.63
106.42,-1.41,-1.40,2.28,2.28,-2.27,-2.25,-2.79,-3.68,-3.68,-3.68
107.48,-1.34,-1.34,2.40,2.39,-2.39,-2.37,-2.93,-3.73,-3.73,-3.73
108.56,-1.28,-1.28,2.51,2.50,-2.50,-2.49,-3.07,-3.78,-3.78,-3.78
109.64,-1.22,-1.22,2.62,2.62,-2.62,-2.60,-3.20,-3.83,-3.83,-3.83
110.74,-1.16,-1.16,2.73,2.73,-2.73,-2.72,-3.33,-3.89,-3.89,-3.88
111.85,-1.10,-1.10,2.85,2.84,-2.84,-2.84,-3.46,-3.94,-3.94,-3.94
112.97,-1.04,-1.04,2.96,2.96,-2.96,-2.95,-3.59,-3.99,-3.99,-3.99
114.10,-0.98,-0.97,3.07,3.07,-3.08,-3.06,-3.71,-4.05,-4.05,-4.04
115.24,-0.91,-0.91,3.20,3.19,-3.20,-3.18,-3.82,-4.11,-4.11,-4.10
116.39,-0.84,-0.84,3.31,3.30,-3.32,-3.29,-3.94,-4.16,-4.16,-4.14
117.55,-0.78,-0.76,3.42,3.43,-3.44,-3.40,-4.04,-4.22,-4.20,-4.19
118.73,-0.69,-0.68,3.56,3.56,-3.55,-3.51,-4.14,-4.24,-4.23,-4.24
119.92,-0.59,-0.61,3.70,3.69,-3.66,-3.62,-4.23,-4.25,-4.26,-4.29
121.12,-0.54,-0.55,3.82,3.80,-3.76,-3.72,-4.33,-4.30,-4.31,-4.35
122.33,-0.54,-0.52,3.87,3.88,-3.86,-3.83,-4.41,-4.40,-4.38,-4.40
123.55,-0.51,-0.50,3.95,3.95,-3.96,-3.93,-4.48,-4.47,-4.46,-4.45
124.79,-0.47,-0.47,4.04,4.03,-4.06,-4.03,-4.55,-4.52,-4.53,-4.50
126.03,-0.43,-0.42,4.13,4.13,-4.15,-4.14,-4.62,-4.58,-4.58,-4.55
127.29,-0.37,-0.37,4.24,4.23,-4.25,-4.24,-4.67,-4.62,-4.62,-4.60
128.57,-0.31,-0.30,4.35,4.35,-4.36,-4.34,-4.73,-4.67,-4.66,-4.65
129.85,-0.24,-0.24,4.48,4.47,-4.47,-4.43,-4.77,-4.71,-4.71,-4.71
131.15,-0.18,-0.18,4.60,4.59,-4.58,-4.53,-4.81,-4.76,-4.76,-4.77
132.46,-0.13,-0.12,4.71,4.71,-4.70,-4.62,-4.84,-4.82,-4.82,-4.83
133.79,-0.07,-0.07,4.83,4.82,-4.81,-4.72,-4.88,-4.88,-4.88,-4.89
135.12,-0.02,-0.02,4.93,4.92,-4.92,-4.81,-4.90,-4.94,-4.94,-4.94
136.48,0.03,0.03,5.03,5.02,-5.02,-4.90,-4.92,-4.99,-4.99,-4.99
137.84,0.07,0.08,5.12,5.12,-5.13,-4.99,-4.94,-5.06,-5.05,-5.04
139.22,0.12,0.12,5.23,5.22,-5.23,-5.07,-4.95,-5.11,-5.11,-5.10
140.61,0.16,0.16,5.33,5.32,-5.33,-5.16,-4.97,-5.17,-5.17,-5.16
142.02,0.21,0.21,5.43,5.43,-5.43,-5.24,-4.98,-5.22,-5.22,-5.21
143.44,0.25,0.26,5.53,5.53,-5.53,-5.32,-4.99,-5.27,-5.27,-5.27
144.87,0.30,0.30,5.64,5.63,-5.62,-5.40,-4.99,-5.32,-5.32,-5.33
146.32,0.35,0.35,5.73,5.73,-5.72,-5.48,-5.00,-5.37,-5.37,-5.37
147.78,0.39,0.39,5.82,5.82,-5.81,-5.56,-5.01,-5.42,-5.42,-5.42
149.26,0.43,0.43,5.90,5.90,-5.90,-5.63,-5.02,-5.47,-5.47,-5.46
150.75,0.47,0.47,5.99,5.98,-5.99,-5.71,-5.02,-5.52,-5.52,-5.51
152.26,0.51,0.51,6.07,6.06,-6.07,-5.78,-5.03,-5.56,-5.56,-5.55
153.78,0.55,0.55,6.15,6.15,-6.15,-5.85,-5.04,-5.60,-5.60,-5.59
155.32,0.59,0.60,6.23,6.23,-6.23,-5.92,-5.06,-5.63,-5.63,-5.63
156.88,0.64,0.64,6.32,6.31,-6.30,-5.99,-5.07,-5.66,-5.66,-5.67
158.44,0.67,0.68,6.38,6.38,-6.37,-6.05,-5.09,-5.70,-5.69,-5.70
160.03,0.71,0.71,6.45,6.44,-6.43,-6.12,-5.11,-5.72,-5.73,-5.73
161.63,0.73,0.74,6.49,6.49,-6.50,-6.18,-5.14,-5.76,-5.76,-5.75
163.24,0.76,0.76,6.55,6.55,-6.55,-6.24,-5.16,-5.79,-5.79,-5.78
164.88,0.79,0.79,6.61,6.60,-6.61,-6.29,-5.19,-5.82,-5.82,-5.81
166.53,0.82,0.82,6.66,6.66,-6.66,-6.35,-5.23,-5.84,-5.84,-5.83
168.19,0.85,0.85,6.72,6.71,-6.71,-6.41,-5.27,-5.86,-5.86,-5.86
169.87,0.88,0.88,6.77,6.76,-6.76,-6.46,-5.30,-5.88,-5.88,-5.88
171.57,0.90,0.90,6.81,6.81,-6.81,-6.51,-5.35,-5.90,-5.90,-5.90
173.29,0.92,0.93,6.85,6.85,-6.85,-6.56,-5.40,-5.93,-5.92,-5.92
175.02,0.95,0.95,6.90,6.89,-6.89,-6.60,-5.45,-5.94,-5.94,-5.94
176.77,0.97,0.97,6.94,6.93,-6.93,-6.65,-5.51,-5.95,-5.96,-5.96
178.54,0.98,0.99,6.96,6.96,-6.96,-6.69,-5.57,-5.97,-5.97,-5.97
180.32,0.99,0.99,6.99,6.98,-6.98,-6.73,-5.64,-5.99,-5.99,-5.99
182.13,0.99,0.99,7.01,7.00,-7.01,-6.77,-5.71,-6.01,-6.01,-6.01
183.95,0.99,0.99,7.03,7.02,-7.03,-6.81,-5.78,-6.03,-6.03,-6.03
185.79,0.99,1.00,7.04,7.04,-7.04,-6.84,-5.86,-6.05,-6.05,-6.04
187.65,1.00,1.00,7.06,7.05,-7.06,-6.87,-5.94,-6.05,-6.06,-6.05
189.52,1.00,1.00,7.07,7.07,-7.07,-6.90,-6.03,-6.06,-6.06,-6.06
191.42,0.99,0.99,7.08,7.07,-7.07,-6.93,-6.12,-6.08,-6.08,-6.08
193.33,0.98,0.98,7.08,7.07,-7.07,-6.95,-6.22,-6.09,-6.09,-6.09
195.27,0.96,0.97,7.07,7.07,-7.07,-6.97,-6.31,-6.11,-6.10,-6.10
197.22,0.95,0.95,7.07,7.06,-7.06,-6.99,-6.42,-6.11,-6.11,-6.11
199.19,0.93,0.93,7.06,7.05,-7.05,-7.00,-6.52,-6.12,-6.12,-6.12
201.18,0.90,0.90,7.04,7.03,-7.03,-7.01,-6.63,-6.13,-6.13,-6.13
203.19,0.86,0.87,7.01,7.01,-7.01,-7.01,-6.74,-6.15,-6.14,-6.14
205.23,0.83,0.83,6.99,6.98,-6.98,-7.01,-6.85,-6.15,-6.15,-6.15
207.28,0.79,0.79,6.96,6.95,-6.95,-7.01,-6.96,-6.16,-6.16,-6.16
209.35,0.75,0.75,6.92,6.92,-6.92,-7.00,-7.08,-6.16,-6.17,-6.16
211.44,0.70,0.71,6.88,6.88,-6.88,-6.98,-7.19,-6.18,-6.17,-6.17
213.56,0.66,0.66,6.84,6.84,-6.84,-6.96,-7.31,-6.17,-6.18,-6.17
215.69,0.61,0.62,6.80,6.80,-6.79,-6.94,-7.42,-6.18,-6.18,-6.18
217.85,0.57,0.57,6.76,6.75,-6.75,-6.91,-7.54,-6.17,-6.17,-6.18
220.03,0.53,0.53,6.72,6.71,-6.70,-6.88,-7.65,-6.17,-6.17,-6.18
222.23,0.48,0.48,6.66,6.66,-6.66,-6.84,-7.76,-6.17,-6.17,-6.17
224.45,0.44,0.44,6.62,6.61,-6.62,-6.81,-7.87,-6.17,-6.18,-6.17
226.70,0.40,0.41,6.58,6.57,-6.58,-6.78,-7.97,-6.18,-6.18,-6.17
228.96,0.38,0.38,6.55,6.55,-6.56,-6.75,-8.06,-6.18,-6.18,-6.16
231.25,0.37,0.37,6.54,6.53,-6.55,-6.74,-8.15,-6.17,-6.18,-6.16
233.57,0.37,0.38,6.54,6.54,-6.54,-6.73,-8.24,-6.17,-6.17,-6.16
235.90,0.39,0.39,6.56,6.56,-6.55,-6.74,-8.31,-6.16,-6.16,-6.16
238.26,0.42,0.42,6.59,6.58,-6.57,-6.77,-8.38,-6.15,-6.15,-6.16
240.64,0.45,0.46,6.61,6.61,-6.61,-6.81,-8.43,-6.15,-6.15,-6.15
243.05,0.50,0.50,6.65,6.65,-6.65,-6.86,-8.48,-6.15,-6.15,-6.14
245.48,0.56,0.56,6.70,6.69,-6.70,-6.92,-8.52,-6.14,-6.14,-6.13
247.93,0.63,0.63,6.76,6.76,-6.76,-6.98,-8.55,-6.13,-6.13,-6.12
250.41,0.71,0.71,6.83,6.83,-6.83,-7.05,-8.56,-6.12,-6.12,-6.11
252.92,0.80,0.80,6.91,6.90,-6.91,-7.12,-8.57,-6.10,-6.10,-6.10
255.45,0.89,0.89,6.99,6.98,-6.98,-7.18,-8.56,-6.09,-6.09,-6.09
258.00,0.98,0.98,7.07,7.07,-7.06,-7.24,-8.55,-6.08,-6.08,-6.08
260.58,1.07,1.07,7.16,7.15,-7.15,-7.29,-8.52,-6.07,-6.07,-6.08
263.19,1.16,1.16,7.24,7.23,-7.22,-7.34,-8.49,-6.06,-6.06,-6.07
265.82,1.24,1.24,7.31,7.31,-7.30,-7.39,-8.44,-6.06,-6.06,-6.06
268.48,1.32,1.32,7.38,7.38,-7.38,-7.43,-8.39,-6.05,-6.05,-6.05
271.16,1.40,1.40,7.45,7.45,-7.45,-7.46,-8.33,-6.05,-6.04,-6.04
273.87,1.48,1.48,7.52,7.51,-7.52,-7.50,-8.27,-6.03,-6.04,-6.03
276.61,1.55,1.56,7.58,7.58,-7.58,-7.52,-8.20,-6.03,-6.03,-6.02
279.38,1.62,1.62,7.65,7.64,-7.64,-7.55,-8.12,-6.02,-6.02,-6.02
282.17,1.68,1.68,7.71,7.70,-7.70,-7.57,-8.04,-6.02,-6.02,-6.02
284.99,1.73,1.74,7.76,7.76,-7.75,-7.58,-7.96,-6.02,-6.02,-6.02
287.84,1.78,1.78,7.81,7.81,-7.81,-7.60,-7.87,-6.02,-6.02,-6.02
290.72,1.83,1.83,7.86,7.85,-7.85,-7.61,-7.79,-6.02,-6.02,-6.02
293.63,1.87,1.87,7.90,7.90,-7.90,-7.62,-7.70,-6.02,-6.02,-6.02
296.57,1.91,1.91,7.94,7.94,-7.94,-7.62,-7.61,-6.02,-6.02,-6.02
299.53,1.95,1.95,7.98,7.97,-7.97,-7.63,-7.53,-6.02,-6.02,-6.02
302.53,1.98,1.98,8.01,8.01,-8.01,-7.63,-7.44,-6.02,-6.02,-6.02
305.55,2.01,2.01,8.04,8.04,-8.04,-7.63,-7.36,-6.02,-6.02,-6.02
308.61,2.04,2.04,8.07,8.06,-8.06,-7.63,-7.27,-6.02,-6.02,-6.02
311.69,2.06,2.06,8.09,8.09,-8.09,-7.63,-7.20,-6.03,-6.03,-6.02
314.81,2.08,2.09,8.11,8.11,-8.11,-7.62,-7.12,-6.03,-6.03,-6.02
317.96,2.10,2.10,8.13,8.13,-8.13,-7.62,-7.05,-6.03,-6.03,-6.02
321.14,2.12,2.12,8.15,8.14,-8.14,-7.61,-6.98,-6.02,-6.02,-6.02
324.35,2.13,2.14,8.16,8.16,-8.15,-7.60,-6.92,-6.02,-6.02,-6.02
327.59,2.14,2.14,8.17,8.16,-8.15,-7.60,-6.86,-6.01,-6.01,-6.02
330.87,2.14,2.14,8.17,8.16,-8.15,-7.58,-6.80,-6.01,-6.01,-6.02
334.18,2.13,2.14,8.15,8.15,-8.15,-7.57,-6.75,-6.02,-6.01,-6.01
337.52,2.13,2.13,8.14,8.14,-8.14,-7.56,-6.70,-6.01,-6.01,-6.00
340.90,2.13,2.13,8.13,8.12,-8.13,-7.55,-6.66,-6.00,-6.00,-5.99
344.30,2.13,2.13,8.12,8.11,-8.12,-7.53,-6.62,-5.98,-5.98,-5.98
347.75,2.13,2.13,8.10,8.10,-8.10,-7.52,-6.59,-5.97,-5.97,-5.96
351.23,2.13,2.13,8.09,8.08,-8.09,-7.50,-6.56,-5.95,-5.95,-5.95
354.74,2.13,2.13,8.07,8.07,-8.07,-7.48,-6.54,-5.94,-5.93,-5.93
358.28,2.13,2.13,8.06,8.05,-8.05,-7.46,-6.52,-5.92,-5.92,-5.92
361.87,2.13,2.13,8.04,8.03,-8.03,-7.44,-6.51,-5.90,-5.90,-5.90
365.49,2.12,2.13,8.00,8.00,-8.00,-7.42,-6.50,-5.88,-5.88,-5.87
369.14,2.12,2.12,7.98,7.97,-7.97,-7.40,-6.50,-5.85,-5.85,-5.85
372.83,2.11,2.11,7.95,7.94,-7.94,-7.38,-6.50,-5.83,-5.83,-5.83
376.56,2.09,2.10,7.91,7.91,-7.90,-7.36,-6.51,-5.81,-5.81,-5.81
380.33,2.07,2.07,7.87,7.86,-7.86,-7.33,-6.52,-5.79,-5.79,-5.79
384.13,2.04,2.04,7.82,7.82,-7.81,-7.31,-6.54,-5.77,-5.77,-5.77
387.97,2.01,2.01,7.77,7.77,-7.77,-7.28,-6.56,-5.75,-5.75,-5.75
391.85,1.98,1.98,7.72,7.71,-7.71,-7.26,-6.58,-5.73,-5.73,-5.73
395.77,1.94,1.94,7.66,7.66,-7.66,-7.23,-6.61,-5.72,-5.72,-5.71
399.73,1.90,1.91,7.60,7.60,-7.61,-7.20,-6.64,-5.70,-5.70,-5.69
403.72,1.87,1.87,7.56,7.55,-7.55,-7.18,-6.67,-5.68,-5.68,-5.68
407.76,1.83,1.84,7.50,7.50,-7.50,-7.15,-6.71,-5.66,-5.66,-5.66
411.84,1.80,1.80,7.45,7.44,-7.44,-7.12,-6.75,-5.64,-5.64,-5.64
415.96,1.76,1.76,7.39,7.39,-7.39,-7.09,-6.79,-5.63,-5.63,-5.62
420.12,1.72,1.73,7.34,7.34,-7.34,-7.06,-6.83,-5.62,-5.61,-5.61
424.32,1.69,1.69,7.29,7.28,-7.29,-7.03,-6.88,-5.60,-5.60,-5.59
428.56,1.66,1.66,7.24,7.24,-7.24,-6.99,-6.92,-5.58,-5.58,-5.57
432.85,1.63,1.64,7.19,7.19,-7.19,-6.96,-6.97,-5.56,-5.56,-5.55
437.18,1.61,1.61,7.15,7.14,-7.14,-6.93,-7.01,-5.53,-5.54,-5.53
