frequency,raw,smoothed,error,error_smoothed,equalization,parametric_eq,fixed_band_eq,equalized_raw,equalized_smoothed,target
20.00,15.26,15.26,7.80,7.80,-7.81,-7.65,-3.12,7.45,7.45,7.46
20.20,15.24,15.24,7.78,7.78,-7.78,-7.63,-3.21,7.46,7.46,7.46
20.40,15.22,15.22,7.76,7.76,-7.75,-7.62,-3.29,7.47,7.47,7.46
20.61,15.19,15.19,7.73,7.73,-7.72,-7.60,-3.39,7.46,7.47,7.46
20.81,15.16,15.16,7.70,7.70,-7.70,-7.58,-3.48,7.46,7.46,7.46
21.02,15.13,15.12,7.67,7.67,-7.68,-7.57,-3.58,7.45,7.45,7.45
21.23,15.09,15.09,7.64,7.64,-7.66,-7.55,-3.68,7.43,7.44,7.45
21.44,15.07,15.07,7.62,7.62,-7.64,-7.53,-3.79,7.43,7.44,7.45
21.66,15.06,15.06,7.61,7.61,-7.62,-7.52,-3.89,7.44,7.43,7.45
21.87,15.05,15.05,7.60,7.60,-7.61,-7.50,-4.00,7.44,7.44,7.45
22.09,15.05,15.05,7.60,7.60,-7.60,-7.48,-4.11,7.44,7.44,7.45
22.31,15.04,15.04,7.59,7.59,-7.59,-7.46,-4.23,7.45,7.45,7.45
22.54,15.03,15.03,7.58,7.58,-7.57,-7.45,-4.35,7.46,7.46,7.45
22.76,15.01,15.00,7.56,7.56,-7.53,-7.43,-4.47,7.48,7.48,7.45
22.99,14.96,14.96,7.51,7.51,-7.47,-7.41,-4.59,7.49,7.48,7.45
23.22,14.89,14.89,7.44,7.44,-7.40,-7.39,-4.72,7.49,7.48,7.45
23.45,14.79,14.79,7.34,7.34,-7.32,-7.37,-4.85,7.47,7.47,7.44
23.69,14.68,14.68,7.24,7.24,-7.23,-7.35,-4.99,7.45,7.45,7.44
23.92,14.57,14.57,7.13,7.13,-7.14,-7.33,-5.12,7.42,7.43,7.44
24.16,14.47,14.47,7.03,7.03,-7.07,-7.31,-5.26,7.40,7.41,7.44
24.40,14.40,14.40,6.96,6.96,-7.01,-7.29,-5.40,7.39,7.40,7.44
24.65,14.36,14.36,6.92,6.92,-6.96,-7.27,-5.55,7.40,7.40,7.44
24.89,14.35,14.35,6.91,6.92,-6.94,-7.24,-5.69,7.41,7.41,7.44
25.14,14.37,14.37,6.93,6.93,-6.94,-7.22,-5.84,7.43,7.43,7.44
25.39,14.40,14.40,6.96,6.96,-6.95,-7.20,-5.99,7.45,7.45,7.43
25.65,14.43,14.42,7.00,6.99,-6.96,-7.18,-6.14,7.47,7.46,7.43
25.91,14.44,14.44,7.01,7.01,-6.98,-7.15,-6.29,7.46,7.46,7.43
26.16,14.45,14.45,7.02,7.02,-7.00,-7.13,-6.44,7.45,7.44,7.43
26.43,14.45,14.45,7.02,7.02,-7.02,-7.10,-6.59,7.43,7.43,7.43
26.69,14.45,14.45,7.02,7.02,-7.04,-7.08,-6.74,7.41,7.41,7.43
26.96,14.45,14.45,7.02,7.03,-7.05,-7.05,-6.88,7.40,7.41,7.43
27.23,14.46,14.46,7.04,7.04,-7.05,-7.03,-7.03,7.41,7.41,7.42
27.50,14.47,14.47,7.05,7.05,-7.05,-7.00,-7.17,7.42,7.42,7.42
27.77,14.48,14.48,7.06,7.06,-7.04,-6.98,-7.31,7.44,7.43,7.42
28.05,14.47,14.47,7.05,7.05,-7.03,-6.95,-7.44,7.44,7.44,7.42
28.33,14.45,14.45,7.03,7.03,-7.01,-6.92,-7.57,7.44,7.44,7.42
28.62,14.41,14.40,7.00,6.99,-6.98,-6.89,-7.69,7.43,7.43,7.41
28.90,14.35,14.35,6.94,6.94,-6.94,-6.86,-7.80,7.41,7.41,7.41
29.19,14.29,14.29,6.88,6.88,-6.90,-6.84,-7.90,7.39,7.40,7.41
29.48,14.24,14.24,6.83,6.83,-6.85,-6.81,-7.99,7.39,7.39,7.41
29.78,14.19,14.19,6.79,6.79,-6.80,-6.78,-8.07,7.39,7.39,7.40
30.08,14.15,14.15,6.75,6.75,-6.75,-6.75,-8.14,7.40,7.39,7.40
30.38,14.11,14.11,6.71,6.71,-6.71,-6.72,-8.20,7.40,7.40,7.40
30.68,14.07,14.07,6.67,6.67,-6.67,-6.69,-8.24,7.40,7.40,7.40
30.99,14.03,14.03,6.64,6.63,-6.63,-6.65,-8.28,7.40,7.40,7.39
31.30,13.98,13.98,6.59,6.59,-6.59,-6.62,-8.29,7.39,7.39,7.39
31.61,13.93,13.93,6.54,6.55,-6.55,-6.59,-8.30,7.38,7.39,7.39
31.93,13.89,13.88,6.51,6.50,-6.51,-6.56,-8.28,7.38,7.38,7.38
32.24,13.84,13.84,6.46,6.46,-6.47,-6.52,-8.26,7.37,7.37,7.38
32.57,13.80,13.80,6.42,6.43,-6.43,-6.49,-8.22,7.37,7.37,7.38
32.89,13.77,13.76,6.40,6.39,-6.39,-6.45,-8.18,7.38,7.37,7.37
33.22,13.73,13.73,6.36,6.36,-6.36,-6.42,-8.12,7.37,7.37,7.37
33.55,13.69,13.69,6.32,6.32,-6.32,-6.38,-8.05,7.37,7.37,7.36
33.89,13.65,13.65,6.29,6.29,-6.29,-6.35,-7.97,7.36,7.36,7.36
34.23,13.61,13.61,6.25,6.25,-6.25,-6.31,-7.88,7.36,7.36,7.36
34.57,13.57,13.57,6.22,6.21,-6.21,-6.28,-7.78,7.36,7.35,7.35
34.92,13.52,13.52,6.17,6.18,-6.18,-6.24,-7.68,7.34,7.35,7.35
35.27,13.48,13.48,6.14,6.14,-6.14,-6.20,-7.57,7.34,7.34,7.34
35.62,13.44,13.44,6.10,6.10,-6.10,-6.16,-7.46,7.34,7.34,7.34
35.97,13.40,13.40,6.07,6.07,-6.06,-6.12,-7.35,7.33,7.33,7.33
36.33,13.36,13.36,6.03,6.03,-6.03,-6.09,-7.23,7.33,7.33,7.33
36.70,13.31,13.31,5.99,5.99,-5.99,-6.05,-7.11,7.32,7.32,7.32
37.06,13.27,13.27,5.95,5.95,-5.96,-6.01,-6.99,7.31,7.31,7.32
37.43,13.23,13.23,5.92,5.92,-5.92,-5.97,-6.87,7.31,7.31,7.31
37.81,13.19,13.19,5.88,5.89,-5.89,-5.93,-6.74,7.30,7.30,7.30
38.19,13.15,13.15,5.85,5.85,-5.85,-5.89,-6.62,7.30,7.30,7.30
38.57,13.11,13.11,5.82,5.81,-5.81,-5.84,-6.50,7.30,7.29,7.29
38.95,13.06,13.06,5.77,5.78,-5.77,-5.80,-6.39,7.28,7.29,7.29
39.34,13.02,13.02,5.74,5.74,-5.74,-5.76,-6.27,7.28,7.28,7.28
39.74,12.97,12.97,5.70,5.70,-5.70,-5.72,-6.16,7.27,7.27,7.27
40.14,12.92,12.92,5.66,5.66,-5.66,-5.68,-6.05,7.26,7.26,7.26
40.54,12.87,12.87,5.61,5.61,-5.62,-5.63,-5.94,7.25,7.25,7.26
40.94,12.82,12.82,5.57,5.57,-5.58,-5.59,-5.83,7.24,7.24,7.25
41.35,12.77,12.77,5.53,5.53,-5.54,-5.55,-5.73,7.23,7.24,7.24
41.76,12.73,12.73,5.50,5.50,-5.49,-5.51,-5.64,7.23,7.23,7.23
42.18,12.68,12.68,5.46,5.46,-5.45,-5.46,-5.54,7.23,7.22,7.22
42.60,12.63,12.63,5.42,5.41,-5.41,-5.42,-5.45,7.22,7.21,7.21
43.03,12.57,12.57,5.37,5.37,-5.37,-5.37,-5.37,7.20,7.20,7.20
43.46,12.52,12.52,5.33,5.33,-5.33,-5.33,-5.28,7.19,7.19,7.19
43.90,12.47,12.47,5.29,5.29,-5.29,-5.29,-5.21,7.18,7.18,7.18
44.33,12.42,12.42,5.25,5.25,-5.25,-5.24,-5.13,7.17,7.17,7.17
44.78,12.37,12.37,5.21,5.21,-5.21,-5.20,-5.06,7.16,7.16,7.16
45.23,12.32,12.32,5.17,5.17,-5.17,-5.15,-4.99,7.15,7.15,7.15
45.68,12.27,12.27,5.13,5.13,-5.13,-5.11,-4.93,7.14,7.14,7.14
46.13,12.22,12.22,5.10,5.10,-5.10,-5.07,-4.87,7.12,7.12,7.12
46.60,12.17,12.17,5.06,5.06,-5.06,-5.02,-4.81,7.11,7.11,7.11
47.06,12.12,12.12,5.02,5.02,-5.02,-4.98,-4.76,7.10,7.10,7.10
47.53,12.06,12.06,4.98,4.98,-4.98,-4.94,-4.71,7.08,7.08,7.08
48.01,12.01,12.01,4.94,4.94,-4.94,-4.89,-4.67,7.07,7.07,7.07
48.49,11.96,11.96,4.91,4.90,-4.90,-4.85,-4.62,7.06,7.05,7.05
48.97,11.90,11.90,4.86,4.86,-4.86,-4.81,-4.58,7.04,7.04,7.04
49.46,11.85,11.85,4.83,4.82,-4.82,-4.77,-4.55,7.02,7.02,7.02
49.96,11.79,11.79,4.78,4.78,-4.78,-4.73,-4.51,7.01,7.01,7.01
50.46,11.73,11.73,4.74,4.74,-4.74,-4.68,-4.48,6.99,6.99,6.99
50.96,11.68,11.68,4.71,4.70,-4.70,-4.64,-4.46,6.98,6.98,6.97
51.47,11.62,11.62,4.67,4.66,-4.66,-4.60,-4.43,6.96,6.96,6.95
51.99,11.56,11.56,4.62,4.62,-4.62,-4.56,-4.41,6.94,6.94,6.94
52.51,11.49,11.49,4.57,4.58,-4.58,-4.53,-4.39,6.91,6.91,6.92
53.03,11.43,11.43,4.53,4.53,-4.54,-4.49,-4.37,6.89,6.89,6.90
53.56,11.37,11.37,4.49,4.50,-4.50,-4.45,-4.35,6.87,6.87,6.88
54.10,11.32,11.31,4.47,4.46,-4.46,-4.41,-4.33,6.86,6.85,6.85
54.64,11.26,11.26,4.43,4.43,-4.43,-4.38,-4.32,6.83,6.83,6.83
55.18,11.20,11.20,4.39,4.39,-4.39,-4.34,-4.30,6.81,6.81,6.81
55.74,11.15,11.15,4.36,4.36,-4.36,-4.31,-4.29,6.79,6.79,6.79
56.29,11.09,11.09,4.33,4.33,-4.33,-4.28,-4.28,6.76,6.76,6.76
56.86,11.04,11.04,4.30,4.30,-4.30,-4.24,-4.27,6.74,6.74,6.74
57.42,10.98,10.98,4.27,4.27,-4.27,-4.21,-4.25,6.71,6.71,6.71
58.00,10.93,10.93,4.24,4.24,-4.24,-4.18,-4.24,6.69,6.69,6.69
58.58,10.87,10.87,4.21,4.21,-4.21,-4.15,-4.23,6.66,6.65,6.66
59.16,10.81,10.81,4.18,4.18,-4.19,-4.12,-4.21,6.62,6.62,6.63
59.76,10.76,10.76,4.16,4.16,-4.16,-4.10,-4.20,6.59,6.59,6.60
60.35,10.71,10.71,4.14,4.14,-4.14,-4.07,-4.19,6.57,6.57,6.57
60.96,10.66,10.66,4.12,4.12,-4.12,-4.05,-4.17,6.54,6.55,6.54
61.57,10.61,10.61,4.10,4.10,-4.09,-4.02,-4.15,6.52,6.52,6.51
62.18,10.55,10.55,4.07,4.07,-4.06,-4.00,-4.13,6.49,6.49,6.48
62.80,10.48,10.48,4.04,4.04,-4.03,-3.98,-4.11,6.45,6.45,6.44
63.43,10.41,10.41,4.00,4.00,-4.00,-3.96,-4.09,6.41,6.41,6.41
64.07,10.34,10.34,3.97,3.97,-3.97,-3.94,-4.07,6.37,6.37,6.37
64.71,10.27,10.27,3.93,3.93,-3.93,-3.92,-4.05,6.34,6.34,6.34
65.35,10.20,10.20,3.90,3.90,-3.90,-3.90,-4.02,6.30,6.30,6.30
66.01,10.13,10.13,3.87,3.87,-3.87,-3.89,-4.00,6.26,6.26,6.26
66.67,10.07,10.07,3.85,3.84,-3.85,-3.87,-3.97,6.22,6.22,6.22
67.33,10.01,10.01,3.83,3.83,-3.83,-3.86,-3.94,6.18,6.18,6.18
68.01,9.96,9.96,3.82,3.82,-3.82,-3.84,-3.91,6.14,6.14,6.14
68.69,9.91,9.91,3.81,3.81,-3.81,-3.83,-3.89,6.10,6.10,6.10
69.37,9.86,9.86,3.80,3.80,-3.80,-3.82,-3.86,6.06,6.06,6.06
70.07,9.81,9.81,3.80,3.80,-3.80,-3.81,-3.83,6.01,6.01,6.01
70.77,9.77,9.77,3.80,3.80,-3.80,-3.80,-3.80,5.97,5.97,5.97
71.48,9.72,9.72,3.80,3.80,-3.79,-3.79,-3.77,5.93,5.93,5.92
72.19,9.67,9.67,3.79,3.79,-3.79,-3.78,-3.74,5.88,5.88,5.88
72.91,9.62,9.62,3.79,3.79,-3.79,-3.78,-3.72,5.83,5.83,5.83
73.64,9.56,9.56,3.78,3.79,-3.78,-3.77,-3.69,5.78,5.78,5.78
74.38,9.51,9.51,3.78,3.78,-3.78,-3.76,-3.67,5.73,5.73,5.73
75.12,9.45,9.45,3.77,3.77,-3.77,-3.76,-3.64,5.68,5.68,5.68
75.87,9.39,9.39,3.76,3.76,-3.76,-3.76,-3.62,5.63,5.62,5.62
76.63,9.32,9.32,3.75,3.75,-3.75,-3.75,-3.60,5.57,5.57,5.57
77.40,9.26,9.26,3.74,3.74,-3.74,-3.75,-3.58,5.51,5.51,5.52
78.17,9.20,9.20,3.74,3.73,-3.74,-3.75,-3.56,5.46,5.46,5.46
78.95,9.13,9.13,3.72,3.73,-3.73,-3.74,-3.55,5.40,5.40,5.40
79.74,9.07,9.07,3.72,3.72,-3.72,-3.74,-3.53,5.35,5.35,5.35
80.54,9.00,9.00,3.71,3.71,-3.71,-3.74,-3.52,5.29,5.29,5.29
81.35,8.94,8.94,3.71,3.71,-3.71,-3.74,-3.51,5.23,5.23,5.23
82.16,8.87,8.87,3.70,3.70,-3.70,-3.74,-3.51,5.17,5.17,5.17
82.98,8.81,8.81,3.70,3.70,-3.70,-3.74,-3.50,5.11,5.11,5.11
83.81,8.74,8.74,3.69,3.70,-3.69,-3.74,-3.50,5.04,5.05,5.05
84.65,8.68,8.68,3.70,3.69,-3.69,-3.74,-3.50,4.99,4.99,4.98
85.50,8.61,8.61,3.69,3.69,-3.69,-3.74,-3.50,4.92,4.92,4.92
86.35,8.54,8.54,3.68,3.68,-3.68,-3.74,-3.51,4.85,4.86,4.86
87.22,8.47,8.47,3.68,3.68,-3.68,-3.74,-3.52,4.79,4.79,4.79
88.09,8.41,8.41,3.68,3.68,-3.68,-3.74,-3.53,4.73,4.73,4.72
88.97,8.34,8.34,3.68,3.68,-3.68,-3.75,-3.54,4.66,4.66,4.66
89.86,8.27,8.27,3.68,3.68,-3.68,-3.75,-3.56,4.59,4.59,4.59
90.76,8.20,8.20,3.68,3.68,-3.68,-3.75,-3.58,4.52,4.52,4.52
91.66,8.14,8.14,3.68,3.68,-3.69,-3.75,-3.60,4.45,4.45,4.45
92.58,8.08,8.08,3.69,3.69,-3.69,-3.75,-3.62,4.39,4.39,4.38
93.51,8.01,8.01,3.69,3.70,-3.70,-3.75,-3.65,4.31,4.32,4.32
94.44,7.95,7.95,3.70,3.70,-3.70,-3.76,-3.68,4.25,4.25,4.24
95.39,7.88,7.88,3.71,3.71,-3.71,-3.76,-3.71,4.17,4.17,4.17
96.34,7.81,7.81,3.71,3.71,-3.71,-3.76,-3.75,4.10,4.10,4.10
97.30,7.75,7.75,3.72,3.71,-3.71,-3.76,-3.78,4.03,4.03,4.03
98.28,7.68,7.68,3.72,3.72,-3.72,-3.77,-3.82,3.96,3.96,3.96
99.26,7.61,7.61,3.72,3.72,-3.72,-3.77,-3.86,3.89,3.89,3.89
100.25,7.54,7.54,3.72,3.72,-3.72,-3.77,-3.90,3.82,3.81,3.81
101.25,7.46,7.46,3.72,3.72,-3.72,-3.77,-3.94,3.74,3.74,3.74
102.27,7.39,7.39,3.72,3.72,-3.72,-3.78,-3.98,3.67,3.67,3.67
103.29,7.32,7.32,3.72,3.72,-3.72,-3.78,-4.03,3.60,3.60,3.60
104.32,7.25,7.25,3.73,3.73,-3.72,-3.78,-4.07,3.53,3.53,3.52
105.37,7.18,7.18,3.73,3.73,-3.72,-3.79,-4.12,3.46,3.45,3.45
106.42,7.10,7.10,3.72,3.73,-3.72,-3.79,-4.16,3.38,3.38,3.38
107.48,7.03,7.03,3.72,3.73,-3.72,-3.79,-4.21,3.30,3.30,3.30
108.56,6.96,6.96,3.73,3.73,-3.73,-3.80,-4.25,3.23,3.23,3.23
109.64,6.89,6.89,3.73,3.73,-3.73,-3.80,-4.29,3.16,3.16,3.16
110.74,6.82,6.82,3.73,3.73,-3.73,-3.80,-4.34,3.08,3.08,3.09
111.85,6.75,6.75,3.74,3.74,-3.74,-3.81,-4.38,3.01,3.01,3.01
112.97,6.69,6.69,3.75,3.75,-3.75,-3.81,-4.41,2.94,2.94,2.94
114.10,6.63,6.63,3.76,3.76,-3.76,-3.81,-4.45,2.87,2.87,2.87
115.24,6.58,6.58,3.78,3.78,-3.78,-3.82,-4.48,2.80,2.80,2.80
116.39,6.52,6.52,3.79,3.79,-3.79,-3.82,-4.51,2.73,2.73,2.73
117.55,6.47,6.47,3.81,3.81,-3.81,-3.83,-4.53,2.66,2.66,2.66
118.73,6.42,6.42,3.83,3.83,-3.83,-3.83,-4.56,2.59,2.59,2.59
119.92,6.37,6.37,3.85,3.85,-3.85,-3.83,-4.57,2.52,2.52,2.52
121.12,6.32,6.32,3.87,3.87,-3.87,-3.84,-4.58,2.45,2.45,2.45
122.33,6.27,6.27,3.89,3.89,-3.89,-3.84,-4.59,2.38,2.38,2.38
123.55,6.22,6.22,3.91,3.91,-3.91,-3.85,-4.59,2.31,2.31,2.31
124.79,6.18,6.18,3.93,3.93,-3.94,-3.85,-4.59,2.24,2.24,2.25
126.03,6.14,6.14,3.96,3.96,-3.96,-3.86,-4.58,2.18,2.18,2.18
127.29,6.10,6.10,3.98,3.98,-3.98,-3.86,-4.57,2.12,2.11,2.12
128.57,6.05,6.05,4.00,4.00,-4.00,-3.86,-4.55,2.05,2.05,2.05
129.85,6.01,6.01,4.02,4.02,-4.02,-3.87,-4.53,1.99,1.99,1.99
131.15,5.97,5.97,4.05,4.04,-4.04,-3.87,-4.50,1.93,1.93,1.92
132.46,5.92,5.92,4.06,4.06,-4.05,-3.87,-4.47,1.86,1.87,1.86
133.79,5.87,5.87,4.07,4.07,-4.06,-3.88,-4.43,1.81,1.80,1.80
135.12,5.81,5.81,4.07,4.07,-4.07,-3.88,-4.39,1.74,1.74,1.74
136.48,5.75,5.75,4.07,4.07,-4.07,-3.88,-4.35,1.68,1.68,1.68
137.84,5.69,5.69,4.07,4.06,-4.06,-3.88,-4.30,1.63,1.62,1.62
139.22,5.62,5.62,4.06,4.06,-4.05,-3.88,-4.25,1.57,1.57,1.56
140.61,5.55,5.55,4.04,4.04,-4.04,-3.89,-4.20,1.51,1.51,1.51
142.02,5.48,5.48,4.03,4.03,-4.03,-3.89,-4.14,1.45,1.45,1.45
143.44,5.41,5.41,4.01,4.01,-4.02,-3.89,-4.09,1.39,1.39,1.40
144.87,5.34,5.34,4.00,4.00,-4.00,-3.88,-4.03,1.34,1.34,1.34
146.32,5.28,5.28,3.99,3.98,-3.99,-3.88,-3.97,1.29,1.29,1.29
147.78,5.21,5.21,3.97,3.97,-3.98,-3.88,-3.91,1.23,1.24,1.24
149.26,5.15,5.15,3.96,3.96,-3.96,-3.88,-3.85,1.19,1.19,1.19
150.75,5.09,5.09,3.95,3.95,-3.95,-3.87,-3.79,1.14,1.14,1.14
152.26,5.03,5.03,3.94,3.94,-3.93,-3.87,-3.74,1.10,1.10,1.09
153.78,4.97,4.97,3.93,3.92,-3.92,-3.86,-3.68,1.05,1.05,1.04
155.32,4.90,4.90,3.90,3.90,-3.90,-3.85,-3.62,1.00,1.00,1.00
156.88,4.83,4.83,3.88,3.88,-3.88,-3.84,-3.57,0.95,0.95,0.95
158.44,4.77,4.76,3.86,3.86,-3.86,-3.83,-3.51,0.91,0.90,0.91
160.03,4.70,4.70,3.84,3.84,-3.84,-3.82,-3.46,0.86,0.86,0.86
161.63,4.63,4.63,3.82,3.82,-3.82,-3.81,-3.41,0.81,0.82,0.81
163.24,4.57,4.57,3.80,3.80,-3.79,-3.80,-3.36,0.78,0.77,0.77
164.88,4.50,4.50,3.77,3.77,-3.77,-3.78,-3.31,0.73,0.73,0.73
166.53,4.43,4.43,3.74,3.74,-3.74,-3.77,-3.26,0.69,0.69,0.69
168.19,4.36,4.36,3.71,3.71,-3.71,-3.75,-3.22,0.65,0.65,0.65
169.87,4.30,4.30,3.68,3.68,-3.68,-3.73,-3.18,0.62,0.61,0.61
171.57,4.23,4.23,3.65,3.65,-3.65,-3.71,-3.14,0.58,0.58,0.58
173.29,4.16,4.16,3.62,3.62,-3.62,-3.69,-3.11,0.54,0.54,0.54
175.02,4.09,4.09,3.58,3.58,-3.58,-3.67,-3.07,0.50,0.51,0.51
176.77,4.03,4.03,3.55,3.55,-3.55,-3.64,-3.04,0.48,0.48,0.47
178.54,3.96,3.96,3.52,3.52,-3.52,-3.62,-3.01,0.44,0.44,0.44
180.32,3.89,3.89,3.48,3.48,-3.48,-3.59,-2.98,0.41,0.41,0.41
182.13,3.82,3.82,3.44,3.44,-3.44,-3.56,-2.96,0.38,0.38,0.38
183.95,3.76,3.75,3.41,3.41,-3.41,-3.53,-2.94,0.35,0.35,0.35
185.79,3.69,3.69,3.37,3.37,-3.37,-3.50,-2.92,0.32,0.32,0.32
187.65,3.62,3.62,3.33,3.33,-3.33,-3.47,-2.90,0.29,0.29,0.29
189.52,3.56,3.56,3.29,3.29,-3.30,-3.44,-2.88,0.26,0.26,0.26
191.42,3.50,3.50,3.26,3.26,-3.26,-3.41,-2.87,0.24,0.24,0.24
193.33,3.44,3.44,3.23,3.23,-3.23,-3.37,-2.86,0.21,0.21,0.21
195.27,3.38,3.38,3.19,3.20,-3.20,-3.33,-2.85,0.18,0.19,0.19
197.22,3.33,3.33,3.17,3.17,-3.17,-3.30,-2.84,0.16,0.16,0.16
199.19,3.28,3.28,3.14,3.14,-3.14,-3.26,-2.83,0.14,0.14,0.14
201.18,3.23,3.23,3.11,3.11,-3.12,-3.22,-2.82,0.11,0.11,0.12
203.19,3.18,3.18,3.09,3.09,-3.09,-3.18,-2.82,0.09,0.09,0.09
205.23,3.14,3.14,3.07,3.07,-3.07,-3.14,-2.82,0.07,0.07,0.07
207.28,3.10,3.10,3.05,3.05,-3.05,-3.10,-2.81,0.05,0.05,0.05
209.35,3.06,3.06,3.03,3.03,-3.02,-3.06,-2.81,0.04,0.03,0.03
211.44,3.01,3.01,3.00,3.00,-3.00,-3.01,-2.81,0.01,0.01,0.01
213.56,2.97,2.97,2.98,2.97,-2.97,-2.97,-2.81,-0.00,-0.00,-0.01
215.69,2.92,2.92,2.94,2.94,-2.94,-2.93,-2.81,-0.02,-0.02,-0.03
217.85,2.87,2.87,2.91,2.91,-2.91,-2.88,-2.81,-0.04,-0.04,-0.04
220.03,2.81,2.81,2.87,2.87,-2.87,-2.84,-2.81,-0.06,-0.06,-0.06
222.23,2.75,2.75,2.83,2.83,-2.83,-2.79,-2.81,-0.08,-0.08,-0.08
224.45,2.69,2.69,2.78,2.78,-2.78,-2.75,-2.80,-0.09,-0.09,-0.09
226.70,2.63,2.63,2.74,2.74,-2.74,-2.70,-2.80,-0.11,-0.11,-0.11
228.96,2.57,2.57,2.69,2.69,-2.69,-2.65,-2.79,-0.12,-0.12,-0.12
231.25,2.50,2.50,2.64,2.64,-2.64,-2.61,-2.79,-0.14,-0.14,-0.14
233.57,2.44,2.44,2.59,2.59,-2.59,-2.56,-2.78,-0.15,-0.15,-0.15
235.90,2.37,2.37,2.54,2.54,-2.54,-2.51,-2.77,-0.17,-0.17,-0.17
238.26,2.31,2.31,2.50,2.50,-2.50,-2.47,-2.75,-0.19,-0.19,-0.19
240.64,2.25,2.25,2.45,2.45,-2.45,-2.42,-2.74,-0.20,-0.20,-0.20
243.05,2.19,2.19,2.40,2.40,-2.41,-2.37,-2.72,-0.22,-0.21,-0.21
245.48,2.14,2.14,2.36,2.36,-2.36,-2.33,-2.70,-0.23,-0.23,-0.22
247.93,2.09,2.09,2.32,2.32,-2.33,-2.28,-2.67,-0.24,-0.24,-0.24
250.41,2.04,2.04,2.29,2.29,-2.29,-2.23,-2.64,-0.25,-0.25,-0.25
252.92,2.00,2.00,2.26,2.26,-2.26,-2.19,-2.61,-0.26,-0.26,-0.26
255.45,1.96,1.96,2.23,2.23,-2.23,-2.14,-2.58,-0.27,-0.27,-0.27
258.00,1.92,1.92,2.20,2.20,-2.20,-2.10,-2.54,-0.28,-0.28,-0.28
260.58,1.88,1.88,2.17,2.17,-2.17,-2.05,-2.50,-0.29,-0.29,-0.29
263.19,1.84,1.84,2.13,2.14,-2.14,-2.00,-2.46,-0.30,-0.30,-0.30
265.82,1.81,1.81,2.11,2.11,-2.11,-1.96,-2.41,-0.30,-0.30,-0.30
268.48,1.77,1.77,2.08,2.08,-2.08,-1.91,-2.36,-0.31,-0.31,-0.31
271.16,1.72,1.72,2.04,2.05,-2.04,-1.87,-2.31,-0.32,-0.32,-0.32
273.87,1.68,1.68,2.01,2.01,-2.01,-1.82,-2.26,-0.33,-0.33,-0.33
276.61,1.63,1.63,1.97,1.97,-1.96,-1.78,-2.20,-0.34,-0.34,-0.34
279.38,1.58,1.58,1.92,1.93,-1.92,-1.73,-2.15,-0.34,-0.34,-0.34
282.17,1.53,1.53,1.88,1.88,-1.87,-1.69,-2.09,-0.35,-0.35,-0.35
284.99,1.48,1.48,1.83,1.82,-1.83,-1.65,-2.03,-0.35,-0.35,-0.35
287.84,1.42,1.42,1.76,1.77,-1.77,-1.60,-1.96,-0.35,-0.35,-0.34
290.72,1.37,1.37,1.72,1.72,-1.72,-1.56,-1.90,-0.35,-0.35,-0.35
293.63,1.31,1.31,1.67,1.66,-1.66,-1.52,-1.84,-0.36,-0.35,-0.36
296.57,1.26,1.26,1.61,1.61,-1.61,-1.47,-1.77,-0.35,-0.35,-0.35
299.53,1.20,1.20,1.55,1.55,-1.55,-1.43,-1.70,-0.35,-0.35,-0.35
302.53,1.14,1.14,1.49,1.50,-1.50,-1.39,-1.64,-0.36,-0.35,-0.35
305.55,1.09,1.09,1.44,1.44,-1.44,-1.35,-1.57,-0.35,-0.35,-0.35
308.61,1.04,1.03,1.39,1.39,-1.39,-1.31,-1.50,-0.35,-0.35,-0.36
311.69,0.98,0.98,1.33,1.33,-1.34,-1.27,-1.44,-0.36,-0.35,-0.35
314.81,0.93,0.93,1.28,1.28,-1.28,-1.23,-1.37,-0.35,-0.35,-0.35
317.96,0.88,0.88,1.23,1.23,-1.23,-1.18,-1.30,-0.35,-0.35,-0.35
321.14,0.83,0.83,1.18,1.18,-1.18,-1.14,-1.23,-0.35,-0.35,-0.35
324.35,0.78,0.78,1.13,1.13,-1.13,-1.10,-1.17,-0.35,-0.35,-0.35
327.59,0.73,0.73,1.07,1.07,-1.08,-1.06,-1.10,-0.35,-0.35,-0.34
330.87,0.68,0.68,1.03,1.02,-1.02,-1.02,-1.03,-0.34,-0.34,-0.35
334.18,0.63,0.63,0.97,0.97,-0.97,-0.98,-0.97,-0.34,-0.34,-0.34
337.52,0.58,0.58,0.92,0.92,-0.92,-0.94,-0.90,-0.34,-0.34,-0.34
340.90,0.53,0.53,0.87,0.87,-0.87,-0.91,-0.84,-0.34,-0.34,-0.34
344.30,0.49,0.48,0.82,0.82,-0.82,-0.87,-0.77,-0.33,-0.33,-0.33
347.75,0.44,0.44,0.76,0.77,-0.76,-0.83,-0.71,-0.33,-0.33,-0.32
351.23,0.39,0.39,0.72,0.71,-0.71,-0.79,-0.64,-0.32,-0.32,-0.33
354.74,0.35,0.34,0.66,0.66,-0.66,-0.75,-0.58,-0.31,-0.32,-0.31
358.28,0.30,0.30,0.61,0.61,-0.61,-0.71,-0.51,-0.31,-0.31,-0.31
361.87,0.25,0.25,0.56,0.56,-0.56,-0.67,-0.45,-0.31,-0.31,-0.31
365.49,0.21,0.21,0.51,0.51,-0.51,-0.63,-0.39,-0.30,-0.30,-0.30
369.14,0.17,0.16,0.47,0.46,-0.46,-0.59,-0.32,-0.29,-0.30,-0.30
372.83,0.12,0.12,0.40,0.41,-0.41,-0.56,-0.26,-0.29,-0.29,-0.28
376.56,0.08,0.08,0.37,0.36,-0.37,-0.52,-0.20,-0.29,-0.29,-0.29
380.33,0.04,0.04,0.32,0.32,-0.32,-0.48,-0.14,-0.28,-0.28,-0.28
384.13,-0.00,-0.00,0.28,0.28,-0.27,-0.44,-0.08,-0.27,-0.27,-0.28
387.97,-0.04,-0.04,0.23,0.23,-0.23,-0.40,-0.02,-0.27,-0.27,-0.27
391.85,-0.08,-0.08,0.17,0.18,-0.18,-0.36,0.04,-0.26,-0.26,-0.26
395.77,-0.12,-0.12,0.14,0.13,-0.14,-0.32,0.10,-0.26,-0.26,-0.26
399.73,-0.16,-0.16,0.09,0.09,-0.09,-0.28,0.16,-0.25,-0.25,-0.25
403.72,-0.20,-0.20,0.04,0.04,-0.04,-0.24,0.22,-0.24,-0.24,-0.24
407.76,-0.24,-0.24,0.00,-0.00,0.00,-0.20,0.27,-0.24,-0.24,-0.24
411.84,-0.28,-0.28,-0.05,-0.05,0.05,-0.16,0.33,-0.23,-0.23,-0.23
415.96,-0.32,-0.32,-0.09,-0.09,0.09,-0.12,0.38,-0.23,-0.23,-0.23
420.12,-0.36,-0.36,-0.13,-0.14,0.14,-0.08,0.44,-0.23,-0.23,-0.23
424.32,-0.40,-0.40,-0.18,-0.18,0.18,-0.04,0.49,-0.22,-0.22,-0.22
428.56,-0.44,-0.44,-0.23,-0.22,0.22,0.00,0.55,-0.22,-0.21,-0.21
432.85,-0.47,-0.48,-0.27,-0.27,0.27,0.04,0.60,-0.20,-0.21,-0.20
437.18,-0.51,-0.51,-0.31,-0.31,0.31,0.08,0.65,-0.20,-0.20,-0.20
441.55,-0.55,-0.55,-0.36,-0.35,0.36,0.13,0.69,-0.19,-0.19,-0.20
445.96,-0.58,-0.58,-0.39,-0.40,0.40,0.17,0.74,-0.18,-0.18,-0.19
450.42,-0.62,-0.62,-0.45,-0.45,0.44,0.21,0.79,-0.18,-0.18,-0.17
454.93,-0.65,-0.65,-0.49,-0.49,0.48,0.26,0.83,-0.17,-0.17,-0.16
459.48,-0.68,-0.68,-0.53,-0.53,0.52,0.30,0.87,-0.16,-0.16,-0.15
464.07,-0.71,-0.71,-0.56,-0.56,0.56,0.34,0.91,-0.15,-0.15,-0.15
468.71,-0.74,-0.74,-0.60,-0.60,0.60,0.39,0.95,-0.14,-0.14,-0.14
473.40,-0.77,-0.77,-0.64,-0.64,0.64,0.43,0.98,-0.13,-0.13,-0.13
478.13,-0.80,-0.80,-0.68,-0.68,0.68,0.48,1.01,-0.12,-0.13,-0.12
482.91,-0.83,-0.83,-0.71,-0.71,0.71,0.52,1.04,-0.12,-0.12,-0.12
487.74,-0.86,-0.86,-0.75,-0.75,0.75,0.57,1.07,-0.11,-0.11,-0.11
492.62,-0.88,-0.88,-0.78,-0.79,0.79,0.62,1.09,-0.09,-0.10,-0.10
497.55,-0.91,-0.91,-0.82,-0.82,0.82,0.66,1.12,-0.09,-0.09,-0.09
