frequency,raw,error,smoothed,error_smoothed,equalization,parametric_eq,fixed_band_eq,equalized_raw,equalized_smoothed,target
20.00,-6.90,-9.93,-6.90,-9.93,6.00,6.63,2.52,-0.90,-0.90,3.02
20.20,-6.79,-9.87,-6.80,-9.87,6.00,6.61,2.60,-0.79,-0.80,3.07
20.40,-6.69,-9.82,-6.69,-9.81,6.00,6.58,2.67,-0.69,-0.69,3.12
20.61,-6.59,-9.74,-6.59,-9.75,6.00,6.56,2.75,-0.59,-0.59,3.15
20.81,-6.48,-9.69,-6.48,-9.68,6.00,6.53,2.83,-0.48,-0.48,3.20
21.02,-6.37,-9.62,-6.37,-9.61,6.00,6.51,2.91,-0.37,-0.37,3.24
21.23,-6.26,-9.53,-6.26,-9.53,6.00,6.48,3.00,-0.26,-0.26,3.26
21.44,-6.14,-9.42,-6.15,-9.43,6.00,6.45,3.08,-0.14,-0.15,3.28
21.66,-6.03,-9.34,-6.03,-9.33,6.00,6.43,3.17,-0.03,-0.03,3.30
21.87,-5.92,-9.23,-5.92,-9.24,6.00,6.40,3.27,0.08,0.08,3.31
22.09,-5.82,-9.15,-5.83,-9.16,6.00,6.37,3.36,0.18,0.17,3.33
22.31,-5.75,-9.09,-5.75,-9.09,6.00,6.34,3.46,0.25,0.25,3.34
22.54,-5.69,-9.03,-5.69,-9.03,6.00,6.31,3.56,0.31,0.31,3.34
22.76,-5.62,-8.96,-5.63,-8.96,6.00,6.28,3.66,0.38,0.37,3.34
22.99,-5.55,-8.88,-5.54,-8.87,6.00,6.25,3.76,0.45,0.46,3.33
23.22,-5.44,-8.77,-5.45,-8.77,6.00,6.22,3.87,0.56,0.55,3.33
23.45,-5.33,-8.66,-5.34,-8.67,6.00,6.19,3.98,0.67,0.66,3.33
23.69,-5.23,-8.56,-5.23,-8.56,6.00,6.16,4.09,0.77,0.77,3.33
23.92,-5.11,-8.45,-5.10,-8.44,6.00,6.13,4.21,0.89,0.90,3.33
24.16,-4.96,-8.31,-4.96,-8.31,6.00,6.09,4.32,1.04,1.04,3.34
24.40,-4.80,-8.15,-4.80,-8.14,6.00,6.06,4.44,1.20,1.20,3.35
24.65,-4.64,-7.99,-4.63,-7.98,6.00,6.03,4.56,1.36,1.37,3.34
24.89,-4.48,-7.82,-4.50,-7.85,6.00,5.99,4.68,1.52,1.50,3.34
25.14,-4.40,-7.74,-4.42,-7.76,6.00,5.96,4.80,1.60,1.58,3.34
25.39,-4.39,-7.74,-4.39,-7.73,6.00,5.92,4.93,1.61,1.61,3.35
25.65,-4.38,-7.73,-4.39,-7.73,6.00,5.89,5.05,1.62,1.61,3.35
25.91,-4.37,-7.71,-4.35,-7.69,6.00,5.85,5.17,1.63,1.65,3.34
26.16,-4.28,-7.62,-4.27,-7.61,6.00,5.81,5.30,1.72,1.73,3.34
26.43,-4.14,-7.47,-4.14,-7.48,6.00,5.77,5.42,1.86,1.86,3.33
26.69,-3.99,-7.33,-3.99,-7.33,6.00,5.73,5.54,2.01,2.01,3.33
26.96,-3.85,-7.19,-3.86,-7.20,6.00,5.69,5.66,2.15,2.14,3.34
27.23,-3.74,-7.09,-3.74,-7.08,6.00,5.65,5.78,2.26,2.26,3.34
27.50,-3.64,-6.98,-3.63,-6.97,6.00,5.61,5.89,2.36,2.37,3.34
27.77,-3.54,-6.87,-3.54,-6.87,6.00,5.57,6.00,2.46,2.46,3.33
28.05,-3.45,-6.78,-3.47,-6.79,6.00,5.53,6.10,2.55,2.53,3.33
28.33,-3.42,-6.74,-3.43,-6.75,6.00,5.49,6.20,2.58,2.57,3.31
28.62,-3.39,-6.71,-3.39,-6.71,6.01,5.44,6.29,2.61,2.61,3.31
28.90,-3.35,-6.67,-3.33,-6.64,6.01,5.40,6.37,2.66,2.68,3.32
29.19,-3.21,-6.52,-3.20,-6.52,6.01,5.35,6.45,2.80,2.81,3.31
29.48,-3.02,-6.35,-3.02,-6.34,6.02,5.31,6.51,3.00,3.00,3.33
29.78,-2.84,-6.15,-2.84,-6.17,6.01,5.26,6.56,3.18,3.17,3.32
30.08,-2.69,-6.01,-2.72,-6.04,5.99,5.22,6.60,3.30,3.27,3.32
30.38,-2.65,-5.97,-2.66,-5.97,5.94,5.17,6.64,3.29,3.29,3.31
30.68,-2.62,-5.93,-2.62,-5.93,5.88,5.12,6.66,3.26,3.26,3.31
30.99,-2.59,-5.90,-2.56,-5.87,5.80,5.07,6.67,3.21,3.25,3.31
31.30,-2.45,-5.75,-2.44,-5.75,5.72,5.02,6.66,3.28,3.28,3.31
31.61,-2.28,-5.59,-2.29,-5.60,5.63,4.97,6.65,3.35,3.34,3.30
31.93,-2.14,-5.44,-2.16,-5.46,5.54,4.92,6.61,3.40,3.38,3.30
32.24,-2.07,-5.36,-2.08,-5.38,5.44,4.87,6.57,3.37,3.36,3.29
32.57,-2.03,-5.33,-2.03,-5.32,5.35,4.81,6.52,3.31,3.31,3.30
32.89,-2.00,-5.30,-1.99,-5.28,5.25,4.76,6.45,3.25,3.26,3.29
33.22,-1.92,-5.20,-1.92,-5.20,5.16,4.70,6.37,3.24,3.24,3.28
33.55,-1.82,-5.10,-1.83,-5.11,5.07,4.65,6.29,3.25,3.24,3.28
33.89,-1.72,-4.99,-1.72,-4.99,4.98,4.59,6.19,3.26,3.26,3.27
34.23,-1.61,-4.89,-1.61,-4.88,4.88,4.53,6.09,3.26,3.27,3.27
34.57,-1.49,-4.75,-1.50,-4.76,4.77,4.48,5.98,3.27,3.27,3.26
34.92,-1.38,-4.64,-1.38,-4.64,4.65,4.42,5.86,3.26,3.27,3.26
35.27,-1.27,-4.53,-1.27,-4.52,4.53,4.36,5.73,3.26,3.26,3.25
35.62,-1.16,-4.41,-1.17,-4.42,4.43,4.30,5.60,3.26,3.26,3.25
35.97,-1.06,-4.31,-1.07,-4.31,4.33,4.23,5.47,3.26,3.26,3.25
36.33,-0.97,-4.22,-0.97,-4.22,4.23,4.17,5.33,3.26,3.26,3.25
36.70,-0.89,-4.13,-0.89,-4.13,4.14,4.11,5.19,3.25,3.25,3.24
37.06,-0.81,-4.05,-0.81,-4.06,4.05,4.04,5.05,3.24,3.24,3.23
37.43,-0.73,-3.98,-0.73,-3.98,3.96,3.98,4.90,3.23,3.23,3.25
37.81,-0.65,-3.90,-0.65,-3.90,3.88,3.91,4.76,3.22,3.22,3.25
38.19,-0.56,-3.81,-0.56,-3.81,3.79,3.85,4.61,3.23,3.23,3.24
38.57,-0.46,-3.71,-0.46,-3.71,3.71,3.78,4.46,3.24,3.25,3.25
38.95,-0.35,-3.60,-0.36,-3.61,3.63,3.71,4.32,3.27,3.27,3.25
39.34,-0.26,-3.51,-0.26,-3.51,3.54,3.64,4.17,3.28,3.28,3.25
39.74,-0.18,-3.43,-0.18,-3.42,3.45,3.57,4.03,3.27,3.27,3.24
40.14,-0.10,-3.35,-0.13,-3.37,3.36,3.50,3.88,3.25,3.23,3.25
40.54,-0.06,-3.30,-0.07,-3.31,3.26,3.43,3.74,3.19,3.19,3.24
40.94,-0.02,-3.26,0.02,-3.21,3.16,3.35,3.60,3.14,3.18,3.23
41.35,0.14,-3.09,0.15,-3.08,3.07,3.28,3.46,3.20,3.21,3.23
41.76,0.32,-2.90,0.29,-2.94,2.97,3.20,3.32,3.29,3.26,3.22
42.18,0.43,-2.80,0.41,-2.81,2.88,3.13,3.18,3.30,3.28,3.23
42.60,0.47,-2.74,0.47,-2.74,2.78,3.05,3.05,3.25,3.25,3.21
43.03,0.50,-2.71,0.51,-2.69,2.68,2.97,2.92,3.18,3.19,3.20
43.46,0.57,-2.63,0.56,-2.62,2.59,2.90,2.78,3.15,3.15,3.19
43.90,0.64,-2.53,0.64,-2.53,2.50,2.82,2.66,3.14,3.14,3.17
44.33,0.72,-2.43,0.72,-2.43,2.43,2.74,2.53,3.14,3.15,3.15
44.78,0.81,-2.33,0.80,-2.33,2.35,2.65,2.40,3.16,3.16,3.13
45.23,0.89,-2.24,0.89,-2.23,2.27,2.57,2.28,3.15,3.15,3.12
45.68,0.96,-2.15,0.95,-2.15,2.17,2.49,2.16,3.13,3.13,3.10
46.13,1.02,-2.07,1.00,-2.09,2.07,2.41,2.04,3.08,3.07,3.09
46.60,1.06,-2.03,1.06,-2.02,1.96,2.32,1.92,3.01,3.02,3.09
47.06,1.12,-1.95,1.17,-1.90,1.85,2.24,1.80,2.97,3.02,3.07
47.53,1.30,-1.76,1.30,-1.77,1.76,2.15,1.69,3.05,3.05,3.06
48.01,1.48,-1.58,1.43,-1.62,1.67,2.07,1.58,3.15,3.10,3.06
48.49,1.52,-1.52,1.52,-1.51,1.60,1.98,1.47,3.11,3.12,3.04
48.97,1.56,-1.46,1.57,-1.45,1.52,1.89,1.36,3.08,3.09,3.01
49.46,1.58,-1.42,1.58,-1.41,1.44,1.80,1.25,3.01,3.02,2.99
49.96,1.60,-1.38,1.57,-1.41,1.36,1.72,1.15,2.95,2.93,2.97
50.46,1.59,-1.38,1.58,-1.39,1.29,1.63,1.04,2.87,2.86,2.97
50.96,1.58,-1.38,1.66,-1.29,1.22,1.54,0.94,2.80,2.88,2.96
51.47,1.78,-1.16,1.78,-1.16,1.16,1.45,0.84,2.94,2.94,2.93
51.99,1.98,-0.94,1.90,-1.02,1.08,1.36,0.74,3.07,2.99,2.92
52.51,2.00,-0.92,2.00,-0.92,0.99,1.27,0.65,2.99,2.99,2.92
53.03,2.00,-0.92,2.03,-0.88,0.89,1.18,0.55,2.89,2.92,2.91
53.56,2.05,-0.85,2.04,-0.85,0.80,1.09,0.46,2.84,2.84,2.90
54.10,2.10,-0.79,2.11,-0.78,0.72,1.00,0.37,2.81,2.82,2.88
54.64,2.20,-0.67,2.21,-0.66,0.66,0.90,0.29,2.85,2.87,2.87
55.18,2.31,-0.55,2.32,-0.54,0.61,0.81,0.20,2.91,2.92,2.86
55.74,2.42,-0.43,2.37,-0.47,0.56,0.72,0.12,2.97,2.93,2.84
56.29,2.41,-0.43,2.37,-0.46,0.49,0.63,0.04,2.90,2.87,2.83
56.86,2.30,-0.52,2.34,-0.47,0.43,0.54,-0.03,2.72,2.77,2.82
57.42,2.32,-0.47,2.33,-0.46,0.36,0.45,-0.11,2.68,2.70,2.79
58.00,2.39,-0.39,2.41,-0.37,0.31,0.36,-0.18,2.70,2.71,2.78
58.58,2.54,-0.23,2.52,-0.24,0.26,0.27,-0.24,2.79,2.78,2.77
59.16,2.65,-0.10,2.62,-0.13,0.19,0.19,-0.31,2.84,2.81,2.75
59.76,2.67,-0.06,2.65,-0.07,0.12,0.10,-0.37,2.79,2.77,2.73
60.35,2.65,-0.04,2.64,-0.05,0.05,0.01,-0.42,2.69,2.69,2.69
60.96,2.59,-0.07,2.65,-0.00,-0.03,-0.07,-0.48,2.56,2.62,2.65
61.57,2.69,0.08,2.68,0.07,-0.09,-0.16,-0.53,2.60,2.59,2.61
62.18,2.77,0.20,2.73,0.16,-0.15,-0.24,-0.57,2.62,2.58,2.57
62.80,2.77,0.25,2.75,0.23,-0.21,-0.32,-0.61,2.56,2.54,2.52
63.43,2.74,0.26,2.75,0.27,-0.28,-0.40,-0.65,2.46,2.47,2.48
64.07,2.72,0.29,2.76,0.33,-0.36,-0.48,-0.69,2.36,2.40,2.43
64.71,2.82,0.43,2.79,0.40,-0.44,-0.56,-0.72,2.37,2.34,2.38
65.35,2.87,0.52,2.85,0.50,-0.52,-0.63,-0.75,2.35,2.32,2.35
66.01,2.87,0.57,2.91,0.62,-0.59,-0.71,-0.78,2.27,2.32,2.30
66.67,2.98,0.73,2.95,0.70,-0.67,-0.78,-0.80,2.31,2.29,2.25
67.33,3.01,0.81,2.98,0.78,-0.74,-0.85,-0.82,2.27,2.24,2.20
68.01,2.98,0.82,2.99,0.84,-0.81,-0.92,-0.84,2.16,2.18,2.16
68.69,2.97,0.86,2.95,0.85,-0.88,-0.98,-0.86,2.09,2.07,2.11
69.37,2.95,0.89,2.95,0.90,-0.94,-1.04,-0.87,2.01,2.02,2.06
70.07,2.93,0.92,2.99,0.98,-0.99,-1.10,-0.89,1.94,2.00,2.00
70.77,3.07,1.11,3.01,1.05,-1.04,-1.16,-0.90,2.03,1.97,1.96
71.48,3.04,1.13,3.01,1.11,-1.09,-1.22,-0.91,1.94,1.92,1.90
72.19,2.97,1.13,3.00,1.16,-1.15,-1.27,-0.91,1.82,1.86,1.84
72.91,2.97,1.18,2.97,1.18,-1.20,-1.32,-0.92,1.76,1.76,1.78
73.64,2.97,1.24,2.96,1.23,-1.26,-1.37,-0.93,1.71,1.70,1.73
74.38,2.97,1.30,2.97,1.30,-1.30,-1.41,-0.93,1.67,1.67,1.67
75.12,2.97,1.36,2.97,1.36,-1.34,-1.45,-0.94,1.63,1.63,1.61
75.87,2.97,1.42,2.96,1.40,-1.38,-1.49,-0.94,1.59,1.58,1.55
76.63,2.94,1.44,2.92,1.43,-1.42,-1.53,-0.95,1.52,1.50,1.50
77.40,2.89,1.44,2.89,1.44,-1.46,-1.56,-0.95,1.43,1.43,1.45
78.17,2.84,1.45,2.87,1.47,-1.50,-1.59,-0.95,1.34,1.37,1.39
78.95,2.87,1.51,2.87,1.52,-1.53,-1.62,-0.96,1.34,1.34,1.36
79.74,2.90,1.59,2.87,1.56,-1.55,-1.64,-0.96,1.34,1.31,1.30
80.54,2.86,1.60,2.85,1.59,-1.58,-1.67,-0.97,1.28,1.27,1.26
81.35,2.80,1.59,2.82,1.61,-1.60,-1.69,-0.98,1.20,1.22,1.20
82.16,2.77,1.61,2.78,1.62,-1.62,-1.70,-0.98,1.15,1.16,1.16
82.98,2.77,1.65,2.75,1.63,-1.64,-1.72,-0.99,1.13,1.11,1.12
83.81,2.72,1.65,2.71,1.64,-1.65,-1.73,-1.00,1.07,1.06,1.06
84.65,2.66,1.64,2.66,1.64,-1.66,-1.74,-1.01,1.00,1.01,1.02
85.50,2.61,1.63,2.62,1.64,-1.65,-1.75,-1.02,0.95,0.96,0.98
86.35,2.58,1.65,2.59,1.66,-1.65,-1.75,-1.03,0.93,0.94,0.93
87.22,2.57,1.69,2.55,1.67,-1.64,-1.75,-1.04,0.92,0.90,0.88
88.09,2.51,1.68,2.48,1.65,-1.63,-1.76,-1.05,0.88,0.85,0.83
88.97,2.37,1.59,2.40,1.62,-1.62,-1.75,-1.07,0.75,0.78,0.78
89.86,2.31,1.58,2.32,1.59,-1.60,-1.75,-1.08,0.70,0.71,0.73
90.76,2.26,1.58,2.24,1.57,-1.59,-1.75,-1.10,0.67,0.65,0.67
91.66,2.20,1.57,2.19,1.56,-1.58,-1.74,-1.11,0.62,0.61,0.63
92.58,2.12,1.55,2.13,1.56,-1.56,-1.73,-1.13,0.56,0.57,0.57
93.51,2.08,1.55,2.08,1.56,-1.55,-1.72,-1.15,0.52,0.53,0.52
94.44,2.05,1.57,2.04,1.56,-1.55,-1.71,-1.17,0.50,0.49,0.48
95.39,2.01,1.57,1.99,1.56,-1.55,-1.70,-1.19,0.45,0.44,0.44
96.34,1.94,1.56,1.93,1.55,-1.56,-1.69,-1.21,0.38,0.37,0.38
97.30,1.86,1.52,1.88,1.55,-1.56,-1.67,-1.23,0.29,0.32,0.34
98.28,1.85,1.56,1.85,1.56,-1.57,-1.66,-1.26,0.28,0.28,0.29
99.26,1.84,1.59,1.82,1.58,-1.57,-1.64,-1.28,0.27,0.26,0.25
100.25,1.81,1.61,1.79,1.59,-1.57,-1.62,-1.30,0.24,0.22,0.20
101.25,1.72,1.56,1.73,1.58,-1.57,-1.60,-1.33,0.15,0.16,0.15
102.27,1.66,1.55,1.66,1.55,-1.56,-1.58,-1.35,0.09,0.10,0.11
103.29,1.60,1.55,1.60,1.54,-1.56,-1.56,-1.37,0.04,0.04,0.05
104.32,1.55,1.53,1.55,1.54,-1.55,-1.54,-1.40,-0.00,0.00,0.01
105.37,1.52,1.55,1.50,1.53,-1.54,-1.52,-1.42,-0.02,-0.04,-0.03
106.42,1.44,1.51,1.45,1.53,-1.52,-1.49,-1.44,-0.08,-0.06,-0.08
107.48,1.38,1.51,1.38,1.51,-1.49,-1.47,-1.47,-0.12,-0.11,-0.13
108.56,1.33,1.52,1.29,1.48,-1.47,-1.45,-1.49,-0.14,-0.18,-0.19
109.64,1.19,1.42,1.22,1.46,-1.44,-1.42,-1.51,-0.26,-0.23,-0.24
110.74,1.12,1.41,1.13,1.42,-1.42,-1.40,-1.53,-0.31,-0.29,-0.29
111.85,1.09,1.42,1.04,1.38,-1.40,-1.37,-1.54,-0.32,-0.36,-0.33
112.97,0.95,1.34,0.97,1.36,-1.39,-1.34,-1.56,-0.44,-0.42,-0.39
114.10,0.89,1.33,0.91,1.35,-1.37,-1.32,-1.57,-0.49,-0.46,-0.44
115.24,0.88,1.36,0.87,1.36,-1.36,-1.29,-1.58,-0.49,-0.49,-0.48
116.39,0.86,1.39,0.84,1.38,-1.36,-1.26,-1.59,-0.50,-0.52,-0.54
117.55,0.82,1.39,0.80,1.38,-1.35,-1.23,-1.60,-0.53,-0.55,-0.57
118.73,0.72,1.33,0.75,1.36,-1.34,-1.21,-1.60,-0.63,-0.59,-0.62
119.92,0.70,1.34,0.68,1.33,-1.33,-1.18,-1.60,-0.63,-0.64,-0.64
121.12,0.64,1.32,0.63,1.31,-1.31,-1.15,-1.60,-0.67,-0.68,-0.68
122.33,0.56,1.27,0.58,1.29,-1.28,-1.12,-1.59,-0.72,-0.70,-0.71
123.55,0.52,1.25,0.50,1.24,-1.25,-1.09,-1.58,-0.73,-0.75,-0.74
124.79,0.46,1.22,0.44,1.20,-1.21,-1.06,-1.57,-0.76,-0.78,-0.77
126.03,0.34,1.13,0.38,1.18,-1.18,-1.03,-1.55,-0.84,-0.80,-0.80
127.29,0.34,1.15,0.32,1.14,-1.15,-0.99,-1.53,-0.81,-0.83,-0.82
128.57,0.29,1.14,0.25,1.11,-1.11,-0.96,-1.51,-0.83,-0.86,-0.86
129.85,0.17,1.05,0.21,1.10,-1.08,-0.93,-1.48,-0.91,-0.87,-0.89
131.15,0.15,1.06,0.14,1.05,-1.05,-0.90,-1.45,-0.90,-0.91,-0.91
132.46,0.11,1.05,0.07,1.02,-1.03,-0.86,-1.42,-0.92,-0.95,-0.94
133.79,-0.00,0.96,0.03,1.00,-1.00,-0.83,-1.38,-1.00,-0.97,-0.97
135.12,-0.03,0.97,-0.03,0.97,-0.98,-0.80,-1.34,-1.01,-1.01,-1.00
136.48,-0.06,0.96,-0.08,0.94,-0.96,-0.76,-1.30,-1.02,-1.04,-1.02
137.84,-0.12,0.93,-0.12,0.94,-0.93,-0.73,-1.25,-1.06,-1.05,-1.05
139.22,-0.18,0.90,-0.18,0.91,-0.91,-0.69,-1.20,-1.09,-1.08,-1.09
140.61,-0.22,0.90,-0.23,0.88,-0.88,-0.66,-1.15,-1.10,-1.10,-1.12
142.02,-0.29,0.84,-0.28,0.85,-0.84,-0.62,-1.10,-1.13,-1.12,-1.13
143.44,-0.33,0.83,-0.35,0.82,-0.79,-0.58,-1.05,-1.13,-1.14,-1.16
144.87,-0.43,0.77,-0.43,0.77,-0.75,-0.55,-0.99,-1.18,-1.18,-1.20
146.32,-0.52,0.72,-0.53,0.71,-0.70,-0.51,-0.93,-1.22,-1.23,-1.24
147.78,-0.64,0.63,-0.64,0.64,-0.66,-0.47,-0.87,-1.30,-1.30,-1.27
149.26,-0.74,0.58,-0.74,0.59,-0.62,-0.43,-0.81,-1.36,-1.36,-1.32
150.75,-0.82,0.56,-0.82,0.56,-0.59,-0.39,-0.75,-1.42,-1.42,-1.39
152.26,-0.89,0.56,-0.89,0.56,-0.58,-0.36,-0.69,-1.48,-1.47,-1.45
153.78,-0.94,0.58,-0.95,0.57,-0.58,-0.32,-0.63,-1.52,-1.53,-1.52
155.32,-1.00,0.59,-1.01,0.59,-0.59,-0.28,-0.57,-1.59,-1.60,-1.59
156.88,-1.07,0.59,-1.07,0.60,-0.60,-0.24,-0.50,-1.68,-1.67,-1.67
158.44,-1.12,0.63,-1.13,0.62,-0.61,-0.19,-0.44,-1.74,-1.74,-1.75
160.03,-1.20,0.63,-1.19,0.64,-0.61,-0.15,-0.37,-1.82,-1.81,-1.83
161.63,-1.26,0.64,-1.27,0.64,-0.60,-0.11,-0.31,-1.87,-1.87,-1.90
163.24,-1.34,0.62,-1.36,0.60,-0.58,-0.07,-0.24,-1.92,-1.94,-1.96
164.88,-1.47,0.54,-1.47,0.55,-0.54,-0.03,-0.18,-2.02,-2.01,-2.01
166.53,-1.58,0.48,-1.58,0.48,-0.50,0.02,-0.11,-2.08,-2.08,-2.06
168.19,-1.69,0.41,-1.68,0.43,-0.44,0.06,-0.04,-2.13,-2.11,-2.10
169.87,-1.75,0.39,-1.76,0.37,-0.37,0.10,0.02,-2.13,-2.14,-2.14
171.57,-1.83,0.32,-1.85,0.30,-0.30,0.15,0.09,-2.14,-2.16,-2.16
173.29,-1.95,0.22,-1.93,0.24,-0.24,0.19,0.16,-2.19,-2.17,-2.17
175.02,-2.02,0.15,-2.02,0.16,-0.17,0.24,0.22,-2.19,-2.19,-2.18
176.77,-2.07,0.12,-2.09,0.10,-0.10,0.28,0.29,-2.18,-2.20,-2.19
178.54,-2.16,0.03,-2.15,0.04,-0.04,0.33,0.36,-2.21,-2.19,-2.20
180.32,-2.21,-0.02,-2.21,-0.02,0.02,0.37,0.42,-2.20,-2.20,-2.19
182.13,-2.26,-0.08,-2.27,-0.08,0.07,0.42,0.49,-2.19,-2.20,-2.18
183.95,-2.32,-0.13,-2.32,-0.13,0.12,0.47,0.56,-2.20,-2.20,-2.19
185.79,-2.36,-0.17,-2.37,-0.17,0.17,0.52,0.63,-2.20,-2.21,-2.20
187.65,-2.43,-0.22,-2.43,-0.21,0.21,0.56,0.69,-2.23,-2.22,-2.22
189.52,-2.48,-0.26,-2.48,-0.25,0.25,0.61,0.76,-2.23,-2.23,-2.23
191.42,-2.53,-0.29,-2.54,-0.29,0.30,0.66,0.83,-2.24,-2.24,-2.25
193.33,-2.59,-0.33,-2.61,-0.34,0.35,0.71,0.90,-2.24,-2.26,-2.27
195.27,-2.69,-0.41,-2.67,-0.39,0.41,0.76,0.96,-2.29,-2.26,-2.28
197.22,-2.75,-0.45,-2.74,-0.44,0.47,0.81,1.03,-2.29,-2.28,-2.30
199.19,-2.80,-0.47,-2.84,-0.52,0.53,0.86,1.10,-2.28,-2.32,-2.33
201.18,-2.94,-0.60,-2.95,-0.61,0.59,0.91,1.17,-2.36,-2.36,-2.35
203.19,-3.09,-0.73,-3.05,-0.69,0.65,0.96,1.24,-2.44,-2.40,-2.36
205.23,-3.14,-0.76,-3.12,-0.75,0.71,1.01,1.30,-2.43,-2.41,-2.39
207.28,-3.14,-0.75,-3.18,-0.78,0.77,1.06,1.37,-2.37,-2.40,-2.39
209.35,-3.21,-0.80,-3.23,-0.81,0.84,1.11,1.44,-2.38,-2.40,-2.42
211.44,-3.34,-0.89,-3.32,-0.88,0.90,1.16,1.50,-2.44,-2.42,-2.45
213.56,-3.41,-0.96,-3.41,-0.95,0.96,1.22,1.57,-2.45,-2.45,-2.45
215.69,-3.50,-1.04,-3.50,-1.03,1.03,1.27,1.64,-2.47,-2.47,-2.47
217.85,-3.56,-1.08,-3.58,-1.10,1.10,1.32,1.70,-2.46,-2.48,-2.48
220.03,-3.68,-1.19,-3.68,-1.19,1.19,1.38,1.76,-2.50,-2.50,-2.49
222.23,-3.79,-1.28,-3.77,-1.27,1.27,1.43,1.83,-2.52,-2.50,-2.51
224.45,-3.86,-1.36,-3.86,-1.35,1.36,1.49,1.89,-2.50,-2.50,-2.51
226.70,-3.93,-1.43,-3.95,-1.44,1.45,1.54,1.95,-2.48,-2.50,-2.51
228.96,-4.02,-1.53,-4.03,-1.53,1.53,1.60,2.01,-2.49,-2.50,-2.50
231.25,-4.13,-1.65,-4.10,-1.61,1.60,1.65,2.06,-2.53,-2.50,-2.49
233.57,-4.15,-1.68,-4.16,-1.68,1.66,1.71,2.12,-2.49,-2.49,-2.48
235.90,-4.18,-1.72,-4.22,-1.75,1.72,1.77,2.17,-2.46,-2.50,-2.47
238.26,-4.25,-1.80,-4.25,-1.80,1.77,1.83,2.22,-2.49,-2.48,-2.46
240.64,-4.31,-1.88,-4.25,-1.82,1.81,1.89,2.27,-2.50,-2.44,-2.44
243.05,-4.22,-1.82,-4.24,-1.83,1.85,1.95,2.32,-2.37,-2.39,-2.41
245.48,-4.18,-1.80,-4.23,-1.85,1.89,2.01,2.37,-2.30,-2.34,-2.38
247.93,-4.26,-1.91,-4.26,-1.90,1.92,2.08,2.41,-2.34,-2.34,-2.35
250.41,-4.32,-1.98,-4.32,-1.98,1.97,2.14,2.45,-2.36,-2.35,-2.34
252.92,-4.40,-2.10,-4.35,-2.04,2.02,2.21,2.49,-2.38,-2.33,-2.31
255.45,-4.33,-2.05,-4.36,-2.08,2.09,2.28,2.53,-2.25,-2.28,-2.28
258.00,-4.35,-2.09,-4.40,-2.13,2.16,2.35,2.57,-2.20,-2.24,-2.26
260.58,-4.47,-2.23,-4.44,-2.20,2.23,2.42,2.60,-2.25,-2.21,-2.25
263.19,-4.54,-2.33,-4.54,-2.32,2.30,2.50,2.64,-2.24,-2.24,-2.21
265.82,-4.60,-2.40,-4.64,-2.44,2.38,2.57,2.67,-2.22,-2.25,-2.20
268.48,-4.73,-2.56,-4.68,-2.51,2.47,2.65,2.70,-2.26,-2.20,-2.18
271.16,-4.72,-2.58,-4.71,-2.56,2.58,2.74,2.73,-2.14,-2.13,-2.14
273.87,-4.70,-2.57,-4.75,-2.63,2.69,2.82,2.76,-2.01,-2.06,-2.13
276.61,-4.81,-2.72,-4.84,-2.75,2.80,2.91,2.78,-2.01,-2.04,-2.09
279.38,-5.00,-2.93,-5.00,-2.93,2.92,3.00,2.81,-2.09,-2.09,-2.07
282.17,-5.20,-3.16,-5.14,-3.10,3.03,3.10,2.84,-2.17,-2.11,-2.04
284.99,-5.25,-3.24,-5.23,-3.22,3.15,3.20,2.86,-2.10,-2.08,-2.01
287.84,-5.23,-3.24,-5.31,-3.32,3.30,3.31,2.89,-1.93,-2.01,-1.99
290.72,-5.40,-3.44,-5.39,-3.43,3.47,3.42,2.92,-1.93,-1.91,-1.96
293.63,-5.54,-3.61,-5.50,-3.57,3.66,3.54,2.95,-1.88,-1.84,-1.93
296.57,-5.63,-3.74,-5.65,-3.75,3.85,3.67,2.97,-1.79,-1.80,-1.90
299.53,-5.79,-3.92,-5.82,-3.94,4.03,3.80,3.00,-1.77,-1.79,-1.87
302.53,-6.01,-4.16,-6.04,-4.19,4.19,3.93,3.04,-1.83,-1.85,-1.86
305.55,-6.28,-4.47,-6.29,-4.48,4.33,4.07,3.07,-1.95,-1.96,-1.81
308.61,-6.49,-4.70,-6.42,-4.63,4.45,4.21,3.10,-2.04,-1.98,-1.79
311.69,-6.51,-4.75,-6.41,-4.65,4.55,4.35,3.14,-1.96,-1.86,-1.77
314.81,-6.25,-4.51,-6.39,-4.65,4.64,4.49,3.18,-1.61,-1.75,-1.74
317.96,-6.26,-4.54,-6.33,-4.61,4.72,4.62,3.22,-1.54,-1.61,-1.72
321.14,-6.49,-4.78,-6.30,-4.59,4.77,4.75,3.26,-1.72,-1.53,-1.72
324.35,-6.28,-4.58,-6.37,-4.67,4.78,4.86,3.30,-1.50,-1.59,-1.70
327.59,-6.37,-4.69,-6.48,-4.79,4.76,4.96,3.35,-1.61,-1.72,-1.68
330.87,-6.63,-4.96,-6.60,-4.93,4.76,5.03,3.40,-1.87,-1.84,-1.68
334.18,-6.76,-5.11,-6.66,-5.00,4.79,5.09,3.45,-1.98,-1.88,-1.66
337.52,-6.64,-4.99,-6.53,-4.88,4.83,5.11,3.51,-1.81,-1.70,-1.65
340.90,-6.21,-4.58,-6.34,-4.70,4.87,5.12,3.56,-1.34,-1.46,-1.63
344.30,-6.14,-4.52,-6.26,-4.64,4.91,5.10,3.63,-1.24,-1.36,-1.63
347.75,-6.40,-4.78,-6.39,-4.77,4.92,5.07,3.69,-1.48,-1.47,-1.63
351.23,-6.70,-5.08,-6.64,-5.02,4.94,5.02,3.75,-1.77,-1.71,-1.62
354.74,-6.83,-5.21,-6.78,-5.16,4.95,4.96,3.82,-1.88,-1.82,-1.62
358.28,-6.75,-5.14,-6.71,-5.10,4.97,4.90,3.90,-1.78,-1.74,-1.61
361.87,-6.54,-4.93,-6.60,-4.98,4.99,4.83,3.97,-1.56,-1.61,-1.62
365.49,-6.41,-4.81,-6.52,-4.91,4.97,4.76,4.05,-1.45,-1.55,-1.61
369.14,-6.57,-4.95,-6.51,-4.89,4.91,4.69,4.13,-1.67,-1.60,-1.62
372.83,-6.53,-4.91,-6.49,-4.87,4.81,4.63,4.21,-1.72,-1.68,-1.62
376.56,-6.40,-4.78,-6.36,-4.74,4.70,4.56,4.30,-1.70,-1.66,-1.62
380.33,-6.16,-4.55,-6.19,-4.57,4.61,4.50,4.39,-1.56,-1.58,-1.62
384.13,-5.96,-4.35,-6.07,-4.45,4.53,4.45,4.48,-1.44,-1.54,-1.62
387.97,-6.06,-4.43,-6.02,-4.39,4.45,4.40,4.58,-1.61,-1.57,-1.63
391.85,-6.04,-4.40,-5.99,-4.36,4.37,4.35,4.67,-1.67,-1.62,-1.64
395.77,-5.95,-4.32,-5.96,-4.32,4.28,4.30,4.77,-1.67,-1.68,-1.63
399.73,-5.84,-4.20,-5.88,-4.24,4.20,4.25,4.87,-1.64,-1.68,-1.64
403.72,-5.81,-4.17,-5.82,-4.17,4.13,4.21,4.97,-1.68,-1.68,-1.64
407.76,-5.78,-4.13,-5.74,-4.09,4.07,4.17,5.08,-1.71,-1.67,-1.66
411.84,-5.66,-4.01,-5.66,-4.01,4.00,4.13,5.18,-1.66,-1.66,-1.66
415.96,-5.54,-3.89,-5.57,-3.91,3.94,4.09,5.29,-1.61,-1.63,-1.66
420.12,-5.49,-3.83,-5.49,-3.83,3.87,4.05,5.39,-1.62,-1.62,-1.66
424.32,-5.45,-3.79,-5.46,-3.80,3.82,4.01,5.49,-1.64,-1.64,-1.66
428.56,-5.43,-3.78,-5.44,-3.78,3.78,3.97,5.60,-1.66,-1.66,-1.65
432.85,-5.42,-3.78,-5.41,-3.76,3.75,3.94,5.70,-1.67,-1.66,-1.64
437.18,-5.37,-3.74,-5.37,-3.75,3.74,3.92,5.79,-1.64,-1.64,-1.63
441.55,-5.32,-3.73,-5.33,-3.73,3.73,3.89,5.89,-1.59,-1.60,-1.59
445.96,-5.30,-3.74,-5.29,-3.72,3.74,3.88,5.98,-1.57,-1.56,-1.57
450.42,-5.26,-3.73,-5.28,-3.75,3.75,3.88,6.06,-1.52,-1.53,-1.54
454.93,-5.26,-3.78,-5.27,-3.78,3.76,3.88,6.15,-1.50,-1.50,-1.49
459.48,-5.27,-3.84,-5.24,-3.80,3.79,3.90,6.22,-1.48,-1.45,-1.44
464.07,-5.20,-3.81,-5.20,-3.82,3.83,3.93,6.29,-1.38,-1.38,-1.39
468.71,-5.15,-3.82,-5.18,-3.85,3.87,3.97,6.35,-1.29,-1.31,-1.33
473.40,-5.17,-3.88,-5.20,-3.91,3.92,4.03,6.40,-1.25,-1.28,-1.29
478.13,-5.25,-4.02,-5.23,-3.99,3.98,4.10,6.44,-1.27,-1.25,-1.23
482.91,-5.29,-4.10,-5.25,-4.06,4.05,4.17,6.47,-1.25,-1.20,-1.19
487.74,-5.23,-4.08,-5.27,-4.13,4.12,4.26,6.49,-1.11,-1.15,-1.15
