frequency,raw,error,smoothed,error_smoothed,equalization,parametric_eq,fixed_band_eq,equalized_raw,equalized_smoothed,target
20.00,-0.30,-6.09,-0.33,-6.11,6.11,5.75,1.92,5.81,5.79,5.79
20.20,-0.24,-6.04,-0.26,-6.06,6.06,5.73,1.98,5.81,5.80,5.80
20.40,-0.19,-6.00,-0.20,-6.00,6.00,5.70,2.04,5.81,5.81,5.81
20.61,-0.14,-5.95,-0.13,-5.95,5.95,5.67,2.10,5.81,5.81,5.82
20.81,-0.08,-5.90,-0.07,-5.89,5.89,5.64,2.16,5.81,5.82,5.82
21.02,-0.02,-5.85,-0.00,-5.83,5.83,5.61,2.23,5.81,5.83,5.82
21.23,0.05,-5.79,0.06,-5.78,5.78,5.57,2.29,5.82,5.84,5.83
21.44,0.11,-5.75,0.12,-5.72,5.72,5.54,2.36,5.83,5.84,5.85
21.66,0.17,-5.68,0.19,-5.66,5.66,5.50,2.43,5.84,5.85,5.85
21.87,0.25,-5.62,0.25,-5.61,5.61,5.46,2.50,5.85,5.86,5.86
22.09,0.32,-5.55,0.31,-5.55,5.55,5.43,2.57,5.87,5.86,5.86
22.31,0.39,-5.49,0.38,-5.49,5.49,5.39,2.65,5.88,5.87,5.87
22.54,0.44,-5.43,0.44,-5.43,5.43,5.35,2.73,5.88,5.87,5.87
22.76,0.52,-5.37,0.51,-5.37,5.37,5.30,2.81,5.89,5.88,5.88
22.99,0.59,-5.30,0.57,-5.31,5.31,5.26,2.89,5.90,5.88,5.88
23.22,0.64,-5.24,0.63,-5.25,5.25,5.22,2.97,5.89,5.89,5.88
23.45,0.70,-5.19,0.70,-5.19,5.19,5.17,3.06,5.89,5.89,5.89
23.69,0.75,-5.13,0.76,-5.14,5.14,5.13,3.14,5.89,5.89,5.89
23.92,0.81,-5.08,0.82,-5.08,5.08,5.08,3.23,5.88,5.89,5.89
24.16,0.87,-5.03,0.87,-5.02,5.02,5.03,3.32,5.89,5.90,5.90
24.40,0.93,-4.98,0.93,-4.97,4.97,4.99,3.41,5.89,5.90,5.91
24.65,0.98,-4.92,0.99,-4.91,4.91,4.94,3.51,5.90,5.90,5.91
24.89,1.05,-4.86,1.04,-4.86,4.86,4.89,3.60,5.91,5.90,5.91
25.14,1.11,-4.80,1.10,-4.81,4.81,4.84,3.69,5.91,5.90,5.90
25.39,1.16,-4.75,1.15,-4.76,4.76,4.79,3.79,5.91,5.91,5.90
25.65,1.21,-4.70,1.20,-4.71,4.71,4.74,3.88,5.91,5.91,5.90
25.91,1.25,-4.65,1.25,-4.65,4.65,4.69,3.98,5.91,5.91,5.90
26.16,1.31,-4.61,1.31,-4.60,4.60,4.63,4.07,5.91,5.91,5.91
26.43,1.35,-4.56,1.36,-4.55,4.55,4.58,4.16,5.91,5.91,5.91
26.69,1.40,-4.51,1.41,-4.50,4.50,4.53,4.26,5.90,5.91,5.91
26.96,1.44,-4.46,1.45,-4.46,4.46,4.48,4.35,5.90,5.91,5.91
27.23,1.49,-4.41,1.50,-4.41,4.41,4.42,4.43,5.91,5.91,5.91
27.50,1.55,-4.36,1.54,-4.37,4.37,4.37,4.52,5.91,5.91,5.91
27.77,1.60,-4.32,1.59,-4.32,4.32,4.31,4.60,5.92,5.91,5.92
28.05,1.65,-4.27,1.63,-4.28,4.28,4.26,4.68,5.93,5.91,5.91
28.33,1.69,-4.23,1.68,-4.24,4.24,4.21,4.75,5.92,5.91,5.91
28.62,1.72,-4.19,1.72,-4.20,4.20,4.15,4.82,5.92,5.92,5.91
28.90,1.77,-4.15,1.76,-4.15,4.15,4.10,4.88,5.92,5.92,5.92
29.19,1.81,-4.11,1.81,-4.11,4.11,4.04,4.93,5.92,5.92,5.92
29.48,1.85,-4.07,1.85,-4.07,4.07,3.99,4.98,5.91,5.92,5.92
29.78,1.88,-4.03,1.89,-4.02,4.02,3.93,5.02,5.91,5.92,5.92
30.08,1.92,-4.00,1.94,-3.98,3.98,3.88,5.06,5.90,5.91,5.92
30.38,1.97,-3.94,1.98,-3.93,3.93,3.82,5.08,5.91,5.91,5.91
30.68,2.03,-3.89,2.03,-3.88,3.88,3.77,5.10,5.91,5.91,5.91
30.99,2.07,-3.83,2.07,-3.84,3.84,3.71,5.11,5.91,5.91,5.91
31.30,2.11,-3.79,2.12,-3.79,3.79,3.65,5.11,5.90,5.91,5.91
31.61,2.17,-3.74,2.17,-3.74,3.74,3.60,5.10,5.90,5.90,5.90
31.93,2.21,-3.68,2.22,-3.68,3.68,3.54,5.08,5.90,5.90,5.89
32.24,2.27,-3.63,2.26,-3.63,3.63,3.49,5.05,5.90,5.90,5.90
32.57,2.31,-3.57,2.31,-3.58,3.58,3.43,5.01,5.90,5.89,5.89
32.89,2.37,-3.52,2.36,-3.53,3.53,3.38,4.97,5.89,5.89,5.89
33.22,2.42,-3.47,2.41,-3.48,3.48,3.32,4.92,5.89,5.88,5.88
33.55,2.46,-3.43,2.45,-3.43,3.43,3.27,4.86,5.88,5.88,5.88
33.89,2.50,-3.38,2.50,-3.38,3.38,3.22,4.79,5.87,5.87,5.88
34.23,2.54,-3.33,2.54,-3.33,3.33,3.16,4.72,5.86,5.87,5.87
34.57,2.59,-3.28,2.59,-3.27,3.27,3.11,4.64,5.86,5.86,5.86
34.92,2.63,-3.22,2.63,-3.23,3.23,3.05,4.56,5.86,5.85,5.85
35.27,2.67,-3.18,2.67,-3.18,3.18,3.00,4.47,5.85,5.85,5.86
35.62,2.71,-3.13,2.71,-3.13,3.13,2.95,4.38,5.83,5.84,5.83
35.97,2.75,-3.08,2.75,-3.08,3.08,2.89,4.29,5.83,5.83,5.83
36.33,2.79,-3.03,2.78,-3.03,3.03,2.84,4.19,5.82,5.82,5.82
36.70,2.83,-2.98,2.82,-2.99,2.99,2.79,4.09,5.81,5.80,5.80
37.06,2.86,-2.93,2.85,-2.94,2.94,2.73,3.99,5.79,5.79,5.79
37.43,2.89,-2.89,2.88,-2.89,2.89,2.68,3.89,5.78,5.78,5.78
37.81,2.92,-2.85,2.91,-2.85,2.85,2.63,3.79,5.76,5.76,5.76
38.19,2.95,-2.80,2.94,-2.80,2.80,2.58,3.68,5.75,5.75,5.75
38.57,2.98,-2.76,2.97,-2.76,2.76,2.52,3.58,5.74,5.73,5.73
38.95,3.01,-2.71,3.00,-2.72,2.72,2.47,3.47,5.72,5.72,5.72
39.34,3.03,-2.67,3.03,-2.67,2.67,2.42,3.37,5.70,5.70,5.69
39.74,3.05,-2.63,3.05,-2.63,2.63,2.37,3.27,5.68,5.68,5.68
40.14,3.07,-2.59,3.08,-2.59,2.59,2.32,3.17,5.66,5.67,5.67
40.54,3.10,-2.55,3.10,-2.54,2.54,2.27,3.07,5.64,5.65,5.65
40.94,3.12,-2.51,3.12,-2.50,2.50,2.22,2.97,5.62,5.63,5.62
41.35,3.15,-2.46,3.15,-2.46,2.46,2.17,2.87,5.60,5.61,5.61
41.76,3.18,-2.41,3.17,-2.41,2.41,2.12,2.77,5.59,5.58,5.58
42.18,3.21,-2.36,3.19,-2.37,2.37,2.07,2.68,5.57,5.56,5.57
42.60,3.22,-2.32,3.22,-2.32,2.32,2.02,2.58,5.54,5.54,5.54
43.03,3.24,-2.28,3.24,-2.28,2.28,1.97,2.49,5.51,5.51,5.51
43.46,3.27,-2.22,3.26,-2.23,2.23,1.92,2.40,5.49,5.49,5.49
43.90,3.29,-2.18,3.28,-2.18,2.18,1.87,2.31,5.46,5.46,5.46
44.33,3.31,-2.13,3.31,-2.13,2.13,1.83,2.22,5.44,5.44,5.43
44.78,3.33,-2.08,3.33,-2.08,2.08,1.78,2.14,5.41,5.41,5.41
45.23,3.35,-2.04,3.35,-2.03,2.03,1.73,2.06,5.37,5.38,5.39
45.68,3.37,-1.98,3.37,-1.98,1.98,1.68,1.98,5.34,5.35,5.35
46.13,3.40,-1.91,3.39,-1.92,1.92,1.63,1.90,5.32,5.31,5.31
46.60,3.42,-1.87,3.41,-1.87,1.87,1.59,1.82,5.28,5.28,5.28
47.06,3.44,-1.82,3.44,-1.81,1.81,1.54,1.74,5.25,5.25,5.25
47.53,3.46,-1.77,3.46,-1.75,1.75,1.49,1.67,5.21,5.21,5.22
48.01,3.47,-1.71,3.48,-1.70,1.70,1.45,1.59,5.16,5.18,5.17
48.49,3.50,-1.65,3.50,-1.64,1.64,1.40,1.52,5.14,5.14,5.14
48.97,3.53,-1.58,3.52,-1.59,1.59,1.36,1.45,5.11,5.11,5.10
49.46,3.55,-1.53,3.54,-1.53,1.53,1.31,1.38,5.08,5.07,5.07
49.96,3.58,-1.45,3.56,-1.47,1.47,1.27,1.32,5.05,5.03,5.02
50.46,3.59,-1.40,3.58,-1.42,1.42,1.22,1.25,5.00,4.99,4.99
50.96,3.60,-1.36,3.59,-1.36,1.36,1.17,1.18,4.96,4.96,4.96
51.47,3.61,-1.32,3.61,-1.31,1.31,1.13,1.12,4.91,4.92,4.92
51.99,3.62,-1.27,3.63,-1.25,1.25,1.09,1.06,4.87,4.88,4.88
52.51,3.65,-1.20,3.65,-1.20,1.20,1.04,1.00,4.84,4.84,4.85
53.03,3.67,-1.16,3.67,-1.14,1.14,1.00,0.94,4.81,4.81,4.82
53.56,3.69,-1.09,3.68,-1.09,1.09,0.95,0.88,4.77,4.77,4.78
54.10,3.71,-1.03,3.70,-1.04,1.04,0.91,0.83,4.74,4.73,4.73
54.64,3.72,-0.98,3.71,-0.98,0.98,0.87,0.77,4.70,4.70,4.70
55.18,3.73,-0.93,3.73,-0.93,0.93,0.82,0.72,4.66,4.66,4.65
55.74,3.75,-0.87,3.75,-0.88,0.88,0.78,0.66,4.63,4.63,4.61
56.29,3.77,-0.82,3.77,-0.83,0.83,0.73,0.61,4.59,4.60,4.59
56.86,3.80,-0.76,3.79,-0.78,0.78,0.69,0.56,4.57,4.56,4.56
57.42,3.81,-0.71,3.80,-0.72,0.72,0.65,0.51,4.53,4.53,4.51
58.00,3.81,-0.68,3.82,-0.67,0.67,0.61,0.46,4.48,4.49,4.48
58.58,3.84,-0.63,3.83,-0.62,0.62,0.56,0.41,4.45,4.45,4.46
59.16,3.86,-0.58,3.85,-0.56,0.56,0.52,0.37,4.42,4.41,4.43
59.76,3.88,-0.53,3.87,-0.51,0.51,0.48,0.32,4.38,4.37,4.40
60.35,3.89,-0.46,3.88,-0.45,0.45,0.44,0.28,4.34,4.34,4.35
60.96,3.90,-0.41,3.90,-0.40,0.40,0.39,0.23,4.29,4.30,4.31
61.57,3.91,-0.35,3.91,-0.34,0.34,0.35,0.19,4.25,4.26,4.26
62.18,3.92,-0.29,3.93,-0.29,0.29,0.31,0.15,4.20,4.21,4.20
62.80,3.94,-0.22,3.94,-0.23,0.23,0.27,0.11,4.17,4.17,4.16
63.43,3.96,-0.16,3.95,-0.18,0.18,0.23,0.06,4.13,4.13,4.11
64.07,3.98,-0.10,3.97,-0.12,0.12,0.18,0.02,4.10,4.09,4.08
64.71,3.99,-0.05,3.98,-0.07,0.07,0.14,-0.01,4.05,4.05,4.04
65.35,4.00,-0.01,3.99,-0.02,0.02,0.10,-0.05,4.01,4.00,4.00
66.01,4.00,0.03,4.00,0.04,-0.04,0.06,-0.09,3.96,3.96,3.96
66.67,4.01,0.07,4.01,0.09,-0.09,0.02,-0.13,3.92,3.92,3.94
67.33,4.03,0.14,4.02,0.14,-0.14,-0.03,-0.16,3.89,3.88,3.89
68.01,4.04,0.19,4.03,0.19,-0.19,-0.07,-0.20,3.85,3.84,3.85
68.69,4.04,0.23,4.04,0.23,-0.23,-0.11,-0.24,3.80,3.80,3.80
69.37,4.04,0.26,4.04,0.28,-0.28,-0.15,-0.27,3.75,3.76,3.77
70.07,4.04,0.31,4.05,0.33,-0.33,-0.19,-0.31,3.71,3.72,3.73
70.77,4.06,0.37,4.06,0.38,-0.38,-0.23,-0.34,3.68,3.68,3.68
71.48,4.08,0.44,4.06,0.43,-0.43,-0.28,-0.38,3.65,3.64,3.64
72.19,4.09,0.49,4.07,0.48,-0.48,-0.32,-0.42,3.61,3.59,3.59
72.91,4.09,0.54,4.08,0.52,-0.52,-0.36,-0.45,3.56,3.55,3.55
73.64,4.09,0.58,4.08,0.57,-0.57,-0.40,-0.49,3.51,3.51,3.50
74.38,4.09,0.62,4.09,0.62,-0.62,-0.44,-0.52,3.46,3.47,3.46
75.12,4.09,0.66,4.10,0.67,-0.67,-0.48,-0.56,3.42,3.43,3.42
75.87,4.09,0.69,4.11,0.71,-0.71,-0.53,-0.60,3.37,3.39,3.39
76.63,4.12,0.76,4.12,0.76,-0.76,-0.57,-0.63,3.36,3.36,3.35
77.40,4.14,0.81,4.12,0.80,-0.80,-0.61,-0.67,3.33,3.32,3.32
78.17,4.14,0.86,4.13,0.85,-0.85,-0.65,-0.71,3.29,3.29,3.28
78.95,4.14,0.88,4.14,0.89,-0.89,-0.69,-0.75,3.25,3.25,3.26
79.74,4.14,0.91,4.15,0.93,-0.93,-0.73,-0.79,3.21,3.22,3.22
80.54,4.16,0.97,4.15,0.97,-0.97,-0.78,-0.83,3.19,3.18,3.19
81.35,4.18,1.02,4.16,1.01,-1.01,-0.82,-0.87,3.17,3.15,3.15
82.16,4.18,1.05,4.16,1.05,-1.05,-0.86,-0.91,3.13,3.12,3.12
82.98,4.18,1.09,4.17,1.08,-1.08,-0.90,-0.95,3.09,3.08,3.09
83.81,4.18,1.13,4.17,1.12,-1.12,-0.95,-0.99,3.05,3.05,3.05
84.65,4.18,1.16,4.17,1.16,-1.16,-0.99,-1.04,3.02,3.01,3.01
85.50,4.18,1.20,4.18,1.20,-1.20,-1.03,-1.08,2.98,2.98,2.97
86.35,4.18,1.23,4.18,1.24,-1.24,-1.07,-1.13,2.94,2.94,2.94
87.22,4.18,1.27,4.18,1.28,-1.28,-1.12,-1.17,2.90,2.91,2.91
88.09,4.18,1.31,4.19,1.32,-1.32,-1.16,-1.22,2.86,2.87,2.87
88.97,4.18,1.34,4.19,1.36,-1.36,-1.20,-1.27,2.82,2.83,2.84
89.86,4.18,1.38,4.19,1.40,-1.40,-1.24,-1.32,2.78,2.80,2.79
90.76,4.19,1.43,4.20,1.44,-1.44,-1.29,-1.37,2.75,2.76,2.76
91.66,4.22,1.50,4.20,1.48,-1.48,-1.33,-1.42,2.73,2.72,2.72
92.58,4.23,1.54,4.21,1.53,-1.53,-1.37,-1.47,2.70,2.68,2.68
93.51,4.23,1.58,4.21,1.57,-1.57,-1.42,-1.53,2.65,2.64,2.65
94.44,4.23,1.61,4.22,1.62,-1.62,-1.46,-1.58,2.61,2.60,2.61
95.39,4.23,1.66,4.22,1.66,-1.66,-1.50,-1.64,2.56,2.56,2.57
96.34,4.23,1.71,4.23,1.71,-1.71,-1.55,-1.69,2.51,2.52,2.52
97.30,4.23,1.74,4.24,1.76,-1.76,-1.59,-1.75,2.47,2.48,2.48
98.28,4.24,1.80,4.24,1.80,-1.80,-1.64,-1.81,2.43,2.44,2.44
99.26,4.25,1.86,4.25,1.85,-1.85,-1.68,-1.87,2.40,2.40,2.39
100.25,4.25,1.89,4.25,1.89,-1.89,-1.72,-1.93,2.36,2.36,2.35
101.25,4.26,1.93,4.26,1.93,-1.93,-1.77,-1.99,2.32,2.33,2.32
102.27,4.28,1.99,4.26,1.97,-1.97,-1.81,-2.05,2.30,2.29,2.29
103.29,4.28,2.03,4.27,2.01,-2.01,-1.86,-2.11,2.26,2.25,2.25
104.32,4.28,2.05,4.27,2.05,-2.05,-1.90,-2.17,2.22,2.22,2.22
105.37,4.28,2.09,4.27,2.09,-2.09,-1.94,-2.23,2.18,2.18,2.18
106.42,4.28,2.12,4.28,2.13,-2.13,-1.99,-2.28,2.15,2.15,2.16
107.48,4.28,2.17,4.28,2.17,-2.17,-2.03,-2.34,2.11,2.11,2.11
108.56,4.28,2.20,4.28,2.20,-2.20,-2.08,-2.40,2.07,2.07,2.08
109.64,4.28,2.23,4.28,2.24,-2.24,-2.12,-2.46,2.04,2.04,2.04
110.74,4.28,2.27,4.27,2.27,-2.27,-2.17,-2.51,2.00,2.00,2.00
111.85,4.28,2.31,4.27,2.31,-2.31,-2.21,-2.57,1.97,1.96,1.97
112.97,4.28,2.34,4.27,2.34,-2.34,-2.26,-2.62,1.93,1.92,1.93
114.10,4.27,2.37,4.26,2.37,-2.37,-2.30,-2.67,1.89,1.89,1.89
115.24,4.25,2.40,4.26,2.41,-2.41,-2.35,-2.72,1.84,1.85,1.85
116.39,4.25,2.44,4.25,2.44,-2.44,-2.39,-2.77,1.80,1.81,1.80
117.55,4.25,2.48,4.25,2.47,-2.47,-2.43,-2.81,1.77,1.77,1.77
118.73,4.25,2.52,4.24,2.51,-2.51,-2.48,-2.85,1.74,1.73,1.72
119.92,4.25,2.56,4.24,2.54,-2.54,-2.52,-2.89,1.70,1.70,1.69
121.12,4.23,2.56,4.23,2.57,-2.57,-2.57,-2.93,1.65,1.66,1.66
122.33,4.23,2.61,4.23,2.61,-2.61,-2.61,-2.96,1.62,1.62,1.62
123.55,4.23,2.64,4.23,2.65,-2.65,-2.66,-2.99,1.58,1.58,1.59
124.79,4.23,2.67,4.23,2.68,-2.68,-2.70,-3.02,1.54,1.54,1.55
126.03,4.23,2.71,4.23,2.72,-2.72,-2.74,-3.04,1.50,1.50,1.51
127.29,4.23,2.75,4.23,2.76,-2.76,-2.79,-3.06,1.46,1.47,1.47
128.57,4.23,2.80,4.23,2.80,-2.80,-2.83,-3.07,1.42,1.43,1.43
129.85,4.23,2.83,4.23,2.84,-2.84,-2.87,-3.09,1.38,1.39,1.39
131.15,4.23,2.87,4.24,2.88,-2.88,-2.92,-3.10,1.34,1.35,1.35
132.46,4.23,2.91,4.24,2.92,-2.92,-2.96,-3.11,1.30,1.32,1.31
133.79,4.25,2.97,4.24,2.96,-2.96,-3.00,-3.11,1.28,1.28,1.28
135.12,4.28,3.04,4.25,3.00,-3.00,-3.04,-3.11,1.27,1.24,1.24
136.48,4.27,3.05,4.25,3.04,-3.04,-3.09,-3.12,1.23,1.21,1.21
137.84,4.25,3.07,4.25,3.07,-3.07,-3.13,-3.11,1.17,1.18,1.18
139.22,4.25,3.11,4.25,3.11,-3.11,-3.17,-3.11,1.14,1.14,1.13
140.61,4.25,3.14,4.25,3.13,-3.13,-3.21,-3.11,1.11,1.11,1.11
142.02,4.25,3.17,4.24,3.16,-3.16,-3.25,-3.10,1.08,1.08,1.08
143.44,4.25,3.20,4.24,3.19,-3.19,-3.29,-3.10,1.06,1.05,1.05
144.87,4.23,3.20,4.23,3.21,-3.21,-3.33,-3.09,1.01,1.02,1.02
146.32,4.23,3.23,4.23,3.23,-3.23,-3.37,-3.09,0.99,0.99,0.99
147.78,4.23,3.26,4.22,3.26,-3.26,-3.41,-3.08,0.97,0.96,0.97
149.26,4.22,3.28,4.21,3.28,-3.28,-3.45,-3.08,0.94,0.94,0.94
150.75,4.20,3.30,4.20,3.30,-3.30,-3.48,-3.07,0.90,0.91,0.90
152.26,4.19,3.30,4.20,3.32,-3.32,-3.52,-3.07,0.86,0.88,0.88
153.78,4.18,3.33,4.19,3.34,-3.34,-3.56,-3.07,0.83,0.85,0.85
155.32,4.18,3.35,4.18,3.37,-3.37,-3.59,-3.07,0.81,0.82,0.82
156.88,4.18,3.39,4.18,3.39,-3.39,-3.63,-3.07,0.78,0.79,0.79
158.44,4.18,3.42,4.17,3.41,-3.41,-3.66,-3.07,0.76,0.75,0.75
160.03,4.18,3.45,4.16,3.44,-3.44,-3.69,-3.07,0.74,0.72,0.72
161.63,4.16,3.46,4.15,3.46,-3.46,-3.73,-3.08,0.69,0.69,0.69
163.24,4.14,3.49,4.14,3.48,-3.48,-3.76,-3.08,0.65,0.65,0.65
164.88,4.14,3.52,4.13,3.51,-3.51,-3.79,-3.09,0.63,0.62,0.62
166.53,4.14,3.55,4.12,3.53,-3.53,-3.82,-3.10,0.60,0.59,0.58
168.19,4.11,3.55,4.11,3.56,-3.56,-3.85,-3.12,0.55,0.55,0.55
169.87,4.09,3.57,4.10,3.58,-3.58,-3.88,-3.13,0.50,0.51,0.51
171.57,4.09,3.61,4.09,3.61,-3.61,-3.91,-3.15,0.48,0.48,0.48
173.29,4.08,3.63,4.07,3.63,-3.63,-3.93,-3.17,0.44,0.44,0.44
175.02,4.05,3.64,4.06,3.66,-3.66,-3.96,-3.20,0.39,0.41,0.41
176.77,4.04,3.66,4.05,3.68,-3.68,-3.98,-3.22,0.35,0.37,0.37
178.54,4.04,3.70,4.04,3.71,-3.71,-4.01,-3.25,0.33,0.34,0.34
180.32,4.04,3.74,4.04,3.74,-3.74,-4.03,-3.28,0.30,0.30,0.30
182.13,4.04,3.77,4.03,3.77,-3.77,-4.05,-3.32,0.27,0.26,0.26
183.95,4.04,3.80,4.03,3.80,-3.80,-4.07,-3.35,0.24,0.23,0.23
185.79,4.04,3.85,4.02,3.83,-3.83,-4.09,-3.39,0.20,0.19,0.19
187.65,4.03,3.87,4.02,3.86,-3.86,-4.11,-3.43,0.16,0.15,0.16
189.52,4.01,3.89,4.01,3.89,-3.89,-4.12,-3.48,0.11,0.12,0.12
191.42,4.00,3.90,4.01,3.92,-3.92,-4.14,-3.52,0.07,0.08,0.09
193.33,4.00,3.94,4.00,3.95,-3.95,-4.15,-3.57,0.04,0.05,0.05
195.27,4.00,3.98,3.99,3.98,-3.98,-4.17,-3.62,0.02,0.02,0.01
197.22,4.00,4.02,3.98,4.00,-4.00,-4.18,-3.67,-0.00,-0.02,-0.02
199.19,3.99,4.04,3.97,4.02,-4.02,-4.19,-3.72,-0.03,-0.05,-0.05
201.18,3.97,4.05,3.96,4.04,-4.04,-4.20,-3.78,-0.07,-0.08,-0.09
203.19,3.95,4.06,3.95,4.06,-4.06,-4.21,-3.83,-0.11,-0.11,-0.11
205.23,3.95,4.08,3.93,4.07,-4.07,-4.21,-3.89,-0.13,-0.14,-0.14
207.28,3.92,4.08,3.92,4.08,-4.08,-4.22,-3.95,-0.17,-0.17,-0.16
209.35,3.90,4.09,3.90,4.10,-4.10,-4.22,-4.01,-0.20,-0.19,-0.20
211.44,3.88,4.10,3.89,4.11,-4.11,-4.23,-4.06,-0.23,-0.22,-0.22
213.56,3.86,4.10,3.87,4.12,-4.12,-4.23,-4.12,-0.26,-0.25,-0.24
215.69,3.86,4.12,3.86,4.13,-4.13,-4.23,-4.18,-0.27,-0.27,-0.27
217.85,3.86,4.14,3.84,4.13,-4.13,-4.23,-4.23,-0.28,-0.29,-0.29
220.03,3.83,4.15,3.82,4.14,-4.14,-4.22,-4.29,-0.31,-0.32,-0.32
222.23,3.81,4.15,3.80,4.14,-4.14,-4.22,-4.34,-0.34,-0.34,-0.34
224.45,3.79,4.15,3.79,4.15,-4.15,-4.22,-4.39,-0.36,-0.36,-0.36
226.70,3.76,4.14,3.77,4.15,-4.15,-4.21,-4.44,-0.40,-0.38,-0.38
228.96,3.76,4.15,3.76,4.16,-4.16,-4.20,-4.48,-0.40,-0.40,-0.39
231.25,3.76,4.17,3.74,4.16,-4.16,-4.19,-4.52,-0.40,-0.42,-0.41
233.57,3.73,4.16,3.73,4.16,-4.16,-4.18,-4.55,-0.43,-0.43,-0.43
235.90,3.72,4.17,3.71,4.16,-4.16,-4.17,-4.58,-0.44,-0.45,-0.45
238.26,3.68,4.15,3.69,4.15,-4.15,-4.16,-4.61,-0.48,-0.46,-0.47
240.64,3.67,4.14,3.67,4.15,-4.15,-4.15,-4.63,-0.48,-0.48,-0.47
243.05,3.67,4.15,3.65,4.14,-4.14,-4.13,-4.64,-0.48,-0.49,-0.49
245.48,3.63,4.13,3.63,4.13,-4.13,-4.12,-4.65,-0.51,-0.50,-0.51
247.93,3.62,4.14,3.61,4.13,-4.13,-4.10,-4.66,-0.51,-0.51,-0.52
250.41,3.60,4.12,3.59,4.11,-4.11,-4.08,-4.65,-0.52,-0.52,-0.52
252.92,3.58,4.10,3.57,4.10,-4.10,-4.06,-4.65,-0.53,-0.53,-0.53
255.45,3.54,4.08,3.54,4.09,-4.09,-4.04,-4.63,-0.55,-0.54,-0.55
258.00,3.53,4.08,3.52,4.07,-4.07,-4.02,-4.61,-0.54,-0.55,-0.55
260.58,3.50,4.05,3.49,4.05,-4.05,-4.00,-4.58,-0.56,-0.56,-0.56
263.19,3.48,4.04,3.47,4.04,-4.04,-3.97,-4.55,-0.56,-0.57,-0.56
265.82,3.44,4.01,3.45,4.02,-4.02,-3.95,-4.51,-0.59,-0.57,-0.57
268.48,3.42,3.99,3.42,4.00,-4.00,-3.92,-4.47,-0.59,-0.58,-0.58
271.16,3.40,3.98,3.40,3.98,-3.98,-3.90,-4.42,-0.59,-0.58,-0.58
273.87,3.39,3.97,3.38,3.97,-3.97,-3.87,-4.37,-0.58,-0.59,-0.59
276.61,3.35,3.94,3.36,3.95,-3.95,-3.84,-4.32,-0.60,-0.59,-0.59
279.38,3.34,3.94,3.34,3.93,-3.93,-3.81,-4.26,-0.59,-0.59,-0.61
282.17,3.31,3.91,3.32,3.91,-3.91,-3.79,-4.20,-0.61,-0.60,-0.60
284.99,3.30,3.89,3.30,3.89,-3.89,-3.76,-4.14,-0.60,-0.60,-0.60
287.84,3.30,3.89,3.28,3.87,-3.87,-3.72,-4.07,-0.58,-0.60,-0.59
290.72,3.25,3.85,3.26,3.86,-3.86,-3.69,-4.00,-0.61,-0.60,-0.60
293.63,3.25,3.84,3.24,3.84,-3.84,-3.66,-3.94,-0.59,-0.60,-0.60
296.57,3.22,3.81,3.22,3.82,-3.82,-3.63,-3.87,-0.60,-0.60,-0.59
299.53,3.20,3.79,3.20,3.79,-3.79,-3.60,-3.80,-0.60,-0.60,-0.60
302.53,3.18,3.77,3.18,3.77,-3.77,-3.56,-3.73,-0.59,-0.59,-0.59
305.55,3.16,3.75,3.15,3.74,-3.74,-3.53,-3.66,-0.59,-0.59,-0.59
308.61,3.15,3.73,3.13,3.72,-3.72,-3.49,-3.59,-0.57,-0.59,-0.59
311.69,3.11,3.70,3.11,3.69,-3.69,-3.46,-3.52,-0.59,-0.59,-0.59
314.81,3.09,3.67,3.08,3.67,-3.67,-3.42,-3.46,-0.58,-0.59,-0.58
317.96,3.07,3.65,3.06,3.64,-3.64,-3.38,-3.39,-0.57,-0.58,-0.59
321.14,3.03,3.60,3.03,3.61,-3.61,-3.35,-3.33,-0.58,-0.58,-0.58
324.35,3.00,3.58,3.00,3.58,-3.58,-3.31,-3.26,-0.58,-0.58,-0.58
327.59,2.97,3.53,2.98,3.55,-3.55,-3.27,-3.20,-0.58,-0.57,-0.56
330.87,2.94,3.50,2.95,3.52,-3.52,-3.24,-3.14,-0.58,-0.57,-0.57
334.18,2.93,3.49,2.92,3.49,-3.49,-3.20,-3.09,-0.56,-0.56,-0.57
337.52,2.90,3.46,2.89,3.45,-3.45,-3.16,-3.03,-0.56,-0.56,-0.56
340.90,2.89,3.44,2.86,3.42,-3.42,-3.12,-2.98,-0.53,-0.55,-0.55
344.30,2.84,3.38,2.83,3.38,-3.38,-3.08,-2.93,-0.55,-0.55,-0.55
347.75,2.80,3.33,2.81,3.35,-3.35,-3.04,-2.88,-0.55,-0.54,-0.54
351.23,2.79,3.33,2.78,3.31,-3.31,-3.01,-2.83,-0.53,-0.53,-0.54
354.74,2.76,3.28,2.75,3.28,-3.28,-2.97,-2.79,-0.52,-0.53,-0.52
358.28,2.72,3.24,2.72,3.24,-3.24,-2.93,-2.75,-0.53,-0.52,-0.52
361.87,2.70,3.21,2.69,3.21,-3.21,-2.89,-2.71,-0.51,-0.52,-0.52
365.49,2.66,3.16,2.66,3.17,-3.17,-2.85,-2.67,-0.52,-0.51,-0.51
369.14,2.63,3.12,2.64,3.14,-3.14,-2.81,-2.63,-0.51,-0.50,-0.50
372.83,2.61,3.10,2.61,3.10,-3.10,-2.77,-2.60,-0.50,-0.49,-0.49
376.56,2.58,3.07,2.58,3.07,-3.07,-2.73,-2.57,-0.49,-0.49,-0.49
380.33,2.56,3.04,2.55,3.03,-3.03,-2.69,-2.54,-0.48,-0.48,-0.48
384.13,2.52,2.99,2.53,3.00,-3.00,-2.65,-2.51,-0.48,-0.47,-0.47
387.97,2.51,2.97,2.50,2.97,-2.97,-2.61,-2.49,-0.46,-0.47,-0.47
391.85,2.47,2.92,2.47,2.93,-2.93,-2.57,-2.46,-0.47,-0.46,-0.46
395.77,2.46,2.91,2.44,2.90,-2.90,-2.53,-2.44,-0.44,-0.45,-0.46
399.73,2.43,2.87,2.42,2.86,-2.86,-2.49,-2.42,-0.44,-0.45,-0.45
403.72,2.40,2.83,2.39,2.83,-2.83,-2.45,-2.40,-0.43,-0.44,-0.43
407.76,2.37,2.80,2.36,2.79,-2.79,-2.41,-2.38,-0.43,-0.43,-0.43
411.84,2.33,2.75,2.33,2.76,-2.76,-2.37,-2.36,-0.43,-0.42,-0.42
415.96,2.31,2.72,2.31,2.72,-2.72,-2.34,-2.35,-0.42,-0.42,-0.41
420.12,2.28,2.69,2.28,2.69,-2.69,-2.30,-2.33,-0.41,-0.41,-0.41
424.32,2.25,2.65,2.25,2.65,-2.65,-2.26,-2.32,-0.40,-0.40,-0.41
428.56,2.22,2.60,2.22,2.61,-2.61,-2.22,-2.31,-0.40,-0.39,-0.39
432.85,2.19,2.56,2.19,2.57,-2.57,-2.18,-2.29,-0.39,-0.38,-0.38
437.18,2.16,2.53,2.16,2.53,-2.53,-2.14,-2.28,-0.38,-0.38,-0.38
441.55,2.14,2.50,2.13,2.49,-2.49,-2.10,-2.27,-0.36,-0.37,-0.37
445.96,2.10,2.46,2.10,2.45,-2.45,-2.06,-2.25,-0.36,-0.36,-0.36
450.42,2.06,2.41,2.07,2.41,-2.41,-2.02,-2.24,-0.36,-0.35,-0.35
454.93,2.04,2.38,2.03,2.37,-2.37,-1.99,-2.22,-0.34,-0.34,-0.34
459.48,2.01,2.34,2.00,2.33,-2.33,-1.95,-2.21,-0.32,-0.33,-0.33
464.07,1.98,2.29,1.97,2.28,-2.28,-1.91,-2.19,-0.31,-0.32,-0.31
468.71,1.94,2.24,1.93,2.24,-2.24,-1.87,-2.17,-0.30,-0.31,-0.30
473.40,1.90,2.19,1.90,2.19,-2.19,-1.83,-2.15,-0.30,-0.30,-0.29
478.13,1.86,2.14,1.86,2.15,-2.15,-1.80,-2.13,-0.29,-0.29,-0.28
482.91,1.83,2.10,1.82,2.10,-2.10,-1.76,-2.11,-0.27,-0.28,-0.27
487.74,1.79,2.05,1.79,2.05,-2.05,-1.72,-2.09,-0.26,-0.26,-0.27
492.62,1.76,2.01,1.75,2.00,-2.00,-1.68,-2.06,-0.24,-0.25,-0.26
497.55,1.71,1.95,1.71,1.95,-1.95,-1.65,-2.04,-0.25,-0.24,-0.25
502.52,1.67,1.90,1.67,1.90,-1.90,-1.61,-2.01,-0.24,-0.23,-0.24
507.55,1.63,1.84,1.63,1.85,-1.85,-1.57,-1.98,-0.23,-0.22,-0.22
512.62,1.59,1.79,1.59,1.80,-1.80,-1.54,-1.94,-0.21,-0.21,-0.21
517.75,1.56,1.74,1.55,1.75,-1.75,-1.50,-1.91,-0.19,-0.19,-0.19
522.93,1.53,1.70,1.52,1.70,-1.70,-1.46,-1.87,-0.17,-0.18,-0.18
528.16,1.49,1.65,1.48,1.65,-1.65,-1.43,-1.83,-0.16,-0.17,-0.17
