frequency,raw,smoothed,error,error_smoothed,equalization,parametric_eq,fixed_band_eq,equalized_raw,equalized_smoothed,target
20.00,-9.55,-9.55,-16.31,-16.31,6.00,6.58,2.93,-3.55,-3.55,6.76
20.20,-9.41,-9.41,-16.22,-16.22,6.00,6.57,3.02,-3.41,-3.41,6.81
20.40,-9.26,-9.26,-16.12,-16.12,6.00,6.56,3.10,-3.26,-3.26,6.86
20.61,-9.12,-9.12,-16.01,-16.02,6.00,6.55,3.19,-3.12,-3.12,6.89
20.81,-8.98,-8.98,-15.92,-15.92,6.00,6.54,3.28,-2.98,-2.98,6.94
21.02,-8.84,-8.84,-15.82,-15.82,6.00,6.53,3.37,-2.84,-2.84,6.98
21.23,-8.71,-8.71,-15.71,-15.71,6.00,6.53,3.47,-2.71,-2.71,7.00
21.44,-8.58,-8.57,-15.60,-15.60,6.00,6.52,3.57,-2.58,-2.57,7.02
21.66,-8.45,-8.44,-15.49,-15.48,6.00,6.51,3.67,-2.45,-2.44,7.04
21.87,-8.32,-8.33,-15.37,-15.38,6.00,6.50,3.78,-2.32,-2.33,7.05
22.09,-8.23,-8.23,-15.30,-15.30,6.00,6.49,3.88,-2.23,-2.23,7.07
22.31,-8.17,-8.16,-15.25,-15.24,6.00,6.48,3.99,-2.17,-2.16,7.08
22.54,-8.11,-8.12,-15.19,-15.20,6.00,6.47,4.10,-2.11,-2.12,7.08
22.76,-8.06,-8.06,-15.14,-15.14,6.00,6.46,4.22,-2.06,-2.06,7.08
22.99,-8.00,-7.97,-15.07,-15.04,6.00,6.45,4.34,-2.00,-1.97,7.07
23.22,-7.85,-7.85,-14.91,-14.92,6.00,6.44,4.46,-1.85,-1.85,7.07
23.45,-7.69,-7.70,-14.75,-14.77,6.00,6.43,4.59,-1.69,-1.70,7.06
23.69,-7.54,-7.54,-14.62,-14.61,6.00,6.41,4.71,-1.54,-1.54,7.07
23.92,-7.38,-7.37,-14.45,-14.45,6.00,6.40,4.84,-1.38,-1.37,7.07
24.16,-7.20,-7.19,-14.28,-14.28,6.00,6.39,4.98,-1.20,-1.19,7.08
24.40,-7.00,-7.00,-14.09,-14.08,6.00,6.38,5.11,-1.00,-1.00,7.09
24.65,-6.81,-6.80,-13.89,-13.88,6.00,6.37,5.25,-0.81,-0.80,7.08
24.89,-6.61,-6.62,-13.69,-13.70,6.00,6.35,5.38,-0.61,-0.62,7.08
25.14,-6.47,-6.48,-13.55,-13.56,6.00,6.34,5.53,-0.47,-0.48,7.08
25.39,-6.37,-6.37,-13.45,-13.45,6.00,6.33,5.67,-0.37,-0.37,7.09
25.65,-6.28,-6.27,-13.37,-13.36,6.00,6.31,5.81,-0.28,-0.27,7.09
25.91,-6.18,-6.17,-13.26,-13.25,6.00,6.30,5.95,-0.18,-0.17,7.08
26.16,-6.06,-6.06,-13.13,-13.13,6.00,6.29,6.09,-0.06,-0.06,7.07
26.43,-5.94,-5.94,-13.01,-13.01,6.00,6.27,6.24,0.06,0.06,7.07
26.69,-5.81,-5.81,-12.88,-12.89,6.00,6.26,6.38,0.19,0.19,7.07
26.96,-5.69,-5.69,-12.77,-12.77,6.00,6.24,6.52,0.31,0.31,7.08
27.23,-5.56,-5.56,-12.64,-12.63,6.00,6.23,6.65,0.44,0.44,7.08
27.50,-5.42,-5.42,-12.50,-12.50,6.00,6.21,6.79,0.58,0.58,7.08
27.77,-5.28,-5.28,-12.34,-12.35,6.00,6.19,6.91,0.72,0.72,7.07
28.05,-5.14,-5.13,-12.20,-12.19,6.00,6.18,7.04,0.86,0.87,7.06
28.33,-4.98,-4.98,-12.03,-12.03,6.00,6.16,7.15,1.02,1.02,7.05
28.62,-4.82,-4.82,-11.87,-11.87,6.00,6.14,7.27,1.18,1.18,7.05
28.90,-4.66,-4.67,-11.72,-11.73,6.00,6.13,7.36,1.34,1.33,7.06
29.19,-4.55,-4.55,-11.60,-11.61,6.00,6.11,7.46,1.45,1.45,7.05
29.48,-4.46,-4.46,-11.53,-11.52,6.00,6.09,7.54,1.54,1.54,7.07
29.78,-4.38,-4.37,-11.44,-11.43,6.00,6.07,7.61,1.62,1.63,7.06
30.08,-4.28,-4.27,-11.34,-11.33,6.00,6.05,7.67,1.72,1.73,7.06
30.38,-4.13,-4.13,-11.18,-11.19,6.00,6.03,7.72,1.87,1.87,7.05
30.68,-3.98,-3.99,-11.03,-11.04,6.00,6.01,7.75,2.02,2.01,7.05
30.99,-3.83,-3.83,-10.88,-10.88,6.00,5.99,7.78,2.17,2.17,7.05
31.30,-3.69,-3.69,-10.74,-10.73,6.00,5.97,7.78,2.31,2.31,7.05
31.61,-3.55,-3.55,-10.59,-10.59,6.00,5.95,7.78,2.45,2.45,7.04
31.93,-3.41,-3.42,-10.45,-10.46,6.00,5.92,7.75,2.59,2.58,7.04
32.24,-3.30,-3.30,-10.33,-10.34,6.00,5.90,7.72,2.70,2.70,7.03
32.57,-3.20,-3.20,-10.24,-10.23,6.00,5.88,7.67,2.80,2.80,7.04
32.89,-3.09,-3.09,-10.12,-10.12,6.00,5.85,7.62,2.91,2.91,7.03
33.22,-2.97,-2.96,-9.99,-9.98,6.00,5.83,7.54,3.03,3.04,7.02
33.55,-2.83,-2.82,-9.85,-9.84,6.00,5.80,7.47,3.17,3.18,7.02
33.89,-2.69,-2.71,-9.69,-9.72,6.00,5.78,7.37,3.31,3.29,7.00
34.23,-2.61,-2.63,-9.62,-9.63,6.00,5.75,7.27,3.39,3.37,7.01
34.57,-2.57,-2.57,-9.57,-9.57,6.00,5.73,7.17,3.43,3.43,7.00
34.92,-2.52,-2.49,-9.52,-9.48,6.00,5.70,7.05,3.48,3.51,7.00
35.27,-2.36,-2.36,-9.35,-9.35,6.00,5.67,6.93,3.64,3.64,6.99
35.62,-2.17,-2.18,-9.16,-9.17,6.00,5.64,6.81,3.83,3.82,6.99
35.97,-1.97,-1.98,-8.95,-8.97,6.00,5.61,6.68,4.03,4.02,6.98
36.33,-1.79,-1.79,-8.78,-8.77,6.00,5.58,6.55,4.21,4.21,6.99
36.70,-1.62,-1.61,-8.60,-8.59,6.00,5.55,6.41,4.38,4.39,6.98
37.06,-1.45,-1.46,-8.42,-8.44,6.00,5.52,6.28,4.55,4.54,6.97
37.43,-1.32,-1.32,-8.31,-8.30,6.00,5.49,6.14,4.68,4.68,6.99
37.81,-1.19,-1.19,-8.17,-8.17,6.00,5.45,6.00,4.81,4.81,6.98
38.19,-1.07,-1.07,-8.05,-8.05,6.00,5.42,5.86,4.93,4.93,6.98
38.57,-0.95,-0.94,-7.93,-7.93,6.00,5.38,5.73,5.05,5.06,6.99
38.95,-0.82,-0.82,-7.81,-7.81,6.00,5.35,5.59,5.18,5.18,6.99
39.34,-0.70,-0.70,-7.68,-7.69,6.00,5.31,5.46,5.30,5.30,6.99
39.74,-0.58,-0.58,-7.56,-7.56,6.00,5.28,5.33,5.42,5.42,6.98
40.14,-0.46,-0.46,-7.45,-7.45,6.00,5.24,5.20,5.54,5.54,6.98
40.54,-0.33,-0.34,-7.31,-7.32,6.00,5.20,5.07,5.67,5.66,6.98
40.94,-0.21,-0.18,-7.18,-7.16,6.00,5.16,4.95,5.79,5.82,6.97
41.35,-0.01,-0.00,-6.98,-6.97,6.00,5.12,4.82,5.99,6.00,6.97
41.76,0.20,0.19,-6.76,-6.78,6.01,5.08,4.70,6.21,6.20,6.96
42.18,0.38,0.37,-6.58,-6.58,6.02,5.03,4.59,6.40,6.40,6.96
42.60,0.50,0.51,-6.45,-6.44,6.03,4.99,4.47,6.53,6.54,6.95
43.03,0.62,0.59,-6.32,-6.36,6.03,4.94,4.36,6.65,6.61,6.94
43.46,0.64,0.63,-6.29,-6.29,6.01,4.90,4.26,6.65,6.64,6.93
43.90,0.66,0.71,-6.25,-6.20,5.96,4.85,4.15,6.63,6.67,6.91
44.33,0.81,0.82,-6.08,-6.07,5.90,4.80,4.05,6.72,6.73,6.89
44.78,1.01,0.98,-5.86,-5.89,5.82,4.75,3.95,6.83,6.80,6.87
45.23,1.16,1.15,-5.70,-5.71,5.72,4.70,3.86,6.88,6.87,6.86
45.68,1.28,1.29,-5.56,-5.55,5.59,4.65,3.77,6.87,6.88,6.84
46.13,1.41,1.41,-5.41,-5.42,5.45,4.60,3.68,6.86,6.86,6.82
46.60,1.53,1.53,-5.30,-5.29,5.31,4.55,3.59,6.84,6.84,6.83
47.06,1.65,1.66,-5.15,-5.15,5.16,4.49,3.51,6.81,6.82,6.81
47.53,1.79,1.79,-5.00,-5.01,5.02,4.44,3.43,6.81,6.81,6.80
48.01,1.93,1.92,-4.87,-4.87,4.89,4.38,3.35,6.82,6.81,6.80
48.49,2.03,2.03,-4.74,-4.74,4.76,4.32,3.27,6.79,6.80,6.77
48.97,2.13,2.12,-4.62,-4.63,4.62,4.26,3.20,6.75,6.74,6.75
49.46,2.22,2.21,-4.51,-4.52,4.46,4.20,3.13,6.69,6.68,6.73
49.96,2.30,2.35,-4.41,-4.37,4.31,4.14,3.06,6.61,6.66,6.71
50.46,2.52,2.52,-4.19,-4.19,4.16,4.08,2.99,6.68,6.67,6.71
50.96,2.74,2.71,-3.95,-3.98,4.01,4.01,2.93,6.75,6.71,6.70
51.47,2.88,2.89,-3.79,-3.79,3.86,3.94,2.87,6.74,6.74,6.67
51.99,3.02,3.01,-3.64,-3.65,3.71,3.88,2.81,6.73,6.72,6.66
52.51,3.11,3.11,-3.54,-3.54,3.56,3.81,2.75,6.67,6.67,6.65
53.03,3.20,3.20,-3.45,-3.45,3.43,3.74,2.69,6.63,6.62,6.65
53.56,3.28,3.29,-3.35,-3.35,3.30,3.67,2.64,6.58,6.59,6.64
54.10,3.38,3.40,-3.24,-3.22,3.19,3.59,2.59,6.57,6.59,6.62
54.64,3.54,3.53,-3.06,-3.08,3.08,3.52,2.53,6.62,6.61,6.60
55.18,3.67,3.65,-2.93,-2.94,2.97,3.44,2.48,6.64,6.62,6.60
55.74,3.75,3.75,-2.83,-2.83,2.86,3.37,2.43,6.61,6.62,6.58
56.29,3.82,3.83,-2.75,-2.74,2.75,3.29,2.38,6.57,6.58,6.57
56.86,3.91,3.91,-2.65,-2.64,2.63,3.21,2.34,6.54,6.54,6.56
57.42,3.99,3.99,-2.54,-2.54,2.52,3.13,2.29,6.51,6.51,6.53
58.00,4.08,4.08,-2.44,-2.44,2.41,3.05,2.24,6.49,6.48,6.52
58.58,4.17,4.18,-2.34,-2.32,2.30,2.96,2.19,6.47,6.48,6.51
59.16,4.27,4.30,-2.21,-2.19,2.20,2.88,2.15,6.47,6.50,6.49
59.76,4.43,4.40,-2.04,-2.06,2.10,2.79,2.10,6.53,6.49,6.47
60.35,4.49,4.47,-1.93,-1.95,1.99,2.70,2.06,6.48,6.46,6.42
60.96,4.50,4.51,-1.89,-1.88,1.89,2.62,2.01,6.39,6.40,6.39
61.57,4.53,4.54,-1.82,-1.81,1.79,2.53,1.96,6.32,6.33,6.35
62.18,4.57,4.58,-1.73,-1.72,1.69,2.44,1.92,6.26,6.27,6.30
62.80,4.65,4.64,-1.61,-1.62,1.60,2.34,1.87,6.25,6.24,6.26
63.43,4.70,4.70,-1.51,-1.52,1.52,2.25,1.82,6.22,6.22,6.21
64.07,4.74,4.75,-1.43,-1.42,1.44,2.16,1.78,6.18,6.19,6.17
64.71,4.80,4.79,-1.32,-1.33,1.35,2.07,1.73,6.15,6.15,6.12
65.35,4.83,4.82,-1.25,-1.26,1.27,1.97,1.68,6.10,6.09,6.08
66.01,4.83,4.83,-1.21,-1.20,1.19,1.87,1.64,6.02,6.02,6.04
66.67,4.83,4.85,-1.16,-1.14,1.11,1.78,1.59,5.94,5.96,5.99
67.33,4.86,4.87,-1.08,-1.07,1.05,1.68,1.54,5.91,5.92,5.94
68.01,4.92,4.91,-0.98,-0.99,0.99,1.59,1.49,5.92,5.90,5.90
68.69,4.93,4.92,-0.92,-0.92,0.96,1.49,1.44,5.89,5.88,5.85
69.37,4.91,4.91,-0.88,-0.89,0.93,1.39,1.39,5.84,5.84,5.79
70.07,4.86,4.86,-0.88,-0.88,0.92,1.29,1.34,5.78,5.78,5.74
70.77,4.80,4.80,-0.90,-0.90,0.91,1.20,1.29,5.71,5.71,5.70
71.48,4.72,4.71,-0.92,-0.93,0.91,1.10,1.24,5.63,5.63,5.64
72.19,4.63,4.63,-0.95,-0.95,0.92,1.00,1.19,5.55,5.55,5.58
72.91,4.54,4.57,-0.98,-0.96,0.93,0.91,1.14,5.47,5.50,5.52
73.64,4.53,4.52,-0.93,-0.95,0.93,0.81,1.09,5.46,5.45,5.47
74.38,4.50,4.48,-0.91,-0.92,0.92,0.72,1.04,5.42,5.41,5.41
75.12,4.45,4.46,-0.90,-0.89,0.90,0.63,0.99,5.35,5.36,5.35
75.87,4.43,4.44,-0.86,-0.86,0.87,0.54,0.94,5.30,5.31,5.29
76.63,4.43,4.42,-0.81,-0.81,0.82,0.44,0.89,5.25,5.25,5.24
77.40,4.43,4.43,-0.76,-0.75,0.75,0.36,0.84,5.18,5.18,5.19
78.17,4.44,4.44,-0.69,-0.69,0.66,0.27,0.79,5.10,5.10,5.13
78.95,4.48,4.47,-0.61,-0.62,0.55,0.18,0.74,5.03,5.02,5.09
79.74,4.52,4.53,-0.52,-0.51,0.43,0.10,0.69,4.96,4.97,5.04
80.54,4.62,4.63,-0.38,-0.37,0.34,0.02,0.64,4.96,4.96,5.00
81.35,4.75,4.77,-0.19,-0.17,0.25,-0.06,0.59,5.01,5.03,4.94
82.16,4.87,4.87,-0.03,-0.03,0.18,-0.14,0.54,5.06,5.06,4.90
82.98,4.98,4.88,0.12,0.03,0.12,-0.21,0.49,5.10,5.00,4.86
83.81,4.77,4.79,-0.03,-0.02,0.06,-0.28,0.44,4.83,4.85,4.80
84.65,4.63,4.68,-0.12,-0.08,-0.01,-0.35,0.39,4.63,4.67,4.76
85.50,4.60,4.62,-0.12,-0.09,-0.07,-0.42,0.34,4.53,4.55,4.72
86.35,4.68,4.69,0.01,0.02,-0.14,-0.48,0.30,4.54,4.55,4.67
87.22,4.82,4.82,0.20,0.20,-0.22,-0.54,0.25,4.60,4.59,4.62
88.09,4.96,4.93,0.39,0.36,-0.33,-0.60,0.20,4.64,4.60,4.57
88.97,5.04,5.03,0.52,0.51,-0.45,-0.65,0.15,4.59,4.58,4.52
89.86,5.06,5.11,0.60,0.65,-0.59,-0.70,0.10,4.47,4.52,4.46
90.76,5.20,5.17,0.79,0.75,-0.73,-0.75,0.05,4.47,4.44,4.41
91.66,5.24,5.22,0.87,0.85,-0.86,-0.80,-0.00,4.38,4.35,4.37
92.58,5.24,5.27,0.93,0.95,-0.97,-0.84,-0.05,4.27,4.29,4.31
93.51,5.29,5.31,1.03,1.05,-1.07,-0.88,-0.10,4.22,4.24,4.26
94.44,5.38,5.37,1.16,1.15,-1.16,-0.91,-0.15,4.22,4.21,4.22
95.39,5.44,5.42,1.27,1.25,-1.24,-0.94,-0.20,4.20,4.19,4.17
96.34,5.44,5.45,1.32,1.32,-1.30,-0.97,-0.25,4.14,4.14,4.12
97.30,5.44,5.44,1.37,1.37,-1.36,-1.00,-0.30,4.08,4.08,4.07
98.28,5.43,5.43,1.40,1.40,-1.40,-1.02,-0.35,4.03,4.03,4.03
99.26,5.41,5.42,1.43,1.43,-1.43,-1.04,-0.40,3.98,3.99,3.98
100.25,5.39,5.38,1.45,1.44,-1.44,-1.06,-0.44,3.95,3.94,3.94
101.25,5.33,5.32,1.44,1.43,-1.43,-1.08,-0.49,3.90,3.89,3.89
102.27,5.24,5.26,1.40,1.42,-1.41,-1.09,-0.54,3.83,3.85,3.85
103.29,5.18,5.18,1.39,1.38,-1.38,-1.10,-0.59,3.80,3.80,3.79
104.32,5.10,5.10,1.35,1.34,-1.33,-1.11,-0.63,3.77,3.76,3.75
105.37,4.99,4.99,1.28,1.29,-1.28,-1.12,-0.68,3.72,3.72,3.71
106.42,4.88,4.87,1.22,1.21,-1.21,-1.12,-0.72,3.67,3.66,3.66
107.48,4.72,4.74,1.12,1.13,-1.14,-1.13,-0.77,3.58,3.60,3.60
108.56,4.60,4.61,1.05,1.06,-1.06,-1.13,-0.81,3.54,3.55,3.55
109.64,4.50,4.49,1.00,0.99,-0.98,-1.13,-0.85,3.52,3.50,3.50
110.74,4.36,4.37,0.91,0.92,-0.91,-1.13,-0.89,3.45,3.46,3.45
111.85,4.25,4.24,0.84,0.84,-0.84,-1.12,-0.93,3.41,3.40,3.41
112.97,4.11,4.12,0.77,0.77,-0.78,-1.12,-0.96,3.33,3.34,3.34
114.10,4.01,4.02,0.71,0.72,-0.73,-1.11,-1.00,3.28,3.29,3.30
115.24,3.94,3.94,0.69,0.69,-0.70,-1.10,-1.03,3.24,3.24,3.25
116.39,3.89,3.88,0.69,0.67,-0.68,-1.10,-1.06,3.22,3.20,3.20
117.55,3.83,3.83,0.66,0.66,-0.67,-1.09,-1.08,3.16,3.16,3.17
118.73,3.77,3.79,0.65,0.66,-0.68,-1.08,-1.11,3.09,3.11,3.12
119.92,3.77,3.77,0.67,0.68,-0.70,-1.07,-1.13,3.07,3.07,3.10
121.12,3.78,3.77,0.72,0.71,-0.72,-1.05,-1.15,3.06,3.05,3.06
122.33,3.78,3.78,0.76,0.75,-0.75,-1.04,-1.16,3.03,3.04,3.02
123.55,3.79,3.80,0.79,0.80,-0.77,-1.03,-1.17,3.02,3.03,3.00
124.79,3.80,3.80,0.83,0.83,-0.80,-1.01,-1.18,3.00,3.00,2.97
126.03,3.81,3.79,0.87,0.84,-0.83,-1.00,-1.19,2.98,2.96,2.94
127.29,3.75,3.76,0.83,0.85,-0.86,-0.98,-1.19,2.89,2.90,2.92
128.57,3.72,3.73,0.84,0.85,-0.88,-0.97,-1.19,2.84,2.86,2.88
129.85,3.72,3.72,0.87,0.86,-0.90,-0.95,-1.19,2.83,2.82,2.85
131.15,3.73,3.73,0.91,0.91,-0.91,-0.94,-1.18,2.83,2.83,2.82
132.46,3.73,3.74,0.93,0.94,-0.91,-0.92,-1.17,2.82,2.82,2.80
133.79,3.74,3.72,0.97,0.95,-0.92,-0.90,-1.16,2.82,2.80,2.77
135.12,3.68,3.68,0.95,0.94,-0.92,-0.88,-1.15,2.76,2.75,2.73
136.48,3.62,3.62,0.90,0.91,-0.93,-0.87,-1.13,2.69,2.70,2.72
137.84,3.56,3.58,0.88,0.90,-0.92,-0.85,-1.11,2.64,2.66,2.69
139.22,3.55,3.55,0.90,0.90,-0.91,-0.83,-1.09,2.64,2.64,2.65
140.61,3.55,3.53,0.93,0.90,-0.90,-0.81,-1.07,2.65,2.63,2.62
142.02,3.48,3.50,0.87,0.90,-0.88,-0.79,-1.05,2.60,2.62,2.61
143.44,3.46,3.45,0.89,0.88,-0.86,-0.77,-1.02,2.60,2.59,2.58
144.87,3.39,3.38,0.86,0.84,-0.84,-0.75,-1.00,2.55,2.54,2.54
146.32,3.29,3.32,0.79,0.82,-0.82,-0.73,-0.97,2.47,2.50,2.50
147.78,3.25,3.24,0.78,0.78,-0.79,-0.71,-0.94,2.46,2.45,2.47
149.26,3.17,3.16,0.75,0.75,-0.76,-0.69,-0.91,2.41,2.40,2.42
150.75,3.07,3.08,0.72,0.73,-0.73,-0.67,-0.88,2.34,2.36,2.35
152.26,2.99,2.99,0.71,0.70,-0.69,-0.65,-0.85,2.30,2.30,2.29
153.78,2.90,2.89,0.68,0.68,-0.67,-0.63,-0.82,2.24,2.23,2.22
155.32,2.80,2.79,0.66,0.65,-0.64,-0.61,-0.79,2.16,2.15,2.15
156.88,2.67,2.68,0.60,0.61,-0.62,-0.58,-0.76,2.05,2.06,2.07
158.44,2.57,2.57,0.58,0.58,-0.60,-0.56,-0.73,1.97,1.97,1.99
160.03,2.47,2.48,0.56,0.57,-0.58,-0.54,-0.69,1.89,1.90,1.91
161.63,2.41,2.41,0.58,0.57,-0.57,-0.52,-0.66,1.84,1.83,1.83
163.24,2.36,2.34,0.59,0.57,-0.57,-0.50,-0.63,1.79,1.77,1.77
164.88,2.28,2.29,0.56,0.57,-0.58,-0.47,-0.60,1.70,1.71,1.72
166.53,2.24,2.25,0.57,0.58,-0.59,-0.45,-0.57,1.65,1.66,1.67
168.19,2.23,2.23,0.59,0.59,-0.60,-0.43,-0.54,1.63,1.63,1.64
169.87,2.22,2.22,0.62,0.62,-0.60,-0.40,-0.51,1.62,1.62,1.60
171.57,2.21,2.21,0.63,0.62,-0.60,-0.38,-0.48,1.61,1.60,1.58
173.29,2.19,2.17,0.62,0.61,-0.59,-0.36,-0.45,1.60,1.58,1.57
175.02,2.12,2.14,0.56,0.59,-0.57,-0.33,-0.42,1.55,1.57,1.56
176.77,2.10,2.11,0.55,0.56,-0.55,-0.31,-0.40,1.55,1.56,1.55
178.54,2.10,2.07,0.56,0.53,-0.52,-0.28,-0.37,1.58,1.55,1.54
180.32,2.03,2.03,0.48,0.48,-0.49,-0.26,-0.34,1.54,1.53,1.55
182.13,1.96,1.98,0.41,0.42,-0.45,-0.24,-0.31,1.51,1.52,1.56
183.95,1.92,1.94,0.38,0.40,-0.41,-0.21,-0.29,1.51,1.53,1.54
185.79,1.93,1.92,0.39,0.38,-0.37,-0.19,-0.26,1.56,1.55,1.54
187.65,1.92,1.89,0.40,0.36,-0.33,-0.16,-0.23,1.59,1.56,1.52
189.52,1.82,1.83,0.31,0.32,-0.30,-0.14,-0.21,1.52,1.53,1.51
191.42,1.74,1.76,0.25,0.27,-0.27,-0.11,-0.18,1.47,1.49,1.49
193.33,1.70,1.69,0.23,0.21,-0.25,-0.08,-0.16,1.45,1.44,1.47
195.27,1.65,1.65,0.20,0.20,-0.23,-0.06,-0.13,1.42,1.42,1.46
197.22,1.62,1.63,0.18,0.20,-0.21,-0.03,-0.11,1.41,1.42,1.44
199.19,1.62,1.62,0.21,0.21,-0.21,-0.01,-0.09,1.41,1.42,1.41
201.18,1.63,1.61,0.24,0.22,-0.21,0.02,-0.06,1.42,1.40,1.39
203.19,1.59,1.58,0.21,0.21,-0.22,0.04,-0.04,1.37,1.37,1.38
205.23,1.54,1.56,0.19,0.20,-0.22,0.07,-0.02,1.32,1.34,1.35
207.28,1.53,1.55,0.18,0.21,-0.21,0.10,0.01,1.32,1.34,1.35
209.35,1.55,1.53,0.23,0.22,-0.19,0.12,0.03,1.36,1.35,1.32
211.44,1.52,1.49,0.23,0.19,-0.15,0.15,0.05,1.37,1.34,1.29
213.56,1.40,1.42,0.12,0.13,-0.09,0.18,0.07,1.31,1.32,1.28
215.69,1.29,1.31,0.02,0.04,-0.03,0.21,0.10,1.26,1.29,1.27
217.85,1.22,1.20,-0.04,-0.06,0.05,0.23,0.12,1.27,1.25,1.26
220.03,1.10,1.10,-0.15,-0.14,0.13,0.26,0.14,1.23,1.23,1.25
222.23,0.99,1.01,-0.23,-0.23,0.22,0.29,0.16,1.21,1.22,1.22
224.45,0.92,0.92,-0.31,-0.31,0.29,0.31,0.18,1.21,1.21,1.23
226.70,0.87,0.86,-0.36,-0.37,0.36,0.34,0.20,1.23,1.22,1.23
228.96,0.82,0.83,-0.42,-0.41,0.40,0.37,0.23,1.22,1.23,1.24
231.25,0.82,0.82,-0.43,-0.43,0.42,0.40,0.25,1.24,1.23,1.25
233.57,0.83,0.82,-0.43,-0.44,0.42,0.42,0.27,1.25,1.24,1.26
235.90,0.84,0.84,-0.43,-0.42,0.40,0.45,0.29,1.24,1.25,1.27
238.26,0.88,0.89,-0.40,-0.39,0.38,0.48,0.31,1.26,1.27,1.28
240.64,0.96,0.97,-0.34,-0.34,0.34,0.51,0.33,1.31,1.31,1.30
243.05,1.06,1.04,-0.27,-0.29,0.31,0.54,0.35,1.37,1.36,1.33
245.48,1.11,1.11,-0.24,-0.25,0.28,0.56,0.38,1.39,1.39,1.36
247.93,1.14,1.14,-0.25,-0.24,0.26,0.59,0.40,1.40,1.40,1.39
250.41,1.16,1.16,-0.24,-0.24,0.24,0.62,0.42,1.40,1.40,1.40
252.92,1.18,1.18,-0.25,-0.25,0.24,0.65,0.44,1.42,1.42,1.43
255.45,1.19,1.19,-0.26,-0.26,0.25,0.68,0.46,1.44,1.44,1.45
258.00,1.20,1.20,-0.28,-0.27,0.28,0.71,0.49,1.48,1.49,1.48
260.58,1.20,1.20,-0.29,-0.30,0.33,0.73,0.51,1.53,1.53,1.49
263.19,1.19,1.17,-0.33,-0.34,0.38,0.76,0.53,1.57,1.55,1.52
265.82,1.12,1.12,-0.42,-0.42,0.43,0.79,0.56,1.55,1.55,1.54
268.48,1.06,1.07,-0.50,-0.50,0.48,0.82,0.58,1.54,1.55,1.56
271.16,1.01,1.02,-0.58,-0.57,0.53,0.85,0.60,1.54,1.55,1.60
273.87,0.99,0.99,-0.62,-0.62,0.58,0.88,0.63,1.57,1.58,1.61
276.61,0.99,0.99,-0.65,-0.66,0.63,0.90,0.65,1.62,1.62,1.64
279.38,0.99,0.99,-0.68,-0.68,0.69,0.93,0.68,1.68,1.68,1.67
282.17,0.99,1.00,-0.70,-0.70,0.73,0.96,0.70,1.73,1.73,1.69
284.99,1.00,0.99,-0.73,-0.74,0.78,0.99,0.73,1.78,1.77,1.73
287.84,0.95,0.95,-0.79,-0.80,0.82,1.02,0.76,1.77,1.77,1.74
290.72,0.91,0.90,-0.87,-0.88,0.86,1.05,0.78,1.77,1.76,1.78
293.63,0.84,0.86,-0.96,-0.95,0.91,1.07,0.81,1.75,1.77,1.81
296.57,0.84,0.84,-1.00,-0.99,0.96,1.10,0.84,1.80,1.80,1.84
299.53,0.85,0.85,-1.02,-1.02,1.01,1.13,0.87,1.86,1.86,1.87
302.53,0.86,0.86,-1.02,-1.03,1.06,1.16,0.90,1.92,1.92,1.88
305.55,0.87,0.85,-1.06,-1.07,1.11,1.19,0.93,1.98,1.96,1.93
308.61,0.82,0.82,-1.12,-1.13,1.15,1.22,0.96,1.97,1.97,1.95
311.69,0.77,0.77,-1.20,-1.21,1.19,1.24,1.00,1.96,1.96,1.97
314.81,0.71,0.72,-1.29,-1.27,1.24,1.27,1.03,1.95,1.96,2.00
317.96,0.69,0.70,-1.32,-1.31,1.28,1.30,1.06,1.97,1.98,2.02
321.14,0.70,0.69,-1.32,-1.33,1.32,1.33,1.10,2.02,2.02,2.02
324.35,0.69,0.68,-1.35,-1.36,1.37,1.36,1.14,2.06,2.05,2.04
327.59,0.66,0.66,-1.40,-1.39,1.41,1.38,1.17,2.07,2.07,2.06
330.87,0.61,0.62,-1.45,-1.44,1.45,1.41,1.21,2.07,2.08,2.06
334.18,0.59,0.58,-1.49,-1.50,1.51,1.44,1.25,2.10,2.09,2.08
337.52,0.53,0.54,-1.56,-1.55,1.58,1.47,1.29,2.11,2.11,2.09
340.90,0.49,0.48,-1.61,-1.62,1.65,1.50,1.33,2.14,2.13,2.11
344.30,0.40,0.40,-1.71,-1.71,1.73,1.52,1.38,2.13,2.13,2.11
347.75,0.31,0.31,-1.80,-1.81,1.81,1.55,1.42,2.12,2.11,2.11
351.23,0.21,0.21,-1.91,-1.91,1.87,1.58,1.47,2.09,2.08,2.12
354.74,0.12,0.14,-2.00,-1.98,1.93,1.61,1.51,2.05,2.07,2.12
358.28,0.09,0.10,-2.03,-2.03,1.98,1.63,1.56,2.07,2.08,2.12
361.87,0.10,0.09,-2.02,-2.03,2.02,1.66,1.61,2.12,2.11,2.12
365.49,0.10,0.10,-2.03,-2.02,2.04,1.69,1.66,2.14,2.14,2.13
369.14,0.11,0.10,-2.01,-2.02,2.05,1.71,1.71,2.16,2.15,2.12
372.83,0.08,0.07,-2.04,-2.05,2.06,1.74,1.76,2.14,2.13,2.12
376.56,0.03,0.05,-2.08,-2.07,2.06,1.77,1.81,2.09,2.11,2.11
380.33,0.03,0.04,-2.09,-2.08,2.08,1.80,1.87,2.11,2.12,2.12
384.13,0.04,0.04,-2.08,-2.08,2.10,1.82,1.92,2.14,2.13,2.12
387.97,0.04,0.02,-2.07,-2.09,2.12,1.85,1.98,2.16,2.14,2.11
391.85,-0.02,-0.03,-2.12,-2.14,2.15,1.87,2.03,2.13,2.12,2.10
395.77,-0.12,-0.09,-2.23,-2.19,2.18,1.90,2.09,2.06,2.09,2.11
399.73,-0.15,-0.14,-2.24,-2.23,2.21,1.93,2.15,2.06,2.07,2.10
403.72,-0.16,-0.16,-2.25,-2.26,2.24,1.95,2.21,2.08,2.07,2.09
407.76,-0.16,-0.19,-2.24,-2.27,2.26,1.98,2.26,2.11,2.08,2.08
411.84,-0.23,-0.22,-2.31,-2.30,2.29,2.00,2.32,2.06,2.08,2.08
415.96,-0.26,-0.24,-2.34,-2.32,2.32,2.03,2.38,2.06,2.08,2.08
420.12,-0.26,-0.26,-2.34,-2.34,2.35,2.05,2.44,2.09,2.09,2.08
424.32,-0.26,-0.28,-2.34,-2.36,2.39,2.08,2.50,2.13,2.11,2.08
428.56,-0.31,-0.30,-2.40,-2.38,2.42,2.10,2.56,2.11,2.12,2.09
432.85,-0.34,-0.35,-2.44,-2.44,2.46,2.13,2.61,2.12,2.11,2.10
437.18,-0.39,-0.40,-2.49,-2.51,2.49,2.15,2.67,2.10,2.09,2.11
441.55,-0.44,-0.43,-2.58,-2.56,2.52,2.18,2.72,2.08,2.10,2.14
445.96,-0.44,-0.42,-2.61,-2.59,2.55,2.20,2.77,2.11,2.13,2.17
450.42,-0.38,-0.38,-2.58,-2.59,2.57,2.23,2.82,2.19,2.19,2.20
454.93,-0.32,-0.32,-2.57,-2.57,2.59,2.25,2.87,2.27,2.27,2.25
459.48,-0.26,-0.27,-2.56,-2.57,2.60,2.27,2.92,2.34,2.33,2.30
464.07,-0.23,-0.25,-2.58,-2.60,2.61,2.30,2.96,2.38,2.36,2.35
468.71,-0.26,-0.23,-2.67,-2.63,2.63,2.32,3.00,2.37,2.40,2.41
473.40,-0.20,-0.18,-2.65,-2.64,2.65,2.34,3.04,2.45,2.46,2.45
478.13,-0.13,-0.15,-2.64,-2.65,2.67,2.37,3.07,2.54,2.52,2.51
482.91,-0.08,-0.13,-2.63,-2.68,2.69,2.39,3.10,2.61,2.56,2.55
487.74,-0.16,-0.13,-2.75,-2.72,2.71,2.41,3.13,2.55,2.58,2.59
492.62,-0.16,-0.13,-2.79,-2.76,2.72,2.43,3.15,2.57,2.60,2.64
497.55,-0.09,-0.11,-2.74,-2.77,2.73,2.46,3.17,2.64,2.63,2.65
502.52,-0.05,-0.06,-2.73,-2.74,2.74,2.48,3.18,2.69,2.68,2.68
507.55,-0.03,-0.02,-2.72,-2.72,2.74,2.50,3.19,2.71,2.71,2.69
512.62,-0.01,-0.01,-2.71,-2.72,2.74,2.52,3.20,2.73,2.72,2.70
517.75,-0.01,-0.01,-2.72,-2.72,2.73,2.54,3.20,2.72,2.72,2.71
522.93,-0.01,-0.01,-2.71,-2.71,2.71,2.56,3.20,2.70,2.70,2.70
528.16,-0.02,-0.02,-2.69,-2.69,2.69,2.58,3.20,2.67,2.67,2.67
533.44,-0.03,-0.03,-2.67,-2.68,2.66,2.60,3.19,2.63,2.62,2.64
