frequency,raw,error,smoothed,error_smoothed,equalization,parametric_eq,equalized_raw,equalized_smoothed,target
20,-6.32,-9.15,-6.29,-9.14,6.00,2.68,-0.32,-0.29,2.83
21,-5.76,-8.59,-5.81,-8.65,6.00,3.09,0.24,0.19,2.83
22,-5.32,-8.14,-5.36,-8.19,6.00,3.53,0.68,0.64,2.83
23,-4.94,-7.76,-4.92,-7.74,6.00,4.01,1.06,1.08,2.83
24,-4.50,-7.32,-4.51,-7.31,6.00,4.53,1.50,1.49,2.82
25,-4.10,-6.92,-4.11,-6.91,6.00,5.06,1.90,1.89,2.82
26,-3.76,-6.57,-3.73,-6.52,5.94,5.58,2.18,2.21,2.82
27,-3.44,-6.25,-3.37,-6.16,5.80,6.08,2.37,2.43,2.81
28,-3.10,-5.91,-3.03,-5.81,5.61,6.52,2.52,2.58,2.81
29,-2.71,-5.51,-2.71,-5.49,5.39,6.85,2.68,2.68,2.81
30,-2.42,-5.22,-2.41,-5.18,5.14,7.04,2.73,2.74,2.80
31,-2.12,-4.91,-2.11,-4.88,4.88,7.07,2.77,2.77,2.80
32,-1.86,-4.65,-1.83,-4.61,4.61,6.93,2.76,2.78,2.79
33,-1.67,-4.45,-1.57,-4.37,4.37,6.64,2.70,2.79,2.78
34,-1.33,-4.10,-1.36,-4.15,4.15,6.24,2.82,2.78,2.78
35,-1.15,-3.91,-1.19,-3.95,3.95,5.77,2.80,2.76,2.77
36,-0.98,-3.74,-1.03,-3.79,3.79,5.25,2.81,2.75,2.76
37,-0.78,-3.53,-0.92,-3.65,3.65,4.70,2.87,2.73,2.75
38,-0.61,-3.35,-0.84,-3.53,3.53,4.16,2.92,2.69,2.74
39,-0.58,-3.31,-0.76,-3.42,3.42,3.62,2.84,2.66,2.73
40,-0.55,-3.27,-0.67,-3.32,3.32,3.09,2.78,2.65,2.72
41,-0.61,-3.32,-0.57,-3.24,3.24,2.59,2.63,2.67,2.71
42,-0.75,-3.44,-0.48,-3.16,3.16,2.10,2.41,2.68,2.70
43,-0.72,-3.40,-0.40,-3.07,3.07,1.62,2.35,2.67,2.69
44,-0.49,-3.16,-0.35,-2.96,2.96,1.16,2.48,2.61,2.67
45,-0.30,-2.95,-0.26,-2.83,2.83,0.72,2.53,2.57,2.66
46,-0.21,-2.85,-0.15,-2.67,2.67,0.30,2.47,2.52,2.64
47,0.19,-2.43,0.01,-2.48,2.48,-0.12,2.67,2.49,2.63
48,0.55,-2.05,0.23,-2.23,2.23,-0.52,2.78,2.46,2.61
49,0.76,-1.83,0.51,-1.93,1.93,-0.91,2.69,2.44,2.59
50,0.89,-1.68,0.86,-1.57,1.57,-1.29,2.47,2.43,2.57
51,0.83,-1.72,1.25,-1.18,1.18,-1.65,2.01,2.43,2.55
52,1.07,-1.46,1.69,-0.74,0.74,-2.00,1.82,2.43,2.53
53,1.65,-0.86,2.14,-0.27,0.27,-2.34,1.93,2.41,2.51
54,2.57,0.09,2.60,0.22,-0.22,-2.67,2.35,2.38,2.49
55,3.13,0.67,3.08,0.72,-0.72,-2.97,2.41,2.36,2.46
56,3.79,1.36,3.57,1.23,-1.23,-3.27,2.57,2.35,2.44
57,4.30,1.89,4.05,1.73,-1.73,-3.54,2.58,2.32,2.41
58,4.83,2.45,4.53,2.22,-2.22,-3.80,2.61,2.31,2.39
59,5.25,2.89,5.00,2.70,-2.70,-4.03,2.56,2.30,2.36
60,5.59,3.26,5.45,3.14,-3.14,-4.25,2.46,2.32,2.33
61,5.91,3.61,5.87,3.54,-3.54,-4.45,2.37,2.33,2.30
62,6.16,3.89,6.22,3.92,-3.92,-4.62,2.25,2.30,2.27
63,6.43,4.19,6.51,4.26,-4.26,-4.78,2.17,2.25,2.24
64,6.73,4.52,6.76,4.58,-4.58,-4.92,2.16,2.18,2.21
65,6.98,4.80,7.01,4.86,-4.86,-5.05,2.12,2.15,2.18
66,7.17,5.03,7.23,5.12,-5.12,-5.16,2.06,2.12,2.15
67,7.36,5.25,7.45,5.36,-5.36,-5.26,2.00,2.08,2.11
68,7.63,5.56,7.65,5.61,-5.61,-5.34,2.03,2.05,2.08
69,7.87,5.83,7.86,5.84,-5.84,-5.42,2.03,2.02,2.04
70,8.10,6.10,8.06,6.08,-6.08,-5.49,2.03,1.99,2.01
71,8.27,6.30,8.27,6.31,-6.31,-5.56,1.97,1.96,1.97
72,8.46,6.53,8.46,6.53,-6.53,-5.63,1.94,1.93,1.93
73,8.61,6.72,8.64,6.75,-6.75,-5.69,1.87,1.89,1.89
74,8.82,6.97,8.82,6.96,-6.96,-5.75,1.86,1.85,1.86
75,8.97,7.16,8.99,7.18,-7.18,-5.81,1.80,1.82,1.82
76,9.13,7.36,9.16,7.38,-7.38,-5.88,1.75,1.78,1.78
77,9.33,7.60,9.32,7.59,-7.59,-5.94,1.75,1.74,1.74
78,9.48,7.79,9.48,7.78,-7.78,-6.01,1.70,1.70,1.70
79,9.65,8.00,9.63,7.98,-7.98,-6.08,1.68,1.65,1.66
80,9.78,8.17,9.77,8.16,-8.16,-6.16,1.62,1.61,1.62
81,9.85,8.28,9.92,8.35,-8.35,-6.24,1.51,1.57,1.58
82,10.04,8.51,10.05,8.52,-8.52,-6.33,1.52,1.53,1.54
83,10.17,8.68,10.18,8.69,-8.69,-6.42,1.48,1.49,1.49
84,10.34,8.89,10.31,8.86,-8.86,-6.51,1.49,1.45,1.45
85,10.40,8.99,10.42,9.01,-9.01,-6.61,1.39,1.41,1.41
86,10.55,9.18,10.53,9.16,-9.16,-6.72,1.40,1.37,1.37
87,10.63,9.31,10.62,9.30,-9.30,-6.83,1.34,1.33,1.33
88,10.68,9.40,10.71,9.43,-9.43,-6.94,1.26,1.29,1.29
89,10.80,9.56,10.79,9.55,-9.55,-7.07,1.26,1.25,1.24
90,10.86,9.66,10.86,9.66,-9.66,-7.19,1.21,1.20,1.20
91,10.97,9.81,10.92,9.76,-9.76,-7.32,1.21,1.16,1.16
92,10.99,9.87,10.96,9.85,-9.85,-7.46,1.14,1.11,1.12
93,10.99,9.91,11.01,9.94,-9.94,-7.60,1.06,1.07,1.08
94,10.99,9.95,11.04,10.01,-10.01,-7.75,0.98,1.03,1.04
95,11.08,10.09,11.07,10.08,-10.08,-7.90,1.00,0.99,1.00
96,11.09,10.14,11.10,10.15,-10.15,-8.05,0.95,0.95,0.96
97,11.08,10.16,11.11,10.20,-10.20,-8.21,0.88,0.91,0.92
98,11.07,10.19,11.12,10.25,-10.25,-8.37,0.83,0.87,0.88
99,11.06,10.22,11.12,10.29,-10.29,-8.54,0.77,0.83,0.84
100,11.13,10.33,11.11,10.32,-10.32,-8.71,0.81,0.78,0.80
101,11.13,10.37,11.08,10.35,-10.35,-8.88,0.79,0.74,0.76
102,11.11,10.39,11.06,10.36,-10.36,-9.05,0.75,0.70,0.73
104,11.08,10.43,11.03,10.37,-10.37,-9.40,0.71,0.66,0.65
105,10.97,10.36,10.99,10.37,-10.37,-9.58,0.60,0.62,0.62
106,10.94,10.37,10.94,10.36,-10.36,-9.76,0.58,0.58,0.58
107,10.86,10.32,10.89,10.34,-10.34,-9.93,0.52,0.55,0.54
108,10.79,10.29,10.82,10.31,-10.31,-10.11,0.48,0.51,0.51
109,10.71,10.24,10.75,10.28,-10.28,-10.28,0.44,0.48,0.47
110,10.65,10.22,10.66,10.23,-10.23,-10.45,0.42,0.43,0.44
111,10.56,10.16,10.57,10.18,-10.18,-10.61,0.38,0.39,0.41
112,10.51,10.14,10.48,10.12,-10.12,-10.77,0.39,0.35,0.37
113,10.41,10.07,10.38,10.06,-10.06,-10.92,0.35,0.32,0.34
114,10.32,10.01,10.28,9.99,-9.99,-11.06,0.33,0.29,0.31
115,10.20,9.92,10.19,9.93,-9.93,-11.19,0.28,0.27,0.29
117,10.07,9.84,10.09,9.85,-9.85,-11.42,0.22,0.24,0.23
118,9.93,9.73,9.98,9.78,-9.78,-11.51,0.16,0.21,0.21
119,9.81,9.63,9.87,9.69,-9.69,-11.58,0.12,0.18,0.18
120,9.70,9.54,9.76,9.61,-9.61,-11.64,0.10,0.15,0.16
121,9.66,9.52,9.65,9.52,-9.52,-11.68,0.14,0.13,0.14
123,9.51,9.41,9.53,9.42,-9.42,-11.71,0.09,0.10,0.10
124,9.44,9.36,9.41,9.32,-9.32,-11.69,0.12,0.08,0.08
125,9.33,9.27,9.28,9.22,-9.22,-11.66,0.11,0.06,0.07
126,9.22,9.17,9.15,9.11,-9.11,-11.60,0.11,0.04,0.05
128,8.96,8.95,9.01,9.00,-9.00,-11.44,-0.03,0.01,0.02
129,8.85,8.85,8.87,8.88,-8.88,-11.33,-0.02,-0.01,0.00
130,8.74,8.76,8.74,8.75,-8.75,-11.21,-0.01,-0.02,-0.01
131,8.64,8.67,8.59,8.63,-8.63,-11.07,0.02,-0.04,-0.03
133,8.37,8.44,8.44,8.50,-8.50,-10.76,-0.12,-0.06,-0.06
134,8.27,8.35,8.28,8.36,-8.36,-10.59,-0.09,-0.09,-0.08
135,8.12,8.22,8.12,8.23,-8.23,-10.41,-0.10,-0.11,-0.09
137,7.89,8.02,7.96,8.09,-8.09,-10.02,-0.20,-0.13,-0.13
138,7.81,7.96,7.80,7.96,-7.96,-9.82,-0.14,-0.15,-0.14
140,7.59,7.77,7.64,7.82,-7.82,-9.40,-0.22,-0.18,-0.17
141,7.55,7.74,7.49,7.68,-7.68,-9.19,-0.13,-0.20,-0.19
142,7.41,7.62,7.32,7.55,-7.55,-8.98,-0.13,-0.23,-0.20
144,7.08,7.32,7.16,7.41,-7.41,-8.55,-0.33,-0.25,-0.24
145,6.99,7.24,7.00,7.28,-7.28,-8.33,-0.28,-0.27,-0.25
147,6.82,7.10,6.86,7.13,-7.13,-7.90,-0.31,-0.28,-0.28
148,6.68,6.98,6.70,6.98,-6.98,-7.68,-0.30,-0.29,-0.29
150,6.46,6.78,6.52,6.83,-6.83,-7.26,-0.36,-0.31,-0.32
151,6.35,6.68,6.34,6.66,-6.66,-7.05,-0.31,-0.32,-0.33
153,6.11,6.47,6.14,6.49,-6.49,-6.63,-0.38,-0.35,-0.35
154,6.00,6.37,5.93,6.31,-6.31,-6.42,-0.31,-0.39,-0.36
156,5.82,6.21,5.71,6.13,-6.13,-6.02,-0.31,-0.42,-0.39
157,5.65,6.05,5.50,5.94,-5.94,-5.82,-0.29,-0.44,-0.40
159,5.38,5.80,5.30,5.75,-5.75,-5.42,-0.37,-0.46,-0.42
160,5.16,5.59,5.09,5.57,-5.57,-5.23,-0.41,-0.48,-0.43
162,4.73,5.18,4.89,5.39,-5.39,-4.85,-0.66,-0.50,-0.45
164,4.50,4.97,4.70,5.22,-5.22,-4.47,-0.71,-0.52,-0.47
165,4.40,4.89,4.52,5.05,-5.05,-4.29,-0.65,-0.53,-0.48
167,4.22,4.73,4.34,4.90,-4.90,-3.93,-0.67,-0.56,-0.50
169,4.10,4.63,4.18,4.75,-4.75,-3.57,-0.64,-0.57,-0.52
170,4.04,4.58,4.01,4.60,-4.60,-3.40,-0.56,-0.59,-0.54
172,3.90,4.46,3.87,4.46,-4.46,-3.05,-0.56,-0.60,-0.56
174,3.77,4.35,3.73,4.33,-4.33,-2.71,-0.56,-0.61,-0.57
175,3.69,4.28,3.59,4.21,-4.21,-2.54,-0.51,-0.61,-0.58
177,3.53,4.13,3.47,4.07,-4.07,-2.21,-0.54,-0.61,-0.60
179,3.37,3.98,3.34,3.93,-3.93,-1.89,-0.56,-0.58,-0.61
181,3.16,3.78,3.19,3.78,-3.78,-1.57,-0.61,-0.58,-0.62
183,2.99,3.61,3.03,3.62,-3.62,-1.25,-0.62,-0.59,-0.62
184,2.86,3.48,2.85,3.44,-3.44,-1.10,-0.58,-0.60,-0.61
186,2.63,3.25,2.66,3.26,-3.26,-0.79,-0.63,-0.61,-0.61
188,2.49,3.10,2.45,3.07,-3.07,-0.48,-0.58,-0.62,-0.61
190,2.28,2.88,2.25,2.87,-2.87,-0.18,-0.58,-0.62,-0.60
192,2.07,2.67,2.05,2.66,-2.66,0.11,-0.59,-0.61,-0.59
194,1.91,2.50,1.84,2.45,-2.45,0.41,-0.54,-0.61,-0.59
196,1.64,2.22,1.63,2.25,-2.25,0.70,-0.60,-0.61,-0.58
198,1.31,1.89,1.43,2.04,-2.04,0.98,-0.73,-0.61,-0.58
200,1.13,1.71,1.24,1.83,-1.83,1.26,-0.70,-0.60,-0.57
202,0.96,1.53,1.03,1.62,-1.62,1.54,-0.66,-0.60,-0.57
204,0.79,1.36,0.82,1.42,-1.42,1.81,-0.62,-0.60,-0.57
206,0.61,1.19,0.61,1.21,-1.21,2.08,-0.59,-0.60,-0.57
208,0.42,1.00,0.39,1.00,-1.00,2.34,-0.57,-0.61,-0.58
210,0.23,0.82,0.17,0.78,-0.78,2.60,-0.55,-0.61,-0.58
212,-0.02,0.58,-0.05,0.57,-0.57,2.85,-0.59,-0.62,-0.59
214,-0.23,0.37,-0.27,0.35,-0.35,3.10,-0.58,-0.62,-0.60
216,-0.42,0.19,-0.48,0.13,-0.13,3.33,-0.54,-0.61,-0.61
218,-0.72,-0.10,-0.72,-0.11,0.11,3.57,-0.61,-0.61,-0.62
221,-1.07,-0.44,-0.96,-0.35,0.35,3.90,-0.72,-0.62,-0.63
223,-1.24,-0.60,-1.23,-0.59,0.59,4.11,-0.64,-0.63,-0.63
225,-1.54,-0.90,-1.49,-0.85,0.85,4.31,-0.69,-0.64,-0.64
227,-1.79,-1.15,-1.75,-1.11,1.11,4.50,-0.67,-0.64,-0.64
229,-1.95,-1.31,-2.02,-1.38,1.38,4.68,-0.56,-0.64,-0.63
232,-2.26,-1.62,-2.30,-1.66,1.66,4.93,-0.60,-0.64,-0.63
234,-2.50,-1.87,-2.57,-1.94,1.94,5.07,-0.56,-0.63,-0.62
236,-2.91,-2.29,-2.85,-2.22,2.22,5.21,-0.68,-0.62,-0.61
239,-3.21,-2.60,-3.13,-2.51,2.51,5.38,-0.69,-0.61,-0.60
241,-3.42,-2.83,-3.40,-2.81,2.81,5.48,-0.61,-0.60,-0.59
244,-3.77,-3.19,-3.68,-3.11,3.11,5.60,-0.65,-0.57,-0.57
246,-3.90,-3.34,-3.98,-3.42,3.42,5.67,-0.48,-0.56,-0.56
248,-4.27,-3.72,-4.28,-3.73,3.73,5.71,-0.53,-0.55,-0.54
251,-4.69,-4.16,-4.59,-4.05,4.05,5.75,-0.64,-0.54,-0.53
253,-4.88,-4.36,-4.92,-4.38,4.38,5.76,-0.50,-0.54,-0.51
256,-5.15,-4.64,-5.24,-4.71,4.71,5.75,-0.44,-0.53,-0.51
259,-5.62,-5.12,-5.57,-5.05,5.05,5.71,-0.57,-0.52,-0.50
261,-5.89,-5.39,-5.91,-5.40,5.26,5.67,-0.63,-0.65,-0.49
264,-6.24,-5.75,-6.27,-5.75,5.53,5.58,-0.71,-0.74,-0.49
266,-6.61,-6.12,-6.63,-6.12,5.68,5.51,-0.93,-0.95,-0.49
269,-7.12,-6.63,-7.00,-6.50,5.86,5.39,-1.25,-1.14,-0.49
272,-7.50,-7.01,-7.40,-6.90,5.97,5.25,-1.53,-1.43,-0.49
274,-7.83,-7.34,-7.82,-7.33,6.00,5.15,-1.83,-1.82,-0.49
277,-8.31,-7.82,-8.26,-7.79,6.00,4.99,-2.31,-2.26,-0.49
280,-8.63,-8.14,-8.75,-8.29,6.00,4.82,-2.63,-2.75,-0.49
283,-9.15,-8.66,-9.26,-8.81,6.00,4.63,-3.15,-3.26,-0.48
286,-9.75,-9.27,-9.82,-9.35,6.00,4.44,-3.75,-3.82,-0.48
288,-10.14,-9.66,-10.43,-9.92,6.00,4.31,-4.14,-4.43,-0.47
291,-10.68,-10.21,-11.01,-10.51,6.00,4.12,-4.68,-5.01,-0.46
294,-11.36,-10.90,-11.60,-11.11,6.00,3.91,-5.36,-5.60,-0.45
297,-12.22,-11.77,-12.17,-11.69,6.00,3.71,-6.22,-6.17,-0.44
300,-12.76,-12.33,-12.72,-12.25,6.00,3.50,-6.76,-6.72,-0.43
303,-13.34,-12.92,-13.25,-12.77,6.00,3.30,-7.34,-7.25,-0.42
306,-13.94,-13.53,-13.71,-13.23,6.00,3.09,-7.94,-7.71,-0.41
309,-14.37,-13.97,-14.11,-13.61,6.00,2.89,-8.37,-8.11,-0.40
312,-14.77,-14.37,-14.41,-13.90,6.00,2.68,-8.77,-8.41,-0.39
316,-14.73,-14.34,-14.65,-14.09,6.00,2.41,-8.73,-8.65,-0.39
319,-14.43,-14.04,-14.74,-14.16,6.00,2.21,-8.43,-8.74,-0.38
322,-14.78,-14.40,-14.66,-14.09,6.00,2.01,-8.78,-8.66,-0.38
325,-14.45,-14.07,-14.44,-13.91,6.00,1.81,-8.45,-8.44,-0.38
328,-14.38,-14.00,-14.11,-13.60,6.00,1.62,-8.38,-8.11,-0.38
332,-14.10,-13.72,-13.68,-13.18,6.00,1.36,-8.10,-7.68,-0.38
335,-13.36,-12.98,-13.14,-12.67,6.00,1.17,-7.36,-7.14,-0.38
338,-12.80,-12.42,-12.55,-12.09,6.00,0.98,-6.80,-6.55,-0.38
342,-12.07,-11.69,-11.89,-11.45,6.00,0.73,-6.07,-5.89,-0.37
345,-11.30,-10.92,-11.18,-10.77,6.00,0.55,-5.30,-5.18,-0.37
349,-9.79,-9.41,-10.48,-10.06,6.00,0.30,-3.79,-4.48,-0.37
352,-9.28,-8.91,-9.76,-9.35,6.00,0.12,-3.28,-3.76,-0.37
356,-8.84,-8.47,-9.01,-8.66,6.00,-0.12,-2.84,-3.01,-0.36
359,-8.31,-7.95,-8.32,-7.98,6.00,-0.30,-2.31,-2.32,-0.36
363,-7.43,-7.08,-7.63,-7.32,6.00,-0.53,-1.43,-1.63,-0.35
366,-7.06,-6.71,-6.99,-6.69,5.92,-0.70,-1.14,-1.08,-0.34
370,-6.49,-6.15,-6.41,-6.10,5.67,-0.93,-0.82,-0.74,-0.33
374,-5.65,-5.32,-5.85,-5.52,5.28,-1.16,-0.37,-0.58,-0.32
377,-5.39,-5.07,-5.33,-4.98,4.92,-1.33,-0.46,-0.40,-0.32
381,-5.00,-4.69,-4.83,-4.46,4.44,-1.55,-0.55,-0.38,-0.31
385,-4.31,-4.00,-4.33,-3.94,3.94,-1.77,-0.36,-0.39,-0.30
389,-3.86,-3.56,-3.80,-3.43,3.43,-1.99,-0.43,-0.37,-0.30
393,-3.44,-3.14,-3.26,-2.92,2.92,-2.20,-0.52,-0.34,-0.29
397,-2.76,-2.46,-2.74,-2.42,2.42,-2.41,-0.34,-0.33,-0.29
401,-2.28,-1.98,-2.25,-1.92,1.92,-2.62,-0.36,-0.33,-0.29
405,-1.88,-1.58,-1.74,-1.43,1.43,-2.83,-0.44,-0.31,-0.29
409,-1.22,-0.92,-1.27,-0.96,0.96,-3.03,-0.26,-0.31,-0.29
413,-0.66,-0.36,-0.83,-0.50,0.50,-3.23,-0.15,-0.33,-0.29
417,-0.19,0.10,-0.35,-0.06,0.06,-3.42,-0.13,-0.29,-0.29
421,0.22,0.51,0.09,0.37,-0.37,-3.61,-0.15,-0.28,-0.28
425,0.58,0.85,0.51,0.78,-0.78,-3.80,-0.20,-0.28,-0.27
430,1.03,1.29,0.93,1.18,-1.18,-4.02,-0.15,-0.25,-0.25
434,1.29,1.52,1.33,1.57,-1.57,-4.20,-0.27,-0.24,-0.23
438,1.62,1.82,1.73,1.95,-1.95,-4.37,-0.33,-0.22,-0.20
443,2.02,2.18,2.15,2.34,-2.34,-4.57,-0.31,-0.19,-0.16
447,2.36,2.48,2.58,2.72,-2.72,-4.72,-0.36,-0.15,-0.11
451,2.94,3.01,3.00,3.12,-3.12,-4.86,-0.17,-0.12,-0.06
456,3.56,3.57,3.45,3.52,-3.52,-5.03,0.04,-0.07,-0.01
460,3.80,3.75,3.93,3.94,-3.94,-5.16,-0.14,-0.02,0.05
465,4.29,4.18,4.43,4.38,-4.38,-5.30,-0.08,0.05,0.11
470,4.93,4.77,4.94,4.82,-4.82,-5.43,0.11,0.12,0.17
474,5.33,5.11,5.46,5.27,-5.27,-5.52,0.06,0.19,0.23
479,6.04,5.76,5.98,5.72,-5.72,-5.62,0.32,0.26,0.28
484,6.52,6.19,6.48,6.16,-6.16,-5.70,0.36,0.32,0.33
489,7.04,6.66,6.96,6.59,-6.59,-5.77,0.45,0.37,0.38
494,7.35,6.93,7.42,7.00,-7.00,-5.82,0.35,0.42,0.42
499,7.88,7.43,7.83,7.39,-7.39,-5.85,0.50,0.45,0.46
504,8.33,7.85,8.22,7.74,-7.74,-5.87,0.59,0.47,0.48
509,8.64,8.14,8.57,8.06,-8.06,-5.87,0.58,0.51,0.50
514,8.88,8.37,8.86,8.34,-8.34,-5.85,0.55,0.53,0.51
519,9.08,8.57,9.09,8.57,-8.57,-5.82,0.52,0.53,0.51
524,9.28,8.78,9.27,8.75,-8.75,-5.78,0.53,0.52,0.51
529,9.41,8.92,9.38,8.89,-8.89,-5.72,0.53,0.49,0.49
535,9.54,9.07,9.45,8.98,-8.98,-5.64,0.57,0.47,0.47
540,9.51,9.07,9.47,9.02,-9.02,-5.56,0.49,0.45,0.45
545,9.46,9.05,9.43,9.02,-9.02,-5.48,0.44,0.41,0.41
551,9.41,9.03,9.35,8.99,-8.99,-5.36,0.43,0.36,0.38
556,9.32,8.98,9.25,8.92,-8.92,-5.26,0.41,0.33,0.35
562,9.14,8.83,9.12,8.81,-8.81,-5.13,0.33,0.31,0.31
568,8.80,8.52,8.96,8.68,-8.68,-4.99,0.13,0.28,0.29
573,8.69,8.43,8.78,8.52,-8.52,-4.87,0.17,0.26,0.26
579,8.56,8.32,8.59,8.34,-8.34,-4.73,0.22,0.24,0.24
585,8.34,8.11,8.38,8.15,-8.15,-4.58,0.19,0.23,0.23
591,8.08,7.86,8.16,7.94,-7.94,-4.43,0.14,0.22,0.23
596,7.92,7.69,7.94,7.72,-7.72,-4.30,0.20,0.22,0.23
602,7.83,7.59,7.72,7.50,-7.50,-4.15,0.33,0.22,0.24
608,7.65,7.40,7.51,7.27,-7.27,-4.00,0.38,0.24,0.26
615,7.23,6.95,7.30,7.04,-7.04,-3.82,0.19,0.26,0.28
621,7.02,6.71,7.10,6.81,-6.81,-3.66,0.21,0.30,0.31
627,6.93,6.59,6.92,6.58,-6.58,-3.51,0.36,0.34,0.34
633,6.68,6.30,6.72,6.35,-6.35,-3.36,0.34,0.38,0.38
639,6.43,6.01,6.54,6.12,-6.12,-3.22,0.31,0.42,0.43
646,6.29,5.82,6.37,5.90,-5.90,-3.05,0.40,0.47,0.48
652,6.21,5.69,6.20,5.68,-5.68,-2.90,0.53,0.52,0.53
659,6.01,5.44,6.03,5.47,-5.47,-2.74,0.55,0.56,0.58
665,5.88,5.25,5.86,5.26,-5.26,-2.60,0.63,0.61,0.63
672,5.74,5.06,5.71,5.05,-5.05,-2.44,0.69,0.66,0.68
679,5.61,4.88,5.57,4.85,-4.85,-2.28,0.76,0.71,0.73
686,5.44,4.67,5.41,4.65,-4.65,-2.13,0.79,0.75,0.77
692,5.27,4.46,5.25,4.46,-4.46,-2.00,0.81,0.79,0.81
699,5.09,4.25,5.10,4.27,-4.27,-1.85,0.82,0.83,0.84
706,4.95,4.09,4.94,4.09,-4.09,-1.70,0.87,0.85,0.87
713,4.76,3.88,4.77,3.90,-3.90,-1.56,0.86,0.87,0.88
721,4.56,3.67,4.60,3.72,-3.72,-1.40,0.84,0.88,0.89
728,4.39,3.50,4.43,3.54,-3.54,-1.26,0.85,0.88,0.89
735,4.24,3.35,4.25,3.37,-3.37,-1.13,0.88,0.89,0.89
742,4.12,3.23,4.08,3.19,-3.19,-0.99,0.93,0.89,0.89
750,3.93,3.04,3.91,3.02,-3.02,-0.85,0.91,0.89,0.89
757,3.77,2.88,3.75,2.85,-2.85,-0.72,0.93,0.90,0.89
765,3.60,2.71,3.59,2.68,-2.68,-0.57,0.92,0.91,0.90
773,3.38,2.48,3.43,2.51,-2.51,-0.43,0.87,0.92,0.90
780,3.23,2.32,3.27,2.35,-2.35,-0.31,0.88,0.92,0.91
788,3.08,2.16,3.12,2.19,-2.19,-0.18,0.89,0.93,0.92
796,2.96,2.03,2.97,2.03,-2.03,-0.05,0.93,0.94,0.94
804,2.84,1.89,2.82,1.88,-1.88,0.08,0.97,0.95,0.96
812,2.70,1.73,2.68,1.72,-1.72,0.21,0.98,0.96,0.97
820,2.56,1.57,2.55,1.57,-1.57,0.33,0.99,0.97,0.99
828,2.42,1.42,2.42,1.43,-1.43,0.45,1.00,0.99,1.01
837,2.31,1.29,2.29,1.29,-1.29,0.58,1.03,1.01,1.02
845,2.12,1.09,2.17,1.15,-1.15,0.70,0.98,1.02,1.03
853,1.99,0.95,2.05,1.01,-1.01,0.81,0.98,1.04,1.05
862,1.92,0.87,1.92,0.88,-0.88,0.93,1.05,1.05,1.05
871,1.81,0.75,1.80,0.75,-0.75,1.04,1.07,1.06,1.06
879,1.69,0.63,1.68,0.62,-0.62,1.14,1.08,1.06,1.07
888,1.59,0.52,1.55,0.49,-0.49,1.25,1.11,1.07,1.07
897,1.44,0.37,1.43,0.36,-0.36,1.35,1.09,1.07,1.08
906,1.29,0.21,1.31,0.23,-0.23,1.45,1.07,1.08,1.08
915,1.19,0.11,1.19,0.10,-0.10,1.54,1.10,1.09,1.09
924,1.05,-0.04,1.06,-0.04,0.04,1.62,1.09,1.10,1.09
933,0.91,-0.19,0.93,-0.17,0.17,1.70,1.08,1.10,1.10
943,0.81,-0.30,0.80,-0.31,0.31,1.79,1.12,1.11,1.11
952,0.67,-0.44,0.68,-0.44,0.44,1.85,1.12,1.12,1.12
962,0.52,-0.61,0.54,-0.58,0.58,1.92,1.11,1.13,1.13
971,0.42,-0.72,0.42,-0.73,0.73,1.98,1.15,1.15,1.14
981,0.30,-0.85,0.29,-0.88,0.88,2.04,1.18,1.16,1.16
991,0.14,-1.03,0.15,-1.02,1.02,2.09,1.17,1.18,1.17
1001,-0.02,-1.20,0.02,-1.18,1.18,2.13,1.16,1.19,1.19
1011,-0.13,-1.33,-0.12,-1.33,1.33,2.17,1.20,1.21,1.21
1021,-0.21,-1.44,-0.26,-1.49,1.49,2.20,1.28,1.23,1.23
1031,-0.33,-1.58,-0.40,-1.64,1.64,2.23,1.32,1.25,1.26
1041,-0.53,-1.81,-0.53,-1.81,1.81,2.25,1.28,1.27,1.28
1052,-0.71,-2.02,-0.66,-1.97,1.97,2.26,1.26,1.30,1.31
1062,-0.80,-2.13,-0.80,-2.13,2.13,2.27,1.34,1.33,1.34
1073,-0.99,-2.35,-0.93,-2.30,2.30,2.28,1.31,1.36,1.37
1084,-1.15,-2.54,-1.07,-2.47,2.47,2.28,1.32,1.40,1.40
1094,-1.22,-2.64,-1.21,-2.64,2.64,2.28,1.42,1.43,1.43
1105,-1.32,-2.78,-1.35,-2.81,2.81,2.27,1.49,1.46,1.46
1116,-1.49,-2.98,-1.50,-2.99,2.99,2.26,1.50,1.49,1.49
1128,-1.62,-3.14,-1.64,-3.16,3.16,2.25,1.55,1.52,1.53
1139,-1.69,-3.25,-1.78,-3.34,3.34,2.23,1.65,1.56,1.56
1150,-1.88,-3.47,-1.92,-3.52,3.52,2.22,1.65,1.60,1.60
1162,-2.10,-3.73,-2.06,-3.70,3.70,2.20,1.61,1.64,1.63
1173,-2.24,-3.91,-2.21,-3.89,3.89,2.18,1.65,1.68,1.67
1185,-2.38,-4.08,-2.35,-4.07,4.07,2.15,1.69,1.72,1.71
1197,-2.55,-4.29,-2.50,-4.25,4.25,2.13,1.71,1.76,1.74
1209,-2.70,-4.48,-2.65,-4.43,4.43,2.10,1.73,1.78,1.78
1221,-2.77,-4.58,-2.80,-4.61,4.61,2.08,1.84,1.81,1.82
1233,-2.91,-4.76,-2.94,-4.78,4.78,2.05,1.87,1.84,1.85
1246,-3.11,-4.99,-3.08,-4.94,4.94,2.03,1.84,1.86,1.88
1258,-3.16,-5.06,-3.23,-5.10,5.10,2.01,1.95,1.87,1.91
1271,-3.37,-5.29,-3.36,-5.25,5.25,1.98,1.89,1.90,1.92
1283,-3.54,-5.47,-3.48,-5.40,5.40,1.96,1.87,1.92,1.94
1296,-3.60,-5.54,-3.62,-5.54,5.54,1.94,1.95,1.93,1.94
1309,-3.76,-5.70,-3.75,-5.68,5.68,1.91,1.92,1.93,1.94
1322,-3.96,-5.89,-3.88,-5.81,5.79,1.89,1.83,1.91,1.93
1335,-4.02,-5.94,-4.02,-5.94,5.87,1.88,1.86,1.86,1.92
1349,-4.16,-6.06,-4.17,-6.08,5.93,1.86,1.77,1.76,1.91
1362,-4.32,-6.20,-4.32,-6.21,5.97,1.84,1.65,1.65,1.89
1376,-4.40,-6.26,-4.47,-6.35,5.99,1.83,1.59,1.52,1.87
1390,-4.51,-6.35,-4.63,-6.49,6.00,1.81,1.49,1.37,1.85
1404,-4.76,-6.58,-4.78,-6.63,6.00,1.80,1.24,1.22,1.83
1418,-4.96,-6.77,-4.94,-6.77,6.00,1.79,1.04,1.06,1.81
1432,-5.06,-6.85,-5.11,-6.92,6.00,1.78,0.94,0.89,1.80
1446,-5.27,-7.05,-5.26,-7.06,6.00,1.77,0.73,0.74,1.79
1461,-5.55,-7.33,-5.41,-7.20,6.00,1.77,0.45,0.59,1.79
1475,-5.64,-7.42,-5.56,-7.34,6.00,1.76,0.36,0.44,1.79
1490,-5.70,-7.49,-5.69,-7.48,6.00,1.76,0.30,0.31,1.79
1505,-5.84,-7.63,-5.81,-7.61,6.00,1.76,0.16,0.19,1.80
1520,-5.88,-7.68,-5.93,-7.73,6.00,1.76,0.12,0.07,1.81
1535,-5.99,-7.80,-6.05,-7.85,6.00,1.76,0.01,-0.05,1.82
1550,-6.28,-8.11,-6.16,-7.95,6.00,1.76,-0.28,-0.16,1.83
1566,-6.20,-8.05,-6.26,-8.04,6.00,1.77,-0.20,-0.26,1.85
1582,-6.18,-8.05,-6.36,-8.11,6.00,1.77,-0.18,-0.36,1.87
1597,-6.24,-8.13,-6.43,-8.16,6.00,1.78,-0.24,-0.43,1.90
1613,-6.37,-8.30,-6.48,-8.19,6.00,1.78,-0.37,-0.48,1.93
1629,-6.42,-8.38,-6.50,-8.18,6.00,1.79,-0.42,-0.50,1.96
1646,-6.56,-8.56,-6.47,-8.15,6.00,1.80,-0.56,-0.47,2.00
1662,-6.51,-8.55,-6.40,-8.08,6.00,1.81,-0.51,-0.40,2.05
1679,-6.54,-8.63,-6.28,-7.96,6.00,1.82,-0.54,-0.28,2.10
1696,-6.32,-8.47,-6.08,-7.81,6.00,1.83,-0.32,-0.08,2.15
1713,-5.92,-8.13,-5.83,-7.62,6.00,1.84,0.08,0.17,2.22
1730,-5.64,-7.93,-5.54,-7.38,6.00,1.85,0.36,0.46,2.29
1747,-5.24,-7.61,-5.18,-7.10,6.00,1.86,0.76,0.82,2.38
1764,-4.75,-7.21,-4.74,-6.78,6.00,1.87,1.25,1.26,2.47
1782,-4.12,-6.68,-4.25,-6.41,5.90,1.88,1.79,1.65,2.56
1800,-3.58,-6.24,-3.74,-6.01,5.69,1.89,2.12,1.96,2.67
