frequency,raw,error,smoothed,error_smoothed,equalization,parametric_eq,equalized_raw,equalized_smoothed,target
20,-8.23,-9.87,-8.34,-9.99,6.00,5.11,-2.23,-2.34,1.65
21,-7.77,-9.42,-7.73,-9.38,6.00,5.51,-1.77,-1.73,1.65
22,-7.30,-8.95,-7.15,-8.80,6.00,5.83,-1.30,-1.15,1.65
23,-6.59,-8.24,-6.61,-8.25,6.00,6.06,-0.59,-0.61,1.65
24,-6.19,-7.84,-6.10,-7.74,6.00,6.19,-0.19,-0.10,1.65
25,-5.54,-7.19,-5.62,-7.27,6.00,6.20,0.46,0.38,1.65
26,-4.98,-6.63,-5.18,-6.83,6.00,6.11,1.02,0.82,1.65
27,-4.83,-6.48,-4.77,-6.42,5.92,5.95,1.09,1.15,1.65
28,-4.39,-6.04,-4.39,-6.03,5.76,5.72,1.37,1.38,1.65
29,-4.15,-5.80,-4.03,-5.67,5.53,5.46,1.38,1.50,1.65
30,-3.72,-5.37,-3.68,-5.33,5.26,5.17,1.54,1.58,1.65
31,-3.32,-4.97,-3.36,-5.00,4.98,4.87,1.66,1.63,1.65
32,-3.03,-4.68,-3.04,-4.69,4.69,4.58,1.66,1.65,1.65
33,-2.81,-4.46,-2.75,-4.39,4.39,4.30,1.58,1.65,1.65
34,-2.36,-4.01,-2.46,-4.11,4.11,4.02,1.75,1.65,1.65
35,-2.21,-3.86,-2.19,-3.84,3.84,3.77,1.63,1.65,1.65
36,-1.93,-3.58,-1.94,-3.58,3.58,3.52,1.65,1.65,1.65
37,-1.71,-3.35,-1.70,-3.34,3.34,3.29,1.64,1.64,1.64
38,-1.49,-3.13,-1.47,-3.11,3.11,3.08,1.63,1.64,1.64
39,-1.26,-2.91,-1.25,-2.90,2.90,2.88,1.63,1.64,1.64
40,-1.04,-2.68,-1.05,-2.69,2.69,2.70,1.65,1.64,1.64
41,-0.81,-2.46,-0.85,-2.49,2.49,2.52,1.68,1.64,1.64
42,-0.63,-2.27,-0.66,-2.30,2.30,2.36,1.67,1.64,1.64
43,-0.57,-2.21,-0.47,-2.11,2.11,2.21,1.54,1.64,1.64
44,-0.34,-1.98,-0.30,-1.93,1.93,2.07,1.59,1.64,1.64
45,-0.11,-1.75,-0.13,-1.77,1.77,1.94,1.66,1.64,1.64
46,0.12,-1.51,0.03,-1.61,1.61,1.82,1.73,1.64,1.64
47,0.12,-1.51,0.17,-1.47,1.47,1.70,1.59,1.63,1.63
48,0.35,-1.28,0.29,-1.34,1.34,1.59,1.69,1.63,1.63
49,0.36,-1.27,0.40,-1.23,1.23,1.49,1.58,1.63,1.63
50,0.59,-1.04,0.50,-1.13,1.13,1.39,1.71,1.63,1.63
51,0.59,-1.04,0.59,-1.03,1.03,1.30,1.62,1.62,1.62
52,0.59,-1.03,0.67,-0.95,0.95,1.21,1.53,1.62,1.62
53,0.81,-0.80,0.75,-0.87,0.87,1.13,1.68,1.62,1.62
54,0.81,-0.80,0.83,-0.78,0.78,1.05,1.59,1.61,1.61
55,0.81,-0.80,0.92,-0.69,0.69,0.97,1.50,1.61,1.61
56,1.04,-0.57,1.01,-0.60,0.60,0.90,1.63,1.60,1.60
57,1.04,-0.56,1.10,-0.50,0.50,0.83,1.53,1.60,1.60
58,1.28,-0.31,1.19,-0.40,0.40,0.77,1.68,1.59,1.59
59,1.26,-0.32,1.28,-0.31,0.31,0.70,1.57,1.58,1.58
60,1.26,-0.31,1.35,-0.22,0.22,0.64,1.49,1.58,1.58
61,1.49,-0.08,1.41,-0.15,0.15,0.58,1.65,1.57,1.57
62,1.49,-0.07,1.45,-0.11,0.11,0.53,1.60,1.56,1.56
63,1.49,-0.06,1.47,-0.08,0.08,0.47,1.57,1.55,1.55
64,1.49,-0.04,1.47,-0.07,0.07,0.42,1.57,1.54,1.54
65,1.50,-0.03,1.45,-0.08,0.08,0.37,1.58,1.53,1.53
66,1.50,-0.01,1.41,-0.11,0.11,0.31,1.61,1.51,1.51
67,1.27,-0.23,1.37,-0.13,0.13,0.27,1.41,1.50,1.50
68,1.27,-0.22,1.32,-0.16,0.16,0.22,1.43,1.49,1.49
69,1.26,-0.21,1.29,-0.18,0.18,0.17,1.44,1.47,1.47
70,1.25,-0.20,1.27,-0.19,0.19,0.13,1.44,1.45,1.45
71,1.24,-0.20,1.26,-0.18,0.18,0.08,1.41,1.44,1.44
72,1.22,-0.19,1.27,-0.15,0.15,0.04,1.37,1.42,1.42
73,1.21,-0.19,1.29,-0.11,0.11,-0.00,1.32,1.40,1.40
74,1.42,0.05,1.31,-0.06,0.06,-0.04,1.48,1.37,1.37
75,1.41,0.06,1.35,-0.00,0.00,-0.08,1.41,1.35,1.35
76,1.40,0.08,1.39,0.06,-0.06,-0.12,1.34,1.32,1.32
77,1.40,0.10,1.42,0.13,-0.13,-0.16,1.27,1.30,1.30
78,1.40,0.13,1.46,0.19,-0.19,-0.20,1.21,1.27,1.27
79,1.39,0.15,1.49,0.25,-0.25,-0.24,1.14,1.24,1.24
80,1.61,0.40,1.52,0.31,-0.31,-0.27,1.30,1.21,1.21
81,1.60,0.42,1.54,0.36,-0.36,-0.31,1.24,1.17,1.17
82,1.58,0.44,1.55,0.41,-0.41,-0.34,1.17,1.14,1.14
83,1.56,0.45,1.55,0.44,-0.44,-0.38,1.11,1.10,1.10
84,1.53,0.47,1.54,0.48,-0.48,-0.41,1.06,1.06,1.06
85,1.51,0.49,1.53,0.51,-0.51,-0.45,1.01,1.02,1.02
86,1.50,0.52,1.52,0.54,-0.54,-0.48,0.96,0.98,0.98
87,1.48,0.55,1.51,0.57,-0.57,-0.51,0.92,0.94,0.94
88,1.47,0.58,1.49,0.60,-0.60,-0.54,0.87,0.89,0.89
89,1.47,0.62,1.48,0.64,-0.64,-0.57,0.83,0.84,0.84
90,1.46,0.66,1.47,0.67,-0.67,-0.60,0.79,0.79,0.80
91,1.45,0.71,1.45,0.70,-0.70,-0.63,0.75,0.74,0.74
92,1.44,0.75,1.42,0.73,-0.73,-0.66,0.71,0.69,0.69
93,1.43,0.79,1.39,0.75,-0.75,-0.69,0.68,0.64,0.64
94,1.41,0.83,1.34,0.76,-0.76,-0.72,0.65,0.59,0.58
95,1.38,0.85,1.29,0.76,-0.76,-0.75,0.62,0.53,0.53
96,1.14,0.67,1.24,0.76,-0.76,-0.77,0.38,0.47,0.47
97,1.12,0.71,1.18,0.77,-0.77,-0.80,0.35,0.41,0.41
98,1.10,0.75,1.14,0.78,-0.78,-0.82,0.32,0.35,0.35
99,1.08,0.79,1.10,0.81,-0.81,-0.85,0.27,0.29,0.29
100,1.06,0.83,1.07,0.84,-0.84,-0.87,0.22,0.22,0.23
101,1.04,0.87,1.04,0.89,-0.89,-0.90,0.15,0.15,0.17
102,1.03,0.92,1.02,0.94,-0.94,-0.92,0.09,0.08,0.11
104,1.01,1.02,1.00,0.99,-0.99,-0.97,0.02,0.01,-0.01
105,0.98,1.06,0.97,1.03,-1.03,-0.99,-0.05,-0.06,-0.08
106,0.96,1.09,0.94,1.07,-1.07,-1.01,-0.11,-0.13,-0.14
107,0.93,1.13,0.89,1.09,-1.09,-1.03,-0.16,-0.20,-0.20
108,0.90,1.16,0.84,1.10,-1.10,-1.05,-0.20,-0.26,-0.26
109,0.87,1.19,0.78,1.10,-1.10,-1.07,-0.23,-0.32,-0.32
110,0.62,1.00,0.72,1.10,-1.10,-1.09,-0.48,-0.38,-0.38
111,0.60,1.04,0.67,1.11,-1.11,-1.10,-0.51,-0.44,-0.44
112,0.58,1.07,0.63,1.12,-1.12,-1.12,-0.54,-0.50,-0.49
113,0.57,1.12,0.59,1.15,-1.15,-1.14,-0.58,-0.56,-0.55
114,0.56,1.16,0.57,1.18,-1.18,-1.15,-0.62,-0.61,-0.60
115,0.55,1.21,0.55,1.22,-1.22,-1.17,-0.67,-0.67,-0.65
117,0.55,1.31,0.53,1.27,-1.27,-1.20,-0.72,-0.73,-0.76
118,0.55,1.36,0.51,1.31,-1.31,-1.21,-0.76,-0.79,-0.81
119,0.55,1.41,0.49,1.34,-1.34,-1.22,-0.79,-0.85,-0.85
120,0.55,1.45,0.47,1.37,-1.37,-1.24,-0.83,-0.91,-0.90
121,0.34,1.28,0.44,1.40,-1.40,-1.25,-1.06,-0.96,-0.94
123,0.34,1.37,0.40,1.42,-1.42,-1.27,-1.08,-1.01,-1.03
124,0.35,1.42,0.37,1.43,-1.43,-1.28,-1.08,-1.06,-1.07
125,0.36,1.46,0.33,1.44,-1.44,-1.29,-1.09,-1.11,-1.11
126,0.36,1.50,0.29,1.45,-1.45,-1.30,-1.09,-1.16,-1.14
128,0.25,1.47,0.25,1.46,-1.46,-1.31,-1.20,-1.20,-1.22
129,0.14,1.39,0.21,1.45,-1.45,-1.32,-1.31,-1.24,-1.25
130,0.14,1.42,0.16,1.45,-1.45,-1.33,-1.30,-1.28,-1.28
131,0.14,1.45,0.11,1.43,-1.43,-1.33,-1.29,-1.32,-1.31
133,0.14,1.52,0.04,1.41,-1.41,-1.34,-1.26,-1.36,-1.37
134,-0.03,1.36,-0.02,1.38,-1.38,-1.35,-1.41,-1.40,-1.40
135,-0.08,1.34,-0.09,1.35,-1.35,-1.35,-1.43,-1.44,-1.42
137,-0.16,1.32,-0.15,1.32,-1.32,-1.36,-1.48,-1.47,-1.48
138,-0.31,1.19,-0.22,1.29,-1.29,-1.36,-1.60,-1.51,-1.50
140,-0.32,1.23,-0.28,1.26,-1.26,-1.36,-1.58,-1.54,-1.55
141,-0.32,1.25,-0.33,1.24,-1.24,-1.36,-1.55,-1.57,-1.57
142,-0.32,1.27,-0.38,1.22,-1.22,-1.36,-1.54,-1.60,-1.59
144,-0.34,1.29,-0.43,1.20,-1.20,-1.36,-1.54,-1.63,-1.63
145,-0.52,1.13,-0.46,1.19,-1.19,-1.36,-1.72,-1.66,-1.65
147,-0.54,1.15,-0.50,1.19,-1.19,-1.36,-1.73,-1.69,-1.69
148,-0.54,1.16,-0.52,1.19,-1.19,-1.36,-1.74,-1.71,-1.71
150,-0.54,1.20,-0.54,1.20,-1.20,-1.36,-1.74,-1.74,-1.74
151,-0.55,1.21,-0.55,1.21,-1.21,-1.35,-1.76,-1.76,-1.76
153,-0.55,1.24,-0.56,1.23,-1.23,-1.35,-1.78,-1.78,-1.79
154,-0.55,1.25,-0.56,1.24,-1.24,-1.34,-1.80,-1.81,-1.80
156,-0.56,1.27,-0.56,1.26,-1.26,-1.33,-1.82,-1.83,-1.83
157,-0.56,1.28,-0.57,1.28,-1.28,-1.33,-1.84,-1.85,-1.84
159,-0.56,1.30,-0.57,1.30,-1.30,-1.32,-1.86,-1.87,-1.87
160,-0.57,1.31,-0.57,1.31,-1.31,-1.32,-1.88,-1.88,-1.88
162,-0.58,1.32,-0.58,1.32,-1.32,-1.31,-1.90,-1.90,-1.90
164,-0.58,1.33,-0.58,1.34,-1.34,-1.29,-1.92,-1.92,-1.92
165,-0.59,1.33,-0.58,1.35,-1.35,-1.29,-1.94,-1.93,-1.93
167,-0.60,1.34,-0.59,1.35,-1.35,-1.28,-1.96,-1.94,-1.94
169,-0.61,1.35,-0.60,1.35,-1.35,-1.26,-1.97,-1.95,-1.96
170,-0.62,1.35,-0.61,1.35,-1.35,-1.26,-1.97,-1.96,-1.96
172,-0.62,1.35,-0.63,1.34,-1.34,-1.24,-1.96,-1.97,-1.97
174,-0.62,1.36,-0.66,1.33,-1.33,-1.23,-1.95,-1.98,-1.98
175,-0.62,1.36,-0.68,1.30,-1.30,-1.22,-1.93,-1.99,-1.98
177,-0.63,1.36,-0.71,1.28,-1.28,-1.21,-1.90,-1.99,-1.99
179,-0.85,1.14,-0.75,1.25,-1.25,-1.19,-2.10,-1.99,-1.99
181,-0.85,1.15,-0.77,1.22,-1.22,-1.18,-2.07,-2.00,-2.00
183,-0.84,1.16,-0.80,1.20,-1.20,-1.16,-2.04,-2.00,-2.00
184,-0.83,1.16,-0.82,1.18,-1.18,-1.16,-2.01,-2.00,-2.00
186,-0.83,1.17,-0.84,1.16,-1.16,-1.14,-1.99,-2.00,-2.00
188,-0.82,1.18,-0.86,1.14,-1.14,-1.12,-1.95,-1.99,-1.99
190,-0.81,1.19,-0.88,1.11,-1.11,-1.11,-1.92,-1.99,-1.99
192,-0.87,1.12,-0.91,1.08,-1.08,-1.09,-1.96,-1.99,-1.99
194,-1.02,0.97,-0.95,1.04,-1.04,-1.08,-2.06,-1.99,-1.99
196,-1.02,0.97,-0.99,0.99,-0.99,-1.06,-2.01,-1.98,-1.98
198,-1.01,0.97,-1.05,0.93,-0.93,-1.05,-1.95,-1.98,-1.98
200,-1.02,0.95,-1.11,0.87,-0.87,-1.03,-1.89,-1.98,-1.98
202,-1.24,0.73,-1.18,0.80,-0.80,-1.02,-2.04,-1.97,-1.97
204,-1.25,0.72,-1.24,0.73,-0.73,-1.00,-1.97,-1.97,-1.97
206,-1.25,0.71,-1.31,0.65,-0.65,-0.99,-1.91,-1.97,-1.97
208,-1.39,0.58,-1.37,0.59,-0.59,-0.97,-1.97,-1.96,-1.96
210,-1.48,0.47,-1.43,0.53,-0.53,-0.96,-2.01,-1.96,-1.96
212,-1.49,0.47,-1.48,0.48,-0.48,-0.94,-1.96,-1.95,-1.95
214,-1.49,0.46,-1.51,0.44,-0.44,-0.93,-1.93,-1.95,-1.95
216,-1.49,0.46,-1.52,0.42,-0.42,-0.92,-1.92,-1.95,-1.95
218,-1.50,0.45,-1.51,0.43,-0.43,-0.90,-1.93,-1.94,-1.94
221,-1.50,0.43,-1.48,0.46,-0.46,-0.88,-1.96,-1.94,-1.94
223,-1.51,0.42,-1.42,0.52,-0.52,-0.87,-2.03,-1.93,-1.93
225,-1.37,0.56,-1.33,0.60,-0.60,-0.85,-1.97,-1.93,-1.93
227,-1.30,0.62,-1.22,0.70,-0.70,-0.84,-2.00,-1.92,-1.92
229,-1.14,0.77,-1.10,0.82,-0.82,-0.83,-1.96,-1.92,-1.92
232,-0.85,1.06,-0.97,0.94,-0.94,-0.81,-1.79,-1.91,-1.91
234,-0.81,1.10,-0.84,1.06,-1.06,-0.80,-1.87,-1.90,-1.90
236,-0.62,1.28,-0.71,1.18,-1.18,-0.78,-1.80,-1.89,-1.89
239,-0.61,1.27,-0.60,1.28,-1.28,-0.77,-1.89,-1.88,-1.89
241,-0.60,1.27,-0.51,1.36,-1.36,-0.75,-1.97,-1.88,-1.88
244,-0.37,1.50,-0.44,1.43,-1.43,-0.74,-1.79,-1.87,-1.87
246,-0.35,1.51,-0.38,1.48,-1.48,-0.73,-1.83,-1.86,-1.86
248,-0.33,1.51,-0.34,1.51,-1.51,-0.72,-1.84,-1.85,-1.85
251,-0.32,1.52,-0.31,1.53,-1.53,-0.70,-1.84,-1.84,-1.84
253,-0.30,1.52,-0.29,1.54,-1.54,-0.69,-1.84,-1.83,-1.83
256,-0.29,1.52,-0.28,1.54,-1.54,-0.67,-1.83,-1.81,-1.81
259,-0.29,1.52,-0.27,1.53,-1.53,-0.66,-1.82,-1.80,-1.80
261,-0.29,1.51,-0.28,1.52,-1.52,-0.65,-1.81,-1.79,-1.79
264,-0.29,1.49,-0.29,1.50,-1.50,-0.63,-1.79,-1.78,-1.78
266,-0.30,1.47,-0.30,1.47,-1.47,-0.62,-1.77,-1.77,-1.77
269,-0.31,1.45,-0.33,1.43,-1.43,-0.61,-1.74,-1.76,-1.76
272,-0.32,1.44,-0.36,1.39,-1.39,-0.60,-1.71,-1.75,-1.75
274,-0.32,1.42,-0.40,1.34,-1.34,-0.59,-1.66,-1.75,-1.74
277,-0.48,1.26,-0.44,1.29,-1.29,-0.58,-1.77,-1.74,-1.74
280,-0.56,1.17,-0.48,1.25,-1.25,-0.56,-1.80,-1.73,-1.73
283,-0.56,1.16,-0.51,1.20,-1.20,-0.55,-1.76,-1.72,-1.72
286,-0.56,1.15,-0.54,1.17,-1.17,-0.54,-1.73,-1.71,-1.71
288,-0.57,1.14,-0.56,1.15,-1.15,-0.53,-1.71,-1.70,-1.70
291,-0.57,1.12,-0.57,1.12,-1.12,-0.52,-1.70,-1.69,-1.69
294,-0.58,1.11,-0.58,1.11,-1.11,-0.51,-1.68,-1.69,-1.69
297,-0.58,1.10,-0.60,1.08,-1.08,-0.50,-1.67,-1.68,-1.68
300,-0.59,1.08,-0.62,1.06,-1.06,-0.49,-1.65,-1.67,-1.67
303,-0.60,1.07,-0.64,1.02,-1.02,-0.48,-1.62,-1.66,-1.66
306,-0.61,1.05,-0.68,0.98,-0.98,-0.47,-1.59,-1.66,-1.66
309,-0.69,0.96,-0.72,0.93,-0.93,-0.46,-1.61,-1.65,-1.65
312,-0.86,0.79,-0.77,0.88,-0.88,-0.45,-1.73,-1.64,-1.64
316,-0.87,0.77,-0.81,0.82,-0.82,-0.43,-1.69,-1.64,-1.64
319,-0.88,0.75,-0.85,0.78,-0.78,-0.42,-1.65,-1.63,-1.63
322,-0.89,0.73,-0.89,0.73,-0.73,-0.41,-1.63,-1.62,-1.62
325,-0.91,0.71,-0.92,0.70,-0.70,-0.41,-1.61,-1.62,-1.62
328,-0.93,0.68,-0.95,0.67,-0.67,-0.40,-1.60,-1.61,-1.61
332,-0.96,0.65,-0.97,0.64,-0.64,-0.39,-1.59,-1.61,-1.61
335,-0.98,0.62,-0.99,0.61,-0.61,-0.38,-1.59,-1.60,-1.60
338,-1.01,0.59,-1.01,0.59,-0.59,-0.37,-1.59,-1.60,-1.60
342,-1.03,0.56,-1.02,0.57,-0.57,-0.36,-1.59,-1.59,-1.59
345,-1.05,0.54,-1.04,0.54,-0.54,-0.35,-1.59,-1.59,-1.59
349,-1.06,0.52,-1.06,0.52,-0.52,-0.34,-1.59,-1.58,-1.58
352,-1.07,0.50,-1.07,0.51,-0.51,-0.33,-1.58,-1.58,-1.58
356,-1.09,0.49,-1.08,0.49,-0.49,-0.32,-1.58,-1.58,-1.58
359,-1.10,0.47,-1.09,0.48,-0.48,-0.32,-1.58,-1.57,-1.57
363,-1.11,0.46,-1.10,0.47,-0.47,-0.31,-1.58,-1.57,-1.57
366,-1.12,0.45,-1.11,0.46,-0.46,-0.30,-1.58,-1.57,-1.57
370,-1.13,0.43,-1.12,0.44,-0.44,-0.29,-1.57,-1.57,-1.57
374,-1.14,0.43,-1.14,0.42,-0.42,-0.28,-1.56,-1.56,-1.56
377,-1.14,0.42,-1.17,0.39,-0.39,-0.27,-1.53,-1.56,-1.56
381,-1.14,0.41,-1.20,0.35,-0.35,-0.27,-1.50,-1.56,-1.56
385,-1.15,0.40,-1.24,0.31,-0.31,-0.26,-1.46,-1.55,-1.55
389,-1.36,0.19,-1.29,0.26,-0.26,-0.25,-1.62,-1.55,-1.55
393,-1.39,0.15,-1.33,0.21,-0.21,-0.24,-1.60,-1.54,-1.54
397,-1.40,0.13,-1.37,0.16,-0.16,-0.23,-1.56,-1.53,-1.53
401,-1.41,0.11,-1.40,0.12,-0.12,-0.22,-1.53,-1.52,-1.52
405,-1.42,0.09,-1.43,0.08,-0.08,-0.22,-1.51,-1.51,-1.51
409,-1.43,0.06,-1.45,0.05,-0.05,-0.21,-1.48,-1.49,-1.50
413,-1.44,0.03,-1.46,0.02,-0.02,-0.20,-1.47,-1.48,-1.48
417,-1.45,0.01,-1.46,-0.00,0.00,-0.19,-1.45,-1.46,-1.46
421,-1.46,-0.02,-1.46,-0.02,0.02,-0.18,-1.43,-1.43,-1.44
425,-1.45,-0.04,-1.45,-0.04,0.04,-0.18,-1.41,-1.41,-1.41
430,-1.45,-0.06,-1.44,-0.06,0.06,-0.17,-1.39,-1.38,-1.38
434,-1.43,-0.08,-1.42,-0.07,0.07,-0.16,-1.36,-1.35,-1.35
438,-1.40,-0.09,-1.40,-0.08,0.08,-0.15,-1.32,-1.31,-1.32
443,-1.37,-0.09,-1.36,-0.09,0.09,-0.14,-1.28,-1.28,-1.28
447,-1.33,-0.09,-1.33,-0.09,0.09,-0.13,-1.24,-1.24,-1.24
451,-1.29,-0.09,-1.29,-0.09,0.09,-0.12,-1.20,-1.20,-1.20
456,-1.24,-0.08,-1.24,-0.08,0.08,-0.11,-1.16,-1.16,-1.16
460,-1.19,-0.07,-1.19,-0.07,0.07,-0.11,-1.12,-1.12,-1.12
465,-1.14,-0.07,-1.14,-0.07,0.07,-0.10,-1.08,-1.08,-1.08
470,-1.09,-0.06,-1.09,-0.06,0.06,-0.08,-1.03,-1.04,-1.03
474,-1.05,-0.05,-1.05,-0.05,0.05,-0.08,-0.99,-1.00,-1.00
479,-1.00,-0.04,-1.01,-0.05,0.05,-0.07,-0.96,-0.96,-0.96
484,-0.97,-0.04,-0.97,-0.04,0.04,-0.06,-0.92,-0.92,-0.92
489,-0.94,-0.04,-0.94,-0.04,0.04,-0.04,-0.89,-0.89,-0.89
494,-0.91,-0.05,-0.91,-0.05,0.05,-0.03,-0.86,-0.87,-0.86
499,-0.90,-0.06,-0.90,-0.05,0.05,-0.02,-0.84,-0.84,-0.84
504,-0.89,-0.07,-0.89,-0.07,0.07,-0.01,-0.82,-0.82,-0.82
509,-0.89,-0.08,-0.89,-0.08,0.08,0.00,-0.81,-0.81,-0.81
514,-0.89,-0.09,-0.90,-0.10,0.10,0.01,-0.79,-0.80,-0.80
519,-0.90,-0.11,-0.91,-0.12,0.12,0.03,-0.78,-0.79,-0.79
524,-0.92,-0.13,-0.93,-0.15,0.15,0.04,-0.77,-0.79,-0.79
529,-0.95,-0.16,-0.96,-0.17,0.17,0.05,-0.78,-0.79,-0.79
535,-0.99,-0.19,-0.99,-0.19,0.19,0.07,-0.80,-0.79,-0.79
540,-1.04,-0.24,-1.01,-0.21,0.21,0.08,-0.83,-0.80,-0.80
545,-1.10,-0.29,-1.04,-0.23,0.23,0.09,-0.87,-0.81,-0.81
551,-1.14,-0.32,-1.06,-0.24,0.24,0.11,-0.89,-0.82,-0.82
556,-1.00,-0.17,-1.09,-0.26,0.26,0.12,-0.74,-0.83,-0.83
562,-1.06,-0.22,-1.12,-0.28,0.28,0.14,-0.79,-0.84,-0.84
568,-1.13,-0.27,-1.15,-0.30,0.30,0.16,-0.83,-0.85,-0.85
573,-1.18,-0.32,-1.18,-0.32,0.32,0.18,-0.86,-0.86,-0.86
579,-1.23,-0.36,-1.22,-0.35,0.35,0.19,-0.88,-0.87,-0.87
585,-1.27,-0.40,-1.25,-0.38,0.38,0.21,-0.89,-0.87,-0.87
591,-1.30,-0.43,-1.28,-0.41,0.41,0.23,-0.89,-0.87,-0.87
596,-1.32,-0.45,-1.30,-0.44,0.44,0.25,-0.88,-0.87,-0.87
602,-1.33,-0.47,-1.32,-0.47,0.47,0.27,-0.87,-0.86,-0.86
608,-1.34,-0.49,-1.34,-0.49,0.49,0.29,-0.85,-0.85,-0.85
615,-1.34,-0.50,-1.34,-0.51,0.51,0.32,-0.83,-0.83,-0.83
621,-1.33,-0.52,-1.34,-0.53,0.53,0.34,-0.80,-0.81,-0.81
627,-1.32,-0.53,-1.33,-0.54,0.54,0.36,-0.78,-0.79,-0.79
633,-1.30,-0.54,-1.32,-0.55,0.55,0.38,-0.75,-0.76,-0.76
639,-1.28,-0.55,-1.29,-0.55,0.55,0.40,-0.73,-0.74,-0.74
646,-1.26,-0.55,-1.25,-0.55,0.55,0.42,-0.71,-0.71,-0.71
652,-1.23,-0.55,-1.21,-0.53,0.53,0.44,-0.69,-0.67,-0.67
659,-1.19,-0.55,-1.15,-0.51,0.51,0.47,-0.68,-0.64,-0.64
665,-1.15,-0.54,-1.08,-0.47,0.47,0.48,-0.68,-0.61,-0.60
672,-1.09,-0.52,-1.00,-0.43,0.43,0.50,-0.66,-0.57,-0.57
679,-0.83,-0.29,-0.93,-0.39,0.39,0.52,-0.44,-0.54,-0.54
686,-0.79,-0.28,-0.86,-0.36,0.36,0.54,-0.43,-0.50,-0.50
692,-0.75,-0.28,-0.81,-0.33,0.33,0.55,-0.42,-0.47,-0.47
699,-0.73,-0.29,-0.77,-0.33,0.33,0.57,-0.41,-0.44,-0.44
706,-0.72,-0.31,-0.75,-0.33,0.33,0.58,-0.39,-0.41,-0.41
713,-0.73,-0.34,-0.74,-0.35,0.35,0.59,-0.38,-0.39,-0.39
721,-0.75,-0.38,-0.74,-0.37,0.37,0.60,-0.37,-0.36,-0.36
728,-0.77,-0.43,-0.74,-0.40,0.40,0.60,-0.37,-0.34,-0.34
735,-0.80,-0.48,-0.74,-0.42,0.42,0.60,-0.38,-0.32,-0.32
742,-0.84,-0.54,-0.75,-0.44,0.44,0.60,-0.39,-0.30,-0.30
750,-0.71,-0.42,-0.75,-0.46,0.46,0.59,-0.25,-0.29,-0.28
757,-0.68,-0.41,-0.75,-0.48,0.48,0.59,-0.21,-0.27,-0.27
765,-0.71,-0.45,-0.75,-0.49,0.49,0.57,-0.22,-0.26,-0.26
773,-0.73,-0.48,-0.75,-0.50,0.50,0.56,-0.23,-0.25,-0.25
780,-0.74,-0.51,-0.75,-0.51,0.51,0.54,-0.23,-0.24,-0.24
788,-0.75,-0.52,-0.75,-0.52,0.52,0.53,-0.23,-0.23,-0.23
796,-0.75,-0.53,-0.74,-0.52,0.52,0.50,-0.23,-0.22,-0.22
804,-0.75,-0.54,-0.73,-0.52,0.52,0.48,-0.23,-0.21,-0.21
812,-0.75,-0.55,-0.71,-0.51,0.51,0.45,-0.24,-0.20,-0.20
820,-0.75,-0.55,-0.68,-0.48,0.48,0.43,-0.26,-0.20,-0.20
828,-0.70,-0.51,-0.64,-0.45,0.45,0.40,-0.25,-0.19,-0.19
837,-0.50,-0.32,-0.60,-0.42,0.42,0.37,-0.08,-0.18,-0.18
845,-0.49,-0.32,-0.56,-0.38,0.38,0.34,-0.11,-0.18,-0.18
853,-0.48,-0.31,-0.52,-0.35,0.35,0.30,-0.13,-0.17,-0.17
862,-0.47,-0.31,-0.48,-0.32,0.32,0.27,-0.15,-0.16,-0.16
871,-0.46,-0.31,-0.44,-0.28,0.28,0.24,-0.18,-0.15,-0.15
879,-0.45,-0.31,-0.40,-0.26,0.26,0.20,-0.20,-0.15,-0.15
888,-0.45,-0.31,-0.37,-0.23,0.23,0.17,-0.22,-0.14,-0.14
897,-0.35,-0.22,-0.34,-0.21,0.21,0.14,-0.15,-0.13,-0.13
906,-0.22,-0.10,-0.31,-0.18,0.18,0.10,-0.03,-0.12,-0.12
915,-0.22,-0.11,-0.28,-0.17,0.17,0.07,-0.05,-0.11,-0.11
924,-0.22,-0.12,-0.26,-0.15,0.15,0.04,-0.07,-0.10,-0.10
933,-0.23,-0.13,-0.23,-0.14,0.14,0.00,-0.08,-0.09,-0.09
943,-0.23,-0.15,-0.21,-0.13,0.13,-0.03,-0.10,-0.08,-0.08
952,-0.23,-0.16,-0.18,-0.12,0.12,-0.06,-0.11,-0.07,-0.07
962,-0.23,-0.18,-0.15,-0.10,0.10,-0.10,-0.13,-0.05,-0.05
971,-0.11,-0.07,-0.12,-0.08,0.08,-0.13,-0.03,-0.04,-0.04
981,-0.01,0.02,-0.07,-0.05,0.05,-0.16,0.04,-0.02,-0.02
991,-0.01,0.00,-0.02,-0.01,0.01,-0.19,0.00,-0.01,-0.01
1001,0.00,-0.01,0.05,0.03,-0.03,-0.23,-0.03,0.01,0.01
1011,0.06,0.03,0.11,0.08,-0.08,-0.26,-0.02,0.03,0.03
1021,0.25,0.20,0.18,0.12,-0.12,-0.29,0.13,0.06,0.05
1031,0.27,0.19,0.24,0.16,-0.16,-0.32,0.10,0.08,0.08
1041,0.28,0.18,0.31,0.20,-0.20,-0.35,0.08,0.10,0.10
1052,0.29,0.16,0.37,0.24,-0.24,-0.38,0.06,0.13,0.13
1062,0.51,0.35,0.42,0.26,-0.26,-0.41,0.25,0.16,0.16
1073,0.54,0.35,0.47,0.28,-0.28,-0.45,0.25,0.19,0.19
1084,0.55,0.32,0.52,0.30,-0.30,-0.48,0.24,0.22,0.22
1094,0.56,0.30,0.58,0.32,-0.32,-0.51,0.24,0.25,0.25
1105,0.57,0.28,0.63,0.34,-0.34,-0.54,0.23,0.29,0.29
1116,0.59,0.27,0.69,0.37,-0.37,-0.58,0.22,0.32,0.32
1128,0.80,0.45,0.75,0.40,-0.40,-0.61,0.41,0.36,0.36
1139,0.85,0.46,0.82,0.43,-0.43,-0.64,0.42,0.39,0.39
1150,0.87,0.44,0.89,0.47,-0.47,-0.68,0.40,0.42,0.42
1162,0.95,0.49,0.97,0.51,-0.51,-0.71,0.44,0.46,0.46
1173,1.11,0.63,1.04,0.55,-0.55,-0.75,0.56,0.49,0.49
1185,1.12,0.60,1.11,0.59,-0.59,-0.78,0.52,0.52,0.52
1197,1.12,0.57,1.18,0.63,-0.63,-0.82,0.48,0.55,0.55
1209,1.32,0.75,1.25,0.67,-0.67,-0.86,0.65,0.57,0.57
1221,1.35,0.75,1.31,0.71,-0.71,-0.90,0.64,0.60,0.60
1233,1.36,0.74,1.38,0.76,-0.76,-0.94,0.60,0.62,0.62
1246,1.37,0.73,1.44,0.81,-0.81,-0.98,0.56,0.64,0.64
1258,1.49,0.83,1.51,0.86,-0.86,-1.02,0.63,0.65,0.65
1271,1.62,0.95,1.59,0.92,-0.92,-1.06,0.70,0.67,0.67
1283,1.63,0.95,1.67,1.00,-1.00,-1.11,0.63,0.68,0.68
1296,1.84,1.16,1.76,1.07,-1.07,-1.15,0.77,0.68,0.68
1309,1.88,1.19,1.85,1.16,-1.16,-1.20,0.71,0.69,0.69
1322,1.89,1.20,1.94,1.26,-1.26,-1.25,0.63,0.69,0.69
1335,1.98,1.29,2.04,1.36,-1.36,-1.30,0.62,0.68,0.68
1349,2.14,1.46,2.14,1.46,-1.46,-1.35,0.68,0.68,0.68
1362,2.30,1.62,2.25,1.57,-1.57,-1.40,0.73,0.67,0.67
1376,2.39,1.72,2.35,1.69,-1.69,-1.46,0.70,0.67,0.67
1390,2.39,1.73,2.46,1.80,-1.80,-1.52,0.58,0.66,0.66
1404,2.61,1.96,2.57,1.92,-1.92,-1.58,0.69,0.65,0.65
1418,2.68,2.04,2.68,2.04,-2.04,-1.64,0.64,0.64,0.64
1432,2.84,2.20,2.80,2.16,-2.16,-1.70,0.67,0.63,0.63
1446,2.84,2.21,2.90,2.28,-2.28,-1.77,0.56,0.63,0.63
1461,3.01,2.39,3.01,2.39,-2.39,-1.84,0.62,0.62,0.62
1475,3.07,2.45,3.11,2.50,-2.50,-1.91,0.57,0.62,0.62
1490,3.29,2.68,3.21,2.59,-2.59,-1.98,0.70,0.62,0.61
1505,3.33,2.72,3.30,2.68,-2.68,-2.06,0.65,0.62,0.62
1520,3.52,2.90,3.39,2.77,-2.77,-2.14,0.75,0.62,0.62
1535,3.52,2.89,3.49,2.86,-2.86,-2.22,0.66,0.63,0.63
1550,3.52,2.87,3.60,2.95,-2.95,-2.31,0.57,0.65,0.65
1566,3.53,2.87,3.72,3.05,-3.05,-2.40,0.48,0.67,0.67
1582,3.76,3.07,3.85,3.16,-3.16,-2.50,0.60,0.69,0.69
1597,4.03,3.31,4.01,3.29,-3.29,-2.59,0.74,0.72,0.72
1613,4.28,3.52,4.18,3.42,-3.42,-2.69,0.85,0.76,0.75
1629,4.37,3.58,4.36,3.56,-3.56,-2.79,0.81,0.80,0.79
1646,4.54,3.70,4.54,3.70,-3.70,-2.91,0.84,0.84,0.84
1662,4.70,3.81,4.72,3.83,-3.83,-3.02,0.87,0.89,0.89
1679,4.98,4.03,4.90,3.95,-3.95,-3.14,1.03,0.95,0.95
1696,5.04,4.03,5.07,4.06,-4.06,-3.26,0.98,1.01,1.01
1713,5.28,4.20,5.24,4.16,-4.16,-3.38,1.12,1.08,1.08
1730,5.36,4.21,5.39,4.24,-4.24,-3.51,1.11,1.15,1.15
