frequency,raw,error,smoothed,error_smoothed,equalization,parametric_eq,equalized_raw,equalized_smoothed,target
20.00,8.78,8.97,8.78,8.97,-8.97,-4.47,-0.18,-0.19,-0.19
20.20,8.79,8.98,8.79,8.98,-8.98,-4.59,-0.19,-0.19,-0.19
20.40,8.80,9.00,8.81,9.00,-9.00,-4.71,-0.20,-0.19,-0.19
20.61,8.82,9.02,8.83,9.02,-9.02,-4.83,-0.20,-0.19,-0.19
20.81,8.84,9.04,8.84,9.04,-9.04,-4.96,-0.19,-0.19,-0.19
21.02,8.85,9.05,8.86,9.05,-9.05,-5.09,-0.20,-0.20,-0.19
21.23,8.87,9.07,8.87,9.07,-9.07,-5.23,-0.20,-0.20,-0.20
21.44,8.88,9.08,8.89,9.09,-9.09,-5.36,-0.20,-0.20,-0.20
21.66,8.90,9.10,8.91,9.10,-9.10,-5.51,-0.20,-0.20,-0.20
21.87,8.91,9.11,8.92,9.12,-9.12,-5.65,-0.21,-0.20,-0.20
22.09,8.94,9.14,8.94,9.14,-9.14,-5.80,-0.19,-0.20,-0.20
22.31,8.95,9.15,8.95,9.15,-9.15,-5.96,-0.20,-0.20,-0.20
22.54,8.96,9.17,8.97,9.17,-9.17,-6.12,-0.21,-0.20,-0.20
22.76,8.98,9.19,8.98,9.19,-9.19,-6.28,-0.20,-0.20,-0.20
22.99,8.99,9.20,9.00,9.20,-9.20,-6.44,-0.21,-0.20,-0.20
23.22,9.01,9.22,9.01,9.22,-9.22,-6.61,-0.21,-0.21,-0.21
23.45,9.03,9.24,9.03,9.24,-9.24,-6.79,-0.20,-0.21,-0.21
23.69,9.04,9.25,9.04,9.25,-9.25,-6.97,-0.21,-0.21,-0.21
23.92,9.06,9.27,9.06,9.27,-9.27,-7.15,-0.20,-0.21,-0.21
24.16,9.07,9.28,9.07,9.28,-9.28,-7.34,-0.21,-0.21,-0.21
24.40,9.08,9.30,9.09,9.30,-9.30,-7.53,-0.21,-0.21,-0.21
24.65,9.09,9.31,9.10,9.31,-9.31,-7.72,-0.22,-0.21,-0.21
24.89,9.11,9.33,9.11,9.33,-9.33,-7.92,-0.21,-0.21,-0.21
25.14,9.12,9.34,9.13,9.34,-9.34,-8.12,-0.22,-0.22,-0.22
25.39,9.13,9.35,9.14,9.36,-9.36,-8.32,-0.22,-0.22,-0.22
25.65,9.15,9.37,9.15,9.37,-9.37,-8.53,-0.22,-0.22,-0.22
25.91,9.16,9.38,9.16,9.38,-9.38,-8.74,-0.22,-0.22,-0.22
26.16,9.17,9.40,9.17,9.40,-9.40,-8.95,-0.22,-0.22,-0.22
26.43,9.18,9.41,9.19,9.41,-9.41,-9.16,-0.23,-0.22,-0.22
26.69,9.19,9.42,9.20,9.42,-9.42,-9.36,-0.23,-0.23,-0.23
26.96,9.20,9.43,9.21,9.43,-9.43,-9.57,-0.23,-0.23,-0.23
27.23,9.22,9.45,9.22,9.45,-9.45,-9.78,-0.22,-0.23,-0.23
27.50,9.22,9.46,9.23,9.46,-9.46,-9.98,-0.23,-0.23,-0.23
27.77,9.23,9.47,9.24,9.47,-9.47,-10.18,-0.24,-0.23,-0.23
28.05,9.24,9.48,9.24,9.48,-9.48,-10.38,-0.24,-0.24,-0.24
28.33,9.25,9.49,9.25,9.49,-9.49,-10.56,-0.24,-0.24,-0.24
28.62,9.26,9.50,9.26,9.50,-9.50,-10.74,-0.24,-0.24,-0.24
28.90,9.26,9.51,9.27,9.51,-9.51,-10.91,-0.25,-0.24,-0.24
29.19,9.26,9.51,9.27,9.52,-9.52,-11.06,-0.25,-0.24,-0.24
29.48,9.27,9.52,9.28,9.52,-9.52,-11.20,-0.25,-0.25,-0.25
29.78,9.28,9.53,9.28,9.53,-9.53,-11.33,-0.25,-0.25,-0.25
30.08,9.28,9.53,9.28,9.53,-9.53,-11.44,-0.25,-0.25,-0.25
30.38,9.28,9.54,9.28,9.54,-9.54,-11.54,-0.25,-0.25,-0.25
30.68,9.28,9.54,9.28,9.54,-9.54,-11.61,-0.25,-0.26,-0.26
30.99,9.29,9.55,9.28,9.54,-9.54,-11.67,-0.24,-0.26,-0.26
31.30,9.27,9.54,9.27,9.54,-9.54,-11.70,-0.26,-0.26,-0.26
31.61,9.27,9.54,9.27,9.53,-9.53,-11.72,-0.26,-0.27,-0.26
31.93,9.26,9.53,9.26,9.53,-9.53,-11.72,-0.26,-0.27,-0.27
32.24,9.24,9.51,9.25,9.52,-9.52,-11.70,-0.28,-0.27,-0.27
32.57,9.24,9.52,9.24,9.52,-9.52,-11.66,-0.27,-0.27,-0.27
32.89,9.22,9.50,9.23,9.51,-9.51,-11.61,-0.29,-0.28,-0.28
33.22,9.22,9.50,9.22,9.50,-9.50,-11.54,-0.28,-0.28,-0.28
33.55,9.20,9.49,9.21,9.49,-9.49,-11.45,-0.29,-0.28,-0.28
33.89,9.19,9.48,9.20,9.48,-9.48,-11.36,-0.29,-0.29,-0.29
34.23,9.18,9.47,9.18,9.48,-9.48,-11.26,-0.29,-0.29,-0.29
34.57,9.17,9.47,9.17,9.47,-9.47,-11.14,-0.29,-0.30,-0.29
34.92,9.15,9.45,9.16,9.46,-9.46,-11.02,-0.30,-0.30,-0.30
35.27,9.14,9.45,9.14,9.45,-9.45,-10.90,-0.30,-0.30,-0.30
35.62,9.13,9.44,9.13,9.44,-9.44,-10.77,-0.30,-0.31,-0.31
35.97,9.11,9.42,9.12,9.43,-9.43,-10.64,-0.31,-0.31,-0.31
36.33,9.10,9.42,9.10,9.41,-9.41,-10.51,-0.31,-0.31,-0.31
36.70,9.08,9.40,9.08,9.40,-9.40,-10.38,-0.32,-0.32,-0.32
37.06,9.07,9.40,9.07,9.39,-9.39,-10.25,-0.32,-0.32,-0.32
37.43,9.05,9.38,9.05,9.38,-9.38,-10.12,-0.32,-0.33,-0.33
37.81,9.03,9.37,9.03,9.36,-9.36,-9.99,-0.33,-0.33,-0.33
38.19,9.01,9.35,9.01,9.35,-9.35,-9.87,-0.34,-0.34,-0.34
38.57,8.99,9.33,9.00,9.34,-9.34,-9.75,-0.34,-0.34,-0.34
38.95,8.97,9.32,8.98,9.32,-9.32,-9.63,-0.35,-0.35,-0.35
39.34,8.95,9.31,8.96,9.31,-9.31,-9.52,-0.35,-0.35,-0.35
39.74,8.93,9.29,8.94,9.29,-9.29,-9.41,-0.36,-0.36,-0.36
40.14,8.91,9.28,8.92,9.28,-9.28,-9.31,-0.36,-0.36,-0.36
40.54,8.89,9.26,8.89,9.26,-9.26,-9.22,-0.37,-0.37,-0.37
40.94,8.87,9.25,8.87,9.25,-9.25,-9.13,-0.37,-0.37,-0.37
41.35,8.85,9.23,8.85,9.23,-9.23,-9.04,-0.38,-0.38,-0.38
41.76,8.83,9.22,8.83,9.22,-9.22,-8.96,-0.38,-0.39,-0.39
42.18,8.81,9.21,8.81,9.20,-9.20,-8.89,-0.39,-0.39,-0.39
42.60,8.78,9.18,8.79,9.19,-9.19,-8.82,-0.40,-0.40,-0.40
43.03,8.76,9.17,8.76,9.17,-9.17,-8.76,-0.41,-0.41,-0.41
43.46,8.73,9.15,8.74,9.16,-9.16,-8.71,-0.42,-0.41,-0.41
43.90,8.72,9.14,8.72,9.14,-9.14,-8.66,-0.42,-0.42,-0.42
44.33,8.69,9.12,8.70,9.12,-9.12,-8.62,-0.43,-0.43,-0.43
44.78,8.66,9.10,8.67,9.11,-9.11,-8.59,-0.44,-0.44,-0.44
45.23,8.64,9.09,8.65,9.09,-9.09,-8.56,-0.45,-0.44,-0.44
45.68,8.62,9.08,8.62,9.07,-9.07,-8.54,-0.45,-0.45,-0.45
46.13,8.60,9.06,8.60,9.06,-9.06,-8.52,-0.45,-0.46,-0.46
46.60,8.57,9.04,8.57,9.04,-9.04,-8.51,-0.47,-0.47,-0.47
47.06,8.55,9.03,8.54,9.02,-9.02,-8.50,-0.47,-0.48,-0.48
47.53,8.52,9.01,8.52,9.01,-9.01,-8.50,-0.48,-0.49,-0.49
48.01,8.49,8.99,8.49,8.99,-8.99,-8.51,-0.49,-0.50,-0.50
48.49,8.46,8.97,8.46,8.97,-8.97,-8.52,-0.51,-0.51,-0.51
48.97,8.43,8.95,8.44,8.95,-8.95,-8.54,-0.52,-0.52,-0.51
49.46,8.40,8.93,8.41,8.94,-8.94,-8.56,-0.53,-0.53,-0.52
49.96,8.37,8.91,8.38,8.92,-8.92,-8.58,-0.54,-0.54,-0.54
50.46,8.35,8.90,8.35,8.90,-8.90,-8.61,-0.55,-0.55,-0.55
50.96,8.32,8.88,8.33,8.88,-8.88,-8.65,-0.56,-0.56,-0.56
51.47,8.29,8.86,8.30,8.87,-8.87,-8.69,-0.57,-0.57,-0.57
51.99,8.27,8.85,8.27,8.85,-8.85,-8.73,-0.58,-0.58,-0.58
52.51,8.24,8.84,8.24,8.83,-8.83,-8.77,-0.59,-0.59,-0.59
53.03,8.21,8.82,8.21,8.82,-8.82,-8.82,-0.61,-0.60,-0.60
53.56,8.19,8.81,8.19,8.80,-8.80,-8.86,-0.61,-0.62,-0.62
54.10,8.16,8.79,8.16,8.79,-8.79,-8.91,-0.63,-0.63,-0.63
54.64,8.13,8.78,8.13,8.78,-8.78,-8.96,-0.64,-0.64,-0.64
55.18,8.10,8.76,8.11,8.76,-8.76,-9.01,-0.66,-0.66,-0.66
55.74,8.08,8.75,8.08,8.75,-8.75,-9.06,-0.67,-0.67,-0.67
56.29,8.04,8.73,8.05,8.74,-8.74,-9.10,-0.69,-0.68,-0.68
56.86,8.02,8.72,8.03,8.72,-8.72,-9.15,-0.70,-0.70,-0.70
57.42,8.00,8.72,8.00,8.71,-8.71,-9.19,-0.71,-0.71,-0.71
58.00,7.97,8.70,7.97,8.70,-8.70,-9.23,-0.73,-0.73,-0.73
58.58,7.94,8.69,7.95,8.69,-8.69,-9.26,-0.75,-0.74,-0.74
59.16,7.92,8.68,7.92,8.68,-8.68,-9.29,-0.76,-0.76,-0.76
59.76,7.89,8.67,7.90,8.67,-8.67,-9.32,-0.78,-0.78,-0.78
60.35,7.87,8.67,7.87,8.66,-8.66,-9.34,-0.79,-0.79,-0.79
60.96,7.84,8.65,7.85,8.66,-8.66,-9.35,-0.81,-0.81,-0.81
61.57,7.82,8.65,7.82,8.65,-8.65,-9.36,-0.83,-0.83,-0.83
62.18,7.80,8.65,7.80,8.65,-8.65,-9.37,-0.84,-0.85,-0.85
62.80,7.78,8.65,7.78,8.64,-8.64,-9.36,-0.86,-0.86,-0.86
63.43,7.75,8.64,7.75,8.64,-8.64,-9.35,-0.88,-0.88,-0.88
64.07,7.72,8.63,7.73,8.64,-8.64,-9.33,-0.91,-0.90,-0.90
64.71,7.71,8.64,7.71,8.64,-8.64,-9.31,-0.92,-0.92,-0.92
65.35,7.69,8.64,7.69,8.64,-8.64,-9.28,-0.94,-0.94,-0.94
66.01,7.67,8.64,7.67,8.64,-8.64,-9.25,-0.96,-0.96,-0.96
66.67,7.65,8.64,7.66,8.64,-8.64,-9.21,-0.99,-0.98,-0.98
67.33,7.64,8.65,7.64,8.65,-8.65,-9.16,-1.00,-1.01,-1.01
68.01,7.62,8.65,7.63,8.66,-8.66,-9.12,-1.03,-1.03,-1.03
68.69,7.61,8.66,7.61,8.66,-8.66,-9.07,-1.05,-1.05,-1.05
69.37,7.59,8.67,7.60,8.67,-8.67,-9.01,-1.08,-1.07,-1.07
70.07,7.59,8.69,7.59,8.69,-8.69,-8.96,-1.09,-1.10,-1.10
70.77,7.58,8.70,7.58,8.70,-8.70,-8.90,-1.12,-1.12,-1.12
71.48,7.57,8.72,7.57,8.72,-8.72,-8.84,-1.14,-1.14,-1.14
72.19,7.56,8.73,7.57,8.74,-8.74,-8.78,-1.17,-1.17,-1.17
72.91,7.56,8.76,7.56,8.76,-8.76,-8.73,-1.19,-1.19,-1.19
73.64,7.55,8.77,7.56,8.78,-8.78,-8.67,-1.22,-1.22,-1.22
74.38,7.55,8.80,7.55,8.80,-8.80,-8.62,-1.25,-1.25,-1.24
75.12,7.56,8.83,7.55,8.82,-8.82,-8.56,-1.26,-1.27,-1.27
75.87,7.55,8.85,7.55,8.85,-8.85,-8.52,-1.30,-1.30,-1.30
76.63,7.55,8.88,7.55,8.88,-8.88,-8.47,-1.33,-1.32,-1.32
77.40,7.55,8.90,7.56,8.91,-8.91,-8.43,-1.36,-1.35,-1.35
78.17,7.55,8.93,7.56,8.94,-8.94,-8.39,-1.39,-1.38,-1.38
78.95,7.56,8.97,7.56,8.97,-8.97,-8.35,-1.41,-1.41,-1.41
79.74,7.56,9.00,7.57,9.01,-9.01,-8.32,-1.44,-1.44,-1.44
80.54,7.57,9.04,7.58,9.04,-9.04,-8.30,-1.47,-1.46,-1.46
81.35,7.58,9.08,7.58,9.08,-9.08,-8.27,-1.49,-1.49,-1.49
82.16,7.59,9.12,7.59,9.11,-9.11,-8.26,-1.52,-1.52,-1.52
82.98,7.60,9.16,7.60,9.15,-9.15,-8.25,-1.55,-1.55,-1.55
83.81,7.61,9.20,7.61,9.19,-9.19,-8.24,-1.58,-1.58,-1.58
84.65,7.61,9.23,7.62,9.23,-9.23,-8.24,-1.62,-1.62,-1.61
85.50,7.62,9.27,7.62,9.27,-9.27,-8.25,-1.65,-1.65,-1.64
86.35,7.63,9.31,7.63,9.31,-9.31,-8.26,-1.68,-1.68,-1.68
87.22,7.63,9.34,7.64,9.35,-9.35,-8.28,-1.72,-1.71,-1.71
88.09,7.65,9.39,7.65,9.39,-9.39,-8.30,-1.74,-1.74,-1.74
88.97,7.66,9.43,7.66,9.43,-9.43,-8.33,-1.77,-1.77,-1.77
89.86,7.66,9.47,7.67,9.47,-9.47,-8.37,-1.81,-1.80,-1.80
90.76,7.67,9.51,7.68,9.51,-9.51,-8.41,-1.84,-1.84,-1.83
91.66,7.68,9.55,7.68,9.55,-9.55,-8.46,-1.87,-1.87,-1.87
92.58,7.68,9.58,7.69,9.59,-9.59,-8.51,-1.91,-1.90,-1.90
93.51,7.69,9.63,7.69,9.63,-9.63,-8.57,-1.93,-1.93,-1.93
94.44,7.70,9.67,7.70,9.66,-9.66,-8.64,-1.96,-1.97,-1.96
95.39,7.70,9.70,7.70,9.69,-9.69,-8.71,-1.99,-2.00,-2.00
96.34,7.69,9.72,7.69,9.72,-9.72,-8.79,-2.03,-2.03,-2.03
97.30,7.68,9.75,7.69,9.75,-9.75,-8.87,-2.07,-2.06,-2.06
98.28,7.68,9.78,7.68,9.78,-9.78,-8.95,-2.09,-2.10,-2.10
99.26,7.67,9.80,7.67,9.80,-9.80,-9.05,-2.12,-2.13,-2.13
100.25,7.65,9.82,7.65,9.81,-9.81,-9.14,-2.16,-2.16,-2.16
101.25,7.63,9.83,7.63,9.83,-9.83,-9.24,-2.19,-2.20,-2.20
102.27,7.61,9.84,7.61,9.84,-9.84,-9.35,-2.22,-2.23,-2.23
103.29,7.58,9.85,7.58,9.84,-9.84,-9.45,-2.26,-2.26,-2.26
104.32,7.55,9.85,7.55,9.85,-9.85,-9.56,-2.29,-2.30,-2.30
105.37,7.52,9.85,7.51,9.84,-9.84,-9.67,-2.32,-2.33,-2.33
106.42,7.47,9.83,7.48,9.84,-9.84,-9.79,-2.37,-2.36,-2.36
107.48,7.43,9.83,7.44,9.83,-9.83,-9.90,-2.40,-2.39,-2.39
108.56,7.39,9.82,7.39,9.82,-9.82,-10.01,-2.43,-2.43,-2.43
109.64,7.34,9.80,7.34,9.80,-9.80,-10.12,-2.46,-2.46,-2.46
110.74,7.29,9.78,7.30,9.79,-9.79,-10.23,-2.49,-2.49,-2.49
111.85,7.24,9.77,7.24,9.77,-9.77,-10.33,-2.52,-2.52,-2.52
112.97,7.18,9.74,7.19,9.75,-9.75,-10.43,-2.56,-2.56,-2.56
114.10,7.12,9.71,7.13,9.72,-9.72,-10.53,-2.60,-2.59,-2.59
115.24,7.07,9.69,7.08,9.69,-9.69,-10.61,-2.62,-2.62,-2.62
116.39,7.01,9.66,7.01,9.67,-9.67,-10.69,-2.65,-2.65,-2.65
117.55,6.95,9.63,6.95,9.63,-9.63,-10.75,-2.68,-2.68,-2.68
118.73,6.89,9.60,6.89,9.60,-9.60,-10.80,-2.71,-2.71,-2.71
119.92,6.82,9.57,6.82,9.57,-9.57,-10.85,-2.74,-2.74,-2.74
121.12,6.75,9.53,6.76,9.53,-9.53,-10.87,-2.77,-2.77,-2.77
122.33,6.69,9.49,6.69,9.49,-9.49,-10.88,-2.79,-2.80,-2.80
123.55,6.61,9.44,6.61,9.44,-9.44,-10.88,-2.83,-2.83,-2.83
124.79,6.54,9.40,6.54,9.40,-9.40,-10.86,-2.85,-2.86,-2.86
126.03,6.46,9.35,6.46,9.35,-9.35,-10.82,-2.89,-2.89,-2.89
127.29,6.39,9.31,6.39,9.30,-9.30,-10.77,-2.91,-2.92,-2.92
128.57,6.30,9.25,6.31,9.25,-9.25,-10.70,-2.95,-2.95,-2.94
129.85,6.23,9.21,6.22,9.20,-9.20,-10.61,-2.96,-2.97,-2.97
131.15,6.14,9.14,6.14,9.14,-9.14,-10.51,-3.00,-3.00,-3.00
132.46,6.06,9.09,6.06,9.09,-9.09,-10.40,-3.03,-3.03,-3.03
133.79,5.97,9.03,5.98,9.03,-9.03,-10.27,-3.06,-3.05,-3.05
135.12,5.88,8.96,5.90,8.98,-8.98,-10.13,-3.09,-3.08,-3.08
136.48,5.80,8.91,5.81,8.92,-8.92,-9.99,-3.12,-3.11,-3.10
137.84,5.72,8.85,5.73,8.86,-8.86,-9.83,-3.14,-3.13,-3.13
139.22,5.64,8.80,5.65,8.80,-8.80,-9.67,-3.16,-3.16,-3.15
140.61,5.56,8.74,5.57,8.75,-8.75,-9.50,-3.18,-3.18,-3.18
142.02,5.48,8.68,5.49,8.69,-8.69,-9.32,-3.20,-3.20,-3.20
143.44,5.40,8.63,5.40,8.63,-8.63,-9.14,-3.23,-3.23,-3.22
144.87,5.32,8.57,5.32,8.57,-8.57,-8.96,-3.25,-3.25,-3.25
146.32,5.24,8.51,5.24,8.51,-8.51,-8.78,-3.27,-3.27,-3.27
147.78,5.16,8.46,5.16,8.45,-8.45,-8.59,-3.29,-3.29,-3.29
149.26,5.08,8.40,5.08,8.39,-8.39,-8.41,-3.31,-3.31,-3.31
150.75,4.99,8.33,5.00,8.33,-8.33,-8.22,-3.34,-3.33,-3.33
152.26,4.91,8.27,4.91,8.27,-8.27,-8.04,-3.35,-3.35,-3.36
153.78,4.83,8.21,4.83,8.20,-8.20,-7.86,-3.37,-3.37,-3.38
155.32,4.74,8.14,4.74,8.14,-8.14,-7.68,-3.39,-3.39,-3.40
156.88,4.65,8.07,4.65,8.07,-8.07,-7.51,-3.42,-3.41,-3.42
158.44,4.56,8.00,4.57,8.00,-8.00,-7.33,-3.44,-3.43,-3.43
160.03,4.48,7.94,4.48,7.93,-7.93,-7.16,-3.44,-3.45,-3.45
161.63,4.38,7.86,4.38,7.86,-7.86,-7.00,-3.47,-3.47,-3.47
163.24,4.29,7.78,4.29,7.78,-7.78,-6.83,-3.49,-3.49,-3.49
164.88,4.20,7.71,4.20,7.71,-7.71,-6.67,-3.50,-3.51,-3.51
166.53,4.10,7.63,4.11,7.63,-7.63,-6.52,-3.53,-3.53,-3.52
168.19,4.01,7.55,4.01,7.55,-7.55,-6.37,-3.54,-3.54,-3.54
169.87,3.91,7.47,3.92,7.48,-7.48,-6.22,-3.56,-3.56,-3.56
171.57,3.81,7.39,3.82,7.40,-7.40,-6.08,-3.59,-3.58,-3.57
173.29,3.71,7.30,3.73,7.32,-7.32,-5.94,-3.61,-3.59,-3.59
175.02,3.62,7.23,3.63,7.24,-7.24,-5.80,-3.62,-3.61,-3.60
176.77,3.53,7.15,3.54,7.16,-7.16,-5.67,-3.62,-3.62,-3.62
178.54,3.43,7.07,3.44,7.08,-7.08,-5.55,-3.64,-3.64,-3.63
180.32,3.34,6.99,3.34,6.99,-6.99,-5.42,-3.65,-3.65,-3.65
182.13,3.24,6.90,3.24,6.90,-6.90,-5.30,-3.66,-3.66,-3.66
183.95,3.13,6.81,3.14,6.81,-6.81,-5.19,-3.68,-3.67,-3.67
185.79,3.04,6.73,3.04,6.72,-6.72,-5.08,-3.68,-3.69,-3.69
187.65,2.94,6.64,2.93,6.63,-6.63,-4.97,-3.68,-3.70,-3.70
189.52,2.82,6.53,2.82,6.53,-6.53,-4.87,-3.70,-3.71,-3.71
191.42,2.71,6.44,2.70,6.43,-6.43,-4.77,-3.71,-3.72,-3.72
193.33,2.59,6.33,2.59,6.32,-6.32,-4.67,-3.73,-3.73,-3.73
195.27,2.47,6.22,2.46,6.21,-6.21,-4.57,-3.74,-3.75,-3.75
197.22,2.34,6.10,2.34,6.10,-6.10,-4.48,-3.76,-3.76,-3.76
199.19,2.21,5.98,2.21,5.98,-5.98,-4.40,-3.77,-3.77,-3.77
201.18,2.08,5.86,2.08,5.87,-5.87,-4.31,-3.78,-3.78,-3.78
203.19,1.94,5.73,1.95,5.75,-5.75,-4.23,-3.80,-3.79,-3.79
205.23,1.81,5.61,1.82,5.62,-5.62,-4.15,-3.81,-3.80,-3.80
207.28,1.68,5.49,1.69,5.50,-5.50,-4.08,-3.81,-3.81,-3.81
209.35,1.54,5.36,1.55,5.37,-5.37,-4.00,-3.83,-3.82,-3.82
211.44,1.41,5.24,1.42,5.25,-5.25,-3.93,-3.83,-3.83,-3.83
213.56,1.28,5.12,1.28,5.12,-5.12,-3.86,-3.83,-3.84,-3.84
215.69,1.14,4.99,1.14,4.99,-4.99,-3.79,-3.85,-3.85,-3.84
217.85,1.00,4.86,1.01,4.86,-4.86,-3.73,-3.86,-3.86,-3.85
220.03,0.87,4.74,0.87,4.73,-4.73,-3.67,-3.86,-3.86,-3.86
222.23,0.73,4.60,0.73,4.60,-4.60,-3.60,-3.87,-3.87,-3.87
224.45,0.59,4.47,0.59,4.47,-4.47,-3.54,-3.88,-3.88,-3.88
226.70,0.45,4.34,0.46,4.34,-4.34,-3.49,-3.89,-3.88,-3.88
228.96,0.32,4.22,0.32,4.21,-4.21,-3.43,-3.88,-3.89,-3.89
231.25,0.17,4.07,0.18,4.07,-4.07,-3.37,-3.90,-3.90,-3.90
233.57,0.03,3.94,0.04,3.94,-3.94,-3.32,-3.91,-3.91,-3.91
235.90,-0.11,3.81,-0.11,3.81,-3.81,-3.26,-3.91,-3.91,-3.91
238.26,-0.25,3.67,-0.25,3.67,-3.67,-3.21,-3.92,-3.92,-3.92
240.64,-0.39,3.54,-0.39,3.54,-3.54,-3.16,-3.92,-3.93,-3.93
243.05,-0.53,3.41,-0.53,3.40,-3.40,-3.11,-3.93,-3.93,-3.93
245.48,-0.68,3.26,-0.67,3.26,-3.26,-3.05,-3.94,-3.94,-3.94
247.93,-0.82,3.13,-0.81,3.13,-3.13,-3.00,-3.94,-3.94,-3.94
250.41,-0.96,2.99,-0.96,2.99,-2.99,-2.95,-3.95,-3.95,-3.95
252.92,-1.10,2.86,-1.10,2.86,-2.86,-2.90,-3.95,-3.95,-3.95
255.45,-1.25,2.71,-1.24,2.72,-2.72,-2.85,-3.96,-3.96,-3.96
258.00,-1.38,2.59,-1.38,2.58,-2.58,-2.80,-3.96,-3.96,-3.97
260.58,-1.52,2.45,-1.52,2.45,-2.45,-2.75,-3.96,-3.97,-3.97
263.19,-1.67,2.31,-1.66,2.31,-2.31,-2.70,-3.98,-3.98,-3.98
265.82,-1.80,2.18,-1.80,2.18,-2.18,-2.66,-3.97,-3.98,-3.98
268.48,-1.94,2.05,-1.94,2.05,-2.05,-2.61,-3.98,-3.99,-3.98
271.16,-2.07,1.92,-2.08,1.91,-1.91,-2.56,-3.98,-3.99,-3.99
273.87,-2.22,1.78,-2.21,1.78,-1.78,-2.51,-4.00,-3.99,-3.99
276.61,-2.35,1.65,-2.34,1.66,-1.66,-2.46,-4.00,-4.00,-4.00
279.38,-2.47,1.54,-2.47,1.53,-1.53,-2.42,-4.00,-4.00,-4.00
282.17,-2.60,1.41,-2.60,1.41,-1.41,-2.37,-4.01,-4.01,-4.01
284.99,-2.73,1.28,-2.72,1.29,-1.29,-2.32,-4.02,-4.01,-4.01
287.84,-2.84,1.18,-2.84,1.18,-1.18,-2.28,-4.01,-4.01,-4.01
290.72,-2.95,1.07,-2.95,1.07,-1.07,-2.23,-4.01,-4.02,-4.02
293.63,-3.06,0.96,-3.06,0.96,-0.96,-2.19,-4.02,-4.02,-4.02
296.57,-3.17,0.86,-3.17,0.86,-0.86,-2.15,-4.02,-4.02,-4.02
299.53,-3.27,0.76,-3.27,0.76,-0.76,-2.10,-4.03,-4.03,-4.03
302.53,-3.37,0.66,-3.36,0.67,-0.67,-2.06,-4.04,-4.03,-4.03
305.55,-3.46,0.58,-3.45,0.59,-0.59,-2.02,-4.04,-4.04,-4.03
308.61,-3.54,0.50,-3.53,0.51,-0.51,-1.98,-4.04,-4.04,-4.04
311.69,-3.61,0.43,-3.61,0.44,-0.44,-1.94,-4.04,-4.04,-4.04
314.81,-3.68,0.37,-3.68,0.37,-0.37,-1.90,-4.05,-4.05,-4.04
317.96,-3.75,0.30,-3.74,0.32,-0.32,-1.86,-4.06,-4.05,-4.05
321.14,-3.80,0.25,-3.79,0.27,-0.27,-1.83,-4.06,-4.06,-4.05
324.35,-3.85,0.21,-3.84,0.22,-0.22,-1.79,-4.07,-4.06,-4.05
327.59,-3.89,0.17,-3.87,0.19,-0.19,-1.76,-4.07,-4.06,-4.05
330.87,-3.92,0.14,-3.90,0.16,-0.16,-1.72,-4.07,-4.06,-4.06
334.18,-3.95,0.11,-3.93,0.13,-0.13,-1.69,-4.08,-4.06,-4.06
337.52,-3.95,0.12,-3.95,0.11,-0.11,-1.66,-4.06,-4.06,-4.06
340.90,-3.97,0.10,-3.97,0.10,-0.10,-1.63,-4.07,-4.07,-4.06
344.30,-3.98,0.09,-3.98,0.09,-0.09,-1.60,-4.07,-4.07,-4.07
347.75,-3.98,0.09,-3.99,0.08,-0.08,-1.57,-4.06,-4.07,-4.07
351.23,-3.96,0.11,-3.99,0.08,-0.08,-1.54,-4.04,-4.07,-4.07
354.74,-3.96,0.12,-3.99,0.09,-0.09,-1.51,-4.04,-4.07,-4.07
358.28,-3.98,0.10,-3.99,0.09,-0.09,-1.49,-4.07,-4.08,-4.07
361.87,-3.98,0.10,-3.98,0.10,-0.10,-1.46,-4.08,-4.08,-4.08
365.49,-3.98,0.10,-3.97,0.11,-0.11,-1.44,-4.09,-4.08,-4.08
369.14,-3.97,0.11,-3.95,0.13,-0.13,-1.41,-4.10,-4.08,-4.08
372.83,-3.96,0.13,-3.94,0.15,-0.15,-1.39,-4.11,-4.09,-4.08
376.56,-3.93,0.16,-3.91,0.17,-0.17,-1.37,-4.10,-4.09,-4.08
380.33,-3.91,0.18,-3.89,0.20,-0.20,-1.35,-4.11,-4.09,-4.09
384.13,-3.86,0.23,-3.86,0.24,-0.24,-1.33,-4.09,-4.09,-4.09
387.97,-3.83,0.26,-3.82,0.27,-0.27,-1.31,-4.10,-4.09,-4.09
391.85,-3.79,0.30,-3.78,0.31,-0.31,-1.29,-4.10,-4.10,-4.09
395.77,-3.74,0.36,-3.74,0.36,-0.36,-1.27,-4.10,-4.10,-4.09
399.73,-3.68,0.42,-3.69,0.41,-0.41,-1.26,-4.08,-4.10,-4.09
403.72,-3.64,0.46,-3.64,0.46,-0.46,-1.24,-4.10,-4.10,-4.09
407.76,-3.59,0.51,-3.58,0.52,-0.52,-1.23,-4.10,-4.10,-4.10
411.84,-3.53,0.57,-3.53,0.57,-0.57,-1.21,-4.10,-4.10,-4.10
415.96,-3.47,0.63,-3.47,0.63,-0.63,-1.20,-4.10,-4.10,-4.10
420.12,-3.41,0.70,-3.41,0.69,-0.69,-1.19,-4.10,-4.10,-4.10
424.32,-3.36,0.75,-3.35,0.75,-0.75,-1.18,-4.11,-4.10,-4.10
428.56,-3.30,0.81,-3.29,0.81,-0.81,-1.16,-4.11,-4.11,-4.11
432.85,-3.24,0.87,-3.23,0.87,-0.87,-1.15,-4.11,-4.11,-4.11
437.18,-3.18,0.93,-3.17,0.93,-0.93,-1.14,-4.11,-4.11,-4.11
441.55,-3.11,1.00,-3.11,0.99,-0.99,-1.13,-4.10,-4.11,-4.11
445.96,-3.06,1.05,-3.06,1.05,-1.05,-1.13,-4.10,-4.10,-4.10
450.42,-2.99,1.12,-3.00,1.10,-1.10,-1.12,-4.09,-4.10,-4.10
454.93,-2.94,1.16,-2.94,1.16,-1.16,-1.11,-4.09,-4.09,-4.10
459.48,-2.88,1.21,-2.88,1.21,-1.21,-1.10,-4.09,-4.09,-4.09
464.07,-2.82,1.27,-2.82,1.26,-1.26,-1.10,-4.08,-4.08,-4.08
468.71,-2.77,1.31,-2.77,1.31,-1.31,-1.09,-4.08,-4.08,-4.08
473.40,-2.72,1.35,-2.71,1.35,-1.35,-1.09,-4.07,-4.07,-4.07
478.13,-2.66,1.40,-2.66,1.40,-1.40,-1.09,-4.05,-4.06,-4.06
482.91,-2.61,1.44,-2.61,1.44,-1.44,-1.08,-4.05,-4.05,-4.05
487.74,-2.56,1.48,-2.55,1.48,-1.48,-1.08,-4.04,-4.03,-4.03
492.62,-2.50,1.52,-2.50,1.52,-1.52,-1.08,-4.01,-4.02,-4.02
497.55,-2.45,1.56,-2.45,1.56,-1.56,-1.08,-4.00,-4.01,-4.01
502.52,-2.41,1.58,-2.40,1.59,-1.59,-1.07,-4.00,-3.99,-3.99
507.55,-2.36,1.62,-2.35,1.62,-1.62,-1.07,-3.98,-3.98,-3.97
512.62,-2.31,1.65,-2.31,1.66,-1.66,-1.07,-3.96,-3.96,-3.96
517.75,-2.26,1.69,-2.26,1.69,-1.69,-1.08,-3.94,-3.95,-3.94
522.93,-2.22,1.71,-2.21,1.72,-1.72,-1.08,-3.93,-3.93,-3.92
528.16,-2.17,1.74,-2.16,1.75,-1.75,-1.08,-3.91,-3.91,-3.91
533.44,-2.12,1.77,-2.11,1.77,-1.77,-1.08,-3.89,-3.89,-3.89
538.77,-2.07,1.80,-2.07,1.80,-1.80,-1.09,-3.87,-3.87,-3.87
544.16,-2.02,1.83,-2.02,1.83,-1.83,-1.09,-3.84,-3.84,-3.85
549.60,-1.98,1.85,-1.97,1.85,-1.85,-1.10,-3.83,-3.82,-3.82
555.10,-1.93,1.87,-1.92,1.87,-1.87,-1.10,-3.80,-3.80,-3.80
560.65,-1.88,1.89,-1.88,1.89,-1.89,-1.11,-3.77,-3.77,-3.77
566.25,-1.83,1.92,-1.83,1.91,-1.91,-1.12,-3.74,-3.74,-3.74
571.92,-1.78,1.94,-1.78,1.93,-1.93,-1.12,-3.71,-3.72,-3.71
577.64,-1.74,1.95,-1.74,1.95,-1.95,-1.13,-3.68,-3.69,-3.69
583.41,-1.70,1.96,-1.70,1.96,-1.96,-1.14,-3.66,-3.66,-3.66
589.25,-1.65,1.98,-1.65,1.98,-1.98,-1.15,-3.62,-3.63,-3.63
595.14,-1.61,1.99,-1.61,1.99,-1.99,-1.16,-3.59,-3.60,-3.60
601.09,-1.58,1.99,-1.57,2.00,-2.00,-1.18,-3.57,-3.57,-3.57
607.10,-1.54,2.00,-1.53,2.00,-2.00,-1.19,-3.54,-3.54,-3.54
613.17,-1.50,2.01,-1.50,2.01,-2.01,-1.20,-3.51,-3.51,-3.51
619.30,-1.46,2.02,-1.46,2.02,-2.02,-1.22,-3.47,-3.47,-3.47
625.50,-1.42,2.03,-1.42,2.02,-2.02,-1.24,-3.44,-3.44,-3.44
