frequency,raw,error,smoothed,error_smoothed,equalization,parametric_eq,fixed_band_eq,equalized_raw,equalized_smoothed,target
20.00,0.09,-2.95,0.08,-2.96,2.97,3.04,0.57,3.06,3.05,3.04
20.20,0.12,-2.95,0.12,-2.95,2.95,2.99,0.59,3.06,3.07,3.07
20.40,0.16,-2.94,0.17,-2.93,2.92,2.94,0.61,3.08,3.09,3.10
20.61,0.23,-2.89,0.22,-2.90,2.89,2.89,0.63,3.12,3.11,3.12
20.81,0.29,-2.86,0.29,-2.86,2.86,2.84,0.65,3.14,3.14,3.15
21.02,0.35,-2.83,0.35,-2.82,2.82,2.80,0.67,3.17,3.17,3.18
21.23,0.41,-2.78,0.41,-2.78,2.78,2.75,0.69,3.19,3.19,3.19
21.44,0.47,-2.73,0.47,-2.73,2.74,2.70,0.71,3.21,3.20,3.20
21.66,0.52,-2.69,0.52,-2.69,2.69,2.65,0.73,3.21,3.21,3.20
21.87,0.57,-2.64,0.57,-2.64,2.64,2.60,0.76,3.21,3.20,3.20
22.09,0.61,-2.61,0.62,-2.59,2.59,2.55,0.78,3.19,3.20,3.21
22.31,0.68,-2.53,0.68,-2.54,2.53,2.50,0.81,3.21,3.21,3.21
22.54,0.74,-2.48,0.74,-2.48,2.48,2.45,0.83,3.22,3.21,3.21
22.76,0.80,-2.41,0.79,-2.42,2.42,2.40,0.86,3.22,3.22,3.21
22.99,0.84,-2.36,0.84,-2.36,2.37,2.35,0.89,3.21,3.21,3.20
23.22,0.89,-2.31,0.89,-2.31,2.31,2.30,0.91,3.20,3.20,3.20
23.45,0.94,-2.26,0.94,-2.26,2.25,2.25,0.94,3.19,3.19,3.20
23.69,1.00,-2.20,1.00,-2.20,2.20,2.20,0.97,3.20,3.20,3.20
23.92,1.06,-2.14,1.06,-2.14,2.14,2.15,1.00,3.20,3.20,3.20
24.16,1.12,-2.09,1.12,-2.09,2.09,2.10,1.03,3.21,3.20,3.21
24.40,1.17,-2.04,1.17,-2.03,2.04,2.05,1.06,3.20,3.20,3.21
24.65,1.22,-1.98,1.22,-1.98,1.98,2.00,1.09,3.20,3.20,3.20
24.89,1.27,-1.93,1.27,-1.93,1.93,1.95,1.12,3.20,3.20,3.19
25.14,1.32,-1.88,1.32,-1.88,1.88,1.90,1.15,3.20,3.19,3.19
25.39,1.36,-1.83,1.36,-1.83,1.83,1.85,1.18,3.19,3.19,3.19
25.65,1.41,-1.78,1.41,-1.78,1.78,1.80,1.21,3.19,3.19,3.19
25.91,1.46,-1.72,1.45,-1.73,1.73,1.75,1.24,3.19,3.18,3.18
26.16,1.50,-1.68,1.50,-1.68,1.68,1.70,1.27,3.18,3.18,3.18
26.43,1.54,-1.64,1.55,-1.63,1.63,1.65,1.30,3.17,3.18,3.18
26.69,1.60,-1.58,1.59,-1.59,1.59,1.60,1.32,3.18,3.18,3.18
26.96,1.64,-1.54,1.64,-1.54,1.54,1.55,1.35,3.17,3.17,3.18
27.23,1.68,-1.50,1.69,-1.49,1.49,1.50,1.38,3.16,3.17,3.17
27.50,1.74,-1.44,1.73,-1.44,1.44,1.45,1.40,3.17,3.16,3.17
27.77,1.78,-1.38,1.78,-1.39,1.39,1.40,1.42,3.16,3.16,3.16
28.05,1.82,-1.34,1.83,-1.33,1.33,1.35,1.44,3.15,3.16,3.16
28.33,1.88,-1.27,1.87,-1.28,1.28,1.31,1.46,3.16,3.15,3.15
28.62,1.92,-1.23,1.92,-1.23,1.23,1.26,1.48,3.15,3.15,3.15
28.90,1.96,-1.19,1.96,-1.18,1.18,1.21,1.49,3.14,3.14,3.15
29.19,2.01,-1.13,2.00,-1.14,1.13,1.16,1.51,3.14,3.14,3.13
29.48,2.05,-1.09,2.05,-1.09,1.09,1.11,1.51,3.13,3.14,3.14
29.78,2.10,-1.03,2.09,-1.04,1.04,1.06,1.52,3.14,3.13,3.13
30.08,2.14,-0.99,2.13,-0.99,0.99,1.02,1.52,3.13,3.13,3.13
30.38,2.17,-0.95,2.17,-0.95,0.94,0.97,1.52,3.11,3.12,3.12
30.68,2.22,-0.90,2.21,-0.90,0.90,0.92,1.52,3.11,3.11,3.11
30.99,2.25,-0.86,2.26,-0.85,0.85,0.87,1.51,3.10,3.11,3.10
31.30,2.31,-0.79,2.30,-0.80,0.81,0.83,1.50,3.11,3.10,3.10
31.61,2.34,-0.76,2.33,-0.76,0.76,0.78,1.49,3.10,3.09,3.10
31.93,2.37,-0.72,2.37,-0.71,0.71,0.73,1.47,3.08,3.09,3.09
32.24,2.40,-0.67,2.40,-0.67,0.67,0.69,1.45,3.07,3.07,3.07
32.57,2.45,-0.62,2.44,-0.63,0.63,0.64,1.42,3.08,3.07,3.07
32.89,2.48,-0.59,2.48,-0.59,0.59,0.59,1.40,3.06,3.07,3.07
33.22,2.52,-0.54,2.52,-0.54,0.54,0.55,1.36,3.06,3.06,3.06
33.55,2.55,-0.50,2.55,-0.50,0.50,0.50,1.33,3.05,3.05,3.05
33.89,2.59,-0.45,2.58,-0.46,0.46,0.46,1.29,3.05,3.04,3.04
34.23,2.61,-0.43,2.61,-0.42,0.42,0.41,1.26,3.03,3.03,3.04
34.57,2.64,-0.39,2.65,-0.38,0.38,0.37,1.21,3.01,3.02,3.02
34.92,2.68,-0.33,2.68,-0.34,0.33,0.33,1.17,3.01,3.01,3.01
35.27,2.73,-0.28,2.71,-0.29,0.29,0.28,1.12,3.02,3.00,3.01
35.62,2.73,-0.27,2.75,-0.25,0.25,0.24,1.07,2.98,3.00,2.99
35.97,2.78,-0.20,2.78,-0.21,0.21,0.20,1.02,2.99,2.99,2.98
36.33,2.82,-0.16,2.81,-0.17,0.17,0.15,0.97,2.99,2.97,2.98
36.70,2.83,-0.13,2.84,-0.12,0.13,0.11,0.92,2.95,2.97,2.96
37.06,2.87,-0.08,2.86,-0.09,0.09,0.07,0.86,2.95,2.95,2.95
37.43,2.89,-0.06,2.89,-0.05,0.05,0.03,0.81,2.93,2.94,2.94
37.81,2.92,-0.01,2.92,-0.01,0.01,-0.01,0.75,2.92,2.93,2.93
38.19,2.96,0.04,2.95,0.03,-0.03,-0.06,0.69,2.92,2.92,2.92
38.57,2.98,0.07,2.98,0.07,-0.07,-0.10,0.63,2.90,2.91,2.91
38.95,3.01,0.11,3.01,0.11,-0.11,-0.14,0.57,2.89,2.89,2.90
39.34,3.04,0.16,3.04,0.15,-0.15,-0.18,0.51,2.89,2.88,2.88
39.74,3.06,0.19,3.06,0.19,-0.19,-0.21,0.45,2.87,2.87,2.87
40.14,3.10,0.24,3.09,0.23,-0.23,-0.25,0.39,2.87,2.86,2.86
40.54,3.10,0.25,3.11,0.26,-0.27,-0.29,0.33,2.83,2.84,2.84
40.94,3.15,0.31,3.14,0.30,-0.30,-0.33,0.27,2.85,2.84,2.84
41.35,3.15,0.33,3.16,0.33,-0.33,-0.37,0.21,2.82,2.83,2.82
41.76,3.20,0.38,3.19,0.37,-0.36,-0.40,0.14,2.84,2.82,2.82
42.18,3.20,0.39,3.20,0.40,-0.39,-0.44,0.08,2.80,2.81,2.81
42.60,3.22,0.42,3.22,0.42,-0.43,-0.48,0.02,2.79,2.79,2.79
43.03,3.24,0.45,3.23,0.45,-0.46,-0.51,-0.04,2.78,2.77,2.79
43.46,3.24,0.47,3.25,0.49,-0.50,-0.55,-0.11,2.74,2.75,2.77
43.90,3.29,0.55,3.27,0.53,-0.53,-0.58,-0.17,2.76,2.74,2.74
44.33,3.29,0.56,3.30,0.58,-0.57,-0.62,-0.23,2.72,2.73,2.72
44.78,3.33,0.62,3.32,0.61,-0.61,-0.65,-0.29,2.72,2.71,2.71
45.23,3.34,0.65,3.33,0.65,-0.64,-0.69,-0.36,2.70,2.69,2.69
45.68,3.34,0.67,3.35,0.69,-0.68,-0.72,-0.42,2.66,2.68,2.67
46.13,3.38,0.73,3.36,0.71,-0.71,-0.75,-0.48,2.67,2.65,2.65
46.60,3.38,0.74,3.38,0.74,-0.74,-0.79,-0.55,2.63,2.63,2.64
47.06,3.38,0.76,3.40,0.78,-0.78,-0.82,-0.61,2.60,2.62,2.62
47.53,3.43,0.83,3.41,0.80,-0.81,-0.85,-0.67,2.61,2.59,2.60
48.01,3.43,0.84,3.43,0.84,-0.85,-0.88,-0.74,2.58,2.58,2.59
48.49,3.43,0.87,3.45,0.89,-0.89,-0.91,-0.80,2.54,2.56,2.56
48.97,3.48,0.95,3.46,0.93,-0.93,-0.94,-0.87,2.55,2.53,2.53
49.46,3.48,0.98,3.48,0.98,-0.97,-0.97,-0.93,2.51,2.51,2.50
49.96,3.48,1.01,3.50,1.02,-1.01,-1.00,-0.99,2.47,2.48,2.47
50.46,3.52,1.06,3.50,1.06,-1.05,-1.03,-1.06,2.47,2.45,2.45
50.96,3.52,1.09,3.51,1.09,-1.09,-1.06,-1.12,2.43,2.42,2.43
51.47,3.52,1.12,3.52,1.12,-1.13,-1.09,-1.18,2.39,2.40,2.40
51.99,3.52,1.14,3.53,1.16,-1.16,-1.12,-1.24,2.36,2.38,2.37
52.51,3.57,1.21,3.55,1.20,-1.19,-1.15,-1.30,2.38,2.36,2.36
53.03,3.57,1.23,3.57,1.23,-1.22,-1.18,-1.36,2.34,2.34,2.34
53.56,3.57,1.26,3.57,1.26,-1.26,-1.20,-1.42,2.31,2.31,2.31
54.10,3.57,1.28,3.57,1.28,-1.29,-1.23,-1.48,2.28,2.28,2.29
54.64,3.57,1.31,3.58,1.32,-1.32,-1.26,-1.54,2.24,2.25,2.26
55.18,3.59,1.35,3.59,1.35,-1.36,-1.28,-1.59,2.23,2.23,2.23
55.74,3.61,1.40,3.60,1.39,-1.39,-1.31,-1.65,2.22,2.21,2.21
56.29,3.61,1.42,3.61,1.42,-1.42,-1.34,-1.70,2.19,2.19,2.19
56.86,3.61,1.45,3.61,1.45,-1.44,-1.36,-1.75,2.17,2.17,2.16
57.42,3.61,1.48,3.61,1.47,-1.47,-1.39,-1.80,2.14,2.14,2.13
58.00,3.61,1.50,3.61,1.50,-1.49,-1.41,-1.85,2.12,2.12,2.11
58.58,3.61,1.52,3.61,1.52,-1.51,-1.44,-1.89,2.09,2.09,2.09
59.16,3.61,1.54,3.61,1.54,-1.54,-1.46,-1.93,2.07,2.07,2.07
59.76,3.61,1.56,3.61,1.56,-1.57,-1.49,-1.97,2.04,2.04,2.05
60.35,3.61,1.59,3.61,1.58,-1.60,-1.51,-2.01,2.01,2.00,2.02
60.96,3.61,1.61,3.62,1.63,-1.64,-1.54,-2.04,1.97,1.98,2.00
61.57,3.63,1.67,3.63,1.67,-1.67,-1.56,-2.08,1.95,1.96,1.95
62.18,3.66,1.74,3.65,1.72,-1.71,-1.59,-2.10,1.95,1.93,1.92
62.80,3.66,1.76,3.66,1.77,-1.75,-1.61,-2.13,1.91,1.91,1.90
63.43,3.66,1.80,3.66,1.80,-1.79,-1.64,-2.15,1.87,1.87,1.86
64.07,3.66,1.82,3.66,1.82,-1.82,-1.66,-2.17,1.84,1.84,1.83
64.71,3.66,1.85,3.66,1.85,-1.85,-1.69,-2.19,1.80,1.80,1.81
65.35,3.66,1.88,3.66,1.88,-1.88,-1.71,-2.21,1.78,1.78,1.78
66.01,3.66,1.91,3.66,1.91,-1.91,-1.73,-2.22,1.75,1.75,1.75
66.67,3.66,1.93,3.66,1.93,-1.94,-1.76,-2.23,1.72,1.72,1.72
67.33,3.66,1.96,3.66,1.96,-1.97,-1.78,-2.24,1.69,1.69,1.69
68.01,3.66,1.99,3.66,1.99,-2.00,-1.81,-2.25,1.66,1.66,1.66
68.69,3.66,2.03,3.66,2.03,-2.03,-1.83,-2.25,1.63,1.63,1.63
69.37,3.66,2.06,3.66,2.06,-2.06,-1.86,-2.25,1.60,1.60,1.60
70.07,3.66,2.09,3.66,2.09,-2.09,-1.88,-2.26,1.57,1.57,1.57
70.77,3.66,2.11,3.66,2.12,-2.12,-1.90,-2.26,1.54,1.54,1.54
71.48,3.66,2.15,3.66,2.15,-2.15,-1.93,-2.26,1.51,1.51,1.51
72.19,3.66,2.18,3.65,2.18,-2.17,-1.95,-2.26,1.48,1.48,1.47
72.91,3.65,2.21,3.64,2.20,-2.20,-1.98,-2.26,1.45,1.44,1.44
73.64,3.62,2.22,3.62,2.22,-2.23,-2.00,-2.26,1.39,1.40,1.40
74.38,3.61,2.23,3.62,2.25,-2.25,-2.03,-2.26,1.36,1.37,1.37
75.12,3.61,2.27,3.60,2.27,-2.27,-2.05,-2.25,1.34,1.33,1.33
75.87,3.61,2.30,3.59,2.29,-2.29,-2.08,-2.26,1.32,1.30,1.30
76.63,3.57,2.29,3.59,2.31,-2.31,-2.10,-2.26,1.26,1.28,1.27
77.40,3.57,2.32,3.57,2.33,-2.32,-2.13,-2.26,1.24,1.24,1.24
78.17,3.57,2.37,3.55,2.34,-2.34,-2.15,-2.26,1.23,1.21,1.20
78.95,3.52,2.34,3.54,2.36,-2.36,-2.18,-2.26,1.16,1.18,1.18
79.74,3.52,2.37,3.52,2.37,-2.37,-2.20,-2.27,1.14,1.14,1.15
80.54,3.51,2.40,3.50,2.39,-2.39,-2.23,-2.27,1.12,1.11,1.11
81.35,3.48,2.40,3.48,2.40,-2.40,-2.26,-2.28,1.07,1.08,1.08
82.16,3.47,2.43,3.46,2.42,-2.42,-2.28,-2.29,1.05,1.05,1.04
82.98,3.43,2.41,3.44,2.43,-2.43,-2.31,-2.30,1.00,1.01,1.02
83.81,3.43,2.46,3.41,2.44,-2.44,-2.33,-2.31,0.99,0.97,0.97
84.65,3.38,2.45,3.39,2.45,-2.45,-2.36,-2.33,0.93,0.94,0.93
85.50,3.37,2.47,3.36,2.47,-2.46,-2.38,-2.34,0.91,0.90,0.90
86.35,3.34,2.48,3.33,2.47,-2.47,-2.41,-2.36,0.86,0.86,0.86
87.22,3.30,2.48,3.31,2.48,-2.48,-2.43,-2.38,0.81,0.82,0.82
88.09,3.29,2.51,3.28,2.49,-2.49,-2.46,-2.40,0.79,0.78,0.78
88.97,3.24,2.49,3.25,2.50,-2.51,-2.48,-2.42,0.73,0.74,0.75
89.86,3.23,2.52,3.22,2.52,-2.52,-2.51,-2.45,0.71,0.71,0.71
90.76,3.20,2.54,3.20,2.53,-2.53,-2.53,-2.47,0.67,0.67,0.66
91.66,3.17,2.54,3.17,2.55,-2.54,-2.55,-2.50,0.63,0.63,0.62
92.58,3.14,2.57,3.13,2.56,-2.56,-2.57,-2.53,0.58,0.58,0.57
93.51,3.10,2.56,3.11,2.57,-2.57,-2.60,-2.56,0.53,0.53,0.54
94.44,3.08,2.58,3.07,2.58,-2.59,-2.62,-2.60,0.49,0.49,0.49
95.39,3.05,2.60,3.04,2.60,-2.60,-2.64,-2.63,0.45,0.44,0.45
96.34,3.01,2.61,3.01,2.62,-2.61,-2.66,-2.67,0.39,0.40,0.40
97.30,2.99,2.64,2.98,2.63,-2.63,-2.68,-2.71,0.36,0.35,0.35
98.28,2.95,2.64,2.95,2.65,-2.64,-2.70,-2.75,0.30,0.31,0.30
99.26,2.92,2.66,2.92,2.66,-2.66,-2.72,-2.79,0.26,0.26,0.26
100.25,2.89,2.67,2.89,2.67,-2.67,-2.73,-2.83,0.21,0.21,0.21
101.25,2.86,2.69,2.85,2.69,-2.69,-2.75,-2.88,0.17,0.16,0.17
102.27,2.82,2.70,2.82,2.70,-2.70,-2.77,-2.92,0.12,0.12,0.12
103.29,2.78,2.71,2.79,2.72,-2.71,-2.78,-2.97,0.06,0.07,0.06
104.32,2.77,2.74,2.75,2.73,-2.73,-2.80,-3.01,0.04,0.03,0.03
105.37,2.73,2.75,2.72,2.74,-2.74,-2.81,-3.06,-0.02,-0.02,-0.02
106.42,2.68,2.74,2.70,2.76,-2.76,-2.83,-3.10,-0.08,-0.06,-0.06
107.48,2.67,2.78,2.66,2.77,-2.77,-2.84,-3.15,-0.11,-0.12,-0.11
108.56,2.64,2.80,2.63,2.79,-2.79,-2.86,-3.19,-0.15,-0.16,-0.17
109.64,2.59,2.80,2.60,2.81,-2.81,-2.87,-3.23,-0.22,-0.21,-0.21
110.74,2.58,2.84,2.57,2.83,-2.83,-2.89,-3.28,-0.25,-0.26,-0.26
111.85,2.54,2.84,2.54,2.85,-2.86,-2.91,-3.32,-0.32,-0.31,-0.30
112.97,2.52,2.89,2.52,2.88,-2.88,-2.93,-3.36,-0.36,-0.36,-0.37
114.10,2.50,2.91,2.49,2.91,-2.91,-2.95,-3.39,-0.41,-0.42,-0.42
115.24,2.46,2.93,2.47,2.94,-2.94,-2.97,-3.43,-0.48,-0.47,-0.47
116.39,2.45,2.97,2.44,2.97,-2.97,-3.00,-3.46,-0.52,-0.52,-0.52
117.55,2.42,3.00,2.42,3.00,-3.00,-3.03,-3.49,-0.58,-0.58,-0.58
118.73,2.40,3.03,2.40,3.03,-3.02,-3.06,-3.51,-0.63,-0.63,-0.63
119.92,2.38,3.05,2.38,3.06,-3.05,-3.09,-3.54,-0.68,-0.68,-0.68
121.12,2.36,3.09,2.36,3.08,-3.08,-3.12,-3.56,-0.72,-0.73,-0.73
122.33,2.34,3.12,2.34,3.11,-3.11,-3.15,-3.57,-0.77,-0.78,-0.78
123.55,2.31,3.13,2.32,3.14,-3.14,-3.18,-3.58,-0.84,-0.83,-0.82
124.79,2.31,3.18,2.29,3.17,-3.17,-3.21,-3.59,-0.87,-0.88,-0.87
126.03,2.27,3.19,2.28,3.20,-3.21,-3.24,-3.59,-0.94,-0.93,-0.92
127.29,2.26,3.23,2.26,3.24,-3.24,-3.27,-3.59,-0.98,-0.98,-0.97
128.57,2.26,3.29,2.24,3.27,-3.27,-3.29,-3.59,-1.02,-1.03,-1.03
129.85,2.22,3.30,2.23,3.32,-3.31,-3.32,-3.58,-1.09,-1.07,-1.08
131.15,2.22,3.35,2.21,3.34,-3.34,-3.35,-3.57,-1.12,-1.12,-1.13
132.46,2.21,3.39,2.20,3.37,-3.37,-3.37,-3.55,-1.16,-1.17,-1.18
133.79,2.17,3.38,2.18,3.40,-3.40,-3.39,-3.53,-1.23,-1.22,-1.21
135.12,2.17,3.44,2.16,3.42,-3.43,-3.41,-3.51,-1.26,-1.27,-1.27
136.48,2.15,3.45,2.14,3.45,-3.46,-3.43,-3.49,-1.31,-1.31,-1.31
137.84,2.12,3.47,2.13,3.48,-3.48,-3.45,-3.46,-1.37,-1.36,-1.35
139.22,2.12,3.52,2.11,3.50,-3.51,-3.47,-3.43,-1.39,-1.40,-1.40
140.61,2.09,3.53,2.10,3.54,-3.53,-3.49,-3.40,-1.44,-1.44,-1.45
142.02,2.08,3.55,2.08,3.56,-3.55,-3.50,-3.37,-1.47,-1.47,-1.47
143.44,2.08,3.59,2.06,3.57,-3.57,-3.51,-3.33,-1.49,-1.51,-1.51
144.87,2.03,3.58,2.04,3.59,-3.58,-3.53,-3.30,-1.55,-1.54,-1.55
146.32,2.01,3.60,2.01,3.59,-3.59,-3.54,-3.26,-1.58,-1.58,-1.59
147.78,1.98,3.60,1.97,3.59,-3.59,-3.55,-3.23,-1.61,-1.62,-1.62
149.26,1.93,3.58,1.93,3.59,-3.59,-3.55,-3.19,-1.66,-1.66,-1.66
150.75,1.90,3.60,1.89,3.59,-3.59,-3.56,-3.16,-1.69,-1.70,-1.70
152.26,1.84,3.58,1.84,3.58,-3.59,-3.57,-3.12,-1.75,-1.74,-1.74
153.78,1.81,3.58,1.80,3.58,-3.59,-3.58,-3.09,-1.78,-1.78,-1.77
155.32,1.76,3.58,1.76,3.58,-3.59,-3.58,-3.06,-1.83,-1.82,-1.82
156.88,1.73,3.58,1.73,3.58,-3.59,-3.59,-3.03,-1.86,-1.86,-1.85
158.44,1.70,3.59,1.69,3.59,-3.59,-3.59,-3.00,-1.89,-1.90,-1.90
160.03,1.66,3.60,1.66,3.60,-3.60,-3.59,-2.97,-1.94,-1.94,-1.94
161.63,1.63,3.61,1.63,3.61,-3.61,-3.60,-2.94,-1.98,-1.98,-1.98
163.24,1.61,3.63,1.60,3.62,-3.62,-3.60,-2.91,-2.01,-2.02,-2.02
164.88,1.57,3.62,1.58,3.63,-3.63,-3.60,-2.89,-2.06,-2.05,-2.05
166.53,1.56,3.65,1.55,3.64,-3.64,-3.60,-2.87,-2.08,-2.09,-2.09
168.19,1.52,3.65,1.52,3.65,-3.65,-3.61,-2.85,-2.13,-2.12,-2.13
169.87,1.50,3.66,1.50,3.66,-3.66,-3.61,-2.83,-2.16,-2.16,-2.17
171.57,1.47,3.67,1.46,3.66,-3.66,-3.61,-2.81,-2.19,-2.20,-2.20
173.29,1.43,3.67,1.43,3.66,-3.67,-3.62,-2.80,-2.24,-2.24,-2.24
175.02,1.38,3.65,1.38,3.66,-3.67,-3.62,-2.79,-2.29,-2.29,-2.27
176.77,1.35,3.67,1.35,3.67,-3.67,-3.62,-2.78,-2.33,-2.32,-2.32
178.54,1.32,3.68,1.31,3.67,-3.67,-3.63,-2.77,-2.36,-2.36,-2.36
180.32,1.29,3.68,1.28,3.68,-3.67,-3.63,-2.76,-2.39,-2.39,-2.40
182.13,1.24,3.67,1.24,3.68,-3.67,-3.63,-2.76,-2.43,-2.43,-2.43
183.95,1.21,3.68,1.20,3.67,-3.67,-3.64,-2.76,-2.46,-2.47,-2.47
185.79,1.15,3.65,1.16,3.66,-3.66,-3.64,-2.76,-2.52,-2.51,-2.50
187.65,1.12,3.66,1.12,3.66,-3.66,-3.64,-2.76,-2.54,-2.54,-2.54
189.52,1.08,3.65,1.07,3.64,-3.64,-3.64,-2.77,-2.57,-2.57,-2.57
191.42,1.03,3.63,1.03,3.63,-3.63,-3.64,-2.77,-2.60,-2.60,-2.60
193.33,0.98,3.61,0.98,3.61,-3.62,-3.64,-2.78,-2.64,-2.63,-2.63
195.27,0.94,3.60,0.93,3.60,-3.60,-3.63,-2.79,-2.66,-2.66,-2.66
197.22,0.89,3.58,0.89,3.58,-3.58,-3.62,-2.81,-2.69,-2.69,-2.69
199.19,0.84,3.56,0.84,3.56,-3.55,-3.61,-2.82,-2.72,-2.72,-2.72
201.18,0.79,3.53,0.79,3.54,-3.53,-3.59,-2.83,-2.74,-2.74,-2.74
203.19,0.75,3.50,0.74,3.50,-3.50,-3.56,-2.85,-2.75,-2.76,-2.76
205.23,0.70,3.48,0.69,3.47,-3.47,-3.53,-2.87,-2.77,-2.78,-2.78
207.28,0.63,3.42,0.64,3.44,-3.44,-3.50,-2.88,-2.81,-2.80,-2.79
209.35,0.59,3.40,0.58,3.40,-3.40,-3.46,-2.90,-2.81,-2.81,-2.81
211.44,0.54,3.37,0.53,3.36,-3.36,-3.42,-2.92,-2.82,-2.83,-2.84
213.56,0.48,3.32,0.48,3.32,-3.32,-3.38,-2.94,-2.85,-2.84,-2.84
215.69,0.43,3.27,0.43,3.28,-3.28,-3.33,-2.96,-2.86,-2.86,-2.84
217.85,0.38,3.23,0.38,3.24,-3.24,-3.28,-2.98,-2.86,-2.86,-2.86
220.03,0.33,3.20,0.33,3.20,-3.19,-3.24,-3.00,-2.87,-2.86,-2.87
222.23,0.29,3.17,0.28,3.16,-3.15,-3.19,-3.01,-2.86,-2.86,-2.88
224.45,0.23,3.10,0.23,3.10,-3.09,-3.14,-3.03,-2.87,-2.87,-2.87
226.70,0.17,3.04,0.17,3.04,-3.04,-3.09,-3.04,-2.87,-2.87,-2.87
228.96,0.11,2.98,0.11,2.98,-2.98,-3.04,-3.06,-2.87,-2.87,-2.87
231.25,0.05,2.91,0.05,2.92,-2.92,-3.00,-3.07,-2.88,-2.87,-2.86
233.57,0.01,2.87,-0.00,2.86,-2.86,-2.95,-3.08,-2.85,-2.86,-2.86
235.90,-0.06,2.80,-0.06,2.81,-2.80,-2.91,-3.08,-2.86,-2.86,-2.86
238.26,-0.11,2.75,-0.11,2.75,-2.74,-2.87,-3.09,-2.85,-2.85,-2.86
240.64,-0.16,2.69,-0.16,2.69,-2.69,-2.82,-3.09,-2.85,-2.85,-2.85
243.05,-0.20,2.64,-0.20,2.64,-2.64,-2.78,-3.09,-2.84,-2.84,-2.84
245.48,-0.23,2.60,-0.23,2.60,-2.61,-2.74,-3.08,-2.84,-2.84,-2.83
247.93,-0.25,2.57,-0.25,2.57,-2.58,-2.70,-3.08,-2.84,-2.83,-2.82
250.41,-0.25,2.56,-0.25,2.56,-2.57,-2.66,-3.06,-2.83,-2.82,-2.82
252.92,-0.22,2.57,-0.23,2.57,-2.58,-2.62,-3.05,-2.80,-2.81,-2.79
255.45,-0.18,2.59,-0.18,2.59,-2.60,-2.59,-3.03,-2.79,-2.79,-2.77
258.00,-0.13,2.63,-0.13,2.63,-2.64,-2.55,-3.01,-2.77,-2.77,-2.76
260.58,-0.06,2.68,-0.06,2.68,-2.68,-2.51,-2.99,-2.75,-2.75,-2.74
263.19,0.01,2.73,0.01,2.74,-2.74,-2.48,-2.96,-2.73,-2.72,-2.72
265.82,0.10,2.80,0.09,2.79,-2.79,-2.44,-2.93,-2.69,-2.70,-2.71
268.48,0.16,2.84,0.16,2.84,-2.83,-2.41,-2.90,-2.68,-2.67,-2.68
271.16,0.22,2.88,0.22,2.89,-2.87,-2.37,-2.87,-2.66,-2.65,-2.66
273.87,0.28,2.92,0.27,2.91,-2.90,-2.34,-2.83,-2.62,-2.63,-2.64
276.61,0.31,2.93,0.30,2.92,-2.91,-2.30,-2.79,-2.61,-2.61,-2.62
279.38,0.31,2.91,0.32,2.92,-2.91,-2.27,-2.75,-2.60,-2.60,-2.61
282.17,0.31,2.90,0.31,2.90,-2.89,-2.23,-2.71,-2.59,-2.58,-2.59
284.99,0.31,2.87,0.30,2.87,-2.86,-2.20,-2.67,-2.56,-2.57,-2.57
287.84,0.27,2.82,0.27,2.82,-2.82,-2.17,-2.62,-2.55,-2.55,-2.55
290.72,0.24,2.76,0.24,2.76,-2.77,-2.13,-2.58,-2.53,-2.53,-2.52
293.63,0.19,2.70,0.19,2.70,-2.70,-2.10,-2.53,-2.52,-2.51,-2.51
296.57,0.15,2.63,0.15,2.63,-2.63,-2.07,-2.48,-2.49,-2.49,-2.48
299.53,0.10,2.57,0.09,2.56,-2.56,-2.03,-2.44,-2.46,-2.46,-2.47
302.53,0.04,2.49,0.04,2.48,-2.48,-2.00,-2.39,-2.44,-2.44,-2.45
305.55,-0.02,2.39,-0.02,2.40,-2.40,-1.97,-2.35,-2.42,-2.42,-2.42
308.61,-0.08,2.32,-0.08,2.32,-2.32,-1.93,-2.30,-2.40,-2.40,-2.40
311.69,-0.13,2.24,-0.13,2.23,-2.24,-1.90,-2.25,-2.37,-2.38,-2.37
314.81,-0.18,2.15,-0.18,2.16,-2.17,-1.87,-2.21,-2.35,-2.35,-2.34
317.96,-0.23,2.09,-0.23,2.09,-2.09,-1.83,-2.17,-2.32,-2.32,-2.32
321.14,-0.28,2.02,-0.28,2.02,-2.02,-1.80,-2.12,-2.30,-2.30,-2.30
324.35,-0.33,1.95,-0.33,1.95,-1.95,-1.77,-2.08,-2.28,-2.28,-2.29
327.59,-0.37,1.89,-0.37,1.89,-1.89,-1.73,-2.04,-2.26,-2.26,-2.26
330.87,-0.42,1.82,-0.42,1.83,-1.82,-1.70,-2.00,-2.25,-2.24,-2.24
334.18,-0.45,1.77,-0.46,1.76,-1.76,-1.67,-1.96,-2.21,-2.22,-2.22
337.52,-0.50,1.70,-0.50,1.70,-1.70,-1.63,-1.92,-2.20,-2.20,-2.21
340.90,-0.54,1.64,-0.54,1.64,-1.65,-1.60,-1.89,-2.19,-2.18,-2.18
344.30,-0.57,1.59,-0.58,1.58,-1.59,-1.56,-1.85,-2.16,-2.17,-2.16
347.75,-0.62,1.52,-0.62,1.53,-1.53,-1.52,-1.82,-2.16,-2.15,-2.14
351.23,-0.65,1.47,-0.65,1.48,-1.48,-1.49,-1.78,-2.13,-2.13,-2.13
354.74,-0.68,1.43,-0.68,1.42,-1.42,-1.45,-1.75,-2.10,-2.10,-2.11
358.28,-0.71,1.38,-0.72,1.37,-1.36,-1.41,-1.72,-2.08,-2.08,-2.09
361.87,-0.77,1.30,-0.77,1.31,-1.30,-1.37,-1.70,-2.08,-2.07,-2.07
365.49,-0.81,1.24,-0.82,1.24,-1.24,-1.33,-1.67,-2.05,-2.06,-2.05
369.14,-0.88,1.16,-0.87,1.17,-1.17,-1.28,-1.64,-2.06,-2.05,-2.05
372.83,-0.92,1.11,-0.92,1.11,-1.10,-1.24,-1.62,-2.02,-2.02,-2.03
376.56,-0.97,1.05,-0.98,1.03,-1.02,-1.20,-1.60,-2.00,-2.01,-2.02
380.33,-1.04,0.95,-1.04,0.95,-0.94,-1.15,-1.57,-1.99,-1.99,-1.99
384.13,-1.12,0.86,-1.12,0.87,-0.86,-1.10,-1.55,-1.98,-1.98,-1.98
387.97,-1.19,0.78,-1.20,0.78,-0.78,-1.05,-1.53,-1.97,-1.97,-1.97
391.85,-1.27,0.69,-1.27,0.70,-0.69,-1.00,-1.52,-1.96,-1.96,-1.97
395.77,-1.33,0.62,-1.33,0.62,-0.61,-0.94,-1.50,-1.94,-1.94,-1.95
399.73,-1.39,0.55,-1.40,0.54,-0.54,-0.88,-1.48,-1.93,-1.94,-1.94
403.72,-1.46,0.47,-1.46,0.47,-0.48,-0.83,-1.47,-1.94,-1.94,-1.93
407.76,-1.51,0.41,-1.50,0.42,-0.44,-0.77,-1.45,-1.95,-1.94,-1.92
411.84,-1.51,0.39,-1.52,0.39,-0.42,-0.70,-1.44,-1.93,-1.93,-1.90
415.96,-1.51,0.38,-1.51,0.38,-0.41,-0.64,-1.43,-1.92,-1.92,-1.89
420.12,-1.48,0.40,-1.48,0.40,-0.42,-0.58,-1.42,-1.91,-1.91,-1.89
424.32,-1.44,0.43,-1.44,0.43,-0.45,-0.52,-1.41,-1.89,-1.89,-1.88
428.56,-1.39,0.48,-1.39,0.48,-0.48,-0.46,-1.40,-1.87,-1.87,-1.87
432.85,-1.33,0.53,-1.33,0.52,-0.51,-0.40,-1.39,-1.84,-1.84,-1.86
437.18,-1.28,0.57,-1.29,0.55,-0.53,-0.35,-1.38,-1.81,-1.82,-1.85
441.55,-1.27,0.56,-1.27,0.57,-0.53,-0.30,-1.37,-1.81,-1.80,-1.83
445.96,-1.27,0.55,-1.27,0.55,-0.52,-0.26,-1.36,-1.79,-1.79,-1.82
450.42,-1.29,0.52,-1.30,0.51,-0.48,-0.23,-1.35,-1.78,-1.78,-1.81
454.93,-1.34,0.45,-1.34,0.45,-0.43,-0.22,-1.34,-1.77,-1.77,-1.79
459.48,-1.40,0.38,-1.40,0.38,-0.36,-0.21,-1.34,-1.76,-1.77,-1.78
464.07,-1.47,0.29,-1.47,0.29,-0.29,-0.22,-1.33,-1.76,-1.76,-1.77
468.71,-1.53,0.21,-1.53,0.22,-0.23,-0.24,-1.32,-1.76,-1.76,-1.75
473.40,-1.58,0.15,-1.58,0.15,-0.17,-0.27,-1.31,-1.76,-1.76,-1.74
478.13,-1.60,0.12,-1.60,0.12,-0.15,-0.32,-1.31,-1.75,-1.75,-1.72
482.91,-1.60,0.11,-1.59,0.11,-0.15,-0.37,-1.30,-1.75,-1.74,-1.71
487.74,-1.54,0.15,-1.54,0.15,-0.18,-0.44,-1.29,-1.72,-1.72,-1.69
492.62,-1.45,0.22,-1.45,0.22,-0.25,-0.51,-1.28,-1.70,-1.70,-1.67
497.55,-1.32,0.34,-1.32,0.33,-0.34,-0.59,-1.28,-1.67,-1.67,-1.66
502.52,-1.18,0.46,-1.18,0.46,-0.47,-0.68,-1.27,-1.65,-1.65,-1.64
