frequency,raw,error,smoothed,error_smoothed,equalization,parametric_eq,fixed_band_eq,equalized_raw,equalized_smoothed,target
20.00,10.01,3.43,10.01,3.43,-3.43,-3.82,-1.93,6.58,6.58,6.58
20.20,10.03,3.46,10.03,3.46,-3.46,-3.83,-1.98,6.57,6.57,6.57
20.40,10.05,3.49,10.05,3.49,-3.49,-3.83,-2.04,6.56,6.56,6.56
20.61,10.07,3.52,10.07,3.52,-3.52,-3.84,-2.10,6.55,6.55,6.55
20.81,10.08,3.55,10.08,3.55,-3.55,-3.84,-2.16,6.53,6.53,6.53
21.02,10.10,3.58,10.10,3.58,-3.58,-3.85,-2.22,6.52,6.52,6.52
21.23,10.12,3.61,10.12,3.61,-3.61,-3.85,-2.29,6.51,6.51,6.51
21.44,10.14,3.62,10.14,3.63,-3.64,-3.86,-2.35,6.51,6.51,6.52
21.66,10.16,3.66,10.16,3.66,-3.66,-3.86,-2.42,6.50,6.50,6.50
21.87,10.18,3.69,10.18,3.69,-3.69,-3.87,-2.49,6.49,6.49,6.50
22.09,10.20,3.73,10.20,3.72,-3.72,-3.87,-2.56,6.49,6.48,6.48
22.31,10.22,3.75,10.22,3.74,-3.74,-3.88,-2.63,6.48,6.48,6.48
22.54,10.23,3.77,10.23,3.77,-3.77,-3.88,-2.71,6.46,6.47,6.47
22.76,10.25,3.79,10.25,3.79,-3.79,-3.89,-2.79,6.46,6.46,6.46
22.99,10.27,3.82,10.27,3.82,-3.82,-3.89,-2.87,6.45,6.45,6.45
23.22,10.29,3.85,10.29,3.84,-3.84,-3.90,-2.95,6.45,6.45,6.44
23.45,10.31,3.86,10.31,3.87,-3.86,-3.91,-3.03,6.45,6.45,6.45
23.69,10.33,3.89,10.33,3.89,-3.88,-3.91,-3.12,6.45,6.44,6.44
23.92,10.34,3.91,10.35,3.90,-3.90,-3.92,-3.20,6.44,6.44,6.43
24.16,10.36,3.92,10.36,3.93,-3.92,-3.92,-3.29,6.44,6.44,6.44
24.40,10.38,3.94,10.38,3.94,-3.94,-3.93,-3.38,6.44,6.44,6.44
24.65,10.40,3.96,10.40,3.96,-3.96,-3.94,-3.47,6.44,6.44,6.44
24.89,10.41,3.97,10.41,3.98,-3.98,-3.94,-3.56,6.43,6.43,6.44
25.14,10.43,4.00,10.43,4.00,-4.00,-3.95,-3.65,6.44,6.43,6.43
25.39,10.44,4.01,10.44,4.02,-4.01,-3.96,-3.75,6.43,6.43,6.43
25.65,10.46,4.03,10.46,4.03,-4.03,-3.96,-3.84,6.43,6.43,6.43
25.91,10.47,4.05,10.47,4.05,-4.05,-3.97,-3.93,6.42,6.43,6.43
26.16,10.49,4.06,10.49,4.06,-4.06,-3.98,-4.03,6.43,6.43,6.43
26.43,10.51,4.08,10.51,4.07,-4.08,-3.99,-4.12,6.43,6.43,6.43
26.69,10.52,4.09,10.52,4.09,-4.09,-3.99,-4.21,6.43,6.43,6.43
26.96,10.54,4.11,10.54,4.11,-4.11,-4.00,-4.30,6.43,6.43,6.43
27.23,10.55,4.12,10.55,4.12,-4.12,-4.01,-4.39,6.43,6.44,6.43
27.50,10.57,4.14,10.57,4.14,-4.13,-4.02,-4.48,6.44,6.44,6.43
27.77,10.58,4.14,10.58,4.15,-4.14,-4.02,-4.57,6.44,6.44,6.44
28.05,10.59,4.15,10.59,4.15,-4.15,-4.03,-4.65,6.44,6.44,6.44
28.33,10.60,4.16,10.60,4.16,-4.16,-4.04,-4.73,6.44,6.44,6.45
28.62,10.61,4.17,10.61,4.17,-4.17,-4.05,-4.80,6.44,6.45,6.44
28.90,10.63,4.18,10.63,4.18,-4.18,-4.06,-4.87,6.45,6.45,6.45
29.19,10.64,4.19,10.64,4.19,-4.19,-4.06,-4.94,6.45,6.45,6.45
29.48,10.65,4.20,10.65,4.20,-4.20,-4.07,-5.00,6.45,6.45,6.45
29.78,10.66,4.21,10.66,4.21,-4.22,-4.08,-5.06,6.45,6.45,6.45
30.08,10.67,4.22,10.67,4.23,-4.23,-4.09,-5.10,6.44,6.44,6.45
30.38,10.69,4.26,10.69,4.25,-4.25,-4.10,-5.15,6.44,6.44,6.44
30.68,10.70,4.27,10.70,4.27,-4.26,-4.11,-5.18,6.44,6.44,6.43
30.99,10.71,4.28,10.71,4.28,-4.28,-4.12,-5.22,6.43,6.43,6.43
31.30,10.72,4.29,10.72,4.29,-4.29,-4.13,-5.24,6.43,6.43,6.43
31.61,10.73,4.30,10.73,4.31,-4.31,-4.13,-5.26,6.42,6.43,6.43
31.93,10.74,4.33,10.74,4.32,-4.32,-4.14,-5.27,6.42,6.42,6.41
32.24,10.74,4.33,10.74,4.33,-4.33,-4.15,-5.27,6.41,6.41,6.41
32.57,10.74,4.34,10.74,4.34,-4.34,-4.16,-5.27,6.40,6.40,6.40
32.89,10.74,4.34,10.74,4.34,-4.35,-4.17,-5.26,6.39,6.40,6.40
33.22,10.74,4.34,10.74,4.35,-4.35,-4.18,-5.25,6.39,6.39,6.40
33.55,10.75,4.36,10.75,4.36,-4.36,-4.19,-5.23,6.39,6.39,6.39
33.89,10.75,4.37,10.75,4.37,-4.37,-4.20,-5.21,6.39,6.39,6.38
34.23,10.75,4.38,10.75,4.38,-4.37,-4.21,-5.18,6.38,6.38,6.37
34.57,10.74,4.37,10.74,4.38,-4.37,-4.22,-5.15,6.37,6.37,6.37
34.92,10.74,4.39,10.74,4.38,-4.38,-4.23,-5.11,6.36,6.36,6.35
35.27,10.73,4.36,10.73,4.38,-4.38,-4.25,-5.07,6.35,6.35,6.37
35.62,10.73,4.38,10.73,4.38,-4.38,-4.26,-5.03,6.35,6.35,6.35
35.97,10.72,4.38,10.72,4.38,-4.38,-4.27,-4.99,6.34,6.34,6.34
36.33,10.71,4.38,10.71,4.38,-4.38,-4.28,-4.95,6.33,6.33,6.33
36.70,10.69,4.38,10.70,4.38,-4.38,-4.29,-4.91,6.31,6.32,6.31
37.06,10.68,4.39,10.68,4.38,-4.38,-4.30,-4.86,6.30,6.30,6.29
37.43,10.66,4.38,10.66,4.38,-4.38,-4.31,-4.82,6.28,6.28,6.28
37.81,10.64,4.38,10.64,4.38,-4.38,-4.32,-4.78,6.26,6.26,6.27
38.19,10.62,4.38,10.62,4.38,-4.39,-4.33,-4.73,6.24,6.24,6.24
38.57,10.61,4.38,10.61,4.38,-4.39,-4.35,-4.69,6.22,6.22,6.23
38.95,10.60,4.39,10.60,4.39,-4.39,-4.36,-4.65,6.21,6.21,6.21
39.34,10.59,4.40,10.59,4.40,-4.40,-4.37,-4.61,6.19,6.19,6.19
39.74,10.58,4.42,10.58,4.41,-4.41,-4.38,-4.58,6.17,6.17,6.16
40.14,10.57,4.42,10.57,4.42,-4.42,-4.39,-4.54,6.16,6.15,6.15
40.54,10.55,4.42,10.55,4.42,-4.43,-4.41,-4.51,6.13,6.13,6.13
40.94,10.54,4.43,10.54,4.43,-4.43,-4.42,-4.48,6.11,6.11,6.11
41.35,10.53,4.44,10.53,4.44,-4.44,-4.43,-4.46,6.09,6.09,6.09
41.76,10.52,4.45,10.52,4.45,-4.45,-4.44,-4.44,6.07,6.07,6.07
42.18,10.51,4.45,10.51,4.46,-4.46,-4.46,-4.42,6.06,6.06,6.06
42.60,10.50,4.47,10.50,4.47,-4.46,-4.47,-4.40,6.04,6.04,6.03
43.03,10.49,4.47,10.49,4.47,-4.47,-4.48,-4.39,6.02,6.02,6.02
43.46,10.47,4.48,10.47,4.48,-4.48,-4.49,-4.37,5.99,5.99,5.99
43.90,10.45,4.48,10.46,4.49,-4.48,-4.51,-4.37,5.97,5.97,5.97
44.33,10.44,4.50,10.44,4.49,-4.49,-4.52,-4.36,5.95,5.95,5.95
44.78,10.43,4.50,10.43,4.50,-4.50,-4.53,-4.36,5.93,5.93,5.93
45.23,10.41,4.50,10.41,4.51,-4.51,-4.55,-4.37,5.90,5.90,5.91
45.68,10.39,4.52,10.39,4.52,-4.52,-4.56,-4.37,5.88,5.88,5.87
46.13,10.37,4.53,10.37,4.53,-4.53,-4.57,-4.38,5.84,5.85,5.84
46.60,10.36,4.55,10.36,4.54,-4.54,-4.58,-4.39,5.82,5.82,5.82
47.06,10.34,4.56,10.34,4.55,-4.56,-4.60,-4.41,5.78,5.78,5.79
47.53,10.32,4.56,10.32,4.57,-4.58,-4.61,-4.43,5.75,5.75,5.76
48.01,10.30,4.59,10.30,4.59,-4.60,-4.62,-4.45,5.70,5.70,5.71
48.49,10.29,4.61,10.29,4.62,-4.62,-4.64,-4.48,5.67,5.67,5.68
48.97,10.28,4.65,10.28,4.65,-4.65,-4.65,-4.50,5.63,5.63,5.64
49.46,10.28,4.68,10.28,4.68,-4.68,-4.66,-4.53,5.60,5.60,5.60
49.96,10.27,4.72,10.27,4.71,-4.70,-4.68,-4.56,5.57,5.57,5.55
50.46,10.26,4.73,10.26,4.73,-4.73,-4.69,-4.60,5.54,5.54,5.53
50.96,10.25,4.75,10.25,4.75,-4.75,-4.70,-4.63,5.51,5.50,5.50
51.47,10.23,4.76,10.23,4.77,-4.76,-4.72,-4.67,5.47,5.47,5.47
51.99,10.21,4.79,10.21,4.78,-4.78,-4.73,-4.71,5.44,5.43,5.42
52.51,10.18,4.78,10.18,4.78,-4.79,-4.74,-4.75,5.40,5.40,5.40
53.03,10.16,4.79,10.16,4.79,-4.79,-4.76,-4.79,5.37,5.37,5.38
53.56,10.13,4.79,10.13,4.80,-4.80,-4.77,-4.84,5.33,5.33,5.34
54.10,10.11,4.81,10.11,4.80,-4.81,-4.78,-4.88,5.30,5.30,5.30
54.64,10.08,4.81,10.08,4.81,-4.81,-4.79,-4.92,5.27,5.27,5.27
55.18,10.05,4.82,10.06,4.82,-4.82,-4.81,-4.96,5.23,5.23,5.23
55.74,10.03,4.83,10.03,4.83,-4.83,-4.82,-5.00,5.21,5.21,5.20
56.29,10.01,4.83,10.01,4.83,-4.83,-4.83,-5.04,5.18,5.18,5.18
56.86,9.99,4.84,9.99,4.84,-4.83,-4.84,-5.07,5.16,5.15,5.15
57.42,9.96,4.85,9.96,4.84,-4.84,-4.86,-5.11,5.12,5.13,5.12
58.00,9.93,4.85,9.93,4.84,-4.84,-4.87,-5.14,5.09,5.09,5.09
58.58,9.91,4.85,9.91,4.84,-4.84,-4.88,-5.17,5.07,5.06,5.07
59.16,9.88,4.84,9.88,4.84,-4.85,-4.89,-5.19,5.03,5.03,5.05
59.76,9.86,4.85,9.86,4.85,-4.86,-4.90,-5.22,5.00,5.00,5.02
60.35,9.84,4.87,9.84,4.86,-4.87,-4.92,-5.23,4.97,4.97,4.97
60.96,9.81,4.88,9.81,4.88,-4.88,-4.93,-5.25,4.93,4.93,4.93
61.57,9.78,4.90,9.78,4.90,-4.90,-4.94,-5.26,4.88,4.88,4.88
62.18,9.75,4.92,9.75,4.92,-4.92,-4.95,-5.26,4.84,4.84,4.84
62.80,9.73,4.94,9.73,4.94,-4.93,-4.96,-5.26,4.80,4.80,4.79
63.43,9.70,4.96,9.70,4.95,-4.94,-4.97,-5.26,4.76,4.76,4.75
64.07,9.67,4.96,9.67,4.96,-4.95,-4.98,-5.25,4.72,4.71,4.71
64.71,9.63,4.96,9.63,4.96,-4.96,-4.99,-5.24,4.67,4.67,4.67
65.35,9.60,4.97,9.60,4.97,-4.97,-5.00,-5.22,4.63,4.64,4.64
66.01,9.57,4.97,9.57,4.97,-4.97,-5.01,-5.20,4.60,4.60,4.60
66.67,9.54,4.97,9.54,4.97,-4.98,-5.02,-5.18,4.56,4.56,4.57
67.33,9.50,4.98,9.51,4.98,-4.98,-5.03,-5.15,4.52,4.52,4.52
68.01,9.47,4.98,9.47,4.99,-4.99,-5.04,-5.12,4.48,4.48,4.49
68.69,9.45,5.00,9.45,5.00,-5.00,-5.04,-5.09,4.45,4.45,4.45
69.37,9.42,5.01,9.42,5.01,-5.01,-5.05,-5.05,4.41,4.41,4.42
70.07,9.40,5.03,9.40,5.02,-5.02,-5.06,-5.02,4.38,4.38,4.37
70.77,9.36,5.03,9.36,5.03,-5.03,-5.07,-4.98,4.33,4.33,4.33
71.48,9.33,5.04,9.33,5.04,-5.04,-5.07,-4.94,4.29,4.29,4.29
72.19,9.29,5.04,9.29,5.04,-5.04,-5.08,-4.90,4.25,4.25,4.25
72.91,9.25,5.05,9.25,5.05,-5.05,-5.08,-4.86,4.21,4.21,4.20
73.64,9.21,5.05,9.21,5.05,-5.05,-5.09,-4.82,4.16,4.16,4.16
74.38,9.17,5.05,9.17,5.04,-5.04,-5.09,-4.78,4.13,4.13,4.13
75.12,9.13,5.03,9.13,5.04,-5.04,-5.10,-4.74,4.09,4.10,4.10
75.87,9.10,5.03,9.10,5.03,-5.03,-5.10,-4.70,4.07,4.07,4.07
76.63,9.06,5.03,9.06,5.03,-5.02,-5.11,-4.67,4.04,4.04,4.03
77.40,9.02,5.02,9.02,5.02,-5.02,-5.11,-4.63,4.01,4.00,4.01
78.17,8.98,5.02,8.98,5.01,-5.01,-5.11,-4.60,3.97,3.97,3.96
78.95,8.93,4.98,8.94,5.00,-5.01,-5.12,-4.57,3.92,3.93,3.95
79.74,8.91,5.00,8.91,5.00,-5.01,-5.12,-4.54,3.90,3.90,3.92
80.54,8.89,5.00,8.89,5.00,-5.01,-5.12,-4.51,3.88,3.88,3.89
81.35,8.87,5.02,8.87,5.01,-5.01,-5.12,-4.49,3.86,3.86,3.85
82.16,8.85,5.01,8.85,5.02,-5.01,-5.12,-4.47,3.84,3.84,3.84
82.98,8.83,5.03,8.83,5.03,-5.02,-5.12,-4.45,3.81,3.81,3.80
83.81,8.80,5.03,8.80,5.03,-5.02,-5.12,-4.44,3.78,3.78,3.77
84.65,8.76,5.03,8.77,5.03,-5.03,-5.12,-4.43,3.74,3.74,3.73
85.50,8.73,5.03,8.73,5.03,-5.03,-5.12,-4.42,3.70,3.70,3.70
86.35,8.70,5.03,8.70,5.03,-5.03,-5.12,-4.41,3.67,3.67,3.67
87.22,8.67,5.03,8.67,5.03,-5.03,-5.12,-4.41,3.64,3.64,3.64
88.09,8.64,5.03,8.64,5.03,-5.03,-5.12,-4.41,3.61,3.61,3.61
88.97,8.62,5.04,8.62,5.04,-5.04,-5.11,-4.42,3.58,3.58,3.58
89.86,8.59,5.04,8.59,5.05,-5.05,-5.11,-4.43,3.55,3.55,3.55
90.76,8.57,5.06,8.57,5.06,-5.06,-5.11,-4.44,3.52,3.51,3.51
91.66,8.54,5.07,8.54,5.07,-5.07,-5.10,-4.45,3.48,3.48,3.47
92.58,8.52,5.08,8.52,5.08,-5.08,-5.10,-4.47,3.44,3.44,3.45
93.51,8.50,5.09,8.50,5.09,-5.09,-5.09,-4.49,3.41,3.41,3.41
94.44,8.48,5.11,8.48,5.11,-5.11,-5.09,-4.52,3.37,3.37,3.38
95.39,8.46,5.13,8.46,5.13,-5.13,-5.08,-4.55,3.33,3.33,3.33
96.34,8.44,5.15,8.44,5.15,-5.15,-5.08,-4.58,3.29,3.29,3.29
97.30,8.42,5.16,8.43,5.17,-5.18,-5.07,-4.61,3.25,3.25,3.26
98.28,8.41,5.20,8.41,5.20,-5.20,-5.07,-4.65,3.21,3.21,3.21
99.26,8.40,5.23,8.40,5.22,-5.22,-5.06,-4.68,3.18,3.17,3.17
100.25,8.38,5.25,8.38,5.24,-5.24,-5.05,-4.72,3.14,3.14,3.14
101.25,8.36,5.25,8.37,5.26,-5.26,-5.05,-4.77,3.10,3.11,3.11
102.27,8.35,5.27,8.35,5.28,-5.27,-5.04,-4.81,3.08,3.08,3.08
103.29,8.33,5.29,8.33,5.29,-5.28,-5.03,-4.86,3.05,3.05,3.04
104.32,8.31,5.30,8.30,5.29,-5.28,-5.02,-4.90,3.03,3.02,3.01
105.37,8.26,5.28,8.26,5.28,-5.27,-5.01,-4.95,2.99,2.99,2.99
106.42,8.21,5.25,8.22,5.26,-5.26,-5.01,-5.00,2.95,2.96,2.96
107.48,8.17,5.25,8.17,5.24,-5.25,-5.00,-5.04,2.93,2.92,2.92
108.56,8.12,5.23,8.12,5.23,-5.22,-4.99,-5.09,2.90,2.90,2.89
109.64,8.07,5.21,8.07,5.21,-5.20,-4.98,-5.14,2.87,2.86,2.87
110.74,8.01,5.18,8.01,5.18,-5.19,-4.97,-5.18,2.83,2.82,2.83
111.85,7.95,5.16,7.95,5.16,-5.17,-4.96,-5.23,2.78,2.78,2.79
112.97,7.89,5.13,7.90,5.14,-5.15,-4.95,-5.27,2.74,2.74,2.76
114.10,7.85,5.12,7.85,5.13,-5.14,-4.94,-5.31,2.71,2.71,2.73
115.24,7.80,5.12,7.81,5.12,-5.12,-4.93,-5.34,2.68,2.69,2.68
116.39,7.77,5.13,7.77,5.12,-5.10,-4.92,-5.38,2.67,2.67,2.65
117.55,7.72,5.11,7.71,5.10,-5.08,-4.91,-5.40,2.64,2.63,2.61
118.73,7.64,5.07,7.64,5.06,-5.06,-4.90,-5.43,2.59,2.58,2.57
119.92,7.56,5.01,7.57,5.02,-5.03,-4.89,-5.45,2.53,2.54,2.55
121.12,7.50,4.98,7.51,4.99,-5.01,-4.88,-5.46,2.50,2.51,2.53
122.33,7.47,4.98,7.47,4.97,-4.98,-4.87,-5.47,2.49,2.49,2.49
123.55,7.43,4.96,7.42,4.95,-4.95,-4.86,-5.48,2.48,2.47,2.47
124.79,7.36,4.92,7.37,4.93,-4.92,-4.85,-5.47,2.44,2.44,2.44
126.03,7.30,4.90,7.31,4.90,-4.90,-4.84,-5.47,2.40,2.40,2.41
127.29,7.25,4.88,7.25,4.88,-4.89,-4.83,-5.46,2.37,2.36,2.37
128.57,7.20,4.87,7.20,4.86,-4.87,-4.82,-5.44,2.33,2.33,2.33
129.85,7.15,4.85,7.15,4.85,-4.85,-4.81,-5.41,2.30,2.31,2.30
131.15,7.10,4.84,7.10,4.84,-4.83,-4.80,-5.39,2.27,2.28,2.27
132.46,7.06,4.82,7.05,4.82,-4.81,-4.79,-5.35,2.25,2.24,2.24
133.79,6.99,4.79,6.99,4.79,-4.79,-4.78,-5.32,2.20,2.20,2.20
135.12,6.93,4.76,6.94,4.77,-4.78,-4.76,-5.28,2.16,2.16,2.17
136.48,6.89,4.75,6.89,4.75,-4.75,-4.75,-5.23,2.14,2.13,2.15
137.84,6.84,4.73,6.85,4.73,-4.73,-4.74,-5.18,2.11,2.12,2.11
139.22,6.80,4.72,6.79,4.71,-4.70,-4.73,-5.13,2.10,2.09,2.08
140.61,6.74,4.69,6.74,4.69,-4.68,-4.72,-5.08,2.06,2.06,2.05
142.02,6.66,4.64,6.68,4.65,-4.65,-4.71,-5.02,2.01,2.03,2.02
143.44,6.62,4.62,6.61,4.61,-4.62,-4.70,-4.97,2.00,1.99,2.00
144.87,6.55,4.57,6.55,4.58,-4.59,-4.69,-4.91,1.97,1.97,1.98
146.32,6.50,4.55,6.50,4.55,-4.55,-4.68,-4.85,1.95,1.95,1.95
147.78,6.44,4.51,6.44,4.52,-4.51,-4.67,-4.79,1.93,1.93,1.93
149.26,6.39,4.49,6.38,4.48,-4.48,-4.65,-4.73,1.91,1.91,1.90
150.75,6.31,4.44,6.32,4.44,-4.44,-4.64,-4.67,1.87,1.88,1.87
152.26,6.26,4.41,6.26,4.40,-4.40,-4.63,-4.62,1.86,1.85,1.86
153.78,6.19,4.36,6.19,4.36,-4.37,-4.62,-4.56,1.83,1.83,1.83
155.32,6.14,4.34,6.14,4.33,-4.33,-4.61,-4.51,1.81,1.81,1.81
156.88,6.07,4.29,6.07,4.30,-4.29,-4.59,-4.45,1.78,1.78,1.78
158.44,6.02,4.27,6.01,4.26,-4.26,-4.58,-4.40,1.76,1.75,1.75
160.03,5.93,4.21,5.94,4.22,-4.23,-4.57,-4.35,1.70,1.72,1.73
161.63,5.88,4.19,5.89,4.19,-4.20,-4.56,-4.31,1.68,1.69,1.69
163.24,5.84,4.18,5.83,4.17,-4.17,-4.54,-4.26,1.67,1.66,1.66
164.88,5.78,4.15,5.78,4.15,-4.14,-4.53,-4.22,1.64,1.64,1.63
166.53,5.72,4.13,5.73,4.12,-4.11,-4.52,-4.18,1.61,1.61,1.59
168.19,5.67,4.10,5.66,4.09,-4.09,-4.50,-4.15,1.59,1.57,1.58
169.87,5.59,4.05,5.60,4.06,-4.06,-4.49,-4.11,1.53,1.54,1.54
171.57,5.53,4.03,5.54,4.03,-4.04,-4.48,-4.08,1.50,1.50,1.50
173.29,5.49,4.02,5.48,4.01,-4.01,-4.46,-4.06,1.48,1.47,1.48
175.02,5.42,3.98,5.43,3.99,-3.99,-4.45,-4.03,1.43,1.44,1.44
176.77,5.38,3.98,5.38,3.97,-3.97,-4.43,-4.01,1.41,1.40,1.41
178.54,5.33,3.96,5.33,3.96,-3.96,-4.42,-3.99,1.37,1.37,1.37
180.32,5.29,3.96,5.29,3.96,-3.96,-4.40,-3.98,1.33,1.34,1.33
182.13,5.26,3.96,5.26,3.96,-3.96,-4.39,-3.97,1.30,1.30,1.31
183.95,5.23,3.96,5.23,3.96,-3.96,-4.37,-3.96,1.27,1.27,1.27
185.79,5.21,3.98,5.21,3.97,-3.98,-4.35,-3.95,1.24,1.24,1.23
187.65,5.20,4.00,5.20,3.99,-3.99,-4.34,-3.95,1.21,1.20,1.20
189.52,5.18,4.01,5.19,4.01,-4.02,-4.32,-3.95,1.16,1.17,1.17
191.42,5.18,4.04,5.18,4.04,-4.05,-4.30,-3.95,1.13,1.13,1.14
193.33,5.18,4.07,5.18,4.07,-4.08,-4.28,-3.96,1.10,1.11,1.12
195.27,5.19,4.11,5.19,4.11,-4.11,-4.27,-3.96,1.08,1.08,1.08
197.22,5.20,4.16,5.20,4.15,-4.14,-4.25,-3.97,1.06,1.06,1.04
199.19,5.20,4.18,5.20,4.19,-4.17,-4.23,-3.99,1.03,1.03,1.02
201.18,5.20,4.21,5.20,4.21,-4.20,-4.21,-4.00,1.00,1.00,0.99
203.19,5.20,4.23,5.20,4.23,-4.23,-4.19,-4.01,0.97,0.97,0.97
205.23,5.20,4.25,5.20,4.25,-4.25,-4.17,-4.03,0.95,0.95,0.96
207.28,5.20,4.27,5.20,4.27,-4.27,-4.15,-4.05,0.93,0.93,0.93
209.35,5.20,4.29,5.20,4.29,-4.30,-4.13,-4.07,0.90,0.90,0.91
211.44,5.20,4.32,5.20,4.31,-4.32,-4.11,-4.09,0.88,0.88,0.88
213.56,5.20,4.33,5.21,4.34,-4.35,-4.08,-4.11,0.86,0.86,0.87
215.69,5.21,4.36,5.21,4.36,-4.37,-4.06,-4.13,0.84,0.84,0.85
217.85,5.22,4.40,5.22,4.39,-4.39,-4.04,-4.15,0.83,0.82,0.83
220.03,5.22,4.42,5.22,4.42,-4.41,-4.02,-4.17,0.81,0.81,0.80
222.23,5.22,4.44,5.22,4.44,-4.43,-3.99,-4.18,0.79,0.80,0.78
224.45,5.22,4.45,5.22,4.45,-4.44,-3.97,-4.20,0.78,0.78,0.77
226.70,5.20,4.45,5.20,4.45,-4.45,-3.94,-4.22,0.75,0.76,0.75
228.96,5.18,4.43,5.18,4.44,-4.45,-3.92,-4.23,0.73,0.74,0.75
231.25,5.16,4.43,5.16,4.43,-4.44,-3.89,-4.24,0.72,0.72,0.73
233.57,5.14,4.42,5.14,4.42,-4.43,-3.87,-4.24,0.72,0.72,0.72
235.90,5.12,4.41,5.12,4.41,-4.40,-3.84,-4.25,0.72,0.71,0.71
238.26,5.09,4.40,5.09,4.39,-4.38,-3.82,-4.25,0.72,0.71,0.69
240.64,5.04,4.34,5.05,4.35,-4.34,-3.79,-4.24,0.70,0.71,0.70
243.05,5.00,4.31,5.00,4.30,-4.30,-3.76,-4.24,0.70,0.70,0.70
245.48,4.94,4.25,4.94,4.25,-4.25,-3.73,-4.22,0.69,0.69,0.69
247.93,4.88,4.20,4.89,4.20,-4.20,-3.70,-4.21,0.68,0.69,0.68
250.41,4.84,4.15,4.83,4.14,-4.15,-3.68,-4.19,0.69,0.68,0.69
252.92,4.77,4.08,4.78,4.09,-4.09,-3.65,-4.16,0.68,0.68,0.69
255.45,4.72,4.03,4.73,4.03,-4.04,-3.62,-4.13,0.68,0.69,0.69
258.00,4.68,3.99,4.67,3.98,-3.99,-3.59,-4.10,0.70,0.69,0.69
260.58,4.62,3.93,4.63,3.93,-3.93,-3.56,-4.06,0.69,0.69,0.70
263.19,4.58,3.88,4.58,3.88,-3.88,-3.52,-4.02,0.70,0.70,0.70
265.82,4.52,3.83,4.53,3.83,-3.83,-3.49,-3.97,0.70,0.70,0.69
268.48,4.48,3.78,4.48,3.78,-3.77,-3.46,-3.92,0.71,0.70,0.70
271.16,4.43,3.73,4.42,3.72,-3.72,-3.43,-3.87,0.71,0.70,0.70
273.87,4.35,3.65,4.36,3.66,-3.67,-3.40,-3.81,0.68,0.69,0.70
276.61,4.30,3.60,4.30,3.61,-3.62,-3.36,-3.75,0.68,0.68,0.70
279.38,4.25,3.57,4.26,3.57,-3.56,-3.33,-3.69,0.69,0.69,0.69
282.17,4.22,3.53,4.22,3.52,-3.51,-3.29,-3.63,0.71,0.71,0.69
284.99,4.18,3.47,4.17,3.47,-3.45,-3.26,-3.56,0.73,0.72,0.71
287.84,4.10,3.39,4.11,3.40,-3.39,-3.23,-3.49,0.71,0.72,0.71
290.72,4.04,3.33,4.04,3.33,-3.33,-3.19,-3.42,0.71,0.71,0.71
293.63,3.98,3.26,3.98,3.26,-3.28,-3.16,-3.35,0.71,0.71,0.72
296.57,3.93,3.20,3.93,3.20,-3.22,-3.12,-3.28,0.72,0.72,0.73
299.53,3.89,3.15,3.89,3.15,-3.16,-3.08,-3.21,0.74,0.74,0.74
302.53,3.85,3.10,3.85,3.10,-3.10,-3.05,-3.14,0.75,0.75,0.75
305.55,3.81,3.06,3.81,3.05,-3.04,-3.01,-3.07,0.77,0.76,0.75
308.61,3.75,2.98,3.75,2.99,-2.99,-2.97,-3.00,0.77,0.77,0.77
311.69,3.70,2.93,3.70,2.93,-2.93,-2.93,-2.93,0.77,0.77,0.77
314.81,3.65,2.87,3.65,2.87,-2.88,-2.90,-2.86,0.77,0.78,0.78
317.96,3.61,2.82,3.61,2.82,-2.82,-2.86,-2.80,0.79,0.79,0.79
321.14,3.56,2.76,3.56,2.76,-2.76,-2.82,-2.73,0.80,0.80,0.80
324.35,3.52,2.72,3.52,2.71,-2.70,-2.78,-2.66,0.82,0.81,0.80
327.59,3.47,2.64,3.47,2.65,-2.65,-2.74,-2.60,0.82,0.82,0.83
330.87,3.42,2.59,3.42,2.59,-2.59,-2.70,-2.54,0.83,0.83,0.83
334.18,3.37,2.54,3.37,2.53,-2.54,-2.66,-2.48,0.83,0.83,0.83
337.52,3.32,2.48,3.32,2.48,-2.48,-2.62,-2.42,0.84,0.84,0.84
340.90,3.28,2.42,3.28,2.42,-2.43,-2.58,-2.36,0.85,0.85,0.86
344.30,3.24,2.37,3.24,2.38,-2.37,-2.54,-2.30,0.87,0.87,0.87
347.75,3.20,2.33,3.20,2.32,-2.32,-2.50,-2.25,0.88,0.88,0.88
351.23,3.15,2.28,3.15,2.27,-2.27,-2.46,-2.19,0.88,0.89,0.87
354.74,3.11,2.21,3.11,2.22,-2.22,-2.41,-2.14,0.89,0.89,0.90
358.28,3.06,2.16,3.07,2.16,-2.16,-2.37,-2.09,0.90,0.90,0.90
361.87,3.02,2.11,3.03,2.11,-2.11,-2.33,-2.04,0.91,0.91,0.91
365.49,2.99,2.07,2.98,2.06,-2.06,-2.29,-2.00,0.93,0.92,0.92
369.14,2.94,2.01,2.94,2.01,-2.01,-2.24,-1.95,0.93,0.93,0.93
372.83,2.89,1.95,2.90,1.96,-1.96,-2.20,-1.91,0.93,0.94,0.94
376.56,2.85,1.91,2.85,1.90,-1.91,-2.16,-1.87,0.94,0.94,0.94
380.33,2.81,1.86,2.81,1.86,-1.87,-2.11,-1.83,0.94,0.95,0.95
384.13,2.78,1.81,2.78,1.82,-1.82,-2.07,-1.79,0.96,0.96,0.97
387.97,2.75,1.77,2.75,1.77,-1.77,-2.02,-1.75,0.98,0.98,0.98
391.85,2.72,1.74,2.72,1.74,-1.73,-1.98,-1.71,1.00,1.00,0.99
395.77,2.69,1.70,2.69,1.69,-1.68,-1.93,-1.68,1.02,1.01,1.00
399.73,2.65,1.65,2.65,1.64,-1.63,-1.89,-1.64,1.03,1.02,1.00
403.72,2.60,1.57,2.60,1.58,-1.58,-1.84,-1.61,1.02,1.02,1.03
407.76,2.55,1.52,2.55,1.52,-1.53,-1.79,-1.58,1.02,1.02,1.03
411.84,2.50,1.46,2.51,1.46,-1.48,-1.75,-1.55,1.02,1.03,1.04
415.96,2.47,1.41,2.47,1.42,-1.43,-1.70,-1.52,1.04,1.04,1.06
420.12,2.44,1.38,2.44,1.38,-1.38,-1.65,-1.49,1.06,1.06,1.06
424.32,2.42,1.35,2.42,1.35,-1.34,-1.61,-1.46,1.08,1.08,1.07
428.56,2.39,1.30,2.39,1.31,-1.29,-1.56,-1.43,1.10,1.10,1.09
432.85,2.35,1.26,2.35,1.26,-1.24,-1.51,-1.41,1.11,1.11,1.10
437.18,2.30,1.21,2.30,1.20,-1.20,-1.46,-1.38,1.11,1.11,1.10
441.55,2.25,1.15,2.25,1.15,-1.15,-1.41,-1.35,1.10,1.10,1.10
445.96,2.20,1.09,2.20,1.09,-1.10,-1.36,-1.33,1.10,1.10,1.11
450.42,2.16,1.04,2.16,1.04,-1.05,-1.31,-1.30,1.11,1.11,1.12
454.93,2.13,1.00,2.13,1.00,-1.01,-1.26,-1.27,1.12,1.12,1.13
459.48,2.10,0.96,2.11,0.96,-0.97,-1.21,-1.25,1.14,1.14,1.14
464.07,2.08,0.92,2.09,0.93,-0.92,-1.16,-1.22,1.16,1.16,1.16
468.71,2.07,0.90,2.06,0.89,-0.88,-1.11,-1.19,1.19,1.18,1.17
473.40,2.03,0.85,2.03,0.85,-0.84,-1.06,-1.16,1.19,1.20,1.18
478.13,1.99,0.80,1.99,0.80,-0.79,-1.01,-1.14,1.20,1.20,1.19
482.91,1.95,0.75,1.95,0.75,-0.75,-0.96,-1.11,1.20,1.20,1.20
487.74,1.90,0.69,1.91,0.70,-0.71,-0.91,-1.08,1.19,1.20,1.21
492.62,1.87,0.65,1.87,0.65,-0.66,-0.86,-1.05,1.21,1.20,1.22
497.55,1.83,0.60,1.83,0.61,-0.62,-0.80,-1.02,1.21,1.21,1.23
502.52,1.81,0.57,1.81,0.57,-0.58,-0.75,-0.99,1.23,1.24,1.24
507.55,1.79,0.54,1.79,0.54,-0.54,-0.70,-0.95,1.26,1.26,1.26
512.62,1.78,0.52,1.77,0.50,-0.49,-0.64,-0.92,1.29,1.28,1.27
517.75,1.74,0.46,1.75,0.46,-0.45,-0.59,-0.88,1.29,1.29,1.29
522.93,1.71,0.42,1.71,0.42,-0.41,-0.54,-0.85,1.31,1.30,1.30
528.16,1.67,0.37,1.67,0.36,-0.36,-0.48,-0.81,1.31,1.31,1.30
