frequency,raw,smoothed,error,error_smoothed,equalization,parametric_eq,fixed_band_eq,equalized_raw,equalized_smoothed,target
20.00,14.63,14.63,6.48,6.48,-6.50,-6.45,-2.20,8.14,8.13,8.15
20.20,14.61,14.62,6.46,6.47,-6.47,-6.42,-2.27,8.14,8.15,8.15
20.40,14.60,14.60,6.45,6.45,-6.45,-6.39,-2.33,8.16,8.16,8.15
20.61,14.58,14.58,6.44,6.43,-6.42,-6.35,-2.40,8.17,8.16,8.15
20.81,14.54,14.55,6.40,6.40,-6.38,-6.31,-2.47,8.16,8.16,8.15
21.02,14.50,14.50,6.36,6.36,-6.35,-6.28,-2.55,8.16,8.16,8.15
21.23,14.45,14.45,6.31,6.31,-6.31,-6.24,-2.62,8.15,8.15,8.15
21.44,14.40,14.41,6.26,6.26,-6.26,-6.20,-2.70,8.14,8.14,8.15
21.66,14.35,14.35,6.21,6.21,-6.21,-6.16,-2.78,8.14,8.14,8.15
21.87,14.30,14.30,6.16,6.16,-6.16,-6.13,-2.86,8.15,8.14,8.14
22.09,14.24,14.24,6.10,6.10,-6.10,-6.09,-2.94,8.14,8.14,8.14
22.31,14.18,14.19,6.04,6.04,-6.05,-6.05,-3.03,8.14,8.14,8.14
22.54,14.13,14.13,5.99,5.99,-5.99,-6.01,-3.11,8.14,8.14,8.14
22.76,14.07,14.07,5.93,5.93,-5.93,-5.97,-3.20,8.14,8.14,8.14
22.99,14.01,14.02,5.87,5.88,-5.88,-5.93,-3.29,8.14,8.14,8.14
23.22,13.96,13.96,5.83,5.82,-5.82,-5.89,-3.39,8.14,8.14,8.14
23.45,13.90,13.90,5.77,5.77,-5.76,-5.84,-3.49,8.14,8.14,8.14
23.69,13.84,13.85,5.71,5.71,-5.71,-5.80,-3.58,8.14,8.14,8.14
23.92,13.79,13.79,5.66,5.65,-5.66,-5.76,-3.68,8.14,8.13,8.14
24.16,13.73,13.74,5.60,5.60,-5.60,-5.71,-3.79,8.13,8.13,8.13
24.40,13.68,13.68,5.55,5.55,-5.55,-5.67,-3.89,8.13,8.13,8.13
24.65,13.63,13.63,5.50,5.50,-5.50,-5.63,-4.00,8.13,8.13,8.13
24.89,13.58,13.59,5.45,5.46,-5.46,-5.58,-4.10,8.13,8.13,8.13
25.14,13.54,13.54,5.41,5.41,-5.41,-5.54,-4.21,8.13,8.13,8.13
25.39,13.49,13.50,5.37,5.37,-5.37,-5.49,-4.32,8.12,8.13,8.13
25.65,13.45,13.45,5.33,5.33,-5.33,-5.44,-4.42,8.13,8.13,8.13
25.91,13.41,13.41,5.29,5.29,-5.29,-5.40,-4.53,8.13,8.12,8.12
26.16,13.37,13.37,5.25,5.25,-5.25,-5.35,-4.64,8.12,8.13,8.12
26.43,13.33,13.33,5.21,5.21,-5.21,-5.30,-4.75,8.13,8.13,8.12
26.69,13.29,13.29,5.17,5.17,-5.17,-5.25,-4.85,8.13,8.12,8.12
26.96,13.24,13.25,5.13,5.13,-5.13,-5.21,-4.96,8.12,8.12,8.12
27.23,13.20,13.20,5.09,5.08,-5.09,-5.16,-5.06,8.12,8.11,8.12
27.50,13.15,13.16,5.04,5.04,-5.05,-5.11,-5.16,8.11,8.11,8.11
27.77,13.11,13.11,5.00,5.00,-5.00,-5.06,-5.25,8.11,8.11,8.11
28.05,13.07,13.07,4.96,4.96,-4.96,-5.01,-5.34,8.11,8.11,8.11
28.33,13.02,13.03,4.91,4.92,-4.92,-4.95,-5.43,8.11,8.11,8.11
28.62,12.98,12.98,4.88,4.87,-4.87,-4.90,-5.51,8.11,8.11,8.11
28.90,12.93,12.93,4.83,4.83,-4.82,-4.85,-5.58,8.11,8.11,8.10
29.19,12.87,12.88,4.77,4.78,-4.77,-4.80,-5.65,8.10,8.11,8.10
29.48,12.82,12.82,4.72,4.72,-4.72,-4.75,-5.70,8.10,8.10,8.10
29.78,12.76,12.76,4.67,4.66,-4.66,-4.69,-5.76,8.10,8.10,8.10
30.08,12.69,12.70,4.60,4.60,-4.60,-4.64,-5.80,8.09,8.09,8.09
30.38,12.63,12.63,4.54,4.54,-4.54,-4.59,-5.83,8.09,8.09,8.09
30.68,12.56,12.57,4.48,4.48,-4.48,-4.53,-5.85,8.08,8.08,8.09
30.99,12.50,12.51,4.42,4.42,-4.42,-4.48,-5.87,8.08,8.09,8.09
31.30,12.44,12.44,4.36,4.36,-4.36,-4.42,-5.87,8.08,8.08,8.08
31.61,12.38,12.38,4.30,4.30,-4.30,-4.37,-5.87,8.08,8.08,8.08
31.93,12.31,12.32,4.24,4.24,-4.24,-4.31,-5.85,8.07,8.08,8.08
32.24,12.25,12.25,4.18,4.18,-4.18,-4.26,-5.82,8.07,8.07,8.07
32.57,12.19,12.20,4.12,4.13,-4.13,-4.20,-5.79,8.07,8.07,8.07
32.89,12.14,12.14,4.08,4.07,-4.07,-4.14,-5.74,8.07,8.07,8.07
33.22,12.08,12.08,4.02,4.02,-4.02,-4.09,-5.69,8.06,8.06,8.06
33.55,12.02,12.03,3.97,3.97,-3.97,-4.03,-5.63,8.06,8.06,8.06
33.89,11.97,11.97,3.92,3.92,-3.92,-3.97,-5.56,8.06,8.05,8.05
34.23,11.91,11.92,3.86,3.87,-3.87,-3.92,-5.49,8.05,8.05,8.05
34.57,11.86,11.86,3.82,3.82,-3.82,-3.86,-5.40,8.04,8.04,8.05
34.92,11.81,11.81,3.77,3.77,-3.77,-3.80,-5.32,8.04,8.04,8.04
35.27,11.76,11.76,3.73,3.73,-3.73,-3.74,-5.23,8.04,8.04,8.04
35.62,11.71,11.71,3.68,3.68,-3.68,-3.69,-5.13,8.04,8.03,8.03
35.97,11.65,11.66,3.63,3.63,-3.63,-3.63,-5.03,8.02,8.03,8.03
36.33,11.60,11.60,3.58,3.58,-3.58,-3.57,-4.93,8.02,8.02,8.02
36.70,11.55,11.55,3.54,3.53,-3.54,-3.51,-4.83,8.02,8.01,8.02
37.06,11.49,11.50,3.48,3.49,-3.49,-3.46,-4.72,8.01,8.01,8.01
37.43,11.44,11.44,3.44,3.44,-3.43,-3.40,-4.61,8.01,8.01,8.00
37.81,11.38,11.38,3.39,3.39,-3.38,-3.34,-4.50,8.00,8.00,8.00
38.19,11.32,11.32,3.33,3.33,-3.33,-3.28,-4.40,8.00,8.00,7.99
38.57,11.26,11.26,3.28,3.28,-3.28,-3.23,-4.29,7.99,7.99,7.98
38.95,11.19,11.20,3.21,3.22,-3.22,-3.17,-4.18,7.97,7.97,7.98
39.34,11.13,11.13,3.16,3.16,-3.17,-3.11,-4.07,7.96,7.97,7.97
39.74,11.07,11.08,3.11,3.11,-3.12,-3.06,-3.97,7.96,7.96,7.96
40.14,11.02,11.02,3.07,3.07,-3.07,-3.00,-3.86,7.96,7.96,7.96
40.54,10.96,10.97,3.02,3.02,-3.02,-2.94,-3.76,7.95,7.95,7.95
40.94,10.91,10.91,2.97,2.97,-2.97,-2.89,-3.66,7.95,7.94,7.94
41.35,10.85,10.85,2.92,2.92,-2.92,-2.83,-3.56,7.93,7.93,7.93
41.76,10.79,10.80,2.87,2.87,-2.87,-2.78,-3.46,7.92,7.93,7.92
42.18,10.74,10.74,2.83,2.83,-2.82,-2.73,-3.36,7.92,7.92,7.91
42.60,10.68,10.68,2.78,2.78,-2.78,-2.67,-3.27,7.91,7.90,7.90
43.03,10.62,10.62,2.73,2.73,-2.73,-2.62,-3.18,7.89,7.89,7.89
43.46,10.56,10.57,2.68,2.68,-2.69,-2.57,-3.09,7.88,7.88,7.88
43.90,10.51,10.51,2.64,2.64,-2.64,-2.52,-3.00,7.87,7.87,7.87
44.33,10.46,10.46,2.60,2.60,-2.60,-2.46,-2.91,7.87,7.86,7.86
44.78,10.40,10.41,2.55,2.56,-2.55,-2.41,-2.83,7.85,7.85,7.85
45.23,10.35,10.36,2.51,2.51,-2.51,-2.37,-2.75,7.84,7.84,7.84
45.68,10.30,10.30,2.48,2.47,-2.47,-2.32,-2.67,7.83,7.83,7.83
46.13,10.25,10.25,2.44,2.43,-2.43,-2.27,-2.59,7.82,7.82,7.82
46.60,10.19,10.20,2.39,2.39,-2.39,-2.22,-2.52,7.80,7.80,7.80
47.06,10.14,10.14,2.35,2.35,-2.35,-2.18,-2.45,7.79,7.79,7.79
47.53,10.09,10.09,2.32,2.31,-2.32,-2.13,-2.38,7.78,7.77,7.78
48.01,10.03,10.04,2.27,2.28,-2.28,-2.09,-2.31,7.76,7.76,7.76
48.49,9.98,9.98,2.24,2.24,-2.24,-2.05,-2.24,7.75,7.75,7.75
48.97,9.93,9.93,2.20,2.20,-2.20,-2.01,-2.18,7.74,7.73,7.73
49.46,9.87,9.88,2.16,2.16,-2.16,-1.97,-2.12,7.71,7.72,7.72
49.96,9.82,9.82,2.12,2.12,-2.12,-1.93,-2.06,7.70,7.70,7.70
50.46,9.76,9.77,2.08,2.08,-2.08,-1.89,-2.00,7.68,7.68,7.68
50.96,9.71,9.71,2.05,2.05,-2.05,-1.85,-1.94,7.67,7.66,7.67
51.47,9.65,9.66,2.01,2.01,-2.01,-1.82,-1.89,7.64,7.65,7.65
51.99,9.60,9.60,1.98,1.98,-1.98,-1.78,-1.84,7.63,7.63,7.63
52.51,9.55,9.55,1.95,1.94,-1.94,-1.75,-1.79,7.61,7.61,7.61
53.03,9.49,9.50,1.90,1.91,-1.91,-1.72,-1.74,7.59,7.59,7.59
53.56,9.44,9.44,1.88,1.87,-1.87,-1.69,-1.69,7.57,7.57,7.57
54.10,9.38,9.39,1.84,1.84,-1.84,-1.66,-1.65,7.54,7.55,7.55
54.64,9.33,9.33,1.81,1.81,-1.81,-1.64,-1.60,7.52,7.52,7.53
55.18,9.28,9.28,1.78,1.78,-1.78,-1.61,-1.56,7.51,7.50,7.50
55.74,9.22,9.23,1.75,1.75,-1.75,-1.59,-1.52,7.48,7.48,7.48
56.29,9.17,9.17,1.72,1.72,-1.71,-1.57,-1.48,7.46,7.46,7.46
56.86,9.11,9.11,1.68,1.68,-1.68,-1.54,-1.45,7.43,7.43,7.43
57.42,9.05,9.06,1.65,1.65,-1.65,-1.53,-1.41,7.40,7.40,7.40
58.00,9.00,9.00,1.63,1.62,-1.62,-1.51,-1.38,7.38,7.38,7.38
58.58,8.94,8.94,1.59,1.59,-1.59,-1.49,-1.35,7.35,7.35,7.35
59.16,8.88,8.89,1.56,1.57,-1.56,-1.48,-1.32,7.32,7.32,7.32
59.76,8.83,8.83,1.54,1.54,-1.53,-1.46,-1.30,7.30,7.30,7.29
60.35,8.77,8.77,1.51,1.51,-1.51,-1.45,-1.27,7.27,7.27,7.26
60.96,8.71,8.72,1.48,1.48,-1.48,-1.44,-1.25,7.23,7.23,7.23
61.57,8.65,8.66,1.45,1.45,-1.46,-1.43,-1.23,7.20,7.20,7.20
62.18,8.60,8.60,1.43,1.43,-1.43,-1.42,-1.21,7.17,7.17,7.17
62.80,8.54,8.55,1.41,1.41,-1.41,-1.41,-1.19,7.13,7.14,7.14
63.43,8.49,8.49,1.39,1.39,-1.39,-1.40,-1.18,7.10,7.10,7.10
64.07,8.44,8.44,1.38,1.37,-1.37,-1.40,-1.16,7.07,7.07,7.07
64.71,8.38,8.39,1.35,1.36,-1.36,-1.40,-1.15,7.03,7.03,7.03
65.35,8.33,8.33,1.34,1.34,-1.34,-1.39,-1.14,6.99,7.00,6.99
66.01,8.28,8.28,1.33,1.32,-1.32,-1.39,-1.13,6.96,6.96,6.96
66.67,8.22,8.23,1.31,1.31,-1.31,-1.39,-1.13,6.91,6.92,6.92
67.33,8.17,8.17,1.30,1.30,-1.30,-1.39,-1.12,6.88,6.88,6.88
68.01,8.12,8.12,1.29,1.28,-1.29,-1.39,-1.12,6.84,6.83,6.84
68.69,8.06,8.07,1.27,1.27,-1.27,-1.39,-1.12,6.79,6.79,6.79
69.37,8.01,8.01,1.26,1.26,-1.26,-1.40,-1.12,6.75,6.75,6.75
70.07,7.96,7.96,1.26,1.26,-1.26,-1.40,-1.12,6.71,6.71,6.71
70.77,7.91,7.91,1.25,1.25,-1.25,-1.40,-1.12,6.66,6.66,6.66
71.48,7.86,7.86,1.25,1.25,-1.24,-1.41,-1.12,6.62,6.62,6.62
72.19,7.80,7.81,1.24,1.24,-1.24,-1.41,-1.13,6.56,6.57,6.57
72.91,7.75,7.75,1.23,1.23,-1.24,-1.42,-1.13,6.52,6.52,6.52
73.64,7.70,7.70,1.23,1.23,-1.23,-1.43,-1.14,6.47,6.47,6.47
74.38,7.65,7.65,1.23,1.23,-1.23,-1.43,-1.15,6.42,6.42,6.42
75.12,7.60,7.60,1.23,1.23,-1.23,-1.44,-1.16,6.37,6.37,6.37
75.87,7.55,7.55,1.24,1.24,-1.24,-1.45,-1.17,6.32,6.32,6.32
76.63,7.50,7.50,1.24,1.24,-1.24,-1.46,-1.18,6.26,6.26,6.26
77.40,7.45,7.45,1.24,1.24,-1.25,-1.46,-1.20,6.21,6.21,6.21
78.17,7.40,7.40,1.25,1.25,-1.25,-1.47,-1.21,6.15,6.15,6.15
78.95,7.35,7.36,1.26,1.26,-1.26,-1.48,-1.23,6.09,6.10,6.10
79.74,7.31,7.31,1.27,1.27,-1.27,-1.49,-1.25,6.05,6.04,6.04
80.54,7.26,7.26,1.28,1.28,-1.28,-1.50,-1.27,5.99,5.98,5.98
81.35,7.21,7.21,1.29,1.29,-1.29,-1.51,-1.28,5.92,5.93,5.92
82.16,7.16,7.16,1.30,1.30,-1.30,-1.52,-1.30,5.86,5.86,5.86
82.98,7.11,7.11,1.31,1.31,-1.31,-1.53,-1.33,5.80,5.80,5.80
83.81,7.06,7.07,1.32,1.33,-1.33,-1.54,-1.35,5.74,5.74,5.74
84.65,7.02,7.02,1.35,1.34,-1.34,-1.55,-1.37,5.68,5.68,5.68
85.50,6.97,6.97,1.36,1.36,-1.36,-1.56,-1.40,5.62,5.62,5.61
86.35,6.92,6.92,1.37,1.37,-1.37,-1.57,-1.42,5.55,5.55,5.55
87.22,6.87,6.87,1.39,1.39,-1.39,-1.58,-1.45,5.48,5.48,5.48
88.09,6.82,6.83,1.41,1.41,-1.41,-1.59,-1.48,5.41,5.42,5.42
88.97,6.78,6.78,1.43,1.43,-1.43,-1.60,-1.51,5.35,5.35,5.35
89.86,6.73,6.73,1.45,1.45,-1.45,-1.61,-1.54,5.28,5.28,5.28
90.76,6.68,6.69,1.47,1.47,-1.47,-1.62,-1.57,5.21,5.22,5.22
91.66,6.64,6.64,1.50,1.49,-1.49,-1.63,-1.60,5.15,5.15,5.15
92.58,6.59,6.59,1.52,1.52,-1.51,-1.64,-1.64,5.08,5.08,5.08
93.51,6.54,6.54,1.54,1.54,-1.53,-1.65,-1.67,5.01,5.01,5.01
94.44,6.49,6.49,1.56,1.56,-1.56,-1.66,-1.71,4.94,4.94,4.94
95.39,6.44,6.44,1.58,1.58,-1.58,-1.67,-1.74,4.87,4.86,4.87
96.34,6.39,6.39,1.60,1.60,-1.60,-1.68,-1.78,4.79,4.79,4.80
97.30,6.34,6.35,1.62,1.62,-1.62,-1.69,-1.82,4.72,4.72,4.72
98.28,6.30,6.30,1.65,1.65,-1.65,-1.70,-1.85,4.66,4.65,4.65
99.26,6.25,6.25,1.67,1.67,-1.67,-1.71,-1.89,4.58,4.58,4.58
100.25,6.20,6.21,1.70,1.70,-1.70,-1.72,-1.93,4.51,4.51,4.51
101.25,6.15,6.16,1.72,1.72,-1.72,-1.73,-1.97,4.43,4.43,4.44
102.27,6.11,6.11,1.75,1.75,-1.75,-1.74,-2.01,4.36,4.36,4.36
103.29,6.06,6.07,1.77,1.78,-1.78,-1.75,-2.05,4.29,4.29,4.29
104.32,6.02,6.02,1.81,1.80,-1.80,-1.76,-2.09,4.22,4.22,4.22
105.37,5.97,5.98,1.83,1.83,-1.83,-1.78,-2.13,4.14,4.14,4.14
106.42,5.93,5.93,1.86,1.86,-1.86,-1.79,-2.17,4.07,4.07,4.07
107.48,5.89,5.89,1.90,1.89,-1.89,-1.80,-2.21,4.00,4.00,4.00
108.56,5.84,5.85,1.92,1.92,-1.92,-1.81,-2.25,3.92,3.92,3.92
109.64,5.80,5.80,1.95,1.95,-1.95,-1.83,-2.29,3.85,3.85,3.85
110.74,5.76,5.76,1.98,1.98,-1.99,-1.84,-2.33,3.78,3.78,3.78
111.85,5.72,5.72,2.02,2.02,-2.02,-1.85,-2.36,3.71,3.71,3.71
112.97,5.68,5.68,2.05,2.05,-2.05,-1.87,-2.40,3.64,3.64,3.63
114.10,5.64,5.64,2.08,2.08,-2.08,-1.88,-2.43,3.56,3.56,3.56
115.24,5.60,5.60,2.11,2.11,-2.11,-1.90,-2.46,3.49,3.49,3.49
116.39,5.56,5.56,2.14,2.14,-2.14,-1.91,-2.49,3.42,3.42,3.42
117.55,5.52,5.52,2.17,2.17,-2.17,-1.93,-2.52,3.35,3.35,3.35
118.73,5.48,5.48,2.20,2.20,-2.20,-1.95,-2.54,3.28,3.28,3.28
119.92,5.44,5.44,2.23,2.23,-2.23,-1.97,-2.56,3.21,3.21,3.21
121.12,5.40,5.40,2.26,2.26,-2.26,-1.98,-2.58,3.15,3.14,3.14
122.33,5.35,5.36,2.28,2.28,-2.28,-2.00,-2.60,3.07,3.07,3.07
123.55,5.31,5.31,2.31,2.30,-2.31,-2.02,-2.61,3.01,3.00,3.01
124.79,5.26,5.27,2.32,2.33,-2.33,-2.04,-2.62,2.93,2.94,2.94
126.03,5.22,5.22,2.35,2.35,-2.35,-2.06,-2.63,2.87,2.87,2.87
127.29,5.18,5.18,2.38,2.37,-2.37,-2.08,-2.64,2.81,2.81,2.81
128.57,5.13,5.14,2.39,2.39,-2.39,-2.11,-2.64,2.74,2.74,2.74
129.85,5.09,5.09,2.41,2.41,-2.41,-2.13,-2.64,2.68,2.68,2.68
131.15,5.04,5.05,2.43,2.43,-2.43,-2.15,-2.64,2.61,2.62,2.62
132.46,5.00,5.00,2.45,2.45,-2.45,-2.17,-2.63,2.56,2.55,2.55
133.79,4.95,4.96,2.46,2.46,-2.46,-2.20,-2.62,2.49,2.49,2.49
135.12,4.91,4.91,2.48,2.48,-2.48,-2.22,-2.61,2.44,2.43,2.43
136.48,4.86,4.87,2.49,2.49,-2.49,-2.25,-2.60,2.37,2.37,2.37
137.84,4.82,4.82,2.51,2.51,-2.50,-2.27,-2.59,2.32,2.32,2.31
139.22,4.77,4.77,2.52,2.52,-2.52,-2.30,-2.57,2.26,2.26,2.26
140.61,4.72,4.73,2.52,2.52,-2.53,-2.32,-2.56,2.20,2.20,2.20
142.02,4.67,4.68,2.53,2.53,-2.53,-2.35,-2.54,2.14,2.14,2.15
143.44,4.63,4.63,2.54,2.54,-2.54,-2.38,-2.52,2.09,2.09,2.09
144.87,4.58,4.58,2.55,2.55,-2.54,-2.40,-2.50,2.04,2.04,2.04
146.32,4.53,4.53,2.55,2.55,-2.55,-2.43,-2.48,1.98,1.99,1.98
147.78,4.48,4.48,2.55,2.55,-2.55,-2.46,-2.47,1.93,1.93,1.93
149.26,4.43,4.43,2.55,2.55,-2.55,-2.49,-2.45,1.88,1.88,1.88
150.75,4.38,4.39,2.55,2.55,-2.56,-2.51,-2.43,1.83,1.83,1.83
152.26,4.34,4.34,2.56,2.56,-2.56,-2.54,-2.41,1.79,1.78,1.78
153.78,4.29,4.29,2.56,2.56,-2.55,-2.57,-2.39,1.74,1.74,1.74
155.32,4.24,4.24,2.55,2.55,-2.55,-2.59,-2.38,1.69,1.69,1.69
156.88,4.19,4.19,2.55,2.55,-2.55,-2.62,-2.36,1.65,1.65,1.64
158.44,4.14,4.14,2.54,2.55,-2.54,-2.65,-2.35,1.60,1.60,1.60
160.03,4.09,4.09,2.54,2.54,-2.53,-2.67,-2.33,1.56,1.56,1.56
161.63,4.04,4.04,2.54,2.53,-2.53,-2.70,-2.32,1.52,1.51,1.50
163.24,3.98,3.99,2.52,2.53,-2.52,-2.72,-2.31,1.46,1.47,1.46
164.88,3.94,3.94,2.52,2.52,-2.52,-2.74,-2.30,1.43,1.42,1.42
166.53,3.89,3.90,2.51,2.51,-2.52,-2.77,-2.29,1.38,1.38,1.38
168.19,3.86,3.86,2.52,2.52,-2.53,-2.79,-2.29,1.34,1.34,1.35
169.87,3.83,3.84,2.53,2.53,-2.54,-2.81,-2.28,1.29,1.29,1.31
171.57,3.82,3.83,2.55,2.56,-2.57,-2.83,-2.28,1.25,1.26,1.27
173.29,3.83,3.83,2.60,2.60,-2.61,-2.85,-2.28,1.23,1.22,1.24
175.02,3.84,3.85,2.64,2.65,-2.65,-2.87,-2.28,1.19,1.20,1.20
176.77,3.87,3.87,2.71,2.70,-2.70,-2.88,-2.28,1.17,1.17,1.17
178.54,3.89,3.89,2.76,2.76,-2.75,-2.90,-2.29,1.14,1.14,1.14
180.32,3.91,3.92,2.81,2.81,-2.80,-2.91,-2.30,1.11,1.12,1.10
182.13,3.93,3.93,2.86,2.86,-2.84,-2.92,-2.30,1.09,1.08,1.07
183.95,3.93,3.94,2.89,2.89,-2.88,-2.93,-2.31,1.05,1.05,1.04
185.79,3.93,3.94,2.92,2.92,-2.92,-2.94,-2.33,1.02,1.02,1.01
187.65,3.93,3.93,2.95,2.95,-2.95,-2.95,-2.34,0.99,0.98,0.99
189.52,3.92,3.92,2.97,2.97,-2.97,-2.95,-2.35,0.95,0.95,0.96
191.42,3.91,3.91,2.98,2.98,-2.99,-2.96,-2.37,0.92,0.93,0.93
193.33,3.90,3.90,3.00,3.00,-3.01,-2.96,-2.39,0.90,0.90,0.91
195.27,3.89,3.89,3.01,3.01,-3.02,-2.96,-2.41,0.87,0.87,0.88
197.22,3.88,3.89,3.03,3.03,-3.03,-2.95,-2.43,0.85,0.85,0.86
199.19,3.87,3.87,3.04,3.04,-3.04,-2.95,-2.45,0.83,0.83,0.83
201.18,3.86,3.86,3.05,3.05,-3.04,-2.94,-2.47,0.82,0.81,0.81
203.19,3.83,3.84,3.05,3.05,-3.04,-2.94,-2.49,0.79,0.79,0.79
205.23,3.80,3.81,3.04,3.04,-3.04,-2.93,-2.52,0.77,0.77,0.77
207.28,3.77,3.77,3.03,3.03,-3.02,-2.92,-2.54,0.75,0.75,0.74
209.35,3.73,3.73,3.01,3.01,-3.01,-2.90,-2.57,0.73,0.73,0.72
211.44,3.68,3.69,2.98,2.98,-2.98,-2.89,-2.59,0.70,0.71,0.71
213.56,3.64,3.64,2.96,2.96,-2.96,-2.87,-2.61,0.69,0.68,0.69
215.69,3.59,3.59,2.93,2.92,-2.93,-2.85,-2.64,0.67,0.66,0.67
217.85,3.54,3.55,2.89,2.89,-2.90,-2.83,-2.66,0.65,0.65,0.65
220.03,3.49,3.50,2.86,2.86,-2.87,-2.81,-2.68,0.63,0.63,0.63
222.23,3.45,3.45,2.84,2.83,-2.83,-2.79,-2.70,0.62,0.62,0.62
224.45,3.40,3.40,2.80,2.80,-2.80,-2.76,-2.72,0.60,0.60,0.60
226.70,3.35,3.36,2.77,2.77,-2.77,-2.74,-2.74,0.58,0.59,0.59
228.96,3.30,3.31,2.73,2.73,-2.74,-2.71,-2.75,0.56,0.57,0.57
231.25,3.26,3.26,2.71,2.71,-2.71,-2.68,-2.77,0.55,0.55,0.56
233.57,3.21,3.22,2.67,2.68,-2.68,-2.65,-2.78,0.54,0.54,0.54
235.90,3.17,3.17,2.66,2.65,-2.65,-2.62,-2.78,0.53,0.52,0.52
238.26,3.12,3.13,2.62,2.62,-2.62,-2.58,-2.79,0.51,0.51,0.51
240.64,3.08,3.08,2.59,2.59,-2.59,-2.55,-2.79,0.50,0.50,0.49
243.05,3.03,3.04,2.55,2.56,-2.55,-2.52,-2.78,0.48,0.48,0.48
245.48,2.99,2.99,2.52,2.52,-2.52,-2.48,-2.78,0.47,0.47,0.47
247.93,2.94,2.95,2.49,2.49,-2.49,-2.44,-2.77,0.45,0.46,0.46
250.41,2.90,2.90,2.46,2.46,-2.46,-2.41,-2.75,0.45,0.45,0.45
252.92,2.86,2.86,2.43,2.42,-2.42,-2.37,-2.73,0.44,0.43,0.44
255.45,2.81,2.82,2.39,2.39,-2.39,-2.33,-2.71,0.42,0.43,0.43
258.00,2.77,2.78,2.36,2.36,-2.36,-2.29,-2.69,0.42,0.42,0.42
260.58,2.73,2.73,2.33,2.33,-2.33,-2.25,-2.65,0.41,0.41,0.41
263.19,2.69,2.69,2.30,2.29,-2.29,-2.21,-2.62,0.40,0.40,0.40
265.82,2.64,2.65,2.26,2.26,-2.26,-2.17,-2.58,0.38,0.39,0.39
268.48,2.60,2.60,2.22,2.22,-2.23,-2.13,-2.55,0.38,0.38,0.38
271.16,2.56,2.56,2.19,2.19,-2.19,-2.09,-2.50,0.37,0.37,0.37
273.87,2.52,2.52,2.16,2.16,-2.16,-2.04,-2.46,0.37,0.37,0.36
276.61,2.48,2.48,2.13,2.13,-2.12,-2.00,-2.41,0.36,0.36,0.36
279.38,2.43,2.44,2.09,2.09,-2.09,-1.96,-2.36,0.35,0.35,0.35
282.17,2.39,2.39,2.05,2.05,-2.05,-1.92,-2.30,0.35,0.35,0.34
284.99,2.35,2.35,2.01,2.01,-2.01,-1.88,-2.25,0.34,0.34,0.34
287.84,2.31,2.31,1.97,1.97,-1.97,-1.83,-2.19,0.34,0.34,0.35
290.72,2.27,2.27,1.93,1.93,-1.93,-1.79,-2.13,0.34,0.34,0.34
293.63,2.22,2.23,1.89,1.89,-1.89,-1.75,-2.07,0.34,0.34,0.34
296.57,2.18,2.19,1.84,1.85,-1.84,-1.71,-2.01,0.34,0.34,0.34
299.53,2.14,2.14,1.80,1.80,-1.80,-1.67,-1.95,0.34,0.34,0.34
302.53,2.10,2.10,1.77,1.76,-1.76,-1.62,-1.89,0.34,0.34,0.34
305.55,2.05,2.06,1.71,1.72,-1.72,-1.58,-1.83,0.34,0.34,0.34
308.61,2.01,2.02,1.68,1.68,-1.68,-1.54,-1.77,0.34,0.34,0.34
311.69,1.97,1.97,1.63,1.63,-1.63,-1.50,-1.70,0.34,0.34,0.34
314.81,1.93,1.93,1.60,1.59,-1.59,-1.46,-1.64,0.34,0.34,0.34
317.96,1.88,1.89,1.54,1.55,-1.54,-1.42,-1.58,0.34,0.34,0.34
321.14,1.84,1.84,1.50,1.50,-1.50,-1.38,-1.52,0.34,0.34,0.34
324.35,1.80,1.80,1.46,1.46,-1.46,-1.33,-1.46,0.35,0.34,0.34
327.59,1.75,1.76,1.40,1.41,-1.41,-1.29,-1.40,0.34,0.35,0.35
330.87,1.71,1.71,1.37,1.36,-1.36,-1.25,-1.34,0.35,0.35,0.35
334.18,1.66,1.67,1.31,1.32,-1.32,-1.21,-1.28,0.35,0.35,0.35
337.52,1.62,1.62,1.27,1.27,-1.27,-1.18,-1.22,0.36,0.35,0.35
340.90,1.57,1.58,1.22,1.22,-1.22,-1.14,-1.16,0.35,0.36,0.36
344.30,1.53,1.53,1.17,1.17,-1.17,-1.10,-1.10,0.36,0.36,0.36
347.75,1.49,1.49,1.12,1.12,-1.12,-1.06,-1.05,0.37,0.37,0.37
351.23,1.44,1.45,1.08,1.07,-1.07,-1.02,-0.99,0.37,0.37,0.37
354.74,1.40,1.40,1.02,1.03,-1.02,-0.98,-0.93,0.38,0.38,0.38
358.28,1.35,1.36,0.97,0.97,-0.97,-0.95,-0.88,0.38,0.38,0.38
361.87,1.31,1.31,0.93,0.92,-0.92,-0.91,-0.83,0.39,0.39,0.39
365.49,1.26,1.27,0.87,0.87,-0.87,-0.87,-0.77,0.39,0.39,0.39
369.14,1.22,1.22,0.83,0.82,-0.82,-0.83,-0.72,0.40,0.40,0.39
372.83,1.17,1.18,0.76,0.77,-0.77,-0.80,-0.67,0.40,0.40,0.41
376.56,1.13,1.13,0.73,0.72,-0.72,-0.76,-0.62,0.41,0.41,0.41
380.33,1.08,1.08,0.67,0.67,-0.67,-0.73,-0.57,0.41,0.41,0.41
384.13,1.03,1.04,0.62,0.62,-0.62,-0.69,-0.52,0.41,0.42,0.41
387.97,0.99,0.99,0.57,0.57,-0.57,-0.66,-0.47,0.43,0.42,0.42
391.85,0.94,0.94,0.51,0.51,-0.51,-0.62,-0.42,0.43,0.43,0.44
395.77,0.89,0.90,0.46,0.46,-0.45,-0.59,-0.37,0.44,0.44,0.44
399.73,0.84,0.84,0.40,0.40,-0.39,-0.55,-0.33,0.45,0.45,0.44
403.72,0.79,0.79,0.34,0.34,-0.34,-0.52,-0.28,0.46,0.45,0.45
407.76,0.73,0.74,0.28,0.28,-0.28,-0.49,-0.24,0.46,0.46,0.45
411.84,0.68,0.68,0.23,0.22,-0.22,-0.45,-0.19,0.46,0.46,0.46
415.96,0.63,0.63,0.17,0.17,-0.17,-0.42,-0.15,0.46,0.46,0.47
420.12,0.59,0.59,0.13,0.13,-0.13,-0.39,-0.11,0.46,0.46,0.46
424.32,0.56,0.56,0.09,0.09,-0.10,-0.35,-0.06,0.46,0.46,0.47
428.56,0.54,0.54,0.06,0.06,-0.08,-0.32,-0.02,0.47,0.47,0.48
432.85,0.53,0.54,0.04,0.05,-0.06,-0.29,0.02,0.47,0.48,0.49
437.18,0.54,0.54,0.05,0.05,-0.05,-0.26,0.06,0.49,0.49,0.49
441.55,0.55,0.55,0.06,0.06,-0.06,-0.23,0.10,0.50,0.50,0.50
445.96,0.57,0.57,0.07,0.06,-0.06,-0.20,0.13,0.51,0.51,0.51
450.42,0.59,0.59,0.07,0.07,-0.07,-0.16,0.17,0.52,0.52,0.52
454.93,0.61,0.62,0.08,0.08,-0.08,-0.13,0.21,0.53,0.53,0.53
459.48,0.63,0.63,0.09,0.09,-0.09,-0.10,0.24,0.54,0.54,0.54
464.07,0.64,0.64,0.10,0.10,-0.09,-0.07,0.27,0.55,0.55,0.54
468.71,0.64,0.65,0.09,0.10,-0.09,-0.04,0.30,0.56,0.56,0.55
473.40,0.64,0.64,0.08,0.08,-0.07,-0.01,0.33,0.57,0.57,0.56
478.13,0.62,0.63,0.06,0.06,-0.05,0.02,0.36,0.57,0.57,0.57
482.91,0.60,0.60,0.03,0.03,-0.02,0.05,0.39,0.58,0.58,0.58
487.74,0.57,0.57,-0.01,-0.01,0.01,0.08,0.42,0.59,0.59,0.59
492.62,0.54,0.54,-0.05,-0.05,0.05,0.11,0.44,0.60,0.60,0.60
497.55,0.50,0.50,-0.10,-0.10,0.10,0.14,0.47,0.61,0.61,0.60
502.52,0.46,0.46,-0.15,-0.15,0.15,0.17,0.49,0.62,0.62,0.61
507.55,0.42,0.42,-0.21,-0.21,0.20,0.20,0.51,0.63,0.63,0.63
512.62,0.38,0.38,-0.26,-0.26,0.25,0.22,0.53,0.64,0.63,0.64
517.75,0.34,0.34,-0.31,-0.31,0.30,0.25,0.55,0.65,0.65,0.65
522.93,0.30,0.31,-0.36,-0.35,0.35,0.28,0.57,0.65,0.66,0.66
528.16,0.27,0.27,-0.40,-0.40,0.40,0.31,0.59,0.67,0.67,0.67
533.44,0.23,0.23,-0.45,-0.44,0.45,0.34,0.60,0.68,0.68,0.68
