frequency,raw,error,smoothed,error_smoothed,equalization,parametric_eq,equalized_raw,equalized_smoothed,target
20,-18.50,-20.38,-18.47,-20.34,6.00,2.64,-12.50,-12.47,1.88
21,-17.81,-19.69,-17.79,-19.66,6.00,3.03,-11.81,-11.79,1.88
22,-17.12,-19.00,-17.14,-19.01,6.00,3.46,-11.12,-11.14,1.88
23,-16.43,-18.31,-16.50,-18.37,6.00,3.92,-10.43,-10.50,1.88
24,-15.90,-17.77,-15.89,-17.76,6.00,4.40,-9.90,-9.89,1.87
25,-15.29,-17.16,-15.30,-17.17,6.00,4.91,-9.29,-9.30,1.87
26,-14.72,-16.59,-14.73,-16.60,6.00,5.41,-8.72,-8.73,1.87
27,-14.23,-16.09,-14.18,-16.05,6.00,5.89,-8.23,-8.18,1.86
28,-13.63,-15.49,-13.66,-15.52,6.00,6.32,-7.63,-7.66,1.86
29,-13.16,-15.02,-13.15,-15.01,6.00,6.68,-7.16,-7.15,1.86
30,-12.71,-14.56,-12.67,-14.52,6.00,6.94,-6.71,-6.67,1.85
31,-12.18,-14.03,-12.22,-14.06,6.00,7.09,-6.18,-6.22,1.85
32,-11.77,-13.61,-11.79,-13.62,6.00,7.14,-5.77,-5.79,1.84
33,-11.38,-13.21,-11.37,-13.20,6.00,7.09,-5.38,-5.37,1.83
34,-11.00,-12.83,-10.98,-12.80,6.00,6.98,-5.00,-4.98,1.83
35,-10.57,-12.39,-10.61,-12.42,6.00,6.81,-4.57,-4.61,1.82
36,-10.16,-11.97,-10.25,-12.05,6.00,6.62,-4.16,-4.25,1.81
37,-9.90,-11.70,-9.91,-11.71,6.00,6.43,-3.90,-3.91,1.80
38,-9.59,-11.38,-9.59,-11.37,6.00,6.24,-3.59,-3.59,1.79
39,-9.34,-11.12,-9.28,-11.05,6.00,6.06,-3.34,-3.28,1.78
40,-9.04,-10.81,-8.98,-10.74,6.00,5.91,-3.04,-2.98,1.77
41,-8.66,-10.42,-8.69,-10.43,6.00,5.77,-2.66,-2.69,1.76
42,-8.44,-10.19,-8.40,-10.14,6.00,5.67,-2.44,-2.40,1.75
43,-8.15,-9.89,-8.13,-9.85,6.00,5.58,-2.15,-2.13,1.74
44,-7.85,-9.57,-7.85,-9.57,6.00,5.52,-1.85,-1.85,1.72
45,-7.56,-9.27,-7.59,-9.29,6.00,5.49,-1.56,-1.59,1.71
46,-7.35,-9.04,-7.34,-9.01,6.00,5.47,-1.35,-1.34,1.69
47,-7.13,-8.81,-7.08,-8.75,6.00,5.48,-1.13,-1.08,1.68
48,-6.83,-8.49,-6.83,-8.49,6.00,5.50,-0.83,-0.83,1.66
49,-6.59,-8.23,-6.60,-8.24,6.00,5.54,-0.59,-0.60,1.64
50,-6.34,-7.96,-6.37,-7.99,6.00,5.58,-0.34,-0.37,1.62
51,-6.15,-7.75,-6.16,-7.76,6.00,5.64,-0.15,-0.16,1.60
52,-5.94,-7.52,-5.95,-7.53,6.00,5.70,0.06,0.05,1.58
53,-5.73,-7.29,-5.75,-7.32,6.00,5.77,0.27,0.25,1.56
54,-5.60,-7.14,-5.57,-7.11,6.00,5.83,0.40,0.43,1.54
55,-5.42,-6.93,-5.40,-6.92,6.00,5.90,0.58,0.60,1.51
56,-5.20,-6.69,-5.24,-6.73,6.00,5.95,0.80,0.76,1.49
57,-5.13,-6.59,-5.09,-6.56,6.00,5.99,0.87,0.91,1.46
58,-4.93,-6.37,-4.96,-6.39,6.00,6.03,1.07,1.04,1.44
59,-4.79,-6.20,-4.84,-6.24,5.98,6.04,1.19,1.14,1.41
60,-4.73,-6.11,-4.73,-6.09,5.93,6.04,1.20,1.20,1.38
61,-4.53,-5.88,-4.61,-5.94,5.85,6.03,1.32,1.24,1.35
62,-4.53,-5.85,-4.50,-5.80,5.76,5.99,1.23,1.26,1.32
63,-4.43,-5.72,-4.39,-5.67,5.65,5.94,1.22,1.26,1.29
64,-4.33,-5.59,-4.28,-5.53,5.53,5.87,1.20,1.25,1.26
65,-4.23,-5.46,-4.19,-5.39,5.39,5.78,1.16,1.21,1.23
66,-4.13,-5.33,-4.09,-5.26,5.26,5.68,1.13,1.17,1.20
67,-4.08,-5.24,-3.99,-5.14,5.14,5.57,1.06,1.14,1.16
68,-3.90,-5.03,-3.91,-5.01,5.01,5.44,1.11,1.11,1.13
69,-3.83,-4.92,-3.82,-4.90,4.90,5.31,1.07,1.08,1.09
70,-3.63,-4.69,-3.74,-4.79,4.79,5.17,1.16,1.05,1.06
71,-3.63,-4.65,-3.67,-4.68,4.68,5.03,1.05,1.01,1.02
72,-3.52,-4.50,-3.60,-4.59,4.59,4.88,1.07,0.98,0.98
73,-3.54,-4.48,-3.55,-4.50,4.50,4.73,0.96,0.95,0.94
74,-3.55,-4.46,-3.52,-4.42,4.42,4.59,0.87,0.91,0.91
75,-3.43,-4.30,-3.48,-4.35,4.35,4.44,0.92,0.86,0.87
76,-3.43,-4.26,-3.46,-4.27,4.27,4.29,0.84,0.82,0.83
77,-3.43,-4.22,-3.43,-4.20,4.20,4.15,0.77,0.77,0.79
78,-3.43,-4.18,-3.41,-4.13,4.13,4.01,0.70,0.73,0.75
79,-3.43,-4.14,-3.38,-4.06,4.06,3.87,0.63,0.68,0.71
80,-3.38,-4.05,-3.35,-3.98,3.98,3.74,0.60,0.64,0.67
81,-3.33,-3.96,-3.29,-3.90,3.90,3.61,0.57,0.60,0.63
82,-3.33,-3.92,-3.24,-3.80,3.80,3.48,0.47,0.56,0.59
83,-3.23,-3.77,-3.18,-3.70,3.70,3.36,0.47,0.52,0.54
84,-3.11,-3.61,-3.11,-3.59,3.59,3.24,0.48,0.48,0.50
85,-3.02,-3.48,-3.04,-3.48,3.48,3.13,0.46,0.44,0.46
86,-2.91,-3.33,-2.95,-3.36,3.36,3.02,0.45,0.41,0.42
87,-2.82,-3.20,-2.87,-3.24,3.24,2.92,0.42,0.37,0.38
88,-2.82,-3.16,-2.79,-3.12,3.12,2.81,0.30,0.33,0.34
89,-2.65,-2.94,-2.71,-3.00,3.00,2.72,0.35,0.30,0.29
90,-2.62,-2.87,-2.63,-2.89,2.89,2.62,0.27,0.26,0.25
91,-2.62,-2.83,-2.56,-2.78,2.78,2.53,0.16,0.22,0.21
92,-2.43,-2.60,-2.49,-2.67,2.67,2.45,0.24,0.18,0.17
93,-2.41,-2.54,-2.44,-2.57,2.57,2.36,0.16,0.13,0.13
94,-2.41,-2.50,-2.38,-2.47,2.47,2.28,0.06,0.09,0.09
95,-2.31,-2.36,-2.33,-2.37,2.37,2.21,0.06,0.05,0.05
96,-2.32,-2.33,-2.28,-2.29,2.29,2.13,-0.03,0.01,0.01
97,-2.22,-2.19,-2.24,-2.20,2.20,2.06,-0.02,-0.04,-0.03
98,-2.23,-2.16,-2.19,-2.12,2.12,1.99,-0.11,-0.07,-0.07
99,-2.14,-2.03,-2.16,-2.04,2.04,1.93,-0.10,-0.12,-0.11
100,-2.16,-2.01,-2.13,-1.97,1.97,1.86,-0.19,-0.16,-0.15
101,-2.07,-1.88,-2.11,-1.90,1.90,1.80,-0.17,-0.20,-0.19
102,-2.09,-1.87,-2.09,-1.84,1.84,1.74,-0.25,-0.25,-0.22
104,-2.01,-1.71,-2.06,-1.78,1.78,1.63,-0.23,-0.28,-0.30
105,-2.04,-1.71,-2.04,-1.72,1.72,1.58,-0.32,-0.32,-0.33
106,-2.06,-1.69,-2.03,-1.67,1.67,1.53,-0.39,-0.36,-0.37
107,-2.03,-1.62,-2.02,-1.62,1.62,1.48,-0.41,-0.40,-0.41
108,-2.01,-1.57,-2.02,-1.58,1.58,1.43,-0.43,-0.45,-0.44
109,-2.03,-1.55,-2.02,-1.53,1.53,1.39,-0.50,-0.49,-0.48
110,-2.01,-1.50,-2.01,-1.49,1.49,1.34,-0.52,-0.53,-0.51
111,-1.97,-1.43,-2.00,-1.44,1.44,1.30,-0.53,-0.56,-0.54
112,-1.98,-1.40,-1.99,-1.40,1.40,1.26,-0.58,-0.60,-0.58
113,-1.99,-1.38,-1.97,-1.35,1.35,1.22,-0.64,-0.63,-0.61
114,-1.99,-1.35,-1.96,-1.30,1.30,1.18,-0.69,-0.66,-0.64
115,-1.99,-1.33,-1.93,-1.25,1.25,1.15,-0.74,-0.68,-0.66
117,-1.99,-1.27,-1.91,-1.20,1.20,1.08,-0.79,-0.72,-0.72
118,-1.91,-1.17,-1.89,-1.14,1.14,1.05,-0.77,-0.75,-0.74
119,-1.79,-1.02,-1.86,-1.09,1.09,1.02,-0.70,-0.77,-0.77
120,-1.78,-0.99,-1.84,-1.04,1.04,0.99,-0.74,-0.80,-0.79
121,-1.77,-0.96,-1.81,-0.98,0.98,0.96,-0.79,-0.83,-0.81
123,-1.76,-0.91,-1.79,-0.93,0.93,0.90,-0.83,-0.86,-0.85
124,-1.75,-0.88,-1.75,-0.88,0.88,0.88,-0.87,-0.87,-0.87
125,-1.75,-0.87,-1.72,-0.82,0.82,0.85,-0.93,-0.89,-0.88
126,-1.74,-0.84,-1.68,-0.77,0.77,0.83,-0.97,-0.91,-0.90
128,-1.69,-0.76,-1.66,-0.72,0.72,0.79,-0.97,-0.93,-0.93
129,-1.63,-0.68,-1.63,-0.68,0.68,0.76,-0.95,-0.95,-0.95
130,-1.62,-0.66,-1.61,-0.63,0.63,0.75,-0.99,-0.98,-0.96
131,-1.61,-0.63,-1.59,-0.59,0.59,0.73,-1.02,-1.00,-0.98
133,-1.51,-0.50,-1.57,-0.55,0.55,0.69,-0.96,-1.02,-1.01
134,-1.51,-0.48,-1.54,-0.51,0.51,0.67,-1.00,-1.04,-1.03
135,-1.50,-0.46,-1.52,-0.47,0.47,0.66,-1.03,-1.06,-1.04
137,-1.50,-0.42,-1.51,-0.43,0.43,0.63,-1.07,-1.08,-1.08
138,-1.50,-0.41,-1.50,-0.40,0.40,0.61,-1.10,-1.10,-1.09
140,-1.49,-0.37,-1.49,-0.37,0.37,0.58,-1.12,-1.12,-1.12
141,-1.49,-0.35,-1.48,-0.34,0.34,0.57,-1.15,-1.15,-1.14
142,-1.49,-0.34,-1.48,-0.31,0.31,0.56,-1.18,-1.17,-1.15
144,-1.49,-0.30,-1.47,-0.28,0.28,0.53,-1.21,-1.19,-1.19
145,-1.49,-0.29,-1.47,-0.26,0.26,0.52,-1.23,-1.21,-1.20
147,-1.49,-0.26,-1.47,-0.24,0.24,0.50,-1.25,-1.23,-1.23
148,-1.49,-0.25,-1.47,-0.22,0.22,0.49,-1.27,-1.25,-1.24
150,-1.49,-0.22,-1.47,-0.21,0.21,0.47,-1.28,-1.27,-1.27
151,-1.45,-0.17,-1.48,-0.20,0.20,0.46,-1.25,-1.29,-1.28
153,-1.49,-0.19,-1.50,-0.19,0.19,0.44,-1.30,-1.31,-1.30
154,-1.49,-0.18,-1.51,-0.19,0.19,0.43,-1.30,-1.33,-1.31
156,-1.47,-0.13,-1.53,-0.19,0.19,0.42,-1.28,-1.35,-1.34
157,-1.47,-0.12,-1.56,-0.19,0.19,0.41,-1.28,-1.37,-1.35
159,-1.59,-0.22,-1.58,-0.19,0.19,0.39,-1.40,-1.39,-1.37
160,-1.62,-0.24,-1.60,-0.20,0.20,0.39,-1.42,-1.40,-1.38
162,-1.71,-0.31,-1.62,-0.20,0.20,0.37,-1.51,-1.42,-1.40
164,-1.69,-0.27,-1.64,-0.21,0.21,0.36,-1.48,-1.43,-1.42
165,-1.70,-0.27,-1.67,-0.21,0.21,0.35,-1.49,-1.45,-1.43
167,-1.70,-0.25,-1.69,-0.22,0.22,0.34,-1.48,-1.47,-1.45
169,-1.71,-0.24,-1.71,-0.22,0.22,0.32,-1.49,-1.49,-1.47
170,-1.71,-0.22,-1.73,-0.22,0.22,0.32,-1.49,-1.51,-1.49
172,-1.72,-0.21,-1.75,-0.22,0.22,0.30,-1.50,-1.52,-1.51
174,-1.72,-0.20,-1.76,-0.23,0.23,0.29,-1.49,-1.53,-1.52
175,-1.71,-0.18,-1.76,-0.23,0.23,0.29,-1.48,-1.53,-1.53
177,-1.77,-0.22,-1.77,-0.23,0.23,0.27,-1.54,-1.54,-1.55
179,-1.84,-0.28,-1.78,-0.24,0.24,0.26,-1.60,-1.54,-1.56
181,-1.83,-0.26,-1.80,-0.25,0.25,0.25,-1.58,-1.55,-1.57
183,-1.83,-0.26,-1.82,-0.26,0.26,0.24,-1.57,-1.56,-1.57
184,-1.82,-0.26,-1.84,-0.28,0.28,0.24,-1.54,-1.56,-1.56
186,-1.82,-0.26,-1.86,-0.29,0.29,0.22,-1.53,-1.57,-1.56
188,-1.89,-0.33,-1.87,-0.31,0.31,0.21,-1.58,-1.57,-1.56
190,-1.88,-0.33,-1.88,-0.32,0.32,0.20,-1.56,-1.56,-1.55
192,-1.88,-0.34,-1.89,-0.33,0.33,0.19,-1.55,-1.56,-1.54
194,-1.95,-0.41,-1.89,-0.34,0.34,0.18,-1.61,-1.55,-1.54
196,-1.93,-0.40,-1.90,-0.35,0.35,0.17,-1.58,-1.54,-1.53
198,-1.92,-0.39,-1.90,-0.36,0.36,0.16,-1.56,-1.54,-1.53
200,-1.91,-0.39,-1.91,-0.37,0.37,0.16,-1.54,-1.53,-1.52
202,-1.90,-0.38,-1.91,-0.38,0.38,0.15,-1.52,-1.53,-1.52
204,-1.90,-0.38,-1.92,-0.39,0.39,0.14,-1.51,-1.53,-1.52
206,-1.90,-0.38,-1.93,-0.40,0.40,0.13,-1.50,-1.53,-1.52
208,-1.90,-0.37,-1.95,-0.42,0.42,0.12,-1.48,-1.53,-1.53
210,-1.93,-0.40,-1.97,-0.43,0.43,0.11,-1.50,-1.54,-1.53
212,-2.00,-0.46,-1.99,-0.44,0.44,0.10,-1.56,-1.55,-1.54
214,-2.00,-0.45,-2.02,-0.45,0.45,0.10,-1.55,-1.56,-1.55
216,-2.01,-0.45,-2.04,-0.47,0.47,0.09,-1.54,-1.57,-1.56
218,-2.01,-0.44,-2.06,-0.47,0.47,0.08,-1.54,-1.59,-1.57
221,-2.12,-0.54,-2.07,-0.47,0.47,0.07,-1.65,-1.59,-1.58
223,-2.12,-0.54,-2.07,-0.47,0.47,0.06,-1.65,-1.60,-1.58
225,-2.12,-0.53,-2.06,-0.46,0.46,0.06,-1.66,-1.60,-1.59
227,-2.12,-0.53,-2.04,-0.44,0.44,0.05,-1.68,-1.60,-1.59
229,-2.05,-0.47,-2.01,-0.41,0.41,0.04,-1.64,-1.60,-1.58
232,-1.99,-0.41,-1.97,-0.38,0.38,0.04,-1.61,-1.59,-1.58
234,-1.90,-0.33,-1.93,-0.34,0.34,0.03,-1.56,-1.59,-1.57
236,-1.84,-0.28,-1.87,-0.29,0.29,0.03,-1.55,-1.58,-1.56
239,-1.78,-0.23,-1.81,-0.24,0.24,0.02,-1.54,-1.57,-1.55
241,-1.70,-0.16,-1.74,-0.19,0.19,0.02,-1.51,-1.55,-1.54
244,-1.64,-0.12,-1.66,-0.13,0.13,0.01,-1.51,-1.53,-1.52
246,-1.62,-0.11,-1.59,-0.07,0.07,0.01,-1.55,-1.51,-1.51
248,-1.56,-0.07,-1.52,-0.02,0.02,0.00,-1.54,-1.50,-1.49
251,-1.48,-0.00,-1.45,0.03,-0.03,-0.00,-1.51,-1.48,-1.48
253,-1.42,0.04,-1.40,0.07,-0.07,-0.00,-1.49,-1.47,-1.46
256,-1.38,0.08,-1.35,0.11,-0.11,-0.01,-1.49,-1.47,-1.46
259,-1.25,0.20,-1.32,0.14,-0.14,-0.01,-1.39,-1.46,-1.45
261,-1.23,0.21,-1.29,0.17,-0.17,-0.01,-1.40,-1.45,-1.44
264,-1.22,0.22,-1.26,0.18,-0.18,-0.02,-1.40,-1.44,-1.44
266,-1.23,0.21,-1.25,0.19,-0.19,-0.02,-1.42,-1.44,-1.44
269,-1.23,0.21,-1.25,0.19,-0.19,-0.02,-1.42,-1.44,-1.44
272,-1.23,0.21,-1.26,0.18,-0.18,-0.02,-1.41,-1.44,-1.44
274,-1.24,0.20,-1.27,0.16,-0.16,-0.02,-1.40,-1.44,-1.44
277,-1.35,0.09,-1.29,0.14,-0.14,-0.02,-1.49,-1.44,-1.44
280,-1.37,0.07,-1.32,0.12,-0.12,-0.02,-1.49,-1.44,-1.44
283,-1.34,0.09,-1.34,0.10,-0.10,-0.02,-1.44,-1.43,-1.43
286,-1.33,0.10,-1.37,0.07,-0.07,-0.02,-1.40,-1.44,-1.43
288,-1.41,0.01,-1.39,0.05,-0.05,-0.02,-1.46,-1.44,-1.42
291,-1.47,-0.06,-1.39,0.03,-0.03,-0.02,-1.50,-1.42,-1.41
294,-1.40,0.00,-1.38,0.02,-0.02,-0.02,-1.42,-1.41,-1.40
297,-1.39,0.00,-1.38,0.01,-0.01,-0.02,-1.40,-1.39,-1.39
300,-1.37,0.01,-1.38,0.01,-0.01,-0.02,-1.38,-1.39,-1.38
303,-1.36,0.01,-1.37,0.01,-0.01,-0.02,-1.37,-1.38,-1.37
306,-1.35,0.01,-1.36,0.02,-0.02,-0.01,-1.37,-1.38,-1.36
309,-1.34,0.01,-1.34,0.03,-0.03,-0.01,-1.37,-1.37,-1.35
312,-1.34,0.00,-1.32,0.05,-0.05,-0.01,-1.39,-1.37,-1.34
316,-1.15,0.19,-1.29,0.07,-0.07,-0.01,-1.22,-1.37,-1.34
319,-1.18,0.15,-1.25,0.11,-0.11,-0.01,-1.29,-1.36,-1.33
322,-1.29,0.04,-1.21,0.14,-0.14,-0.01,-1.43,-1.35,-1.33
325,-1.30,0.03,-1.17,0.18,-0.18,-0.01,-1.48,-1.35,-1.33
328,-1.26,0.07,-1.12,0.23,-0.23,-0.01,-1.49,-1.35,-1.33
332,-1.10,0.23,-1.07,0.27,-0.27,-0.01,-1.37,-1.34,-1.33
335,-1.03,0.30,-1.03,0.31,-0.31,-0.00,-1.34,-1.34,-1.33
338,-0.95,0.38,-0.99,0.35,-0.35,-0.00,-1.30,-1.34,-1.33
342,-0.89,0.43,-0.96,0.39,-0.39,-0.00,-1.28,-1.35,-1.32
345,-0.84,0.48,-0.93,0.42,-0.42,-0.00,-1.26,-1.35,-1.32
349,-0.84,0.48,-0.90,0.44,-0.44,-0.00,-1.28,-1.34,-1.32
352,-0.84,0.48,-0.86,0.45,-0.45,0.00,-1.29,-1.32,-1.32
356,-0.83,0.48,-0.84,0.46,-0.46,0.00,-1.29,-1.30,-1.31
359,-0.83,0.48,-0.84,0.45,-0.45,0.00,-1.28,-1.29,-1.31
363,-0.93,0.37,-0.85,0.44,-0.44,0.00,-1.37,-1.29,-1.30
366,-0.98,0.31,-0.88,0.42,-0.42,0.00,-1.40,-1.30,-1.29
370,-0.91,0.37,-0.90,0.39,-0.39,0.00,-1.30,-1.30,-1.28
374,-0.86,0.41,-0.93,0.36,-0.36,0.01,-1.22,-1.29,-1.27
377,-0.83,0.44,-0.96,0.33,-0.33,0.01,-1.16,-1.29,-1.27
381,-0.95,0.31,-0.98,0.31,-0.31,0.01,-1.26,-1.29,-1.26
385,-1.03,0.22,-1.00,0.28,-0.28,0.01,-1.31,-1.28,-1.25
389,-1.14,0.11,-1.02,0.25,-0.25,0.01,-1.39,-1.27,-1.25
393,-1.09,0.15,-1.03,0.23,-0.23,0.01,-1.32,-1.26,-1.24
397,-1.07,0.17,-1.05,0.21,-0.21,0.01,-1.28,-1.26,-1.24
401,-1.07,0.17,-1.07,0.19,-0.19,0.01,-1.26,-1.26,-1.24
405,-1.07,0.17,-1.09,0.17,-0.17,0.01,-1.24,-1.26,-1.24
409,-1.08,0.16,-1.11,0.15,-0.15,0.01,-1.23,-1.27,-1.24
413,-1.08,0.16,-1.13,0.14,-0.14,0.01,-1.22,-1.27,-1.24
417,-1.08,0.16,-1.14,0.13,-0.13,0.01,-1.21,-1.26,-1.24
421,-1.08,0.15,-1.13,0.11,-0.11,0.01,-1.19,-1.25,-1.23
425,-1.08,0.14,-1.12,0.10,-0.10,0.02,-1.18,-1.22,-1.22
430,-1.22,-0.02,-1.10,0.09,-0.09,0.02,-1.31,-1.19,-1.20
434,-1.21,-0.03,-1.09,0.07,-0.07,0.02,-1.28,-1.17,-1.18
438,-1.12,0.03,-1.08,0.06,-0.06,0.02,-1.18,-1.14,-1.15
443,-1.08,0.03,-1.06,0.05,-0.05,0.02,-1.13,-1.11,-1.11
447,-1.04,0.02,-1.04,0.03,-0.03,0.02,-1.07,-1.07,-1.06
451,-0.98,0.03,-1.00,0.02,-0.02,0.02,-1.00,-1.02,-1.01
456,-0.93,0.03,-0.97,0.00,-0.00,0.03,-0.93,-0.97,-0.96
460,-0.86,0.04,-0.92,-0.01,0.01,0.03,-0.85,-0.91,-0.90
465,-0.80,0.04,-0.87,-0.02,0.02,0.03,-0.78,-0.85,-0.84
470,-0.82,-0.04,-0.82,-0.03,0.03,0.03,-0.79,-0.79,-0.78
474,-0.89,-0.17,-0.77,-0.04,0.04,0.04,-0.85,-0.73,-0.72
479,-0.77,-0.10,-0.73,-0.05,0.05,0.04,-0.72,-0.67,-0.67
484,-0.69,-0.07,-0.69,-0.06,0.06,0.04,-0.63,-0.63,-0.62
489,-0.64,-0.07,-0.66,-0.07,0.07,0.05,-0.57,-0.59,-0.57
494,-0.61,-0.08,-0.62,-0.07,0.07,0.05,-0.54,-0.55,-0.53
499,-0.58,-0.09,-0.60,-0.08,0.08,0.06,-0.50,-0.52,-0.49
504,-0.56,-0.09,-0.57,-0.08,0.08,0.06,-0.48,-0.49,-0.47
509,-0.54,-0.09,-0.54,-0.08,0.08,0.07,-0.46,-0.46,-0.45
514,-0.53,-0.09,-0.53,-0.08,0.08,0.07,-0.45,-0.45,-0.44
519,-0.52,-0.08,-0.52,-0.08,0.08,0.08,-0.44,-0.44,-0.44
524,-0.53,-0.09,-0.54,-0.09,0.09,0.08,-0.44,-0.45,-0.44
529,-0.54,-0.08,-0.57,-0.10,0.10,0.09,-0.44,-0.47,-0.46
535,-0.56,-0.08,-0.60,-0.11,0.11,0.10,-0.45,-0.49,-0.48
540,-0.59,-0.09,-0.65,-0.12,0.12,0.10,-0.47,-0.52,-0.50
545,-0.63,-0.09,-0.70,-0.13,0.13,0.11,-0.50,-0.56,-0.54
551,-0.67,-0.10,-0.75,-0.15,0.15,0.12,-0.52,-0.60,-0.57
556,-0.83,-0.23,-0.78,-0.17,0.17,0.13,-0.66,-0.61,-0.60
562,-1.00,-0.36,-0.82,-0.19,0.19,0.13,-0.81,-0.63,-0.64
568,-0.93,-0.27,-0.88,-0.21,0.21,0.14,-0.72,-0.66,-0.66
573,-0.97,-0.28,-0.93,-0.24,0.24,0.15,-0.73,-0.69,-0.69
579,-1.00,-0.29,-0.98,-0.27,0.27,0.16,-0.73,-0.71,-0.71
585,-1.03,-0.31,-1.03,-0.30,0.30,0.17,-0.73,-0.73,-0.72
591,-1.04,-0.32,-1.07,-0.33,0.33,0.18,-0.71,-0.75,-0.72
596,-1.04,-0.32,-1.10,-0.35,0.35,0.19,-0.69,-0.74,-0.72
602,-0.92,-0.21,-1.10,-0.38,0.38,0.20,-0.54,-0.72,-0.71
608,-1.01,-0.32,-1.11,-0.42,0.42,0.21,-0.59,-0.69,-0.69
615,-1.34,-0.67,-1.12,-0.45,0.45,0.22,-0.89,-0.66,-0.67
621,-1.27,-0.63,-1.12,-0.49,0.49,0.24,-0.78,-0.63,-0.64
627,-1.17,-0.56,-1.13,-0.53,0.53,0.25,-0.64,-0.61,-0.61
633,-1.14,-0.57,-1.14,-0.57,0.57,0.26,-0.57,-0.57,-0.57
639,-1.11,-0.59,-1.14,-0.60,0.60,0.27,-0.51,-0.53,-0.52
646,-1.07,-0.60,-1.13,-0.64,0.64,0.29,-0.43,-0.49,-0.47
652,-0.94,-0.52,-1.11,-0.67,0.67,0.30,-0.27,-0.43,-0.42
659,-1.06,-0.69,-1.10,-0.70,0.70,0.31,-0.36,-0.39,-0.37
665,-1.25,-0.93,-1.08,-0.73,0.73,0.33,-0.52,-0.35,-0.32
672,-1.08,-0.81,-1.04,-0.76,0.76,0.34,-0.32,-0.29,-0.27
679,-1.03,-0.81,-1.00,-0.78,0.78,0.36,-0.25,-0.22,-0.22
686,-0.99,-0.81,-0.98,-0.80,0.80,0.37,-0.19,-0.19,-0.18
692,-0.95,-0.81,-0.97,-0.82,0.82,0.39,-0.13,-0.16,-0.14
699,-0.92,-0.81,-0.96,-0.83,0.83,0.40,-0.09,-0.13,-0.11
706,-0.90,-0.82,-0.95,-0.84,0.84,0.42,-0.06,-0.11,-0.08
713,-0.92,-0.85,-0.95,-0.85,0.85,0.44,-0.07,-0.10,-0.07
721,-0.99,-0.93,-0.94,-0.86,0.86,0.46,-0.13,-0.08,-0.06
728,-0.88,-0.82,-0.92,-0.86,0.86,0.47,-0.02,-0.06,-0.06
735,-0.85,-0.79,-0.91,-0.86,0.86,0.49,0.01,-0.05,-0.06
742,-0.88,-0.82,-0.91,-0.86,0.86,0.51,-0.02,-0.05,-0.06
750,-0.91,-0.85,-0.91,-0.86,0.86,0.53,-0.05,-0.05,-0.06
757,-0.99,-0.93,-0.90,-0.85,0.85,0.55,-0.14,-0.05,-0.06
765,-0.96,-0.91,-0.89,-0.84,0.84,0.57,-0.12,-0.05,-0.05
773,-0.91,-0.86,-0.87,-0.82,0.82,0.59,-0.09,-0.05,-0.05
780,-0.86,-0.82,-0.84,-0.81,0.81,0.60,-0.05,-0.04,-0.04
788,-0.81,-0.78,-0.81,-0.79,0.79,0.62,-0.02,-0.02,-0.03
796,-0.78,-0.77,-0.78,-0.77,0.77,0.64,-0.01,-0.01,-0.01
804,-0.69,-0.70,-0.75,-0.75,0.75,0.66,0.06,-0.00,0.01
812,-0.69,-0.71,-0.71,-0.72,0.72,0.68,0.03,0.01,0.02
820,-0.68,-0.72,-0.66,-0.69,0.69,0.70,0.01,0.03,0.04
828,-0.62,-0.68,-0.61,-0.66,0.66,0.72,0.04,0.05,0.06
837,-0.56,-0.63,-0.57,-0.64,0.64,0.73,0.08,0.07,0.07
845,-0.47,-0.55,-0.53,-0.61,0.61,0.75,0.14,0.07,0.08
853,-0.48,-0.58,-0.50,-0.58,0.58,0.77,0.10,0.08,0.10
862,-0.48,-0.58,-0.45,-0.55,0.55,0.78,0.07,0.09,0.10
871,-0.45,-0.56,-0.41,-0.52,0.52,0.80,0.07,0.11,0.11
879,-0.40,-0.52,-0.37,-0.49,0.49,0.81,0.09,0.12,0.12
888,-0.33,-0.45,-0.35,-0.47,0.47,0.82,0.14,0.12,0.12
897,-0.31,-0.44,-0.31,-0.44,0.44,0.83,0.13,0.13,0.13
906,-0.32,-0.45,-0.29,-0.42,0.42,0.84,0.10,0.13,0.13
915,-0.26,-0.40,-0.27,-0.40,0.40,0.85,0.14,0.13,0.14
924,-0.22,-0.36,-0.24,-0.38,0.38,0.85,0.16,0.14,0.14
933,-0.13,-0.28,-0.22,-0.37,0.37,0.85,0.24,0.15,0.15
943,-0.13,-0.29,-0.19,-0.35,0.35,0.85,0.22,0.16,0.16
952,-0.21,-0.38,-0.18,-0.34,0.34,0.85,0.13,0.17,0.17
962,-0.22,-0.40,-0.15,-0.33,0.33,0.85,0.11,0.18,0.18
971,-0.21,-0.40,-0.13,-0.33,0.33,0.84,0.12,0.19,0.19
981,-0.13,-0.34,-0.11,-0.32,0.32,0.83,0.19,0.21,0.21
991,-0.09,-0.31,-0.09,-0.32,0.32,0.81,0.23,0.22,0.22
1001,0.01,-0.23,-0.07,-0.31,0.31,0.80,0.32,0.24,0.24
1011,-0.02,-0.28,-0.05,-0.31,0.31,0.78,0.29,0.26,0.26
1021,-0.07,-0.35,-0.03,-0.30,0.30,0.76,0.23,0.27,0.28
1031,-0.00,-0.31,0.00,-0.29,0.29,0.73,0.29,0.30,0.31
1041,0.03,-0.30,0.05,-0.28,0.28,0.70,0.31,0.33,0.33
1052,0.15,-0.21,0.09,-0.27,0.27,0.67,0.42,0.36,0.36
1062,0.10,-0.29,0.12,-0.26,0.26,0.64,0.36,0.38,0.39
1073,0.13,-0.29,0.16,-0.24,0.24,0.60,0.37,0.41,0.42
1084,0.19,-0.26,0.21,-0.23,0.23,0.56,0.42,0.43,0.45
1094,0.25,-0.23,0.26,-0.21,0.21,0.52,0.46,0.47,0.48
1105,0.31,-0.20,0.32,-0.19,0.19,0.48,0.50,0.50,0.51
1116,0.37,-0.17,0.38,-0.17,0.17,0.43,0.54,0.54,0.54
1128,0.44,-0.14,0.44,-0.15,0.15,0.38,0.59,0.58,0.58
1139,0.50,-0.11,0.48,-0.13,0.13,0.33,0.63,0.61,0.61
1150,0.40,-0.25,0.53,-0.12,0.12,0.28,0.52,0.65,0.65
1162,0.61,-0.07,0.58,-0.12,0.12,0.23,0.73,0.70,0.68
1173,0.75,0.03,0.63,-0.12,0.12,0.17,0.87,0.75,0.72
1185,0.72,-0.04,0.66,-0.12,0.12,0.11,0.84,0.79,0.76
1197,0.74,-0.05,0.68,-0.13,0.13,0.05,0.87,0.82,0.79
1209,0.69,-0.14,0.70,-0.15,0.15,-0.01,0.84,0.84,0.83
1221,0.70,-0.17,0.70,-0.17,0.17,-0.07,0.87,0.87,0.87
1233,0.69,-0.21,0.70,-0.19,0.19,-0.13,0.88,0.89,0.90
1246,0.71,-0.22,0.70,-0.20,0.20,-0.20,0.91,0.90,0.93
1258,0.79,-0.17,0.70,-0.22,0.22,-0.26,1.01,0.92,0.96
1271,0.73,-0.24,0.71,-0.23,0.23,-0.33,0.96,0.93,0.97
1283,0.65,-0.34,0.71,-0.23,0.23,-0.39,0.88,0.93,0.99
1296,0.60,-0.39,0.72,-0.21,0.21,-0.46,0.81,0.94,0.99
1309,0.69,-0.30,0.75,-0.19,0.19,-0.53,0.88,0.94,0.99
1322,0.77,-0.21,0.78,-0.15,0.15,-0.60,0.92,0.93,0.98
1335,0.81,-0.16,0.83,-0.09,0.09,-0.67,0.90,0.92,0.97
1349,0.86,-0.10,0.88,-0.03,0.03,-0.75,0.89,0.90,0.96
1362,0.98,0.04,0.94,0.06,-0.06,-0.82,0.92,0.89,0.94
1376,1.12,0.20,1.02,0.15,-0.15,-0.89,0.97,0.87,0.92
1390,1.16,0.26,1.11,0.25,-0.25,-0.97,0.91,0.86,0.90
1404,1.22,0.34,1.22,0.37,-0.37,-1.05,0.85,0.86,0.88
1418,1.25,0.39,1.34,0.49,-0.49,-1.12,0.76,0.85,0.86
1432,1.39,0.54,1.46,0.62,-0.62,-1.20,0.77,0.85,0.85
1446,1.51,0.67,1.58,0.75,-0.75,-1.28,0.76,0.84,0.84
1461,1.70,0.86,1.71,0.88,-0.88,-1.36,0.82,0.83,0.84
1475,1.86,1.02,1.85,1.02,-1.02,-1.44,0.84,0.83,0.84
1490,2.04,1.20,1.98,1.15,-1.15,-1.52,0.89,0.83,0.84
1505,2.17,1.32,2.12,1.29,-1.29,-1.60,0.88,0.84,0.85
1520,2.31,1.45,2.26,1.42,-1.42,-1.69,0.89,0.85,0.86
1535,2.41,1.54,2.41,1.54,-1.54,-1.77,0.87,0.87,0.87
1550,2.57,1.69,2.55,1.66,-1.66,-1.85,0.91,0.89,0.88
1566,2.73,1.83,2.68,1.78,-1.78,-1.94,0.95,0.91,0.90
1582,2.79,1.87,2.81,1.89,-1.89,-2.03,0.90,0.93,0.92
1597,2.95,2.00,2.95,1.99,-1.99,-2.11,0.95,0.95,0.95
1613,3.05,2.07,3.08,2.10,-2.10,-2.19,0.95,0.98,0.98
1629,3.19,2.18,3.21,2.20,-2.20,-2.27,0.99,1.01,1.01
1646,3.35,2.30,3.34,2.29,-2.29,-2.36,1.06,1.05,1.05
1662,3.42,2.32,3.47,2.38,-2.38,-2.44,1.04,1.09,1.10
