frequency,raw
20,-4.74
21,-4.70
22,-4.65
23,-4.58
24,-4.50
25,-4.42
26,-4.33
27,-4.24
28,-4.15
29,-4.06
30,-3.98
31,-3.91
32,-3.86
33,-3.82
34,-3.78
35,-3.75
36,-3.71
37,-3.68
38,-3.65
39,-3.62
40,-3.59
41,-3.57
42,-3.54
43,-3.52
44,-3.50
45,-3.47
46,-3.46
47,-3.44
48,-3.43
49,-3.42
50,-3.41
51,-3.41
52,-3.40
53,-3.40
54,-3.39
55,-3.39
56,-3.38
57,-3.38
58,-3.37
59,-3.36
60,-3.35
61,-3.33
62,-3.30
63,-3.26
64,-3.22
65,-3.20
66,-3.18
67,-3.17
68,-3.17
69,-3.17
70,-3.15
71,-3.14
72,-3.11
73,-3.09
74,-3.05
75,-3.02
76,-3.00
77,-2.99
78,-2.97
79,-2.95
80,-2.91
81,-2.88
82,-2.86
83,-2.84
84,-2.82
85,-2.80
86,-2.79
87,-2.77
88,-2.76
89,-2.73
90,-2.72
91,-2.70
92,-2.68
93,-2.67
94,-2.65
95,-2.64
96,-2.62
97,-2.59
98,-2.58
99,-2.57
100,-2.56
101,-2.57
102,-2.57
104,-2.56
105,-2.54
106,-2.52
107,-2.50
108,-2.47
109,-2.45
110,-2.44
111,-2.42
112,-2.42
113,-2.40
114,-2.40
115,-2.38
117,-2.38
118,-2.38
119,-2.36
120,-2.34
121,-2.32
123,-2.27
124,-2.24
125,-2.24
126,-2.23
128,-2.23
129,-2.24
130,-2.25
131,-2.24
133,-2.23
134,-2.20
135,-2.18
137,-2.14
138,-2.14
140,-2.14
141,-2.14
142,-2.15
144,-2.14
145,-2.13
147,-2.11
148,-2.09
150,-2.05
151,-2.04
153,-2.03
154,-2.04
156,-2.05
157,-2.05
159,-2.05
160,-2.04
162,-2.02
164,-1.99
165,-1.98
167,-1.96
169,-1.96
170,-1.96
172,-1.97
174,-1.98
175,-1.98
177,-1.99
179,-2.00
181,-2.01
183,-2.01
184,-2.01
186,-1.99
188,-1.97
190,-1.96
192,-1.97
194,-1.97
196,-1.99
198,-2.02
200,-2.03
202,-2.04
204,-2.05
206,-2.05
208,-2.06
210,-2.04
212,-2.04
214,-2.04
216,-2.03
218,-2.02
221,-2.02
223,-2.03
225,-2.05
227,-2.06
229,-2.07
232,-2.08
234,-2.09
236,-2.08
239,-2.08
241,-2.07
244,-2.07
246,-2.07
248,-2.06
251,-2.06
253,-2.06
256,-2.05
259,-2.05
261,-2.05
264,-2.04
266,-2.04
269,-2.04
272,-2.03
274,-2.03
277,-2.02
280,-2.02
283,-2.02
286,-2.01
288,-2.01
291,-2.01
294,-2.01
297,-2.00
300,-2.00
303,-2.00
306,-2.00
309,-2.00
312,-1.99
316,-1.99
319,-1.99
322,-1.99
325,-1.99
328,-1.99
332,-2.00
335,-2.00
338,-2.00
342,-2.00
345,-2.01
349,-2.01
352,-2.01
356,-2.00
359,-1.99
363,-1.97
366,-1.95
370,-1.93
374,-1.91
377,-1.89
381,-1.87
385,-1.84
389,-1.81
393,-1.78
397,-1.76
401,-1.73
405,-1.70
409,-1.67
413,-1.65
417,-1.62
421,-1.59
425,-1.57
430,-1.54
434,-1.52
438,-1.50
443,-1.48
447,-1.48
451,-1.48
456,-1.46
460,-1.45
465,-1.43
470,-1.43
474,-1.45
479,-1.48
484,-1.55
489,-1.61
494,-1.67
499,-1.70
504,-1.72
509,-1.71
514,-1.68
519,-1.63
524,-1.59
529,-1.55
535,-1.49
540,-1.45
545,-1.42
551,-1.38
556,-1.34
562,-1.31
568,-1.27
573,-1.24
579,-1.20
585,-1.16
591,-1.13
596,-1.10
602,-1.07
608,-1.03
615,-1.00
621,-0.98
627,-0.95
633,-0.93
639,-0.90
646,-0.88
652,-0.85
659,-0.83
665,-0.82
672,-0.80
679,-0.78
686,-0.76
692,-0.74
699,-0.72
706,-0.69
713,-0.66
721,-0.62
728,-0.57
735,-0.52
742,-0.46
750,-0.40
757,-0.35
765,-0.31
773,-0.27
780,-0.26
788,-0.24
796,-0.23
804,-0.24
812,-0.24
820,-0.25
828,-0.26
837,-0.26
845,-0.25
853,-0.23
862,-0.21
871,-0.18
879,-0.17
888,-0.16
897,-0.15
906,-0.14
915,-0.13
924,-0.12
933,-0.11
943,-0.10
952,-0.08
962,-0.07
971,-0.05
981,-0.02
991,-0.01
1001,0.00
1011,0.01
1021,-0.00
1031,-0.02
1041,-0.05
1052,-0.07
1062,-0.09
1073,-0.10
1084,-0.11
1094,-0.11
1105,-0.11
1116,-0.11
1128,-0.10
1139,-0.10
1150,-0.08
1162,-0.06
1173,-0.03
1185,0.01
1197,0.06
1209,0.11
1221,0.15
1233,0.18
1246,0.21
1258,0.23
1271,0.26
1283,0.29
1296,0.31
1309,0.33
1322,0.35
1335,0.38
1349,0.42
1362,0.45
1376,0.49
1390,0.56
1404,0.62
1418,0.70
1432,0.79
1446,0.87
1461,0.95
1475,1.04
1490,1.12
1505,1.20
1520,1.29
1535,1.38
1550,1.48
1566,1.60
1582,1.72
1597,1.83
1613,1.96
1629,2.09
1646,2.25
1662,2.40
1679,2.59
1696,2.77
1713,2.95
1730,3.14
1747,3.33
1764,3.51
1782,3.70
1800,3.89
1818,4.07
1836,4.23
1854,4.38
1873,4.54
1892,4.70
1911,4.84
1930,4.98
1949,5.12
1969,5.26
1988,5.39
2008,5.54
2028,5.69
2048,5.85
2069,6.03
2090,6.20
2111,6.37
2132,6.56
2153,6.75
2175,6.94
2196,7.12
2218,7.32
2240,7.51
2263,7.70
2285,7.85
2308,7.97
2331,8.08
2355,8.18
2378,8.27
2402,8.41
2426,8.54
2450,8.69
2475,8.87
2500,9.05
2525,9.23
2550,9.41
2575,9.57
2601,9.73
2627,9.87
2653,9.99
2680,10.10
2707,10.19
2734,10.25
2761,10.31
2789,10.34
2817,10.35
2845,10.35
2873,10.32
2902,10.29
2931,10.25
2960,10.19
2990,10.14
3020,10.09
3050,10.04
3080,9.95
3111,9.83
3142,9.69
3174,9.49
3206,9.26
3238,9.02
3270,8.78
3303,8.52
3336,8.26
3369,8.02
3403,7.79
3437,7.58
3471,7.36
3506,7.13
3541,6.90
3576,6.66
3612,6.41
3648,6.16
3685,5.90
3721,5.63
3759,5.37
3796,5.12
3834,4.88
3873,4.68
3911,4.50
3950,4.32
3990,4.17
4030,4.03
4070,3.90
4111,3.76
4152,3.63
4193,3.50
4235,3.38
4278,3.28
4321,3.23
4364,3.23
4407,3.25
4451,3.30
4496,3.35
4541,3.39
4586,3.40
4632,3.40
4679,3.37
4725,3.32
4773,3.26
4820,3.20
4868,3.16
4917,3.15
4966,3.16
5016,3.24
5066,3.37
5117,3.52
5168,3.75
5220,4.02
5272,4.32
5325,4.70
5378,5.12
5432,5.58
5486,6.06
5541,6.55
5596,7.01
5652,7.41
5709,7.74
5766,8.02
5823,8.23
5882,8.40
5940,8.52
6000,8.59
6060,8.61
6120,8.56
6182,8.47
6244,8.30
6306,8.06
6369,7.81
6433,7.53
6497,7.22
6562,6.92
6628,6.58
6694,6.25
6761,5.95
6828,5.69
6897,5.49
6966,5.37
7035,5.33
7106,5.42
7177,5.60
7249,5.84
7321,6.17
7394,6.57
7468,7.02
7543,7.55
7618,8.14
7694,8.77
7771,9.43
7849,10.12
7928,10.80
8007,11.47
8087,12.13
8168,12.75
8250,13.34
8332,13.81
8415,14.15
8499,14.39
8584,14.48
8670,14.40
8757,14.18
8845,13.76
8933,13.36
9022,12.77
9113,11.84
9204,11.09
9296,10.44
9389,9.27
9483,8.17
9577,7.26
9673,6.43
9770,5.69
9868,5.02
9966,4.43
10066,3.97
10167,3.65
10268,3.43
10371,3.28
10475,3.21
10579,3.26
10685,3.43
10792,3.62
10900,3.80
11009,3.95
11119,4.09
11230,4.22
11343,4.49
11456,4.78
11571,4.31
11686,3.61
11803,3.54
11921,2.93
12040,2.10
12161,1.65
12282,0.96
12405,0.34
12529,-0.12
12655,-0.43
12781,-0.66
12909,-0.83
13038,-0.89
13168,-0.92
13300,-0.84
13433,-0.67
13567,-0.58
13703,-0.54
13840,-0.65
13978,-0.71
14118,-0.73
14259,-0.69
14402,-0.60
14546,-0.50
14692,-0.41
14838,-0.41
14987,-0.52
15137,-0.73
15288,-1.15
15441,-1.70
15595,-2.33
15751,-3.00
15909,-3.53
16068,-3.91
16229,-4.03
16391,-3.79
16555,-3.34
16720,-2.70
16888,-1.94
17056,-1.23
17227,-0.58
17399,-0.20
17573,-0.02
17749,-0.01
17926,-0.25
18106,-0.59
18287,-0.97
18470,-1.36
18654,-1.65
18841,-1.89
19029,-2.02
19220,-2.10
19412,-2.15
19606,-2.18
19802,-2.19
20000,-2.18
