frequency,raw,error,smoothed,error_smoothed,equalization,parametric_eq,fixed_band_eq,equalized_raw,equalized_smoothed,target
20.00,4.66,1.20,4.66,1.20,-1.22,-1.72,-0.94,3.45,3.44,3.46
20.20,4.70,1.25,4.70,1.25,-1.25,-1.73,-0.97,3.45,3.45,3.45
20.40,4.74,1.30,4.74,1.30,-1.29,-1.75,-1.00,3.45,3.45,3.44
20.61,4.78,1.34,4.78,1.34,-1.33,-1.76,-1.03,3.45,3.45,3.44
20.81,4.81,1.39,4.82,1.39,-1.37,-1.77,-1.05,3.44,3.45,3.42
21.02,4.85,1.43,4.85,1.42,-1.41,-1.78,-1.09,3.45,3.44,3.42
21.23,4.87,1.46,4.87,1.45,-1.44,-1.79,-1.12,3.43,3.43,3.41
21.44,4.89,1.47,4.90,1.48,-1.48,-1.80,-1.15,3.41,3.41,3.42
21.66,4.92,1.51,4.92,1.51,-1.52,-1.81,-1.18,3.40,3.40,3.41
21.87,4.94,1.54,4.94,1.54,-1.55,-1.82,-1.22,3.39,3.39,3.40
22.09,4.97,1.58,4.97,1.58,-1.59,-1.84,-1.25,3.38,3.38,3.39
22.31,5.01,1.62,5.01,1.62,-1.63,-1.85,-1.29,3.38,3.38,3.39
22.54,5.05,1.67,5.06,1.67,-1.67,-1.86,-1.32,3.38,3.38,3.38
22.76,5.10,1.72,5.10,1.72,-1.71,-1.87,-1.36,3.39,3.39,3.38
22.99,5.14,1.77,5.14,1.77,-1.75,-1.88,-1.40,3.39,3.39,3.37
23.22,5.16,1.80,5.16,1.80,-1.78,-1.89,-1.44,3.38,3.38,3.36
23.45,5.18,1.81,5.18,1.82,-1.82,-1.91,-1.48,3.36,3.36,3.37
23.69,5.20,1.84,5.20,1.84,-1.86,-1.92,-1.52,3.35,3.35,3.36
23.92,5.22,1.87,5.23,1.87,-1.89,-1.93,-1.57,3.33,3.34,3.36
24.16,5.26,1.90,5.26,1.90,-1.92,-1.94,-1.61,3.34,3.34,3.37
24.40,5.31,1.94,5.31,1.94,-1.95,-1.96,-1.65,3.37,3.36,3.38
24.65,5.35,1.98,5.36,1.98,-1.97,-1.97,-1.70,3.39,3.39,3.37
24.89,5.40,2.03,5.39,2.02,-1.98,-1.98,-1.74,3.42,3.41,3.37
25.14,5.41,2.04,5.40,2.03,-1.99,-1.99,-1.79,3.42,3.41,3.37
25.39,5.39,2.02,5.39,2.02,-2.01,-2.01,-1.83,3.39,3.39,3.37
25.65,5.37,2.00,5.37,2.00,-2.02,-2.02,-1.88,3.35,3.36,3.37
25.91,5.36,1.98,5.37,1.99,-2.03,-2.03,-1.92,3.33,3.34,3.38
26.16,5.38,1.99,5.39,2.00,-2.04,-2.05,-1.97,3.34,3.35,3.39
26.43,5.42,2.03,5.42,2.04,-2.05,-2.06,-2.02,3.37,3.37,3.39
26.69,5.47,2.08,5.47,2.08,-2.06,-2.07,-2.06,3.41,3.41,3.39
26.96,5.51,2.13,5.50,2.12,-2.08,-2.08,-2.11,3.43,3.42,3.39
27.23,5.52,2.14,5.52,2.13,-2.10,-2.10,-2.15,3.42,3.42,3.39
27.50,5.51,2.13,5.52,2.13,-2.13,-2.11,-2.19,3.39,3.39,3.38
27.77,5.51,2.12,5.52,2.13,-2.15,-2.12,-2.23,3.36,3.37,3.39
28.05,5.52,2.13,5.53,2.14,-2.17,-2.14,-2.28,3.36,3.36,3.39
28.33,5.55,2.17,5.55,2.17,-2.18,-2.15,-2.31,3.37,3.37,3.38
28.62,5.58,2.20,5.58,2.20,-2.19,-2.16,-2.35,3.39,3.39,3.38
28.90,5.61,2.22,5.61,2.22,-2.20,-2.18,-2.39,3.41,3.41,3.39
29.19,5.62,2.24,5.62,2.23,-2.22,-2.19,-2.42,3.41,3.40,3.39
29.48,5.62,2.24,5.62,2.24,-2.23,-2.20,-2.45,3.39,3.39,3.39
29.78,5.62,2.24,5.63,2.24,-2.25,-2.22,-2.48,3.37,3.37,3.38
30.08,5.63,2.24,5.63,2.25,-2.27,-2.23,-2.51,3.36,3.36,3.39
30.38,5.65,2.27,5.65,2.27,-2.29,-2.25,-2.53,3.37,3.37,3.38
30.68,5.67,2.30,5.67,2.30,-2.30,-2.26,-2.55,3.37,3.37,3.37
30.99,5.70,2.33,5.69,2.33,-2.32,-2.27,-2.57,3.38,3.37,3.37
31.30,5.70,2.35,5.71,2.35,-2.34,-2.29,-2.59,3.36,3.37,3.36
31.61,5.71,2.36,5.71,2.36,-2.35,-2.30,-2.60,3.36,3.36,3.35
31.93,5.71,2.37,5.71,2.37,-2.37,-2.31,-2.61,3.35,3.35,3.34
32.24,5.71,2.37,5.71,2.38,-2.37,-2.33,-2.62,3.34,3.34,3.34
32.57,5.71,2.39,5.71,2.38,-2.38,-2.34,-2.62,3.34,3.34,3.33
32.89,5.71,2.39,5.71,2.39,-2.38,-2.35,-2.62,3.33,3.33,3.32
33.22,5.71,2.39,5.71,2.38,-2.39,-2.37,-2.62,3.32,3.32,3.32
33.55,5.70,2.38,5.70,2.38,-2.40,-2.38,-2.62,3.30,3.30,3.32
33.89,5.70,2.38,5.71,2.39,-2.42,-2.40,-2.61,3.29,3.29,3.33
34.23,5.73,2.42,5.73,2.42,-2.43,-2.41,-2.61,3.30,3.30,3.31
34.57,5.76,2.45,5.76,2.45,-2.45,-2.42,-2.60,3.31,3.31,3.31
34.92,5.80,2.49,5.79,2.48,-2.47,-2.44,-2.59,3.34,3.33,3.31
35.27,5.81,2.50,5.81,2.50,-2.48,-2.45,-2.58,3.33,3.34,3.32
35.62,5.81,2.51,5.82,2.51,-2.49,-2.46,-2.57,3.33,3.33,3.30
35.97,5.81,2.51,5.80,2.51,-2.49,-2.48,-2.56,3.32,3.31,3.30
36.33,5.78,2.50,5.78,2.49,-2.49,-2.49,-2.55,3.29,3.29,3.29
36.70,5.74,2.47,5.75,2.47,-2.49,-2.50,-2.53,3.25,3.26,3.27
37.06,5.71,2.45,5.72,2.47,-2.49,-2.52,-2.52,3.22,3.23,3.26
37.43,5.71,2.48,5.71,2.47,-2.49,-2.53,-2.51,3.22,3.22,3.23
37.81,5.71,2.49,5.71,2.49,-2.50,-2.54,-2.50,3.21,3.21,3.22
38.19,5.71,2.52,5.71,2.52,-2.52,-2.56,-2.49,3.19,3.19,3.20
38.57,5.71,2.54,5.71,2.54,-2.54,-2.57,-2.48,3.17,3.17,3.17
38.95,5.71,2.56,5.71,2.57,-2.56,-2.58,-2.47,3.15,3.15,3.15
39.34,5.71,2.60,5.72,2.60,-2.58,-2.60,-2.46,3.13,3.14,3.11
39.74,5.71,2.61,5.71,2.61,-2.59,-2.61,-2.45,3.12,3.12,3.10
40.14,5.70,2.63,5.69,2.62,-2.61,-2.62,-2.45,3.10,3.08,3.07
40.54,5.66,2.61,5.67,2.62,-2.62,-2.64,-2.44,3.04,3.05,3.05
40.94,5.63,2.61,5.64,2.62,-2.63,-2.65,-2.44,3.00,3.01,3.02
41.35,5.62,2.62,5.62,2.62,-2.64,-2.66,-2.44,2.98,2.98,3.01
41.76,5.62,2.65,5.62,2.64,-2.66,-2.67,-2.44,2.97,2.96,2.97
42.18,5.62,2.67,5.62,2.66,-2.67,-2.69,-2.44,2.95,2.95,2.96
42.60,5.62,2.68,5.62,2.69,-2.69,-2.70,-2.44,2.94,2.94,2.94
43.03,5.62,2.71,5.63,2.71,-2.70,-2.71,-2.45,2.92,2.92,2.91
43.46,5.62,2.74,5.63,2.74,-2.72,-2.72,-2.46,2.91,2.91,2.89
43.90,5.62,2.75,5.61,2.75,-2.73,-2.74,-2.47,2.89,2.88,2.87
44.33,5.59,2.75,5.58,2.74,-2.74,-2.75,-2.48,2.85,2.84,2.84
44.78,5.54,2.73,5.55,2.73,-2.75,-2.76,-2.49,2.79,2.81,2.81
45.23,5.52,2.72,5.53,2.74,-2.75,-2.77,-2.50,2.77,2.78,2.81
45.68,5.52,2.75,5.52,2.75,-2.75,-2.78,-2.52,2.77,2.77,2.77
46.13,5.51,2.78,5.50,2.76,-2.75,-2.80,-2.54,2.77,2.75,2.73
46.60,5.46,2.76,5.47,2.77,-2.75,-2.81,-2.56,2.72,2.72,2.70
47.06,5.42,2.75,5.42,2.75,-2.76,-2.82,-2.58,2.67,2.67,2.67
47.53,5.38,2.74,5.38,2.75,-2.77,-2.83,-2.61,2.61,2.61,2.64
48.01,5.34,2.75,5.35,2.76,-2.79,-2.84,-2.63,2.56,2.57,2.59
48.49,5.34,2.79,5.34,2.78,-2.80,-2.85,-2.66,2.54,2.54,2.55
48.97,5.33,2.82,5.34,2.82,-2.82,-2.86,-2.69,2.51,2.52,2.51
49.46,5.33,2.85,5.34,2.87,-2.84,-2.87,-2.72,2.49,2.50,2.48
49.96,5.33,2.91,5.32,2.89,-2.86,-2.88,-2.75,2.47,2.45,2.42
50.46,5.29,2.91,5.29,2.90,-2.89,-2.89,-2.78,2.40,2.40,2.39
50.96,5.24,2.89,5.26,2.91,-2.92,-2.90,-2.82,2.32,2.34,2.35
51.47,5.24,2.92,5.24,2.92,-2.95,-2.91,-2.85,2.29,2.29,2.32
51.99,5.23,2.95,5.23,2.95,-2.97,-2.92,-2.89,2.26,2.26,2.28
52.51,5.23,2.99,5.23,2.99,-2.99,-2.93,-2.92,2.24,2.25,2.25
53.03,5.23,3.01,5.24,3.03,-3.00,-2.94,-2.96,2.23,2.24,2.22
53.56,5.23,3.06,5.23,3.05,-3.02,-2.95,-2.99,2.22,2.21,2.18
54.10,5.21,3.08,5.18,3.05,-3.02,-2.96,-3.03,2.19,2.16,2.13
54.64,5.11,3.02,5.13,3.04,-3.03,-2.97,-3.06,2.08,2.09,2.10
55.18,5.04,2.99,5.07,3.02,-3.04,-2.98,-3.10,2.01,2.04,2.05
55.74,5.04,3.03,5.02,3.01,-3.03,-2.99,-3.13,2.01,1.99,2.01
56.29,5.01,3.03,5.00,3.02,-3.03,-2.99,-3.16,1.98,1.97,1.99
56.86,4.96,3.00,4.98,3.03,-3.03,-3.00,-3.19,1.94,1.95,1.96
57.42,4.95,3.04,4.96,3.04,-3.03,-3.01,-3.22,1.93,1.93,1.91
58.00,4.95,3.06,4.93,3.04,-3.03,-3.02,-3.25,1.92,1.90,1.89
58.58,4.90,3.03,4.91,3.04,-3.03,-3.03,-3.27,1.87,1.88,1.87
59.16,4.87,3.03,4.88,3.04,-3.04,-3.03,-3.29,1.83,1.84,1.84
59.76,4.85,3.04,4.84,3.03,-3.05,-3.04,-3.31,1.80,1.79,1.81
60.35,4.81,3.05,4.81,3.04,-3.06,-3.05,-3.33,1.75,1.75,1.76
60.96,4.75,3.04,4.78,3.06,-3.06,-3.05,-3.34,1.69,1.71,1.72
61.57,4.75,3.09,4.75,3.09,-3.07,-3.06,-3.35,1.68,1.67,1.66
62.18,4.73,3.12,4.71,3.11,-3.08,-3.06,-3.35,1.65,1.63,1.61
62.80,4.67,3.12,4.67,3.11,-3.10,-3.07,-3.36,1.57,1.57,1.56
63.43,4.61,3.10,4.62,3.10,-3.12,-3.08,-3.36,1.49,1.50,1.51
64.07,4.56,3.09,4.58,3.11,-3.14,-3.08,-3.35,1.43,1.44,1.47
64.71,4.56,3.13,4.56,3.14,-3.15,-3.09,-3.35,1.41,1.41,1.43
65.35,4.56,3.17,4.56,3.17,-3.16,-3.09,-3.34,1.40,1.40,1.39
66.01,4.56,3.22,4.54,3.20,-3.16,-3.10,-3.33,1.40,1.38,1.34
66.67,4.50,3.19,4.51,3.20,-3.17,-3.10,-3.31,1.33,1.34,1.31
67.33,4.44,3.19,4.45,3.19,-3.18,-3.10,-3.29,1.26,1.27,1.25
68.01,4.39,3.18,4.39,3.17,-3.19,-3.11,-3.27,1.20,1.20,1.21
68.69,4.33,3.17,4.33,3.17,-3.20,-3.11,-3.25,1.14,1.14,1.16
69.37,4.29,3.16,4.30,3.18,-3.20,-3.12,-3.23,1.09,1.10,1.13
70.07,4.27,3.20,4.28,3.20,-3.21,-3.12,-3.20,1.06,1.07,1.08
70.77,4.27,3.24,4.27,3.23,-3.22,-3.12,-3.18,1.05,1.04,1.03
71.48,4.25,3.26,4.24,3.26,-3.24,-3.12,-3.15,1.01,1.00,0.99
72.19,4.21,3.28,4.20,3.27,-3.25,-3.13,-3.12,0.96,0.95,0.93
72.91,4.14,3.26,4.15,3.27,-3.26,-3.13,-3.09,0.88,0.89,0.89
73.64,4.10,3.26,4.12,3.28,-3.27,-3.13,-3.06,0.83,0.85,0.84
74.38,4.08,3.28,4.08,3.28,-3.27,-3.13,-3.03,0.81,0.81,0.80
75.12,4.06,3.31,4.03,3.28,-3.27,-3.13,-3.01,0.79,0.76,0.75
75.87,3.97,3.25,3.98,3.26,-3.27,-3.13,-2.98,0.70,0.71,0.72
76.63,3.91,3.23,3.93,3.25,-3.27,-3.13,-2.95,0.64,0.66,0.68
77.40,3.89,3.24,3.90,3.25,-3.27,-3.13,-2.92,0.63,0.63,0.65
78.17,3.89,3.28,3.89,3.28,-3.26,-3.13,-2.90,0.63,0.63,0.61
78.95,3.89,3.31,3.87,3.29,-3.26,-3.13,-2.88,0.63,0.60,0.58
79.74,3.82,3.27,3.82,3.27,-3.26,-3.13,-2.85,0.56,0.56,0.55
80.54,3.75,3.24,3.76,3.25,-3.26,-3.13,-2.83,0.49,0.50,0.52
81.35,3.71,3.23,3.73,3.24,-3.26,-3.13,-2.81,0.45,0.46,0.48
82.16,3.70,3.25,3.70,3.25,-3.26,-3.13,-2.79,0.45,0.44,0.45
82.98,3.70,3.29,3.68,3.26,-3.25,-3.13,-2.78,0.45,0.43,0.42
83.81,3.62,3.24,3.64,3.26,-3.24,-3.13,-2.76,0.39,0.40,0.38
84.65,3.58,3.24,3.57,3.23,-3.22,-3.13,-2.75,0.36,0.35,0.34
85.50,3.50,3.21,3.50,3.20,-3.21,-3.12,-2.74,0.29,0.29,0.29
86.35,3.42,3.16,3.45,3.19,-3.20,-3.12,-2.73,0.22,0.25,0.26
87.22,3.41,3.18,3.41,3.18,-3.19,-3.12,-2.73,0.22,0.22,0.23
88.09,3.38,3.20,3.36,3.17,-3.18,-3.12,-2.72,0.20,0.19,0.19
88.97,3.32,3.17,3.32,3.17,-3.17,-3.11,-2.72,0.15,0.15,0.15
89.86,3.24,3.14,3.27,3.16,-3.17,-3.11,-2.72,0.08,0.10,0.10
90.76,3.22,3.15,3.23,3.16,-3.17,-3.11,-2.72,0.05,0.06,0.07
91.66,3.21,3.20,3.19,3.17,-3.17,-3.10,-2.73,0.05,0.03,0.01
92.58,3.16,3.18,3.15,3.17,-3.16,-3.10,-2.73,0.00,-0.01,-0.02
93.51,3.09,3.16,3.11,3.17,-3.16,-3.10,-2.74,-0.07,-0.05,-0.06
94.44,3.04,3.15,3.06,3.17,-3.16,-3.09,-2.75,-0.12,-0.10,-0.11
95.39,3.02,3.19,3.00,3.16,-3.17,-3.09,-2.76,-0.15,-0.17,-0.17
96.34,2.95,3.17,2.93,3.15,-3.18,-3.08,-2.78,-0.23,-0.25,-0.22
97.30,2.83,3.11,2.87,3.15,-3.19,-3.08,-2.79,-0.36,-0.32,-0.28
98.28,2.81,3.15,2.82,3.16,-3.19,-3.07,-2.81,-0.38,-0.37,-0.34
99.26,2.81,3.21,2.81,3.21,-3.19,-3.07,-2.83,-0.38,-0.37,-0.40
100.25,2.81,3.27,2.78,3.24,-3.18,-3.06,-2.85,-0.37,-0.40,-0.46
101.25,2.74,3.25,2.72,3.23,-3.17,-3.06,-2.87,-0.43,-0.46,-0.51
102.27,2.57,3.14,2.62,3.19,-3.16,-3.05,-2.89,-0.59,-0.54,-0.57
103.29,2.52,3.15,2.51,3.12,-3.15,-3.05,-2.92,-0.63,-0.65,-0.62
104.32,2.43,3.10,2.41,3.08,-3.14,-3.04,-2.94,-0.71,-0.73,-0.67
105.37,2.30,3.03,2.34,3.07,-3.12,-3.03,-2.96,-0.82,-0.78,-0.73
106.42,2.29,3.08,2.30,3.09,-3.10,-3.03,-2.99,-0.81,-0.79,-0.79
107.48,2.28,3.14,2.27,3.12,-3.08,-3.02,-3.01,-0.80,-0.81,-0.85
108.56,2.27,3.16,2.22,3.12,-3.08,-3.02,-3.04,-0.81,-0.86,-0.89
109.64,2.12,3.07,2.13,3.08,-3.08,-3.01,-3.06,-0.96,-0.95,-0.95
110.74,2.00,3.01,2.05,3.05,-3.08,-3.01,-3.09,-1.08,-1.03,-1.01
111.85,1.99,3.05,2.00,3.06,-3.08,-3.00,-3.11,-1.09,-1.07,-1.05
112.97,2.01,3.11,1.96,3.07,-3.07,-2.99,-3.13,-1.06,-1.11,-1.10
114.10,1.94,3.09,1.92,3.07,-3.06,-2.99,-3.15,-1.12,-1.14,-1.15
115.24,1.80,3.01,1.87,3.07,-3.05,-2.98,-3.17,-1.25,-1.18,-1.20
116.39,1.81,3.07,1.80,3.05,-3.04,-2.98,-3.19,-1.23,-1.25,-1.26
117.55,1.78,3.08,1.73,3.03,-3.04,-2.97,-3.20,-1.26,-1.31,-1.30
118.73,1.64,2.99,1.68,3.02,-3.04,-2.96,-3.21,-1.40,-1.36,-1.35
119.92,1.60,2.99,1.63,3.02,-3.03,-2.96,-3.22,-1.43,-1.40,-1.39
121.12,1.62,3.03,1.60,3.02,-3.02,-2.95,-3.23,-1.40,-1.42,-1.41
122.33,1.61,3.07,1.57,3.02,-3.01,-2.95,-3.24,-1.40,-1.44,-1.45
123.55,1.52,3.01,1.54,3.03,-3.00,-2.94,-3.24,-1.48,-1.46,-1.49
124.79,1.44,2.96,1.49,3.01,-3.00,-2.93,-3.24,-1.55,-1.51,-1.52
126.03,1.48,3.04,1.42,2.98,-2.99,-2.93,-3.23,-1.51,-1.57,-1.56
127.29,1.36,2.96,1.36,2.96,-2.99,-2.92,-3.23,-1.63,-1.63,-1.60
128.57,1.28,2.92,1.32,2.96,-2.99,-2.92,-3.22,-1.71,-1.67,-1.64
129.85,1.27,2.95,1.29,2.97,-2.98,-2.91,-3.20,-1.71,-1.69,-1.68
131.15,1.30,3.02,1.28,3.00,-2.97,-2.91,-3.19,-1.67,-1.69,-1.72
132.46,1.29,3.05,1.25,3.01,-2.97,-2.90,-3.17,-1.68,-1.72,-1.76
133.79,1.16,2.96,1.19,2.99,-2.97,-2.90,-3.15,-1.81,-1.78,-1.80
135.12,1.09,2.92,1.12,2.95,-2.97,-2.89,-3.13,-1.87,-1.84,-1.83
136.48,1.09,2.95,1.07,2.93,-2.96,-2.89,-3.10,-1.87,-1.89,-1.86
137.84,1.04,2.94,1.03,2.93,-2.95,-2.88,-3.08,-1.90,-1.92,-1.89
139.22,0.98,2.93,1.00,2.94,-2.93,-2.88,-3.05,-1.95,-1.93,-1.95
140.61,0.94,2.91,0.97,2.94,-2.92,-2.88,-3.02,-1.97,-1.95,-1.97
142.02,0.95,2.97,0.91,2.93,-2.91,-2.87,-2.99,-1.95,-2.00,-2.01
143.44,0.86,2.92,0.84,2.89,-2.90,-2.87,-2.96,-2.04,-2.06,-2.06
144.87,0.73,2.82,0.79,2.87,-2.90,-2.86,-2.93,-2.16,-2.11,-2.09
146.32,0.73,2.85,0.75,2.87,-2.89,-2.86,-2.90,-2.16,-2.14,-2.12
147.78,0.75,2.91,0.72,2.87,-2.88,-2.86,-2.87,-2.12,-2.16,-2.16
149.26,0.71,2.91,0.68,2.88,-2.86,-2.85,-2.84,-2.15,-2.18,-2.19
150.75,0.59,2.83,0.64,2.87,-2.84,-2.85,-2.80,-2.25,-2.20,-2.24
152.26,0.56,2.83,0.58,2.85,-2.83,-2.85,-2.77,-2.27,-2.25,-2.27
153.78,0.57,2.88,0.51,2.82,-2.82,-2.85,-2.74,-2.25,-2.31,-2.30
155.32,0.44,2.78,0.45,2.79,-2.81,-2.84,-2.71,-2.37,-2.37,-2.34
156.88,0.34,2.73,0.39,2.78,-2.80,-2.84,-2.69,-2.46,-2.41,-2.38
158.44,0.35,2.78,0.35,2.78,-2.79,-2.84,-2.66,-2.44,-2.44,-2.43
160.03,0.37,2.84,0.33,2.80,-2.79,-2.84,-2.63,-2.41,-2.45,-2.47
161.63,0.30,2.81,0.29,2.80,-2.79,-2.84,-2.61,-2.48,-2.50,-2.51
163.24,0.20,2.76,0.23,2.79,-2.79,-2.83,-2.59,-2.59,-2.56,-2.56
164.88,0.15,2.75,0.18,2.78,-2.79,-2.83,-2.57,-2.64,-2.62,-2.60
166.53,0.16,2.81,0.15,2.80,-2.79,-2.83,-2.55,-2.63,-2.65,-2.65
168.19,0.13,2.82,0.11,2.80,-2.79,-2.83,-2.53,-2.66,-2.68,-2.69
169.87,0.06,2.80,0.06,2.79,-2.78,-2.83,-2.51,-2.72,-2.73,-2.74
171.57,-0.04,2.75,0.00,2.78,-2.78,-2.83,-2.50,-2.81,-2.78,-2.78
173.29,-0.05,2.78,-0.05,2.78,-2.77,-2.83,-2.49,-2.82,-2.82,-2.83
175.02,-0.07,2.80,-0.10,2.77,-2.77,-2.82,-2.48,-2.84,-2.87,-2.87
176.77,-0.16,2.75,-0.15,2.76,-2.77,-2.82,-2.47,-2.93,-2.92,-2.91
178.54,-0.23,2.73,-0.21,2.74,-2.76,-2.82,-2.46,-2.99,-2.98,-2.95
180.32,-0.26,2.74,-0.24,2.76,-2.76,-2.82,-2.46,-3.02,-3.00,-3.00
182.13,-0.25,2.78,-0.25,2.78,-2.76,-2.82,-2.46,-3.01,-3.01,-3.03
183.95,-0.23,2.83,-0.28,2.78,-2.76,-2.81,-2.45,-2.99,-3.05,-3.06
185.79,-0.35,2.75,-0.32,2.78,-2.77,-2.81,-2.46,-3.11,-3.09,-3.10
187.65,-0.41,2.72,-0.37,2.76,-2.77,-2.81,-2.46,-3.18,-3.14,-3.13
189.52,-0.39,2.78,-0.41,2.76,-2.77,-2.80,-2.46,-3.16,-3.18,-3.17
191.42,-0.42,2.77,-0.43,2.77,-2.77,-2.80,-2.47,-3.19,-3.20,-3.19
193.33,-0.45,2.78,-0.46,2.77,-2.77,-2.80,-2.48,-3.22,-3.23,-3.23
195.27,-0.52,2.75,-0.50,2.77,-2.77,-2.79,-2.49,-3.29,-3.27,-3.27
197.22,-0.54,2.77,-0.53,2.77,-2.77,-2.78,-2.50,-3.31,-3.30,-3.31
199.19,-0.54,2.79,-0.56,2.78,-2.77,-2.78,-2.51,-3.31,-3.33,-3.33
201.18,-0.59,2.78,-0.59,2.78,-2.77,-2.77,-2.52,-3.36,-3.36,-3.37
203.19,-0.63,2.77,-0.62,2.77,-2.76,-2.76,-2.54,-3.39,-3.39,-3.39
205.23,-0.68,2.74,-0.67,2.75,-2.75,-2.75,-2.55,-3.43,-3.42,-3.42
207.28,-0.70,2.75,-0.71,2.74,-2.73,-2.74,-2.57,-3.43,-3.44,-3.44
209.35,-0.76,2.72,-0.76,2.72,-2.72,-2.73,-2.58,-3.47,-3.47,-3.48
211.44,-0.81,2.70,-0.81,2.70,-2.69,-2.72,-2.60,-3.50,-3.50,-3.51
213.56,-0.88,2.66,-0.88,2.66,-2.67,-2.71,-2.61,-3.55,-3.55,-3.53
215.69,-0.93,2.64,-0.93,2.64,-2.65,-2.69,-2.63,-3.57,-3.58,-3.57
217.85,-1.00,2.59,-0.98,2.62,-2.62,-2.68,-2.65,-3.62,-3.60,-3.59
220.03,-1.00,2.63,-1.01,2.61,-2.60,-2.66,-2.66,-3.59,-3.61,-3.63
222.23,-1.06,2.60,-1.06,2.59,-2.58,-2.65,-2.68,-3.64,-3.64,-3.65
224.45,-1.11,2.57,-1.11,2.56,-2.57,-2.63,-2.69,-3.67,-3.68,-3.67
226.70,-1.18,2.52,-1.16,2.53,-2.56,-2.61,-2.71,-3.74,-3.72,-3.70
228.96,-1.19,2.52,-1.19,2.52,-2.55,-2.60,-2.72,-3.74,-3.74,-3.71
231.25,-1.19,2.53,-1.18,2.54,-2.55,-2.58,-2.73,-3.74,-3.73,-3.72
233.57,-1.18,2.56,-1.18,2.56,-2.54,-2.56,-2.74,-3.72,-3.72,-3.74
235.90,-1.16,2.59,-1.18,2.56,-2.54,-2.54,-2.74,-3.69,-3.72,-3.74
238.26,-1.22,2.54,-1.20,2.55,-2.53,-2.52,-2.75,-3.74,-3.72,-3.75
240.64,-1.22,2.52,-1.23,2.52,-2.51,-2.50,-2.75,-3.73,-3.74,-3.74
243.05,-1.27,2.48,-1.26,2.49,-2.49,-2.48,-2.75,-3.76,-3.75,-3.75
245.48,-1.29,2.47,-1.28,2.48,-2.47,-2.46,-2.74,-3.76,-3.75,-3.76
247.93,-1.31,2.46,-1.32,2.44,-2.44,-2.44,-2.74,-3.75,-3.76,-3.77
250.41,-1.34,2.42,-1.35,2.40,-2.42,-2.41,-2.73,-3.76,-3.77,-3.75
252.92,-1.41,2.34,-1.39,2.37,-2.40,-2.39,-2.71,-3.81,-3.79,-3.75
255.45,-1.41,2.36,-1.40,2.36,-2.38,-2.37,-2.70,-3.79,-3.78,-3.77
258.00,-1.40,2.37,-1.40,2.37,-2.36,-2.35,-2.68,-3.76,-3.76,-3.76
260.58,-1.39,2.38,-1.40,2.38,-2.34,-2.33,-2.66,-3.73,-3.74,-3.77
263.19,-1.41,2.37,-1.42,2.36,-2.33,-2.31,-2.64,-3.74,-3.75,-3.78
265.82,-1.47,2.32,-1.47,2.32,-2.31,-2.28,-2.61,-3.78,-3.78,-3.79
268.48,-1.53,2.27,-1.52,2.28,-2.29,-2.26,-2.59,-3.82,-3.82,-3.80
271.16,-1.58,2.24,-1.56,2.25,-2.27,-2.24,-2.56,-3.85,-3.83,-3.81
273.87,-1.59,2.23,-1.59,2.23,-2.24,-2.22,-2.53,-3.83,-3.83,-3.82
276.61,-1.60,2.24,-1.61,2.23,-2.21,-2.20,-2.49,-3.81,-3.82,-3.83
279.38,-1.65,2.21,-1.65,2.20,-2.18,-2.18,-2.46,-3.83,-3.83,-3.86
282.17,-1.69,2.17,-1.69,2.16,-2.16,-2.15,-2.42,-3.85,-3.86,-3.85
284.99,-1.75,2.11,-1.74,2.12,-2.15,-2.13,-2.39,-3.89,-3.88,-3.86
287.84,-1.77,2.08,-1.76,2.10,-2.13,-2.11,-2.35,-3.90,-3.89,-3.85
290.72,-1.76,2.11,-1.76,2.10,-2.11,-2.09,-2.31,-3.87,-3.87,-3.87
293.63,-1.75,2.11,-1.75,2.11,-2.09,-2.07,-2.27,-3.84,-3.84,-3.86
296.57,-1.74,2.12,-1.76,2.10,-2.07,-2.05,-2.23,-3.80,-3.83,-3.85
299.53,-1.80,2.06,-1.79,2.06,-2.05,-2.03,-2.19,-3.84,-3.84,-3.86
302.53,-1.84,2.01,-1.83,2.02,-2.03,-2.00,-2.15,-3.87,-3.86,-3.85
305.55,-1.88,1.98,-1.86,1.99,-2.01,-1.98,-2.11,-3.89,-3.87,-3.86
308.61,-1.88,1.97,-1.88,1.97,-1.98,-1.96,-2.07,-3.86,-3.86,-3.85
311.69,-1.88,1.98,-1.90,1.95,-1.96,-1.94,-2.03,-3.84,-3.86,-3.86
314.81,-1.94,1.92,-1.93,1.93,-1.94,-1.92,-1.99,-3.87,-3.86,-3.85
317.96,-1.97,1.90,-1.95,1.92,-1.92,-1.90,-1.96,-3.88,-3.86,-3.87
321.14,-1.96,1.90,-1.96,1.90,-1.90,-1.88,-1.92,-3.85,-3.86,-3.86
324.35,-1.95,1.92,-1.98,1.88,-1.87,-1.86,-1.88,-3.82,-3.85,-3.86
327.59,-2.01,1.85,-2.00,1.86,-1.85,-1.84,-1.85,-3.86,-3.85,-3.86
330.87,-2.06,1.80,-2.03,1.83,-1.82,-1.82,-1.81,-3.88,-3.85,-3.86
334.18,-2.07,1.80,-2.07,1.80,-1.79,-1.80,-1.78,-3.86,-3.86,-3.87
337.52,-2.07,1.80,-2.10,1.77,-1.77,-1.78,-1.75,-3.84,-3.87,-3.86
340.90,-2.15,1.72,-2.13,1.73,-1.75,-1.76,-1.72,-3.89,-3.88,-3.87
344.30,-2.18,1.68,-2.16,1.70,-1.72,-1.74,-1.69,-3.90,-3.88,-3.86
347.75,-2.17,1.68,-2.17,1.69,-1.70,-1.72,-1.66,-3.87,-3.87,-3.85
351.23,-2.16,1.70,-2.16,1.69,-1.67,-1.70,-1.63,-3.83,-3.83,-3.86
354.74,-2.16,1.69,-2.18,1.67,-1.64,-1.68,-1.61,-3.80,-3.82,-3.84
358.28,-2.22,1.63,-2.20,1.64,-1.61,-1.66,-1.58,-3.83,-3.81,-3.85
361.87,-2.25,1.59,-2.24,1.59,-1.58,-1.64,-1.56,-3.83,-3.82,-3.84
365.49,-2.26,1.57,-2.28,1.54,-1.56,-1.62,-1.54,-3.82,-3.84,-3.83
369.14,-2.33,1.49,-2.31,1.51,-1.54,-1.60,-1.52,-3.86,-3.85,-3.82
372.83,-2.34,1.47,-2.33,1.49,-1.52,-1.59,-1.50,-3.86,-3.84,-3.81
376.56,-2.32,1.50,-2.33,1.49,-1.51,-1.57,-1.48,-3.83,-3.84,-3.81
380.33,-2.31,1.51,-2.31,1.50,-1.51,-1.55,-1.46,-3.82,-3.82,-3.81
384.13,-2.30,1.51,-2.30,1.51,-1.51,-1.53,-1.44,-3.81,-3.81,-3.81
387.97,-2.30,1.51,-2.29,1.51,-1.51,-1.51,-1.43,-3.81,-3.80,-3.81
391.85,-2.29,1.52,-2.28,1.54,-1.50,-1.50,-1.41,-3.79,-3.78,-3.81
395.77,-2.28,1.54,-2.27,1.54,-1.49,-1.48,-1.40,-3.76,-3.76,-3.82
399.73,-2.27,1.55,-2.31,1.51,-1.47,-1.46,-1.39,-3.73,-3.78,-3.82
403.72,-2.38,1.43,-2.38,1.44,-1.44,-1.45,-1.38,-3.82,-3.82,-3.81
407.76,-2.49,1.35,-2.45,1.38,-1.42,-1.43,-1.37,-3.91,-3.87,-3.83
411.84,-2.50,1.34,-2.50,1.34,-1.40,-1.41,-1.36,-3.89,-3.89,-3.83
415.96,-2.49,1.35,-2.50,1.34,-1.37,-1.40,-1.35,-3.86,-3.87,-3.84
420.12,-2.49,1.36,-2.49,1.35,-1.34,-1.38,-1.34,-3.83,-3.83,-3.85
424.32,-2.49,1.35,-2.48,1.35,-1.32,-1.37,-1.33,-3.81,-3.80,-3.84
428.56,-2.48,1.34,-2.48,1.35,-1.31,-1.35,-1.32,-3.78,-3.78,-3.82
432.85,-2.47,1.33,-2.49,1.32,-1.30,-1.34,-1.32,-3.77,-3.79,-3.80
437.18,-2.50,1.29,-2.50,1.28,-1.29,-1.32,-1.31,-3.79,-3.79,-3.79
441.55,-2.52,1.23,-2.49,1.26,-1.29,-1.31,-1.31,-3.80,-3.78,-3.75
445.96,-2.47,1.24,-2.47,1.25,-1.28,-1.29,-1.30,-3.75,-3.75,-3.71
450.42,-2.40,1.27,-2.41,1.26,-1.28,-1.28,-1.30,-3.67,-3.69,-3.67
454.93,-2.34,1.29,-2.34,1.28,-1.28,-1.27,-1.29,-3.61,-3.61,-3.62
459.48,-2.28,1.29,-2.28,1.28,-1.27,-1.25,-1.29,-3.55,-3.55,-3.56
464.07,-2.22,1.28,-2.22,1.28,-1.27,-1.24,-1.28,-3.49,-3.49,-3.49
468.71,-2.17,1.28,-2.15,1.29,-1.26,-1.23,-1.28,-3.43,-3.41,-3.44
473.40,-2.10,1.29,-2.10,1.28,-1.25,-1.22,-1.27,-3.35,-3.35,-3.39
478.13,-2.05,1.28,-2.08,1.25,-1.24,-1.20,-1.27,-3.28,-3.32,-3.33
482.91,-2.09,1.19,-2.07,1.20,-1.22,-1.19,-1.26,-3.30,-3.29,-3.28
487.74,-2.10,1.14,-2.06,1.17,-1.20,-1.18,-1.26,-3.30,-3.26,-3.24
