frequency,raw
20,-21.24
21,-20.75
22,-20.43
23,-20.14
24,-19.83
25,-19.45
26,-19.13
27,-18.82
28,-18.48
29,-18.20
30,-17.95
31,-17.75
32,-17.51
33,-17.20
34,-17.03
35,-16.86
36,-16.53
37,-16.26
38,-16.21
39,-15.88
40,-15.68
41,-15.56
42,-15.35
43,-15.24
44,-14.94
45,-14.91
46,-14.91
47,-14.59
48,-14.59
49,-14.26
50,-14.26
51,-14.07
52,-13.94
53,-13.80
54,-13.61
55,-13.47
56,-13.29
57,-13.29
58,-13.11
59,-12.97
60,-12.88
61,-12.70
62,-12.64
63,-12.50
64,-12.32
65,-12.32
66,-12.27
67,-11.99
68,-11.99
69,-11.92
70,-11.67
71,-11.67
72,-11.67
73,-11.62
74,-11.34
75,-11.34
76,-11.34
77,-11.06
78,-11.02
79,-11.02
80,-10.93
81,-10.79
82,-10.70
83,-10.70
84,-10.70
85,-10.45
86,-10.37
87,-10.37
88,-10.34
89,-10.22
90,-10.09
91,-10.05
92,-10.05
93,-10.04
94,-9.80
95,-9.72
96,-9.72
97,-9.72
98,-9.62
99,-9.50
100,-9.40
101,-9.40
102,-9.40
104,-9.14
105,-9.07
106,-9.07
107,-9.07
108,-9.00
109,-8.90
110,-8.80
111,-8.75
112,-8.75
113,-8.75
114,-8.72
115,-8.62
117,-8.43
118,-8.43
119,-8.43
120,-8.43
121,-8.31
123,-8.10
124,-8.10
125,-8.10
126,-8.07
128,-7.90
129,-7.81
130,-7.78
131,-7.78
133,-7.78
134,-7.70
135,-7.62
137,-7.45
138,-7.45
140,-7.45
141,-7.45
142,-7.29
144,-7.13
145,-7.13
147,-7.13
148,-7.13
150,-7.03
151,-6.88
153,-6.80
154,-6.80
156,-6.80
157,-6.73
159,-6.58
160,-6.51
162,-6.48
164,-6.48
165,-6.48
167,-6.35
169,-6.22
170,-6.15
172,-6.15
174,-6.15
175,-6.15
177,-6.15
179,-5.96
181,-5.83
183,-5.83
184,-5.83
186,-5.83
188,-5.82
190,-5.58
192,-5.51
194,-5.51
196,-5.51
198,-5.51
200,-5.45
202,-5.34
204,-5.23
206,-5.18
208,-5.18
210,-5.18
212,-5.12
214,-5.01
216,-4.91
218,-4.86
221,-4.86
223,-4.86
225,-4.86
227,-4.81
229,-4.61
232,-4.53
234,-4.53
236,-4.53
239,-4.53
241,-4.53
244,-4.50
246,-4.41
248,-4.32
251,-4.21
253,-4.21
256,-4.21
259,-4.15
261,-4.07
264,-3.94
266,-3.88
269,-3.88
272,-3.88
274,-3.88
277,-3.88
280,-3.76
283,-3.64
286,-3.56
288,-3.56
291,-3.56
294,-3.56
297,-3.56
300,-3.56
303,-3.52
306,-3.41
309,-3.30
312,-3.24
316,-3.24
319,-3.24
322,-3.24
325,-3.21
328,-3.11
332,-2.97
335,-2.91
338,-2.91
342,-2.91
345,-2.91
349,-2.90
352,-2.80
356,-2.67
359,-2.59
363,-2.59
366,-2.59
370,-2.59
374,-2.59
377,-2.59
381,-2.59
385,-2.59
389,-2.59
393,-2.59
397,-2.59
401,-2.59
405,-2.59
409,-2.59
413,-2.59
417,-2.59
421,-2.59
425,-2.59
430,-2.59
434,-2.59
438,-2.59
443,-2.59
447,-2.53
451,-2.43
456,-2.43
460,-2.37
465,-2.26
470,-2.26
474,-2.26
479,-2.26
484,-2.26
489,-2.36
494,-2.43
499,-2.43
504,-2.54
509,-2.59
514,-2.59
519,-2.59
524,-2.59
529,-2.59
535,-2.59
540,-2.59
545,-2.61
551,-2.73
556,-2.84
562,-2.91
568,-2.91
573,-2.91
579,-2.97
585,-3.08
591,-3.20
596,-3.24
602,-3.24
608,-3.24
615,-3.24
621,-3.24
627,-3.24
633,-3.24
639,-3.27
646,-3.39
652,-3.40
659,-3.46
665,-3.56
672,-3.56
679,-3.49
686,-3.37
692,-3.27
699,-3.24
706,-3.24
713,-3.24
721,-3.24
728,-3.14
735,-2.92
742,-2.91
750,-2.91
757,-2.91
765,-2.67
773,-2.59
780,-2.57
788,-2.46
796,-2.34
804,-2.23
812,-2.12
820,-2.01
828,-1.94
837,-1.93
845,-1.72
853,-1.61
862,-1.59
871,-1.36
879,-1.29
888,-1.27
897,-1.15
906,-1.04
915,-0.93
924,-0.82
933,-0.71
943,-0.59
952,-0.48
962,-0.36
971,-0.32
981,-0.30
991,-0.07
1001,0.01
1011,0.03
1021,0.14
1031,0.26
1041,0.36
1052,0.48
1062,0.59
1073,0.66
1084,0.66
1094,0.76
1105,0.88
1116,0.98
1128,0.98
1139,0.98
1150,1.02
1162,1.26
1173,1.30
1185,1.30
1197,1.30
1209,1.30
1221,1.30
1233,1.30
1246,1.30
1258,1.30
1271,1.30
1283,1.30
1296,1.30
1309,1.30
1322,1.30
1335,1.30
1349,1.30
1362,1.30
1376,1.30
1390,1.30
1404,1.30
1418,1.30
1432,1.30
1446,1.30
1461,1.30
1475,1.30
1490,1.28
1505,1.16
1520,1.05
1535,0.98
1550,0.98
1566,0.98
1582,0.98
1597,0.98
1613,0.98
1629,0.98
1646,0.95
1662,0.73
1679,0.66
1696,0.66
1713,0.66
1730,0.66
1747,0.66
1764,0.66
1782,0.66
1800,0.66
1818,0.65
1836,0.54
1854,0.43
1873,0.33
1892,0.33
1911,0.33
1930,0.33
1949,0.33
1969,0.33
1988,0.33
2008,0.33
2028,0.23
2048,0.17
2069,0.16
2090,0.05
2111,0.01
2132,0.01
2153,0.01
2175,0.01
2196,0.01
2218,0.01
2240,-0.08
2263,-0.20
2285,-0.31
2308,-0.32
2331,-0.32
2355,-0.33
2378,-0.55
2402,-0.64
2426,-0.64
2450,-0.64
2475,-0.80
2500,-0.97
2525,-0.97
2550,-1.15
2575,-1.29
2601,-1.29
2627,-1.40
2653,-1.51
2680,-1.63
2707,-1.86
2734,-1.94
2761,-1.98
2789,-2.21
2817,-2.35
2845,-2.46
2873,-2.57
2902,-2.78
2931,-2.96
2960,-3.07
2990,-3.18
3020,-3.35
3050,-3.56
3080,-3.56
3111,-3.70
3142,-3.90
3174,-4.02
3206,-4.13
3238,-4.28
3270,-4.50
3303,-4.53
3336,-4.63
3369,-4.85
3403,-4.97
3437,-5.08
3471,-5.19
3506,-5.30
3541,-5.42
3576,-5.51
3612,-5.51
3648,-5.59
3685,-5.70
3721,-5.81
3759,-5.83
3796,-5.88
3834,-5.99
3873,-6.10
3911,-6.15
3950,-6.15
3990,-6.15
4030,-6.15
4070,-6.15
4111,-6.15
4152,-6.15
4193,-6.15
4235,-6.15
4278,-6.15
4321,-6.11
4364,-5.99
4407,-5.88
4451,-5.83
4496,-5.81
4541,-5.58
4586,-5.51
4632,-5.46
4679,-5.23
4725,-5.18
4773,-5.11
4820,-4.88
4868,-4.66
4917,-4.48
4966,-4.37
5016,-4.26
5066,-4.08
5117,-3.88
5168,-3.88
5220,-3.73
5272,-3.56
5325,-3.56
5378,-3.47
5432,-3.36
5486,-3.25
5541,-3.24
5596,-3.29
5652,-3.40
5709,-3.51
5766,-3.56
5823,-3.59
5882,-3.81
5940,-3.96
6000,-4.10
6060,-4.32
6120,-4.55
6182,-4.78
6244,-5.00
6306,-5.22
6369,-5.55
6433,-6.00
6497,-6.22
6562,-6.58
6628,-7.03
6694,-7.48
6761,-7.85
6828,-8.18
6897,-8.52
6966,-8.95
7035,-9.40
7106,-9.85
7177,-10.30
7249,-10.75
7321,-11.19
7394,-11.41
7468,-11.64
7543,-11.86
7618,-12.09
7694,-12.23
7771,-12.37
7849,-12.60
7928,-12.64
8007,-12.72
8087,-12.95
8168,-12.97
8250,-13.08
8332,-13.29
8415,-13.29
8499,-13.42
8584,-13.61
8670,-13.61
8757,-13.77
8845,-13.94
8933,-13.94
9022,-14.12
9113,-14.31
9204,-14.42
9296,-14.53
9389,-14.70
9483,-14.92
9577,-15.03
9673,-15.14
9770,-15.27
9868,-15.50
9966,-15.72
10066,-15.92
10167,-16.03
10268,-16.23
10371,-16.46
10475,-16.68
10579,-16.91
10685,-17.13
10792,-17.37
10900,-17.82
11009,-18.13
11119,-18.38
11230,-18.71
11343,-19.05
11456,-19.42
11571,-19.87
11686,-20.22
11803,-20.56
11921,-20.90
12040,-21.34
12161,-21.73
12282,-22.07
12405,-22.41
12529,-22.81
12655,-23.22
12781,-23.45
12909,-23.84
13038,-24.29
13168,-24.74
13300,-25.00
13433,-25.31
13567,-25.76
13703,-26.10
13840,-26.44
13978,-26.78
14118,-27.23
14259,-27.68
14402,-28.13
14546,-28.58
14692,-28.95
14838,-29.28
14987,-29.62
15137,-30.06
15288,-30.51
15441,-30.96
15595,-31.29
15751,-31.63
15909,-31.96
16068,-32.18
16229,-32.41
16391,-32.61
16555,-32.72
16720,-32.75
16888,-32.75
17056,-32.75
17227,-32.75
17399,-32.75
17573,-32.75
17749,-32.75
17926,-32.75
18106,-32.76
18287,-32.87
18470,-32.99
18654,-33.12
18841,-33.35
19029,-33.66
19220,-34.03
19412,-34.48
19606,-35.03
19802,-35.59
20000,-36.15
