frequency,raw,smoothed,error,error_smoothed,equalization,parametric_eq,fixed_band_eq,equalized_raw,equalized_smoothed,target
20.00,6.62,6.62,-2.91,-2.91,2.90,2.93,0.44,9.52,9.52,9.53
20.20,6.65,6.66,-2.88,-2.88,2.87,2.89,0.45,9.53,9.53,9.53
20.40,6.69,6.69,-2.84,-2.84,2.84,2.84,0.47,9.54,9.54,9.53
20.61,6.72,6.72,-2.81,-2.81,2.81,2.80,0.48,9.53,9.54,9.53
20.81,6.76,6.76,-2.77,-2.77,2.78,2.76,0.50,9.54,9.53,9.53
21.02,6.78,6.79,-2.75,-2.74,2.74,2.71,0.52,9.52,9.52,9.53
21.23,6.81,6.81,-2.70,-2.70,2.70,2.67,0.54,9.51,9.51,9.51
21.44,6.84,6.84,-2.65,-2.66,2.66,2.62,0.56,9.50,9.50,9.50
21.66,6.86,6.87,-2.61,-2.61,2.62,2.58,0.57,9.48,9.48,9.48
21.87,6.89,6.89,-2.56,-2.57,2.57,2.53,0.59,9.46,9.46,9.46
22.09,6.91,6.91,-2.53,-2.52,2.52,2.48,0.62,9.43,9.44,9.45
22.31,6.94,6.94,-2.47,-2.48,2.47,2.43,0.64,9.41,9.41,9.41
22.54,6.97,6.97,-2.42,-2.42,2.41,2.39,0.66,9.39,9.39,9.39
22.76,7.01,7.01,-2.36,-2.36,2.36,2.34,0.68,9.37,9.36,9.37
22.99,7.04,7.04,-2.30,-2.30,2.30,2.29,0.70,9.34,9.34,9.34
23.22,7.08,7.08,-2.23,-2.23,2.24,2.24,0.73,9.32,9.32,9.31
23.45,7.12,7.12,-2.17,-2.17,2.18,2.19,0.75,9.30,9.30,9.29
23.69,7.16,7.16,-2.12,-2.12,2.12,2.14,0.77,9.28,9.28,9.28
23.92,7.19,7.20,-2.07,-2.07,2.07,2.09,0.80,9.26,9.26,9.26
24.16,7.23,7.23,-2.02,-2.02,2.01,2.04,0.82,9.24,9.24,9.25
24.40,7.26,7.27,-1.96,-1.96,1.96,1.99,0.85,9.22,9.23,9.23
24.65,7.30,7.30,-1.91,-1.91,1.91,1.94,0.87,9.21,9.21,9.21
24.89,7.33,7.33,-1.85,-1.86,1.86,1.89,0.90,9.19,9.19,9.19
25.14,7.36,7.36,-1.81,-1.81,1.81,1.84,0.92,9.17,9.17,9.18
25.39,7.39,7.39,-1.76,-1.76,1.76,1.78,0.94,9.15,9.15,9.15
25.65,7.42,7.43,-1.72,-1.71,1.71,1.73,0.97,9.13,9.14,9.14
25.91,7.46,7.46,-1.65,-1.66,1.66,1.68,0.99,9.12,9.12,9.11
26.16,7.49,7.49,-1.61,-1.61,1.61,1.62,1.02,9.11,9.11,9.10
26.43,7.52,7.52,-1.57,-1.56,1.57,1.57,1.04,9.09,9.09,9.09
26.69,7.55,7.55,-1.52,-1.52,1.52,1.51,1.06,9.07,9.07,9.07
26.96,7.59,7.59,-1.47,-1.47,1.47,1.46,1.08,9.06,9.06,9.06
27.23,7.62,7.62,-1.42,-1.42,1.42,1.40,1.10,9.04,9.04,9.05
27.50,7.66,7.66,-1.37,-1.37,1.36,1.35,1.12,9.03,9.03,9.03
27.77,7.70,7.70,-1.31,-1.32,1.31,1.29,1.14,9.01,9.01,9.01
28.05,7.74,7.74,-1.26,-1.26,1.26,1.24,1.15,9.00,9.00,9.00
28.33,7.78,7.79,-1.20,-1.20,1.20,1.18,1.16,8.98,8.99,8.98
28.62,7.83,7.83,-1.14,-1.14,1.14,1.12,1.17,8.98,8.97,8.97
28.90,7.87,7.87,-1.08,-1.08,1.09,1.07,1.18,8.96,8.96,8.96
29.19,7.91,7.91,-1.02,-1.03,1.03,1.01,1.19,8.95,8.95,8.94
29.48,7.95,7.95,-0.98,-0.98,0.98,0.95,1.19,8.93,8.93,8.93
29.78,7.99,7.99,-0.93,-0.93,0.93,0.89,1.19,8.92,8.92,8.92
30.08,8.03,8.03,-0.88,-0.88,0.87,0.84,1.18,8.90,8.90,8.91
30.38,8.07,8.07,-0.82,-0.82,0.82,0.78,1.18,8.89,8.89,8.89
30.68,8.11,8.11,-0.76,-0.76,0.76,0.72,1.17,8.88,8.87,8.88
30.99,8.15,8.15,-0.70,-0.71,0.70,0.66,1.15,8.86,8.86,8.85
31.30,8.19,8.19,-0.65,-0.65,0.65,0.60,1.13,8.84,8.84,8.84
31.61,8.24,8.24,-0.59,-0.59,0.58,0.54,1.11,8.83,8.82,8.83
31.93,8.28,8.28,-0.53,-0.52,0.52,0.48,1.09,8.80,8.81,8.81
32.24,8.33,8.33,-0.44,-0.46,0.46,0.42,1.06,8.79,8.79,8.78
32.57,8.37,8.37,-0.39,-0.39,0.39,0.36,1.03,8.76,8.76,8.76
32.89,8.41,8.42,-0.34,-0.33,0.33,0.30,1.00,8.74,8.74,8.75
33.22,8.46,8.46,-0.25,-0.26,0.26,0.24,0.96,8.72,8.72,8.72
33.55,8.50,8.51,-0.20,-0.20,0.20,0.18,0.92,8.70,8.70,8.70
33.89,8.55,8.55,-0.13,-0.13,0.13,0.12,0.87,8.68,8.68,8.68
34.23,8.59,8.59,-0.07,-0.07,0.07,0.06,0.82,8.66,8.66,8.66
34.57,8.63,8.63,-0.00,-0.00,0.00,-0.00,0.77,8.64,8.64,8.64
34.92,8.67,8.68,0.06,0.06,-0.06,-0.06,0.72,8.61,8.62,8.61
35.27,8.72,8.72,0.12,0.12,-0.12,-0.12,0.67,8.60,8.59,8.60
35.62,8.76,8.76,0.19,0.19,-0.19,-0.18,0.61,8.57,8.57,8.58
35.97,8.80,8.81,0.25,0.25,-0.25,-0.24,0.55,8.55,8.55,8.55
36.33,8.85,8.85,0.31,0.32,-0.32,-0.31,0.49,8.54,8.53,8.54
36.70,8.89,8.89,0.38,0.38,-0.38,-0.37,0.42,8.51,8.51,8.51
37.06,8.94,8.94,0.45,0.45,-0.45,-0.43,0.36,8.50,8.49,8.49
37.43,8.98,8.99,0.51,0.51,-0.51,-0.49,0.29,8.47,8.47,8.48
37.81,9.03,9.03,0.58,0.58,-0.58,-0.55,0.23,8.45,8.45,8.45
38.19,9.07,9.07,0.64,0.64,-0.64,-0.61,0.16,8.43,8.43,8.43
38.57,9.11,9.12,0.70,0.71,-0.71,-0.67,0.09,8.40,8.41,8.41
38.95,9.16,9.16,0.78,0.77,-0.77,-0.73,0.02,8.39,8.39,8.39
39.34,9.20,9.20,0.84,0.84,-0.83,-0.80,-0.05,8.37,8.37,8.36
39.74,9.24,9.24,0.90,0.90,-0.90,-0.86,-0.13,8.34,8.35,8.34
40.14,9.28,9.28,0.95,0.96,-0.96,-0.92,-0.20,8.32,8.32,8.33
40.54,9.32,9.32,1.02,1.02,-1.02,-0.98,-0.28,8.30,8.30,8.31
40.94,9.36,9.37,1.07,1.08,-1.08,-1.04,-0.35,8.28,8.29,8.29
41.35,9.41,9.41,1.15,1.14,-1.14,-1.10,-0.43,8.28,8.27,8.26
41.76,9.45,9.45,1.19,1.20,-1.19,-1.16,-0.50,8.26,8.26,8.26
42.18,9.49,9.49,1.25,1.25,-1.25,-1.22,-0.58,8.24,8.24,8.24
42.60,9.53,9.53,1.32,1.31,-1.31,-1.28,-0.66,8.22,8.22,8.21
43.03,9.56,9.57,1.35,1.36,-1.37,-1.34,-0.74,8.19,8.20,8.21
43.46,9.60,9.60,1.42,1.42,-1.43,-1.40,-0.82,8.17,8.17,8.18
43.90,9.64,9.64,1.49,1.48,-1.49,-1.46,-0.90,8.15,8.16,8.15
44.33,9.68,9.68,1.55,1.55,-1.55,-1.51,-0.98,8.14,8.14,8.14
44.78,9.72,9.72,1.60,1.61,-1.60,-1.57,-1.06,8.12,8.12,8.12
45.23,9.75,9.76,1.66,1.66,-1.66,-1.63,-1.14,8.09,8.10,8.09
45.68,9.79,9.79,1.72,1.72,-1.71,-1.69,-1.22,8.08,8.08,8.07
46.13,9.82,9.83,1.77,1.77,-1.77,-1.74,-1.30,8.06,8.06,8.05
46.60,9.86,9.86,1.82,1.82,-1.82,-1.80,-1.39,8.04,8.04,8.04
47.06,9.89,9.89,1.87,1.87,-1.87,-1.86,-1.47,8.02,8.02,8.02
47.53,9.92,9.93,1.92,1.92,-1.93,-1.91,-1.56,8.00,8.00,8.00
48.01,9.96,9.96,1.97,1.97,-1.98,-1.97,-1.64,7.98,7.98,7.99
48.49,9.99,9.99,2.03,2.03,-2.04,-2.02,-1.73,7.96,7.96,7.96
48.97,10.02,10.02,2.09,2.09,-2.09,-2.08,-1.81,7.93,7.93,7.93
49.46,10.05,10.05,2.15,2.15,-2.14,-2.13,-1.90,7.91,7.91,7.90
49.96,10.08,10.08,2.21,2.21,-2.20,-2.19,-1.98,7.88,7.88,7.87
50.46,10.11,10.11,2.25,2.25,-2.25,-2.24,-2.07,7.86,7.86,7.87
50.96,10.14,10.14,2.30,2.30,-2.30,-2.29,-2.16,7.84,7.84,7.84
51.47,10.16,10.17,2.35,2.35,-2.35,-2.34,-2.24,7.81,7.81,7.81
51.99,10.19,10.19,2.41,2.40,-2.40,-2.39,-2.33,7.79,7.79,7.79
52.51,10.22,10.22,2.45,2.45,-2.45,-2.45,-2.42,7.77,7.77,7.77
53.03,10.24,10.24,2.49,2.50,-2.50,-2.50,-2.50,7.74,7.74,7.75
53.56,10.27,10.27,2.55,2.55,-2.55,-2.55,-2.58,7.72,7.72,7.72
54.10,10.29,10.30,2.59,2.60,-2.60,-2.59,-2.67,7.69,7.70,7.70
54.64,10.32,10.32,2.65,2.65,-2.65,-2.64,-2.75,7.68,7.67,7.67
55.18,10.34,10.34,2.70,2.70,-2.69,-2.69,-2.83,7.65,7.65,7.64
55.74,10.36,10.36,2.74,2.74,-2.74,-2.74,-2.91,7.62,7.62,7.62
56.29,10.38,10.38,2.78,2.79,-2.79,-2.78,-2.98,7.59,7.59,7.60
56.86,10.40,10.40,2.83,2.83,-2.83,-2.83,-3.06,7.57,7.57,7.57
57.42,10.42,10.42,2.88,2.87,-2.87,-2.88,-3.13,7.55,7.55,7.54
58.00,10.44,10.44,2.92,2.92,-2.91,-2.92,-3.20,7.53,7.53,7.52
58.58,10.45,10.46,2.96,2.96,-2.95,-2.97,-3.27,7.50,7.50,7.49
59.16,10.47,10.47,3.00,3.00,-2.99,-3.01,-3.33,7.48,7.47,7.47
59.76,10.48,10.48,3.03,3.03,-3.04,-3.05,-3.39,7.45,7.45,7.45
60.35,10.49,10.50,3.07,3.07,-3.08,-3.09,-3.44,7.42,7.42,7.42
60.96,10.51,10.51,3.10,3.11,-3.12,-3.14,-3.50,7.40,7.39,7.41
61.57,10.52,10.52,3.16,3.15,-3.16,-3.18,-3.54,7.37,7.37,7.37
62.18,10.53,10.53,3.20,3.20,-3.20,-3.22,-3.59,7.34,7.34,7.33
62.80,10.54,10.54,3.24,3.24,-3.24,-3.26,-3.63,7.31,7.31,7.31
63.43,10.55,10.55,3.28,3.28,-3.27,-3.30,-3.67,7.28,7.28,7.27
64.07,10.56,10.56,3.32,3.31,-3.31,-3.34,-3.70,7.25,7.25,7.25
64.71,10.57,10.57,3.34,3.35,-3.34,-3.38,-3.73,7.23,7.23,7.23
65.35,10.58,10.58,3.38,3.37,-3.38,-3.42,-3.76,7.21,7.20,7.20
66.01,10.58,10.59,3.40,3.40,-3.41,-3.46,-3.78,7.17,7.18,7.18
66.67,10.59,10.59,3.44,3.44,-3.44,-3.49,-3.80,7.16,7.16,7.15
67.33,10.60,10.60,3.47,3.46,-3.47,-3.53,-3.82,7.14,7.13,7.14
68.01,10.60,10.60,3.50,3.50,-3.49,-3.57,-3.84,7.11,7.11,7.10
68.69,10.60,10.61,3.52,3.53,-3.52,-3.60,-3.85,7.08,7.08,7.08
69.37,10.61,10.61,3.56,3.55,-3.55,-3.64,-3.87,7.06,7.05,7.05
70.07,10.61,10.61,3.58,3.58,-3.58,-3.68,-3.88,7.03,7.03,7.03
70.77,10.61,10.62,3.61,3.61,-3.62,-3.71,-3.89,7.00,7.00,7.01
71.48,10.62,10.62,3.65,3.64,-3.65,-3.75,-3.90,6.98,6.97,6.97
72.19,10.62,10.62,3.68,3.68,-3.68,-3.78,-3.91,6.94,6.94,6.95
72.91,10.62,10.62,3.71,3.71,-3.71,-3.82,-3.91,6.91,6.91,6.91
73.64,10.62,10.62,3.75,3.75,-3.75,-3.85,-3.92,6.87,6.87,6.87
74.38,10.62,10.62,3.78,3.78,-3.78,-3.89,-3.93,6.84,6.84,6.84
75.12,10.62,10.62,3.83,3.82,-3.82,-3.92,-3.94,6.80,6.80,6.80
75.87,10.62,10.62,3.86,3.85,-3.85,-3.96,-3.96,6.77,6.77,6.77
76.63,10.62,10.62,3.89,3.89,-3.89,-3.99,-3.97,6.73,6.73,6.74
77.40,10.62,10.62,3.93,3.93,-3.93,-4.03,-3.98,6.69,6.69,6.70
78.17,10.62,10.62,3.98,3.97,-3.97,-4.06,-4.00,6.65,6.65,6.64
78.95,10.62,10.62,4.00,4.01,-4.01,-4.10,-4.02,6.62,6.62,6.62
79.74,10.62,10.62,4.04,4.05,-4.05,-4.14,-4.04,6.58,6.58,6.58
80.54,10.62,10.62,4.09,4.09,-4.09,-4.17,-4.06,6.54,6.53,6.53
81.35,10.62,10.62,4.13,4.13,-4.13,-4.21,-4.09,6.49,6.49,6.49
82.16,10.61,10.62,4.17,4.17,-4.17,-4.24,-4.12,6.44,6.44,6.44
82.98,10.61,10.61,4.21,4.21,-4.21,-4.28,-4.15,6.40,6.40,6.41
83.81,10.61,10.61,4.26,4.26,-4.26,-4.31,-4.19,6.35,6.35,6.35
84.65,10.61,10.61,4.31,4.30,-4.30,-4.35,-4.22,6.31,6.31,6.30
85.50,10.60,10.61,4.34,4.35,-4.35,-4.39,-4.26,6.26,6.26,6.26
86.35,10.60,10.60,4.39,4.39,-4.39,-4.43,-4.31,6.21,6.21,6.21
87.22,10.60,10.60,4.44,4.43,-4.44,-4.46,-4.36,6.17,6.16,6.16
88.09,10.60,10.60,4.49,4.48,-4.48,-4.50,-4.41,6.12,6.12,6.11
88.97,10.59,10.60,4.52,4.53,-4.53,-4.54,-4.46,6.07,6.07,6.07
89.86,10.59,10.59,4.57,4.57,-4.57,-4.58,-4.52,6.02,6.02,6.02
90.76,10.58,10.59,4.62,4.62,-4.62,-4.62,-4.58,5.97,5.97,5.96
91.66,10.58,10.58,4.67,4.67,-4.66,-4.66,-4.64,5.92,5.92,5.92
92.58,10.57,10.57,4.72,4.71,-4.71,-4.70,-4.71,5.87,5.87,5.85
93.51,10.56,10.57,4.74,4.75,-4.75,-4.74,-4.78,5.81,5.81,5.82
94.44,10.56,10.56,4.80,4.79,-4.80,-4.78,-4.86,5.76,5.76,5.77
95.39,10.55,10.55,4.84,4.84,-4.85,-4.82,-4.93,5.71,5.71,5.71
96.34,10.54,10.55,4.90,4.90,-4.90,-4.86,-5.02,5.65,5.65,5.65
97.30,10.54,10.54,4.95,4.95,-4.95,-4.90,-5.10,5.60,5.59,5.59
98.28,10.53,10.53,5.00,5.00,-5.00,-4.95,-5.18,5.54,5.54,5.54
99.26,10.52,10.53,5.05,5.05,-5.05,-4.99,-5.27,5.47,5.48,5.47
100.25,10.52,10.52,5.11,5.10,-5.10,-5.03,-5.36,5.42,5.42,5.42
101.25,10.51,10.51,5.15,5.16,-5.16,-5.08,-5.45,5.36,5.35,5.36
102.27,10.50,10.50,5.21,5.21,-5.21,-5.12,-5.55,5.29,5.29,5.29
103.29,10.49,10.50,5.27,5.26,-5.26,-5.16,-5.64,5.23,5.23,5.23
104.32,10.49,10.49,5.32,5.32,-5.32,-5.21,-5.74,5.17,5.17,5.17
105.37,10.48,10.48,5.37,5.37,-5.37,-5.25,-5.84,5.11,5.11,5.11
106.42,10.47,10.47,5.42,5.43,-5.43,-5.30,-5.93,5.05,5.05,5.05
107.48,10.46,10.46,5.48,5.48,-5.48,-5.35,-6.03,4.98,4.98,4.98
108.56,10.45,10.45,5.54,5.54,-5.54,-5.39,-6.12,4.92,4.92,4.92
109.64,10.44,10.44,5.59,5.59,-5.59,-5.44,-6.22,4.85,4.85,4.85
110.74,10.43,10.43,5.64,5.64,-5.65,-5.49,-6.30,4.78,4.78,4.79
111.85,10.42,10.42,5.69,5.70,-5.70,-5.54,-6.39,4.72,4.72,4.73
112.97,10.41,10.41,5.77,5.76,-5.76,-5.58,-6.48,4.65,4.65,4.64
114.10,10.40,10.40,5.82,5.82,-5.82,-5.63,-6.56,4.59,4.59,4.59
115.24,10.39,10.39,5.87,5.87,-5.87,-5.68,-6.63,4.52,4.52,4.52
116.39,10.37,10.38,5.92,5.93,-5.92,-5.73,-6.70,4.45,4.45,4.45
117.55,10.36,10.36,5.98,5.98,-5.98,-5.78,-6.76,4.39,4.39,4.38
118.73,10.35,10.35,6.03,6.03,-6.02,-5.82,-6.82,4.33,4.32,4.32
119.92,10.33,10.34,6.07,6.07,-6.07,-5.87,-6.86,4.26,4.26,4.27
121.12,10.32,10.32,6.12,6.12,-6.12,-5.92,-6.91,4.21,4.20,4.20
122.33,10.30,10.30,6.16,6.16,-6.16,-5.97,-6.94,4.14,4.14,4.14
123.55,10.29,10.29,6.20,6.20,-6.20,-6.02,-6.96,4.09,4.09,4.09
124.79,10.27,10.28,6.24,6.24,-6.25,-6.07,-6.98,4.02,4.03,4.03
126.03,10.26,10.26,6.28,6.29,-6.29,-6.11,-6.99,3.97,3.97,3.98
127.29,10.24,10.24,6.32,6.33,-6.33,-6.16,-6.98,3.91,3.91,3.92
128.57,10.22,10.23,6.37,6.37,-6.37,-6.21,-6.97,3.85,3.86,3.85
129.85,10.21,10.21,6.41,6.41,-6.40,-6.26,-6.95,3.81,3.80,3.80
131.15,10.19,10.19,6.44,6.44,-6.44,-6.30,-6.93,3.75,3.75,3.75
132.46,10.17,10.17,6.48,6.47,-6.47,-6.35,-6.89,3.70,3.70,3.69
133.79,10.15,10.15,6.49,6.50,-6.50,-6.39,-6.85,3.65,3.65,3.66
135.12,10.13,10.13,6.53,6.52,-6.53,-6.44,-6.80,3.60,3.60,3.60
136.48,10.11,10.11,6.55,6.54,-6.55,-6.48,-6.75,3.56,3.56,3.57
137.84,10.09,10.10,6.56,6.57,-6.57,-6.52,-6.69,3.52,3.52,3.53
139.22,10.08,10.08,6.60,6.60,-6.59,-6.56,-6.63,3.49,3.49,3.48
140.61,10.06,10.06,6.63,6.61,-6.61,-6.60,-6.57,3.46,3.46,3.44
142.02,10.04,10.04,6.62,6.62,-6.62,-6.64,-6.50,3.42,3.42,3.42
143.44,10.01,10.02,6.62,6.63,-6.63,-6.68,-6.43,3.38,3.38,3.39
144.87,9.99,9.99,6.64,6.63,-6.64,-6.72,-6.35,3.35,3.35,3.35
146.32,9.97,9.97,6.65,6.64,-6.65,-6.75,-6.28,3.32,3.32,3.32
147.78,9.95,9.95,6.65,6.65,-6.65,-6.79,-6.21,3.30,3.30,3.30
149.26,9.93,9.93,6.66,6.66,-6.66,-6.82,-6.13,3.27,3.27,3.28
150.75,9.91,9.91,6.67,6.67,-6.67,-6.85,-6.06,3.25,3.25,3.24
152.26,9.89,9.89,6.68,6.68,-6.67,-6.87,-5.98,3.22,3.22,3.21
153.78,9.86,9.87,6.68,6.68,-6.68,-6.90,-5.91,3.18,3.19,3.19
155.32,9.84,9.84,6.68,6.68,-6.68,-6.92,-5.84,3.16,3.16,3.16
156.88,9.82,9.82,6.68,6.68,-6.69,-6.94,-5.78,3.14,3.13,3.14
158.44,9.79,9.80,6.69,6.69,-6.69,-6.96,-5.71,3.10,3.11,3.11
160.03,9.77,9.77,6.70,6.70,-6.69,-6.97,-5.65,3.08,3.08,3.07
161.63,9.74,9.74,6.70,6.70,-6.69,-6.98,-5.59,3.05,3.05,3.04
163.24,9.71,9.72,6.69,6.69,-6.69,-7.00,-5.54,3.02,3.02,3.02
164.88,9.69,9.69,6.69,6.69,-6.69,-7.00,-5.49,3.00,2.99,3.00
166.53,9.66,9.66,6.69,6.69,-6.69,-7.01,-5.44,2.97,2.97,2.97
168.19,9.63,9.63,6.70,6.70,-6.69,-7.00,-5.39,2.94,2.94,2.93
169.87,9.60,9.60,6.70,6.70,-6.69,-7.00,-5.35,2.91,2.91,2.91
171.57,9.57,9.57,6.69,6.69,-6.69,-6.99,-5.32,2.88,2.88,2.88
173.29,9.54,9.54,6.69,6.69,-6.69,-6.99,-5.28,2.85,2.85,2.85
175.02,9.50,9.51,6.68,6.69,-6.69,-6.97,-5.25,2.81,2.81,2.82
176.77,9.47,9.47,6.70,6.69,-6.69,-6.96,-5.23,2.78,2.78,2.77
178.54,9.43,9.44,6.69,6.69,-6.69,-6.93,-5.21,2.74,2.74,2.74
180.32,9.40,9.40,6.70,6.70,-6.69,-6.91,-5.19,2.71,2.71,2.71
182.13,9.36,9.36,6.69,6.69,-6.69,-6.88,-5.18,2.67,2.67,2.67
183.95,9.32,9.32,6.69,6.69,-6.69,-6.85,-5.17,2.63,2.64,2.63
185.79,9.28,9.28,6.68,6.68,-6.68,-6.82,-5.17,2.60,2.60,2.60
187.65,9.23,9.24,6.67,6.68,-6.67,-6.78,-5.16,2.56,2.57,2.56
189.52,9.19,9.19,6.66,6.66,-6.66,-6.74,-5.17,2.53,2.53,2.53
191.42,9.15,9.15,6.65,6.65,-6.65,-6.70,-5.17,2.51,2.50,2.50
193.33,9.10,9.10,6.62,6.62,-6.63,-6.65,-5.18,2.47,2.47,2.48
195.27,9.05,9.06,6.60,6.61,-6.61,-6.60,-5.19,2.44,2.45,2.45
197.22,9.01,9.01,6.59,6.59,-6.59,-6.55,-5.21,2.42,2.42,2.42
199.19,8.96,8.96,6.58,6.57,-6.57,-6.49,-5.23,2.40,2.39,2.38
201.18,8.90,8.91,6.54,6.55,-6.54,-6.43,-5.25,2.36,2.37,2.36
203.19,8.85,8.85,6.51,6.51,-6.51,-6.37,-5.27,2.34,2.34,2.34
205.23,8.80,8.80,6.48,6.47,-6.48,-6.30,-5.30,2.32,2.32,2.32
207.28,8.74,8.75,6.43,6.44,-6.45,-6.24,-5.32,2.30,2.30,2.31
209.35,8.69,8.69,6.41,6.41,-6.41,-6.17,-5.35,2.28,2.28,2.28
211.44,8.63,8.63,6.38,6.37,-6.37,-6.10,-5.38,2.27,2.26,2.26
213.56,8.57,8.57,6.33,6.33,-6.32,-6.02,-5.41,2.25,2.25,2.24
215.69,8.50,8.51,6.26,6.27,-6.28,-5.95,-5.43,2.23,2.23,2.24
217.85,8.44,8.44,6.22,6.22,-6.23,-5.87,-5.46,2.22,2.22,2.23
220.03,8.38,8.38,6.18,6.17,-6.17,-5.79,-5.49,2.21,2.21,2.20
222.23,8.31,8.31,6.12,6.11,-6.11,-5.71,-5.51,2.20,2.20,2.19
224.45,8.24,8.24,6.04,6.05,-6.05,-5.63,-5.54,2.19,2.20,2.20
226.70,8.17,8.18,5.98,5.98,-5.98,-5.55,-5.55,2.19,2.19,2.19
228.96,8.11,8.11,5.92,5.91,-5.91,-5.47,-5.57,2.20,2.19,2.19
231.25,8.03,8.04,5.83,5.84,-5.84,-5.38,-5.58,2.19,2.20,2.20
233.57,7.96,7.96,5.75,5.76,-5.76,-5.30,-5.59,2.20,2.20,2.21
235.90,7.89,7.89,5.68,5.68,-5.68,-5.21,-5.59,2.21,2.21,2.21
238.26,7.81,7.81,5.60,5.60,-5.60,-5.13,-5.59,2.21,2.22,2.21
240.64,7.73,7.74,5.50,5.51,-5.51,-5.04,-5.58,2.22,2.23,2.23
243.05,7.66,7.66,5.42,5.42,-5.42,-4.95,-5.57,2.24,2.24,2.24
245.48,7.58,7.58,5.32,5.32,-5.32,-4.86,-5.55,2.26,2.26,2.26
247.93,7.50,7.50,5.23,5.23,-5.22,-4.78,-5.52,2.28,2.28,2.27
250.41,7.41,7.42,5.13,5.12,-5.12,-4.69,-5.49,2.29,2.30,2.29
252.92,7.33,7.33,5.01,5.01,-5.02,-4.60,-5.45,2.32,2.31,2.32
255.45,7.24,7.24,4.90,4.90,-4.91,-4.52,-5.40,2.33,2.34,2.34
258.00,7.15,7.16,4.79,4.79,-4.80,-4.43,-5.35,2.35,2.36,2.36
260.58,7.07,7.07,4.69,4.68,-4.69,-4.34,-5.29,2.39,2.38,2.38
263.19,6.97,6.98,4.57,4.58,-4.57,-4.25,-5.22,2.40,2.40,2.40
265.82,6.88,6.88,4.46,4.46,-4.46,-4.17,-5.14,2.43,2.43,2.42
268.48,6.79,6.79,4.34,4.34,-4.34,-4.08,-5.07,2.45,2.45,2.45
271.16,6.69,6.70,4.21,4.22,-4.22,-4.00,-4.98,2.47,2.48,2.48
273.87,6.60,6.60,4.10,4.10,-4.10,-3.91,-4.89,2.50,2.50,2.50
276.61,6.50,6.50,3.97,3.98,-3.98,-3.83,-4.80,2.53,2.53,2.53
279.38,6.40,6.40,3.86,3.85,-3.85,-3.74,-4.70,2.55,2.55,2.55
282.17,6.30,6.30,3.73,3.73,-3.73,-3.66,-4.60,2.58,2.57,2.57
284.99,6.19,6.20,3.60,3.60,-3.60,-3.58,-4.50,2.59,2.60,2.60
287.84,6.09,6.09,3.47,3.47,-3.47,-3.49,-4.39,2.62,2.62,2.62
290.72,5.99,5.99,3.34,3.34,-3.34,-3.41,-4.29,2.65,2.65,2.66
293.63,5.88,5.89,3.21,3.21,-3.21,-3.33,-4.18,2.68,2.68,2.67
296.57,5.78,5.78,3.07,3.07,-3.07,-3.25,-4.07,2.71,2.71,2.71
299.53,5.67,5.67,2.94,2.94,-2.93,-3.17,-3.95,2.74,2.74,2.73
302.53,5.56,5.57,2.80,2.80,-2.80,-3.09,-3.84,2.77,2.77,2.76
305.55,5.46,5.46,2.66,2.66,-2.66,-3.01,-3.73,2.80,2.80,2.81
308.61,5.35,5.35,2.52,2.52,-2.52,-2.94,-3.62,2.83,2.83,2.83
311.69,5.25,5.25,2.38,2.38,-2.39,-2.86,-3.51,2.87,2.87,2.87
314.81,5.15,5.15,2.25,2.25,-2.25,-2.78,-3.40,2.90,2.90,2.91
317.96,5.05,5.05,2.12,2.12,-2.12,-2.71,-3.29,2.93,2.93,2.93
321.14,4.95,4.95,1.99,1.99,-1.99,-2.63,-3.18,2.96,2.96,2.96
324.35,4.85,4.86,1.87,1.86,-1.86,-2.56,-3.07,2.99,2.99,2.99
327.59,4.76,4.76,1.74,1.74,-1.74,-2.49,-2.97,3.02,3.02,3.02
330.87,4.67,4.67,1.62,1.62,-1.63,-2.41,-2.86,3.05,3.05,3.05
334.18,4.58,4.59,1.51,1.51,-1.51,-2.34,-2.76,3.07,3.07,3.07
337.52,4.50,4.50,1.41,1.41,-1.40,-2.27,-2.66,3.10,3.10,3.10
340.90,4.42,4.42,1.30,1.30,-1.30,-2.20,-2.56,3.13,3.13,3.12
344.30,4.34,4.34,1.20,1.20,-1.20,-2.13,-2.46,3.14,3.15,3.14
347.75,4.27,4.27,1.10,1.10,-1.11,-2.06,-2.36,3.17,3.16,3.17
351.23,4.20,4.20,1.02,1.02,-1.03,-1.99,-2.27,3.18,3.18,3.19
354.74,4.14,4.15,0.94,0.94,-0.95,-1.92,-2.17,3.19,3.19,3.20
358.28,4.10,4.10,0.88,0.88,-0.89,-1.85,-2.08,3.21,3.21,3.22
361.87,4.07,4.07,0.83,0.83,-0.83,-1.79,-1.99,3.24,3.24,3.24
365.49,4.05,4.05,0.78,0.79,-0.79,-1.72,-1.90,3.27,3.26,3.27
369.14,4.03,4.03,0.76,0.75,-0.75,-1.65,-1.81,3.28,3.28,3.28
372.83,4.01,4.02,0.72,0.72,-0.72,-1.59,-1.73,3.30,3.30,3.29
376.56,4.01,4.01,0.70,0.69,-0.69,-1.52,-1.65,3.32,3.32,3.31
380.33,4.00,4.01,0.66,0.67,-0.67,-1.46,-1.56,3.33,3.34,3.34
384.13,4.01,4.01,0.65,0.65,-0.65,-1.39,-1.48,3.36,3.36,3.36
387.97,4.02,4.02,0.65,0.64,-0.64,-1.33,-1.40,3.38,3.38,3.38
391.85,4.03,4.03,0.64,0.64,-0.64,-1.26,-1.33,3.40,3.40,3.40
395.77,4.05,4.05,0.63,0.63,-0.64,-1.20,-1.25,3.42,3.42,3.42
399.73,4.08,4.08,0.64,0.64,-0.64,-1.14,-1.17,3.44,3.44,3.44
403.72,4.11,4.11,0.65,0.65,-0.65,-1.08,-1.10,3.46,3.46,3.46
407.76,4.14,4.15,0.66,0.66,-0.66,-1.01,-1.03,3.48,3.49,3.48
411.84,4.18,4.18,0.67,0.68,-0.67,-0.95,-0.96,3.51,3.51,3.51
415.96,4.22,4.22,0.69,0.69,-0.69,-0.89,-0.89,3.53,3.53,3.53
420.12,4.26,4.26,0.72,0.71,-0.71,-0.83,-0.82,3.55,3.55,3.55
424.32,4.30,4.30,0.73,0.73,-0.74,-0.76,-0.75,3.56,3.56,3.58
428.56,4.34,4.35,0.75,0.75,-0.76,-0.70,-0.68,3.58,3.58,3.59
432.85,4.39,4.39,0.78,0.77,-0.78,-0.64,-0.62,3.61,3.61,3.61
437.18,4.44,4.44,0.80,0.80,-0.80,-0.58,-0.55,3.64,3.64,3.64
441.55,4.48,4.49,0.81,0.82,-0.81,-0.52,-0.49,3.67,3.68,3.67
445.96,4.53,4.52,0.84,0.83,-0.81,-0.46,-0.42,3.72,3.71,3.69
450.42,4.53,4.53,0.82,0.82,-0.80,-0.40,-0.36,3.73,3.73,3.71
454.93,4.53,4.54,0.78,0.80,-0.79,-0.33,-0.30,3.75,3.75,3.75
459.48,4.53,4.53,0.76,0.76,-0.76,-0.27,-0.24,3.77,3.77,3.77
464.07,4.52,4.52,0.73,0.72,-0.73,-0.21,-0.18,3.79,3.79,3.80
468.71,4.51,4.51,0.68,0.69,-0.69,-0.15,-0.12,3.82,3.82,3.84
473.40,4.50,4.50,0.65,0.64,-0.65,-0.09,-0.06,3.85,3.85,3.86
478.13,4.49,4.49,0.61,0.60,-0.61,-0.03,-0.00,3.88,3.88,3.88
482.91,4.47,4.48,0.56,0.56,-0.56,0.04,0.06,3.91,3.91,3.91
487.74,4.46,4.46,0.52,0.52,-0.52,0.10,0.11,3.95,3.94,3.94
492.62,4.44,4.44,0.47,0.47,-0.47,0.16,0.17,3.97,3.97,3.97
497.55,4.41,4.42,0.42,0.42,-0.42,0.22,0.23,4.00,4.00,3.99
502.52,4.39,4.39,0.36,0.36,-0.36,0.29,0.28,4.03,4.03,4.03
507.55,4.36,4.36,0.31,0.31,-0.31,0.35,0.34,4.06,4.05,4.05
512.62,4.32,4.33,0.24,0.24,-0.25,0.41,0.39,4.08,4.08,4.08
517.75,4.29,4.29,0.18,0.18,-0.18,0.48,0.44,4.11,4.11,4.11
522.93,4.25,4.25,0.11,0.12,-0.12,0.54,0.50,4.14,4.13,4.14
528.16,4.21,4.21,0.05,0.05,-0.05,0.61,0.55,4.16,4.16,4.16
533.44,4.16,4.17,-0.03,-0.02,0.02,0.67,0.61,4.19,4.19,4.19
