frequency,raw,smoothed,error,error_smoothed,equalization,parametric_eq,fixed_band_eq,equalized_raw,equalized_smoothed,target
20.00,8.14,8.14,0.74,0.74,-0.75,-0.67,0.32,7.39,7.38,7.39
20.20,8.13,8.13,0.73,0.74,-0.74,-0.63,0.33,7.39,7.39,7.39
20.40,8.12,8.12,0.73,0.73,-0.72,-0.59,0.34,7.39,7.40,7.39
20.61,8.11,8.10,0.72,0.71,-0.70,-0.54,0.35,7.40,7.40,7.39
20.81,8.08,8.08,0.69,0.69,-0.68,-0.50,0.36,7.40,7.40,7.39
21.02,8.05,8.05,0.66,0.66,-0.65,-0.45,0.37,7.39,7.40,7.39
21.23,8.02,8.02,0.63,0.63,-0.62,-0.41,0.38,7.39,7.39,7.39
21.44,7.99,7.98,0.60,0.59,-0.59,-0.37,0.39,7.40,7.39,7.39
21.66,7.94,7.94,0.55,0.55,-0.55,-0.33,0.40,7.39,7.39,7.39
21.87,7.90,7.90,0.51,0.51,-0.51,-0.28,0.41,7.39,7.39,7.39
22.09,7.85,7.85,0.46,0.46,-0.46,-0.24,0.42,7.38,7.38,7.39
22.31,7.80,7.80,0.41,0.41,-0.42,-0.20,0.44,7.38,7.38,7.39
22.54,7.75,7.75,0.36,0.36,-0.37,-0.16,0.45,7.37,7.37,7.38
22.76,7.70,7.70,0.31,0.32,-0.33,-0.12,0.46,7.37,7.37,7.38
22.99,7.66,7.66,0.28,0.27,-0.28,-0.07,0.47,7.38,7.38,7.38
23.22,7.61,7.61,0.23,0.23,-0.22,-0.03,0.49,7.38,7.38,7.38
23.45,7.56,7.55,0.18,0.17,-0.16,0.01,0.50,7.40,7.39,7.38
23.69,7.49,7.49,0.11,0.11,-0.09,0.05,0.51,7.40,7.40,7.38
23.92,7.42,7.41,0.04,0.04,-0.01,0.09,0.53,7.40,7.40,7.38
24.16,7.33,7.33,-0.05,-0.05,0.07,0.13,0.54,7.40,7.40,7.38
24.40,7.23,7.23,-0.15,-0.15,0.16,0.17,0.56,7.39,7.39,7.38
24.65,7.13,7.13,-0.25,-0.25,0.25,0.20,0.57,7.38,7.37,7.37
24.89,7.03,7.03,-0.35,-0.35,0.33,0.24,0.59,7.35,7.36,7.37
25.14,6.95,6.95,-0.43,-0.42,0.39,0.28,0.60,7.34,7.34,7.37
25.39,6.89,6.89,-0.48,-0.48,0.44,0.32,0.62,7.33,7.33,7.37
25.65,6.87,6.87,-0.50,-0.50,0.47,0.36,0.63,7.34,7.34,7.37
25.91,6.87,6.87,-0.50,-0.50,0.48,0.39,0.65,7.35,7.35,7.37
26.16,6.89,6.89,-0.48,-0.48,0.48,0.43,0.66,7.36,7.36,7.37
26.43,6.92,6.91,-0.45,-0.45,0.46,0.47,0.68,7.38,7.37,7.36
26.69,6.94,6.94,-0.43,-0.42,0.44,0.50,0.70,7.38,7.38,7.36
26.96,6.96,6.96,-0.40,-0.40,0.42,0.54,0.71,7.38,7.38,7.36
27.23,6.97,6.96,-0.39,-0.40,0.41,0.58,0.73,7.38,7.37,7.36
27.50,6.96,6.96,-0.40,-0.40,0.41,0.61,0.74,7.37,7.37,7.36
27.77,6.94,6.94,-0.42,-0.41,0.42,0.65,0.76,7.36,7.36,7.36
28.05,6.92,6.91,-0.44,-0.44,0.45,0.68,0.77,7.36,7.36,7.35
28.33,6.88,6.88,-0.47,-0.48,0.48,0.71,0.79,7.36,7.36,7.35
28.62,6.83,6.83,-0.52,-0.52,0.53,0.75,0.80,7.36,7.36,7.35
28.90,6.77,6.77,-0.58,-0.58,0.58,0.78,0.82,7.35,7.35,7.35
29.19,6.71,6.70,-0.64,-0.64,0.64,0.82,0.83,7.35,7.34,7.34
29.48,6.64,6.64,-0.71,-0.71,0.70,0.85,0.84,7.34,7.34,7.34
29.78,6.57,6.57,-0.77,-0.77,0.76,0.88,0.86,7.33,7.33,7.34
30.08,6.51,6.51,-0.83,-0.83,0.81,0.91,0.87,7.32,7.32,7.34
30.38,6.46,6.46,-0.88,-0.88,0.87,0.95,0.88,7.32,7.32,7.33
30.68,6.41,6.41,-0.92,-0.92,0.91,0.98,0.89,7.32,7.32,7.33
30.99,6.37,6.37,-0.96,-0.96,0.96,1.01,0.91,7.33,7.33,7.33
31.30,6.33,6.33,-1.00,-1.00,1.00,1.04,0.92,7.33,7.33,7.33
31.61,6.29,6.29,-1.03,-1.04,1.05,1.07,0.93,7.33,7.33,7.32
31.93,6.24,6.24,-1.08,-1.08,1.09,1.10,0.94,7.33,7.33,7.32
32.24,6.19,6.19,-1.13,-1.13,1.13,1.13,0.94,7.32,7.32,7.32
32.57,6.14,6.14,-1.17,-1.17,1.18,1.16,0.95,7.32,7.32,7.31
32.89,6.09,6.09,-1.22,-1.22,1.22,1.19,0.96,7.31,7.30,7.31
33.22,6.04,6.04,-1.27,-1.27,1.26,1.21,0.97,7.30,7.29,7.30
33.55,5.99,5.99,-1.31,-1.31,1.29,1.24,0.98,7.28,7.29,7.30
33.89,5.96,5.96,-1.34,-1.34,1.33,1.27,0.98,7.28,7.28,7.30
34.23,5.93,5.93,-1.36,-1.36,1.36,1.30,0.99,7.28,7.28,7.29
34.57,5.91,5.91,-1.38,-1.38,1.38,1.32,1.00,7.29,7.29,7.29
34.92,5.88,5.88,-1.41,-1.40,1.41,1.35,1.01,7.29,7.29,7.28
35.27,5.85,5.84,-1.43,-1.44,1.45,1.38,1.01,7.29,7.29,7.28
35.62,5.80,5.80,-1.48,-1.48,1.48,1.40,1.02,7.28,7.28,7.27
35.97,5.74,5.74,-1.53,-1.53,1.53,1.43,1.03,7.26,7.27,7.27
36.33,5.68,5.68,-1.59,-1.59,1.59,1.45,1.03,7.26,7.26,7.26
36.70,5.61,5.61,-1.65,-1.65,1.66,1.48,1.04,7.27,7.27,7.26
37.06,5.54,5.54,-1.72,-1.72,1.75,1.50,1.05,7.29,7.29,7.25
37.43,5.46,5.45,-1.79,-1.80,1.84,1.52,1.06,7.30,7.29,7.25
37.81,5.34,5.33,-1.90,-1.91,1.94,1.55,1.07,7.27,7.27,7.24
38.19,5.22,5.21,-2.02,-2.02,2.01,1.57,1.08,7.23,7.23,7.23
38.57,5.10,5.11,-2.13,-2.12,2.07,1.59,1.09,7.17,7.18,7.23
38.95,5.04,5.04,-2.18,-2.18,2.10,1.61,1.10,7.14,7.14,7.22
39.34,5.02,5.02,-2.20,-2.19,2.11,1.63,1.11,7.13,7.13,7.21
39.74,5.06,5.07,-2.15,-2.14,2.10,1.65,1.12,7.15,7.16,7.21
40.14,5.14,5.14,-2.06,-2.06,2.07,1.67,1.14,7.20,7.20,7.20
40.54,5.23,5.21,-1.96,-1.98,2.03,1.69,1.15,7.26,7.24,7.19
40.94,5.27,5.26,-1.92,-1.92,1.99,1.71,1.17,7.26,7.25,7.18
41.35,5.28,5.28,-1.90,-1.90,1.96,1.73,1.18,7.23,7.23,7.17
41.76,5.26,5.26,-1.91,-1.91,1.94,1.75,1.20,7.19,7.19,7.17
42.18,5.22,5.22,-1.94,-1.94,1.93,1.77,1.22,7.15,7.15,7.16
42.60,5.18,5.18,-1.97,-1.97,1.94,1.78,1.24,7.12,7.13,7.15
43.03,5.15,5.15,-1.99,-1.99,1.96,1.80,1.26,7.11,7.11,7.14
43.46,5.13,5.13,-2.00,-2.00,1.98,1.81,1.28,7.11,7.11,7.13
43.90,5.11,5.11,-2.01,-2.01,2.00,1.83,1.30,7.11,7.11,7.12
44.33,5.09,5.09,-2.02,-2.02,2.02,1.84,1.33,7.10,7.11,7.11
44.78,5.08,5.07,-2.02,-2.02,2.03,1.86,1.35,7.10,7.10,7.09
45.23,5.06,5.06,-2.03,-2.03,2.03,1.87,1.38,7.09,7.09,7.08
45.68,5.04,5.04,-2.03,-2.03,2.04,1.88,1.40,7.08,7.08,7.07
46.13,5.02,5.02,-2.04,-2.04,2.04,1.90,1.43,7.06,7.06,7.06
46.60,5.00,5.00,-2.05,-2.05,2.04,1.91,1.46,7.04,7.04,7.05
47.06,4.98,4.98,-2.06,-2.05,2.05,1.92,1.49,7.02,7.03,7.03
47.53,4.97,4.97,-2.05,-2.05,2.05,1.93,1.52,7.01,7.01,7.02
48.01,4.96,4.96,-2.05,-2.05,2.05,1.94,1.55,7.00,7.00,7.00
48.49,4.95,4.95,-2.04,-2.04,2.04,1.95,1.58,6.99,6.99,6.99
48.97,4.94,4.94,-2.04,-2.04,2.04,1.95,1.61,6.98,6.98,6.97
49.46,4.93,4.93,-2.03,-2.03,2.04,1.96,1.64,6.96,6.96,6.96
49.96,4.91,4.91,-2.03,-2.03,2.03,1.97,1.68,6.94,6.95,6.94
50.46,4.90,4.90,-2.03,-2.03,2.03,1.97,1.71,6.93,6.93,6.93
50.96,4.88,4.88,-2.03,-2.03,2.03,1.98,1.75,6.91,6.91,6.91
51.47,4.86,4.86,-2.03,-2.03,2.03,1.98,1.78,6.89,6.89,6.89
51.99,4.84,4.84,-2.03,-2.03,2.03,1.98,1.81,6.87,6.87,6.87
52.51,4.82,4.82,-2.03,-2.03,2.03,1.99,1.85,6.85,6.85,6.85
53.03,4.80,4.80,-2.03,-2.03,2.03,1.99,1.88,6.83,6.83,6.83
53.56,4.78,4.78,-2.03,-2.03,2.03,1.99,1.91,6.81,6.81,6.81
54.10,4.77,4.76,-2.02,-2.03,2.02,1.99,1.94,6.79,6.79,6.79
54.64,4.75,4.75,-2.02,-2.02,2.02,1.99,1.97,6.76,6.77,6.77
55.18,4.74,4.74,-2.01,-2.01,2.01,1.98,2.00,6.74,6.74,6.75
55.74,4.73,4.73,-1.99,-2.00,1.99,1.98,2.03,6.72,6.72,6.72
56.29,4.72,4.72,-1.98,-1.98,1.98,1.97,2.05,6.70,6.70,6.70
56.86,4.71,4.71,-1.97,-1.97,1.97,1.97,2.08,6.67,6.67,6.67
57.42,4.70,4.70,-1.95,-1.95,1.95,1.96,2.10,6.65,6.65,6.65
58.00,4.69,4.69,-1.93,-1.93,1.93,1.95,2.11,6.62,6.62,6.62
58.58,4.68,4.68,-1.92,-1.92,1.92,1.94,2.13,6.59,6.59,6.59
59.16,4.67,4.67,-1.90,-1.90,1.90,1.93,2.14,6.57,6.57,6.57
59.76,4.66,4.66,-1.88,-1.88,1.88,1.92,2.15,6.54,6.54,6.54
60.35,4.65,4.65,-1.86,-1.86,1.86,1.91,2.16,6.51,6.51,6.51
60.96,4.64,4.64,-1.84,-1.84,1.84,1.89,2.16,6.48,6.48,6.48
61.57,4.63,4.63,-1.82,-1.82,1.82,1.88,2.16,6.44,6.44,6.44
62.18,4.62,4.62,-1.79,-1.80,1.79,1.86,2.15,6.41,6.41,6.41
62.80,4.61,4.61,-1.77,-1.77,1.76,1.84,2.14,6.37,6.38,6.38
63.43,4.61,4.61,-1.74,-1.74,1.74,1.82,2.13,6.34,6.34,6.35
64.07,4.61,4.60,-1.70,-1.71,1.71,1.80,2.12,6.31,6.31,6.31
64.71,4.60,4.60,-1.68,-1.67,1.68,1.78,2.09,6.27,6.28,6.27
65.35,4.60,4.60,-1.64,-1.64,1.64,1.76,2.07,6.24,6.24,6.24
66.01,4.59,4.59,-1.61,-1.61,1.61,1.73,2.04,6.20,6.20,6.20
66.67,4.58,4.58,-1.58,-1.58,1.58,1.70,2.01,6.16,6.16,6.16
67.33,4.57,4.57,-1.55,-1.55,1.55,1.68,1.98,6.12,6.12,6.12
68.01,4.56,4.56,-1.52,-1.52,1.52,1.65,1.94,6.08,6.08,6.08
68.69,4.55,4.54,-1.49,-1.49,1.49,1.62,1.90,6.04,6.03,6.04
69.37,4.53,4.53,-1.47,-1.46,1.46,1.59,1.86,5.99,5.99,5.99
70.07,4.52,4.52,-1.43,-1.43,1.42,1.55,1.82,5.94,5.95,5.95
70.77,4.52,4.51,-1.39,-1.39,1.39,1.52,1.77,5.91,5.90,5.90
71.48,4.51,4.51,-1.35,-1.35,1.35,1.48,1.72,5.86,5.86,5.86
72.19,4.50,4.50,-1.31,-1.31,1.31,1.44,1.67,5.81,5.81,5.81
72.91,4.50,4.49,-1.27,-1.27,1.27,1.41,1.62,5.76,5.76,5.76
73.64,4.49,4.49,-1.23,-1.22,1.22,1.37,1.57,5.71,5.71,5.71
74.38,4.49,4.49,-1.18,-1.18,1.18,1.32,1.52,5.67,5.66,5.66
75.12,4.48,4.48,-1.13,-1.13,1.14,1.28,1.46,5.61,5.61,5.61
75.87,4.47,4.47,-1.09,-1.09,1.09,1.24,1.41,5.56,5.56,5.56
76.63,4.46,4.46,-1.05,-1.05,1.05,1.19,1.35,5.51,5.51,5.51
77.40,4.45,4.45,-1.00,-1.00,1.01,1.15,1.29,5.45,5.46,5.45
78.17,4.44,4.43,-0.96,-0.96,0.96,1.10,1.24,5.40,5.40,5.40
78.95,4.42,4.42,-0.92,-0.92,0.92,1.05,1.18,5.34,5.34,5.34
79.74,4.40,4.40,-0.89,-0.88,0.88,1.00,1.12,5.28,5.28,5.28
80.54,4.39,4.39,-0.84,-0.84,0.83,0.95,1.06,5.22,5.22,5.22
81.35,4.38,4.37,-0.79,-0.79,0.79,0.90,1.01,5.17,5.16,5.17
82.16,4.36,4.36,-0.75,-0.74,0.74,0.85,0.95,5.10,5.10,5.11
82.98,4.35,4.35,-0.70,-0.70,0.70,0.80,0.89,5.04,5.04,5.04
83.81,4.34,4.33,-0.64,-0.65,0.65,0.75,0.84,4.99,4.99,4.98
84.65,4.32,4.32,-0.60,-0.60,0.61,0.69,0.78,4.93,4.93,4.92
85.50,4.30,4.30,-0.56,-0.56,0.57,0.64,0.72,4.87,4.86,4.86
86.35,4.27,4.27,-0.52,-0.52,0.53,0.59,0.67,4.80,4.80,4.79
87.22,4.24,4.24,-0.49,-0.49,0.49,0.53,0.61,4.73,4.73,4.73
88.09,4.21,4.20,-0.45,-0.46,0.45,0.48,0.56,4.66,4.66,4.66
88.97,4.17,4.17,-0.43,-0.42,0.41,0.42,0.50,4.58,4.58,4.59
89.86,4.14,4.14,-0.39,-0.39,0.37,0.37,0.45,4.51,4.51,4.53
90.76,4.12,4.12,-0.34,-0.34,0.33,0.31,0.40,4.45,4.45,4.46
91.66,4.10,4.10,-0.29,-0.29,0.29,0.26,0.34,4.39,4.39,4.39
92.58,4.09,4.08,-0.23,-0.24,0.24,0.21,0.29,4.33,4.33,4.32
93.51,4.06,4.06,-0.19,-0.19,0.20,0.15,0.24,4.26,4.26,4.25
94.44,4.03,4.03,-0.15,-0.15,0.16,0.10,0.19,4.18,4.19,4.18
95.39,4.00,3.99,-0.11,-0.12,0.11,0.05,0.13,4.11,4.11,4.11
96.34,3.96,3.96,-0.08,-0.08,0.08,-0.00,0.08,4.03,4.04,4.04
97.30,3.92,3.92,-0.05,-0.05,0.04,-0.05,0.03,3.96,3.96,3.97
98.28,3.88,3.88,-0.02,-0.02,0.02,-0.10,-0.02,3.89,3.89,3.90
99.26,3.83,3.83,0.00,0.01,-0.00,-0.15,-0.07,3.82,3.83,3.82
100.25,3.78,3.78,0.03,0.03,-0.02,-0.19,-0.12,3.76,3.76,3.75
101.25,3.72,3.72,0.04,0.04,-0.03,-0.24,-0.16,3.69,3.69,3.68
102.27,3.65,3.65,0.04,0.04,-0.03,-0.28,-0.21,3.62,3.62,3.61
103.29,3.57,3.57,0.04,0.04,-0.02,-0.32,-0.26,3.54,3.54,3.53
104.32,3.49,3.48,0.03,0.03,-0.02,-0.36,-0.30,3.47,3.47,3.46
105.37,3.40,3.40,0.01,0.01,-0.01,-0.40,-0.34,3.38,3.38,3.39
106.42,3.32,3.32,0.00,0.00,-0.01,-0.43,-0.39,3.30,3.30,3.31
107.48,3.25,3.25,0.01,0.01,-0.02,-0.47,-0.43,3.23,3.23,3.24
108.56,3.19,3.19,0.02,0.03,-0.04,-0.50,-0.47,3.15,3.15,3.17
109.64,3.16,3.15,0.06,0.06,-0.07,-0.53,-0.50,3.09,3.08,3.09
110.74,3.13,3.13,0.11,0.11,-0.12,-0.55,-0.54,3.01,3.01,3.02
111.85,3.12,3.12,0.17,0.17,-0.18,-0.58,-0.57,2.94,2.94,2.95
112.97,3.13,3.12,0.25,0.24,-0.25,-0.60,-0.60,2.88,2.87,2.88
114.10,3.13,3.13,0.32,0.33,-0.34,-0.61,-0.63,2.79,2.80,2.81
115.24,3.15,3.15,0.41,0.42,-0.43,-0.63,-0.66,2.72,2.72,2.73
116.39,3.18,3.18,0.51,0.51,-0.52,-0.64,-0.69,2.66,2.66,2.66
117.55,3.21,3.21,0.61,0.61,-0.61,-0.65,-0.71,2.60,2.60,2.59
118.73,3.23,3.23,0.70,0.70,-0.68,-0.66,-0.72,2.54,2.54,2.52
119.92,3.23,3.23,0.77,0.78,-0.75,-0.66,-0.74,2.48,2.48,2.45
121.12,3.22,3.21,0.83,0.83,-0.80,-0.67,-0.75,2.41,2.41,2.39
122.33,3.18,3.18,0.86,0.86,-0.84,-0.67,-0.76,2.33,2.33,2.32
123.55,3.12,3.12,0.87,0.87,-0.87,-0.66,-0.77,2.25,2.25,2.25
124.79,3.06,3.06,0.88,0.87,-0.88,-0.66,-0.77,2.18,2.18,2.18
126.03,2.99,2.99,0.87,0.87,-0.88,-0.65,-0.77,2.11,2.11,2.12
127.29,2.92,2.92,0.87,0.87,-0.88,-0.64,-0.76,2.04,2.04,2.05
128.57,2.85,2.85,0.86,0.86,-0.87,-0.62,-0.76,1.98,1.98,1.99
129.85,2.78,2.78,0.86,0.85,-0.86,-0.61,-0.75,1.92,1.92,1.92
131.15,2.70,2.70,0.84,0.84,-0.84,-0.59,-0.73,1.85,1.86,1.86
132.46,2.63,2.63,0.83,0.83,-0.83,-0.57,-0.72,1.80,1.80,1.80
133.79,2.55,2.55,0.81,0.81,-0.81,-0.55,-0.70,1.74,1.74,1.74
135.12,2.47,2.47,0.79,0.79,-0.79,-0.52,-0.68,1.68,1.68,1.68
136.48,2.39,2.38,0.77,0.77,-0.77,-0.49,-0.65,1.62,1.62,1.62
137.84,2.30,2.30,0.74,0.74,-0.74,-0.47,-0.62,1.56,1.56,1.56
139.22,2.21,2.21,0.71,0.71,-0.71,-0.44,-0.59,1.50,1.50,1.50
140.61,2.12,2.12,0.67,0.67,-0.67,-0.40,-0.56,1.44,1.44,1.44
142.02,2.03,2.02,0.64,0.64,-0.64,-0.37,-0.53,1.39,1.39,1.39
143.44,1.93,1.93,0.59,0.60,-0.59,-0.33,-0.49,1.33,1.33,1.33
144.87,1.83,1.83,0.55,0.55,-0.55,-0.30,-0.45,1.28,1.28,1.28
146.32,1.73,1.73,0.50,0.50,-0.50,-0.26,-0.41,1.23,1.23,1.23
147.78,1.63,1.63,0.45,0.45,-0.45,-0.22,-0.37,1.18,1.17,1.18
149.26,1.53,1.52,0.40,0.40,-0.40,-0.18,-0.33,1.13,1.12,1.12
150.75,1.42,1.42,0.34,0.35,-0.35,-0.14,-0.29,1.07,1.08,1.08
152.26,1.32,1.32,0.29,0.29,-0.29,-0.10,-0.24,1.03,1.03,1.03
153.78,1.22,1.21,0.24,0.23,-0.24,-0.06,-0.20,0.98,0.98,0.98
155.32,1.11,1.11,0.17,0.18,-0.18,-0.01,-0.15,0.93,0.93,0.93
156.88,1.01,1.01,0.12,0.12,-0.12,0.03,-0.11,0.89,0.89,0.89
158.44,0.91,0.90,0.06,0.06,-0.06,0.07,-0.06,0.84,0.84,0.84
160.03,0.80,0.80,-0.00,0.00,-0.00,0.12,-0.01,0.79,0.80,0.80
161.63,0.70,0.70,-0.05,-0.05,0.06,0.16,0.04,0.75,0.75,0.75
163.24,0.59,0.59,-0.12,-0.12,0.12,0.20,0.09,0.71,0.71,0.71
164.88,0.49,0.48,-0.18,-0.18,0.18,0.25,0.14,0.67,0.67,0.67
166.53,0.38,0.38,-0.25,-0.25,0.25,0.29,0.19,0.63,0.62,0.63
168.19,0.27,0.27,-0.32,-0.32,0.32,0.34,0.24,0.58,0.59,0.59
169.87,0.17,0.16,-0.38,-0.39,0.39,0.38,0.29,0.55,0.55,0.55
171.57,0.06,0.06,-0.46,-0.46,0.46,0.42,0.34,0.52,0.52,0.51
173.29,-0.05,-0.05,-0.53,-0.53,0.53,0.47,0.39,0.48,0.48,0.48
175.02,-0.16,-0.17,-0.61,-0.61,0.61,0.51,0.45,0.45,0.44,0.44
176.77,-0.28,-0.28,-0.69,-0.69,0.69,0.55,0.50,0.41,0.41,0.41
178.54,-0.39,-0.39,-0.77,-0.77,0.77,0.59,0.55,0.38,0.38,0.38
180.32,-0.50,-0.51,-0.85,-0.85,0.85,0.64,0.60,0.35,0.35,0.35
182.13,-0.62,-0.62,-0.94,-0.93,0.94,0.68,0.66,0.31,0.32,0.32
183.95,-0.73,-0.73,-1.02,-1.02,1.02,0.72,0.71,0.29,0.29,0.29
185.79,-0.85,-0.85,-1.11,-1.11,1.11,0.76,0.77,0.26,0.26,0.26
187.65,-0.97,-0.97,-1.20,-1.20,1.20,0.80,0.82,0.23,0.23,0.23
189.52,-1.09,-1.09,-1.29,-1.29,1.29,0.84,0.88,0.20,0.20,0.20
191.42,-1.20,-1.21,-1.38,-1.38,1.38,0.87,0.93,0.18,0.17,0.17
193.33,-1.32,-1.32,-1.47,-1.47,1.47,0.91,0.99,0.14,0.15,0.15
195.27,-1.43,-1.43,-1.55,-1.55,1.55,0.95,1.04,0.11,0.12,0.12
197.22,-1.53,-1.53,-1.63,-1.63,1.62,0.98,1.10,0.09,0.09,0.10
199.19,-1.62,-1.62,-1.70,-1.70,1.69,1.02,1.15,0.07,0.07,0.07
201.18,-1.70,-1.70,-1.75,-1.76,1.75,1.05,1.21,0.05,0.05,0.05
203.19,-1.78,-1.78,-1.81,-1.81,1.81,1.09,1.26,0.03,0.03,0.03
205.23,-1.84,-1.85,-1.85,-1.85,1.86,1.12,1.32,0.02,0.01,0.01
207.28,-1.91,-1.91,-1.90,-1.90,1.91,1.15,1.37,-0.01,-0.01,-0.01
209.35,-1.97,-1.98,-1.94,-1.94,1.95,1.18,1.42,-0.02,-0.03,-0.03
211.44,-2.04,-2.04,-1.99,-1.99,1.99,1.21,1.48,-0.05,-0.05,-0.05
213.56,-2.10,-2.10,-2.03,-2.03,2.03,1.24,1.53,-0.07,-0.07,-0.07
215.69,-2.15,-2.15,-2.06,-2.06,2.07,1.27,1.58,-0.09,-0.09,-0.09
217.85,-2.20,-2.20,-2.10,-2.09,2.10,1.30,1.63,-0.10,-0.10,-0.11
220.03,-2.24,-2.24,-2.12,-2.12,2.13,1.32,1.68,-0.12,-0.12,-0.12
222.23,-2.28,-2.28,-2.14,-2.14,2.14,1.35,1.72,-0.14,-0.14,-0.14
224.45,-2.31,-2.32,-2.16,-2.16,2.15,1.38,1.77,-0.16,-0.16,-0.16
226.70,-2.34,-2.34,-2.17,-2.17,2.15,1.40,1.81,-0.19,-0.19,-0.17
228.96,-2.34,-2.34,-2.16,-2.16,2.14,1.42,1.85,-0.21,-0.21,-0.19
231.25,-2.33,-2.33,-2.13,-2.13,2.11,1.45,1.89,-0.22,-0.22,-0.20
233.57,-2.30,-2.30,-2.09,-2.09,2.08,1.47,1.92,-0.22,-0.23,-0.22
235.90,-2.27,-2.27,-2.03,-2.04,2.04,1.49,1.96,-0.23,-0.23,-0.24
238.26,-2.23,-2.23,-1.98,-1.98,1.99,1.51,1.99,-0.24,-0.24,-0.25
240.64,-2.20,-2.20,-1.94,-1.94,1.95,1.53,2.01,-0.25,-0.25,-0.26
243.05,-2.17,-2.17,-1.90,-1.90,1.91,1.55,2.04,-0.26,-0.26,-0.28
245.48,-2.15,-2.15,-1.86,-1.87,1.87,1.56,2.06,-0.28,-0.28,-0.29
247.93,-2.14,-2.14,-1.84,-1.84,1.84,1.58,2.07,-0.30,-0.30,-0.30
250.41,-2.13,-2.13,-1.82,-1.82,1.82,1.60,2.09,-0.31,-0.31,-0.31
252.92,-2.12,-2.12,-1.80,-1.80,1.80,1.61,2.10,-0.32,-0.32,-0.32
255.45,-2.12,-2.12,-1.79,-1.79,1.79,1.63,2.10,-0.34,-0.33,-0.33
258.00,-2.11,-2.12,-1.77,-1.77,1.77,1.64,2.11,-0.34,-0.34,-0.34
260.58,-2.11,-2.11,-1.76,-1.76,1.76,1.65,2.11,-0.35,-0.35,-0.35
263.19,-2.11,-2.11,-1.75,-1.75,1.75,1.66,2.11,-0.37,-0.36,-0.36
265.82,-2.10,-2.11,-1.73,-1.74,1.73,1.67,2.10,-0.37,-0.37,-0.37
268.48,-2.10,-2.10,-1.73,-1.72,1.72,1.69,2.10,-0.38,-0.38,-0.38
271.16,-2.09,-2.09,-1.71,-1.71,1.71,1.69,2.09,-0.39,-0.39,-0.39
273.87,-2.08,-2.09,-1.69,-1.69,1.69,1.70,2.07,-0.39,-0.39,-0.39
276.61,-2.08,-2.08,-1.68,-1.68,1.68,1.71,2.06,-0.40,-0.40,-0.40
279.38,-2.07,-2.07,-1.66,-1.66,1.66,1.72,2.04,-0.41,-0.41,-0.41
282.17,-2.06,-2.06,-1.65,-1.65,1.65,1.72,2.03,-0.41,-0.41,-0.42
284.99,-2.05,-2.05,-1.64,-1.64,1.64,1.73,2.01,-0.41,-0.41,-0.41
287.84,-2.04,-2.04,-1.63,-1.63,1.63,1.73,1.99,-0.42,-0.42,-0.41
290.72,-2.03,-2.03,-1.62,-1.62,1.62,1.74,1.97,-0.42,-0.42,-0.42
293.63,-2.02,-2.02,-1.60,-1.60,1.61,1.74,1.94,-0.42,-0.41,-0.42
296.57,-2.01,-2.01,-1.59,-1.59,1.60,1.74,1.92,-0.41,-0.41,-0.42
299.53,-2.00,-2.01,-1.59,-1.59,1.59,1.74,1.90,-0.41,-0.42,-0.41
302.53,-2.00,-2.00,-1.58,-1.58,1.58,1.74,1.88,-0.42,-0.42,-0.42
305.55,-1.99,-1.99,-1.58,-1.58,1.57,1.74,1.85,-0.42,-0.42,-0.41
308.61,-1.98,-1.98,-1.56,-1.57,1.56,1.74,1.83,-0.42,-0.42,-0.42
311.69,-1.97,-1.97,-1.56,-1.56,1.56,1.74,1.81,-0.42,-0.42,-0.41
314.81,-1.96,-1.96,-1.54,-1.55,1.55,1.74,1.79,-0.41,-0.41,-0.42
317.96,-1.95,-1.96,-1.54,-1.54,1.54,1.74,1.77,-0.41,-0.41,-0.41
321.14,-1.95,-1.95,-1.53,-1.53,1.54,1.73,1.75,-0.42,-0.41,-0.42
324.35,-1.94,-1.94,-1.53,-1.53,1.53,1.73,1.73,-0.41,-0.41,-0.41
327.59,-1.93,-1.94,-1.53,-1.53,1.52,1.72,1.71,-0.41,-0.41,-0.41
330.87,-1.93,-1.93,-1.52,-1.52,1.52,1.72,1.69,-0.41,-0.41,-0.41
334.18,-1.92,-1.92,-1.52,-1.52,1.52,1.71,1.67,-0.41,-0.41,-0.40
337.52,-1.91,-1.92,-1.50,-1.51,1.51,1.70,1.66,-0.40,-0.40,-0.41
340.90,-1.91,-1.91,-1.51,-1.51,1.51,1.69,1.64,-0.40,-0.40,-0.40
344.30,-1.90,-1.90,-1.51,-1.51,1.51,1.69,1.63,-0.40,-0.40,-0.39
347.75,-1.89,-1.90,-1.50,-1.51,1.50,1.68,1.62,-0.39,-0.39,-0.39
351.23,-1.89,-1.89,-1.50,-1.50,1.50,1.67,1.61,-0.39,-0.39,-0.39
354.74,-1.88,-1.88,-1.51,-1.50,1.50,1.66,1.60,-0.38,-0.38,-0.37
358.28,-1.87,-1.88,-1.49,-1.50,1.50,1.65,1.59,-0.37,-0.38,-0.38
361.87,-1.87,-1.87,-1.50,-1.50,1.50,1.64,1.58,-0.37,-0.37,-0.37
365.49,-1.86,-1.86,-1.50,-1.50,1.50,1.63,1.58,-0.36,-0.36,-0.36
369.14,-1.85,-1.86,-1.49,-1.50,1.50,1.62,1.57,-0.35,-0.36,-0.37
372.83,-1.85,-1.85,-1.50,-1.50,1.50,1.60,1.57,-0.36,-0.35,-0.35
376.56,-1.84,-1.85,-1.49,-1.50,1.49,1.59,1.57,-0.35,-0.35,-0.35
380.33,-1.84,-1.84,-1.50,-1.49,1.49,1.58,1.57,-0.35,-0.35,-0.34
384.13,-1.83,-1.83,-1.49,-1.49,1.49,1.57,1.57,-0.34,-0.34,-0.35
387.97,-1.82,-1.82,-1.48,-1.49,1.49,1.56,1.57,-0.34,-0.34,-0.34
391.85,-1.81,-1.81,-1.49,-1.48,1.48,1.55,1.57,-0.33,-0.33,-0.32
395.77,-1.79,-1.79,-1.47,-1.48,1.48,1.54,1.58,-0.32,-0.32,-0.32
399.73,-1.78,-1.78,-1.47,-1.47,1.47,1.53,1.58,-0.31,-0.31,-0.31
403.72,-1.77,-1.77,-1.47,-1.46,1.47,1.52,1.59,-0.30,-0.31,-0.31
407.76,-1.77,-1.77,-1.47,-1.47,1.47,1.52,1.59,-0.31,-0.30,-0.31
411.84,-1.76,-1.76,-1.46,-1.46,1.46,1.51,1.60,-0.30,-0.30,-0.30
415.96,-1.75,-1.76,-1.46,-1.46,1.46,1.50,1.60,-0.29,-0.30,-0.29
420.12,-1.75,-1.75,-1.46,-1.46,1.46,1.50,1.61,-0.29,-0.29,-0.29
424.32,-1.74,-1.74,-1.46,-1.46,1.46,1.49,1.62,-0.29,-0.29,-0.28
428.56,-1.73,-1.73,-1.46,-1.46,1.45,1.49,1.63,-0.28,-0.28,-0.28
432.85,-1.72,-1.72,-1.46,-1.45,1.45,1.48,1.64,-0.27,-0.27,-0.27
437.18,-1.71,-1.71,-1.44,-1.45,1.45,1.48,1.64,-0.26,-0.26,-0.27
441.55,-1.70,-1.70,-1.44,-1.44,1.45,1.48,1.65,-0.25,-0.25,-0.26
445.96,-1.69,-1.69,-1.44,-1.44,1.45,1.48,1.66,-0.24,-0.24,-0.25
450.42,-1.68,-1.68,-1.45,-1.45,1.45,1.48,1.67,-0.24,-0.24,-0.23
454.93,-1.67,-1.68,-1.45,-1.45,1.45,1.48,1.67,-0.23,-0.23,-0.22
459.48,-1.67,-1.67,-1.46,-1.45,1.45,1.48,1.68,-0.23,-0.22,-0.21
464.07,-1.66,-1.66,-1.45,-1.45,1.45,1.48,1.68,-0.21,-0.21,-0.22
468.71,-1.65,-1.65,-1.45,-1.45,1.45,1.48,1.69,-0.20,-0.21,-0.21
473.40,-1.64,-1.64,-1.44,-1.45,1.45,1.49,1.69,-0.19,-0.19,-0.20
478.13,-1.64,-1.64,-1.45,-1.45,1.45,1.49,1.69,-0.19,-0.19,-0.19
482.91,-1.63,-1.63,-1.45,-1.45,1.45,1.49,1.69,-0.18,-0.18,-0.18
487.74,-1.63,-1.63,-1.46,-1.46,1.46,1.50,1.69,-0.18,-0.17,-0.17
492.62,-1.62,-1.62,-1.46,-1.46,1.46,1.50,1.69,-0.16,-0.16,-0.16
497.55,-1.62,-1.62,-1.47,-1.47,1.47,1.50,1.69,-0.15,-0.15,-0.15
502.52,-1.61,-1.61,-1.47,-1.47,1.48,1.51,1.68,-0.13,-0.14,-0.14
507.55,-1.61,-1.61,-1.49,-1.49,1.49,1.51,1.67,-0.13,-0.13,-0.12
512.62,-1.61,-1.61,-1.50,-1.50,1.49,1.51,1.67,-0.12,-0.12,-0.12
517.75,-1.61,-1.61,-1.51,-1.51,1.50,1.52,1.66,-0.11,-0.11,-0.11
522.93,-1.61,-1.61,-1.52,-1.52,1.51,1.52,1.64,-0.10,-0.10,-0.10
528.16,-1.61,-1.61,-1.52,-1.52,1.52,1.53,1.63,-0.09,-0.09,-0.09
