frequency,raw,error,smoothed,error_smoothed,equalization,parametric_eq,fixed_band_eq,equalized_raw,equalized_smoothed,target
20.00,13.12,3.39,13.11,3.39,-3.39,-3.17,-1.45,9.72,9.72,9.72
20.20,13.12,3.40,13.12,3.40,-3.40,-3.17,-1.50,9.71,9.71,9.71
20.40,13.12,3.41,13.12,3.41,-3.41,-3.16,-1.54,9.70,9.70,9.70
20.61,13.12,3.42,13.12,3.42,-3.42,-3.16,-1.59,9.69,9.69,9.69
20.81,13.12,3.43,13.12,3.43,-3.43,-3.16,-1.63,9.68,9.68,9.68
21.02,13.12,3.45,13.11,3.44,-3.44,-3.16,-1.68,9.68,9.67,9.67
21.23,13.11,3.45,13.11,3.45,-3.45,-3.16,-1.73,9.66,9.66,9.66
21.44,13.10,3.45,13.10,3.45,-3.46,-3.16,-1.78,9.64,9.65,9.65
21.66,13.10,3.46,13.10,3.46,-3.46,-3.16,-1.83,9.63,9.63,9.64
21.87,13.10,3.47,13.09,3.47,-3.47,-3.16,-1.89,9.63,9.63,9.63
22.09,13.09,3.47,13.09,3.47,-3.47,-3.16,-1.94,9.61,9.62,9.62
22.31,13.09,3.48,13.08,3.48,-3.48,-3.15,-2.00,9.61,9.61,9.60
22.54,13.08,3.48,13.08,3.48,-3.48,-3.15,-2.06,9.60,9.60,9.59
22.76,13.07,3.48,13.07,3.48,-3.48,-3.15,-2.12,9.59,9.59,9.58
22.99,13.06,3.47,13.06,3.48,-3.48,-3.15,-2.18,9.58,9.57,9.58
23.22,13.05,3.48,13.04,3.47,-3.48,-3.15,-2.24,9.57,9.57,9.57
23.45,13.03,3.47,13.03,3.47,-3.47,-3.15,-2.30,9.55,9.56,9.56
23.69,13.02,3.47,13.01,3.47,-3.46,-3.15,-2.37,9.55,9.55,9.55
23.92,13.00,3.46,12.99,3.46,-3.45,-3.14,-2.43,9.54,9.54,9.54
24.16,12.97,3.44,12.97,3.44,-3.44,-3.14,-2.50,9.53,9.53,9.52
24.40,12.94,3.42,12.94,3.42,-3.42,-3.14,-2.57,9.51,9.52,9.51
24.65,12.92,3.40,12.92,3.40,-3.41,-3.14,-2.64,9.51,9.51,9.51
24.89,12.90,3.39,12.89,3.39,-3.39,-3.14,-2.71,9.50,9.50,9.51
25.14,12.88,3.37,12.87,3.37,-3.37,-3.13,-2.78,9.50,9.50,9.51
25.39,12.86,3.36,12.86,3.36,-3.36,-3.13,-2.85,9.50,9.50,9.50
25.65,12.84,3.34,12.84,3.34,-3.34,-3.13,-2.92,9.49,9.49,9.49
25.91,12.83,3.33,12.82,3.33,-3.33,-3.13,-2.99,9.50,9.49,9.49
26.16,12.81,3.32,12.81,3.32,-3.32,-3.13,-3.06,9.49,9.49,9.49
26.43,12.80,3.31,12.79,3.31,-3.30,-3.12,-3.14,9.49,9.49,9.49
26.69,12.78,3.29,12.78,3.29,-3.29,-3.12,-3.20,9.49,9.49,9.49
26.96,12.77,3.28,12.76,3.28,-3.28,-3.12,-3.27,9.49,9.48,9.48
27.23,12.75,3.26,12.75,3.26,-3.27,-3.11,-3.34,9.48,9.48,9.48
27.50,12.73,3.25,12.73,3.25,-3.25,-3.11,-3.41,9.47,9.48,9.48
27.77,12.72,3.24,12.71,3.24,-3.24,-3.11,-3.47,9.47,9.47,9.48
28.05,12.71,3.24,12.70,3.23,-3.23,-3.11,-3.53,9.47,9.47,9.46
28.33,12.68,3.21,12.68,3.22,-3.22,-3.10,-3.58,9.46,9.46,9.46
28.62,12.67,3.22,12.66,3.21,-3.21,-3.10,-3.64,9.46,9.45,9.45
28.90,12.64,3.19,12.64,3.19,-3.19,-3.10,-3.69,9.44,9.44,9.45
29.19,12.62,3.18,12.61,3.18,-3.18,-3.09,-3.74,9.44,9.44,9.43
29.48,12.59,3.16,12.59,3.16,-3.16,-3.09,-3.78,9.43,9.43,9.42
29.78,12.56,3.14,12.56,3.14,-3.14,-3.08,-3.81,9.42,9.42,9.42
30.08,12.53,3.12,12.53,3.12,-3.12,-3.08,-3.84,9.41,9.41,9.40
30.38,12.50,3.10,12.50,3.09,-3.10,-3.08,-3.87,9.40,9.40,9.40
30.68,12.47,3.07,12.47,3.07,-3.07,-3.07,-3.89,9.39,9.39,9.40
30.99,12.44,3.04,12.44,3.05,-3.05,-3.07,-3.91,9.39,9.39,9.39
31.30,12.42,3.03,12.42,3.03,-3.03,-3.06,-3.92,9.39,9.39,9.39
31.61,12.40,3.01,12.40,3.01,-3.01,-3.06,-3.92,9.39,9.39,9.39
31.93,12.38,2.98,12.38,2.99,-2.99,-3.05,-3.92,9.39,9.39,9.39
32.24,12.36,2.97,12.36,2.97,-2.97,-3.05,-3.92,9.39,9.39,9.39
32.57,12.34,2.95,12.34,2.95,-2.95,-3.04,-3.90,9.39,9.39,9.38
32.89,12.32,2.93,12.32,2.93,-2.93,-3.03,-3.89,9.39,9.39,9.39
33.22,12.30,2.91,12.30,2.91,-2.91,-3.03,-3.87,9.38,9.38,9.38
33.55,12.28,2.90,12.28,2.90,-2.90,-3.02,-3.84,9.38,9.38,9.38
33.89,12.26,2.89,12.25,2.88,-2.88,-3.02,-3.81,9.37,9.37,9.36
34.23,12.23,2.87,12.23,2.87,-2.87,-3.01,-3.78,9.36,9.36,9.36
34.57,12.21,2.85,12.21,2.86,-2.86,-3.00,-3.74,9.35,9.35,9.35
34.92,12.19,2.85,12.18,2.85,-2.84,-2.99,-3.70,9.34,9.34,9.34
35.27,12.16,2.83,12.16,2.84,-2.83,-2.99,-3.66,9.32,9.32,9.32
35.62,12.14,2.83,12.13,2.82,-2.82,-2.98,-3.61,9.31,9.31,9.31
35.97,12.10,2.81,12.10,2.81,-2.82,-2.97,-3.56,9.28,9.29,9.29
36.33,12.08,2.80,12.08,2.81,-2.81,-2.96,-3.51,9.27,9.27,9.27
36.70,12.06,2.81,12.05,2.80,-2.80,-2.95,-3.46,9.25,9.25,9.25
37.06,12.03,2.80,12.03,2.80,-2.80,-2.94,-3.41,9.23,9.23,9.23
37.43,12.00,2.79,12.00,2.80,-2.80,-2.93,-3.36,9.20,9.20,9.20
37.81,11.98,2.79,11.97,2.79,-2.79,-2.93,-3.31,9.18,9.18,9.18
38.19,11.95,2.79,11.95,2.79,-2.79,-2.91,-3.26,9.16,9.16,9.16
38.57,11.93,2.79,11.93,2.79,-2.79,-2.90,-3.21,9.14,9.14,9.14
38.95,11.91,2.79,11.90,2.78,-2.78,-2.89,-3.15,9.12,9.12,9.12
39.34,11.88,2.77,11.88,2.78,-2.78,-2.88,-3.10,9.10,9.10,9.10
39.74,11.86,2.77,11.85,2.77,-2.77,-2.87,-3.06,9.09,9.08,9.08
40.14,11.83,2.76,11.83,2.76,-2.76,-2.86,-3.01,9.07,9.07,9.06
40.54,11.80,2.74,11.80,2.75,-2.75,-2.85,-2.96,9.05,9.05,9.05
40.94,11.78,2.73,11.77,2.74,-2.74,-2.83,-2.92,9.04,9.04,9.04
41.35,11.75,2.72,11.75,2.72,-2.72,-2.82,-2.87,9.02,9.03,9.02
41.76,11.73,2.71,11.72,2.71,-2.71,-2.81,-2.83,9.02,9.02,9.01
42.18,11.70,2.69,11.70,2.69,-2.69,-2.79,-2.79,9.01,9.01,9.01
42.60,11.67,2.67,11.67,2.67,-2.67,-2.78,-2.75,9.00,9.00,9.00
43.03,11.65,2.66,11.64,2.65,-2.65,-2.77,-2.72,8.99,8.99,8.99
43.46,11.62,2.63,11.62,2.63,-2.63,-2.75,-2.68,8.99,8.99,8.98
43.90,11.60,2.61,11.59,2.61,-2.61,-2.74,-2.65,8.99,8.98,8.98
44.33,11.56,2.59,11.56,2.59,-2.59,-2.72,-2.62,8.97,8.97,8.97
44.78,11.53,2.56,11.53,2.56,-2.57,-2.71,-2.59,8.96,8.96,8.96
45.23,11.51,2.55,11.50,2.55,-2.55,-2.69,-2.56,8.96,8.95,8.96
45.68,11.48,2.53,11.48,2.53,-2.53,-2.67,-2.54,8.94,8.95,8.95
46.13,11.46,2.53,11.45,2.52,-2.51,-2.66,-2.52,8.94,8.94,8.93
46.60,11.42,2.49,11.42,2.50,-2.50,-2.64,-2.50,8.92,8.92,8.92
47.06,11.40,2.49,11.39,2.48,-2.48,-2.62,-2.48,8.91,8.91,8.91
47.53,11.36,2.47,11.36,2.47,-2.47,-2.61,-2.46,8.89,8.89,8.89
48.01,11.33,2.45,11.33,2.46,-2.46,-2.59,-2.45,8.87,8.87,8.87
48.49,11.30,2.44,11.30,2.44,-2.45,-2.57,-2.43,8.85,8.85,8.85
48.97,11.28,2.44,11.27,2.44,-2.44,-2.55,-2.42,8.84,8.83,8.84
49.46,11.25,2.43,11.25,2.43,-2.43,-2.54,-2.41,8.81,8.81,8.82
49.96,11.22,2.43,11.22,2.43,-2.43,-2.52,-2.40,8.79,8.79,8.79
50.46,11.19,2.42,11.19,2.42,-2.42,-2.50,-2.40,8.76,8.76,8.77
50.96,11.16,2.42,11.16,2.42,-2.42,-2.48,-2.39,8.74,8.74,8.73
51.47,11.13,2.41,11.13,2.42,-2.42,-2.47,-2.39,8.71,8.71,8.71
51.99,11.11,2.42,11.10,2.42,-2.41,-2.45,-2.39,8.69,8.69,8.69
52.51,11.08,2.41,11.07,2.41,-2.41,-2.43,-2.39,8.67,8.66,8.67
53.03,11.05,2.41,11.05,2.41,-2.41,-2.42,-2.39,8.64,8.64,8.64
53.56,11.02,2.40,11.02,2.40,-2.40,-2.40,-2.39,8.61,8.62,8.62
54.10,11.00,2.41,10.99,2.40,-2.40,-2.39,-2.39,8.60,8.59,8.59
54.64,10.96,2.39,10.96,2.40,-2.39,-2.38,-2.39,8.56,8.56,8.56
55.18,10.93,2.39,10.93,2.39,-2.39,-2.36,-2.39,8.54,8.54,8.53
55.74,10.89,2.38,10.89,2.38,-2.38,-2.35,-2.40,8.50,8.51,8.51
56.29,10.86,2.38,10.85,2.38,-2.38,-2.34,-2.40,8.48,8.48,8.48
56.86,10.82,2.37,10.82,2.37,-2.37,-2.33,-2.41,8.45,8.45,8.45
57.42,10.78,2.36,10.78,2.36,-2.36,-2.32,-2.41,8.41,8.42,8.42
58.00,10.75,2.36,10.74,2.36,-2.36,-2.31,-2.42,8.39,8.38,8.38
58.58,10.71,2.36,10.71,2.36,-2.36,-2.31,-2.42,8.35,8.35,8.35
59.16,10.67,2.35,10.67,2.35,-2.35,-2.30,-2.43,8.31,8.32,8.32
59.76,10.64,2.36,10.63,2.35,-2.35,-2.30,-2.44,8.28,8.28,8.28
60.35,10.60,2.35,10.60,2.35,-2.36,-2.30,-2.44,8.24,8.24,8.25
60.96,10.57,2.36,10.57,2.36,-2.36,-2.30,-2.45,8.20,8.20,8.21
61.57,10.54,2.38,10.53,2.37,-2.37,-2.30,-2.45,8.17,8.16,8.16
62.18,10.50,2.38,10.50,2.38,-2.38,-2.30,-2.45,8.12,8.12,8.12
62.80,10.47,2.39,10.46,2.39,-2.39,-2.31,-2.46,8.08,8.08,8.08
63.43,10.43,2.40,10.43,2.40,-2.39,-2.32,-2.46,8.03,8.03,8.03
64.07,10.40,2.41,10.39,2.41,-2.40,-2.32,-2.47,7.99,7.99,7.99
64.71,10.36,2.41,10.36,2.41,-2.41,-2.33,-2.47,7.94,7.94,7.94
65.35,10.32,2.42,10.32,2.42,-2.42,-2.35,-2.47,7.89,7.90,7.90
66.01,10.29,2.43,10.28,2.43,-2.43,-2.36,-2.48,7.86,7.85,7.85
66.67,10.25,2.44,10.24,2.44,-2.44,-2.37,-2.48,7.81,7.80,7.81
67.33,10.21,2.45,10.21,2.45,-2.45,-2.39,-2.48,7.76,7.76,7.76
68.01,10.17,2.46,10.17,2.46,-2.46,-2.41,-2.48,7.71,7.71,7.71
68.69,10.14,2.48,10.13,2.47,-2.47,-2.43,-2.49,7.66,7.66,7.66
69.37,10.10,2.49,10.09,2.48,-2.48,-2.45,-2.49,7.61,7.61,7.61
70.07,10.06,2.49,10.06,2.50,-2.50,-2.47,-2.49,7.56,7.56,7.56
70.77,10.02,2.50,10.02,2.51,-2.51,-2.49,-2.50,7.51,7.51,7.51
71.48,9.99,2.53,9.98,2.52,-2.52,-2.52,-2.50,7.46,7.46,7.46
72.19,9.94,2.54,9.94,2.54,-2.54,-2.54,-2.51,7.40,7.41,7.40
72.91,9.91,2.55,9.90,2.55,-2.55,-2.57,-2.52,7.35,7.35,7.35
73.64,9.87,2.57,9.86,2.57,-2.57,-2.60,-2.52,7.30,7.29,7.29
74.38,9.82,2.58,9.82,2.59,-2.59,-2.62,-2.53,7.23,7.24,7.23
75.12,9.79,2.61,9.78,2.61,-2.61,-2.65,-2.54,7.18,7.18,7.17
75.87,9.75,2.62,9.74,2.63,-2.63,-2.68,-2.55,7.12,7.12,7.12
76.63,9.71,2.65,9.71,2.65,-2.65,-2.71,-2.57,7.06,7.06,7.06
77.40,9.67,2.67,9.67,2.67,-2.67,-2.74,-2.58,7.00,7.00,6.99
78.17,9.63,2.70,9.62,2.69,-2.69,-2.77,-2.60,6.94,6.93,6.93
78.95,9.58,2.70,9.58,2.71,-2.71,-2.80,-2.62,6.87,6.87,6.87
79.74,9.54,2.73,9.54,2.73,-2.73,-2.83,-2.63,6.80,6.80,6.81
80.54,9.50,2.76,9.49,2.75,-2.76,-2.86,-2.66,6.74,6.74,6.74
81.35,9.46,2.78,9.45,2.78,-2.78,-2.89,-2.68,6.68,6.67,6.68
82.16,9.41,2.80,9.41,2.80,-2.80,-2.92,-2.70,6.60,6.61,6.61
82.98,9.37,2.83,9.37,2.83,-2.83,-2.95,-2.73,6.54,6.54,6.54
83.81,9.34,2.86,9.33,2.86,-2.86,-2.99,-2.76,6.48,6.47,6.47
84.65,9.29,2.89,9.29,2.88,-2.88,-3.02,-2.79,6.40,6.41,6.40
85.50,9.24,2.90,9.24,2.91,-2.91,-3.05,-2.83,6.33,6.34,6.34
86.35,9.21,2.94,9.20,2.93,-2.93,-3.08,-2.86,6.27,6.27,6.27
87.22,9.16,2.96,9.16,2.96,-2.96,-3.11,-2.90,6.19,6.20,6.19
88.09,9.12,2.99,9.11,2.99,-2.99,-3.14,-2.94,6.13,6.13,6.13
88.97,9.07,3.02,9.07,3.02,-3.02,-3.17,-2.98,6.05,6.05,6.05
89.86,9.03,3.05,9.03,3.05,-3.05,-3.20,-3.03,5.98,5.98,5.98
90.76,8.99,3.08,8.98,3.08,-3.08,-3.23,-3.07,5.91,5.90,5.90
91.66,8.94,3.10,8.94,3.11,-3.11,-3.26,-3.12,5.82,5.83,5.83
92.58,8.90,3.14,8.90,3.15,-3.15,-3.29,-3.17,5.75,5.75,5.75
93.51,8.86,3.19,8.85,3.18,-3.18,-3.32,-3.22,5.67,5.67,5.67
94.44,8.81,3.22,8.81,3.22,-3.22,-3.35,-3.28,5.59,5.59,5.59
95.39,8.77,3.26,8.76,3.25,-3.26,-3.38,-3.34,5.51,5.51,5.51
96.34,8.72,3.29,8.72,3.29,-3.30,-3.41,-3.40,5.42,5.42,5.42
97.30,8.67,3.32,8.67,3.33,-3.34,-3.44,-3.46,5.33,5.34,5.34
98.28,8.64,3.39,8.63,3.37,-3.38,-3.47,-3.52,5.26,5.25,5.25
99.26,8.58,3.41,8.58,3.42,-3.42,-3.50,-3.58,5.16,5.17,5.16
100.25,8.54,3.46,8.53,3.46,-3.46,-3.53,-3.65,5.08,5.08,5.08
101.25,8.49,3.50,8.49,3.50,-3.50,-3.56,-3.71,4.99,4.99,4.99
102.27,8.44,3.53,8.44,3.54,-3.54,-3.59,-3.78,4.90,4.90,4.90
103.29,8.40,3.58,8.39,3.58,-3.58,-3.62,-3.85,4.82,4.82,4.82
104.32,8.35,3.61,8.35,3.61,-3.61,-3.65,-3.92,4.73,4.73,4.73
105.37,8.30,3.65,8.30,3.65,-3.65,-3.68,-3.98,4.64,4.65,4.65
106.42,8.26,3.69,8.25,3.69,-3.69,-3.71,-4.05,4.57,4.56,4.56
107.48,8.21,3.73,8.21,3.73,-3.72,-3.74,-4.12,4.48,4.48,4.48
108.56,8.16,3.76,8.16,3.76,-3.76,-3.77,-4.19,4.40,4.40,4.39
109.64,8.11,3.79,8.11,3.79,-3.79,-3.80,-4.25,4.31,4.31,4.32
110.74,8.06,3.82,8.06,3.82,-3.82,-3.84,-4.32,4.23,4.23,4.24
111.85,8.02,3.86,8.01,3.86,-3.86,-3.87,-4.38,4.16,4.16,4.15
112.97,7.97,3.90,7.96,3.89,-3.89,-3.90,-4.44,4.07,4.07,4.07
114.10,7.92,3.93,7.91,3.93,-3.93,-3.93,-4.50,3.99,3.99,3.99
115.24,7.86,3.95,7.86,3.96,-3.97,-3.96,-4.55,3.89,3.90,3.90
116.39,7.82,4.01,7.82,4.00,-4.01,-4.00,-4.60,3.81,3.81,3.81
117.55,7.78,4.05,7.77,4.04,-4.05,-4.03,-4.65,3.73,3.72,3.73
118.73,7.73,4.09,7.73,4.09,-4.09,-4.06,-4.69,3.63,3.64,3.64
119.92,7.69,4.14,7.69,4.14,-4.14,-4.10,-4.73,3.55,3.55,3.55
121.12,7.65,4.19,7.65,4.19,-4.19,-4.13,-4.77,3.46,3.46,3.46
122.33,7.61,4.24,7.61,4.24,-4.24,-4.17,-4.79,3.37,3.37,3.37
123.55,7.58,4.30,7.57,4.29,-4.29,-4.20,-4.82,3.28,3.28,3.28
124.79,7.54,4.35,7.54,4.35,-4.35,-4.24,-4.84,3.19,3.19,3.19
126.03,7.50,4.39,7.50,4.40,-4.40,-4.27,-4.85,3.10,3.10,3.10
127.29,7.47,4.46,7.46,4.45,-4.45,-4.31,-4.86,3.02,3.01,3.01
128.57,7.43,4.50,7.43,4.50,-4.50,-4.35,-4.87,2.92,2.92,2.92
129.85,7.39,4.55,7.39,4.55,-4.55,-4.38,-4.86,2.83,2.84,2.84
131.15,7.36,4.60,7.35,4.60,-4.60,-4.42,-4.86,2.76,2.75,2.75
132.46,7.32,4.65,7.32,4.65,-4.65,-4.46,-4.85,2.67,2.67,2.67
133.79,7.29,4.69,7.29,4.69,-4.69,-4.49,-4.84,2.59,2.59,2.60
135.12,7.26,4.74,7.26,4.73,-4.74,-4.53,-4.82,2.52,2.52,2.52
136.48,7.23,4.78,7.23,4.78,-4.78,-4.57,-4.80,2.45,2.45,2.45
137.84,7.20,4.82,7.19,4.82,-4.82,-4.61,-4.78,2.38,2.38,2.38
139.22,7.17,4.85,7.16,4.85,-4.85,-4.64,-4.75,2.31,2.31,2.31
140.61,7.13,4.88,7.13,4.89,-4.89,-4.68,-4.72,2.24,2.25,2.24
142.02,7.11,4.93,7.10,4.92,-4.92,-4.72,-4.70,2.19,2.18,2.18
143.44,7.07,4.95,7.06,4.95,-4.95,-4.76,-4.67,2.11,2.11,2.11
144.87,7.03,4.97,7.03,4.98,-4.98,-4.79,-4.63,2.04,2.05,2.05
146.32,7.00,5.01,7.00,5.01,-5.01,-4.83,-4.60,1.99,1.99,1.99
147.78,6.97,5.04,6.96,5.04,-5.04,-4.87,-4.57,1.93,1.93,1.93
149.26,6.94,5.07,6.93,5.06,-5.06,-4.90,-4.54,1.88,1.87,1.87
150.75,6.89,5.08,6.90,5.09,-5.08,-4.94,-4.51,1.80,1.81,1.81
152.26,6.87,5.11,6.86,5.11,-5.10,-4.97,-4.48,1.76,1.75,1.75
153.78,6.82,5.12,6.82,5.13,-5.13,-5.01,-4.45,1.69,1.70,1.70
155.32,6.79,5.15,6.78,5.14,-5.14,-5.04,-4.43,1.64,1.64,1.64
156.88,6.75,5.16,6.75,5.16,-5.16,-5.07,-4.40,1.58,1.58,1.59
158.44,6.71,5.17,6.71,5.18,-5.18,-5.11,-4.38,1.53,1.53,1.53
160.03,6.68,5.20,6.67,5.19,-5.20,-5.14,-4.36,1.48,1.47,1.48
161.63,6.63,5.21,6.63,5.21,-5.21,-5.17,-4.34,1.41,1.42,1.42
163.24,6.60,5.24,6.59,5.23,-5.23,-5.20,-4.33,1.37,1.37,1.36
164.88,6.56,5.24,6.55,5.24,-5.24,-5.22,-4.32,1.32,1.32,1.31
166.53,6.52,5.25,6.52,5.25,-5.25,-5.25,-4.31,1.27,1.27,1.27
168.19,6.48,5.26,6.48,5.26,-5.26,-5.27,-4.30,1.22,1.22,1.22
169.87,6.44,5.26,6.44,5.27,-5.27,-5.30,-4.30,1.17,1.17,1.17
171.57,6.40,5.28,6.40,5.27,-5.27,-5.32,-4.30,1.12,1.12,1.12
173.29,6.36,5.28,6.36,5.28,-5.28,-5.34,-4.30,1.08,1.08,1.08
175.02,6.32,5.28,6.31,5.28,-5.28,-5.36,-4.31,1.04,1.04,1.04
176.77,6.28,5.28,6.27,5.28,-5.28,-5.37,-4.32,1.00,1.00,1.00
178.54,6.23,5.27,6.23,5.28,-5.28,-5.39,-4.33,0.95,0.96,0.96
180.32,6.20,5.28,6.19,5.27,-5.27,-5.40,-4.35,0.92,0.92,0.92
182.13,6.15,5.27,6.15,5.27,-5.27,-5.41,-4.37,0.88,0.88,0.88
183.95,6.11,5.26,6.11,5.26,-5.26,-5.42,-4.39,0.84,0.84,0.84
185.79,6.07,5.26,6.06,5.26,-5.26,-5.42,-4.42,0.81,0.81,0.81
187.65,6.03,5.25,6.02,5.25,-5.25,-5.43,-4.45,0.78,0.77,0.77
189.52,5.98,5.24,5.98,5.24,-5.24,-5.43,-4.48,0.73,0.74,0.74
191.42,5.94,5.24,5.94,5.23,-5.23,-5.43,-4.52,0.70,0.70,0.70
193.33,5.90,5.23,5.89,5.23,-5.22,-5.42,-4.56,0.67,0.67,0.67
195.27,5.85,5.21,5.85,5.21,-5.21,-5.42,-4.60,0.63,0.64,0.64
197.22,5.81,5.20,5.80,5.20,-5.20,-5.41,-4.64,0.61,0.61,0.61
199.19,5.76,5.18,5.76,5.18,-5.18,-5.40,-4.69,0.57,0.58,0.58
201.18,5.72,5.17,5.72,5.17,-5.17,-5.38,-4.74,0.55,0.55,0.55
203.19,5.68,5.15,5.67,5.15,-5.15,-5.37,-4.79,0.53,0.53,0.52
205.23,5.63,5.13,5.63,5.13,-5.13,-5.35,-4.84,0.50,0.50,0.50
207.28,5.59,5.11,5.58,5.11,-5.11,-5.33,-4.89,0.48,0.47,0.47
209.35,5.53,5.08,5.53,5.09,-5.09,-5.30,-4.94,0.44,0.44,0.45
211.44,5.49,5.06,5.48,5.06,-5.07,-5.28,-4.99,0.42,0.42,0.42
213.56,5.44,5.05,5.43,5.04,-5.04,-5.25,-5.04,0.39,0.39,0.39
215.69,5.39,5.02,5.39,5.02,-5.02,-5.22,-5.10,0.37,0.37,0.37
217.85,5.34,4.99,5.34,4.99,-4.99,-5.18,-5.14,0.35,0.35,0.35
220.03,5.29,4.96,5.29,4.96,-4.96,-5.15,-5.19,0.32,0.33,0.32
222.23,5.25,4.94,5.24,4.94,-4.93,-5.11,-5.24,0.31,0.31,0.30
224.45,5.19,4.90,5.19,4.90,-4.90,-5.07,-5.28,0.28,0.29,0.28
226.70,5.14,4.87,5.14,4.87,-4.87,-5.03,-5.32,0.26,0.27,0.27
228.96,5.09,4.84,5.08,4.84,-4.84,-4.99,-5.36,0.25,0.24,0.25
231.25,5.04,4.81,5.03,4.80,-4.81,-4.94,-5.39,0.23,0.22,0.23
233.57,4.98,4.76,4.98,4.77,-4.78,-4.89,-5.41,0.20,0.20,0.21
235.90,4.93,4.75,4.93,4.74,-4.74,-4.84,-5.43,0.18,0.18,0.18
238.26,4.88,4.72,4.87,4.71,-4.71,-4.79,-5.45,0.17,0.16,0.16
240.64,4.82,4.67,4.82,4.68,-4.67,-4.74,-5.45,0.14,0.15,0.14
243.05,4.78,4.65,4.77,4.64,-4.64,-4.69,-5.46,0.14,0.13,0.13
245.48,4.72,4.60,4.72,4.60,-4.60,-4.63,-5.45,0.12,0.12,0.11
247.93,4.66,4.56,4.66,4.56,-4.56,-4.57,-5.44,0.10,0.10,0.10
250.41,4.61,4.52,4.60,4.51,-4.52,-4.52,-5.41,0.09,0.08,0.09
252.92,4.55,4.47,4.55,4.47,-4.47,-4.46,-5.38,0.07,0.07,0.07
255.45,4.49,4.42,4.49,4.43,-4.43,-4.40,-5.35,0.06,0.06,0.06
258.00,4.44,4.39,4.43,4.38,-4.39,-4.33,-5.30,0.05,0.05,0.05
260.58,4.38,4.34,4.38,4.34,-4.34,-4.27,-5.25,0.03,0.03,0.04
263.19,4.32,4.30,4.32,4.30,-4.30,-4.21,-5.19,0.02,0.02,0.02
265.82,4.26,4.25,4.26,4.25,-4.25,-4.14,-5.13,0.00,0.00,0.01
268.48,4.20,4.20,4.20,4.20,-4.21,-4.08,-5.05,-0.01,-0.01,-0.01
271.16,4.14,4.16,4.14,4.16,-4.16,-4.01,-4.98,-0.02,-0.02,-0.03
273.87,4.08,4.11,4.08,4.11,-4.11,-3.95,-4.89,-0.04,-0.04,-0.04
276.61,4.02,4.07,4.01,4.07,-4.06,-3.88,-4.80,-0.05,-0.05,-0.06
279.38,3.95,4.01,3.95,4.02,-4.01,-3.81,-4.71,-0.07,-0.06,-0.06
282.17,3.89,3.97,3.88,3.96,-3.96,-3.75,-4.62,-0.08,-0.08,-0.08
284.99,3.82,3.90,3.82,3.90,-3.91,-3.68,-4.52,-0.09,-0.09,-0.08
287.84,3.76,3.85,3.76,3.85,-3.85,-3.61,-4.41,-0.10,-0.10,-0.09
290.72,3.70,3.80,3.69,3.80,-3.80,-3.54,-4.31,-0.10,-0.10,-0.11
293.63,3.63,3.74,3.63,3.74,-3.74,-3.47,-4.20,-0.11,-0.11,-0.12
296.57,3.56,3.68,3.56,3.68,-3.67,-3.40,-4.10,-0.12,-0.12,-0.12
299.53,3.49,3.61,3.49,3.61,-3.61,-3.33,-3.99,-0.13,-0.13,-0.12
302.53,3.42,3.55,3.42,3.55,-3.55,-3.27,-3.88,-0.13,-0.13,-0.14
305.55,3.35,3.48,3.34,3.48,-3.48,-3.20,-3.77,-0.14,-0.14,-0.13
308.61,3.27,3.42,3.27,3.42,-3.42,-3.13,-3.66,-0.15,-0.15,-0.15
311.69,3.20,3.34,3.20,3.35,-3.35,-3.06,-3.55,-0.15,-0.15,-0.15
314.81,3.13,3.29,3.12,3.28,-3.28,-2.99,-3.44,-0.15,-0.15,-0.16
317.96,3.05,3.20,3.05,3.21,-3.20,-2.92,-3.33,-0.16,-0.15,-0.16
321.14,2.98,3.14,2.97,3.13,-3.13,-2.85,-3.22,-0.15,-0.16,-0.16
324.35,2.89,3.05,2.89,3.05,-3.06,-2.78,-3.12,-0.17,-0.17,-0.17
327.59,2.81,2.97,2.81,2.98,-2.98,-2.72,-3.01,-0.17,-0.17,-0.16
330.87,2.73,2.89,2.73,2.90,-2.90,-2.65,-2.91,-0.18,-0.18,-0.17
334.18,2.66,2.83,2.65,2.82,-2.82,-2.58,-2.81,-0.17,-0.17,-0.17
337.52,2.57,2.74,2.57,2.75,-2.74,-2.51,-2.71,-0.18,-0.17,-0.18
340.90,2.50,2.68,2.49,2.67,-2.66,-2.45,-2.61,-0.17,-0.17,-0.18
344.30,2.41,2.58,2.41,2.59,-2.58,-2.38,-2.51,-0.18,-0.18,-0.18
347.75,2.33,2.50,2.33,2.50,-2.50,-2.31,-2.42,-0.18,-0.18,-0.17
351.23,2.25,2.43,2.24,2.42,-2.42,-2.25,-2.32,-0.17,-0.18,-0.18
354.74,2.16,2.32,2.16,2.34,-2.34,-2.18,-2.23,-0.18,-0.18,-0.17
358.28,2.08,2.26,2.08,2.25,-2.25,-2.12,-2.14,-0.18,-0.18,-0.18
361.87,2.00,2.17,1.99,2.17,-2.17,-2.05,-2.05,-0.17,-0.18,-0.18
365.49,1.91,2.09,1.91,2.09,-2.09,-1.99,-1.96,-0.18,-0.18,-0.18
369.14,1.83,2.01,1.83,2.00,-2.01,-1.92,-1.88,-0.18,-0.18,-0.18
372.83,1.75,1.92,1.74,1.92,-1.92,-1.86,-1.79,-0.18,-0.18,-0.18
376.56,1.66,1.83,1.66,1.84,-1.84,-1.80,-1.71,-0.18,-0.18,-0.18
380.33,1.58,1.76,1.57,1.76,-1.76,-1.73,-1.63,-0.18,-0.18,-0.18
384.13,1.49,1.68,1.49,1.68,-1.67,-1.67,-1.55,-0.19,-0.18,-0.19
387.97,1.41,1.59,1.40,1.59,-1.59,-1.61,-1.48,-0.18,-0.19,-0.19
391.85,1.32,1.50,1.32,1.50,-1.51,-1.55,-1.40,-0.19,-0.19,-0.18
395.77,1.24,1.42,1.24,1.42,-1.42,-1.49,-1.33,-0.19,-0.19,-0.18
399.73,1.16,1.34,1.15,1.34,-1.34,-1.43,-1.25,-0.18,-0.19,-0.18
403.72,1.07,1.25,1.07,1.26,-1.25,-1.37,-1.18,-0.19,-0.18,-0.19
407.76,0.99,1.18,0.99,1.17,-1.17,-1.31,-1.11,-0.18,-0.18,-0.19
411.84,0.91,1.10,0.90,1.09,-1.09,-1.25,-1.04,-0.18,-0.19,-0.19
415.96,0.82,1.00,0.82,1.01,-1.01,-1.19,-0.98,-0.19,-0.19,-0.18
420.12,0.73,0.92,0.73,0.92,-0.93,-1.13,-0.91,-0.20,-0.20,-0.20
424.32,0.65,0.84,0.65,0.84,-0.85,-1.07,-0.85,-0.20,-0.20,-0.20
428.56,0.57,0.77,0.56,0.76,-0.77,-1.02,-0.79,-0.20,-0.20,-0.20
432.85,0.49,0.69,0.48,0.69,-0.69,-0.96,-0.72,-0.20,-0.20,-0.20
437.18,0.40,0.61,0.40,0.61,-0.61,-0.90,-0.67,-0.21,-0.20,-0.21
441.55,0.33,0.54,0.32,0.54,-0.53,-0.85,-0.61,-0.20,-0.21,-0.21
445.96,0.25,0.46,0.24,0.46,-0.45,-0.79,-0.55,-0.21,-0.21,-0.22
450.42,0.17,0.37,0.17,0.38,-0.38,-0.73,-0.50,-0.21,-0.21,-0.21
454.93,0.09,0.30,0.09,0.30,-0.31,-0.68,-0.44,-0.22,-0.22,-0.21
459.48,0.02,0.23,0.02,0.23,-0.24,-0.63,-0.39,-0.22,-0.22,-0.21
464.07,-0.05,0.17,-0.05,0.17,-0.17,-0.57,-0.34,-0.22,-0.22,-0.22
468.71,-0.11,0.11,-0.12,0.11,-0.11,-0.52,-0.29,-0.22,-0.22,-0.22
473.40,-0.17,0.05,-0.17,0.05,-0.05,-0.47,-0.25,-0.22,-0.22,-0.23
478.13,-0.23,-0.01,-0.23,-0.00,0.00,-0.41,-0.20,-0.23,-0.22,-0.23
482.91,-0.27,-0.05,-0.28,-0.05,0.05,-0.36,-0.16,-0.22,-0.23,-0.23
487.74,-0.32,-0.11,-0.32,-0.10,0.10,-0.31,-0.11,-0.23,-0.22,-0.22
492.62,-0.36,-0.14,-0.36,-0.14,0.14,-0.26,-0.07,-0.22,-0.22,-0.22
497.55,-0.39,-0.17,-0.40,-0.18,0.18,-0.21,-0.04,-0.21,-0.22,-0.22
502.52,-0.43,-0.21,-0.43,-0.21,0.22,-0.16,0.00,-0.22,-0.22,-0.22
507.55,-0.46,-0.25,-0.46,-0.24,0.25,-0.11,0.04,-0.22,-0.21,-0.21
