frequency,raw
20,2.11
21,2.21
22,2.34
23,2.44
24,2.53
25,2.63
26,2.72
27,2.79
28,2.85
29,2.91
30,2.95
31,2.97
32,2.97
33,2.96
34,2.95
35,2.94
36,2.94
37,2.94
38,2.93
39,2.93
40,2.92
41,2.92
42,2.91
43,2.91
44,2.90
45,2.89
46,2.88
47,2.87
48,2.86
49,2.85
50,2.84
51,2.83
52,2.83
53,2.82
54,2.81
55,2.80
56,2.79
57,2.78
58,2.77
59,2.76
60,2.76
61,2.76
62,2.77
63,2.78
64,2.80
65,2.79
66,2.78
67,2.76
68,2.73
69,2.70
70,2.68
71,2.66
72,2.65
73,2.65
74,2.65
75,2.65
76,2.64
77,2.62
78,2.60
79,2.59
80,2.59
81,2.59
82,2.58
83,2.57
84,2.56
85,2.55
86,2.54
87,2.53
88,2.52
89,2.52
90,2.52
91,2.51
92,2.51
93,2.50
94,2.50
95,2.49
96,2.49
97,2.50
98,2.50
99,2.49
100,2.48
101,2.47
102,2.45
104,2.44
105,2.44
106,2.44
107,2.46
108,2.47
109,2.49
110,2.49
111,2.50
112,2.49
113,2.49
114,2.49
115,2.49
117,2.47
118,2.47
119,2.47
120,2.48
121,2.48
123,2.51
124,2.53
125,2.52
126,2.52
128,2.49
129,2.46
130,2.44
131,2.43
133,2.41
134,2.42
135,2.43
137,2.43
138,2.42
140,2.39
141,2.36
142,2.34
144,2.31
145,2.29
147,2.27
148,2.27
150,2.26
151,2.25
153,2.22
154,2.18
156,2.12
157,2.10
159,2.04
160,2.03
162,2.00
164,1.97
165,1.95
167,1.91
169,1.85
170,1.83
172,1.75
174,1.68
175,1.65
177,1.58
179,1.50
181,1.43
183,1.36
184,1.33
186,1.28
188,1.23
190,1.16
192,1.08
194,1.00
196,0.91
198,0.80
200,0.71
202,0.62
204,0.53
206,0.45
208,0.36
210,0.28
212,0.19
214,0.11
216,0.03
218,-0.05
221,-0.19
223,-0.29
225,-0.40
227,-0.51
229,-0.62
232,-0.77
234,-0.87
236,-0.97
239,-1.11
241,-1.20
244,-1.35
246,-1.44
248,-1.54
251,-1.68
253,-1.77
256,-1.90
259,-2.02
261,-2.10
264,-2.22
266,-2.30
269,-2.41
272,-2.53
274,-2.60
277,-2.71
280,-2.83
283,-2.95
286,-3.09
288,-3.19
291,-3.36
294,-3.55
297,-3.76
300,-3.98
303,-4.21
306,-4.45
309,-4.71
312,-4.97
316,-5.34
319,-5.63
322,-5.93
325,-6.23
328,-6.51
332,-6.83
335,-7.02
338,-7.14
342,-7.18
345,-7.16
349,-7.05
352,-6.94
356,-6.79
359,-6.68
363,-6.60
366,-6.58
370,-6.59
374,-6.65
377,-6.70
381,-6.78
385,-6.85
389,-6.90
393,-6.93
397,-6.93
401,-6.92
405,-6.89
409,-6.86
413,-6.82
417,-6.79
421,-6.76
425,-6.74
430,-6.71
434,-6.69
438,-6.67
443,-6.64
447,-6.64
451,-6.67
456,-6.69
460,-6.70
465,-6.70
470,-6.70
474,-6.72
479,-6.73
484,-6.77
489,-6.81
494,-6.84
499,-6.85
504,-6.86
509,-6.86
514,-6.84
519,-6.81
524,-6.80
529,-6.77
535,-6.74
540,-6.70
545,-6.67
551,-6.62
556,-6.57
562,-6.51
568,-6.44
573,-6.38
579,-6.30
585,-6.22
591,-6.13
596,-6.06
602,-5.97
608,-5.87
615,-5.75
621,-5.66
627,-5.55
633,-5.44
639,-5.33
646,-5.20
652,-5.08
659,-4.95
665,-4.84
672,-4.70
679,-4.57
686,-4.43
692,-4.32
699,-4.20
706,-4.06
713,-3.94
721,-3.79
728,-3.65
735,-3.51
742,-3.36
750,-3.20
757,-3.06
765,-2.92
773,-2.79
780,-2.68
788,-2.56
796,-2.45
804,-2.35
812,-2.25
820,-2.15
828,-2.06
837,-1.94
845,-1.83
853,-1.71
862,-1.58
871,-1.44
879,-1.34
888,-1.23
897,-1.13
906,-1.02
915,-0.92
924,-0.83
933,-0.73
943,-0.63
952,-0.53
962,-0.43
971,-0.32
981,-0.20
991,-0.09
1001,0.01
1011,0.11
1021,0.19
1031,0.27
1041,0.34
1052,0.42
1062,0.49
1073,0.57
1084,0.65
1094,0.73
1105,0.80
1116,0.87
1128,0.93
1139,0.98
1150,1.02
1162,1.07
1173,1.12
1185,1.19
1197,1.27
1209,1.35
1221,1.44
1233,1.51
1246,1.59
1258,1.66
1271,1.73
1283,1.80
1296,1.86
1309,1.91
1322,1.97
1335,2.01
1349,2.07
1362,2.11
1376,2.16
1390,2.21
1404,2.27
1418,2.33
1432,2.40
1446,2.46
1461,2.51
1475,2.56
1490,2.60
1505,2.63
1520,2.67
1535,2.70
1550,2.74
1566,2.80
1582,2.86
1597,2.92
1613,2.99
1629,3.06
1646,3.15
1662,3.24
1679,3.34
1696,3.44
1713,3.54
1730,3.65
1747,3.75
1764,3.85
1782,3.96
1800,4.08
1818,4.18
1836,4.28
1854,4.38
1873,4.50
1892,4.62
1911,4.74
1930,4.87
1949,4.99
1969,5.11
1988,5.22
2008,5.34
2028,5.45
2048,5.55
2069,5.67
2090,5.77
2111,5.86
2132,5.98
2153,6.09
2175,6.22
2196,6.36
2218,6.52
2240,6.68
2263,6.87
2285,7.05
2308,7.22
2331,7.37
2355,7.51
2378,7.63
2402,7.72
2426,7.77
2450,7.78
2475,7.73
2500,7.65
2525,7.55
2550,7.47
2575,7.44
2601,7.46
2627,7.58
2653,7.75
2680,7.97
2707,8.20
2734,8.42
2761,8.63
2789,8.82
2817,8.98
2845,9.11
2873,9.19
2902,9.24
2931,9.24
2960,9.21
2990,9.14
3020,9.06
3050,8.98
3080,8.89
3111,8.79
3142,8.69
3174,8.56
3206,8.40
3238,8.22
3270,8.03
3303,7.79
3336,7.54
3369,7.30
3403,7.06
3437,6.85
3471,6.66
3506,6.48
3541,6.27
3576,6.06
3612,5.80
3648,5.50
3685,5.15
3721,4.79
3759,4.39
3796,4.02
3834,3.64
3873,3.28
3911,2.94
3950,2.59
3990,2.22
4030,1.82
4070,1.42
4111,0.96
4152,0.48
4193,-0.01
4235,-0.49
4278,-0.91
4321,-1.24
4364,-1.44
4407,-1.50
4451,-1.48
4496,-1.38
4541,-1.27
4586,-1.20
4632,-1.20
4679,-1.36
4725,-1.67
4773,-2.11
4820,-2.69
4868,-3.34
4917,-3.99
4966,-4.58
5016,-4.96
5066,-5.15
5117,-5.15
5168,-4.89
5220,-4.56
5272,-4.21
5325,-3.93
5378,-3.75
5432,-3.65
5486,-3.68
5541,-3.73
5596,-3.82
5652,-3.92
5709,-4.01
5766,-4.09
5823,-4.14
5882,-4.15
5940,-4.17
6000,-4.19
6060,-4.21
6120,-4.27
6182,-4.35
6244,-4.47
6306,-4.62
6369,-4.76
6433,-4.90
6497,-5.04
6562,-5.17
6628,-5.32
6694,-5.47
6761,-5.61
6828,-5.72
6897,-5.85
6966,-5.95
7035,-6.01
7106,-6.04
7177,-5.96
7249,-5.84
7321,-5.57
7394,-5.16
7468,-4.61
7543,-3.90
7618,-3.08
7694,-2.20
7771,-1.27
7849,-0.36
7928,0.54
8007,1.38
8087,2.13
8168,2.79
8250,3.35
8332,3.68
8415,3.82
8499,3.81
8584,3.62
8670,3.34
8757,2.98
8845,2.55
8933,2.28
9022,1.90
9113,1.28
9204,0.92
9296,0.69
9389,-0.00
9483,-0.57
9577,-0.92
9673,-1.17
9770,-1.33
9868,-1.48
9966,-1.61
10066,-1.74
10167,-1.90
10268,-2.06
10371,-2.27
10475,-2.45
10579,-2.49
10685,-2.39
10792,-2.17
10900,-1.94
11009,-1.73
11119,-1.56
11230,-1.42
11343,-1.17
11456,-0.92
11571,-1.42
11686,-2.16
11803,-2.29
11921,-3.00
12040,-3.98
12161,-4.65
12282,-5.69
12405,-6.77
12529,-7.81
12655,-8.85
12781,-9.85
12909,-10.81
13038,-11.59
13168,-12.23
13300,-12.65
13433,-12.82
13567,-13.03
13703,-13.30
13840,-13.81
13978,-14.44
14118,-15.16
14259,-15.98
14402,-16.88
14546,-17.72
14692,-18.51
14838,-18.97
14987,-19.21
15137,-19.23
15288,-18.89
15441,-18.48
15595,-18.05
15751,-17.77
15909,-17.74
16068,-17.87
16229,-18.17
16391,-18.37
16555,-18.38
16720,-18.15
16888,-17.54
17056,-16.85
17227,-16.10
17399,-15.54
17573,-15.20
17749,-15.07
17926,-15.28
18106,-15.70
18287,-16.26
18470,-16.96
18654,-17.74
18841,-18.53
19029,-19.26
19220,-19.85
19412,-20.34
19606,-20.71
19802,-20.88
20000,-20.97
