frequency,raw,smoothed,error,error_smoothed,equalization,parametric_eq,fixed_band_eq,equalized_raw,equalized_smoothed,target
20.00,-3.01,-3.01,-2.49,-2.49,2.52,1.75,-1.53,-0.49,-0.49,-0.52
20.20,-2.77,-2.77,-2.25,-2.25,2.25,1.60,-1.57,-0.52,-0.52,-0.52
20.40,-2.52,-2.52,-2.00,-2.00,1.99,1.44,-1.61,-0.53,-0.53,-0.52
20.61,-2.27,-2.27,-1.75,-1.75,1.73,1.29,-1.65,-0.55,-0.54,-0.52
20.81,-2.01,-2.01,-1.49,-1.49,1.47,1.13,-1.69,-0.54,-0.54,-0.52
21.02,-1.75,-1.75,-1.23,-1.23,1.21,0.97,-1.74,-0.53,-0.54,-0.52
21.23,-1.49,-1.49,-0.97,-0.97,0.96,0.82,-1.78,-0.53,-0.53,-0.52
21.44,-1.24,-1.23,-0.71,-0.71,0.71,0.66,-1.83,-0.52,-0.52,-0.52
21.66,-0.98,-0.98,-0.46,-0.46,0.46,0.50,-1.87,-0.52,-0.52,-0.52
21.87,-0.72,-0.73,-0.20,-0.21,0.21,0.35,-1.92,-0.52,-0.52,-0.52
22.09,-0.49,-0.48,0.03,0.04,-0.04,0.19,-1.97,-0.52,-0.52,-0.52
22.31,-0.25,-0.25,0.28,0.27,-0.27,0.03,-2.02,-0.52,-0.52,-0.52
22.54,-0.02,-0.02,0.50,0.50,-0.50,-0.13,-2.08,-0.52,-0.52,-0.52
22.76,0.20,0.20,0.72,0.72,-0.71,-0.29,-2.13,-0.51,-0.52,-0.52
22.99,0.40,0.40,0.92,0.92,-0.92,-0.45,-2.19,-0.52,-0.52,-0.52
23.22,0.59,0.59,1.11,1.11,-1.11,-0.60,-2.24,-0.52,-0.52,-0.52
23.45,0.77,0.77,1.29,1.29,-1.29,-0.76,-2.30,-0.52,-0.52,-0.52
23.69,0.94,0.94,1.46,1.46,-1.46,-0.92,-2.36,-0.52,-0.52,-0.52
23.92,1.09,1.10,1.61,1.62,-1.62,-1.08,-2.42,-0.52,-0.52,-0.52
24.16,1.24,1.24,1.76,1.76,-1.76,-1.23,-2.48,-0.52,-0.52,-0.52
24.40,1.38,1.38,1.90,1.90,-1.90,-1.39,-2.55,-0.51,-0.52,-0.52
24.65,1.50,1.51,2.02,2.03,-2.02,-1.54,-2.61,-0.52,-0.52,-0.52
24.89,1.62,1.62,2.14,2.14,-2.14,-1.70,-2.67,-0.52,-0.52,-0.52
25.14,1.73,1.73,2.25,2.25,-2.25,-1.85,-2.74,-0.52,-0.52,-0.52
25.39,1.83,1.83,2.35,2.36,-2.36,-2.00,-2.81,-0.52,-0.52,-0.52
25.65,1.93,1.93,2.45,2.45,-2.45,-2.15,-2.88,-0.52,-0.52,-0.52
25.91,2.03,2.03,2.55,2.55,-2.55,-2.30,-2.94,-0.52,-0.52,-0.52
26.16,2.12,2.12,2.64,2.64,-2.64,-2.45,-3.01,-0.52,-0.52,-0.52
26.43,2.21,2.21,2.73,2.73,-2.73,-2.60,-3.08,-0.52,-0.52,-0.52
26.69,2.30,2.30,2.82,2.82,-2.82,-2.74,-3.15,-0.52,-0.52,-0.52
26.96,2.39,2.39,2.91,2.91,-2.92,-2.88,-3.22,-0.53,-0.53,-0.52
27.23,2.48,2.48,3.00,3.00,-3.01,-3.02,-3.29,-0.53,-0.53,-0.52
27.50,2.58,2.58,3.10,3.10,-3.11,-3.16,-3.36,-0.53,-0.53,-0.52
27.77,2.69,2.69,3.21,3.21,-3.21,-3.30,-3.43,-0.52,-0.52,-0.52
28.05,2.79,2.79,3.31,3.31,-3.31,-3.43,-3.50,-0.52,-0.52,-0.52
28.33,2.90,2.90,3.42,3.42,-3.42,-3.57,-3.57,-0.52,-0.52,-0.52
28.62,3.01,3.01,3.53,3.53,-3.53,-3.70,-3.64,-0.52,-0.52,-0.52
28.90,3.12,3.12,3.64,3.64,-3.65,-3.82,-3.71,-0.52,-0.52,-0.52
29.19,3.24,3.24,3.76,3.76,-3.76,-3.95,-3.78,-0.52,-0.52,-0.52
29.48,3.35,3.36,3.87,3.88,-3.88,-4.07,-3.84,-0.52,-0.52,-0.52
29.78,3.47,3.47,3.99,3.99,-3.99,-4.19,-3.91,-0.52,-0.52,-0.52
30.08,3.59,3.59,4.11,4.11,-4.11,-4.30,-3.97,-0.52,-0.52,-0.52
30.38,3.70,3.70,4.22,4.22,-4.22,-4.41,-4.03,-0.52,-0.52,-0.52
30.68,3.81,3.81,4.33,4.33,-4.33,-4.52,-4.09,-0.52,-0.52,-0.52
30.99,3.92,3.92,4.44,4.44,-4.44,-4.63,-4.15,-0.52,-0.52,-0.52
31.30,4.02,4.02,4.54,4.54,-4.55,-4.73,-4.21,-0.52,-0.52,-0.52
31.61,4.13,4.13,4.65,4.65,-4.65,-4.84,-4.27,-0.52,-0.52,-0.52
31.93,4.22,4.23,4.74,4.75,-4.74,-4.93,-4.32,-0.52,-0.52,-0.52
32.24,4.32,4.32,4.84,4.84,-4.84,-5.03,-4.38,-0.51,-0.52,-0.52
32.57,4.41,4.41,4.93,4.93,-4.93,-5.12,-4.43,-0.52,-0.52,-0.52
32.89,4.49,4.49,5.01,5.01,-5.01,-5.21,-4.48,-0.52,-0.52,-0.52
33.22,4.57,4.57,5.09,5.09,-5.09,-5.30,-4.53,-0.52,-0.52,-0.52
33.55,4.65,4.65,5.17,5.17,-5.17,-5.38,-4.59,-0.51,-0.52,-0.52
33.89,4.72,4.72,5.24,5.24,-5.24,-5.46,-4.64,-0.52,-0.52,-0.52
34.23,4.79,4.79,5.31,5.32,-5.32,-5.54,-4.69,-0.53,-0.52,-0.52
34.57,4.87,4.87,5.39,5.39,-5.39,-5.62,-4.74,-0.52,-0.53,-0.52
34.92,4.94,4.94,5.46,5.46,-5.47,-5.70,-4.79,-0.53,-0.53,-0.52
35.27,5.02,5.02,5.54,5.54,-5.55,-5.77,-4.84,-0.53,-0.53,-0.52
35.62,5.11,5.11,5.63,5.63,-5.63,-5.84,-4.89,-0.52,-0.52,-0.52
35.97,5.19,5.20,5.71,5.72,-5.71,-5.91,-4.94,-0.52,-0.52,-0.52
36.33,5.28,5.28,5.80,5.80,-5.80,-5.98,-5.00,-0.52,-0.52,-0.52
36.70,5.37,5.37,5.89,5.89,-5.89,-6.04,-5.06,-0.52,-0.52,-0.52
37.06,5.45,5.46,5.97,5.98,-5.97,-6.11,-5.11,-0.52,-0.52,-0.52
37.43,5.54,5.54,6.06,6.06,-6.06,-6.17,-5.17,-0.52,-0.52,-0.52
37.81,5.63,5.63,6.15,6.15,-6.15,-6.23,-5.24,-0.52,-0.52,-0.52
38.19,5.71,5.71,6.23,6.24,-6.24,-6.29,-5.30,-0.53,-0.52,-0.52
38.57,5.80,5.80,6.32,6.32,-6.32,-6.35,-5.37,-0.52,-0.52,-0.52
38.95,5.89,5.89,6.41,6.41,-6.41,-6.41,-5.44,-0.52,-0.52,-0.52
39.34,5.98,5.98,6.50,6.50,-6.50,-6.47,-5.52,-0.51,-0.52,-0.52
39.74,6.06,6.06,6.58,6.58,-6.58,-6.53,-5.59,-0.52,-0.52,-0.52
40.14,6.15,6.15,6.67,6.67,-6.67,-6.59,-5.67,-0.52,-0.52,-0.52
40.54,6.23,6.23,6.75,6.75,-6.76,-6.65,-5.76,-0.53,-0.52,-0.52
40.94,6.32,6.32,6.84,6.84,-6.84,-6.71,-5.85,-0.52,-0.52,-0.52
41.35,6.40,6.40,6.92,6.93,-6.92,-6.76,-5.94,-0.52,-0.52,-0.52
41.76,6.49,6.49,7.01,7.01,-7.01,-6.82,-6.04,-0.51,-0.52,-0.52
42.18,6.57,6.57,7.09,7.09,-7.09,-6.88,-6.14,-0.52,-0.52,-0.52
42.60,6.65,6.65,7.17,7.17,-7.17,-6.94,-6.24,-0.52,-0.52,-0.52
43.03,6.72,6.72,7.24,7.25,-7.25,-7.01,-6.35,-0.53,-0.52,-0.52
43.46,6.80,6.80,7.32,7.32,-7.33,-7.07,-6.47,-0.53,-0.52,-0.52
43.90,6.88,6.88,7.40,7.40,-7.40,-7.13,-6.59,-0.52,-0.52,-0.52
44.33,6.96,6.96,7.48,7.48,-7.48,-7.20,-6.71,-0.52,-0.52,-0.52
44.78,7.04,7.04,7.56,7.56,-7.56,-7.26,-6.84,-0.51,-0.52,-0.52
45.23,7.11,7.12,7.63,7.64,-7.63,-7.33,-6.97,-0.52,-0.52,-0.52
45.68,7.19,7.19,7.71,7.71,-7.71,-7.40,-7.11,-0.51,-0.52,-0.52
46.13,7.26,7.26,7.78,7.78,-7.78,-7.47,-7.25,-0.52,-0.52,-0.52
46.60,7.33,7.34,7.85,7.86,-7.86,-7.54,-7.40,-0.53,-0.52,-0.52
47.06,7.41,7.41,7.93,7.93,-7.94,-7.61,-7.55,-0.53,-0.53,-0.52
47.53,7.49,7.49,8.01,8.01,-8.02,-7.69,-7.71,-0.53,-0.53,-0.52
48.01,7.57,7.58,8.09,8.10,-8.10,-7.76,-7.87,-0.53,-0.52,-0.52
48.49,7.66,7.66,8.18,8.18,-8.18,-7.84,-8.04,-0.52,-0.52,-0.52
48.97,7.75,7.75,8.27,8.27,-8.27,-7.92,-8.21,-0.51,-0.52,-0.52
49.46,7.83,7.83,8.35,8.35,-8.35,-8.00,-8.38,-0.51,-0.51,-0.52
49.96,7.91,7.91,8.43,8.43,-8.43,-8.09,-8.56,-0.52,-0.51,-0.52
50.46,7.99,7.99,8.51,8.51,-8.50,-8.17,-8.74,-0.51,-0.52,-0.52
50.96,8.06,8.06,8.58,8.58,-8.58,-8.26,-8.93,-0.52,-0.52,-0.52
51.47,8.13,8.13,8.65,8.65,-8.65,-8.35,-9.12,-0.52,-0.52,-0.52
51.99,8.20,8.20,8.72,8.72,-8.73,-8.44,-9.31,-0.53,-0.52,-0.52
52.51,8.27,8.27,8.79,8.80,-8.80,-8.54,-9.50,-0.53,-0.52,-0.52
53.03,8.35,8.35,8.87,8.87,-8.87,-8.63,-9.70,-0.52,-0.52,-0.52
53.56,8.42,8.42,8.94,8.94,-8.94,-8.73,-9.89,-0.52,-0.52,-0.52
54.10,8.49,8.49,9.01,9.01,-9.01,-8.83,-10.08,-0.52,-0.52,-0.52
54.64,8.56,8.56,9.08,9.08,-9.08,-8.93,-10.28,-0.52,-0.52,-0.52
55.18,8.63,8.63,9.15,9.15,-9.15,-9.03,-10.47,-0.52,-0.52,-0.52
55.74,8.70,8.70,9.22,9.23,-9.23,-9.13,-10.65,-0.52,-0.52,-0.52
56.29,8.78,8.78,9.30,9.30,-9.30,-9.23,-10.83,-0.52,-0.52,-0.52
56.86,8.85,8.85,9.37,9.37,-9.37,-9.34,-11.00,-0.52,-0.52,-0.52
57.42,8.92,8.92,9.44,9.44,-9.44,-9.44,-11.17,-0.52,-0.52,-0.52
58.00,8.99,9.00,9.51,9.52,-9.52,-9.55,-11.32,-0.53,-0.52,-0.52
58.58,9.07,9.07,9.59,9.59,-9.59,-9.65,-11.46,-0.52,-0.52,-0.52
59.16,9.15,9.15,9.67,9.67,-9.67,-9.76,-11.59,-0.52,-0.52,-0.52
59.76,9.22,9.22,9.74,9.74,-9.75,-9.86,-11.71,-0.52,-0.52,-0.52
60.35,9.30,9.30,9.82,9.82,-9.82,-9.97,-11.81,-0.52,-0.52,-0.52
60.96,9.37,9.37,9.89,9.89,-9.89,-10.07,-11.88,-0.52,-0.52,-0.52
61.57,9.45,9.45,9.97,9.97,-9.96,-10.17,-11.95,-0.51,-0.52,-0.52
62.18,9.51,9.51,10.03,10.04,-10.03,-10.27,-11.99,-0.52,-0.52,-0.52
62.80,9.58,9.58,10.10,10.10,-10.10,-10.37,-12.01,-0.52,-0.52,-0.52
63.43,9.64,9.64,10.16,10.16,-10.16,-10.47,-12.02,-0.52,-0.52,-0.52
64.07,9.70,9.70,10.22,10.22,-10.22,-10.56,-12.00,-0.52,-0.52,-0.52
64.71,9.76,9.76,10.28,10.28,-10.29,-10.65,-11.97,-0.53,-0.52,-0.52
65.35,9.82,9.82,10.34,10.35,-10.35,-10.74,-11.92,-0.53,-0.52,-0.52
66.01,9.89,9.89,10.41,10.41,-10.41,-10.82,-11.85,-0.52,-0.52,-0.52
66.67,9.95,9.95,10.47,10.47,-10.47,-10.89,-11.77,-0.52,-0.52,-0.52
67.33,10.01,10.01,10.53,10.53,-10.53,-10.97,-11.68,-0.52,-0.52,-0.52
68.01,10.07,10.07,10.59,10.59,-10.59,-11.03,-11.57,-0.52,-0.52,-0.52
68.69,10.13,10.13,10.65,10.65,-10.65,-11.09,-11.46,-0.52,-0.52,-0.52
69.37,10.19,10.19,10.71,10.71,-10.71,-11.15,-11.33,-0.52,-0.52,-0.52
70.07,10.25,10.25,10.77,10.77,-10.77,-11.19,-11.20,-0.52,-0.52,-0.52
70.77,10.30,10.30,10.82,10.82,-10.82,-11.24,-11.07,-0.52,-0.52,-0.52
71.48,10.35,10.35,10.87,10.87,-10.87,-11.27,-10.93,-0.52,-0.52,-0.52
72.19,10.40,10.40,10.92,10.92,-10.92,-11.30,-10.79,-0.52,-0.52,-0.52
72.91,10.45,10.45,10.97,10.97,-10.97,-11.31,-10.65,-0.52,-0.52,-0.52
73.64,10.49,10.49,11.01,11.01,-11.01,-11.33,-10.50,-0.52,-0.52,-0.52
74.38,10.52,10.53,11.04,11.05,-11.05,-11.33,-10.36,-0.53,-0.52,-0.52
75.12,10.56,10.56,11.08,11.08,-11.08,-11.33,-10.22,-0.52,-0.52,-0.52
75.87,10.59,10.59,11.11,11.11,-11.11,-11.32,-10.09,-0.52,-0.52,-0.52
76.63,10.61,10.61,11.13,11.13,-11.13,-11.31,-9.95,-0.52,-0.52,-0.52
77.40,10.63,10.63,11.15,11.15,-11.15,-11.28,-9.83,-0.52,-0.52,-0.52
78.17,10.64,10.64,11.16,11.16,-11.16,-11.25,-9.70,-0.52,-0.52,-0.52
78.95,10.65,10.65,11.17,11.17,-11.17,-11.22,-9.58,-0.52,-0.52,-0.52
79.74,10.65,10.65,11.17,11.17,-11.18,-11.18,-9.46,-0.52,-0.52,-0.52
80.54,10.65,10.65,11.17,11.17,-11.18,-11.13,-9.36,-0.52,-0.52,-0.52
81.35,10.65,10.65,11.17,11.17,-11.17,-11.08,-9.25,-0.52,-0.52,-0.52
82.16,10.64,10.64,11.16,11.17,-11.17,-11.02,-9.15,-0.53,-0.52,-0.52
82.98,10.64,10.64,11.16,11.16,-11.16,-10.96,-9.06,-0.52,-0.52,-0.52
83.81,10.62,10.63,11.14,11.15,-11.15,-10.89,-8.97,-0.52,-0.52,-0.52
84.65,10.61,10.61,11.13,11.13,-11.13,-10.83,-8.89,-0.52,-0.52,-0.52
85.50,10.58,10.58,11.10,11.10,-11.10,-10.75,-8.82,-0.52,-0.52,-0.52
86.35,10.55,10.55,11.07,11.07,-11.07,-10.68,-8.75,-0.52,-0.52,-0.52
87.22,10.52,10.52,11.04,11.04,-11.04,-10.60,-8.69,-0.51,-0.52,-0.52
88.09,10.47,10.47,10.99,10.99,-10.99,-10.52,-8.63,-0.52,-0.52,-0.52
88.97,10.42,10.42,10.94,10.94,-10.94,-10.44,-8.58,-0.52,-0.52,-0.52
89.86,10.36,10.36,10.88,10.88,-10.88,-10.36,-8.54,-0.52,-0.52,-0.52
90.76,10.30,10.30,10.82,10.82,-10.82,-10.28,-8.50,-0.52,-0.52,-0.52
91.66,10.23,10.23,10.75,10.75,-10.75,-10.19,-8.47,-0.52,-0.52,-0.52
92.58,10.15,10.15,10.67,10.67,-10.67,-10.11,-8.45,-0.52,-0.52,-0.52
93.51,10.07,10.07,10.59,10.59,-10.60,-10.03,-8.43,-0.53,-0.53,-0.52
94.44,9.99,9.99,10.51,10.51,-10.52,-9.94,-8.42,-0.53,-0.52,-0.52
95.39,9.91,9.91,10.43,10.43,-10.43,-9.86,-8.41,-0.52,-0.52,-0.52
96.34,9.83,9.83,10.35,10.35,-10.35,-9.77,-8.41,-0.52,-0.52,-0.52
97.30,9.74,9.74,10.26,10.26,-10.26,-9.69,-8.41,-0.52,-0.52,-0.52
98.28,9.65,9.65,10.17,10.17,-10.17,-9.61,-8.42,-0.52,-0.52,-0.52
99.26,9.56,9.56,10.08,10.08,-10.08,-9.52,-8.43,-0.52,-0.52,-0.52
100.25,9.47,9.47,9.99,9.99,-9.99,-9.44,-8.44,-0.52,-0.52,-0.52
101.25,9.37,9.37,9.89,9.89,-9.89,-9.36,-8.46,-0.52,-0.52,-0.52
102.27,9.27,9.27,9.79,9.79,-9.79,-9.28,-8.49,-0.52,-0.52,-0.52
103.29,9.17,9.17,9.69,9.69,-9.69,-9.20,-8.51,-0.52,-0.52,-0.52
104.32,9.06,9.06,9.58,9.58,-9.58,-9.13,-8.54,-0.52,-0.52,-0.52
105.37,8.95,8.95,9.47,9.47,-9.47,-9.05,-8.58,-0.51,-0.52,-0.52
106.42,8.83,8.83,9.35,9.35,-9.35,-8.97,-8.61,-0.52,-0.52,-0.52
107.48,8.71,8.71,9.23,9.23,-9.23,-8.90,-8.64,-0.52,-0.52,-0.52
108.56,8.59,8.59,9.11,9.11,-9.11,-8.83,-8.68,-0.52,-0.52,-0.52
109.64,8.47,8.47,8.99,8.99,-9.00,-8.76,-8.71,-0.53,-0.53,-0.52
110.74,8.35,8.35,8.87,8.87,-8.88,-8.69,-8.75,-0.53,-0.53,-0.52
111.85,8.24,8.24,8.76,8.76,-8.77,-8.62,-8.78,-0.52,-0.52,-0.52
112.97,8.13,8.13,8.65,8.65,-8.65,-8.55,-8.81,-0.52,-0.52,-0.52
114.10,8.02,8.02,8.54,8.54,-8.54,-8.48,-8.84,-0.52,-0.52,-0.52
115.24,7.91,7.91,8.43,8.43,-8.43,-8.42,-8.86,-0.52,-0.52,-0.52
116.39,7.80,7.80,8.32,8.32,-8.32,-8.35,-8.88,-0.52,-0.52,-0.52
117.55,7.69,7.69,8.21,8.21,-8.21,-8.29,-8.89,-0.52,-0.52,-0.52
118.73,7.58,7.58,8.10,8.10,-8.10,-8.23,-8.90,-0.52,-0.52,-0.52
119.92,7.47,7.47,7.99,7.99,-8.00,-8.17,-8.90,-0.52,-0.53,-0.52
121.12,7.36,7.37,7.88,7.89,-7.89,-8.10,-8.89,-0.53,-0.53,-0.52
122.33,7.26,7.26,7.78,7.79,-7.79,-8.05,-8.88,-0.53,-0.52,-0.52
123.55,7.17,7.17,7.69,7.69,-7.69,-7.99,-8.86,-0.52,-0.52,-0.52
124.79,7.07,7.07,7.59,7.59,-7.59,-7.93,-8.83,-0.51,-0.51,-0.52
126.03,6.97,6.97,7.49,7.49,-7.49,-7.87,-8.79,-0.51,-0.51,-0.52
127.29,6.87,6.87,7.39,7.39,-7.39,-7.82,-8.74,-0.51,-0.51,-0.52
128.57,6.77,6.77,7.29,7.29,-7.29,-7.76,-8.69,-0.52,-0.52,-0.52
129.85,6.67,6.67,7.19,7.19,-7.19,-7.71,-8.63,-0.52,-0.52,-0.52
131.15,6.57,6.57,7.09,7.09,-7.10,-7.65,-8.56,-0.53,-0.53,-0.52
132.46,6.48,6.48,7.00,7.00,-7.01,-7.60,-8.48,-0.53,-0.53,-0.52
133.79,6.39,6.40,6.91,6.92,-6.92,-7.55,-8.40,-0.53,-0.53,-0.52
135.12,6.32,6.32,6.84,6.84,-6.84,-7.49,-8.31,-0.52,-0.52,-0.52
136.48,6.25,6.25,6.77,6.77,-6.77,-7.44,-8.22,-0.52,-0.52,-0.52
137.84,6.18,6.18,6.70,6.70,-6.70,-7.39,-8.12,-0.52,-0.52,-0.52
139.22,6.11,6.11,6.63,6.63,-6.63,-7.34,-8.02,-0.52,-0.52,-0.52
140.61,6.05,6.05,6.57,6.57,-6.57,-7.29,-7.91,-0.52,-0.52,-0.52
142.02,5.99,5.99,6.51,6.51,-6.51,-7.24,-7.81,-0.52,-0.52,-0.52
143.44,5.93,5.93,6.45,6.45,-6.45,-7.19,-7.70,-0.52,-0.52,-0.52
144.87,5.88,5.88,6.40,6.40,-6.40,-7.14,-7.59,-0.51,-0.52,-0.52
146.32,5.82,5.82,6.34,6.34,-6.34,-7.09,-7.47,-0.52,-0.52,-0.52
147.78,5.77,5.77,6.29,6.29,-6.29,-7.04,-7.36,-0.52,-0.52,-0.52
149.26,5.72,5.72,6.24,6.24,-6.24,-6.99,-7.25,-0.52,-0.52,-0.52
150.75,5.67,5.67,6.19,6.19,-6.20,-6.94,-7.14,-0.53,-0.53,-0.52
152.26,5.63,5.63,6.15,6.15,-6.16,-6.89,-7.04,-0.53,-0.52,-0.52
153.78,5.60,5.60,6.12,6.12,-6.12,-6.84,-6.93,-0.52,-0.52,-0.52
155.32,5.57,5.57,6.09,6.09,-6.09,-6.79,-6.83,-0.52,-0.52,-0.52
156.88,5.54,5.54,6.06,6.06,-6.06,-6.74,-6.72,-0.52,-0.52,-0.52
158.44,5.51,5.51,6.03,6.03,-6.03,-6.69,-6.63,-0.52,-0.52,-0.52
160.03,5.48,5.48,6.00,6.00,-6.01,-6.64,-6.53,-0.52,-0.53,-0.52
161.63,5.45,5.45,5.98,5.98,-5.98,-6.59,-6.44,-0.53,-0.53,-0.53
163.24,5.43,5.43,5.96,5.96,-5.96,-6.54,-6.35,-0.53,-0.53,-0.53
164.88,5.41,5.41,5.94,5.95,-5.94,-6.49,-6.27,-0.53,-0.53,-0.53
166.53,5.40,5.40,5.93,5.93,-5.93,-6.43,-6.19,-0.52,-0.53,-0.53
168.19,5.38,5.38,5.91,5.91,-5.91,-6.38,-6.12,-0.53,-0.53,-0.53
169.87,5.36,5.36,5.89,5.90,-5.90,-6.33,-6.04,-0.53,-0.53,-0.53
171.57,5.35,5.35,5.88,5.88,-5.88,-6.28,-5.98,-0.53,-0.53,-0.53
173.29,5.33,5.33,5.86,5.87,-5.87,-6.23,-5.91,-0.54,-0.53,-0.53
175.02,5.32,5.32,5.85,5.85,-5.86,-6.18,-5.85,-0.53,-0.53,-0.53
176.77,5.31,5.31,5.84,5.84,-5.84,-6.12,-5.80,-0.53,-0.53,-0.53
178.54,5.29,5.30,5.82,5.83,-5.82,-6.07,-5.75,-0.53,-0.53,-0.53
180.32,5.28,5.28,5.81,5.81,-5.80,-6.02,-5.70,-0.52,-0.52,-0.53
182.13,5.25,5.25,5.78,5.78,-5.77,-5.96,-5.66,-0.52,-0.52,-0.53
183.95,5.22,5.22,5.75,5.75,-5.74,-5.91,-5.62,-0.52,-0.52,-0.53
185.79,5.18,5.18,5.71,5.71,-5.71,-5.86,-5.59,-0.53,-0.53,-0.53
187.65,5.14,5.14,5.67,5.67,-5.67,-5.80,-5.56,-0.53,-0.53,-0.53
189.52,5.09,5.09,5.62,5.63,-5.63,-5.75,-5.53,-0.53,-0.53,-0.53
191.42,5.05,5.05,5.58,5.58,-5.58,-5.69,-5.51,-0.53,-0.53,-0.53
193.33,5.01,5.01,5.54,5.54,-5.54,-5.64,-5.49,-0.53,-0.54,-0.53
195.27,4.97,4.97,5.50,5.50,-5.51,-5.58,-5.48,-0.54,-0.54,-0.53
197.22,4.94,4.94,5.47,5.47,-5.48,-5.53,-5.46,-0.54,-0.54,-0.53
199.19,4.92,4.92,5.45,5.45,-5.46,-5.47,-5.45,-0.54,-0.54,-0.53
201.18,4.90,4.90,5.43,5.43,-5.44,-5.41,-5.45,-0.54,-0.54,-0.53
203.19,4.89,4.89,5.42,5.42,-5.43,-5.36,-5.44,-0.54,-0.54,-0.53
205.23,4.89,4.89,5.42,5.42,-5.42,-5.30,-5.44,-0.53,-0.53,-0.53
207.28,4.89,4.89,5.42,5.42,-5.42,-5.24,-5.44,-0.53,-0.53,-0.53
209.35,4.89,4.89,5.42,5.42,-5.41,-5.19,-5.44,-0.52,-0.52,-0.53
211.44,4.88,4.88,5.41,5.41,-5.41,-5.13,-5.44,-0.53,-0.52,-0.53
213.56,4.87,4.87,5.40,5.40,-5.40,-5.07,-5.45,-0.53,-0.53,-0.53
215.69,4.86,4.86,5.39,5.39,-5.39,-5.01,-5.45,-0.53,-0.53,-0.53
217.85,4.84,4.84,5.37,5.37,-5.37,-4.95,-5.45,-0.53,-0.53,-0.53
220.03,4.82,4.82,5.35,5.35,-5.35,-4.90,-5.46,-0.53,-0.53,-0.53
222.23,4.79,4.80,5.32,5.33,-5.33,-4.84,-5.46,-0.53,-0.53,-0.53
224.45,4.77,4.77,5.30,5.30,-5.30,-4.78,-5.46,-0.53,-0.53,-0.53
226.70,4.74,4.74,5.27,5.27,-5.27,-4.72,-5.45,-0.53,-0.53,-0.53
228.96,4.70,4.70,5.23,5.23,-5.23,-4.66,-5.45,-0.53,-0.53,-0.53
231.25,4.66,4.66,5.19,5.19,-5.20,-4.60,-5.44,-0.54,-0.53,-0.53
233.57,4.62,4.63,5.15,5.16,-5.16,-4.54,-5.43,-0.54,-0.53,-0.53
235.90,4.59,4.59,5.13,5.12,-5.11,-4.48,-5.42,-0.52,-0.53,-0.54
238.26,4.54,4.54,5.08,5.08,-5.07,-4.42,-5.40,-0.53,-0.53,-0.54
240.64,4.49,4.49,5.03,5.03,-5.03,-4.36,-5.37,-0.54,-0.53,-0.54
243.05,4.44,4.44,4.98,4.98,-5.00,-4.30,-5.35,-0.55,-0.55,-0.54
245.48,4.40,4.40,4.94,4.94,-4.98,-4.24,-5.31,-0.58,-0.58,-0.54
247.93,4.36,4.37,4.90,4.91,-4.97,-4.18,-5.28,-0.61,-0.60,-0.54
250.41,4.34,4.35,4.88,4.89,-4.96,-4.12,-5.23,-0.62,-0.61,-0.54
252.92,4.34,4.35,4.88,4.89,-4.92,-4.06,-5.18,-0.58,-0.57,-0.54
255.45,4.34,4.36,4.88,4.90,-4.85,-4.00,-5.13,-0.51,-0.49,-0.54
258.00,4.35,4.33,4.89,4.87,-4.73,-3.94,-5.07,-0.38,-0.40,-0.54
260.58,4.24,4.24,4.78,4.78,-4.57,-3.88,-5.00,-0.33,-0.33,-0.54
263.19,4.05,4.03,4.59,4.57,-4.39,-3.82,-4.93,-0.34,-0.36,-0.54
265.82,3.75,3.72,4.29,4.26,-4.21,-3.76,-4.85,-0.46,-0.49,-0.54
268.48,3.38,3.40,3.92,3.94,-4.07,-3.70,-4.77,-0.68,-0.67,-0.54
271.16,3.10,3.14,3.64,3.68,-3.96,-3.64,-4.69,-0.86,-0.82,-0.54
273.87,3.04,3.06,3.58,3.60,-3.91,-3.58,-4.60,-0.87,-0.85,-0.54
276.61,3.12,3.15,3.66,3.69,-3.89,-3.52,-4.51,-0.77,-0.75,-0.54
279.38,3.37,3.36,3.91,3.90,-3.91,-3.46,-4.41,-0.54,-0.55,-0.54
282.17,3.56,3.56,4.10,4.10,-3.95,-3.40,-4.31,-0.38,-0.39,-0.54
284.99,3.73,3.69,4.26,4.22,-3.94,-3.34,-4.21,-0.21,-0.25,-0.53
287.84,3.66,3.67,4.18,4.19,-3.89,-3.28,-4.11,-0.23,-0.23,-0.52
290.72,3.52,3.50,4.04,4.02,-3.81,-3.22,-4.01,-0.29,-0.31,-0.52
293.63,3.18,3.16,3.70,3.67,-3.69,-3.16,-3.90,-0.51,-0.53,-0.52
296.57,2.80,2.77,3.31,3.28,-3.58,-3.10,-3.79,-0.77,-0.81,-0.51
299.53,2.38,2.45,2.88,2.95,-3.49,-3.04,-3.69,-1.11,-1.04,-0.50
302.53,2.30,2.35,2.80,2.85,-3.46,-2.98,-3.58,-1.16,-1.11,-0.50
305.55,2.48,2.52,2.97,3.01,-3.48,-2.92,-3.47,-1.00,-0.96,-0.49
308.61,2.90,2.90,3.39,3.39,-3.53,-2.86,-3.36,-0.63,-0.63,-0.49
311.69,3.31,3.27,3.79,3.75,-3.60,-2.81,-3.26,-0.29,-0.33,-0.48
314.81,3.57,3.52,4.05,4.00,-3.67,-2.75,-3.15,-0.10,-0.16,-0.48
317.96,3.55,3.55,4.02,4.02,-3.72,-2.69,-3.04,-0.17,-0.17,-0.47
321.14,3.42,3.41,3.89,3.88,-3.73,-2.63,-2.94,-0.31,-0.32,-0.47
324.35,3.16,3.18,3.62,3.64,-3.68,-2.57,-2.83,-0.52,-0.50,-0.46
327.59,2.95,2.97,3.40,3.42,-3.56,-2.51,-2.73,-0.61,-0.59,-0.45
330.87,2.79,2.81,3.24,3.26,-3.41,-2.45,-2.63,-0.62,-0.60,-0.45
334.18,2.73,2.72,3.17,3.17,-3.26,-2.39,-2.53,-0.53,-0.53,-0.44
337.52,2.67,2.66,3.11,3.09,-3.11,-2.33,-2.43,-0.44,-0.46,-0.44
340.90,2.59,2.59,3.02,3.02,-3.00,-2.27,-2.33,-0.41,-0.40,-0.43
344.30,2.51,2.52,2.93,2.94,-2.91,-2.21,-2.23,-0.40,-0.39,-0.42
347.75,2.44,2.44,2.85,2.85,-2.84,-2.15,-2.14,-0.39,-0.40,-0.41
351.23,2.36,2.36,2.77,2.77,-2.76,-2.09,-2.05,-0.40,-0.40,-0.41
354.74,2.28,2.28,2.67,2.68,-2.68,-2.03,-1.95,-0.39,-0.40,-0.39
358.28,2.19,2.19,2.58,2.58,-2.58,-1.97,-1.86,-0.39,-0.39,-0.39
361.87,2.10,2.10,2.48,2.48,-2.48,-1.90,-1.77,-0.38,-0.38,-0.38
365.49,2.01,2.01,2.38,2.38,-2.37,-1.84,-1.68,-0.36,-0.36,-0.37
369.14,1.90,1.90,2.27,2.27,-2.26,-1.78,-1.60,-0.36,-0.36,-0.37
372.83,1.79,1.79,2.14,2.15,-2.14,-1.72,-1.51,-0.35,-0.35,-0.35
376.56,1.67,1.67,2.02,2.02,-2.02,-1.65,-1.43,-0.35,-0.35,-0.35
380.33,1.55,1.55,1.89,1.89,-1.90,-1.59,-1.34,-0.35,-0.35,-0.34
384.13,1.43,1.43,1.77,1.77,-1.78,-1.52,-1.26,-0.35,-0.34,-0.34
387.97,1.32,1.32,1.65,1.65,-1.66,-1.46,-1.18,-0.34,-0.33,-0.33
391.85,1.22,1.22,1.53,1.54,-1.54,-1.39,-1.10,-0.32,-0.32,-0.31
395.77,1.11,1.11,1.42,1.42,-1.42,-1.32,-1.03,-0.31,-0.31,-0.31
399.73,1.01,1.01,1.31,1.31,-1.30,-1.26,-0.95,-0.29,-0.30,-0.30
403.72,0.89,0.90,1.18,1.19,-1.19,-1.19,-0.88,-0.30,-0.29,-0.29
407.76,0.79,0.79,1.08,1.08,-1.08,-1.11,-0.80,-0.28,-0.29,-0.29
411.84,0.68,0.68,0.96,0.96,-0.96,-1.04,-0.73,-0.28,-0.28,-0.28
415.96,0.58,0.58,0.85,0.85,-0.85,-0.96,-0.66,-0.27,-0.27,-0.27
420.12,0.47,0.47,0.74,0.74,-0.74,-0.89,-0.59,-0.26,-0.26,-0.27
424.32,0.36,0.36,0.62,0.62,-0.62,-0.81,-0.52,-0.26,-0.26,-0.26
428.56,0.26,0.26,0.51,0.51,-0.51,-0.73,-0.46,-0.25,-0.25,-0.25
432.85,0.15,0.15,0.39,0.40,-0.40,-0.64,-0.39,-0.25,-0.25,-0.24
437.18,0.05,0.05,0.29,0.29,-0.29,-0.56,-0.33,-0.24,-0.24,-0.24
441.55,-0.04,-0.04,0.19,0.19,-0.18,-0.47,-0.27,-0.22,-0.23,-0.23
