frequency,raw,smoothed,error,error_smoothed,equalization,parametric_eq,fixed_band_eq,equalized_raw,equalized_smoothed,target
20.00,5.52,5.52,-2.13,-2.13,2.14,1.93,0.69,7.66,7.66,7.65
20.20,5.52,5.52,-2.13,-2.13,2.13,1.93,0.71,7.65,7.65,7.65
20.40,5.53,5.53,-2.12,-2.12,2.12,1.92,0.73,7.64,7.64,7.65
20.61,5.54,5.54,-2.11,-2.11,2.10,1.92,0.76,7.64,7.64,7.65
20.81,5.55,5.55,-2.10,-2.10,2.09,1.91,0.78,7.64,7.64,7.65
21.02,5.57,5.57,-2.08,-2.08,2.07,1.91,0.81,7.64,7.64,7.65
21.23,5.59,5.59,-2.06,-2.06,2.06,1.90,0.83,7.64,7.64,7.64
21.44,5.61,5.61,-2.04,-2.04,2.04,1.90,0.86,7.65,7.65,7.64
21.66,5.63,5.63,-2.02,-2.02,2.02,1.89,0.88,7.65,7.65,7.64
21.87,5.65,5.65,-2.00,-1.99,2.00,1.89,0.91,7.65,7.65,7.64
22.09,5.67,5.67,-1.97,-1.98,1.98,1.88,0.94,7.64,7.64,7.64
22.31,5.69,5.68,-1.95,-1.96,1.96,1.87,0.97,7.65,7.64,7.64
22.54,5.70,5.70,-1.94,-1.94,1.94,1.87,0.99,7.64,7.64,7.64
22.76,5.72,5.72,-1.92,-1.92,1.92,1.86,1.03,7.64,7.64,7.64
22.99,5.74,5.73,-1.90,-1.91,1.90,1.86,1.06,7.64,7.64,7.64
23.22,5.75,5.75,-1.89,-1.89,1.88,1.85,1.09,7.63,7.64,7.64
23.45,5.77,5.77,-1.87,-1.87,1.87,1.84,1.12,7.64,7.63,7.64
23.69,5.79,5.78,-1.85,-1.85,1.85,1.84,1.15,7.64,7.64,7.63
23.92,5.80,5.80,-1.84,-1.83,1.84,1.83,1.19,7.63,7.64,7.63
24.16,5.82,5.81,-1.82,-1.82,1.82,1.82,1.22,7.64,7.64,7.63
24.40,5.83,5.83,-1.80,-1.80,1.81,1.82,1.25,7.63,7.63,7.63
24.65,5.84,5.84,-1.79,-1.79,1.79,1.81,1.29,7.63,7.63,7.63
24.89,5.85,5.85,-1.78,-1.78,1.78,1.80,1.32,7.63,7.63,7.63
25.14,5.86,5.86,-1.77,-1.77,1.77,1.79,1.36,7.62,7.62,7.63
25.39,5.87,5.87,-1.76,-1.76,1.75,1.79,1.40,7.62,7.62,7.63
25.65,5.89,5.88,-1.74,-1.74,1.74,1.78,1.43,7.63,7.62,7.62
25.91,5.90,5.90,-1.73,-1.73,1.73,1.77,1.47,7.62,7.62,7.62
26.16,5.91,5.91,-1.71,-1.71,1.71,1.76,1.50,7.62,7.62,7.62
26.43,5.93,5.92,-1.69,-1.70,1.70,1.75,1.54,7.62,7.62,7.62
26.69,5.94,5.94,-1.68,-1.68,1.68,1.75,1.57,7.62,7.62,7.62
26.96,5.95,5.95,-1.67,-1.67,1.67,1.74,1.60,7.61,7.62,7.62
27.23,5.96,5.96,-1.66,-1.65,1.65,1.73,1.64,7.61,7.61,7.61
27.50,5.98,5.97,-1.64,-1.64,1.64,1.72,1.67,7.62,7.61,7.61
27.77,5.99,5.99,-1.62,-1.62,1.63,1.71,1.70,7.61,7.61,7.61
28.05,6.00,6.00,-1.61,-1.61,1.61,1.70,1.73,7.61,7.61,7.61
28.33,6.01,6.01,-1.60,-1.60,1.60,1.69,1.75,7.61,7.61,7.61
28.62,6.02,6.02,-1.59,-1.59,1.59,1.68,1.78,7.60,7.60,7.60
28.90,6.03,6.03,-1.58,-1.58,1.57,1.67,1.80,7.60,7.60,7.60
29.19,6.04,6.04,-1.56,-1.56,1.56,1.66,1.82,7.60,7.60,7.60
29.48,6.05,6.05,-1.55,-1.55,1.55,1.65,1.84,7.60,7.60,7.60
29.78,6.06,6.06,-1.54,-1.54,1.54,1.64,1.86,7.59,7.59,7.60
30.08,6.07,6.07,-1.53,-1.53,1.53,1.63,1.87,7.59,7.59,7.59
30.38,6.08,6.08,-1.51,-1.51,1.51,1.62,1.88,7.59,7.59,7.59
30.68,6.09,6.09,-1.50,-1.50,1.50,1.61,1.88,7.59,7.59,7.59
30.99,6.10,6.10,-1.49,-1.49,1.49,1.60,1.89,7.58,7.58,7.58
31.30,6.11,6.11,-1.47,-1.47,1.48,1.59,1.89,7.58,7.58,7.58
31.61,6.12,6.12,-1.46,-1.46,1.46,1.58,1.89,7.58,7.58,7.58
31.93,6.13,6.12,-1.45,-1.45,1.45,1.57,1.88,7.58,7.57,7.57
32.24,6.13,6.13,-1.44,-1.44,1.44,1.56,1.88,7.57,7.57,7.57
32.57,6.14,6.14,-1.43,-1.43,1.43,1.54,1.86,7.57,7.57,7.57
32.89,6.15,6.15,-1.42,-1.42,1.42,1.53,1.85,7.56,7.56,7.56
33.22,6.16,6.16,-1.40,-1.40,1.41,1.52,1.83,7.56,7.56,7.56
33.55,6.17,6.16,-1.39,-1.39,1.39,1.51,1.82,7.56,7.56,7.56
33.89,6.17,6.17,-1.39,-1.38,1.38,1.49,1.79,7.55,7.55,7.55
34.23,6.18,6.18,-1.37,-1.37,1.37,1.48,1.77,7.55,7.55,7.55
34.57,6.19,6.19,-1.36,-1.36,1.35,1.47,1.74,7.54,7.54,7.54
34.92,6.20,6.20,-1.34,-1.34,1.34,1.45,1.72,7.54,7.54,7.54
35.27,6.21,6.21,-1.33,-1.33,1.33,1.44,1.69,7.53,7.53,7.53
35.62,6.22,6.22,-1.31,-1.31,1.31,1.43,1.66,7.53,7.53,7.53
35.97,6.23,6.23,-1.30,-1.30,1.30,1.41,1.63,7.53,7.53,7.52
36.33,6.24,6.24,-1.28,-1.28,1.28,1.40,1.60,7.52,7.52,7.52
36.70,6.25,6.24,-1.27,-1.27,1.27,1.38,1.56,7.52,7.52,7.51
37.06,6.25,6.25,-1.26,-1.26,1.26,1.37,1.53,7.51,7.51,7.51
37.43,6.26,6.25,-1.25,-1.25,1.25,1.35,1.49,7.50,7.50,7.50
37.81,6.26,6.26,-1.24,-1.24,1.24,1.34,1.46,7.49,7.49,7.50
38.19,6.27,6.26,-1.22,-1.23,1.22,1.32,1.42,7.49,7.49,7.49
38.57,6.27,6.27,-1.22,-1.21,1.21,1.30,1.39,7.48,7.48,7.48
38.95,6.28,6.28,-1.20,-1.20,1.20,1.29,1.36,7.47,7.48,7.48
39.34,6.29,6.29,-1.18,-1.18,1.18,1.27,1.32,7.47,7.47,7.47
39.74,6.30,6.29,-1.17,-1.17,1.17,1.25,1.29,7.47,7.46,7.46
40.14,6.30,6.30,-1.16,-1.15,1.15,1.23,1.25,7.45,7.46,7.45
40.54,6.31,6.31,-1.14,-1.14,1.14,1.22,1.22,7.45,7.45,7.45
40.94,6.32,6.31,-1.12,-1.12,1.12,1.20,1.19,7.44,7.44,7.44
41.35,6.32,6.32,-1.11,-1.11,1.11,1.18,1.16,7.43,7.43,7.43
41.76,6.33,6.33,-1.09,-1.10,1.10,1.16,1.12,7.42,7.42,7.42
42.18,6.33,6.33,-1.09,-1.08,1.08,1.14,1.09,7.41,7.41,7.41
42.60,6.34,6.33,-1.07,-1.07,1.07,1.12,1.06,7.41,7.40,7.40
43.03,6.34,6.34,-1.06,-1.06,1.06,1.10,1.04,7.39,7.39,7.39
43.46,6.34,6.34,-1.05,-1.04,1.04,1.08,1.01,7.38,7.38,7.38
43.90,6.35,6.34,-1.03,-1.03,1.03,1.06,0.98,7.38,7.37,7.37
44.33,6.35,6.35,-1.01,-1.02,1.02,1.04,0.95,7.36,7.36,7.36
44.78,6.35,6.35,-1.00,-1.00,1.00,1.02,0.93,7.35,7.35,7.35
45.23,6.35,6.35,-0.99,-0.99,0.99,1.00,0.90,7.34,7.34,7.34
45.68,6.36,6.35,-0.97,-0.97,0.97,0.98,0.88,7.33,7.33,7.33
46.13,6.36,6.36,-0.96,-0.96,0.96,0.95,0.86,7.32,7.31,7.31
46.60,6.36,6.36,-0.94,-0.94,0.94,0.93,0.83,7.30,7.30,7.30
47.06,6.36,6.36,-0.93,-0.93,0.93,0.91,0.81,7.28,7.28,7.29
47.53,6.37,6.36,-0.91,-0.91,0.91,0.88,0.79,7.28,7.27,7.27
48.01,6.37,6.37,-0.89,-0.89,0.89,0.86,0.77,7.26,7.26,7.26
48.49,6.38,6.37,-0.87,-0.87,0.88,0.83,0.75,7.25,7.25,7.25
48.97,6.38,6.38,-0.85,-0.85,0.86,0.81,0.73,7.24,7.24,7.23
49.46,6.38,6.38,-0.84,-0.84,0.84,0.78,0.71,7.22,7.22,7.21
49.96,6.38,6.37,-0.82,-0.82,0.83,0.76,0.70,7.20,7.20,7.20
50.46,6.37,6.37,-0.81,-0.81,0.81,0.73,0.68,7.17,7.18,7.18
50.96,6.38,6.37,-0.79,-0.79,0.78,0.70,0.66,7.16,7.15,7.16
51.47,6.38,6.38,-0.77,-0.77,0.75,0.68,0.64,7.13,7.13,7.15
51.99,6.40,6.40,-0.73,-0.73,0.72,0.65,0.63,7.11,7.11,7.13
52.51,6.42,6.42,-0.69,-0.69,0.68,0.62,0.61,7.10,7.10,7.11
53.03,6.45,6.45,-0.64,-0.64,0.64,0.59,0.59,7.09,7.09,7.09
53.56,6.48,6.48,-0.59,-0.59,0.60,0.56,0.58,7.08,7.08,7.07
54.10,6.50,6.50,-0.55,-0.55,0.57,0.53,0.56,7.06,7.07,7.05
54.64,6.52,6.51,-0.51,-0.51,0.54,0.50,0.54,7.05,7.04,7.02
55.18,6.51,6.51,-0.49,-0.49,0.51,0.47,0.53,7.01,7.01,7.00
55.74,6.50,6.50,-0.48,-0.48,0.48,0.44,0.51,6.97,6.97,6.98
56.29,6.49,6.49,-0.47,-0.46,0.45,0.41,0.49,6.93,6.94,6.95
56.86,6.49,6.49,-0.44,-0.44,0.42,0.38,0.47,6.90,6.91,6.93
57.42,6.51,6.50,-0.40,-0.40,0.38,0.35,0.45,6.89,6.89,6.90
58.00,6.52,6.52,-0.36,-0.35,0.35,0.31,0.43,6.87,6.87,6.88
58.58,6.55,6.54,-0.30,-0.31,0.31,0.28,0.41,6.86,6.86,6.85
59.16,6.56,6.56,-0.26,-0.26,0.28,0.25,0.38,6.83,6.83,6.82
59.76,6.57,6.57,-0.23,-0.23,0.24,0.21,0.36,6.81,6.81,6.79
60.35,6.57,6.56,-0.20,-0.20,0.21,0.18,0.33,6.77,6.77,6.76
60.96,6.56,6.56,-0.18,-0.17,0.18,0.14,0.31,6.73,6.73,6.73
61.57,6.55,6.55,-0.15,-0.15,0.15,0.10,0.28,6.70,6.70,6.70
62.18,6.54,6.54,-0.13,-0.13,0.12,0.07,0.25,6.66,6.66,6.67
62.80,6.54,6.53,-0.10,-0.10,0.10,0.03,0.22,6.63,6.63,6.63
63.43,6.53,6.53,-0.07,-0.07,0.07,-0.01,0.19,6.59,6.60,6.60
64.07,6.53,6.53,-0.04,-0.04,0.04,-0.05,0.15,6.56,6.57,6.57
64.71,6.53,6.53,-0.00,-0.00,0.00,-0.09,0.12,6.53,6.53,6.53
65.35,6.53,6.52,0.03,0.03,-0.03,-0.13,0.08,6.50,6.49,6.49
66.01,6.52,6.52,0.06,0.07,-0.07,-0.17,0.04,6.45,6.45,6.45
66.67,6.52,6.52,0.10,0.10,-0.10,-0.21,0.00,6.41,6.42,6.42
67.33,6.52,6.52,0.14,0.14,-0.14,-0.25,-0.04,6.38,6.37,6.38
68.01,6.52,6.51,0.18,0.18,-0.18,-0.29,-0.08,6.34,6.33,6.33
68.69,6.51,6.51,0.21,0.22,-0.22,-0.34,-0.12,6.29,6.29,6.29
69.37,6.51,6.51,0.26,0.26,-0.26,-0.38,-0.17,6.25,6.25,6.25
70.07,6.51,6.51,0.30,0.30,-0.30,-0.43,-0.21,6.20,6.20,6.20
70.77,6.51,6.51,0.35,0.35,-0.35,-0.47,-0.26,6.16,6.16,6.16
71.48,6.51,6.50,0.39,0.39,-0.39,-0.52,-0.31,6.12,6.11,6.11
72.19,6.50,6.50,0.43,0.43,-0.43,-0.56,-0.36,6.06,6.07,6.07
72.91,6.50,6.50,0.48,0.48,-0.48,-0.61,-0.41,6.02,6.02,6.02
73.64,6.50,6.50,0.53,0.53,-0.53,-0.66,-0.47,5.97,5.97,5.97
74.38,6.50,6.49,0.58,0.57,-0.57,-0.70,-0.52,5.92,5.92,5.92
75.12,6.49,6.49,0.62,0.62,-0.62,-0.75,-0.58,5.86,5.86,5.87
75.87,6.49,6.49,0.67,0.67,-0.68,-0.80,-0.63,5.81,5.81,5.82
76.63,6.49,6.49,0.73,0.73,-0.73,-0.85,-0.69,5.76,5.76,5.76
77.40,6.50,6.49,0.79,0.79,-0.79,-0.90,-0.75,5.71,5.71,5.71
78.17,6.50,6.50,0.84,0.84,-0.84,-0.95,-0.81,5.65,5.65,5.65
78.95,6.50,6.50,0.90,0.90,-0.90,-1.00,-0.87,5.60,5.60,5.60
79.74,6.50,6.50,0.96,0.96,-0.96,-1.06,-0.93,5.54,5.54,5.54
80.54,6.50,6.50,1.02,1.02,-1.02,-1.11,-0.99,5.48,5.48,5.48
81.35,6.50,6.50,1.08,1.08,-1.07,-1.16,-1.06,5.42,5.42,5.42
82.16,6.50,6.49,1.14,1.13,-1.13,-1.21,-1.12,5.36,5.36,5.36
82.98,6.49,6.49,1.19,1.19,-1.19,-1.27,-1.19,5.30,5.30,5.30
83.81,6.49,6.49,1.25,1.25,-1.25,-1.32,-1.26,5.24,5.24,5.24
84.65,6.49,6.48,1.31,1.31,-1.31,-1.38,-1.33,5.18,5.17,5.18
85.50,6.48,6.48,1.37,1.37,-1.37,-1.43,-1.40,5.11,5.11,5.11
86.35,6.48,6.48,1.43,1.43,-1.43,-1.49,-1.47,5.05,5.05,5.05
87.22,6.48,6.47,1.49,1.49,-1.49,-1.55,-1.54,4.99,4.98,4.98
88.09,6.47,6.47,1.55,1.55,-1.55,-1.60,-1.61,4.91,4.92,4.92
88.97,6.47,6.47,1.62,1.62,-1.62,-1.66,-1.69,4.85,4.85,4.85
89.86,6.46,6.46,1.67,1.68,-1.68,-1.72,-1.76,4.78,4.78,4.78
90.76,6.46,6.45,1.74,1.74,-1.74,-1.78,-1.84,4.72,4.71,4.71
91.66,6.45,6.45,1.80,1.80,-1.80,-1.84,-1.92,4.64,4.64,4.65
92.58,6.45,6.44,1.87,1.87,-1.87,-1.90,-2.00,4.58,4.58,4.58
93.51,6.44,6.44,1.93,1.93,-1.93,-1.95,-2.08,4.50,4.51,4.51
94.44,6.44,6.43,2.00,2.00,-2.00,-2.01,-2.16,4.44,4.44,4.44
95.39,6.43,6.43,2.06,2.06,-2.06,-2.07,-2.25,4.37,4.37,4.37
96.34,6.42,6.42,2.12,2.13,-2.13,-2.13,-2.33,4.29,4.30,4.29
97.30,6.42,6.41,2.19,2.19,-2.19,-2.19,-2.41,4.23,4.22,4.22
98.28,6.41,6.41,2.26,2.26,-2.26,-2.26,-2.50,4.15,4.15,4.15
99.26,6.40,6.40,2.32,2.32,-2.32,-2.32,-2.59,4.07,4.08,4.08
100.25,6.40,6.39,2.39,2.39,-2.39,-2.38,-2.67,4.01,4.01,4.01
101.25,6.39,6.39,2.45,2.46,-2.45,-2.44,-2.76,3.93,3.93,3.93
102.27,6.39,6.38,2.53,2.52,-2.52,-2.50,-2.85,3.87,3.86,3.86
103.29,6.38,6.38,2.59,2.59,-2.59,-2.56,-2.94,3.79,3.79,3.79
104.32,6.37,6.37,2.65,2.65,-2.65,-2.62,-3.02,3.71,3.71,3.71
105.37,6.36,6.36,2.72,2.72,-2.72,-2.68,-3.11,3.64,3.64,3.64
106.42,6.36,6.35,2.79,2.78,-2.79,-2.74,-3.20,3.57,3.57,3.57
107.48,6.35,6.35,2.85,2.85,-2.85,-2.80,-3.28,3.49,3.49,3.50
108.56,6.34,6.34,2.91,2.92,-2.92,-2.87,-3.36,3.42,3.42,3.42
109.64,6.34,6.33,2.99,2.98,-2.98,-2.93,-3.45,3.35,3.35,3.35
110.74,6.33,6.33,3.05,3.05,-3.05,-2.99,-3.53,3.28,3.28,3.28
111.85,6.32,6.32,3.11,3.12,-3.11,-3.05,-3.61,3.20,3.21,3.21
112.97,6.32,6.31,3.18,3.18,-3.18,-3.11,-3.68,3.14,3.13,3.13
114.10,6.31,6.31,3.25,3.25,-3.24,-3.17,-3.75,3.06,3.06,3.06
115.24,6.30,6.30,3.31,3.31,-3.30,-3.23,-3.82,2.99,2.99,2.99
116.39,6.29,6.29,3.37,3.37,-3.37,-3.29,-3.89,2.92,2.92,2.92
117.55,6.28,6.28,3.43,3.43,-3.43,-3.35,-3.95,2.85,2.85,2.85
118.73,6.27,6.27,3.49,3.49,-3.49,-3.41,-4.01,2.77,2.78,2.78
119.92,6.27,6.26,3.56,3.55,-3.56,-3.46,-4.06,2.71,2.71,2.71
121.12,6.26,6.26,3.62,3.62,-3.62,-3.52,-4.11,2.64,2.64,2.64
122.33,6.26,6.26,3.68,3.69,-3.69,-3.58,-4.15,2.57,2.57,2.57
123.55,6.26,6.26,3.75,3.75,-3.75,-3.64,-4.19,2.51,2.51,2.50
124.79,6.26,6.25,3.82,3.82,-3.81,-3.69,-4.22,2.44,2.44,2.44
126.03,6.25,6.25,3.88,3.88,-3.88,-3.75,-4.25,2.37,2.37,2.37
127.29,6.25,6.24,3.94,3.94,-3.94,-3.80,-4.28,2.31,2.31,2.31
128.57,6.24,6.24,4.00,3.99,-3.99,-3.86,-4.30,2.24,2.24,2.24
129.85,6.23,6.23,4.05,4.05,-4.05,-3.91,-4.31,2.18,2.18,2.18
131.15,6.22,6.22,4.10,4.10,-4.10,-3.97,-4.32,2.11,2.12,2.11
132.46,6.21,6.21,4.15,4.15,-4.15,-4.02,-4.32,2.05,2.05,2.05
133.79,6.20,6.19,4.21,4.20,-4.20,-4.07,-4.33,1.99,1.99,1.99
135.12,6.18,6.18,4.25,4.25,-4.25,-4.12,-4.32,1.93,1.93,1.93
136.48,6.17,6.17,4.30,4.30,-4.30,-4.17,-4.32,1.87,1.87,1.87
137.84,6.16,6.15,4.34,4.34,-4.34,-4.22,-4.31,1.82,1.81,1.81
139.22,6.14,6.14,4.38,4.39,-4.39,-4.27,-4.30,1.75,1.76,1.76
140.61,6.13,6.13,4.43,4.43,-4.43,-4.32,-4.28,1.70,1.70,1.70
142.02,6.12,6.11,4.47,4.47,-4.47,-4.36,-4.27,1.65,1.64,1.64
143.44,6.10,6.10,4.51,4.51,-4.51,-4.41,-4.25,1.59,1.59,1.59
144.87,6.09,6.09,4.55,4.55,-4.55,-4.45,-4.24,1.54,1.54,1.53
146.32,6.08,6.07,4.59,4.59,-4.59,-4.50,-4.22,1.49,1.48,1.48
147.78,6.06,6.06,4.63,4.63,-4.63,-4.54,-4.20,1.43,1.43,1.43
149.26,6.05,6.04,4.67,4.66,-4.66,-4.58,-4.19,1.38,1.38,1.38
150.75,6.03,6.03,4.70,4.70,-4.70,-4.62,-4.17,1.33,1.33,1.33
152.26,6.02,6.01,4.73,4.73,-4.73,-4.66,-4.16,1.28,1.28,1.28
153.78,6.00,6.00,4.76,4.76,-4.76,-4.70,-4.14,1.23,1.23,1.23
155.32,5.99,5.98,4.80,4.80,-4.80,-4.74,-4.13,1.19,1.19,1.19
156.88,5.97,5.97,4.82,4.83,-4.83,-4.78,-4.12,1.14,1.14,1.14
158.44,5.96,5.95,4.86,4.86,-4.86,-4.81,-4.11,1.10,1.10,1.10
160.03,5.94,5.94,4.88,4.89,-4.89,-4.85,-4.10,1.05,1.05,1.05
161.63,5.92,5.92,4.91,4.92,-4.91,-4.88,-4.10,1.00,1.01,1.00
163.24,5.91,5.90,4.95,4.94,-4.94,-4.91,-4.10,0.97,0.96,0.96
164.88,5.89,5.89,4.97,4.97,-4.96,-4.94,-4.10,0.92,0.92,0.92
166.53,5.87,5.87,4.99,4.99,-4.99,-4.97,-4.10,0.88,0.88,0.88
168.19,5.86,5.85,5.01,5.01,-5.01,-5.00,-4.11,0.85,0.84,0.84
169.87,5.84,5.84,5.03,5.03,-5.03,-5.03,-4.12,0.81,0.80,0.81
171.57,5.82,5.82,5.05,5.05,-5.05,-5.05,-4.13,0.77,0.77,0.77
173.29,5.80,5.80,5.06,5.07,-5.07,-5.08,-4.15,0.73,0.73,0.73
175.02,5.79,5.78,5.09,5.08,-5.08,-5.10,-4.17,0.70,0.70,0.70
176.77,5.77,5.77,5.10,5.10,-5.10,-5.12,-4.19,0.67,0.67,0.67
178.54,5.75,5.75,5.11,5.11,-5.11,-5.14,-4.22,0.63,0.64,0.63
180.32,5.73,5.73,5.13,5.13,-5.13,-5.16,-4.24,0.60,0.60,0.60
182.13,5.71,5.71,5.14,5.14,-5.14,-5.18,-4.28,0.57,0.57,0.57
183.95,5.69,5.69,5.15,5.15,-5.15,-5.20,-4.31,0.54,0.54,0.54
185.79,5.67,5.67,5.16,5.16,-5.16,-5.22,-4.35,0.51,0.51,0.51
187.65,5.65,5.65,5.16,5.16,-5.16,-5.23,-4.39,0.48,0.48,0.48
189.52,5.63,5.63,5.17,5.17,-5.17,-5.24,-4.44,0.45,0.46,0.46
191.42,5.61,5.61,5.18,5.18,-5.18,-5.25,-4.48,0.43,0.43,0.43
193.33,5.59,5.59,5.18,5.18,-5.18,-5.26,-4.54,0.40,0.40,0.40
195.27,5.57,5.57,5.19,5.19,-5.19,-5.27,-4.59,0.38,0.38,0.38
197.22,5.55,5.55,5.19,5.19,-5.19,-5.28,-4.64,0.36,0.36,0.35
199.19,5.53,5.52,5.20,5.19,-5.19,-5.29,-4.70,0.33,0.33,0.33
201.18,5.50,5.50,5.19,5.19,-5.19,-5.29,-4.76,0.30,0.31,0.31
203.19,5.48,5.48,5.19,5.19,-5.19,-5.30,-4.82,0.28,0.28,0.29
205.23,5.46,5.45,5.19,5.19,-5.19,-5.30,-4.88,0.27,0.26,0.26
207.28,5.43,5.43,5.18,5.19,-5.19,-5.30,-4.95,0.24,0.24,0.24
209.35,5.41,5.41,5.18,5.18,-5.18,-5.30,-5.01,0.22,0.22,0.22
211.44,5.38,5.38,5.17,5.18,-5.18,-5.30,-5.08,0.20,0.20,0.20
213.56,5.36,5.35,5.17,5.17,-5.17,-5.30,-5.14,0.19,0.18,0.18
215.69,5.33,5.33,5.16,5.16,-5.16,-5.29,-5.20,0.16,0.16,0.17
217.85,5.31,5.30,5.16,5.16,-5.16,-5.29,-5.27,0.15,0.15,0.15
220.03,5.28,5.28,5.15,5.15,-5.15,-5.28,-5.33,0.13,0.13,0.13
222.23,5.26,5.25,5.14,5.14,-5.14,-5.27,-5.38,0.12,0.12,0.11
224.45,5.23,5.23,5.13,5.13,-5.13,-5.26,-5.44,0.10,0.10,0.10
226.70,5.20,5.20,5.11,5.12,-5.12,-5.25,-5.49,0.08,0.08,0.08
228.96,5.18,5.17,5.11,5.10,-5.11,-5.24,-5.54,0.07,0.07,0.07
231.25,5.15,5.15,5.09,5.09,-5.09,-5.23,-5.58,0.05,0.05,0.05
233.57,5.12,5.12,5.08,5.08,-5.08,-5.22,-5.62,0.03,0.04,0.04
235.90,5.09,5.09,5.07,5.07,-5.07,-5.20,-5.66,0.02,0.02,0.02
238.26,5.07,5.06,5.06,5.06,-5.06,-5.19,-5.69,0.01,0.01,0.00
240.64,5.04,5.04,5.05,5.05,-5.04,-5.17,-5.71,-0.01,-0.01,-0.01
243.05,5.01,5.01,5.03,5.03,-5.03,-5.15,-5.72,-0.02,-0.02,-0.02
245.48,4.98,4.98,5.01,5.01,-5.01,-5.13,-5.73,-0.04,-0.04,-0.03
247.93,4.96,4.95,5.00,5.00,-5.00,-5.11,-5.73,-0.04,-0.05,-0.04
250.41,4.93,4.93,4.98,4.98,-4.99,-5.09,-5.72,-0.06,-0.06,-0.06
252.92,4.91,4.90,4.97,4.97,-4.97,-5.07,-5.71,-0.06,-0.07,-0.07
255.45,4.88,4.88,4.95,4.95,-4.96,-5.05,-5.68,-0.08,-0.08,-0.08
258.00,4.86,4.86,4.94,4.94,-4.94,-5.02,-5.66,-0.08,-0.08,-0.09
260.58,4.83,4.83,4.92,4.92,-4.92,-5.00,-5.62,-0.10,-0.09,-0.10
263.19,4.81,4.80,4.91,4.91,-4.91,-4.97,-5.58,-0.10,-0.10,-0.10
265.82,4.78,4.78,4.89,4.89,-4.89,-4.94,-5.53,-0.11,-0.11,-0.11
268.48,4.75,4.75,4.87,4.87,-4.87,-4.92,-5.47,-0.12,-0.12,-0.12
271.16,4.72,4.72,4.85,4.85,-4.85,-4.89,-5.41,-0.13,-0.13,-0.13
273.87,4.69,4.69,4.82,4.82,-4.83,-4.86,-5.35,-0.14,-0.14,-0.14
276.61,4.66,4.66,4.80,4.80,-4.80,-4.83,-5.28,-0.14,-0.14,-0.15
279.38,4.63,4.63,4.78,4.78,-4.78,-4.80,-5.20,-0.15,-0.15,-0.15
282.17,4.60,4.59,4.76,4.75,-4.75,-4.77,-5.12,-0.15,-0.15,-0.16
284.99,4.56,4.56,4.71,4.72,-4.72,-4.73,-5.04,-0.16,-0.16,-0.16
287.84,4.53,4.53,4.68,4.69,-4.69,-4.70,-4.96,-0.16,-0.16,-0.15
290.72,4.50,4.50,4.66,4.66,-4.66,-4.67,-4.88,-0.16,-0.16,-0.16
293.63,4.47,4.46,4.63,4.62,-4.62,-4.63,-4.79,-0.16,-0.16,-0.17
296.57,4.43,4.43,4.59,4.59,-4.59,-4.60,-4.71,-0.17,-0.16,-0.16
299.53,4.40,4.40,4.55,4.56,-4.56,-4.56,-4.62,-0.16,-0.16,-0.16
302.53,4.37,4.36,4.53,4.52,-4.53,-4.52,-4.53,-0.16,-0.16,-0.16
305.55,4.33,4.33,4.49,4.49,-4.49,-4.49,-4.45,-0.17,-0.16,-0.16
308.61,4.30,4.30,4.46,4.46,-4.46,-4.45,-4.36,-0.16,-0.16,-0.16
311.69,4.27,4.26,4.43,4.42,-4.42,-4.41,-4.28,-0.16,-0.16,-0.16
314.81,4.23,4.23,4.39,4.39,-4.39,-4.37,-4.19,-0.16,-0.16,-0.16
317.96,4.19,4.19,4.35,4.35,-4.35,-4.33,-4.11,-0.16,-0.16,-0.16
321.14,4.15,4.15,4.31,4.31,-4.31,-4.29,-4.03,-0.16,-0.16,-0.16
324.35,4.11,4.11,4.26,4.26,-4.26,-4.25,-3.95,-0.16,-0.16,-0.16
327.59,4.07,4.06,4.22,4.22,-4.22,-4.21,-3.88,-0.15,-0.16,-0.15
330.87,4.02,4.02,4.17,4.17,-4.17,-4.17,-3.80,-0.16,-0.15,-0.15
334.18,3.98,3.98,4.13,4.13,-4.13,-4.13,-3.73,-0.15,-0.15,-0.15
337.52,3.93,3.93,4.08,4.08,-4.08,-4.09,-3.66,-0.15,-0.15,-0.15
340.90,3.89,3.88,4.03,4.03,-4.03,-4.04,-3.59,-0.14,-0.14,-0.15
344.30,3.84,3.84,3.98,3.98,-3.98,-4.00,-3.53,-0.14,-0.14,-0.14
347.75,3.80,3.79,3.93,3.93,-3.92,-3.96,-3.47,-0.13,-0.13,-0.13
351.23,3.75,3.75,3.88,3.88,-3.87,-3.91,-3.41,-0.12,-0.12,-0.14
354.74,3.70,3.70,3.82,3.82,-3.82,-3.87,-3.35,-0.12,-0.12,-0.12
358.28,3.65,3.65,3.77,3.77,-3.76,-3.83,-3.30,-0.12,-0.12,-0.12
361.87,3.60,3.60,3.71,3.71,-3.72,-3.78,-3.25,-0.12,-0.12,-0.11
365.49,3.56,3.55,3.66,3.66,-3.67,-3.74,-3.20,-0.11,-0.12,-0.11
369.14,3.52,3.52,3.63,3.62,-3.63,-3.69,-3.15,-0.12,-0.12,-0.11
372.83,3.49,3.49,3.58,3.59,-3.60,-3.65,-3.11,-0.12,-0.11,-0.09
376.56,3.48,3.47,3.57,3.57,-3.58,-3.60,-3.07,-0.10,-0.10,-0.10
380.33,3.47,3.47,3.55,3.56,-3.56,-3.55,-3.03,-0.09,-0.09,-0.09
384.13,3.46,3.46,3.55,3.55,-3.54,-3.51,-3.00,-0.09,-0.08,-0.09
387.97,3.46,3.45,3.54,3.53,-3.53,-3.46,-2.96,-0.07,-0.07,-0.08
391.85,3.45,3.44,3.51,3.52,-3.51,-3.42,-2.93,-0.06,-0.06,-0.06
395.77,3.43,3.43,3.49,3.49,-3.49,-3.37,-2.90,-0.06,-0.06,-0.07
399.73,3.41,3.41,3.47,3.46,-3.46,-3.32,-2.87,-0.05,-0.05,-0.06
403.72,3.38,3.37,3.43,3.43,-3.42,-3.28,-2.84,-0.04,-0.05,-0.05
407.76,3.34,3.34,3.39,3.38,-3.38,-3.23,-2.82,-0.04,-0.04,-0.05
411.84,3.29,3.29,3.33,3.33,-3.33,-3.18,-2.79,-0.04,-0.04,-0.04
415.96,3.24,3.24,3.27,3.28,-3.28,-3.13,-2.77,-0.04,-0.04,-0.04
420.12,3.19,3.19,3.22,3.22,-3.23,-3.09,-2.75,-0.04,-0.04,-0.04
424.32,3.14,3.14,3.17,3.16,-3.17,-3.04,-2.73,-0.03,-0.03,-0.03
428.56,3.09,3.09,3.11,3.11,-3.11,-2.99,-2.71,-0.02,-0.02,-0.02
432.85,3.04,3.04,3.05,3.05,-3.05,-2.94,-2.69,-0.02,-0.02,-0.01
437.18,2.99,2.99,3.00,3.00,-2.99,-2.89,-2.67,-0.01,-0.01,-0.01
441.55,2.94,2.94,2.94,2.94,-2.94,-2.85,-2.65,0.00,0.00,-0.00
445.96,2.89,2.89,2.88,2.88,-2.88,-2.80,-2.63,0.01,0.01,0.00
450.42,2.84,2.84,2.81,2.82,-2.82,-2.75,-2.61,0.02,0.02,0.02
454.93,2.79,2.79,2.76,2.76,-2.76,-2.70,-2.59,0.03,0.03,0.03
459.48,2.74,2.74,2.70,2.70,-2.70,-2.65,-2.57,0.04,0.04,0.04
464.07,2.69,2.69,2.65,2.64,-2.64,-2.60,-2.55,0.04,0.04,0.04
468.71,2.64,2.64,2.59,2.59,-2.59,-2.55,-2.53,0.05,0.05,0.05
473.40,2.59,2.59,2.53,2.53,-2.53,-2.50,-2.50,0.06,0.06,0.06
478.13,2.54,2.54,2.47,2.47,-2.47,-2.45,-2.48,0.06,0.07,0.07
482.91,2.50,2.49,2.42,2.42,-2.42,-2.40,-2.45,0.08,0.07,0.08
487.74,2.45,2.45,2.36,2.36,-2.36,-2.35,-2.42,0.08,0.08,0.08
492.62,2.40,2.40,2.30,2.31,-2.31,-2.30,-2.39,0.09,0.10,0.09
497.55,2.36,2.35,2.25,2.25,-2.25,-2.25,-2.36,0.11,0.10,0.10
502.52,2.31,2.31,2.20,2.19,-2.19,-2.20,-2.32,0.12,0.12,0.11
507.55,2.26,2.26,2.13,2.13,-2.13,-2.15,-2.29,0.12,0.13,0.13
512.62,2.22,2.21,2.08,2.07,-2.08,-2.10,-2.25,0.14,0.14,0.14
517.75,2.17,2.17,2.02,2.02,-2.02,-2.05,-2.20,0.15,0.15,0.15
522.93,2.12,2.12,1.96,1.96,-1.96,-1.99,-2.16,0.16,0.16,0.16
528.16,2.07,2.07,1.90,1.90,-1.90,-1.94,-2.12,0.16,0.16,0.17
533.44,2.03,2.02,1.85,1.85,-1.85,-1.89,-2.07,0.18,0.18,0.18
538.77,1.98,1.98,1.80,1.80,-1.79,-1.84,-2.02,0.18,0.19,0.18
