frequency,raw,error,smoothed,error_smoothed,equalization,parametric_eq,equalized_raw,equalized_smoothed,target
20,-17.95,-18.62,-17.92,-18.59,6.00,2.86,-11.95,-11.92,0.67
21,-17.33,-18.00,-17.36,-18.03,6.00,3.29,-11.33,-11.36,0.67
22,-16.82,-17.49,-16.82,-17.49,6.00,3.76,-10.82,-10.82,0.67
23,-16.25,-16.92,-16.29,-16.96,6.00,4.26,-10.25,-10.29,0.67
24,-15.74,-16.41,-15.78,-16.45,6.00,4.79,-9.74,-9.78,0.67
25,-15.28,-15.95,-15.28,-15.95,6.00,5.35,-9.28,-9.28,0.67
26,-14.80,-15.47,-14.79,-15.47,6.00,5.90,-8.80,-8.79,0.67
27,-14.34,-15.01,-14.32,-14.99,6.00,6.43,-8.34,-8.32,0.67
28,-13.89,-14.56,-13.86,-14.54,6.00,6.91,-7.89,-7.86,0.67
29,-13.41,-14.08,-13.42,-14.09,6.00,7.29,-7.41,-7.42,0.67
30,-12.99,-13.66,-12.98,-13.65,6.00,7.57,-6.99,-6.98,0.67
31,-12.51,-13.18,-12.55,-13.22,6.00,7.70,-6.51,-6.55,0.67
32,-12.14,-12.81,-12.14,-12.81,6.00,7.71,-6.14,-6.14,0.67
33,-11.74,-12.41,-11.73,-12.40,6.00,7.59,-5.74,-5.73,0.67
34,-11.34,-12.01,-11.33,-12.00,6.00,7.39,-5.34,-5.33,0.67
35,-10.94,-11.61,-10.94,-11.62,6.00,7.13,-4.94,-4.94,0.67
36,-10.59,-11.26,-10.57,-11.24,6.00,6.83,-4.59,-4.57,0.67
37,-10.17,-10.84,-10.20,-10.87,6.00,6.52,-4.17,-4.20,0.67
38,-9.84,-10.51,-9.84,-10.51,6.00,6.22,-3.84,-3.84,0.67
39,-9.47,-10.14,-9.49,-10.16,6.00,5.93,-3.47,-3.49,0.67
40,-9.16,-9.83,-9.15,-9.82,6.00,5.66,-3.16,-3.15,0.67
41,-8.81,-9.48,-8.82,-9.49,6.00,5.41,-2.81,-2.82,0.67
42,-8.50,-9.17,-8.49,-9.17,6.00,5.19,-2.50,-2.49,0.67
43,-8.17,-8.84,-8.18,-8.85,6.00,4.99,-2.17,-2.18,0.67
44,-7.89,-8.56,-7.86,-8.53,6.00,4.82,-1.89,-1.86,0.67
45,-7.54,-8.21,-7.55,-8.22,6.00,4.67,-1.54,-1.55,0.67
46,-7.25,-7.92,-7.24,-7.92,6.00,4.55,-1.25,-1.24,0.67
47,-6.95,-7.62,-6.94,-7.61,6.00,4.44,-0.95,-0.94,0.67
48,-6.65,-7.32,-6.65,-7.32,6.00,4.34,-0.65,-0.65,0.67
49,-6.35,-7.02,-6.36,-7.03,6.00,4.27,-0.35,-0.36,0.67
50,-6.04,-6.71,-6.07,-6.74,6.00,4.20,-0.04,-0.07,0.67
51,-5.78,-6.45,-5.80,-6.47,5.96,4.15,0.18,0.16,0.67
52,-5.55,-6.22,-5.53,-6.20,5.88,4.10,0.33,0.35,0.67
53,-5.26,-5.93,-5.27,-5.94,5.76,4.06,0.49,0.49,0.67
54,-5.02,-5.69,-5.01,-5.68,5.60,4.03,0.58,0.58,0.67
55,-4.77,-5.44,-4.76,-5.43,5.41,3.99,0.64,0.64,0.67
56,-4.50,-5.17,-4.52,-5.19,5.19,3.96,0.69,0.67,0.67
57,-4.29,-4.96,-4.27,-4.94,4.94,3.92,0.65,0.67,0.67
58,-4.02,-4.69,-4.03,-4.70,4.70,3.88,0.68,0.67,0.67
59,-3.79,-4.46,-3.79,-4.46,4.46,3.83,0.67,0.67,0.67
60,-3.58,-4.25,-3.55,-4.23,4.23,3.78,0.64,0.67,0.67
61,-3.32,-3.99,-3.32,-3.99,3.99,3.72,0.67,0.67,0.67
62,-3.07,-3.74,-3.09,-3.76,3.76,3.65,0.69,0.67,0.67
63,-2.87,-3.54,-2.87,-3.54,3.54,3.57,0.67,0.67,0.67
64,-2.65,-3.32,-2.65,-3.32,3.32,3.49,0.67,0.67,0.67
65,-2.44,-3.11,-2.44,-3.11,3.11,3.40,0.67,0.67,0.67
66,-2.23,-2.90,-2.23,-2.91,2.91,3.30,0.67,0.67,0.67
67,-2.02,-2.69,-2.04,-2.71,2.71,3.19,0.69,0.67,0.67
68,-1.84,-2.51,-1.85,-2.52,2.52,3.08,0.68,0.67,0.67
69,-1.67,-2.34,-1.67,-2.34,2.34,2.97,0.67,0.67,0.67
70,-1.50,-2.17,-1.49,-2.16,2.16,2.85,0.66,0.67,0.67
71,-1.32,-1.99,-1.32,-1.99,1.99,2.73,0.67,0.67,0.67
72,-1.14,-1.81,-1.16,-1.83,1.83,2.61,0.69,0.67,0.67
73,-1.02,-1.69,-1.00,-1.67,1.67,2.49,0.65,0.67,0.67
74,-0.86,-1.53,-0.84,-1.51,1.51,2.37,0.65,0.67,0.67
75,-0.69,-1.36,-0.69,-1.36,1.36,2.24,0.67,0.67,0.67
76,-0.52,-1.19,-0.55,-1.22,1.22,2.12,0.70,0.67,0.67
77,-0.40,-1.07,-0.41,-1.08,1.08,2.00,0.68,0.67,0.67
78,-0.26,-0.93,-0.27,-0.95,0.95,1.88,0.68,0.67,0.67
79,-0.16,-0.83,-0.15,-0.82,0.82,1.76,0.66,0.67,0.67
80,-0.02,-0.69,-0.03,-0.70,0.70,1.65,0.68,0.67,0.67
81,0.08,-0.59,0.09,-0.58,0.58,1.53,0.66,0.67,0.67
82,0.20,-0.47,0.21,-0.47,0.47,1.42,0.66,0.67,0.67
83,0.33,-0.34,0.32,-0.35,0.35,1.31,0.68,0.67,0.67
84,0.41,-0.26,0.42,-0.25,0.25,1.20,0.66,0.67,0.67
85,0.53,-0.14,0.53,-0.15,0.15,1.09,0.67,0.67,0.67
86,0.61,-0.06,0.62,-0.05,0.05,0.99,0.66,0.67,0.67
87,0.71,0.04,0.72,0.05,-0.05,0.88,0.66,0.67,0.67
88,0.84,0.17,0.80,0.13,-0.13,0.78,0.71,0.67,0.67
89,0.90,0.23,0.88,0.21,-0.21,0.68,0.69,0.67,0.67
90,0.96,0.29,0.96,0.29,-0.29,0.58,0.67,0.67,0.67
91,1.01,0.34,1.03,0.36,-0.36,0.48,0.65,0.67,0.67
92,1.09,0.42,1.09,0.42,-0.42,0.39,0.67,0.67,0.67
93,1.16,0.49,1.15,0.48,-0.48,0.30,0.68,0.67,0.67
94,1.21,0.54,1.21,0.54,-0.54,0.20,0.67,0.67,0.67
95,1.25,0.58,1.26,0.59,-0.59,0.11,0.66,0.67,0.67
96,1.33,0.66,1.31,0.64,-0.64,0.02,0.69,0.67,0.67
97,1.35,0.68,1.36,0.69,-0.69,-0.06,0.66,0.67,0.67
98,1.43,0.76,1.41,0.74,-0.74,-0.15,0.69,0.67,0.67
99,1.44,0.77,1.45,0.78,-0.78,-0.23,0.66,0.67,0.67
100,1.50,0.83,1.50,0.83,-0.83,-0.31,0.67,0.67,0.67
101,1.52,0.85,1.54,0.87,-0.87,-0.40,0.65,0.67,0.67
102,1.58,0.91,1.59,0.92,-0.92,-0.47,0.66,0.67,0.67
104,1.64,0.97,1.63,0.96,-0.96,-0.63,0.68,0.67,0.67
105,1.68,1.01,1.66,0.99,-0.99,-0.70,0.69,0.67,0.67
106,1.70,1.03,1.70,1.02,-1.02,-0.77,0.67,0.67,0.67
107,1.74,1.07,1.72,1.05,-1.05,-0.84,0.69,0.67,0.67
108,1.75,1.08,1.75,1.08,-1.08,-0.90,0.67,0.67,0.67
109,1.75,1.08,1.77,1.10,-1.10,-0.97,0.65,0.67,0.67
110,1.80,1.13,1.79,1.11,-1.11,-1.03,0.68,0.67,0.67
111,1.80,1.13,1.80,1.13,-1.13,-1.09,0.67,0.67,0.67
112,1.81,1.14,1.81,1.14,-1.14,-1.14,0.67,0.67,0.67
113,1.82,1.15,1.83,1.16,-1.16,-1.20,0.66,0.67,0.67
114,1.84,1.17,1.84,1.17,-1.17,-1.25,0.67,0.67,0.67
115,1.84,1.17,1.85,1.18,-1.18,-1.29,0.66,0.67,0.67
117,1.83,1.16,1.86,1.19,-1.19,-1.38,0.64,0.67,0.67
118,1.90,1.23,1.86,1.19,-1.19,-1.41,0.71,0.67,0.67
119,1.90,1.23,1.87,1.20,-1.20,-1.45,0.70,0.67,0.67
120,1.87,1.20,1.87,1.20,-1.20,-1.48,0.67,0.67,0.67
121,1.83,1.16,1.87,1.20,-1.20,-1.51,0.63,0.67,0.67
123,1.85,1.18,1.86,1.19,-1.19,-1.55,0.66,0.67,0.67
124,1.87,1.20,1.85,1.18,-1.18,-1.57,0.69,0.67,0.67
125,1.86,1.19,1.85,1.17,-1.17,-1.58,0.68,0.67,0.67
126,1.85,1.18,1.83,1.16,-1.16,-1.60,0.69,0.67,0.67
128,1.83,1.16,1.82,1.15,-1.15,-1.61,0.68,0.67,0.67
129,1.79,1.12,1.81,1.14,-1.14,-1.61,0.65,0.67,0.67
130,1.76,1.09,1.79,1.12,-1.12,-1.61,0.64,0.67,0.67
131,1.78,1.11,1.78,1.11,-1.11,-1.61,0.67,0.67,0.67
133,1.80,1.13,1.76,1.09,-1.09,-1.60,0.71,0.67,0.67
134,1.77,1.10,1.75,1.08,-1.08,-1.59,0.69,0.67,0.67
135,1.73,1.06,1.73,1.06,-1.06,-1.58,0.67,0.67,0.67
137,1.71,1.04,1.71,1.04,-1.04,-1.56,0.67,0.67,0.67
138,1.68,1.01,1.70,1.03,-1.03,-1.54,0.65,0.67,0.67
140,1.69,1.02,1.69,1.02,-1.02,-1.50,0.67,0.67,0.67
141,1.66,0.99,1.68,1.01,-1.01,-1.48,0.65,0.67,0.67
142,1.67,1.00,1.68,1.01,-1.01,-1.46,0.66,0.67,0.67
144,1.68,1.01,1.67,1.00,-1.00,-1.42,0.68,0.67,0.67
145,1.68,1.01,1.67,1.00,-1.00,-1.40,0.68,0.67,0.67
147,1.68,1.01,1.67,0.99,-0.99,-1.35,0.68,0.67,0.67
148,1.67,1.00,1.66,0.99,-0.99,-1.32,0.68,0.67,0.67
150,1.66,0.99,1.65,0.98,-0.98,-1.27,0.68,0.67,0.67
151,1.64,0.97,1.64,0.97,-0.97,-1.25,0.67,0.67,0.67
153,1.63,0.96,1.63,0.96,-0.96,-1.20,0.67,0.67,0.67
154,1.62,0.95,1.62,0.95,-0.95,-1.17,0.67,0.67,0.67
156,1.61,0.94,1.61,0.94,-0.94,-1.12,0.67,0.67,0.67
157,1.60,0.93,1.60,0.93,-0.93,-1.09,0.67,0.67,0.67
159,1.58,0.91,1.58,0.91,-0.91,-1.04,0.67,0.67,0.67
160,1.56,0.89,1.57,0.90,-0.90,-1.02,0.66,0.67,0.67
162,1.56,0.89,1.55,0.88,-0.88,-0.97,0.68,0.67,0.67
164,1.54,0.87,1.53,0.86,-0.86,-0.92,0.68,0.67,0.67
165,1.52,0.85,1.51,0.84,-0.84,-0.89,0.68,0.67,0.67
167,1.49,0.82,1.48,0.81,-0.81,-0.85,0.68,0.67,0.67
169,1.45,0.78,1.45,0.78,-0.78,-0.80,0.67,0.67,0.67
170,1.42,0.75,1.42,0.75,-0.75,-0.78,0.67,0.67,0.67
172,1.38,0.71,1.38,0.71,-0.71,-0.73,0.67,0.67,0.67
174,1.34,0.67,1.34,0.67,-0.67,-0.69,0.67,0.67,0.67
175,1.31,0.64,1.31,0.64,-0.64,-0.67,0.67,0.67,0.67
177,1.27,0.60,1.27,0.60,-0.60,-0.63,0.67,0.67,0.67
179,1.24,0.57,1.24,0.57,-0.57,-0.59,0.67,0.67,0.67
181,1.20,0.53,1.21,0.54,-0.54,-0.55,0.66,0.67,0.67
183,1.17,0.50,1.18,0.51,-0.51,-0.51,0.66,0.67,0.67
184,1.14,0.47,1.16,0.49,-0.49,-0.49,0.65,0.67,0.67
186,1.13,0.46,1.13,0.46,-0.46,-0.46,0.67,0.67,0.67
188,1.13,0.46,1.11,0.44,-0.44,-0.42,0.69,0.67,0.67
190,1.10,0.43,1.09,0.42,-0.42,-0.39,0.68,0.67,0.67
192,1.08,0.41,1.07,0.40,-0.40,-0.36,0.68,0.67,0.67
194,1.05,0.38,1.04,0.37,-0.37,-0.32,0.68,0.67,0.67
196,1.02,0.35,1.02,0.35,-0.35,-0.29,0.67,0.67,0.67
198,0.99,0.32,0.99,0.32,-0.32,-0.26,0.67,0.67,0.67
200,0.96,0.29,0.96,0.29,-0.29,-0.23,0.67,0.67,0.67
202,0.93,0.26,0.93,0.26,-0.26,-0.21,0.67,0.67,0.67
204,0.90,0.23,0.91,0.23,-0.23,-0.18,0.66,0.67,0.67
206,0.88,0.21,0.88,0.21,-0.21,-0.15,0.67,0.67,0.67
208,0.85,0.18,0.86,0.19,-0.19,-0.13,0.66,0.67,0.67
210,0.83,0.16,0.84,0.17,-0.17,-0.10,0.66,0.67,0.67
212,0.82,0.15,0.82,0.15,-0.15,-0.08,0.67,0.67,0.67
214,0.80,0.13,0.80,0.13,-0.13,-0.05,0.67,0.67,0.67
216,0.81,0.14,0.78,0.11,-0.11,-0.03,0.70,0.67,0.67
218,0.78,0.11,0.77,0.10,-0.10,-0.01,0.68,0.67,0.67
221,0.76,0.09,0.75,0.08,-0.08,0.02,0.68,0.67,0.67
223,0.71,0.04,0.73,0.06,-0.06,0.04,0.65,0.67,0.67
225,0.69,0.02,0.71,0.04,-0.04,0.06,0.65,0.67,0.67
227,0.68,0.01,0.69,0.02,-0.02,0.08,0.66,0.67,0.67
229,0.67,-0.00,0.66,-0.01,0.01,0.10,0.68,0.67,0.67
232,0.65,-0.02,0.64,-0.03,0.03,0.12,0.68,0.67,0.67
234,0.64,-0.03,0.61,-0.06,0.06,0.14,0.70,0.67,0.67
236,0.62,-0.05,0.59,-0.08,0.08,0.15,0.70,0.67,0.67
239,0.55,-0.12,0.56,-0.11,0.11,0.18,0.66,0.67,0.67
241,0.50,-0.17,0.54,-0.13,0.13,0.19,0.63,0.67,0.67
244,0.50,-0.17,0.52,-0.15,0.15,0.21,0.65,0.67,0.67
246,0.49,-0.18,0.50,-0.17,0.17,0.22,0.66,0.67,0.67
248,0.49,-0.18,0.48,-0.19,0.19,0.23,0.68,0.67,0.67
251,0.49,-0.18,0.46,-0.21,0.21,0.25,0.70,0.67,0.67
253,0.47,-0.20,0.45,-0.22,0.22,0.26,0.69,0.67,0.67
256,0.42,-0.25,0.44,-0.23,0.23,0.27,0.65,0.67,0.67
259,0.41,-0.26,0.43,-0.24,0.24,0.29,0.65,0.67,0.67
261,0.41,-0.26,0.42,-0.26,0.26,0.30,0.66,0.67,0.67
264,0.41,-0.26,0.40,-0.27,0.27,0.31,0.68,0.67,0.67
266,0.41,-0.26,0.39,-0.28,0.28,0.32,0.69,0.67,0.67
269,0.41,-0.26,0.38,-0.30,0.30,0.33,0.70,0.67,0.67
272,0.36,-0.31,0.36,-0.31,0.31,0.34,0.67,0.67,0.67
274,0.31,-0.36,0.35,-0.33,0.33,0.34,0.63,0.67,0.67
277,0.31,-0.36,0.33,-0.34,0.34,0.35,0.65,0.67,0.67
280,0.31,-0.36,0.31,-0.36,0.36,0.36,0.67,0.67,0.67
283,0.31,-0.36,0.30,-0.37,0.37,0.37,0.68,0.67,0.67
286,0.31,-0.36,0.28,-0.39,0.39,0.37,0.70,0.67,0.67
288,0.29,-0.38,0.26,-0.41,0.41,0.38,0.70,0.67,0.67
291,0.25,-0.42,0.25,-0.43,0.43,0.39,0.67,0.67,0.67
294,0.21,-0.46,0.23,-0.44,0.44,0.39,0.65,0.67,0.67
297,0.19,-0.48,0.22,-0.46,0.46,0.40,0.64,0.67,0.67
300,0.19,-0.48,0.20,-0.47,0.47,0.41,0.66,0.67,0.67
303,0.19,-0.48,0.19,-0.48,0.48,0.41,0.67,0.67,0.67
306,0.19,-0.48,0.19,-0.49,0.49,0.42,0.67,0.67,0.67
309,0.19,-0.48,0.18,-0.49,0.49,0.43,0.68,0.67,0.67
312,0.19,-0.48,0.17,-0.50,0.50,0.43,0.69,0.67,0.67
316,0.18,-0.49,0.16,-0.51,0.51,0.44,0.69,0.67,0.67
319,0.15,-0.52,0.15,-0.52,0.52,0.45,0.67,0.67,0.67
322,0.14,-0.53,0.14,-0.53,0.53,0.46,0.67,0.67,0.67
325,0.12,-0.55,0.13,-0.54,0.54,0.46,0.66,0.67,0.67
328,0.12,-0.55,0.13,-0.55,0.55,0.47,0.66,0.67,0.67
332,0.11,-0.56,0.12,-0.55,0.55,0.48,0.66,0.67,0.67
335,0.12,-0.55,0.12,-0.55,0.55,0.49,0.67,0.67,0.67
338,0.12,-0.55,0.12,-0.55,0.55,0.50,0.67,0.67,0.67
342,0.12,-0.55,0.12,-0.55,0.55,0.51,0.67,0.67,0.67
345,0.14,-0.53,0.13,-0.54,0.54,0.52,0.68,0.67,0.67
349,0.15,-0.52,0.13,-0.54,0.54,0.53,0.69,0.67,0.67
352,0.15,-0.52,0.13,-0.54,0.54,0.54,0.69,0.67,0.67
356,0.11,-0.56,0.13,-0.54,0.54,0.55,0.65,0.67,0.67
359,0.11,-0.56,0.12,-0.55,0.55,0.56,0.66,0.67,0.67
363,0.14,-0.53,0.12,-0.55,0.55,0.57,0.69,0.67,0.67
366,0.11,-0.56,0.12,-0.55,0.55,0.58,0.66,0.67,0.67
370,0.11,-0.56,0.11,-0.56,0.56,0.60,0.67,0.67,0.67
374,0.11,-0.56,0.11,-0.56,0.56,0.61,0.67,0.67,0.67
377,0.11,-0.56,0.11,-0.56,0.56,0.62,0.67,0.67,0.67
381,0.11,-0.56,0.11,-0.56,0.56,0.63,0.67,0.67,0.67
385,0.11,-0.56,0.11,-0.56,0.56,0.65,0.67,0.67,0.67
389,0.11,-0.56,0.11,-0.56,0.56,0.66,0.66,0.67,0.67
393,0.11,-0.56,0.11,-0.56,0.56,0.68,0.66,0.67,0.67
397,0.11,-0.56,0.11,-0.56,0.56,0.70,0.67,0.67,0.67
401,0.11,-0.56,0.10,-0.56,0.56,0.71,0.67,0.67,0.67
405,0.11,-0.56,0.09,-0.57,0.57,0.73,0.68,0.67,0.67
409,0.08,-0.59,0.08,-0.58,0.58,0.74,0.66,0.67,0.67
413,0.07,-0.60,0.06,-0.60,0.60,0.76,0.67,0.67,0.67
417,0.06,-0.61,0.04,-0.62,0.62,0.78,0.68,0.67,0.67
421,0.03,-0.64,0.02,-0.64,0.64,0.79,0.67,0.67,0.67
425,-0.01,-0.68,-0.00,-0.67,0.67,0.81,0.66,0.67,0.67
430,-0.05,-0.72,-0.03,-0.69,0.69,0.83,0.64,0.67,0.67
434,-0.05,-0.72,-0.05,-0.72,0.72,0.85,0.67,0.67,0.67
438,-0.05,-0.72,-0.07,-0.74,0.74,0.86,0.69,0.67,0.67
443,-0.07,-0.75,-0.08,-0.76,0.76,0.88,0.69,0.68,0.68
447,-0.10,-0.78,-0.10,-0.78,0.78,0.90,0.68,0.68,0.68
451,-0.13,-0.82,-0.11,-0.79,0.79,0.91,0.66,0.68,0.68
456,-0.12,-0.81,-0.11,-0.80,0.80,0.93,0.68,0.69,0.69
460,-0.12,-0.82,-0.11,-0.81,0.81,0.95,0.69,0.70,0.70
465,-0.11,-0.82,-0.12,-0.82,0.82,0.96,0.71,0.70,0.70
470,-0.10,-0.81,-0.11,-0.83,0.83,0.98,0.73,0.71,0.71
474,-0.10,-0.82,-0.11,-0.83,0.83,1.00,0.73,0.72,0.72
479,-0.10,-0.83,-0.11,-0.84,0.84,1.01,0.74,0.73,0.73
484,-0.11,-0.85,-0.11,-0.85,0.85,1.03,0.74,0.74,0.74
489,-0.11,-0.87,-0.10,-0.86,0.86,1.04,0.75,0.76,0.76
494,-0.10,-0.87,-0.10,-0.87,0.87,1.06,0.77,0.77,0.77
499,-0.11,-0.89,-0.10,-0.88,0.88,1.07,0.77,0.78,0.78
504,-0.10,-0.90,-0.10,-0.90,0.90,1.09,0.80,0.80,0.80
509,-0.09,-0.91,-0.09,-0.91,0.91,1.10,0.82,0.82,0.82
514,-0.07,-0.90,-0.09,-0.92,0.92,1.11,0.85,0.83,0.83
519,-0.07,-0.92,-0.09,-0.94,0.94,1.13,0.87,0.85,0.85
524,-0.08,-0.95,-0.08,-0.95,0.95,1.14,0.87,0.87,0.87
529,-0.09,-0.98,-0.08,-0.97,0.97,1.15,0.88,0.89,0.89
535,-0.09,-1.01,-0.07,-0.98,0.98,1.17,0.89,0.91,0.91
540,-0.07,-1.01,-0.06,-1.00,1.00,1.18,0.92,0.94,0.94
545,-0.05,-1.01,-0.05,-1.01,1.01,1.19,0.96,0.96,0.96
551,-0.03,-1.02,-0.03,-1.02,1.02,1.20,0.99,0.99,0.99
556,-0.01,-1.02,-0.02,-1.03,1.03,1.22,1.02,1.01,1.01
562,0.02,-1.02,-0.01,-1.05,1.05,1.23,1.07,1.04,1.04
568,-0.00,-1.06,-0.01,-1.07,1.07,1.24,1.07,1.06,1.06
573,-0.00,-1.09,-0.00,-1.09,1.09,1.26,1.09,1.09,1.09
579,-0.04,-1.16,0.00,-1.12,1.12,1.27,1.08,1.12,1.12
585,-0.01,-1.16,0.00,-1.15,1.15,1.29,1.13,1.15,1.15
591,0.02,-1.16,-0.00,-1.18,1.18,1.30,1.20,1.18,1.18
596,0.04,-1.17,-0.01,-1.21,1.21,1.32,1.25,1.21,1.21
602,-0.05,-1.29,-0.01,-1.25,1.25,1.33,1.20,1.24,1.24
608,-0.02,-1.29,-0.03,-1.30,1.30,1.35,1.27,1.27,1.27
615,-0.02,-1.32,-0.04,-1.34,1.34,1.37,1.32,1.30,1.30
621,-0.07,-1.41,-0.06,-1.39,1.39,1.39,1.32,1.33,1.33
627,-0.07,-1.44,-0.08,-1.45,1.45,1.41,1.38,1.37,1.37
633,-0.12,-1.52,-0.10,-1.50,1.50,1.43,1.38,1.40,1.40
639,-0.14,-1.58,-0.13,-1.56,1.56,1.45,1.42,1.44,1.44
646,-0.12,-1.59,-0.16,-1.63,1.63,1.48,1.51,1.47,1.47
652,-0.19,-1.70,-0.19,-1.69,1.69,1.50,1.50,1.51,1.51
659,-0.20,-1.74,-0.22,-1.76,1.76,1.53,1.56,1.54,1.54
665,-0.28,-1.86,-0.25,-1.82,1.82,1.56,1.54,1.58,1.58
672,-0.26,-1.87,-0.28,-1.89,1.89,1.59,1.63,1.61,1.61
679,-0.33,-1.98,-0.31,-1.96,1.96,1.62,1.63,1.65,1.65
686,-0.35,-2.04,-0.34,-2.03,2.03,1.65,1.68,1.69,1.69
692,-0.37,-2.10,-0.38,-2.10,2.10,1.68,1.73,1.72,1.72
699,-0.40,-2.16,-0.41,-2.17,2.17,1.72,1.77,1.76,1.76
706,-0.43,-2.23,-0.45,-2.25,2.25,1.75,1.82,1.80,1.80
713,-0.48,-2.32,-0.49,-2.32,2.32,1.79,1.84,1.84,1.84
721,-0.52,-2.40,-0.52,-2.40,2.40,1.84,1.88,1.88,1.88
728,-0.57,-2.49,-0.56,-2.48,2.48,1.87,1.91,1.91,1.91
735,-0.61,-2.56,-0.60,-2.55,2.55,1.92,1.94,1.95,1.95
742,-0.64,-2.63,-0.63,-2.63,2.63,1.96,1.98,1.99,1.99
750,-0.66,-2.69,-0.67,-2.70,2.70,2.00,2.04,2.03,2.03
757,-0.68,-2.75,-0.70,-2.77,2.77,2.05,2.08,2.07,2.07
765,-0.75,-2.85,-0.73,-2.83,2.83,2.10,2.08,2.10,2.10
773,-0.76,-2.90,-0.75,-2.89,2.89,2.15,2.13,2.14,2.14
780,-0.77,-2.95,-0.77,-2.95,2.95,2.19,2.18,2.18,2.18
788,-0.79,-3.00,-0.79,-3.01,3.01,2.24,2.21,2.21,2.21
796,-0.80,-3.05,-0.81,-3.06,3.06,2.29,2.26,2.25,2.25
804,-0.82,-3.10,-0.83,-3.11,3.11,2.34,2.29,2.28,2.28
812,-0.84,-3.16,-0.84,-3.16,3.16,2.39,2.32,2.32,2.32
820,-0.86,-3.21,-0.85,-3.20,3.20,2.44,2.34,2.35,2.35
828,-0.87,-3.25,-0.86,-3.24,3.24,2.49,2.37,2.38,2.38
837,-0.85,-3.26,-0.87,-3.28,3.28,2.55,2.43,2.41,2.41
845,-0.85,-3.30,-0.87,-3.31,3.31,2.60,2.46,2.44,2.44
853,-0.87,-3.35,-0.86,-3.33,3.33,2.64,2.46,2.48,2.48
862,-0.86,-3.37,-0.84,-3.35,3.35,2.69,2.49,2.51,2.51
871,-0.83,-3.37,-0.82,-3.36,3.36,2.74,2.53,2.54,2.54
879,-0.80,-3.37,-0.80,-3.36,3.36,2.78,2.56,2.56,2.56
888,-0.77,-3.36,-0.76,-3.36,3.36,2.82,2.58,2.59,2.59
897,-0.71,-3.33,-0.72,-3.34,3.34,2.86,2.63,2.62,2.62
906,-0.65,-3.30,-0.67,-3.32,3.32,2.90,2.67,2.65,2.65
915,-0.62,-3.30,-0.62,-3.30,3.30,2.93,2.68,2.68,2.68
924,-0.58,-3.28,-0.57,-3.27,3.27,2.95,2.69,2.70,2.70
933,-0.53,-3.26,-0.51,-3.24,3.24,2.98,2.71,2.73,2.73
943,-0.42,-3.18,-0.44,-3.20,3.20,3.00,2.78,2.76,2.76
952,-0.37,-3.16,-0.37,-3.16,3.16,3.01,2.79,2.78,2.78
962,-0.31,-3.12,-0.30,-3.11,3.11,3.02,2.80,2.81,2.81
971,-0.23,-3.07,-0.23,-3.07,3.07,3.02,2.84,2.84,2.84
981,-0.15,-3.02,-0.16,-3.02,3.02,3.02,2.87,2.86,2.86
991,-0.08,-2.97,-0.08,-2.97,2.97,3.01,2.89,2.89,2.89
1001,0.01,-2.91,-0.01,-2.93,2.93,3.00,2.93,2.92,2.92
1011,0.07,-2.88,0.07,-2.88,2.88,2.98,2.95,2.94,2.94
1021,0.15,-2.82,0.15,-2.83,2.83,2.95,2.97,2.97,2.97
1031,0.20,-2.80,0.23,-2.77,2.77,2.92,2.97,3.00,3.00
1041,0.33,-2.70,0.31,-2.72,2.72,2.89,3.05,3.03,3.03
1052,0.39,-2.67,0.40,-2.66,2.66,2.84,3.05,3.06,3.06
1062,0.49,-2.60,0.49,-2.60,2.60,2.79,3.09,3.08,3.08
1073,0.59,-2.52,0.58,-2.53,2.53,2.74,3.12,3.11,3.11
1084,0.67,-2.47,0.68,-2.46,2.46,2.68,3.13,3.14,3.14
1094,0.79,-2.38,0.78,-2.39,2.39,2.62,3.18,3.17,3.17
1105,0.88,-2.32,0.89,-2.31,2.31,2.55,3.19,3.20,3.20
1116,1.01,-2.22,1.00,-2.23,2.23,2.48,3.24,3.23,3.23
1128,1.11,-2.15,1.12,-2.14,2.14,2.40,3.25,3.26,3.26
1139,1.25,-2.04,1.24,-2.05,2.05,2.33,3.30,3.29,3.29
1150,1.35,-1.97,1.36,-1.97,1.97,2.25,3.32,3.32,3.32
1162,1.50,-1.86,1.48,-1.88,1.88,2.16,3.38,3.35,3.35
1173,1.61,-1.78,1.60,-1.79,1.79,2.08,3.39,3.39,3.39
1185,1.73,-1.69,1.72,-1.69,1.69,1.99,3.42,3.42,3.42
1197,1.85,-1.60,1.85,-1.60,1.60,1.90,3.45,3.45,3.45
1209,1.95,-1.53,1.98,-1.50,1.50,1.81,3.45,3.48,3.48
1221,2.12,-1.40,2.12,-1.40,1.40,1.72,3.52,3.52,3.52
1233,2.25,-1.30,2.25,-1.30,1.30,1.63,3.55,3.55,3.55
1246,2.39,-1.19,2.39,-1.19,1.19,1.53,3.58,3.58,3.58
1258,2.54,-1.08,2.54,-1.08,1.08,1.44,3.62,3.62,3.62
1271,2.72,-0.93,2.68,-0.97,0.97,1.34,3.69,3.65,3.65
1283,2.82,-0.87,2.83,-0.86,0.86,1.26,3.67,3.69,3.69
1296,2.96,-0.76,2.98,-0.74,0.74,1.16,3.70,3.72,3.72
1309,3.13,-0.63,3.13,-0.62,0.62,1.06,3.75,3.76,3.76
1322,3.30,-0.49,3.29,-0.50,0.50,0.97,3.80,3.79,3.79
1335,3.45,-0.38,3.45,-0.38,0.38,0.88,3.83,3.83,3.83
1349,3.59,-0.27,3.61,-0.26,0.26,0.78,3.85,3.86,3.86
1362,3.76,-0.14,3.77,-0.13,0.13,0.69,3.89,3.90,3.90
1376,3.93,-0.01,3.93,-0.01,0.01,0.59,3.94,3.94,3.94
1390,4.11,0.13,4.09,0.12,-0.12,0.49,3.99,3.98,3.98
1404,4.28,0.27,4.25,0.24,-0.24,0.40,4.04,4.01,4.01
1418,4.42,0.37,4.41,0.36,-0.36,0.31,4.06,4.05,4.05
1432,4.54,0.45,4.57,0.48,-0.48,0.21,4.06,4.09,4.09
1446,4.72,0.59,4.73,0.60,-0.60,0.12,4.12,4.13,4.13
1461,4.89,0.72,4.89,0.72,-0.72,0.03,4.17,4.17,4.17
1475,5.07,0.86,5.04,0.83,-0.83,-0.06,4.24,4.21,4.21
1490,5.21,0.96,5.20,0.95,-0.95,-0.16,4.26,4.25,4.25
1505,5.32,1.03,5.35,1.06,-1.06,-0.25,4.26,4.29,4.29
1520,5.50,1.17,5.50,1.16,-1.16,-0.34,4.33,4.33,4.33
1535,5.65,1.28,5.64,1.27,-1.27,-0.43,4.38,4.37,4.37
1550,5.79,1.37,5.79,1.37,-1.37,-0.52,4.42,4.42,4.42
1566,5.91,1.45,5.93,1.47,-1.47,-0.61,4.44,4.46,4.46
1582,6.08,1.58,6.06,1.56,-1.56,-0.70,4.52,4.50,4.50
1597,6.20,1.65,6.19,1.65,-1.65,-0.79,4.55,4.54,4.54
1613,6.33,1.74,6.32,1.74,-1.74,-0.88,4.59,4.59,4.59
1629,6.42,1.79,6.45,1.82,-1.82,-0.96,4.60,4.63,4.63
1646,6.59,1.91,6.57,1.89,-1.89,-1.05,4.70,4.68,4.68
1662,6.69,1.97,6.69,1.97,-1.97,-1.13,4.72,4.72,4.72
1679,6.81,2.04,6.80,2.03,-2.03,-1.22,4.78,4.77,4.77
1696,6.90,2.09,6.91,2.10,-2.10,-1.30,4.80,4.81,4.81
1713,7.01,2.15,7.02,2.16,-2.16,-1.38,4.85,4.86,4.86
1730,7.11,2.20,7.12,2.21,-2.21,-1.46,4.90,4.91,4.91
1747,7.25,2.29,7.21,2.26,-2.26,-1.53,4.99,4.96,4.96
1764,7.30,2.29,7.31,2.30,-2.30,-1.60,5.00,5.01,5.01
1782,7.39,2.33,7.40,2.34,-2.34,-1.67,5.05,5.06,5.06
1800,7.49,2.38,7.48,2.38,-2.38,-1.74,5.11,5.11,5.11
1818,7.56,2.40,7.57,2.40,-2.40,-1.80,5.15,5.16,5.16
1836,7.64,2.42,7.65,2.43,-2.43,-1.86,5.21,5.22,5.22
1854,7.73,2.45,7.72,2.45,-2.45,-1.92,5.28,5.28,5.28
1873,7.81,2.47,7.79,2.46,-2.46,-1.97,5.35,5.34,5.34
1892,7.87,2.47,7.86,2.46,-2.46,-2.01,5.41,5.40,5.40
1911,7.94,2.47,7.93,2.47,-2.47,-2.05,5.47,5.47,5.47
1930,7.99,2.45,8.00,2.46,-2.46,-2.09,5.53,5.54,5.54
1949,8.05,2.44,8.07,2.46,-2.46,-2.12,5.59,5.61,5.61
1969,8.13,2.44,8.14,2.45,-2.45,-2.14,5.68,5.69,5.69
1988,8.22,2.44,8.22,2.44,-2.44,-2.16,5.78,5.78,5.78
2008,8.31,2.44,8.29,2.42,-2.42,-2.17,5.89,5.87,5.87
