frequency,raw,error,smoothed,error_smoothed,equalization,parametric_eq,fixed_band_eq,equalized_raw,equalized_smoothed,target
20.00,4.46,-0.21,4.46,-0.22,0.23,0.19,-0.34,4.69,4.68,4.68
20.20,4.47,-0.21,4.48,-0.20,0.20,0.17,-0.34,4.68,4.69,4.69
20.40,4.51,-0.18,4.51,-0.18,0.18,0.16,-0.35,4.69,4.69,4.70
20.61,4.55,-0.15,4.55,-0.16,0.15,0.13,-0.36,4.70,4.70,4.71
20.81,4.58,-0.12,4.59,-0.12,0.13,0.11,-0.37,4.71,4.71,4.71
21.02,4.62,-0.09,4.62,-0.09,0.10,0.09,-0.38,4.72,4.72,4.72
21.23,4.66,-0.06,4.66,-0.07,0.07,0.07,-0.39,4.73,4.73,4.73
21.44,4.69,-0.05,4.69,-0.05,0.04,0.05,-0.40,4.74,4.74,4.75
21.66,4.72,-0.02,4.73,-0.02,0.01,0.03,-0.41,4.74,4.75,4.75
21.87,4.77,0.02,4.77,0.01,-0.01,0.01,-0.42,4.76,4.75,4.75
22.09,4.80,0.05,4.80,0.05,-0.04,-0.01,-0.43,4.76,4.76,4.75
22.31,4.83,0.07,4.83,0.07,-0.07,-0.03,-0.44,4.76,4.76,4.76
22.54,4.86,0.10,4.87,0.10,-0.10,-0.06,-0.45,4.76,4.76,4.76
22.76,4.90,0.13,4.90,0.13,-0.13,-0.08,-0.47,4.77,4.77,4.77
22.99,4.94,0.17,4.94,0.17,-0.17,-0.10,-0.48,4.78,4.77,4.77
23.22,4.97,0.20,4.97,0.20,-0.19,-0.12,-0.49,4.78,4.78,4.77
23.45,5.00,0.22,5.00,0.23,-0.22,-0.15,-0.50,4.78,4.78,4.78
23.69,5.03,0.25,5.03,0.25,-0.25,-0.17,-0.52,4.78,4.78,4.78
23.92,5.06,0.28,5.06,0.28,-0.28,-0.19,-0.53,4.78,4.78,4.78
24.16,5.09,0.30,5.09,0.31,-0.31,-0.22,-0.54,4.79,4.79,4.79
24.40,5.12,0.33,5.13,0.33,-0.33,-0.24,-0.56,4.79,4.79,4.80
24.65,5.16,0.36,5.16,0.36,-0.36,-0.26,-0.57,4.80,4.80,4.80
24.89,5.18,0.39,5.19,0.39,-0.39,-0.29,-0.59,4.80,4.80,4.80
25.14,5.20,0.41,5.21,0.41,-0.41,-0.31,-0.60,4.79,4.80,4.80
25.39,5.24,0.45,5.23,0.44,-0.44,-0.34,-0.61,4.81,4.80,4.80
25.65,5.25,0.46,5.26,0.47,-0.46,-0.36,-0.63,4.79,4.80,4.79
25.91,5.29,0.50,5.29,0.49,-0.49,-0.39,-0.64,4.80,4.80,4.79
26.16,5.31,0.51,5.31,0.51,-0.52,-0.41,-0.66,4.80,4.80,4.80
26.43,5.33,0.53,5.34,0.54,-0.54,-0.44,-0.68,4.79,4.80,4.80
26.69,5.37,0.57,5.36,0.56,-0.57,-0.46,-0.69,4.81,4.80,4.80
26.96,5.38,0.58,5.39,0.59,-0.59,-0.49,-0.71,4.79,4.80,4.80
27.23,5.42,0.62,5.42,0.62,-0.62,-0.52,-0.72,4.81,4.80,4.80
27.50,5.44,0.65,5.44,0.64,-0.64,-0.54,-0.74,4.80,4.80,4.80
27.77,5.46,0.66,5.47,0.66,-0.66,-0.57,-0.76,4.80,4.80,4.81
28.05,5.49,0.69,5.49,0.68,-0.68,-0.60,-0.77,4.81,4.80,4.81
28.33,5.50,0.70,5.51,0.71,-0.71,-0.62,-0.79,4.80,4.81,4.80
28.62,5.54,0.74,5.53,0.73,-0.73,-0.65,-0.80,4.82,4.81,4.80
28.90,5.55,0.74,5.55,0.75,-0.75,-0.68,-0.82,4.81,4.81,4.81
29.19,5.57,0.76,5.58,0.77,-0.77,-0.70,-0.84,4.81,4.81,4.81
29.48,5.59,0.78,5.59,0.78,-0.79,-0.73,-0.85,4.81,4.81,4.81
29.78,5.61,0.81,5.61,0.80,-0.81,-0.76,-0.87,4.81,4.81,4.81
30.08,5.63,0.82,5.64,0.83,-0.83,-0.79,-0.88,4.81,4.81,4.82
30.38,5.65,0.85,5.65,0.85,-0.85,-0.82,-0.90,4.80,4.80,4.80
30.68,5.68,0.88,5.68,0.87,-0.87,-0.84,-0.91,4.81,4.80,4.80
30.99,5.68,0.88,5.69,0.89,-0.89,-0.87,-0.93,4.79,4.80,4.80
31.30,5.72,0.92,5.71,0.92,-0.91,-0.90,-0.94,4.81,4.80,4.80
31.61,5.72,0.93,5.73,0.94,-0.94,-0.93,-0.96,4.79,4.80,4.80
31.93,5.76,0.98,5.75,0.96,-0.96,-0.96,-0.97,4.80,4.79,4.78
32.24,5.76,0.97,5.76,0.98,-0.98,-0.99,-0.99,4.78,4.78,4.79
32.57,5.76,0.98,5.78,1.00,-1.00,-1.02,-1.00,4.76,4.78,4.78
32.89,5.81,1.04,5.80,1.02,-1.02,-1.05,-1.02,4.79,4.78,4.78
33.22,5.81,1.04,5.82,1.04,-1.04,-1.08,-1.03,4.77,4.78,4.78
33.55,5.83,1.06,5.83,1.06,-1.06,-1.10,-1.05,4.77,4.77,4.77
33.89,5.85,1.08,5.85,1.08,-1.08,-1.13,-1.06,4.77,4.77,4.77
34.23,5.85,1.10,5.86,1.10,-1.10,-1.16,-1.08,4.75,4.76,4.76
34.57,5.88,1.13,5.87,1.12,-1.12,-1.19,-1.10,4.76,4.75,4.75
34.92,5.89,1.15,5.89,1.14,-1.15,-1.22,-1.11,4.75,4.74,4.74
35.27,5.89,1.14,5.91,1.17,-1.17,-1.25,-1.13,4.73,4.74,4.75
35.62,5.93,1.21,5.92,1.19,-1.19,-1.28,-1.14,4.74,4.73,4.73
35.97,5.94,1.22,5.93,1.21,-1.21,-1.31,-1.16,4.73,4.72,4.72
36.33,5.94,1.23,5.95,1.24,-1.24,-1.34,-1.18,4.70,4.71,4.71
36.70,5.94,1.25,5.96,1.26,-1.26,-1.37,-1.20,4.68,4.70,4.70
37.06,5.98,1.30,5.97,1.29,-1.29,-1.41,-1.22,4.70,4.68,4.68
37.43,5.98,1.32,5.98,1.31,-1.31,-1.44,-1.24,4.67,4.67,4.67
37.81,5.98,1.33,5.99,1.34,-1.33,-1.47,-1.26,4.65,4.66,4.65
38.19,5.99,1.35,6.00,1.36,-1.36,-1.50,-1.28,4.63,4.64,4.64
38.57,6.02,1.40,6.01,1.39,-1.39,-1.53,-1.30,4.64,4.63,4.63
38.95,6.02,1.41,6.02,1.41,-1.41,-1.56,-1.32,4.61,4.61,4.61
39.34,6.02,1.44,6.03,1.44,-1.44,-1.59,-1.34,4.58,4.59,4.59
39.74,6.02,1.45,6.03,1.46,-1.47,-1.62,-1.37,4.56,4.57,4.57
40.14,6.05,1.50,6.05,1.49,-1.49,-1.65,-1.39,4.56,4.56,4.56
40.54,6.07,1.53,6.06,1.53,-1.52,-1.68,-1.42,4.55,4.54,4.54
40.94,6.07,1.56,6.07,1.55,-1.55,-1.71,-1.45,4.52,4.52,4.52
41.35,6.07,1.57,6.07,1.58,-1.58,-1.74,-1.48,4.49,4.49,4.50
41.76,6.07,1.60,6.08,1.60,-1.61,-1.78,-1.51,4.46,4.47,4.47
42.18,6.09,1.63,6.09,1.64,-1.64,-1.81,-1.54,4.45,4.45,4.46
42.60,6.11,1.68,6.11,1.67,-1.67,-1.84,-1.57,4.44,4.44,4.43
43.03,6.11,1.71,6.11,1.71,-1.70,-1.87,-1.61,4.41,4.41,4.41
43.46,6.11,1.73,6.11,1.73,-1.73,-1.90,-1.64,4.38,4.38,4.38
43.90,6.11,1.76,6.11,1.76,-1.77,-1.93,-1.68,4.35,4.34,4.35
44.33,6.11,1.79,6.12,1.79,-1.80,-1.96,-1.71,4.31,4.32,4.32
44.78,6.13,1.84,6.13,1.83,-1.83,-1.99,-1.75,4.30,4.30,4.30
45.23,6.15,1.87,6.15,1.87,-1.87,-2.03,-1.79,4.28,4.28,4.28
45.68,6.15,1.91,6.15,1.91,-1.90,-2.06,-1.83,4.25,4.25,4.24
46.13,6.15,1.95,6.15,1.95,-1.94,-2.09,-1.88,4.21,4.21,4.20
46.60,6.15,1.98,6.15,1.98,-1.98,-2.12,-1.92,4.17,4.17,4.17
47.06,6.15,2.01,6.15,2.01,-2.02,-2.15,-1.97,4.13,4.13,4.14
47.53,6.15,2.04,6.16,2.06,-2.07,-2.18,-2.01,4.09,4.10,4.11
48.01,6.18,2.12,6.18,2.11,-2.11,-2.21,-2.06,4.07,4.07,4.06
48.49,6.20,2.17,6.19,2.16,-2.15,-2.24,-2.11,4.05,4.04,4.03
48.97,6.20,2.21,6.20,2.21,-2.20,-2.28,-2.16,4.01,4.01,3.99
49.46,6.20,2.24,6.20,2.25,-2.24,-2.31,-2.21,3.96,3.96,3.96
49.96,6.20,2.29,6.20,2.29,-2.28,-2.34,-2.26,3.92,3.92,3.91
50.46,6.20,2.32,6.20,2.32,-2.32,-2.37,-2.31,3.88,3.88,3.88
50.96,6.20,2.36,6.20,2.36,-2.36,-2.40,-2.36,3.84,3.84,3.85
51.47,6.20,2.39,6.20,2.39,-2.39,-2.43,-2.41,3.81,3.81,3.81
51.99,6.20,2.43,6.20,2.43,-2.43,-2.46,-2.47,3.78,3.78,3.77
52.51,6.20,2.46,6.20,2.46,-2.46,-2.49,-2.52,3.74,3.74,3.74
53.03,6.20,2.49,6.20,2.50,-2.50,-2.52,-2.57,3.70,3.70,3.71
53.56,6.20,2.53,6.20,2.53,-2.54,-2.55,-2.62,3.66,3.66,3.67
54.10,6.20,2.58,6.20,2.57,-2.58,-2.58,-2.67,3.63,3.63,3.62
54.64,6.20,2.61,6.20,2.62,-2.61,-2.61,-2.73,3.59,3.59,3.59
55.18,6.20,2.66,6.20,2.66,-2.65,-2.65,-2.78,3.55,3.55,3.54
55.74,6.20,2.70,6.20,2.69,-2.69,-2.68,-2.83,3.51,3.51,3.51
56.29,6.20,2.72,6.20,2.73,-2.72,-2.71,-2.87,3.48,3.48,3.48
56.86,6.20,2.75,6.20,2.76,-2.76,-2.74,-2.92,3.45,3.45,3.45
57.42,6.20,2.80,6.20,2.79,-2.79,-2.77,-2.96,3.41,3.41,3.40
58.00,6.20,2.83,6.20,2.82,-2.82,-2.80,-3.01,3.38,3.38,3.37
58.58,6.20,2.85,6.20,2.85,-2.85,-2.83,-3.05,3.35,3.35,3.35
59.16,6.20,2.88,6.20,2.88,-2.89,-2.86,-3.09,3.31,3.31,3.32
59.76,6.20,2.91,6.20,2.92,-2.92,-2.89,-3.12,3.28,3.28,3.29
60.35,6.20,2.96,6.20,2.96,-2.96,-2.92,-3.15,3.24,3.24,3.24
60.96,6.20,3.00,6.20,3.00,-3.00,-2.95,-3.18,3.21,3.20,3.20
61.57,6.18,3.04,6.19,3.04,-3.04,-2.98,-3.21,3.15,3.15,3.15
62.18,6.18,3.09,6.17,3.08,-3.07,-3.01,-3.23,3.11,3.10,3.09
62.80,6.15,3.10,6.16,3.11,-3.11,-3.04,-3.26,3.04,3.05,3.05
63.43,6.15,3.15,6.15,3.15,-3.15,-3.07,-3.27,3.00,3.00,3.00
64.07,6.15,3.19,6.15,3.18,-3.19,-3.10,-3.29,2.96,2.96,2.97
64.71,6.15,3.22,6.15,3.22,-3.22,-3.12,-3.30,2.93,2.93,2.93
65.35,6.15,3.26,6.15,3.26,-3.26,-3.15,-3.31,2.90,2.90,2.89
66.01,6.15,3.30,6.15,3.30,-3.29,-3.18,-3.32,2.86,2.86,2.86
66.67,6.15,3.33,6.15,3.33,-3.32,-3.21,-3.32,2.83,2.82,2.83
67.33,6.13,3.36,6.13,3.35,-3.36,-3.24,-3.33,2.78,2.78,2.78
68.01,6.11,3.38,6.12,3.38,-3.39,-3.27,-3.33,2.73,2.73,2.74
68.69,6.11,3.42,6.11,3.41,-3.42,-3.30,-3.33,2.69,2.69,2.70
69.37,6.11,3.45,6.11,3.46,-3.45,-3.33,-3.32,2.66,2.66,2.66
70.07,6.11,3.49,6.11,3.49,-3.49,-3.36,-3.32,2.62,2.62,2.62
70.77,6.11,3.54,6.10,3.52,-3.52,-3.39,-3.32,2.59,2.57,2.58
71.48,6.07,3.54,6.09,3.55,-3.56,-3.41,-3.31,2.51,2.52,2.53
72.19,6.07,3.59,6.07,3.59,-3.60,-3.44,-3.31,2.48,2.48,2.49
72.91,6.07,3.63,6.07,3.63,-3.63,-3.47,-3.30,2.44,2.44,2.44
73.64,6.07,3.68,6.07,3.68,-3.66,-3.50,-3.30,2.41,2.41,2.39
74.38,6.07,3.72,6.06,3.70,-3.69,-3.53,-3.29,2.38,2.36,2.35
75.12,6.02,3.71,6.04,3.72,-3.72,-3.56,-3.29,2.30,2.32,2.32
75.87,6.02,3.74,6.03,3.75,-3.75,-3.58,-3.29,2.27,2.28,2.29
76.63,6.02,3.78,6.01,3.77,-3.77,-3.61,-3.29,2.25,2.24,2.24
77.40,6.01,3.80,6.01,3.80,-3.80,-3.64,-3.29,2.22,2.21,2.21
78.17,5.98,3.81,6.00,3.82,-3.82,-3.67,-3.29,2.17,2.18,2.17
78.95,5.98,3.84,5.98,3.84,-3.84,-3.69,-3.29,2.15,2.14,2.15
79.74,5.98,3.87,5.97,3.86,-3.86,-3.72,-3.29,2.13,2.11,2.11
80.54,5.94,3.86,5.96,3.88,-3.88,-3.75,-3.30,2.07,2.08,2.08
81.35,5.94,3.90,5.94,3.90,-3.90,-3.78,-3.31,2.05,2.05,2.04
82.16,5.94,3.93,5.92,3.91,-3.92,-3.80,-3.32,2.03,2.01,2.02
82.98,5.89,3.91,5.91,3.93,-3.94,-3.83,-3.33,1.96,1.98,1.98
83.81,5.89,3.95,5.89,3.95,-3.96,-3.86,-3.35,1.94,1.94,1.94
84.65,5.89,3.99,5.87,3.97,-3.98,-3.88,-3.37,1.92,1.90,1.90
85.50,5.85,3.99,5.87,4.00,-4.00,-3.91,-3.39,1.86,1.87,1.86
86.35,5.85,4.02,5.85,4.02,-4.02,-3.94,-3.41,1.83,1.83,1.83
87.22,5.85,4.05,5.84,4.04,-4.04,-3.96,-3.44,1.81,1.80,1.80
88.09,5.81,4.05,5.83,4.07,-4.06,-3.99,-3.47,1.75,1.77,1.76
88.97,5.81,4.09,5.81,4.08,-4.08,-4.01,-3.50,1.73,1.73,1.73
89.86,5.80,4.12,5.79,4.10,-4.11,-4.04,-3.53,1.70,1.68,1.69
90.76,5.76,4.11,5.78,4.13,-4.13,-4.07,-3.57,1.64,1.65,1.65
91.66,5.76,4.16,5.76,4.15,-4.15,-4.09,-3.61,1.61,1.61,1.61
92.58,5.76,4.19,5.75,4.17,-4.18,-4.12,-3.65,1.59,1.57,1.57
93.51,5.72,4.18,5.74,4.20,-4.20,-4.14,-3.69,1.52,1.53,1.54
94.44,5.72,4.22,5.73,4.23,-4.23,-4.16,-3.74,1.49,1.50,1.50
95.39,5.72,4.27,5.72,4.26,-4.26,-4.19,-3.79,1.46,1.45,1.46
96.34,5.72,4.31,5.71,4.29,-4.30,-4.21,-3.84,1.43,1.41,1.41
97.30,5.68,4.31,5.70,4.33,-4.33,-4.24,-3.89,1.36,1.37,1.37
98.28,5.68,4.36,5.69,4.36,-4.36,-4.26,-3.95,1.33,1.33,1.33
99.26,5.68,4.40,5.67,4.39,-4.38,-4.28,-4.01,1.30,1.29,1.28
100.25,5.67,4.43,5.67,4.42,-4.41,-4.30,-4.07,1.26,1.26,1.24
101.25,5.63,4.42,5.65,4.44,-4.43,-4.33,-4.13,1.20,1.21,1.22
102.27,5.63,4.46,5.62,4.45,-4.45,-4.35,-4.19,1.18,1.17,1.18
103.29,5.60,4.46,5.61,4.46,-4.47,-4.37,-4.25,1.13,1.14,1.14
104.32,5.59,4.48,5.59,4.48,-4.49,-4.39,-4.31,1.11,1.11,1.11
105.37,5.58,4.51,5.58,4.50,-4.50,-4.41,-4.38,1.08,1.08,1.07
106.42,5.55,4.51,5.56,4.52,-4.52,-4.43,-4.44,1.04,1.05,1.05
107.48,5.55,4.55,5.54,4.53,-4.53,-4.45,-4.50,1.02,1.01,1.00
108.56,5.50,4.53,5.51,4.55,-4.54,-4.47,-4.57,0.96,0.97,0.97
109.64,5.49,4.56,5.49,4.56,-4.56,-4.49,-4.63,0.94,0.93,0.93
110.74,5.46,4.57,5.46,4.56,-4.57,-4.51,-4.69,0.89,0.89,0.90
111.85,5.43,4.57,5.44,4.58,-4.58,-4.53,-4.75,0.85,0.86,0.86
112.97,5.42,4.60,5.42,4.60,-4.60,-4.55,-4.80,0.82,0.82,0.82
114.10,5.39,4.61,5.39,4.61,-4.61,-4.57,-4.86,0.78,0.78,0.79
115.24,5.37,4.63,5.37,4.63,-4.63,-4.58,-4.91,0.74,0.74,0.74
116.39,5.33,4.64,5.34,4.65,-4.64,-4.60,-4.95,0.69,0.70,0.69
117.55,5.32,4.67,5.32,4.66,-4.66,-4.62,-4.99,0.67,0.66,0.66
118.73,5.29,4.68,5.29,4.67,-4.67,-4.63,-5.03,0.62,0.62,0.61
119.92,5.26,4.69,5.26,4.68,-4.68,-4.65,-5.07,0.59,0.59,0.58
121.12,5.23,4.68,5.23,4.69,-4.69,-4.66,-5.10,0.55,0.55,0.55
122.33,5.20,4.69,5.20,4.69,-4.69,-4.68,-5.12,0.51,0.51,0.51
123.55,5.17,4.70,5.17,4.69,-4.70,-4.69,-5.14,0.47,0.47,0.48
124.79,5.14,4.70,5.14,4.70,-4.71,-4.70,-5.15,0.44,0.44,0.44
126.03,5.11,4.71,5.11,4.71,-4.71,-4.72,-5.16,0.40,0.40,0.40
127.29,5.08,4.72,5.08,4.72,-4.72,-4.73,-5.16,0.36,0.36,0.36
128.57,5.05,4.73,5.05,4.73,-4.73,-4.74,-5.15,0.33,0.33,0.32
129.85,5.02,4.74,5.02,4.74,-4.73,-4.75,-5.14,0.29,0.29,0.28
131.15,4.98,4.74,4.98,4.74,-4.74,-4.76,-5.13,0.24,0.24,0.24
132.46,4.94,4.74,4.95,4.74,-4.74,-4.77,-5.11,0.20,0.20,0.20
133.79,4.91,4.75,4.91,4.75,-4.75,-4.78,-5.09,0.17,0.17,0.17
135.12,4.88,4.75,4.88,4.75,-4.75,-4.79,-5.06,0.13,0.13,0.13
136.48,4.85,4.75,4.85,4.75,-4.75,-4.79,-5.03,0.10,0.10,0.10
137.84,4.81,4.74,4.81,4.75,-4.75,-4.80,-5.00,0.07,0.07,0.07
139.22,4.77,4.75,4.78,4.74,-4.74,-4.81,-4.96,0.03,0.03,0.03
140.61,4.74,4.74,4.74,4.74,-4.74,-4.81,-4.92,0.00,0.00,0.00
142.02,4.70,4.73,4.70,4.74,-4.73,-4.82,-4.88,-0.03,-0.03,-0.03
143.44,4.66,4.73,4.67,4.72,-4.73,-4.83,-4.84,-0.06,-0.06,-0.06
144.87,4.63,4.72,4.63,4.71,-4.72,-4.83,-4.80,-0.08,-0.09,-0.08
146.32,4.58,4.70,4.59,4.70,-4.71,-4.83,-4.75,-0.12,-0.12,-0.11
147.78,4.55,4.70,4.55,4.69,-4.70,-4.84,-4.71,-0.14,-0.14,-0.14
149.26,4.51,4.68,4.51,4.69,-4.68,-4.84,-4.67,-0.17,-0.17,-0.17
150.75,4.47,4.68,4.47,4.68,-4.67,-4.84,-4.62,-0.20,-0.20,-0.21
152.26,4.43,4.66,4.43,4.66,-4.66,-4.84,-4.58,-0.22,-0.23,-0.23
153.78,4.38,4.64,4.38,4.64,-4.64,-4.84,-4.54,-0.26,-0.26,-0.26
155.32,4.33,4.62,4.34,4.63,-4.63,-4.84,-4.50,-0.30,-0.29,-0.29
156.88,4.29,4.61,4.29,4.61,-4.62,-4.84,-4.46,-0.32,-0.33,-0.32
158.44,4.25,4.61,4.25,4.60,-4.60,-4.84,-4.43,-0.35,-0.35,-0.35
160.03,4.20,4.59,4.20,4.59,-4.59,-4.84,-4.39,-0.39,-0.39,-0.39
161.63,4.16,4.58,4.16,4.58,-4.58,-4.84,-4.37,-0.42,-0.42,-0.42
163.24,4.10,4.56,4.11,4.57,-4.57,-4.83,-4.34,-0.46,-0.45,-0.46
164.88,4.07,4.56,4.07,4.56,-4.56,-4.83,-4.31,-0.48,-0.49,-0.49
166.53,4.02,4.55,4.02,4.55,-4.55,-4.83,-4.29,-0.52,-0.53,-0.53
168.19,3.97,4.53,3.98,4.53,-4.53,-4.82,-4.27,-0.56,-0.56,-0.56
169.87,3.92,4.52,3.93,4.52,-4.52,-4.82,-4.25,-0.60,-0.60,-0.59
171.57,3.88,4.51,3.88,4.51,-4.51,-4.81,-4.24,-0.63,-0.63,-0.63
173.29,3.83,4.50,3.83,4.50,-4.50,-4.80,-4.23,-0.66,-0.67,-0.67
175.02,3.78,4.48,3.79,4.49,-4.48,-4.80,-4.22,-0.70,-0.70,-0.70
176.77,3.73,4.47,3.74,4.47,-4.47,-4.79,-4.22,-0.74,-0.74,-0.74
178.54,3.69,4.46,3.69,4.46,-4.46,-4.78,-4.22,-0.77,-0.77,-0.77
180.32,3.63,4.45,3.64,4.45,-4.45,-4.77,-4.22,-0.81,-0.81,-0.81
182.13,3.58,4.43,3.59,4.43,-4.43,-4.76,-4.23,-0.85,-0.85,-0.85
183.95,3.54,4.42,3.54,4.42,-4.42,-4.75,-4.24,-0.88,-0.88,-0.88
185.79,3.49,4.41,3.49,4.41,-4.41,-4.74,-4.25,-0.92,-0.92,-0.92
187.65,3.44,4.39,3.45,4.40,-4.40,-4.73,-4.27,-0.96,-0.95,-0.95
189.52,3.40,4.39,3.40,4.39,-4.39,-4.72,-4.29,-0.99,-0.99,-0.99
191.42,3.36,4.38,3.36,4.38,-4.38,-4.71,-4.31,-1.01,-1.02,-1.02
193.33,3.31,4.37,3.32,4.37,-4.37,-4.69,-4.33,-1.06,-1.05,-1.06
195.27,3.26,4.36,3.27,4.36,-4.36,-4.68,-4.36,-1.10,-1.09,-1.09
197.22,3.23,4.36,3.22,4.35,-4.35,-4.67,-4.39,-1.12,-1.13,-1.13
199.19,3.17,4.33,3.18,4.34,-4.35,-4.65,-4.42,-1.17,-1.16,-1.16
201.18,3.14,4.34,3.14,4.34,-4.34,-4.64,-4.45,-1.20,-1.20,-1.19
203.19,3.12,4.34,3.12,4.34,-4.34,-4.62,-4.49,-1.22,-1.22,-1.22
205.23,3.08,4.33,3.09,4.34,-4.34,-4.61,-4.52,-1.26,-1.25,-1.25
207.28,3.08,4.35,3.07,4.34,-4.34,-4.59,-4.56,-1.26,-1.28,-1.27
209.35,3.03,4.34,3.05,4.35,-4.35,-4.57,-4.60,-1.32,-1.30,-1.30
211.44,3.03,4.36,3.03,4.36,-4.36,-4.56,-4.63,-1.32,-1.32,-1.33
213.56,3.03,4.38,3.02,4.37,-4.37,-4.54,-4.67,-1.34,-1.35,-1.35
215.69,3.00,4.38,3.01,4.38,-4.38,-4.52,-4.71,-1.38,-1.37,-1.37
217.85,2.99,4.39,3.00,4.40,-4.40,-4.50,-4.75,-1.41,-1.41,-1.40
220.03,2.99,4.42,2.99,4.41,-4.43,-4.48,-4.78,-1.43,-1.44,-1.43
222.23,2.99,4.44,2.99,4.44,-4.45,-4.46,-4.82,-1.46,-1.46,-1.45
224.45,2.99,4.46,3.00,4.48,-4.47,-4.44,-4.85,-1.48,-1.47,-1.47
226.70,3.02,4.51,3.02,4.50,-4.50,-4.42,-4.88,-1.48,-1.48,-1.49
228.96,3.03,4.54,3.03,4.53,-4.53,-4.40,-4.91,-1.49,-1.50,-1.50
231.25,3.03,4.56,3.04,4.56,-4.55,-4.38,-4.93,-1.52,-1.52,-1.52
233.57,3.03,4.57,3.03,4.57,-4.58,-4.35,-4.95,-1.54,-1.54,-1.54
235.90,3.03,4.59,3.04,4.60,-4.60,-4.33,-4.96,-1.56,-1.56,-1.56
238.26,3.03,4.61,3.04,4.61,-4.62,-4.31,-4.97,-1.58,-1.58,-1.58
240.64,3.05,4.63,3.04,4.63,-4.63,-4.28,-4.97,-1.58,-1.59,-1.58
243.05,3.03,4.63,3.04,4.64,-4.64,-4.26,-4.97,-1.61,-1.60,-1.60
245.48,3.03,4.65,3.04,4.65,-4.65,-4.23,-4.96,-1.62,-1.61,-1.62
247.93,3.03,4.67,3.03,4.65,-4.65,-4.21,-4.95,-1.62,-1.62,-1.63
250.41,3.02,4.65,3.02,4.65,-4.65,-4.18,-4.93,-1.62,-1.63,-1.63
252.92,2.99,4.63,3.00,4.64,-4.64,-4.16,-4.90,-1.64,-1.64,-1.64
255.45,2.97,4.63,2.97,4.62,-4.62,-4.13,-4.87,-1.64,-1.64,-1.65
258.00,2.94,4.60,2.94,4.60,-4.59,-4.10,-4.83,-1.65,-1.66,-1.66
260.58,2.89,4.56,2.90,4.56,-4.56,-4.08,-4.79,-1.67,-1.66,-1.67
263.19,2.84,4.52,2.85,4.52,-4.52,-4.05,-4.74,-1.68,-1.68,-1.67
265.82,2.80,4.48,2.80,4.48,-4.49,-4.02,-4.68,-1.68,-1.69,-1.68
268.48,2.75,4.44,2.75,4.44,-4.44,-3.99,-4.63,-1.69,-1.69,-1.68
271.16,2.70,4.39,2.70,4.39,-4.40,-3.96,-4.56,-1.70,-1.69,-1.69
273.87,2.65,4.35,2.65,4.35,-4.35,-3.93,-4.49,-1.70,-1.70,-1.70
276.61,2.60,4.30,2.60,4.31,-4.30,-3.90,-4.42,-1.70,-1.70,-1.70
279.38,2.55,4.27,2.55,4.26,-4.25,-3.87,-4.34,-1.70,-1.70,-1.72
282.17,2.50,4.21,2.50,4.21,-4.21,-3.84,-4.26,-1.70,-1.71,-1.71
284.99,2.44,4.15,2.45,4.15,-4.15,-3.81,-4.18,-1.71,-1.71,-1.70
287.84,2.39,4.09,2.39,4.10,-4.10,-3.77,-4.10,-1.71,-1.71,-1.70
290.72,2.34,4.06,2.34,4.05,-4.05,-3.74,-4.01,-1.71,-1.71,-1.71
293.63,2.29,4.00,2.29,4.00,-4.00,-3.71,-3.92,-1.71,-1.71,-1.71
296.57,2.24,3.94,2.24,3.95,-3.95,-3.67,-3.83,-1.71,-1.71,-1.70
299.53,2.19,3.90,2.20,3.90,-3.90,-3.64,-3.74,-1.71,-1.70,-1.71
302.53,2.15,3.85,2.15,3.85,-3.85,-3.61,-3.66,-1.70,-1.70,-1.70
305.55,2.10,3.80,2.10,3.80,-3.80,-3.57,-3.57,-1.70,-1.70,-1.70
308.61,2.05,3.75,2.05,3.75,-3.75,-3.53,-3.48,-1.70,-1.70,-1.70
311.69,2.00,3.70,2.00,3.70,-3.70,-3.50,-3.39,-1.70,-1.70,-1.70
314.81,1.95,3.64,1.95,3.64,-3.65,-3.46,-3.30,-1.70,-1.70,-1.69
317.96,1.90,3.60,1.90,3.60,-3.60,-3.43,-3.21,-1.70,-1.70,-1.69
321.14,1.85,3.54,1.86,3.55,-3.55,-3.39,-3.13,-1.70,-1.69,-1.69
324.35,1.82,3.51,1.81,3.50,-3.50,-3.35,-3.04,-1.68,-1.69,-1.69
327.59,1.77,3.45,1.77,3.45,-3.45,-3.31,-2.96,-1.68,-1.68,-1.67
330.87,1.71,3.39,1.72,3.40,-3.40,-3.27,-2.88,-1.68,-1.68,-1.68
334.18,1.67,3.35,1.67,3.35,-3.35,-3.23,-2.80,-1.67,-1.67,-1.68
337.52,1.63,3.30,1.63,3.30,-3.29,-3.20,-2.72,-1.66,-1.66,-1.67
340.90,1.58,3.25,1.58,3.24,-3.24,-3.15,-2.64,-1.65,-1.66,-1.66
344.30,1.52,3.18,1.52,3.18,-3.18,-3.11,-2.56,-1.66,-1.66,-1.65
347.75,1.46,3.11,1.47,3.12,-3.12,-3.07,-2.49,-1.66,-1.65,-1.65
351.23,1.41,3.06,1.42,3.06,-3.06,-3.03,-2.42,-1.65,-1.65,-1.65
354.74,1.37,3.00,1.37,3.01,-3.00,-2.99,-2.35,-1.63,-1.63,-1.63
358.28,1.32,2.95,1.32,2.95,-2.94,-2.95,-2.28,-1.62,-1.63,-1.63
361.87,1.26,2.89,1.26,2.89,-2.89,-2.90,-2.21,-1.62,-1.62,-1.62
365.49,1.20,2.82,1.21,2.82,-2.83,-2.86,-2.15,-1.63,-1.62,-1.62
369.14,1.15,2.76,1.16,2.76,-2.77,-2.82,-2.09,-1.62,-1.62,-1.61
372.83,1.11,2.71,1.11,2.71,-2.71,-2.77,-2.02,-1.60,-1.60,-1.60
376.56,1.06,2.66,1.06,2.66,-2.65,-2.73,-1.96,-1.59,-1.59,-1.60
380.33,1.01,2.60,1.01,2.60,-2.59,-2.68,-1.91,-1.58,-1.58,-1.59
384.13,0.95,2.54,0.95,2.54,-2.53,-2.63,-1.85,-1.58,-1.58,-1.58
387.97,0.89,2.47,0.89,2.47,-2.47,-2.59,-1.80,-1.58,-1.58,-1.57
391.85,0.83,2.40,0.83,2.40,-2.41,-2.54,-1.74,-1.57,-1.58,-1.57
395.77,0.77,2.34,0.78,2.34,-2.35,-2.49,-1.69,-1.57,-1.57,-1.57
399.73,0.72,2.28,0.73,2.28,-2.29,-2.44,-1.64,-1.56,-1.56,-1.56
403.72,0.68,2.22,0.68,2.23,-2.23,-2.39,-1.59,-1.54,-1.55,-1.54
407.76,0.63,2.17,0.63,2.17,-2.17,-2.34,-1.54,-1.54,-1.54,-1.54
411.84,0.58,2.11,0.58,2.11,-2.11,-2.29,-1.50,-1.53,-1.53,-1.53
415.96,0.53,2.06,0.53,2.06,-2.06,-2.24,-1.45,-1.52,-1.52,-1.52
420.12,0.48,2.01,0.49,2.01,-2.00,-2.19,-1.41,-1.52,-1.51,-1.52
424.32,0.44,1.96,0.44,1.95,-1.94,-2.14,-1.37,-1.50,-1.51,-1.51
428.56,0.38,1.88,0.38,1.88,-1.89,-2.09,-1.33,-1.50,-1.50,-1.50
432.85,0.33,1.82,0.33,1.82,-1.83,-2.03,-1.29,-1.50,-1.50,-1.49
437.18,0.28,1.77,0.29,1.77,-1.77,-1.98,-1.25,-1.49,-1.49,-1.49
441.55,0.24,1.72,0.24,1.71,-1.72,-1.92,-1.21,-1.47,-1.48,-1.48
445.96,0.19,1.66,0.19,1.66,-1.66,-1.87,-1.18,-1.47,-1.47,-1.47
450.42,0.14,1.60,0.15,1.61,-1.60,-1.81,-1.14,-1.46,-1.45,-1.46
454.93,0.11,1.56,0.10,1.55,-1.55,-1.75,-1.11,-1.43,-1.44,-1.45
459.48,0.05,1.49,0.05,1.49,-1.49,-1.70,-1.08,-1.43,-1.43,-1.44
464.07,0.00,1.42,0.01,1.43,-1.43,-1.64,-1.05,-1.43,-1.42,-1.42
468.71,-0.05,1.36,-0.05,1.36,-1.37,-1.58,-1.02,-1.42,-1.42,-1.41
473.40,-0.09,1.32,-0.09,1.31,-1.31,-1.52,-0.99,-1.40,-1.41,-1.40
478.13,-0.15,1.25,-0.14,1.26,-1.26,-1.46,-0.96,-1.40,-1.40,-1.39
482.91,-0.18,1.21,-0.18,1.20,-1.20,-1.40,-0.93,-1.38,-1.39,-1.38
487.74,-0.23,1.15,-0.23,1.15,-1.15,-1.34,-0.90,-1.37,-1.37,-1.37
492.62,-0.28,1.09,-0.27,1.10,-1.09,-1.27,-0.88,-1.37,-1.36,-1.36
497.55,-0.31,1.05,-0.31,1.04,-1.04,-1.21,-0.85,-1.34,-1.35,-1.35
502.52,-0.36,0.99,-0.36,0.99,-0.98,-1.15,-0.83,-1.34,-1.34,-1.35
507.55,-0.41,0.92,-0.40,0.92,-0.92,-1.08,-0.81,-1.33,-1.33,-1.33
512.62,-0.45,0.87,-0.45,0.86,-0.87,-1.02,-0.78,-1.31,-1.32,-1.32
