frequency,raw,error,smoothed,error_smoothed,equalization,parametric_eq,fixed_band_eq,equalized_raw,equalized_smoothed,target
20.00,-1.84,-6.47,-1.84,-6.47,6.04,6.02,0.78,4.19,4.19,4.63
20.20,-1.65,-6.37,-1.65,-6.37,6.03,5.92,0.81,4.38,4.38,4.72
20.40,-1.46,-6.26,-1.46,-6.26,6.01,5.82,0.84,4.55,4.55,4.80
20.61,-1.28,-6.14,-1.27,-6.15,5.97,5.71,0.87,4.70,4.70,4.87
20.81,-1.08,-6.04,-1.08,-6.04,5.92,5.61,0.90,4.84,4.84,4.96
21.02,-0.89,-5.93,-0.89,-5.93,5.86,5.50,0.94,4.97,4.97,5.04
21.23,-0.70,-5.80,-0.71,-5.81,5.78,5.39,0.97,5.08,5.07,5.10
21.44,-0.52,-5.68,-0.52,-5.68,5.68,5.29,1.01,5.16,5.16,5.16
21.66,-0.34,-5.54,-0.33,-5.54,5.56,5.18,1.05,5.22,5.23,5.21
21.87,-0.14,-5.40,-0.14,-5.40,5.42,5.07,1.09,5.28,5.28,5.26
22.09,0.05,-5.26,0.05,-5.26,5.27,4.96,1.13,5.32,5.32,5.31
22.31,0.24,-5.12,0.24,-5.12,5.12,4.85,1.17,5.36,5.35,5.36
22.54,0.42,-4.97,0.43,-4.97,4.97,4.74,1.21,5.39,5.39,5.39
22.76,0.62,-4.82,0.62,-4.82,4.82,4.63,1.26,5.43,5.43,5.44
22.99,0.81,-4.66,0.81,-4.66,4.67,4.52,1.30,5.47,5.47,5.46
23.22,1.00,-4.51,1.00,-4.51,4.52,4.41,1.35,5.51,5.51,5.50
23.45,1.19,-4.36,1.18,-4.36,4.37,4.29,1.40,5.55,5.55,5.54
23.69,1.36,-4.22,1.37,-4.21,4.22,4.18,1.44,5.58,5.59,5.58
23.92,1.56,-4.07,1.56,-4.07,4.07,4.06,1.49,5.62,5.62,5.62
24.16,1.75,-3.93,1.74,-3.92,3.92,3.95,1.54,5.66,5.66,5.67
24.40,1.93,-3.77,1.93,-3.77,3.77,3.83,1.59,5.69,5.70,5.70
24.65,2.11,-3.62,2.12,-3.62,3.61,3.71,1.64,5.73,5.73,5.73
24.89,2.31,-3.45,2.31,-3.46,3.46,3.60,1.69,5.77,5.77,5.76
25.14,2.50,-3.30,2.50,-3.30,3.31,3.48,1.74,5.80,5.80,5.80
25.39,2.68,-3.15,2.68,-3.15,3.15,3.36,1.79,5.83,5.83,5.83
25.65,2.87,-3.00,2.86,-3.00,3.00,3.24,1.84,5.86,5.86,5.87
25.91,3.04,-2.85,3.05,-2.84,2.85,3.12,1.88,5.89,5.89,5.89
26.16,3.24,-2.68,3.23,-2.69,2.69,2.99,1.93,5.93,5.93,5.92
26.43,3.41,-2.54,3.42,-2.54,2.54,2.87,1.97,5.96,5.96,5.96
26.69,3.60,-2.39,3.60,-2.39,2.39,2.75,2.02,5.99,5.99,5.99
26.96,3.77,-2.24,3.77,-2.25,2.24,2.62,2.06,6.02,6.02,6.02
27.23,3.95,-2.10,3.96,-2.10,2.09,2.50,2.09,6.05,6.05,6.06
27.50,4.14,-1.95,4.14,-1.95,1.94,2.37,2.12,6.08,6.08,6.09
27.77,4.32,-1.79,4.32,-1.80,1.79,2.25,2.15,6.11,6.11,6.11
28.05,4.50,-1.65,4.49,-1.64,1.65,2.12,2.18,6.14,6.14,6.14
28.33,4.67,-1.50,4.67,-1.50,1.50,1.99,2.19,6.17,6.17,6.16
28.62,4.84,-1.35,4.84,-1.35,1.35,1.86,2.21,6.20,6.20,6.19
28.90,5.02,-1.21,5.02,-1.21,1.21,1.73,2.21,6.23,6.23,6.23
29.19,5.19,-1.06,5.19,-1.07,1.07,1.60,2.21,6.26,6.26,6.25
29.48,5.36,-0.94,5.35,-0.94,0.94,1.47,2.20,6.29,6.29,6.30
29.78,5.51,-0.80,5.52,-0.80,0.80,1.34,2.19,6.32,6.32,6.32
30.08,5.68,-0.66,5.68,-0.67,0.67,1.20,2.17,6.36,6.35,6.35
30.38,5.83,-0.54,5.83,-0.54,0.55,1.07,2.14,6.38,6.38,6.38
30.68,5.98,-0.43,5.98,-0.42,0.42,0.94,2.09,6.40,6.40,6.41
30.99,6.12,-0.30,6.13,-0.30,0.30,0.80,2.05,6.42,6.42,6.42
31.30,6.27,-0.18,6.27,-0.18,0.17,0.66,1.99,6.45,6.45,6.45
31.61,6.43,-0.06,6.43,-0.05,0.05,0.53,1.92,6.48,6.48,6.48
31.93,6.57,0.07,6.57,0.07,-0.07,0.39,1.84,6.51,6.50,6.50
32.24,6.72,0.20,6.72,0.19,-0.19,0.25,1.76,6.53,6.53,6.52
32.57,6.85,0.31,6.86,0.31,-0.31,0.11,1.66,6.55,6.55,6.55
32.89,7.00,0.42,7.00,0.42,-0.42,-0.03,1.56,6.57,6.57,6.58
33.22,7.14,0.54,7.13,0.54,-0.54,-0.17,1.44,6.60,6.59,6.59
33.55,7.27,0.65,7.27,0.65,-0.66,-0.32,1.32,6.61,6.61,6.61
33.89,7.40,0.77,7.40,0.77,-0.77,-0.46,1.19,6.63,6.63,6.62
34.23,7.53,0.88,7.53,0.88,-0.89,-0.60,1.06,6.64,6.64,6.65
34.57,7.66,1.00,7.66,1.00,-1.00,-0.75,0.92,6.65,6.66,6.66
34.92,7.79,1.13,7.79,1.12,-1.12,-0.89,0.77,6.68,6.67,6.67
35.27,7.91,1.23,7.92,1.24,-1.24,-1.04,0.61,6.68,6.68,6.68
35.62,8.05,1.36,8.04,1.36,-1.36,-1.19,0.45,6.69,6.69,6.68
35.97,8.17,1.48,8.17,1.47,-1.48,-1.34,0.28,6.69,6.69,6.69
36.33,8.30,1.59,8.30,1.60,-1.60,-1.49,0.11,6.70,6.70,6.71
36.70,8.43,1.72,8.42,1.72,-1.72,-1.64,-0.07,6.71,6.71,6.71
37.06,8.55,1.84,8.55,1.84,-1.84,-1.79,-0.24,6.71,6.71,6.70
37.43,8.67,1.96,8.67,1.96,-1.96,-1.94,-0.43,6.71,6.71,6.71
37.81,8.80,2.09,8.79,2.08,-2.08,-2.10,-0.62,6.71,6.71,6.71
38.19,8.92,2.21,8.92,2.21,-2.21,-2.25,-0.81,6.70,6.71,6.71
38.57,9.05,2.33,9.05,2.34,-2.34,-2.40,-1.00,6.71,6.71,6.71
38.95,9.18,2.47,9.18,2.47,-2.47,-2.56,-1.20,6.71,6.71,6.71
39.34,9.31,2.61,9.31,2.60,-2.60,-2.72,-1.40,6.70,6.70,6.70
39.74,9.44,2.74,9.44,2.74,-2.74,-2.88,-1.60,6.70,6.70,6.69
40.14,9.56,2.87,9.57,2.88,-2.88,-3.03,-1.80,6.69,6.69,6.69
40.54,9.70,3.02,9.70,3.02,-3.02,-3.19,-2.01,6.69,6.68,6.69
40.94,9.85,3.16,9.85,3.16,-3.16,-3.35,-2.22,6.68,6.68,6.68
41.35,9.99,3.31,9.99,3.31,-3.31,-3.52,-2.43,6.68,6.68,6.68
41.76,10.14,3.46,10.13,3.46,-3.45,-3.68,-2.64,6.68,6.68,6.68
42.18,10.28,3.60,10.28,3.61,-3.60,-3.84,-2.86,6.67,6.68,6.67
42.60,10.43,3.77,10.43,3.76,-3.76,-4.00,-3.08,6.67,6.67,6.66
43.03,10.57,3.90,10.57,3.91,-3.91,-4.17,-3.30,6.65,6.65,6.66
43.46,10.72,4.07,10.71,4.06,-4.07,-4.33,-3.52,6.65,6.64,6.65
43.90,10.85,4.22,10.86,4.22,-4.23,-4.50,-3.75,6.62,6.63,6.64
44.33,11.02,4.40,11.02,4.39,-4.39,-4.66,-3.97,6.62,6.62,6.62
44.78,11.18,4.56,11.17,4.56,-4.56,-4.83,-4.20,6.62,6.61,6.62
45.23,11.33,4.73,11.34,4.73,-4.72,-5.00,-4.43,6.61,6.61,6.60
45.68,11.50,4.90,11.50,4.90,-4.89,-5.17,-4.67,6.61,6.61,6.60
46.13,11.66,5.07,11.65,5.06,-5.06,-5.34,-4.91,6.60,6.60,6.59
46.60,11.81,5.22,11.82,5.23,-5.23,-5.50,-5.15,6.59,6.59,6.59
47.06,11.98,5.39,11.98,5.39,-5.40,-5.67,-5.39,6.58,6.58,6.59
47.53,12.15,5.56,12.14,5.56,-5.57,-5.84,-5.64,6.58,6.58,6.58
48.01,12.32,5.73,12.32,5.73,-5.75,-6.01,-5.89,6.57,6.57,6.59
48.49,12.50,5.92,12.50,5.92,-5.92,-6.18,-6.14,6.57,6.57,6.58
48.97,12.68,6.10,12.67,6.11,-6.10,-6.35,-6.39,6.57,6.57,6.57
49.46,12.86,6.30,12.85,6.30,-6.28,-6.52,-6.65,6.57,6.57,6.56
49.96,13.03,6.48,13.03,6.48,-6.47,-6.69,-6.91,6.56,6.57,6.55
50.46,13.21,6.65,13.21,6.65,-6.65,-6.86,-7.17,6.57,6.56,6.56
50.96,13.40,6.82,13.39,6.83,-6.83,-7.03,-7.43,6.57,6.56,6.57
51.47,13.58,7.01,13.58,7.01,-7.01,-7.20,-7.69,6.56,6.56,6.56
51.99,13.75,7.19,13.76,7.19,-7.19,-7.37,-7.96,6.56,6.57,6.57
52.51,13.94,7.37,13.95,7.37,-7.37,-7.54,-8.22,6.57,6.58,6.58
53.03,14.14,7.56,14.13,7.55,-7.55,-7.70,-8.49,6.58,6.58,6.58
53.56,14.32,7.74,14.31,7.73,-7.74,-7.87,-8.75,6.58,6.58,6.58
54.10,14.48,7.91,14.49,7.92,-7.92,-8.03,-9.01,6.56,6.57,6.58
54.64,14.68,8.11,14.67,8.10,-8.11,-8.19,-9.27,6.57,6.57,6.57
55.18,14.86,8.29,14.85,8.29,-8.29,-8.35,-9.52,6.56,6.56,6.57
55.74,15.03,8.48,15.04,8.48,-8.48,-8.51,-9.77,6.56,6.56,6.56
56.29,15.22,8.66,15.22,8.66,-8.66,-8.67,-10.02,6.56,6.56,6.56
56.86,15.39,8.85,15.39,8.85,-8.84,-8.82,-10.25,6.55,6.55,6.54
57.42,15.56,9.02,15.56,9.03,-9.02,-8.98,-10.47,6.54,6.54,6.53
58.00,15.73,9.20,15.73,9.20,-9.19,-9.13,-10.69,6.53,6.53,6.53
58.58,15.89,9.37,15.88,9.36,-9.37,-9.27,-10.88,6.52,6.52,6.52
59.16,16.04,9.52,16.04,9.53,-9.53,-9.42,-11.07,6.51,6.51,6.51
59.76,16.19,9.68,16.19,9.69,-9.69,-9.55,-11.23,6.49,6.49,6.50
60.35,16.33,9.85,16.33,9.84,-9.85,-9.69,-11.38,6.48,6.48,6.48
60.96,16.47,9.99,16.46,10.00,-10.00,-9.82,-11.51,6.47,6.46,6.47
61.57,16.59,10.15,16.59,10.14,-10.14,-9.95,-11.62,6.44,6.44,6.44
62.18,16.70,10.28,16.70,10.28,-10.28,-10.07,-11.70,6.42,6.42,6.41
62.80,16.81,10.40,16.80,10.41,-10.41,-10.19,-11.77,6.40,6.40,6.41
63.43,16.91,10.53,16.91,10.53,-10.53,-10.31,-11.81,6.38,6.38,6.38
64.07,17.02,10.64,17.01,10.64,-10.64,-10.41,-11.83,6.38,6.37,6.37
64.71,17.12,10.75,17.11,10.75,-10.74,-10.52,-11.83,6.37,6.37,6.36
65.35,17.20,10.84,17.20,10.84,-10.83,-10.62,-11.82,6.36,6.37,6.36
66.01,17.28,10.92,17.28,10.92,-10.92,-10.71,-11.78,6.36,6.36,6.36
66.67,17.35,10.99,17.34,10.99,-10.99,-10.80,-11.73,6.36,6.35,6.36
67.33,17.41,11.05,17.41,11.05,-11.05,-10.88,-11.66,6.35,6.36,6.36
68.01,17.47,11.11,17.47,11.11,-11.11,-10.95,-11.58,6.36,6.36,6.36
68.69,17.53,11.17,17.52,11.16,-11.15,-11.02,-11.49,6.37,6.37,6.36
69.37,17.57,11.20,17.56,11.20,-11.20,-11.09,-11.40,6.37,6.37,6.37
70.07,17.60,11.23,17.60,11.23,-11.23,-11.15,-11.29,6.36,6.37,6.37
70.77,17.64,11.25,17.63,11.26,-11.26,-11.20,-11.18,6.37,6.37,6.38
71.48,17.67,11.29,17.67,11.29,-11.29,-11.24,-11.07,6.38,6.38,6.38
72.19,17.70,11.32,17.69,11.31,-11.31,-11.29,-10.95,6.38,6.38,6.38
72.91,17.72,11.33,17.71,11.33,-11.33,-11.32,-10.83,6.38,6.38,6.38
73.64,17.73,11.35,17.73,11.35,-11.36,-11.35,-10.71,6.37,6.38,6.38
74.38,17.75,11.36,17.75,11.37,-11.38,-11.38,-10.59,6.37,6.37,6.38
75.12,17.77,11.39,17.77,11.39,-11.39,-11.40,-10.48,6.37,6.37,6.38
75.87,17.79,11.41,17.78,11.40,-11.41,-11.41,-10.37,6.38,6.38,6.38
76.63,17.80,11.41,17.80,11.42,-11.42,-11.42,-10.26,6.38,6.38,6.38
77.40,17.81,11.43,17.80,11.43,-11.42,-11.42,-10.15,6.39,6.38,6.37
78.17,17.81,11.44,17.81,11.43,-11.42,-11.42,-10.05,6.39,6.39,6.37
78.95,17.80,11.41,17.80,11.42,-11.41,-11.42,-9.96,6.39,6.39,6.39
79.74,17.79,11.40,17.78,11.39,-11.39,-11.41,-9.87,6.39,6.39,6.39
80.54,17.76,11.37,17.76,11.37,-11.37,-11.40,-9.78,6.38,6.39,6.39
81.35,17.74,11.34,17.74,11.34,-11.35,-11.39,-9.70,6.39,6.39,6.40
82.16,17.72,11.31,17.71,11.31,-11.32,-11.37,-9.63,6.40,6.40,6.41
82.98,17.70,11.27,17.70,11.28,-11.28,-11.35,-9.57,6.41,6.42,6.42
83.81,17.68,11.24,17.68,11.25,-11.25,-11.32,-9.51,6.43,6.43,6.43
84.65,17.67,11.23,17.66,11.21,-11.21,-11.29,-9.45,6.46,6.45,6.44
85.50,17.64,11.17,17.63,11.17,-11.17,-11.26,-9.41,6.47,6.47,6.47
86.35,17.61,11.12,17.61,11.13,-11.13,-11.23,-9.37,6.48,6.48,6.48
87.22,17.57,11.08,17.57,11.08,-11.08,-11.20,-9.34,6.48,6.49,6.49
88.09,17.55,11.04,17.54,11.04,-11.04,-11.16,-9.31,6.51,6.50,6.50
88.97,17.51,10.99,17.51,10.99,-10.99,-11.12,-9.29,6.52,6.52,6.52
89.86,17.47,10.94,17.46,10.94,-10.94,-11.08,-9.28,6.53,6.52,6.52
90.76,17.41,10.89,17.41,10.89,-10.89,-11.04,-9.27,6.51,6.52,6.52
91.66,17.36,10.84,17.36,10.84,-10.85,-11.00,-9.27,6.51,6.51,6.52
92.58,17.31,10.80,17.30,10.80,-10.80,-10.95,-9.28,6.50,6.50,6.50
93.51,17.26,10.75,17.25,10.75,-10.76,-10.91,-9.29,6.49,6.49,6.50
94.44,17.20,10.71,17.20,10.71,-10.72,-10.86,-9.31,6.48,6.48,6.49
95.39,17.15,10.68,17.15,10.68,-10.68,-10.81,-9.34,6.47,6.47,6.47
96.34,17.09,10.65,17.08,10.65,-10.63,-10.77,-9.37,6.45,6.45,6.44
97.30,17.02,10.61,17.02,10.61,-10.59,-10.72,-9.41,6.42,6.42,6.40
98.28,16.94,10.56,16.93,10.56,-10.55,-10.67,-9.45,6.39,6.38,6.37
99.26,16.85,10.51,16.85,10.51,-10.51,-10.61,-9.50,6.33,6.33,6.33
100.25,16.76,10.46,16.76,10.46,-10.48,-10.56,-9.55,6.28,6.28,6.30
101.25,16.68,10.42,16.67,10.42,-10.44,-10.51,-9.61,6.23,6.23,6.26
102.27,16.60,10.38,16.61,10.39,-10.41,-10.46,-9.67,6.19,6.20,6.22
103.29,16.56,10.39,16.55,10.38,-10.38,-10.40,-9.73,6.18,6.17,6.17
104.32,16.51,10.37,16.49,10.36,-10.35,-10.35,-9.80,6.16,6.15,6.14
105.37,16.43,10.34,16.42,10.33,-10.31,-10.30,-9.87,6.11,6.11,6.09
106.42,16.34,10.29,16.34,10.29,-10.28,-10.24,-9.94,6.06,6.06,6.05
107.48,16.25,10.24,16.25,10.24,-10.24,-10.19,-10.01,6.01,6.01,6.01
108.56,16.17,10.20,16.17,10.20,-10.19,-10.13,-10.08,5.98,5.98,5.97
109.64,16.09,10.15,16.08,10.14,-10.14,-10.08,-10.16,5.95,5.94,5.93
110.74,15.99,10.08,15.99,10.09,-10.09,-10.02,-10.22,5.90,5.90,5.90
111.85,15.89,10.01,15.89,10.03,-10.04,-9.96,-10.29,5.85,5.86,5.87
112.97,15.81,9.98,15.80,9.97,-9.99,-9.90,-10.35,5.82,5.81,5.82
114.10,15.73,9.92,15.72,9.92,-9.94,-9.85,-10.41,5.79,5.78,5.81
115.24,15.64,9.87,15.66,9.89,-9.88,-9.79,-10.46,5.75,5.77,5.77
116.39,15.60,9.86,15.59,9.85,-9.83,-9.73,-10.50,5.77,5.76,5.74
117.55,15.54,9.81,15.52,9.80,-9.77,-9.67,-10.53,5.77,5.75,5.72
118.73,15.43,9.73,15.42,9.72,-9.71,-9.61,-10.56,5.72,5.71,5.70
119.92,15.31,9.62,15.32,9.63,-9.64,-9.55,-10.57,5.67,5.68,5.69
121.12,15.21,9.54,15.22,9.55,-9.57,-9.49,-10.58,5.64,5.66,5.67
122.33,15.16,9.50,15.14,9.49,-9.49,-9.43,-10.56,5.66,5.65,5.65
123.55,15.08,9.43,15.06,9.41,-9.41,-9.37,-10.54,5.66,5.64,5.65
124.79,14.97,9.33,14.97,9.33,-9.34,-9.30,-10.50,5.63,5.63,5.63
126.03,14.86,9.23,14.88,9.26,-9.26,-9.24,-10.46,5.60,5.62,5.63
127.29,14.81,9.19,14.80,9.18,-9.18,-9.18,-10.39,5.62,5.61,5.61
128.57,14.73,9.14,14.70,9.11,-9.11,-9.11,-10.32,5.62,5.60,5.59
129.85,14.61,9.02,14.62,9.03,-9.03,-9.05,-10.22,5.58,5.59,5.59
131.15,14.50,8.92,14.52,8.95,-8.95,-8.98,-10.13,5.55,5.57,5.57
132.46,14.45,8.89,14.42,8.86,-8.87,-8.91,-10.01,5.57,5.55,5.55
133.79,14.35,8.80,14.34,8.79,-8.80,-8.84,-9.89,5.55,5.54,5.55
135.12,14.22,8.69,14.24,8.71,-8.72,-8.78,-9.75,5.50,5.53,5.53
136.48,14.16,8.64,14.14,8.63,-8.63,-8.71,-9.61,5.52,5.51,5.52
137.84,14.05,8.55,14.05,8.56,-8.55,-8.64,-9.46,5.50,5.50,5.50
139.22,13.96,8.49,13.95,8.48,-8.46,-8.57,-9.31,5.50,5.49,5.47
140.61,13.85,8.40,13.83,8.38,-8.37,-8.49,-9.15,5.47,5.46,5.45
142.02,13.70,8.26,13.72,8.28,-8.28,-8.42,-8.99,5.41,5.43,5.44
143.44,13.61,8.19,13.60,8.18,-8.19,-8.35,-8.82,5.41,5.40,5.42
144.87,13.48,8.08,13.48,8.09,-8.10,-8.27,-8.65,5.37,5.38,5.39
146.32,13.39,8.02,13.38,8.01,-8.01,-8.19,-8.48,5.37,5.37,5.37
147.78,13.27,7.91,13.27,7.92,-7.93,-8.12,-8.30,5.34,5.34,5.35
149.26,13.18,7.85,13.17,7.85,-7.84,-8.04,-8.13,5.33,5.33,5.33
150.75,13.06,7.77,13.06,7.77,-7.76,-7.96,-7.96,5.29,5.30,5.29
152.26,12.97,7.70,12.96,7.69,-7.68,-7.88,-7.79,5.28,5.27,5.27
153.78,12.84,7.59,12.84,7.61,-7.61,-7.80,-7.62,5.23,5.24,5.24
155.32,12.75,7.54,12.74,7.53,-7.53,-7.71,-7.46,5.21,5.21,5.21
156.88,12.63,7.44,12.63,7.45,-7.46,-7.63,-7.30,5.17,5.17,5.19
158.44,12.54,7.39,12.52,7.37,-7.38,-7.54,-7.14,5.15,5.14,5.14
160.03,12.40,7.28,12.42,7.31,-7.31,-7.46,-6.98,5.09,5.11,5.11
161.63,12.32,7.24,12.31,7.24,-7.24,-7.37,-6.83,5.08,5.08,5.07
163.24,12.23,7.18,12.21,7.16,-7.16,-7.28,-6.68,5.07,5.04,5.04
164.88,12.09,7.07,12.11,7.10,-7.08,-7.19,-6.53,5.00,5.02,5.01
166.53,12.00,7.01,11.99,7.01,-7.01,-7.10,-6.39,4.99,4.99,4.98
168.19,11.90,6.94,11.88,6.92,-6.93,-7.01,-6.26,4.97,4.95,4.95
169.87,11.76,6.83,11.78,6.85,-6.84,-6.92,-6.12,4.91,4.93,4.93
171.57,11.66,6.76,11.66,6.76,-6.76,-6.82,-5.99,4.89,4.90,4.90
173.29,11.57,6.70,11.54,6.67,-6.68,-6.72,-5.87,4.88,4.86,4.87
175.02,11.42,6.57,11.44,6.59,-6.60,-6.63,-5.75,4.82,4.83,4.84
176.77,11.33,6.51,11.33,6.51,-6.52,-6.53,-5.63,4.81,4.81,4.82
178.54,11.24,6.44,11.23,6.44,-6.44,-6.43,-5.52,4.80,4.80,4.79
180.32,11.15,6.37,11.15,6.37,-6.35,-6.33,-5.41,4.79,4.79,4.78
182.13,11.06,6.29,11.04,6.28,-6.27,-6.22,-5.31,4.78,4.77,4.76
183.95,10.93,6.18,10.94,6.19,-6.19,-6.12,-5.21,4.74,4.75,4.75
185.79,10.83,6.09,10.83,6.10,-6.10,-6.02,-5.11,4.72,4.73,4.74
187.65,10.74,6.01,10.73,6.01,-6.01,-5.91,-5.02,4.72,4.72,4.72
189.52,10.64,5.92,10.64,5.92,-5.92,-5.80,-4.93,4.71,4.72,4.72
191.42,10.55,5.84,10.54,5.83,-5.83,-5.70,-4.84,4.72,4.71,4.71
193.33,10.45,5.74,10.44,5.74,-5.74,-5.59,-4.76,4.71,4.71,4.70
195.27,10.34,5.63,10.34,5.64,-5.64,-5.48,-4.68,4.70,4.70,4.70
197.22,10.23,5.53,10.23,5.54,-5.54,-5.37,-4.61,4.68,4.69,4.69
199.19,10.13,5.46,10.12,5.44,-5.45,-5.25,-4.53,4.68,4.68,4.67
201.18,10.02,5.35,10.01,5.35,-5.35,-5.14,-4.46,4.67,4.67,4.67
203.19,9.91,5.24,9.91,5.24,-5.24,-5.03,-4.39,4.66,4.67,4.67
205.23,9.80,5.14,9.80,5.14,-5.14,-4.91,-4.33,4.66,4.66,4.66
207.28,9.70,5.04,9.69,5.03,-5.03,-4.79,-4.26,4.67,4.66,4.66
209.35,9.58,4.93,9.58,4.93,-4.92,-4.67,-4.20,4.65,4.65,4.65
211.44,9.46,4.82,9.46,4.82,-4.82,-4.56,-4.14,4.64,4.64,4.63
213.56,9.34,4.70,9.33,4.70,-4.71,-4.44,-4.08,4.63,4.62,4.63
215.69,9.22,4.58,9.21,4.59,-4.60,-4.32,-4.02,4.61,4.61,4.64
217.85,9.09,4.47,9.10,4.48,-4.49,-4.20,-3.96,4.59,4.61,4.62
220.03,9.01,4.40,9.00,4.39,-4.38,-4.07,-3.90,4.62,4.62,4.61
222.23,8.90,4.30,8.89,4.29,-4.27,-3.95,-3.84,4.63,4.62,4.59
224.45,8.77,4.17,8.77,4.17,-4.16,-3.83,-3.78,4.61,4.61,4.59
226.70,8.64,4.05,8.63,4.05,-4.05,-3.70,-3.72,4.59,4.59,4.59
228.96,8.49,3.90,8.51,3.92,-3.94,-3.58,-3.66,4.55,4.57,4.58
231.25,8.40,3.82,8.38,3.81,-3.83,-3.45,-3.59,4.57,4.55,4.57
233.57,8.27,3.71,8.26,3.70,-3.71,-3.32,-3.53,4.55,4.55,4.56
235.90,8.13,3.58,8.14,3.60,-3.60,-3.20,-3.46,4.53,4.54,4.54
238.26,8.03,3.50,8.02,3.49,-3.48,-3.07,-3.39,4.54,4.53,4.53
240.64,7.89,3.37,7.90,3.38,-3.37,-2.94,-3.32,4.52,4.53,4.51
243.05,7.78,3.27,7.77,3.26,-3.25,-2.81,-3.24,4.52,4.51,4.51
245.48,7.64,3.14,7.63,3.13,-3.13,-2.68,-3.16,4.50,4.50,4.50
247.93,7.48,2.98,7.50,3.00,-3.01,-2.55,-3.08,4.46,4.49,4.50
250.41,7.38,2.89,7.36,2.87,-2.88,-2.42,-2.99,4.49,4.48,4.48
252.92,7.24,2.74,7.24,2.75,-2.75,-2.29,-2.91,4.49,4.49,4.50
255.45,7.12,2.61,7.12,2.62,-2.61,-2.16,-2.81,4.51,4.51,4.50
258.00,7.00,2.49,6.98,2.48,-2.46,-2.03,-2.72,4.53,4.52,4.51
260.58,6.84,2.32,6.84,2.32,-2.31,-1.90,-2.62,4.52,4.53,4.51
263.19,6.70,2.17,6.69,2.16,-2.16,-1.76,-2.51,4.54,4.53,4.53
265.82,6.53,1.99,6.54,2.00,-2.00,-1.63,-2.41,4.52,4.54,4.54
268.48,6.41,1.84,6.40,1.85,-1.85,-1.50,-2.30,4.56,4.55,4.56
271.16,6.29,1.71,6.26,1.68,-1.70,-1.37,-2.18,4.59,4.57,4.58
273.87,6.12,1.52,6.13,1.53,-1.55,-1.23,-2.07,4.57,4.58,4.60
276.61,6.00,1.37,6.00,1.38,-1.40,-1.10,-1.95,4.59,4.60,4.62
279.38,5.89,1.26,5.89,1.25,-1.26,-0.97,-1.83,4.63,4.63,4.63
282.17,5.78,1.13,5.78,1.13,-1.12,-0.83,-1.70,4.66,4.66,4.65
284.99,5.68,1.01,5.66,1.00,-0.98,-0.70,-1.58,4.69,4.68,4.66
287.84,5.53,0.85,5.54,0.85,-0.84,-0.56,-1.45,4.68,4.69,4.68
290.72,5.41,0.70,5.41,0.71,-0.71,-0.43,-1.32,4.70,4.70,4.71
293.63,5.29,0.57,5.28,0.56,-0.57,-0.30,-1.18,4.71,4.71,4.72
296.57,5.17,0.42,5.17,0.43,-0.43,-0.16,-1.05,4.73,4.73,4.74
299.53,5.05,0.29,5.05,0.29,-0.29,-0.03,-0.91,4.76,4.76,4.76
302.53,4.93,0.16,4.93,0.15,-0.15,0.10,-0.78,4.78,4.79,4.77
305.55,4.82,0.01,4.81,0.01,-0.00,0.23,-0.64,4.81,4.80,4.81
308.61,4.69,-0.14,4.68,-0.14,0.14,0.37,-0.50,4.83,4.83,4.82
311.69,4.55,-0.31,4.56,-0.29,0.29,0.50,-0.35,4.84,4.85,4.85
314.81,4.46,-0.43,4.44,-0.44,0.44,0.63,-0.21,4.89,4.88,4.89
317.96,4.33,-0.58,4.32,-0.58,0.59,0.76,-0.07,4.91,4.91,4.91
321.14,4.20,-0.73,4.19,-0.73,0.74,0.89,0.08,4.93,4.93,4.93
324.35,4.06,-0.89,4.06,-0.89,0.89,1.02,0.23,4.94,4.95,4.94
327.59,3.93,-1.05,3.93,-1.04,1.03,1.15,0.37,4.96,4.96,4.97
330.87,3.82,-1.18,3.81,-1.19,1.18,1.28,0.52,4.99,4.98,4.99
334.18,3.69,-1.33,3.69,-1.33,1.32,1.41,0.67,5.01,5.01,5.02
337.52,3.57,-1.47,3.57,-1.47,1.47,1.54,0.82,5.04,5.04,5.04
340.90,3.47,-1.60,3.46,-1.61,1.62,1.67,0.98,5.08,5.07,5.07
344.30,3.34,-1.76,3.34,-1.75,1.76,1.79,1.13,5.10,5.10,5.10
347.75,3.22,-1.90,3.21,-1.90,1.91,1.92,1.29,5.13,5.12,5.11
351.23,3.08,-2.07,3.08,-2.06,2.06,2.05,1.44,5.13,5.14,5.14
354.74,2.97,-2.21,2.96,-2.20,2.21,2.17,1.60,5.17,5.17,5.17
358.28,2.84,-2.35,2.84,-2.36,2.36,2.29,1.76,5.19,5.19,5.19
361.87,2.72,-2.50,2.71,-2.51,2.50,2.42,1.92,5.22,5.21,5.22
365.49,2.58,-2.67,2.59,-2.65,2.65,2.54,2.08,5.23,5.24,5.25
369.14,2.47,-2.79,2.47,-2.79,2.79,2.66,2.24,5.26,5.26,5.26
372.83,2.37,-2.92,2.35,-2.93,2.93,2.78,2.40,5.30,5.29,5.29
376.56,2.24,-3.07,2.24,-3.07,3.07,2.90,2.57,5.31,5.31,5.31
380.33,2.12,-3.23,2.12,-3.21,3.21,3.02,2.74,5.32,5.33,5.34
384.13,2.01,-3.35,2.01,-3.35,3.34,3.13,2.90,5.34,5.35,5.35
387.97,1.91,-3.47,1.90,-3.47,3.47,3.25,3.07,5.38,5.37,5.37
391.85,1.79,-3.60,1.79,-3.60,3.61,3.36,3.24,5.39,5.39,5.38
395.77,1.67,-3.74,1.67,-3.74,3.74,3.47,3.41,5.41,5.41,5.41
399.73,1.54,-3.88,1.53,-3.88,3.88,3.58,3.58,5.42,5.42,5.42
403.72,1.40,-4.02,1.40,-4.03,4.03,3.69,3.75,5.42,5.43,5.42
407.76,1.26,-4.17,1.26,-4.17,4.18,3.80,3.92,5.44,5.44,5.43
411.84,1.11,-4.33,1.10,-4.33,4.34,3.91,4.09,5.44,5.44,5.44
415.96,0.94,-4.50,0.93,-4.50,4.50,4.01,4.26,5.44,5.44,5.44
420.12,0.76,-4.68,0.76,-4.68,4.68,4.12,4.43,5.44,5.44,5.44
424.32,0.57,-4.87,0.58,-4.86,4.88,4.22,4.60,5.44,5.45,5.44
428.56,0.40,-5.04,0.39,-5.04,5.08,4.32,4.76,5.48,5.47,5.44
432.85,0.21,-5.22,0.20,-5.23,5.28,4.42,4.93,5.48,5.48,5.43
437.18,-0.01,-5.44,-0.00,-5.43,5.46,4.51,5.08,5.45,5.46,5.42
441.55,-0.21,-5.64,-0.22,-5.64,5.63,4.61,5.24,5.41,5.41,5.42
445.96,-0.43,-5.85,-0.44,-5.85,5.77,4.70,5.39,5.33,5.33,5.41
450.42,-0.67,-6.09,-0.67,-6.08,5.88,4.79,5.54,5.20,5.21,5.41
454.93,-0.89,-6.31,-0.91,-6.32,5.96,4.88,5.68,5.06,5.05,5.41
459.48,-1.16,-6.57,-1.15,-6.56,6.01,4.96,5.81,4.85,4.86,5.40
464.07,-1.39,-6.81,-1.38,-6.79,6.04,5.05,5.94,4.64,4.65,5.41
468.71,-1.59,-7.01,-1.61,-7.02,6.04,5.13,6.05,4.45,4.43,5.41
473.40,-1.83,-7.25,-1.82,-7.24,6.03,5.21,6.16,4.19,4.20,5.41
478.13,-2.03,-7.45,-2.03,-7.45,6.01,5.29,6.26,3.98,3.98,5.42
482.91,-2.23,-7.64,-2.24,-7.66,6.00,5.36,6.35,3.77,3.76,5.41
487.74,-2.44,-7.86,-2.44,-7.86,6.00,5.43,6.43,3.56,3.56,5.42
492.62,-2.64,-8.07,-2.64,-8.06,6.00,5.51,6.50,3.36,3.36,5.43
497.55,-2.83,-8.25,-2.84,-8.26,6.00,5.57,6.56,3.17,3.16,5.42
