frequency,raw,error,smoothed,error_smoothed,equalization,parametric_eq,fixed_band_eq,equalized_raw,equalized_smoothed,target
20.00,-13.63,-15.28,-13.63,-15.28,6.00,6.11,2.73,-7.63,-7.63,1.64
20.20,-13.52,-15.21,-13.52,-15.22,6.00,6.11,2.81,-7.52,-7.52,1.69
20.40,-13.42,-15.16,-13.42,-15.16,6.00,6.10,2.88,-7.42,-7.42,1.74
20.61,-13.31,-15.09,-13.31,-15.09,6.00,6.10,2.97,-7.31,-7.31,1.77
20.81,-13.21,-15.03,-13.21,-15.03,6.00,6.10,3.05,-7.21,-7.21,1.82
21.02,-13.10,-14.96,-13.11,-14.97,6.00,6.10,3.14,-7.10,-7.11,1.86
21.23,-13.02,-14.90,-13.02,-14.91,6.00,6.10,3.23,-7.02,-7.02,1.88
21.44,-12.94,-14.84,-12.94,-14.84,6.00,6.10,3.32,-6.94,-6.94,1.90
21.66,-12.85,-14.77,-12.86,-14.78,6.00,6.10,3.41,-6.85,-6.86,1.92
21.87,-12.77,-14.70,-12.77,-14.70,6.00,6.10,3.51,-6.77,-6.77,1.93
22.09,-12.67,-14.62,-12.67,-14.62,6.00,6.09,3.61,-6.67,-6.67,1.95
22.31,-12.56,-14.52,-12.56,-14.52,6.00,6.09,3.71,-6.56,-6.56,1.96
22.54,-12.45,-14.41,-12.45,-14.41,6.00,6.09,3.82,-6.45,-6.45,1.96
22.76,-12.34,-14.30,-12.34,-14.30,6.00,6.09,3.93,-6.34,-6.34,1.96
22.99,-12.23,-14.18,-12.24,-14.19,6.00,6.09,4.04,-6.23,-6.24,1.95
23.22,-12.15,-14.10,-12.15,-14.10,6.00,6.09,4.15,-6.15,-6.15,1.95
23.45,-12.07,-14.02,-12.07,-14.02,6.00,6.09,4.26,-6.07,-6.07,1.95
23.69,-12.00,-13.96,-12.00,-13.95,6.00,6.08,4.38,-6.00,-6.00,1.96
23.92,-11.92,-13.88,-11.92,-13.88,6.00,6.08,4.50,-5.92,-5.92,1.96
24.16,-11.83,-13.80,-11.83,-13.80,6.00,6.08,4.63,-5.83,-5.83,1.97
24.40,-11.74,-13.72,-11.74,-13.71,6.00,6.08,4.75,-5.74,-5.74,1.98
24.65,-11.64,-13.61,-11.64,-13.61,6.00,6.08,4.88,-5.64,-5.64,1.97
24.89,-11.54,-13.51,-11.55,-13.51,6.00,6.08,5.01,-5.54,-5.55,1.97
25.14,-11.45,-13.42,-11.45,-13.42,6.00,6.07,5.14,-5.45,-5.45,1.97
25.39,-11.36,-13.34,-11.36,-13.33,6.00,6.07,5.27,-5.36,-5.36,1.98
25.65,-11.26,-13.24,-11.26,-13.24,6.00,6.07,5.40,-5.26,-5.26,1.97
25.91,-11.17,-13.14,-11.18,-13.14,6.00,6.07,5.53,-5.17,-5.18,1.96
26.16,-11.09,-13.05,-11.09,-13.05,6.00,6.07,5.66,-5.09,-5.09,1.96
26.43,-11.01,-12.98,-11.01,-12.97,6.00,6.07,5.80,-5.01,-5.01,1.96
26.69,-10.93,-12.89,-10.93,-12.90,6.00,6.06,5.93,-4.93,-4.93,1.96
26.96,-10.85,-12.82,-10.85,-12.82,6.00,6.06,6.06,-4.85,-4.85,1.97
27.23,-10.77,-12.74,-10.77,-12.74,6.00,6.06,6.19,-4.77,-4.77,1.97
27.50,-10.69,-12.66,-10.69,-12.66,6.00,6.06,6.31,-4.69,-4.69,1.97
27.77,-10.61,-12.57,-10.61,-12.57,6.00,6.05,6.43,-4.61,-4.61,1.96
28.05,-10.53,-12.49,-10.53,-12.48,6.00,6.05,6.55,-4.53,-4.53,1.96
28.33,-10.43,-12.38,-10.43,-12.38,6.00,6.05,6.66,-4.43,-4.43,1.95
28.62,-10.33,-12.28,-10.33,-12.28,6.00,6.05,6.77,-4.33,-4.33,1.95
28.90,-10.22,-12.18,-10.22,-12.18,6.00,6.05,6.87,-4.22,-4.22,1.96
29.19,-10.12,-12.07,-10.12,-12.07,6.00,6.04,6.96,-4.12,-4.12,1.95
29.48,-10.01,-11.98,-10.01,-11.97,6.00,6.04,7.05,-4.01,-4.01,1.96
29.78,-9.91,-11.87,-9.91,-11.87,6.00,6.04,7.13,-3.91,-3.91,1.95
30.08,-9.81,-11.78,-9.82,-11.78,6.00,6.04,7.19,-3.81,-3.82,1.96
30.38,-9.74,-11.69,-9.74,-11.70,6.00,6.03,7.25,-3.74,-3.74,1.95
30.68,-9.67,-11.62,-9.67,-11.62,6.00,6.03,7.30,-3.67,-3.67,1.95
30.99,-9.59,-11.54,-9.59,-11.54,6.00,6.03,7.34,-3.59,-3.59,1.95
31.30,-9.51,-11.46,-9.51,-11.46,6.00,6.03,7.37,-3.51,-3.51,1.95
31.61,-9.42,-11.37,-9.42,-11.37,6.00,6.02,7.39,-3.42,-3.42,1.95
31.93,-9.33,-11.28,-9.34,-11.28,6.00,6.02,7.39,-3.33,-3.34,1.95
32.24,-9.26,-11.19,-9.26,-11.20,6.00,6.02,7.39,-3.26,-3.26,1.93
32.57,-9.18,-11.13,-9.18,-11.12,6.00,6.02,7.38,-3.18,-3.18,1.94
32.89,-9.11,-11.05,-9.11,-11.04,6.00,6.01,7.36,-3.11,-3.11,1.94
33.22,-9.02,-10.95,-9.02,-10.95,6.00,6.01,7.33,-3.02,-3.02,1.93
33.55,-8.92,-10.85,-8.92,-10.85,6.00,6.01,7.29,-2.92,-2.92,1.93
33.89,-8.81,-10.73,-8.82,-10.74,6.00,6.00,7.25,-2.81,-2.82,1.92
34.23,-8.72,-10.65,-8.72,-10.64,6.00,6.00,7.20,-2.72,-2.72,1.92
34.57,-8.63,-10.54,-8.62,-10.54,6.00,6.00,7.14,-2.63,-2.62,1.91
34.92,-8.53,-10.44,-8.54,-10.46,6.00,5.99,7.08,-2.53,-2.54,1.91
35.27,-8.47,-10.38,-8.47,-10.38,6.00,5.99,7.01,-2.47,-2.47,1.91
35.62,-8.42,-10.33,-8.42,-10.33,6.00,5.99,6.94,-2.42,-2.42,1.91
35.97,-8.37,-10.28,-8.37,-10.28,6.00,5.99,6.87,-2.37,-2.37,1.91
36.33,-8.32,-10.23,-8.32,-10.23,6.00,5.98,6.80,-2.32,-2.32,1.91
36.70,-8.26,-10.16,-8.26,-10.17,6.00,5.98,6.72,-2.26,-2.26,1.90
37.06,-8.19,-10.09,-8.18,-10.09,6.00,5.98,6.65,-2.19,-2.18,1.90
37.43,-8.09,-10.01,-8.09,-9.99,6.00,5.97,6.57,-2.09,-2.09,1.92
37.81,-7.98,-9.90,-7.99,-9.90,6.00,5.97,6.50,-1.98,-1.99,1.91
38.19,-7.90,-9.81,-7.91,-9.83,6.00,5.97,6.42,-1.90,-1.91,1.91
38.57,-7.84,-9.76,-7.84,-9.76,6.00,5.96,6.35,-1.84,-1.84,1.92
38.95,-7.79,-9.72,-7.78,-9.70,6.00,5.96,6.28,-1.79,-1.78,1.93
39.34,-7.70,-9.62,-7.70,-9.62,6.00,5.96,6.22,-1.70,-1.70,1.92
39.74,-7.61,-9.53,-7.62,-9.54,6.00,5.95,6.15,-1.61,-1.62,1.92
40.14,-7.53,-9.46,-7.53,-9.45,6.00,5.95,6.09,-1.53,-1.53,1.93
40.54,-7.45,-9.37,-7.46,-9.38,6.00,5.95,6.04,-1.45,-1.46,1.92
40.94,-7.38,-9.30,-7.38,-9.30,6.00,5.95,5.98,-1.38,-1.38,1.92
41.35,-7.31,-9.23,-7.31,-9.23,6.00,5.94,5.93,-1.31,-1.31,1.92
41.76,-7.23,-9.14,-7.23,-9.15,6.00,5.94,5.89,-1.23,-1.23,1.91
42.18,-7.15,-9.07,-7.15,-9.06,6.00,5.94,5.84,-1.15,-1.15,1.92
42.60,-7.06,-8.96,-7.06,-8.97,6.00,5.94,5.81,-1.06,-1.06,1.90
43.03,-6.97,-8.87,-6.98,-8.88,6.00,5.93,5.77,-0.97,-0.98,1.90
43.46,-6.90,-8.80,-6.90,-8.79,6.00,5.93,5.74,-0.90,-0.90,1.90
43.90,-6.84,-8.71,-6.84,-8.72,6.00,5.93,5.72,-0.84,-0.84,1.87
44.33,-6.79,-8.65,-6.80,-8.65,6.00,5.93,5.70,-0.79,-0.80,1.86
44.78,-6.75,-8.59,-6.74,-8.59,6.00,5.93,5.68,-0.75,-0.74,1.84
45.23,-6.68,-8.52,-6.68,-8.51,6.00,5.93,5.67,-0.68,-0.68,1.84
45.68,-6.59,-8.41,-6.59,-8.41,6.00,5.93,5.66,-0.59,-0.59,1.82
46.13,-6.49,-8.30,-6.49,-8.30,6.00,5.93,5.66,-0.49,-0.49,1.81
46.60,-6.39,-8.20,-6.40,-8.20,6.00,5.93,5.66,-0.39,-0.40,1.81
47.06,-6.31,-8.10,-6.34,-8.13,6.00,5.93,5.66,-0.31,-0.34,1.79
47.53,-6.29,-8.08,-6.29,-8.08,6.00,5.93,5.67,-0.29,-0.29,1.79
48.01,-6.27,-8.06,-6.24,-8.03,6.00,5.93,5.68,-0.27,-0.24,1.79
48.49,-6.17,-7.95,-6.18,-7.95,6.00,5.94,5.70,-0.17,-0.18,1.77
48.97,-6.08,-7.84,-6.08,-7.83,6.00,5.94,5.72,-0.08,-0.08,1.76
49.46,-5.98,-7.72,-5.98,-7.72,6.00,5.94,5.74,0.02,0.02,1.74
49.96,-5.88,-7.61,-5.92,-7.65,6.00,5.95,5.77,0.12,0.08,1.72
50.46,-5.87,-7.60,-5.87,-7.59,6.00,5.96,5.80,0.13,0.13,1.73
50.96,-5.86,-7.58,-5.82,-7.54,6.00,5.96,5.83,0.14,0.18,1.72
51.47,-5.77,-7.47,-5.77,-7.47,6.00,5.97,5.86,0.23,0.23,1.70
51.99,-5.66,-7.35,-5.70,-7.39,6.00,5.98,5.89,0.34,0.30,1.69
52.51,-5.63,-7.32,-5.63,-7.32,6.00,5.99,5.93,0.37,0.37,1.69
53.03,-5.60,-7.29,-5.58,-7.27,6.00,6.00,5.97,0.40,0.42,1.69
53.56,-5.52,-7.21,-5.53,-7.21,6.00,6.01,6.00,0.48,0.47,1.68
54.10,-5.45,-7.13,-5.46,-7.14,6.00,6.02,6.04,0.55,0.54,1.67
54.64,-5.40,-7.07,-5.40,-7.06,6.00,6.04,6.07,0.60,0.60,1.66
55.18,-5.34,-7.00,-5.34,-7.00,6.00,6.05,6.11,0.66,0.66,1.66
55.74,-5.29,-6.94,-5.29,-6.94,6.00,6.07,6.14,0.71,0.71,1.65
56.29,-5.23,-6.88,-5.23,-6.88,6.00,6.08,6.17,0.77,0.77,1.65
56.86,-5.17,-6.81,-5.17,-6.81,6.00,6.10,6.20,0.83,0.83,1.64
57.42,-5.12,-6.74,-5.12,-6.74,6.00,6.11,6.22,0.88,0.88,1.62
58.00,-5.06,-6.68,-5.07,-6.69,6.00,6.12,6.24,0.94,0.93,1.62
58.58,-5.03,-6.64,-5.02,-6.63,6.00,6.13,6.26,0.97,0.98,1.61
59.16,-4.98,-6.58,-4.96,-6.56,6.00,6.14,6.27,1.02,1.04,1.60
59.76,-4.89,-6.48,-4.92,-6.50,6.00,6.15,6.27,1.11,1.08,1.59
60.35,-4.86,-6.41,-4.87,-6.43,6.00,6.15,6.27,1.14,1.13,1.55
60.96,-4.86,-6.39,-4.84,-6.36,6.01,6.14,6.27,1.15,1.17,1.53
61.57,-4.80,-6.29,-4.80,-6.29,6.02,6.14,6.25,1.22,1.22,1.49
62.18,-4.74,-6.20,-4.74,-6.20,6.02,6.12,6.23,1.27,1.27,1.46
62.80,-4.68,-6.10,-4.69,-6.11,6.00,6.10,6.20,1.32,1.31,1.42
63.43,-4.66,-6.05,-4.67,-6.06,5.98,6.08,6.17,1.31,1.30,1.38
64.07,-4.66,-6.01,-4.67,-6.01,5.94,6.05,6.12,1.28,1.28,1.35
64.71,-4.66,-5.97,-4.63,-5.94,5.90,6.01,6.07,1.24,1.27,1.31
65.35,-4.59,-5.87,-4.57,-5.85,5.85,5.96,6.02,1.25,1.27,1.28
66.01,-4.46,-5.71,-4.51,-5.75,5.79,5.91,5.96,1.33,1.28,1.24
66.67,-4.46,-5.67,-4.46,-5.67,5.72,5.86,5.89,1.26,1.26,1.20
67.33,-4.46,-5.63,-4.45,-5.62,5.65,5.80,5.81,1.19,1.20,1.16
68.01,-4.46,-5.60,-4.47,-5.60,5.58,5.74,5.74,1.12,1.12,1.13
68.69,-4.46,-5.56,-4.45,-5.54,5.51,5.67,5.65,1.05,1.07,1.09
69.37,-4.42,-5.47,-4.42,-5.47,5.45,5.60,5.57,1.03,1.03,1.05
70.07,-4.36,-5.37,-4.39,-5.40,5.39,5.53,5.47,1.03,1.00,1.01
70.77,-4.36,-5.34,-4.35,-5.32,5.33,5.46,5.38,0.97,0.98,0.98
71.48,-4.32,-5.26,-4.31,-5.25,5.26,5.39,5.28,0.94,0.94,0.94
72.19,-4.28,-5.16,-4.29,-5.18,5.18,5.31,5.19,0.90,0.89,0.88
72.91,-4.26,-5.10,-4.27,-5.11,5.10,5.24,5.09,0.84,0.83,0.84
73.64,-4.26,-5.05,-4.25,-5.04,5.03,5.17,4.99,0.77,0.77,0.79
74.38,-4.24,-4.99,-4.23,-4.98,4.96,5.10,4.88,0.72,0.73,0.75
75.12,-4.19,-4.89,-4.20,-4.90,4.90,5.02,4.78,0.71,0.71,0.70
75.87,-4.16,-4.82,-4.16,-4.82,4.85,4.95,4.68,0.69,0.69,0.65
76.63,-4.15,-4.77,-4.16,-4.77,4.81,4.89,4.58,0.66,0.66,0.62
77.40,-4.17,-4.75,-4.18,-4.76,4.78,4.82,4.48,0.61,0.60,0.58
78.17,-4.22,-4.75,-4.22,-4.76,4.75,4.75,4.38,0.53,0.54,0.53
78.95,-4.26,-4.77,-4.25,-4.75,4.73,4.68,4.28,0.47,0.49,0.51
79.74,-4.26,-4.73,-4.26,-4.74,4.71,4.62,4.19,0.45,0.45,0.47
80.54,-4.26,-4.70,-4.27,-4.71,4.69,4.56,4.09,0.43,0.43,0.44
81.35,-4.26,-4.66,-4.26,-4.67,4.67,4.49,4.00,0.41,0.41,0.40
82.16,-4.26,-4.63,-4.27,-4.64,4.64,4.43,3.91,0.37,0.37,0.37
82.98,-4.26,-4.61,-4.26,-4.60,4.59,4.37,3.82,0.33,0.34,0.35
83.81,-4.24,-4.55,-4.23,-4.54,4.54,4.31,3.74,0.30,0.31,0.31
84.65,-4.19,-4.47,-4.20,-4.48,4.48,4.25,3.65,0.29,0.28,0.27
85.50,-4.16,-4.41,-4.18,-4.42,4.42,4.19,3.57,0.26,0.24,0.25
86.35,-4.15,-4.37,-4.15,-4.36,4.35,4.13,3.50,0.20,0.20,0.22
87.22,-4.13,-4.31,-4.11,-4.29,4.28,4.08,3.42,0.15,0.17,0.18
88.09,-4.04,-4.19,-4.05,-4.20,4.21,4.02,3.35,0.16,0.15,0.15
88.97,-3.99,-4.10,-4.01,-4.12,4.13,3.97,3.28,0.14,0.13,0.11
89.86,-3.96,-4.04,-3.96,-4.04,4.06,3.91,3.21,0.10,0.10,0.08
90.76,-3.95,-3.99,-3.93,-3.97,3.98,3.85,3.14,0.03,0.05,0.04
91.66,-3.89,-3.90,-3.90,-3.91,3.90,3.80,3.08,0.01,-0.00,0.01
92.58,-3.85,-3.82,-3.87,-3.85,3.82,3.75,3.02,-0.03,-0.05,-0.03
93.51,-3.85,-3.79,-3.82,-3.76,3.74,3.69,2.96,-0.11,-0.07,-0.06
94.44,-3.77,-3.68,-3.76,-3.67,3.67,3.64,2.90,-0.11,-0.09,-0.09
95.39,-3.66,-3.55,-3.70,-3.58,3.59,3.58,2.85,-0.07,-0.12,-0.12
96.34,-3.65,-3.50,-3.65,-3.50,3.51,3.53,2.80,-0.14,-0.14,-0.15
97.30,-3.63,-3.45,-3.60,-3.42,3.43,3.47,2.75,-0.20,-0.17,-0.18
98.28,-3.56,-3.35,-3.56,-3.35,3.35,3.42,2.70,-0.21,-0.21,-0.21
99.26,-3.49,-3.25,-3.53,-3.29,3.28,3.36,2.65,-0.21,-0.25,-0.24
100.25,-3.50,-3.23,-3.49,-3.22,3.21,3.31,2.61,-0.29,-0.28,-0.27
101.25,-3.49,-3.19,-3.46,-3.16,3.15,3.25,2.57,-0.34,-0.31,-0.30
102.27,-3.41,-3.08,-3.42,-3.09,3.10,3.19,2.53,-0.32,-0.33,-0.33
103.29,-3.37,-3.00,-3.39,-3.03,3.05,3.13,2.49,-0.33,-0.34,-0.37
104.32,-3.36,-2.98,-3.37,-2.98,3.00,3.06,2.45,-0.36,-0.37,-0.39
105.37,-3.38,-2.97,-3.37,-2.95,2.96,3.00,2.41,-0.42,-0.41,-0.42
106.42,-3.37,-2.93,-3.36,-2.91,2.91,2.93,2.38,-0.46,-0.45,-0.45
107.48,-3.34,-2.86,-3.36,-2.88,2.87,2.87,2.34,-0.47,-0.49,-0.48
108.56,-3.35,-2.83,-3.36,-2.84,2.82,2.80,2.31,-0.53,-0.54,-0.52
109.64,-3.37,-2.82,-3.34,-2.79,2.77,2.73,2.27,-0.60,-0.57,-0.55
110.74,-3.32,-2.73,-3.31,-2.72,2.71,2.65,2.24,-0.61,-0.60,-0.59
111.85,-3.22,-2.61,-3.26,-2.64,2.64,2.58,2.21,-0.58,-0.62,-0.61
112.97,-3.22,-2.56,-3.21,-2.55,2.56,2.50,2.17,-0.66,-0.64,-0.66
114.10,-3.16,-2.47,-3.16,-2.47,2.48,2.42,2.14,-0.68,-0.68,-0.69
115.24,-3.12,-2.40,-3.12,-2.40,2.39,2.34,2.11,-0.73,-0.74,-0.72
116.39,-3.05,-2.30,-3.05,-2.30,2.29,2.25,2.07,-0.76,-0.75,-0.75
117.55,-2.98,-2.21,-2.97,-2.19,2.19,2.17,2.04,-0.79,-0.77,-0.77
118.73,-2.85,-2.05,-2.89,-2.09,2.09,2.08,2.00,-0.76,-0.80,-0.80
119.92,-2.81,-2.00,-2.81,-1.99,1.99,2.00,1.97,-0.82,-0.81,-0.81
121.12,-2.74,-1.91,-2.72,-1.89,1.89,1.91,1.93,-0.85,-0.82,-0.83
122.33,-2.63,-1.78,-2.63,-1.79,1.80,1.82,1.89,-0.84,-0.84,-0.85
123.55,-2.52,-1.67,-2.55,-1.69,1.70,1.73,1.86,-0.82,-0.85,-0.86
124.79,-2.47,-1.60,-2.47,-1.60,1.61,1.65,1.82,-0.87,-0.87,-0.87
126.03,-2.43,-1.55,-2.40,-1.52,1.51,1.56,1.78,-0.92,-0.89,-0.89
127.29,-2.32,-1.43,-2.35,-1.45,1.42,1.47,1.73,-0.90,-0.92,-0.89
128.57,-2.25,-1.34,-2.26,-1.35,1.34,1.38,1.69,-0.91,-0.92,-0.91
129.85,-2.22,-1.29,-2.17,-1.24,1.25,1.30,1.65,-0.97,-0.91,-0.93
131.15,-2.04,-1.10,-2.11,-1.16,1.17,1.21,1.60,-0.87,-0.93,-0.94
132.46,-2.04,-1.09,-2.05,-1.09,1.10,1.12,1.56,-0.95,-0.95,-0.95
133.79,-2.03,-1.07,-1.98,-1.01,1.02,1.04,1.51,-1.01,-0.96,-0.97
135.12,-1.92,-0.93,-1.93,-0.95,0.95,0.96,1.46,-0.97,-0.98,-0.99
136.48,-1.85,-0.86,-1.87,-0.88,0.88,0.88,1.41,-0.97,-0.99,-0.99
137.84,-1.82,-0.81,-1.83,-0.82,0.82,0.80,1.36,-1.00,-1.01,-1.01
139.22,-1.82,-0.79,-1.80,-0.77,0.76,0.72,1.31,-1.06,-1.04,-1.03
140.61,-1.78,-0.73,-1.75,-0.71,0.70,0.64,1.26,-1.08,-1.05,-1.05
142.02,-1.65,-0.61,-1.69,-0.64,0.64,0.57,1.20,-1.01,-1.05,-1.05
143.44,-1.63,-0.57,-1.64,-0.57,0.59,0.49,1.15,-1.04,-1.05,-1.06
144.87,-1.62,-0.53,-1.60,-0.51,0.53,0.42,1.09,-1.09,-1.07,-1.09
146.32,-1.57,-0.45,-1.58,-0.47,0.46,0.35,1.04,-1.11,-1.11,-1.12
147.78,-1.53,-0.40,-1.54,-0.41,0.39,0.28,0.98,-1.14,-1.15,-1.13
149.26,-1.52,-0.35,-1.51,-0.34,0.31,0.21,0.93,-1.21,-1.20,-1.17
150.75,-1.48,-0.26,-1.48,-0.26,0.22,0.15,0.87,-1.26,-1.26,-1.22
152.26,-1.44,-0.16,-1.44,-0.17,0.13,0.09,0.81,-1.31,-1.31,-1.28
153.78,-1.40,-0.07,-1.39,-0.06,0.04,0.02,0.76,-1.36,-1.35,-1.33
155.32,-1.34,0.05,-1.35,0.05,-0.04,-0.04,0.70,-1.38,-1.39,-1.40
156.88,-1.31,0.15,-1.32,0.15,-0.10,-0.10,0.64,-1.42,-1.42,-1.46
158.44,-1.31,0.22,-1.31,0.22,-0.15,-0.15,0.59,-1.46,-1.46,-1.53
160.03,-1.34,0.26,-1.34,0.25,-0.17,-0.21,0.53,-1.52,-1.52,-1.60
161.63,-1.40,0.26,-1.42,0.24,-0.19,-0.26,0.47,-1.59,-1.62,-1.66
163.24,-1.52,0.19,-1.52,0.19,-0.21,-0.32,0.41,-1.73,-1.73,-1.71
164.88,-1.62,0.13,-1.60,0.16,-0.23,-0.37,0.35,-1.85,-1.83,-1.75
166.53,-1.63,0.16,-1.64,0.15,-0.26,-0.42,0.30,-1.89,-1.90,-1.79
168.19,-1.60,0.22,-1.60,0.22,-0.30,-0.46,0.24,-1.90,-1.90,-1.82
169.87,-1.54,0.31,-1.50,0.34,-0.36,-0.51,0.18,-1.90,-1.86,-1.85
171.57,-1.36,0.50,-1.40,0.46,-0.43,-0.55,0.12,-1.79,-1.83,-1.86
173.29,-1.27,0.59,-1.31,0.56,-0.51,-0.60,0.06,-1.78,-1.82,-1.86
175.02,-1.26,0.60,-1.22,0.64,-0.59,-0.64,0.00,-1.85,-1.82,-1.86
176.77,-1.18,0.69,-1.17,0.70,-0.67,-0.68,-0.06,-1.85,-1.84,-1.87
178.54,-1.09,0.77,-1.11,0.74,-0.73,-0.72,-0.12,-1.82,-1.85,-1.86
180.32,-1.05,0.80,-1.07,0.78,-0.78,-0.76,-0.17,-1.83,-1.85,-1.85
182.13,-1.05,0.78,-1.04,0.80,-0.82,-0.79,-0.23,-1.87,-1.86,-1.83
183.95,-1.03,0.80,-1.00,0.83,-0.85,-0.83,-0.29,-1.88,-1.85,-1.84
185.79,-0.94,0.89,-0.96,0.87,-0.88,-0.86,-0.35,-1.82,-1.84,-1.83
187.65,-0.91,0.93,-0.92,0.92,-0.90,-0.90,-0.41,-1.82,-1.83,-1.84
189.52,-0.90,0.94,-0.90,0.95,-0.94,-0.93,-0.47,-1.84,-1.83,-1.85
191.42,-0.89,0.97,-0.89,0.97,-0.97,-0.96,-0.53,-1.86,-1.86,-1.86
193.33,-0.87,1.00,-0.87,1.00,-1.01,-0.99,-0.59,-1.89,-1.89,-1.87
195.27,-0.85,1.03,-0.84,1.04,-1.06,-1.02,-0.65,-1.91,-1.90,-1.88
197.22,-0.80,1.09,-0.80,1.09,-1.11,-1.04,-0.71,-1.91,-1.92,-1.89
199.19,-0.75,1.16,-0.76,1.15,-1.16,-1.07,-0.77,-1.91,-1.92,-1.91
201.18,-0.72,1.20,-0.71,1.22,-1.21,-1.09,-0.83,-1.93,-1.92,-1.93
203.19,-0.66,1.27,-0.66,1.28,-1.25,-1.12,-0.89,-1.91,-1.91,-1.94
205.23,-0.61,1.34,-0.63,1.32,-1.29,-1.14,-0.95,-1.90,-1.92,-1.96
207.28,-0.61,1.34,-0.61,1.35,-1.33,-1.16,-1.01,-1.94,-1.94,-1.95
209.35,-0.62,1.35,-0.61,1.37,-1.36,-1.18,-1.06,-1.98,-1.97,-1.97
211.44,-0.62,1.38,-0.63,1.36,-1.39,-1.20,-1.12,-2.01,-2.01,-2.00
213.56,-0.62,1.38,-0.63,1.38,-1.41,-1.22,-1.17,-2.03,-2.03,-2.00
215.69,-0.63,1.38,-0.61,1.40,-1.42,-1.24,-1.23,-2.05,-2.03,-2.01
217.85,-0.57,1.45,-0.58,1.44,-1.44,-1.25,-1.28,-2.01,-2.02,-2.02
220.03,-0.54,1.48,-0.55,1.48,-1.46,-1.27,-1.33,-2.00,-2.01,-2.03
222.23,-0.53,1.51,-0.53,1.50,-1.48,-1.29,-1.38,-2.01,-2.01,-2.04
224.45,-0.54,1.49,-0.54,1.49,-1.50,-1.30,-1.43,-2.04,-2.04,-2.03
226.70,-0.53,1.50,-0.53,1.50,-1.52,-1.31,-1.47,-2.05,-2.05,-2.03
228.96,-0.52,1.49,-0.50,1.51,-1.54,-1.33,-1.52,-2.06,-2.03,-2.01
231.25,-0.44,1.56,-0.46,1.54,-1.55,-1.34,-1.56,-1.99,-2.01,-2.00
233.57,-0.41,1.57,-0.42,1.57,-1.55,-1.35,-1.60,-1.96,-1.97,-1.99
235.90,-0.40,1.57,-0.39,1.58,-1.55,-1.36,-1.63,-1.95,-1.95,-1.97
238.26,-0.38,1.58,-0.38,1.57,-1.55,-1.37,-1.66,-1.94,-1.94,-1.96
240.64,-0.37,1.56,-0.37,1.56,-1.56,-1.38,-1.69,-1.93,-1.93,-1.93
243.05,-0.36,1.54,-0.36,1.54,-1.56,-1.38,-1.72,-1.92,-1.91,-1.90
245.48,-0.34,1.53,-0.34,1.53,-1.56,-1.39,-1.74,-1.90,-1.90,-1.87
247.93,-0.31,1.53,-0.32,1.52,-1.55,-1.40,-1.76,-1.87,-1.87,-1.84
250.41,-0.29,1.53,-0.28,1.53,-1.55,-1.40,-1.77,-1.84,-1.83,-1.82
252.92,-0.26,1.53,-0.24,1.55,-1.54,-1.41,-1.79,-1.80,-1.77,-1.79
255.45,-0.18,1.58,-0.21,1.56,-1.53,-1.41,-1.79,-1.71,-1.73,-1.76
258.00,-0.17,1.57,-0.20,1.54,-1.51,-1.42,-1.80,-1.68,-1.71,-1.74
260.58,-0.24,1.48,-0.21,1.50,-1.49,-1.42,-1.80,-1.73,-1.70,-1.72
263.19,-0.24,1.44,-0.24,1.45,-1.46,-1.42,-1.80,-1.70,-1.70,-1.69
265.82,-0.25,1.42,-0.25,1.41,-1.43,-1.43,-1.80,-1.68,-1.69,-1.67
268.48,-0.25,1.39,-0.25,1.39,-1.40,-1.43,-1.79,-1.65,-1.65,-1.64
271.16,-0.25,1.35,-0.26,1.36,-1.36,-1.43,-1.78,-1.61,-1.61,-1.61
273.87,-0.26,1.33,-0.26,1.32,-1.32,-1.43,-1.77,-1.59,-1.58,-1.59
276.61,-0.26,1.29,-0.26,1.29,-1.29,-1.43,-1.76,-1.55,-1.55,-1.55
279.38,-0.26,1.26,-0.26,1.27,-1.26,-1.43,-1.74,-1.53,-1.52,-1.53
282.17,-0.25,1.25,-0.26,1.24,-1.24,-1.43,-1.73,-1.49,-1.49,-1.50
284.99,-0.25,1.21,-0.25,1.22,-1.21,-1.43,-1.71,-1.46,-1.46,-1.46
287.84,-0.24,1.20,-0.24,1.20,-1.19,-1.43,-1.69,-1.43,-1.43,-1.44
290.72,-0.23,1.18,-0.23,1.18,-1.18,-1.42,-1.67,-1.41,-1.41,-1.41
293.63,-0.22,1.16,-0.23,1.15,-1.17,-1.42,-1.64,-1.39,-1.40,-1.38
296.57,-0.20,1.14,-0.20,1.14,-1.17,-1.42,-1.62,-1.37,-1.37,-1.34
299.53,-0.19,1.12,-0.16,1.15,-1.16,-1.41,-1.60,-1.35,-1.33,-1.31
302.53,-0.10,1.20,-0.12,1.17,-1.16,-1.41,-1.57,-1.26,-1.28,-1.30
305.55,-0.07,1.18,-0.08,1.18,-1.15,-1.41,-1.55,-1.22,-1.23,-1.25
308.61,-0.06,1.17,-0.05,1.17,-1.15,-1.40,-1.53,-1.21,-1.20,-1.23
311.69,-0.05,1.15,-0.05,1.15,-1.15,-1.40,-1.50,-1.20,-1.20,-1.20
314.81,-0.05,1.12,-0.05,1.12,-1.14,-1.39,-1.48,-1.19,-1.19,-1.18
317.96,-0.05,1.11,-0.05,1.11,-1.13,-1.39,-1.46,-1.18,-1.17,-1.16
321.14,-0.05,1.10,-0.04,1.11,-1.11,-1.38,-1.44,-1.16,-1.15,-1.15
324.35,-0.01,1.12,-0.03,1.10,-1.08,-1.37,-1.41,-1.10,-1.12,-1.13
327.59,-0.03,1.08,-0.03,1.08,-1.06,-1.37,-1.39,-1.09,-1.09,-1.11
330.87,-0.05,1.05,-0.04,1.06,-1.03,-1.36,-1.37,-1.08,-1.07,-1.10
334.18,-0.05,1.03,-0.05,1.03,-1.02,-1.35,-1.35,-1.07,-1.07,-1.09
337.52,-0.05,1.03,-0.06,1.01,-1.02,-1.34,-1.34,-1.07,-1.08,-1.08
340.90,-0.06,1.00,-0.07,0.99,-1.04,-1.34,-1.32,-1.10,-1.11,-1.06
344.30,-0.06,0.99,-0.06,1.00,-1.07,-1.33,-1.30,-1.13,-1.13,-1.05
347.75,-0.03,1.02,0.01,1.05,-1.12,-1.32,-1.29,-1.15,-1.11,-1.05
351.23,0.12,1.16,0.12,1.16,-1.17,-1.31,-1.27,-1.05,-1.06,-1.04
354.74,0.26,1.30,0.23,1.28,-1.23,-1.30,-1.26,-0.97,-1.00,-1.04
358.28,0.34,1.37,0.33,1.36,-1.29,-1.29,-1.25,-0.95,-0.96,-1.03
361.87,0.36,1.39,0.36,1.40,-1.34,-1.28,-1.24,-0.99,-0.98,-1.04
365.49,0.37,1.40,0.37,1.40,-1.39,-1.28,-1.23,-1.02,-1.02,-1.03
369.14,0.37,1.41,0.37,1.41,-1.43,-1.27,-1.22,-1.06,-1.05,-1.04
372.83,0.38,1.42,0.38,1.42,-1.44,-1.26,-1.21,-1.06,-1.06,-1.04
376.56,0.39,1.43,0.39,1.43,-1.44,-1.25,-1.20,-1.05,-1.05,-1.04
380.33,0.40,1.43,0.40,1.44,-1.44,-1.24,-1.19,-1.04,-1.03,-1.03
384.13,0.41,1.44,0.41,1.44,-1.44,-1.23,-1.19,-1.03,-1.03,-1.03
387.97,0.41,1.45,0.39,1.43,-1.43,-1.22,-1.19,-1.02,-1.04,-1.04
391.85,0.36,1.41,0.36,1.41,-1.42,-1.20,-1.18,-1.06,-1.06,-1.05
395.77,0.32,1.36,0.33,1.38,-1.40,-1.19,-1.18,-1.08,-1.07,-1.04
399.73,0.31,1.36,0.32,1.38,-1.36,-1.18,-1.18,-1.05,-1.04,-1.05
403.72,0.31,1.36,0.31,1.37,-1.31,-1.17,-1.18,-1.00,-1.00,-1.06
407.76,0.30,1.36,0.25,1.32,-1.26,-1.16,-1.18,-0.96,-1.01,-1.07
411.84,0.16,1.23,0.15,1.22,-1.21,-1.15,-1.18,-1.05,-1.05,-1.07
415.96,0.02,1.09,0.05,1.12,-1.16,-1.14,-1.18,-1.14,-1.10,-1.07
420.12,-0.03,1.04,-0.01,1.06,-1.12,-1.13,-1.18,-1.15,-1.13,-1.07
424.32,-0.00,1.07,-0.02,1.05,-1.09,-1.12,-1.18,-1.09,-1.11,-1.07
428.56,0.02,1.08,-0.01,1.05,-1.08,-1.11,-1.18,-1.06,-1.09,-1.06
432.85,0.01,1.06,0.02,1.07,-1.08,-1.09,-1.18,-1.07,-1.06,-1.05
437.18,0.03,1.07,0.06,1.10,-1.10,-1.08,-1.18,-1.07,-1.04,-1.04
441.55,0.15,1.15,0.13,1.14,-1.13,-1.07,-1.18,-0.98,-1.00,-1.00
445.96,0.24,1.21,0.22,1.19,-1.17,-1.06,-1.19,-0.93,-0.95,-0.97
