frequency,raw,error,smoothed,error_smoothed,equalization,parametric_eq,fixed_band_eq,equalized_raw,equalized_smoothed,target
20.00,-2.24,-1.88,-2.25,-1.89,1.84,1.59,0.65,-0.40,-0.40,-0.36
20.20,-2.15,-1.84,-2.15,-1.83,1.82,1.59,0.67,-0.33,-0.33,-0.31
20.40,-2.07,-1.81,-2.06,-1.79,1.80,1.59,0.69,-0.27,-0.26,-0.26
20.61,-1.98,-1.75,-1.98,-1.75,1.77,1.59,0.71,-0.21,-0.20,-0.23
20.81,-1.90,-1.72,-1.90,-1.71,1.76,1.58,0.73,-0.14,-0.14,-0.18
21.02,-1.82,-1.68,-1.84,-1.69,1.74,1.58,0.76,-0.08,-0.10,-0.14
21.23,-1.82,-1.70,-1.82,-1.70,1.73,1.58,0.78,-0.09,-0.09,-0.12
21.44,-1.82,-1.72,-1.81,-1.71,1.72,1.58,0.80,-0.10,-0.10,-0.10
21.66,-1.82,-1.74,-1.82,-1.74,1.72,1.58,0.83,-0.10,-0.10,-0.08
21.87,-1.82,-1.75,-1.82,-1.75,1.72,1.58,0.85,-0.10,-0.09,-0.07
22.09,-1.81,-1.76,-1.81,-1.75,1.72,1.58,0.88,-0.09,-0.08,-0.05
22.31,-1.79,-1.75,-1.79,-1.74,1.72,1.57,0.90,-0.07,-0.07,-0.04
22.54,-1.77,-1.73,-1.77,-1.72,1.72,1.57,0.93,-0.06,-0.05,-0.05
22.76,-1.74,-1.69,-1.74,-1.70,1.70,1.57,0.96,-0.04,-0.04,-0.05
22.99,-1.72,-1.66,-1.73,-1.67,1.69,1.57,0.99,-0.03,-0.03,-0.06
23.22,-1.72,-1.66,-1.72,-1.66,1.68,1.57,1.02,-0.04,-0.04,-0.06
23.45,-1.72,-1.66,-1.72,-1.66,1.68,1.57,1.04,-0.04,-0.04,-0.06
23.69,-1.72,-1.67,-1.72,-1.67,1.67,1.56,1.08,-0.05,-0.05,-0.05
23.92,-1.72,-1.67,-1.72,-1.68,1.68,1.56,1.11,-0.05,-0.05,-0.05
24.16,-1.72,-1.68,-1.72,-1.68,1.68,1.56,1.14,-0.04,-0.04,-0.04
24.40,-1.72,-1.69,-1.72,-1.69,1.68,1.56,1.17,-0.04,-0.04,-0.03
24.65,-1.72,-1.68,-1.72,-1.69,1.68,1.56,1.20,-0.04,-0.04,-0.04
24.89,-1.72,-1.68,-1.72,-1.68,1.67,1.56,1.23,-0.05,-0.05,-0.04
25.14,-1.71,-1.67,-1.70,-1.67,1.66,1.55,1.27,-0.05,-0.04,-0.04
25.39,-1.68,-1.65,-1.68,-1.65,1.64,1.55,1.30,-0.04,-0.04,-0.03
25.65,-1.65,-1.62,-1.66,-1.62,1.62,1.55,1.33,-0.03,-0.04,-0.03
25.91,-1.63,-1.59,-1.63,-1.59,1.59,1.55,1.36,-0.04,-0.04,-0.04
26.16,-1.60,-1.56,-1.60,-1.56,1.57,1.55,1.40,-0.03,-0.04,-0.04
26.43,-1.58,-1.54,-1.58,-1.53,1.54,1.54,1.43,-0.04,-0.03,-0.04
26.69,-1.55,-1.51,-1.55,-1.51,1.52,1.54,1.46,-0.03,-0.03,-0.04
26.96,-1.52,-1.49,-1.53,-1.49,1.50,1.54,1.49,-0.02,-0.03,-0.03
27.23,-1.52,-1.49,-1.52,-1.48,1.49,1.54,1.52,-0.03,-0.03,-0.03
27.50,-1.52,-1.49,-1.52,-1.48,1.48,1.53,1.55,-0.04,-0.04,-0.04
27.77,-1.52,-1.47,-1.52,-1.48,1.47,1.53,1.58,-0.05,-0.05,-0.05
28.05,-1.52,-1.47,-1.52,-1.47,1.47,1.53,1.61,-0.05,-0.05,-0.05
28.33,-1.52,-1.46,-1.52,-1.47,1.47,1.53,1.64,-0.06,-0.06,-0.06
28.62,-1.52,-1.46,-1.52,-1.46,1.46,1.52,1.66,-0.06,-0.06,-0.06
28.90,-1.52,-1.47,-1.52,-1.47,1.47,1.52,1.68,-0.05,-0.05,-0.05
29.19,-1.52,-1.46,-1.52,-1.47,1.47,1.52,1.70,-0.05,-0.05,-0.06
29.48,-1.52,-1.48,-1.52,-1.47,1.48,1.52,1.72,-0.04,-0.04,-0.04
29.78,-1.52,-1.47,-1.52,-1.47,1.49,1.51,1.74,-0.03,-0.03,-0.05
30.08,-1.52,-1.48,-1.53,-1.48,1.49,1.51,1.76,-0.03,-0.04,-0.04
30.38,-1.54,-1.49,-1.55,-1.49,1.49,1.51,1.77,-0.05,-0.06,-0.05
30.68,-1.56,-1.51,-1.56,-1.51,1.48,1.50,1.78,-0.08,-0.08,-0.06
30.99,-1.58,-1.52,-1.56,-1.50,1.47,1.50,1.79,-0.11,-0.09,-0.06
31.30,-1.53,-1.47,-1.53,-1.47,1.45,1.50,1.79,-0.08,-0.08,-0.06
31.61,-1.48,-1.42,-1.49,-1.42,1.43,1.49,1.79,-0.05,-0.05,-0.06
31.93,-1.43,-1.37,-1.44,-1.38,1.41,1.49,1.79,-0.02,-0.03,-0.06
32.24,-1.42,-1.35,-1.42,-1.36,1.39,1.49,1.79,-0.03,-0.04,-0.07
32.57,-1.42,-1.36,-1.42,-1.35,1.37,1.48,1.79,-0.05,-0.05,-0.06
32.89,-1.42,-1.36,-1.42,-1.35,1.35,1.48,1.78,-0.07,-0.07,-0.06
33.22,-1.42,-1.34,-1.42,-1.35,1.34,1.48,1.77,-0.08,-0.08,-0.08
33.55,-1.42,-1.34,-1.42,-1.34,1.33,1.47,1.76,-0.09,-0.09,-0.08
33.89,-1.42,-1.33,-1.42,-1.34,1.33,1.47,1.75,-0.09,-0.09,-0.09
34.23,-1.42,-1.34,-1.42,-1.33,1.33,1.46,1.74,-0.09,-0.09,-0.08
34.57,-1.42,-1.33,-1.42,-1.33,1.33,1.46,1.72,-0.09,-0.09,-0.09
34.92,-1.42,-1.33,-1.42,-1.33,1.33,1.46,1.70,-0.09,-0.09,-0.09
35.27,-1.42,-1.32,-1.42,-1.32,1.32,1.45,1.69,-0.10,-0.10,-0.10
35.62,-1.42,-1.32,-1.42,-1.32,1.32,1.45,1.67,-0.10,-0.10,-0.10
35.97,-1.42,-1.32,-1.42,-1.32,1.32,1.44,1.65,-0.10,-0.10,-0.10
36.33,-1.42,-1.33,-1.42,-1.32,1.32,1.44,1.63,-0.10,-0.10,-0.09
36.70,-1.42,-1.32,-1.42,-1.32,1.32,1.43,1.61,-0.10,-0.10,-0.10
37.06,-1.42,-1.31,-1.42,-1.32,1.32,1.43,1.58,-0.10,-0.10,-0.11
37.43,-1.42,-1.33,-1.42,-1.32,1.32,1.42,1.56,-0.10,-0.10,-0.09
37.81,-1.42,-1.33,-1.42,-1.33,1.33,1.42,1.54,-0.09,-0.09,-0.09
38.19,-1.42,-1.33,-1.42,-1.33,1.33,1.41,1.52,-0.09,-0.09,-0.10
38.57,-1.42,-1.33,-1.42,-1.33,1.33,1.41,1.50,-0.09,-0.09,-0.09
38.95,-1.42,-1.34,-1.42,-1.34,1.33,1.40,1.48,-0.09,-0.09,-0.08
39.34,-1.42,-1.34,-1.42,-1.34,1.34,1.40,1.46,-0.08,-0.08,-0.08
39.74,-1.42,-1.33,-1.42,-1.34,1.34,1.39,1.44,-0.08,-0.08,-0.09
40.14,-1.42,-1.34,-1.42,-1.34,1.34,1.38,1.42,-0.08,-0.08,-0.08
40.54,-1.42,-1.34,-1.42,-1.34,1.34,1.38,1.40,-0.08,-0.08,-0.08
40.94,-1.42,-1.33,-1.42,-1.33,1.34,1.37,1.38,-0.08,-0.08,-0.09
41.35,-1.42,-1.33,-1.42,-1.33,1.33,1.37,1.37,-0.09,-0.09,-0.09
41.76,-1.42,-1.33,-1.42,-1.33,1.33,1.36,1.35,-0.09,-0.09,-0.09
42.18,-1.42,-1.33,-1.42,-1.33,1.33,1.35,1.34,-0.10,-0.10,-0.09
42.60,-1.42,-1.32,-1.42,-1.32,1.32,1.34,1.32,-0.10,-0.10,-0.10
43.03,-1.42,-1.31,-1.42,-1.32,1.31,1.34,1.31,-0.11,-0.11,-0.11
43.46,-1.42,-1.31,-1.42,-1.30,1.30,1.33,1.30,-0.12,-0.12,-0.11
43.90,-1.42,-1.29,-1.42,-1.29,1.29,1.32,1.29,-0.13,-0.13,-0.13
44.33,-1.42,-1.27,-1.42,-1.27,1.27,1.31,1.28,-0.15,-0.15,-0.15
44.78,-1.42,-1.26,-1.42,-1.26,1.27,1.31,1.27,-0.15,-0.15,-0.16
45.23,-1.42,-1.25,-1.42,-1.25,1.26,1.30,1.26,-0.16,-0.16,-0.17
45.68,-1.42,-1.24,-1.42,-1.24,1.24,1.29,1.25,-0.18,-0.18,-0.19
46.13,-1.42,-1.22,-1.42,-1.23,1.22,1.28,1.25,-0.20,-0.20,-0.20
46.60,-1.42,-1.22,-1.42,-1.22,1.19,1.27,1.24,-0.23,-0.23,-0.20
47.06,-1.42,-1.21,-1.43,-1.22,1.17,1.26,1.24,-0.25,-0.25,-0.21
47.53,-1.42,-1.20,-1.43,-1.21,1.17,1.25,1.24,-0.25,-0.26,-0.22
48.01,-1.42,-1.21,-1.37,-1.15,1.18,1.24,1.23,-0.24,-0.19,-0.21
48.49,-1.34,-1.11,-1.33,-1.10,1.19,1.23,1.23,-0.15,-0.13,-0.23
48.97,-1.25,-1.00,-1.37,-1.12,1.21,1.22,1.23,-0.04,-0.16,-0.25
49.46,-1.47,-1.21,-1.47,-1.21,1.24,1.21,1.23,-0.24,-0.24,-0.27
49.96,-1.70,-1.42,-1.59,-1.32,1.26,1.20,1.23,-0.44,-0.33,-0.28
50.46,-1.67,-1.39,-1.67,-1.39,1.28,1.19,1.23,-0.39,-0.39,-0.28
50.96,-1.62,-1.33,-1.66,-1.37,1.31,1.18,1.23,-0.31,-0.35,-0.29
51.47,-1.62,-1.31,-1.62,-1.32,1.33,1.17,1.24,-0.29,-0.29,-0.31
51.99,-1.62,-1.31,-1.62,-1.31,1.34,1.16,1.24,-0.29,-0.28,-0.31
52.51,-1.62,-1.31,-1.62,-1.31,1.33,1.15,1.24,-0.30,-0.30,-0.31
53.03,-1.62,-1.31,-1.62,-1.30,1.31,1.13,1.24,-0.31,-0.31,-0.31
53.56,-1.62,-1.30,-1.62,-1.30,1.31,1.12,1.25,-0.31,-0.31,-0.32
54.10,-1.62,-1.29,-1.62,-1.29,1.31,1.11,1.25,-0.31,-0.31,-0.33
54.64,-1.62,-1.28,-1.62,-1.28,1.31,1.09,1.25,-0.31,-0.30,-0.34
55.18,-1.62,-1.28,-1.61,-1.27,1.30,1.08,1.25,-0.32,-0.31,-0.34
55.74,-1.62,-1.27,-1.66,-1.31,1.27,1.07,1.25,-0.35,-0.40,-0.35
56.29,-1.67,-1.32,-1.71,-1.35,1.23,1.05,1.25,-0.44,-0.48,-0.35
56.86,-1.77,-1.40,-1.64,-1.27,1.19,1.04,1.25,-0.58,-0.45,-0.37
57.42,-1.56,-1.17,-1.52,-1.14,1.14,1.02,1.24,-0.41,-0.38,-0.39
58.00,-1.24,-0.85,-1.40,-1.01,1.10,1.01,1.24,-0.14,-0.30,-0.39
58.58,-1.34,-0.95,-1.33,-0.93,1.05,0.99,1.23,-0.29,-0.28,-0.39
59.16,-1.42,-1.01,-1.36,-0.95,1.01,0.97,1.22,-0.41,-0.35,-0.41
59.76,-1.42,-1.00,-1.43,-1.00,0.96,0.96,1.21,-0.46,-0.47,-0.42
60.35,-1.42,-0.97,-1.43,-0.98,0.92,0.94,1.20,-0.50,-0.51,-0.45
60.96,-1.42,-0.94,-1.42,-0.94,0.91,0.92,1.19,-0.51,-0.51,-0.48
61.57,-1.42,-0.91,-1.42,-0.91,0.90,0.90,1.17,-0.52,-0.52,-0.51
62.18,-1.42,-0.87,-1.42,-0.87,0.90,0.88,1.16,-0.52,-0.52,-0.55
62.80,-1.42,-0.84,-1.41,-0.82,0.87,0.86,1.14,-0.55,-0.54,-0.59
63.43,-1.42,-0.80,-1.43,-0.81,0.83,0.84,1.12,-0.59,-0.60,-0.62
64.07,-1.43,-0.77,-1.48,-0.82,0.78,0.82,1.09,-0.65,-0.70,-0.66
64.71,-1.55,-0.85,-1.48,-0.79,0.73,0.80,1.07,-0.82,-0.75,-0.70
65.35,-1.50,-0.78,-1.45,-0.73,0.68,0.78,1.04,-0.82,-0.77,-0.72
66.01,-1.32,-0.56,-1.39,-0.63,0.63,0.76,1.01,-0.70,-0.77,-0.76
66.67,-1.32,-0.52,-1.32,-0.52,0.57,0.74,0.98,-0.75,-0.76,-0.80
67.33,-1.32,-0.48,-1.30,-0.47,0.51,0.71,0.95,-0.81,-0.80,-0.84
68.01,-1.32,-0.45,-1.32,-0.45,0.45,0.69,0.91,-0.87,-0.87,-0.87
68.69,-1.32,-0.41,-1.32,-0.40,0.41,0.66,0.87,-0.91,-0.91,-0.91
69.37,-1.32,-0.37,-1.32,-0.37,0.38,0.64,0.83,-0.95,-0.94,-0.95
70.07,-1.32,-0.33,-1.33,-0.34,0.36,0.61,0.79,-0.96,-0.97,-0.99
70.77,-1.36,-0.33,-1.36,-0.33,0.35,0.59,0.75,-1.01,-1.01,-1.03
71.48,-1.41,-0.34,-1.41,-0.34,0.34,0.56,0.71,-1.07,-1.07,-1.07
72.19,-1.47,-0.35,-1.47,-0.35,0.33,0.53,0.67,-1.14,-1.13,-1.12
72.91,-1.51,-0.34,-1.50,-0.33,0.31,0.50,0.62,-1.20,-1.20,-1.17
73.64,-1.52,-0.31,-1.52,-0.31,0.27,0.48,0.57,-1.25,-1.25,-1.21
74.38,-1.52,-0.26,-1.53,-0.27,0.22,0.45,0.53,-1.30,-1.30,-1.26
75.12,-1.52,-0.22,-1.53,-0.22,0.18,0.42,0.48,-1.34,-1.34,-1.30
75.87,-1.52,-0.17,-1.51,-0.16,0.15,0.39,0.43,-1.37,-1.36,-1.35
76.63,-1.49,-0.10,-1.46,-0.07,0.14,0.35,0.38,-1.36,-1.33,-1.39
77.40,-1.43,-0.00,-1.44,-0.01,0.12,0.32,0.33,-1.31,-1.31,-1.43
78.17,-1.41,0.06,-1.49,-0.03,0.12,0.29,0.28,-1.30,-1.38,-1.47
78.95,-1.61,-0.12,-1.61,-0.11,0.11,0.26,0.23,-1.50,-1.50,-1.49
79.74,-1.81,-0.28,-1.74,-0.21,0.12,0.22,0.18,-1.69,-1.63,-1.53
80.54,-1.83,-0.27,-1.81,-0.25,0.13,0.19,0.13,-1.70,-1.68,-1.56
81.35,-1.77,-0.17,-1.78,-0.18,0.14,0.15,0.08,-1.63,-1.64,-1.60
82.16,-1.72,-0.09,-1.74,-0.11,0.15,0.12,0.02,-1.57,-1.59,-1.63
82.98,-1.72,-0.06,-1.74,-0.08,0.14,0.08,-0.03,-1.58,-1.60,-1.66
83.81,-1.80,-0.10,-1.79,-0.09,0.12,0.04,-0.08,-1.68,-1.67,-1.70
84.65,-1.85,-0.12,-1.85,-0.12,0.10,0.00,-0.14,-1.75,-1.74,-1.73
85.50,-1.89,-0.14,-1.86,-0.10,0.09,-0.04,-0.19,-1.80,-1.77,-1.76
86.35,-1.87,-0.08,-1.85,-0.06,0.09,-0.08,-0.24,-1.78,-1.76,-1.79
87.22,-1.80,0.02,-1.87,-0.05,0.08,-0.12,-0.30,-1.72,-1.79,-1.82
88.09,-1.91,-0.05,-1.92,-0.06,0.07,-0.16,-0.35,-1.84,-1.85,-1.86
88.97,-2.02,-0.13,-1.97,-0.08,0.04,-0.20,-0.41,-1.99,-1.94,-1.89
89.86,-2.00,-0.07,-1.99,-0.07,-0.00,-0.24,-0.46,-2.01,-2.00,-1.93
90.76,-1.94,0.02,-1.95,0.02,-0.05,-0.28,-0.52,-1.99,-2.00,-1.97
91.66,-1.86,0.13,-1.86,0.13,-0.09,-0.33,-0.58,-1.96,-1.96,-1.99
92.58,-1.80,0.24,-1.80,0.24,-0.16,-0.37,-0.63,-1.96,-1.95,-2.04
93.51,-1.74,0.33,-1.77,0.29,-0.25,-0.42,-0.69,-1.99,-2.02,-2.07
94.44,-1.75,0.34,-1.77,0.33,-0.36,-0.46,-0.74,-2.11,-2.12,-2.09
95.39,-1.78,0.34,-1.72,0.40,-0.48,-0.51,-0.80,-2.26,-2.20,-2.12
96.34,-1.64,0.52,-1.63,0.52,-0.62,-0.55,-0.86,-2.26,-2.25,-2.16
97.30,-1.45,0.74,-1.48,0.71,-0.75,-0.60,-0.92,-2.20,-2.23,-2.19
98.28,-1.30,0.92,-1.29,0.93,-0.89,-0.65,-0.97,-2.20,-2.19,-2.22
99.26,-1.13,1.12,-1.14,1.10,-1.04,-0.70,-1.03,-2.17,-2.18,-2.25
100.25,-1.03,1.24,-1.04,1.24,-1.19,-0.74,-1.09,-2.22,-2.23,-2.28
101.25,-0.96,1.34,-0.96,1.35,-1.33,-0.79,-1.14,-2.29,-2.29,-2.30
102.27,-0.91,1.42,-0.90,1.44,-1.45,-0.84,-1.20,-2.36,-2.35,-2.33
103.29,-0.85,1.52,-0.85,1.52,-1.53,-0.89,-1.26,-2.38,-2.38,-2.37
104.32,-0.80,1.59,-0.81,1.59,-1.58,-0.94,-1.31,-2.38,-2.39,-2.39
105.37,-0.78,1.64,-0.77,1.65,-1.61,-0.99,-1.37,-2.39,-2.38,-2.42
106.42,-0.77,1.68,-0.77,1.69,-1.64,-1.04,-1.42,-2.41,-2.41,-2.45
107.48,-0.79,1.70,-0.82,1.67,-1.66,-1.09,-1.47,-2.46,-2.49,-2.49
108.56,-0.89,1.64,-0.91,1.62,-1.68,-1.14,-1.52,-2.57,-2.59,-2.53
109.64,-1.03,1.53,-0.99,1.58,-1.67,-1.18,-1.57,-2.70,-2.66,-2.56
110.74,-1.02,1.58,-0.98,1.61,-1.64,-1.23,-1.62,-2.66,-2.62,-2.60
111.85,-0.97,1.65,-0.95,1.67,-1.59,-1.28,-1.67,-2.56,-2.55,-2.62
112.97,-0.87,1.79,-0.98,1.68,-1.55,-1.33,-1.71,-2.42,-2.53,-2.67
114.10,-1.09,1.60,-1.10,1.60,-1.51,-1.38,-1.75,-2.60,-2.61,-2.69
115.24,-1.34,1.38,-1.28,1.45,-1.48,-1.42,-1.79,-2.82,-2.76,-2.72
116.39,-1.45,1.31,-1.48,1.28,-1.44,-1.47,-1.83,-2.89,-2.91,-2.76
117.55,-1.55,1.23,-1.50,1.28,-1.39,-1.52,-1.86,-2.94,-2.89,-2.78
118.73,-1.52,1.28,-1.43,1.37,-1.34,-1.56,-1.89,-2.86,-2.77,-2.81
119.92,-1.27,1.54,-1.41,1.41,-1.32,-1.60,-1.92,-2.59,-2.73,-2.81
121.12,-1.39,1.45,-1.47,1.37,-1.32,-1.65,-1.95,-2.71,-2.79,-2.84
122.33,-1.66,1.20,-1.56,1.29,-1.32,-1.69,-1.97,-2.98,-2.88,-2.86
123.55,-1.71,1.15,-1.60,1.26,-1.33,-1.73,-1.99,-3.04,-2.94,-2.86
124.79,-1.50,1.38,-1.55,1.33,-1.34,-1.77,-2.00,-2.84,-2.89,-2.88
126.03,-1.36,1.53,-1.46,1.43,-1.35,-1.81,-2.01,-2.72,-2.81,-2.89
127.29,-1.48,1.42,-1.44,1.46,-1.38,-1.84,-2.02,-2.86,-2.82,-2.90
128.57,-1.53,1.39,-1.56,1.36,-1.42,-1.88,-2.02,-2.95,-2.98,-2.92
129.85,-1.61,1.32,-1.60,1.33,-1.45,-1.91,-2.02,-3.07,-3.06,-2.93
131.15,-1.67,1.28,-1.49,1.46,-1.49,-1.94,-2.02,-3.16,-2.98,-2.95
132.46,-1.27,1.69,-1.39,1.58,-1.51,-1.97,-2.02,-2.78,-2.90,-2.96
133.79,-1.17,1.80,-1.31,1.66,-1.53,-2.00,-2.01,-2.70,-2.84,-2.97
135.12,-1.42,1.57,-1.33,1.66,-1.56,-2.03,-2.00,-2.98,-2.89,-2.99
136.48,-1.44,1.55,-1.43,1.57,-1.61,-2.05,-1.99,-3.05,-3.04,-2.99
137.84,-1.48,1.53,-1.45,1.57,-1.68,-2.07,-1.97,-3.16,-3.13,-3.01
139.22,-1.35,1.68,-1.38,1.65,-1.75,-2.09,-1.95,-3.10,-3.13,-3.03
140.61,-1.25,1.80,-1.29,1.76,-1.81,-2.11,-1.93,-3.07,-3.10,-3.05
142.02,-1.22,1.83,-1.16,1.90,-1.89,-2.13,-1.91,-3.11,-3.05,-3.05
143.44,-1.04,2.03,-1.05,2.03,-1.98,-2.14,-1.89,-3.03,-3.03,-3.07
144.87,-0.90,2.20,-0.95,2.14,-2.09,-2.15,-1.86,-2.99,-3.04,-3.10
146.32,-0.89,2.23,-0.89,2.23,-2.19,-2.16,-1.84,-3.08,-3.08,-3.12
147.78,-0.89,2.25,-0.87,2.28,-2.27,-2.17,-1.81,-3.16,-3.14,-3.14
149.26,-0.88,2.29,-0.85,2.33,-2.34,-2.17,-1.79,-3.22,-3.19,-3.18
150.75,-0.82,2.41,-0.85,2.38,-2.39,-2.18,-1.76,-3.21,-3.24,-3.23
152.26,-0.84,2.44,-0.87,2.41,-2.42,-2.18,-1.74,-3.26,-3.30,-3.28
153.78,-0.96,2.38,-0.92,2.42,-2.44,-2.17,-1.71,-3.40,-3.35,-3.34
155.32,-0.99,2.41,-0.98,2.42,-2.43,-2.17,-1.68,-3.42,-3.41,-3.40
156.88,-1.03,2.43,-1.04,2.42,-2.40,-2.17,-1.66,-3.43,-3.44,-3.46
158.44,-1.13,2.41,-1.13,2.40,-2.35,-2.16,-1.63,-3.48,-3.48,-3.54
160.03,-1.25,2.36,-1.28,2.32,-2.27,-2.15,-1.61,-3.52,-3.56,-3.61
161.63,-1.49,2.18,-1.46,2.20,-2.18,-2.14,-1.58,-3.67,-3.64,-3.67
163.24,-1.66,2.06,-1.66,2.06,-2.06,-2.12,-1.56,-3.72,-3.71,-3.72
164.88,-1.83,1.93,-1.84,1.93,-1.93,-2.11,-1.54,-3.76,-3.76,-3.76
166.53,-1.99,1.81,-1.98,1.82,-1.80,-2.09,-1.52,-3.79,-3.78,-3.80
168.19,-2.11,1.72,-2.13,1.70,-1.70,-2.08,-1.50,-3.81,-3.83,-3.83
169.87,-2.24,1.61,-2.26,1.59,-1.64,-2.06,-1.48,-3.88,-3.89,-3.85
171.57,-2.36,1.50,-2.34,1.53,-1.62,-2.04,-1.46,-3.98,-3.95,-3.86
173.29,-2.36,1.51,-2.35,1.52,-1.64,-2.02,-1.44,-4.00,-3.99,-3.87
175.02,-2.25,1.62,-2.25,1.62,-1.71,-1.99,-1.42,-3.96,-3.96,-3.87
176.77,-2.10,1.77,-2.08,1.79,-1.80,-1.97,-1.41,-3.90,-3.87,-3.87
178.54,-1.86,2.01,-1.90,1.97,-1.90,-1.94,-1.39,-3.77,-3.80,-3.87
180.32,-1.73,2.12,-1.76,2.09,-2.02,-1.92,-1.38,-3.75,-3.78,-3.85
182.13,-1.67,2.17,-1.66,2.19,-2.13,-1.89,-1.37,-3.80,-3.78,-3.84
183.95,-1.63,2.21,-1.59,2.24,-2.21,-1.87,-1.36,-3.84,-3.80,-3.84
185.79,-1.52,2.31,-1.55,2.29,-2.27,-1.84,-1.35,-3.79,-3.82,-3.84
187.65,-1.52,2.33,-1.54,2.31,-2.29,-1.81,-1.34,-3.81,-3.83,-3.85
189.52,-1.57,2.28,-1.56,2.30,-2.29,-1.78,-1.33,-3.86,-3.85,-3.85
191.42,-1.62,2.24,-1.62,2.25,-2.27,-1.75,-1.33,-3.89,-3.89,-3.86
193.33,-1.66,2.22,-1.66,2.21,-2.24,-1.72,-1.32,-3.90,-3.90,-3.88
195.27,-1.71,2.18,-1.69,2.19,-2.20,-1.69,-1.32,-3.91,-3.89,-3.89
197.22,-1.73,2.17,-1.73,2.17,-2.14,-1.66,-1.31,-3.88,-3.88,-3.90
199.19,-1.76,2.16,-1.79,2.12,-2.09,-1.63,-1.31,-3.85,-3.89,-3.92
201.18,-1.87,2.06,-1.87,2.06,-2.05,-1.60,-1.31,-3.92,-3.92,-3.93
203.19,-1.97,1.97,-1.94,2.00,-2.02,-1.57,-1.31,-3.99,-3.96,-3.94
205.23,-2.00,1.96,-2.00,1.95,-2.00,-1.54,-1.31,-4.00,-4.00,-3.96
207.28,-2.00,1.96,-2.03,1.94,-1.99,-1.51,-1.30,-4.00,-4.03,-3.96
209.35,-2.05,1.93,-2.02,1.96,-2.00,-1.48,-1.30,-4.05,-4.02,-3.98
211.44,-2.01,2.00,-1.99,2.00,-2.01,-1.45,-1.30,-4.02,-4.01,-4.01
213.56,-1.93,2.08,-1.96,2.05,-2.04,-1.42,-1.31,-3.97,-4.00,-4.01
215.69,-1.91,2.10,-1.92,2.10,-2.06,-1.39,-1.31,-3.97,-3.98,-4.02
217.85,-1.92,2.10,-1.91,2.12,-2.08,-1.36,-1.31,-4.01,-3.99,-4.02
220.03,-1.92,2.11,-1.92,2.11,-2.10,-1.33,-1.31,-4.02,-4.02,-4.03
222.23,-1.93,2.12,-1.95,2.09,-2.09,-1.30,-1.31,-4.02,-4.04,-4.05
224.45,-1.99,2.04,-1.98,2.06,-2.07,-1.27,-1.31,-4.06,-4.04,-4.04
226.70,-2.02,2.01,-2.01,2.02,-2.02,-1.24,-1.31,-4.04,-4.03,-4.03
228.96,-2.03,1.99,-2.04,1.98,-1.97,-1.21,-1.31,-4.00,-4.01,-4.02
231.25,-2.09,1.91,-2.10,1.91,-1.90,-1.18,-1.30,-3.99,-4.00,-4.01
233.57,-2.16,1.83,-2.17,1.83,-1.82,-1.15,-1.30,-3.98,-3.99,-3.99
235.90,-2.28,1.70,-2.24,1.74,-1.74,-1.13,-1.30,-4.02,-3.98,-3.98
238.26,-2.29,1.67,-2.32,1.64,-1.64,-1.10,-1.29,-3.94,-3.96,-3.96
240.64,-2.38,1.56,-2.38,1.55,-1.55,-1.07,-1.29,-3.93,-3.94,-3.94
243.05,-2.46,1.44,-2.44,1.46,-1.46,-1.04,-1.28,-3.92,-3.90,-3.90
245.48,-2.50,1.38,-2.51,1.37,-1.38,-1.01,-1.27,-3.88,-3.89,-3.88
247.93,-2.57,1.27,-2.57,1.28,-1.30,-0.98,-1.27,-3.87,-3.87,-3.84
250.41,-2.61,1.22,-2.62,1.21,-1.23,-0.96,-1.26,-3.84,-3.85,-3.83
252.92,-2.67,1.12,-2.64,1.15,-1.17,-0.93,-1.24,-3.84,-3.81,-3.79
255.45,-2.65,1.12,-2.67,1.10,-1.11,-0.90,-1.23,-3.76,-3.78,-3.77
258.00,-2.67,1.07,-2.69,1.05,-1.05,-0.87,-1.22,-3.72,-3.74,-3.74
260.58,-2.73,1.00,-2.70,1.02,-0.99,-0.84,-1.20,-3.72,-3.69,-3.73
263.19,-2.74,0.95,-2.74,0.96,-0.93,-0.81,-1.19,-3.67,-3.67,-3.69
265.82,-2.74,0.93,-2.79,0.88,-0.87,-0.79,-1.17,-3.61,-3.66,-3.67
268.48,-2.86,0.79,-2.85,0.80,-0.81,-0.76,-1.15,-3.67,-3.65,-3.65
271.16,-2.93,0.68,-2.91,0.71,-0.73,-0.73,-1.13,-3.66,-3.64,-3.61
273.87,-2.95,0.64,-2.94,0.65,-0.65,-0.70,-1.11,-3.60,-3.59,-3.60
276.61,-2.95,0.61,-2.96,0.60,-0.58,-0.67,-1.09,-3.53,-3.54,-3.56
279.38,-2.97,0.56,-3.01,0.52,-0.51,-0.64,-1.07,-3.48,-3.51,-3.53
282.17,-3.09,0.41,-3.07,0.43,-0.44,-0.61,-1.04,-3.53,-3.51,-3.50
284.99,-3.14,0.33,-3.12,0.35,-0.39,-0.58,-1.02,-3.53,-3.51,-3.47
287.84,-3.14,0.31,-3.15,0.30,-0.33,-0.55,-1.00,-3.47,-3.48,-3.45
290.72,-3.13,0.28,-3.13,0.29,-0.28,-0.52,-0.97,-3.41,-3.41,-3.41
293.63,-3.11,0.27,-3.12,0.27,-0.24,-0.49,-0.95,-3.35,-3.35,-3.39
296.57,-3.10,0.25,-3.13,0.22,-0.20,-0.46,-0.92,-3.30,-3.33,-3.35
299.53,-3.17,0.15,-3.15,0.17,-0.16,-0.43,-0.90,-3.34,-3.31,-3.32
302.53,-3.18,0.12,-3.17,0.12,-0.14,-0.39,-0.87,-3.32,-3.31,-3.30
305.55,-3.17,0.08,-3.18,0.08,-0.11,-0.36,-0.85,-3.28,-3.29,-3.25
308.61,-3.16,0.08,-3.16,0.08,-0.09,-0.33,-0.82,-3.25,-3.25,-3.24
311.69,-3.15,0.06,-3.14,0.07,-0.06,-0.30,-0.79,-3.21,-3.20,-3.21
314.81,-3.11,0.07,-3.13,0.05,-0.03,-0.27,-0.77,-3.14,-3.16,-3.18
317.96,-3.13,0.03,-3.13,0.03,-0.01,-0.24,-0.74,-3.14,-3.14,-3.16
321.14,-3.15,0.00,-3.14,0.01,0.01,-0.21,-0.72,-3.14,-3.13,-3.15
324.35,-3.15,-0.01,-3.15,-0.02,0.02,-0.18,-0.69,-3.13,-3.13,-3.14
327.59,-3.15,-0.03,-3.16,-0.04,0.02,-0.15,-0.67,-3.13,-3.14,-3.12
330.87,-3.15,-0.04,-3.16,-0.05,0.01,-0.12,-0.64,-3.14,-3.15,-3.11
334.18,-3.15,-0.06,-3.13,-0.04,-0.02,-0.10,-0.62,-3.17,-3.15,-3.09
337.52,-3.08,0.00,-3.07,0.01,-0.05,-0.08,-0.60,-3.13,-3.12,-3.08
340.90,-2.99,0.07,-3.00,0.07,-0.08,-0.06,-0.57,-3.07,-3.08,-3.06
344.30,-2.91,0.14,-2.92,0.14,-0.10,-0.04,-0.55,-3.01,-3.03,-3.06
347.75,-2.88,0.18,-2.87,0.18,-0.11,-0.03,-0.52,-3.00,-2.99,-3.06
351.23,-2.86,0.19,-2.87,0.18,-0.11,-0.02,-0.50,-2.97,-2.98,-3.05
354.74,-2.89,0.16,-2.90,0.15,-0.10,-0.01,-0.48,-2.99,-2.99,-3.05
358.28,-2.97,0.07,-2.96,0.08,-0.06,-0.01,-0.46,-3.03,-3.03,-3.04
361.87,-3.04,0.00,-3.05,-0.01,-0.02,-0.01,-0.44,-3.06,-3.07,-3.04
365.49,-3.14,-0.11,-3.13,-0.09,0.04,-0.01,-0.41,-3.10,-3.10,-3.03
369.14,-3.19,-0.15,-3.17,-0.13,0.08,-0.02,-0.39,-3.11,-3.08,-3.04
372.83,-3.18,-0.14,-3.17,-0.13,0.12,-0.02,-0.37,-3.06,-3.05,-3.04
376.56,-3.14,-0.10,-3.18,-0.14,0.14,-0.03,-0.35,-3.00,-3.04,-3.05
380.33,-3.16,-0.12,-3.21,-0.17,0.15,-0.04,-0.33,-3.01,-3.06,-3.04
384.13,-3.27,-0.23,-3.19,-0.15,0.14,-0.06,-0.31,-3.13,-3.05,-3.04
387.97,-3.20,-0.15,-3.16,-0.11,0.12,-0.07,-0.29,-3.08,-3.04,-3.05
391.85,-3.02,0.04,-3.14,-0.09,0.09,-0.08,-0.27,-2.93,-3.05,-3.06
395.77,-3.11,-0.06,-3.11,-0.06,0.07,-0.10,-0.26,-3.04,-3.04,-3.05
399.73,-3.20,-0.14,-3.10,-0.04,0.04,-0.11,-0.24,-3.16,-3.05,-3.06
403.72,-3.06,0.00,-3.09,-0.03,0.01,-0.12,-0.22,-3.05,-3.08,-3.06
407.76,-2.99,0.08,-3.03,0.04,-0.03,-0.14,-0.20,-3.02,-3.07,-3.07
411.84,-3.00,0.07,-3.00,0.08,-0.07,-0.15,-0.19,-3.07,-3.07,-3.07
415.96,-3.00,0.07,-3.00,0.08,-0.10,-0.16,-0.17,-3.11,-3.10,-3.07
420.12,-3.00,0.07,-2.97,0.11,-0.13,-0.17,-0.16,-3.13,-3.10,-3.07
424.32,-2.91,0.16,-2.90,0.17,-0.15,-0.19,-0.14,-3.06,-3.04,-3.07
428.56,-2.80,0.26,-2.84,0.23,-0.16,-0.20,-0.13,-2.96,-3.00,-3.07
432.85,-2.79,0.26,-2.82,0.24,-0.18,-0.21,-0.12,-2.97,-2.99,-3.06
