frequency,raw
20,-23.47
21,-22.79
22,-22.09
23,-21.38
24,-20.71
25,-20.09
26,-19.52
27,-18.75
28,-18.23
29,-17.78
30,-17.12
31,-16.71
32,-16.10
33,-15.52
34,-15.04
35,-14.65
36,-14.14
37,-13.68
38,-13.17
39,-12.76
40,-12.54
41,-12.08
42,-11.85
43,-11.62
44,-11.17
45,-10.94
46,-10.71
47,-10.71
48,-10.44
49,-10.03
50,-9.59
51,-9.57
52,-9.47
53,-9.57
54,-9.34
55,-9.34
56,-9.57
57,-9.57
58,-9.34
59,-9.34
60,-9.12
61,-8.89
62,-8.89
63,-8.66
64,-8.56
65,-8.43
66,-8.43
67,-8.43
68,-8.21
69,-8.21
70,-8.21
71,-8.21
72,-8.21
73,-8.21
74,-8.21
75,-8.21
76,-8.21
77,-8.21
78,-8.21
79,-8.21
80,-8.21
81,-8.21
82,-8.21
83,-8.21
84,-8.21
85,-8.43
86,-8.43
87,-8.43
88,-8.43
89,-8.43
90,-8.62
91,-8.66
92,-8.66
93,-8.66
94,-8.66
95,-8.66
96,-8.66
97,-8.66
98,-8.66
99,-8.66
100,-8.88
101,-8.89
102,-8.89
104,-8.89
105,-8.89
106,-8.89
107,-8.89
108,-9.09
109,-9.12
110,-9.12
111,-9.12
112,-9.12
113,-9.12
114,-9.14
115,-9.34
117,-9.34
118,-9.34
119,-9.34
120,-9.35
121,-9.57
123,-9.57
124,-9.57
125,-9.57
126,-9.73
128,-9.80
129,-9.80
130,-9.80
131,-9.84
133,-10.03
134,-10.03
135,-10.03
137,-10.26
138,-10.26
140,-10.26
141,-10.26
142,-10.26
144,-10.26
145,-10.26
147,-10.48
148,-10.48
150,-10.48
151,-10.48
153,-10.48
154,-10.48
156,-10.56
157,-10.71
159,-10.71
160,-10.77
162,-10.94
164,-11.17
165,-11.17
167,-11.40
169,-11.40
170,-11.46
172,-11.62
174,-11.62
175,-11.62
177,-11.62
179,-11.62
181,-11.62
183,-11.62
184,-11.62
186,-11.62
188,-11.62
190,-11.62
192,-11.62
194,-11.62
196,-11.62
198,-11.62
200,-11.62
202,-11.62
204,-11.62
206,-11.62
208,-11.62
210,-11.62
212,-11.62
214,-11.62
216,-11.62
218,-11.40
221,-11.26
223,-11.03
225,-10.72
227,-10.37
229,-10.02
232,-9.53
234,-9.30
236,-9.08
239,-8.68
241,-8.35
244,-7.86
246,-7.54
248,-7.32
251,-7.00
253,-6.77
256,-6.37
259,-5.96
261,-5.74
264,-5.44
266,-5.25
269,-4.92
272,-4.54
274,-4.30
277,-3.95
280,-3.67
283,-3.42
286,-3.34
288,-3.15
291,-2.88
294,-2.61
297,-2.51
300,-2.31
303,-2.27
306,-2.01
309,-1.76
312,-1.60
316,-1.39
319,-1.15
322,-1.13
325,-0.91
328,-0.87
332,-0.68
335,-0.68
338,-0.53
342,-0.46
345,-0.46
349,-0.46
352,-0.46
356,-0.46
359,-0.31
363,-0.23
366,-0.42
370,-0.46
374,-0.46
377,-0.46
381,-0.46
385,-0.46
389,-0.46
393,-0.47
397,-0.68
401,-0.68
405,-0.68
409,-0.68
413,-0.87
417,-0.91
421,-0.91
425,-0.91
430,-0.91
434,-0.91
438,-1.05
443,-1.14
447,-1.14
451,-1.14
456,-1.14
460,-1.14
465,-1.25
470,-1.37
474,-1.37
479,-1.37
484,-1.37
489,-1.37
494,-1.37
499,-1.37
504,-1.37
509,-1.37
514,-1.37
519,-1.37
524,-1.37
529,-1.37
535,-1.37
540,-1.37
545,-1.37
551,-1.34
556,-1.14
562,-1.14
568,-1.14
573,-1.14
579,-1.14
585,-1.14
591,-1.14
596,-1.14
602,-1.22
608,-1.37
615,-1.37
621,-1.37
627,-1.14
633,-1.14
639,-1.14
646,-1.14
652,-1.14
659,-1.14
665,-1.14
672,-1.14
679,-1.14
686,-1.14
692,-1.04
699,-0.91
706,-0.91
713,-0.91
721,-0.91
728,-0.91
735,-0.82
742,-0.68
750,-0.68
757,-0.68
765,-0.68
773,-0.68
780,-0.68
788,-0.68
796,-0.68
804,-0.68
812,-0.68
820,-0.68
828,-0.72
837,-0.91
845,-0.91
853,-0.91
862,-0.91
871,-0.91
879,-0.90
888,-0.68
897,-0.68
906,-0.68
915,-0.53
924,-0.46
933,-0.46
943,-0.23
952,-0.23
962,-0.23
971,-0.10
981,-0.00
991,-0.00
1001,0.00
1011,0.05
1021,0.23
1031,0.23
1041,0.23
1052,0.23
1062,0.43
1073,0.46
1084,0.46
1094,0.46
1105,0.46
1116,0.60
1128,0.68
1139,0.68
1150,0.68
1162,0.68
1173,0.68
1185,0.81
1197,0.91
1209,0.91
1221,0.91
1233,0.91
1246,0.91
1258,0.91
1271,0.91
1283,0.91
1296,0.91
1309,0.91
1322,0.91
1335,0.91
1349,0.91
1362,0.91
1376,0.91
1390,0.91
1404,0.91
1418,0.91
1432,0.91
1446,0.91
1461,0.91
1475,0.91
1490,0.68
1505,0.68
1520,0.68
1535,0.58
1550,0.32
1566,0.23
1582,0.01
1597,-0.23
1613,-0.50
1629,-0.68
1646,-0.68
1662,-0.54
1679,-0.46
1696,-0.46
1713,-0.46
1730,-0.46
1747,-0.46
1764,-0.46
1782,-0.46
1800,-0.46
1818,-0.46
1836,-0.42
1854,-0.23
1873,-0.23
1892,-0.23
1911,-0.23
1930,-0.02
1949,0.01
1969,0.23
1988,0.30
2008,0.57
2028,0.68
2048,0.86
2069,1.13
2090,1.51
2111,1.80
2132,2.14
2153,2.28
2175,2.44
2196,2.69
2218,2.96
2240,2.99
2263,3.26
2285,3.51
2308,3.78
2331,3.87
2355,4.08
2378,4.33
2402,4.56
2426,4.63
2450,4.89
2475,5.01
2500,5.01
2525,5.01
2550,5.24
2575,5.19
2601,5.01
2627,5.01
2653,4.86
2680,4.79
2707,4.56
2734,4.59
2761,4.85
2789,5.11
2817,5.38
2845,5.47
2873,5.67
2902,5.70
2931,5.74
2960,5.93
2990,5.93
3020,5.93
3050,5.93
3080,5.93
3111,5.93
3142,5.93
3174,6.01
3206,6.15
3238,6.15
3270,6.15
3303,5.93
3336,5.77
3369,5.35
3403,4.78
3437,4.12
3471,3.47
3506,2.81
3541,2.51
3576,2.65
3612,2.99
3648,3.41
3685,3.81
3721,4.24
3759,4.85
3796,5.38
3834,6.01
3873,6.55
3911,7.06
3950,7.66
3990,8.32
4030,8.98
4070,9.62
4111,10.11
4152,10.51
4193,10.83
4235,10.94
4278,10.75
4321,10.37
4364,9.86
4407,9.44
4451,8.92
4496,8.39
4541,7.78
4586,7.03
4632,6.36
4679,5.61
4725,5.13
4773,4.67
4820,4.16
4868,3.55
4917,2.89
4966,2.36
5016,1.88
5066,1.67
5117,1.35
5168,0.83
5220,0.21
5272,-0.45
5325,-0.98
5378,-1.43
5432,-1.75
5486,-2.14
5541,-2.45
5596,-2.71
5652,-2.74
5709,-2.96
5766,-2.89
5823,-2.58
5882,-2.11
5940,-1.41
6000,-0.73
6060,0.04
6120,0.67
6182,1.15
6244,1.49
6306,1.60
6369,1.41
6433,1.15
6497,0.88
6562,0.68
6628,0.59
6694,0.33
6761,0.06
6828,0.20
6897,0.35
6966,0.63
7035,1.02
7106,1.47
7177,1.99
7249,2.69
7321,3.26
7394,3.89
7468,4.17
7543,3.91
7618,3.59
7694,3.57
7771,3.46
7849,3.09
7928,2.60
8007,2.28
8087,1.89
8168,1.63
8250,1.24
8332,0.75
8415,0.23
8499,-0.18
8584,-0.60
8670,-0.58
8757,-0.39
8845,-0.17
8933,0.19
9022,0.46
9113,0.39
9204,0.03
9296,-0.06
9389,0.30
9483,0.82
9577,1.23
9673,1.62
9770,1.82
9868,1.64
9966,0.94
10066,-0.14
10167,-1.52
10268,-3.29
10371,-5.29
10475,-7.49
10579,-9.47
10685,-11.11
10792,-12.21
10900,-12.73
11009,-12.99
11119,-13.03
11230,-13.22
11343,-13.16
11456,-12.96
11571,-12.61
11686,-12.32
11803,-11.79
11921,-10.79
12040,-9.31
12161,-7.53
12282,-5.91
12405,-4.72
12529,-5.00
12655,-11.08
12781,-16.45
12909,-16.20
13038,-10.18
13168,-5.64
13300,-3.89
13433,-4.00
13567,-4.81
13703,-5.73
13840,-6.54
13978,-7.05
14118,-7.27
14259,-7.08
14402,-6.93
14546,-6.66
14692,-7.05
14838,-8.05
14987,-9.80
15137,-13.08
15288,-17.31
15441,-21.23
15595,-23.66
15751,-21.62
15909,-18.93
16068,-16.75
16229,-16.00
16391,-16.53
16555,-17.32
16720,-18.10
16888,-18.89
17056,-19.74
17227,-20.75
17399,-21.69
17573,-22.44
17749,-22.22
17926,-21.44
18106,-20.57
18287,-20.06
18470,-20.03
18654,-19.41
18841,-18.38
19029,-17.58
19220,-17.28
19412,-17.40
19606,-18.59
19802,-20.19
20000,-21.54
