frequency,raw,error,smoothed,error_smoothed,equalization,parametric_eq,fixed_band_eq,equalized_raw,equalized_smoothed,target
20.00,2.35,0.71,2.35,0.71,-0.73,-0.98,-0.95,1.62,1.62,1.64
20.20,2.41,0.72,2.41,0.72,-0.73,-1.00,-0.97,1.69,1.69,1.69
20.40,2.47,0.73,2.48,0.73,-0.73,-1.02,-1.00,1.75,1.75,1.74
20.61,2.53,0.76,2.53,0.75,-0.73,-1.04,-1.03,1.80,1.80,1.77
20.81,2.59,0.77,2.59,0.77,-0.75,-1.06,-1.06,1.85,1.84,1.82
21.02,2.64,0.78,2.64,0.79,-0.77,-1.08,-1.09,1.87,1.87,1.86
21.23,2.69,0.81,2.69,0.81,-0.80,-1.10,-1.12,1.90,1.90,1.88
21.44,2.73,0.83,2.73,0.83,-0.83,-1.12,-1.15,1.90,1.91,1.90
21.66,2.78,0.86,2.78,0.86,-0.87,-1.15,-1.18,1.92,1.91,1.92
21.87,2.82,0.89,2.83,0.89,-0.91,-1.17,-1.22,1.91,1.91,1.93
22.09,2.88,0.93,2.89,0.94,-0.97,-1.19,-1.25,1.91,1.92,1.95
22.31,2.97,1.01,2.97,1.01,-1.03,-1.22,-1.29,1.94,1.93,1.96
22.54,3.05,1.09,3.06,1.09,-1.09,-1.24,-1.32,1.96,1.96,1.96
22.76,3.13,1.17,3.14,1.18,-1.15,-1.26,-1.36,1.98,1.98,1.96
22.99,3.22,1.27,3.20,1.25,-1.21,-1.29,-1.40,2.01,1.99,1.95
23.22,3.24,1.29,3.25,1.30,-1.26,-1.31,-1.44,1.98,1.99,1.95
23.45,3.27,1.32,3.27,1.32,-1.31,-1.34,-1.47,1.96,1.97,1.95
23.69,3.29,1.33,3.29,1.33,-1.35,-1.37,-1.52,1.94,1.94,1.96
23.92,3.31,1.35,3.32,1.36,-1.39,-1.39,-1.56,1.93,1.93,1.96
24.16,3.35,1.38,3.35,1.39,-1.41,-1.42,-1.60,1.94,1.94,1.97
24.40,3.40,1.43,3.40,1.43,-1.44,-1.45,-1.64,1.96,1.96,1.98
24.65,3.44,1.47,3.45,1.48,-1.46,-1.47,-1.68,1.98,1.98,1.97
24.89,3.49,1.53,3.49,1.52,-1.49,-1.50,-1.73,2.01,2.00,1.97
25.14,3.51,1.55,3.51,1.54,-1.51,-1.53,-1.77,2.00,2.00,1.97
25.39,3.52,1.55,3.52,1.55,-1.54,-1.56,-1.82,1.99,1.98,1.98
25.65,3.52,1.55,3.52,1.55,-1.56,-1.59,-1.86,1.96,1.96,1.98
25.91,3.53,1.57,3.54,1.57,-1.59,-1.62,-1.91,1.95,1.95,1.97
26.16,3.56,1.60,3.57,1.60,-1.62,-1.65,-1.95,1.95,1.95,1.96
26.43,3.61,1.65,3.61,1.64,-1.65,-1.68,-2.00,1.96,1.96,1.96
26.69,3.66,1.70,3.66,1.69,-1.70,-1.71,-2.04,1.97,1.96,1.96
26.96,3.71,1.74,3.72,1.75,-1.75,-1.75,-2.09,1.96,1.96,1.97
27.23,3.78,1.81,3.78,1.81,-1.82,-1.78,-2.13,1.96,1.96,1.97
27.50,3.86,1.89,3.86,1.89,-1.90,-1.81,-2.17,1.96,1.96,1.97
27.77,3.93,1.97,3.93,1.97,-1.98,-1.84,-2.22,1.96,1.95,1.96
28.05,4.00,2.04,4.01,2.05,-2.05,-1.88,-2.26,1.95,1.95,1.96
28.33,4.08,2.13,4.09,2.13,-2.12,-1.91,-2.30,1.96,1.96,1.95
28.62,4.16,2.21,4.16,2.21,-2.18,-1.95,-2.33,1.98,1.98,1.95
28.90,4.23,2.28,4.22,2.27,-2.24,-1.98,-2.37,2.00,1.99,1.96
29.19,4.26,2.32,4.26,2.31,-2.28,-2.02,-2.41,1.98,1.98,1.95
29.48,4.27,2.31,4.28,2.32,-2.32,-2.05,-2.44,1.95,1.96,1.97
29.78,4.28,2.33,4.28,2.33,-2.35,-2.09,-2.47,1.94,1.94,1.95
30.08,4.29,2.33,4.30,2.34,-2.37,-2.13,-2.50,1.93,1.94,1.96
30.38,4.33,2.38,4.33,2.38,-2.38,-2.16,-2.52,1.95,1.95,1.95
30.68,4.36,2.41,4.36,2.41,-2.40,-2.20,-2.55,1.97,1.97,1.95
30.99,4.40,2.45,4.39,2.45,-2.42,-2.24,-2.57,1.98,1.97,1.95
31.30,4.41,2.46,4.41,2.46,-2.46,-2.28,-2.59,1.95,1.94,1.95
31.61,4.42,2.47,4.42,2.47,-2.51,-2.31,-2.61,1.91,1.91,1.95
31.93,4.43,2.49,4.45,2.51,-2.55,-2.35,-2.62,1.88,1.90,1.95
32.24,4.50,2.57,4.52,2.58,-2.59,-2.39,-2.63,1.91,1.93,1.94
32.57,4.60,2.66,4.60,2.66,-2.63,-2.43,-2.64,1.97,1.98,1.94
32.89,4.70,2.76,4.67,2.73,-2.67,-2.47,-2.65,2.04,2.01,1.94
33.22,4.70,2.77,4.69,2.75,-2.71,-2.51,-2.66,1.99,1.98,1.93
33.55,4.66,2.73,4.67,2.74,-2.75,-2.55,-2.66,1.91,1.91,1.93
33.89,4.62,2.71,4.65,2.73,-2.79,-2.59,-2.67,1.83,1.86,1.92
34.23,4.67,2.75,4.69,2.77,-2.82,-2.63,-2.67,1.85,1.87,1.93
34.57,4.76,2.85,4.76,2.84,-2.84,-2.67,-2.67,1.92,1.92,1.91
34.92,4.85,2.94,4.82,2.91,-2.86,-2.71,-2.67,1.99,1.96,1.91
35.27,4.85,2.94,4.84,2.94,-2.89,-2.75,-2.66,1.96,1.95,1.91
35.62,4.83,2.92,4.84,2.93,-2.92,-2.79,-2.66,1.91,1.91,1.91
35.97,4.80,2.90,4.83,2.92,-2.95,-2.83,-2.66,1.86,1.88,1.91
36.33,4.85,2.94,4.86,2.95,-2.97,-2.88,-2.66,1.88,1.89,1.91
36.70,4.91,3.01,4.90,3.00,-2.99,-2.92,-2.65,1.92,1.92,1.90
37.06,4.96,3.06,4.94,3.03,-3.01,-2.96,-2.65,1.95,1.93,1.90
37.43,4.94,3.03,4.94,3.03,-3.04,-3.00,-2.65,1.90,1.90,1.92
37.81,4.93,3.02,4.95,3.04,-3.08,-3.04,-2.65,1.85,1.87,1.91
38.19,4.97,3.06,5.00,3.08,-3.12,-3.07,-2.65,1.86,1.88,1.91
38.57,5.07,3.15,5.07,3.15,-3.15,-3.11,-2.65,1.92,1.92,1.92
38.95,5.17,3.25,5.14,3.22,-3.18,-3.15,-2.65,1.99,1.96,1.93
39.34,5.17,3.25,5.17,3.25,-3.20,-3.19,-2.65,1.97,1.97,1.92
39.74,5.16,3.24,5.17,3.25,-3.22,-3.23,-2.65,1.94,1.95,1.92
40.14,5.15,3.23,5.16,3.23,-3.24,-3.27,-2.66,1.92,1.92,1.93
40.54,5.15,3.23,5.15,3.23,-3.24,-3.30,-2.67,1.91,1.91,1.92
40.94,5.15,3.23,5.15,3.23,-3.23,-3.34,-2.68,1.92,1.92,1.92
41.35,5.15,3.24,5.15,3.24,-3.23,-3.37,-2.69,1.93,1.93,1.92
41.76,5.15,3.24,5.15,3.24,-3.23,-3.41,-2.70,1.92,1.92,1.91
42.18,5.15,3.23,5.14,3.23,-3.25,-3.44,-2.71,1.90,1.89,1.92
42.60,5.14,3.24,5.15,3.24,-3.29,-3.48,-2.73,1.86,1.86,1.90
43.03,5.15,3.25,5.18,3.28,-3.33,-3.51,-2.75,1.82,1.85,1.90
43.46,5.24,3.35,5.24,3.35,-3.37,-3.54,-2.77,1.87,1.87,1.90
43.90,5.33,3.46,5.32,3.44,-3.41,-3.57,-2.79,1.92,1.91,1.87
44.33,5.37,3.52,5.38,3.52,-3.45,-3.60,-2.82,1.92,1.93,1.86
44.78,5.40,3.56,5.39,3.55,-3.49,-3.63,-2.84,1.91,1.90,1.84
45.23,5.38,3.55,5.37,3.54,-3.53,-3.65,-2.87,1.86,1.85,1.84
45.68,5.34,3.52,5.35,3.53,-3.56,-3.68,-2.90,1.79,1.79,1.82
46.13,5.31,3.51,5.34,3.53,-3.58,-3.70,-2.94,1.74,1.77,1.81
46.60,5.37,3.56,5.36,3.56,-3.59,-3.73,-2.97,1.78,1.77,1.81
47.06,5.41,3.62,5.40,3.60,-3.60,-3.75,-3.01,1.81,1.80,1.79
47.53,5.43,3.64,5.43,3.64,-3.62,-3.77,-3.05,1.81,1.81,1.79
48.01,5.44,3.65,5.44,3.66,-3.64,-3.79,-3.09,1.80,1.80,1.79
48.49,5.44,3.67,5.44,3.67,-3.66,-3.81,-3.13,1.78,1.78,1.78
48.97,5.44,3.68,5.44,3.69,-3.69,-3.82,-3.18,1.76,1.76,1.76
49.46,5.44,3.70,5.44,3.70,-3.70,-3.84,-3.22,1.74,1.74,1.74
49.96,5.44,3.72,5.44,3.71,-3.71,-3.85,-3.27,1.73,1.73,1.72
50.46,5.44,3.72,5.44,3.72,-3.72,-3.87,-3.32,1.73,1.73,1.73
50.96,5.44,3.72,5.44,3.73,-3.73,-3.88,-3.37,1.72,1.72,1.72
51.47,5.44,3.74,5.44,3.74,-3.74,-3.89,-3.42,1.70,1.70,1.70
51.99,5.43,3.74,5.44,3.74,-3.76,-3.89,-3.47,1.67,1.68,1.69
52.51,5.45,3.76,5.45,3.76,-3.78,-3.90,-3.52,1.68,1.67,1.69
53.03,5.46,3.77,5.48,3.79,-3.80,-3.91,-3.57,1.67,1.68,1.69
53.56,5.51,3.83,5.51,3.82,-3.82,-3.91,-3.63,1.70,1.69,1.68
54.10,5.54,3.87,5.53,3.86,-3.84,-3.91,-3.68,1.70,1.69,1.67
54.64,5.54,3.88,5.55,3.88,-3.86,-3.92,-3.73,1.68,1.69,1.66
55.18,5.54,3.88,5.55,3.88,-3.88,-3.92,-3.78,1.66,1.67,1.66
55.74,5.54,3.89,5.54,3.89,-3.90,-3.92,-3.83,1.65,1.65,1.65
56.29,5.54,3.89,5.54,3.89,-3.91,-3.91,-3.88,1.64,1.64,1.65
56.86,5.54,3.90,5.54,3.91,-3.91,-3.91,-3.92,1.63,1.63,1.64
57.42,5.54,3.92,5.54,3.92,-3.91,-3.91,-3.97,1.63,1.63,1.62
58.00,5.54,3.93,5.54,3.92,-3.91,-3.90,-4.01,1.63,1.63,1.62
58.58,5.52,3.91,5.53,3.91,-3.90,-3.90,-4.05,1.63,1.63,1.61
59.16,5.50,3.90,5.50,3.90,-3.88,-3.89,-4.08,1.62,1.62,1.60
59.76,5.46,3.88,5.46,3.88,-3.87,-3.88,-4.11,1.60,1.60,1.59
60.35,5.41,3.86,5.41,3.86,-3.85,-3.88,-4.14,1.56,1.56,1.55
60.96,5.36,3.83,5.36,3.83,-3.85,-3.87,-4.17,1.52,1.51,1.53
61.57,5.31,3.82,5.31,3.82,-3.85,-3.86,-4.19,1.46,1.46,1.49
62.18,5.27,3.82,5.27,3.82,-3.86,-3.85,-4.21,1.41,1.41,1.46
62.80,5.25,3.83,5.27,3.85,-3.88,-3.84,-4.22,1.37,1.39,1.42
63.43,5.29,3.91,5.30,3.91,-3.90,-3.83,-4.24,1.39,1.40,1.39
64.07,5.34,3.99,5.32,3.97,-3.93,-3.82,-4.24,1.41,1.39,1.35
64.71,5.33,4.02,5.32,4.01,-3.96,-3.81,-4.25,1.37,1.36,1.31
65.35,5.29,4.01,5.29,4.01,-4.00,-3.80,-4.25,1.29,1.29,1.28
66.01,5.23,3.99,5.26,4.01,-4.04,-3.79,-4.25,1.19,1.22,1.24
66.67,5.24,4.04,5.24,4.04,-4.08,-3.78,-4.24,1.17,1.17,1.21
67.33,5.25,4.09,5.24,4.07,-4.10,-3.77,-4.23,1.15,1.14,1.17
68.01,5.25,4.12,5.25,4.12,-4.12,-3.76,-4.22,1.13,1.13,1.14
68.69,5.25,4.16,5.27,4.18,-4.14,-3.75,-4.21,1.11,1.13,1.10
69.37,5.26,4.21,5.26,4.20,-4.16,-3.75,-4.19,1.11,1.10,1.05
70.07,5.26,4.25,5.21,4.20,-4.18,-3.74,-4.18,1.09,1.04,1.01
70.77,5.12,4.14,5.15,4.17,-4.19,-3.73,-4.16,0.93,0.96,0.98
71.48,5.06,4.13,5.09,4.16,-4.20,-3.73,-4.14,0.86,0.89,0.94
72.19,5.05,4.17,5.06,4.17,-4.21,-3.72,-4.12,0.85,0.85,0.88
72.91,5.07,4.23,5.04,4.20,-4.21,-3.72,-4.10,0.87,0.83,0.84
73.64,5.00,4.21,5.00,4.21,-4.20,-3.71,-4.09,0.80,0.81,0.79
74.38,4.93,4.18,4.95,4.21,-4.19,-3.71,-4.07,0.75,0.77,0.75
75.12,4.88,4.18,4.89,4.18,-4.17,-3.71,-4.05,0.72,0.72,0.70
75.87,4.83,4.18,4.81,4.15,-4.14,-3.71,-4.03,0.70,0.68,0.66
76.63,4.72,4.10,4.72,4.11,-4.10,-3.72,-4.02,0.63,0.62,0.62
77.40,4.60,4.02,4.61,4.04,-4.04,-3.72,-4.01,0.56,0.57,0.58
78.17,4.49,3.96,4.50,3.95,-3.98,-3.73,-3.99,0.52,0.52,0.53
78.95,4.39,3.88,4.38,3.87,-3.89,-3.73,-3.98,0.50,0.49,0.51
79.74,4.26,3.79,4.27,3.80,-3.80,-3.74,-3.98,0.47,0.48,0.47
80.54,4.15,3.71,4.16,3.72,-3.68,-3.76,-3.97,0.47,0.48,0.44
81.35,4.03,3.63,4.02,3.62,-3.56,-3.77,-3.97,0.47,0.47,0.40
82.16,3.88,3.51,3.85,3.48,-3.43,-3.79,-3.97,0.46,0.43,0.37
82.98,3.65,3.30,3.66,3.32,-3.30,-3.80,-3.97,0.36,0.36,0.35
83.81,3.44,3.13,3.48,3.17,-3.18,-3.82,-3.98,0.26,0.30,0.31
84.65,3.33,3.06,3.33,3.05,-3.09,-3.85,-3.99,0.24,0.24,0.27
85.50,3.25,3.00,3.22,2.97,-3.04,-3.87,-4.00,0.22,0.18,0.25
86.35,3.14,2.93,3.15,2.93,-3.01,-3.90,-4.01,0.13,0.13,0.22
87.22,3.09,2.91,3.14,2.96,-3.02,-3.93,-4.03,0.07,0.12,0.18
88.09,3.20,3.05,3.21,3.06,-3.06,-3.96,-4.05,0.14,0.15,0.15
88.97,3.35,3.24,3.32,3.20,-3.14,-4.00,-4.07,0.21,0.18,0.11
89.86,3.43,3.36,3.40,3.32,-3.24,-4.04,-4.10,0.19,0.16,0.08
90.76,3.42,3.38,3.44,3.39,-3.36,-4.08,-4.13,0.06,0.08,0.04
91.66,3.45,3.44,3.48,3.47,-3.49,-4.12,-4.16,-0.04,-0.02,0.01
92.58,3.55,3.59,3.57,3.59,-3.64,-4.17,-4.20,-0.09,-0.08,-0.03
93.51,3.71,3.77,3.70,3.76,-3.80,-4.22,-4.24,-0.09,-0.10,-0.06
94.44,3.86,3.95,3.85,3.94,-3.96,-4.27,-4.28,-0.10,-0.11,-0.09
95.39,3.99,4.11,4.00,4.12,-4.12,-4.32,-4.32,-0.13,-0.12,-0.12
96.34,4.14,4.30,4.15,4.30,-4.29,-4.38,-4.37,-0.14,-0.14,-0.15
97.30,4.30,4.49,4.31,4.49,-4.45,-4.43,-4.42,-0.14,-0.14,-0.18
98.28,4.45,4.66,4.45,4.66,-4.60,-4.49,-4.47,-0.15,-0.15,-0.21
99.26,4.57,4.81,4.54,4.78,-4.74,-4.55,-4.52,-0.17,-0.20,-0.24
100.25,4.59,4.86,4.60,4.86,-4.87,-4.61,-4.58,-0.27,-0.27,-0.27
101.25,4.62,4.92,4.64,4.94,-4.98,-4.67,-4.64,-0.36,-0.34,-0.30
102.27,4.68,5.01,4.71,5.04,-5.08,-4.73,-4.70,-0.40,-0.38,-0.33
103.29,4.80,5.17,4.79,5.15,-5.18,-4.79,-4.76,-0.37,-0.38,-0.37
104.32,4.90,5.29,4.87,5.26,-5.26,-4.85,-4.82,-0.36,-0.39,-0.39
105.37,4.92,5.34,4.94,5.36,-5.34,-4.91,-4.88,-0.41,-0.39,-0.42
106.42,4.96,5.41,4.98,5.42,-5.40,-4.96,-4.94,-0.44,-0.42,-0.44
107.48,5.01,5.50,4.98,5.47,-5.45,-5.01,-5.00,-0.44,-0.47,-0.48
108.56,4.97,5.50,4.98,5.50,-5.48,-5.06,-5.06,-0.51,-0.50,-0.52
109.64,4.93,5.49,4.95,5.51,-5.49,-5.11,-5.12,-0.56,-0.54,-0.55
110.74,4.91,5.50,4.91,5.50,-5.49,-5.15,-5.18,-0.57,-0.57,-0.59
111.85,4.87,5.48,4.85,5.47,-5.47,-5.18,-5.23,-0.60,-0.63,-0.61
112.97,4.78,5.44,4.78,5.43,-5.46,-5.21,-5.28,-0.68,-0.68,-0.66
114.10,4.66,5.35,4.71,5.40,-5.45,-5.23,-5.33,-0.78,-0.73,-0.69
115.24,4.68,5.40,4.67,5.40,-5.43,-5.24,-5.38,-0.75,-0.76,-0.72
116.39,4.66,5.42,4.64,5.39,-5.41,-5.25,-5.42,-0.75,-0.77,-0.75
117.55,4.62,5.39,4.62,5.39,-5.38,-5.25,-5.45,-0.76,-0.76,-0.77
118.73,4.52,5.32,4.57,5.36,-5.34,-5.25,-5.48,-0.81,-0.77,-0.80
119.92,4.54,5.35,4.50,5.32,-5.27,-5.23,-5.51,-0.73,-0.77,-0.81
121.12,4.41,5.25,4.42,5.25,-5.18,-5.21,-5.53,-0.77,-0.77,-0.83
122.33,4.28,5.13,4.28,5.12,-5.07,-5.19,-5.54,-0.79,-0.79,-0.85
123.55,4.11,4.97,4.10,4.96,-4.94,-5.16,-5.54,-0.83,-0.84,-0.85
124.79,3.89,4.76,3.93,4.79,-4.81,-5.12,-5.54,-0.91,-0.88,-0.87
126.03,3.76,4.65,3.75,4.63,-4.66,-5.09,-5.54,-0.90,-0.92,-0.89
127.29,3.60,4.49,3.59,4.49,-4.53,-5.04,-5.52,-0.93,-0.94,-0.89
128.57,3.45,4.37,3.48,4.40,-4.42,-5.00,-5.50,-0.97,-0.94,-0.91
129.85,3.39,4.32,3.40,4.32,-4.34,-4.95,-5.47,-0.95,-0.94,-0.93
131.15,3.36,4.30,3.33,4.27,-4.29,-4.90,-5.44,-0.93,-0.97,-0.94
132.46,3.28,4.24,3.29,4.24,-4.27,-4.85,-5.40,-0.99,-0.99,-0.95
133.79,3.23,4.20,3.27,4.24,-4.27,-4.81,-5.36,-1.04,-1.00,-0.96
135.12,3.30,4.29,3.30,4.28,-4.28,-4.76,-5.31,-0.98,-0.98,-0.99
136.48,3.35,4.34,3.35,4.35,-4.29,-4.71,-5.25,-0.94,-0.94,-0.99
137.84,3.42,4.43,3.38,4.39,-4.31,-4.67,-5.19,-0.89,-0.93,-1.01
139.22,3.36,4.39,3.37,4.39,-4.34,-4.63,-5.13,-0.97,-0.97,-1.03
140.61,3.31,4.36,3.33,4.37,-4.37,-4.59,-5.07,-1.06,-1.04,-1.05
142.02,3.32,4.37,3.31,4.36,-4.42,-4.55,-5.00,-1.09,-1.10,-1.04
143.44,3.32,4.39,3.35,4.41,-4.48,-4.52,-4.93,-1.15,-1.13,-1.06
144.87,3.40,4.49,3.40,4.48,-4.55,-4.50,-4.86,-1.14,-1.15,-1.09
146.32,3.49,4.61,3.47,4.58,-4.63,-4.48,-4.79,-1.13,-1.16,-1.12
147.78,3.52,4.66,3.57,4.71,-4.71,-4.46,-4.71,-1.19,-1.15,-1.13
149.26,3.66,4.83,3.65,4.83,-4.81,-4.45,-4.64,-1.14,-1.15,-1.17
150.75,3.74,4.97,3.72,4.94,-4.89,-4.44,-4.56,-1.15,-1.17,-1.22
152.26,3.73,5.01,3.73,5.01,-4.95,-4.44,-4.49,-1.21,-1.22,-1.28
153.78,3.68,5.01,3.68,5.01,-4.97,-4.44,-4.42,-1.28,-1.29,-1.33
155.32,3.56,4.96,3.58,4.98,-4.94,-4.45,-4.35,-1.38,-1.36,-1.40
156.88,3.47,4.93,3.47,4.93,-4.88,-4.47,-4.28,-1.40,-1.41,-1.46
158.44,3.33,4.86,3.32,4.86,-4.79,-4.49,-4.21,-1.46,-1.47,-1.53
160.03,3.16,4.76,3.15,4.75,-4.71,-4.52,-4.14,-1.54,-1.56,-1.60
161.63,2.95,4.62,2.94,4.60,-4.64,-4.55,-4.08,-1.69,-1.70,-1.66
163.24,2.75,4.46,2.77,4.48,-4.61,-4.58,-4.02,-1.85,-1.83,-1.71
164.88,2.65,4.41,2.69,4.45,-4.61,-4.62,-3.96,-1.95,-1.91,-1.75
166.53,2.73,4.52,2.73,4.52,-4.65,-4.67,-3.90,-1.91,-1.91,-1.79
168.19,2.86,4.68,2.85,4.67,-4.71,-4.72,-3.85,-1.85,-1.86,-1.82
169.87,3.01,4.86,3.00,4.84,-4.79,-4.77,-3.80,-1.78,-1.79,-1.85
171.57,3.11,4.97,3.13,4.98,-4.88,-4.83,-3.75,-1.77,-1.75,-1.86
173.29,3.22,5.09,3.20,5.07,-4.97,-4.88,-3.70,-1.74,-1.76,-1.86
175.02,3.25,5.11,3.23,5.10,-5.03,-4.94,-3.66,-1.77,-1.79,-1.86
176.77,3.20,5.07,3.23,5.09,-5.05,-5.00,-3.61,-1.85,-1.83,-1.87
178.54,3.19,5.05,3.19,5.05,-5.05,-5.06,-3.58,-1.85,-1.86,-1.86
180.32,3.16,5.01,3.16,5.01,-5.02,-5.11,-3.54,-1.86,-1.86,-1.85
182.13,3.11,4.94,3.12,4.96,-4.98,-5.16,-3.51,-1.87,-1.86,-1.83
183.95,3.10,4.94,3.07,4.90,-4.95,-5.20,-3.48,-1.85,-1.88,-1.84
185.79,3.00,4.83,3.04,4.87,-4.92,-5.24,-3.45,-1.92,-1.88,-1.83
187.65,3.01,4.86,3.04,4.88,-4.90,-5.27,-3.43,-1.89,-1.86,-1.84
189.52,3.08,4.93,3.04,4.89,-4.89,-5.29,-3.40,-1.81,-1.85,-1.85
191.42,3.07,4.93,3.06,4.92,-4.90,-5.30,-3.38,-1.82,-1.84,-1.86
193.33,3.02,4.89,3.05,4.91,-4.90,-5.30,-3.37,-1.87,-1.85,-1.87
195.27,3.01,4.89,3.01,4.89,-4.89,-5.29,-3.35,-1.88,-1.88,-1.88
197.22,2.99,4.89,2.99,4.89,-4.88,-5.26,-3.34,-1.89,-1.89,-1.89
199.19,2.96,4.88,2.97,4.88,-4.86,-5.23,-3.33,-1.90,-1.90,-1.91
201.18,2.93,4.86,2.92,4.85,-4.83,-5.18,-3.32,-1.90,-1.91,-1.92
203.19,2.86,4.80,2.86,4.80,-4.79,-5.12,-3.31,-1.93,-1.93,-1.93
205.23,2.78,4.74,2.78,4.73,-4.74,-5.04,-3.30,-1.96,-1.95,-1.95
207.28,2.70,4.66,2.71,4.67,-4.68,-4.96,-3.30,-1.98,-1.97,-1.95
209.35,2.62,4.60,2.63,4.61,-4.61,-4.87,-3.29,-1.99,-1.97,-1.97
211.44,2.57,4.57,2.56,4.55,-4.53,-4.77,-3.29,-1.96,-1.97,-2.00
213.56,2.46,4.46,2.45,4.46,-4.45,-4.67,-3.29,-1.98,-1.99,-2.00
215.69,2.35,4.36,2.34,4.35,-4.36,-4.56,-3.29,-2.01,-2.02,-2.01
217.85,2.20,4.22,2.25,4.27,-4.27,-4.44,-3.28,-2.07,-2.02,-2.02
220.03,2.16,4.19,2.15,4.18,-4.19,-4.32,-3.28,-2.03,-2.04,-2.02
222.23,2.11,4.15,2.05,4.09,-4.10,-4.20,-3.28,-1.99,-2.05,-2.04
224.45,1.93,3.96,1.98,4.01,-4.01,-4.08,-3.28,-2.08,-2.04,-2.03
226.70,1.86,3.89,1.90,3.92,-3.93,-3.96,-3.27,-2.06,-2.03,-2.03
228.96,1.87,3.89,1.84,3.85,-3.84,-3.85,-3.27,-1.97,-2.00,-2.01
231.25,1.80,3.80,1.79,3.79,-3.76,-3.73,-3.26,-1.96,-1.97,-2.00
233.57,1.71,3.70,1.70,3.69,-3.69,-3.61,-3.25,-1.98,-1.98,-1.99
235.90,1.61,3.58,1.61,3.58,-3.62,-3.50,-3.24,-2.01,-2.01,-1.97
238.26,1.50,3.46,1.56,3.52,-3.55,-3.39,-3.22,-2.05,-1.99,-1.96
240.64,1.54,3.48,1.53,3.46,-3.48,-3.28,-3.21,-1.93,-1.94,-1.93
243.05,1.57,3.47,1.50,3.40,-3.40,-3.18,-3.19,-1.83,-1.90,-1.90
245.48,1.44,3.32,1.49,3.36,-3.32,-3.08,-3.17,-1.87,-1.83,-1.87
247.93,1.39,3.23,1.44,3.28,-3.23,-2.98,-3.14,-1.84,-1.80,-1.84
250.41,1.42,3.25,1.35,3.17,-3.15,-2.88,-3.12,-1.73,-1.80,-1.82
252.92,1.28,3.07,1.26,3.05,-3.07,-2.79,-3.09,-1.79,-1.81,-1.79
255.45,1.11,2.87,1.17,2.94,-2.97,-2.70,-3.05,-1.86,-1.80,-1.76
258.00,1.07,2.81,1.10,2.84,-2.88,-2.61,-3.02,-1.80,-1.78,-1.74
260.58,1.10,2.82,1.06,2.78,-2.78,-2.53,-2.98,-1.67,-1.71,-1.72
263.19,1.03,2.72,1.01,2.70,-2.67,-2.45,-2.93,-1.64,-1.66,-1.68
265.82,0.91,2.58,0.91,2.58,-2.56,-2.36,-2.89,-1.65,-1.65,-1.67
268.48,0.77,2.41,0.82,2.45,-2.44,-2.28,-2.84,-1.67,-1.63,-1.64
271.16,0.72,2.33,0.73,2.34,-2.33,-2.20,-2.79,-1.60,-1.60,-1.60
273.87,0.69,2.28,0.64,2.23,-2.21,-2.12,-2.74,-1.51,-1.56,-1.59
276.61,0.52,2.07,0.54,2.09,-2.09,-2.04,-2.69,-1.57,-1.55,-1.55
279.38,0.41,1.94,0.41,1.93,-1.97,-1.96,-2.63,-1.56,-1.57,-1.52
282.17,0.27,1.77,0.30,1.79,-1.86,-1.87,-2.57,-1.59,-1.56,-1.50
284.99,0.23,1.69,0.25,1.72,-1.74,-1.78,-2.51,-1.51,-1.50,-1.46
287.84,0.21,1.66,0.21,1.65,-1.63,-1.69,-2.45,-1.41,-1.42,-1.44
290.72,0.20,1.61,0.16,1.56,-1.51,-1.60,-2.39,-1.30,-1.35,-1.41
293.63,0.05,1.43,0.06,1.44,-1.38,-1.50,-2.33,-1.33,-1.32,-1.38
296.57,-0.09,1.25,-0.06,1.28,-1.25,-1.39,-2.27,-1.34,-1.32,-1.34
299.53,-0.19,1.13,-0.21,1.11,-1.12,-1.28,-2.20,-1.31,-1.33,-1.31
302.53,-0.32,0.98,-0.32,0.97,-0.99,-1.16,-2.14,-1.31,-1.31,-1.30
305.55,-0.45,0.80,-0.42,0.83,-0.86,-1.03,-2.08,-1.31,-1.29,-1.25
308.61,-0.50,0.73,-0.52,0.71,-0.74,-0.90,-2.02,-1.24,-1.26,-1.23
311.69,-0.62,0.59,-0.60,0.60,-0.63,-0.76,-1.95,-1.24,-1.23,-1.20
314.81,-0.67,0.51,-0.68,0.50,-0.52,-0.61,-1.89,-1.19,-1.20,-1.17
317.96,-0.75,0.41,-0.74,0.42,-0.42,-0.45,-1.83,-1.17,-1.16,-1.16
321.14,-0.81,0.34,-0.79,0.35,-0.31,-0.29,-1.77,-1.12,-1.10,-1.15
324.35,-0.85,0.28,-0.87,0.26,-0.20,-0.13,-1.71,-1.04,-1.07,-1.13
327.59,-0.96,0.15,-0.98,0.13,-0.08,0.03,-1.65,-1.04,-1.06,-1.11
330.87,-1.14,-0.03,-1.13,-0.03,0.04,0.19,-1.59,-1.10,-1.09,-1.10
334.18,-1.29,-0.20,-1.27,-0.18,0.16,0.33,-1.53,-1.13,-1.11,-1.08
337.52,-1.40,-0.32,-1.39,-0.32,0.28,0.46,-1.47,-1.12,-1.11,-1.08
340.90,-1.46,-0.40,-1.50,-0.44,0.40,0.56,-1.41,-1.06,-1.10,-1.06
344.30,-1.59,-0.54,-1.55,-0.49,0.50,0.63,-1.35,-1.09,-1.05,-1.05
347.75,-1.62,-0.57,-1.59,-0.54,0.57,0.67,-1.30,-1.04,-1.01,-1.05
351.23,-1.56,-0.52,-1.65,-0.60,0.61,0.67,-1.24,-0.94,-1.03,-1.04
354.74,-1.70,-0.65,-1.69,-0.65,0.63,0.65,-1.19,-1.07,-1.06,-1.04
358.28,-1.77,-0.73,-1.70,-0.66,0.62,0.60,-1.14,-1.15,-1.08,-1.03
361.87,-1.68,-0.64,-1.67,-0.64,0.58,0.54,-1.09,-1.10,-1.09,-1.03
365.49,-1.52,-0.49,-1.57,-0.53,0.53,0.46,-1.03,-0.99,-1.04,-1.03
369.14,-1.46,-0.42,-1.46,-0.42,0.46,0.37,-0.98,-1.00,-1.00,-1.04
372.83,-1.39,-0.35,-1.38,-0.34,0.37,0.29,-0.93,-1.02,-1.01,-1.04
376.56,-1.31,-0.27,-1.30,-0.27,0.27,0.20,-0.89,-1.04,-1.03,-1.04
380.33,-1.21,-0.18,-1.20,-0.16,0.16,0.12,-0.84,-1.05,-1.04,-1.03
384.13,-1.09,-0.06,-1.10,-0.07,0.06,0.05,-0.79,-1.03,-1.04,-1.03
387.97,-1.00,0.04,-1.01,0.03,-0.03,-0.02,-0.74,-1.03,-1.04,-1.04
391.85,-0.96,0.10,-0.92,0.13,-0.11,-0.08,-0.70,-1.06,-1.02,-1.05
395.77,-0.83,0.22,-0.85,0.20,-0.18,-0.13,-0.65,-1.00,-1.02,-1.04
399.73,-0.78,0.28,-0.80,0.25,-0.24,-0.18,-0.61,-1.02,-1.04,-1.05
403.72,-0.78,0.28,-0.76,0.29,-0.29,-0.22,-0.57,-1.07,-1.05,-1.05
407.76,-0.77,0.30,-0.74,0.32,-0.33,-0.25,-0.53,-1.10,-1.07,-1.07
411.84,-0.70,0.37,-0.72,0.35,-0.36,-0.28,-0.48,-1.06,-1.08,-1.07
415.96,-0.68,0.39,-0.69,0.38,-0.38,-0.31,-0.44,-1.06,-1.07,-1.07
420.12,-0.69,0.38,-0.66,0.41,-0.39,-0.33,-0.41,-1.07,-1.04,-1.07
424.32,-0.63,0.44,-0.65,0.41,-0.39,-0.35,-0.37,-1.02,-1.04,-1.07
428.56,-0.64,0.42,-0.65,0.41,-0.40,-0.37,-0.33,-1.04,-1.05,-1.06
432.85,-0.66,0.39,-0.64,0.41,-0.41,-0.39,-0.30,-1.07,-1.05,-1.05
437.18,-0.64,0.40,-0.64,0.39,-0.43,-0.40,-0.26,-1.07,-1.07,-1.04
441.55,-0.60,0.40,-0.61,0.39,-0.45,-0.41,-0.23,-1.05,-1.06,-1.00
445.96,-0.56,0.41,-0.54,0.43,-0.47,-0.42,-0.20,-1.03,-1.01,-0.97
450.42,-0.47,0.47,-0.44,0.50,-0.50,-0.42,-0.17,-0.97,-0.94,-0.94
454.93,-0.30,0.59,-0.34,0.56,-0.53,-0.43,-0.14,-0.83,-0.86,-0.89
459.48,-0.23,0.61,-0.25,0.59,-0.55,-0.43,-0.11,-0.78,-0.80,-0.84
464.07,-0.22,0.57,-0.19,0.60,-0.56,-0.44,-0.08,-0.78,-0.75,-0.79
468.71,-0.17,0.57,-0.15,0.59,-0.57,-0.44,-0.06,-0.74,-0.72,-0.73
473.40,-0.11,0.59,-0.11,0.58,-0.57,-0.44,-0.03,-0.68,-0.68,-0.69
478.13,-0.05,0.59,-0.10,0.54,-0.56,-0.44,-0.01,-0.61,-0.66,-0.63
482.91,-0.11,0.49,-0.10,0.49,-0.54,-0.45,0.01,-0.65,-0.64,-0.59
487.74,-0.14,0.42,-0.06,0.49,-0.52,-0.45,0.02,-0.65,-0.58,-0.55
492.62,-0.01,0.50,-0.02,0.49,-0.49,-0.45,0.04,-0.50,-0.52,-0.50
