frequency,raw
10,-29.856577350796883
11,-31.00534473752864
12,-30.35033968138008
13,-29.333062567439264
14,-28.34952561821919
15,-27.305602375724398
16,-26.491601072309162
17,-25.341542609551546
18,-24.73455258837548
19,-23.987265782988146
20,-23.43987290077902
21,-22.29418528411705
22,-21.837082782438117
23,-21.28170194597222
24,-20.46788426885728
25,-19.93193872382116
26,-19.48399729990745
27,-18.784267659765646
28,-18.39762304634606
29,-17.463533779103514
30,-17.00921186043642
31,-16.344138792205495
32,-15.952891028656143
33,-15.579309775251971
34,-15.03602919324554
35,-14.585438413110488
36,-14.004463365470265
37,-13.833619322477308
38,-13.116863075165519
39,-12.765608764063586
40,-12.321058577662559
41,-11.81189873402715
42,-11.383639181136626
43,-11.092829367548948
44,-10.50137622711937
45,-10.252631172822912
46,-9.651185771886961
47,-9.500066852030677
48,-9.083004518571332
49,-8.728306216015135
50,-8.32985377535454
51,-7.750448016791544
52,-7.524580250550693
53,-7.329426177892754
54,-6.864583840825944
55,-6.6637728500957625
56,-6.1741782881545095
57,-5.864590208224142
58,-5.589893974863413
59,-5.131755686396022
60,-4.947025173534704
61,-4.679366311520292
62,-4.2392109342719255
63,-3.9943898218481673
64,-3.798282449466375
65,-3.555402688922542
66,-3.306445611957426
67,-3.0629811360249737
68,-2.824187447800875
69,-2.3824404720605616
70,-2.169019779476413
71,-1.9720580846204387
72,-1.713187392346002
73,-1.5831762576889963
74,-1.370488221768001
75,-1.134655438486198
76,-1.081647082986386
77,-0.8733266177917502
78,-0.7356269421660073
79,-0.5746601368541451
80,-0.361348178069798
81,-0.19429600939435554
82,-0.07273656140028217
83,0.04987038413809852
84,0.24262226095946904
85,0.38435108505912297
86,0.3990144587974238
87,0.46389361937344376
88,0.6857011775565915
89,0.7558795190836896
90,0.8200857848810106
91,0.8482755285235077
92,1.0230355693087994
93,1.0272234657333463
94,1.012649557560069
95,1.0927777354372115
96,1.1035816866017916
97,1.1121058039353002
98,1.1248534911802635
99,1.2355539445621
100,1.2373361838665176
101,1.229151802506582
102,1.2144303231282754
104,1.2000248743262008
105,1.1928416519965976
106,1.1965146309425103
107,1.209838560080379
108,1.2276395194841419
109,1.2391729923067816
110,1.1600650967915556
111,1.1515956142905326
112,1.130075734656237
113,1.0326588864662574
114,1.0184923583151866
115,1.006246810689694
117,0.996163562703086
118,0.9888146637343125
119,0.9401410391136693
120,0.8820701240256179
121,0.8284000926738484
123,0.7822134887352088
124,0.7821869037269362
125,0.781205593930645
126,0.7801907937995578
128,0.5882013091008842
129,0.5832815203835287
130,0.5897212668795282
131,0.597104906786817
133,0.5359794828575266
134,0.42330488646691267
135,0.40031818031043853
137,0.39554202774445546
138,0.39191893132906763
140,0.2435150040638261
141,0.19564010653257657
142,0.20313455262493596
144,0.21047256409796855
145,0.145285279810194
147,0.014018378746608384
148,0.010799262860738512
150,-0.06197447287115043
151,-0.1699011280607059
153,-0.19560948412844326
154,-0.18715548199889298
156,-0.1720375162797887
157,-0.1523834946207896
159,-0.14886480680582448
160,-0.22021750726802924
162,-0.3106178403504396
164,-0.31243569092658374
165,-0.32097324965956275
167,-0.33168391369971584
169,-0.44063751973563736
170,-0.4441977745937349
172,-0.5437557400184021
174,-0.5694537581694301
175,-0.6212537441243002
177,-0.6356775139643931
179,-0.6351004575880088
181,-0.792023531179594
183,-0.8351570939662603
184,-0.8338775987253726
186,-0.8329890369754684
188,-0.8527586267428386
190,-1.0062303880334076
192,-1.0366757380070037
194,-1.0346445269096032
196,-1.0276845603814393
198,-1.045776244873962
200,-1.0993668196717938
202,-1.0815937221358052
204,-1.0598648844341865
206,-1.09677597969947
208,-1.2303948853079463
210,-1.2356691563020896
212,-1.2482344479376124
214,-1.3813181487838766
216,-1.420280620681355
218,-1.4077660580623734
221,-1.5428641397562428
223,-1.5868134489880736
225,-1.6478946430588373
227,-1.6094985369773296
229,-1.5947336590529027
232,-1.7348046020445422
234,-1.738623060368349
236,-1.735577763730141
239,-1.7255770050370538
241,-1.7107147812641914
244,-1.6944484283202361
246,-1.6802131292117282
248,-1.6701963111075795
251,-1.714885800242599
253,-1.8043097059416588
256,-1.7804709062407698
259,-1.8266957511441504
261,-1.9342327811970121
264,-1.9047092163004367
266,-1.884552674205017
269,-1.8881067349140217
272,-1.9288808305097351
274,-1.9488199103422867
277,-1.8707036401509614
280,-1.753686641692636
283,-1.572838146989425
286,-1.5294698207554904
288,-1.5390545439899772
291,-1.532870733939005
294,-1.5262994567995771
297,-1.518405659148549
300,-1.509470913658042
303,-1.6231329074978031
306,-1.6954496451022383
309,-1.6913266785259324
312,-1.7044649949091535
316,-1.7855172917429836
319,-1.7790518893580876
322,-1.7693951176045504
325,-1.764584781536703
328,-1.842982938854028
332,-1.845476657627342
335,-1.839083519730346
338,-1.8707979052757704
342,-2.033079580176679
345,-2.037401036759293
349,-2.0249443912247274
352,-2.011399399126134
356,-1.9954401890239124
359,-1.9790424444804544
363,-1.9634934910819024
366,-1.9491248906365715
370,-1.9935304759004726
374,-1.9230819178118344
377,-1.8838246884981644
381,-1.9014090701201711
385,-1.8926813500550352
389,-1.8843988667182483
393,-1.915415326840467
397,-2.025018475697885
401,-1.9784283267843272
405,-1.9414009324476384
409,-1.9342966093517542
413,-1.9329375400589521
417,-2.1027009272419934
421,-2.1052173374163674
425,-2.0510315863461073
430,-2.0542344584094203
434,-2.0514702620099317
438,-2.04460767864241
443,-2.1798065427518236
447,-2.223594125898518
451,-2.1288440520539447
456,-2.106292892790333
460,-2.0923745866268924
465,-2.076819767546077
470,-2.061198130861662
474,-2.046520812925811
479,-2.032083666535618
484,-2.015544238128451
489,-2.2155591640420322
494,-2.1884720037258227
499,-2.036147826257268
504,-2.0032501753946423
509,-1.9729782461729601
514,-1.9483993873331595
519,-1.9310255130957272
524,-1.9208787723045817
529,-1.91697017130917
535,-1.9177476302059473
540,-1.9213373985581406
545,-1.9256625745348752
551,-2.0730631563777515
556,-2.1694015595904417
562,-2.029218206626966
568,-2.010682408926935
573,-1.99178378001456
579,-1.7056533200328277
585,-1.6779522850828723
591,-1.8122789432422763
596,-1.7914409137441059
602,-1.779703506098393
608,-1.7773039851280341
615,-1.7806001148097932
621,-1.7831291276520174
627,-1.778371774635921
633,-1.7630068634135307
639,-1.7388970315194203
646,-1.712529012771708
652,-1.6919929474969098
659,-1.6830403728520786
665,-1.5191666537228539
672,-1.4255561270765509
679,-1.6291086610015122
686,-1.7964156265675126
692,-1.7942140668624669
699,-1.5020517759419216
706,-1.4855531963329507
713,-1.4660088234038389
721,-1.4461613506824982
728,-1.4290121056122824
735,-1.4044703177925313
742,-1.317564731074024
750,-1.2729156936719201
757,-1.2542701965775582
765,-1.2850835246193166
773,-1.4621968523319304
780,-1.4943190809435603
788,-1.1326623675103518
796,-1.0104858914977823
804,-1.13178106611992
812,-1.2521118977870627
820,-1.2866844447878076
828,-0.9360257839570352
837,-0.8775933400830924
845,-1.0264039985524733
853,-1.0227738138589988
862,-0.9680104179201616
871,-0.9779354803794074
879,-0.9872597241932932
888,-0.8875807207900266
897,-0.8842256309561769
906,-0.7792253898326227
915,-0.4933759890568077
924,-0.49517690300920636
933,-0.8221056993534437
943,-0.7051919064524523
952,-0.5297885724224338
962,-0.25218125948310566
971,-0.23546252049521632
981,-0.3443346745816276
991,-0.1572357618384128
1001,0.017383213703844103
1011,-0.07497931243693379
1021,-0.05470777048933528
1031,-0.03071435980826176
1041,-0.0009434498955063209
1052,0.03491459693743004
1062,0.07610001829596413
1073,0.12184391380987836
1084,0.1718290099127724
1094,0.2871875487023161
1105,0.5838702555482198
1116,0.5344977769464387
1128,0.4937448012854029
1139,0.5451041474105123
1150,0.5957517618989085
1162,0.35524621431802306
1173,0.588610914901498
1185,0.7435888075185915
1197,0.42751849212347626
1209,0.697953699716265
1221,0.977333783953598
1233,0.6263054571751854
1246,0.8261298295009998
1258,1.1190615759272353
1271,0.9508254694609213
1283,1.013331515192485
1296,1.0223783555631543
1309,1.0318660218059401
1322,1.1193557322097714
1335,1.193380813378102
1349,1.3387630167794384
1362,1.2757908145298487
1376,1.1767451487768277
1390,1.1397350086445925
1404,1.0146226242029903
1418,0.8830416961314178
1432,0.7705007635781715
1446,0.5256004403866044
1461,0.30274930714649706
1475,0.24879757769469846
1490,0.16718779498598302
1505,-0.11836088576903947
1520,-0.37947011500634176
1535,-0.5295113961310678
1550,-0.5998496410692278
1566,-1.0655565837021244
1582,-1.348881120793862
1597,-1.4785973328896054
1613,-1.4415674544290868
1629,-1.3427330798563242
1646,-0.9198484464568559
1662,-0.4975830959283378
1679,0.4359408856378213
1696,1.0420931433205887
1713,2.3709924229907386
1730,3.570479607433017
1747,4.284151407612327
1764,4.876246289501513
1782,5.871319147570528
1800,6.498960235028832
1818,6.973873770870205
1836,7.521835019909849
1854,7.902491431056768
1873,8.147160223238748
1892,8.258846104218645
1911,8.236286597204552
1930,8.315292794888531
1949,8.436983037219791
1969,8.514820949483397
1988,8.357287561315456
2008,8.205998876141933
2028,8.043136493521466
2048,7.797923238650171
2069,7.513305200324141
2090,7.284646341290202
2111,6.928077645667188
2132,6.788450453198543
2153,6.744529743093137
2175,6.425970609107534
2196,6.251372601885641
2218,6.0267939117928
2240,5.704405261436098
2263,5.371808044599887
2285,5.218503289937177
2308,4.899516968950467
2331,4.546032262790562
2355,4.442258408729337
2378,4.241506274785387
2402,3.988162419627227
2426,3.765559781267501
2450,3.638813755805784
2475,3.4124305115787026
2500,3.1839917273940372
2525,3.1725967941485154
2550,3.0600108721473944
2575,2.8839658407250157
2601,2.7711952406958895
2627,2.4269888809380076
2653,2.2351359047210817
2680,2.1324474735508314
2707,2.1388341402271926
2734,2.017975269213495
2761,1.9729708857477393
2789,2.046629131989527
2817,2.0572578706972164
2845,2.033098024437731
2873,1.9808217250560354
2902,1.9464186658556262
2931,1.9302852314889387
2960,1.8282776693881608
2990,1.8271834756538237
3020,1.8716451983019287
3050,1.889990250288335
3080,1.8364628359633386
3111,1.7942723151921758
3142,1.8018593072941922
3174,1.833705376901822
3206,1.8639611808549823
3238,1.8938963891056666
3270,1.8792963462786378
3303,1.931065970259123
3336,1.8758607654935684
3369,1.806380085436274
3403,1.6290113885854147
3437,1.4207439212120807
3471,1.248210508048956
3506,1.0997021968312506
3541,0.92060336895792
3576,0.6374179698755
3612,0.32170445721397023
3648,0.11560018758508228
3685,-0.13726028514531485
3721,-0.4832929447868679
3759,-0.7524548635489836
3796,-1.2648551043247256
3834,-1.8140342192388488
3873,-2.1742623696592887
3911,-2.4746723473061643
3950,-2.8423894764896716
3990,-3.461032447553608
4030,-4.174978115241149
4070,-4.7330414312082
4111,-5.035262344452356
4152,-5.72627613436601
4193,-6.49430270807251
4235,-7.296150558989396
4278,-7.874461062547283
4321,-8.408977578847686
4364,-9.096963101251635
4407,-8.912731605666533
4451,-8.20495667823398
4496,-7.341798942631048
4541,-6.3690394446403165
4586,-5.663796839682103
4632,-4.643027812651269
4679,-3.8752038416576493
4725,-3.481403650520388
4773,-3.4453416350915216
4820,-3.4743613660933166
4868,-3.2769068278332023
4917,-3.499762736756561
4966,-3.904823355363198
5016,-4.861000964024744
5066,-5.487452888471421
5117,-6.317022365483827
5168,-6.701256035625847
5220,-6.355717087488453
5272,-6.131816325931115
5325,-6.50344118843821
5378,-7.075663141534636
5432,-7.2398757700461465
5486,-6.5380727114628
5541,-6.4492147587427135
5596,-6.741269091698155
5652,-7.362435725398279
5709,-8.19226645793944
5766,-9.626257021009543
5823,-10.056678453434083
5882,-10.718586879020283
5940,-10.701856618316011
6000,-11.13472304945391
6060,-11.01316555501507
6120,-10.846950184479098
6182,-11.295668313319625
6244,-11.707103760111274
6306,-11.892979459139667
6369,-11.898870414869169
6433,-11.86972511542642
6497,-11.958647996370129
6562,-12.001238012428537
6628,-12.285866387785745
6694,-12.600445519161667
6761,-12.491565108757722
6828,-11.581535533969184
6897,-11.254491870855144
6966,-10.402017579373076
7035,-9.295797374179648
7106,-8.756787556619376
7177,-8.213044919586336
7249,-7.909564144750986
7321,-7.273020295622185
7394,-6.043303610110403
7468,-5.488412905686691
7543,-5.434148433652938
7618,-5.756233992293232
7694,-6.041878739238055
7771,-5.993183452474633
7849,-5.463366082608277
7928,-5.127268379392835
8007,-5.235662388549671
8087,-5.942253434009006
8168,-6.5307276710185445
8250,-7.08812572257559
8332,-8.318494384861317
8415,-8.773405143432235
8499,-9.381664816987401
8584,-10.337356854821698
8670,-10.59199176629556
8757,-10.79842152316846
8845,-11.06840669444183
8933,-11.202312111644304
9022,-10.708260468463164
9113,-8.611201229063198
9204,-7.872135641726463
9296,-8.056258033124363
9389,-7.920716079548685
9483,-7.820226392953084
9577,-8.941475379556927
9673,-10.186324161990107
9770,-10.72485809818276
9868,-11.031958943224865
9966,-10.601325257464385
10066,-11.000081103926684
10167,-11.908091755725435
10268,-12.747481389815167
10371,-14.129843162537142
10475,-15.281066860897841
10579,-15.660301978440842
10685,-15.814803550668733
10792,-17.046207760851782
10900,-17.991590997277637
11009,-18.256434148714916
11119,-18.01313674932066
11230,-17.65154423915939
11343,-16.94678223709371
11456,-17.4020795728671
11571,-17.50593602156933
11686,-16.95293314640385
11803,-15.560870690085292
11921,-14.353575150819363
12040,-13.786220792923526
12161,-13.554926904754225
12282,-13.61506280124615
12405,-14.08534179908914
12529,-14.237548502123342
12655,-14.575653492260056
12781,-14.166585744795537
12909,-14.10048415509868
13038,-14.202310719357428
13168,-15.258779570106721
13300,-15.881934180109415
13433,-16.42233056614282
13567,-16.859994488618387
13703,-16.70545638173382
13840,-17.18522094727258
13978,-17.567184730645724
14118,-17.507892741817198
14259,-17.422028197965016
14402,-17.15423598798812
14546,-17.537066336270602
14692,-17.552293417850734
14838,-16.04050730194711
14987,-13.279542495281719
15137,-10.379841805525505
15288,-9.436126520831923
15441,-8.383140680476465
15595,-9.279643830720577
15751,-9.522638062761029
15909,-10.369737307855631
16068,-10.915690832946574
16229,-11.05725688444562
16391,-11.78840642456941
16555,-11.750332539923594
16720,-11.766977231483096
16888,-12.703021501119702
17056,-13.86223184605371
17227,-17.564598420522113
17399,-18.98654985366296
17573,-19.719016103346412
17749,-19.62319263613283
17926,-19.14427534804234
18106,-18.099365328720836
18287,-17.028294387760308
18470,-16.162188438404144
18654,-15.81815540500781
18841,-15.722280966437442
19029,-16.802002354094316
19220,-19.013331949273343
19412,-20.209400077372344
19606,-21.756088458844566
19802,-22.55748483367041
20000,-24.667893340743152
20200,-26.831463698701693
20402,-26.170592083917427
20606,-25.98687058736334
20812,-25.872209096013048
21020,-25.070816761099685
21230,-24.309442267637166
21443,-23.371965470069554
21657,-23.95410413138986
21874,-25.229073417561708
22092,-25.800389468309216
22313,-26.44054433040024
22537,-26.420635130020155
22762,-25.808049913023364
22989,-24.383735864120055
23219,-24.81000867479723
23452,-25.75887694653013
23686,-26.13489419031505
23923,-27.05899994624762
24162,-27.85809582999592
24404,-28.660471177591635
24648,-29.461930602017837
24894,-30.26223163426906
25143,-31.06493895842432
25395,-31.869700555252543
25649,-32.67246637103712
25905,-33.47311158124347
26164,-34.27524410661585
26426,-35.07872801315117
26690,-35.87985320984435
26957,-36.6822082393769
27227,-37.48570776602719
27499,-38.28675827806588
27774,-39.08882092391394
28052,-39.89177528148611
28332,-40.69209836735426
28615,-41.49312277160511
28902,-42.29806480452142
29191,-43.10012064791239
29482,-43.89928345918457
29777,-44.70200902480709
