frequency,raw,error,smoothed,error_smoothed,equalization,parametric_eq,equalized_raw,equalized_smoothed,target
20,-4.24,-5.99,-4.26,-6.01,6.00,1.88,1.76,1.74,1.74
21,-4.09,-5.84,-4.11,-5.85,5.85,2.17,1.76,1.74,1.74
22,-4.00,-5.74,-3.95,-5.69,5.69,2.49,1.69,1.74,1.74
23,-3.79,-5.53,-3.79,-5.53,5.53,2.83,1.74,1.74,1.74
24,-3.64,-5.38,-3.63,-5.36,5.36,3.19,1.72,1.74,1.74
25,-3.51,-5.25,-3.46,-5.19,5.19,3.56,1.68,1.73,1.73
26,-3.25,-4.98,-3.29,-5.02,5.02,3.93,1.76,1.73,1.73
27,-3.08,-4.81,-3.12,-4.84,4.84,4.27,1.76,1.73,1.73
28,-2.94,-4.67,-2.95,-4.67,4.67,4.57,1.72,1.72,1.72
29,-2.79,-4.51,-2.78,-4.49,4.49,4.80,1.70,1.72,1.72
30,-2.62,-4.34,-2.61,-4.32,4.32,4.95,1.70,1.71,1.71
31,-2.39,-4.10,-2.45,-4.15,4.15,5.01,1.76,1.71,1.71
32,-2.22,-3.93,-2.28,-3.99,3.99,4.98,1.76,1.70,1.70
33,-2.16,-3.86,-2.12,-3.82,3.82,4.87,1.65,1.70,1.70
34,-1.99,-3.68,-1.96,-3.65,3.65,4.69,1.65,1.69,1.69
35,-1.81,-3.50,-1.79,-3.47,3.47,4.47,1.65,1.68,1.68
36,-1.64,-3.32,-1.61,-3.29,3.29,4.22,1.64,1.67,1.67
37,-1.46,-3.13,-1.44,-3.10,3.10,3.96,1.64,1.66,1.66
38,-1.24,-2.90,-1.26,-2.92,2.92,3.69,1.67,1.65,1.65
39,-1.07,-2.72,-1.09,-2.73,2.73,3.44,1.66,1.64,1.64
40,-0.88,-2.52,-0.92,-2.55,2.55,3.19,1.67,1.63,1.63
41,-0.73,-2.36,-0.76,-2.38,2.38,2.95,1.64,1.62,1.62
42,-0.59,-2.20,-0.61,-2.22,2.22,2.73,1.62,1.61,1.61
43,-0.47,-2.07,-0.47,-2.07,2.07,2.53,1.59,1.60,1.60
44,-0.35,-1.94,-0.35,-1.93,1.93,2.34,1.58,1.58,1.58
45,-0.25,-1.82,-0.23,-1.80,1.80,2.16,1.55,1.57,1.57
46,-0.10,-1.66,-0.13,-1.68,1.68,2.00,1.58,1.55,1.55
47,-0.04,-1.58,-0.04,-1.58,1.58,1.85,1.53,1.54,1.54
48,0.04,-1.48,0.04,-1.48,1.48,1.70,1.51,1.52,1.52
49,0.14,-1.37,0.12,-1.38,1.38,1.57,1.52,1.50,1.50
50,0.18,-1.31,0.19,-1.30,1.30,1.45,1.47,1.48,1.48
51,0.25,-1.22,0.25,-1.22,1.22,1.34,1.46,1.46,1.46
52,0.31,-1.14,0.30,-1.14,1.14,1.23,1.45,1.44,1.44
53,0.36,-1.07,0.35,-1.07,1.07,1.13,1.43,1.42,1.42
54,0.40,-1.00,0.39,-1.01,1.01,1.03,1.40,1.40,1.40
55,0.46,-0.92,0.43,-0.94,0.94,0.94,1.40,1.38,1.38
56,0.46,-0.90,0.47,-0.88,0.88,0.85,1.34,1.35,1.35
57,0.49,-0.84,0.51,-0.81,0.81,0.77,1.30,1.33,1.33
58,0.53,-0.77,0.56,-0.74,0.74,0.69,1.27,1.30,1.30
59,0.63,-0.65,0.61,-0.67,0.67,0.61,1.29,1.27,1.27
60,0.67,-0.58,0.66,-0.59,0.59,0.53,1.25,1.24,1.24
61,0.68,-0.54,0.71,-0.50,0.50,0.46,1.18,1.22,1.22
62,0.78,-0.41,0.77,-0.41,0.41,0.38,1.19,1.19,1.19
63,0.82,-0.34,0.83,-0.33,0.33,0.31,1.14,1.16,1.16
64,0.89,-0.24,0.88,-0.24,0.24,0.24,1.13,1.12,1.12
65,0.97,-0.13,0.93,-0.16,0.16,0.17,1.12,1.09,1.09
66,0.99,-0.07,0.98,-0.08,0.08,0.10,1.07,1.06,1.06
67,1.05,0.02,1.02,-0.01,0.01,0.03,1.05,1.02,1.02
68,1.06,0.07,1.05,0.06,-0.06,-0.04,1.00,0.99,0.99
69,1.06,0.10,1.07,0.12,-0.12,-0.10,0.94,0.95,0.95
70,1.11,0.19,1.10,0.18,-0.18,-0.17,0.93,0.92,0.92
71,1.07,0.18,1.11,0.23,-0.23,-0.24,0.83,0.88,0.88
72,1.18,0.33,1.13,0.29,-0.29,-0.31,0.89,0.84,0.84
73,1.14,0.33,1.16,0.35,-0.35,-0.38,0.79,0.81,0.81
74,1.17,0.40,1.18,0.41,-0.41,-0.45,0.76,0.77,0.77
75,1.20,0.47,1.20,0.47,-0.47,-0.51,0.72,0.73,0.73
76,1.23,0.54,1.23,0.54,-0.54,-0.58,0.69,0.69,0.69
77,1.27,0.62,1.26,0.60,-0.60,-0.65,0.66,0.65,0.65
78,1.29,0.68,1.28,0.67,-0.67,-0.72,0.61,0.61,0.61
79,1.33,0.76,1.31,0.74,-0.74,-0.79,0.58,0.57,0.57
80,1.34,0.81,1.34,0.81,-0.81,-0.86,0.52,0.53,0.53
81,1.38,0.89,1.37,0.89,-0.89,-0.94,0.49,0.49,0.49
82,1.38,0.93,1.40,0.96,-0.96,-1.01,0.42,0.45,0.45
83,1.46,1.05,1.43,1.03,-1.03,-1.08,0.43,0.41,0.41
84,1.45,1.08,1.47,1.10,-1.10,-1.15,0.35,0.36,0.36
85,1.53,1.20,1.50,1.17,-1.17,-1.23,0.35,0.32,0.32
86,1.53,1.24,1.52,1.24,-1.24,-1.30,0.28,0.28,0.28
87,1.53,1.29,1.55,1.31,-1.31,-1.38,0.21,0.24,0.24
88,1.60,1.40,1.58,1.38,-1.38,-1.45,0.21,0.20,0.20
89,1.59,1.43,1.61,1.45,-1.45,-1.53,0.14,0.16,0.16
90,1.66,1.54,1.63,1.51,-1.51,-1.61,0.14,0.12,0.12
91,1.64,1.56,1.65,1.57,-1.57,-1.68,0.06,0.07,0.07
92,1.68,1.64,1.67,1.63,-1.63,-1.76,0.04,0.03,0.03
93,1.70,1.70,1.68,1.69,-1.69,-1.84,0.01,-0.01,-0.01
94,1.69,1.73,1.70,1.74,-1.74,-1.92,-0.06,-0.05,-0.05
95,1.73,1.81,1.71,1.80,-1.80,-2.00,-0.07,-0.09,-0.09
96,1.71,1.83,1.72,1.85,-1.85,-2.08,-0.14,-0.13,-0.13
97,1.74,1.90,1.74,1.90,-1.90,-2.16,-0.17,-0.17,-0.17
98,1.75,1.95,1.75,1.96,-1.96,-2.24,-0.21,-0.21,-0.21
99,1.78,2.02,1.77,2.02,-2.02,-2.32,-0.24,-0.25,-0.25
100,1.78,2.06,1.79,2.08,-2.08,-2.40,-0.31,-0.29,-0.29
101,1.80,2.12,1.81,2.15,-2.15,-2.48,-0.35,-0.33,-0.32
102,1.85,2.21,1.84,2.22,-2.22,-2.56,-0.37,-0.38,-0.36
104,1.88,2.31,1.86,2.28,-2.28,-2.71,-0.41,-0.42,-0.44
105,1.91,2.38,1.88,2.35,-2.35,-2.79,-0.44,-0.46,-0.47
106,1.90,2.40,1.90,2.41,-2.41,-2.86,-0.51,-0.50,-0.51
107,1.92,2.46,1.92,2.46,-2.46,-2.93,-0.55,-0.54,-0.54
108,1.96,2.53,1.94,2.52,-2.52,-3.01,-0.56,-0.58,-0.58
109,1.94,2.55,1.95,2.57,-2.57,-3.08,-0.63,-0.61,-0.61
110,1.98,2.62,1.97,2.62,-2.62,-3.14,-0.64,-0.65,-0.65
111,2.00,2.68,1.99,2.67,-2.67,-3.21,-0.67,-0.68,-0.68
112,1.99,2.70,2.01,2.72,-2.72,-3.27,-0.74,-0.72,-0.71
113,2.03,2.77,2.03,2.77,-2.77,-3.33,-0.75,-0.75,-0.75
114,2.05,2.82,2.05,2.83,-2.83,-3.39,-0.78,-0.78,-0.78
115,2.05,2.85,2.07,2.89,-2.89,-3.44,-0.84,-0.82,-0.81
117,2.11,2.97,2.09,2.94,-2.94,-3.54,-0.84,-0.85,-0.87
118,2.15,3.04,2.11,3.00,-3.00,-3.58,-0.85,-0.89,-0.90
119,2.12,3.04,2.13,3.06,-3.06,-3.62,-0.94,-0.93,-0.93
120,2.15,3.10,2.15,3.11,-3.11,-3.66,-0.97,-0.96,-0.96
121,2.16,3.14,2.17,3.16,-3.16,-3.69,-1.01,-0.99,-0.98
123,2.19,3.22,2.19,3.22,-3.22,-3.75,-1.03,-1.03,-1.04
124,2.25,3.31,2.21,3.27,-3.27,-3.77,-1.02,-1.06,-1.06
125,2.21,3.29,2.22,3.32,-3.32,-3.79,-1.11,-1.09,-1.09
126,2.21,3.32,2.24,3.36,-3.36,-3.80,-1.16,-1.12,-1.11
128,2.29,3.45,2.26,3.41,-3.41,-3.82,-1.13,-1.15,-1.16
129,2.28,3.46,2.28,3.46,-3.46,-3.83,-1.18,-1.18,-1.19
130,2.30,3.50,2.29,3.50,-3.50,-3.83,-1.21,-1.21,-1.21
131,2.31,3.54,2.31,3.55,-3.55,-3.83,-1.24,-1.24,-1.23
133,2.32,3.59,2.32,3.59,-3.59,-3.82,-1.27,-1.27,-1.27
134,2.34,3.63,2.33,3.63,-3.63,-3.82,-1.29,-1.30,-1.30
135,2.35,3.66,2.34,3.67,-3.67,-3.81,-1.32,-1.32,-1.32
137,2.36,3.71,2.36,3.71,-3.71,-3.78,-1.35,-1.35,-1.36
138,2.34,3.71,2.37,3.75,-3.75,-3.77,-1.41,-1.38,-1.38
140,2.43,3.84,2.38,3.79,-3.79,-3.74,-1.36,-1.40,-1.41
141,2.39,3.82,2.40,3.83,-3.83,-3.72,-1.44,-1.43,-1.43
142,2.40,3.84,2.41,3.87,-3.87,-3.70,-1.47,-1.45,-1.45
144,2.45,3.93,2.42,3.90,-3.90,-3.67,-1.46,-1.48,-1.48
145,2.41,3.90,2.44,3.94,-3.94,-3.65,-1.53,-1.50,-1.50
147,2.47,4.00,2.45,3.98,-3.98,-3.61,-1.51,-1.53,-1.53
148,2.48,4.02,2.46,4.01,-4.01,-3.59,-1.53,-1.55,-1.55
150,2.48,4.05,2.47,4.04,-4.04,-3.55,-1.56,-1.57,-1.57
151,2.48,4.06,2.48,4.07,-4.07,-3.53,-1.59,-1.59,-1.59
153,2.48,4.09,2.49,4.10,-4.10,-3.49,-1.62,-1.61,-1.62
154,2.50,4.13,2.49,4.13,-4.13,-3.47,-1.63,-1.63,-1.63
156,2.51,4.16,2.50,4.15,-4.15,-3.44,-1.64,-1.65,-1.65
157,2.48,4.14,2.51,4.18,-4.18,-3.42,-1.70,-1.67,-1.67
159,2.55,4.24,2.51,4.20,-4.20,-3.39,-1.66,-1.69,-1.69
160,2.53,4.23,2.52,4.23,-4.23,-3.38,-1.70,-1.71,-1.70
162,2.49,4.21,2.53,4.25,-4.25,-3.35,-1.77,-1.72,-1.72
164,2.56,4.30,2.54,4.28,-4.28,-3.33,-1.72,-1.74,-1.75
165,2.56,4.31,2.54,4.30,-4.30,-3.32,-1.75,-1.76,-1.76
167,2.53,4.30,2.55,4.33,-4.33,-3.30,-1.80,-1.77,-1.78
169,2.59,4.38,2.56,4.35,-4.35,-3.29,-1.76,-1.79,-1.79
170,2.56,4.36,2.56,4.37,-4.37,-3.29,-1.81,-1.81,-1.80
172,2.54,4.36,2.57,4.39,-4.39,-3.28,-1.85,-1.82,-1.82
174,2.58,4.41,2.57,4.40,-4.40,-3.27,-1.82,-1.83,-1.84
175,2.60,4.44,2.56,4.41,-4.41,-3.27,-1.81,-1.85,-1.85
177,2.56,4.42,2.55,4.42,-4.42,-3.28,-1.86,-1.86,-1.86
179,2.53,4.40,2.54,4.42,-4.42,-3.28,-1.89,-1.87,-1.88
181,2.53,4.42,2.53,4.42,-4.42,-3.29,-1.89,-1.89,-1.89
183,2.53,4.43,2.51,4.41,-4.41,-3.30,-1.89,-1.90,-1.90
184,2.50,4.41,2.49,4.41,-4.41,-3.30,-1.91,-1.91,-1.91
186,2.47,4.39,2.47,4.39,-4.39,-3.32,-1.93,-1.92,-1.92
188,2.45,4.38,2.45,4.38,-4.38,-3.34,-1.94,-1.93,-1.93
190,2.42,4.36,2.42,4.37,-4.37,-3.36,-1.95,-1.95,-1.95
192,2.40,4.35,2.39,4.35,-4.35,-3.38,-1.95,-1.96,-1.96
194,2.37,4.33,2.36,4.33,-4.33,-3.40,-1.97,-1.97,-1.97
196,2.34,4.31,2.34,4.31,-4.31,-3.43,-1.98,-1.98,-1.98
198,2.31,4.29,2.31,4.29,-4.29,-3.46,-1.99,-1.99,-1.99
200,2.28,4.27,2.28,4.28,-4.28,-3.49,-2.00,-2.00,-2.00
202,2.25,4.25,2.25,4.26,-4.26,-3.52,-2.01,-2.01,-2.01
204,2.22,4.23,2.22,4.24,-4.24,-3.55,-2.02,-2.01,-2.01
206,2.20,4.22,2.20,4.22,-4.22,-3.58,-2.02,-2.02,-2.02
208,2.17,4.20,2.17,4.20,-4.20,-3.61,-2.03,-2.03,-2.03
210,2.15,4.18,2.14,4.18,-4.18,-3.65,-2.03,-2.04,-2.04
212,2.12,4.16,2.11,4.15,-4.15,-3.68,-2.04,-2.04,-2.04
214,2.08,4.13,2.07,4.12,-4.12,-3.71,-2.05,-2.05,-2.05
216,2.06,4.11,2.04,4.09,-4.09,-3.74,-2.04,-2.06,-2.06
218,2.00,4.06,2.00,4.06,-4.06,-3.77,-2.07,-2.06,-2.06
221,1.94,4.01,1.95,4.03,-4.03,-3.81,-2.09,-2.07,-2.07
223,1.90,3.97,1.91,3.99,-3.99,-3.84,-2.09,-2.08,-2.08
225,1.86,3.94,1.87,3.95,-3.95,-3.86,-2.09,-2.08,-2.08
227,1.83,3.92,1.82,3.91,-3.91,-3.89,-2.08,-2.09,-2.09
229,1.80,3.89,1.77,3.86,-3.86,-3.90,-2.07,-2.10,-2.09
232,1.74,3.84,1.72,3.82,-3.82,-3.93,-2.08,-2.10,-2.10
234,1.67,3.77,1.67,3.78,-3.78,-3.94,-2.11,-2.11,-2.11
236,1.60,3.71,1.62,3.73,-3.73,-3.95,-2.13,-2.11,-2.11
239,1.56,3.67,1.57,3.68,-3.68,-3.96,-2.13,-2.12,-2.12
241,1.53,3.65,1.52,3.64,-3.64,-3.96,-2.12,-2.12,-2.12
244,1.48,3.60,1.47,3.60,-3.60,-3.96,-2.12,-2.13,-2.13
246,1.42,3.55,1.43,3.56,-3.56,-3.95,-2.14,-2.13,-2.13
248,1.38,3.51,1.38,3.52,-3.52,-3.94,-2.14,-2.13,-2.13
251,1.35,3.48,1.34,3.48,-3.48,-3.92,-2.13,-2.14,-2.14
253,1.33,3.47,1.30,3.44,-3.44,-3.90,-2.11,-2.14,-2.14
256,1.25,3.39,1.25,3.40,-3.40,-3.87,-2.15,-2.15,-2.15
259,1.20,3.35,1.21,3.36,-3.36,-3.83,-2.16,-2.15,-2.15
261,1.18,3.33,1.16,3.32,-3.32,-3.80,-2.14,-2.15,-2.15
264,1.11,3.26,1.12,3.27,-3.27,-3.75,-2.17,-2.16,-2.16
266,1.07,3.23,1.07,3.23,-3.23,-3.72,-2.17,-2.16,-2.16
269,1.03,3.19,1.03,3.19,-3.19,-3.66,-2.16,-2.16,-2.16
272,0.99,3.15,0.98,3.15,-3.15,-3.60,-2.16,-2.17,-2.17
274,0.92,3.08,0.93,3.10,-3.10,-3.56,-2.19,-2.17,-2.17
277,0.89,3.06,0.88,3.06,-3.06,-3.49,-2.17,-2.17,-2.17
280,0.85,3.02,0.83,3.01,-3.01,-3.42,-2.16,-2.18,-2.18
283,0.78,2.95,0.78,2.96,-2.96,-3.34,-2.18,-2.18,-2.18
286,0.74,2.92,0.73,2.91,-2.91,-3.27,-2.17,-2.18,-2.18
288,0.68,2.86,0.67,2.85,-2.85,-3.22,-2.17,-2.18,-2.18
291,0.59,2.77,0.60,2.79,-2.79,-3.14,-2.20,-2.19,-2.18
294,0.56,2.74,0.54,2.72,-2.72,-3.06,-2.17,-2.19,-2.19
297,0.47,2.66,0.47,2.66,-2.66,-2.99,-2.19,-2.19,-2.19
300,0.41,2.60,0.40,2.59,-2.59,-2.91,-2.18,-2.19,-2.19
303,0.31,2.50,0.33,2.52,-2.52,-2.83,-2.22,-2.19,-2.19
306,0.26,2.45,0.26,2.45,-2.45,-2.76,-2.20,-2.20,-2.20
309,0.19,2.38,0.18,2.38,-2.38,-2.68,-2.20,-2.20,-2.20
312,0.12,2.32,0.11,2.31,-2.31,-2.61,-2.20,-2.20,-2.20
316,0.05,2.25,0.04,2.24,-2.24,-2.51,-2.20,-2.20,-2.20
319,-0.04,2.16,-0.03,2.17,-2.17,-2.44,-2.22,-2.20,-2.20
322,-0.10,2.10,-0.10,2.10,-2.10,-2.37,-2.21,-2.20,-2.20
325,-0.18,2.02,-0.17,2.03,-2.03,-2.30,-2.22,-2.21,-2.21
328,-0.21,1.99,-0.25,1.96,-1.96,-2.23,-2.17,-2.21,-2.21
332,-0.33,1.87,-0.32,1.89,-1.89,-2.14,-2.22,-2.21,-2.21
335,-0.39,1.82,-0.40,1.81,-1.81,-2.08,-2.21,-2.21,-2.21
338,-0.46,1.75,-0.48,1.73,-1.73,-2.01,-2.20,-2.21,-2.21
342,-0.57,1.64,-0.55,1.66,-1.66,-1.93,-2.23,-2.21,-2.21
345,-0.60,1.61,-0.63,1.58,-1.58,-1.87,-2.19,-2.21,-2.21
349,-0.73,1.48,-0.71,1.51,-1.51,-1.80,-2.24,-2.22,-2.22
352,-0.75,1.46,-0.78,1.44,-1.44,-1.74,-2.19,-2.22,-2.22
356,-0.90,1.31,-0.85,1.37,-1.37,-1.67,-2.27,-2.22,-2.22
359,-0.90,1.31,-0.92,1.30,-1.30,-1.62,-2.20,-2.22,-2.22
363,-0.98,1.24,-0.98,1.24,-1.24,-1.55,-2.22,-2.22,-2.22
366,-1.04,1.18,-1.04,1.18,-1.18,-1.50,-2.22,-2.22,-2.22
370,-1.07,1.15,-1.10,1.12,-1.12,-1.43,-2.19,-2.22,-2.22
374,-1.19,1.03,-1.16,1.06,-1.06,-1.37,-2.26,-2.22,-2.22
377,-1.20,1.02,-1.22,1.01,-1.01,-1.33,-2.21,-2.23,-2.23
381,-1.28,0.94,-1.28,0.95,-0.95,-1.27,-2.23,-2.23,-2.23
385,-1.33,0.89,-1.33,0.89,-0.89,-1.21,-2.23,-2.23,-2.23
389,-1.37,0.86,-1.39,0.84,-0.84,-1.16,-2.21,-2.23,-2.23
393,-1.45,0.78,-1.45,0.78,-0.78,-1.11,-2.24,-2.23,-2.23
397,-1.50,0.73,-1.50,0.73,-0.73,-1.06,-2.23,-2.23,-2.23
401,-1.54,0.69,-1.56,0.68,-0.68,-1.01,-2.22,-2.23,-2.23
405,-1.60,0.63,-1.61,0.63,-0.63,-0.96,-2.23,-2.24,-2.24
409,-1.68,0.55,-1.65,0.58,-0.58,-0.92,-2.27,-2.24,-2.24
413,-1.69,0.54,-1.70,0.54,-0.54,-0.87,-2.23,-2.24,-2.24
417,-1.73,0.50,-1.74,0.50,-0.50,-0.83,-2.24,-2.24,-2.24
421,-1.77,0.46,-1.77,0.47,-0.47,-0.79,-2.24,-2.24,-2.24
425,-1.81,0.42,-1.80,0.44,-0.44,-0.75,-2.25,-2.24,-2.24
430,-1.81,0.42,-1.83,0.41,-0.41,-0.70,-2.22,-2.24,-2.24
434,-1.82,0.41,-1.85,0.39,-0.39,-0.67,-2.21,-2.23,-2.23
438,-1.88,0.35,-1.87,0.36,-0.36,-0.63,-2.25,-2.23,-2.23
443,-1.92,0.31,-1.89,0.34,-0.34,-0.59,-2.26,-2.23,-2.23
447,-1.92,0.30,-1.91,0.32,-0.32,-0.56,-2.24,-2.23,-2.23
451,-1.92,0.30,-1.93,0.29,-0.29,-0.53,-2.21,-2.22,-2.22
456,-1.93,0.28,-1.96,0.25,-0.25,-0.49,-2.19,-2.22,-2.22
460,-1.98,0.23,-2.00,0.21,-0.21,-0.46,-2.19,-2.21,-2.21
465,-2.01,0.19,-2.04,0.16,-0.16,-0.43,-2.17,-2.20,-2.20
470,-2.05,0.14,-2.09,0.10,-0.10,-0.40,-2.16,-2.20,-2.20
474,-2.12,0.06,-2.14,0.04,-0.04,-0.38,-2.17,-2.19,-2.19
479,-2.21,-0.04,-2.19,-0.01,0.01,-0.35,-2.20,-2.18,-2.18
484,-2.25,-0.09,-2.23,-0.07,0.07,-0.32,-2.19,-2.17,-2.17
489,-2.27,-0.12,-2.26,-0.11,0.11,-0.30,-2.17,-2.15,-2.15
494,-2.32,-0.18,-2.27,-0.13,0.13,-0.27,-2.19,-2.14,-2.14
499,-2.29,-0.17,-2.27,-0.14,0.14,-0.25,-2.15,-2.13,-2.13
504,-2.26,-0.15,-2.25,-0.14,0.14,-0.23,-2.13,-2.11,-2.11
509,-2.22,-0.13,-2.21,-0.12,0.12,-0.22,-2.10,-2.09,-2.09
514,-2.14,-0.07,-2.17,-0.09,0.09,-0.20,-2.05,-2.08,-2.08
519,-2.10,-0.05,-2.11,-0.06,0.06,-0.18,-2.05,-2.06,-2.06
524,-2.04,-0.00,-2.06,-0.02,0.02,-0.17,-2.03,-2.04,-2.04
529,-1.97,0.04,-2.00,0.02,-0.02,-0.16,-1.99,-2.02,-2.02
535,-1.93,0.06,-1.94,0.06,-0.06,-0.14,-1.99,-2.00,-2.00
540,-1.89,0.08,-1.89,0.09,-0.09,-0.13,-1.98,-1.97,-1.97
545,-1.84,0.11,-1.83,0.12,-0.12,-0.13,-1.96,-1.95,-1.95
551,-1.76,0.16,-1.78,0.14,-0.14,-0.12,-1.91,-1.93,-1.93
556,-1.72,0.18,-1.73,0.17,-0.17,-0.11,-1.90,-1.90,-1.90
562,-1.67,0.20,-1.68,0.20,-0.20,-0.10,-1.87,-1.88,-1.88
568,-1.64,0.21,-1.62,0.23,-0.23,-0.09,-1.87,-1.85,-1.85
573,-1.60,0.22,-1.56,0.26,-0.26,-0.09,-1.86,-1.82,-1.82
579,-1.47,0.32,-1.50,0.29,-0.29,-0.08,-1.77,-1.79,-1.79
585,-1.43,0.33,-1.44,0.33,-0.33,-0.08,-1.77,-1.77,-1.77
591,-1.37,0.36,-1.37,0.37,-0.37,-0.07,-1.74,-1.74,-1.74
596,-1.29,0.41,-1.30,0.41,-0.41,-0.07,-1.70,-1.71,-1.71
602,-1.22,0.45,-1.23,0.44,-0.44,-0.07,-1.67,-1.68,-1.68
608,-1.17,0.47,-1.17,0.48,-0.48,-0.07,-1.65,-1.64,-1.64
615,-1.09,0.52,-1.10,0.51,-0.51,-0.06,-1.61,-1.61,-1.61
621,-1.01,0.57,-1.04,0.54,-0.54,-0.06,-1.56,-1.58,-1.58
627,-0.97,0.57,-0.97,0.57,-0.57,-0.06,-1.55,-1.55,-1.55
633,-0.94,0.57,-0.91,0.60,-0.60,-0.06,-1.55,-1.51,-1.51
639,-0.84,0.64,-0.85,0.63,-0.63,-0.06,-1.48,-1.48,-1.48
646,-0.77,0.67,-0.78,0.66,-0.66,-0.06,-1.44,-1.45,-1.45
652,-0.72,0.69,-0.72,0.69,-0.69,-0.06,-1.42,-1.41,-1.41
659,-0.64,0.73,-0.65,0.73,-0.73,-0.05,-1.37,-1.37,-1.37
665,-0.56,0.77,-0.57,0.76,-0.76,-0.05,-1.33,-1.34,-1.34
672,-0.52,0.78,-0.50,0.80,-0.80,-0.05,-1.33,-1.30,-1.30
679,-0.46,0.80,-0.42,0.84,-0.84,-0.05,-1.31,-1.27,-1.27
686,-0.30,0.92,-0.34,0.89,-0.89,-0.05,-1.19,-1.23,-1.23
692,-0.26,0.93,-0.27,0.93,-0.93,-0.05,-1.19,-1.19,-1.19
699,-0.20,0.95,-0.19,0.96,-0.96,-0.05,-1.17,-1.15,-1.15
706,-0.09,1.02,-0.12,1.00,-1.00,-0.05,-1.09,-1.12,-1.12
713,-0.05,1.02,-0.05,1.03,-1.03,-0.05,-1.08,-1.08,-1.08
721,0.03,1.07,0.02,1.06,-1.06,-0.05,-1.03,-1.04,-1.04
728,0.10,1.10,0.07,1.08,-1.08,-0.05,-0.98,-1.00,-1.00
735,0.12,1.08,0.13,1.09,-1.09,-0.05,-0.97,-0.96,-0.96
742,0.15,1.07,0.17,1.10,-1.10,-0.05,-0.95,-0.93,-0.93
750,0.21,1.09,0.21,1.10,-1.10,-0.05,-0.89,-0.89,-0.89
757,0.26,1.11,0.25,1.10,-1.10,-0.05,-0.84,-0.85,-0.85
765,0.24,1.05,0.27,1.09,-1.09,-0.05,-0.85,-0.81,-0.81
773,0.34,1.11,0.29,1.07,-1.07,-0.05,-0.73,-0.78,-0.78
780,0.31,1.05,0.30,1.04,-1.04,-0.05,-0.74,-0.74,-0.74
788,0.31,1.01,0.30,1.00,-1.00,-0.05,-0.70,-0.71,-0.71
796,0.30,0.97,0.29,0.96,-0.96,-0.05,-0.66,-0.67,-0.67
804,0.26,0.89,0.27,0.90,-0.90,-0.05,-0.64,-0.64,-0.64
812,0.22,0.82,0.23,0.83,-0.83,-0.05,-0.62,-0.60,-0.60
820,0.21,0.77,0.19,0.76,-0.76,-0.05,-0.55,-0.57,-0.57
828,0.19,0.72,0.14,0.68,-0.68,-0.04,-0.49,-0.54,-0.54
837,0.11,0.61,0.09,0.59,-0.59,-0.04,-0.48,-0.50,-0.50
845,0.01,0.48,0.03,0.50,-0.50,-0.04,-0.50,-0.47,-0.47
853,-0.05,0.39,-0.03,0.42,-0.42,-0.04,-0.47,-0.44,-0.44
862,-0.07,0.34,-0.08,0.33,-0.33,-0.04,-0.41,-0.41,-0.41
871,-0.13,0.25,-0.12,0.26,-0.26,-0.03,-0.40,-0.38,-0.38
879,-0.16,0.19,-0.15,0.20,-0.20,-0.03,-0.36,-0.35,-0.35
888,-0.17,0.15,-0.18,0.15,-0.15,-0.02,-0.32,-0.32,-0.32
897,-0.21,0.08,-0.19,0.11,-0.11,-0.02,-0.32,-0.30,-0.30
906,-0.19,0.07,-0.19,0.08,-0.08,-0.02,-0.27,-0.27,-0.27
915,-0.20,0.04,-0.18,0.06,-0.06,-0.01,-0.26,-0.24,-0.24
924,-0.15,0.06,-0.17,0.04,-0.04,-0.00,-0.19,-0.21,-0.21
933,-0.15,0.03,-0.16,0.03,-0.03,0.00,-0.18,-0.19,-0.19
943,-0.10,0.06,-0.14,0.02,-0.02,0.01,-0.12,-0.16,-0.16
952,-0.10,0.03,-0.12,0.01,-0.01,0.02,-0.11,-0.13,-0.13
962,-0.09,0.01,-0.10,0.01,-0.01,0.03,-0.10,-0.11,-0.11
971,-0.09,-0.01,-0.08,0.00,-0.00,0.04,-0.10,-0.08,-0.08
981,-0.06,-0.01,-0.05,0.01,-0.01,0.05,-0.07,-0.05,-0.05
991,-0.05,-0.03,-0.01,0.01,-0.01,0.06,-0.07,-0.03,-0.03
1001,0.01,0.01,0.02,0.02,-0.02,0.07,-0.02,0.00,0.00
1011,0.07,0.04,0.06,0.04,-0.04,0.08,0.03,0.03,0.03
1021,0.12,0.06,0.11,0.05,-0.05,0.10,0.06,0.05,0.05
1031,0.18,0.09,0.15,0.06,-0.06,0.11,0.11,0.08,0.08
1041,0.18,0.07,0.18,0.07,-0.07,0.13,0.11,0.11,0.11
1052,0.24,0.10,0.21,0.07,-0.07,0.15,0.17,0.14,0.14
1062,0.24,0.07,0.23,0.06,-0.06,0.16,0.17,0.17,0.17
1073,0.22,0.02,0.24,0.04,-0.04,0.18,0.17,0.19,0.19
1084,0.24,0.01,0.24,0.02,-0.02,0.20,0.22,0.22,0.22
1094,0.24,-0.02,0.24,-0.01,0.01,0.22,0.25,0.25,0.25
1105,0.23,-0.06,0.23,-0.06,0.06,0.24,0.28,0.28,0.28
1116,0.19,-0.13,0.20,-0.11,0.11,0.26,0.29,0.31,0.31
1128,0.17,-0.18,0.17,-0.17,0.17,0.29,0.34,0.34,0.34
1139,0.14,-0.24,0.12,-0.25,0.25,0.31,0.39,0.37,0.37
1150,0.08,-0.33,0.06,-0.34,0.34,0.33,0.42,0.40,0.40
1162,0.02,-0.42,-0.01,-0.45,0.45,0.36,0.47,0.44,0.44
1173,-0.07,-0.54,-0.11,-0.57,0.57,0.38,0.50,0.47,0.47
1185,-0.20,-0.70,-0.21,-0.71,0.71,0.41,0.51,0.50,0.50
1197,-0.30,-0.84,-0.33,-0.86,0.86,0.44,0.56,0.53,0.53
1209,-0.44,-1.01,-0.45,-1.02,1.02,0.46,0.57,0.56,0.56
1221,-0.60,-1.20,-0.58,-1.17,1.17,0.49,0.57,0.60,0.60
1233,-0.71,-1.34,-0.69,-1.32,1.32,0.52,0.61,0.63,0.63
1246,-0.84,-1.51,-0.80,-1.46,1.46,0.55,0.62,0.66,0.66
1258,-0.89,-1.59,-0.89,-1.59,1.59,0.58,0.69,0.70,0.70
1271,-0.97,-1.71,-0.97,-1.70,1.70,0.61,0.72,0.73,0.73
1283,-1.04,-1.81,-1.02,-1.79,1.79,0.64,0.75,0.77,0.77
1296,-1.07,-1.88,-1.07,-1.87,1.87,0.68,0.80,0.80,0.80
1309,-1.09,-1.93,-1.10,-1.94,1.94,0.71,0.84,0.84,0.84
1322,-1.12,-2.00,-1.12,-1.99,1.99,0.75,0.87,0.87,0.87
1335,-1.14,-2.05,-1.13,-2.04,2.04,0.78,0.90,0.91,0.91
1349,-1.11,-2.06,-1.14,-2.08,2.08,0.82,0.97,0.95,0.95
1362,-1.10,-2.09,-1.15,-2.13,2.13,0.85,1.02,0.98,0.98
1376,-1.15,-2.17,-1.15,-2.17,2.17,0.89,1.02,1.02,1.02
1390,-1.16,-2.22,-1.16,-2.21,2.21,0.93,1.05,1.06,1.06
1404,-1.16,-2.26,-1.16,-2.26,2.26,0.97,1.09,1.10,1.10
1418,-1.16,-2.30,-1.17,-2.30,2.30,1.01,1.14,1.13,1.13
1432,-1.15,-2.33,-1.17,-2.34,2.34,1.05,1.19,1.17,1.17
1446,-1.18,-2.40,-1.17,-2.39,2.39,1.09,1.20,1.21,1.21
1461,-1.18,-2.44,-1.17,-2.42,2.42,1.13,1.24,1.25,1.25
1475,-1.15,-2.45,-1.16,-2.45,2.45,1.18,1.30,1.29,1.29
1490,-1.17,-2.51,-1.15,-2.48,2.48,1.22,1.31,1.33,1.33
1505,-1.13,-2.51,-1.13,-2.50,2.50,1.27,1.37,1.37,1.37
1520,-1.09,-2.51,-1.11,-2.52,2.52,1.31,1.43,1.41,1.41
1535,-1.06,-2.52,-1.08,-2.53,2.53,1.36,1.47,1.46,1.46
1550,-1.05,-2.55,-1.04,-2.54,2.54,1.40,1.49,1.50,1.50
1566,-1.01,-2.55,-1.01,-2.55,2.55,1.45,1.53,1.54,1.54
1582,-0.96,-2.55,-0.96,-2.54,2.54,1.50,1.58,1.58,1.58
1597,-0.90,-2.53,-0.91,-2.54,2.54,1.55,1.63,1.63,1.63
1613,-0.83,-2.50,-0.86,-2.53,2.53,1.59,1.69,1.67,1.67
1629,-0.81,-2.53,-0.80,-2.51,2.51,1.64,1.69,1.71,1.71
1646,-0.74,-2.50,-0.73,-2.49,2.49,1.69,1.74,1.76,1.76
1662,-0.65,-2.46,-0.65,-2.46,2.46,1.74,1.80,1.80,1.80
1679,-0.57,-2.42,-0.58,-2.42,2.42,1.79,1.85,1.85,1.85
1696,-0.48,-2.38,-0.49,-2.39,2.39,1.84,1.90,1.90,1.90
1713,-0.41,-2.36,-0.40,-2.34,2.34,1.88,1.93,1.94,1.94
1730,-0.31,-2.30,-0.31,-2.30,2.30,1.93,1.99,1.99,1.99
1747,-0.19,-2.23,-0.21,-2.25,2.25,1.97,2.06,2.04,2.04
1764,-0.12,-2.21,-0.12,-2.20,2.20,2.01,2.08,2.09,2.09
