frequency,raw,error,smoothed,error_smoothed,equalization,parametric_eq,fixed_band_eq,equalized_raw,equalized_smoothed,target
20.00,-5.05,-6.72,-5.05,-6.72,6.00,5.94,2.34,0.95,0.95,1.67
20.20,-5.02,-6.72,-5.03,-6.72,6.00,5.92,2.41,0.98,0.97,1.70
20.40,-5.00,-6.73,-4.99,-6.72,6.00,5.90,2.48,1.00,1.01,1.73
20.61,-4.95,-6.70,-4.95,-6.70,6.00,5.88,2.55,1.05,1.05,1.74
20.81,-4.90,-6.68,-4.90,-6.68,6.00,5.86,2.63,1.10,1.10,1.77
21.02,-4.84,-6.65,-4.84,-6.64,6.00,5.84,2.70,1.16,1.16,1.80
21.23,-4.78,-6.60,-4.79,-6.60,6.00,5.82,2.78,1.22,1.21,1.81
21.44,-4.74,-6.56,-4.74,-6.56,6.00,5.81,2.86,1.26,1.26,1.82
21.66,-4.69,-6.52,-4.70,-6.52,6.00,5.79,2.95,1.31,1.30,1.83
21.87,-4.66,-6.49,-4.65,-6.49,6.00,5.77,3.03,1.34,1.35,1.83
22.09,-4.60,-6.44,-4.61,-6.45,6.00,5.75,3.12,1.40,1.39,1.84
22.31,-4.57,-6.41,-4.57,-6.41,6.00,5.72,3.21,1.43,1.43,1.84
22.54,-4.52,-6.36,-4.52,-6.36,6.00,5.70,3.30,1.48,1.48,1.84
22.76,-4.48,-6.32,-4.48,-6.31,6.00,5.68,3.40,1.52,1.52,1.84
22.99,-4.43,-6.26,-4.43,-6.26,6.00,5.66,3.49,1.57,1.57,1.83
23.22,-4.38,-6.21,-4.39,-6.22,6.01,5.64,3.59,1.62,1.62,1.83
23.45,-4.35,-6.18,-4.35,-6.17,6.01,5.62,3.69,1.65,1.66,1.83
23.69,-4.30,-6.13,-4.30,-6.13,6.00,5.60,3.80,1.70,1.70,1.83
23.92,-4.26,-6.09,-4.26,-6.09,6.00,5.58,3.90,1.73,1.74,1.83
24.16,-4.21,-6.05,-4.21,-6.04,5.98,5.56,4.01,1.77,1.77,1.83
24.40,-4.16,-6.00,-4.17,-5.99,5.97,5.53,4.12,1.81,1.80,1.83
24.65,-4.12,-5.95,-4.12,-5.95,5.95,5.51,4.23,1.83,1.83,1.82
24.89,-4.09,-5.91,-4.09,-5.91,5.92,5.49,4.34,1.83,1.83,1.82
25.14,-4.06,-5.88,-4.06,-5.88,5.90,5.47,4.46,1.84,1.83,1.82
25.39,-4.04,-5.86,-4.04,-5.86,5.87,5.45,4.57,1.83,1.82,1.82
25.65,-4.02,-5.84,-4.02,-5.83,5.84,5.42,4.69,1.82,1.82,1.82
25.91,-4.00,-5.81,-4.00,-5.81,5.81,5.40,4.80,1.81,1.81,1.81
26.16,-3.96,-5.77,-3.97,-5.78,5.78,5.38,4.92,1.82,1.81,1.81
26.43,-3.95,-5.76,-3.94,-5.75,5.75,5.36,5.03,1.80,1.81,1.81
26.69,-3.90,-5.71,-3.92,-5.72,5.72,5.33,5.15,1.82,1.80,1.80
26.96,-3.89,-5.70,-3.89,-5.69,5.68,5.31,5.26,1.79,1.79,1.80
27.23,-3.86,-5.66,-3.85,-5.65,5.64,5.29,5.37,1.78,1.79,1.80
27.50,-3.80,-5.60,-3.81,-5.61,5.60,5.26,5.47,1.79,1.79,1.80
27.77,-3.75,-5.54,-3.76,-5.55,5.55,5.24,5.57,1.80,1.79,1.79
28.05,-3.72,-5.51,-3.71,-5.49,5.51,5.22,5.68,1.78,1.80,1.79
28.33,-3.66,-5.44,-3.67,-5.45,5.46,5.19,5.77,1.80,1.79,1.78
28.62,-3.63,-5.41,-3.63,-5.41,5.41,5.17,5.86,1.78,1.78,1.77
28.90,-3.60,-5.37,-3.60,-5.37,5.37,5.15,5.94,1.77,1.77,1.77
29.19,-3.57,-5.33,-3.57,-5.33,5.33,5.12,6.02,1.76,1.76,1.76
29.48,-3.53,-5.30,-3.53,-5.29,5.29,5.10,6.08,1.76,1.76,1.77
29.78,-3.48,-5.24,-3.50,-5.26,5.26,5.07,6.14,1.77,1.76,1.76
30.08,-3.47,-5.23,-3.47,-5.22,5.22,5.05,6.19,1.75,1.76,1.76
30.38,-3.44,-5.19,-3.44,-5.19,5.19,5.02,6.24,1.75,1.75,1.74
30.68,-3.41,-5.15,-3.42,-5.15,5.16,5.00,6.27,1.74,1.74,1.74
30.99,-3.39,-5.12,-3.39,-5.12,5.12,4.97,6.29,1.73,1.73,1.73
31.30,-3.36,-5.09,-3.37,-5.09,5.09,4.95,6.30,1.73,1.73,1.73
31.61,-3.35,-5.08,-3.35,-5.07,5.06,4.92,6.31,1.71,1.72,1.73
31.93,-3.31,-5.03,-3.32,-5.03,5.03,4.90,6.30,1.72,1.71,1.71
32.24,-3.30,-5.00,-3.29,-5.00,5.00,4.87,6.29,1.70,1.71,1.70
32.57,-3.25,-4.95,-3.27,-4.96,4.97,4.85,6.26,1.71,1.70,1.70
32.89,-3.25,-4.95,-3.24,-4.93,4.93,4.82,6.23,1.68,1.69,1.70
33.22,-3.21,-4.89,-3.21,-4.90,4.89,4.79,6.19,1.68,1.68,1.68
33.55,-3.18,-4.86,-3.19,-4.86,4.86,4.77,6.14,1.67,1.67,1.68
33.89,-3.15,-4.82,-3.15,-4.82,4.82,4.74,6.08,1.66,1.67,1.67
34.23,-3.11,-4.78,-3.11,-4.77,4.78,4.71,6.02,1.66,1.66,1.66
34.57,-3.07,-4.72,-3.08,-4.73,4.73,4.69,5.95,1.66,1.65,1.65
34.92,-3.05,-4.69,-3.05,-4.69,4.69,4.66,5.88,1.64,1.65,1.64
35.27,-3.02,-4.66,-3.02,-4.65,4.65,4.63,5.80,1.62,1.63,1.63
35.62,-2.97,-4.59,-2.99,-4.61,4.60,4.61,5.72,1.63,1.62,1.62
35.97,-2.96,-4.57,-2.95,-4.57,4.56,4.58,5.63,1.60,1.61,1.61
36.33,-2.93,-4.54,-2.92,-4.52,4.52,4.55,5.54,1.59,1.60,1.60
36.70,-2.88,-4.47,-2.89,-4.48,4.49,4.52,5.45,1.60,1.59,1.59
37.06,-2.87,-4.45,-2.87,-4.45,4.45,4.49,5.36,1.58,1.58,1.58
37.43,-2.83,-4.40,-2.84,-4.41,4.41,4.47,5.27,1.58,1.57,1.57
37.81,-2.83,-4.39,-2.82,-4.38,4.38,4.44,5.18,1.55,1.56,1.56
38.19,-2.79,-4.34,-2.80,-4.35,4.35,4.41,5.09,1.55,1.54,1.54
38.57,-2.79,-4.33,-2.79,-4.32,4.31,4.38,5.00,1.52,1.53,1.54
38.95,-2.76,-4.28,-2.76,-4.29,4.28,4.35,4.91,1.52,1.52,1.52
39.34,-2.74,-4.25,-2.74,-4.25,4.25,4.32,4.83,1.51,1.51,1.51
39.74,-2.72,-4.22,-2.72,-4.22,4.22,4.29,4.74,1.50,1.50,1.49
40.14,-2.69,-4.18,-2.70,-4.18,4.19,4.26,4.66,1.50,1.49,1.49
40.54,-2.69,-4.16,-2.68,-4.15,4.16,4.23,4.58,1.47,1.48,1.47
40.94,-2.65,-4.12,-2.67,-4.13,4.13,4.19,4.50,1.48,1.46,1.47
41.35,-2.65,-4.10,-2.65,-4.10,4.10,4.16,4.42,1.45,1.45,1.45
41.76,-2.65,-4.10,-2.64,-4.08,4.07,4.13,4.35,1.42,1.44,1.44
42.18,-2.60,-4.04,-2.62,-4.05,4.04,4.10,4.28,1.44,1.43,1.44
42.60,-2.60,-4.02,-2.59,-4.02,4.01,4.07,4.21,1.41,1.42,1.42
43.03,-2.56,-3.98,-2.57,-3.98,3.98,4.03,4.15,1.42,1.41,1.41
43.46,-2.55,-3.95,-2.55,-3.95,3.94,4.00,4.09,1.39,1.39,1.40
43.90,-2.54,-3.91,-2.54,-3.91,3.91,3.96,4.03,1.36,1.37,1.37
44.33,-2.51,-3.86,-2.52,-3.87,3.87,3.93,3.97,1.36,1.35,1.35
44.78,-2.51,-3.85,-2.50,-3.83,3.83,3.90,3.92,1.32,1.33,1.33
45.23,-2.46,-3.78,-2.48,-3.79,3.80,3.86,3.87,1.33,1.32,1.31
45.68,-2.46,-3.76,-2.46,-3.75,3.76,3.82,3.83,1.30,1.30,1.30
46.13,-2.44,-3.72,-2.43,-3.71,3.73,3.79,3.78,1.28,1.29,1.28
46.60,-2.41,-3.68,-2.43,-3.69,3.69,3.75,3.74,1.28,1.26,1.27
47.06,-2.41,-3.66,-2.41,-3.66,3.65,3.72,3.71,1.24,1.24,1.25
47.53,-2.41,-3.64,-2.40,-3.63,3.62,3.68,3.67,1.20,1.22,1.23
48.01,-2.37,-3.59,-2.38,-3.60,3.58,3.64,3.64,1.21,1.20,1.22
48.49,-2.37,-3.56,-2.36,-3.55,3.54,3.61,3.61,1.17,1.18,1.19
48.97,-2.33,-3.49,-2.34,-3.49,3.50,3.57,3.58,1.17,1.17,1.16
49.46,-2.32,-3.45,-2.33,-3.45,3.47,3.54,3.56,1.14,1.14,1.12
49.96,-2.32,-3.42,-2.32,-3.42,3.43,3.50,3.54,1.11,1.11,1.09
50.46,-2.32,-3.40,-2.32,-3.40,3.39,3.46,3.52,1.07,1.07,1.08
50.96,-2.32,-3.38,-2.32,-3.37,3.36,3.43,3.50,1.04,1.05,1.06
51.47,-2.30,-3.33,-2.31,-3.34,3.34,3.39,3.48,1.04,1.03,1.02
51.99,-2.30,-3.30,-2.30,-3.31,3.32,3.36,3.47,1.01,1.01,1.00
52.51,-2.30,-3.29,-2.31,-3.29,3.30,3.33,3.45,0.99,0.99,0.99
53.03,-2.32,-3.29,-2.32,-3.28,3.27,3.29,3.44,0.95,0.96,0.96
53.56,-2.32,-3.26,-2.32,-3.26,3.25,3.26,3.43,0.93,0.93,0.94
54.10,-2.32,-3.24,-2.32,-3.24,3.23,3.23,3.42,0.91,0.91,0.91
54.64,-2.32,-3.21,-2.32,-3.21,3.21,3.20,3.40,0.89,0.89,0.89
55.18,-2.32,-3.18,-2.32,-3.18,3.19,3.17,3.39,0.86,0.86,0.86
55.74,-2.32,-3.16,-2.32,-3.16,3.16,3.14,3.38,0.84,0.84,0.83
56.29,-2.32,-3.14,-2.32,-3.14,3.13,3.11,3.37,0.81,0.81,0.82
56.86,-2.32,-3.11,-2.32,-3.11,3.10,3.08,3.35,0.78,0.78,0.79
57.42,-2.32,-3.08,-2.31,-3.08,3.07,3.05,3.34,0.75,0.76,0.76
58.00,-2.30,-3.04,-2.30,-3.04,3.04,3.02,3.32,0.74,0.74,0.74
58.58,-2.27,-2.99,-2.28,-3.00,3.01,3.00,3.31,0.74,0.73,0.72
59.16,-2.27,-2.97,-2.27,-2.97,2.98,2.97,3.29,0.71,0.71,0.70
59.76,-2.27,-2.95,-2.27,-2.95,2.95,2.94,3.27,0.68,0.68,0.68
60.35,-2.27,-2.92,-2.27,-2.92,2.92,2.91,3.24,0.64,0.64,0.65
60.96,-2.27,-2.90,-2.27,-2.89,2.88,2.89,3.22,0.61,0.61,0.62
61.57,-2.27,-2.85,-2.27,-2.86,2.85,2.86,3.19,0.58,0.58,0.58
62.18,-2.27,-2.82,-2.27,-2.82,2.82,2.83,3.16,0.55,0.55,0.55
62.80,-2.27,-2.79,-2.27,-2.78,2.79,2.81,3.12,0.52,0.52,0.52
63.43,-2.26,-2.75,-2.26,-2.75,2.76,2.78,3.09,0.50,0.50,0.49
64.07,-2.25,-2.71,-2.26,-2.72,2.73,2.75,3.05,0.48,0.47,0.46
64.71,-2.27,-2.71,-2.27,-2.70,2.70,2.72,3.01,0.43,0.44,0.43
65.35,-2.27,-2.68,-2.27,-2.68,2.68,2.69,2.96,0.40,0.41,0.41
66.01,-2.27,-2.65,-2.27,-2.65,2.65,2.66,2.91,0.38,0.38,0.38
66.67,-2.27,-2.62,-2.27,-2.62,2.63,2.63,2.87,0.36,0.36,0.35
67.33,-2.27,-2.59,-2.28,-2.60,2.61,2.60,2.81,0.33,0.32,0.32
68.01,-2.30,-2.59,-2.30,-2.59,2.58,2.56,2.76,0.28,0.28,0.29
68.69,-2.30,-2.56,-2.31,-2.56,2.55,2.53,2.70,0.25,0.25,0.26
69.37,-2.32,-2.55,-2.30,-2.53,2.52,2.50,2.65,0.20,0.22,0.23
70.07,-2.27,-2.47,-2.29,-2.49,2.49,2.46,2.59,0.21,0.20,0.19
70.77,-2.27,-2.44,-2.28,-2.44,2.45,2.43,2.53,0.18,0.18,0.17
71.48,-2.27,-2.41,-2.27,-2.40,2.41,2.39,2.47,0.14,0.15,0.14
72.19,-2.27,-2.37,-2.28,-2.38,2.37,2.35,2.40,0.10,0.10,0.10
72.91,-2.27,-2.34,-2.27,-2.34,2.33,2.31,2.34,0.06,0.06,0.06
73.64,-2.27,-2.30,-2.26,-2.29,2.28,2.27,2.28,0.01,0.02,0.03
74.38,-2.23,-2.23,-2.25,-2.25,2.24,2.23,2.21,0.01,-0.01,-0.00
75.12,-2.23,-2.19,-2.23,-2.20,2.20,2.19,2.15,-0.04,-0.04,-0.04
75.87,-2.23,-2.16,-2.21,-2.15,2.15,2.15,2.08,-0.08,-0.06,-0.07
76.63,-2.18,-2.08,-2.20,-2.10,2.11,2.11,2.02,-0.07,-0.09,-0.10
77.40,-2.18,-2.05,-2.18,-2.05,2.06,2.07,1.95,-0.12,-0.12,-0.13
78.17,-2.18,-2.01,-2.18,-2.02,2.02,2.02,1.89,-0.16,-0.16,-0.17
78.95,-2.18,-1.99,-2.18,-1.98,1.98,1.98,1.82,-0.21,-0.20,-0.19
79.74,-2.18,-1.96,-2.17,-1.94,1.93,1.93,1.76,-0.25,-0.23,-0.23
80.54,-2.13,-1.87,-2.15,-1.89,1.89,1.89,1.70,-0.24,-0.26,-0.26
81.35,-2.13,-1.84,-2.13,-1.84,1.84,1.84,1.64,-0.29,-0.29,-0.30
82.16,-2.13,-1.80,-2.12,-1.79,1.79,1.79,1.57,-0.34,-0.33,-0.33
82.98,-2.10,-1.74,-2.11,-1.74,1.74,1.75,1.51,-0.36,-0.37,-0.36
83.81,-2.09,-1.69,-2.09,-1.68,1.68,1.70,1.45,-0.41,-0.40,-0.40
84.65,-2.06,-1.62,-2.07,-1.63,1.63,1.65,1.39,-0.43,-0.44,-0.44
85.50,-2.04,-1.57,-2.05,-1.57,1.57,1.60,1.34,-0.47,-0.47,-0.47
86.35,-2.04,-1.53,-2.02,-1.51,1.52,1.55,1.28,-0.52,-0.51,-0.51
87.22,-1.99,-1.44,-2.01,-1.46,1.46,1.50,1.22,-0.53,-0.55,-0.55
88.09,-1.99,-1.40,-1.99,-1.41,1.41,1.45,1.17,-0.59,-0.59,-0.59
88.97,-1.99,-1.37,-1.98,-1.35,1.35,1.40,1.11,-0.64,-0.62,-0.62
89.86,-1.96,-1.30,-1.97,-1.30,1.30,1.35,1.06,-0.66,-0.67,-0.66
90.76,-1.95,-1.24,-1.96,-1.25,1.25,1.30,1.00,-0.70,-0.70,-0.72
91.66,-1.95,-1.20,-1.95,-1.20,1.21,1.25,0.95,-0.75,-0.74,-0.75
92.58,-1.95,-1.15,-1.95,-1.16,1.16,1.19,0.90,-0.79,-0.79,-0.80
93.51,-1.95,-1.12,-1.95,-1.12,1.11,1.14,0.85,-0.84,-0.84,-0.83
94.44,-1.95,-1.07,-1.95,-1.07,1.07,1.09,0.80,-0.89,-0.89,-0.88
95.39,-1.95,-1.03,-1.95,-1.03,1.02,1.04,0.75,-0.93,-0.93,-0.92
96.34,-1.95,-0.97,-1.95,-0.98,0.98,0.99,0.70,-0.98,-0.98,-0.98
97.30,-1.95,-0.93,-1.95,-0.93,0.93,0.94,0.65,-1.02,-1.02,-1.02
98.28,-1.95,-0.88,-1.95,-0.88,0.89,0.88,0.61,-1.07,-1.07,-1.07
99.26,-1.95,-0.84,-1.95,-0.84,0.84,0.83,0.56,-1.11,-1.11,-1.11
100.25,-1.95,-0.79,-1.95,-0.79,0.79,0.78,0.51,-1.16,-1.16,-1.16
101.25,-1.95,-0.75,-1.95,-0.75,0.75,0.73,0.47,-1.21,-1.21,-1.21
102.27,-1.95,-0.70,-1.95,-0.70,0.70,0.67,0.42,-1.25,-1.25,-1.25
103.29,-1.95,-0.64,-1.95,-0.65,0.66,0.62,0.38,-1.30,-1.30,-1.31
104.32,-1.95,-0.61,-1.95,-0.61,0.61,0.57,0.34,-1.34,-1.34,-1.34
105.37,-1.95,-0.56,-1.95,-0.56,0.56,0.52,0.30,-1.39,-1.39,-1.39
106.42,-1.95,-0.52,-1.95,-0.52,0.51,0.47,0.25,-1.44,-1.44,-1.44
107.48,-1.95,-0.47,-1.96,-0.47,0.46,0.42,0.21,-1.49,-1.50,-1.48
108.56,-1.95,-0.41,-1.95,-0.42,0.41,0.36,0.17,-1.55,-1.55,-1.54
109.64,-1.95,-0.37,-1.94,-0.36,0.35,0.31,0.13,-1.60,-1.59,-1.59
110.74,-1.91,-0.28,-1.92,-0.29,0.29,0.26,0.10,-1.62,-1.63,-1.63
111.85,-1.90,-0.23,-1.91,-0.22,0.23,0.21,0.06,-1.67,-1.67,-1.68
112.97,-1.90,-0.16,-1.90,-0.16,0.17,0.16,0.02,-1.73,-1.73,-1.74
114.10,-1.90,-0.11,-1.90,-0.11,0.11,0.10,-0.01,-1.79,-1.79,-1.79
115.24,-1.90,-0.06,-1.90,-0.06,0.05,0.05,-0.05,-1.85,-1.85,-1.84
116.39,-1.90,-0.01,-1.90,-0.00,-0.00,-0.00,-0.08,-1.91,-1.91,-1.90
117.55,-1.90,0.05,-1.90,0.06,-0.06,-0.05,-0.12,-1.96,-1.95,-1.95
118.73,-1.88,0.12,-1.89,0.11,-0.11,-0.11,-0.15,-1.99,-2.00,-2.01
119.92,-1.88,0.17,-1.88,0.17,-0.16,-0.16,-0.18,-2.04,-2.04,-2.05
121.12,-1.88,0.22,-1.88,0.22,-0.21,-0.21,-0.21,-2.09,-2.09,-2.10
122.33,-1.88,0.27,-1.89,0.26,-0.26,-0.26,-0.24,-2.14,-2.15,-2.15
123.55,-1.90,0.29,-1.89,0.30,-0.31,-0.31,-0.27,-2.21,-2.20,-2.20
124.79,-1.90,0.34,-1.90,0.34,-0.35,-0.37,-0.30,-2.25,-2.25,-2.25
126.03,-1.90,0.39,-1.91,0.39,-0.39,-0.42,-0.32,-2.29,-2.30,-2.30
127.29,-1.92,0.42,-1.92,0.43,-0.43,-0.47,-0.35,-2.35,-2.35,-2.35
128.57,-1.92,0.48,-1.93,0.47,-0.47,-0.52,-0.37,-2.39,-2.40,-2.41
129.85,-1.94,0.51,-1.94,0.51,-0.51,-0.57,-0.40,-2.46,-2.45,-2.46
131.15,-1.95,0.55,-1.95,0.55,-0.56,-0.62,-0.42,-2.51,-2.50,-2.50
132.46,-1.95,0.60,-1.95,0.59,-0.60,-0.67,-0.45,-2.55,-2.55,-2.55
133.79,-1.95,0.63,-1.95,0.64,-0.64,-0.71,-0.47,-2.60,-2.60,-2.59
135.12,-1.95,0.69,-1.95,0.68,-0.69,-0.76,-0.49,-2.64,-2.64,-2.64
136.48,-1.95,0.73,-1.95,0.73,-0.73,-0.81,-0.51,-2.68,-2.68,-2.68
137.84,-1.95,0.77,-1.95,0.78,-0.77,-0.85,-0.53,-2.72,-2.72,-2.72
139.22,-1.95,0.82,-1.95,0.82,-0.81,-0.90,-0.55,-2.76,-2.76,-2.78
140.61,-1.95,0.87,-1.95,0.86,-0.85,-0.94,-0.57,-2.80,-2.80,-2.82
142.02,-1.95,0.89,-1.96,0.89,-0.89,-0.98,-0.60,-2.84,-2.85,-2.84
143.44,-1.97,0.91,-1.97,0.92,-0.92,-1.02,-0.62,-2.89,-2.89,-2.88
144.87,-1.97,0.95,-1.97,0.95,-0.95,-1.06,-0.64,-2.92,-2.92,-2.92
146.32,-1.97,0.99,-1.98,0.98,-0.99,-1.10,-0.66,-2.96,-2.96,-2.96
147.78,-1.97,1.02,-1.98,1.02,-1.02,-1.14,-0.68,-2.99,-3.00,-2.99
149.26,-1.99,1.04,-1.99,1.05,-1.05,-1.17,-0.70,-3.04,-3.04,-3.03
150.75,-1.99,1.08,-1.99,1.08,-1.09,-1.21,-0.72,-3.08,-3.08,-3.08
152.26,-1.99,1.12,-1.99,1.12,-1.12,-1.24,-0.74,-3.11,-3.11,-3.11
153.78,-1.99,1.16,-1.99,1.16,-1.15,-1.27,-0.76,-3.15,-3.14,-3.15
155.32,-1.99,1.20,-1.99,1.20,-1.19,-1.30,-0.79,-3.18,-3.18,-3.19
156.88,-1.99,1.23,-2.00,1.23,-1.22,-1.33,-0.81,-3.21,-3.22,-3.23
158.44,-2.02,1.25,-2.02,1.25,-1.25,-1.36,-0.83,-3.28,-3.27,-3.27
160.03,-2.04,1.27,-2.03,1.28,-1.29,-1.39,-0.86,-3.33,-3.32,-3.31
161.63,-2.04,1.31,-2.04,1.31,-1.32,-1.41,-0.88,-3.36,-3.36,-3.35
163.24,-2.04,1.35,-2.04,1.35,-1.35,-1.43,-0.91,-3.39,-3.39,-3.39
164.88,-2.04,1.38,-2.04,1.39,-1.37,-1.46,-0.94,-3.42,-3.41,-3.42
166.53,-2.04,1.42,-2.05,1.41,-1.40,-1.48,-0.97,-3.44,-3.45,-3.46
168.19,-2.06,1.44,-2.07,1.43,-1.43,-1.50,-1.00,-3.49,-3.50,-3.50
169.87,-2.09,1.45,-2.08,1.46,-1.46,-1.52,-1.02,-3.56,-3.54,-3.54
171.57,-2.09,1.48,-2.09,1.48,-1.50,-1.53,-1.06,-3.59,-3.59,-3.58
173.29,-2.09,1.52,-2.10,1.52,-1.53,-1.55,-1.09,-3.62,-3.62,-3.61
175.02,-2.09,1.55,-2.09,1.56,-1.56,-1.57,-1.12,-3.66,-3.66,-3.65
176.77,-2.09,1.60,-2.09,1.60,-1.60,-1.58,-1.15,-3.69,-3.69,-3.69
178.54,-2.09,1.64,-2.09,1.64,-1.63,-1.59,-1.19,-3.73,-3.73,-3.74
180.32,-2.09,1.68,-2.09,1.68,-1.67,-1.60,-1.22,-3.76,-3.76,-3.77
182.13,-2.09,1.71,-2.09,1.71,-1.70,-1.61,-1.26,-3.80,-3.80,-3.80
183.95,-2.09,1.75,-2.11,1.74,-1.73,-1.62,-1.30,-3.83,-3.84,-3.84
185.79,-2.13,1.74,-2.12,1.76,-1.76,-1.63,-1.34,-3.89,-3.88,-3.88
187.65,-2.13,1.78,-2.13,1.79,-1.78,-1.64,-1.37,-3.92,-3.91,-3.92
189.52,-2.13,1.81,-2.14,1.81,-1.81,-1.65,-1.42,-3.94,-3.95,-3.95
191.42,-2.13,1.84,-2.15,1.83,-1.83,-1.65,-1.46,-3.96,-3.98,-3.98
193.33,-2.18,1.82,-2.17,1.84,-1.85,-1.66,-1.50,-4.03,-4.01,-4.00
195.27,-2.18,1.85,-2.18,1.85,-1.86,-1.66,-1.54,-4.05,-4.04,-4.03
197.22,-2.18,1.88,-2.18,1.88,-1.88,-1.66,-1.58,-4.06,-4.06,-4.06
199.19,-2.18,1.91,-2.18,1.91,-1.90,-1.66,-1.62,-4.08,-4.08,-4.10
201.18,-2.18,1.93,-2.20,1.92,-1.91,-1.66,-1.67,-4.09,-4.10,-4.11
203.19,-2.22,1.91,-2.21,1.92,-1.92,-1.66,-1.71,-4.14,-4.13,-4.13
205.23,-2.23,1.92,-2.22,1.93,-1.93,-1.66,-1.75,-4.16,-4.15,-4.16
207.28,-2.23,1.93,-2.24,1.93,-1.94,-1.66,-1.80,-4.17,-4.17,-4.16
209.35,-2.23,1.95,-2.25,1.94,-1.94,-1.66,-1.84,-4.17,-4.19,-4.19
211.44,-2.27,1.94,-2.26,1.94,-1.94,-1.65,-1.88,-4.22,-4.20,-4.21
213.56,-2.27,1.94,-2.27,1.95,-1.94,-1.65,-1.92,-4.22,-4.21,-4.21
215.69,-2.27,1.94,-2.28,1.95,-1.94,-1.65,-1.96,-4.22,-4.22,-4.22
217.85,-2.27,1.96,-2.28,1.95,-1.94,-1.64,-2.00,-4.22,-4.23,-4.23
220.03,-2.30,1.94,-2.30,1.94,-1.94,-1.63,-2.04,-4.24,-4.24,-4.24
222.23,-2.32,1.93,-2.31,1.93,-1.94,-1.63,-2.07,-4.26,-4.25,-4.25
224.45,-2.32,1.92,-2.32,1.93,-1.93,-1.62,-2.10,-4.25,-4.25,-4.24
226.70,-2.32,1.92,-2.32,1.93,-1.92,-1.61,-2.13,-4.24,-4.24,-4.25
228.96,-2.32,1.92,-2.32,1.92,-1.91,-1.60,-2.16,-4.23,-4.24,-4.25
231.25,-2.32,1.91,-2.34,1.90,-1.90,-1.59,-2.18,-4.22,-4.24,-4.24
233.57,-2.37,1.86,-2.36,1.88,-1.89,-1.58,-2.21,-4.26,-4.24,-4.24
235.90,-2.37,1.86,-2.37,1.87,-1.88,-1.57,-2.22,-4.25,-4.25,-4.24
238.26,-2.37,1.86,-2.38,1.86,-1.86,-1.56,-2.24,-4.23,-4.24,-4.24
240.64,-2.37,1.85,-2.37,1.85,-1.85,-1.55,-2.24,-4.22,-4.22,-4.23
243.05,-2.37,1.84,-2.38,1.84,-1.83,-1.53,-2.25,-4.20,-4.21,-4.21
245.48,-2.39,1.81,-2.39,1.81,-1.81,-1.52,-2.25,-4.21,-4.20,-4.20
247.93,-2.40,1.79,-2.40,1.79,-1.80,-1.51,-2.25,-4.20,-4.20,-4.19
250.41,-2.41,1.78,-2.41,1.77,-1.77,-1.49,-2.24,-4.19,-4.18,-4.19
252.92,-2.41,1.75,-2.41,1.75,-1.75,-1.48,-2.23,-4.16,-4.16,-4.17
255.45,-2.41,1.73,-2.42,1.73,-1.72,-1.46,-2.21,-4.14,-4.14,-4.14
258.00,-2.43,1.70,-2.44,1.69,-1.69,-1.45,-2.19,-4.13,-4.13,-4.13
260.58,-2.46,1.65,-2.45,1.67,-1.66,-1.43,-2.16,-4.12,-4.11,-4.12
263.19,-2.46,1.63,-2.47,1.63,-1.63,-1.41,-2.13,-4.09,-4.10,-4.09
265.82,-2.46,1.62,-2.48,1.59,-1.60,-1.40,-2.10,-4.06,-4.08,-4.08
268.48,-2.51,1.54,-2.50,1.56,-1.56,-1.38,-2.06,-4.08,-4.06,-4.06
271.16,-2.51,1.52,-2.51,1.53,-1.53,-1.36,-2.02,-4.04,-4.04,-4.03
273.87,-2.51,1.51,-2.52,1.50,-1.50,-1.34,-1.97,-4.01,-4.02,-4.02
276.61,-2.51,1.48,-2.52,1.47,-1.47,-1.32,-1.92,-3.98,-4.00,-3.99
279.38,-2.54,1.44,-2.54,1.44,-1.44,-1.30,-1.87,-3.99,-3.98,-3.98
282.17,-2.55,1.41,-2.55,1.41,-1.42,-1.28,-1.82,-3.97,-3.96,-3.96
284.99,-2.55,1.39,-2.55,1.39,-1.39,-1.26,-1.76,-3.94,-3.94,-3.94
287.84,-2.55,1.37,-2.55,1.37,-1.36,-1.24,-1.70,-3.92,-3.91,-3.92
290.72,-2.55,1.35,-2.56,1.34,-1.34,-1.22,-1.64,-3.89,-3.89,-3.90
293.63,-2.56,1.32,-2.57,1.31,-1.31,-1.20,-1.58,-3.87,-3.88,-3.88
296.57,-2.60,1.25,-2.59,1.27,-1.27,-1.17,-1.51,-3.88,-3.86,-3.86
299.53,-2.60,1.24,-2.60,1.24,-1.24,-1.15,-1.45,-3.84,-3.84,-3.84
302.53,-2.60,1.22,-2.61,1.21,-1.21,-1.13,-1.38,-3.81,-3.82,-3.82
305.55,-2.61,1.18,-2.62,1.18,-1.17,-1.10,-1.32,-3.78,-3.79,-3.79
308.61,-2.64,1.13,-2.64,1.13,-1.14,-1.08,-1.25,-3.78,-3.77,-3.77
311.69,-2.65,1.09,-2.65,1.09,-1.10,-1.05,-1.18,-3.76,-3.75,-3.75
314.81,-2.65,1.06,-2.65,1.06,-1.07,-1.02,-1.11,-3.72,-3.72,-3.71
317.96,-2.65,1.04,-2.65,1.04,-1.04,-1.00,-1.04,-3.69,-3.69,-3.69
321.14,-2.65,1.02,-2.66,1.01,-1.00,-0.97,-0.97,-3.65,-3.66,-3.68
324.35,-2.68,0.98,-2.68,0.98,-0.97,-0.94,-0.90,-3.65,-3.64,-3.66
327.59,-2.69,0.94,-2.70,0.93,-0.93,-0.91,-0.83,-3.62,-3.63,-3.63
330.87,-2.74,0.87,-2.72,0.89,-0.89,-0.88,-0.76,-3.64,-3.62,-3.61
334.18,-2.74,0.85,-2.74,0.85,-0.86,-0.85,-0.69,-3.60,-3.60,-3.60
337.52,-2.74,0.84,-2.76,0.81,-0.82,-0.82,-0.62,-3.56,-3.58,-3.58
340.90,-2.79,0.76,-2.77,0.78,-0.78,-0.78,-0.55,-3.57,-3.55,-3.55
344.30,-2.79,0.74,-2.79,0.74,-0.75,-0.75,-0.48,-3.54,-3.54,-3.53
347.75,-2.79,0.72,-2.81,0.71,-0.71,-0.71,-0.41,-3.50,-3.52,-3.52
351.23,-2.83,0.67,-2.82,0.68,-0.68,-0.68,-0.34,-3.51,-3.49,-3.50
354.74,-2.83,0.65,-2.84,0.64,-0.64,-0.64,-0.27,-3.48,-3.48,-3.48
358.28,-2.85,0.61,-2.85,0.61,-0.61,-0.60,-0.20,-3.46,-3.46,-3.46
361.87,-2.88,0.56,-2.87,0.57,-0.57,-0.56,-0.13,-3.46,-3.45,-3.45
365.49,-2.88,0.54,-2.90,0.53,-0.54,-0.52,-0.06,-3.42,-3.43,-3.43
369.14,-2.93,0.49,-2.92,0.50,-0.50,-0.47,0.00,-3.43,-3.42,-3.42
372.83,-2.93,0.47,-2.94,0.46,-0.46,-0.43,0.07,-3.39,-3.40,-3.40
376.56,-2.97,0.42,-2.97,0.41,-0.41,-0.38,0.14,-3.38,-3.38,-3.39
380.33,-3.00,0.36,-3.00,0.37,-0.36,-0.33,0.21,-3.36,-3.37,-3.36
384.13,-3.05,0.30,-3.05,0.31,-0.31,-0.28,0.27,-3.36,-3.36,-3.36
387.97,-3.09,0.26,-3.09,0.25,-0.25,-0.23,0.34,-3.34,-3.35,-3.35
391.85,-3.14,0.20,-3.14,0.20,-0.19,-0.18,0.41,-3.33,-3.33,-3.34
395.77,-3.19,0.13,-3.19,0.13,-0.13,-0.12,0.47,-3.32,-3.32,-3.32
399.73,-3.24,0.07,-3.25,0.06,-0.06,-0.06,0.54,-3.30,-3.31,-3.31
403.72,-3.32,-0.02,-3.31,-0.01,0.00,-0.01,0.60,-3.32,-3.31,-3.30
407.76,-3.37,-0.08,-3.37,-0.08,0.07,0.06,0.66,-3.30,-3.30,-3.29
411.84,-3.42,-0.15,-3.42,-0.14,0.14,0.12,0.72,-3.28,-3.28,-3.28
415.96,-3.46,-0.20,-3.47,-0.20,0.21,0.18,0.78,-3.25,-3.26,-3.27
420.12,-3.52,-0.26,-3.53,-0.27,0.28,0.25,0.84,-3.25,-3.25,-3.26
424.32,-3.59,-0.34,-3.59,-0.34,0.34,0.32,0.90,-3.25,-3.24,-3.25
428.56,-3.65,-0.41,-3.65,-0.41,0.41,0.38,0.95,-3.24,-3.24,-3.24
432.85,-3.71,-0.48,-3.71,-0.48,0.47,0.45,1.01,-3.24,-3.24,-3.23
437.18,-3.76,-0.54,-3.76,-0.54,0.54,0.52,1.06,-3.23,-3.22,-3.22
441.55,-3.81,-0.61,-3.81,-0.60,0.60,0.59,1.11,-3.21,-3.21,-3.20
445.96,-3.84,-0.65,-3.85,-0.66,0.66,0.66,1.15,-3.18,-3.20,-3.19
450.42,-3.90,-0.72,-3.89,-0.71,0.71,0.73,1.20,-3.19,-3.18,-3.19
454.93,-3.93,-0.77,-3.93,-0.76,0.77,0.79,1.24,-3.16,-3.16,-3.17
459.48,-3.96,-0.81,-3.97,-0.82,0.82,0.85,1.27,-3.14,-3.15,-3.16
464.07,-4.00,-0.86,-4.00,-0.86,0.87,0.91,1.30,-3.14,-3.13,-3.14
