frequency,raw,smoothed,error,error_smoothed,equalization,parametric_eq,fixed_band_eq,equalized_raw,equalized_smoothed,target
20.00,15.44,15.44,5.34,5.34,-5.33,-4.15,-2.11,10.10,10.10,10.10
20.20,15.42,15.42,5.32,5.32,-5.32,-4.15,-2.17,10.10,10.10,10.10
20.40,15.41,15.40,5.31,5.31,-5.31,-4.15,-2.23,10.10,10.10,10.10
20.61,15.39,15.39,5.29,5.29,-5.29,-4.15,-2.30,10.10,10.10,10.10
20.81,15.38,15.38,5.28,5.28,-5.28,-4.15,-2.37,10.10,10.10,10.10
21.02,15.36,15.36,5.26,5.26,-5.26,-4.15,-2.44,10.09,10.10,10.10
21.23,15.35,15.35,5.25,5.25,-5.25,-4.15,-2.51,10.10,10.10,10.10
21.44,15.33,15.33,5.23,5.23,-5.23,-4.15,-2.58,10.09,10.09,10.10
21.66,15.32,15.32,5.22,5.22,-5.22,-4.15,-2.65,10.10,10.10,10.09
21.87,15.30,15.30,5.20,5.21,-5.21,-4.15,-2.73,10.09,10.09,10.09
22.09,15.29,15.28,5.19,5.19,-5.19,-4.15,-2.81,10.10,10.09,10.09
22.31,15.27,15.27,5.18,5.18,-5.18,-4.15,-2.89,10.09,10.09,10.09
22.54,15.25,15.25,5.16,5.16,-5.16,-4.15,-2.97,10.09,10.09,10.09
22.76,15.24,15.23,5.15,5.14,-5.14,-4.15,-3.06,10.09,10.09,10.09
22.99,15.22,15.22,5.13,5.13,-5.13,-4.15,-3.15,10.09,10.09,10.09
23.22,15.20,15.20,5.11,5.11,-5.11,-4.15,-3.24,10.09,10.09,10.09
23.45,15.19,15.18,5.10,5.10,-5.10,-4.14,-3.33,10.09,10.09,10.09
23.69,15.17,15.17,5.08,5.08,-5.08,-4.14,-3.42,10.09,10.09,10.09
23.92,15.15,15.15,5.06,5.06,-5.06,-4.14,-3.52,10.08,10.08,10.09
24.16,15.13,15.13,5.04,5.05,-5.05,-4.14,-3.62,10.08,10.08,10.08
24.40,15.12,15.11,5.03,5.03,-5.03,-4.14,-3.71,10.09,10.08,10.08
24.65,15.10,15.10,5.02,5.02,-5.01,-4.14,-3.81,10.08,10.08,10.08
24.89,15.08,15.08,5.00,5.00,-5.00,-4.14,-3.91,10.08,10.08,10.08
25.14,15.06,15.06,4.98,4.98,-4.98,-4.14,-4.02,10.08,10.08,10.08
25.39,15.04,15.04,4.96,4.96,-4.96,-4.14,-4.12,10.08,10.08,10.08
25.65,15.02,15.02,4.94,4.94,-4.94,-4.14,-4.22,10.07,10.07,10.08
25.91,15.00,15.00,4.92,4.92,-4.92,-4.14,-4.33,10.07,10.07,10.07
26.16,14.98,14.98,4.90,4.90,-4.91,-4.14,-4.43,10.07,10.07,10.07
26.43,14.96,14.96,4.89,4.89,-4.89,-4.14,-4.53,10.07,10.07,10.07
26.69,14.94,14.94,4.87,4.87,-4.87,-4.13,-4.63,10.07,10.07,10.07
26.96,14.92,14.92,4.85,4.85,-4.85,-4.13,-4.73,10.07,10.07,10.07
27.23,14.90,14.89,4.83,4.83,-4.83,-4.13,-4.83,10.07,10.07,10.07
27.50,14.87,14.87,4.80,4.81,-4.81,-4.13,-4.93,10.06,10.06,10.06
27.77,14.85,14.85,4.79,4.79,-4.79,-4.13,-5.02,10.06,10.06,10.06
28.05,14.83,14.83,4.77,4.77,-4.77,-4.13,-5.11,10.06,10.06,10.06
28.33,14.81,14.81,4.75,4.75,-4.75,-4.13,-5.19,10.06,10.06,10.06
28.62,14.79,14.79,4.73,4.73,-4.73,-4.13,-5.27,10.06,10.06,10.06
28.90,14.77,14.76,4.71,4.71,-4.71,-4.12,-5.34,10.06,10.06,10.05
29.19,14.74,14.74,4.69,4.69,-4.69,-4.12,-5.41,10.05,10.05,10.05
29.48,14.72,14.72,4.67,4.67,-4.67,-4.12,-5.47,10.05,10.05,10.05
29.78,14.70,14.69,4.65,4.65,-4.65,-4.12,-5.53,10.05,10.04,10.05
30.08,14.67,14.67,4.62,4.63,-4.63,-4.12,-5.57,10.04,10.04,10.04
30.38,14.65,14.65,4.61,4.61,-4.61,-4.12,-5.61,10.04,10.04,10.04
30.68,14.63,14.63,4.59,4.59,-4.59,-4.11,-5.64,10.04,10.04,10.04
30.99,14.61,14.60,4.57,4.57,-4.57,-4.11,-5.66,10.04,10.04,10.04
31.30,14.58,14.58,4.55,4.55,-4.55,-4.11,-5.67,10.03,10.03,10.03
31.61,14.56,14.56,4.53,4.53,-4.53,-4.11,-5.68,10.03,10.03,10.03
31.93,14.54,14.54,4.51,4.51,-4.51,-4.10,-5.68,10.03,10.03,10.03
32.24,14.52,14.52,4.49,4.49,-4.49,-4.10,-5.67,10.03,10.02,10.02
32.57,14.49,14.49,4.47,4.47,-4.47,-4.10,-5.64,10.02,10.02,10.02
32.89,14.47,14.47,4.45,4.45,-4.45,-4.10,-5.62,10.02,10.02,10.02
33.22,14.44,14.44,4.43,4.43,-4.43,-4.09,-5.58,10.01,10.01,10.01
33.55,14.42,14.42,4.41,4.41,-4.41,-4.09,-5.54,10.01,10.01,10.01
33.89,14.39,14.39,4.38,4.39,-4.39,-4.09,-5.49,10.00,10.00,10.00
34.23,14.37,14.37,4.37,4.37,-4.37,-4.08,-5.44,10.00,10.00,10.00
34.57,14.34,14.34,4.34,4.35,-4.35,-4.08,-5.38,9.99,10.00,9.99
34.92,14.32,14.31,4.33,4.32,-4.32,-4.08,-5.32,9.99,9.99,9.99
35.27,14.29,14.29,4.30,4.30,-4.30,-4.07,-5.25,9.99,9.99,9.99
35.62,14.26,14.26,4.28,4.28,-4.28,-4.07,-5.18,9.98,9.98,9.98
35.97,14.24,14.23,4.26,4.26,-4.26,-4.06,-5.11,9.98,9.98,9.98
36.33,14.21,14.21,4.24,4.24,-4.24,-4.06,-5.04,9.97,9.97,9.97
36.70,14.18,14.18,4.21,4.21,-4.21,-4.05,-4.96,9.97,9.97,9.96
37.06,14.15,14.15,4.19,4.19,-4.19,-4.05,-4.88,9.96,9.96,9.96
37.43,14.12,14.12,4.16,4.16,-4.16,-4.04,-4.80,9.95,9.95,9.95
37.81,14.09,14.09,4.14,4.14,-4.14,-4.04,-4.73,9.95,9.95,9.95
38.19,14.06,14.06,4.12,4.12,-4.12,-4.03,-4.65,9.94,9.94,9.94
38.57,14.03,14.03,4.09,4.09,-4.09,-4.03,-4.57,9.93,9.93,9.93
38.95,14.00,14.00,4.07,4.07,-4.07,-4.02,-4.49,9.93,9.93,9.93
39.34,13.97,13.97,4.05,4.05,-4.05,-4.01,-4.42,9.92,9.92,9.92
39.74,13.94,13.94,4.02,4.02,-4.02,-4.01,-4.35,9.91,9.91,9.91
40.14,13.91,13.91,4.00,4.00,-4.00,-4.00,-4.27,9.91,9.91,9.91
40.54,13.88,13.88,3.98,3.98,-3.98,-3.99,-4.20,9.90,9.90,9.90
40.94,13.85,13.85,3.96,3.96,-3.96,-3.98,-4.14,9.89,9.89,9.89
41.35,13.82,13.82,3.94,3.94,-3.93,-3.97,-4.07,9.88,9.88,9.88
41.76,13.79,13.78,3.91,3.91,-3.91,-3.97,-4.01,9.88,9.87,9.87
42.18,13.75,13.75,3.88,3.89,-3.89,-3.96,-3.95,9.86,9.86,9.86
42.60,13.72,13.72,3.86,3.86,-3.87,-3.95,-3.89,9.85,9.85,9.85
43.03,13.69,13.69,3.84,3.84,-3.84,-3.93,-3.84,9.84,9.84,9.84
43.46,13.66,13.66,3.82,3.82,-3.82,-3.92,-3.78,9.83,9.84,9.83
43.90,13.63,13.63,3.80,3.80,-3.80,-3.91,-3.73,9.83,9.83,9.82
44.33,13.60,13.59,3.78,3.78,-3.78,-3.90,-3.69,9.82,9.81,9.81
44.78,13.56,13.56,3.76,3.76,-3.76,-3.89,-3.64,9.80,9.80,9.80
45.23,13.53,13.53,3.74,3.74,-3.74,-3.87,-3.60,9.79,9.79,9.79
45.68,13.50,13.49,3.72,3.72,-3.72,-3.86,-3.56,9.78,9.78,9.78
46.13,13.46,13.46,3.69,3.70,-3.70,-3.84,-3.53,9.76,9.77,9.77
46.60,13.43,13.43,3.68,3.67,-3.68,-3.83,-3.50,9.75,9.75,9.75
47.06,13.40,13.39,3.66,3.65,-3.65,-3.81,-3.47,9.74,9.74,9.74
47.53,13.36,13.36,3.63,3.64,-3.63,-3.79,-3.44,9.72,9.73,9.73
48.01,13.33,13.32,3.62,3.61,-3.61,-3.77,-3.41,9.72,9.71,9.71
48.49,13.29,13.29,3.59,3.59,-3.59,-3.75,-3.39,9.70,9.70,9.70
48.97,13.25,13.25,3.57,3.57,-3.57,-3.73,-3.37,9.68,9.68,9.68
49.46,13.22,13.21,3.55,3.55,-3.55,-3.71,-3.35,9.67,9.66,9.67
49.96,13.18,13.18,3.53,3.53,-3.53,-3.69,-3.34,9.65,9.65,9.65
50.46,13.14,13.14,3.51,3.51,-3.51,-3.67,-3.33,9.63,9.63,9.63
50.96,13.11,13.10,3.49,3.49,-3.49,-3.64,-3.31,9.62,9.62,9.61
51.47,13.07,13.07,3.47,3.47,-3.47,-3.62,-3.30,9.60,9.60,9.60
51.99,13.03,13.03,3.45,3.45,-3.45,-3.59,-3.30,9.58,9.58,9.58
52.51,12.99,12.99,3.43,3.43,-3.43,-3.56,-3.29,9.56,9.56,9.56
53.03,12.95,12.95,3.41,3.41,-3.41,-3.54,-3.28,9.54,9.54,9.54
53.56,12.91,12.91,3.39,3.39,-3.39,-3.51,-3.28,9.52,9.52,9.52
54.10,12.87,12.87,3.37,3.37,-3.37,-3.48,-3.28,9.50,9.50,9.50
54.64,12.83,12.83,3.35,3.35,-3.35,-3.45,-3.28,9.47,9.47,9.47
55.18,12.79,12.79,3.34,3.34,-3.33,-3.42,-3.27,9.45,9.45,9.45
55.74,12.75,12.75,3.32,3.32,-3.32,-3.39,-3.27,9.43,9.43,9.43
56.29,12.71,12.70,3.30,3.30,-3.30,-3.36,-3.27,9.41,9.40,9.40
56.86,12.66,12.66,3.28,3.28,-3.28,-3.33,-3.27,9.38,9.38,9.38
57.42,12.62,12.62,3.26,3.26,-3.27,-3.30,-3.27,9.35,9.35,9.35
58.00,12.58,12.58,3.25,3.25,-3.25,-3.27,-3.27,9.33,9.33,9.33
58.58,12.54,12.54,3.24,3.23,-3.23,-3.25,-3.27,9.31,9.30,9.30
59.16,12.49,12.49,3.21,3.22,-3.22,-3.22,-3.26,9.27,9.27,9.27
59.76,12.45,12.45,3.20,3.20,-3.20,-3.20,-3.26,9.25,9.24,9.24
60.35,12.40,12.40,3.18,3.19,-3.19,-3.18,-3.26,9.21,9.21,9.21
60.96,12.36,12.36,3.17,3.17,-3.17,-3.16,-3.25,9.18,9.18,9.18
61.57,12.31,12.31,3.16,3.16,-3.16,-3.15,-3.25,9.15,9.15,9.15
62.18,12.27,12.27,3.15,3.15,-3.15,-3.13,-3.24,9.12,9.12,9.12
62.80,12.22,12.22,3.13,3.13,-3.13,-3.12,-3.23,9.08,9.09,9.09
63.43,12.18,12.17,3.13,3.12,-3.12,-3.12,-3.22,9.06,9.05,9.05
64.07,12.13,12.13,3.11,3.11,-3.11,-3.11,-3.21,9.02,9.02,9.02
64.71,12.08,12.08,3.10,3.10,-3.10,-3.11,-3.20,8.98,8.98,8.98
65.35,12.04,12.03,3.09,3.09,-3.09,-3.11,-3.19,8.95,8.94,8.94
66.01,11.99,11.99,3.08,3.08,-3.08,-3.11,-3.17,8.91,8.90,8.91
66.67,11.94,11.94,3.07,3.07,-3.07,-3.12,-3.16,8.86,8.87,8.87
67.33,11.89,11.89,3.06,3.06,-3.07,-3.12,-3.14,8.82,8.82,8.83
68.01,11.85,11.84,3.06,3.06,-3.06,-3.13,-3.13,8.79,8.78,8.79
68.69,11.80,11.80,3.05,3.06,-3.06,-3.14,-3.11,8.74,8.74,8.74
69.37,11.76,11.76,3.06,3.05,-3.05,-3.15,-3.10,8.70,8.70,8.70
70.07,11.71,11.71,3.05,3.05,-3.05,-3.16,-3.08,8.66,8.66,8.66
70.77,11.66,11.66,3.05,3.05,-3.05,-3.17,-3.06,8.61,8.61,8.61
71.48,11.61,11.61,3.04,3.05,-3.05,-3.18,-3.05,8.56,8.56,8.56
72.19,11.57,11.56,3.05,3.05,-3.05,-3.19,-3.03,8.52,8.52,8.52
72.91,11.52,11.52,3.05,3.05,-3.05,-3.20,-3.01,8.47,8.47,8.47
73.64,11.47,11.47,3.05,3.05,-3.05,-3.20,-3.00,8.42,8.42,8.42
74.38,11.42,11.42,3.05,3.05,-3.05,-3.21,-2.99,8.37,8.37,8.37
75.12,11.37,11.37,3.05,3.05,-3.05,-3.22,-2.97,8.32,8.32,8.32
75.87,11.32,11.32,3.05,3.05,-3.05,-3.22,-2.96,8.27,8.27,8.27
76.63,11.27,11.27,3.05,3.06,-3.05,-3.23,-2.95,8.21,8.21,8.21
77.40,11.22,11.22,3.06,3.06,-3.06,-3.23,-2.94,8.16,8.16,8.16
78.17,11.17,11.16,3.06,3.06,-3.06,-3.24,-2.94,8.11,8.10,8.10
78.95,11.11,11.11,3.06,3.06,-3.06,-3.24,-2.93,8.04,8.05,8.05
79.74,11.06,11.06,3.07,3.07,-3.07,-3.24,-2.93,7.99,7.99,7.99
80.54,11.01,11.00,3.08,3.07,-3.07,-3.24,-2.93,7.93,7.93,7.93
81.35,10.95,10.95,3.08,3.08,-3.08,-3.24,-2.93,7.87,7.87,7.87
82.16,10.90,10.89,3.09,3.08,-3.08,-3.23,-2.93,7.81,7.81,7.81
82.98,10.84,10.84,3.09,3.09,-3.09,-3.23,-2.93,7.75,7.75,7.75
83.81,10.79,10.79,3.10,3.10,-3.10,-3.23,-2.94,7.69,7.69,7.69
84.65,10.74,10.73,3.11,3.11,-3.11,-3.22,-2.95,7.63,7.63,7.63
85.50,10.68,10.68,3.11,3.12,-3.12,-3.22,-2.96,7.56,7.56,7.56
86.35,10.63,10.63,3.13,3.13,-3.13,-3.21,-2.97,7.50,7.50,7.50
87.22,10.57,10.57,3.13,3.14,-3.14,-3.21,-2.99,7.43,7.43,7.43
88.09,10.52,10.52,3.15,3.15,-3.15,-3.20,-3.01,7.37,7.37,7.37
88.97,10.46,10.46,3.16,3.16,-3.16,-3.19,-3.03,7.30,7.30,7.30
89.86,10.41,10.41,3.17,3.17,-3.17,-3.18,-3.05,7.24,7.23,7.23
90.76,10.35,10.35,3.18,3.18,-3.18,-3.17,-3.07,7.16,7.17,7.17
91.66,10.30,10.30,3.20,3.20,-3.20,-3.17,-3.10,7.10,7.10,7.10
92.58,10.24,10.24,3.21,3.21,-3.21,-3.16,-3.13,7.03,7.03,7.03
93.51,10.18,10.18,3.22,3.22,-3.22,-3.15,-3.16,6.96,6.96,6.96
94.44,10.12,10.12,3.23,3.23,-3.24,-3.14,-3.19,6.88,6.88,6.89
95.39,10.07,10.06,3.25,3.25,-3.25,-3.13,-3.23,6.82,6.81,6.82
96.34,10.01,10.01,3.26,3.26,-3.27,-3.12,-3.27,6.74,6.74,6.75
97.30,9.96,9.96,3.28,3.28,-3.28,-3.11,-3.30,6.68,6.67,6.67
98.28,9.90,9.90,3.30,3.30,-3.30,-3.10,-3.34,6.60,6.60,6.60
99.26,9.85,9.85,3.32,3.32,-3.31,-3.09,-3.39,6.53,6.53,6.53
100.25,9.79,9.79,3.33,3.33,-3.33,-3.08,-3.43,6.46,6.46,6.46
101.25,9.74,9.73,3.35,3.35,-3.35,-3.08,-3.47,6.39,6.38,6.38
102.27,9.68,9.68,3.37,3.37,-3.37,-3.07,-3.52,6.31,6.31,6.31
103.29,9.62,9.62,3.38,3.38,-3.38,-3.06,-3.57,6.24,6.24,6.24
104.32,9.57,9.56,3.40,3.40,-3.40,-3.05,-3.61,6.17,6.17,6.17
105.37,9.51,9.51,3.41,3.41,-3.41,-3.05,-3.66,6.10,6.09,6.09
106.42,9.45,9.45,3.43,3.43,-3.43,-3.04,-3.70,6.02,6.02,6.02
107.48,9.39,9.39,3.44,3.44,-3.44,-3.03,-3.75,5.94,5.94,5.95
108.56,9.33,9.33,3.45,3.45,-3.46,-3.03,-3.79,5.87,5.87,5.87
109.64,9.27,9.27,3.47,3.47,-3.47,-3.02,-3.84,5.80,5.80,5.80
110.74,9.22,9.21,3.49,3.49,-3.49,-3.02,-3.88,5.73,5.73,5.73
111.85,9.16,9.16,3.50,3.50,-3.50,-3.02,-3.92,5.66,5.66,5.66
112.97,9.10,9.10,3.51,3.51,-3.51,-3.02,-3.96,5.59,5.59,5.58
114.10,9.04,9.04,3.53,3.53,-3.52,-3.02,-3.99,5.51,5.51,5.51
115.24,8.98,8.98,3.54,3.54,-3.54,-3.02,-4.03,5.44,5.44,5.44
116.39,8.92,8.92,3.55,3.55,-3.55,-3.02,-4.06,5.37,5.37,5.37
117.55,8.86,8.86,3.56,3.56,-3.56,-3.02,-4.08,5.30,5.30,5.30
118.73,8.80,8.80,3.57,3.57,-3.57,-3.02,-4.10,5.23,5.23,5.23
119.92,8.74,8.74,3.58,3.58,-3.58,-3.03,-4.12,5.16,5.16,5.16
121.12,8.68,8.67,3.59,3.58,-3.58,-3.03,-4.13,5.10,5.09,5.09
122.33,8.61,8.61,3.58,3.59,-3.59,-3.04,-4.13,5.02,5.02,5.02
123.55,8.55,8.55,3.59,3.59,-3.59,-3.05,-4.14,4.96,4.96,4.96
124.79,8.49,8.48,3.60,3.59,-3.60,-3.05,-4.13,4.89,4.89,4.89
126.03,8.42,8.42,3.59,3.60,-3.60,-3.06,-4.13,4.82,4.82,4.82
127.29,8.36,8.36,3.60,3.60,-3.60,-3.07,-4.11,4.76,4.76,4.76
128.57,8.29,8.29,3.59,3.60,-3.60,-3.08,-4.09,4.69,4.69,4.69
129.85,8.23,8.23,3.60,3.60,-3.60,-3.10,-4.07,4.63,4.63,4.63
131.15,8.16,8.16,3.59,3.59,-3.59,-3.11,-4.04,4.56,4.57,4.57
132.46,8.10,8.10,3.59,3.59,-3.59,-3.12,-4.01,4.51,4.50,4.50
133.79,8.03,8.03,3.58,3.59,-3.59,-3.14,-3.97,4.44,4.44,4.44
135.12,7.97,7.97,3.58,3.58,-3.58,-3.15,-3.93,4.38,4.38,4.38
136.48,7.90,7.90,3.57,3.58,-3.58,-3.17,-3.89,4.32,4.32,4.32
137.84,7.84,7.84,3.57,3.57,-3.57,-3.19,-3.84,4.27,4.27,4.26
139.22,7.77,7.77,3.56,3.56,-3.56,-3.21,-3.79,4.21,4.21,4.21
140.61,7.71,7.70,3.56,3.55,-3.55,-3.22,-3.73,4.15,4.15,4.15
142.02,7.64,7.64,3.54,3.54,-3.54,-3.24,-3.68,4.10,4.10,4.09
143.44,7.57,7.57,3.53,3.53,-3.53,-3.26,-3.62,4.04,4.04,4.04
144.87,7.51,7.50,3.52,3.52,-3.52,-3.28,-3.56,3.99,3.99,3.99
146.32,7.44,7.44,3.50,3.50,-3.50,-3.29,-3.50,3.93,3.93,3.93
147.78,7.37,7.37,3.49,3.49,-3.49,-3.31,-3.44,3.88,3.88,3.88
149.26,7.31,7.30,3.48,3.47,-3.47,-3.33,-3.38,3.83,3.83,3.83
150.75,7.24,7.24,3.46,3.46,-3.46,-3.35,-3.32,3.78,3.78,3.78
152.26,7.18,7.18,3.44,3.44,-3.44,-3.36,-3.26,3.73,3.73,3.73
153.78,7.12,7.12,3.43,3.43,-3.43,-3.38,-3.19,3.69,3.69,3.69
155.32,7.06,7.06,3.42,3.42,-3.42,-3.39,-3.13,3.64,3.64,3.64
156.88,7.00,7.00,3.40,3.40,-3.41,-3.40,-3.07,3.59,3.59,3.59
158.44,6.94,6.94,3.39,3.39,-3.39,-3.41,-3.02,3.54,3.55,3.55
160.03,6.89,6.88,3.38,3.38,-3.38,-3.42,-2.96,3.51,3.50,3.51
161.63,6.83,6.83,3.37,3.37,-3.37,-3.42,-2.90,3.46,3.46,3.45
163.24,6.77,6.77,3.35,3.36,-3.35,-3.43,-2.85,3.42,3.42,3.41
164.88,6.71,6.71,3.34,3.34,-3.33,-3.43,-2.80,3.37,3.37,3.37
166.53,6.65,6.65,3.31,3.31,-3.31,-3.43,-2.75,3.33,3.33,3.33
168.19,6.59,6.59,3.29,3.29,-3.29,-3.42,-2.70,3.29,3.30,3.29
169.87,6.53,6.53,3.27,3.27,-3.27,-3.42,-2.65,3.26,3.26,3.26
171.57,6.47,6.46,3.25,3.24,-3.24,-3.41,-2.60,3.22,3.22,3.22
173.29,6.40,6.40,3.21,3.22,-3.22,-3.39,-2.56,3.18,3.19,3.19
175.02,6.34,6.34,3.19,3.19,-3.19,-3.38,-2.52,3.15,3.15,3.15
176.77,6.28,6.27,3.16,3.16,-3.16,-3.36,-2.48,3.12,3.12,3.12
178.54,6.21,6.21,3.12,3.13,-3.13,-3.33,-2.44,3.08,3.08,3.08
180.32,6.15,6.15,3.09,3.09,-3.10,-3.31,-2.41,3.05,3.05,3.05
182.13,6.09,6.08,3.07,3.06,-3.06,-3.28,-2.37,3.02,3.02,3.02
183.95,6.02,6.02,3.03,3.03,-3.03,-3.25,-2.34,2.99,2.99,2.99
185.79,5.96,5.96,2.99,2.99,-3.00,-3.21,-2.31,2.96,2.96,2.96
187.65,5.90,5.89,2.96,2.96,-2.96,-3.17,-2.28,2.94,2.93,2.93
189.52,5.83,5.83,2.92,2.92,-2.92,-3.13,-2.26,2.91,2.91,2.91
191.42,5.77,5.77,2.89,2.88,-2.88,-3.09,-2.23,2.89,2.88,2.88
193.33,5.70,5.70,2.84,2.84,-2.84,-3.04,-2.21,2.86,2.86,2.85
195.27,5.63,5.63,2.80,2.80,-2.80,-2.99,-2.18,2.83,2.83,2.83
197.22,5.56,5.56,2.75,2.75,-2.75,-2.93,-2.17,2.80,2.80,2.81
199.19,5.49,5.49,2.71,2.71,-2.71,-2.88,-2.15,2.78,2.78,2.78
201.18,5.42,5.42,2.66,2.66,-2.66,-2.82,-2.13,2.76,2.76,2.76
203.19,5.35,5.35,2.61,2.61,-2.61,-2.76,-2.11,2.73,2.73,2.74
205.23,5.28,5.28,2.56,2.57,-2.57,-2.70,-2.09,2.71,2.71,2.72
207.28,5.22,5.21,2.52,2.52,-2.52,-2.64,-2.08,2.70,2.70,2.69
209.35,5.15,5.15,2.47,2.47,-2.47,-2.57,-2.06,2.68,2.68,2.67
211.44,5.08,5.08,2.42,2.42,-2.42,-2.51,-2.05,2.66,2.66,2.65
213.56,5.01,5.01,2.37,2.37,-2.37,-2.44,-2.04,2.63,2.63,2.64
215.69,4.94,4.94,2.32,2.32,-2.33,-2.37,-2.02,2.61,2.61,2.62
217.85,4.88,4.87,2.28,2.27,-2.28,-2.31,-2.01,2.60,2.60,2.60
220.03,4.81,4.81,2.22,2.23,-2.23,-2.24,-1.99,2.58,2.58,2.58
222.23,4.75,4.74,2.18,2.18,-2.18,-2.17,-1.98,2.57,2.57,2.57
224.45,4.68,4.68,2.13,2.13,-2.13,-2.10,-1.96,2.55,2.55,2.55
226.70,4.61,4.61,2.07,2.08,-2.08,-2.03,-1.94,2.53,2.53,2.53
228.96,4.55,4.54,2.03,2.02,-2.03,-1.96,-1.93,2.52,2.52,2.52
231.25,4.48,4.48,1.97,1.97,-1.98,-1.89,-1.91,2.50,2.50,2.51
233.57,4.42,4.42,1.93,1.93,-1.93,-1.82,-1.89,2.49,2.49,2.49
235.90,4.35,4.35,1.88,1.88,-1.88,-1.75,-1.86,2.47,2.47,2.47
238.26,4.29,4.28,1.83,1.83,-1.83,-1.68,-1.84,2.46,2.46,2.45
240.64,4.22,4.22,1.78,1.78,-1.77,-1.61,-1.81,2.44,2.44,2.44
243.05,4.15,4.15,1.72,1.72,-1.72,-1.54,-1.78,2.43,2.43,2.43
245.48,4.09,4.08,1.67,1.67,-1.67,-1.48,-1.75,2.42,2.42,2.42
247.93,4.02,4.02,1.61,1.61,-1.61,-1.41,-1.71,2.40,2.41,2.41
250.41,3.96,3.95,1.56,1.56,-1.56,-1.34,-1.68,2.40,2.40,2.40
252.92,3.89,3.89,1.50,1.50,-1.50,-1.27,-1.64,2.39,2.39,2.39
255.45,3.82,3.82,1.44,1.45,-1.45,-1.21,-1.60,2.37,2.37,2.38
258.00,3.76,3.75,1.39,1.39,-1.39,-1.14,-1.55,2.37,2.36,2.37
260.58,3.69,3.69,1.33,1.33,-1.33,-1.08,-1.50,2.35,2.35,2.36
263.19,3.63,3.63,1.28,1.28,-1.28,-1.01,-1.45,2.35,2.35,2.35
265.82,3.56,3.56,1.22,1.22,-1.22,-0.95,-1.40,2.34,2.34,2.34
268.48,3.50,3.50,1.17,1.17,-1.17,-0.89,-1.35,2.33,2.33,2.33
271.16,3.43,3.43,1.11,1.11,-1.11,-0.83,-1.29,2.32,2.32,2.32
273.87,3.37,3.36,1.05,1.05,-1.05,-0.76,-1.23,2.32,2.31,2.31
276.61,3.30,3.30,0.99,0.99,-0.99,-0.70,-1.17,2.31,2.31,2.31
279.38,3.23,3.23,0.93,0.93,-0.93,-0.64,-1.11,2.30,2.30,2.30
282.17,3.17,3.16,0.88,0.87,-0.87,-0.58,-1.04,2.30,2.30,2.29
284.99,3.10,3.10,0.80,0.81,-0.81,-0.52,-0.98,2.29,2.29,2.29
287.84,3.04,3.04,0.74,0.74,-0.74,-0.47,-0.91,2.29,2.29,2.30
290.72,2.97,2.97,0.68,0.68,-0.68,-0.41,-0.84,2.29,2.29,2.29
293.63,2.91,2.91,0.62,0.62,-0.61,-0.35,-0.77,2.29,2.29,2.29
296.57,2.84,2.84,0.55,0.55,-0.55,-0.29,-0.69,2.29,2.29,2.29
299.53,2.78,2.77,0.48,0.48,-0.49,-0.24,-0.62,2.29,2.29,2.29
302.53,2.71,2.71,0.42,0.42,-0.42,-0.18,-0.55,2.29,2.29,2.29
305.55,2.65,2.65,0.35,0.36,-0.36,-0.12,-0.47,2.29,2.29,2.29
308.61,2.59,2.58,0.30,0.29,-0.29,-0.07,-0.40,2.29,2.29,2.29
311.69,2.52,2.52,0.22,0.23,-0.23,-0.01,-0.32,2.29,2.29,2.29
314.81,2.46,2.45,0.17,0.16,-0.16,0.04,-0.24,2.29,2.29,2.29
317.96,2.39,2.39,0.09,0.10,-0.10,0.10,-0.16,2.29,2.29,2.29
321.14,2.33,2.33,0.04,0.04,-0.04,0.15,-0.08,2.29,2.29,2.29
324.35,2.27,2.26,-0.03,-0.03,0.03,0.20,-0.00,2.30,2.29,2.29
327.59,2.20,2.20,-0.10,-0.10,0.09,0.26,0.08,2.29,2.29,2.30
330.87,2.14,2.14,-0.16,-0.16,0.16,0.31,0.16,2.30,2.30,2.30
334.18,2.08,2.08,-0.22,-0.22,0.22,0.36,0.24,2.30,2.30,2.30
337.52,2.02,2.01,-0.28,-0.29,0.29,0.42,0.32,2.31,2.30,2.30
340.90,1.95,1.95,-0.36,-0.36,0.36,0.47,0.40,2.30,2.31,2.31
344.30,1.89,1.89,-0.42,-0.42,0.42,0.53,0.48,2.31,2.31,2.31
347.75,1.83,1.83,-0.49,-0.49,0.49,0.58,0.57,2.32,2.32,2.32
351.23,1.77,1.76,-0.55,-0.56,0.56,0.63,0.65,2.32,2.32,2.32
354.74,1.70,1.70,-0.63,-0.63,0.62,0.69,0.74,2.32,2.33,2.33
358.28,1.64,1.64,-0.69,-0.69,0.69,0.74,0.82,2.33,2.33,2.33
361.87,1.58,1.58,-0.76,-0.76,0.76,0.79,0.91,2.34,2.34,2.34
365.49,1.52,1.52,-0.83,-0.82,0.83,0.85,0.99,2.34,2.34,2.34
369.14,1.46,1.45,-0.88,-0.89,0.89,0.90,1.08,2.35,2.35,2.34
372.83,1.39,1.39,-0.97,-0.96,0.96,0.96,1.17,2.35,2.35,2.36
376.56,1.33,1.33,-1.03,-1.03,1.03,1.01,1.26,2.35,2.35,2.36
380.33,1.27,1.27,-1.10,-1.09,1.09,1.06,1.34,2.36,2.36,2.36
384.13,1.21,1.21,-1.15,-1.16,1.16,1.12,1.43,2.37,2.37,2.36
387.97,1.15,1.15,-1.22,-1.23,1.23,1.17,1.52,2.38,2.38,2.37
391.85,1.09,1.08,-1.30,-1.30,1.30,1.23,1.61,2.39,2.38,2.39
395.77,1.02,1.02,-1.37,-1.37,1.37,1.29,1.70,2.38,2.39,2.39
399.73,0.96,0.96,-1.44,-1.44,1.43,1.34,1.79,2.39,2.39,2.39
403.72,0.90,0.89,-1.50,-1.50,1.50,1.40,1.88,2.40,2.40,2.40
407.76,0.83,0.83,-1.57,-1.57,1.57,1.46,1.97,2.40,2.40,2.40
411.84,0.77,0.77,-1.64,-1.64,1.64,1.51,2.06,2.41,2.41,2.41
415.96,0.71,0.71,-1.71,-1.71,1.71,1.57,2.15,2.41,2.41,2.42
420.12,0.65,0.65,-1.77,-1.77,1.77,1.63,2.23,2.42,2.42,2.41
424.32,0.59,0.59,-1.84,-1.84,1.84,1.69,2.32,2.42,2.42,2.42
428.56,0.53,0.53,-1.90,-1.90,1.90,1.75,2.40,2.43,2.43,2.43
432.85,0.47,0.47,-1.97,-1.97,1.97,1.81,2.49,2.44,2.43,2.44
437.18,0.41,0.41,-2.03,-2.03,2.03,1.87,2.57,2.44,2.44,2.44
441.55,0.35,0.35,-2.10,-2.10,2.10,1.93,2.65,2.45,2.45,2.45
445.96,0.30,0.29,-2.16,-2.16,2.17,1.99,2.73,2.47,2.46,2.46
450.42,0.24,0.24,-2.24,-2.23,2.24,2.05,2.80,2.47,2.47,2.47
454.93,0.18,0.18,-2.31,-2.30,2.30,2.11,2.88,2.48,2.48,2.48
459.48,0.12,0.12,-2.37,-2.37,2.37,2.17,2.95,2.49,2.49,2.49
464.07,0.06,0.06,-2.43,-2.44,2.44,2.24,3.01,2.49,2.49,2.49
468.71,-0.00,-0.00,-2.50,-2.50,2.50,2.30,3.07,2.50,2.50,2.50
473.40,-0.05,-0.06,-2.56,-2.56,2.56,2.36,3.13,2.51,2.51,2.51
478.13,-0.11,-0.11,-2.63,-2.63,2.63,2.43,3.18,2.51,2.52,2.52
482.91,-0.16,-0.16,-2.69,-2.69,2.69,2.49,3.23,2.53,2.53,2.53
487.74,-0.21,-0.21,-2.75,-2.75,2.75,2.56,3.28,2.54,2.54,2.54
492.62,-0.26,-0.26,-2.81,-2.81,2.81,2.62,3.32,2.55,2.55,2.54
497.55,-0.31,-0.31,-2.87,-2.87,2.87,2.69,3.35,2.56,2.56,2.55
502.52,-0.36,-0.36,-2.93,-2.93,2.93,2.76,3.38,2.57,2.57,2.56
507.55,-0.41,-0.41,-2.99,-2.99,2.99,2.82,3.41,2.58,2.58,2.58
