frequency,raw,error,smoothed,error_smoothed,equalization,parametric_eq,fixed_band_eq,equalized_raw,equalized_smoothed,target
20.00,-28.26,-38.80,-28.25,-38.79,6.00,6.72,2.91,-22.26,-22.25,10.54
20.20,-28.15,-38.74,-28.16,-38.75,6.00,6.72,2.99,-22.15,-22.16,10.59
20.40,-28.03,-38.67,-28.05,-38.69,6.00,6.72,3.07,-22.03,-22.05,10.64
20.61,-27.92,-38.59,-27.93,-38.61,6.00,6.72,3.16,-21.92,-21.93,10.67
20.81,-27.80,-38.52,-27.81,-38.53,6.00,6.72,3.25,-21.80,-21.81,10.72
21.02,-27.68,-38.44,-27.64,-38.40,6.00,6.71,3.34,-21.68,-21.64,10.76
21.23,-27.43,-38.21,-27.44,-38.22,6.00,6.71,3.44,-21.43,-21.44,10.78
21.44,-27.18,-37.98,-27.18,-37.99,6.00,6.71,3.53,-21.18,-21.18,10.80
21.66,-26.93,-37.75,-26.92,-37.73,6.00,6.71,3.63,-20.93,-20.92,10.82
21.87,-26.68,-37.51,-26.70,-37.53,6.00,6.71,3.74,-20.68,-20.70,10.83
22.09,-26.51,-37.36,-26.53,-37.38,6.00,6.71,3.84,-20.51,-20.53,10.85
22.31,-26.44,-37.30,-26.42,-37.28,6.00,6.71,3.95,-20.44,-20.42,10.86
22.54,-26.36,-37.22,-26.36,-37.22,6.00,6.70,4.06,-20.36,-20.36,10.86
22.76,-26.29,-37.15,-26.29,-37.14,6.00,6.70,4.18,-20.29,-20.29,10.86
22.99,-26.21,-37.06,-26.20,-37.05,6.00,6.70,4.29,-20.21,-20.20,10.85
23.22,-26.09,-36.94,-26.09,-36.94,6.00,6.70,4.41,-20.09,-20.09,10.84
23.45,-25.97,-36.81,-25.99,-36.83,6.00,6.70,4.53,-19.97,-19.99,10.84
23.69,-25.84,-36.70,-25.86,-36.71,6.00,6.70,4.66,-19.84,-19.86,10.85
23.92,-25.72,-36.57,-25.68,-36.53,6.00,6.70,4.79,-19.72,-19.68,10.85
24.16,-25.45,-36.31,-25.43,-36.30,6.00,6.69,4.92,-19.45,-19.43,10.86
24.40,-25.11,-35.98,-25.11,-35.98,6.00,6.69,5.05,-19.11,-19.11,10.87
24.65,-24.78,-35.64,-24.76,-35.63,6.00,6.69,5.18,-18.78,-18.76,10.86
24.89,-24.44,-35.30,-24.48,-35.34,6.00,6.69,5.32,-18.44,-18.48,10.86
25.14,-24.27,-35.13,-24.30,-35.16,6.00,6.69,5.46,-18.27,-18.30,10.86
25.39,-24.22,-35.09,-24.21,-35.07,6.00,6.68,5.60,-18.22,-18.21,10.87
25.65,-24.18,-35.05,-24.17,-35.04,6.00,6.68,5.74,-18.18,-18.17,10.87
25.91,-24.13,-34.99,-24.11,-34.97,6.00,6.68,5.88,-18.13,-18.11,10.86
26.16,-23.99,-34.84,-23.98,-34.84,6.00,6.68,6.02,-17.99,-17.98,10.85
26.43,-23.81,-34.67,-23.83,-34.68,6.00,6.68,6.16,-17.81,-17.83,10.85
26.69,-23.62,-34.47,-23.63,-34.49,6.00,6.67,6.30,-17.62,-17.63,10.85
26.96,-23.44,-34.30,-23.42,-34.28,6.00,6.67,6.44,-17.44,-17.42,10.86
27.23,-23.17,-34.03,-23.17,-34.03,6.00,6.67,6.58,-17.17,-17.17,10.86
27.50,-22.89,-33.75,-22.89,-33.75,6.00,6.67,6.71,-16.89,-16.89,10.86
27.77,-22.61,-33.45,-22.61,-33.46,6.00,6.66,6.84,-16.61,-16.61,10.85
28.05,-22.34,-33.18,-22.36,-33.20,6.00,6.66,6.97,-16.34,-16.36,10.84
28.33,-22.15,-32.98,-22.15,-32.99,6.00,6.66,7.09,-16.15,-16.15,10.83
28.62,-21.96,-32.79,-21.96,-32.79,6.00,6.65,7.20,-15.96,-15.96,10.83
28.90,-21.77,-32.61,-21.76,-32.59,6.00,6.65,7.31,-15.77,-15.76,10.84
29.19,-21.54,-32.37,-21.54,-32.37,6.00,6.65,7.41,-15.54,-15.54,10.83
29.48,-21.29,-32.13,-21.30,-32.14,6.00,6.64,7.50,-15.29,-15.30,10.85
29.78,-21.04,-31.88,-21.04,-31.88,6.00,6.64,7.59,-15.04,-15.04,10.84
30.08,-20.77,-31.62,-20.76,-31.60,6.00,6.64,7.66,-14.77,-14.76,10.84
30.38,-20.45,-31.29,-20.45,-31.28,6.00,6.63,7.73,-14.45,-14.45,10.83
30.68,-20.13,-30.96,-20.13,-30.96,6.00,6.63,7.78,-14.13,-14.13,10.83
30.99,-19.81,-30.64,-19.85,-30.68,6.00,6.63,7.83,-13.81,-13.85,10.83
31.30,-19.62,-30.45,-19.60,-30.43,6.00,6.62,7.86,-13.62,-13.60,10.82
31.61,-19.43,-30.25,-19.40,-30.23,6.00,6.62,7.88,-13.43,-13.40,10.82
31.93,-19.23,-30.05,-19.28,-30.10,6.00,6.62,7.89,-13.23,-13.28,10.82
32.24,-19.20,-30.01,-19.23,-30.05,6.00,6.61,7.89,-13.20,-13.23,10.81
32.57,-19.22,-30.04,-19.22,-30.03,6.00,6.61,7.88,-13.22,-13.22,10.82
32.89,-19.23,-30.04,-19.16,-29.97,6.00,6.60,7.86,-13.23,-13.16,10.81
33.22,-19.00,-29.80,-18.97,-29.77,6.00,6.60,7.83,-13.00,-12.97,10.80
33.55,-18.65,-29.44,-18.67,-29.47,6.00,6.59,7.79,-12.65,-12.67,10.80
33.89,-18.30,-29.09,-18.33,-29.12,6.00,6.59,7.74,-12.30,-12.33,10.78
34.23,-18.02,-28.81,-18.03,-28.81,6.00,6.58,7.69,-12.02,-12.03,10.79
34.57,-17.78,-28.56,-17.77,-28.55,6.00,6.58,7.63,-11.78,-11.77,10.78
34.92,-17.54,-28.32,-17.54,-28.32,6.00,6.57,7.57,-11.54,-11.54,10.78
35.27,-17.32,-28.09,-17.32,-28.09,6.00,6.57,7.51,-11.32,-11.32,10.77
35.62,-17.12,-27.89,-17.11,-27.88,6.00,6.56,7.44,-11.12,-11.11,10.77
35.97,-16.91,-27.67,-16.92,-27.69,6.00,6.56,7.36,-10.91,-10.92,10.76
36.33,-16.73,-27.50,-16.74,-27.50,6.00,6.55,7.29,-10.73,-10.74,10.77
36.70,-16.56,-27.32,-16.55,-27.31,6.00,6.54,7.21,-10.56,-10.55,10.76
37.06,-16.36,-27.11,-16.33,-27.09,6.00,6.54,7.14,-10.36,-10.33,10.75
37.43,-16.10,-26.87,-16.09,-26.85,6.00,6.53,7.06,-10.10,-10.09,10.77
37.81,-15.83,-26.60,-15.86,-26.62,6.00,6.52,6.99,-9.83,-9.86,10.76
38.19,-15.65,-26.41,-15.70,-26.47,6.00,6.52,6.92,-9.65,-9.70,10.76
38.57,-15.54,-26.31,-15.54,-26.31,6.00,6.51,6.84,-9.54,-9.54,10.77
38.95,-15.41,-26.18,-15.30,-26.07,6.00,6.50,6.78,-9.41,-9.30,10.77
39.34,-14.94,-25.71,-14.92,-25.69,6.00,6.50,6.71,-8.94,-8.92,10.77
39.74,-14.44,-25.20,-14.50,-25.26,6.00,6.49,6.65,-8.44,-8.50,10.76
40.14,-14.05,-24.82,-14.14,-24.90,6.00,6.48,6.59,-8.05,-8.14,10.76
40.54,-13.95,-24.71,-13.93,-24.68,6.00,6.47,6.53,-7.95,-7.93,10.76
40.94,-13.84,-24.59,-13.81,-24.57,6.00,6.46,6.48,-7.84,-7.81,10.75
41.35,-13.71,-24.46,-13.72,-24.47,6.00,6.45,6.44,-7.71,-7.72,10.75
41.76,-13.58,-24.32,-13.57,-24.31,6.00,6.45,6.39,-7.58,-7.57,10.74
42.18,-13.40,-24.14,-13.42,-24.15,6.00,6.44,6.36,-7.40,-7.42,10.74
42.60,-13.17,-23.90,-13.18,-23.92,6.00,6.43,6.32,-7.17,-7.18,10.73
43.03,-12.92,-23.64,-12.80,-23.52,6.00,6.42,6.29,-6.92,-6.80,10.72
43.46,-12.37,-23.08,-12.36,-23.06,6.00,6.41,6.27,-6.37,-6.36,10.71
43.90,-11.83,-22.51,-11.96,-22.65,6.00,6.40,6.25,-5.83,-5.96,10.69
44.33,-11.67,-22.34,-11.69,-22.36,6.00,6.38,6.23,-5.67,-5.69,10.67
44.78,-11.65,-22.30,-11.61,-22.26,6.00,6.37,6.22,-5.65,-5.61,10.65
45.23,-11.59,-22.23,-11.60,-22.23,6.00,6.36,6.22,-5.59,-5.60,10.64
45.68,-11.50,-22.12,-11.49,-22.11,6.00,6.35,6.22,-5.50,-5.49,10.62
46.13,-11.32,-21.92,-11.24,-21.85,6.00,6.34,6.22,-5.32,-5.24,10.60
46.60,-10.90,-21.51,-10.92,-21.52,6.00,6.33,6.23,-4.90,-4.92,10.60
47.06,-10.51,-21.09,-10.59,-21.18,6.00,6.31,6.24,-4.51,-4.59,10.59
47.53,-10.30,-20.87,-10.29,-20.87,6.00,6.30,6.26,-4.30,-4.29,10.58
48.01,-10.08,-20.66,-10.03,-20.60,6.00,6.29,6.28,-4.08,-4.03,10.58
48.49,-9.77,-20.33,-9.77,-20.33,6.00,6.27,6.31,-3.77,-3.77,10.55
48.97,-9.46,-19.99,-9.46,-20.00,6.00,6.26,6.33,-3.46,-3.46,10.53
49.46,-9.19,-19.70,-9.18,-19.69,6.00,6.24,6.37,-3.19,-3.18,10.51
49.96,-8.93,-19.42,-8.99,-19.49,6.00,6.23,6.40,-2.93,-2.99,10.49
50.46,-8.83,-19.32,-8.84,-19.32,6.00,6.21,6.44,-2.83,-2.84,10.49
50.96,-8.74,-19.21,-8.65,-19.12,6.00,6.20,6.48,-2.74,-2.65,10.48
51.47,-8.40,-18.85,-8.41,-18.86,6.00,6.18,6.52,-2.40,-2.41,10.45
51.99,-8.05,-18.49,-8.09,-18.53,6.00,6.16,6.57,-2.05,-2.09,10.44
52.51,-7.76,-18.20,-7.76,-18.19,6.00,6.15,6.61,-1.76,-1.76,10.43
53.03,-7.46,-17.89,-7.46,-17.89,6.00,6.13,6.66,-1.46,-1.46,10.43
53.56,-7.18,-17.60,-7.17,-17.58,6.00,6.11,6.71,-1.18,-1.17,10.42
54.10,-6.89,-17.29,-6.87,-17.27,6.00,6.09,6.75,-0.89,-0.87,10.40
54.64,-6.62,-17.01,-6.67,-17.06,6.00,6.08,6.80,-0.62,-0.67,10.38
55.18,-6.45,-16.83,-6.55,-16.92,6.00,6.06,6.84,-0.45,-0.55,10.38
55.74,-6.48,-16.84,-6.33,-16.69,6.00,6.04,6.88,-0.48,-0.33,10.36
56.29,-6.16,-16.51,-6.02,-16.37,6.00,6.02,6.91,-0.16,-0.02,10.35
56.86,-5.51,-15.85,-5.71,-16.04,6.00,6.00,6.95,0.49,0.29,10.34
57.42,-5.37,-15.68,-5.44,-15.76,6.00,5.98,6.97,0.63,0.56,10.31
58.00,-5.40,-15.70,-5.34,-15.63,6.00,5.96,7.00,0.60,0.66,10.30
58.58,-5.30,-15.59,-5.25,-15.53,6.00,5.94,7.01,0.70,0.75,10.29
59.16,-5.08,-15.34,-5.00,-15.26,6.00,5.92,7.02,0.92,1.00,10.27
59.76,-4.60,-14.85,-4.70,-14.94,6.00,5.90,7.02,1.40,1.30,10.25
60.35,-4.35,-14.55,-4.42,-14.63,6.00,5.88,7.01,1.65,1.58,10.20
60.96,-4.27,-14.44,-4.18,-14.35,6.00,5.86,6.99,1.73,1.82,10.17
61.57,-3.99,-14.12,-3.97,-14.09,6.00,5.84,6.97,2.01,2.03,10.13
62.18,-3.70,-13.78,-3.71,-13.80,6.00,5.82,6.93,2.30,2.29,10.08
62.80,-3.43,-13.47,-3.48,-13.52,6.00,5.80,6.89,2.57,2.52,10.04
63.43,-3.29,-13.28,-3.31,-13.31,6.00,5.78,6.83,2.71,2.69,9.99
64.07,-3.20,-13.15,-3.16,-13.11,6.00,5.76,6.77,2.80,2.84,9.95
64.71,-2.99,-12.89,-2.94,-12.85,6.00,5.74,6.69,3.01,3.06,9.90
65.35,-2.67,-12.53,-2.64,-12.51,6.00,5.72,6.61,3.33,3.36,9.86
66.01,-2.26,-12.08,-2.33,-12.14,6.00,5.70,6.52,3.74,3.67,9.82
66.67,-2.07,-11.84,-2.10,-11.87,6.00,5.69,6.42,3.93,3.90,9.77
67.33,-1.95,-11.67,-1.97,-11.69,6.00,5.67,6.31,4.05,4.03,9.72
68.01,-1.92,-11.60,-1.87,-11.55,6.00,5.66,6.20,4.08,4.13,9.68
68.69,-1.74,-11.37,-1.71,-11.34,6.00,5.65,6.08,4.26,4.29,9.63
69.37,-1.50,-11.07,-1.50,-11.07,6.00,5.64,5.95,4.50,4.50,9.57
70.07,-1.21,-10.73,-1.26,-10.78,6.00,5.64,5.82,4.79,4.74,9.52
70.77,-1.05,-10.53,-1.04,-10.51,6.00,5.64,5.68,4.95,4.96,9.48
71.48,-0.87,-10.29,-0.87,-10.29,6.00,5.64,5.54,5.13,5.13,9.42
72.19,-0.70,-10.06,-0.71,-10.07,6.00,5.64,5.40,5.30,5.29,9.36
72.91,-0.57,-9.87,-0.52,-9.82,6.00,5.65,5.25,5.43,5.48,9.30
73.64,-0.30,-9.54,-0.32,-9.56,6.00,5.67,5.10,5.70,5.68,9.25
74.38,-0.10,-9.29,-0.13,-9.32,6.00,5.69,4.95,5.90,5.87,9.19
75.12,0.02,-9.11,0.03,-9.10,6.00,5.71,4.80,6.02,6.03,9.13
75.87,0.13,-8.94,0.14,-8.94,6.00,5.74,4.65,6.13,6.14,9.07
76.63,0.23,-8.79,0.24,-8.78,6.00,5.78,4.50,6.23,6.24,9.02
77.40,0.33,-8.64,0.33,-8.64,6.00,5.82,4.35,6.33,6.33,8.97
78.17,0.41,-8.50,0.40,-8.51,6.00,5.87,4.20,6.41,6.40,8.91
78.95,0.45,-8.42,0.46,-8.41,6.00,5.91,4.05,6.45,6.46,8.87
79.74,0.49,-8.33,0.48,-8.34,6.00,5.96,3.90,6.49,6.48,8.82
80.54,0.51,-8.27,0.46,-8.31,6.00,6.01,3.75,6.51,6.46,8.78
81.35,0.51,-8.21,0.57,-8.16,6.00,6.05,3.60,6.51,6.57,8.72
82.16,0.62,-8.06,0.76,-7.92,6.00,6.07,3.46,6.62,6.76,8.68
82.98,1.11,-7.53,0.94,-7.69,6.00,6.09,3.31,7.11,6.94,8.64
83.81,1.14,-7.44,1.07,-7.52,6.00,6.07,3.17,7.14,7.07,8.58
84.65,1.04,-7.50,1.12,-7.42,6.01,6.04,3.03,7.05,7.12,8.53
85.50,1.06,-7.44,1.10,-7.39,6.03,5.97,2.89,7.09,7.13,8.50
86.35,1.21,-7.24,1.19,-7.25,6.05,5.88,2.75,7.26,7.24,8.45
87.22,1.39,-7.01,1.37,-7.03,6.05,5.75,2.62,7.44,7.42,8.40
88.09,1.55,-6.80,1.56,-6.78,6.03,5.61,2.49,7.58,7.59,8.35
88.97,1.79,-6.51,1.77,-6.53,5.98,5.43,2.35,7.77,7.75,8.30
89.86,1.98,-6.26,2.02,-6.23,5.89,5.25,2.22,7.86,7.91,8.24
90.76,2.28,-5.91,2.29,-5.91,5.74,5.05,2.10,8.02,8.03,8.19
91.66,2.58,-5.57,2.51,-5.63,5.56,4.85,1.97,8.14,8.07,8.15
92.58,2.72,-5.37,2.73,-5.37,5.37,4.65,1.85,8.09,8.09,8.09
93.51,2.87,-5.17,2.93,-5.11,5.16,4.44,1.72,8.03,8.09,8.04
94.44,3.15,-4.85,3.16,-4.84,4.95,4.24,1.60,8.10,8.11,8.00
95.39,3.42,-4.54,3.38,-4.57,4.73,4.04,1.48,8.14,8.11,7.95
96.34,3.57,-4.33,3.53,-4.37,4.50,3.85,1.36,8.07,8.03,7.90
97.30,3.59,-4.26,3.57,-4.28,4.27,3.66,1.25,7.86,7.84,7.85
98.28,3.59,-4.22,3.60,-4.21,4.04,3.48,1.13,7.63,7.64,7.81
99.26,3.68,-4.08,3.79,-3.97,3.81,3.31,1.02,7.49,7.61,7.76
100.25,4.04,-3.68,4.08,-3.63,3.57,3.14,0.91,7.61,7.66,7.72
101.25,4.59,-3.08,4.40,-3.27,3.32,2.97,0.80,7.91,7.72,7.67
102.27,4.64,-2.99,4.67,-2.95,3.04,2.81,0.69,7.68,7.71,7.63
103.29,4.82,-2.75,4.90,-2.68,2.74,2.65,0.58,7.56,7.64,7.57
104.32,5.07,-2.46,5.09,-2.44,2.43,2.50,0.48,7.50,7.52,7.53
105.37,5.41,-2.08,5.32,-2.16,2.13,2.35,0.37,7.54,7.45,7.49
106.42,5.55,-1.89,5.54,-1.90,1.86,2.20,0.27,7.41,7.40,7.44
107.48,5.68,-1.70,5.78,-1.61,1.62,2.05,0.17,7.30,7.40,7.38
108.56,6.00,-1.33,6.01,-1.32,1.38,1.91,0.08,7.38,7.40,7.33
109.64,6.32,-0.96,6.21,-1.07,1.14,1.76,-0.02,7.46,7.35,7.28
110.74,6.39,-0.84,6.35,-0.88,0.90,1.62,-0.11,7.29,7.26,7.23
111.85,6.35,-0.84,6.46,-0.72,0.66,1.48,-0.20,7.01,7.13,7.19
112.97,6.60,-0.53,6.61,-0.53,0.43,1.34,-0.29,7.03,7.03,7.12
114.10,6.87,-0.21,6.84,-0.24,0.18,1.20,-0.37,7.05,7.02,7.08
115.24,7.13,0.09,7.12,0.09,-0.08,1.07,-0.46,7.05,7.04,7.03
116.39,7.35,0.37,7.34,0.35,-0.34,0.93,-0.54,7.01,7.00,6.98
117.55,7.54,0.59,7.52,0.57,-0.60,0.79,-0.61,6.94,6.92,6.95
118.73,7.70,0.80,7.75,0.84,-0.85,0.65,-0.69,6.85,6.90,6.90
119.92,7.94,1.06,8.00,1.13,-1.08,0.51,-0.76,6.86,6.92,6.88
121.12,8.33,1.49,8.22,1.38,-1.29,0.38,-0.82,7.04,6.94,6.84
122.33,8.40,1.60,8.35,1.54,-1.47,0.24,-0.89,6.93,6.88,6.80
123.55,8.38,1.60,8.43,1.66,-1.64,0.10,-0.95,6.74,6.80,6.78
124.79,8.41,1.66,8.49,1.74,-1.80,-0.04,-1.01,6.60,6.69,6.75
126.03,8.67,1.95,8.59,1.87,-1.97,-0.18,-1.06,6.70,6.63,6.72
127.29,8.75,2.05,8.71,2.02,-2.11,-0.32,-1.11,6.64,6.60,6.70
128.57,8.83,2.17,8.92,2.25,-2.25,-0.46,-1.16,6.58,6.67,6.66
129.85,9.00,2.37,9.07,2.44,-2.39,-0.60,-1.21,6.61,6.68,6.63
131.15,9.39,2.79,9.17,2.57,-2.54,-0.74,-1.25,6.85,6.63,6.60
132.46,9.21,2.63,9.29,2.71,-2.68,-0.88,-1.29,6.53,6.61,6.58
133.79,9.20,2.65,9.34,2.79,-2.79,-1.02,-1.33,6.41,6.55,6.55
135.12,9.48,2.96,9.34,2.81,-2.87,-1.16,-1.37,6.61,6.47,6.51
136.48,9.40,2.90,9.41,2.91,-2.89,-1.31,-1.40,6.51,6.51,6.50
137.84,9.37,2.90,9.47,3.00,-2.87,-1.45,-1.43,6.50,6.60,6.47
139.22,9.43,3.00,9.39,2.95,-2.83,-1.59,-1.47,6.60,6.56,6.43
140.61,9.41,3.01,9.28,2.87,-2.79,-1.73,-1.50,6.62,6.49,6.40
142.02,9.03,2.64,9.12,2.74,-2.75,-1.87,-1.52,6.28,6.37,6.39
143.44,8.94,2.58,8.99,2.64,-2.75,-2.01,-1.55,6.19,6.24,6.36
144.87,8.94,2.62,8.90,2.58,-2.79,-2.15,-1.58,6.15,6.11,6.32
146.32,9.04,2.76,9.00,2.72,-2.88,-2.29,-1.61,6.16,6.13,6.28
147.78,9.06,2.81,9.21,2.97,-3.03,-2.43,-1.63,6.03,6.18,6.25
149.26,9.49,3.29,9.39,3.20,-3.24,-2.57,-1.66,6.25,6.15,6.20
150.75,9.71,3.58,9.59,3.46,-3.47,-2.70,-1.69,6.24,6.12,6.13
152.26,9.64,3.57,9.82,3.75,-3.69,-2.84,-1.72,5.95,6.12,6.07
153.78,9.98,3.98,9.98,3.98,-3.89,-2.97,-1.74,6.09,6.09,6.00
155.32,10.19,4.26,10.12,4.20,-4.03,-3.09,-1.77,6.16,6.09,5.93
156.88,10.20,4.35,10.16,4.31,-4.13,-3.22,-1.80,6.07,6.03,5.85
158.44,10.02,4.25,9.99,4.22,-4.16,-3.34,-1.83,5.86,5.83,5.77
160.03,9.70,4.01,9.75,4.07,-4.14,-3.45,-1.86,5.56,5.61,5.69
161.63,9.53,3.92,9.59,3.97,-4.07,-3.56,-1.90,5.46,5.52,5.61
163.24,9.49,3.94,9.51,3.95,-3.97,-3.67,-1.93,5.52,5.53,5.55
164.88,9.52,4.02,9.44,3.94,-3.89,-3.77,-1.97,5.63,5.55,5.50
166.53,9.37,3.92,9.33,3.87,-3.83,-3.87,-2.01,5.54,5.49,5.45
168.19,9.12,3.70,9.16,3.75,-3.82,-3.95,-2.05,5.30,5.34,5.42
169.87,9.04,3.66,9.04,3.66,-3.84,-4.03,-2.09,5.20,5.19,5.38
171.57,9.03,3.67,9.13,3.77,-3.89,-4.10,-2.13,5.14,5.24,5.36
173.29,9.30,3.95,9.32,3.98,-3.95,-4.17,-2.18,5.35,5.37,5.35
175.02,9.66,4.32,9.47,4.14,-4.03,-4.22,-2.23,5.63,5.44,5.34
176.77,9.54,4.21,9.56,4.23,-4.13,-4.28,-2.27,5.41,5.44,5.33
178.54,9.47,4.15,9.56,4.23,-4.22,-4.31,-2.33,5.25,5.34,5.32
180.32,9.57,4.24,9.56,4.23,-4.30,-4.35,-2.38,5.27,5.26,5.33
182.13,9.65,4.31,9.68,4.35,-4.34,-4.36,-2.43,5.31,5.33,5.34
183.95,9.78,4.46,9.75,4.43,-4.36,-4.38,-2.49,5.42,5.40,5.32
185.79,9.82,4.50,9.74,4.42,-4.36,-4.38,-2.55,5.46,5.38,5.32
187.65,9.62,4.32,9.66,4.36,-4.36,-4.38,-2.61,5.26,5.31,5.30
189.52,9.53,4.24,9.56,4.27,-4.35,-4.36,-2.67,5.18,5.21,5.29
191.42,9.50,4.23,9.51,4.24,-4.33,-4.34,-2.74,5.17,5.18,5.27
193.33,9.52,4.27,9.55,4.29,-4.29,-4.31,-2.80,5.23,5.26,5.25
195.27,9.59,4.35,9.56,4.33,-4.24,-4.28,-2.87,5.35,5.33,5.24
197.22,9.55,4.33,9.48,4.26,-4.18,-4.23,-2.94,5.37,5.30,5.22
199.19,9.34,4.15,9.34,4.14,-4.13,-4.18,-3.01,5.21,5.20,5.19
201.18,9.11,3.94,9.24,4.06,-4.10,-4.13,-3.08,5.01,5.14,5.17
203.19,9.16,4.00,9.15,3.99,-4.06,-4.07,-3.15,5.10,5.09,5.16
205.23,9.23,4.10,9.08,3.94,-4.01,-4.00,-3.22,5.22,5.07,5.13
207.28,8.98,3.85,9.07,3.95,-3.96,-3.93,-3.29,5.02,5.10,5.13
209.35,8.94,3.84,9.03,3.93,-3.91,-3.85,-3.36,5.03,5.12,5.10
211.44,9.09,4.02,9.01,3.93,-3.88,-3.77,-3.43,5.21,5.13,5.07
213.56,9.01,3.95,8.96,3.90,-3.85,-3.69,-3.49,5.16,5.11,5.06
215.69,8.88,3.83,8.87,3.82,-3.81,-3.61,-3.56,5.07,5.06,5.05
217.85,8.65,3.61,8.80,3.76,-3.77,-3.52,-3.62,4.88,5.02,5.04
220.03,8.78,3.75,8.73,3.70,-3.73,-3.43,-3.69,5.05,5.00,5.03
222.23,8.80,3.80,8.65,3.64,-3.68,-3.35,-3.74,5.12,4.97,5.00
224.45,8.51,3.50,8.65,3.64,-3.63,-3.26,-3.80,4.88,5.02,5.01
226.70,8.52,3.51,8.59,3.58,-3.57,-3.16,-3.85,4.95,5.01,5.01
228.96,8.69,3.67,8.55,3.53,-3.52,-3.07,-3.90,5.17,5.03,5.02
231.25,8.52,3.49,8.54,3.51,-3.47,-2.98,-3.94,5.05,5.07,5.03
233.57,8.44,3.40,8.47,3.43,-3.42,-2.89,-3.97,5.02,5.06,5.04
235.90,8.38,3.33,8.38,3.33,-3.36,-2.80,-4.00,5.02,5.03,5.05
238.26,8.36,3.30,8.35,3.28,-3.29,-2.71,-4.02,5.07,5.05,5.06
240.64,8.32,3.24,8.32,3.24,-3.23,-2.62,-4.03,5.09,5.09,5.08
243.05,8.28,3.17,8.28,3.17,-3.18,-2.53,-4.04,5.10,5.11,5.11
245.48,8.26,3.12,8.24,3.11,-3.12,-2.44,-4.04,5.14,5.12,5.14
247.93,8.20,3.03,8.22,3.05,-3.07,-2.35,-4.03,5.13,5.14,5.17
250.41,8.19,3.01,8.21,3.02,-3.03,-2.27,-4.02,5.16,5.18,5.18
252.92,8.21,3.00,8.20,2.99,-2.98,-2.18,-3.99,5.23,5.22,5.21
255.45,8.20,2.97,8.19,2.95,-2.94,-2.10,-3.96,5.26,5.25,5.23
258.00,8.15,2.89,8.14,2.89,-2.89,-2.01,-3.92,5.26,5.26,5.26
260.58,8.08,2.81,8.10,2.82,-2.83,-1.93,-3.87,5.25,5.27,5.27
263.19,8.04,2.74,8.05,2.75,-2.76,-1.85,-3.82,5.28,5.29,5.30
265.82,8.03,2.71,8.01,2.68,-2.68,-1.77,-3.75,5.35,5.33,5.32
268.48,7.95,2.61,7.97,2.62,-2.59,-1.69,-3.68,5.36,5.38,5.34
271.16,7.89,2.51,7.89,2.52,-2.48,-1.62,-3.61,5.41,5.41,5.38
273.87,7.82,2.43,7.77,2.37,-2.37,-1.54,-3.53,5.45,5.40,5.39
276.61,7.64,2.22,7.66,2.24,-2.26,-1.47,-3.44,5.38,5.40,5.42
279.38,7.51,2.06,7.59,2.14,-2.16,-1.39,-3.34,5.35,5.43,5.45
282.17,7.56,2.09,7.49,2.01,-2.05,-1.32,-3.25,5.51,5.44,5.47
284.99,7.47,1.96,7.42,1.91,-1.95,-1.25,-3.15,5.52,5.47,5.51
287.84,7.26,1.74,7.34,1.81,-1.84,-1.18,-3.04,5.42,5.50,5.52
290.72,7.28,1.72,7.31,1.75,-1.74,-1.11,-2.93,5.54,5.57,5.56
293.63,7.27,1.68,7.26,1.67,-1.63,-1.05,-2.82,5.64,5.63,5.59
296.57,7.31,1.69,7.19,1.58,-1.51,-0.98,-2.71,5.80,5.69,5.62
299.53,6.96,1.31,7.05,1.41,-1.38,-0.91,-2.59,5.58,5.67,5.65
302.53,6.89,1.23,6.90,1.23,-1.25,-0.85,-2.48,5.64,5.65,5.66
305.55,6.75,1.04,6.75,1.05,-1.10,-0.79,-2.36,5.65,5.65,5.71
308.61,6.68,0.95,6.65,0.92,-0.94,-0.72,-2.24,5.74,5.71,5.73
311.69,6.51,0.76,6.51,0.75,-0.76,-0.66,-2.12,5.75,5.75,5.75
314.81,6.34,0.56,6.38,0.61,-0.58,-0.60,-2.01,5.76,5.80,5.78
317.96,6.25,0.45,6.24,0.45,-0.40,-0.54,-1.89,5.85,5.84,5.80
321.14,6.09,0.29,6.06,0.25,-0.22,-0.48,-1.77,5.87,5.84,5.80
324.35,5.88,0.06,5.83,0.01,-0.03,-0.42,-1.65,5.85,5.80,5.82
327.59,5.57,-0.27,5.66,-0.17,0.15,-0.36,-1.53,5.72,5.82,5.84
330.87,5.44,-0.40,5.53,-0.32,0.33,-0.31,-1.41,5.77,5.86,5.84
334.18,5.55,-0.31,5.36,-0.50,0.50,-0.25,-1.29,6.05,5.86,5.86
337.52,5.21,-0.66,5.20,-0.67,0.66,-0.19,-1.17,5.87,5.86,5.87
340.90,4.92,-0.97,5.09,-0.80,0.78,-0.14,-1.05,5.70,5.86,5.89
344.30,4.97,-0.92,4.99,-0.90,0.86,-0.08,-0.94,5.83,5.85,5.89
347.75,5.11,-0.78,4.94,-0.95,0.91,-0.03,-0.82,6.02,5.86,5.89
351.23,4.91,-0.99,4.90,-1.00,0.96,0.03,-0.71,5.87,5.86,5.90
354.74,4.72,-1.18,4.84,-1.05,1.01,0.08,-0.59,5.73,5.85,5.90
358.28,4.86,-1.04,4.93,-0.97,1.03,0.14,-0.48,5.90,5.97,5.90
361.87,5.05,-0.85,5.01,-0.89,1.03,0.19,-0.36,6.08,6.04,5.90
365.49,5.23,-0.68,4.92,-0.98,1.02,0.24,-0.25,6.25,5.94,5.91
369.14,4.64,-1.26,4.80,-1.10,1.02,0.30,-0.14,5.66,5.82,5.90
372.83,4.45,-1.45,4.74,-1.16,1.04,0.35,-0.02,5.49,5.78,5.90
376.56,4.96,-0.93,4.77,-1.13,1.06,0.40,0.09,6.02,5.83,5.89
380.33,5.01,-0.89,4.91,-0.99,1.10,0.45,0.20,6.11,6.01,5.90
384.13,4.88,-1.02,4.94,-0.95,1.14,0.51,0.31,6.01,6.08,5.90
387.97,4.75,-1.14,4.75,-1.14,1.16,0.56,0.42,5.91,5.92,5.89
391.85,4.67,-1.21,4.62,-1.27,1.18,0.61,0.53,5.85,5.79,5.88
395.77,4.44,-1.45,4.55,-1.33,1.20,0.66,0.64,5.64,5.75,5.89
399.73,4.58,-1.30,4.57,-1.31,1.24,0.72,0.75,5.82,5.81,5.88
403.72,4.62,-1.25,4.60,-1.28,1.30,0.77,0.85,5.92,5.90,5.87
407.76,4.65,-1.21,4.60,-1.26,1.37,0.82,0.96,6.02,5.97,5.86
411.84,4.50,-1.36,4.50,-1.36,1.42,0.87,1.06,5.92,5.92,5.86
415.96,4.34,-1.52,4.38,-1.48,1.48,0.93,1.17,5.82,5.85,5.86
420.12,4.24,-1.62,4.26,-1.60,1.56,0.98,1.27,5.80,5.82,5.86
424.32,4.20,-1.66,4.18,-1.68,1.68,1.03,1.37,5.88,5.86,5.86
428.56,4.11,-1.76,4.09,-1.77,1.82,1.09,1.47,5.93,5.92,5.87
432.85,3.98,-1.90,4.00,-1.88,1.97,1.14,1.57,5.95,5.97,5.88
437.18,3.86,-2.02,3.86,-2.04,2.10,1.19,1.67,5.96,5.96,5.88
441.55,3.75,-2.17,3.68,-2.24,2.19,1.25,1.77,5.94,5.87,5.92
445.96,3.53,-2.42,3.57,-2.38,2.25,1.30,1.86,5.78,5.82,5.95
450.42,3.45,-2.53,3.57,-2.42,2.27,1.35,1.95,5.72,5.84,5.98
454.93,3.72,-2.31,3.64,-2.39,2.27,1.41,2.04,5.99,5.90,6.03
459.48,3.86,-2.22,3.81,-2.27,2.24,1.46,2.13,6.10,6.06,6.08
464.07,3.92,-2.21,4.03,-2.10,2.20,1.52,2.21,6.12,6.23,6.13
