frequency,raw,error,smoothed,error_smoothed,equalization,parametric_eq,fixed_band_eq,equalized_raw,equalized_smoothed,target
20.00,-13.66,-19.46,-13.66,-19.46,6.00,5.79,2.74,-7.66,-7.66,5.80
20.20,-13.54,-19.38,-13.54,-19.37,6.00,5.79,2.82,-7.54,-7.54,5.84
20.40,-13.41,-19.28,-13.41,-19.28,6.00,5.79,2.90,-7.41,-7.41,5.87
20.61,-13.29,-19.19,-13.29,-19.19,6.00,5.79,2.98,-7.29,-7.29,5.90
20.81,-13.16,-19.10,-13.16,-19.10,6.00,5.79,3.07,-7.16,-7.16,5.94
21.02,-13.04,-19.02,-13.04,-19.01,6.00,5.79,3.16,-7.04,-7.04,5.98
21.23,-12.92,-18.91,-12.92,-18.91,6.00,5.79,3.24,-6.92,-6.92,5.98
21.44,-12.81,-18.81,-12.81,-18.82,6.00,5.79,3.34,-6.81,-6.81,6.00
21.66,-12.69,-18.72,-12.70,-18.72,6.00,5.79,3.43,-6.69,-6.70,6.02
21.87,-12.58,-18.61,-12.57,-18.61,6.00,5.79,3.53,-6.58,-6.57,6.03
22.09,-12.44,-18.49,-12.44,-18.48,6.00,5.79,3.63,-6.44,-6.44,6.05
22.31,-12.28,-18.33,-12.28,-18.34,6.00,5.79,3.73,-6.28,-6.28,6.05
22.54,-12.12,-18.19,-12.11,-18.17,6.00,5.79,3.84,-6.12,-6.11,6.06
22.76,-11.96,-18.03,-11.96,-18.02,6.00,5.79,3.95,-5.96,-5.96,6.07
22.99,-11.80,-17.87,-11.83,-17.91,6.00,5.79,4.06,-5.80,-5.83,6.07
23.22,-11.75,-17.83,-11.75,-17.83,6.00,5.79,4.17,-5.75,-5.75,6.08
23.45,-11.71,-17.80,-11.71,-17.80,6.00,5.79,4.29,-5.71,-5.71,6.09
23.69,-11.67,-17.77,-11.67,-17.77,6.00,5.79,4.41,-5.67,-5.67,6.10
23.92,-11.62,-17.73,-11.60,-17.71,6.00,5.79,4.53,-5.62,-5.60,6.11
24.16,-11.50,-17.62,-11.49,-17.61,6.00,5.79,4.65,-5.50,-5.49,6.12
24.40,-11.34,-17.46,-11.35,-17.47,6.00,5.79,4.78,-5.34,-5.35,6.12
24.65,-11.19,-17.31,-11.19,-17.30,6.00,5.79,4.91,-5.19,-5.19,6.11
24.89,-11.03,-17.14,-11.04,-17.15,6.00,5.78,5.03,-5.03,-5.04,6.11
25.14,-10.91,-17.02,-10.92,-17.03,6.00,5.78,5.17,-4.91,-4.92,6.11
25.39,-10.82,-16.93,-10.82,-16.93,6.00,5.78,5.30,-4.82,-4.82,6.11
25.65,-10.74,-16.85,-10.74,-16.85,6.00,5.78,5.43,-4.74,-4.74,6.11
25.91,-10.65,-16.75,-10.65,-16.75,6.00,5.78,5.56,-4.65,-4.65,6.10
26.16,-10.55,-16.66,-10.55,-16.65,6.00,5.78,5.70,-4.55,-4.55,6.11
26.43,-10.43,-16.54,-10.44,-16.54,6.00,5.78,5.83,-4.43,-4.44,6.11
26.69,-10.32,-16.43,-10.32,-16.43,6.00,5.78,5.96,-4.32,-4.32,6.11
26.96,-10.21,-16.32,-10.21,-16.32,6.00,5.78,6.09,-4.21,-4.21,6.10
27.23,-10.10,-16.21,-10.10,-16.21,6.00,5.78,6.22,-4.10,-4.10,6.10
27.50,-9.99,-16.09,-10.00,-16.10,6.00,5.78,6.35,-3.99,-4.00,6.10
27.77,-9.88,-15.97,-9.88,-15.97,6.00,5.78,6.47,-3.88,-3.88,6.09
28.05,-9.76,-15.85,-9.75,-15.84,6.00,5.78,6.59,-3.76,-3.75,6.09
28.33,-9.60,-15.68,-9.61,-15.69,6.00,5.78,6.70,-3.60,-3.61,6.08
28.62,-9.44,-15.53,-9.45,-15.53,6.00,5.78,6.81,-3.44,-3.45,6.09
28.90,-9.28,-15.37,-9.28,-15.36,6.00,5.78,6.91,-3.28,-3.28,6.08
29.19,-9.11,-15.18,-9.11,-15.19,6.00,5.77,7.00,-3.11,-3.11,6.07
29.48,-8.93,-15.01,-8.92,-15.00,6.00,5.77,7.08,-2.93,-2.92,6.08
29.78,-8.76,-14.84,-8.77,-14.85,6.00,5.77,7.16,-2.76,-2.77,6.08
30.08,-8.62,-14.70,-8.65,-14.72,6.00,5.77,7.23,-2.62,-2.65,6.08
30.38,-8.58,-14.65,-8.58,-14.65,6.00,5.77,7.29,-2.58,-2.58,6.07
30.68,-8.53,-14.60,-8.53,-14.59,6.00,5.77,7.33,-2.53,-2.53,6.06
30.99,-8.49,-14.54,-8.45,-14.51,6.00,5.77,7.37,-2.49,-2.45,6.05
31.30,-8.31,-14.36,-8.31,-14.36,6.00,5.77,7.39,-2.31,-2.31,6.05
31.61,-8.12,-14.17,-8.13,-14.17,6.00,5.77,7.41,-2.12,-2.13,6.05
31.93,-7.92,-13.96,-7.94,-13.98,6.00,5.77,7.41,-1.92,-1.94,6.03
32.24,-7.79,-13.81,-7.79,-13.82,6.00,5.77,7.41,-1.79,-1.79,6.02
32.57,-7.68,-13.70,-7.67,-13.69,6.00,5.77,7.39,-1.68,-1.67,6.02
32.89,-7.57,-13.59,-7.57,-13.59,6.00,5.77,7.37,-1.57,-1.57,6.02
33.22,-7.47,-13.49,-7.48,-13.49,6.00,5.77,7.33,-1.47,-1.48,6.01
33.55,-7.39,-13.40,-7.39,-13.40,6.00,5.76,7.29,-1.39,-1.39,6.01
33.89,-7.31,-13.32,-7.30,-13.31,6.00,5.76,7.24,-1.31,-1.30,6.01
34.23,-7.19,-13.20,-7.19,-13.19,6.00,5.76,7.19,-1.19,-1.19,6.01
34.57,-7.06,-13.05,-7.06,-13.06,6.00,5.76,7.12,-1.06,-1.06,5.99
34.92,-6.92,-12.91,-6.93,-12.92,6.00,5.76,7.06,-0.92,-0.93,5.99
35.27,-6.81,-12.80,-6.81,-12.80,6.00,5.76,6.98,-0.81,-0.81,5.99
35.62,-6.71,-12.68,-6.71,-12.68,6.00,5.76,6.91,-0.71,-0.71,5.97
35.97,-6.61,-12.58,-6.61,-12.58,6.00,5.76,6.83,-0.61,-0.61,5.97
36.33,-6.51,-12.48,-6.51,-12.48,6.00,5.76,6.75,-0.51,-0.51,5.97
36.70,-6.42,-12.38,-6.42,-12.37,6.00,5.76,6.67,-0.42,-0.42,5.96
37.06,-6.32,-12.27,-6.33,-12.28,6.00,5.76,6.59,-0.32,-0.33,5.95
37.43,-6.23,-12.17,-6.24,-12.18,6.00,5.76,6.51,-0.23,-0.24,5.94
37.81,-6.14,-12.08,-6.13,-12.06,6.00,5.76,6.43,-0.14,-0.13,5.94
38.19,-6.01,-11.94,-6.00,-11.93,6.00,5.77,6.35,-0.01,-0.00,5.92
38.57,-5.86,-11.78,-5.86,-11.78,6.00,5.77,6.27,0.14,0.14,5.92
38.95,-5.71,-11.62,-5.73,-11.64,6.00,5.77,6.19,0.29,0.27,5.91
39.34,-5.60,-11.50,-5.61,-11.51,6.00,5.77,6.12,0.40,0.39,5.90
39.74,-5.50,-11.39,-5.49,-11.38,6.00,5.77,6.05,0.50,0.51,5.88
40.14,-5.37,-11.26,-5.35,-11.24,6.00,5.77,5.98,0.63,0.65,5.89
40.54,-5.20,-11.09,-5.20,-11.09,6.00,5.78,5.92,0.80,0.80,5.88
40.94,-5.03,-10.91,-5.06,-10.94,6.00,5.78,5.85,0.97,0.94,5.88
41.35,-4.95,-10.81,-4.95,-10.81,6.00,5.78,5.80,1.05,1.05,5.86
41.76,-4.87,-10.72,-4.86,-10.71,6.00,5.79,5.74,1.13,1.14,5.85
42.18,-4.78,-10.61,-4.77,-10.60,6.00,5.79,5.69,1.22,1.23,5.83
42.60,-4.66,-10.46,-4.66,-10.47,6.00,5.80,5.65,1.34,1.34,5.80
43.03,-4.54,-10.33,-4.55,-10.33,6.00,5.81,5.60,1.46,1.45,5.78
43.46,-4.44,-10.20,-4.44,-10.19,6.00,5.81,5.57,1.56,1.56,5.76
43.90,-4.34,-10.05,-4.34,-10.06,6.00,5.82,5.53,1.66,1.66,5.71
44.33,-4.24,-9.92,-4.24,-9.92,6.00,5.83,5.50,1.76,1.76,5.68
44.78,-4.14,-9.79,-4.14,-9.79,6.00,5.84,5.48,1.86,1.86,5.64
45.23,-4.04,-9.66,-4.04,-9.65,6.00,5.85,5.46,1.96,1.96,5.62
45.68,-3.93,-9.52,-3.93,-9.52,6.00,5.86,5.44,2.07,2.07,5.59
46.13,-3.83,-9.40,-3.83,-9.40,6.00,5.88,5.43,2.17,2.17,5.57
46.60,-3.72,-9.28,-3.72,-9.28,6.00,5.89,5.42,2.28,2.28,5.56
47.06,-3.62,-9.16,-3.61,-9.16,6.00,5.91,5.41,2.38,2.39,5.54
47.53,-3.51,-9.04,-3.51,-9.05,6.00,5.93,5.41,2.49,2.49,5.53
48.01,-3.41,-8.94,-3.43,-8.96,6.00,5.95,5.41,2.59,2.57,5.53
48.49,-3.35,-8.87,-3.35,-8.87,6.00,5.97,5.42,2.65,2.65,5.52
48.97,-3.28,-8.79,-3.24,-8.75,6.00,5.99,5.43,2.72,2.76,5.51
49.46,-3.13,-8.63,-3.12,-8.62,6.00,6.02,5.44,2.87,2.88,5.50
49.96,-2.96,-8.46,-3.02,-8.52,6.00,6.04,5.46,3.04,2.98,5.49
50.46,-2.93,-8.43,-2.94,-8.44,6.00,6.07,5.47,3.07,3.06,5.50
50.96,-2.91,-8.42,-2.86,-8.36,6.00,6.09,5.49,3.09,3.14,5.51
51.47,-2.77,-8.27,-2.77,-8.27,6.00,6.12,5.52,3.23,3.23,5.50
51.99,-2.62,-8.11,-2.66,-8.15,6.00,6.15,5.54,3.38,3.34,5.48
52.51,-2.56,-8.03,-2.56,-8.03,6.00,6.17,5.56,3.44,3.44,5.47
53.03,-2.49,-7.94,-2.47,-7.91,6.00,6.19,5.59,3.51,3.53,5.44
53.56,-2.37,-7.78,-2.37,-7.78,6.00,6.21,5.62,3.63,3.63,5.41
54.10,-2.25,-7.62,-2.24,-7.61,6.00,6.23,5.64,3.75,3.76,5.36
54.64,-2.12,-7.44,-2.15,-7.47,6.00,6.24,5.67,3.88,3.85,5.32
55.18,-2.04,-7.31,-2.08,-7.35,6.00,6.24,5.69,3.96,3.92,5.27
55.74,-2.04,-7.26,-1.98,-7.20,6.00,6.23,5.72,3.96,4.02,5.22
56.29,-1.90,-7.07,-1.85,-7.02,6.00,6.22,5.74,4.10,4.15,5.17
56.86,-1.65,-6.76,-1.73,-6.84,6.00,6.20,5.76,4.35,4.27,5.11
57.42,-1.58,-6.62,-1.61,-6.65,6.01,6.16,5.77,4.43,4.40,5.04
58.00,-1.58,-6.56,-1.51,-6.50,6.02,6.12,5.78,4.44,4.51,4.98
58.58,-1.45,-6.37,-1.46,-6.38,6.02,6.07,5.79,4.57,4.57,4.92
59.16,-1.36,-6.23,-1.40,-6.26,6.01,6.01,5.80,4.65,4.61,4.87
59.76,-1.36,-6.17,-1.37,-6.17,5.99,5.94,5.79,4.62,4.62,4.81
60.35,-1.36,-6.10,-1.36,-6.10,5.94,5.87,5.79,4.58,4.59,4.74
60.96,-1.36,-6.05,-1.31,-5.99,5.89,5.79,5.77,4.53,4.58,4.69
61.57,-1.23,-5.84,-1.24,-5.86,5.84,5.71,5.76,4.60,4.59,4.61
62.18,-1.13,-5.68,-1.17,-5.73,5.78,5.62,5.73,4.64,4.60,4.55
62.80,-1.13,-5.64,-1.12,-5.62,5.71,5.54,5.70,4.58,4.59,4.50
63.43,-1.13,-5.58,-1.12,-5.57,5.64,5.45,5.67,4.51,4.52,4.45
64.07,-1.13,-5.53,-1.13,-5.53,5.56,5.36,5.62,4.43,4.43,4.40
64.71,-1.13,-5.49,-1.15,-5.50,5.47,5.27,5.58,4.34,4.32,4.36
65.35,-1.13,-5.44,-1.14,-5.45,5.38,5.18,5.52,4.25,4.24,4.31
66.01,-1.13,-5.40,-1.09,-5.36,5.29,5.09,5.46,4.16,4.20,4.27
66.67,-0.98,-5.21,-0.97,-5.21,5.19,5.00,5.40,4.20,4.21,4.23
67.33,-0.82,-5.02,-0.84,-5.04,5.07,4.91,5.33,4.25,4.23,4.20
68.01,-0.67,-4.84,-0.72,-4.89,4.93,4.82,5.25,4.26,4.21,4.17
68.69,-0.66,-4.80,-0.63,-4.77,4.79,4.73,5.17,4.13,4.15,4.14
69.37,-0.57,-4.68,-0.54,-4.64,4.64,4.65,5.09,4.07,4.11,4.11
70.07,-0.42,-4.50,-0.43,-4.51,4.50,4.56,5.01,4.08,4.08,4.08
70.77,-0.27,-4.33,-0.32,-4.37,4.37,4.48,4.92,4.10,4.06,4.06
71.48,-0.22,-4.25,-0.21,-4.24,4.25,4.39,4.83,4.03,4.04,4.03
72.19,-0.17,-4.17,-0.13,-4.13,4.13,4.31,4.74,3.96,4.00,4.00
72.91,-0.01,-3.98,-0.06,-4.03,4.02,4.23,4.64,4.01,3.96,3.97
73.64,0.01,-3.93,0.02,-3.92,3.92,4.14,4.55,3.93,3.94,3.94
74.38,0.07,-3.84,0.10,-3.80,3.82,4.06,4.45,3.89,3.92,3.91
75.12,0.19,-3.68,0.16,-3.72,3.72,3.98,4.36,3.91,3.88,3.87
75.87,0.23,-3.62,0.21,-3.63,3.64,3.90,4.26,3.87,3.85,3.84
76.63,0.24,-3.58,0.24,-3.57,3.56,3.82,4.17,3.80,3.80,3.81
77.40,0.26,-3.53,0.28,-3.50,3.49,3.74,4.07,3.74,3.77,3.79
78.17,0.33,-3.43,0.35,-3.42,3.42,3.66,3.98,3.75,3.77,3.76
78.95,0.46,-3.29,0.42,-3.33,3.35,3.58,3.89,3.81,3.77,3.75
79.74,0.47,-3.27,0.46,-3.27,3.29,3.50,3.80,3.76,3.75,3.74
80.54,0.47,-3.24,0.47,-3.25,3.23,3.42,3.71,3.70,3.70,3.71
81.35,0.47,-3.23,0.49,-3.21,3.18,3.34,3.62,3.64,3.67,3.70
82.16,0.52,-3.17,0.56,-3.13,3.12,3.27,3.53,3.64,3.68,3.69
82.98,0.70,-3.00,0.63,-3.06,3.06,3.19,3.45,3.76,3.69,3.69
83.81,0.70,-2.99,0.69,-3.00,3.00,3.12,3.37,3.70,3.69,3.69
84.65,0.70,-2.98,0.73,-2.95,2.95,3.05,3.29,3.65,3.68,3.68
85.50,0.76,-2.93,0.77,-2.91,2.90,2.98,3.21,3.66,3.67,3.69
86.35,0.86,-2.83,0.84,-2.85,2.86,2.92,3.13,3.71,3.70,3.69
87.22,0.92,-2.77,0.90,-2.79,2.82,2.85,3.06,3.74,3.72,3.69
88.09,0.92,-2.77,0.93,-2.77,2.80,2.79,2.99,3.72,3.73,3.69
88.97,0.92,-2.79,0.92,-2.78,2.80,2.73,2.92,3.71,3.72,3.71
89.86,0.92,-2.79,0.92,-2.79,2.79,2.67,2.85,3.71,3.71,3.71
90.76,0.92,-2.78,0.92,-2.78,2.78,2.62,2.79,3.70,3.70,3.70
91.66,0.92,-2.79,0.92,-2.78,2.77,2.56,2.72,3.69,3.69,3.70
92.58,0.92,-2.76,0.91,-2.78,2.75,2.51,2.66,3.66,3.66,3.68
93.51,0.92,-2.77,0.91,-2.77,2.71,2.46,2.60,3.63,3.63,3.69
94.44,0.93,-2.74,0.96,-2.71,2.67,2.42,2.55,3.60,3.63,3.67
95.39,1.02,-2.64,1.03,-2.62,2.62,2.38,2.49,3.64,3.65,3.66
96.34,1.15,-2.48,1.10,-2.53,2.57,2.34,2.44,3.71,3.67,3.62
97.30,1.15,-2.46,1.15,-2.46,2.51,2.30,2.39,3.66,3.66,3.61
98.28,1.15,-2.43,1.16,-2.42,2.46,2.26,2.34,3.61,3.62,3.58
99.26,1.15,-2.41,1.15,-2.41,2.41,2.22,2.29,3.56,3.56,3.56
100.25,1.15,-2.38,1.15,-2.38,2.37,2.19,2.25,3.52,3.52,3.53
101.25,1.15,-2.35,1.15,-2.35,2.33,2.16,2.20,3.48,3.48,3.50
102.27,1.15,-2.31,1.15,-2.31,2.30,2.13,2.16,3.45,3.45,3.46
103.29,1.15,-2.27,1.15,-2.27,2.27,2.10,2.12,3.42,3.42,3.41
104.32,1.15,-2.23,1.15,-2.23,2.23,2.08,2.08,3.37,3.37,3.38
105.37,1.15,-2.18,1.15,-2.18,2.17,2.05,2.05,3.32,3.32,3.33
106.42,1.15,-2.13,1.15,-2.12,2.12,2.02,2.01,3.26,3.26,3.27
107.48,1.15,-2.06,1.15,-2.06,2.05,2.00,1.98,3.20,3.20,3.21
108.56,1.15,-1.98,1.15,-1.99,1.98,1.97,1.94,3.13,3.13,3.13
109.64,1.15,-1.92,1.15,-1.92,1.91,1.95,1.91,3.06,3.06,3.07
110.74,1.15,-1.85,1.15,-1.85,1.84,1.93,1.88,2.99,2.99,3.00
111.85,1.15,-1.79,1.15,-1.78,1.78,1.90,1.85,2.93,2.93,2.93
112.97,1.15,-1.70,1.16,-1.70,1.73,1.88,1.82,2.88,2.89,2.85
114.10,1.15,-1.64,1.14,-1.64,1.69,1.86,1.79,2.84,2.83,2.78
115.24,1.12,-1.59,1.08,-1.63,1.65,1.84,1.77,2.77,2.73,2.71
116.39,0.99,-1.65,1.01,-1.63,1.62,1.81,1.74,2.61,2.63,2.63
117.55,0.92,-1.65,0.95,-1.62,1.59,1.79,1.72,2.51,2.53,2.57
118.73,0.92,-1.59,0.91,-1.60,1.56,1.77,1.69,2.48,2.47,2.51
119.92,0.92,-1.54,0.91,-1.55,1.53,1.75,1.67,2.44,2.44,2.46
121.12,0.92,-1.49,0.92,-1.49,1.49,1.73,1.64,2.41,2.41,2.41
122.33,0.92,-1.45,0.92,-1.46,1.46,1.70,1.62,2.38,2.38,2.37
123.55,0.92,-1.43,0.92,-1.42,1.43,1.68,1.60,2.34,2.34,2.35
124.79,0.92,-1.39,0.92,-1.38,1.40,1.66,1.58,2.32,2.33,2.31
126.03,0.92,-1.36,0.93,-1.35,1.39,1.64,1.55,2.31,2.32,2.27
127.29,0.92,-1.33,0.90,-1.34,1.38,1.62,1.53,2.30,2.28,2.24
128.57,0.87,-1.34,0.83,-1.38,1.38,1.59,1.51,2.24,2.21,2.21
129.85,0.72,-1.46,0.76,-1.41,1.38,1.57,1.49,2.10,2.14,2.18
131.15,0.70,-1.45,0.71,-1.44,1.39,1.55,1.47,2.08,2.09,2.15
132.46,0.70,-1.41,0.69,-1.42,1.40,1.53,1.45,2.10,2.09,2.11
133.79,0.70,-1.39,0.71,-1.37,1.42,1.51,1.44,2.11,2.12,2.08
135.12,0.69,-1.35,0.67,-1.38,1.43,1.49,1.42,2.11,2.10,2.04
136.48,0.64,-1.38,0.60,-1.41,1.43,1.47,1.40,2.07,2.03,2.01
137.84,0.49,-1.49,0.53,-1.44,1.42,1.45,1.38,1.91,1.95,1.98
139.22,0.47,-1.46,0.48,-1.45,1.40,1.43,1.37,1.87,1.88,1.93
140.61,0.47,-1.41,0.46,-1.44,1.39,1.41,1.35,1.86,1.84,1.88
142.02,0.47,-1.39,0.47,-1.39,1.38,1.39,1.33,1.85,1.85,1.86
143.44,0.47,-1.35,0.47,-1.35,1.37,1.37,1.32,1.84,1.85,1.82
144.87,0.47,-1.31,0.48,-1.30,1.36,1.35,1.30,1.82,1.83,1.78
146.32,0.47,-1.26,0.45,-1.28,1.33,1.34,1.29,1.80,1.78,1.73
147.78,0.42,-1.27,0.39,-1.29,1.30,1.32,1.28,1.71,1.69,1.69
149.26,0.30,-1.32,0.32,-1.30,1.26,1.30,1.26,1.56,1.58,1.62
150.75,0.24,-1.31,0.26,-1.30,1.23,1.29,1.25,1.47,1.49,1.55
152.26,0.24,-1.24,0.23,-1.24,1.20,1.27,1.24,1.44,1.44,1.48
153.78,0.24,-1.17,0.25,-1.15,1.17,1.26,1.23,1.41,1.42,1.40
155.32,0.24,-1.07,0.23,-1.09,1.14,1.24,1.22,1.38,1.37,1.31
156.88,0.22,-1.02,0.17,-1.06,1.10,1.23,1.21,1.31,1.27,1.24
158.44,0.07,-1.09,0.10,-1.06,1.05,1.21,1.20,1.12,1.15,1.16
160.03,0.01,-1.08,0.03,-1.06,1.02,1.20,1.19,1.03,1.05,1.09
161.63,0.01,-1.02,0.00,-1.03,0.99,1.19,1.18,1.00,1.00,1.03
163.24,0.01,-0.97,0.01,-0.97,0.98,1.18,1.18,0.99,1.00,0.98
164.88,0.01,-0.93,-0.00,-0.94,0.98,1.17,1.17,0.99,0.98,0.94
166.53,-0.03,-0.93,-0.06,-0.96,0.99,1.16,1.17,0.96,0.93,0.90
168.19,-0.15,-1.02,-0.13,-1.00,1.00,1.15,1.16,0.85,0.87,0.87
169.87,-0.22,-1.07,-0.20,-1.05,1.02,1.14,1.16,0.80,0.83,0.85
171.57,-0.22,-1.07,-0.21,-1.06,1.06,1.13,1.16,0.84,0.85,0.85
173.29,-0.22,-1.07,-0.23,-1.09,1.10,1.12,1.15,0.88,0.87,0.85
175.02,-0.22,-1.09,-0.29,-1.14,1.16,1.12,1.15,0.93,0.87,0.86
176.77,-0.41,-1.27,-0.36,-1.22,1.22,1.11,1.15,0.80,0.86,0.86
178.54,-0.44,-1.31,-0.41,-1.28,1.28,1.11,1.15,0.84,0.86,0.87
180.32,-0.44,-1.31,-0.45,-1.32,1.34,1.10,1.15,0.90,0.89,0.87
182.13,-0.44,-1.32,-0.48,-1.36,1.39,1.10,1.16,0.95,0.91,0.88
183.95,-0.53,-1.41,-0.55,-1.42,1.43,1.10,1.16,0.90,0.89,0.88
185.79,-0.66,-1.53,-0.62,-1.49,1.45,1.09,1.16,0.79,0.83,0.87
187.65,-0.67,-1.52,-0.68,-1.53,1.44,1.09,1.17,0.77,0.76,0.85
189.52,-0.67,-1.50,-0.67,-1.49,1.42,1.09,1.17,0.75,0.76,0.83
191.42,-0.62,-1.43,-0.59,-1.40,1.39,1.09,1.18,0.76,0.79,0.81
193.33,-0.49,-1.28,-0.52,-1.31,1.34,1.09,1.18,0.85,0.82,0.79
195.27,-0.44,-1.22,-0.46,-1.23,1.29,1.09,1.19,0.85,0.83,0.78
197.22,-0.44,-1.20,-0.43,-1.19,1.24,1.09,1.20,0.80,0.81,0.76
199.19,-0.44,-1.17,-0.44,-1.17,1.19,1.10,1.21,0.75,0.75,0.72
201.18,-0.44,-1.16,-0.44,-1.16,1.15,1.10,1.22,0.71,0.71,0.72
203.19,-0.44,-1.14,-0.44,-1.14,1.13,1.10,1.22,0.68,0.68,0.70
205.23,-0.44,-1.12,-0.44,-1.13,1.11,1.11,1.23,0.67,0.67,0.68
207.28,-0.44,-1.11,-0.44,-1.10,1.10,1.11,1.24,0.66,0.66,0.67
209.35,-0.44,-1.09,-0.44,-1.09,1.09,1.12,1.25,0.65,0.65,0.65
211.44,-0.44,-1.06,-0.44,-1.07,1.07,1.12,1.26,0.63,0.63,0.62
213.56,-0.44,-1.06,-0.44,-1.06,1.05,1.13,1.28,0.61,0.61,0.62
215.69,-0.44,-1.06,-0.44,-1.05,1.03,1.14,1.29,0.59,0.59,0.62
217.85,-0.44,-1.03,-0.44,-1.04,1.02,1.15,1.30,0.58,0.58,0.59
220.03,-0.44,-1.02,-0.44,-1.02,1.02,1.16,1.31,0.58,0.58,0.58
222.23,-0.44,-1.00,-0.43,-0.99,1.04,1.17,1.32,0.59,0.61,0.56
224.45,-0.44,-1.00,-0.44,-1.00,1.05,1.18,1.33,0.61,0.61,0.56
226.70,-0.44,-1.00,-0.50,-1.05,1.08,1.19,1.35,0.64,0.58,0.56
228.96,-0.60,-1.15,-0.57,-1.11,1.10,1.21,1.36,0.50,0.54,0.55
231.25,-0.65,-1.20,-0.63,-1.18,1.13,1.22,1.37,0.47,0.49,0.54
233.57,-0.67,-1.21,-0.68,-1.21,1.15,1.24,1.38,0.48,0.47,0.53
235.90,-0.67,-1.20,-0.68,-1.20,1.17,1.25,1.39,0.50,0.49,0.52
238.26,-0.67,-1.20,-0.67,-1.20,1.19,1.27,1.40,0.52,0.52,0.53
240.64,-0.67,-1.20,-0.67,-1.20,1.22,1.29,1.41,0.55,0.55,0.53
243.05,-0.67,-1.21,-0.65,-1.19,1.25,1.31,1.42,0.58,0.59,0.54
245.48,-0.67,-1.21,-0.68,-1.22,1.28,1.33,1.43,0.61,0.60,0.54
247.93,-0.67,-1.22,-0.74,-1.28,1.31,1.36,1.44,0.64,0.57,0.55
250.41,-0.86,-1.40,-0.81,-1.36,1.34,1.38,1.45,0.48,0.53,0.54
252.92,-0.90,-1.46,-0.88,-1.44,1.38,1.41,1.45,0.48,0.50,0.56
255.45,-0.90,-1.48,-0.92,-1.49,1.42,1.44,1.46,0.52,0.50,0.58
258.00,-0.90,-1.48,-0.91,-1.49,1.46,1.47,1.47,0.56,0.55,0.58
260.58,-0.90,-1.49,-0.90,-1.48,1.50,1.51,1.48,0.60,0.60,0.58
263.19,-0.90,-1.50,-0.89,-1.49,1.54,1.55,1.48,0.64,0.65,0.60
265.82,-0.90,-1.50,-0.92,-1.53,1.57,1.59,1.49,0.67,0.66,0.60
268.48,-0.95,-1.58,-0.98,-1.60,1.62,1.64,1.49,0.67,0.64,0.63
271.16,-1.08,-1.72,-1.05,-1.69,1.68,1.69,1.50,0.60,0.63,0.64
273.87,-1.13,-1.79,-1.10,-1.76,1.75,1.75,1.51,0.62,0.65,0.65
276.61,-1.13,-1.82,-1.14,-1.83,1.83,1.81,1.51,0.70,0.69,0.69
279.38,-1.13,-1.83,-1.20,-1.90,1.92,1.88,1.52,0.78,0.72,0.70
282.17,-1.30,-2.03,-1.26,-1.99,1.99,1.95,1.53,0.69,0.73,0.73
284.99,-1.36,-2.11,-1.33,-2.09,2.06,2.02,1.53,0.70,0.73,0.75
287.84,-1.36,-2.14,-1.37,-2.16,2.11,2.10,1.54,0.75,0.74,0.78
290.72,-1.36,-2.18,-1.37,-2.18,2.16,2.17,1.55,0.80,0.80,0.81
293.63,-1.36,-2.20,-1.36,-2.20,2.21,2.23,1.55,0.85,0.85,0.84
296.57,-1.36,-2.23,-1.36,-2.23,2.25,2.28,1.56,0.89,0.89,0.87
299.53,-1.36,-2.25,-1.36,-2.25,2.28,2.31,1.57,0.92,0.92,0.89
302.53,-1.36,-2.27,-1.36,-2.28,2.30,2.32,1.58,0.94,0.94,0.91
305.55,-1.36,-2.31,-1.36,-2.30,2.31,2.31,1.59,0.95,0.95,0.94
308.61,-1.36,-2.32,-1.38,-2.34,2.31,2.30,1.60,0.94,0.93,0.96
311.69,-1.36,-2.34,-1.36,-2.34,2.30,2.27,1.62,0.93,0.93,0.98
314.81,-1.36,-2.36,-1.31,-2.30,2.27,2.23,1.63,0.91,0.96,1.00
317.96,-1.21,-2.21,-1.24,-2.24,2.23,2.20,1.65,1.02,0.99,1.00
321.14,-1.13,-2.13,-1.18,-2.18,2.18,2.16,1.66,1.04,1.00,1.00
324.35,-1.13,-2.13,-1.11,-2.11,2.12,2.13,1.68,0.99,1.01,1.00
327.59,-1.09,-2.10,-1.05,-2.06,2.07,2.11,1.70,0.97,1.02,1.01
330.87,-0.95,-1.97,-0.98,-2.00,2.02,2.09,1.72,1.07,1.03,1.02
334.18,-0.90,-1.93,-0.92,-1.95,1.98,2.07,1.74,1.08,1.06,1.02
337.52,-0.90,-1.93,-0.89,-1.93,1.96,2.07,1.76,1.06,1.07,1.03
340.90,-0.90,-1.96,-0.90,-1.95,1.96,2.06,1.78,1.06,1.06,1.06
344.30,-0.90,-1.97,-0.90,-1.97,1.96,2.06,1.81,1.06,1.06,1.07
347.75,-0.90,-1.99,-0.90,-1.99,1.98,2.06,1.84,1.07,1.07,1.08
351.23,-0.90,-2.01,-0.90,-2.01,1.99,2.06,1.86,1.09,1.09,1.11
354.74,-0.90,-2.03,-0.90,-2.03,2.01,2.07,1.89,1.11,1.11,1.13
358.28,-0.90,-2.06,-0.90,-2.06,2.04,2.08,1.92,1.14,1.14,1.16
361.87,-0.90,-2.08,-0.90,-2.08,2.07,2.09,1.96,1.17,1.17,1.18
365.49,-0.90,-2.11,-0.90,-2.10,2.12,2.10,1.99,1.21,1.22,1.20
369.14,-0.90,-2.12,-0.89,-2.11,2.17,2.12,2.03,1.26,1.28,1.22
372.83,-0.90,-2.15,-0.92,-2.17,2.22,2.13,2.06,1.32,1.30,1.25
376.56,-0.95,-2.22,-0.99,-2.26,2.27,2.15,2.10,1.32,1.29,1.27
380.33,-1.10,-2.40,-1.06,-2.35,2.33,2.16,2.14,1.23,1.27,1.30
384.13,-1.13,-2.45,-1.12,-2.43,2.38,2.18,2.18,1.24,1.26,1.32
387.97,-1.13,-2.46,-1.14,-2.47,2.42,2.20,2.22,1.29,1.28,1.32
391.85,-1.13,-2.46,-1.13,-2.47,2.46,2.22,2.26,1.33,1.32,1.33
395.77,-1.13,-2.47,-1.13,-2.47,2.49,2.24,2.30,1.35,1.35,1.34
399.73,-1.13,-2.48,-1.13,-2.48,2.50,2.26,2.35,1.37,1.37,1.35
403.72,-1.13,-2.49,-1.13,-2.49,2.51,2.28,2.39,1.37,1.37,1.36
407.76,-1.13,-2.50,-1.13,-2.50,2.51,2.30,2.44,1.37,1.37,1.37
411.84,-1.13,-2.51,-1.13,-2.51,2.50,2.32,2.48,1.37,1.37,1.38
415.96,-1.13,-2.52,-1.13,-2.51,2.51,2.35,2.53,1.38,1.38,1.38
420.12,-1.13,-2.52,-1.13,-2.52,2.51,2.37,2.58,1.38,1.38,1.38
424.32,-1.13,-2.51,-1.13,-2.51,2.51,2.39,2.62,1.38,1.38,1.38
428.56,-1.13,-2.51,-1.13,-2.51,2.52,2.41,2.67,1.38,1.38,1.38
432.85,-1.13,-2.51,-1.13,-2.52,2.52,2.43,2.71,1.39,1.39,1.38
437.18,-1.13,-2.52,-1.13,-2.52,2.52,2.46,2.76,1.39,1.39,1.39
441.55,-1.13,-2.53,-1.13,-2.53,2.52,2.48,2.80,1.39,1.39,1.40
445.96,-1.13,-2.53,-1.13,-2.53,2.53,2.50,2.84,1.40,1.40,1.40
450.42,-1.13,-2.54,-1.13,-2.54,2.54,2.52,2.88,1.41,1.41,1.41
454.93,-1.13,-2.55,-1.13,-2.55,2.55,2.55,2.92,1.42,1.42,1.42
459.48,-1.13,-2.56,-1.13,-2.56,2.56,2.57,2.96,1.43,1.43,1.42
464.07,-1.13,-2.58,-1.13,-2.57,2.57,2.59,2.99,1.44,1.44,1.44
468.71,-1.13,-2.59,-1.13,-2.59,2.59,2.61,3.02,1.46,1.46,1.46
473.40,-1.13,-2.60,-1.13,-2.61,2.61,2.64,3.05,1.48,1.48,1.47
478.13,-1.13,-2.63,-1.13,-2.63,2.63,2.66,3.07,1.50,1.50,1.50
482.91,-1.13,-2.65,-1.13,-2.65,2.66,2.68,3.10,1.52,1.52,1.52
487.74,-1.13,-2.68,-1.13,-2.68,2.68,2.70,3.12,1.55,1.55,1.55
492.62,-1.13,-2.71,-1.13,-2.71,2.71,2.72,3.13,1.57,1.57,1.58
497.55,-1.13,-2.73,-1.13,-2.73,2.73,2.74,3.14,1.60,1.60,1.60
502.52,-1.13,-2.76,-1.13,-2.76,2.76,2.76,3.15,1.63,1.63,1.63
