frequency,raw,error,smoothed,error_smoothed,equalization,parametric_eq,equalized_raw,equalized_smoothed,target
20.00,-7.32,-10.61,-7.32,-10.61,6.00,2.81,-1.32,-1.32,3.29
20.20,-7.25,-10.55,-7.25,-10.55,6.00,2.89,-1.25,-1.25,3.30
20.40,-7.17,-10.48,-7.17,-10.48,6.00,2.98,-1.17,-1.17,3.31
20.61,-7.10,-10.42,-7.10,-10.42,6.00,3.06,-1.10,-1.10,3.32
20.81,-7.03,-10.36,-7.03,-10.36,6.00,3.15,-1.03,-1.03,3.33
21.02,-6.95,-10.29,-6.95,-10.29,6.00,3.24,-0.95,-0.95,3.34
21.23,-6.88,-10.23,-6.88,-10.23,6.00,3.33,-0.88,-0.88,3.35
21.44,-6.80,-10.16,-6.80,-10.16,6.00,3.43,-0.80,-0.80,3.36
21.66,-6.73,-10.10,-6.73,-10.10,6.00,3.52,-0.73,-0.73,3.37
21.87,-6.65,-10.03,-6.65,-10.03,6.00,3.62,-0.65,-0.65,3.38
22.09,-6.58,-9.97,-6.58,-9.97,6.00,3.73,-0.58,-0.58,3.39
22.31,-6.50,-9.90,-6.50,-9.90,6.00,3.83,-0.50,-0.50,3.41
22.54,-6.43,-9.85,-6.42,-9.84,6.00,3.94,-0.43,-0.42,3.42
22.76,-6.35,-9.78,-6.35,-9.77,6.00,4.05,-0.35,-0.35,3.43
22.99,-6.27,-9.71,-6.27,-9.71,6.00,4.17,-0.27,-0.27,3.44
23.22,-6.20,-9.65,-6.19,-9.64,6.00,4.29,-0.20,-0.19,3.45
23.45,-6.12,-9.58,-6.12,-9.58,6.00,4.41,-0.12,-0.12,3.46
23.69,-6.04,-9.51,-6.04,-9.51,6.00,4.53,-0.04,-0.04,3.47
23.92,-5.96,-9.44,-5.97,-9.45,6.00,4.65,0.04,0.03,3.48
24.16,-5.89,-9.38,-5.89,-9.38,6.00,4.78,0.11,0.11,3.50
24.40,-5.81,-9.31,-5.81,-9.32,6.00,4.91,0.19,0.19,3.51
24.65,-5.74,-9.26,-5.74,-9.25,6.00,5.04,0.26,0.26,3.52
24.89,-5.66,-9.18,-5.66,-9.19,6.00,5.18,0.34,0.34,3.53
25.14,-5.59,-9.13,-5.58,-9.12,6.00,5.31,0.41,0.42,3.54
25.39,-5.51,-9.06,-5.51,-9.06,6.00,5.45,0.49,0.49,3.55
25.65,-5.43,-8.99,-5.43,-8.99,6.00,5.59,0.57,0.57,3.56
25.91,-5.36,-8.93,-5.36,-8.92,6.00,5.72,0.64,0.64,3.57
26.16,-5.28,-8.86,-5.28,-8.86,6.00,5.86,0.72,0.72,3.58
26.43,-5.21,-8.80,-5.20,-8.79,6.00,6.00,0.79,0.80,3.59
26.69,-5.13,-8.73,-5.13,-8.73,6.00,6.13,0.87,0.87,3.60
26.96,-5.05,-8.66,-5.05,-8.66,6.00,6.27,0.95,0.95,3.61
27.23,-4.98,-8.60,-4.98,-8.60,6.00,6.40,1.02,1.02,3.62
27.50,-4.90,-8.53,-4.90,-8.53,6.00,6.53,1.10,1.10,3.63
27.77,-4.82,-8.46,-4.82,-8.46,6.00,6.65,1.18,1.18,3.64
28.05,-4.75,-8.40,-4.75,-8.40,6.00,6.77,1.25,1.25,3.65
28.33,-4.67,-8.33,-4.67,-8.33,6.00,6.89,1.33,1.33,3.66
28.62,-4.60,-8.27,-4.60,-8.27,6.00,7.00,1.40,1.40,3.67
28.90,-4.53,-8.21,-4.52,-8.21,6.00,7.10,1.47,1.48,3.68
29.19,-4.45,-8.14,-4.45,-8.14,6.00,7.19,1.55,1.55,3.69
29.48,-4.38,-8.08,-4.38,-8.08,6.00,7.27,1.62,1.62,3.70
29.78,-4.30,-8.01,-4.30,-8.02,6.00,7.35,1.70,1.70,3.71
30.08,-4.23,-7.96,-4.23,-7.96,6.00,7.41,1.77,1.77,3.72
30.38,-4.16,-7.89,-4.16,-7.90,6.00,7.46,1.84,1.84,3.73
30.68,-4.09,-7.83,-4.09,-7.84,6.00,7.50,1.91,1.91,3.74
30.99,-4.02,-7.78,-4.03,-7.78,6.00,7.53,1.98,1.97,3.75
31.30,-3.96,-7.73,-3.96,-7.72,6.00,7.55,2.04,2.04,3.77
31.61,-3.89,-7.67,-3.89,-7.67,6.00,7.56,2.11,2.11,3.78
31.93,-3.83,-7.62,-3.82,-7.61,6.00,7.55,2.17,2.18,3.79
32.24,-3.76,-7.55,-3.76,-7.55,6.00,7.53,2.24,2.24,3.79
32.57,-3.70,-7.50,-3.70,-7.50,6.00,7.50,2.30,2.30,3.80
32.89,-3.63,-7.44,-3.63,-7.44,6.00,7.46,2.37,2.37,3.81
33.22,-3.57,-7.39,-3.57,-7.39,6.00,7.41,2.43,2.43,3.82
33.55,-3.50,-7.33,-3.50,-7.33,6.00,7.36,2.50,2.50,3.83
33.89,-3.44,-7.28,-3.44,-7.28,6.00,7.29,2.56,2.56,3.84
34.23,-3.38,-7.23,-3.38,-7.22,6.00,7.22,2.62,2.62,3.85
34.57,-3.31,-7.16,-3.31,-7.17,6.00,7.14,2.69,2.69,3.85
34.92,-3.25,-7.11,-3.25,-7.11,6.00,7.05,2.75,2.75,3.86
35.27,-3.18,-7.05,-3.18,-7.05,6.00,6.96,2.82,2.82,3.87
35.62,-3.12,-7.00,-3.12,-6.99,6.00,6.87,2.88,2.88,3.88
35.97,-3.05,-6.93,-3.05,-6.93,6.00,6.77,2.95,2.95,3.89
36.33,-2.99,-6.88,-2.98,-6.87,6.00,6.67,3.01,3.02,3.89
36.70,-2.92,-6.82,-2.91,-6.81,6.00,6.57,3.08,3.09,3.90
37.06,-2.85,-6.76,-2.84,-6.75,6.00,6.47,3.15,3.16,3.91
37.43,-2.77,-6.68,-2.77,-6.68,6.00,6.37,3.23,3.23,3.91
37.81,-2.70,-6.62,-2.69,-6.61,6.00,6.27,3.30,3.31,3.92
38.19,-2.62,-6.55,-2.62,-6.54,6.00,6.17,3.38,3.38,3.93
38.57,-2.55,-6.48,-2.54,-6.47,6.00,6.07,3.45,3.46,3.93
38.95,-2.47,-6.41,-2.46,-6.40,6.00,5.97,3.53,3.54,3.94
39.34,-2.39,-6.33,-2.39,-6.33,6.00,5.88,3.61,3.61,3.94
39.74,-2.30,-6.25,-2.31,-6.25,6.00,5.79,3.70,3.69,3.95
40.14,-2.22,-6.17,-2.23,-6.18,5.99,5.70,3.77,3.76,3.95
40.54,-2.15,-6.11,-2.15,-6.11,5.97,5.61,3.82,3.82,3.96
40.94,-2.07,-6.03,-2.07,-6.03,5.94,5.53,3.87,3.87,3.96
41.35,-2.00,-5.97,-1.99,-5.96,5.90,5.45,3.90,3.91,3.97
41.76,-1.92,-5.89,-1.92,-5.89,5.85,5.38,3.93,3.93,3.97
42.18,-1.85,-5.82,-1.84,-5.82,5.80,5.30,3.95,3.96,3.98
42.60,-1.77,-5.75,-1.77,-5.75,5.74,5.24,3.97,3.97,3.98
43.03,-1.70,-5.68,-1.70,-5.68,5.68,5.17,3.98,3.98,3.98
43.46,-1.63,-5.62,-1.63,-5.61,5.61,5.11,3.99,3.99,3.99
43.90,-1.56,-5.55,-1.56,-5.55,5.55,5.05,3.99,3.99,3.99
44.33,-1.49,-5.49,-1.50,-5.49,5.49,5.00,4.00,4.00,4.00
44.78,-1.43,-5.43,-1.43,-5.44,5.44,4.95,4.01,4.00,4.00
45.23,-1.37,-5.38,-1.38,-5.38,5.38,4.91,4.01,4.01,4.01
45.68,-1.33,-5.34,-1.32,-5.34,5.34,4.87,4.01,4.01,4.01
46.13,-1.28,-5.29,-1.28,-5.29,5.29,4.83,4.01,4.02,4.02
46.60,-1.23,-5.25,-1.24,-5.26,5.26,4.80,4.03,4.02,4.02
47.06,-1.19,-5.21,-1.20,-5.22,5.22,4.77,4.03,4.02,4.02
47.53,-1.16,-5.19,-1.17,-5.19,5.19,4.74,4.03,4.03,4.03
48.01,-1.13,-5.16,-1.14,-5.17,5.17,4.72,4.04,4.03,4.03
48.49,-1.11,-5.14,-1.12,-5.15,5.15,4.70,4.04,4.03,4.03
48.97,-1.09,-5.12,-1.10,-5.14,5.14,4.68,4.05,4.03,4.03
49.46,-1.09,-5.12,-1.09,-5.13,5.13,4.66,4.04,4.03,4.03
49.96,-1.08,-5.11,-1.09,-5.12,5.12,4.65,4.04,4.03,4.03
50.46,-1.08,-5.11,-1.08,-5.11,5.11,4.64,4.03,4.03,4.03
50.96,-1.08,-5.11,-1.08,-5.11,5.11,4.64,4.03,4.03,4.03
51.47,-1.08,-5.11,-1.08,-5.11,5.11,4.63,4.03,4.03,4.03
51.99,-1.08,-5.11,-1.08,-5.11,5.11,4.63,4.03,4.02,4.03
52.51,-1.09,-5.11,-1.09,-5.11,5.11,4.62,4.02,4.02,4.02
53.03,-1.10,-5.12,-1.09,-5.10,5.10,4.62,4.00,4.02,4.02
53.56,-1.10,-5.11,-1.09,-5.10,5.10,4.62,4.00,4.01,4.01
54.10,-1.10,-5.10,-1.09,-5.09,5.09,4.62,3.99,4.00,4.00
54.64,-1.09,-5.08,-1.09,-5.08,5.08,4.62,3.99,3.99,4.00
55.18,-1.08,-5.07,-1.08,-5.06,5.06,4.62,3.98,3.98,3.99
55.74,-1.07,-5.04,-1.07,-5.04,5.04,4.62,3.97,3.97,3.97
56.29,-1.06,-5.02,-1.05,-5.01,5.01,4.61,3.95,3.96,3.96
56.86,-1.04,-4.99,-1.03,-4.98,4.98,4.61,3.94,3.95,3.95
57.42,-1.01,-4.94,-1.01,-4.94,4.94,4.60,3.93,3.93,3.94
58.00,-0.99,-4.91,-0.98,-4.90,4.90,4.59,3.91,3.91,3.92
58.58,-0.96,-4.86,-0.95,-4.84,4.84,4.58,3.88,3.90,3.90
59.16,-0.92,-4.81,-0.91,-4.79,4.79,4.56,3.87,3.88,3.89
59.76,-0.87,-4.74,-0.86,-4.72,4.72,4.55,3.85,3.86,3.87
60.35,-0.81,-4.66,-0.81,-4.65,4.65,4.52,3.84,3.84,3.85
60.96,-0.75,-4.57,-0.76,-4.58,4.58,4.50,3.83,3.82,3.82
61.57,-0.70,-4.50,-0.70,-4.49,4.49,4.47,3.79,3.80,3.80
62.18,-0.64,-4.42,-0.63,-4.41,4.41,4.43,3.77,3.77,3.78
62.80,-0.58,-4.33,-0.57,-4.32,4.32,4.39,3.74,3.75,3.75
63.43,-0.51,-4.24,-0.50,-4.22,4.22,4.35,3.71,3.72,3.73
64.07,-0.43,-4.13,-0.42,-4.12,4.12,4.30,3.69,3.70,3.70
64.71,-0.35,-4.02,-0.35,-4.02,4.02,4.25,3.67,3.67,3.68
65.35,-0.27,-3.92,-0.28,-3.92,3.92,4.19,3.65,3.65,3.65
66.01,-0.19,-3.81,-0.20,-3.82,3.82,4.13,3.63,3.62,3.62
66.67,-0.12,-3.71,-0.13,-3.72,3.72,4.06,3.60,3.59,3.59
67.33,-0.05,-3.61,-0.06,-3.62,3.62,4.00,3.57,3.56,3.56
68.01,0.02,-3.51,0.01,-3.52,3.52,3.92,3.54,3.53,3.53
68.69,0.09,-3.41,0.08,-3.42,3.42,3.85,3.51,3.50,3.50
69.37,0.15,-3.32,0.15,-3.32,3.32,3.77,3.47,3.47,3.47
70.07,0.22,-3.22,0.22,-3.23,3.23,3.69,3.45,3.44,3.44
70.77,0.29,-3.12,0.28,-3.13,3.13,3.61,3.42,3.41,3.41
71.48,0.34,-3.04,0.34,-3.04,3.04,3.52,3.38,3.38,3.38
72.19,0.39,-2.96,0.39,-2.96,2.96,3.44,3.35,3.35,3.35
72.91,0.44,-2.88,0.45,-2.87,2.87,3.35,3.31,3.32,3.32
73.64,0.51,-2.78,0.50,-2.79,2.79,3.26,3.30,3.29,3.29
74.38,0.57,-2.70,0.56,-2.71,2.71,3.17,3.28,3.26,3.27
75.12,0.62,-2.62,0.61,-2.63,2.63,3.08,3.25,3.24,3.24
75.87,0.65,-2.56,0.66,-2.55,2.55,2.99,3.20,3.21,3.21
76.63,0.70,-2.49,0.72,-2.47,2.47,2.90,3.17,3.18,3.19
77.40,0.75,-2.41,0.77,-2.39,2.39,2.81,3.14,3.16,3.16
78.17,0.80,-2.34,0.82,-2.31,2.31,2.73,3.12,3.14,3.14
78.95,0.87,-2.25,0.88,-2.24,2.24,2.64,3.11,3.11,3.12
79.74,0.93,-2.17,0.93,-2.16,2.16,2.55,3.09,3.09,3.10
80.54,0.99,-2.09,0.99,-2.09,2.09,2.46,3.08,3.07,3.08
81.35,1.04,-2.02,1.04,-2.01,2.01,2.38,3.05,3.05,3.06
82.16,1.10,-1.94,1.10,-1.94,1.94,2.29,3.04,3.04,3.04
82.98,1.16,-1.86,1.15,-1.87,1.87,2.21,3.03,3.02,3.02
83.81,1.21,-1.80,1.21,-1.80,1.80,2.12,3.01,3.00,3.01
84.65,1.26,-1.73,1.26,-1.73,1.73,2.04,2.99,2.99,2.99
85.50,1.31,-1.67,1.32,-1.67,1.67,1.96,2.98,2.98,2.98
86.35,1.36,-1.60,1.37,-1.60,1.60,1.88,2.97,2.97,2.96
87.22,1.40,-1.55,1.41,-1.55,1.55,1.80,2.95,2.96,2.95
88.09,1.46,-1.48,1.45,-1.49,1.49,1.73,2.95,2.94,2.94
88.97,1.51,-1.42,1.49,-1.44,1.44,1.65,2.95,2.93,2.93
89.86,1.55,-1.37,1.53,-1.39,1.39,1.58,2.94,2.92,2.92
90.76,1.59,-1.33,1.57,-1.34,1.34,1.50,2.93,2.91,2.92
91.66,1.62,-1.29,1.61,-1.29,1.29,1.43,2.92,2.90,2.91
92.58,1.65,-1.25,1.65,-1.25,1.25,1.36,2.90,2.90,2.90
93.51,1.68,-1.21,1.68,-1.21,1.21,1.29,2.89,2.89,2.90
94.44,1.70,-1.19,1.72,-1.16,1.16,1.22,2.87,2.88,2.89
95.39,1.72,-1.16,1.75,-1.12,1.12,1.15,2.84,2.87,2.88
96.34,1.75,-1.12,1.78,-1.08,1.08,1.09,2.83,2.86,2.87
97.30,1.80,-1.06,1.82,-1.04,1.04,1.02,2.84,2.85,2.86
98.28,1.84,-1.01,1.85,-0.99,0.99,0.96,2.83,2.84,2.85
99.26,1.89,-0.94,1.88,-0.94,0.94,0.90,2.84,2.82,2.84
100.25,1.93,-0.89,1.91,-0.90,0.90,0.84,2.83,2.81,2.82
101.25,1.97,-0.83,1.94,-0.85,0.85,0.77,2.82,2.79,2.80
102.27,1.99,-0.79,1.98,-0.80,0.80,0.72,2.79,2.78,2.78
103.29,2.00,-0.76,2.01,-0.75,0.75,0.66,2.75,2.76,2.76
104.32,2.02,-0.72,2.04,-0.70,0.70,0.60,2.72,2.74,2.74
105.37,2.05,-0.67,2.07,-0.65,0.65,0.54,2.70,2.71,2.72
106.42,2.08,-0.61,2.09,-0.60,0.60,0.49,2.68,2.69,2.69
107.48,2.11,-0.55,2.11,-0.55,0.55,0.44,2.66,2.66,2.66
108.56,2.13,-0.50,2.12,-0.51,0.51,0.39,2.64,2.63,2.63
109.64,2.15,-0.45,2.13,-0.46,0.46,0.33,2.61,2.59,2.60
110.74,2.17,-0.39,2.14,-0.42,0.42,0.29,2.59,2.56,2.56
111.85,2.17,-0.36,2.15,-0.38,0.38,0.24,2.55,2.52,2.53
112.97,2.16,-0.33,2.15,-0.34,0.34,0.19,2.50,2.49,2.49
114.10,2.14,-0.32,2.15,-0.30,0.30,0.15,2.44,2.45,2.46
115.24,2.14,-0.28,2.16,-0.26,0.26,0.11,2.40,2.42,2.42
116.39,2.14,-0.24,2.16,-0.23,0.23,0.06,2.37,2.38,2.39
117.55,2.14,-0.21,2.15,-0.19,0.19,0.02,2.33,2.35,2.35
118.73,2.14,-0.17,2.15,-0.16,0.16,-0.01,2.30,2.31,2.31
119.92,2.14,-0.14,2.15,-0.13,0.13,-0.05,2.27,2.28,2.28
121.12,2.14,-0.10,2.14,-0.10,0.10,-0.08,2.24,2.24,2.24
122.33,2.14,-0.07,2.14,-0.07,0.07,-0.11,2.21,2.21,2.21
123.55,2.14,-0.04,2.14,-0.04,0.04,-0.14,2.18,2.18,2.18
124.79,2.14,-0.01,2.14,-0.01,0.01,-0.17,2.15,2.15,2.15
126.03,2.14,0.02,2.14,0.02,-0.02,-0.20,2.12,2.12,2.12
127.29,2.14,0.05,2.14,0.04,-0.04,-0.22,2.10,2.10,2.10
128.57,2.14,0.07,2.14,0.07,-0.07,-0.25,2.07,2.07,2.07
129.85,2.14,0.09,2.14,0.09,-0.09,-0.27,2.05,2.05,2.05
131.15,2.14,0.12,2.14,0.12,-0.12,-0.29,2.02,2.02,2.02
132.46,2.14,0.14,2.14,0.14,-0.14,-0.31,2.00,2.00,2.00
133.79,2.14,0.16,2.14,0.16,-0.16,-0.33,1.98,1.98,1.98
135.12,2.14,0.18,2.14,0.18,-0.18,-0.34,1.96,1.96,1.96
136.48,2.14,0.20,2.14,0.21,-0.21,-0.36,1.93,1.93,1.94
137.84,2.14,0.22,2.14,0.23,-0.23,-0.37,1.91,1.91,1.92
139.22,2.14,0.25,2.14,0.25,-0.25,-0.38,1.89,1.89,1.90
140.61,2.14,0.27,2.14,0.27,-0.27,-0.39,1.87,1.87,1.87
142.02,2.14,0.29,2.14,0.29,-0.29,-0.40,1.85,1.85,1.85
143.44,2.14,0.31,2.14,0.31,-0.31,-0.41,1.83,1.83,1.83
144.87,2.14,0.33,2.14,0.33,-0.33,-0.42,1.81,1.81,1.81
146.32,2.14,0.35,2.14,0.35,-0.35,-0.43,1.79,1.79,1.79
147.78,2.14,0.38,2.14,0.38,-0.38,-0.44,1.76,1.76,1.76
149.26,2.14,0.40,2.14,0.40,-0.40,-0.45,1.74,1.74,1.74
150.75,2.14,0.42,2.14,0.42,-0.42,-0.45,1.72,1.72,1.72
152.26,2.14,0.44,2.14,0.44,-0.44,-0.46,1.70,1.70,1.70
153.78,2.14,0.47,2.14,0.47,-0.47,-0.47,1.67,1.67,1.67
155.32,2.14,0.49,2.14,0.49,-0.49,-0.48,1.65,1.65,1.65
156.88,2.14,0.52,2.14,0.51,-0.51,-0.48,1.63,1.63,1.63
158.44,2.14,0.54,2.14,0.54,-0.54,-0.49,1.60,1.60,1.60
160.03,2.14,0.56,2.14,0.56,-0.56,-0.50,1.58,1.57,1.58
161.63,2.14,0.59,2.14,0.59,-0.59,-0.51,1.55,1.55,1.55
163.24,2.14,0.61,2.14,0.62,-0.62,-0.52,1.52,1.52,1.53
164.88,2.14,0.64,2.14,0.65,-0.65,-0.53,1.49,1.50,1.50
166.53,2.14,0.66,2.15,0.68,-0.68,-0.53,1.47,1.47,1.48
168.19,2.14,0.69,2.15,0.71,-0.71,-0.54,1.44,1.44,1.45
169.87,2.14,0.72,2.15,0.74,-0.74,-0.56,1.40,1.41,1.42
171.57,2.14,0.75,2.15,0.77,-0.77,-0.57,1.37,1.39,1.39
173.29,2.14,0.78,2.16,0.80,-0.80,-0.58,1.34,1.36,1.36
175.02,2.15,0.82,2.16,0.83,-0.83,-0.59,1.32,1.33,1.33
176.77,2.16,0.86,2.15,0.86,-0.86,-0.60,1.30,1.30,1.30
178.54,2.16,0.89,2.15,0.88,-0.88,-0.62,1.28,1.27,1.27
180.32,2.16,0.92,2.14,0.91,-0.91,-0.63,1.25,1.24,1.24
182.13,2.15,0.95,2.13,0.93,-0.93,-0.64,1.22,1.21,1.20
183.95,2.14,0.97,2.12,0.95,-0.95,-0.66,1.19,1.17,1.17
185.79,2.11,0.97,2.10,0.96,-0.96,-0.67,1.15,1.14,1.14
187.65,2.09,0.99,2.08,0.98,-0.98,-0.69,1.11,1.10,1.10
189.52,2.07,1.00,2.06,0.99,-0.99,-0.71,1.08,1.07,1.07
191.42,2.04,1.00,2.03,1.00,-1.00,-0.72,1.04,1.03,1.04
193.33,2.00,1.00,2.01,1.01,-1.01,-0.74,0.99,1.00,1.00
195.27,1.97,1.00,1.98,1.02,-1.02,-0.76,0.95,0.96,0.97
197.22,1.94,1.01,1.95,1.03,-1.03,-0.78,0.91,0.93,0.94
199.19,1.91,1.01,1.93,1.04,-1.04,-0.79,0.87,0.89,0.90
201.18,1.88,1.02,1.90,1.05,-1.05,-0.81,0.83,0.85,0.86
203.19,1.86,1.03,1.88,1.06,-1.06,-0.83,0.80,0.82,0.83
205.23,1.85,1.06,1.85,1.07,-1.07,-0.85,0.78,0.78,0.79
207.28,1.83,1.07,1.83,1.08,-1.08,-0.87,0.75,0.75,0.76
209.35,1.81,1.09,1.81,1.10,-1.10,-0.89,0.71,0.71,0.72
211.44,1.80,1.12,1.78,1.11,-1.11,-0.91,0.69,0.68,0.68
213.56,1.77,1.13,1.76,1.12,-1.12,-0.93,0.65,0.64,0.65
215.69,1.75,1.14,1.74,1.13,-1.13,-0.94,0.62,0.61,0.61
217.85,1.72,1.15,1.71,1.14,-1.14,-0.96,0.58,0.57,0.57
220.03,1.70,1.16,1.69,1.15,-1.15,-0.98,0.55,0.54,0.54
222.23,1.67,1.17,1.66,1.16,-1.16,-0.99,0.51,0.51,0.51
224.45,1.64,1.17,1.64,1.16,-1.16,-1.01,0.48,0.48,0.47
226.70,1.60,1.15,1.61,1.16,-1.16,-1.02,0.44,0.45,0.45
228.96,1.57,1.15,1.59,1.16,-1.16,-1.03,0.41,0.42,0.42
231.25,1.55,1.15,1.56,1.16,-1.16,-1.04,0.39,0.40,0.40
233.57,1.53,1.15,1.54,1.16,-1.16,-1.05,0.37,0.38,0.38
235.90,1.51,1.15,1.52,1.15,-1.15,-1.06,0.36,0.37,0.36
238.26,1.49,1.14,1.50,1.14,-1.14,-1.07,0.35,0.35,0.35
240.64,1.47,1.13,1.48,1.13,-1.13,-1.07,0.34,0.34,0.34
243.05,1.46,1.13,1.45,1.12,-1.12,-1.08,0.34,0.33,0.33
245.48,1.45,1.12,1.43,1.11,-1.11,-1.08,0.34,0.33,0.33
247.93,1.42,1.10,1.41,1.09,-1.09,-1.08,0.33,0.32,0.32
250.41,1.40,1.08,1.39,1.07,-1.07,-1.07,0.33,0.32,0.32
252.92,1.36,1.04,1.37,1.05,-1.05,-1.07,0.31,0.32,0.32
255.45,1.34,1.02,1.34,1.02,-1.02,-1.06,0.32,0.32,0.32
258.00,1.32,1.00,1.31,0.99,-0.99,-1.05,0.33,0.32,0.32
260.58,1.29,0.97,1.28,0.96,-0.96,-1.04,0.33,0.32,0.32
263.19,1.26,0.94,1.25,0.93,-0.93,-1.03,0.33,0.32,0.32
265.82,1.22,0.90,1.22,0.89,-0.89,-1.02,0.33,0.33,0.33
268.48,1.19,0.86,1.19,0.86,-0.86,-1.00,0.33,0.33,0.33
271.16,1.16,0.83,1.16,0.82,-0.82,-0.98,0.34,0.34,0.33
273.87,1.11,0.77,1.12,0.78,-0.78,-0.96,0.33,0.34,0.34
276.61,1.08,0.73,1.09,0.74,-0.74,-0.94,0.34,0.35,0.35
279.38,1.06,0.70,1.06,0.70,-0.70,-0.92,0.36,0.36,0.36
282.17,1.03,0.66,1.03,0.66,-0.66,-0.90,0.37,0.37,0.37
284.99,1.00,0.62,1.00,0.62,-0.62,-0.87,0.38,0.37,0.38
287.84,0.96,0.57,0.97,0.59,-0.59,-0.85,0.37,0.38,0.39
290.72,0.93,0.53,0.94,0.55,-0.55,-0.82,0.38,0.39,0.40
293.63,0.91,0.50,0.92,0.52,-0.52,-0.80,0.39,0.40,0.42
296.57,0.89,0.47,0.90,0.48,-0.48,-0.77,0.41,0.41,0.43
299.53,0.87,0.44,0.88,0.45,-0.45,-0.74,0.42,0.42,0.43
302.53,0.85,0.41,0.86,0.42,-0.42,-0.71,0.43,0.43,0.44
305.55,0.83,0.38,0.84,0.39,-0.39,-0.68,0.44,0.44,0.45
308.61,0.82,0.37,0.82,0.37,-0.37,-0.66,0.45,0.45,0.45
311.69,0.80,0.34,0.79,0.34,-0.34,-0.63,0.46,0.46,0.46
314.81,0.79,0.33,0.77,0.31,-0.31,-0.60,0.48,0.46,0.46
317.96,0.77,0.30,0.75,0.28,-0.28,-0.57,0.49,0.47,0.47
321.14,0.74,0.27,0.72,0.25,-0.25,-0.54,0.49,0.47,0.47
324.35,0.71,0.24,0.69,0.22,-0.22,-0.51,0.49,0.47,0.47
327.59,0.67,0.20,0.66,0.19,-0.19,-0.48,0.48,0.47,0.47
330.87,0.64,0.17,0.64,0.17,-0.17,-0.45,0.47,0.47,0.47
334.18,0.61,0.14,0.61,0.14,-0.14,-0.42,0.47,0.47,0.47
337.52,0.57,0.09,0.59,0.12,-0.12,-0.40,0.45,0.47,0.48
340.90,0.55,0.07,0.57,0.10,-0.10,-0.37,0.45,0.47,0.48
344.30,0.52,0.04,0.55,0.08,-0.08,-0.34,0.44,0.47,0.48
347.75,0.51,0.03,0.53,0.07,-0.07,-0.31,0.44,0.47,0.48
351.23,0.50,0.02,0.52,0.06,-0.06,-0.28,0.44,0.46,0.48
354.74,0.50,0.02,0.52,0.06,-0.06,-0.26,0.44,0.46,0.48
358.28,0.51,0.04,0.52,0.06,-0.06,-0.23,0.45,0.46,0.48
361.87,0.51,0.04,0.52,0.06,-0.06,-0.20,0.45,0.46,0.47
365.49,0.52,0.06,0.52,0.07,-0.07,-0.18,0.46,0.45,0.46
369.14,0.53,0.07,0.52,0.07,-0.07,-0.15,0.46,0.45,0.46
372.83,0.53,0.08,0.52,0.08,-0.08,-0.12,0.45,0.45,0.45
376.56,0.54,0.10,0.52,0.08,-0.08,-0.10,0.46,0.44,0.44
380.33,0.54,0.11,0.52,0.09,-0.09,-0.07,0.45,0.43,0.43
384.13,0.53,0.11,0.52,0.09,-0.09,-0.05,0.44,0.43,0.42
387.97,0.52,0.11,0.50,0.09,-0.09,-0.02,0.43,0.42,0.41
391.85,0.51,0.11,0.49,0.08,-0.08,0.01,0.43,0.40,0.40
395.77,0.48,0.09,0.47,0.08,-0.08,0.03,0.41,0.39,0.39
399.73,0.45,0.07,0.44,0.06,-0.06,0.05,0.39,0.38,0.38
403.72,0.42,0.05,0.42,0.05,-0.05,0.08,0.37,0.36,0.37
407.76,0.39,0.04,0.39,0.04,-0.04,0.10,0.36,0.35,0.35
411.84,0.35,0.01,0.36,0.02,-0.02,0.12,0.33,0.34,0.34
415.96,0.32,-0.01,0.33,-0.00,0.00,0.15,0.32,0.33,0.33
420.12,0.29,-0.03,0.30,-0.02,0.02,0.17,0.31,0.31,0.32
424.32,0.26,-0.05,0.27,-0.03,0.03,0.19,0.30,0.30,0.31
428.56,0.23,-0.07,0.25,-0.05,0.05,0.21,0.28,0.30,0.30
432.85,0.21,-0.08,0.23,-0.06,0.06,0.23,0.27,0.29,0.30
437.18,0.19,-0.10,0.21,-0.07,0.07,0.25,0.26,0.29,0.29
441.55,0.18,-0.10,0.20,-0.08,0.08,0.27,0.26,0.28,0.28
445.96,0.18,-0.10,0.19,-0.09,0.09,0.29,0.27,0.28,0.28
450.42,0.18,-0.10,0.19,-0.09,0.09,0.31,0.28,0.28,0.28
454.93,0.19,-0.09,0.18,-0.10,0.10,0.32,0.29,0.28,0.28
459.48,0.19,-0.10,0.18,-0.10,0.10,0.34,0.29,0.29,0.29
464.07,0.20,-0.09,0.19,-0.10,0.10,0.35,0.30,0.29,0.29
468.71,0.20,-0.09,0.19,-0.10,0.10,0.37,0.30,0.29,0.29
473.40,0.20,-0.10,0.19,-0.10,0.10,0.38,0.30,0.29,0.30
478.13,0.20,-0.10,0.19,-0.10,0.10,0.39,0.30,0.30,0.30
482.91,0.20,-0.10,0.20,-0.10,0.10,0.40,0.30,0.30,0.30
487.74,0.20,-0.11,0.20,-0.10,0.10,0.41,0.30,0.30,0.31
492.62,0.20,-0.11,0.21,-0.10,0.10,0.42,0.30,0.30,0.31
497.55,0.20,-0.11,0.21,-0.10,0.10,0.42,0.30,0.31,0.31
502.52,0.20,-0.11,0.21,-0.10,0.10,0.43,0.30,0.31,0.31
507.55,0.20,-0.11,0.21,-0.10,0.10,0.43,0.30,0.31,0.31
512.62,0.20,-0.12,0.21,-0.10,0.10,0.43,0.30,0.32,0.32
517.75,0.20,-0.12,0.21,-0.11,0.11,0.43,0.31,0.32,0.32
522.93,0.21,-0.11,0.21,-0.11,0.11,0.43,0.32,0.32,0.32
528.16,0.22,-0.11,0.21,-0.12,0.12,0.43,0.34,0.33,0.33
533.44,0.22,-0.11,0.20,-0.13,0.13,0.43,0.35,0.33,0.33
538.77,0.21,-0.12,0.19,-0.15,0.15,0.43,0.36,0.34,0.33
544.16,0.19,-0.15,0.18,-0.17,0.17,0.42,0.36,0.34,0.34
549.60,0.17,-0.17,0.16,-0.19,0.19,0.42,0.36,0.35,0.34
555.10,0.15,-0.20,0.14,-0.21,0.21,0.41,0.36,0.35,0.35
560.65,0.13,-0.22,0.11,-0.24,0.24,0.40,0.37,0.35,0.35
566.25,0.09,-0.26,0.09,-0.27,0.27,0.39,0.36,0.35,0.35
571.92,0.06,-0.30,0.06,-0.30,0.30,0.39,0.36,0.35,0.36
577.64,0.03,-0.33,0.02,-0.33,0.33,0.38,0.36,0.35,0.36
583.41,-0.01,-0.37,-0.01,-0.36,0.36,0.37,0.35,0.35,0.36
589.25,-0.04,-0.40,-0.03,-0.39,0.39,0.36,0.35,0.35,0.37
595.14,-0.07,-0.44,-0.06,-0.41,0.41,0.35,0.35,0.35,0.37
601.09,-0.11,-0.48,-0.08,-0.44,0.44,0.34,0.33,0.36,0.37
607.10,-0.13,-0.50,-0.10,-0.46,0.46,0.32,0.33,0.36,0.37
613.17,-0.14,-0.51,-0.12,-0.48,0.48,0.31,0.34,0.36,0.37
619.30,-0.15,-0.52,-0.13,-0.50,0.50,0.30,0.35,0.37,0.37
625.50,-0.15,-0.53,-0.14,-0.51,0.51,0.29,0.36,0.38,0.38
631.75,-0.14,-0.52,-0.14,-0.52,0.52,0.28,0.39,0.38,0.38
638.07,-0.13,-0.52,-0.14,-0.54,0.54,0.27,0.41,0.39,0.39
644.45,-0.13,-0.53,-0.14,-0.54,0.54,0.26,0.41,0.40,0.40
650.89,-0.13,-0.54,-0.14,-0.55,0.55,0.24,0.42,0.41,0.41
657.40,-0.13,-0.55,-0.14,-0.56,0.56,0.23,0.43,0.42,0.42
663.98,-0.13,-0.56,-0.14,-0.56,0.56,0.22,0.44,0.43,0.43
670.62,-0.13,-0.57,-0.13,-0.57,0.57,0.21,0.44,0.44,0.44
677.32,-0.13,-0.57,-0.13,-0.57,0.57,0.20,0.44,0.44,0.44
684.10,-0.13,-0.58,-0.13,-0.58,0.58,0.19,0.45,0.45,0.45
690.94,-0.13,-0.59,-0.13,-0.58,0.58,0.18,0.45,0.45,0.46
697.85,-0.13,-0.59,-0.13,-0.58,0.58,0.16,0.45,0.45,0.46
704.83,-0.13,-0.59,-0.13,-0.57,0.57,0.15,0.45,0.45,0.46
711.87,-0.13,-0.58,-0.13,-0.57,0.57,0.14,0.44,0.44,0.46
718.99,-0.13,-0.58,-0.12,-0.56,0.56,0.13,0.44,0.44,0.45
726.18,-0.13,-0.57,-0.12,-0.56,0.56,0.12,0.43,0.43,0.44
733.44,-0.13,-0.56,-0.12,-0.55,0.55,0.11,0.42,0.43,0.44
740.78,-0.13,-0.56,-0.12,-0.54,0.54,0.10,0.41,0.42,0.43
