frequency,raw,smoothed,error,error_smoothed,equalization,parametric_eq,fixed_band_eq,equalized_raw,equalized_smoothed,target
20.00,-3.01,-3.01,-4.96,-4.96,4.96,5.54,2.36,1.96,1.96,1.96
20.20,-3.02,-3.02,-4.97,-4.97,4.98,5.53,2.43,1.96,1.96,1.96
20.40,-3.03,-3.03,-4.98,-4.99,4.99,5.51,2.50,1.96,1.96,1.96
20.61,-3.05,-3.04,-5.00,-5.00,5.00,5.50,2.58,1.95,1.96,1.95
20.81,-3.06,-3.06,-5.01,-5.01,5.01,5.48,2.65,1.95,1.95,1.95
21.02,-3.07,-3.07,-5.02,-5.02,5.01,5.47,2.73,1.95,1.94,1.95
21.23,-3.09,-3.08,-5.02,-5.02,5.02,5.45,2.81,1.93,1.93,1.93
21.44,-3.10,-3.10,-5.02,-5.02,5.02,5.43,2.89,1.92,1.92,1.92
21.66,-3.12,-3.12,-5.02,-5.02,5.02,5.42,2.97,1.90,1.90,1.90
21.87,-3.14,-3.13,-5.02,-5.02,5.02,5.40,3.06,1.88,1.89,1.88
22.09,-3.15,-3.15,-5.02,-5.01,5.01,5.38,3.15,1.87,1.86,1.87
22.31,-3.17,-3.17,-5.01,-5.01,5.01,5.37,3.24,1.84,1.84,1.84
22.54,-3.19,-3.19,-5.01,-5.01,5.00,5.35,3.33,1.82,1.82,1.82
22.76,-3.21,-3.21,-5.01,-5.00,5.00,5.33,3.43,1.79,1.79,1.80
22.99,-3.23,-3.23,-5.00,-4.99,5.00,5.31,3.53,1.77,1.77,1.77
23.22,-3.25,-3.25,-4.98,-4.99,5.00,5.29,3.63,1.75,1.75,1.74
23.45,-3.27,-3.27,-4.98,-4.99,5.00,5.28,3.73,1.73,1.73,1.72
23.69,-3.30,-3.30,-5.00,-5.00,5.00,5.26,3.84,1.71,1.71,1.71
23.92,-3.33,-3.33,-5.01,-5.01,5.01,5.24,3.95,1.69,1.69,1.68
24.16,-3.36,-3.36,-5.03,-5.03,5.02,5.22,4.06,1.67,1.67,1.67
24.40,-3.39,-3.39,-5.04,-5.04,5.04,5.20,4.17,1.65,1.65,1.65
24.65,-3.42,-3.42,-5.05,-5.05,5.05,5.18,4.28,1.63,1.63,1.63
24.89,-3.45,-3.45,-5.06,-5.06,5.06,5.16,4.39,1.61,1.62,1.61
25.14,-3.48,-3.48,-5.08,-5.08,5.08,5.14,4.51,1.60,1.60,1.60
25.39,-3.51,-3.51,-5.09,-5.09,5.09,5.11,4.63,1.58,1.58,1.58
25.65,-3.54,-3.54,-5.11,-5.10,5.10,5.09,4.74,1.56,1.56,1.57
25.91,-3.57,-3.57,-5.10,-5.11,5.11,5.07,4.86,1.55,1.54,1.54
26.16,-3.60,-3.60,-5.12,-5.12,5.12,5.05,4.98,1.53,1.53,1.53
26.43,-3.63,-3.62,-5.14,-5.13,5.14,5.03,5.09,1.51,1.51,1.52
26.69,-3.65,-3.65,-5.14,-5.15,5.15,5.00,5.20,1.50,1.50,1.49
26.96,-3.68,-3.67,-5.16,-5.16,5.16,4.98,5.32,1.48,1.48,1.48
27.23,-3.70,-3.70,-5.17,-5.17,5.17,4.96,5.43,1.47,1.47,1.47
27.50,-3.72,-3.72,-5.18,-5.18,5.17,4.93,5.53,1.46,1.45,1.46
27.77,-3.74,-3.74,-5.18,-5.18,5.18,4.91,5.64,1.44,1.44,1.44
28.05,-3.76,-3.76,-5.18,-5.18,5.18,4.88,5.73,1.42,1.42,1.43
28.33,-3.78,-3.77,-5.18,-5.18,5.18,4.86,5.83,1.41,1.41,1.41
28.62,-3.79,-3.79,-5.18,-5.18,5.18,4.83,5.91,1.40,1.40,1.39
28.90,-3.80,-3.80,-5.18,-5.18,5.18,4.81,5.99,1.38,1.38,1.38
29.19,-3.81,-3.81,-5.17,-5.17,5.18,4.78,6.07,1.37,1.37,1.36
29.48,-3.82,-3.82,-5.18,-5.18,5.18,4.75,6.13,1.36,1.36,1.36
29.78,-3.83,-3.83,-5.17,-5.17,5.17,4.73,6.19,1.35,1.35,1.35
30.08,-3.84,-3.83,-5.17,-5.17,5.17,4.70,6.23,1.33,1.33,1.34
30.38,-3.84,-3.84,-5.15,-5.16,5.16,4.67,6.27,1.32,1.32,1.31
30.68,-3.85,-3.85,-5.15,-5.14,5.14,4.64,6.29,1.30,1.30,1.30
30.99,-3.85,-3.85,-5.13,-5.13,5.13,4.61,6.30,1.28,1.28,1.28
31.30,-3.85,-3.85,-5.11,-5.11,5.11,4.58,6.30,1.26,1.26,1.27
31.61,-3.84,-3.84,-5.09,-5.09,5.09,4.55,6.30,1.25,1.25,1.26
31.93,-3.83,-3.83,-5.06,-5.06,5.06,4.52,6.28,1.23,1.23,1.23
32.24,-3.82,-3.82,-5.02,-5.03,5.03,4.49,6.25,1.21,1.21,1.20
32.57,-3.81,-3.81,-5.00,-4.99,5.00,4.46,6.21,1.19,1.19,1.19
32.89,-3.80,-3.80,-4.97,-4.96,4.97,4.43,6.16,1.17,1.17,1.18
33.22,-3.79,-3.78,-4.93,-4.93,4.93,4.40,6.10,1.14,1.15,1.14
33.55,-3.77,-3.77,-4.90,-4.90,4.89,4.37,6.04,1.13,1.13,1.13
33.89,-3.75,-3.75,-4.85,-4.85,4.85,4.33,5.96,1.11,1.11,1.11
34.23,-3.73,-3.73,-4.81,-4.81,4.81,4.30,5.88,1.09,1.09,1.08
34.57,-3.71,-3.71,-4.77,-4.77,4.77,4.27,5.79,1.06,1.06,1.06
34.92,-3.69,-3.68,-4.72,-4.73,4.73,4.23,5.69,1.04,1.04,1.04
35.27,-3.66,-3.66,-4.68,-4.68,4.68,4.20,5.59,1.02,1.02,1.02
35.62,-3.63,-3.63,-4.63,-4.63,4.63,4.16,5.49,1.00,1.00,1.00
35.97,-3.60,-3.59,-4.57,-4.58,4.58,4.13,5.38,0.98,0.98,0.98
36.33,-3.56,-3.56,-4.52,-4.52,4.52,4.09,5.27,0.96,0.96,0.96
36.70,-3.53,-3.53,-4.47,-4.46,4.46,4.06,5.15,0.94,0.94,0.94
37.06,-3.49,-3.49,-4.40,-4.41,4.40,4.02,5.04,0.92,0.92,0.92
37.43,-3.45,-3.45,-4.35,-4.34,4.34,3.98,4.92,0.90,0.90,0.90
37.81,-3.40,-3.40,-4.27,-4.28,4.28,3.94,4.80,0.88,0.88,0.88
38.19,-3.36,-3.35,-4.21,-4.21,4.21,3.91,4.68,0.85,0.85,0.85
38.57,-3.31,-3.31,-4.14,-4.14,4.14,3.87,4.57,0.83,0.83,0.84
38.95,-3.26,-3.26,-4.07,-4.07,4.07,3.83,4.45,0.81,0.81,0.81
39.34,-3.21,-3.20,-3.99,-3.99,4.00,3.79,4.33,0.79,0.79,0.79
39.74,-3.15,-3.15,-3.91,-3.92,3.92,3.75,4.22,0.77,0.77,0.76
40.14,-3.10,-3.09,-3.85,-3.85,3.85,3.71,4.11,0.75,0.75,0.76
40.54,-3.04,-3.04,-3.77,-3.77,3.77,3.66,3.99,0.73,0.73,0.73
40.94,-2.98,-2.98,-3.69,-3.69,3.69,3.62,3.88,0.72,0.71,0.72
41.35,-2.92,-2.92,-3.61,-3.61,3.62,3.58,3.78,0.70,0.70,0.69
41.76,-2.86,-2.86,-3.54,-3.54,3.54,3.54,3.67,0.68,0.68,0.68
42.18,-2.80,-2.80,-3.46,-3.46,3.46,3.49,3.57,0.66,0.66,0.67
42.60,-2.74,-2.74,-3.38,-3.38,3.38,3.45,3.47,0.64,0.64,0.64
43.03,-2.68,-2.68,-3.31,-3.30,3.30,3.40,3.37,0.62,0.63,0.63
43.46,-2.62,-2.62,-3.22,-3.22,3.22,3.36,3.27,0.60,0.60,0.61
43.90,-2.56,-2.56,-3.14,-3.14,3.14,3.31,3.18,0.58,0.58,0.58
44.33,-2.51,-2.50,-3.07,-3.06,3.06,3.27,3.09,0.56,0.56,0.56
44.78,-2.45,-2.45,-2.99,-2.98,2.99,3.22,3.00,0.54,0.54,0.54
45.23,-2.39,-2.39,-2.90,-2.91,2.91,3.17,2.91,0.52,0.52,0.51
45.68,-2.34,-2.34,-2.83,-2.83,2.84,3.12,2.83,0.50,0.50,0.50
46.13,-2.29,-2.28,-2.76,-2.76,2.77,3.08,2.75,0.48,0.48,0.48
46.60,-2.23,-2.23,-2.69,-2.70,2.70,3.03,2.67,0.47,0.46,0.47
47.06,-2.19,-2.18,-2.63,-2.63,2.63,2.98,2.59,0.44,0.45,0.45
47.53,-2.14,-2.14,-2.56,-2.57,2.56,2.93,2.51,0.43,0.43,0.43
48.01,-2.09,-2.09,-2.50,-2.50,2.49,2.87,2.44,0.41,0.40,0.42
48.49,-2.05,-2.05,-2.43,-2.43,2.43,2.82,2.37,0.38,0.38,0.39
48.97,-2.01,-2.01,-2.36,-2.36,2.36,2.77,2.30,0.36,0.36,0.36
49.46,-1.97,-1.97,-2.29,-2.29,2.30,2.72,2.23,0.33,0.33,0.32
49.96,-1.93,-1.93,-2.22,-2.23,2.23,2.66,2.17,0.31,0.31,0.29
50.46,-1.89,-1.89,-2.18,-2.17,2.17,2.61,2.11,0.29,0.29,0.29
50.96,-1.85,-1.85,-2.11,-2.11,2.11,2.55,2.04,0.27,0.26,0.27
51.47,-1.82,-1.82,-2.05,-2.06,2.05,2.50,1.98,0.24,0.24,0.23
51.99,-1.79,-1.78,-2.00,-2.00,2.00,2.44,1.92,0.21,0.22,0.21
52.51,-1.75,-1.75,-1.94,-1.94,1.94,2.39,1.87,0.20,0.19,0.20
53.03,-1.72,-1.72,-1.89,-1.89,1.89,2.33,1.81,0.17,0.17,0.17
53.56,-1.69,-1.69,-1.83,-1.84,1.83,2.27,1.75,0.15,0.15,0.15
54.10,-1.66,-1.66,-1.78,-1.78,1.78,2.21,1.70,0.12,0.12,0.12
54.64,-1.63,-1.63,-1.72,-1.72,1.72,2.15,1.65,0.10,0.10,0.10
55.18,-1.60,-1.60,-1.67,-1.67,1.67,2.09,1.59,0.07,0.07,0.07
55.74,-1.57,-1.57,-1.61,-1.61,1.62,2.03,1.54,0.05,0.05,0.04
56.29,-1.54,-1.54,-1.56,-1.56,1.56,1.97,1.49,0.02,0.02,0.03
56.86,-1.52,-1.51,-1.51,-1.51,1.51,1.91,1.44,-0.01,-0.00,-0.00
57.42,-1.49,-1.49,-1.46,-1.46,1.46,1.85,1.39,-0.03,-0.03,-0.03
58.00,-1.46,-1.46,-1.41,-1.40,1.41,1.79,1.34,-0.05,-0.05,-0.05
58.58,-1.43,-1.43,-1.35,-1.35,1.36,1.72,1.29,-0.07,-0.07,-0.08
59.16,-1.41,-1.40,-1.31,-1.30,1.31,1.66,1.24,-0.10,-0.10,-0.10
59.76,-1.38,-1.38,-1.26,-1.25,1.25,1.59,1.19,-0.12,-0.13,-0.12
60.35,-1.36,-1.35,-1.20,-1.21,1.20,1.53,1.14,-0.16,-0.15,-0.15
60.96,-1.33,-1.33,-1.16,-1.15,1.15,1.46,1.09,-0.18,-0.18,-0.17
61.57,-1.31,-1.31,-1.10,-1.10,1.10,1.40,1.04,-0.21,-0.21,-0.21
62.18,-1.29,-1.28,-1.04,-1.04,1.04,1.33,0.98,-0.24,-0.24,-0.24
62.80,-1.26,-1.26,-0.99,-0.99,0.99,1.26,0.93,-0.26,-0.27,-0.27
63.43,-1.24,-1.24,-0.93,-0.94,0.94,1.19,0.88,-0.29,-0.29,-0.30
64.07,-1.22,-1.21,-0.89,-0.89,0.89,1.12,0.83,-0.33,-0.32,-0.33
64.71,-1.19,-1.19,-0.84,-0.84,0.84,1.05,0.77,-0.34,-0.35,-0.35
65.35,-1.17,-1.17,-0.79,-0.80,0.79,0.98,0.72,-0.37,-0.37,-0.37
66.01,-1.15,-1.14,-0.76,-0.75,0.75,0.91,0.66,-0.40,-0.39,-0.39
66.67,-1.12,-1.12,-0.70,-0.70,0.70,0.84,0.61,-0.42,-0.42,-0.42
67.33,-1.10,-1.10,-0.66,-0.66,0.66,0.77,0.55,-0.44,-0.44,-0.44
68.01,-1.08,-1.08,-0.61,-0.61,0.61,0.70,0.50,-0.47,-0.47,-0.47
68.69,-1.06,-1.05,-0.57,-0.56,0.56,0.62,0.44,-0.50,-0.49,-0.49
69.37,-1.03,-1.03,-0.50,-0.51,0.51,0.55,0.38,-0.51,-0.52,-0.52
70.07,-1.01,-1.01,-0.46,-0.46,0.46,0.48,0.32,-0.54,-0.55,-0.55
70.77,-0.99,-0.99,-0.42,-0.41,0.41,0.40,0.26,-0.57,-0.57,-0.57
71.48,-0.97,-0.96,-0.36,-0.36,0.36,0.33,0.20,-0.61,-0.60,-0.60
72.19,-0.94,-0.94,-0.31,-0.31,0.31,0.25,0.14,-0.63,-0.63,-0.63
72.91,-0.92,-0.92,-0.25,-0.25,0.25,0.18,0.08,-0.67,-0.67,-0.67
73.64,-0.90,-0.89,-0.19,-0.19,0.19,0.10,0.02,-0.70,-0.70,-0.70
74.38,-0.87,-0.87,-0.14,-0.13,0.13,0.02,-0.04,-0.73,-0.74,-0.73
75.12,-0.85,-0.84,-0.07,-0.07,0.07,-0.05,-0.11,-0.77,-0.77,-0.78
75.87,-0.82,-0.82,-0.01,-0.01,0.01,-0.13,-0.17,-0.81,-0.81,-0.81
76.63,-0.79,-0.79,0.05,0.05,-0.05,-0.21,-0.24,-0.84,-0.84,-0.84
77.40,-0.77,-0.76,0.11,0.12,-0.12,-0.28,-0.30,-0.88,-0.88,-0.88
78.17,-0.74,-0.74,0.19,0.18,-0.18,-0.36,-0.37,-0.92,-0.92,-0.93
78.95,-0.71,-0.71,0.25,0.25,-0.25,-0.44,-0.44,-0.96,-0.96,-0.95
79.74,-0.68,-0.68,0.32,0.32,-0.32,-0.52,-0.51,-1.00,-1.00,-1.00
80.54,-0.65,-0.65,0.39,0.39,-0.40,-0.60,-0.58,-1.04,-1.04,-1.04
81.35,-0.62,-0.62,0.47,0.47,-0.47,-0.67,-0.65,-1.09,-1.09,-1.09
82.16,-0.59,-0.58,0.54,0.54,-0.55,-0.75,-0.72,-1.13,-1.13,-1.13
82.98,-0.55,-0.55,0.62,0.63,-0.62,-0.83,-0.79,-1.17,-1.17,-1.17
83.81,-0.52,-0.52,0.71,0.70,-0.70,-0.91,-0.86,-1.22,-1.22,-1.22
84.65,-0.49,-0.49,0.79,0.78,-0.78,-0.99,-0.93,-1.27,-1.27,-1.27
85.50,-0.46,-0.45,0.85,0.86,-0.86,-1.07,-1.01,-1.32,-1.31,-1.31
86.35,-0.42,-0.42,0.94,0.94,-0.94,-1.14,-1.09,-1.36,-1.36,-1.36
87.22,-0.39,-0.39,1.02,1.02,-1.02,-1.22,-1.16,-1.41,-1.41,-1.41
88.09,-0.36,-0.36,1.10,1.10,-1.10,-1.30,-1.24,-1.46,-1.46,-1.46
88.97,-0.33,-0.33,1.17,1.18,-1.18,-1.38,-1.32,-1.51,-1.51,-1.50
89.86,-0.30,-0.30,1.26,1.26,-1.26,-1.45,-1.40,-1.56,-1.56,-1.55
90.76,-0.27,-0.27,1.35,1.34,-1.34,-1.53,-1.48,-1.61,-1.61,-1.62
91.66,-0.24,-0.24,1.42,1.43,-1.42,-1.60,-1.56,-1.66,-1.66,-1.66
92.58,-0.21,-0.21,1.51,1.51,-1.50,-1.68,-1.65,-1.71,-1.71,-1.72
93.51,-0.18,-0.18,1.58,1.58,-1.58,-1.75,-1.73,-1.76,-1.76,-1.75
94.44,-0.16,-0.15,1.65,1.66,-1.66,-1.83,-1.82,-1.82,-1.82,-1.81
95.39,-0.13,-0.13,1.74,1.74,-1.74,-1.90,-1.90,-1.87,-1.87,-1.86
96.34,-0.11,-0.10,1.82,1.82,-1.82,-1.97,-1.99,-1.93,-1.93,-1.93
97.30,-0.08,-0.08,1.91,1.90,-1.90,-2.05,-2.07,-1.98,-1.98,-1.98
98.28,-0.06,-0.06,1.98,1.99,-1.98,-2.12,-2.16,-2.04,-2.04,-2.04
99.26,-0.04,-0.04,2.07,2.06,-2.06,-2.19,-2.25,-2.10,-2.10,-2.10
100.25,-0.02,-0.02,2.14,2.14,-2.14,-2.26,-2.34,-2.16,-2.16,-2.16
101.25,0.00,0.00,2.22,2.22,-2.22,-2.33,-2.43,-2.22,-2.22,-2.22
102.27,0.02,0.02,2.30,2.30,-2.30,-2.39,-2.52,-2.28,-2.28,-2.28
103.29,0.03,0.04,2.38,2.38,-2.38,-2.46,-2.61,-2.35,-2.34,-2.35
104.32,0.05,0.05,2.46,2.46,-2.45,-2.52,-2.69,-2.40,-2.40,-2.40
105.37,0.06,0.06,2.52,2.53,-2.53,-2.59,-2.78,-2.47,-2.47,-2.46
106.42,0.07,0.07,2.60,2.60,-2.60,-2.65,-2.87,-2.53,-2.53,-2.53
107.48,0.08,0.08,2.68,2.68,-2.68,-2.71,-2.95,-2.59,-2.59,-2.59
108.56,0.09,0.09,2.75,2.75,-2.75,-2.77,-3.03,-2.65,-2.66,-2.66
109.64,0.09,0.10,2.82,2.82,-2.82,-2.83,-3.11,-2.73,-2.72,-2.73
110.74,0.10,0.10,2.88,2.89,-2.89,-2.89,-3.19,-2.79,-2.79,-2.78
111.85,0.10,0.11,2.95,2.96,-2.96,-2.94,-3.27,-2.86,-2.86,-2.85
112.97,0.11,0.11,3.05,3.03,-3.03,-3.00,-3.34,-2.92,-2.92,-2.93
114.10,0.11,0.11,3.10,3.10,-3.10,-3.05,-3.41,-2.99,-2.99,-2.99
115.24,0.11,0.11,3.17,3.17,-3.17,-3.10,-3.47,-3.05,-3.05,-3.05
116.39,0.10,0.11,3.23,3.23,-3.23,-3.15,-3.53,-3.13,-3.12,-3.13
117.55,0.10,0.10,3.29,3.29,-3.29,-3.20,-3.58,-3.19,-3.19,-3.19
118.73,0.09,0.10,3.35,3.35,-3.35,-3.24,-3.63,-3.26,-3.25,-3.26
119.92,0.09,0.09,3.40,3.40,-3.40,-3.29,-3.67,-3.31,-3.31,-3.31
121.12,0.08,0.08,3.45,3.45,-3.45,-3.33,-3.71,-3.37,-3.37,-3.37
122.33,0.07,0.07,3.51,3.50,-3.50,-3.37,-3.74,-3.43,-3.43,-3.43
123.55,0.05,0.06,3.54,3.54,-3.55,-3.41,-3.76,-3.49,-3.49,-3.49
124.79,0.04,0.04,3.59,3.58,-3.59,-3.44,-3.78,-3.55,-3.55,-3.55
126.03,0.02,0.02,3.62,3.62,-3.63,-3.48,-3.80,-3.61,-3.61,-3.60
127.29,0.00,0.00,3.66,3.67,-3.67,-3.51,-3.80,-3.66,-3.66,-3.66
128.57,-0.02,-0.02,3.71,3.70,-3.70,-3.55,-3.80,-3.72,-3.72,-3.73
129.85,-0.04,-0.04,3.74,3.74,-3.74,-3.57,-3.79,-3.77,-3.77,-3.78
131.15,-0.06,-0.06,3.77,3.77,-3.76,-3.60,-3.78,-3.82,-3.82,-3.82
132.46,-0.09,-0.08,3.79,3.79,-3.79,-3.63,-3.76,-3.88,-3.87,-3.88
133.79,-0.11,-0.11,3.81,3.82,-3.81,-3.65,-3.74,-3.92,-3.92,-3.92
135.12,-0.14,-0.14,3.84,3.83,-3.83,-3.67,-3.71,-3.97,-3.97,-3.97
136.48,-0.17,-0.17,3.84,3.84,-3.84,-3.70,-3.68,-4.01,-4.01,-4.01
137.84,-0.21,-0.20,3.84,3.85,-3.85,-3.71,-3.64,-4.06,-4.05,-4.04
139.22,-0.24,-0.24,3.86,3.86,-3.85,-3.73,-3.60,-4.09,-4.09,-4.10
140.61,-0.27,-0.27,3.87,3.86,-3.85,-3.74,-3.56,-4.12,-4.12,-4.14
142.02,-0.31,-0.31,3.84,3.85,-3.85,-3.76,-3.51,-4.16,-4.16,-4.15
143.44,-0.35,-0.35,3.84,3.84,-3.84,-3.77,-3.46,-4.19,-4.19,-4.18
144.87,-0.39,-0.39,3.84,3.83,-3.83,-3.78,-3.41,-4.22,-4.22,-4.22
146.32,-0.43,-0.43,3.82,3.82,-3.82,-3.78,-3.36,-4.25,-4.25,-4.25
147.78,-0.47,-0.47,3.80,3.81,-3.81,-3.79,-3.31,-4.27,-4.28,-4.27
149.26,-0.52,-0.51,3.78,3.79,-3.79,-3.79,-3.26,-4.31,-4.30,-4.30
150.75,-0.56,-0.56,3.78,3.77,-3.77,-3.79,-3.20,-4.33,-4.33,-4.34
152.26,-0.61,-0.61,3.76,3.75,-3.75,-3.79,-3.15,-4.35,-4.36,-4.36
153.78,-0.67,-0.66,3.72,3.72,-3.72,-3.79,-3.09,-4.39,-4.39,-4.39
155.32,-0.72,-0.72,3.70,3.69,-3.70,-3.79,-3.04,-4.41,-4.42,-4.41
156.88,-0.78,-0.77,3.66,3.66,-3.67,-3.78,-2.98,-4.45,-4.44,-4.44
158.44,-0.83,-0.83,3.64,3.64,-3.64,-3.78,-2.93,-4.47,-4.47,-4.47
160.03,-0.89,-0.89,3.61,3.61,-3.61,-3.77,-2.88,-4.50,-4.50,-4.50
161.63,-0.95,-0.95,3.59,3.58,-3.58,-3.76,-2.83,-4.52,-4.52,-4.53
163.24,-1.01,-1.01,3.55,3.55,-3.55,-3.74,-2.78,-4.55,-4.55,-4.55
164.88,-1.07,-1.07,3.51,3.51,-3.51,-3.73,-2.73,-4.58,-4.58,-4.57
166.53,-1.13,-1.13,3.48,3.48,-3.48,-3.71,-2.69,-4.61,-4.61,-4.60
168.19,-1.19,-1.19,3.45,3.45,-3.45,-3.70,-2.64,-4.64,-4.64,-4.64
169.87,-1.25,-1.25,3.42,3.42,-3.42,-3.68,-2.60,-4.66,-4.66,-4.67
171.57,-1.31,-1.31,3.39,3.39,-3.39,-3.66,-2.56,-4.70,-4.70,-4.70
173.29,-1.37,-1.37,3.35,3.36,-3.36,-3.64,-2.52,-4.73,-4.73,-4.72
175.02,-1.43,-1.42,3.33,3.34,-3.34,-3.61,-2.49,-4.77,-4.76,-4.76
176.77,-1.48,-1.48,3.32,3.32,-3.32,-3.59,-2.45,-4.80,-4.80,-4.80
178.54,-1.53,-1.53,3.31,3.31,-3.30,-3.56,-2.42,-4.83,-4.83,-4.84
180.32,-1.58,-1.58,3.29,3.29,-3.29,-3.54,-2.39,-4.87,-4.87,-4.87
182.13,-1.63,-1.62,3.27,3.28,-3.28,-3.51,-2.36,-4.91,-4.91,-4.90
183.95,-1.67,-1.67,3.28,3.27,-3.27,-3.48,-2.33,-4.94,-4.94,-4.94
185.79,-1.71,-1.71,3.27,3.27,-3.27,-3.45,-2.31,-4.98,-4.98,-4.98
187.65,-1.75,-1.74,3.27,3.27,-3.27,-3.41,-2.29,-5.01,-5.01,-5.02
189.52,-1.78,-1.78,3.27,3.27,-3.27,-3.38,-2.27,-5.04,-5.04,-5.05
191.42,-1.81,-1.81,3.27,3.26,-3.27,-3.34,-2.25,-5.07,-5.08,-5.08
193.33,-1.84,-1.83,3.26,3.26,-3.27,-3.31,-2.23,-5.11,-5.10,-5.09
195.27,-1.86,-1.86,3.27,3.27,-3.27,-3.27,-2.21,-5.13,-5.13,-5.12
197.22,-1.88,-1.88,3.27,3.28,-3.28,-3.23,-2.20,-5.15,-5.16,-5.15
199.19,-1.91,-1.90,3.29,3.28,-3.28,-3.19,-2.18,-5.19,-5.18,-5.20
201.18,-1.93,-1.93,3.29,3.29,-3.28,-3.15,-2.17,-5.21,-5.21,-5.21
203.19,-1.95,-1.95,3.28,3.28,-3.28,-3.10,-2.16,-5.23,-5.23,-5.23
205.23,-1.98,-1.98,3.28,3.27,-3.28,-3.06,-2.15,-5.25,-5.25,-5.26
207.28,-2.01,-2.00,3.25,3.27,-3.27,-3.01,-2.14,-5.28,-5.27,-5.26
209.35,-2.04,-2.04,3.26,3.26,-3.26,-2.97,-2.13,-5.29,-5.29,-5.30
211.44,-2.07,-2.07,3.25,3.24,-3.24,-2.92,-2.13,-5.31,-5.31,-5.32
213.56,-2.11,-2.11,3.23,3.22,-3.22,-2.87,-2.12,-5.32,-5.33,-5.33
215.69,-2.16,-2.16,3.18,3.19,-3.19,-2.82,-2.11,-5.34,-5.34,-5.34
217.85,-2.21,-2.21,3.14,3.15,-3.15,-2.77,-2.10,-5.36,-5.36,-5.35
220.03,-2.26,-2.26,3.11,3.11,-3.11,-2.72,-2.10,-5.37,-5.37,-5.37
222.23,-2.31,-2.31,3.08,3.07,-3.06,-2.66,-2.09,-5.37,-5.37,-5.38
224.45,-2.37,-2.37,3.01,3.02,-3.01,-2.61,-2.08,-5.38,-5.38,-5.37
226.70,-2.44,-2.43,2.95,2.95,-2.95,-2.55,-2.07,-5.39,-5.38,-5.39
228.96,-2.50,-2.50,2.89,2.88,-2.88,-2.49,-2.06,-5.38,-5.38,-5.39
231.25,-2.57,-2.57,2.81,2.81,-2.81,-2.43,-2.05,-5.38,-5.38,-5.38
233.57,-2.64,-2.64,2.73,2.73,-2.74,-2.37,-2.04,-5.37,-5.37,-5.37
235.90,-2.72,-2.71,2.65,2.65,-2.66,-2.31,-2.02,-5.37,-5.37,-5.37
238.26,-2.79,-2.79,2.58,2.57,-2.57,-2.25,-2.01,-5.36,-5.36,-5.37
240.64,-2.87,-2.86,2.48,2.48,-2.48,-2.18,-1.99,-5.35,-5.35,-5.35
243.05,-2.94,-2.94,2.40,2.39,-2.39,-2.12,-1.97,-5.33,-5.33,-5.33
245.48,-3.02,-3.02,2.30,2.30,-2.30,-2.05,-1.95,-5.32,-5.32,-5.31
247.93,-3.10,-3.10,2.20,2.20,-2.20,-1.98,-1.93,-5.30,-5.30,-5.30
250.41,-3.18,-3.18,2.11,2.11,-2.10,-1.91,-1.90,-5.28,-5.28,-5.29
252.92,-3.26,-3.26,2.00,2.00,-2.00,-1.84,-1.87,-5.26,-5.26,-5.26
255.45,-3.34,-3.34,1.90,1.89,-1.90,-1.77,-1.84,-5.24,-5.24,-5.23
258.00,-3.43,-3.42,1.78,1.79,-1.79,-1.70,-1.81,-5.22,-5.22,-5.21
260.58,-3.51,-3.51,1.69,1.69,-1.69,-1.62,-1.78,-5.20,-5.20,-5.20
263.19,-3.59,-3.59,1.59,1.59,-1.58,-1.54,-1.74,-5.17,-5.17,-5.17
265.82,-3.67,-3.67,1.48,1.48,-1.48,-1.46,-1.70,-5.14,-5.14,-5.15
268.48,-3.75,-3.75,1.38,1.37,-1.37,-1.38,-1.66,-5.12,-5.12,-5.13
271.16,-3.84,-3.83,1.25,1.26,-1.27,-1.30,-1.62,-5.10,-5.10,-5.09
273.87,-3.92,-3.92,1.16,1.16,-1.16,-1.22,-1.57,-5.08,-5.08,-5.08
276.61,-4.00,-4.00,1.05,1.05,-1.05,-1.13,-1.53,-5.05,-5.05,-5.04
279.38,-4.08,-4.08,0.95,0.95,-0.95,-1.04,-1.48,-5.02,-5.02,-5.03
282.17,-4.16,-4.16,0.85,0.85,-0.84,-0.95,-1.43,-5.00,-5.00,-5.00
284.99,-4.24,-4.24,0.74,0.74,-0.73,-0.86,-1.38,-4.97,-4.97,-4.98
287.84,-4.33,-4.32,0.63,0.63,-0.63,-0.77,-1.33,-4.95,-4.95,-4.95
290.72,-4.41,-4.41,0.51,0.52,-0.52,-0.68,-1.28,-4.93,-4.93,-4.92
293.63,-4.49,-4.49,0.42,0.41,-0.41,-0.58,-1.22,-4.90,-4.90,-4.90
296.57,-4.57,-4.57,0.30,0.30,-0.30,-0.48,-1.17,-4.87,-4.87,-4.87
299.53,-4.65,-4.65,0.19,0.19,-0.19,-0.38,-1.12,-4.84,-4.84,-4.84
302.53,-4.73,-4.73,0.09,0.08,-0.08,-0.28,-1.06,-4.80,-4.81,-4.81
305.55,-4.81,-4.81,-0.04,-0.03,0.03,-0.18,-1.00,-4.77,-4.77,-4.77
308.61,-4.89,-4.88,-0.14,-0.15,0.14,-0.08,-0.95,-4.74,-4.74,-4.74
311.69,-4.96,-4.96,-0.25,-0.26,0.25,0.03,-0.89,-4.70,-4.71,-4.71
314.81,-5.04,-5.04,-0.37,-0.36,0.36,0.14,-0.83,-4.68,-4.67,-4.67
317.96,-5.11,-5.11,-0.46,-0.47,0.47,0.24,-0.78,-4.64,-4.64,-4.64
321.14,-5.19,-5.18,-0.57,-0.57,0.57,0.35,-0.72,-4.61,-4.61,-4.62
324.35,-5.26,-5.26,-0.67,-0.67,0.67,0.46,-0.66,-4.58,-4.58,-4.59
327.59,-5.33,-5.33,-0.78,-0.77,0.77,0.57,-0.61,-4.55,-4.56,-4.55
330.87,-5.40,-5.40,-0.87,-0.87,0.87,0.68,-0.55,-4.53,-4.53,-4.52
334.18,-5.47,-5.46,-0.96,-0.96,0.96,0.78,-0.49,-4.51,-4.50,-4.51
337.52,-5.53,-5.53,-1.05,-1.05,1.05,0.89,-0.43,-4.48,-4.48,-4.48
340.90,-5.59,-5.59,-1.13,-1.13,1.14,1.00,-0.38,-4.45,-4.45,-4.45
344.30,-5.65,-5.65,-1.21,-1.22,1.22,1.10,-0.32,-4.43,-4.43,-4.43
347.75,-5.71,-5.71,-1.30,-1.30,1.30,1.20,-0.26,-4.41,-4.41,-4.41
351.23,-5.76,-5.76,-1.37,-1.37,1.37,1.30,-0.21,-4.39,-4.39,-4.39
354.74,-5.82,-5.81,-1.45,-1.44,1.44,1.39,-0.15,-4.38,-4.37,-4.37
358.28,-5.86,-5.86,-1.50,-1.51,1.50,1.48,-0.09,-4.35,-4.35,-4.35
361.87,-5.90,-5.90,-1.56,-1.57,1.57,1.57,-0.03,-4.33,-4.33,-4.34
365.49,-5.94,-5.93,-1.63,-1.62,1.62,1.65,0.02,-4.32,-4.31,-4.31
369.14,-5.97,-5.97,-1.67,-1.67,1.67,1.72,0.08,-4.30,-4.30,-4.30
372.83,-6.00,-6.00,-1.72,-1.72,1.72,1.79,0.14,-4.28,-4.28,-4.28
376.56,-6.02,-6.02,-1.75,-1.76,1.76,1.85,0.19,-4.26,-4.26,-4.26
380.33,-6.04,-6.04,-1.80,-1.80,1.80,1.90,0.25,-4.24,-4.24,-4.23
384.13,-6.05,-6.05,-1.83,-1.83,1.83,1.95,0.30,-4.22,-4.22,-4.22
387.97,-6.06,-6.06,-1.86,-1.86,1.86,1.98,0.36,-4.20,-4.20,-4.20
391.85,-6.06,-6.06,-1.88,-1.88,1.88,2.01,0.41,-4.17,-4.18,-4.18
395.77,-6.06,-6.06,-1.91,-1.90,1.90,2.03,0.47,-4.16,-4.16,-4.15
399.73,-6.05,-6.05,-1.91,-1.91,1.91,2.04,0.52,-4.13,-4.13,-4.13
403.72,-6.04,-6.04,-1.92,-1.92,1.92,2.04,0.58,-4.11,-4.11,-4.11
407.76,-6.02,-6.02,-1.92,-1.93,1.93,2.03,0.63,-4.09,-4.09,-4.09
411.84,-6.00,-6.00,-1.93,-1.93,1.93,2.02,0.68,-4.07,-4.07,-4.07
415.96,-5.97,-5.97,-1.92,-1.92,1.92,2.00,0.73,-4.05,-4.05,-4.05
420.12,-5.94,-5.94,-1.91,-1.91,1.91,1.97,0.78,-4.03,-4.03,-4.03
424.32,-5.90,-5.90,-1.90,-1.90,1.89,1.93,0.83,-4.00,-4.01,-4.00
428.56,-5.86,-5.86,-1.88,-1.87,1.87,1.89,0.88,-3.99,-3.98,-3.98
432.85,-5.81,-5.81,-1.85,-1.85,1.84,1.84,0.92,-3.96,-3.96,-3.96
437.18,-5.75,-5.75,-1.81,-1.82,1.81,1.79,0.97,-3.93,-3.93,-3.93
441.55,-5.69,-5.69,-1.78,-1.78,1.78,1.73,1.01,-3.91,-3.91,-3.90
445.96,-5.62,-5.62,-1.73,-1.74,1.74,1.67,1.05,-3.88,-3.88,-3.88
450.42,-5.56,-5.56,-1.69,-1.70,1.70,1.60,1.08,-3.86,-3.85,-3.87
454.93,-5.49,-5.49,-1.66,-1.65,1.66,1.54,1.11,-3.83,-3.83,-3.83
459.48,-5.42,-5.42,-1.61,-1.61,1.61,1.46,1.14,-3.80,-3.80,-3.81
