frequency,raw,error,smoothed,error_smoothed,equalization,parametric_eq,equalized_raw,equalized_smoothed,target
20.00,3.65,1.90,3.64,1.90,-1.90,-1.04,1.75,1.74,1.74
20.20,3.66,1.91,3.66,1.91,-1.91,-1.07,1.74,1.74,1.75
20.40,3.67,1.92,3.67,1.92,-1.92,-1.10,1.74,1.75,1.75
20.61,3.69,1.94,3.68,1.93,-1.93,-1.13,1.75,1.75,1.75
20.81,3.70,1.94,3.70,1.94,-1.94,-1.16,1.75,1.75,1.75
21.02,3.71,1.95,3.71,1.96,-1.96,-1.19,1.75,1.75,1.75
21.23,3.72,1.96,3.72,1.97,-1.97,-1.22,1.75,1.76,1.76
21.44,3.74,1.98,3.73,1.98,-1.98,-1.26,1.76,1.76,1.76
21.66,3.75,1.99,3.75,1.99,-1.99,-1.29,1.76,1.76,1.76
21.87,3.76,1.99,3.76,2.00,-2.00,-1.33,1.76,1.76,1.76
22.09,3.78,2.01,3.77,2.01,-2.01,-1.37,1.77,1.76,1.77
22.31,3.79,2.02,3.79,2.02,-2.02,-1.40,1.77,1.77,1.77
22.54,3.80,2.03,3.80,2.03,-2.03,-1.44,1.77,1.77,1.77
22.76,3.82,2.05,3.81,2.04,-2.04,-1.48,1.78,1.77,1.77
22.99,3.83,2.05,3.82,2.05,-2.05,-1.52,1.78,1.77,1.77
23.22,3.84,2.06,3.84,2.06,-2.06,-1.57,1.78,1.77,1.77
23.45,3.85,2.07,3.85,2.07,-2.07,-1.61,1.78,1.78,1.78
23.69,3.86,2.08,3.86,2.08,-2.08,-1.65,1.77,1.78,1.78
23.92,3.88,2.10,3.87,2.09,-2.09,-1.70,1.79,1.78,1.78
24.16,3.89,2.10,3.88,2.10,-2.10,-1.74,1.79,1.78,1.78
24.40,3.90,2.11,3.90,2.11,-2.11,-1.79,1.79,1.79,1.79
24.65,3.91,2.12,3.91,2.12,-2.12,-1.83,1.78,1.79,1.79
24.89,3.92,2.13,3.92,2.13,-2.13,-1.88,1.79,1.79,1.79
25.14,3.94,2.14,3.93,2.14,-2.14,-1.93,1.79,1.79,1.79
25.39,3.95,2.15,3.95,2.15,-2.15,-1.98,1.79,1.79,1.80
25.65,3.96,2.16,3.96,2.16,-2.16,-2.02,1.79,1.80,1.80
25.91,3.98,2.18,3.97,2.17,-2.17,-2.07,1.80,1.80,1.80
26.16,3.99,2.18,3.98,2.18,-2.18,-2.12,1.80,1.80,1.80
26.43,4.00,2.19,4.00,2.19,-2.19,-2.17,1.80,1.80,1.80
26.69,4.01,2.20,4.01,2.21,-2.21,-2.21,1.80,1.80,1.81
26.96,4.03,2.22,4.02,2.22,-2.22,-2.26,1.81,1.81,1.81
27.23,4.04,2.23,4.03,2.23,-2.23,-2.31,1.81,1.81,1.81
27.50,4.05,2.24,4.05,2.24,-2.24,-2.35,1.81,1.81,1.81
27.77,4.06,2.24,4.06,2.25,-2.25,-2.39,1.81,1.81,1.81
28.05,4.07,2.25,4.07,2.26,-2.26,-2.44,1.81,1.81,1.81
28.33,4.08,2.26,4.08,2.27,-2.27,-2.48,1.81,1.81,1.81
28.62,4.09,2.27,4.09,2.27,-2.27,-2.52,1.81,1.82,1.82
28.90,4.11,2.29,4.10,2.28,-2.28,-2.55,1.82,1.82,1.82
29.19,4.12,2.30,4.11,2.29,-2.29,-2.59,1.83,1.82,1.82
29.48,4.12,2.30,4.11,2.30,-2.30,-2.62,1.82,1.82,1.82
29.78,4.13,2.31,4.12,2.30,-2.30,-2.65,1.82,1.82,1.82
30.08,4.14,2.32,4.13,2.31,-2.31,-2.67,1.83,1.82,1.82
30.38,4.14,2.32,4.13,2.32,-2.32,-2.70,1.82,1.82,1.82
30.68,4.14,2.32,4.14,2.32,-2.32,-2.72,1.81,1.82,1.82
30.99,4.14,2.32,4.15,2.33,-2.33,-2.74,1.81,1.82,1.82
31.30,4.15,2.33,4.16,2.34,-2.34,-2.75,1.81,1.82,1.82
31.61,4.16,2.34,4.16,2.35,-2.35,-2.76,1.81,1.82,1.82
31.93,4.17,2.35,4.17,2.36,-2.36,-2.77,1.81,1.82,1.82
32.24,4.18,2.36,4.18,2.36,-2.36,-2.78,1.81,1.82,1.82
32.57,4.19,2.37,4.19,2.37,-2.37,-2.78,1.81,1.82,1.82
32.89,4.21,2.39,4.20,2.39,-2.39,-2.78,1.82,1.82,1.82
33.22,4.22,2.40,4.21,2.40,-2.40,-2.78,1.82,1.82,1.82
33.55,4.23,2.41,4.22,2.41,-2.41,-2.77,1.82,1.81,1.82
33.89,4.24,2.42,4.23,2.42,-2.42,-2.77,1.82,1.81,1.82
34.23,4.25,2.43,4.24,2.43,-2.43,-2.76,1.82,1.81,1.81
34.57,4.26,2.44,4.25,2.44,-2.44,-2.75,1.82,1.81,1.81
34.92,4.27,2.46,4.26,2.45,-2.45,-2.74,1.82,1.81,1.81
35.27,4.28,2.47,4.27,2.46,-2.46,-2.73,1.82,1.81,1.81
35.62,4.28,2.47,4.28,2.47,-2.47,-2.71,1.80,1.81,1.81
35.97,4.29,2.48,4.29,2.48,-2.48,-2.70,1.80,1.80,1.81
36.33,4.30,2.49,4.30,2.49,-2.49,-2.69,1.80,1.80,1.80
36.70,4.30,2.50,4.30,2.50,-2.50,-2.67,1.79,1.80,1.80
37.06,4.31,2.51,4.31,2.52,-2.52,-2.66,1.79,1.80,1.80
37.43,4.32,2.52,4.32,2.53,-2.53,-2.64,1.79,1.79,1.80
37.81,4.33,2.53,4.33,2.54,-2.54,-2.63,1.79,1.79,1.79
38.19,4.35,2.56,4.34,2.56,-2.56,-2.62,1.79,1.79,1.79
38.57,4.36,2.57,4.35,2.57,-2.57,-2.60,1.79,1.78,1.79
38.95,4.37,2.58,4.37,2.59,-2.59,-2.59,1.78,1.78,1.78
39.34,4.38,2.60,4.38,2.60,-2.60,-2.58,1.77,1.78,1.78
39.74,4.39,2.61,4.39,2.62,-2.62,-2.57,1.77,1.77,1.77
40.14,4.41,2.64,4.41,2.64,-2.64,-2.56,1.77,1.77,1.77
40.54,4.42,2.65,4.42,2.65,-2.65,-2.56,1.76,1.76,1.76
40.94,4.44,2.68,4.43,2.67,-2.67,-2.55,1.76,1.76,1.76
41.35,4.45,2.69,4.45,2.69,-2.69,-2.55,1.76,1.76,1.75
41.76,4.46,2.71,4.46,2.71,-2.71,-2.55,1.75,1.75,1.75
42.18,4.48,2.73,4.47,2.73,-2.73,-2.55,1.75,1.75,1.75
42.60,4.49,2.75,4.48,2.74,-2.74,-2.55,1.74,1.74,1.74
43.03,4.50,2.76,4.50,2.76,-2.76,-2.55,1.73,1.74,1.73
43.46,4.51,2.78,4.51,2.78,-2.78,-2.56,1.73,1.73,1.73
43.90,4.52,2.79,4.52,2.79,-2.79,-2.57,1.72,1.72,1.72
44.33,4.53,2.81,4.52,2.81,-2.81,-2.58,1.72,1.72,1.72
44.78,4.54,2.83,4.53,2.82,-2.82,-2.59,1.72,1.71,1.71
45.23,4.54,2.83,4.54,2.83,-2.83,-2.60,1.70,1.70,1.70
45.68,4.55,2.85,4.54,2.85,-2.85,-2.62,1.70,1.69,1.69
46.13,4.55,2.86,4.54,2.86,-2.86,-2.63,1.69,1.69,1.69
46.60,4.55,2.87,4.54,2.87,-2.87,-2.65,1.68,1.68,1.68
47.06,4.55,2.88,4.54,2.88,-2.88,-2.68,1.67,1.66,1.67
47.53,4.54,2.88,4.54,2.89,-2.89,-2.70,1.65,1.65,1.66
48.01,4.54,2.89,4.54,2.89,-2.89,-2.72,1.64,1.64,1.64
48.49,4.54,2.90,4.53,2.90,-2.90,-2.75,1.63,1.63,1.63
48.97,4.53,2.91,4.53,2.91,-2.91,-2.78,1.61,1.62,1.62
49.46,4.53,2.92,4.53,2.92,-2.92,-2.81,1.60,1.61,1.61
49.96,4.52,2.92,4.52,2.93,-2.93,-2.84,1.58,1.59,1.59
50.46,4.52,2.94,4.52,2.94,-2.94,-2.87,1.57,1.58,1.58
50.96,4.52,2.95,4.52,2.95,-2.95,-2.90,1.56,1.56,1.57
51.47,4.52,2.96,4.52,2.97,-2.97,-2.94,1.55,1.55,1.55
51.99,4.52,2.98,4.52,2.98,-2.98,-2.97,1.54,1.54,1.54
52.51,4.52,2.99,4.52,2.99,-2.99,-3.01,1.52,1.52,1.52
53.03,4.52,3.01,4.52,3.01,-3.01,-3.05,1.51,1.51,1.51
53.56,4.52,3.02,4.51,3.02,-3.02,-3.08,1.49,1.49,1.49
54.10,4.52,3.04,4.51,3.04,-3.04,-3.12,1.48,1.48,1.48
54.64,4.52,3.06,4.52,3.06,-3.06,-3.16,1.46,1.46,1.46
55.18,4.52,3.07,4.52,3.07,-3.07,-3.19,1.44,1.44,1.44
55.74,4.52,3.09,4.52,3.09,-3.09,-3.23,1.43,1.43,1.43
56.29,4.52,3.11,4.52,3.11,-3.11,-3.27,1.41,1.41,1.41
56.86,4.52,3.12,4.52,3.12,-3.12,-3.30,1.39,1.39,1.39
57.42,4.52,3.14,4.52,3.14,-3.14,-3.34,1.37,1.37,1.37
58.00,4.52,3.16,4.52,3.16,-3.16,-3.37,1.35,1.35,1.35
58.58,4.52,3.18,4.52,3.18,-3.18,-3.40,1.34,1.34,1.34
59.16,4.52,3.20,4.52,3.20,-3.20,-3.43,1.32,1.32,1.32
59.76,4.52,3.22,4.52,3.22,-3.22,-3.46,1.30,1.30,1.30
60.35,4.52,3.24,4.52,3.24,-3.24,-3.49,1.27,1.27,1.28
60.96,4.52,3.26,4.52,3.26,-3.26,-3.51,1.25,1.25,1.25
61.57,4.52,3.28,4.52,3.29,-3.29,-3.53,1.23,1.23,1.23
62.18,4.52,3.31,4.52,3.31,-3.31,-3.55,1.21,1.21,1.21
62.80,4.52,3.33,4.52,3.33,-3.33,-3.57,1.18,1.18,1.19
63.43,4.52,3.36,4.52,3.36,-3.36,-3.59,1.16,1.16,1.16
64.07,4.52,3.38,4.52,3.38,-3.38,-3.60,1.14,1.14,1.14
64.71,4.52,3.41,4.52,3.41,-3.41,-3.62,1.11,1.11,1.11
65.35,4.52,3.43,4.52,3.43,-3.43,-3.63,1.08,1.08,1.08
66.01,4.52,3.46,4.52,3.46,-3.46,-3.64,1.06,1.06,1.06
66.67,4.52,3.49,4.52,3.49,-3.49,-3.65,1.03,1.03,1.03
67.33,4.52,3.52,4.52,3.52,-3.52,-3.65,1.00,1.00,1.00
68.01,4.52,3.55,4.52,3.55,-3.55,-3.66,0.97,0.97,0.97
68.69,4.52,3.58,4.52,3.58,-3.58,-3.66,0.94,0.94,0.94
69.37,4.52,3.61,4.52,3.61,-3.61,-3.67,0.91,0.91,0.91
70.07,4.52,3.64,4.52,3.64,-3.64,-3.67,0.88,0.88,0.88
70.77,4.52,3.67,4.52,3.67,-3.67,-3.67,0.85,0.85,0.85
71.48,4.52,3.70,4.52,3.70,-3.70,-3.68,0.81,0.81,0.81
72.19,4.52,3.74,4.52,3.74,-3.74,-3.68,0.78,0.78,0.78
72.91,4.52,3.77,4.52,3.77,-3.77,-3.68,0.75,0.75,0.75
73.64,4.52,3.80,4.52,3.80,-3.80,-3.69,0.71,0.71,0.71
74.38,4.52,3.84,4.52,3.84,-3.84,-3.69,0.68,0.68,0.68
75.12,4.52,3.87,4.52,3.87,-3.87,-3.70,0.64,0.64,0.64
75.87,4.52,3.91,4.52,3.91,-3.91,-3.71,0.61,0.61,0.61
76.63,4.52,3.95,4.52,3.95,-3.95,-3.72,0.57,0.57,0.57
77.40,4.52,3.98,4.52,3.98,-3.98,-3.73,0.53,0.53,0.53
78.17,4.52,4.02,4.52,4.02,-4.02,-3.75,0.50,0.50,0.50
78.95,4.52,4.06,4.52,4.06,-4.06,-3.76,0.46,0.46,0.46
79.74,4.52,4.09,4.52,4.09,-4.09,-3.78,0.42,0.42,0.42
80.54,4.52,4.13,4.52,4.13,-4.13,-3.80,0.38,0.38,0.38
81.35,4.52,4.17,4.52,4.17,-4.17,-3.83,0.35,0.35,0.35
82.16,4.52,4.21,4.52,4.21,-4.21,-3.85,0.31,0.31,0.31
82.98,4.52,4.25,4.52,4.25,-4.25,-3.88,0.27,0.27,0.27
83.81,4.52,4.29,4.52,4.28,-4.28,-3.91,0.23,0.23,0.23
84.65,4.52,4.32,4.52,4.32,-4.32,-3.95,0.19,0.19,0.19
85.50,4.52,4.36,4.52,4.36,-4.36,-3.98,0.16,0.16,0.16
86.35,4.52,4.40,4.52,4.40,-4.40,-4.02,0.12,0.12,0.12
87.22,4.52,4.44,4.52,4.44,-4.44,-4.07,0.08,0.08,0.08
88.09,4.52,4.47,4.52,4.47,-4.47,-4.11,0.04,0.04,0.04
88.97,4.52,4.51,4.52,4.51,-4.51,-4.16,0.00,0.00,0.00
89.86,4.52,4.55,4.52,4.55,-4.55,-4.21,-0.03,-0.03,-0.03
90.76,4.52,4.59,4.52,4.59,-4.59,-4.27,-0.07,-0.07,-0.07
91.66,4.52,4.63,4.52,4.63,-4.63,-4.33,-0.11,-0.11,-0.11
92.58,4.52,4.67,4.52,4.67,-4.67,-4.39,-0.15,-0.15,-0.15
93.51,4.52,4.71,4.52,4.71,-4.71,-4.46,-0.19,-0.19,-0.19
94.44,4.52,4.75,4.52,4.75,-4.75,-4.52,-0.23,-0.23,-0.23
95.39,4.52,4.79,4.52,4.79,-4.79,-4.59,-0.27,-0.27,-0.27
96.34,4.52,4.83,4.52,4.83,-4.83,-4.67,-0.31,-0.31,-0.31
97.30,4.52,4.87,4.52,4.87,-4.87,-4.74,-0.35,-0.35,-0.35
98.28,4.52,4.91,4.52,4.91,-4.91,-4.82,-0.40,-0.40,-0.39
99.26,4.52,4.95,4.52,4.95,-4.95,-4.90,-0.44,-0.44,-0.44
100.25,4.52,5.00,4.52,5.00,-5.00,-4.98,-0.48,-0.48,-0.48
101.25,4.52,5.04,4.52,5.04,-5.04,-5.07,-0.52,-0.52,-0.52
102.27,4.52,5.08,4.52,5.08,-5.08,-5.15,-0.56,-0.56,-0.56
103.29,4.52,5.12,4.52,5.12,-5.12,-5.24,-0.61,-0.61,-0.61
104.32,4.52,5.17,4.52,5.17,-5.17,-5.33,-0.65,-0.65,-0.65
105.37,4.52,5.21,4.52,5.21,-5.21,-5.41,-0.69,-0.69,-0.69
106.42,4.52,5.25,4.52,5.25,-5.25,-5.50,-0.74,-0.74,-0.73
107.48,4.52,5.29,4.52,5.29,-5.29,-5.59,-0.78,-0.78,-0.78
108.56,4.52,5.34,4.52,5.34,-5.34,-5.68,-0.82,-0.82,-0.82
109.64,4.52,5.38,4.52,5.38,-5.38,-5.76,-0.86,-0.86,-0.86
110.74,4.52,5.42,4.52,5.42,-5.42,-5.84,-0.91,-0.91,-0.91
111.85,4.52,5.47,4.52,5.47,-5.47,-5.93,-0.95,-0.95,-0.95
112.97,4.52,5.51,4.52,5.51,-5.51,-6.00,-0.99,-0.99,-0.99
114.10,4.52,5.55,4.52,5.55,-5.55,-6.08,-1.04,-1.04,-1.04
115.24,4.52,5.60,4.52,5.60,-5.60,-6.15,-1.08,-1.08,-1.08
116.39,4.52,5.64,4.51,5.64,-5.64,-6.21,-1.12,-1.12,-1.12
117.55,4.52,5.68,4.51,5.68,-5.68,-6.27,-1.17,-1.17,-1.17
118.73,4.52,5.72,4.51,5.73,-5.73,-6.33,-1.21,-1.21,-1.21
119.92,4.52,5.77,4.52,5.77,-5.77,-6.38,-1.25,-1.25,-1.25
121.12,4.52,5.81,4.52,5.81,-5.81,-6.42,-1.30,-1.29,-1.29
122.33,4.52,5.85,4.52,5.86,-5.86,-6.46,-1.34,-1.33,-1.33
123.55,4.52,5.89,4.52,5.90,-5.90,-6.49,-1.38,-1.37,-1.37
124.79,4.52,5.93,4.53,5.94,-5.94,-6.51,-1.42,-1.41,-1.41
126.03,4.52,5.96,4.53,5.98,-5.98,-6.52,-1.46,-1.45,-1.45
127.29,4.52,6.00,4.53,6.02,-6.02,-6.53,-1.50,-1.49,-1.48
128.57,4.53,6.05,4.54,6.06,-6.06,-6.53,-1.53,-1.52,-1.52
129.85,4.54,6.09,4.53,6.09,-6.09,-6.53,-1.55,-1.56,-1.55
131.15,4.55,6.13,4.53,6.12,-6.12,-6.51,-1.58,-1.59,-1.59
132.46,4.55,6.17,4.53,6.15,-6.15,-6.50,-1.60,-1.62,-1.62
133.79,4.54,6.19,4.52,6.17,-6.17,-6.47,-1.63,-1.65,-1.65
135.12,4.52,6.20,4.50,6.19,-6.19,-6.44,-1.67,-1.68,-1.68
136.48,4.51,6.22,4.49,6.20,-6.20,-6.41,-1.69,-1.71,-1.71
137.84,4.48,6.22,4.47,6.21,-6.21,-6.37,-1.73,-1.74,-1.74
139.22,4.46,6.23,4.44,6.21,-6.21,-6.33,-1.76,-1.77,-1.77
140.61,4.43,6.23,4.41,6.21,-6.21,-6.29,-1.79,-1.80,-1.80
142.02,4.38,6.20,4.38,6.21,-6.21,-6.24,-1.84,-1.83,-1.83
143.44,4.36,6.21,4.35,6.21,-6.21,-6.20,-1.86,-1.86,-1.85
144.87,4.32,6.20,4.32,6.21,-6.21,-6.15,-1.90,-1.89,-1.88
146.32,4.29,6.19,4.29,6.21,-6.21,-6.10,-1.92,-1.92,-1.91
147.78,4.26,6.19,4.27,6.21,-6.21,-6.05,-1.96,-1.95,-1.93
149.26,4.23,6.18,4.25,6.22,-6.22,-6.00,-1.99,-1.97,-1.96
150.75,4.20,6.18,4.23,6.23,-6.23,-5.95,-2.03,-2.00,-1.98
152.26,4.19,6.19,4.22,6.24,-6.24,-5.91,-2.05,-2.02,-2.00
153.78,4.18,6.21,4.21,6.25,-6.25,-5.86,-2.08,-2.05,-2.03
155.32,4.18,6.23,4.20,6.27,-6.27,-5.82,-2.10,-2.07,-2.06
156.88,4.19,6.27,4.20,6.29,-6.29,-5.78,-2.11,-2.09,-2.08
158.44,4.20,6.30,4.20,6.31,-6.31,-5.74,-2.11,-2.12,-2.11
160.03,4.22,6.35,4.19,6.33,-6.33,-5.71,-2.11,-2.14,-2.13
161.63,4.22,6.37,4.19,6.35,-6.35,-5.68,-2.13,-2.16,-2.16
163.24,4.21,6.39,4.18,6.36,-6.36,-5.65,-2.16,-2.18,-2.18
164.88,4.20,6.40,4.17,6.37,-6.37,-5.62,-2.18,-2.20,-2.21
166.53,4.18,6.41,4.16,6.38,-6.38,-5.60,-2.21,-2.23,-2.23
168.19,4.17,6.42,4.14,6.39,-6.39,-5.59,-2.22,-2.25,-2.25
169.87,4.13,6.40,4.12,6.39,-6.39,-5.57,-2.26,-2.27,-2.28
171.57,4.11,6.40,4.09,6.39,-6.39,-5.57,-2.28,-2.30,-2.30
173.29,4.07,6.38,4.06,6.38,-6.38,-5.56,-2.32,-2.32,-2.32
175.02,4.03,6.36,4.03,6.38,-6.38,-5.56,-2.35,-2.34,-2.34
176.77,3.99,6.34,4.00,6.37,-6.37,-5.56,-2.38,-2.36,-2.35
178.54,3.97,6.34,3.98,6.36,-6.36,-5.57,-2.39,-2.38,-2.37
180.32,3.94,6.32,3.95,6.35,-6.35,-5.58,-2.42,-2.40,-2.39
182.13,3.91,6.31,3.93,6.35,-6.35,-5.60,-2.44,-2.41,-2.40
183.95,3.89,6.30,3.92,6.34,-6.34,-5.62,-2.45,-2.43,-2.41
185.79,3.88,6.30,3.90,6.34,-6.34,-5.64,-2.46,-2.44,-2.43
187.65,3.87,6.30,3.88,6.33,-6.33,-5.67,-2.47,-2.45,-2.44
189.52,3.87,6.32,3.87,6.33,-6.33,-5.70,-2.46,-2.46,-2.45
191.42,3.88,6.34,3.86,6.33,-6.33,-5.74,-2.45,-2.47,-2.46
193.33,3.87,6.34,3.85,6.32,-6.32,-5.78,-2.46,-2.47,-2.47
195.27,3.86,6.33,3.84,6.32,-6.32,-5.82,-2.46,-2.48,-2.48
197.22,3.85,6.33,3.82,6.31,-6.31,-5.87,-2.46,-2.49,-2.49
199.19,3.83,6.32,3.80,6.30,-6.30,-5.92,-2.47,-2.50,-2.50
201.18,3.80,6.30,3.78,6.29,-6.29,-5.97,-2.49,-2.51,-2.51
203.19,3.77,6.28,3.76,6.28,-6.28,-6.02,-2.51,-2.52,-2.51
205.23,3.73,6.25,3.74,6.26,-6.26,-6.08,-2.54,-2.53,-2.52
207.28,3.70,6.23,3.71,6.25,-6.25,-6.14,-2.55,-2.54,-2.53
209.35,3.68,6.22,3.68,6.23,-6.23,-6.20,-2.55,-2.55,-2.54
211.44,3.65,6.20,3.65,6.21,-6.21,-6.26,-2.56,-2.56,-2.55
213.56,3.62,6.18,3.62,6.19,-6.19,-6.32,-2.57,-2.57,-2.56
215.69,3.58,6.15,3.59,6.17,-6.17,-6.38,-2.59,-2.58,-2.57
217.85,3.54,6.12,3.56,6.15,-6.15,-6.44,-2.61,-2.59,-2.58
220.03,3.52,6.11,3.53,6.12,-6.12,-6.50,-2.61,-2.60,-2.59
222.23,3.49,6.09,3.50,6.10,-6.10,-6.56,-2.61,-2.60,-2.60
224.45,3.46,6.07,3.46,6.08,-6.08,-6.62,-2.62,-2.61,-2.61
226.70,3.44,6.05,3.43,6.05,-6.05,-6.67,-2.61,-2.62,-2.62
228.96,3.42,6.04,3.39,6.02,-6.02,-6.73,-2.60,-2.63,-2.63
231.25,3.39,6.02,3.35,5.99,-5.99,-6.77,-2.60,-2.63,-2.63
233.57,3.35,5.99,3.32,5.96,-5.96,-6.82,-2.61,-2.64,-2.64
235.90,3.29,5.93,3.28,5.92,-5.92,-6.85,-2.64,-2.65,-2.64
238.26,3.25,5.90,3.24,5.89,-5.89,-6.89,-2.64,-2.65,-2.65
240.64,3.20,5.85,3.20,5.85,-5.85,-6.91,-2.65,-2.65,-2.65
243.05,3.15,5.80,3.15,5.81,-5.81,-6.93,-2.66,-2.66,-2.66
245.48,3.10,5.76,3.11,5.77,-5.77,-6.95,-2.68,-2.66,-2.66
247.93,3.05,5.71,3.07,5.74,-5.74,-6.96,-2.69,-2.67,-2.66
250.41,3.02,5.68,3.03,5.70,-5.70,-6.96,-2.69,-2.67,-2.67
252.92,2.99,5.66,2.99,5.67,-5.67,-6.95,-2.68,-2.68,-2.67
255.45,2.97,5.64,2.96,5.64,-5.64,-6.94,-2.67,-2.68,-2.68
258.00,2.95,5.63,2.92,5.61,-5.61,-6.92,-2.67,-2.69,-2.68
260.58,2.92,5.60,2.90,5.59,-5.59,-6.89,-2.68,-2.69,-2.69
263.19,2.90,5.59,2.88,5.58,-5.58,-6.86,-2.68,-2.70,-2.69
265.82,2.86,5.56,2.86,5.57,-5.57,-6.83,-2.71,-2.70,-2.70
268.48,2.85,5.55,2.86,5.57,-5.57,-6.78,-2.72,-2.71,-2.71
271.16,2.85,5.56,2.86,5.57,-5.57,-6.74,-2.73,-2.72,-2.71
273.87,2.86,5.58,2.86,5.59,-5.59,-6.69,-2.73,-2.72,-2.72
276.61,2.89,5.61,2.88,5.61,-5.61,-6.63,-2.72,-2.73,-2.73
279.38,2.90,5.63,2.90,5.64,-5.64,-6.57,-2.75,-2.74,-2.73
282.17,2.92,5.65,2.94,5.68,-5.68,-6.51,-2.77,-2.75,-2.74
284.99,2.96,5.70,2.98,5.73,-5.73,-6.45,-2.78,-2.75,-2.74
287.84,3.03,5.77,3.04,5.79,-5.79,-6.39,-2.77,-2.75,-2.74
290.72,3.09,5.83,3.11,5.86,-5.86,-6.32,-2.78,-2.76,-2.75
293.63,3.17,5.91,3.19,5.94,-5.94,-6.26,-2.78,-2.76,-2.75
296.57,3.26,6.00,3.28,6.03,-6.03,-6.19,-2.78,-2.76,-2.75
299.53,3.35,6.09,3.37,6.13,-6.13,-6.13,-2.78,-2.76,-2.75
302.53,3.47,6.21,3.47,6.23,-6.23,-6.07,-2.76,-2.76,-2.75
305.55,3.59,6.33,3.58,6.34,-6.34,-6.01,-2.75,-2.76,-2.75
308.61,3.71,6.45,3.70,6.45,-6.45,-5.95,-2.75,-2.75,-2.74
311.69,3.84,6.58,3.82,6.57,-6.57,-5.89,-2.73,-2.75,-2.74
314.81,3.93,6.67,3.94,6.68,-6.68,-5.84,-2.75,-2.74,-2.74
317.96,4.05,6.79,4.05,6.79,-6.79,-5.79,-2.75,-2.74,-2.74
321.14,4.16,6.89,4.17,6.90,-6.90,-5.74,-2.75,-2.74,-2.74
324.35,4.28,7.01,4.27,7.01,-7.01,-5.69,-2.73,-2.73,-2.73
327.59,4.40,7.13,4.37,7.10,-7.10,-5.65,-2.71,-2.73,-2.73
330.87,4.47,7.19,4.46,7.19,-7.19,-5.62,-2.72,-2.73,-2.73
334.18,4.57,7.29,4.54,7.27,-7.27,-5.58,-2.70,-2.72,-2.73
337.52,4.66,7.38,4.61,7.34,-7.34,-5.55,-2.68,-2.72,-2.72
340.90,4.70,7.42,4.67,7.39,-7.39,-5.52,-2.69,-2.72,-2.72
344.30,4.73,7.45,4.71,7.43,-7.43,-5.50,-2.70,-2.72,-2.72
347.75,4.75,7.46,4.74,7.46,-7.46,-5.48,-2.71,-2.71,-2.72
351.23,4.77,7.48,4.76,7.47,-7.47,-5.47,-2.70,-2.71,-2.72
354.74,4.78,7.49,4.76,7.47,-7.47,-5.46,-2.69,-2.71,-2.71
358.28,4.77,7.48,4.75,7.46,-7.46,-5.45,-2.69,-2.71,-2.71
361.87,4.74,7.44,4.73,7.44,-7.44,-5.45,-2.70,-2.71,-2.71
365.49,4.71,7.41,4.69,7.40,-7.40,-5.46,-2.69,-2.71,-2.71
369.14,4.67,7.37,4.65,7.36,-7.36,-5.46,-2.69,-2.70,-2.70
372.83,4.62,7.32,4.60,7.30,-7.30,-5.47,-2.69,-2.70,-2.70
376.56,4.54,7.23,4.55,7.25,-7.25,-5.49,-2.71,-2.70,-2.70
380.33,4.46,7.15,4.49,7.18,-7.18,-5.50,-2.72,-2.69,-2.69
384.13,4.40,7.08,4.42,7.11,-7.11,-5.53,-2.72,-2.69,-2.69
387.97,4.35,7.03,4.35,7.04,-7.04,-5.55,-2.69,-2.69,-2.68
391.85,4.28,6.96,4.28,6.97,-6.97,-5.58,-2.69,-2.68,-2.68
395.77,4.21,6.88,4.21,6.89,-6.89,-5.61,-2.68,-2.68,-2.67
399.73,4.15,6.82,4.14,6.82,-6.82,-5.65,-2.67,-2.68,-2.67
403.72,4.08,6.74,4.07,6.74,-6.74,-5.68,-2.66,-2.67,-2.66
407.76,4.00,6.65,4.00,6.67,-6.67,-5.72,-2.67,-2.67,-2.66
411.84,3.93,6.58,3.94,6.60,-6.60,-5.76,-2.67,-2.66,-2.65
415.96,3.87,6.51,3.87,6.53,-6.53,-5.80,-2.66,-2.65,-2.65
420.12,3.80,6.44,3.81,6.46,-6.46,-5.85,-2.66,-2.65,-2.64
424.32,3.74,6.37,3.75,6.39,-6.39,-5.89,-2.66,-2.64,-2.64
428.56,3.69,6.32,3.69,6.33,-6.33,-5.94,-2.65,-2.64,-2.63
432.85,3.64,6.27,3.63,6.27,-6.27,-5.98,-2.64,-2.64,-2.63
437.18,3.57,6.20,3.58,6.22,-6.22,-6.02,-2.65,-2.64,-2.63
441.55,3.53,6.16,3.53,6.16,-6.16,-6.07,-2.63,-2.63,-2.63
445.96,3.49,6.11,3.47,6.11,-6.11,-6.11,-2.62,-2.63,-2.63
450.42,3.44,6.06,3.42,6.05,-6.05,-6.15,-2.62,-2.63,-2.63
454.93,3.38,6.00,3.37,6.00,-6.00,-6.18,-2.62,-2.63,-2.63
459.48,3.33,5.95,3.32,5.95,-5.95,-6.21,-2.62,-2.63,-2.63
464.07,3.27,5.89,3.28,5.90,-5.90,-6.24,-2.63,-2.62,-2.62
468.71,3.23,5.85,3.23,5.85,-5.85,-6.26,-2.62,-2.62,-2.62
473.40,3.19,5.81,3.18,5.80,-5.80,-6.28,-2.61,-2.62,-2.62
478.13,3.14,5.75,3.13,5.75,-5.75,-6.29,-2.61,-2.61,-2.62
482.91,3.09,5.70,3.08,5.69,-5.69,-6.30,-2.61,-2.61,-2.61
487.74,3.04,5.64,3.04,5.64,-5.64,-6.30,-2.61,-2.60,-2.61
492.62,2.99,5.59,2.99,5.59,-5.59,-6.30,-2.60,-2.60,-2.60
497.55,2.94,5.53,2.94,5.54,-5.54,-6.28,-2.60,-2.59,-2.59
502.52,2.90,5.48,2.90,5.48,-5.48,-6.26,-2.59,-2.58,-2.58
507.55,2.86,5.43,2.85,5.43,-5.43,-6.24,-2.57,-2.57,-2.57
512.62,2.82,5.38,2.81,5.37,-5.37,-6.20,-2.56,-2.57,-2.56
517.75,2.77,5.32,2.76,5.32,-5.32,-6.16,-2.55,-2.56,-2.55
522.93,2.72,5.26,2.72,5.27,-5.27,-6.11,-2.55,-2.55,-2.54
528.16,2.67,5.20,2.67,5.21,-5.21,-6.06,-2.54,-2.54,-2.53
533.44,2.63,5.15,2.63,5.15,-5.15,-6.00,-2.53,-2.53,-2.53
538.77,2.59,5.10,2.58,5.10,-5.10,-5.94,-2.51,-2.52,-2.52
544.16,2.54,5.04,2.54,5.04,-5.04,-5.87,-2.51,-2.50,-2.51
549.60,2.50,4.99,2.49,4.98,-4.98,-5.80,-2.49,-2.49,-2.50
555.10,2.45,4.93,2.44,4.93,-4.93,-5.72,-2.48,-2.48,-2.49
560.65,2.41,4.88,2.40,4.87,-4.87,-5.64,-2.46,-2.47,-2.48
566.25,2.36,4.82,2.35,4.81,-4.81,-5.56,-2.46,-2.46,-2.46
571.92,2.32,4.76,2.31,4.76,-4.76,-5.47,-2.44,-2.45,-2.45
577.64,2.27,4.70,2.27,4.70,-4.70,-5.38,-2.43,-2.43,-2.43
583.41,2.22,4.63,2.22,4.64,-4.64,-5.30,-2.43,-2.42,-2.42
589.25,2.17,4.57,2.18,4.59,-4.59,-5.21,-2.42,-2.41,-2.40
595.14,2.13,4.52,2.14,4.54,-4.54,-5.12,-2.41,-2.40,-2.39
601.09,2.09,4.46,2.10,4.48,-4.48,-5.03,-2.40,-2.39,-2.38
607.10,2.06,4.42,2.06,4.43,-4.43,-4.94,-2.38,-2.38,-2.37
613.17,2.03,4.39,2.02,4.39,-4.39,-4.85,-2.36,-2.37,-2.36
619.30,1.99,4.34,1.98,4.34,-4.34,-4.76,-2.35,-2.36,-2.35
625.50,1.95,4.29,1.94,4.30,-4.30,-4.68,-2.35,-2.35,-2.35
631.75,1.90,4.24,1.90,4.25,-4.25,-4.60,-2.36,-2.35,-2.34
638.07,1.86,4.20,1.86,4.21,-4.21,-4.51,-2.35,-2.35,-2.34
644.45,1.83,4.17,1.83,4.17,-4.17,-4.43,-2.34,-2.34,-2.34
650.89,1.79,4.13,1.79,4.13,-4.13,-4.36,-2.34,-2.34,-2.34
657.40,1.76,4.10,1.75,4.09,-4.09,-4.28,-2.33,-2.34,-2.34
663.98,1.72,4.06,1.71,4.05,-4.05,-4.21,-2.33,-2.34,-2.35
670.62,1.67,4.01,1.66,4.00,-4.00,-4.14,-2.34,-2.34,-2.35
677.32,1.63,3.98,1.62,3.96,-3.96,-4.07,-2.34,-2.34,-2.35
684.10,1.58,3.93,1.57,3.92,-3.92,-4.01,-2.34,-2.35,-2.35
690.94,1.53,3.88,1.53,3.87,-3.87,-3.95,-2.35,-2.35,-2.35
697.85,1.49,3.84,1.48,3.83,-3.83,-3.89,-2.34,-2.35,-2.35
704.83,1.44,3.78,1.44,3.78,-3.78,-3.84,-2.35,-2.35,-2.35
