frequency,raw,smoothed,error,error_smoothed,equalization,parametric_eq,fixed_band_eq,equalized_raw,equalized_smoothed,target
20.00,-0.90,-0.91,-3.91,-3.92,3.88,1.76,0.67,2.98,2.97,3.01
20.20,-0.73,-0.73,-3.77,-3.77,3.75,1.75,0.69,3.02,3.02,3.04
20.40,-0.56,-0.55,-3.63,-3.62,3.63,1.75,0.71,3.06,3.07,3.07
20.61,-0.40,-0.39,-3.48,-3.48,3.50,1.75,0.74,3.10,3.11,3.09
20.81,-0.21,-0.22,-3.33,-3.33,3.37,1.74,0.76,3.16,3.15,3.12
21.02,-0.05,-0.07,-3.20,-3.20,3.24,1.74,0.78,3.19,3.17,3.14
21.23,0.07,0.07,-3.09,-3.09,3.11,1.73,0.80,3.18,3.18,3.15
21.44,0.18,0.18,-2.99,-2.98,2.98,1.73,0.83,3.16,3.17,3.16
21.66,0.29,0.29,-2.88,-2.88,2.86,1.72,0.85,3.15,3.15,3.17
21.87,0.41,0.41,-2.76,-2.76,2.73,1.72,0.88,3.14,3.14,3.17
22.09,0.54,0.54,-2.64,-2.64,2.60,1.71,0.90,3.14,3.14,3.18
22.31,0.69,0.68,-2.49,-2.50,2.47,1.71,0.93,3.16,3.15,3.18
22.54,0.83,0.84,-2.35,-2.34,2.34,1.70,0.96,3.18,3.19,3.18
22.76,0.99,0.99,-2.19,-2.19,2.23,1.69,0.99,3.21,3.22,3.18
22.99,1.14,1.11,-2.03,-2.06,2.12,1.69,1.02,3.25,3.23,3.17
23.22,1.20,1.20,-1.97,-1.97,2.02,1.68,1.05,3.21,3.22,3.17
23.45,1.26,1.26,-1.91,-1.91,1.92,1.67,1.08,3.18,3.18,3.17
23.69,1.31,1.30,-1.86,-1.86,1.83,1.66,1.11,3.14,3.13,3.17
23.92,1.36,1.37,-1.81,-1.80,1.75,1.65,1.14,3.10,3.11,3.17
24.16,1.45,1.45,-1.73,-1.72,1.67,1.64,1.17,3.11,3.12,3.18
24.40,1.56,1.56,-1.62,-1.61,1.59,1.64,1.20,3.15,3.15,3.17
24.65,1.67,1.67,-1.50,-1.50,1.52,1.63,1.24,3.18,3.19,3.16
24.89,1.78,1.76,-1.39,-1.40,1.44,1.61,1.27,3.22,3.21,3.16
25.14,1.84,1.83,-1.32,-1.33,1.37,1.60,1.30,3.21,3.21,3.16
25.39,1.87,1.87,-1.29,-1.29,1.31,1.59,1.34,3.18,3.18,3.16
25.65,1.89,1.89,-1.27,-1.27,1.26,1.58,1.37,3.14,3.15,3.16
25.91,1.91,1.91,-1.24,-1.24,1.22,1.57,1.40,3.12,3.13,3.15
26.16,1.94,1.94,-1.21,-1.21,1.18,1.55,1.44,3.12,3.12,3.15
26.43,1.98,1.98,-1.17,-1.17,1.16,1.54,1.47,3.14,3.14,3.15
26.69,2.02,2.01,-1.13,-1.13,1.14,1.52,1.50,3.15,3.15,3.14
26.96,2.05,2.04,-1.10,-1.10,1.12,1.51,1.54,3.16,3.16,3.14
27.23,2.06,2.06,-1.09,-1.09,1.10,1.49,1.57,3.15,3.15,3.14
27.50,2.06,2.06,-1.08,-1.08,1.08,1.48,1.60,3.14,3.14,3.14
27.77,2.06,2.06,-1.07,-1.08,1.07,1.46,1.63,3.13,3.13,3.13
28.05,2.06,2.06,-1.07,-1.07,1.06,1.44,1.66,3.12,3.12,3.13
28.33,2.06,2.06,-1.06,-1.06,1.06,1.43,1.68,3.12,3.12,3.12
28.62,2.06,2.06,-1.06,-1.06,1.06,1.41,1.71,3.11,3.11,3.12
28.90,2.06,2.06,-1.06,-1.05,1.05,1.39,1.73,3.11,3.11,3.11
29.19,2.06,2.06,-1.05,-1.05,1.05,1.38,1.76,3.10,3.10,3.10
29.48,2.06,2.06,-1.05,-1.05,1.04,1.37,1.78,3.09,3.09,3.11
29.78,2.06,2.06,-1.04,-1.04,1.03,1.35,1.80,3.09,3.09,3.10
30.08,2.06,2.06,-1.04,-1.04,1.03,1.34,1.81,3.09,3.09,3.10
30.38,2.06,2.06,-1.03,-1.02,1.04,1.33,1.83,3.10,3.10,3.08
30.68,2.06,2.06,-1.03,-1.02,1.06,1.32,1.84,3.11,3.12,3.08
30.99,2.06,2.04,-1.01,-1.04,1.08,1.32,1.85,3.14,3.12,3.07
31.30,1.99,1.99,-1.08,-1.08,1.10,1.31,1.85,3.09,3.09,3.07
31.61,1.92,1.92,-1.15,-1.14,1.13,1.31,1.86,3.04,3.05,3.07
31.93,1.85,1.86,-1.21,-1.19,1.15,1.31,1.86,3.00,3.01,3.05
32.24,1.83,1.83,-1.22,-1.21,1.17,1.32,1.86,3.00,3.01,3.04
32.57,1.84,1.83,-1.20,-1.21,1.19,1.32,1.85,3.03,3.02,3.04
32.89,1.85,1.84,-1.19,-1.19,1.20,1.33,1.85,3.04,3.04,3.04
33.22,1.85,1.84,-1.18,-1.18,1.19,1.34,1.84,3.04,3.03,3.02
33.55,1.84,1.84,-1.18,-1.18,1.18,1.34,1.83,3.02,3.02,3.02
33.89,1.83,1.83,-1.18,-1.18,1.18,1.35,1.82,3.00,3.01,3.01
34.23,1.83,1.83,-1.18,-1.17,1.18,1.36,1.81,3.01,3.01,3.00
34.57,1.83,1.83,-1.17,-1.16,1.19,1.38,1.80,3.02,3.02,2.99
34.92,1.83,1.81,-1.15,-1.17,1.21,1.39,1.78,3.04,3.02,2.98
35.27,1.77,1.76,-1.21,-1.21,1.24,1.40,1.77,3.00,2.99,2.98
35.62,1.69,1.69,-1.28,-1.27,1.26,1.41,1.75,2.95,2.95,2.96
35.97,1.62,1.63,-1.33,-1.32,1.28,1.42,1.73,2.90,2.91,2.95
36.33,1.61,1.61,-1.34,-1.33,1.30,1.43,1.71,2.90,2.90,2.94
36.70,1.61,1.60,-1.32,-1.33,1.30,1.44,1.69,2.91,2.90,2.93
37.06,1.61,1.61,-1.31,-1.32,1.31,1.45,1.67,2.91,2.91,2.92
37.43,1.61,1.61,-1.31,-1.30,1.30,1.46,1.65,2.91,2.91,2.91
37.81,1.61,1.61,-1.29,-1.29,1.30,1.46,1.63,2.90,2.90,2.90
38.19,1.61,1.61,-1.28,-1.27,1.30,1.47,1.62,2.90,2.91,2.88
38.57,1.61,1.61,-1.27,-1.26,1.30,1.48,1.60,2.91,2.91,2.88
38.95,1.61,1.58,-1.26,-1.28,1.31,1.48,1.58,2.92,2.89,2.86
39.34,1.53,1.52,-1.32,-1.33,1.33,1.49,1.56,2.86,2.85,2.85
39.74,1.44,1.45,-1.40,-1.39,1.36,1.49,1.54,2.80,2.81,2.83
40.14,1.38,1.40,-1.45,-1.42,1.40,1.50,1.53,2.77,2.80,2.83
40.54,1.38,1.38,-1.44,-1.44,1.44,1.50,1.51,2.81,2.81,2.81
40.94,1.38,1.34,-1.43,-1.46,1.48,1.50,1.50,2.85,2.82,2.81
41.35,1.30,1.29,-1.49,-1.51,1.52,1.50,1.48,2.81,2.80,2.79
41.76,1.20,1.22,-1.59,-1.57,1.56,1.50,1.47,2.75,2.78,2.78
42.18,1.15,1.17,-1.63,-1.61,1.60,1.51,1.46,2.74,2.77,2.78
42.60,1.15,1.14,-1.61,-1.63,1.63,1.51,1.45,2.78,2.77,2.76
43.03,1.14,1.10,-1.62,-1.65,1.67,1.51,1.44,2.80,2.76,2.75
43.46,1.04,1.04,-1.70,-1.70,1.69,1.50,1.43,2.73,2.73,2.74
43.90,0.94,0.97,-1.77,-1.75,1.72,1.50,1.42,2.66,2.69,2.71
44.33,0.92,0.92,-1.78,-1.77,1.74,1.50,1.42,2.65,2.66,2.69
44.78,0.92,0.91,-1.76,-1.77,1.76,1.50,1.41,2.68,2.67,2.67
45.23,0.91,0.90,-1.75,-1.75,1.79,1.50,1.41,2.69,2.69,2.66
45.68,0.88,0.88,-1.76,-1.76,1.81,1.49,1.40,2.68,2.68,2.64
46.13,0.84,0.82,-1.78,-1.80,1.82,1.49,1.40,2.65,2.64,2.62
46.60,0.76,0.76,-1.85,-1.85,1.83,1.49,1.40,2.58,2.58,2.61
47.06,0.69,0.71,-1.90,-1.88,1.83,1.48,1.40,2.52,2.54,2.59
47.53,0.69,0.68,-1.88,-1.89,1.85,1.48,1.40,2.53,2.53,2.57
48.01,0.69,0.69,-1.87,-1.86,1.87,1.47,1.41,2.55,2.56,2.56
48.49,0.69,0.69,-1.84,-1.84,1.89,1.47,1.41,2.57,2.58,2.53
48.97,0.69,0.65,-1.81,-1.85,1.90,1.46,1.41,2.58,2.55,2.50
49.46,0.59,0.58,-1.88,-1.88,1.90,1.46,1.42,2.49,2.49,2.47
49.96,0.48,0.51,-1.96,-1.93,1.91,1.45,1.43,2.38,2.42,2.43
50.46,0.47,0.47,-1.96,-1.95,1.91,1.44,1.43,2.37,2.37,2.42
50.96,0.47,0.46,-1.93,-1.94,1.91,1.44,1.44,2.37,2.36,2.40
51.47,0.47,0.47,-1.90,-1.91,1.90,1.43,1.45,2.37,2.37,2.37
51.99,0.47,0.47,-1.88,-1.88,1.89,1.42,1.45,2.36,2.36,2.34
52.51,0.47,0.47,-1.86,-1.86,1.87,1.41,1.46,2.34,2.34,2.33
53.03,0.47,0.47,-1.84,-1.84,1.84,1.41,1.47,2.31,2.31,2.30
53.56,0.47,0.47,-1.81,-1.81,1.81,1.40,1.48,2.28,2.28,2.28
54.10,0.47,0.47,-1.79,-1.79,1.79,1.39,1.48,2.25,2.25,2.25
54.64,0.47,0.47,-1.76,-1.76,1.76,1.38,1.49,2.23,2.23,2.23
55.18,0.47,0.47,-1.73,-1.74,1.74,1.37,1.49,2.20,2.20,2.20
55.74,0.47,0.47,-1.71,-1.71,1.71,1.36,1.50,2.18,2.18,2.17
56.29,0.47,0.47,-1.69,-1.69,1.69,1.35,1.50,2.15,2.15,2.16
56.86,0.47,0.47,-1.66,-1.66,1.66,1.34,1.51,2.13,2.13,2.13
57.42,0.47,0.47,-1.63,-1.64,1.64,1.33,1.51,2.11,2.11,2.10
58.00,0.47,0.47,-1.61,-1.61,1.62,1.31,1.51,2.08,2.08,2.08
58.58,0.47,0.47,-1.59,-1.59,1.60,1.30,1.51,2.06,2.06,2.06
59.16,0.47,0.47,-1.57,-1.57,1.57,1.29,1.50,2.04,2.04,2.04
59.76,0.47,0.47,-1.55,-1.55,1.54,1.28,1.50,2.01,2.01,2.02
60.35,0.47,0.47,-1.52,-1.52,1.52,1.26,1.49,1.98,1.98,1.99
60.96,0.47,0.47,-1.50,-1.49,1.49,1.25,1.48,1.96,1.96,1.96
61.57,0.47,0.47,-1.46,-1.46,1.46,1.24,1.47,1.93,1.93,1.92
62.18,0.47,0.47,-1.42,-1.43,1.43,1.22,1.46,1.90,1.90,1.89
62.80,0.47,0.47,-1.40,-1.39,1.40,1.21,1.44,1.86,1.86,1.86
63.43,0.47,0.47,-1.36,-1.36,1.37,1.19,1.43,1.83,1.83,1.83
64.07,0.47,0.47,-1.34,-1.34,1.34,1.17,1.41,1.80,1.80,1.80
64.71,0.47,0.47,-1.31,-1.31,1.31,1.16,1.38,1.77,1.77,1.78
65.35,0.47,0.47,-1.28,-1.28,1.28,1.14,1.36,1.75,1.75,1.75
66.01,0.47,0.47,-1.25,-1.25,1.25,1.12,1.33,1.72,1.72,1.72
66.67,0.47,0.47,-1.22,-1.22,1.22,1.11,1.30,1.69,1.69,1.69
67.33,0.47,0.47,-1.20,-1.20,1.19,1.09,1.27,1.66,1.66,1.66
68.01,0.47,0.47,-1.16,-1.16,1.16,1.07,1.24,1.63,1.63,1.63
68.69,0.47,0.47,-1.13,-1.13,1.13,1.05,1.21,1.60,1.60,1.60
69.37,0.47,0.47,-1.10,-1.10,1.10,1.03,1.17,1.57,1.57,1.57
70.07,0.47,0.47,-1.07,-1.07,1.07,1.01,1.13,1.54,1.54,1.53
70.77,0.47,0.47,-1.05,-1.04,1.04,0.99,1.10,1.51,1.51,1.51
71.48,0.47,0.47,-1.01,-1.01,1.01,0.97,1.06,1.47,1.47,1.48
72.19,0.47,0.47,-0.98,-0.98,0.97,0.95,1.02,1.44,1.44,1.44
72.91,0.47,0.47,-0.94,-0.94,0.93,0.92,0.97,1.40,1.40,1.41
73.64,0.47,0.47,-0.90,-0.90,0.89,0.90,0.93,1.36,1.36,1.37
74.38,0.47,0.47,-0.87,-0.87,0.86,0.88,0.89,1.33,1.33,1.34
75.12,0.47,0.47,-0.84,-0.84,0.84,0.85,0.84,1.31,1.31,1.30
75.87,0.47,0.47,-0.81,-0.80,0.83,0.83,0.80,1.30,1.30,1.27
76.63,0.47,0.46,-0.78,-0.78,0.82,0.80,0.76,1.29,1.29,1.24
77.40,0.44,0.42,-0.78,-0.79,0.82,0.78,0.71,1.26,1.24,1.21
78.17,0.37,0.35,-0.80,-0.83,0.83,0.75,0.67,1.19,1.18,1.17
78.95,0.25,0.28,-0.90,-0.86,0.83,0.72,0.62,1.07,1.11,1.15
79.74,0.24,0.24,-0.88,-0.87,0.83,0.70,0.57,1.06,1.07,1.11
80.54,0.24,0.23,-0.84,-0.85,0.82,0.67,0.53,1.06,1.05,1.08
81.35,0.24,0.24,-0.81,-0.81,0.81,0.64,0.48,1.04,1.04,1.05
82.16,0.24,0.24,-0.77,-0.78,0.79,0.61,0.44,1.02,1.02,1.01
82.98,0.24,0.24,-0.75,-0.74,0.75,0.58,0.39,0.99,0.99,0.98
83.81,0.24,0.24,-0.70,-0.70,0.71,0.55,0.35,0.95,0.95,0.94
84.65,0.24,0.24,-0.66,-0.67,0.67,0.52,0.30,0.91,0.91,0.90
85.50,0.24,0.24,-0.63,-0.63,0.63,0.49,0.26,0.87,0.87,0.87
86.35,0.24,0.24,-0.59,-0.59,0.59,0.46,0.21,0.83,0.83,0.83
87.22,0.24,0.24,-0.55,-0.56,0.56,0.42,0.17,0.79,0.79,0.79
88.09,0.24,0.24,-0.51,-0.52,0.52,0.39,0.12,0.75,0.75,0.75
88.97,0.24,0.24,-0.48,-0.48,0.48,0.36,0.08,0.71,0.71,0.72
89.86,0.24,0.24,-0.44,-0.44,0.44,0.32,0.03,0.67,0.67,0.68
90.76,0.24,0.24,-0.39,-0.40,0.40,0.29,-0.01,0.63,0.63,0.63
91.66,0.24,0.24,-0.36,-0.35,0.35,0.25,-0.05,0.59,0.59,0.59
92.58,0.24,0.24,-0.30,-0.31,0.31,0.22,-0.10,0.55,0.55,0.54
93.51,0.24,0.24,-0.27,-0.27,0.27,0.18,-0.14,0.50,0.50,0.51
94.44,0.24,0.24,-0.23,-0.22,0.22,0.14,-0.19,0.46,0.46,0.46
95.39,0.24,0.24,-0.18,-0.18,0.18,0.10,-0.23,0.41,0.41,0.42
96.34,0.24,0.24,-0.13,-0.13,0.13,0.06,-0.27,0.37,0.37,0.36
97.30,0.24,0.24,-0.08,-0.08,0.08,0.03,-0.32,0.32,0.32,0.32
98.28,0.24,0.24,-0.04,-0.04,0.04,-0.01,-0.36,0.27,0.27,0.27
99.26,0.24,0.24,0.01,0.01,-0.01,-0.06,-0.40,0.23,0.23,0.23
100.25,0.24,0.24,0.05,0.05,-0.06,-0.10,-0.45,0.18,0.18,0.18
101.25,0.24,0.24,0.10,0.10,-0.10,-0.14,-0.49,0.13,0.13,0.14
102.27,0.24,0.24,0.15,0.15,-0.15,-0.18,-0.53,0.09,0.09,0.09
103.29,0.24,0.24,0.20,0.20,-0.19,-0.22,-0.57,0.04,0.04,0.03
104.32,0.24,0.24,0.24,0.24,-0.24,-0.26,-0.62,-0.00,-0.00,-0.00
105.37,0.24,0.24,0.29,0.29,-0.29,-0.31,-0.66,-0.05,-0.05,-0.05
106.42,0.24,0.24,0.33,0.33,-0.33,-0.35,-0.70,-0.10,-0.10,-0.10
107.48,0.24,0.24,0.38,0.38,-0.38,-0.40,-0.74,-0.15,-0.15,-0.14
108.56,0.24,0.24,0.43,0.43,-0.43,-0.44,-0.78,-0.19,-0.19,-0.20
109.64,0.24,0.24,0.48,0.48,-0.48,-0.49,-0.82,-0.24,-0.24,-0.24
110.74,0.24,0.24,0.53,0.53,-0.53,-0.53,-0.86,-0.29,-0.29,-0.29
111.85,0.24,0.24,0.57,0.58,-0.58,-0.58,-0.90,-0.34,-0.34,-0.34
112.97,0.24,0.24,0.64,0.63,-0.63,-0.63,-0.94,-0.40,-0.40,-0.40
114.10,0.24,0.24,0.68,0.69,-0.69,-0.67,-0.98,-0.45,-0.45,-0.45
115.24,0.24,0.24,0.74,0.74,-0.74,-0.72,-1.01,-0.50,-0.50,-0.50
116.39,0.24,0.24,0.79,0.79,-0.79,-0.77,-1.05,-0.56,-0.56,-0.56
117.55,0.24,0.24,0.85,0.85,-0.84,-0.82,-1.08,-0.61,-0.61,-0.61
118.73,0.24,0.24,0.90,0.90,-0.89,-0.87,-1.12,-0.66,-0.66,-0.66
119.92,0.24,0.24,0.94,0.95,-0.94,-0.92,-1.15,-0.70,-0.70,-0.71
121.12,0.24,0.24,1.00,1.00,-0.98,-0.97,-1.19,-0.75,-0.75,-0.76
122.33,0.24,0.24,1.05,1.04,-1.03,-1.02,-1.22,-0.79,-0.79,-0.81
123.55,0.24,0.24,1.09,1.09,-1.09,-1.07,-1.25,-0.85,-0.85,-0.85
124.79,0.24,0.23,1.14,1.14,-1.16,-1.12,-1.28,-0.92,-0.93,-0.91
126.03,0.24,0.22,1.19,1.18,-1.23,-1.17,-1.31,-1.00,-1.01,-0.96
127.29,0.24,0.26,1.24,1.27,-1.32,-1.22,-1.34,-1.08,-1.06,-1.01
128.57,0.29,0.32,1.35,1.39,-1.40,-1.27,-1.36,-1.11,-1.07,-1.07
129.85,0.45,0.40,1.56,1.51,-1.48,-1.32,-1.39,-1.04,-1.09,-1.11
131.15,0.47,0.46,1.63,1.62,-1.56,-1.37,-1.42,-1.10,-1.11,-1.16
132.46,0.47,0.48,1.68,1.69,-1.64,-1.43,-1.44,-1.18,-1.16,-1.21
133.79,0.47,0.47,1.71,1.72,-1.71,-1.48,-1.47,-1.25,-1.25,-1.25
135.12,0.47,0.47,1.77,1.76,-1.78,-1.53,-1.49,-1.31,-1.31,-1.30
136.48,0.47,0.47,1.80,1.81,-1.82,-1.58,-1.51,-1.36,-1.36,-1.34
137.84,0.47,0.47,1.85,1.85,-1.86,-1.64,-1.54,-1.40,-1.40,-1.38
139.22,0.47,0.47,1.90,1.90,-1.90,-1.69,-1.56,-1.43,-1.43,-1.43
140.61,0.47,0.47,1.94,1.94,-1.93,-1.74,-1.59,-1.47,-1.47,-1.48
142.02,0.47,0.47,1.97,1.97,-1.97,-1.79,-1.61,-1.50,-1.50,-1.50
143.44,0.47,0.47,2.01,2.01,-2.01,-1.84,-1.63,-1.54,-1.54,-1.54
144.87,0.47,0.47,2.05,2.05,-2.05,-1.90,-1.66,-1.58,-1.58,-1.58
146.32,0.47,0.47,2.09,2.08,-2.09,-1.95,-1.68,-1.62,-1.62,-1.62
147.78,0.47,0.47,2.12,2.12,-2.13,-2.00,-1.71,-1.67,-1.67,-1.65
149.26,0.47,0.47,2.15,2.16,-2.17,-2.05,-1.74,-1.71,-1.71,-1.69
150.75,0.47,0.47,2.20,2.20,-2.21,-2.10,-1.76,-1.75,-1.75,-1.73
152.26,0.47,0.47,2.24,2.24,-2.24,-2.15,-1.79,-1.77,-1.77,-1.77
153.78,0.47,0.48,2.27,2.29,-2.26,-2.21,-1.82,-1.79,-1.78,-1.81
155.32,0.47,0.46,2.32,2.31,-2.26,-2.26,-1.85,-1.79,-1.80,-1.85
156.88,0.45,0.40,2.33,2.29,-2.25,-2.31,-1.88,-1.80,-1.85,-1.89
158.44,0.30,0.34,2.22,2.27,-2.24,-2.35,-1.91,-1.94,-1.89,-1.93
160.03,0.24,0.26,2.21,2.23,-2.22,-2.40,-1.95,-1.99,-1.96,-1.97
161.63,0.24,0.16,2.25,2.17,-2.22,-2.45,-1.98,-1.98,-2.06,-2.01
163.24,0.10,0.11,2.15,2.16,-2.22,-2.50,-2.02,-2.12,-2.11,-2.05
164.88,0.01,0.11,2.09,2.19,-2.24,-2.55,-2.06,-2.23,-2.14,-2.08
166.53,0.19,0.13,2.31,2.26,-2.29,-2.59,-2.10,-2.10,-2.15,-2.12
168.19,0.24,0.19,2.40,2.35,-2.35,-2.64,-2.14,-2.12,-2.16,-2.16
169.87,0.24,0.25,2.43,2.45,-2.44,-2.68,-2.18,-2.20,-2.19,-2.20
171.57,0.24,0.29,2.47,2.53,-2.53,-2.73,-2.23,-2.29,-2.24,-2.23
173.29,0.38,0.36,2.65,2.63,-2.62,-2.77,-2.27,-2.25,-2.26,-2.27
175.02,0.47,0.43,2.77,2.74,-2.70,-2.81,-2.32,-2.24,-2.27,-2.31
176.77,0.47,0.48,2.82,2.83,-2.77,-2.85,-2.37,-2.30,-2.30,-2.35
178.54,0.47,0.47,2.86,2.86,-2.83,-2.89,-2.43,-2.37,-2.36,-2.39
180.32,0.47,0.47,2.89,2.90,-2.89,-2.93,-2.48,-2.42,-2.42,-2.43
182.13,0.47,0.47,2.93,2.93,-2.95,-2.97,-2.54,-2.48,-2.48,-2.46
183.95,0.47,0.45,2.97,2.95,-3.01,-3.01,-2.59,-2.54,-2.56,-2.50
185.79,0.47,0.47,3.00,3.01,-3.07,-3.04,-2.65,-2.60,-2.60,-2.53
187.65,0.47,0.53,3.04,3.10,-3.13,-3.08,-2.71,-2.66,-2.60,-2.57
189.52,0.64,0.60,3.24,3.20,-3.19,-3.11,-2.78,-2.55,-2.59,-2.60
191.42,0.69,0.66,3.32,3.30,-3.25,-3.14,-2.84,-2.57,-2.59,-2.63
193.33,0.69,0.70,3.35,3.36,-3.31,-3.18,-2.91,-2.63,-2.61,-2.66
195.27,0.69,0.69,3.38,3.38,-3.37,-3.21,-2.97,-2.68,-2.68,-2.69
197.22,0.69,0.69,3.41,3.41,-3.41,-3.24,-3.04,-2.73,-2.73,-2.72
199.19,0.69,0.69,3.44,3.44,-3.45,-3.27,-3.11,-2.76,-2.76,-2.76
201.18,0.69,0.69,3.46,3.46,-3.47,-3.30,-3.18,-2.78,-2.78,-2.77
203.19,0.69,0.69,3.48,3.48,-3.49,-3.32,-3.26,-2.80,-2.80,-2.79
205.23,0.69,0.69,3.50,3.49,-3.50,-3.35,-3.33,-2.81,-2.81,-2.81
207.28,0.69,0.69,3.51,3.51,-3.52,-3.38,-3.40,-2.83,-2.83,-2.82
209.35,0.69,0.69,3.53,3.53,-3.53,-3.40,-3.47,-2.84,-2.84,-2.84
211.44,0.69,0.69,3.55,3.55,-3.54,-3.43,-3.55,-2.85,-2.85,-2.87
213.56,0.69,0.69,3.56,3.56,-3.55,-3.45,-3.62,-2.86,-2.86,-2.87
215.69,0.69,0.69,3.56,3.57,-3.55,-3.48,-3.69,-2.87,-2.87,-2.88
217.85,0.69,0.69,3.57,3.58,-3.57,-3.50,-3.76,-2.88,-2.88,-2.89
220.03,0.69,0.69,3.59,3.59,-3.59,-3.52,-3.83,-2.90,-2.90,-2.90
222.23,0.69,0.67,3.60,3.58,-3.61,-3.55,-3.90,-2.93,-2.94,-2.91
224.45,0.69,0.69,3.59,3.60,-3.64,-3.57,-3.96,-2.96,-2.95,-2.90
226.70,0.69,0.74,3.59,3.65,-3.67,-3.59,-4.03,-2.99,-2.93,-2.91
228.96,0.85,0.81,3.75,3.71,-3.70,-3.61,-4.09,-2.85,-2.89,-2.91
231.25,0.90,0.88,3.79,3.78,-3.73,-3.63,-4.14,-2.83,-2.85,-2.90
233.57,0.92,0.92,3.81,3.82,-3.76,-3.66,-4.20,-2.84,-2.84,-2.90
235.90,0.92,0.92,3.81,3.81,-3.80,-3.68,-4.25,-2.88,-2.88,-2.90
238.26,0.92,0.90,3.81,3.80,-3.84,-3.70,-4.29,-2.92,-2.93,-2.90
240.64,0.92,0.92,3.80,3.81,-3.86,-3.72,-4.33,-2.95,-2.94,-2.88
243.05,0.93,0.98,3.80,3.85,-3.88,-3.74,-4.37,-2.96,-2.91,-2.87
245.48,1.09,1.05,3.95,3.92,-3.90,-3.77,-4.40,-2.81,-2.85,-2.86
247.93,1.15,1.12,4.00,3.97,-3.92,-3.79,-4.43,-2.77,-2.80,-2.85
250.41,1.15,1.16,3.99,4.00,-3.94,-3.81,-4.45,-2.79,-2.78,-2.85
252.92,1.15,1.14,3.97,3.96,-3.96,-3.83,-4.47,-2.82,-2.83,-2.83
255.45,1.15,1.15,3.95,3.95,-3.99,-3.86,-4.48,-2.84,-2.84,-2.80
258.00,1.15,1.20,3.94,3.98,-4.01,-3.88,-4.49,-2.87,-2.82,-2.79
260.58,1.29,1.26,4.06,4.03,-4.05,-3.90,-4.50,-2.76,-2.79,-2.78
263.19,1.37,1.33,4.12,4.08,-4.10,-3.93,-4.50,-2.73,-2.77,-2.75
265.82,1.38,1.39,4.12,4.13,-4.16,-3.95,-4.49,-2.78,-2.77,-2.74
268.48,1.43,1.45,4.14,4.17,-4.22,-3.98,-4.49,-2.79,-2.77,-2.72
271.16,1.56,1.56,4.25,4.25,-4.27,-4.00,-4.47,-2.71,-2.71,-2.69
273.87,1.69,1.70,4.36,4.37,-4.30,-4.03,-4.46,-2.61,-2.60,-2.68
276.61,1.81,1.78,4.46,4.43,-4.31,-4.05,-4.44,-2.51,-2.53,-2.65
279.38,1.83,1.77,4.46,4.41,-4.31,-4.08,-4.43,-2.49,-2.54,-2.64
282.17,1.67,1.71,4.29,4.33,-4.31,-4.10,-4.40,-2.64,-2.60,-2.62
284.99,1.61,1.63,4.20,4.23,-4.30,-4.13,-4.38,-2.70,-2.68,-2.60
287.84,1.61,1.59,4.19,4.17,-4.29,-4.16,-4.36,-2.69,-2.70,-2.58
290.72,1.61,1.64,4.16,4.20,-4.28,-4.18,-4.33,-2.67,-2.64,-2.56
293.63,1.72,1.71,4.26,4.25,-4.26,-4.21,-4.31,-2.55,-2.55,-2.54
296.57,1.82,1.78,4.33,4.30,-4.26,-4.24,-4.29,-2.44,-2.48,-2.52
299.53,1.83,1.83,4.33,4.33,-4.26,-4.26,-4.26,-2.44,-2.43,-2.50
302.53,1.83,1.84,4.31,4.31,-4.27,-4.29,-4.24,-2.44,-2.43,-2.48
305.55,1.83,1.83,4.27,4.28,-4.27,-4.32,-4.22,-2.44,-2.44,-2.45
308.61,1.83,1.83,4.26,4.25,-4.25,-4.35,-4.20,-2.43,-2.43,-2.43
311.69,1.83,1.83,4.23,4.23,-4.23,-4.38,-4.18,-2.40,-2.40,-2.40
314.81,1.83,1.83,4.19,4.20,-4.21,-4.40,-4.16,-2.38,-2.38,-2.37
317.96,1.83,1.82,4.18,4.17,-4.20,-4.43,-4.15,-2.37,-2.37,-2.35
321.14,1.83,1.81,4.16,4.15,-4.19,-4.46,-4.14,-2.37,-2.38,-2.33
324.35,1.83,1.84,4.14,4.16,-4.19,-4.49,-4.13,-2.37,-2.35,-2.32
327.59,1.87,1.90,4.16,4.20,-4.20,-4.51,-4.12,-2.34,-2.30,-2.29
330.87,2.01,1.97,4.28,4.25,-4.22,-4.54,-4.12,-2.21,-2.24,-2.27
334.18,2.06,2.04,4.31,4.29,-4.24,-4.57,-4.11,-2.18,-2.20,-2.26
337.52,2.06,2.06,4.29,4.30,-4.27,-4.60,-4.12,-2.21,-2.20,-2.24
340.90,2.06,2.05,4.27,4.27,-4.30,-4.62,-4.12,-2.24,-2.25,-2.21
344.30,2.06,2.08,4.25,4.27,-4.33,-4.65,-4.13,-2.27,-2.25,-2.19
347.75,2.12,2.14,4.29,4.32,-4.35,-4.67,-4.14,-2.23,-2.20,-2.18
351.23,2.25,2.21,4.40,4.37,-4.35,-4.70,-4.15,-2.11,-2.14,-2.16
354.74,2.29,2.27,4.43,4.41,-4.36,-4.72,-4.17,-2.07,-2.09,-2.14
358.28,2.29,2.30,4.41,4.42,-4.37,-4.75,-4.19,-2.08,-2.07,-2.12
361.87,2.29,2.29,4.39,4.40,-4.38,-4.77,-4.21,-2.10,-2.09,-2.10
365.49,2.29,2.28,4.38,4.38,-4.40,-4.79,-4.24,-2.12,-2.12,-2.10
369.14,2.29,2.27,4.37,4.36,-4.42,-4.81,-4.27,-2.13,-2.14,-2.09
372.83,2.29,2.31,4.36,4.38,-4.43,-4.83,-4.31,-2.14,-2.12,-2.07
376.56,2.34,2.37,4.40,4.43,-4.44,-4.85,-4.34,-2.10,-2.06,-2.06
380.33,2.49,2.44,4.52,4.48,-4.45,-4.87,-4.38,-1.97,-2.01,-2.03
384.13,2.52,2.50,4.54,4.53,-4.48,-4.88,-4.42,-1.96,-1.97,-2.03
387.97,2.52,2.52,4.53,4.54,-4.51,-4.90,-4.47,-1.99,-1.98,-2.02
391.85,2.52,2.51,4.52,4.51,-4.54,-4.91,-4.51,-2.02,-2.03,-2.01
395.77,2.52,2.54,4.51,4.53,-4.57,-4.93,-4.56,-2.05,-2.03,-1.99
399.73,2.58,2.60,4.56,4.58,-4.60,-4.94,-4.62,-2.03,-2.00,-1.98
403.72,2.71,2.67,4.68,4.64,-4.64,-4.95,-4.67,-1.93,-1.96,-1.97
407.76,2.75,2.72,4.71,4.68,-4.68,-4.96,-4.72,-1.93,-1.96,-1.96
411.84,2.75,2.76,4.69,4.71,-4.72,-4.97,-4.78,-1.97,-1.96,-1.94
415.96,2.75,2.81,4.68,4.75,-4.76,-4.97,-4.84,-2.02,-1.95,-1.94
420.12,2.92,2.88,4.84,4.80,-4.80,-4.98,-4.89,-1.88,-1.92,-1.93
424.32,2.97,2.94,4.88,4.86,-4.82,-4.98,-4.95,-1.85,-1.88,-1.92
428.56,2.97,2.98,4.88,4.89,-4.83,-4.98,-5.01,-1.87,-1.85,-1.91
432.85,2.97,2.97,4.87,4.87,-4.85,-4.98,-5.06,-1.88,-1.88,-1.90
437.18,2.97,2.97,4.86,4.85,-4.86,-4.97,-5.12,-1.90,-1.90,-1.89
441.55,2.97,2.95,4.84,4.83,-4.88,-4.97,-5.17,-1.92,-1.93,-1.87
445.96,2.97,2.97,4.83,4.83,-4.90,-4.96,-5.22,-1.93,-1.93,-1.86
450.42,2.97,3.03,4.82,4.88,-4.91,-4.96,-5.26,-1.95,-1.89,-1.85
454.93,3.15,3.10,4.98,4.94,-4.93,-4.95,-5.31,-1.78,-1.83,-1.84
459.48,3.20,3.17,5.02,4.99,-4.95,-4.93,-5.34,-1.75,-1.78,-1.83
464.07,3.20,3.21,5.00,5.02,-4.96,-4.92,-5.38,-1.77,-1.75,-1.81
468.71,3.20,3.20,4.98,4.99,-4.98,-4.90,-5.41,-1.78,-1.77,-1.79
473.40,3.20,3.20,4.97,4.97,-4.98,-4.89,-5.43,-1.78,-1.78,-1.78
478.13,3.20,3.20,4.96,4.96,-4.97,-4.87,-5.45,-1.78,-1.78,-1.76
482.91,3.20,3.20,4.95,4.94,-4.96,-4.85,-5.46,-1.76,-1.76,-1.75
487.74,3.20,3.20,4.93,4.93,-4.93,-4.82,-5.46,-1.74,-1.74,-1.73
492.62,3.20,3.20,4.91,4.91,-4.91,-4.80,-5.45,-1.72,-1.72,-1.71
497.55,3.20,3.20,4.90,4.90,-4.90,-4.77,-5.44,-1.70,-1.70,-1.70
502.52,3.20,3.20,4.88,4.88,-4.88,-4.74,-5.42,-1.68,-1.68,-1.68
507.55,3.20,3.20,4.87,4.87,-4.86,-4.71,-5.39,-1.67,-1.67,-1.67
512.62,3.20,3.20,4.85,4.85,-4.85,-4.68,-5.36,-1.65,-1.65,-1.65
517.75,3.20,3.20,4.83,4.83,-4.83,-4.65,-5.31,-1.64,-1.64,-1.63
