frequency,raw,error,smoothed,error_smoothed,equalization,parametric_eq,fixed_band_eq,equalized_raw,equalized_smoothed,target
20.00,1.85,-1.82,1.84,-1.83,1.80,1.40,-0.27,3.65,3.64,3.67
20.20,1.96,-1.76,1.96,-1.76,1.75,1.35,-0.28,3.71,3.71,3.72
20.40,2.07,-1.70,2.07,-1.70,1.70,1.29,-0.28,3.77,3.77,3.77
20.61,2.16,-1.63,2.17,-1.63,1.65,1.24,-0.29,3.81,3.82,3.80
20.81,2.28,-1.57,2.28,-1.57,1.59,1.18,-0.29,3.87,3.87,3.85
21.02,2.39,-1.50,2.37,-1.51,1.54,1.13,-0.30,3.93,3.91,3.89
21.23,2.45,-1.46,2.45,-1.46,1.48,1.07,-0.31,3.93,3.93,3.91
21.44,2.51,-1.42,2.51,-1.42,1.43,1.01,-0.31,3.93,3.94,3.93
21.66,2.57,-1.38,2.56,-1.38,1.37,0.96,-0.32,3.94,3.94,3.95
21.87,2.63,-1.33,2.63,-1.33,1.32,0.90,-0.33,3.94,3.94,3.96
22.09,2.70,-1.28,2.70,-1.27,1.25,0.85,-0.33,3.95,3.96,3.98
22.31,2.79,-1.20,2.78,-1.20,1.19,0.79,-0.34,3.97,3.97,3.99
22.54,2.86,-1.12,2.87,-1.12,1.12,0.74,-0.35,3.98,3.98,3.99
22.76,2.95,-1.04,2.95,-1.03,1.04,0.68,-0.35,3.99,3.99,3.99
22.99,3.04,-0.94,3.03,-0.95,0.97,0.63,-0.36,4.00,3.99,3.98
23.22,3.11,-0.87,3.11,-0.87,0.89,0.57,-0.37,3.99,3.99,3.98
23.45,3.18,-0.80,3.18,-0.80,0.81,0.52,-0.38,3.99,3.99,3.98
23.69,3.24,-0.74,3.24,-0.74,0.73,0.46,-0.39,3.98,3.98,3.98
23.92,3.32,-0.67,3.32,-0.67,0.66,0.40,-0.39,3.98,3.97,3.98
24.16,3.39,-0.61,3.39,-0.60,0.59,0.35,-0.40,3.97,3.98,3.99
24.40,3.47,-0.54,3.47,-0.53,0.52,0.29,-0.41,3.98,3.99,4.00
24.65,3.56,-0.44,3.55,-0.44,0.45,0.24,-0.42,4.00,4.00,3.99
24.89,3.64,-0.36,3.63,-0.36,0.38,0.18,-0.43,4.02,4.01,3.99
25.14,3.70,-0.30,3.70,-0.30,0.32,0.13,-0.44,4.01,4.01,3.99
25.39,3.75,-0.25,3.75,-0.25,0.25,0.07,-0.45,4.00,4.00,4.00
25.65,3.81,-0.20,3.80,-0.20,0.19,0.02,-0.46,3.99,3.99,4.00
25.91,3.85,-0.14,3.86,-0.14,0.13,-0.04,-0.47,3.98,3.99,3.99
26.16,3.92,-0.07,3.92,-0.07,0.07,-0.09,-0.48,3.98,3.99,3.99
26.43,3.98,-0.00,3.98,-0.01,0.00,-0.15,-0.50,3.99,3.99,3.99
26.69,4.06,0.07,4.05,0.06,-0.07,-0.20,-0.51,3.99,3.99,3.99
26.96,4.13,0.13,4.13,0.13,-0.14,-0.26,-0.52,3.98,3.99,4.00
27.23,4.20,0.21,4.20,0.21,-0.22,-0.31,-0.53,3.99,3.99,4.00
27.50,4.29,0.29,4.29,0.29,-0.29,-0.37,-0.55,3.99,3.99,4.00
27.77,4.37,0.38,4.37,0.38,-0.37,-0.42,-0.56,4.00,4.00,3.99
28.05,4.45,0.46,4.44,0.46,-0.44,-0.48,-0.58,4.00,4.00,3.99
28.33,4.51,0.53,4.50,0.53,-0.51,-0.53,-0.59,3.99,3.99,3.97
28.62,4.56,0.58,4.56,0.59,-0.58,-0.59,-0.61,3.98,3.98,3.97
28.90,4.62,0.63,4.62,0.64,-0.64,-0.64,-0.63,3.97,3.97,3.98
29.19,4.68,0.70,4.68,0.70,-0.71,-0.70,-0.64,3.97,3.97,3.97
29.48,4.75,0.76,4.74,0.76,-0.76,-0.75,-0.66,3.98,3.98,3.99
29.78,4.81,0.83,4.80,0.82,-0.82,-0.80,-0.68,3.98,3.98,3.98
30.08,4.86,0.88,4.87,0.88,-0.88,-0.86,-0.70,3.98,3.98,3.99
30.38,4.93,0.95,4.93,0.95,-0.94,-0.91,-0.72,3.98,3.98,3.98
30.68,4.99,1.01,4.99,1.01,-1.01,-0.96,-0.74,3.98,3.98,3.98
30.99,5.05,1.07,5.04,1.07,-1.07,-1.02,-0.76,3.98,3.98,3.98
31.30,5.11,1.13,5.11,1.13,-1.13,-1.07,-0.79,3.97,3.97,3.97
31.61,5.17,1.19,5.17,1.20,-1.20,-1.12,-0.81,3.97,3.97,3.97
31.93,5.23,1.26,5.23,1.26,-1.26,-1.18,-0.84,3.97,3.97,3.97
32.24,5.30,1.34,5.30,1.33,-1.33,-1.23,-0.86,3.97,3.97,3.96
32.57,5.36,1.39,5.36,1.39,-1.40,-1.28,-0.89,3.96,3.96,3.97
32.89,5.43,1.46,5.42,1.46,-1.47,-1.33,-0.92,3.96,3.96,3.97
33.22,5.49,1.53,5.49,1.53,-1.54,-1.39,-0.94,3.95,3.95,3.96
33.55,5.56,1.60,5.56,1.60,-1.60,-1.44,-0.97,3.95,3.95,3.95
33.89,5.63,1.68,5.62,1.67,-1.67,-1.49,-1.01,3.96,3.95,3.94
34.23,5.69,1.73,5.69,1.74,-1.73,-1.54,-1.04,3.95,3.96,3.95
34.57,5.75,1.81,5.75,1.81,-1.80,-1.59,-1.07,3.95,3.95,3.94
34.92,5.81,1.87,5.80,1.86,-1.86,-1.64,-1.10,3.94,3.94,3.94
35.27,5.85,1.91,5.85,1.91,-1.92,-1.70,-1.14,3.92,3.92,3.94
35.62,5.90,1.96,5.90,1.96,-1.98,-1.75,-1.18,3.91,3.92,3.93
35.97,5.95,2.02,5.95,2.02,-2.03,-1.80,-1.21,3.91,3.92,3.93
36.33,6.02,2.08,6.02,2.09,-2.08,-1.85,-1.25,3.94,3.94,3.94
36.70,6.09,2.16,6.08,2.15,-2.12,-1.90,-1.29,3.97,3.96,3.93
37.06,6.15,2.22,6.13,2.19,-2.16,-1.95,-1.33,3.98,3.96,3.92
37.43,6.15,2.20,6.14,2.21,-2.21,-2.00,-1.38,3.94,3.94,3.94
37.81,6.15,2.21,6.16,2.22,-2.25,-2.05,-1.42,3.90,3.91,3.94
38.19,6.19,2.25,6.19,2.25,-2.29,-2.10,-1.46,3.89,3.90,3.94
38.57,6.26,2.31,6.26,2.31,-2.34,-2.14,-1.51,3.92,3.92,3.94
38.95,6.34,2.39,6.33,2.38,-2.38,-2.19,-1.56,3.96,3.95,3.95
39.34,6.40,2.45,6.39,2.45,-2.42,-2.24,-1.61,3.97,3.97,3.95
39.74,6.45,2.50,6.45,2.50,-2.47,-2.29,-1.66,3.97,3.97,3.95
40.14,6.49,2.53,6.48,2.53,-2.52,-2.34,-1.71,3.97,3.96,3.95
40.54,6.52,2.57,6.52,2.57,-2.57,-2.39,-1.76,3.95,3.95,3.95
40.94,6.55,2.60,6.55,2.60,-2.61,-2.44,-1.82,3.93,3.94,3.95
41.35,6.59,2.64,6.59,2.64,-2.65,-2.48,-1.87,3.93,3.93,3.94
41.76,6.63,2.69,6.63,2.69,-2.69,-2.53,-1.93,3.93,3.93,3.94
42.18,6.68,2.73,6.67,2.73,-2.74,-2.58,-1.99,3.94,3.93,3.94
42.60,6.72,2.79,6.72,2.78,-2.79,-2.63,-2.05,3.93,3.93,3.93
43.03,6.76,2.83,6.76,2.83,-2.84,-2.67,-2.11,3.92,3.92,3.93
43.46,6.81,2.88,6.80,2.89,-2.89,-2.72,-2.18,3.92,3.92,3.92
43.90,6.85,2.95,6.85,2.95,-2.94,-2.77,-2.24,3.91,3.91,3.90
44.33,6.89,3.00,6.89,3.00,-2.99,-2.81,-2.31,3.90,3.90,3.88
44.78,6.93,3.06,6.92,3.05,-3.04,-2.86,-2.38,3.89,3.88,3.87
45.23,6.95,3.08,6.94,3.08,-3.09,-2.90,-2.45,3.85,3.85,3.86
45.68,6.96,3.11,6.96,3.11,-3.14,-2.95,-2.52,3.82,3.82,3.85
46.13,6.99,3.16,7.01,3.17,-3.18,-3.00,-2.59,3.80,3.83,3.83
46.60,7.08,3.24,7.07,3.24,-3.23,-3.04,-2.67,3.85,3.84,3.84
47.06,7.16,3.34,7.12,3.30,-3.28,-3.09,-2.75,3.88,3.85,3.82
47.53,7.16,3.34,7.16,3.34,-3.32,-3.13,-2.83,3.83,3.83,3.81
48.01,7.16,3.34,7.18,3.37,-3.38,-3.18,-2.91,3.78,3.80,3.82
48.49,7.21,3.41,7.20,3.40,-3.43,-3.22,-2.99,3.77,3.77,3.80
48.97,7.26,3.47,7.25,3.47,-3.49,-3.27,-3.07,3.77,3.76,3.78
49.46,7.31,3.54,7.31,3.54,-3.54,-3.31,-3.15,3.77,3.77,3.77
49.96,7.36,3.61,7.36,3.60,-3.59,-3.36,-3.24,3.76,3.77,3.75
50.46,7.41,3.65,7.41,3.66,-3.64,-3.40,-3.32,3.76,3.76,3.75
50.96,7.46,3.71,7.45,3.71,-3.69,-3.44,-3.41,3.76,3.75,3.74
51.47,7.48,3.75,7.48,3.75,-3.74,-3.49,-3.50,3.73,3.74,3.73
51.99,7.51,3.79,7.51,3.78,-3.79,-3.53,-3.58,3.71,3.71,3.72
52.51,7.54,3.82,7.53,3.81,-3.83,-3.58,-3.67,3.70,3.70,3.72
53.03,7.56,3.84,7.57,3.85,-3.86,-3.62,-3.76,3.69,3.70,3.72
53.56,7.61,3.90,7.60,3.90,-3.89,-3.66,-3.84,3.71,3.71,3.71
54.10,7.65,3.95,7.64,3.93,-3.91,-3.71,-3.93,3.73,3.72,3.70
54.64,7.66,3.97,7.66,3.96,-3.93,-3.75,-4.01,3.72,3.72,3.69
55.18,7.66,3.97,7.66,3.97,-3.96,-3.80,-4.10,3.70,3.70,3.69
55.74,7.66,3.98,7.65,3.97,-3.98,-3.84,-4.18,3.67,3.67,3.68
56.29,7.66,3.98,7.65,3.98,-4.01,-3.88,-4.26,3.65,3.64,3.68
56.86,7.66,3.99,7.67,4.00,-4.04,-3.93,-4.33,3.61,3.63,3.67
57.42,7.70,4.05,7.70,4.05,-4.07,-3.97,-4.41,3.62,3.63,3.64
58.00,7.76,4.11,7.76,4.11,-4.11,-4.02,-4.48,3.65,3.65,3.64
58.58,7.82,4.18,7.81,4.17,-4.14,-4.06,-4.54,3.67,3.67,3.64
59.16,7.86,4.23,7.85,4.22,-4.19,-4.11,-4.61,3.67,3.66,3.63
59.76,7.86,4.24,7.86,4.25,-4.23,-4.15,-4.67,3.62,3.63,3.61
60.35,7.86,4.28,7.86,4.28,-4.28,-4.19,-4.72,3.57,3.58,3.58
60.96,7.86,4.30,7.85,4.30,-4.33,-4.24,-4.77,3.53,3.52,3.55
61.57,7.86,4.34,7.86,4.35,-4.37,-4.28,-4.82,3.48,3.49,3.52
62.18,7.88,4.39,7.89,4.41,-4.42,-4.33,-4.86,3.46,3.47,3.48
62.80,7.94,4.49,7.92,4.47,-4.46,-4.37,-4.89,3.48,3.46,3.45
63.43,7.96,4.55,7.95,4.54,-4.51,-4.42,-4.93,3.45,3.44,3.41
64.07,7.96,4.58,7.96,4.59,-4.56,-4.46,-4.95,3.39,3.40,3.37
64.71,7.96,4.62,7.95,4.61,-4.62,-4.51,-4.98,3.33,3.33,3.34
65.35,7.96,4.65,7.96,4.65,-4.68,-4.55,-5.00,3.28,3.28,3.31
66.01,7.96,4.69,7.98,4.71,-4.73,-4.60,-5.01,3.22,3.25,3.27
66.67,8.03,4.80,8.01,4.78,-4.78,-4.64,-5.02,3.24,3.23,3.23
67.33,8.06,4.87,8.04,4.85,-4.83,-4.69,-5.03,3.22,3.21,3.19
68.01,8.06,4.90,8.06,4.90,-4.88,-4.74,-5.03,3.18,3.18,3.16
68.69,8.06,4.94,8.06,4.94,-4.93,-4.78,-5.04,3.13,3.13,3.12
69.37,8.06,4.98,8.06,4.98,-4.98,-4.83,-5.04,3.08,3.08,3.08
70.07,8.06,5.02,8.06,5.01,-5.02,-4.88,-5.03,3.03,3.03,3.04
70.77,8.06,5.05,8.06,5.06,-5.06,-4.92,-5.03,2.99,2.99,3.00
71.48,8.06,5.09,8.06,5.10,-5.11,-4.97,-5.03,2.95,2.95,2.96
72.19,8.06,5.15,8.06,5.14,-5.15,-5.02,-5.02,2.91,2.91,2.91
72.91,8.06,5.19,8.06,5.19,-5.19,-5.07,-5.02,2.86,2.86,2.86
73.64,8.06,5.24,8.06,5.24,-5.24,-5.11,-5.01,2.82,2.82,2.82
74.38,8.06,5.28,8.06,5.28,-5.28,-5.16,-5.01,2.77,2.77,2.77
75.12,8.06,5.33,8.06,5.33,-5.33,-5.21,-5.01,2.73,2.73,2.73
75.87,8.06,5.38,8.06,5.37,-5.37,-5.26,-5.01,2.69,2.69,2.68
76.63,8.06,5.41,8.06,5.42,-5.41,-5.31,-5.01,2.64,2.64,2.64
77.40,8.06,5.45,8.06,5.45,-5.45,-5.36,-5.01,2.61,2.61,2.61
78.17,8.06,5.50,8.06,5.49,-5.49,-5.41,-5.01,2.57,2.57,2.56
78.95,8.06,5.52,8.06,5.52,-5.52,-5.46,-5.02,2.53,2.53,2.54
79.74,8.06,5.56,8.06,5.56,-5.55,-5.51,-5.03,2.50,2.50,2.50
80.54,8.06,5.59,8.06,5.59,-5.59,-5.56,-5.04,2.47,2.47,2.47
81.35,8.06,5.63,8.06,5.62,-5.62,-5.60,-5.06,2.44,2.44,2.43
82.16,8.06,5.66,8.06,5.66,-5.65,-5.65,-5.08,2.40,2.40,2.40
82.98,8.06,5.68,8.05,5.69,-5.69,-5.70,-5.10,2.36,2.36,2.38
83.81,8.06,5.72,8.05,5.72,-5.73,-5.75,-5.13,2.32,2.32,2.33
84.65,8.06,5.76,8.07,5.77,-5.78,-5.81,-5.16,2.28,2.29,2.30
85.50,8.10,5.82,8.10,5.83,-5.82,-5.86,-5.19,2.27,2.28,2.28
86.35,8.15,5.90,8.13,5.89,-5.87,-5.91,-5.23,2.27,2.26,2.24
87.22,8.16,5.95,8.16,5.95,-5.93,-5.96,-5.27,2.23,2.23,2.21
88.09,8.17,5.99,8.16,5.99,-5.99,-6.01,-5.32,2.17,2.17,2.17
88.97,8.17,6.03,8.17,6.03,-6.06,-6.06,-5.37,2.11,2.11,2.14
89.86,8.19,6.08,8.20,6.10,-6.12,-6.11,-5.42,2.06,2.08,2.10
90.76,8.25,6.18,8.25,6.18,-6.19,-6.16,-5.48,2.06,2.06,2.07
91.66,8.32,6.28,8.31,6.27,-6.25,-6.21,-5.54,2.06,2.05,2.04
92.58,8.36,6.36,8.35,6.35,-6.32,-6.26,-5.60,2.03,2.03,1.99
93.51,8.37,6.40,8.36,6.40,-6.39,-6.31,-5.67,1.98,1.98,1.97
94.44,8.37,6.43,8.37,6.44,-6.45,-6.36,-5.75,1.92,1.93,1.94
95.39,8.39,6.48,8.40,6.49,-6.50,-6.40,-5.82,1.88,1.89,1.91
96.34,8.43,6.55,8.42,6.55,-6.55,-6.45,-5.90,1.88,1.87,1.87
97.30,8.46,6.61,8.44,6.60,-6.59,-6.50,-5.99,1.87,1.86,1.84
98.28,8.45,6.63,8.45,6.64,-6.62,-6.55,-6.07,1.83,1.83,1.81
99.26,8.44,6.65,8.44,6.65,-6.64,-6.60,-6.16,1.79,1.79,1.79
100.25,8.42,6.66,8.42,6.66,-6.67,-6.64,-6.26,1.75,1.75,1.76
101.25,8.40,6.67,8.40,6.67,-6.68,-6.69,-6.35,1.71,1.72,1.73
102.27,8.39,6.69,8.39,6.69,-6.70,-6.74,-6.45,1.69,1.69,1.70
103.29,8.38,6.72,8.37,6.71,-6.71,-6.78,-6.55,1.67,1.67,1.66
104.32,8.36,6.72,8.36,6.72,-6.71,-6.83,-6.65,1.64,1.64,1.64
105.37,8.34,6.73,8.33,6.73,-6.72,-6.87,-6.75,1.61,1.61,1.61
106.42,8.31,6.73,8.31,6.73,-6.73,-6.92,-6.85,1.57,1.58,1.58
107.48,8.29,6.74,8.28,6.74,-6.74,-6.96,-6.95,1.55,1.54,1.54
108.56,8.26,6.75,8.26,6.75,-6.75,-7.00,-7.05,1.51,1.51,1.50
109.64,8.24,6.76,8.24,6.76,-6.76,-7.04,-7.15,1.48,1.48,1.47
110.74,8.22,6.78,8.21,6.78,-6.78,-7.08,-7.25,1.44,1.44,1.43
111.85,8.20,6.78,8.20,6.79,-6.80,-7.12,-7.34,1.39,1.39,1.41
112.97,8.19,6.82,8.18,6.81,-6.84,-7.16,-7.43,1.35,1.35,1.37
114.10,8.19,6.85,8.19,6.85,-6.88,-7.20,-7.52,1.31,1.32,1.34
115.24,8.21,6.90,8.22,6.91,-6.92,-7.24,-7.60,1.29,1.30,1.31
116.39,8.26,6.98,8.25,6.97,-6.96,-7.27,-7.68,1.30,1.29,1.27
117.55,8.29,7.03,8.28,7.03,-7.00,-7.31,-7.75,1.28,1.28,1.25
118.73,8.30,7.07,8.30,7.07,-7.05,-7.34,-7.81,1.25,1.25,1.23
119.92,8.30,7.08,8.30,7.09,-7.09,-7.37,-7.86,1.21,1.22,1.22
121.12,8.31,7.11,8.31,7.11,-7.12,-7.40,-7.91,1.19,1.19,1.19
122.33,8.32,7.14,8.32,7.14,-7.15,-7.43,-7.95,1.17,1.17,1.18
123.55,8.33,7.16,8.33,7.16,-7.16,-7.46,-7.98,1.16,1.16,1.17
124.79,8.34,7.18,8.34,7.18,-7.17,-7.49,-8.00,1.16,1.16,1.15
126.03,8.34,7.20,8.34,7.20,-7.18,-7.52,-8.02,1.16,1.16,1.14
127.29,8.35,7.21,8.33,7.20,-7.19,-7.54,-8.01,1.16,1.14,1.14
128.57,8.32,7.20,8.31,7.19,-7.19,-7.57,-8.01,1.12,1.11,1.11
129.85,8.26,7.16,8.28,7.18,-7.20,-7.59,-7.99,1.06,1.08,1.10
131.15,8.27,7.18,8.26,7.18,-7.20,-7.61,-7.97,1.06,1.06,1.08
132.46,8.27,7.19,8.26,7.19,-7.20,-7.63,-7.94,1.06,1.06,1.07
133.79,8.27,7.21,8.27,7.22,-7.20,-7.65,-7.91,1.06,1.07,1.06
135.12,8.28,7.24,8.27,7.23,-7.20,-7.66,-7.86,1.07,1.07,1.04
136.48,8.28,7.24,8.26,7.23,-7.21,-7.68,-7.81,1.07,1.05,1.04
137.84,8.23,7.21,8.23,7.22,-7.21,-7.69,-7.76,1.02,1.02,1.02
139.22,8.20,7.20,8.20,7.20,-7.21,-7.71,-7.70,0.98,0.99,1.00
140.61,8.19,7.21,8.19,7.20,-7.22,-7.72,-7.63,0.97,0.97,0.98
142.02,8.19,7.21,8.18,7.21,-7.22,-7.73,-7.57,0.96,0.96,0.98
143.44,8.19,7.22,8.18,7.23,-7.24,-7.73,-7.50,0.95,0.95,0.96
144.87,8.19,7.25,8.19,7.25,-7.26,-7.74,-7.43,0.93,0.93,0.93
146.32,8.19,7.28,8.19,7.27,-7.28,-7.75,-7.37,0.91,0.91,0.91
147.78,8.19,7.29,8.19,7.30,-7.30,-7.75,-7.30,0.89,0.89,0.89
149.26,8.19,7.33,8.19,7.34,-7.32,-7.75,-7.23,0.86,0.87,0.86
150.75,8.19,7.38,8.18,7.37,-7.35,-7.76,-7.16,0.83,0.83,0.80
152.26,8.16,7.41,8.15,7.40,-7.38,-7.75,-7.10,0.77,0.76,0.75
153.78,8.10,7.40,8.09,7.40,-7.41,-7.75,-7.03,0.68,0.68,0.69
155.32,8.03,7.40,8.04,7.40,-7.44,-7.75,-6.97,0.58,0.59,0.63
156.88,7.99,7.42,8.00,7.44,-7.47,-7.75,-6.91,0.52,0.53,0.57
158.44,7.99,7.49,7.99,7.50,-7.49,-7.74,-6.86,0.50,0.50,0.50
160.03,7.99,7.56,7.97,7.54,-7.51,-7.73,-6.81,0.48,0.46,0.42
161.63,7.95,7.58,7.92,7.55,-7.52,-7.72,-6.76,0.43,0.40,0.36
163.24,7.84,7.52,7.86,7.55,-7.53,-7.71,-6.72,0.31,0.33,0.31
164.88,7.78,7.50,7.80,7.53,-7.53,-7.70,-6.68,0.25,0.27,0.27
166.53,7.78,7.54,7.74,7.51,-7.53,-7.69,-6.65,0.25,0.22,0.23
168.19,7.71,7.50,7.71,7.50,-7.52,-7.67,-6.62,0.19,0.19,0.21
169.87,7.66,7.48,7.68,7.50,-7.50,-7.66,-6.59,0.15,0.17,0.18
171.57,7.66,7.49,7.65,7.48,-7.49,-7.64,-6.57,0.17,0.16,0.17
173.29,7.65,7.48,7.64,7.48,-7.48,-7.62,-6.56,0.16,0.16,0.16
175.02,7.64,7.47,7.64,7.48,-7.48,-7.60,-6.55,0.16,0.16,0.17
176.77,7.64,7.48,7.63,7.47,-7.47,-7.58,-6.54,0.17,0.16,0.16
178.54,7.64,7.47,7.63,7.47,-7.46,-7.56,-6.54,0.17,0.17,0.16
180.32,7.64,7.46,7.64,7.47,-7.45,-7.54,-6.54,0.18,0.19,0.18
182.13,7.65,7.45,7.65,7.46,-7.45,-7.51,-6.56,0.20,0.20,0.19
183.95,7.66,7.47,7.63,7.44,-7.44,-7.49,-6.57,0.21,0.19,0.19
185.79,7.61,7.41,7.61,7.42,-7.44,-7.46,-6.59,0.17,0.18,0.20
187.65,7.58,7.39,7.60,7.41,-7.43,-7.44,-6.61,0.14,0.16,0.18
189.52,7.60,7.42,7.59,7.41,-7.43,-7.41,-6.64,0.17,0.17,0.18
191.42,7.61,7.44,7.60,7.43,-7.42,-7.38,-6.67,0.19,0.18,0.17
193.33,7.61,7.45,7.60,7.44,-7.41,-7.35,-6.71,0.19,0.19,0.16
195.27,7.57,7.42,7.57,7.43,-7.41,-7.31,-6.75,0.16,0.16,0.14
197.22,7.54,7.40,7.53,7.40,-7.41,-7.28,-6.79,0.12,0.12,0.13
199.19,7.49,7.37,7.49,7.38,-7.41,-7.25,-6.84,0.08,0.08,0.11
201.18,7.47,7.37,7.48,7.38,-7.40,-7.21,-6.89,0.06,0.07,0.10
203.19,7.48,7.39,7.48,7.39,-7.38,-7.18,-6.95,0.09,0.09,0.09
205.23,7.48,7.41,7.48,7.40,-7.36,-7.14,-7.00,0.11,0.12,0.07
207.28,7.48,7.40,7.45,7.39,-7.35,-7.10,-7.06,0.13,0.10,0.07
209.35,7.41,7.35,7.39,7.34,-7.33,-7.06,-7.12,0.07,0.06,0.05
211.44,7.30,7.27,7.33,7.29,-7.32,-7.02,-7.18,-0.02,0.01,0.02
213.56,7.27,7.24,7.27,7.25,-7.30,-6.98,-7.24,-0.03,-0.03,0.02
215.69,7.27,7.25,7.26,7.24,-7.27,-6.94,-7.30,-0.01,-0.01,0.02
217.85,7.26,7.25,7.26,7.26,-7.24,-6.90,-7.36,0.02,0.03,0.01
220.03,7.26,7.26,7.24,7.25,-7.20,-6.86,-7.42,0.06,0.04,0.00
222.23,7.22,7.23,7.19,7.20,-7.17,-6.81,-7.47,0.05,0.02,-0.02
224.45,7.11,7.11,7.13,7.14,-7.13,-6.77,-7.52,-0.03,0.00,-0.00
226.70,7.06,7.06,7.07,7.07,-7.10,-6.73,-7.57,-0.04,-0.02,-0.00
228.96,7.06,7.04,7.03,7.02,-7.06,-6.68,-7.61,0.00,-0.03,0.01
231.25,7.01,6.98,7.01,6.99,-7.01,-6.63,-7.65,-0.00,0.00,0.03
233.57,6.98,6.94,7.00,6.96,-6.96,-6.59,-7.68,0.02,0.04,0.04
235.90,6.99,6.93,6.97,6.92,-6.90,-6.54,-7.70,0.08,0.07,0.05
238.26,6.97,6.90,6.94,6.87,-6.85,-6.49,-7.71,0.12,0.10,0.07
240.64,6.90,6.80,6.91,6.82,-6.79,-6.44,-7.72,0.10,0.12,0.09
243.05,6.85,6.72,6.87,6.74,-6.74,-6.39,-7.71,0.11,0.13,0.13
245.48,6.85,6.69,6.82,6.66,-6.68,-6.34,-7.69,0.16,0.14,0.15
247.93,6.79,6.60,6.78,6.59,-6.62,-6.29,-7.67,0.16,0.15,0.19
250.41,6.72,6.51,6.74,6.54,-6.56,-6.24,-7.63,0.15,0.18,0.20
252.92,6.72,6.48,6.73,6.49,-6.50,-6.19,-7.59,0.22,0.23,0.24
255.45,6.73,6.46,6.71,6.45,-6.43,-6.13,-7.53,0.29,0.28,0.26
258.00,6.71,6.42,6.68,6.39,-6.37,-6.08,-7.46,0.34,0.31,0.29
260.58,6.61,6.30,6.63,6.32,-6.29,-6.03,-7.38,0.31,0.34,0.31
263.19,6.55,6.20,6.57,6.23,-6.22,-5.97,-7.30,0.32,0.34,0.34
265.82,6.54,6.18,6.49,6.13,-6.14,-5.92,-7.20,0.39,0.35,0.36
268.48,6.42,6.03,6.43,6.05,-6.06,-5.86,-7.09,0.36,0.37,0.38
271.16,6.35,5.93,6.37,5.96,-5.97,-5.81,-6.98,0.37,0.40,0.42
273.87,6.33,5.89,6.30,5.86,-5.88,-5.75,-6.86,0.45,0.42,0.44
276.61,6.26,5.78,6.26,5.79,-5.78,-5.69,-6.73,0.47,0.48,0.47
279.38,6.21,5.71,6.21,5.71,-5.68,-5.63,-6.60,0.52,0.53,0.50
282.17,6.15,5.62,6.13,5.60,-5.58,-5.58,-6.46,0.57,0.55,0.53
284.99,6.06,5.49,6.06,5.50,-5.47,-5.52,-6.32,0.58,0.58,0.56
287.84,5.95,5.36,5.96,5.38,-5.37,-5.46,-6.17,0.57,0.59,0.58
290.72,5.90,5.28,5.87,5.26,-5.27,-5.40,-6.03,0.62,0.60,0.62
293.63,5.79,5.14,5.80,5.15,-5.18,-5.34,-5.88,0.60,0.61,0.65
296.57,5.74,5.05,5.74,5.06,-5.10,-5.28,-5.73,0.64,0.64,0.68
299.53,5.70,4.98,5.71,5.00,-5.02,-5.22,-5.57,0.68,0.69,0.71
302.53,5.70,4.97,5.70,4.96,-4.94,-5.16,-5.42,0.75,0.76,0.73
305.55,5.71,4.93,5.69,4.92,-4.88,-5.10,-5.27,0.82,0.80,0.78
308.61,5.66,4.86,5.65,4.86,-4.83,-5.04,-5.12,0.82,0.82,0.79
311.69,5.61,4.78,5.60,4.78,-4.79,-4.97,-4.96,0.82,0.82,0.82
314.81,5.55,4.69,5.56,4.71,-4.74,-4.91,-4.81,0.80,0.81,0.85
317.96,5.53,4.66,5.54,4.67,-4.69,-4.85,-4.66,0.83,0.84,0.87
321.14,5.54,4.66,5.53,4.65,-4.64,-4.78,-4.52,0.90,0.89,0.88
324.35,5.53,4.63,5.52,4.63,-4.58,-4.72,-4.37,0.94,0.94,0.90
327.59,5.50,4.58,5.49,4.58,-4.53,-4.65,-4.23,0.96,0.95,0.91
330.87,5.44,4.51,5.42,4.50,-4.49,-4.59,-4.09,0.95,0.94,0.92
334.18,5.35,4.41,5.37,4.43,-4.45,-4.52,-3.95,0.90,0.92,0.94
337.52,5.32,4.37,5.32,4.37,-4.42,-4.46,-3.81,0.90,0.91,0.95
340.90,5.32,4.35,5.31,4.34,-4.39,-4.39,-3.67,0.93,0.92,0.97
344.30,5.32,4.34,5.31,4.34,-4.36,-4.32,-3.54,0.96,0.95,0.98
347.75,5.32,4.34,5.32,4.34,-4.33,-4.26,-3.41,0.98,0.99,0.98
351.23,5.32,4.33,5.32,4.34,-4.32,-4.19,-3.28,1.00,1.01,0.98
354.74,5.33,4.34,5.31,4.33,-4.30,-4.12,-3.15,1.03,1.01,0.98
358.28,5.28,4.28,5.28,4.29,-4.27,-4.05,-3.03,1.00,1.01,0.99
361.87,5.23,4.24,5.23,4.23,-4.23,-3.98,-2.91,0.99,0.99,0.99
365.49,5.16,4.16,5.16,4.17,-4.18,-3.91,-2.79,0.97,0.98,1.00
369.14,5.11,4.12,5.11,4.12,-4.12,-3.84,-2.67,0.99,0.99,0.99
372.83,5.04,4.05,5.03,4.05,-4.03,-3.77,-2.56,1.00,1.00,0.99
376.56,4.97,3.98,4.95,3.96,-3.94,-3.69,-2.45,1.03,1.01,0.99
380.33,4.84,3.84,4.85,3.86,-3.83,-3.62,-2.34,1.00,1.02,1.00
384.13,4.74,3.74,4.73,3.74,-3.73,-3.55,-2.23,1.01,1.00,0.99
387.97,4.62,3.63,4.60,3.62,-3.62,-3.47,-2.12,1.00,0.98,0.98
391.85,4.47,3.49,4.48,3.50,-3.52,-3.40,-2.02,0.95,0.96,0.97
395.77,4.38,3.39,4.37,3.39,-3.43,-3.32,-1.92,0.95,0.94,0.98
399.73,4.28,3.30,4.27,3.30,-3.35,-3.24,-1.82,0.93,0.92,0.97
403.72,4.21,3.24,4.22,3.25,-3.29,-3.16,-1.72,0.92,0.93,0.97
407.76,4.16,3.20,4.18,3.22,-3.23,-3.09,-1.62,0.93,0.95,0.96
411.84,4.18,3.22,4.14,3.18,-3.17,-3.01,-1.53,1.01,0.97,0.96
415.96,4.11,3.15,4.11,3.15,-3.11,-2.93,-1.43,1.00,1.00,0.96
420.12,4.03,3.07,4.06,3.11,-3.05,-2.84,-1.34,0.98,1.02,0.96
424.32,4.02,3.06,3.99,3.03,-2.98,-2.76,-1.26,1.03,1.00,0.96
428.56,3.91,2.94,3.88,2.91,-2.91,-2.68,-1.17,1.00,0.97,0.97
432.85,3.76,2.78,3.76,2.79,-2.83,-2.59,-1.09,0.93,0.93,0.98
437.18,3.62,2.63,3.68,2.68,-2.74,-2.51,-1.00,0.88,0.94,0.99
441.55,3.65,2.62,3.64,2.62,-2.65,-2.42,-0.92,1.00,0.99,1.03
445.96,3.68,2.62,3.63,2.58,-2.56,-2.33,-0.84,1.12,1.07,1.05
450.42,3.60,2.51,3.60,2.51,-2.47,-2.24,-0.77,1.13,1.13,1.08
454.93,3.53,2.39,3.52,2.39,-2.39,-2.15,-0.69,1.13,1.13,1.13
459.48,3.44,2.25,3.47,2.29,-2.31,-2.06,-0.62,1.12,1.16,1.18
464.07,3.43,2.19,3.43,2.20,-2.23,-1.96,-0.55,1.20,1.21,1.23
468.71,3.46,2.16,3.41,2.12,-2.13,-1.86,-0.49,1.33,1.28,1.29
473.40,3.36,2.02,3.38,2.05,-2.01,-1.77,-0.42,1.34,1.37,1.33
478.13,3.33,1.93,3.33,1.94,-1.90,-1.67,-0.36,1.43,1.43,1.39
482.91,3.25,1.81,3.23,1.79,-1.77,-1.56,-0.30,1.47,1.45,1.43
487.74,3.13,1.65,3.12,1.64,-1.65,-1.46,-0.24,1.48,1.47,1.47
492.62,2.97,1.45,2.99,1.48,-1.51,-1.36,-0.18,1.46,1.48,1.52
497.55,2.87,1.33,2.88,1.34,-1.36,-1.25,-0.13,1.50,1.52,1.54
502.52,2.80,1.23,2.78,1.21,-1.21,-1.14,-0.08,1.58,1.56,1.57
507.55,2.69,1.11,2.66,1.08,-1.06,-1.03,-0.03,1.62,1.60,1.58
512.62,2.50,0.91,2.51,0.92,-0.91,-0.91,0.02,1.59,1.60,1.59
517.75,2.34,0.74,2.35,0.76,-0.75,-0.79,0.06,1.58,1.60,1.60
522.93,2.20,0.61,2.20,0.61,-0.60,-0.68,0.10,1.59,1.59,1.59
528.16,2.05,0.49,2.04,0.47,-0.46,-0.55,0.15,1.58,1.58,1.56
533.44,1.88,0.35,1.85,0.32,-0.33,-0.43,0.18,1.55,1.52,1.53
538.77,1.63,0.13,1.64,0.14,-0.19,-0.30,0.22,1.43,1.44,1.50
544.16,1.43,-0.02,1.45,-0.00,-0.05,-0.17,0.26,1.37,1.39,1.45
