frequency,raw
20.00,-8.21
20.20,-8.11
20.40,-8.02
20.61,-7.92
20.81,-7.83
21.02,-7.73
21.23,-7.63
21.44,-7.53
21.66,-7.44
21.87,-7.34
22.09,-7.24
22.31,-7.14
22.54,-7.04
22.76,-6.94
22.99,-6.84
23.22,-6.75
23.45,-6.65
23.69,-6.55
23.92,-6.45
24.16,-6.35
24.40,-6.26
24.65,-6.16
24.89,-6.06
25.14,-5.96
25.39,-5.86
25.65,-5.77
25.91,-5.67
26.16,-5.57
26.43,-5.47
26.69,-5.37
26.96,-5.28
27.23,-5.18
27.50,-5.08
27.77,-4.98
28.05,-4.88
28.33,-4.79
28.62,-4.69
28.90,-4.59
29.19,-4.50
29.48,-4.40
29.78,-4.31
30.08,-4.22
30.38,-4.13
30.68,-4.05
30.99,-3.96
31.30,-3.88
31.61,-3.79
31.93,-3.71
32.24,-3.63
32.57,-3.54
32.89,-3.46
33.22,-3.37
33.55,-3.29
33.89,-3.20
34.23,-3.11
34.57,-3.02
34.92,-2.93
35.27,-2.84
35.62,-2.75
35.97,-2.67
36.33,-2.59
36.70,-2.51
37.06,-2.43
37.43,-2.35
37.81,-2.27
38.19,-2.19
38.57,-2.12
38.95,-2.04
39.34,-1.97
39.74,-1.90
40.14,-1.83
40.54,-1.75
40.94,-1.68
41.35,-1.61
41.76,-1.55
42.18,-1.48
42.60,-1.41
43.03,-1.35
43.46,-1.28
43.90,-1.21
44.33,-1.15
44.78,-1.09
45.23,-1.03
45.68,-0.97
46.13,-0.92
46.60,-0.86
47.06,-0.81
47.53,-0.75
48.01,-0.69
48.49,-0.63
48.97,-0.57
49.46,-0.51
49.96,-0.46
50.46,-0.39
50.96,-0.33
51.47,-0.28
51.99,-0.22
52.51,-0.15
53.03,-0.09
53.56,-0.02
54.10,0.04
54.64,0.12
55.18,0.20
55.74,0.27
56.29,0.35
56.86,0.42
57.42,0.50
58.00,0.57
58.58,0.65
59.16,0.72
59.76,0.81
60.35,0.88
60.96,0.95
61.57,1.03
62.18,1.12
62.80,1.20
63.43,1.29
64.07,1.37
64.71,1.43
65.35,1.50
66.01,1.57
66.67,1.64
67.33,1.72
68.01,1.80
68.69,1.87
69.37,1.93
70.07,1.99
70.77,2.05
71.48,2.11
72.19,2.17
72.91,2.23
73.64,2.29
74.38,2.35
75.12,2.41
75.87,2.46
76.63,2.51
77.40,2.55
78.17,2.59
78.95,2.65
79.74,2.69
80.54,2.74
81.35,2.79
82.16,2.85
82.98,2.90
83.81,2.94
84.65,2.98
85.50,3.01
86.35,3.05
87.22,3.09
88.09,3.11
88.97,3.13
89.86,3.14
90.76,3.16
91.66,3.17
92.58,3.18
93.51,3.18
94.44,3.18
95.39,3.17
96.34,3.16
97.30,3.16
98.28,3.16
99.26,3.16
100.25,3.16
101.25,3.16
102.27,3.16
103.29,3.16
104.32,3.16
105.37,3.16
106.42,3.16
107.48,3.16
108.56,3.16
109.64,3.17
110.74,3.18
111.85,3.18
112.97,3.18
114.10,3.17
115.24,3.15
116.39,3.14
117.55,3.13
118.73,3.10
119.92,3.06
121.12,3.01
122.33,2.98
123.55,2.94
124.79,2.88
126.03,2.82
127.29,2.77
128.57,2.72
129.85,2.64
131.15,2.57
132.46,2.53
133.79,2.48
135.12,2.40
136.48,2.35
137.84,2.26
139.22,2.20
140.61,2.11
142.02,1.98
143.44,1.91
144.87,1.79
146.32,1.71
147.78,1.58
149.26,1.49
150.75,1.37
152.26,1.27
153.78,1.12
155.32,1.00
156.88,0.87
158.44,0.77
160.03,0.60
161.63,0.50
163.24,0.40
164.88,0.23
166.53,0.10
168.19,-0.02
169.87,-0.21
171.57,-0.33
173.29,-0.46
175.02,-0.67
176.77,-0.80
178.54,-0.93
180.32,-1.06
182.13,-1.19
183.95,-1.39
185.79,-1.54
187.65,-1.71
189.52,-1.85
191.42,-2.00
193.33,-2.17
195.27,-2.34
197.22,-2.51
199.19,-2.68
201.18,-2.85
203.19,-3.03
205.23,-3.21
207.28,-3.38
209.35,-3.55
211.44,-3.73
213.56,-3.90
215.69,-4.06
217.85,-4.20
220.03,-4.30
222.23,-4.41
224.45,-4.55
226.70,-4.70
228.96,-4.82
231.25,-4.89
233.57,-4.96
235.90,-5.06
238.26,-5.11
240.64,-5.18
243.05,-5.23
245.48,-5.30
247.93,-5.38
250.41,-5.41
252.92,-5.45
255.45,-5.47
258.00,-5.48
260.58,-5.48
263.19,-5.47
265.82,-5.47
268.48,-5.46
271.16,-5.45
273.87,-5.41
276.61,-5.38
279.38,-5.34
282.17,-5.29
284.99,-5.24
287.84,-5.18
290.72,-5.13
293.63,-5.09
296.57,-5.04
299.53,-4.99
302.53,-4.92
305.55,-4.82
308.61,-4.72
311.69,-4.61
314.81,-4.52
317.96,-4.41
321.14,-4.29
324.35,-4.17
327.59,-4.05
330.87,-3.95
334.18,-3.82
337.52,-3.67
340.90,-3.56
344.30,-3.43
347.75,-3.32
351.23,-3.20
354.74,-3.09
358.28,-2.97
361.87,-2.87
365.49,-2.76
369.14,-2.66
372.83,-2.57
376.56,-2.45
380.33,-2.36
384.13,-2.27
387.97,-2.19
391.85,-2.12
395.77,-2.05
399.73,-1.98
403.72,-1.91
407.76,-1.83
411.84,-1.76
415.96,-1.70
420.12,-1.64
424.32,-1.59
428.56,-1.56
432.85,-1.51
437.18,-1.46
441.55,-1.41
445.96,-1.37
450.42,-1.33
454.93,-1.29
459.48,-1.25
464.07,-1.22
468.71,-1.19
473.40,-1.15
478.13,-1.12
482.91,-1.08
487.74,-1.03
492.62,-0.98
497.55,-0.94
502.52,-0.90
507.55,-0.87
512.62,-0.84
517.75,-0.81
522.93,-0.79
528.16,-0.76
533.44,-0.74
538.77,-0.72
544.16,-0.71
549.60,-0.71
555.10,-0.72
560.65,-0.74
566.25,-0.75
571.92,-0.76
577.64,-0.75
583.41,-0.74
589.25,-0.72
595.14,-0.69
601.09,-0.66
607.10,-0.63
613.17,-0.60
619.30,-0.57
625.50,-0.53
631.75,-0.50
638.07,-0.46
644.45,-0.44
650.89,-0.42
657.40,-0.40
663.98,-0.40
670.62,-0.40
677.32,-0.42
684.10,-0.42
690.94,-0.41
697.85,-0.40
704.83,-0.38
711.87,-0.35
718.99,-0.33
726.18,-0.29
733.44,-0.26
740.78,-0.22
748.19,-0.19
755.67,-0.16
763.23,-0.13
770.86,-0.11
778.57,-0.08
786.35,-0.07
794.22,-0.06
802.16,-0.06
810.18,-0.07
818.28,-0.08
826.46,-0.08
834.73,-0.08
843.08,-0.08
851.51,-0.08
860.02,-0.08
868.62,-0.08
877.31,-0.08
886.08,-0.08
894.94,-0.08
903.89,-0.08
912.93,-0.09
922.06,-0.09
931.28,-0.10
940.59,-0.11
950.00,-0.10
959.50,-0.09
969.09,-0.08
978.78,-0.06
988.57,-0.03
998.46,-0.01
1008.44,0.03
1018.53,0.06
1028.71,0.09
1039.00,0.13
1049.39,0.16
1059.88,0.19
1070.48,0.22
1081.19,0.23
1092.00,0.25
1102.92,0.25
1113.95,0.24
1125.09,0.23
1136.34,0.23
1147.70,0.24
1159.18,0.26
1170.77,0.28
1182.48,0.31
1194.30,0.34
1206.25,0.37
1218.31,0.41
1230.49,0.44
1242.80,0.46
1255.22,0.49
1267.78,0.51
1280.45,0.54
1293.26,0.58
1306.19,0.61
1319.25,0.64
1332.45,0.67
1345.77,0.68
1359.23,0.70
1372.82,0.72
1386.55,0.76
1400.41,0.81
1414.42,0.86
1428.56,0.91
1442.85,0.95
1457.28,0.99
1471.85,1.02
1486.57,1.05
1501.43,1.08
1516.45,1.11
1531.61,1.15
1546.93,1.20
1562.40,1.25
1578.02,1.29
1593.80,1.34
1609.74,1.37
1625.84,1.41
1642.10,1.45
1658.52,1.48
1675.10,1.51
1691.85,1.53
1708.77,1.54
1725.86,1.54
1743.12,1.53
1760.55,1.50
1778.15,1.46
1795.94,1.41
1813.90,1.35
1832.03,1.29
1850.36,1.23
1868.86,1.17
1887.55,1.08
1906.42,1.00
1925.49,0.92
1944.74,0.83
1964.19,0.74
1983.83,0.66
2003.67,0.58
2023.71,0.48
2043.94,0.38
2064.38,0.29
2085.03,0.20
2105.88,0.10
2126.94,0.00
2148.20,-0.10
2169.69,-0.18
2191.38,-0.25
2213.30,-0.34
2235.43,-0.42
2257.78,-0.50
2280.36,-0.58
2303.17,-0.65
2326.20,-0.71
2349.46,-0.77
2372.95,-0.83
2396.68,-0.89
2420.65,-0.95
2444.86,-1.01
2469.31,-1.07
2494.00,-1.13
2518.94,-1.19
2544.13,-1.27
2569.57,-1.36
2595.27,-1.45
2621.22,-1.55
2647.43,-1.64
2673.90,-1.74
2700.64,-1.84
2727.65,-1.95
2754.93,-2.05
2782.48,-2.15
2810.30,-2.25
2838.40,-2.36
2866.79,-2.47
2895.46,-2.57
2924.41,-2.68
2953.65,-2.79
2983.19,-2.90
3013.02,-3.00
3043.15,-3.12
3073.58,-3.25
3104.32,-3.40
3135.36,-3.55
3166.72,-3.70
3198.38,-3.86
3230.37,-4.02
3262.67,-4.20
3295.30,-4.38
3328.25,-4.57
3361.53,-4.78
3395.15,-4.99
3429.10,-5.21
3463.39,-5.43
3498.03,-5.67
3533.01,-5.90
3568.34,-6.14
3604.02,-6.39
3640.06,-6.65
3676.46,-6.92
3713.22,-7.21
3750.36,-7.50
3787.86,-7.81
3825.74,-8.12
3864.00,-8.44
3902.64,-8.79
3941.66,-9.14
3981.08,-9.51
4020.89,-9.88
4061.10,-10.26
4101.71,-10.63
4142.73,-11.01
4184.15,-11.38
4226.00,-11.75
4268.26,-12.10
4310.94,-12.43
4354.05,-12.71
4397.59,-12.94
4441.56,-13.11
4485.98,-13.21
4530.84,-13.24
4576.15,-13.19
4621.91,-13.06
4668.13,-12.86
4714.81,-12.58
4761.96,-12.23
4809.58,-11.80
4857.67,-11.32
4906.25,-10.79
4955.31,-10.24
5004.87,-9.69
5054.91,-9.14
5105.46,-8.61
5156.52,-8.12
5208.08,-7.66
5260.16,-7.24
5312.77,-6.86
5365.89,-6.52
5419.55,-6.22
5473.75,-5.98
5528.49,-5.78
5583.77,-5.62
5639.61,-5.50
5696.00,-5.42
5752.96,-5.35
5810.49,-5.31
5868.60,-5.28
5927.28,-5.28
5986.56,-5.29
6046.42,-5.31
6106.89,-5.32
6167.96,-5.31
6229.64,-5.29
6291.93,-5.27
6354.85,-5.21
6418.40,-5.10
6482.58,-4.96
6547.41,-4.79
6612.88,-4.58
6679.01,-4.34
6745.80,-4.06
6813.26,-3.73
6881.39,-3.39
6950.21,-3.01
7019.71,-2.60
7089.91,-2.17
7160.81,-1.72
7232.41,-1.24
7304.74,-0.73
7377.79,-0.18
7451.56,0.40
7526.08,1.00
7601.34,1.62
7677.35,2.26
7754.13,2.90
7831.67,3.52
7909.98,4.13
7989.08,4.72
8068.98,5.27
8149.67,5.75
8231.16,6.18
8313.47,6.56
8396.61,6.88
8480.57,7.15
8565.38,7.38
8651.03,7.56
8737.54,7.69
8824.92,7.80
8913.17,7.88
9002.30,7.95
9092.32,7.99
9183.25,8.01
9275.08,7.99
9367.83,7.94
9461.51,7.86
9556.12,7.72
9651.68,7.52
9748.20,7.26
9845.68,6.94
9944.14,6.53
10043.58,6.08
10144.02,5.59
10245.46,5.04
10347.91,4.46
10451.39,3.86
10555.91,3.21
10661.46,2.57
10768.08,1.95
10875.76,1.33
10984.52,0.72
11094.36,0.12
11205.31,-0.46
11317.36,-1.02
11430.53,-1.57
11544.84,-2.10
11660.29,-2.64
11776.89,-3.16
11894.66,-3.65
12013.60,-4.11
12133.74,-4.53
12255.08,-4.91
12377.63,-5.25
12501.41,-5.54
12626.42,-5.78
12752.68,-5.98
12880.21,-6.14
13009.01,-6.26
13139.10,-6.36
13270.49,-6.45
13403.20,-6.54
13537.23,-6.64
13672.60,-6.73
13809.33,-6.84
13947.42,-6.94
14086.90,-7.03
14227.77,-7.12
14370.04,-7.20
14513.74,-7.27
14658.88,-7.33
14805.47,-7.39
14953.52,-7.46
15103.06,-7.57
15254.09,-7.69
15406.63,-7.85
15560.70,-8.06
15716.30,-8.33
15873.47,-8.64
16032.20,-9.00
16192.52,-9.43
16354.45,-9.89
16517.99,-10.39
16683.17,-10.90
16850.01,-11.45
17018.51,-12.01
17188.69,-12.56
17360.58,-13.12
17534.18,-13.68
17709.53,-14.26
17886.62,-14.85
18065.49,-15.45
18246.14,-16.03
18428.60,-16.62
18612.89,-17.21
18799.02,-17.81
18987.01,-18.41
19176.88,-19.01
19368.65,-19.61
19562.33,-20.23
19757.96,-20.85
19955.54,-21.48
