frequency,raw
20,-13.46
21,-12.91
22,-12.22
23,-11.72
24,-11.13
25,-10.62
26,-10.17
27,-9.73
28,-9.27
29,-8.94
30,-8.56
31,-8.19
32,-7.83
33,-7.50
34,-7.31
35,-6.98
36,-6.81
37,-6.49
38,-6.16
39,-5.92
40,-5.75
41,-5.51
42,-5.19
43,-4.98
44,-4.72
45,-4.46
46,-4.22
47,-4.06
48,-3.89
49,-3.57
50,-3.44
51,-3.24
52,-3.16
53,-2.94
54,-2.92
55,-2.85
56,-2.64
57,-2.59
58,-2.59
59,-2.59
60,-2.59
61,-2.59
62,-2.59
63,-2.59
64,-2.43
65,-2.27
66,-2.27
67,-2.27
68,-2.27
69,-2.20
70,-1.95
71,-1.95
72,-1.95
73,-1.92
74,-1.77
75,-1.62
76,-1.62
77,-1.62
78,-1.62
79,-1.52
80,-1.37
81,-1.30
82,-1.30
83,-1.30
84,-1.30
85,-1.18
86,-1.04
87,-0.97
88,-0.97
89,-0.97
90,-0.97
91,-0.89
92,-0.77
93,-0.65
94,-0.65
95,-0.65
96,-0.65
97,-0.65
98,-0.65
99,-0.59
100,-0.49
101,-0.49
102,-0.41
104,-0.32
105,-0.32
106,-0.32
107,-0.32
108,-0.32
109,-0.32
110,-0.32
111,-0.32
112,-0.32
113,-0.23
114,-0.16
115,-0.16
117,-0.00
118,0.00
119,0.00
120,0.00
121,0.00
123,0.00
124,0.00
125,0.00
126,0.00
128,0.00
129,-0.00
130,0.00
131,0.00
133,0.00
134,0.00
135,0.00
137,0.16
138,0.16
140,0.16
141,0.16
142,0.16
144,0.16
145,0.16
147,0.16
148,0.22
150,0.32
151,0.32
153,0.32
154,0.32
156,0.32
157,0.32
159,0.32
160,0.32
162,0.32
164,0.32
165,0.32
167,0.32
169,0.32
170,0.32
172,0.32
174,0.32
175,0.32
177,0.32
179,0.42
181,0.49
183,0.51
184,0.57
186,0.65
188,0.65
190,0.65
192,0.65
194,0.65
196,0.65
198,0.65
200,0.65
202,0.65
204,0.65
206,0.65
208,0.65
210,0.65
212,0.65
214,0.65
216,0.65
218,0.65
221,0.65
223,0.65
225,0.65
227,0.65
229,0.65
232,0.65
234,0.65
236,0.65
239,0.65
241,0.65
244,0.65
246,0.65
248,0.65
251,0.65
253,0.65
256,0.65
259,0.65
261,0.65
264,0.65
266,0.65
269,0.65
272,0.65
274,0.65
277,0.65
280,0.65
283,0.65
286,0.65
288,0.65
291,0.65
294,0.65
297,0.65
300,0.65
303,0.65
306,0.65
309,0.65
312,0.65
316,0.65
319,0.65
322,0.65
325,0.65
328,0.65
332,0.65
335,0.65
338,0.65
342,0.54
345,0.49
349,0.47
352,0.37
356,0.32
359,0.32
363,0.32
366,0.32
370,0.32
374,0.32
377,0.32
381,0.32
385,0.32
389,0.32
393,0.32
397,0.31
401,0.20
405,0.16
409,0.14
413,0.03
417,0.00
421,0.00
425,0.00
430,0.00
434,0.00
438,0.00
443,-0.11
447,-0.22
451,-0.32
456,-0.32
460,-0.32
465,-0.32
470,-0.32
474,-0.32
479,-0.32
484,-0.32
489,-0.32
494,-0.32
499,-0.32
504,-0.32
509,-0.32
514,-0.32
519,-0.32
524,-0.32
529,-0.32
535,-0.32
540,-0.32
545,-0.32
551,-0.32
556,-0.32
562,-0.32
568,-0.32
573,-0.32
579,-0.32
585,-0.32
591,-0.32
596,-0.38
602,-0.49
608,-0.49
615,-0.58
621,-0.65
627,-0.65
633,-0.65
639,-0.65
646,-0.65
652,-0.65
659,-0.65
665,-0.65
672,-0.65
679,-0.65
686,-0.65
692,-0.65
699,-0.65
706,-0.65
713,-0.65
721,-0.65
728,-0.65
735,-0.65
742,-0.65
750,-0.65
757,-0.65
765,-0.65
773,-0.65
780,-0.65
788,-0.65
796,-0.65
804,-0.65
812,-0.65
820,-0.65
828,-0.65
837,-0.65
845,-0.65
853,-0.65
862,-0.64
871,-0.52
879,-0.42
888,-0.32
897,-0.32
906,-0.32
915,-0.32
924,-0.32
933,-0.32
943,-0.27
952,-0.17
962,-0.05
971,0.00
981,0.00
991,0.00
1001,0.00
1011,0.03
1021,0.14
1031,0.16
1041,0.19
1052,0.31
1062,0.32
1073,0.32
1084,0.32
1094,0.32
1105,0.32
1116,0.32
1128,0.32
1139,0.32
1150,0.32
1162,0.32
1173,0.32
1185,0.32
1197,0.32
1209,0.32
1221,0.32
1233,0.32
1246,0.32
1258,0.32
1271,0.34
1283,0.45
1296,0.49
1309,0.49
1322,0.49
1335,0.49
1349,0.53
1362,0.63
1376,0.65
1390,0.65
1404,0.65
1418,0.65
1432,0.65
1446,0.65
1461,0.65
1475,0.65
1490,0.65
1505,0.65
1520,0.74
1535,0.85
1550,0.96
1566,0.97
1582,0.97
1597,0.97
1613,1.09
1629,1.20
1646,1.30
1662,1.30
1679,1.38
1696,1.49
1713,1.60
1730,1.71
1747,1.82
1764,1.93
1782,2.15
1800,2.27
1818,2.28
1836,2.50
1854,2.66
1873,2.77
1892,2.89
1911,3.08
1930,3.24
1949,3.24
1969,3.43
1988,3.57
2008,3.57
2028,3.77
2048,3.89
2069,3.90
2090,4.13
2111,4.22
2132,4.24
2153,4.35
2175,4.46
2196,4.54
2218,4.54
2240,4.54
2263,4.58
2285,4.69
2308,4.81
2331,4.81
2355,4.70
2378,4.59
2402,4.54
2426,4.54
2450,4.54
2475,4.46
2500,4.35
2525,4.23
2550,4.22
2575,4.13
2601,3.90
2627,3.89
2653,3.78
2680,3.55
2707,3.33
2734,3.17
2761,3.06
2789,2.95
2817,2.75
2845,2.53
2873,2.31
2902,2.18
2931,2.06
2960,1.95
2990,1.73
3020,1.56
3050,1.45
3080,1.34
3111,1.23
3142,1.12
3174,1.00
3206,0.80
3238,0.65
3270,0.65
3303,0.65
3336,0.60
3369,0.49
3403,0.49
3437,0.49
3471,0.49
3506,0.49
3541,0.56
3576,0.65
3612,0.65
3648,0.65
3685,0.72
3721,0.94
3759,1.07
3796,1.18
3834,1.29
3873,1.41
3911,1.58
3950,1.79
3990,1.91
4030,2.02
4070,2.13
4111,2.24
4152,2.44
4193,2.59
4235,2.59
4278,2.79
4321,2.92
4364,2.92
4407,3.03
4451,3.14
4496,3.24
4541,3.24
4586,3.32
4632,3.43
4679,3.54
4725,3.57
4773,3.64
4820,3.86
4868,3.89
4917,3.89
4966,3.89
5016,4.12
5066,4.22
5117,4.22
5168,4.22
5220,4.37
5272,4.54
5325,4.54
5378,4.63
5432,4.74
5486,4.85
5541,4.97
5596,5.13
5652,5.35
5709,5.47
5766,5.64
5823,5.88
5882,6.22
5940,6.48
6000,6.76
6060,7.21
6120,7.56
6182,7.94
6244,8.39
6306,8.84
6369,9.34
6433,9.90
6497,10.35
6562,10.80
6628,11.22
6694,11.44
6761,11.75
6828,12.05
6897,12.28
6966,12.51
7035,12.69
7106,12.80
7177,12.91
7249,12.97
7321,12.98
7394,13.20
7468,13.30
7543,13.28
7618,13.17
7694,13.06
7771,12.94
7849,12.83
7928,12.63
8007,12.40
8087,12.18
8168,11.74
8250,11.35
8332,11.01
8415,10.56
8499,10.18
8584,9.83
8670,9.37
8757,8.92
8845,8.53
8933,8.31
9022,7.99
9113,7.70
9204,7.47
9296,7.35
9389,7.24
9483,7.14
9577,7.14
9673,7.07
9770,6.95
9868,6.84
9966,6.81
10066,6.81
10167,6.81
10268,6.62
10371,6.49
10475,6.49
10579,6.27
10685,6.11
10792,5.99
10900,5.76
11009,5.54
11119,5.31
11230,5.09
11343,4.86
11456,4.64
11571,4.41
11686,4.19
11803,3.96
11921,3.74
12040,3.52
12161,3.35
12282,3.24
12405,3.12
12529,3.01
12655,2.92
12781,2.92
12909,3.00
13038,3.11
13168,3.23
13300,3.24
13433,3.24
13567,3.24
13703,3.24
13840,3.24
13978,3.24
14118,3.24
14259,3.17
14402,3.06
14546,2.95
14692,2.92
14838,2.92
14987,2.92
15137,2.72
15288,2.59
15441,2.59
15595,2.59
15751,2.59
15909,2.58
16068,2.47
16229,2.36
16391,2.25
16555,2.13
16720,2.02
16888,1.87
17056,1.65
17227,1.42
17399,1.20
17573,0.98
17749,0.64
17926,0.36
18106,0.14
18287,-0.09
18470,-0.39
18654,-0.72
18841,-1.06
19029,-1.31
19220,-1.53
19412,-1.76
19606,-2.18
19802,-2.63
20000,-3.08
