frequency,raw,error,smoothed,error_smoothed,equalization,parametric_eq,fixed_band_eq,equalized_raw,equalized_smoothed,target
20.00,5.87,1.82,5.87,1.82,-1.84,-2.34,-0.59,4.04,4.04,4.05
20.20,5.95,1.90,5.95,1.90,-1.90,-2.32,-0.60,4.05,4.05,4.05
20.40,6.02,1.97,6.02,1.97,-1.96,-2.31,-0.61,4.06,4.06,4.05
20.61,6.08,2.03,6.08,2.04,-2.02,-2.30,-0.62,4.06,4.06,4.05
20.81,6.14,2.10,6.14,2.10,-2.08,-2.30,-0.63,4.06,4.06,4.04
21.02,6.20,2.16,6.19,2.15,-2.14,-2.29,-0.64,4.06,4.06,4.04
21.23,6.24,2.20,6.24,2.20,-2.19,-2.29,-0.65,4.05,4.05,4.04
21.44,6.28,2.23,6.29,2.24,-2.25,-2.29,-0.66,4.04,4.04,4.05
21.66,6.33,2.29,6.33,2.29,-2.29,-2.29,-0.67,4.04,4.04,4.04
21.87,6.37,2.33,6.37,2.33,-2.33,-2.29,-0.68,4.04,4.04,4.04
22.09,6.41,2.38,6.41,2.38,-2.38,-2.30,-0.69,4.03,4.03,4.03
22.31,6.45,2.42,6.45,2.42,-2.42,-2.31,-0.70,4.03,4.03,4.03
22.54,6.49,2.47,6.49,2.47,-2.47,-2.32,-0.71,4.02,4.02,4.02
22.76,6.53,2.51,6.53,2.52,-2.52,-2.34,-0.72,4.01,4.01,4.02
22.99,6.58,2.56,6.58,2.57,-2.57,-2.36,-0.73,4.01,4.01,4.02
23.22,6.63,2.62,6.63,2.62,-2.63,-2.38,-0.74,4.00,4.00,4.01
23.45,6.68,2.68,6.69,2.68,-2.68,-2.41,-0.75,4.00,4.00,4.01
23.69,6.74,2.74,6.74,2.75,-2.74,-2.44,-0.76,4.00,4.00,4.00
23.92,6.80,2.82,6.80,2.81,-2.80,-2.47,-0.78,4.00,3.99,3.99
24.16,6.85,2.87,6.86,2.87,-2.87,-2.50,-0.79,3.99,3.99,3.98
24.40,6.91,2.93,6.91,2.93,-2.93,-2.54,-0.80,3.98,3.98,3.98
24.65,6.97,2.99,6.97,2.99,-2.99,-2.58,-0.82,3.98,3.98,3.98
24.89,7.03,3.05,7.03,3.05,-3.06,-2.62,-0.83,3.98,3.98,3.98
25.14,7.09,3.11,7.09,3.11,-3.12,-2.67,-0.85,3.98,3.98,3.98
25.39,7.15,3.18,7.15,3.18,-3.17,-2.71,-0.86,3.98,3.98,3.97
25.65,7.21,3.24,7.21,3.24,-3.23,-2.76,-0.88,3.98,3.98,3.97
25.91,7.26,3.29,7.26,3.29,-3.29,-2.81,-0.90,3.97,3.97,3.97
26.16,7.31,3.33,7.31,3.34,-3.34,-2.86,-0.92,3.97,3.97,3.98
26.43,7.36,3.38,7.36,3.38,-3.39,-2.91,-0.94,3.97,3.97,3.98
26.69,7.41,3.44,7.41,3.43,-3.44,-2.95,-0.96,3.98,3.97,3.98
26.96,7.45,3.48,7.45,3.48,-3.48,-3.00,-0.99,3.98,3.98,3.98
27.23,7.49,3.52,7.49,3.51,-3.51,-3.04,-1.01,3.98,3.98,3.97
27.50,7.51,3.54,7.51,3.54,-3.54,-3.07,-1.04,3.97,3.98,3.97
27.77,7.53,3.55,7.53,3.56,-3.56,-3.10,-1.07,3.97,3.97,3.98
28.05,7.54,3.57,7.54,3.57,-3.57,-3.12,-1.10,3.97,3.97,3.97
28.33,7.54,3.57,7.54,3.57,-3.57,-3.14,-1.14,3.97,3.97,3.97
28.62,7.53,3.57,7.53,3.57,-3.57,-3.14,-1.18,3.96,3.96,3.96
28.90,7.50,3.53,7.51,3.55,-3.55,-3.12,-1.22,3.95,3.96,3.97
29.19,7.48,3.53,7.47,3.52,-3.52,-3.10,-1.26,3.96,3.95,3.96
29.48,7.42,3.48,7.43,3.48,-3.48,-3.06,-1.31,3.94,3.95,3.94
29.78,7.37,3.43,7.37,3.42,-3.42,-3.00,-1.36,3.95,3.94,3.94
30.08,7.28,3.34,7.29,3.35,-3.35,-2.92,-1.42,3.93,3.94,3.94
30.38,7.19,3.26,7.19,3.26,-3.26,-2.83,-1.47,3.93,3.93,3.93
30.68,7.08,3.15,7.08,3.15,-3.15,-2.72,-1.54,3.93,3.93,3.93
30.99,6.95,3.03,6.95,3.03,-3.02,-2.59,-1.60,3.93,3.93,3.93
31.30,6.80,2.88,6.80,2.88,-2.87,-2.45,-1.67,3.93,3.93,3.92
31.61,6.63,2.71,6.63,2.71,-2.70,-2.29,-1.75,3.93,3.93,3.92
31.93,6.44,2.52,6.44,2.52,-2.51,-2.11,-1.82,3.94,3.94,3.92
32.24,6.23,2.30,6.23,2.31,-2.29,-1.92,-1.90,3.94,3.94,3.93
32.57,5.99,2.08,5.99,2.07,-2.06,-1.72,-1.99,3.93,3.93,3.92
32.89,5.73,1.81,5.73,1.81,-1.82,-1.50,-2.08,3.91,3.91,3.92
33.22,5.44,1.52,5.44,1.52,-1.57,-1.28,-2.18,3.87,3.87,3.92
33.55,5.12,1.20,5.12,1.21,-1.31,-1.06,-2.27,3.81,3.81,3.92
33.89,4.78,0.88,4.78,0.87,-1.05,-0.83,-2.37,3.73,3.73,3.91
34.23,4.41,0.52,4.41,0.51,-0.78,-0.61,-2.48,3.63,3.63,3.89
34.57,4.01,0.12,4.01,0.13,-0.50,-0.40,-2.59,3.51,3.52,3.89
34.92,3.59,-0.28,3.59,-0.29,-0.20,-0.20,-2.70,3.39,3.39,3.87
35.27,3.14,-0.73,3.14,-0.72,0.09,-0.03,-2.82,3.23,3.23,3.86
35.62,2.67,-1.16,2.66,-1.17,0.34,0.12,-2.94,3.02,3.01,3.83
35.97,2.18,-1.64,2.18,-1.63,0.54,0.22,-3.07,2.72,2.73,3.82
36.33,1.71,-2.09,1.71,-2.08,0.68,0.29,-3.19,2.38,2.38,3.79
36.70,1.25,-2.51,1.25,-2.51,0.74,0.30,-3.32,1.99,1.99,3.76
37.06,0.84,-2.90,0.84,-2.90,0.72,0.27,-3.46,1.56,1.55,3.74
37.43,0.48,-3.23,0.47,-3.23,0.62,0.19,-3.59,1.10,1.10,3.70
37.81,0.18,-3.50,0.19,-3.48,0.46,0.06,-3.74,0.64,0.65,3.68
38.19,0.00,-3.64,0.01,-3.64,0.23,-0.12,-3.88,0.24,0.25,3.65
38.57,-0.05,-3.67,-0.06,-3.68,-0.04,-0.33,-4.03,-0.08,-0.09,3.62
38.95,-0.01,-3.60,0.00,-3.59,-0.33,-0.57,-4.18,-0.34,-0.33,3.60
39.34,0.16,-3.40,0.18,-3.39,-0.63,-0.84,-4.33,-0.46,-0.45,3.56
39.74,0.48,-3.06,0.47,-3.07,-0.90,-1.13,-4.49,-0.42,-0.43,3.54
40.14,0.87,-2.65,0.87,-2.64,-1.15,-1.43,-4.65,-0.29,-0.29,3.51
40.54,1.35,-2.15,1.36,-2.13,-1.41,-1.74,-4.81,-0.07,-0.05,3.50
40.94,1.92,-1.55,1.92,-1.55,-1.67,-2.06,-4.98,0.25,0.24,3.47
41.35,2.52,-0.92,2.52,-0.92,-1.93,-2.38,-5.15,0.59,0.59,3.45
41.76,3.16,-0.26,3.16,-0.27,-2.19,-2.70,-5.32,0.97,0.97,3.42
42.18,3.80,0.38,3.79,0.38,-2.43,-3.03,-5.50,1.37,1.36,3.41
42.60,4.42,1.03,4.42,1.04,-2.67,-3.35,-5.68,1.75,1.76,3.39
43.03,5.04,1.68,5.04,1.67,-2.92,-3.68,-5.86,2.13,2.12,3.36
43.46,5.64,2.30,5.64,2.30,-3.19,-4.00,-6.05,2.45,2.45,3.34
43.90,6.22,2.89,6.22,2.90,-3.49,-4.33,-6.24,2.73,2.73,3.33
44.33,6.77,3.47,6.76,3.46,-3.82,-4.66,-6.44,2.94,2.94,3.30
44.78,7.29,4.01,7.28,4.00,-4.19,-4.99,-6.64,3.10,3.10,3.28
45.23,7.78,4.50,7.79,4.52,-4.58,-5.33,-6.85,3.19,3.20,3.27
45.68,8.26,5.02,8.26,5.02,-5.00,-5.68,-7.05,3.26,3.26,3.24
46.13,8.73,5.53,8.71,5.50,-5.44,-6.03,-7.27,3.28,3.27,3.20
46.60,9.13,5.95,9.14,5.96,-5.89,-6.39,-7.49,3.23,3.25,3.18
47.06,9.54,6.39,9.54,6.39,-6.35,-6.76,-7.71,3.20,3.20,3.15
47.53,9.92,6.80,9.92,6.80,-6.79,-7.14,-7.93,3.14,3.13,3.12
48.01,10.28,7.21,10.28,7.21,-7.21,-7.52,-8.17,3.07,3.07,3.07
48.49,10.62,7.58,10.62,7.58,-7.59,-7.91,-8.40,3.03,3.03,3.04
48.97,10.95,7.95,10.95,7.95,-7.96,-8.30,-8.64,3.00,3.00,3.00
49.46,11.26,8.29,11.26,8.30,-8.31,-8.68,-8.89,2.96,2.96,2.97
49.96,11.56,8.65,11.56,8.64,-8.64,-9.04,-9.14,2.92,2.92,2.91
50.46,11.84,8.96,11.84,8.97,-8.96,-9.39,-9.39,2.88,2.88,2.88
50.96,12.11,9.28,12.11,9.28,-9.27,-9.71,-9.65,2.84,2.84,2.83
51.47,12.36,9.56,12.36,9.57,-9.57,-9.99,-9.91,2.80,2.80,2.80
51.99,12.61,9.85,12.61,9.85,-9.85,-10.23,-10.17,2.76,2.76,2.76
52.51,12.84,10.12,12.84,10.11,-10.11,-10.43,-10.44,2.73,2.73,2.72
53.03,13.06,10.36,13.06,10.37,-10.37,-10.59,-10.71,2.69,2.69,2.70
53.56,13.26,10.61,13.26,10.61,-10.61,-10.73,-10.98,2.65,2.65,2.65
54.10,13.46,10.85,13.46,10.85,-10.85,-10.84,-11.25,2.61,2.61,2.61
54.64,13.64,11.07,13.64,11.07,-11.07,-10.94,-11.52,2.57,2.57,2.57
55.18,13.82,11.29,13.82,11.29,-11.28,-11.04,-11.79,2.54,2.54,2.53
55.74,13.98,11.49,13.98,11.49,-11.49,-11.14,-12.05,2.49,2.50,2.49
56.29,14.14,11.68,14.14,11.68,-11.68,-11.24,-12.30,2.46,2.46,2.46
56.86,14.29,11.85,14.29,11.86,-11.87,-11.36,-12.55,2.42,2.43,2.44
57.42,14.44,12.05,14.44,12.05,-12.04,-11.48,-12.79,2.40,2.40,2.39
58.00,14.58,12.22,14.58,12.22,-12.21,-11.63,-13.01,2.37,2.37,2.36
58.58,14.72,12.38,14.72,12.38,-12.38,-11.78,-13.22,2.34,2.34,2.34
59.16,14.84,12.53,14.84,12.53,-12.54,-11.95,-13.41,2.30,2.30,2.31
59.76,14.96,12.68,14.96,12.69,-12.70,-12.14,-13.58,2.26,2.26,2.28
60.35,15.07,12.85,15.07,12.84,-12.86,-12.33,-13.73,2.22,2.22,2.23
60.96,15.18,13.00,15.18,13.00,-13.01,-12.54,-13.84,2.17,2.17,2.19
61.57,15.28,13.16,15.28,13.15,-13.16,-12.75,-13.93,2.12,2.12,2.12
62.18,15.37,13.30,15.37,13.30,-13.30,-12.97,-13.99,2.07,2.07,2.07
62.80,15.46,13.44,15.46,13.44,-13.43,-13.20,-14.03,2.03,2.03,2.02
63.43,15.54,13.57,15.54,13.57,-13.56,-13.42,-14.03,1.98,1.98,1.97
64.07,15.61,13.68,15.61,13.68,-13.67,-13.64,-14.00,1.94,1.94,1.93
64.71,15.67,13.77,15.67,13.77,-13.77,-13.86,-13.94,1.90,1.90,1.90
65.35,15.71,13.85,15.71,13.85,-13.85,-14.06,-13.85,1.86,1.86,1.86
66.01,15.74,13.92,15.74,13.92,-13.92,-14.26,-13.74,1.82,1.82,1.82
66.67,15.76,13.97,15.76,13.97,-13.98,-14.43,-13.61,1.79,1.78,1.79
67.33,15.76,14.02,15.76,14.02,-14.01,-14.59,-13.47,1.75,1.75,1.74
68.01,15.74,14.04,15.74,14.04,-14.03,-14.72,-13.30,1.71,1.71,1.70
68.69,15.71,14.05,15.71,14.05,-14.04,-14.83,-13.12,1.67,1.67,1.66
69.37,15.66,14.03,15.66,14.03,-14.03,-14.90,-12.94,1.63,1.63,1.63
70.07,15.60,14.01,15.60,14.01,-14.01,-14.94,-12.74,1.59,1.59,1.60
70.77,15.52,13.97,15.52,13.97,-13.97,-14.94,-12.54,1.55,1.55,1.55
71.48,15.42,13.91,15.42,13.91,-13.92,-14.91,-12.33,1.51,1.51,1.51
72.19,15.31,13.85,15.31,13.85,-13.85,-14.85,-12.13,1.46,1.46,1.46
72.91,15.19,13.77,15.19,13.77,-13.77,-14.75,-11.92,1.42,1.42,1.42
73.64,15.06,13.68,15.06,13.68,-13.68,-14.62,-11.71,1.38,1.38,1.38
74.38,14.92,13.58,14.92,13.58,-13.58,-14.47,-11.51,1.34,1.34,1.34
75.12,14.77,13.47,14.77,13.47,-13.47,-14.29,-11.31,1.30,1.30,1.30
75.87,14.62,13.34,14.62,13.34,-13.35,-14.09,-11.11,1.27,1.27,1.28
76.63,14.46,13.22,14.46,13.22,-13.23,-13.88,-10.92,1.24,1.24,1.24
77.40,14.30,13.09,14.30,13.09,-13.09,-13.65,-10.73,1.21,1.21,1.21
78.17,14.14,12.97,14.13,12.96,-12.96,-13.42,-10.54,1.18,1.18,1.17
78.95,13.96,12.81,13.96,12.82,-12.82,-13.17,-10.36,1.14,1.14,1.15
79.74,13.79,12.67,13.79,12.68,-12.68,-12.92,-10.19,1.11,1.12,1.12
80.54,13.62,12.54,13.62,12.53,-12.53,-12.67,-10.03,1.09,1.09,1.08
81.35,13.45,12.39,13.45,12.39,-12.39,-12.41,-9.87,1.06,1.06,1.06
82.16,13.26,12.23,13.27,12.24,-12.24,-12.16,-9.71,1.02,1.02,1.03
82.98,13.08,12.09,13.08,12.09,-12.09,-11.91,-9.56,0.99,0.99,0.99
83.81,12.90,11.93,12.90,11.94,-11.94,-11.66,-9.42,0.96,0.96,0.97
84.65,12.72,11.79,12.72,11.79,-11.78,-11.42,-9.29,0.94,0.94,0.93
85.50,12.52,11.62,12.53,11.63,-11.62,-11.18,-9.16,0.90,0.91,0.90
86.35,12.34,11.46,12.34,11.46,-11.46,-10.94,-9.04,0.88,0.88,0.88
87.22,12.14,11.30,12.14,11.29,-11.30,-10.72,-8.92,0.85,0.84,0.85
88.09,11.94,11.13,11.94,11.13,-11.13,-10.49,-8.81,0.81,0.81,0.82
88.97,11.74,10.96,11.74,10.96,-10.96,-10.27,-8.71,0.78,0.78,0.78
89.86,11.54,10.79,11.54,10.79,-10.79,-10.06,-8.61,0.75,0.75,0.75
90.76,11.34,10.63,11.34,10.62,-10.62,-9.86,-8.52,0.72,0.72,0.72
91.66,11.13,10.45,11.13,10.45,-10.45,-9.66,-8.43,0.68,0.69,0.68
92.58,10.92,10.27,10.92,10.27,-10.28,-9.46,-8.35,0.65,0.65,0.65
93.51,10.72,10.11,10.72,10.10,-10.11,-9.27,-8.27,0.62,0.61,0.61
94.44,10.51,9.93,10.51,9.94,-9.94,-9.09,-8.20,0.57,0.57,0.58
95.39,10.31,9.78,10.31,9.77,-9.78,-8.91,-8.14,0.54,0.53,0.53
96.34,10.10,9.62,10.10,9.61,-9.62,-8.74,-8.08,0.48,0.49,0.49
97.30,9.90,9.45,9.90,9.46,-9.46,-8.58,-8.02,0.44,0.44,0.45
98.28,9.71,9.32,9.71,9.31,-9.31,-8.41,-7.97,0.40,0.40,0.39
99.26,9.51,9.17,9.52,9.17,-9.17,-8.26,-7.93,0.35,0.35,0.35
100.25,9.34,9.03,9.34,9.03,-9.02,-8.11,-7.88,0.32,0.31,0.31
101.25,9.16,8.89,9.16,8.89,-8.89,-7.96,-7.84,0.27,0.27,0.27
102.27,8.99,8.76,8.99,8.76,-8.76,-7.82,-7.81,0.23,0.23,0.23
103.29,8.83,8.64,8.83,8.63,-8.64,-7.69,-7.78,0.19,0.19,0.20
104.32,8.68,8.51,8.68,8.52,-8.53,-7.55,-7.75,0.16,0.16,0.17
105.37,8.54,8.41,8.54,8.41,-8.42,-7.43,-7.72,0.13,0.13,0.13
106.42,8.41,8.31,8.41,8.31,-8.31,-7.30,-7.69,0.10,0.10,0.10
107.48,8.28,8.23,8.28,8.22,-8.22,-7.18,-7.67,0.07,0.07,0.05
108.56,8.15,8.13,8.15,8.13,-8.12,-7.07,-7.65,0.03,0.03,0.03
109.64,8.03,8.03,8.03,8.03,-8.03,-6.95,-7.62,-0.00,-0.01,-0.00
110.74,7.90,7.94,7.90,7.94,-7.94,-6.85,-7.60,-0.04,-0.04,-0.04
111.85,7.78,7.86,7.78,7.86,-7.86,-6.74,-7.58,-0.08,-0.07,-0.08
112.97,7.66,7.77,7.66,7.77,-7.77,-6.64,-7.56,-0.11,-0.11,-0.11
114.10,7.53,7.68,7.53,7.68,-7.68,-6.54,-7.53,-0.15,-0.15,-0.15
115.24,7.39,7.59,7.39,7.59,-7.59,-6.45,-7.51,-0.20,-0.20,-0.20
116.39,7.25,7.50,7.26,7.50,-7.50,-6.35,-7.48,-0.25,-0.24,-0.25
117.55,7.12,7.41,7.12,7.41,-7.41,-6.27,-7.45,-0.28,-0.29,-0.29
118.73,6.97,7.31,6.97,7.31,-7.31,-6.18,-7.41,-0.34,-0.33,-0.34
119.92,6.82,7.21,6.82,7.21,-7.20,-6.10,-7.37,-0.38,-0.38,-0.39
121.12,6.67,7.09,6.67,7.10,-7.10,-6.01,-7.33,-0.42,-0.43,-0.42
122.33,6.51,6.99,6.51,6.98,-6.98,-5.94,-7.28,-0.47,-0.47,-0.47
123.55,6.35,6.87,6.35,6.86,-6.87,-5.86,-7.23,-0.52,-0.52,-0.52
124.79,6.18,6.74,6.18,6.74,-6.75,-5.79,-7.18,-0.56,-0.57,-0.56
126.03,6.00,6.61,6.00,6.62,-6.62,-5.71,-7.12,-0.62,-0.62,-0.61
127.29,5.82,6.49,5.82,6.49,-6.49,-5.65,-7.05,-0.67,-0.67,-0.67
128.57,5.63,6.35,5.63,6.35,-6.35,-5.58,-6.99,-0.72,-0.72,-0.72
129.85,5.43,6.20,5.44,6.21,-6.21,-5.51,-6.91,-0.78,-0.77,-0.77
131.15,5.24,6.06,5.24,6.06,-6.06,-5.45,-6.84,-0.82,-0.82,-0.82
132.46,5.04,5.91,5.04,5.91,-5.90,-5.39,-6.75,-0.86,-0.86,-0.87
133.79,4.83,5.74,4.84,5.75,-5.74,-5.33,-6.67,-0.91,-0.91,-0.91
135.12,4.63,5.58,4.63,5.58,-5.57,-5.27,-6.58,-0.94,-0.94,-0.95
136.48,4.42,5.40,4.42,5.41,-5.41,-5.21,-6.49,-0.98,-0.98,-0.98
137.84,4.22,5.24,4.22,5.24,-5.24,-5.16,-6.39,-1.01,-1.02,-1.02
139.22,4.01,5.07,4.01,5.06,-5.06,-5.11,-6.30,-1.05,-1.06,-1.06
140.61,3.80,4.88,3.81,4.90,-4.90,-5.05,-6.20,-1.10,-1.09,-1.08
142.02,3.62,4.74,3.62,4.73,-4.74,-5.00,-6.10,-1.11,-1.12,-1.12
143.44,3.44,4.59,3.43,4.58,-4.58,-4.96,-6.00,-1.14,-1.15,-1.15
144.87,3.25,4.42,3.26,4.43,-4.43,-4.91,-5.90,-1.18,-1.17,-1.17
146.32,3.09,4.29,3.09,4.29,-4.30,-4.86,-5.80,-1.21,-1.20,-1.20
147.78,2.94,4.17,2.94,4.17,-4.17,-4.82,-5.69,-1.23,-1.23,-1.23
149.26,2.80,4.06,2.80,4.06,-4.06,-4.77,-5.59,-1.26,-1.26,-1.26
150.75,2.66,3.95,2.67,3.95,-3.96,-4.73,-5.49,-1.29,-1.29,-1.29
152.26,2.55,3.86,2.55,3.86,-3.87,-4.69,-5.39,-1.31,-1.32,-1.31
153.78,2.44,3.79,2.44,3.79,-3.79,-4.65,-5.29,-1.35,-1.35,-1.35
155.32,2.35,3.72,2.35,3.72,-3.72,-4.61,-5.20,-1.37,-1.38,-1.37
156.88,2.26,3.67,2.26,3.67,-3.67,-4.57,-5.10,-1.41,-1.41,-1.41
158.44,2.18,3.62,2.19,3.62,-3.63,-4.53,-5.01,-1.44,-1.44,-1.44
160.03,2.12,3.59,2.12,3.59,-3.59,-4.49,-4.92,-1.47,-1.47,-1.47
161.63,2.05,3.55,2.05,3.56,-3.56,-4.45,-4.83,-1.51,-1.51,-1.50
163.24,1.99,3.54,2.00,3.54,-3.54,-4.42,-4.75,-1.55,-1.54,-1.55
164.88,1.94,3.52,1.94,3.52,-3.52,-4.38,-4.66,-1.58,-1.58,-1.58
166.53,1.89,3.51,1.89,3.51,-3.50,-4.35,-4.58,-1.61,-1.62,-1.62
168.19,1.83,3.48,1.83,3.49,-3.49,-4.32,-4.51,-1.66,-1.66,-1.65
169.87,1.78,3.47,1.78,3.47,-3.48,-4.28,-4.43,-1.70,-1.69,-1.69
171.57,1.73,3.47,1.73,3.46,-3.47,-4.25,-4.36,-1.73,-1.73,-1.74
173.29,1.69,3.46,1.69,3.46,-3.45,-4.22,-4.29,-1.76,-1.77,-1.77
175.02,1.64,3.45,1.64,3.45,-3.44,-4.19,-4.22,-1.80,-1.80,-1.81
176.77,1.59,3.43,1.60,3.44,-3.43,-4.15,-4.16,-1.84,-1.84,-1.84
178.54,1.55,3.43,1.55,3.43,-3.42,-4.12,-4.10,-1.87,-1.88,-1.87
180.32,1.50,3.42,1.50,3.41,-3.42,-4.09,-4.04,-1.91,-1.91,-1.92
182.13,1.45,3.40,1.46,3.41,-3.41,-4.06,-3.99,-1.96,-1.95,-1.95
183.95,1.41,3.39,1.41,3.40,-3.40,-4.03,-3.93,-1.99,-1.99,-1.98
185.79,1.37,3.39,1.37,3.39,-3.40,-4.01,-3.88,-2.02,-2.02,-2.02
187.65,1.33,3.39,1.33,3.39,-3.39,-3.98,-3.84,-2.06,-2.06,-2.05
189.52,1.29,3.38,1.29,3.39,-3.39,-3.95,-3.79,-2.10,-2.09,-2.09
191.42,1.25,3.38,1.25,3.38,-3.38,-3.92,-3.75,-2.13,-2.13,-2.13
193.33,1.21,3.38,1.21,3.38,-3.38,-3.89,-3.71,-2.17,-2.17,-2.17
195.27,1.16,3.37,1.17,3.37,-3.37,-3.87,-3.68,-2.21,-2.20,-2.21
197.22,1.12,3.37,1.12,3.36,-3.36,-3.84,-3.64,-2.24,-2.24,-2.25
199.19,1.07,3.34,1.07,3.35,-3.35,-3.81,-3.61,-2.27,-2.27,-2.27
201.18,1.02,3.33,1.03,3.33,-3.33,-3.79,-3.58,-2.31,-2.30,-2.31
203.19,0.98,3.32,0.97,3.31,-3.31,-3.76,-3.55,-2.33,-2.33,-2.34
205.23,0.92,3.28,0.92,3.29,-3.29,-3.73,-3.52,-2.37,-2.36,-2.36
207.28,0.87,3.26,0.87,3.26,-3.26,-3.71,-3.50,-2.39,-2.39,-2.39
209.35,0.82,3.24,0.82,3.24,-3.24,-3.68,-3.48,-2.42,-2.42,-2.42
211.44,0.77,3.21,0.77,3.22,-3.22,-3.66,-3.45,-2.45,-2.45,-2.44
213.56,0.72,3.20,0.72,3.19,-3.19,-3.63,-3.43,-2.47,-2.47,-2.48
215.69,0.67,3.17,0.67,3.17,-3.17,-3.60,-3.41,-2.50,-2.50,-2.50
217.85,0.62,3.14,0.62,3.15,-3.15,-3.58,-3.39,-2.52,-2.52,-2.52
220.03,0.57,3.12,0.57,3.12,-3.12,-3.55,-3.37,-2.55,-2.55,-2.55
222.23,0.53,3.11,0.53,3.10,-3.10,-3.53,-3.36,-2.57,-2.57,-2.57
224.45,0.48,3.08,0.48,3.08,-3.08,-3.50,-3.34,-2.60,-2.60,-2.60
226.70,0.44,3.06,0.44,3.06,-3.06,-3.48,-3.32,-2.62,-2.61,-2.62
228.96,0.40,3.03,0.40,3.03,-3.04,-3.45,-3.30,-2.64,-2.63,-2.63
231.25,0.37,3.02,0.37,3.02,-3.02,-3.43,-3.28,-2.65,-2.65,-2.65
233.57,0.33,3.00,0.33,3.00,-3.00,-3.40,-3.26,-2.67,-2.67,-2.67
235.90,0.29,2.99,0.29,2.99,-2.98,-3.38,-3.25,-2.69,-2.69,-2.70
238.26,0.26,2.98,0.26,2.97,-2.97,-3.35,-3.22,-2.71,-2.71,-2.71
240.64,0.23,2.94,0.23,2.95,-2.96,-3.33,-3.20,-2.72,-2.72,-2.71
243.05,0.21,2.94,0.21,2.94,-2.94,-3.30,-3.18,-2.73,-2.73,-2.73
245.48,0.18,2.93,0.18,2.93,-2.93,-3.28,-3.16,-2.75,-2.75,-2.75
247.93,0.16,2.93,0.16,2.92,-2.92,-3.25,-3.13,-2.76,-2.76,-2.77
250.41,0.14,2.91,0.14,2.91,-2.91,-3.23,-3.11,-2.77,-2.77,-2.76
252.92,0.12,2.89,0.12,2.90,-2.90,-3.20,-3.08,-2.78,-2.78,-2.77
255.45,0.10,2.89,0.10,2.88,-2.89,-3.18,-3.05,-2.79,-2.79,-2.79
258.00,0.08,2.88,0.08,2.88,-2.88,-3.15,-3.02,-2.80,-2.80,-2.80
260.58,0.07,2.87,0.07,2.88,-2.88,-3.13,-2.99,-2.81,-2.81,-2.80
263.19,0.06,2.88,0.06,2.87,-2.87,-3.10,-2.96,-2.81,-2.81,-2.82
265.82,0.05,2.88,0.05,2.88,-2.87,-3.08,-2.92,-2.82,-2.82,-2.82
268.48,0.04,2.87,0.04,2.87,-2.87,-3.05,-2.89,-2.83,-2.83,-2.83
271.16,0.03,2.88,0.03,2.87,-2.88,-3.03,-2.85,-2.84,-2.84,-2.85
273.87,0.02,2.87,0.02,2.88,-2.88,-3.00,-2.82,-2.86,-2.85,-2.85
276.61,0.02,2.89,0.02,2.88,-2.88,-2.98,-2.78,-2.86,-2.86,-2.87
279.38,0.01,2.89,0.01,2.89,-2.89,-2.95,-2.74,-2.87,-2.87,-2.88
282.17,0.01,2.90,0.01,2.89,-2.89,-2.93,-2.70,-2.88,-2.88,-2.88
284.99,0.01,2.89,0.01,2.89,-2.90,-2.90,-2.66,-2.88,-2.89,-2.88
287.84,0.00,2.89,0.01,2.90,-2.90,-2.88,-2.63,-2.90,-2.89,-2.88
290.72,0.01,2.92,0.01,2.90,-2.91,-2.85,-2.59,-2.89,-2.90,-2.91
293.63,0.01,2.91,0.01,2.91,-2.91,-2.83,-2.55,-2.90,-2.90,-2.90
296.57,0.01,2.92,0.01,2.92,-2.92,-2.80,-2.51,-2.91,-2.90,-2.91
299.53,0.02,2.93,0.02,2.93,-2.93,-2.77,-2.47,-2.91,-2.91,-2.91
302.53,0.02,2.93,0.02,2.94,-2.94,-2.75,-2.44,-2.92,-2.92,-2.91
305.55,0.03,2.95,0.03,2.94,-2.95,-2.72,-2.40,-2.92,-2.92,-2.92
308.61,0.03,2.95,0.04,2.96,-2.96,-2.70,-2.37,-2.93,-2.92,-2.92
311.69,0.05,2.97,0.05,2.97,-2.97,-2.67,-2.33,-2.92,-2.92,-2.92
314.81,0.07,3.00,0.06,2.99,-2.98,-2.65,-2.30,-2.91,-2.92,-2.93
317.96,0.07,3.00,0.08,3.01,-3.00,-2.62,-2.27,-2.93,-2.92,-2.93
321.14,0.09,3.01,0.09,3.02,-3.02,-2.59,-2.24,-2.93,-2.93,-2.92
324.35,0.10,3.04,0.10,3.03,-3.03,-2.57,-2.21,-2.93,-2.93,-2.93
327.59,0.12,3.04,0.12,3.05,-3.05,-2.54,-2.18,-2.93,-2.93,-2.92
330.87,0.14,3.06,0.14,3.07,-3.07,-2.52,-2.15,-2.93,-2.93,-2.92
334.18,0.17,3.10,0.17,3.09,-3.09,-2.49,-2.12,-2.92,-2.92,-2.93
337.52,0.19,3.12,0.19,3.12,-3.11,-2.46,-2.10,-2.92,-2.92,-2.92
340.90,0.21,3.14,0.21,3.13,-3.13,-2.44,-2.08,-2.92,-2.92,-2.93
344.30,0.23,3.15,0.23,3.15,-3.16,-2.41,-2.05,-2.92,-2.92,-2.92
347.75,0.25,3.16,0.26,3.17,-3.18,-2.38,-2.03,-2.93,-2.92,-2.91
351.23,0.28,3.20,0.28,3.19,-3.20,-2.36,-2.01,-2.91,-2.92,-2.92
354.74,0.30,3.21,0.30,3.21,-3.21,-2.33,-2.00,-2.91,-2.91,-2.90
358.28,0.31,3.23,0.32,3.23,-3.23,-2.31,-1.98,-2.91,-2.91,-2.92
361.87,0.33,3.24,0.33,3.24,-3.24,-2.28,-1.97,-2.91,-2.91,-2.91
365.49,0.34,3.25,0.34,3.25,-3.24,-2.25,-1.95,-2.90,-2.91,-2.91
369.14,0.33,3.23,0.34,3.24,-3.24,-2.23,-1.94,-2.91,-2.90,-2.90
372.83,0.34,3.24,0.33,3.24,-3.24,-2.20,-1.93,-2.90,-2.90,-2.90
376.56,0.32,3.23,0.32,3.23,-3.23,-2.17,-1.92,-2.90,-2.90,-2.90
380.33,0.30,3.21,0.30,3.21,-3.20,-2.15,-1.91,-2.90,-2.90,-2.91
384.13,0.27,3.18,0.27,3.18,-3.18,-2.12,-1.91,-2.90,-2.90,-2.91
387.97,0.24,3.14,0.24,3.14,-3.14,-2.09,-1.90,-2.90,-2.90,-2.90
391.85,0.20,3.10,0.20,3.10,-3.10,-2.07,-1.90,-2.90,-2.90,-2.90
395.77,0.15,3.05,0.15,3.05,-3.05,-2.04,-1.89,-2.90,-2.90,-2.90
399.73,0.09,2.99,0.09,2.99,-2.99,-2.01,-1.89,-2.90,-2.90,-2.90
403.72,0.03,2.93,0.03,2.93,-2.93,-1.99,-1.89,-2.90,-2.90,-2.89
407.76,-0.03,2.87,-0.03,2.86,-2.87,-1.96,-1.89,-2.90,-2.90,-2.89
411.84,-0.10,2.80,-0.09,2.80,-2.80,-1.94,-1.89,-2.90,-2.89,-2.90
415.96,-0.16,2.73,-0.16,2.73,-2.73,-1.91,-1.89,-2.89,-2.89,-2.89
420.12,-0.24,2.66,-0.24,2.66,-2.65,-1.88,-1.89,-2.89,-2.89,-2.90
424.32,-0.32,2.58,-0.31,2.58,-2.58,-1.86,-1.89,-2.90,-2.89,-2.90
428.56,-0.39,2.50,-0.39,2.50,-2.51,-1.83,-1.89,-2.90,-2.90,-2.89
432.85,-0.46,2.43,-0.46,2.43,-2.44,-1.81,-1.89,-2.89,-2.90,-2.89
437.18,-0.54,2.36,-0.54,2.36,-2.36,-1.78,-1.89,-2.90,-2.90,-2.90
441.55,-0.61,2.29,-0.61,2.29,-2.29,-1.75,-1.89,-2.90,-2.90,-2.90
445.96,-0.68,2.22,-0.68,2.22,-2.22,-1.73,-1.89,-2.90,-2.90,-2.90
450.42,-0.75,2.15,-0.75,2.15,-2.15,-1.70,-1.89,-2.90,-2.90,-2.90
454.93,-0.82,2.09,-0.82,2.08,-2.08,-1.68,-1.89,-2.90,-2.90,-2.90
459.48,-0.89,2.02,-0.89,2.02,-2.02,-1.65,-1.89,-2.91,-2.90,-2.90
464.07,-0.95,1.95,-0.95,1.95,-1.95,-1.62,-1.88,-2.90,-2.90,-2.90
468.71,-1.01,1.89,-1.01,1.89,-1.89,-1.60,-1.88,-2.90,-2.90,-2.90
