frequency,raw,error,smoothed,error_smoothed,equalization,parametric_eq,equalized_raw,equalized_smoothed,target
20,-13.59,-16.25,-13.61,-16.27,6.00,2.84,-7.59,-7.61,2.66
21,-12.96,-15.61,-12.97,-15.62,6.00,3.25,-6.96,-6.97,2.66
22,-12.37,-15.02,-12.35,-15.01,6.00,3.71,-6.37,-6.35,2.66
23,-11.78,-14.43,-11.76,-14.41,6.00,4.20,-5.78,-5.76,2.65
24,-11.21,-13.86,-11.19,-13.84,6.00,4.72,-5.21,-5.19,2.65
25,-10.65,-13.29,-10.64,-13.29,6.00,5.26,-4.65,-4.64,2.65
26,-10.12,-12.76,-10.11,-12.76,6.00,5.80,-4.12,-4.11,2.65
27,-9.62,-12.26,-9.61,-12.26,6.00,6.31,-3.62,-3.61,2.64
28,-9.13,-11.76,-9.14,-11.77,6.00,6.77,-3.13,-3.14,2.64
29,-8.66,-11.29,-8.68,-11.31,6.00,7.14,-2.66,-2.68,2.63
30,-8.22,-10.84,-8.25,-10.88,6.00,7.40,-2.22,-2.25,2.63
31,-7.81,-10.43,-7.84,-10.46,6.00,7.53,-1.81,-1.84,2.62
32,-7.44,-10.05,-7.45,-10.07,6.00,7.53,-1.44,-1.45,2.62
33,-7.08,-9.69,-7.08,-9.69,6.00,7.42,-1.08,-1.08,2.61
34,-6.74,-9.34,-6.73,-9.34,6.00,7.22,-0.74,-0.73,2.60
35,-6.42,-9.01,-6.40,-9.00,6.00,6.97,-0.42,-0.40,2.60
36,-6.10,-8.68,-6.09,-8.67,6.00,6.69,-0.10,-0.09,2.59
37,-5.80,-8.38,-5.79,-8.37,6.00,6.40,0.20,0.21,2.58
38,-5.51,-8.08,-5.50,-8.07,6.00,6.11,0.49,0.50,2.57
39,-5.24,-7.80,-5.23,-7.79,6.00,5.84,0.76,0.77,2.56
40,-4.98,-7.53,-4.97,-7.52,6.00,5.58,1.02,1.03,2.55
41,-4.73,-7.26,-4.72,-7.26,6.00,5.35,1.27,1.28,2.54
42,-4.49,-7.01,-4.48,-7.01,6.00,5.15,1.51,1.52,2.53
43,-4.26,-6.77,-4.25,-6.76,6.00,4.96,1.74,1.75,2.51
44,-4.04,-6.54,-4.03,-6.53,6.00,4.81,1.96,1.97,2.50
45,-3.83,-6.31,-3.82,-6.31,5.96,4.67,2.14,2.14,2.48
46,-3.63,-6.10,-3.62,-6.09,5.89,4.55,2.26,2.26,2.47
47,-3.44,-5.89,-3.43,-5.88,5.77,4.46,2.33,2.34,2.45
48,-3.25,-5.68,-3.25,-5.69,5.63,4.38,2.39,2.38,2.44
49,-3.08,-5.49,-3.08,-5.50,5.48,4.31,2.40,2.40,2.42
50,-2.91,-5.31,-2.91,-5.31,5.31,4.26,2.41,2.40,2.40
51,-2.75,-5.13,-2.76,-5.14,5.14,4.22,2.39,2.38,2.38
52,-2.61,-4.96,-2.61,-4.97,4.97,4.19,2.37,2.36,2.36
53,-2.47,-4.80,-2.47,-4.81,4.81,4.16,2.34,2.34,2.34
54,-2.34,-4.65,-2.34,-4.66,4.66,4.14,2.32,2.31,2.31
55,-2.22,-4.51,-2.22,-4.51,4.51,4.11,2.29,2.29,2.29
56,-2.11,-4.37,-2.10,-4.36,4.36,4.09,2.26,2.27,2.27
57,-2.00,-4.24,-1.98,-4.22,4.22,4.07,2.23,2.24,2.24
58,-1.89,-4.10,-1.87,-4.09,4.09,4.04,2.20,2.21,2.22
59,-1.79,-3.97,-1.77,-3.96,3.96,4.01,2.17,2.19,2.19
60,-1.70,-3.86,-1.67,-3.83,3.83,3.98,2.13,2.16,2.16
61,-1.60,-3.73,-1.58,-3.71,3.71,3.93,2.11,2.13,2.13
62,-1.50,-3.60,-1.49,-3.59,3.59,3.88,2.09,2.10,2.10
63,-1.40,-3.47,-1.41,-3.48,3.48,3.83,2.08,2.07,2.07
64,-1.30,-3.34,-1.33,-3.37,3.37,3.76,2.07,2.04,2.04
65,-1.23,-3.23,-1.26,-3.26,3.26,3.70,2.04,2.01,2.01
66,-1.17,-3.14,-1.19,-3.17,3.17,3.62,2.00,1.97,1.97
67,-1.12,-3.06,-1.13,-3.07,3.07,3.54,1.96,1.94,1.94
68,-1.07,-2.97,-1.08,-2.98,2.98,3.46,1.92,1.91,1.91
69,-1.04,-2.91,-1.03,-2.90,2.90,3.37,1.86,1.87,1.87
70,-1.01,-2.84,-0.98,-2.82,2.82,3.28,1.81,1.83,1.83
71,-0.97,-2.76,-0.94,-2.74,2.74,3.19,1.78,1.80,1.80
72,-0.93,-2.69,-0.91,-2.67,2.67,3.10,1.74,1.76,1.76
73,-0.89,-2.61,-0.87,-2.60,2.60,3.01,1.71,1.72,1.72
74,-0.84,-2.52,-0.84,-2.53,2.53,2.92,1.69,1.68,1.68
75,-0.81,-2.45,-0.81,-2.46,2.46,2.83,1.65,1.65,1.65
76,-0.78,-2.38,-0.79,-2.39,2.39,2.75,1.62,1.61,1.61
77,-0.77,-2.33,-0.76,-2.33,2.33,2.66,1.56,1.57,1.57
78,-0.75,-2.27,-0.74,-2.27,2.27,2.58,1.52,1.53,1.53
79,-0.73,-2.21,-0.72,-2.21,2.21,2.49,1.48,1.49,1.49
80,-0.71,-2.15,-0.70,-2.15,2.15,2.41,1.44,1.45,1.45
81,-0.68,-2.08,-0.69,-2.09,2.09,2.34,1.41,1.40,1.40
82,-0.67,-2.03,-0.67,-2.04,2.04,2.26,1.37,1.36,1.36
83,-0.66,-1.98,-0.66,-1.98,1.98,2.19,1.33,1.32,1.32
84,-0.65,-1.93,-0.65,-1.93,1.93,2.12,1.28,1.28,1.28
85,-0.64,-1.87,-0.64,-1.88,1.88,2.06,1.25,1.24,1.24
86,-0.65,-1.84,-0.64,-1.83,1.83,1.99,1.19,1.20,1.20
87,-0.64,-1.79,-0.63,-1.79,1.79,1.93,1.15,1.16,1.16
88,-0.64,-1.75,-0.63,-1.74,1.74,1.87,1.11,1.11,1.11
89,-0.63,-1.70,-0.62,-1.70,1.70,1.82,1.07,1.07,1.07
90,-0.63,-1.66,-0.62,-1.65,1.65,1.76,1.03,1.03,1.03
91,-0.63,-1.62,-0.62,-1.61,1.61,1.71,0.99,0.99,0.99
92,-0.63,-1.57,-0.62,-1.57,1.57,1.66,0.95,0.95,0.95
93,-0.63,-1.53,-0.62,-1.53,1.53,1.61,0.91,0.91,0.91
94,-0.63,-1.49,-0.63,-1.50,1.50,1.57,0.87,0.87,0.87
95,-0.64,-1.46,-0.63,-1.46,1.46,1.53,0.82,0.83,0.83
96,-0.64,-1.42,-0.64,-1.42,1.42,1.48,0.79,0.79,0.79
97,-0.63,-1.37,-0.64,-1.39,1.39,1.44,0.76,0.75,0.75
98,-0.64,-1.34,-0.65,-1.36,1.36,1.41,0.72,0.70,0.71
99,-0.65,-1.31,-0.66,-1.33,1.33,1.37,0.68,0.66,0.67
100,-0.67,-1.30,-0.67,-1.30,1.30,1.33,0.63,0.62,0.63
101,-0.69,-1.28,-0.69,-1.27,1.27,1.30,0.58,0.58,0.59
102,-0.71,-1.26,-0.70,-1.24,1.24,1.27,0.53,0.54,0.55
104,-0.75,-1.23,-0.71,-1.21,1.21,1.21,0.46,0.50,0.48
105,-0.75,-1.19,-0.72,-1.18,1.18,1.18,0.44,0.46,0.44
106,-0.76,-1.16,-0.74,-1.15,1.15,1.15,0.40,0.42,0.41
107,-0.76,-1.13,-0.75,-1.13,1.13,1.13,0.37,0.38,0.37
108,-0.76,-1.09,-0.76,-1.10,1.10,1.10,0.35,0.34,0.34
109,-0.77,-1.07,-0.78,-1.08,1.08,1.08,0.31,0.30,0.30
110,-0.78,-1.04,-0.79,-1.06,1.06,1.05,0.28,0.27,0.27
111,-0.79,-1.02,-0.80,-1.04,1.04,1.03,0.25,0.23,0.24
112,-0.81,-1.01,-0.82,-1.02,1.02,1.01,0.21,0.20,0.20
113,-0.82,-0.99,-0.83,-1.00,1.00,0.99,0.18,0.16,0.17
114,-0.85,-0.98,-0.85,-0.98,0.98,0.97,0.13,0.13,0.14
115,-0.86,-0.96,-0.87,-0.96,0.96,0.96,0.11,0.09,0.11
117,-0.91,-0.95,-0.89,-0.94,0.94,0.93,0.04,0.06,0.05
118,-0.94,-0.95,-0.90,-0.93,0.93,0.91,-0.01,0.02,0.02
119,-0.96,-0.94,-0.92,-0.91,0.91,0.90,-0.04,-0.01,-0.01
120,-0.96,-0.92,-0.94,-0.90,0.90,0.88,-0.06,-0.04,-0.04
121,-0.97,-0.90,-0.96,-0.89,0.89,0.87,-0.08,-0.08,-0.07
123,-0.98,-0.85,-0.98,-0.87,0.87,0.85,-0.10,-0.11,-0.12
124,-0.98,-0.83,-1.01,-0.86,0.86,0.84,-0.11,-0.14,-0.15
125,-1.00,-0.82,-1.03,-0.85,0.85,0.83,-0.14,-0.17,-0.17
126,-1.02,-0.82,-1.05,-0.85,0.85,0.82,-0.17,-0.21,-0.20
128,-1.08,-0.83,-1.08,-0.84,0.84,0.80,-0.23,-0.24,-0.25
129,-1.12,-0.85,-1.10,-0.84,0.84,0.80,-0.28,-0.27,-0.27
130,-1.16,-0.86,-1.13,-0.83,0.83,0.79,-0.32,-0.30,-0.29
131,-1.18,-0.86,-1.16,-0.83,0.83,0.79,-0.34,-0.33,-0.32
133,-1.22,-0.86,-1.19,-0.83,0.83,0.78,-0.38,-0.35,-0.36
134,-1.23,-0.85,-1.21,-0.83,0.83,0.77,-0.39,-0.38,-0.38
135,-1.23,-0.83,-1.24,-0.83,0.83,0.77,-0.39,-0.41,-0.40
137,-1.25,-0.81,-1.27,-0.83,0.83,0.76,-0.41,-0.44,-0.44
138,-1.27,-0.81,-1.30,-0.84,0.84,0.76,-0.43,-0.46,-0.46
140,-1.33,-0.83,-1.33,-0.84,0.84,0.76,-0.49,-0.49,-0.50
141,-1.36,-0.84,-1.35,-0.84,0.84,0.76,-0.52,-0.51,-0.51
142,-1.39,-0.85,-1.38,-0.84,0.84,0.76,-0.54,-0.54,-0.53
144,-1.44,-0.87,-1.41,-0.84,0.84,0.76,-0.59,-0.56,-0.57
145,-1.46,-0.87,-1.43,-0.85,0.85,0.76,-0.61,-0.59,-0.58
147,-1.48,-0.86,-1.46,-0.85,0.85,0.76,-0.63,-0.61,-0.61
148,-1.48,-0.85,-1.49,-0.85,0.85,0.77,-0.62,-0.63,-0.63
150,-1.50,-0.84,-1.51,-0.86,0.86,0.77,-0.64,-0.65,-0.66
151,-1.51,-0.83,-1.54,-0.86,0.86,0.77,-0.65,-0.68,-0.67
153,-1.54,-0.84,-1.56,-0.86,0.86,0.78,-0.67,-0.70,-0.70
154,-1.57,-0.85,-1.58,-0.87,0.87,0.78,-0.70,-0.72,-0.71
156,-1.63,-0.89,-1.61,-0.87,0.87,0.79,-0.75,-0.74,-0.74
157,-1.65,-0.89,-1.63,-0.88,0.88,0.80,-0.77,-0.75,-0.75
159,-1.69,-0.91,-1.65,-0.88,0.88,0.80,-0.81,-0.77,-0.78
160,-1.70,-0.91,-1.67,-0.88,0.88,0.81,-0.81,-0.79,-0.79
162,-1.71,-0.90,-1.70,-0.89,0.89,0.82,-0.82,-0.81,-0.81
164,-1.72,-0.89,-1.72,-0.89,0.89,0.83,-0.83,-0.83,-0.83
165,-1.73,-0.89,-1.74,-0.90,0.90,0.84,-0.83,-0.84,-0.84
167,-1.74,-0.88,-1.76,-0.90,0.90,0.85,-0.83,-0.86,-0.86
169,-1.77,-0.89,-1.78,-0.91,0.91,0.86,-0.86,-0.87,-0.88
170,-1.78,-0.89,-1.80,-0.91,0.91,0.87,-0.86,-0.89,-0.89
172,-1.83,-0.92,-1.83,-0.92,0.92,0.89,-0.90,-0.90,-0.90
174,-1.86,-0.93,-1.85,-0.93,0.93,0.90,-0.92,-0.92,-0.92
175,-1.87,-0.94,-1.87,-0.94,0.94,0.91,-0.93,-0.93,-0.93
177,-1.91,-0.96,-1.90,-0.95,0.95,0.93,-0.96,-0.95,-0.95
179,-1.95,-0.99,-1.92,-0.96,0.96,0.94,-0.99,-0.96,-0.96
181,-1.98,-1.00,-1.94,-0.97,0.97,0.96,-1.01,-0.97,-0.97
183,-2.00,-1.01,-1.97,-0.98,0.98,0.98,-1.01,-0.98,-0.99
184,-2.01,-1.01,-1.99,-0.99,0.99,0.99,-1.01,-1.00,-0.99
186,-2.01,-1.00,-2.02,-1.01,1.01,1.01,-1.00,-1.01,-1.01
188,-2.02,-1.00,-2.04,-1.02,1.02,1.03,-0.99,-1.02,-1.02
190,-2.04,-1.01,-2.07,-1.04,1.04,1.05,-0.99,-1.03,-1.03
192,-2.08,-1.03,-2.10,-1.06,1.06,1.07,-1.01,-1.04,-1.04
194,-2.11,-1.05,-2.14,-1.08,1.08,1.09,-1.02,-1.05,-1.05
196,-2.16,-1.09,-2.17,-1.11,1.11,1.11,-1.05,-1.06,-1.06
198,-2.21,-1.13,-2.21,-1.13,1.13,1.13,-1.07,-1.07,-1.07
200,-2.26,-1.18,-2.24,-1.16,1.16,1.15,-1.09,-1.08,-1.08
202,-2.30,-1.21,-2.28,-1.19,1.19,1.17,-1.11,-1.09,-1.09
204,-2.34,-1.24,-2.31,-1.22,1.22,1.19,-1.12,-1.10,-1.10
206,-2.37,-1.26,-2.35,-1.24,1.24,1.21,-1.12,-1.11,-1.11
208,-2.41,-1.29,-2.38,-1.27,1.27,1.24,-1.14,-1.11,-1.11
210,-2.43,-1.30,-2.42,-1.30,1.30,1.26,-1.13,-1.12,-1.12
212,-2.46,-1.33,-2.45,-1.32,1.32,1.28,-1.14,-1.13,-1.13
214,-2.48,-1.34,-2.48,-1.34,1.34,1.30,-1.13,-1.14,-1.14
216,-2.50,-1.35,-2.51,-1.37,1.37,1.32,-1.13,-1.14,-1.14
218,-2.51,-1.36,-2.54,-1.39,1.39,1.34,-1.12,-1.15,-1.15
221,-2.55,-1.39,-2.57,-1.41,1.41,1.37,-1.14,-1.16,-1.16
223,-2.59,-1.42,-2.59,-1.43,1.43,1.39,-1.15,-1.16,-1.16
225,-2.62,-1.45,-2.62,-1.45,1.45,1.41,-1.16,-1.17,-1.17
227,-2.65,-1.47,-2.65,-1.47,1.47,1.42,-1.17,-1.17,-1.17
229,-2.68,-1.50,-2.67,-1.49,1.49,1.44,-1.19,-1.18,-1.18
232,-2.72,-1.53,-2.69,-1.51,1.51,1.47,-1.21,-1.19,-1.19
234,-2.74,-1.55,-2.71,-1.52,1.52,1.48,-1.21,-1.19,-1.19
236,-2.75,-1.55,-2.73,-1.54,1.54,1.50,-1.21,-1.20,-1.19
239,-2.76,-1.55,-2.75,-1.55,1.55,1.52,-1.21,-1.20,-1.20
241,-2.77,-1.56,-2.76,-1.56,1.56,1.53,-1.21,-1.21,-1.21
244,-2.78,-1.57,-2.78,-1.57,1.57,1.54,-1.21,-1.21,-1.21
246,-2.78,-1.56,-2.79,-1.57,1.57,1.55,-1.20,-1.21,-1.21
248,-2.79,-1.57,-2.80,-1.58,1.58,1.56,-1.21,-1.22,-1.22
251,-2.80,-1.57,-2.80,-1.58,1.58,1.58,-1.22,-1.22,-1.22
253,-2.81,-1.58,-2.81,-1.58,1.58,1.58,-1.22,-1.23,-1.23
256,-2.82,-1.59,-2.82,-1.59,1.59,1.59,-1.23,-1.23,-1.23
259,-2.83,-1.59,-2.82,-1.59,1.59,1.60,-1.24,-1.23,-1.23
261,-2.83,-1.59,-2.83,-1.59,1.59,1.60,-1.23,-1.24,-1.24
264,-2.84,-1.59,-2.84,-1.60,1.60,1.61,-1.24,-1.24,-1.24
266,-2.85,-1.60,-2.84,-1.60,1.60,1.61,-1.25,-1.24,-1.24
269,-2.86,-1.61,-2.85,-1.60,1.60,1.62,-1.25,-1.25,-1.25
272,-2.86,-1.60,-2.86,-1.61,1.61,1.62,-1.25,-1.25,-1.25
274,-2.87,-1.61,-2.86,-1.61,1.61,1.62,-1.26,-1.25,-1.25
277,-2.88,-1.62,-2.87,-1.62,1.62,1.62,-1.26,-1.26,-1.26
280,-2.88,-1.62,-2.88,-1.62,1.62,1.62,-1.26,-1.26,-1.26
283,-2.89,-1.62,-2.89,-1.62,1.62,1.62,-1.26,-1.26,-1.26
286,-2.90,-1.63,-2.89,-1.63,1.63,1.63,-1.27,-1.26,-1.27
288,-2.90,-1.63,-2.90,-1.63,1.63,1.63,-1.26,-1.27,-1.27
291,-2.91,-1.64,-2.91,-1.64,1.64,1.63,-1.27,-1.27,-1.27
294,-2.92,-1.64,-2.92,-1.65,1.65,1.63,-1.27,-1.27,-1.27
297,-2.93,-1.65,-2.93,-1.65,1.65,1.63,-1.27,-1.27,-1.27
300,-2.94,-1.66,-2.94,-1.66,1.66,1.63,-1.28,-1.28,-1.28
303,-2.95,-1.67,-2.95,-1.67,1.67,1.63,-1.28,-1.28,-1.28
306,-2.96,-1.68,-2.95,-1.67,1.67,1.64,-1.28,-1.28,-1.28
309,-2.97,-1.68,-2.97,-1.68,1.68,1.64,-1.28,-1.28,-1.28
312,-2.98,-1.69,-2.98,-1.69,1.69,1.65,-1.28,-1.28,-1.28
316,-2.99,-1.70,-2.99,-1.70,1.70,1.65,-1.29,-1.29,-1.29
319,-3.00,-1.71,-3.00,-1.71,1.71,1.66,-1.29,-1.29,-1.29
322,-3.01,-1.72,-3.01,-1.72,1.72,1.67,-1.29,-1.29,-1.29
325,-3.03,-1.74,-3.02,-1.73,1.73,1.68,-1.30,-1.29,-1.29
328,-3.04,-1.74,-3.03,-1.74,1.74,1.69,-1.29,-1.29,-1.29
332,-3.05,-1.75,-3.05,-1.75,1.75,1.70,-1.29,-1.29,-1.29
335,-3.06,-1.76,-3.06,-1.76,1.76,1.71,-1.29,-1.29,-1.29
338,-3.07,-1.77,-3.07,-1.78,1.78,1.73,-1.29,-1.30,-1.30
342,-3.09,-1.79,-3.08,-1.79,1.79,1.74,-1.30,-1.30,-1.30
345,-3.10,-1.80,-3.10,-1.80,1.80,1.76,-1.30,-1.30,-1.30
349,-3.12,-1.82,-3.11,-1.81,1.81,1.78,-1.30,-1.30,-1.30
352,-3.13,-1.83,-3.13,-1.83,1.83,1.80,-1.30,-1.30,-1.30
356,-3.14,-1.83,-3.14,-1.84,1.84,1.82,-1.30,-1.30,-1.30
359,-3.16,-1.85,-3.16,-1.85,1.85,1.84,-1.30,-1.30,-1.30
363,-3.17,-1.86,-3.17,-1.87,1.87,1.87,-1.30,-1.30,-1.30
366,-3.19,-1.88,-3.18,-1.88,1.88,1.89,-1.31,-1.31,-1.31
370,-3.20,-1.89,-3.20,-1.89,1.89,1.92,-1.31,-1.31,-1.31
374,-3.22,-1.91,-3.21,-1.90,1.90,1.95,-1.31,-1.31,-1.31
377,-3.23,-1.92,-3.23,-1.92,1.92,1.98,-1.31,-1.31,-1.31
381,-3.25,-1.93,-3.24,-1.93,1.93,2.01,-1.32,-1.31,-1.31
385,-3.26,-1.94,-3.25,-1.94,1.94,2.04,-1.32,-1.31,-1.31
389,-3.27,-1.95,-3.26,-1.95,1.95,2.08,-1.32,-1.31,-1.31
393,-3.28,-1.96,-3.27,-1.96,1.96,2.11,-1.32,-1.32,-1.32
397,-3.29,-1.97,-3.29,-1.97,1.97,2.15,-1.32,-1.32,-1.32
401,-3.30,-1.98,-3.30,-1.98,1.98,2.18,-1.32,-1.32,-1.32
405,-3.31,-1.99,-3.31,-1.99,1.99,2.22,-1.32,-1.32,-1.32
409,-3.32,-2.00,-3.32,-2.00,2.00,2.26,-1.32,-1.32,-1.32
413,-3.33,-2.00,-3.33,-2.01,2.01,2.29,-1.31,-1.32,-1.32
417,-3.34,-2.01,-3.35,-2.02,2.02,2.33,-1.31,-1.32,-1.32
421,-3.35,-2.02,-3.36,-2.04,2.04,2.37,-1.31,-1.32,-1.32
425,-3.36,-2.03,-3.37,-2.05,2.05,2.40,-1.31,-1.32,-1.32
430,-3.37,-2.05,-3.38,-2.06,2.06,2.44,-1.31,-1.32,-1.32
434,-3.39,-2.07,-3.38,-2.07,2.07,2.48,-1.32,-1.32,-1.32
438,-3.40,-2.08,-3.39,-2.07,2.07,2.51,-1.32,-1.32,-1.32
443,-3.42,-2.10,-3.39,-2.08,2.08,2.55,-1.34,-1.31,-1.31
447,-3.44,-2.13,-3.39,-2.08,2.08,2.58,-1.35,-1.31,-1.31
451,-3.44,-2.13,-3.39,-2.08,2.08,2.60,-1.35,-1.31,-1.31
456,-3.42,-2.11,-3.39,-2.09,2.09,2.64,-1.33,-1.30,-1.30
460,-3.40,-2.10,-3.38,-2.09,2.09,2.66,-1.31,-1.29,-1.30
465,-3.36,-2.07,-3.38,-2.09,2.09,2.68,-1.27,-1.29,-1.29
470,-3.34,-2.06,-3.37,-2.09,2.09,2.71,-1.24,-1.28,-1.28
474,-3.33,-2.05,-3.37,-2.10,2.10,2.72,-1.22,-1.27,-1.27
479,-3.33,-2.06,-3.37,-2.11,2.11,2.74,-1.22,-1.26,-1.26
484,-3.35,-2.10,-3.37,-2.12,2.12,2.75,-1.22,-1.25,-1.25
489,-3.37,-2.13,-3.38,-2.14,2.14,2.76,-1.23,-1.24,-1.24
494,-3.40,-2.17,-3.38,-2.16,2.16,2.76,-1.24,-1.22,-1.23
499,-3.41,-2.20,-3.39,-2.18,2.18,2.76,-1.23,-1.21,-1.21
504,-3.42,-2.22,-3.40,-2.20,2.20,2.76,-1.21,-1.20,-1.20
509,-3.43,-2.25,-3.41,-2.23,2.23,2.75,-1.20,-1.18,-1.18
514,-3.43,-2.26,-3.41,-2.25,2.25,2.74,-1.17,-1.16,-1.16
519,-3.42,-2.27,-3.42,-2.28,2.28,2.73,-1.14,-1.14,-1.14
524,-3.43,-2.30,-3.43,-2.30,2.30,2.71,-1.12,-1.12,-1.12
529,-3.43,-2.32,-3.43,-2.33,2.33,2.69,-1.10,-1.10,-1.10
535,-3.43,-2.34,-3.43,-2.35,2.35,2.66,-1.08,-1.08,-1.08
540,-3.43,-2.37,-3.43,-2.37,2.37,2.64,-1.05,-1.06,-1.06
545,-3.44,-2.40,-3.43,-2.39,2.39,2.61,-1.04,-1.04,-1.04
551,-3.44,-2.42,-3.42,-2.41,2.41,2.58,-1.02,-1.01,-1.01
556,-3.43,-2.44,-3.42,-2.43,2.43,2.55,-1.00,-0.99,-0.99
562,-3.42,-2.45,-3.41,-2.45,2.45,2.51,-0.97,-0.96,-0.96
568,-3.41,-2.47,-3.40,-2.46,2.46,2.47,-0.94,-0.93,-0.93
573,-3.39,-2.48,-3.39,-2.48,2.48,2.43,-0.91,-0.91,-0.91
579,-3.38,-2.50,-3.37,-2.49,2.49,2.39,-0.88,-0.88,-0.88
585,-3.35,-2.50,-3.36,-2.51,2.51,2.35,-0.84,-0.85,-0.85
591,-3.34,-2.51,-3.34,-2.52,2.52,2.31,-0.82,-0.82,-0.82
596,-3.32,-2.52,-3.32,-2.53,2.53,2.27,-0.78,-0.79,-0.79
602,-3.31,-2.55,-3.31,-2.55,2.55,2.23,-0.76,-0.76,-0.76
608,-3.29,-2.56,-3.29,-2.56,2.56,2.19,-0.73,-0.73,-0.73
615,-3.27,-2.57,-3.27,-2.57,2.57,2.14,-0.69,-0.70,-0.70
621,-3.25,-2.58,-3.25,-2.59,2.59,2.10,-0.66,-0.66,-0.66
627,-3.23,-2.59,-3.24,-2.60,2.60,2.06,-0.62,-0.63,-0.63
633,-3.22,-2.62,-3.22,-2.62,2.62,2.03,-0.60,-0.60,-0.60
639,-3.20,-2.63,-3.20,-2.63,2.63,1.99,-0.56,-0.56,-0.56
646,-3.18,-2.65,-3.18,-2.65,2.65,1.95,-0.53,-0.53,-0.53
652,-3.16,-2.66,-3.15,-2.66,2.66,1.91,-0.50,-0.49,-0.49
659,-3.14,-2.68,-3.13,-2.67,2.67,1.88,-0.47,-0.46,-0.46
665,-3.12,-2.69,-3.10,-2.68,2.68,1.85,-0.44,-0.42,-0.42
672,-3.08,-2.69,-3.07,-2.68,2.68,1.81,-0.39,-0.39,-0.39
679,-3.04,-2.69,-3.04,-2.69,2.69,1.78,-0.35,-0.35,-0.35
686,-3.00,-2.68,-3.00,-2.69,2.69,1.75,-0.31,-0.31,-0.31
692,-2.97,-2.69,-2.96,-2.69,2.69,1.72,-0.28,-0.28,-0.28
699,-2.93,-2.69,-2.92,-2.68,2.68,1.70,-0.24,-0.24,-0.24
706,-2.88,-2.68,-2.88,-2.68,2.68,1.67,-0.20,-0.20,-0.20
713,-2.85,-2.68,-2.83,-2.67,2.67,1.65,-0.18,-0.16,-0.16
721,-2.80,-2.67,-2.78,-2.65,2.65,1.62,-0.14,-0.12,-0.12
728,-2.75,-2.66,-2.73,-2.64,2.64,1.60,-0.11,-0.09,-0.09
735,-2.69,-2.64,-2.67,-2.63,2.63,1.58,-0.06,-0.05,-0.05
742,-2.62,-2.61,-2.62,-2.61,2.61,1.57,-0.01,-0.01,-0.01
750,-2.55,-2.57,-2.57,-2.60,2.60,1.55,0.05,0.03,0.03
757,-2.49,-2.55,-2.52,-2.58,2.58,1.53,0.10,0.06,0.06
765,-2.44,-2.54,-2.47,-2.57,2.57,1.52,0.13,0.10,0.10
773,-2.39,-2.52,-2.42,-2.56,2.56,1.50,0.17,0.14,0.14
780,-2.35,-2.52,-2.37,-2.54,2.54,1.49,0.20,0.17,0.17
788,-2.31,-2.52,-2.32,-2.53,2.53,1.48,0.22,0.21,0.21
796,-2.27,-2.51,-2.27,-2.51,2.51,1.47,0.25,0.25,0.25
804,-2.23,-2.51,-2.22,-2.50,2.50,1.46,0.27,0.28,0.28
812,-2.18,-2.49,-2.16,-2.48,2.48,1.45,0.30,0.31,0.31
820,-2.13,-2.47,-2.10,-2.45,2.45,1.44,0.32,0.35,0.35
828,-2.08,-2.46,-2.04,-2.42,2.42,1.43,0.34,0.38,0.38
837,-2.01,-2.42,-1.97,-2.38,2.38,1.42,0.38,0.41,0.41
845,-1.93,-2.37,-1.90,-2.34,2.34,1.41,0.42,0.44,0.44
853,-1.84,-2.31,-1.82,-2.29,2.29,1.40,0.46,0.47,0.47
862,-1.73,-2.23,-1.74,-2.24,2.24,1.38,0.51,0.50,0.50
871,-1.62,-2.15,-1.65,-2.18,2.18,1.37,0.57,0.53,0.53
879,-1.54,-2.10,-1.56,-2.12,2.12,1.36,0.58,0.56,0.56
888,-1.44,-2.03,-1.46,-2.05,2.05,1.34,0.62,0.59,0.59
897,-1.35,-1.97,-1.36,-1.98,1.98,1.32,0.63,0.62,0.62
906,-1.25,-1.89,-1.26,-1.90,1.90,1.30,0.66,0.65,0.65
915,-1.15,-1.82,-1.15,-1.82,1.82,1.28,0.68,0.67,0.67
924,-1.05,-1.75,-1.04,-1.74,1.74,1.26,0.69,0.70,0.70
933,-0.95,-1.67,-0.92,-1.65,1.65,1.23,0.70,0.73,0.73
943,-0.82,-1.57,-0.80,-1.56,1.56,1.19,0.74,0.76,0.76
952,-0.71,-1.49,-0.68,-1.46,1.46,1.16,0.75,0.78,0.78
962,-0.57,-1.37,-0.55,-1.36,1.36,1.12,0.79,0.81,0.81
971,-0.44,-1.27,-0.42,-1.25,1.25,1.08,0.82,0.84,0.84
981,-0.28,-1.14,-0.28,-1.15,1.15,1.03,0.87,0.86,0.86
991,-0.13,-1.01,-0.15,-1.04,1.04,0.98,0.91,0.89,0.89
1001,0.01,-0.90,-0.01,-0.92,0.92,0.93,0.94,0.92,0.92
1011,0.17,-0.77,0.14,-0.81,0.81,0.87,0.98,0.94,0.94
1021,0.30,-0.67,0.28,-0.69,0.69,0.81,0.99,0.97,0.97
1031,0.44,-0.55,0.43,-0.57,0.57,0.74,1.01,1.00,1.00
1041,0.57,-0.45,0.58,-0.44,0.44,0.67,1.02,1.03,1.03
1052,0.72,-0.33,0.73,-0.32,0.32,0.59,1.04,1.05,1.05
1062,0.87,-0.21,0.89,-0.19,0.19,0.52,1.07,1.08,1.08
1073,1.04,-0.07,1.05,-0.06,0.06,0.43,1.11,1.11,1.11
1084,1.21,0.07,1.21,0.07,-0.07,0.34,1.14,1.14,1.14
1094,1.37,0.21,1.38,0.21,-0.21,0.26,1.16,1.17,1.17
1105,1.54,0.35,1.56,0.36,-0.36,0.16,1.19,1.20,1.20
1116,1.72,0.50,1.73,0.51,-0.51,0.06,1.22,1.23,1.23
1128,1.92,0.67,1.92,0.66,-0.66,-0.05,1.26,1.26,1.26
1139,2.10,0.81,2.11,0.82,-0.82,-0.15,1.28,1.29,1.29
1150,2.28,0.96,2.30,0.98,-0.98,-0.26,1.30,1.32,1.32
1162,2.49,1.14,2.50,1.15,-1.15,-0.37,1.34,1.35,1.35
1173,2.68,1.30,2.70,1.32,-1.32,-0.48,1.36,1.38,1.38
1185,2.90,1.49,2.91,1.49,-1.49,-0.60,1.41,1.42,1.42
1197,3.12,1.68,3.12,1.67,-1.67,-0.72,1.45,1.45,1.45
1209,3.34,1.86,3.33,1.85,-1.85,-0.84,1.50,1.48,1.48
1221,3.55,2.04,3.54,2.02,-2.02,-0.96,1.53,1.51,1.51
1233,3.75,2.21,3.74,2.20,-2.20,-1.09,1.56,1.55,1.55
1246,3.97,2.39,3.95,2.37,-2.37,-1.22,1.60,1.58,1.58
1258,4.16,2.55,4.16,2.55,-2.55,-1.35,1.62,1.61,1.61
1271,4.37,2.73,4.37,2.72,-2.72,-1.48,1.65,1.65,1.65
1283,4.57,2.89,4.57,2.89,-2.89,-1.61,1.68,1.68,1.68
1296,4.77,3.06,4.78,3.06,-3.06,-1.75,1.71,1.72,1.72
1309,4.98,3.23,4.98,3.23,-3.23,-1.89,1.75,1.75,1.75
1322,5.18,3.40,5.19,3.40,-3.40,-2.03,1.79,1.79,1.79
1335,5.38,3.56,5.39,3.57,-3.57,-2.17,1.82,1.82,1.82
1349,5.59,3.73,5.60,3.74,-3.74,-2.32,1.86,1.86,1.86
1362,5.78,3.89,5.80,3.91,-3.91,-2.46,1.88,1.90,1.90
1376,5.98,4.05,6.01,4.08,-4.08,-2.61,1.91,1.94,1.94
1390,6.18,4.21,6.22,4.25,-4.25,-2.76,1.94,1.97,1.97
1404,6.38,4.37,6.42,4.41,-4.41,-2.92,1.97,2.01,2.01
1418,6.58,4.53,6.62,4.58,-4.58,-3.07,2.01,2.05,2.05
1432,6.79,4.71,6.82,4.73,-4.73,-3.23,2.06,2.09,2.09
1446,6.98,4.86,7.00,4.88,-4.88,-3.38,2.11,2.13,2.13
1461,7.17,5.01,7.18,5.01,-5.01,-3.55,2.16,2.17,2.17
1475,7.34,5.14,7.33,5.12,-5.12,-3.71,2.22,2.21,2.21
1490,7.50,5.26,7.47,5.22,-5.22,-3.88,2.28,2.25,2.25
1505,7.64,5.36,7.58,5.29,-5.29,-4.05,2.35,2.29,2.29
1520,7.76,5.43,7.67,5.34,-5.34,-4.22,2.42,2.33,2.33
1535,7.86,5.49,7.74,5.37,-5.37,-4.39,2.50,2.37,2.37
1550,7.93,5.52,7.79,5.37,-5.37,-4.56,2.56,2.41,2.41
1566,7.97,5.52,7.81,5.36,-5.36,-4.74,2.61,2.46,2.46
1582,7.95,5.46,7.83,5.33,-5.33,-4.93,2.62,2.50,2.50
1597,7.91,5.37,7.84,5.30,-5.30,-5.10,2.61,2.54,2.54
1613,7.83,5.25,7.85,5.27,-5.27,-5.28,2.57,2.58,2.59
1629,7.75,5.12,7.87,5.24,-5.24,-5.46,2.51,2.63,2.63
1646,7.70,5.03,7.90,5.23,-5.23,-5.65,2.48,2.67,2.67
1662,7.70,4.98,7.95,5.23,-5.23,-5.83,2.47,2.72,2.72
1679,7.79,5.03,8.02,5.26,-5.26,-6.01,2.54,2.76,2.76
1696,7.94,5.13,8.12,5.31,-5.31,-6.20,2.64,2.81,2.81
