frequency,raw
20,-8.11
21,-7.31
22,-6.54
23,-5.80
24,-5.10
25,-4.42
26,-3.78
27,-3.16
28,-2.58
29,-2.03
30,-1.51
31,-1.02
32,-0.57
33,-0.15
34,0.23
35,0.61
36,0.95
37,1.26
38,1.54
39,1.80
40,2.04
41,2.26
42,2.47
43,2.66
44,2.84
45,3.02
46,3.20
47,3.37
48,3.53
49,3.67
50,3.82
51,3.96
52,4.10
53,4.21
54,4.33
55,4.45
56,4.55
57,4.65
58,4.74
59,4.83
60,4.90
61,4.97
62,5.02
63,5.07
64,5.11
65,5.14
66,5.18
67,5.20
68,5.20
69,5.21
70,5.21
71,5.21
72,5.20
73,5.20
74,5.21
75,5.21
76,5.21
77,5.19
78,5.17
79,5.15
80,5.12
81,5.09
82,5.07
83,5.04
84,5.01
85,4.97
86,4.92
87,4.88
88,4.83
89,4.78
90,4.74
91,4.70
92,4.67
93,4.65
94,4.62
95,4.59
96,4.57
97,4.54
98,4.53
99,4.52
100,4.52
101,4.52
102,4.53
104,4.54
105,4.54
106,4.55
107,4.56
108,4.56
109,4.56
110,4.55
111,4.53
112,4.51
113,4.48
114,4.45
115,4.42
117,4.38
118,4.35
119,4.32
120,4.28
121,4.26
123,4.23
124,4.21
125,4.20
126,4.19
128,4.19
129,4.20
130,4.22
131,4.23
133,4.24
134,4.24
135,4.23
137,4.22
138,4.20
140,4.18
141,4.15
142,4.12
144,4.08
145,4.05
147,4.01
148,3.99
150,3.96
151,3.94
153,3.92
154,3.90
156,3.88
157,3.85
159,3.83
160,3.82
162,3.81
164,3.78
165,3.75
167,3.70
169,3.66
170,3.62
172,3.57
174,3.51
175,3.46
177,3.41
179,3.35
181,3.30
183,3.24
184,3.18
186,3.10
188,3.02
190,2.94
192,2.86
194,2.77
196,2.69
198,2.60
200,2.52
202,2.43
204,2.34
206,2.26
208,2.18
210,2.10
212,2.02
214,1.94
216,1.87
218,1.79
221,1.72
223,1.66
225,1.60
227,1.53
229,1.47
232,1.41
234,1.34
236,1.27
239,1.22
241,1.18
244,1.15
246,1.10
248,1.05
251,1.01
253,0.97
256,0.93
259,0.89
261,0.85
264,0.82
266,0.80
269,0.77
272,0.74
274,0.69
277,0.64
280,0.60
283,0.55
286,0.51
288,0.47
291,0.45
294,0.42
297,0.40
300,0.37
303,0.34
306,0.32
309,0.31
312,0.30
316,0.30
319,0.31
322,0.32
325,0.32
328,0.32
332,0.32
335,0.32
338,0.32
342,0.32
345,0.32
349,0.32
352,0.32
356,0.32
359,0.32
363,0.32
366,0.32
370,0.31
374,0.30
377,0.30
381,0.31
385,0.32
389,0.34
393,0.36
397,0.39
401,0.43
405,0.46
409,0.49
413,0.53
417,0.56
421,0.59
425,0.62
430,0.64
434,0.66
438,0.67
443,0.67
447,0.67
451,0.66
456,0.65
460,0.64
465,0.64
470,0.63
474,0.63
479,0.63
484,0.64
489,0.66
494,0.69
499,0.71
504,0.75
509,0.78
514,0.81
519,0.85
524,0.88
529,0.91
535,0.94
540,0.96
545,0.98
551,1.00
556,1.01
562,1.01
568,1.00
573,0.99
579,0.97
585,0.95
591,0.92
596,0.89
602,0.86
608,0.82
615,0.79
621,0.75
627,0.72
633,0.69
639,0.67
646,0.65
652,0.63
659,0.62
665,0.63
672,0.63
679,0.65
686,0.66
692,0.67
699,0.67
706,0.67
713,0.65
721,0.63
728,0.61
735,0.58
742,0.55
750,0.52
757,0.48
765,0.45
773,0.42
780,0.39
788,0.36
796,0.33
804,0.32
812,0.30
820,0.31
828,0.32
837,0.34
845,0.34
853,0.34
862,0.33
871,0.30
879,0.28
888,0.25
897,0.22
906,0.18
915,0.15
924,0.12
933,0.08
943,0.05
952,0.03
962,0.01
971,-0.00
981,-0.01
991,-0.00
1001,0.00
1011,0.00
1021,-0.01
1031,-0.03
1041,-0.06
1052,-0.09
1062,-0.12
1073,-0.15
1084,-0.19
1094,-0.22
1105,-0.25
1116,-0.27
1128,-0.28
1139,-0.30
1150,-0.32
1162,-0.34
1173,-0.35
1185,-0.37
1197,-0.39
1209,-0.40
1221,-0.43
1233,-0.47
1246,-0.51
1258,-0.56
1271,-0.59
1283,-0.64
1296,-0.70
1309,-0.76
1322,-0.82
1335,-0.87
1349,-0.92
1362,-0.98
1376,-1.04
1390,-1.10
1404,-1.17
1418,-1.25
1432,-1.32
1446,-1.40
1461,-1.47
1475,-1.54
1490,-1.61
1505,-1.68
1520,-1.74
1535,-1.79
1550,-1.82
1566,-1.86
1582,-1.89
1597,-1.92
1613,-1.95
1629,-1.97
1646,-2.00
1662,-2.03
1679,-2.05
1696,-2.07
1713,-2.10
1730,-2.12
1747,-2.15
1764,-2.18
1782,-2.22
1800,-2.26
1818,-2.30
1836,-2.34
1854,-2.38
1873,-2.41
1892,-2.43
1911,-2.46
1930,-2.49
1949,-2.52
1969,-2.55
1988,-2.58
2008,-2.60
2028,-2.61
2048,-2.62
2069,-2.62
2090,-2.61
2111,-2.60
2132,-2.60
2153,-2.60
2175,-2.60
2196,-2.60
2218,-2.60
2240,-2.60
2263,-2.60
2285,-2.60
2308,-2.59
2331,-2.58
2355,-2.57
2378,-2.57
2402,-2.58
2426,-2.59
2450,-2.61
2475,-2.63
2500,-2.65
2525,-2.67
2550,-2.71
2575,-2.75
2601,-2.81
2627,-2.87
2653,-2.93
2680,-3.01
2707,-3.09
2734,-3.17
2761,-3.26
2789,-3.35
2817,-3.44
2845,-3.54
2873,-3.63
2902,-3.75
2931,-3.86
2960,-3.97
2990,-4.08
3020,-4.19
3050,-4.29
3080,-4.41
3111,-4.52
3142,-4.64
3174,-4.74
3206,-4.85
3238,-4.97
3270,-5.09
3303,-5.21
3336,-5.34
3369,-5.47
3403,-5.58
3437,-5.70
3471,-5.83
3506,-5.95
3541,-6.08
3576,-6.22
3612,-6.36
3648,-6.51
3685,-6.67
3721,-6.83
3759,-7.02
3796,-7.22
3834,-7.44
3873,-7.67
3911,-7.94
3950,-8.23
3990,-8.55
4030,-8.91
4070,-9.28
4111,-9.66
4152,-10.02
4193,-10.36
4235,-10.65
4278,-10.86
4321,-10.96
4364,-10.92
4407,-10.75
4451,-10.44
4496,-9.98
4541,-9.41
4586,-8.72
4632,-7.95
4679,-7.12
4725,-6.26
4773,-5.40
4820,-4.57
4868,-3.81
4917,-3.13
4966,-2.53
5016,-2.01
5066,-1.59
5117,-1.24
5168,-0.93
5220,-0.67
5272,-0.45
5325,-0.26
5378,-0.12
5432,-0.01
5486,0.06
5541,0.10
5596,0.10
5652,0.08
5709,0.05
5766,0.02
5823,-0.02
5882,-0.06
5940,-0.11
6000,-0.14
6060,-0.15
6120,-0.16
6182,-0.15
6244,-0.13
6306,-0.09
6369,-0.05
6433,-0.02
6497,0.00
6562,-0.01
6628,-0.05
6694,-0.12
6761,-0.21
6828,-0.32
6897,-0.45
6966,-0.58
7035,-0.73
7106,-0.90
7177,-1.10
7249,-1.33
7321,-1.61
7394,-1.94
7468,-2.31
7543,-2.72
7618,-3.18
7694,-3.67
7771,-4.19
7849,-4.74
7928,-5.32
8007,-5.89
8087,-6.45
8168,-7.00
8250,-7.52
8332,-7.99
8415,-8.42
8499,-8.79
8584,-9.10
8670,-9.36
8757,-9.58
8845,-9.76
8933,-9.90
9022,-10.00
9113,-10.05
9204,-10.09
9296,-10.10
9389,-10.08
9483,-10.04
9577,-9.98
9673,-9.92
9770,-9.85
9868,-9.78
9966,-9.73
10066,-9.67
10167,-9.60
10268,-9.52
10371,-9.43
10475,-9.32
10579,-9.22
10685,-9.10
10792,-8.96
10900,-8.79
11009,-8.60
11119,-8.40
11230,-8.17
11343,-7.92
11456,-7.67
11571,-7.41
11686,-7.18
11803,-6.96
11921,-6.76
12040,-6.58
12161,-6.42
12282,-6.29
12405,-6.18
12529,-6.11
12655,-6.07
12781,-6.07
12909,-6.11
13038,-6.17
13168,-6.27
13300,-6.40
13433,-6.57
13567,-6.77
13703,-7.00
13840,-7.28
13978,-7.64
14118,-8.06
14259,-8.56
14402,-9.12
14546,-9.74
14692,-10.40
14838,-11.08
14987,-11.77
15137,-12.44
15288,-13.07
15441,-13.64
15595,-14.13
15751,-14.51
15909,-14.81
16068,-15.01
16229,-15.11
16391,-15.11
16555,-15.02
16720,-14.88
16888,-14.72
17056,-14.55
17227,-14.39
17399,-14.26
17573,-14.16
17749,-14.10
17926,-14.07
18106,-14.08
18287,-14.12
18470,-14.18
18654,-14.27
18841,-14.39
19029,-14.53
19220,-14.70
19412,-14.90
19606,-15.12
19802,-15.37
20000,-15.64
