frequency,raw,error,smoothed,error_smoothed,equalization,parametric_eq,equalized_raw,equalized_smoothed,target
20,3.64,3.22,3.73,3.33,-3.33,-1.15,0.31,0.40,0.42
21,3.65,3.23,3.67,3.27,-3.27,-1.33,0.38,0.40,0.42
22,3.63,3.21,3.61,3.21,-3.21,-1.53,0.43,0.40,0.42
23,3.60,3.18,3.55,3.14,-3.14,-1.74,0.46,0.40,0.42
24,3.54,3.13,3.49,3.09,-3.09,-1.96,0.46,0.41,0.42
25,3.47,3.06,3.43,3.03,-3.03,-2.18,0.44,0.40,0.41
26,3.40,2.99,3.38,2.97,-2.97,-2.40,0.43,0.40,0.41
27,3.33,2.93,3.32,2.92,-2.92,-2.61,0.41,0.40,0.41
28,3.27,2.87,3.26,2.87,-2.87,-2.79,0.41,0.40,0.40
29,3.20,2.80,3.21,2.82,-2.82,-2.94,0.39,0.40,0.40
30,3.14,2.75,3.16,2.77,-2.77,-3.05,0.37,0.39,0.39
31,3.08,2.69,3.10,2.72,-2.72,-3.11,0.37,0.38,0.39
32,3.03,2.65,3.04,2.67,-2.67,-3.13,0.36,0.37,0.38
33,2.98,2.61,2.99,2.62,-2.62,-3.11,0.36,0.37,0.38
34,2.93,2.56,2.94,2.58,-2.58,-3.07,0.35,0.36,0.37
35,2.89,2.53,2.89,2.54,-2.54,-3.00,0.35,0.36,0.36
36,2.85,2.50,2.85,2.50,-2.50,-2.92,0.35,0.35,0.35
37,2.82,2.48,2.81,2.47,-2.47,-2.83,0.35,0.34,0.34
38,2.78,2.45,2.78,2.44,-2.44,-2.75,0.34,0.33,0.33
39,2.74,2.42,2.74,2.41,-2.41,-2.67,0.33,0.33,0.32
40,2.71,2.40,2.70,2.39,-2.39,-2.60,0.32,0.31,0.31
41,2.67,2.37,2.67,2.37,-2.37,-2.54,0.30,0.30,0.30
42,2.64,2.35,2.64,2.35,-2.35,-2.49,0.30,0.29,0.29
43,2.60,2.32,2.60,2.33,-2.33,-2.45,0.28,0.28,0.28
44,2.57,2.31,2.57,2.31,-2.31,-2.42,0.26,0.26,0.26
45,2.54,2.29,2.54,2.29,-2.29,-2.40,0.25,0.25,0.25
46,2.51,2.28,2.51,2.28,-2.28,-2.39,0.23,0.23,0.23
47,2.48,2.26,2.48,2.26,-2.26,-2.39,0.22,0.22,0.22
48,2.45,2.25,2.45,2.25,-2.25,-2.40,0.20,0.20,0.20
49,2.42,2.24,2.43,2.24,-2.24,-2.42,0.18,0.18,0.18
50,2.40,2.24,2.40,2.24,-2.24,-2.44,0.16,0.16,0.16
51,2.38,2.24,2.38,2.24,-2.24,-2.46,0.15,0.14,0.14
52,2.36,2.24,2.36,2.24,-2.24,-2.49,0.13,0.12,0.12
53,2.34,2.24,2.34,2.24,-2.24,-2.52,0.10,0.10,0.10
54,2.32,2.24,2.32,2.24,-2.24,-2.55,0.08,0.07,0.08
55,2.30,2.25,2.30,2.25,-2.25,-2.58,0.05,0.05,0.06
56,2.29,2.26,2.29,2.27,-2.27,-2.61,0.03,0.02,0.03
57,2.27,2.27,2.28,2.28,-2.28,-2.63,-0.01,-0.00,0.01
58,2.26,2.28,2.27,2.30,-2.30,-2.65,-0.04,-0.03,-0.02
59,2.25,2.30,2.27,2.32,-2.32,-2.67,-0.07,-0.05,-0.05
60,2.25,2.33,2.27,2.35,-2.35,-2.68,-0.10,-0.08,-0.08
61,2.24,2.35,2.26,2.37,-2.37,-2.68,-0.13,-0.11,-0.10
62,2.25,2.39,2.26,2.40,-2.40,-2.68,-0.15,-0.14,-0.13
63,2.26,2.43,2.25,2.42,-2.42,-2.68,-0.16,-0.17,-0.17
64,2.27,2.47,2.24,2.45,-2.45,-2.66,-0.17,-0.20,-0.20
65,2.26,2.49,2.23,2.47,-2.47,-2.65,-0.21,-0.24,-0.23
66,2.25,2.51,2.22,2.49,-2.49,-2.62,-0.24,-0.27,-0.26
67,2.22,2.52,2.20,2.50,-2.50,-2.60,-0.28,-0.30,-0.30
68,2.19,2.52,2.18,2.52,-2.52,-2.57,-0.33,-0.33,-0.33
69,2.14,2.51,2.16,2.53,-2.53,-2.53,-0.39,-0.37,-0.37
70,2.11,2.51,2.13,2.54,-2.54,-2.50,-0.43,-0.41,-0.40
71,2.07,2.51,2.10,2.54,-2.54,-2.46,-0.47,-0.44,-0.44
72,2.05,2.53,2.07,2.55,-2.55,-2.43,-0.50,-0.48,-0.48
73,2.02,2.53,2.03,2.55,-2.55,-2.39,-0.53,-0.52,-0.51
74,2.00,2.55,1.99,2.55,-2.55,-2.35,-0.55,-0.56,-0.55
75,1.97,2.56,1.95,2.55,-2.55,-2.32,-0.58,-0.60,-0.59
76,1.93,2.56,1.91,2.55,-2.55,-2.28,-0.62,-0.63,-0.63
77,1.87,2.54,1.87,2.55,-2.55,-2.25,-0.68,-0.67,-0.67
78,1.83,2.54,1.83,2.54,-2.54,-2.22,-0.71,-0.71,-0.71
79,1.78,2.53,1.79,2.54,-2.54,-2.19,-0.76,-0.75,-0.75
80,1.74,2.53,1.74,2.53,-2.53,-2.16,-0.79,-0.79,-0.79
81,1.70,2.53,1.69,2.52,-2.52,-2.14,-0.82,-0.83,-0.83
82,1.64,2.51,1.64,2.51,-2.51,-2.11,-0.87,-0.87,-0.87
83,1.59,2.51,1.59,2.50,-2.50,-2.09,-0.91,-0.92,-0.91
84,1.54,2.50,1.53,2.49,-2.49,-2.07,-0.95,-0.96,-0.96
85,1.48,2.48,1.48,2.48,-2.48,-2.05,-1.00,-1.00,-1.00
86,1.41,2.45,1.42,2.46,-2.46,-2.04,-1.05,-1.04,-1.04
87,1.36,2.44,1.37,2.45,-2.45,-2.03,-1.09,-1.08,-1.08
88,1.30,2.42,1.31,2.43,-2.43,-2.02,-1.13,-1.12,-1.12
89,1.25,2.41,1.25,2.42,-2.42,-2.01,-1.17,-1.17,-1.16
90,1.20,2.41,1.20,2.41,-2.41,-2.00,-1.21,-1.21,-1.20
91,1.14,2.39,1.14,2.39,-2.39,-2.00,-1.25,-1.25,-1.25
92,1.09,2.38,1.09,2.38,-2.38,-2.00,-1.29,-1.29,-1.29
93,1.03,2.36,1.04,2.36,-2.36,-1.99,-1.33,-1.33,-1.33
94,0.98,2.35,0.98,2.35,-2.35,-2.00,-1.37,-1.37,-1.37
95,0.92,2.33,0.93,2.34,-2.34,-2.00,-1.41,-1.41,-1.41
96,0.87,2.32,0.87,2.32,-2.32,-2.00,-1.45,-1.45,-1.45
97,0.83,2.32,0.81,2.30,-2.30,-2.01,-1.47,-1.49,-1.49
98,0.77,2.30,0.75,2.29,-2.29,-2.01,-1.52,-1.53,-1.53
99,0.71,2.28,0.69,2.27,-2.27,-2.02,-1.56,-1.58,-1.57
100,0.66,2.27,0.64,2.26,-2.26,-2.03,-1.60,-1.62,-1.61
101,0.59,2.24,0.58,2.24,-2.24,-2.04,-1.65,-1.66,-1.64
102,0.53,2.21,0.52,2.23,-2.23,-2.05,-1.70,-1.71,-1.68
104,0.43,2.19,0.47,2.22,-2.22,-2.07,-1.79,-1.75,-1.76
105,0.38,2.17,0.42,2.21,-2.21,-2.08,-1.83,-1.79,-1.79
106,0.34,2.17,0.38,2.20,-2.20,-2.10,-1.86,-1.82,-1.83
107,0.31,2.18,0.33,2.19,-2.19,-2.11,-1.88,-1.86,-1.86
108,0.28,2.18,0.28,2.18,-2.18,-2.12,-1.90,-1.90,-1.90
109,0.25,2.18,0.24,2.18,-2.18,-2.13,-1.93,-1.94,-1.93
110,0.22,2.19,0.20,2.17,-2.17,-2.15,-1.95,-1.98,-1.97
111,0.18,2.18,0.15,2.16,-2.16,-2.16,-1.98,-2.01,-2.00
112,0.13,2.16,0.11,2.16,-2.16,-2.17,-2.03,-2.05,-2.03
113,0.09,2.16,0.07,2.15,-2.15,-2.18,-2.06,-2.08,-2.07
114,0.05,2.15,0.03,2.15,-2.15,-2.19,-2.10,-2.11,-2.10
115,0.01,2.14,-0.00,2.14,-2.14,-2.20,-2.13,-2.15,-2.13
117,-0.08,2.11,-0.04,2.14,-2.14,-2.22,-2.22,-2.18,-2.19
118,-0.12,2.10,-0.08,2.14,-2.14,-2.22,-2.25,-2.22,-2.22
119,-0.16,2.09,-0.12,2.13,-2.13,-2.23,-2.29,-2.25,-2.25
120,-0.18,2.10,-0.16,2.12,-2.12,-2.23,-2.30,-2.29,-2.28
121,-0.20,2.10,-0.20,2.12,-2.12,-2.24,-2.32,-2.32,-2.30
123,-0.24,2.12,-0.24,2.11,-2.11,-2.24,-2.35,-2.36,-2.36
124,-0.25,2.13,-0.28,2.11,-2.11,-2.24,-2.36,-2.39,-2.38
125,-0.28,2.13,-0.32,2.10,-2.10,-2.24,-2.38,-2.42,-2.41
126,-0.31,2.12,-0.36,2.09,-2.09,-2.24,-2.40,-2.45,-2.43
128,-0.40,2.08,-0.39,2.09,-2.09,-2.23,-2.49,-2.48,-2.48
129,-0.45,2.06,-0.43,2.08,-2.08,-2.23,-2.53,-2.51,-2.51
130,-0.50,2.03,-0.47,2.07,-2.07,-2.22,-2.57,-2.54,-2.53
131,-0.53,2.02,-0.50,2.06,-2.06,-2.22,-2.59,-2.57,-2.55
133,-0.59,2.01,-0.54,2.05,-2.05,-2.20,-2.64,-2.60,-2.60
134,-0.59,2.03,-0.59,2.04,-2.04,-2.19,-2.63,-2.63,-2.62
135,-0.60,2.04,-0.63,2.03,-2.03,-2.18,-2.63,-2.66,-2.64
137,-0.64,2.04,-0.67,2.02,-2.02,-2.16,-2.66,-2.69,-2.68
138,-0.66,2.04,-0.70,2.01,-2.01,-2.15,-2.67,-2.71,-2.70
140,-0.73,2.00,-0.73,2.01,-2.01,-2.13,-2.73,-2.74,-2.73
141,-0.76,1.99,-0.76,2.00,-2.00,-2.12,-2.76,-2.76,-2.75
142,-0.80,1.97,-0.79,1.99,-1.99,-2.11,-2.79,-2.78,-2.77
144,-0.85,1.95,-0.81,1.99,-1.99,-2.09,-2.84,-2.80,-2.80
145,-0.87,1.95,-0.84,1.98,-1.98,-2.07,-2.85,-2.83,-2.82
147,-0.90,1.95,-0.87,1.98,-1.98,-2.05,-2.87,-2.85,-2.85
148,-0.90,1.97,-0.91,1.97,-1.97,-2.04,-2.87,-2.88,-2.87
150,-0.92,1.98,-0.94,1.96,-1.96,-2.02,-2.88,-2.90,-2.89
151,-0.93,1.98,-0.97,1.95,-1.95,-2.01,-2.88,-2.92,-2.91
153,-0.97,1.97,-0.99,1.95,-1.95,-1.99,-2.92,-2.94,-2.94
154,-1.00,1.95,-1.02,1.94,-1.94,-1.98,-2.94,-2.96,-2.95
156,-1.06,1.92,-1.04,1.94,-1.94,-1.96,-3.00,-2.98,-2.97
157,-1.08,1.91,-1.06,1.93,-1.93,-1.95,-3.01,-3.00,-2.99
159,-1.13,1.88,-1.09,1.93,-1.93,-1.94,-3.06,-3.01,-3.01
160,-1.14,1.88,-1.11,1.92,-1.92,-1.93,-3.06,-3.03,-3.02
162,-1.15,1.90,-1.14,1.91,-1.91,-1.92,-3.06,-3.05,-3.04
164,-1.16,1.91,-1.16,1.91,-1.91,-1.91,-3.06,-3.07,-3.07
165,-1.17,1.91,-1.19,1.90,-1.90,-1.91,-3.07,-3.08,-3.08
167,-1.19,1.91,-1.21,1.89,-1.89,-1.90,-3.08,-3.10,-3.10
169,-1.22,1.90,-1.24,1.88,-1.88,-1.89,-3.10,-3.12,-3.11
170,-1.24,1.88,-1.27,1.87,-1.87,-1.89,-3.11,-3.13,-3.12
172,-1.29,1.85,-1.29,1.86,-1.86,-1.89,-3.14,-3.15,-3.14
174,-1.32,1.84,-1.32,1.84,-1.84,-1.89,-3.16,-3.16,-3.16
175,-1.34,1.83,-1.34,1.83,-1.83,-1.89,-3.17,-3.17,-3.17
177,-1.38,1.80,-1.37,1.82,-1.82,-1.89,-3.20,-3.19,-3.18
179,-1.42,1.78,-1.39,1.81,-1.81,-1.90,-3.23,-3.20,-3.20
181,-1.45,1.76,-1.42,1.80,-1.80,-1.90,-3.25,-3.22,-3.21
183,-1.47,1.75,-1.44,1.79,-1.79,-1.91,-3.25,-3.23,-3.22
184,-1.48,1.75,-1.46,1.77,-1.77,-1.92,-3.25,-3.24,-3.23
186,-1.48,1.76,-1.49,1.76,-1.76,-1.93,-3.24,-3.25,-3.24
188,-1.48,1.78,-1.51,1.75,-1.75,-1.94,-3.23,-3.26,-3.25
190,-1.50,1.77,-1.53,1.74,-1.74,-1.95,-3.24,-3.27,-3.27
192,-1.52,1.76,-1.55,1.73,-1.73,-1.97,-3.25,-3.28,-3.28
194,-1.55,1.74,-1.57,1.73,-1.73,-1.98,-3.27,-3.29,-3.29
196,-1.58,1.72,-1.59,1.72,-1.72,-2.00,-3.29,-3.30,-3.30
198,-1.62,1.69,-1.61,1.71,-1.71,-2.01,-3.33,-3.31,-3.31
200,-1.64,1.68,-1.62,1.70,-1.70,-2.03,-3.34,-3.32,-3.32
202,-1.66,1.67,-1.64,1.70,-1.70,-2.05,-3.36,-3.33,-3.33
204,-1.67,1.66,-1.65,1.70,-1.70,-2.07,-3.36,-3.34,-3.33
206,-1.68,1.66,-1.66,1.69,-1.69,-2.09,-3.37,-3.35,-3.34
208,-1.69,1.66,-1.66,1.70,-1.70,-2.11,-3.38,-3.36,-3.35
210,-1.67,1.69,-1.67,1.70,-1.70,-2.13,-3.37,-3.37,-3.36
212,-1.67,1.70,-1.67,1.70,-1.70,-2.15,-3.37,-3.37,-3.36
214,-1.66,1.71,-1.67,1.71,-1.71,-2.17,-3.37,-3.38,-3.37
216,-1.65,1.73,-1.67,1.71,-1.71,-2.19,-3.36,-3.38,-3.38
218,-1.65,1.74,-1.67,1.72,-1.72,-2.21,-3.37,-3.39,-3.38
221,-1.64,1.75,-1.67,1.72,-1.72,-2.24,-3.36,-3.39,-3.39
223,-1.66,1.74,-1.68,1.72,-1.72,-2.26,-3.38,-3.40,-3.40
225,-1.67,1.74,-1.68,1.73,-1.73,-2.27,-3.40,-3.41,-3.40
227,-1.69,1.72,-1.68,1.73,-1.73,-2.29,-3.42,-3.41,-3.41
229,-1.70,1.72,-1.68,1.73,-1.73,-2.31,-3.43,-3.42,-3.41
232,-1.71,1.71,-1.69,1.74,-1.74,-2.33,-3.45,-3.43,-3.42
234,-1.71,1.72,-1.69,1.75,-1.75,-2.34,-3.45,-3.43,-3.43
236,-1.70,1.73,-1.68,1.75,-1.75,-2.35,-3.45,-3.44,-3.43
239,-1.68,1.76,-1.68,1.77,-1.77,-2.37,-3.44,-3.44,-3.44
241,-1.67,1.77,-1.67,1.78,-1.78,-2.37,-3.45,-3.45,-3.44
244,-1.64,1.81,-1.65,1.80,-1.80,-2.38,-3.44,-3.45,-3.45
246,-1.63,1.82,-1.63,1.82,-1.82,-2.39,-3.45,-3.46,-3.45
248,-1.61,1.84,-1.61,1.85,-1.85,-2.39,-3.46,-3.46,-3.45
251,-1.58,1.88,-1.58,1.88,-1.88,-2.39,-3.46,-3.46,-3.46
253,-1.56,1.90,-1.55,1.91,-1.91,-2.39,-3.47,-3.46,-3.46
256,-1.52,1.95,-1.52,1.95,-1.95,-2.39,-3.47,-3.47,-3.47
259,-1.48,1.99,-1.49,1.98,-1.98,-2.39,-3.46,-3.47,-3.47
261,-1.46,2.01,-1.45,2.02,-2.02,-2.38,-3.48,-3.47,-3.47
264,-1.41,2.07,-1.41,2.06,-2.06,-2.37,-3.47,-3.48,-3.48
266,-1.38,2.10,-1.38,2.10,-2.10,-2.37,-3.48,-3.48,-3.48
269,-1.34,2.14,-1.34,2.15,-2.15,-2.35,-3.49,-3.48,-3.48
272,-1.29,2.20,-1.30,2.19,-2.19,-2.34,-3.48,-3.49,-3.49
274,-1.26,2.23,-1.26,2.23,-2.23,-2.33,-3.49,-3.49,-3.49
277,-1.22,2.27,-1.21,2.28,-2.28,-2.31,-3.50,-3.49,-3.49
280,-1.17,2.33,-1.17,2.32,-2.32,-2.30,-3.49,-3.49,-3.50
283,-1.13,2.37,-1.13,2.37,-2.37,-2.28,-3.50,-3.50,-3.50
286,-1.08,2.42,-1.09,2.41,-2.41,-2.26,-3.49,-3.50,-3.50
288,-1.05,2.45,-1.05,2.46,-2.46,-2.25,-3.51,-3.50,-3.50
291,-1.01,2.50,-1.01,2.50,-2.50,-2.23,-3.51,-3.51,-3.51
294,-0.97,2.54,-0.96,2.54,-2.54,-2.21,-3.51,-3.51,-3.51
297,-0.92,2.59,-0.92,2.59,-2.59,-2.19,-3.51,-3.51,-3.51
300,-0.88,2.63,-0.88,2.63,-2.63,-2.18,-3.51,-3.51,-3.51
303,-0.84,2.67,-0.84,2.68,-2.68,-2.16,-3.51,-3.51,-3.51
306,-0.80,2.72,-0.80,2.72,-2.72,-2.14,-3.52,-3.52,-3.52
309,-0.76,2.76,-0.76,2.76,-2.76,-2.13,-3.52,-3.52,-3.52
312,-0.72,2.80,-0.72,2.80,-2.80,-2.11,-3.52,-3.52,-3.52
316,-0.67,2.85,-0.68,2.85,-2.85,-2.10,-3.52,-3.53,-3.52
319,-0.64,2.88,-0.64,2.89,-2.89,-2.08,-3.53,-3.53,-3.52
322,-0.60,2.93,-0.60,2.93,-2.93,-2.07,-3.53,-3.53,-3.52
325,-0.56,2.97,-0.56,2.97,-2.97,-2.06,-3.53,-3.53,-3.53
328,-0.53,3.00,-0.52,3.01,-3.01,-2.06,-3.54,-3.53,-3.53
332,-0.49,3.04,-0.48,3.05,-3.05,-2.05,-3.54,-3.53,-3.53
335,-0.46,3.07,-0.44,3.09,-3.09,-2.04,-3.55,-3.53,-3.53
338,-0.43,3.10,-0.41,3.12,-3.12,-2.04,-3.55,-3.53,-3.53
342,-0.39,3.14,-0.38,3.15,-3.15,-2.03,-3.54,-3.54,-3.53
345,-0.36,3.18,-0.36,3.18,-3.18,-2.03,-3.54,-3.54,-3.53
349,-0.32,3.22,-0.34,3.20,-3.20,-2.03,-3.52,-3.54,-3.54
352,-0.30,3.24,-0.33,3.21,-3.21,-2.04,-3.51,-3.54,-3.54
356,-0.29,3.25,-0.32,3.22,-3.22,-2.04,-3.51,-3.54,-3.54
359,-0.30,3.24,-0.32,3.22,-3.22,-2.04,-3.52,-3.54,-3.54
363,-0.33,3.21,-0.33,3.22,-3.22,-2.05,-3.54,-3.54,-3.54
366,-0.34,3.20,-0.34,3.20,-3.20,-2.06,-3.54,-3.54,-3.54
370,-0.37,3.17,-0.36,3.19,-3.19,-2.07,-3.56,-3.54,-3.54
374,-0.39,3.15,-0.38,3.17,-3.17,-2.08,-3.56,-3.55,-3.54
377,-0.41,3.14,-0.40,3.14,-3.14,-2.09,-3.55,-3.55,-3.54
381,-0.44,3.11,-0.44,3.11,-3.11,-2.10,-3.55,-3.55,-3.54
385,-0.48,3.07,-0.47,3.08,-3.08,-2.12,-3.56,-3.55,-3.55
389,-0.51,3.04,-0.51,3.05,-3.05,-2.14,-3.56,-3.55,-3.55
393,-0.54,3.01,-0.54,3.01,-3.01,-2.16,-3.55,-3.55,-3.55
397,-0.58,2.97,-0.58,2.97,-2.97,-2.18,-3.55,-3.55,-3.55
401,-0.62,2.93,-0.62,2.93,-2.93,-2.20,-3.55,-3.55,-3.55
405,-0.66,2.89,-0.66,2.88,-2.88,-2.22,-3.54,-3.54,-3.55
409,-0.70,2.85,-0.71,2.84,-2.84,-2.24,-3.54,-3.54,-3.55
413,-0.75,2.80,-0.76,2.79,-2.79,-2.26,-3.54,-3.55,-3.55
417,-0.80,2.75,-0.81,2.74,-2.74,-2.28,-3.54,-3.56,-3.55
421,-0.84,2.71,-0.87,2.70,-2.70,-2.30,-3.54,-3.56,-3.55
425,-0.89,2.67,-0.92,2.65,-2.65,-2.33,-3.54,-3.57,-3.55
430,-0.95,2.61,-0.97,2.61,-2.61,-2.35,-3.56,-3.57,-3.56
434,-1.01,2.55,-1.01,2.57,-2.57,-2.38,-3.58,-3.58,-3.56
438,-1.05,2.51,-1.04,2.54,-2.54,-2.40,-3.59,-3.58,-3.56
443,-1.12,2.44,-1.06,2.51,-2.51,-2.42,-3.63,-3.58,-3.56
447,-1.16,2.39,-1.08,2.49,-2.49,-2.44,-3.65,-3.57,-3.55
451,-1.16,2.39,-1.09,2.47,-2.47,-2.46,-3.63,-3.57,-3.55
456,-1.14,2.41,-1.10,2.46,-2.46,-2.48,-3.60,-3.56,-3.54
460,-1.12,2.42,-1.10,2.45,-2.45,-2.49,-3.57,-3.55,-3.54
465,-1.08,2.45,-1.11,2.44,-2.44,-2.51,-3.52,-3.54,-3.53
470,-1.05,2.47,-1.10,2.43,-2.43,-2.53,-3.48,-3.53,-3.52
474,-1.04,2.47,-1.10,2.42,-2.42,-2.54,-3.46,-3.52,-3.51
479,-1.04,2.46,-1.10,2.41,-2.41,-2.55,-3.45,-3.51,-3.50
484,-1.06,2.43,-1.10,2.39,-2.39,-2.55,-3.45,-3.49,-3.49
489,-1.10,2.38,-1.10,2.37,-2.37,-2.56,-3.47,-3.47,-3.47
494,-1.13,2.33,-1.11,2.35,-2.35,-2.56,-3.48,-3.46,-3.46
499,-1.15,2.30,-1.12,2.33,-2.33,-2.56,-3.47,-3.45,-3.44
504,-1.17,2.26,-1.14,2.30,-2.30,-2.56,-3.46,-3.43,-3.43
509,-1.18,2.23,-1.16,2.26,-2.26,-2.55,-3.44,-3.42,-3.41
514,-1.19,2.21,-1.18,2.23,-2.23,-2.55,-3.42,-3.41,-3.40
519,-1.19,2.19,-1.20,2.19,-2.19,-2.54,-3.38,-3.39,-3.38
524,-1.21,2.15,-1.21,2.15,-2.15,-2.52,-3.36,-3.37,-3.36
529,-1.22,2.12,-1.23,2.12,-2.12,-2.51,-3.34,-3.35,-3.34
535,-1.23,2.09,-1.24,2.08,-2.08,-2.49,-3.31,-3.32,-3.32
540,-1.25,2.05,-1.25,2.04,-2.04,-2.47,-3.29,-3.30,-3.30
545,-1.26,2.02,-1.27,2.01,-2.01,-2.45,-3.27,-3.27,-3.28
551,-1.29,1.96,-1.28,1.97,-1.97,-2.43,-3.26,-3.25,-3.25
556,-1.29,1.94,-1.29,1.93,-1.93,-2.41,-3.22,-3.22,-3.23
562,-1.31,1.89,-1.30,1.90,-1.90,-2.38,-3.21,-3.20,-3.20
568,-1.32,1.85,-1.31,1.86,-1.86,-2.35,-3.18,-3.17,-3.17
573,-1.32,1.82,-1.32,1.82,-1.82,-2.33,-3.14,-3.14,-3.14
579,-1.33,1.78,-1.33,1.79,-1.79,-2.30,-3.12,-3.12,-3.11
585,-1.33,1.75,-1.33,1.76,-1.76,-2.28,-3.08,-3.09,-3.08
591,-1.33,1.72,-1.33,1.72,-1.72,-2.25,-3.05,-3.06,-3.05
596,-1.33,1.69,-1.33,1.69,-1.69,-2.23,-3.02,-3.03,-3.02
602,-1.33,1.66,-1.33,1.67,-1.67,-2.20,-3.00,-3.00,-2.99
608,-1.32,1.64,-1.32,1.64,-1.64,-2.17,-2.96,-2.96,-2.96
615,-1.31,1.62,-1.31,1.62,-1.62,-2.14,-2.93,-2.93,-2.93
621,-1.31,1.59,-1.30,1.60,-1.60,-2.12,-2.91,-2.90,-2.90
627,-1.29,1.58,-1.29,1.58,-1.58,-2.10,-2.87,-2.87,-2.86
633,-1.28,1.55,-1.27,1.57,-1.57,-2.07,-2.85,-2.84,-2.83
639,-1.25,1.55,-1.25,1.55,-1.55,-2.05,-2.80,-2.80,-2.80
646,-1.23,1.54,-1.22,1.54,-1.54,-2.03,-2.77,-2.77,-2.77
652,-1.20,1.53,-1.20,1.53,-1.53,-2.01,-2.73,-2.73,-2.73
659,-1.17,1.53,-1.17,1.53,-1.53,-1.99,-2.69,-2.70,-2.70
665,-1.14,1.53,-1.14,1.52,-1.52,-1.98,-2.66,-2.66,-2.66
672,-1.11,1.52,-1.11,1.52,-1.52,-1.96,-2.62,-2.63,-2.63
679,-1.07,1.52,-1.08,1.51,-1.51,-1.95,-2.58,-2.59,-2.59
686,-1.03,1.53,-1.05,1.51,-1.51,-1.94,-2.54,-2.56,-2.55
692,-1.00,1.52,-1.01,1.51,-1.51,-1.93,-2.51,-2.52,-2.52
699,-0.97,1.51,-0.97,1.52,-1.52,-1.92,-2.49,-2.49,-2.48
706,-0.93,1.51,-0.92,1.53,-1.53,-1.91,-2.46,-2.45,-2.44
713,-0.89,1.51,-0.87,1.54,-1.54,-1.91,-2.43,-2.41,-2.40
721,-0.85,1.51,-0.82,1.55,-1.55,-1.90,-2.40,-2.37,-2.36
728,-0.79,1.53,-0.76,1.57,-1.57,-1.90,-2.35,-2.33,-2.32
735,-0.72,1.57,-0.71,1.58,-1.58,-1.90,-2.30,-2.29,-2.28
742,-0.65,1.60,-0.65,1.60,-1.60,-1.90,-2.25,-2.25,-2.24
750,-0.57,1.64,-0.58,1.62,-1.62,-1.90,-2.19,-2.21,-2.21
757,-0.51,1.66,-0.52,1.65,-1.65,-1.91,-2.15,-2.17,-2.17
765,-0.44,1.69,-0.46,1.67,-1.67,-1.91,-2.11,-2.13,-2.13
773,-0.38,1.71,-0.40,1.69,-1.69,-1.92,-2.07,-2.09,-2.09
780,-0.34,1.71,-0.34,1.71,-1.71,-1.93,-2.05,-2.06,-2.05
788,-0.28,1.74,-0.29,1.74,-1.74,-1.93,-2.02,-2.02,-2.02
796,-0.22,1.77,-0.23,1.76,-1.76,-1.94,-1.98,-1.99,-1.98
804,-0.18,1.77,-0.18,1.78,-1.78,-1.95,-1.96,-1.96,-1.95
812,-0.13,1.79,-0.12,1.80,-1.80,-1.96,-1.93,-1.93,-1.92
820,-0.09,1.80,-0.07,1.83,-1.83,-1.97,-1.92,-1.90,-1.88
828,-0.05,1.80,-0.02,1.85,-1.85,-1.98,-1.90,-1.86,-1.85
837,0.01,1.83,0.04,1.87,-1.87,-1.99,-1.86,-1.83,-1.82
845,0.06,1.85,0.09,1.88,-1.88,-2.00,-1.82,-1.80,-1.79
853,0.11,1.87,0.14,1.90,-1.90,-2.01,-1.78,-1.76,-1.76
862,0.18,1.91,0.18,1.90,-1.90,-2.01,-1.72,-1.73,-1.73
871,0.23,1.93,0.21,1.90,-1.90,-2.02,-1.67,-1.69,-1.70
879,0.27,1.94,0.23,1.89,-1.89,-2.02,-1.62,-1.66,-1.67
888,0.29,1.93,0.24,1.87,-1.87,-2.02,-1.58,-1.63,-1.64
897,0.28,1.90,0.24,1.85,-1.85,-2.02,-1.56,-1.61,-1.61
906,0.28,1.87,0.23,1.81,-1.81,-2.02,-1.53,-1.59,-1.59
915,0.24,1.80,0.21,1.77,-1.77,-2.01,-1.53,-1.56,-1.56
924,0.19,1.72,0.18,1.72,-1.72,-2.00,-1.53,-1.54,-1.53
933,0.14,1.65,0.15,1.67,-1.67,-1.99,-1.53,-1.52,-1.51
943,0.09,1.57,0.12,1.62,-1.62,-1.97,-1.53,-1.50,-1.48
952,0.04,1.50,0.09,1.57,-1.57,-1.95,-1.53,-1.47,-1.45
962,0.00,1.43,0.07,1.51,-1.51,-1.92,-1.51,-1.45,-1.43
971,-0.01,1.39,0.04,1.46,-1.46,-1.89,-1.47,-1.42,-1.40
981,-0.01,1.37,0.02,1.42,-1.42,-1.86,-1.42,-1.40,-1.38
991,-0.01,1.34,0.00,1.37,-1.37,-1.82,-1.38,-1.37,-1.35
1001,0.00,1.32,-0.01,1.33,-1.33,-1.77,-1.33,-1.34,-1.32
1011,0.02,1.32,-0.02,1.29,-1.29,-1.72,-1.27,-1.31,-1.30
1021,0.02,1.29,-0.02,1.26,-1.26,-1.66,-1.23,-1.28,-1.27
1031,0.01,1.25,-0.02,1.22,-1.22,-1.60,-1.21,-1.24,-1.24
1041,-0.02,1.19,-0.03,1.18,-1.18,-1.53,-1.20,-1.21,-1.21
1052,-0.04,1.15,-0.04,1.14,-1.14,-1.46,-1.18,-1.18,-1.19
1062,-0.06,1.10,-0.05,1.10,-1.10,-1.38,-1.16,-1.15,-1.16
1073,-0.07,1.06,-0.06,1.06,-1.06,-1.30,-1.13,-1.12,-1.13
1084,-0.08,1.02,-0.08,1.02,-1.02,-1.21,-1.10,-1.10,-1.10
1094,-0.09,0.98,-0.10,0.98,-0.98,-1.12,-1.07,-1.07,-1.07
1105,-0.10,0.94,-0.11,0.94,-0.94,-1.03,-1.04,-1.05,-1.04
1116,-0.12,0.89,-0.13,0.90,-0.90,-0.93,-1.02,-1.02,-1.01
1128,-0.14,0.84,-0.13,0.86,-0.86,-0.82,-1.00,-0.99,-0.98
1139,-0.15,0.80,-0.14,0.82,-0.82,-0.71,-0.97,-0.96,-0.94
1150,-0.17,0.74,-0.14,0.79,-0.79,-0.60,-0.96,-0.93,-0.91
1162,-0.17,0.71,-0.13,0.76,-0.76,-0.48,-0.93,-0.90,-0.88
1173,-0.17,0.68,-0.12,0.74,-0.74,-0.37,-0.91,-0.86,-0.85
1185,-0.15,0.67,-0.12,0.71,-0.71,-0.25,-0.86,-0.83,-0.82
1197,-0.13,0.66,-0.11,0.68,-0.68,-0.13,-0.81,-0.80,-0.79
1209,-0.11,0.64,-0.11,0.65,-0.65,-0.00,-0.76,-0.76,-0.75
1221,-0.10,0.62,-0.11,0.62,-0.62,0.12,-0.71,-0.73,-0.72
1233,-0.10,0.59,-0.12,0.57,-0.57,0.25,-0.67,-0.69,-0.69
1246,-0.12,0.54,-0.14,0.51,-0.51,0.38,-0.63,-0.65,-0.66
1258,-0.16,0.47,-0.18,0.43,-0.43,0.51,-0.59,-0.61,-0.62
1271,-0.22,0.37,-0.23,0.34,-0.34,0.65,-0.56,-0.57,-0.59
1283,-0.28,0.28,-0.31,0.23,-0.23,0.78,-0.51,-0.53,-0.56
1296,-0.39,0.13,-0.40,0.09,-0.09,0.92,-0.48,-0.49,-0.52
1309,-0.51,-0.02,-0.53,-0.07,0.07,1.06,-0.44,-0.46,-0.48
1322,-0.64,-0.19,-0.67,-0.25,0.25,1.20,-0.39,-0.42,-0.45
1335,-0.80,-0.39,-0.84,-0.45,0.45,1.34,-0.35,-0.39,-0.41
1349,-0.99,-0.61,-1.03,-0.68,0.68,1.49,-0.31,-0.36,-0.37
1362,-1.19,-0.85,-1.24,-0.91,0.91,1.63,-0.28,-0.33,-0.34
1376,-1.42,-1.12,-1.46,-1.16,1.16,1.78,-0.26,-0.30,-0.30
1390,-1.67,-1.41,-1.69,-1.42,1.42,1.93,-0.25,-0.27,-0.26
1404,-1.93,-1.71,-1.92,-1.68,1.68,2.08,-0.25,-0.25,-0.22
1418,-2.18,-2.00,-2.16,-1.93,1.93,2.23,-0.24,-0.23,-0.18
1432,-2.42,-2.27,-2.39,-2.19,2.19,2.38,-0.23,-0.20,-0.15
1446,-2.65,-2.54,-2.61,-2.43,2.43,2.54,-0.22,-0.18,-0.11
1461,-2.88,-2.81,-2.82,-2.67,2.67,2.70,-0.21,-0.15,-0.07
1475,-3.05,-3.02,-3.00,-2.88,2.88,2.85,-0.17,-0.12,-0.03
1490,-3.21,-3.22,-3.17,-3.09,3.09,3.01,-0.12,-0.09,0.01
1505,-3.36,-3.41,-3.32,-3.27,3.27,3.18,-0.09,-0.05,0.05
1520,-3.47,-3.56,-3.45,-3.44,3.44,3.34,-0.03,-0.01,0.09
1535,-3.56,-3.69,-3.56,-3.59,3.59,3.50,0.03,0.03,0.13
1550,-3.64,-3.82,-3.65,-3.72,3.72,3.66,0.08,0.07,0.18
1566,-3.69,-3.91,-3.72,-3.83,3.83,3.84,0.14,0.11,0.22
1582,-3.74,-4.00,-3.78,-3.93,3.93,4.01,0.19,0.15,0.26
1597,-3.78,-4.09,-3.81,-4.01,4.01,4.17,0.23,0.20,0.31
1613,-3.82,-4.17,-3.83,-4.07,4.07,4.34,0.26,0.24,0.36
1629,-3.84,-4.24,-3.83,-4.12,4.12,4.51,0.28,0.29,0.40
1646,-3.85,-4.30,-3.81,-4.15,4.15,4.68,0.30,0.34,0.45
