frequency,raw,smoothed,error,error_smoothed,equalization,parametric_eq,fixed_band_eq,equalized_raw,equalized_smoothed,target
20.00,5.98,5.98,1.22,1.22,-1.21,-1.97,-0.93,4.76,4.76,4.76
20.20,6.01,6.01,1.22,1.22,-1.22,-1.97,-0.95,4.79,4.79,4.79
20.40,6.04,6.03,1.22,1.22,-1.22,-1.98,-0.98,4.82,4.82,4.82
20.61,6.07,6.07,1.23,1.22,-1.23,-1.98,-1.01,4.84,4.84,4.84
20.81,6.10,6.10,1.23,1.23,-1.24,-1.98,-1.04,4.86,4.86,4.87
21.02,6.13,6.13,1.23,1.24,-1.25,-1.99,-1.07,4.88,4.88,4.90
21.23,6.17,6.16,1.26,1.26,-1.26,-1.99,-1.10,4.90,4.90,4.90
21.44,6.20,6.20,1.28,1.28,-1.28,-2.00,-1.13,4.92,4.92,4.91
21.66,6.23,6.23,1.30,1.31,-1.30,-2.00,-1.16,4.92,4.93,4.92
21.87,6.26,6.26,1.33,1.33,-1.33,-2.00,-1.20,4.93,4.93,4.92
22.09,6.29,6.29,1.35,1.36,-1.35,-2.01,-1.23,4.93,4.93,4.93
22.31,6.32,6.31,1.38,1.38,-1.38,-2.01,-1.27,4.93,4.93,4.93
22.54,6.34,6.34,1.40,1.41,-1.41,-2.02,-1.30,4.92,4.93,4.93
22.76,6.37,6.37,1.44,1.44,-1.44,-2.02,-1.34,4.92,4.92,4.93
22.99,6.40,6.40,1.48,1.47,-1.47,-2.03,-1.38,4.93,4.93,4.92
23.22,6.43,6.43,1.51,1.51,-1.50,-2.03,-1.42,4.93,4.93,4.92
23.45,6.46,6.45,1.54,1.54,-1.53,-2.04,-1.46,4.93,4.92,4.92
23.69,6.48,6.48,1.56,1.56,-1.56,-2.04,-1.50,4.92,4.92,4.92
23.92,6.51,6.51,1.59,1.59,-1.59,-2.05,-1.54,4.92,4.92,4.92
24.16,6.54,6.54,1.61,1.61,-1.62,-2.05,-1.58,4.92,4.92,4.93
24.40,6.57,6.57,1.64,1.65,-1.65,-2.06,-1.62,4.92,4.92,4.93
24.65,6.60,6.60,1.68,1.68,-1.68,-2.06,-1.66,4.92,4.92,4.91
24.89,6.63,6.63,1.71,1.71,-1.71,-2.07,-1.71,4.92,4.92,4.91
25.14,6.66,6.66,1.74,1.74,-1.74,-2.07,-1.75,4.92,4.92,4.91
25.39,6.69,6.68,1.78,1.77,-1.77,-2.08,-1.80,4.92,4.91,4.91
25.65,6.71,6.71,1.80,1.80,-1.80,-2.08,-1.84,4.90,4.91,4.91
25.91,6.74,6.73,1.84,1.83,-1.83,-2.09,-1.89,4.90,4.90,4.90
26.16,6.76,6.76,1.86,1.86,-1.86,-2.09,-1.93,4.90,4.90,4.90
26.43,6.79,6.78,1.89,1.89,-1.89,-2.10,-1.98,4.90,4.90,4.90
26.69,6.81,6.81,1.91,1.91,-1.91,-2.11,-2.02,4.89,4.90,4.90
26.96,6.84,6.83,1.94,1.94,-1.94,-2.11,-2.06,4.90,4.89,4.89
27.23,6.86,6.86,1.96,1.97,-1.97,-2.12,-2.11,4.89,4.89,4.89
27.50,6.89,6.88,1.99,1.99,-2.00,-2.12,-2.15,4.89,4.89,4.89
27.77,6.91,6.91,2.03,2.02,-2.02,-2.13,-2.19,4.88,4.88,4.88
28.05,6.93,6.93,2.05,2.05,-2.05,-2.14,-2.23,4.87,4.88,4.88
28.33,6.96,6.95,2.09,2.08,-2.08,-2.14,-2.27,4.88,4.87,4.87
28.62,6.98,6.98,2.11,2.11,-2.11,-2.15,-2.30,4.87,4.87,4.87
28.90,7.00,7.00,2.13,2.14,-2.13,-2.16,-2.34,4.86,4.86,4.86
29.19,7.02,7.02,2.16,2.16,-2.16,-2.17,-2.37,4.86,4.86,4.85
29.48,7.04,7.04,2.18,2.18,-2.18,-2.17,-2.40,4.85,4.85,4.86
29.78,7.06,7.06,2.21,2.20,-2.21,-2.18,-2.43,4.85,4.85,4.85
30.08,7.08,7.07,2.23,2.23,-2.23,-2.19,-2.46,4.85,4.84,4.85
30.38,7.09,7.09,2.25,2.25,-2.25,-2.20,-2.48,4.84,4.84,4.84
30.68,7.11,7.10,2.27,2.27,-2.27,-2.20,-2.50,4.84,4.83,4.83
30.99,7.12,7.12,2.29,2.29,-2.29,-2.21,-2.52,4.83,4.83,4.82
31.30,7.13,7.12,2.31,2.30,-2.30,-2.22,-2.53,4.82,4.82,4.82
31.61,7.13,7.13,2.31,2.32,-2.32,-2.23,-2.55,4.81,4.81,4.82
31.93,7.14,7.13,2.33,2.33,-2.33,-2.24,-2.56,4.81,4.81,4.80
32.24,7.14,7.14,2.34,2.34,-2.34,-2.24,-2.56,4.80,4.80,4.79
32.57,7.14,7.14,2.35,2.35,-2.35,-2.25,-2.57,4.79,4.79,4.79
32.89,7.14,7.14,2.35,2.35,-2.35,-2.26,-2.57,4.78,4.78,4.79
33.22,7.14,7.14,2.36,2.36,-2.36,-2.27,-2.57,4.77,4.77,4.77
33.55,7.14,7.14,2.36,2.37,-2.37,-2.28,-2.57,4.76,4.77,4.77
33.89,7.15,7.14,2.39,2.38,-2.38,-2.29,-2.56,4.76,4.76,4.76
34.23,7.15,7.15,2.39,2.39,-2.39,-2.30,-2.56,4.75,4.75,4.76
34.57,7.15,7.15,2.40,2.40,-2.40,-2.31,-2.55,4.74,4.75,4.74
34.92,7.15,7.15,2.42,2.41,-2.41,-2.32,-2.54,4.73,4.73,4.73
35.27,7.15,7.15,2.42,2.42,-2.42,-2.33,-2.53,4.72,4.72,4.73
35.62,7.15,7.15,2.43,2.43,-2.43,-2.34,-2.52,4.71,4.71,4.71
35.97,7.15,7.15,2.45,2.44,-2.44,-2.35,-2.51,4.70,4.70,4.70
36.33,7.15,7.15,2.45,2.46,-2.45,-2.36,-2.50,4.69,4.69,4.70
36.70,7.15,7.15,2.46,2.46,-2.46,-2.37,-2.49,4.68,4.68,4.68
37.06,7.15,7.15,2.48,2.47,-2.48,-2.38,-2.48,4.67,4.67,4.67
37.43,7.15,7.15,2.48,2.49,-2.49,-2.39,-2.47,4.66,4.66,4.66
37.81,7.15,7.15,2.50,2.50,-2.50,-2.40,-2.46,4.65,4.65,4.65
38.19,7.15,7.15,2.51,2.51,-2.51,-2.42,-2.44,4.64,4.64,4.63
38.57,7.15,7.15,2.52,2.52,-2.52,-2.43,-2.43,4.63,4.63,4.63
38.95,7.15,7.15,2.53,2.53,-2.53,-2.44,-2.43,4.61,4.61,4.61
39.34,7.15,7.14,2.55,2.54,-2.54,-2.45,-2.42,4.61,4.60,4.60
39.74,7.14,7.14,2.55,2.55,-2.55,-2.46,-2.41,4.59,4.59,4.58
40.14,7.14,7.13,2.56,2.56,-2.56,-2.48,-2.40,4.58,4.58,4.58
40.54,7.13,7.13,2.56,2.56,-2.56,-2.49,-2.40,4.56,4.57,4.56
40.94,7.13,7.12,2.57,2.57,-2.57,-2.50,-2.40,4.56,4.56,4.56
41.35,7.12,7.12,2.57,2.57,-2.57,-2.51,-2.40,4.54,4.55,4.54
41.76,7.12,7.11,2.58,2.58,-2.58,-2.53,-2.40,4.54,4.54,4.54
42.18,7.11,7.11,2.58,2.58,-2.58,-2.54,-2.40,4.52,4.52,4.53
42.60,7.10,7.10,2.58,2.58,-2.59,-2.55,-2.40,4.51,4.51,4.51
43.03,7.10,7.09,2.59,2.59,-2.60,-2.57,-2.41,4.50,4.50,4.51
43.46,7.09,7.09,2.60,2.60,-2.61,-2.58,-2.41,4.48,4.48,4.49
43.90,7.09,7.08,2.63,2.62,-2.62,-2.59,-2.42,4.47,4.46,4.46
44.33,7.08,7.08,2.63,2.64,-2.63,-2.61,-2.43,4.44,4.45,4.44
44.78,7.08,7.07,2.65,2.65,-2.65,-2.62,-2.45,4.43,4.43,4.42
45.23,7.07,7.07,2.66,2.66,-2.66,-2.64,-2.46,4.41,4.41,4.41
45.68,7.07,7.06,2.68,2.67,-2.67,-2.65,-2.48,4.40,4.39,4.39
46.13,7.06,7.06,2.69,2.68,-2.68,-2.66,-2.50,4.37,4.37,4.37
46.60,7.05,7.05,2.69,2.70,-2.69,-2.68,-2.52,4.35,4.36,4.36
47.06,7.05,7.04,2.71,2.70,-2.71,-2.69,-2.54,4.34,4.34,4.34
47.53,7.04,7.04,2.72,2.71,-2.72,-2.71,-2.56,4.32,4.32,4.32
48.01,7.03,7.03,2.72,2.73,-2.73,-2.72,-2.58,4.29,4.30,4.31
48.49,7.03,7.02,2.75,2.74,-2.75,-2.74,-2.61,4.28,4.27,4.28
48.97,7.02,7.02,2.77,2.77,-2.77,-2.75,-2.64,4.25,4.25,4.25
49.46,7.01,7.01,2.79,2.79,-2.79,-2.77,-2.67,4.22,4.22,4.22
49.96,7.01,7.00,2.82,2.81,-2.81,-2.79,-2.70,4.20,4.20,4.18
50.46,7.00,7.00,2.82,2.83,-2.83,-2.80,-2.73,4.17,4.17,4.17
50.96,6.99,6.99,2.84,2.85,-2.84,-2.82,-2.76,4.14,4.15,4.15
51.47,6.99,6.98,2.87,2.86,-2.86,-2.83,-2.80,4.12,4.12,4.12
51.99,6.98,6.98,2.88,2.88,-2.88,-2.85,-2.83,4.10,4.10,4.09
52.51,6.98,6.97,2.90,2.90,-2.90,-2.86,-2.87,4.08,4.08,4.08
53.03,6.97,6.97,2.91,2.91,-2.92,-2.88,-2.90,4.05,4.05,4.05
53.56,6.97,6.96,2.94,2.93,-2.94,-2.90,-2.94,4.03,4.03,4.03
54.10,6.96,6.96,2.95,2.96,-2.96,-2.91,-2.98,4.00,4.00,4.00
54.64,6.96,6.96,2.98,2.98,-2.98,-2.93,-3.01,3.98,3.98,3.98
55.18,6.96,6.95,3.00,3.00,-3.00,-2.95,-3.05,3.96,3.95,3.95
55.74,6.95,6.95,3.02,3.02,-3.02,-2.96,-3.08,3.93,3.93,3.93
56.29,6.95,6.94,3.04,3.04,-3.04,-2.98,-3.12,3.91,3.90,3.91
56.86,6.94,6.94,3.06,3.06,-3.06,-3.00,-3.15,3.88,3.88,3.88
57.42,6.94,6.93,3.09,3.08,-3.08,-3.01,-3.18,3.86,3.86,3.85
58.00,6.93,6.93,3.09,3.10,-3.09,-3.03,-3.21,3.83,3.84,3.83
58.58,6.93,6.92,3.11,3.11,-3.11,-3.05,-3.24,3.82,3.81,3.81
59.16,6.92,6.92,3.13,3.13,-3.13,-3.06,-3.27,3.79,3.79,3.79
59.76,6.91,6.91,3.14,3.14,-3.14,-3.08,-3.29,3.76,3.76,3.77
60.35,6.90,6.90,3.16,3.15,-3.16,-3.10,-3.32,3.73,3.73,3.74
60.96,6.89,6.89,3.17,3.18,-3.18,-3.11,-3.34,3.70,3.70,3.72
61.57,6.88,6.88,3.20,3.20,-3.20,-3.13,-3.36,3.67,3.67,3.67
62.18,6.87,6.87,3.23,3.22,-3.22,-3.15,-3.37,3.64,3.64,3.64
62.80,6.86,6.86,3.24,3.25,-3.25,-3.17,-3.39,3.61,3.61,3.61
63.43,6.86,6.85,3.28,3.27,-3.27,-3.18,-3.40,3.59,3.59,3.58
64.07,6.85,6.85,3.29,3.29,-3.29,-3.20,-3.41,3.56,3.56,3.55
64.71,6.84,6.84,3.31,3.31,-3.31,-3.22,-3.42,3.53,3.53,3.53
65.35,6.83,6.83,3.33,3.33,-3.33,-3.24,-3.42,3.50,3.50,3.50
66.01,6.82,6.82,3.35,3.35,-3.35,-3.25,-3.43,3.47,3.47,3.47
66.67,6.81,6.81,3.36,3.36,-3.37,-3.27,-3.43,3.44,3.44,3.44
67.33,6.80,6.80,3.38,3.38,-3.39,-3.29,-3.43,3.41,3.41,3.41
68.01,6.79,6.79,3.40,3.40,-3.40,-3.31,-3.43,3.38,3.38,3.38
68.69,6.78,6.78,3.43,3.43,-3.43,-3.33,-3.43,3.35,3.35,3.35
69.37,6.77,6.77,3.45,3.45,-3.45,-3.35,-3.42,3.32,3.32,3.32
70.07,6.76,6.76,3.47,3.47,-3.47,-3.37,-3.42,3.29,3.29,3.29
70.77,6.75,6.75,3.48,3.49,-3.49,-3.38,-3.42,3.26,3.26,3.26
71.48,6.74,6.74,3.51,3.51,-3.51,-3.40,-3.41,3.23,3.23,3.23
72.19,6.73,6.72,3.53,3.53,-3.53,-3.42,-3.41,3.19,3.19,3.19
72.91,6.71,6.71,3.55,3.55,-3.55,-3.44,-3.40,3.15,3.16,3.16
73.64,6.70,6.69,3.58,3.57,-3.57,-3.46,-3.40,3.13,3.12,3.12
74.38,6.68,6.68,3.58,3.59,-3.59,-3.48,-3.40,3.09,3.09,3.09
75.12,6.67,6.66,3.61,3.61,-3.61,-3.50,-3.39,3.06,3.06,3.05
75.87,6.65,6.65,3.62,3.62,-3.62,-3.52,-3.39,3.03,3.03,3.02
76.63,6.63,6.63,3.63,3.64,-3.63,-3.55,-3.39,2.99,2.99,2.99
77.40,6.61,6.61,3.64,3.65,-3.65,-3.57,-3.40,2.96,2.96,2.96
78.17,6.59,6.59,3.66,3.66,-3.66,-3.59,-3.40,2.93,2.93,2.92
78.95,6.57,6.57,3.67,3.67,-3.67,-3.61,-3.40,2.90,2.90,2.90
79.74,6.55,6.55,3.68,3.68,-3.68,-3.63,-3.41,2.86,2.86,2.87
80.54,6.53,6.53,3.70,3.70,-3.70,-3.65,-3.42,2.83,2.83,2.83
81.35,6.51,6.51,3.71,3.71,-3.72,-3.68,-3.43,2.79,2.79,2.80
82.16,6.50,6.49,3.74,3.73,-3.74,-3.70,-3.45,2.76,2.76,2.76
82.98,6.48,6.48,3.74,3.75,-3.76,-3.72,-3.46,2.72,2.72,2.73
83.81,6.47,6.46,3.78,3.77,-3.78,-3.74,-3.48,2.69,2.69,2.69
84.65,6.45,6.45,3.80,3.80,-3.80,-3.77,-3.50,2.65,2.65,2.65
85.50,6.44,6.44,3.82,3.82,-3.81,-3.79,-3.53,2.62,2.62,2.62
86.35,6.42,6.41,3.83,3.83,-3.83,-3.82,-3.55,2.59,2.59,2.58
87.22,6.39,6.39,3.84,3.84,-3.83,-3.84,-3.58,2.55,2.55,2.54
88.09,6.35,6.35,3.84,3.84,-3.84,-3.87,-3.61,2.51,2.51,2.50
88.97,6.31,6.31,3.84,3.84,-3.83,-3.89,-3.65,2.47,2.47,2.47
89.86,6.26,6.26,3.83,3.83,-3.83,-3.92,-3.69,2.43,2.43,2.43
90.76,6.21,6.20,3.83,3.82,-3.82,-3.94,-3.73,2.39,2.39,2.38
91.66,6.15,6.15,3.80,3.81,-3.81,-3.97,-3.77,2.34,2.34,2.34
92.58,6.10,6.10,3.81,3.80,-3.80,-4.00,-3.81,2.29,2.29,2.29
93.51,6.05,6.05,3.79,3.79,-3.80,-4.02,-3.86,2.24,2.25,2.26
94.44,6.01,6.01,3.79,3.80,-3.81,-4.05,-3.91,2.20,2.20,2.21
95.39,5.98,5.97,3.81,3.81,-3.82,-4.08,-3.97,2.16,2.16,2.17
96.34,5.95,5.95,3.83,3.83,-3.84,-4.11,-4.02,2.11,2.11,2.11
97.30,5.94,5.93,3.87,3.86,-3.86,-4.14,-4.08,2.07,2.07,2.07
98.28,5.92,5.92,3.89,3.89,-3.89,-4.17,-4.14,2.02,2.02,2.02
99.26,5.91,5.91,3.93,3.93,-3.93,-4.20,-4.20,1.98,1.98,1.98
100.25,5.90,5.90,3.96,3.97,-3.97,-4.23,-4.26,1.93,1.93,1.93
101.25,5.90,5.89,4.01,4.01,-4.00,-4.26,-4.33,1.89,1.89,1.89
102.27,5.89,5.89,4.05,4.05,-4.04,-4.29,-4.40,1.84,1.84,1.84
103.29,5.88,5.88,4.09,4.09,-4.08,-4.32,-4.46,1.80,1.80,1.78
104.32,5.87,5.86,4.12,4.12,-4.12,-4.35,-4.53,1.75,1.75,1.75
105.37,5.85,5.85,4.15,4.15,-4.15,-4.39,-4.60,1.69,1.70,1.70
106.42,5.85,5.84,4.19,4.19,-4.19,-4.42,-4.67,1.65,1.65,1.65
107.48,5.84,5.83,4.23,4.23,-4.23,-4.45,-4.74,1.61,1.60,1.61
108.56,5.83,5.83,4.27,4.27,-4.27,-4.49,-4.81,1.56,1.56,1.55
109.64,5.82,5.82,4.31,4.31,-4.31,-4.52,-4.87,1.50,1.51,1.51
110.74,5.82,5.81,4.36,4.35,-4.36,-4.56,-4.94,1.46,1.46,1.46
111.85,5.81,5.81,4.39,4.40,-4.40,-4.59,-5.01,1.41,1.41,1.41
112.97,5.81,5.80,4.46,4.45,-4.45,-4.63,-5.07,1.36,1.36,1.35
114.10,5.80,5.80,4.49,4.50,-4.50,-4.66,-5.13,1.30,1.30,1.30
115.24,5.80,5.79,4.55,4.55,-4.55,-4.70,-5.18,1.25,1.25,1.25
116.39,5.79,5.79,4.59,4.59,-4.60,-4.74,-5.24,1.19,1.19,1.19
117.55,5.79,5.79,4.65,4.65,-4.64,-4.77,-5.28,1.14,1.14,1.14
118.73,5.79,5.78,4.70,4.69,-4.69,-4.81,-5.33,1.09,1.09,1.09
119.92,5.79,5.78,4.74,4.74,-4.74,-4.85,-5.37,1.05,1.04,1.04
121.12,5.78,5.78,4.79,4.79,-4.79,-4.89,-5.41,0.99,0.99,0.99
122.33,5.78,5.77,4.84,4.83,-4.83,-4.93,-5.44,0.94,0.94,0.94
123.55,5.77,5.77,4.87,4.88,-4.88,-4.97,-5.46,0.89,0.89,0.90
124.79,5.77,5.77,4.92,4.92,-4.92,-5.01,-5.48,0.84,0.84,0.85
126.03,5.77,5.76,4.97,4.97,-4.97,-5.05,-5.50,0.80,0.79,0.79
127.29,5.76,5.76,5.01,5.02,-5.02,-5.09,-5.51,0.74,0.74,0.74
128.57,5.75,5.75,5.06,5.06,-5.06,-5.13,-5.52,0.69,0.69,0.69
129.85,5.75,5.74,5.11,5.11,-5.10,-5.17,-5.51,0.64,0.64,0.64
131.15,5.74,5.74,5.15,5.15,-5.15,-5.21,-5.51,0.59,0.59,0.59
132.46,5.74,5.73,5.19,5.19,-5.19,-5.25,-5.50,0.55,0.55,0.54
133.79,5.73,5.73,5.22,5.23,-5.23,-5.29,-5.49,0.50,0.50,0.50
135.12,5.72,5.72,5.27,5.26,-5.27,-5.33,-5.47,0.45,0.45,0.45
136.48,5.72,5.71,5.30,5.30,-5.31,-5.37,-5.45,0.41,0.41,0.41
137.84,5.71,5.71,5.34,5.35,-5.34,-5.42,-5.43,0.36,0.36,0.37
139.22,5.71,5.70,5.39,5.38,-5.38,-5.46,-5.41,0.33,0.32,0.32
140.61,5.70,5.70,5.42,5.42,-5.41,-5.50,-5.38,0.28,0.28,0.27
142.02,5.70,5.69,5.45,5.45,-5.45,-5.54,-5.35,0.25,0.25,0.25
143.44,5.69,5.69,5.48,5.48,-5.48,-5.58,-5.32,0.21,0.21,0.21
144.87,5.69,5.68,5.52,5.51,-5.51,-5.62,-5.29,0.17,0.17,0.17
146.32,5.68,5.68,5.55,5.54,-5.54,-5.66,-5.26,0.13,0.13,0.13
147.78,5.67,5.67,5.56,5.57,-5.57,-5.70,-5.23,0.09,0.10,0.10
149.26,5.67,5.66,5.60,5.60,-5.60,-5.74,-5.20,0.06,0.06,0.06
150.75,5.66,5.66,5.64,5.63,-5.63,-5.77,-5.17,0.02,0.02,0.02
152.26,5.65,5.65,5.67,5.67,-5.66,-5.81,-5.15,-0.02,-0.02,-0.02
153.78,5.64,5.64,5.69,5.70,-5.69,-5.85,-5.12,-0.06,-0.06,-0.06
155.32,5.63,5.63,5.73,5.72,-5.73,-5.88,-5.10,-0.10,-0.10,-0.10
156.88,5.62,5.62,5.75,5.75,-5.76,-5.92,-5.08,-0.14,-0.14,-0.13
158.44,5.61,5.61,5.78,5.79,-5.79,-5.95,-5.06,-0.18,-0.18,-0.18
160.03,5.61,5.60,5.83,5.82,-5.82,-5.99,-5.04,-0.22,-0.22,-0.22
161.63,5.60,5.60,5.86,5.86,-5.86,-6.02,-5.03,-0.26,-0.26,-0.26
163.24,5.60,5.59,5.90,5.89,-5.89,-6.05,-5.02,-0.29,-0.30,-0.30
164.88,5.59,5.59,5.92,5.92,-5.92,-6.08,-5.02,-0.34,-0.33,-0.33
166.53,5.59,5.59,5.96,5.96,-5.96,-6.11,-5.01,-0.37,-0.37,-0.37
168.19,5.59,5.58,6.00,5.99,-5.99,-6.14,-5.02,-0.40,-0.41,-0.41
169.87,5.58,5.58,6.02,6.03,-6.02,-6.16,-5.02,-0.45,-0.45,-0.45
171.57,5.58,5.57,6.06,6.06,-6.06,-6.19,-5.03,-0.48,-0.49,-0.48
173.29,5.57,5.57,6.09,6.09,-6.09,-6.21,-5.04,-0.53,-0.52,-0.52
175.02,5.57,5.57,6.12,6.13,-6.13,-6.23,-5.06,-0.56,-0.56,-0.56
176.77,5.57,5.56,6.17,6.16,-6.16,-6.25,-5.08,-0.60,-0.60,-0.60
178.54,5.56,5.56,6.20,6.20,-6.20,-6.27,-5.10,-0.64,-0.64,-0.64
180.32,5.56,5.56,6.23,6.24,-6.23,-6.29,-5.13,-0.68,-0.68,-0.68
182.13,5.56,5.55,6.27,6.26,-6.27,-6.30,-5.16,-0.71,-0.71,-0.71
183.95,5.55,5.55,6.30,6.30,-6.30,-6.31,-5.19,-0.75,-0.75,-0.75
185.79,5.54,5.54,6.32,6.33,-6.33,-6.32,-5.23,-0.79,-0.78,-0.78
187.65,5.54,5.53,6.36,6.35,-6.35,-6.33,-5.28,-0.82,-0.82,-0.82
189.52,5.53,5.52,6.38,6.38,-6.37,-6.34,-5.32,-0.85,-0.85,-0.85
191.42,5.51,5.51,6.39,6.40,-6.39,-6.34,-5.37,-0.89,-0.88,-0.88
193.33,5.50,5.49,6.41,6.41,-6.41,-6.34,-5.43,-0.91,-0.91,-0.91
195.27,5.48,5.48,6.42,6.42,-6.42,-6.34,-5.48,-0.94,-0.94,-0.94
197.22,5.46,5.46,6.42,6.43,-6.43,-6.34,-5.54,-0.97,-0.97,-0.97
199.19,5.44,5.43,6.44,6.43,-6.43,-6.33,-5.60,-0.99,-1.00,-1.01
201.18,5.41,5.41,6.43,6.43,-6.43,-6.32,-5.67,-1.02,-1.02,-1.02
203.19,5.39,5.38,6.42,6.43,-6.43,-6.32,-5.73,-1.04,-1.04,-1.04
205.23,5.36,5.36,6.42,6.42,-6.42,-6.30,-5.80,-1.06,-1.06,-1.06
207.28,5.34,5.33,6.41,6.41,-6.41,-6.29,-5.87,-1.07,-1.08,-1.07
209.35,5.31,5.31,6.40,6.40,-6.40,-6.27,-5.94,-1.09,-1.09,-1.09
211.44,5.28,5.28,6.39,6.39,-6.38,-6.25,-6.00,-1.11,-1.11,-1.12
213.56,5.25,5.25,6.37,6.37,-6.37,-6.23,-6.07,-1.12,-1.12,-1.12
215.69,5.22,5.22,6.34,6.35,-6.35,-6.21,-6.14,-1.14,-1.13,-1.12
217.85,5.20,5.19,6.33,6.33,-6.34,-6.18,-6.21,-1.14,-1.14,-1.14
220.03,5.17,5.17,6.32,6.32,-6.32,-6.15,-6.27,-1.15,-1.15,-1.15
222.23,5.15,5.15,6.31,6.30,-6.30,-6.12,-6.33,-1.15,-1.15,-1.16
224.45,5.13,5.13,6.28,6.28,-6.28,-6.09,-6.39,-1.15,-1.15,-1.15
226.70,5.11,5.11,6.26,6.26,-6.26,-6.06,-6.44,-1.15,-1.15,-1.15
228.96,5.09,5.08,6.24,6.23,-6.24,-6.02,-6.49,-1.15,-1.15,-1.15
231.25,5.06,5.06,6.20,6.21,-6.21,-5.98,-6.53,-1.16,-1.15,-1.15
233.57,5.04,5.03,6.18,6.18,-6.18,-5.94,-6.57,-1.15,-1.15,-1.15
235.90,5.01,5.01,6.15,6.15,-6.15,-5.89,-6.59,-1.15,-1.15,-1.14
238.26,4.98,4.98,6.12,6.12,-6.12,-5.85,-6.61,-1.14,-1.14,-1.14
240.64,4.95,4.95,6.08,6.08,-6.08,-5.80,-6.62,-1.13,-1.13,-1.13
243.05,4.92,4.91,6.04,6.04,-6.03,-5.75,-6.62,-1.12,-1.12,-1.12
245.48,4.88,4.88,5.99,5.99,-5.99,-5.70,-6.61,-1.11,-1.11,-1.11
247.93,4.84,4.83,5.93,5.94,-5.93,-5.65,-6.60,-1.10,-1.10,-1.10
250.41,4.79,4.79,5.88,5.88,-5.88,-5.59,-6.56,-1.09,-1.09,-1.10
252.92,4.74,4.74,5.81,5.81,-5.81,-5.54,-6.53,-1.08,-1.07,-1.07
255.45,4.69,4.69,5.74,5.74,-5.74,-5.48,-6.47,-1.06,-1.06,-1.05
258.00,4.64,4.63,5.67,5.67,-5.67,-5.42,-6.42,-1.04,-1.04,-1.04
260.58,4.58,4.58,5.60,5.60,-5.60,-5.36,-6.35,-1.02,-1.02,-1.03
263.19,4.52,4.51,5.52,5.52,-5.52,-5.29,-6.27,-1.00,-1.00,-1.00
265.82,4.45,4.45,5.43,5.43,-5.43,-5.23,-6.18,-0.99,-0.98,-0.99
268.48,4.39,4.38,5.35,5.35,-5.35,-5.16,-6.09,-0.96,-0.97,-0.96
271.16,4.32,4.32,5.26,5.26,-5.26,-5.10,-5.98,-0.95,-0.95,-0.94
273.87,4.25,4.25,5.17,5.17,-5.17,-5.03,-5.87,-0.93,-0.93,-0.93
276.61,4.18,4.17,5.08,5.08,-5.08,-4.96,-5.75,-0.90,-0.91,-0.90
279.38,4.10,4.10,4.98,4.99,-4.98,-4.89,-5.63,-0.89,-0.88,-0.89
282.17,4.03,4.02,4.90,4.89,-4.89,-4.81,-5.50,-0.86,-0.86,-0.87
284.99,3.95,3.94,4.79,4.79,-4.79,-4.74,-5.37,-0.84,-0.85,-0.85
287.84,3.86,3.86,4.69,4.69,-4.69,-4.66,-5.23,-0.83,-0.83,-0.83
290.72,3.78,3.78,4.58,4.58,-4.59,-4.59,-5.09,-0.81,-0.81,-0.81
293.63,3.70,3.69,4.49,4.48,-4.48,-4.51,-4.95,-0.79,-0.79,-0.79
296.57,3.61,3.61,4.37,4.38,-4.38,-4.43,-4.81,-0.77,-0.77,-0.76
299.53,3.53,3.52,4.27,4.27,-4.27,-4.35,-4.66,-0.75,-0.75,-0.75
302.53,3.44,3.44,4.17,4.17,-4.16,-4.27,-4.52,-0.73,-0.72,-0.73
305.55,3.36,3.36,4.05,4.06,-4.06,-4.18,-4.37,-0.70,-0.70,-0.70
308.61,3.28,3.27,3.96,3.95,-3.95,-4.10,-4.22,-0.67,-0.67,-0.68
311.69,3.19,3.19,3.84,3.84,-3.84,-4.02,-4.08,-0.65,-0.65,-0.65
314.81,3.11,3.10,3.72,3.73,-3.73,-3.93,-3.93,-0.63,-0.63,-0.62
317.96,3.02,3.02,3.62,3.62,-3.62,-3.84,-3.79,-0.61,-0.61,-0.60
321.14,2.94,2.93,3.52,3.52,-3.52,-3.75,-3.64,-0.58,-0.58,-0.58
324.35,2.85,2.85,3.41,3.41,-3.41,-3.66,-3.50,-0.57,-0.56,-0.57
327.59,2.77,2.76,3.31,3.31,-3.31,-3.57,-3.36,-0.54,-0.54,-0.54
330.87,2.68,2.68,3.20,3.20,-3.20,-3.48,-3.22,-0.52,-0.52,-0.52
334.18,2.60,2.59,3.10,3.10,-3.10,-3.38,-3.08,-0.50,-0.50,-0.50
337.52,2.51,2.51,2.99,2.99,-2.99,-3.28,-2.94,-0.48,-0.48,-0.49
340.90,2.42,2.42,2.88,2.88,-2.88,-3.19,-2.80,-0.46,-0.46,-0.46
344.30,2.33,2.33,2.77,2.77,-2.77,-3.09,-2.67,-0.44,-0.44,-0.44
347.75,2.24,2.24,2.66,2.66,-2.66,-2.99,-2.54,-0.42,-0.42,-0.42
351.23,2.15,2.14,2.55,2.55,-2.55,-2.88,-2.41,-0.40,-0.40,-0.41
354.74,2.05,2.05,2.44,2.43,-2.43,-2.78,-2.28,-0.39,-0.39,-0.39
358.28,1.95,1.94,2.32,2.31,-2.32,-2.67,-2.15,-0.37,-0.37,-0.37
361.87,1.84,1.84,2.19,2.20,-2.20,-2.56,-2.02,-0.37,-0.36,-0.35
365.49,1.74,1.74,2.08,2.08,-2.09,-2.45,-1.90,-0.35,-0.35,-0.35
369.14,1.64,1.64,1.97,1.97,-1.97,-2.33,-1.78,-0.33,-0.33,-0.34
372.83,1.54,1.54,1.86,1.86,-1.85,-2.22,-1.66,-0.32,-0.32,-0.32
376.56,1.44,1.43,1.75,1.74,-1.74,-2.10,-1.54,-0.30,-0.30,-0.31
380.33,1.33,1.33,1.61,1.62,-1.62,-1.97,-1.42,-0.29,-0.29,-0.28
384.13,1.23,1.23,1.50,1.50,-1.51,-1.85,-1.30,-0.28,-0.28,-0.27
387.97,1.13,1.13,1.39,1.39,-1.39,-1.72,-1.19,-0.27,-0.27,-0.27
391.85,1.03,1.03,1.28,1.28,-1.28,-1.59,-1.08,-0.26,-0.26,-0.26
395.77,0.93,0.93,1.16,1.17,-1.17,-1.46,-0.97,-0.24,-0.24,-0.24
399.73,0.83,0.83,1.06,1.06,-1.06,-1.32,-0.86,-0.23,-0.23,-0.23
403.72,0.73,0.73,0.95,0.95,-0.94,-1.18,-0.75,-0.22,-0.22,-0.22
407.76,0.63,0.63,0.84,0.84,-0.83,-1.04,-0.65,-0.21,-0.21,-0.21
411.84,0.53,0.52,0.72,0.72,-0.72,-0.90,-0.54,-0.19,-0.19,-0.19
415.96,0.42,0.42,0.60,0.60,-0.60,-0.75,-0.44,-0.19,-0.18,-0.19
420.12,0.31,0.31,0.48,0.48,-0.48,-0.60,-0.34,-0.18,-0.18,-0.18
424.32,0.20,0.20,0.36,0.36,-0.37,-0.45,-0.25,-0.17,-0.17,-0.17
428.56,0.09,0.09,0.24,0.25,-0.25,-0.29,-0.15,-0.16,-0.16,-0.16
432.85,-0.02,-0.02,0.13,0.12,-0.12,-0.14,-0.06,-0.15,-0.15,-0.15
437.18,-0.13,-0.13,0.01,0.00,-0.00,0.02,0.03,-0.14,-0.14,-0.14
441.55,-0.24,-0.24,-0.12,-0.11,0.12,0.17,0.12,-0.12,-0.12,-0.12
445.96,-0.34,-0.35,-0.23,-0.24,0.24,0.32,0.20,-0.10,-0.11,-0.11
450.42,-0.45,-0.46,-0.35,-0.36,0.36,0.47,0.28,-0.10,-0.10,-0.10
454.93,-0.56,-0.56,-0.48,-0.47,0.47,0.62,0.36,-0.09,-0.09,-0.08
459.48,-0.66,-0.66,-0.59,-0.59,0.58,0.76,0.43,-0.08,-0.08,-0.08
464.07,-0.75,-0.75,-0.70,-0.70,0.69,0.90,0.50,-0.07,-0.07,-0.06
468.71,-0.83,-0.84,-0.80,-0.80,0.79,1.03,0.57,-0.05,-0.05,-0.04
473.40,-0.91,-0.91,-0.89,-0.89,0.88,1.15,0.63,-0.03,-0.03,-0.03
478.13,-0.98,-0.98,-0.98,-0.97,0.98,1.26,0.69,-0.01,-0.01,-0.01
482.91,-1.05,-1.05,-1.05,-1.06,1.06,1.36,0.74,0.01,0.01,0.00
487.74,-1.12,-1.12,-1.14,-1.14,1.15,1.45,0.79,0.03,0.03,0.02
492.62,-1.19,-1.19,-1.23,-1.23,1.24,1.52,0.84,0.04,0.04,0.04
497.55,-1.26,-1.26,-1.31,-1.32,1.32,1.58,0.88,0.06,0.06,0.05
502.52,-1.33,-1.33,-1.40,-1.40,1.41,1.62,0.92,0.07,0.07,0.07
507.55,-1.40,-1.40,-1.48,-1.48,1.49,1.65,0.95,0.08,0.08,0.08
512.62,-1.46,-1.47,-1.56,-1.57,1.56,1.67,0.98,0.10,0.10,0.10
