frequency,raw,error,smoothed,error_smoothed,equalization,parametric_eq,fixed_band_eq,equalized_raw,equalized_smoothed,target
20.00,5.98,1.07,5.98,1.08,-1.07,-2.28,-1.18,4.91,4.91,4.90
20.20,6.01,1.10,6.01,1.10,-1.10,-2.29,-1.22,4.91,4.91,4.90
20.40,6.04,1.14,6.04,1.13,-1.13,-2.30,-1.25,4.91,4.90,4.90
20.61,6.07,1.16,6.07,1.16,-1.17,-2.30,-1.29,4.90,4.90,4.90
20.81,6.10,1.20,6.10,1.20,-1.20,-2.31,-1.32,4.90,4.90,4.90
21.02,6.13,1.23,6.13,1.24,-1.24,-2.32,-1.36,4.89,4.89,4.90
21.23,6.17,1.29,6.17,1.28,-1.28,-2.32,-1.40,4.89,4.88,4.88
21.44,6.20,1.33,6.20,1.33,-1.33,-2.33,-1.44,4.87,4.87,4.87
21.66,6.23,1.38,6.23,1.38,-1.37,-2.34,-1.48,4.85,4.85,4.85
21.87,6.25,1.42,6.26,1.42,-1.42,-2.35,-1.53,4.83,4.83,4.83
22.09,6.29,1.47,6.28,1.47,-1.47,-2.35,-1.57,4.82,4.81,4.82
22.31,6.32,1.53,6.31,1.52,-1.52,-2.36,-1.61,4.79,4.79,4.79
22.54,6.34,1.57,6.35,1.58,-1.58,-2.37,-1.66,4.76,4.77,4.77
22.76,6.38,1.63,6.37,1.63,-1.63,-2.38,-1.71,4.75,4.74,4.75
22.99,6.40,1.68,6.40,1.68,-1.68,-2.39,-1.75,4.72,4.72,4.72
23.22,6.42,1.73,6.42,1.73,-1.73,-2.40,-1.80,4.69,4.69,4.69
23.45,6.46,1.79,6.45,1.78,-1.78,-2.41,-1.85,4.68,4.67,4.66
23.69,6.48,1.82,6.48,1.83,-1.83,-2.42,-1.91,4.65,4.65,4.65
23.92,6.52,1.89,6.52,1.88,-1.88,-2.43,-1.96,4.64,4.64,4.63
24.16,6.55,1.93,6.54,1.92,-1.93,-2.43,-2.01,4.62,4.62,4.62
24.40,6.57,1.97,6.57,1.97,-1.97,-2.44,-2.07,4.60,4.60,4.60
24.65,6.60,2.02,6.60,2.02,-2.02,-2.45,-2.12,4.58,4.58,4.58
24.89,6.63,2.07,6.63,2.06,-2.06,-2.46,-2.18,4.56,4.56,4.56
25.14,6.66,2.11,6.65,2.11,-2.11,-2.48,-2.23,4.55,4.55,4.55
25.39,6.68,2.15,6.68,2.15,-2.15,-2.49,-2.29,4.52,4.53,4.53
25.65,6.71,2.19,6.71,2.20,-2.20,-2.50,-2.35,4.51,4.51,4.52
25.91,6.74,2.25,6.73,2.24,-2.24,-2.51,-2.40,4.49,4.49,4.49
26.16,6.76,2.28,6.76,2.29,-2.28,-2.52,-2.46,4.47,4.48,4.47
26.43,6.79,2.32,6.79,2.33,-2.33,-2.53,-2.52,4.46,4.46,4.46
26.69,6.82,2.38,6.82,2.37,-2.37,-2.54,-2.57,4.45,4.45,4.44
26.96,6.84,2.41,6.84,2.41,-2.41,-2.56,-2.63,4.43,4.43,4.43
27.23,6.87,2.45,6.86,2.44,-2.45,-2.57,-2.68,4.42,4.42,4.42
27.50,6.88,2.47,6.88,2.48,-2.49,-2.58,-2.74,4.39,4.40,4.41
27.77,6.91,2.52,6.91,2.52,-2.52,-2.59,-2.79,4.38,4.39,4.39
28.05,6.94,2.56,6.93,2.56,-2.56,-2.61,-2.84,4.38,4.37,4.38
28.33,6.96,2.60,6.96,2.60,-2.60,-2.62,-2.89,4.36,4.36,4.35
28.62,6.98,2.64,6.98,2.64,-2.63,-2.64,-2.94,4.34,4.35,4.34
28.90,7.00,2.67,7.00,2.67,-2.67,-2.65,-2.98,4.33,4.33,4.33
29.19,7.02,2.71,7.02,2.70,-2.70,-2.66,-3.02,4.32,4.32,4.31
29.48,7.04,2.73,7.04,2.73,-2.74,-2.68,-3.06,4.30,4.30,4.31
29.78,7.06,2.76,7.06,2.76,-2.77,-2.69,-3.10,4.29,4.29,4.30
30.08,7.08,2.79,7.07,2.79,-2.80,-2.71,-3.13,4.28,4.28,4.28
30.38,7.09,2.83,7.09,2.83,-2.83,-2.73,-3.16,4.26,4.26,4.26
30.68,7.11,2.86,7.11,2.86,-2.86,-2.74,-3.19,4.25,4.25,4.25
30.99,7.13,2.90,7.12,2.89,-2.89,-2.76,-3.21,4.24,4.24,4.23
31.30,7.13,2.91,7.13,2.91,-2.91,-2.78,-3.23,4.22,4.22,4.22
31.61,7.14,2.93,7.14,2.94,-2.94,-2.79,-3.24,4.20,4.20,4.20
31.93,7.14,2.96,7.14,2.96,-2.96,-2.81,-3.26,4.18,4.18,4.18
32.24,7.14,2.99,7.14,2.98,-2.98,-2.83,-3.27,4.15,4.15,4.15
32.57,7.14,3.00,7.14,3.00,-3.01,-2.85,-3.27,4.13,4.13,4.14
32.89,7.14,3.01,7.14,3.03,-3.03,-2.86,-3.27,4.11,4.11,4.12
33.22,7.15,3.06,7.14,3.05,-3.05,-2.88,-3.27,4.10,4.10,4.09
33.55,7.15,3.07,7.15,3.07,-3.07,-2.90,-3.27,4.08,4.08,4.08
33.89,7.15,3.09,7.15,3.10,-3.09,-2.92,-3.26,4.05,4.06,4.05
34.23,7.15,3.12,7.15,3.12,-3.12,-2.94,-3.26,4.03,4.03,4.03
34.57,7.15,3.14,7.15,3.14,-3.14,-2.96,-3.25,4.01,4.01,4.01
34.92,7.15,3.16,7.15,3.16,-3.16,-2.98,-3.24,3.99,3.99,3.99
35.27,7.15,3.18,7.15,3.18,-3.18,-3.01,-3.22,3.97,3.97,3.97
35.62,7.16,3.21,7.15,3.20,-3.20,-3.03,-3.21,3.95,3.95,3.95
35.97,7.15,3.22,7.15,3.22,-3.22,-3.05,-3.20,3.92,3.93,3.92
36.33,7.16,3.25,7.15,3.25,-3.25,-3.07,-3.18,3.91,3.91,3.91
36.70,7.15,3.26,7.15,3.27,-3.27,-3.09,-3.17,3.88,3.89,3.89
37.06,7.16,3.29,7.15,3.29,-3.29,-3.11,-3.15,3.87,3.87,3.86
37.43,7.16,3.31,7.15,3.31,-3.31,-3.14,-3.14,3.85,3.85,3.85
37.81,7.15,3.32,7.15,3.33,-3.33,-3.16,-3.12,3.82,3.83,3.82
38.19,7.16,3.36,7.15,3.35,-3.35,-3.18,-3.11,3.81,3.80,3.80
38.57,7.15,3.36,7.15,3.37,-3.37,-3.20,-3.09,3.78,3.78,3.79
38.95,7.15,3.39,7.15,3.39,-3.39,-3.23,-3.08,3.76,3.76,3.76
39.34,7.15,3.41,7.14,3.41,-3.41,-3.25,-3.07,3.74,3.74,3.74
39.74,7.14,3.43,7.14,3.42,-3.42,-3.27,-3.06,3.72,3.72,3.71
40.14,7.14,3.43,7.14,3.44,-3.44,-3.29,-3.05,3.70,3.70,3.71
40.54,7.13,3.45,7.13,3.45,-3.45,-3.31,-3.05,3.68,3.68,3.68
40.94,7.13,3.46,7.13,3.46,-3.46,-3.34,-3.04,3.67,3.66,3.66
41.35,7.12,3.48,7.12,3.48,-3.47,-3.36,-3.04,3.64,3.65,3.64
41.76,7.12,3.49,7.12,3.49,-3.48,-3.38,-3.04,3.63,3.63,3.63
42.18,7.11,3.49,7.11,3.49,-3.50,-3.40,-3.04,3.61,3.61,3.61
42.60,7.10,3.51,7.10,3.50,-3.51,-3.42,-3.05,3.59,3.59,3.59
43.03,7.09,3.51,7.09,3.52,-3.52,-3.44,-3.05,3.56,3.57,3.58
43.46,7.09,3.53,7.09,3.54,-3.54,-3.46,-3.06,3.55,3.55,3.55
43.90,7.09,3.56,7.09,3.56,-3.56,-3.48,-3.07,3.53,3.53,3.53
44.33,7.09,3.58,7.08,3.58,-3.57,-3.50,-3.09,3.52,3.51,3.51
44.78,7.08,3.59,7.08,3.59,-3.59,-3.51,-3.10,3.49,3.49,3.49
45.23,7.07,3.61,7.07,3.61,-3.60,-3.53,-3.12,3.46,3.47,3.46
45.68,7.07,3.62,7.07,3.62,-3.62,-3.55,-3.14,3.45,3.45,3.44
46.13,7.07,3.64,7.06,3.64,-3.63,-3.57,-3.16,3.44,3.43,3.42
46.60,7.06,3.64,7.06,3.65,-3.64,-3.59,-3.18,3.41,3.41,3.42
47.06,7.05,3.65,7.05,3.66,-3.66,-3.60,-3.21,3.39,3.39,3.40
47.53,7.05,3.67,7.04,3.66,-3.67,-3.62,-3.24,3.38,3.37,3.38
48.01,7.04,3.67,7.04,3.68,-3.68,-3.64,-3.27,3.35,3.35,3.37
48.49,7.03,3.69,7.03,3.69,-3.70,-3.65,-3.30,3.33,3.33,3.34
48.97,7.02,3.71,7.02,3.71,-3.71,-3.67,-3.34,3.30,3.30,3.30
49.46,7.01,3.74,7.01,3.74,-3.73,-3.69,-3.38,3.28,3.28,3.27
49.96,7.00,3.76,7.00,3.75,-3.75,-3.70,-3.41,3.25,3.25,3.24
50.46,7.00,3.76,6.99,3.76,-3.76,-3.72,-3.45,3.23,3.23,3.24
50.96,6.99,3.77,6.99,3.78,-3.78,-3.74,-3.49,3.21,3.21,3.22
51.47,6.99,3.80,6.98,3.80,-3.80,-3.75,-3.54,3.19,3.19,3.18
51.99,6.98,3.82,6.98,3.81,-3.81,-3.77,-3.58,3.16,3.16,3.16
52.51,6.97,3.82,6.97,3.83,-3.83,-3.79,-3.62,3.14,3.14,3.15
53.03,6.97,3.85,6.97,3.85,-3.85,-3.81,-3.67,3.12,3.12,3.12
53.56,6.97,3.87,6.97,3.87,-3.87,-3.82,-3.71,3.10,3.10,3.10
54.10,6.97,3.90,6.96,3.89,-3.89,-3.84,-3.76,3.08,3.07,3.07
54.64,6.95,3.90,6.95,3.91,-3.91,-3.86,-3.80,3.04,3.04,3.04
55.18,6.95,3.93,6.95,3.93,-3.93,-3.88,-3.85,3.01,3.02,3.02
55.74,6.95,3.96,6.95,3.95,-3.96,-3.90,-3.89,2.99,2.99,2.99
56.29,6.95,3.97,6.95,3.98,-3.98,-3.92,-3.94,2.97,2.97,2.97
56.86,6.95,4.00,6.95,4.00,-4.00,-3.94,-3.98,2.95,2.95,2.95
57.42,6.94,4.02,6.94,4.02,-4.02,-3.96,-4.02,2.92,2.92,2.92
58.00,6.94,4.04,6.94,4.04,-4.04,-3.98,-4.06,2.90,2.90,2.90
58.58,6.93,4.06,6.93,4.06,-4.05,-4.00,-4.09,2.88,2.87,2.87
59.16,6.92,4.07,6.92,4.07,-4.07,-4.02,-4.13,2.85,2.85,2.85
59.76,6.91,4.08,6.91,4.08,-4.09,-4.04,-4.16,2.82,2.82,2.83
60.35,6.90,4.10,6.90,4.10,-4.11,-4.07,-4.19,2.79,2.79,2.79
60.96,6.89,4.11,6.89,4.12,-4.12,-4.09,-4.22,2.76,2.76,2.78
61.57,6.88,4.14,6.88,4.14,-4.14,-4.11,-4.24,2.73,2.74,2.74
62.18,6.88,4.17,6.88,4.17,-4.16,-4.13,-4.27,2.71,2.71,2.70
62.80,6.87,4.19,6.87,4.19,-4.18,-4.16,-4.28,2.69,2.68,2.68
63.43,6.86,4.21,6.86,4.21,-4.20,-4.18,-4.30,2.66,2.66,2.65
64.07,6.84,4.22,6.85,4.22,-4.22,-4.21,-4.31,2.62,2.63,2.62
64.71,6.84,4.24,6.83,4.23,-4.24,-4.23,-4.32,2.60,2.60,2.60
65.35,6.83,4.25,6.82,4.25,-4.25,-4.26,-4.33,2.58,2.57,2.58
66.01,6.81,4.25,6.82,4.26,-4.26,-4.28,-4.34,2.54,2.55,2.56
66.67,6.81,4.28,6.80,4.27,-4.28,-4.31,-4.34,2.53,2.53,2.53
67.33,6.80,4.29,6.80,4.29,-4.29,-4.33,-4.34,2.51,2.50,2.51
68.01,6.79,4.31,6.79,4.31,-4.31,-4.36,-4.34,2.48,2.48,2.48
68.69,6.78,4.32,6.78,4.32,-4.32,-4.39,-4.34,2.46,2.46,2.46
69.37,6.77,4.34,6.77,4.34,-4.34,-4.41,-4.34,2.43,2.43,2.42
70.07,6.76,4.36,6.76,4.36,-4.36,-4.44,-4.33,2.40,2.40,2.40
70.77,6.75,4.37,6.75,4.37,-4.37,-4.47,-4.33,2.37,2.37,2.38
71.48,6.74,4.39,6.74,4.39,-4.39,-4.50,-4.32,2.35,2.34,2.34
72.19,6.72,4.40,6.72,4.41,-4.41,-4.52,-4.32,2.31,2.31,2.32
72.91,6.72,4.44,6.71,4.43,-4.43,-4.55,-4.31,2.29,2.28,2.28
73.64,6.70,4.45,6.70,4.45,-4.45,-4.58,-4.31,2.25,2.25,2.25
74.38,6.68,4.46,6.68,4.47,-4.47,-4.61,-4.31,2.21,2.22,2.22
75.12,6.67,4.50,6.66,4.49,-4.49,-4.64,-4.31,2.18,2.18,2.17
75.87,6.65,4.51,6.65,4.50,-4.50,-4.67,-4.31,2.14,2.14,2.14
76.63,6.63,4.52,6.63,4.53,-4.52,-4.70,-4.31,2.11,2.11,2.11
77.40,6.61,4.54,6.61,4.54,-4.54,-4.73,-4.31,2.07,2.07,2.07
78.17,6.59,4.57,6.59,4.56,-4.56,-4.76,-4.32,2.03,2.03,2.02
78.95,6.57,4.57,6.57,4.58,-4.58,-4.79,-4.33,1.99,1.99,1.99
79.74,6.55,4.60,6.55,4.60,-4.60,-4.82,-4.34,1.95,1.95,1.95
80.54,6.53,4.62,6.53,4.62,-4.63,-4.85,-4.35,1.90,1.90,1.91
81.35,6.52,4.66,6.51,4.65,-4.65,-4.88,-4.36,1.86,1.86,1.86
82.16,6.50,4.68,6.50,4.68,-4.68,-4.91,-4.38,1.81,1.82,1.82
82.98,6.49,4.71,6.48,4.71,-4.71,-4.94,-4.41,1.77,1.77,1.78
83.81,6.47,4.74,6.47,4.74,-4.74,-4.97,-4.43,1.72,1.72,1.72
84.65,6.45,4.77,6.45,4.77,-4.77,-5.00,-4.46,1.67,1.68,1.68
85.50,6.44,4.80,6.43,4.80,-4.80,-5.03,-4.49,1.64,1.63,1.64
86.35,6.42,4.83,6.42,4.83,-4.82,-5.06,-4.52,1.59,1.59,1.59
87.22,6.39,4.85,6.39,4.85,-4.84,-5.10,-4.56,1.55,1.55,1.54
88.09,6.36,4.87,6.35,4.86,-4.85,-5.13,-4.60,1.50,1.50,1.49
88.97,6.31,4.86,6.31,4.87,-4.86,-5.16,-4.65,1.45,1.45,1.45
89.86,6.26,4.86,6.26,4.87,-4.86,-5.19,-4.70,1.39,1.40,1.39
90.76,6.21,4.88,6.20,4.87,-4.86,-5.23,-4.75,1.34,1.34,1.33
91.66,6.15,4.86,6.15,4.86,-4.86,-5.26,-4.80,1.28,1.29,1.29
92.58,6.10,4.87,6.10,4.86,-4.86,-5.29,-4.86,1.23,1.23,1.23
93.51,6.05,4.85,6.05,4.86,-4.87,-5.32,-4.93,1.18,1.18,1.19
94.44,6.02,4.88,6.01,4.88,-4.89,-5.36,-4.99,1.13,1.13,1.14
95.39,5.98,4.89,5.98,4.89,-4.91,-5.39,-5.06,1.07,1.07,1.08
96.34,5.95,4.93,5.95,4.93,-4.94,-5.43,-5.13,1.01,1.02,1.02
97.30,5.93,4.96,5.93,4.97,-4.97,-5.46,-5.21,0.96,0.96,0.97
98.28,5.93,5.02,5.92,5.02,-5.02,-5.49,-5.28,0.91,0.91,0.91
99.26,5.92,5.07,5.92,5.07,-5.06,-5.53,-5.36,0.85,0.85,0.84
100.25,5.91,5.12,5.91,5.12,-5.11,-5.56,-5.44,0.79,0.79,0.79
101.25,5.90,5.17,5.90,5.17,-5.17,-5.60,-5.53,0.73,0.73,0.73
102.27,5.89,5.22,5.89,5.22,-5.22,-5.63,-5.61,0.67,0.67,0.67
103.29,5.88,5.28,5.88,5.27,-5.27,-5.67,-5.70,0.61,0.61,0.60
104.32,5.87,5.32,5.87,5.32,-5.32,-5.70,-5.79,0.55,0.55,0.54
105.37,5.86,5.37,5.85,5.37,-5.37,-5.74,-5.88,0.49,0.48,0.49
106.42,5.84,5.42,5.84,5.42,-5.43,-5.77,-5.97,0.41,0.42,0.42
107.48,5.83,5.47,5.83,5.48,-5.48,-5.81,-6.06,0.35,0.35,0.35
108.56,5.83,5.54,5.82,5.54,-5.54,-5.84,-6.14,0.29,0.29,0.29
109.64,5.82,5.60,5.82,5.59,-5.59,-5.88,-6.23,0.22,0.23,0.22
110.74,5.82,5.65,5.82,5.65,-5.65,-5.92,-6.32,0.16,0.16,0.17
111.85,5.81,5.71,5.81,5.72,-5.72,-5.95,-6.40,0.09,0.09,0.10
112.97,5.81,5.79,5.80,5.78,-5.78,-5.99,-6.48,0.03,0.02,0.02
114.10,5.80,5.84,5.80,5.84,-5.84,-6.03,-6.56,-0.05,-0.04,-0.04
115.24,5.80,5.90,5.80,5.91,-5.91,-6.06,-6.63,-0.11,-0.11,-0.10
116.39,5.80,5.98,5.79,5.97,-5.97,-6.10,-6.70,-0.17,-0.18,-0.18
117.55,5.79,6.03,5.79,6.03,-6.03,-6.14,-6.76,-0.24,-0.24,-0.24
118.73,5.79,6.09,5.79,6.09,-6.09,-6.17,-6.82,-0.30,-0.30,-0.31
119.92,5.79,6.15,5.78,6.15,-6.15,-6.21,-6.87,-0.36,-0.36,-0.36
121.12,5.78,6.20,5.78,6.20,-6.20,-6.25,-6.92,-0.43,-0.42,-0.42
122.33,5.78,6.26,5.78,6.26,-6.26,-6.29,-6.96,-0.48,-0.48,-0.49
123.55,5.77,6.31,5.77,6.31,-6.31,-6.32,-6.99,-0.54,-0.54,-0.54
124.79,5.77,6.37,5.77,6.36,-6.37,-6.36,-7.01,-0.60,-0.60,-0.60
126.03,5.76,6.41,5.76,6.41,-6.42,-6.40,-7.03,-0.66,-0.66,-0.65
127.29,5.76,6.47,5.76,6.47,-6.47,-6.43,-7.04,-0.71,-0.71,-0.71
128.57,5.75,6.53,5.75,6.52,-6.52,-6.47,-7.05,-0.77,-0.77,-0.78
129.85,5.75,6.57,5.75,6.57,-6.57,-6.51,-7.04,-0.82,-0.82,-0.83
131.15,5.74,6.61,5.74,6.62,-6.61,-6.55,-7.03,-0.88,-0.87,-0.88
132.46,5.74,6.67,5.74,6.66,-6.66,-6.58,-7.02,-0.92,-0.92,-0.93
133.79,5.73,6.70,5.73,6.70,-6.70,-6.62,-7.00,-0.97,-0.98,-0.97
135.12,5.72,6.74,5.72,6.74,-6.74,-6.66,-6.97,-1.02,-1.02,-1.02
136.48,5.71,6.77,5.71,6.77,-6.78,-6.69,-6.94,-1.07,-1.07,-1.06
137.84,5.71,6.80,5.71,6.81,-6.81,-6.73,-6.91,-1.10,-1.11,-1.09
139.22,5.71,6.86,5.70,6.85,-6.84,-6.76,-6.87,-1.14,-1.14,-1.15
140.61,5.70,6.89,5.70,6.88,-6.87,-6.80,-6.83,-1.18,-1.17,-1.19
142.02,5.70,6.90,5.69,6.90,-6.90,-6.83,-6.79,-1.21,-1.21,-1.20
143.44,5.69,6.92,5.69,6.93,-6.93,-6.87,-6.75,-1.24,-1.24,-1.23
144.87,5.68,6.95,5.68,6.95,-6.96,-6.90,-6.70,-1.28,-1.27,-1.27
146.32,5.69,6.99,5.68,6.98,-6.98,-6.93,-6.66,-1.29,-1.30,-1.30
147.78,5.67,6.99,5.67,7.00,-7.00,-6.97,-6.61,-1.33,-1.33,-1.32
149.26,5.67,7.02,5.67,7.02,-7.02,-7.00,-6.57,-1.35,-1.35,-1.35
150.75,5.66,7.05,5.66,7.04,-7.04,-7.03,-6.53,-1.38,-1.38,-1.39
152.26,5.65,7.06,5.65,7.06,-7.06,-7.06,-6.49,-1.41,-1.41,-1.41
153.78,5.64,7.08,5.64,7.08,-7.08,-7.09,-6.45,-1.44,-1.44,-1.44
155.32,5.63,7.09,5.63,7.09,-7.10,-7.12,-6.41,-1.47,-1.47,-1.46
156.88,5.62,7.11,5.62,7.11,-7.12,-7.15,-6.38,-1.50,-1.50,-1.49
158.44,5.61,7.13,5.61,7.13,-7.14,-7.18,-6.35,-1.53,-1.52,-1.52
160.03,5.61,7.16,5.60,7.16,-7.16,-7.20,-6.32,-1.55,-1.55,-1.55
161.63,5.60,7.18,5.60,7.18,-7.18,-7.23,-6.30,-1.58,-1.58,-1.59
163.24,5.60,7.20,5.60,7.20,-7.20,-7.25,-6.28,-1.60,-1.60,-1.61
164.88,5.60,7.22,5.59,7.22,-7.22,-7.28,-6.27,-1.63,-1.63,-1.63
166.53,5.59,7.24,5.59,7.25,-7.25,-7.30,-6.26,-1.66,-1.66,-1.65
168.19,5.59,7.28,5.59,7.27,-7.27,-7.32,-6.25,-1.68,-1.69,-1.69
169.87,5.58,7.30,5.58,7.30,-7.30,-7.34,-6.25,-1.72,-1.72,-1.72
171.57,5.58,7.33,5.57,7.32,-7.33,-7.36,-6.25,-1.75,-1.75,-1.75
173.29,5.57,7.34,5.57,7.35,-7.35,-7.38,-6.26,-1.79,-1.78,-1.77
175.02,5.57,7.38,5.57,7.38,-7.38,-7.39,-6.27,-1.82,-1.82,-1.81
176.77,5.57,7.42,5.57,7.42,-7.42,-7.41,-6.29,-1.85,-1.85,-1.85
178.54,5.57,7.46,5.57,7.45,-7.45,-7.42,-6.31,-1.88,-1.88,-1.89
180.32,5.56,7.48,5.56,7.48,-7.48,-7.43,-6.34,-1.92,-1.92,-1.92
182.13,5.56,7.51,5.56,7.51,-7.51,-7.44,-6.37,-1.96,-1.96,-1.95
183.95,5.55,7.54,5.55,7.54,-7.54,-7.45,-6.40,-2.00,-1.99,-2.00
185.79,5.55,7.57,5.54,7.57,-7.57,-7.46,-6.45,-2.02,-2.03,-2.03
187.65,5.54,7.61,5.54,7.60,-7.60,-7.46,-6.49,-2.06,-2.06,-2.07
189.52,5.52,7.62,5.53,7.62,-7.62,-7.47,-6.54,-2.10,-2.09,-2.10
191.42,5.52,7.65,5.51,7.64,-7.64,-7.47,-6.59,-2.12,-2.12,-2.13
193.33,5.50,7.64,5.50,7.64,-7.65,-7.47,-6.65,-2.15,-2.15,-2.15
195.27,5.48,7.65,5.48,7.66,-7.66,-7.47,-6.71,-2.18,-2.18,-2.17
197.22,5.46,7.66,5.46,7.67,-7.67,-7.46,-6.78,-2.21,-2.21,-2.20
199.19,5.44,7.69,5.44,7.68,-7.67,-7.46,-6.84,-2.23,-2.23,-2.25
201.18,5.42,7.68,5.41,7.68,-7.67,-7.45,-6.92,-2.26,-2.26,-2.27
203.19,5.39,7.67,5.39,7.68,-7.67,-7.44,-6.99,-2.28,-2.28,-2.28
205.23,5.36,7.67,5.36,7.66,-7.67,-7.43,-7.07,-2.31,-2.31,-2.31
207.28,5.34,7.65,5.33,7.65,-7.66,-7.42,-7.14,-2.32,-2.33,-2.31
209.35,5.30,7.65,5.30,7.65,-7.65,-7.40,-7.22,-2.35,-2.35,-2.35
211.44,5.28,7.65,5.28,7.64,-7.64,-7.39,-7.30,-2.36,-2.36,-2.37
213.56,5.25,7.63,5.24,7.63,-7.63,-7.37,-7.38,-2.38,-2.38,-2.39
215.69,5.22,7.61,5.22,7.61,-7.62,-7.35,-7.46,-2.40,-2.40,-2.39
217.85,5.19,7.59,5.19,7.60,-7.61,-7.33,-7.54,-2.42,-2.41,-2.40
220.03,5.18,7.60,5.17,7.59,-7.60,-7.30,-7.61,-2.42,-2.42,-2.42
222.23,5.16,7.59,5.16,7.59,-7.58,-7.28,-7.69,-2.42,-2.42,-2.44
224.45,5.14,7.56,5.14,7.57,-7.56,-7.25,-7.76,-2.42,-2.43,-2.43
226.70,5.11,7.55,5.11,7.55,-7.54,-7.22,-7.82,-2.44,-2.43,-2.44
228.96,5.09,7.53,5.09,7.52,-7.52,-7.19,-7.88,-2.43,-2.44,-2.44
231.25,5.06,7.49,5.06,7.49,-7.50,-7.15,-7.92,-2.44,-2.44,-2.43
233.57,5.04,7.46,5.04,7.46,-7.46,-7.12,-7.97,-2.43,-2.43,-2.42
235.90,5.01,7.43,5.01,7.43,-7.43,-7.08,-8.00,-2.42,-2.42,-2.42
238.26,4.99,7.41,4.98,7.40,-7.39,-7.04,-8.03,-2.40,-2.41,-2.42
240.64,4.95,7.35,4.95,7.35,-7.35,-7.00,-8.04,-2.40,-2.40,-2.40
243.05,4.92,7.30,4.91,7.30,-7.30,-6.95,-8.04,-2.38,-2.39,-2.39
245.48,4.87,7.23,4.87,7.24,-7.25,-6.91,-8.03,-2.38,-2.37,-2.36
247.93,4.84,7.19,4.84,7.19,-7.19,-6.86,-8.01,-2.35,-2.35,-2.35
250.41,4.80,7.14,4.79,7.13,-7.12,-6.81,-7.98,-2.33,-2.33,-2.34
252.92,4.75,7.06,4.75,7.06,-7.06,-6.76,-7.94,-2.31,-2.31,-2.31
255.45,4.69,6.97,4.69,6.98,-6.98,-6.70,-7.88,-2.29,-2.29,-2.29
258.00,4.64,6.90,4.64,6.90,-6.91,-6.65,-7.81,-2.27,-2.27,-2.26
260.58,4.58,6.83,4.58,6.82,-6.83,-6.59,-7.73,-2.25,-2.25,-2.25
263.19,4.52,6.74,4.52,6.75,-6.74,-6.53,-7.64,-2.22,-2.22,-2.23
265.82,4.46,6.66,4.45,6.66,-6.65,-6.47,-7.53,-2.20,-2.20,-2.20
268.48,4.39,6.57,4.39,6.56,-6.56,-6.41,-7.42,-2.18,-2.18,-2.18
271.16,4.32,6.46,4.32,6.47,-6.47,-6.35,-7.30,-2.15,-2.15,-2.14
273.87,4.25,6.38,4.25,6.37,-6.38,-6.28,-7.17,-2.13,-2.13,-2.13
276.61,4.18,6.27,4.18,6.28,-6.28,-6.21,-7.03,-2.10,-2.10,-2.10
279.38,4.11,6.19,4.10,6.18,-6.18,-6.15,-6.89,-2.07,-2.08,-2.08
282.17,4.02,6.07,4.02,6.08,-6.08,-6.07,-6.74,-2.06,-2.05,-2.06
284.99,3.94,5.97,3.94,5.97,-5.97,-6.00,-6.59,-2.03,-2.03,-2.03
287.84,3.86,5.86,3.86,5.86,-5.86,-5.93,-6.43,-2.01,-2.00,-2.01
290.72,3.79,5.76,3.78,5.76,-5.76,-5.85,-6.27,-1.97,-1.98,-1.97
293.63,3.70,5.65,3.70,5.65,-5.64,-5.77,-6.10,-1.95,-1.95,-1.95
296.57,3.61,5.53,3.61,5.53,-5.53,-5.69,-5.94,-1.92,-1.92,-1.92
299.53,3.53,5.42,3.52,5.42,-5.42,-5.61,-5.77,-1.89,-1.89,-1.89
302.53,3.44,5.30,3.44,5.30,-5.30,-5.53,-5.61,-1.86,-1.86,-1.87
305.55,3.36,5.18,3.36,5.19,-5.18,-5.44,-5.44,-1.83,-1.83,-1.82
308.61,3.28,5.07,3.27,5.07,-5.07,-5.36,-5.28,-1.79,-1.79,-1.79
311.69,3.19,4.95,3.19,4.95,-4.95,-5.27,-5.11,-1.76,-1.76,-1.76
314.81,3.11,4.83,3.11,4.83,-4.83,-5.18,-4.95,-1.72,-1.73,-1.72
317.96,3.02,4.71,3.02,4.71,-4.72,-5.08,-4.78,-1.70,-1.70,-1.69
321.14,2.94,4.61,2.94,4.60,-4.60,-4.99,-4.62,-1.66,-1.66,-1.67
324.35,2.85,4.49,2.85,4.49,-4.49,-4.89,-4.46,-1.64,-1.64,-1.64
327.59,2.77,4.37,2.76,4.37,-4.37,-4.79,-4.30,-1.60,-1.61,-1.60
330.87,2.68,4.25,2.68,4.26,-4.26,-4.69,-4.15,-1.58,-1.58,-1.58
334.18,2.59,4.15,2.59,4.15,-4.15,-4.58,-3.99,-1.56,-1.56,-1.56
337.52,2.51,4.04,2.51,4.04,-4.04,-4.48,-3.84,-1.53,-1.53,-1.53
340.90,2.42,3.92,2.42,3.92,-3.92,-4.37,-3.69,-1.51,-1.51,-1.50
344.30,2.33,3.81,2.33,3.81,-3.81,-4.26,-3.54,-1.48,-1.48,-1.49
347.75,2.23,3.69,2.24,3.70,-3.70,-4.14,-3.40,-1.47,-1.46,-1.46
351.23,2.15,3.59,2.14,3.58,-3.58,-4.03,-3.26,-1.43,-1.44,-1.44
354.74,2.05,3.47,2.04,3.47,-3.46,-3.91,-3.11,-1.42,-1.42,-1.42
358.28,1.94,3.34,1.94,3.35,-3.35,-3.79,-2.98,-1.41,-1.40,-1.41
361.87,1.84,3.23,1.84,3.22,-3.23,-3.66,-2.84,-1.39,-1.39,-1.39
365.49,1.74,3.10,1.74,3.10,-3.11,-3.53,-2.71,-1.37,-1.37,-1.36
369.14,1.64,2.99,1.64,2.99,-2.99,-3.40,-2.58,-1.35,-1.35,-1.35
372.83,1.53,2.86,1.53,2.86,-2.86,-3.27,-2.45,-1.34,-1.33,-1.33
376.56,1.44,2.75,1.43,2.75,-2.74,-3.13,-2.32,-1.31,-1.31,-1.31
380.33,1.33,2.61,1.33,2.62,-2.62,-2.99,-2.19,-1.29,-1.29,-1.29
384.13,1.24,2.51,1.23,2.50,-2.50,-2.85,-2.07,-1.26,-1.27,-1.27
387.97,1.13,2.38,1.13,2.38,-2.38,-2.70,-1.95,-1.25,-1.25,-1.25
391.85,1.03,2.26,1.03,2.26,-2.26,-2.55,-1.83,-1.23,-1.23,-1.23
395.77,0.93,2.13,0.93,2.14,-2.14,-2.40,-1.72,-1.21,-1.21,-1.20
399.73,0.84,2.02,0.83,2.02,-2.02,-2.24,-1.60,-1.18,-1.18,-1.18
403.72,0.73,1.89,0.73,1.89,-1.89,-2.08,-1.49,-1.17,-1.16,-1.17
407.76,0.63,1.77,0.63,1.77,-1.77,-1.92,-1.38,-1.14,-1.14,-1.15
411.84,0.52,1.64,0.52,1.64,-1.64,-1.75,-1.27,-1.13,-1.12,-1.12
415.96,0.42,1.52,0.42,1.52,-1.52,-1.58,-1.17,-1.10,-1.10,-1.10
420.12,0.32,1.40,0.31,1.39,-1.39,-1.41,-1.06,-1.07,-1.07,-1.08
424.32,0.21,1.26,0.20,1.26,-1.26,-1.24,-0.96,-1.05,-1.05,-1.05
428.56,0.09,1.12,0.09,1.12,-1.12,-1.06,-0.87,-1.04,-1.03,-1.03
432.85,-0.02,0.99,-0.02,0.99,-0.99,-0.89,-0.77,-1.01,-1.01,-1.01
437.18,-0.13,0.85,-0.13,0.85,-0.86,-0.71,-0.68,-0.99,-0.99,-0.98
441.55,-0.23,0.72,-0.24,0.73,-0.72,-0.54,-0.59,-0.95,-0.96,-0.96
445.96,-0.34,0.59,-0.34,0.59,-0.59,-0.37,-0.50,-0.93,-0.93,-0.94
450.42,-0.45,0.47,-0.45,0.46,-0.45,-0.20,-0.42,-0.91,-0.91,-0.92
454.93,-0.56,0.32,-0.56,0.33,-0.33,-0.03,-0.34,-0.89,-0.89,-0.88
459.48,-0.66,0.20,-0.66,0.20,-0.20,0.13,-0.26,-0.87,-0.86,-0.86
464.07,-0.75,0.08,-0.75,0.07,-0.08,0.28,-0.19,-0.84,-0.84,-0.83
468.71,-0.83,-0.04,-0.83,-0.04,0.03,0.43,-0.12,-0.80,-0.80,-0.79
473.40,-0.91,-0.14,-0.91,-0.14,0.14,0.57,-0.05,-0.77,-0.77,-0.77
478.13,-0.98,-0.24,-0.98,-0.24,0.24,0.69,0.01,-0.74,-0.74,-0.74
482.91,-1.05,-0.34,-1.05,-0.34,0.35,0.81,0.07,-0.71,-0.71,-0.71
487.74,-1.12,-0.44,-1.12,-0.44,0.45,0.91,0.12,-0.68,-0.68,-0.68
492.62,-1.19,-0.54,-1.19,-0.54,0.54,0.99,0.17,-0.65,-0.65,-0.65
497.55,-1.26,-0.63,-1.26,-0.63,0.64,1.07,0.22,-0.62,-0.62,-0.63
502.52,-1.33,-0.74,-1.33,-0.73,0.74,1.13,0.26,-0.59,-0.60,-0.60
