frequency,raw
20.00,3.46
20.20,3.44
20.40,3.41
20.61,3.39
20.81,3.36
21.02,3.33
21.23,3.31
21.44,3.27
21.66,3.24
21.87,3.21
22.09,3.19
22.31,3.17
22.54,3.14
22.76,3.14
22.99,3.12
23.22,3.10
23.45,3.09
23.69,3.07
23.92,3.05
24.16,3.03
24.40,3.00
24.65,2.98
24.89,2.96
25.14,2.94
25.39,2.92
25.65,2.90
25.91,2.88
26.16,2.85
26.43,2.83
26.69,2.81
26.96,2.78
27.23,2.76
27.50,2.72
27.77,2.70
28.05,2.68
28.33,2.65
28.62,2.63
28.90,2.60
29.19,2.56
29.48,2.54
29.78,2.51
30.08,2.48
30.38,2.43
30.68,2.40
30.99,2.37
31.30,2.32
31.61,2.28
31.93,2.23
32.24,2.18
32.57,2.15
32.89,2.10
33.22,2.06
33.55,2.01
33.89,1.96
34.23,1.92
34.57,1.88
34.92,1.84
35.27,1.80
35.62,1.76
35.97,1.72
36.33,1.69
36.70,1.65
37.06,1.62
37.43,1.58
37.81,1.54
38.19,1.51
38.57,1.47
38.95,1.44
39.34,1.41
39.74,1.37
40.14,1.34
40.54,1.30
40.94,1.28
41.35,1.24
41.76,1.22
42.18,1.18
42.60,1.15
43.03,1.12
43.46,1.09
43.90,1.06
44.33,1.03
44.78,1.00
45.23,0.98
45.68,0.94
46.13,0.92
46.60,0.90
47.06,0.87
47.53,0.84
48.01,0.82
48.49,0.79
48.97,0.76
49.46,0.74
49.96,0.71
50.46,0.69
50.96,0.67
51.47,0.64
51.99,0.62
52.51,0.59
53.03,0.57
53.56,0.55
54.10,0.53
54.64,0.50
55.18,0.47
55.74,0.45
56.29,0.43
56.86,0.41
57.42,0.38
58.00,0.36
58.58,0.33
59.16,0.31
59.76,0.28
60.35,0.25
60.96,0.22
61.57,0.19
62.18,0.16
62.80,0.13
63.43,0.09
64.07,0.05
64.71,0.02
65.35,-0.03
66.01,-0.07
66.67,-0.11
67.33,-0.16
68.01,-0.21
68.69,-0.26
69.37,-0.32
70.07,-0.38
70.77,-0.44
71.48,-0.49
72.19,-0.56
72.91,-0.62
73.64,-0.69
74.38,-0.76
75.12,-0.83
75.87,-0.90
76.63,-0.97
77.40,-1.04
78.17,-1.10
78.95,-1.17
79.74,-1.23
80.54,-1.30
81.35,-1.35
82.16,-1.41
82.98,-1.47
83.81,-1.52
84.65,-1.58
85.50,-1.62
86.35,-1.67
87.22,-1.71
88.09,-1.74
88.97,-1.78
89.86,-1.81
90.76,-1.84
91.66,-1.87
92.58,-1.89
93.51,-1.91
94.44,-1.92
95.39,-1.93
96.34,-1.95
97.30,-1.96
98.28,-1.96
99.26,-1.97
100.25,-1.97
101.25,-1.97
102.27,-1.97
103.29,-1.96
104.32,-1.96
105.37,-1.95
106.42,-1.95
107.48,-1.94
108.56,-1.93
109.64,-1.92
110.74,-1.91
111.85,-1.90
112.97,-1.89
114.10,-1.87
115.24,-1.85
116.39,-1.84
117.55,-1.83
118.73,-1.81
119.92,-1.80
121.12,-1.78
122.33,-1.76
123.55,-1.74
124.79,-1.73
126.03,-1.71
127.29,-1.69
128.57,-1.67
129.85,-1.64
131.15,-1.63
132.46,-1.61
133.79,-1.59
135.12,-1.57
136.48,-1.55
137.84,-1.53
139.22,-1.51
140.61,-1.49
142.02,-1.46
143.44,-1.45
144.87,-1.43
146.32,-1.40
147.78,-1.39
149.26,-1.36
150.75,-1.35
152.26,-1.33
153.78,-1.31
155.32,-1.29
156.88,-1.27
158.44,-1.25
160.03,-1.23
161.63,-1.21
163.24,-1.19
164.88,-1.17
166.53,-1.15
168.19,-1.13
169.87,-1.11
171.57,-1.09
173.29,-1.07
175.02,-1.05
176.77,-1.03
178.54,-1.01
180.32,-0.99
182.13,-0.97
183.95,-0.96
185.79,-0.93
187.65,-0.91
189.52,-0.90
191.42,-0.88
193.33,-0.86
195.27,-0.85
197.22,-0.84
199.19,-0.82
201.18,-0.80
203.19,-0.80
205.23,-0.79
207.28,-0.78
209.35,-0.78
211.44,-0.77
213.56,-0.77
215.69,-0.76
217.85,-0.75
220.03,-0.74
222.23,-0.71
224.45,-0.69
226.70,-0.66
228.96,-0.62
231.25,-0.58
233.57,-0.53
235.90,-0.48
238.26,-0.43
240.64,-0.39
243.05,-0.34
245.48,-0.32
247.93,-0.29
250.41,-0.26
252.92,-0.26
255.45,-0.27
258.00,-0.28
260.58,-0.29
263.19,-0.32
265.82,-0.34
268.48,-0.36
271.16,-0.38
273.87,-0.42
276.61,-0.44
279.38,-0.46
282.17,-0.48
284.99,-0.51
287.84,-0.53
290.72,-0.54
293.63,-0.56
296.57,-0.58
299.53,-0.59
302.53,-0.61
305.55,-0.63
308.61,-0.64
311.69,-0.65
314.81,-0.67
317.96,-0.69
321.14,-0.70
324.35,-0.73
327.59,-0.74
330.87,-0.76
334.18,-0.79
337.52,-0.80
340.90,-0.83
344.30,-0.85
347.75,-0.88
351.23,-0.90
354.74,-0.92
358.28,-0.94
361.87,-0.96
365.49,-0.97
369.14,-0.99
372.83,-1.00
376.56,-1.00
380.33,-1.01
384.13,-1.02
387.97,-1.03
391.85,-1.03
395.77,-1.03
399.73,-1.03
403.72,-1.03
407.76,-1.03
411.84,-1.02
415.96,-1.00
420.12,-0.99
424.32,-0.98
428.56,-0.97
432.85,-0.95
437.18,-0.93
441.55,-0.91
445.96,-0.89
450.42,-0.89
454.93,-0.89
459.48,-0.88
464.07,-0.89
468.71,-0.88
473.40,-0.88
478.13,-0.87
482.91,-0.87
487.74,-0.86
492.62,-0.84
497.55,-0.83
502.52,-0.83
507.55,-0.81
512.62,-0.80
517.75,-0.78
522.93,-0.77
528.16,-0.75
533.44,-0.72
538.77,-0.71
544.16,-0.69
549.60,-0.67
555.10,-0.65
560.65,-0.63
566.25,-0.61
571.92,-0.58
577.64,-0.57
583.41,-0.55
589.25,-0.52
595.14,-0.50
601.09,-0.48
607.10,-0.46
613.17,-0.44
619.30,-0.42
625.50,-0.39
631.75,-0.38
638.07,-0.35
644.45,-0.33
650.89,-0.31
657.40,-0.29
663.98,-0.28
670.62,-0.26
677.32,-0.24
684.10,-0.23
690.94,-0.21
697.85,-0.19
704.83,-0.17
711.87,-0.16
718.99,-0.14
726.18,-0.14
733.44,-0.12
740.78,-0.12
748.19,-0.11
755.67,-0.09
763.23,-0.08
770.86,-0.08
778.57,-0.07
786.35,-0.06
794.22,-0.05
802.16,-0.05
810.18,-0.05
818.28,-0.04
826.46,-0.04
834.73,-0.04
843.08,-0.03
851.51,-0.03
860.02,-0.03
868.62,-0.02
877.31,-0.02
886.08,-0.02
894.94,-0.01
903.89,-0.01
912.93,-0.01
922.06,-0.01
931.28,-0.01
940.59,-0.00
950.00,0.00
959.50,-0.00
969.09,-0.00
978.78,0.00
988.57,0.00
998.46,0.00
1008.44,-0.00
1018.53,-0.00
1028.71,-0.00
1039.00,0.00
1049.39,0.00
1059.88,0.00
1070.48,0.00
1081.19,0.01
1092.00,0.01
1102.92,0.02
1113.95,0.02
1125.09,0.03
1136.34,0.03
1147.70,0.04
1159.18,0.04
1170.77,0.05
1182.48,0.07
1194.30,0.08
1206.25,0.10
1218.31,0.11
1230.49,0.12
1242.80,0.14
1255.22,0.18
1267.78,0.23
1280.45,0.28
1293.26,0.37
1306.19,0.48
1319.25,0.60
1332.45,0.75
1345.77,0.90
1359.23,1.06
1372.82,1.22
1386.55,1.37
1400.41,1.51
1414.42,1.63
1428.56,1.73
1442.85,1.82
1457.28,1.89
1471.85,1.95
1486.57,1.99
1501.43,2.03
1516.45,2.06
1531.61,2.09
1546.93,2.11
1562.40,2.13
1578.02,2.14
1593.80,2.15
1609.74,2.16
1625.84,2.18
1642.10,2.20
1658.52,2.23
1675.10,2.29
1691.85,2.36
1708.77,2.46
1725.86,2.58
1743.12,2.72
1760.55,2.87
1778.15,3.02
1795.94,3.19
1813.90,3.35
1832.03,3.51
1850.36,3.67
1868.86,3.83
1887.55,3.99
1906.42,4.16
1925.49,4.33
1944.74,4.50
1964.19,4.68
1983.83,4.85
2003.67,5.04
2023.71,5.23
2043.94,5.43
2064.38,5.63
2085.03,5.84
2105.88,6.05
2126.94,6.26
2148.20,6.48
2169.69,6.70
2191.38,6.92
2213.30,7.15
2235.43,7.36
2257.78,7.58
2280.36,7.79
2303.17,8.01
2326.20,8.24
2349.46,8.47
2372.95,8.72
2396.68,8.98
2420.65,9.24
2444.86,9.51
2469.31,9.78
2494.00,10.06
2518.94,10.32
2544.13,10.58
2569.57,10.82
2595.27,11.06
2621.22,11.29
2647.43,11.50
2673.90,11.71
2700.64,11.91
2727.65,12.10
2754.93,12.30
2782.48,12.48
2810.30,12.66
2838.40,12.84
2866.79,13.02
2895.46,13.18
2924.41,13.34
2953.65,13.50
2983.19,13.64
3013.02,13.78
3043.15,13.92
3073.58,14.04
3104.32,14.17
3135.36,14.29
3166.72,14.40
3198.38,14.50
3230.37,14.60
3262.67,14.68
3295.30,14.75
3328.25,14.80
3361.53,14.84
3395.15,14.86
3429.10,14.87
3463.39,14.87
3498.03,14.85
3533.01,14.82
3568.34,14.78
3604.02,14.73
3640.06,14.66
3676.46,14.58
3713.22,14.49
3750.36,14.38
3787.86,14.25
3825.74,14.10
3864.00,13.95
3902.64,13.77
3941.66,13.56
3981.08,13.34
4020.89,13.10
4061.10,12.86
4101.71,12.58
4142.73,12.31
4184.15,12.03
4226.00,11.73
4268.26,11.44
4310.94,11.15
4354.05,10.85
4397.59,10.55
4441.56,10.24
4485.98,9.94
4530.84,9.63
4576.15,9.31
4621.91,9.00
4668.13,8.66
4714.81,8.33
4761.96,7.99
4809.58,7.65
4857.67,7.33
4906.25,7.00
4955.31,6.71
5004.87,6.44
5054.91,6.18
5105.46,5.96
5156.52,5.76
5208.08,5.57
5260.16,5.41
5312.77,5.29
5365.89,5.20
5419.55,5.16
5473.75,5.19
5528.49,5.25
5583.77,5.36
5639.61,5.56
5696.00,5.79
5752.96,6.04
5810.49,6.33
5868.60,6.63
5927.28,6.93
5986.56,7.23
6046.42,7.50
6106.89,7.76
6167.96,7.98
6229.64,8.14
6291.93,8.24
6354.85,8.28
6418.40,8.19
6482.58,8.03
6547.41,7.80
6612.88,7.48
6679.01,7.15
6745.80,6.81
6813.26,6.51
6881.39,6.28
6950.21,6.09
7019.71,5.99
7089.91,5.96
7160.81,5.95
7232.41,5.96
7304.74,5.93
7377.79,5.86
7451.56,5.74
7526.08,5.54
7601.34,5.29
7677.35,5.00
7754.13,4.69
7831.67,4.39
7909.98,4.09
7989.08,3.82
8068.98,3.60
8149.67,3.39
8231.16,3.23
8313.47,3.09
8396.61,2.98
8480.57,2.87
8565.38,2.72
8651.03,2.58
8737.54,2.39
8824.92,2.16
8913.17,1.88
9002.30,1.57
9092.32,1.19
9183.25,0.76
9275.08,0.28
9367.83,-0.25
9461.51,-0.79
9556.12,-1.34
9651.68,-1.86
9748.20,-2.34
9845.68,-2.76
9944.14,-3.14
10043.58,-3.44
10144.02,-3.69
10245.46,-3.92
10347.91,-4.13
10451.39,-4.34
10555.91,-4.53
10661.46,-4.73
10768.08,-4.93
10875.76,-5.12
10984.52,-5.29
11094.36,-5.46
11205.31,-5.63
11317.36,-5.79
11430.53,-6.02
11544.84,-6.31
11660.29,-6.66
11776.89,-7.10
11894.66,-7.56
12013.60,-8.04
12133.74,-8.53
12255.08,-8.98
12377.63,-9.41
12501.41,-9.78
12626.42,-10.12
12752.68,-10.47
12880.21,-10.81
13009.01,-11.22
13139.10,-11.70
13270.49,-12.25
13403.20,-12.91
13537.23,-13.57
13672.60,-14.22
13809.33,-14.74
13947.42,-15.17
14086.90,-15.48
14227.77,-15.52
14370.04,-15.30
14513.74,-14.87
14658.88,-14.19
14805.47,-13.31
14953.52,-12.34
15103.06,-11.28
15254.09,-10.26
15406.63,-9.28
15560.70,-8.34
15716.30,-7.48
15873.47,-6.69
16032.20,-5.97
16192.52,-5.31
16354.45,-4.64
16517.99,-3.99
16683.17,-3.34
16850.01,-2.77
17018.51,-2.25
17188.69,-1.83
17360.58,-1.57
17534.18,-1.42
17709.53,-1.40
17886.62,-1.55
18065.49,-1.81
18246.14,-2.14
18428.60,-2.58
18612.89,-3.04
18799.02,-3.51
18987.01,-3.98
19176.88,-4.41
19368.65,-4.80
19562.33,-5.13
19757.96,-5.41
19955.54,-5.65
