frequency,raw,error,smoothed,error_smoothed,equalization,parametric_eq,equalized_raw,equalized_smoothed,target
20,7.80,3.10,7.85,3.18,-3.18,-1.98,4.62,4.67,4.69
21,8.01,3.32,8.03,3.36,-3.36,-2.27,4.65,4.67,4.69
22,8.20,3.52,8.20,3.53,-3.53,-2.59,4.67,4.67,4.68
23,8.38,3.70,8.36,3.69,-3.69,-2.93,4.68,4.66,4.67
24,8.53,3.86,8.50,3.85,-3.85,-3.29,4.68,4.66,4.67
25,8.68,4.02,8.64,3.99,-3.99,-3.66,4.69,4.65,4.66
26,8.80,4.15,8.77,4.12,-4.12,-4.03,4.67,4.64,4.65
27,8.91,4.27,8.88,4.25,-4.25,-4.38,4.66,4.64,4.64
28,9.01,4.38,8.99,4.37,-4.37,-4.69,4.64,4.63,4.63
29,9.10,4.48,9.09,4.47,-4.47,-4.95,4.63,4.62,4.61
30,9.18,4.58,9.17,4.57,-4.57,-5.15,4.61,4.60,4.60
31,9.24,4.65,9.24,4.65,-4.65,-5.27,4.58,4.59,4.59
32,9.30,4.72,9.30,4.73,-4.73,-5.32,4.57,4.57,4.58
33,9.34,4.78,9.35,4.79,-4.79,-5.31,4.55,4.56,4.56
34,9.39,4.84,9.39,4.85,-4.85,-5.25,4.54,4.54,4.55
35,9.43,4.90,9.43,4.90,-4.90,-5.16,4.53,4.53,4.53
36,9.46,4.95,9.46,4.95,-4.95,-5.05,4.51,4.51,4.51
37,9.48,4.98,9.48,4.99,-4.99,-4.94,4.48,4.49,4.49
38,9.50,5.02,9.50,5.03,-5.03,-4.83,4.47,4.47,4.47
39,9.52,5.06,9.52,5.07,-5.07,-4.73,4.45,4.45,4.45
40,9.53,5.09,9.53,5.10,-5.10,-4.64,4.43,4.43,4.43
41,9.53,5.12,9.53,5.13,-5.13,-4.58,4.40,4.40,4.41
42,9.54,5.15,9.54,5.16,-5.16,-4.53,4.38,4.38,4.39
43,9.54,5.17,9.54,5.18,-5.18,-4.50,4.35,4.36,4.36
44,9.53,5.19,9.54,5.21,-5.21,-4.49,4.32,4.34,4.34
45,9.52,5.21,9.53,5.22,-5.22,-4.50,4.29,4.31,4.31
46,9.50,5.21,9.52,5.24,-5.24,-4.52,4.26,4.28,4.28
47,9.49,5.23,9.50,5.25,-5.25,-4.56,4.24,4.25,4.26
48,9.47,5.24,9.47,5.25,-5.25,-4.62,4.22,4.22,4.23
49,9.46,5.26,9.45,5.25,-5.25,-4.68,4.21,4.19,4.20
50,9.46,5.29,9.41,5.24,-5.24,-4.75,4.21,4.16,4.16
51,9.42,5.29,9.36,5.23,-5.23,-4.84,4.19,4.13,4.13
52,9.33,5.23,9.30,5.21,-5.21,-4.92,4.12,4.10,4.10
53,9.21,5.15,9.24,5.18,-5.18,-5.01,4.03,4.06,4.06
54,9.15,5.12,9.18,5.15,-5.15,-5.09,4.00,4.02,4.03
55,9.12,5.13,9.10,5.12,-5.12,-5.17,4.00,3.98,3.99
56,9.07,5.12,9.03,5.08,-5.08,-5.25,3.98,3.94,3.95
57,8.97,5.06,8.95,5.05,-5.05,-5.32,3.92,3.90,3.91
58,8.85,4.98,8.87,5.01,-5.01,-5.37,3.84,3.86,3.87
59,8.74,4.91,8.79,4.97,-4.97,-5.42,3.76,3.82,3.83
60,8.68,4.89,8.72,4.94,-4.94,-5.45,3.74,3.77,3.79
61,8.62,4.87,8.64,4.91,-4.91,-5.46,3.71,3.73,3.75
62,8.57,4.87,8.57,4.88,-4.88,-5.46,3.69,3.69,3.70
63,8.51,4.85,8.51,4.86,-4.86,-5.44,3.65,3.65,3.66
64,8.45,4.84,8.43,4.83,-4.83,-5.41,3.61,3.60,3.61
65,8.39,4.82,8.37,4.81,-4.81,-5.37,3.57,3.55,3.56
66,8.32,4.80,8.30,4.80,-4.80,-5.32,3.52,3.51,3.52
67,8.24,4.77,8.24,4.78,-4.78,-5.25,3.46,3.47,3.47
68,8.17,4.75,8.18,4.76,-4.76,-5.18,3.41,3.42,3.42
69,8.10,4.73,8.11,4.74,-4.74,-5.10,3.36,3.38,3.37
70,8.03,4.71,8.04,4.71,-4.71,-5.01,3.32,3.32,3.32
71,7.96,4.69,7.96,4.69,-4.69,-4.92,3.27,3.27,3.27
72,7.89,4.67,7.87,4.66,-4.66,-4.83,3.23,3.22,3.22
73,7.83,4.66,7.79,4.63,-4.63,-4.74,3.20,3.16,3.17
74,7.74,4.62,7.70,4.59,-4.59,-4.65,3.14,3.11,3.12
75,7.63,4.56,7.62,4.56,-4.56,-4.56,3.07,3.06,3.06
76,7.53,4.52,7.53,4.52,-4.52,-4.47,3.00,3.01,3.01
77,7.42,4.46,7.44,4.49,-4.49,-4.38,2.93,2.95,2.96
78,7.32,4.41,7.35,4.45,-4.45,-4.30,2.87,2.90,2.91
79,7.23,4.38,7.26,4.41,-4.41,-4.22,2.82,2.85,2.85
80,7.16,4.36,7.16,4.37,-4.37,-4.15,2.79,2.79,2.80
81,7.08,4.33,7.07,4.33,-4.33,-4.08,2.74,2.74,2.75
82,7.00,4.31,6.98,4.30,-4.30,-4.01,2.70,2.68,2.69
83,6.91,4.27,6.89,4.26,-4.26,-3.95,2.64,2.63,2.64
84,6.82,4.23,6.81,4.23,-4.23,-3.89,2.59,2.57,2.58
85,6.74,4.21,6.72,4.20,-4.20,-3.84,2.53,2.52,2.53
86,6.64,4.16,6.65,4.18,-4.18,-3.79,2.46,2.47,2.48
87,6.56,4.14,6.57,4.16,-4.16,-3.75,2.40,2.42,2.42
88,6.48,4.11,6.50,4.14,-4.14,-3.71,2.34,2.36,2.37
89,6.40,4.08,6.43,4.12,-4.12,-3.68,2.28,2.31,2.32
90,6.34,4.08,6.36,4.10,-4.10,-3.64,2.23,2.25,2.26
91,6.28,4.07,6.29,4.09,-4.09,-3.62,2.19,2.20,2.21
92,6.23,4.07,6.23,4.07,-4.07,-3.59,2.15,2.15,2.16
93,6.18,4.07,6.16,4.06,-4.06,-3.57,2.12,2.10,2.10
94,6.11,4.06,6.10,4.05,-4.05,-3.56,2.06,2.05,2.05
95,6.05,4.05,6.03,4.03,-4.03,-3.54,2.02,2.00,2.00
96,5.99,4.04,5.96,4.02,-4.02,-3.53,1.97,1.95,1.95
97,5.91,4.01,5.89,4.00,-4.00,-3.52,1.91,1.90,1.90
98,5.83,3.98,5.82,3.98,-3.98,-3.52,1.85,1.84,1.85
99,5.76,3.96,5.75,3.96,-3.96,-3.51,1.80,1.79,1.80
100,5.67,3.92,5.67,3.94,-3.94,-3.51,1.73,1.74,1.75
101,5.59,3.89,5.59,3.91,-3.91,-3.51,1.68,1.68,1.70
102,5.51,3.86,5.51,3.88,-3.88,-3.51,1.62,1.63,1.65
104,5.40,3.84,5.43,3.86,-3.86,-3.52,1.54,1.57,1.56
105,5.34,3.83,5.35,3.83,-3.83,-3.52,1.51,1.52,1.51
106,5.27,3.80,5.27,3.80,-3.80,-3.53,1.47,1.47,1.46
107,5.20,3.78,5.19,3.77,-3.77,-3.53,1.43,1.42,1.42
108,5.12,3.75,5.11,3.74,-3.74,-3.54,1.38,1.37,1.37
109,5.04,3.71,5.04,3.71,-3.71,-3.54,1.33,1.32,1.33
110,4.95,3.66,4.96,3.68,-3.68,-3.55,1.27,1.28,1.28
111,4.88,3.64,4.89,3.65,-3.65,-3.56,1.23,1.23,1.24
112,4.80,3.60,4.81,3.62,-3.62,-3.56,1.18,1.19,1.20
113,4.74,3.58,4.73,3.59,-3.59,-3.56,1.15,1.15,1.16
114,4.67,3.55,4.66,3.55,-3.55,-3.56,1.11,1.10,1.11
115,4.61,3.53,4.58,3.52,-3.52,-3.56,1.09,1.05,1.07
117,4.48,3.48,4.49,3.49,-3.49,-3.56,0.99,1.01,0.99
118,4.41,3.45,4.41,3.45,-3.45,-3.56,0.96,0.96,0.95
119,4.34,3.42,4.33,3.42,-3.42,-3.55,0.92,0.91,0.92
120,4.27,3.39,4.25,3.38,-3.38,-3.54,0.89,0.87,0.88
121,4.19,3.35,4.17,3.34,-3.34,-3.53,0.84,0.82,0.84
123,4.05,3.28,4.08,3.31,-3.31,-3.51,0.74,0.78,0.77
124,3.98,3.24,4.01,3.27,-3.27,-3.49,0.71,0.73,0.73
125,3.92,3.22,3.93,3.23,-3.23,-3.48,0.68,0.69,0.70
126,3.85,3.18,3.85,3.20,-3.20,-3.46,0.65,0.65,0.67
128,3.74,3.14,3.77,3.16,-3.16,-3.41,0.58,0.61,0.60
129,3.68,3.11,3.69,3.12,-3.12,-3.38,0.56,0.57,0.57
130,3.63,3.09,3.61,3.08,-3.08,-3.36,0.55,0.53,0.53
131,3.57,3.06,3.52,3.04,-3.04,-3.33,0.53,0.48,0.50
133,3.45,3.00,3.44,3.00,-3.00,-3.27,0.45,0.44,0.44
134,3.38,2.96,3.36,2.95,-2.95,-3.23,0.42,0.41,0.41
135,3.31,2.92,3.28,2.91,-2.91,-3.20,0.40,0.37,0.38
137,3.18,2.85,3.20,2.86,-2.86,-3.13,0.31,0.33,0.33
138,3.11,2.81,3.11,2.82,-2.82,-3.09,0.29,0.29,0.30
140,3.00,2.75,3.03,2.77,-2.77,-3.01,0.23,0.26,0.25
141,2.93,2.71,2.95,2.73,-2.73,-2.97,0.20,0.22,0.22
142,2.87,2.67,2.87,2.68,-2.68,-2.93,0.19,0.18,0.20
144,2.77,2.62,2.79,2.64,-2.64,-2.85,0.13,0.15,0.15
145,2.73,2.60,2.71,2.60,-2.60,-2.81,0.13,0.11,0.12
147,2.63,2.55,2.64,2.55,-2.55,-2.73,0.07,0.08,0.08
148,2.58,2.52,2.56,2.51,-2.51,-2.69,0.06,0.05,0.06
150,2.48,2.47,2.49,2.48,-2.48,-2.61,0.00,0.02,0.01
151,2.44,2.45,2.43,2.44,-2.44,-2.57,0.00,-0.01,-0.01
153,2.35,2.40,2.36,2.40,-2.40,-2.49,-0.05,-0.04,-0.05
154,2.31,2.38,2.29,2.36,-2.36,-2.46,-0.05,-0.07,-0.07
156,2.21,2.32,2.22,2.33,-2.33,-2.38,-0.12,-0.10,-0.11
157,2.17,2.30,2.15,2.29,-2.29,-2.34,-0.12,-0.13,-0.13
159,2.08,2.24,2.09,2.25,-2.25,-2.27,-0.17,-0.16,-0.16
160,2.04,2.22,2.02,2.22,-2.22,-2.23,-0.18,-0.19,-0.18
162,1.96,2.17,1.96,2.18,-2.18,-2.17,-0.22,-0.22,-0.22
164,1.88,2.13,1.90,2.14,-2.14,-2.10,-0.27,-0.25,-0.25
165,1.84,2.10,1.84,2.11,-2.11,-2.07,-0.27,-0.27,-0.26
167,1.77,2.06,1.77,2.07,-2.07,-2.00,-0.30,-0.30,-0.30
169,1.70,2.02,1.71,2.03,-2.03,-1.94,-0.33,-0.32,-0.33
170,1.66,2.00,1.65,1.99,-1.99,-1.91,-0.34,-0.35,-0.34
172,1.59,1.96,1.58,1.95,-1.95,-1.86,-0.36,-0.37,-0.37
174,1.52,1.91,1.52,1.91,-1.91,-1.80,-0.39,-0.39,-0.40
175,1.48,1.89,1.45,1.87,-1.87,-1.78,-0.39,-0.42,-0.41
177,1.41,1.84,1.38,1.82,-1.82,-1.73,-0.42,-0.44,-0.43
179,1.33,1.79,1.32,1.78,-1.78,-1.68,-0.45,-0.46,-0.46
181,1.25,1.73,1.25,1.73,-1.73,-1.63,-0.48,-0.48,-0.48
183,1.15,1.65,1.18,1.68,-1.68,-1.59,-0.54,-0.50,-0.50
184,1.11,1.62,1.11,1.64,-1.64,-1.57,-0.53,-0.52,-0.52
186,1.04,1.58,1.05,1.59,-1.59,-1.53,-0.55,-0.54,-0.54
188,0.97,1.53,0.98,1.55,-1.55,-1.49,-0.58,-0.56,-0.56
190,0.90,1.48,0.92,1.50,-1.50,-1.45,-0.60,-0.58,-0.58
192,0.86,1.45,0.85,1.46,-1.46,-1.41,-0.60,-0.60,-0.60
194,0.80,1.41,0.79,1.41,-1.41,-1.38,-0.62,-0.62,-0.62
196,0.75,1.38,0.73,1.37,-1.37,-1.35,-0.62,-0.64,-0.63
198,0.69,1.34,0.68,1.33,-1.33,-1.32,-0.64,-0.66,-0.65
200,0.63,1.29,0.62,1.29,-1.29,-1.29,-0.66,-0.67,-0.67
202,0.57,1.25,0.57,1.25,-1.25,-1.26,-0.68,-0.68,-0.68
204,0.50,1.20,0.52,1.21,-1.21,-1.23,-0.71,-0.70,-0.70
206,0.45,1.16,0.46,1.17,-1.17,-1.20,-0.72,-0.71,-0.71
208,0.40,1.12,0.40,1.13,-1.13,-1.18,-0.73,-0.73,-0.73
210,0.35,1.09,0.35,1.09,-1.09,-1.15,-0.74,-0.74,-0.74
212,0.31,1.06,0.29,1.05,-1.05,-1.13,-0.74,-0.76,-0.75
214,0.25,1.01,0.23,1.00,-1.00,-1.10,-0.76,-0.77,-0.77
216,0.21,0.99,0.18,0.96,-0.96,-1.08,-0.76,-0.79,-0.78
218,0.14,0.93,0.12,0.92,-0.92,-1.06,-0.78,-0.80,-0.79
221,0.06,0.87,0.07,0.88,-0.88,-1.02,-0.82,-0.81,-0.81
223,-0.00,0.82,0.02,0.84,-0.84,-1.00,-0.85,-0.82,-0.82
225,-0.05,0.78,-0.03,0.81,-0.81,-0.98,-0.86,-0.83,-0.83
227,-0.09,0.75,-0.07,0.77,-0.77,-0.96,-0.86,-0.84,-0.84
229,-0.12,0.73,-0.12,0.74,-0.74,-0.94,-0.86,-0.86,-0.85
232,-0.16,0.70,-0.16,0.71,-0.71,-0.90,-0.87,-0.87,-0.86
234,-0.20,0.67,-0.20,0.68,-0.68,-0.88,-0.88,-0.88,-0.87
236,-0.23,0.65,-0.24,0.65,-0.65,-0.86,-0.88,-0.89,-0.88
239,-0.27,0.62,-0.28,0.62,-0.62,-0.83,-0.89,-0.90,-0.89
241,-0.30,0.60,-0.31,0.59,-0.59,-0.81,-0.90,-0.90,-0.90
244,-0.34,0.57,-0.34,0.57,-0.57,-0.77,-0.91,-0.91,-0.91
246,-0.37,0.55,-0.38,0.54,-0.54,-0.75,-0.91,-0.92,-0.92
248,-0.41,0.52,-0.41,0.52,-0.52,-0.73,-0.93,-0.93,-0.93
251,-0.45,0.49,-0.45,0.49,-0.49,-0.70,-0.94,-0.94,-0.94
253,-0.48,0.46,-0.48,0.47,-0.47,-0.67,-0.95,-0.95,-0.95
256,-0.51,0.44,-0.52,0.44,-0.44,-0.64,-0.95,-0.95,-0.95
259,-0.55,0.41,-0.55,0.41,-0.41,-0.60,-0.96,-0.96,-0.96
261,-0.58,0.39,-0.59,0.38,-0.38,-0.58,-0.96,-0.97,-0.97
264,-0.63,0.35,-0.63,0.35,-0.35,-0.54,-0.98,-0.98,-0.98
266,-0.66,0.32,-0.66,0.32,-0.32,-0.52,-0.98,-0.99,-0.98
269,-0.70,0.29,-0.70,0.29,-0.29,-0.48,-0.99,-0.99,-0.99
272,-0.74,0.26,-0.74,0.26,-0.26,-0.44,-1.00,-1.00,-1.00
274,-0.77,0.23,-0.78,0.22,-0.22,-0.41,-0.99,-1.00,-1.00
277,-0.82,0.19,-0.82,0.18,-0.18,-0.38,-1.00,-1.00,-1.01
280,-0.87,0.15,-0.87,0.14,-0.14,-0.34,-1.01,-1.01,-1.02
283,-0.91,0.11,-0.92,0.09,-0.09,-0.30,-1.00,-1.01,-1.03
286,-0.96,0.07,-0.97,0.05,-0.05,-0.26,-1.01,-1.02,-1.03
288,-0.99,0.04,-1.03,0.00,-0.00,-0.23,-1.00,-1.03,-1.04
291,-1.04,-0.00,-1.09,-0.03,0.03,-0.19,-1.01,-1.05,-1.04
294,-1.09,-0.05,-1.14,-0.07,0.07,-0.15,-1.03,-1.07,-1.05
297,-1.15,-0.10,-1.18,-0.09,0.09,-0.11,-1.06,-1.09,-1.05
300,-1.20,-0.14,-1.21,-0.10,0.10,-0.07,-1.10,-1.11,-1.06
303,-1.24,-0.18,-1.22,-0.09,0.09,-0.03,-1.15,-1.12,-1.06
306,-1.28,-0.21,-1.20,-0.07,0.07,0.01,-1.21,-1.13,-1.07
309,-1.29,-0.22,-1.16,-0.03,0.03,0.05,-1.26,-1.14,-1.07
312,-1.27,-0.20,-1.11,0.03,-0.03,0.09,-1.30,-1.14,-1.08
316,-1.19,-0.11,-1.05,0.09,-0.09,0.15,-1.28,-1.14,-1.08
319,-1.07,0.01,-0.97,0.16,-0.16,0.19,-1.23,-1.14,-1.09
322,-0.93,0.16,-0.90,0.23,-0.23,0.23,-1.16,-1.13,-1.09
325,-0.79,0.30,-0.84,0.29,-0.29,0.27,-1.08,-1.13,-1.09
328,-0.66,0.44,-0.79,0.34,-0.34,0.31,-1.00,-1.12,-1.10
332,-0.57,0.53,-0.75,0.37,-0.37,0.37,-0.94,-1.12,-1.10
335,-0.55,0.55,-0.74,0.37,-0.37,0.41,-0.92,-1.11,-1.11
338,-0.60,0.51,-0.75,0.35,-0.35,0.45,-0.95,-1.10,-1.11
342,-0.73,0.38,-0.80,0.30,-0.30,0.51,-1.03,-1.10,-1.11
345,-0.85,0.26,-0.88,0.22,-0.22,0.55,-1.07,-1.10,-1.12
349,-1.02,0.10,-0.99,0.12,-0.12,0.61,-1.14,-1.11,-1.12
352,-1.15,-0.03,-1.12,0.01,-0.01,0.65,-1.16,-1.13,-1.12
356,-1.32,-0.20,-1.27,-0.13,0.13,0.70,-1.20,-1.15,-1.13
359,-1.44,-0.31,-1.43,-0.27,0.27,0.75,-1.17,-1.16,-1.13
363,-1.61,-0.48,-1.59,-0.41,0.41,0.80,-1.20,-1.17,-1.13
366,-1.73,-0.60,-1.73,-0.55,0.55,0.84,-1.19,-1.18,-1.14
370,-1.89,-0.75,-1.85,-0.67,0.67,0.90,-1.22,-1.19,-1.14
374,-2.03,-0.89,-1.96,-0.78,0.78,0.96,-1.26,-1.18,-1.14
377,-2.11,-0.97,-2.05,-0.86,0.86,1.00,-1.25,-1.18,-1.14
381,-2.19,-1.05,-2.12,-0.94,0.94,1.05,-1.25,-1.18,-1.15
385,-2.22,-1.07,-2.17,-1.00,1.00,1.11,-1.22,-1.18,-1.15
389,-2.24,-1.09,-2.22,-1.04,1.04,1.17,-1.20,-1.17,-1.15
393,-2.24,-1.09,-2.25,-1.08,1.08,1.22,-1.16,-1.17,-1.15
397,-2.24,-1.09,-2.28,-1.11,1.11,1.28,-1.14,-1.17,-1.16
401,-2.25,-1.09,-2.29,-1.12,1.12,1.33,-1.13,-1.17,-1.16
405,-2.26,-1.10,-2.31,-1.14,1.14,1.39,-1.12,-1.17,-1.16
409,-2.28,-1.12,-2.32,-1.15,1.15,1.44,-1.13,-1.16,-1.16
413,-2.30,-1.14,-2.33,-1.17,1.17,1.49,-1.13,-1.16,-1.17
417,-2.33,-1.16,-2.35,-1.18,1.18,1.54,-1.15,-1.16,-1.17
421,-2.36,-1.19,-2.37,-1.20,1.20,1.60,-1.16,-1.17,-1.17
425,-2.39,-1.22,-2.39,-1.22,1.22,1.65,-1.17,-1.17,-1.17
430,-2.43,-1.26,-2.42,-1.24,1.24,1.71,-1.19,-1.18,-1.18
434,-2.45,-1.27,-2.45,-1.27,1.27,1.75,-1.19,-1.18,-1.18
438,-2.48,-1.30,-2.47,-1.29,1.29,1.80,-1.19,-1.18,-1.18
443,-2.51,-1.33,-2.50,-1.32,1.32,1.85,-1.19,-1.18,-1.18
447,-2.53,-1.35,-2.53,-1.35,1.35,1.89,-1.19,-1.18,-1.18
451,-2.55,-1.38,-2.55,-1.37,1.37,1.93,-1.18,-1.18,-1.18
456,-2.58,-1.41,-2.58,-1.40,1.40,1.98,-1.18,-1.17,-1.17
460,-2.60,-1.44,-2.60,-1.43,1.43,2.02,-1.17,-1.17,-1.17
465,-2.62,-1.46,-2.62,-1.46,1.46,2.06,-1.17,-1.16,-1.16
470,-2.63,-1.48,-2.64,-1.49,1.49,2.09,-1.15,-1.15,-1.15
474,-2.66,-1.52,-2.66,-1.52,1.52,2.12,-1.15,-1.14,-1.14
479,-2.68,-1.55,-2.68,-1.55,1.55,2.15,-1.13,-1.13,-1.13
484,-2.70,-1.58,-2.70,-1.59,1.59,2.18,-1.12,-1.12,-1.12
489,-2.72,-1.61,-2.73,-1.62,1.62,2.20,-1.10,-1.11,-1.11
494,-2.75,-1.66,-2.76,-1.67,1.67,2.22,-1.09,-1.10,-1.10
499,-2.77,-1.69,-2.79,-1.71,1.71,2.23,-1.06,-1.08,-1.08
504,-2.81,-1.75,-2.83,-1.75,1.75,2.24,-1.06,-1.07,-1.07
509,-2.84,-1.79,-2.86,-1.80,1.80,2.25,-1.04,-1.06,-1.05
514,-2.88,-1.85,-2.89,-1.85,1.85,2.26,-1.03,-1.04,-1.04
519,-2.93,-1.91,-2.93,-1.90,1.90,2.26,-1.03,-1.03,-1.02
524,-2.97,-1.97,-2.96,-1.95,1.95,2.26,-1.02,-1.01,-1.00
529,-3.01,-2.03,-2.99,-2.00,2.00,2.25,-1.01,-0.99,-0.98
535,-3.04,-2.08,-3.02,-2.05,2.05,2.24,-1.00,-0.97,-0.96
540,-3.06,-2.12,-3.04,-2.09,2.09,2.24,-0.97,-0.95,-0.94
545,-3.07,-2.15,-3.06,-2.13,2.13,2.22,-0.94,-0.93,-0.92
551,-3.07,-2.17,-3.08,-2.18,2.18,2.21,-0.89,-0.90,-0.90
556,-3.08,-2.21,-3.10,-2.22,2.22,2.19,-0.86,-0.88,-0.87
562,-3.09,-2.25,-3.11,-2.26,2.26,2.17,-0.84,-0.85,-0.85
568,-3.11,-2.29,-3.12,-2.29,2.29,2.15,-0.82,-0.82,-0.82
573,-3.12,-2.33,-3.12,-2.33,2.33,2.13,-0.79,-0.79,-0.79
579,-3.13,-2.37,-3.13,-2.37,2.37,2.11,-0.77,-0.76,-0.76
585,-3.14,-2.41,-3.13,-2.40,2.40,2.08,-0.74,-0.73,-0.73
591,-3.14,-2.44,-3.14,-2.44,2.44,2.06,-0.70,-0.70,-0.70
596,-3.15,-2.48,-3.15,-2.47,2.47,2.04,-0.68,-0.67,-0.67
602,-3.15,-2.51,-3.16,-2.51,2.51,2.02,-0.64,-0.65,-0.64
608,-3.14,-2.53,-3.17,-2.55,2.55,1.99,-0.60,-0.62,-0.61
615,-3.15,-2.57,-3.17,-2.58,2.58,1.96,-0.57,-0.59,-0.58
621,-3.16,-2.61,-3.18,-2.62,2.62,1.94,-0.54,-0.56,-0.55
627,-3.17,-2.65,-3.18,-2.65,2.65,1.92,-0.52,-0.53,-0.52
633,-3.19,-2.70,-3.18,-2.68,2.68,1.90,-0.51,-0.49,-0.49
639,-3.20,-2.75,-3.17,-2.72,2.72,1.88,-0.49,-0.46,-0.46
646,-3.20,-2.78,-3.17,-2.75,2.75,1.86,-0.46,-0.43,-0.42
652,-3.18,-2.79,-3.17,-2.77,2.77,1.84,-0.41,-0.39,-0.39
659,-3.16,-2.80,-3.16,-2.80,2.80,1.82,-0.36,-0.36,-0.36
665,-3.13,-2.81,-3.15,-2.83,2.83,1.80,-0.31,-0.33,-0.32
672,-3.11,-2.82,-3.14,-2.85,2.85,1.78,-0.26,-0.29,-0.29
679,-3.10,-2.85,-3.13,-2.87,2.87,1.77,-0.23,-0.26,-0.25
686,-3.10,-2.89,-3.11,-2.89,2.89,1.76,-0.21,-0.22,-0.21
692,-3.09,-2.92,-3.09,-2.91,2.91,1.75,-0.18,-0.18,-0.18
699,-3.08,-2.94,-3.06,-2.92,2.92,1.73,-0.16,-0.14,-0.14
706,-3.06,-2.96,-3.04,-2.94,2.94,1.73,-0.12,-0.10,-0.10
713,-3.03,-2.97,-3.01,-2.95,2.95,1.72,-0.08,-0.06,-0.06
721,-2.98,-2.96,-2.99,-2.96,2.96,1.71,-0.02,-0.02,-0.02
728,-2.94,-2.96,-2.96,-2.97,2.97,1.71,0.03,0.01,0.01
735,-2.91,-2.97,-2.93,-2.98,2.98,1.70,0.07,0.05,0.05
742,-2.87,-2.96,-2.89,-2.98,2.98,1.70,0.11,0.09,0.09
750,-2.83,-2.96,-2.85,-2.98,2.98,1.70,0.14,0.12,0.13
757,-2.80,-2.97,-2.81,-2.97,2.97,1.70,0.17,0.16,0.17
765,-2.77,-2.98,-2.76,-2.96,2.96,1.70,0.19,0.20,0.21
773,-2.72,-2.97,-2.70,-2.94,2.94,1.70,0.22,0.24,0.25
780,-2.66,-2.94,-2.64,-2.92,2.92,1.71,0.25,0.27,0.28
788,-2.59,-2.91,-2.58,-2.89,2.89,1.71,0.29,0.31,0.32
796,-2.52,-2.87,-2.51,-2.85,2.85,1.72,0.33,0.34,0.35
804,-2.43,-2.82,-2.43,-2.80,2.80,1.73,0.37,0.37,0.38
812,-2.34,-2.76,-2.34,-2.75,2.75,1.73,0.41,0.41,0.42
820,-2.24,-2.69,-2.25,-2.69,2.69,1.74,0.45,0.44,0.45
828,-2.16,-2.64,-2.15,-2.63,2.63,1.75,0.47,0.47,0.48
837,-2.04,-2.55,-2.05,-2.56,2.56,1.76,0.52,0.51,0.51
845,-1.94,-2.48,-1.94,-2.48,2.48,1.77,0.54,0.54,0.54
853,-1.83,-2.41,-1.83,-2.40,2.40,1.78,0.57,0.57,0.57
862,-1.71,-2.31,-1.71,-2.31,2.31,1.79,0.60,0.60,0.60
871,-1.59,-2.22,-1.59,-2.22,2.22,1.80,0.63,0.63,0.63
879,-1.48,-2.14,-1.47,-2.13,2.13,1.80,0.64,0.66,0.66
888,-1.34,-2.03,-1.35,-2.03,2.03,1.81,0.69,0.68,0.69
897,-1.22,-1.94,-1.22,-1.93,1.93,1.82,0.71,0.71,0.72
906,-1.09,-1.84,-1.10,-1.83,1.83,1.82,0.74,0.74,0.74
915,-0.96,-1.73,-0.97,-1.74,1.74,1.83,0.77,0.77,0.77
924,-0.85,-1.65,-0.84,-1.64,1.64,1.83,0.79,0.80,0.80
933,-0.73,-1.55,-0.72,-1.54,1.54,1.83,0.81,0.83,0.82
943,-0.60,-1.45,-0.60,-1.45,1.45,1.83,0.85,0.85,0.85
952,-0.49,-1.37,-0.49,-1.37,1.37,1.83,0.88,0.88,0.87
962,-0.36,-1.26,-0.38,-1.29,1.29,1.83,0.92,0.91,0.90
971,-0.26,-1.19,-0.28,-1.21,1.21,1.82,0.95,0.93,0.93
981,-0.16,-1.11,-0.19,-1.14,1.14,1.81,0.98,0.96,0.95
991,-0.07,-1.05,-0.10,-1.08,1.08,1.80,1.01,0.98,0.98
1001,0.01,-1.00,-0.02,-1.02,1.02,1.79,1.03,1.01,1.01
1011,0.07,-0.96,0.06,-0.97,0.97,1.77,1.04,1.03,1.03
1021,0.13,-0.93,0.13,-0.92,0.92,1.76,1.05,1.06,1.06
1031,0.18,-0.91,0.20,-0.88,0.88,1.74,1.06,1.08,1.09
1041,0.24,-0.87,0.27,-0.84,0.84,1.72,1.08,1.11,1.11
1052,0.32,-0.82,0.33,-0.81,0.81,1.69,1.12,1.14,1.14
1062,0.37,-0.80,0.39,-0.77,0.77,1.66,1.14,1.16,1.17
1073,0.44,-0.76,0.45,-0.74,0.74,1.63,1.18,1.19,1.20
1084,0.51,-0.72,0.51,-0.72,0.72,1.60,1.23,1.22,1.23
1094,0.56,-0.70,0.56,-0.70,0.70,1.57,1.25,1.26,1.26
1105,0.62,-0.67,0.61,-0.68,0.68,1.54,1.30,1.29,1.29
1116,0.68,-0.64,0.66,-0.66,0.66,1.50,1.34,1.32,1.32
1128,0.73,-0.62,0.70,-0.65,0.65,1.47,1.38,1.36,1.35
1139,0.76,-0.62,0.74,-0.65,0.65,1.43,1.41,1.39,1.38
1150,0.79,-0.62,0.77,-0.65,0.65,1.39,1.44,1.42,1.41
1162,0.80,-0.65,0.79,-0.65,0.65,1.35,1.45,1.44,1.44
1173,0.82,-0.66,0.81,-0.66,0.66,1.31,1.48,1.47,1.48
1185,0.83,-0.68,0.83,-0.67,0.67,1.27,1.50,1.50,1.51
1197,0.84,-0.70,0.85,-0.68,0.68,1.23,1.52,1.53,1.54
1209,0.86,-0.71,0.86,-0.70,0.70,1.18,1.56,1.56,1.57
1221,0.86,-0.74,0.88,-0.71,0.71,1.14,1.57,1.60,1.60
1233,0.87,-0.77,0.90,-0.73,0.73,1.10,1.59,1.63,1.63
1246,0.90,-0.77,0.92,-0.74,0.74,1.06,1.64,1.66,1.67
1258,0.93,-0.77,0.95,-0.75,0.75,1.01,1.68,1.70,1.70
1271,0.98,-0.75,0.97,-0.76,0.76,0.97,1.74,1.73,1.73
1283,1.02,-0.75,1.00,-0.76,0.76,0.93,1.78,1.76,1.77
1296,1.06,-0.74,1.02,-0.77,0.77,0.89,1.83,1.79,1.80
1309,1.09,-0.75,1.06,-0.77,0.77,0.85,1.86,1.83,1.84
1322,1.12,-0.76,1.09,-0.77,0.77,0.81,1.89,1.87,1.87
1335,1.13,-0.78,1.13,-0.78,0.78,0.77,1.90,1.91,1.91
1349,1.15,-0.80,1.17,-0.77,0.77,0.72,1.92,1.94,1.95
1362,1.18,-0.81,1.21,-0.77,0.77,0.68,1.95,1.98,1.98
1376,1.22,-0.80,1.25,-0.76,0.76,0.64,1.98,2.02,2.02
1390,1.28,-0.78,1.29,-0.76,0.76,0.60,2.03,2.05,2.06
1404,1.35,-0.75,1.34,-0.74,0.74,0.56,2.09,2.08,2.10
1418,1.41,-0.73,1.39,-0.73,0.73,0.53,2.14,2.11,2.14
1432,1.48,-0.70,1.44,-0.71,0.71,0.49,2.19,2.15,2.18
1446,1.53,-0.69,1.50,-0.69,0.69,0.45,2.21,2.19,2.22
1461,1.58,-0.68,1.57,-0.66,0.66,0.41,2.24,2.23,2.25
1475,1.63,-0.67,1.64,-0.63,0.63,0.38,2.25,2.27,2.29
1490,1.70,-0.63,1.72,-0.59,0.59,0.34,2.29,2.31,2.33
1505,1.77,-0.60,1.80,-0.55,0.55,0.31,2.31,2.35,2.37
1520,1.86,-0.55,1.89,-0.50,0.50,0.27,2.36,2.39,2.41
1535,1.97,-0.49,1.98,-0.45,0.45,0.24,2.41,2.43,2.45
1550,2.08,-0.42,2.08,-0.39,0.39,0.20,2.47,2.47,2.50
1566,2.19,-0.35,2.18,-0.33,0.33,0.17,2.52,2.51,2.54
1582,2.31,-0.28,2.29,-0.26,0.26,0.13,2.57,2.55,2.59
1597,2.42,-0.21,2.40,-0.20,0.20,0.10,2.61,2.60,2.63
1613,2.52,-0.16,2.52,-0.13,0.13,0.07,2.64,2.64,2.68
1629,2.64,-0.08,2.64,-0.05,0.05,0.03,2.69,2.69,2.72
1646,2.77,0.00,2.76,0.03,-0.03,0.00,2.74,2.73,2.77
1662,2.88,0.06,2.89,0.10,-0.10,-0.03,2.77,2.78,2.81
1679,3.01,0.15,3.02,0.19,-0.19,-0.06,2.82,2.83,2.86
1696,3.14,0.23,3.15,0.27,-0.27,-0.09,2.87,2.88,2.91
1713,3.27,0.31,3.28,0.35,-0.35,-0.12,2.91,2.92,2.95
1730,3.41,0.41,3.42,0.44,-0.44,-0.15,2.97,2.97,3.00
1747,3.55,0.50,3.55,0.53,-0.53,-0.18,3.02,3.03,3.05
1764,3.69,0.59,3.69,0.61,-0.61,-0.21,3.07,3.08,3.10
1782,3.84,0.69,3.84,0.70,-0.70,-0.24,3.14,3.14,3.15
1800,3.99,0.79,3.98,0.78,-0.78,-0.27,3.21,3.20,3.20
1818,4.13,0.87,4.12,0.86,-0.86,-0.30,3.27,3.26,3.25
1836,4.27,0.96,4.26,0.94,-0.94,-0.32,3.33,3.32,3.31
1854,4.40,1.03,4.39,1.02,-1.02,-0.35,3.38,3.38,3.37
1873,4.54,1.11,4.53,1.09,-1.09,-0.38,3.45,3.44,3.43
