frequency,raw,error,smoothed,error_smoothed,equalization,parametric_eq,equalized_raw,equalized_smoothed,target
20,-18.45,-14.47,-18.40,-14.42,6.00,5.45,-12.45,-12.40,-3.98
21,-17.62,-13.64,-17.64,-13.66,6.00,5.69,-11.62,-11.64,-3.98
22,-16.85,-12.87,-16.90,-12.92,6.00,5.90,-10.85,-10.90,-3.98
23,-16.18,-12.20,-16.20,-12.22,6.00,6.08,-10.18,-10.20,-3.98
24,-15.50,-11.52,-15.52,-11.54,6.00,6.22,-9.50,-9.52,-3.98
25,-14.85,-10.87,-14.87,-10.90,6.00,6.32,-8.85,-8.87,-3.98
26,-14.27,-10.30,-14.25,-10.28,6.00,6.38,-8.27,-8.25,-3.98
27,-13.74,-9.76,-13.66,-9.68,6.00,6.39,-7.74,-7.66,-3.98
28,-13.01,-9.03,-13.09,-9.12,6.00,6.37,-7.01,-7.09,-3.98
29,-12.54,-8.56,-12.55,-8.57,6.00,6.30,-6.54,-6.55,-3.97
30,-11.87,-7.90,-12.02,-8.04,6.00,6.20,-5.87,-6.02,-3.97
31,-11.69,-7.72,-11.51,-7.53,6.00,6.06,-5.69,-5.51,-3.97
32,-11.17,-7.20,-11.01,-7.04,6.00,5.89,-5.17,-5.01,-3.97
33,-10.50,-6.53,-10.54,-6.57,5.92,5.70,-4.59,-4.62,-3.97
34,-10.03,-6.06,-10.09,-6.12,5.74,5.48,-4.28,-4.34,-3.97
35,-9.64,-5.67,-9.66,-5.69,5.49,5.25,-4.15,-4.17,-3.97
36,-9.13,-5.15,-9.26,-5.29,5.20,5.00,-3.93,-4.06,-3.97
37,-8.86,-4.89,-8.89,-4.92,4.90,4.74,-3.96,-4.00,-3.97
38,-8.61,-4.64,-8.55,-4.58,4.58,4.47,-4.03,-3.97,-3.97
39,-8.21,-4.24,-8.23,-4.27,4.27,4.19,-3.94,-3.97,-3.97
40,-7.95,-3.98,-7.93,-3.96,3.96,3.91,-3.98,-3.97,-3.97
41,-7.75,-3.78,-7.65,-3.68,3.68,3.64,-4.07,-3.97,-3.97
42,-7.35,-3.38,-7.37,-3.40,3.40,3.36,-3.95,-3.97,-3.97
43,-7.07,-3.10,-7.09,-3.12,3.12,3.09,-3.95,-3.97,-3.97
44,-6.84,-2.87,-6.82,-2.85,2.85,2.82,-3.99,-3.97,-3.97
45,-6.61,-2.64,-6.55,-2.58,2.58,2.55,-4.03,-3.97,-3.97
46,-6.32,-2.35,-6.28,-2.31,2.31,2.29,-4.00,-3.97,-3.97
47,-5.93,-1.96,-6.03,-2.06,2.06,2.03,-3.87,-3.97,-3.97
48,-5.70,-1.73,-5.78,-1.81,1.81,1.78,-3.89,-3.97,-3.97
49,-5.57,-1.60,-5.54,-1.57,1.57,1.54,-4.00,-3.97,-3.97
50,-5.24,-1.27,-5.30,-1.33,1.33,1.31,-3.92,-3.97,-3.97
51,-5.20,-1.23,-5.06,-1.09,1.09,1.08,-4.10,-3.97,-3.97
52,-4.91,-0.94,-4.83,-0.86,0.86,0.86,-4.05,-3.97,-3.97
53,-4.56,-0.59,-4.60,-0.63,0.63,0.64,-3.93,-3.97,-3.97
54,-4.33,-0.36,-4.37,-0.40,0.40,0.43,-3.93,-3.97,-3.97
55,-4.10,-0.13,-4.15,-0.18,0.18,0.23,-3.92,-3.97,-3.97
56,-4.10,-0.13,-3.94,0.02,-0.02,0.04,-4.13,-3.97,-3.97
57,-3.65,0.32,-3.75,0.22,-0.22,-0.15,-3.87,-3.97,-3.97
58,-3.42,0.55,-3.56,0.41,-0.41,-0.33,-3.83,-3.97,-3.97
59,-3.42,0.55,-3.39,0.58,-0.58,-0.50,-4.00,-3.97,-3.97
60,-3.20,0.77,-3.22,0.74,-0.74,-0.67,-3.94,-3.97,-3.97
61,-3.19,0.78,-3.07,0.90,-0.90,-0.83,-4.09,-3.97,-3.97
62,-2.96,1.00,-2.92,1.05,-1.05,-0.98,-4.01,-3.97,-3.97
63,-2.74,1.23,-2.77,1.20,-1.20,-1.13,-3.93,-3.97,-3.97
64,-2.64,1.33,-2.62,1.34,-1.34,-1.27,-3.98,-3.96,-3.96
65,-2.46,1.51,-2.48,1.48,-1.48,-1.41,-3.94,-3.96,-3.96
66,-2.28,1.68,-2.35,1.62,-1.62,-1.54,-3.90,-3.96,-3.96
67,-2.28,1.68,-2.22,1.75,-1.75,-1.66,-4.03,-3.96,-3.96
68,-2.05,1.91,-2.09,1.87,-1.87,-1.78,-3.92,-3.96,-3.96
69,-2.03,1.93,-1.98,1.98,-1.98,-1.89,-4.01,-3.96,-3.96
70,-1.82,2.14,-1.87,2.09,-2.09,-2.00,-3.91,-3.96,-3.96
71,-1.82,2.13,-1.77,2.18,-2.18,-2.11,-4.01,-3.96,-3.96
72,-1.60,2.36,-1.68,2.28,-2.28,-2.21,-3.87,-3.96,-3.96
73,-1.60,2.36,-1.59,2.37,-2.37,-2.30,-3.96,-3.96,-3.96
74,-1.60,2.36,-1.50,2.45,-2.45,-2.39,-4.05,-3.96,-3.96
75,-1.43,2.53,-1.42,2.54,-2.54,-2.48,-3.96,-3.95,-3.95
76,-1.37,2.59,-1.34,2.62,-2.62,-2.56,-3.98,-3.95,-3.95
77,-1.19,2.76,-1.26,2.69,-2.69,-2.64,-3.88,-3.95,-3.95
78,-1.14,2.81,-1.19,2.76,-2.76,-2.71,-3.90,-3.95,-3.95
79,-1.14,2.81,-1.13,2.82,-2.82,-2.78,-3.96,-3.95,-3.95
80,-1.14,2.81,-1.07,2.88,-2.88,-2.85,-4.02,-3.95,-3.95
81,-0.99,2.95,-1.01,2.94,-2.94,-2.91,-3.93,-3.95,-3.95
82,-0.91,3.04,-0.96,2.98,-2.98,-2.97,-3.90,-3.95,-3.95
83,-0.91,3.04,-0.92,3.03,-3.03,-3.03,-3.94,-3.95,-3.95
84,-0.91,3.03,-0.87,3.07,-3.07,-3.08,-3.98,-3.95,-3.95
85,-0.91,3.03,-0.83,3.11,-3.11,-3.13,-4.02,-3.94,-3.94
86,-0.79,3.16,-0.80,3.15,-3.15,-3.18,-3.93,-3.94,-3.94
87,-0.68,3.26,-0.76,3.18,-3.18,-3.22,-3.87,-3.94,-3.94
88,-0.68,3.26,-0.73,3.21,-3.21,-3.27,-3.90,-3.94,-3.94
89,-0.68,3.26,-0.69,3.25,-3.25,-3.31,-3.93,-3.94,-3.94
90,-0.68,3.25,-0.66,3.28,-3.28,-3.34,-3.96,-3.94,-3.94
91,-0.68,3.25,-0.63,3.31,-3.31,-3.38,-4.00,-3.94,-3.94
92,-0.68,3.25,-0.59,3.34,-3.34,-3.41,-4.03,-3.94,-3.94
93,-0.55,3.39,-0.56,3.37,-3.37,-3.44,-3.92,-3.93,-3.93
94,-0.46,3.48,-0.53,3.40,-3.40,-3.47,-3.86,-3.93,-3.93
95,-0.46,3.48,-0.51,3.43,-3.43,-3.49,-3.88,-3.93,-3.93
96,-0.46,3.47,-0.49,3.45,-3.45,-3.52,-3.90,-3.93,-3.93
97,-0.46,3.47,-0.47,3.46,-3.46,-3.54,-3.92,-3.93,-3.93
98,-0.46,3.47,-0.45,3.48,-3.48,-3.56,-3.93,-3.93,-3.93
99,-0.46,3.47,-0.44,3.49,-3.49,-3.58,-3.95,-3.93,-3.93
100,-0.46,3.47,-0.41,3.51,-3.51,-3.59,-3.97,-3.93,-3.93
101,-0.46,3.47,-0.39,3.54,-3.54,-3.61,-3.99,-3.93,-3.93
102,-0.46,3.47,-0.36,3.57,-3.57,-3.62,-4.02,-3.92,-3.92
104,-0.23,3.70,-0.32,3.60,-3.60,-3.64,-3.83,-3.92,-3.92
105,-0.23,3.70,-0.29,3.63,-3.63,-3.65,-3.86,-3.92,-3.92
106,-0.23,3.69,-0.26,3.66,-3.66,-3.66,-3.89,-3.92,-3.92
107,-0.23,3.69,-0.24,3.68,-3.68,-3.67,-3.91,-3.92,-3.92
108,-0.23,3.69,-0.23,3.70,-3.70,-3.67,-3.92,-3.92,-3.92
109,-0.23,3.69,-0.22,3.70,-3.70,-3.68,-3.93,-3.92,-3.92
110,-0.23,3.69,-0.22,3.70,-3.70,-3.68,-3.93,-3.92,-3.92
111,-0.23,3.69,-0.22,3.70,-3.70,-3.68,-3.93,-3.92,-3.92
112,-0.23,3.69,-0.22,3.70,-3.70,-3.68,-3.93,-3.92,-3.92
113,-0.23,3.69,-0.22,3.70,-3.70,-3.69,-3.93,-3.92,-3.92
114,-0.23,3.69,-0.22,3.70,-3.70,-3.68,-3.93,-3.92,-3.92
115,-0.23,3.69,-0.22,3.70,-3.70,-3.68,-3.93,-3.92,-3.92
117,-0.23,3.69,-0.22,3.70,-3.70,-3.68,-3.93,-3.92,-3.92
118,-0.23,3.69,-0.22,3.69,-3.69,-3.68,-3.92,-3.92,-3.92
119,-0.23,3.69,-0.24,3.68,-3.68,-3.67,-3.91,-3.92,-3.92
120,-0.23,3.69,-0.26,3.66,-3.66,-3.67,-3.88,-3.91,-3.91
121,-0.23,3.69,-0.29,3.63,-3.63,-3.66,-3.86,-3.91,-3.91
123,-0.23,3.68,-0.32,3.59,-3.59,-3.65,-3.82,-3.91,-3.91
124,-0.42,3.49,-0.35,3.56,-3.56,-3.64,-3.97,-3.91,-3.91
125,-0.46,3.45,-0.38,3.52,-3.52,-3.63,-3.98,-3.91,-3.91
126,-0.46,3.45,-0.41,3.50,-3.50,-3.62,-3.95,-3.91,-3.91
128,-0.46,3.45,-0.43,3.47,-3.47,-3.61,-3.93,-3.90,-3.90
129,-0.46,3.45,-0.45,3.46,-3.46,-3.60,-3.91,-3.90,-3.90
130,-0.46,3.44,-0.46,3.44,-3.44,-3.59,-3.90,-3.90,-3.90
131,-0.46,3.44,-0.47,3.43,-3.43,-3.58,-3.89,-3.90,-3.90
133,-0.46,3.44,-0.48,3.41,-3.41,-3.55,-3.87,-3.90,-3.90
134,-0.46,3.44,-0.51,3.39,-3.39,-3.54,-3.84,-3.89,-3.89
135,-0.46,3.43,-0.53,3.36,-3.36,-3.53,-3.81,-3.89,-3.89
137,-0.53,3.35,-0.57,3.32,-3.32,-3.51,-3.86,-3.89,-3.89
138,-0.68,3.20,-0.60,3.29,-3.29,-3.49,-3.97,-3.89,-3.89
140,-0.68,3.20,-0.63,3.25,-3.25,-3.47,-3.94,-3.88,-3.88
141,-0.68,3.20,-0.65,3.23,-3.23,-3.45,-3.91,-3.88,-3.88
142,-0.68,3.19,-0.67,3.21,-3.21,-3.44,-3.89,-3.88,-3.88
144,-0.68,3.19,-0.68,3.20,-3.20,-3.41,-3.88,-3.87,-3.87
145,-0.68,3.19,-0.68,3.19,-3.19,-3.40,-3.87,-3.87,-3.87
147,-0.68,3.19,-0.69,3.18,-3.18,-3.37,-3.86,-3.87,-3.87
148,-0.68,3.18,-0.70,3.16,-3.16,-3.35,-3.85,-3.87,-3.87
150,-0.68,3.18,-0.72,3.14,-3.14,-3.32,-3.83,-3.86,-3.86
151,-0.68,3.18,-0.75,3.11,-3.11,-3.31,-3.80,-3.86,-3.86
153,-0.71,3.15,-0.78,3.08,-3.08,-3.28,-3.79,-3.86,-3.86
154,-0.88,2.98,-0.81,3.04,-3.04,-3.26,-3.92,-3.86,-3.86
156,-0.91,2.94,-0.85,3.01,-3.01,-3.23,-3.92,-3.85,-3.85
157,-0.91,2.94,-0.87,2.98,-2.98,-3.22,-3.89,-3.85,-3.85
159,-0.91,2.94,-0.89,2.95,-2.95,-3.19,-3.87,-3.85,-3.85
160,-0.91,2.93,-0.90,2.94,-2.94,-3.17,-3.85,-3.84,-3.84
162,-0.91,2.93,-0.91,2.93,-2.93,-3.14,-3.84,-3.84,-3.84
164,-0.91,2.93,-0.91,2.93,-2.93,-3.11,-3.84,-3.84,-3.84
165,-0.91,2.92,-0.92,2.92,-2.92,-3.09,-3.83,-3.84,-3.84
167,-0.91,2.92,-0.93,2.90,-2.90,-3.06,-3.82,-3.83,-3.83
169,-0.91,2.92,-0.95,2.88,-2.88,-3.03,-3.79,-3.83,-3.83
170,-0.91,2.91,-0.97,2.85,-2.85,-3.02,-3.76,-3.83,-3.83
172,-0.91,2.91,-1.01,2.82,-2.82,-2.98,-3.73,-3.82,-3.82
174,-1.13,2.69,-1.04,2.78,-2.78,-2.95,-3.91,-3.82,-3.82
175,-1.14,2.68,-1.08,2.74,-2.74,-2.94,-3.88,-3.82,-3.82
177,-1.14,2.67,-1.11,2.71,-2.71,-2.91,-3.85,-3.81,-3.81
179,-1.14,2.67,-1.13,2.68,-2.68,-2.88,-3.82,-3.81,-3.81
181,-1.14,2.66,-1.14,2.66,-2.66,-2.84,-3.80,-3.80,-3.80
183,-1.14,2.66,-1.15,2.65,-2.65,-2.81,-3.79,-3.80,-3.80
184,-1.14,2.66,-1.15,2.65,-2.65,-2.80,-3.78,-3.80,-3.80
186,-1.14,2.65,-1.15,2.64,-2.64,-2.77,-3.78,-3.79,-3.79
188,-1.14,2.65,-1.15,2.64,-2.64,-2.74,-3.78,-3.79,-3.79
190,-1.14,2.64,-1.14,2.64,-2.64,-2.71,-3.78,-3.78,-3.78
192,-1.14,2.64,-1.14,2.64,-2.64,-2.68,-3.78,-3.78,-3.78
194,-1.14,2.63,-1.14,2.63,-2.63,-2.65,-3.77,-3.77,-3.77
196,-1.14,2.63,-1.14,2.63,-2.63,-2.62,-3.77,-3.77,-3.77
198,-1.14,2.62,-1.14,2.62,-2.62,-2.59,-3.76,-3.76,-3.76
200,-1.14,2.62,-1.14,2.62,-2.62,-2.56,-3.76,-3.76,-3.76
202,-1.14,2.61,-1.14,2.61,-2.61,-2.53,-3.75,-3.75,-3.75
204,-1.14,2.61,-1.14,2.61,-2.61,-2.51,-3.75,-3.75,-3.75
206,-1.14,2.60,-1.13,2.61,-2.61,-2.48,-3.74,-3.74,-3.74
208,-1.14,2.59,-1.13,2.60,-2.60,-2.45,-3.74,-3.73,-3.73
210,-1.14,2.59,-1.13,2.60,-2.60,-2.42,-3.74,-3.73,-3.73
212,-1.14,2.58,-1.13,2.59,-2.59,-2.40,-3.73,-3.72,-3.72
214,-1.14,2.57,-1.13,2.58,-2.58,-2.37,-3.72,-3.71,-3.71
216,-1.14,2.57,-1.15,2.56,-2.56,-2.34,-3.70,-3.71,-3.71
218,-1.14,2.56,-1.16,2.54,-2.54,-2.32,-3.68,-3.70,-3.70
221,-1.14,2.55,-1.19,2.50,-2.50,-2.28,-3.64,-3.69,-3.69
223,-1.14,2.55,-1.22,2.46,-2.46,-2.25,-3.60,-3.69,-3.69
225,-1.29,2.39,-1.26,2.42,-2.42,-2.23,-3.71,-3.68,-3.68
227,-1.37,2.30,-1.29,2.38,-2.38,-2.20,-3.74,-3.67,-3.67
229,-1.37,2.30,-1.32,2.34,-2.34,-2.18,-3.71,-3.66,-3.66
232,-1.37,2.29,-1.35,2.31,-2.31,-2.14,-3.67,-3.65,-3.65
234,-1.37,2.28,-1.37,2.28,-2.28,-2.12,-3.65,-3.65,-3.65
236,-1.37,2.27,-1.38,2.26,-2.26,-2.09,-3.63,-3.64,-3.64
239,-1.37,2.26,-1.38,2.25,-2.25,-2.06,-3.62,-3.63,-3.63
241,-1.37,2.25,-1.38,2.24,-2.24,-2.04,-3.61,-3.62,-3.62
244,-1.37,2.24,-1.37,2.24,-2.24,-2.00,-3.60,-3.61,-3.61
246,-1.37,2.24,-1.37,2.23,-2.23,-1.98,-3.60,-3.60,-3.60
248,-1.37,2.23,-1.37,2.22,-2.22,-1.96,-3.59,-3.59,-3.59
251,-1.37,2.22,-1.37,2.22,-2.22,-1.93,-3.58,-3.58,-3.58
253,-1.37,2.21,-1.37,2.21,-2.21,-1.91,-3.58,-3.57,-3.57
256,-1.37,2.20,-1.37,2.20,-2.20,-1.87,-3.57,-3.56,-3.56
259,-1.37,2.19,-1.37,2.19,-2.19,-1.84,-3.55,-3.55,-3.55
261,-1.37,2.18,-1.37,2.18,-2.18,-1.82,-3.54,-3.54,-3.54
264,-1.37,2.17,-1.37,2.17,-2.17,-1.79,-3.53,-3.53,-3.53
266,-1.37,2.15,-1.37,2.15,-2.15,-1.77,-3.52,-3.52,-3.52
269,-1.37,2.14,-1.37,2.14,-2.14,-1.74,-3.51,-3.51,-3.51
272,-1.37,2.13,-1.37,2.13,-2.13,-1.72,-3.50,-3.50,-3.50
274,-1.37,2.12,-1.37,2.12,-2.12,-1.70,-3.49,-3.49,-3.49
277,-1.37,2.11,-1.37,2.11,-2.11,-1.67,-3.48,-3.48,-3.48
280,-1.37,2.10,-1.37,2.09,-2.09,-1.64,-3.46,-3.46,-3.46
283,-1.37,2.08,-1.37,2.08,-2.08,-1.62,-3.45,-3.45,-3.45
286,-1.37,2.07,-1.37,2.07,-2.07,-1.59,-3.44,-3.44,-3.44
288,-1.37,2.06,-1.37,2.06,-2.06,-1.57,-3.42,-3.42,-3.42
291,-1.37,2.04,-1.37,2.04,-2.04,-1.55,-3.41,-3.41,-3.41
294,-1.37,2.03,-1.37,2.03,-2.03,-1.52,-3.40,-3.40,-3.40
297,-1.37,2.01,-1.36,2.02,-2.02,-1.50,-3.39,-3.38,-3.38
300,-1.37,2.00,-1.36,2.01,-2.01,-1.47,-3.37,-3.37,-3.37
303,-1.37,1.98,-1.36,1.99,-1.99,-1.45,-3.36,-3.35,-3.35
306,-1.37,1.97,-1.36,1.98,-1.98,-1.43,-3.35,-3.33,-3.33
309,-1.37,1.95,-1.36,1.96,-1.96,-1.40,-3.33,-3.32,-3.32
312,-1.37,1.93,-1.37,1.93,-1.93,-1.38,-3.30,-3.30,-3.30
316,-1.37,1.92,-1.39,1.89,-1.89,-1.35,-3.26,-3.28,-3.28
319,-1.37,1.90,-1.42,1.85,-1.85,-1.33,-3.21,-3.27,-3.27
322,-1.38,1.87,-1.46,1.79,-1.79,-1.31,-3.17,-3.25,-3.25
325,-1.60,1.63,-1.51,1.72,-1.72,-1.29,-3.32,-3.23,-3.23
328,-1.60,1.61,-1.56,1.65,-1.65,-1.27,-3.25,-3.21,-3.21
332,-1.60,1.60,-1.62,1.58,-1.58,-1.24,-3.17,-3.19,-3.19
335,-1.60,1.58,-1.67,1.50,-1.50,-1.22,-3.10,-3.17,-3.17
338,-1.75,1.41,-1.72,1.43,-1.43,-1.20,-3.18,-3.15,-3.15
342,-1.82,1.31,-1.76,1.37,-1.37,-1.18,-3.19,-3.13,-3.13
345,-1.82,1.28,-1.79,1.32,-1.32,-1.16,-3.14,-3.11,-3.11
349,-1.82,1.26,-1.81,1.27,-1.27,-1.13,-3.10,-3.09,-3.09
352,-1.82,1.24,-1.83,1.24,-1.24,-1.12,-3.06,-3.06,-3.06
356,-1.82,1.22,-1.83,1.21,-1.21,-1.09,-3.03,-3.04,-3.04
359,-1.82,1.19,-1.83,1.18,-1.18,-1.08,-3.01,-3.02,-3.02
363,-1.82,1.17,-1.83,1.16,-1.16,-1.05,-2.98,-2.99,-2.99
366,-1.82,1.15,-1.83,1.14,-1.14,-1.04,-2.96,-2.97,-2.97
370,-1.82,1.12,-1.83,1.12,-1.12,-1.01,-2.94,-2.94,-2.94
374,-1.82,1.10,-1.82,1.10,-1.10,-0.99,-2.92,-2.92,-2.92
377,-1.82,1.07,-1.82,1.07,-1.07,-0.97,-2.89,-2.89,-2.89
381,-1.82,1.04,-1.83,1.04,-1.04,-0.95,-2.86,-2.87,-2.87
385,-1.82,1.02,-1.83,1.01,-1.01,-0.93,-2.83,-2.84,-2.84
389,-1.82,0.99,-1.83,0.98,-0.98,-0.91,-2.80,-2.81,-2.81
393,-1.82,0.96,-1.83,0.95,-0.95,-0.89,-2.77,-2.78,-2.78
397,-1.82,0.93,-1.83,0.92,-0.92,-0.87,-2.74,-2.75,-2.75
401,-1.82,0.90,-1.83,0.90,-0.90,-0.85,-2.72,-2.73,-2.73
405,-1.82,0.87,-1.81,0.88,-0.88,-0.83,-2.71,-2.70,-2.70
409,-1.82,0.84,-1.79,0.87,-0.87,-0.81,-2.70,-2.67,-2.67
413,-1.82,0.81,-1.76,0.87,-0.87,-0.79,-2.70,-2.63,-2.63
417,-1.82,0.78,-1.73,0.88,-0.88,-0.77,-2.70,-2.60,-2.60
421,-1.60,0.98,-1.69,0.88,-0.88,-0.76,-2.47,-2.57,-2.57
425,-1.60,0.94,-1.66,0.88,-0.88,-0.74,-2.48,-2.54,-2.54
430,-1.60,0.91,-1.63,0.88,-0.88,-0.71,-2.47,-2.50,-2.50
434,-1.60,0.88,-1.61,0.86,-0.86,-0.70,-2.46,-2.47,-2.47
438,-1.60,0.84,-1.59,0.84,-0.84,-0.68,-2.44,-2.44,-2.44
443,-1.60,0.81,-1.59,0.82,-0.82,-0.66,-2.41,-2.40,-2.40
447,-1.60,0.77,-1.58,0.78,-0.78,-0.64,-2.38,-2.37,-2.37
451,-1.60,0.73,-1.59,0.74,-0.74,-0.62,-2.34,-2.33,-2.33
456,-1.60,0.70,-1.59,0.70,-0.70,-0.60,-2.30,-2.29,-2.29
460,-1.60,0.66,-1.59,0.66,-0.66,-0.58,-2.26,-2.25,-2.25
465,-1.60,0.62,-1.59,0.62,-0.62,-0.56,-2.22,-2.22,-2.22
470,-1.60,0.58,-1.60,0.58,-0.58,-0.54,-2.18,-2.18,-2.18
474,-1.60,0.54,-1.60,0.54,-0.54,-0.52,-2.14,-2.14,-2.14
479,-1.60,0.50,-1.60,0.50,-0.50,-0.50,-2.10,-2.10,-2.10
484,-1.60,0.46,-1.60,0.46,-0.46,-0.47,-2.06,-2.06,-2.06
489,-1.60,0.42,-1.60,0.42,-0.42,-0.45,-2.02,-2.02,-2.02
494,-1.60,0.38,-1.60,0.38,-0.38,-0.43,-1.97,-1.98,-1.98
499,-1.60,0.34,-1.60,0.33,-0.33,-0.40,-1.93,-1.94,-1.94
504,-1.60,0.30,-1.60,0.29,-0.29,-0.38,-1.88,-1.89,-1.89
509,-1.60,0.26,-1.61,0.24,-0.24,-0.36,-1.84,-1.85,-1.85
514,-1.60,0.21,-1.61,0.20,-0.20,-0.33,-1.80,-1.81,-1.81
519,-1.60,0.17,-1.60,0.17,-0.17,-0.31,-1.76,-1.77,-1.77
524,-1.60,0.13,-1.59,0.14,-0.14,-0.29,-1.73,-1.72,-1.72
529,-1.60,0.08,-1.57,0.11,-0.11,-0.26,-1.71,-1.68,-1.68
535,-1.60,0.04,-1.54,0.10,-0.10,-0.23,-1.69,-1.64,-1.64
540,-1.60,-0.00,-1.50,0.09,-0.09,-0.20,-1.68,-1.59,-1.59
545,-1.40,0.15,-1.47,0.08,-0.08,-0.18,-1.48,-1.55,-1.55
551,-1.37,0.14,-1.43,0.07,-0.07,-0.15,-1.44,-1.51,-1.51
556,-1.37,0.09,-1.40,0.06,-0.06,-0.12,-1.42,-1.46,-1.46
562,-1.37,0.05,-1.38,0.04,-0.04,-0.09,-1.40,-1.42,-1.42
568,-1.37,0.01,-1.37,0.01,-0.01,-0.05,-1.38,-1.38,-1.38
573,-1.37,-0.04,-1.36,-0.03,0.03,-0.02,-1.34,-1.33,-1.33
579,-1.37,-0.08,-1.36,-0.07,0.07,0.01,-1.30,-1.29,-1.29
585,-1.37,-0.12,-1.36,-0.11,0.11,0.05,-1.26,-1.25,-1.25
591,-1.37,-0.16,-1.36,-0.16,0.16,0.09,-1.21,-1.20,-1.20
596,-1.37,-0.20,-1.36,-0.20,0.20,0.12,-1.17,-1.16,-1.16
602,-1.37,-0.25,-1.37,-0.24,0.24,0.16,-1.12,-1.12,-1.12
608,-1.37,-0.29,-1.37,-0.29,0.29,0.19,-1.08,-1.08,-1.08
615,-1.37,-0.33,-1.37,-0.33,0.33,0.24,-1.04,-1.04,-1.04
621,-1.37,-0.37,-1.37,-0.37,0.37,0.28,-0.99,-1.00,-1.00
627,-1.37,-0.41,-1.38,-0.42,0.42,0.32,-0.95,-0.96,-0.96
633,-1.37,-0.45,-1.38,-0.46,0.46,0.36,-0.91,-0.92,-0.92
639,-1.37,-0.48,-1.38,-0.49,0.49,0.39,-0.87,-0.88,-0.88
646,-1.37,-0.52,-1.37,-0.52,0.52,0.44,-0.84,-0.85,-0.85
652,-1.37,-0.56,-1.36,-0.55,0.55,0.47,-0.82,-0.81,-0.81
659,-1.37,-0.59,-1.33,-0.56,0.56,0.51,-0.81,-0.77,-0.77
665,-1.37,-0.63,-1.31,-0.57,0.57,0.54,-0.80,-0.74,-0.74
672,-1.36,-0.65,-1.27,-0.57,0.57,0.58,-0.79,-0.70,-0.70
679,-1.14,-0.47,-1.24,-0.57,0.57,0.61,-0.57,-0.67,-0.67
686,-1.14,-0.50,-1.21,-0.57,0.57,0.63,-0.57,-0.64,-0.64
692,-1.14,-0.53,-1.18,-0.57,0.57,0.65,-0.57,-0.61,-0.61
699,-1.14,-0.56,-1.16,-0.58,0.58,0.67,-0.56,-0.58,-0.58
706,-1.14,-0.59,-1.13,-0.58,0.58,0.68,-0.56,-0.55,-0.55
713,-1.14,-0.62,-1.11,-0.59,0.59,0.69,-0.55,-0.52,-0.52
721,-1.14,-0.64,-1.09,-0.59,0.59,0.69,-0.55,-0.50,-0.50
728,-1.14,-0.67,-1.06,-0.59,0.59,0.69,-0.55,-0.47,-0.47
735,-1.05,-0.61,-1.03,-0.59,0.59,0.68,-0.46,-0.45,-0.45
742,-0.91,-0.49,-1.00,-0.58,0.58,0.67,-0.33,-0.42,-0.42
750,-0.91,-0.51,-0.97,-0.57,0.57,0.65,-0.34,-0.40,-0.40
757,-0.91,-0.53,-0.94,-0.56,0.56,0.63,-0.35,-0.38,-0.38
765,-0.91,-0.55,-0.91,-0.55,0.55,0.61,-0.36,-0.36,-0.36
773,-0.91,-0.57,-0.88,-0.54,0.54,0.59,-0.37,-0.34,-0.34
780,-0.91,-0.59,-0.85,-0.53,0.53,0.56,-0.38,-0.32,-0.32
788,-0.91,-0.61,-0.82,-0.52,0.52,0.53,-0.39,-0.30,-0.30
796,-0.77,-0.49,-0.79,-0.51,0.51,0.50,-0.27,-0.29,-0.29
804,-0.68,-0.41,-0.76,-0.49,0.49,0.47,-0.19,-0.27,-0.27
812,-0.68,-0.42,-0.74,-0.48,0.48,0.44,-0.21,-0.26,-0.26
820,-0.68,-0.44,-0.71,-0.46,0.46,0.41,-0.22,-0.25,-0.25
828,-0.68,-0.45,-0.68,-0.44,0.44,0.38,-0.24,-0.23,-0.23
837,-0.68,-0.46,-0.65,-0.43,0.43,0.35,-0.26,-0.22,-0.22
845,-0.68,-0.47,-0.62,-0.41,0.41,0.32,-0.27,-0.21,-0.21
853,-0.68,-0.48,-0.59,-0.39,0.39,0.30,-0.29,-0.20,-0.20
862,-0.50,-0.31,-0.56,-0.37,0.37,0.27,-0.13,-0.19,-0.19
871,-0.46,-0.28,-0.53,-0.35,0.35,0.24,-0.10,-0.18,-0.18
879,-0.46,-0.29,-0.50,-0.34,0.34,0.22,-0.12,-0.17,-0.17
888,-0.46,-0.30,-0.48,-0.32,0.32,0.19,-0.14,-0.16,-0.16
897,-0.46,-0.31,-0.45,-0.30,0.30,0.17,-0.15,-0.15,-0.15
906,-0.46,-0.32,-0.43,-0.29,0.29,0.15,-0.17,-0.14,-0.14
915,-0.46,-0.33,-0.40,-0.27,0.27,0.13,-0.19,-0.13,-0.13
924,-0.46,-0.34,-0.36,-0.24,0.24,0.11,-0.21,-0.12,-0.12
933,-0.24,-0.13,-0.32,-0.21,0.21,0.09,-0.03,-0.11,-0.11
943,-0.23,-0.13,-0.27,-0.18,0.18,0.07,-0.05,-0.09,-0.09
952,-0.23,-0.15,-0.22,-0.14,0.14,0.05,-0.09,-0.08,-0.08
962,-0.23,-0.16,-0.17,-0.10,0.10,0.04,-0.13,-0.07,-0.07
971,-0.10,-0.05,-0.12,-0.06,0.06,0.02,-0.04,-0.05,-0.05
981,-0.00,0.04,-0.06,-0.02,0.02,0.01,0.02,-0.04,-0.04
991,-0.00,0.02,-0.01,0.02,-0.02,-0.01,-0.02,-0.02,-0.02
1001,0.00,0.00,0.05,0.05,-0.05,-0.02,-0.05,-0.00,-0.00
1011,0.05,0.04,0.10,0.09,-0.09,-0.03,-0.04,0.01,0.01
1021,0.23,0.19,0.16,0.12,-0.12,-0.05,0.11,0.04,0.04
1031,0.23,0.17,0.21,0.15,-0.15,-0.06,0.08,0.06,0.06
1041,0.23,0.14,0.26,0.17,-0.17,-0.07,0.06,0.08,0.08
1052,0.23,0.12,0.30,0.19,-0.19,-0.08,0.04,0.11,0.11
1062,0.43,0.29,0.35,0.21,-0.21,-0.09,0.23,0.14,0.14
1073,0.46,0.28,0.40,0.22,-0.22,-0.11,0.23,0.17,0.17
1084,0.46,0.25,0.44,0.23,-0.23,-0.12,0.22,0.21,0.21
1094,0.46,0.21,0.49,0.25,-0.25,-0.13,0.21,0.25,0.25
1105,0.46,0.17,0.55,0.26,-0.26,-0.14,0.19,0.29,0.29
1116,0.60,0.27,0.61,0.28,-0.28,-0.15,0.32,0.33,0.33
1128,0.68,0.31,0.67,0.30,-0.30,-0.16,0.39,0.38,0.38
1139,0.68,0.26,0.74,0.32,-0.32,-0.17,0.37,0.43,0.43
1150,0.91,0.43,0.82,0.34,-0.34,-0.18,0.58,0.48,0.48
1162,0.91,0.37,0.89,0.35,-0.35,-0.19,0.56,0.54,0.54
1173,0.91,0.31,0.95,0.35,-0.35,-0.20,0.56,0.60,0.60
1185,1.04,0.37,1.01,0.35,-0.35,-0.21,0.69,0.67,0.67
1197,1.14,0.40,1.07,0.33,-0.33,-0.22,0.81,0.74,0.74
1209,1.14,0.33,1.13,0.32,-0.32,-0.23,0.82,0.81,0.81
1221,1.14,0.25,1.18,0.30,-0.30,-0.24,0.84,0.89,0.89
1233,1.17,0.21,1.25,0.28,-0.28,-0.25,0.90,0.97,0.97
1246,1.37,0.31,1.31,0.26,-0.26,-0.26,1.11,1.05,1.05
1258,1.37,0.23,1.39,0.25,-0.25,-0.27,1.12,1.14,1.14
1271,1.37,0.13,1.48,0.24,-0.24,-0.28,1.13,1.23,1.23
1283,1.54,0.21,1.57,0.24,-0.24,-0.29,1.30,1.33,1.33
1296,1.80,0.38,1.66,0.23,-0.23,-0.30,1.57,1.43,1.43
1309,1.82,0.30,1.75,0.23,-0.23,-0.31,1.59,1.53,1.53
1322,1.82,0.20,1.85,0.22,-0.22,-0.32,1.60,1.63,1.63
1335,1.90,0.17,1.94,0.21,-0.21,-0.34,1.69,1.73,1.73
1349,2.05,0.22,2.03,0.20,-0.20,-0.35,1.86,1.83,1.83
1362,2.05,0.11,2.12,0.18,-0.18,-0.36,1.87,1.94,1.94
1376,2.24,0.20,2.21,0.17,-0.17,-0.38,2.07,2.04,2.04
1390,2.28,0.14,2.30,0.16,-0.16,-0.39,2.12,2.14,2.14
1404,2.51,0.26,2.40,0.16,-0.16,-0.41,2.35,2.24,2.24
1418,2.51,0.17,2.51,0.17,-0.17,-0.42,2.34,2.34,2.34
1432,2.51,0.07,2.61,0.18,-0.18,-0.44,2.33,2.44,2.44
1446,2.63,0.10,2.72,0.19,-0.19,-0.46,2.44,2.53,2.53
1461,2.91,0.28,2.83,0.21,-0.21,-0.48,2.69,2.62,2.62
1475,2.96,0.25,2.94,0.24,-0.24,-0.50,2.73,2.71,2.71
1490,3.19,0.40,3.05,0.26,-0.26,-0.52,2.93,2.79,2.79
1505,3.19,0.32,3.17,0.30,-0.30,-0.54,2.89,2.87,2.87
1520,3.19,0.24,3.28,0.34,-0.34,-0.56,2.85,2.95,2.95
1535,3.29,0.28,3.40,0.38,-0.38,-0.59,2.91,3.02,3.02
1550,3.55,0.46,3.53,0.44,-0.44,-0.62,3.11,3.09,3.09
1566,3.65,0.50,3.66,0.51,-0.51,-0.65,3.14,3.15,3.15
1582,3.86,0.65,3.79,0.58,-0.58,-0.68,3.28,3.21,3.21
1597,3.88,0.61,3.93,0.66,-0.66,-0.71,3.22,3.27,3.27
