frequency,raw,error,smoothed,error_smoothed,equalization,parametric_eq,fixed_band_eq,equalized_raw,equalized_smoothed,target
20.00,-22.40,-18.49,-22.41,-18.52,6.00,5.60,2.70,-16.40,-16.41,-3.91
20.20,-22.24,-18.42,-22.25,-18.44,6.00,5.62,2.78,-16.24,-16.25,-3.82
20.40,-22.08,-18.34,-22.08,-18.35,6.00,5.65,2.86,-16.08,-16.08,-3.74
20.61,-21.93,-18.25,-21.92,-18.26,6.00,5.67,2.94,-15.93,-15.92,-3.67
20.81,-21.76,-18.18,-21.76,-18.16,6.00,5.69,3.03,-15.76,-15.76,-3.58
21.02,-21.59,-18.09,-21.60,-18.06,6.00,5.71,3.11,-15.59,-15.60,-3.50
21.23,-21.43,-17.99,-21.43,-17.97,6.00,5.73,3.20,-15.43,-15.43,-3.44
21.44,-21.27,-17.89,-21.27,-17.86,6.00,5.75,3.30,-15.27,-15.27,-3.38
21.66,-21.12,-17.78,-21.11,-17.76,6.00,5.76,3.39,-15.12,-15.11,-3.34
21.87,-20.94,-17.66,-20.95,-17.65,6.00,5.78,3.49,-14.94,-14.95,-3.28
22.09,-20.78,-17.55,-20.79,-17.55,6.00,5.80,3.59,-14.78,-14.79,-3.23
22.31,-20.62,-17.44,-20.62,-17.44,6.00,5.82,3.69,-14.62,-14.62,-3.19
22.54,-20.47,-17.32,-20.46,-17.32,6.00,5.84,3.80,-14.47,-14.46,-3.15
22.76,-20.30,-17.20,-20.30,-17.20,6.00,5.85,3.91,-14.30,-14.30,-3.11
22.99,-20.15,-17.07,-20.14,-17.08,6.00,5.87,4.02,-14.15,-14.14,-3.08
23.22,-19.99,-16.95,-19.98,-16.95,6.00,5.89,4.13,-13.99,-13.98,-3.04
23.45,-19.81,-16.82,-19.82,-16.83,6.00,5.90,4.25,-13.81,-13.82,-3.00
23.69,-19.66,-16.70,-19.66,-16.71,6.00,5.92,4.37,-13.66,-13.66,-2.96
23.92,-19.49,-16.58,-19.50,-16.58,6.00,5.94,4.49,-13.49,-13.50,-2.92
24.16,-19.33,-16.46,-19.34,-16.46,6.00,5.95,4.62,-13.33,-13.34,-2.87
24.40,-19.17,-16.33,-19.18,-16.33,6.00,5.97,4.74,-13.17,-13.18,-2.84
24.65,-19.03,-16.22,-19.02,-16.21,6.00,5.98,4.87,-13.03,-13.02,-2.81
24.89,-18.86,-16.08,-18.86,-16.09,6.00,5.99,5.00,-12.86,-12.86,-2.78
25.14,-18.70,-15.96,-18.71,-15.96,6.00,6.01,5.13,-12.70,-12.71,-2.74
25.39,-18.55,-15.84,-18.55,-15.84,6.00,6.02,5.27,-12.55,-12.55,-2.71
25.65,-18.40,-15.72,-18.40,-15.72,6.00,6.03,5.40,-12.40,-12.40,-2.67
25.91,-18.25,-15.59,-18.24,-15.60,6.00,6.05,5.54,-12.25,-12.24,-2.65
26.16,-18.08,-15.46,-18.09,-15.48,6.00,6.06,5.67,-12.08,-12.09,-2.62
26.43,-17.94,-15.35,-17.94,-15.35,6.00,6.07,5.81,-11.94,-11.94,-2.58
26.69,-17.78,-15.23,-17.79,-15.23,6.00,6.08,5.94,-11.78,-11.79,-2.55
26.96,-17.64,-15.11,-17.64,-15.11,6.00,6.09,6.08,-11.64,-11.64,-2.52
27.23,-17.50,-15.01,-17.49,-14.99,6.00,6.10,6.21,-11.50,-11.49,-2.49
27.50,-17.35,-14.89,-17.34,-14.88,6.00,6.11,6.34,-11.35,-11.34,-2.46
27.77,-17.19,-14.76,-17.19,-14.76,6.00,6.12,6.46,-11.19,-11.19,-2.44
28.05,-17.04,-14.65,-17.05,-14.64,6.00,6.13,6.58,-11.04,-11.05,-2.40
28.33,-16.90,-14.53,-16.90,-14.53,6.00,6.14,6.70,-10.90,-10.90,-2.38
28.62,-16.77,-14.42,-16.76,-14.42,6.00,6.15,6.81,-10.77,-10.76,-2.35
28.90,-16.62,-14.31,-16.62,-14.31,6.00,6.16,6.92,-10.62,-10.62,-2.31
29.19,-16.48,-14.19,-16.49,-14.20,6.00,6.17,7.01,-10.48,-10.49,-2.29
29.48,-16.34,-14.10,-16.35,-14.10,6.00,6.17,7.10,-10.34,-10.35,-2.24
29.78,-16.21,-13.98,-16.22,-14.00,6.00,6.18,7.18,-10.21,-10.22,-2.22
30.08,-16.08,-13.88,-16.09,-13.90,6.00,6.19,7.25,-10.08,-10.09,-2.19
30.38,-15.97,-13.80,-15.97,-13.80,6.00,6.20,7.32,-9.97,-9.97,-2.17
30.68,-15.84,-13.71,-15.85,-13.71,6.00,6.20,7.37,-9.84,-9.85,-2.14
30.99,-15.74,-13.62,-15.73,-13.62,6.00,6.21,7.41,-9.74,-9.73,-2.12
31.30,-15.62,-13.53,-15.61,-13.53,6.00,6.21,7.44,-9.62,-9.61,-2.09
31.61,-15.50,-13.45,-15.50,-13.44,6.00,6.22,7.46,-9.50,-9.50,-2.06
31.93,-15.40,-13.36,-15.39,-13.35,6.00,6.22,7.47,-9.40,-9.39,-2.04
32.24,-15.28,-13.26,-15.28,-13.26,6.00,6.23,7.47,-9.28,-9.28,-2.02
32.57,-15.18,-13.18,-15.17,-13.18,6.00,6.23,7.45,-9.18,-9.17,-1.99
32.89,-15.06,-13.10,-15.06,-13.09,6.00,6.23,7.43,-9.06,-9.06,-1.96
33.22,-14.95,-13.01,-14.96,-13.01,6.00,6.24,7.40,-8.95,-8.96,-1.95
33.55,-14.85,-12.93,-14.86,-12.93,6.00,6.24,7.37,-8.85,-8.86,-1.93
33.89,-14.75,-12.83,-14.76,-12.84,6.00,6.24,7.32,-8.75,-8.76,-1.92
34.23,-14.66,-12.76,-14.66,-12.76,6.00,6.24,7.27,-8.66,-8.66,-1.89
34.57,-14.55,-12.67,-14.56,-12.67,6.00,6.24,7.21,-8.55,-8.56,-1.88
34.92,-14.46,-12.58,-14.46,-12.59,6.00,6.25,7.15,-8.46,-8.46,-1.88
35.27,-14.37,-12.51,-14.37,-12.51,6.00,6.25,7.08,-8.37,-8.37,-1.86
35.62,-14.28,-12.42,-14.28,-12.42,6.00,6.25,7.01,-8.28,-8.28,-1.86
35.97,-14.19,-12.34,-14.19,-12.34,6.00,6.25,6.93,-8.19,-8.19,-1.85
36.33,-14.10,-12.27,-14.10,-12.25,6.00,6.25,6.86,-8.10,-8.10,-1.83
36.70,-14.01,-12.17,-14.01,-12.17,6.00,6.25,6.78,-8.01,-8.01,-1.84
37.06,-13.91,-12.08,-13.92,-12.08,6.00,6.24,6.70,-7.91,-7.92,-1.84
37.43,-13.82,-11.99,-13.83,-11.99,6.00,6.24,6.63,-7.82,-7.83,-1.83
37.81,-13.74,-11.91,-13.74,-11.90,6.00,6.24,6.55,-7.74,-7.74,-1.83
38.19,-13.65,-11.81,-13.65,-11.81,6.00,6.24,6.47,-7.65,-7.65,-1.84
38.57,-13.55,-11.73,-13.56,-11.72,6.00,6.24,6.40,-7.55,-7.56,-1.83
38.95,-13.46,-11.63,-13.46,-11.63,6.00,6.23,6.33,-7.46,-7.46,-1.83
39.34,-13.37,-11.53,-13.37,-11.53,6.00,6.23,6.26,-7.37,-7.37,-1.84
39.74,-13.28,-11.43,-13.28,-11.44,6.00,6.23,6.19,-7.28,-7.28,-1.85
40.14,-13.19,-11.34,-13.18,-11.34,6.00,6.22,6.13,-7.19,-7.18,-1.85
40.54,-13.09,-11.23,-13.08,-11.23,6.00,6.22,6.07,-7.09,-7.08,-1.85
40.94,-12.98,-11.13,-12.99,-11.13,6.00,6.21,6.02,-6.98,-6.99,-1.86
41.35,-12.89,-11.03,-12.89,-11.03,6.00,6.21,5.96,-6.89,-6.89,-1.86
41.76,-12.79,-10.93,-12.79,-10.92,6.00,6.20,5.92,-6.79,-6.79,-1.86
42.18,-12.68,-10.82,-12.68,-10.81,6.00,6.20,5.87,-6.68,-6.68,-1.87
42.60,-12.58,-10.70,-12.58,-10.70,6.00,6.19,5.83,-6.58,-6.58,-1.88
43.03,-12.47,-10.60,-12.47,-10.58,6.00,6.18,5.80,-6.47,-6.47,-1.88
43.46,-12.36,-10.47,-12.37,-10.47,6.00,6.17,5.76,-6.36,-6.37,-1.89
43.90,-12.26,-10.35,-12.26,-10.35,6.00,6.17,5.74,-6.26,-6.26,-1.91
44.33,-12.14,-10.22,-12.15,-10.24,6.00,6.16,5.72,-6.14,-6.15,-1.92
44.78,-12.04,-10.11,-12.04,-10.12,6.00,6.15,5.70,-6.04,-6.04,-1.93
45.23,-11.94,-10.00,-11.93,-10.00,6.00,6.14,5.68,-5.94,-5.93,-1.94
45.68,-11.83,-9.88,-11.82,-9.88,6.00,6.13,5.67,-5.83,-5.82,-1.95
46.13,-11.71,-9.76,-11.71,-9.76,6.00,6.12,5.67,-5.71,-5.71,-1.95
46.60,-11.60,-9.65,-11.59,-9.64,6.00,6.11,5.67,-5.60,-5.59,-1.95
47.06,-11.48,-9.53,-11.48,-9.52,6.00,6.10,5.67,-5.48,-5.48,-1.95
47.53,-11.36,-9.41,-11.36,-9.40,6.00,6.09,5.68,-5.36,-5.36,-1.96
48.01,-11.26,-9.30,-11.25,-9.28,6.00,6.08,5.69,-5.26,-5.25,-1.96
48.49,-11.14,-9.17,-11.13,-9.16,6.00,6.07,5.70,-5.14,-5.13,-1.96
48.97,-11.01,-9.05,-11.01,-9.04,6.00,6.06,5.72,-5.01,-5.01,-1.97
49.46,-10.89,-8.91,-10.89,-8.92,6.00,6.05,5.74,-4.89,-4.89,-1.99
49.96,-10.78,-8.78,-10.78,-8.80,6.00,6.04,5.76,-4.78,-4.78,-1.99
50.46,-10.66,-8.67,-10.66,-8.68,6.00,6.02,5.79,-4.66,-4.66,-1.98
50.96,-10.54,-8.58,-10.54,-8.57,6.00,6.01,5.82,-4.54,-4.54,-1.97
51.47,-10.42,-8.45,-10.42,-8.45,6.00,6.00,5.85,-4.42,-4.42,-1.98
51.99,-10.30,-8.32,-10.31,-8.33,6.00,5.98,5.89,-4.30,-4.31,-1.98
52.51,-10.19,-8.22,-10.19,-8.22,6.00,5.97,5.92,-4.19,-4.19,-1.96
53.03,-10.07,-8.11,-10.08,-8.11,6.00,5.96,5.96,-4.07,-4.08,-1.96
53.56,-9.96,-8.00,-9.97,-7.99,6.00,5.94,5.99,-3.96,-3.97,-1.96
54.10,-9.86,-7.89,-9.86,-7.89,6.00,5.93,6.03,-3.86,-3.86,-1.96
54.64,-9.75,-7.77,-9.75,-7.78,6.00,5.91,6.07,-3.75,-3.75,-1.97
55.18,-9.64,-7.67,-9.65,-7.67,6.00,5.89,6.10,-3.64,-3.65,-1.97
55.74,-9.55,-7.56,-9.54,-7.57,6.00,5.88,6.14,-3.55,-3.54,-1.98
56.29,-9.45,-7.47,-9.45,-7.46,6.00,5.86,6.17,-3.45,-3.45,-1.99
56.86,-9.36,-7.36,-9.35,-7.36,6.00,5.85,6.20,-3.36,-3.35,-2.00
57.42,-9.25,-7.25,-9.25,-7.25,6.00,5.83,6.23,-3.25,-3.25,-2.01
58.00,-9.15,-7.14,-9.16,-7.15,6.00,5.81,6.25,-3.15,-3.16,-2.01
58.58,-9.06,-7.04,-9.07,-7.04,6.00,5.79,6.27,-3.06,-3.07,-2.02
59.16,-8.98,-6.96,-8.98,-6.94,6.00,5.78,6.29,-2.98,-2.98,-2.03
59.76,-8.90,-6.85,-8.90,-6.84,6.00,5.76,6.30,-2.90,-2.90,-2.04
60.35,-8.81,-6.75,-8.81,-6.74,6.00,5.74,6.31,-2.81,-2.81,-2.06
60.96,-8.74,-6.67,-8.74,-6.65,6.00,5.72,6.31,-2.74,-2.74,-2.07
61.57,-8.66,-6.55,-8.66,-6.56,6.00,5.70,6.31,-2.66,-2.66,-2.10
62.18,-8.58,-6.45,-8.58,-6.47,6.00,5.68,6.30,-2.58,-2.58,-2.13
62.80,-8.50,-6.37,-8.51,-6.38,6.00,5.66,6.28,-2.50,-2.51,-2.14
63.43,-8.43,-6.27,-8.44,-6.30,6.00,5.64,6.26,-2.43,-2.44,-2.16
64.07,-8.37,-6.20,-8.37,-6.22,5.99,5.62,6.23,-2.37,-2.38,-2.17
64.71,-8.31,-6.14,-8.31,-6.14,5.98,5.60,6.20,-2.33,-2.33,-2.18
65.35,-8.25,-6.07,-8.24,-6.07,5.96,5.58,6.16,-2.30,-2.28,-2.18
66.01,-8.19,-6.01,-8.18,-6.00,5.93,5.56,6.12,-2.26,-2.25,-2.18
66.67,-8.12,-5.94,-8.12,-5.94,5.90,5.54,6.07,-2.23,-2.22,-2.18
67.33,-8.06,-5.88,-8.06,-5.88,5.86,5.51,6.02,-2.21,-2.20,-2.18
68.01,-8.00,-5.82,-8.00,-5.82,5.81,5.49,5.96,-2.19,-2.19,-2.18
68.69,-7.93,-5.75,-7.94,-5.76,5.76,5.47,5.90,-2.17,-2.18,-2.18
69.37,-7.87,-5.70,-7.89,-5.71,5.71,5.45,5.84,-2.16,-2.18,-2.17
70.07,-7.82,-5.65,-7.84,-5.66,5.66,5.43,5.77,-2.16,-2.17,-2.18
70.77,-7.77,-5.62,-7.78,-5.61,5.61,5.40,5.71,-2.16,-2.17,-2.16
71.48,-7.73,-5.57,-7.73,-5.56,5.56,5.38,5.64,-2.17,-2.17,-2.16
72.19,-7.68,-5.52,-7.68,-5.51,5.51,5.36,5.57,-2.17,-2.17,-2.16
72.91,-7.64,-5.49,-7.63,-5.46,5.46,5.33,5.50,-2.18,-2.17,-2.16
73.64,-7.58,-5.42,-7.58,-5.42,5.42,5.31,5.42,-2.17,-2.16,-2.16
74.38,-7.54,-5.39,-7.54,-5.37,5.37,5.28,5.35,-2.17,-2.16,-2.16
75.12,-7.49,-5.33,-7.49,-5.33,5.33,5.26,5.28,-2.17,-2.16,-2.17
75.87,-7.45,-5.29,-7.45,-5.28,5.28,5.23,5.21,-2.17,-2.16,-2.16
76.63,-7.40,-5.25,-7.41,-5.24,5.24,5.21,5.14,-2.16,-2.16,-2.16
77.40,-7.36,-5.20,-7.37,-5.21,5.21,5.19,5.08,-2.16,-2.16,-2.17
78.17,-7.32,-5.15,-7.33,-5.17,5.17,5.16,5.01,-2.15,-2.16,-2.17
78.95,-7.28,-5.13,-7.30,-5.14,5.14,5.13,4.95,-2.14,-2.16,-2.15
79.74,-7.26,-5.11,-7.27,-5.12,5.12,5.11,4.89,-2.15,-2.15,-2.15
80.54,-7.22,-5.07,-7.24,-5.09,5.09,5.08,4.83,-2.13,-2.15,-2.15
81.35,-7.19,-5.05,-7.21,-5.07,5.07,5.06,4.77,-2.12,-2.14,-2.14
82.16,-7.17,-5.04,-7.18,-5.06,5.06,5.03,4.72,-2.12,-2.13,-2.14
82.98,-7.16,-5.05,-7.16,-5.04,5.04,5.01,4.67,-2.12,-2.12,-2.12
83.81,-7.14,-5.03,-7.13,-5.03,5.03,4.98,4.62,-2.11,-2.10,-2.11
84.65,-7.12,-5.02,-7.11,-5.02,5.02,4.95,4.58,-2.10,-2.09,-2.10
85.50,-7.10,-5.03,-7.09,-5.01,5.01,4.93,4.54,-2.09,-2.08,-2.08
86.35,-7.07,-5.01,-7.06,-5.00,5.00,4.90,4.50,-2.08,-2.06,-2.06
87.22,-7.03,-4.98,-7.04,-4.99,4.99,4.87,4.46,-2.05,-2.05,-2.05
88.09,-7.01,-4.98,-7.01,-4.97,4.97,4.85,4.43,-2.04,-2.04,-2.04
88.97,-6.98,-4.96,-6.99,-4.95,4.95,4.82,4.40,-2.03,-2.03,-2.02
89.86,-6.95,-4.93,-6.96,-4.93,4.93,4.79,4.38,-2.02,-2.03,-2.02
90.76,-6.93,-4.91,-6.93,-4.90,4.90,4.77,4.36,-2.03,-2.03,-2.03
91.66,-6.91,-4.89,-6.90,-4.87,4.87,4.74,4.34,-2.04,-2.03,-2.02
92.58,-6.88,-4.84,-6.87,-4.84,4.84,4.71,4.33,-2.05,-2.04,-2.04
93.51,-6.84,-4.81,-6.85,-4.80,4.80,4.69,4.31,-2.05,-2.05,-2.04
94.44,-6.82,-4.77,-6.82,-4.76,4.76,4.66,4.31,-2.07,-2.06,-2.05
95.39,-6.79,-4.72,-6.80,-4.72,4.72,4.63,4.30,-2.08,-2.09,-2.07
96.34,-6.77,-4.67,-6.79,-4.68,4.68,4.61,4.30,-2.10,-2.11,-2.10
97.30,-6.75,-4.62,-6.77,-4.64,4.64,4.58,4.30,-2.12,-2.14,-2.14
98.28,-6.74,-4.58,-6.76,-4.59,4.59,4.56,4.30,-2.15,-2.17,-2.17
99.26,-6.73,-4.53,-6.75,-4.54,4.54,4.53,4.31,-2.19,-2.21,-2.21
100.25,-6.73,-4.49,-6.74,-4.50,4.50,4.50,4.31,-2.24,-2.24,-2.25
101.25,-6.73,-4.45,-6.73,-4.45,4.45,4.48,4.32,-2.28,-2.28,-2.29
102.27,-6.74,-4.42,-6.73,-4.41,4.41,4.45,4.33,-2.34,-2.32,-2.32
103.29,-6.75,-4.38,-6.73,-4.36,4.36,4.42,4.35,-2.39,-2.36,-2.37
104.32,-6.75,-4.35,-6.73,-4.32,4.32,4.40,4.36,-2.43,-2.41,-2.40
105.37,-6.75,-4.30,-6.73,-4.28,4.28,4.37,4.38,-2.47,-2.45,-2.45
106.42,-6.74,-4.25,-6.74,-4.25,4.25,4.35,4.40,-2.50,-2.49,-2.49
107.48,-6.73,-4.20,-6.74,-4.21,4.21,4.32,4.42,-2.52,-2.53,-2.53
108.56,-6.73,-4.16,-6.75,-4.19,4.19,4.30,4.43,-2.55,-2.57,-2.57
109.64,-6.74,-4.13,-6.77,-4.16,4.16,4.27,4.45,-2.58,-2.61,-2.61
110.74,-6.75,-4.12,-6.78,-4.14,4.14,4.25,4.47,-2.61,-2.64,-2.64
111.85,-6.78,-4.12,-6.80,-4.13,4.13,4.23,4.49,-2.66,-2.68,-2.67
112.97,-6.81,-4.10,-6.82,-4.11,4.11,4.20,4.51,-2.70,-2.71,-2.72
114.10,-6.84,-4.11,-6.85,-4.11,4.11,4.18,4.52,-2.74,-2.74,-2.74
115.24,-6.87,-4.10,-6.88,-4.11,4.11,4.16,4.54,-2.76,-2.77,-2.77
116.39,-6.90,-4.10,-6.91,-4.12,4.12,4.13,4.55,-2.79,-2.79,-2.80
117.55,-6.93,-4.12,-6.94,-4.13,4.13,4.11,4.56,-2.81,-2.81,-2.82
118.73,-6.96,-4.12,-6.97,-4.14,4.14,4.09,4.57,-2.83,-2.83,-2.85
119.92,-7.01,-4.16,-7.00,-4.14,4.14,4.07,4.58,-2.87,-2.85,-2.85
121.12,-7.03,-4.16,-7.02,-4.15,4.15,4.05,4.58,-2.88,-2.87,-2.87
122.33,-7.05,-4.17,-7.04,-4.15,4.15,4.03,4.58,-2.90,-2.88,-2.89
123.55,-7.07,-4.18,-7.05,-4.15,4.15,4.01,4.58,-2.92,-2.90,-2.89
124.79,-7.09,-4.19,-7.06,-4.15,4.15,3.99,4.58,-2.94,-2.91,-2.91
126.03,-7.10,-4.19,-7.07,-4.15,4.15,3.98,4.57,-2.96,-2.92,-2.91
127.29,-7.10,-4.18,-7.07,-4.14,4.14,3.96,4.56,-2.96,-2.93,-2.93
128.57,-7.09,-4.14,-7.08,-4.13,4.13,3.94,4.55,-2.96,-2.95,-2.95
129.85,-7.06,-4.11,-7.08,-4.12,4.12,3.93,4.53,-2.94,-2.96,-2.95
131.15,-7.05,-4.09,-7.08,-4.11,4.11,3.91,4.51,-2.94,-2.97,-2.97
132.46,-7.05,-4.06,-7.09,-4.10,4.10,3.90,4.49,-2.95,-2.98,-2.99
133.79,-7.06,-4.07,-7.09,-4.09,4.09,3.89,4.47,-2.97,-3.00,-2.99
135.12,-7.07,-4.06,-7.10,-4.09,4.09,3.88,4.44,-2.99,-3.01,-3.01
136.48,-7.09,-4.07,-7.11,-4.08,4.08,3.86,4.41,-3.01,-3.03,-3.02
137.84,-7.12,-4.08,-7.13,-4.08,4.08,3.86,4.38,-3.05,-3.05,-3.05
139.22,-7.14,-4.07,-7.15,-4.08,4.08,3.85,4.35,-3.06,-3.07,-3.07
140.61,-7.17,-4.08,-7.17,-4.08,4.08,3.84,4.32,-3.09,-3.09,-3.09
142.02,-7.21,-4.11,-7.20,-4.09,4.09,3.84,4.29,-3.12,-3.11,-3.10
143.44,-7.23,-4.11,-7.23,-4.10,4.10,3.83,4.26,-3.13,-3.13,-3.12
144.87,-7.26,-4.12,-7.26,-4.11,4.11,3.83,4.22,-3.15,-3.15,-3.15
146.32,-7.29,-4.12,-7.30,-4.13,4.13,3.83,4.19,-3.17,-3.17,-3.17
147.78,-7.32,-4.13,-7.33,-4.13,4.13,3.83,4.16,-3.19,-3.19,-3.19
149.26,-7.36,-4.15,-7.36,-4.14,4.14,3.83,4.13,-3.23,-3.22,-3.22
150.75,-7.41,-4.16,-7.39,-4.15,4.15,3.84,4.10,-3.27,-3.25,-3.25
152.26,-7.44,-4.17,-7.43,-4.15,4.15,3.84,4.07,-3.29,-3.28,-3.28
153.78,-7.47,-4.18,-7.46,-4.16,4.16,3.85,4.04,-3.32,-3.31,-3.30
155.32,-7.49,-4.16,-7.50,-4.17,4.17,3.86,4.02,-3.33,-3.34,-3.33
156.88,-7.53,-4.18,-7.54,-4.17,4.17,3.87,4.00,-3.36,-3.37,-3.36
158.44,-7.56,-4.17,-7.58,-4.19,4.19,3.89,3.98,-3.38,-3.40,-3.40
160.03,-7.62,-4.20,-7.63,-4.20,4.20,3.90,3.96,-3.43,-3.43,-3.43
161.63,-7.65,-4.19,-7.68,-4.21,4.21,3.92,3.94,-3.44,-3.46,-3.47
163.24,-7.69,-4.19,-7.72,-4.23,4.23,3.95,3.93,-3.46,-3.49,-3.50
164.88,-7.76,-4.23,-7.77,-4.25,4.25,3.97,3.92,-3.52,-3.53,-3.53
166.53,-7.82,-4.27,-7.82,-4.27,4.27,4.00,3.91,-3.56,-3.56,-3.56
168.19,-7.87,-4.29,-7.88,-4.29,4.29,4.03,3.90,-3.59,-3.59,-3.59
169.87,-7.95,-4.34,-7.93,-4.31,4.31,4.06,3.90,-3.64,-3.62,-3.62
171.57,-8.01,-4.37,-7.99,-4.34,4.34,4.10,3.90,-3.67,-3.65,-3.64
173.29,-8.05,-4.38,-8.04,-4.37,4.37,4.14,3.90,-3.68,-3.67,-3.67
175.02,-8.10,-4.41,-8.10,-4.40,4.40,4.18,3.91,-3.70,-3.70,-3.70
176.77,-8.14,-4.42,-8.15,-4.44,4.44,4.23,3.92,-3.71,-3.72,-3.72
178.54,-8.19,-4.45,-8.21,-4.47,4.47,4.27,3.93,-3.73,-3.74,-3.75
180.32,-8.24,-4.48,-8.26,-4.50,4.50,4.32,3.94,-3.74,-3.76,-3.76
182.13,-8.29,-4.52,-8.31,-4.53,4.53,4.38,3.96,-3.76,-3.77,-3.78
183.95,-8.37,-4.58,-8.35,-4.56,4.56,4.44,3.98,-3.81,-3.79,-3.79
185.79,-8.41,-4.61,-8.40,-4.59,4.59,4.50,4.01,-3.82,-3.80,-3.81
187.65,-8.45,-4.63,-8.44,-4.62,4.62,4.56,4.03,-3.83,-3.82,-3.82
189.52,-8.49,-4.67,-8.48,-4.66,4.66,4.62,4.06,-3.84,-3.83,-3.82
191.42,-8.52,-4.69,-8.53,-4.69,4.69,4.69,4.10,-3.83,-3.83,-3.84
193.33,-8.56,-4.73,-8.57,-4.73,4.73,4.75,4.13,-3.84,-3.84,-3.84
195.27,-8.60,-4.77,-8.61,-4.76,4.76,4.82,4.17,-3.84,-3.85,-3.84
197.22,-8.63,-4.78,-8.65,-4.80,4.80,4.88,4.20,-3.84,-3.86,-3.85
199.19,-8.66,-4.79,-8.69,-4.83,4.83,4.95,4.24,-3.84,-3.86,-3.87
201.18,-8.71,-4.84,-8.73,-4.86,4.86,5.01,4.29,-3.85,-3.87,-3.87
203.19,-8.76,-4.89,-8.77,-4.89,4.89,5.07,4.33,-3.87,-3.87,-3.87
205.23,-8.80,-4.92,-8.80,-4.92,4.92,5.13,4.37,-3.88,-3.88,-3.88
207.28,-8.85,-4.97,-8.84,-4.95,4.95,5.18,4.42,-3.90,-3.89,-3.88
209.35,-8.88,-4.99,-8.87,-4.98,4.98,5.22,4.46,-3.90,-3.89,-3.89
211.44,-8.90,-5.00,-8.91,-5.01,5.01,5.26,4.51,-3.90,-3.90,-3.91
213.56,-8.93,-5.03,-8.94,-5.03,5.03,5.29,4.55,-3.90,-3.91,-3.91
215.69,-8.97,-5.07,-8.97,-5.06,5.06,5.31,4.60,-3.92,-3.91,-3.91
217.85,-8.99,-5.07,-9.00,-5.07,5.07,5.32,4.64,-3.92,-3.92,-3.92
220.03,-9.01,-5.08,-9.02,-5.09,5.09,5.32,4.68,-3.92,-3.93,-3.93
222.23,-9.03,-5.09,-9.04,-5.10,5.10,5.30,4.72,-3.93,-3.94,-3.95
224.45,-9.04,-5.10,-9.05,-5.11,5.11,5.28,4.75,-3.94,-3.95,-3.95
226.70,-9.07,-5.12,-9.07,-5.11,5.11,5.24,4.78,-3.97,-3.96,-3.95
228.96,-9.07,-5.11,-9.07,-5.10,5.10,5.19,4.81,-3.97,-3.97,-3.96
231.25,-9.06,-5.10,-9.08,-5.09,5.09,5.13,4.83,-3.97,-3.98,-3.97
233.57,-9.05,-5.07,-9.07,-5.08,5.08,5.06,4.85,-3.97,-3.99,-3.98
235.90,-9.04,-5.05,-9.06,-5.06,5.06,4.97,4.86,-3.99,-4.00,-4.00
238.26,-9.02,-5.01,-9.04,-5.03,5.03,4.88,4.87,-4.00,-4.01,-4.01
240.64,-9.00,-4.97,-9.01,-4.99,4.99,4.78,4.87,-4.02,-4.02,-4.03
243.05,-8.98,-4.95,-8.97,-4.94,4.94,4.67,4.86,-4.05,-4.03,-4.04
245.48,-8.93,-4.89,-8.91,-4.88,4.88,4.56,4.85,-4.06,-4.04,-4.04
247.93,-8.86,-4.82,-8.84,-4.80,4.80,4.44,4.82,-4.06,-4.04,-4.05
250.41,-8.80,-4.74,-8.75,-4.71,4.71,4.31,4.79,-4.09,-4.04,-4.06
252.92,-8.67,-4.63,-8.65,-4.61,4.61,4.19,4.76,-4.07,-4.04,-4.04
255.45,-8.56,-4.53,-8.54,-4.50,4.50,4.06,4.71,-4.07,-4.04,-4.04
258.00,-8.45,-4.42,-8.41,-4.38,4.38,3.93,4.66,-4.08,-4.03,-4.03
260.58,-8.29,-4.27,-8.27,-4.24,4.24,3.80,4.60,-4.05,-4.02,-4.03
263.19,-8.14,-4.13,-8.11,-4.10,4.10,3.67,4.53,-4.04,-4.01,-4.01
265.82,-7.93,-3.93,-7.95,-3.95,3.95,3.54,4.46,-3.98,-4.00,-4.01
268.48,-7.76,-3.79,-7.78,-3.79,3.79,3.42,4.38,-3.97,-3.98,-3.98
271.16,-7.60,-3.64,-7.60,-3.63,3.63,3.29,4.29,-3.97,-3.97,-3.96
273.87,-7.39,-3.45,-7.43,-3.48,3.48,3.17,4.20,-3.92,-3.95,-3.95
276.61,-7.22,-3.31,-7.25,-3.32,3.32,3.05,4.11,-3.90,-3.93,-3.92
279.38,-7.07,-3.16,-7.08,-3.17,3.17,2.93,4.01,-3.91,-3.91,-3.91
282.17,-6.91,-3.02,-6.92,-3.02,3.02,2.82,3.90,-3.89,-3.90,-3.90
284.99,-6.76,-2.89,-6.76,-2.88,2.88,2.71,3.79,-3.88,-3.88,-3.88
287.84,-6.56,-2.70,-6.62,-2.76,2.76,2.60,3.68,-3.81,-3.86,-3.86
290.72,-6.44,-2.61,-6.48,-2.64,2.64,2.49,3.57,-3.80,-3.84,-3.83
293.63,-6.33,-2.51,-6.36,-2.54,2.54,2.39,3.45,-3.80,-3.82,-3.83
296.57,-6.23,-2.44,-6.25,-2.45,2.45,2.29,3.33,-3.79,-3.80,-3.80
299.53,-6.14,-2.36,-6.14,-2.36,2.36,2.19,3.21,-3.78,-3.78,-3.78
302.53,-6.05,-2.28,-6.05,-2.29,2.29,2.09,3.09,-3.76,-3.76,-3.77
305.55,-5.95,-2.22,-5.97,-2.23,2.23,2.00,2.97,-3.72,-3.74,-3.74
308.61,-5.87,-2.16,-5.89,-2.18,2.18,1.91,2.84,-3.70,-3.71,-3.72
311.69,-5.80,-2.11,-5.82,-2.13,2.13,1.82,2.72,-3.67,-3.69,-3.69
314.81,-5.75,-2.10,-5.76,-2.09,2.09,1.74,2.60,-3.66,-3.67,-3.65
317.96,-5.70,-2.07,-5.70,-2.06,2.06,1.65,2.48,-3.65,-3.64,-3.63
321.14,-5.64,-2.03,-5.65,-2.03,2.03,1.57,2.35,-3.62,-3.62,-3.62
324.35,-5.59,-2.00,-5.59,-2.00,2.00,1.49,2.23,-3.60,-3.60,-3.60
327.59,-5.54,-1.98,-5.54,-1.97,1.97,1.41,2.11,-3.57,-3.57,-3.57
330.87,-5.49,-1.94,-5.49,-1.94,1.94,1.34,1.99,-3.55,-3.55,-3.55
334.18,-5.43,-1.91,-5.43,-1.91,1.91,1.26,1.87,-3.52,-3.52,-3.52
337.52,-5.37,-1.87,-5.38,-1.88,1.88,1.19,1.75,-3.49,-3.50,-3.50
340.90,-5.31,-1.84,-5.31,-1.84,1.84,1.12,1.63,-3.47,-3.47,-3.47
344.30,-5.24,-1.80,-5.24,-1.80,1.80,1.05,1.51,-3.45,-3.45,-3.45
347.75,-5.18,-1.76,-5.17,-1.74,1.74,0.98,1.39,-3.44,-3.42,-3.43
351.23,-5.09,-1.70,-5.08,-1.68,1.68,0.91,1.28,-3.41,-3.40,-3.40
354.74,-5.02,-1.65,-4.99,-1.62,1.62,0.84,1.16,-3.41,-3.37,-3.37
358.28,-4.91,-1.56,-4.89,-1.54,1.54,0.77,1.05,-3.37,-3.35,-3.35
361.87,-4.81,-1.49,-4.79,-1.46,1.46,0.70,0.93,-3.35,-3.32,-3.32
365.49,-4.67,-1.38,-4.67,-1.37,1.37,0.64,0.82,-3.30,-3.30,-3.29
369.14,-4.55,-1.27,-4.55,-1.28,1.28,0.57,0.71,-3.28,-3.27,-3.28
372.83,-4.42,-1.17,-4.42,-1.17,1.17,0.51,0.60,-3.25,-3.25,-3.26
376.56,-4.27,-1.04,-4.29,-1.06,1.06,0.44,0.49,-3.21,-3.23,-3.24
380.33,-4.13,-0.94,-4.15,-0.94,0.94,0.37,0.38,-3.19,-3.21,-3.20
384.13,-3.99,-0.81,-4.01,-0.82,0.82,0.31,0.27,-3.18,-3.19,-3.19
387.97,-3.85,-0.69,-3.85,-0.68,0.68,0.24,0.16,-3.17,-3.17,-3.17
391.85,-3.70,-0.54,-3.70,-0.55,0.55,0.17,0.06,-3.16,-3.16,-3.16
395.77,-3.56,-0.43,-3.55,-0.40,0.40,0.10,-0.05,-3.16,-3.14,-3.13
399.73,-3.40,-0.28,-3.39,-0.26,0.26,0.03,-0.15,-3.14,-3.13,-3.12
403.72,-3.24,-0.12,-3.24,-0.11,0.11,-0.04,-0.25,-3.13,-3.12,-3.12
407.76,-3.09,0.02,-3.08,0.03,-0.03,-0.11,-0.36,-3.13,-3.11,-3.11
411.84,-2.93,0.17,-2.93,0.18,-0.18,-0.19,-0.46,-3.12,-3.11,-3.10
