frequency,raw,error,smoothed,error_smoothed,equalization,parametric_eq,equalized_raw,equalized_smoothed,target
20,-13.46,-15.53,-13.45,-15.52,6.00,2.74,-7.46,-7.45,2.07
21,-12.91,-14.98,-12.85,-14.92,6.00,3.14,-6.91,-6.85,2.07
22,-12.22,-14.29,-12.26,-14.33,6.00,3.58,-6.22,-6.26,2.07
23,-11.72,-13.79,-11.71,-13.78,6.00,4.05,-5.72,-5.71,2.07
24,-11.13,-13.20,-11.18,-13.25,6.00,4.55,-5.13,-5.18,2.07
25,-10.62,-12.69,-10.67,-12.74,6.00,5.07,-4.62,-4.67,2.07
26,-10.17,-12.24,-10.20,-12.27,6.00,5.59,-4.17,-4.20,2.07
27,-9.73,-11.80,-9.75,-11.82,6.00,6.08,-3.73,-3.75,2.07
28,-9.27,-11.34,-9.32,-11.39,6.00,6.52,-3.27,-3.32,2.07
29,-8.94,-11.01,-8.93,-11.00,6.00,6.88,-2.94,-2.93,2.07
30,-8.56,-10.63,-8.55,-10.62,6.00,7.13,-2.56,-2.55,2.07
31,-8.19,-10.26,-8.20,-10.27,6.00,7.27,-2.19,-2.20,2.07
32,-7.83,-9.90,-7.87,-9.95,6.00,7.29,-1.83,-1.87,2.07
33,-7.50,-9.57,-7.56,-9.63,6.00,7.21,-1.50,-1.56,2.07
34,-7.31,-9.38,-7.27,-9.34,6.00,7.05,-1.31,-1.27,2.07
35,-6.98,-9.05,-6.98,-9.05,6.00,6.84,-0.98,-0.98,2.07
36,-6.81,-8.88,-6.71,-8.78,6.00,6.61,-0.81,-0.71,2.07
37,-6.49,-8.56,-6.45,-8.52,6.00,6.36,-0.49,-0.45,2.07
38,-6.16,-8.23,-6.19,-8.26,6.00,6.12,-0.16,-0.19,2.07
39,-5.92,-7.99,-5.93,-8.00,6.00,5.89,0.08,0.07,2.07
40,-5.75,-7.82,-5.68,-7.75,6.00,5.68,0.25,0.32,2.07
41,-5.51,-7.58,-5.43,-7.50,6.00,5.50,0.49,0.57,2.07
42,-5.19,-7.26,-5.19,-7.26,6.00,5.34,0.81,0.81,2.07
43,-4.98,-7.05,-4.95,-7.02,6.00,5.21,1.02,1.05,2.07
44,-4.72,-6.79,-4.71,-6.78,6.00,5.10,1.28,1.29,2.07
45,-4.46,-6.53,-4.48,-6.55,6.00,5.01,1.54,1.52,2.07
46,-4.22,-6.29,-4.25,-6.32,5.96,4.94,1.74,1.71,2.07
47,-4.06,-6.13,-4.03,-6.10,5.89,4.89,1.83,1.86,2.07
48,-3.89,-5.96,-3.83,-5.90,5.78,4.86,1.89,1.95,2.07
49,-3.57,-5.64,-3.63,-5.70,5.64,4.85,2.07,2.01,2.07
50,-3.44,-5.51,-3.46,-5.53,5.51,4.84,2.07,2.05,2.07
51,-3.24,-5.31,-3.29,-5.36,5.36,4.85,2.12,2.07,2.07
52,-3.16,-5.23,-3.15,-5.22,5.22,4.86,2.06,2.07,2.07
53,-2.94,-5.01,-3.02,-5.09,5.09,4.88,2.15,2.07,2.07
54,-2.92,-4.99,-2.92,-4.99,4.99,4.90,2.07,2.07,2.07
55,-2.85,-4.92,-2.82,-4.89,4.89,4.92,2.04,2.07,2.07
56,-2.64,-4.71,-2.75,-4.82,4.82,4.94,2.18,2.07,2.07
57,-2.59,-4.66,-2.69,-4.76,4.76,4.96,2.17,2.07,2.07
58,-2.59,-4.66,-2.63,-4.70,4.70,4.97,2.11,2.07,2.07
59,-2.59,-4.66,-2.59,-4.66,4.66,4.96,2.07,2.07,2.07
60,-2.59,-4.66,-2.55,-4.62,4.62,4.95,2.03,2.07,2.07
61,-2.59,-4.66,-2.52,-4.59,4.59,4.93,2.00,2.07,2.07
62,-2.59,-4.66,-2.48,-4.55,4.55,4.90,1.96,2.07,2.07
63,-2.59,-4.66,-2.45,-4.52,4.52,4.86,1.93,2.07,2.07
64,-2.43,-4.50,-2.41,-4.48,4.48,4.81,2.05,2.07,2.07
65,-2.27,-4.34,-2.36,-4.43,4.43,4.75,2.16,2.07,2.07
66,-2.27,-4.34,-2.31,-4.38,4.38,4.68,2.11,2.07,2.07
67,-2.27,-4.34,-2.25,-4.32,4.32,4.60,2.05,2.07,2.07
68,-2.27,-4.34,-2.19,-4.26,4.26,4.52,1.99,2.07,2.07
69,-2.20,-4.27,-2.13,-4.20,4.20,4.43,2.00,2.07,2.07
70,-1.95,-4.02,-2.06,-4.13,4.13,4.34,2.18,2.07,2.07
71,-1.95,-4.02,-1.99,-4.06,4.06,4.24,2.11,2.07,2.07
72,-1.95,-4.02,-1.92,-3.99,3.99,4.15,2.04,2.07,2.07
73,-1.92,-3.99,-1.86,-3.93,3.93,4.05,2.01,2.07,2.07
74,-1.77,-3.84,-1.79,-3.86,3.86,3.95,2.09,2.07,2.07
75,-1.62,-3.69,-1.72,-3.79,3.79,3.86,2.17,2.07,2.07
76,-1.62,-3.69,-1.66,-3.73,3.73,3.77,2.11,2.07,2.07
77,-1.62,-3.69,-1.60,-3.67,3.67,3.68,2.05,2.07,2.07
78,-1.62,-3.69,-1.54,-3.61,3.61,3.59,1.99,2.07,2.07
79,-1.52,-3.59,-1.48,-3.55,3.55,3.51,2.03,2.07,2.07
80,-1.37,-3.44,-1.42,-3.49,3.49,3.42,2.12,2.07,2.07
81,-1.30,-3.37,-1.37,-3.44,3.44,3.35,2.14,2.07,2.07
82,-1.30,-3.37,-1.31,-3.38,3.38,3.27,2.08,2.07,2.07
83,-1.30,-3.37,-1.26,-3.33,3.33,3.20,2.03,2.07,2.07
84,-1.30,-3.37,-1.20,-3.27,3.27,3.14,1.97,2.07,2.07
85,-1.18,-3.25,-1.15,-3.22,3.22,3.07,2.04,2.07,2.07
86,-1.04,-3.11,-1.09,-3.16,3.16,3.02,2.12,2.07,2.07
87,-0.97,-3.04,-1.04,-3.11,3.11,2.96,2.14,2.07,2.07
88,-0.97,-3.04,-0.99,-3.06,3.06,2.91,2.09,2.07,2.07
89,-0.97,-3.04,-0.94,-3.01,3.01,2.86,2.04,2.07,2.07
90,-0.97,-3.04,-0.89,-2.96,2.96,2.82,1.99,2.07,2.07
91,-0.89,-2.96,-0.84,-2.91,2.91,2.77,2.02,2.07,2.07
92,-0.77,-2.84,-0.80,-2.87,2.87,2.73,2.10,2.07,2.07
93,-0.65,-2.72,-0.76,-2.83,2.83,2.70,2.18,2.07,2.07
94,-0.65,-2.72,-0.71,-2.78,2.78,2.66,2.13,2.07,2.07
95,-0.65,-2.72,-0.67,-2.74,2.74,2.63,2.09,2.07,2.07
96,-0.65,-2.72,-0.64,-2.71,2.71,2.61,2.06,2.07,2.07
97,-0.65,-2.72,-0.60,-2.67,2.67,2.58,2.02,2.07,2.07
98,-0.65,-2.72,-0.56,-2.63,2.63,2.55,1.98,2.07,2.07
99,-0.59,-2.66,-0.53,-2.60,2.60,2.53,2.01,2.07,2.07
100,-0.49,-2.56,-0.50,-2.57,2.57,2.51,2.08,2.07,2.07
101,-0.49,-2.56,-0.47,-2.54,2.54,2.49,2.05,2.07,2.07
102,-0.41,-2.48,-0.44,-2.51,2.51,2.48,2.10,2.07,2.07
104,-0.32,-2.39,-0.41,-2.48,2.48,2.45,2.16,2.07,2.07
105,-0.32,-2.39,-0.39,-2.46,2.46,2.43,2.14,2.07,2.07
106,-0.32,-2.39,-0.36,-2.43,2.43,2.42,2.11,2.07,2.07
107,-0.32,-2.39,-0.34,-2.41,2.41,2.41,2.09,2.07,2.07
108,-0.32,-2.39,-0.32,-2.39,2.39,2.40,2.07,2.07,2.07
109,-0.32,-2.39,-0.30,-2.37,2.37,2.39,2.05,2.07,2.07
110,-0.32,-2.39,-0.27,-2.34,2.34,2.38,2.02,2.07,2.07
111,-0.32,-2.39,-0.25,-2.32,2.32,2.37,2.00,2.07,2.07
112,-0.32,-2.39,-0.22,-2.29,2.29,2.36,1.97,2.07,2.07
113,-0.23,-2.30,-0.19,-2.26,2.26,2.35,2.03,2.07,2.07
114,-0.16,-2.23,-0.16,-2.23,2.23,2.35,2.07,2.07,2.07
115,-0.16,-2.23,-0.13,-2.20,2.20,2.34,2.04,2.07,2.07
117,0.00,-2.07,-0.10,-2.17,2.17,2.32,2.17,2.07,2.07
118,0.00,-2.07,-0.07,-2.14,2.14,2.31,2.14,2.07,2.07
119,0.00,-2.07,-0.05,-2.12,2.12,2.30,2.12,2.07,2.07
120,0.00,-2.07,-0.03,-2.10,2.10,2.29,2.10,2.07,2.07
121,0.00,-2.07,-0.02,-2.09,2.09,2.28,2.09,2.07,2.07
123,0.00,-2.07,-0.01,-2.08,2.08,2.25,2.08,2.07,2.07
124,0.00,-2.07,0.00,-2.07,2.07,2.24,2.07,2.07,2.07
125,0.00,-2.07,0.01,-2.06,2.06,2.23,2.06,2.07,2.07
126,0.00,-2.07,0.01,-2.06,2.06,2.21,2.06,2.07,2.07
128,0.00,-2.07,0.01,-2.06,2.06,2.18,2.06,2.07,2.07
129,0.00,-2.07,0.01,-2.06,2.06,2.17,2.06,2.07,2.07
130,0.00,-2.07,0.02,-2.05,2.05,2.15,2.05,2.07,2.07
131,0.00,-2.07,0.03,-2.04,2.04,2.13,2.04,2.07,2.07
133,0.00,-2.07,0.04,-2.03,2.03,2.10,2.03,2.07,2.07
134,0.00,-2.07,0.05,-2.02,2.02,2.08,2.02,2.07,2.07
135,0.00,-2.07,0.06,-2.01,2.01,2.06,2.01,2.07,2.07
137,0.16,-1.91,0.08,-1.99,1.99,2.03,2.15,2.07,2.07
138,0.16,-1.91,0.10,-1.97,1.97,2.01,2.13,2.07,2.07
140,0.16,-1.91,0.12,-1.95,1.95,1.97,2.11,2.07,2.07
141,0.16,-1.91,0.14,-1.93,1.93,1.95,2.09,2.07,2.07
142,0.16,-1.91,0.16,-1.91,1.91,1.93,2.07,2.07,2.07
144,0.16,-1.91,0.19,-1.88,1.88,1.89,2.04,2.07,2.07
145,0.16,-1.91,0.21,-1.86,1.86,1.88,2.02,2.07,2.07
147,0.16,-1.91,0.23,-1.84,1.84,1.84,2.00,2.07,2.07
148,0.22,-1.85,0.25,-1.82,1.82,1.82,2.04,2.07,2.07
150,0.32,-1.75,0.26,-1.81,1.81,1.79,2.13,2.07,2.07
151,0.32,-1.75,0.28,-1.79,1.79,1.77,2.11,2.07,2.07
153,0.32,-1.75,0.29,-1.78,1.78,1.74,2.10,2.07,2.07
154,0.32,-1.75,0.30,-1.77,1.77,1.72,2.09,2.07,2.07
156,0.32,-1.75,0.31,-1.76,1.76,1.69,2.08,2.07,2.07
157,0.32,-1.75,0.32,-1.75,1.75,1.67,2.07,2.07,2.07
159,0.32,-1.75,0.32,-1.75,1.75,1.64,2.07,2.07,2.07
160,0.32,-1.75,0.32,-1.75,1.75,1.63,2.07,2.07,2.07
162,0.32,-1.75,0.32,-1.75,1.75,1.60,2.07,2.07,2.07
164,0.32,-1.75,0.31,-1.76,1.76,1.58,2.08,2.07,2.07
165,0.32,-1.75,0.31,-1.76,1.76,1.57,2.08,2.07,2.07
167,0.32,-1.75,0.31,-1.76,1.76,1.54,2.08,2.07,2.07
169,0.32,-1.75,0.32,-1.75,1.75,1.52,2.07,2.07,2.07
170,0.32,-1.75,0.33,-1.74,1.74,1.51,2.06,2.07,2.07
172,0.32,-1.75,0.34,-1.73,1.73,1.49,2.05,2.07,2.07
174,0.32,-1.75,0.36,-1.71,1.71,1.48,2.03,2.07,2.07
175,0.32,-1.75,0.38,-1.69,1.69,1.47,2.01,2.07,2.07
177,0.32,-1.75,0.41,-1.66,1.66,1.46,1.98,2.07,2.07
179,0.42,-1.65,0.44,-1.63,1.63,1.44,2.05,2.07,2.07
181,0.49,-1.58,0.47,-1.60,1.60,1.43,2.09,2.07,2.07
183,0.51,-1.56,0.51,-1.56,1.56,1.42,2.07,2.07,2.07
184,0.57,-1.50,0.54,-1.53,1.53,1.42,2.10,2.07,2.07
186,0.65,-1.42,0.57,-1.50,1.50,1.41,2.15,2.07,2.07
188,0.65,-1.42,0.60,-1.47,1.47,1.40,2.12,2.07,2.07
190,0.65,-1.42,0.62,-1.45,1.45,1.40,2.10,2.07,2.07
192,0.65,-1.42,0.64,-1.43,1.43,1.39,2.08,2.07,2.07
194,0.65,-1.42,0.65,-1.42,1.42,1.39,2.07,2.07,2.07
196,0.65,-1.42,0.66,-1.41,1.41,1.38,2.06,2.07,2.07
198,0.65,-1.42,0.66,-1.41,1.41,1.38,2.06,2.07,2.07
200,0.65,-1.42,0.66,-1.41,1.41,1.38,2.06,2.07,2.07
202,0.65,-1.42,0.66,-1.41,1.41,1.38,2.06,2.07,2.07
204,0.65,-1.42,0.66,-1.41,1.41,1.38,2.06,2.07,2.07
206,0.65,-1.42,0.66,-1.41,1.41,1.38,2.06,2.07,2.07
208,0.65,-1.42,0.66,-1.41,1.41,1.39,2.06,2.07,2.07
210,0.65,-1.42,0.65,-1.42,1.42,1.39,2.07,2.07,2.07
212,0.65,-1.42,0.65,-1.42,1.42,1.39,2.07,2.07,2.07
214,0.65,-1.42,0.65,-1.42,1.42,1.39,2.07,2.07,2.07
216,0.65,-1.42,0.65,-1.42,1.42,1.40,2.07,2.07,2.07
218,0.65,-1.42,0.65,-1.42,1.42,1.40,2.07,2.07,2.07
221,0.65,-1.42,0.65,-1.42,1.42,1.41,2.07,2.07,2.07
223,0.65,-1.42,0.65,-1.42,1.42,1.41,2.07,2.07,2.07
225,0.65,-1.42,0.65,-1.42,1.42,1.41,2.07,2.07,2.07
227,0.65,-1.42,0.65,-1.42,1.42,1.42,2.07,2.07,2.07
229,0.65,-1.42,0.65,-1.42,1.42,1.42,2.07,2.07,2.07
232,0.65,-1.42,0.65,-1.42,1.42,1.43,2.07,2.07,2.07
234,0.65,-1.42,0.65,-1.42,1.42,1.43,2.07,2.07,2.07
236,0.65,-1.42,0.65,-1.42,1.42,1.43,2.07,2.07,2.07
239,0.65,-1.42,0.65,-1.42,1.42,1.44,2.07,2.07,2.07
241,0.65,-1.42,0.65,-1.42,1.42,1.44,2.07,2.07,2.07
244,0.65,-1.42,0.65,-1.42,1.42,1.45,2.07,2.07,2.07
246,0.65,-1.42,0.65,-1.42,1.42,1.45,2.07,2.07,2.07
248,0.65,-1.42,0.65,-1.42,1.42,1.45,2.07,2.07,2.07
251,0.65,-1.42,0.65,-1.42,1.42,1.45,2.07,2.07,2.07
253,0.65,-1.42,0.65,-1.42,1.42,1.45,2.07,2.07,2.07
256,0.65,-1.42,0.65,-1.42,1.42,1.45,2.07,2.07,2.07
259,0.65,-1.42,0.65,-1.42,1.42,1.46,2.07,2.07,2.07
261,0.65,-1.42,0.65,-1.42,1.42,1.46,2.07,2.07,2.07
264,0.65,-1.42,0.65,-1.42,1.42,1.46,2.07,2.07,2.07
266,0.65,-1.42,0.65,-1.42,1.42,1.46,2.07,2.07,2.07
269,0.65,-1.42,0.65,-1.42,1.42,1.46,2.07,2.07,2.07
272,0.65,-1.42,0.65,-1.42,1.42,1.46,2.07,2.07,2.07
274,0.65,-1.42,0.65,-1.42,1.42,1.46,2.07,2.07,2.07
277,0.65,-1.42,0.65,-1.42,1.42,1.46,2.07,2.07,2.07
280,0.65,-1.42,0.65,-1.42,1.42,1.46,2.07,2.07,2.07
283,0.65,-1.42,0.65,-1.42,1.42,1.45,2.07,2.07,2.07
286,0.65,-1.42,0.65,-1.42,1.42,1.46,2.07,2.07,2.07
288,0.65,-1.42,0.65,-1.42,1.42,1.46,2.07,2.07,2.07
291,0.65,-1.42,0.65,-1.42,1.42,1.46,2.07,2.07,2.07
294,0.65,-1.42,0.65,-1.42,1.42,1.46,2.07,2.07,2.07
297,0.65,-1.42,0.65,-1.42,1.42,1.46,2.07,2.07,2.07
300,0.65,-1.42,0.65,-1.42,1.42,1.46,2.07,2.07,2.07
303,0.65,-1.42,0.66,-1.41,1.41,1.46,2.06,2.07,2.07
306,0.65,-1.42,0.66,-1.41,1.41,1.47,2.06,2.07,2.07
309,0.65,-1.42,0.66,-1.41,1.41,1.47,2.06,2.07,2.07
312,0.65,-1.42,0.66,-1.41,1.41,1.48,2.06,2.07,2.07
316,0.65,-1.42,0.66,-1.41,1.41,1.49,2.06,2.07,2.07
319,0.65,-1.42,0.66,-1.41,1.41,1.49,2.06,2.07,2.07
322,0.65,-1.42,0.65,-1.42,1.42,1.50,2.07,2.07,2.07
325,0.65,-1.42,0.64,-1.43,1.43,1.51,2.08,2.07,2.07
328,0.65,-1.42,0.63,-1.44,1.44,1.52,2.09,2.07,2.07
332,0.65,-1.42,0.61,-1.46,1.46,1.53,2.11,2.07,2.07
335,0.65,-1.42,0.59,-1.48,1.48,1.55,2.13,2.07,2.07
338,0.65,-1.42,0.56,-1.51,1.51,1.56,2.16,2.07,2.07
342,0.54,-1.53,0.53,-1.54,1.54,1.58,2.08,2.07,2.07
345,0.49,-1.58,0.50,-1.57,1.57,1.59,2.06,2.07,2.07
349,0.47,-1.60,0.46,-1.61,1.61,1.61,2.08,2.07,2.07
352,0.37,-1.70,0.43,-1.64,1.64,1.63,2.01,2.07,2.07
356,0.32,-1.75,0.40,-1.67,1.67,1.65,1.99,2.07,2.07
359,0.32,-1.75,0.38,-1.69,1.69,1.67,2.01,2.07,2.07
363,0.32,-1.75,0.36,-1.71,1.71,1.69,2.03,2.07,2.07
366,0.32,-1.75,0.34,-1.73,1.73,1.71,2.05,2.07,2.07
370,0.32,-1.75,0.33,-1.74,1.74,1.74,2.06,2.07,2.07
374,0.32,-1.75,0.32,-1.75,1.75,1.77,2.07,2.07,2.07
377,0.32,-1.75,0.31,-1.76,1.76,1.79,2.08,2.07,2.07
381,0.32,-1.75,0.30,-1.77,1.77,1.82,2.09,2.07,2.07
385,0.32,-1.75,0.29,-1.78,1.78,1.85,2.10,2.07,2.07
389,0.32,-1.75,0.27,-1.80,1.80,1.88,2.12,2.07,2.07
393,0.32,-1.75,0.26,-1.81,1.81,1.91,2.13,2.07,2.07
397,0.31,-1.76,0.23,-1.84,1.84,1.95,2.15,2.07,2.07
401,0.20,-1.87,0.21,-1.86,1.86,1.98,2.06,2.07,2.07
405,0.16,-1.91,0.18,-1.89,1.89,2.01,2.05,2.07,2.07
409,0.14,-1.93,0.15,-1.92,1.92,2.05,2.06,2.07,2.07
413,0.03,-2.04,0.11,-1.96,1.96,2.08,1.99,2.07,2.07
417,0.00,-2.07,0.07,-2.00,2.00,2.11,2.00,2.07,2.07
421,0.00,-2.07,0.04,-2.03,2.03,2.15,2.03,2.07,2.07
425,0.00,-2.07,-0.00,-2.07,2.07,2.18,2.07,2.07,2.07
430,0.00,-2.07,-0.04,-2.11,2.11,2.22,2.11,2.07,2.07
434,0.00,-2.07,-0.08,-2.15,2.15,2.25,2.15,2.07,2.07
438,0.00,-2.07,-0.12,-2.19,2.19,2.28,2.19,2.07,2.07
443,-0.11,-2.18,-0.16,-2.23,2.23,2.32,2.12,2.07,2.07
447,-0.22,-2.29,-0.19,-2.26,2.26,2.34,2.04,2.07,2.07
451,-0.32,-2.39,-0.22,-2.29,2.29,2.37,1.97,2.07,2.07
456,-0.32,-2.39,-0.25,-2.32,2.32,2.40,2.00,2.07,2.07
460,-0.32,-2.39,-0.28,-2.35,2.35,2.43,2.03,2.07,2.07
465,-0.32,-2.39,-0.30,-2.37,2.37,2.46,2.05,2.07,2.07
470,-0.32,-2.39,-0.31,-2.38,2.38,2.48,2.06,2.07,2.07
474,-0.32,-2.39,-0.32,-2.39,2.39,2.50,2.07,2.07,2.07
479,-0.32,-2.39,-0.33,-2.40,2.40,2.52,2.08,2.07,2.07
484,-0.32,-2.39,-0.33,-2.40,2.40,2.54,2.08,2.07,2.07
489,-0.32,-2.39,-0.33,-2.40,2.40,2.55,2.08,2.07,2.07
494,-0.32,-2.39,-0.33,-2.40,2.40,2.56,2.08,2.07,2.07
499,-0.32,-2.39,-0.33,-2.40,2.40,2.57,2.08,2.07,2.07
504,-0.32,-2.39,-0.33,-2.40,2.40,2.58,2.08,2.07,2.07
509,-0.32,-2.39,-0.33,-2.40,2.40,2.58,2.08,2.07,2.07
514,-0.32,-2.39,-0.32,-2.39,2.39,2.58,2.07,2.07,2.07
519,-0.32,-2.39,-0.32,-2.39,2.39,2.58,2.07,2.07,2.07
524,-0.32,-2.39,-0.32,-2.39,2.39,2.58,2.07,2.07,2.07
529,-0.32,-2.39,-0.31,-2.38,2.38,2.57,2.06,2.07,2.07
535,-0.32,-2.39,-0.31,-2.38,2.38,2.57,2.06,2.07,2.07
540,-0.32,-2.39,-0.31,-2.38,2.38,2.56,2.06,2.07,2.07
545,-0.32,-2.39,-0.31,-2.38,2.38,2.55,2.06,2.07,2.07
551,-0.32,-2.39,-0.31,-2.38,2.38,2.53,2.06,2.07,2.07
556,-0.32,-2.39,-0.31,-2.38,2.38,2.52,2.06,2.07,2.07
562,-0.32,-2.39,-0.31,-2.38,2.38,2.50,2.06,2.07,2.07
568,-0.32,-2.39,-0.32,-2.39,2.39,2.49,2.07,2.07,2.07
573,-0.32,-2.39,-0.34,-2.41,2.41,2.47,2.09,2.07,2.07
579,-0.32,-2.39,-0.35,-2.42,2.42,2.45,2.10,2.07,2.07
585,-0.32,-2.39,-0.38,-2.45,2.45,2.43,2.13,2.07,2.07
591,-0.32,-2.39,-0.40,-2.47,2.47,2.42,2.15,2.07,2.07
596,-0.38,-2.45,-0.44,-2.51,2.51,2.40,2.13,2.07,2.07
602,-0.49,-2.56,-0.47,-2.54,2.54,2.39,2.05,2.07,2.07
608,-0.49,-2.56,-0.50,-2.57,2.57,2.37,2.08,2.07,2.07
615,-0.58,-2.65,-0.53,-2.61,2.61,2.35,2.03,2.07,2.07
621,-0.65,-2.72,-0.57,-2.64,2.64,2.34,1.99,2.07,2.07
627,-0.65,-2.72,-0.59,-2.66,2.66,2.32,2.01,2.07,2.07
633,-0.65,-2.72,-0.62,-2.69,2.69,2.31,2.04,2.07,2.07
639,-0.65,-2.72,-0.63,-2.70,2.70,2.30,2.05,2.07,2.07
646,-0.65,-2.72,-0.65,-2.72,2.72,2.29,2.07,2.07,2.07
652,-0.65,-2.72,-0.66,-2.73,2.73,2.28,2.08,2.07,2.07
659,-0.65,-2.72,-0.66,-2.73,2.73,2.27,2.08,2.07,2.07
665,-0.65,-2.72,-0.66,-2.73,2.73,2.27,2.08,2.07,2.07
672,-0.65,-2.72,-0.66,-2.73,2.73,2.26,2.08,2.07,2.07
679,-0.65,-2.72,-0.66,-2.73,2.73,2.26,2.08,2.07,2.07
686,-0.65,-2.72,-0.66,-2.73,2.73,2.26,2.08,2.07,2.07
692,-0.65,-2.72,-0.66,-2.73,2.73,2.26,2.08,2.07,2.07
699,-0.65,-2.72,-0.65,-2.72,2.72,2.27,2.07,2.07,2.07
706,-0.65,-2.72,-0.65,-2.72,2.72,2.27,2.07,2.07,2.07
713,-0.65,-2.72,-0.65,-2.72,2.72,2.28,2.07,2.07,2.07
721,-0.65,-2.72,-0.65,-2.72,2.72,2.29,2.07,2.07,2.07
728,-0.65,-2.72,-0.65,-2.72,2.72,2.30,2.07,2.07,2.07
735,-0.65,-2.72,-0.65,-2.72,2.72,2.31,2.07,2.07,2.07
742,-0.65,-2.72,-0.65,-2.72,2.72,2.32,2.07,2.07,2.07
750,-0.65,-2.72,-0.65,-2.72,2.72,2.34,2.07,2.07,2.07
757,-0.65,-2.72,-0.65,-2.72,2.72,2.35,2.07,2.07,2.07
765,-0.65,-2.72,-0.66,-2.73,2.73,2.37,2.08,2.07,2.07
773,-0.65,-2.72,-0.66,-2.73,2.73,2.40,2.08,2.07,2.07
780,-0.65,-2.72,-0.66,-2.73,2.73,2.41,2.08,2.07,2.07
788,-0.65,-2.72,-0.66,-2.73,2.73,2.44,2.08,2.07,2.07
796,-0.65,-2.72,-0.66,-2.73,2.73,2.46,2.08,2.07,2.07
804,-0.65,-2.72,-0.66,-2.73,2.73,2.49,2.08,2.07,2.07
812,-0.65,-2.72,-0.66,-2.73,2.73,2.51,2.08,2.07,2.07
820,-0.65,-2.72,-0.65,-2.72,2.72,2.54,2.07,2.07,2.07
828,-0.65,-2.72,-0.64,-2.71,2.71,2.56,2.06,2.07,2.07
837,-0.65,-2.72,-0.62,-2.69,2.69,2.59,2.04,2.07,2.07
845,-0.65,-2.72,-0.60,-2.67,2.67,2.62,2.02,2.07,2.07
853,-0.65,-2.72,-0.58,-2.65,2.65,2.64,2.00,2.07,2.07
862,-0.64,-2.71,-0.55,-2.62,2.62,2.67,1.98,2.07,2.07
871,-0.52,-2.59,-0.51,-2.58,2.58,2.69,2.06,2.07,2.07
879,-0.42,-2.49,-0.48,-2.55,2.55,2.71,2.13,2.07,2.07
888,-0.32,-2.39,-0.44,-2.51,2.51,2.74,2.19,2.07,2.07
897,-0.32,-2.39,-0.40,-2.47,2.47,2.76,2.15,2.07,2.07
906,-0.32,-2.39,-0.36,-2.43,2.43,2.77,2.11,2.07,2.07
915,-0.32,-2.39,-0.32,-2.39,2.39,2.79,2.07,2.07,2.07
924,-0.32,-2.39,-0.28,-2.35,2.35,2.80,2.03,2.07,2.07
933,-0.32,-2.39,-0.24,-2.31,2.31,2.81,1.99,2.07,2.07
943,-0.27,-2.34,-0.20,-2.27,2.27,2.82,2.00,2.07,2.07
952,-0.17,-2.24,-0.16,-2.23,2.23,2.82,2.06,2.07,2.07
962,-0.05,-2.12,-0.11,-2.18,2.18,2.82,2.13,2.07,2.07
971,0.00,-2.07,-0.07,-2.14,2.14,2.81,2.14,2.07,2.07
981,0.00,-2.07,-0.03,-2.10,2.10,2.80,2.10,2.07,2.07
991,0.00,-2.07,0.01,-2.06,2.06,2.79,2.06,2.07,2.07
1001,0.00,-2.07,0.06,-2.01,2.01,2.77,2.01,2.07,2.07
1011,0.03,-2.04,0.10,-1.97,1.97,2.75,2.00,2.07,2.07
1021,0.14,-1.93,0.14,-1.93,1.93,2.72,2.07,2.07,2.07
1031,0.16,-1.91,0.17,-1.90,1.90,2.69,2.06,2.07,2.07
1041,0.19,-1.88,0.21,-1.86,1.86,2.66,2.05,2.07,2.07
1052,0.31,-1.76,0.24,-1.83,1.83,2.62,2.14,2.07,2.07
1062,0.32,-1.75,0.27,-1.80,1.80,2.57,2.12,2.07,2.07
1073,0.32,-1.75,0.29,-1.78,1.78,2.53,2.10,2.07,2.07
1084,0.32,-1.75,0.30,-1.77,1.77,2.47,2.09,2.07,2.07
1094,0.32,-1.75,0.32,-1.75,1.75,2.42,2.07,2.07,2.07
1105,0.32,-1.75,0.32,-1.75,1.75,2.37,2.07,2.07,2.07
1116,0.32,-1.75,0.33,-1.74,1.74,2.31,2.06,2.07,2.07
1128,0.32,-1.75,0.33,-1.74,1.74,2.24,2.06,2.07,2.07
1139,0.32,-1.75,0.33,-1.74,1.74,2.18,2.06,2.07,2.07
1150,0.32,-1.75,0.32,-1.75,1.75,2.11,2.07,2.07,2.07
1162,0.32,-1.75,0.32,-1.75,1.75,2.04,2.07,2.07,2.07
1173,0.32,-1.75,0.32,-1.75,1.75,1.97,2.07,2.07,2.07
1185,0.32,-1.75,0.31,-1.76,1.76,1.90,2.08,2.07,2.07
1197,0.32,-1.75,0.32,-1.75,1.75,1.83,2.07,2.07,2.07
1209,0.32,-1.75,0.32,-1.75,1.75,1.75,2.07,2.07,2.07
1221,0.32,-1.75,0.33,-1.74,1.74,1.68,2.06,2.07,2.07
1233,0.32,-1.75,0.34,-1.73,1.73,1.60,2.05,2.07,2.07
1246,0.32,-1.75,0.35,-1.72,1.72,1.52,2.04,2.07,2.07
1258,0.32,-1.75,0.37,-1.70,1.70,1.45,2.02,2.07,2.07
1271,0.34,-1.73,0.39,-1.68,1.68,1.37,2.02,2.07,2.07
1283,0.45,-1.62,0.42,-1.65,1.65,1.30,2.10,2.07,2.07
1296,0.49,-1.58,0.45,-1.62,1.62,1.23,2.11,2.07,2.07
1309,0.49,-1.58,0.47,-1.60,1.60,1.15,2.09,2.07,2.07
1322,0.49,-1.58,0.50,-1.57,1.57,1.08,2.06,2.07,2.07
1335,0.49,-1.58,0.53,-1.54,1.54,1.00,2.03,2.07,2.07
1349,0.53,-1.54,0.55,-1.52,1.52,0.92,2.05,2.07,2.07
1362,0.63,-1.44,0.57,-1.50,1.50,0.85,2.13,2.07,2.07
1376,0.65,-1.42,0.59,-1.48,1.48,0.78,2.13,2.07,2.07
1390,0.65,-1.42,0.61,-1.46,1.46,0.70,2.11,2.07,2.07
1404,0.65,-1.42,0.62,-1.45,1.45,0.63,2.10,2.07,2.07
1418,0.65,-1.42,0.63,-1.44,1.44,0.56,2.09,2.07,2.07
1432,0.65,-1.42,0.64,-1.43,1.43,0.49,2.08,2.07,2.07
1446,0.65,-1.42,0.66,-1.41,1.41,0.42,2.06,2.07,2.07
1461,0.65,-1.42,0.67,-1.40,1.40,0.34,2.05,2.07,2.07
1475,0.65,-1.42,0.69,-1.38,1.38,0.28,2.03,2.07,2.07
1490,0.65,-1.42,0.71,-1.36,1.36,0.21,2.01,2.07,2.07
1505,0.65,-1.42,0.74,-1.33,1.33,0.14,1.98,2.07,2.07
1520,0.74,-1.33,0.78,-1.29,1.29,0.07,2.03,2.07,2.07
1535,0.85,-1.22,0.82,-1.25,1.25,-0.00,2.10,2.07,2.07
1550,0.96,-1.11,0.86,-1.21,1.21,-0.07,2.17,2.07,2.07
1566,0.97,-1.10,0.91,-1.16,1.16,-0.14,2.13,2.07,2.07
1582,0.97,-1.10,0.97,-1.10,1.10,-0.20,2.07,2.07,2.07
1597,0.97,-1.10,1.03,-1.04,1.04,-0.27,2.01,2.07,2.07
1613,1.09,-0.98,1.10,-0.97,0.97,-0.33,2.06,2.07,2.07
1629,1.20,-0.87,1.17,-0.90,0.90,-0.40,2.10,2.07,2.07
1646,1.30,-0.77,1.25,-0.82,0.82,-0.46,2.12,2.07,2.07
1662,1.30,-0.77,1.33,-0.74,0.74,-0.52,2.04,2.07,2.07
1679,1.38,-0.69,1.42,-0.65,0.65,-0.58,2.03,2.07,2.07
1696,1.49,-0.58,1.52,-0.56,0.56,-0.64,2.05,2.07,2.07
1713,1.60,-0.47,1.62,-0.45,0.45,-0.70,2.05,2.07,2.07
1730,1.71,-0.36,1.73,-0.34,0.34,-0.76,2.05,2.07,2.07
1747,1.82,-0.25,1.84,-0.23,0.23,-0.81,2.05,2.07,2.07
1764,1.93,-0.14,1.97,-0.10,0.10,-0.86,2.03,2.07,2.07
1782,2.15,0.08,2.09,0.02,-0.02,-0.92,2.13,2.07,2.07
1800,2.27,0.20,2.23,0.16,-0.16,-0.97,2.11,2.07,2.07
1818,2.28,0.21,2.36,0.29,-0.29,-1.01,1.99,2.07,2.07
1836,2.50,0.43,2.50,0.43,-0.43,-1.05,2.07,2.07,2.07
1854,2.66,0.59,2.63,0.56,-0.56,-1.09,2.10,2.07,2.07
1873,2.77,0.70,2.77,0.70,-0.70,-1.13,2.07,2.07,2.07
1892,2.89,0.82,2.90,0.83,-0.83,-1.17,2.06,2.07,2.07
1911,3.08,1.01,3.04,0.97,-0.97,-1.20,2.11,2.07,2.07
1930,3.24,1.17,3.17,1.10,-1.10,-1.22,2.14,2.07,2.07
1949,3.24,1.17,3.29,1.22,-1.22,-1.25,2.02,2.07,2.07
1969,3.43,1.36,3.42,1.35,-1.35,-1.27,2.08,2.07,2.07
1988,3.57,1.50,3.54,1.47,-1.47,-1.28,2.10,2.07,2.07
