frequency,raw,smoothed,error,error_smoothed,equalization,parametric_eq,fixed_band_eq,equalized_raw,equalized_smoothed,target
20.00,3.97,3.97,-0.38,-0.38,0.38,0.35,0.36,4.35,4.35,4.35
20.20,3.95,3.95,-0.43,-0.44,0.44,0.39,0.37,4.39,4.39,4.38
20.40,3.92,3.92,-0.49,-0.49,0.49,0.43,0.39,4.41,4.41,4.41
20.61,3.90,3.90,-0.53,-0.54,0.54,0.46,0.40,4.44,4.44,4.43
20.81,3.87,3.87,-0.59,-0.59,0.59,0.50,0.41,4.46,4.46,4.46
21.02,3.84,3.84,-0.65,-0.64,0.64,0.54,0.43,4.48,4.48,4.49
21.23,3.81,3.81,-0.69,-0.69,0.68,0.58,0.44,4.49,4.49,4.50
21.44,3.79,3.79,-0.72,-0.73,0.72,0.62,0.45,4.51,4.51,4.51
21.66,3.76,3.76,-0.76,-0.76,0.76,0.66,0.47,4.52,4.52,4.52
21.87,3.73,3.73,-0.79,-0.79,0.80,0.70,0.49,4.53,4.53,4.52
22.09,3.70,3.70,-0.83,-0.83,0.83,0.74,0.50,4.53,4.53,4.53
22.31,3.67,3.67,-0.86,-0.86,0.86,0.78,0.52,4.53,4.53,4.53
22.54,3.63,3.63,-0.90,-0.89,0.89,0.82,0.53,4.52,4.52,4.53
22.76,3.60,3.60,-0.93,-0.92,0.92,0.86,0.55,4.52,4.52,4.53
22.99,3.57,3.57,-0.95,-0.95,0.95,0.89,0.57,4.52,4.52,4.52
23.22,3.54,3.54,-0.98,-0.98,0.98,0.93,0.59,4.52,4.52,4.51
23.45,3.50,3.50,-1.01,-1.01,1.02,0.96,0.61,4.51,4.52,4.51
23.69,3.47,3.47,-1.04,-1.04,1.05,0.99,0.62,4.52,4.52,4.51
23.92,3.44,3.44,-1.07,-1.08,1.08,1.03,0.64,4.52,4.51,4.51
24.16,3.41,3.41,-1.11,-1.11,1.11,1.06,0.66,4.52,4.52,4.52
24.40,3.38,3.38,-1.14,-1.14,1.14,1.08,0.68,4.51,4.51,4.52
24.65,3.35,3.35,-1.16,-1.17,1.16,1.11,0.70,4.51,4.51,4.51
24.89,3.32,3.32,-1.19,-1.19,1.19,1.13,0.72,4.51,4.51,4.51
25.14,3.30,3.30,-1.21,-1.21,1.21,1.15,0.74,4.51,4.51,4.51
25.39,3.28,3.28,-1.23,-1.23,1.23,1.17,0.76,4.51,4.51,4.51
25.65,3.26,3.26,-1.25,-1.24,1.25,1.18,0.78,4.51,4.50,4.51
25.91,3.24,3.24,-1.26,-1.26,1.26,1.19,0.80,4.50,4.50,4.49
26.16,3.22,3.22,-1.27,-1.27,1.28,1.20,0.82,4.49,4.50,4.49
26.43,3.21,3.21,-1.28,-1.28,1.29,1.21,0.84,4.50,4.49,4.49
26.69,3.20,3.20,-1.29,-1.29,1.29,1.21,0.85,4.49,4.49,4.49
26.96,3.19,3.19,-1.30,-1.30,1.30,1.21,0.87,4.49,4.49,4.49
27.23,3.19,3.19,-1.30,-1.30,1.29,1.20,0.89,4.48,4.48,4.49
27.50,3.19,3.19,-1.30,-1.29,1.29,1.19,0.90,4.48,4.48,4.49
27.77,3.20,3.20,-1.28,-1.28,1.28,1.18,0.91,4.48,4.48,4.48
28.05,3.21,3.21,-1.27,-1.26,1.26,1.16,0.93,4.47,4.47,4.47
28.33,3.22,3.22,-1.24,-1.24,1.25,1.14,0.94,4.47,4.47,4.46
28.62,3.24,3.24,-1.22,-1.22,1.23,1.12,0.95,4.47,4.46,4.46
28.90,3.26,3.26,-1.20,-1.20,1.20,1.10,0.96,4.46,4.46,4.46
29.19,3.28,3.28,-1.17,-1.18,1.17,1.07,0.96,4.45,4.45,4.45
29.48,3.30,3.30,-1.16,-1.15,1.15,1.04,0.96,4.44,4.45,4.46
29.78,3.33,3.33,-1.12,-1.12,1.11,1.00,0.97,4.44,4.44,4.44
30.08,3.36,3.36,-1.08,-1.08,1.08,0.97,0.97,4.44,4.44,4.44
30.38,3.39,3.39,-1.04,-1.04,1.05,0.93,0.96,4.44,4.44,4.43
30.68,3.42,3.42,-1.01,-1.01,1.01,0.89,0.96,4.43,4.43,4.43
30.99,3.45,3.45,-0.97,-0.97,0.97,0.85,0.95,4.42,4.42,4.42
31.30,3.48,3.48,-0.94,-0.94,0.94,0.81,0.94,4.41,4.41,4.41
31.61,3.51,3.51,-0.90,-0.90,0.90,0.76,0.93,4.41,4.41,4.41
31.93,3.54,3.54,-0.86,-0.86,0.86,0.72,0.91,4.40,4.40,4.40
32.24,3.57,3.57,-0.82,-0.82,0.82,0.67,0.89,4.39,4.39,4.39
32.57,3.60,3.60,-0.79,-0.79,0.79,0.62,0.87,4.39,4.39,4.39
32.89,3.62,3.62,-0.76,-0.76,0.75,0.57,0.85,4.37,4.38,4.38
33.22,3.65,3.65,-0.72,-0.72,0.72,0.53,0.83,4.37,4.37,4.37
33.55,3.68,3.68,-0.69,-0.69,0.69,0.48,0.80,4.37,4.36,4.37
33.89,3.70,3.70,-0.65,-0.66,0.66,0.43,0.77,4.36,4.36,4.35
34.23,3.72,3.72,-0.63,-0.63,0.63,0.38,0.74,4.35,4.35,4.35
34.57,3.74,3.74,-0.60,-0.60,0.60,0.33,0.71,4.34,4.34,4.34
34.92,3.75,3.75,-0.58,-0.58,0.58,0.28,0.67,4.33,4.33,4.32
35.27,3.77,3.77,-0.55,-0.55,0.55,0.23,0.63,4.32,4.32,4.32
35.62,3.78,3.78,-0.53,-0.53,0.53,0.18,0.60,4.31,4.31,4.31
35.97,3.80,3.80,-0.49,-0.50,0.50,0.13,0.56,4.30,4.30,4.29
36.33,3.81,3.81,-0.48,-0.48,0.47,0.08,0.52,4.28,4.28,4.29
36.70,3.83,3.83,-0.45,-0.45,0.45,0.04,0.47,4.27,4.28,4.28
37.06,3.85,3.85,-0.41,-0.42,0.41,-0.01,0.43,4.26,4.27,4.26
37.43,3.88,3.88,-0.38,-0.38,0.38,-0.06,0.39,4.26,4.26,4.26
37.81,3.90,3.90,-0.34,-0.34,0.34,-0.11,0.34,4.24,4.24,4.24
38.19,3.93,3.93,-0.30,-0.30,0.30,-0.15,0.29,4.23,4.23,4.23
38.57,3.96,3.96,-0.27,-0.26,0.26,-0.20,0.25,4.22,4.22,4.22
38.95,4.00,4.00,-0.21,-0.21,0.21,-0.24,0.20,4.21,4.21,4.21
39.34,4.04,4.04,-0.16,-0.16,0.16,-0.29,0.15,4.20,4.20,4.19
39.74,4.08,4.08,-0.10,-0.10,0.10,-0.33,0.10,4.18,4.18,4.18
40.14,4.13,4.13,-0.05,-0.04,0.04,-0.38,0.05,4.17,4.17,4.17
40.54,4.18,4.18,0.02,0.02,-0.02,-0.42,0.01,4.16,4.16,4.16
40.94,4.23,4.23,0.08,0.08,-0.08,-0.46,-0.04,4.15,4.15,4.15
41.35,4.29,4.29,0.15,0.15,-0.15,-0.51,-0.09,4.14,4.14,4.14
41.76,4.35,4.35,0.22,0.22,-0.22,-0.55,-0.15,4.13,4.13,4.13
42.18,4.41,4.41,0.29,0.29,-0.29,-0.59,-0.20,4.12,4.12,4.12
42.60,4.48,4.48,0.37,0.36,-0.37,-0.63,-0.25,4.11,4.11,4.11
43.03,4.54,4.54,0.44,0.44,-0.45,-0.67,-0.30,4.09,4.09,4.10
43.46,4.60,4.60,0.52,0.52,-0.53,-0.72,-0.35,4.07,4.08,4.08
43.90,4.67,4.67,0.61,0.61,-0.61,-0.76,-0.40,4.06,4.06,4.06
44.33,4.73,4.73,0.69,0.69,-0.69,-0.80,-0.46,4.04,4.04,4.04
44.78,4.79,4.79,0.77,0.77,-0.77,-0.84,-0.51,4.02,4.02,4.02
45.23,4.85,4.85,0.85,0.85,-0.85,-0.88,-0.56,4.00,4.00,4.00
45.68,4.91,4.91,0.93,0.92,-0.92,-0.92,-0.62,3.99,3.99,3.98
46.13,4.96,4.96,1.00,1.00,-0.99,-0.97,-0.67,3.97,3.97,3.96
46.60,5.02,5.02,1.06,1.07,-1.06,-1.01,-0.72,3.96,3.95,3.95
47.06,5.07,5.07,1.13,1.13,-1.13,-1.05,-0.78,3.94,3.93,3.94
47.53,5.11,5.11,1.19,1.20,-1.20,-1.09,-0.83,3.91,3.91,3.92
48.01,5.16,5.16,1.25,1.26,-1.27,-1.14,-0.89,3.89,3.89,3.90
48.49,5.20,5.20,1.32,1.32,-1.33,-1.18,-0.94,3.87,3.87,3.87
48.97,5.23,5.24,1.39,1.39,-1.39,-1.23,-1.00,3.84,3.85,3.84
49.46,5.27,5.27,1.46,1.46,-1.45,-1.27,-1.05,3.82,3.82,3.81
49.96,5.30,5.30,1.52,1.51,-1.50,-1.31,-1.11,3.80,3.79,3.78
50.46,5.32,5.32,1.55,1.56,-1.55,-1.36,-1.16,3.76,3.77,3.77
50.96,5.34,5.34,1.59,1.60,-1.60,-1.40,-1.22,3.74,3.74,3.75
51.47,5.36,5.36,1.65,1.64,-1.64,-1.44,-1.27,3.71,3.71,3.71
51.99,5.38,5.38,1.69,1.69,-1.68,-1.49,-1.32,3.70,3.69,3.69
52.51,5.39,5.39,1.71,1.72,-1.72,-1.53,-1.38,3.67,3.67,3.67
53.03,5.40,5.40,1.75,1.75,-1.75,-1.57,-1.43,3.65,3.65,3.65
53.56,5.40,5.40,1.77,1.78,-1.78,-1.61,-1.48,3.62,3.62,3.63
54.10,5.41,5.41,1.81,1.81,-1.81,-1.64,-1.53,3.60,3.60,3.60
54.64,5.41,5.41,1.84,1.83,-1.83,-1.67,-1.58,3.58,3.57,3.57
55.18,5.40,5.40,1.85,1.86,-1.86,-1.70,-1.63,3.54,3.55,3.55
55.74,5.40,5.40,1.88,1.87,-1.87,-1.73,-1.68,3.52,3.52,3.52
56.29,5.39,5.39,1.89,1.89,-1.89,-1.75,-1.73,3.50,3.50,3.50
56.86,5.38,5.38,1.90,1.91,-1.91,-1.77,-1.77,3.47,3.48,3.47
57.42,5.37,5.37,1.92,1.92,-1.92,-1.79,-1.81,3.45,3.45,3.45
58.00,5.36,5.36,1.93,1.93,-1.92,-1.80,-1.85,3.43,3.43,3.43
58.58,5.34,5.34,1.93,1.93,-1.93,-1.81,-1.89,3.41,3.41,3.41
59.16,5.32,5.32,1.93,1.93,-1.94,-1.81,-1.92,3.38,3.38,3.39
59.76,5.30,5.30,1.93,1.94,-1.94,-1.82,-1.96,3.36,3.36,3.37
60.35,5.28,5.28,1.95,1.94,-1.95,-1.82,-1.99,3.33,3.33,3.33
60.96,5.26,5.26,1.95,1.95,-1.95,-1.83,-2.02,3.31,3.30,3.31
61.57,5.23,5.23,1.96,1.96,-1.96,-1.83,-2.04,3.27,3.27,3.27
62.18,5.20,5.20,1.97,1.96,-1.96,-1.83,-2.06,3.24,3.24,3.23
62.80,5.17,5.17,1.96,1.96,-1.96,-1.83,-2.08,3.21,3.21,3.21
63.43,5.14,5.14,1.96,1.96,-1.96,-1.83,-2.10,3.18,3.18,3.17
64.07,5.11,5.11,1.96,1.96,-1.96,-1.83,-2.11,3.15,3.15,3.15
64.71,5.08,5.08,1.96,1.96,-1.96,-1.84,-2.12,3.12,3.12,3.12
65.35,5.05,5.05,1.95,1.95,-1.95,-1.84,-2.13,3.10,3.09,3.09
66.01,5.01,5.01,1.94,1.95,-1.95,-1.84,-2.14,3.06,3.07,3.07
66.67,4.98,4.98,1.94,1.94,-1.94,-1.85,-2.14,3.04,3.04,3.04
67.33,4.94,4.94,1.93,1.93,-1.93,-1.85,-2.14,3.01,3.01,3.01
68.01,4.90,4.90,1.92,1.93,-1.93,-1.86,-2.14,2.97,2.98,2.98
68.69,4.87,4.87,1.92,1.92,-1.92,-1.86,-2.14,2.95,2.95,2.95
69.37,4.83,4.83,1.92,1.91,-1.91,-1.87,-2.14,2.92,2.92,2.91
70.07,4.79,4.79,1.91,1.90,-1.91,-1.88,-2.13,2.88,2.88,2.88
70.77,4.75,4.75,1.89,1.90,-1.90,-1.89,-2.13,2.85,2.85,2.86
71.48,4.71,4.71,1.89,1.89,-1.90,-1.89,-2.12,2.81,2.82,2.82
72.19,4.68,4.68,1.89,1.89,-1.89,-1.90,-2.11,2.79,2.79,2.79
72.91,4.64,4.64,1.89,1.89,-1.88,-1.91,-2.10,2.75,2.75,2.75
73.64,4.60,4.60,1.88,1.88,-1.88,-1.92,-2.10,2.72,2.72,2.71
74.38,4.56,4.56,1.87,1.88,-1.87,-1.93,-2.09,2.69,2.69,2.69
75.12,4.52,4.52,1.87,1.87,-1.87,-1.94,-2.08,2.65,2.65,2.65
75.87,4.48,4.48,1.86,1.86,-1.86,-1.96,-2.07,2.62,2.62,2.62
76.63,4.44,4.44,1.85,1.85,-1.85,-1.97,-2.07,2.59,2.59,2.59
77.40,4.39,4.39,1.83,1.84,-1.84,-1.98,-2.06,2.55,2.55,2.56
78.17,4.35,4.35,1.83,1.83,-1.83,-1.99,-2.05,2.52,2.52,2.52
78.95,4.31,4.31,1.82,1.82,-1.82,-2.00,-2.05,2.49,2.49,2.49
79.74,4.27,4.27,1.81,1.81,-1.81,-2.01,-2.04,2.46,2.46,2.46
80.54,4.23,4.23,1.80,1.80,-1.81,-2.03,-2.04,2.42,2.42,2.43
81.35,4.19,4.19,1.80,1.80,-1.80,-2.04,-2.04,2.39,2.39,2.39
82.16,4.16,4.16,1.80,1.80,-1.80,-2.05,-2.04,2.36,2.36,2.36
82.98,4.12,4.12,1.79,1.80,-1.79,-2.07,-2.04,2.33,2.32,2.33
83.81,4.08,4.08,1.80,1.79,-1.79,-2.08,-2.04,2.29,2.29,2.28
84.65,4.04,4.04,1.79,1.79,-1.79,-2.09,-2.05,2.25,2.25,2.24
85.50,4.00,4.00,1.78,1.79,-1.79,-2.10,-2.05,2.21,2.21,2.22
86.35,3.97,3.97,1.79,1.79,-1.79,-2.12,-2.06,2.18,2.18,2.18
87.22,3.93,3.93,1.79,1.79,-1.79,-2.13,-2.07,2.14,2.14,2.14
88.09,3.89,3.89,1.79,1.79,-1.79,-2.14,-2.08,2.10,2.10,2.10
88.97,3.86,3.86,1.79,1.80,-1.80,-2.16,-2.09,2.06,2.06,2.07
89.86,3.82,3.82,1.80,1.80,-1.80,-2.17,-2.10,2.02,2.02,2.02
90.76,3.79,3.79,1.82,1.81,-1.81,-2.18,-2.12,1.98,1.98,1.97
91.66,3.75,3.75,1.81,1.82,-1.82,-2.20,-2.13,1.93,1.94,1.94
92.58,3.72,3.72,1.83,1.83,-1.82,-2.21,-2.15,1.89,1.89,1.89
93.51,3.69,3.69,1.84,1.83,-1.84,-2.23,-2.17,1.85,1.85,1.85
94.44,3.65,3.65,1.84,1.85,-1.85,-2.24,-2.19,1.80,1.80,1.81
95.39,3.62,3.62,1.86,1.86,-1.86,-2.25,-2.22,1.76,1.76,1.76
96.34,3.59,3.59,1.88,1.88,-1.88,-2.27,-2.24,1.71,1.71,1.71
97.30,3.56,3.56,1.89,1.89,-1.89,-2.28,-2.27,1.67,1.67,1.66
98.28,3.53,3.53,1.91,1.91,-1.91,-2.29,-2.29,1.62,1.62,1.62
99.26,3.50,3.50,1.93,1.93,-1.93,-2.31,-2.32,1.57,1.57,1.57
100.25,3.47,3.47,1.94,1.94,-1.94,-2.32,-2.35,1.53,1.53,1.53
101.25,3.44,3.44,1.96,1.96,-1.96,-2.33,-2.38,1.48,1.48,1.48
102.27,3.41,3.41,1.97,1.98,-1.97,-2.35,-2.41,1.43,1.43,1.44
103.29,3.38,3.38,2.00,1.99,-1.99,-2.36,-2.44,1.39,1.39,1.38
104.32,3.35,3.35,2.01,2.01,-2.01,-2.37,-2.47,1.34,1.34,1.34
105.37,3.32,3.32,2.02,2.02,-2.02,-2.38,-2.50,1.29,1.29,1.30
106.42,3.29,3.29,2.04,2.04,-2.04,-2.40,-2.53,1.25,1.25,1.25
107.48,3.26,3.26,2.06,2.06,-2.06,-2.41,-2.57,1.20,1.20,1.20
108.56,3.23,3.23,2.08,2.08,-2.08,-2.42,-2.60,1.15,1.15,1.15
109.64,3.21,3.21,2.11,2.10,-2.10,-2.44,-2.63,1.11,1.10,1.10
110.74,3.18,3.18,2.12,2.12,-2.12,-2.45,-2.66,1.06,1.05,1.06
111.85,3.15,3.15,2.14,2.15,-2.15,-2.46,-2.68,1.00,1.00,1.01
112.97,3.12,3.12,2.17,2.17,-2.17,-2.47,-2.71,0.95,0.95,0.94
114.10,3.10,3.10,2.20,2.20,-2.20,-2.48,-2.73,0.90,0.90,0.90
115.24,3.07,3.07,2.22,2.23,-2.23,-2.50,-2.76,0.84,0.84,0.84
116.39,3.04,3.04,2.25,2.25,-2.25,-2.51,-2.78,0.79,0.79,0.79
117.55,3.02,3.02,2.28,2.28,-2.28,-2.52,-2.79,0.74,0.74,0.74
118.73,2.99,2.99,2.31,2.30,-2.30,-2.53,-2.81,0.69,0.69,0.68
119.92,2.96,2.96,2.32,2.33,-2.33,-2.54,-2.82,0.63,0.64,0.64
121.12,2.94,2.94,2.35,2.35,-2.35,-2.55,-2.83,0.59,0.59,0.59
122.33,2.91,2.91,2.38,2.37,-2.37,-2.56,-2.84,0.53,0.54,0.53
123.55,2.89,2.89,2.40,2.40,-2.40,-2.58,-2.84,0.49,0.49,0.49
124.79,2.86,2.86,2.42,2.42,-2.42,-2.59,-2.84,0.43,0.44,0.44
126.03,2.84,2.84,2.45,2.45,-2.45,-2.60,-2.84,0.39,0.39,0.39
127.29,2.81,2.81,2.47,2.47,-2.48,-2.61,-2.83,0.33,0.34,0.34
128.57,2.79,2.79,2.51,2.50,-2.50,-2.61,-2.83,0.29,0.29,0.28
129.85,2.76,2.76,2.53,2.53,-2.52,-2.62,-2.81,0.23,0.24,0.23
131.15,2.74,2.74,2.56,2.55,-2.55,-2.63,-2.80,0.19,0.19,0.18
132.46,2.71,2.71,2.57,2.57,-2.57,-2.64,-2.78,0.14,0.14,0.14
133.79,2.69,2.69,2.59,2.59,-2.60,-2.65,-2.76,0.09,0.09,0.10
135.12,2.66,2.66,2.61,2.61,-2.62,-2.66,-2.73,0.04,0.05,0.04
136.48,2.64,2.64,2.63,2.63,-2.64,-2.66,-2.71,0.00,0.00,0.01
137.84,2.62,2.62,2.65,2.66,-2.65,-2.67,-2.68,-0.04,-0.04,-0.04
139.22,2.59,2.59,2.68,2.68,-2.67,-2.68,-2.65,-0.08,-0.08,-0.09
140.61,2.57,2.57,2.70,2.69,-2.69,-2.68,-2.62,-0.12,-0.12,-0.13
142.02,2.55,2.55,2.70,2.71,-2.71,-2.69,-2.59,-0.16,-0.16,-0.15
143.44,2.52,2.52,2.71,2.72,-2.72,-2.69,-2.55,-0.20,-0.20,-0.19
144.87,2.50,2.50,2.73,2.73,-2.73,-2.70,-2.52,-0.24,-0.24,-0.24
146.32,2.48,2.48,2.75,2.75,-2.75,-2.70,-2.48,-0.27,-0.27,-0.27
147.78,2.45,2.45,2.75,2.76,-2.76,-2.71,-2.45,-0.31,-0.31,-0.30
149.26,2.43,2.43,2.77,2.77,-2.77,-2.71,-2.41,-0.34,-0.35,-0.34
150.75,2.40,2.40,2.79,2.79,-2.79,-2.71,-2.38,-0.39,-0.38,-0.39
152.26,2.38,2.38,2.80,2.80,-2.80,-2.71,-2.34,-0.42,-0.42,-0.42
153.78,2.35,2.35,2.81,2.81,-2.81,-2.71,-2.30,-0.46,-0.46,-0.46
155.32,2.32,2.32,2.82,2.82,-2.83,-2.71,-2.27,-0.51,-0.50,-0.51
156.88,2.30,2.30,2.84,2.84,-2.84,-2.71,-2.24,-0.54,-0.54,-0.54
158.44,2.27,2.27,2.85,2.85,-2.85,-2.71,-2.20,-0.58,-0.58,-0.58
160.03,2.24,2.24,2.86,2.86,-2.86,-2.71,-2.17,-0.62,-0.62,-0.62
161.63,2.21,2.21,2.88,2.87,-2.87,-2.71,-2.14,-0.66,-0.66,-0.67
163.24,2.17,2.17,2.88,2.88,-2.88,-2.70,-2.11,-0.71,-0.70,-0.71
164.88,2.14,2.14,2.88,2.88,-2.88,-2.70,-2.08,-0.74,-0.74,-0.74
166.53,2.11,2.11,2.88,2.88,-2.88,-2.69,-2.05,-0.78,-0.78,-0.78
168.19,2.07,2.07,2.88,2.89,-2.89,-2.69,-2.03,-0.82,-0.81,-0.81
169.87,2.04,2.04,2.89,2.89,-2.89,-2.68,-2.00,-0.85,-0.85,-0.85
171.57,2.00,2.00,2.89,2.89,-2.89,-2.67,-1.98,-0.89,-0.89,-0.89
173.29,1.96,1.96,2.88,2.89,-2.89,-2.66,-1.96,-0.93,-0.93,-0.92
175.02,1.92,1.92,2.88,2.88,-2.88,-2.65,-1.94,-0.97,-0.96,-0.96
176.77,1.88,1.88,2.88,2.88,-2.88,-2.64,-1.92,-1.00,-1.00,-1.00
178.54,1.83,1.83,2.88,2.87,-2.87,-2.63,-1.90,-1.04,-1.04,-1.05
180.32,1.77,1.78,2.85,2.86,-2.85,-2.62,-1.88,-1.08,-1.08,-1.08
182.13,1.72,1.72,2.83,2.83,-2.83,-2.61,-1.87,-1.11,-1.12,-1.11
183.95,1.66,1.66,2.82,2.81,-2.81,-2.59,-1.86,-1.15,-1.15,-1.16
185.79,1.59,1.59,2.78,2.78,-2.78,-2.58,-1.85,-1.19,-1.19,-1.19
187.65,1.53,1.53,2.76,2.75,-2.75,-2.56,-1.84,-1.22,-1.23,-1.23
189.52,1.46,1.46,2.72,2.72,-2.72,-2.54,-1.83,-1.26,-1.26,-1.26
191.42,1.40,1.40,2.69,2.69,-2.69,-2.53,-1.82,-1.29,-1.29,-1.29
193.33,1.33,1.33,2.65,2.65,-2.65,-2.51,-1.81,-1.33,-1.32,-1.32
195.27,1.27,1.27,2.61,2.62,-2.62,-2.49,-1.81,-1.35,-1.35,-1.35
197.22,1.21,1.21,2.58,2.59,-2.59,-2.46,-1.80,-1.38,-1.38,-1.37
199.19,1.15,1.15,2.56,2.55,-2.55,-2.44,-1.80,-1.40,-1.40,-1.41
201.18,1.09,1.09,2.52,2.52,-2.51,-2.42,-1.80,-1.42,-1.42,-1.43
203.19,1.03,1.03,2.47,2.48,-2.47,-2.39,-1.80,-1.44,-1.44,-1.44
205.23,0.97,0.97,2.44,2.43,-2.43,-2.37,-1.80,-1.46,-1.46,-1.47
207.28,0.91,0.91,2.38,2.39,-2.39,-2.34,-1.80,-1.48,-1.48,-1.47
209.35,0.85,0.85,2.35,2.35,-2.35,-2.31,-1.80,-1.50,-1.50,-1.50
211.44,0.79,0.79,2.31,2.30,-2.30,-2.29,-1.80,-1.51,-1.51,-1.52
213.56,0.73,0.73,2.26,2.26,-2.26,-2.26,-1.80,-1.53,-1.53,-1.53
215.69,0.67,0.67,2.20,2.21,-2.21,-2.22,-1.80,-1.54,-1.54,-1.53
217.85,0.62,0.62,2.16,2.16,-2.16,-2.19,-1.81,-1.54,-1.54,-1.54
220.03,0.56,0.56,2.11,2.11,-2.11,-2.16,-1.81,-1.55,-1.55,-1.55
222.23,0.51,0.51,2.08,2.07,-2.06,-2.13,-1.81,-1.55,-1.56,-1.57
224.45,0.45,0.45,2.01,2.01,-2.01,-2.09,-1.81,-1.56,-1.56,-1.56
226.70,0.40,0.40,1.96,1.96,-1.96,-2.05,-1.81,-1.56,-1.56,-1.56
228.96,0.36,0.36,1.92,1.91,-1.92,-2.02,-1.81,-1.56,-1.56,-1.56
231.25,0.31,0.31,1.86,1.86,-1.87,-1.98,-1.80,-1.56,-1.56,-1.55
233.57,0.27,0.27,1.82,1.82,-1.82,-1.94,-1.80,-1.55,-1.55,-1.55
235.90,0.22,0.22,1.77,1.77,-1.77,-1.90,-1.79,-1.55,-1.55,-1.55
238.26,0.18,0.18,1.73,1.73,-1.73,-1.86,-1.79,-1.55,-1.54,-1.55
240.64,0.15,0.14,1.69,1.68,-1.68,-1.82,-1.78,-1.53,-1.54,-1.54
243.05,0.11,0.11,1.64,1.64,-1.64,-1.78,-1.77,-1.53,-1.53,-1.53
245.48,0.07,0.07,1.58,1.59,-1.59,-1.73,-1.76,-1.52,-1.52,-1.52
247.93,0.04,0.04,1.54,1.55,-1.55,-1.69,-1.75,-1.51,-1.51,-1.50
250.41,0.01,0.01,1.51,1.50,-1.50,-1.65,-1.73,-1.49,-1.49,-1.50
252.92,-0.02,-0.02,1.46,1.46,-1.46,-1.60,-1.72,-1.48,-1.48,-1.48
255.45,-0.04,-0.04,1.42,1.42,-1.42,-1.55,-1.70,-1.46,-1.46,-1.46
258.00,-0.07,-0.07,1.37,1.37,-1.38,-1.51,-1.68,-1.45,-1.44,-1.44
260.58,-0.09,-0.09,1.34,1.33,-1.33,-1.46,-1.65,-1.43,-1.43,-1.43
263.19,-0.11,-0.11,1.30,1.30,-1.29,-1.41,-1.63,-1.41,-1.41,-1.41
265.82,-0.14,-0.13,1.25,1.26,-1.25,-1.36,-1.61,-1.39,-1.39,-1.39
268.48,-0.15,-0.15,1.22,1.22,-1.21,-1.31,-1.58,-1.37,-1.37,-1.37
271.16,-0.17,-0.17,1.17,1.18,-1.18,-1.27,-1.55,-1.35,-1.35,-1.34
273.87,-0.19,-0.19,1.14,1.14,-1.14,-1.22,-1.52,-1.33,-1.33,-1.33
276.61,-0.21,-0.21,1.10,1.10,-1.10,-1.17,-1.49,-1.31,-1.31,-1.31
279.38,-0.23,-0.23,1.06,1.06,-1.06,-1.12,-1.46,-1.29,-1.29,-1.29
282.17,-0.24,-0.25,1.04,1.03,-1.03,-1.06,-1.42,-1.27,-1.27,-1.28
284.99,-0.26,-0.26,0.99,0.99,-0.99,-1.01,-1.39,-1.25,-1.25,-1.25
287.84,-0.28,-0.28,0.96,0.96,-0.96,-0.96,-1.35,-1.24,-1.23,-1.24
290.72,-0.29,-0.29,0.92,0.92,-0.92,-0.91,-1.32,-1.21,-1.22,-1.21
293.63,-0.31,-0.31,0.88,0.88,-0.88,-0.86,-1.28,-1.19,-1.19,-1.19
296.57,-0.33,-0.33,0.84,0.85,-0.85,-0.81,-1.24,-1.18,-1.17,-1.17
299.53,-0.34,-0.34,0.81,0.81,-0.81,-0.76,-1.21,-1.15,-1.15,-1.15
302.53,-0.36,-0.36,0.78,0.77,-0.77,-0.71,-1.17,-1.13,-1.13,-1.14
305.55,-0.38,-0.38,0.72,0.73,-0.73,-0.66,-1.13,-1.11,-1.10,-1.10
308.61,-0.39,-0.39,0.69,0.69,-0.69,-0.61,-1.09,-1.08,-1.08,-1.08
311.69,-0.41,-0.41,0.65,0.64,-0.65,-0.56,-1.05,-1.06,-1.06,-1.06
314.81,-0.43,-0.43,0.59,0.60,-0.60,-0.52,-1.02,-1.03,-1.03,-1.02
317.96,-0.45,-0.45,0.55,0.56,-0.56,-0.47,-0.98,-1.01,-1.01,-1.00
321.14,-0.47,-0.47,0.52,0.52,-0.52,-0.42,-0.94,-0.99,-0.99,-0.99
324.35,-0.49,-0.49,0.48,0.47,-0.47,-0.38,-0.91,-0.96,-0.97,-0.97
327.59,-0.52,-0.52,0.42,0.43,-0.43,-0.33,-0.87,-0.95,-0.95,-0.94
330.87,-0.55,-0.55,0.38,0.38,-0.38,-0.29,-0.83,-0.93,-0.93,-0.93
334.18,-0.57,-0.57,0.34,0.33,-0.33,-0.25,-0.80,-0.90,-0.91,-0.91
337.52,-0.60,-0.60,0.29,0.29,-0.29,-0.20,-0.76,-0.89,-0.89,-0.89
340.90,-0.63,-0.63,0.23,0.24,-0.24,-0.16,-0.73,-0.87,-0.87,-0.86
344.30,-0.66,-0.66,0.19,0.19,-0.19,-0.12,-0.69,-0.85,-0.85,-0.85
347.75,-0.69,-0.69,0.14,0.14,-0.14,-0.09,-0.66,-0.83,-0.83,-0.83
351.23,-0.72,-0.72,0.09,0.09,-0.09,-0.05,-0.63,-0.81,-0.81,-0.81
354.74,-0.75,-0.75,0.04,0.04,-0.04,-0.02,-0.59,-0.80,-0.79,-0.79
358.28,-0.78,-0.78,-0.00,-0.00,-0.00,0.02,-0.56,-0.78,-0.78,-0.78
361.87,-0.80,-0.80,-0.04,-0.04,0.04,0.05,-0.53,-0.76,-0.76,-0.76
365.49,-0.83,-0.83,-0.08,-0.08,0.08,0.08,-0.50,-0.75,-0.75,-0.75
369.14,-0.85,-0.85,-0.11,-0.11,0.11,0.11,-0.46,-0.74,-0.74,-0.74
372.83,-0.87,-0.87,-0.15,-0.14,0.14,0.13,-0.43,-0.73,-0.72,-0.72
376.56,-0.88,-0.88,-0.17,-0.17,0.17,0.16,-0.40,-0.71,-0.71,-0.72
380.33,-0.89,-0.89,-0.20,-0.20,0.20,0.18,-0.37,-0.69,-0.70,-0.69
384.13,-0.90,-0.90,-0.22,-0.22,0.22,0.20,-0.34,-0.68,-0.68,-0.68
387.97,-0.91,-0.91,-0.24,-0.24,0.24,0.22,-0.31,-0.67,-0.67,-0.67
391.85,-0.91,-0.91,-0.25,-0.26,0.26,0.24,-0.29,-0.65,-0.66,-0.66
395.77,-0.92,-0.92,-0.28,-0.27,0.27,0.26,-0.26,-0.65,-0.65,-0.64
399.73,-0.92,-0.92,-0.29,-0.28,0.29,0.28,-0.23,-0.64,-0.64,-0.63
403.72,-0.92,-0.92,-0.29,-0.30,0.30,0.29,-0.20,-0.62,-0.62,-0.63
407.76,-0.92,-0.92,-0.30,-0.30,0.31,0.30,-0.17,-0.62,-0.61,-0.62
411.84,-0.91,-0.91,-0.31,-0.31,0.31,0.31,-0.15,-0.60,-0.60,-0.60
415.96,-0.91,-0.91,-0.32,-0.32,0.32,0.32,-0.12,-0.59,-0.59,-0.59
420.12,-0.90,-0.90,-0.32,-0.32,0.32,0.33,-0.10,-0.58,-0.58,-0.58
424.32,-0.89,-0.89,-0.32,-0.32,0.32,0.34,-0.07,-0.57,-0.57,-0.57
428.56,-0.88,-0.88,-0.32,-0.32,0.31,0.34,-0.05,-0.57,-0.57,-0.56
432.85,-0.87,-0.87,-0.32,-0.31,0.31,0.35,-0.02,-0.56,-0.56,-0.55
437.18,-0.85,-0.85,-0.31,-0.30,0.30,0.35,0.00,-0.55,-0.54,-0.55
441.55,-0.82,-0.82,-0.29,-0.29,0.29,0.35,0.02,-0.53,-0.53,-0.53
445.96,-0.79,-0.80,-0.27,-0.28,0.29,0.35,0.05,-0.50,-0.51,-0.52
450.42,-0.78,-0.78,-0.27,-0.27,0.28,0.35,0.07,-0.50,-0.50,-0.51
454.93,-0.76,-0.76,-0.27,-0.27,0.27,0.35,0.09,-0.49,-0.49,-0.49
459.48,-0.75,-0.75,-0.27,-0.27,0.27,0.35,0.11,-0.48,-0.48,-0.48
464.07,-0.73,-0.73,-0.27,-0.27,0.26,0.35,0.13,-0.47,-0.47,-0.46
468.71,-0.71,-0.71,-0.27,-0.27,0.26,0.35,0.15,-0.45,-0.45,-0.44
473.40,-0.69,-0.69,-0.26,-0.26,0.26,0.34,0.17,-0.43,-0.43,-0.43
478.13,-0.67,-0.67,-0.26,-0.26,0.26,0.34,0.18,-0.41,-0.41,-0.41
482.91,-0.66,-0.66,-0.26,-0.26,0.26,0.33,0.20,-0.40,-0.40,-0.40
487.74,-0.64,-0.64,-0.26,-0.26,0.26,0.33,0.22,-0.38,-0.38,-0.38
492.62,-0.63,-0.63,-0.27,-0.26,0.26,0.32,0.23,-0.37,-0.37,-0.36
497.55,-0.62,-0.62,-0.27,-0.27,0.27,0.32,0.24,-0.35,-0.35,-0.36
502.52,-0.61,-0.61,-0.27,-0.27,0.27,0.31,0.26,-0.34,-0.34,-0.34
507.55,-0.60,-0.60,-0.27,-0.28,0.28,0.31,0.27,-0.32,-0.33,-0.33
