frequency,raw
20,-16.41
21,-15.73
22,-15.03
23,-14.31
24,-13.68
25,-12.80
26,-12.22
27,-11.68
28,-11.18
29,-10.71
30,-10.05
31,-9.64
32,-9.12
33,-8.68
34,-8.21
35,-7.82
36,-7.30
37,-7.04
38,-6.56
39,-6.15
40,-5.93
41,-5.70
42,-5.29
43,-5.24
44,-4.79
45,-4.79
46,-4.56
47,-4.33
48,-4.10
49,-4.10
50,-3.87
51,-3.65
52,-3.55
53,-3.42
54,-3.19
55,-3.19
56,-3.19
57,-3.19
58,-3.19
59,-3.19
60,-3.19
61,-3.19
62,-3.42
63,-3.42
64,-3.74
65,-3.87
66,-3.87
67,-4.10
68,-4.43
69,-4.58
70,-4.79
71,-5.01
72,-5.01
73,-5.01
74,-4.74
75,-4.39
76,-4.27
77,-4.10
78,-4.04
79,-3.87
80,-3.65
81,-3.50
82,-3.42
83,-3.32
84,-3.19
85,-3.19
86,-3.19
87,-3.19
88,-3.19
89,-3.19
90,-3.19
91,-3.19
92,-3.19
93,-3.33
94,-3.42
95,-3.42
96,-3.42
97,-3.52
98,-3.65
99,-3.83
100,-4.10
101,-4.13
102,-4.33
104,-4.33
105,-4.33
106,-4.33
107,-4.33
108,-4.33
109,-4.33
110,-4.33
111,-4.33
112,-4.33
113,-4.33
114,-4.33
115,-4.33
117,-4.33
118,-4.33
119,-4.33
120,-4.33
121,-4.33
123,-4.56
124,-4.56
125,-4.56
126,-4.56
128,-4.56
129,-4.56
130,-4.56
131,-4.56
133,-4.56
134,-4.74
135,-4.79
137,-4.79
138,-4.79
140,-4.79
141,-4.79
142,-4.90
144,-5.01
145,-5.01
147,-5.01
148,-5.07
150,-5.24
151,-5.24
153,-5.24
154,-5.24
156,-5.32
157,-5.47
159,-5.47
160,-5.53
162,-5.86
164,-6.15
165,-6.15
167,-6.38
169,-6.38
170,-6.32
172,-6.15
174,-6.15
175,-6.15
177,-6.15
179,-6.15
181,-6.27
183,-6.38
184,-6.38
186,-6.38
188,-6.38
190,-6.38
192,-6.46
194,-6.61
196,-6.61
198,-6.61
200,-6.62
202,-6.84
204,-6.84
206,-6.84
208,-6.84
210,-6.84
212,-6.84
214,-6.84
216,-6.84
218,-6.84
221,-6.97
223,-7.07
225,-7.07
227,-7.07
229,-7.07
232,-7.07
234,-7.02
236,-6.84
239,-6.84
241,-6.84
244,-6.84
246,-6.84
248,-6.84
251,-6.61
253,-6.56
256,-6.38
259,-6.38
261,-6.20
264,-6.13
266,-5.93
269,-5.86
272,-5.57
274,-5.38
277,-5.09
280,-5.01
283,-4.75
286,-4.48
288,-4.31
291,-4.09
294,-3.75
297,-3.65
300,-3.45
303,-3.18
306,-2.96
309,-2.96
312,-2.92
316,-2.55
319,-2.28
322,-2.27
325,-2.02
328,-1.76
332,-1.35
335,-1.04
338,-0.76
342,-0.68
345,-0.46
349,-0.37
352,-0.23
356,-0.08
359,0.14
363,0.23
366,0.42
370,0.48
374,0.68
377,0.68
381,0.80
385,0.91
389,0.91
393,0.91
397,0.91
401,0.91
405,0.91
409,0.91
413,0.91
417,0.91
421,0.91
425,0.91
430,0.91
434,0.91
438,0.78
443,0.68
447,0.68
451,0.68
456,0.68
460,0.68
465,0.68
470,0.68
474,0.52
479,0.46
484,0.46
489,0.46
494,0.34
499,0.23
504,0.23
509,0.23
514,0.23
519,0.23
524,0.23
529,0.23
535,0.23
540,0.23
545,0.04
551,0.00
556,0.00
562,0.00
568,0.00
573,0.00
579,-0.00
585,0.00
591,0.00
596,0.00
602,-0.08
608,-0.23
615,-0.23
621,-0.23
627,-0.23
633,-0.23
639,-0.23
646,-0.23
652,-0.23
659,-0.23
665,-0.23
672,-0.22
679,0.00
686,0.00
692,0.00
699,0.00
706,-0.00
713,0.00
721,0.00
728,0.00
735,0.00
742,0.00
750,-0.17
757,-0.23
765,-0.23
773,-0.23
780,-0.29
788,-0.46
796,-0.59
804,-0.68
812,-0.68
820,-0.92
828,-1.17
837,-1.37
845,-1.25
853,-1.14
862,-0.96
871,-0.68
879,-0.44
888,-0.23
897,-0.23
906,-0.23
915,-0.23
924,-0.23
933,-0.01
943,0.00
952,0.00
962,0.00
971,0.00
981,0.00
991,0.00
1001,0.00
1011,0.05
1021,0.23
1031,0.23
1041,0.23
1052,0.41
1062,0.46
1073,0.46
1084,0.46
1094,0.53
1105,0.68
1116,0.68
1128,0.88
1139,0.91
1150,0.91
1162,0.91
1173,0.91
1185,0.91
1197,0.91
1209,1.11
1221,1.14
1233,1.17
1246,1.37
1258,1.47
1271,1.60
1283,1.60
1296,1.80
1309,1.84
1322,2.05
1335,2.13
1349,2.28
1362,2.28
1376,2.28
1390,2.28
1404,2.28
1418,2.21
1432,2.05
1446,1.92
1461,1.65
1475,1.60
1490,1.37
1505,1.37
1520,1.37
1535,1.26
1550,1.14
1566,1.14
1582,1.14
1597,1.14
1613,1.14
1629,1.14
1646,1.14
1662,1.14
1679,1.33
1696,1.37
1713,1.37
1730,1.43
1747,1.60
1764,1.71
1782,1.82
1800,1.82
1818,2.05
1836,2.05
1854,2.05
1873,2.15
1892,2.28
1911,2.28
1930,2.49
1949,2.52
1969,2.74
1988,2.74
2008,2.74
2028,2.74
2048,2.91
2069,2.96
2090,2.96
2111,2.96
2132,3.06
2153,3.19
2175,3.19
2196,3.19
2218,3.19
2240,3.19
2263,3.19
2285,3.19
2308,3.19
2331,3.19
2355,3.19
2378,3.19
2402,3.19
2426,3.27
2450,3.42
2475,3.42
2500,3.60
2525,3.65
2550,3.87
2575,3.87
2601,3.96
2627,4.10
2653,4.25
2680,4.33
2707,4.56
2734,4.59
2761,4.85
2789,5.01
2817,5.15
2845,5.41
2873,5.67
2902,5.70
2931,5.96
2960,6.15
2990,6.26
3020,6.38
3050,6.56
3080,6.61
3111,6.84
3142,6.84
3174,6.84
3206,6.84
3238,6.84
3270,6.84
3303,6.84
3336,6.84
3369,6.84
3403,6.84
3437,6.71
3471,6.61
3506,6.41
3541,6.38
3576,6.35
3612,6.15
3648,6.15
3685,6.15
3721,6.15
3759,6.15
3796,6.15
3834,6.15
3873,6.03
3911,5.64
3950,5.18
3990,4.56
4030,4.01
4070,3.38
4111,2.88
4152,2.44
4193,2.04
4235,2.09
4278,2.55
4321,3.19
4364,3.55
4407,3.65
4451,3.50
4496,3.10
4541,2.54
4586,1.89
4632,1.23
4679,0.59
4725,0.11
4773,-0.34
4820,-0.71
4868,-0.89
4917,-1.12
4966,-1.39
5016,-1.65
5066,-1.91
5117,-2.24
5168,-2.63
5220,-2.93
5272,-3.19
5325,-3.45
5378,-3.71
5432,-4.02
5486,-4.42
5541,-4.89
5596,-5.31
5652,-5.82
5709,-6.39
5766,-7.37
5823,-9.06
5882,-11.40
5940,-14.02
6000,-16.59
6060,-18.15
6120,-16.61
6182,-13.82
6244,-10.98
6306,-9.00
6369,-7.61
6433,-6.96
6497,-6.58
6562,-6.32
6628,-6.06
6694,-5.93
6761,-5.76
6828,-5.70
6897,-5.70
6966,-5.70
7035,-5.77
7106,-5.93
7177,-5.93
7249,-5.93
7321,-5.93
7394,-5.70
7468,-5.65
7543,-5.47
7618,-5.47
7694,-5.62
7771,-5.88
7849,-6.14
7928,-6.42
8007,-6.78
8087,-7.18
8168,-7.78
8250,-8.30
8332,-8.92
8415,-9.46
8499,-10.23
8584,-10.81
8670,-11.21
8757,-11.53
8845,-11.62
8933,-11.42
9022,-10.80
9113,-9.91
9204,-8.56
9296,-7.07
9389,-5.57
9483,-4.49
9577,-3.79
9673,-3.95
9770,-4.84
9868,-5.45
9966,-5.09
10066,-3.80
10167,-2.45
10268,-1.27
10371,-0.52
10475,-0.16
10579,-0.10
10685,-0.23
10792,-0.56
10900,-1.09
11009,-2.10
11119,-3.54
11230,-5.13
11343,-7.05
11456,-9.16
11571,-11.71
11686,-16.65
11803,-21.60
11921,-24.55
12040,-22.43
12161,-18.93
12282,-15.70
12405,-13.12
12529,-11.21
12655,-9.66
12781,-8.52
12909,-7.67
13038,-7.54
13168,-8.21
13300,-9.53
13433,-11.09
13567,-12.67
13703,-13.30
13840,-13.00
13978,-12.48
14118,-11.96
14259,-11.12
14402,-10.18
14546,-8.92
14692,-7.91
14838,-7.17
14987,-7.41
15137,-8.76
15288,-10.32
15441,-11.40
15595,-11.19
15751,-10.22
15909,-8.98
16068,-6.72
16229,-3.87
16391,-0.99
16555,1.50
16720,2.13
16888,1.79
17056,1.07
17227,0.28
17399,-0.40
17573,-0.94
17749,-1.51
17926,-2.33
18106,-3.72
18287,-6.13
18470,-10.35
18654,-14.86
18841,-16.88
19029,-14.56
19220,-12.97
19412,-12.89
19606,-12.83
19802,-12.96
20000,-13.33
