frequency,raw
20,-9.57
21,-9.24
22,-8.83
23,-8.46
24,-8.12
25,-7.67
26,-7.13
27,-6.56
28,-6.20
29,-6.07
30,-6.04
31,-6.00
32,-5.81
33,-5.51
34,-5.28
35,-5.16
36,-5.05
37,-4.98
38,-4.83
39,-4.68
40,-4.51
41,-4.37
42,-4.21
43,-4.07
44,-3.94
45,-3.79
46,-3.67
47,-3.55
48,-3.45
49,-3.33
50,-3.24
51,-3.14
52,-3.08
53,-3.01
54,-2.92
55,-2.84
56,-2.81
57,-2.74
58,-2.68
59,-2.59
60,-2.51
61,-2.43
62,-2.36
63,-2.28
64,-2.16
65,-2.08
66,-2.00
67,-1.96
68,-1.92
69,-1.92
70,-1.92
71,-1.98
72,-2.06
73,-2.21
74,-2.38
75,-2.54
76,-2.70
77,-2.84
78,-2.90
79,-2.88
80,-2.79
81,-2.64
82,-2.44
83,-2.26
84,-2.05
85,-1.86
86,-1.68
87,-1.51
88,-1.37
89,-1.24
90,-1.12
91,-1.05
92,-0.99
93,-0.94
94,-0.88
95,-0.85
96,-0.82
97,-0.78
98,-0.75
99,-0.70
100,-0.67
101,-0.64
102,-0.62
104,-0.58
105,-0.56
106,-0.53
107,-0.53
108,-0.53
109,-0.51
110,-0.52
111,-0.53
112,-0.53
113,-0.53
114,-0.53
115,-0.53
117,-0.53
118,-0.49
119,-0.48
120,-0.45
121,-0.42
123,-0.36
124,-0.33
125,-0.31
126,-0.27
128,-0.23
129,-0.19
130,-0.19
131,-0.16
133,-0.14
134,-0.11
135,-0.09
137,-0.03
138,-0.01
140,0.01
141,0.03
142,0.03
144,0.07
145,0.07
147,0.07
148,0.06
150,0.03
151,0.03
153,0.02
154,0.01
156,0.01
157,0.01
159,0.01
160,0.01
162,0.01
164,0.01
165,0.01
167,0.01
169,-0.01
170,-0.01
172,-0.01
174,-0.01
175,-0.04
177,-0.06
179,-0.06
181,-0.09
183,-0.10
184,-0.10
186,-0.10
188,-0.10
190,-0.10
192,-0.10
194,-0.11
196,-0.14
198,-0.14
200,-0.14
202,-0.14
204,-0.14
206,-0.14
208,-0.14
210,-0.17
212,-0.19
214,-0.19
216,-0.19
218,-0.23
221,-0.23
223,-0.23
225,-0.23
227,-0.27
229,-0.27
232,-0.27
234,-0.28
236,-0.32
239,-0.32
241,-0.36
244,-0.36
246,-0.36
248,-0.38
251,-0.40
253,-0.40
256,-0.44
259,-0.45
261,-0.45
264,-0.49
266,-0.49
269,-0.49
272,-0.49
274,-0.53
277,-0.53
280,-0.53
283,-0.53
286,-0.53
288,-0.53
291,-0.53
294,-0.49
297,-0.49
300,-0.49
303,-0.49
306,-0.49
309,-0.49
312,-0.49
316,-0.49
319,-0.49
322,-0.49
325,-0.49
328,-0.49
332,-0.49
335,-0.49
338,-0.49
342,-0.49
345,-0.49
349,-0.53
352,-0.53
356,-0.53
359,-0.53
363,-0.53
366,-0.53
370,-0.53
374,-0.53
377,-0.53
381,-0.53
385,-0.53
389,-0.53
393,-0.53
397,-0.53
401,-0.53
405,-0.53
409,-0.53
413,-0.53
417,-0.53
421,-0.56
425,-0.58
430,-0.58
434,-0.58
438,-0.58
443,-0.60
447,-0.60
451,-0.60
456,-0.62
460,-0.62
465,-0.63
470,-0.66
474,-0.66
479,-0.66
484,-0.66
489,-0.66
494,-0.66
499,-0.66
504,-0.66
509,-0.66
514,-0.66
519,-0.66
524,-0.66
529,-0.66
535,-0.66
540,-0.64
545,-0.62
551,-0.62
556,-0.62
562,-0.62
568,-0.66
573,-0.66
579,-0.70
585,-0.73
591,-0.75
596,-0.79
602,-0.79
608,-0.80
615,-0.84
621,-0.83
627,-0.79
633,-0.79
639,-0.76
646,-0.75
652,-0.71
659,-0.71
665,-0.67
672,-0.66
679,-0.66
686,-0.66
692,-0.62
699,-0.62
706,-0.62
713,-0.60
721,-0.59
728,-0.58
735,-0.60
742,-0.62
750,-0.63
757,-0.66
765,-0.67
773,-0.71
780,-0.71
788,-0.75
796,-0.75
804,-0.79
812,-0.79
820,-0.79
828,-0.79
837,-0.75
845,-0.73
853,-0.69
862,-0.62
871,-0.55
879,-0.49
888,-0.43
897,-0.37
906,-0.32
915,-0.29
924,-0.24
933,-0.19
943,-0.16
952,-0.13
962,-0.10
971,-0.07
981,-0.06
991,-0.01
1001,0.00
1011,0.03
1021,0.07
1031,0.11
1041,0.12
1052,0.16
1062,0.16
1073,0.20
1084,0.20
1094,0.22
1105,0.22
1116,0.22
1128,0.25
1139,0.25
1150,0.25
1162,0.25
1173,0.25
1185,0.25
1197,0.25
1209,0.23
1221,0.20
1233,0.16
1246,0.11
1258,0.08
1271,0.02
1283,-0.04
1296,-0.09
1309,-0.16
1322,-0.24
1335,-0.32
1349,-0.41
1362,-0.49
1376,-0.57
1390,-0.65
1404,-0.73
1418,-0.79
1432,-0.87
1446,-0.93
1461,-0.99
1475,-1.04
1490,-1.09
1505,-1.12
1520,-1.14
1535,-1.14
1550,-1.18
1566,-1.18
1582,-1.18
1597,-1.18
1613,-1.18
1629,-1.16
1646,-1.14
1662,-1.12
1679,-1.06
1696,-1.00
1713,-0.91
1730,-0.83
1747,-0.71
1764,-0.61
1782,-0.46
1800,-0.33
1818,-0.19
1836,-0.04
1854,0.13
1873,0.30
1892,0.48
1911,0.69
1930,0.88
1949,1.08
1969,1.31
1988,1.54
2008,1.76
2028,2.01
2048,2.27
2069,2.52
2090,2.78
2111,3.01
2132,3.24
2153,3.46
2175,3.70
2196,3.90
2218,4.12
2240,4.35
2263,4.56
2285,4.74
2308,4.94
2331,5.13
2355,5.32
2378,5.50
2402,5.71
2426,5.92
2450,6.10
2475,6.29
2500,6.45
2525,6.62
2550,6.72
2575,6.80
2601,6.86
2627,6.91
2653,6.92
2680,6.92
2707,6.92
2734,6.88
2761,6.88
2789,6.86
2817,6.83
2845,6.78
2873,6.73
2902,6.67
2931,6.60
2960,6.53
2990,6.45
3020,6.36
3050,6.28
3080,6.18
3111,6.06
3142,5.95
3174,5.80
3206,5.68
3238,5.53
3270,5.39
3303,5.23
3336,5.07
3369,4.90
3403,4.75
3437,4.59
3471,4.42
3506,4.26
3541,4.11
3576,3.97
3612,3.82
3648,3.69
3685,3.56
3721,3.45
3759,3.31
3796,3.19
3834,3.05
3873,2.89
3911,2.71
3950,2.52
3990,2.27
4030,2.04
4070,1.83
4111,1.64
4152,1.55
4193,1.65
4235,1.88
4278,2.20
4321,2.62
4364,3.10
4407,3.56
4451,3.99
4496,4.43
4541,4.77
4586,5.10
4632,5.42
4679,5.66
4725,5.87
4773,6.03
4820,6.17
4868,6.31
4917,6.43
4966,6.56
5016,6.71
5066,6.86
5117,7.00
5168,7.19
5220,7.38
5272,7.53
5325,7.70
5378,7.80
5432,7.87
5486,7.78
5541,7.63
5596,7.41
5652,7.07
5709,6.63
5766,6.07
5823,5.46
5882,4.70
5940,3.94
6000,3.14
6060,2.30
6120,1.46
6182,0.60
6244,-0.18
6306,-0.90
6369,-1.56
6433,-2.15
6497,-2.62
6562,-3.01
6628,-3.29
6694,-3.50
6761,-3.66
6828,-3.74
6897,-3.78
6966,-3.78
7035,-3.76
7106,-3.69
7177,-3.55
7249,-3.37
7321,-3.12
7394,-2.79
7468,-2.40
7543,-1.98
7618,-1.55
7694,-1.16
7771,-0.89
7849,-0.69
7928,-0.77
8007,-1.04
8087,-1.56
8168,-2.33
8250,-3.28
8332,-4.61
8415,-6.19
8499,-7.83
8584,-9.74
8670,-11.77
8757,-13.74
8845,-15.56
8933,-16.89
9022,-17.87
9113,-18.04
9204,-17.26
9296,-16.33
9389,-15.06
9483,-13.72
9577,-12.61
9673,-11.72
9770,-11.05
9868,-10.63
9966,-10.40
10066,-10.30
10167,-10.41
10268,-10.62
10371,-10.92
10475,-11.33
10579,-11.77
10685,-12.33
10792,-12.87
10900,-13.46
11009,-14.06
11119,-14.58
11230,-15.00
11343,-15.29
11456,-15.47
11571,-15.46
11686,-15.36
11803,-15.21
11921,-15.08
12040,-14.99
12161,-14.98
12282,-15.09
12405,-15.33
12529,-15.63
12655,-16.05
12781,-16.54
12909,-17.10
13038,-17.58
13168,-18.00
13300,-18.29
13433,-18.33
13567,-17.98
13703,-17.35
13840,-16.59
13978,-15.49
14118,-14.22
14259,-12.95
14402,-11.49
14546,-9.97
14692,-8.55
14838,-7.19
14987,-5.94
15137,-4.81
15288,-3.84
15441,-2.99
15595,-2.25
15751,-1.67
15909,-1.21
16068,-0.91
16229,-0.73
16391,-0.61
16555,-0.65
16720,-0.81
16888,-1.07
17056,-1.45
17227,-1.98
17399,-2.66
17573,-3.46
17749,-4.37
17926,-5.35
18106,-6.18
18287,-6.78
18470,-7.26
18654,-7.01
18841,-6.48
19029,-5.91
19220,-5.21
19412,-4.47
19606,-4.01
19802,-3.61
20000,-3.29
