frequency,raw,smoothed,error,error_smoothed,equalization,parametric_eq,fixed_band_eq,equalized_raw,equalized_smoothed,target
20.00,-2.58,-2.58,-4.62,-4.62,4.57,3.94,1.73,1.99,1.99,2.04
20.20,-2.54,-2.53,-4.62,-4.62,4.61,3.94,1.79,2.07,2.07,2.09
20.40,-2.50,-2.49,-4.63,-4.63,4.64,3.94,1.84,2.14,2.14,2.14
20.61,-2.46,-2.45,-4.62,-4.63,4.66,3.93,1.89,2.20,2.21,2.17
20.81,-2.42,-2.41,-4.63,-4.63,4.68,3.93,1.95,2.26,2.26,2.22
21.02,-2.38,-2.39,-4.63,-4.64,4.69,3.92,2.01,2.31,2.30,2.26
21.23,-2.38,-2.38,-4.65,-4.66,4.69,3.92,2.07,2.31,2.31,2.28
21.44,-2.39,-2.38,-4.68,-4.68,4.69,3.92,2.13,2.30,2.30,2.29
21.66,-2.39,-2.39,-4.70,-4.71,4.69,3.91,2.19,2.30,2.29,2.31
21.87,-2.40,-2.39,-4.72,-4.72,4.67,3.91,2.26,2.28,2.29,2.32
22.09,-2.37,-2.36,-4.71,-4.70,4.65,3.91,2.32,2.28,2.29,2.34
22.31,-2.30,-2.30,-4.65,-4.65,4.62,3.90,2.39,2.32,2.31,2.35
22.54,-2.23,-2.22,-4.58,-4.58,4.57,3.90,2.46,2.35,2.35,2.35
22.76,-2.15,-2.15,-4.50,-4.50,4.53,3.89,2.53,2.38,2.38,2.35
22.99,-2.08,-2.09,-4.42,-4.43,4.48,3.89,2.61,2.40,2.39,2.34
23.22,-2.06,-2.05,-4.40,-4.39,4.43,3.88,2.68,2.37,2.38,2.34
23.45,-2.03,-2.03,-4.37,-4.37,4.38,3.88,2.76,2.35,2.35,2.34
23.69,-2.01,-2.01,-4.36,-4.35,4.34,3.88,2.84,2.33,2.33,2.35
23.92,-1.99,-1.98,-4.33,-4.33,4.30,3.87,2.92,2.31,2.32,2.35
24.16,-1.95,-1.94,-4.30,-4.30,4.27,3.87,3.00,2.32,2.32,2.36
24.40,-1.90,-1.90,-4.26,-4.25,4.24,3.86,3.08,2.35,2.35,2.37
24.65,-1.85,-1.84,-4.20,-4.20,4.23,3.86,3.17,2.38,2.39,2.35
24.89,-1.80,-1.81,-4.15,-4.16,4.22,3.85,3.25,2.42,2.41,2.35
25.14,-1.79,-1.80,-4.14,-4.15,4.20,3.85,3.34,2.42,2.41,2.35
25.39,-1.82,-1.82,-4.18,-4.18,4.19,3.84,3.42,2.37,2.37,2.36
25.65,-1.85,-1.85,-4.21,-4.20,4.17,3.84,3.51,2.32,2.32,2.36
25.91,-1.87,-1.85,-4.22,-4.21,4.14,3.83,3.60,2.28,2.29,2.35
26.16,-1.83,-1.82,-4.17,-4.17,4.11,3.82,3.68,2.29,2.29,2.35
26.43,-1.75,-1.75,-4.10,-4.10,4.08,3.82,3.77,2.33,2.33,2.35
26.69,-1.67,-1.67,-4.01,-4.02,4.03,3.81,3.85,2.36,2.36,2.35
26.96,-1.59,-1.60,-3.94,-3.95,3.98,3.81,3.94,2.39,2.38,2.35
27.23,-1.56,-1.55,-3.91,-3.91,3.94,3.80,4.02,2.38,2.38,2.35
27.50,-1.53,-1.52,-3.88,-3.87,3.90,3.79,4.10,2.37,2.38,2.35
27.77,-1.50,-1.50,-3.84,-3.84,3.87,3.79,4.17,2.38,2.38,2.34
28.05,-1.48,-1.49,-3.82,-3.83,3.86,3.78,4.24,2.38,2.36,2.34
28.33,-1.51,-1.51,-3.84,-3.84,3.84,3.77,4.31,2.33,2.33,2.33
28.62,-1.53,-1.53,-3.85,-3.86,3.82,3.77,4.38,2.29,2.29,2.33
28.90,-1.55,-1.53,-3.88,-3.86,3.80,3.76,4.44,2.25,2.27,2.33
29.19,-1.51,-1.49,-3.83,-3.82,3.77,3.75,4.49,2.27,2.28,2.32
29.48,-1.42,-1.42,-3.76,-3.75,3.75,3.74,4.54,2.33,2.33,2.34
29.78,-1.34,-1.34,-3.67,-3.68,3.72,3.74,4.59,2.38,2.37,2.33
30.08,-1.28,-1.30,-3.62,-3.63,3.68,3.73,4.62,2.40,2.39,2.34
30.38,-1.29,-1.28,-3.61,-3.61,3.64,3.72,4.66,2.36,2.36,2.33
30.68,-1.29,-1.29,-3.61,-3.61,3.61,3.71,4.68,2.32,2.32,2.32
30.99,-1.30,-1.28,-3.62,-3.60,3.58,3.70,4.70,2.28,2.29,2.32
31.30,-1.26,-1.26,-3.58,-3.58,3.56,3.70,4.70,2.30,2.30,2.32
31.61,-1.23,-1.23,-3.54,-3.54,3.54,3.69,4.71,2.32,2.32,2.32
31.93,-1.19,-1.19,-3.50,-3.51,3.53,3.68,4.70,2.34,2.33,2.32
32.24,-1.18,-1.18,-3.48,-3.49,3.51,3.67,4.69,2.33,2.33,2.30
32.57,-1.18,-1.18,-3.49,-3.48,3.49,3.66,4.67,2.31,2.31,2.31
32.89,-1.18,-1.17,-3.48,-3.47,3.46,3.65,4.65,2.28,2.29,2.31
33.22,-1.16,-1.15,-3.45,-3.45,3.43,3.64,4.62,2.27,2.27,2.29
33.55,-1.12,-1.12,-3.41,-3.41,3.40,3.63,4.58,2.28,2.27,2.29
33.89,-1.09,-1.09,-3.37,-3.37,3.36,3.62,4.54,2.28,2.28,2.28
34.23,-1.05,-1.05,-3.33,-3.33,3.33,3.61,4.50,2.29,2.29,2.29
34.57,-1.02,-1.01,-3.29,-3.29,3.30,3.60,4.44,2.28,2.29,2.27
34.92,-0.98,-0.98,-3.25,-3.26,3.27,3.59,4.39,2.30,2.29,2.27
35.27,-0.97,-0.97,-3.23,-3.23,3.25,3.58,4.33,2.28,2.28,2.27
35.62,-0.97,-0.96,-3.23,-3.23,3.23,3.57,4.27,2.27,2.27,2.26
35.97,-0.97,-0.97,-3.23,-3.23,3.22,3.55,4.21,2.26,2.26,2.26
36.33,-0.97,-0.97,-3.23,-3.22,3.22,3.54,4.14,2.25,2.25,2.27
36.70,-0.97,-0.97,-3.22,-3.22,3.22,3.53,4.08,2.25,2.25,2.25
37.06,-0.97,-0.97,-3.21,-3.22,3.22,3.52,4.01,2.25,2.25,2.25
37.43,-0.97,-0.97,-3.23,-3.22,3.22,3.50,3.94,2.26,2.26,2.26
37.81,-0.97,-0.97,-3.23,-3.22,3.23,3.49,3.87,2.26,2.26,2.26
38.19,-0.97,-0.97,-3.22,-3.23,3.23,3.48,3.80,2.27,2.27,2.25
38.57,-0.97,-0.97,-3.23,-3.23,3.23,3.46,3.74,2.27,2.27,2.26
38.95,-0.97,-0.97,-3.23,-3.23,3.23,3.45,3.67,2.26,2.26,2.27
39.34,-0.98,-0.98,-3.24,-3.24,3.22,3.43,3.60,2.25,2.25,2.26
39.74,-0.98,-0.98,-3.23,-3.23,3.21,3.42,3.54,2.23,2.24,2.25
40.14,-0.97,-0.96,-3.23,-3.21,3.20,3.40,3.48,2.23,2.24,2.26
40.54,-0.93,-0.93,-3.18,-3.18,3.18,3.39,3.42,2.25,2.25,2.25
40.94,-0.89,-0.90,-3.13,-3.15,3.16,3.37,3.36,2.27,2.26,2.25
41.35,-0.88,-0.88,-3.12,-3.12,3.14,3.36,3.30,2.26,2.27,2.24
41.76,-0.87,-0.87,-3.10,-3.11,3.12,3.34,3.24,2.25,2.25,2.24
42.18,-0.87,-0.87,-3.11,-3.10,3.10,3.32,3.19,2.23,2.23,2.24
42.60,-0.87,-0.87,-3.09,-3.09,3.08,3.31,3.14,2.21,2.21,2.22
43.03,-0.87,-0.87,-3.08,-3.08,3.06,3.29,3.09,2.20,2.20,2.22
43.46,-0.87,-0.87,-3.08,-3.07,3.05,3.27,3.04,2.19,2.19,2.21
43.90,-0.87,-0.86,-3.05,-3.05,3.05,3.25,3.00,2.19,2.19,2.18
44.33,-0.87,-0.86,-3.03,-3.03,3.06,3.23,2.96,2.19,2.20,2.16
44.78,-0.87,-0.88,-3.01,-3.02,3.07,3.21,2.92,2.20,2.19,2.14
45.23,-0.90,-0.91,-3.03,-3.04,3.07,3.19,2.88,2.17,2.16,2.14
45.68,-0.97,-0.96,-3.08,-3.07,3.07,3.17,2.85,2.10,2.11,2.12
46.13,-1.01,-1.00,-3.11,-3.11,3.06,3.15,2.82,2.06,2.06,2.10
46.60,-1.02,-1.02,-3.12,-3.11,3.05,3.13,2.79,2.04,2.03,2.10
47.06,-1.02,-0.99,-3.10,-3.07,3.04,3.11,2.76,2.02,2.05,2.08
47.53,-0.94,-0.94,-3.01,-3.02,3.01,3.08,2.73,2.08,2.07,2.07
48.01,-0.87,-0.89,-2.94,-2.96,2.98,3.06,2.71,2.12,2.09,2.07
48.49,-0.87,-0.86,-2.92,-2.91,2.95,3.04,2.69,2.08,2.09,2.05
48.97,-0.87,-0.86,-2.90,-2.89,2.91,3.01,2.67,2.04,2.05,2.03
49.46,-0.87,-0.87,-2.87,-2.87,2.88,2.99,2.65,2.02,2.02,2.01
49.96,-0.87,-0.87,-2.85,-2.86,2.86,2.96,2.63,1.99,1.99,1.99
50.46,-0.87,-0.87,-2.85,-2.85,2.84,2.93,2.62,1.98,1.98,1.98
50.96,-0.87,-0.87,-2.84,-2.83,2.83,2.91,2.60,1.96,1.96,1.97
51.47,-0.87,-0.87,-2.81,-2.82,2.81,2.88,2.59,1.95,1.95,1.95
51.99,-0.87,-0.88,-2.80,-2.81,2.79,2.85,2.58,1.93,1.92,1.93
52.51,-0.87,-0.87,-2.80,-2.80,2.77,2.82,2.56,1.90,1.90,1.93
53.03,-0.87,-0.83,-2.79,-2.75,2.75,2.79,2.55,1.88,1.92,1.93
53.56,-0.78,-0.79,-2.69,-2.70,2.72,2.76,2.54,1.94,1.93,1.91
54.10,-0.72,-0.77,-2.61,-2.67,2.70,2.73,2.53,1.98,1.92,1.89
54.64,-0.79,-0.76,-2.67,-2.64,2.67,2.70,2.52,1.88,1.91,1.88
55.18,-0.80,-0.75,-2.67,-2.62,2.63,2.67,2.51,1.84,1.88,1.87
55.74,-0.71,-0.74,-2.56,-2.60,2.58,2.63,2.49,1.88,1.84,1.86
56.29,-0.68,-0.71,-2.53,-2.55,2.52,2.60,2.48,1.85,1.82,1.85
56.86,-0.70,-0.67,-2.53,-2.49,2.45,2.57,2.46,1.75,1.79,1.83
57.42,-0.62,-0.61,-2.42,-2.42,2.36,2.53,2.44,1.75,1.76,1.80
58.00,-0.51,-0.50,-2.30,-2.29,2.26,2.49,2.42,1.76,1.77,1.79
58.58,-0.36,-0.37,-2.14,-2.15,2.15,2.46,2.40,1.80,1.79,1.78
59.16,-0.24,-0.26,-2.00,-2.03,2.05,2.42,2.38,1.81,1.78,1.76
59.76,-0.20,-0.18,-1.94,-1.92,1.95,2.38,2.35,1.75,1.77,1.74
60.35,-0.15,-0.13,-1.85,-1.83,1.87,2.34,2.32,1.72,1.74,1.70
60.96,-0.08,-0.10,-1.74,-1.77,1.81,2.30,2.29,1.73,1.70,1.67
61.57,-0.10,-0.10,-1.72,-1.73,1.76,2.26,2.25,1.66,1.66,1.62
62.18,-0.15,-0.14,-1.73,-1.72,1.73,2.21,2.21,1.58,1.59,1.58
62.80,-0.21,-0.20,-1.74,-1.74,1.71,2.17,2.17,1.50,1.51,1.53
63.43,-0.25,-0.24,-1.74,-1.73,1.69,2.12,2.13,1.45,1.45,1.49
64.07,-0.27,-0.26,-1.71,-1.71,1.67,2.08,2.08,1.40,1.41,1.44
64.71,-0.27,-0.27,-1.66,-1.67,1.65,2.03,2.03,1.38,1.38,1.40
65.35,-0.27,-0.27,-1.63,-1.63,1.62,1.98,1.97,1.35,1.35,1.36
66.01,-0.27,-0.27,-1.58,-1.58,1.59,1.93,1.91,1.32,1.32,1.31
66.67,-0.27,-0.26,-1.53,-1.52,1.55,1.88,1.85,1.28,1.29,1.26
67.33,-0.27,-0.27,-1.48,-1.48,1.51,1.83,1.78,1.25,1.24,1.21
68.01,-0.27,-0.29,-1.44,-1.46,1.47,1.78,1.72,1.21,1.18,1.17
68.69,-0.34,-0.33,-1.46,-1.44,1.44,1.73,1.64,1.10,1.11,1.12
69.37,-0.37,-0.36,-1.44,-1.43,1.40,1.67,1.57,1.03,1.05,1.07
70.07,-0.38,-0.37,-1.39,-1.40,1.37,1.62,1.50,0.99,0.99,1.02
70.77,-0.37,-0.37,-1.34,-1.34,1.33,1.56,1.42,0.97,0.96,0.97
71.48,-0.37,-0.37,-1.29,-1.28,1.30,1.50,1.34,0.93,0.93,0.92
72.19,-0.38,-0.38,-1.23,-1.24,1.26,1.44,1.26,0.88,0.88,0.85
72.91,-0.40,-0.42,-1.19,-1.21,1.22,1.38,1.17,0.82,0.80,0.80
73.64,-0.47,-0.44,-1.21,-1.18,1.18,1.32,1.09,0.71,0.73,0.74
74.38,-0.48,-0.46,-1.16,-1.14,1.14,1.26,1.00,0.66,0.68,0.68
75.12,-0.45,-0.48,-1.07,-1.10,1.10,1.20,0.92,0.65,0.62,0.62
75.87,-0.50,-0.50,-1.06,-1.07,1.07,1.13,0.83,0.57,0.57,0.56
76.63,-0.55,-0.53,-1.06,-1.04,1.04,1.06,0.74,0.50,0.51,0.51
77.40,-0.57,-0.55,-1.03,-1.01,1.02,1.00,0.65,0.45,0.46,0.46
78.17,-0.57,-0.57,-0.97,-0.99,0.99,0.93,0.56,0.43,0.42,0.40
78.95,-0.57,-0.60,-0.94,-0.97,0.97,0.86,0.46,0.41,0.37,0.37
79.74,-0.67,-0.63,-0.98,-0.95,0.96,0.79,0.37,0.29,0.33,0.32
80.54,-0.68,-0.67,-0.95,-0.94,0.94,0.71,0.28,0.27,0.27,0.27
81.35,-0.68,-0.71,-0.89,-0.93,0.93,0.64,0.18,0.25,0.22,0.22
82.16,-0.75,-0.73,-0.92,-0.90,0.91,0.56,0.09,0.16,0.18,0.17
82.98,-0.77,-0.76,-0.90,-0.88,0.88,0.49,-0.00,0.11,0.12,0.13
83.81,-0.77,-0.78,-0.84,-0.86,0.84,0.41,-0.10,0.07,0.06,0.08
84.65,-0.78,-0.77,-0.81,-0.81,0.79,0.33,-0.20,0.01,0.01,0.03
85.50,-0.77,-0.75,-0.76,-0.74,0.72,0.25,-0.29,-0.04,-0.03,-0.01
86.35,-0.72,-0.73,-0.66,-0.67,0.66,0.17,-0.39,-0.06,-0.07,-0.06
87.22,-0.67,-0.68,-0.56,-0.57,0.59,0.09,-0.48,-0.08,-0.09,-0.11
88.09,-0.66,-0.62,-0.50,-0.46,0.51,0.01,-0.58,-0.15,-0.11,-0.16
88.97,-0.55,-0.59,-0.34,-0.38,0.42,-0.08,-0.68,-0.13,-0.17,-0.21
89.86,-0.56,-0.58,-0.30,-0.32,0.31,-0.16,-0.78,-0.24,-0.26,-0.26
90.76,-0.58,-0.55,-0.26,-0.24,0.20,-0.25,-0.88,-0.37,-0.35,-0.31
91.66,-0.54,-0.51,-0.18,-0.15,0.09,-0.34,-0.98,-0.45,-0.42,-0.36
92.58,-0.41,-0.40,0.01,0.01,-0.04,-0.43,-1.08,-0.44,-0.44,-0.42
93.51,-0.25,-0.27,0.21,0.19,-0.17,-0.52,-1.18,-0.42,-0.44,-0.46
94.44,-0.14,-0.15,0.37,0.35,-0.31,-0.61,-1.28,-0.45,-0.47,-0.51
95.39,-0.08,-0.06,0.47,0.50,-0.47,-0.70,-1.38,-0.55,-0.53,-0.55
96.34,0.02,0.02,0.63,0.63,-0.64,-0.79,-1.48,-0.61,-0.61,-0.61
97.30,0.13,0.12,0.78,0.77,-0.81,-0.88,-1.58,-0.67,-0.68,-0.65
98.28,0.23,0.25,0.93,0.95,-0.97,-0.98,-1.68,-0.74,-0.72,-0.70
99.26,0.38,0.39,1.12,1.13,-1.13,-1.07,-1.78,-0.74,-0.74,-0.74
100.25,0.54,0.52,1.33,1.31,-1.28,-1.17,-1.89,-0.74,-0.76,-0.79
101.25,0.65,0.65,1.49,1.48,-1.44,-1.27,-1.99,-0.79,-0.80,-0.83
102.27,0.73,0.74,1.61,1.62,-1.61,-1.36,-2.09,-0.87,-0.87,-0.88
103.29,0.82,0.82,1.76,1.75,-1.77,-1.46,-2.19,-0.95,-0.95,-0.94
104.32,0.91,0.92,1.89,1.89,-1.93,-1.56,-2.29,-1.02,-1.01,-0.97
105.37,1.02,1.04,2.04,2.06,-2.09,-1.66,-2.39,-1.06,-1.05,-1.02
106.42,1.17,1.17,2.24,2.23,-2.24,-1.76,-2.49,-1.06,-1.07,-1.06
107.48,1.30,1.28,2.42,2.40,-2.38,-1.86,-2.58,-1.08,-1.10,-1.12
108.56,1.37,1.38,2.55,2.56,-2.52,-1.96,-2.68,-1.15,-1.14,-1.18
109.64,1.43,1.46,2.66,2.69,-2.66,-2.06,-2.77,-1.23,-1.20,-1.22
110.74,1.55,1.51,2.83,2.79,-2.80,-2.16,-2.86,-1.24,-1.28,-1.28
111.85,1.58,1.57,2.90,2.90,-2.91,-2.26,-2.95,-1.33,-1.34,-1.32
112.97,1.57,1.64,2.95,3.02,-3.02,-2.36,-3.03,-1.44,-1.37,-1.38
114.10,1.73,1.70,3.16,3.12,-3.11,-2.47,-3.12,-1.38,-1.42,-1.43
115.24,1.78,1.75,3.25,3.22,-3.21,-2.57,-3.20,-1.43,-1.46,-1.47
116.39,1.76,1.79,3.29,3.31,-3.30,-2.67,-3.27,-1.54,-1.51,-1.53
117.55,1.79,1.81,3.35,3.37,-3.40,-2.77,-3.34,-1.61,-1.59,-1.56
118.73,1.86,1.86,3.47,3.46,-3.49,-2.87,-3.41,-1.63,-1.64,-1.60
119.92,1.93,1.93,3.56,3.56,-3.58,-2.97,-3.47,-1.65,-1.65,-1.63
121.12,2.00,2.01,3.67,3.67,-3.66,-3.07,-3.53,-1.65,-1.65,-1.67
122.33,2.06,2.06,3.76,3.76,-3.73,-3.17,-3.58,-1.67,-1.67,-1.70
123.55,2.11,2.10,3.84,3.83,-3.80,-3.27,-3.63,-1.69,-1.70,-1.72
124.79,2.11,2.12,3.87,3.87,-3.86,-3.36,-3.67,-1.75,-1.74,-1.75
126.03,2.12,2.13,3.91,3.91,-3.92,-3.46,-3.71,-1.80,-1.79,-1.78
127.29,2.13,2.13,3.94,3.94,-3.96,-3.56,-3.75,-1.83,-1.83,-1.80
128.57,2.13,2.14,3.98,3.98,-3.99,-3.65,-3.78,-1.85,-1.85,-1.84
129.85,2.14,2.15,4.02,4.02,-4.01,-3.75,-3.80,-1.86,-1.86,-1.87
131.15,2.15,2.14,4.05,4.05,-4.02,-3.84,-3.82,-1.87,-1.88,-1.90
132.46,2.14,2.13,4.07,4.06,-4.04,-3.93,-3.84,-1.90,-1.92,-1.93
133.79,2.08,2.10,4.04,4.05,-4.06,-4.02,-3.85,-1.98,-1.96,-1.95
135.12,2.06,2.07,4.05,4.06,-4.08,-4.11,-3.86,-2.02,-2.01,-1.99
136.48,2.06,2.06,4.07,4.07,-4.10,-4.20,-3.86,-2.04,-2.04,-2.01
137.84,2.06,2.06,4.10,4.10,-4.12,-4.28,-3.86,-2.05,-2.06,-2.04
139.22,2.06,2.07,4.14,4.14,-4.14,-4.37,-3.87,-2.07,-2.07,-2.07
140.61,2.07,2.07,4.18,4.17,-4.16,-4.45,-3.86,-2.08,-2.08,-2.11
142.02,2.07,2.08,4.19,4.20,-4.18,-4.53,-3.86,-2.11,-2.10,-2.12
143.44,2.07,2.06,4.22,4.22,-4.20,-4.60,-3.85,-2.13,-2.14,-2.15
144.87,2.04,2.04,4.23,4.22,-4.23,-4.68,-3.85,-2.18,-2.19,-2.19
146.32,1.99,2.01,4.22,4.23,-4.25,-4.75,-3.84,-2.26,-2.24,-2.23
147.78,1.97,1.98,4.23,4.24,-4.27,-4.82,-3.84,-2.30,-2.29,-2.26
149.26,1.96,1.95,4.27,4.26,-4.28,-4.89,-3.83,-2.32,-2.33,-2.31
150.75,1.91,1.92,4.29,4.29,-4.29,-4.95,-3.83,-2.38,-2.37,-2.37
152.26,1.87,1.88,4.31,4.31,-4.29,-5.01,-3.82,-2.42,-2.41,-2.44
153.78,1.81,1.80,4.32,4.31,-4.28,-5.07,-3.82,-2.47,-2.48,-2.51
155.32,1.71,1.71,4.29,4.29,-4.25,-5.13,-3.82,-2.54,-2.54,-2.58
156.88,1.58,1.59,4.24,4.24,-4.21,-5.18,-3.82,-2.63,-2.63,-2.65
158.44,1.45,1.45,4.19,4.19,-4.16,-5.23,-3.82,-2.71,-2.71,-2.74
160.03,1.31,1.32,4.13,4.14,-4.11,-5.28,-3.82,-2.79,-2.78,-2.82
161.63,1.20,1.20,4.09,4.08,-4.07,-5.32,-3.83,-2.87,-2.88,-2.89
163.24,1.10,1.08,4.05,4.03,-4.07,-5.37,-3.83,-2.97,-2.99,-2.95
164.88,0.99,1.01,3.99,4.02,-4.11,-5.40,-3.85,-3.12,-3.10,-3.00
166.53,0.99,1.02,4.04,4.07,-4.19,-5.44,-3.86,-3.20,-3.18,-3.05
168.19,1.12,1.12,4.21,4.21,-4.31,-5.47,-3.88,-3.19,-3.19,-3.09
169.87,1.29,1.31,4.42,4.43,-4.46,-5.49,-3.90,-3.16,-3.15,-3.13
171.57,1.53,1.52,4.68,4.66,-4.62,-5.52,-3.92,-3.08,-3.10,-3.14
173.29,1.72,1.71,4.88,4.87,-4.78,-5.54,-3.94,-3.06,-3.07,-3.16
175.02,1.86,1.86,5.03,5.03,-4.93,-5.55,-3.97,-3.07,-3.07,-3.16
176.77,1.95,1.95,5.13,5.13,-5.06,-5.57,-4.00,-3.10,-3.10,-3.18
178.54,2.01,2.00,5.20,5.18,-5.15,-5.58,-4.04,-3.14,-3.14,-3.18
180.32,2.02,2.03,5.20,5.21,-5.21,-5.59,-4.08,-3.19,-3.18,-3.18
182.13,2.03,2.04,5.20,5.21,-5.24,-5.59,-4.12,-3.21,-3.20,-3.17
183.95,2.04,2.04,5.22,5.22,-5.26,-5.60,-4.16,-3.22,-3.22,-3.18
185.79,2.05,2.06,5.24,5.24,-5.27,-5.59,-4.21,-3.22,-3.22,-3.18
187.65,2.07,2.07,5.28,5.27,-5.29,-5.59,-4.26,-3.22,-3.22,-3.20
189.52,2.08,2.08,5.30,5.30,-5.31,-5.58,-4.31,-3.23,-3.23,-3.21
191.42,2.09,2.10,5.33,5.33,-5.33,-5.57,-4.37,-3.24,-3.24,-3.23
193.33,2.11,2.11,5.36,5.36,-5.35,-5.56,-4.43,-3.24,-3.24,-3.25
195.27,2.12,2.12,5.39,5.39,-5.37,-5.55,-4.49,-3.24,-3.25,-3.27
197.22,2.12,2.11,5.41,5.40,-5.37,-5.53,-4.55,-3.25,-3.26,-3.29
199.19,2.07,2.09,5.39,5.40,-5.38,-5.51,-4.62,-3.30,-3.29,-3.32
201.18,2.05,2.04,5.38,5.38,-5.38,-5.49,-4.68,-3.32,-3.33,-3.33
203.19,2.00,2.00,5.35,5.35,-5.37,-5.47,-4.75,-3.37,-3.37,-3.35
205.23,1.96,1.98,5.34,5.34,-5.37,-5.45,-4.82,-3.41,-3.39,-3.37
207.28,1.96,1.96,5.34,5.35,-5.37,-5.42,-4.89,-3.41,-3.41,-3.38
209.35,1.96,1.96,5.37,5.37,-5.38,-5.39,-4.96,-3.41,-3.42,-3.40
211.44,1.96,1.96,5.40,5.39,-5.39,-5.37,-5.03,-3.42,-3.42,-3.44
213.56,1.96,1.96,5.40,5.40,-5.40,-5.34,-5.10,-3.43,-3.44,-3.44
215.69,1.95,1.96,5.41,5.41,-5.40,-5.31,-5.17,-3.45,-3.45,-3.45
217.85,1.95,1.96,5.42,5.42,-5.41,-5.28,-5.24,-3.45,-3.45,-3.47
220.03,1.94,1.94,5.42,5.43,-5.41,-5.24,-5.30,-3.46,-3.46,-3.48
222.23,1.94,1.92,5.44,5.41,-5.40,-5.21,-5.36,-3.46,-3.49,-3.50
224.45,1.87,1.89,5.37,5.38,-5.39,-5.18,-5.42,-3.52,-3.51,-3.49
226.70,1.84,1.86,5.34,5.35,-5.38,-5.15,-5.48,-3.53,-3.52,-3.49
228.96,1.85,1.85,5.34,5.33,-5.35,-5.12,-5.53,-3.50,-3.50,-3.48
231.25,1.85,1.86,5.33,5.33,-5.32,-5.09,-5.57,-3.47,-3.46,-3.47
233.57,1.86,1.85,5.33,5.32,-5.28,-5.05,-5.61,-3.42,-3.43,-3.46
235.90,1.83,1.82,5.29,5.28,-5.25,-5.02,-5.64,-3.42,-3.43,-3.45
238.26,1.78,1.78,5.23,5.22,-5.22,-4.99,-5.66,-3.44,-3.44,-3.44
240.64,1.72,1.74,5.15,5.16,-5.19,-4.97,-5.68,-3.47,-3.45,-3.42
243.05,1.72,1.73,5.11,5.12,-5.17,-4.94,-5.69,-3.44,-3.44,-3.39
245.48,1.74,1.74,5.11,5.11,-5.14,-4.91,-5.69,-3.40,-3.40,-3.37
247.93,1.77,1.77,5.11,5.11,-5.11,-4.88,-5.68,-3.34,-3.34,-3.34
250.41,1.79,1.79,5.12,5.11,-5.09,-4.86,-5.66,-3.30,-3.30,-3.33
252.92,1.80,1.80,5.10,5.09,-5.07,-4.83,-5.64,-3.27,-3.27,-3.29
255.45,1.79,1.78,5.06,5.05,-5.05,-4.81,-5.60,-3.26,-3.27,-3.27
258.00,1.74,1.76,4.99,5.01,-5.02,-4.78,-5.56,-3.28,-3.26,-3.25
260.58,1.73,1.75,4.97,4.98,-4.97,-4.76,-5.51,-3.24,-3.22,-3.23
263.19,1.73,1.73,4.93,4.94,-4.92,-4.74,-5.45,-3.18,-3.19,-3.20
265.82,1.73,1.69,4.92,4.88,-4.85,-4.71,-5.38,-3.12,-3.16,-3.19
268.48,1.61,1.64,4.78,4.80,-4.78,-4.68,-5.31,-3.17,-3.15,-3.16
271.16,1.54,1.56,4.67,4.70,-4.71,-4.66,-5.22,-3.17,-3.15,-3.13
273.87,1.52,1.50,4.64,4.61,-4.64,-4.63,-5.14,-3.12,-3.15,-3.12
276.61,1.45,1.46,4.53,4.55,-4.57,-4.59,-5.04,-3.11,-3.10,-3.08
279.38,1.42,1.44,4.48,4.50,-4.49,-4.56,-4.94,-3.07,-3.05,-3.06
282.17,1.42,1.41,4.45,4.44,-4.42,-4.51,-4.84,-3.00,-3.01,-3.03
284.99,1.40,1.37,4.40,4.37,-4.36,-4.47,-4.73,-2.96,-2.99,-3.00
287.84,1.29,1.31,4.27,4.29,-4.30,-4.42,-4.62,-3.01,-2.98,-2.98
290.72,1.24,1.28,4.19,4.22,-4.24,-4.36,-4.51,-3.00,-2.96,-2.95
293.63,1.26,1.25,4.18,4.17,-4.18,-4.29,-4.40,-2.92,-2.93,-2.92
296.57,1.27,1.24,4.16,4.13,-4.11,-4.22,-4.28,-2.84,-2.87,-2.88
299.53,1.20,1.21,4.06,4.07,-4.05,-4.14,-4.16,-2.85,-2.84,-2.86
302.53,1.16,1.17,4.01,4.00,-3.99,-4.06,-4.04,-2.83,-2.83,-2.84
305.55,1.11,1.13,3.91,3.93,-3.94,-3.97,-3.92,-2.83,-2.82,-2.80
308.61,1.11,1.09,3.89,3.87,-3.90,-3.88,-3.80,-2.78,-2.80,-2.78
311.69,1.06,1.07,3.82,3.81,-3.85,-3.77,-3.68,-2.78,-2.78,-2.75
314.81,1.03,1.05,3.76,3.78,-3.80,-3.67,-3.56,-2.76,-2.75,-2.73
317.96,1.02,1.02,3.73,3.73,-3.74,-3.56,-3.44,-2.72,-2.72,-2.71
321.14,1.01,1.00,3.72,3.70,-3.68,-3.45,-3.33,-2.67,-2.68,-2.70
324.35,0.93,0.95,3.62,3.63,-3.61,-3.34,-3.21,-2.68,-2.66,-2.69
327.59,0.88,0.86,3.55,3.54,-3.52,-3.22,-3.10,-2.64,-2.66,-2.67
330.87,0.74,0.76,3.40,3.42,-3.40,-3.10,-2.98,-2.66,-2.64,-2.66
334.18,0.63,0.64,3.28,3.29,-3.26,-2.98,-2.87,-2.63,-2.62,-2.64
337.52,0.50,0.49,3.14,3.12,-3.10,-2.85,-2.76,-2.60,-2.61,-2.64
340.90,0.33,0.31,2.95,2.93,-2.92,-2.73,-2.65,-2.58,-2.60,-2.62
344.30,0.08,0.09,2.69,2.70,-2.71,-2.60,-2.54,-2.63,-2.62,-2.61
347.75,-0.15,-0.14,2.47,2.47,-2.50,-2.47,-2.43,-2.64,-2.63,-2.61
351.23,-0.37,-0.34,2.24,2.27,-2.27,-2.34,-2.33,-2.64,-2.61,-2.61
354.74,-0.52,-0.54,2.09,2.07,-2.05,-2.21,-2.23,-2.57,-2.59,-2.61
358.28,-0.72,-0.75,1.88,1.85,-1.83,-2.07,-2.12,-2.55,-2.58,-2.60
361.87,-0.99,-0.97,1.62,1.63,-1.64,-1.93,-2.02,-2.62,-2.60,-2.60
365.49,-1.19,-1.17,1.41,1.43,-1.46,-1.79,-1.93,-2.65,-2.63,-2.60
369.14,-1.34,-1.34,1.27,1.27,-1.31,-1.66,-1.83,-2.65,-2.65,-2.61
372.83,-1.44,-1.45,1.17,1.15,-1.19,-1.52,-1.74,-2.62,-2.64,-2.61
376.56,-1.55,-1.55,1.06,1.06,-1.09,-1.38,-1.64,-2.63,-2.63,-2.61
380.33,-1.62,-1.60,0.99,1.00,-1.01,-1.25,-1.55,-2.63,-2.61,-2.60
384.13,-1.65,-1.64,0.96,0.97,-0.96,-1.12,-1.46,-2.61,-2.60,-2.60
387.97,-1.64,-1.66,0.98,0.95,-0.94,-1.00,-1.37,-2.57,-2.60,-2.62
391.85,-1.69,-1.69,0.94,0.93,-0.92,-0.90,-1.29,-2.61,-2.61,-2.63
395.77,-1.73,-1.71,0.89,0.91,-0.91,-0.80,-1.20,-2.63,-2.62,-2.62
399.73,-1.74,-1.73,0.89,0.90,-0.90,-0.72,-1.12,-2.63,-2.63,-2.63
403.72,-1.74,-1.74,0.89,0.90,-0.89,-0.66,-1.04,-2.62,-2.62,-2.63
407.76,-1.74,-1.75,0.91,0.89,-0.87,-0.62,-0.96,-2.61,-2.63,-2.64
411.84,-1.78,-1.79,0.87,0.86,-0.85,-0.59,-0.88,-2.63,-2.64,-2.64
415.96,-1.84,-1.81,0.81,0.83,-0.83,-0.58,-0.81,-2.67,-2.64,-2.64
420.12,-1.85,-1.84,0.80,0.81,-0.80,-0.58,-0.74,-2.65,-2.64,-2.65
424.32,-1.84,-1.86,0.81,0.78,-0.77,-0.59,-0.67,-2.60,-2.63,-2.65
428.56,-1.90,-1.89,0.74,0.75,-0.73,-0.61,-0.60,-2.63,-2.62,-2.64
432.85,-1.93,-1.93,0.70,0.70,-0.70,-0.63,-0.53,-2.63,-2.63,-2.63
437.18,-1.97,-1.95,0.65,0.66,-0.68,-0.66,-0.47,-2.65,-2.64,-2.62
441.55,-1.96,-1.95,0.62,0.64,-0.67,-0.69,-0.41,-2.63,-2.62,-2.58
445.96,-1.91,-1.92,0.65,0.63,-0.66,-0.72,-0.35,-2.57,-2.59,-2.55
450.42,-1.89,-1.87,0.64,0.65,-0.66,-0.75,-0.29,-2.54,-2.53,-2.52
454.93,-1.81,-1.81,0.67,0.67,-0.66,-0.77,-0.24,-2.46,-2.46,-2.47
459.48,-1.74,-1.74,0.69,0.68,-0.66,-0.79,-0.19,-2.39,-2.40,-2.42
464.07,-1.68,-1.69,0.70,0.68,-0.65,-0.81,-0.14,-2.33,-2.34,-2.38
468.71,-1.66,-1.67,0.66,0.66,-0.64,-0.82,-0.10,-2.30,-2.30,-2.32
473.40,-1.67,-1.63,0.61,0.64,-0.62,-0.84,-0.06,-2.29,-2.26,-2.28
478.13,-1.62,-1.61,0.60,0.61,-0.60,-0.84,-0.03,-2.22,-2.22,-2.22
482.91,-1.56,-1.61,0.62,0.57,-0.58,-0.85,0.00,-2.14,-2.19,-2.18
