frequency,raw,error,smoothed,error_smoothed,equalization,parametric_eq,equalized_raw,equalized_smoothed,target
20,-15.79,-13.26,-15.57,-12.93,6.00,2.82,-9.79,-9.57,-2.53
21,-15.08,-12.55,-14.96,-12.33,6.00,3.24,-9.08,-8.96,-2.53
22,-14.50,-11.97,-14.37,-11.75,6.00,3.70,-8.50,-8.37,-2.53
23,-13.89,-11.36,-13.82,-11.21,6.00,4.20,-7.89,-7.82,-2.53
24,-13.25,-10.72,-13.29,-10.69,6.00,4.73,-7.25,-7.29,-2.53
25,-12.63,-10.10,-12.80,-10.20,6.00,5.28,-6.63,-6.80,-2.53
26,-12.02,-9.49,-12.33,-9.75,6.00,5.83,-6.02,-6.33,-2.53
27,-11.60,-9.07,-11.89,-9.31,6.00,6.36,-5.60,-5.89,-2.53
28,-11.18,-8.65,-11.49,-8.91,6.00,6.83,-5.18,-5.49,-2.53
29,-10.93,-8.40,-11.11,-8.54,6.00,7.21,-4.93,-5.11,-2.53
30,-10.61,-8.08,-10.76,-8.20,6.00,7.47,-4.61,-4.76,-2.53
31,-10.36,-7.83,-10.50,-7.92,6.00,7.60,-4.36,-4.50,-2.53
32,-10.28,-7.75,-10.26,-7.67,6.00,7.59,-4.28,-4.26,-2.53
33,-10.28,-7.75,-10.04,-7.44,6.00,7.47,-4.28,-4.04,-2.53
34,-9.96,-7.43,-9.84,-7.23,6.00,7.25,-3.96,-3.84,-2.53
35,-9.96,-7.43,-9.64,-7.03,6.00,6.97,-3.96,-3.64,-2.53
36,-9.63,-7.10,-9.45,-6.83,6.00,6.66,-3.63,-3.45,-2.53
37,-9.33,-6.80,-9.24,-6.63,6.00,6.34,-3.33,-3.24,-2.53
38,-9.03,-6.50,-9.03,-6.43,6.00,6.01,-3.03,-3.03,-2.53
39,-8.74,-6.21,-8.81,-6.23,5.96,5.71,-2.78,-2.85,-2.53
40,-8.45,-5.92,-8.60,-6.03,5.88,5.42,-2.57,-2.72,-2.53
41,-8.34,-5.81,-8.39,-5.83,5.75,5.15,-2.59,-2.64,-2.53
42,-8.07,-5.54,-8.18,-5.65,5.61,4.91,-2.46,-2.58,-2.53
43,-7.96,-5.43,-7.99,-5.47,5.46,4.69,-2.50,-2.54,-2.53
44,-7.70,-5.17,-7.83,-5.30,5.30,4.49,-2.40,-2.53,-2.53
45,-7.69,-5.16,-7.67,-5.15,5.15,4.32,-2.54,-2.53,-2.53
46,-7.53,-5.00,-7.54,-5.00,5.00,4.16,-2.53,-2.54,-2.53
47,-7.36,-4.83,-7.41,-4.85,4.85,4.03,-2.50,-2.56,-2.53
48,-7.36,-4.83,-7.28,-4.72,4.72,3.91,-2.64,-2.56,-2.53
49,-7.30,-4.77,-7.15,-4.58,4.58,3.80,-2.72,-2.57,-2.53
50,-7.07,-4.54,-7.01,-4.44,4.44,3.71,-2.63,-2.57,-2.53
51,-6.98,-4.45,-6.86,-4.30,4.30,3.63,-2.68,-2.56,-2.53
52,-6.71,-4.18,-6.71,-4.14,4.14,3.56,-2.57,-2.57,-2.53
53,-6.57,-4.04,-6.55,-3.99,3.99,3.49,-2.58,-2.56,-2.53
54,-6.36,-3.83,-6.38,-3.82,3.82,3.43,-2.54,-2.55,-2.53
55,-6.16,-3.63,-6.20,-3.66,3.66,3.38,-2.50,-2.54,-2.53
56,-6.07,-3.54,-6.04,-3.50,3.50,3.32,-2.57,-2.54,-2.53
57,-5.76,-3.23,-5.88,-3.34,3.34,3.27,-2.42,-2.54,-2.53
58,-5.72,-3.19,-5.71,-3.19,3.19,3.22,-2.53,-2.52,-2.53
59,-5.53,-3.00,-5.56,-3.05,3.05,3.16,-2.48,-2.51,-2.53
60,-5.42,-2.89,-5.44,-2.92,2.92,3.11,-2.50,-2.52,-2.53
61,-5.31,-2.78,-5.31,-2.79,2.79,3.05,-2.52,-2.52,-2.53
62,-5.13,-2.60,-5.20,-2.68,2.68,2.98,-2.45,-2.52,-2.53
63,-5.09,-2.56,-5.10,-2.57,2.57,2.91,-2.51,-2.53,-2.53
64,-5.09,-2.56,-5.01,-2.48,2.48,2.84,-2.61,-2.53,-2.53
65,-4.92,-2.39,-4.92,-2.38,2.38,2.77,-2.53,-2.54,-2.53
66,-4.77,-2.24,-4.83,-2.30,2.30,2.69,-2.47,-2.54,-2.53
67,-4.77,-2.24,-4.75,-2.21,2.21,2.61,-2.56,-2.54,-2.53
68,-4.73,-2.20,-4.66,-2.12,2.12,2.52,-2.61,-2.54,-2.53
69,-4.57,-2.04,-4.57,-2.03,2.03,2.44,-2.54,-2.54,-2.53
70,-4.44,-1.91,-4.48,-1.93,1.93,2.35,-2.51,-2.54,-2.53
71,-4.44,-1.91,-4.38,-1.83,1.83,2.26,-2.60,-2.54,-2.53
72,-4.38,-1.85,-4.27,-1.74,1.74,2.17,-2.64,-2.54,-2.53
73,-4.12,-1.59,-4.17,-1.63,1.63,2.08,-2.48,-2.53,-2.53
74,-4.10,-1.57,-4.07,-1.53,1.53,2.00,-2.57,-2.54,-2.53
75,-3.95,-1.42,-3.97,-1.43,1.43,1.91,-2.52,-2.54,-2.53
76,-3.80,-1.27,-3.87,-1.33,1.33,1.82,-2.47,-2.54,-2.53
77,-3.79,-1.26,-3.76,-1.23,1.23,1.74,-2.56,-2.53,-2.53
78,-3.67,-1.14,-3.67,-1.14,1.14,1.66,-2.53,-2.53,-2.53
79,-3.53,-1.00,-3.58,-1.05,1.05,1.58,-2.48,-2.53,-2.53
80,-3.47,-0.94,-3.49,-0.96,0.96,1.50,-2.51,-2.53,-2.53
81,-3.47,-0.94,-3.41,-0.89,0.89,1.42,-2.58,-2.52,-2.53
82,-3.43,-0.90,-3.35,-0.82,0.82,1.34,-2.61,-2.52,-2.53
83,-3.29,-0.76,-3.30,-0.76,0.76,1.27,-2.52,-2.53,-2.53
84,-3.16,-0.63,-3.25,-0.72,0.72,1.19,-2.44,-2.53,-2.53
85,-3.15,-0.62,-3.21,-0.68,0.68,1.12,-2.47,-2.53,-2.53
86,-3.15,-0.62,-3.18,-0.65,0.65,1.05,-2.50,-2.53,-2.53
87,-3.15,-0.62,-3.16,-0.63,0.63,0.99,-2.52,-2.53,-2.53
88,-3.15,-0.62,-3.14,-0.61,0.61,0.92,-2.54,-2.53,-2.53
89,-3.15,-0.62,-3.14,-0.60,0.60,0.86,-2.55,-2.54,-2.53
90,-3.15,-0.62,-3.13,-0.60,0.60,0.79,-2.55,-2.53,-2.53
91,-3.15,-0.62,-3.12,-0.60,0.60,0.73,-2.55,-2.53,-2.53
92,-3.15,-0.62,-3.13,-0.60,0.60,0.67,-2.55,-2.53,-2.53
93,-3.15,-0.62,-3.14,-0.60,0.60,0.61,-2.55,-2.54,-2.53
94,-3.15,-0.62,-3.15,-0.61,0.61,0.55,-2.54,-2.54,-2.53
95,-3.15,-0.62,-3.15,-0.62,0.62,0.50,-2.53,-2.53,-2.53
96,-3.15,-0.62,-3.15,-0.62,0.62,0.44,-2.53,-2.53,-2.53
97,-3.15,-0.62,-3.15,-0.63,0.63,0.39,-2.52,-2.52,-2.53
98,-3.15,-0.62,-3.15,-0.63,0.63,0.34,-2.52,-2.52,-2.53
99,-3.15,-0.62,-3.16,-0.63,0.63,0.28,-2.52,-2.52,-2.53
100,-3.15,-0.62,-3.16,-0.63,0.63,0.23,-2.52,-2.53,-2.53
101,-3.15,-0.62,-3.16,-0.63,0.63,0.18,-2.52,-2.53,-2.53
102,-3.15,-0.62,-3.16,-0.63,0.63,0.14,-2.52,-2.53,-2.53
104,-3.15,-0.62,-3.16,-0.62,0.62,0.04,-2.53,-2.54,-2.53
105,-3.15,-0.62,-3.15,-0.61,0.61,-0.00,-2.54,-2.54,-2.53
106,-3.15,-0.62,-3.14,-0.59,0.59,-0.05,-2.56,-2.54,-2.53
107,-3.15,-0.62,-3.12,-0.57,0.57,-0.09,-2.58,-2.54,-2.53
108,-3.15,-0.62,-3.09,-0.55,0.55,-0.13,-2.60,-2.54,-2.53
109,-3.14,-0.61,-3.06,-0.53,0.53,-0.17,-2.61,-2.53,-2.53
110,-3.03,-0.50,-3.03,-0.50,0.50,-0.21,-2.53,-2.53,-2.53
111,-2.98,-0.45,-3.01,-0.47,0.47,-0.25,-2.51,-2.54,-2.53
112,-2.98,-0.45,-2.98,-0.43,0.43,-0.29,-2.54,-2.55,-2.53
113,-2.89,-0.36,-2.95,-0.40,0.40,-0.33,-2.49,-2.55,-2.53
114,-2.82,-0.29,-2.91,-0.37,0.37,-0.36,-2.45,-2.54,-2.53
115,-2.82,-0.29,-2.87,-0.33,0.33,-0.40,-2.49,-2.54,-2.53
117,-2.82,-0.29,-2.83,-0.30,0.30,-0.46,-2.52,-2.54,-2.53
118,-2.82,-0.29,-2.79,-0.26,0.26,-0.49,-2.56,-2.53,-2.53
119,-2.82,-0.29,-2.76,-0.22,0.22,-0.52,-2.60,-2.54,-2.53
120,-2.82,-0.29,-2.72,-0.18,0.18,-0.55,-2.64,-2.53,-2.53
121,-2.77,-0.24,-2.68,-0.14,0.14,-0.58,-2.63,-2.54,-2.53
123,-2.58,-0.05,-2.64,-0.10,0.10,-0.63,-2.48,-2.54,-2.53
124,-2.50,0.03,-2.59,-0.05,0.05,-0.66,-2.45,-2.54,-2.53
125,-2.50,0.03,-2.54,-0.00,0.00,-0.68,-2.50,-2.54,-2.53
126,-2.50,0.03,-2.49,0.05,-0.05,-0.70,-2.55,-2.54,-2.53
128,-2.46,0.07,-2.43,0.11,-0.11,-0.74,-2.57,-2.54,-2.53
129,-2.37,0.16,-2.36,0.18,-0.18,-0.76,-2.55,-2.54,-2.53
130,-2.28,0.25,-2.28,0.25,-0.25,-0.78,-2.53,-2.53,-2.53
131,-2.19,0.34,-2.21,0.32,-0.32,-0.80,-2.51,-2.53,-2.53
133,-2.17,0.36,-2.13,0.40,-0.40,-0.84,-2.57,-2.53,-2.53
134,-2.10,0.43,-2.06,0.48,-0.48,-0.85,-2.58,-2.54,-2.53
135,-2.02,0.51,-1.98,0.56,-0.56,-0.87,-2.58,-2.54,-2.53
137,-1.85,0.68,-1.89,0.65,-0.65,-0.90,-2.50,-2.54,-2.53
138,-1.85,0.68,-1.80,0.73,-0.73,-0.92,-2.58,-2.53,-2.53
140,-1.69,0.84,-1.71,0.82,-0.82,-0.94,-2.51,-2.53,-2.53
141,-1.53,1.00,-1.61,0.91,-0.91,-0.96,-2.44,-2.52,-2.53
142,-1.52,1.01,-1.53,1.00,-1.00,-0.97,-2.52,-2.53,-2.53
144,-1.45,1.08,-1.45,1.08,-1.08,-1.00,-2.53,-2.53,-2.53
145,-1.37,1.16,-1.36,1.17,-1.17,-1.01,-2.54,-2.53,-2.53
147,-1.22,1.31,-1.28,1.25,-1.25,-1.04,-2.47,-2.53,-2.53
148,-1.20,1.33,-1.20,1.33,-1.33,-1.05,-2.53,-2.53,-2.53
150,-1.15,1.38,-1.12,1.42,-1.42,-1.08,-2.57,-2.53,-2.53
151,-1.08,1.45,-1.04,1.50,-1.50,-1.09,-2.58,-2.53,-2.53
153,-0.93,1.60,-0.95,1.58,-1.58,-1.12,-2.51,-2.53,-2.53
154,-0.88,1.65,-0.87,1.66,-1.66,-1.13,-2.54,-2.53,-2.53
156,-0.87,1.66,-0.79,1.75,-1.75,-1.16,-2.62,-2.54,-2.53
157,-0.72,1.81,-0.70,1.83,-1.83,-1.18,-2.55,-2.53,-2.53
159,-0.55,1.98,-0.61,1.91,-1.91,-1.21,-2.46,-2.53,-2.53
160,-0.55,1.98,-0.54,2.00,-2.00,-1.22,-2.55,-2.54,-2.53
162,-0.44,2.09,-0.46,2.09,-2.09,-1.25,-2.53,-2.54,-2.53
164,-0.31,2.22,-0.36,2.17,-2.17,-1.29,-2.48,-2.54,-2.53
165,-0.24,2.29,-0.27,2.25,-2.25,-1.30,-2.49,-2.53,-2.53
167,-0.23,2.30,-0.19,2.34,-2.34,-1.34,-2.57,-2.52,-2.53
169,-0.13,2.40,-0.11,2.42,-2.42,-1.38,-2.55,-2.53,-2.53
170,-0.06,2.47,-0.03,2.50,-2.50,-1.39,-2.56,-2.53,-2.53
172,0.07,2.60,0.05,2.58,-2.58,-1.43,-2.51,-2.53,-2.53
174,0.10,2.63,0.12,2.65,-2.65,-1.47,-2.55,-2.53,-2.53
175,0.11,2.64,0.19,2.73,-2.73,-1.49,-2.62,-2.54,-2.53
177,0.37,2.90,0.27,2.81,-2.81,-1.53,-2.44,-2.54,-2.53
179,0.42,2.95,0.34,2.89,-2.89,-1.57,-2.46,-2.54,-2.53
181,0.42,2.95,0.42,2.96,-2.96,-1.62,-2.54,-2.54,-2.53
183,0.45,2.98,0.50,3.04,-3.04,-1.66,-2.59,-2.54,-2.53
184,0.51,3.04,0.59,3.12,-3.12,-1.68,-2.61,-2.53,-2.53
186,0.63,3.16,0.66,3.20,-3.20,-1.73,-2.56,-2.53,-2.53
188,0.75,3.28,0.73,3.27,-3.27,-1.78,-2.52,-2.53,-2.53
190,0.75,3.28,0.80,3.34,-3.34,-1.82,-2.58,-2.54,-2.53
192,0.83,3.36,0.86,3.40,-3.40,-1.87,-2.57,-2.54,-2.53
194,0.94,3.47,0.92,3.46,-3.46,-1.92,-2.52,-2.54,-2.53
196,1.06,3.59,0.96,3.51,-3.51,-1.97,-2.45,-2.55,-2.53
198,1.07,3.60,1.02,3.55,-3.55,-2.02,-2.48,-2.54,-2.53
200,1.07,3.60,1.06,3.59,-3.59,-2.07,-2.52,-2.52,-2.53
202,1.07,3.60,1.09,3.61,-3.61,-2.12,-2.54,-2.52,-2.53
204,1.07,3.60,1.10,3.63,-3.63,-2.17,-2.55,-2.53,-2.53
206,1.07,3.60,1.10,3.63,-3.63,-2.21,-2.56,-2.53,-2.53
208,1.07,3.60,1.09,3.62,-3.62,-2.26,-2.55,-2.53,-2.53
210,1.07,3.60,1.08,3.60,-3.60,-2.31,-2.53,-2.52,-2.53
212,1.07,3.60,1.05,3.57,-3.57,-2.35,-2.50,-2.52,-2.53
214,1.06,3.59,1.00,3.53,-3.53,-2.40,-2.47,-2.53,-2.53
216,0.96,3.49,0.95,3.48,-3.48,-2.44,-2.52,-2.53,-2.53
218,0.85,3.38,0.88,3.41,-3.41,-2.48,-2.56,-2.53,-2.53
221,0.75,3.28,0.81,3.33,-3.33,-2.54,-2.58,-2.52,-2.53
223,0.75,3.28,0.72,3.24,-3.24,-2.58,-2.49,-2.52,-2.53
225,0.66,3.19,0.62,3.14,-3.14,-2.62,-2.48,-2.52,-2.53
227,0.56,3.09,0.50,3.03,-3.03,-2.65,-2.47,-2.53,-2.53
229,0.46,2.99,0.38,2.90,-2.90,-2.68,-2.44,-2.53,-2.53
232,0.20,2.73,0.24,2.77,-2.77,-2.72,-2.57,-2.53,-2.53
234,0.05,2.58,0.10,2.63,-2.63,-2.74,-2.58,-2.53,-2.53
236,-0.04,2.49,-0.05,2.48,-2.48,-2.76,-2.52,-2.53,-2.53
239,-0.18,2.35,-0.20,2.33,-2.33,-2.79,-2.51,-2.53,-2.53
241,-0.33,2.20,-0.35,2.18,-2.18,-2.80,-2.50,-2.52,-2.53
244,-0.58,1.95,-0.50,2.02,-2.02,-2.81,-2.60,-2.53,-2.53
246,-0.67,1.86,-0.66,1.88,-1.88,-2.82,-2.55,-2.54,-2.53
248,-0.76,1.77,-0.81,1.73,-1.73,-2.82,-2.49,-2.54,-2.53
251,-0.92,1.61,-0.94,1.60,-1.60,-2.82,-2.52,-2.54,-2.53
253,-1.10,1.43,-1.06,1.48,-1.48,-2.81,-2.58,-2.54,-2.53
256,-1.20,1.33,-1.16,1.37,-1.37,-2.80,-2.57,-2.53,-2.53
259,-1.25,1.28,-1.26,1.27,-1.27,-2.78,-2.52,-2.53,-2.53
261,-1.34,1.19,-1.35,1.19,-1.19,-2.76,-2.53,-2.54,-2.53
264,-1.47,1.06,-1.42,1.12,-1.12,-2.73,-2.59,-2.54,-2.53
266,-1.52,1.01,-1.48,1.07,-1.07,-2.71,-2.59,-2.55,-2.53
269,-1.52,1.01,-1.51,1.03,-1.03,-2.67,-2.55,-2.54,-2.53
272,-1.52,1.01,-1.53,1.01,-1.01,-2.63,-2.53,-2.55,-2.53
274,-1.52,1.01,-1.53,1.01,-1.01,-2.60,-2.53,-2.54,-2.53
277,-1.52,1.01,-1.52,1.01,-1.01,-2.55,-2.53,-2.53,-2.53
280,-1.52,1.01,-1.50,1.03,-1.03,-2.50,-2.55,-2.53,-2.53
283,-1.52,1.01,-1.47,1.06,-1.06,-2.45,-2.58,-2.53,-2.53
286,-1.49,1.04,-1.45,1.09,-1.09,-2.39,-2.58,-2.54,-2.53
288,-1.41,1.12,-1.40,1.13,-1.13,-2.35,-2.54,-2.54,-2.53
291,-1.29,1.24,-1.35,1.18,-1.18,-2.30,-2.47,-2.53,-2.53
294,-1.20,1.33,-1.30,1.23,-1.23,-2.24,-2.43,-2.53,-2.53
297,-1.20,1.33,-1.25,1.29,-1.29,-2.18,-2.48,-2.54,-2.53
300,-1.20,1.33,-1.20,1.34,-1.34,-2.12,-2.54,-2.53,-2.53
303,-1.20,1.33,-1.14,1.39,-1.39,-2.06,-2.59,-2.53,-2.53
306,-1.20,1.33,-1.09,1.44,-1.44,-2.00,-2.64,-2.53,-2.53
309,-1.10,1.43,-1.04,1.49,-1.49,-1.94,-2.58,-2.53,-2.53
312,-0.99,1.54,-1.00,1.53,-1.53,-1.88,-2.52,-2.53,-2.53
316,-0.88,1.65,-0.97,1.57,-1.57,-1.81,-2.45,-2.53,-2.53
319,-0.88,1.65,-0.94,1.60,-1.60,-1.75,-2.48,-2.54,-2.53
322,-0.88,1.65,-0.92,1.62,-1.62,-1.70,-2.50,-2.55,-2.53
325,-0.88,1.65,-0.90,1.65,-1.65,-1.64,-2.53,-2.55,-2.53
328,-0.88,1.65,-0.87,1.67,-1.67,-1.59,-2.55,-2.54,-2.53
332,-0.88,1.65,-0.85,1.68,-1.68,-1.52,-2.56,-2.53,-2.53
335,-0.88,1.65,-0.83,1.69,-1.69,-1.47,-2.57,-2.52,-2.53
338,-0.88,1.65,-0.83,1.69,-1.69,-1.41,-2.57,-2.52,-2.53
342,-0.88,1.65,-0.85,1.68,-1.68,-1.35,-2.56,-2.53,-2.53
345,-0.88,1.65,-0.88,1.67,-1.67,-1.30,-2.55,-2.55,-2.53
349,-0.88,1.65,-0.91,1.65,-1.65,-1.24,-2.53,-2.55,-2.53
352,-0.88,1.65,-0.92,1.62,-1.62,-1.19,-2.50,-2.54,-2.53
356,-0.88,1.65,-0.94,1.59,-1.59,-1.13,-2.47,-2.53,-2.53
359,-0.89,1.64,-0.97,1.56,-1.56,-1.09,-2.45,-2.53,-2.53
363,-1.01,1.52,-1.01,1.52,-1.52,-1.03,-2.53,-2.53,-2.53
366,-1.11,1.42,-1.06,1.48,-1.48,-0.99,-2.58,-2.53,-2.53
370,-1.20,1.33,-1.11,1.43,-1.43,-0.94,-2.63,-2.53,-2.53
374,-1.20,1.33,-1.16,1.38,-1.38,-0.89,-2.58,-2.53,-2.53
377,-1.20,1.33,-1.20,1.32,-1.32,-0.85,-2.52,-2.53,-2.53
381,-1.20,1.33,-1.25,1.27,-1.27,-0.80,-2.47,-2.52,-2.53
385,-1.20,1.33,-1.31,1.21,-1.21,-0.76,-2.41,-2.52,-2.53
389,-1.41,1.12,-1.37,1.16,-1.16,-0.71,-2.57,-2.53,-2.53
393,-1.52,1.01,-1.43,1.10,-1.10,-0.67,-2.62,-2.53,-2.53
397,-1.52,1.01,-1.48,1.05,-1.05,-0.62,-2.57,-2.53,-2.53
401,-1.52,1.01,-1.53,1.00,-1.00,-0.58,-2.52,-2.53,-2.53
405,-1.52,1.01,-1.58,0.95,-0.95,-0.54,-2.47,-2.53,-2.53
409,-1.55,0.98,-1.63,0.91,-0.91,-0.50,-2.46,-2.54,-2.53
413,-1.66,0.87,-1.68,0.87,-0.87,-0.47,-2.53,-2.55,-2.53
417,-1.77,0.76,-1.72,0.83,-0.83,-0.43,-2.60,-2.55,-2.53
421,-1.85,0.68,-1.75,0.79,-0.79,-0.40,-2.64,-2.54,-2.53
425,-1.85,0.68,-1.78,0.76,-0.76,-0.37,-2.61,-2.54,-2.53
430,-1.85,0.68,-1.80,0.73,-0.73,-0.33,-2.58,-2.53,-2.53
434,-1.85,0.68,-1.83,0.70,-0.70,-0.30,-2.55,-2.53,-2.53
438,-1.85,0.68,-1.88,0.67,-0.67,-0.27,-2.52,-2.54,-2.53
443,-1.85,0.68,-1.91,0.63,-0.63,-0.24,-2.48,-2.55,-2.53
447,-1.85,0.68,-1.95,0.60,-0.60,-0.22,-2.45,-2.55,-2.53
451,-1.85,0.68,-1.98,0.57,-0.57,-0.20,-2.42,-2.55,-2.53
456,-1.97,0.56,-2.01,0.54,-0.54,-0.17,-2.51,-2.54,-2.53
460,-2.06,0.47,-2.03,0.51,-0.51,-0.15,-2.56,-2.54,-2.53
465,-2.17,0.36,-2.06,0.47,-0.47,-0.13,-2.64,-2.54,-2.53
470,-2.17,0.36,-2.09,0.45,-0.45,-0.12,-2.61,-2.54,-2.53
474,-2.17,0.36,-2.12,0.42,-0.42,-0.10,-2.59,-2.54,-2.53
479,-2.17,0.36,-2.15,0.40,-0.40,-0.09,-2.57,-2.54,-2.53
484,-2.17,0.36,-2.17,0.38,-0.38,-0.08,-2.55,-2.55,-2.53
489,-2.17,0.36,-2.18,0.36,-0.36,-0.08,-2.53,-2.54,-2.53
494,-2.17,0.36,-2.19,0.35,-0.35,-0.07,-2.52,-2.54,-2.53
499,-2.17,0.36,-2.19,0.35,-0.35,-0.07,-2.52,-2.54,-2.53
504,-2.17,0.36,-2.18,0.35,-0.35,-0.07,-2.52,-2.53,-2.53
509,-2.17,0.36,-2.18,0.35,-0.35,-0.07,-2.52,-2.52,-2.53
514,-2.17,0.36,-2.17,0.35,-0.35,-0.08,-2.52,-2.52,-2.53
519,-2.17,0.36,-2.17,0.35,-0.35,-0.09,-2.52,-2.52,-2.53
524,-2.17,0.36,-2.17,0.36,-0.36,-0.10,-2.53,-2.53,-2.53
529,-2.17,0.36,-2.17,0.36,-0.36,-0.11,-2.53,-2.53,-2.53
535,-2.17,0.36,-2.16,0.37,-0.37,-0.13,-2.54,-2.53,-2.53
540,-2.17,0.36,-2.16,0.37,-0.37,-0.14,-2.54,-2.53,-2.53
545,-2.17,0.36,-2.16,0.37,-0.37,-0.16,-2.54,-2.53,-2.53
551,-2.17,0.36,-2.16,0.37,-0.37,-0.18,-2.54,-2.53,-2.53
556,-2.17,0.36,-2.16,0.37,-0.37,-0.21,-2.54,-2.53,-2.53
562,-2.17,0.36,-2.17,0.36,-0.36,-0.23,-2.53,-2.52,-2.53
568,-2.17,0.36,-2.18,0.34,-0.34,-0.26,-2.51,-2.52,-2.53
573,-2.17,0.36,-2.20,0.32,-0.32,-0.29,-2.49,-2.52,-2.53
579,-2.17,0.36,-2.22,0.30,-0.30,-0.32,-2.47,-2.52,-2.53
585,-2.18,0.35,-2.25,0.27,-0.27,-0.35,-2.45,-2.52,-2.53
591,-2.30,0.23,-2.28,0.24,-0.24,-0.39,-2.54,-2.52,-2.53
596,-2.34,0.19,-2.31,0.21,-0.21,-0.41,-2.55,-2.52,-2.53
602,-2.34,0.19,-2.35,0.18,-0.18,-0.45,-2.52,-2.53,-2.53
608,-2.34,0.19,-2.39,0.15,-0.15,-0.49,-2.48,-2.54,-2.53
615,-2.42,0.11,-2.43,0.12,-0.12,-0.53,-2.54,-2.55,-2.53
621,-2.50,0.03,-2.45,0.10,-0.10,-0.57,-2.60,-2.55,-2.53
627,-2.50,0.03,-2.47,0.08,-0.08,-0.61,-2.58,-2.55,-2.53
633,-2.50,0.03,-2.47,0.08,-0.08,-0.65,-2.58,-2.55,-2.53
639,-2.50,0.03,-2.46,0.08,-0.08,-0.69,-2.58,-2.54,-2.53
646,-2.50,0.03,-2.45,0.09,-0.09,-0.73,-2.59,-2.54,-2.53
652,-2.50,0.03,-2.43,0.11,-0.11,-0.77,-2.61,-2.54,-2.53
659,-2.44,0.09,-2.40,0.14,-0.14,-0.82,-2.58,-2.54,-2.53
665,-2.34,0.19,-2.37,0.18,-0.18,-0.86,-2.52,-2.54,-2.53
672,-2.22,0.31,-2.32,0.22,-0.22,-0.91,-2.44,-2.54,-2.53
679,-2.17,0.36,-2.27,0.26,-0.26,-0.96,-2.43,-2.53,-2.53
686,-2.17,0.36,-2.23,0.31,-0.31,-1.01,-2.48,-2.53,-2.53
692,-2.17,0.36,-2.18,0.36,-0.36,-1.06,-2.53,-2.53,-2.53
699,-2.17,0.36,-2.12,0.41,-0.41,-1.11,-2.58,-2.53,-2.53
706,-2.15,0.38,-2.06,0.46,-0.46,-1.16,-2.61,-2.52,-2.53
713,-2.04,0.49,-2.01,0.52,-0.52,-1.21,-2.56,-2.53,-2.53
721,-1.91,0.62,-1.95,0.58,-0.58,-1.27,-2.49,-2.53,-2.53
728,-1.85,0.68,-1.89,0.64,-0.64,-1.32,-2.49,-2.54,-2.53
735,-1.85,0.68,-1.83,0.70,-0.70,-1.37,-2.55,-2.54,-2.53
742,-1.85,0.68,-1.77,0.77,-0.77,-1.42,-2.62,-2.54,-2.53
750,-1.73,0.80,-1.70,0.84,-0.84,-1.48,-2.57,-2.54,-2.53
757,-1.52,1.01,-1.63,0.91,-0.91,-1.54,-2.43,-2.54,-2.53
765,-1.52,1.01,-1.55,0.98,-0.98,-1.60,-2.50,-2.53,-2.53
773,-1.52,1.01,-1.47,1.05,-1.05,-1.66,-2.57,-2.52,-2.53
780,-1.49,1.04,-1.40,1.12,-1.12,-1.71,-2.61,-2.52,-2.53
788,-1.26,1.27,-1.33,1.19,-1.19,-1.77,-2.45,-2.52,-2.53
796,-1.20,1.33,-1.26,1.26,-1.26,-1.83,-2.46,-2.52,-2.53
804,-1.20,1.33,-1.21,1.32,-1.32,-1.89,-2.52,-2.53,-2.53
812,-1.20,1.33,-1.14,1.38,-1.38,-1.95,-2.58,-2.53,-2.53
820,-1.11,1.42,-1.08,1.44,-1.44,-2.01,-2.55,-2.53,-2.53
828,-1.00,1.53,-1.03,1.50,-1.50,-2.07,-2.50,-2.53,-2.53
837,-0.88,1.65,-0.97,1.56,-1.56,-2.13,-2.44,-2.53,-2.53
845,-0.88,1.65,-0.91,1.61,-1.61,-2.19,-2.49,-2.52,-2.53
853,-0.88,1.65,-0.87,1.66,-1.66,-2.25,-2.54,-2.53,-2.53
862,-0.88,1.65,-0.82,1.72,-1.72,-2.31,-2.59,-2.53,-2.53
871,-0.88,1.65,-0.77,1.77,-1.77,-2.37,-2.65,-2.54,-2.53
879,-0.74,1.79,-0.71,1.82,-1.82,-2.42,-2.56,-2.53,-2.53
888,-0.55,1.98,-0.65,1.87,-1.87,-2.48,-2.42,-2.52,-2.53
897,-0.55,1.98,-0.60,1.92,-1.92,-2.54,-2.47,-2.52,-2.53
906,-0.55,1.98,-0.55,1.97,-1.97,-2.59,-2.52,-2.53,-2.53
915,-0.55,1.98,-0.51,2.03,-2.03,-2.64,-2.57,-2.53,-2.53
924,-0.55,1.98,-0.46,2.08,-2.08,-2.69,-2.63,-2.53,-2.53
933,-0.37,2.16,-0.40,2.13,-2.13,-2.73,-2.50,-2.53,-2.53
943,-0.23,2.30,-0.34,2.19,-2.19,-2.78,-2.42,-2.53,-2.53
952,-0.23,2.30,-0.29,2.24,-2.24,-2.82,-2.47,-2.53,-2.53
962,-0.23,2.30,-0.23,2.30,-2.30,-2.86,-2.53,-2.53,-2.53
971,-0.23,2.30,-0.18,2.36,-2.36,-2.89,-2.58,-2.54,-2.53
981,-0.22,2.31,-0.12,2.41,-2.41,-2.92,-2.63,-2.54,-2.53
991,-0.10,2.43,-0.05,2.47,-2.47,-2.95,-2.57,-2.53,-2.53
1001,0.01,2.54,0.01,2.53,-2.53,-2.98,-2.52,-2.53,-2.53
1011,0.10,2.63,0.07,2.59,-2.59,-3.00,-2.49,-2.53,-2.53
1021,0.10,2.63,0.13,2.66,-2.66,-3.03,-2.55,-2.53,-2.53
1031,0.18,2.71,0.18,2.72,-2.72,-3.04,-2.54,-2.54,-2.53
1041,0.29,2.82,0.24,2.78,-2.78,-3.06,-2.49,-2.54,-2.53
1052,0.41,2.94,0.31,2.84,-2.84,-3.07,-2.43,-2.54,-2.53
1062,0.42,2.95,0.38,2.91,-2.91,-3.08,-2.49,-2.53,-2.53
1073,0.42,2.95,0.45,2.97,-2.97,-3.09,-2.55,-2.52,-2.53
1084,0.42,2.95,0.51,3.04,-3.04,-3.09,-2.62,-2.53,-2.53
1094,0.53,3.06,0.57,3.10,-3.10,-3.10,-2.57,-2.54,-2.53
1105,0.64,3.17,0.64,3.17,-3.17,-3.10,-2.53,-2.54,-2.53
1116,0.75,3.28,0.71,3.24,-3.24,-3.10,-2.49,-2.53,-2.53
1128,0.75,3.28,0.78,3.32,-3.32,-3.10,-2.56,-2.53,-2.53
1139,0.82,3.35,0.85,3.39,-3.39,-3.10,-2.57,-2.54,-2.53
1150,0.93,3.46,0.93,3.47,-3.47,-3.10,-2.54,-2.54,-2.53
1162,1.05,3.58,1.01,3.55,-3.55,-3.10,-2.50,-2.53,-2.53
1173,1.07,3.60,1.10,3.63,-3.63,-3.10,-2.56,-2.53,-2.53
1185,1.14,3.67,1.18,3.71,-3.71,-3.10,-2.57,-2.53,-2.53
1197,1.37,3.90,1.26,3.80,-3.80,-3.10,-2.42,-2.53,-2.53
1209,1.39,3.92,1.34,3.88,-3.88,-3.10,-2.49,-2.53,-2.53
1221,1.39,3.92,1.43,3.96,-3.96,-3.10,-2.57,-2.53,-2.53
1233,1.39,3.92,1.52,4.04,-4.04,-3.10,-2.65,-2.53,-2.53
1246,1.63,4.16,1.60,4.12,-4.12,-3.11,-2.49,-2.52,-2.53
1258,1.72,4.25,1.68,4.19,-4.19,-3.11,-2.47,-2.51,-2.53
1271,1.72,4.25,1.75,4.26,-4.26,-3.12,-2.54,-2.51,-2.53
1283,1.72,4.25,1.81,4.32,-4.32,-3.13,-2.60,-2.51,-2.53
1296,1.87,4.40,1.86,4.38,-4.38,-3.14,-2.51,-2.52,-2.53
1309,2.04,4.57,1.90,4.44,-4.44,-3.16,-2.39,-2.54,-2.53
1322,2.04,4.57,1.94,4.48,-4.48,-3.18,-2.44,-2.55,-2.53
1335,2.04,4.57,1.99,4.53,-4.53,-3.20,-2.49,-2.54,-2.53
1349,2.04,4.57,2.04,4.57,-4.57,-3.22,-2.53,-2.53,-2.53
1362,2.04,4.57,2.08,4.61,-4.61,-3.24,-2.57,-2.53,-2.53
1376,2.04,4.57,2.11,4.65,-4.65,-3.27,-2.60,-2.54,-2.53
1390,2.04,4.57,2.14,4.68,-4.68,-3.30,-2.64,-2.54,-2.53
1404,2.05,4.58,2.18,4.71,-4.71,-3.33,-2.66,-2.53,-2.53
1418,2.16,4.69,2.21,4.75,-4.75,-3.37,-2.59,-2.53,-2.53
1432,2.27,4.80,2.24,4.78,-4.78,-3.41,-2.51,-2.54,-2.53
1446,2.37,4.90,2.26,4.81,-4.81,-3.45,-2.43,-2.54,-2.53
1461,2.37,4.90,2.29,4.83,-4.83,-3.49,-2.46,-2.54,-2.53
1475,2.37,4.90,2.32,4.85,-4.85,-3.54,-2.48,-2.53,-2.53
1490,2.37,4.90,2.35,4.87,-4.87,-3.59,-2.50,-2.52,-2.53
1505,2.37,4.90,2.37,4.88,-4.88,-3.64,-2.51,-2.51,-2.53
1520,2.37,4.90,2.38,4.90,-4.90,-3.69,-2.52,-2.51,-2.53
1535,2.37,4.90,2.38,4.91,-4.91,-3.75,-2.54,-2.53,-2.53
1550,2.37,4.90,2.37,4.92,-4.92,-3.81,-2.55,-2.55,-2.53
1566,2.37,4.90,2.36,4.93,-4.93,-3.87,-2.56,-2.57,-2.53
