frequency,raw,smoothed,error,error_smoothed,equalization,parametric_eq,fixed_band_eq,equalized_raw,equalized_smoothed,target
20.00,17.80,17.80,9.36,9.36,-9.37,-7.77,-4.04,8.43,8.43,8.44
20.20,17.80,17.80,9.36,9.36,-9.36,-7.77,-4.15,8.44,8.44,8.44
20.40,17.79,17.79,9.35,9.35,-9.35,-7.77,-4.26,8.44,8.44,8.44
20.61,17.78,17.78,9.34,9.34,-9.34,-7.76,-4.37,8.44,8.44,8.44
20.81,17.77,17.77,9.33,9.33,-9.32,-7.76,-4.49,8.45,8.44,8.44
21.02,17.75,17.75,9.31,9.31,-9.31,-7.76,-4.61,8.44,8.44,8.44
21.23,17.73,17.73,9.29,9.29,-9.29,-7.76,-4.74,8.44,8.44,8.44
21.44,17.70,17.70,9.26,9.27,-9.27,-7.76,-4.87,8.43,8.43,8.43
21.66,17.68,17.68,9.25,9.25,-9.25,-7.76,-5.00,8.43,8.43,8.43
21.87,17.66,17.65,9.23,9.22,-9.22,-7.76,-5.13,8.44,8.43,8.43
22.09,17.63,17.63,9.20,9.20,-9.20,-7.76,-5.27,8.43,8.43,8.43
22.31,17.60,17.60,9.17,9.17,-9.17,-7.76,-5.42,8.43,8.43,8.43
22.54,17.58,17.58,9.15,9.15,-9.14,-7.76,-5.56,8.43,8.43,8.43
22.76,17.55,17.55,9.12,9.12,-9.12,-7.76,-5.71,8.43,8.43,8.43
22.99,17.52,17.52,9.09,9.09,-9.09,-7.76,-5.86,8.43,8.43,8.43
23.22,17.49,17.49,9.06,9.06,-9.07,-7.75,-6.02,8.42,8.43,8.43
23.45,17.47,17.46,9.04,9.04,-9.04,-7.75,-6.18,8.43,8.43,8.43
23.69,17.44,17.44,9.01,9.01,-9.01,-7.75,-6.35,8.43,8.42,8.43
23.92,17.41,17.41,8.98,8.99,-8.99,-7.75,-6.52,8.42,8.42,8.42
24.16,17.39,17.39,8.97,8.96,-8.97,-7.75,-6.69,8.42,8.42,8.42
24.40,17.37,17.36,8.95,8.94,-8.94,-7.75,-6.87,8.43,8.42,8.42
24.65,17.34,17.34,8.92,8.92,-8.92,-7.75,-7.05,8.42,8.42,8.42
24.89,17.32,17.32,8.90,8.90,-8.90,-7.75,-7.23,8.42,8.42,8.42
25.14,17.30,17.30,8.88,8.88,-8.88,-7.74,-7.42,8.42,8.42,8.42
25.39,17.28,17.28,8.86,8.86,-8.86,-7.74,-7.60,8.42,8.42,8.42
25.65,17.26,17.26,8.84,8.84,-8.84,-7.74,-7.79,8.42,8.42,8.42
25.91,17.24,17.24,8.83,8.83,-8.83,-7.74,-7.98,8.41,8.41,8.41
26.16,17.22,17.22,8.81,8.81,-8.81,-7.74,-8.18,8.41,8.41,8.41
26.43,17.20,17.20,8.79,8.79,-8.79,-7.74,-8.37,8.41,8.41,8.41
26.69,17.18,17.18,8.77,8.77,-8.76,-7.73,-8.56,8.41,8.41,8.41
26.96,17.15,17.15,8.74,8.75,-8.74,-7.73,-8.75,8.41,8.41,8.41
27.23,17.13,17.13,8.72,8.72,-8.72,-7.73,-8.94,8.41,8.40,8.41
27.50,17.10,17.10,8.70,8.70,-8.70,-7.73,-9.13,8.40,8.40,8.40
27.77,17.08,17.08,8.68,8.68,-8.68,-7.73,-9.31,8.40,8.40,8.40
28.05,17.06,17.06,8.66,8.66,-8.66,-7.72,-9.48,8.40,8.39,8.40
28.33,17.04,17.04,8.64,8.64,-8.64,-7.72,-9.65,8.39,8.39,8.40
28.62,17.02,17.02,8.62,8.62,-8.63,-7.72,-9.81,8.39,8.39,8.40
28.90,17.00,17.00,8.61,8.61,-8.60,-7.72,-9.96,8.39,8.39,8.39
29.19,16.98,16.98,8.59,8.59,-8.58,-7.71,-10.10,8.40,8.40,8.39
29.48,16.95,16.95,8.56,8.56,-8.55,-7.71,-10.23,8.39,8.40,8.39
29.78,16.92,16.92,8.53,8.53,-8.52,-7.71,-10.34,8.40,8.39,8.39
30.08,16.88,16.88,8.50,8.49,-8.49,-7.70,-10.43,8.39,8.39,8.38
30.38,16.83,16.83,8.45,8.45,-8.45,-7.70,-10.52,8.38,8.38,8.38
30.68,16.79,16.79,8.41,8.41,-8.41,-7.70,-10.58,8.38,8.38,8.38
30.99,16.75,16.75,8.37,8.37,-8.37,-7.69,-10.63,8.38,8.37,8.37
31.30,16.70,16.70,8.33,8.33,-8.33,-7.69,-10.65,8.37,8.37,8.37
31.61,16.66,16.66,8.29,8.29,-8.30,-7.69,-10.67,8.36,8.36,8.37
31.93,16.62,16.62,8.25,8.26,-8.26,-7.68,-10.65,8.36,8.36,8.37
32.24,16.59,16.59,8.23,8.22,-8.22,-7.68,-10.63,8.36,8.36,8.36
32.57,16.55,16.55,8.19,8.19,-8.19,-7.67,-10.58,8.36,8.36,8.36
32.89,16.52,16.52,8.16,8.16,-8.16,-7.67,-10.52,8.36,8.36,8.35
33.22,16.48,16.48,8.13,8.13,-8.13,-7.66,-10.45,8.35,8.35,8.35
33.55,16.45,16.45,8.10,8.10,-8.10,-7.66,-10.36,8.35,8.35,8.35
33.89,16.41,16.41,8.07,8.07,-8.07,-7.65,-10.26,8.34,8.34,8.34
34.23,16.38,16.38,8.04,8.04,-8.04,-7.65,-10.15,8.34,8.34,8.34
34.57,16.35,16.35,8.01,8.02,-8.02,-7.64,-10.03,8.33,8.33,8.33
34.92,16.32,16.32,7.99,7.99,-7.99,-7.63,-9.90,8.33,8.33,8.33
35.27,16.29,16.29,7.96,7.96,-7.96,-7.63,-9.77,8.33,8.33,8.32
35.62,16.25,16.25,7.93,7.93,-7.93,-7.62,-9.63,8.32,8.32,8.32
35.97,16.22,16.22,7.90,7.90,-7.90,-7.61,-9.49,8.32,8.31,8.32
36.33,16.18,16.18,7.87,7.87,-7.87,-7.61,-9.35,8.31,8.31,8.31
36.70,16.15,16.15,7.85,7.84,-7.84,-7.60,-9.21,8.31,8.31,8.30
37.06,16.11,16.11,7.81,7.81,-7.80,-7.59,-9.06,8.31,8.30,8.30
37.43,16.06,16.06,7.77,7.77,-7.77,-7.58,-8.92,8.29,8.30,8.29
37.81,16.02,16.02,7.73,7.73,-7.73,-7.57,-8.77,8.29,8.29,8.29
38.19,15.97,15.97,7.69,7.69,-7.69,-7.56,-8.63,8.28,8.28,8.28
38.57,15.92,15.92,7.65,7.65,-7.65,-7.55,-8.49,8.27,8.27,8.27
38.95,15.87,15.87,7.60,7.60,-7.61,-7.54,-8.36,8.26,8.26,8.27
39.34,15.83,15.83,7.57,7.57,-7.57,-7.53,-8.23,8.26,8.26,8.26
39.74,15.79,15.79,7.54,7.54,-7.54,-7.52,-8.10,8.25,8.25,8.25
40.14,15.75,15.75,7.50,7.50,-7.50,-7.51,-7.98,8.25,8.25,8.25
40.54,15.71,15.71,7.47,7.47,-7.47,-7.50,-7.86,8.24,8.24,8.24
40.94,15.67,15.67,7.44,7.44,-7.44,-7.48,-7.74,8.23,8.23,8.23
41.35,15.63,15.63,7.41,7.41,-7.41,-7.47,-7.63,8.22,8.22,8.22
41.76,15.59,15.59,7.38,7.38,-7.38,-7.45,-7.53,8.21,8.21,8.21
42.18,15.55,15.55,7.35,7.35,-7.35,-7.44,-7.43,8.20,8.20,8.20
42.60,15.51,15.51,7.32,7.32,-7.32,-7.42,-7.33,8.19,8.19,8.19
43.03,15.47,15.47,7.29,7.29,-7.28,-7.41,-7.24,8.19,8.19,8.18
43.46,15.43,15.43,7.26,7.26,-7.25,-7.39,-7.16,8.18,8.18,8.17
43.90,15.39,15.39,7.23,7.22,-7.22,-7.37,-7.08,8.17,8.16,8.16
44.33,15.34,15.34,7.19,7.19,-7.19,-7.35,-7.00,8.15,8.15,8.15
44.78,15.30,15.30,7.16,7.16,-7.16,-7.33,-6.94,8.14,8.14,8.14
45.23,15.26,15.26,7.13,7.13,-7.13,-7.31,-6.87,8.13,8.13,8.13
45.68,15.22,15.22,7.10,7.10,-7.10,-7.29,-6.81,8.12,8.12,8.12
46.13,15.18,15.18,7.07,7.07,-7.07,-7.26,-6.76,8.11,8.11,8.10
46.60,15.13,15.13,7.04,7.04,-7.04,-7.24,-6.71,8.09,8.09,8.09
47.06,15.09,15.09,7.01,7.01,-7.01,-7.21,-6.66,8.08,8.08,8.08
47.53,15.04,15.04,6.97,6.97,-6.97,-7.19,-6.62,8.07,8.07,8.06
48.01,14.99,14.99,6.94,6.94,-6.94,-7.16,-6.59,8.05,8.05,8.05
48.49,14.94,14.94,6.90,6.90,-6.90,-7.13,-6.55,8.03,8.03,8.04
48.97,14.89,14.89,6.87,6.87,-6.87,-7.10,-6.53,8.02,8.02,8.02
49.46,14.84,14.84,6.83,6.83,-6.83,-7.06,-6.50,8.01,8.01,8.00
49.96,14.79,14.79,6.80,6.80,-6.80,-7.03,-6.48,7.99,7.99,7.99
50.46,14.73,14.73,6.76,6.76,-6.76,-6.99,-6.47,7.97,7.97,7.97
50.96,14.68,14.68,6.73,6.73,-6.73,-6.95,-6.45,7.95,7.95,7.95
51.47,14.63,14.63,6.69,6.69,-6.69,-6.91,-6.44,7.94,7.93,7.94
51.99,14.57,14.57,6.65,6.66,-6.66,-6.87,-6.43,7.91,7.92,7.92
52.51,14.52,14.52,6.62,6.62,-6.62,-6.83,-6.43,7.90,7.90,7.90
53.03,14.47,14.47,6.59,6.59,-6.59,-6.78,-6.43,7.88,7.88,7.88
53.56,14.41,14.41,6.55,6.56,-6.56,-6.73,-6.42,7.85,7.86,7.86
54.10,14.36,14.36,6.52,6.52,-6.52,-6.68,-6.42,7.84,7.84,7.84
54.64,14.31,14.31,6.50,6.49,-6.49,-6.63,-6.42,7.82,7.82,7.81
55.18,14.25,14.25,6.46,6.46,-6.46,-6.58,-6.42,7.79,7.79,7.79
55.74,14.19,14.19,6.42,6.42,-6.42,-6.53,-6.43,7.77,7.77,7.77
56.29,14.13,14.13,6.38,6.39,-6.39,-6.47,-6.43,7.74,7.74,7.74
56.86,14.08,14.08,6.36,6.36,-6.35,-6.42,-6.43,7.73,7.72,7.72
57.42,14.02,14.02,6.33,6.32,-6.32,-6.36,-6.43,7.70,7.70,7.69
58.00,13.95,13.95,6.28,6.29,-6.29,-6.30,-6.42,7.66,7.67,7.67
58.58,13.89,13.89,6.25,6.25,-6.25,-6.25,-6.42,7.64,7.64,7.64
59.16,13.83,13.83,6.22,6.22,-6.22,-6.19,-6.41,7.61,7.61,7.61
59.76,13.77,13.77,6.19,6.19,-6.19,-6.13,-6.40,7.58,7.58,7.58
60.35,13.71,13.71,6.16,6.16,-6.16,-6.08,-6.39,7.55,7.55,7.55
60.96,13.65,13.65,6.13,6.13,-6.13,-6.03,-6.38,7.52,7.52,7.52
61.57,13.59,13.59,6.10,6.10,-6.10,-5.98,-6.36,7.49,7.49,7.49
62.18,13.53,13.53,6.07,6.07,-6.07,-5.94,-6.34,7.46,7.46,7.46
62.80,13.47,13.47,6.04,6.04,-6.04,-5.89,-6.31,7.43,7.43,7.43
63.43,13.41,13.41,6.02,6.02,-6.02,-5.86,-6.29,7.39,7.39,7.39
64.07,13.35,13.35,5.99,5.99,-5.99,-5.82,-6.26,7.36,7.36,7.36
64.71,13.29,13.29,5.97,5.97,-5.97,-5.80,-6.22,7.32,7.32,7.32
65.35,13.22,13.22,5.94,5.94,-5.94,-5.77,-6.18,7.28,7.28,7.28
66.01,13.16,13.16,5.91,5.92,-5.92,-5.76,-6.14,7.24,7.24,7.24
66.67,13.10,13.10,5.89,5.89,-5.89,-5.74,-6.10,7.21,7.20,7.21
67.33,13.04,13.04,5.87,5.87,-5.87,-5.73,-6.05,7.17,7.17,7.17
68.01,12.97,12.97,5.84,5.85,-5.85,-5.73,-6.01,7.12,7.13,7.12
68.69,12.91,12.91,5.83,5.82,-5.82,-5.72,-5.96,7.09,7.08,7.08
69.37,12.84,12.84,5.80,5.80,-5.80,-5.72,-5.91,7.04,7.04,7.04
70.07,12.78,12.78,5.78,5.78,-5.78,-5.73,-5.86,7.00,7.00,7.00
70.77,12.71,12.71,5.76,5.76,-5.76,-5.73,-5.80,6.95,6.95,6.95
71.48,12.64,12.64,5.74,5.74,-5.74,-5.73,-5.75,6.90,6.91,6.90
72.19,12.58,12.58,5.72,5.72,-5.72,-5.74,-5.70,6.86,6.86,6.86
72.91,12.51,12.51,5.70,5.70,-5.70,-5.74,-5.65,6.81,6.81,6.81
73.64,12.44,12.44,5.68,5.68,-5.68,-5.75,-5.59,6.76,6.76,6.76
74.38,12.37,12.37,5.66,5.66,-5.66,-5.75,-5.54,6.71,6.71,6.71
75.12,12.31,12.31,5.65,5.65,-5.65,-5.75,-5.49,6.66,6.66,6.66
75.87,12.24,12.24,5.63,5.63,-5.63,-5.75,-5.45,6.61,6.61,6.61
76.63,12.17,12.17,5.62,5.62,-5.62,-5.75,-5.40,6.55,6.55,6.55
77.40,12.10,12.10,5.60,5.60,-5.61,-5.75,-5.36,6.49,6.50,6.50
78.17,12.04,12.04,5.60,5.59,-5.59,-5.74,-5.32,6.45,6.44,6.44
78.95,11.97,11.97,5.58,5.58,-5.58,-5.73,-5.28,6.39,6.39,6.39
79.74,11.90,11.90,5.57,5.57,-5.57,-5.73,-5.24,6.33,6.33,6.33
80.54,11.83,11.83,5.56,5.56,-5.56,-5.72,-5.21,6.27,6.27,6.27
81.35,11.76,11.76,5.55,5.55,-5.55,-5.70,-5.18,6.21,6.21,6.21
82.16,11.69,11.69,5.54,5.54,-5.54,-5.69,-5.16,6.15,6.15,6.15
82.98,11.62,11.62,5.53,5.53,-5.52,-5.68,-5.13,6.09,6.09,6.09
83.81,11.54,11.54,5.51,5.51,-5.51,-5.66,-5.11,6.03,6.03,6.03
84.65,11.47,11.47,5.50,5.50,-5.50,-5.64,-5.10,5.97,5.96,5.97
85.50,11.39,11.39,5.49,5.49,-5.49,-5.62,-5.09,5.90,5.90,5.90
86.35,11.32,11.32,5.48,5.48,-5.48,-5.60,-5.08,5.84,5.84,5.84
87.22,11.25,11.25,5.48,5.47,-5.48,-5.57,-5.07,5.77,5.77,5.77
88.09,11.17,11.17,5.46,5.47,-5.47,-5.55,-5.07,5.70,5.71,5.71
88.97,11.10,11.10,5.46,5.46,-5.46,-5.52,-5.08,5.64,5.64,5.64
89.86,11.03,11.03,5.46,5.45,-5.45,-5.50,-5.08,5.58,5.57,5.57
90.76,10.95,10.95,5.44,5.44,-5.44,-5.47,-5.09,5.51,5.51,5.50
91.66,10.87,10.87,5.43,5.43,-5.43,-5.44,-5.11,5.44,5.44,5.44
92.58,10.79,10.79,5.42,5.42,-5.42,-5.42,-5.12,5.37,5.37,5.37
93.51,10.71,10.71,5.41,5.41,-5.41,-5.39,-5.14,5.30,5.30,5.30
94.44,10.62,10.62,5.39,5.40,-5.40,-5.36,-5.17,5.22,5.23,5.23
95.39,10.54,10.54,5.38,5.38,-5.38,-5.33,-5.20,5.16,5.15,5.16
96.34,10.45,10.45,5.36,5.37,-5.37,-5.30,-5.23,5.08,5.08,5.08
97.30,10.37,10.37,5.36,5.35,-5.35,-5.27,-5.26,5.01,5.01,5.01
98.28,10.28,10.28,5.34,5.34,-5.34,-5.24,-5.30,4.94,4.94,4.94
99.26,10.20,10.20,5.33,5.33,-5.33,-5.21,-5.34,4.87,4.87,4.87
100.25,10.11,10.11,5.31,5.31,-5.31,-5.18,-5.38,4.80,4.80,4.80
101.25,10.02,10.02,5.29,5.30,-5.29,-5.15,-5.42,4.72,4.73,4.72
102.27,9.93,9.93,5.28,5.28,-5.28,-5.12,-5.47,4.65,4.65,4.65
103.29,9.84,9.84,5.26,5.26,-5.26,-5.09,-5.52,4.58,4.58,4.58
104.32,9.75,9.75,5.24,5.24,-5.25,-5.06,-5.57,4.50,4.50,4.51
105.37,9.66,9.66,5.23,5.23,-5.23,-5.03,-5.61,4.43,4.43,4.43
106.42,9.57,9.57,5.21,5.21,-5.21,-5.01,-5.66,4.36,4.36,4.36
107.48,9.48,9.48,5.19,5.19,-5.19,-4.98,-5.71,4.29,4.29,4.29
108.56,9.39,9.39,5.18,5.17,-5.17,-4.95,-5.76,4.22,4.22,4.21
109.64,9.29,9.29,5.15,5.15,-5.15,-4.93,-5.81,4.14,4.14,4.14
110.74,9.19,9.19,5.12,5.12,-5.12,-4.91,-5.86,4.07,4.07,4.07
111.85,9.09,9.09,5.09,5.09,-5.10,-4.89,-5.90,3.99,3.99,4.00
112.97,8.99,8.99,5.07,5.06,-5.06,-4.87,-5.94,3.93,3.92,3.92
114.10,8.88,8.88,5.03,5.03,-5.03,-4.85,-5.98,3.85,3.85,3.85
115.24,8.77,8.77,4.99,4.99,-4.99,-4.83,-6.02,3.78,3.78,3.78
116.39,8.66,8.66,4.95,4.95,-4.94,-4.81,-6.05,3.72,3.71,3.71
117.55,8.54,8.54,4.90,4.90,-4.89,-4.80,-6.08,3.65,3.65,3.64
118.73,8.42,8.42,4.85,4.85,-4.83,-4.79,-6.10,3.58,3.58,3.57
119.92,8.29,8.29,4.79,4.79,-4.77,-4.78,-6.11,3.52,3.52,3.50
121.12,8.16,8.16,4.73,4.73,-4.71,-4.77,-6.13,3.45,3.45,3.43
122.33,8.03,8.03,4.67,4.67,-4.65,-4.76,-6.13,3.38,3.38,3.36
123.55,7.91,7.91,4.61,4.61,-4.60,-4.75,-6.13,3.31,3.30,3.30
124.79,7.79,7.79,4.56,4.57,-4.57,-4.75,-6.12,3.22,3.22,3.23
126.03,7.71,7.70,4.55,4.54,-4.57,-4.75,-6.10,3.14,3.14,3.16
127.29,7.65,7.65,4.55,4.56,-4.60,-4.75,-6.08,3.05,3.06,3.10
128.57,7.64,7.65,4.61,4.61,-4.66,-4.76,-6.05,2.98,2.98,3.03
129.85,7.69,7.69,4.72,4.72,-4.77,-4.76,-6.02,2.92,2.92,2.97
131.15,7.77,7.78,4.86,4.87,-4.91,-4.77,-5.98,2.86,2.86,2.91
132.46,7.90,7.90,5.06,5.06,-5.08,-4.78,-5.93,2.82,2.82,2.84
133.79,8.05,8.05,5.27,5.27,-5.26,-4.79,-5.88,2.79,2.79,2.78
135.12,8.20,8.20,5.48,5.48,-5.45,-4.80,-5.82,2.75,2.75,2.72
136.48,8.33,8.33,5.67,5.66,-5.62,-4.82,-5.76,2.71,2.70,2.66
137.84,8.43,8.42,5.83,5.82,-5.78,-4.84,-5.69,2.65,2.65,2.60
139.22,8.48,8.48,5.93,5.94,-5.90,-4.86,-5.63,2.58,2.59,2.55
140.61,8.51,8.50,6.02,6.01,-5.99,-4.88,-5.55,2.52,2.52,2.49
142.02,8.49,8.49,6.06,6.05,-6.04,-4.90,-5.48,2.45,2.45,2.43
143.44,8.44,8.44,6.06,6.06,-6.06,-4.93,-5.40,2.38,2.38,2.38
144.87,8.38,8.37,6.05,6.05,-6.05,-4.96,-5.33,2.33,2.32,2.33
146.32,8.29,8.29,6.02,6.02,-6.03,-4.98,-5.25,2.26,2.26,2.27
147.78,8.20,8.20,5.98,5.98,-5.99,-5.01,-5.17,2.21,2.21,2.22
149.26,8.10,8.10,5.93,5.93,-5.94,-5.04,-5.09,2.16,2.16,2.17
150.75,8.00,8.00,5.88,5.88,-5.88,-5.07,-5.01,2.12,2.11,2.12
152.26,7.89,7.89,5.82,5.82,-5.83,-5.11,-4.94,2.06,2.07,2.07
153.78,7.79,7.79,5.76,5.76,-5.77,-5.14,-4.86,2.02,2.02,2.03
155.32,7.69,7.69,5.71,5.71,-5.72,-5.17,-4.78,1.97,1.97,1.98
156.88,7.59,7.59,5.66,5.66,-5.66,-5.20,-4.71,1.93,1.93,1.93
158.44,7.50,7.50,5.61,5.61,-5.61,-5.23,-4.64,1.89,1.89,1.89
160.03,7.40,7.40,5.55,5.56,-5.56,-5.26,-4.57,1.84,1.84,1.85
161.63,7.31,7.31,5.52,5.51,-5.51,-5.29,-4.50,1.80,1.80,1.79
163.24,7.21,7.21,5.46,5.46,-5.46,-5.31,-4.44,1.75,1.75,1.75
164.88,7.12,7.12,5.41,5.41,-5.41,-5.33,-4.37,1.71,1.71,1.71
166.53,7.03,7.03,5.36,5.36,-5.36,-5.36,-4.31,1.67,1.67,1.67
168.19,6.95,6.94,5.32,5.31,-5.31,-5.37,-4.26,1.64,1.63,1.63
169.87,6.86,6.86,5.26,5.26,-5.26,-5.39,-4.20,1.60,1.60,1.60
171.57,6.77,6.77,5.21,5.21,-5.21,-5.39,-4.15,1.56,1.56,1.56
173.29,6.69,6.69,5.16,5.16,-5.16,-5.40,-4.10,1.53,1.52,1.52
175.02,6.60,6.60,5.11,5.11,-5.11,-5.40,-4.06,1.49,1.49,1.49
176.77,6.52,6.52,5.06,5.06,-5.06,-5.40,-4.02,1.46,1.46,1.46
178.54,6.44,6.43,5.02,5.01,-5.01,-5.39,-3.98,1.43,1.42,1.42
180.32,6.35,6.35,4.96,4.96,-4.96,-5.37,-3.94,1.39,1.39,1.39
182.13,6.27,6.27,4.91,4.91,-4.91,-5.35,-3.91,1.36,1.36,1.36
183.95,6.19,6.19,4.86,4.86,-4.86,-5.33,-3.88,1.33,1.33,1.33
185.79,6.11,6.11,4.81,4.81,-4.81,-5.29,-3.86,1.30,1.30,1.30
187.65,6.03,6.03,4.76,4.76,-4.75,-5.25,-3.83,1.28,1.28,1.27
189.52,5.95,5.95,4.70,4.70,-4.70,-5.21,-3.81,1.25,1.25,1.25
191.42,5.87,5.87,4.65,4.65,-4.64,-5.16,-3.79,1.22,1.22,1.22
193.33,5.78,5.78,4.59,4.59,-4.59,-5.10,-3.78,1.19,1.19,1.19
195.27,5.70,5.70,4.53,4.53,-4.53,-5.05,-3.76,1.17,1.17,1.17
197.22,5.62,5.62,4.47,4.47,-4.48,-4.98,-3.75,1.14,1.14,1.14
199.19,5.54,5.54,4.42,4.42,-4.42,-4.91,-3.74,1.12,1.12,1.12
201.18,5.46,5.46,4.36,4.36,-4.36,-4.83,-3.73,1.10,1.10,1.10
203.19,5.38,5.38,4.30,4.30,-4.30,-4.76,-3.73,1.08,1.08,1.08
205.23,5.30,5.30,4.24,4.24,-4.24,-4.67,-3.72,1.06,1.05,1.05
207.28,5.22,5.22,4.19,4.18,-4.19,-4.59,-3.72,1.03,1.03,1.03
209.35,5.14,5.14,4.13,4.13,-4.13,-4.50,-3.72,1.01,1.01,1.01
211.44,5.06,5.06,4.07,4.07,-4.07,-4.41,-3.71,0.99,0.99,0.99
213.56,4.99,4.99,4.01,4.01,-4.01,-4.32,-3.71,0.98,0.98,0.98
215.69,4.91,4.91,3.95,3.95,-3.95,-4.22,-3.71,0.96,0.96,0.96
217.85,4.83,4.83,3.89,3.89,-3.89,-4.12,-3.71,0.94,0.94,0.94
220.03,4.75,4.75,3.83,3.83,-3.83,-4.03,-3.71,0.92,0.92,0.92
222.23,4.68,4.67,3.77,3.77,-3.77,-3.93,-3.70,0.91,0.91,0.91
224.45,4.60,4.60,3.71,3.71,-3.71,-3.83,-3.70,0.89,0.89,0.89
226.70,4.52,4.52,3.65,3.65,-3.65,-3.73,-3.69,0.87,0.87,0.87
228.96,4.45,4.45,3.59,3.59,-3.59,-3.63,-3.68,0.86,0.86,0.86
231.25,4.37,4.37,3.52,3.53,-3.53,-3.53,-3.67,0.84,0.84,0.84
233.57,4.30,4.30,3.47,3.47,-3.47,-3.43,-3.66,0.83,0.83,0.83
235.90,4.22,4.22,3.41,3.41,-3.41,-3.34,-3.64,0.81,0.81,0.81
238.26,4.15,4.15,3.35,3.35,-3.35,-3.24,-3.62,0.80,0.80,0.79
240.64,4.07,4.07,3.29,3.29,-3.29,-3.14,-3.60,0.78,0.78,0.78
243.05,4.00,4.00,3.23,3.23,-3.22,-3.05,-3.57,0.77,0.77,0.77
245.48,3.92,3.92,3.16,3.16,-3.16,-2.96,-3.54,0.76,0.76,0.76
247.93,3.84,3.84,3.09,3.10,-3.10,-2.86,-3.51,0.74,0.74,0.75
250.41,3.77,3.77,3.03,3.03,-3.03,-2.77,-3.47,0.74,0.73,0.74
252.92,3.69,3.69,2.96,2.97,-2.97,-2.68,-3.42,0.72,0.72,0.72
255.45,3.62,3.62,2.90,2.90,-2.90,-2.60,-3.37,0.72,0.72,0.71
258.00,3.54,3.54,2.83,2.84,-2.84,-2.51,-3.32,0.70,0.71,0.70
260.58,3.47,3.47,2.77,2.77,-2.77,-2.43,-3.27,0.70,0.70,0.70
263.19,3.39,3.39,2.70,2.70,-2.71,-2.34,-3.21,0.68,0.69,0.69
265.82,3.32,3.32,2.64,2.64,-2.64,-2.26,-3.14,0.68,0.68,0.68
268.48,3.24,3.24,2.57,2.57,-2.58,-2.18,-3.07,0.66,0.67,0.67
271.16,3.17,3.17,2.51,2.51,-2.51,-2.10,-3.00,0.66,0.66,0.66
273.87,3.10,3.10,2.45,2.44,-2.44,-2.03,-2.93,0.65,0.65,0.65
276.61,3.03,3.03,2.38,2.38,-2.38,-1.95,-2.85,0.65,0.65,0.65
279.38,2.95,2.95,2.31,2.32,-2.31,-1.88,-2.77,0.64,0.64,0.64
282.17,2.88,2.88,2.25,2.25,-2.24,-1.81,-2.69,0.63,0.63,0.63
284.99,2.81,2.81,2.18,2.17,-2.18,-1.73,-2.60,0.63,0.63,0.63
287.84,2.74,2.74,2.10,2.11,-2.11,-1.67,-2.52,0.63,0.63,0.64
290.72,2.67,2.67,2.04,2.04,-2.04,-1.60,-2.43,0.63,0.63,0.63
293.63,2.60,2.60,1.97,1.97,-1.97,-1.53,-2.34,0.63,0.63,0.62
296.57,2.53,2.53,1.90,1.90,-1.90,-1.47,-2.25,0.63,0.63,0.63
299.53,2.46,2.46,1.83,1.83,-1.83,-1.40,-2.15,0.63,0.63,0.63
302.53,2.39,2.39,1.76,1.76,-1.76,-1.34,-2.06,0.63,0.63,0.63
305.55,2.32,2.32,1.69,1.69,-1.69,-1.28,-1.97,0.63,0.63,0.63
308.61,2.25,2.25,1.62,1.62,-1.62,-1.22,-1.87,0.63,0.63,0.63
311.69,2.18,2.18,1.55,1.55,-1.55,-1.16,-1.78,0.63,0.63,0.63
314.81,2.12,2.11,1.49,1.49,-1.49,-1.10,-1.68,0.63,0.63,0.63
317.96,2.05,2.05,1.42,1.42,-1.42,-1.05,-1.59,0.63,0.63,0.63
321.14,1.98,1.98,1.35,1.35,-1.35,-0.99,-1.49,0.63,0.63,0.63
324.35,1.92,1.92,1.29,1.28,-1.28,-0.94,-1.40,0.64,0.63,0.63
327.59,1.85,1.85,1.21,1.21,-1.22,-0.88,-1.30,0.63,0.63,0.64
330.87,1.79,1.79,1.15,1.15,-1.15,-0.83,-1.21,0.64,0.64,0.64
334.18,1.72,1.72,1.08,1.08,-1.08,-0.78,-1.11,0.64,0.64,0.64
337.52,1.66,1.66,1.02,1.02,-1.01,-0.72,-1.02,0.65,0.64,0.64
340.90,1.59,1.59,0.94,0.94,-0.94,-0.67,-0.93,0.64,0.65,0.64
344.30,1.53,1.53,0.88,0.88,-0.88,-0.62,-0.83,0.65,0.65,0.65
347.75,1.46,1.46,0.80,0.81,-0.81,-0.57,-0.74,0.65,0.66,0.66
351.23,1.40,1.40,0.74,0.74,-0.74,-0.52,-0.65,0.66,0.66,0.65
354.74,1.34,1.33,0.67,0.67,-0.67,-0.48,-0.56,0.67,0.66,0.67
358.28,1.27,1.27,0.60,0.60,-0.60,-0.43,-0.46,0.67,0.67,0.67
361.87,1.21,1.21,0.53,0.53,-0.53,-0.38,-0.37,0.67,0.68,0.68
365.49,1.15,1.15,0.47,0.47,-0.47,-0.33,-0.28,0.68,0.68,0.68
369.14,1.09,1.09,0.41,0.40,-0.40,-0.29,-0.19,0.69,0.69,0.68
372.83,1.03,1.03,0.33,0.34,-0.34,-0.24,-0.10,0.69,0.69,0.70
376.56,0.97,0.97,0.27,0.27,-0.27,-0.19,-0.01,0.70,0.70,0.70
380.33,0.91,0.91,0.21,0.21,-0.21,-0.15,0.08,0.70,0.70,0.70
384.13,0.85,0.85,0.15,0.14,-0.14,-0.10,0.17,0.71,0.71,0.70
387.97,0.79,0.79,0.08,0.08,-0.08,-0.06,0.26,0.71,0.71,0.71
391.85,0.74,0.74,0.01,0.02,-0.02,-0.01,0.34,0.72,0.72,0.73
395.77,0.68,0.68,-0.05,-0.05,0.04,0.04,0.43,0.72,0.73,0.72
399.73,0.63,0.63,-0.10,-0.11,0.11,0.08,0.52,0.73,0.73,0.73
403.72,0.57,0.57,-0.17,-0.17,0.17,0.13,0.60,0.74,0.74,0.74
407.76,0.52,0.52,-0.22,-0.23,0.23,0.17,0.69,0.75,0.74,0.74
411.84,0.46,0.46,-0.29,-0.28,0.29,0.22,0.77,0.75,0.75,0.75
415.96,0.41,0.41,-0.35,-0.34,0.34,0.26,0.85,0.75,0.75,0.76
420.12,0.36,0.35,-0.39,-0.40,0.40,0.31,0.93,0.76,0.75,0.75
424.32,0.30,0.30,-0.46,-0.46,0.46,0.36,1.01,0.76,0.76,0.76
428.56,0.25,0.25,-0.52,-0.52,0.51,0.40,1.09,0.76,0.77,0.77
432.85,0.21,0.20,-0.57,-0.57,0.57,0.45,1.17,0.78,0.78,0.78
437.18,0.16,0.16,-0.62,-0.62,0.63,0.50,1.24,0.79,0.78,0.78
441.55,0.11,0.11,-0.68,-0.68,0.68,0.54,1.32,0.79,0.79,0.79
445.96,0.06,0.06,-0.74,-0.74,0.74,0.59,1.38,0.80,0.80,0.80
450.42,0.02,0.02,-0.79,-0.80,0.79,0.64,1.45,0.81,0.81,0.81
454.93,-0.03,-0.03,-0.85,-0.85,0.85,0.69,1.52,0.81,0.82,0.82
459.48,-0.07,-0.07,-0.90,-0.90,0.90,0.73,1.58,0.83,0.83,0.83
464.07,-0.12,-0.12,-0.95,-0.95,0.95,0.78,1.63,0.83,0.83,0.83
468.71,-0.16,-0.16,-1.00,-1.00,1.01,0.83,1.69,0.84,0.84,0.84
473.40,-0.21,-0.21,-1.06,-1.05,1.06,0.88,1.74,0.85,0.85,0.85
478.13,-0.25,-0.25,-1.11,-1.11,1.11,0.93,1.78,0.86,0.86,0.86
482.91,-0.29,-0.30,-1.16,-1.16,1.16,0.98,1.83,0.87,0.86,0.87
487.74,-0.34,-0.34,-1.22,-1.21,1.21,1.04,1.86,0.87,0.87,0.88
492.62,-0.38,-0.38,-1.27,-1.26,1.26,1.09,1.90,0.88,0.88,0.88
497.55,-0.42,-0.42,-1.31,-1.32,1.32,1.14,1.93,0.90,0.90,0.89
502.52,-0.46,-0.46,-1.36,-1.37,1.37,1.19,1.95,0.91,0.91,0.90
507.55,-0.50,-0.50,-1.42,-1.42,1.42,1.25,1.98,0.92,0.92,0.92
512.62,-0.54,-0.54,-1.47,-1.47,1.47,1.30,1.99,0.93,0.93,0.93
517.75,-0.58,-0.58,-1.52,-1.52,1.52,1.35,2.01,0.94,0.94,0.94
