frequency,raw
10,-31.356084410785556
11,-30.613759684655115
12,-29.34347017571237
13,-28.324182094312047
14,-27.238208567391226
15,-26.298220070671206
16,-25.430529895550293
17,-24.56914587039545
18,-23.717496306647014
19,-22.9688511336362
20,-22.219433078112907
21,-21.560918626996276
22,-20.818326916985257
23,-20.13789317494039
24,-19.62135069261475
25,-19.10268797880758
26,-18.380337254509886
27,-17.857599314620135
28,-17.363171379008996
29,-16.905733905269354
30,-16.18047118394193
31,-15.734581498568144
32,-15.323678332227285
33,-14.848749268841129
34,-14.405293383153246
35,-14.083765543159789
36,-13.642562385641078
37,-13.210124762428421
38,-12.785703162414357
39,-12.332575382039433
40,-12.0053782404472
41,-11.679333044077392
42,-11.250468071986436
43,-10.891370726197437
44,-10.494146994163465
45,-10.175547863908065
46,-9.811167335185669
47,-9.553614532649146
48,-9.24820274723119
49,-8.993561124923115
50,-8.739917713876382
51,-8.439780372417871
52,-8.191691303980441
53,-7.816607511143256
54,-7.505210168895058
55,-7.247154561884333
56,-7.057256891593017
57,-6.823508187753047
58,-6.602672423499119
59,-6.433377180346427
60,-6.1814368278811855
61,-6.002888787613317
62,-5.741817348880804
63,-5.6502356698123295
64,-5.5174439019533885
65,-5.28736484139851
66,-5.122906079882338
67,-4.97765208821211
68,-4.83201621787918
69,-4.631732385735326
70,-4.443978860925796
71,-4.269127871694736
72,-4.145040095664757
73,-4.050398498496557
74,-3.977935345872932
75,-3.9100866070295903
76,-3.723396608313664
77,-3.7989673571335647
78,-3.530983544496915
79,-3.519108768865399
80,-3.3739263057004436
81,-3.2960204149741603
82,-3.199508799359546
83,-3.266581239763116
84,-3.254020685893702
85,-3.23979677952725
86,-3.225133405788949
87,-3.210541601534768
88,-3.1966086331909187
89,-3.104411665012541
90,-3.097431673685507
91,-3.2847715822534993
92,-3.3473503689330038
93,-3.3186193721662867
94,-3.1643580044335318
95,-3.108686865250033
96,-3.1315789980121043
97,-3.0081679559327803
98,-2.8330195562692255
99,-2.7903364919355678
100,-2.793841490012335
101,-2.5559156023096783
102,-2.596189158492546
104,-2.5476412808633864
105,-2.5058512902162797
106,-2.4276332336438626
107,-2.357345181091641
108,-2.295933632458554
109,-2.2801629585446737
110,-2.2713947195718016
111,-2.271402825008486
112,-2.278865426594933
113,-2.290749535165541
114,-2.3039313683401548
115,-2.316176915965647
117,-2.3262601639522558
118,-2.3336090629210284
119,-2.338033795944752
120,-2.3397788899860426
121,-2.3396855553966507
123,-2.4798654103339257
124,-2.4568618737308454
125,-2.440643420081015
126,-2.4416582202121027
128,-2.44102381962338
129,-2.437418068340777
130,-2.5032855710696578
131,-2.5241693945811696
133,-2.6192196743003757
134,-2.6177101508377505
135,-2.6764378762727934
137,-2.7757476299181185
138,-2.7340513091827354
140,-2.676522902301028
141,-2.747416089145571
142,-2.924779218296416
144,-2.9108017372700177
145,-2.9063725091112347
147,-2.9061064973340196
148,-2.9093256132198895
150,-2.9137919313146625
151,-2.916505013321782
153,-2.9145849349217166
154,-2.9061309327921663
156,-3.072047449831681
157,-3.052393428172682
159,-3.003165029760442
160,-3.0435745190838124
162,-3.2609748711689304
164,-3.605252414100967
165,-3.764158929520707
167,-3.715569964748414
169,-3.6624865337472974
170,-3.666046788605395
172,-3.6650300413863848
174,-3.734516350203583
175,-3.7588438506769686
177,-3.6619645867244595
179,-3.680606240974701
181,-3.444853039674151
183,-3.550861844943868
184,-3.5528530495186423
186,-3.551964487768738
188,-3.552285087732453
190,-3.5536445229374487
192,-3.554501763512919
194,-3.570321216230898
196,-3.7868898962321835
198,-3.7133556142978446
200,-3.617192845177709
202,-3.5994197476417202
204,-3.5831908926833154
206,-3.5702243262559463
208,-3.4326098297839893
210,-3.2915483597973716
212,-3.3068698138366366
214,-3.4378683273716426
216,-3.4299093778155916
218,-3.349363110782909
221,-3.1442703216983148
223,-3.2988698752582444
225,-3.3208930823578555
227,-3.290546186662196
229,-3.1768950784674574
232,-3.0208893699374024
234,-2.872934724920257
236,-3.18298000741847
239,-2.867320110204199
241,-2.6998051745862
244,-2.9048031894583346
246,-3.0317804878446664
248,-2.9022330476172002
251,-2.5175044587914774
253,-2.3307564211027447
256,-2.6021739020454566
259,-2.6496244455675066
261,-2.384612426043256
264,-2.2766030788819154
266,-2.2590351005069595
269,-2.242252667290352
272,-1.9138849209780329
274,-1.8587649001678925
277,-1.738440879853088
280,-1.7368747242128029
283,-1.6558046257931691
286,-1.3826174106489129
288,-1.2488587795559294
291,-1.1340300927782518
294,-0.9871509123530737
297,-0.8311523528349651
300,-0.7083314219225758
303,-0.7659213072185471
306,-0.6324259573142519
309,-0.3873136235720782
312,-0.18607381805539758
316,-0.1978519153082119
319,-0.29856583699541783
322,0.07671121132919279
325,0.04870219995210645
328,0.015625553882200105
332,0.42681964480407775
335,0.1084002588740196
338,0.08856344484521106
342,0.37138397856518246
345,0.3760316358517035
349,0.385390502809587
352,0.39893549490818003
356,0.4148947050104015
359,0.4312924495538599
363,0.4468414029524119
366,0.46121000339774154
370,0.6251875715315149
374,0.28717967587538507
377,0.16535144888343556
381,0.18272724321111955
385,0.21124896172747487
389,0.42536131467238913
393,0.43460482515094245
397,0.5487186541555067
401,0.569494543563303
405,0.3683592489429963
409,0.30074861074111237
413,0.2287379982673996
417,0.37683904611018315
421,0.5252477708460521
425,0.524275321678688
430,0.6420932982166816
434,0.6555508285028804
438,0.4971309720111807
443,0.46964089083224136
447,0.5000282931059132
451,0.36070942317336385
456,0.2238983175431022
460,0.21132526194501633
465,0.1035184037450847
470,0.14146372273707186
474,0.31459257320506095
479,0.3835332811873382
484,0.582591171626571
489,0.5846650790970886
494,0.26209277536595943
499,0.21538692344009913
504,0.32548013741187987
509,0.6288321066715414
514,0.6133113229814948
519,0.6323912835530408
524,0.4070741453082509
529,0.17473630187950473
535,0.28106414892817533
540,0.1704150730116334
545,0.1116799932849597
551,-0.2541567221950607
556,-0.31271213843041723
562,-0.0791208515194417
568,-0.17191435137759514
573,-0.3681580506867581
579,-0.39359926655497457
585,-0.4342840577152218
591,-0.3076428009816321
596,-0.2853467613219216
602,-0.47569045114453834
608,-0.5237758876553662
615,-0.5870794416137868
621,-0.6802654979855187
627,-0.6755081449694225
633,-0.6601432337470325
639,-0.6360334018529217
646,-0.6096653831052099
652,-0.5891293178304116
659,-0.58017674318558
665,-0.5834991926283619
672,-0.5946740109577342
679,-0.626016070179229
686,-0.8343565946021596
692,-0.7937723711030902
699,-0.7009122842064555
706,-0.6844137045974845
713,-0.6648693316683718
721,-0.645021858947032
728,-0.6278726138768163
735,-0.5329194355010696
742,-0.37562064163741127
750,-0.41933631529108517
757,-0.5537054174857734
765,-0.5845187455275318
773,-0.6133884615076068
780,-0.6328347616218917
788,-0.639713673943342
796,-0.5496447544883032
804,-0.3708714594419251
812,-0.4813571137032957
820,-0.2704250500341838
828,-0.30362179980475634
837,-0.5297361303387684
845,-0.7600005498946945
853,-0.8049676554568688
862,-0.32303577716147824
871,-0.3631430758303269
879,-0.48784437038886264
888,-0.4887400796292738
897,-0.3307355178173985
906,-0.17923532338451542
915,-0.23921218801541944
924,-0.410480886888406
933,-0.5649823331026003
943,-0.3505122931892557
952,0.0702014940256741
962,-0.09582462368772626
971,-0.07648402081622097
981,-0.047021841000444375
991,-0.020368494028816908
1001,0.0022518406779008515
1011,0.0221371907927832
1021,0.042408732740381705
1031,0.06640214342145523
1041,0.09617305333421067
1052,0.13203110016714703
1062,0.17321652152568134
1073,0.21896041703959535
1084,0.2689455131424894
1094,0.3228071263767074
1105,0.37926262084690476
1116,0.43591282028304557
1128,0.2552055054962876
1139,0.2453725768716395
1150,0.4917188398412691
1162,0.6850625623627775
1173,0.8331995434530102
1185,0.5716846411339551
1197,0.5853616412718718
1209,0.607840150227902
1221,0.6808245751125015
1233,0.7115019055629448
1246,0.7174520796772996
1258,0.6268398777801205
1271,0.6959304784377665
1283,0.9727505928905136
1296,1.0053498508147105
1309,0.9150170110800064
1322,1.007159578087285
1335,1.003184884396025
1349,0.8211313632768515
1362,0.6195847133317747
1376,0.43494268610514464
1390,0.44702892893712187
1404,0.48902241760069876
1418,0.42927031369896085
1432,0.4857158960325174
1446,0.4641938962150318
1461,0.7637206438930275
1475,0.7942012409882722
1490,0.9366280948762729
1505,1.1307336051058723
1520,1.0008557892658558
1535,0.943389842910249
1550,0.8236929971930067
1566,1.074973833107062
1582,1.2390330634208073
1597,1.281292499631851
1613,1.0439493329723049
1629,0.7601926610641425
1646,0.5421721593119888
1662,0.7498299735006935
1679,1.1330523636643788
1696,1.2874240409618345
1713,1.4711699748392935
1730,1.6225299224871645
1747,1.5827971105375016
1764,1.6957142749637013
1782,1.7652188134978535
1800,1.8389485587717975
1818,1.8702249044960633
1836,1.947289527709442
1854,2.084630149069767
1873,2.100176090071344
1892,1.9663811048217457
1911,1.9834499305118491
1930,2.004818396579066
1949,2.0692998970796963
1969,1.9659910266685676
1988,1.934073514961998
2008,1.9088197103896274
2028,2.006808918504605
2048,2.162012553339232
2069,2.052124250431821
2090,1.8460493905501076
2111,1.9428917776204218
2132,2.2917383984021935
2153,2.286783899702
2175,2.2215338415430095
2196,2.15722270330577
2218,2.127880433151338
2240,2.1466556845770484
2263,2.110366516935086
2285,2.092717611944275
2308,2.085410268762568
2331,2.1978815380273486
2355,2.2027491675552167
2378,2.2289967950952434
2402,2.385550547903825
2426,2.3980155217108967
2450,2.4390613569358015
2475,2.589109525641395
2500,2.563063027003306
2525,2.5296081204093506
2550,2.530526436721324
2575,2.5196830021135623
2601,2.5864217595269947
2627,2.4937010504561288
2653,2.3867867345869858
2680,2.4419016291056224
2707,2.612160067469329
2734,2.7956762345074457
2761,2.9973944279981675
2789,3.4662606908221667
2817,3.775520446801125
2845,3.945489304389124
2873,4.269365339483212
2902,4.491757110547901
2931,4.618922765406466
2960,4.712104305174131
2990,4.608905185736745
3020,4.4953990217358335
3050,4.497213304665738
3080,4.470144011489588
3111,4.704503740889846
3142,4.935458457987194
3174,5.130746483487231
3206,5.30730828421951
3238,5.4335692397324244
3270,5.5415625206233035
3303,5.616999913769533
3336,5.697264916135419
3369,5.7224959595356175
3403,5.65096402425567
3437,5.612578196392219
3471,5.56946494231316
3506,5.58337299628146
3541,5.402678804918763
3576,5.21388888815881
3612,4.870039402409143
3648,4.420627929568198
3685,3.9377533432718366
3721,3.4899921282406074
3759,2.330855845172046
3796,1.6284943775321992
3834,0.626354561918312
3873,-1.4130935312816852
3911,-2.900763001453903
3950,-5.257517449740444
3990,-8.762895177110561
4030,-11.331764260558458
4070,-11.916376196490901
4111,-11.027771108826055
4152,-8.238171245664528
4193,-7.5603467527593935
4235,-5.45671742185246
4278,-4.235422942557726
4321,-3.403552744124781
4364,-2.956123780136817
4407,-1.844018760675251
4451,-1.1535297753678293
4496,-0.5815362275136167
4541,0.11021656164390414
4586,1.181126400515132
4632,1.6622513645593502
4679,2.032889779555317
4725,2.374156951768976
4773,2.4706988857156134
4820,2.5263074392287708
4868,2.527416911197486
4917,2.8464705576456355
4966,2.735609930782009
5016,2.400301564251282
5066,2.6031947833934863
5117,2.8618063595091003
5168,2.9115578040155263
5220,2.826118448893074
5272,3.1462135406247365
5325,3.055187311545615
5378,2.7699965982753243
5432,1.9474496721691317
5486,1.1410212214036548
5541,-0.4257623262169057
5596,-1.873422376230054
5652,-2.5549107789590932
5709,-3.1197829490056863
5766,-3.7845175833625815
5823,-4.23590338062777
5882,-4.0693824047766824
5940,-4.204169146033352
6000,-4.652580275935425
6060,-5.496661807534769
6120,-6.963056940522332
6182,-8.800558729630216
6244,-9.858295511638147
6306,-9.38405797932294
6369,-8.728699325302244
6433,-6.860531435498301
6497,-5.641253406124846
6562,-2.9972075974912293
6628,-2.0413470265195333
6694,-1.324669625834109
6761,0.03454419019276944
6828,0.4237198989425721
6897,0.19071644309222702
6966,-0.3253598876436907
7035,-1.0783265369824213
7106,-1.6400502365153846
7177,-2.1378571312308856
7249,-2.6695577387426153
7321,-3.6083813639440407
7394,-4.395236937607727
7468,-5.053762914684914
7543,-5.496892113400531
7618,-5.721484495542201
7694,-5.869191290892236
7771,-5.9339923358887985
7849,-5.524690855827578
7928,-5.270656515352743
8007,-4.392563955296134
8087,-3.7783113178556014
8168,-3.543022718990679
8250,-3.390391004532466
8332,-3.2625047515394643
8415,-3.0377887504751735
8499,-2.629131264768057
8584,-1.8215728907280897
8670,-1.197044218403342
8757,-0.6196489941680525
8845,0.008457326012769606
8933,0.8067153423181685
9022,1.299165766931179
9113,1.1396051181034332
9204,0.9276772685726087
9296,0.7478163859232034
9389,0.5456962636519083
9483,0.022880964706351925
9577,-0.4007223981979542
9673,-0.7890561391612039
9770,-1.2354469263165333
9868,-0.4946225326672029
9966,-0.09724653543540374
10066,0.40910787817087213
10167,1.2993817005723192
10268,1.5198546467257952
10371,2.1030300511660007
10475,2.2884539137012228
10579,1.857750838069519
10685,1.2882306658887575
10792,0.4234920585599413
10900,-0.7388081296553501
11009,-1.6046787180387492
11119,-2.440762044265541
11230,-2.579214006496532
11343,-2.128425878945926
11456,-1.654912727354834
11571,-1.4805825155465713
11686,-1.0119149754510324
11803,-0.4296061737798058
11921,0.054130633823283425
12040,0.4089302759624407
12161,0.790367490823038
12282,0.9867671667538196
12405,1.1730458446359555
12529,1.2361067329071167
12655,0.8218198287919583
12781,-0.3930806886434448
12909,-0.6482946868945723
13038,-1.1087411654978192
13168,-1.7992191207709665
13300,-1.3340854796974093
13433,-1.5361951421695061
13567,-1.5372898564061526
13703,-2.033778626439564
13840,-2.8192602248733207
13978,-4.274547024134393
14118,-6.336065779392316
14259,-8.469074591793888
14402,-10.608997897287882
14546,-13.564096089113253
14692,-15.969347894722182
14838,-16.87649460393643
14987,-16.852397678742896
15137,-16.069458713784854
15288,-15.536728890211702
15441,-15.487711893422556
15595,-15.375458998780527
15751,-12.546393957471828
15909,-11.280450640414037
16068,-11.845133534848571
16229,-13.92903877753371
16391,-17.983424015726627
16555,-21.321690108635465
16720,-23.206761124457454
16888,-22.595242805462362
17056,-14.684283849267203
17227,-15.32667095283621
17399,-22.171701714995994
17573,-23.628065063099992
17749,-22.055719227606797
17926,-20.142700750636482
18106,-17.79233231600559
18287,-15.427182739196024
18470,-15.547024695151947
18654,-16.345769371629892
18841,-16.45130288102701
19029,-18.10120253681111
19220,-19.55059169143209
19412,-20.00943582936084
19606,-20.176523716383336
19802,-20.503376462659304
20000,-19.768781328090995
20200,-17.613978705550604
20402,-18.16447336791996
20606,-18.99128951911851
20812,-20.2649226875522
21020,-21.359639508178926
21230,-22.196717842148374
21443,-22.957429537023614
21657,-24.19887495489857
21874,-24.181034548880163
22092,-22.904235589731368
22313,-21.783313929720773
22537,-20.093842893979108
22762,-21.60698086398396
22989,-23.313046097162285
23219,-23.75876087729187
23452,-23.486374132076122
23686,-23.59173685062238
23923,-24.062092670151184
24162,-23.480002840860305
24404,-22.2042833946666
24648,-20.93123336567477
24894,-19.660707149500492
25143,-18.38806901961761
25395,-17.113302395246393
25649,-15.84081387153953
25905,-14.570555414665813
26164,-13.298238576500298
26426,-12.024033949541744
26690,-10.752342583158809
26957,-9.479076230672023
27227,-8.204434686131084
27499,-6.932684704076977
27774,-5.659824421764531
28052,-4.385998247388954
28332,-3.115300591936749
28615,-1.8438090059533518
28902,-0.5677705669809887
29191,0.7048785739517518
29482,1.9741274584284367
29777,3.2475102397697126
