frequency,raw,error,smoothed,error_smoothed,equalization,parametric_eq,fixed_band_eq,equalized_raw,equalized_smoothed,target
20.00,-5.55,-9.66,-5.55,-9.66,6.00,7.38,2.48,0.45,0.45,4.11
20.20,-5.50,-9.61,-5.50,-9.61,6.00,7.35,2.55,0.50,0.50,4.11
20.40,-5.44,-9.55,-5.43,-9.55,6.00,7.32,2.62,0.56,0.57,4.11
20.61,-5.37,-9.48,-5.37,-9.48,6.00,7.18,2.70,0.63,0.63,4.11
20.81,-5.29,-9.40,-5.29,-9.40,6.00,7.05,2.78,0.71,0.71,4.11
21.02,-5.22,-9.33,-5.22,-9.32,6.00,6.86,2.86,0.78,0.78,4.11
21.23,-5.14,-9.23,-5.14,-9.24,6.00,6.68,2.94,0.86,0.86,4.09
21.44,-5.08,-9.15,-5.08,-9.15,6.00,6.50,3.03,0.92,0.92,4.08
21.66,-5.01,-9.07,-5.01,-9.07,6.00,6.32,3.12,0.99,0.99,4.06
21.87,-4.95,-8.98,-4.95,-8.99,6.00,6.17,3.21,1.05,1.05,4.04
22.09,-4.89,-8.91,-4.89,-8.91,6.00,6.02,3.30,1.11,1.11,4.02
22.31,-4.83,-8.82,-4.83,-8.83,6.00,5.91,3.40,1.17,1.17,3.99
22.54,-4.77,-8.74,-4.77,-8.74,6.00,5.80,3.50,1.23,1.23,3.97
22.76,-4.70,-8.65,-4.70,-8.65,6.00,5.72,3.60,1.30,1.30,3.95
22.99,-4.64,-8.56,-4.64,-8.56,6.00,5.65,3.70,1.36,1.36,3.92
23.22,-4.57,-8.46,-4.57,-8.46,6.00,5.60,3.81,1.43,1.43,3.89
23.45,-4.49,-8.36,-4.50,-8.37,6.00,5.56,3.92,1.51,1.50,3.87
23.69,-4.43,-8.29,-4.42,-8.28,6.00,5.54,4.03,1.57,1.58,3.86
23.92,-4.35,-8.19,-4.35,-8.19,6.00,5.51,4.14,1.65,1.65,3.84
24.16,-4.28,-8.11,-4.28,-8.11,6.00,5.51,4.26,1.72,1.72,3.83
24.40,-4.22,-8.03,-4.22,-8.02,6.00,5.51,4.38,1.78,1.78,3.81
24.65,-4.15,-7.94,-4.15,-7.94,6.00,5.52,4.50,1.85,1.85,3.79
24.89,-4.08,-7.84,-4.08,-7.84,6.00,5.53,4.62,1.92,1.92,3.77
25.14,-4.00,-7.75,-4.00,-7.75,6.00,5.55,4.74,2.00,2.00,3.75
25.39,-3.91,-7.64,-3.91,-7.65,6.00,5.57,4.86,2.09,2.09,3.73
25.65,-3.82,-7.54,-3.82,-7.54,6.00,5.59,4.98,2.18,2.18,3.72
25.91,-3.73,-7.42,-3.73,-7.43,6.00,5.62,5.11,2.27,2.27,3.69
26.16,-3.63,-7.31,-3.63,-7.31,6.00,5.65,5.23,2.37,2.37,3.68
26.43,-3.54,-7.21,-3.54,-7.20,6.00,5.67,5.35,2.46,2.46,3.67
26.69,-3.44,-7.09,-3.44,-7.09,6.00,5.70,5.47,2.56,2.56,3.65
26.96,-3.35,-6.99,-3.35,-6.99,6.00,5.73,5.59,2.65,2.65,3.64
27.23,-3.27,-6.90,-3.27,-6.89,6.00,5.75,5.70,2.73,2.73,3.63
27.50,-3.19,-6.80,-3.18,-6.80,6.00,5.77,5.81,2.81,2.82,3.61
27.77,-3.10,-6.69,-3.10,-6.70,6.00,5.79,5.92,2.91,2.90,3.59
28.05,-3.01,-6.59,-3.01,-6.59,6.01,5.81,6.02,3.00,3.00,3.58
28.33,-2.93,-6.49,-2.92,-6.49,6.02,5.82,6.11,3.09,3.10,3.56
28.62,-2.83,-6.38,-2.83,-6.38,6.02,5.82,6.20,3.19,3.19,3.55
28.90,-2.74,-6.28,-2.74,-6.27,6.01,5.82,6.28,3.27,3.27,3.54
29.19,-2.64,-6.15,-2.64,-6.16,5.98,5.82,6.35,3.34,3.35,3.52
29.48,-2.53,-6.04,-2.53,-6.04,5.94,5.80,6.41,3.41,3.41,3.51
29.78,-2.43,-5.93,-2.43,-5.93,5.88,5.79,6.46,3.45,3.45,3.50
30.08,-2.33,-5.82,-2.33,-5.82,5.81,5.76,6.49,3.48,3.48,3.49
30.38,-2.24,-5.71,-2.24,-5.71,5.72,5.72,6.52,3.48,3.49,3.47
30.68,-2.14,-5.60,-2.14,-5.60,5.62,5.68,6.53,3.48,3.48,3.46
30.99,-2.05,-5.48,-2.05,-5.49,5.51,5.63,6.53,3.46,3.46,3.43
31.30,-1.97,-5.39,-1.97,-5.39,5.40,5.57,6.52,3.43,3.44,3.42
31.61,-1.88,-5.29,-1.89,-5.29,5.29,5.51,6.49,3.41,3.41,3.41
31.93,-1.81,-5.20,-1.81,-5.19,5.19,5.43,6.45,3.38,3.38,3.39
32.24,-1.73,-5.08,-1.73,-5.09,5.09,5.36,6.40,3.36,3.36,3.35
32.57,-1.65,-4.99,-1.65,-4.99,4.99,5.27,6.33,3.34,3.34,3.34
32.89,-1.57,-4.90,-1.57,-4.89,4.89,5.17,6.26,3.32,3.32,3.33
33.22,-1.48,-4.78,-1.48,-4.79,4.78,5.07,6.16,3.30,3.30,3.30
33.55,-1.40,-4.68,-1.40,-4.68,4.68,4.97,6.07,3.28,3.28,3.28
33.89,-1.32,-4.58,-1.31,-4.57,4.58,4.85,5.95,3.26,3.26,3.26
34.23,-1.23,-4.47,-1.23,-4.47,4.47,4.74,5.84,3.24,3.24,3.24
34.57,-1.15,-4.36,-1.15,-4.37,4.37,4.61,5.71,3.22,3.22,3.21
34.92,-1.07,-4.26,-1.07,-4.26,4.27,4.49,5.58,3.20,3.20,3.19
35.27,-0.99,-4.17,-0.99,-4.16,4.17,4.36,5.43,3.18,3.18,3.18
35.62,-0.91,-4.06,-0.91,-4.06,4.06,4.23,5.29,3.15,3.15,3.16
35.97,-0.83,-3.96,-0.83,-3.97,3.96,4.09,5.14,3.13,3.13,3.13
36.33,-0.75,-3.87,-0.75,-3.86,3.86,3.95,4.98,3.11,3.11,3.12
36.70,-0.67,-3.76,-0.67,-3.76,3.76,3.81,4.82,3.09,3.09,3.09
37.06,-0.58,-3.65,-0.58,-3.66,3.65,3.67,4.66,3.08,3.07,3.07
37.43,-0.50,-3.55,-0.50,-3.55,3.55,3.53,4.50,3.05,3.05,3.06
37.81,-0.42,-3.45,-0.41,-3.44,3.44,3.39,4.33,3.02,3.03,3.03
38.19,-0.32,-3.33,-0.33,-3.34,3.34,3.25,4.17,3.02,3.01,3.01
38.57,-0.24,-3.23,-0.24,-3.23,3.23,3.10,4.00,2.99,2.99,2.99
38.95,-0.15,-3.11,-0.15,-3.12,3.12,2.96,3.83,2.97,2.97,2.97
39.34,-0.07,-3.01,-0.07,-3.01,3.01,2.82,3.67,2.94,2.95,2.94
39.74,0.02,-2.90,0.02,-2.90,2.90,2.68,3.50,2.92,2.92,2.92
40.14,0.11,-2.80,0.11,-2.80,2.79,2.53,3.34,2.90,2.90,2.91
40.54,0.19,-2.70,0.20,-2.69,2.68,2.40,3.17,2.87,2.88,2.89
40.94,0.30,-2.57,0.29,-2.57,2.57,2.26,3.01,2.87,2.87,2.87
41.35,0.39,-2.45,0.39,-2.46,2.46,2.12,2.85,2.85,2.85,2.84
41.76,0.49,-2.35,0.49,-2.34,2.35,1.98,2.68,2.84,2.84,2.84
42.18,0.59,-2.23,0.59,-2.23,2.23,1.85,2.53,2.82,2.82,2.82
42.60,0.68,-2.11,0.68,-2.12,2.11,1.72,2.37,2.80,2.80,2.79
43.03,0.78,-2.01,0.78,-2.00,2.00,1.59,2.21,2.78,2.78,2.79
43.46,0.88,-1.88,0.88,-1.88,1.88,1.46,2.05,2.76,2.76,2.76
43.90,0.98,-1.75,0.98,-1.76,1.76,1.33,1.90,2.74,2.74,2.73
44.33,1.08,-1.63,1.08,-1.64,1.64,1.20,1.75,2.72,2.72,2.71
44.78,1.17,-1.53,1.18,-1.52,1.52,1.08,1.59,2.69,2.69,2.70
45.23,1.28,-1.39,1.27,-1.40,1.40,0.96,1.44,2.68,2.67,2.67
45.68,1.37,-1.28,1.38,-1.27,1.28,0.84,1.29,2.65,2.66,2.65
46.13,1.48,-1.15,1.48,-1.16,1.16,0.72,1.15,2.64,2.64,2.63
46.60,1.58,-1.04,1.58,-1.04,1.04,0.60,1.00,2.62,2.62,2.62
47.06,1.67,-0.93,1.68,-0.93,0.93,0.49,0.86,2.60,2.60,2.60
47.53,1.77,-0.81,1.77,-0.81,0.81,0.37,0.71,2.58,2.58,2.58
48.01,1.87,-0.70,1.87,-0.70,0.69,0.26,0.57,2.56,2.56,2.57
48.49,1.97,-0.57,1.97,-0.57,0.57,0.15,0.43,2.54,2.54,2.54
48.97,2.06,-0.45,2.06,-0.45,0.45,0.05,0.29,2.51,2.51,2.51
49.46,2.16,-0.32,2.16,-0.32,0.33,-0.06,0.15,2.49,2.49,2.48
49.96,2.25,-0.20,2.25,-0.20,0.21,-0.16,0.01,2.46,2.46,2.45
50.46,2.35,-0.09,2.35,-0.09,0.09,-0.27,-0.12,2.44,2.44,2.44
50.96,2.44,0.02,2.44,0.03,-0.02,-0.37,-0.26,2.42,2.42,2.42
51.47,2.53,0.14,2.53,0.14,-0.14,-0.47,-0.39,2.39,2.39,2.39
51.99,2.62,0.25,2.62,0.25,-0.25,-0.57,-0.52,2.37,2.37,2.37
52.51,2.70,0.35,2.70,0.36,-0.36,-0.66,-0.65,2.34,2.34,2.35
53.03,2.79,0.46,2.79,0.47,-0.47,-0.76,-0.78,2.32,2.32,2.33
53.56,2.88,0.58,2.88,0.58,-0.58,-0.85,-0.90,2.30,2.30,2.30
54.10,2.98,0.70,2.97,0.69,-0.69,-0.94,-1.02,2.29,2.28,2.28
54.64,3.05,0.80,3.06,0.81,-0.81,-1.03,-1.14,2.25,2.25,2.25
55.18,3.14,0.92,3.14,0.92,-0.92,-1.12,-1.26,2.23,2.23,2.22
55.74,3.23,1.03,3.23,1.03,-1.03,-1.21,-1.38,2.20,2.20,2.20
56.29,3.31,1.13,3.31,1.14,-1.13,-1.30,-1.49,2.18,2.18,2.18
56.86,3.39,1.24,3.39,1.24,-1.24,-1.38,-1.60,2.15,2.15,2.15
57.42,3.47,1.35,3.47,1.34,-1.34,-1.47,-1.70,2.13,2.13,2.12
58.00,3.55,1.45,3.55,1.45,-1.44,-1.55,-1.80,2.11,2.10,2.10
58.58,3.62,1.55,3.62,1.55,-1.54,-1.63,-1.90,2.08,2.08,2.07
59.16,3.70,1.65,3.70,1.65,-1.64,-1.71,-2.00,2.06,2.05,2.05
59.76,3.77,1.74,3.77,1.74,-1.74,-1.79,-2.09,2.03,2.03,2.03
60.35,3.84,1.84,3.84,1.83,-1.84,-1.87,-2.17,2.00,2.00,2.00
60.96,3.91,1.92,3.91,1.93,-1.94,-1.95,-2.26,1.97,1.97,1.99
61.57,3.98,2.04,3.98,2.03,-2.04,-2.03,-2.33,1.94,1.94,1.94
62.18,4.05,2.14,4.05,2.14,-2.13,-2.10,-2.41,1.92,1.92,1.91
62.80,4.12,2.23,4.12,2.24,-2.23,-2.18,-2.48,1.89,1.89,1.89
63.43,4.18,2.33,4.18,2.33,-2.32,-2.25,-2.54,1.86,1.86,1.85
64.07,4.23,2.41,4.24,2.41,-2.41,-2.32,-2.61,1.82,1.83,1.83
64.71,4.30,2.49,4.29,2.49,-2.49,-2.40,-2.66,1.81,1.80,1.81
65.35,4.35,2.57,4.35,2.57,-2.57,-2.47,-2.72,1.78,1.78,1.78
66.01,4.41,2.65,4.41,2.65,-2.65,-2.54,-2.77,1.76,1.76,1.76
66.67,4.47,2.74,4.47,2.73,-2.73,-2.61,-2.82,1.74,1.73,1.73
67.33,4.52,2.81,4.52,2.81,-2.81,-2.68,-2.86,1.72,1.71,1.71
68.01,4.56,2.88,4.57,2.88,-2.88,-2.75,-2.90,1.68,1.69,1.68
68.69,4.62,2.96,4.61,2.95,-2.95,-2.82,-2.94,1.67,1.66,1.66
69.37,4.66,3.03,4.66,3.03,-3.03,-2.88,-2.98,1.63,1.63,1.63
70.07,4.70,3.09,4.71,3.10,-3.10,-2.95,-3.02,1.60,1.61,1.61
70.77,4.75,3.17,4.75,3.17,-3.17,-3.02,-3.05,1.58,1.58,1.58
71.48,4.79,3.24,4.79,3.23,-3.24,-3.08,-3.08,1.56,1.55,1.55
72.19,4.82,3.30,4.83,3.30,-3.30,-3.15,-3.12,1.52,1.52,1.52
72.91,4.86,3.37,4.86,3.37,-3.37,-3.21,-3.15,1.49,1.49,1.49
73.64,4.89,3.44,4.89,3.44,-3.44,-3.27,-3.18,1.45,1.45,1.45
74.38,4.92,3.50,4.93,3.51,-3.51,-3.34,-3.21,1.41,1.42,1.42
75.12,4.96,3.59,4.96,3.58,-3.57,-3.40,-3.25,1.39,1.38,1.38
75.87,4.99,3.64,4.99,3.64,-3.64,-3.46,-3.28,1.35,1.35,1.35
76.63,5.02,3.70,5.02,3.71,-3.71,-3.52,-3.31,1.31,1.31,1.32
77.40,5.04,3.77,5.05,3.77,-3.77,-3.59,-3.35,1.27,1.27,1.28
78.17,5.07,3.85,5.07,3.84,-3.84,-3.65,-3.39,1.23,1.24,1.22
78.95,5.10,3.90,5.10,3.90,-3.90,-3.71,-3.43,1.20,1.19,1.20
79.74,5.12,3.96,5.12,3.96,-3.96,-3.77,-3.47,1.16,1.15,1.16
80.54,5.13,4.02,5.14,4.03,-4.03,-3.83,-3.51,1.10,1.11,1.11
81.35,5.16,4.09,5.16,4.09,-4.09,-3.89,-3.56,1.07,1.07,1.07
82.16,5.18,4.16,5.18,4.15,-4.15,-3.94,-3.61,1.03,1.03,1.02
82.98,5.19,4.20,5.19,4.21,-4.21,-4.00,-3.66,0.98,0.98,0.99
83.81,5.20,4.27,5.20,4.27,-4.27,-4.06,-3.71,0.93,0.93,0.93
84.65,5.21,4.33,5.21,4.33,-4.32,-4.12,-3.77,0.89,0.89,0.88
85.50,5.22,4.38,5.22,4.38,-4.38,-4.17,-3.83,0.84,0.84,0.84
86.35,5.23,4.44,5.23,4.44,-4.44,-4.23,-3.89,0.79,0.79,0.79
87.22,5.23,4.49,5.23,4.49,-4.49,-4.29,-3.96,0.74,0.74,0.74
88.09,5.24,4.55,5.24,4.54,-4.54,-4.34,-4.02,0.70,0.69,0.69
88.97,5.24,4.59,5.24,4.60,-4.60,-4.40,-4.10,0.64,0.65,0.65
89.86,5.25,4.65,5.25,4.65,-4.65,-4.45,-4.17,0.60,0.60,0.60
90.76,5.25,4.71,5.25,4.71,-4.70,-4.51,-4.25,0.55,0.55,0.54
91.66,5.25,4.75,5.25,4.76,-4.75,-4.56,-4.33,0.50,0.50,0.50
92.58,5.25,4.82,5.25,4.81,-4.80,-4.61,-4.41,0.45,0.44,0.43
93.51,5.24,4.84,5.25,4.85,-4.86,-4.66,-4.50,0.39,0.39,0.40
94.44,5.25,4.91,5.25,4.90,-4.91,-4.72,-4.59,0.34,0.34,0.35
95.39,5.24,4.95,5.24,4.95,-4.96,-4.77,-4.68,0.28,0.28,0.29
96.34,5.24,5.01,5.24,5.01,-5.01,-4.82,-4.78,0.23,0.23,0.23
97.30,5.23,5.06,5.23,5.06,-5.06,-4.87,-4.88,0.17,0.17,0.17
98.28,5.23,5.11,5.23,5.12,-5.11,-4.92,-4.98,0.12,0.11,0.12
99.26,5.22,5.17,5.22,5.17,-5.17,-4.97,-5.08,0.05,0.05,0.05
100.25,5.21,5.22,5.22,5.22,-5.22,-5.02,-5.19,-0.01,-0.01,-0.01
101.25,5.21,5.27,5.21,5.27,-5.27,-5.07,-5.29,-0.06,-0.06,-0.06
102.27,5.20,5.33,5.20,5.33,-5.32,-5.11,-5.40,-0.12,-0.12,-0.13
103.29,5.19,5.38,5.19,5.38,-5.37,-5.16,-5.51,-0.18,-0.18,-0.19
104.32,5.17,5.42,5.17,5.42,-5.42,-5.21,-5.62,-0.25,-0.25,-0.25
105.37,5.16,5.47,5.16,5.47,-5.47,-5.25,-5.73,-0.31,-0.32,-0.31
106.42,5.14,5.51,5.14,5.52,-5.52,-5.30,-5.84,-0.38,-0.38,-0.37
107.48,5.13,5.57,5.13,5.57,-5.57,-5.34,-5.95,-0.44,-0.44,-0.44
108.56,5.12,5.63,5.12,5.63,-5.62,-5.39,-6.06,-0.50,-0.50,-0.51
109.64,5.11,5.68,5.11,5.68,-5.68,-5.43,-6.17,-0.56,-0.56,-0.57
110.74,5.10,5.73,5.10,5.73,-5.73,-5.47,-6.27,-0.63,-0.63,-0.63
111.85,5.08,5.77,5.08,5.78,-5.78,-5.52,-6.38,-0.70,-0.70,-0.69
112.97,5.06,5.84,5.07,5.83,-5.84,-5.56,-6.47,-0.78,-0.77,-0.78
114.10,5.05,5.88,5.05,5.89,-5.89,-5.60,-6.57,-0.84,-0.84,-0.83
115.24,5.04,5.94,5.04,5.94,-5.94,-5.64,-6.65,-0.90,-0.90,-0.90
116.39,5.02,5.99,5.02,5.99,-5.99,-5.68,-6.73,-0.97,-0.97,-0.97
117.55,5.00,6.04,5.01,6.04,-6.04,-5.71,-6.81,-1.04,-1.03,-1.04
118.73,4.99,6.09,4.99,6.09,-6.08,-5.75,-6.88,-1.09,-1.10,-1.10
119.92,4.97,6.13,4.97,6.13,-6.13,-5.79,-6.94,-1.16,-1.16,-1.15
121.12,4.95,6.17,4.95,6.17,-6.17,-5.82,-6.99,-1.22,-1.22,-1.22
122.33,4.93,6.21,4.93,6.21,-6.21,-5.86,-7.03,-1.28,-1.28,-1.28
123.55,4.91,6.24,4.91,6.24,-6.25,-5.89,-7.07,-1.34,-1.34,-1.33
124.79,4.89,6.28,4.89,6.28,-6.29,-5.92,-7.09,-1.39,-1.39,-1.39
126.03,4.87,6.31,4.87,6.32,-6.32,-5.95,-7.12,-1.45,-1.45,-1.44
127.29,4.85,6.35,4.85,6.36,-6.36,-5.99,-7.12,-1.51,-1.51,-1.50
128.57,4.83,6.40,4.83,6.39,-6.40,-6.02,-7.12,-1.56,-1.56,-1.57
129.85,4.81,6.43,4.81,6.43,-6.43,-6.04,-7.11,-1.62,-1.62,-1.62
131.15,4.79,6.46,4.79,6.46,-6.46,-6.07,-7.10,-1.67,-1.67,-1.67
132.46,4.77,6.50,4.77,6.49,-6.49,-6.10,-7.07,-1.72,-1.72,-1.73
133.79,4.75,6.51,4.75,6.52,-6.51,-6.13,-7.04,-1.76,-1.77,-1.76
135.12,4.72,6.54,4.72,6.54,-6.54,-6.15,-7.00,-1.82,-1.81,-1.82
136.48,4.70,6.55,4.70,6.55,-6.56,-6.18,-6.96,-1.86,-1.86,-1.85
137.84,4.67,6.56,4.67,6.57,-6.57,-6.20,-6.91,-1.90,-1.90,-1.89
139.22,4.65,6.59,4.65,6.59,-6.59,-6.22,-6.86,-1.94,-1.94,-1.94
140.61,4.63,6.62,4.63,6.60,-6.60,-6.24,-6.80,-1.97,-1.97,-1.98
142.02,4.61,6.61,4.61,6.61,-6.61,-6.27,-6.75,-2.00,-2.00,-2.00
143.44,4.58,6.61,4.59,6.62,-6.62,-6.28,-6.68,-2.04,-2.03,-2.03
144.87,4.56,6.63,4.56,6.62,-6.63,-6.30,-6.62,-2.06,-2.06,-2.07
146.32,4.54,6.64,4.54,6.63,-6.63,-6.32,-6.56,-2.09,-2.09,-2.10
147.78,4.51,6.63,4.51,6.63,-6.64,-6.34,-6.49,-2.13,-2.12,-2.12
149.26,4.49,6.64,4.49,6.64,-6.64,-6.35,-6.43,-2.15,-2.15,-2.14
150.75,4.46,6.64,4.46,6.64,-6.64,-6.37,-6.36,-2.18,-2.18,-2.18
152.26,4.44,6.65,4.44,6.65,-6.64,-6.38,-6.30,-2.20,-2.20,-2.21
153.78,4.42,6.65,4.42,6.65,-6.65,-6.40,-6.24,-2.23,-2.23,-2.23
155.32,4.39,6.65,4.39,6.65,-6.65,-6.41,-6.18,-2.26,-2.26,-2.26
156.88,4.36,6.64,4.36,6.65,-6.65,-6.42,-6.13,-2.29,-2.29,-2.28
158.44,4.33,6.65,4.33,6.65,-6.65,-6.43,-6.07,-2.32,-2.32,-2.32
160.03,4.31,6.66,4.31,6.65,-6.65,-6.44,-6.02,-2.34,-2.35,-2.35
161.63,4.28,6.66,4.28,6.66,-6.65,-6.45,-5.98,-2.37,-2.37,-2.38
163.24,4.25,6.65,4.26,6.65,-6.65,-6.45,-5.93,-2.40,-2.40,-2.40
164.88,4.23,6.65,4.23,6.65,-6.65,-6.46,-5.89,-2.42,-2.42,-2.42
166.53,4.20,6.65,4.20,6.65,-6.65,-6.46,-5.86,-2.45,-2.45,-2.45
168.19,4.17,6.66,4.17,6.66,-6.65,-6.47,-5.83,-2.48,-2.48,-2.49
169.87,4.14,6.66,4.14,6.65,-6.65,-6.47,-5.80,-2.51,-2.51,-2.51
171.57,4.11,6.65,4.11,6.65,-6.65,-6.47,-5.78,-2.54,-2.54,-2.54
173.29,4.07,6.64,4.08,6.65,-6.65,-6.47,-5.76,-2.58,-2.58,-2.57
175.02,4.05,6.65,4.05,6.65,-6.65,-6.47,-5.74,-2.60,-2.61,-2.60
176.77,4.01,6.66,4.01,6.66,-6.65,-6.47,-5.73,-2.64,-2.64,-2.65
178.54,3.98,6.66,3.98,6.66,-6.66,-6.47,-5.73,-2.67,-2.68,-2.68
180.32,3.94,6.66,3.94,6.66,-6.66,-6.47,-5.72,-2.72,-2.72,-2.72
182.13,3.90,6.65,3.90,6.65,-6.66,-6.46,-5.73,-2.76,-2.75,-2.75
183.95,3.86,6.65,3.87,6.65,-6.65,-6.46,-5.74,-2.79,-2.79,-2.79
185.79,3.83,6.65,3.83,6.65,-6.65,-6.45,-5.75,-2.82,-2.82,-2.82
187.65,3.79,6.65,3.79,6.65,-6.64,-6.45,-5.76,-2.85,-2.86,-2.86
189.52,3.74,6.63,3.75,6.64,-6.64,-6.44,-5.78,-2.89,-2.89,-2.89
191.42,3.71,6.63,3.71,6.63,-6.63,-6.43,-5.81,-2.91,-2.92,-2.92
193.33,3.67,6.61,3.67,6.61,-6.61,-6.42,-5.83,-2.94,-2.95,-2.94
195.27,3.62,6.59,3.62,6.59,-6.60,-6.40,-5.86,-2.98,-2.97,-2.97
197.22,3.57,6.57,3.58,6.58,-6.58,-6.39,-5.90,-3.01,-3.00,-3.00
199.19,3.53,6.57,3.53,6.56,-6.56,-6.38,-5.94,-3.02,-3.03,-3.04
201.18,3.48,6.54,3.48,6.54,-6.53,-6.36,-5.98,-3.05,-3.06,-3.06
203.19,3.42,6.50,3.43,6.51,-6.51,-6.34,-6.02,-3.09,-3.08,-3.08
205.23,3.37,6.47,3.37,6.47,-6.48,-6.32,-6.06,-3.11,-3.10,-3.10
207.28,3.33,6.44,3.32,6.44,-6.45,-6.30,-6.11,-3.12,-3.12,-3.11
209.35,3.27,6.41,3.27,6.41,-6.41,-6.28,-6.16,-3.14,-3.14,-3.14
211.44,3.22,6.39,3.22,6.38,-6.37,-6.26,-6.21,-3.15,-3.15,-3.17
213.56,3.16,6.34,3.16,6.34,-6.33,-6.23,-6.26,-3.17,-3.17,-3.18
215.69,3.10,6.28,3.10,6.29,-6.29,-6.20,-6.31,-3.19,-3.19,-3.18
217.85,3.04,6.24,3.04,6.24,-6.25,-6.17,-6.36,-3.21,-3.21,-3.19
220.03,2.98,6.20,2.98,6.19,-6.20,-6.13,-6.40,-3.22,-3.22,-3.22
222.23,2.92,6.15,2.92,6.14,-6.14,-6.09,-6.45,-3.22,-3.22,-3.23
224.45,2.86,6.08,2.86,6.09,-6.08,-6.05,-6.49,-3.22,-3.22,-3.22
226.70,2.79,6.02,2.79,6.02,-6.02,-6.00,-6.54,-3.23,-3.22,-3.23
228.96,2.72,5.95,2.72,5.95,-5.95,-5.95,-6.57,-3.23,-3.23,-3.23
231.25,2.64,5.86,2.64,5.87,-5.87,-5.89,-6.61,-3.23,-3.23,-3.22
233.57,2.56,5.77,2.56,5.78,-5.79,-5.83,-6.64,-3.22,-3.22,-3.21
235.90,2.48,5.69,2.48,5.69,-5.70,-5.76,-6.66,-3.22,-3.22,-3.21
238.26,2.40,5.61,2.40,5.60,-5.60,-5.68,-6.68,-3.20,-3.20,-3.21
240.64,2.30,5.49,2.30,5.50,-5.50,-5.59,-6.69,-3.19,-3.19,-3.19
243.05,2.21,5.39,2.21,5.38,-5.38,-5.49,-6.70,-3.17,-3.18,-3.18
245.48,2.10,5.26,2.11,5.27,-5.26,-5.37,-6.69,-3.16,-3.16,-3.16
247.93,2.00,5.15,2.00,5.15,-5.14,-5.25,-6.68,-3.13,-3.13,-3.15
250.41,1.89,5.02,1.89,5.01,-5.00,-5.11,-6.67,-3.11,-3.11,-3.13
252.92,1.77,4.87,1.77,4.87,-4.86,-4.96,-6.64,-3.09,-3.09,-3.10
255.45,1.64,4.72,1.64,4.73,-4.71,-4.81,-6.61,-3.07,-3.07,-3.08
258.00,1.52,4.58,1.52,4.58,-4.57,-4.66,-6.58,-3.04,-3.04,-3.06
260.58,1.41,4.45,1.41,4.44,-4.43,-4.53,-6.53,-3.02,-3.02,-3.04
263.19,1.30,4.32,1.30,4.32,-4.31,-4.42,-6.48,-3.01,-3.01,-3.02
265.82,1.22,4.22,1.22,4.22,-4.22,-4.36,-6.42,-3.00,-3.00,-3.00
268.48,1.17,4.14,1.18,4.15,-4.17,-4.34,-6.36,-3.00,-2.99,-2.97
271.16,1.19,4.13,1.18,4.13,-4.16,-4.39,-6.29,-2.97,-2.98,-2.94
273.87,1.24,4.16,1.25,4.17,-4.22,-4.48,-6.22,-2.98,-2.97,-2.92
276.61,1.37,4.26,1.38,4.28,-4.33,-4.62,-6.14,-2.96,-2.95,-2.89
279.38,1.58,4.46,1.57,4.45,-4.50,-4.78,-6.06,-2.92,-2.92,-2.87
282.17,1.83,4.68,1.83,4.68,-4.72,-4.97,-5.97,-2.89,-2.89,-2.85
284.99,2.12,4.95,2.13,4.96,-4.98,-5.16,-5.89,-2.86,-2.85,-2.82
287.84,2.47,5.27,2.47,5.27,-5.27,-5.35,-5.80,-2.80,-2.81,-2.80
290.72,2.82,5.58,2.82,5.59,-5.58,-5.55,-5.71,-2.75,-2.76,-2.76
293.63,3.16,5.91,3.16,5.90,-5.87,-5.74,-5.62,-2.71,-2.71,-2.75
296.57,3.46,6.17,3.46,6.18,-6.13,-5.92,-5.52,-2.67,-2.67,-2.71
299.53,3.72,6.41,3.72,6.41,-6.36,-6.10,-5.43,-2.64,-2.64,-2.69
302.53,3.94,6.60,3.93,6.58,-6.54,-6.26,-5.34,-2.60,-2.61,-2.66
305.55,4.08,6.69,4.08,6.70,-6.66,-6.40,-5.25,-2.58,-2.58,-2.61
308.61,4.17,6.76,4.18,6.76,-6.73,-6.51,-5.16,-2.56,-2.56,-2.59
311.69,4.22,6.77,4.22,6.77,-6.75,-6.57,-5.08,-2.53,-2.54,-2.55
314.81,4.22,6.74,4.22,6.73,-6.73,-6.59,-4.99,-2.51,-2.51,-2.51
317.96,4.17,6.66,4.18,6.66,-6.67,-6.55,-4.91,-2.50,-2.49,-2.49
321.14,4.11,6.57,4.11,6.57,-6.58,-6.48,-4.83,-2.47,-2.47,-2.46
324.35,4.02,6.45,4.02,6.45,-6.47,-6.36,-4.75,-2.45,-2.44,-2.43
327.59,3.93,6.33,3.93,6.33,-6.35,-6.24,-4.67,-2.42,-2.42,-2.40
330.87,3.83,6.20,3.83,6.20,-6.22,-6.09,-4.60,-2.39,-2.39,-2.37
334.18,3.72,6.07,3.73,6.08,-6.09,-5.96,-4.53,-2.36,-2.36,-2.35
337.52,3.63,5.96,3.63,5.95,-5.95,-5.82,-4.46,-2.32,-2.33,-2.33
340.90,3.52,5.82,3.52,5.82,-5.83,-5.69,-4.40,-2.30,-2.30,-2.30
344.30,3.42,5.70,3.42,5.69,-5.70,-5.57,-4.34,-2.28,-2.28,-2.28
347.75,3.31,5.56,3.32,5.57,-5.58,-5.46,-4.28,-2.27,-2.26,-2.25
351.23,3.22,5.46,3.22,5.45,-5.46,-5.36,-4.22,-2.24,-2.24,-2.23
354.74,3.13,5.35,3.13,5.34,-5.34,-5.27,-4.17,-2.21,-2.22,-2.22
358.28,3.03,5.23,3.04,5.24,-5.23,-5.18,-4.12,-2.20,-2.20,-2.20
361.87,2.95,5.13,2.95,5.13,-5.13,-5.10,-4.08,-2.18,-2.18,-2.18
365.49,2.86,5.01,2.86,5.02,-5.02,-5.03,-4.04,-2.16,-2.16,-2.15
369.14,2.77,4.92,2.78,4.92,-4.92,-4.96,-4.00,-2.15,-2.14,-2.14
372.83,2.69,4.82,2.69,4.82,-4.82,-4.89,-3.96,-2.12,-2.12,-2.13
376.56,2.62,4.73,2.61,4.72,-4.71,-4.82,-3.93,-2.09,-2.10,-2.11
380.33,2.53,4.61,2.53,4.62,-4.61,-4.76,-3.90,-2.08,-2.08,-2.08
384.13,2.45,4.51,2.45,4.51,-4.51,-4.70,-3.87,-2.06,-2.06,-2.06
387.97,2.37,4.41,2.37,4.41,-4.41,-4.64,-3.85,-2.04,-2.05,-2.04
391.85,2.29,4.32,2.29,4.32,-4.32,-4.58,-3.83,-2.03,-2.02,-2.02
395.77,2.22,4.22,2.22,4.22,-4.22,-4.53,-3.81,-2.00,-2.00,-2.00
399.73,2.15,4.13,2.15,4.13,-4.13,-4.47,-3.79,-1.98,-1.98,-1.98
403.72,2.08,4.04,2.08,4.04,-4.04,-4.41,-3.77,-1.96,-1.96,-1.96
407.76,2.01,3.95,2.01,3.95,-3.95,-4.36,-3.76,-1.94,-1.94,-1.94
411.84,1.94,3.85,1.95,3.86,-3.86,-4.31,-3.75,-1.92,-1.92,-1.91
415.96,1.89,3.78,1.89,3.78,-3.78,-4.25,-3.74,-1.89,-1.89,-1.89
420.12,1.83,3.70,1.83,3.70,-3.70,-4.20,-3.73,-1.87,-1.87,-1.87
424.32,1.78,3.63,1.78,3.63,-3.62,-4.15,-3.72,-1.84,-1.84,-1.85
428.56,1.72,3.55,1.72,3.55,-3.55,-4.09,-3.71,-1.83,-1.82,-1.83
432.85,1.67,3.48,1.67,3.48,-3.48,-4.04,-3.71,-1.81,-1.80,-1.81
437.18,1.63,3.41,1.63,3.41,-3.41,-3.99,-3.70,-1.78,-1.78,-1.78
441.55,1.59,3.34,1.59,3.34,-3.35,-3.94,-3.69,-1.76,-1.76,-1.75
445.96,1.55,3.28,1.56,3.29,-3.29,-3.88,-3.68,-1.74,-1.73,-1.73
450.42,1.53,3.24,1.53,3.23,-3.23,-3.83,-3.67,-1.70,-1.71,-1.71
454.93,1.51,3.18,1.51,3.19,-3.19,-3.78,-3.66,-1.67,-1.68,-1.67
459.48,1.49,3.14,1.49,3.14,-3.14,-3.73,-3.65,-1.65,-1.65,-1.65
464.07,1.48,3.10,1.48,3.10,-3.10,-3.67,-3.64,-1.62,-1.62,-1.62
468.71,1.47,3.06,1.47,3.07,-3.06,-3.62,-3.62,-1.59,-1.59,-1.58
473.40,1.47,3.04,1.47,3.03,-3.03,-3.57,-3.60,-1.56,-1.56,-1.57
478.13,1.47,3.01,1.47,3.00,-3.00,-3.51,-3.58,-1.53,-1.54,-1.54
482.91,1.46,2.97,1.47,2.97,-2.98,-3.46,-3.56,-1.52,-1.51,-1.51
487.74,1.47,2.95,1.48,2.95,-2.96,-3.41,-3.53,-1.49,-1.48,-1.48
492.62,1.49,2.94,1.48,2.93,-2.94,-3.36,-3.51,-1.45,-1.45,-1.45
497.55,1.50,2.93,1.50,2.92,-2.92,-3.30,-3.47,-1.42,-1.42,-1.43
502.52,1.50,2.89,1.51,2.90,-2.90,-3.25,-3.44,-1.40,-1.40,-1.39
