frequency,raw,error,smoothed,error_smoothed,equalization,parametric_eq,fixed_band_eq,equalized_raw,equalized_smoothed,target
20.00,5.90,-5.00,5.91,-4.99,5.06,4.37,1.21,10.96,10.97,10.90
20.20,5.96,-4.92,5.95,-4.93,4.95,4.33,1.25,10.91,10.90,10.88
20.40,6.02,-4.84,6.01,-4.85,4.84,4.28,1.29,10.86,10.85,10.86
20.61,6.08,-4.77,6.07,-4.77,4.73,4.24,1.33,10.81,10.80,10.85
20.81,6.14,-4.69,6.14,-4.69,4.63,4.20,1.37,10.77,10.76,10.83
21.02,6.20,-4.62,6.22,-4.59,4.53,4.15,1.41,10.72,10.75,10.82
21.23,6.33,-4.47,6.32,-4.48,4.43,4.11,1.45,10.76,10.75,10.80
21.44,6.45,-4.34,6.45,-4.34,4.33,4.06,1.50,10.78,10.78,10.79
21.66,6.57,-4.21,6.58,-4.19,4.22,4.02,1.54,10.78,10.80,10.78
21.87,6.70,-4.05,6.69,-4.07,4.11,3.98,1.59,10.81,10.80,10.75
22.09,6.78,-3.97,6.77,-3.98,4.02,3.93,1.64,10.79,10.78,10.74
22.31,6.82,-3.91,6.82,-3.91,3.93,3.89,1.69,10.75,10.76,10.73
22.54,6.85,-3.88,6.85,-3.87,3.87,3.84,1.74,10.72,10.72,10.72
22.76,6.88,-3.83,6.88,-3.83,3.82,3.79,1.79,10.70,10.70,10.71
22.99,6.92,-3.78,6.91,-3.79,3.78,3.75,1.85,10.70,10.70,10.70
23.22,6.94,-3.75,6.94,-3.75,3.76,3.70,1.90,10.69,10.70,10.69
23.45,6.96,-3.73,6.96,-3.73,3.73,3.66,1.96,10.69,10.69,10.69
23.69,6.98,-3.70,6.97,-3.71,3.71,3.61,2.02,10.69,10.68,10.68
23.92,6.99,-3.69,7.00,-3.68,3.68,3.57,2.07,10.67,10.68,10.68
24.16,7.03,-3.65,7.03,-3.65,3.64,3.52,2.13,10.67,10.67,10.68
24.40,7.08,-3.60,7.07,-3.61,3.60,3.47,2.19,10.68,10.66,10.68
24.65,7.12,-3.56,7.12,-3.56,3.54,3.43,2.25,10.65,10.65,10.68
24.89,7.17,-3.51,7.18,-3.50,3.46,3.38,2.31,10.63,10.64,10.68
25.14,7.26,-3.41,7.26,-3.41,3.38,3.33,2.38,10.64,10.64,10.67
25.39,7.37,-3.30,7.37,-3.30,3.29,3.29,2.44,10.66,10.66,10.67
25.65,7.49,-3.18,7.49,-3.19,3.20,3.24,2.50,10.68,10.69,10.67
25.91,7.61,-3.07,7.59,-3.08,3.11,3.19,2.56,10.71,10.70,10.68
26.16,7.68,-3.00,7.68,-3.00,3.03,3.15,2.62,10.70,10.70,10.68
26.43,7.74,-2.94,7.75,-2.93,2.96,3.10,2.68,10.70,10.71,10.68
26.69,7.79,-2.89,7.79,-2.88,2.91,3.05,2.74,10.70,10.71,10.68
26.96,7.84,-2.84,7.82,-2.85,2.88,3.00,2.80,10.72,10.71,10.68
27.23,7.84,-2.84,7.83,-2.84,2.86,2.96,2.86,10.70,10.69,10.67
27.50,7.82,-2.86,7.82,-2.85,2.84,2.91,2.91,10.66,10.66,10.67
27.77,7.81,-2.86,7.81,-2.86,2.82,2.86,2.96,10.63,10.63,10.67
28.05,7.81,-2.86,7.82,-2.84,2.80,2.81,3.01,10.61,10.62,10.67
28.33,7.87,-2.79,7.87,-2.80,2.77,2.77,3.05,10.64,10.63,10.66
28.62,7.93,-2.73,7.92,-2.74,2.73,2.72,3.10,10.66,10.65,10.66
28.90,7.99,-2.67,7.99,-2.67,2.68,2.67,3.13,10.67,10.67,10.66
29.19,8.04,-2.62,8.04,-2.61,2.63,2.62,3.17,10.66,10.67,10.65
29.48,8.10,-2.55,8.10,-2.56,2.57,2.57,3.19,10.67,10.66,10.65
29.78,8.15,-2.50,8.15,-2.50,2.51,2.53,3.22,10.66,10.66,10.65
30.08,8.20,-2.45,8.20,-2.45,2.45,2.48,3.23,10.65,10.65,10.65
30.38,8.24,-2.41,8.24,-2.40,2.41,2.43,3.25,10.65,10.65,10.65
30.68,8.28,-2.36,8.28,-2.36,2.37,2.38,3.25,10.65,10.65,10.64
30.99,8.32,-2.32,8.31,-2.32,2.33,2.34,3.26,10.65,10.64,10.63
31.30,8.34,-2.28,8.34,-2.28,2.30,2.29,3.25,10.63,10.63,10.62
31.61,8.37,-2.25,8.37,-2.25,2.26,2.24,3.24,10.62,10.62,10.62
31.93,8.39,-2.23,8.40,-2.22,2.21,2.19,3.22,10.59,10.60,10.62
32.24,8.44,-2.16,8.43,-2.17,2.15,2.15,3.20,10.59,10.58,10.60
32.57,8.49,-2.11,8.48,-2.12,2.08,2.10,3.17,10.57,10.56,10.60
32.89,8.54,-2.06,8.55,-2.04,2.01,2.05,3.14,10.55,10.56,10.60
33.22,8.64,-1.96,8.65,-1.95,1.93,2.00,3.10,10.57,10.58,10.60
33.55,8.76,-1.83,8.76,-1.84,1.87,1.96,3.05,10.63,10.62,10.59
33.89,8.87,-1.73,8.85,-1.75,1.80,1.91,3.00,10.67,10.65,10.60
34.23,8.91,-1.69,8.90,-1.69,1.75,1.86,2.95,10.66,10.65,10.60
34.57,8.92,-1.68,8.92,-1.68,1.70,1.81,2.89,10.62,10.63,10.59
34.92,8.92,-1.68,8.93,-1.67,1.67,1.77,2.83,10.59,10.60,10.60
35.27,8.94,-1.66,8.94,-1.66,1.64,1.72,2.77,10.58,10.58,10.60
35.62,8.96,-1.65,8.96,-1.64,1.61,1.67,2.70,10.57,10.57,10.60
35.97,8.99,-1.61,8.99,-1.61,1.58,1.62,2.63,10.57,10.57,10.60
36.33,9.03,-1.57,9.03,-1.57,1.55,1.58,2.56,10.58,10.58,10.60
36.70,9.08,-1.51,9.08,-1.52,1.51,1.53,2.48,10.58,10.58,10.59
37.06,9.13,-1.46,9.14,-1.45,1.46,1.48,2.41,10.59,10.60,10.59
37.43,9.20,-1.38,9.20,-1.37,1.41,1.44,2.33,10.60,10.61,10.57
37.81,9.27,-1.30,9.26,-1.31,1.34,1.39,2.25,10.61,10.60,10.57
38.19,9.30,-1.26,9.28,-1.28,1.27,1.34,2.17,10.57,10.55,10.56
38.57,9.29,-1.25,9.29,-1.25,1.21,1.30,2.09,10.50,10.50,10.54
38.95,9.28,-1.25,9.33,-1.20,1.15,1.25,2.02,10.43,10.48,10.53
39.34,9.40,-1.11,9.41,-1.10,1.11,1.21,1.94,10.51,10.52,10.51
39.74,9.53,-0.98,9.50,-1.00,1.07,1.16,1.86,10.59,10.57,10.51
40.14,9.59,-0.90,9.54,-0.95,1.03,1.11,1.78,10.61,10.56,10.49
40.54,9.51,-0.97,9.51,-0.97,0.98,1.07,1.70,10.49,10.50,10.48
40.94,9.43,-1.04,9.48,-0.99,0.94,1.02,1.62,10.37,10.43,10.47
41.35,9.49,-0.97,9.49,-0.97,0.90,0.98,1.55,10.39,10.39,10.46
41.76,9.57,-0.88,9.55,-0.90,0.86,0.93,1.47,10.43,10.42,10.45
42.18,9.64,-0.80,9.62,-0.82,0.83,0.88,1.39,10.47,10.45,10.44
42.60,9.67,-0.77,9.67,-0.76,0.79,0.84,1.32,10.45,10.46,10.44
43.03,9.71,-0.73,9.72,-0.72,0.73,0.79,1.24,10.44,10.45,10.44
43.46,9.77,-0.66,9.76,-0.67,0.67,0.75,1.17,10.44,10.43,10.43
43.90,9.82,-0.61,9.81,-0.61,0.61,0.70,1.10,10.42,10.42,10.43
44.33,9.86,-0.57,9.86,-0.56,0.55,0.66,1.03,10.41,10.41,10.42
44.78,9.91,-0.51,9.91,-0.51,0.51,0.61,0.96,10.42,10.41,10.42
45.23,9.95,-0.47,9.95,-0.46,0.48,0.57,0.89,10.42,10.43,10.42
45.68,10.00,-0.41,9.99,-0.41,0.45,0.52,0.82,10.45,10.44,10.41
46.13,10.03,-0.37,10.02,-0.38,0.42,0.48,0.75,10.45,10.44,10.40
46.60,10.03,-0.36,10.03,-0.36,0.38,0.43,0.68,10.41,10.42,10.39
47.06,10.03,-0.35,10.00,-0.38,0.34,0.39,0.62,10.37,10.34,10.38
47.53,9.99,-0.38,9.98,-0.39,0.30,0.34,0.55,10.29,10.28,10.37
48.01,9.95,-0.41,10.03,-0.32,0.26,0.30,0.49,10.21,10.30,10.36
48.49,10.13,-0.21,10.13,-0.22,0.23,0.25,0.42,10.36,10.36,10.34
48.97,10.30,-0.03,10.22,-0.11,0.19,0.21,0.36,10.49,10.41,10.33
49.46,10.27,-0.05,10.28,-0.04,0.14,0.16,0.30,10.41,10.42,10.32
49.96,10.23,-0.07,10.23,-0.07,0.08,0.12,0.24,10.30,10.30,10.30
50.46,10.19,-0.10,10.18,-0.11,0.01,0.07,0.18,10.20,10.19,10.28
50.96,10.15,-0.12,10.22,-0.05,-0.04,0.03,0.12,10.11,10.18,10.27
51.47,10.31,0.05,10.31,0.06,-0.08,-0.02,0.06,10.23,10.23,10.26
51.99,10.49,0.24,10.42,0.17,-0.11,-0.06,-0.00,10.37,10.31,10.24
52.51,10.48,0.25,10.48,0.25,-0.15,-0.11,-0.06,10.33,10.33,10.23
53.03,10.47,0.25,10.45,0.24,-0.19,-0.15,-0.12,10.28,10.26,10.22
53.56,10.40,0.20,10.41,0.21,-0.24,-0.20,-0.17,10.16,10.17,10.20
54.10,10.37,0.18,10.42,0.23,-0.29,-0.24,-0.23,10.08,10.13,10.19
54.64,10.47,0.30,10.45,0.28,-0.32,-0.29,-0.28,10.15,10.13,10.17
55.18,10.53,0.37,10.50,0.34,-0.35,-0.33,-0.34,10.17,10.14,10.15
55.74,10.53,0.39,10.54,0.40,-0.39,-0.38,-0.39,10.14,10.15,10.14
56.29,10.55,0.43,10.56,0.45,-0.43,-0.42,-0.44,10.12,10.13,10.12
56.86,10.60,0.50,10.60,0.50,-0.48,-0.47,-0.50,10.12,10.12,10.10
57.42,10.64,0.56,10.63,0.55,-0.53,-0.51,-0.55,10.11,10.10,10.08
58.00,10.67,0.60,10.65,0.58,-0.58,-0.56,-0.60,10.09,10.07,10.07
58.58,10.65,0.60,10.66,0.61,-0.62,-0.61,-0.65,10.03,10.04,10.05
59.16,10.65,0.62,10.67,0.64,-0.65,-0.65,-0.69,10.00,10.02,10.03
59.76,10.71,0.70,10.69,0.68,-0.68,-0.70,-0.74,10.03,10.02,10.01
60.35,10.73,0.74,10.72,0.73,-0.70,-0.75,-0.79,10.03,10.02,9.99
60.96,10.73,0.76,10.74,0.77,-0.73,-0.79,-0.83,10.00,10.00,9.97
61.57,10.73,0.78,10.72,0.78,-0.77,-0.84,-0.88,9.95,9.94,9.94
62.18,10.72,0.80,10.70,0.78,-0.83,-0.89,-0.92,9.89,9.88,9.92
62.80,10.68,0.79,10.71,0.82,-0.88,-0.94,-0.97,9.80,9.82,9.89
63.43,10.74,0.88,10.75,0.89,-0.94,-0.99,-1.01,9.80,9.81,9.86
64.07,10.84,1.00,10.84,1.01,-1.00,-1.03,-1.05,9.84,9.83,9.83
64.71,10.94,1.14,10.91,1.11,-1.06,-1.08,-1.09,9.88,9.85,9.80
65.35,10.97,1.20,10.95,1.18,-1.12,-1.13,-1.14,9.85,9.83,9.77
66.01,10.93,1.20,10.95,1.22,-1.17,-1.18,-1.18,9.76,9.78,9.73
66.67,10.93,1.22,10.94,1.24,-1.23,-1.23,-1.22,9.70,9.71,9.70
67.33,10.93,1.26,10.92,1.25,-1.28,-1.28,-1.26,9.65,9.64,9.66
68.01,10.93,1.29,10.91,1.28,-1.32,-1.33,-1.30,9.61,9.59,9.63
68.69,10.89,1.30,10.92,1.32,-1.36,-1.38,-1.34,9.53,9.56,9.59
69.37,10.93,1.37,10.95,1.39,-1.40,-1.43,-1.38,9.53,9.55,9.56
70.07,11.02,1.50,10.99,1.47,-1.45,-1.49,-1.42,9.57,9.54,9.52
70.77,11.03,1.54,11.02,1.54,-1.50,-1.54,-1.46,9.53,9.52,9.48
71.48,11.03,1.58,11.04,1.59,-1.56,-1.59,-1.50,9.47,9.47,9.45
72.19,11.03,1.62,11.02,1.62,-1.63,-1.64,-1.54,9.40,9.39,9.40
72.91,11.03,1.66,11.02,1.65,-1.70,-1.70,-1.58,9.33,9.32,9.37
73.64,11.03,1.70,11.05,1.72,-1.76,-1.75,-1.62,9.27,9.29,9.33
74.38,11.09,1.79,11.11,1.82,-1.81,-1.80,-1.67,9.27,9.29,9.29
75.12,11.19,1.94,11.15,1.90,-1.86,-1.86,-1.71,9.33,9.29,9.24
75.87,11.19,1.98,11.18,1.97,-1.91,-1.91,-1.76,9.28,9.27,9.21
76.63,11.15,1.98,11.17,2.00,-1.96,-1.97,-1.80,9.19,9.21,9.17
77.40,11.13,2.00,11.12,2.00,-2.02,-2.02,-1.85,9.11,9.11,9.12
78.17,11.12,2.04,11.10,2.02,-2.07,-2.08,-1.90,9.05,9.03,9.08
78.95,11.07,2.03,11.11,2.07,-2.12,-2.14,-1.95,8.95,8.99,9.04
79.74,11.15,2.15,11.14,2.15,-2.17,-2.19,-2.00,8.98,8.97,9.00
80.54,11.21,2.26,11.19,2.23,-2.22,-2.25,-2.05,8.99,8.96,8.95
81.35,11.23,2.32,11.23,2.32,-2.28,-2.31,-2.11,8.95,8.95,8.91
82.16,11.23,2.37,11.23,2.37,-2.34,-2.37,-2.17,8.88,8.89,8.86
82.98,11.23,2.41,11.23,2.41,-2.41,-2.42,-2.22,8.82,8.82,8.82
83.81,11.23,2.46,11.23,2.46,-2.47,-2.48,-2.28,8.76,8.76,8.77
84.65,11.23,2.51,11.23,2.51,-2.52,-2.54,-2.35,8.71,8.71,8.72
85.50,11.23,2.57,11.23,2.56,-2.57,-2.60,-2.41,8.66,8.66,8.66
86.35,11.23,2.62,11.23,2.61,-2.62,-2.66,-2.48,8.61,8.61,8.61
87.22,11.23,2.67,11.23,2.67,-2.67,-2.72,-2.54,8.56,8.56,8.56
88.09,11.23,2.72,11.23,2.72,-2.72,-2.78,-2.61,8.51,8.51,8.51
88.97,11.24,2.78,11.24,2.78,-2.78,-2.84,-2.69,8.46,8.46,8.46
89.86,11.24,2.84,11.24,2.83,-2.83,-2.90,-2.76,8.41,8.41,8.40
90.76,11.24,2.89,11.24,2.89,-2.89,-2.96,-2.84,8.35,8.35,8.35
91.66,11.24,2.95,11.24,2.95,-2.95,-3.02,-2.91,8.29,8.29,8.29
92.58,11.24,3.01,11.24,3.01,-3.01,-3.08,-3.00,8.23,8.23,8.23
93.51,11.24,3.07,11.24,3.07,-3.07,-3.14,-3.08,8.17,8.17,8.17
94.44,11.24,3.13,11.24,3.13,-3.14,-3.20,-3.16,8.10,8.10,8.10
95.39,11.24,3.20,11.24,3.20,-3.20,-3.26,-3.25,8.04,8.04,8.04
96.34,11.24,3.26,11.24,3.26,-3.26,-3.32,-3.33,7.98,7.98,7.98
97.30,11.23,3.33,11.23,3.33,-3.32,-3.38,-3.42,7.91,7.91,7.90
98.28,11.22,3.38,11.22,3.39,-3.38,-3.44,-3.51,7.83,7.84,7.84
99.26,11.21,3.45,11.20,3.45,-3.45,-3.50,-3.61,7.76,7.76,7.76
100.25,11.19,3.50,11.19,3.50,-3.51,-3.56,-3.70,7.68,7.68,7.68
101.25,11.17,3.56,11.17,3.57,-3.57,-3.62,-3.79,7.60,7.60,7.61
102.27,11.16,3.63,11.16,3.63,-3.63,-3.68,-3.89,7.53,7.53,7.53
103.29,11.15,3.69,11.14,3.69,-3.69,-3.74,-3.98,7.46,7.46,7.46
104.32,11.13,3.75,11.13,3.75,-3.74,-3.80,-4.08,7.38,7.38,7.38
105.37,11.10,3.80,11.10,3.80,-3.80,-3.85,-4.17,7.30,7.30,7.30
106.42,11.08,3.86,11.08,3.86,-3.85,-3.91,-4.27,7.22,7.22,7.22
107.48,11.05,3.91,11.05,3.91,-3.91,-3.97,-4.36,7.14,7.14,7.14
108.56,11.03,3.95,11.03,3.96,-3.96,-4.03,-4.45,7.07,7.07,7.07
109.64,11.01,4.01,11.01,4.01,-4.01,-4.08,-4.54,7.00,7.00,7.00
110.74,10.99,4.07,10.99,4.06,-4.06,-4.14,-4.63,6.92,6.92,6.92
111.85,10.97,4.11,10.97,4.12,-4.12,-4.19,-4.72,6.85,6.85,6.86
112.97,10.96,4.17,10.96,4.17,-4.18,-4.25,-4.80,6.78,6.79,6.79
114.10,10.96,4.23,10.96,4.23,-4.24,-4.30,-4.88,6.72,6.72,6.73
115.24,10.96,4.30,10.96,4.30,-4.30,-4.35,-4.95,6.66,6.66,6.66
116.39,10.96,4.36,10.96,4.36,-4.36,-4.40,-5.02,6.59,6.60,6.60
117.55,10.96,4.42,10.96,4.42,-4.43,-4.45,-5.09,6.53,6.53,6.54
118.73,10.97,4.49,10.96,4.48,-4.49,-4.50,-5.15,6.48,6.47,6.48
119.92,10.97,4.54,10.98,4.55,-4.55,-4.55,-5.20,6.42,6.43,6.43
121.12,10.98,4.61,10.99,4.62,-4.60,-4.60,-5.25,6.38,6.39,6.37
122.33,11.01,4.69,10.98,4.66,-4.65,-4.65,-5.29,6.36,6.34,6.32
123.55,10.98,4.71,10.96,4.70,-4.69,-4.70,-5.33,6.29,6.27,6.27
124.79,10.91,4.69,10.94,4.72,-4.72,-4.74,-5.35,6.18,6.21,6.22
126.03,10.91,4.74,10.92,4.75,-4.75,-4.79,-5.38,6.16,6.17,6.17
127.29,10.92,4.80,10.91,4.79,-4.78,-4.83,-5.39,6.14,6.13,6.12
128.57,10.92,4.85,10.88,4.82,-4.81,-4.87,-5.40,6.11,6.07,6.07
129.85,10.83,4.81,10.85,4.83,-4.84,-4.91,-5.40,5.99,6.01,6.02
131.15,10.79,4.82,10.82,4.85,-4.87,-4.95,-5.40,5.92,5.95,5.97
132.46,10.83,4.91,10.81,4.89,-4.91,-4.99,-5.39,5.92,5.90,5.92
133.79,10.84,4.96,10.83,4.95,-4.96,-5.03,-5.38,5.88,5.87,5.88
135.12,10.84,5.01,10.85,5.01,-5.01,-5.06,-5.36,5.82,5.83,5.83
136.48,10.85,5.06,10.84,5.06,-5.07,-5.10,-5.34,5.78,5.78,5.79
137.84,10.85,5.11,10.85,5.11,-5.12,-5.13,-5.31,5.73,5.73,5.74
139.22,10.85,5.16,10.87,5.18,-5.16,-5.17,-5.28,5.69,5.71,5.69
140.61,10.87,5.22,10.87,5.23,-5.19,-5.20,-5.25,5.68,5.68,5.64
142.02,10.89,5.30,10.85,5.26,-5.21,-5.23,-5.22,5.68,5.64,5.59
143.44,10.79,5.25,10.80,5.26,-5.23,-5.26,-5.18,5.56,5.57,5.54
144.87,10.73,5.24,10.73,5.23,-5.24,-5.29,-5.14,5.49,5.48,5.49
146.32,10.65,5.20,10.66,5.21,-5.26,-5.31,-5.10,5.39,5.40,5.45
147.78,10.63,5.23,10.64,5.23,-5.28,-5.34,-5.07,5.35,5.36,5.40
149.26,10.64,5.28,10.63,5.28,-5.31,-5.36,-5.03,5.33,5.32,5.35
150.75,10.65,5.34,10.64,5.33,-5.35,-5.38,-4.99,5.30,5.30,5.31
152.26,10.65,5.39,10.65,5.38,-5.38,-5.40,-4.95,5.27,5.26,5.26
153.78,10.65,5.42,10.66,5.44,-5.42,-5.42,-4.92,5.23,5.24,5.23
155.32,10.66,5.48,10.67,5.49,-5.45,-5.44,-4.88,5.21,5.22,5.18
156.88,10.69,5.55,10.67,5.53,-5.48,-5.46,-4.85,5.21,5.19,5.14
158.44,10.65,5.55,10.63,5.53,-5.49,-5.47,-4.82,5.15,5.13,5.09
160.03,10.55,5.50,10.55,5.50,-5.51,-5.49,-4.79,5.04,5.05,5.05
161.63,10.46,5.46,10.48,5.48,-5.52,-5.50,-4.77,4.94,4.96,5.00
163.24,10.43,5.47,10.44,5.48,-5.54,-5.52,-4.75,4.89,4.90,4.96
164.88,10.45,5.53,10.43,5.51,-5.56,-5.53,-4.73,4.89,4.87,4.92
166.53,10.44,5.56,10.44,5.56,-5.57,-5.53,-4.71,4.87,4.87,4.88
168.19,10.44,5.60,10.45,5.61,-5.58,-5.54,-4.70,4.86,4.88,4.84
169.87,10.45,5.64,10.45,5.65,-5.58,-5.55,-4.69,4.86,4.87,4.80
171.57,10.46,5.69,10.43,5.66,-5.59,-5.55,-4.69,4.86,4.84,4.77
173.29,10.37,5.64,10.36,5.63,-5.61,-5.56,-4.69,4.76,4.76,4.73
175.02,10.28,5.57,10.28,5.58,-5.61,-5.56,-4.69,4.66,4.66,4.71
176.77,10.18,5.51,10.21,5.54,-5.62,-5.56,-4.70,4.56,4.59,4.67
178.54,10.19,5.55,10.19,5.54,-5.61,-5.56,-4.71,4.58,4.58,4.64
180.32,10.21,5.59,10.21,5.59,-5.60,-5.56,-4.72,4.61,4.61,4.61
182.13,10.23,5.64,10.25,5.66,-5.59,-5.56,-4.74,4.64,4.66,4.59
183.95,10.27,5.70,10.23,5.66,-5.59,-5.56,-4.76,4.68,4.64,4.57
185.79,10.21,5.66,10.17,5.62,-5.60,-5.55,-4.78,4.61,4.57,4.55
187.65,10.04,5.51,10.10,5.57,-5.61,-5.55,-4.81,4.43,4.49,4.53
189.52,10.03,5.52,10.04,5.53,-5.60,-5.54,-4.84,4.42,4.44,4.51
191.42,10.07,5.57,10.06,5.56,-5.60,-5.53,-4.87,4.47,4.46,4.50
193.33,10.09,5.61,10.10,5.62,-5.58,-5.52,-4.91,4.50,4.51,4.48
195.27,10.13,5.67,10.08,5.62,-5.58,-5.51,-4.95,4.55,4.50,4.46
197.22,10.03,5.59,10.02,5.58,-5.57,-5.50,-5.00,4.46,4.45,4.44
199.19,9.92,5.49,9.97,5.54,-5.56,-5.49,-5.04,4.36,4.41,4.43
201.18,9.92,5.51,9.94,5.53,-5.55,-5.47,-5.09,4.37,4.40,4.41
203.19,9.96,5.57,9.94,5.54,-5.53,-5.46,-5.14,4.43,4.41,4.39
205.23,9.96,5.58,9.90,5.52,-5.50,-5.44,-5.19,4.45,4.40,4.38
207.28,9.81,5.45,9.83,5.47,-5.47,-5.43,-5.24,4.33,4.36,4.36
209.35,9.72,5.37,9.76,5.42,-5.45,-5.41,-5.29,4.27,4.32,4.35
211.44,9.73,5.40,9.74,5.41,-5.42,-5.39,-5.34,4.30,4.32,4.32
213.56,9.76,5.45,9.72,5.41,-5.40,-5.37,-5.40,4.36,4.32,4.31
215.69,9.73,5.44,9.67,5.39,-5.37,-5.35,-5.45,4.36,4.31,4.29
217.85,9.54,5.26,9.60,5.33,-5.33,-5.32,-5.50,4.21,4.27,4.27
220.03,9.53,5.28,9.54,5.29,-5.30,-5.30,-5.55,4.23,4.24,4.25
222.23,9.52,5.28,9.51,5.27,-5.27,-5.27,-5.60,4.24,4.24,4.24
224.45,9.52,5.29,9.48,5.26,-5.25,-5.25,-5.64,4.27,4.24,4.23
226.70,9.44,5.22,9.42,5.20,-5.21,-5.22,-5.68,4.23,4.21,4.22
228.96,9.31,5.10,9.37,5.16,-5.17,-5.19,-5.72,4.14,4.19,4.21
231.25,9.33,5.12,9.35,5.15,-5.14,-5.16,-5.74,4.19,4.21,4.21
233.57,9.37,5.17,9.33,5.13,-5.11,-5.13,-5.77,4.26,4.22,4.20
235.90,9.35,5.16,9.29,5.10,-5.09,-5.10,-5.79,4.26,4.20,4.19
238.26,9.18,4.99,9.23,5.04,-5.06,-5.07,-5.80,4.11,4.16,4.19
240.64,9.15,4.96,9.19,5.00,-5.04,-5.04,-5.81,4.11,4.15,4.19
243.05,9.19,5.00,9.19,5.00,-5.01,-5.00,-5.81,4.18,4.18,4.19
245.48,9.25,5.06,9.19,5.00,-4.98,-4.97,-5.79,4.27,4.21,4.19
247.93,9.19,5.00,9.18,4.98,-4.94,-4.93,-5.78,4.25,4.23,4.19
250.41,9.06,4.86,9.14,4.94,-4.90,-4.89,-5.75,4.15,4.23,4.20
252.92,9.11,4.91,9.07,4.87,-4.87,-4.85,-5.72,4.24,4.19,4.20
255.45,9.04,4.85,9.00,4.81,-4.84,-4.81,-5.67,4.20,4.16,4.19
258.00,8.92,4.73,8.96,4.77,-4.81,-4.77,-5.62,4.11,4.16,4.19
260.58,8.90,4.71,8.92,4.73,-4.77,-4.73,-5.56,4.13,4.15,4.19
263.19,8.92,4.74,8.90,4.72,-4.72,-4.69,-5.50,4.20,4.18,4.18
265.82,8.90,4.73,8.87,4.71,-4.68,-4.64,-5.42,4.22,4.20,4.16
268.48,8.82,4.66,8.84,4.68,-4.63,-4.60,-5.34,4.19,4.21,4.16
271.16,8.74,4.60,8.75,4.61,-4.59,-4.55,-5.25,4.15,4.17,4.14
273.87,8.71,4.57,8.65,4.52,-4.53,-4.50,-5.16,4.17,4.12,4.14
276.61,8.53,4.41,8.58,4.46,-4.48,-4.46,-5.06,4.05,4.11,4.12
279.38,8.49,4.38,8.51,4.41,-4.41,-4.41,-4.96,4.08,4.10,4.11
282.17,8.50,4.40,8.43,4.33,-4.35,-4.36,-4.85,4.15,4.08,4.10
284.99,8.37,4.27,8.39,4.30,-4.28,-4.30,-4.74,4.09,4.11,4.10
287.84,8.28,4.18,8.34,4.24,-4.23,-4.25,-4.63,4.05,4.11,4.10
290.72,8.35,4.25,8.26,4.17,-4.19,-4.20,-4.51,4.16,4.07,4.10
293.63,8.21,4.12,8.22,4.12,-4.14,-4.14,-4.40,4.06,4.07,4.09
296.57,8.12,4.02,8.19,4.09,-4.10,-4.09,-4.28,4.01,4.08,4.10
299.53,8.18,4.08,8.15,4.05,-4.06,-4.03,-4.16,4.12,4.09,4.10
302.53,8.17,4.07,8.14,4.03,-4.02,-3.97,-4.04,4.15,4.12,4.10
305.55,8.09,3.98,8.11,4.01,-3.97,-3.91,-3.91,4.12,4.14,4.11
308.61,8.03,3.93,8.04,3.93,-3.92,-3.85,-3.79,4.11,4.12,4.10
311.69,7.98,3.88,7.96,3.86,-3.86,-3.79,-3.67,4.12,4.10,4.10
314.81,7.87,3.77,7.89,3.79,-3.79,-3.73,-3.55,4.08,4.10,4.09
317.96,7.80,3.71,7.80,3.70,-3.72,-3.67,-3.43,4.08,4.08,4.09
321.14,7.74,3.65,7.72,3.63,-3.64,-3.60,-3.32,4.10,4.08,4.09
324.35,7.61,3.51,7.66,3.57,-3.55,-3.54,-3.20,4.05,4.10,4.10
327.59,7.62,3.53,7.58,3.48,-3.47,-3.47,-3.08,4.15,4.10,4.09
330.87,7.50,3.41,7.48,3.39,-3.40,-3.40,-2.97,4.10,4.09,4.09
334.18,7.37,3.28,7.40,3.32,-3.32,-3.34,-2.86,4.04,4.08,4.09
337.52,7.31,3.22,7.31,3.23,-3.25,-3.27,-2.74,4.05,4.06,4.08
340.90,7.27,3.19,7.25,3.16,-3.19,-3.20,-2.64,4.08,4.06,4.08
344.30,7.20,3.11,7.20,3.12,-3.11,-3.12,-2.53,4.08,4.09,4.09
347.75,7.13,3.03,7.14,3.05,-3.04,-3.05,-2.42,4.09,4.10,4.10
351.23,7.10,3.01,7.08,2.99,-2.96,-2.98,-2.32,4.14,4.12,4.08
354.74,7.00,2.90,7.01,2.92,-2.88,-2.90,-2.22,4.12,4.13,4.10
358.28,6.94,2.84,6.92,2.82,-2.80,-2.83,-2.12,4.14,4.12,4.10
361.87,6.82,2.71,6.81,2.70,-2.71,-2.75,-2.02,4.10,4.10,4.11
365.49,6.70,2.58,6.71,2.60,-2.63,-2.67,-1.92,4.07,4.08,4.12
369.14,6.62,2.50,6.64,2.52,-2.55,-2.59,-1.83,4.07,4.09,4.11
372.83,6.59,2.46,6.58,2.45,-2.47,-2.51,-1.73,4.12,4.11,4.13
376.56,6.55,2.42,6.51,2.38,-2.39,-2.43,-1.64,4.16,4.12,4.13
380.33,6.42,2.29,6.45,2.32,-2.31,-2.35,-1.55,4.11,4.13,4.13
384.13,6.35,2.22,6.39,2.26,-2.23,-2.27,-1.46,4.11,4.15,4.13
387.97,6.35,2.22,6.32,2.19,-2.16,-2.18,-1.37,4.19,4.16,4.13
391.85,6.27,2.13,6.23,2.10,-2.09,-2.10,-1.29,4.18,4.14,4.13
395.77,6.11,1.99,6.13,2.00,-2.01,-2.01,-1.20,4.10,4.12,4.12
399.73,5.98,1.86,6.02,1.90,-1.92,-1.93,-1.12,4.05,4.09,4.12
403.72,5.95,1.83,5.93,1.82,-1.84,-1.84,-1.04,4.11,4.09,4.12
407.76,5.88,1.78,5.86,1.75,-1.75,-1.75,-0.96,4.13,4.11,4.10
411.84,5.77,1.67,5.78,1.68,-1.66,-1.66,-0.88,4.11,4.12,4.10
415.96,5.67,1.57,5.68,1.58,-1.57,-1.57,-0.80,4.10,4.11,4.10
420.12,5.59,1.50,5.57,1.48,-1.48,-1.48,-0.72,4.10,4.09,4.09
424.32,5.47,1.37,5.48,1.39,-1.40,-1.39,-0.65,4.07,4.08,4.09
428.56,5.39,1.29,5.40,1.30,-1.31,-1.29,-0.57,4.08,4.09,4.10
432.85,5.34,1.22,5.32,1.20,-1.21,-1.20,-0.50,4.13,4.11,4.12
437.18,5.26,1.13,5.26,1.12,-1.11,-1.11,-0.42,4.15,4.15,4.13
441.55,5.18,1.01,5.21,1.04,-1.02,-1.01,-0.35,4.16,4.19,4.17
445.96,5.17,0.96,5.15,0.94,-0.93,-0.91,-0.28,4.24,4.22,4.21
450.42,5.10,0.84,5.08,0.82,-0.84,-0.82,-0.21,4.26,4.24,4.26
454.93,5.01,0.70,5.03,0.72,-0.74,-0.72,-0.14,4.27,4.28,4.31
459.48,4.95,0.58,4.99,0.63,-0.64,-0.62,-0.07,4.31,4.35,4.37
464.07,5.00,0.58,4.97,0.55,-0.54,-0.52,-0.00,4.46,4.43,4.42
468.71,4.97,0.50,4.94,0.47,-0.43,-0.42,0.06,4.54,4.51,4.46
473.40,4.87,0.34,4.88,0.36,-0.33,-0.32,0.13,4.54,4.55,4.52
478.13,4.79,0.21,4.80,0.22,-0.23,-0.21,0.20,4.56,4.57,4.58
482.91,4.72,0.09,4.72,0.09,-0.12,-0.11,0.26,4.59,4.60,4.63
487.74,4.67,-0.00,4.67,-0.01,-0.02,-0.01,0.33,4.65,4.65,4.67
492.62,4.61,-0.10,4.62,-0.09,0.09,0.10,0.39,4.70,4.71,4.71
497.55,4.58,-0.17,4.57,-0.18,0.19,0.20,0.46,4.77,4.76,4.75
502.52,4.51,-0.26,4.50,-0.28,0.29,0.31,0.52,4.80,4.79,4.77
