frequency,raw,error,smoothed,error_smoothed,equalization,parametric_eq,equalized_raw,equalized_smoothed,target
20.00,-4.78,-6.69,-4.82,-6.71,6.00,2.72,1.22,1.18,1.91
20.20,-4.78,-6.69,-4.81,-6.70,6.00,2.80,1.22,1.19,1.91
20.40,-4.78,-6.68,-4.79,-6.69,6.00,2.88,1.22,1.21,1.91
20.61,-4.78,-6.68,-4.78,-6.67,6.00,2.96,1.22,1.22,1.91
20.81,-4.78,-6.68,-4.77,-6.66,6.00,3.05,1.22,1.23,1.91
21.02,-4.78,-6.68,-4.76,-6.65,6.00,3.14,1.22,1.24,1.91
21.23,-4.78,-6.68,-4.75,-6.64,6.00,3.23,1.22,1.25,1.90
21.44,-4.78,-6.68,-4.73,-6.62,6.00,3.32,1.22,1.27,1.90
21.66,-4.77,-6.67,-4.72,-6.61,6.00,3.42,1.23,1.28,1.90
21.87,-4.77,-6.67,-4.71,-6.59,6.00,3.51,1.23,1.29,1.90
22.09,-4.75,-6.65,-4.69,-6.58,6.00,3.62,1.25,1.31,1.90
22.31,-4.70,-6.60,-4.68,-6.57,6.00,3.72,1.30,1.32,1.90
22.54,-4.66,-6.56,-4.66,-6.55,6.00,3.83,1.34,1.34,1.90
22.76,-4.61,-6.51,-4.64,-6.53,6.00,3.94,1.39,1.36,1.90
22.99,-4.56,-6.46,-4.62,-6.51,6.00,4.05,1.44,1.38,1.90
23.22,-4.56,-6.45,-4.61,-6.49,6.00,4.16,1.44,1.39,1.90
23.45,-4.56,-6.45,-4.59,-6.48,6.00,4.28,1.44,1.41,1.90
23.69,-4.56,-6.45,-4.58,-6.47,6.00,4.40,1.44,1.42,1.89
23.92,-4.56,-6.45,-4.57,-6.45,6.00,4.53,1.44,1.43,1.89
24.16,-4.56,-6.45,-4.55,-6.44,6.00,4.65,1.44,1.45,1.89
24.40,-4.56,-6.45,-4.54,-6.43,6.00,4.78,1.44,1.46,1.89
24.65,-4.56,-6.45,-4.53,-6.41,6.00,4.91,1.44,1.47,1.89
24.89,-4.56,-6.45,-4.52,-6.40,6.00,5.04,1.44,1.48,1.89
25.14,-4.55,-6.43,-4.51,-6.38,6.00,5.18,1.45,1.49,1.89
25.39,-4.52,-6.40,-4.50,-6.37,6.00,5.31,1.48,1.50,1.89
25.65,-4.50,-6.38,-4.48,-6.35,6.00,5.45,1.50,1.52,1.88
25.91,-4.48,-6.36,-4.46,-6.33,6.00,5.58,1.52,1.54,1.88
26.16,-4.45,-6.33,-4.44,-6.31,6.00,5.72,1.55,1.56,1.88
26.43,-4.41,-6.29,-4.42,-6.29,6.00,5.86,1.59,1.58,1.88
26.69,-4.37,-6.24,-4.40,-6.27,6.00,5.99,1.63,1.60,1.87
26.96,-4.34,-6.21,-4.38,-6.25,6.00,6.13,1.66,1.62,1.87
27.23,-4.33,-6.20,-4.36,-6.23,6.00,6.26,1.67,1.64,1.87
27.50,-4.33,-6.19,-4.35,-6.22,6.00,6.39,1.67,1.65,1.87
27.77,-4.33,-6.19,-4.35,-6.20,6.00,6.52,1.67,1.65,1.86
28.05,-4.33,-6.19,-4.34,-6.19,6.00,6.64,1.67,1.66,1.86
28.33,-4.33,-6.18,-4.33,-6.18,6.00,6.76,1.67,1.67,1.86
28.62,-4.33,-6.18,-4.32,-6.17,6.00,6.87,1.67,1.68,1.85
28.90,-4.33,-6.18,-4.32,-6.15,6.00,6.97,1.67,1.68,1.85
29.19,-4.33,-6.18,-4.31,-6.14,6.00,7.07,1.67,1.69,1.85
29.48,-4.33,-6.17,-4.29,-6.12,6.00,7.16,1.67,1.71,1.85
29.78,-4.33,-6.17,-4.28,-6.11,6.00,7.24,1.67,1.72,1.84
30.08,-4.32,-6.16,-4.26,-6.09,6.00,7.31,1.68,1.74,1.84
30.38,-4.27,-6.11,-4.24,-6.07,6.00,7.37,1.73,1.76,1.84
30.68,-4.22,-6.06,-4.22,-6.05,6.00,7.42,1.78,1.78,1.84
30.99,-4.17,-6.00,-4.20,-6.03,5.99,7.46,1.82,1.79,1.84
31.30,-4.15,-5.98,-4.18,-6.00,5.98,7.48,1.83,1.80,1.83
31.61,-4.13,-5.96,-4.16,-5.98,5.97,7.50,1.84,1.81,1.83
31.93,-4.11,-5.94,-4.14,-5.97,5.96,7.50,1.85,1.82,1.83
32.24,-4.10,-5.93,-4.12,-5.95,5.95,7.49,1.85,1.82,1.83
32.57,-4.10,-5.93,-4.11,-5.94,5.93,7.48,1.84,1.83,1.83
32.89,-4.10,-5.92,-4.10,-5.93,5.93,7.45,1.83,1.83,1.83
33.22,-4.10,-5.92,-4.09,-5.92,5.92,7.41,1.82,1.83,1.82
33.55,-4.10,-5.92,-4.09,-5.91,5.91,7.36,1.81,1.82,1.82
33.89,-4.10,-5.92,-4.09,-5.91,5.91,7.31,1.81,1.82,1.82
34.23,-4.10,-5.92,-4.09,-5.90,5.90,7.24,1.81,1.81,1.82
34.57,-4.10,-5.92,-4.09,-5.90,5.90,7.17,1.81,1.81,1.82
34.92,-4.10,-5.91,-4.09,-5.91,5.91,7.10,1.81,1.81,1.82
35.27,-4.10,-5.91,-4.10,-5.91,5.91,7.02,1.81,1.81,1.81
35.62,-4.10,-5.91,-4.10,-5.90,5.90,6.94,1.81,1.81,1.81
35.97,-4.10,-5.91,-4.10,-5.90,5.90,6.85,1.80,1.80,1.81
36.33,-4.10,-5.90,-4.10,-5.90,5.90,6.76,1.80,1.80,1.80
36.70,-4.10,-5.90,-4.10,-5.90,5.90,6.67,1.80,1.80,1.80
37.06,-4.10,-5.89,-4.10,-5.90,5.90,6.58,1.80,1.80,1.80
37.43,-4.10,-5.89,-4.10,-5.90,5.90,6.49,1.80,1.80,1.79
37.81,-4.10,-5.89,-4.10,-5.89,5.89,6.39,1.79,1.79,1.79
38.19,-4.10,-5.88,-4.11,-5.89,5.89,6.30,1.79,1.78,1.78
38.57,-4.10,-5.87,-4.11,-5.88,5.88,6.21,1.78,1.77,1.78
38.95,-4.10,-5.87,-4.12,-5.87,5.87,6.13,1.77,1.75,1.77
39.34,-4.10,-5.86,-4.11,-5.86,5.86,6.04,1.76,1.75,1.76
39.74,-4.10,-5.85,-4.10,-5.84,5.84,5.96,1.75,1.74,1.75
40.14,-4.10,-5.84,-4.09,-5.82,5.82,5.88,1.73,1.73,1.75
40.54,-4.10,-5.84,-4.08,-5.80,5.80,5.80,1.70,1.72,1.74
40.94,-4.10,-5.83,-4.06,-5.77,5.77,5.73,1.68,1.71,1.73
41.35,-4.10,-5.82,-4.04,-5.74,5.74,5.66,1.65,1.70,1.72
41.76,-4.10,-5.81,-4.02,-5.71,5.71,5.59,1.62,1.69,1.71
42.18,-4.06,-5.75,-4.00,-5.68,5.68,5.53,1.62,1.68,1.70
42.60,-3.96,-5.64,-3.98,-5.65,5.65,5.47,1.69,1.67,1.69
43.03,-3.87,-5.54,-3.95,-5.61,5.61,5.42,1.75,1.66,1.67
43.46,-3.87,-5.53,-3.93,-5.58,5.58,5.37,1.71,1.65,1.66
43.90,-3.87,-5.52,-3.91,-5.55,5.55,5.32,1.68,1.64,1.65
44.33,-3.87,-5.50,-3.89,-5.52,5.52,5.28,1.65,1.63,1.64
44.78,-3.87,-5.49,-3.88,-5.49,5.49,5.24,1.63,1.62,1.62
45.23,-3.87,-5.48,-3.87,-5.47,5.47,5.21,1.60,1.61,1.61
45.68,-3.87,-5.46,-3.86,-5.45,5.45,5.18,1.58,1.59,1.59
46.13,-3.87,-5.45,-3.85,-5.43,5.43,5.15,1.57,1.58,1.58
46.60,-3.87,-5.43,-3.85,-5.42,5.42,5.13,1.55,1.57,1.57
47.06,-3.87,-5.42,-3.86,-5.40,5.40,5.11,1.54,1.55,1.55
47.53,-3.87,-5.40,-3.86,-5.39,5.39,5.09,1.52,1.53,1.53
48.01,-3.87,-5.39,-3.87,-5.38,5.38,5.08,1.51,1.51,1.52
48.49,-3.87,-5.37,-3.87,-5.37,5.37,5.07,1.50,1.50,1.50
48.97,-3.87,-5.36,-3.88,-5.35,5.35,5.07,1.49,1.48,1.49
49.46,-3.87,-5.34,-3.88,-5.34,5.34,5.07,1.47,1.46,1.47
49.96,-3.87,-5.33,-3.88,-5.32,5.32,5.07,1.45,1.44,1.46
50.46,-3.87,-5.31,-3.87,-5.30,5.30,5.07,1.43,1.43,1.44
50.96,-3.87,-5.29,-3.86,-5.28,5.28,5.08,1.41,1.42,1.43
51.47,-3.87,-5.28,-3.85,-5.25,5.25,5.08,1.39,1.40,1.41
51.99,-3.87,-5.26,-3.84,-5.23,5.23,5.09,1.36,1.39,1.39
52.51,-3.87,-5.24,-3.84,-5.21,5.21,5.10,1.34,1.37,1.37
53.03,-3.87,-5.22,-3.83,-5.18,5.18,5.11,1.31,1.35,1.35
53.56,-3.87,-5.20,-3.83,-5.16,5.16,5.13,1.29,1.33,1.34
54.10,-3.85,-5.16,-3.83,-5.13,5.13,5.14,1.29,1.31,1.32
54.64,-3.72,-5.02,-3.83,-5.11,5.11,5.15,1.39,1.29,1.30
55.18,-3.68,-4.96,-3.83,-5.09,5.09,5.17,1.41,1.27,1.28
55.74,-3.81,-5.06,-3.83,-5.07,5.07,5.18,1.27,1.25,1.26
56.29,-3.87,-5.10,-3.83,-5.05,5.05,5.19,1.19,1.23,1.23
56.86,-3.87,-5.08,-3.83,-5.04,5.04,5.20,1.17,1.20,1.21
57.42,-3.87,-5.06,-3.84,-5.02,5.02,5.20,1.15,1.18,1.19
58.00,-3.87,-5.03,-3.84,-5.00,5.00,5.21,1.14,1.16,1.17
58.58,-3.87,-5.01,-3.85,-4.99,4.99,5.21,1.12,1.14,1.14
59.16,-3.87,-4.99,-3.85,-4.97,4.97,5.21,1.10,1.12,1.12
59.76,-3.87,-4.96,-3.86,-4.95,4.95,5.20,1.09,1.09,1.09
60.35,-3.87,-4.94,-3.88,-4.93,4.93,5.19,1.07,1.06,1.07
60.96,-3.87,-4.91,-3.89,-4.91,4.91,5.18,1.04,1.02,1.04
61.57,-3.87,-4.88,-3.90,-4.88,4.88,5.16,1.02,0.99,1.02
62.18,-3.87,-4.85,-3.89,-4.86,4.86,5.14,0.99,0.97,0.99
62.80,-3.87,-4.83,-3.88,-4.82,4.82,5.11,0.95,0.94,0.96
63.43,-3.87,-4.80,-3.87,-4.78,4.78,5.08,0.92,0.91,0.93
64.07,-3.87,-4.77,-3.86,-4.74,4.74,5.04,0.87,0.88,0.90
64.71,-3.87,-4.74,-3.84,-4.69,4.69,5.00,0.83,0.85,0.87
65.35,-3.87,-4.70,-3.82,-4.65,4.65,4.96,0.78,0.82,0.84
66.01,-3.87,-4.67,-3.80,-4.60,4.60,4.91,0.73,0.80,0.81
66.67,-3.87,-4.64,-3.78,-4.54,4.54,4.86,0.68,0.77,0.78
67.33,-3.79,-4.53,-3.76,-4.49,4.49,4.80,0.71,0.74,0.75
68.01,-3.64,-4.35,-3.73,-4.44,4.44,4.74,0.80,0.71,0.72
68.69,-3.64,-4.33,-3.71,-4.39,4.39,4.68,0.75,0.68,0.69
69.37,-3.64,-4.30,-3.69,-4.34,4.34,4.62,0.70,0.65,0.66
70.07,-3.64,-4.27,-3.67,-4.29,4.29,4.55,0.66,0.62,0.63
70.77,-3.64,-4.24,-3.65,-4.25,4.25,4.48,0.61,0.60,0.60
71.48,-3.64,-4.21,-3.64,-4.21,4.21,4.41,0.57,0.57,0.58
72.19,-3.64,-4.18,-3.63,-4.17,4.17,4.34,0.53,0.54,0.55
72.91,-3.64,-4.16,-3.62,-4.14,4.14,4.27,0.50,0.51,0.52
73.64,-3.64,-4.13,-3.62,-4.10,4.10,4.19,0.47,0.48,0.49
74.38,-3.64,-4.10,-3.62,-4.07,4.07,4.12,0.43,0.45,0.46
75.12,-3.64,-4.06,-3.63,-4.04,4.04,4.05,0.41,0.41,0.43
75.87,-3.64,-4.03,-3.64,-4.02,4.02,3.98,0.38,0.38,0.39
76.63,-3.64,-4.00,-3.64,-3.99,3.99,3.91,0.35,0.35,0.36
77.40,-3.64,-3.96,-3.64,-3.96,3.96,3.84,0.32,0.32,0.33
78.17,-3.64,-3.93,-3.64,-3.93,3.93,3.77,0.29,0.29,0.29
78.95,-3.64,-3.90,-3.64,-3.90,3.90,3.70,0.26,0.26,0.26
79.74,-3.64,-3.86,-3.64,-3.87,3.87,3.63,0.23,0.23,0.23
80.54,-3.64,-3.83,-3.64,-3.83,3.83,3.57,0.20,0.20,0.19
81.35,-3.64,-3.80,-3.64,-3.80,3.80,3.51,0.16,0.16,0.16
82.16,-3.64,-3.77,-3.64,-3.77,3.77,3.45,0.13,0.13,0.13
82.98,-3.64,-3.74,-3.64,-3.74,3.74,3.39,0.10,0.10,0.10
83.81,-3.64,-3.70,-3.64,-3.70,3.70,3.33,0.06,0.06,0.07
84.65,-3.64,-3.67,-3.64,-3.67,3.67,3.28,0.03,0.03,0.03
85.50,-3.64,-3.64,-3.64,-3.63,3.63,3.23,-0.00,-0.00,-0.00
86.35,-3.64,-3.60,-3.64,-3.60,3.60,3.18,-0.04,-0.04,-0.03
87.22,-3.64,-3.57,-3.64,-3.57,3.57,3.13,-0.07,-0.07,-0.07
88.09,-3.64,-3.54,-3.64,-3.53,3.53,3.09,-0.11,-0.11,-0.10
88.97,-3.64,-3.50,-3.64,-3.50,3.50,3.04,-0.14,-0.14,-0.14
89.86,-3.64,-3.46,-3.64,-3.46,3.46,3.00,-0.17,-0.17,-0.17
90.76,-3.64,-3.43,-3.64,-3.43,3.43,2.96,-0.21,-0.21,-0.21
91.66,-3.64,-3.39,-3.64,-3.39,3.39,2.93,-0.24,-0.24,-0.24
92.58,-3.64,-3.36,-3.64,-3.36,3.36,2.89,-0.28,-0.28,-0.28
93.51,-3.64,-3.32,-3.64,-3.32,3.32,2.86,-0.31,-0.31,-0.31
94.44,-3.64,-3.29,-3.64,-3.29,3.29,2.83,-0.35,-0.35,-0.35
95.39,-3.64,-3.26,-3.64,-3.26,3.26,2.81,-0.38,-0.38,-0.38
96.34,-3.64,-3.22,-3.64,-3.22,3.22,2.78,-0.41,-0.41,-0.41
97.30,-3.64,-3.19,-3.64,-3.19,3.19,2.76,-0.44,-0.44,-0.45
98.28,-3.64,-3.16,-3.64,-3.16,3.16,2.74,-0.47,-0.47,-0.48
99.26,-3.64,-3.13,-3.64,-3.14,3.14,2.72,-0.50,-0.50,-0.51
100.25,-3.64,-3.10,-3.64,-3.11,3.11,2.70,-0.53,-0.53,-0.54
101.25,-3.64,-3.07,-3.64,-3.08,3.08,2.68,-0.56,-0.56,-0.57
102.27,-3.64,-3.04,-3.65,-3.05,3.05,2.67,-0.59,-0.60,-0.60
103.29,-3.64,-3.02,-3.65,-3.02,3.02,2.65,-0.62,-0.63,-0.62
104.32,-3.64,-2.99,-3.66,-2.99,2.99,2.64,-0.65,-0.66,-0.65
105.37,-3.64,-2.96,-3.65,-2.96,2.96,2.63,-0.68,-0.69,-0.67
106.42,-3.64,-2.94,-3.64,-2.93,2.93,2.62,-0.71,-0.72,-0.70
107.48,-3.64,-2.91,-3.63,-2.89,2.89,2.61,-0.75,-0.74,-0.73
108.56,-3.64,-2.88,-3.62,-2.85,2.85,2.60,-0.79,-0.77,-0.75
109.64,-3.64,-2.86,-3.60,-2.80,2.80,2.59,-0.84,-0.80,-0.78
110.74,-3.64,-2.83,-3.58,-2.75,2.75,2.58,-0.88,-0.83,-0.81
111.85,-3.64,-2.80,-3.56,-2.70,2.70,2.57,-0.93,-0.85,-0.84
112.97,-3.62,-2.75,-3.54,-2.65,2.65,2.56,-0.97,-0.89,-0.87
114.10,-3.42,-2.52,-3.52,-2.60,2.60,2.55,-0.82,-0.92,-0.90
115.24,-3.42,-2.49,-3.49,-2.54,2.54,2.54,-0.87,-0.95,-0.93
116.39,-3.42,-2.45,-3.47,-2.49,2.49,2.52,-0.93,-0.98,-0.97
117.55,-3.42,-2.41,-3.45,-2.44,2.44,2.51,-0.98,-1.02,-1.00
118.73,-3.42,-2.37,-3.44,-2.38,2.38,2.50,-1.03,-1.05,-1.04
119.92,-3.42,-2.33,-3.42,-2.34,2.34,2.48,-1.08,-1.09,-1.08
121.12,-3.42,-2.29,-3.41,-2.29,2.29,2.47,-1.13,-1.12,-1.12
122.33,-3.42,-2.25,-3.40,-2.24,2.24,2.45,-1.17,-1.16,-1.16
123.55,-3.42,-2.21,-3.40,-2.20,2.20,2.43,-1.21,-1.20,-1.20
124.79,-3.42,-2.17,-3.40,-2.16,2.16,2.41,-1.25,-1.24,-1.24
126.03,-3.42,-2.14,-3.41,-2.13,2.13,2.39,-1.29,-1.28,-1.28
127.29,-3.42,-2.10,-3.42,-2.09,2.09,2.36,-1.33,-1.33,-1.32
128.57,-3.42,-2.06,-3.42,-2.06,2.06,2.34,-1.36,-1.36,-1.35
129.85,-3.42,-2.03,-3.42,-2.03,2.03,2.31,-1.39,-1.39,-1.39
131.15,-3.42,-1.99,-3.42,-1.99,1.99,2.28,-1.42,-1.42,-1.42
132.46,-3.42,-1.96,-3.42,-1.96,1.96,2.25,-1.46,-1.46,-1.46
133.79,-3.42,-1.93,-3.42,-1.93,1.93,2.22,-1.49,-1.49,-1.49
135.12,-3.42,-1.89,-3.42,-1.89,1.89,2.19,-1.53,-1.53,-1.52
136.48,-3.42,-1.86,-3.42,-1.86,1.86,2.15,-1.56,-1.56,-1.56
137.84,-3.42,-1.83,-3.42,-1.83,1.83,2.12,-1.59,-1.59,-1.59
139.22,-3.42,-1.80,-3.42,-1.80,1.80,2.08,-1.62,-1.62,-1.62
140.61,-3.42,-1.76,-3.42,-1.76,1.76,2.05,-1.66,-1.66,-1.65
142.02,-3.42,-1.73,-3.42,-1.73,1.73,2.01,-1.69,-1.69,-1.68
143.44,-3.42,-1.70,-3.42,-1.70,1.70,1.97,-1.72,-1.72,-1.72
144.87,-3.42,-1.67,-3.42,-1.67,1.67,1.93,-1.75,-1.75,-1.75
146.32,-3.42,-1.64,-3.42,-1.64,1.64,1.90,-1.78,-1.78,-1.78
147.78,-3.42,-1.61,-3.42,-1.61,1.61,1.86,-1.81,-1.81,-1.81
149.26,-3.42,-1.58,-3.42,-1.58,1.58,1.82,-1.83,-1.83,-1.84
150.75,-3.42,-1.55,-3.42,-1.56,1.56,1.78,-1.86,-1.86,-1.86
152.26,-3.42,-1.53,-3.42,-1.53,1.53,1.74,-1.89,-1.89,-1.89
153.78,-3.42,-1.50,-3.42,-1.51,1.51,1.70,-1.91,-1.91,-1.92
155.32,-3.42,-1.48,-3.42,-1.48,1.48,1.67,-1.94,-1.94,-1.94
156.88,-3.42,-1.46,-3.42,-1.46,1.46,1.63,-1.96,-1.96,-1.96
158.44,-3.42,-1.44,-3.42,-1.43,1.43,1.59,-1.98,-1.98,-1.98
160.03,-3.42,-1.41,-3.42,-1.41,1.41,1.56,-2.01,-2.01,-2.00
161.63,-3.42,-1.39,-3.42,-1.39,1.39,1.52,-2.03,-2.03,-2.02
163.24,-3.42,-1.37,-3.42,-1.37,1.37,1.49,-2.05,-2.05,-2.05
164.88,-3.42,-1.35,-3.42,-1.35,1.35,1.45,-2.07,-2.07,-2.07
166.53,-3.42,-1.33,-3.42,-1.33,1.33,1.42,-2.09,-2.09,-2.09
168.19,-3.42,-1.31,-3.42,-1.30,1.30,1.39,-2.11,-2.11,-2.11
169.87,-3.42,-1.29,-3.42,-1.28,1.28,1.36,-2.13,-2.13,-2.13
171.57,-3.42,-1.27,-3.42,-1.26,1.26,1.33,-2.15,-2.15,-2.15
173.29,-3.42,-1.25,-3.42,-1.25,1.25,1.30,-2.17,-2.17,-2.17
175.02,-3.42,-1.23,-3.42,-1.23,1.23,1.27,-2.19,-2.19,-2.19
176.77,-3.42,-1.21,-3.42,-1.21,1.21,1.24,-2.21,-2.21,-2.21
178.54,-3.42,-1.19,-3.42,-1.19,1.19,1.21,-2.22,-2.23,-2.23
180.32,-3.42,-1.17,-3.43,-1.18,1.18,1.19,-2.24,-2.25,-2.25
182.13,-3.42,-1.15,-3.43,-1.16,1.16,1.16,-2.26,-2.27,-2.27
183.95,-3.42,-1.13,-3.44,-1.14,1.14,1.14,-2.27,-2.29,-2.28
185.79,-3.42,-1.12,-3.43,-1.13,1.13,1.11,-2.29,-2.31,-2.30
187.65,-3.42,-1.11,-3.43,-1.11,1.11,1.09,-2.31,-2.32,-2.31
189.52,-3.42,-1.10,-3.42,-1.09,1.09,1.07,-2.33,-2.33,-2.31
191.42,-3.42,-1.10,-3.40,-1.07,1.07,1.05,-2.35,-2.34,-2.32
193.33,-3.42,-1.09,-3.38,-1.04,1.04,1.03,-2.38,-2.34,-2.33
195.27,-3.42,-1.08,-3.36,-1.01,1.01,1.01,-2.40,-2.35,-2.33
197.22,-3.42,-1.08,-3.34,-0.99,0.99,0.99,-2.43,-2.36,-2.34
199.19,-3.41,-1.06,-3.32,-0.96,0.96,0.97,-2.45,-2.36,-2.35
201.18,-3.28,-0.93,-3.30,-0.93,0.93,0.96,-2.35,-2.37,-2.35
203.19,-3.19,-0.83,-3.28,-0.90,0.90,0.94,-2.29,-2.38,-2.36
205.23,-3.19,-0.82,-3.26,-0.87,0.87,0.92,-2.31,-2.38,-2.37
207.28,-3.19,-0.81,-3.23,-0.85,0.85,0.91,-2.34,-2.39,-2.37
209.35,-3.19,-0.81,-3.22,-0.82,0.82,0.89,-2.36,-2.39,-2.38
211.44,-3.19,-0.80,-3.20,-0.80,0.80,0.88,-2.39,-2.40,-2.39
213.56,-3.19,-0.79,-3.19,-0.78,0.78,0.87,-2.40,-2.40,-2.40
215.69,-3.19,-0.78,-3.18,-0.77,0.77,0.85,-2.42,-2.41,-2.41
217.85,-3.19,-0.77,-3.17,-0.76,0.76,0.84,-2.43,-2.41,-2.42
220.03,-3.19,-0.76,-3.17,-0.75,0.75,0.83,-2.44,-2.42,-2.43
222.23,-3.19,-0.76,-3.17,-0.75,0.75,0.82,-2.44,-2.43,-2.43
224.45,-3.19,-0.75,-3.18,-0.74,0.74,0.81,-2.45,-2.44,-2.44
226.70,-3.19,-0.75,-3.19,-0.74,0.74,0.80,-2.45,-2.45,-2.44
228.96,-3.19,-0.75,-3.19,-0.74,0.74,0.79,-2.45,-2.45,-2.44
231.25,-3.19,-0.75,-3.19,-0.74,0.74,0.78,-2.44,-2.44,-2.44
233.57,-3.19,-0.75,-3.19,-0.74,0.74,0.77,-2.44,-2.44,-2.44
235.90,-3.19,-0.75,-3.19,-0.74,0.74,0.76,-2.44,-2.44,-2.44
238.26,-3.19,-0.75,-3.19,-0.74,0.74,0.76,-2.45,-2.45,-2.44
240.64,-3.19,-0.75,-3.19,-0.74,0.74,0.75,-2.44,-2.44,-2.44
243.05,-3.19,-0.74,-3.19,-0.74,0.74,0.74,-2.44,-2.44,-2.44
245.48,-3.19,-0.74,-3.19,-0.74,0.74,0.74,-2.45,-2.45,-2.44
247.93,-3.19,-0.74,-3.19,-0.74,0.74,0.73,-2.45,-2.45,-2.44
250.41,-3.19,-0.74,-3.19,-0.74,0.74,0.72,-2.45,-2.45,-2.44
252.92,-3.19,-0.74,-3.19,-0.74,0.74,0.72,-2.45,-2.45,-2.44
255.45,-3.19,-0.74,-3.19,-0.74,0.74,0.71,-2.45,-2.45,-2.44
258.00,-3.19,-0.74,-3.19,-0.74,0.74,0.71,-2.45,-2.45,-2.45
260.58,-3.19,-0.74,-3.19,-0.74,0.74,0.70,-2.45,-2.45,-2.45
263.19,-3.19,-0.74,-3.19,-0.73,0.73,0.70,-2.45,-2.45,-2.45
265.82,-3.19,-0.73,-3.19,-0.73,0.73,0.69,-2.45,-2.45,-2.45
268.48,-3.19,-0.73,-3.19,-0.74,0.74,0.69,-2.45,-2.45,-2.45
271.16,-3.19,-0.73,-3.19,-0.74,0.74,0.69,-2.45,-2.45,-2.45
273.87,-3.19,-0.74,-3.19,-0.74,0.74,0.68,-2.45,-2.45,-2.45
276.61,-3.19,-0.74,-3.19,-0.74,0.74,0.68,-2.44,-2.44,-2.45
279.38,-3.19,-0.74,-3.19,-0.75,0.75,0.68,-2.44,-2.44,-2.44
282.17,-3.19,-0.75,-3.19,-0.76,0.76,0.68,-2.43,-2.43,-2.44
284.99,-3.19,-0.76,-3.19,-0.77,0.77,0.68,-2.42,-2.42,-2.43
287.84,-3.19,-0.77,-3.19,-0.77,0.77,0.68,-2.41,-2.41,-2.42
290.72,-3.19,-0.78,-3.20,-0.78,0.78,0.68,-2.40,-2.41,-2.41
293.63,-3.19,-0.79,-3.20,-0.79,0.79,0.68,-2.39,-2.41,-2.40
296.57,-3.19,-0.80,-3.21,-0.80,0.80,0.68,-2.38,-2.40,-2.39
299.53,-3.19,-0.81,-3.20,-0.81,0.81,0.68,-2.37,-2.39,-2.37
302.53,-3.19,-0.83,-3.19,-0.82,0.82,0.68,-2.37,-2.38,-2.36
305.55,-3.19,-0.84,-3.18,-0.82,0.82,0.68,-2.36,-2.36,-2.34
308.61,-3.19,-0.86,-3.17,-0.82,0.82,0.68,-2.36,-2.35,-2.33
311.69,-3.19,-0.88,-3.15,-0.82,0.82,0.69,-2.37,-2.33,-2.31
314.81,-3.19,-0.89,-3.13,-0.82,0.82,0.69,-2.37,-2.31,-2.29
317.96,-3.19,-0.91,-3.11,-0.82,0.82,0.70,-2.37,-2.29,-2.28
321.14,-3.18,-0.92,-3.09,-0.81,0.81,0.70,-2.37,-2.28,-2.26
324.35,-3.01,-0.76,-3.07,-0.81,0.81,0.71,-2.20,-2.26,-2.24
327.59,-2.96,-0.73,-3.04,-0.80,0.80,0.71,-2.15,-2.24,-2.23
330.87,-2.96,-0.75,-3.02,-0.80,0.80,0.72,-2.16,-2.22,-2.21
334.18,-2.96,-0.76,-3.00,-0.80,0.80,0.73,-2.16,-2.20,-2.19
337.52,-2.96,-0.78,-2.98,-0.80,0.80,0.73,-2.16,-2.18,-2.18
340.90,-2.96,-0.80,-2.97,-0.81,0.81,0.74,-2.15,-2.16,-2.16
344.30,-2.96,-0.82,-2.95,-0.81,0.81,0.75,-2.14,-2.14,-2.14
347.75,-2.96,-0.84,-2.95,-0.83,0.83,0.76,-2.13,-2.12,-2.12
351.23,-2.96,-0.86,-2.94,-0.84,0.84,0.77,-2.12,-2.10,-2.10
354.74,-2.96,-0.87,-2.94,-0.86,0.86,0.78,-2.10,-2.08,-2.08
358.28,-2.96,-0.89,-2.94,-0.88,0.88,0.79,-2.08,-2.07,-2.07
361.87,-2.96,-0.91,-2.96,-0.90,0.90,0.80,-2.06,-2.06,-2.05
365.49,-2.96,-0.92,-2.96,-0.92,0.92,0.82,-2.04,-2.04,-2.04
369.14,-2.96,-0.94,-2.96,-0.93,0.93,0.83,-2.02,-2.03,-2.02
372.83,-2.96,-0.95,-2.97,-0.95,0.95,0.84,-2.01,-2.02,-2.01
376.56,-2.96,-0.96,-2.98,-0.97,0.97,0.86,-1.99,-2.01,-1.99
380.33,-2.96,-0.98,-2.97,-0.98,0.98,0.87,-1.98,-2.00,-1.98
384.13,-2.96,-0.99,-2.97,-0.98,0.98,0.89,-1.98,-1.99,-1.97
387.97,-2.96,-1.00,-2.96,-0.98,0.98,0.90,-1.97,-1.97,-1.96
391.85,-2.96,-1.01,-2.94,-0.98,0.98,0.92,-1.98,-1.96,-1.95
395.77,-2.96,-1.02,-2.93,-0.97,0.97,0.93,-1.98,-1.95,-1.94
399.73,-2.96,-1.03,-2.91,-0.96,0.96,0.95,-1.99,-1.94,-1.93
403.72,-2.96,-1.04,-2.89,-0.95,0.95,0.97,-2.01,-1.94,-1.92
407.76,-2.96,-1.04,-2.86,-0.94,0.94,0.98,-2.02,-1.93,-1.91
411.84,-2.83,-0.92,-2.84,-0.92,0.92,1.00,-1.91,-1.92,-1.91
415.96,-2.74,-0.84,-2.82,-0.91,0.91,1.02,-1.83,-1.91,-1.90
420.12,-2.73,-0.83,-2.80,-0.89,0.89,1.03,-1.84,-1.91,-1.90
424.32,-2.73,-0.84,-2.78,-0.88,0.88,1.05,-1.85,-1.90,-1.89
428.56,-2.73,-0.84,-2.76,-0.87,0.87,1.07,-1.86,-1.89,-1.89
432.85,-2.73,-0.85,-2.74,-0.86,0.86,1.08,-1.86,-1.88,-1.88
437.18,-2.73,-0.85,-2.73,-0.86,0.86,1.10,-1.87,-1.87,-1.87
441.55,-2.73,-0.86,-2.72,-0.86,0.86,1.11,-1.86,-1.85,-1.87
445.96,-2.73,-0.87,-2.71,-0.87,0.87,1.13,-1.86,-1.84,-1.86
450.42,-2.73,-0.88,-2.72,-0.87,0.87,1.14,-1.86,-1.84,-1.85
454.93,-2.73,-0.89,-2.73,-0.88,0.88,1.15,-1.85,-1.85,-1.84
459.48,-2.73,-0.90,-2.74,-0.89,0.89,1.16,-1.84,-1.85,-1.83
464.07,-2.73,-0.91,-2.74,-0.90,0.90,1.17,-1.83,-1.84,-1.82
468.71,-2.73,-0.92,-2.74,-0.91,0.91,1.18,-1.82,-1.83,-1.81
473.40,-2.73,-0.93,-2.73,-0.91,0.91,1.18,-1.82,-1.82,-1.80
478.13,-2.73,-0.94,-2.71,-0.91,0.91,1.19,-1.82,-1.80,-1.78
482.91,-2.73,-0.96,-2.70,-0.91,0.91,1.19,-1.82,-1.79,-1.77
487.74,-2.73,-0.97,-2.68,-0.91,0.91,1.19,-1.82,-1.77,-1.76
492.62,-2.73,-0.98,-2.66,-0.90,0.90,1.19,-1.82,-1.75,-1.74
497.55,-2.73,-1.00,-2.64,-0.90,0.90,1.19,-1.83,-1.74,-1.73
502.52,-2.60,-0.88,-2.62,-0.90,0.90,1.18,-1.70,-1.72,-1.71
507.55,-2.52,-0.82,-2.60,-0.89,0.89,1.18,-1.63,-1.70,-1.70
512.62,-2.51,-0.83,-2.57,-0.89,0.89,1.17,-1.62,-1.68,-1.68
517.75,-2.51,-0.84,-2.56,-0.89,0.89,1.16,-1.62,-1.67,-1.67
522.93,-2.51,-0.86,-2.55,-0.89,0.89,1.15,-1.62,-1.66,-1.65
528.16,-2.51,-0.88,-2.54,-0.89,0.89,1.13,-1.61,-1.64,-1.63
533.44,-2.51,-0.90,-2.52,-0.90,0.90,1.12,-1.61,-1.62,-1.61
538.77,-2.51,-0.92,-2.51,-0.91,0.91,1.10,-1.60,-1.60,-1.59
544.16,-2.51,-0.94,-2.49,-0.91,0.91,1.08,-1.59,-1.58,-1.57
549.60,-2.51,-0.96,-2.47,-0.92,0.92,1.06,-1.59,-1.55,-1.55
555.10,-2.51,-0.98,-2.46,-0.93,0.93,1.04,-1.58,-1.53,-1.52
560.65,-2.51,-1.01,-2.45,-0.94,0.94,1.02,-1.57,-1.51,-1.50
566.25,-2.51,-1.04,-2.43,-0.95,0.95,1.00,-1.56,-1.48,-1.47
571.92,-2.51,-1.06,-2.41,-0.96,0.96,0.98,-1.55,-1.46,-1.45
577.64,-2.36,-0.94,-2.40,-0.97,0.97,0.95,-1.39,-1.43,-1.42
583.41,-2.29,-0.90,-2.38,-0.97,0.97,0.93,-1.31,-1.41,-1.39
589.25,-2.28,-0.91,-2.36,-0.98,0.98,0.90,-1.30,-1.39,-1.36
595.14,-2.28,-0.94,-2.34,-0.98,0.98,0.87,-1.30,-1.36,-1.34
601.09,-2.28,-0.97,-2.31,-0.98,0.98,0.85,-1.29,-1.33,-1.31
607.10,-2.28,-0.99,-2.28,-0.99,0.99,0.82,-1.29,-1.30,-1.29
613.17,-2.28,-1.02,-2.25,-0.99,0.99,0.80,-1.29,-1.27,-1.26
619.30,-2.28,-1.04,-2.23,-0.99,0.99,0.77,-1.29,-1.24,-1.24
625.50,-2.28,-1.07,-2.20,-0.99,0.99,0.74,-1.29,-1.21,-1.21
