frequency,raw,error,smoothed,error_smoothed,equalization,parametric_eq,fixed_band_eq,equalized_raw,equalized_smoothed,target
20.00,-15.57,-15.36,-15.57,-15.36,6.00,6.07,2.81,-9.57,-9.57,-0.21
20.20,-15.45,-15.28,-15.45,-15.28,6.00,6.07,2.89,-9.45,-9.45,-0.17
20.40,-15.32,-15.19,-15.32,-15.19,6.00,6.06,2.97,-9.32,-9.32,-0.13
20.61,-15.20,-15.10,-15.20,-15.10,6.00,6.06,3.06,-9.20,-9.20,-0.10
20.81,-15.07,-15.01,-15.07,-15.01,6.00,6.06,3.14,-9.07,-9.07,-0.06
21.02,-14.95,-14.93,-14.95,-14.92,6.00,6.06,3.24,-8.95,-8.95,-0.02
21.23,-14.83,-14.83,-14.82,-14.83,6.00,6.06,3.33,-8.83,-8.82,-0.00
21.44,-14.70,-14.72,-14.70,-14.72,6.00,6.06,3.42,-8.70,-8.70,0.02
21.66,-14.58,-14.62,-14.58,-14.61,6.00,6.06,3.52,-8.58,-8.58,0.04
21.87,-14.46,-14.51,-14.46,-14.51,6.00,6.06,3.62,-8.46,-8.46,0.05
22.09,-14.34,-14.41,-14.34,-14.40,6.00,6.06,3.72,-8.34,-8.34,0.07
22.31,-14.22,-14.29,-14.21,-14.29,6.00,6.05,3.83,-8.22,-8.21,0.08
22.54,-14.09,-14.18,-14.09,-14.18,6.00,6.05,3.93,-8.09,-8.09,0.09
22.76,-13.97,-14.06,-13.97,-14.06,6.00,6.05,4.05,-7.97,-7.97,0.10
22.99,-13.85,-13.95,-13.85,-13.94,6.00,6.05,4.16,-7.85,-7.85,0.10
23.22,-13.72,-13.83,-13.72,-13.83,6.00,6.05,4.28,-7.72,-7.72,0.11
23.45,-13.60,-13.71,-13.60,-13.71,6.00,6.05,4.40,-7.60,-7.60,0.12
23.69,-13.48,-13.61,-13.48,-13.60,6.00,6.05,4.52,-7.48,-7.48,0.12
23.92,-13.36,-13.49,-13.36,-13.50,6.00,6.04,4.64,-7.36,-7.36,0.13
24.16,-13.24,-13.39,-13.24,-13.39,6.00,6.04,4.77,-7.24,-7.24,0.15
24.40,-13.12,-13.29,-13.12,-13.28,6.00,6.04,4.90,-7.12,-7.12,0.17
24.65,-13.00,-13.17,-13.00,-13.17,6.00,6.04,5.03,-7.00,-7.00,0.17
24.89,-12.88,-13.06,-12.88,-13.06,6.00,6.04,5.16,-6.88,-6.88,0.18
25.14,-12.76,-12.95,-12.76,-12.95,6.00,6.04,5.30,-6.76,-6.76,0.19
25.39,-12.65,-12.85,-12.64,-12.85,6.00,6.03,5.43,-6.65,-6.64,0.20
25.65,-12.53,-12.75,-12.53,-12.74,6.00,6.03,5.57,-6.53,-6.53,0.22
25.91,-12.41,-12.63,-12.41,-12.64,6.00,6.03,5.70,-6.41,-6.41,0.22
26.16,-12.30,-12.53,-12.30,-12.53,6.00,6.03,5.84,-6.30,-6.30,0.23
26.43,-12.18,-12.42,-12.18,-12.42,6.00,6.03,5.98,-6.18,-6.18,0.24
26.69,-12.07,-12.32,-12.07,-12.32,6.00,6.02,6.11,-6.07,-6.07,0.25
26.96,-11.96,-12.23,-11.96,-12.23,6.00,6.02,6.25,-5.96,-5.96,0.27
27.23,-11.85,-12.13,-11.85,-12.12,6.00,6.02,6.38,-5.85,-5.85,0.28
27.50,-11.73,-12.02,-11.73,-12.02,6.00,6.02,6.51,-5.73,-5.73,0.29
27.77,-11.62,-11.90,-11.62,-11.91,6.00,6.01,6.63,-5.62,-5.62,0.29
28.05,-11.51,-11.81,-11.51,-11.81,6.00,6.01,6.75,-5.51,-5.51,0.31
28.33,-11.40,-11.70,-11.40,-11.71,6.00,6.01,6.87,-5.40,-5.40,0.30
28.62,-11.29,-11.60,-11.29,-11.60,6.00,6.01,6.98,-5.29,-5.29,0.31
28.90,-11.19,-11.51,-11.19,-11.51,6.00,6.00,7.08,-5.19,-5.19,0.32
29.19,-11.08,-11.40,-11.08,-11.41,6.00,6.00,7.18,-5.08,-5.08,0.32
29.48,-10.98,-11.33,-10.98,-11.32,6.00,6.00,7.26,-4.98,-4.98,0.35
29.78,-10.88,-11.23,-10.88,-11.23,6.00,6.00,7.34,-4.88,-4.88,0.35
30.08,-10.79,-11.15,-10.79,-11.15,6.00,5.99,7.41,-4.79,-4.79,0.36
30.38,-10.70,-11.06,-10.70,-11.06,6.00,5.99,7.47,-4.70,-4.70,0.36
30.68,-10.62,-11.00,-10.62,-10.99,6.00,5.99,7.51,-4.62,-4.62,0.38
30.99,-10.53,-10.91,-10.54,-10.91,6.00,5.98,7.55,-4.53,-4.54,0.38
31.30,-10.46,-10.84,-10.46,-10.84,6.00,5.98,7.57,-4.46,-4.46,0.38
31.61,-10.38,-10.77,-10.38,-10.77,6.00,5.98,7.59,-4.38,-4.38,0.39
31.93,-10.30,-10.70,-10.30,-10.70,6.00,5.97,7.59,-4.30,-4.30,0.40
32.24,-10.23,-10.63,-10.22,-10.63,6.00,5.97,7.58,-4.23,-4.22,0.40
32.57,-10.15,-10.57,-10.15,-10.57,6.00,5.96,7.56,-4.15,-4.15,0.42
32.89,-10.08,-10.51,-10.08,-10.51,6.00,5.96,7.53,-4.08,-4.08,0.43
33.22,-10.02,-10.46,-10.01,-10.45,6.00,5.96,7.49,-4.02,-4.01,0.44
33.55,-9.95,-10.39,-9.95,-10.39,6.00,5.95,7.45,-3.95,-3.95,0.44
33.89,-9.88,-10.33,-9.88,-10.33,6.00,5.95,7.39,-3.88,-3.88,0.45
34.23,-9.81,-10.27,-9.81,-10.27,6.00,5.94,7.33,-3.81,-3.81,0.46
34.57,-9.74,-10.21,-9.74,-10.21,6.00,5.94,7.26,-3.74,-3.74,0.47
34.92,-9.67,-10.14,-9.67,-10.14,6.00,5.93,7.19,-3.67,-3.67,0.47
35.27,-9.59,-10.07,-9.59,-10.07,6.00,5.93,7.11,-3.59,-3.59,0.48
35.62,-9.52,-10.00,-9.52,-10.00,6.00,5.92,7.03,-3.52,-3.52,0.48
35.97,-9.45,-9.93,-9.44,-9.93,6.00,5.92,6.94,-3.45,-3.44,0.48
36.33,-9.37,-9.86,-9.37,-9.86,6.00,5.91,6.86,-3.37,-3.37,0.49
36.70,-9.30,-9.79,-9.30,-9.79,6.00,5.90,6.77,-3.30,-3.30,0.49
37.06,-9.23,-9.72,-9.22,-9.72,6.00,5.90,6.68,-3.23,-3.22,0.49
37.43,-9.14,-9.64,-9.14,-9.64,6.00,5.89,6.59,-3.14,-3.14,0.50
37.81,-9.06,-9.56,-9.06,-9.56,6.00,5.89,6.50,-3.06,-3.06,0.50
38.19,-8.98,-9.48,-8.98,-9.48,6.00,5.88,6.42,-2.98,-2.98,0.50
38.57,-8.90,-9.39,-8.90,-9.39,6.00,5.87,6.33,-2.90,-2.90,0.49
38.95,-8.82,-9.31,-8.82,-9.31,6.00,5.86,6.25,-2.82,-2.82,0.49
39.34,-8.74,-9.23,-8.74,-9.22,6.00,5.86,6.17,-2.74,-2.74,0.49
39.74,-8.65,-9.14,-8.65,-9.14,6.00,5.85,6.09,-2.65,-2.65,0.49
40.14,-8.57,-9.06,-8.57,-9.06,6.00,5.84,6.02,-2.57,-2.57,0.49
40.54,-8.49,-8.98,-8.49,-8.97,6.00,5.83,5.94,-2.49,-2.49,0.49
40.94,-8.40,-8.88,-8.40,-8.89,6.00,5.82,5.88,-2.40,-2.40,0.49
41.35,-8.32,-8.80,-8.32,-8.80,6.00,5.82,5.81,-2.32,-2.32,0.48
41.76,-8.23,-8.72,-8.23,-8.72,6.00,5.81,5.75,-2.23,-2.23,0.49
42.18,-8.15,-8.64,-8.15,-8.64,6.00,5.80,5.69,-2.15,-2.15,0.49
42.60,-8.07,-8.56,-8.07,-8.57,6.00,5.79,5.64,-2.07,-2.07,0.49
43.03,-8.00,-8.50,-8.00,-8.49,6.00,5.78,5.59,-2.00,-2.00,0.50
43.46,-7.93,-8.42,-7.93,-8.42,6.00,5.77,5.55,-1.93,-1.93,0.49
43.90,-7.86,-8.34,-7.86,-8.34,6.00,5.76,5.51,-1.86,-1.86,0.48
44.33,-7.79,-8.27,-7.79,-8.27,6.00,5.74,5.47,-1.79,-1.79,0.48
44.78,-7.72,-8.20,-7.72,-8.20,6.00,5.73,5.44,-1.72,-1.72,0.48
45.23,-7.65,-8.12,-7.65,-8.12,6.00,5.72,5.41,-1.65,-1.65,0.47
45.68,-7.58,-8.06,-7.58,-8.06,6.00,5.71,5.39,-1.58,-1.58,0.48
46.13,-7.52,-7.99,-7.52,-8.00,6.00,5.69,5.37,-1.52,-1.52,0.47
46.60,-7.47,-7.96,-7.46,-7.94,6.00,5.68,5.35,-1.47,-1.46,0.49
47.06,-7.41,-7.89,-7.41,-7.89,6.00,5.67,5.34,-1.41,-1.41,0.48
47.53,-7.35,-7.82,-7.35,-7.83,6.00,5.65,5.33,-1.35,-1.35,0.47
48.01,-7.29,-7.78,-7.29,-7.77,6.00,5.64,5.33,-1.29,-1.29,0.49
48.49,-7.23,-7.70,-7.23,-7.70,6.00,5.62,5.33,-1.23,-1.23,0.47
48.97,-7.17,-7.62,-7.17,-7.63,6.00,5.61,5.33,-1.17,-1.17,0.45
49.46,-7.10,-7.55,-7.10,-7.54,6.00,5.59,5.33,-1.10,-1.10,0.45
49.96,-7.03,-7.46,-7.03,-7.46,6.00,5.57,5.34,-1.03,-1.03,0.43
50.46,-6.95,-7.38,-6.95,-7.38,6.00,5.56,5.35,-0.95,-0.95,0.43
50.96,-6.87,-7.29,-6.87,-7.29,6.00,5.54,5.37,-0.87,-0.87,0.42
51.47,-6.79,-7.18,-6.79,-7.19,6.00,5.52,5.38,-0.79,-0.79,0.40
51.99,-6.71,-7.10,-6.71,-7.10,6.00,5.50,5.40,-0.71,-0.71,0.39
52.51,-6.62,-7.01,-6.62,-7.00,6.00,5.48,5.42,-0.62,-0.62,0.39
53.03,-6.53,-6.90,-6.53,-6.90,6.00,5.46,5.43,-0.53,-0.53,0.37
53.56,-6.44,-6.80,-6.44,-6.80,6.00,5.44,5.45,-0.44,-0.44,0.36
54.10,-6.35,-6.69,-6.35,-6.70,6.00,5.41,5.47,-0.35,-0.35,0.34
54.64,-6.27,-6.60,-6.27,-6.59,6.01,5.39,5.49,-0.26,-0.25,0.33
55.18,-6.18,-6.49,-6.18,-6.49,6.02,5.37,5.51,-0.16,-0.16,0.31
55.74,-6.08,-6.37,-6.08,-6.38,6.02,5.34,5.53,-0.06,-0.07,0.29
56.29,-5.99,-6.28,-5.99,-6.27,6.01,5.31,5.54,0.02,0.02,0.29
56.86,-5.89,-6.16,-5.89,-6.16,5.98,5.29,5.55,0.09,0.09,0.27
57.42,-5.80,-6.04,-5.80,-6.04,5.95,5.26,5.56,0.15,0.15,0.24
58.00,-5.70,-5.93,-5.70,-5.93,5.89,5.23,5.57,0.20,0.19,0.23
58.58,-5.61,-5.83,-5.61,-5.83,5.83,5.20,5.57,0.22,0.22,0.22
59.16,-5.53,-5.73,-5.53,-5.74,5.75,5.17,5.57,0.22,0.22,0.21
59.76,-5.46,-5.65,-5.45,-5.64,5.66,5.13,5.56,0.20,0.20,0.19
60.35,-5.38,-5.55,-5.38,-5.55,5.56,5.10,5.55,0.18,0.18,0.17
60.96,-5.31,-5.45,-5.31,-5.45,5.46,5.06,5.53,0.15,0.15,0.14
61.57,-5.24,-5.35,-5.24,-5.35,5.35,5.03,5.50,0.11,0.12,0.11
62.18,-5.17,-5.24,-5.18,-5.26,5.26,4.99,5.47,0.09,0.08,0.07
62.80,-5.12,-5.18,-5.11,-5.16,5.17,4.95,5.44,0.05,0.05,0.06
63.43,-5.06,-5.08,-5.05,-5.08,5.08,4.91,5.40,0.02,0.03,0.02
64.07,-4.99,-4.98,-5.00,-4.99,4.99,4.86,5.35,0.00,-0.00,-0.01
64.71,-4.94,-4.91,-4.94,-4.90,4.91,4.82,5.30,-0.03,-0.03,-0.03
65.35,-4.89,-4.83,-4.89,-4.82,4.83,4.77,5.24,-0.06,-0.06,-0.06
66.01,-4.83,-4.74,-4.83,-4.75,4.74,4.72,5.18,-0.09,-0.09,-0.09
66.67,-4.78,-4.67,-4.78,-4.66,4.66,4.66,5.11,-0.12,-0.12,-0.11
67.33,-4.72,-4.58,-4.72,-4.58,4.58,4.61,5.03,-0.14,-0.14,-0.14
68.01,-4.66,-4.49,-4.66,-4.49,4.49,4.55,4.95,-0.17,-0.17,-0.17
68.69,-4.60,-4.40,-4.60,-4.40,4.40,4.49,4.87,-0.20,-0.20,-0.20
69.37,-4.55,-4.32,-4.54,-4.31,4.31,4.42,4.79,-0.24,-0.23,-0.23
70.07,-4.48,-4.22,-4.48,-4.22,4.22,4.35,4.70,-0.26,-0.26,-0.26
70.77,-4.41,-4.12,-4.41,-4.13,4.12,4.28,4.60,-0.29,-0.29,-0.29
71.48,-4.34,-4.03,-4.34,-4.03,4.03,4.21,4.51,-0.31,-0.31,-0.31
72.19,-4.27,-3.93,-4.27,-3.93,3.93,4.13,4.41,-0.34,-0.34,-0.34
72.91,-4.20,-3.83,-4.20,-3.83,3.84,4.04,4.32,-0.36,-0.36,-0.37
73.64,-4.13,-3.74,-4.13,-3.74,3.74,3.95,4.22,-0.39,-0.39,-0.39
74.38,-4.06,-3.65,-4.06,-3.65,3.64,3.86,4.12,-0.42,-0.42,-0.41
75.12,-3.99,-3.56,-3.98,-3.55,3.54,3.76,4.02,-0.44,-0.44,-0.43
75.87,-3.90,-3.45,-3.90,-3.45,3.45,3.65,3.92,-0.45,-0.45,-0.45
76.63,-3.82,-3.35,-3.82,-3.35,3.35,3.55,3.82,-0.46,-0.47,-0.47
77.40,-3.74,-3.26,-3.74,-3.26,3.26,3.43,3.72,-0.48,-0.48,-0.48
78.17,-3.67,-3.17,-3.67,-3.17,3.17,3.32,3.62,-0.50,-0.49,-0.50
78.95,-3.60,-3.09,-3.60,-3.09,3.09,3.21,3.52,-0.51,-0.51,-0.51
79.74,-3.53,-3.01,-3.53,-3.01,3.01,3.09,3.43,-0.52,-0.52,-0.52
80.54,-3.47,-2.94,-3.47,-2.94,2.93,2.98,3.33,-0.54,-0.53,-0.53
81.35,-3.41,-2.87,-3.41,-2.87,2.87,2.88,3.24,-0.54,-0.54,-0.54
82.16,-3.35,-2.80,-3.35,-2.80,2.81,2.79,3.15,-0.54,-0.55,-0.55
82.98,-3.31,-2.75,-3.31,-2.75,2.75,2.70,3.06,-0.56,-0.55,-0.55
83.81,-3.27,-2.70,-3.27,-2.70,2.71,2.64,2.97,-0.56,-0.56,-0.57
84.65,-3.24,-2.66,-3.24,-2.67,2.67,2.58,2.88,-0.57,-0.57,-0.58
85.50,-3.22,-2.65,-3.21,-2.64,2.64,2.55,2.80,-0.58,-0.58,-0.57
86.35,-3.19,-2.61,-3.19,-2.61,2.61,2.52,2.71,-0.58,-0.58,-0.58
87.22,-3.17,-2.59,-3.17,-2.59,2.59,2.52,2.63,-0.58,-0.58,-0.58
88.09,-3.16,-2.57,-3.16,-2.58,2.57,2.52,2.55,-0.58,-0.58,-0.59
88.97,-3.15,-2.57,-3.15,-2.56,2.56,2.53,2.48,-0.58,-0.58,-0.58
89.86,-3.14,-2.56,-3.14,-2.56,2.56,2.54,2.40,-0.58,-0.58,-0.58
90.76,-3.14,-2.55,-3.14,-2.55,2.56,2.56,2.33,-0.58,-0.58,-0.59
91.66,-3.14,-2.55,-3.14,-2.55,2.56,2.58,2.26,-0.58,-0.58,-0.59
92.58,-3.15,-2.55,-3.15,-2.56,2.56,2.60,2.19,-0.59,-0.59,-0.60
93.51,-3.16,-2.57,-3.16,-2.57,2.56,2.61,2.12,-0.60,-0.60,-0.58
94.44,-3.16,-2.57,-3.16,-2.57,2.56,2.62,2.05,-0.60,-0.60,-0.59
95.39,-3.16,-2.57,-3.16,-2.57,2.56,2.63,1.99,-0.60,-0.60,-0.59
96.34,-3.16,-2.55,-3.16,-2.55,2.55,2.64,1.93,-0.60,-0.60,-0.61
97.30,-3.16,-2.54,-3.16,-2.54,2.55,2.64,1.87,-0.61,-0.61,-0.62
98.28,-3.16,-2.53,-3.16,-2.54,2.55,2.63,1.81,-0.61,-0.62,-0.63
99.26,-3.17,-2.54,-3.17,-2.53,2.54,2.62,1.75,-0.63,-0.63,-0.63
100.25,-3.17,-2.53,-3.17,-2.53,2.53,2.61,1.69,-0.64,-0.64,-0.64
101.25,-3.18,-2.53,-3.18,-2.52,2.52,2.59,1.64,-0.66,-0.66,-0.65
102.27,-3.18,-2.51,-3.18,-2.51,2.51,2.57,1.58,-0.67,-0.67,-0.67
103.29,-3.18,-2.49,-3.18,-2.50,2.49,2.54,1.53,-0.69,-0.69,-0.69
104.32,-3.18,-2.48,-3.17,-2.47,2.46,2.51,1.48,-0.72,-0.71,-0.70
105.37,-3.16,-2.44,-3.16,-2.44,2.43,2.47,1.42,-0.73,-0.73,-0.72
106.42,-3.14,-2.39,-3.14,-2.40,2.39,2.43,1.38,-0.75,-0.75,-0.75
107.48,-3.12,-2.35,-3.12,-2.34,2.34,2.39,1.33,-0.78,-0.77,-0.77
108.56,-3.09,-2.28,-3.09,-2.29,2.29,2.34,1.28,-0.80,-0.80,-0.81
109.64,-3.06,-2.22,-3.06,-2.23,2.23,2.28,1.23,-0.83,-0.83,-0.84
110.74,-3.04,-2.17,-3.03,-2.16,2.16,2.22,1.18,-0.88,-0.87,-0.87
111.85,-3.00,-2.09,-3.00,-2.10,2.09,2.16,1.14,-0.90,-0.91,-0.90
112.97,-2.97,-2.02,-2.97,-2.02,2.02,2.09,1.09,-0.95,-0.94,-0.95
114.10,-2.93,-1.95,-2.93,-1.94,1.95,2.01,1.04,-0.98,-0.98,-0.98
115.24,-2.89,-1.86,-2.90,-1.87,1.87,1.93,1.00,-1.02,-1.03,-1.03
116.39,-2.87,-1.79,-2.87,-1.79,1.79,1.85,0.95,-1.08,-1.08,-1.08
117.55,-2.84,-1.72,-2.83,-1.71,1.71,1.76,0.91,-1.13,-1.12,-1.12
118.73,-2.78,-1.62,-2.78,-1.62,1.63,1.68,0.86,-1.15,-1.16,-1.16
119.92,-2.73,-1.54,-2.73,-1.53,1.55,1.58,0.82,-1.18,-1.19,-1.19
121.12,-2.68,-1.44,-2.69,-1.45,1.46,1.49,0.77,-1.22,-1.22,-1.24
122.33,-2.65,-1.38,-2.65,-1.38,1.38,1.39,0.72,-1.27,-1.27,-1.27
123.55,-2.61,-1.31,-2.60,-1.30,1.29,1.29,0.68,-1.32,-1.31,-1.30
124.79,-2.55,-1.21,-2.55,-1.21,1.20,1.18,0.63,-1.35,-1.34,-1.33
126.03,-2.48,-1.11,-2.50,-1.12,1.11,1.08,0.58,-1.37,-1.38,-1.37
127.29,-2.44,-1.03,-2.43,-1.03,1.01,0.97,0.54,-1.42,-1.42,-1.40
128.57,-2.38,-0.93,-2.36,-0.92,0.92,0.87,0.49,-1.46,-1.44,-1.45
129.85,-2.28,-0.81,-2.28,-0.81,0.81,0.76,0.44,-1.46,-1.47,-1.47
131.15,-2.18,-0.67,-2.20,-0.70,0.71,0.66,0.39,-1.47,-1.49,-1.51
132.46,-2.14,-0.61,-2.12,-0.59,0.61,0.55,0.34,-1.53,-1.51,-1.53
133.79,-2.06,-0.51,-2.05,-0.50,0.50,0.44,0.29,-1.55,-1.55,-1.55
135.12,-1.97,-0.39,-1.98,-0.41,0.40,0.33,0.24,-1.57,-1.58,-1.58
136.48,-1.92,-0.32,-1.91,-0.30,0.30,0.22,0.19,-1.62,-1.61,-1.60
137.84,-1.83,-0.20,-1.84,-0.21,0.20,0.12,0.14,-1.63,-1.64,-1.63
139.22,-1.77,-0.11,-1.76,-0.10,0.10,0.01,0.09,-1.67,-1.66,-1.66
140.61,-1.69,0.00,-1.68,0.00,-0.00,-0.10,0.04,-1.69,-1.68,-1.69
142.02,-1.58,0.12,-1.60,0.11,-0.11,-0.21,-0.02,-1.69,-1.70,-1.70
143.44,-1.52,0.20,-1.51,0.21,-0.21,-0.32,-0.07,-1.73,-1.72,-1.72
144.87,-1.42,0.33,-1.42,0.32,-0.32,-0.42,-0.13,-1.74,-1.74,-1.74
146.32,-1.34,0.43,-1.34,0.42,-0.42,-0.53,-0.18,-1.76,-1.76,-1.77
147.78,-1.25,0.54,-1.26,0.54,-0.53,-0.64,-0.24,-1.78,-1.79,-1.79
149.26,-1.19,0.62,-1.18,0.64,-0.64,-0.75,-0.30,-1.83,-1.82,-1.81
150.75,-1.10,0.76,-1.10,0.75,-0.75,-0.86,-0.35,-1.85,-1.85,-1.86
152.26,-1.02,0.86,-1.02,0.86,-0.87,-0.96,-0.41,-1.89,-1.89,-1.88
153.78,-0.93,0.98,-0.93,0.98,-0.99,-1.07,-0.47,-1.91,-1.92,-1.91
155.32,-0.86,1.09,-0.84,1.10,-1.10,-1.18,-0.53,-1.96,-1.95,-1.95
156.88,-0.74,1.23,-0.75,1.23,-1.22,-1.29,-0.59,-1.96,-1.97,-1.97
158.44,-0.66,1.35,-0.66,1.35,-1.34,-1.39,-0.66,-2.00,-2.00,-2.00
160.03,-0.56,1.49,-0.57,1.47,-1.46,-1.50,-0.72,-2.02,-2.04,-2.05
161.63,-0.50,1.59,-0.50,1.59,-1.59,-1.61,-0.78,-2.08,-2.08,-2.09
163.24,-0.43,1.69,-0.41,1.70,-1.71,-1.72,-0.85,-2.13,-2.12,-2.12
164.88,-0.32,1.83,-0.33,1.82,-1.82,-1.82,-0.92,-2.14,-2.16,-2.15
166.53,-0.24,1.95,-0.24,1.94,-1.94,-1.93,-0.98,-2.18,-2.19,-2.19
168.19,-0.17,2.06,-0.16,2.07,-2.06,-2.03,-1.05,-2.23,-2.22,-2.22
169.87,-0.07,2.19,-0.08,2.18,-2.18,-2.14,-1.12,-2.25,-2.26,-2.26
171.57,0.00,2.30,0.00,2.30,-2.30,-2.24,-1.19,-2.30,-2.30,-2.30
173.29,0.07,2.42,0.08,2.43,-2.43,-2.34,-1.26,-2.35,-2.34,-2.35
175.02,0.17,2.55,0.16,2.55,-2.55,-2.44,-1.34,-2.38,-2.39,-2.38
176.77,0.24,2.68,0.24,2.68,-2.67,-2.54,-1.41,-2.43,-2.43,-2.44
178.54,0.31,2.80,0.31,2.79,-2.80,-2.64,-1.49,-2.49,-2.49,-2.49
180.32,0.38,2.91,0.38,2.92,-2.93,-2.73,-1.56,-2.55,-2.54,-2.53
182.13,0.45,3.03,0.46,3.04,-3.05,-2.82,-1.64,-2.60,-2.59,-2.58
183.95,0.56,3.19,0.55,3.18,-3.18,-2.91,-1.72,-2.62,-2.63,-2.63
185.79,0.63,3.30,0.63,3.31,-3.30,-3.00,-1.80,-2.67,-2.67,-2.67
187.65,0.70,3.44,0.70,3.43,-3.42,-3.08,-1.88,-2.72,-2.72,-2.74
189.52,0.76,3.54,0.76,3.54,-3.54,-3.16,-1.96,-2.77,-2.77,-2.78
191.42,0.82,3.64,0.82,3.65,-3.65,-3.23,-2.04,-2.83,-2.83,-2.82
193.33,0.88,3.75,0.88,3.74,-3.75,-3.30,-2.13,-2.87,-2.88,-2.86
195.27,0.93,3.84,0.93,3.84,-3.85,-3.36,-2.21,-2.92,-2.92,-2.91
197.22,0.98,3.94,0.98,3.94,-3.94,-3.42,-2.30,-2.96,-2.96,-2.96
199.19,1.02,4.03,1.02,4.03,-4.03,-3.48,-2.38,-3.00,-3.00,-3.01
201.18,1.06,4.11,1.06,4.11,-4.10,-3.52,-2.47,-3.04,-3.04,-3.05
203.19,1.08,4.16,1.08,4.16,-4.16,-3.56,-2.55,-3.08,-3.08,-3.08
205.23,1.09,4.22,1.09,4.21,-4.20,-3.60,-2.64,-3.11,-3.11,-3.13
207.28,1.08,4.23,1.09,4.24,-4.24,-3.63,-2.72,-3.16,-3.15,-3.15
209.35,1.07,4.27,1.06,4.27,-4.26,-3.65,-2.81,-3.18,-3.19,-3.20
211.44,1.03,4.28,1.03,4.26,-4.26,-3.67,-2.89,-3.23,-3.23,-3.25
213.56,0.97,4.25,0.97,4.24,-4.25,-3.68,-2.97,-3.28,-3.28,-3.28
215.69,0.91,4.20,0.91,4.21,-4.23,-3.68,-3.05,-3.32,-3.32,-3.29
217.85,0.84,4.17,0.85,4.19,-4.20,-3.68,-3.13,-3.36,-3.35,-3.33
220.03,0.80,4.17,0.79,4.16,-4.15,-3.67,-3.20,-3.35,-3.36,-3.37
222.23,0.72,4.12,0.72,4.11,-4.09,-3.66,-3.27,-3.37,-3.37,-3.40
224.45,0.62,4.03,0.61,4.03,-4.01,-3.64,-3.34,-3.39,-3.40,-3.41
226.70,0.49,3.92,0.49,3.93,-3.92,-3.62,-3.41,-3.43,-3.43,-3.43
228.96,0.35,3.81,0.37,3.82,-3.82,-3.59,-3.47,-3.47,-3.45,-3.46
231.25,0.25,3.71,0.23,3.70,-3.71,-3.55,-3.53,-3.46,-3.48,-3.46
233.57,0.11,3.59,0.10,3.58,-3.59,-3.52,-3.58,-3.48,-3.49,-3.48
235.90,-0.06,3.44,-0.04,3.45,-3.45,-3.47,-3.62,-3.51,-3.49,-3.50
238.26,-0.18,3.32,-0.19,3.32,-3.31,-3.43,-3.66,-3.49,-3.50,-3.50
240.64,-0.33,3.18,-0.32,3.18,-3.17,-3.38,-3.69,-3.50,-3.49,-3.51
243.05,-0.46,3.04,-0.47,3.03,-3.02,-3.33,-3.72,-3.48,-3.49,-3.50
245.48,-0.62,2.89,-0.63,2.88,-2.88,-3.28,-3.74,-3.49,-3.50,-3.51
247.93,-0.80,2.70,-0.78,2.73,-2.73,-3.22,-3.76,-3.53,-3.51,-3.50
250.41,-0.91,2.60,-0.93,2.58,-2.59,-3.17,-3.76,-3.50,-3.51,-3.51
252.92,-1.06,2.43,-1.05,2.44,-2.45,-3.11,-3.77,-3.51,-3.50,-3.49
255.45,-1.16,2.32,-1.16,2.32,-2.33,-3.05,-3.76,-3.49,-3.49,-3.48
258.00,-1.25,2.22,-1.26,2.21,-2.21,-2.99,-3.74,-3.46,-3.47,-3.47
260.58,-1.36,2.11,-1.35,2.11,-2.11,-2.93,-3.72,-3.47,-3.46,-3.46
263.19,-1.42,2.03,-1.43,2.03,-2.03,-2.87,-3.70,-3.45,-3.45,-3.45
265.82,-1.49,1.95,-1.48,1.95,-1.96,-2.81,-3.66,-3.45,-3.44,-3.44
268.48,-1.52,1.90,-1.52,1.90,-1.91,-2.74,-3.63,-3.43,-3.43,-3.42
271.16,-1.54,1.86,-1.54,1.86,-1.87,-2.68,-3.58,-3.41,-3.41,-3.40
273.87,-1.55,1.84,-1.55,1.84,-1.84,-2.62,-3.54,-3.39,-3.39,-3.39
276.61,-1.54,1.83,-1.54,1.83,-1.83,-2.56,-3.48,-3.37,-3.37,-3.37
279.38,-1.52,1.84,-1.53,1.83,-1.83,-2.51,-3.43,-3.35,-3.36,-3.36
282.17,-1.50,1.84,-1.50,1.84,-1.84,-2.45,-3.36,-3.34,-3.34,-3.34
284.99,-1.48,1.85,-1.47,1.86,-1.86,-2.39,-3.30,-3.34,-3.33,-3.33
287.84,-1.42,1.90,-1.42,1.89,-1.89,-2.34,-3.23,-3.31,-3.31,-3.32
290.72,-1.37,1.93,-1.38,1.92,-1.92,-2.28,-3.17,-3.29,-3.30,-3.30
293.63,-1.33,1.95,-1.32,1.96,-1.96,-2.23,-3.09,-3.29,-3.28,-3.28
296.57,-1.28,1.99,-1.28,2.00,-2.00,-2.18,-3.02,-3.28,-3.27,-3.27
299.53,-1.22,2.04,-1.22,2.03,-2.04,-2.12,-2.95,-3.25,-3.26,-3.26
302.53,-1.17,2.08,-1.17,2.07,-2.07,-2.07,-2.87,-3.24,-3.24,-3.25
305.55,-1.12,2.10,-1.12,2.11,-2.11,-2.03,-2.80,-3.23,-3.22,-3.22
308.61,-1.07,2.15,-1.07,2.15,-2.14,-1.98,-2.72,-3.21,-3.21,-3.21
311.69,-1.02,2.19,-1.02,2.17,-2.17,-1.93,-2.65,-3.19,-3.19,-3.21
314.81,-0.99,2.19,-0.99,2.20,-2.19,-1.89,-2.57,-3.18,-3.19,-3.18
317.96,-0.97,2.21,-0.97,2.21,-2.22,-1.85,-2.50,-3.19,-3.19,-3.18
321.14,-0.95,2.22,-0.94,2.23,-2.24,-1.80,-2.42,-3.19,-3.19,-3.17
324.35,-0.92,2.26,-0.92,2.25,-2.26,-1.76,-2.35,-3.18,-3.18,-3.17
327.59,-0.89,2.27,-0.89,2.27,-2.27,-1.72,-2.27,-3.16,-3.16,-3.16
330.87,-0.87,2.29,-0.87,2.29,-2.28,-1.69,-2.20,-3.15,-3.15,-3.16
334.18,-0.85,2.31,-0.85,2.30,-2.29,-1.65,-2.13,-3.13,-3.14,-3.16
337.52,-0.85,2.30,-0.85,2.30,-2.28,-1.61,-2.06,-3.13,-3.14,-3.15
340.90,-0.86,2.28,-0.86,2.28,-2.28,-1.58,-1.99,-3.14,-3.14,-3.14
344.30,-0.89,2.25,-0.89,2.26,-2.27,-1.55,-1.92,-3.16,-3.15,-3.14
347.75,-0.91,2.24,-0.91,2.24,-2.25,-1.51,-1.86,-3.16,-3.16,-3.14
351.23,-0.93,2.22,-0.93,2.22,-2.23,-1.48,-1.79,-3.16,-3.16,-3.15
354.74,-0.94,2.21,-0.94,2.21,-2.20,-1.45,-1.73,-3.14,-3.15,-3.15
358.28,-0.97,2.19,-0.97,2.18,-2.17,-1.43,-1.67,-3.14,-3.14,-3.16
361.87,-1.01,2.15,-1.01,2.15,-2.14,-1.40,-1.60,-3.15,-3.15,-3.16
365.49,-1.06,2.10,-1.06,2.11,-2.10,-1.37,-1.54,-3.16,-3.16,-3.16
369.14,-1.11,2.06,-1.11,2.06,-2.06,-1.35,-1.49,-3.17,-3.17,-3.17
372.83,-1.16,2.01,-1.16,2.02,-2.02,-1.32,-1.43,-3.18,-3.18,-3.17
376.56,-1.21,1.97,-1.21,1.97,-1.97,-1.30,-1.37,-3.18,-3.18,-3.18
380.33,-1.26,1.93,-1.26,1.93,-1.93,-1.28,-1.32,-3.19,-3.19,-3.18
384.13,-1.32,1.88,-1.32,1.88,-1.88,-1.26,-1.27,-3.20,-3.20,-3.20
387.97,-1.37,1.84,-1.37,1.83,-1.83,-1.24,-1.21,-3.20,-3.20,-3.21
391.85,-1.43,1.79,-1.43,1.78,-1.78,-1.22,-1.16,-3.21,-3.21,-3.22
395.77,-1.48,1.73,-1.48,1.74,-1.74,-1.20,-1.11,-3.21,-3.21,-3.21
399.73,-1.53,1.69,-1.53,1.69,-1.69,-1.18,-1.07,-3.22,-3.22,-3.22
403.72,-1.58,1.65,-1.58,1.65,-1.64,-1.17,-1.02,-3.22,-3.22,-3.23
407.76,-1.63,1.61,-1.63,1.60,-1.60,-1.15,-0.98,-3.23,-3.23,-3.24
411.84,-1.69,1.54,-1.68,1.55,-1.56,-1.14,-0.93,-3.25,-3.25,-3.23
415.96,-1.73,1.51,-1.73,1.51,-1.53,-1.12,-0.89,-3.26,-3.25,-3.24
420.12,-1.76,1.48,-1.76,1.48,-1.49,-1.11,-0.85,-3.25,-3.25,-3.24
424.32,-1.79,1.45,-1.79,1.46,-1.46,-1.10,-0.81,-3.25,-3.24,-3.24
428.56,-1.81,1.44,-1.81,1.44,-1.43,-1.09,-0.78,-3.24,-3.24,-3.25
432.85,-1.84,1.41,-1.84,1.41,-1.39,-1.08,-0.74,-3.23,-3.24,-3.25
