frequency,raw,smoothed,error,error_smoothed,equalization,parametric_eq,fixed_band_eq,equalized_raw,equalized_smoothed,target
20.00,-16.97,-16.97,-23.70,-23.70,6.00,6.10,2.69,-10.97,-10.97,6.73
20.20,-16.79,-16.79,-23.55,-23.55,6.00,6.10,2.77,-10.79,-10.79,6.76
20.40,-16.62,-16.61,-23.41,-23.40,6.00,6.10,2.85,-10.62,-10.61,6.79
20.61,-16.44,-16.43,-23.25,-23.25,6.00,6.10,2.93,-10.44,-10.43,6.81
20.81,-16.26,-16.26,-23.10,-23.10,6.00,6.10,3.01,-10.26,-10.26,6.84
21.02,-16.09,-16.10,-22.96,-22.96,6.00,6.10,3.10,-10.09,-10.10,6.87
21.23,-15.96,-15.95,-22.84,-22.83,6.00,6.10,3.18,-9.96,-9.95,6.88
21.44,-15.83,-15.82,-22.71,-22.71,6.00,6.10,3.28,-9.83,-9.82,6.89
21.66,-15.70,-15.70,-22.60,-22.59,6.00,6.10,3.37,-9.70,-9.70,6.90
21.87,-15.57,-15.57,-22.46,-22.47,6.00,6.10,3.46,-9.57,-9.57,6.90
22.09,-15.44,-15.44,-22.34,-22.35,6.00,6.10,3.56,-9.44,-9.44,6.91
22.31,-15.33,-15.32,-22.23,-22.23,6.00,6.10,3.66,-9.33,-9.32,6.91
22.54,-15.22,-15.22,-22.12,-22.13,6.00,6.10,3.77,-9.22,-9.22,6.90
22.76,-15.11,-15.11,-22.01,-22.01,6.00,6.10,3.87,-9.11,-9.11,6.90
22.99,-15.01,-14.99,-21.90,-21.88,6.00,6.10,3.98,-9.01,-8.99,6.89
23.22,-14.84,-14.84,-21.73,-21.73,6.00,6.10,4.09,-8.84,-8.84,6.89
23.45,-14.67,-14.67,-21.56,-21.56,6.00,6.10,4.21,-8.67,-8.67,6.89
23.69,-14.50,-14.50,-21.39,-21.39,6.00,6.10,4.32,-8.50,-8.50,6.89
23.92,-14.33,-14.34,-21.22,-21.23,6.00,6.10,4.44,-8.33,-8.34,6.89
24.16,-14.19,-14.19,-21.09,-21.08,6.00,6.10,4.56,-8.19,-8.19,6.90
24.40,-14.06,-14.05,-20.95,-20.95,6.00,6.09,4.69,-8.06,-8.05,6.90
24.65,-13.93,-13.93,-20.82,-20.82,6.00,6.09,4.81,-7.93,-7.93,6.89
24.89,-13.81,-13.80,-20.69,-20.69,6.00,6.09,4.94,-7.81,-7.80,6.89
25.14,-13.68,-13.68,-20.56,-20.56,6.00,6.09,5.07,-7.68,-7.68,6.89
25.39,-13.55,-13.56,-20.43,-20.44,6.00,6.09,5.20,-7.55,-7.56,6.88
25.65,-13.43,-13.43,-20.31,-20.31,6.00,6.09,5.33,-7.43,-7.43,6.88
25.91,-13.31,-13.29,-20.18,-20.17,6.00,6.09,5.46,-7.31,-7.29,6.87
26.16,-13.12,-13.13,-20.00,-20.00,6.00,6.09,5.59,-7.12,-7.13,6.87
26.43,-12.93,-12.93,-19.80,-19.80,6.00,6.09,5.72,-6.93,-6.93,6.87
26.69,-12.73,-12.72,-19.60,-19.59,6.00,6.09,5.85,-6.73,-6.72,6.87
26.96,-12.52,-12.54,-19.39,-19.41,6.00,6.09,5.98,-6.52,-6.54,6.87
27.23,-12.38,-12.38,-19.25,-19.24,6.00,6.09,6.10,-6.38,-6.38,6.87
27.50,-12.24,-12.23,-19.10,-19.10,6.00,6.09,6.23,-6.24,-6.23,6.87
27.77,-12.11,-12.11,-18.96,-18.96,6.00,6.09,6.35,-6.11,-6.11,6.85
28.05,-11.98,-11.98,-18.83,-18.83,6.00,6.08,6.46,-5.98,-5.98,6.85
28.33,-11.86,-11.86,-18.70,-18.70,6.00,6.08,6.57,-5.86,-5.86,6.84
28.62,-11.73,-11.73,-18.57,-18.57,6.00,6.08,6.68,-5.73,-5.73,6.84
28.90,-11.61,-11.60,-18.44,-18.44,6.00,6.08,6.78,-5.61,-5.60,6.84
29.19,-11.47,-11.46,-18.29,-18.30,6.00,6.08,6.87,-5.47,-5.46,6.83
29.48,-11.32,-11.32,-18.15,-18.15,6.00,6.08,6.96,-5.32,-5.32,6.83
29.78,-11.17,-11.17,-17.99,-17.99,6.00,6.08,7.03,-5.17,-5.17,6.82
30.08,-11.02,-11.02,-17.84,-17.84,6.00,6.08,7.10,-5.02,-5.02,6.82
30.38,-10.86,-10.86,-17.67,-17.67,6.00,6.08,7.16,-4.86,-4.86,6.81
30.68,-10.70,-10.70,-17.50,-17.50,6.00,6.07,7.21,-4.70,-4.70,6.81
30.99,-10.54,-10.55,-17.33,-17.35,6.00,6.07,7.25,-4.54,-4.55,6.79
31.30,-10.41,-10.41,-17.20,-17.20,6.00,6.07,7.28,-4.41,-4.41,6.79
31.61,-10.28,-10.27,-17.07,-17.06,6.00,6.07,7.30,-4.28,-4.27,6.79
31.93,-10.15,-10.15,-16.93,-16.93,6.00,6.07,7.31,-4.15,-4.15,6.78
32.24,-10.02,-10.02,-16.78,-16.79,6.00,6.07,7.31,-4.02,-4.02,6.77
32.57,-9.90,-9.90,-16.66,-16.66,6.00,6.06,7.30,-3.90,-3.90,6.76
32.89,-9.77,-9.76,-16.53,-16.52,6.00,6.06,7.28,-3.77,-3.76,6.76
33.22,-9.62,-9.62,-16.36,-16.37,6.00,6.06,7.25,-3.62,-3.62,6.75
33.55,-9.47,-9.46,-16.21,-16.21,6.00,6.06,7.22,-3.47,-3.46,6.74
33.89,-9.31,-9.32,-16.04,-16.05,6.00,6.06,7.18,-3.31,-3.32,6.73
34.23,-9.18,-9.17,-15.91,-15.90,6.00,6.06,7.13,-3.18,-3.17,6.73
34.57,-9.05,-9.04,-15.76,-15.76,6.00,6.05,7.08,-3.05,-3.04,6.72
34.92,-8.93,-8.94,-15.63,-15.65,6.00,6.05,7.02,-2.93,-2.94,6.70
35.27,-8.87,-8.89,-15.57,-15.58,6.00,6.05,6.96,-2.87,-2.89,6.70
35.62,-8.82,-8.82,-15.50,-15.51,6.00,6.05,6.90,-2.82,-2.82,6.69
35.97,-8.76,-8.70,-15.44,-15.38,6.00,6.04,6.83,-2.76,-2.70,6.67
36.33,-8.49,-8.49,-15.16,-15.15,6.00,6.04,6.76,-2.49,-2.49,6.67
36.70,-8.22,-8.24,-14.87,-14.89,6.00,6.04,6.69,-2.22,-2.24,6.65
37.06,-7.96,-8.00,-14.60,-14.64,6.00,6.04,6.62,-1.96,-2.00,6.64
37.43,-7.84,-7.83,-14.47,-14.46,6.00,6.03,6.55,-1.84,-1.83,6.64
37.81,-7.71,-7.70,-14.33,-14.32,6.00,6.03,6.48,-1.71,-1.70,6.62
38.19,-7.59,-7.58,-14.20,-14.19,6.00,6.03,6.41,-1.59,-1.58,6.61
38.57,-7.46,-7.45,-14.06,-14.05,6.00,6.02,6.35,-1.46,-1.45,6.60
38.95,-7.33,-7.37,-13.92,-13.95,6.00,6.02,6.28,-1.33,-1.37,6.59
39.34,-7.31,-7.32,-13.88,-13.90,6.00,6.02,6.22,-1.31,-1.32,6.57
39.74,-7.30,-7.27,-13.86,-13.83,6.00,6.01,6.16,-1.30,-1.27,6.56
40.14,-7.21,-7.16,-13.76,-13.71,6.00,6.01,6.11,-1.21,-1.16,6.55
40.54,-6.97,-6.98,-13.51,-13.52,6.00,6.01,6.06,-0.97,-0.98,6.54
40.94,-6.73,-6.77,-13.26,-13.29,6.00,6.00,6.01,-0.73,-0.77,6.53
41.35,-6.57,-6.57,-13.08,-13.09,6.00,6.00,5.96,-0.57,-0.57,6.51
41.76,-6.42,-6.40,-12.92,-12.91,6.00,5.99,5.92,-0.42,-0.40,6.51
42.18,-6.25,-6.22,-12.75,-12.71,6.00,5.99,5.89,-0.25,-0.22,6.50
42.60,-6.04,-6.03,-12.52,-12.52,6.00,5.99,5.85,-0.04,-0.03,6.49
43.03,-5.84,-5.90,-12.32,-12.37,6.00,5.98,5.83,0.16,0.10,6.48
43.46,-5.84,-5.83,-12.30,-12.28,6.00,5.98,5.80,0.16,0.17,6.46
43.90,-5.83,-5.81,-12.26,-12.25,6.00,5.97,5.78,0.17,0.19,6.43
44.33,-5.81,-5.81,-12.22,-12.23,6.00,5.97,5.77,0.19,0.19,6.42
44.78,-5.78,-5.76,-12.18,-12.16,6.00,5.96,5.76,0.22,0.24,6.40
45.23,-5.68,-5.66,-12.06,-12.04,6.00,5.96,5.75,0.32,0.34,6.38
45.68,-5.53,-5.54,-11.89,-11.90,6.00,5.95,5.75,0.47,0.46,6.36
46.13,-5.40,-5.42,-11.74,-11.77,6.00,5.95,5.75,0.60,0.58,6.34
46.60,-5.32,-5.31,-11.65,-11.64,6.00,5.94,5.76,0.68,0.69,6.33
47.06,-5.23,-5.19,-11.54,-11.51,6.00,5.94,5.77,0.77,0.81,6.31
47.53,-5.07,-5.07,-11.36,-11.37,6.00,5.93,5.78,0.93,0.93,6.29
48.01,-4.91,-4.95,-11.19,-11.23,6.00,5.93,5.80,1.09,1.05,6.28
48.49,-4.84,-4.84,-11.09,-11.09,6.00,5.92,5.82,1.16,1.16,6.25
48.97,-4.77,-4.71,-10.99,-10.93,6.00,5.92,5.85,1.23,1.29,6.22
49.46,-4.55,-4.54,-10.74,-10.73,6.00,5.91,5.88,1.45,1.46,6.19
49.96,-4.31,-4.33,-10.47,-10.49,6.00,5.91,5.91,1.69,1.67,6.16
50.46,-4.16,-4.15,-10.30,-10.29,6.00,5.90,5.94,1.84,1.85,6.15
50.96,-4.02,-4.09,-10.14,-10.21,6.00,5.90,5.98,1.98,1.91,6.12
51.47,-4.08,-4.09,-10.17,-10.18,6.00,5.89,6.02,1.92,1.91,6.09
51.99,-4.15,-4.05,-10.21,-10.12,6.00,5.89,6.06,1.85,1.95,6.07
52.51,-3.92,-3.92,-9.97,-9.97,6.00,5.88,6.10,2.08,2.08,6.05
53.03,-3.68,-3.68,-9.71,-9.71,6.00,5.88,6.14,2.32,2.32,6.03
53.56,-3.42,-3.43,-9.42,-9.43,6.00,5.88,6.19,2.58,2.57,6.00
54.10,-3.21,-3.28,-9.19,-9.26,6.00,5.88,6.23,2.79,2.72,5.98
54.64,-3.22,-3.19,-9.17,-9.14,6.00,5.87,6.27,2.78,2.81,5.95
55.18,-3.18,-3.12,-9.10,-9.05,6.00,5.87,6.31,2.82,2.88,5.93
55.74,-3.02,-3.04,-8.92,-8.94,6.00,5.87,6.35,2.98,2.96,5.90
56.29,-2.90,-2.92,-8.78,-8.79,6.00,5.88,6.39,3.10,3.08,5.88
56.86,-2.81,-2.81,-8.66,-8.66,6.00,5.88,6.42,3.19,3.19,5.85
57.42,-2.71,-2.70,-8.53,-8.53,6.00,5.88,6.45,3.29,3.30,5.82
58.00,-2.60,-2.57,-8.40,-8.37,6.00,5.89,6.47,3.40,3.43,5.80
58.58,-2.43,-2.44,-8.21,-8.23,6.00,5.89,6.49,3.57,3.56,5.78
59.16,-2.31,-2.35,-8.07,-8.11,6.00,5.90,6.51,3.69,3.65,5.76
59.76,-2.30,-2.29,-8.04,-8.03,6.00,5.91,6.52,3.70,3.71,5.74
60.35,-2.26,-2.25,-7.97,-7.96,6.00,5.93,6.52,3.74,3.75,5.71
60.96,-2.20,-2.18,-7.89,-7.87,6.00,5.94,6.51,3.80,3.82,5.69
61.57,-2.07,-2.07,-7.71,-7.72,6.00,5.96,6.50,3.93,3.93,5.65
62.18,-1.94,-1.94,-7.55,-7.55,6.00,5.98,6.48,4.06,4.06,5.61
62.80,-1.80,-1.79,-7.38,-7.37,6.00,6.00,6.46,4.20,4.21,5.59
63.43,-1.69,-1.69,-7.24,-7.25,6.00,6.02,6.42,4.31,4.31,5.55
64.07,-1.60,-1.64,-7.12,-7.17,6.00,6.05,6.38,4.40,4.36,5.53
64.71,-1.65,-1.61,-7.15,-7.11,6.00,6.07,6.34,4.35,4.39,5.50
65.35,-1.62,-1.60,-7.09,-7.07,6.00,6.09,6.28,4.38,4.40,5.47
66.01,-1.54,-1.57,-6.98,-7.01,6.00,6.11,6.22,4.46,4.43,5.44
66.67,-1.51,-1.48,-6.92,-6.90,6.00,6.12,6.15,4.49,4.52,5.42
67.33,-1.42,-1.40,-6.80,-6.79,6.00,6.13,6.08,4.59,4.60,5.39
68.01,-1.27,-1.33,-6.62,-6.68,6.01,6.12,6.00,4.74,4.68,5.36
68.69,-1.26,-1.21,-6.58,-6.53,6.02,6.11,5.92,4.76,4.81,5.32
69.37,-1.14,-1.10,-6.43,-6.39,6.02,6.08,5.83,4.88,4.92,5.29
70.07,-0.93,-1.00,-6.19,-6.27,6.02,6.04,5.74,5.09,5.01,5.26
70.77,-0.92,-0.90,-6.15,-6.13,6.01,5.98,5.64,5.09,5.11,5.24
71.48,-0.86,-0.83,-6.06,-6.03,5.97,5.92,5.54,5.12,5.14,5.20
72.19,-0.78,-0.80,-5.94,-5.97,5.92,5.84,5.44,5.14,5.12,5.17
72.91,-0.74,-0.75,-5.87,-5.88,5.84,5.75,5.34,5.10,5.09,5.13
73.64,-0.70,-0.67,-5.79,-5.77,5.73,5.65,5.24,5.04,5.06,5.09
74.38,-0.60,-0.59,-5.66,-5.65,5.62,5.55,5.14,5.02,5.03,5.07
75.12,-0.45,-0.46,-5.47,-5.49,5.49,5.45,5.03,5.05,5.03,5.03
75.87,-0.35,-0.30,-5.34,-5.30,5.36,5.34,4.93,5.01,5.06,5.00
76.63,-0.15,-0.19,-5.11,-5.15,5.22,5.23,4.83,5.08,5.04,4.97
77.40,-0.08,-0.14,-5.01,-5.07,5.09,5.13,4.73,5.02,4.96,4.94
78.17,-0.14,-0.09,-5.03,-4.99,4.98,5.02,4.63,4.84,4.89,4.89
78.95,-0.10,-0.04,-4.97,-4.91,4.88,4.92,4.53,4.78,4.84,4.87
79.74,0.07,0.04,-4.77,-4.79,4.79,4.81,4.43,4.86,4.83,4.84
80.54,0.17,0.14,-4.63,-4.67,4.70,4.71,4.34,4.87,4.83,4.80
81.35,0.19,0.18,-4.58,-4.59,4.61,4.61,4.24,4.80,4.79,4.77
82.16,0.17,0.20,-4.56,-4.54,4.51,4.52,4.15,4.69,4.71,4.73
82.98,0.22,0.24,-4.48,-4.46,4.41,4.42,4.06,4.63,4.65,4.71
83.81,0.31,0.32,-4.35,-4.34,4.31,4.32,3.98,4.62,4.63,4.66
84.65,0.44,0.42,-4.18,-4.21,4.22,4.23,3.89,4.66,4.63,4.62
85.50,0.50,0.50,-4.09,-4.09,4.13,4.14,3.81,4.63,4.63,4.59
86.35,0.54,0.56,-4.01,-4.00,4.04,4.05,3.73,4.59,4.60,4.55
87.22,0.60,0.58,-3.91,-3.94,3.95,3.96,3.66,4.55,4.53,4.52
88.09,0.60,0.61,-3.87,-3.87,3.86,3.87,3.58,4.46,4.47,4.47
88.97,0.61,0.64,-3.83,-3.80,3.77,3.78,3.51,4.39,4.41,4.44
89.86,0.70,0.67,-3.70,-3.73,3.69,3.69,3.45,4.39,4.36,4.40
90.76,0.71,0.73,-3.64,-3.63,3.61,3.61,3.38,4.32,4.34,4.35
91.66,0.78,0.79,-3.53,-3.52,3.53,3.52,3.32,4.31,4.32,4.32
92.58,0.85,0.84,-3.41,-3.43,3.44,3.44,3.26,4.30,4.29,4.26
93.51,0.90,0.89,-3.33,-3.34,3.36,3.36,3.20,4.26,4.25,4.23
94.44,0.91,0.91,-3.27,-3.27,3.28,3.28,3.14,4.19,4.19,4.19
95.39,0.92,0.94,-3.22,-3.20,3.20,3.20,3.09,4.12,4.14,4.14
96.34,0.96,0.96,-3.13,-3.13,3.13,3.13,3.04,4.09,4.09,4.09
97.30,1.00,0.98,-3.04,-3.06,3.06,3.05,2.99,4.07,4.05,4.04
98.28,0.99,0.99,-3.00,-3.00,3.00,2.98,2.95,4.00,4.00,4.00
99.26,0.98,1.00,-2.97,-2.95,2.95,2.91,2.90,3.93,3.95,3.95
100.25,1.00,1.01,-2.90,-2.90,2.89,2.85,2.86,3.89,3.90,3.91
101.25,1.04,1.02,-2.82,-2.83,2.84,2.79,2.82,3.88,3.86,3.86
102.27,1.03,1.03,-2.78,-2.78,2.78,2.73,2.78,3.82,3.81,3.81
103.29,1.02,1.03,-2.73,-2.74,2.73,2.68,2.74,3.75,3.76,3.76
104.32,1.01,1.02,-2.71,-2.69,2.68,2.62,2.71,3.69,3.71,3.72
105.37,1.03,1.03,-2.64,-2.64,2.64,2.57,2.68,3.67,3.67,3.67
106.42,1.05,1.04,-2.58,-2.59,2.60,2.53,2.65,3.65,3.63,3.63
107.48,1.03,1.03,-2.55,-2.55,2.56,2.49,2.61,3.60,3.59,3.58
108.56,1.00,1.01,-2.52,-2.52,2.54,2.45,2.59,3.54,3.55,3.53
109.64,0.98,0.99,-2.50,-2.50,2.51,2.41,2.56,3.50,3.50,3.48
110.74,0.96,0.95,-2.47,-2.48,2.49,2.37,2.53,3.45,3.44,3.43
111.85,0.91,0.90,-2.48,-2.48,2.47,2.34,2.50,3.38,3.37,3.39
112.97,0.84,0.86,-2.48,-2.47,2.44,2.31,2.48,3.29,3.31,3.32
114.10,0.83,0.83,-2.44,-2.44,2.42,2.27,2.45,3.25,3.25,3.28
115.24,0.83,0.83,-2.39,-2.40,2.38,2.25,2.43,3.21,3.21,3.22
116.39,0.83,0.83,-2.34,-2.34,2.34,2.22,2.40,3.17,3.17,3.17
117.55,0.83,0.83,-2.28,-2.28,2.29,2.19,2.38,3.12,3.12,3.11
118.73,0.84,0.84,-2.22,-2.22,2.23,2.16,2.36,3.07,3.07,3.06
119.92,0.84,0.84,-2.17,-2.17,2.17,2.14,2.33,3.01,3.01,3.02
121.12,0.85,0.85,-2.11,-2.11,2.11,2.11,2.31,2.96,2.96,2.96
122.33,0.86,0.86,-2.05,-2.05,2.06,2.09,2.29,2.92,2.92,2.91
123.55,0.87,0.88,-2.00,-1.99,2.01,2.06,2.26,2.88,2.89,2.87
124.79,0.88,0.88,-1.94,-1.94,1.96,2.04,2.24,2.84,2.84,2.82
126.03,0.88,0.86,-1.89,-1.91,1.91,2.01,2.21,2.79,2.77,2.77
127.29,0.82,0.83,-1.90,-1.88,1.86,1.99,2.19,2.69,2.70,2.72
128.57,0.79,0.81,-1.87,-1.85,1.83,1.97,2.17,2.62,2.63,2.66
129.85,0.80,0.80,-1.81,-1.81,1.79,1.94,2.14,2.60,2.59,2.61
131.15,0.81,0.82,-1.75,-1.75,1.77,1.92,2.12,2.58,2.58,2.56
132.46,0.81,0.81,-1.70,-1.71,1.75,1.90,2.09,2.56,2.56,2.51
133.79,0.80,0.77,-1.68,-1.70,1.73,1.88,2.07,2.53,2.50,2.48
135.12,0.69,0.71,-1.73,-1.72,1.71,1.85,2.04,2.40,2.42,2.42
136.48,0.64,0.66,-1.74,-1.72,1.70,1.83,2.02,2.34,2.36,2.39
137.84,0.62,0.63,-1.72,-1.71,1.69,1.81,1.99,2.31,2.32,2.34
139.22,0.63,0.61,-1.66,-1.69,1.68,1.79,1.97,2.31,2.28,2.29
140.61,0.59,0.58,-1.65,-1.68,1.67,1.77,1.94,2.26,2.25,2.25
142.02,0.51,0.56,-1.71,-1.66,1.67,1.75,1.92,2.18,2.22,2.22
143.44,0.53,0.53,-1.65,-1.65,1.66,1.73,1.89,2.19,2.19,2.18
144.87,0.55,0.51,-1.59,-1.63,1.65,1.71,1.87,2.20,2.16,2.14
146.32,0.47,0.49,-1.63,-1.62,1.64,1.69,1.84,2.11,2.13,2.10
147.78,0.43,0.43,-1.64,-1.64,1.63,1.67,1.82,2.06,2.06,2.07
149.26,0.39,0.37,-1.64,-1.66,1.63,1.65,1.80,2.02,2.00,2.04
150.75,0.32,0.35,-1.67,-1.64,1.63,1.63,1.78,1.95,1.98,1.99
152.26,0.32,0.34,-1.63,-1.61,1.63,1.62,1.76,1.95,1.97,1.95
153.78,0.35,0.31,-1.57,-1.61,1.63,1.60,1.73,1.98,1.94,1.92
155.32,0.28,0.26,-1.59,-1.62,1.62,1.59,1.71,1.91,1.88,1.87
156.88,0.14,0.19,-1.70,-1.65,1.62,1.57,1.70,1.77,1.81,1.84
158.44,0.12,0.14,-1.67,-1.66,1.62,1.56,1.68,1.75,1.76,1.80
160.03,0.13,0.13,-1.62,-1.62,1.63,1.54,1.66,1.76,1.76,1.75
161.63,0.14,0.13,-1.57,-1.59,1.63,1.53,1.64,1.78,1.76,1.71
163.24,0.11,0.07,-1.56,-1.60,1.63,1.52,1.63,1.75,1.71,1.67
164.88,-0.03,-0.00,-1.67,-1.64,1.63,1.51,1.62,1.60,1.63,1.64
166.53,-0.10,-0.07,-1.70,-1.67,1.62,1.50,1.60,1.53,1.55,1.60
168.19,-0.10,-0.11,-1.66,-1.67,1.62,1.49,1.59,1.52,1.52,1.56
169.87,-0.10,-0.09,-1.62,-1.62,1.62,1.48,1.58,1.53,1.53,1.53
171.57,-0.09,-0.09,-1.58,-1.58,1.63,1.47,1.57,1.54,1.54,1.49
173.29,-0.10,-0.13,-1.55,-1.59,1.63,1.46,1.56,1.53,1.50,1.45
175.02,-0.20,-0.20,-1.62,-1.62,1.63,1.46,1.55,1.43,1.42,1.42
176.77,-0.32,-0.27,-1.69,-1.65,1.62,1.45,1.54,1.31,1.35,1.37
178.54,-0.33,-0.32,-1.66,-1.65,1.62,1.44,1.54,1.29,1.30,1.33
180.32,-0.32,-0.34,-1.61,-1.63,1.62,1.44,1.53,1.30,1.28,1.30
182.13,-0.34,-0.35,-1.60,-1.61,1.62,1.44,1.53,1.29,1.27,1.26
183.95,-0.40,-0.39,-1.62,-1.62,1.62,1.43,1.53,1.23,1.23,1.22
185.79,-0.44,-0.43,-1.63,-1.62,1.62,1.43,1.53,1.18,1.19,1.19
187.65,-0.47,-0.45,-1.62,-1.60,1.62,1.43,1.52,1.15,1.16,1.15
189.52,-0.46,-0.46,-1.58,-1.58,1.60,1.43,1.53,1.15,1.14,1.12
191.42,-0.46,-0.49,-1.55,-1.58,1.59,1.43,1.53,1.13,1.10,1.09
193.33,-0.53,-0.52,-1.59,-1.58,1.56,1.43,1.53,1.03,1.04,1.06
195.27,-0.56,-0.55,-1.59,-1.58,1.53,1.43,1.53,0.97,0.98,1.03
197.22,-0.55,-0.54,-1.55,-1.54,1.49,1.43,1.54,0.95,0.95,1.00
199.19,-0.50,-0.49,-1.47,-1.46,1.45,1.44,1.54,0.96,0.97,0.97
201.18,-0.42,-0.43,-1.37,-1.38,1.41,1.44,1.55,1.00,0.99,0.95
203.19,-0.37,-0.40,-1.30,-1.33,1.37,1.44,1.55,1.00,0.98,0.94
205.23,-0.39,-0.39,-1.30,-1.31,1.33,1.45,1.56,0.94,0.94,0.91
207.28,-0.44,-0.40,-1.34,-1.30,1.29,1.45,1.57,0.85,0.89,0.90
209.35,-0.41,-0.41,-1.29,-1.29,1.26,1.46,1.58,0.86,0.85,0.88
211.44,-0.39,-0.40,-1.24,-1.26,1.25,1.47,1.58,0.87,0.85,0.86
213.56,-0.39,-0.38,-1.24,-1.23,1.25,1.48,1.59,0.87,0.87,0.85
215.69,-0.39,-0.39,-1.24,-1.23,1.26,1.49,1.60,0.87,0.87,0.85
217.85,-0.40,-0.42,-1.23,-1.25,1.26,1.50,1.61,0.86,0.84,0.84
220.03,-0.47,-0.45,-1.29,-1.28,1.26,1.51,1.62,0.80,0.81,0.82
222.23,-0.50,-0.49,-1.31,-1.30,1.28,1.52,1.63,0.78,0.79,0.81
224.45,-0.50,-0.50,-1.32,-1.32,1.30,1.53,1.64,0.80,0.80,0.82
226.70,-0.50,-0.49,-1.32,-1.31,1.33,1.54,1.65,0.83,0.84,0.82
228.96,-0.50,-0.50,-1.32,-1.32,1.36,1.55,1.67,0.86,0.86,0.82
231.25,-0.51,-0.54,-1.34,-1.37,1.39,1.57,1.68,0.88,0.85,0.83
233.57,-0.61,-0.59,-1.44,-1.42,1.41,1.58,1.69,0.80,0.82,0.83
235.90,-0.67,-0.64,-1.50,-1.47,1.43,1.60,1.70,0.76,0.79,0.83
238.26,-0.65,-0.66,-1.48,-1.49,1.45,1.61,1.71,0.80,0.79,0.83
240.64,-0.64,-0.65,-1.48,-1.48,1.46,1.63,1.72,0.83,0.82,0.84
243.05,-0.63,-0.62,-1.48,-1.47,1.48,1.65,1.73,0.85,0.86,0.85
245.48,-0.61,-0.61,-1.47,-1.47,1.50,1.67,1.73,0.89,0.88,0.86
247.93,-0.59,-0.61,-1.46,-1.48,1.51,1.69,1.74,0.92,0.90,0.87
250.41,-0.65,-0.62,-1.52,-1.51,1.52,1.71,1.75,0.88,0.90,0.88
252.92,-0.64,-0.65,-1.54,-1.55,1.55,1.73,1.76,0.91,0.90,0.90
255.45,-0.68,-0.68,-1.60,-1.60,1.58,1.75,1.77,0.90,0.90,0.92
258.00,-0.71,-0.69,-1.64,-1.63,1.62,1.78,1.77,0.91,0.93,0.93
260.58,-0.72,-0.72,-1.67,-1.67,1.67,1.80,1.78,0.95,0.95,0.95
263.19,-0.72,-0.74,-1.69,-1.71,1.72,1.83,1.79,1.00,0.98,0.97
265.82,-0.79,-0.77,-1.77,-1.76,1.78,1.86,1.79,0.99,1.01,0.99
268.48,-0.82,-0.82,-1.83,-1.82,1.84,1.89,1.80,1.02,1.03,1.01
271.16,-0.86,-0.87,-1.89,-1.90,1.91,1.92,1.80,1.05,1.03,1.03
273.87,-0.93,-0.92,-1.98,-1.98,1.97,1.95,1.81,1.04,1.04,1.05
276.61,-0.99,-0.97,-2.06,-2.04,2.03,1.99,1.82,1.04,1.06,1.07
279.38,-1.02,-1.02,-2.10,-2.11,2.09,2.03,1.82,1.07,1.07,1.09
282.17,-1.04,-1.06,-2.14,-2.16,2.14,2.07,1.83,1.10,1.08,1.10
284.99,-1.10,-1.08,-2.22,-2.21,2.19,2.11,1.84,1.09,1.11,1.13
287.84,-1.11,-1.10,-2.25,-2.24,2.24,2.16,1.85,1.13,1.14,1.14
290.72,-1.10,-1.09,-2.27,-2.26,2.28,2.21,1.85,1.18,1.19,1.17
293.63,-1.09,-1.10,-2.27,-2.29,2.32,2.26,1.86,1.24,1.22,1.18
296.57,-1.12,-1.15,-2.33,-2.35,2.37,2.32,1.87,1.25,1.22,1.21
299.53,-1.23,-1.19,-2.45,-2.42,2.42,2.38,1.88,1.19,1.22,1.22
302.53,-1.26,-1.24,-2.50,-2.49,2.47,2.45,1.89,1.21,1.23,1.24
305.55,-1.25,-1.28,-2.52,-2.54,2.52,2.51,1.91,1.28,1.25,1.28
308.61,-1.29,-1.29,-2.58,-2.58,2.59,2.58,1.92,1.30,1.30,1.29
311.69,-1.33,-1.31,-2.65,-2.64,2.66,2.64,1.94,1.33,1.35,1.32
314.81,-1.33,-1.34,-2.68,-2.69,2.73,2.69,1.95,1.40,1.39,1.36
317.96,-1.38,-1.38,-2.75,-2.75,2.78,2.74,1.97,1.40,1.40,1.37
321.14,-1.42,-1.44,-2.81,-2.83,2.82,2.77,1.99,1.40,1.38,1.39
324.35,-1.50,-1.49,-2.90,-2.90,2.84,2.79,2.01,1.35,1.35,1.41
327.59,-1.53,-1.50,-2.96,-2.93,2.85,2.81,2.03,1.33,1.35,1.43
330.87,-1.46,-1.46,-2.91,-2.91,2.85,2.80,2.05,1.40,1.40,1.45
334.18,-1.37,-1.36,-2.84,-2.83,2.84,2.79,2.08,1.47,1.48,1.47
337.52,-1.25,-1.27,-2.73,-2.76,2.80,2.78,2.11,1.56,1.53,1.49
340.90,-1.19,-1.21,-2.70,-2.72,2.76,2.76,2.13,1.57,1.55,1.51
344.30,-1.20,-1.18,-2.73,-2.71,2.71,2.74,2.16,1.51,1.53,1.53
347.75,-1.15,-1.15,-2.70,-2.70,2.68,2.73,2.19,1.53,1.53,1.55
351.23,-1.12,-1.09,-2.68,-2.66,2.66,2.72,2.23,1.54,1.56,1.57
354.74,-1.03,-1.03,-2.61,-2.61,2.66,2.71,2.26,1.63,1.63,1.58
358.28,-0.98,-1.01,-2.58,-2.61,2.67,2.70,2.30,1.69,1.65,1.60
361.87,-1.02,-1.04,-2.64,-2.66,2.68,2.70,2.34,1.66,1.64,1.62
365.49,-1.13,-1.09,-2.76,-2.72,2.69,2.70,2.38,1.56,1.59,1.63
369.14,-1.15,-1.13,-2.78,-2.77,2.70,2.71,2.42,1.55,1.57,1.64
372.83,-1.11,-1.12,-2.76,-2.77,2.72,2.71,2.46,1.61,1.60,1.65
376.56,-1.09,-1.07,-2.75,-2.74,2.75,2.72,2.51,1.66,1.68,1.66
380.33,-1.04,-1.06,-2.73,-2.74,2.79,2.73,2.55,1.75,1.73,1.69
384.13,-1.05,-1.07,-2.75,-2.77,2.83,2.75,2.60,1.78,1.76,1.70
387.97,-1.14,-1.11,-2.85,-2.82,2.86,2.76,2.65,1.72,1.75,1.71
391.85,-1.17,-1.19,-2.88,-2.91,2.89,2.77,2.70,1.72,1.71,1.72
395.77,-1.25,-1.25,-2.98,-2.98,2.93,2.79,2.75,1.68,1.68,1.73
399.73,-1.31,-1.28,-3.05,-3.02,2.97,2.81,2.80,1.67,1.70,1.74
403.72,-1.29,-1.29,-3.04,-3.05,3.02,2.83,2.85,1.73,1.73,1.75
407.76,-1.27,-1.28,-3.03,-3.04,3.06,2.84,2.91,1.79,1.78,1.76
411.84,-1.28,-1.26,-3.06,-3.04,3.09,2.86,2.96,1.81,1.83,1.78
415.96,-1.28,-1.30,-3.07,-3.09,3.11,2.88,3.02,1.83,1.81,1.79
420.12,-1.32,-1.35,-3.11,-3.15,3.13,2.90,3.07,1.81,1.78,1.80
424.32,-1.43,-1.37,-3.23,-3.17,3.15,2.92,3.13,1.72,1.78,1.81
428.56,-1.38,-1.36,-3.19,-3.17,3.17,2.94,3.18,1.79,1.81,1.81
432.85,-1.29,-1.35,-3.11,-3.17,3.18,2.96,3.23,1.90,1.84,1.82
437.18,-1.32,-1.33,-3.15,-3.16,3.20,2.98,3.29,1.88,1.87,1.83
441.55,-1.37,-1.33,-3.22,-3.18,3.19,3.01,3.34,1.83,1.87,1.85
445.96,-1.34,-1.34,-3.20,-3.20,3.17,3.03,3.39,1.84,1.83,1.86
450.42,-1.29,-1.32,-3.16,-3.19,3.14,3.05,3.43,1.85,1.82,1.87
454.93,-1.28,-1.25,-3.17,-3.13,3.09,3.07,3.48,1.81,1.84,1.89
459.48,-1.19,-1.16,-3.09,-3.06,3.04,3.09,3.52,1.85,1.88,1.90
464.07,-1.03,-1.06,-2.95,-2.98,2.98,3.11,3.56,1.95,1.92,1.92
468.71,-0.96,-0.96,-2.89,-2.89,2.92,3.13,3.60,1.97,1.97,1.94
473.40,-0.89,-0.88,-2.83,-2.83,2.87,3.15,3.63,1.98,1.99,1.95
478.13,-0.84,-0.83,-2.80,-2.79,2.83,3.17,3.66,1.99,2.00,1.97
482.91,-0.79,-0.79,-2.76,-2.76,2.80,3.18,3.68,2.01,2.01,1.97
487.74,-0.75,-0.78,-2.74,-2.77,2.78,3.20,3.70,2.03,2.00,1.99
492.62,-0.79,-0.78,-2.80,-2.79,2.77,3.22,3.72,1.99,1.99,2.01
