frequency,raw
20.00,4.31
20.20,4.34
20.40,4.37
20.61,4.40
20.81,4.42
21.02,4.45
21.23,4.49
21.44,4.52
21.66,4.56
21.87,4.59
22.09,4.62
22.31,4.66
22.54,4.69
22.76,4.72
22.99,4.76
23.22,4.79
23.45,4.83
23.69,4.86
23.92,4.90
24.16,4.94
24.40,4.98
24.65,5.01
24.89,5.05
25.14,5.09
25.39,5.13
25.65,5.16
25.91,5.20
26.16,5.23
26.43,5.27
26.69,5.30
26.96,5.33
27.23,5.37
27.50,5.40
27.77,5.43
28.05,5.47
28.33,5.50
28.62,5.53
28.90,5.56
29.19,5.59
29.48,5.61
29.78,5.64
30.08,5.67
30.38,5.69
30.68,5.71
30.99,5.73
31.30,5.74
31.61,5.75
31.93,5.76
32.24,5.77
32.57,5.78
32.89,5.79
33.22,5.79
33.55,5.80
33.89,5.81
34.23,5.81
34.57,5.82
34.92,5.82
35.27,5.82
35.62,5.82
35.97,5.82
36.33,5.82
36.70,5.82
37.06,5.82
37.43,5.82
37.81,5.82
38.19,5.82
38.57,5.81
38.95,5.81
39.34,5.81
39.74,5.80
40.14,5.80
40.54,5.79
40.94,5.79
41.35,5.79
41.76,5.78
42.18,5.78
42.60,5.77
43.03,5.77
43.46,5.77
43.90,5.76
44.33,5.76
44.78,5.75
45.23,5.75
45.68,5.74
46.13,5.73
46.60,5.72
47.06,5.72
47.53,5.71
48.01,5.70
48.49,5.69
48.97,5.68
49.46,5.68
49.96,5.67
50.46,5.66
50.96,5.65
51.47,5.64
51.99,5.63
52.51,5.62
53.03,5.62
53.56,5.61
54.10,5.60
54.64,5.59
55.18,5.58
55.74,5.57
56.29,5.56
56.86,5.55
57.42,5.54
58.00,5.53
58.58,5.52
59.16,5.52
59.76,5.51
60.35,5.50
60.96,5.49
61.57,5.49
62.18,5.49
62.80,5.48
63.43,5.48
64.07,5.48
64.71,5.47
65.35,5.45
66.01,5.43
66.67,5.40
67.33,5.37
68.01,5.34
68.69,5.31
69.37,5.27
70.07,5.24
70.77,5.21
71.48,5.18
72.19,5.15
72.91,5.12
73.64,5.11
74.38,5.09
75.12,5.06
75.87,5.03
76.63,4.99
77.40,4.95
78.17,4.92
78.95,4.89
79.74,4.86
80.54,4.83
81.35,4.81
82.16,4.77
82.98,4.74
83.81,4.71
84.65,4.67
85.50,4.64
86.35,4.59
87.22,4.55
88.09,4.52
88.97,4.48
89.86,4.45
90.76,4.40
91.66,4.36
92.58,4.32
93.51,4.28
94.44,4.24
95.39,4.19
96.34,4.16
97.30,4.12
98.28,4.07
99.26,4.02
100.25,3.96
101.25,3.89
102.27,3.84
103.29,3.78
104.32,3.73
105.37,3.68
106.42,3.63
107.48,3.60
108.56,3.56
109.64,3.51
110.74,3.45
111.85,3.39
112.97,3.33
114.10,3.27
115.24,3.20
116.39,3.13
117.55,3.06
118.73,2.99
119.92,2.93
121.12,2.88
122.33,2.83
123.55,2.78
124.79,2.72
126.03,2.66
127.29,2.57
128.57,2.48
129.85,2.38
131.15,2.30
132.46,2.23
133.79,2.18
135.12,2.12
136.48,2.06
137.84,1.99
139.22,1.91
140.61,1.82
142.02,1.74
143.44,1.66
144.87,1.59
146.32,1.53
147.78,1.48
149.26,1.43
150.75,1.36
152.26,1.29
153.78,1.22
155.32,1.14
156.88,1.06
158.44,0.98
160.03,0.92
161.63,0.86
163.24,0.82
164.88,0.76
166.53,0.71
168.19,0.65
169.87,0.59
171.57,0.51
173.29,0.44
175.02,0.38
176.77,0.30
178.54,0.23
180.32,0.16
182.13,0.10
183.95,0.04
185.79,0.00
187.65,-0.05
189.52,-0.11
191.42,-0.17
193.33,-0.24
195.27,-0.31
197.22,-0.39
199.19,-0.48
201.18,-0.55
203.19,-0.62
205.23,-0.69
207.28,-0.75
209.35,-0.81
211.44,-0.86
213.56,-0.93
215.69,-0.98
217.85,-1.04
220.03,-1.10
222.23,-1.17
224.45,-1.26
226.70,-1.34
228.96,-1.43
231.25,-1.51
233.57,-1.58
235.90,-1.66
238.26,-1.72
240.64,-1.79
243.05,-1.86
245.48,-1.93
247.93,-2.01
250.41,-2.09
252.92,-2.17
255.45,-2.25
258.00,-2.33
260.58,-2.42
263.19,-2.50
265.82,-2.58
268.48,-2.68
271.16,-2.77
273.87,-2.87
276.61,-2.97
279.38,-3.07
282.17,-3.17
284.99,-3.27
287.84,-3.38
290.72,-3.50
293.63,-3.61
296.57,-3.72
299.53,-3.84
302.53,-3.96
305.55,-4.08
308.61,-4.20
311.69,-4.33
314.81,-4.45
317.96,-4.57
321.14,-4.70
324.35,-4.82
327.59,-4.94
330.87,-5.06
334.18,-5.18
337.52,-5.30
340.90,-5.41
344.30,-5.52
347.75,-5.62
351.23,-5.73
354.74,-5.84
358.28,-5.96
361.87,-6.08
365.49,-6.18
369.14,-6.27
372.83,-6.34
376.56,-6.40
380.33,-6.44
384.13,-6.47
387.97,-6.48
391.85,-6.47
395.77,-6.46
399.73,-6.42
403.72,-6.38
407.76,-6.34
411.84,-6.28
415.96,-6.21
420.12,-6.14
424.32,-6.05
428.56,-5.98
432.85,-5.89
437.18,-5.81
441.55,-5.73
445.96,-5.64
450.42,-5.55
454.93,-5.45
459.48,-5.34
464.07,-5.22
468.71,-5.11
473.40,-5.01
478.13,-4.92
482.91,-4.85
487.74,-4.80
492.62,-4.74
497.55,-4.67
502.52,-4.60
507.55,-4.53
512.62,-4.45
517.75,-4.37
522.93,-4.30
528.16,-4.23
533.44,-4.17
538.77,-4.10
544.16,-4.05
549.60,-3.99
555.10,-3.93
560.65,-3.87
566.25,-3.81
571.92,-3.75
577.64,-3.69
583.41,-3.63
589.25,-3.57
595.14,-3.51
601.09,-3.46
607.10,-3.39
613.17,-3.34
619.30,-3.28
625.50,-3.21
631.75,-3.16
638.07,-3.10
644.45,-3.04
650.89,-2.98
657.40,-2.92
663.98,-2.86
670.62,-2.80
677.32,-2.74
684.10,-2.69
690.94,-2.63
697.85,-2.58
704.83,-2.51
711.87,-2.46
718.99,-2.40
726.18,-2.33
733.44,-2.26
740.78,-2.17
748.19,-2.08
755.67,-2.00
763.23,-1.94
770.86,-1.87
778.57,-1.82
786.35,-1.76
794.22,-1.71
802.16,-1.67
810.18,-1.62
818.28,-1.59
826.46,-1.55
834.73,-1.49
843.08,-1.42
851.51,-1.35
860.02,-1.27
868.62,-1.18
877.31,-1.09
886.08,-1.02
894.94,-0.96
903.89,-0.88
912.93,-0.81
922.06,-0.74
931.28,-0.66
940.59,-0.58
950.00,-0.50
959.50,-0.42
969.09,-0.32
978.78,-0.21
988.57,-0.11
998.46,-0.02
1008.44,0.08
1018.53,0.18
1028.71,0.26
1039.00,0.34
1049.39,0.42
1059.88,0.50
1070.48,0.59
1081.19,0.68
1092.00,0.78
1102.92,0.87
1113.95,0.97
1125.09,1.07
1136.34,1.18
1147.70,1.29
1159.18,1.40
1170.77,1.53
1182.48,1.67
1194.30,1.81
1206.25,1.95
1218.31,2.08
1230.49,2.21
1242.80,2.34
1255.22,2.46
1267.78,2.59
1280.45,2.72
1293.26,2.85
1306.19,2.99
1319.25,3.13
1332.45,3.27
1345.77,3.42
1359.23,3.56
1372.82,3.71
1386.55,3.88
1400.41,4.05
1414.42,4.23
1428.56,4.42
1442.85,4.61
1457.28,4.79
1471.85,4.96
1486.57,5.13
1501.43,5.28
1516.45,5.43
1531.61,5.59
1546.93,5.74
1562.40,5.90
1578.02,6.06
1593.80,6.22
1609.74,6.38
1625.84,6.54
1642.10,6.70
1658.52,6.87
1675.10,7.06
1691.85,7.24
1708.77,7.43
1725.86,7.62
1743.12,7.81
1760.55,7.99
1778.15,8.17
1795.94,8.35
1813.90,8.51
1832.03,8.67
1850.36,8.80
1868.86,8.95
1887.55,9.09
1906.42,9.23
1925.49,9.36
1944.74,9.48
1964.19,9.60
1983.83,9.72
2003.67,9.85
2023.71,9.99
2043.94,10.13
2064.38,10.29
2085.03,10.45
2105.88,10.60
2126.94,10.76
2148.20,10.92
2169.69,11.07
2191.38,11.21
2213.30,11.35
2235.43,11.48
2257.78,11.63
2280.36,11.75
2303.17,11.87
2326.20,11.97
2349.46,12.07
2372.95,12.18
2396.68,12.29
2420.65,12.40
2444.86,12.51
2469.31,12.62
2494.00,12.70
2518.94,12.77
2544.13,12.81
2569.57,12.81
2595.27,12.78
2621.22,12.71
2647.43,12.59
2673.90,12.44
2700.64,12.25
2727.65,12.01
2754.93,11.76
2782.48,11.48
2810.30,11.20
2838.40,10.90
2866.79,10.57
2895.46,10.25
2924.41,9.92
2953.65,9.58
2983.19,9.26
3013.02,8.96
3043.15,8.68
3073.58,8.41
3104.32,8.15
3135.36,7.91
3166.72,7.67
3198.38,7.47
3230.37,7.28
3262.67,7.12
3295.30,7.00
3328.25,6.89
3361.53,6.82
3395.15,6.79
3429.10,6.76
3463.39,6.75
3498.03,6.75
3533.01,6.73
3568.34,6.70
3604.02,6.67
3640.06,6.62
3676.46,6.56
3713.22,6.48
3750.36,6.38
3787.86,6.30
3825.74,6.21
3864.00,6.13
3902.64,6.04
3941.66,5.95
3981.08,5.85
4020.89,5.74
4061.10,5.63
4101.71,5.51
4142.73,5.36
4184.15,5.19
4226.00,5.02
4268.26,4.83
4310.94,4.64
4354.05,4.48
4397.59,4.32
4441.56,4.18
4485.98,4.04
4530.84,3.89
4576.15,3.73
4621.91,3.57
4668.13,3.40
4714.81,3.21
4761.96,3.02
4809.58,2.83
4857.67,2.66
4906.25,2.49
4955.31,2.37
5004.87,2.27
5054.91,2.21
5105.46,2.17
5156.52,2.14
5208.08,2.15
5260.16,2.15
5312.77,2.20
5365.89,2.28
5419.55,2.39
5473.75,2.53
5528.49,2.69
5583.77,2.86
5639.61,3.02
5696.00,3.16
5752.96,3.29
5810.49,3.43
5868.60,3.57
5927.28,3.69
5986.56,3.81
6046.42,3.90
6106.89,3.95
6167.96,3.96
6229.64,3.91
6291.93,3.81
6354.85,3.70
6418.40,3.56
6482.58,3.39
6547.41,3.22
6612.88,3.00
6679.01,2.76
6745.80,2.51
6813.26,2.25
6881.39,1.95
6950.21,1.65
7019.71,1.35
7089.91,1.02
7160.81,0.67
7232.41,0.29
7304.74,-0.15
7377.79,-0.62
7451.56,-1.13
7526.08,-1.67
7601.34,-2.23
7677.35,-2.80
7754.13,-3.40
7831.67,-4.01
7909.98,-4.61
7989.08,-5.18
8068.98,-5.60
8149.67,-5.85
8231.16,-5.95
8313.47,-5.82
8396.61,-5.56
8480.57,-5.24
8565.38,-4.88
8651.03,-4.57
8737.54,-4.32
8824.92,-4.16
8913.17,-3.93
9002.30,-3.77
9092.32,-3.83
9183.25,-3.77
9275.08,-3.56
9367.83,-3.73
9461.51,-4.02
9556.12,-4.20
9651.68,-4.34
9748.20,-4.51
9845.68,-4.75
9944.14,-5.03
10043.58,-5.39
10144.02,-5.83
10245.46,-6.34
10347.91,-6.96
10451.39,-7.67
10555.91,-8.35
10661.46,-8.98
10768.08,-9.61
10875.76,-10.28
10984.52,-11.00
11094.36,-11.75
11205.31,-12.43
11317.36,-12.89
11430.53,-13.06
11544.84,-13.56
11660.29,-14.21
11776.89,-14.22
11894.66,-14.36
12013.60,-14.73
12133.74,-14.80
12255.08,-15.03
12377.63,-15.34
12501.41,-15.61
12626.42,-15.91
12752.68,-16.21
12880.21,-16.47
13009.01,-16.59
13139.10,-16.56
13270.49,-16.29
13403.20,-15.75
13537.23,-15.11
13672.60,-14.45
13809.33,-13.91
13947.42,-13.43
14086.90,-12.99
14227.77,-12.64
14370.04,-12.44
14513.74,-12.36
14658.88,-12.40
14805.47,-12.58
14953.52,-12.82
15103.06,-13.11
15254.09,-13.41
15406.63,-13.71
15560.70,-13.96
15716.30,-14.16
15873.47,-14.26
16032.20,-14.28
16192.52,-14.20
16354.45,-14.01
16517.99,-13.74
16683.17,-13.38
16850.01,-12.96
17018.51,-12.49
17188.69,-12.01
17360.58,-11.58
17534.18,-11.25
17709.53,-11.01
17886.62,-10.93
18065.49,-10.98
18246.14,-11.14
18428.60,-11.38
18612.89,-11.66
18799.02,-11.91
18987.01,-12.12
19176.88,-12.22
19368.65,-12.24
19562.33,-12.19
19757.96,-12.06
19955.54,-11.94
