frequency,raw,smoothed,error,error_smoothed,equalization,parametric_eq,fixed_band_eq,equalized_raw,equalized_smoothed,target
20.00,-18.96,-18.96,-22.46,-22.47,6.00,5.52,2.90,-12.96,-12.96,3.51
20.20,-18.87,-18.86,-22.40,-22.40,6.00,5.57,2.99,-12.87,-12.86,3.54
20.40,-18.76,-18.75,-22.33,-22.32,6.00,5.62,3.07,-12.76,-12.75,3.57
20.61,-18.63,-18.63,-22.21,-22.22,6.00,5.68,3.16,-12.63,-12.63,3.58
20.81,-18.48,-18.49,-22.10,-22.10,6.00,5.73,3.25,-12.48,-12.49,3.61
21.02,-18.34,-18.34,-21.98,-21.98,6.00,5.78,3.34,-12.34,-12.34,3.64
21.23,-18.20,-18.19,-21.85,-21.85,6.00,5.84,3.43,-12.20,-12.19,3.65
21.44,-18.04,-18.05,-21.71,-21.71,6.00,5.89,3.53,-12.04,-12.05,3.66
21.66,-17.91,-17.91,-21.58,-21.58,6.00,5.95,3.63,-11.91,-11.91,3.67
21.87,-17.76,-17.76,-21.44,-21.44,6.00,6.00,3.74,-11.76,-11.76,3.67
22.09,-17.62,-17.62,-21.31,-21.30,6.00,6.05,3.84,-11.62,-11.62,3.68
22.31,-17.46,-17.47,-21.14,-21.15,6.00,6.10,3.95,-11.46,-11.47,3.68
22.54,-17.33,-17.32,-21.01,-21.00,6.00,6.15,4.06,-11.33,-11.32,3.68
22.76,-17.16,-17.17,-20.83,-20.84,6.00,6.20,4.18,-11.16,-11.17,3.68
22.99,-17.02,-17.02,-20.69,-20.69,6.00,6.24,4.30,-11.02,-11.02,3.67
23.22,-16.88,-16.87,-20.54,-20.54,6.00,6.29,4.42,-10.88,-10.87,3.67
23.45,-16.72,-16.72,-20.38,-20.39,6.00,6.33,4.54,-10.72,-10.72,3.67
23.69,-16.58,-16.57,-20.24,-20.24,6.00,6.36,4.67,-10.58,-10.57,3.67
23.92,-16.41,-16.42,-20.08,-20.09,6.00,6.39,4.80,-10.41,-10.42,3.67
24.16,-16.27,-16.27,-19.95,-19.94,6.00,6.42,4.93,-10.27,-10.27,3.67
24.40,-16.11,-16.12,-19.79,-19.79,6.00,6.44,5.06,-10.11,-10.12,3.67
24.65,-15.97,-15.97,-19.63,-19.64,6.00,6.46,5.20,-9.97,-9.97,3.66
24.89,-15.82,-15.82,-19.49,-19.48,6.00,6.48,5.34,-9.82,-9.82,3.66
25.14,-15.67,-15.68,-19.34,-19.34,6.00,6.48,5.48,-9.67,-9.68,3.66
25.39,-15.52,-15.53,-19.18,-19.19,6.00,6.49,5.62,-9.52,-9.53,3.66
25.65,-15.39,-15.38,-19.05,-19.04,6.00,6.49,5.76,-9.39,-9.38,3.66
25.91,-15.23,-15.23,-18.88,-18.88,6.00,6.48,5.90,-9.23,-9.23,3.65
26.16,-15.08,-15.08,-18.73,-18.73,6.00,6.47,6.04,-9.08,-9.08,3.65
26.43,-14.93,-14.93,-18.57,-18.57,6.00,6.46,6.18,-8.93,-8.93,3.65
26.69,-14.78,-14.78,-18.42,-18.42,6.00,6.43,6.32,-8.78,-8.78,3.64
26.96,-14.64,-14.63,-18.28,-18.28,6.00,6.41,6.46,-8.64,-8.63,3.64
27.23,-14.48,-14.48,-18.12,-18.12,6.00,6.38,6.60,-8.48,-8.48,3.64
27.50,-14.34,-14.33,-17.98,-17.97,6.00,6.35,6.73,-8.34,-8.33,3.64
27.77,-14.17,-14.18,-17.80,-17.81,6.00,6.32,6.86,-8.17,-8.18,3.63
28.05,-14.03,-14.02,-17.65,-17.65,6.00,6.28,6.98,-8.03,-8.02,3.63
28.33,-13.87,-13.87,-17.48,-17.49,6.00,6.25,7.10,-7.87,-7.87,3.62
28.62,-13.73,-13.72,-17.34,-17.33,6.00,6.21,7.21,-7.73,-7.72,3.61
28.90,-13.57,-13.57,-17.18,-17.18,6.00,6.17,7.32,-7.57,-7.57,3.61
29.19,-13.41,-13.41,-17.01,-17.02,6.00,6.12,7.41,-7.41,-7.41,3.60
29.48,-13.25,-13.25,-16.86,-16.86,6.00,6.08,7.50,-7.25,-7.25,3.61
29.78,-13.10,-13.09,-16.70,-16.69,6.00,6.04,7.58,-7.10,-7.09,3.60
30.08,-12.93,-12.94,-16.53,-16.53,6.00,6.00,7.64,-6.93,-6.94,3.60
30.38,-12.78,-12.78,-16.36,-16.37,6.00,5.96,7.69,-6.78,-6.78,3.58
30.68,-12.64,-12.62,-16.22,-16.20,6.00,5.92,7.73,-6.64,-6.62,3.58
30.99,-12.46,-12.46,-16.03,-16.03,6.00,5.88,7.76,-6.46,-6.46,3.57
31.30,-12.29,-12.29,-15.86,-15.86,6.00,5.84,7.78,-6.29,-6.29,3.57
31.61,-12.13,-12.13,-15.69,-15.69,6.00,5.80,7.78,-6.13,-6.13,3.57
31.93,-11.97,-11.97,-15.52,-15.52,6.00,5.77,7.77,-5.97,-5.97,3.55
32.24,-11.81,-11.81,-15.36,-15.36,6.00,5.73,7.75,-5.81,-5.81,3.54
32.57,-11.66,-11.65,-15.20,-15.19,6.00,5.70,7.72,-5.66,-5.65,3.54
32.89,-11.48,-11.49,-15.02,-15.02,6.00,5.67,7.67,-5.48,-5.49,3.54
33.22,-11.33,-11.33,-14.85,-14.85,6.00,5.65,7.62,-5.33,-5.33,3.52
33.55,-11.16,-11.16,-14.68,-14.68,6.00,5.62,7.55,-5.16,-5.16,3.52
33.89,-11.01,-11.00,-14.51,-14.51,6.00,5.60,7.48,-5.01,-5.00,3.51
34.23,-10.84,-10.84,-14.34,-14.34,6.00,5.59,7.40,-4.84,-4.84,3.50
34.57,-10.68,-10.68,-14.17,-14.17,6.00,5.57,7.31,-4.68,-4.68,3.49
34.92,-10.53,-10.52,-14.01,-14.01,6.00,5.56,7.21,-4.53,-4.52,3.48
35.27,-10.37,-10.37,-13.84,-13.84,6.00,5.55,7.11,-4.37,-4.37,3.47
35.62,-10.21,-10.20,-13.67,-13.67,6.00,5.54,7.01,-4.21,-4.20,3.46
35.97,-10.03,-10.03,-13.48,-13.49,6.00,5.54,6.90,-4.03,-4.03,3.45
36.33,-9.86,-9.87,-13.31,-13.31,6.00,5.54,6.79,-3.86,-3.87,3.44
36.70,-9.70,-9.70,-13.13,-13.13,6.00,5.54,6.68,-3.70,-3.70,3.43
37.06,-9.54,-9.53,-12.96,-12.95,6.00,5.55,6.56,-3.54,-3.53,3.42
37.43,-9.36,-9.37,-12.78,-12.78,6.00,5.56,6.45,-3.36,-3.37,3.41
37.81,-9.21,-9.21,-12.60,-12.60,6.00,5.57,6.34,-3.21,-3.21,3.40
38.19,-9.05,-9.04,-12.43,-12.43,6.00,5.59,6.22,-3.05,-3.04,3.38
38.57,-8.88,-8.88,-12.25,-12.26,6.00,5.61,6.11,-2.88,-2.88,3.38
38.95,-8.71,-8.71,-12.08,-12.07,6.00,5.63,6.00,-2.71,-2.71,3.36
39.34,-8.54,-8.54,-11.89,-11.89,6.00,5.66,5.90,-2.54,-2.54,3.35
39.74,-8.37,-8.37,-11.70,-11.71,6.00,5.69,5.79,-2.37,-2.37,3.33
40.14,-8.21,-8.21,-11.54,-11.53,6.00,5.72,5.69,-2.21,-2.21,3.33
40.54,-8.04,-8.04,-11.35,-11.35,6.00,5.76,5.59,-2.04,-2.04,3.31
40.94,-7.88,-7.87,-11.18,-11.17,6.00,5.79,5.49,-1.88,-1.87,3.31
41.35,-7.70,-7.70,-10.99,-10.99,6.00,5.84,5.40,-1.70,-1.70,3.29
41.76,-7.52,-7.53,-10.81,-10.81,6.00,5.88,5.31,-1.52,-1.53,3.28
42.18,-7.37,-7.36,-10.64,-10.63,6.00,5.93,5.22,-1.37,-1.36,3.28
42.60,-7.19,-7.20,-10.46,-10.47,6.00,5.98,5.14,-1.19,-1.20,3.26
43.03,-7.04,-7.04,-10.29,-10.29,6.00,6.03,5.06,-1.04,-1.04,3.25
43.46,-6.88,-6.87,-10.11,-10.10,6.00,6.08,4.99,-0.88,-0.87,3.24
43.90,-6.69,-6.70,-9.90,-9.91,6.00,6.13,4.92,-0.69,-0.70,3.21
44.33,-6.52,-6.53,-9.72,-9.72,6.00,6.19,4.85,-0.52,-0.53,3.19
44.78,-6.36,-6.36,-9.53,-9.53,6.00,6.24,4.79,-0.36,-0.36,3.17
45.23,-6.20,-6.19,-9.35,-9.35,6.00,6.29,4.73,-0.20,-0.19,3.16
45.68,-6.03,-6.02,-9.16,-9.16,6.00,6.34,4.67,-0.03,-0.02,3.14
46.13,-5.84,-5.85,-8.96,-8.97,6.00,6.38,4.62,0.16,0.15,3.12
46.60,-5.69,-5.69,-8.80,-8.79,6.00,6.42,4.57,0.31,0.31,3.11
47.06,-5.54,-5.53,-8.62,-8.62,6.00,6.46,4.52,0.46,0.47,3.09
47.53,-5.39,-5.39,-8.45,-8.46,6.00,6.49,4.48,0.61,0.61,3.07
48.01,-5.25,-5.24,-8.31,-8.29,6.00,6.51,4.44,0.75,0.76,3.06
48.49,-5.09,-5.09,-8.11,-8.12,6.00,6.52,4.41,0.91,0.91,3.03
48.97,-4.94,-4.94,-7.93,-7.94,6.00,6.52,4.37,1.06,1.06,3.00
49.46,-4.80,-4.79,-7.76,-7.76,6.00,6.51,4.34,1.20,1.21,2.97
49.96,-4.64,-4.64,-7.57,-7.58,6.00,6.49,4.31,1.36,1.36,2.93
50.46,-4.50,-4.49,-7.42,-7.41,6.00,6.46,4.29,1.50,1.51,2.92
50.96,-4.33,-4.32,-7.22,-7.22,6.00,6.42,4.26,1.68,1.68,2.90
51.47,-4.16,-4.16,-7.02,-7.03,6.02,6.36,4.24,1.86,1.86,2.87
51.99,-3.99,-4.00,-6.83,-6.84,6.03,6.28,4.22,2.04,2.04,2.84
52.51,-3.85,-3.84,-6.68,-6.66,6.04,6.20,4.20,2.19,2.20,2.83
53.03,-3.68,-3.68,-6.48,-6.48,6.02,6.10,4.18,2.35,2.34,2.80
53.56,-3.52,-3.52,-6.29,-6.30,5.98,5.99,4.16,2.47,2.46,2.78
54.10,-3.36,-3.36,-6.11,-6.11,5.92,5.87,4.14,2.56,2.56,2.75
54.64,-3.21,-3.20,-5.93,-5.93,5.83,5.74,4.12,2.62,2.62,2.73
55.18,-3.05,-3.04,-5.75,-5.74,5.71,5.60,4.10,2.66,2.67,2.70
55.74,-2.88,-2.88,-5.55,-5.55,5.56,5.45,4.08,2.69,2.69,2.67
56.29,-2.71,-2.70,-5.36,-5.36,5.40,5.29,4.05,2.69,2.69,2.66
56.86,-2.54,-2.54,-5.17,-5.17,5.21,5.13,4.03,2.68,2.67,2.63
57.42,-2.38,-2.38,-4.97,-4.99,5.02,4.96,4.00,2.64,2.64,2.60
58.00,-2.24,-2.23,-4.82,-4.80,4.82,4.78,3.97,2.58,2.59,2.58
58.58,-2.07,-2.07,-4.63,-4.63,4.62,4.61,3.93,2.56,2.55,2.56
59.16,-1.91,-1.91,-4.44,-4.45,4.44,4.43,3.90,2.53,2.53,2.54
59.76,-1.75,-1.74,-4.27,-4.26,4.25,4.25,3.86,2.50,2.51,2.52
60.35,-1.58,-1.57,-4.06,-4.06,4.06,4.07,3.81,2.48,2.48,2.49
60.96,-1.40,-1.41,-3.86,-3.87,3.86,3.88,3.76,2.47,2.46,2.46
61.57,-1.25,-1.24,-3.67,-3.67,3.67,3.70,3.70,2.42,2.43,2.42
62.18,-1.09,-1.08,-3.47,-3.47,3.47,3.52,3.64,2.39,2.39,2.39
62.80,-0.92,-0.91,-3.28,-3.27,3.28,3.34,3.58,2.36,2.36,2.36
63.43,-0.75,-0.75,-3.07,-3.08,3.08,3.16,3.51,2.34,2.34,2.33
64.07,-0.58,-0.58,-2.88,-2.89,2.89,2.98,3.43,2.32,2.31,2.30
64.71,-0.44,-0.43,-2.71,-2.70,2.71,2.80,3.35,2.27,2.28,2.28
65.35,-0.28,-0.28,-2.52,-2.53,2.52,2.63,3.27,2.25,2.24,2.25
66.01,-0.14,-0.13,-2.36,-2.35,2.35,2.45,3.18,2.21,2.22,2.22
66.67,0.02,0.02,-2.17,-2.17,2.17,2.28,3.08,2.19,2.19,2.19
67.33,0.17,0.16,-1.99,-2.00,2.00,2.11,2.98,2.17,2.16,2.16
68.01,0.28,0.30,-1.85,-1.83,1.83,1.94,2.88,2.12,2.14,2.13
68.69,0.44,0.43,-1.66,-1.67,1.67,1.77,2.77,2.11,2.10,2.10
69.37,0.56,0.56,-1.50,-1.51,1.51,1.60,2.66,2.07,2.07,2.07
70.07,0.68,0.69,-1.35,-1.35,1.35,1.44,2.55,2.03,2.04,2.03
70.77,0.81,0.81,-1.20,-1.19,1.19,1.28,2.43,2.01,2.01,2.01
71.48,0.94,0.94,-1.03,-1.04,1.04,1.12,2.31,1.99,1.98,1.98
72.19,1.05,1.05,-0.89,-0.89,0.89,0.96,2.19,1.95,1.95,1.94
72.91,1.16,1.17,-0.74,-0.74,0.74,0.80,2.06,1.91,1.91,1.91
73.64,1.27,1.27,-0.59,-0.60,0.59,0.64,1.93,1.86,1.86,1.87
74.38,1.38,1.39,-0.46,-0.45,0.44,0.49,1.80,1.82,1.83,1.84
75.12,1.49,1.51,-0.31,-0.30,0.29,0.33,1.67,1.79,1.80,1.80
75.87,1.64,1.63,-0.13,-0.14,0.14,0.18,1.54,1.79,1.77,1.77
76.63,1.75,1.75,0.01,0.01,-0.01,0.03,1.41,1.75,1.75,1.74
77.40,1.86,1.87,0.15,0.16,-0.15,-0.12,1.27,1.71,1.72,1.71
78.17,1.97,1.98,0.30,0.30,-0.30,-0.27,1.14,1.68,1.68,1.67
78.95,2.08,2.08,0.44,0.44,-0.44,-0.42,1.00,1.65,1.65,1.65
79.74,2.19,2.19,0.58,0.57,-0.58,-0.57,0.86,1.62,1.61,1.61
80.54,2.28,2.29,0.70,0.71,-0.71,-0.71,0.72,1.57,1.58,1.58
81.35,2.38,2.39,0.84,0.84,-0.84,-0.86,0.58,1.54,1.55,1.54
82.16,2.49,2.48,0.98,0.97,-0.98,-1.00,0.44,1.52,1.51,1.51
82.98,2.58,2.58,1.10,1.10,-1.11,-1.14,0.30,1.47,1.47,1.48
83.81,2.66,2.68,1.23,1.24,-1.24,-1.28,0.16,1.42,1.44,1.44
84.65,2.77,2.77,1.38,1.37,-1.37,-1.42,0.02,1.40,1.40,1.40
85.50,2.88,2.87,1.51,1.50,-1.50,-1.55,-0.12,1.38,1.37,1.37
86.35,2.94,2.96,1.61,1.63,-1.62,-1.69,-0.26,1.32,1.33,1.33
87.22,3.04,3.04,1.75,1.75,-1.74,-1.82,-0.41,1.30,1.30,1.29
88.09,3.11,3.12,1.86,1.86,-1.86,-1.95,-0.55,1.25,1.26,1.25
88.97,3.20,3.20,1.98,1.98,-1.98,-2.08,-0.69,1.23,1.22,1.22
89.86,3.26,3.26,2.09,2.09,-2.09,-2.21,-0.84,1.17,1.17,1.18
90.76,3.32,3.33,2.20,2.20,-2.20,-2.33,-0.98,1.13,1.13,1.13
91.66,3.38,3.39,2.29,2.30,-2.30,-2.45,-1.13,1.08,1.08,1.09
92.58,3.45,3.45,2.41,2.41,-2.41,-2.57,-1.28,1.05,1.04,1.04
93.51,3.51,3.51,2.51,2.51,-2.51,-2.69,-1.42,1.00,1.00,1.01
94.44,3.57,3.57,2.61,2.61,-2.61,-2.80,-1.57,0.96,0.96,0.96
95.39,3.62,3.62,2.71,2.71,-2.71,-2.91,-1.72,0.92,0.92,0.92
96.34,3.66,3.67,2.80,2.80,-2.80,-3.02,-1.86,0.86,0.87,0.86
97.30,3.71,3.71,2.90,2.89,-2.89,-3.12,-2.01,0.82,0.81,0.82
98.28,3.74,3.75,2.97,2.98,-2.98,-3.22,-2.16,0.76,0.77,0.77
99.26,3.78,3.79,3.06,3.06,-3.06,-3.32,-2.31,0.72,0.73,0.73
100.25,3.83,3.82,3.15,3.14,-3.14,-3.41,-2.45,0.70,0.68,0.68
101.25,3.84,3.85,3.21,3.22,-3.21,-3.50,-2.60,0.64,0.64,0.64
102.27,3.87,3.87,3.28,3.28,-3.27,-3.58,-2.75,0.60,0.60,0.59
103.29,3.87,3.87,3.34,3.33,-3.33,-3.66,-2.89,0.54,0.54,0.53
104.32,3.87,3.88,3.38,3.38,-3.38,-3.73,-3.04,0.49,0.49,0.50
105.37,3.87,3.87,3.42,3.42,-3.44,-3.80,-3.18,0.44,0.44,0.45
106.42,3.87,3.87,3.47,3.47,-3.48,-3.87,-3.32,0.39,0.39,0.40
107.48,3.87,3.87,3.52,3.52,-3.53,-3.93,-3.46,0.35,0.35,0.36
108.56,3.87,3.88,3.57,3.57,-3.57,-3.99,-3.59,0.30,0.31,0.30
109.64,3.87,3.87,3.62,3.61,-3.61,-4.04,-3.72,0.26,0.26,0.26
110.74,3.86,3.86,3.65,3.65,-3.65,-4.09,-3.85,0.22,0.21,0.21
111.85,3.83,3.84,3.67,3.69,-3.68,-4.13,-3.97,0.15,0.16,0.16
112.97,3.83,3.82,3.74,3.71,-3.72,-4.17,-4.08,0.12,0.10,0.10
114.10,3.78,3.79,3.73,3.74,-3.74,-4.20,-4.20,0.04,0.05,0.05
115.24,3.76,3.76,3.77,3.77,-3.77,-4.23,-4.30,-0.00,-0.00,-0.00
116.39,3.73,3.72,3.79,3.78,-3.79,-4.25,-4.40,-0.05,-0.06,-0.06
117.55,3.68,3.69,3.79,3.80,-3.80,-4.27,-4.48,-0.12,-0.11,-0.11
118.73,3.65,3.66,3.82,3.82,-3.81,-4.29,-4.57,-0.16,-0.16,-0.16
119.92,3.62,3.61,3.83,3.82,-3.82,-4.30,-4.64,-0.20,-0.21,-0.21
121.12,3.56,3.57,3.82,3.83,-3.83,-4.31,-4.70,-0.26,-0.26,-0.26
122.33,3.51,3.52,3.83,3.83,-3.83,-4.31,-4.75,-0.32,-0.31,-0.31
123.55,3.47,3.47,3.83,3.83,-3.83,-4.31,-4.80,-0.36,-0.36,-0.35
124.79,3.42,3.42,3.83,3.83,-3.83,-4.30,-4.83,-0.41,-0.41,-0.41
126.03,3.37,3.37,3.83,3.83,-3.83,-4.29,-4.86,-0.46,-0.46,-0.46
127.29,3.31,3.32,3.82,3.83,-3.83,-4.28,-4.87,-0.52,-0.51,-0.51
128.57,3.27,3.27,3.84,3.83,-3.83,-4.27,-4.88,-0.55,-0.56,-0.57
129.85,3.21,3.21,3.83,3.83,-3.82,-4.25,-4.88,-0.61,-0.61,-0.61
131.15,3.15,3.16,3.82,3.82,-3.81,-4.23,-4.87,-0.66,-0.66,-0.66
132.46,3.09,3.09,3.80,3.80,-3.80,-4.20,-4.84,-0.71,-0.71,-0.71
133.79,3.02,3.03,3.77,3.78,-3.79,-4.18,-4.82,-0.76,-0.76,-0.75
135.12,2.96,2.97,3.77,3.76,-3.77,-4.15,-4.78,-0.81,-0.80,-0.80
136.48,2.91,2.91,3.75,3.75,-3.75,-4.12,-4.74,-0.84,-0.84,-0.84
137.84,2.84,2.85,3.73,3.73,-3.73,-4.09,-4.69,-0.89,-0.88,-0.88
139.22,2.78,2.78,3.72,3.71,-3.71,-4.05,-4.64,-0.92,-0.93,-0.94
140.61,2.71,2.72,3.69,3.69,-3.69,-4.01,-4.58,-0.97,-0.97,-0.98
142.02,2.65,2.66,3.65,3.66,-3.66,-3.98,-4.51,-1.01,-1.01,-1.00
143.44,2.59,2.59,3.64,3.64,-3.64,-3.94,-4.45,-1.04,-1.04,-1.04
144.87,2.53,2.53,3.62,3.61,-3.61,-3.90,-4.38,-1.08,-1.08,-1.08
146.32,2.46,2.47,3.59,3.58,-3.58,-3.85,-4.30,-1.12,-1.12,-1.12
147.78,2.40,2.40,3.55,3.56,-3.56,-3.81,-4.23,-1.15,-1.15,-1.15
149.26,2.34,2.34,3.53,3.53,-3.53,-3.77,-4.15,-1.19,-1.19,-1.19
150.75,2.27,2.28,3.51,3.51,-3.51,-3.72,-4.08,-1.23,-1.23,-1.24
152.26,2.21,2.21,3.49,3.48,-3.48,-3.68,-4.00,-1.27,-1.27,-1.27
153.78,2.15,2.15,3.46,3.46,-3.46,-3.63,-3.92,-1.31,-1.31,-1.31
155.32,2.08,2.09,3.44,3.44,-3.44,-3.58,-3.85,-1.35,-1.35,-1.35
156.88,2.03,2.03,3.42,3.42,-3.42,-3.54,-3.77,-1.38,-1.39,-1.39
158.44,1.97,1.97,3.40,3.40,-3.40,-3.49,-3.70,-1.43,-1.43,-1.43
160.03,1.90,1.91,3.37,3.38,-3.38,-3.44,-3.62,-1.48,-1.47,-1.47
161.63,1.85,1.85,3.37,3.37,-3.37,-3.39,-3.55,-1.51,-1.51,-1.51
163.24,1.80,1.80,3.36,3.35,-3.35,-3.35,-3.48,-1.55,-1.55,-1.55
164.88,1.75,1.75,3.34,3.34,-3.34,-3.30,-3.41,-1.59,-1.59,-1.58
166.53,1.70,1.71,3.33,3.33,-3.33,-3.25,-3.35,-1.62,-1.62,-1.62
168.19,1.66,1.66,3.32,3.32,-3.32,-3.20,-3.28,-1.65,-1.66,-1.66
169.87,1.61,1.61,3.31,3.31,-3.31,-3.15,-3.22,-1.70,-1.70,-1.70
171.57,1.56,1.57,3.30,3.30,-3.30,-3.10,-3.16,-1.74,-1.74,-1.73
173.29,1.51,1.52,3.28,3.29,-3.29,-3.06,-3.10,-1.78,-1.78,-1.77
175.02,1.47,1.47,3.28,3.28,-3.28,-3.01,-3.05,-1.81,-1.81,-1.81
176.77,1.42,1.42,3.27,3.27,-3.27,-2.96,-2.99,-1.85,-1.85,-1.85
178.54,1.37,1.37,3.27,3.26,-3.26,-2.91,-2.94,-1.89,-1.89,-1.90
180.32,1.31,1.33,3.24,3.25,-3.25,-2.87,-2.89,-1.94,-1.92,-1.93
182.13,1.28,1.27,3.24,3.24,-3.23,-2.82,-2.85,-1.95,-1.96,-1.96
183.95,1.22,1.22,3.23,3.22,-3.21,-2.77,-2.81,-1.99,-1.99,-2.00
185.79,1.15,1.16,3.19,3.20,-3.19,-2.73,-2.77,-2.04,-2.03,-2.03
187.65,1.09,1.09,3.17,3.17,-3.17,-2.68,-2.73,-2.07,-2.07,-2.08
189.52,1.03,1.03,3.14,3.14,-3.14,-2.64,-2.69,-2.11,-2.11,-2.11
191.42,0.97,0.97,3.11,3.11,-3.12,-2.59,-2.65,-2.14,-2.14,-2.13
193.33,0.91,0.92,3.08,3.08,-3.09,-2.55,-2.62,-2.18,-2.17,-2.16
195.27,0.87,0.87,3.07,3.06,-3.07,-2.50,-2.59,-2.19,-2.20,-2.19
197.22,0.82,0.82,3.04,3.05,-3.05,-2.46,-2.56,-2.22,-2.23,-2.22
199.19,0.77,0.78,3.03,3.03,-3.03,-2.42,-2.54,-2.26,-2.25,-2.26
201.18,0.74,0.74,3.02,3.01,-3.01,-2.38,-2.51,-2.27,-2.27,-2.27
203.19,0.70,0.70,2.99,2.99,-3.00,-2.34,-2.49,-2.29,-2.29,-2.29
205.23,0.66,0.67,2.98,2.97,-2.98,-2.30,-2.47,-2.31,-2.31,-2.31
207.28,0.62,0.63,2.94,2.95,-2.96,-2.25,-2.45,-2.33,-2.33,-2.32
209.35,0.59,0.59,2.94,2.93,-2.93,-2.21,-2.43,-2.34,-2.34,-2.34
211.44,0.54,0.55,2.91,2.91,-2.90,-2.18,-2.41,-2.36,-2.35,-2.37
213.56,0.50,0.50,2.88,2.88,-2.87,-2.14,-2.39,-2.36,-2.37,-2.37
215.69,0.45,0.45,2.83,2.83,-2.83,-2.10,-2.37,-2.37,-2.38,-2.38
217.85,0.39,0.40,2.78,2.79,-2.78,-2.06,-2.36,-2.39,-2.39,-2.39
220.03,0.33,0.34,2.73,2.74,-2.73,-2.02,-2.34,-2.40,-2.39,-2.40
222.23,0.27,0.27,2.69,2.68,-2.68,-1.99,-2.32,-2.40,-2.40,-2.41
224.45,0.21,0.21,2.62,2.62,-2.62,-1.95,-2.31,-2.41,-2.41,-2.40
226.70,0.14,0.15,2.55,2.55,-2.56,-1.92,-2.29,-2.42,-2.41,-2.41
228.96,0.08,0.09,2.49,2.50,-2.51,-1.88,-2.27,-2.42,-2.41,-2.41
231.25,0.05,0.04,2.45,2.44,-2.45,-1.85,-2.25,-2.40,-2.41,-2.40
233.57,-0.01,-0.00,2.39,2.40,-2.40,-1.81,-2.23,-2.40,-2.40,-2.40
235.90,-0.06,-0.05,2.34,2.35,-2.34,-1.78,-2.21,-2.40,-2.39,-2.40
238.26,-0.09,-0.10,2.31,2.30,-2.29,-1.75,-2.19,-2.37,-2.38,-2.40
240.64,-0.15,-0.14,2.24,2.24,-2.23,-1.71,-2.17,-2.38,-2.38,-2.38
243.05,-0.20,-0.19,2.18,2.18,-2.18,-1.68,-2.15,-2.38,-2.37,-2.37
245.48,-0.25,-0.25,2.12,2.12,-2.12,-1.65,-2.12,-2.37,-2.37,-2.36
247.93,-0.29,-0.29,2.06,2.06,-2.07,-1.62,-2.09,-2.35,-2.36,-2.35
250.41,-0.34,-0.33,2.01,2.01,-2.01,-1.59,-2.06,-2.35,-2.34,-2.35
252.92,-0.37,-0.37,1.96,1.95,-1.95,-1.56,-2.03,-2.32,-2.32,-2.33
255.45,-0.41,-0.41,1.90,1.90,-1.90,-1.53,-2.00,-2.30,-2.31,-2.30
258.00,-0.46,-0.45,1.83,1.84,-1.84,-1.50,-1.97,-2.30,-2.29,-2.29
260.58,-0.49,-0.49,1.79,1.78,-1.78,-1.47,-1.93,-2.27,-2.27,-2.28
263.19,-0.53,-0.53,1.73,1.73,-1.72,-1.45,-1.90,-2.25,-2.25,-2.25
265.82,-0.57,-0.57,1.67,1.67,-1.66,-1.42,-1.86,-2.23,-2.23,-2.24
268.48,-0.61,-0.61,1.61,1.61,-1.60,-1.39,-1.82,-2.21,-2.21,-2.22
271.16,-0.66,-0.65,1.54,1.54,-1.54,-1.37,-1.78,-2.20,-2.19,-2.19
273.87,-0.69,-0.69,1.49,1.48,-1.48,-1.34,-1.73,-2.17,-2.18,-2.18
276.61,-0.74,-0.74,1.42,1.42,-1.43,-1.31,-1.69,-2.16,-2.16,-2.15
279.38,-0.78,-0.77,1.36,1.37,-1.37,-1.29,-1.64,-2.15,-2.14,-2.14
282.17,-0.81,-0.81,1.32,1.31,-1.32,-1.26,-1.60,-2.12,-2.12,-2.12
284.99,-0.83,-0.83,1.27,1.27,-1.27,-1.24,-1.55,-2.09,-2.10,-2.10
287.84,-0.87,-0.86,1.22,1.22,-1.22,-1.22,-1.50,-2.09,-2.08,-2.08
290.72,-0.88,-0.89,1.18,1.17,-1.17,-1.19,-1.45,-2.05,-2.06,-2.06
293.63,-0.93,-0.91,1.12,1.12,-1.13,-1.17,-1.40,-2.05,-2.04,-2.04
296.57,-0.94,-0.94,1.08,1.08,-1.08,-1.15,-1.35,-2.01,-2.02,-2.02
299.53,-0.97,-0.97,1.03,1.03,-1.03,-1.13,-1.30,-1.99,-1.99,-2.00
302.53,-1.00,-0.99,0.99,0.98,-0.97,-1.11,-1.25,-1.97,-1.97,-1.98
305.55,-1.03,-1.03,0.92,0.93,-0.92,-1.08,-1.20,-1.94,-1.95,-1.95
308.61,-1.07,-1.07,0.87,0.86,-0.86,-1.06,-1.15,-1.93,-1.93,-1.93
311.69,-1.11,-1.10,0.80,0.80,-0.80,-1.04,-1.10,-1.91,-1.90,-1.90
314.81,-1.14,-1.14,0.73,0.74,-0.75,-1.02,-1.05,-1.88,-1.88,-1.87
317.96,-1.16,-1.17,0.70,0.69,-0.69,-1.00,-1.00,-1.85,-1.86,-1.85
321.14,-1.21,-1.20,0.63,0.64,-0.64,-0.98,-0.95,-1.85,-1.84,-1.83
324.35,-1.22,-1.22,0.60,0.60,-0.59,-0.97,-0.90,-1.81,-1.81,-1.82
327.59,-1.25,-1.24,0.54,0.55,-0.55,-0.95,-0.85,-1.80,-1.79,-1.79
330.87,-1.25,-1.26,0.53,0.51,-0.51,-0.93,-0.80,-1.76,-1.78,-1.77
334.18,-1.30,-1.28,0.46,0.47,-0.48,-0.91,-0.75,-1.78,-1.76,-1.76
337.52,-1.30,-1.29,0.44,0.44,-0.45,-0.89,-0.71,-1.75,-1.74,-1.74
340.90,-1.30,-1.30,0.42,0.41,-0.42,-0.88,-0.66,-1.71,-1.72,-1.71
344.30,-1.30,-1.29,0.40,0.40,-0.39,-0.86,-0.61,-1.69,-1.68,-1.69
347.75,-1.30,-1.30,0.38,0.38,-0.36,-0.84,-0.56,-1.66,-1.66,-1.68
351.23,-1.31,-1.31,0.35,0.35,-0.34,-0.83,-0.51,-1.64,-1.65,-1.66
354.74,-1.34,-1.33,0.30,0.31,-0.31,-0.81,-0.47,-1.65,-1.64,-1.64
358.28,-1.35,-1.34,0.28,0.28,-0.29,-0.79,-0.42,-1.64,-1.63,-1.62
361.87,-1.35,-1.35,0.26,0.26,-0.27,-0.78,-0.37,-1.61,-1.62,-1.60
365.49,-1.35,-1.35,0.24,0.24,-0.24,-0.76,-0.33,-1.59,-1.59,-1.59
369.14,-1.35,-1.34,0.23,0.23,-0.22,-0.75,-0.28,-1.57,-1.56,-1.58
372.83,-1.35,-1.35,0.21,0.21,-0.20,-0.73,-0.23,-1.54,-1.55,-1.56
376.56,-1.36,-1.36,0.20,0.18,-0.18,-0.72,-0.19,-1.54,-1.54,-1.55
380.33,-1.39,-1.38,0.14,0.15,-0.16,-0.71,-0.14,-1.55,-1.54,-1.52
384.13,-1.39,-1.39,0.13,0.13,-0.14,-0.69,-0.10,-1.53,-1.53,-1.52
387.97,-1.39,-1.39,0.12,0.12,-0.13,-0.68,-0.06,-1.51,-1.51,-1.51
391.85,-1.39,-1.38,0.11,0.11,-0.10,-0.67,-0.01,-1.49,-1.49,-1.50
395.77,-1.39,-1.39,0.09,0.10,-0.08,-0.65,0.03,-1.47,-1.47,-1.48
399.73,-1.39,-1.40,0.09,0.08,-0.06,-0.64,0.07,-1.45,-1.46,-1.47
403.72,-1.42,-1.41,0.05,0.05,-0.05,-0.63,0.12,-1.46,-1.46,-1.46
407.76,-1.44,-1.43,0.02,0.02,-0.03,-0.62,0.16,-1.47,-1.46,-1.45
411.84,-1.44,-1.44,-0.00,0.00,-0.02,-0.60,0.20,-1.45,-1.45,-1.44
415.96,-1.44,-1.44,-0.01,-0.01,0.00,-0.59,0.24,-1.43,-1.44,-1.43
420.12,-1.44,-1.43,-0.02,-0.02,0.02,-0.58,0.28,-1.41,-1.41,-1.42
424.32,-1.44,-1.43,-0.03,-0.03,0.04,-0.57,0.32,-1.40,-1.39,-1.41
428.56,-1.44,-1.44,-0.04,-0.04,0.06,-0.56,0.35,-1.38,-1.39,-1.40
432.85,-1.46,-1.46,-0.07,-0.07,0.07,-0.55,0.39,-1.38,-1.39,-1.39
437.18,-1.49,-1.48,-0.10,-0.10,0.09,-0.54,0.42,-1.40,-1.38,-1.38
441.55,-1.49,-1.49,-0.12,-0.12,0.11,-0.53,0.46,-1.38,-1.38,-1.36
445.96,-1.49,-1.49,-0.13,-0.14,0.13,-0.52,0.49,-1.36,-1.36,-1.35
450.42,-1.49,-1.49,-0.14,-0.14,0.14,-0.51,0.52,-1.34,-1.34,-1.34
454.93,-1.49,-1.49,-0.16,-0.16,0.16,-0.50,0.55,-1.32,-1.32,-1.33
