frequency,raw,error,smoothed,error_smoothed,equalization,parametric_eq,fixed_band_eq,equalized_raw,equalized_smoothed,target
20.00,6.36,-0.76,6.36,-0.76,0.76,-0.15,0.02,7.11,7.12,7.12
20.20,6.40,-0.72,6.39,-0.72,0.72,-0.16,0.02,7.12,7.12,7.12
20.40,6.43,-0.69,6.42,-0.69,0.69,-0.16,0.02,7.12,7.11,7.12
20.61,6.46,-0.66,6.46,-0.66,0.66,-0.16,0.02,7.11,7.11,7.12
20.81,6.49,-0.62,6.49,-0.63,0.63,-0.17,0.02,7.11,7.11,7.10
21.02,6.52,-0.59,6.52,-0.59,0.59,-0.17,0.02,7.11,7.11,7.10
21.23,6.54,-0.57,6.54,-0.56,0.56,-0.17,0.02,7.10,7.11,7.10
21.44,6.57,-0.55,6.57,-0.53,0.53,-0.18,0.02,7.10,7.10,7.11
21.66,6.60,-0.51,6.60,-0.50,0.50,-0.18,0.02,7.10,7.10,7.10
21.87,6.63,-0.47,6.63,-0.47,0.47,-0.19,0.02,7.10,7.10,7.10
22.09,6.66,-0.43,6.66,-0.44,0.44,-0.19,0.02,7.09,7.09,7.09
22.31,6.69,-0.40,6.68,-0.41,0.41,-0.19,0.03,7.09,7.09,7.09
22.54,6.71,-0.37,6.71,-0.37,0.37,-0.20,0.03,7.08,7.08,7.08
22.76,6.74,-0.34,6.74,-0.34,0.34,-0.20,0.03,7.08,7.08,7.08
22.99,6.76,-0.32,6.76,-0.31,0.31,-0.21,0.03,7.07,7.08,7.08
23.22,6.79,-0.28,6.79,-0.28,0.28,-0.21,0.03,7.07,7.07,7.07
23.45,6.82,-0.25,6.81,-0.25,0.25,-0.22,0.03,7.07,7.07,7.07
23.69,6.84,-0.22,6.84,-0.22,0.22,-0.22,0.03,7.06,7.06,7.06
23.92,6.86,-0.19,6.86,-0.20,0.20,-0.23,0.03,7.05,7.06,7.05
24.16,6.89,-0.16,6.88,-0.17,0.17,-0.23,0.03,7.06,7.05,7.05
24.40,6.90,-0.15,6.90,-0.14,0.14,-0.24,0.02,7.04,7.05,7.05
24.65,6.93,-0.12,6.93,-0.12,0.12,-0.24,0.02,7.05,7.05,7.05
24.89,6.95,-0.10,6.95,-0.09,0.09,-0.25,0.02,7.04,7.04,7.05
25.14,6.97,-0.08,6.97,-0.07,0.07,-0.25,0.02,7.04,7.04,7.04
25.39,6.99,-0.05,6.99,-0.05,0.05,-0.26,0.02,7.04,7.04,7.03
25.65,7.01,-0.03,7.01,-0.03,0.03,-0.26,0.02,7.04,7.04,7.03
25.91,7.03,-0.00,7.03,-0.01,0.01,-0.27,0.02,7.04,7.04,7.03
26.16,7.05,0.01,7.05,0.01,-0.01,-0.27,0.02,7.04,7.04,7.04
26.43,7.07,0.03,7.07,0.03,-0.03,-0.28,0.02,7.04,7.04,7.04
26.69,7.09,0.05,7.09,0.05,-0.05,-0.29,0.01,7.04,7.04,7.04
26.96,7.11,0.07,7.11,0.07,-0.07,-0.29,0.01,7.04,7.04,7.04
27.23,7.13,0.09,7.12,0.09,-0.09,-0.30,0.01,7.04,7.04,7.04
27.50,7.14,0.10,7.14,0.11,-0.11,-0.31,0.00,7.03,7.04,7.04
27.77,7.16,0.11,7.16,0.12,-0.12,-0.31,-0.00,7.03,7.03,7.04
28.05,7.18,0.14,7.17,0.14,-0.14,-0.32,-0.01,7.04,7.03,7.03
28.33,7.19,0.16,7.19,0.16,-0.16,-0.33,-0.01,7.03,7.03,7.03
28.62,7.21,0.19,7.20,0.18,-0.18,-0.33,-0.02,7.03,7.03,7.02
28.90,7.22,0.19,7.22,0.20,-0.20,-0.34,-0.02,7.02,7.02,7.03
29.19,7.24,0.22,7.23,0.22,-0.22,-0.35,-0.03,7.02,7.02,7.02
29.48,7.24,0.23,7.24,0.23,-0.23,-0.36,-0.04,7.01,7.01,7.01
29.78,7.26,0.25,7.26,0.25,-0.25,-0.36,-0.05,7.01,7.01,7.01
30.08,7.27,0.26,7.27,0.26,-0.26,-0.37,-0.06,7.00,7.00,7.00
30.38,7.28,0.29,7.28,0.28,-0.28,-0.38,-0.07,7.00,7.00,6.99
30.68,7.29,0.30,7.29,0.29,-0.29,-0.39,-0.08,6.99,7.00,6.99
30.99,7.30,0.31,7.30,0.31,-0.31,-0.40,-0.09,6.99,6.99,6.99
31.30,7.31,0.32,7.31,0.32,-0.32,-0.41,-0.10,6.99,6.99,6.99
31.61,7.32,0.33,7.32,0.33,-0.33,-0.42,-0.11,6.99,6.99,6.98
31.93,7.33,0.35,7.33,0.34,-0.34,-0.42,-0.13,6.99,6.99,6.98
32.24,7.34,0.35,7.34,0.35,-0.35,-0.43,-0.14,6.99,6.99,6.99
32.57,7.35,0.37,7.35,0.36,-0.36,-0.44,-0.16,6.98,6.98,6.98
32.89,7.36,0.37,7.36,0.37,-0.37,-0.45,-0.17,6.98,6.98,6.99
33.22,7.37,0.38,7.36,0.39,-0.39,-0.46,-0.19,6.98,6.98,6.98
33.55,7.37,0.39,7.37,0.40,-0.40,-0.47,-0.20,6.97,6.97,6.98
33.89,7.38,0.41,7.38,0.41,-0.41,-0.49,-0.22,6.97,6.97,6.97
34.23,7.39,0.43,7.39,0.43,-0.43,-0.50,-0.24,6.96,6.96,6.96
34.57,7.40,0.44,7.39,0.45,-0.45,-0.51,-0.26,6.95,6.95,6.95
34.92,7.40,0.47,7.40,0.47,-0.47,-0.52,-0.28,6.93,6.93,6.93
35.27,7.41,0.48,7.40,0.49,-0.49,-0.53,-0.30,6.92,6.91,6.93
35.62,7.41,0.51,7.41,0.51,-0.51,-0.54,-0.32,6.89,6.89,6.89
35.97,7.41,0.53,7.41,0.54,-0.54,-0.56,-0.34,6.87,6.87,6.88
36.33,7.42,0.56,7.42,0.57,-0.57,-0.57,-0.37,6.85,6.85,6.86
36.70,7.42,0.59,7.42,0.60,-0.60,-0.58,-0.39,6.82,6.82,6.82
37.06,7.43,0.63,7.43,0.63,-0.63,-0.59,-0.41,6.80,6.80,6.80
37.43,7.43,0.66,7.43,0.66,-0.66,-0.61,-0.44,6.77,6.77,6.77
37.81,7.44,0.70,7.43,0.69,-0.69,-0.62,-0.46,6.75,6.74,6.74
38.19,7.43,0.72,7.43,0.72,-0.72,-0.64,-0.49,6.71,6.71,6.71
38.57,7.44,0.75,7.43,0.75,-0.75,-0.65,-0.51,6.69,6.69,6.68
38.95,7.44,0.78,7.44,0.78,-0.78,-0.66,-0.54,6.66,6.66,6.66
39.34,7.44,0.81,7.44,0.81,-0.81,-0.68,-0.57,6.63,6.63,6.62
39.74,7.44,0.84,7.44,0.83,-0.83,-0.69,-0.59,6.61,6.61,6.60
40.14,7.44,0.86,7.44,0.86,-0.86,-0.71,-0.62,6.58,6.58,6.57
40.54,7.43,0.87,7.44,0.88,-0.88,-0.73,-0.65,6.55,6.56,6.56
40.94,7.44,0.90,7.44,0.90,-0.90,-0.74,-0.68,6.53,6.53,6.53
41.35,7.44,0.93,7.44,0.92,-0.92,-0.76,-0.71,6.51,6.51,6.51
41.76,7.44,0.96,7.43,0.94,-0.94,-0.78,-0.74,6.50,6.49,6.48
42.18,7.44,0.96,7.43,0.96,-0.96,-0.80,-0.77,6.48,6.47,6.48
42.60,7.43,0.98,7.43,0.98,-0.98,-0.81,-0.80,6.45,6.45,6.45
43.03,7.43,1.00,7.42,0.99,-0.99,-0.83,-0.83,6.43,6.43,6.42
43.46,7.42,1.01,7.42,1.01,-1.01,-0.85,-0.87,6.41,6.41,6.41
43.90,7.42,1.03,7.42,1.03,-1.03,-0.87,-0.90,6.39,6.39,6.39
44.33,7.41,1.05,7.41,1.04,-1.04,-0.89,-0.93,6.36,6.37,6.36
44.78,7.40,1.05,7.40,1.06,-1.06,-0.91,-0.97,6.34,6.34,6.34
45.23,7.40,1.06,7.40,1.08,-1.08,-0.93,-1.00,6.32,6.32,6.34
45.68,7.39,1.09,7.39,1.10,-1.10,-0.95,-1.04,6.29,6.29,6.30
46.13,7.39,1.13,7.39,1.12,-1.12,-0.97,-1.08,6.27,6.27,6.26
46.60,7.38,1.14,7.38,1.14,-1.14,-0.99,-1.11,6.24,6.24,6.24
47.06,7.38,1.17,7.37,1.17,-1.17,-1.02,-1.15,6.21,6.20,6.21
47.53,7.37,1.19,7.36,1.19,-1.19,-1.04,-1.19,6.17,6.17,6.18
48.01,7.36,1.22,7.36,1.22,-1.22,-1.06,-1.23,6.14,6.14,6.13
48.49,7.35,1.24,7.35,1.25,-1.25,-1.09,-1.27,6.10,6.10,6.10
48.97,7.34,1.28,7.34,1.28,-1.28,-1.11,-1.31,6.06,6.06,6.06
49.46,7.33,1.30,7.33,1.31,-1.31,-1.14,-1.35,6.02,6.02,6.03
49.96,7.33,1.36,7.32,1.34,-1.34,-1.16,-1.39,5.99,5.98,5.97
50.46,7.31,1.37,7.31,1.37,-1.37,-1.19,-1.43,5.94,5.94,5.94
50.96,7.30,1.40,7.30,1.39,-1.39,-1.21,-1.47,5.90,5.91,5.90
51.47,7.29,1.42,7.29,1.42,-1.42,-1.24,-1.51,5.87,5.87,5.86
51.99,7.28,1.46,7.28,1.45,-1.45,-1.26,-1.55,5.83,5.83,5.82
52.51,7.27,1.48,7.26,1.48,-1.48,-1.29,-1.59,5.79,5.79,5.79
53.03,7.25,1.49,7.25,1.50,-1.50,-1.32,-1.63,5.74,5.75,5.76
53.56,7.24,1.52,7.24,1.53,-1.53,-1.35,-1.67,5.71,5.71,5.72
54.10,7.23,1.55,7.22,1.55,-1.55,-1.37,-1.71,5.68,5.67,5.67
54.64,7.21,1.57,7.21,1.57,-1.57,-1.40,-1.75,5.63,5.64,5.64
55.18,7.20,1.61,7.20,1.59,-1.59,-1.43,-1.78,5.60,5.60,5.59
55.74,7.18,1.62,7.18,1.61,-1.61,-1.46,-1.82,5.57,5.57,5.55
56.29,7.17,1.64,7.17,1.63,-1.63,-1.49,-1.85,5.54,5.54,5.53
56.86,7.15,1.65,7.15,1.65,-1.65,-1.52,-1.89,5.50,5.50,5.50
57.42,7.14,1.69,7.13,1.67,-1.67,-1.55,-1.92,5.47,5.47,5.45
58.00,7.12,1.70,7.12,1.69,-1.69,-1.58,-1.95,5.43,5.43,5.42
58.58,7.11,1.71,7.10,1.71,-1.71,-1.61,-1.97,5.40,5.39,5.40
59.16,7.08,1.71,7.08,1.73,-1.73,-1.64,-2.00,5.34,5.35,5.37
59.76,7.07,1.73,7.07,1.76,-1.76,-1.67,-2.02,5.31,5.31,5.34
60.35,7.05,1.76,7.05,1.78,-1.78,-1.70,-2.04,5.27,5.27,5.29
60.96,7.03,1.78,7.03,1.80,-1.80,-1.73,-2.06,5.23,5.23,5.25
61.57,7.01,1.82,7.01,1.82,-1.82,-1.76,-2.08,5.18,5.19,5.18
62.18,6.99,1.86,6.99,1.85,-1.85,-1.79,-2.09,5.14,5.14,5.13
62.80,6.98,1.89,6.97,1.87,-1.87,-1.82,-2.10,5.10,5.10,5.09
63.43,6.96,1.93,6.95,1.90,-1.90,-1.85,-2.11,5.06,5.06,5.03
64.07,6.94,1.94,6.93,1.92,-1.92,-1.88,-2.12,5.02,5.01,5.00
64.71,6.92,1.96,6.91,1.95,-1.95,-1.91,-2.12,4.97,4.97,4.96
65.35,6.89,1.97,6.89,1.97,-1.97,-1.94,-2.12,4.92,4.92,4.92
66.01,6.87,1.98,6.87,1.99,-1.99,-1.97,-2.12,4.88,4.88,4.88
66.67,6.86,2.00,6.85,2.01,-2.01,-2.00,-2.12,4.85,4.84,4.85
67.33,6.82,2.01,6.83,2.03,-2.03,-2.02,-2.12,4.79,4.80,4.81
68.01,6.81,2.04,6.81,2.04,-2.04,-2.05,-2.11,4.77,4.76,4.76
68.69,6.79,2.06,6.78,2.06,-2.06,-2.08,-2.10,4.73,4.72,4.72
69.37,6.76,2.07,6.76,2.07,-2.07,-2.10,-2.09,4.68,4.69,4.69
70.07,6.74,2.08,6.73,2.09,-2.09,-2.13,-2.08,4.65,4.65,4.66
70.77,6.71,2.09,6.71,2.10,-2.10,-2.15,-2.07,4.60,4.61,4.61
71.48,6.69,2.12,6.69,2.12,-2.12,-2.17,-2.06,4.57,4.57,4.57
72.19,6.66,2.13,6.66,2.13,-2.13,-2.19,-2.05,4.52,4.53,4.52
72.91,6.64,2.15,6.63,2.15,-2.15,-2.21,-2.03,4.49,4.49,4.49
73.64,6.61,2.17,6.61,2.16,-2.16,-2.23,-2.02,4.45,4.45,4.44
74.38,6.58,2.18,6.58,2.17,-2.17,-2.25,-2.01,4.41,4.41,4.40
75.12,6.56,2.19,6.55,2.18,-2.18,-2.27,-1.99,4.38,4.38,4.36
75.87,6.53,2.18,6.53,2.19,-2.19,-2.28,-1.98,4.34,4.34,4.34
76.63,6.50,2.19,6.50,2.19,-2.19,-2.30,-1.97,4.31,4.31,4.30
77.40,6.47,2.20,6.47,2.20,-2.20,-2.31,-1.96,4.27,4.27,4.27
78.17,6.45,2.22,6.44,2.20,-2.20,-2.32,-1.95,4.24,4.24,4.23
78.95,6.41,2.19,6.41,2.21,-2.21,-2.33,-1.94,4.20,4.21,4.22
79.74,6.39,2.21,6.38,2.21,-2.21,-2.34,-1.93,4.18,4.18,4.18
80.54,6.35,2.20,6.35,2.21,-2.21,-2.34,-1.92,4.14,4.15,4.15
81.35,6.33,2.21,6.32,2.21,-2.21,-2.35,-1.91,4.12,4.12,4.12
82.16,6.29,2.19,6.29,2.21,-2.21,-2.35,-1.91,4.08,4.09,4.09
82.98,6.26,2.20,6.26,2.20,-2.20,-2.36,-1.90,4.05,4.06,4.06
83.81,6.24,2.21,6.23,2.20,-2.20,-2.36,-1.90,4.03,4.03,4.03
84.65,6.21,2.22,6.20,2.20,-2.20,-2.36,-1.90,4.01,4.00,3.99
85.50,6.17,2.21,6.17,2.20,-2.20,-2.35,-1.90,3.97,3.97,3.96
86.35,6.14,2.20,6.14,2.20,-2.20,-2.35,-1.90,3.94,3.94,3.94
87.22,6.10,2.19,6.10,2.19,-2.19,-2.35,-1.90,3.90,3.91,3.91
88.09,6.07,2.19,6.07,2.19,-2.19,-2.34,-1.91,3.88,3.88,3.88
88.97,6.03,2.18,6.04,2.19,-2.19,-2.34,-1.91,3.84,3.85,3.85
89.86,6.01,2.19,6.00,2.19,-2.19,-2.33,-1.92,3.82,3.81,3.81
90.76,5.97,2.19,5.97,2.19,-2.19,-2.32,-1.93,3.78,3.78,3.78
91.66,5.93,2.18,5.93,2.19,-2.19,-2.31,-1.94,3.74,3.74,3.75
92.58,5.90,2.19,5.90,2.19,-2.19,-2.30,-1.95,3.71,3.71,3.71
93.51,5.86,2.18,5.86,2.19,-2.19,-2.29,-1.96,3.67,3.67,3.68
94.44,5.83,2.19,5.82,2.19,-2.19,-2.28,-1.98,3.63,3.63,3.64
95.39,5.79,2.19,5.79,2.20,-2.20,-2.26,-1.99,3.59,3.59,3.60
96.34,5.75,2.20,5.75,2.20,-2.20,-2.25,-2.01,3.54,3.55,3.55
97.30,5.71,2.19,5.71,2.21,-2.21,-2.24,-2.03,3.50,3.51,3.51
98.28,5.68,2.22,5.67,2.21,-2.21,-2.22,-2.05,3.47,3.46,3.46
99.26,5.64,2.23,5.64,2.21,-2.21,-2.21,-2.07,3.42,3.42,3.41
100.25,5.60,2.23,5.60,2.21,-2.21,-2.19,-2.09,3.38,3.38,3.37
101.25,5.56,2.22,5.56,2.22,-2.22,-2.18,-2.11,3.34,3.34,3.33
102.27,5.52,2.22,5.52,2.22,-2.22,-2.16,-2.14,3.30,3.30,3.30
103.29,5.48,2.22,5.48,2.21,-2.21,-2.15,-2.16,3.26,3.27,3.26
104.32,5.44,2.21,5.44,2.21,-2.21,-2.13,-2.18,3.23,3.23,3.23
105.37,5.40,2.21,5.40,2.20,-2.20,-2.12,-2.21,3.19,3.19,3.19
106.42,5.36,2.19,5.36,2.20,-2.20,-2.10,-2.23,3.16,3.16,3.16
107.48,5.32,2.20,5.32,2.19,-2.19,-2.09,-2.26,3.12,3.13,3.12
108.56,5.28,2.19,5.28,2.19,-2.19,-2.08,-2.28,3.09,3.09,3.09
109.64,5.24,2.18,5.24,2.18,-2.18,-2.06,-2.30,3.06,3.06,3.06
110.74,5.19,2.16,5.19,2.17,-2.17,-2.05,-2.32,3.01,3.02,3.02
111.85,5.16,2.17,5.15,2.17,-2.17,-2.04,-2.35,2.99,2.98,2.99
112.97,5.11,2.16,5.11,2.17,-2.17,-2.03,-2.37,2.94,2.94,2.95
114.10,5.07,2.15,5.06,2.16,-2.16,-2.02,-2.38,2.91,2.90,2.91
115.24,5.02,2.15,5.02,2.16,-2.16,-2.01,-2.40,2.86,2.86,2.87
116.39,4.98,2.17,4.98,2.16,-2.16,-2.00,-2.41,2.82,2.82,2.81
117.55,4.94,2.16,4.93,2.16,-2.16,-1.99,-2.43,2.78,2.78,2.78
118.73,4.89,2.17,4.89,2.16,-2.16,-1.98,-2.44,2.73,2.73,2.72
119.92,4.84,2.16,4.84,2.16,-2.16,-1.98,-2.45,2.68,2.68,2.68
121.12,4.80,2.16,4.80,2.16,-2.16,-1.97,-2.45,2.64,2.64,2.64
122.33,4.75,2.16,4.75,2.16,-2.16,-1.97,-2.45,2.58,2.59,2.59
123.55,4.71,2.16,4.71,2.17,-2.17,-1.96,-2.45,2.54,2.54,2.55
124.79,4.66,2.15,4.66,2.17,-2.17,-1.96,-2.45,2.49,2.49,2.50
126.03,4.61,2.16,4.61,2.17,-2.17,-1.96,-2.44,2.43,2.44,2.45
127.29,4.57,2.18,4.57,2.18,-2.18,-1.96,-2.43,2.39,2.39,2.39
128.57,4.53,2.19,4.52,2.18,-2.18,-1.96,-2.42,2.35,2.34,2.34
129.85,4.47,2.18,4.47,2.18,-2.18,-1.96,-2.41,2.29,2.30,2.29
131.15,4.43,2.19,4.42,2.18,-2.18,-1.96,-2.39,2.25,2.25,2.24
132.46,4.38,2.18,4.38,2.17,-2.17,-1.96,-2.37,2.21,2.21,2.19
133.79,4.33,2.17,4.33,2.17,-2.17,-1.97,-2.35,2.16,2.16,2.16
135.12,4.28,2.17,4.28,2.16,-2.16,-1.97,-2.32,2.12,2.12,2.11
136.48,4.23,2.15,4.23,2.15,-2.15,-1.97,-2.30,2.08,2.08,2.08
137.84,4.19,2.14,4.18,2.14,-2.14,-1.98,-2.27,2.05,2.05,2.05
139.22,4.14,2.13,4.13,2.12,-2.12,-1.99,-2.24,2.01,2.01,2.00
140.61,4.08,2.10,4.08,2.10,-2.10,-1.99,-2.21,1.97,1.98,1.98
142.02,4.04,2.09,4.03,2.08,-2.08,-2.00,-2.18,1.95,1.95,1.95
143.44,3.99,2.07,3.98,2.06,-2.06,-2.01,-2.14,1.92,1.92,1.92
144.87,3.93,2.03,3.93,2.04,-2.04,-2.01,-2.11,1.89,1.89,1.89
146.32,3.88,2.01,3.88,2.02,-2.02,-2.02,-2.07,1.86,1.86,1.86
147.78,3.83,1.99,3.83,1.99,-1.99,-2.03,-2.04,1.83,1.83,1.83
149.26,3.78,1.97,3.78,1.97,-1.97,-2.03,-2.00,1.81,1.81,1.81
150.75,3.72,1.95,3.72,1.95,-1.95,-2.04,-1.97,1.77,1.78,1.77
152.26,3.68,1.93,3.67,1.93,-1.93,-2.04,-1.93,1.75,1.75,1.75
153.78,3.62,1.90,3.62,1.91,-1.91,-2.05,-1.89,1.71,1.72,1.72
155.32,3.57,1.88,3.57,1.88,-1.88,-2.05,-1.86,1.68,1.69,1.69
156.88,3.52,1.86,3.52,1.87,-1.87,-2.05,-1.83,1.65,1.65,1.66
158.44,3.47,1.84,3.47,1.85,-1.85,-2.05,-1.79,1.62,1.62,1.62
160.03,3.42,1.83,3.42,1.83,-1.83,-2.05,-1.76,1.59,1.59,1.59
161.63,3.37,1.81,3.37,1.81,-1.81,-2.04,-1.73,1.55,1.55,1.56
163.24,3.32,1.81,3.31,1.80,-1.80,-2.03,-1.69,1.52,1.52,1.51
164.88,3.27,1.79,3.26,1.78,-1.78,-2.03,-1.66,1.49,1.48,1.48
166.53,3.22,1.78,3.21,1.77,-1.77,-2.02,-1.64,1.45,1.44,1.44
168.19,3.16,1.75,3.16,1.75,-1.75,-2.00,-1.61,1.40,1.41,1.41
169.87,3.11,1.73,3.11,1.74,-1.74,-1.99,-1.58,1.37,1.37,1.37
171.57,3.06,1.73,3.06,1.73,-1.73,-1.97,-1.55,1.33,1.33,1.33
173.29,3.02,1.73,3.01,1.71,-1.71,-1.95,-1.53,1.30,1.30,1.29
175.02,2.96,1.70,2.96,1.70,-1.70,-1.92,-1.51,1.26,1.26,1.26
176.77,2.91,1.69,2.91,1.69,-1.69,-1.90,-1.48,1.22,1.22,1.22
178.54,2.86,1.67,2.86,1.68,-1.68,-1.87,-1.46,1.18,1.19,1.19
180.32,2.82,1.67,2.81,1.66,-1.66,-1.84,-1.44,1.15,1.15,1.14
182.13,2.76,1.65,2.76,1.65,-1.65,-1.81,-1.42,1.11,1.11,1.11
183.95,2.72,1.64,2.72,1.64,-1.64,-1.78,-1.41,1.08,1.07,1.08
185.79,2.67,1.63,2.67,1.63,-1.63,-1.74,-1.39,1.04,1.04,1.04
187.65,2.63,1.62,2.62,1.62,-1.62,-1.70,-1.37,1.01,1.00,1.01
189.52,2.57,1.60,2.57,1.61,-1.61,-1.67,-1.36,0.96,0.96,0.97
191.42,2.53,1.60,2.53,1.60,-1.60,-1.63,-1.35,0.93,0.93,0.93
193.33,2.48,1.59,2.48,1.58,-1.58,-1.59,-1.33,0.89,0.89,0.89
195.27,2.43,1.57,2.43,1.57,-1.57,-1.55,-1.32,0.86,0.86,0.85
197.22,2.39,1.57,2.38,1.56,-1.56,-1.50,-1.31,0.83,0.83,0.82
199.19,2.34,1.55,2.34,1.54,-1.54,-1.46,-1.30,0.79,0.79,0.79
201.18,2.29,1.53,2.29,1.53,-1.53,-1.42,-1.29,0.76,0.76,0.75
203.19,2.25,1.52,2.24,1.51,-1.51,-1.37,-1.28,0.74,0.73,0.73
205.23,2.19,1.49,2.19,1.49,-1.49,-1.33,-1.28,0.69,0.70,0.70
207.28,2.15,1.47,2.15,1.48,-1.48,-1.29,-1.27,0.67,0.67,0.68
209.35,2.10,1.45,2.10,1.46,-1.46,-1.25,-1.26,0.64,0.64,0.64
211.44,2.05,1.43,2.05,1.44,-1.44,-1.20,-1.25,0.61,0.61,0.62
213.56,2.01,1.42,2.00,1.41,-1.41,-1.16,-1.24,0.59,0.59,0.59
215.69,1.96,1.39,1.96,1.39,-1.39,-1.12,-1.24,0.56,0.56,0.56
217.85,1.91,1.37,1.91,1.37,-1.37,-1.08,-1.23,0.54,0.54,0.54
220.03,1.86,1.35,1.86,1.35,-1.35,-1.03,-1.22,0.51,0.52,0.51
222.23,1.82,1.33,1.82,1.32,-1.32,-0.99,-1.21,0.49,0.49,0.49
224.45,1.77,1.30,1.77,1.30,-1.30,-0.95,-1.20,0.47,0.47,0.47
226.70,1.72,1.27,1.72,1.27,-1.27,-0.91,-1.19,0.44,0.45,0.45
228.96,1.68,1.24,1.68,1.25,-1.25,-0.88,-1.18,0.43,0.43,0.44
231.25,1.64,1.22,1.63,1.22,-1.22,-0.84,-1.17,0.42,0.41,0.42
233.57,1.58,1.18,1.58,1.19,-1.19,-0.80,-1.16,0.39,0.39,0.40
235.90,1.54,1.17,1.54,1.16,-1.16,-0.76,-1.14,0.38,0.37,0.37
238.26,1.49,1.14,1.49,1.13,-1.13,-0.73,-1.13,0.36,0.36,0.35
240.64,1.44,1.09,1.44,1.09,-1.09,-0.69,-1.11,0.34,0.34,0.35
243.05,1.40,1.07,1.39,1.06,-1.06,-0.66,-1.09,0.34,0.33,0.33
245.48,1.34,1.02,1.34,1.02,-1.02,-0.62,-1.07,0.32,0.32,0.31
247.93,1.29,0.99,1.29,0.98,-0.98,-0.59,-1.04,0.30,0.31,0.30
250.41,1.25,0.95,1.24,0.94,-0.94,-0.56,-1.02,0.30,0.30,0.30
252.92,1.19,0.90,1.19,0.90,-0.90,-0.52,-0.99,0.29,0.28,0.29
255.45,1.13,0.85,1.13,0.86,-0.86,-0.49,-0.96,0.27,0.27,0.27
258.00,1.08,0.81,1.08,0.82,-0.82,-0.46,-0.93,0.26,0.26,0.27
260.58,1.03,0.77,1.03,0.77,-0.77,-0.43,-0.90,0.25,0.25,0.26
263.19,0.98,0.73,0.98,0.73,-0.73,-0.40,-0.87,0.25,0.25,0.24
265.82,0.93,0.69,0.92,0.68,-0.68,-0.37,-0.83,0.24,0.24,0.24
268.48,0.87,0.63,0.87,0.64,-0.64,-0.34,-0.79,0.23,0.23,0.23
271.16,0.82,0.60,0.81,0.59,-0.59,-0.31,-0.75,0.22,0.22,0.22
273.87,0.76,0.55,0.76,0.55,-0.55,-0.28,-0.71,0.21,0.21,0.21
276.61,0.70,0.50,0.70,0.50,-0.50,-0.26,-0.67,0.20,0.20,0.20
279.38,0.64,0.46,0.65,0.46,-0.46,-0.23,-0.62,0.18,0.19,0.18
282.17,0.60,0.42,0.59,0.41,-0.41,-0.20,-0.58,0.19,0.18,0.18
284.99,0.54,0.35,0.54,0.36,-0.36,-0.17,-0.53,0.18,0.18,0.18
287.84,0.48,0.30,0.48,0.31,-0.31,-0.15,-0.48,0.17,0.17,0.18
290.72,0.43,0.27,0.42,0.26,-0.26,-0.12,-0.43,0.17,0.17,0.15
293.63,0.37,0.21,0.37,0.21,-0.21,-0.10,-0.38,0.16,0.16,0.16
296.57,0.32,0.16,0.31,0.16,-0.16,-0.07,-0.33,0.16,0.15,0.16
299.53,0.26,0.10,0.26,0.11,-0.11,-0.04,-0.28,0.15,0.15,0.15
302.53,0.20,0.05,0.20,0.05,-0.05,-0.02,-0.23,0.15,0.15,0.15
305.55,0.15,0.00,0.14,-0.00,0.00,0.01,-0.17,0.15,0.15,0.15
308.61,0.08,-0.07,0.09,-0.05,0.05,0.03,-0.12,0.13,0.14,0.14
311.69,0.03,-0.11,0.03,-0.11,0.11,0.06,-0.06,0.14,0.14,0.14
314.81,-0.02,-0.16,-0.03,-0.17,0.17,0.08,-0.01,0.14,0.14,0.14
317.96,-0.08,-0.22,-0.08,-0.22,0.22,0.11,0.05,0.14,0.14,0.13
321.14,-0.13,-0.27,-0.14,-0.28,0.28,0.13,0.11,0.14,0.14,0.14
324.35,-0.20,-0.33,-0.20,-0.34,0.34,0.16,0.16,0.13,0.14,0.13
327.59,-0.25,-0.40,-0.26,-0.39,0.39,0.18,0.22,0.14,0.14,0.15
330.87,-0.31,-0.46,-0.31,-0.45,0.45,0.20,0.28,0.14,0.14,0.14
334.18,-0.37,-0.50,-0.37,-0.51,0.51,0.23,0.34,0.14,0.14,0.13
337.52,-0.43,-0.57,-0.43,-0.57,0.57,0.25,0.40,0.14,0.14,0.14
340.90,-0.48,-0.62,-0.49,-0.63,0.63,0.28,0.46,0.15,0.14,0.14
344.30,-0.55,-0.70,-0.55,-0.69,0.69,0.30,0.52,0.14,0.14,0.14
347.75,-0.61,-0.76,-0.61,-0.75,0.75,0.33,0.58,0.14,0.15,0.15
351.23,-0.66,-0.80,-0.67,-0.81,0.81,0.35,0.65,0.15,0.15,0.14
354.74,-0.72,-0.88,-0.73,-0.87,0.87,0.38,0.71,0.15,0.15,0.16
358.28,-0.78,-0.93,-0.78,-0.93,0.93,0.40,0.77,0.15,0.15,0.15
361.87,-0.83,-0.99,-0.84,-0.99,0.99,0.43,0.83,0.16,0.15,0.15
365.49,-0.90,-1.05,-0.90,-1.05,1.05,0.46,0.90,0.15,0.15,0.15
369.14,-0.96,-1.12,-0.96,-1.11,1.11,0.48,0.96,0.15,0.16,0.16
372.83,-1.00,-1.16,-1.01,-1.17,1.17,0.51,1.03,0.16,0.16,0.16
376.56,-1.06,-1.22,-1.06,-1.22,1.22,0.53,1.09,0.16,0.16,0.16
380.33,-1.11,-1.27,-1.11,-1.27,1.27,0.56,1.16,0.16,0.16,0.16
384.13,-1.16,-1.32,-1.16,-1.32,1.32,0.59,1.23,0.16,0.16,0.16
387.97,-1.21,-1.38,-1.21,-1.37,1.37,0.61,1.29,0.16,0.16,0.16
391.85,-1.26,-1.42,-1.25,-1.41,1.41,0.64,1.36,0.15,0.16,0.16
395.77,-1.29,-1.45,-1.29,-1.45,1.45,0.67,1.43,0.16,0.16,0.16
399.73,-1.33,-1.49,-1.32,-1.49,1.49,0.70,1.49,0.15,0.17,0.16
403.72,-1.36,-1.53,-1.35,-1.52,1.52,0.73,1.56,0.16,0.17,0.17
407.76,-1.39,-1.56,-1.38,-1.55,1.55,0.76,1.63,0.16,0.17,0.17
411.84,-1.41,-1.58,-1.41,-1.57,1.57,0.79,1.70,0.16,0.17,0.17
415.96,-1.43,-1.61,-1.43,-1.60,1.60,0.82,1.76,0.17,0.17,0.18
420.12,-1.46,-1.63,-1.45,-1.62,1.62,0.85,1.83,0.16,0.17,0.16
424.32,-1.47,-1.64,-1.48,-1.64,1.64,0.88,1.89,0.17,0.17,0.16
428.56,-1.49,-1.67,-1.50,-1.67,1.67,0.91,1.96,0.17,0.17,0.17
432.85,-1.51,-1.68,-1.52,-1.69,1.69,0.94,2.02,0.18,0.17,0.17
437.18,-1.54,-1.70,-1.55,-1.71,1.71,0.97,2.08,0.17,0.16,0.16
441.55,-1.56,-1.72,-1.57,-1.74,1.74,1.00,2.14,0.18,0.16,0.16
445.96,-1.59,-1.75,-1.60,-1.77,1.77,1.04,2.20,0.17,0.16,0.16
450.42,-1.62,-1.78,-1.63,-1.80,1.80,1.07,2.26,0.17,0.16,0.16
454.93,-1.66,-1.82,-1.67,-1.83,1.83,1.11,2.31,0.17,0.16,0.16
459.48,-1.70,-1.86,-1.70,-1.86,1.86,1.14,2.36,0.16,0.16,0.16
464.07,-1.74,-1.91,-1.74,-1.90,1.90,1.18,2.41,0.16,0.16,0.17
468.71,-1.78,-1.95,-1.78,-1.94,1.94,1.21,2.46,0.16,0.16,0.17
473.40,-1.82,-1.99,-1.82,-1.99,1.99,1.25,2.50,0.17,0.16,0.17
478.13,-1.87,-2.04,-1.87,-2.04,2.04,1.29,2.54,0.16,0.17,0.17
482.91,-1.90,-2.07,-1.92,-2.08,2.08,1.32,2.58,0.18,0.17,0.16
487.74,-1.96,-2.14,-1.96,-2.13,2.13,1.36,2.61,0.17,0.17,0.17
492.62,-2.01,-2.19,-2.01,-2.19,2.19,1.40,2.64,0.17,0.17,0.17
497.55,-2.05,-2.23,-2.06,-2.24,2.24,1.44,2.66,0.19,0.18,0.17
502.52,-2.11,-2.29,-2.11,-2.29,2.29,1.48,2.68,0.18,0.18,0.17
507.55,-2.16,-2.34,-2.16,-2.34,2.34,1.52,2.70,0.18,0.18,0.18
512.62,-2.21,-2.39,-2.21,-2.40,2.40,1.57,2.72,0.18,0.19,0.18
517.75,-2.25,-2.45,-2.26,-2.45,2.45,1.61,2.73,0.19,0.19,0.20
522.93,-2.31,-2.51,-2.30,-2.50,2.50,1.65,2.73,0.19,0.20,0.20
528.16,-2.34,-2.54,-2.34,-2.55,2.55,1.70,2.74,0.20,0.20,0.20
533.44,-2.38,-2.58,-2.38,-2.59,2.59,1.74,2.74,0.21,0.21,0.20
538.77,-2.42,-2.63,-2.42,-2.64,2.64,1.79,2.74,0.21,0.22,0.21
544.16,-2.46,-2.68,-2.45,-2.67,2.67,1.83,2.73,0.21,0.22,0.22
