frequency,raw,error,smoothed,error_smoothed,equalization,parametric_eq,fixed_band_eq,equalized_raw,equalized_smoothed,target
20.00,-7.85,-7.86,-7.86,-7.89,6.00,5.36,2.32,-1.85,-1.86,0.01
20.20,-7.78,-7.82,-7.79,-7.84,6.00,5.43,2.39,-1.78,-1.79,0.04
20.40,-7.71,-7.78,-7.71,-7.79,6.00,5.49,2.46,-1.71,-1.71,0.07
20.61,-7.64,-7.73,-7.64,-7.73,6.00,5.55,2.53,-1.64,-1.64,0.09
20.81,-7.56,-7.68,-7.57,-7.68,6.00,5.60,2.60,-1.56,-1.57,0.12
21.02,-7.49,-7.64,-7.49,-7.62,6.00,5.66,2.68,-1.49,-1.49,0.15
21.23,-7.42,-7.58,-7.42,-7.56,6.00,5.71,2.75,-1.42,-1.42,0.16
21.44,-7.34,-7.51,-7.34,-7.49,6.00,5.76,2.83,-1.34,-1.34,0.17
21.66,-7.27,-7.45,-7.27,-7.43,6.00,5.81,2.92,-1.27,-1.27,0.18
21.87,-7.19,-7.37,-7.19,-7.36,6.00,5.85,3.00,-1.19,-1.19,0.18
22.09,-7.12,-7.31,-7.11,-7.30,6.00,5.89,3.09,-1.12,-1.11,0.19
22.31,-7.04,-7.23,-7.04,-7.23,6.00,5.92,3.18,-1.04,-1.04,0.19
22.54,-6.96,-7.15,-6.96,-7.15,6.00,5.95,3.27,-0.96,-0.96,0.19
22.76,-6.88,-7.07,-6.88,-7.07,6.00,5.98,3.36,-0.88,-0.88,0.19
22.99,-6.80,-6.98,-6.80,-6.99,6.00,6.00,3.46,-0.80,-0.80,0.18
23.22,-6.72,-6.90,-6.73,-6.91,6.00,6.02,3.56,-0.72,-0.73,0.18
23.45,-6.64,-6.82,-6.65,-6.83,6.00,6.04,3.66,-0.64,-0.65,0.18
23.69,-6.57,-6.75,-6.57,-6.76,6.00,6.05,3.76,-0.57,-0.57,0.18
23.92,-6.49,-6.67,-6.50,-6.68,6.00,6.06,3.86,-0.49,-0.50,0.18
24.16,-6.41,-6.60,-6.42,-6.60,6.00,6.06,3.97,-0.41,-0.42,0.19
24.40,-6.34,-6.53,-6.34,-6.52,6.00,6.05,4.08,-0.34,-0.34,0.19
24.65,-6.27,-6.45,-6.27,-6.44,6.00,6.05,4.19,-0.27,-0.27,0.17
24.89,-6.20,-6.38,-6.19,-6.37,6.00,6.04,4.30,-0.20,-0.19,0.17
25.14,-6.12,-6.30,-6.12,-6.29,6.00,6.02,4.41,-0.12,-0.12,0.17
25.39,-6.05,-6.22,-6.05,-6.22,5.99,6.00,4.52,-0.06,-0.05,0.17
25.65,-5.97,-6.15,-5.97,-6.14,5.98,5.98,4.64,0.00,0.00,0.17
25.91,-5.89,-6.06,-5.90,-6.07,5.95,5.95,4.75,0.06,0.05,0.16
26.16,-5.82,-5.98,-5.83,-6.00,5.92,5.92,4.86,0.09,0.09,0.16
26.43,-5.75,-5.92,-5.76,-5.92,5.87,5.88,4.97,0.12,0.12,0.16
26.69,-5.68,-5.84,-5.69,-5.85,5.82,5.84,5.08,0.14,0.14,0.16
26.96,-5.61,-5.77,-5.61,-5.77,5.76,5.80,5.19,0.15,0.15,0.16
27.23,-5.54,-5.70,-5.54,-5.70,5.70,5.75,5.30,0.15,0.15,0.16
27.50,-5.47,-5.63,-5.47,-5.62,5.62,5.70,5.40,0.15,0.15,0.16
27.77,-5.40,-5.55,-5.40,-5.55,5.55,5.65,5.50,0.15,0.15,0.15
28.05,-5.33,-5.48,-5.33,-5.48,5.48,5.60,5.60,0.14,0.15,0.15
28.33,-5.26,-5.40,-5.26,-5.40,5.40,5.54,5.69,0.14,0.14,0.14
28.62,-5.19,-5.33,-5.19,-5.33,5.33,5.48,5.77,0.14,0.14,0.14
28.90,-5.12,-5.26,-5.12,-5.26,5.26,5.42,5.85,0.13,0.13,0.13
29.19,-5.05,-5.18,-5.05,-5.18,5.18,5.35,5.92,0.13,0.13,0.12
29.48,-4.98,-5.11,-4.99,-5.11,5.11,5.29,5.99,0.13,0.13,0.13
29.78,-4.91,-5.04,-4.92,-5.04,5.04,5.22,6.04,0.12,0.12,0.12
30.08,-4.84,-4.96,-4.85,-4.96,4.96,5.15,6.09,0.12,0.12,0.12
30.38,-4.78,-4.89,-4.78,-4.89,4.89,5.08,6.12,0.11,0.11,0.11
30.68,-4.72,-4.83,-4.72,-4.82,4.82,5.00,6.15,0.10,0.11,0.11
30.99,-4.65,-4.75,-4.65,-4.75,4.75,4.93,6.17,0.10,0.10,0.10
31.30,-4.59,-4.69,-4.59,-4.68,4.68,4.86,6.18,0.09,0.10,0.10
31.61,-4.52,-4.62,-4.52,-4.61,4.61,4.78,6.17,0.09,0.09,0.09
31.93,-4.46,-4.55,-4.46,-4.55,4.55,4.71,6.16,0.08,0.08,0.08
32.24,-4.40,-4.47,-4.40,-4.48,4.48,4.63,6.14,0.08,0.08,0.07
32.57,-4.34,-4.41,-4.35,-4.42,4.42,4.56,6.10,0.07,0.07,0.07
32.89,-4.28,-4.35,-4.29,-4.36,4.36,4.48,6.06,0.07,0.07,0.07
33.22,-4.23,-4.29,-4.24,-4.30,4.30,4.40,6.01,0.06,0.06,0.06
33.55,-4.18,-4.24,-4.19,-4.24,4.24,4.33,5.95,0.06,0.05,0.06
33.89,-4.14,-4.19,-4.14,-4.19,4.19,4.25,5.89,0.04,0.05,0.04
34.23,-4.09,-4.14,-4.10,-4.14,4.14,4.18,5.81,0.04,0.04,0.04
34.57,-4.06,-4.09,-4.06,-4.09,4.09,4.10,5.73,0.03,0.03,0.03
34.92,-4.02,-4.04,-4.03,-4.05,4.05,4.03,5.65,0.02,0.02,0.02
35.27,-3.99,-4.01,-3.99,-4.01,4.01,3.95,5.56,0.01,0.01,0.02
35.62,-3.95,-3.96,-3.97,-3.97,3.97,3.88,5.47,0.02,0.01,0.01
35.97,-3.92,-3.92,-3.94,-3.94,3.94,3.81,5.37,0.01,-0.00,-0.01
36.33,-3.91,-3.90,-3.92,-3.90,3.90,3.73,5.27,-0.01,-0.01,-0.01
36.70,-3.89,-3.87,-3.90,-3.87,3.87,3.66,5.17,-0.02,-0.02,-0.02
37.06,-3.88,-3.85,-3.88,-3.85,3.85,3.59,5.07,-0.04,-0.03,-0.03
37.43,-3.86,-3.83,-3.86,-3.82,3.82,3.52,4.97,-0.04,-0.04,-0.04
37.81,-3.85,-3.80,-3.84,-3.79,3.79,3.45,4.86,-0.06,-0.05,-0.05
38.19,-3.83,-3.77,-3.83,-3.77,3.77,3.38,4.76,-0.07,-0.06,-0.06
38.57,-3.81,-3.75,-3.81,-3.74,3.74,3.31,4.65,-0.07,-0.07,-0.06
38.95,-3.79,-3.72,-3.80,-3.72,3.72,3.24,4.55,-0.07,-0.08,-0.08
39.34,-3.78,-3.69,-3.78,-3.69,3.69,3.18,4.45,-0.09,-0.09,-0.09
39.74,-3.76,-3.66,-3.77,-3.67,3.67,3.11,4.35,-0.09,-0.10,-0.10
40.14,-3.74,-3.64,-3.75,-3.64,3.64,3.05,4.25,-0.10,-0.10,-0.11
40.54,-3.73,-3.61,-3.73,-3.61,3.61,2.98,4.16,-0.12,-0.11,-0.12
40.94,-3.71,-3.59,-3.71,-3.58,3.58,2.92,4.06,-0.13,-0.12,-0.12
41.35,-3.69,-3.56,-3.68,-3.55,3.55,2.86,3.97,-0.14,-0.13,-0.14
41.76,-3.66,-3.52,-3.66,-3.52,3.52,2.80,3.88,-0.15,-0.14,-0.14
42.18,-3.63,-3.49,-3.63,-3.48,3.48,2.74,3.79,-0.15,-0.15,-0.14
42.60,-3.60,-3.44,-3.60,-3.44,3.44,2.68,3.70,-0.16,-0.16,-0.16
43.03,-3.58,-3.42,-3.58,-3.40,3.40,2.62,3.62,-0.18,-0.18,-0.16
43.46,-3.54,-3.37,-3.55,-3.36,3.36,2.56,3.54,-0.18,-0.19,-0.18
43.90,-3.51,-3.31,-3.51,-3.32,3.32,2.51,3.46,-0.20,-0.20,-0.20
44.33,-3.48,-3.27,-3.48,-3.27,3.27,2.45,3.39,-0.21,-0.21,-0.22
44.78,-3.45,-3.22,-3.45,-3.23,3.23,2.40,3.32,-0.23,-0.22,-0.23
45.23,-3.41,-3.17,-3.42,-3.18,3.18,2.34,3.25,-0.23,-0.24,-0.25
45.68,-3.38,-3.12,-3.39,-3.13,3.13,2.29,3.18,-0.25,-0.25,-0.26
46.13,-3.35,-3.08,-3.36,-3.09,3.09,2.24,3.11,-0.27,-0.27,-0.28
46.60,-3.32,-3.04,-3.33,-3.04,3.04,2.19,3.05,-0.28,-0.29,-0.28
47.06,-3.29,-2.99,-3.30,-3.00,3.00,2.14,2.99,-0.30,-0.30,-0.30
47.53,-3.26,-2.95,-3.27,-2.95,2.95,2.09,2.94,-0.31,-0.32,-0.31
48.01,-3.23,-2.91,-3.24,-2.90,2.90,2.04,2.88,-0.33,-0.34,-0.32
48.49,-3.21,-2.87,-3.22,-2.86,2.86,1.99,2.83,-0.35,-0.36,-0.35
48.97,-3.19,-2.82,-3.19,-2.82,2.82,1.95,2.78,-0.38,-0.38,-0.37
49.46,-3.17,-2.77,-3.17,-2.77,2.77,1.90,2.73,-0.40,-0.39,-0.40
49.96,-3.14,-2.71,-3.14,-2.73,2.73,1.86,2.68,-0.42,-0.41,-0.43
50.46,-3.12,-2.69,-3.11,-2.68,2.68,1.81,2.64,-0.44,-0.43,-0.44
50.96,-3.09,-2.64,-3.09,-2.63,2.63,1.77,2.59,-0.46,-0.45,-0.45
51.47,-3.06,-2.58,-3.06,-2.58,2.58,1.72,2.55,-0.48,-0.47,-0.48
51.99,-3.03,-2.53,-3.03,-2.53,2.53,1.68,2.51,-0.50,-0.49,-0.50
52.51,-3.00,-2.49,-3.00,-2.48,2.48,1.64,2.47,-0.52,-0.52,-0.51
53.03,-2.97,-2.44,-2.97,-2.43,2.43,1.60,2.44,-0.54,-0.53,-0.53
53.56,-2.93,-2.38,-2.93,-2.38,2.38,1.56,2.40,-0.55,-0.55,-0.55
54.10,-2.89,-2.33,-2.90,-2.33,2.33,1.52,2.36,-0.56,-0.57,-0.57
54.64,-2.86,-2.27,-2.87,-2.28,2.28,1.48,2.33,-0.58,-0.59,-0.59
55.18,-2.83,-2.22,-2.84,-2.23,2.23,1.44,2.29,-0.60,-0.61,-0.61
55.74,-2.81,-2.18,-2.81,-2.18,2.18,1.41,2.26,-0.63,-0.62,-0.63
56.29,-2.78,-2.14,-2.78,-2.14,2.14,1.37,2.23,-0.65,-0.64,-0.64
56.86,-2.74,-2.08,-2.75,-2.09,2.09,1.33,2.19,-0.65,-0.66,-0.66
57.42,-2.71,-2.03,-2.72,-2.05,2.05,1.30,2.16,-0.67,-0.67,-0.68
58.00,-2.69,-2.00,-2.70,-2.00,2.00,1.26,2.13,-0.69,-0.69,-0.70
58.58,-2.67,-1.96,-2.67,-1.96,1.96,1.23,2.09,-0.71,-0.71,-0.71
59.16,-2.65,-1.93,-2.65,-1.92,1.92,1.19,2.06,-0.73,-0.73,-0.72
59.76,-2.63,-1.90,-2.63,-1.88,1.88,1.16,2.02,-0.75,-0.75,-0.74
60.35,-2.61,-1.85,-2.61,-1.84,1.84,1.13,1.99,-0.77,-0.77,-0.76
60.96,-2.58,-1.81,-2.59,-1.81,1.81,1.10,1.95,-0.78,-0.79,-0.78
61.57,-2.58,-1.77,-2.58,-1.77,1.77,1.06,1.92,-0.81,-0.81,-0.81
62.18,-2.57,-1.74,-2.56,-1.74,1.74,1.03,1.88,-0.84,-0.83,-0.84
62.80,-2.55,-1.70,-2.55,-1.70,1.70,1.00,1.84,-0.85,-0.85,-0.85
63.43,-2.54,-1.67,-2.54,-1.68,1.68,0.97,1.80,-0.87,-0.87,-0.88
64.07,-2.54,-1.65,-2.54,-1.65,1.65,0.94,1.76,-0.89,-0.89,-0.89
64.71,-2.53,-1.62,-2.53,-1.63,1.63,0.91,1.72,-0.91,-0.91,-0.91
65.35,-2.52,-1.59,-2.54,-1.60,1.60,0.88,1.67,-0.92,-0.93,-0.93
66.01,-2.52,-1.57,-2.54,-1.59,1.59,0.85,1.63,-0.93,-0.95,-0.95
66.67,-2.53,-1.57,-2.55,-1.58,1.58,0.82,1.59,-0.95,-0.97,-0.97
67.33,-2.54,-1.56,-2.56,-1.57,1.57,0.79,1.54,-0.97,-0.99,-0.99
68.01,-2.55,-1.55,-2.57,-1.56,1.56,0.77,1.49,-0.99,-1.01,-1.01
68.69,-2.57,-1.54,-2.59,-1.56,1.56,0.74,1.44,-1.01,-1.03,-1.03
69.37,-2.60,-1.55,-2.60,-1.55,1.55,0.71,1.40,-1.05,-1.05,-1.05
70.07,-2.62,-1.55,-2.62,-1.55,1.55,0.68,1.35,-1.08,-1.07,-1.07
70.77,-2.62,-1.54,-2.63,-1.54,1.54,0.66,1.30,-1.09,-1.09,-1.08
71.48,-2.64,-1.54,-2.64,-1.52,1.52,0.63,1.25,-1.12,-1.11,-1.11
72.19,-2.67,-1.54,-2.64,-1.51,1.51,0.60,1.20,-1.17,-1.13,-1.13
72.91,-2.67,-1.52,-2.64,-1.49,1.49,0.58,1.15,-1.19,-1.15,-1.15
73.64,-2.65,-1.47,-2.63,-1.46,1.46,0.55,1.09,-1.19,-1.17,-1.18
74.38,-2.63,-1.44,-2.62,-1.43,1.43,0.53,1.04,-1.21,-1.19,-1.19
75.12,-2.62,-1.40,-2.60,-1.39,1.39,0.50,0.99,-1.23,-1.21,-1.22
75.87,-2.59,-1.36,-2.58,-1.35,1.35,0.47,0.94,-1.24,-1.23,-1.24
76.63,-2.55,-1.30,-2.56,-1.30,1.30,0.45,0.89,-1.25,-1.25,-1.25
77.40,-2.52,-1.25,-2.53,-1.25,1.25,0.42,0.83,-1.27,-1.27,-1.27
78.17,-2.48,-1.18,-2.49,-1.20,1.20,0.40,0.78,-1.28,-1.29,-1.30
78.95,-2.44,-1.13,-2.46,-1.15,1.15,0.38,0.73,-1.30,-1.31,-1.31
79.74,-2.40,-1.07,-2.42,-1.09,1.09,0.35,0.68,-1.31,-1.33,-1.33
80.54,-2.36,-1.01,-2.38,-1.03,1.03,0.33,0.62,-1.33,-1.35,-1.35
81.35,-2.33,-0.96,-2.34,-0.97,0.97,0.30,0.57,-1.36,-1.37,-1.37
82.16,-2.30,-0.91,-2.30,-0.91,0.91,0.28,0.52,-1.39,-1.39,-1.39
82.98,-2.27,-0.87,-2.26,-0.85,0.85,0.25,0.47,-1.42,-1.41,-1.40
83.81,-2.22,-0.79,-2.22,-0.79,0.79,0.23,0.41,-1.43,-1.43,-1.44
84.65,-2.18,-0.72,-2.18,-0.73,0.73,0.21,0.36,-1.46,-1.45,-1.46
85.50,-2.15,-0.68,-2.14,-0.66,0.66,0.18,0.31,-1.49,-1.47,-1.47
86.35,-2.11,-0.62,-2.10,-0.60,0.60,0.16,0.26,-1.51,-1.50,-1.50
87.22,-2.05,-0.53,-2.05,-0.53,0.53,0.13,0.21,-1.52,-1.52,-1.52
88.09,-2.00,-0.46,-2.01,-0.47,0.47,0.11,0.15,-1.54,-1.54,-1.54
88.97,-1.95,-0.39,-1.96,-0.40,0.40,0.09,0.10,-1.56,-1.57,-1.56
89.86,-1.91,-0.33,-1.92,-0.33,0.33,0.06,0.05,-1.59,-1.59,-1.59
90.76,-1.87,-0.25,-1.87,-0.26,0.26,0.04,-0.00,-1.62,-1.62,-1.62
91.66,-1.82,-0.18,-1.83,-0.18,0.18,0.02,-0.05,-1.64,-1.64,-1.64
92.58,-1.78,-0.11,-1.78,-0.11,0.11,-0.01,-0.11,-1.67,-1.67,-1.68
93.51,-1.74,-0.05,-1.74,-0.04,0.04,-0.03,-0.16,-1.70,-1.70,-1.69
94.44,-1.70,0.02,-1.70,0.02,-0.02,-0.06,-0.21,-1.73,-1.73,-1.72
95.39,-1.65,0.10,-1.66,0.09,-0.09,-0.08,-0.26,-1.75,-1.75,-1.75
96.34,-1.62,0.16,-1.62,0.16,-0.16,-0.11,-0.31,-1.78,-1.78,-1.79
97.30,-1.59,0.22,-1.59,0.22,-0.22,-0.13,-0.36,-1.82,-1.81,-1.82
98.28,-1.55,0.29,-1.56,0.29,-0.29,-0.15,-0.42,-1.84,-1.84,-1.84
99.26,-1.52,0.35,-1.52,0.35,-0.35,-0.18,-0.47,-1.87,-1.87,-1.87
100.25,-1.49,0.41,-1.50,0.40,-0.40,-0.20,-0.52,-1.90,-1.90,-1.90
101.25,-1.45,0.48,-1.47,0.46,-0.46,-0.23,-0.57,-1.91,-1.93,-1.93
102.27,-1.44,0.52,-1.44,0.52,-0.52,-0.25,-0.62,-1.96,-1.96,-1.96
103.29,-1.42,0.58,-1.42,0.57,-0.57,-0.28,-0.67,-1.99,-1.99,-2.00
104.32,-1.40,0.62,-1.40,0.62,-0.62,-0.30,-0.72,-2.03,-2.02,-2.02
105.37,-1.37,0.68,-1.38,0.67,-0.67,-0.33,-0.77,-2.05,-2.05,-2.05
106.42,-1.37,0.70,-1.36,0.72,-0.72,-0.36,-0.82,-2.09,-2.08,-2.08
107.48,-1.35,0.75,-1.34,0.77,-0.77,-0.38,-0.86,-2.12,-2.11,-2.11
108.56,-1.32,0.82,-1.33,0.81,-0.81,-0.41,-0.91,-2.14,-2.14,-2.15
109.64,-1.32,0.85,-1.32,0.86,-0.86,-0.44,-0.96,-2.18,-2.18,-2.18
110.74,-1.31,0.89,-1.31,0.90,-0.90,-0.46,-1.00,-2.21,-2.21,-2.20
111.85,-1.28,0.95,-1.30,0.94,-0.94,-0.49,-1.04,-2.23,-2.24,-2.23
112.97,-1.28,1.00,-1.29,0.99,-0.99,-0.52,-1.09,-2.27,-2.28,-2.28
114.10,-1.28,1.03,-1.28,1.03,-1.03,-0.55,-1.13,-2.31,-2.31,-2.31
115.24,-1.28,1.07,-1.28,1.07,-1.07,-0.57,-1.17,-2.35,-2.35,-2.35
116.39,-1.28,1.10,-1.27,1.11,-1.11,-0.60,-1.20,-2.39,-2.38,-2.39
117.55,-1.28,1.14,-1.27,1.15,-1.15,-0.63,-1.24,-2.43,-2.42,-2.42
118.73,-1.28,1.18,-1.27,1.19,-1.19,-0.66,-1.27,-2.47,-2.45,-2.46
119.92,-1.27,1.22,-1.26,1.23,-1.23,-0.69,-1.30,-2.50,-2.49,-2.49
121.12,-1.26,1.26,-1.27,1.26,-1.26,-0.72,-1.33,-2.52,-2.52,-2.53
122.33,-1.26,1.30,-1.27,1.29,-1.29,-0.75,-1.36,-2.55,-2.56,-2.56
123.55,-1.27,1.32,-1.28,1.32,-1.32,-0.78,-1.39,-2.59,-2.60,-2.59
124.79,-1.28,1.34,-1.29,1.34,-1.34,-0.81,-1.41,-2.62,-2.63,-2.62
126.03,-1.28,1.38,-1.31,1.36,-1.36,-0.84,-1.43,-2.64,-2.66,-2.66
127.29,-1.29,1.40,-1.32,1.38,-1.38,-0.88,-1.45,-2.67,-2.70,-2.69
128.57,-1.31,1.42,-1.34,1.39,-1.39,-0.91,-1.47,-2.70,-2.73,-2.74
129.85,-1.33,1.44,-1.36,1.40,-1.40,-0.94,-1.48,-2.74,-2.77,-2.77
131.15,-1.37,1.43,-1.38,1.42,-1.42,-0.97,-1.50,-2.79,-2.80,-2.80
132.46,-1.40,1.43,-1.40,1.43,-1.43,-1.01,-1.51,-2.84,-2.83,-2.84
133.79,-1.44,1.42,-1.41,1.45,-1.45,-1.04,-1.52,-2.89,-2.86,-2.86
135.12,-1.45,1.45,-1.43,1.47,-1.47,-1.08,-1.53,-2.92,-2.89,-2.90
136.48,-1.49,1.43,-1.44,1.48,-1.48,-1.11,-1.53,-2.98,-2.92,-2.92
137.84,-1.50,1.45,-1.45,1.51,-1.51,-1.15,-1.54,-3.01,-2.95,-2.95
139.22,-1.47,1.52,-1.45,1.53,-1.53,-1.18,-1.54,-3.00,-2.98,-2.99
140.61,-1.45,1.57,-1.45,1.56,-1.56,-1.22,-1.55,-3.01,-3.01,-3.02
142.02,-1.45,1.58,-1.45,1.58,-1.58,-1.25,-1.55,-3.04,-3.03,-3.03
143.44,-1.42,1.63,-1.45,1.61,-1.61,-1.29,-1.55,-3.04,-3.06,-3.06
144.87,-1.41,1.67,-1.44,1.64,-1.64,-1.33,-1.55,-3.06,-3.08,-3.08
146.32,-1.41,1.70,-1.43,1.67,-1.67,-1.36,-1.56,-3.09,-3.11,-3.11
147.78,-1.41,1.71,-1.43,1.71,-1.71,-1.40,-1.56,-3.12,-3.13,-3.13
149.26,-1.41,1.74,-1.42,1.74,-1.74,-1.44,-1.56,-3.15,-3.16,-3.15
150.75,-1.41,1.77,-1.42,1.76,-1.76,-1.48,-1.56,-3.18,-3.19,-3.19
152.26,-1.41,1.80,-1.42,1.79,-1.79,-1.52,-1.56,-3.20,-3.21,-3.21
153.78,-1.44,1.79,-1.43,1.81,-1.81,-1.56,-1.56,-3.25,-3.24,-3.24
155.32,-1.45,1.82,-1.45,1.82,-1.82,-1.60,-1.57,-3.27,-3.27,-3.27
156.88,-1.45,1.84,-1.46,1.83,-1.83,-1.63,-1.57,-3.28,-3.29,-3.29
158.44,-1.47,1.85,-1.48,1.84,-1.84,-1.67,-1.58,-3.31,-3.32,-3.32
160.03,-1.50,1.85,-1.50,1.85,-1.85,-1.71,-1.58,-3.35,-3.35,-3.35
161.63,-1.50,1.88,-1.52,1.86,-1.86,-1.75,-1.59,-3.36,-3.38,-3.39
163.24,-1.52,1.89,-1.54,1.87,-1.87,-1.79,-1.60,-3.39,-3.41,-3.42
164.88,-1.55,1.88,-1.56,1.88,-1.88,-1.83,-1.61,-3.43,-3.44,-3.44
166.53,-1.57,1.89,-1.57,1.89,-1.89,-1.87,-1.61,-3.47,-3.47,-3.46
168.19,-1.61,1.88,-1.58,1.91,-1.91,-1.91,-1.63,-3.52,-3.49,-3.49
169.87,-1.63,1.89,-1.59,1.93,-1.93,-1.95,-1.64,-3.57,-3.52,-3.52
171.57,-1.63,1.92,-1.59,1.96,-1.96,-1.98,-1.65,-3.59,-3.55,-3.55
173.29,-1.63,1.94,-1.60,1.98,-1.98,-2.02,-1.67,-3.62,-3.58,-3.58
175.02,-1.63,1.97,-1.60,2.01,-2.01,-2.06,-1.68,-3.64,-3.61,-3.60
176.77,-1.59,2.05,-1.60,2.04,-2.04,-2.09,-1.70,-3.63,-3.64,-3.64
178.54,-1.58,2.09,-1.60,2.07,-2.07,-2.13,-1.72,-3.65,-3.67,-3.67
180.32,-1.57,2.13,-1.60,2.09,-2.09,-2.16,-1.74,-3.67,-3.70,-3.70
182.13,-1.56,2.16,-1.61,2.12,-2.12,-2.20,-1.76,-3.68,-3.73,-3.72
183.95,-1.57,2.19,-1.61,2.15,-2.15,-2.23,-1.79,-3.72,-3.76,-3.76
185.79,-1.58,2.20,-1.61,2.17,-2.17,-2.26,-1.81,-3.76,-3.78,-3.78
187.65,-1.58,2.23,-1.61,2.20,-2.20,-2.29,-1.84,-3.78,-3.81,-3.82
189.52,-1.62,2.22,-1.62,2.22,-2.22,-2.32,-1.86,-3.84,-3.84,-3.84
191.42,-1.63,2.23,-1.62,2.24,-2.24,-2.35,-1.89,-3.87,-3.86,-3.86
193.33,-1.66,2.22,-1.63,2.25,-2.25,-2.38,-1.92,-3.92,-3.89,-3.88
195.27,-1.67,2.23,-1.64,2.27,-2.27,-2.40,-1.95,-3.94,-3.91,-3.90
197.22,-1.67,2.25,-1.65,2.28,-2.28,-2.43,-1.98,-3.95,-3.93,-3.93
199.19,-1.67,2.28,-1.65,2.29,-2.29,-2.45,-2.01,-3.97,-3.95,-3.96
201.18,-1.67,2.29,-1.65,2.31,-2.31,-2.47,-2.05,-3.98,-3.96,-3.97
203.19,-1.65,2.32,-1.66,2.32,-2.32,-2.49,-2.08,-3.98,-3.98,-3.98
205.23,-1.63,2.36,-1.65,2.34,-2.34,-2.50,-2.11,-3.97,-3.99,-4.00
207.28,-1.63,2.36,-1.65,2.36,-2.36,-2.52,-2.15,-3.99,-4.01,-4.00
209.35,-1.63,2.38,-1.65,2.37,-2.37,-2.53,-2.18,-4.00,-4.02,-4.02
211.44,-1.63,2.40,-1.64,2.38,-2.38,-2.54,-2.22,-4.02,-4.03,-4.04
213.56,-1.63,2.40,-1.64,2.40,-2.40,-2.55,-2.25,-4.03,-4.03,-4.03
215.69,-1.63,2.40,-1.63,2.40,-2.40,-2.56,-2.29,-4.04,-4.04,-4.03
217.85,-1.63,2.41,-1.63,2.41,-2.41,-2.56,-2.32,-4.04,-4.04,-4.04
220.03,-1.63,2.41,-1.63,2.41,-2.41,-2.56,-2.35,-4.05,-4.04,-4.05
222.23,-1.63,2.42,-1.63,2.41,-2.41,-2.56,-2.38,-4.05,-4.04,-4.06
224.45,-1.63,2.41,-1.63,2.41,-2.41,-2.56,-2.41,-4.05,-4.04,-4.04
226.70,-1.63,2.41,-1.63,2.41,-2.41,-2.56,-2.44,-4.04,-4.04,-4.04
228.96,-1.63,2.40,-1.63,2.40,-2.40,-2.56,-2.47,-4.04,-4.04,-4.04
231.25,-1.63,2.39,-1.63,2.40,-2.40,-2.55,-2.49,-4.03,-4.03,-4.02
233.57,-1.63,2.39,-1.63,2.39,-2.39,-2.54,-2.51,-4.02,-4.02,-4.02
235.90,-1.63,2.38,-1.63,2.38,-2.38,-2.53,-2.53,-4.01,-4.01,-4.01
238.26,-1.63,2.38,-1.63,2.37,-2.37,-2.52,-2.55,-4.00,-4.00,-4.01
240.64,-1.63,2.36,-1.63,2.36,-2.36,-2.51,-2.57,-3.99,-3.99,-4.00
243.05,-1.63,2.35,-1.64,2.35,-2.35,-2.49,-2.58,-3.98,-3.98,-3.98
245.48,-1.63,2.33,-1.64,2.33,-2.33,-2.47,-2.59,-3.96,-3.97,-3.97
247.93,-1.63,2.32,-1.64,2.31,-2.31,-2.46,-2.59,-3.95,-3.95,-3.95
250.41,-1.63,2.31,-1.64,2.30,-2.30,-2.44,-2.59,-3.93,-3.94,-3.95
252.92,-1.63,2.29,-1.64,2.28,-2.28,-2.42,-2.59,-3.92,-3.92,-3.92
255.45,-1.63,2.26,-1.63,2.27,-2.27,-2.40,-2.59,-3.90,-3.90,-3.90
258.00,-1.63,2.25,-1.63,2.25,-2.25,-2.38,-2.58,-3.88,-3.88,-3.88
260.58,-1.63,2.23,-1.63,2.23,-2.23,-2.35,-2.57,-3.86,-3.86,-3.86
263.19,-1.63,2.20,-1.63,2.21,-2.21,-2.33,-2.56,-3.84,-3.84,-3.84
265.82,-1.63,2.19,-1.62,2.19,-2.19,-2.31,-2.54,-3.83,-3.82,-3.82
268.48,-1.62,2.17,-1.62,2.18,-2.18,-2.28,-2.53,-3.80,-3.80,-3.79
271.16,-1.59,2.18,-1.61,2.16,-2.16,-2.26,-2.50,-3.76,-3.77,-3.77
273.87,-1.58,2.17,-1.60,2.15,-2.15,-2.23,-2.48,-3.73,-3.75,-3.75
276.61,-1.58,2.14,-1.59,2.14,-2.14,-2.21,-2.46,-3.72,-3.73,-3.72
279.38,-1.58,2.12,-1.58,2.13,-2.13,-2.18,-2.43,-3.72,-3.71,-3.71
282.17,-1.55,2.14,-1.56,2.13,-2.13,-2.16,-2.40,-3.69,-3.69,-3.69
284.99,-1.54,2.12,-1.53,2.14,-2.14,-2.13,-2.37,-3.68,-3.67,-3.66
287.84,-1.50,2.14,-1.49,2.15,-2.15,-2.11,-2.34,-3.66,-3.64,-3.65
290.72,-1.47,2.15,-1.45,2.17,-2.17,-2.08,-2.31,-3.64,-3.62,-3.62
293.63,-1.43,2.17,-1.40,2.20,-2.20,-2.06,-2.28,-3.63,-3.60,-3.60
296.57,-1.40,2.17,-1.35,2.23,-2.23,-2.03,-2.25,-3.63,-3.57,-3.57
299.53,-1.36,2.19,-1.30,2.26,-2.26,-2.01,-2.22,-3.62,-3.55,-3.56
302.53,-1.29,2.25,-1.24,2.28,-2.28,-1.98,-2.19,-3.58,-3.53,-3.54
305.55,-1.20,2.30,-1.19,2.31,-2.31,-1.96,-2.16,-3.51,-3.50,-3.50
308.61,-1.14,2.34,-1.15,2.33,-2.33,-1.93,-2.13,-3.47,-3.48,-3.48
311.69,-1.06,2.39,-1.12,2.34,-2.34,-1.91,-2.09,-3.40,-3.45,-3.46
314.81,-1.01,2.40,-1.10,2.33,-2.33,-1.89,-2.06,-3.35,-3.43,-3.42
317.96,-0.99,2.41,-1.08,2.32,-2.32,-1.86,-2.04,-3.32,-3.41,-3.40
321.14,-0.99,2.39,-1.08,2.30,-2.30,-1.84,-2.01,-3.29,-3.38,-3.38
324.35,-1.02,2.34,-1.09,2.27,-2.27,-1.82,-1.98,-3.29,-3.36,-3.36
327.59,-1.07,2.26,-1.11,2.22,-2.22,-1.80,-1.95,-3.30,-3.34,-3.33
330.87,-1.14,2.17,-1.14,2.17,-2.17,-1.78,-1.93,-3.31,-3.32,-3.32
334.18,-1.20,2.09,-1.18,2.11,-2.11,-1.76,-1.91,-3.31,-3.29,-3.30
337.52,-1.27,2.01,-1.23,2.04,-2.04,-1.74,-1.88,-3.31,-3.27,-3.28
340.90,-1.33,1.92,-1.28,1.97,-1.97,-1.72,-1.86,-3.30,-3.25,-3.25
344.30,-1.38,1.85,-1.33,1.90,-1.90,-1.71,-1.84,-3.28,-3.23,-3.23
347.75,-1.42,1.79,-1.38,1.83,-1.83,-1.69,-1.82,-3.25,-3.21,-3.21
351.23,-1.44,1.75,-1.43,1.77,-1.77,-1.67,-1.81,-3.21,-3.19,-3.19
354.74,-1.48,1.69,-1.46,1.71,-1.71,-1.66,-1.79,-3.20,-3.18,-3.18
358.28,-1.50,1.65,-1.49,1.67,-1.67,-1.64,-1.78,-3.17,-3.16,-3.16
361.87,-1.50,1.64,-1.51,1.63,-1.63,-1.63,-1.77,-3.13,-3.14,-3.14
365.49,-1.53,1.59,-1.53,1.60,-1.60,-1.61,-1.75,-3.13,-3.12,-3.12
369.14,-1.54,1.57,-1.54,1.57,-1.57,-1.60,-1.74,-3.11,-3.11,-3.11
372.83,-1.54,1.55,-1.54,1.55,-1.55,-1.59,-1.74,-3.09,-3.09,-3.09
376.56,-1.54,1.54,-1.55,1.53,-1.53,-1.58,-1.73,-3.07,-3.08,-3.08
380.33,-1.54,1.51,-1.55,1.51,-1.51,-1.57,-1.72,-3.06,-3.06,-3.05
384.13,-1.54,1.50,-1.55,1.50,-1.50,-1.56,-1.72,-3.04,-3.05,-3.04
387.97,-1.54,1.49,-1.55,1.48,-1.48,-1.55,-1.72,-3.03,-3.03,-3.03
391.85,-1.54,1.48,-1.55,1.47,-1.47,-1.54,-1.71,-3.02,-3.02,-3.03
395.77,-1.54,1.46,-1.55,1.46,-1.46,-1.53,-1.71,-3.01,-3.01,-3.01
399.73,-1.54,1.45,-1.55,1.45,-1.45,-1.52,-1.71,-2.99,-3.00,-3.00
403.72,-1.54,1.44,-1.55,1.44,-1.44,-1.51,-1.71,-2.98,-2.99,-2.99
407.76,-1.54,1.44,-1.54,1.43,-1.43,-1.51,-1.71,-2.97,-2.97,-2.98
411.84,-1.54,1.42,-1.54,1.42,-1.42,-1.50,-1.72,-2.96,-2.96,-2.96
415.96,-1.54,1.41,-1.55,1.41,-1.41,-1.50,-1.72,-2.95,-2.95,-2.95
420.12,-1.54,1.40,-1.55,1.39,-1.39,-1.49,-1.72,-2.93,-2.94,-2.94
424.32,-1.54,1.39,-1.56,1.38,-1.38,-1.49,-1.73,-2.92,-2.93,-2.93
428.56,-1.54,1.38,-1.56,1.36,-1.36,-1.48,-1.73,-2.90,-2.92,-2.92
432.85,-1.54,1.37,-1.56,1.35,-1.35,-1.48,-1.73,-2.89,-2.91,-2.91
437.18,-1.54,1.36,-1.55,1.34,-1.34,-1.48,-1.74,-2.89,-2.90,-2.90
441.55,-1.54,1.34,-1.54,1.35,-1.35,-1.48,-1.74,-2.89,-2.89,-2.88
