frequency,raw,error,smoothed,error_smoothed,equalization,parametric_eq,equalized_raw,equalized_smoothed,target
20,-7.24,-8.98,-7.25,-8.99,6.00,5.99,-1.24,-1.25,1.74
21,-6.96,-8.70,-6.96,-8.70,6.00,6.04,-0.96,-0.96,1.74
22,-6.68,-8.42,-6.67,-8.41,6.00,6.07,-0.68,-0.67,1.74
23,-6.40,-8.14,-6.39,-8.13,6.00,6.08,-0.40,-0.39,1.74
24,-6.14,-7.87,-6.12,-7.85,6.00,6.07,-0.14,-0.12,1.74
25,-5.83,-7.56,-5.85,-7.58,6.00,6.05,0.17,0.15,1.73
26,-5.57,-7.30,-5.58,-7.31,6.00,6.02,0.43,0.42,1.73
27,-5.35,-7.08,-5.32,-7.05,6.00,5.97,0.65,0.68,1.73
28,-5.11,-6.83,-5.07,-6.79,6.00,5.92,0.89,0.93,1.72
29,-4.83,-6.55,-4.83,-6.54,6.00,5.85,1.17,1.17,1.72
30,-4.56,-6.27,-4.59,-6.31,5.96,5.78,1.40,1.37,1.71
31,-4.33,-6.04,-4.38,-6.09,5.88,5.70,1.55,1.50,1.71
32,-4.15,-5.85,-4.18,-5.88,5.77,5.61,1.62,1.59,1.70
33,-3.98,-5.67,-3.99,-5.68,5.63,5.52,1.65,1.64,1.70
34,-3.84,-5.53,-3.81,-5.50,5.48,5.42,1.64,1.67,1.69
35,-3.66,-5.34,-3.65,-5.33,5.33,5.32,1.67,1.68,1.68
36,-3.50,-5.17,-3.49,-5.16,5.16,5.22,1.66,1.67,1.67
37,-3.36,-5.02,-3.34,-5.01,5.01,5.11,1.65,1.66,1.66
38,-3.21,-4.86,-3.20,-4.86,4.86,5.00,1.65,1.65,1.65
39,-3.06,-4.70,-3.07,-4.71,4.71,4.89,1.65,1.64,1.64
40,-2.91,-4.54,-2.94,-4.58,4.58,4.77,1.67,1.63,1.63
41,-2.80,-4.42,-2.82,-4.44,4.44,4.66,1.65,1.62,1.62
42,-2.72,-4.33,-2.71,-4.32,4.32,4.55,1.60,1.61,1.61
43,-2.64,-4.24,-2.60,-4.20,4.20,4.43,1.56,1.60,1.60
44,-2.49,-4.07,-2.50,-4.08,4.08,4.32,1.59,1.58,1.58
45,-2.40,-3.97,-2.40,-3.97,3.97,4.20,1.57,1.57,1.57
46,-2.31,-3.86,-2.31,-3.86,3.86,4.08,1.56,1.55,1.55
47,-2.25,-3.79,-2.22,-3.76,3.76,3.97,1.51,1.54,1.54
48,-2.14,-3.66,-2.14,-3.66,3.66,3.85,1.52,1.52,1.52
49,-2.01,-3.51,-2.05,-3.56,3.56,3.74,1.55,1.50,1.50
50,-1.99,-3.47,-1.98,-3.46,3.46,3.63,1.47,1.48,1.48
51,-1.89,-3.35,-1.90,-3.37,3.37,3.51,1.48,1.46,1.46
52,-1.84,-3.28,-1.83,-3.27,3.27,3.40,1.43,1.44,1.44
53,-1.78,-3.20,-1.76,-3.18,3.18,3.29,1.40,1.42,1.42
54,-1.70,-3.10,-1.69,-3.09,3.09,3.18,1.39,1.40,1.40
55,-1.64,-3.01,-1.63,-3.00,3.00,3.08,1.36,1.38,1.38
56,-1.53,-2.88,-1.56,-2.91,2.91,2.97,1.38,1.35,1.35
57,-1.50,-2.82,-1.50,-2.82,2.82,2.86,1.32,1.33,1.33
58,-1.44,-2.74,-1.43,-2.73,2.73,2.76,1.29,1.30,1.30
59,-1.36,-2.63,-1.37,-2.64,2.64,2.66,1.28,1.27,1.27
60,-1.32,-2.56,-1.30,-2.54,2.54,2.56,1.23,1.24,1.24
61,-1.24,-2.45,-1.23,-2.45,2.45,2.46,1.21,1.22,1.22
62,-1.18,-2.36,-1.17,-2.35,2.35,2.36,1.18,1.19,1.19
63,-1.10,-2.25,-1.10,-2.26,2.26,2.26,1.16,1.16,1.16
64,-1.03,-2.15,-1.04,-2.16,2.16,2.17,1.13,1.12,1.12
65,-0.98,-2.07,-0.98,-2.07,2.07,2.07,1.09,1.09,1.09
66,-0.91,-1.97,-0.92,-1.98,1.98,1.98,1.07,1.06,1.06
67,-0.88,-1.90,-0.87,-1.89,1.89,1.89,1.01,1.02,1.02
68,-0.80,-1.79,-0.82,-1.81,1.81,1.80,1.01,0.99,0.99
69,-0.79,-1.74,-0.77,-1.73,1.73,1.71,0.94,0.95,0.95
70,-0.71,-1.63,-0.73,-1.65,1.65,1.63,0.94,0.92,0.92
71,-0.71,-1.59,-0.69,-1.57,1.57,1.54,0.86,0.88,0.88
72,-0.64,-1.48,-0.65,-1.50,1.50,1.46,0.86,0.84,0.84
73,-0.64,-1.45,-0.62,-1.43,1.43,1.38,0.79,0.81,0.81
74,-0.57,-1.34,-0.59,-1.36,1.36,1.30,0.79,0.77,0.77
75,-0.58,-1.31,-0.56,-1.29,1.29,1.22,0.71,0.73,0.73
76,-0.50,-1.19,-0.54,-1.23,1.23,1.14,0.73,0.69,0.69
77,-0.52,-1.17,-0.51,-1.16,1.16,1.07,0.64,0.65,0.65
78,-0.47,-1.08,-0.48,-1.10,1.10,0.99,0.63,0.61,0.61
79,-0.49,-1.06,-0.46,-1.03,1.03,0.92,0.54,0.57,0.57
80,-0.45,-0.98,-0.43,-0.96,0.96,0.85,0.51,0.53,0.53
81,-0.42,-0.91,-0.40,-0.88,0.88,0.78,0.46,0.49,0.49
82,-0.33,-0.78,-0.36,-0.81,0.81,0.71,0.48,0.45,0.45
83,-0.32,-0.73,-0.32,-0.73,0.73,0.64,0.41,0.41,0.41
84,-0.29,-0.65,-0.29,-0.65,0.65,0.57,0.36,0.36,0.36
85,-0.27,-0.59,-0.25,-0.58,0.58,0.51,0.31,0.32,0.32
86,-0.22,-0.50,-0.22,-0.50,0.50,0.44,0.28,0.28,0.28
87,-0.20,-0.44,-0.19,-0.43,0.43,0.38,0.23,0.24,0.24
88,-0.14,-0.34,-0.17,-0.37,0.37,0.32,0.23,0.20,0.20
89,-0.12,-0.28,-0.15,-0.31,0.31,0.25,0.19,0.16,0.16
90,-0.14,-0.25,-0.14,-0.25,0.25,0.19,0.11,0.12,0.12
91,-0.15,-0.22,-0.12,-0.20,0.20,0.14,0.05,0.07,0.07
92,-0.12,-0.15,-0.11,-0.15,0.15,0.08,0.03,0.03,0.03
93,-0.10,-0.09,-0.10,-0.09,0.09,0.02,-0.00,-0.01,-0.01
94,-0.10,-0.05,-0.09,-0.04,0.04,-0.03,-0.06,-0.05,-0.05
95,-0.07,0.02,-0.07,0.01,-0.01,-0.09,-0.08,-0.09,-0.09
96,-0.07,0.06,-0.06,0.07,-0.07,-0.14,-0.14,-0.13,-0.13
97,-0.08,0.09,-0.04,0.13,-0.13,-0.20,-0.21,-0.17,-0.17
98,0.04,0.25,-0.02,0.19,-0.19,-0.25,-0.15,-0.21,-0.21
99,0.00,0.25,0.01,0.25,-0.25,-0.30,-0.25,-0.25,-0.25
100,0.01,0.30,0.03,0.32,-0.32,-0.35,-0.31,-0.29,-0.29
101,0.06,0.39,0.05,0.39,-0.39,-0.40,-0.32,-0.33,-0.32
102,0.05,0.41,0.07,0.45,-0.45,-0.45,-0.40,-0.38,-0.36
104,0.11,0.55,0.09,0.51,-0.51,-0.54,-0.40,-0.42,-0.44
105,0.12,0.59,0.11,0.58,-0.58,-0.59,-0.45,-0.46,-0.47
106,0.14,0.65,0.13,0.63,-0.63,-0.63,-0.49,-0.50,-0.51
107,0.13,0.67,0.15,0.69,-0.69,-0.68,-0.56,-0.54,-0.54
108,0.17,0.75,0.16,0.74,-0.74,-0.72,-0.57,-0.58,-0.58
109,0.17,0.78,0.17,0.79,-0.79,-0.76,-0.62,-0.61,-0.61
110,0.17,0.82,0.19,0.83,-0.83,-0.80,-0.66,-0.65,-0.65
111,0.21,0.89,0.20,0.88,-0.88,-0.85,-0.67,-0.68,-0.68
112,0.22,0.93,0.21,0.92,-0.92,-0.89,-0.70,-0.72,-0.71
113,0.20,0.95,0.22,0.97,-0.97,-0.93,-0.77,-0.75,-0.75
114,0.21,0.99,0.24,1.02,-1.02,-0.97,-0.81,-0.78,-0.78
115,0.27,1.08,0.25,1.07,-1.07,-1.01,-0.80,-0.82,-0.81
117,0.23,1.10,0.26,1.12,-1.12,-1.08,-0.88,-0.85,-0.87
118,0.32,1.22,0.27,1.16,-1.16,-1.12,-0.84,-0.89,-0.90
119,0.30,1.23,0.28,1.21,-1.21,-1.16,-0.90,-0.93,-0.93
120,0.26,1.22,0.29,1.25,-1.25,-1.19,-0.99,-0.96,-0.96
121,0.28,1.26,0.29,1.29,-1.29,-1.23,-1.01,-0.99,-0.98
123,0.32,1.36,0.30,1.33,-1.33,-1.30,-1.01,-1.03,-1.04
124,0.30,1.36,0.31,1.37,-1.37,-1.33,-1.07,-1.06,-1.06
125,0.29,1.38,0.31,1.40,-1.40,-1.36,-1.11,-1.09,-1.09
126,0.31,1.42,0.32,1.44,-1.44,-1.40,-1.13,-1.12,-1.11
128,0.35,1.51,0.33,1.48,-1.48,-1.46,-1.13,-1.15,-1.16
129,0.34,1.53,0.34,1.52,-1.52,-1.49,-1.18,-1.18,-1.19
130,0.33,1.54,0.34,1.55,-1.55,-1.52,-1.22,-1.21,-1.21
131,0.35,1.58,0.35,1.59,-1.59,-1.55,-1.24,-1.24,-1.23
133,0.36,1.64,0.35,1.62,-1.62,-1.61,-1.26,-1.27,-1.27
134,0.36,1.66,0.36,1.66,-1.66,-1.63,-1.30,-1.30,-1.30
135,0.35,1.67,0.36,1.69,-1.69,-1.66,-1.34,-1.32,-1.32
137,0.39,1.75,0.37,1.72,-1.72,-1.71,-1.33,-1.35,-1.36
138,0.35,1.73,0.37,1.75,-1.75,-1.74,-1.40,-1.38,-1.38
140,0.37,1.78,0.37,1.78,-1.78,-1.79,-1.41,-1.40,-1.41
141,0.39,1.82,0.37,1.80,-1.80,-1.81,-1.41,-1.43,-1.43
142,0.38,1.83,0.38,1.83,-1.83,-1.83,-1.45,-1.45,-1.45
144,0.36,1.84,0.38,1.86,-1.86,-1.88,-1.50,-1.48,-1.48
145,0.37,1.87,0.39,1.89,-1.89,-1.90,-1.52,-1.50,-1.50
147,0.41,1.94,0.39,1.92,-1.92,-1.94,-1.51,-1.53,-1.53
148,0.38,1.93,0.40,1.95,-1.95,-1.96,-1.57,-1.55,-1.55
150,0.42,2.00,0.40,1.97,-1.97,-1.99,-1.55,-1.57,-1.57
151,0.42,2.01,0.41,2.00,-2.00,-2.01,-1.58,-1.59,-1.59
153,0.40,2.02,0.41,2.02,-2.02,-2.04,-1.62,-1.61,-1.62
154,0.39,2.02,0.41,2.04,-2.04,-2.05,-1.65,-1.63,-1.63
156,0.42,2.08,0.41,2.06,-2.06,-2.08,-1.64,-1.65,-1.65
157,0.42,2.09,0.40,2.07,-2.07,-2.09,-1.65,-1.67,-1.67
159,0.40,2.09,0.40,2.09,-2.09,-2.11,-1.69,-1.69,-1.69
160,0.36,2.06,0.39,2.10,-2.10,-2.12,-1.74,-1.71,-1.70
162,0.37,2.10,0.39,2.11,-2.11,-2.14,-1.74,-1.72,-1.72
164,0.42,2.17,0.38,2.12,-2.12,-2.15,-1.70,-1.74,-1.75
165,0.39,2.15,0.37,2.13,-2.13,-2.15,-1.74,-1.76,-1.76
167,0.35,2.13,0.36,2.13,-2.13,-2.16,-1.78,-1.77,-1.78
169,0.32,2.11,0.35,2.14,-2.14,-2.17,-1.82,-1.79,-1.79
170,0.31,2.11,0.34,2.14,-2.14,-2.17,-1.83,-1.81,-1.80
172,0.35,2.17,0.33,2.15,-2.15,-2.18,-1.80,-1.82,-1.82
174,0.34,2.18,0.32,2.15,-2.15,-2.18,-1.81,-1.83,-1.84
175,0.31,2.16,0.31,2.16,-2.16,-2.18,-1.85,-1.85,-1.85
177,0.27,2.13,0.30,2.16,-2.16,-2.17,-1.89,-1.86,-1.86
179,0.26,2.14,0.30,2.17,-2.17,-2.17,-1.91,-1.87,-1.88
181,0.29,2.18,0.29,2.18,-2.18,-2.16,-1.89,-1.89,-1.89
183,0.31,2.21,0.28,2.18,-2.18,-2.16,-1.87,-1.90,-1.90
184,0.29,2.20,0.27,2.18,-2.18,-2.15,-1.89,-1.91,-1.91
186,0.26,2.18,0.26,2.18,-2.18,-2.14,-1.92,-1.92,-1.92
188,0.24,2.18,0.24,2.17,-2.17,-2.13,-1.93,-1.93,-1.93
190,0.21,2.16,0.22,2.16,-2.16,-2.12,-1.95,-1.95,-1.95
192,0.19,2.15,0.19,2.15,-2.15,-2.11,-1.96,-1.96,-1.96
194,0.16,2.13,0.17,2.13,-2.13,-2.10,-1.97,-1.97,-1.97
196,0.13,2.11,0.14,2.12,-2.12,-2.08,-1.99,-1.98,-1.98
198,0.10,2.09,0.11,2.10,-2.10,-2.07,-2.00,-1.99,-1.99
200,0.08,2.08,0.09,2.08,-2.08,-2.06,-2.00,-2.00,-2.00
202,0.07,2.08,0.06,2.07,-2.07,-2.04,-1.99,-2.01,-2.01
204,0.04,2.05,0.03,2.05,-2.05,-2.03,-2.01,-2.01,-2.01
206,0.02,2.04,0.01,2.03,-2.03,-2.01,-2.01,-2.02,-2.02
208,-0.01,2.02,-0.01,2.02,-2.02,-2.00,-2.02,-2.03,-2.03
210,-0.05,1.99,-0.04,2.00,-2.00,-1.98,-2.05,-2.04,-2.04
212,-0.07,1.98,-0.06,1.99,-1.99,-1.97,-2.05,-2.04,-2.04
214,-0.09,1.96,-0.08,1.97,-1.97,-1.96,-2.06,-2.05,-2.05
216,-0.10,1.96,-0.10,1.96,-1.96,-1.94,-2.06,-2.06,-2.06
218,-0.12,1.94,-0.12,1.95,-1.95,-1.93,-2.07,-2.06,-2.06
221,-0.13,1.94,-0.13,1.94,-1.94,-1.91,-2.07,-2.07,-2.07
223,-0.14,1.94,-0.15,1.93,-1.93,-1.89,-2.07,-2.08,-2.08
225,-0.16,1.92,-0.17,1.91,-1.91,-1.88,-2.07,-2.08,-2.08
227,-0.21,1.88,-0.19,1.90,-1.90,-1.87,-2.11,-2.09,-2.09
229,-0.22,1.88,-0.22,1.88,-1.88,-1.86,-2.10,-2.10,-2.09
232,-0.24,1.86,-0.25,1.85,-1.85,-1.84,-2.09,-2.10,-2.10
234,-0.25,1.86,-0.27,1.83,-1.83,-1.83,-2.08,-2.11,-2.11
236,-0.27,1.84,-0.30,1.81,-1.81,-1.81,-2.08,-2.11,-2.11
239,-0.37,1.75,-0.33,1.78,-1.78,-1.80,-2.15,-2.12,-2.12
241,-0.40,1.72,-0.36,1.76,-1.76,-1.79,-2.16,-2.12,-2.12
244,-0.40,1.73,-0.38,1.74,-1.74,-1.77,-2.14,-2.13,-2.13
246,-0.41,1.72,-0.41,1.72,-1.72,-1.76,-2.13,-2.13,-2.13
248,-0.41,1.72,-0.42,1.71,-1.71,-1.75,-2.12,-2.13,-2.13
251,-0.41,1.73,-0.44,1.70,-1.70,-1.74,-2.11,-2.14,-2.14
253,-0.44,1.70,-0.46,1.68,-1.68,-1.73,-2.12,-2.14,-2.14
256,-0.48,1.67,-0.47,1.67,-1.67,-1.72,-2.15,-2.15,-2.15
259,-0.51,1.64,-0.49,1.66,-1.66,-1.71,-2.17,-2.15,-2.15
261,-0.51,1.64,-0.50,1.66,-1.66,-1.70,-2.17,-2.15,-2.15
264,-0.51,1.65,-0.50,1.65,-1.65,-1.69,-2.16,-2.16,-2.16
266,-0.51,1.65,-0.51,1.65,-1.65,-1.68,-2.16,-2.16,-2.16
269,-0.51,1.65,-0.51,1.65,-1.65,-1.68,-2.16,-2.16,-2.16
272,-0.51,1.66,-0.51,1.66,-1.66,-1.67,-2.16,-2.17,-2.17
274,-0.51,1.66,-0.51,1.66,-1.66,-1.66,-2.17,-2.17,-2.17
277,-0.51,1.66,-0.51,1.66,-1.66,-1.65,-2.17,-2.17,-2.17
280,-0.51,1.67,-0.51,1.66,-1.66,-1.65,-2.17,-2.18,-2.18
283,-0.51,1.67,-0.51,1.66,-1.66,-1.64,-2.17,-2.18,-2.18
286,-0.51,1.67,-0.52,1.66,-1.66,-1.63,-2.17,-2.18,-2.18
288,-0.51,1.67,-0.53,1.66,-1.66,-1.63,-2.17,-2.18,-2.18
291,-0.53,1.66,-0.53,1.65,-1.65,-1.62,-2.18,-2.19,-2.18
294,-0.56,1.63,-0.54,1.65,-1.65,-1.62,-2.21,-2.19,-2.19
297,-0.56,1.63,-0.55,1.64,-1.64,-1.61,-2.20,-2.19,-2.19
300,-0.56,1.63,-0.55,1.64,-1.64,-1.60,-2.20,-2.19,-2.19
303,-0.56,1.63,-0.56,1.64,-1.64,-1.60,-2.19,-2.19,-2.19
306,-0.56,1.64,-0.56,1.64,-1.64,-1.60,-2.19,-2.20,-2.20
309,-0.56,1.64,-0.56,1.64,-1.64,-1.59,-2.20,-2.20,-2.20
312,-0.56,1.64,-0.56,1.64,-1.64,-1.59,-2.20,-2.20,-2.20
316,-0.56,1.64,-0.56,1.64,-1.64,-1.58,-2.20,-2.20,-2.20
319,-0.56,1.64,-0.56,1.65,-1.65,-1.58,-2.21,-2.20,-2.20
322,-0.56,1.65,-0.56,1.65,-1.65,-1.58,-2.21,-2.20,-2.20
325,-0.56,1.65,-0.56,1.65,-1.65,-1.57,-2.21,-2.21,-2.21
328,-0.56,1.65,-0.56,1.65,-1.65,-1.57,-2.21,-2.21,-2.21
332,-0.57,1.64,-0.57,1.64,-1.64,-1.57,-2.21,-2.21,-2.21
335,-0.56,1.65,-0.58,1.63,-1.63,-1.56,-2.19,-2.21,-2.21
338,-0.58,1.63,-0.59,1.62,-1.62,-1.56,-2.20,-2.21,-2.21
342,-0.60,1.61,-0.61,1.60,-1.60,-1.56,-2.20,-2.21,-2.21
345,-0.64,1.57,-0.63,1.58,-1.58,-1.55,-2.22,-2.21,-2.21
349,-0.67,1.55,-0.65,1.56,-1.56,-1.55,-2.23,-2.22,-2.22
352,-0.67,1.55,-0.67,1.55,-1.55,-1.55,-2.22,-2.22,-2.22
356,-0.71,1.51,-0.69,1.53,-1.53,-1.55,-2.24,-2.22,-2.22
359,-0.71,1.51,-0.70,1.52,-1.52,-1.54,-2.23,-2.22,-2.22
363,-0.71,1.51,-0.71,1.51,-1.51,-1.54,-2.22,-2.22,-2.22
366,-0.71,1.51,-0.72,1.50,-1.50,-1.54,-2.21,-2.22,-2.22
370,-0.72,1.50,-0.73,1.49,-1.49,-1.54,-2.21,-2.22,-2.22
374,-0.75,1.48,-0.74,1.49,-1.49,-1.53,-2.24,-2.22,-2.22
377,-0.75,1.48,-0.74,1.48,-1.48,-1.53,-2.23,-2.23,-2.23
381,-0.75,1.48,-0.75,1.48,-1.48,-1.53,-2.23,-2.23,-2.23
385,-0.75,1.48,-0.75,1.48,-1.48,-1.53,-2.23,-2.23,-2.23
389,-0.75,1.48,-0.75,1.48,-1.48,-1.52,-2.23,-2.23,-2.23
393,-0.75,1.48,-0.75,1.48,-1.48,-1.52,-2.23,-2.23,-2.23
397,-0.75,1.48,-0.75,1.48,-1.48,-1.52,-2.23,-2.23,-2.23
401,-0.75,1.49,-0.75,1.48,-1.48,-1.51,-2.23,-2.23,-2.23
405,-0.75,1.49,-0.75,1.48,-1.48,-1.51,-2.23,-2.24,-2.24
409,-0.75,1.49,-0.75,1.48,-1.48,-1.51,-2.23,-2.24,-2.24
413,-0.75,1.49,-0.75,1.49,-1.49,-1.50,-2.24,-2.24,-2.24
417,-0.76,1.48,-0.75,1.49,-1.49,-1.50,-2.25,-2.24,-2.24
421,-0.76,1.48,-0.74,1.49,-1.49,-1.50,-2.25,-2.24,-2.24
425,-0.76,1.48,-0.74,1.50,-1.50,-1.49,-2.26,-2.24,-2.24
430,-0.72,1.52,-0.74,1.50,-1.50,-1.49,-2.22,-2.24,-2.24
434,-0.72,1.52,-0.74,1.50,-1.50,-1.48,-2.22,-2.23,-2.23
438,-0.72,1.51,-0.73,1.50,-1.50,-1.48,-2.22,-2.23,-2.23
443,-0.73,1.50,-0.74,1.49,-1.49,-1.47,-2.22,-2.23,-2.23
447,-0.73,1.50,-0.74,1.49,-1.49,-1.47,-2.22,-2.23,-2.23
451,-0.75,1.47,-0.74,1.48,-1.48,-1.46,-2.23,-2.22,-2.22
456,-0.76,1.46,-0.74,1.48,-1.48,-1.45,-2.23,-2.22,-2.22
460,-0.76,1.45,-0.74,1.47,-1.47,-1.45,-2.23,-2.21,-2.21
465,-0.75,1.45,-0.74,1.47,-1.47,-1.44,-2.21,-2.20,-2.20
470,-0.74,1.46,-0.73,1.46,-1.46,-1.44,-2.20,-2.20,-2.20
474,-0.72,1.47,-0.73,1.46,-1.46,-1.43,-2.18,-2.19,-2.19
479,-0.71,1.47,-0.72,1.45,-1.45,-1.42,-2.16,-2.18,-2.18
484,-0.69,1.48,-0.72,1.45,-1.45,-1.41,-2.13,-2.17,-2.17
489,-0.71,1.44,-0.72,1.44,-1.44,-1.41,-2.15,-2.15,-2.15
494,-0.74,1.40,-0.71,1.43,-1.43,-1.40,-2.17,-2.14,-2.14
499,-0.72,1.41,-0.71,1.42,-1.42,-1.39,-2.14,-2.13,-2.13
504,-0.71,1.40,-0.70,1.41,-1.41,-1.38,-2.12,-2.11,-2.11
509,-0.70,1.40,-0.69,1.40,-1.40,-1.37,-2.10,-2.09,-2.09
514,-0.68,1.40,-0.68,1.39,-1.39,-1.36,-2.07,-2.08,-2.08
519,-0.66,1.40,-0.67,1.39,-1.39,-1.35,-2.05,-2.06,-2.06
524,-0.65,1.39,-0.66,1.38,-1.38,-1.34,-2.03,-2.04,-2.04
529,-0.66,1.36,-0.64,1.38,-1.38,-1.34,-2.04,-2.02,-2.02
535,-0.64,1.36,-0.62,1.37,-1.37,-1.32,-2.01,-2.00,-2.00
540,-0.61,1.37,-0.61,1.37,-1.37,-1.31,-1.98,-1.97,-1.97
545,-0.59,1.36,-0.59,1.36,-1.36,-1.30,-1.95,-1.95,-1.95
551,-0.57,1.36,-0.58,1.35,-1.35,-1.29,-1.92,-1.93,-1.93
556,-0.55,1.35,-0.56,1.34,-1.34,-1.28,-1.89,-1.90,-1.90
562,-0.52,1.36,-0.55,1.32,-1.32,-1.27,-1.84,-1.88,-1.88
568,-0.53,1.32,-0.54,1.31,-1.31,-1.26,-1.84,-1.85,-1.85
573,-0.57,1.25,-0.53,1.29,-1.29,-1.25,-1.86,-1.82,-1.82
579,-0.54,1.26,-0.52,1.27,-1.27,-1.24,-1.81,-1.79,-1.79
585,-0.54,1.23,-0.51,1.26,-1.26,-1.23,-1.80,-1.77,-1.77
591,-0.51,1.23,-0.50,1.24,-1.24,-1.21,-1.75,-1.74,-1.74
596,-0.47,1.24,-0.48,1.22,-1.22,-1.20,-1.69,-1.71,-1.71
602,-0.44,1.24,-0.47,1.20,-1.20,-1.19,-1.64,-1.68,-1.68
608,-0.42,1.23,-0.46,1.19,-1.19,-1.18,-1.60,-1.64,-1.64
615,-0.43,1.18,-0.45,1.17,-1.17,-1.17,-1.59,-1.61,-1.61
621,-0.46,1.12,-0.44,1.15,-1.15,-1.15,-1.60,-1.58,-1.58
627,-0.46,1.09,-0.42,1.13,-1.13,-1.14,-1.58,-1.55,-1.55
633,-0.44,1.07,-0.41,1.11,-1.11,-1.13,-1.55,-1.51,-1.51
639,-0.40,1.08,-0.39,1.09,-1.09,-1.12,-1.49,-1.48,-1.48
646,-0.37,1.08,-0.37,1.07,-1.07,-1.11,-1.44,-1.45,-1.45
652,-0.33,1.08,-0.35,1.06,-1.06,-1.09,-1.38,-1.41,-1.41
659,-0.30,1.08,-0.34,1.04,-1.04,-1.08,-1.34,-1.37,-1.37
665,-0.29,1.05,-0.32,1.02,-1.02,-1.07,-1.31,-1.34,-1.34
672,-0.33,0.97,-0.30,1.00,-1.00,-1.06,-1.33,-1.30,-1.30
679,-0.29,0.98,-0.29,0.98,-0.98,-1.04,-1.27,-1.27,-1.27
686,-0.30,0.93,-0.27,0.96,-0.96,-1.03,-1.26,-1.23,-1.23
692,-0.26,0.93,-0.25,0.94,-0.94,-1.02,-1.20,-1.19,-1.19
699,-0.22,0.93,-0.22,0.93,-0.93,-1.01,-1.15,-1.15,-1.15
706,-0.19,0.93,-0.19,0.92,-0.92,-1.00,-1.11,-1.12,-1.12
713,-0.15,0.93,-0.16,0.91,-0.91,-0.99,-1.06,-1.08,-1.08
721,-0.13,0.91,-0.13,0.91,-0.91,-0.97,-1.04,-1.04,-1.04
728,-0.10,0.90,-0.09,0.91,-0.91,-0.96,-1.01,-1.00,-1.00
735,-0.06,0.90,-0.05,0.91,-0.91,-0.95,-0.97,-0.96,-0.96
742,-0.02,0.91,-0.01,0.91,-0.91,-0.94,-0.93,-0.93,-0.93
750,0.02,0.91,0.02,0.91,-0.91,-0.93,-0.89,-0.89,-0.89
757,0.06,0.91,0.06,0.91,-0.91,-0.91,-0.85,-0.85,-0.85
765,0.10,0.91,0.10,0.91,-0.91,-0.90,-0.81,-0.81,-0.81
773,0.14,0.92,0.13,0.91,-0.91,-0.89,-0.77,-0.78,-0.78
780,0.17,0.91,0.16,0.90,-0.90,-0.88,-0.73,-0.74,-0.74
788,0.19,0.90,0.19,0.89,-0.89,-0.87,-0.70,-0.71,-0.71
796,0.21,0.88,0.21,0.88,-0.88,-0.85,-0.67,-0.67,-0.67
804,0.23,0.87,0.23,0.86,-0.86,-0.84,-0.63,-0.64,-0.64
812,0.24,0.84,0.24,0.84,-0.84,-0.83,-0.60,-0.60,-0.60
820,0.25,0.82,0.26,0.82,-0.82,-0.81,-0.57,-0.57,-0.57
828,0.27,0.81,0.27,0.80,-0.80,-0.80,-0.53,-0.54,-0.54
837,0.28,0.78,0.28,0.79,-0.79,-0.78,-0.51,-0.50,-0.50
845,0.29,0.76,0.30,0.77,-0.77,-0.76,-0.48,-0.47,-0.47
853,0.31,0.75,0.32,0.76,-0.76,-0.75,-0.45,-0.44,-0.44
862,0.33,0.74,0.34,0.75,-0.75,-0.73,-0.42,-0.41,-0.41
871,0.34,0.72,0.36,0.74,-0.74,-0.70,-0.40,-0.38,-0.38
879,0.36,0.71,0.38,0.73,-0.73,-0.68,-0.37,-0.35,-0.35
888,0.37,0.69,0.40,0.72,-0.72,-0.65,-0.35,-0.32,-0.32
897,0.38,0.68,0.40,0.69,-0.69,-0.61,-0.31,-0.30,-0.30
906,0.42,0.69,0.38,0.65,-0.65,-0.57,-0.23,-0.27,-0.27
915,0.42,0.66,0.34,0.59,-0.59,-0.52,-0.16,-0.24,-0.24
924,0.36,0.57,0.29,0.50,-0.50,-0.46,-0.14,-0.21,-0.21
933,0.31,0.50,0.21,0.40,-0.40,-0.40,-0.09,-0.19,-0.19
943,0.17,0.33,0.13,0.29,-0.29,-0.31,-0.12,-0.16,-0.16
952,0.04,0.17,0.05,0.18,-0.18,-0.22,-0.14,-0.13,-0.13
962,-0.11,-0.00,-0.02,0.09,-0.09,-0.13,-0.20,-0.11,-0.11
971,-0.17,-0.09,-0.06,0.02,-0.02,-0.05,-0.19,-0.08,-0.08
981,-0.16,-0.11,-0.06,-0.01,0.01,0.00,-0.15,-0.05,-0.05
991,-0.10,-0.07,-0.03,-0.01,0.01,0.01,-0.09,-0.03,-0.03
1001,0.01,0.01,0.03,0.03,-0.03,-0.03,-0.02,0.00,0.00
1011,0.13,0.10,0.13,0.10,-0.10,-0.10,0.03,0.03,0.03
1021,0.28,0.23,0.24,0.18,-0.18,-0.19,0.10,0.05,0.05
1031,0.40,0.32,0.36,0.28,-0.28,-0.28,0.12,0.08,0.08
1041,0.52,0.41,0.48,0.37,-0.37,-0.36,0.15,0.11,0.11
1052,0.61,0.47,0.59,0.45,-0.45,-0.44,0.16,0.14,0.14
1062,0.73,0.56,0.69,0.52,-0.52,-0.51,0.21,0.17,0.17
1073,0.78,0.59,0.77,0.58,-0.58,-0.56,0.20,0.19,0.19
1084,0.84,0.62,0.84,0.62,-0.62,-0.61,0.22,0.22,0.22
1094,0.92,0.67,0.90,0.65,-0.65,-0.65,0.27,0.25,0.25
1105,0.95,0.67,0.95,0.67,-0.67,-0.68,0.28,0.28,0.28
1116,0.97,0.66,1.00,0.68,-0.68,-0.71,0.29,0.31,0.31
1128,1.02,0.68,1.04,0.70,-0.70,-0.74,0.32,0.34,0.34
1139,1.10,0.73,1.09,0.71,-0.71,-0.76,0.39,0.37,0.37
1150,1.12,0.72,1.14,0.73,-0.73,-0.79,0.39,0.40,0.40
1162,1.18,0.74,1.19,0.76,-0.76,-0.81,0.42,0.44,0.44
1173,1.25,0.78,1.25,0.78,-0.78,-0.83,0.47,0.47,0.47
1185,1.30,0.80,1.32,0.82,-0.82,-0.85,0.48,0.50,0.50
1197,1.41,0.88,1.39,0.85,-0.85,-0.87,0.56,0.53,0.53
1209,1.47,0.91,1.46,0.89,-0.89,-0.89,0.58,0.56,0.56
1221,1.50,0.90,1.53,0.94,-0.94,-0.91,0.56,0.60,0.60
1233,1.64,1.01,1.61,0.98,-0.98,-0.93,0.66,0.63,0.63
1246,1.68,1.02,1.69,1.03,-1.03,-0.96,0.65,0.66,0.66
1258,1.75,1.05,1.77,1.07,-1.07,-0.98,0.68,0.70,0.70
1271,1.86,1.13,1.85,1.12,-1.12,-1.00,0.74,0.73,0.73
1283,1.93,1.16,1.93,1.16,-1.16,-1.02,0.77,0.77,0.77
1296,2.03,1.23,2.01,1.21,-1.21,-1.05,0.82,0.80,0.80
1309,2.07,1.23,2.09,1.25,-1.25,-1.07,0.82,0.84,0.84
1322,2.16,1.29,2.16,1.29,-1.29,-1.10,0.87,0.87,0.87
1335,2.25,1.34,2.23,1.32,-1.32,-1.13,0.93,0.91,0.91
1349,2.31,1.37,2.31,1.36,-1.36,-1.16,0.95,0.95,0.95
1362,2.35,1.37,2.38,1.39,-1.39,-1.18,0.96,0.98,0.98
1376,2.42,1.40,2.44,1.42,-1.42,-1.22,1.00,1.02,1.02
1390,2.50,1.44,2.51,1.45,-1.45,-1.25,1.05,1.06,1.06
1404,2.60,1.51,2.57,1.47,-1.47,-1.28,1.13,1.10,1.10
1418,2.65,1.52,2.63,1.49,-1.49,-1.32,1.16,1.13,1.13
1432,2.69,1.52,2.68,1.51,-1.51,-1.35,1.18,1.17,1.17
1446,2.73,1.52,2.73,1.52,-1.52,-1.39,1.21,1.21,1.21
1461,2.77,1.52,2.79,1.54,-1.54,-1.43,1.24,1.25,1.25
1475,2.81,1.52,2.84,1.55,-1.55,-1.46,1.26,1.29,1.29
1490,2.89,1.56,2.89,1.56,-1.56,-1.50,1.33,1.33,1.33
1505,2.96,1.59,2.95,1.57,-1.57,-1.54,1.39,1.37,1.37
1520,3.00,1.59,3.00,1.59,-1.59,-1.58,1.41,1.41,1.41
1535,3.05,1.60,3.06,1.60,-1.60,-1.63,1.45,1.46,1.46
1550,3.13,1.63,3.12,1.62,-1.62,-1.67,1.51,1.50,1.50
1566,3.19,1.65,3.18,1.64,-1.64,-1.71,1.55,1.54,1.54
1582,3.24,1.66,3.24,1.66,-1.66,-1.75,1.58,1.58,1.58
1597,3.28,1.65,3.31,1.68,-1.68,-1.79,1.60,1.63,1.63
1613,3.38,1.71,3.38,1.71,-1.71,-1.83,1.67,1.67,1.67
1629,3.45,1.74,3.45,1.73,-1.73,-1.87,1.72,1.71,1.71
1646,3.50,1.74,3.52,1.76,-1.76,-1.91,1.74,1.76,1.76
1662,3.61,1.81,3.59,1.79,-1.79,-1.95,1.82,1.80,1.80
1679,3.66,1.81,3.67,1.82,-1.82,-1.98,1.84,1.85,1.85
1696,3.75,1.86,3.75,1.85,-1.85,-2.02,1.90,1.90,1.90
1713,3.82,1.88,3.82,1.88,-1.88,-2.05,1.94,1.94,1.94
1730,3.89,1.90,3.89,1.90,-1.90,-2.07,1.99,1.99,1.99
