frequency,raw,error,smoothed,error_smoothed,equalization,parametric_eq,fixed_band_eq,equalized_raw,equalized_smoothed,target
20.00,-20.05,-19.81,-20.05,-19.80,6.00,6.75,2.85,-14.05,-14.05,-0.24
20.20,-19.96,-19.76,-19.96,-19.76,6.00,6.74,2.93,-13.96,-13.96,-0.20
20.40,-19.86,-19.69,-19.87,-19.70,6.00,6.73,3.02,-13.86,-13.87,-0.17
20.61,-19.77,-19.63,-19.77,-19.64,6.00,6.72,3.10,-13.77,-13.77,-0.14
20.81,-19.67,-19.57,-19.68,-19.57,6.00,6.72,3.19,-13.67,-13.68,-0.10
21.02,-19.58,-19.52,-19.56,-19.49,6.00,6.71,3.28,-13.58,-13.56,-0.06
21.23,-19.43,-19.38,-19.43,-19.38,6.00,6.70,3.38,-13.43,-13.43,-0.05
21.44,-19.28,-19.25,-19.29,-19.26,6.00,6.69,3.47,-13.28,-13.29,-0.03
21.66,-19.13,-19.12,-19.13,-19.12,6.00,6.68,3.57,-13.13,-13.13,-0.01
21.87,-18.98,-18.97,-18.98,-18.98,6.00,6.68,3.67,-12.98,-12.98,-0.00
22.09,-18.82,-18.84,-18.82,-18.83,6.00,6.67,3.78,-12.82,-12.82,0.02
22.31,-18.66,-18.67,-18.66,-18.68,6.00,6.66,3.89,-12.66,-12.66,0.02
22.54,-18.50,-18.53,-18.50,-18.53,6.00,6.65,4.00,-12.50,-12.50,0.03
22.76,-18.34,-18.37,-18.34,-18.37,6.00,6.64,4.11,-12.34,-12.34,0.04
22.99,-18.18,-18.22,-18.18,-18.22,6.00,6.63,4.23,-12.18,-12.18,0.04
23.22,-18.03,-18.08,-18.03,-18.07,6.00,6.62,4.35,-12.03,-12.03,0.05
23.45,-17.88,-17.93,-17.88,-17.93,6.00,6.61,4.47,-11.88,-11.88,0.05
23.69,-17.73,-17.80,-17.73,-17.79,6.00,6.60,4.59,-11.73,-11.73,0.06
23.92,-17.59,-17.66,-17.59,-17.67,6.00,6.59,4.72,-11.59,-11.59,0.07
24.16,-17.47,-17.55,-17.47,-17.56,6.00,6.58,4.85,-11.47,-11.47,0.08
24.40,-17.37,-17.46,-17.37,-17.45,6.00,6.57,4.98,-11.37,-11.37,0.09
24.65,-17.27,-17.35,-17.27,-17.35,6.00,6.56,5.11,-11.27,-11.27,0.08
24.89,-17.16,-17.24,-17.16,-17.24,6.00,6.55,5.25,-11.16,-11.16,0.08
25.14,-17.04,-17.12,-17.03,-17.11,6.00,6.54,5.38,-11.04,-11.03,0.08
25.39,-16.89,-16.97,-16.89,-16.97,6.00,6.53,5.52,-10.89,-10.89,0.08
25.65,-16.74,-16.82,-16.74,-16.82,6.00,6.51,5.66,-10.74,-10.74,0.08
25.91,-16.59,-16.66,-16.59,-16.67,6.00,6.50,5.80,-10.59,-10.59,0.07
26.16,-16.45,-16.53,-16.45,-16.53,6.00,6.49,5.94,-10.45,-10.45,0.08
26.43,-16.31,-16.39,-16.31,-16.39,6.00,6.48,6.08,-10.31,-10.31,0.08
26.69,-16.17,-16.25,-16.17,-16.25,6.00,6.47,6.21,-10.17,-10.17,0.08
26.96,-16.02,-16.10,-16.03,-16.11,6.00,6.45,6.35,-10.02,-10.03,0.08
27.23,-15.89,-15.97,-15.89,-15.96,6.00,6.44,6.48,-9.89,-9.89,0.08
27.50,-15.75,-15.83,-15.75,-15.82,6.00,6.43,6.61,-9.75,-9.75,0.08
27.77,-15.61,-15.67,-15.61,-15.68,6.00,6.41,6.74,-9.61,-9.61,0.07
28.05,-15.48,-15.54,-15.48,-15.54,6.00,6.40,6.86,-9.48,-9.48,0.06
28.33,-15.34,-15.39,-15.35,-15.41,6.00,6.39,6.98,-9.34,-9.35,0.05
28.62,-15.21,-15.28,-15.21,-15.27,6.00,6.37,7.09,-9.21,-9.21,0.06
28.90,-15.08,-15.14,-15.07,-15.12,6.00,6.36,7.19,-9.08,-9.07,0.06
29.19,-14.90,-14.95,-14.90,-14.96,6.00,6.35,7.28,-8.90,-8.90,0.05
29.48,-14.71,-14.77,-14.71,-14.77,6.00,6.33,7.36,-8.71,-8.71,0.06
29.78,-14.52,-14.58,-14.52,-14.58,6.00,6.32,7.44,-8.52,-8.52,0.06
30.08,-14.34,-14.40,-14.36,-14.41,6.00,6.30,7.50,-8.34,-8.36,0.06
30.38,-14.21,-14.26,-14.22,-14.27,6.00,6.29,7.55,-8.21,-8.22,0.05
30.68,-14.09,-14.14,-14.09,-14.13,6.00,6.27,7.59,-8.09,-8.09,0.05
30.99,-13.97,-14.01,-13.96,-13.99,6.00,6.26,7.62,-7.97,-7.96,0.04
31.30,-13.80,-13.84,-13.81,-13.84,6.00,6.24,7.63,-7.80,-7.81,0.03
31.61,-13.64,-13.67,-13.64,-13.67,6.00,6.22,7.64,-7.64,-7.64,0.03
31.93,-13.48,-13.50,-13.48,-13.50,6.00,6.21,7.63,-7.48,-7.48,0.02
32.24,-13.33,-13.34,-13.33,-13.35,6.00,6.19,7.61,-7.33,-7.33,0.01
32.57,-13.19,-13.20,-13.19,-13.20,6.00,6.18,7.57,-7.19,-7.19,0.01
32.89,-13.05,-13.06,-13.04,-13.05,6.00,6.16,7.53,-7.05,-7.04,0.01
33.22,-12.89,-12.90,-12.89,-12.89,6.00,6.14,7.47,-6.89,-6.89,0.01
33.55,-12.73,-12.73,-12.73,-12.73,6.00,6.13,7.41,-6.73,-6.73,0.00
33.89,-12.57,-12.57,-12.58,-12.58,6.00,6.11,7.33,-6.57,-6.58,0.00
34.23,-12.43,-12.43,-12.44,-12.43,6.00,6.09,7.25,-6.43,-6.44,0.00
34.57,-12.30,-12.29,-12.30,-12.29,6.00,6.07,7.16,-6.30,-6.30,-0.01
34.92,-12.16,-12.15,-12.15,-12.14,6.00,6.06,7.07,-6.16,-6.15,-0.01
35.27,-11.99,-11.98,-11.98,-11.96,6.00,6.04,6.97,-5.99,-5.98,-0.02
35.62,-11.81,-11.78,-11.81,-11.79,6.00,6.02,6.86,-5.81,-5.81,-0.03
35.97,-11.63,-11.60,-11.65,-11.63,6.00,6.01,6.76,-5.63,-5.65,-0.03
36.33,-11.53,-11.50,-11.53,-11.50,6.00,5.99,6.65,-5.53,-5.53,-0.03
36.70,-11.44,-11.41,-11.43,-11.39,6.00,5.98,6.53,-5.44,-5.43,-0.03
37.06,-11.34,-11.29,-11.35,-11.30,6.00,5.96,6.42,-5.34,-5.35,-0.05
37.43,-11.25,-11.20,-11.25,-11.21,6.00,5.94,6.31,-5.25,-5.25,-0.05
37.81,-11.16,-11.11,-11.15,-11.09,6.00,5.93,6.19,-5.16,-5.15,-0.05
38.19,-11.03,-10.97,-11.02,-10.96,6.00,5.91,6.08,-5.03,-5.02,-0.06
38.57,-10.88,-10.81,-10.88,-10.81,6.00,5.90,5.97,-4.88,-4.88,-0.07
38.95,-10.72,-10.65,-10.74,-10.66,6.00,5.89,5.86,-4.72,-4.74,-0.07
39.34,-10.61,-10.53,-10.62,-10.53,6.00,5.87,5.75,-4.61,-4.62,-0.08
39.74,-10.51,-10.42,-10.50,-10.41,6.00,5.86,5.65,-4.51,-4.50,-0.10
40.14,-10.38,-10.29,-10.37,-10.28,6.00,5.85,5.54,-4.38,-4.37,-0.09
40.54,-10.21,-10.12,-10.22,-10.12,6.00,5.85,5.44,-4.21,-4.22,-0.09
40.94,-10.04,-9.94,-10.04,-9.95,6.00,5.84,5.34,-4.04,-4.04,-0.10
41.35,-9.87,-9.76,-9.87,-9.76,6.00,5.83,5.25,-3.87,-3.87,-0.11
41.76,-9.71,-9.59,-9.71,-9.59,6.00,5.83,5.16,-3.71,-3.71,-0.12
42.18,-9.56,-9.42,-9.57,-9.43,6.00,5.83,5.07,-3.56,-3.57,-0.14
42.60,-9.44,-9.28,-9.44,-9.28,6.00,5.83,4.99,-3.44,-3.44,-0.16
43.03,-9.32,-9.15,-9.29,-9.11,6.00,5.84,4.91,-3.32,-3.29,-0.17
43.46,-9.12,-8.92,-9.12,-8.92,6.00,5.84,4.83,-3.12,-3.12,-0.20
43.90,-8.93,-8.69,-8.96,-8.72,6.00,5.85,4.76,-2.93,-2.96,-0.24
44.33,-8.80,-8.53,-8.81,-8.54,6.00,5.87,4.69,-2.80,-2.81,-0.27
44.78,-8.70,-8.40,-8.69,-8.39,6.00,5.89,4.62,-2.70,-2.69,-0.30
45.23,-8.58,-8.25,-8.58,-8.25,6.00,5.91,4.56,-2.58,-2.58,-0.33
45.68,-8.45,-8.10,-8.45,-8.10,6.00,5.93,4.50,-2.45,-2.45,-0.35
46.13,-8.31,-7.94,-8.30,-7.93,6.00,5.96,4.44,-2.31,-2.30,-0.37
46.60,-8.13,-7.76,-8.13,-7.75,6.00,6.00,4.39,-2.13,-2.13,-0.37
47.06,-7.95,-7.56,-7.97,-7.58,6.00,6.03,4.34,-1.95,-1.97,-0.39
47.53,-7.82,-7.42,-7.82,-7.43,6.00,6.06,4.30,-1.82,-1.82,-0.40
48.01,-7.69,-7.30,-7.68,-7.28,6.00,6.10,4.25,-1.69,-1.68,-0.39
48.49,-7.54,-7.14,-7.54,-7.14,6.00,6.13,4.21,-1.54,-1.54,-0.40
48.97,-7.39,-6.98,-7.39,-6.98,6.01,6.15,4.18,-1.38,-1.38,-0.41
49.46,-7.23,-6.82,-7.23,-6.82,6.02,6.17,4.14,-1.21,-1.21,-0.41
49.96,-7.06,-6.65,-7.07,-6.67,6.02,6.17,4.11,-1.04,-1.05,-0.41
50.46,-6.93,-6.53,-6.93,-6.53,6.02,6.15,4.08,-0.91,-0.91,-0.40
50.96,-6.79,-6.40,-6.79,-6.40,6.00,6.12,4.05,-0.79,-0.79,-0.39
51.47,-6.65,-6.26,-6.65,-6.26,5.98,6.06,4.03,-0.67,-0.68,-0.39
51.99,-6.50,-6.10,-6.48,-6.08,5.94,5.99,4.00,-0.56,-0.54,-0.40
52.51,-6.32,-5.91,-6.32,-5.90,5.88,5.89,3.98,-0.44,-0.43,-0.41
53.03,-6.14,-5.71,-6.21,-5.77,5.81,5.77,3.96,-0.33,-0.40,-0.43
53.56,-6.14,-5.68,-6.13,-5.67,5.71,5.64,3.93,-0.43,-0.42,-0.46
54.10,-6.12,-5.62,-6.07,-5.57,5.58,5.49,3.91,-0.54,-0.49,-0.50
54.64,-5.99,-5.45,-6.01,-5.47,5.42,5.33,3.89,-0.57,-0.58,-0.54
55.18,-5.87,-5.29,-5.89,-5.31,5.24,5.16,3.87,-0.63,-0.65,-0.58
55.74,-5.75,-5.12,-5.72,-5.09,5.04,4.98,3.85,-0.71,-0.68,-0.63
56.29,-5.55,-4.88,-5.53,-4.86,4.84,4.81,3.82,-0.71,-0.69,-0.67
56.86,-5.30,-4.58,-5.33,-4.60,4.63,4.63,3.80,-0.68,-0.71,-0.72
57.42,-5.13,-4.34,-5.14,-4.36,4.41,4.45,3.77,-0.72,-0.73,-0.79
58.00,-5.00,-4.16,-4.99,-4.15,4.20,4.27,3.74,-0.80,-0.79,-0.84
58.58,-4.87,-3.98,-4.86,-3.97,4.01,4.10,3.71,-0.86,-0.85,-0.89
59.16,-4.74,-3.80,-4.73,-3.79,3.83,3.92,3.68,-0.90,-0.90,-0.94
59.76,-4.61,-3.62,-4.64,-3.65,3.67,3.75,3.64,-0.94,-0.97,-0.99
60.35,-4.55,-3.50,-4.57,-3.53,3.51,3.58,3.60,-1.04,-1.06,-1.05
60.96,-4.55,-3.45,-4.51,-3.40,3.35,3.42,3.55,-1.20,-1.16,-1.10
61.57,-4.42,-3.26,-4.42,-3.26,3.18,3.25,3.51,-1.24,-1.24,-1.16
62.18,-4.28,-3.06,-4.29,-3.08,3.02,3.08,3.45,-1.26,-1.27,-1.22
62.80,-4.13,-2.88,-4.11,-2.85,2.86,2.92,3.40,-1.27,-1.25,-1.25
63.43,-3.95,-2.65,-3.94,-2.64,2.71,2.76,3.34,-1.24,-1.23,-1.30
64.07,-3.76,-2.42,-3.79,-2.45,2.55,2.60,3.28,-1.21,-1.24,-1.34
64.71,-3.68,-2.31,-3.70,-2.32,2.39,2.44,3.21,-1.29,-1.31,-1.37
65.35,-3.64,-2.23,-3.65,-2.24,2.22,2.28,3.14,-1.42,-1.43,-1.41
66.01,-3.64,-2.20,-3.60,-2.15,2.07,2.12,3.07,-1.57,-1.53,-1.44
66.67,-3.49,-2.02,-3.47,-2.00,1.92,1.97,2.99,-1.57,-1.55,-1.47
67.33,-3.30,-1.81,-3.31,-1.82,1.78,1.82,2.91,-1.52,-1.53,-1.49
68.01,-3.08,-1.57,-3.12,-1.61,1.64,1.68,2.82,-1.44,-1.48,-1.51
68.69,-2.98,-1.45,-2.96,-1.42,1.50,1.53,2.73,-1.48,-1.46,-1.53
69.37,-2.85,-1.30,-2.84,-1.29,1.35,1.40,2.64,-1.50,-1.50,-1.55
70.07,-2.72,-1.15,-2.77,-1.20,1.20,1.27,2.55,-1.52,-1.57,-1.57
70.77,-2.72,-1.14,-2.69,-1.10,1.07,1.14,2.45,-1.65,-1.62,-1.58
71.48,-2.61,-1.01,-2.58,-0.98,0.95,1.03,2.36,-1.66,-1.63,-1.60
72.19,-2.45,-0.84,-2.46,-0.85,0.84,0.92,2.26,-1.61,-1.62,-1.61
72.91,-2.29,-0.65,-2.34,-0.71,0.73,0.82,2.15,-1.56,-1.61,-1.64
73.64,-2.27,-0.62,-2.25,-0.60,0.62,0.72,2.05,-1.65,-1.64,-1.65
74.38,-2.21,-0.54,-2.18,-0.51,0.50,0.63,1.95,-1.71,-1.68,-1.67
75.12,-2.09,-0.40,-2.10,-0.41,0.38,0.54,1.84,-1.71,-1.72,-1.69
75.87,-2.00,-0.29,-1.99,-0.28,0.27,0.46,1.74,-1.73,-1.72,-1.71
76.63,-1.87,-0.14,-1.89,-0.16,0.17,0.39,1.63,-1.70,-1.72,-1.73
77.40,-1.79,-0.06,-1.79,-0.05,0.07,0.31,1.52,-1.72,-1.72,-1.73
78.17,-1.72,0.03,-1.70,0.05,-0.03,0.24,1.41,-1.74,-1.72,-1.75
78.95,-1.59,0.16,-1.63,0.12,-0.12,0.17,1.30,-1.71,-1.75,-1.75
79.74,-1.58,0.17,-1.56,0.20,-0.20,0.10,1.19,-1.78,-1.76,-1.75
80.54,-1.50,0.26,-1.49,0.27,-0.28,0.03,1.09,-1.78,-1.77,-1.76
81.35,-1.41,0.35,-1.42,0.33,-0.35,-0.05,0.98,-1.76,-1.78,-1.76
82.16,-1.34,0.41,-1.33,0.42,-0.41,-0.12,0.87,-1.75,-1.74,-1.75
82.98,-1.25,0.49,-1.25,0.49,-0.48,-0.19,0.76,-1.73,-1.72,-1.74
83.81,-1.15,0.58,-1.18,0.55,-0.54,-0.27,0.65,-1.69,-1.72,-1.73
84.65,-1.13,0.59,-1.11,0.60,-0.61,-0.34,0.54,-1.74,-1.72,-1.72
85.50,-1.07,0.62,-1.05,0.65,-0.67,-0.42,0.43,-1.74,-1.72,-1.69
86.35,-0.96,0.72,-0.99,0.70,-0.73,-0.50,0.32,-1.69,-1.71,-1.68
87.22,-0.89,0.77,-0.89,0.77,-0.78,-0.58,0.21,-1.67,-1.66,-1.66
88.09,-0.83,0.82,-0.79,0.85,-0.81,-0.66,0.10,-1.64,-1.61,-1.65
88.97,-0.68,0.93,-0.72,0.90,-0.85,-0.74,-0.01,-1.53,-1.57,-1.61
89.86,-0.67,0.93,-0.68,0.92,-0.89,-0.82,-0.13,-1.56,-1.56,-1.60
90.76,-0.67,0.92,-0.67,0.92,-0.93,-0.91,-0.24,-1.60,-1.59,-1.59
91.66,-0.67,0.90,-0.68,0.90,-0.96,-0.99,-0.35,-1.63,-1.63,-1.57
92.58,-0.67,0.91,-0.63,0.93,-0.98,-1.08,-0.46,-1.65,-1.62,-1.58
93.51,-0.57,0.98,-0.57,0.99,-1.00,-1.16,-0.57,-1.57,-1.57,-1.56
94.44,-0.46,1.09,-0.50,1.06,-1.03,-1.24,-0.68,-1.49,-1.52,-1.55
95.39,-0.44,1.11,-0.44,1.11,-1.06,-1.33,-0.79,-1.50,-1.51,-1.55
96.34,-0.44,1.13,-0.44,1.13,-1.11,-1.41,-0.90,-1.55,-1.55,-1.57
97.30,-0.44,1.13,-0.45,1.12,-1.16,-1.50,-1.01,-1.60,-1.61,-1.57
98.28,-0.44,1.14,-0.41,1.16,-1.21,-1.58,-1.12,-1.65,-1.62,-1.58
99.26,-0.38,1.20,-0.35,1.24,-1.25,-1.66,-1.23,-1.63,-1.59,-1.58
100.25,-0.22,1.37,-0.28,1.32,-1.29,-1.74,-1.34,-1.51,-1.56,-1.59
101.25,-0.22,1.39,-0.22,1.39,-1.34,-1.82,-1.45,-1.56,-1.56,-1.61
102.27,-0.22,1.41,-0.21,1.42,-1.40,-1.90,-1.55,-1.62,-1.61,-1.63
103.29,-0.22,1.44,-0.23,1.43,-1.47,-1.97,-1.66,-1.69,-1.70,-1.66
104.32,-0.22,1.46,-0.20,1.48,-1.54,-2.05,-1.76,-1.76,-1.74,-1.68
105.37,-0.16,1.55,-0.14,1.58,-1.61,-2.12,-1.87,-1.78,-1.75,-1.71
106.42,-0.03,1.72,-0.06,1.69,-1.68,-2.19,-1.97,-1.72,-1.75,-1.75
107.48,0.01,1.81,-0.00,1.80,-1.76,-2.26,-2.07,-1.75,-1.76,-1.80
108.56,0.01,1.87,0.02,1.87,-1.83,-2.33,-2.17,-1.82,-1.81,-1.86
109.64,0.01,1.92,0.01,1.92,-1.90,-2.39,-2.26,-1.89,-1.89,-1.91
110.74,0.01,1.97,0.01,1.97,-1.98,-2.45,-2.35,-1.97,-1.97,-1.96
111.85,0.01,2.02,0.01,2.02,-2.04,-2.51,-2.44,-2.03,-2.03,-2.01
112.97,0.01,2.08,0.01,2.08,-2.09,-2.57,-2.52,-2.08,-2.08,-2.07
114.10,0.01,2.13,0.01,2.14,-2.13,-2.62,-2.61,-2.12,-2.12,-2.12
115.24,0.01,2.19,0.01,2.19,-2.18,-2.68,-2.68,-2.17,-2.17,-2.18
116.39,0.01,2.25,0.01,2.25,-2.24,-2.73,-2.75,-2.23,-2.23,-2.24
117.55,0.01,2.30,0.01,2.30,-2.30,-2.77,-2.82,-2.29,-2.29,-2.29
118.73,0.01,2.34,-0.00,2.33,-2.37,-2.81,-2.88,-2.36,-2.38,-2.33
119.92,0.01,2.37,0.01,2.38,-2.44,-2.85,-2.93,-2.43,-2.42,-2.36
121.12,0.02,2.42,0.07,2.46,-2.49,-2.89,-2.98,-2.47,-2.42,-2.40
122.33,0.16,2.58,0.15,2.57,-2.53,-2.93,-3.02,-2.37,-2.37,-2.42
123.55,0.24,2.67,0.20,2.64,-2.55,-2.96,-3.06,-2.31,-2.35,-2.43
124.79,0.24,2.70,0.20,2.65,-2.57,-2.99,-3.09,-2.33,-2.37,-2.46
126.03,0.09,2.56,0.13,2.60,-2.58,-3.02,-3.11,-2.49,-2.45,-2.47
127.29,0.04,2.52,0.05,2.54,-2.58,-3.04,-3.13,-2.54,-2.53,-2.49
128.57,0.01,2.52,0.01,2.51,-2.58,-3.06,-3.14,-2.57,-2.57,-2.51
129.85,0.01,2.53,0.01,2.53,-2.57,-3.08,-3.14,-2.56,-2.56,-2.52
131.15,0.01,2.55,0.01,2.55,-2.56,-3.09,-3.14,-2.55,-2.55,-2.54
132.46,0.01,2.57,0.01,2.57,-2.56,-3.11,-3.13,-2.55,-2.55,-2.56
133.79,0.01,2.58,0.01,2.59,-2.57,-3.12,-3.12,-2.56,-2.56,-2.57
135.12,0.01,2.61,0.01,2.60,-2.60,-3.12,-3.10,-2.59,-2.59,-2.60
136.48,0.01,2.62,0.01,2.62,-2.64,-3.13,-3.08,-2.63,-2.63,-2.61
137.84,0.01,2.64,0.01,2.65,-2.66,-3.13,-3.06,-2.66,-2.66,-2.63
139.22,0.01,2.68,0.01,2.68,-2.68,-3.13,-3.03,-2.67,-2.67,-2.67
140.61,0.01,2.71,0.01,2.70,-2.69,-3.13,-3.00,-2.68,-2.68,-2.70
142.02,0.01,2.72,0.02,2.74,-2.70,-3.13,-2.96,-2.69,-2.67,-2.71
143.44,0.01,2.75,0.01,2.75,-2.69,-3.12,-2.92,-2.68,-2.68,-2.74
144.87,0.01,2.78,-0.04,2.72,-2.69,-3.11,-2.88,-2.68,-2.74,-2.77
146.32,-0.14,2.66,-0.12,2.68,-2.70,-3.10,-2.84,-2.84,-2.82,-2.80
147.78,-0.22,2.61,-0.19,2.65,-2.71,-3.09,-2.80,-2.93,-2.90,-2.83
149.26,-0.22,2.66,-0.23,2.66,-2.73,-3.07,-2.75,-2.95,-2.96,-2.88
150.75,-0.22,2.73,-0.23,2.71,-2.76,-3.06,-2.71,-2.98,-2.98,-2.95
152.26,-0.22,2.78,-0.22,2.79,-2.78,-3.04,-2.66,-3.00,-3.00,-3.00
153.78,-0.22,2.85,-0.21,2.87,-2.81,-3.02,-2.62,-3.03,-3.02,-3.07
155.32,-0.22,2.93,-0.23,2.91,-2.85,-3.00,-2.57,-3.07,-3.08,-3.15
156.88,-0.24,2.97,-0.28,2.93,-2.89,-2.98,-2.53,-3.13,-3.18,-3.21
158.44,-0.38,2.89,-0.35,2.93,-2.94,-2.95,-2.48,-3.32,-3.29,-3.28
160.03,-0.44,2.90,-0.42,2.92,-2.97,-2.93,-2.44,-3.41,-3.39,-3.34
161.63,-0.44,2.95,-0.45,2.93,-2.99,-2.90,-2.40,-3.43,-3.44,-3.39
163.24,-0.44,2.99,-0.45,2.98,-3.00,-2.87,-2.36,-3.44,-3.45,-3.43
164.88,-0.44,3.02,-0.43,3.03,-3.00,-2.84,-2.32,-3.44,-3.43,-3.46
166.53,-0.44,3.05,-0.43,3.06,-2.99,-2.81,-2.28,-3.43,-3.42,-3.49
168.19,-0.44,3.07,-0.46,3.04,-2.98,-2.78,-2.25,-3.42,-3.45,-3.51
169.87,-0.50,3.01,-0.53,2.98,-2.97,-2.74,-2.21,-3.47,-3.50,-3.51
171.57,-0.64,2.87,-0.60,2.91,-2.94,-2.71,-2.18,-3.58,-3.54,-3.51
173.29,-0.67,2.83,-0.66,2.84,-2.89,-2.67,-2.15,-3.56,-3.55,-3.50
175.02,-0.67,2.80,-0.67,2.81,-2.84,-2.64,-2.12,-3.51,-3.51,-3.47
176.77,-0.67,2.80,-0.67,2.80,-2.78,-2.60,-2.09,-3.45,-3.45,-3.47
178.54,-0.67,2.79,-0.70,2.76,-2.72,-2.56,-2.06,-3.39,-3.42,-3.46
180.32,-0.75,2.69,-0.76,2.68,-2.67,-2.52,-2.04,-3.42,-3.43,-3.44
182.13,-0.85,2.58,-0.83,2.60,-2.61,-2.48,-2.02,-3.46,-3.44,-3.43
183.95,-0.90,2.52,-0.87,2.55,-2.56,-2.44,-2.00,-3.46,-3.43,-3.42
185.79,-0.90,2.52,-0.91,2.51,-2.51,-2.40,-1.98,-3.41,-3.42,-3.42
187.65,-0.90,2.54,-0.97,2.47,-2.47,-2.36,-1.96,-3.37,-3.43,-3.44
189.52,-1.08,2.37,-1.04,2.41,-2.43,-2.32,-1.94,-3.51,-3.46,-3.45
191.42,-1.13,2.33,-1.11,2.36,-2.40,-2.27,-1.93,-3.53,-3.50,-3.46
193.33,-1.13,2.34,-1.14,2.33,-2.36,-2.23,-1.92,-3.49,-3.51,-3.48
195.27,-1.13,2.35,-1.12,2.36,-2.33,-2.19,-1.90,-3.46,-3.46,-3.48
197.22,-1.13,2.36,-1.13,2.36,-2.31,-2.14,-1.89,-3.44,-3.44,-3.49
199.19,-1.14,2.38,-1.18,2.32,-2.29,-2.10,-1.88,-3.43,-3.47,-3.52
201.18,-1.27,2.25,-1.26,2.27,-2.27,-2.05,-1.88,-3.54,-3.53,-3.52
203.19,-1.36,2.17,-1.33,2.21,-2.25,-2.01,-1.87,-3.61,-3.58,-3.53
205.23,-1.36,2.19,-1.37,2.17,-2.22,-1.96,-1.86,-3.58,-3.59,-3.55
207.28,-1.36,2.19,-1.35,2.20,-2.19,-1.91,-1.85,-3.55,-3.54,-3.55
209.35,-1.36,2.21,-1.36,2.21,-2.15,-1.87,-1.85,-3.51,-3.51,-3.57
211.44,-1.36,2.23,-1.41,2.16,-2.12,-1.82,-1.84,-3.49,-3.54,-3.59
213.56,-1.51,2.08,-1.48,2.10,-2.11,-1.77,-1.84,-3.62,-3.59,-3.59
215.69,-1.58,2.00,-1.55,2.04,-2.09,-1.73,-1.83,-3.67,-3.64,-3.58
217.85,-1.58,2.02,-1.59,2.01,-2.07,-1.68,-1.82,-3.65,-3.66,-3.60
220.03,-1.58,2.03,-1.59,2.03,-2.04,-1.63,-1.81,-3.62,-3.63,-3.61
222.23,-1.58,2.05,-1.57,2.06,-2.01,-1.58,-1.80,-3.59,-3.57,-3.63
224.45,-1.58,2.04,-1.58,2.04,-1.98,-1.53,-1.79,-3.56,-3.56,-3.62
226.70,-1.58,2.04,-1.63,1.99,-1.96,-1.48,-1.78,-3.54,-3.59,-3.62
228.96,-1.74,1.89,-1.70,1.92,-1.94,-1.44,-1.77,-3.68,-3.64,-3.63
231.25,-1.79,1.83,-1.77,1.86,-1.91,-1.39,-1.75,-3.70,-3.68,-3.62
233.57,-1.81,1.82,-1.82,1.82,-1.87,-1.34,-1.73,-3.68,-3.68,-3.63
235.90,-1.81,1.83,-1.80,1.83,-1.81,-1.29,-1.71,-3.62,-3.61,-3.64
238.26,-1.81,1.82,-1.81,1.82,-1.76,-1.24,-1.69,-3.57,-3.57,-3.63
240.64,-1.81,1.82,-1.87,1.76,-1.72,-1.19,-1.66,-3.53,-3.58,-3.63
243.05,-1.97,1.64,-1.94,1.67,-1.68,-1.14,-1.63,-3.65,-3.62,-3.61
245.48,-2.04,1.57,-2.01,1.60,-1.65,-1.09,-1.60,-3.69,-3.66,-3.61
247.93,-2.04,1.55,-2.05,1.55,-1.61,-1.04,-1.57,-3.65,-3.66,-3.59
250.41,-2.04,1.56,-2.05,1.54,-1.56,-0.99,-1.53,-3.61,-3.61,-3.60
252.92,-2.04,1.54,-2.03,1.55,-1.51,-0.94,-1.48,-3.55,-3.54,-3.58
255.45,-2.04,1.52,-2.04,1.53,-1.46,-0.89,-1.44,-3.50,-3.50,-3.56
258.00,-2.04,1.51,-2.09,1.46,-1.42,-0.84,-1.39,-3.46,-3.51,-3.55
260.58,-2.18,1.37,-2.16,1.38,-1.38,-0.78,-1.34,-3.56,-3.54,-3.55
263.19,-2.26,1.27,-2.23,1.30,-1.35,-0.73,-1.28,-3.61,-3.58,-3.53
265.82,-2.27,1.25,-2.28,1.24,-1.31,-0.68,-1.22,-3.58,-3.58,-3.52
268.48,-2.27,1.23,-2.28,1.22,-1.26,-0.63,-1.16,-3.53,-3.54,-3.50
271.16,-2.27,1.21,-2.27,1.21,-1.21,-0.58,-1.09,-3.48,-3.48,-3.48
273.87,-2.27,1.19,-2.25,1.20,-1.16,-0.53,-1.03,-3.43,-3.41,-3.46
276.61,-2.27,1.16,-2.27,1.16,-1.11,-0.47,-0.95,-3.38,-3.38,-3.43
279.38,-2.27,1.14,-2.33,1.08,-1.06,-0.42,-0.88,-3.33,-3.39,-3.41
282.17,-2.44,0.94,-2.40,0.98,-1.01,-0.37,-0.80,-3.45,-3.41,-3.38
284.99,-2.50,0.86,-2.46,0.89,-0.94,-0.31,-0.73,-3.44,-3.40,-3.36
287.84,-2.50,0.83,-2.51,0.82,-0.86,-0.26,-0.64,-3.36,-3.36,-3.33
290.72,-2.50,0.79,-2.53,0.76,-0.76,-0.21,-0.56,-3.26,-3.29,-3.29
293.63,-2.61,0.65,-2.61,0.65,-0.64,-0.15,-0.48,-3.25,-3.25,-3.26
296.57,-2.71,0.53,-2.71,0.52,-0.49,-0.10,-0.39,-3.20,-3.20,-3.24
299.53,-2.89,0.32,-2.84,0.37,-0.31,-0.05,-0.30,-3.20,-3.15,-3.21
302.53,-2.95,0.24,-3.00,0.19,-0.11,0.01,-0.21,-3.06,-3.10,-3.19
305.55,-3.18,-0.03,-3.19,-0.03,0.11,0.06,-0.12,-3.07,-3.08,-3.15
308.61,-3.44,-0.30,-3.44,-0.30,0.32,0.12,-0.03,-3.12,-3.11,-3.14
311.69,-3.70,-0.58,-3.71,-0.60,0.53,0.17,0.07,-3.17,-3.19,-3.12
314.81,-3.96,-0.87,-3.93,-0.83,0.70,0.23,0.16,-3.26,-3.22,-3.09
317.96,-4.08,-0.99,-4.06,-0.96,0.85,0.29,0.26,-3.23,-3.21,-3.09
321.14,-4.09,-1.00,-4.11,-1.02,0.95,0.34,0.35,-3.14,-3.15,-3.09
324.35,-4.09,-1.01,-4.10,-1.02,1.02,0.40,0.45,-3.07,-3.08,-3.09
327.59,-4.09,-1.01,-4.09,-1.01,1.06,0.46,0.55,-3.03,-3.03,-3.08
330.87,-4.09,-1.02,-4.09,-1.02,1.07,0.51,0.65,-3.02,-3.02,-3.07
334.18,-4.09,-1.03,-4.09,-1.03,1.06,0.57,0.76,-3.03,-3.03,-3.06
337.52,-4.09,-1.04,-4.09,-1.04,1.05,0.63,0.86,-3.04,-3.04,-3.05
340.90,-4.09,-1.07,-4.09,-1.06,1.05,0.69,0.96,-3.04,-3.04,-3.02
344.30,-4.09,-1.08,-4.09,-1.08,1.06,0.75,1.07,-3.03,-3.03,-3.01
347.75,-4.09,-1.09,-4.09,-1.10,1.09,0.81,1.17,-3.00,-3.00,-3.00
351.23,-4.09,-1.12,-4.09,-1.12,1.12,0.87,1.28,-2.97,-2.97,-2.97
354.74,-4.09,-1.14,-4.07,-1.13,1.16,0.93,1.39,-2.93,-2.91,-2.95
358.28,-4.09,-1.17,-4.09,-1.17,1.21,0.99,1.50,-2.88,-2.88,-2.92
361.87,-4.09,-1.19,-4.15,-1.25,1.27,1.05,1.61,-2.82,-2.88,-2.90
365.49,-4.26,-1.39,-4.22,-1.35,1.33,1.12,1.72,-2.93,-2.89,-2.87
369.14,-4.31,-1.46,-4.28,-1.43,1.40,1.18,1.83,-2.91,-2.88,-2.85
372.83,-4.32,-1.50,-4.32,-1.50,1.48,1.24,1.95,-2.85,-2.85,-2.82
376.56,-4.32,-1.52,-4.36,-1.56,1.55,1.31,2.06,-2.77,-2.80,-2.80
380.33,-4.41,-1.63,-4.42,-1.64,1.64,1.37,2.18,-2.78,-2.78,-2.78
384.13,-4.52,-1.76,-4.48,-1.72,1.72,1.44,2.29,-2.80,-2.75,-2.76
387.97,-4.55,-1.80,-4.54,-1.80,1.81,1.51,2.41,-2.74,-2.73,-2.75
391.85,-4.56,-1.82,-4.61,-1.87,1.91,1.57,2.53,-2.65,-2.70,-2.74
395.77,-4.71,-1.98,-4.71,-1.98,2.01,1.64,2.65,-2.70,-2.70,-2.73
399.73,-4.84,-2.12,-4.82,-2.10,2.11,1.71,2.76,-2.73,-2.71,-2.72
403.72,-4.96,-2.25,-4.94,-2.23,2.21,1.78,2.88,-2.75,-2.73,-2.71
407.76,-5.00,-2.30,-5.04,-2.34,2.30,1.85,3.00,-2.70,-2.74,-2.70
411.84,-5.14,-2.45,-5.13,-2.44,2.39,1.92,3.11,-2.75,-2.73,-2.69
415.96,-5.22,-2.54,-5.18,-2.50,2.48,1.99,3.23,-2.74,-2.70,-2.68
420.12,-5.23,-2.55,-5.24,-2.56,2.57,2.06,3.34,-2.66,-2.67,-2.68
