frequency,raw,error,smoothed,error_smoothed,equalization,parametric_eq,equalized_raw,equalized_smoothed,target
20,-10.51,-14.22,-10.36,-14.03,6.00,3.23,-4.51,-4.36,3.70
21,-10.05,-13.75,-9.95,-13.61,6.00,3.69,-4.05,-3.95,3.70
22,-9.60,-13.30,-9.55,-13.20,6.00,4.19,-3.60,-3.55,3.70
23,-9.09,-12.79,-9.16,-12.80,6.00,4.73,-3.09,-3.16,3.69
24,-8.68,-12.37,-8.76,-12.40,6.00,5.30,-2.68,-2.76,3.69
25,-8.26,-11.95,-8.38,-12.01,6.00,5.89,-2.26,-2.38,3.69
26,-7.91,-11.60,-8.00,-11.62,6.00,6.47,-1.91,-2.00,3.69
27,-7.38,-11.07,-7.63,-11.24,6.00,7.03,-1.38,-1.63,3.68
28,-7.10,-10.78,-7.26,-10.87,6.00,7.52,-1.10,-1.26,3.68
29,-6.86,-10.54,-6.90,-10.51,6.00,7.90,-0.86,-0.90,3.68
30,-6.43,-10.11,-6.55,-10.15,6.00,8.14,-0.43,-0.55,3.67
31,-6.25,-9.93,-6.20,-9.79,6.00,8.22,-0.25,-0.20,3.67
32,-6.18,-9.85,-5.85,-9.45,6.00,8.14,-0.18,0.15,3.67
33,-5.95,-9.62,-5.51,-9.12,6.00,7.92,0.05,0.49,3.67
34,-5.41,-9.08,-5.18,-8.80,6.00,7.59,0.59,0.82,3.67
35,-4.88,-8.55,-4.87,-8.50,6.00,7.19,1.12,1.13,3.66
36,-4.36,-8.02,-4.62,-8.21,6.00,6.76,1.64,1.38,3.66
37,-4.13,-7.79,-4.37,-7.92,6.00,6.31,1.87,1.63,3.65
38,-3.85,-7.50,-4.12,-7.64,6.00,5.86,2.15,1.88,3.65
39,-3.44,-7.08,-3.86,-7.38,6.00,5.42,2.56,2.14,3.64
40,-3.41,-7.04,-3.60,-7.11,6.00,5.01,2.59,2.40,3.63
41,-3.21,-6.83,-3.34,-6.84,6.00,4.62,2.79,2.66,3.61
42,-3.21,-6.81,-3.07,-6.57,5.96,4.25,2.75,2.89,3.60
43,-3.21,-6.79,-2.80,-6.28,5.88,3.90,2.66,3.08,3.58
44,-2.99,-6.56,-2.54,-5.98,5.75,3.58,2.76,3.21,3.56
45,-2.76,-6.31,-2.26,-5.68,5.57,3.27,2.81,3.31,3.54
46,-1.98,-5.50,-1.97,-5.36,5.33,2.99,3.35,3.37,3.52
47,-1.62,-5.12,-1.65,-5.04,5.04,2.72,3.41,3.38,3.50
48,-1.12,-4.60,-1.33,-4.69,4.69,2.47,3.57,3.37,3.48
49,-0.80,-4.26,-0.99,-4.33,4.33,2.23,3.53,3.35,3.46
50,-0.48,-3.92,-0.61,-3.97,3.97,2.01,3.49,3.37,3.43
51,0.02,-3.39,-0.24,-3.61,3.61,1.80,3.63,3.38,3.41
52,0.21,-3.18,0.12,-3.27,3.27,1.60,3.48,3.40,3.39
53,0.43,-2.94,0.45,-2.95,2.95,1.41,3.37,3.39,3.37
54,0.66,-2.69,0.74,-2.63,2.63,1.23,3.28,3.37,3.34
55,0.89,-2.43,1.00,-2.33,2.33,1.06,3.21,3.33,3.32
56,1.12,-2.18,1.23,-2.04,2.04,0.90,3.16,3.27,3.30
57,1.57,-1.70,1.48,-1.77,1.77,0.75,3.34,3.25,3.27
58,1.80,-1.45,1.70,-1.52,1.52,0.60,3.32,3.22,3.24
59,2.03,-1.19,1.93,-1.27,1.27,0.47,3.30,3.20,3.22
60,2.03,-1.16,2.14,-1.03,1.03,0.34,3.06,3.17,3.19
61,2.26,-0.90,2.34,-0.79,0.79,0.22,3.04,3.13,3.16
62,2.48,-0.65,2.57,-0.55,0.55,0.11,3.03,3.12,3.13
63,2.85,-0.25,2.78,-0.32,0.32,-0.00,3.16,3.09,3.10
64,3.04,-0.03,2.97,-0.09,0.09,-0.11,3.13,3.06,3.06
65,3.22,0.18,3.17,0.13,-0.13,-0.20,3.08,3.04,3.03
66,3.40,0.39,3.36,0.35,-0.35,-0.30,3.04,3.01,3.01
67,3.40,0.42,3.53,0.56,-0.56,-0.39,2.83,2.96,2.98
68,3.72,0.77,3.71,0.77,-0.77,-0.47,2.95,2.94,2.95
69,3.88,0.95,3.89,0.97,-0.97,-0.56,2.91,2.92,2.93
70,4.08,1.18,4.07,1.16,-1.16,-0.64,2.91,2.91,2.90
71,4.31,1.43,4.22,1.35,-1.35,-0.72,2.95,2.87,2.87
72,4.31,1.46,4.37,1.53,-1.53,-0.80,2.77,2.84,2.85
73,4.54,1.71,4.51,1.71,-1.71,-0.87,2.83,2.80,2.82
74,4.76,1.96,4.66,1.88,-1.88,-0.95,2.88,2.78,2.80
75,4.76,1.99,4.81,2.05,-2.05,-1.03,2.71,2.76,2.77
76,4.83,2.08,4.95,2.21,-2.21,-1.11,2.62,2.74,2.75
77,5.17,2.44,5.08,2.36,-2.36,-1.18,2.80,2.72,2.72
78,5.22,2.52,5.20,2.51,-2.51,-1.26,2.70,2.69,2.70
79,5.22,2.54,5.33,2.66,-2.66,-1.34,2.56,2.67,2.68
80,5.45,2.79,5.44,2.80,-2.80,-1.42,2.65,2.64,2.65
81,5.59,2.96,5.55,2.93,-2.93,-1.50,2.66,2.62,2.63
82,5.68,3.07,5.66,3.06,-3.06,-1.58,2.62,2.60,2.61
83,5.78,3.19,5.76,3.18,-3.18,-1.67,2.60,2.58,2.58
84,5.90,3.34,5.84,3.29,-3.29,-1.75,2.61,2.55,2.56
85,5.90,3.36,5.93,3.40,-3.40,-1.84,2.50,2.53,2.54
86,6.03,3.51,6.01,3.50,-3.50,-1.92,2.52,2.51,2.52
87,6.13,3.63,6.08,3.60,-3.60,-2.01,2.52,2.48,2.50
88,6.13,3.65,6.16,3.70,-3.70,-2.10,2.43,2.46,2.47
89,6.13,3.68,6.23,3.79,-3.79,-2.19,2.34,2.44,2.45
90,6.32,3.89,6.29,3.87,-3.87,-2.29,2.45,2.42,2.43
91,6.36,3.95,6.34,3.95,-3.95,-2.38,2.41,2.39,2.41
92,6.36,3.97,6.39,4.02,-4.02,-2.47,2.34,2.37,2.38
93,6.36,4.00,6.44,4.09,-4.09,-2.57,2.27,2.35,2.36
94,6.55,4.21,6.48,4.15,-4.15,-2.67,2.40,2.33,2.34
95,6.59,4.27,6.52,4.20,-4.20,-2.77,2.39,2.32,2.32
96,6.59,4.29,6.54,4.25,-4.25,-2.86,2.34,2.30,2.30
97,6.59,4.30,6.57,4.29,-4.29,-2.96,2.30,2.28,2.28
98,6.59,4.32,6.59,4.32,-4.32,-3.06,2.26,2.27,2.27
99,6.59,4.33,6.60,4.35,-4.35,-3.16,2.24,2.25,2.26
100,6.59,4.34,6.60,4.37,-4.37,-3.26,2.21,2.22,2.24
101,6.59,4.35,6.60,4.40,-4.40,-3.36,2.19,2.21,2.23
102,6.59,4.36,6.61,4.41,-4.41,-3.46,2.17,2.19,2.22
104,6.59,4.40,6.61,4.43,-4.43,-3.65,2.16,2.18,2.18
105,6.59,4.41,6.61,4.44,-4.44,-3.75,2.15,2.17,2.18
106,6.59,4.42,6.62,4.45,-4.45,-3.84,2.14,2.17,2.17
107,6.59,4.43,6.62,4.45,-4.45,-3.93,2.14,2.17,2.16
108,6.59,4.43,6.60,4.45,-4.45,-4.02,2.14,2.15,2.15
109,6.59,4.44,6.58,4.45,-4.45,-4.10,2.14,2.14,2.15
110,6.59,4.45,6.55,4.44,-4.44,-4.18,2.15,2.12,2.14
111,6.59,4.46,6.53,4.42,-4.42,-4.26,2.17,2.11,2.13
112,6.59,4.47,6.49,4.40,-4.40,-4.33,2.19,2.10,2.12
113,6.57,4.46,6.45,4.37,-4.37,-4.40,2.20,2.07,2.10
114,6.36,4.27,6.40,4.34,-4.34,-4.47,2.02,2.06,2.09
115,6.36,4.28,6.35,4.31,-4.31,-4.53,2.05,2.04,2.07
117,6.13,4.10,6.29,4.27,-4.27,-4.63,1.86,2.02,2.03
118,6.13,4.12,6.23,4.23,-4.23,-4.67,1.89,2.00,2.01
119,6.13,4.14,6.16,4.19,-4.19,-4.71,1.94,1.97,1.99
120,6.13,4.16,6.09,4.15,-4.15,-4.74,1.98,1.94,1.97
121,6.13,4.18,6.02,4.10,-4.10,-4.76,2.03,1.92,1.95
123,5.90,4.00,5.95,4.06,-4.06,-4.79,1.84,1.89,1.90
124,5.90,4.02,5.88,4.01,-4.01,-4.80,1.89,1.87,1.88
125,5.90,4.04,5.82,3.96,-3.96,-4.80,1.93,1.85,1.86
126,5.75,3.90,5.75,3.92,-3.92,-4.80,1.83,1.84,1.84
128,5.68,3.87,5.68,3.86,-3.86,-4.77,1.81,1.81,1.81
129,5.59,3.80,5.61,3.81,-3.81,-4.75,1.78,1.80,1.79
130,5.45,3.67,5.53,3.76,-3.76,-4.72,1.69,1.77,1.77
131,5.45,3.69,5.44,3.70,-3.70,-4.69,1.75,1.74,1.76
133,5.45,3.72,5.37,3.65,-3.65,-4.61,1.80,1.72,1.72
134,5.27,3.56,5.29,3.59,-3.59,-4.56,1.68,1.70,1.71
135,5.22,3.52,5.22,3.53,-3.53,-4.51,1.69,1.69,1.70
137,5.14,3.47,5.14,3.47,-3.47,-4.41,1.66,1.66,1.67
138,4.99,3.33,5.06,3.42,-3.42,-4.35,1.56,1.64,1.65
140,4.99,3.37,4.99,3.37,-3.37,-4.23,1.62,1.62,1.62
141,4.99,3.38,4.92,3.32,-3.32,-4.16,1.67,1.60,1.61
142,4.88,3.28,4.85,3.26,-3.26,-4.10,1.61,1.59,1.60
144,4.76,3.19,4.78,3.21,-3.21,-3.96,1.54,1.56,1.57
145,4.76,3.20,4.70,3.16,-3.16,-3.89,1.59,1.53,1.55
147,4.54,3.01,4.63,3.11,-3.11,-3.75,1.42,1.51,1.52
148,4.54,3.02,4.57,3.06,-3.06,-3.68,1.47,1.51,1.51
150,4.54,3.05,4.50,3.01,-3.01,-3.53,1.53,1.49,1.49
151,4.40,2.92,4.43,2.95,-2.95,-3.46,1.45,1.47,1.48
153,4.31,2.85,4.35,2.89,-2.89,-3.32,1.42,1.46,1.45
154,4.31,2.86,4.26,2.83,-2.83,-3.25,1.48,1.44,1.45
156,4.23,2.80,4.17,2.76,-2.76,-3.11,1.47,1.42,1.43
157,4.08,2.65,4.10,2.69,-2.69,-3.04,1.39,1.41,1.42
159,4.08,2.67,4.01,2.61,-2.61,-2.90,1.46,1.40,1.41
160,4.02,2.61,3.92,2.54,-2.54,-2.83,1.48,1.38,1.40
162,3.85,2.46,3.84,2.46,-2.46,-2.70,1.39,1.38,1.39
164,3.62,2.25,3.75,2.38,-2.38,-2.57,1.23,1.36,1.37
165,3.62,2.25,3.65,2.31,-2.31,-2.51,1.31,1.34,1.37
167,3.57,2.22,3.56,2.23,-2.23,-2.38,1.33,1.33,1.35
169,3.40,2.06,3.48,2.16,-2.16,-2.26,1.24,1.32,1.34
170,3.40,2.07,3.40,2.09,-2.09,-2.20,1.31,1.31,1.33
172,3.40,2.08,3.32,2.02,-2.02,-2.08,1.38,1.30,1.31
174,3.18,1.88,3.24,1.95,-1.95,-1.97,1.22,1.29,1.30
175,3.17,1.88,3.16,1.89,-1.89,-1.91,1.28,1.28,1.29
177,3.17,1.89,3.09,1.82,-1.82,-1.80,1.35,1.27,1.28
179,2.94,1.68,3.01,1.75,-1.75,-1.70,1.18,1.26,1.26
181,2.94,1.69,2.94,1.68,-1.68,-1.60,1.26,1.26,1.25
183,2.94,1.70,2.85,1.61,-1.61,-1.50,1.33,1.24,1.24
184,2.85,1.61,2.76,1.53,-1.53,-1.45,1.32,1.23,1.23
186,2.71,1.48,2.69,1.45,-1.45,-1.35,1.25,1.23,1.23
188,2.51,1.28,2.59,1.37,-1.37,-1.26,1.14,1.22,1.22
190,2.48,1.25,2.50,1.29,-1.29,-1.17,1.19,1.21,1.22
192,2.41,1.18,2.42,1.20,-1.20,-1.08,1.20,1.22,1.22
194,2.26,1.03,2.33,1.12,-1.12,-1.00,1.14,1.21,1.22
196,2.26,1.03,2.24,1.04,-1.04,-0.91,1.22,1.21,1.22
198,2.26,1.03,2.17,0.95,-0.95,-0.83,1.30,1.22,1.22
200,2.03,0.80,2.09,0.87,-0.87,-0.75,1.15,1.21,1.22
202,2.03,0.80,2.00,0.80,-0.80,-0.68,1.23,1.21,1.22
204,1.95,0.73,1.93,0.72,-0.72,-0.60,1.23,1.21,1.22
206,1.80,0.58,1.86,0.65,-0.65,-0.53,1.15,1.22,1.22
208,1.80,0.58,1.79,0.58,-0.58,-0.46,1.22,1.22,1.22
210,1.80,0.59,1.71,0.51,-0.51,-0.39,1.29,1.20,1.21
212,1.62,0.41,1.63,0.44,-0.44,-0.33,1.18,1.20,1.21
214,1.57,0.36,1.57,0.37,-0.37,-0.26,1.19,1.20,1.20
216,1.57,0.37,1.49,0.31,-0.31,-0.20,1.26,1.19,1.20
218,1.34,0.14,1.42,0.24,-0.24,-0.14,1.09,1.18,1.19
221,1.34,0.15,1.37,0.18,-0.18,-0.05,1.15,1.19,1.19
223,1.34,0.15,1.31,0.12,-0.12,0.00,1.22,1.18,1.18
225,1.20,0.01,1.24,0.06,-0.06,0.06,1.14,1.18,1.19
227,1.12,-0.07,1.19,-0.00,0.00,0.11,1.12,1.19,1.19
229,1.12,-0.08,1.12,-0.06,0.06,0.16,1.18,1.18,1.19
232,1.12,-0.08,1.05,-0.13,0.13,0.23,1.25,1.18,1.19
234,1.08,-0.12,1.00,-0.20,0.20,0.28,1.28,1.20,1.20
236,0.89,-0.32,0.93,-0.27,0.27,0.32,1.16,1.21,1.20
239,0.89,-0.32,0.87,-0.35,0.35,0.38,1.23,1.21,1.20
241,0.89,-0.32,0.80,-0.42,0.42,0.42,1.31,1.22,1.21
244,0.66,-0.55,0.72,-0.50,0.50,0.48,1.15,1.21,1.21
246,0.66,-0.56,0.63,-0.57,0.57,0.52,1.23,1.20,1.21
248,0.66,-0.56,0.55,-0.64,0.64,0.55,1.30,1.20,1.22
251,0.43,-0.79,0.48,-0.71,0.71,0.60,1.14,1.19,1.22
253,0.43,-0.80,0.42,-0.77,0.77,0.63,1.19,1.19,1.22
256,0.43,-0.80,0.37,-0.81,0.81,0.67,1.24,1.19,1.22
259,0.23,-1.00,0.34,-0.85,0.85,0.71,1.08,1.19,1.22
261,0.21,-1.02,0.32,-0.88,0.88,0.74,1.08,1.19,1.23
264,0.21,-1.02,0.30,-0.89,0.89,0.77,1.10,1.19,1.23
266,0.21,-1.02,0.30,-0.90,0.90,0.79,1.11,1.20,1.23
269,0.27,-0.96,0.31,-0.90,0.90,0.83,1.16,1.21,1.23
272,0.43,-0.80,0.32,-0.89,0.89,0.86,1.31,1.20,1.23
274,0.43,-0.81,0.34,-0.88,0.88,0.87,1.30,1.21,1.24
277,0.43,-0.81,0.36,-0.86,0.86,0.90,1.29,1.23,1.24
280,0.43,-0.82,0.38,-0.85,0.85,0.93,1.28,1.23,1.25
283,0.43,-0.83,0.40,-0.84,0.84,0.95,1.27,1.24,1.25
286,0.43,-0.84,0.43,-0.83,0.83,0.98,1.26,1.26,1.26
288,0.43,-0.85,0.45,-0.83,0.83,0.99,1.26,1.28,1.28
291,0.43,-0.86,0.46,-0.83,0.83,1.01,1.26,1.29,1.29
294,0.43,-0.87,0.46,-0.84,0.84,1.04,1.27,1.30,1.30
297,0.43,-0.89,0.45,-0.86,0.86,1.06,1.29,1.31,1.32
300,0.43,-0.91,0.43,-0.89,0.89,1.08,1.31,1.31,1.33
303,0.43,-0.92,0.41,-0.92,0.92,1.10,1.34,1.33,1.35
306,0.43,-0.94,0.40,-0.95,0.95,1.13,1.38,1.36,1.37
309,0.43,-0.96,0.39,-0.99,0.99,1.15,1.42,1.38,1.39
312,0.43,-0.98,0.37,-1.03,1.03,1.17,1.46,1.40,1.40
316,0.43,-0.99,0.34,-1.08,1.08,1.20,1.51,1.42,1.42
319,0.21,-1.23,0.31,-1.13,1.13,1.22,1.34,1.44,1.44
322,0.21,-1.25,0.27,-1.19,1.19,1.25,1.39,1.46,1.46
325,0.21,-1.27,0.23,-1.24,1.24,1.27,1.45,1.47,1.48
328,0.21,-1.29,0.19,-1.29,1.29,1.30,1.50,1.49,1.50
332,0.21,-1.31,0.15,-1.35,1.35,1.33,1.55,1.50,1.51
335,0.21,-1.33,0.11,-1.40,1.40,1.36,1.61,1.51,1.53
338,0.06,-1.50,0.09,-1.45,1.45,1.38,1.51,1.54,1.55
342,-0.02,-1.60,0.07,-1.50,1.50,1.42,1.47,1.56,1.57
345,-0.02,-1.62,0.04,-1.54,1.54,1.45,1.52,1.58,1.59
349,-0.02,-1.64,0.02,-1.58,1.58,1.49,1.56,1.60,1.61
352,-0.02,-1.66,-0.00,-1.63,1.63,1.52,1.60,1.62,1.63
356,-0.02,-1.67,-0.04,-1.67,1.67,1.56,1.65,1.63,1.65
359,-0.02,-1.69,-0.07,-1.71,1.71,1.59,1.69,1.64,1.67
363,-0.02,-1.71,-0.09,-1.75,1.75,1.63,1.73,1.66,1.68
366,-0.02,-1.72,-0.11,-1.79,1.79,1.67,1.77,1.68,1.70
370,-0.05,-1.77,-0.13,-1.83,1.83,1.71,1.78,1.71,1.72
374,-0.25,-1.98,-0.14,-1.87,1.87,1.76,1.62,1.73,1.73
377,-0.25,-2.00,-0.17,-1.92,1.92,1.79,1.67,1.75,1.74
381,-0.25,-2.01,-0.21,-1.96,1.96,1.84,1.71,1.76,1.76
385,-0.25,-2.02,-0.24,-2.01,2.01,1.89,1.75,1.76,1.77
389,-0.25,-2.04,-0.28,-2.05,2.05,1.94,1.80,1.77,1.78
393,-0.25,-2.05,-0.32,-2.10,2.10,1.98,1.84,1.78,1.79
397,-0.25,-2.06,-0.35,-2.14,2.14,2.03,1.89,1.78,1.81
401,-0.34,-2.16,-0.38,-2.18,2.18,2.08,1.83,1.79,1.81
405,-0.48,-2.31,-0.41,-2.21,2.21,2.13,1.73,1.80,1.82
409,-0.48,-2.31,-0.42,-2.24,2.24,2.18,1.76,1.82,1.83
413,-0.48,-2.32,-0.44,-2.27,2.27,2.23,1.79,1.83,1.84
417,-0.48,-2.33,-0.46,-2.29,2.29,2.28,1.81,1.84,1.84
421,-0.48,-2.33,-0.47,-2.31,2.31,2.33,1.83,1.84,1.85
425,-0.48,-2.34,-0.49,-2.33,2.33,2.37,1.85,1.84,1.85
430,-0.48,-2.34,-0.50,-2.34,2.34,2.43,1.86,1.85,1.86
434,-0.48,-2.35,-0.50,-2.36,2.36,2.48,1.87,1.85,1.87
438,-0.48,-2.36,-0.50,-2.36,2.36,2.52,1.88,1.86,1.87
443,-0.48,-2.36,-0.49,-2.37,2.37,2.58,1.89,1.88,1.88
447,-0.48,-2.37,-0.48,-2.38,2.38,2.62,1.90,1.90,1.89
451,-0.48,-2.38,-0.48,-2.39,2.39,2.66,1.90,1.90,1.90
456,-0.48,-2.39,-0.48,-2.40,2.40,2.70,1.91,1.91,1.91
460,-0.48,-2.40,-0.48,-2.41,2.41,2.74,1.92,1.92,1.92
465,-0.48,-2.41,-0.48,-2.41,2.41,2.78,1.93,1.93,1.93
470,-0.48,-2.43,-0.48,-2.43,2.43,2.82,1.94,1.94,1.94
474,-0.48,-2.44,-0.48,-2.44,2.44,2.85,1.96,1.96,1.96
479,-0.48,-2.45,-0.48,-2.45,2.45,2.88,1.97,1.97,1.97
484,-0.48,-2.47,-0.48,-2.47,2.47,2.91,1.98,1.98,1.98
489,-0.48,-2.48,-0.48,-2.48,2.48,2.93,2.00,2.00,2.00
494,-0.48,-2.50,-0.48,-2.50,2.50,2.95,2.01,2.01,2.01
499,-0.48,-2.51,-0.48,-2.51,2.51,2.97,2.03,2.03,2.03
504,-0.48,-2.53,-0.48,-2.53,2.53,2.98,2.04,2.04,2.04
509,-0.48,-2.54,-0.48,-2.54,2.54,2.99,2.06,2.06,2.06
514,-0.48,-2.56,-0.48,-2.56,2.56,3.00,2.08,2.08,2.08
519,-0.48,-2.58,-0.48,-2.57,2.57,3.00,2.09,2.09,2.09
524,-0.48,-2.60,-0.48,-2.59,2.59,3.00,2.11,2.11,2.11
529,-0.48,-2.61,-0.48,-2.61,2.61,3.00,2.13,2.13,2.13
535,-0.48,-2.63,-0.48,-2.62,2.62,2.99,2.14,2.14,2.15
540,-0.48,-2.65,-0.48,-2.64,2.64,2.99,2.16,2.16,2.17
545,-0.48,-2.67,-0.47,-2.66,2.66,2.98,2.18,2.19,2.19
551,-0.48,-2.70,-0.46,-2.69,2.69,2.97,2.20,2.22,2.21
556,-0.48,-2.72,-0.47,-2.71,2.71,2.95,2.23,2.25,2.24
562,-0.48,-2.75,-0.47,-2.74,2.74,2.94,2.26,2.27,2.26
568,-0.48,-2.77,-0.49,-2.78,2.78,2.92,2.30,2.29,2.29
573,-0.48,-2.80,-0.50,-2.82,2.82,2.91,2.34,2.32,2.32
579,-0.48,-2.83,-0.52,-2.86,2.86,2.89,2.38,2.34,2.35
585,-0.48,-2.86,-0.54,-2.91,2.91,2.87,2.43,2.37,2.38
591,-0.48,-2.89,-0.57,-2.96,2.96,2.85,2.48,2.39,2.40
596,-0.52,-2.96,-0.59,-3.01,3.01,2.84,2.49,2.42,2.43
602,-0.71,-3.17,-0.61,-3.06,3.06,2.82,2.35,2.45,2.46
608,-0.71,-3.20,-0.64,-3.11,3.11,2.80,2.40,2.47,2.49
615,-0.71,-3.22,-0.66,-3.15,3.15,2.79,2.44,2.49,2.51
621,-0.71,-3.25,-0.68,-3.20,3.20,2.77,2.48,2.51,2.53
627,-0.71,-3.27,-0.70,-3.24,3.24,2.76,2.52,2.54,2.56
633,-0.71,-3.29,-0.72,-3.27,3.27,2.75,2.56,2.56,2.58
639,-0.71,-3.31,-0.73,-3.30,3.30,2.73,2.59,2.58,2.59
646,-0.71,-3.32,-0.73,-3.33,3.33,2.72,2.62,2.60,2.61
652,-0.71,-3.34,-0.73,-3.35,3.35,2.72,2.64,2.62,2.63
659,-0.71,-3.35,-0.72,-3.37,3.37,2.71,2.65,2.64,2.64
665,-0.71,-3.37,-0.72,-3.38,3.38,2.71,2.67,2.66,2.65
672,-0.71,-3.38,-0.73,-3.40,3.40,2.70,2.68,2.67,2.67
679,-0.71,-3.40,-0.73,-3.41,3.41,2.70,2.69,2.67,2.68
686,-0.71,-3.41,-0.73,-3.41,3.41,2.71,2.70,2.68,2.70
692,-0.71,-3.42,-0.72,-3.42,3.42,2.71,2.70,2.70,2.71
699,-0.71,-3.44,-0.71,-3.42,3.42,2.71,2.71,2.71,2.73
706,-0.71,-3.45,-0.69,-3.42,3.42,2.72,2.71,2.73,2.74
713,-0.71,-3.47,-0.67,-3.42,3.42,2.73,2.71,2.75,2.76
721,-0.71,-3.49,-0.65,-3.42,3.42,2.75,2.71,2.77,2.77
728,-0.71,-3.51,-0.63,-3.42,3.42,2.76,2.71,2.80,2.79
735,-0.62,-3.44,-0.60,-3.42,3.42,2.78,2.80,2.82,2.82
742,-0.48,-3.32,-0.58,-3.42,3.42,2.79,2.94,2.85,2.84
750,-0.48,-3.35,-0.55,-3.42,3.42,2.82,2.94,2.87,2.87
757,-0.48,-3.38,-0.54,-3.43,3.43,2.84,2.95,2.89,2.90
765,-0.48,-3.41,-0.52,-3.44,3.44,2.86,2.95,2.92,2.93
773,-0.48,-3.44,-0.49,-3.45,3.45,2.89,2.96,2.95,2.95
780,-0.48,-3.47,-0.48,-3.46,3.46,2.92,2.97,2.98,2.98
788,-0.48,-3.49,-0.47,-3.46,3.46,2.95,2.98,3.00,3.01
796,-0.48,-3.51,-0.46,-3.47,3.47,2.98,2.99,3.01,3.03
804,-0.48,-3.53,-0.45,-3.48,3.48,3.01,2.99,3.03,3.05
812,-0.48,-3.55,-0.44,-3.48,3.48,3.04,3.00,3.04,3.07
820,-0.48,-3.56,-0.43,-3.48,3.48,3.08,3.00,3.05,3.08
828,-0.44,-3.53,-0.41,-3.47,3.47,3.11,3.03,3.06,3.08
837,-0.25,-3.34,-0.39,-3.47,3.47,3.15,3.21,3.08,3.09
845,-0.36,-3.46,-0.37,-3.46,3.46,3.19,3.09,3.09,3.09
853,-0.48,-3.58,-0.35,-3.44,3.44,3.22,2.96,3.10,3.10
862,-0.30,-3.40,-0.32,-3.43,3.43,3.26,3.13,3.10,3.10
871,-0.25,-3.35,-0.30,-3.41,3.41,3.30,3.16,3.11,3.09
879,-0.25,-3.35,-0.29,-3.40,3.40,3.33,3.15,3.10,3.09
888,-0.25,-3.34,-0.30,-3.38,3.38,3.36,3.13,3.09,3.09
897,-0.25,-3.35,-0.29,-3.37,3.37,3.40,3.12,3.08,3.09
906,-0.25,-3.35,-0.27,-3.36,3.36,3.43,3.10,3.08,3.10
915,-0.25,-3.36,-0.25,-3.34,3.34,3.46,3.09,3.09,3.10
924,-0.25,-3.36,-0.23,-3.33,3.33,3.48,3.07,3.10,3.11
933,-0.25,-3.37,-0.19,-3.31,3.31,3.51,3.06,3.12,3.12
943,-0.25,-3.38,-0.16,-3.30,3.30,3.53,3.04,3.13,3.13
952,-0.25,-3.40,-0.16,-3.28,3.28,3.54,3.03,3.12,3.14
962,-0.25,-3.41,-0.14,-3.27,3.27,3.56,3.01,3.13,3.15
971,-0.12,-3.29,-0.11,-3.25,3.25,3.57,3.13,3.14,3.16
981,0.15,-3.03,-0.08,-3.24,3.24,3.58,3.38,3.15,3.18
991,0.21,-2.98,-0.05,-3.22,3.22,3.58,3.43,3.17,3.19
1001,-0.02,-3.22,-0.01,-3.21,3.21,3.58,3.18,3.19,3.20
1011,-0.02,-3.24,0.02,-3.19,3.19,3.58,3.17,3.22,3.21
1021,-0.02,-3.25,0.05,-3.18,3.18,3.57,3.16,3.23,3.23
1031,-0.02,-3.27,0.07,-3.17,3.17,3.56,3.15,3.24,3.24
1041,-0.02,-3.28,0.10,-3.16,3.16,3.54,3.13,3.25,3.26
1052,0.16,-3.12,0.12,-3.14,3.14,3.52,3.30,3.27,3.28
1062,0.21,-3.08,0.14,-3.13,3.13,3.50,3.34,3.28,3.29
1073,0.21,-3.10,0.16,-3.12,3.12,3.48,3.33,3.28,3.31
1084,0.21,-3.11,0.18,-3.11,3.11,3.45,3.32,3.30,3.32
1094,0.21,-3.13,0.23,-3.10,3.10,3.42,3.31,3.33,3.34
1105,0.21,-3.15,0.28,-3.09,3.09,3.39,3.30,3.37,3.35
1116,0.21,-3.17,0.31,-3.09,3.09,3.35,3.29,3.40,3.38
1128,0.40,-3.00,0.33,-3.08,3.08,3.31,3.48,3.41,3.40
1139,0.43,-3.00,0.35,-3.08,3.08,3.27,3.51,3.43,3.42
1150,0.43,-3.02,0.37,-3.08,3.08,3.24,3.51,3.45,3.45
1162,0.43,-3.05,0.39,-3.08,3.08,3.20,3.51,3.47,3.47
1173,0.43,-3.07,0.41,-3.08,3.08,3.16,3.51,3.50,3.50
1185,0.43,-3.10,0.44,-3.09,3.09,3.12,3.51,3.53,3.53
1197,0.43,-3.13,0.46,-3.09,3.09,3.07,3.52,3.55,3.56
1209,0.43,-3.16,0.48,-3.09,3.09,3.03,3.52,3.57,3.59
1221,0.43,-3.19,0.51,-3.09,3.09,3.00,3.52,3.60,3.62
1233,0.47,-3.17,0.54,-3.08,3.08,2.96,3.55,3.62,3.64
1246,0.66,-3.01,0.56,-3.07,3.07,2.92,3.72,3.63,3.66
1258,0.66,-3.02,0.60,-3.05,3.05,2.88,3.70,3.65,3.68
1271,0.66,-3.03,0.63,-3.02,3.02,2.84,3.68,3.65,3.69
1283,0.66,-3.03,0.66,-2.99,2.99,2.81,3.65,3.65,3.69
1296,0.66,-3.03,0.71,-2.95,2.95,2.78,3.61,3.66,3.69
1309,0.67,-3.01,0.75,-2.91,2.91,2.75,3.57,3.66,3.67
1322,0.89,-2.77,0.79,-2.86,2.86,2.72,3.74,3.65,3.66
1335,0.89,-2.75,0.83,-2.80,2.80,2.69,3.69,3.63,3.64
1349,0.89,-2.73,0.87,-2.74,2.74,2.67,3.63,3.61,3.61
1362,0.89,-2.70,0.91,-2.68,2.68,2.64,3.57,3.59,3.59
1376,0.89,-2.67,0.93,-2.62,2.62,2.62,3.50,3.55,3.56
1390,0.89,-2.65,0.98,-2.55,2.55,2.60,3.44,3.53,3.54
1404,1.12,-2.40,1.04,-2.48,2.48,2.58,3.59,3.51,3.51
1418,1.12,-2.38,1.10,-2.40,2.40,2.57,3.52,3.50,3.49
1432,1.12,-2.36,1.15,-2.33,2.33,2.56,3.45,3.48,3.48
1446,1.12,-2.36,1.21,-2.26,2.26,2.55,3.38,3.47,3.47
1461,1.29,-2.19,1.27,-2.19,2.19,2.54,3.48,3.46,3.47
1475,1.34,-2.14,1.34,-2.13,2.13,2.53,3.47,3.47,3.48
1490,1.34,-2.14,1.41,-2.08,2.08,2.52,3.42,3.49,3.48
1505,1.38,-2.11,1.46,-2.05,2.05,2.52,3.43,3.51,3.48
1520,1.57,-1.92,1.50,-2.03,2.03,2.52,3.60,3.53,3.49
1535,1.57,-1.93,1.51,-2.03,2.03,2.52,3.60,3.55,3.49
1550,1.57,-1.93,1.49,-2.05,2.05,2.52,3.61,3.53,3.50
1566,1.57,-1.94,1.46,-2.08,2.08,2.53,3.64,3.54,3.51
1582,1.57,-1.95,1.41,-2.12,2.12,2.53,3.69,3.53,3.52
1597,1.57,-1.96,1.34,-2.17,2.17,2.54,3.74,3.51,3.53
1613,1.34,-2.21,1.27,-2.23,2.23,2.55,3.57,3.49,3.55
1629,1.27,-2.30,1.21,-2.28,2.28,2.56,3.55,3.50,3.56
1646,1.12,-2.47,1.17,-2.33,2.33,2.57,3.45,3.50,3.58
1662,0.97,-2.64,1.15,-2.37,2.37,2.58,3.34,3.52,3.61
1679,0.89,-2.76,1.13,-2.40,2.40,2.59,3.29,3.53,3.64
1696,0.89,-2.80,1.16,-2.41,2.41,2.60,3.30,3.57,3.69
1713,1.12,-2.62,1.22,-2.40,2.40,2.61,3.52,3.62,3.74
1730,1.18,-2.63,1.33,-2.37,2.37,2.62,3.55,3.70,3.81
1747,1.44,-2.46,1.48,-2.34,2.34,2.63,3.77,3.82,3.89
1764,1.69,-2.30,1.66,-2.29,2.29,2.64,3.97,3.94,3.99
1782,1.96,-2.13,1.84,-2.23,2.23,2.65,4.19,4.07,4.08
1800,2.03,-2.16,2.01,-2.18,2.18,2.65,4.21,4.19,4.19
1818,2.26,-2.04,2.18,-2.13,2.13,2.66,4.39,4.31,4.30
1836,2.40,-2.01,2.34,-2.09,2.09,2.66,4.49,4.43,4.41
1854,2.69,-1.83,2.49,-2.05,2.05,2.67,4.74,4.54,4.52
1873,2.94,-1.70,2.63,-2.03,2.03,2.66,4.96,4.65,4.63
1892,2.94,-1.81,2.74,-2.01,2.01,2.66,4.94,4.75,4.75
1911,2.94,-1.93,2.87,-1.99,1.99,2.65,4.93,4.86,4.86
1930,2.73,-2.25,2.98,-1.98,1.98,2.64,4.71,4.96,4.98
1949,2.72,-2.37,3.08,-1.98,1.98,2.63,4.69,5.05,5.09
1969,2.97,-2.22,3.18,-1.96,1.96,2.61,4.93,5.14,5.19
1988,3.17,-2.13,3.29,-1.94,1.94,2.60,5.11,5.23,5.29
2008,3.51,-1.88,3.40,-1.92,1.92,2.57,5.43,5.32,5.39
2028,3.62,-1.87,3.53,-1.90,1.90,2.55,5.52,5.42,5.49
