frequency,raw,smoothed,error,error_smoothed,equalization,parametric_eq,fixed_band_eq,equalized_raw,equalized_smoothed,target
20.00,0.34,0.34,-4.94,-4.94,4.93,4.14,1.45,5.27,5.27,5.28
20.20,0.38,0.39,-4.93,-4.92,4.92,4.11,1.50,5.31,5.31,5.31
20.40,0.43,0.43,-4.91,-4.91,4.91,4.08,1.54,5.35,5.34,5.34
20.61,0.47,0.47,-4.89,-4.89,4.90,4.06,1.59,5.37,5.37,5.36
20.81,0.51,0.51,-4.88,-4.88,4.88,4.03,1.64,5.39,5.39,5.39
21.02,0.55,0.55,-4.86,-4.86,4.86,4.00,1.69,5.41,5.41,5.42
21.23,0.59,0.59,-4.83,-4.84,4.83,3.98,1.74,5.42,5.42,5.43
21.44,0.63,0.63,-4.80,-4.81,4.80,3.95,1.79,5.43,5.43,5.44
21.66,0.67,0.68,-4.77,-4.77,4.76,3.92,1.85,5.44,5.44,5.45
21.87,0.72,0.72,-4.72,-4.73,4.72,3.90,1.90,5.45,5.45,5.45
22.09,0.77,0.77,-4.68,-4.68,4.68,3.87,1.96,5.45,5.45,5.46
22.31,0.82,0.82,-4.63,-4.63,4.63,3.84,2.02,5.46,5.46,5.46
22.54,0.87,0.87,-4.58,-4.58,4.58,3.81,2.08,5.45,5.45,5.45
22.76,0.92,0.92,-4.53,-4.53,4.53,3.78,2.14,5.45,5.45,5.45
22.99,0.97,0.97,-4.47,-4.47,4.48,3.75,2.21,5.45,5.45,5.44
23.22,1.02,1.02,-4.42,-4.42,4.43,3.73,2.27,5.45,5.45,5.44
23.45,1.07,1.07,-4.37,-4.37,4.38,3.70,2.34,5.45,5.45,5.44
23.69,1.12,1.12,-4.32,-4.32,4.32,3.67,2.40,5.45,5.45,5.44
23.92,1.16,1.17,-4.28,-4.28,4.27,3.64,2.47,5.44,5.44,5.44
24.16,1.21,1.21,-4.24,-4.23,4.22,3.61,2.54,5.44,5.44,5.45
24.40,1.26,1.26,-4.18,-4.18,4.17,3.58,2.61,5.44,5.44,5.45
24.65,1.31,1.32,-4.12,-4.12,4.12,3.55,2.69,5.44,5.44,5.44
24.89,1.37,1.37,-4.06,-4.07,4.07,3.52,2.76,5.44,5.44,5.44
25.14,1.42,1.42,-4.01,-4.01,4.02,3.49,2.83,5.44,5.44,5.44
25.39,1.47,1.48,-3.96,-3.96,3.96,3.46,2.91,5.44,5.44,5.43
25.65,1.52,1.52,-3.91,-3.91,3.91,3.43,2.98,5.43,5.43,5.43
25.91,1.57,1.57,-3.85,-3.85,3.85,3.39,3.05,5.43,5.43,5.42
26.16,1.62,1.62,-3.80,-3.80,3.80,3.36,3.12,5.42,5.42,5.42
26.43,1.67,1.67,-3.75,-3.75,3.75,3.33,3.20,5.42,5.42,5.42
26.69,1.72,1.73,-3.70,-3.69,3.69,3.30,3.27,5.42,5.42,5.42
26.96,1.78,1.78,-3.63,-3.64,3.64,3.27,3.34,5.42,5.42,5.42
27.23,1.83,1.83,-3.58,-3.58,3.58,3.24,3.40,5.41,5.41,5.42
27.50,1.88,1.89,-3.53,-3.52,3.52,3.21,3.47,5.40,5.41,5.42
27.77,1.94,1.94,-3.46,-3.46,3.46,3.17,3.53,5.41,5.40,5.40
28.05,2.00,2.00,-3.40,-3.40,3.40,3.14,3.59,5.41,5.40,5.40
28.33,2.05,2.06,-3.34,-3.34,3.34,3.11,3.64,5.40,5.40,5.39
28.62,2.11,2.11,-3.28,-3.28,3.28,3.08,3.70,5.40,5.39,5.39
28.90,2.16,2.16,-3.22,-3.22,3.23,3.04,3.74,5.39,5.39,5.39
29.19,2.21,2.21,-3.16,-3.17,3.17,3.01,3.79,5.38,5.38,5.38
29.48,2.26,2.26,-3.12,-3.12,3.11,2.98,3.82,5.38,5.38,5.38
29.78,2.31,2.31,-3.06,-3.06,3.06,2.95,3.85,5.37,5.37,5.37
30.08,2.36,2.36,-3.01,-3.01,3.00,2.91,3.87,5.36,5.36,5.37
30.38,2.41,2.41,-2.95,-2.95,2.95,2.88,3.89,5.36,5.36,5.36
30.68,2.46,2.46,-2.89,-2.89,2.89,2.85,3.90,5.36,5.36,5.36
30.99,2.51,2.51,-2.83,-2.83,2.84,2.81,3.91,5.35,5.35,5.34
31.30,2.56,2.56,-2.78,-2.78,2.79,2.78,3.91,5.35,5.35,5.34
31.61,2.60,2.61,-2.74,-2.73,2.74,2.75,3.90,5.34,5.34,5.34
31.93,2.64,2.64,-2.68,-2.68,2.69,2.71,3.88,5.33,5.33,5.33
32.24,2.68,2.68,-2.63,-2.64,2.64,2.68,3.86,5.32,5.32,5.32
32.57,2.71,2.72,-2.60,-2.59,2.59,2.64,3.83,5.31,5.31,5.31
32.89,2.75,2.75,-2.56,-2.55,2.55,2.61,3.80,5.30,5.30,5.31
33.22,2.79,2.79,-2.50,-2.51,2.50,2.58,3.76,5.30,5.30,5.30
33.55,2.83,2.83,-2.46,-2.46,2.46,2.54,3.71,5.29,5.29,5.29
33.89,2.87,2.87,-2.41,-2.41,2.41,2.51,3.66,5.29,5.28,5.28
34.23,2.90,2.91,-2.38,-2.37,2.37,2.47,3.60,5.27,5.28,5.28
34.57,2.94,2.94,-2.32,-2.32,2.32,2.44,3.54,5.27,5.27,5.27
34.92,2.98,2.98,-2.27,-2.28,2.28,2.40,3.48,5.26,5.26,5.25
35.27,3.01,3.02,-2.24,-2.23,2.23,2.37,3.41,5.24,5.25,5.25
35.62,3.05,3.05,-2.18,-2.18,2.18,2.33,3.34,5.24,5.24,5.24
35.97,3.08,3.09,-2.14,-2.14,2.14,2.30,3.26,5.22,5.23,5.22
36.33,3.12,3.12,-2.09,-2.09,2.10,2.26,3.18,5.22,5.22,5.22
36.70,3.15,3.15,-2.05,-2.05,2.05,2.23,3.10,5.21,5.21,5.20
37.06,3.18,3.18,-2.01,-2.01,2.01,2.20,3.02,5.19,5.19,5.19
37.43,3.21,3.21,-1.97,-1.97,1.97,2.16,2.94,5.18,5.18,5.19
37.81,3.24,3.25,-1.93,-1.92,1.92,2.12,2.86,5.17,5.17,5.17
38.19,3.28,3.28,-1.87,-1.88,1.88,2.09,2.78,5.16,5.16,5.16
38.57,3.31,3.31,-1.84,-1.84,1.84,2.05,2.69,5.15,5.15,5.15
38.95,3.34,3.35,-1.79,-1.79,1.79,2.02,2.61,5.14,5.14,5.14
39.34,3.37,3.37,-1.75,-1.75,1.75,1.98,2.53,5.12,5.12,5.12
39.74,3.40,3.40,-1.70,-1.71,1.71,1.95,2.45,5.11,5.11,5.11
40.14,3.43,3.43,-1.67,-1.67,1.67,1.91,2.36,5.10,5.10,5.10
40.54,3.46,3.46,-1.62,-1.62,1.63,1.88,2.28,5.09,5.09,5.09
40.94,3.49,3.49,-1.59,-1.58,1.58,1.84,2.20,5.08,5.08,5.08
41.35,3.52,3.52,-1.54,-1.54,1.55,1.80,2.12,5.07,5.07,5.06
41.76,3.55,3.55,-1.50,-1.50,1.50,1.77,2.04,5.06,5.06,5.06
42.18,3.58,3.59,-1.47,-1.46,1.46,1.73,1.97,5.05,5.05,5.05
42.60,3.61,3.61,-1.42,-1.43,1.42,1.70,1.89,5.04,5.04,5.04
43.03,3.64,3.64,-1.38,-1.38,1.38,1.66,1.82,5.02,5.02,5.03
43.46,3.66,3.67,-1.35,-1.34,1.34,1.62,1.74,5.00,5.00,5.01
43.90,3.69,3.69,-1.29,-1.30,1.30,1.59,1.67,4.99,4.99,4.98
44.33,3.71,3.72,-1.25,-1.25,1.25,1.55,1.60,4.97,4.97,4.97
44.78,3.74,3.74,-1.20,-1.21,1.21,1.51,1.53,4.95,4.95,4.95
45.23,3.76,3.76,-1.17,-1.16,1.17,1.48,1.46,4.93,4.93,4.93
45.68,3.78,3.79,-1.13,-1.12,1.13,1.44,1.40,4.91,4.91,4.91
46.13,3.81,3.81,-1.08,-1.09,1.09,1.40,1.33,4.90,4.90,4.89
46.60,3.83,3.83,-1.05,-1.04,1.05,1.37,1.27,4.88,4.88,4.88
47.06,3.85,3.86,-1.01,-1.01,1.00,1.33,1.20,4.86,4.86,4.86
47.53,3.88,3.88,-0.96,-0.97,0.96,1.29,1.14,4.85,4.84,4.84
48.01,3.90,3.90,-0.93,-0.92,0.92,1.25,1.08,4.82,4.82,4.83
48.49,3.92,3.92,-0.88,-0.88,0.87,1.22,1.02,4.80,4.80,4.80
48.97,3.94,3.94,-0.83,-0.83,0.83,1.18,0.96,4.77,4.77,4.77
49.46,3.96,3.96,-0.78,-0.78,0.78,1.14,0.91,4.75,4.75,4.74
49.96,3.98,3.98,-0.72,-0.73,0.73,1.10,0.85,4.72,4.72,4.71
50.46,4.00,4.00,-0.69,-0.69,0.69,1.06,0.79,4.69,4.69,4.70
50.96,4.02,4.02,-0.65,-0.64,0.64,1.03,0.74,4.67,4.67,4.67
51.47,4.04,4.04,-0.60,-0.60,0.60,0.99,0.69,4.64,4.64,4.64
51.99,4.06,4.06,-0.55,-0.56,0.56,0.95,0.63,4.62,4.62,4.62
52.51,4.08,4.08,-0.52,-0.51,0.51,0.91,0.58,4.60,4.60,4.60
53.03,4.10,4.10,-0.47,-0.47,0.47,0.87,0.53,4.58,4.58,4.58
53.56,4.12,4.12,-0.43,-0.43,0.43,0.83,0.48,4.55,4.55,4.55
54.10,4.13,4.14,-0.39,-0.39,0.39,0.79,0.43,4.52,4.53,4.53
54.64,4.15,4.15,-0.35,-0.35,0.35,0.75,0.38,4.50,4.50,4.50
55.18,4.17,4.17,-0.30,-0.31,0.31,0.71,0.34,4.48,4.48,4.48
55.74,4.18,4.19,-0.26,-0.26,0.26,0.67,0.29,4.45,4.45,4.45
56.29,4.20,4.20,-0.23,-0.23,0.22,0.63,0.24,4.43,4.43,4.43
56.86,4.21,4.22,-0.19,-0.18,0.18,0.59,0.20,4.40,4.40,4.40
57.42,4.23,4.23,-0.14,-0.14,0.15,0.55,0.15,4.38,4.38,4.37
58.00,4.25,4.25,-0.10,-0.10,0.11,0.50,0.11,4.36,4.36,4.35
58.58,4.26,4.27,-0.07,-0.07,0.07,0.46,0.06,4.33,4.34,4.33
59.16,4.28,4.28,-0.03,-0.03,0.03,0.42,0.02,4.32,4.31,4.31
59.76,4.29,4.29,0.00,0.00,-0.01,0.38,-0.02,4.28,4.28,4.29
60.35,4.30,4.31,0.04,0.04,-0.05,0.33,-0.07,4.25,4.26,4.26
60.96,4.32,4.32,0.08,0.09,-0.09,0.29,-0.11,4.23,4.23,4.24
61.57,4.33,4.33,0.14,0.13,-0.13,0.25,-0.15,4.20,4.20,4.20
62.18,4.34,4.35,0.18,0.18,-0.18,0.20,-0.19,4.17,4.17,4.16
62.80,4.36,4.36,0.23,0.23,-0.22,0.16,-0.23,4.14,4.14,4.14
63.43,4.37,4.37,0.27,0.27,-0.26,0.11,-0.27,4.11,4.11,4.10
64.07,4.38,4.39,0.31,0.31,-0.31,0.07,-0.31,4.08,4.08,4.08
64.71,4.39,4.40,0.34,0.35,-0.35,0.02,-0.36,4.05,4.05,4.05
65.35,4.41,4.41,0.39,0.39,-0.39,-0.02,-0.40,4.02,4.02,4.02
66.01,4.42,4.42,0.43,0.43,-0.43,-0.07,-0.44,3.99,3.99,3.99
66.67,4.43,4.44,0.47,0.47,-0.47,-0.12,-0.48,3.96,3.96,3.97
67.33,4.44,4.45,0.51,0.51,-0.51,-0.17,-0.52,3.93,3.93,3.94
68.01,4.46,4.46,0.56,0.55,-0.56,-0.21,-0.56,3.91,3.90,3.91
68.69,4.47,4.47,0.60,0.60,-0.60,-0.26,-0.60,3.88,3.88,3.87
69.37,4.48,4.49,0.64,0.65,-0.64,-0.31,-0.64,3.84,3.85,3.84
70.07,4.50,4.50,0.69,0.69,-0.69,-0.36,-0.68,3.82,3.81,3.81
70.77,4.51,4.51,0.73,0.73,-0.73,-0.41,-0.73,3.78,3.78,3.79
71.48,4.52,4.53,0.77,0.77,-0.78,-0.46,-0.77,3.75,3.75,3.75
72.19,4.53,4.54,0.82,0.82,-0.82,-0.51,-0.81,3.71,3.71,3.72
72.91,4.55,4.55,0.87,0.87,-0.87,-0.56,-0.86,3.68,3.68,3.68
73.64,4.56,4.56,0.92,0.92,-0.92,-0.62,-0.90,3.65,3.65,3.64
74.38,4.57,4.58,0.96,0.96,-0.96,-0.67,-0.94,3.61,3.61,3.62
75.12,4.58,4.59,1.01,1.01,-1.01,-0.72,-0.99,3.58,3.58,3.58
75.87,4.60,4.60,1.06,1.05,-1.05,-0.78,-1.04,3.55,3.55,3.55
76.63,4.61,4.61,1.10,1.10,-1.10,-0.83,-1.08,3.52,3.52,3.52
77.40,4.62,4.63,1.14,1.14,-1.14,-0.88,-1.13,3.48,3.48,3.49
78.17,4.64,4.64,1.20,1.19,-1.19,-0.94,-1.18,3.46,3.45,3.44
78.95,4.65,4.65,1.23,1.23,-1.23,-0.99,-1.23,3.42,3.42,3.42
79.74,4.66,4.67,1.28,1.28,-1.28,-1.05,-1.28,3.38,3.39,3.39
80.54,4.68,4.68,1.33,1.33,-1.33,-1.11,-1.34,3.36,3.35,3.35
81.35,4.69,4.69,1.37,1.37,-1.37,-1.16,-1.39,3.32,3.32,3.32
82.16,4.70,4.71,1.42,1.42,-1.42,-1.22,-1.44,3.28,3.29,3.28
82.98,4.72,4.72,1.47,1.47,-1.47,-1.28,-1.50,3.25,3.25,3.26
83.81,4.73,4.73,1.52,1.52,-1.52,-1.33,-1.56,3.21,3.21,3.21
84.65,4.74,4.75,1.57,1.57,-1.57,-1.39,-1.62,3.18,3.18,3.17
85.50,4.76,4.76,1.62,1.62,-1.62,-1.45,-1.68,3.15,3.14,3.14
86.35,4.77,4.77,1.67,1.67,-1.67,-1.51,-1.74,3.10,3.10,3.10
87.22,4.78,4.79,1.72,1.72,-1.72,-1.57,-1.80,3.06,3.07,3.07
88.09,4.80,4.80,1.78,1.77,-1.77,-1.63,-1.87,3.03,3.03,3.02
88.97,4.81,4.81,1.82,1.82,-1.83,-1.69,-1.93,2.99,2.99,2.99
89.86,4.82,4.83,1.87,1.88,-1.88,-1.75,-2.00,2.94,2.95,2.95
90.76,4.84,4.84,1.94,1.93,-1.94,-1.81,-2.07,2.91,2.91,2.90
91.66,4.85,4.86,1.99,2.00,-1.99,-1.87,-2.14,2.86,2.87,2.87
92.58,4.87,4.87,2.06,2.05,-2.05,-1.93,-2.21,2.83,2.82,2.81
93.51,4.88,4.88,2.10,2.10,-2.11,-1.99,-2.28,2.78,2.78,2.78
94.44,4.89,4.90,2.16,2.16,-2.16,-2.05,-2.36,2.73,2.73,2.74
95.39,4.90,4.91,2.21,2.22,-2.22,-2.11,-2.43,2.68,2.69,2.69
96.34,4.92,4.92,2.29,2.28,-2.28,-2.17,-2.51,2.64,2.64,2.64
97.30,4.93,4.93,2.34,2.34,-2.34,-2.23,-2.59,2.60,2.59,2.59
98.28,4.94,4.95,2.40,2.40,-2.40,-2.29,-2.67,2.55,2.55,2.55
99.26,4.95,4.96,2.45,2.46,-2.46,-2.35,-2.75,2.50,2.50,2.50
100.25,4.97,4.97,2.52,2.51,-2.52,-2.41,-2.83,2.46,2.45,2.46
101.25,4.98,4.98,2.57,2.58,-2.57,-2.47,-2.91,2.41,2.41,2.41
102.27,4.99,4.99,2.63,2.63,-2.63,-2.53,-2.99,2.36,2.36,2.36
103.29,5.00,5.00,2.70,2.69,-2.69,-2.59,-3.07,2.32,2.32,2.31
104.32,5.01,5.01,2.74,2.75,-2.75,-2.65,-3.16,2.27,2.27,2.27
105.37,5.02,5.02,2.80,2.80,-2.80,-2.71,-3.24,2.22,2.22,2.22
106.42,5.03,5.03,2.86,2.86,-2.86,-2.77,-3.32,2.18,2.18,2.18
107.48,5.04,5.04,2.91,2.92,-2.92,-2.83,-3.40,2.13,2.13,2.13
108.56,5.05,5.05,2.98,2.97,-2.97,-2.89,-3.48,2.08,2.08,2.08
109.64,5.06,5.06,3.03,3.03,-3.03,-2.94,-3.55,2.03,2.03,2.03
110.74,5.06,5.07,3.08,3.09,-3.09,-3.00,-3.63,1.98,1.98,1.98
111.85,5.07,5.07,3.14,3.14,-3.15,-3.06,-3.70,1.93,1.93,1.94
112.97,5.08,5.08,3.21,3.20,-3.20,-3.11,-3.77,1.88,1.88,1.87
114.10,5.08,5.09,3.26,3.26,-3.26,-3.17,-3.84,1.82,1.83,1.83
115.24,5.09,5.09,3.32,3.32,-3.32,-3.22,-3.90,1.78,1.77,1.77
116.39,5.09,5.09,3.38,3.38,-3.37,-3.28,-3.96,1.72,1.72,1.72
117.55,5.09,5.09,3.43,3.43,-3.43,-3.33,-4.01,1.67,1.67,1.66
118.73,5.09,5.09,3.48,3.48,-3.48,-3.38,-4.06,1.61,1.62,1.61
119.92,5.09,5.09,3.53,3.53,-3.53,-3.43,-4.11,1.56,1.56,1.57
121.12,5.09,5.09,3.58,3.58,-3.58,-3.48,-4.15,1.52,1.52,1.51
122.33,5.08,5.09,3.62,3.62,-3.62,-3.53,-4.18,1.46,1.47,1.46
123.55,5.08,5.08,3.66,3.66,-3.67,-3.58,-4.22,1.42,1.42,1.42
124.79,5.07,5.07,3.71,3.70,-3.71,-3.63,-4.24,1.37,1.36,1.37
126.03,5.06,5.06,3.75,3.75,-3.75,-3.68,-4.26,1.31,1.31,1.32
127.29,5.05,5.05,3.79,3.79,-3.79,-3.72,-4.27,1.26,1.26,1.27
128.57,5.04,5.04,3.84,3.83,-3.83,-3.77,-4.28,1.21,1.21,1.21
129.85,5.03,5.03,3.87,3.87,-3.87,-3.81,-4.28,1.16,1.16,1.16
131.15,5.02,5.02,3.91,3.91,-3.91,-3.85,-4.29,1.12,1.12,1.11
132.46,5.01,5.01,3.95,3.95,-3.94,-3.89,-4.28,1.07,1.07,1.06
133.79,5.00,5.00,3.98,3.98,-3.98,-3.94,-4.27,1.02,1.02,1.03
135.12,4.98,4.99,4.01,4.01,-4.01,-3.97,-4.25,0.97,0.98,0.97
136.48,4.97,4.97,4.04,4.04,-4.04,-4.01,-4.24,0.93,0.93,0.94
137.84,4.96,4.96,4.07,4.07,-4.07,-4.05,-4.21,0.89,0.89,0.89
139.22,4.94,4.95,4.10,4.10,-4.10,-4.09,-4.19,0.84,0.85,0.84
140.61,4.93,4.94,4.14,4.13,-4.13,-4.12,-4.16,0.81,0.81,0.80
142.02,4.92,4.92,4.15,4.16,-4.15,-4.15,-4.14,0.77,0.77,0.77
143.44,4.91,4.91,4.18,4.18,-4.18,-4.19,-4.11,0.74,0.73,0.73
144.87,4.89,4.90,4.20,4.20,-4.20,-4.22,-4.08,0.69,0.69,0.69
146.32,4.88,4.88,4.23,4.22,-4.23,-4.25,-4.04,0.66,0.66,0.65
147.78,4.86,4.87,4.24,4.25,-4.25,-4.28,-4.01,0.62,0.62,0.62
149.26,4.85,4.85,4.27,4.27,-4.27,-4.30,-3.98,0.59,0.58,0.59
150.75,4.83,4.83,4.29,4.29,-4.29,-4.33,-3.95,0.54,0.54,0.54
152.26,4.81,4.82,4.31,4.32,-4.31,-4.36,-3.92,0.50,0.50,0.50
153.78,4.80,4.80,4.34,4.34,-4.34,-4.38,-3.88,0.47,0.46,0.47
155.32,4.78,4.78,4.36,4.36,-4.36,-4.40,-3.86,0.42,0.42,0.42
156.88,4.76,4.77,4.38,4.38,-4.38,-4.42,-3.83,0.38,0.39,0.39
158.44,4.75,4.75,4.41,4.41,-4.41,-4.44,-3.80,0.35,0.34,0.35
160.03,4.73,4.73,4.43,4.43,-4.43,-4.46,-3.78,0.31,0.30,0.30
161.63,4.71,4.72,4.45,4.45,-4.45,-4.48,-3.75,0.26,0.26,0.26
163.24,4.69,4.70,4.47,4.47,-4.47,-4.50,-3.73,0.22,0.23,0.22
164.88,4.68,4.68,4.49,4.49,-4.49,-4.51,-3.72,0.19,0.19,0.19
166.53,4.66,4.66,4.51,4.51,-4.51,-4.52,-3.70,0.15,0.15,0.15
168.19,4.64,4.64,4.53,4.53,-4.53,-4.54,-3.69,0.12,0.12,0.11
169.87,4.62,4.62,4.55,4.54,-4.54,-4.55,-3.68,0.08,0.08,0.08
171.57,4.59,4.60,4.55,4.56,-4.56,-4.56,-3.67,0.03,0.04,0.04
173.29,4.57,4.57,4.57,4.57,-4.58,-4.57,-3.66,-0.00,-0.00,0.00
175.02,4.55,4.55,4.59,4.59,-4.59,-4.57,-3.66,-0.04,-0.04,-0.03
176.77,4.52,4.53,4.60,4.60,-4.60,-4.58,-3.66,-0.08,-0.07,-0.08
178.54,4.50,4.50,4.62,4.62,-4.61,-4.59,-3.67,-0.11,-0.11,-0.12
180.32,4.47,4.47,4.63,4.63,-4.63,-4.59,-3.67,-0.15,-0.15,-0.15
182.13,4.44,4.44,4.63,4.63,-4.63,-4.59,-3.68,-0.19,-0.19,-0.19
183.95,4.41,4.41,4.64,4.64,-4.64,-4.60,-3.70,-0.23,-0.23,-0.23
185.79,4.38,4.38,4.64,4.65,-4.65,-4.59,-3.71,-0.26,-0.26,-0.26
187.65,4.35,4.35,4.65,4.65,-4.65,-4.59,-3.73,-0.30,-0.30,-0.30
189.52,4.32,4.32,4.65,4.65,-4.65,-4.59,-3.75,-0.33,-0.33,-0.33
191.42,4.29,4.29,4.65,4.66,-4.66,-4.59,-3.77,-0.36,-0.36,-0.36
193.33,4.26,4.26,4.65,4.65,-4.65,-4.58,-3.80,-0.39,-0.39,-0.39
195.27,4.23,4.23,4.65,4.65,-4.65,-4.58,-3.82,-0.42,-0.42,-0.42
197.22,4.19,4.20,4.64,4.65,-4.64,-4.57,-3.86,-0.45,-0.45,-0.45
199.19,4.16,4.16,4.65,4.64,-4.63,-4.56,-3.89,-0.47,-0.47,-0.48
201.18,4.12,4.13,4.62,4.63,-4.62,-4.55,-3.92,-0.50,-0.50,-0.50
203.19,4.09,4.09,4.61,4.61,-4.61,-4.54,-3.95,-0.52,-0.52,-0.51
205.23,4.05,4.06,4.59,4.59,-4.59,-4.53,-3.99,-0.54,-0.54,-0.54
207.28,4.02,4.02,4.57,4.57,-4.57,-4.52,-4.03,-0.55,-0.55,-0.55
209.35,3.98,3.98,4.55,4.56,-4.55,-4.51,-4.07,-0.57,-0.57,-0.57
211.44,3.94,3.95,4.54,4.53,-4.53,-4.49,-4.11,-0.59,-0.58,-0.59
213.56,3.91,3.91,4.51,4.51,-4.51,-4.47,-4.15,-0.60,-0.60,-0.60
215.69,3.87,3.88,4.47,4.48,-4.48,-4.46,-4.19,-0.61,-0.61,-0.60
217.85,3.84,3.84,4.46,4.46,-4.46,-4.44,-4.22,-0.61,-0.62,-0.61
220.03,3.80,3.81,4.43,4.43,-4.43,-4.42,-4.26,-0.63,-0.62,-0.63
222.23,3.77,3.77,4.41,4.41,-4.40,-4.40,-4.30,-0.63,-0.63,-0.64
224.45,3.74,3.74,4.37,4.38,-4.37,-4.38,-4.33,-0.63,-0.63,-0.63
226.70,3.71,3.71,4.34,4.35,-4.34,-4.35,-4.37,-0.63,-0.63,-0.63
228.96,3.68,3.68,4.32,4.31,-4.31,-4.33,-4.40,-0.63,-0.63,-0.63
231.25,3.65,3.65,4.28,4.28,-4.28,-4.30,-4.43,-0.63,-0.63,-0.62
233.57,3.62,3.63,4.25,4.25,-4.26,-4.28,-4.45,-0.63,-0.63,-0.62
235.90,3.60,3.60,4.23,4.22,-4.23,-4.25,-4.48,-0.62,-0.62,-0.62
238.26,3.58,3.58,4.20,4.20,-4.20,-4.22,-4.49,-0.61,-0.61,-0.62
240.64,3.56,3.56,4.17,4.17,-4.17,-4.19,-4.51,-0.61,-0.61,-0.61
243.05,3.54,3.54,4.14,4.14,-4.14,-4.16,-4.52,-0.60,-0.60,-0.60
245.48,3.52,3.52,4.11,4.11,-4.12,-4.13,-4.53,-0.59,-0.59,-0.59
247.93,3.50,3.51,4.08,4.09,-4.09,-4.10,-4.53,-0.58,-0.58,-0.58
250.41,3.49,3.49,4.07,4.06,-4.06,-4.07,-4.53,-0.57,-0.56,-0.57
252.92,3.48,3.48,4.03,4.03,-4.03,-4.03,-4.52,-0.55,-0.55,-0.55
255.45,3.47,3.47,4.00,4.00,-4.00,-4.00,-4.51,-0.53,-0.53,-0.53
258.00,3.45,3.46,3.97,3.97,-3.97,-3.97,-4.49,-0.52,-0.52,-0.52
260.58,3.44,3.44,3.95,3.94,-3.94,-3.93,-4.47,-0.50,-0.50,-0.50
263.19,3.43,3.43,3.91,3.91,-3.92,-3.90,-4.45,-0.48,-0.48,-0.48
265.82,3.42,3.42,3.89,3.89,-3.89,-3.86,-4.42,-0.46,-0.46,-0.46
268.48,3.41,3.42,3.85,3.86,-3.86,-3.83,-4.39,-0.44,-0.44,-0.44
271.16,3.41,3.41,3.83,3.83,-3.83,-3.80,-4.35,-0.42,-0.42,-0.42
273.87,3.40,3.40,3.81,3.80,-3.80,-3.76,-4.32,-0.40,-0.40,-0.40
276.61,3.39,3.39,3.77,3.78,-3.78,-3.73,-4.27,-0.38,-0.38,-0.38
279.38,3.38,3.38,3.75,3.75,-3.75,-3.70,-4.23,-0.36,-0.36,-0.36
282.17,3.37,3.38,3.72,3.72,-3.72,-3.67,-4.19,-0.35,-0.35,-0.35
284.99,3.37,3.37,3.70,3.70,-3.70,-3.64,-4.14,-0.32,-0.33,-0.32
287.84,3.36,3.37,3.67,3.67,-3.67,-3.61,-4.09,-0.31,-0.31,-0.31
290.72,3.36,3.36,3.65,3.65,-3.65,-3.58,-4.05,-0.28,-0.29,-0.28
293.63,3.35,3.36,3.62,3.62,-3.62,-3.56,-4.00,-0.27,-0.27,-0.27
296.57,3.35,3.35,3.60,3.60,-3.60,-3.53,-3.95,-0.24,-0.24,-0.24
299.53,3.35,3.35,3.58,3.58,-3.57,-3.51,-3.90,-0.22,-0.22,-0.23
302.53,3.34,3.35,3.55,3.55,-3.54,-3.49,-3.85,-0.20,-0.20,-0.21
305.55,3.34,3.34,3.52,3.52,-3.52,-3.46,-3.81,-0.17,-0.18,-0.17
308.61,3.33,3.34,3.49,3.49,-3.49,-3.44,-3.76,-0.16,-0.15,-0.16
311.69,3.33,3.33,3.46,3.46,-3.46,-3.43,-3.72,-0.13,-0.13,-0.13
314.81,3.33,3.33,3.43,3.43,-3.44,-3.41,-3.67,-0.10,-0.11,-0.09
317.96,3.32,3.33,3.40,3.41,-3.41,-3.39,-3.63,-0.09,-0.08,-0.08
321.14,3.32,3.32,3.38,3.38,-3.38,-3.38,-3.59,-0.06,-0.06,-0.06
324.35,3.32,3.32,3.37,3.36,-3.36,-3.36,-3.56,-0.03,-0.04,-0.04
327.59,3.31,3.32,3.33,3.34,-3.34,-3.35,-3.52,-0.02,-0.02,-0.02
330.87,3.31,3.31,3.31,3.31,-3.31,-3.33,-3.49,0.00,0.00,0.00
334.18,3.31,3.31,3.30,3.29,-3.29,-3.32,-3.46,0.02,0.02,0.02
337.52,3.30,3.31,3.27,3.27,-3.27,-3.31,-3.43,0.03,0.04,0.04
340.90,3.30,3.30,3.24,3.24,-3.25,-3.30,-3.40,0.06,0.06,0.06
344.30,3.30,3.30,3.22,3.22,-3.22,-3.28,-3.38,0.08,0.08,0.08
347.75,3.29,3.30,3.20,3.20,-3.20,-3.27,-3.36,0.10,0.10,0.10
351.23,3.29,3.29,3.18,3.18,-3.17,-3.26,-3.34,0.12,0.12,0.12
354.74,3.28,3.28,3.15,3.15,-3.14,-3.25,-3.32,0.14,0.14,0.13
358.28,3.26,3.27,3.11,3.11,-3.11,-3.23,-3.31,0.15,0.15,0.15
361.87,3.24,3.24,3.07,3.08,-3.08,-3.22,-3.30,0.16,0.16,0.17
365.49,3.22,3.22,3.05,3.05,-3.05,-3.21,-3.29,0.18,0.18,0.18
369.14,3.20,3.21,3.02,3.02,-3.02,-3.19,-3.29,0.19,0.19,0.19
372.83,3.19,3.19,2.99,2.99,-2.99,-3.18,-3.28,0.21,0.20,0.20
376.56,3.17,3.18,2.96,2.96,-2.96,-3.16,-3.28,0.22,0.22,0.21
380.33,3.16,3.16,2.92,2.93,-2.93,-3.15,-3.28,0.23,0.23,0.24
384.13,3.15,3.15,2.90,2.91,-2.91,-3.13,-3.29,0.24,0.24,0.25
387.97,3.14,3.15,2.89,2.89,-2.89,-3.12,-3.29,0.25,0.26,0.26
391.85,3.14,3.14,2.88,2.87,-2.87,-3.10,-3.30,0.27,0.27,0.27
395.77,3.14,3.14,2.86,2.86,-2.86,-3.08,-3.31,0.28,0.28,0.28
399.73,3.14,3.15,2.85,2.86,-2.85,-3.06,-3.32,0.29,0.30,0.29
403.72,3.15,3.15,2.85,2.85,-2.85,-3.05,-3.33,0.31,0.31,0.30
407.76,3.16,3.16,2.85,2.85,-2.84,-3.03,-3.35,0.32,0.32,0.31
411.84,3.17,3.18,2.84,2.85,-2.85,-3.01,-3.36,0.33,0.33,0.33
415.96,3.19,3.19,2.86,2.85,-2.86,-2.99,-3.38,0.34,0.34,0.34
420.12,3.21,3.21,2.87,2.87,-2.87,-2.97,-3.40,0.34,0.34,0.35
424.32,3.24,3.24,2.89,2.89,-2.90,-2.95,-3.41,0.35,0.35,0.36
428.56,3.28,3.28,2.92,2.92,-2.93,-2.93,-3.43,0.35,0.35,0.36
432.85,3.33,3.33,2.96,2.96,-2.97,-2.91,-3.45,0.36,0.36,0.37
437.18,3.39,3.40,3.01,3.01,-3.02,-2.89,-3.46,0.38,0.38,0.38
441.55,3.46,3.46,3.06,3.07,-3.06,-2.87,-3.48,0.40,0.40,0.40
445.96,3.53,3.53,3.12,3.12,-3.11,-2.84,-3.49,0.42,0.42,0.41
450.42,3.59,3.59,3.17,3.17,-3.16,-2.82,-3.50,0.44,0.44,0.42
454.93,3.64,3.64,3.20,3.21,-3.20,-2.80,-3.51,0.44,0.45,0.44
459.48,3.69,3.69,3.25,3.24,-3.24,-2.78,-3.52,0.45,0.45,0.45
464.07,3.73,3.74,3.27,3.27,-3.28,-2.76,-3.53,0.46,0.46,0.47
468.71,3.78,3.78,3.30,3.30,-3.31,-2.74,-3.53,0.48,0.47,0.49
473.40,3.82,3.82,3.33,3.33,-3.33,-2.72,-3.53,0.49,0.49,0.50
478.13,3.86,3.87,3.35,3.35,-3.36,-2.69,-3.52,0.51,0.51,0.52
482.91,3.90,3.90,3.38,3.37,-3.37,-2.67,-3.51,0.53,0.53,0.52
487.74,3.93,3.93,3.39,3.39,-3.39,-2.65,-3.50,0.55,0.55,0.54
492.62,3.95,3.95,3.39,3.39,-3.39,-2.63,-3.49,0.56,0.56,0.56
497.55,3.96,3.96,3.39,3.39,-3.39,-2.61,-3.47,0.58,0.58,0.57
502.52,3.96,3.97,3.37,3.38,-3.37,-2.59,-3.44,0.59,0.59,0.59
507.55,3.96,3.96,3.36,3.36,-3.35,-2.57,-3.41,0.61,0.61,0.60
512.62,3.94,3.94,3.32,3.32,-3.32,-2.55,-3.38,0.62,0.62,0.62
517.75,3.91,3.92,3.27,3.28,-3.28,-2.53,-3.35,0.64,0.64,0.64
522.93,3.88,3.88,3.22,3.23,-3.23,-2.51,-3.31,0.66,0.66,0.66
528.16,3.84,3.84,3.17,3.17,-3.17,-2.50,-3.26,0.68,0.68,0.67
533.44,3.79,3.79,3.11,3.10,-3.10,-2.48,-3.21,0.70,0.69,0.69
538.77,3.73,3.74,3.03,3.03,-3.02,-2.46,-3.16,0.71,0.71,0.71
