frequency,raw,error,smoothed,error_smoothed,equalization,parametric_eq,fixed_band_eq,equalized_raw,equalized_smoothed,target
20.00,0.72,-4.22,0.72,-4.22,4.22,4.20,-0.72,4.94,4.94,4.94
20.20,0.90,-4.08,0.90,-4.08,4.08,4.13,-0.74,4.98,4.98,4.98
20.40,1.08,-3.94,1.08,-3.94,3.94,4.05,-0.76,5.02,5.02,5.02
20.61,1.26,-3.79,1.26,-3.79,3.79,3.96,-0.78,5.05,5.05,5.05
20.81,1.44,-3.65,1.44,-3.65,3.65,3.85,-0.80,5.09,5.08,5.09
21.02,1.62,-3.51,1.62,-3.50,3.50,3.73,-0.82,5.11,5.12,5.13
21.23,1.80,-3.35,1.80,-3.35,3.34,3.60,-0.84,5.14,5.14,5.15
21.44,1.98,-3.18,1.98,-3.19,3.19,3.45,-0.86,5.17,5.16,5.17
21.66,2.16,-3.03,2.16,-3.02,3.02,3.30,-0.89,5.18,5.18,5.18
21.87,2.34,-2.85,2.34,-2.86,2.86,3.14,-0.91,5.20,5.20,5.20
22.09,2.52,-2.69,2.52,-2.69,2.69,2.98,-0.93,5.21,5.21,5.21
22.31,2.70,-2.52,2.70,-2.52,2.52,2.81,-0.96,5.22,5.22,5.22
22.54,2.88,-2.36,2.88,-2.36,2.35,2.63,-0.98,5.23,5.23,5.23
22.76,3.06,-2.18,3.06,-2.18,2.18,2.45,-1.01,5.24,5.24,5.24
22.99,3.24,-2.01,3.24,-2.01,2.01,2.26,-1.04,5.25,5.25,5.24
23.22,3.42,-1.83,3.42,-1.84,1.84,2.08,-1.06,5.26,5.26,5.25
23.45,3.60,-1.66,3.59,-1.67,1.67,1.89,-1.09,5.27,5.27,5.26
23.69,3.77,-1.51,3.77,-1.50,1.50,1.70,-1.12,5.27,5.28,5.27
23.92,3.95,-1.33,3.95,-1.34,1.34,1.51,-1.15,5.29,5.29,5.28
24.16,4.13,-1.17,4.13,-1.18,1.17,1.33,-1.18,5.30,5.30,5.30
24.40,4.30,-1.02,4.30,-1.01,1.01,1.14,-1.21,5.31,5.31,5.32
24.65,4.48,-0.84,4.48,-0.84,0.84,0.95,-1.24,5.32,5.32,5.32
24.89,4.66,-0.67,4.66,-0.67,0.67,0.77,-1.27,5.34,5.33,5.33
25.14,4.83,-0.51,4.83,-0.51,0.51,0.59,-1.30,5.34,5.34,5.34
25.39,5.01,-0.34,5.01,-0.34,0.34,0.41,-1.33,5.36,5.35,5.35
25.65,5.18,-0.19,5.18,-0.18,0.18,0.23,-1.36,5.36,5.36,5.37
25.91,5.36,-0.01,5.36,-0.01,0.02,0.05,-1.40,5.37,5.37,5.37
26.16,5.53,0.15,5.53,0.15,-0.14,-0.12,-1.43,5.39,5.38,5.38
26.43,5.70,0.31,5.70,0.31,-0.30,-0.29,-1.47,5.39,5.39,5.39
26.69,5.86,0.46,5.86,0.46,-0.46,-0.46,-1.50,5.40,5.40,5.40
26.96,6.03,0.61,6.03,0.61,-0.62,-0.62,-1.54,5.41,5.41,5.42
27.23,6.20,0.77,6.20,0.77,-0.78,-0.79,-1.57,5.42,5.42,5.42
27.50,6.37,0.93,6.37,0.93,-0.94,-0.94,-1.61,5.43,5.43,5.43
27.77,6.53,1.10,6.53,1.09,-1.09,-1.10,-1.64,5.44,5.44,5.43
28.05,6.70,1.25,6.70,1.25,-1.25,-1.25,-1.68,5.45,5.45,5.45
28.33,6.86,1.41,6.86,1.40,-1.40,-1.40,-1.72,5.46,5.45,5.45
28.62,7.02,1.56,7.02,1.56,-1.56,-1.55,-1.75,5.46,5.46,5.46
28.90,7.18,1.71,7.18,1.71,-1.71,-1.69,-1.79,5.47,5.47,5.47
29.19,7.34,1.87,7.34,1.86,-1.86,-1.83,-1.83,5.48,5.48,5.47
29.48,7.50,2.00,7.50,2.01,-2.01,-1.97,-1.86,5.49,5.49,5.50
29.78,7.65,2.15,7.65,2.15,-2.15,-2.11,-1.90,5.50,5.50,5.50
30.08,7.81,2.30,7.80,2.29,-2.29,-2.24,-1.94,5.52,5.51,5.51
30.38,7.94,2.43,7.94,2.43,-2.43,-2.37,-1.98,5.51,5.51,5.51
30.68,8.08,2.55,8.08,2.56,-2.56,-2.50,-2.01,5.52,5.52,5.52
30.99,8.22,2.69,8.22,2.69,-2.69,-2.62,-2.05,5.52,5.52,5.52
31.30,8.36,2.83,8.35,2.82,-2.83,-2.75,-2.09,5.53,5.53,5.53
31.61,8.49,2.95,8.49,2.95,-2.95,-2.87,-2.12,5.53,5.54,5.54
31.93,8.63,3.08,8.63,3.08,-3.08,-2.99,-2.16,5.54,5.54,5.55
32.24,8.76,3.21,8.76,3.21,-3.21,-3.10,-2.20,5.55,5.55,5.55
32.57,8.90,3.33,8.90,3.34,-3.33,-3.21,-2.24,5.56,5.56,5.57
32.89,9.04,3.46,9.03,3.46,-3.46,-3.33,-2.27,5.58,5.58,5.57
33.22,9.16,3.58,9.16,3.58,-3.58,-3.43,-2.31,5.58,5.59,5.58
33.55,9.29,3.70,9.29,3.70,-3.69,-3.54,-2.35,5.60,5.60,5.59
33.89,9.41,3.81,9.41,3.81,-3.81,-3.65,-2.39,5.60,5.60,5.60
34.23,9.53,3.92,9.53,3.92,-3.92,-3.75,-2.43,5.61,5.61,5.61
34.57,9.64,4.02,9.64,4.03,-4.03,-3.85,-2.47,5.61,5.61,5.62
34.92,9.75,4.13,9.75,4.13,-4.14,-3.95,-2.51,5.61,5.61,5.61
35.27,9.86,4.23,9.86,4.24,-4.24,-4.04,-2.56,5.62,5.62,5.62
35.62,9.97,4.34,9.97,4.34,-4.34,-4.14,-2.60,5.63,5.63,5.63
35.97,10.08,4.45,10.08,4.45,-4.44,-4.23,-2.65,5.64,5.63,5.63
36.33,10.18,4.54,10.18,4.55,-4.54,-4.32,-2.69,5.64,5.64,5.64
36.70,10.28,4.64,10.28,4.64,-4.64,-4.41,-2.74,5.64,5.64,5.63
37.06,10.37,4.73,10.37,4.73,-4.73,-4.50,-2.79,5.64,5.64,5.64
37.43,10.46,4.81,10.46,4.81,-4.82,-4.58,-2.84,5.64,5.64,5.65
37.81,10.55,4.90,10.55,4.90,-4.91,-4.67,-2.90,5.64,5.64,5.65
38.19,10.63,4.98,10.63,4.98,-4.99,-4.75,-2.95,5.64,5.64,5.64
38.57,10.71,5.07,10.71,5.07,-5.07,-4.83,-3.01,5.64,5.64,5.64
38.95,10.79,5.15,10.79,5.15,-5.14,-4.91,-3.07,5.65,5.64,5.64
39.34,10.86,5.22,10.86,5.22,-5.21,-4.98,-3.13,5.64,5.64,5.64
39.74,10.92,5.29,10.92,5.29,-5.28,-5.06,-3.19,5.64,5.64,5.63
40.14,10.98,5.34,10.98,5.34,-5.35,-5.13,-3.26,5.63,5.63,5.64
40.54,11.04,5.40,11.04,5.40,-5.40,-5.20,-3.33,5.63,5.63,5.64
40.94,11.09,5.46,11.09,5.46,-5.46,-5.27,-3.40,5.63,5.63,5.63
41.35,11.14,5.51,11.14,5.51,-5.51,-5.34,-3.47,5.63,5.63,5.63
41.76,11.19,5.55,11.19,5.56,-5.55,-5.41,-3.55,5.64,5.64,5.64
42.18,11.24,5.60,11.24,5.60,-5.60,-5.47,-3.63,5.64,5.64,5.64
42.60,11.28,5.64,11.28,5.64,-5.64,-5.54,-3.71,5.64,5.64,5.64
43.03,11.32,5.68,11.32,5.68,-5.68,-5.60,-3.80,5.64,5.64,5.64
43.46,11.35,5.71,11.35,5.71,-5.72,-5.66,-3.89,5.63,5.63,5.64
43.90,11.38,5.75,11.38,5.75,-5.76,-5.72,-3.98,5.62,5.63,5.62
44.33,11.42,5.79,11.42,5.79,-5.79,-5.77,-4.07,5.63,5.62,5.63
44.78,11.45,5.82,11.45,5.83,-5.83,-5.83,-4.17,5.62,5.62,5.62
45.23,11.49,5.87,11.49,5.86,-5.86,-5.88,-4.27,5.63,5.63,5.62
45.68,11.52,5.89,11.52,5.90,-5.89,-5.93,-4.37,5.63,5.63,5.62
46.13,11.55,5.93,11.55,5.93,-5.92,-5.98,-4.48,5.63,5.63,5.62
46.60,11.58,5.95,11.58,5.95,-5.95,-6.03,-4.59,5.63,5.63,5.63
47.06,11.60,5.97,11.60,5.97,-5.97,-6.08,-4.70,5.63,5.63,5.63
47.53,11.62,6.00,11.62,5.99,-6.00,-6.12,-4.81,5.62,5.62,5.62
48.01,11.64,6.00,11.64,6.01,-6.02,-6.17,-4.93,5.62,5.62,5.63
48.49,11.66,6.04,11.66,6.04,-6.05,-6.21,-5.05,5.61,5.61,5.62
48.97,11.68,6.08,11.68,6.07,-6.07,-6.25,-5.17,5.60,5.61,5.60
49.46,11.70,6.10,11.70,6.11,-6.10,-6.29,-5.30,5.60,5.60,5.59
49.96,11.72,6.14,11.72,6.13,-6.13,-6.33,-5.42,5.59,5.59,5.58
50.46,11.73,6.15,11.73,6.16,-6.16,-6.36,-5.55,5.57,5.57,5.58
50.96,11.75,6.18,11.75,6.18,-6.18,-6.40,-5.68,5.56,5.56,5.57
51.47,11.76,6.22,11.76,6.21,-6.21,-6.43,-5.81,5.55,5.55,5.54
51.99,11.78,6.24,11.78,6.24,-6.23,-6.46,-5.94,5.54,5.54,5.53
52.51,11.79,6.25,11.79,6.26,-6.26,-6.49,-6.07,5.53,5.53,5.54
53.03,11.80,6.28,11.80,6.28,-6.28,-6.52,-6.20,5.52,5.52,5.52
53.56,11.81,6.30,11.81,6.30,-6.30,-6.54,-6.33,5.50,5.50,5.51
54.10,11.81,6.32,11.81,6.32,-6.33,-6.57,-6.46,5.48,5.49,5.49
54.64,11.82,6.34,11.82,6.35,-6.35,-6.59,-6.59,5.47,5.47,5.48
55.18,11.83,6.37,11.83,6.37,-6.37,-6.61,-6.71,5.46,5.46,5.46
55.74,11.84,6.40,11.84,6.40,-6.39,-6.63,-6.83,5.44,5.44,5.44
56.29,11.85,6.41,11.85,6.42,-6.41,-6.65,-6.95,5.43,5.43,5.43
56.86,11.85,6.44,11.85,6.44,-6.43,-6.66,-7.06,5.42,5.42,5.41
57.42,11.85,6.46,11.85,6.45,-6.45,-6.68,-7.17,5.40,5.40,5.39
58.00,11.85,6.47,11.85,6.47,-6.46,-6.69,-7.27,5.39,5.39,5.38
58.58,11.85,6.48,11.85,6.48,-6.48,-6.71,-7.36,5.37,5.37,5.37
59.16,11.85,6.50,11.84,6.49,-6.49,-6.72,-7.44,5.36,5.35,5.35
59.76,11.83,6.49,11.84,6.50,-6.51,-6.73,-7.52,5.32,5.33,5.34
60.35,11.83,6.51,11.83,6.51,-6.53,-6.74,-7.58,5.30,5.30,5.32
60.96,11.83,6.54,11.83,6.54,-6.55,-6.74,-7.64,5.28,5.28,5.29
61.57,11.83,6.57,11.83,6.57,-6.57,-6.75,-7.69,5.25,5.25,5.26
62.18,11.83,6.61,11.83,6.60,-6.60,-6.75,-7.72,5.22,5.23,5.22
62.80,11.84,6.63,11.84,6.64,-6.64,-6.76,-7.75,5.20,5.20,5.20
63.43,11.84,6.67,11.84,6.67,-6.67,-6.76,-7.76,5.17,5.17,5.17
64.07,11.85,6.71,11.85,6.70,-6.70,-6.76,-7.77,5.15,5.14,5.14
64.71,11.85,6.74,11.85,6.74,-6.73,-6.76,-7.76,5.12,5.12,5.11
65.35,11.85,6.76,11.85,6.76,-6.76,-6.76,-7.75,5.09,5.09,5.09
66.01,11.85,6.79,11.85,6.79,-6.78,-6.75,-7.72,5.06,5.06,5.06
66.67,11.84,6.80,11.84,6.81,-6.81,-6.75,-7.69,5.03,5.03,5.04
67.33,11.83,6.82,11.83,6.82,-6.82,-6.75,-7.65,5.00,5.01,5.01
68.01,11.82,6.84,11.82,6.84,-6.84,-6.74,-7.61,4.98,4.98,4.98
68.69,11.80,6.85,11.80,6.85,-6.85,-6.73,-7.55,4.95,4.95,4.95
69.37,11.78,6.86,11.78,6.86,-6.86,-6.73,-7.49,4.92,4.92,4.92
70.07,11.76,6.87,11.76,6.87,-6.87,-6.72,-7.43,4.89,4.89,4.88
70.77,11.74,6.88,11.74,6.88,-6.88,-6.71,-7.36,4.86,4.86,4.86
71.48,11.72,6.88,11.71,6.88,-6.88,-6.70,-7.29,4.84,4.83,4.84
72.19,11.69,6.88,11.69,6.88,-6.89,-6.69,-7.22,4.80,4.80,4.81
72.91,11.66,6.88,11.67,6.88,-6.89,-6.68,-7.15,4.77,4.78,4.78
73.64,11.65,6.89,11.64,6.89,-6.89,-6.66,-7.07,4.76,4.75,4.76
74.38,11.63,6.89,11.63,6.89,-6.89,-6.65,-7.00,4.74,4.74,4.74
75.12,11.61,6.89,11.61,6.89,-6.89,-6.64,-6.92,4.72,4.72,4.71
75.87,11.59,6.89,11.59,6.89,-6.89,-6.62,-6.85,4.70,4.70,4.70
76.63,11.57,6.89,11.56,6.89,-6.88,-6.61,-6.78,4.69,4.68,4.68
77.40,11.54,6.88,11.54,6.87,-6.88,-6.59,-6.71,4.66,4.66,4.66
78.17,11.51,6.86,11.51,6.87,-6.87,-6.58,-6.64,4.64,4.65,4.65
78.95,11.49,6.85,11.49,6.86,-6.86,-6.56,-6.58,4.63,4.63,4.64
79.74,11.48,6.85,11.47,6.84,-6.85,-6.55,-6.52,4.63,4.62,4.63
80.54,11.45,6.83,11.45,6.84,-6.84,-6.53,-6.46,4.61,4.61,4.62
81.35,11.43,6.82,11.43,6.83,-6.83,-6.51,-6.40,4.60,4.60,4.61
82.16,11.42,6.82,11.41,6.82,-6.82,-6.50,-6.35,4.60,4.59,4.59
82.98,11.39,6.80,11.39,6.80,-6.80,-6.48,-6.31,4.59,4.59,4.59
83.81,11.37,6.79,11.37,6.79,-6.78,-6.46,-6.26,4.59,4.59,4.58
84.65,11.33,6.76,11.33,6.76,-6.75,-6.45,-6.23,4.58,4.58,4.57
85.50,11.29,6.71,11.29,6.72,-6.71,-6.43,-6.19,4.58,4.58,4.57
86.35,11.24,6.67,11.24,6.67,-6.66,-6.41,-6.16,4.57,4.57,4.57
87.22,11.18,6.61,11.18,6.61,-6.62,-6.39,-6.14,4.56,4.56,4.57
88.09,11.12,6.56,11.12,6.55,-6.56,-6.38,-6.12,4.56,4.56,4.56
88.97,11.06,6.49,11.06,6.50,-6.50,-6.36,-6.10,4.55,4.56,4.57
89.86,11.01,6.44,11.00,6.44,-6.45,-6.34,-6.09,4.56,4.56,4.57
90.76,10.95,6.40,10.94,6.39,-6.39,-6.33,-6.08,4.56,4.56,4.55
91.66,10.88,6.32,10.88,6.33,-6.33,-6.31,-6.08,4.55,4.56,4.56
92.58,10.82,6.27,10.82,6.26,-6.27,-6.30,-6.08,4.55,4.55,4.55
93.51,10.76,6.20,10.76,6.20,-6.20,-6.28,-6.09,4.55,4.56,4.56
94.44,10.70,6.14,10.70,6.14,-6.14,-6.27,-6.10,4.56,4.56,4.56
95.39,10.64,6.08,10.63,6.08,-6.07,-6.25,-6.11,4.56,4.56,4.56
96.34,10.56,6.02,10.56,6.02,-6.01,-6.24,-6.13,4.55,4.55,4.54
97.30,10.48,5.95,10.48,5.95,-5.94,-6.22,-6.15,4.54,4.54,4.53
98.28,10.40,5.88,10.40,5.88,-5.88,-6.21,-6.18,4.52,4.52,4.52
99.26,10.33,5.82,10.33,5.81,-5.82,-6.20,-6.21,4.51,4.51,4.51
100.25,10.26,5.75,10.26,5.75,-5.76,-6.19,-6.24,4.50,4.49,4.50
101.25,10.19,5.69,10.19,5.70,-5.71,-6.18,-6.27,4.48,4.48,4.49
102.27,10.13,5.65,10.13,5.66,-5.66,-6.17,-6.31,4.47,4.47,4.48
103.29,10.09,5.63,10.09,5.63,-5.62,-6.16,-6.35,4.46,4.46,4.46
104.32,10.05,5.60,10.05,5.60,-5.59,-6.15,-6.40,4.45,4.45,4.45
105.37,10.01,5.58,10.00,5.58,-5.57,-6.14,-6.44,4.44,4.43,4.43
106.42,9.96,5.56,9.96,5.56,-5.56,-6.14,-6.49,4.40,4.40,4.40
107.48,9.92,5.54,9.92,5.55,-5.55,-6.13,-6.54,4.37,4.37,4.38
108.56,9.89,5.55,9.89,5.55,-5.56,-6.13,-6.58,4.33,4.33,4.34
109.64,9.87,5.56,9.87,5.56,-5.57,-6.12,-6.63,4.30,4.30,4.31
110.74,9.87,5.59,9.86,5.59,-5.59,-6.12,-6.68,4.28,4.27,4.28
111.85,9.86,5.62,9.86,5.62,-5.62,-6.12,-6.72,4.24,4.24,4.24
112.97,9.86,5.67,9.86,5.66,-5.66,-6.12,-6.77,4.20,4.21,4.19
114.10,9.87,5.70,9.86,5.71,-5.70,-6.13,-6.81,4.17,4.17,4.16
115.24,9.87,5.75,9.86,5.75,-5.74,-6.13,-6.85,4.13,4.12,4.12
116.39,9.86,5.79,9.86,5.79,-5.79,-6.13,-6.89,4.07,4.08,4.07
117.55,9.86,5.83,9.86,5.83,-5.83,-6.14,-6.92,4.03,4.03,4.03
118.73,9.87,5.89,9.87,5.88,-5.88,-6.15,-6.95,3.99,3.99,3.98
119.92,9.88,5.92,9.88,5.93,-5.93,-6.16,-6.97,3.95,3.95,3.96
121.12,9.90,5.99,9.89,5.98,-5.98,-6.17,-7.00,3.92,3.91,3.91
122.33,9.91,6.04,9.91,6.04,-6.04,-6.18,-7.01,3.87,3.88,3.87
123.55,9.94,6.09,9.94,6.10,-6.09,-6.19,-7.02,3.85,3.85,3.85
124.79,9.97,6.16,9.97,6.15,-6.15,-6.21,-7.03,3.81,3.81,3.81
126.03,10.00,6.22,9.99,6.22,-6.22,-6.23,-7.03,3.78,3.78,3.78
127.29,10.02,6.28,10.02,6.28,-6.28,-6.25,-7.02,3.73,3.74,3.74
128.57,10.05,6.35,10.05,6.35,-6.35,-6.27,-7.02,3.69,3.70,3.70
129.85,10.09,6.41,10.09,6.42,-6.43,-6.29,-7.00,3.66,3.67,3.67
131.15,10.15,6.51,10.14,6.50,-6.50,-6.32,-6.98,3.65,3.64,3.64
132.46,10.19,6.57,10.19,6.57,-6.57,-6.35,-6.96,3.61,3.62,3.62
133.79,10.24,6.64,10.24,6.65,-6.65,-6.37,-6.93,3.59,3.60,3.60
135.12,10.30,6.73,10.29,6.72,-6.71,-6.41,-6.90,3.59,3.58,3.57
136.48,10.33,6.78,10.33,6.79,-6.78,-6.44,-6.87,3.55,3.56,3.55
137.84,10.37,6.85,10.36,6.85,-6.83,-6.47,-6.83,3.53,3.53,3.51
139.22,10.38,6.89,10.38,6.90,-6.89,-6.51,-6.79,3.49,3.49,3.49
140.61,10.40,6.94,10.40,6.94,-6.94,-6.55,-6.75,3.46,3.46,3.46
142.02,10.43,6.98,10.43,6.98,-7.00,-6.59,-6.71,3.43,3.43,3.45
143.44,10.46,7.03,10.46,7.04,-7.05,-6.64,-6.67,3.41,3.41,3.43
144.87,10.50,7.10,10.50,7.09,-7.10,-6.68,-6.63,3.39,3.39,3.40
146.32,10.54,7.16,10.54,7.16,-7.16,-6.73,-6.58,3.38,3.38,3.38
147.78,10.58,7.22,10.58,7.22,-7.22,-6.78,-6.54,3.36,3.36,3.36
149.26,10.62,7.28,10.62,7.29,-7.28,-6.83,-6.50,3.34,3.33,3.33
150.75,10.65,7.36,10.65,7.35,-7.35,-6.88,-6.46,3.30,3.30,3.29
152.26,10.68,7.41,10.68,7.41,-7.41,-6.94,-6.43,3.27,3.27,3.26
153.78,10.71,7.47,10.71,7.47,-7.48,-7.00,-6.40,3.23,3.23,3.24
155.32,10.73,7.53,10.74,7.53,-7.54,-7.06,-6.36,3.19,3.20,3.20
156.88,10.78,7.60,10.77,7.60,-7.60,-7.12,-6.34,3.17,3.17,3.17
158.44,10.80,7.66,10.80,7.66,-7.67,-7.18,-6.31,3.13,3.13,3.14
160.03,10.83,7.73,10.83,7.72,-7.73,-7.24,-6.29,3.10,3.10,3.10
161.63,10.85,7.79,10.85,7.79,-7.79,-7.31,-6.27,3.06,3.07,3.06
163.24,10.87,7.84,10.87,7.84,-7.84,-7.38,-6.26,3.03,3.04,3.03
164.88,10.90,7.90,10.89,7.90,-7.88,-7.44,-6.25,3.02,3.01,3.00
166.53,10.90,7.94,10.90,7.93,-7.92,-7.51,-6.25,2.98,2.97,2.96
168.19,10.89,7.97,10.89,7.96,-7.96,-7.58,-6.24,2.93,2.93,2.92
169.87,10.86,7.97,10.86,7.98,-7.98,-7.65,-6.25,2.87,2.88,2.88
171.57,10.84,7.99,10.84,8.00,-8.01,-7.72,-6.26,2.83,2.83,2.85
173.29,10.82,8.02,10.82,8.02,-8.03,-7.78,-6.27,2.79,2.79,2.80
175.02,10.80,8.04,10.80,8.04,-8.04,-7.85,-6.29,2.75,2.75,2.76
176.77,10.77,8.06,10.77,8.06,-8.06,-7.92,-6.31,2.71,2.71,2.71
178.54,10.74,8.08,10.74,8.08,-8.07,-7.98,-6.34,2.67,2.67,2.66
180.32,10.70,8.08,10.70,8.09,-8.08,-8.04,-6.37,2.62,2.62,2.62
182.13,10.67,8.10,10.66,8.09,-8.09,-8.10,-6.40,2.58,2.57,2.57
183.95,10.60,8.08,10.61,8.09,-8.09,-8.16,-6.44,2.51,2.52,2.52
185.79,10.55,8.08,10.55,8.08,-8.08,-8.21,-6.49,2.47,2.47,2.47
187.65,10.49,8.08,10.49,8.07,-8.07,-8.26,-6.54,2.42,2.42,2.41
189.52,10.43,8.06,10.43,8.06,-8.06,-8.31,-6.59,2.37,2.37,2.37
191.42,10.37,8.04,10.36,8.04,-8.04,-8.35,-6.65,2.32,2.32,2.32
193.33,10.30,8.02,10.30,8.02,-8.03,-8.38,-6.72,2.27,2.27,2.28
195.27,10.23,7.99,10.23,8.00,-8.00,-8.41,-6.78,2.22,2.23,2.24
197.22,10.17,7.98,10.17,7.98,-7.98,-8.43,-6.85,2.19,2.19,2.19
199.19,10.10,7.96,10.10,7.95,-7.94,-8.45,-6.93,2.15,2.15,2.14
201.18,10.02,7.92,10.02,7.92,-7.91,-8.46,-7.00,2.11,2.11,2.10
203.19,9.94,7.87,9.93,7.87,-7.86,-8.46,-7.08,2.08,2.07,2.07
205.23,9.84,7.82,9.84,7.81,-7.82,-8.45,-7.16,2.02,2.03,2.02
207.28,9.75,7.75,9.75,7.76,-7.76,-8.44,-7.25,1.98,1.98,2.00
209.35,9.65,7.70,9.65,7.71,-7.71,-8.42,-7.33,1.94,1.94,1.95
211.44,9.56,7.66,9.56,7.65,-7.65,-8.39,-7.41,1.91,1.91,1.90
213.56,9.47,7.60,9.46,7.59,-7.59,-8.35,-7.50,1.88,1.87,1.87
215.69,9.37,7.51,9.37,7.53,-7.53,-8.31,-7.58,1.84,1.84,1.85
217.85,9.28,7.46,9.29,7.47,-7.47,-8.25,-7.66,1.81,1.82,1.82
220.03,9.21,7.43,9.20,7.42,-7.41,-8.20,-7.74,1.80,1.79,1.78
222.23,9.12,7.37,9.11,7.36,-7.35,-8.13,-7.82,1.77,1.77,1.75
224.45,9.02,7.29,9.02,7.29,-7.28,-8.06,-7.89,1.74,1.74,1.73
226.70,8.93,7.21,8.93,7.22,-7.22,-7.98,-7.96,1.70,1.71,1.72
228.96,8.85,7.16,8.85,7.16,-7.17,-7.90,-8.02,1.68,1.69,1.69
231.25,8.80,7.12,8.79,7.11,-7.12,-7.81,-8.07,1.68,1.67,1.68
233.57,8.73,7.06,8.73,7.07,-7.07,-7.72,-8.12,1.65,1.66,1.67
235.90,8.68,7.03,8.69,7.03,-7.04,-7.62,-8.15,1.64,1.65,1.65
238.26,8.66,7.01,8.65,7.01,-7.01,-7.52,-8.18,1.65,1.64,1.65
240.64,8.63,6.99,8.63,6.99,-6.99,-7.42,-8.19,1.64,1.64,1.64
243.05,8.61,6.96,8.61,6.97,-6.97,-7.32,-8.19,1.64,1.64,1.64
245.48,8.60,6.96,8.60,6.96,-6.96,-7.21,-8.18,1.64,1.64,1.64
247.93,8.59,6.94,8.59,6.95,-6.95,-7.11,-8.16,1.64,1.64,1.64
250.41,8.59,6.95,8.58,6.94,-6.94,-7.01,-8.12,1.65,1.65,1.64
252.92,8.57,6.91,8.58,6.92,-6.92,-6.90,-8.08,1.64,1.65,1.66
255.45,8.57,6.90,8.57,6.91,-6.91,-6.80,-8.01,1.66,1.66,1.67
258.00,8.57,6.89,8.56,6.89,-6.89,-6.71,-7.94,1.68,1.68,1.68
260.58,8.55,6.87,8.55,6.87,-6.86,-6.61,-7.85,1.69,1.69,1.68
263.19,8.53,6.83,8.53,6.83,-6.82,-6.52,-7.75,1.71,1.71,1.70
265.82,8.49,6.78,8.49,6.78,-6.77,-6.43,-7.64,1.72,1.72,1.70
268.48,8.45,6.72,8.45,6.72,-6.72,-6.35,-7.52,1.73,1.73,1.73
271.16,8.40,6.65,8.39,6.65,-6.65,-6.28,-7.39,1.75,1.74,1.75
273.87,8.33,6.57,8.33,6.57,-6.58,-6.21,-7.25,1.75,1.75,1.75
276.61,8.26,6.48,8.26,6.49,-6.49,-6.15,-7.10,1.77,1.77,1.78
279.38,8.19,6.40,8.19,6.40,-6.40,-6.09,-6.95,1.79,1.79,1.79
282.17,8.11,6.30,8.11,6.30,-6.30,-6.04,-6.79,1.81,1.81,1.80
284.99,8.03,6.21,8.02,6.20,-6.19,-5.99,-6.62,1.84,1.83,1.82
287.84,7.91,6.08,7.91,6.08,-6.08,-5.94,-6.45,1.83,1.83,1.83
290.72,7.80,5.95,7.80,5.96,-5.96,-5.88,-6.28,1.84,1.84,1.85
293.63,7.69,5.82,7.69,5.83,-5.83,-5.83,-6.11,1.86,1.86,1.86
296.57,7.58,5.70,7.58,5.70,-5.70,-5.76,-5.93,1.88,1.88,1.88
299.53,7.46,5.57,7.46,5.57,-5.56,-5.68,-5.75,1.90,1.90,1.89
302.53,7.33,5.43,7.33,5.42,-5.42,-5.58,-5.57,1.91,1.91,1.90
305.55,7.19,5.26,7.19,5.27,-5.28,-5.46,-5.39,1.91,1.91,1.92
308.61,7.06,5.13,7.06,5.12,-5.14,-5.32,-5.21,1.92,1.92,1.93
311.69,6.92,4.98,6.93,4.98,-4.99,-5.16,-5.03,1.93,1.94,1.94
314.81,6.82,4.85,6.81,4.85,-4.85,-4.99,-4.86,1.97,1.96,1.97
317.96,6.69,4.72,6.68,4.71,-4.70,-4.81,-4.68,1.99,1.98,1.97
321.14,6.54,4.56,6.54,4.57,-4.56,-4.63,-4.50,1.98,1.98,1.97
324.35,6.40,4.43,6.39,4.41,-4.42,-4.44,-4.33,1.98,1.98,1.97
327.59,6.24,4.25,6.26,4.27,-4.28,-4.26,-4.16,1.96,1.98,1.99
330.87,6.13,4.14,6.12,4.13,-4.14,-4.08,-3.99,1.99,1.98,1.99
334.18,6.00,4.01,5.99,4.00,-4.00,-3.90,-3.82,2.00,1.99,1.99
337.52,5.85,3.85,5.86,3.87,-3.87,-3.73,-3.65,1.98,1.99,2.00
340.90,5.74,3.73,5.73,3.73,-3.74,-3.57,-3.49,2.00,2.00,2.01
344.30,5.61,3.60,5.61,3.61,-3.61,-3.41,-3.33,2.00,2.00,2.00
347.75,5.50,3.50,5.49,3.49,-3.48,-3.26,-3.17,2.02,2.01,2.00
351.23,5.36,3.36,5.36,3.36,-3.35,-3.12,-3.01,2.00,2.01,2.00
354.74,5.24,3.24,5.23,3.24,-3.23,-2.98,-2.85,2.01,2.01,2.00
358.28,5.09,3.10,5.09,3.10,-3.09,-2.84,-2.70,1.99,1.99,1.99
361.87,4.95,2.96,4.95,2.96,-2.96,-2.71,-2.54,1.99,1.99,1.99
365.49,4.80,2.81,4.81,2.82,-2.83,-2.59,-2.39,1.97,1.98,1.99
369.14,4.67,2.69,4.67,2.69,-2.69,-2.47,-2.25,1.98,1.98,1.98
372.83,4.54,2.56,4.53,2.55,-2.56,-2.35,-2.10,1.98,1.97,1.97
376.56,4.38,2.42,4.39,2.42,-2.42,-2.23,-1.96,1.96,1.97,1.96
380.33,4.24,2.28,4.24,2.28,-2.28,-2.12,-1.81,1.96,1.96,1.96
384.13,4.10,2.15,4.10,2.15,-2.15,-2.01,-1.67,1.95,1.95,1.95
387.97,3.96,2.02,3.96,2.01,-2.01,-1.90,-1.54,1.95,1.95,1.94
391.85,3.81,1.88,3.81,1.87,-1.87,-1.80,-1.40,1.94,1.94,1.93
395.77,3.67,1.73,3.67,1.73,-1.73,-1.69,-1.27,1.93,1.93,1.94
399.73,3.52,1.59,3.52,1.59,-1.60,-1.59,-1.13,1.92,1.92,1.93
403.72,3.38,1.46,3.38,1.46,-1.46,-1.48,-1.00,1.92,1.92,1.92
407.76,3.24,1.33,3.24,1.33,-1.33,-1.38,-0.88,1.91,1.91,1.91
411.84,3.11,1.19,3.11,1.20,-1.19,-1.28,-0.75,1.91,1.91,1.92
415.96,2.98,1.07,2.97,1.06,-1.07,-1.18,-0.63,1.91,1.91,1.91
420.12,2.84,0.93,2.84,0.94,-0.94,-1.08,-0.51,1.90,1.90,1.91
424.32,2.71,0.80,2.72,0.82,-0.82,-0.97,-0.39,1.89,1.90,1.90
428.56,2.60,0.70,2.59,0.69,-0.70,-0.87,-0.27,1.90,1.89,1.89
432.85,2.48,0.59,2.47,0.58,-0.58,-0.77,-0.16,1.90,1.89,1.89
437.18,2.35,0.46,2.36,0.47,-0.47,-0.66,-0.05,1.88,1.90,1.89
441.55,2.26,0.36,2.25,0.36,-0.36,-0.56,0.05,1.90,1.90,1.90
445.96,2.16,0.26,2.15,0.25,-0.25,-0.45,0.16,1.91,1.90,1.90
450.42,2.04,0.15,2.04,0.15,-0.14,-0.35,0.25,1.90,1.90,1.89
454.93,1.94,0.04,1.94,0.04,-0.04,-0.24,0.35,1.90,1.90,1.90
459.48,1.83,-0.07,1.84,-0.06,0.06,-0.13,0.44,1.89,1.90,1.90
464.07,1.75,-0.16,1.75,-0.16,0.16,-0.02,0.52,1.91,1.91,1.91
468.71,1.67,-0.25,1.66,-0.26,0.26,0.09,0.61,1.93,1.92,1.92
473.40,1.56,-0.36,1.56,-0.36,0.36,0.21,0.68,1.92,1.92,1.92
478.13,1.47,-0.46,1.47,-0.46,0.45,0.32,0.76,1.92,1.92,1.93
482.91,1.38,-0.55,1.38,-0.55,0.54,0.43,0.82,1.92,1.93,1.93
487.74,1.31,-0.63,1.30,-0.63,0.63,0.55,0.88,1.94,1.94,1.94
492.62,1.23,-0.72,1.23,-0.72,0.72,0.66,0.94,1.95,1.95,1.95
497.55,1.15,-0.80,1.15,-0.80,0.80,0.78,0.99,1.95,1.95,1.95
502.52,1.07,-0.89,1.07,-0.88,0.89,0.89,1.04,1.95,1.96,1.96
507.55,1.00,-0.96,0.99,-0.96,0.96,1.00,1.08,1.96,1.96,1.96
512.62,0.92,-1.04,0.92,-1.04,1.04,1.11,1.12,1.95,1.96,1.96
517.75,0.85,-1.12,0.85,-1.11,1.11,1.21,1.15,1.96,1.96,1.97
522.93,0.79,-1.18,0.79,-1.18,1.18,1.31,1.18,1.97,1.96,1.97
