frequency,raw
20,3.09
21,3.69
22,4.29
23,4.94
24,5.43
25,5.97
26,6.35
27,6.74
28,7.15
29,7.49
30,7.83
31,8.12
32,8.32
33,8.61
34,8.77
35,9.00
36,9.14
37,9.34
38,9.43
39,9.60
40,9.76
41,9.88
42,9.94
43,10.02
44,10.13
45,10.24
46,10.31
47,10.36
48,10.38
49,10.45
50,10.53
51,10.59
52,10.63
53,10.66
54,10.67
55,10.73
56,10.74
57,10.77
58,10.87
59,10.87
60,10.89
61,10.95
62,10.98
63,11.06
64,11.08
65,11.11
66,11.18
67,11.18
68,11.22
69,11.25
70,11.31
71,11.27
72,11.35
73,11.34
74,11.31
75,11.41
76,11.38
77,11.46
78,11.46
79,11.49
80,11.52
81,11.50
82,11.54
83,11.55
84,11.59
85,11.61
86,11.62
87,11.64
88,11.68
89,11.68
90,11.73
91,11.70
92,11.73
93,11.73
94,11.73
95,11.73
96,11.76
97,11.73
98,11.77
99,11.80
100,11.77
101,11.78
102,11.81
104,11.82
105,11.86
106,11.87
107,11.83
108,11.83
109,11.86
110,11.87
111,11.84
112,11.83
113,11.87
114,11.88
115,11.85
117,11.88
118,11.89
119,11.88
120,11.85
121,11.85
123,11.89
124,11.88
125,11.84
126,11.87
128,11.90
129,11.89
130,11.88
131,11.87
133,11.89
134,11.87
135,11.86
137,11.88
138,11.86
140,11.91
141,11.87
142,11.83
144,11.91
145,11.89
147,11.86
148,11.83
150,11.90
151,11.89
153,11.85
154,11.83
156,11.90
157,11.88
159,11.84
160,11.80
162,11.79
164,11.83
165,11.83
167,11.79
169,11.77
170,11.76
172,11.76
174,11.73
175,11.72
177,11.69
179,11.70
181,11.68
183,11.68
184,11.66
186,11.63
188,11.61
190,11.58
192,11.56
194,11.53
196,11.50
198,11.47
200,11.44
202,11.41
204,11.38
206,11.36
208,11.33
210,11.31
212,11.30
214,11.28
216,11.25
218,11.21
221,11.17
223,11.16
225,11.14
227,11.10
229,11.08
232,11.05
234,11.02
236,11.00
239,10.95
241,10.93
244,10.90
246,10.89
248,10.89
251,10.89
253,10.89
256,10.87
259,10.82
261,10.82
264,10.75
266,10.75
269,10.75
272,10.75
274,10.75
277,10.75
280,10.75
283,10.73
286,10.72
288,10.70
291,10.66
294,10.63
297,10.63
300,10.61
303,10.60
306,10.54
309,10.53
312,10.53
316,10.46
319,10.46
322,10.45
325,10.41
328,10.38
332,10.37
335,10.38
338,10.40
342,10.42
345,10.40
349,10.38
352,10.38
356,10.37
359,10.37
363,10.37
366,10.37
370,10.37
374,10.36
377,10.34
381,10.33
385,10.30
389,10.30
393,10.30
397,10.30
401,10.33
405,10.34
409,10.37
413,10.37
417,10.36
421,10.36
425,10.33
430,10.32
434,10.29
438,10.29
443,10.28
447,10.28
451,10.28
456,10.26
460,10.19
465,10.16
470,10.12
474,10.09
479,9.98
484,9.91
489,9.84
494,9.70
499,9.63
504,9.51
509,9.32
514,9.19
519,9.02
524,8.88
529,8.69
535,8.40
540,8.23
545,8.13
551,7.80
556,7.56
562,7.37
568,7.15
573,6.98
579,6.78
585,6.53
591,6.27
596,6.13
602,5.76
608,5.43
615,5.16
621,4.89
627,4.65
633,4.41
639,4.20
646,3.96
652,3.79
659,3.54
665,3.40
672,3.28
679,3.05
686,2.92
692,2.83
699,2.72
706,2.63
713,2.54
721,2.46
728,2.39
735,2.40
742,2.37
750,2.34
757,2.35
765,2.41
773,2.42
780,2.42
788,2.49
796,2.56
804,2.59
812,2.60
820,2.62
828,2.58
837,2.54
845,2.42
853,2.29
862,2.13
871,1.91
879,1.67
888,1.38
897,1.04
906,0.75
915,0.40
924,0.20
933,0.01
943,-0.12
952,-0.20
962,-0.26
971,-0.24
981,-0.24
991,-0.13
1001,0.01
1011,0.12
1021,0.21
1031,0.32
1041,0.44
1052,0.59
1062,0.70
1073,0.87
1084,1.09
1094,1.27
1105,1.49
1116,1.69
1128,1.92
1139,2.12
1150,2.36
1162,2.59
1173,2.75
1185,3.00
1197,3.22
1209,3.37
1221,3.51
1233,3.70
1246,3.93
1258,4.13
1271,4.27
1283,4.47
1296,4.62
1309,4.72
1322,4.85
1335,4.93
1349,4.98
1362,5.05
1376,5.12
1390,5.10
1404,5.08
1418,5.04
1432,5.01
1446,4.94
1461,4.86
1475,4.72
1490,4.65
1505,4.59
1520,4.48
1535,4.37
1550,4.25
1566,4.13
1582,4.04
1597,3.94
1613,3.83
1629,3.71
1646,3.56
1662,3.45
1679,3.30
1696,3.16
1713,3.05
1730,2.91
1747,2.82
1764,2.73
1782,2.60
1800,2.52
1818,2.42
1836,2.31
1854,2.22
1873,2.10
1892,1.99
1911,1.88
1930,1.77
1949,1.69
1969,1.54
1988,1.45
2008,1.38
2028,1.33
2048,1.30
2069,1.30
2090,1.33
2111,1.37
2132,1.37
2153,1.36
2175,1.32
2196,1.29
2218,1.20
2240,1.16
2263,1.08
2285,1.01
2308,1.06
2331,1.04
2355,1.01
2378,1.09
2402,1.18
2426,1.31
2450,1.44
2475,1.62
2500,1.81
2525,1.97
2550,2.18
2575,2.38
2601,2.56
2627,2.76
2653,2.89
2680,3.07
2707,3.19
2734,3.31
2761,3.52
2789,3.65
2817,3.78
2845,4.01
2873,4.22
2902,4.46
2931,4.75
2960,5.05
2990,5.35
3020,5.62
3050,5.88
3080,6.15
3111,6.28
3142,6.36
3174,6.45
3206,6.50
3238,6.54
3270,6.65
3303,6.75
3336,6.84
3369,6.97
3403,7.11
3437,7.27
3471,7.40
3506,7.52
3541,7.69
3576,7.79
3612,7.98
3648,8.12
3685,8.31
3721,8.46
3759,8.59
3796,8.73
3834,8.90
3873,9.01
3911,9.06
3950,9.11
3990,9.09
4030,9.02
4070,8.91
4111,8.71
4152,8.49
4193,8.28
4235,8.07
4278,7.78
4321,7.57
4364,7.29
4407,7.07
4451,6.87
4496,6.61
4541,6.39
4586,6.16
4632,5.91
4679,5.71
4725,5.49
4773,5.26
4820,5.11
4868,4.96
4917,4.86
4966,4.84
5016,4.79
5066,4.81
5117,4.93
5168,5.14
5220,5.36
5272,5.59
5325,5.88
5378,6.18
5432,6.44
5486,6.66
5541,6.89
5596,7.08
5652,7.24
5709,7.33
5766,7.41
5823,7.48
5882,7.47
5940,7.47
6000,7.43
6060,7.28
6120,7.15
6182,6.94
6244,6.68
6306,6.38
6369,6.05
6433,5.72
6497,5.39
6562,5.01
6628,4.70
6694,4.42
6761,4.12
6828,3.85
6897,3.68
6966,3.55
7035,3.42
7106,3.35
7177,3.27
7249,3.23
7321,3.20
7394,3.27
7468,3.40
7543,3.58
7618,3.89
7694,4.25
7771,4.74
7849,5.22
7928,5.76
8007,6.40
8087,7.15
8168,7.98
8250,8.63
8332,9.32
8415,10.04
8499,10.72
8584,11.30
8670,11.79
8757,11.93
8845,11.97
8933,11.93
9022,11.76
9113,11.47
9204,10.98
9296,10.23
9389,9.39
9483,8.68
9577,8.14
9673,7.67
9770,7.39
9868,7.17
9966,6.95
10066,6.70
10167,6.42
10268,6.07
10371,5.56
10475,4.97
10579,4.40
10685,3.80
10792,3.20
10900,2.51
11009,1.91
11119,1.41
11230,1.06
11343,0.88
11456,0.71
11571,0.48
11686,0.55
11803,1.08
11921,2.00
12040,2.86
12161,3.71
12282,4.51
12405,4.87
12529,4.91
12655,4.22
12781,3.40
12909,2.74
13038,2.00
13168,1.20
13300,0.45
13433,-0.19
13567,-0.77
13703,-1.35
13840,-1.83
13978,-2.07
14118,-2.13
14259,-2.00
14402,-1.73
14546,-1.42
14692,-1.11
14838,-0.91
14987,-0.84
15137,-0.98
15288,-1.37
15441,-1.95
15595,-2.72
15751,-3.55
15909,-4.39
16068,-5.25
16229,-6.13
16391,-6.98
16555,-7.86
16720,-8.55
16888,-9.09
17056,-9.37
17227,-9.33
17399,-9.07
17573,-8.61
17749,-8.13
17926,-7.63
18106,-7.23
18287,-6.94
18470,-6.81
18654,-6.82
18841,-6.88
19029,-6.98
19220,-7.11
19412,-7.15
19606,-7.21
19802,-7.27
20000,-7.33
