frequency,raw,error,smoothed,error_smoothed,equalization,parametric_eq,fixed_band_eq,equalized_raw,equalized_smoothed,target
20.00,4.66,0.80,4.65,0.80,-0.80,-0.89,-0.62,3.86,3.86,3.86
20.20,4.67,0.82,4.67,0.82,-0.83,-0.90,-0.64,3.84,3.84,3.85
20.40,4.69,0.85,4.68,0.85,-0.85,-0.91,-0.66,3.83,3.83,3.84
20.61,4.70,0.87,4.70,0.88,-0.88,-0.92,-0.68,3.82,3.82,3.83
20.81,4.72,0.91,4.71,0.91,-0.90,-0.92,-0.69,3.81,3.81,3.80
21.02,4.73,0.93,4.73,0.93,-0.93,-0.93,-0.71,3.80,3.80,3.79
21.23,4.74,0.95,4.74,0.95,-0.95,-0.94,-0.73,3.79,3.79,3.78
21.44,4.76,0.96,4.75,0.97,-0.97,-0.95,-0.75,3.79,3.78,3.79
21.66,4.77,0.99,4.76,0.99,-0.99,-0.96,-0.78,3.77,3.77,3.77
21.87,4.78,1.00,4.78,1.01,-1.01,-0.97,-0.80,3.76,3.77,3.77
22.09,4.79,1.03,4.79,1.03,-1.03,-0.98,-0.82,3.76,3.76,3.75
22.31,4.81,1.05,4.80,1.05,-1.05,-0.99,-0.84,3.76,3.75,3.75
22.54,4.82,1.07,4.82,1.07,-1.07,-1.00,-0.86,3.75,3.75,3.74
22.76,4.83,1.09,4.83,1.09,-1.09,-1.01,-0.89,3.74,3.74,3.74
22.99,4.84,1.11,4.84,1.11,-1.11,-1.02,-0.91,3.73,3.73,3.73
23.22,4.85,1.13,4.85,1.12,-1.13,-1.03,-0.94,3.72,3.72,3.72
23.45,4.87,1.14,4.86,1.14,-1.14,-1.04,-0.96,3.72,3.72,3.73
23.69,4.88,1.16,4.88,1.16,-1.16,-1.05,-0.99,3.72,3.72,3.72
23.92,4.90,1.19,4.89,1.18,-1.17,-1.06,-1.02,3.72,3.72,3.71
24.16,4.91,1.19,4.91,1.19,-1.19,-1.07,-1.04,3.72,3.72,3.72
24.40,4.92,1.20,4.92,1.20,-1.20,-1.09,-1.07,3.71,3.71,3.72
24.65,4.93,1.21,4.93,1.21,-1.22,-1.10,-1.10,3.71,3.71,3.72
24.89,4.94,1.22,4.94,1.23,-1.23,-1.11,-1.13,3.70,3.71,3.72
25.14,4.96,1.25,4.95,1.25,-1.24,-1.12,-1.16,3.71,3.71,3.70
25.39,4.97,1.26,4.97,1.26,-1.26,-1.13,-1.19,3.71,3.71,3.70
25.65,4.98,1.27,4.98,1.27,-1.27,-1.15,-1.21,3.71,3.71,3.70
25.91,4.99,1.28,4.99,1.28,-1.28,-1.16,-1.24,3.71,3.71,3.70
26.16,5.00,1.29,5.00,1.29,-1.29,-1.17,-1.27,3.71,3.71,3.71
26.43,5.01,1.30,5.01,1.30,-1.30,-1.18,-1.30,3.70,3.70,3.71
26.69,5.02,1.31,5.02,1.31,-1.31,-1.20,-1.33,3.71,3.71,3.71
26.96,5.03,1.32,5.03,1.32,-1.32,-1.21,-1.36,3.71,3.71,3.71
27.23,5.04,1.33,5.04,1.33,-1.33,-1.22,-1.39,3.71,3.71,3.71
27.50,5.05,1.34,5.05,1.34,-1.33,-1.24,-1.42,3.71,3.71,3.71
27.77,5.06,1.34,5.06,1.34,-1.34,-1.25,-1.45,3.71,3.71,3.71
28.05,5.07,1.35,5.07,1.35,-1.35,-1.27,-1.47,3.72,3.71,3.71
28.33,5.08,1.35,5.08,1.36,-1.36,-1.28,-1.50,3.72,3.72,3.72
28.62,5.09,1.36,5.09,1.37,-1.37,-1.30,-1.53,3.72,3.72,3.72
28.90,5.11,1.38,5.10,1.38,-1.37,-1.31,-1.55,3.73,3.73,3.73
29.19,5.12,1.39,5.11,1.38,-1.38,-1.33,-1.58,3.73,3.73,3.73
29.48,5.12,1.39,5.12,1.39,-1.39,-1.34,-1.60,3.72,3.73,3.73
29.78,5.13,1.40,5.13,1.40,-1.41,-1.36,-1.62,3.72,3.72,3.73
30.08,5.14,1.41,5.14,1.41,-1.42,-1.37,-1.64,3.72,3.72,3.72
30.38,5.15,1.43,5.15,1.43,-1.43,-1.39,-1.66,3.72,3.72,3.71
30.68,5.16,1.45,5.16,1.44,-1.44,-1.41,-1.68,3.72,3.72,3.71
30.99,5.17,1.46,5.16,1.45,-1.45,-1.42,-1.70,3.71,3.71,3.71
31.30,5.17,1.46,5.17,1.46,-1.46,-1.44,-1.72,3.70,3.70,3.71
31.61,5.18,1.47,5.17,1.47,-1.48,-1.46,-1.73,3.70,3.70,3.70
31.93,5.18,1.49,5.18,1.49,-1.49,-1.47,-1.74,3.69,3.69,3.68
32.24,5.19,1.50,5.19,1.50,-1.50,-1.49,-1.76,3.68,3.68,3.69
32.57,5.20,1.52,5.20,1.52,-1.52,-1.51,-1.77,3.68,3.68,3.68
32.89,5.21,1.53,5.21,1.53,-1.53,-1.53,-1.78,3.68,3.68,3.68
33.22,5.22,1.54,5.22,1.54,-1.54,-1.54,-1.79,3.67,3.67,3.67
33.55,5.23,1.56,5.23,1.56,-1.56,-1.56,-1.79,3.67,3.67,3.67
33.89,5.24,1.58,5.23,1.57,-1.57,-1.58,-1.80,3.66,3.66,3.66
34.23,5.24,1.59,5.24,1.59,-1.59,-1.60,-1.81,3.65,3.65,3.65
34.57,5.25,1.60,5.25,1.61,-1.60,-1.62,-1.81,3.65,3.65,3.64
34.92,5.26,1.63,5.25,1.62,-1.61,-1.64,-1.82,3.64,3.64,3.63
35.27,5.27,1.62,5.26,1.63,-1.63,-1.66,-1.82,3.64,3.63,3.65
35.62,5.27,1.64,5.27,1.64,-1.65,-1.68,-1.83,3.62,3.62,3.62
35.97,5.28,1.66,5.27,1.65,-1.66,-1.70,-1.83,3.61,3.61,3.62
36.33,5.28,1.67,5.28,1.68,-1.68,-1.72,-1.84,3.60,3.60,3.61
36.70,5.29,1.70,5.28,1.70,-1.69,-1.74,-1.85,3.59,3.59,3.58
37.06,5.29,1.72,5.29,1.71,-1.71,-1.76,-1.85,3.58,3.57,3.57
37.43,5.29,1.73,5.29,1.73,-1.73,-1.78,-1.86,3.56,3.56,3.56
37.81,5.29,1.74,5.29,1.75,-1.74,-1.81,-1.86,3.54,3.54,3.54
38.19,5.29,1.77,5.28,1.76,-1.76,-1.83,-1.87,3.53,3.52,3.52
38.57,5.28,1.77,5.28,1.77,-1.78,-1.85,-1.88,3.50,3.50,3.50
38.95,5.28,1.79,5.27,1.79,-1.79,-1.87,-1.89,3.49,3.48,3.49
39.34,5.27,1.80,5.27,1.80,-1.80,-1.90,-1.90,3.46,3.46,3.46
39.74,5.27,1.83,5.26,1.82,-1.82,-1.92,-1.91,3.45,3.44,3.44
40.14,5.26,1.83,5.26,1.83,-1.84,-1.94,-1.92,3.42,3.42,3.42
40.54,5.26,1.85,5.26,1.85,-1.85,-1.97,-1.94,3.40,3.40,3.41
40.94,5.26,1.87,5.26,1.87,-1.87,-1.99,-1.95,3.39,3.39,3.38
41.35,5.26,1.89,5.26,1.89,-1.89,-2.01,-1.97,3.37,3.37,3.37
41.76,5.26,1.91,5.26,1.91,-1.91,-2.04,-1.99,3.35,3.35,3.34
42.18,5.26,1.92,5.26,1.92,-1.93,-2.06,-2.00,3.33,3.33,3.34
42.60,5.26,1.95,5.26,1.94,-1.94,-2.09,-2.03,3.31,3.31,3.31
43.03,5.26,1.96,5.26,1.96,-1.96,-2.11,-2.05,3.29,3.29,3.29
43.46,5.26,1.99,5.26,1.99,-1.99,-2.14,-2.07,3.27,3.27,3.27
43.90,5.26,2.01,5.26,2.01,-2.01,-2.16,-2.10,3.25,3.25,3.25
44.33,5.26,2.03,5.26,2.03,-2.03,-2.19,-2.12,3.23,3.23,3.22
44.78,5.26,2.05,5.26,2.05,-2.05,-2.22,-2.15,3.20,3.20,3.21
45.23,5.26,2.07,5.26,2.08,-2.08,-2.24,-2.18,3.18,3.18,3.19
45.68,5.26,2.11,5.26,2.10,-2.10,-2.27,-2.21,3.15,3.15,3.15
46.13,5.26,2.14,5.26,2.13,-2.13,-2.30,-2.25,3.12,3.12,3.12
46.60,5.26,2.16,5.26,2.16,-2.16,-2.32,-2.28,3.09,3.09,3.09
47.06,5.26,2.19,5.26,2.19,-2.20,-2.35,-2.32,3.06,3.06,3.06
47.53,5.26,2.22,5.26,2.23,-2.23,-2.38,-2.35,3.02,3.02,3.03
48.01,5.26,2.27,5.26,2.27,-2.27,-2.41,-2.39,2.99,2.99,2.98
48.49,5.26,2.30,5.26,2.30,-2.30,-2.44,-2.43,2.95,2.95,2.95
48.97,5.26,2.34,5.26,2.34,-2.34,-2.46,-2.47,2.91,2.91,2.91
49.46,5.26,2.38,5.26,2.38,-2.38,-2.49,-2.52,2.88,2.88,2.88
49.96,5.26,2.43,5.26,2.42,-2.41,-2.52,-2.56,2.84,2.84,2.83
50.46,5.26,2.45,5.26,2.45,-2.45,-2.55,-2.60,2.81,2.81,2.81
50.96,5.26,2.48,5.26,2.48,-2.48,-2.58,-2.65,2.77,2.77,2.78
51.47,5.26,2.51,5.26,2.52,-2.52,-2.61,-2.70,2.74,2.74,2.74
51.99,5.26,2.56,5.26,2.55,-2.55,-2.64,-2.74,2.71,2.71,2.70
52.51,5.26,2.58,5.26,2.58,-2.58,-2.67,-2.79,2.68,2.68,2.68
53.03,5.26,2.60,5.26,2.61,-2.61,-2.70,-2.84,2.64,2.64,2.65
53.56,5.26,2.64,5.26,2.64,-2.65,-2.73,-2.88,2.61,2.61,2.62
54.10,5.26,2.68,5.26,2.68,-2.68,-2.77,-2.93,2.58,2.58,2.57
54.64,5.26,2.71,5.26,2.71,-2.71,-2.80,-2.98,2.55,2.55,2.55
55.18,5.26,2.75,5.26,2.75,-2.74,-2.83,-3.03,2.51,2.51,2.51
55.74,5.26,2.78,5.26,2.77,-2.77,-2.86,-3.07,2.48,2.48,2.47
56.29,5.26,2.80,5.26,2.80,-2.80,-2.89,-3.12,2.45,2.45,2.46
56.86,5.26,2.83,5.26,2.83,-2.83,-2.92,-3.16,2.43,2.43,2.43
57.42,5.26,2.86,5.26,2.86,-2.86,-2.96,-3.20,2.40,2.40,2.39
58.00,5.26,2.89,5.26,2.89,-2.88,-2.99,-3.24,2.37,2.37,2.36
58.58,5.26,2.91,5.26,2.91,-2.91,-3.02,-3.28,2.34,2.34,2.34
59.16,5.26,2.93,5.26,2.94,-2.94,-3.05,-3.32,2.31,2.31,2.32
59.76,5.26,2.96,5.26,2.97,-2.98,-3.09,-3.35,2.28,2.28,2.29
60.35,5.26,3.01,5.26,3.01,-3.02,-3.12,-3.39,2.24,2.24,2.25
60.96,5.26,3.05,5.26,3.05,-3.05,-3.15,-3.42,2.20,2.20,2.21
61.57,5.26,3.10,5.26,3.10,-3.10,-3.19,-3.44,2.16,2.16,2.16
62.18,5.26,3.14,5.26,3.15,-3.14,-3.22,-3.47,2.12,2.12,2.11
62.80,5.26,3.19,5.26,3.19,-3.18,-3.26,-3.49,2.07,2.07,2.07
63.43,5.26,3.23,5.26,3.23,-3.23,-3.29,-3.51,2.03,2.03,2.02
64.07,5.26,3.27,5.26,3.27,-3.27,-3.32,-3.53,1.99,1.99,1.99
64.71,5.26,3.31,5.26,3.31,-3.31,-3.36,-3.54,1.95,1.95,1.95
65.35,5.26,3.34,5.26,3.34,-3.35,-3.39,-3.56,1.91,1.91,1.91
66.01,5.26,3.38,5.26,3.38,-3.38,-3.43,-3.57,1.87,1.87,1.87
66.67,5.26,3.41,5.26,3.42,-3.42,-3.46,-3.58,1.84,1.84,1.85
67.33,5.26,3.46,5.26,3.46,-3.45,-3.50,-3.59,1.80,1.80,1.80
68.01,5.26,3.49,5.26,3.49,-3.49,-3.53,-3.59,1.77,1.77,1.76
68.69,5.26,3.53,5.25,3.53,-3.52,-3.57,-3.60,1.73,1.73,1.72
69.37,5.25,3.55,5.25,3.56,-3.56,-3.60,-3.60,1.69,1.69,1.69
70.07,5.24,3.59,5.24,3.59,-3.60,-3.64,-3.60,1.64,1.64,1.65
70.77,5.24,3.63,5.23,3.63,-3.63,-3.67,-3.61,1.60,1.60,1.60
71.48,5.24,3.67,5.23,3.67,-3.67,-3.71,-3.61,1.56,1.56,1.57
72.19,5.24,3.71,5.24,3.72,-3.72,-3.75,-3.61,1.52,1.52,1.52
72.91,5.25,3.77,5.24,3.76,-3.76,-3.78,-3.61,1.48,1.48,1.48
73.64,5.26,3.82,5.25,3.82,-3.81,-3.82,-3.62,1.44,1.44,1.44
74.38,5.27,3.86,5.27,3.86,-3.86,-3.85,-3.62,1.40,1.41,1.40
75.12,5.29,3.91,5.28,3.91,-3.92,-3.89,-3.63,1.37,1.37,1.37
75.87,5.31,3.96,5.30,3.96,-3.97,-3.92,-3.63,1.34,1.34,1.34
76.63,5.33,4.02,5.33,4.02,-4.02,-3.96,-3.64,1.30,1.31,1.30
77.40,5.36,4.07,5.36,4.08,-4.08,-4.00,-3.65,1.28,1.28,1.28
78.17,5.39,4.15,5.38,4.13,-4.13,-4.03,-3.66,1.26,1.25,1.24
78.95,5.41,4.18,5.41,4.19,-4.18,-4.07,-3.68,1.22,1.22,1.23
79.74,5.43,4.23,5.43,4.24,-4.24,-4.10,-3.69,1.19,1.19,1.19
80.54,5.46,4.29,5.46,4.29,-4.30,-4.14,-3.71,1.16,1.16,1.17
81.35,5.49,4.36,5.48,4.35,-4.35,-4.17,-3.73,1.14,1.13,1.13
82.16,5.51,4.39,5.51,4.40,-4.40,-4.21,-3.75,1.10,1.11,1.11
82.98,5.54,4.46,5.53,4.46,-4.46,-4.25,-3.78,1.08,1.08,1.08
83.81,5.56,4.51,5.56,4.51,-4.51,-4.28,-3.80,1.05,1.05,1.05
84.65,5.58,4.57,5.57,4.56,-4.56,-4.32,-3.83,1.02,1.02,1.01
85.50,5.59,4.61,5.59,4.61,-4.60,-4.35,-3.87,0.99,0.99,0.98
86.35,5.60,4.65,5.60,4.65,-4.64,-4.39,-3.90,0.95,0.96,0.95
87.22,5.61,4.69,5.60,4.68,-4.68,-4.42,-3.95,0.93,0.93,0.92
88.09,5.61,4.72,5.60,4.71,-4.71,-4.46,-3.99,0.89,0.89,0.89
88.97,5.60,4.74,5.60,4.74,-4.74,-4.49,-4.03,0.85,0.85,0.86
89.86,5.59,4.76,5.59,4.77,-4.77,-4.53,-4.08,0.81,0.82,0.82
90.76,5.59,4.80,5.59,4.80,-4.80,-4.56,-4.13,0.78,0.78,0.79
91.66,5.59,4.84,5.59,4.83,-4.83,-4.60,-4.19,0.75,0.75,0.75
92.58,5.59,4.86,5.59,4.87,-4.87,-4.63,-4.25,0.72,0.72,0.72
93.51,5.59,4.90,5.59,4.90,-4.90,-4.67,-4.31,0.68,0.68,0.69
94.44,5.59,4.93,5.59,4.94,-4.94,-4.70,-4.37,0.65,0.65,0.65
95.39,5.59,4.98,5.59,4.98,-4.98,-4.74,-4.43,0.60,0.60,0.61
96.34,5.59,5.02,5.59,5.02,-5.02,-4.77,-4.50,0.56,0.56,0.57
97.30,5.59,5.05,5.59,5.06,-5.07,-4.80,-4.57,0.52,0.52,0.53
98.28,5.60,5.11,5.60,5.11,-5.11,-4.84,-4.65,0.49,0.49,0.49
99.26,5.61,5.16,5.60,5.15,-5.15,-4.87,-4.72,0.46,0.46,0.45
100.25,5.61,5.19,5.60,5.19,-5.18,-4.90,-4.80,0.43,0.42,0.41
101.25,5.60,5.21,5.60,5.22,-5.21,-4.94,-4.88,0.39,0.39,0.38
102.27,5.59,5.23,5.59,5.24,-5.23,-4.97,-4.96,0.35,0.35,0.36
103.29,5.58,5.26,5.57,5.25,-5.25,-5.00,-5.04,0.32,0.32,0.32
104.32,5.56,5.27,5.56,5.27,-5.26,-5.04,-5.12,0.29,0.30,0.29
105.37,5.54,5.27,5.53,5.27,-5.27,-5.07,-5.21,0.27,0.27,0.26
106.42,5.51,5.27,5.50,5.27,-5.27,-5.10,-5.29,0.24,0.24,0.23
107.48,5.47,5.27,5.47,5.27,-5.26,-5.13,-5.37,0.20,0.20,0.20
108.56,5.43,5.26,5.43,5.26,-5.26,-5.16,-5.45,0.17,0.17,0.17
109.64,5.40,5.25,5.39,5.25,-5.25,-5.20,-5.54,0.14,0.14,0.14
110.74,5.36,5.25,5.35,5.25,-5.25,-5.23,-5.61,0.10,0.10,0.10
111.85,5.32,5.25,5.32,5.25,-5.25,-5.26,-5.69,0.06,0.07,0.07
112.97,5.29,5.25,5.29,5.25,-5.26,-5.29,-5.76,0.03,0.03,0.04
114.10,5.27,5.26,5.26,5.26,-5.27,-5.32,-5.83,-0.01,-0.01,0.00
115.24,5.25,5.29,5.25,5.29,-5.29,-5.35,-5.90,-0.05,-0.05,-0.04
116.39,5.24,5.31,5.24,5.32,-5.32,-5.38,-5.96,-0.08,-0.08,-0.08
117.55,5.24,5.35,5.23,5.35,-5.35,-5.41,-6.02,-0.11,-0.11,-0.11
118.73,5.24,5.39,5.24,5.38,-5.38,-5.44,-6.07,-0.14,-0.14,-0.15
119.92,5.25,5.42,5.25,5.42,-5.41,-5.47,-6.12,-0.17,-0.17,-0.17
121.12,5.26,5.45,5.25,5.45,-5.45,-5.49,-6.16,-0.19,-0.19,-0.20
122.33,5.26,5.49,5.26,5.48,-5.48,-5.52,-6.19,-0.23,-0.23,-0.23
123.55,5.26,5.51,5.26,5.51,-5.52,-5.55,-6.22,-0.26,-0.26,-0.25
124.79,5.26,5.54,5.26,5.54,-5.55,-5.58,-6.24,-0.30,-0.30,-0.29
126.03,5.27,5.58,5.26,5.58,-5.59,-5.60,-6.26,-0.32,-0.33,-0.32
127.29,5.27,5.62,5.27,5.62,-5.63,-5.63,-6.26,-0.36,-0.36,-0.35
128.57,5.28,5.67,5.27,5.66,-5.66,-5.66,-6.27,-0.38,-0.39,-0.39
129.85,5.28,5.70,5.28,5.70,-5.69,-5.68,-6.26,-0.42,-0.42,-0.42
131.15,5.28,5.73,5.27,5.73,-5.72,-5.71,-6.25,-0.45,-0.45,-0.46
132.46,5.27,5.75,5.26,5.75,-5.75,-5.73,-6.23,-0.48,-0.48,-0.49
133.79,5.25,5.77,5.25,5.77,-5.77,-5.76,-6.21,-0.52,-0.52,-0.52
135.12,5.23,5.78,5.23,5.78,-5.78,-5.78,-6.18,-0.55,-0.55,-0.55
136.48,5.21,5.78,5.20,5.78,-5.78,-5.81,-6.15,-0.58,-0.58,-0.58
137.84,5.17,5.78,5.17,5.79,-5.78,-5.83,-6.12,-0.62,-0.61,-0.61
139.22,5.15,5.79,5.14,5.78,-5.78,-5.85,-6.08,-0.63,-0.64,-0.65
140.61,5.11,5.78,5.11,5.78,-5.77,-5.87,-6.04,-0.67,-0.67,-0.67
142.02,5.07,5.77,5.07,5.77,-5.77,-5.90,-6.00,-0.70,-0.70,-0.70
143.44,5.04,5.76,5.03,5.76,-5.76,-5.92,-5.95,-0.72,-0.73,-0.72
144.87,5.00,5.74,5.00,5.75,-5.75,-5.94,-5.91,-0.76,-0.75,-0.75
146.32,4.98,5.75,4.97,5.75,-5.75,-5.96,-5.86,-0.77,-0.78,-0.78
147.78,4.95,5.74,4.95,5.75,-5.75,-5.98,-5.82,-0.81,-0.80,-0.79
149.26,4.94,5.76,4.93,5.76,-5.76,-6.00,-5.77,-0.82,-0.83,-0.82
150.75,4.92,5.77,4.92,5.77,-5.77,-6.02,-5.73,-0.86,-0.85,-0.85
152.26,4.92,5.78,4.92,5.79,-5.79,-6.03,-5.68,-0.87,-0.87,-0.87
153.78,4.92,5.81,4.92,5.81,-5.81,-6.05,-5.64,-0.90,-0.90,-0.89
155.32,4.93,5.84,4.92,5.84,-5.84,-6.07,-5.60,-0.91,-0.92,-0.92
156.88,4.93,5.87,4.93,5.87,-5.87,-6.09,-5.57,-0.94,-0.94,-0.94
158.44,4.94,5.91,4.93,5.90,-5.90,-6.10,-5.53,-0.97,-0.97,-0.98
160.03,4.94,5.93,4.94,5.94,-5.94,-6.12,-5.50,-1.00,-1.00,-1.00
161.63,4.94,5.97,4.94,5.97,-5.98,-6.13,-5.47,-1.04,-1.03,-1.03
163.24,4.95,6.01,4.95,6.01,-6.01,-6.15,-5.45,-1.06,-1.06,-1.06
164.88,4.96,6.05,4.95,6.05,-6.04,-6.16,-5.43,-1.09,-1.09,-1.09
166.53,4.96,6.09,4.95,6.08,-6.07,-6.17,-5.41,-1.11,-1.12,-1.13
168.19,4.95,6.09,4.95,6.10,-6.09,-6.18,-5.39,-1.15,-1.15,-1.15
169.87,4.94,6.12,4.94,6.12,-6.12,-6.20,-5.38,-1.18,-1.18,-1.19
171.57,4.92,6.14,4.92,6.13,-6.13,-6.21,-5.38,-1.21,-1.21,-1.22
173.29,4.90,6.14,4.89,6.14,-6.14,-6.22,-5.37,-1.25,-1.25,-1.25
175.02,4.86,6.14,4.86,6.14,-6.15,-6.23,-5.38,-1.29,-1.29,-1.28
176.77,4.83,6.14,4.83,6.15,-6.15,-6.24,-5.38,-1.32,-1.32,-1.32
178.54,4.80,6.15,4.80,6.15,-6.15,-6.24,-5.39,-1.35,-1.35,-1.35
180.32,4.77,6.16,4.77,6.15,-6.15,-6.25,-5.40,-1.38,-1.38,-1.40
182.13,4.74,6.15,4.73,6.15,-6.15,-6.26,-5.42,-1.41,-1.42,-1.42
183.95,4.69,6.14,4.69,6.15,-6.15,-6.26,-5.44,-1.46,-1.45,-1.45
185.79,4.66,6.15,4.66,6.15,-6.15,-6.27,-5.47,-1.49,-1.49,-1.49
187.65,4.64,6.16,4.63,6.15,-6.16,-6.28,-5.50,-1.52,-1.52,-1.52
189.52,4.62,6.17,4.61,6.16,-6.17,-6.28,-5.53,-1.56,-1.56,-1.55
191.42,4.60,6.18,4.60,6.18,-6.19,-6.28,-5.57,-1.60,-1.59,-1.58
193.33,4.59,6.19,4.59,6.20,-6.22,-6.29,-5.61,-1.63,-1.63,-1.61
195.27,4.60,6.24,4.59,6.24,-6.25,-6.29,-5.65,-1.65,-1.66,-1.65
197.22,4.61,6.29,4.61,6.28,-6.28,-6.29,-5.70,-1.68,-1.68,-1.68
199.19,4.62,6.32,4.62,6.33,-6.31,-6.29,-5.75,-1.70,-1.70,-1.70
201.18,4.63,6.36,4.62,6.36,-6.34,-6.29,-5.80,-1.71,-1.72,-1.74
203.19,4.63,6.38,4.63,6.38,-6.36,-6.29,-5.86,-1.74,-1.74,-1.75
205.23,4.62,6.38,4.62,6.39,-6.38,-6.29,-5.91,-1.76,-1.76,-1.77
207.28,4.60,6.39,4.59,6.39,-6.38,-6.28,-5.97,-1.79,-1.79,-1.79
209.35,4.57,6.38,4.57,6.38,-6.38,-6.28,-6.03,-1.81,-1.81,-1.82
211.44,4.54,6.38,4.54,6.37,-6.38,-6.28,-6.09,-1.84,-1.84,-1.84
213.56,4.51,6.36,4.50,6.36,-6.37,-6.27,-6.15,-1.86,-1.87,-1.85
215.69,4.47,6.34,4.47,6.34,-6.36,-6.27,-6.21,-1.89,-1.89,-1.88
217.85,4.43,6.32,4.44,6.34,-6.35,-6.26,-6.27,-1.92,-1.91,-1.90
220.03,4.42,6.34,4.41,6.33,-6.33,-6.26,-6.33,-1.92,-1.92,-1.92
222.23,4.40,6.34,4.39,6.33,-6.32,-6.25,-6.39,-1.92,-1.93,-1.94
224.45,4.37,6.32,4.36,6.32,-6.31,-6.24,-6.44,-1.94,-1.94,-1.95
226.70,4.33,6.30,4.33,6.30,-6.29,-6.23,-6.49,-1.97,-1.97,-1.97
228.96,4.29,6.26,4.29,6.27,-6.28,-6.22,-6.54,-1.99,-1.98,-1.97
231.25,4.27,6.26,4.26,6.25,-6.26,-6.21,-6.58,-1.99,-2.00,-1.99
233.57,4.24,6.24,4.23,6.24,-6.24,-6.20,-6.62,-2.01,-2.01,-2.00
235.90,4.20,6.21,4.20,6.22,-6.22,-6.19,-6.66,-2.02,-2.02,-2.01
238.26,4.18,6.21,4.18,6.20,-6.20,-6.18,-6.68,-2.02,-2.02,-2.03
240.64,4.16,6.18,4.15,6.18,-6.17,-6.16,-6.70,-2.02,-2.02,-2.02
243.05,4.13,6.15,4.13,6.16,-6.15,-6.15,-6.72,-2.02,-2.03,-2.03
245.48,4.10,6.13,4.09,6.13,-6.13,-6.13,-6.72,-2.03,-2.03,-2.04
247.93,4.06,6.10,4.06,6.10,-6.10,-6.12,-6.72,-2.05,-2.04,-2.04
250.41,4.04,6.07,4.04,6.07,-6.08,-6.10,-6.71,-2.04,-2.04,-2.03
252.92,4.02,6.05,4.02,6.05,-6.05,-6.09,-6.70,-2.04,-2.04,-2.03
255.45,4.00,6.03,3.99,6.03,-6.03,-6.07,-6.68,-2.03,-2.03,-2.04
258.00,3.98,6.01,3.97,6.01,-6.00,-6.05,-6.65,-2.03,-2.03,-2.03
260.58,3.95,5.98,3.95,5.98,-5.98,-6.03,-6.61,-2.04,-2.03,-2.03
263.19,3.94,5.96,3.93,5.96,-5.96,-6.01,-6.57,-2.02,-2.03,-2.02
265.82,3.91,5.94,3.91,5.94,-5.94,-5.99,-6.51,-2.03,-2.03,-2.03
268.48,3.89,5.91,3.89,5.92,-5.92,-5.97,-6.46,-2.03,-2.02,-2.03
271.16,3.88,5.90,3.87,5.89,-5.89,-5.95,-6.40,-2.01,-2.02,-2.02
273.87,3.84,5.86,3.84,5.87,-5.86,-5.93,-6.33,-2.02,-2.02,-2.03
276.61,3.81,5.83,3.81,5.84,-5.83,-5.91,-6.26,-2.02,-2.02,-2.02
279.38,3.78,5.81,3.77,5.80,-5.79,-5.88,-6.18,-2.02,-2.02,-2.04
282.17,3.74,5.77,3.74,5.76,-5.76,-5.86,-6.11,-2.02,-2.02,-2.03
284.99,3.71,5.72,3.70,5.73,-5.72,-5.84,-6.03,-2.02,-2.02,-2.02
287.84,3.67,5.68,3.67,5.68,-5.69,-5.81,-5.94,-2.02,-2.02,-2.01
290.72,3.65,5.66,3.64,5.65,-5.66,-5.79,-5.86,-2.02,-2.02,-2.02
293.63,3.63,5.63,3.63,5.63,-5.64,-5.76,-5.78,-2.02,-2.02,-2.00
296.57,3.62,5.61,3.62,5.61,-5.63,-5.73,-5.69,-2.01,-2.01,-1.99
299.53,3.62,5.60,3.62,5.60,-5.62,-5.71,-5.61,-2.00,-2.00,-1.99
302.53,3.63,5.60,3.63,5.61,-5.61,-5.68,-5.52,-1.98,-1.98,-1.97
305.55,3.65,5.62,3.64,5.61,-5.60,-5.65,-5.44,-1.96,-1.96,-1.97
308.61,3.66,5.61,3.65,5.61,-5.60,-5.62,-5.36,-1.94,-1.95,-1.96
311.69,3.65,5.60,3.65,5.60,-5.59,-5.59,-5.28,-1.94,-1.94,-1.95
314.81,3.64,5.58,3.64,5.58,-5.57,-5.56,-5.20,-1.93,-1.93,-1.94
317.96,3.63,5.56,3.62,5.56,-5.55,-5.53,-5.12,-1.92,-1.93,-1.94
321.14,3.60,5.52,3.60,5.52,-5.52,-5.50,-5.05,-1.92,-1.92,-1.92
324.35,3.57,5.49,3.57,5.48,-5.48,-5.47,-4.98,-1.91,-1.91,-1.92
327.59,3.53,5.42,3.53,5.44,-5.44,-5.44,-4.91,-1.91,-1.91,-1.89
330.87,3.51,5.40,3.50,5.39,-5.40,-5.41,-4.85,-1.89,-1.90,-1.90
334.18,3.47,5.36,3.47,5.35,-5.35,-5.37,-4.79,-1.89,-1.89,-1.89
337.52,3.43,5.31,3.43,5.31,-5.31,-5.34,-4.73,-1.88,-1.88,-1.88
340.90,3.41,5.27,3.40,5.27,-5.27,-5.31,-4.67,-1.86,-1.87,-1.86
344.30,3.38,5.23,3.37,5.23,-5.23,-5.27,-4.62,-1.86,-1.86,-1.86
347.75,3.35,5.19,3.35,5.20,-5.20,-5.24,-4.57,-1.85,-1.85,-1.85
351.23,3.33,5.18,3.32,5.17,-5.18,-5.20,-4.53,-1.85,-1.85,-1.85
354.74,3.31,5.13,3.31,5.14,-5.16,-5.17,-4.49,-1.85,-1.85,-1.82
358.28,3.31,5.13,3.30,5.13,-5.14,-5.13,-4.45,-1.83,-1.83,-1.82
361.87,3.31,5.12,3.31,5.12,-5.13,-5.10,-4.41,-1.82,-1.82,-1.82
365.49,3.32,5.12,3.32,5.12,-5.12,-5.06,-4.38,-1.80,-1.80,-1.81
369.14,3.33,5.12,3.32,5.11,-5.10,-5.02,-4.35,-1.78,-1.78,-1.79
372.83,3.32,5.10,3.31,5.10,-5.09,-4.99,-4.33,-1.77,-1.77,-1.78
376.56,3.30,5.08,3.30,5.08,-5.07,-4.95,-4.31,-1.77,-1.77,-1.78
380.33,3.28,5.05,3.28,5.05,-5.04,-4.91,-4.29,-1.76,-1.76,-1.77
384.13,3.26,5.01,3.25,5.01,-5.01,-4.87,-4.27,-1.75,-1.76,-1.75
387.97,3.23,4.97,3.22,4.97,-4.97,-4.84,-4.26,-1.75,-1.75,-1.75
391.85,3.19,4.92,3.19,4.93,-4.93,-4.80,-4.25,-1.75,-1.74,-1.74
395.77,3.16,4.88,3.16,4.88,-4.89,-4.76,-4.24,-1.73,-1.73,-1.73
399.73,3.13,4.85,3.13,4.84,-4.85,-4.72,-4.24,-1.72,-1.72,-1.72
403.72,3.11,4.80,3.10,4.81,-4.81,-4.68,-4.24,-1.70,-1.70,-1.69
407.76,3.08,4.77,3.08,4.77,-4.77,-4.64,-4.23,-1.69,-1.69,-1.69
411.84,3.06,4.74,3.05,4.73,-4.72,-4.60,-4.23,-1.67,-1.67,-1.68
415.96,3.02,4.68,3.02,4.69,-4.69,-4.56,-4.24,-1.67,-1.67,-1.66
420.12,2.99,4.65,2.99,4.65,-4.65,-4.52,-4.24,-1.66,-1.66,-1.66
424.32,2.96,4.61,2.96,4.61,-4.61,-4.48,-4.25,-1.66,-1.66,-1.66
428.56,2.93,4.56,2.93,4.57,-4.58,-4.44,-4.25,-1.65,-1.65,-1.64
432.85,2.91,4.53,2.90,4.53,-4.55,-4.40,-4.26,-1.64,-1.64,-1.63
437.18,2.88,4.50,2.88,4.51,-4.51,-4.36,-4.26,-1.64,-1.63,-1.63
441.55,2.87,4.49,2.86,4.48,-4.48,-4.32,-4.27,-1.61,-1.61,-1.62
445.96,2.85,4.46,2.84,4.45,-4.44,-4.28,-4.27,-1.59,-1.60,-1.61
450.42,2.81,4.41,2.81,4.41,-4.39,-4.23,-4.27,-1.58,-1.58,-1.60
454.93,2.77,4.36,2.77,4.36,-4.34,-4.19,-4.28,-1.58,-1.58,-1.59
459.48,2.72,4.30,2.72,4.30,-4.29,-4.15,-4.28,-1.57,-1.57,-1.58
464.07,2.67,4.23,2.67,4.23,-4.23,-4.11,-4.28,-1.57,-1.57,-1.56
468.71,2.62,4.17,2.61,4.17,-4.18,-4.07,-4.27,-1.57,-1.57,-1.55
473.40,2.57,4.11,2.57,4.11,-4.13,-4.02,-4.26,-1.56,-1.56,-1.54
478.13,2.53,4.06,2.53,4.06,-4.08,-3.98,-4.26,-1.56,-1.55,-1.53
482.91,2.50,4.02,2.50,4.03,-4.04,-3.94,-4.24,-1.54,-1.54,-1.52
487.74,2.49,4.00,2.48,4.00,-3.99,-3.90,-4.23,-1.51,-1.51,-1.52
492.62,2.47,3.97,2.46,3.97,-3.95,-3.85,-4.21,-1.49,-1.49,-1.51
497.55,2.44,3.93,2.43,3.93,-3.91,-3.81,-4.18,-1.47,-1.48,-1.50
502.52,2.40,3.88,2.40,3.88,-3.87,-3.77,-4.16,-1.47,-1.47,-1.49
507.55,2.36,3.82,2.36,3.83,-3.82,-3.73,-4.13,-1.47,-1.47,-1.47
