frequency,raw,smoothed,error,error_smoothed,equalization,parametric_eq,fixed_band_eq,equalized_raw,equalized_smoothed,target
20.00,3.33,3.33,-3.13,-3.12,3.14,2.85,1.21,6.47,6.47,6.46
20.20,3.33,3.33,-3.12,-3.13,3.13,2.84,1.25,6.46,6.46,6.46
20.40,3.33,3.33,-3.12,-3.12,3.12,2.84,1.29,6.46,6.46,6.46
20.61,3.33,3.34,-3.12,-3.12,3.11,2.83,1.33,6.45,6.45,6.46
20.81,3.34,3.34,-3.11,-3.11,3.10,2.83,1.36,6.45,6.45,6.46
21.02,3.35,3.35,-3.10,-3.10,3.09,2.83,1.41,6.45,6.44,6.46
21.23,3.36,3.37,-3.09,-3.09,3.08,2.82,1.45,6.44,6.45,6.46
21.44,3.38,3.39,-3.07,-3.07,3.06,2.82,1.49,6.45,6.45,6.45
21.66,3.41,3.41,-3.04,-3.04,3.04,2.81,1.54,6.46,6.45,6.45
21.87,3.43,3.43,-3.02,-3.02,3.02,2.81,1.58,6.46,6.46,6.45
22.09,3.45,3.46,-3.00,-3.00,3.00,2.80,1.63,6.46,6.46,6.45
22.31,3.47,3.47,-2.98,-2.98,2.98,2.80,1.68,6.46,6.45,6.45
22.54,3.49,3.49,-2.96,-2.96,2.96,2.79,1.73,6.46,6.45,6.45
22.76,3.50,3.51,-2.95,-2.94,2.94,2.79,1.78,6.45,6.45,6.45
22.99,3.52,3.52,-2.92,-2.93,2.93,2.78,1.83,6.45,6.45,6.45
23.22,3.53,3.53,-2.91,-2.91,2.91,2.78,1.89,6.45,6.45,6.45
23.45,3.54,3.55,-2.90,-2.90,2.90,2.77,1.94,6.44,6.45,6.45
23.69,3.56,3.56,-2.88,-2.89,2.88,2.77,2.00,6.45,6.44,6.45
23.92,3.57,3.58,-2.87,-2.87,2.86,2.76,2.06,6.44,6.44,6.44
24.16,3.59,3.59,-2.85,-2.85,2.85,2.75,2.11,6.44,6.44,6.44
24.40,3.61,3.61,-2.83,-2.83,2.82,2.75,2.17,6.44,6.44,6.44
24.65,3.63,3.64,-2.81,-2.80,2.80,2.74,2.23,6.44,6.44,6.44
24.89,3.66,3.66,-2.77,-2.78,2.78,2.74,2.29,6.44,6.44,6.44
25.14,3.68,3.68,-2.75,-2.75,2.75,2.73,2.35,6.44,6.44,6.44
25.39,3.70,3.70,-2.73,-2.73,2.73,2.72,2.41,6.43,6.44,6.44
25.65,3.72,3.72,-2.71,-2.71,2.71,2.72,2.48,6.43,6.43,6.43
25.91,3.74,3.75,-2.69,-2.69,2.69,2.71,2.54,6.44,6.44,6.43
26.16,3.76,3.76,-2.67,-2.67,2.68,2.70,2.60,6.44,6.44,6.43
26.43,3.77,3.77,-2.66,-2.66,2.67,2.70,2.66,6.44,6.44,6.43
26.69,3.77,3.78,-2.65,-2.65,2.66,2.69,2.72,6.44,6.44,6.43
26.96,3.77,3.77,-2.65,-2.65,2.66,2.68,2.77,6.43,6.43,6.43
27.23,3.77,3.77,-2.65,-2.65,2.65,2.67,2.83,6.42,6.42,6.42
27.50,3.77,3.78,-2.65,-2.65,2.64,2.67,2.89,6.41,6.41,6.42
27.77,3.78,3.79,-2.64,-2.64,2.62,2.66,2.94,6.40,6.41,6.42
28.05,3.80,3.80,-2.62,-2.61,2.60,2.65,2.99,6.40,6.40,6.42
28.33,3.83,3.83,-2.58,-2.58,2.57,2.64,3.04,6.41,6.40,6.42
28.62,3.86,3.87,-2.55,-2.55,2.54,2.64,3.08,6.41,6.41,6.41
28.90,3.90,3.90,-2.51,-2.51,2.52,2.63,3.12,6.42,6.42,6.41
29.19,3.93,3.93,-2.48,-2.48,2.49,2.62,3.16,6.43,6.42,6.41
29.48,3.95,3.95,-2.45,-2.46,2.48,2.61,3.19,6.43,6.43,6.41
29.78,3.95,3.96,-2.45,-2.45,2.47,2.60,3.22,6.42,6.43,6.41
30.08,3.95,3.95,-2.45,-2.45,2.47,2.59,3.25,6.42,6.42,6.40
30.38,3.93,3.93,-2.47,-2.47,2.47,2.58,3.27,6.41,6.41,6.40
30.68,3.90,3.91,-2.49,-2.49,2.49,2.57,3.28,6.39,6.39,6.40
30.99,3.88,3.89,-2.51,-2.51,2.50,2.56,3.29,6.38,6.38,6.39
31.30,3.87,3.87,-2.52,-2.52,2.51,2.55,3.30,6.38,6.38,6.39
31.61,3.87,3.87,-2.51,-2.52,2.51,2.54,3.30,6.38,6.38,6.39
31.93,3.87,3.87,-2.51,-2.51,2.50,2.53,3.29,6.37,6.37,6.38
32.24,3.88,3.89,-2.50,-2.49,2.48,2.52,3.28,6.36,6.37,6.38
32.57,3.91,3.91,-2.46,-2.47,2.45,2.51,3.27,6.37,6.36,6.38
32.89,3.94,3.95,-2.43,-2.43,2.42,2.50,3.25,6.36,6.37,6.37
33.22,3.98,3.99,-2.39,-2.38,2.39,2.49,3.22,6.37,6.37,6.37
33.55,4.02,4.02,-2.34,-2.35,2.36,2.48,3.20,6.38,6.38,6.37
33.89,4.05,4.05,-2.31,-2.31,2.33,2.47,3.16,6.38,6.38,6.36
34.23,4.06,4.07,-2.29,-2.29,2.31,2.46,3.13,6.38,6.38,6.36
34.57,4.07,4.07,-2.28,-2.28,2.30,2.45,3.09,6.37,6.37,6.35
34.92,4.06,4.06,-2.29,-2.29,2.30,2.43,3.05,6.36,6.36,6.35
35.27,4.04,4.04,-2.30,-2.30,2.30,2.42,3.01,6.34,6.34,6.34
35.62,4.02,4.03,-2.32,-2.31,2.30,2.41,2.96,6.33,6.33,6.34
35.97,4.01,4.02,-2.32,-2.32,2.31,2.40,2.91,6.32,6.32,6.33
36.33,4.01,4.01,-2.32,-2.32,2.31,2.38,2.86,6.32,6.32,6.33
36.70,4.01,4.01,-2.31,-2.31,2.30,2.37,2.81,6.31,6.32,6.32
37.06,4.02,4.02,-2.29,-2.29,2.29,2.36,2.76,6.31,6.31,6.32
37.43,4.03,4.04,-2.28,-2.28,2.27,2.34,2.71,6.31,6.31,6.31
37.81,4.05,4.05,-2.25,-2.26,2.26,2.33,2.66,6.31,6.31,6.31
38.19,4.06,4.07,-2.24,-2.23,2.24,2.31,2.60,6.30,6.30,6.30
38.57,4.08,4.08,-2.21,-2.21,2.22,2.30,2.55,6.30,6.30,6.29
38.95,4.09,4.09,-2.19,-2.19,2.20,2.28,2.50,6.29,6.29,6.29
39.34,4.10,4.10,-2.18,-2.18,2.18,2.27,2.45,6.29,6.28,6.28
39.74,4.10,4.10,-2.17,-2.17,2.17,2.25,2.40,6.27,6.27,6.27
40.14,4.10,4.11,-2.16,-2.16,2.16,2.24,2.35,6.26,6.26,6.26
40.54,4.11,4.11,-2.14,-2.15,2.14,2.22,2.30,6.26,6.25,6.26
40.94,4.11,4.12,-2.13,-2.13,2.13,2.21,2.25,6.24,6.25,6.25
41.35,4.12,4.12,-2.12,-2.12,2.12,2.19,2.21,6.24,6.24,6.24
41.76,4.12,4.13,-2.11,-2.11,2.10,2.17,2.16,6.23,6.23,6.23
42.18,4.13,4.14,-2.09,-2.09,2.09,2.15,2.12,6.22,6.22,6.22
42.60,4.14,4.14,-2.07,-2.07,2.07,2.14,2.08,6.21,6.21,6.21
43.03,4.15,4.15,-2.05,-2.05,2.05,2.12,2.04,6.21,6.20,6.20
43.46,4.15,4.16,-2.04,-2.04,2.04,2.10,2.00,6.19,6.20,6.19
43.90,4.16,4.16,-2.02,-2.02,2.02,2.08,1.96,6.18,6.19,6.18
44.33,4.17,4.17,-2.00,-2.00,2.00,2.06,1.93,6.18,6.17,6.17
44.78,4.17,4.17,-1.99,-1.99,1.99,2.04,1.89,6.16,6.16,6.16
45.23,4.17,4.18,-1.98,-1.97,1.97,2.02,1.86,6.14,6.15,6.15
45.68,4.18,4.18,-1.95,-1.96,1.95,2.00,1.83,6.14,6.13,6.14
46.13,4.18,4.19,-1.94,-1.94,1.93,1.98,1.80,6.12,6.12,6.12
46.60,4.19,4.19,-1.92,-1.92,1.92,1.96,1.77,6.11,6.11,6.11
47.06,4.20,4.20,-1.89,-1.90,1.90,1.94,1.74,6.10,6.10,6.10
47.53,4.20,4.21,-1.88,-1.88,1.88,1.91,1.72,6.08,6.09,6.08
48.01,4.21,4.21,-1.86,-1.86,1.86,1.89,1.70,6.08,6.07,6.07
48.49,4.21,4.21,-1.84,-1.84,1.85,1.87,1.67,6.06,6.06,6.06
48.97,4.21,4.21,-1.83,-1.83,1.83,1.85,1.65,6.04,6.04,6.04
49.46,4.21,4.21,-1.81,-1.81,1.81,1.82,1.63,6.03,6.02,6.02
49.96,4.20,4.21,-1.80,-1.80,1.79,1.80,1.61,6.00,6.00,6.01
50.46,4.20,4.21,-1.79,-1.78,1.78,1.77,1.59,5.98,5.99,5.99
50.96,4.21,4.21,-1.76,-1.76,1.76,1.75,1.58,5.98,5.97,5.97
51.47,4.21,4.21,-1.74,-1.74,1.75,1.72,1.56,5.96,5.96,5.96
51.99,4.21,4.22,-1.72,-1.72,1.73,1.69,1.54,5.94,5.94,5.94
52.51,4.21,4.21,-1.70,-1.71,1.71,1.67,1.53,5.93,5.92,5.92
53.03,4.20,4.20,-1.69,-1.69,1.69,1.64,1.51,5.90,5.90,5.90
53.56,4.19,4.20,-1.68,-1.68,1.68,1.61,1.50,5.87,5.88,5.88
54.10,4.19,4.19,-1.66,-1.67,1.66,1.58,1.48,5.86,5.85,5.86
54.64,4.18,4.19,-1.65,-1.65,1.65,1.55,1.47,5.83,5.83,5.83
55.18,4.18,4.19,-1.63,-1.63,1.63,1.53,1.45,5.81,5.81,5.81
55.74,4.18,4.18,-1.60,-1.61,1.61,1.50,1.43,5.79,5.79,5.79
56.29,4.18,4.18,-1.58,-1.58,1.59,1.46,1.42,5.77,5.77,5.76
56.86,4.17,4.18,-1.56,-1.56,1.56,1.43,1.40,5.73,5.74,5.74
57.42,4.18,4.18,-1.53,-1.53,1.53,1.40,1.38,5.71,5.70,5.71
58.00,4.18,4.19,-1.50,-1.50,1.49,1.37,1.36,5.67,5.67,5.69
58.58,4.19,4.20,-1.47,-1.46,1.45,1.34,1.34,5.64,5.65,5.66
59.16,4.22,4.22,-1.41,-1.41,1.41,1.30,1.32,5.63,5.63,5.63
59.76,4.24,4.25,-1.36,-1.36,1.36,1.27,1.30,5.61,5.61,5.60
60.35,4.27,4.27,-1.30,-1.30,1.32,1.23,1.27,5.59,5.59,5.57
60.96,4.28,4.28,-1.26,-1.26,1.27,1.20,1.24,5.56,5.55,5.54
61.57,4.28,4.29,-1.23,-1.22,1.23,1.16,1.21,5.51,5.51,5.51
62.18,4.28,4.29,-1.19,-1.19,1.19,1.12,1.18,5.47,5.47,5.48
62.80,4.29,4.29,-1.15,-1.15,1.15,1.09,1.15,5.44,5.44,5.44
63.43,4.30,4.30,-1.11,-1.11,1.11,1.05,1.11,5.41,5.41,5.41
64.07,4.31,4.31,-1.06,-1.07,1.07,1.01,1.08,5.38,5.38,5.38
64.71,4.31,4.32,-1.03,-1.02,1.02,0.97,1.04,5.34,5.34,5.34
65.35,4.32,4.32,-0.98,-0.98,0.98,0.93,1.00,5.30,5.30,5.30
66.01,4.33,4.33,-0.93,-0.93,0.93,0.89,0.95,5.26,5.26,5.26
66.67,4.34,4.35,-0.88,-0.88,0.87,0.85,0.91,5.22,5.22,5.23
67.33,4.36,4.36,-0.82,-0.82,0.82,0.80,0.86,5.18,5.18,5.19
68.01,4.38,4.38,-0.76,-0.76,0.76,0.76,0.81,5.15,5.14,5.14
68.69,4.39,4.40,-0.71,-0.70,0.71,0.72,0.76,5.10,5.11,5.10
69.37,4.41,4.41,-0.65,-0.65,0.65,0.67,0.71,5.07,5.06,5.06
70.07,4.42,4.42,-0.59,-0.59,0.59,0.63,0.66,5.02,5.02,5.02
70.77,4.43,4.43,-0.54,-0.54,0.54,0.58,0.60,4.97,4.97,4.97
71.48,4.43,4.44,-0.49,-0.49,0.49,0.53,0.55,4.92,4.92,4.92
72.19,4.44,4.44,-0.43,-0.44,0.44,0.49,0.49,4.88,4.88,4.88
72.91,4.44,4.44,-0.38,-0.39,0.38,0.44,0.43,4.83,4.83,4.83
73.64,4.44,4.45,-0.34,-0.33,0.34,0.39,0.37,4.78,4.78,4.78
74.38,4.44,4.44,-0.29,-0.29,0.29,0.34,0.31,4.73,4.73,4.73
75.12,4.44,4.44,-0.23,-0.24,0.24,0.29,0.25,4.68,4.68,4.68
75.87,4.43,4.44,-0.19,-0.19,0.19,0.24,0.19,4.62,4.62,4.63
76.63,4.43,4.44,-0.14,-0.14,0.14,0.19,0.12,4.57,4.57,4.57
77.40,4.43,4.43,-0.08,-0.09,0.08,0.13,0.06,4.52,4.52,4.52
78.17,4.43,4.43,-0.03,-0.03,0.03,0.08,-0.01,4.47,4.46,4.46
78.95,4.42,4.43,0.02,0.02,-0.02,0.03,-0.07,4.40,4.41,4.41
79.74,4.42,4.42,0.08,0.08,-0.08,-0.03,-0.14,4.35,4.35,4.35
80.54,4.42,4.42,0.13,0.13,-0.13,-0.08,-0.21,4.29,4.29,4.29
81.35,4.41,4.42,0.18,0.19,-0.19,-0.14,-0.27,4.23,4.23,4.23
82.16,4.41,4.41,0.24,0.24,-0.24,-0.20,-0.34,4.17,4.17,4.17
82.98,4.41,4.41,0.30,0.30,-0.30,-0.25,-0.41,4.11,4.11,4.11
83.81,4.40,4.41,0.36,0.36,-0.36,-0.31,-0.48,4.04,4.05,4.05
84.65,4.40,4.40,0.42,0.42,-0.42,-0.37,-0.55,3.99,3.99,3.99
85.50,4.40,4.40,0.48,0.48,-0.48,-0.43,-0.62,3.93,3.92,3.92
86.35,4.39,4.40,0.54,0.54,-0.54,-0.49,-0.69,3.86,3.86,3.86
87.22,4.39,4.39,0.60,0.60,-0.60,-0.55,-0.77,3.80,3.80,3.79
88.09,4.38,4.38,0.66,0.66,-0.66,-0.61,-0.84,3.73,3.73,3.73
88.97,4.37,4.38,0.71,0.72,-0.72,-0.67,-0.91,3.66,3.66,3.66
89.86,4.36,4.37,0.77,0.77,-0.78,-0.74,-0.99,3.59,3.59,3.59
90.76,4.36,4.36,0.84,0.84,-0.84,-0.80,-1.06,3.53,3.52,3.52
91.66,4.35,4.36,0.90,0.90,-0.90,-0.86,-1.14,3.45,3.46,3.46
92.58,4.35,4.35,0.97,0.96,-0.96,-0.93,-1.21,3.39,3.39,3.39
93.51,4.34,4.34,1.03,1.03,-1.03,-0.99,-1.29,3.32,3.32,3.32
94.44,4.33,4.34,1.09,1.09,-1.09,-1.05,-1.37,3.24,3.25,3.25
95.39,4.33,4.33,1.16,1.16,-1.16,-1.12,-1.45,3.18,3.17,3.18
96.34,4.33,4.33,1.23,1.23,-1.23,-1.18,-1.52,3.11,3.11,3.10
97.30,4.32,4.33,1.29,1.29,-1.29,-1.25,-1.60,3.03,3.03,3.03
98.28,4.32,4.32,1.36,1.36,-1.36,-1.32,-1.68,2.96,2.96,2.96
99.26,4.31,4.32,1.42,1.43,-1.43,-1.38,-1.76,2.89,2.89,2.89
100.25,4.31,4.31,1.50,1.49,-1.50,-1.45,-1.84,2.82,2.81,2.82
101.25,4.30,4.31,1.56,1.56,-1.56,-1.51,-1.92,2.74,2.74,2.74
102.27,4.30,4.30,1.63,1.63,-1.63,-1.58,-2.00,2.67,2.67,2.67
103.29,4.30,4.30,1.71,1.70,-1.70,-1.65,-2.08,2.60,2.60,2.60
104.32,4.29,4.30,1.77,1.77,-1.77,-1.71,-2.16,2.52,2.53,2.52
105.37,4.29,4.29,1.84,1.84,-1.84,-1.78,-2.24,2.45,2.45,2.45
106.42,4.28,4.29,1.91,1.91,-1.91,-1.85,-2.31,2.38,2.38,2.38
107.48,4.28,4.28,1.98,1.97,-1.97,-1.91,-2.39,2.31,2.31,2.31
108.56,4.27,4.27,2.04,2.04,-2.04,-1.98,-2.46,2.23,2.23,2.23
109.64,4.26,4.27,2.10,2.11,-2.11,-2.05,-2.54,2.16,2.16,2.16
110.74,4.26,4.26,2.18,2.17,-2.17,-2.11,-2.61,2.09,2.09,2.09
111.85,4.25,4.25,2.24,2.24,-2.24,-2.18,-2.68,2.01,2.01,2.02
112.97,4.24,4.25,2.30,2.30,-2.31,-2.25,-2.75,1.94,1.94,1.94
114.10,4.24,4.24,2.37,2.37,-2.38,-2.31,-2.82,1.87,1.87,1.87
115.24,4.24,4.24,2.44,2.44,-2.45,-2.38,-2.88,1.80,1.80,1.80
116.39,4.24,4.24,2.51,2.51,-2.52,-2.44,-2.94,1.73,1.73,1.73
117.55,4.24,4.24,2.58,2.59,-2.58,-2.51,-2.99,1.66,1.66,1.66
118.73,4.24,4.24,2.65,2.66,-2.65,-2.57,-3.05,1.59,1.59,1.59
119.92,4.24,4.24,2.72,2.72,-2.71,-2.64,-3.10,1.53,1.53,1.52
121.12,4.23,4.23,2.78,2.78,-2.78,-2.70,-3.14,1.46,1.46,1.45
122.33,4.22,4.22,2.84,2.84,-2.84,-2.77,-3.19,1.39,1.38,1.38
123.55,4.20,4.21,2.89,2.89,-2.89,-2.83,-3.23,1.31,1.31,1.32
124.79,4.19,4.19,2.95,2.95,-2.95,-2.89,-3.26,1.24,1.24,1.25
126.03,4.18,4.18,3.00,3.00,-3.00,-2.95,-3.29,1.18,1.18,1.18
127.29,4.17,4.17,3.06,3.06,-3.06,-3.01,-3.32,1.12,1.12,1.12
128.57,4.16,4.16,3.11,3.11,-3.11,-3.07,-3.34,1.05,1.05,1.05
129.85,4.15,4.15,3.17,3.16,-3.17,-3.13,-3.36,0.99,0.99,0.99
131.15,4.14,4.14,3.22,3.22,-3.22,-3.19,-3.38,0.92,0.92,0.93
132.46,4.13,4.14,3.27,3.27,-3.27,-3.25,-3.39,0.86,0.86,0.86
133.79,4.13,4.13,3.33,3.33,-3.33,-3.31,-3.40,0.81,0.80,0.80
135.12,4.12,4.12,3.38,3.38,-3.38,-3.37,-3.40,0.74,0.74,0.74
136.48,4.11,4.11,3.43,3.43,-3.43,-3.42,-3.41,0.68,0.68,0.68
137.84,4.10,4.10,3.48,3.48,-3.48,-3.48,-3.41,0.62,0.62,0.62
139.22,4.09,4.09,3.53,3.53,-3.53,-3.53,-3.41,0.56,0.56,0.57
140.61,4.08,4.08,3.57,3.58,-3.58,-3.58,-3.41,0.51,0.51,0.51
142.02,4.07,4.08,3.62,3.62,-3.63,-3.64,-3.41,0.45,0.45,0.45
143.44,4.07,4.07,3.67,3.67,-3.67,-3.69,-3.40,0.40,0.40,0.40
144.87,4.06,4.06,3.72,3.72,-3.72,-3.74,-3.40,0.35,0.35,0.35
146.32,4.05,4.05,3.76,3.76,-3.76,-3.79,-3.39,0.29,0.29,0.29
147.78,4.04,4.04,3.80,3.80,-3.80,-3.84,-3.39,0.24,0.24,0.24
149.26,4.03,4.03,3.84,3.84,-3.84,-3.88,-3.39,0.19,0.19,0.19
150.75,4.02,4.02,3.88,3.88,-3.88,-3.93,-3.38,0.14,0.14,0.14
152.26,4.01,4.01,3.92,3.92,-3.92,-3.97,-3.38,0.09,0.09,0.09
153.78,4.00,4.00,3.96,3.96,-3.96,-4.02,-3.38,0.04,0.04,0.04
155.32,3.99,3.99,4.00,4.00,-4.00,-4.06,-3.38,-0.00,-0.00,-0.00
156.88,3.98,3.98,4.03,4.03,-4.03,-4.10,-3.38,-0.05,-0.05,-0.05
158.44,3.97,3.97,4.07,4.07,-4.07,-4.14,-3.38,-0.09,-0.09,-0.09
160.03,3.96,3.96,4.10,4.10,-4.10,-4.18,-3.39,-0.14,-0.14,-0.13
161.63,3.95,3.95,4.14,4.14,-4.14,-4.22,-3.40,-0.18,-0.18,-0.19
163.24,3.94,3.94,4.17,4.17,-4.17,-4.26,-3.40,-0.23,-0.23,-0.23
164.88,3.93,3.93,4.20,4.20,-4.20,-4.29,-3.42,-0.27,-0.27,-0.27
166.53,3.92,3.92,4.23,4.23,-4.23,-4.33,-3.43,-0.31,-0.31,-0.31
168.19,3.91,3.91,4.26,4.26,-4.26,-4.36,-3.45,-0.34,-0.35,-0.35
169.87,3.90,3.90,4.29,4.28,-4.28,-4.39,-3.46,-0.38,-0.38,-0.38
171.57,3.88,3.89,4.30,4.31,-4.31,-4.42,-3.49,-0.43,-0.42,-0.42
173.29,3.87,3.87,4.33,4.33,-4.33,-4.45,-3.51,-0.46,-0.46,-0.46
175.02,3.86,3.86,4.35,4.35,-4.35,-4.48,-3.54,-0.49,-0.49,-0.49
176.77,3.85,3.85,4.38,4.38,-4.38,-4.51,-3.57,-0.52,-0.52,-0.52
178.54,3.84,3.84,4.40,4.40,-4.40,-4.53,-3.60,-0.55,-0.56,-0.56
180.32,3.82,3.83,4.41,4.42,-4.41,-4.56,-3.63,-0.59,-0.59,-0.59
182.13,3.81,3.81,4.43,4.43,-4.43,-4.58,-3.67,-0.62,-0.62,-0.62
183.95,3.80,3.80,4.45,4.45,-4.45,-4.60,-3.71,-0.65,-0.65,-0.65
185.79,3.78,3.79,4.46,4.47,-4.47,-4.62,-3.76,-0.68,-0.68,-0.68
187.65,3.77,3.77,4.48,4.48,-4.48,-4.64,-3.80,-0.71,-0.71,-0.71
189.52,3.76,3.76,4.50,4.49,-4.49,-4.66,-3.85,-0.73,-0.74,-0.73
191.42,3.74,3.75,4.50,4.51,-4.51,-4.67,-3.90,-0.76,-0.76,-0.76
193.33,3.73,3.73,4.52,4.52,-4.52,-4.69,-3.96,-0.79,-0.79,-0.79
195.27,3.72,3.72,4.54,4.53,-4.53,-4.70,-4.01,-0.81,-0.81,-0.81
197.22,3.70,3.71,4.54,4.54,-4.54,-4.72,-4.07,-0.84,-0.84,-0.84
199.19,3.69,3.69,4.55,4.55,-4.55,-4.73,-4.13,-0.86,-0.86,-0.86
201.18,3.67,3.68,4.56,4.56,-4.56,-4.74,-4.19,-0.89,-0.88,-0.88
203.19,3.66,3.66,4.57,4.57,-4.57,-4.74,-4.25,-0.90,-0.90,-0.90
205.23,3.64,3.65,4.57,4.57,-4.57,-4.75,-4.32,-0.93,-0.93,-0.93
207.28,3.63,3.63,4.58,4.58,-4.58,-4.76,-4.38,-0.94,-0.95,-0.95
209.35,3.61,3.62,4.58,4.58,-4.58,-4.76,-4.45,-0.97,-0.97,-0.97
211.44,3.60,3.60,4.59,4.59,-4.59,-4.77,-4.51,-0.98,-0.99,-0.99
213.56,3.58,3.58,4.59,4.59,-4.59,-4.77,-4.58,-1.01,-1.01,-1.01
215.69,3.56,3.57,4.59,4.59,-4.59,-4.77,-4.64,-1.03,-1.02,-1.02
217.85,3.55,3.55,4.60,4.59,-4.59,-4.77,-4.70,-1.04,-1.04,-1.04
220.03,3.53,3.54,4.59,4.60,-4.59,-4.77,-4.76,-1.06,-1.06,-1.06
222.23,3.52,3.52,4.60,4.60,-4.59,-4.76,-4.82,-1.07,-1.07,-1.07
224.45,3.50,3.50,4.59,4.59,-4.59,-4.76,-4.88,-1.09,-1.09,-1.09
226.70,3.48,3.49,4.59,4.59,-4.59,-4.75,-4.93,-1.11,-1.11,-1.11
228.96,3.47,3.47,4.60,4.59,-4.59,-4.75,-4.98,-1.12,-1.12,-1.12
231.25,3.45,3.45,4.59,4.59,-4.59,-4.74,-5.02,-1.14,-1.14,-1.14
233.57,3.43,3.44,4.58,4.59,-4.59,-4.73,-5.07,-1.16,-1.15,-1.15
235.90,3.42,3.42,4.60,4.59,-4.59,-4.72,-5.10,-1.16,-1.17,-1.17
238.26,3.40,3.40,4.59,4.59,-4.58,-4.71,-5.13,-1.18,-1.18,-1.19
240.64,3.38,3.38,4.58,4.58,-4.58,-4.70,-5.15,-1.20,-1.20,-1.20
243.05,3.36,3.36,4.57,4.57,-4.58,-4.69,-5.17,-1.21,-1.21,-1.21
245.48,3.34,3.34,4.57,4.57,-4.57,-4.68,-5.18,-1.23,-1.23,-1.22
247.93,3.32,3.33,4.56,4.56,-4.56,-4.66,-5.19,-1.24,-1.24,-1.23
250.41,3.31,3.31,4.56,4.56,-4.56,-4.65,-5.18,-1.24,-1.25,-1.24
252.92,3.29,3.29,4.55,4.55,-4.55,-4.63,-5.18,-1.25,-1.25,-1.26
255.45,3.27,3.28,4.54,4.54,-4.54,-4.61,-5.16,-1.26,-1.26,-1.27
258.00,3.25,3.25,4.53,4.53,-4.53,-4.60,-5.14,-1.27,-1.27,-1.28
260.58,3.23,3.23,4.52,4.52,-4.52,-4.58,-5.11,-1.28,-1.29,-1.29
263.19,3.20,3.21,4.50,4.50,-4.50,-4.56,-5.08,-1.30,-1.30,-1.29
265.82,3.18,3.18,4.49,4.49,-4.49,-4.54,-5.03,-1.31,-1.31,-1.30
268.48,3.16,3.16,4.48,4.47,-4.48,-4.52,-4.99,-1.31,-1.32,-1.31
271.16,3.14,3.14,4.46,4.46,-4.46,-4.49,-4.94,-1.32,-1.32,-1.32
273.87,3.12,3.12,4.45,4.45,-4.45,-4.47,-4.88,-1.33,-1.33,-1.33
276.61,3.10,3.10,4.44,4.44,-4.43,-4.45,-4.82,-1.33,-1.33,-1.34
279.38,3.07,3.08,4.42,4.42,-4.42,-4.43,-4.76,-1.34,-1.34,-1.34
282.17,3.05,3.05,4.40,4.40,-4.40,-4.40,-4.69,-1.35,-1.35,-1.35
284.99,3.03,3.03,4.38,4.38,-4.38,-4.38,-4.62,-1.35,-1.35,-1.35
287.84,3.01,3.01,4.36,4.36,-4.36,-4.35,-4.55,-1.35,-1.35,-1.34
290.72,2.99,2.99,4.34,4.34,-4.34,-4.33,-4.48,-1.35,-1.35,-1.35
293.63,2.96,2.97,4.32,4.32,-4.32,-4.30,-4.41,-1.35,-1.35,-1.36
296.57,2.94,2.94,4.30,4.30,-4.30,-4.27,-4.33,-1.35,-1.35,-1.35
299.53,2.92,2.92,4.27,4.27,-4.27,-4.25,-4.26,-1.35,-1.35,-1.35
302.53,2.89,2.90,4.25,4.25,-4.25,-4.22,-4.18,-1.36,-1.35,-1.35
305.55,2.87,2.87,4.22,4.22,-4.23,-4.19,-4.11,-1.35,-1.35,-1.35
308.61,2.85,2.85,4.21,4.20,-4.20,-4.16,-4.03,-1.35,-1.35,-1.35
311.69,2.82,2.83,4.17,4.18,-4.18,-4.14,-3.96,-1.35,-1.35,-1.35
314.81,2.80,2.80,4.16,4.15,-4.15,-4.11,-3.89,-1.35,-1.35,-1.35
317.96,2.77,2.77,4.12,4.12,-4.12,-4.08,-3.82,-1.35,-1.35,-1.35
321.14,2.74,2.75,4.10,4.10,-4.10,-4.05,-3.75,-1.35,-1.35,-1.35
324.35,2.72,2.72,4.07,4.07,-4.07,-4.02,-3.68,-1.34,-1.35,-1.35
327.59,2.69,2.69,4.03,4.04,-4.04,-3.99,-3.61,-1.34,-1.35,-1.34
330.87,2.66,2.66,4.01,4.01,-4.01,-3.96,-3.55,-1.34,-1.34,-1.34
334.18,2.63,2.63,3.97,3.98,-3.98,-3.93,-3.49,-1.34,-1.34,-1.34
337.52,2.60,2.61,3.95,3.95,-3.95,-3.91,-3.43,-1.34,-1.34,-1.34
340.90,2.58,2.58,3.92,3.91,-3.91,-3.88,-3.37,-1.33,-1.33,-1.34
344.30,2.55,2.55,3.88,3.88,-3.88,-3.85,-3.32,-1.33,-1.33,-1.33
347.75,2.52,2.52,3.85,3.85,-3.85,-3.82,-3.27,-1.32,-1.32,-1.32
351.23,2.49,2.49,3.82,3.81,-3.81,-3.79,-3.22,-1.32,-1.32,-1.33
354.74,2.46,2.46,3.77,3.78,-3.78,-3.76,-3.17,-1.32,-1.32,-1.31
358.28,2.43,2.44,3.75,3.75,-3.75,-3.73,-3.13,-1.31,-1.31,-1.31
361.87,2.41,2.41,3.72,3.71,-3.71,-3.70,-3.09,-1.30,-1.31,-1.30
365.49,2.38,2.38,3.68,3.68,-3.68,-3.67,-3.05,-1.30,-1.30,-1.30
369.14,2.35,2.36,3.65,3.65,-3.65,-3.64,-3.01,-1.30,-1.30,-1.30
372.83,2.33,2.33,3.62,3.62,-3.62,-3.61,-2.98,-1.29,-1.29,-1.28
376.56,2.30,2.31,3.59,3.59,-3.59,-3.58,-2.94,-1.29,-1.29,-1.28
380.33,2.28,2.28,3.56,3.56,-3.56,-3.55,-2.91,-1.28,-1.28,-1.28
384.13,2.25,2.26,3.53,3.53,-3.53,-3.52,-2.89,-1.27,-1.27,-1.28
387.97,2.23,2.23,3.51,3.50,-3.50,-3.49,-2.86,-1.26,-1.27,-1.27
391.85,2.20,2.20,3.46,3.46,-3.46,-3.45,-2.84,-1.26,-1.26,-1.25
395.77,2.17,2.18,3.43,3.43,-3.43,-3.42,-2.82,-1.26,-1.26,-1.26
399.73,2.14,2.15,3.39,3.40,-3.40,-3.39,-2.80,-1.25,-1.25,-1.25
403.72,2.12,2.12,3.36,3.36,-3.36,-3.36,-2.78,-1.24,-1.24,-1.24
407.76,2.09,2.09,3.34,3.33,-3.33,-3.32,-2.76,-1.23,-1.24,-1.24
411.84,2.05,2.06,3.29,3.29,-3.29,-3.29,-2.74,-1.24,-1.23,-1.23
415.96,2.02,2.02,3.25,3.25,-3.25,-3.25,-2.73,-1.23,-1.23,-1.23
420.12,1.99,1.99,3.22,3.22,-3.22,-3.21,-2.72,-1.22,-1.22,-1.23
424.32,1.96,1.96,3.18,3.18,-3.18,-3.18,-2.71,-1.22,-1.22,-1.22
428.56,1.93,1.93,3.14,3.14,-3.14,-3.14,-2.69,-1.21,-1.21,-1.21
432.85,1.89,1.90,3.10,3.10,-3.10,-3.10,-2.68,-1.21,-1.20,-1.20
437.18,1.86,1.86,3.07,3.06,-3.06,-3.06,-2.67,-1.20,-1.20,-1.20
441.55,1.83,1.83,3.03,3.02,-3.02,-3.02,-2.66,-1.19,-1.19,-1.19
445.96,1.79,1.80,2.98,2.98,-2.98,-2.97,-2.65,-1.18,-1.18,-1.19
450.42,1.76,1.76,2.93,2.93,-2.94,-2.93,-2.64,-1.17,-1.17,-1.17
454.93,1.72,1.73,2.88,2.89,-2.89,-2.89,-2.63,-1.17,-1.17,-1.16
459.48,1.69,1.69,2.84,2.85,-2.85,-2.84,-2.62,-1.16,-1.15,-1.15
464.07,1.66,1.66,2.81,2.81,-2.81,-2.80,-2.60,-1.14,-1.15,-1.15
468.71,1.62,1.62,2.77,2.77,-2.76,-2.75,-2.59,-1.14,-1.14,-1.14
473.40,1.58,1.59,2.72,2.72,-2.72,-2.71,-2.58,-1.13,-1.13,-1.13
478.13,1.55,1.55,2.68,2.67,-2.67,-2.66,-2.56,-1.12,-1.13,-1.12
482.91,1.51,1.51,2.63,2.63,-2.63,-2.61,-2.54,-1.12,-1.12,-1.11
487.74,1.47,1.48,2.58,2.58,-2.58,-2.57,-2.52,-1.11,-1.11,-1.11
492.62,1.44,1.44,2.54,2.54,-2.54,-2.52,-2.50,-1.09,-1.09,-1.10
497.55,1.40,1.40,2.49,2.49,-2.49,-2.47,-2.48,-1.08,-1.08,-1.09
502.52,1.36,1.36,2.44,2.44,-2.44,-2.43,-2.46,-1.07,-1.07,-1.08
507.55,1.32,1.32,2.38,2.39,-2.39,-2.38,-2.43,-1.06,-1.06,-1.06
512.62,1.28,1.28,2.33,2.33,-2.34,-2.33,-2.40,-1.05,-1.05,-1.05
517.75,1.24,1.24,2.28,2.28,-2.29,-2.29,-2.37,-1.04,-1.04,-1.04
522.93,1.20,1.20,2.23,2.23,-2.24,-2.24,-2.34,-1.03,-1.04,-1.03
528.16,1.16,1.16,2.19,2.19,-2.19,-2.19,-2.31,-1.03,-1.02,-1.02
