frequency,raw
20,13.52
21,13.50
22,13.45
23,13.41
24,13.37
25,13.28
26,13.24
27,13.15
28,13.10
29,13.02
30,12.93
31,12.89
32,12.80
33,12.76
34,12.72
35,12.63
36,12.59
37,12.50
38,12.45
39,12.37
40,12.31
41,12.24
42,12.15
43,12.09
44,12.02
45,11.94
46,11.87
47,11.80
48,11.74
49,11.67
50,11.59
51,11.53
52,11.45
53,11.38
54,11.30
55,11.23
56,11.16
57,11.09
58,11.02
59,10.95
60,10.89
61,10.81
62,10.74
63,10.66
64,10.59
65,10.53
66,10.46
67,10.40
68,10.32
69,10.27
70,10.19
71,10.14
72,10.07
73,10.01
74,9.93
75,9.88
76,9.79
77,9.74
78,9.66
79,9.60
80,9.53
81,9.47
82,9.40
83,9.35
84,9.27
85,9.23
86,9.16
87,9.10
88,9.05
89,8.98
90,8.93
91,8.87
92,8.80
93,8.75
94,8.71
95,8.65
96,8.58
97,8.52
98,8.45
99,8.41
100,8.36
101,8.31
102,8.26
104,8.14
105,8.08
106,8.03
107,7.98
108,7.92
109,7.87
110,7.82
111,7.77
112,7.72
113,7.67
114,7.62
115,7.58
117,7.47
118,7.41
119,7.37
120,7.32
121,7.27
123,7.18
124,7.14
125,7.10
126,7.04
128,6.94
129,6.90
130,6.86
131,6.80
133,6.72
134,6.68
135,6.63
137,6.54
138,6.50
140,6.41
141,6.37
142,6.33
144,6.24
145,6.21
147,6.11
148,6.09
150,6.01
151,5.97
153,5.89
154,5.85
156,5.76
157,5.74
159,5.65
160,5.63
162,5.54
164,5.46
165,5.44
167,5.36
169,5.28
170,5.25
172,5.17
174,5.10
175,5.06
177,4.98
179,4.92
181,4.84
183,4.76
184,4.73
186,4.65
188,4.58
190,4.50
192,4.42
194,4.34
196,4.27
198,4.18
200,4.12
202,4.05
204,3.98
206,3.93
208,3.88
210,3.88
212,3.88
214,3.92
216,3.98
218,4.03
221,4.08
223,4.09
225,4.09
227,4.09
229,4.05
232,3.99
234,3.94
236,3.90
239,3.81
241,3.76
244,3.68
246,3.64
248,3.60
251,3.51
253,3.47
256,3.39
259,3.32
261,3.28
264,3.21
266,3.16
269,3.10
272,3.03
274,3.00
277,2.95
280,2.90
283,2.84
286,2.77
288,2.74
291,2.69
294,2.64
297,2.60
300,2.53
303,2.48
306,2.43
309,2.38
312,2.34
316,2.28
319,2.25
322,2.19
325,2.14
328,2.11
332,2.04
335,2.00
338,1.95
342,1.91
345,1.86
349,1.82
352,1.78
356,1.73
359,1.70
363,1.65
366,1.62
370,1.59
374,1.55
377,1.54
381,1.50
385,1.45
389,1.42
393,1.38
397,1.35
401,1.30
405,1.27
409,1.24
413,1.19
417,1.16
421,1.11
425,1.09
430,1.04
434,1.00
438,0.97
443,0.93
447,0.89
451,0.87
456,0.82
460,0.79
465,0.75
470,0.72
474,0.67
479,0.64
484,0.63
489,0.59
494,0.57
499,0.54
504,0.50
509,0.48
514,0.45
519,0.41
524,0.37
529,0.36
535,0.33
540,0.28
545,0.28
551,0.24
556,0.20
562,0.18
568,0.15
573,0.12
579,0.11
585,0.07
591,0.04
596,0.02
602,-0.02
608,-0.02
615,-0.06
621,-0.08
627,-0.11
633,-0.11
639,-0.15
646,-0.15
652,-0.19
659,-0.19
665,-0.24
672,-0.24
679,-0.28
686,-0.28
692,-0.28
699,-0.32
706,-0.32
713,-0.32
721,-0.37
728,-0.37
735,-0.37
742,-0.39
750,-0.41
757,-0.41
765,-0.41
773,-0.41
780,-0.41
788,-0.43
796,-0.45
804,-0.45
812,-0.45
820,-0.45
828,-0.45
837,-0.45
845,-0.45
853,-0.45
862,-0.41
871,-0.31
879,-0.19
888,-0.04
897,0.06
906,0.13
915,0.15
924,0.19
933,0.21
943,0.25
952,0.28
962,0.28
971,0.25
981,0.16
991,0.08
1001,-0.01
1011,-0.07
1021,-0.11
1031,-0.11
1041,-0.08
1052,-0.06
1062,-0.02
1073,0.01
1084,0.02
1094,0.06
1105,0.09
1116,0.12
1128,0.16
1139,0.20
1150,0.24
1162,0.25
1173,0.28
1185,0.31
1197,0.33
1209,0.37
1221,0.37
1233,0.41
1246,0.44
1258,0.46
1271,0.47
1283,0.50
1296,0.51
1309,0.54
1322,0.55
1335,0.59
1349,0.59
1362,0.63
1376,0.63
1390,0.63
1404,0.67
1418,0.67
1432,0.72
1446,0.72
1461,0.72
1475,0.76
1490,0.76
1505,0.80
1520,0.80
1535,0.84
1550,0.85
1566,0.89
1582,0.89
1597,0.93
1613,0.97
1629,0.98
1646,1.02
1662,1.06
1679,1.09
1696,1.12
1713,1.15
1730,1.20
1747,1.26
1764,1.28
1782,1.34
1800,1.39
1818,1.43
1836,1.47
1854,1.52
1873,1.58
1892,1.65
1911,1.70
1930,1.77
1949,1.84
1969,1.91
1988,2.01
2008,2.07
2028,2.17
2048,2.25
2069,2.36
2090,2.46
2111,2.56
2132,2.67
2153,2.79
2175,2.90
2196,3.04
2218,3.14
2240,3.29
2263,3.43
2285,3.56
2308,3.71
2331,3.85
2355,4.03
2378,4.18
2402,4.36
2426,4.52
2450,4.68
2475,4.85
2500,5.03
2525,5.22
2550,5.38
2575,5.55
2601,5.71
2627,5.88
2653,6.05
2680,6.21
2707,6.33
2734,6.48
2761,6.58
2789,6.69
2817,6.79
2845,6.84
2873,6.89
2902,6.91
2931,6.95
2960,6.93
2990,6.91
3020,6.87
3050,6.84
3080,6.77
3111,6.70
3142,6.60
3174,6.53
3206,6.43
3238,6.34
3270,6.25
3303,6.14
3336,6.04
3369,5.96
3403,5.85
3437,5.77
3471,5.69
3506,5.59
3541,5.51
3576,5.43
3612,5.36
3648,5.29
3685,5.22
3721,5.17
3759,5.11
3796,5.07
3834,5.03
3873,5.00
3911,5.00
3950,4.96
3990,4.98
4030,5.00
4070,5.03
4111,5.07
4152,5.11
4193,5.19
4235,5.28
4278,5.38
4321,5.45
4364,5.46
4407,5.41
4451,5.34
4496,5.37
4541,5.49
4586,5.70
4632,5.93
4679,6.17
4725,6.36
4773,6.57
4820,6.75
4868,6.91
4917,7.06
4966,7.18
5016,7.26
5066,7.31
5117,7.34
5168,7.31
5220,7.21
5272,7.08
5325,6.87
5378,6.62
5432,6.34
5486,6.03
5541,5.68
5596,5.34
5652,4.98
5709,4.62
5766,4.30
5823,3.98
5882,3.67
5940,3.36
6000,3.12
6060,2.84
6120,2.62
6182,2.39
6244,2.22
6306,2.04
6369,1.91
6433,1.79
6497,1.71
6562,1.67
6628,1.63
6694,1.67
6761,1.74
6828,1.84
6897,1.99
6966,2.19
7035,2.44
7106,2.74
7177,3.10
7249,3.52
7321,3.99
7394,4.51
7468,5.04
7543,5.54
7618,6.01
7694,6.41
7771,6.83
7849,7.17
7928,7.48
8007,7.69
8087,7.49
8168,7.14
8250,6.62
8332,5.98
8415,5.26
8499,4.50
8584,3.72
8670,2.99
8757,2.26
8845,1.54
8933,0.89
9022,0.24
9113,-0.39
9204,-0.95
9296,-1.48
9389,-1.98
9483,-2.43
9577,-2.82
9673,-3.17
9770,-3.45
9868,-3.69
9966,-3.86
10066,-3.99
10167,-4.05
10268,-4.04
10371,-3.95
10475,-3.79
10579,-3.57
10685,-3.24
10792,-2.85
10900,-2.34
11009,-1.76
11119,-1.08
11230,-0.34
11343,0.41
11456,1.08
11571,1.60
11686,1.95
11803,1.78
11921,1.25
12040,0.45
12161,-0.59
12282,-1.72
12405,-2.93
12529,-4.05
12655,-5.10
12781,-6.03
12909,-6.85
13038,-7.56
13168,-8.15
13300,-8.67
13433,-9.09
13567,-9.40
13703,-9.65
13840,-9.79
13978,-9.88
14118,-9.81
14259,-9.63
14402,-9.31
14546,-8.89
14692,-8.29
14838,-7.50
14987,-6.55
15137,-5.52
15288,-4.52
15441,-3.74
15595,-3.18
15751,-3.54
15909,-4.44
16068,-5.68
16229,-7.19
16391,-8.74
16555,-10.22
16720,-11.53
16888,-12.63
17056,-13.57
17227,-14.35
17399,-14.96
17573,-15.43
17749,-15.75
17926,-15.97
18106,-15.88
18287,-15.56
18470,-15.00
18654,-14.17
18841,-13.15
19029,-12.04
19220,-10.99
19412,-10.16
19606,-9.55
19802,-9.26
20000,-9.14
