frequency,raw,smoothed,error,error_smoothed,equalization,parametric_eq,fixed_band_eq,equalized_raw,equalized_smoothed,target
20.00,7.05,7.05,0.24,0.24,-0.22,-0.80,-0.47,6.83,6.83,6.81
20.20,7.06,7.06,0.25,0.25,-0.24,-0.80,-0.48,6.81,6.81,6.81
20.40,7.07,7.07,0.26,0.26,-0.27,-0.80,-0.50,6.80,6.80,6.81
20.61,7.08,7.08,0.27,0.28,-0.29,-0.81,-0.51,6.79,6.79,6.81
20.81,7.11,7.11,0.30,0.30,-0.31,-0.81,-0.53,6.80,6.80,6.81
21.02,7.14,7.14,0.33,0.33,-0.34,-0.81,-0.54,6.80,6.80,6.81
21.23,7.17,7.17,0.36,0.36,-0.36,-0.81,-0.56,6.81,6.81,6.81
21.44,7.19,7.19,0.38,0.39,-0.38,-0.81,-0.57,6.81,6.81,6.81
21.66,7.22,7.22,0.41,0.42,-0.41,-0.82,-0.59,6.81,6.81,6.80
21.87,7.25,7.25,0.45,0.44,-0.44,-0.82,-0.61,6.81,6.81,6.80
22.09,7.27,7.27,0.47,0.47,-0.46,-0.82,-0.62,6.81,6.81,6.80
22.31,7.29,7.29,0.49,0.49,-0.49,-0.82,-0.64,6.80,6.80,6.80
22.54,7.31,7.31,0.51,0.51,-0.51,-0.82,-0.66,6.80,6.80,6.80
22.76,7.33,7.33,0.53,0.53,-0.53,-0.83,-0.68,6.80,6.80,6.80
22.99,7.35,7.35,0.55,0.55,-0.55,-0.83,-0.70,6.80,6.80,6.80
23.22,7.37,7.37,0.57,0.57,-0.57,-0.83,-0.72,6.80,6.80,6.80
23.45,7.39,7.39,0.59,0.59,-0.59,-0.83,-0.74,6.80,6.80,6.80
23.69,7.41,7.41,0.61,0.61,-0.61,-0.84,-0.76,6.80,6.80,6.80
23.92,7.42,7.42,0.62,0.63,-0.63,-0.84,-0.78,6.79,6.80,6.80
24.16,7.44,7.44,0.65,0.64,-0.65,-0.84,-0.80,6.79,6.79,6.79
24.40,7.46,7.46,0.67,0.67,-0.67,-0.85,-0.82,6.79,6.79,6.79
24.65,7.48,7.48,0.69,0.69,-0.69,-0.85,-0.84,6.78,6.79,6.79
24.89,7.51,7.51,0.72,0.72,-0.72,-0.85,-0.87,6.79,6.79,6.79
25.14,7.54,7.54,0.75,0.75,-0.75,-0.85,-0.89,6.79,6.79,6.79
25.39,7.56,7.56,0.77,0.78,-0.78,-0.86,-0.91,6.78,6.79,6.79
25.65,7.59,7.59,0.80,0.80,-0.80,-0.86,-0.93,6.78,6.79,6.79
25.91,7.62,7.62,0.83,0.83,-0.83,-0.86,-0.96,6.79,6.79,6.78
26.16,7.65,7.65,0.87,0.86,-0.86,-0.87,-0.98,6.79,6.79,6.78
26.43,7.67,7.67,0.89,0.89,-0.89,-0.87,-1.00,6.78,6.78,6.78
26.69,7.69,7.69,0.91,0.91,-0.91,-0.87,-1.02,6.78,6.78,6.78
26.96,7.71,7.71,0.93,0.93,-0.93,-0.88,-1.05,6.78,6.78,6.78
27.23,7.73,7.73,0.95,0.95,-0.95,-0.88,-1.07,6.78,6.78,6.78
27.50,7.74,7.74,0.96,0.97,-0.96,-0.88,-1.09,6.78,6.78,6.77
27.77,7.75,7.75,0.98,0.98,-0.97,-0.89,-1.11,6.77,6.78,6.77
28.05,7.76,7.76,0.99,0.99,-0.98,-0.89,-1.13,6.77,6.77,6.77
28.33,7.76,7.76,0.99,0.99,-0.99,-0.89,-1.15,6.77,6.77,6.77
28.62,7.77,7.77,1.00,1.00,-1.00,-0.90,-1.17,6.77,6.76,6.77
28.90,7.77,7.77,1.01,1.01,-1.01,-0.90,-1.18,6.76,6.76,6.76
29.19,7.78,7.78,1.02,1.02,-1.02,-0.91,-1.20,6.76,6.76,6.76
29.48,7.79,7.79,1.03,1.03,-1.03,-0.91,-1.21,6.76,6.75,6.76
29.78,7.80,7.80,1.04,1.05,-1.05,-0.91,-1.23,6.75,6.75,6.76
30.08,7.82,7.82,1.07,1.06,-1.06,-0.92,-1.24,6.75,6.75,6.75
30.38,7.83,7.83,1.08,1.08,-1.08,-0.92,-1.25,6.75,6.75,6.75
30.68,7.85,7.85,1.10,1.10,-1.10,-0.93,-1.26,6.75,6.75,6.75
30.99,7.86,7.86,1.11,1.12,-1.11,-0.93,-1.27,6.74,6.75,6.75
31.30,7.88,7.88,1.14,1.13,-1.13,-0.94,-1.27,6.75,6.75,6.74
31.61,7.89,7.89,1.15,1.15,-1.14,-0.94,-1.28,6.75,6.74,6.74
31.93,7.89,7.89,1.15,1.16,-1.15,-0.94,-1.28,6.74,6.74,6.74
32.24,7.90,7.90,1.17,1.16,-1.16,-0.95,-1.28,6.74,6.73,6.73
32.57,7.90,7.90,1.17,1.17,-1.17,-0.95,-1.28,6.73,6.73,6.73
32.89,7.90,7.90,1.17,1.18,-1.18,-0.96,-1.28,6.72,6.72,6.73
33.22,7.90,7.90,1.18,1.18,-1.18,-0.96,-1.28,6.72,6.72,6.72
33.55,7.91,7.90,1.19,1.19,-1.19,-0.97,-1.28,6.72,6.71,6.72
33.89,7.91,7.91,1.20,1.19,-1.20,-0.97,-1.27,6.71,6.71,6.71
34.23,7.91,7.91,1.20,1.20,-1.21,-0.98,-1.27,6.70,6.71,6.71
34.57,7.92,7.92,1.21,1.21,-1.21,-0.98,-1.26,6.71,6.71,6.70
34.92,7.93,7.93,1.23,1.22,-1.22,-0.99,-1.26,6.71,6.70,6.70
35.27,7.93,7.93,1.23,1.23,-1.23,-1.00,-1.25,6.70,6.70,6.70
35.62,7.93,7.93,1.24,1.24,-1.24,-1.00,-1.24,6.69,6.69,6.69
35.97,7.93,7.93,1.24,1.24,-1.24,-1.01,-1.23,6.68,6.68,6.69
36.33,7.93,7.93,1.25,1.25,-1.25,-1.01,-1.22,6.68,6.68,6.68
36.70,7.93,7.93,1.25,1.25,-1.26,-1.02,-1.22,6.67,6.67,6.67
37.06,7.93,7.93,1.26,1.26,-1.26,-1.03,-1.21,6.67,6.67,6.67
37.43,7.93,7.93,1.27,1.27,-1.26,-1.03,-1.20,6.67,6.66,6.66
37.81,7.93,7.93,1.27,1.27,-1.27,-1.04,-1.19,6.66,6.66,6.66
38.19,7.92,7.92,1.27,1.27,-1.27,-1.04,-1.18,6.65,6.65,6.65
38.57,7.92,7.92,1.27,1.28,-1.28,-1.05,-1.17,6.64,6.64,6.64
38.95,7.92,7.92,1.28,1.28,-1.28,-1.06,-1.16,6.64,6.64,6.64
39.34,7.92,7.92,1.29,1.29,-1.29,-1.06,-1.16,6.63,6.63,6.63
39.74,7.91,7.91,1.29,1.29,-1.29,-1.07,-1.15,6.62,6.62,6.62
40.14,7.91,7.91,1.29,1.29,-1.29,-1.08,-1.14,6.62,6.62,6.62
40.54,7.91,7.91,1.30,1.30,-1.30,-1.09,-1.14,6.61,6.61,6.61
40.94,7.90,7.90,1.30,1.30,-1.30,-1.09,-1.13,6.60,6.60,6.60
41.35,7.90,7.90,1.31,1.30,-1.30,-1.10,-1.12,6.60,6.59,6.59
41.76,7.89,7.89,1.31,1.31,-1.31,-1.11,-1.12,6.58,6.58,6.58
42.18,7.88,7.88,1.31,1.31,-1.31,-1.12,-1.12,6.57,6.57,6.57
42.60,7.88,7.88,1.32,1.31,-1.31,-1.12,-1.11,6.56,6.56,6.56
43.03,7.87,7.87,1.31,1.32,-1.32,-1.13,-1.11,6.55,6.55,6.55
43.46,7.87,7.87,1.32,1.32,-1.32,-1.14,-1.11,6.55,6.54,6.54
43.90,7.86,7.86,1.33,1.33,-1.33,-1.15,-1.11,6.53,6.53,6.53
44.33,7.86,7.86,1.34,1.33,-1.33,-1.16,-1.11,6.53,6.53,6.52
44.78,7.85,7.85,1.34,1.34,-1.34,-1.17,-1.11,6.51,6.51,6.51
45.23,7.84,7.84,1.34,1.34,-1.34,-1.17,-1.11,6.50,6.50,6.50
45.68,7.83,7.83,1.34,1.34,-1.34,-1.18,-1.12,6.49,6.49,6.49
46.13,7.82,7.82,1.34,1.34,-1.35,-1.19,-1.12,6.47,6.47,6.48
46.60,7.81,7.81,1.35,1.35,-1.35,-1.20,-1.13,6.46,6.46,6.46
47.06,7.80,7.80,1.35,1.35,-1.35,-1.21,-1.13,6.45,6.45,6.45
47.53,7.79,7.79,1.35,1.35,-1.35,-1.22,-1.14,6.44,6.44,6.44
48.01,7.78,7.78,1.36,1.36,-1.36,-1.23,-1.14,6.42,6.42,6.42
48.49,7.77,7.77,1.36,1.36,-1.36,-1.24,-1.15,6.41,6.41,6.41
48.97,7.75,7.75,1.36,1.36,-1.36,-1.25,-1.16,6.39,6.39,6.39
49.46,7.74,7.74,1.36,1.36,-1.37,-1.26,-1.17,6.37,6.37,6.38
49.96,7.73,7.73,1.37,1.37,-1.37,-1.27,-1.18,6.36,6.36,6.36
50.46,7.72,7.72,1.38,1.38,-1.38,-1.28,-1.19,6.34,6.34,6.34
50.96,7.71,7.71,1.38,1.38,-1.38,-1.29,-1.20,6.33,6.32,6.32
51.47,7.69,7.69,1.38,1.39,-1.39,-1.30,-1.21,6.30,6.31,6.31
51.99,7.68,7.68,1.39,1.39,-1.39,-1.31,-1.23,6.29,6.29,6.29
52.51,7.67,7.67,1.40,1.40,-1.39,-1.33,-1.24,6.27,6.27,6.27
53.03,7.65,7.65,1.40,1.40,-1.40,-1.34,-1.25,6.25,6.25,6.25
53.56,7.63,7.63,1.40,1.40,-1.40,-1.35,-1.26,6.23,6.23,6.23
54.10,7.61,7.61,1.40,1.40,-1.40,-1.36,-1.28,6.21,6.21,6.21
54.64,7.59,7.59,1.40,1.40,-1.41,-1.37,-1.29,6.18,6.18,6.18
55.18,7.57,7.57,1.41,1.41,-1.41,-1.39,-1.31,6.16,6.16,6.16
55.74,7.56,7.55,1.42,1.42,-1.42,-1.40,-1.32,6.14,6.14,6.14
56.29,7.54,7.54,1.42,1.42,-1.43,-1.41,-1.34,6.11,6.11,6.11
56.86,7.52,7.52,1.43,1.43,-1.44,-1.42,-1.35,6.08,6.08,6.09
57.42,7.51,7.51,1.44,1.44,-1.46,-1.44,-1.36,6.05,6.05,6.06
58.00,7.50,7.50,1.46,1.46,-1.47,-1.45,-1.38,6.02,6.03,6.04
58.58,7.50,7.50,1.49,1.49,-1.49,-1.46,-1.39,6.01,6.01,6.01
59.16,7.50,7.50,1.52,1.51,-1.51,-1.48,-1.41,5.99,5.99,5.98
59.76,7.49,7.49,1.54,1.54,-1.52,-1.49,-1.42,5.97,5.97,5.95
60.35,7.48,7.47,1.56,1.55,-1.53,-1.51,-1.43,5.95,5.94,5.92
60.96,7.45,7.44,1.56,1.55,-1.54,-1.52,-1.45,5.91,5.91,5.89
61.57,7.40,7.40,1.54,1.54,-1.54,-1.54,-1.46,5.86,5.86,5.86
62.18,7.36,7.36,1.53,1.53,-1.54,-1.55,-1.47,5.82,5.82,5.83
62.80,7.32,7.32,1.52,1.52,-1.54,-1.57,-1.48,5.78,5.78,5.80
63.43,7.29,7.29,1.53,1.53,-1.53,-1.58,-1.50,5.75,5.75,5.76
64.07,7.26,7.26,1.53,1.53,-1.53,-1.60,-1.51,5.73,5.72,5.73
64.71,7.23,7.23,1.54,1.54,-1.54,-1.61,-1.52,5.69,5.69,5.69
65.35,7.20,7.20,1.55,1.55,-1.54,-1.63,-1.53,5.66,5.66,5.65
66.01,7.17,7.17,1.55,1.55,-1.55,-1.65,-1.54,5.62,5.62,5.62
66.67,7.14,7.14,1.56,1.56,-1.56,-1.66,-1.55,5.58,5.58,5.58
67.33,7.11,7.11,1.57,1.58,-1.58,-1.68,-1.56,5.53,5.53,5.54
68.01,7.09,7.09,1.59,1.59,-1.59,-1.70,-1.57,5.49,5.49,5.50
68.69,7.06,7.06,1.61,1.61,-1.61,-1.71,-1.59,5.45,5.45,5.45
69.37,7.04,7.04,1.63,1.63,-1.63,-1.73,-1.60,5.41,5.41,5.41
70.07,7.02,7.02,1.65,1.65,-1.65,-1.75,-1.61,5.37,5.37,5.37
70.77,7.00,7.00,1.68,1.68,-1.67,-1.77,-1.62,5.33,5.33,5.32
71.48,6.97,6.97,1.69,1.69,-1.69,-1.79,-1.63,5.28,5.28,5.27
72.19,6.94,6.94,1.71,1.71,-1.71,-1.80,-1.64,5.23,5.23,5.23
72.91,6.91,6.91,1.73,1.73,-1.73,-1.82,-1.66,5.18,5.18,5.18
73.64,6.88,6.88,1.75,1.75,-1.75,-1.84,-1.67,5.12,5.13,5.13
74.38,6.85,6.85,1.77,1.77,-1.78,-1.86,-1.69,5.07,5.08,5.08
75.12,6.83,6.83,1.80,1.80,-1.80,-1.88,-1.70,5.03,5.03,5.03
75.87,6.80,6.80,1.82,1.82,-1.82,-1.90,-1.72,4.98,4.98,4.98
76.63,6.77,6.77,1.85,1.84,-1.84,-1.92,-1.74,4.93,4.93,4.92
77.40,6.73,6.73,1.86,1.86,-1.86,-1.94,-1.76,4.87,4.87,4.87
78.17,6.70,6.70,1.89,1.88,-1.88,-1.97,-1.78,4.81,4.81,4.81
78.95,6.66,6.66,1.90,1.90,-1.91,-1.99,-1.80,4.75,4.75,4.76
79.74,6.63,6.63,1.93,1.93,-1.93,-2.01,-1.82,4.70,4.70,4.70
80.54,6.59,6.59,1.95,1.95,-1.95,-2.03,-1.84,4.64,4.64,4.64
81.35,6.56,6.56,1.98,1.97,-1.97,-2.05,-1.87,4.59,4.58,4.58
82.16,6.52,6.52,2.00,2.00,-2.00,-2.08,-1.89,4.52,4.52,4.52
82.98,6.48,6.48,2.02,2.02,-2.02,-2.10,-1.92,4.46,4.46,4.46
83.81,6.45,6.45,2.05,2.05,-2.05,-2.12,-1.95,4.40,4.40,4.40
84.65,6.41,6.41,2.07,2.07,-2.07,-2.14,-1.98,4.34,4.34,4.34
85.50,6.37,6.37,2.10,2.10,-2.10,-2.17,-2.02,4.27,4.27,4.27
86.35,6.33,6.33,2.12,2.12,-2.12,-2.19,-2.05,4.20,4.21,4.21
87.22,6.29,6.29,2.15,2.15,-2.15,-2.22,-2.09,4.14,4.14,4.14
88.09,6.26,6.26,2.18,2.18,-2.18,-2.24,-2.12,4.08,4.08,4.08
88.97,6.22,6.22,2.21,2.21,-2.20,-2.27,-2.16,4.01,4.01,4.01
89.86,6.18,6.18,2.24,2.23,-2.23,-2.29,-2.20,3.95,3.95,3.94
90.76,6.13,6.13,2.25,2.26,-2.26,-2.32,-2.25,3.87,3.88,3.88
91.66,6.09,6.09,2.28,2.28,-2.28,-2.34,-2.29,3.81,3.81,3.81
92.58,6.04,6.04,2.30,2.30,-2.30,-2.37,-2.34,3.73,3.74,3.74
93.51,6.00,6.00,2.33,2.33,-2.33,-2.40,-2.38,3.67,3.67,3.67
94.44,5.95,5.95,2.35,2.35,-2.35,-2.42,-2.43,3.60,3.60,3.60
95.39,5.90,5.90,2.37,2.37,-2.37,-2.45,-2.48,3.53,3.53,3.53
96.34,5.85,5.85,2.39,2.39,-2.39,-2.48,-2.54,3.46,3.45,3.46
97.30,5.80,5.80,2.41,2.42,-2.42,-2.50,-2.59,3.38,3.38,3.38
98.28,5.75,5.75,2.44,2.44,-2.44,-2.53,-2.64,3.31,3.31,3.31
99.26,5.71,5.71,2.47,2.47,-2.47,-2.56,-2.70,3.24,3.24,3.24
100.25,5.66,5.66,2.49,2.50,-2.50,-2.59,-2.75,3.16,3.17,3.17
101.25,5.62,5.62,2.52,2.52,-2.53,-2.62,-2.81,3.09,3.09,3.09
102.27,5.58,5.58,2.56,2.55,-2.55,-2.65,-2.87,3.03,3.02,3.02
103.29,5.53,5.53,2.58,2.58,-2.58,-2.67,-2.92,2.95,2.95,2.95
104.32,5.49,5.49,2.61,2.61,-2.60,-2.70,-2.98,2.88,2.88,2.88
105.37,5.44,5.44,2.64,2.63,-2.63,-2.73,-3.04,2.81,2.81,2.80
106.42,5.38,5.38,2.65,2.65,-2.65,-2.76,-3.09,2.73,2.74,2.73
107.48,5.33,5.33,2.67,2.67,-2.66,-2.79,-3.15,2.66,2.66,2.66
108.56,5.27,5.27,2.69,2.69,-2.68,-2.82,-3.21,2.59,2.59,2.58
109.64,5.22,5.21,2.71,2.70,-2.70,-2.85,-3.26,2.51,2.51,2.51
110.74,5.16,5.16,2.72,2.73,-2.73,-2.88,-3.31,2.43,2.43,2.44
111.85,5.12,5.12,2.75,2.75,-2.76,-2.91,-3.36,2.36,2.36,2.37
112.97,5.09,5.09,2.79,2.79,-2.80,-2.94,-3.41,2.28,2.28,2.29
114.10,5.06,5.07,2.84,2.84,-2.85,-2.97,-3.46,2.20,2.21,2.22
115.24,5.06,5.06,2.91,2.91,-2.91,-3.00,-3.50,2.15,2.14,2.15
116.39,5.06,5.06,2.98,2.98,-2.98,-3.03,-3.54,2.08,2.08,2.08
117.55,5.07,5.07,3.06,3.06,-3.05,-3.06,-3.58,2.01,2.01,2.01
118.73,5.07,5.07,3.13,3.13,-3.13,-3.09,-3.61,1.94,1.94,1.94
119.92,5.08,5.08,3.21,3.21,-3.21,-3.12,-3.64,1.87,1.87,1.87
121.12,5.09,5.09,3.29,3.29,-3.28,-3.15,-3.67,1.81,1.80,1.80
122.33,5.09,5.09,3.36,3.36,-3.35,-3.18,-3.68,1.74,1.74,1.73
123.55,5.09,5.09,3.42,3.42,-3.41,-3.20,-3.70,1.68,1.68,1.67
124.79,5.07,5.07,3.47,3.47,-3.46,-3.23,-3.71,1.61,1.61,1.60
126.03,5.05,5.05,3.52,3.51,-3.50,-3.26,-3.72,1.54,1.54,1.53
127.29,5.01,5.01,3.54,3.54,-3.54,-3.29,-3.72,1.47,1.47,1.47
128.57,4.97,4.97,3.57,3.57,-3.57,-3.31,-3.72,1.40,1.40,1.40
129.85,4.92,4.92,3.58,3.58,-3.59,-3.34,-3.72,1.33,1.33,1.34
131.15,4.88,4.88,3.60,3.60,-3.60,-3.37,-3.71,1.27,1.27,1.28
132.46,4.83,4.83,3.62,3.61,-3.62,-3.39,-3.69,1.21,1.21,1.21
133.79,4.78,4.78,3.63,3.63,-3.63,-3.42,-3.68,1.15,1.15,1.15
135.12,4.73,4.73,3.64,3.64,-3.64,-3.44,-3.65,1.09,1.09,1.09
136.48,4.68,4.68,3.65,3.64,-3.64,-3.46,-3.63,1.04,1.03,1.03
137.84,4.62,4.62,3.64,3.65,-3.65,-3.48,-3.60,0.97,0.98,0.97
139.22,4.57,4.57,3.65,3.65,-3.65,-3.51,-3.58,0.92,0.92,0.92
140.61,4.52,4.51,3.66,3.65,-3.66,-3.53,-3.54,0.86,0.86,0.86
142.02,4.46,4.46,3.65,3.66,-3.66,-3.55,-3.51,0.80,0.80,0.80
143.44,4.41,4.41,3.66,3.66,-3.66,-3.57,-3.48,0.75,0.75,0.75
144.87,4.36,4.36,3.66,3.66,-3.66,-3.58,-3.44,0.70,0.70,0.70
146.32,4.31,4.31,3.67,3.67,-3.66,-3.60,-3.41,0.64,0.64,0.64
147.78,4.26,4.26,3.67,3.67,-3.67,-3.62,-3.37,0.59,0.59,0.59
149.26,4.21,4.21,3.67,3.67,-3.67,-3.63,-3.33,0.54,0.54,0.54
150.75,4.16,4.16,3.67,3.67,-3.67,-3.64,-3.30,0.49,0.49,0.49
152.26,4.11,4.11,3.67,3.67,-3.67,-3.65,-3.26,0.44,0.44,0.44
153.78,4.06,4.06,3.66,3.67,-3.67,-3.66,-3.23,0.39,0.39,0.40
155.32,4.02,4.02,3.67,3.67,-3.67,-3.67,-3.19,0.35,0.35,0.35
156.88,3.97,3.97,3.67,3.67,-3.67,-3.68,-3.16,0.30,0.30,0.30
158.44,3.93,3.93,3.67,3.67,-3.67,-3.69,-3.13,0.26,0.26,0.26
160.03,3.88,3.88,3.66,3.67,-3.67,-3.69,-3.10,0.21,0.21,0.22
161.63,3.84,3.84,3.68,3.67,-3.67,-3.70,-3.07,0.17,0.17,0.16
163.24,3.79,3.79,3.67,3.67,-3.66,-3.70,-3.04,0.13,0.13,0.12
164.88,3.74,3.74,3.66,3.66,-3.65,-3.70,-3.02,0.09,0.09,0.08
166.53,3.69,3.69,3.65,3.65,-3.64,-3.70,-2.99,0.05,0.04,0.04
168.19,3.64,3.64,3.63,3.63,-3.63,-3.70,-2.97,0.01,0.00,0.00
169.87,3.58,3.58,3.61,3.62,-3.62,-3.69,-2.95,-0.04,-0.04,-0.03
171.57,3.53,3.53,3.60,3.60,-3.60,-3.69,-2.94,-0.07,-0.07,-0.07
173.29,3.48,3.48,3.58,3.58,-3.58,-3.68,-2.92,-0.11,-0.11,-0.10
175.02,3.43,3.43,3.57,3.57,-3.57,-3.67,-2.91,-0.14,-0.14,-0.14
176.77,3.38,3.38,3.55,3.55,-3.55,-3.66,-2.90,-0.17,-0.17,-0.17
178.54,3.33,3.33,3.53,3.53,-3.53,-3.65,-2.89,-0.20,-0.20,-0.21
180.32,3.28,3.28,3.52,3.52,-3.52,-3.64,-2.89,-0.24,-0.24,-0.24
182.13,3.23,3.23,3.50,3.50,-3.50,-3.62,-2.88,-0.27,-0.27,-0.27
183.95,3.19,3.19,3.49,3.49,-3.49,-3.61,-2.88,-0.30,-0.30,-0.30
185.79,3.15,3.15,3.48,3.47,-3.48,-3.59,-2.88,-0.33,-0.33,-0.33
187.65,3.11,3.11,3.46,3.47,-3.47,-3.57,-2.89,-0.36,-0.36,-0.36
189.52,3.08,3.08,3.46,3.46,-3.46,-3.55,-2.89,-0.39,-0.39,-0.38
191.42,3.05,3.05,3.46,3.46,-3.46,-3.53,-2.90,-0.41,-0.41,-0.41
193.33,3.02,3.02,3.45,3.46,-3.45,-3.51,-2.91,-0.43,-0.43,-0.44
195.27,2.99,2.99,3.45,3.45,-3.44,-3.49,-2.92,-0.45,-0.46,-0.46
197.22,2.95,2.95,3.43,3.43,-3.43,-3.46,-2.93,-0.48,-0.48,-0.48
199.19,2.91,2.91,3.42,3.42,-3.42,-3.44,-2.95,-0.51,-0.51,-0.51
201.18,2.87,2.87,3.40,3.40,-3.40,-3.41,-2.96,-0.53,-0.53,-0.53
203.19,2.83,2.83,3.38,3.38,-3.38,-3.39,-2.98,-0.55,-0.55,-0.55
205.23,2.78,2.78,3.35,3.36,-3.36,-3.36,-2.99,-0.58,-0.57,-0.58
207.28,2.74,2.74,3.33,3.33,-3.33,-3.33,-3.01,-0.59,-0.59,-0.60
209.35,2.69,2.69,3.31,3.30,-3.30,-3.30,-3.03,-0.62,-0.62,-0.62
211.44,2.64,2.64,3.27,3.28,-3.28,-3.27,-3.05,-0.64,-0.64,-0.64
213.56,2.59,2.59,3.24,3.25,-3.25,-3.23,-3.07,-0.66,-0.66,-0.65
215.69,2.55,2.54,3.22,3.22,-3.22,-3.20,-3.09,-0.67,-0.67,-0.67
217.85,2.50,2.50,3.19,3.19,-3.19,-3.17,-3.11,-0.69,-0.69,-0.69
220.03,2.45,2.45,3.16,3.16,-3.16,-3.13,-3.12,-0.71,-0.71,-0.71
222.23,2.41,2.40,3.13,3.13,-3.13,-3.10,-3.14,-0.72,-0.72,-0.72
224.45,2.36,2.36,3.10,3.10,-3.10,-3.06,-3.15,-0.74,-0.74,-0.74
226.70,2.31,2.31,3.06,3.07,-3.07,-3.03,-3.17,-0.76,-0.76,-0.76
228.96,2.27,2.27,3.04,3.04,-3.04,-2.99,-3.18,-0.77,-0.77,-0.77
231.25,2.22,2.22,3.00,3.01,-3.01,-2.95,-3.19,-0.79,-0.79,-0.78
233.57,2.18,2.18,2.98,2.98,-2.98,-2.92,-3.19,-0.80,-0.80,-0.80
235.90,2.13,2.13,2.95,2.95,-2.95,-2.88,-3.20,-0.82,-0.82,-0.82
238.26,2.09,2.09,2.92,2.92,-2.92,-2.84,-3.20,-0.83,-0.83,-0.84
240.64,2.04,2.04,2.89,2.89,-2.89,-2.80,-3.19,-0.85,-0.84,-0.85
243.05,2.00,2.00,2.86,2.86,-2.85,-2.76,-3.19,-0.85,-0.86,-0.86
245.48,1.95,1.95,2.82,2.82,-2.82,-2.73,-3.18,-0.87,-0.87,-0.87
247.93,1.90,1.90,2.78,2.78,-2.78,-2.69,-3.16,-0.89,-0.88,-0.88
250.41,1.85,1.85,2.74,2.75,-2.75,-2.65,-3.14,-0.90,-0.90,-0.89
252.92,1.81,1.81,2.71,2.71,-2.71,-2.61,-3.12,-0.90,-0.91,-0.90
255.45,1.76,1.76,2.67,2.68,-2.68,-2.57,-3.09,-0.92,-0.92,-0.91
258.00,1.72,1.72,2.64,2.64,-2.64,-2.53,-3.07,-0.92,-0.92,-0.92
260.58,1.67,1.67,2.60,2.61,-2.61,-2.49,-3.03,-0.94,-0.93,-0.93
263.19,1.63,1.63,2.57,2.57,-2.57,-2.45,-2.99,-0.94,-0.94,-0.94
265.82,1.59,1.58,2.54,2.54,-2.54,-2.42,-2.95,-0.95,-0.95,-0.95
268.48,1.54,1.54,2.50,2.50,-2.50,-2.38,-2.91,-0.96,-0.96,-0.96
271.16,1.50,1.50,2.47,2.47,-2.47,-2.34,-2.86,-0.97,-0.97,-0.97
273.87,1.46,1.45,2.44,2.43,-2.43,-2.30,-2.81,-0.97,-0.98,-0.98
276.61,1.41,1.41,2.39,2.40,-2.40,-2.26,-2.76,-0.99,-0.98,-0.98
279.38,1.37,1.37,2.36,2.36,-2.36,-2.22,-2.70,-0.99,-0.99,-0.99
282.17,1.33,1.33,2.33,2.32,-2.32,-2.19,-2.64,-0.99,-0.99,-1.00
284.99,1.29,1.29,2.28,2.28,-2.28,-2.15,-2.59,-0.99,-0.99,-1.00
287.84,1.24,1.24,2.23,2.24,-2.24,-2.11,-2.52,-1.00,-1.00,-0.99
290.72,1.20,1.20,2.20,2.19,-2.20,-2.07,-2.46,-1.00,-1.00,-1.00
293.63,1.15,1.15,2.15,2.15,-2.15,-2.04,-2.40,-1.00,-1.00,-1.00
296.57,1.11,1.11,2.11,2.11,-2.11,-2.00,-2.33,-1.00,-1.00,-1.00
299.53,1.07,1.07,2.07,2.07,-2.07,-1.96,-2.27,-1.00,-1.00,-1.00
302.53,1.03,1.03,2.03,2.03,-2.03,-1.93,-2.20,-1.00,-1.00,-1.00
305.55,0.99,0.99,1.99,1.99,-1.99,-1.89,-2.14,-1.00,-1.00,-1.00
308.61,0.95,0.95,1.95,1.95,-1.95,-1.85,-2.07,-1.00,-1.00,-1.00
311.69,0.92,0.92,1.92,1.92,-1.91,-1.82,-2.01,-0.99,-1.00,-1.00
314.81,0.88,0.88,1.88,1.88,-1.87,-1.78,-1.94,-1.00,-1.00,-1.00
317.96,0.84,0.84,1.84,1.84,-1.84,-1.75,-1.88,-1.00,-1.00,-1.00
321.14,0.80,0.80,1.80,1.80,-1.80,-1.71,-1.81,-1.00,-1.00,-1.00
324.35,0.76,0.76,1.75,1.76,-1.76,-1.68,-1.75,-1.00,-1.00,-1.00
327.59,0.72,0.72,1.71,1.72,-1.72,-1.65,-1.69,-1.00,-1.00,-0.99
330.87,0.69,0.69,1.68,1.68,-1.68,-1.61,-1.62,-0.99,-0.99,-0.99
334.18,0.65,0.65,1.64,1.64,-1.64,-1.58,-1.56,-0.99,-0.99,-0.99
337.52,0.61,0.61,1.60,1.60,-1.59,-1.55,-1.50,-0.99,-0.99,-0.99
340.90,0.57,0.57,1.55,1.55,-1.55,-1.51,-1.44,-0.98,-0.98,-0.98
344.30,0.53,0.53,1.51,1.51,-1.51,-1.48,-1.38,-0.98,-0.98,-0.98
347.75,0.50,0.49,1.47,1.47,-1.47,-1.45,-1.32,-0.97,-0.98,-0.97
351.23,0.46,0.46,1.43,1.43,-1.43,-1.42,-1.27,-0.97,-0.97,-0.97
354.74,0.42,0.42,1.38,1.39,-1.39,-1.38,-1.21,-0.97,-0.96,-0.96
358.28,0.39,0.39,1.35,1.34,-1.35,-1.35,-1.15,-0.96,-0.96,-0.96
361.87,0.35,0.35,1.30,1.30,-1.31,-1.32,-1.10,-0.96,-0.95,-0.95
365.49,0.32,0.32,1.27,1.27,-1.27,-1.29,-1.05,-0.95,-0.95,-0.95
369.14,0.28,0.28,1.23,1.23,-1.23,-1.26,-0.99,-0.95,-0.94,-0.95
372.83,0.25,0.25,1.18,1.19,-1.19,-1.23,-0.94,-0.94,-0.94,-0.93
376.56,0.22,0.22,1.15,1.15,-1.15,-1.20,-0.89,-0.93,-0.93,-0.93
380.33,0.18,0.18,1.11,1.11,-1.11,-1.17,-0.84,-0.93,-0.93,-0.93
384.13,0.15,0.15,1.08,1.07,-1.07,-1.14,-0.79,-0.92,-0.92,-0.93
387.97,0.11,0.11,1.03,1.03,-1.03,-1.11,-0.74,-0.92,-0.92,-0.92
391.85,0.08,0.08,0.98,0.99,-0.99,-1.08,-0.70,-0.91,-0.91,-0.90
395.77,0.05,0.04,0.95,0.95,-0.95,-1.05,-0.65,-0.90,-0.91,-0.90
399.73,0.01,0.01,0.91,0.91,-0.91,-1.02,-0.60,-0.90,-0.90,-0.90
403.72,-0.02,-0.02,0.87,0.87,-0.87,-0.99,-0.56,-0.90,-0.89,-0.89
407.76,-0.05,-0.05,0.84,0.83,-0.84,-0.96,-0.52,-0.89,-0.89,-0.89
411.84,-0.08,-0.08,0.80,0.80,-0.80,-0.93,-0.47,-0.88,-0.88,-0.88
415.96,-0.11,-0.11,0.76,0.77,-0.76,-0.91,-0.43,-0.87,-0.87,-0.87
420.12,-0.14,-0.14,0.73,0.73,-0.73,-0.88,-0.39,-0.87,-0.87,-0.88
424.32,-0.18,-0.18,0.69,0.69,-0.69,-0.85,-0.35,-0.87,-0.87,-0.87
428.56,-0.21,-0.21,0.65,0.65,-0.65,-0.82,-0.31,-0.86,-0.86,-0.86
432.85,-0.24,-0.24,0.61,0.61,-0.61,-0.79,-0.27,-0.85,-0.86,-0.85
437.18,-0.27,-0.27,0.58,0.58,-0.57,-0.76,-0.24,-0.85,-0.85,-0.85
441.55,-0.30,-0.30,0.54,0.54,-0.54,-0.73,-0.20,-0.84,-0.84,-0.84
445.96,-0.33,-0.33,0.50,0.50,-0.50,-0.70,-0.17,-0.83,-0.83,-0.83
450.42,-0.36,-0.36,0.45,0.46,-0.46,-0.67,-0.13,-0.82,-0.82,-0.82
454.93,-0.39,-0.39,0.42,0.42,-0.42,-0.64,-0.10,-0.81,-0.81,-0.81
459.48,-0.42,-0.42,0.38,0.38,-0.39,-0.61,-0.07,-0.81,-0.80,-0.80
464.07,-0.44,-0.44,0.36,0.35,-0.35,-0.59,-0.04,-0.79,-0.79,-0.80
468.71,-0.47,-0.47,0.32,0.32,-0.31,-0.55,-0.01,-0.78,-0.78,-0.79
473.40,-0.50,-0.50,0.28,0.28,-0.28,-0.52,0.02,-0.78,-0.78,-0.78
478.13,-0.53,-0.53,0.24,0.24,-0.24,-0.49,0.04,-0.77,-0.77,-0.77
482.91,-0.56,-0.56,0.20,0.20,-0.21,-0.46,0.07,-0.77,-0.77,-0.76
487.74,-0.58,-0.58,0.17,0.17,-0.17,-0.43,0.09,-0.75,-0.76,-0.75
492.62,-0.61,-0.61,0.13,0.14,-0.13,-0.40,0.11,-0.75,-0.74,-0.75
497.55,-0.63,-0.63,0.11,0.10,-0.10,-0.37,0.13,-0.73,-0.73,-0.74
502.52,-0.66,-0.66,0.07,0.06,-0.06,-0.33,0.15,-0.72,-0.72,-0.73
507.55,-0.69,-0.69,0.02,0.02,-0.02,-0.30,0.17,-0.72,-0.71,-0.71
512.62,-0.71,-0.71,-0.01,-0.02,0.01,-0.27,0.18,-0.70,-0.70,-0.70
