frequency,raw
20,-39.24
21,-38.47
22,-37.68
23,-36.74
24,-35.66
25,-34.60
26,-33.48
27,-32.30
28,-31.16
29,-30.06
30,-29.24
31,-28.21
32,-27.49
33,-26.80
34,-26.29
35,-25.63
36,-25.16
37,-24.54
38,-24.10
39,-23.59
40,-23.15
41,-22.71
42,-22.33
43,-21.96
44,-21.58
45,-21.17
46,-20.76
47,-20.51
48,-20.12
49,-19.88
50,-19.52
51,-19.40
52,-19.05
53,-18.83
54,-18.62
55,-18.34
56,-18.16
57,-18.01
58,-17.82
59,-17.62
60,-17.51
61,-17.30
62,-17.19
63,-17.04
64,-16.87
65,-16.84
66,-16.54
67,-16.54
68,-16.51
69,-16.34
70,-16.22
71,-16.22
72,-16.18
73,-16.03
74,-15.89
75,-15.89
76,-15.89
77,-15.89
78,-15.89
79,-15.89
80,-15.81
81,-15.73
82,-15.69
83,-15.57
84,-15.57
85,-15.57
86,-15.57
87,-15.57
88,-15.57
89,-15.57
90,-15.57
91,-15.57
92,-15.53
93,-15.40
94,-15.28
95,-15.24
96,-15.24
97,-15.24
98,-15.24
99,-15.24
100,-15.24
101,-15.24
102,-15.24
104,-15.11
105,-15.01
106,-14.92
107,-14.92
108,-14.92
109,-14.92
110,-14.92
111,-14.92
112,-14.92
113,-14.92
114,-14.89
115,-14.79
117,-14.76
118,-14.66
119,-14.59
120,-14.59
121,-14.59
123,-14.59
124,-14.59
125,-14.59
126,-14.59
128,-14.59
129,-14.59
130,-14.59
131,-14.59
133,-14.44
134,-14.43
135,-14.43
137,-14.27
138,-14.27
140,-14.27
141,-14.27
142,-14.27
144,-14.27
145,-14.27
147,-14.27
148,-14.27
150,-14.27
151,-14.27
153,-14.27
154,-14.27
156,-14.27
157,-14.27
159,-14.21
160,-14.14
162,-14.11
164,-14.11
165,-14.11
167,-13.98
169,-13.95
170,-13.95
172,-13.95
174,-13.95
175,-13.95
177,-13.95
179,-13.95
181,-13.88
183,-13.76
184,-13.70
186,-13.62
188,-13.62
190,-13.62
192,-13.62
194,-13.62
196,-13.62
198,-13.52
200,-13.41
202,-13.30
204,-13.30
206,-13.30
208,-13.30
210,-13.30
212,-13.23
214,-13.13
216,-13.02
218,-12.97
221,-12.97
223,-12.97
225,-12.97
227,-12.92
229,-12.73
232,-12.65
234,-12.65
236,-12.65
239,-12.53
241,-12.43
244,-12.32
246,-12.32
248,-12.32
251,-12.28
253,-12.10
256,-12.00
259,-12.00
261,-12.00
264,-11.89
266,-11.81
269,-11.68
272,-11.68
274,-11.63
277,-11.51
280,-11.39
283,-11.35
286,-11.31
288,-11.23
291,-11.12
294,-11.03
297,-11.03
300,-10.94
303,-10.82
306,-10.71
309,-10.70
312,-10.61
316,-10.38
319,-10.38
322,-10.30
325,-10.19
328,-10.09
332,-10.05
335,-9.97
338,-9.77
342,-9.73
345,-9.68
349,-9.55
352,-9.45
356,-9.41
359,-9.39
363,-9.27
366,-9.18
370,-9.05
374,-8.93
377,-8.84
381,-8.76
385,-8.76
389,-8.54
393,-8.43
397,-8.42
401,-8.31
405,-8.20
409,-8.08
413,-7.97
417,-7.87
421,-7.76
425,-7.65
430,-7.52
434,-7.41
438,-7.31
443,-7.18
447,-7.08
451,-6.98
456,-6.86
460,-6.70
465,-6.49
470,-6.49
474,-6.35
479,-6.14
484,-6.02
489,-5.90
494,-5.79
499,-5.68
504,-5.56
509,-5.45
514,-5.34
519,-5.23
524,-5.06
529,-4.86
535,-4.86
540,-4.70
545,-4.54
551,-4.54
556,-4.37
562,-4.22
568,-4.21
573,-4.11
579,-4.00
585,-3.87
591,-3.64
596,-3.57
602,-3.56
608,-3.45
615,-3.32
621,-3.21
627,-3.10
633,-2.99
639,-2.88
646,-2.76
652,-2.66
659,-2.59
665,-2.59
672,-2.36
679,-2.27
686,-2.22
692,-2.02
699,-1.95
706,-1.92
713,-1.81
721,-1.68
728,-1.62
735,-1.62
742,-1.42
750,-1.30
757,-1.29
765,-1.18
773,-1.06
780,-0.97
788,-0.97
796,-0.81
804,-0.65
812,-0.65
820,-0.65
828,-0.56
837,-0.32
845,-0.32
853,-0.32
862,-0.32
871,-0.32
879,-0.26
888,-0.16
897,-0.16
906,-0.08
915,0.00
924,-0.00
933,-0.00
943,-0.00
952,0.00
962,-0.00
971,0.00
981,-0.00
991,-0.00
1001,0.00
1011,-0.00
1021,-0.00
1031,0.00
1041,-0.00
1052,-0.00
1062,-0.00
1073,-0.00
1084,0.00
1094,0.00
1105,-0.00
1116,0.00
1128,0.00
1139,-0.00
1150,0.00
1162,0.00
1173,-0.08
1185,-0.20
1197,-0.31
1209,-0.32
1221,-0.32
1233,-0.32
1246,-0.44
1258,-0.55
1271,-0.65
1283,-0.65
1296,-0.65
1309,-0.65
1322,-0.65
1335,-0.65
1349,-0.65
1362,-0.65
1376,-0.65
1390,-0.54
1404,-0.32
1418,-0.32
1432,-0.26
1446,-0.15
1461,-0.03
1475,0.15
1490,0.32
1505,0.32
1520,0.51
1535,0.73
1550,0.95
1566,0.97
1582,1.08
1597,1.30
1613,1.30
1629,1.30
1646,1.33
1662,1.55
1679,1.62
1696,1.62
1713,1.62
1730,1.62
1747,1.62
1764,1.62
1782,1.62
1800,1.62
1818,1.62
1836,1.62
1854,1.62
1873,1.62
1892,1.62
1911,1.62
1930,1.62
1949,1.62
1969,1.53
1988,1.42
2008,1.31
2028,1.30
2048,1.25
2069,1.13
2090,1.02
2111,0.97
2132,0.94
2153,0.71
2175,0.65
2196,0.62
2218,0.51
2240,0.40
2263,0.32
2285,0.32
2308,0.12
2331,-0.00
2355,0.00
2378,-0.00
2402,0.07
2426,0.18
2450,0.29
2475,0.41
2500,0.55
2525,0.78
2550,1.00
2575,1.22
2601,1.45
2627,1.78
2653,2.06
2680,2.29
2707,2.51
2734,2.67
2761,2.78
2789,2.89
2817,3.00
2845,3.11
2873,3.23
2902,3.24
2931,3.24
2960,3.24
2990,3.24
3020,3.18
3050,3.07
3080,2.96
3111,2.78
3142,2.58
3174,2.46
3206,2.26
3238,2.04
3270,1.82
3303,1.39
3336,1.04
3369,0.82
3403,0.59
3437,0.25
3471,-0.18
3506,-0.41
3541,-0.63
3576,-0.85
3612,-1.08
3648,-1.39
3685,-1.69
3721,-1.91
3759,-2.14
3796,-2.36
3834,-2.59
3873,-2.71
3911,-2.82
3950,-2.94
3990,-3.16
4030,-3.24
4070,-3.29
4111,-3.51
4152,-3.57
4193,-3.60
4235,-3.71
4278,-3.83
4321,-3.89
4364,-3.89
4407,-3.89
4451,-3.95
4496,-4.07
4541,-4.18
4586,-4.22
4632,-4.22
4679,-4.22
4725,-4.22
4773,-4.22
4820,-4.22
4868,-4.22
4917,-4.22
4966,-4.22
5016,-4.22
5066,-4.22
5117,-4.22
5168,-4.22
5220,-4.14
5272,-4.03
5325,-3.92
5378,-3.89
5432,-3.81
5486,-3.59
5541,-3.37
5596,-3.14
5652,-2.92
5709,-2.58
5766,-2.30
5823,-2.07
5882,-1.73
5940,-1.40
6000,-1.08
6060,-0.86
6120,-0.55
6182,-0.24
6244,-0.02
6306,0.20
6369,0.43
6433,0.65
6497,0.76
6562,0.88
6628,0.99
6694,1.10
6761,1.21
6828,1.32
6897,1.44
6966,1.55
7035,1.62
7106,1.62
7177,1.62
7249,1.68
7321,1.79
7394,1.90
7468,1.95
7543,1.96
7618,2.07
7694,2.19
7771,2.27
7849,2.27
7928,2.27
8007,2.27
8087,2.27
8168,2.27
8250,2.27
8332,2.27
8415,2.27
8499,2.14
8584,1.95
8670,1.95
8757,1.79
8845,1.59
8933,1.48
9022,1.28
9113,1.05
9204,0.82
9296,0.60
9389,0.26
9483,-0.18
9577,-0.52
9673,-0.92
9770,-1.37
9868,-1.82
9966,-2.35
10066,-2.85
10167,-3.19
10268,-3.71
10371,-4.23
10475,-4.68
10579,-5.02
10685,-5.42
10792,-5.86
10900,-6.20
11009,-6.60
11119,-7.01
11230,-7.24
11343,-7.63
11456,-8.01
11571,-8.24
11686,-8.46
11803,-8.77
11921,-9.22
12040,-9.46
12161,-9.68
12282,-9.91
12405,-10.13
12529,-10.36
12655,-10.58
12781,-10.81
12909,-11.03
13038,-11.26
13168,-11.48
13300,-11.71
13433,-11.93
13567,-12.15
13703,-12.38
13840,-12.60
13978,-12.85
14118,-13.30
14259,-13.60
14402,-13.83
14546,-14.05
14692,-14.19
14838,-14.34
14987,-14.56
15137,-14.59
15288,-14.59
15441,-14.59
15595,-14.48
15751,-14.31
15909,-14.09
16068,-13.86
16229,-13.64
16391,-13.41
16555,-13.19
16720,-12.88
16888,-12.61
17056,-12.50
17227,-12.39
17399,-12.23
17573,-12.00
17749,-12.00
17926,-12.00
18106,-12.00
18287,-12.00
18470,-12.00
18654,-12.00
18841,-12.00
19029,-12.00
19220,-12.00
19412,-12.00
19606,-12.00
19802,-12.00
20000,-12.00
