frequency,raw,error,smoothed,error_smoothed,equalization,parametric_eq,equalized_raw,equalized_smoothed,target
20,-20.51,-21.03,-20.57,-21.09,6.00,4.24,-14.51,-14.57,0.52
21,-19.83,-20.35,-19.77,-20.29,6.00,4.52,-13.83,-13.77,0.52
22,-19.13,-19.65,-19.01,-19.54,6.00,4.79,-13.13,-13.01,0.52
23,-18.19,-18.72,-18.29,-18.82,6.00,5.04,-12.19,-12.29,0.53
24,-17.55,-18.08,-17.61,-18.13,6.00,5.28,-11.55,-11.61,0.53
25,-16.90,-17.43,-16.96,-17.49,6.00,5.50,-10.90,-10.96,0.53
26,-16.33,-16.86,-16.35,-16.88,6.00,5.70,-10.33,-10.35,0.53
27,-15.79,-16.32,-15.77,-16.31,6.00,5.88,-9.79,-9.77,0.53
28,-15.29,-15.82,-15.22,-15.76,6.00,6.03,-9.29,-9.22,0.53
29,-14.81,-15.34,-14.70,-15.23,6.00,6.15,-8.81,-8.70,0.53
30,-14.15,-14.68,-14.20,-14.73,6.00,6.25,-8.15,-8.20,0.53
31,-13.75,-14.28,-13.72,-14.25,6.00,6.31,-7.75,-7.72,0.53
32,-13.22,-13.75,-13.26,-13.79,6.00,6.34,-7.22,-7.26,0.53
33,-12.78,-13.31,-12.82,-13.35,6.00,6.33,-6.78,-6.82,0.53
34,-12.31,-12.84,-12.40,-12.93,6.00,6.29,-6.31,-6.40,0.53
35,-12.08,-12.60,-12.01,-12.53,6.00,6.22,-6.08,-6.01,0.52
36,-11.63,-12.15,-11.63,-12.15,6.00,6.13,-5.63,-5.63,0.52
37,-11.37,-11.88,-11.27,-11.79,6.00,6.03,-5.37,-5.27,0.51
38,-10.89,-11.40,-10.94,-11.44,6.00,5.93,-4.89,-4.94,0.51
39,-10.48,-10.98,-10.61,-11.11,6.00,5.86,-4.48,-4.61,0.50
40,-10.45,-10.94,-10.30,-10.80,6.00,5.82,-4.45,-4.30,0.49
41,-10.03,-10.51,-10.01,-10.49,6.00,5.81,-4.03,-4.01,0.48
42,-9.62,-10.09,-9.72,-10.20,6.00,5.82,-3.62,-3.72,0.47
43,-9.57,-10.03,-9.46,-9.92,6.00,5.84,-3.57,-3.46,0.46
44,-9.12,-9.57,-9.20,-9.65,6.00,5.86,-3.12,-3.20,0.45
45,-8.89,-9.33,-8.96,-9.40,6.00,5.88,-2.89,-2.96,0.44
46,-8.83,-9.25,-8.73,-9.15,6.00,5.89,-2.83,-2.73,0.42
47,-8.43,-8.83,-8.51,-8.92,6.00,5.90,-2.43,-2.51,0.40
48,-8.39,-8.78,-8.30,-8.69,6.00,5.89,-2.39,-2.30,0.39
49,-8.07,-8.44,-8.10,-8.46,6.00,5.89,-2.07,-2.10,0.37
50,-7.98,-8.33,-7.90,-8.24,6.00,5.88,-1.98,-1.90,0.35
51,-7.70,-8.03,-7.70,-8.02,6.00,5.86,-1.70,-1.70,0.33
52,-7.42,-7.72,-7.51,-7.81,6.00,5.85,-1.42,-1.51,0.30
53,-7.29,-7.57,-7.32,-7.60,6.00,5.84,-1.29,-1.32,0.28
54,-7.07,-7.33,-7.13,-7.39,6.00,5.83,-1.07,-1.13,0.26
55,-7.07,-7.30,-6.95,-7.18,6.00,5.82,-1.07,-0.95,0.23
56,-6.84,-7.05,-6.77,-6.98,6.00,5.81,-0.84,-0.77,0.21
57,-6.61,-6.79,-6.59,-6.77,6.00,5.80,-0.61,-0.59,0.18
58,-6.38,-6.53,-6.42,-6.57,6.00,5.78,-0.38,-0.42,0.15
59,-6.15,-6.27,-6.25,-6.38,5.98,5.77,-0.17,-0.28,0.12
60,-6.15,-6.25,-6.09,-6.19,5.93,5.74,-0.22,-0.16,0.10
61,-5.93,-6.00,-5.93,-6.00,5.85,5.70,-0.08,-0.08,0.07
62,-5.70,-5.74,-5.78,-5.82,5.75,5.65,0.05,-0.03,0.04
63,-5.70,-5.71,-5.63,-5.64,5.62,5.59,-0.08,-0.01,0.01
64,-5.47,-5.45,-5.49,-5.47,5.47,5.51,-0.00,-0.02,-0.02
65,-5.42,-5.37,-5.35,-5.30,5.30,5.42,-0.12,-0.05,-0.05
66,-5.24,-5.16,-5.21,-5.13,5.13,5.31,-0.11,-0.08,-0.08
67,-5.01,-4.90,-5.07,-4.97,4.97,5.19,-0.04,-0.11,-0.11
68,-4.92,-4.78,-4.95,-4.81,4.81,5.06,-0.11,-0.14,-0.14
69,-4.79,-4.62,-4.83,-4.66,4.66,4.93,-0.13,-0.17,-0.17
70,-4.79,-4.59,-4.71,-4.52,4.52,4.80,-0.27,-0.20,-0.20
71,-4.56,-4.33,-4.61,-4.39,4.39,4.66,-0.17,-0.23,-0.23
72,-4.55,-4.29,-4.52,-4.26,4.26,4.53,-0.29,-0.26,-0.26
73,-4.33,-4.04,-4.43,-4.15,4.15,4.40,-0.18,-0.28,-0.29
74,-4.33,-4.02,-4.35,-4.03,4.03,4.27,-0.30,-0.31,-0.31
75,-4.33,-3.99,-4.26,-3.92,3.92,4.14,-0.41,-0.34,-0.34
76,-4.27,-3.90,-4.18,-3.81,3.81,4.02,-0.46,-0.37,-0.37
77,-4.10,-3.70,-4.10,-3.69,3.69,3.91,-0.41,-0.40,-0.40
78,-4.04,-3.61,-4.01,-3.58,3.58,3.80,-0.46,-0.43,-0.43
79,-3.87,-3.41,-3.93,-3.47,3.47,3.69,-0.40,-0.46,-0.46
80,-3.87,-3.38,-3.85,-3.36,3.36,3.59,-0.51,-0.49,-0.49
81,-3.73,-3.21,-3.78,-3.26,3.26,3.49,-0.47,-0.52,-0.52
82,-3.65,-3.10,-3.71,-3.16,3.16,3.40,-0.49,-0.55,-0.55
83,-3.65,-3.07,-3.65,-3.08,3.08,3.31,-0.57,-0.58,-0.58
84,-3.65,-3.05,-3.60,-3.00,3.00,3.23,-0.65,-0.60,-0.60
85,-3.65,-3.02,-3.56,-2.92,2.92,3.14,-0.73,-0.63,-0.63
86,-3.52,-2.86,-3.52,-2.86,2.86,3.06,-0.66,-0.66,-0.66
87,-3.42,-2.73,-3.48,-2.79,2.79,2.99,-0.63,-0.69,-0.69
88,-3.42,-2.71,-3.45,-2.74,2.74,2.91,-0.68,-0.71,-0.71
89,-3.42,-2.68,-3.43,-2.69,2.69,2.84,-0.73,-0.74,-0.74
90,-3.42,-2.65,-3.42,-2.65,2.65,2.77,-0.77,-0.77,-0.77
91,-3.42,-2.63,-3.41,-2.62,2.62,2.71,-0.80,-0.79,-0.79
92,-3.42,-2.60,-3.41,-2.60,2.60,2.64,-0.82,-0.82,-0.82
93,-3.42,-2.58,-3.42,-2.58,2.58,2.58,-0.84,-0.84,-0.84
94,-3.42,-2.56,-3.42,-2.56,2.56,2.52,-0.86,-0.86,-0.86
95,-3.42,-2.53,-3.43,-2.54,2.54,2.46,-0.88,-0.88,-0.89
96,-3.42,-2.51,-3.43,-2.53,2.53,2.40,-0.89,-0.91,-0.91
97,-3.42,-2.49,-3.43,-2.50,2.50,2.34,-0.92,-0.93,-0.93
98,-3.42,-2.47,-3.42,-2.47,2.47,2.28,-0.95,-0.95,-0.95
99,-3.42,-2.45,-3.40,-2.43,2.43,2.23,-0.99,-0.97,-0.97
100,-3.42,-2.43,-3.36,-2.37,2.37,2.17,-1.05,-0.99,-0.99
101,-3.39,-2.39,-3.32,-2.31,2.31,2.12,-1.08,-1.01,-1.00
102,-3.19,-2.17,-3.27,-2.23,2.23,2.06,-0.96,-1.04,-1.02
104,-3.19,-2.12,-3.20,-2.15,2.15,1.96,-1.04,-1.06,-1.07
105,-3.19,-2.10,-3.14,-2.06,2.06,1.91,-1.13,-1.08,-1.09
106,-3.03,-1.92,-3.07,-1.97,1.97,1.86,-1.06,-1.10,-1.11
107,-2.96,-1.84,-3.01,-1.89,1.89,1.80,-1.07,-1.12,-1.12
108,-2.96,-1.82,-2.95,-1.81,1.81,1.75,-1.15,-1.14,-1.14
109,-2.96,-1.81,-2.89,-1.73,1.73,1.70,-1.23,-1.15,-1.15
110,-2.74,-1.57,-2.84,-1.67,1.67,1.65,-1.07,-1.17,-1.17
111,-2.74,-1.55,-2.79,-1.60,1.60,1.59,-1.14,-1.19,-1.19
112,-2.74,-1.54,-2.74,-1.53,1.53,1.54,-1.21,-1.21,-1.20
113,-2.74,-1.52,-2.68,-1.46,1.46,1.49,-1.28,-1.22,-1.22
114,-2.71,-1.47,-2.63,-1.38,1.38,1.43,-1.33,-1.24,-1.24
115,-2.51,-1.25,-2.57,-1.30,1.30,1.38,-1.21,-1.27,-1.26
117,-2.51,-1.21,-2.50,-1.21,1.21,1.26,-1.30,-1.29,-1.30
118,-2.49,-1.17,-2.43,-1.11,1.11,1.20,-1.38,-1.31,-1.32
119,-2.28,-0.94,-2.35,-1.01,1.01,1.14,-1.27,-1.34,-1.34
120,-2.28,-0.92,-2.28,-0.92,0.92,1.07,-1.36,-1.37,-1.36
121,-2.28,-0.90,-2.21,-0.82,0.82,1.01,-1.46,-1.39,-1.38
123,-2.05,-0.62,-2.15,-0.73,0.73,0.87,-1.32,-1.42,-1.43
124,-2.05,-0.60,-2.09,-0.64,0.64,0.80,-1.41,-1.44,-1.45
125,-2.05,-0.58,-2.03,-0.56,0.56,0.73,-1.49,-1.47,-1.47
126,-2.05,-0.57,-1.98,-0.49,0.49,0.65,-1.56,-1.49,-1.48
128,-1.94,-0.41,-1.93,-0.41,0.41,0.49,-1.53,-1.52,-1.53
129,-1.82,-0.27,-1.88,-0.33,0.33,0.41,-1.49,-1.54,-1.55
130,-1.82,-0.25,-1.83,-0.26,0.26,0.33,-1.56,-1.57,-1.57
131,-1.82,-0.24,-1.78,-0.19,0.19,0.25,-1.63,-1.59,-1.58
133,-1.82,-0.20,-1.73,-0.12,0.12,0.10,-1.70,-1.62,-1.62
134,-1.64,0.00,-1.69,-0.05,0.05,0.02,-1.59,-1.64,-1.64
135,-1.60,0.06,-1.66,0.01,-0.01,-0.05,-1.61,-1.66,-1.66
137,-1.60,0.09,-1.63,0.06,-0.06,-0.17,-1.66,-1.69,-1.69
138,-1.60,0.11,-1.61,0.10,-0.10,-0.22,-1.70,-1.71,-1.71
140,-1.60,0.14,-1.59,0.14,-0.14,-0.28,-1.74,-1.73,-1.74
141,-1.60,0.15,-1.59,0.17,-0.17,-0.30,-1.77,-1.75,-1.75
142,-1.60,0.17,-1.58,0.19,-0.19,-0.31,-1.79,-1.77,-1.77
144,-1.60,0.20,-1.58,0.21,-0.21,-0.30,-1.81,-1.79,-1.80
145,-1.60,0.21,-1.59,0.23,-0.23,-0.29,-1.83,-1.81,-1.81
147,-1.60,0.24,-1.59,0.24,-0.24,-0.24,-1.84,-1.83,-1.84
148,-1.60,0.25,-1.60,0.25,-0.25,-0.20,-1.85,-1.85,-1.85
150,-1.60,0.27,-1.62,0.25,-0.25,-0.13,-1.85,-1.87,-1.87
151,-1.60,0.28,-1.64,0.25,-0.25,-0.09,-1.85,-1.88,-1.88
153,-1.62,0.28,-1.67,0.23,-0.23,-0.01,-1.85,-1.90,-1.90
154,-1.79,0.12,-1.71,0.20,-0.20,0.03,-1.99,-1.91,-1.91
156,-1.82,0.11,-1.76,0.17,-0.17,0.10,-1.99,-1.93,-1.93
157,-1.82,0.12,-1.83,0.12,-0.12,0.13,-1.94,-1.94,-1.94
159,-1.82,0.14,-1.90,0.05,-0.05,0.20,-1.87,-1.96,-1.96
160,-1.88,0.09,-1.99,-0.02,0.02,0.23,-1.86,-1.97,-1.97
162,-2.05,-0.07,-2.08,-0.10,0.10,0.28,-1.95,-1.98,-1.98
164,-2.28,-0.28,-2.18,-0.18,0.18,0.33,-2.10,-2.00,-2.00
165,-2.28,-0.28,-2.27,-0.26,0.26,0.35,-2.02,-2.01,-2.00
167,-2.33,-0.31,-2.35,-0.33,0.33,0.38,-2.00,-2.02,-2.02
169,-2.51,-0.48,-2.42,-0.39,0.39,0.41,-2.12,-2.03,-2.03
170,-2.51,-0.47,-2.47,-0.43,0.43,0.43,-2.08,-2.04,-2.04
172,-2.51,-0.46,-2.50,-0.45,0.45,0.45,-2.06,-2.05,-2.05
174,-2.51,-0.45,-2.51,-0.45,0.45,0.47,-2.06,-2.06,-2.06
175,-2.51,-0.45,-2.52,-0.45,0.45,0.48,-2.06,-2.07,-2.06
177,-2.51,-0.44,-2.52,-0.44,0.44,0.50,-2.07,-2.07,-2.07
179,-2.51,-0.43,-2.52,-0.44,0.44,0.51,-2.07,-2.08,-2.08
181,-2.51,-0.42,-2.53,-0.44,0.44,0.53,-2.07,-2.09,-2.09
183,-2.51,-0.41,-2.54,-0.45,0.45,0.54,-2.06,-2.09,-2.10
184,-2.51,-0.41,-2.56,-0.46,0.46,0.54,-2.05,-2.10,-2.10
186,-2.51,-0.41,-2.59,-0.49,0.49,0.55,-2.02,-2.10,-2.10
188,-2.71,-0.60,-2.63,-0.52,0.52,0.56,-2.19,-2.11,-2.11
190,-2.74,-0.63,-2.66,-0.55,0.55,0.57,-2.19,-2.11,-2.11
192,-2.74,-0.62,-2.70,-0.58,0.58,0.58,-2.16,-2.12,-2.12
194,-2.74,-0.62,-2.74,-0.62,0.62,0.58,-2.12,-2.12,-2.12
196,-2.74,-0.62,-2.77,-0.65,0.65,0.59,-2.09,-2.12,-2.12
198,-2.74,-0.62,-2.81,-0.68,0.68,0.60,-2.06,-2.12,-2.12
200,-2.75,-0.62,-2.84,-0.71,0.71,0.60,-2.04,-2.13,-2.13
202,-2.96,-0.83,-2.87,-0.74,0.74,0.61,-2.22,-2.13,-2.13
204,-2.96,-0.83,-2.90,-0.77,0.77,0.62,-2.19,-2.13,-2.13
206,-2.96,-0.83,-2.92,-0.79,0.79,0.63,-2.17,-2.13,-2.13
208,-2.96,-0.83,-2.95,-0.82,0.82,0.63,-2.14,-2.13,-2.13
210,-2.96,-0.83,-2.97,-0.84,0.84,0.64,-2.12,-2.13,-2.13
212,-2.96,-0.83,-2.99,-0.87,0.87,0.66,-2.09,-2.13,-2.13
214,-2.96,-0.83,-3.02,-0.90,0.90,0.67,-2.06,-2.13,-2.13
216,-2.96,-0.84,-3.05,-0.93,0.93,0.68,-2.03,-2.13,-2.12
218,-3.19,-1.07,-3.09,-0.96,0.96,0.70,-2.23,-2.12,-2.12
221,-3.19,-1.07,-3.13,-1.01,1.01,0.72,-2.18,-2.12,-2.12
223,-3.19,-1.07,-3.17,-1.05,1.05,0.74,-2.14,-2.12,-2.12
225,-3.19,-1.07,-3.22,-1.10,1.10,0.77,-2.09,-2.12,-2.12
227,-3.19,-1.07,-3.27,-1.15,1.15,0.79,-2.04,-2.12,-2.12
229,-3.35,-1.23,-3.32,-1.21,1.21,0.82,-2.14,-2.12,-2.12
232,-3.42,-1.30,-3.38,-1.26,1.26,0.87,-2.16,-2.12,-2.12
234,-3.42,-1.31,-3.43,-1.31,1.31,0.91,-2.11,-2.11,-2.11
236,-3.42,-1.31,-3.47,-1.36,1.36,0.95,-2.06,-2.11,-2.11
239,-3.56,-1.45,-3.52,-1.41,1.41,1.02,-2.15,-2.11,-2.11
241,-3.65,-1.54,-3.56,-1.46,1.46,1.08,-2.19,-2.11,-2.11
244,-3.65,-1.55,-3.61,-1.51,1.51,1.18,-2.14,-2.10,-2.10
246,-3.65,-1.55,-3.66,-1.56,1.56,1.25,-2.09,-2.10,-2.10
248,-3.65,-1.55,-3.73,-1.63,1.63,1.33,-2.02,-2.10,-2.10
251,-3.87,-1.78,-3.81,-1.72,1.72,1.48,-2.15,-2.09,-2.09
253,-3.87,-1.78,-3.92,-1.83,1.83,1.58,-2.04,-2.09,-2.09
256,-3.87,-1.78,-4.05,-1.96,1.96,1.76,-1.91,-2.09,-2.09
259,-4.08,-2.00,-4.19,-2.11,2.11,1.96,-1.97,-2.08,-2.08
261,-4.28,-2.20,-4.34,-2.26,2.26,2.09,-2.02,-2.08,-2.08
264,-4.58,-2.51,-4.48,-2.41,2.41,2.30,-2.17,-2.07,-2.07
266,-4.78,-2.71,-4.60,-2.53,2.53,2.43,-2.25,-2.07,-2.07
269,-4.79,-2.73,-4.69,-2.63,2.63,2.60,-2.16,-2.06,-2.06
272,-4.79,-2.74,-4.74,-2.68,2.68,2.71,-2.11,-2.05,-2.05
274,-4.79,-2.75,-4.74,-2.70,2.70,2.75,-2.09,-2.05,-2.04
277,-4.63,-2.59,-4.72,-2.68,2.68,2.74,-1.95,-2.04,-2.04
280,-4.56,-2.53,-4.65,-2.62,2.62,2.65,-1.94,-2.03,-2.03
283,-4.56,-2.54,-4.56,-2.54,2.54,2.51,-2.02,-2.02,-2.02
286,-4.48,-2.47,-4.44,-2.44,2.44,2.33,-2.04,-2.01,-2.01
288,-4.33,-2.34,-4.31,-2.32,2.32,2.19,-2.01,-1.99,-1.99
291,-4.25,-2.27,-4.17,-2.19,2.19,1.99,-2.06,-1.98,-1.98
294,-3.98,-2.01,-4.02,-2.05,2.05,1.80,-1.93,-1.97,-1.97
297,-3.87,-1.92,-3.86,-1.91,1.91,1.62,-1.96,-1.95,-1.95
300,-3.67,-1.73,-3.70,-1.77,1.77,1.46,-1.90,-1.94,-1.94
303,-3.42,-1.50,-3.55,-1.63,1.63,1.32,-1.79,-1.92,-1.92
306,-3.42,-1.51,-3.40,-1.49,1.49,1.19,-1.93,-1.91,-1.91
309,-3.35,-1.46,-3.26,-1.37,1.37,1.08,-1.98,-1.89,-1.89
312,-3.19,-1.32,-3.13,-1.26,1.26,0.98,-1.93,-1.87,-1.87
316,-2.99,-1.14,-3.01,-1.16,1.16,0.87,-1.83,-1.85,-1.85
319,-2.74,-0.91,-2.90,-1.06,1.06,0.80,-1.68,-1.83,-1.83
322,-2.74,-0.93,-2.79,-0.98,0.98,0.74,-1.76,-1.81,-1.81
325,-2.74,-0.95,-2.70,-0.91,0.91,0.68,-1.83,-1.79,-1.79
328,-2.69,-0.92,-2.61,-0.84,0.84,0.63,-1.85,-1.77,-1.77
332,-2.51,-0.76,-2.52,-0.77,0.77,0.57,-1.74,-1.75,-1.75
335,-2.51,-0.78,-2.43,-0.70,0.70,0.53,-1.81,-1.73,-1.73
338,-2.36,-0.65,-2.34,-0.63,0.63,0.49,-1.73,-1.71,-1.71
342,-2.28,-0.59,-2.26,-0.57,0.57,0.45,-1.71,-1.69,-1.69
345,-2.05,-0.38,-2.18,-0.51,0.51,0.42,-1.54,-1.67,-1.67
349,-2.05,-0.40,-2.11,-0.46,0.46,0.38,-1.59,-1.65,-1.65
352,-2.05,-0.42,-2.04,-0.41,0.41,0.35,-1.64,-1.63,-1.63
356,-2.05,-0.44,-1.97,-0.36,0.36,0.32,-1.69,-1.61,-1.61
359,-1.91,-0.32,-1.91,-0.32,0.32,0.30,-1.59,-1.59,-1.59
363,-1.82,-0.24,-1.85,-0.27,0.27,0.27,-1.55,-1.58,-1.58
366,-1.82,-0.26,-1.78,-0.22,0.22,0.25,-1.60,-1.56,-1.56
370,-1.80,-0.26,-1.72,-0.17,0.17,0.22,-1.63,-1.54,-1.54
374,-1.60,-0.07,-1.65,-0.12,0.12,0.19,-1.48,-1.53,-1.53
377,-1.60,-0.09,-1.58,-0.06,0.06,0.17,-1.54,-1.51,-1.51
381,-1.48,0.02,-1.51,-0.01,0.01,0.14,-1.47,-1.50,-1.50
385,-1.37,0.12,-1.45,0.04,-0.04,0.12,-1.41,-1.49,-1.49
389,-1.37,0.11,-1.39,0.09,-0.09,0.09,-1.46,-1.48,-1.48
393,-1.37,0.09,-1.34,0.13,-0.13,0.06,-1.50,-1.46,-1.46
397,-1.37,0.08,-1.29,0.16,-0.16,0.03,-1.53,-1.45,-1.45
401,-1.28,0.16,-1.25,0.19,-0.19,0.00,-1.47,-1.44,-1.44
405,-1.14,0.29,-1.22,0.21,-0.21,-0.03,-1.35,-1.43,-1.43
409,-1.14,0.28,-1.19,0.23,-0.23,-0.06,-1.37,-1.42,-1.42
413,-1.14,0.27,-1.16,0.25,-0.25,-0.09,-1.39,-1.41,-1.41
417,-1.14,0.26,-1.14,0.27,-0.27,-0.13,-1.41,-1.40,-1.40
421,-1.14,0.26,-1.11,0.28,-0.28,-0.17,-1.42,-1.40,-1.40
425,-1.14,0.25,-1.09,0.30,-0.30,-0.21,-1.44,-1.39,-1.39
430,-1.14,0.24,-1.06,0.32,-0.32,-0.26,-1.46,-1.38,-1.38
434,-1.02,0.35,-1.03,0.34,-0.34,-0.30,-1.36,-1.37,-1.37
438,-0.91,0.45,-1.00,0.37,-0.37,-0.35,-1.28,-1.36,-1.36
443,-0.91,0.44,-0.96,0.39,-0.39,-0.40,-1.30,-1.35,-1.35
447,-0.91,0.43,-0.93,0.42,-0.42,-0.45,-1.33,-1.34,-1.34
451,-0.91,0.42,-0.89,0.44,-0.44,-0.49,-1.35,-1.33,-1.33
456,-0.91,0.41,-0.86,0.47,-0.47,-0.54,-1.38,-1.32,-1.32
460,-0.91,0.40,-0.82,0.49,-0.49,-0.57,-1.40,-1.31,-1.31
465,-0.80,0.50,-0.79,0.52,-0.52,-0.60,-1.32,-1.30,-1.30
470,-0.68,0.61,-0.75,0.54,-0.54,-0.62,-1.22,-1.29,-1.29
474,-0.68,0.60,-0.72,0.56,-0.56,-0.63,-1.24,-1.28,-1.28
479,-0.68,0.59,-0.70,0.57,-0.57,-0.63,-1.25,-1.27,-1.27
484,-0.68,0.57,-0.68,0.57,-0.57,-0.62,-1.25,-1.25,-1.25
489,-0.68,0.56,-0.67,0.56,-0.56,-0.59,-1.24,-1.24,-1.24
494,-0.68,0.54,-0.67,0.55,-0.55,-0.56,-1.23,-1.22,-1.22
499,-0.68,0.53,-0.67,0.54,-0.54,-0.53,-1.22,-1.21,-1.21
504,-0.68,0.51,-0.67,0.52,-0.52,-0.49,-1.20,-1.19,-1.19
509,-0.68,0.49,-0.68,0.50,-0.50,-0.45,-1.18,-1.17,-1.17
514,-0.68,0.47,-0.68,0.48,-0.48,-0.41,-1.16,-1.15,-1.15
519,-0.68,0.45,-0.68,0.45,-0.45,-0.37,-1.13,-1.13,-1.13
524,-0.68,0.43,-0.68,0.43,-0.43,-0.34,-1.11,-1.11,-1.11
529,-0.68,0.41,-0.68,0.41,-0.41,-0.31,-1.09,-1.09,-1.09
535,-0.68,0.39,-0.68,0.39,-0.39,-0.27,-1.07,-1.07,-1.07
540,-0.68,0.37,-0.68,0.37,-0.37,-0.25,-1.05,-1.05,-1.05
545,-0.68,0.34,-0.68,0.34,-0.34,-0.23,-1.02,-1.02,-1.02
551,-0.68,0.32,-0.68,0.32,-0.32,-0.20,-1.00,-1.00,-1.00
556,-0.68,0.30,-0.68,0.30,-0.30,-0.18,-0.98,-0.98,-0.98
562,-0.68,0.27,-0.68,0.27,-0.27,-0.16,-0.95,-0.95,-0.95
568,-0.68,0.25,-0.68,0.25,-0.25,-0.15,-0.93,-0.93,-0.93
573,-0.68,0.22,-0.68,0.22,-0.22,-0.13,-0.90,-0.90,-0.90
579,-0.68,0.20,-0.68,0.20,-0.20,-0.12,-0.88,-0.88,-0.88
585,-0.68,0.17,-0.68,0.17,-0.17,-0.11,-0.85,-0.85,-0.85
591,-0.68,0.15,-0.68,0.15,-0.15,-0.10,-0.83,-0.83,-0.83
596,-0.68,0.12,-0.68,0.12,-0.12,-0.09,-0.80,-0.80,-0.80
602,-0.68,0.10,-0.68,0.10,-0.10,-0.09,-0.78,-0.78,-0.78
608,-0.68,0.08,-0.68,0.08,-0.08,-0.08,-0.76,-0.76,-0.76
615,-0.68,0.06,-0.68,0.06,-0.06,-0.07,-0.74,-0.74,-0.74
621,-0.68,0.03,-0.68,0.03,-0.03,-0.07,-0.71,-0.71,-0.71
627,-0.68,0.01,-0.68,0.01,-0.01,-0.06,-0.69,-0.69,-0.69
633,-0.68,-0.01,-0.68,-0.01,0.01,-0.06,-0.67,-0.67,-0.67
639,-0.68,-0.03,-0.67,-0.02,0.02,-0.06,-0.66,-0.65,-0.65
646,-0.68,-0.05,-0.67,-0.04,0.04,-0.05,-0.64,-0.63,-0.63
652,-0.68,-0.07,-0.68,-0.07,0.07,-0.05,-0.61,-0.61,-0.61
659,-0.68,-0.09,-0.68,-0.09,0.09,-0.05,-0.59,-0.59,-0.59
665,-0.68,-0.11,-0.69,-0.12,0.12,-0.05,-0.56,-0.57,-0.57
672,-0.68,-0.13,-0.71,-0.16,0.16,-0.05,-0.52,-0.55,-0.55
679,-0.68,-0.15,-0.73,-0.20,0.20,-0.05,-0.48,-0.53,-0.53
686,-0.68,-0.17,-0.75,-0.23,0.23,-0.05,-0.45,-0.51,-0.51
692,-0.78,-0.29,-0.76,-0.26,0.26,-0.05,-0.52,-0.49,-0.49
699,-0.91,-0.44,-0.76,-0.29,0.29,-0.05,-0.62,-0.47,-0.47
706,-0.74,-0.29,-0.75,-0.29,0.29,-0.05,-0.45,-0.45,-0.45
713,-0.68,-0.25,-0.71,-0.28,0.28,-0.05,-0.40,-0.43,-0.43
721,-0.68,-0.27,-0.67,-0.25,0.25,-0.05,-0.43,-0.41,-0.41
728,-0.68,-0.29,-0.60,-0.21,0.21,-0.05,-0.47,-0.39,-0.39
735,-0.59,-0.22,-0.53,-0.16,0.16,-0.05,-0.43,-0.37,-0.37
742,-0.46,-0.11,-0.45,-0.10,0.10,-0.05,-0.36,-0.35,-0.35
750,-0.29,0.04,-0.38,-0.05,0.05,-0.05,-0.24,-0.33,-0.33
757,-0.23,0.08,-0.32,-0.01,0.01,-0.05,-0.22,-0.31,-0.31
765,-0.23,0.06,-0.27,0.02,-0.02,-0.05,-0.25,-0.29,-0.29
773,-0.23,0.04,-0.24,0.04,-0.04,-0.06,-0.27,-0.27,-0.27
780,-0.23,0.03,-0.22,0.04,-0.04,-0.06,-0.27,-0.26,-0.26
788,-0.23,0.01,-0.21,0.03,-0.03,-0.06,-0.26,-0.24,-0.24
796,-0.23,-0.01,-0.21,0.01,-0.01,-0.06,-0.24,-0.22,-0.22
804,-0.23,-0.02,-0.22,-0.01,0.01,-0.06,-0.22,-0.21,-0.21
812,-0.23,-0.04,-0.22,-0.03,0.03,-0.07,-0.20,-0.19,-0.19
820,-0.23,-0.05,-0.23,-0.05,0.05,-0.07,-0.18,-0.18,-0.18
828,-0.23,-0.06,-0.23,-0.07,0.07,-0.07,-0.16,-0.17,-0.17
837,-0.23,-0.07,-0.24,-0.08,0.08,-0.07,-0.15,-0.16,-0.16
845,-0.23,-0.09,-0.24,-0.09,0.09,-0.07,-0.14,-0.15,-0.14
853,-0.23,-0.09,-0.24,-0.11,0.11,-0.07,-0.12,-0.14,-0.14
862,-0.23,-0.10,-0.24,-0.11,0.11,-0.07,-0.12,-0.13,-0.13
871,-0.23,-0.11,-0.24,-0.11,0.11,-0.07,-0.12,-0.12,-0.12
879,-0.23,-0.12,-0.22,-0.11,0.11,-0.07,-0.12,-0.11,-0.11
888,-0.23,-0.12,-0.20,-0.10,0.10,-0.07,-0.13,-0.11,-0.11
897,-0.23,-0.13,-0.18,-0.07,0.07,-0.07,-0.16,-0.10,-0.10
906,-0.23,-0.13,-0.14,-0.05,0.05,-0.07,-0.18,-0.10,-0.10
915,-0.07,0.02,-0.11,-0.02,0.02,-0.07,-0.05,-0.09,-0.09
924,0.00,0.08,-0.07,0.01,-0.01,-0.06,-0.01,-0.08,-0.08
933,0.00,0.08,-0.04,0.04,-0.04,-0.06,-0.04,-0.08,-0.08
943,0.00,0.07,-0.02,0.05,-0.05,-0.05,-0.05,-0.07,-0.07
952,0.00,0.06,-0.00,0.06,-0.06,-0.05,-0.06,-0.06,-0.06
962,0.00,0.06,0.01,0.07,-0.07,-0.04,-0.07,-0.06,-0.06
971,0.00,0.05,0.01,0.06,-0.06,-0.03,-0.06,-0.05,-0.05
981,0.00,0.04,0.01,0.05,-0.05,-0.01,-0.05,-0.04,-0.04
991,0.00,0.03,0.01,0.03,-0.03,0.00,-0.03,-0.03,-0.03
1001,0.00,0.01,0.00,0.01,-0.01,0.02,-0.01,-0.01,-0.01
1011,0.00,0.00,-0.00,-0.00,0.00,0.04,0.00,-0.00,-0.00
1021,0.00,-0.01,-0.01,-0.02,0.02,0.05,0.02,0.01,0.01
1031,0.00,-0.03,-0.01,-0.04,0.04,0.07,0.04,0.03,0.03
1041,0.00,-0.05,-0.01,-0.06,0.06,0.09,0.06,0.05,0.05
1052,0.00,-0.06,-0.00,-0.07,0.07,0.11,0.07,0.07,0.06
1062,0.00,-0.08,0.01,-0.08,0.08,0.12,0.08,0.08,0.08
1073,0.00,-0.10,0.03,-0.07,0.07,0.12,0.07,0.11,0.10
1084,0.00,-0.13,0.06,-0.07,0.07,0.12,0.07,0.13,0.13
1094,0.08,-0.07,0.10,-0.05,0.05,0.10,0.13,0.15,0.15
1105,0.23,0.06,0.14,-0.03,0.03,0.07,0.26,0.17,0.17
1116,0.23,0.04,0.20,0.00,-0.00,0.03,0.23,0.19,0.19
1128,0.23,0.01,0.25,0.04,-0.04,-0.02,0.19,0.22,0.22
1139,0.23,-0.01,0.31,0.07,-0.07,-0.08,0.16,0.24,0.24
1150,0.46,0.20,0.38,0.11,-0.11,-0.14,0.35,0.26,0.26
1162,0.46,0.17,0.44,0.16,-0.16,-0.22,0.30,0.28,0.29
1173,0.46,0.15,0.51,0.21,-0.21,-0.29,0.25,0.31,0.31
1185,0.58,0.25,0.58,0.26,-0.26,-0.36,0.32,0.33,0.33
1197,0.68,0.34,0.66,0.31,-0.31,-0.44,0.37,0.34,0.34
1209,0.68,0.32,0.73,0.37,-0.37,-0.52,0.31,0.36,0.36
1221,0.91,0.54,0.81,0.44,-0.44,-0.59,0.47,0.37,0.37
1233,0.91,0.52,0.89,0.50,-0.50,-0.66,0.41,0.39,0.39
1246,0.91,0.51,0.97,0.58,-0.58,-0.74,0.33,0.40,0.40
1258,1.02,0.62,1.06,0.66,-0.66,-0.81,0.36,0.40,0.40
1271,1.14,0.73,1.15,0.75,-0.75,-0.89,0.39,0.41,0.41
1283,1.31,0.90,1.25,0.84,-0.84,-0.96,0.47,0.41,0.41
1296,1.37,0.96,1.35,0.94,-0.94,-1.03,0.43,0.41,0.41
1309,1.38,0.97,1.45,1.05,-1.05,-1.10,0.33,0.41,0.41
1322,1.60,1.20,1.56,1.16,-1.16,-1.18,0.44,0.40,0.40
1335,1.67,1.28,1.67,1.27,-1.27,-1.25,0.40,0.39,0.39
1349,1.82,1.44,1.78,1.39,-1.39,-1.34,0.43,0.38,0.38
1362,1.82,1.45,1.89,1.51,-1.51,-1.41,0.31,0.37,0.37
1376,2.01,1.65,2.00,1.64,-1.64,-1.50,0.37,0.36,0.36
1390,2.05,1.70,2.11,1.76,-1.76,-1.58,0.29,0.35,0.35
1404,2.28,1.95,2.22,1.89,-1.89,-1.67,0.39,0.33,0.33
1418,2.35,2.03,2.33,2.01,-2.01,-1.76,0.34,0.32,0.32
1432,2.51,2.20,2.44,2.14,-2.14,-1.85,0.37,0.31,0.31
1446,2.51,2.22,2.56,2.26,-2.26,-1.94,0.25,0.29,0.29
1461,2.68,2.40,2.67,2.39,-2.39,-2.04,0.29,0.28,0.28
1475,2.74,2.47,2.79,2.52,-2.52,-2.13,0.22,0.27,0.27
1490,2.96,2.69,2.92,2.66,-2.66,-2.24,0.30,0.27,0.27
1505,3.00,2.74,3.06,2.80,-2.80,-2.34,0.20,0.26,0.26
1520,3.19,2.93,3.20,2.94,-2.94,-2.45,0.25,0.26,0.26
1535,3.29,3.03,3.35,3.09,-3.09,-2.56,0.20,0.26,0.26
1550,3.55,3.28,3.49,3.22,-3.22,-2.67,0.33,0.27,0.27
1566,3.65,3.37,3.63,3.35,-3.35,-2.78,0.30,0.28,0.28
1582,3.86,3.56,3.76,3.47,-3.47,-2.90,0.39,0.30,0.30
