frequency,raw,error,smoothed,error_smoothed,equalization,parametric_eq,equalized_raw,equalized_smoothed,target
20,-7.87,-6.47,-7.87,-6.46,6.48,0.87,-1.39,-1.39,-1.40
21,-7.38,-5.97,-7.36,-5.94,5.95,1.03,-1.43,-1.40,-1.41
22,-6.89,-5.48,-6.86,-5.44,5.45,1.21,-1.44,-1.41,-1.41
23,-6.31,-4.89,-6.38,-4.96,4.96,1.40,-1.35,-1.42,-1.42
24,-5.98,-4.56,-5.92,-4.49,4.49,1.61,-1.49,-1.42,-1.42
25,-5.35,-3.92,-5.47,-4.04,4.04,1.82,-1.31,-1.43,-1.43
26,-5.09,-3.66,-5.03,-3.60,3.60,2.02,-1.49,-1.43,-1.43
27,-4.60,-3.16,-4.62,-3.18,3.18,2.20,-1.42,-1.44,-1.44
28,-4.21,-2.76,-4.22,-2.77,2.77,2.34,-1.44,-1.45,-1.45
29,-3.84,-2.39,-3.83,-2.38,2.38,2.44,-1.46,-1.45,-1.46
30,-3.45,-1.99,-3.46,-2.00,2.00,2.48,-1.45,-1.46,-1.46
31,-3.17,-1.70,-3.12,-1.64,1.64,2.45,-1.53,-1.47,-1.47
32,-2.74,-1.26,-2.79,-1.30,1.30,2.36,-1.44,-1.48,-1.48
33,-2.48,-0.99,-2.47,-0.97,0.97,2.21,-1.51,-1.50,-1.49
34,-2.18,-0.68,-2.16,-0.66,0.66,2.02,-1.52,-1.51,-1.50
35,-1.85,-0.34,-1.88,-0.36,0.36,1.78,-1.49,-1.52,-1.51
36,-1.53,-0.01,-1.59,-0.07,0.07,1.53,-1.46,-1.52,-1.52
37,-1.39,0.14,-1.34,0.20,-0.20,1.25,-1.59,-1.54,-1.53
38,-1.07,0.48,-1.09,0.46,-0.46,0.97,-1.53,-1.55,-1.55
39,-0.93,0.63,-0.85,0.71,-0.71,0.68,-1.64,-1.56,-1.56
40,-0.63,0.94,-0.64,0.95,-0.95,0.40,-1.58,-1.58,-1.57
41,-0.39,1.20,-0.43,1.17,-1.17,0.11,-1.56,-1.60,-1.59
42,-0.23,1.37,-0.23,1.38,-1.38,-0.17,-1.61,-1.61,-1.60
43,-0.04,1.58,-0.04,1.58,-1.58,-0.45,-1.62,-1.63,-1.62
44,0.16,1.79,0.13,1.77,-1.77,-0.73,-1.61,-1.64,-1.64
45,0.33,1.98,0.29,1.95,-1.95,-1.00,-1.63,-1.66,-1.65
46,0.36,2.03,0.44,2.12,-2.12,-1.27,-1.76,-1.68,-1.67
47,0.57,2.26,0.59,2.28,-2.28,-1.53,-1.71,-1.69,-1.69
48,0.66,2.37,0.71,2.43,-2.43,-1.79,-1.77,-1.71,-1.71
49,0.86,2.59,0.83,2.56,-2.56,-2.05,-1.70,-1.73,-1.73
50,0.96,2.71,0.93,2.68,-2.68,-2.30,-1.72,-1.75,-1.75
51,1.07,2.84,1.01,2.78,-2.78,-2.55,-1.71,-1.77,-1.77
52,1.09,2.88,1.08,2.87,-2.87,-2.79,-1.78,-1.79,-1.79
53,1.17,2.98,1.14,2.95,-2.95,-3.02,-1.78,-1.81,-1.82
54,1.17,3.01,1.17,3.02,-3.02,-3.24,-1.85,-1.85,-1.84
55,1.27,3.13,1.20,3.08,-3.08,-3.44,-1.81,-1.88,-1.86
56,1.27,3.16,1.23,3.13,-3.13,-3.64,-1.86,-1.90,-1.89
57,1.27,3.18,1.24,3.18,-3.18,-3.81,-1.91,-1.94,-1.91
58,1.27,3.21,1.26,3.23,-3.23,-3.97,-1.96,-1.97,-1.94
59,1.27,3.24,1.28,3.28,-3.28,-4.11,-2.01,-2.00,-1.97
60,1.22,3.22,1.31,3.34,-3.34,-4.24,-2.12,-2.03,-2.00
61,1.27,3.29,1.34,3.40,-3.40,-4.34,-2.13,-2.06,-2.02
62,1.27,3.32,1.38,3.47,-3.47,-4.42,-2.20,-2.09,-2.05
63,1.33,3.41,1.43,3.55,-3.55,-4.49,-2.23,-2.12,-2.08
64,1.53,3.64,1.50,3.64,-3.64,-4.54,-2.11,-2.15,-2.11
65,1.57,3.71,1.56,3.74,-3.74,-4.57,-2.17,-2.17,-2.14
66,1.67,3.85,1.64,3.84,-3.84,-4.58,-2.17,-2.20,-2.18
67,1.77,3.98,1.72,3.94,-3.94,-4.59,-2.17,-2.22,-2.21
68,1.82,4.06,1.79,4.04,-4.04,-4.58,-2.22,-2.25,-2.24
69,1.89,4.16,1.86,4.14,-4.14,-4.57,-2.25,-2.27,-2.27
70,1.85,4.16,1.93,4.23,-4.23,-4.54,-2.38,-2.30,-2.31
71,2.09,4.43,1.98,4.31,-4.31,-4.52,-2.22,-2.33,-2.34
72,2.08,4.45,2.02,4.39,-4.39,-4.48,-2.31,-2.37,-2.37
73,2.07,4.48,2.05,4.46,-4.46,-4.45,-2.39,-2.41,-2.41
74,2.07,4.51,2.06,4.51,-4.51,-4.42,-2.45,-2.45,-2.44
75,2.07,4.55,2.08,4.56,-4.56,-4.38,-2.50,-2.49,-2.48
76,2.07,4.58,2.08,4.61,-4.61,-4.35,-2.54,-2.52,-2.51
77,2.07,4.62,2.09,4.65,-4.65,-4.32,-2.58,-2.56,-2.55
78,2.07,4.65,2.09,4.68,-4.68,-4.29,-2.61,-2.59,-2.59
79,2.07,4.69,2.08,4.71,-4.71,-4.27,-2.65,-2.63,-2.62
80,2.07,4.73,2.08,4.75,-4.75,-4.25,-2.68,-2.67,-2.66
81,2.07,4.76,2.07,4.78,-4.78,-4.23,-2.71,-2.71,-2.69
82,2.07,4.80,2.07,4.81,-4.81,-4.22,-2.74,-2.74,-2.73
83,2.07,4.84,2.08,4.85,-4.85,-4.21,-2.78,-2.77,-2.77
84,2.07,4.87,2.08,4.88,-4.88,-4.20,-2.81,-2.80,-2.80
85,2.07,4.91,2.07,4.92,-4.92,-4.20,-2.85,-2.84,-2.84
86,2.07,4.94,2.07,4.95,-4.95,-4.20,-2.88,-2.88,-2.88
87,2.07,4.98,2.07,4.99,-4.99,-4.21,-2.92,-2.92,-2.91
88,2.07,5.02,2.07,5.02,-5.02,-4.22,-2.95,-2.95,-2.95
89,2.07,5.05,2.07,5.05,-5.05,-4.24,-2.99,-2.99,-2.98
90,2.07,5.09,2.06,5.09,-5.09,-4.26,-3.02,-3.03,-3.02
91,2.08,5.13,2.05,5.11,-5.11,-4.28,-3.03,-3.06,-3.06
92,2.03,5.12,2.04,5.13,-5.13,-4.31,-3.10,-3.09,-3.09
93,1.94,5.07,2.02,5.14,-5.14,-4.34,-3.20,-3.12,-3.13
94,1.97,5.13,1.99,5.15,-5.15,-4.38,-3.18,-3.16,-3.16
95,2.00,5.20,1.95,5.15,-5.15,-4.42,-3.15,-3.20,-3.20
96,2.01,5.24,1.90,5.15,-5.15,-4.46,-3.14,-3.24,-3.23
97,1.88,5.14,1.86,5.13,-5.13,-4.50,-3.26,-3.28,-3.27
98,1.86,5.16,1.81,5.12,-5.12,-4.54,-3.26,-3.31,-3.30
99,1.72,5.05,1.75,5.10,-5.10,-4.59,-3.38,-3.35,-3.33
100,1.73,5.10,1.69,5.08,-5.08,-4.64,-3.35,-3.39,-3.37
101,1.61,5.01,1.62,5.05,-5.05,-4.69,-3.44,-3.43,-3.40
102,1.45,4.88,1.56,5.03,-5.03,-4.74,-3.58,-3.46,-3.43
104,1.47,4.97,1.51,5.00,-5.00,-4.85,-3.53,-3.49,-3.50
105,1.45,4.98,1.45,4.98,-4.98,-4.90,-3.53,-3.53,-3.53
106,1.42,4.98,1.39,4.96,-4.96,-4.96,-3.54,-3.57,-3.56
107,1.40,4.99,1.34,4.94,-4.94,-5.01,-3.54,-3.60,-3.59
108,1.27,4.89,1.30,4.93,-4.93,-5.06,-3.66,-3.63,-3.62
109,1.19,4.84,1.26,4.92,-4.92,-5.12,-3.73,-3.66,-3.65
110,1.23,4.91,1.23,4.92,-4.92,-5.17,-3.69,-3.69,-3.68
111,1.24,4.95,1.20,4.92,-4.92,-5.22,-3.68,-3.72,-3.71
112,1.27,5.01,1.18,4.93,-4.93,-5.26,-3.66,-3.75,-3.74
113,1.18,4.95,1.16,4.94,-4.94,-5.31,-3.76,-3.77,-3.77
114,1.09,4.88,1.14,4.95,-4.95,-5.35,-3.86,-3.81,-3.79
115,1.09,4.91,1.12,4.96,-4.96,-5.39,-3.87,-3.84,-3.82
117,1.09,4.96,1.11,4.98,-4.98,-5.46,-3.89,-3.87,-3.87
118,1.09,4.98,1.11,5.00,-5.00,-5.49,-3.92,-3.89,-3.89
119,1.10,5.01,1.12,5.03,-5.03,-5.52,-3.93,-3.91,-3.91
120,1.11,5.03,1.12,5.05,-5.05,-5.55,-3.94,-3.93,-3.93
121,1.11,5.05,1.11,5.07,-5.07,-5.57,-3.96,-3.95,-3.94
123,1.12,5.10,1.11,5.09,-5.09,-5.59,-3.97,-3.98,-3.98
124,1.13,5.12,1.10,5.11,-5.11,-5.60,-3.98,-4.00,-3.99
125,1.14,5.15,1.10,5.12,-5.12,-5.61,-3.98,-4.02,-4.01
126,1.14,5.16,1.10,5.13,-5.13,-5.61,-3.99,-4.04,-4.02
128,1.15,5.20,1.08,5.14,-5.14,-5.60,-4.00,-4.06,-4.05
129,1.09,5.16,1.07,5.15,-5.15,-5.60,-4.06,-4.08,-4.07
130,1.06,5.14,1.06,5.16,-5.16,-5.59,-4.10,-4.09,-4.08
131,1.00,5.09,1.05,5.16,-5.16,-5.57,-4.16,-4.11,-4.09
133,0.97,5.09,1.03,5.17,-5.17,-5.54,-4.20,-4.14,-4.12
134,0.97,5.11,1.01,5.17,-5.17,-5.51,-4.20,-4.16,-4.14
135,0.98,5.13,1.00,5.17,-5.17,-5.49,-4.19,-4.17,-4.15
137,0.98,5.16,0.98,5.18,-5.18,-5.44,-4.20,-4.19,-4.18
138,0.98,5.18,0.97,5.18,-5.18,-5.41,-4.20,-4.21,-4.20
140,0.99,5.22,0.95,5.19,-5.19,-5.35,-4.20,-4.24,-4.23
141,0.99,5.23,0.93,5.19,-5.19,-5.32,-4.21,-4.26,-4.24
142,0.99,5.25,0.92,5.20,-5.20,-5.29,-4.21,-4.28,-4.26
144,0.83,5.12,0.92,5.21,-5.21,-5.22,-4.38,-4.29,-4.29
145,0.84,5.14,0.91,5.22,-5.22,-5.19,-4.38,-4.31,-4.30
147,0.95,5.28,0.89,5.22,-5.22,-5.13,-4.27,-4.33,-4.33
148,0.90,5.24,0.87,5.22,-5.22,-5.10,-4.32,-4.35,-4.34
150,0.79,5.16,0.85,5.22,-5.22,-5.03,-4.43,-4.36,-4.37
151,0.79,5.17,0.83,5.21,-5.21,-5.00,-4.42,-4.38,-4.38
153,0.79,5.19,0.79,5.20,-5.20,-4.95,-4.41,-4.40,-4.40
154,0.79,5.20,0.76,5.18,-5.18,-4.92,-4.39,-4.43,-4.41
156,0.79,5.23,0.72,5.16,-5.16,-4.86,-4.37,-4.45,-4.44
157,0.74,5.19,0.68,5.14,-5.14,-4.84,-4.40,-4.46,-4.45
159,0.67,5.14,0.64,5.12,-5.12,-4.79,-4.45,-4.48,-4.47
160,0.61,5.09,0.59,5.09,-5.09,-4.77,-4.48,-4.50,-4.48
162,0.54,5.04,0.54,5.07,-5.07,-4.73,-4.53,-4.52,-4.50
164,0.47,4.99,0.50,5.04,-5.04,-4.70,-4.57,-4.54,-4.52
165,0.41,4.94,0.47,5.02,-5.02,-4.68,-4.61,-4.55,-4.54
167,0.37,4.93,0.43,5.00,-5.00,-4.66,-4.63,-4.57,-4.56
169,0.37,4.95,0.39,4.99,-4.99,-4.63,-4.62,-4.60,-4.58
170,0.36,4.95,0.36,4.98,-4.98,-4.62,-4.62,-4.62,-4.59
172,0.36,4.97,0.34,4.98,-4.98,-4.61,-4.62,-4.63,-4.61
174,0.35,4.98,0.34,4.98,-4.98,-4.60,-4.63,-4.65,-4.63
175,0.34,4.98,0.34,4.99,-4.99,-4.60,-4.65,-4.65,-4.64
177,0.34,5.00,0.34,5.00,-5.00,-4.59,-4.66,-4.66,-4.66
179,0.34,5.01,0.35,5.01,-5.01,-4.60,-4.67,-4.66,-4.67
181,0.34,5.02,0.35,5.01,-5.01,-4.60,-4.68,-4.66,-4.68
183,0.35,5.03,0.35,5.02,-5.02,-4.61,-4.67,-4.67,-4.68
184,0.36,5.04,0.35,5.03,-5.03,-4.62,-4.67,-4.67,-4.68
186,0.37,5.05,0.35,5.03,-5.03,-4.64,-4.66,-4.68,-4.68
188,0.39,5.06,0.34,5.02,-5.02,-4.66,-4.63,-4.68,-4.67
190,0.40,5.07,0.33,5.02,-5.02,-4.68,-4.62,-4.68,-4.67
192,0.35,5.01,0.33,5.01,-5.01,-4.71,-4.66,-4.68,-4.66
194,0.31,4.97,0.32,5.00,-5.00,-4.74,-4.69,-4.68,-4.66
196,0.25,4.90,0.32,4.99,-4.99,-4.77,-4.74,-4.67,-4.65
198,0.26,4.91,0.32,4.98,-4.98,-4.80,-4.72,-4.67,-4.65
200,0.27,4.92,0.30,4.97,-4.97,-4.84,-4.70,-4.66,-4.65
202,0.27,4.92,0.29,4.95,-4.95,-4.88,-4.69,-4.67,-4.65
204,0.28,4.93,0.27,4.94,-4.94,-4.92,-4.66,-4.67,-4.65
206,0.28,4.93,0.25,4.93,-4.93,-4.96,-4.65,-4.68,-4.65
208,0.28,4.94,0.23,4.91,-4.91,-5.00,-4.64,-4.69,-4.66
210,0.28,4.95,0.21,4.90,-4.90,-5.04,-4.62,-4.70,-4.67
212,0.26,4.94,0.19,4.89,-4.89,-5.08,-4.63,-4.70,-4.68
214,0.17,4.86,0.18,4.88,-4.88,-5.12,-4.71,-4.70,-4.69
216,0.12,4.82,0.16,4.86,-4.86,-5.17,-4.74,-4.71,-4.70
218,0.06,4.77,0.14,4.85,-4.85,-5.21,-4.79,-4.71,-4.71
221,0.06,4.78,0.12,4.83,-4.83,-5.26,-4.77,-4.72,-4.72
223,0.06,4.79,0.09,4.82,-4.82,-5.30,-4.76,-4.73,-4.73
225,0.06,4.79,0.06,4.80,-4.80,-5.34,-4.74,-4.74,-4.73
227,0.06,4.79,0.03,4.78,-4.78,-5.37,-4.72,-4.75,-4.73
229,0.06,4.79,0.01,4.77,-4.77,-5.40,-4.71,-4.76,-4.73
232,0.07,4.80,-0.00,4.76,-4.76,-5.44,-4.69,-4.76,-4.73
234,0.04,4.76,-0.01,4.75,-4.75,-5.46,-4.71,-4.75,-4.73
236,-0.03,4.69,0.01,4.74,-4.74,-5.48,-4.77,-4.74,-4.72
239,-0.00,4.71,0.02,4.74,-4.74,-5.50,-4.74,-4.72,-4.71
241,-0.07,4.62,0.02,4.73,-4.73,-5.51,-4.80,-4.71,-4.69
244,-0.09,4.59,0.03,4.73,-4.73,-5.52,-4.82,-4.70,-4.68
246,-0.07,4.60,0.03,4.72,-4.72,-5.52,-4.79,-4.69,-4.67
248,0.09,4.74,0.03,4.71,-4.71,-5.52,-4.62,-4.68,-4.65
251,0.11,4.75,0.04,4.70,-4.70,-5.51,-4.59,-4.67,-4.64
253,0.12,4.75,0.03,4.69,-4.69,-5.49,-4.57,-4.66,-4.63
256,0.14,4.76,0.03,4.68,-4.68,-5.47,-4.54,-4.64,-4.62
259,0.12,4.73,0.03,4.66,-4.66,-5.44,-4.54,-4.63,-4.62
261,-0.02,4.59,0.02,4.64,-4.64,-5.41,-4.66,-4.62,-4.61
264,-0.06,4.55,-0.00,4.61,-4.61,-5.37,-4.67,-4.62,-4.61
266,-0.05,4.56,-0.03,4.58,-4.58,-5.34,-4.63,-4.61,-4.61
269,-0.06,4.55,-0.06,4.55,-4.55,-5.28,-4.61,-4.61,-4.61
272,-0.07,4.54,-0.10,4.51,-4.51,-5.23,-4.58,-4.61,-4.61
274,-0.17,4.44,-0.15,4.47,-4.47,-5.19,-4.64,-4.61,-4.61
277,-0.17,4.44,-0.18,4.43,-4.43,-5.12,-4.60,-4.61,-4.62
280,-0.17,4.44,-0.21,4.40,-4.40,-5.06,-4.57,-4.61,-4.62
283,-0.26,4.35,-0.24,4.37,-4.37,-4.99,-4.63,-4.61,-4.61
286,-0.26,4.35,-0.26,4.35,-4.35,-4.92,-4.62,-4.62,-4.61
288,-0.25,4.35,-0.27,4.35,-4.35,-4.87,-4.60,-4.62,-4.60
291,-0.24,4.36,-0.27,4.36,-4.36,-4.80,-4.60,-4.63,-4.60
294,-0.23,4.36,-0.25,4.38,-4.38,-4.73,-4.61,-4.63,-4.59
297,-0.23,4.35,-0.21,4.43,-4.43,-4.66,-4.66,-4.63,-4.58
300,-0.22,4.35,-0.13,4.49,-4.49,-4.59,-4.71,-4.62,-4.57
303,-0.11,4.45,-0.03,4.58,-4.58,-4.52,-4.69,-4.61,-4.56
306,-0.05,4.50,0.08,4.68,-4.68,-4.45,-4.73,-4.60,-4.55
309,0.03,4.57,0.20,4.79,-4.79,-4.39,-4.77,-4.60,-4.54
312,0.22,4.75,0.33,4.91,-4.91,-4.33,-4.70,-4.58,-4.53
316,0.47,5.00,0.47,5.04,-5.04,-4.24,-4.57,-4.57,-4.53
319,0.69,5.21,0.59,5.15,-5.15,-4.19,-4.47,-4.56,-4.53
322,0.85,5.37,0.71,5.26,-5.26,-4.13,-4.42,-4.55,-4.52
325,0.99,5.51,0.82,5.36,-5.36,-4.08,-4.37,-4.54,-4.52
328,1.09,5.61,0.90,5.43,-5.43,-4.03,-4.34,-4.53,-4.52
332,1.00,5.52,0.96,5.48,-5.48,-3.96,-4.48,-4.52,-4.52
335,0.94,5.46,1.00,5.51,-5.51,-3.92,-4.57,-4.51,-4.53
338,1.04,5.56,1.01,5.51,-5.51,-3.87,-4.47,-4.50,-4.53
342,1.03,5.56,0.98,5.49,-5.49,-3.82,-4.46,-4.51,-4.53
345,0.92,5.45,0.93,5.45,-5.45,-3.78,-4.53,-4.52,-4.53
349,0.82,5.34,0.86,5.39,-5.39,-3.74,-4.57,-4.53,-4.53
352,0.76,5.28,0.77,5.31,-5.31,-3.71,-4.55,-4.54,-4.52
356,0.67,5.19,0.69,5.22,-5.22,-3.67,-4.55,-4.54,-4.52
359,0.58,5.09,0.60,5.13,-5.13,-3.64,-4.55,-4.53,-4.51
363,0.53,5.04,0.52,5.04,-5.04,-3.61,-4.51,-4.52,-4.51
366,0.48,4.98,0.44,4.95,-4.95,-3.59,-4.47,-4.50,-4.50
370,0.32,4.81,0.37,4.86,-4.86,-3.56,-4.54,-4.49,-4.49
374,0.22,4.70,0.28,4.78,-4.78,-3.54,-4.56,-4.50,-4.49
377,0.20,4.68,0.20,4.71,-4.71,-3.53,-4.51,-4.50,-4.48
381,0.11,4.58,0.14,4.64,-4.64,-3.51,-4.53,-4.50,-4.47
385,0.09,4.55,0.09,4.58,-4.58,-3.50,-4.49,-4.49,-4.47
389,0.10,4.56,0.04,4.53,-4.53,-3.49,-4.43,-4.49,-4.46
393,0.02,4.48,0.00,4.49,-4.49,-3.48,-4.47,-4.49,-4.46
397,-0.02,4.44,-0.03,4.46,-4.46,-3.47,-4.48,-4.49,-4.46
401,-0.07,4.39,-0.05,4.44,-4.44,-3.47,-4.51,-4.48,-4.46
405,-0.12,4.34,-0.06,4.42,-4.42,-3.47,-4.54,-4.48,-4.46
409,-0.20,4.26,-0.06,4.40,-4.40,-3.47,-4.60,-4.46,-4.46
413,-0.11,4.35,-0.08,4.38,-4.38,-3.47,-4.50,-4.46,-4.46
417,-0.02,4.44,-0.10,4.37,-4.37,-3.47,-4.39,-4.47,-4.46
421,-0.01,4.44,-0.12,4.35,-4.35,-3.48,-4.36,-4.46,-4.45
425,-0.09,4.35,-0.13,4.32,-4.32,-3.48,-4.41,-4.45,-4.44
430,-0.09,4.33,-0.14,4.29,-4.29,-3.49,-4.38,-4.43,-4.42
434,-0.08,4.32,-0.15,4.25,-4.25,-3.50,-4.33,-4.40,-4.40
438,-0.15,4.22,-0.16,4.21,-4.21,-3.50,-4.36,-4.37,-4.37
443,-0.23,4.10,-0.17,4.16,-4.16,-3.51,-4.39,-4.33,-4.33
447,-0.27,4.02,-0.18,4.10,-4.10,-3.52,-4.37,-4.28,-4.29
451,-0.30,3.94,-0.19,4.04,-4.04,-3.52,-4.34,-4.23,-4.24
456,-0.26,3.92,-0.22,3.97,-3.97,-3.53,-4.23,-4.19,-4.18
460,-0.19,3.93,-0.24,3.90,-3.90,-3.53,-4.09,-4.14,-4.13
465,-0.22,3.85,-0.26,3.82,-3.82,-3.54,-4.04,-4.08,-4.07
470,-0.24,3.77,-0.28,3.74,-3.74,-3.54,-3.98,-4.02,-4.01
474,-0.28,3.67,-0.30,3.65,-3.65,-3.54,-3.93,-3.96,-3.95
479,-0.33,3.57,-0.34,3.57,-3.57,-3.54,-3.90,-3.90,-3.90
484,-0.33,3.51,-0.37,3.48,-3.48,-3.54,-3.81,-3.84,-3.85
489,-0.39,3.41,-0.41,3.38,-3.38,-3.54,-3.77,-3.80,-3.80
494,-0.46,3.30,-0.47,3.29,-3.29,-3.53,-3.75,-3.76,-3.76
499,-0.57,3.15,-0.54,3.20,-3.20,-3.52,-3.77,-3.74,-3.72
504,-0.60,3.10,-0.61,3.11,-3.11,-3.51,-3.71,-3.72,-3.70
509,-0.62,3.06,-0.69,3.03,-3.03,-3.50,-3.65,-3.71,-3.68
514,-0.76,2.91,-0.76,2.95,-2.95,-3.49,-3.71,-3.70,-3.67
519,-0.86,2.81,-0.83,2.87,-2.87,-3.47,-3.73,-3.70,-3.67
524,-0.94,2.73,-0.89,2.81,-2.81,-3.46,-3.75,-3.70,-3.67
529,-0.99,2.70,-0.96,2.75,-2.75,-3.44,-3.74,-3.71,-3.69
535,-1.10,2.61,-1.04,2.69,-2.69,-3.42,-3.79,-3.73,-3.71
540,-1.13,2.61,-1.11,2.64,-2.64,-3.39,-3.77,-3.76,-3.74
545,-1.17,2.60,-1.19,2.60,-2.60,-3.37,-3.77,-3.78,-3.77
551,-1.21,2.59,-1.26,2.56,-2.56,-3.35,-3.77,-3.82,-3.81
556,-1.26,2.58,-1.33,2.52,-2.52,-3.32,-3.78,-3.85,-3.84
562,-1.31,2.56,-1.40,2.48,-2.48,-3.30,-3.80,-3.88,-3.87
568,-1.41,2.49,-1.45,2.45,-2.45,-3.27,-3.86,-3.90,-3.90
573,-1.51,2.41,-1.50,2.42,-2.42,-3.24,-3.93,-3.92,-3.92
579,-1.62,2.32,-1.55,2.39,-2.39,-3.22,-4.01,-3.94,-3.94
585,-1.67,2.28,-1.59,2.36,-2.36,-3.19,-4.03,-3.95,-3.95
591,-1.68,2.28,-1.63,2.33,-2.33,-3.16,-4.01,-3.95,-3.96
596,-1.69,2.27,-1.66,2.30,-2.30,-3.14,-3.99,-3.96,-3.96
602,-1.68,2.27,-1.67,2.28,-2.28,-3.12,-3.96,-3.95,-3.95
608,-1.67,2.26,-1.68,2.25,-2.25,-3.10,-3.92,-3.94,-3.93
615,-1.66,2.25,-1.68,2.24,-2.24,-3.07,-3.90,-3.92,-3.91
621,-1.63,2.25,-1.67,2.23,-2.23,-3.05,-3.86,-3.89,-3.88
627,-1.61,2.23,-1.64,2.22,-2.22,-3.03,-3.83,-3.86,-3.85
633,-1.58,2.23,-1.60,2.22,-2.22,-3.02,-3.80,-3.81,-3.81
639,-1.55,2.21,-1.55,2.22,-2.22,-3.00,-3.77,-3.76,-3.76
646,-1.51,2.20,-1.49,2.23,-2.23,-2.99,-3.74,-3.72,-3.72
652,-1.47,2.19,-1.43,2.24,-2.24,-2.98,-3.71,-3.67,-3.67
659,-1.42,2.19,-1.36,2.26,-2.26,-2.97,-3.68,-3.62,-3.61
665,-1.36,2.20,-1.29,2.28,-2.28,-2.96,-3.65,-3.58,-3.56
672,-1.22,2.29,-1.22,2.31,-2.31,-2.96,-3.53,-3.53,-3.51
679,-1.11,2.35,-1.14,2.34,-2.34,-2.95,-3.45,-3.48,-3.46
686,-1.02,2.40,-1.06,2.38,-2.38,-2.95,-3.40,-3.44,-3.42
692,-0.95,2.43,-0.99,2.42,-2.42,-2.96,-3.37,-3.40,-3.38
699,-0.85,2.50,-0.92,2.45,-2.45,-2.96,-3.30,-3.37,-3.35
706,-0.84,2.49,-0.85,2.49,-2.49,-2.97,-3.33,-3.34,-3.33
713,-0.81,2.50,-0.79,2.52,-2.52,-2.97,-3.33,-3.31,-3.31
721,-0.74,2.56,-0.75,2.55,-2.55,-2.99,-3.29,-3.30,-3.30
728,-0.69,2.61,-0.71,2.58,-2.58,-3.00,-3.27,-3.29,-3.30
735,-0.67,2.63,-0.69,2.60,-2.60,-3.02,-3.27,-3.29,-3.30
742,-0.61,2.69,-0.67,2.63,-2.63,-3.03,-3.24,-3.30,-3.30
750,-0.64,2.66,-0.66,2.65,-2.65,-3.05,-3.29,-3.30,-3.30
757,-0.67,2.63,-0.63,2.67,-2.67,-3.07,-3.34,-3.31,-3.30
765,-0.57,2.73,-0.61,2.70,-2.70,-3.10,-3.27,-3.31,-3.30
773,-0.59,2.70,-0.58,2.73,-2.73,-3.13,-3.32,-3.31,-3.29
780,-0.62,2.66,-0.53,2.77,-2.77,-3.15,-3.39,-3.30,-3.28
788,-0.57,2.70,-0.48,2.80,-2.80,-3.18,-3.37,-3.28,-3.27
796,-0.52,2.74,-0.43,2.85,-2.85,-3.21,-3.37,-3.28,-3.26
804,-0.40,2.84,-0.37,2.89,-2.89,-3.24,-3.30,-3.26,-3.24
812,-0.30,2.92,-0.30,2.94,-2.94,-3.28,-3.24,-3.24,-3.22
820,-0.21,3.00,-0.23,2.99,-2.99,-3.31,-3.20,-3.22,-3.21
828,-0.15,3.04,-0.16,3.04,-3.04,-3.34,-3.19,-3.20,-3.19
837,-0.10,3.08,-0.10,3.08,-3.08,-3.38,-3.18,-3.18,-3.18
845,0.06,3.22,-0.06,3.12,-3.12,-3.41,-3.06,-3.18,-3.16
853,0.13,3.28,-0.01,3.15,-3.15,-3.44,-3.02,-3.16,-3.15
862,0.05,3.19,0.03,3.18,-3.18,-3.47,-3.13,-3.15,-3.14
871,0.04,3.18,0.06,3.20,-3.20,-3.50,-3.16,-3.14,-3.14
879,0.17,3.30,0.08,3.21,-3.21,-3.53,-3.04,-3.13,-3.13
888,0.02,3.15,0.08,3.22,-3.22,-3.56,-3.20,-3.14,-3.13
897,0.02,3.14,0.09,3.23,-3.23,-3.58,-3.21,-3.14,-3.12
906,0.04,3.16,0.10,3.23,-3.23,-3.60,-3.19,-3.13,-3.12
915,-0.00,3.11,0.10,3.22,-3.22,-3.62,-3.22,-3.12,-3.11
924,0.07,3.17,0.09,3.22,-3.22,-3.63,-3.15,-3.12,-3.11
933,0.14,3.24,0.08,3.21,-3.21,-3.64,-3.07,-3.13,-3.10
943,0.16,3.25,0.09,3.20,-3.20,-3.65,-3.04,-3.11,-3.09
952,0.12,3.20,0.10,3.19,-3.19,-3.65,-3.07,-3.09,-3.08
962,0.05,3.12,0.10,3.17,-3.17,-3.64,-3.12,-3.07,-3.07
971,0.05,3.11,0.09,3.15,-3.15,-3.63,-3.10,-3.06,-3.06
981,0.16,3.20,0.09,3.12,-3.12,-3.61,-2.96,-3.03,-3.05
991,0.10,3.13,0.07,3.07,-3.07,-3.59,-2.97,-3.00,-3.03
1001,-0.01,3.00,0.03,3.02,-3.02,-3.56,-3.03,-2.99,-3.01
1011,-0.05,2.94,-0.01,2.95,-2.95,-3.53,-3.00,-2.96,-2.99
1021,0.04,3.01,-0.06,2.88,-2.88,-3.48,-2.84,-2.94,-2.97
1031,0.03,2.97,-0.13,2.80,-2.80,-3.44,-2.78,-2.93,-2.94
1041,-0.22,2.70,-0.19,2.72,-2.72,-3.39,-2.94,-2.91,-2.92
1052,-0.28,2.61,-0.26,2.64,-2.64,-3.32,-2.92,-2.90,-2.89
1062,-0.28,2.58,-0.33,2.56,-2.56,-3.26,-2.85,-2.89,-2.86
1073,-0.36,2.47,-0.39,2.50,-2.50,-3.19,-2.86,-2.88,-2.83
1084,-0.43,2.37,-0.44,2.44,-2.44,-3.11,-2.87,-2.87,-2.80
1094,-0.54,2.23,-0.45,2.39,-2.39,-3.04,-2.93,-2.84,-2.77
1105,-0.40,2.34,-0.44,2.36,-2.36,-2.95,-2.76,-2.80,-2.74
1116,-0.63,2.08,-0.41,2.35,-2.35,-2.86,-2.98,-2.76,-2.71
1128,-0.60,2.07,-0.37,2.35,-2.35,-2.76,-2.95,-2.73,-2.67
1139,-0.33,2.31,-0.31,2.37,-2.37,-2.67,-2.70,-2.68,-2.64
1150,-0.40,2.20,-0.23,2.40,-2.40,-2.58,-2.80,-2.63,-2.60
1162,-0.16,2.41,-0.16,2.43,-2.43,-2.47,-2.59,-2.59,-2.57
1173,0.04,2.57,-0.09,2.46,-2.46,-2.37,-2.43,-2.55,-2.53
1185,0.17,2.67,-0.01,2.50,-2.50,-2.26,-2.33,-2.50,-2.50
1197,0.30,2.76,0.07,2.53,-2.53,-2.16,-2.23,-2.45,-2.46
1209,0.25,2.67,0.14,2.55,-2.55,-2.05,-2.30,-2.40,-2.42
1221,0.21,2.59,0.19,2.56,-2.56,-1.94,-2.35,-2.37,-2.39
1233,0.19,2.54,0.23,2.56,-2.56,-1.83,-2.37,-2.32,-2.35
1246,0.15,2.47,0.24,2.55,-2.55,-1.71,-2.40,-2.31,-2.32
1258,0.16,2.46,0.23,2.53,-2.53,-1.61,-2.37,-2.30,-2.30
1271,0.21,2.49,0.21,2.50,-2.50,-1.49,-2.29,-2.29,-2.28
1283,0.16,2.43,0.18,2.46,-2.46,-1.38,-2.31,-2.29,-2.27
1296,0.16,2.42,0.13,2.42,-2.42,-1.27,-2.26,-2.29,-2.26
1309,0.13,2.39,0.08,2.37,-2.37,-1.16,-2.24,-2.30,-2.26
1322,-0.00,2.27,0.03,2.32,-2.32,-1.05,-2.32,-2.30,-2.27
1335,-0.06,2.22,-0.03,2.27,-2.27,-0.94,-2.33,-2.30,-2.28
1349,-0.08,2.22,-0.09,2.21,-2.21,-0.82,-2.30,-2.30,-2.30
1362,-0.14,2.17,-0.16,2.16,-2.16,-0.71,-2.30,-2.31,-2.32
1376,-0.19,2.15,-0.23,2.09,-2.09,-0.60,-2.28,-2.32,-2.34
1390,-0.25,2.11,-0.31,2.03,-2.03,-0.48,-2.28,-2.34,-2.36
1404,-0.44,1.94,-0.40,1.96,-1.96,-0.37,-2.40,-2.36,-2.38
1418,-0.54,1.85,-0.49,1.88,-1.88,-0.26,-2.42,-2.38,-2.39
1432,-0.60,1.81,-0.59,1.81,-1.81,-0.15,-2.41,-2.40,-2.41
1446,-0.66,1.76,-0.68,1.73,-1.73,-0.04,-2.39,-2.41,-2.42
1461,-0.80,1.62,-0.77,1.65,-1.65,0.07,-2.45,-2.42,-2.42
1475,-0.84,1.58,-0.86,1.56,-1.56,0.18,-2.40,-2.42,-2.42
1490,-0.89,1.52,-0.94,1.48,-1.48,0.29,-2.37,-2.43,-2.41
1505,-1.02,1.39,-1.03,1.40,-1.40,0.40,-2.42,-2.43,-2.41
1520,-1.16,1.24,-1.10,1.32,-1.32,0.51,-2.48,-2.42,-2.40
1535,-1.23,1.16,-1.17,1.24,-1.24,0.62,-2.47,-2.41,-2.39
1550,-1.29,1.08,-1.22,1.17,-1.17,0.72,-2.46,-2.39,-2.37
1566,-1.28,1.07,-1.27,1.09,-1.09,0.83,-2.37,-2.36,-2.35
1582,-1.31,1.02,-1.32,1.01,-1.01,0.95,-2.32,-2.34,-2.33
1597,-1.38,0.93,-1.38,0.93,-0.93,1.05,-2.31,-2.31,-2.31
1613,-1.41,0.87,-1.43,0.84,-0.84,1.15,-2.25,-2.27,-2.28
1629,-1.48,0.76,-1.49,0.74,-0.74,1.26,-2.22,-2.24,-2.24
1646,-1.57,0.63,-1.56,0.64,-0.64,1.37,-2.21,-2.20,-2.20
1662,-1.57,0.59,-1.62,0.52,-0.52,1.47,-2.09,-2.14,-2.16
