frequency,raw,error,smoothed,error_smoothed,equalization,parametric_eq,fixed_band_eq,equalized_raw,equalized_smoothed,target
20.00,-1.41,2.06,-1.41,2.04,-2.04,-2.36,-1.62,-3.44,-3.44,-3.47
20.20,-1.31,2.07,-1.30,2.06,-2.06,-2.39,-1.67,-3.37,-3.37,-3.38
20.40,-1.21,2.09,-1.20,2.09,-2.09,-2.42,-1.72,-3.30,-3.29,-3.30
20.61,-1.10,2.13,-1.10,2.12,-2.12,-2.45,-1.77,-3.22,-3.22,-3.23
20.81,-1.00,2.14,-1.00,2.15,-2.15,-2.48,-1.82,-3.15,-3.15,-3.14
21.02,-0.90,2.16,-0.90,2.19,-2.19,-2.51,-1.88,-3.08,-3.09,-3.06
21.23,-0.80,2.20,-0.80,2.22,-2.22,-2.54,-1.93,-3.02,-3.02,-3.00
21.44,-0.70,2.24,-0.70,2.26,-2.26,-2.57,-1.99,-2.96,-2.96,-2.94
21.66,-0.61,2.28,-0.60,2.30,-2.30,-2.61,-2.05,-2.91,-2.90,-2.89
21.87,-0.50,2.33,-0.50,2.35,-2.35,-2.64,-2.11,-2.85,-2.85,-2.84
22.09,-0.41,2.38,-0.40,2.39,-2.39,-2.67,-2.17,-2.80,-2.79,-2.79
22.31,-0.30,2.44,-0.31,2.44,-2.44,-2.70,-2.23,-2.74,-2.74,-2.74
22.54,-0.22,2.48,-0.21,2.49,-2.49,-2.73,-2.30,-2.71,-2.70,-2.70
22.76,-0.12,2.55,-0.11,2.54,-2.54,-2.77,-2.36,-2.66,-2.66,-2.66
22.99,-0.02,2.62,-0.02,2.60,-2.60,-2.80,-2.43,-2.62,-2.62,-2.63
23.22,0.07,2.67,0.08,2.66,-2.66,-2.83,-2.50,-2.58,-2.58,-2.59
23.45,0.17,2.73,0.17,2.72,-2.72,-2.86,-2.57,-2.54,-2.54,-2.55
23.69,0.26,2.78,0.27,2.77,-2.77,-2.89,-2.64,-2.51,-2.51,-2.51
23.92,0.36,2.84,0.36,2.83,-2.83,-2.93,-2.72,-2.47,-2.47,-2.47
24.16,0.45,2.88,0.45,2.89,-2.89,-2.96,-2.79,-2.43,-2.43,-2.42
24.40,0.55,2.94,0.54,2.94,-2.94,-2.99,-2.87,-2.40,-2.40,-2.39
24.65,0.63,3.00,0.64,3.00,-3.00,-3.02,-2.94,-2.37,-2.37,-2.36
24.89,0.73,3.06,0.72,3.06,-3.06,-3.06,-3.02,-2.33,-2.33,-2.33
25.14,0.81,3.11,0.81,3.11,-3.11,-3.09,-3.10,-2.30,-2.30,-2.30
25.39,0.91,3.17,0.90,3.17,-3.17,-3.12,-3.18,-2.26,-2.26,-2.27
25.65,0.98,3.21,0.99,3.22,-3.22,-3.15,-3.26,-2.24,-2.23,-2.23
25.91,1.07,3.28,1.07,3.27,-3.27,-3.19,-3.34,-2.20,-2.20,-2.21
26.16,1.16,3.33,1.16,3.32,-3.32,-3.22,-3.42,-2.17,-2.17,-2.18
26.43,1.23,3.37,1.24,3.38,-3.38,-3.25,-3.50,-2.14,-2.14,-2.14
26.69,1.32,3.43,1.32,3.43,-3.43,-3.28,-3.58,-2.10,-2.11,-2.11
26.96,1.40,3.48,1.40,3.48,-3.48,-3.31,-3.66,-2.08,-2.08,-2.08
27.23,1.47,3.51,1.48,3.53,-3.53,-3.35,-3.73,-2.05,-2.05,-2.04
27.50,1.55,3.56,1.56,3.57,-3.57,-3.38,-3.81,-2.02,-2.02,-2.01
27.77,1.63,3.63,1.63,3.62,-3.62,-3.41,-3.88,-1.98,-1.99,-1.99
28.05,1.70,3.66,1.71,3.66,-3.66,-3.44,-3.95,-1.96,-1.96,-1.95
28.33,1.77,3.71,1.78,3.71,-3.71,-3.47,-4.02,-1.93,-1.93,-1.93
28.62,1.84,3.75,1.85,3.75,-3.75,-3.50,-4.08,-1.90,-1.90,-1.90
28.90,1.92,3.79,1.92,3.78,-3.78,-3.53,-4.14,-1.86,-1.87,-1.86
29.19,1.98,3.83,1.98,3.82,-3.82,-3.56,-4.19,-1.84,-1.84,-1.85
29.48,2.05,3.85,2.05,3.85,-3.85,-3.59,-4.25,-1.80,-1.81,-1.80
29.78,2.11,3.89,2.11,3.88,-3.88,-3.62,-4.29,-1.77,-1.78,-1.78
30.08,2.17,3.92,2.16,3.91,-3.91,-3.65,-4.34,-1.74,-1.75,-1.75
30.38,2.22,3.94,2.22,3.94,-3.94,-3.68,-4.37,-1.72,-1.72,-1.72
30.68,2.26,3.95,2.27,3.96,-3.96,-3.71,-4.40,-1.70,-1.70,-1.69
30.99,2.31,3.99,2.31,3.98,-3.98,-3.74,-4.43,-1.67,-1.67,-1.67
31.30,2.35,4.00,2.36,4.00,-4.00,-3.77,-4.45,-1.64,-1.64,-1.64
31.61,2.39,4.01,2.40,4.01,-4.01,-3.80,-4.47,-1.62,-1.62,-1.61
31.93,2.43,4.03,2.43,4.03,-4.03,-3.83,-4.48,-1.59,-1.59,-1.60
32.24,2.46,4.04,2.47,4.04,-4.04,-3.85,-4.48,-1.57,-1.57,-1.58
32.57,2.50,4.05,2.50,4.05,-4.05,-3.88,-4.48,-1.54,-1.55,-1.55
32.89,2.53,4.05,2.53,4.06,-4.06,-3.91,-4.48,-1.52,-1.53,-1.52
33.22,2.56,4.07,2.56,4.07,-4.07,-3.93,-4.47,-1.50,-1.51,-1.50
33.55,2.58,4.07,2.59,4.07,-4.07,-3.96,-4.46,-1.49,-1.49,-1.48
33.89,2.61,4.09,2.61,4.08,-4.08,-3.99,-4.44,-1.47,-1.47,-1.47
34.23,2.63,4.08,2.63,4.09,-4.09,-4.01,-4.42,-1.46,-1.45,-1.45
34.57,2.65,4.09,2.66,4.10,-4.10,-4.04,-4.39,-1.44,-1.44,-1.44
34.92,2.68,4.11,2.68,4.11,-4.11,-4.06,-4.37,-1.42,-1.43,-1.43
35.27,2.69,4.11,2.70,4.11,-4.11,-4.08,-4.34,-1.42,-1.42,-1.41
35.62,2.71,4.13,2.72,4.12,-4.12,-4.11,-4.31,-1.41,-1.41,-1.41
35.97,2.73,4.14,2.73,4.13,-4.13,-4.13,-4.27,-1.40,-1.40,-1.41
36.33,2.74,4.13,2.75,4.15,-4.15,-4.15,-4.24,-1.40,-1.40,-1.39
36.70,2.76,4.15,2.77,4.16,-4.16,-4.17,-4.21,-1.39,-1.39,-1.39
37.06,2.77,4.17,2.78,4.17,-4.17,-4.20,-4.17,-1.40,-1.39,-1.39
37.43,2.79,4.18,2.80,4.18,-4.18,-4.22,-4.14,-1.39,-1.39,-1.39
37.81,2.81,4.20,2.81,4.20,-4.20,-4.24,-4.11,-1.38,-1.39,-1.39
38.19,2.83,4.22,2.82,4.21,-4.21,-4.26,-4.07,-1.38,-1.39,-1.39
38.57,2.84,4.23,2.84,4.23,-4.23,-4.27,-4.04,-1.38,-1.39,-1.38
38.95,2.85,4.24,2.85,4.24,-4.24,-4.29,-4.01,-1.39,-1.39,-1.39
39.34,2.86,4.26,2.86,4.26,-4.26,-4.31,-3.98,-1.39,-1.39,-1.40
39.74,2.87,4.28,2.88,4.27,-4.27,-4.33,-3.96,-1.40,-1.40,-1.40
40.14,2.88,4.29,2.89,4.29,-4.29,-4.34,-3.93,-1.41,-1.40,-1.41
40.54,2.90,4.31,2.90,4.31,-4.31,-4.36,-3.91,-1.40,-1.41,-1.41
40.94,2.91,4.33,2.92,4.33,-4.33,-4.37,-3.89,-1.41,-1.41,-1.41
41.35,2.92,4.34,2.93,4.35,-4.35,-4.39,-3.87,-1.42,-1.42,-1.42
41.76,2.93,4.35,2.94,4.37,-4.37,-4.40,-3.85,-1.43,-1.42,-1.42
42.18,2.95,4.38,2.96,4.39,-4.39,-4.42,-3.84,-1.43,-1.43,-1.42
42.60,2.96,4.40,2.97,4.41,-4.41,-4.43,-3.83,-1.44,-1.44,-1.44
43.03,2.98,4.42,2.99,4.43,-4.43,-4.44,-3.82,-1.45,-1.45,-1.43
43.46,3.00,4.45,3.00,4.45,-4.45,-4.45,-3.82,-1.45,-1.45,-1.45
43.90,3.02,4.48,3.02,4.48,-4.48,-4.46,-3.82,-1.45,-1.46,-1.46
44.33,3.03,4.51,3.03,4.50,-4.50,-4.47,-3.82,-1.46,-1.47,-1.48
44.78,3.04,4.52,3.04,4.52,-4.52,-4.48,-3.82,-1.47,-1.48,-1.48
45.23,3.05,4.55,3.05,4.54,-4.54,-4.49,-3.83,-1.48,-1.48,-1.50
45.68,3.06,4.56,3.07,4.56,-4.56,-4.49,-3.84,-1.50,-1.49,-1.50
46.13,3.07,4.58,3.08,4.58,-4.58,-4.50,-3.85,-1.50,-1.50,-1.51
46.60,3.08,4.59,3.08,4.59,-4.59,-4.51,-3.86,-1.51,-1.51,-1.50
47.06,3.09,4.60,3.09,4.60,-4.60,-4.51,-3.88,-1.51,-1.51,-1.51
47.53,3.10,4.62,3.10,4.62,-4.62,-4.52,-3.90,-1.51,-1.52,-1.51
48.01,3.10,4.61,3.10,4.63,-4.63,-4.52,-3.93,-1.52,-1.52,-1.51
48.49,3.10,4.62,3.10,4.63,-4.63,-4.52,-3.95,-1.53,-1.53,-1.52
48.97,3.10,4.63,3.11,4.63,-4.63,-4.53,-3.98,-1.53,-1.53,-1.52
49.46,3.10,4.64,3.10,4.63,-4.63,-4.53,-4.01,-1.53,-1.53,-1.54
49.96,3.09,4.64,3.10,4.63,-4.63,-4.53,-4.04,-1.54,-1.53,-1.55
50.46,3.09,4.63,3.10,4.62,-4.62,-4.53,-4.08,-1.53,-1.53,-1.54
50.96,3.08,4.61,3.09,4.61,-4.61,-4.53,-4.11,-1.53,-1.53,-1.52
51.47,3.08,4.62,3.07,4.60,-4.60,-4.53,-4.15,-1.52,-1.53,-1.53
51.99,3.07,4.60,3.06,4.59,-4.59,-4.53,-4.19,-1.51,-1.53,-1.53
52.51,3.05,4.57,3.04,4.57,-4.57,-4.52,-4.23,-1.51,-1.53,-1.52
53.03,3.03,4.55,3.02,4.55,-4.55,-4.52,-4.27,-1.52,-1.53,-1.52
53.56,3.00,4.52,3.00,4.53,-4.53,-4.52,-4.31,-1.53,-1.53,-1.52
54.10,2.98,4.50,2.98,4.51,-4.51,-4.51,-4.35,-1.52,-1.53,-1.52
54.64,2.95,4.48,2.96,4.48,-4.48,-4.51,-4.38,-1.53,-1.53,-1.53
55.18,2.92,4.45,2.93,4.46,-4.46,-4.50,-4.42,-1.54,-1.53,-1.53
55.74,2.89,4.43,2.91,4.44,-4.44,-4.50,-4.46,-1.54,-1.53,-1.54
56.29,2.87,4.41,2.88,4.42,-4.42,-4.49,-4.50,-1.54,-1.54,-1.54
56.86,2.84,4.40,2.85,4.40,-4.40,-4.48,-4.53,-1.55,-1.55,-1.55
57.42,2.81,4.38,2.82,4.38,-4.38,-4.47,-4.56,-1.57,-1.56,-1.56
58.00,2.79,4.36,2.80,4.36,-4.36,-4.46,-4.59,-1.57,-1.57,-1.57
58.58,2.77,4.35,2.77,4.35,-4.35,-4.46,-4.62,-1.58,-1.58,-1.58
59.16,2.74,4.33,2.75,4.34,-4.34,-4.45,-4.64,-1.60,-1.60,-1.58
59.76,2.72,4.32,2.72,4.33,-4.33,-4.44,-4.66,-1.61,-1.61,-1.60
60.35,2.69,4.31,2.70,4.32,-4.32,-4.43,-4.68,-1.63,-1.63,-1.62
60.96,2.66,4.29,2.67,4.31,-4.31,-4.41,-4.69,-1.65,-1.64,-1.62
61.57,2.64,4.30,2.64,4.30,-4.30,-4.40,-4.69,-1.66,-1.66,-1.66
62.18,2.61,4.30,2.61,4.29,-4.29,-4.39,-4.70,-1.67,-1.67,-1.68
62.80,2.59,4.28,2.58,4.27,-4.27,-4.38,-4.70,-1.67,-1.69,-1.69
63.43,2.56,4.28,2.55,4.25,-4.25,-4.36,-4.69,-1.69,-1.70,-1.72
64.07,2.53,4.26,2.52,4.23,-4.23,-4.35,-4.68,-1.70,-1.71,-1.72
64.71,2.49,4.23,2.48,4.21,-4.21,-4.34,-4.67,-1.71,-1.72,-1.73
65.35,2.45,4.19,2.45,4.18,-4.18,-4.32,-4.65,-1.73,-1.73,-1.74
66.01,2.41,4.15,2.42,4.15,-4.15,-4.31,-4.63,-1.74,-1.73,-1.74
66.67,2.38,4.12,2.39,4.12,-4.12,-4.29,-4.60,-1.74,-1.74,-1.74
67.33,2.34,4.08,2.36,4.09,-4.09,-4.28,-4.57,-1.75,-1.74,-1.74
68.01,2.31,4.05,2.33,4.06,-4.06,-4.26,-4.54,-1.75,-1.74,-1.74
68.69,2.28,4.02,2.30,4.03,-4.03,-4.25,-4.51,-1.75,-1.73,-1.74
69.37,2.26,3.99,2.27,4.00,-4.00,-4.23,-4.47,-1.74,-1.73,-1.73
70.07,2.24,3.97,2.25,3.97,-3.97,-4.22,-4.43,-1.73,-1.73,-1.73
70.77,2.22,3.94,2.23,3.95,-3.95,-4.20,-4.39,-1.73,-1.73,-1.71
71.48,2.21,3.93,2.21,3.93,-3.93,-4.18,-4.35,-1.72,-1.72,-1.72
72.19,2.20,3.92,2.19,3.92,-3.92,-4.17,-4.31,-1.71,-1.72,-1.72
72.91,2.18,3.90,2.18,3.90,-3.90,-4.15,-4.27,-1.72,-1.72,-1.71
73.64,2.17,3.89,2.18,3.90,-3.90,-4.13,-4.23,-1.72,-1.72,-1.72
74.38,2.16,3.88,2.17,3.89,-3.89,-4.12,-4.18,-1.73,-1.72,-1.71
75.12,2.15,3.87,2.17,3.89,-3.89,-4.10,-4.14,-1.73,-1.72,-1.72
75.87,2.15,3.87,2.16,3.88,-3.88,-4.08,-4.10,-1.73,-1.72,-1.72
76.63,2.15,3.87,2.16,3.88,-3.88,-4.07,-4.06,-1.73,-1.72,-1.71
77.40,2.16,3.89,2.16,3.88,-3.88,-4.05,-4.02,-1.72,-1.72,-1.72
78.17,2.17,3.90,2.16,3.88,-3.88,-4.03,-3.99,-1.70,-1.72,-1.73
78.95,2.17,3.88,2.16,3.88,-3.88,-4.02,-3.95,-1.70,-1.71,-1.71
79.74,2.17,3.88,2.17,3.87,-3.87,-4.00,-3.92,-1.70,-1.71,-1.71
80.54,2.17,3.88,2.17,3.87,-3.87,-3.98,-3.89,-1.69,-1.70,-1.71
81.35,2.17,3.87,2.17,3.86,-3.86,-3.97,-3.86,-1.69,-1.69,-1.70
82.16,2.17,3.86,2.17,3.85,-3.85,-3.95,-3.83,-1.68,-1.68,-1.69
82.98,2.17,3.85,2.17,3.84,-3.84,-3.93,-3.81,-1.67,-1.67,-1.67
83.81,2.17,3.84,2.17,3.83,-3.83,-3.92,-3.79,-1.66,-1.66,-1.66
84.65,2.17,3.83,2.17,3.82,-3.82,-3.90,-3.77,-1.65,-1.65,-1.66
85.50,2.17,3.80,2.17,3.81,-3.81,-3.89,-3.75,-1.63,-1.63,-1.63
86.35,2.17,3.79,2.17,3.79,-3.79,-3.87,-3.74,-1.62,-1.62,-1.61
87.22,2.17,3.78,2.18,3.78,-3.78,-3.86,-3.73,-1.61,-1.61,-1.61
88.09,2.17,3.77,2.18,3.78,-3.78,-3.84,-3.72,-1.60,-1.60,-1.59
88.97,2.17,3.75,2.18,3.77,-3.77,-3.83,-3.72,-1.60,-1.59,-1.58
89.86,2.17,3.75,2.19,3.77,-3.77,-3.81,-3.71,-1.60,-1.58,-1.58
90.76,2.17,3.76,2.19,3.77,-3.77,-3.80,-3.71,-1.60,-1.58,-1.58
91.66,2.18,3.76,2.19,3.78,-3.78,-3.79,-3.72,-1.59,-1.59,-1.58
92.58,2.19,3.79,2.19,3.78,-3.78,-3.77,-3.72,-1.59,-1.59,-1.59
93.51,2.19,3.79,2.19,3.79,-3.79,-3.76,-3.73,-1.60,-1.60,-1.59
94.44,2.19,3.80,2.19,3.81,-3.81,-3.75,-3.75,-1.61,-1.62,-1.61
95.39,2.20,3.83,2.18,3.82,-3.82,-3.74,-3.76,-1.62,-1.64,-1.63
96.34,2.19,3.85,2.17,3.84,-3.84,-3.73,-3.78,-1.64,-1.67,-1.66
97.30,2.17,3.87,2.16,3.85,-3.85,-3.72,-3.80,-1.68,-1.69,-1.69
98.28,2.15,3.88,2.15,3.87,-3.87,-3.71,-3.82,-1.72,-1.73,-1.72
99.26,2.13,3.90,2.13,3.89,-3.89,-3.70,-3.84,-1.76,-1.76,-1.76
100.25,2.10,3.90,2.11,3.91,-3.91,-3.69,-3.87,-1.81,-1.80,-1.80
101.25,2.07,3.91,2.09,3.92,-3.92,-3.69,-3.89,-1.85,-1.84,-1.84
102.27,2.04,3.92,2.06,3.94,-3.94,-3.68,-3.92,-1.90,-1.88,-1.88
103.29,2.02,3.95,2.03,3.95,-3.95,-3.67,-3.95,-1.93,-1.92,-1.93
104.32,2.00,3.96,2.00,3.96,-3.96,-3.67,-3.98,-1.96,-1.96,-1.96
105.37,1.97,3.98,1.97,3.98,-3.98,-3.66,-4.01,-2.00,-2.00,-2.01
106.42,1.95,4.00,1.94,3.98,-3.98,-3.66,-4.05,-2.03,-2.04,-2.05
107.48,1.92,4.01,1.91,3.99,-3.99,-3.66,-4.08,-2.07,-2.08,-2.09
108.56,1.88,4.01,1.88,4.00,-4.00,-3.66,-4.11,-2.12,-2.12,-2.13
109.64,1.84,4.01,1.85,4.01,-4.01,-3.65,-4.14,-2.16,-2.16,-2.16
110.74,1.81,4.01,1.81,4.01,-4.01,-3.65,-4.17,-2.20,-2.20,-2.19
111.85,1.77,4.00,1.78,4.01,-4.01,-3.65,-4.20,-2.24,-2.23,-2.22
112.97,1.74,4.02,1.75,4.01,-4.01,-3.66,-4.23,-2.27,-2.26,-2.27
114.10,1.71,4.00,1.72,4.01,-4.01,-3.66,-4.26,-2.30,-2.29,-2.29
115.24,1.68,4.01,1.68,4.00,-4.00,-3.66,-4.28,-2.32,-2.32,-2.33
116.39,1.66,4.02,1.65,4.00,-4.00,-3.67,-4.31,-2.33,-2.35,-2.36
117.55,1.63,4.01,1.62,3.99,-3.99,-3.67,-4.33,-2.36,-2.37,-2.37
118.73,1.60,4.01,1.60,3.99,-3.99,-3.68,-4.34,-2.38,-2.39,-2.40
119.92,1.56,3.97,1.58,3.98,-3.98,-3.68,-4.36,-2.42,-2.41,-2.41
121.12,1.54,3.97,1.56,3.98,-3.98,-3.69,-4.37,-2.44,-2.42,-2.43
122.33,1.53,3.98,1.54,3.98,-3.98,-3.70,-4.37,-2.45,-2.44,-2.44
123.55,1.51,3.96,1.53,3.99,-3.99,-3.71,-4.38,-2.47,-2.45,-2.45
124.79,1.50,3.97,1.53,3.99,-3.99,-3.72,-4.38,-2.49,-2.47,-2.46
126.03,1.50,3.97,1.52,4.00,-4.00,-3.74,-4.37,-2.49,-2.48,-2.47
127.29,1.51,4.00,1.52,4.01,-4.01,-3.75,-4.36,-2.50,-2.49,-2.48
128.57,1.52,4.03,1.52,4.03,-4.03,-3.76,-4.35,-2.50,-2.50,-2.51
129.85,1.53,4.04,1.53,4.04,-4.04,-3.78,-4.33,-2.51,-2.51,-2.51
131.15,1.53,4.06,1.53,4.06,-4.06,-3.79,-4.31,-2.52,-2.53,-2.52
132.46,1.53,4.08,1.54,4.08,-4.08,-3.81,-4.29,-2.54,-2.54,-2.55
133.79,1.54,4.09,1.54,4.09,-4.09,-3.83,-4.27,-2.55,-2.55,-2.55
135.12,1.55,4.12,1.54,4.11,-4.11,-3.85,-4.24,-2.55,-2.57,-2.57
136.48,1.55,4.13,1.53,4.12,-4.12,-3.87,-4.20,-2.56,-2.59,-2.58
137.84,1.54,4.14,1.52,4.13,-4.13,-3.89,-4.17,-2.58,-2.60,-2.60
139.22,1.53,4.16,1.51,4.14,-4.14,-3.91,-4.14,-2.60,-2.62,-2.63
140.61,1.51,4.16,1.50,4.14,-4.14,-3.93,-4.10,-2.63,-2.64,-2.65
142.02,1.47,4.13,1.48,4.14,-4.14,-3.95,-4.06,-2.67,-2.66,-2.66
143.44,1.45,4.13,1.46,4.14,-4.14,-3.97,-4.02,-2.68,-2.68,-2.68
144.87,1.41,4.12,1.43,4.13,-4.13,-4.00,-3.98,-2.72,-2.70,-2.70
146.32,1.39,4.12,1.40,4.13,-4.13,-4.02,-3.94,-2.73,-2.73,-2.73
147.78,1.36,4.11,1.37,4.12,-4.12,-4.04,-3.90,-2.76,-2.75,-2.75
149.26,1.34,4.12,1.34,4.11,-4.11,-4.06,-3.86,-2.77,-2.78,-2.77
150.75,1.31,4.12,1.30,4.11,-4.11,-4.09,-3.82,-2.79,-2.80,-2.81
152.26,1.27,4.10,1.27,4.10,-4.10,-4.11,-3.78,-2.83,-2.83,-2.83
153.78,1.23,4.09,1.24,4.10,-4.10,-4.13,-3.75,-2.87,-2.86,-2.85
155.32,1.19,4.08,1.21,4.10,-4.10,-4.15,-3.71,-2.90,-2.89,-2.89
156.88,1.14,4.05,1.17,4.09,-4.09,-4.18,-3.68,-2.95,-2.92,-2.91
158.44,1.12,4.08,1.14,4.09,-4.09,-4.20,-3.65,-2.96,-2.95,-2.95
160.03,1.09,4.08,1.10,4.08,-4.08,-4.21,-3.61,-2.99,-2.98,-2.98
161.63,1.07,4.10,1.06,4.07,-4.07,-4.23,-3.59,-3.00,-3.02,-3.02
163.24,1.04,4.10,1.01,4.06,-4.06,-4.25,-3.56,-3.02,-3.05,-3.05
164.88,0.99,4.08,0.97,4.05,-4.05,-4.27,-3.54,-3.06,-3.08,-3.08
166.53,0.95,4.07,0.93,4.05,-4.05,-4.28,-3.51,-3.09,-3.11,-3.11
168.19,0.90,4.05,0.89,4.04,-4.04,-4.29,-3.49,-3.13,-3.14,-3.14
169.87,0.84,4.01,0.85,4.02,-4.02,-4.30,-3.48,-3.18,-3.17,-3.17
171.57,0.78,3.98,0.81,4.01,-4.01,-4.31,-3.46,-3.23,-3.20,-3.20
173.29,0.74,3.97,0.77,4.00,-4.00,-4.32,-3.45,-3.26,-3.23,-3.23
175.02,0.70,3.96,0.73,3.98,-3.98,-4.32,-3.44,-3.28,-3.25,-3.25
176.77,0.67,3.95,0.69,3.96,-3.96,-4.32,-3.44,-3.29,-3.27,-3.28
178.54,0.65,3.96,0.65,3.94,-3.94,-4.32,-3.43,-3.29,-3.29,-3.30
180.32,0.63,3.95,0.61,3.92,-3.92,-4.32,-3.43,-3.29,-3.31,-3.32
182.13,0.60,3.94,0.58,3.90,-3.90,-4.31,-3.43,-3.30,-3.33,-3.33
183.95,0.54,3.89,0.54,3.89,-3.89,-4.30,-3.44,-3.34,-3.34,-3.35
185.79,0.50,3.87,0.51,3.87,-3.87,-4.29,-3.44,-3.36,-3.36,-3.36
187.65,0.47,3.85,0.47,3.85,-3.85,-4.27,-3.45,-3.37,-3.37,-3.37
189.52,0.44,3.82,0.44,3.82,-3.82,-4.26,-3.46,-3.38,-3.38,-3.38
191.42,0.41,3.80,0.41,3.80,-3.80,-4.24,-3.48,-3.39,-3.39,-3.39
193.33,0.38,3.78,0.38,3.77,-3.77,-4.22,-3.49,-3.39,-3.40,-3.39
195.27,0.35,3.75,0.35,3.75,-3.75,-4.19,-3.51,-3.40,-3.40,-3.39
197.22,0.32,3.73,0.32,3.73,-3.73,-4.16,-3.53,-3.41,-3.41,-3.41
199.19,0.29,3.72,0.30,3.71,-3.71,-4.13,-3.55,-3.42,-3.42,-3.43
201.18,0.27,3.70,0.28,3.70,-3.70,-4.10,-3.57,-3.43,-3.42,-3.43
203.19,0.24,3.67,0.27,3.70,-3.70,-4.07,-3.60,-3.45,-3.43,-3.43
205.23,0.22,3.66,0.26,3.69,-3.69,-4.03,-3.62,-3.47,-3.44,-3.44
207.28,0.21,3.65,0.25,3.69,-3.69,-3.99,-3.65,-3.48,-3.44,-3.44
209.35,0.21,3.66,0.24,3.69,-3.69,-3.95,-3.67,-3.48,-3.45,-3.45
211.44,0.22,3.69,0.24,3.69,-3.69,-3.91,-3.70,-3.47,-3.46,-3.46
213.56,0.23,3.70,0.23,3.69,-3.69,-3.87,-3.72,-3.46,-3.46,-3.46
215.69,0.25,3.72,0.23,3.70,-3.70,-3.83,-3.75,-3.44,-3.47,-3.46
217.85,0.25,3.73,0.22,3.70,-3.70,-3.79,-3.78,-3.44,-3.48,-3.48
220.03,0.24,3.73,0.21,3.70,-3.70,-3.75,-3.80,-3.45,-3.49,-3.49
222.23,0.23,3.74,0.20,3.70,-3.70,-3.70,-3.82,-3.46,-3.49,-3.50
224.45,0.21,3.72,0.19,3.69,-3.69,-3.66,-3.84,-3.48,-3.50,-3.50
226.70,0.17,3.68,0.17,3.69,-3.69,-3.61,-3.86,-3.51,-3.51,-3.51
228.96,0.14,3.66,0.15,3.68,-3.68,-3.57,-3.87,-3.54,-3.53,-3.52
231.25,0.12,3.65,0.13,3.67,-3.67,-3.53,-3.89,-3.54,-3.54,-3.52
233.57,0.09,3.63,0.10,3.65,-3.65,-3.49,-3.89,-3.56,-3.55,-3.54
235.90,0.05,3.61,0.07,3.63,-3.63,-3.45,-3.90,-3.58,-3.56,-3.55
238.26,0.03,3.60,0.04,3.61,-3.61,-3.41,-3.90,-3.58,-3.57,-3.57
240.64,0.01,3.60,0.01,3.59,-3.59,-3.37,-3.89,-3.58,-3.58,-3.59
243.05,-0.02,3.57,-0.02,3.57,-3.57,-3.33,-3.88,-3.58,-3.59,-3.59
245.48,-0.06,3.54,-0.05,3.54,-3.54,-3.30,-3.87,-3.60,-3.59,-3.60
247.93,-0.10,3.50,-0.08,3.52,-3.52,-3.26,-3.85,-3.61,-3.60,-3.60
250.41,-0.12,3.50,-0.11,3.49,-3.49,-3.23,-3.83,-3.60,-3.60,-3.62
252.92,-0.16,3.44,-0.15,3.45,-3.45,-3.20,-3.80,-3.61,-3.60,-3.60
255.45,-0.18,3.42,-0.19,3.41,-3.41,-3.17,-3.76,-3.58,-3.59,-3.59
258.00,-0.21,3.38,-0.23,3.36,-3.36,-3.14,-3.72,-3.57,-3.59,-3.59
260.58,-0.24,3.35,-0.27,3.31,-3.31,-3.12,-3.68,-3.54,-3.58,-3.58
263.19,-0.29,3.28,-0.31,3.25,-3.25,-3.09,-3.63,-3.54,-3.57,-3.57
265.82,-0.35,3.21,-0.35,3.20,-3.20,-3.07,-3.58,-3.54,-3.55,-3.56
268.48,-0.39,3.15,-0.40,3.14,-3.14,-3.04,-3.52,-3.53,-3.54,-3.53
271.16,-0.44,3.08,-0.44,3.08,-3.08,-3.02,-3.45,-3.52,-3.52,-3.52
273.87,-0.52,2.98,-0.48,3.02,-3.02,-3.00,-3.39,-3.54,-3.51,-3.50
276.61,-0.56,2.92,-0.52,2.96,-2.96,-2.97,-3.32,-3.52,-3.49,-3.47
279.38,-0.60,2.87,-0.57,2.90,-2.90,-2.94,-3.24,-3.50,-3.47,-3.47
282.17,-0.63,2.82,-0.61,2.85,-2.85,-2.91,-3.17,-3.47,-3.45,-3.45
284.99,-0.65,2.79,-0.65,2.79,-2.79,-2.88,-3.09,-3.44,-3.43,-3.43
287.84,-0.68,2.74,-0.68,2.74,-2.74,-2.85,-3.01,-3.41,-3.41,-3.42
290.72,-0.70,2.69,-0.71,2.68,-2.68,-2.81,-2.93,-3.38,-3.39,-3.39
293.63,-0.74,2.65,-0.74,2.64,-2.64,-2.76,-2.84,-3.37,-3.37,-3.38
296.57,-0.77,2.59,-0.77,2.59,-2.59,-2.72,-2.75,-3.35,-3.35,-3.35
299.53,-0.80,2.54,-0.80,2.54,-2.54,-2.66,-2.67,-3.33,-3.33,-3.34
302.53,-0.84,2.49,-0.82,2.49,-2.49,-2.61,-2.58,-3.32,-3.31,-3.33
305.55,-0.86,2.43,-0.85,2.44,-2.44,-2.54,-2.49,-3.30,-3.29,-3.29
308.61,-0.88,2.40,-0.88,2.39,-2.39,-2.48,-2.40,-3.26,-3.27,-3.27
311.69,-0.90,2.35,-0.91,2.33,-2.33,-2.41,-2.31,-3.23,-3.24,-3.24
314.81,-0.93,2.28,-0.95,2.27,-2.27,-2.33,-2.22,-3.20,-3.22,-3.21
317.96,-0.97,2.22,-0.98,2.22,-2.22,-2.25,-2.14,-3.18,-3.20,-3.19
321.14,-1.02,2.15,-1.02,2.16,-2.16,-2.18,-2.05,-3.17,-3.17,-3.17
324.35,-1.07,2.09,-1.05,2.10,-2.10,-2.09,-1.96,-3.16,-3.15,-3.15
327.59,-1.11,2.02,-1.09,2.03,-2.03,-2.01,-1.87,-3.14,-3.13,-3.12
330.87,-1.14,1.97,-1.13,1.97,-1.97,-1.93,-1.78,-3.11,-3.10,-3.11
334.18,-1.18,1.90,-1.17,1.90,-1.90,-1.85,-1.70,-3.08,-3.08,-3.08
337.52,-1.22,1.84,-1.22,1.83,-1.83,-1.77,-1.61,-3.05,-3.05,-3.06
340.90,-1.27,1.76,-1.26,1.76,-1.76,-1.69,-1.53,-3.03,-3.03,-3.03
344.30,-1.31,1.69,-1.31,1.69,-1.69,-1.61,-1.44,-3.00,-3.00,-3.00
347.75,-1.35,1.64,-1.36,1.62,-1.62,-1.53,-1.36,-2.97,-2.98,-2.98
351.23,-1.40,1.56,-1.40,1.55,-1.55,-1.45,-1.28,-2.95,-2.95,-2.95
354.74,-1.44,1.49,-1.45,1.48,-1.48,-1.37,-1.20,-2.91,-2.93,-2.93
358.28,-1.51,1.40,-1.50,1.40,-1.40,-1.30,-1.11,-2.91,-2.90,-2.91
361.87,-1.56,1.32,-1.55,1.33,-1.33,-1.23,-1.03,-2.88,-2.88,-2.88
365.49,-1.62,1.23,-1.60,1.25,-1.25,-1.16,-0.95,-2.87,-2.85,-2.85
369.14,-1.67,1.17,-1.66,1.17,-1.17,-1.09,-0.88,-2.84,-2.83,-2.84
372.83,-1.71,1.10,-1.71,1.10,-1.10,-1.02,-0.80,-2.81,-2.81,-2.81
376.56,-1.76,1.04,-1.76,1.02,-1.02,-0.95,-0.72,-2.78,-2.78,-2.79
380.33,-1.81,0.95,-1.81,0.95,-0.95,-0.89,-0.65,-2.76,-2.76,-2.75
384.13,-1.87,0.88,-1.87,0.88,-0.88,-0.83,-0.57,-2.74,-2.74,-2.74
387.97,-1.93,0.80,-1.92,0.80,-0.80,-0.77,-0.50,-2.73,-2.73,-2.72
391.85,-1.99,0.73,-1.97,0.74,-0.74,-0.71,-0.43,-2.72,-2.71,-2.71
395.77,-2.04,0.65,-2.03,0.67,-0.67,-0.65,-0.35,-2.71,-2.70,-2.69
399.73,-2.07,0.61,-2.08,0.61,-0.61,-0.59,-0.28,-2.67,-2.69,-2.68
403.72,-2.12,0.56,-2.13,0.54,-0.54,-0.53,-0.21,-2.66,-2.68,-2.68
407.76,-2.18,0.49,-2.19,0.48,-0.48,-0.48,-0.15,-2.66,-2.67,-2.67
411.84,-2.25,0.41,-2.24,0.42,-0.42,-0.43,-0.08,-2.67,-2.66,-2.66
415.96,-2.31,0.35,-2.29,0.37,-0.37,-0.37,-0.02,-2.68,-2.66,-2.66
420.12,-2.36,0.30,-2.35,0.32,-0.32,-0.32,0.05,-2.67,-2.66,-2.66
424.32,-2.40,0.26,-2.40,0.26,-0.26,-0.27,0.11,-2.66,-2.66,-2.66
428.56,-2.45,0.21,-2.45,0.21,-0.21,-0.22,0.16,-2.66,-2.66,-2.66
432.85,-2.50,0.18,-2.51,0.16,-0.16,-0.18,0.22,-2.66,-2.67,-2.67
437.18,-2.56,0.12,-2.56,0.11,-0.11,-0.13,0.27,-2.66,-2.67,-2.67
441.55,-2.61,0.07,-2.61,0.06,-0.06,-0.08,0.33,-2.67,-2.67,-2.67
445.96,-2.66,0.03,-2.67,0.01,-0.01,-0.04,0.37,-2.67,-2.68,-2.68
450.42,-2.71,-0.02,-2.72,-0.04,0.04,0.00,0.42,-2.67,-2.68,-2.68
454.93,-2.76,-0.07,-2.76,-0.08,0.08,0.04,0.46,-2.67,-2.68,-2.68
