frequency,raw,error,smoothed,error_smoothed,equalization,parametric_eq,equalized_raw,equalized_smoothed,target
20.00,5.27,1.99,5.28,1.99,-1.99,-2.04,3.28,3.28,3.28
20.20,5.35,2.07,5.35,2.07,-2.07,-2.10,3.28,3.28,3.28
20.40,5.42,2.14,5.42,2.14,-2.14,-2.16,3.28,3.28,3.28
20.61,5.50,2.22,5.50,2.22,-2.22,-2.22,3.28,3.28,3.28
20.81,5.58,2.30,5.57,2.29,-2.29,-2.28,3.29,3.28,3.28
21.02,5.65,2.37,5.65,2.37,-2.37,-2.35,3.28,3.28,3.28
21.23,5.73,2.45,5.72,2.45,-2.45,-2.42,3.28,3.28,3.28
21.44,5.80,2.52,5.80,2.52,-2.52,-2.49,3.28,3.27,3.28
21.66,5.87,2.59,5.88,2.60,-2.60,-2.56,3.27,3.27,3.28
21.87,5.95,2.68,5.95,2.68,-2.68,-2.64,3.27,3.27,3.28
22.09,6.03,2.76,6.03,2.76,-2.76,-2.71,3.27,3.27,3.27
22.31,6.10,2.83,6.11,2.84,-2.84,-2.79,3.26,3.27,3.27
22.54,6.18,2.91,6.19,2.92,-2.92,-2.87,3.25,3.27,3.27
22.76,6.27,3.00,6.27,3.01,-3.01,-2.95,3.26,3.27,3.27
22.99,6.35,3.08,6.36,3.09,-3.09,-3.04,3.26,3.27,3.27
23.22,6.44,3.17,6.44,3.17,-3.17,-3.13,3.26,3.27,3.27
23.45,6.53,3.26,6.52,3.26,-3.26,-3.21,3.27,3.26,3.27
23.69,6.61,3.34,6.61,3.34,-3.34,-3.30,3.27,3.26,3.27
23.92,6.70,3.44,6.69,3.43,-3.43,-3.40,3.27,3.26,3.26
24.16,6.78,3.52,6.77,3.51,-3.51,-3.49,3.27,3.26,3.26
24.40,6.86,3.60,6.85,3.59,-3.59,-3.59,3.27,3.26,3.26
24.65,6.94,3.68,6.94,3.68,-3.68,-3.68,3.26,3.26,3.26
24.89,7.02,3.76,7.02,3.76,-3.76,-3.78,3.26,3.26,3.26
25.14,7.09,3.83,7.10,3.84,-3.84,-3.88,3.25,3.26,3.26
25.39,7.17,3.91,7.18,3.92,-3.92,-3.98,3.25,3.25,3.26
25.65,7.25,3.99,7.25,4.00,-4.00,-4.08,3.25,3.25,3.25
25.91,7.33,4.07,7.33,4.08,-4.08,-4.19,3.25,3.25,3.25
26.16,7.40,4.15,7.40,4.15,-4.15,-4.29,3.25,3.25,3.25
26.43,7.48,4.23,7.48,4.23,-4.23,-4.39,3.25,3.25,3.25
26.69,7.55,4.30,7.55,4.30,-4.30,-4.49,3.24,3.25,3.25
26.96,7.63,4.38,7.62,4.38,-4.38,-4.59,3.25,3.24,3.25
27.23,7.70,4.45,7.69,4.45,-4.45,-4.69,3.25,3.24,3.24
27.50,7.76,4.52,7.76,4.52,-4.52,-4.78,3.24,3.24,3.24
27.77,7.83,4.59,7.83,4.59,-4.59,-4.88,3.24,3.24,3.24
28.05,7.90,4.66,7.89,4.66,-4.66,-4.97,3.24,3.24,3.24
28.33,7.96,4.72,7.96,4.72,-4.72,-5.05,3.24,3.24,3.24
28.62,8.02,4.78,8.02,4.79,-4.79,-5.13,3.23,3.23,3.23
28.90,8.08,4.85,8.08,4.85,-4.85,-5.21,3.23,3.23,3.23
29.19,8.13,4.90,8.14,4.91,-4.91,-5.29,3.22,3.23,3.23
29.48,8.19,4.96,8.19,4.96,-4.96,-5.35,3.23,3.23,3.23
29.78,8.24,5.01,8.24,5.02,-5.02,-5.41,3.22,3.22,3.22
30.08,8.29,5.07,8.29,5.07,-5.07,-5.47,3.22,3.22,3.22
30.38,8.33,5.11,8.33,5.11,-5.11,-5.52,3.21,3.22,3.22
30.68,8.38,5.16,8.38,5.16,-5.16,-5.56,3.22,3.22,3.22
30.99,8.43,5.21,8.41,5.20,-5.20,-5.59,3.23,3.21,3.21
31.30,8.46,5.25,8.45,5.24,-5.24,-5.62,3.22,3.21,3.21
31.61,8.49,5.28,8.48,5.28,-5.28,-5.64,3.21,3.21,3.21
31.93,8.51,5.30,8.51,5.31,-5.31,-5.65,3.20,3.20,3.21
32.24,8.53,5.33,8.54,5.34,-5.34,-5.66,3.19,3.20,3.20
32.57,8.56,5.36,8.56,5.36,-5.36,-5.66,3.20,3.20,3.20
32.89,8.58,5.38,8.58,5.39,-5.39,-5.65,3.19,3.20,3.20
33.22,8.60,5.41,8.60,5.41,-5.41,-5.63,3.19,3.19,3.19
33.55,8.61,5.42,8.61,5.42,-5.42,-5.62,3.19,3.19,3.19
33.89,8.62,5.43,8.62,5.43,-5.43,-5.59,3.18,3.19,3.19
34.23,8.63,5.45,8.63,5.44,-5.44,-5.56,3.18,3.18,3.18
34.57,8.64,5.46,8.63,5.45,-5.45,-5.53,3.19,3.18,3.18
34.92,8.64,5.46,8.63,5.45,-5.45,-5.49,3.18,3.17,3.18
35.27,8.63,5.46,8.63,5.45,-5.45,-5.45,3.17,3.17,3.17
35.62,8.62,5.45,8.62,5.45,-5.45,-5.41,3.17,3.17,3.17
35.97,8.61,5.44,8.61,5.45,-5.45,-5.37,3.16,3.16,3.16
36.33,8.60,5.44,8.60,5.44,-5.44,-5.33,3.16,3.16,3.16
36.70,8.57,5.41,8.58,5.43,-5.43,-5.28,3.14,3.15,3.16
37.06,8.56,5.41,8.56,5.41,-5.41,-5.24,3.15,3.15,3.15
37.43,8.54,5.39,8.54,5.40,-5.40,-5.19,3.14,3.15,3.15
37.81,8.52,5.38,8.52,5.38,-5.38,-5.15,3.14,3.14,3.14
38.19,8.50,5.36,8.49,5.36,-5.36,-5.10,3.14,3.14,3.14
38.57,8.46,5.33,8.46,5.33,-5.33,-5.06,3.13,3.13,3.13
38.95,8.44,5.31,8.43,5.31,-5.31,-5.02,3.13,3.13,3.13
39.34,8.41,5.29,8.40,5.28,-5.28,-4.98,3.13,3.12,3.12
39.74,8.37,5.25,8.37,5.25,-5.25,-4.95,3.12,3.12,3.12
40.14,8.33,5.22,8.33,5.22,-5.22,-4.92,3.11,3.11,3.11
40.54,8.29,5.18,8.29,5.19,-5.19,-4.89,3.10,3.11,3.11
40.94,8.26,5.16,8.25,5.15,-5.15,-4.86,3.11,3.10,3.10
41.35,8.21,5.12,8.21,5.12,-5.12,-4.83,3.09,3.09,3.09
41.76,8.18,5.09,8.17,5.09,-5.09,-4.81,3.09,3.09,3.09
42.18,8.13,5.05,8.13,5.05,-5.05,-4.80,3.08,3.08,3.08
42.60,8.09,5.01,8.09,5.02,-5.02,-4.78,3.07,3.07,3.07
43.03,8.05,4.98,8.05,4.99,-4.99,-4.77,3.06,3.07,3.07
43.46,8.01,4.95,8.02,4.96,-4.96,-4.77,3.05,3.06,3.06
43.90,7.98,4.93,7.98,4.93,-4.93,-4.76,3.05,3.05,3.05
44.33,7.95,4.90,7.95,4.91,-4.91,-4.77,3.04,3.04,3.05
44.78,7.91,4.87,7.92,4.88,-4.88,-4.77,3.03,3.04,3.04
45.23,7.89,4.86,7.89,4.86,-4.86,-4.78,3.03,3.03,3.03
45.68,7.86,4.84,7.87,4.85,-4.85,-4.79,3.01,3.02,3.02
46.13,7.85,4.84,7.85,4.84,-4.84,-4.81,3.01,3.01,3.01
46.60,7.83,4.82,7.83,4.83,-4.83,-4.83,3.00,3.00,3.01
47.06,7.81,4.81,7.81,4.82,-4.82,-4.85,2.99,2.99,3.00
47.53,7.80,4.81,7.80,4.82,-4.82,-4.87,2.98,2.99,2.99
48.01,7.79,4.81,7.79,4.82,-4.82,-4.90,2.97,2.98,2.98
48.49,7.79,4.82,7.79,4.82,-4.82,-4.94,2.97,2.97,2.97
48.97,7.78,4.82,7.78,4.83,-4.83,-4.97,2.95,2.96,2.96
49.46,7.78,4.83,7.78,4.84,-4.84,-5.01,2.94,2.95,2.95
49.96,7.78,4.84,7.79,4.85,-4.85,-5.05,2.93,2.94,2.94
50.46,7.80,4.87,7.79,4.86,-4.86,-5.09,2.94,2.93,2.93
50.96,7.80,4.88,7.79,4.88,-4.88,-5.14,2.92,2.92,2.92
51.47,7.81,4.90,7.80,4.90,-4.90,-5.19,2.91,2.90,2.91
51.99,7.81,4.92,7.81,4.92,-4.92,-5.23,2.89,2.89,2.89
52.51,7.82,4.94,7.82,4.94,-4.94,-5.28,2.88,2.88,2.88
53.03,7.83,4.96,7.83,4.96,-4.96,-5.33,2.87,2.87,2.87
53.56,7.84,4.98,7.84,4.98,-4.98,-5.38,2.85,2.86,2.86
54.10,7.86,5.01,7.85,5.01,-5.01,-5.43,2.85,2.84,2.84
54.64,7.86,5.03,7.87,5.04,-5.04,-5.48,2.82,2.83,2.83
55.18,7.88,5.06,7.88,5.06,-5.06,-5.53,2.82,2.82,2.82
55.74,7.89,5.09,7.89,5.09,-5.09,-5.58,2.80,2.80,2.80
56.29,7.90,5.11,7.91,5.12,-5.12,-5.62,2.78,2.79,2.79
56.86,7.92,5.14,7.92,5.15,-5.15,-5.67,2.77,2.77,2.78
57.42,7.94,5.18,7.93,5.17,-5.17,-5.70,2.77,2.76,2.76
58.00,7.95,5.20,7.95,5.20,-5.20,-5.74,2.75,2.74,2.75
58.58,7.96,5.23,7.96,5.23,-5.23,-5.77,2.73,2.73,2.73
59.16,7.98,5.27,7.97,5.26,-5.26,-5.80,2.72,2.71,2.71
59.76,7.98,5.28,7.98,5.28,-5.28,-5.82,2.70,2.70,2.70
60.35,7.99,5.31,7.99,5.31,-5.31,-5.84,2.68,2.68,2.68
60.96,7.99,5.33,8.00,5.33,-5.33,-5.85,2.66,2.66,2.66
61.57,8.00,5.35,8.00,5.36,-5.36,-5.85,2.64,2.65,2.65
62.18,8.01,5.38,8.00,5.38,-5.38,-5.85,2.63,2.63,2.63
62.80,8.01,5.40,8.01,5.40,-5.40,-5.85,2.61,2.61,2.61
63.43,8.01,5.42,8.00,5.41,-5.41,-5.84,2.59,2.59,2.59
64.07,8.00,5.43,8.00,5.43,-5.43,-5.82,2.57,2.57,2.57
64.71,8.00,5.45,8.00,5.44,-5.44,-5.79,2.55,2.55,2.55
65.35,7.99,5.46,7.99,5.46,-5.46,-5.77,2.53,2.53,2.53
66.01,7.97,5.46,7.98,5.47,-5.47,-5.73,2.50,2.51,2.51
66.67,7.97,5.48,7.96,5.47,-5.47,-5.69,2.49,2.49,2.49
67.33,7.95,5.48,7.95,5.48,-5.48,-5.65,2.47,2.47,2.47
68.01,7.93,5.48,7.93,5.48,-5.48,-5.60,2.44,2.45,2.45
68.69,7.91,5.49,7.91,5.49,-5.49,-5.55,2.42,2.42,2.42
69.37,7.89,5.49,7.89,5.49,-5.49,-5.49,2.40,2.40,2.40
70.07,7.86,5.48,7.86,5.49,-5.49,-5.43,2.37,2.38,2.38
70.77,7.84,5.49,7.84,5.48,-5.48,-5.37,2.36,2.35,2.35
71.48,7.81,5.48,7.81,5.48,-5.48,-5.31,2.33,2.33,2.33
72.19,7.77,5.46,7.78,5.47,-5.47,-5.25,2.30,2.31,2.31
72.91,7.75,5.47,7.74,5.46,-5.46,-5.19,2.29,2.28,2.28
73.64,7.71,5.45,7.71,5.45,-5.45,-5.12,2.25,2.25,2.26
74.38,7.67,5.44,7.67,5.44,-5.44,-5.06,2.23,2.23,2.23
75.12,7.64,5.44,7.63,5.43,-5.43,-4.99,2.21,2.20,2.20
75.87,7.60,5.42,7.60,5.42,-5.42,-4.93,2.18,2.18,2.18
76.63,7.55,5.40,7.56,5.41,-5.41,-4.87,2.14,2.15,2.15
77.40,7.51,5.39,7.51,5.39,-5.39,-4.81,2.12,2.12,2.12
78.17,7.47,5.37,7.47,5.38,-5.38,-4.75,2.09,2.09,2.09
78.95,7.43,5.36,7.43,5.36,-5.36,-4.69,2.07,2.07,2.07
79.74,7.38,5.34,7.38,5.34,-5.34,-4.64,2.04,2.04,2.04
80.54,7.33,5.32,7.33,5.33,-5.33,-4.59,2.00,2.01,2.01
81.35,7.29,5.31,7.29,5.31,-5.31,-4.54,1.98,1.98,1.98
82.16,7.24,5.29,7.24,5.29,-5.29,-4.49,1.95,1.95,1.95
82.98,7.19,5.27,7.19,5.27,-5.27,-4.45,1.92,1.92,1.92
83.81,7.14,5.25,7.13,5.25,-5.25,-4.41,1.89,1.89,1.89
84.65,7.07,5.21,7.08,5.22,-5.22,-4.37,1.85,1.86,1.86
85.50,7.03,5.20,7.03,5.20,-5.20,-4.34,1.83,1.83,1.83
86.35,6.97,5.17,6.97,5.17,-5.17,-4.31,1.80,1.80,1.80
87.22,6.91,5.14,6.91,5.15,-5.15,-4.28,1.76,1.77,1.77
88.09,6.85,5.11,6.85,5.12,-5.12,-4.26,1.73,1.73,1.74
88.97,6.79,5.09,6.79,5.09,-5.09,-4.23,1.70,1.70,1.70
89.86,6.73,5.06,6.73,5.05,-5.05,-4.22,1.67,1.67,1.67
90.76,6.66,5.02,6.66,5.02,-5.02,-4.20,1.64,1.64,1.64
91.66,6.59,4.98,6.59,4.98,-4.98,-4.19,1.61,1.61,1.61
92.58,6.52,4.94,6.52,4.94,-4.94,-4.18,1.58,1.57,1.57
93.51,6.44,4.90,6.44,4.90,-4.90,-4.18,1.54,1.54,1.54
94.44,6.37,4.86,6.36,4.85,-4.85,-4.17,1.51,1.51,1.51
95.39,6.29,4.81,6.28,4.81,-4.81,-4.17,1.48,1.48,1.48
96.34,6.20,4.76,6.20,4.75,-4.75,-4.18,1.45,1.44,1.44
97.30,6.11,4.70,6.11,4.70,-4.70,-4.18,1.41,1.41,1.41
98.28,6.02,4.64,6.01,4.64,-4.64,-4.19,1.38,1.38,1.38
99.26,5.92,4.58,5.92,4.57,-4.57,-4.20,1.35,1.34,1.34
100.25,5.82,4.51,5.82,4.50,-4.50,-4.22,1.31,1.31,1.31
101.25,5.72,4.44,5.71,4.43,-4.43,-4.23,1.29,1.28,1.28
102.27,5.61,4.37,5.60,4.36,-4.36,-4.25,1.25,1.25,1.24
103.29,5.50,4.29,5.49,4.28,-4.28,-4.26,1.22,1.21,1.21
104.32,5.39,4.21,5.38,4.20,-4.20,-4.28,1.19,1.18,1.18
105.37,5.27,4.12,5.27,4.12,-4.12,-4.30,1.15,1.15,1.15
106.42,5.15,4.04,5.15,4.04,-4.04,-4.32,1.11,1.11,1.11
107.48,5.03,3.95,5.03,3.95,-3.95,-4.34,1.08,1.08,1.08
108.56,4.92,3.87,4.92,3.87,-3.87,-4.36,1.05,1.05,1.05
109.64,4.80,3.78,4.80,3.79,-3.79,-4.38,1.01,1.01,1.01
110.74,4.69,3.71,4.69,3.70,-3.70,-4.39,0.98,0.98,0.98
111.85,4.58,3.63,4.57,3.63,-3.63,-4.41,0.95,0.95,0.95
112.97,4.46,3.54,4.46,3.55,-3.55,-4.42,0.91,0.92,0.92
114.10,4.35,3.46,4.36,3.48,-3.48,-4.43,0.87,0.88,0.89
115.24,4.26,3.40,4.26,3.41,-3.41,-4.44,0.85,0.85,0.86
116.39,4.16,3.34,4.16,3.34,-3.34,-4.44,0.82,0.82,0.82
117.55,4.07,3.28,4.07,3.28,-3.28,-4.44,0.79,0.79,0.79
118.73,3.98,3.22,3.99,3.23,-3.23,-4.44,0.75,0.76,0.76
119.92,3.90,3.17,3.91,3.18,-3.18,-4.43,0.72,0.73,0.73
121.12,3.83,3.13,3.84,3.14,-3.14,-4.41,0.69,0.70,0.70
122.33,3.76,3.09,3.77,3.11,-3.11,-4.40,0.65,0.67,0.67
123.55,3.71,3.07,3.71,3.08,-3.08,-4.37,0.63,0.64,0.64
124.79,3.66,3.05,3.66,3.05,-3.05,-4.34,0.60,0.61,0.61
126.03,3.61,3.02,3.62,3.04,-3.04,-4.31,0.57,0.58,0.59
127.29,3.58,3.02,3.58,3.03,-3.03,-4.27,0.55,0.55,0.56
128.57,3.55,3.02,3.55,3.02,-3.02,-4.22,0.53,0.53,0.53
129.85,3.53,3.03,3.52,3.02,-3.02,-4.17,0.51,0.50,0.50
131.15,3.50,3.02,3.50,3.03,-3.03,-4.12,0.47,0.47,0.47
132.46,3.49,3.04,3.48,3.04,-3.04,-4.06,0.45,0.45,0.45
133.79,3.47,3.05,3.47,3.05,-3.05,-3.99,0.42,0.42,0.42
135.12,3.46,3.06,3.46,3.07,-3.07,-3.92,0.39,0.39,0.40
136.48,3.45,3.08,3.46,3.09,-3.09,-3.85,0.36,0.37,0.37
137.84,3.45,3.10,3.45,3.11,-3.11,-3.77,0.34,0.34,0.35
139.22,3.45,3.13,3.45,3.13,-3.13,-3.69,0.32,0.32,0.32
140.61,3.45,3.15,3.45,3.15,-3.15,-3.60,0.30,0.30,0.30
142.02,3.45,3.18,3.45,3.18,-3.18,-3.52,0.27,0.27,0.27
143.44,3.45,3.20,3.45,3.20,-3.20,-3.43,0.25,0.25,0.25
144.87,3.45,3.22,3.45,3.22,-3.22,-3.34,0.23,0.23,0.23
146.32,3.45,3.25,3.45,3.24,-3.24,-3.24,0.21,0.20,0.20
147.78,3.45,3.27,3.44,3.26,-3.26,-3.15,0.19,0.18,0.18
149.26,3.45,3.29,3.44,3.28,-3.28,-3.05,0.17,0.16,0.16
150.75,3.43,3.29,3.43,3.29,-3.29,-2.96,0.14,0.14,0.14
152.26,3.42,3.30,3.42,3.30,-3.30,-2.86,0.12,0.12,0.12
153.78,3.41,3.31,3.41,3.31,-3.31,-2.77,0.10,0.10,0.10
155.32,3.39,3.31,3.39,3.31,-3.31,-2.67,0.08,0.08,0.08
156.88,3.37,3.31,3.37,3.31,-3.31,-2.57,0.06,0.06,0.06
158.44,3.34,3.30,3.34,3.30,-3.30,-2.48,0.04,0.04,0.04
160.03,3.31,3.29,3.31,3.29,-3.29,-2.38,0.02,0.02,0.02
161.63,3.27,3.27,3.27,3.27,-3.27,-2.29,0.00,0.00,0.00
163.24,3.23,3.24,3.23,3.24,-3.24,-2.19,-0.01,-0.02,-0.02
164.88,3.18,3.21,3.18,3.21,-3.21,-2.10,-0.03,-0.03,-0.03
166.53,3.13,3.18,3.13,3.18,-3.18,-2.01,-0.05,-0.05,-0.05
168.19,3.07,3.14,3.07,3.13,-3.13,-1.92,-0.06,-0.07,-0.07
169.87,3.01,3.09,3.00,3.08,-3.08,-1.83,-0.08,-0.08,-0.08
171.57,2.94,3.04,2.93,3.03,-3.03,-1.74,-0.09,-0.10,-0.10
173.29,2.86,2.97,2.85,2.97,-2.97,-1.65,-0.11,-0.11,-0.11
175.02,2.78,2.91,2.77,2.90,-2.90,-1.56,-0.12,-0.13,-0.13
176.77,2.69,2.83,2.68,2.83,-2.83,-1.48,-0.14,-0.14,-0.14
178.54,2.60,2.76,2.59,2.75,-2.75,-1.39,-0.15,-0.16,-0.16
180.32,2.50,2.67,2.49,2.67,-2.67,-1.31,-0.17,-0.17,-0.17
182.13,2.40,2.59,2.39,2.58,-2.58,-1.23,-0.18,-0.19,-0.19
183.95,2.28,2.48,2.29,2.49,-2.49,-1.15,-0.21,-0.20,-0.20
185.79,2.18,2.39,2.18,2.40,-2.40,-1.07,-0.22,-0.22,-0.21
187.65,2.07,2.29,2.07,2.30,-2.30,-0.99,-0.24,-0.23,-0.23
189.52,1.95,2.19,1.96,2.21,-2.21,-0.91,-0.26,-0.24,-0.24
191.42,1.85,2.10,1.86,2.11,-2.11,-0.83,-0.26,-0.26,-0.25
193.33,1.74,2.00,1.75,2.02,-2.02,-0.75,-0.28,-0.27,-0.26
195.27,1.63,1.90,1.64,1.92,-1.92,-0.68,-0.29,-0.28,-0.27
197.22,1.52,1.80,1.53,1.82,-1.82,-0.61,-0.30,-0.29,-0.28
199.19,1.42,1.71,1.42,1.72,-1.72,-0.53,-0.30,-0.30,-0.29
201.18,1.32,1.62,1.32,1.63,-1.63,-0.46,-0.31,-0.31,-0.31
203.19,1.20,1.51,1.21,1.53,-1.53,-0.39,-0.33,-0.32,-0.32
205.23,1.10,1.42,1.10,1.43,-1.43,-0.32,-0.33,-0.33,-0.33
207.28,1.00,1.33,0.99,1.33,-1.33,-0.25,-0.33,-0.34,-0.34
209.35,0.89,1.23,0.88,1.23,-1.23,-0.18,-0.34,-0.34,-0.34
211.44,0.78,1.13,0.77,1.12,-1.12,-0.12,-0.34,-0.35,-0.35
213.56,0.67,1.03,0.66,1.02,-1.02,-0.05,-0.35,-0.36,-0.36
215.69,0.55,0.92,0.54,0.91,-0.91,0.01,-0.36,-0.37,-0.37
217.85,0.43,0.81,0.42,0.80,-0.80,0.07,-0.37,-0.38,-0.38
220.03,0.31,0.70,0.31,0.69,-0.69,0.13,-0.38,-0.39,-0.39
222.23,0.19,0.58,0.19,0.58,-0.58,0.19,-0.39,-0.40,-0.40
224.45,0.07,0.47,0.06,0.47,-0.47,0.25,-0.40,-0.41,-0.40
226.70,-0.06,0.35,-0.06,0.36,-0.36,0.31,-0.42,-0.41,-0.41
228.96,-0.18,0.24,-0.18,0.24,-0.24,0.36,-0.42,-0.42,-0.42
231.25,-0.31,0.11,-0.30,0.13,-0.13,0.41,-0.44,-0.43,-0.43
233.57,-0.42,0.01,-0.42,0.02,-0.02,0.46,-0.44,-0.44,-0.43
235.90,-0.54,-0.10,-0.54,-0.10,0.10,0.51,-0.45,-0.44,-0.44
238.26,-0.66,-0.22,-0.66,-0.21,0.21,0.56,-0.45,-0.45,-0.45
240.64,-0.78,-0.33,-0.77,-0.32,0.32,0.60,-0.46,-0.45,-0.45
243.05,-0.88,-0.42,-0.89,-0.42,0.42,0.64,-0.46,-0.46,-0.46
245.48,-1.00,-0.54,-1.00,-0.53,0.53,0.69,-0.47,-0.47,-0.46
247.93,-1.11,-0.64,-1.11,-0.64,0.64,0.72,-0.47,-0.47,-0.47
250.41,-1.21,-0.74,-1.22,-0.74,0.74,0.76,-0.47,-0.48,-0.48
252.92,-1.32,-0.84,-1.33,-0.84,0.84,0.79,-0.48,-0.48,-0.48
255.45,-1.44,-0.95,-1.43,-0.95,0.95,0.83,-0.49,-0.49,-0.49
258.00,-1.54,-1.05,-1.54,-1.05,1.05,0.86,-0.49,-0.49,-0.49
260.58,-1.64,-1.14,-1.65,-1.15,1.15,0.88,-0.49,-0.50,-0.50
263.19,-1.75,-1.25,-1.75,-1.25,1.25,0.91,-0.50,-0.50,-0.50
265.82,-1.85,-1.34,-1.86,-1.35,1.35,0.94,-0.50,-0.51,-0.51
268.48,-1.95,-1.44,-1.96,-1.45,1.45,0.96,-0.50,-0.51,-0.51
271.16,-2.05,-1.54,-2.06,-1.55,1.55,0.98,-0.50,-0.52,-0.52
273.87,-2.16,-1.64,-2.17,-1.65,1.65,1.00,-0.51,-0.52,-0.52
276.61,-2.26,-1.74,-2.27,-1.74,1.74,1.02,-0.52,-0.52,-0.52
279.38,-2.36,-1.83,-2.37,-1.84,1.84,1.04,-0.52,-0.53,-0.53
282.17,-2.46,-1.93,-2.46,-1.93,1.93,1.06,-0.53,-0.53,-0.53
284.99,-2.56,-2.02,-2.55,-2.02,2.02,1.07,-0.54,-0.54,-0.54
287.84,-2.65,-2.11,-2.64,-2.10,2.10,1.09,-0.55,-0.54,-0.54
290.72,-2.73,-2.19,-2.73,-2.18,2.18,1.11,-0.55,-0.55,-0.54
293.63,-2.81,-2.26,-2.81,-2.26,2.26,1.12,-0.55,-0.55,-0.55
296.57,-2.88,-2.33,-2.88,-2.33,2.33,1.14,-0.55,-0.55,-0.55
299.53,-2.95,-2.40,-2.95,-2.39,2.39,1.15,-0.56,-0.56,-0.55
302.53,-3.02,-2.46,-3.01,-2.45,2.45,1.17,-0.57,-0.56,-0.56
305.55,-3.08,-2.52,-3.07,-2.50,2.50,1.19,-0.58,-0.57,-0.56
308.61,-3.12,-2.56,-3.12,-2.55,2.55,1.20,-0.57,-0.57,-0.56
311.69,-3.16,-2.59,-3.16,-2.59,2.59,1.22,-0.57,-0.57,-0.57
314.81,-3.20,-2.63,-3.19,-2.62,2.62,1.24,-0.58,-0.57,-0.57
317.96,-3.23,-2.66,-3.22,-2.64,2.64,1.26,-0.59,-0.58,-0.57
321.14,-3.24,-2.67,-3.24,-2.66,2.66,1.28,-0.58,-0.58,-0.58
324.35,-3.26,-2.68,-3.26,-2.67,2.67,1.30,-0.59,-0.58,-0.58
327.59,-3.27,-2.69,-3.26,-2.68,2.68,1.32,-0.59,-0.58,-0.58
330.87,-3.27,-2.69,-3.27,-2.68,2.68,1.34,-0.59,-0.59,-0.58
334.18,-3.27,-2.69,-3.27,-2.68,2.68,1.36,-0.59,-0.59,-0.59
337.52,-3.25,-2.66,-3.26,-2.67,2.67,1.39,-0.58,-0.59,-0.59
340.90,-3.25,-2.66,-3.25,-2.66,2.66,1.41,-0.59,-0.59,-0.59
344.30,-3.23,-2.64,-3.24,-2.64,2.64,1.44,-0.59,-0.59,-0.59
347.75,-3.22,-2.63,-3.22,-2.63,2.63,1.47,-0.59,-0.60,-0.59
351.23,-3.20,-2.60,-3.20,-2.61,2.61,1.50,-0.60,-0.60,-0.60
354.74,-3.19,-2.59,-3.18,-2.58,2.58,1.53,-0.61,-0.60,-0.60
358.28,-3.16,-2.56,-3.16,-2.56,2.56,1.56,-0.60,-0.60,-0.60
361.87,-3.14,-2.54,-3.14,-2.53,2.53,1.59,-0.61,-0.61,-0.60
365.49,-3.12,-2.52,-3.11,-2.50,2.50,1.63,-0.62,-0.61,-0.60
369.14,-3.09,-2.48,-3.09,-2.48,2.48,1.66,-0.61,-0.61,-0.61
372.83,-3.07,-2.46,-3.06,-2.45,2.45,1.70,-0.62,-0.61,-0.61
376.56,-3.03,-2.42,-3.04,-2.43,2.43,1.74,-0.60,-0.61,-0.61
380.33,-3.02,-2.41,-3.02,-2.40,2.40,1.77,-0.62,-0.61,-0.61
384.13,-2.99,-2.38,-3.00,-2.38,2.38,1.81,-0.61,-0.61,-0.61
387.97,-2.98,-2.37,-2.98,-2.37,2.37,1.85,-0.62,-0.61,-0.62
391.85,-2.96,-2.34,-2.97,-2.35,2.35,1.90,-0.61,-0.62,-0.62
395.77,-2.95,-2.33,-2.96,-2.34,2.34,1.94,-0.61,-0.62,-0.62
399.73,-2.94,-2.32,-2.96,-2.34,2.34,1.98,-0.60,-0.62,-0.62
403.72,-2.94,-2.32,-2.96,-2.34,2.34,2.03,-0.60,-0.62,-0.62
407.76,-2.96,-2.34,-2.97,-2.35,2.35,2.07,-0.61,-0.62,-0.62
411.84,-2.97,-2.35,-2.98,-2.36,2.36,2.12,-0.61,-0.62,-0.63
415.96,-2.98,-2.35,-3.00,-2.38,2.38,2.16,-0.60,-0.63,-0.63
420.12,-3.01,-2.38,-3.03,-2.40,2.40,2.20,-0.61,-0.63,-0.63
424.32,-3.04,-2.41,-3.05,-2.42,2.42,2.25,-0.62,-0.63,-0.63
428.56,-3.07,-2.44,-3.08,-2.45,2.45,2.29,-0.63,-0.63,-0.63
432.85,-3.11,-2.48,-3.11,-2.47,2.47,2.34,-0.64,-0.64,-0.63
437.18,-3.14,-2.51,-3.14,-2.50,2.50,2.38,-0.64,-0.64,-0.63
441.55,-3.17,-2.54,-3.16,-2.52,2.52,2.42,-0.65,-0.64,-0.63
445.96,-3.21,-2.58,-3.18,-2.54,2.54,2.46,-0.67,-0.64,-0.63
450.42,-3.21,-2.58,-3.20,-2.56,2.56,2.49,-0.65,-0.64,-0.63
454.93,-3.22,-2.60,-3.21,-2.57,2.57,2.53,-0.65,-0.63,-0.62
459.48,-3.21,-2.59,-3.21,-2.58,2.58,2.56,-0.63,-0.63,-0.62
464.07,-3.21,-2.60,-3.20,-2.58,2.58,2.59,-0.63,-0.62,-0.61
468.71,-3.20,-2.60,-3.19,-2.57,2.57,2.62,-0.63,-0.61,-0.60
473.40,-3.18,-2.59,-3.17,-2.56,2.56,2.65,-0.62,-0.61,-0.59
478.13,-3.14,-2.56,-3.14,-2.54,2.54,2.67,-0.60,-0.59,-0.58
482.91,-3.11,-2.54,-3.10,-2.52,2.52,2.69,-0.59,-0.58,-0.57
487.74,-3.06,-2.50,-3.05,-2.48,2.48,2.70,-0.58,-0.57,-0.56
492.62,-3.01,-2.46,-3.00,-2.45,2.45,2.71,-0.56,-0.55,-0.55
497.55,-2.94,-2.41,-2.94,-2.40,2.40,2.72,-0.54,-0.54,-0.53
502.52,-2.89,-2.37,-2.88,-2.36,2.36,2.73,-0.53,-0.52,-0.52
507.55,-2.82,-2.32,-2.82,-2.31,2.31,2.73,-0.51,-0.51,-0.50
512.62,-2.75,-2.27,-2.75,-2.26,2.26,2.72,-0.49,-0.49,-0.48
517.75,-2.67,-2.20,-2.68,-2.21,2.21,2.72,-0.46,-0.47,-0.47
522.93,-2.61,-2.16,-2.61,-2.16,2.16,2.71,-0.45,-0.45,-0.45
528.16,-2.53,-2.10,-2.54,-2.11,2.11,2.69,-0.42,-0.43,-0.43
533.44,-2.46,-2.05,-2.48,-2.07,2.07,2.68,-0.39,-0.41,-0.41
538.77,-2.40,-2.01,-2.41,-2.02,2.02,2.66,-0.38,-0.39,-0.39
544.16,-2.34,-1.97,-2.35,-1.99,1.99,2.63,-0.35,-0.37,-0.37
549.60,-2.28,-1.93,-2.29,-1.95,1.95,2.61,-0.33,-0.34,-0.35
555.10,-2.23,-1.91,-2.24,-1.92,1.92,2.58,-0.31,-0.32,-0.32
560.65,-2.18,-1.88,-2.19,-1.90,1.90,2.55,-0.28,-0.29,-0.30
566.25,-2.14,-1.87,-2.14,-1.88,1.88,2.52,-0.26,-0.27,-0.27
571.92,-2.09,-1.85,-2.10,-1.86,1.86,2.49,-0.23,-0.24,-0.24
577.64,-2.06,-1.85,-2.06,-1.85,1.85,2.46,-0.21,-0.21,-0.21
583.41,-2.02,-1.84,-2.02,-1.84,1.84,2.42,-0.18,-0.18,-0.18
589.25,-1.98,-1.83,-1.99,-1.83,1.83,2.39,-0.15,-0.16,-0.15
595.14,-1.95,-1.83,-1.95,-1.82,1.82,2.35,-0.13,-0.13,-0.12
601.09,-1.92,-1.83,-1.92,-1.81,1.81,2.32,-0.11,-0.10,-0.09
607.10,-1.88,-1.82,-1.88,-1.80,1.80,2.28,-0.08,-0.07,-0.06
613.17,-1.84,-1.81,-1.84,-1.79,1.79,2.25,-0.05,-0.04,-0.03
619.30,-1.80,-1.80,-1.79,-1.78,1.78,2.21,-0.02,-0.01,-0.00
625.50,-1.75,-1.78,-1.74,-1.76,1.76,2.18,0.01,0.02,0.03
631.75,-1.71,-1.78,-1.69,-1.74,1.74,2.15,0.03,0.05,0.06
638.07,-1.66,-1.76,-1.63,-1.71,1.71,2.11,0.05,0.08,0.10
644.45,-1.59,-1.72,-1.57,-1.69,1.69,2.08,0.10,0.12,0.13
650.89,-1.53,-1.69,-1.51,-1.66,1.66,2.05,0.13,0.15,0.16
657.40,-1.46,-1.66,-1.44,-1.63,1.63,2.02,0.17,0.19,0.19
663.98,-1.38,-1.61,-1.38,-1.60,1.60,1.99,0.22,0.23,0.23
670.62,-1.31,-1.57,-1.31,-1.58,1.58,1.96,0.27,0.27,0.26
677.32,-1.23,-1.53,-1.25,-1.56,1.56,1.94,0.33,0.30,0.30
684.10,-1.17,-1.51,-1.20,-1.54,1.54,1.91,0.37,0.34,0.34
690.94,-1.12,-1.49,-1.15,-1.52,1.52,1.89,0.40,0.38,0.37
697.85,-1.06,-1.47,-1.10,-1.51,1.51,1.87,0.45,0.42,0.41
704.83,-1.02,-1.47,-1.05,-1.51,1.51,1.85,0.49,0.46,0.45
