frequency,raw,error,smoothed,error_smoothed,equalization,parametric_eq,equalized_raw,equalized_smoothed,target
20,5.51,3.77,5.47,3.72,-3.72,-3.60,1.79,1.74,1.74
21,5.88,4.14,5.88,4.14,-4.14,-3.85,1.74,1.74,1.74
22,6.21,4.47,6.27,4.53,-4.53,-4.09,1.68,1.74,1.74
23,6.60,4.86,6.63,4.89,-4.89,-4.32,1.71,1.74,1.74
24,6.94,5.20,6.97,5.24,-5.24,-4.55,1.70,1.74,1.74
25,7.29,5.56,7.29,5.56,-5.56,-4.78,1.73,1.73,1.73
26,7.60,5.87,7.59,5.86,-5.86,-4.99,1.74,1.73,1.73
27,7.85,6.12,7.86,6.13,-6.13,-5.20,1.72,1.73,1.73
28,8.11,6.39,8.10,6.38,-6.38,-5.41,1.73,1.72,1.72
29,8.32,6.60,8.31,6.59,-6.59,-5.61,1.73,1.72,1.72
30,8.49,6.78,8.49,6.77,-6.77,-5.80,1.72,1.71,1.71
31,8.64,6.93,8.63,6.92,-6.92,-5.98,1.72,1.71,1.71
32,8.74,7.04,8.73,7.03,-7.03,-6.15,1.71,1.70,1.70
33,8.84,7.14,8.81,7.11,-7.11,-6.31,1.73,1.70,1.70
34,8.84,7.15,8.84,7.15,-7.15,-6.47,1.69,1.69,1.69
35,8.88,7.20,8.85,7.17,-7.17,-6.61,1.71,1.68,1.68
36,8.81,7.14,8.83,7.16,-7.16,-6.75,1.65,1.67,1.67
37,8.80,7.14,8.79,7.12,-7.12,-6.88,1.68,1.66,1.66
38,8.69,7.04,8.72,7.07,-7.07,-7.00,1.62,1.65,1.65
39,8.68,7.04,8.65,7.00,-7.00,-7.11,1.68,1.64,1.64
40,8.56,6.93,8.56,6.93,-6.93,-7.20,1.63,1.63,1.63
41,8.47,6.85,8.47,6.85,-6.85,-7.30,1.62,1.62,1.62
42,8.37,6.76,8.38,6.77,-6.77,-7.38,1.60,1.61,1.61
43,8.25,6.65,8.29,6.69,-6.69,-7.45,1.56,1.60,1.60
44,8.20,6.62,8.21,6.63,-6.63,-7.51,1.57,1.58,1.58
45,8.14,6.57,8.14,6.57,-6.57,-7.57,1.57,1.57,1.57
46,8.08,6.53,8.08,6.53,-6.53,-7.61,1.55,1.55,1.55
47,8.03,6.49,8.04,6.50,-6.50,-7.65,1.53,1.54,1.54
48,8.00,6.48,8.01,6.49,-6.49,-7.68,1.51,1.52,1.52
49,7.96,6.46,7.99,6.49,-6.49,-7.71,1.47,1.50,1.50
50,8.01,6.53,7.99,6.51,-6.51,-7.72,1.50,1.48,1.48
51,7.98,6.52,8.00,6.53,-6.53,-7.73,1.45,1.46,1.46
52,8.02,6.58,8.01,6.57,-6.57,-7.73,1.45,1.44,1.44
53,8.02,6.60,8.03,6.61,-6.61,-7.73,1.41,1.42,1.42
54,8.07,6.67,8.05,6.66,-6.66,-7.72,1.41,1.40,1.40
55,8.10,6.72,8.08,6.70,-6.70,-7.71,1.40,1.38,1.38
56,8.10,6.75,8.10,6.75,-6.75,-7.69,1.35,1.35,1.35
57,8.13,6.80,8.13,6.80,-6.80,-7.67,1.33,1.33,1.33
58,8.17,6.87,8.15,6.85,-6.85,-7.64,1.32,1.30,1.30
59,8.17,6.90,8.17,6.90,-6.90,-7.61,1.27,1.27,1.27
60,8.17,6.93,8.19,6.95,-6.95,-7.57,1.22,1.24,1.24
61,8.21,6.99,8.21,7.00,-7.00,-7.54,1.21,1.22,1.22
62,8.24,7.05,8.23,7.04,-7.04,-7.49,1.20,1.19,1.19
63,8.23,7.07,8.24,7.09,-7.09,-7.45,1.14,1.16,1.16
64,8.23,7.11,8.25,7.13,-7.13,-7.40,1.10,1.12,1.12
65,8.28,7.19,8.25,7.16,-7.16,-7.36,1.12,1.09,1.09
66,8.27,7.21,8.25,7.19,-7.19,-7.31,1.08,1.06,1.06
67,8.25,7.23,8.24,7.22,-7.22,-7.25,1.03,1.02,1.02
68,8.23,7.24,8.23,7.24,-7.24,-7.20,0.99,0.99,0.99
69,8.20,7.25,8.21,7.25,-7.25,-7.15,0.95,0.95,0.95
70,8.19,7.27,8.18,7.26,-7.26,-7.09,0.93,0.92,0.92
71,8.13,7.25,8.14,7.26,-7.26,-7.04,0.87,0.88,0.88
72,8.10,7.26,8.10,7.26,-7.26,-6.98,0.84,0.84,0.84
73,8.06,7.25,8.06,7.25,-7.25,-6.92,0.81,0.81,0.81
74,8.03,7.26,8.01,7.25,-7.25,-6.86,0.78,0.77,0.77
75,7.97,7.24,7.96,7.23,-7.23,-6.80,0.74,0.73,0.73
76,7.89,7.20,7.91,7.22,-7.22,-6.75,0.67,0.69,0.69
77,7.85,7.20,7.86,7.21,-7.21,-6.69,0.64,0.65,0.65
78,7.82,7.21,7.80,7.19,-7.19,-6.63,0.63,0.61,0.61
79,7.74,7.17,7.74,7.17,-7.17,-6.57,0.57,0.57,0.57
80,7.67,7.14,7.68,7.15,-7.15,-6.51,0.52,0.53,0.53
81,7.63,7.14,7.62,7.13,-7.13,-6.46,0.50,0.49,0.49
82,7.58,7.13,7.56,7.11,-7.11,-6.40,0.47,0.45,0.45
83,7.50,7.09,7.49,7.09,-7.09,-6.34,0.41,0.41,0.41
84,7.42,7.06,7.43,7.07,-7.07,-6.29,0.35,0.36,0.36
85,7.34,7.02,7.37,7.05,-7.05,-6.23,0.29,0.32,0.32
86,7.30,7.02,7.31,7.03,-7.03,-6.18,0.27,0.28,0.28
87,7.25,7.01,7.25,7.01,-7.01,-6.12,0.24,0.24,0.24
88,7.18,6.98,7.19,6.99,-6.99,-6.07,0.19,0.20,0.20
89,7.12,6.96,7.12,6.97,-6.97,-6.02,0.15,0.16,0.16
90,7.09,6.97,7.06,6.94,-6.94,-5.96,0.15,0.12,0.12
91,7.02,6.95,6.98,6.91,-6.91,-5.91,0.11,0.07,0.07
92,6.87,6.84,6.91,6.87,-6.87,-5.86,-0.00,0.03,0.03
93,6.83,6.84,6.83,6.83,-6.83,-5.82,-0.00,-0.01,-0.01
94,6.75,6.80,6.74,6.79,-6.79,-5.77,-0.04,-0.05,-0.05
95,6.63,6.72,6.65,6.74,-6.74,-5.72,-0.11,-0.09,-0.09
96,6.56,6.69,6.55,6.68,-6.68,-5.68,-0.12,-0.13,-0.13
97,6.44,6.61,6.46,6.62,-6.62,-5.63,-0.18,-0.17,-0.17
98,6.35,6.56,6.35,6.56,-6.56,-5.59,-0.21,-0.21,-0.21
99,6.27,6.52,6.25,6.50,-6.50,-5.55,-0.23,-0.25,-0.25
100,6.13,6.42,6.14,6.43,-6.43,-5.51,-0.30,-0.29,-0.29
101,6.05,6.37,6.02,6.36,-6.36,-5.47,-0.31,-0.33,-0.32
102,5.94,6.30,5.91,6.28,-6.28,-5.43,-0.34,-0.38,-0.36
104,5.76,6.20,5.78,6.21,-6.21,-5.36,-0.45,-0.42,-0.44
105,5.65,6.12,5.66,6.13,-6.13,-5.33,-0.48,-0.46,-0.47
106,5.54,6.05,5.54,6.05,-6.05,-5.29,-0.51,-0.50,-0.51
107,5.40,5.94,5.42,5.97,-5.97,-5.26,-0.57,-0.54,-0.54
108,5.33,5.91,5.31,5.89,-5.89,-5.24,-0.56,-0.58,-0.58
109,5.19,5.80,5.20,5.81,-5.81,-5.21,-0.62,-0.61,-0.61
110,5.06,5.71,5.09,5.74,-5.74,-5.18,-0.68,-0.65,-0.65
111,4.99,5.67,4.98,5.67,-5.67,-5.16,-0.68,-0.68,-0.68
112,4.89,5.60,4.88,5.59,-5.59,-5.14,-0.70,-0.72,-0.71
113,4.80,5.55,4.78,5.53,-5.53,-5.12,-0.73,-0.75,-0.75
114,4.69,5.47,4.67,5.46,-5.46,-5.10,-0.77,-0.78,-0.78
115,4.60,5.41,4.57,5.39,-5.39,-5.08,-0.79,-0.82,-0.81
117,4.44,5.31,4.47,5.33,-5.33,-5.06,-0.89,-0.85,-0.87
118,4.37,5.27,4.38,5.27,-5.27,-5.05,-0.90,-0.89,-0.90
119,4.27,5.20,4.29,5.22,-5.22,-5.04,-0.95,-0.93,-0.93
120,4.20,5.16,4.21,5.17,-5.17,-5.03,-0.97,-0.96,-0.96
121,4.16,5.14,4.14,5.13,-5.13,-5.03,-0.97,-0.99,-0.98
123,4.08,5.12,4.07,5.10,-5.10,-5.03,-1.02,-1.03,-1.04
124,4.00,5.06,4.01,5.07,-5.07,-5.03,-1.07,-1.06,-1.06
125,3.94,5.03,3.96,5.05,-5.05,-5.03,-1.11,-1.09,-1.09
126,3.90,5.01,3.92,5.04,-5.04,-5.04,-1.14,-1.12,-1.11
128,3.90,5.06,3.88,5.03,-5.03,-5.06,-1.13,-1.15,-1.16
129,3.87,5.06,3.85,5.03,-5.03,-5.08,-1.16,-1.18,-1.19
130,3.83,5.04,3.82,5.03,-5.03,-5.09,-1.20,-1.21,-1.21
131,3.79,5.02,3.80,5.04,-5.04,-5.11,-1.25,-1.24,-1.23
133,3.75,5.02,3.78,5.05,-5.05,-5.15,-1.30,-1.27,-1.27
134,3.76,5.06,3.77,5.06,-5.06,-5.18,-1.30,-1.30,-1.30
135,3.76,5.08,3.76,5.08,-5.08,-5.20,-1.32,-1.32,-1.32
137,3.77,5.13,3.75,5.10,-5.10,-5.26,-1.33,-1.35,-1.36
138,3.75,5.13,3.75,5.13,-5.13,-5.29,-1.38,-1.38,-1.38
140,3.77,5.18,3.75,5.15,-5.15,-5.35,-1.38,-1.40,-1.41
141,3.73,5.16,3.75,5.18,-5.18,-5.38,-1.45,-1.43,-1.43
142,3.71,5.16,3.75,5.20,-5.20,-5.41,-1.49,-1.45,-1.45
144,3.76,5.24,3.75,5.23,-5.23,-5.47,-1.47,-1.48,-1.48
145,3.75,5.25,3.75,5.25,-5.25,-5.50,-1.50,-1.50,-1.50
147,3.76,5.29,3.74,5.27,-5.27,-5.54,-1.51,-1.53,-1.53
148,3.75,5.29,3.74,5.29,-5.29,-5.56,-1.54,-1.55,-1.55
150,3.73,5.30,3.73,5.30,-5.30,-5.59,-1.57,-1.57,-1.57
151,3.71,5.30,3.72,5.31,-5.31,-5.60,-1.60,-1.59,-1.59
153,3.70,5.32,3.71,5.32,-5.32,-5.60,-1.62,-1.61,-1.62
154,3.68,5.31,3.69,5.32,-5.32,-5.59,-1.64,-1.63,-1.63
156,3.69,5.34,3.67,5.32,-5.32,-5.56,-1.63,-1.65,-1.65
157,3.66,5.33,3.65,5.32,-5.32,-5.53,-1.66,-1.67,-1.67
159,3.62,5.31,3.62,5.31,-5.31,-5.47,-1.69,-1.69,-1.69
160,3.58,5.28,3.58,5.29,-5.29,-5.43,-1.71,-1.71,-1.70
162,3.54,5.26,3.54,5.27,-5.27,-5.33,-1.73,-1.72,-1.72
164,3.50,5.25,3.50,5.24,-5.24,-5.21,-1.74,-1.74,-1.75
165,3.47,5.23,3.45,5.21,-5.21,-5.15,-1.74,-1.76,-1.76
167,3.38,5.16,3.40,5.17,-5.17,-5.02,-1.79,-1.77,-1.78
169,3.32,5.11,3.34,5.13,-5.13,-4.87,-1.81,-1.79,-1.79
170,3.29,5.09,3.27,5.08,-5.08,-4.80,-1.79,-1.81,-1.80
172,3.19,5.01,3.20,5.02,-5.02,-4.64,-1.83,-1.82,-1.82
174,3.14,4.98,3.13,4.96,-4.96,-4.49,-1.82,-1.83,-1.84
175,3.06,4.91,3.04,4.89,-4.89,-4.41,-1.83,-1.85,-1.85
177,2.97,4.83,2.95,4.81,-4.81,-4.25,-1.84,-1.86,-1.86
179,2.89,4.77,2.86,4.73,-4.73,-4.10,-1.84,-1.87,-1.88
181,2.71,4.60,2.76,4.64,-4.64,-3.95,-1.93,-1.89,-1.89
183,2.62,4.52,2.65,4.55,-4.55,-3.80,-1.93,-1.90,-1.90
184,2.55,4.46,2.55,4.46,-4.46,-3.73,-1.91,-1.91,-1.91
186,2.47,4.39,2.44,4.36,-4.36,-3.60,-1.89,-1.92,-1.92
188,2.30,4.23,2.33,4.27,-4.27,-3.46,-1.97,-1.93,-1.93
190,2.21,4.16,2.23,4.17,-4.17,-3.34,-1.96,-1.95,-1.95
192,2.12,4.08,2.11,4.07,-4.07,-3.21,-1.95,-1.96,-1.96
194,2.01,3.98,2.00,3.96,-3.96,-3.10,-1.95,-1.97,-1.97
196,1.92,3.90,1.88,3.85,-3.85,-2.99,-1.93,-1.98,-1.98
198,1.77,3.76,1.75,3.74,-3.74,-2.88,-1.97,-1.99,-1.99
200,1.63,3.63,1.62,3.62,-3.62,-2.78,-1.99,-2.00,-2.00
202,1.48,3.49,1.50,3.50,-3.50,-2.68,-2.02,-2.01,-2.01
204,1.35,3.36,1.37,3.39,-3.39,-2.59,-2.04,-2.01,-2.01
206,1.23,3.25,1.25,3.27,-3.27,-2.50,-2.04,-2.02,-2.02
208,1.09,3.12,1.13,3.16,-3.16,-2.41,-2.07,-2.03,-2.03
210,1.02,3.06,1.02,3.06,-3.06,-2.33,-2.04,-2.04,-2.04
212,0.92,2.96,0.91,2.95,-2.95,-2.25,-2.03,-2.04,-2.04
214,0.85,2.90,0.80,2.85,-2.85,-2.17,-2.00,-2.05,-2.05
216,0.72,2.78,0.69,2.75,-2.75,-2.09,-2.03,-2.06,-2.06
218,0.60,2.66,0.58,2.64,-2.64,-2.02,-2.04,-2.06,-2.06
221,0.40,2.47,0.47,2.54,-2.54,-1.92,-2.14,-2.07,-2.07
223,0.32,2.40,0.36,2.43,-2.43,-1.85,-2.11,-2.08,-2.08
225,0.23,2.31,0.24,2.33,-2.33,-1.78,-2.10,-2.08,-2.08
227,0.16,2.25,0.13,2.22,-2.22,-1.72,-2.06,-2.09,-2.09
229,0.05,2.14,0.01,2.10,-2.10,-1.66,-2.05,-2.10,-2.09
232,-0.12,1.98,-0.11,1.99,-1.99,-1.57,-2.11,-2.10,-2.10
234,-0.22,1.89,-0.24,1.87,-1.87,-1.51,-2.09,-2.11,-2.11
236,-0.34,1.77,-0.36,1.75,-1.75,-1.45,-2.09,-2.11,-2.11
239,-0.51,1.61,-0.49,1.63,-1.63,-1.37,-2.14,-2.12,-2.12
241,-0.63,1.49,-0.61,1.51,-1.51,-1.31,-2.14,-2.12,-2.12
244,-0.77,1.36,-0.74,1.39,-1.39,-1.23,-2.16,-2.13,-2.13
246,-0.87,1.26,-0.85,1.28,-1.28,-1.18,-2.15,-2.13,-2.13
248,-0.96,1.17,-0.96,1.17,-1.17,-1.13,-2.13,-2.13,-2.13
251,-1.07,1.07,-1.07,1.07,-1.07,-1.05,-2.14,-2.14,-2.14
253,-1.15,0.99,-1.18,0.96,-0.96,-1.00,-2.11,-2.14,-2.14
256,-1.27,0.88,-1.28,0.86,-0.86,-0.92,-2.13,-2.15,-2.15
259,-1.41,0.74,-1.39,0.76,-0.76,-0.85,-2.17,-2.15,-2.15
261,-1.48,0.67,-1.49,0.66,-0.66,-0.80,-2.14,-2.15,-2.15
264,-1.60,0.56,-1.60,0.56,-0.56,-0.73,-2.16,-2.16,-2.16
266,-1.68,0.48,-1.71,0.45,-0.45,-0.68,-2.13,-2.16,-2.16
269,-1.84,0.32,-1.82,0.35,-0.35,-0.61,-2.19,-2.16,-2.16
272,-1.94,0.23,-1.92,0.24,-0.24,-0.54,-2.18,-2.17,-2.17
274,-2.02,0.15,-2.03,0.14,-0.14,-0.49,-2.16,-2.17,-2.17
277,-2.14,0.03,-2.13,0.04,-0.04,-0.42,-2.18,-2.17,-2.17
280,-2.23,-0.05,-2.23,-0.06,0.06,-0.35,-2.17,-2.18,-2.18
283,-2.31,-0.13,-2.33,-0.15,0.15,-0.29,-2.16,-2.18,-2.18
286,-2.43,-0.25,-2.42,-0.24,0.24,-0.22,-2.19,-2.18,-2.18
288,-2.51,-0.33,-2.51,-0.32,0.32,-0.17,-2.19,-2.18,-2.18
291,-2.59,-0.41,-2.59,-0.40,0.40,-0.11,-2.19,-2.19,-2.18
294,-2.67,-0.48,-2.67,-0.48,0.48,-0.04,-2.19,-2.19,-2.19
297,-2.72,-0.53,-2.75,-0.56,0.56,0.02,-2.16,-2.19,-2.19
300,-2.80,-0.61,-2.82,-0.63,0.63,0.09,-2.17,-2.19,-2.19
303,-2.90,-0.71,-2.88,-0.69,0.69,0.15,-2.21,-2.19,-2.19
306,-2.97,-0.77,-2.94,-0.75,0.75,0.22,-2.22,-2.20,-2.20
309,-3.00,-0.80,-2.99,-0.79,0.79,0.28,-2.21,-2.20,-2.20
312,-3.04,-0.84,-3.03,-0.83,0.83,0.34,-2.21,-2.20,-2.20
316,-3.06,-0.86,-3.06,-0.86,0.86,0.42,-2.20,-2.20,-2.20
319,-3.09,-0.89,-3.09,-0.89,0.89,0.47,-2.20,-2.20,-2.20
322,-3.10,-0.90,-3.11,-0.90,0.90,0.53,-2.20,-2.20,-2.20
325,-3.10,-0.89,-3.12,-0.91,0.91,0.58,-2.19,-2.21,-2.21
328,-3.12,-0.91,-3.12,-0.92,0.92,0.63,-2.20,-2.21,-2.21
332,-3.14,-0.93,-3.13,-0.92,0.92,0.69,-2.22,-2.21,-2.21
335,-3.13,-0.92,-3.12,-0.91,0.91,0.74,-2.22,-2.21,-2.21
338,-3.13,-0.92,-3.11,-0.90,0.90,0.78,-2.23,-2.21,-2.21
342,-3.10,-0.89,-3.10,-0.89,0.89,0.83,-2.21,-2.21,-2.21
345,-3.07,-0.86,-3.09,-0.88,0.88,0.87,-2.19,-2.21,-2.21
349,-3.06,-0.84,-3.07,-0.86,0.86,0.91,-2.20,-2.22,-2.22
352,-3.06,-0.84,-3.05,-0.84,0.84,0.94,-2.22,-2.22,-2.22
356,-3.06,-0.84,-3.03,-0.82,0.82,0.97,-2.24,-2.22,-2.22
359,-3.00,-0.78,-3.01,-0.79,0.79,0.99,-2.21,-2.22,-2.22
363,-2.98,-0.76,-2.99,-0.77,0.77,1.02,-2.21,-2.22,-2.22
366,-2.94,-0.72,-2.96,-0.74,0.74,1.03,-2.20,-2.22,-2.22
370,-2.98,-0.76,-2.94,-0.72,0.72,1.04,-2.26,-2.22,-2.22
374,-2.92,-0.70,-2.91,-0.69,0.69,1.05,-2.23,-2.22,-2.22
377,-2.89,-0.66,-2.89,-0.66,0.66,1.05,-2.23,-2.23,-2.23
381,-2.86,-0.63,-2.86,-0.64,0.64,1.05,-2.22,-2.23,-2.23
385,-2.84,-0.61,-2.84,-0.61,0.61,1.05,-2.23,-2.23,-2.23
389,-2.80,-0.57,-2.82,-0.59,0.59,1.04,-2.21,-2.23,-2.23
393,-2.81,-0.58,-2.81,-0.58,0.58,1.03,-2.23,-2.23,-2.23
397,-2.80,-0.57,-2.80,-0.57,0.57,1.02,-2.23,-2.23,-2.23
401,-2.81,-0.58,-2.80,-0.57,0.57,1.00,-2.24,-2.23,-2.23
405,-2.80,-0.56,-2.81,-0.57,0.57,0.98,-2.23,-2.24,-2.24
409,-2.81,-0.57,-2.82,-0.58,0.58,0.96,-2.23,-2.24,-2.24
413,-2.85,-0.61,-2.84,-0.60,0.60,0.94,-2.25,-2.24,-2.24
417,-2.84,-0.60,-2.86,-0.63,0.63,0.91,-2.21,-2.24,-2.24
421,-2.89,-0.65,-2.89,-0.66,0.66,0.89,-2.23,-2.24,-2.24
425,-2.90,-0.66,-2.93,-0.69,0.69,0.86,-2.21,-2.24,-2.24
430,-3.01,-0.77,-2.96,-0.73,0.73,0.83,-2.28,-2.24,-2.24
434,-3.01,-0.78,-3.00,-0.77,0.77,0.80,-2.24,-2.23,-2.23
438,-3.01,-0.78,-3.04,-0.80,0.80,0.78,-2.21,-2.23,-2.23
443,-3.09,-0.86,-3.07,-0.84,0.84,0.74,-2.25,-2.23,-2.23
447,-3.09,-0.86,-3.10,-0.87,0.87,0.72,-2.22,-2.23,-2.23
451,-3.09,-0.87,-3.12,-0.90,0.90,0.69,-2.19,-2.22,-2.22
456,-3.16,-0.94,-3.14,-0.92,0.92,0.66,-2.24,-2.22,-2.22
460,-3.19,-0.98,-3.15,-0.94,0.94,0.64,-2.25,-2.21,-2.21
465,-3.14,-0.94,-3.14,-0.94,0.94,0.61,-2.20,-2.20,-2.20
470,-3.13,-0.93,-3.13,-0.94,0.94,0.58,-2.19,-2.20,-2.20
474,-3.11,-0.92,-3.11,-0.92,0.92,0.56,-2.19,-2.19,-2.19
479,-3.09,-0.91,-3.08,-0.90,0.90,0.53,-2.19,-2.18,-2.18
484,-3.03,-0.86,-3.04,-0.88,0.88,0.50,-2.15,-2.17,-2.17
489,-3.00,-0.85,-3.00,-0.84,0.84,0.48,-2.16,-2.15,-2.15
494,-2.95,-0.81,-2.95,-0.81,0.81,0.45,-2.14,-2.14,-2.14
499,-2.88,-0.75,-2.89,-0.77,0.77,0.43,-2.11,-2.13,-2.13
504,-2.83,-0.72,-2.83,-0.72,0.72,0.41,-2.11,-2.11,-2.11
509,-2.76,-0.67,-2.77,-0.67,0.67,0.39,-2.09,-2.09,-2.09
514,-2.72,-0.64,-2.70,-0.62,0.62,0.37,-2.10,-2.08,-2.08
519,-2.64,-0.58,-2.63,-0.57,0.57,0.35,-2.07,-2.06,-2.06
524,-2.58,-0.54,-2.56,-0.52,0.52,0.33,-2.06,-2.04,-2.04
529,-2.47,-0.45,-2.49,-0.47,0.47,0.32,-2.00,-2.02,-2.02
535,-2.42,-0.42,-2.42,-0.42,0.42,0.30,-2.00,-2.00,-2.00
540,-2.33,-0.36,-2.36,-0.38,0.38,0.28,-1.95,-1.97,-1.97
545,-2.30,-0.35,-2.30,-0.35,0.35,0.27,-1.95,-1.95,-1.95
551,-2.21,-0.28,-2.25,-0.32,0.32,0.25,-1.89,-1.93,-1.93
556,-2.19,-0.29,-2.20,-0.30,0.30,0.24,-1.89,-1.90,-1.90
562,-2.16,-0.28,-2.16,-0.28,0.28,0.23,-1.88,-1.88,-1.88
568,-2.14,-0.29,-2.12,-0.27,0.27,0.21,-1.87,-1.85,-1.85
573,-2.11,-0.29,-2.08,-0.26,0.26,0.20,-1.85,-1.82,-1.82
579,-2.06,-0.27,-2.05,-0.25,0.25,0.19,-1.81,-1.79,-1.79
585,-2.00,-0.23,-2.01,-0.24,0.24,0.18,-1.76,-1.77,-1.77
591,-1.97,-0.23,-1.97,-0.23,0.23,0.17,-1.74,-1.74,-1.74
596,-1.92,-0.21,-1.93,-0.22,0.22,0.16,-1.70,-1.71,-1.71
602,-1.87,-0.19,-1.89,-0.21,0.21,0.15,-1.66,-1.68,-1.68
608,-1.84,-0.20,-1.85,-0.21,0.21,0.14,-1.63,-1.64,-1.64
615,-1.81,-0.20,-1.81,-0.20,0.20,0.13,-1.61,-1.61,-1.61
621,-1.78,-0.20,-1.78,-0.20,0.20,0.12,-1.58,-1.58,-1.58
627,-1.75,-0.20,-1.74,-0.19,0.19,0.11,-1.56,-1.55,-1.55
633,-1.71,-0.20,-1.69,-0.18,0.18,0.10,-1.53,-1.51,-1.51
639,-1.63,-0.15,-1.65,-0.17,0.17,0.10,-1.46,-1.48,-1.48
646,-1.59,-0.14,-1.60,-0.15,0.15,0.09,-1.44,-1.45,-1.45
652,-1.55,-0.14,-1.54,-0.13,0.13,0.08,-1.42,-1.41,-1.41
659,-1.52,-0.15,-1.47,-0.10,0.10,0.08,-1.42,-1.37,-1.37
665,-1.42,-0.08,-1.41,-0.07,0.07,0.07,-1.35,-1.34,-1.34
672,-1.33,-0.03,-1.34,-0.03,0.03,0.06,-1.30,-1.30,-1.30
679,-1.25,0.02,-1.27,-0.00,0.00,0.06,-1.25,-1.27,-1.27
686,-1.19,0.04,-1.20,0.02,-0.02,0.05,-1.21,-1.23,-1.23
692,-1.15,0.04,-1.15,0.04,-0.04,0.05,-1.19,-1.19,-1.19
699,-1.07,0.08,-1.10,0.06,-0.06,0.04,-1.13,-1.15,-1.15
706,-1.04,0.08,-1.06,0.06,-0.06,0.04,-1.10,-1.12,-1.12
713,-1.01,0.07,-1.03,0.05,-0.05,0.03,-1.06,-1.08,-1.08
721,-1.02,0.02,-1.00,0.04,-0.04,0.03,-1.06,-1.04,-1.04
728,-0.97,0.03,-0.98,0.02,-0.02,0.03,-0.99,-1.00,-1.00
735,-0.97,-0.01,-0.96,0.00,-0.00,0.02,-0.97,-0.96,-0.96
742,-0.97,-0.04,-0.94,-0.02,0.02,0.02,-0.95,-0.93,-0.93
750,-0.92,-0.03,-0.92,-0.04,0.04,0.01,-0.88,-0.89,-0.89
757,-0.92,-0.07,-0.90,-0.05,0.05,0.01,-0.87,-0.85,-0.85
765,-0.88,-0.07,-0.88,-0.07,0.07,0.01,-0.81,-0.81,-0.81
773,-0.86,-0.08,-0.86,-0.08,0.08,0.00,-0.78,-0.78,-0.78
780,-0.83,-0.09,-0.83,-0.09,0.09,0.00,-0.74,-0.74,-0.74
788,-0.80,-0.09,-0.81,-0.10,0.10,-0.00,-0.70,-0.71,-0.71
796,-0.79,-0.12,-0.79,-0.12,0.12,-0.01,-0.67,-0.67,-0.67
804,-0.76,-0.12,-0.77,-0.14,0.14,-0.01,-0.62,-0.64,-0.64
812,-0.78,-0.18,-0.76,-0.16,0.16,-0.01,-0.62,-0.60,-0.60
820,-0.74,-0.17,-0.75,-0.18,0.18,-0.01,-0.56,-0.57,-0.57
828,-0.73,-0.19,-0.74,-0.21,0.21,-0.02,-0.52,-0.54,-0.54
837,-0.71,-0.21,-0.74,-0.24,0.24,-0.02,-0.47,-0.50,-0.50
845,-0.74,-0.27,-0.74,-0.27,0.27,-0.02,-0.47,-0.47,-0.47
853,-0.78,-0.34,-0.75,-0.31,0.31,-0.02,-0.47,-0.44,-0.44
862,-0.79,-0.38,-0.76,-0.35,0.35,-0.03,-0.44,-0.41,-0.41
871,-0.78,-0.40,-0.77,-0.39,0.39,-0.03,-0.39,-0.38,-0.38
879,-0.74,-0.39,-0.78,-0.43,0.43,-0.03,-0.31,-0.35,-0.35
888,-0.71,-0.39,-0.79,-0.47,0.47,-0.03,-0.24,-0.32,-0.32
897,-0.78,-0.48,-0.80,-0.50,0.50,-0.04,-0.28,-0.30,-0.30
906,-0.81,-0.54,-0.79,-0.53,0.53,-0.04,-0.28,-0.27,-0.27
915,-0.85,-0.61,-0.78,-0.54,0.54,-0.04,-0.31,-0.24,-0.24
924,-0.78,-0.57,-0.75,-0.53,0.53,-0.04,-0.25,-0.21,-0.21
933,-0.72,-0.53,-0.70,-0.51,0.51,-0.04,-0.21,-0.19,-0.19
943,-0.64,-0.48,-0.63,-0.47,0.47,-0.05,-0.17,-0.16,-0.16
952,-0.56,-0.43,-0.54,-0.41,0.41,-0.05,-0.15,-0.13,-0.13
962,-0.46,-0.35,-0.44,-0.34,0.34,-0.05,-0.12,-0.11,-0.11
971,-0.34,-0.26,-0.33,-0.25,0.25,-0.05,-0.09,-0.08,-0.08
981,-0.22,-0.17,-0.23,-0.17,0.17,-0.05,-0.05,-0.05,-0.05
991,-0.09,-0.06,-0.12,-0.09,0.09,-0.06,0.00,-0.03,-0.03
1001,0.01,0.01,-0.03,-0.03,0.03,-0.06,0.04,0.00,0.00
1011,0.05,0.02,0.05,0.02,-0.02,-0.06,0.03,0.03,0.03
1021,0.12,0.07,0.11,0.06,-0.06,-0.06,0.06,0.05,0.05
1031,0.17,0.09,0.15,0.07,-0.07,-0.06,0.10,0.08,0.08
1041,0.19,0.08,0.17,0.06,-0.06,-0.06,0.13,0.11,0.11
1052,0.22,0.08,0.17,0.03,-0.03,-0.07,0.19,0.14,0.14
1062,0.12,-0.05,0.15,-0.02,0.02,-0.07,0.14,0.17,0.17
1073,0.13,-0.07,0.12,-0.07,0.07,-0.07,0.20,0.19,0.19
1084,0.08,-0.14,0.09,-0.14,0.14,-0.07,0.22,0.22,0.22
1094,0.04,-0.21,0.05,-0.20,0.20,-0.07,0.24,0.25,0.25
1105,0.01,-0.27,0.02,-0.26,0.26,-0.07,0.27,0.28,0.28
1116,-0.03,-0.34,-0.01,-0.32,0.32,-0.08,0.29,0.31,0.31
1128,-0.04,-0.38,-0.03,-0.37,0.37,-0.08,0.33,0.34,0.34
1139,-0.04,-0.41,-0.03,-0.41,0.41,-0.08,0.37,0.37,0.37
1150,-0.04,-0.44,-0.03,-0.44,0.44,-0.08,0.40,0.40,0.40
1162,-0.01,-0.45,-0.02,-0.45,0.45,-0.08,0.44,0.44,0.44
1173,0.02,-0.45,0.01,-0.46,0.46,-0.08,0.48,0.47,0.47
1185,0.05,-0.45,0.05,-0.45,0.45,-0.09,0.50,0.50,0.50
1197,0.08,-0.45,0.10,-0.44,0.44,-0.09,0.52,0.53,0.53
1209,0.13,-0.43,0.15,-0.41,0.41,-0.09,0.54,0.56,0.56
1221,0.22,-0.38,0.22,-0.38,0.38,-0.09,0.60,0.60,0.60
1233,0.29,-0.34,0.29,-0.34,0.34,-0.09,0.63,0.63,0.63
1246,0.37,-0.29,0.36,-0.30,0.30,-0.10,0.67,0.66,0.66
1258,0.45,-0.25,0.44,-0.26,0.26,-0.10,0.71,0.70,0.70
1271,0.52,-0.21,0.51,-0.22,0.22,-0.10,0.74,0.73,0.73
1283,0.59,-0.18,0.59,-0.18,0.18,-0.10,0.77,0.77,0.77
1296,0.67,-0.13,0.66,-0.14,0.14,-0.10,0.81,0.80,0.80
1309,0.70,-0.14,0.73,-0.11,0.11,-0.10,0.81,0.84,0.84
1322,0.81,-0.06,0.80,-0.08,0.08,-0.11,0.89,0.87,0.87
1335,0.88,-0.03,0.86,-0.05,0.05,-0.11,0.93,0.91,0.91
1349,0.92,-0.03,0.93,-0.02,0.02,-0.11,0.94,0.95,0.95
1362,1.00,0.02,0.99,0.01,-0.01,-0.11,0.99,0.98,0.98
1376,1.04,0.02,1.06,0.04,-0.04,-0.11,1.00,1.02,1.02
1390,1.12,0.06,1.12,0.07,-0.07,-0.11,1.05,1.06,1.06
1404,1.20,0.10,1.19,0.10,-0.10,-0.12,1.10,1.10,1.10
1418,1.26,0.13,1.27,0.13,-0.13,-0.12,1.13,1.13,1.13
1432,1.33,0.16,1.35,0.17,-0.17,-0.12,1.16,1.17,1.17
1446,1.39,0.18,1.43,0.21,-0.21,-0.12,1.18,1.21,1.21
1461,1.51,0.26,1.51,0.25,-0.25,-0.12,1.26,1.25,1.25
1475,1.59,0.30,1.59,0.29,-0.29,-0.12,1.30,1.29,1.29
1490,1.67,0.34,1.66,0.33,-0.33,-0.12,1.34,1.33,1.33
1505,1.75,0.38,1.73,0.35,-0.35,-0.12,1.40,1.37,1.37
1520,1.79,0.38,1.79,0.37,-0.37,-0.13,1.42,1.41,1.41
1535,1.87,0.41,1.84,0.38,-0.38,-0.13,1.49,1.46,1.46
1550,1.90,0.40,1.88,0.38,-0.38,-0.13,1.52,1.50,1.50
1566,1.91,0.37,1.91,0.37,-0.37,-0.13,1.54,1.54,1.54
1582,1.93,0.35,1.94,0.36,-0.36,-0.13,1.57,1.58,1.58
1597,1.93,0.30,1.97,0.34,-0.34,-0.13,1.59,1.63,1.63
1613,1.97,0.30,2.00,0.33,-0.33,-0.13,1.64,1.67,1.67
1629,2.00,0.29,2.02,0.31,-0.31,-0.13,1.69,1.71,1.71
1646,2.07,0.31,2.05,0.30,-0.30,-0.13,1.77,1.76,1.76
1662,2.12,0.32,2.08,0.28,-0.28,-0.13,1.84,1.80,1.80
1679,2.09,0.24,2.11,0.26,-0.26,-0.13,1.83,1.85,1.85
1696,2.14,0.24,2.14,0.24,-0.24,-0.13,1.90,1.90,1.90
1713,2.18,0.24,2.16,0.21,-0.21,-0.12,1.97,1.94,1.94
1730,2.16,0.17,2.17,0.18,-0.18,-0.12,1.98,1.99,1.99
1747,2.20,0.16,2.18,0.14,-0.14,-0.12,2.06,2.04,2.04
1764,2.17,0.08,2.18,0.10,-0.10,-0.11,2.07,2.09,2.09
