frequency,raw
20.00,-0.96
20.20,-0.96
20.40,-0.96
20.61,-0.96
20.81,-0.96
21.02,-0.96
21.23,-1.01
21.44,-1.09
21.66,-1.18
21.87,-1.26
22.09,-1.34
22.31,-1.34
22.54,-1.23
22.76,-1.12
22.99,-1.01
23.22,-0.91
23.45,-0.80
23.69,-0.72
23.92,-0.76
24.16,-0.81
24.40,-0.85
24.65,-0.89
24.89,-0.94
25.14,-0.98
25.39,-1.02
25.65,-1.06
25.91,-1.11
26.16,-1.15
26.43,-1.19
26.69,-1.18
26.96,-1.16
27.23,-1.13
27.50,-1.10
27.77,-1.08
28.05,-1.05
28.33,-1.02
28.62,-1.00
28.90,-0.97
29.19,-0.95
29.48,-0.92
29.78,-0.89
30.08,-0.87
30.38,-0.93
30.68,-1.00
30.99,-1.06
31.30,-1.13
31.61,-1.14
31.93,-1.14
32.24,-1.14
32.57,-1.14
32.89,-1.14
33.22,-1.14
33.55,-1.14
33.89,-1.15
34.23,-1.16
34.57,-1.18
34.92,-1.20
35.27,-1.20
35.62,-1.20
35.97,-1.20
36.33,-1.20
36.70,-1.20
37.06,-1.20
37.43,-1.20
37.81,-1.18
38.19,-1.15
38.57,-1.13
38.95,-1.10
39.34,-1.07
39.74,-1.05
40.14,-1.05
40.54,-1.05
40.94,-1.06
41.35,-1.06
41.76,-1.06
42.18,-1.06
42.60,-1.07
43.03,-1.07
43.46,-1.07
43.90,-1.07
44.33,-1.08
44.78,-1.08
45.23,-1.07
45.68,-1.04
46.13,-1.02
46.60,-1.00
47.06,-0.98
47.53,-0.96
48.01,-0.98
48.49,-1.01
48.97,-1.04
49.46,-1.07
49.96,-1.09
50.46,-1.12
50.96,-1.15
51.47,-1.18
51.99,-1.21
52.51,-1.23
53.03,-1.26
53.56,-1.23
54.10,-1.19
54.64,-1.16
55.18,-1.12
55.74,-1.09
56.29,-1.05
56.86,-1.01
57.42,-0.98
58.00,-0.94
58.58,-0.91
59.16,-0.87
59.76,-0.84
60.35,-0.87
60.96,-0.91
61.57,-0.95
62.18,-0.99
62.80,-1.02
63.43,-1.02
64.07,-1.02
64.71,-1.02
65.35,-1.02
66.01,-1.02
66.67,-1.01
67.33,-0.98
68.01,-0.96
68.69,-0.94
69.37,-0.92
70.07,-0.90
70.77,-0.89
71.48,-0.89
72.19,-0.89
72.91,-0.88
73.64,-0.88
74.38,-0.88
75.12,-0.87
75.87,-0.87
76.63,-0.87
77.40,-0.86
78.17,-0.86
78.95,-0.86
79.74,-0.86
80.54,-0.85
81.35,-0.85
82.16,-0.85
82.98,-0.84
83.81,-0.84
84.65,-0.84
85.50,-0.85
86.35,-0.89
87.22,-0.92
88.09,-0.95
88.97,-0.98
89.86,-1.01
90.76,-1.01
91.66,-1.01
92.58,-1.00
93.51,-1.00
94.44,-0.99
95.39,-0.95
96.34,-0.89
97.30,-0.83
98.28,-0.77
99.26,-0.72
100.25,-0.66
101.25,-0.62
102.27,-0.58
103.29,-0.54
104.32,-0.51
105.37,-0.47
106.42,-0.43
107.48,-0.39
108.56,-0.36
109.64,-0.32
110.74,-0.28
111.85,-0.24
112.97,-0.20
114.10,-0.17
115.24,-0.15
116.39,-0.14
117.55,-0.12
118.73,-0.11
119.92,-0.09
121.12,-0.08
122.33,-0.07
123.55,-0.05
124.79,-0.04
126.03,-0.02
127.29,-0.01
128.57,0.00
129.85,0.02
131.15,0.02
132.46,0.02
133.79,0.02
135.12,0.02
136.48,0.02
137.84,0.02
139.22,0.02
140.61,0.02
142.02,0.02
143.44,0.02
144.87,0.02
146.32,0.02
147.78,0.02
149.26,0.02
150.75,0.02
152.26,0.03
153.78,0.06
155.32,0.09
156.88,0.12
158.44,0.14
160.03,0.17
161.63,0.20
163.24,0.23
164.88,0.26
166.53,0.29
168.19,0.32
169.87,0.31
171.57,0.28
173.29,0.26
175.02,0.24
176.77,0.22
178.54,0.19
180.32,0.17
182.13,0.15
183.95,0.12
185.79,0.10
187.65,0.08
189.52,0.06
191.42,0.03
193.33,0.01
195.27,-0.01
197.22,-0.04
199.19,-0.06
201.18,-0.08
203.19,-0.10
205.23,-0.07
207.28,-0.04
209.35,-0.01
211.44,0.03
213.56,0.06
215.69,0.09
217.85,0.12
220.03,0.15
222.23,0.20
224.45,0.25
226.70,0.29
228.96,0.34
231.25,0.38
233.57,0.43
235.90,0.47
238.26,0.52
240.64,0.56
243.05,0.61
245.48,0.65
247.93,0.70
250.41,0.74
252.92,0.73
255.45,0.71
258.00,0.68
260.58,0.65
263.19,0.62
265.82,0.59
268.48,0.56
271.16,0.54
273.87,0.51
276.61,0.48
279.38,0.45
282.17,0.42
284.99,0.40
287.84,0.40
290.72,0.42
293.63,0.44
296.57,0.45
299.53,0.47
302.53,0.49
305.55,0.51
308.61,0.52
311.69,0.53
314.81,0.54
317.96,0.55
321.14,0.56
324.35,0.58
327.59,0.59
330.87,0.60
334.18,0.61
337.52,0.62
340.90,0.63
344.30,0.74
347.75,0.85
351.23,0.97
354.74,1.08
358.28,1.19
361.87,1.30
365.49,1.41
369.14,1.52
372.83,1.63
376.56,1.75
380.33,1.75
384.13,1.69
387.97,1.62
391.85,1.55
395.77,1.49
399.73,1.42
403.72,1.35
407.76,1.28
411.84,1.22
415.96,1.15
420.12,1.08
424.32,1.02
428.56,0.95
432.85,0.88
437.18,0.82
441.55,0.89
445.96,0.97
450.42,1.04
454.93,1.12
459.48,1.20
464.07,1.27
468.71,1.35
473.40,1.43
478.13,1.50
482.91,1.58
487.74,1.66
492.62,1.73
497.55,1.77
502.52,1.81
507.55,1.85
512.62,1.89
517.75,1.93
522.93,1.97
528.16,1.94
533.44,1.90
538.77,1.85
544.16,1.81
549.60,1.77
555.10,1.72
560.65,1.68
566.25,1.63
571.92,1.62
577.64,1.65
583.41,1.67
589.25,1.70
595.14,1.72
601.09,1.84
607.10,2.00
613.17,2.15
619.30,2.30
625.50,2.45
631.75,2.60
638.07,2.75
644.45,2.90
650.89,3.05
657.40,3.20
663.98,3.35
670.62,3.36
677.32,3.34
684.10,3.32
690.94,3.30
697.85,3.28
704.83,3.26
711.87,3.24
718.99,3.22
726.18,3.20
733.44,3.18
740.78,3.16
748.19,3.14
755.67,3.17
763.23,3.22
770.86,3.27
778.57,3.31
786.35,3.36
794.22,3.40
802.16,3.45
810.18,3.49
818.28,3.54
826.46,3.59
834.73,3.63
843.08,3.68
851.51,3.72
860.02,3.77
868.62,3.85
877.31,3.93
886.08,4.02
894.94,4.11
903.89,4.20
912.93,4.29
922.06,4.37
931.28,4.38
940.59,4.30
950.00,4.21
959.50,4.13
969.09,4.04
978.78,3.96
988.57,3.88
998.46,3.83
1008.44,3.93
1018.53,4.02
1028.71,4.12
1039.00,4.22
1049.39,4.32
1059.88,4.41
1070.48,4.44
1081.19,4.47
1092.00,4.49
1102.92,4.51
1113.95,4.54
1125.09,4.65
1136.34,4.80
1147.70,4.95
1159.18,5.10
1170.77,5.25
1182.48,5.40
1194.30,5.40
1206.25,5.40
1218.31,5.40
1230.49,5.40
1242.80,5.40
1255.22,5.57
1267.78,5.78
1280.45,5.99
1293.26,6.21
1306.19,6.42
1319.25,6.61
1332.45,6.43
1345.77,6.25
1359.23,6.07
1372.82,5.88
1386.55,5.70
1400.41,5.52
1414.42,5.46
1428.56,5.68
1442.85,5.90
1457.28,6.12
1471.85,6.34
1486.57,6.56
1501.43,6.78
1516.45,7.00
1531.61,7.22
1546.93,7.44
1562.40,7.66
1578.02,7.88
1593.80,8.10
1609.74,8.20
1625.84,8.27
1642.10,8.33
1658.52,8.40
1675.10,8.47
1691.85,8.54
1708.77,8.60
1725.86,8.71
1743.12,8.84
1760.55,8.98
1778.15,9.12
1795.94,9.26
1813.90,9.40
1832.03,9.54
1850.36,9.70
1868.86,9.88
1887.55,10.05
1906.42,10.23
1925.49,10.41
1944.74,10.59
1964.19,10.77
1983.83,10.86
2003.67,10.95
2023.71,11.04
2043.94,11.13
2064.38,11.22
2085.03,11.31
2105.88,11.44
2126.94,11.73
2148.20,12.02
2169.69,12.31
2191.38,12.60
2213.30,12.82
2235.43,12.84
2257.78,12.85
2280.36,12.86
2303.17,12.88
2326.20,12.89
2349.46,12.90
2372.95,12.96
2396.68,13.18
2420.65,13.40
2444.86,13.61
2469.31,13.83
2494.00,14.05
2518.94,14.27
2544.13,14.49
2569.57,14.71
2595.27,14.92
2621.22,15.14
2647.43,15.35
2673.90,15.27
2700.64,15.18
2727.65,15.10
2754.93,15.01
2782.48,14.94
2810.30,15.05
2838.40,15.17
2866.79,15.29
2895.46,15.41
2924.41,15.52
2953.65,15.64
2983.19,15.76
3013.02,15.59
3043.15,15.33
3073.58,15.08
3104.32,14.82
3135.36,14.57
3166.72,14.31
3198.38,14.16
3230.37,14.11
3262.67,14.05
3295.30,14.04
3328.25,14.12
3361.53,14.19
3395.15,14.26
3429.10,14.34
3463.39,14.41
3498.03,14.48
3533.01,14.56
3568.34,14.61
3604.02,14.44
3640.06,14.27
3676.46,14.10
3713.22,13.93
3750.36,13.83
3787.86,13.83
3825.74,13.83
3864.00,13.83
3902.64,13.83
3941.66,13.83
3981.08,13.82
4020.89,13.77
4061.10,13.71
4101.71,13.66
4142.73,13.60
4184.15,13.55
4226.00,13.50
4268.26,13.39
4310.94,13.21
4354.05,13.03
4397.59,12.84
4441.56,12.66
4485.98,12.49
4530.84,12.44
4576.15,12.47
4621.91,12.50
4668.13,12.53
4714.81,12.51
4761.96,12.42
4809.58,12.34
4857.67,12.25
4906.25,12.17
4955.31,12.09
5004.87,12.00
5054.91,11.91
5105.46,11.77
5156.52,11.62
5208.08,11.48
5260.16,11.34
5312.77,11.26
5365.89,11.25
5419.55,11.23
5473.75,11.22
5528.49,11.21
5583.77,11.17
5639.61,11.07
5696.00,10.96
5752.96,10.86
5810.49,10.75
5868.60,10.65
5927.28,10.54
5986.56,10.44
6046.42,10.33
6106.89,10.23
6167.96,10.12
6229.64,10.02
6291.93,9.91
6354.85,9.81
6418.40,9.70
6482.58,9.60
6547.41,9.49
6612.88,9.39
6679.01,9.28
6745.80,9.18
6813.26,9.12
6881.39,9.12
6950.21,9.12
7019.71,9.09
7089.91,9.01
7160.81,8.93
7232.41,8.85
7304.74,8.77
7377.79,8.69
7451.56,8.61
7526.08,8.53
7601.34,8.45
7677.35,8.48
7754.13,8.50
7831.67,8.52
7909.98,8.55
7989.08,8.57
8068.98,9.45
8149.67,10.19
8231.16,10.85
8313.47,11.51
8396.61,12.16
8480.57,12.82
8565.38,13.40
8651.03,13.93
8737.54,14.46
8824.92,14.91
8913.17,15.26
9002.30,15.52
9092.32,15.12
9183.25,14.72
9275.08,14.22
9367.83,13.69
9461.51,13.16
9556.12,12.43
9651.68,11.33
9748.20,9.64
9845.68,7.72
9944.14,6.23
10043.58,5.73
10144.02,6.49
10245.46,7.26
10347.91,8.04
10451.39,8.86
10555.91,9.64
10661.46,10.07
10768.08,9.55
10875.76,9.03
10984.52,8.51
11094.36,7.99
11205.31,7.76
11317.36,8.41
11430.53,9.07
11544.84,9.73
11660.29,10.39
11776.89,11.05
11894.66,11.05
12013.60,10.77
12133.74,10.19
12255.08,9.68
12377.63,9.21
12501.41,8.51
12626.42,8.01
12752.68,7.86
12880.21,7.71
13009.01,7.56
13139.10,7.41
13270.49,7.27
13403.20,7.12
13537.23,6.97
13672.60,6.80
13809.33,6.62
13947.42,6.45
14086.90,6.54
14227.77,6.81
14370.04,7.08
14513.74,7.41
14658.88,7.80
14805.47,8.19
14953.52,8.58
15103.06,8.97
15254.09,9.31
15406.63,9.62
15560.70,9.94
15716.30,10.25
15873.47,10.57
16032.20,10.31
16192.52,9.93
16354.45,9.56
16517.99,9.18
16683.17,8.81
16850.01,8.43
17018.51,8.05
17188.69,7.78
17360.58,7.78
17534.18,7.78
17709.53,7.78
17886.62,7.78
18065.49,7.78
18246.14,7.88
18428.60,8.01
18612.89,8.14
18799.02,8.27
18987.01,8.40
19176.88,8.33
19368.65,7.88
19562.33,7.43
19757.96,6.98
19955.54,6.53
