frequency,raw
20.00,5.27
20.20,5.31
20.40,5.35
20.61,5.38
20.81,5.42
21.02,5.46
21.23,5.48
21.44,5.50
21.66,5.52
21.87,5.53
22.09,5.55
22.31,5.56
22.54,5.57
22.76,5.58
22.99,5.58
23.22,5.59
23.45,5.60
23.69,5.61
23.92,5.62
24.16,5.64
24.40,5.66
24.65,5.65
24.89,5.66
25.14,5.67
25.39,5.68
25.65,5.70
25.91,5.70
26.16,5.71
26.43,5.72
26.69,5.73
26.96,5.75
27.23,5.76
27.50,5.76
27.77,5.76
28.05,5.78
28.33,5.78
28.62,5.79
28.90,5.80
29.19,5.80
29.48,5.83
29.78,5.82
30.08,5.83
30.38,5.83
30.68,5.85
30.99,5.85
31.30,5.85
31.61,5.86
31.93,5.87
32.24,5.87
32.57,5.89
32.89,5.89
33.22,5.90
33.55,5.91
33.89,5.92
34.23,5.92
34.57,5.93
34.92,5.93
35.27,5.94
35.62,5.94
35.97,5.94
36.33,5.95
36.70,5.94
37.06,5.95
37.43,5.95
37.81,5.95
38.19,5.95
38.57,5.94
38.95,5.94
39.34,5.93
39.74,5.93
40.14,5.93
40.54,5.93
40.94,5.92
41.35,5.92
41.76,5.92
42.18,5.92
42.60,5.92
43.03,5.92
43.46,5.92
43.90,5.90
44.33,5.90
44.78,5.89
45.23,5.89
45.68,5.89
46.13,5.88
46.60,5.89
47.06,5.88
47.53,5.87
48.01,5.88
48.49,5.86
48.97,5.84
49.46,5.83
49.96,5.81
50.46,5.81
50.96,5.79
51.47,5.76
51.99,5.75
52.51,5.74
53.03,5.72
53.56,5.71
54.10,5.68
54.64,5.67
55.18,5.64
55.74,5.61
56.29,5.61
56.86,5.58
57.42,5.55
58.00,5.53
58.58,5.51
59.16,5.49
59.76,5.47
60.35,5.44
60.96,5.41
61.57,5.36
62.18,5.32
62.80,5.30
63.43,5.25
64.07,5.21
64.71,5.18
65.35,5.14
66.01,5.10
66.67,5.07
67.33,5.03
68.01,4.99
68.69,4.95
69.37,4.91
70.07,4.87
70.77,4.83
71.48,4.80
72.19,4.75
72.91,4.72
73.64,4.68
74.38,4.65
75.12,4.61
75.87,4.58
76.63,4.55
77.40,4.52
78.17,4.49
78.95,4.46
79.74,4.44
80.54,4.42
81.35,4.39
82.16,4.36
82.98,4.35
83.81,4.32
84.65,4.29
85.50,4.28
86.35,4.26
87.22,4.24
88.09,4.22
88.97,4.20
89.86,4.19
90.76,4.16
91.66,4.14
92.58,4.12
93.51,4.11
94.44,4.09
95.39,4.07
96.34,4.04
97.30,4.01
98.28,3.98
99.26,3.96
100.25,3.93
101.25,3.90
102.27,3.86
103.29,3.83
104.32,3.80
105.37,3.76
106.42,3.71
107.48,3.68
108.56,3.62
109.64,3.57
110.74,3.52
111.85,3.47
112.97,3.40
114.10,3.35
115.24,3.29
116.39,3.22
117.55,3.16
118.73,3.10
119.92,3.05
121.12,2.99
122.33,2.94
123.55,2.89
124.79,2.84
126.03,2.79
127.29,2.74
128.57,2.68
129.85,2.64
131.15,2.59
132.46,2.55
133.79,2.51
135.12,2.47
136.48,2.43
137.84,2.39
139.22,2.34
140.61,2.30
142.02,2.28
143.44,2.24
144.87,2.20
146.32,2.16
147.78,2.13
149.26,2.10
150.75,2.04
152.26,2.00
153.78,1.97
155.32,1.91
156.88,1.88
158.44,1.83
160.03,1.78
161.63,1.73
163.24,1.69
164.88,1.65
166.53,1.60
168.19,1.55
169.87,1.50
171.57,1.46
173.29,1.40
175.02,1.35
176.77,1.29
178.54,1.24
180.32,1.18
182.13,1.13
183.95,1.07
185.79,1.02
187.65,0.95
189.52,0.90
191.42,0.85
193.33,0.80
195.27,0.75
197.22,0.69
199.19,0.64
201.18,0.59
203.19,0.56
205.23,0.50
207.28,0.48
209.35,0.42
211.44,0.37
213.56,0.33
215.69,0.31
217.85,0.27
220.03,0.23
222.23,0.20
224.45,0.18
226.70,0.15
228.96,0.12
231.25,0.11
233.57,0.09
235.90,0.08
238.26,0.07
240.64,0.06
243.05,0.06
245.48,0.05
247.93,0.05
250.41,0.05
252.92,0.06
255.45,0.07
258.00,0.08
260.58,0.08
263.19,0.09
265.82,0.10
268.48,0.12
271.16,0.14
273.87,0.14
276.61,0.17
279.38,0.17
282.17,0.19
284.99,0.20
287.84,0.21
290.72,0.22
293.63,0.24
296.57,0.26
299.53,0.26
302.53,0.27
305.55,0.29
308.61,0.30
311.69,0.31
314.81,0.34
317.96,0.33
321.14,0.34
324.35,0.34
327.59,0.35
330.87,0.35
334.18,0.35
337.52,0.36
340.90,0.36
344.30,0.36
347.75,0.36
351.23,0.36
354.74,0.36
358.28,0.34
361.87,0.34
365.49,0.34
369.14,0.33
372.83,0.33
376.56,0.32
380.33,0.31
384.13,0.30
387.97,0.29
391.85,0.28
395.77,0.29
399.73,0.28
403.72,0.27
407.76,0.26
411.84,0.27
415.96,0.25
420.12,0.25
424.32,0.25
428.56,0.24
432.85,0.24
437.18,0.24
441.55,0.25
445.96,0.25
450.42,0.24
454.93,0.25
459.48,0.25
464.07,0.26
468.71,0.27
473.40,0.26
478.13,0.27
482.91,0.27
487.74,0.28
492.62,0.29
497.55,0.29
502.52,0.30
507.55,0.30
512.62,0.30
517.75,0.31
522.93,0.31
528.16,0.31
533.44,0.31
538.77,0.31
544.16,0.31
549.60,0.31
555.10,0.30
560.65,0.30
566.25,0.31
571.92,0.30
577.64,0.29
583.41,0.29
589.25,0.30
595.14,0.30
601.09,0.30
607.10,0.31
613.17,0.32
619.30,0.33
625.50,0.34
631.75,0.33
638.07,0.34
644.45,0.34
650.89,0.36
657.40,0.36
663.98,0.38
670.62,0.38
677.32,0.39
684.10,0.40
690.94,0.42
697.85,0.42
704.83,0.43
711.87,0.43
718.99,0.43
726.18,0.43
733.44,0.43
740.78,0.43
748.19,0.42
755.67,0.40
763.23,0.39
770.86,0.38
778.57,0.36
786.35,0.35
794.22,0.32
802.16,0.31
810.18,0.29
818.28,0.27
826.46,0.25
834.73,0.23
843.08,0.22
851.51,0.20
860.02,0.19
868.62,0.17
877.31,0.16
886.08,0.15
894.94,0.14
903.89,0.12
912.93,0.10
922.06,0.09
931.28,0.07
940.59,0.06
950.00,0.05
959.50,0.04
969.09,0.03
978.78,0.02
988.57,0.00
998.46,0.00
1008.44,-0.01
1018.53,-0.02
1028.71,-0.03
1039.00,-0.04
1049.39,-0.05
1059.88,-0.06
1070.48,-0.06
1081.19,-0.07
1092.00,-0.07
1102.92,-0.08
1113.95,-0.09
1125.09,-0.09
1136.34,-0.09
1147.70,-0.08
1159.18,-0.08
1170.77,-0.09
1182.48,-0.09
1194.30,-0.09
1206.25,-0.09
1218.31,-0.09
1230.49,-0.09
1242.80,-0.10
1255.22,-0.10
1267.78,-0.10
1280.45,-0.10
1293.26,-0.10
1306.19,-0.10
1319.25,-0.10
1332.45,-0.10
1345.77,-0.09
1359.23,-0.09
1372.82,-0.09
1386.55,-0.09
1400.41,-0.09
1414.42,-0.10
1428.56,-0.09
1442.85,-0.10
1457.28,-0.11
1471.85,-0.12
1486.57,-0.14
1501.43,-0.14
1516.45,-0.14
1531.61,-0.15
1546.93,-0.16
1562.40,-0.16
1578.02,-0.17
1593.80,-0.19
1609.74,-0.19
1625.84,-0.20
1642.10,-0.21
1658.52,-0.22
1675.10,-0.23
1691.85,-0.25
1708.77,-0.27
1725.86,-0.29
1743.12,-0.30
1760.55,-0.32
1778.15,-0.33
1795.94,-0.36
1813.90,-0.38
1832.03,-0.40
1850.36,-0.40
1868.86,-0.42
1887.55,-0.43
1906.42,-0.44
1925.49,-0.43
1944.74,-0.42
1964.19,-0.41
1983.83,-0.40
2003.67,-0.38
2023.71,-0.39
2043.94,-0.38
2064.38,-0.37
2085.03,-0.37
2105.88,-0.36
2126.94,-0.35
2148.20,-0.34
2169.69,-0.35
2191.38,-0.35
2213.30,-0.35
2235.43,-0.35
2257.78,-0.36
2280.36,-0.38
2303.17,-0.38
2326.20,-0.39
2349.46,-0.39
2372.95,-0.41
2396.68,-0.43
2420.65,-0.44
2444.86,-0.45
2469.31,-0.45
2494.00,-0.44
2518.94,-0.43
2544.13,-0.42
2569.57,-0.40
2595.27,-0.37
2621.22,-0.33
2647.43,-0.29
2673.90,-0.25
2700.64,-0.20
2727.65,-0.14
2754.93,-0.09
2782.48,-0.02
2810.30,0.05
2838.40,0.12
2866.79,0.19
2895.46,0.29
2924.41,0.38
2953.65,0.48
2983.19,0.60
3013.02,0.72
3043.15,0.85
3073.58,0.99
3104.32,1.13
3135.36,1.28
3166.72,1.42
3198.38,1.55
3230.37,1.69
3262.67,1.82
3295.30,1.95
3328.25,2.07
3361.53,2.19
3395.15,2.30
3429.10,2.41
3463.39,2.50
3498.03,2.61
3533.01,2.73
3568.34,2.83
3604.02,2.92
3640.06,3.03
3676.46,3.15
3713.22,3.26
3750.36,3.39
3787.86,3.50
3825.74,3.63
3864.00,3.75
3902.64,3.88
3941.66,4.02
3981.08,4.15
4020.89,4.27
4061.10,4.37
4101.71,4.46
4142.73,4.56
4184.15,4.63
4226.00,4.70
4268.26,4.77
4310.94,4.80
4354.05,4.82
4397.59,4.85
4441.56,4.87
4485.98,4.88
4530.84,4.90
4576.15,4.90
4621.91,4.92
4668.13,4.94
4714.81,4.96
4761.96,4.99
4809.58,5.02
4857.67,5.06
4906.25,5.10
4955.31,5.14
5004.87,5.19
5054.91,5.25
5105.46,5.32
5156.52,5.39
5208.08,5.44
5260.16,5.49
5312.77,5.52
5365.89,5.56
5419.55,5.58
5473.75,5.61
5528.49,5.62
5583.77,5.63
5639.61,5.66
5696.00,5.67
5752.96,5.70
5810.49,5.72
5868.60,5.75
5927.28,5.78
5986.56,5.80
6046.42,5.81
6106.89,5.81
6167.96,5.79
6229.64,5.77
6291.93,5.73
6354.85,5.68
6418.40,5.60
6482.58,5.51
6547.41,5.36
6612.88,5.19
6679.01,4.97
6745.80,4.71
6813.26,4.40
6881.39,4.03
6950.21,3.65
7019.71,3.22
7089.91,2.77
7160.81,2.28
7232.41,1.76
7304.74,1.22
7377.79,0.68
7451.56,0.14
7526.08,-0.40
7601.34,-0.92
7677.35,-1.42
7754.13,-1.90
7831.67,-2.35
7909.98,-2.75
7989.08,-3.11
8068.98,-3.43
8149.67,-3.69
8231.16,-3.90
8313.47,-4.03
8396.61,-4.09
8480.57,-4.08
8565.38,-4.02
8651.03,-3.89
8737.54,-3.71
8824.92,-3.47
8913.17,-3.19
9002.30,-2.87
9092.32,-2.56
9183.25,-2.26
9275.08,-1.96
9367.83,-1.68
9461.51,-1.44
9556.12,-1.26
9651.68,-1.13
9748.20,-1.04
9845.68,-1.01
9944.14,-1.01
10043.58,-1.04
10144.02,-1.10
10245.46,-1.18
10347.91,-1.25
10451.39,-1.32
10555.91,-1.38
10661.46,-1.42
10768.08,-1.46
10875.76,-1.46
10984.52,-1.45
11094.36,-1.43
11205.31,-1.38
11317.36,-1.37
11430.53,-1.36
11544.84,-1.36
11660.29,-1.40
11776.89,-1.47
11894.66,-1.53
12013.60,-1.65
12133.74,-1.78
12255.08,-1.95
12377.63,-2.14
12501.41,-2.34
12626.42,-2.54
12752.68,-2.74
12880.21,-2.91
13009.01,-3.06
13139.10,-3.17
13270.49,-3.24
13403.20,-3.25
13537.23,-3.23
13672.60,-3.19
13809.33,-3.14
13947.42,-3.09
14086.90,-3.04
14227.77,-2.99
14370.04,-2.99
14513.74,-3.04
14658.88,-3.15
14805.47,-3.33
14953.52,-3.59
15103.06,-3.95
15254.09,-4.39
15406.63,-4.90
15560.70,-5.46
15716.30,-6.04
15873.47,-6.64
16032.20,-7.27
16192.52,-7.96
16354.45,-8.61
16517.99,-9.21
16683.17,-9.75
16850.01,-10.23
17018.51,-10.67
17188.69,-11.22
17360.58,-11.69
17534.18,-12.12
17709.53,-12.49
17886.62,-12.82
18065.49,-13.26
18246.14,-13.84
18428.60,-14.38
18612.89,-14.90
18799.02,-15.37
18987.01,-15.80
19176.88,-16.50
19368.65,-17.20
19562.33,-17.85
19757.96,-18.47
19955.54,-19.06
