frequency,raw,error,smoothed,error_smoothed,equalization,parametric_eq,fixed_band_eq,equalized_raw,equalized_smoothed,target
20.00,6.62,-1.02,6.63,-1.01,1.01,0.86,-0.40,7.63,7.63,7.64
20.20,6.66,-0.98,6.66,-0.98,0.98,0.82,-0.41,7.64,7.64,7.64
20.40,6.69,-0.95,6.69,-0.95,0.95,0.79,-0.41,7.64,7.64,7.64
20.61,6.72,-0.92,6.73,-0.91,0.92,0.75,-0.42,7.64,7.64,7.64
20.81,6.76,-0.88,6.76,-0.88,0.88,0.71,-0.43,7.65,7.64,7.64
21.02,6.78,-0.86,6.79,-0.84,0.85,0.68,-0.44,7.63,7.64,7.64
21.23,6.82,-0.79,6.82,-0.80,0.81,0.64,-0.45,7.63,7.63,7.62
21.44,6.84,-0.76,6.84,-0.76,0.77,0.60,-0.47,7.61,7.61,7.61
21.66,6.86,-0.72,6.87,-0.72,0.73,0.57,-0.48,7.59,7.59,7.59
21.87,6.88,-0.68,6.89,-0.68,0.68,0.53,-0.49,7.57,7.57,7.57
22.09,6.91,-0.64,6.91,-0.64,0.63,0.49,-0.50,7.55,7.55,7.56
22.31,6.94,-0.58,6.94,-0.59,0.58,0.45,-0.51,7.53,7.52,7.53
22.54,6.97,-0.53,6.98,-0.53,0.53,0.41,-0.52,7.50,7.50,7.51
22.76,7.01,-0.47,7.01,-0.47,0.47,0.37,-0.54,7.48,7.48,7.49
22.99,7.04,-0.41,7.05,-0.41,0.41,0.33,-0.55,7.45,7.46,7.46
23.22,7.08,-0.34,7.08,-0.35,0.35,0.29,-0.56,7.43,7.44,7.43
23.45,7.12,-0.28,7.12,-0.28,0.29,0.24,-0.58,7.42,7.42,7.41
23.69,7.16,-0.23,7.16,-0.23,0.23,0.20,-0.59,7.40,7.40,7.40
23.92,7.20,-0.17,7.20,-0.18,0.18,0.16,-0.60,7.38,7.38,7.37
24.16,7.23,-0.13,7.23,-0.13,0.13,0.11,-0.62,7.36,7.36,7.36
24.40,7.26,-0.08,7.27,-0.08,0.07,0.07,-0.63,7.34,7.34,7.34
24.65,7.29,-0.03,7.30,-0.03,0.02,0.02,-0.65,7.32,7.32,7.32
24.89,7.33,0.03,7.33,0.03,-0.02,-0.02,-0.66,7.31,7.31,7.30
25.14,7.36,0.07,7.36,0.07,-0.07,-0.07,-0.68,7.29,7.29,7.29
25.39,7.39,0.12,7.39,0.12,-0.12,-0.11,-0.70,7.27,7.27,7.27
25.65,7.42,0.16,7.42,0.17,-0.17,-0.16,-0.71,7.25,7.25,7.26
25.91,7.45,0.22,7.46,0.22,-0.22,-0.21,-0.73,7.23,7.24,7.23
26.16,7.49,0.27,7.49,0.27,-0.27,-0.26,-0.75,7.23,7.22,7.22
26.43,7.52,0.31,7.52,0.32,-0.32,-0.31,-0.77,7.21,7.21,7.21
26.69,7.55,0.36,7.56,0.37,-0.36,-0.36,-0.78,7.19,7.19,7.19
26.96,7.59,0.41,7.59,0.41,-0.41,-0.40,-0.80,7.18,7.18,7.18
27.23,7.63,0.47,7.63,0.46,-0.46,-0.46,-0.82,7.17,7.16,7.17
27.50,7.66,0.51,7.67,0.51,-0.52,-0.51,-0.84,7.15,7.15,7.16
27.77,7.70,0.57,7.70,0.56,-0.57,-0.56,-0.86,7.13,7.13,7.14
28.05,7.74,0.62,7.74,0.62,-0.62,-0.61,-0.88,7.12,7.12,7.13
28.33,7.78,0.68,7.79,0.68,-0.68,-0.66,-0.90,7.11,7.11,7.10
28.62,7.83,0.74,7.83,0.74,-0.73,-0.71,-0.92,7.10,7.10,7.09
28.90,7.87,0.79,7.87,0.79,-0.79,-0.77,-0.95,7.09,7.09,7.08
29.19,7.91,0.85,7.91,0.85,-0.84,-0.82,-0.97,7.07,7.07,7.06
29.48,7.95,0.89,7.95,0.89,-0.89,-0.88,-0.99,7.06,7.06,7.06
29.78,7.99,0.94,7.99,0.94,-0.95,-0.93,-1.01,7.05,7.05,7.05
30.08,8.03,0.99,8.03,0.99,-1.00,-0.99,-1.04,7.03,7.03,7.04
30.38,8.07,1.05,8.07,1.05,-1.05,-1.04,-1.06,7.02,7.02,7.02
30.68,8.11,1.11,8.12,1.11,-1.11,-1.10,-1.08,7.00,7.01,7.01
30.99,8.16,1.18,8.16,1.17,-1.17,-1.16,-1.11,7.00,6.99,6.99
31.30,8.19,1.22,8.20,1.22,-1.22,-1.21,-1.14,6.97,6.98,6.97
31.61,8.24,1.28,8.24,1.28,-1.28,-1.27,-1.16,6.96,6.96,6.96
31.93,8.28,1.34,8.28,1.34,-1.35,-1.33,-1.19,6.94,6.94,6.94
32.24,8.32,1.41,8.33,1.41,-1.41,-1.39,-1.22,6.92,6.92,6.91
32.57,8.37,1.47,8.37,1.47,-1.47,-1.45,-1.24,6.90,6.90,6.90
32.89,8.41,1.53,8.42,1.54,-1.53,-1.51,-1.27,6.88,6.88,6.89
33.22,8.46,1.61,8.46,1.60,-1.60,-1.57,-1.30,6.87,6.86,6.86
33.55,8.50,1.66,8.50,1.66,-1.66,-1.63,-1.33,6.84,6.84,6.84
33.89,8.54,1.72,8.55,1.73,-1.73,-1.69,-1.36,6.82,6.82,6.82
34.23,8.59,1.79,8.59,1.79,-1.79,-1.75,-1.39,6.80,6.80,6.80
34.57,8.63,1.85,8.64,1.86,-1.85,-1.81,-1.43,6.78,6.78,6.78
34.92,8.68,1.93,8.68,1.92,-1.92,-1.87,-1.46,6.77,6.77,6.76
35.27,8.72,1.98,8.72,1.98,-1.98,-1.93,-1.50,6.74,6.74,6.75
35.62,8.76,2.04,8.77,2.04,-2.04,-1.99,-1.53,6.72,6.72,6.72
35.97,8.80,2.10,8.81,2.10,-2.11,-2.06,-1.57,6.70,6.70,6.70
36.33,8.85,2.16,8.85,2.16,-2.17,-2.12,-1.61,6.69,6.68,6.69
36.70,8.89,2.23,8.90,2.23,-2.23,-2.18,-1.65,6.66,6.67,6.67
37.06,8.94,2.30,8.95,2.30,-2.29,-2.24,-1.69,6.65,6.65,6.64
37.43,8.99,2.36,8.99,2.36,-2.36,-2.31,-1.73,6.64,6.63,6.63
37.81,9.03,2.42,9.03,2.42,-2.42,-2.37,-1.77,6.61,6.61,6.61
38.19,9.07,2.49,9.08,2.48,-2.49,-2.43,-1.82,6.59,6.59,6.59
38.57,9.11,2.54,9.12,2.55,-2.55,-2.49,-1.86,6.57,6.57,6.57
38.95,9.16,2.61,9.16,2.61,-2.61,-2.56,-1.91,6.55,6.55,6.55
39.34,9.20,2.68,9.20,2.67,-2.67,-2.62,-1.96,6.53,6.53,6.53
39.74,9.24,2.74,9.24,2.73,-2.73,-2.68,-2.01,6.51,6.51,6.51
40.14,9.28,2.78,9.28,2.79,-2.79,-2.74,-2.06,6.49,6.50,6.50
40.54,9.32,2.84,9.33,2.85,-2.85,-2.81,-2.11,6.48,6.48,6.48
40.94,9.37,2.91,9.37,2.90,-2.90,-2.87,-2.17,6.47,6.46,6.47
41.35,9.40,2.96,9.41,2.96,-2.96,-2.93,-2.23,6.44,6.45,6.44
41.76,9.45,3.02,9.45,3.02,-3.01,-2.99,-2.29,6.44,6.44,6.44
42.18,9.49,3.07,9.49,3.07,-3.07,-3.06,-2.35,6.42,6.42,6.42
42.60,9.52,3.12,9.53,3.12,-3.12,-3.12,-2.41,6.40,6.40,6.40
43.03,9.56,3.17,9.56,3.17,-3.18,-3.18,-2.47,6.38,6.38,6.40
43.46,9.60,3.23,9.60,3.23,-3.24,-3.24,-2.54,6.37,6.37,6.37
43.90,9.64,3.30,9.64,3.29,-3.29,-3.30,-2.61,6.35,6.35,6.35
44.33,9.68,3.35,9.68,3.35,-3.35,-3.36,-2.68,6.34,6.33,6.33
44.78,9.71,3.40,9.72,3.40,-3.40,-3.42,-2.75,6.31,6.31,6.32
45.23,9.75,3.46,9.75,3.46,-3.46,-3.48,-2.83,6.30,6.30,6.29
45.68,9.78,3.51,9.79,3.51,-3.51,-3.54,-2.90,6.28,6.28,6.28
46.13,9.83,3.57,9.83,3.56,-3.56,-3.59,-2.98,6.28,6.27,6.26
46.60,9.86,3.61,9.86,3.61,-3.61,-3.65,-3.06,6.25,6.25,6.26
47.06,9.89,3.65,9.90,3.66,-3.66,-3.71,-3.14,6.24,6.24,6.24
47.53,9.93,3.71,9.93,3.70,-3.71,-3.76,-3.23,6.22,6.22,6.22
48.01,9.96,3.75,9.96,3.75,-3.76,-3.82,-3.31,6.20,6.20,6.22
48.49,9.99,3.80,9.99,3.80,-3.81,-3.87,-3.40,6.18,6.19,6.19
48.97,10.02,3.86,10.02,3.86,-3.86,-3.93,-3.49,6.16,6.16,6.16
49.46,10.05,3.92,10.05,3.92,-3.91,-3.98,-3.58,6.15,6.15,6.14
49.96,10.08,3.97,10.08,3.96,-3.96,-4.03,-3.67,6.13,6.13,6.11
50.46,10.11,4.00,10.11,4.01,-4.01,-4.08,-3.76,6.11,6.11,6.11
50.96,10.14,4.05,10.14,4.05,-4.05,-4.13,-3.85,6.09,6.09,6.09
51.47,10.16,4.10,10.17,4.09,-4.10,-4.18,-3.95,6.07,6.07,6.07
51.99,10.19,4.15,10.19,4.14,-4.14,-4.23,-4.04,6.05,6.05,6.05
52.51,10.21,4.17,10.22,4.18,-4.19,-4.28,-4.13,6.03,6.03,6.04
53.03,10.24,4.22,10.25,4.23,-4.23,-4.32,-4.23,6.02,6.02,6.02
53.56,10.27,4.27,10.27,4.27,-4.27,-4.37,-4.32,6.00,6.00,6.00
54.10,10.30,4.32,10.30,4.32,-4.32,-4.41,-4.41,5.99,5.98,5.98
54.64,10.31,4.35,10.32,4.36,-4.36,-4.45,-4.50,5.96,5.96,5.96
55.18,10.34,4.40,10.34,4.40,-4.40,-4.50,-4.59,5.94,5.94,5.94
55.74,10.36,4.44,10.36,4.44,-4.44,-4.54,-4.68,5.92,5.92,5.92
56.29,10.38,4.48,10.38,4.48,-4.48,-4.58,-4.76,5.90,5.90,5.91
56.86,10.40,4.52,10.40,4.52,-4.52,-4.61,-4.85,5.88,5.89,5.89
57.42,10.42,4.56,10.42,4.56,-4.55,-4.65,-4.92,5.87,5.87,5.86
58.00,10.44,4.59,10.44,4.59,-4.59,-4.69,-5.00,5.85,5.85,5.85
58.58,10.45,4.62,10.46,4.62,-4.62,-4.72,-5.07,5.83,5.84,5.83
59.16,10.47,4.66,10.47,4.66,-4.65,-4.76,-5.13,5.82,5.82,5.82
59.76,10.48,4.68,10.49,4.68,-4.69,-4.79,-5.19,5.80,5.80,5.80
60.35,10.50,4.73,10.50,4.71,-4.72,-4.82,-5.25,5.78,5.78,5.78
60.96,10.50,4.73,10.51,4.75,-4.75,-4.85,-5.30,5.75,5.76,5.77
61.57,10.52,4.78,10.52,4.78,-4.78,-4.88,-5.34,5.74,5.74,5.74
62.18,10.53,4.82,10.53,4.81,-4.82,-4.91,-5.38,5.72,5.72,5.71
62.80,10.54,4.85,10.54,4.85,-4.85,-4.94,-5.42,5.70,5.70,5.70
63.43,10.55,4.88,10.55,4.88,-4.87,-4.97,-5.44,5.68,5.68,5.67
64.07,10.56,4.91,10.56,4.91,-4.90,-4.99,-5.47,5.66,5.66,5.65
64.71,10.57,4.93,10.57,4.93,-4.93,-5.02,-5.48,5.65,5.64,5.65
65.35,10.57,4.95,10.58,4.95,-4.95,-5.04,-5.49,5.62,5.63,5.63
66.01,10.58,4.96,10.59,4.97,-4.97,-5.07,-5.50,5.61,5.61,5.62
66.67,10.59,4.99,10.59,4.99,-4.99,-5.09,-5.50,5.60,5.60,5.60
67.33,10.60,5.01,10.60,5.01,-5.01,-5.11,-5.50,5.59,5.59,5.59
68.01,10.60,5.03,10.60,5.03,-5.03,-5.13,-5.50,5.58,5.58,5.57
68.69,10.60,5.04,10.61,5.05,-5.05,-5.15,-5.49,5.56,5.56,5.56
69.37,10.60,5.06,10.61,5.06,-5.07,-5.17,-5.48,5.54,5.54,5.54
70.07,10.61,5.09,10.61,5.08,-5.08,-5.19,-5.46,5.53,5.53,5.53
70.77,10.61,5.10,10.62,5.10,-5.10,-5.21,-5.45,5.51,5.51,5.51
71.48,10.62,5.13,10.62,5.12,-5.12,-5.23,-5.43,5.50,5.49,5.49
72.19,10.61,5.14,10.62,5.14,-5.15,-5.25,-5.42,5.47,5.47,5.48
72.91,10.62,5.17,10.62,5.17,-5.17,-5.27,-5.40,5.46,5.45,5.45
73.64,10.62,5.19,10.62,5.19,-5.19,-5.29,-5.38,5.43,5.43,5.43
74.38,10.62,5.21,10.62,5.22,-5.21,-5.31,-5.36,5.41,5.41,5.41
75.12,10.62,5.25,10.62,5.24,-5.24,-5.33,-5.35,5.39,5.39,5.38
75.87,10.62,5.26,10.62,5.26,-5.26,-5.34,-5.33,5.36,5.36,5.36
76.63,10.62,5.28,10.62,5.29,-5.29,-5.36,-5.32,5.34,5.34,5.34
77.40,10.62,5.31,10.62,5.31,-5.31,-5.38,-5.31,5.31,5.31,5.32
78.17,10.62,5.35,10.62,5.34,-5.33,-5.40,-5.30,5.29,5.29,5.28
78.95,10.62,5.35,10.62,5.36,-5.36,-5.42,-5.29,5.26,5.26,5.27
79.74,10.62,5.38,10.62,5.38,-5.39,-5.43,-5.29,5.24,5.23,5.24
80.54,10.61,5.40,10.62,5.41,-5.41,-5.45,-5.29,5.20,5.21,5.21
81.35,10.62,5.44,10.62,5.44,-5.44,-5.47,-5.29,5.18,5.18,5.18
82.16,10.62,5.48,10.62,5.47,-5.47,-5.49,-5.30,5.15,5.15,5.15
82.98,10.62,5.50,10.62,5.50,-5.50,-5.51,-5.30,5.12,5.12,5.13
83.81,10.62,5.54,10.62,5.53,-5.53,-5.53,-5.32,5.10,5.09,5.08
84.65,10.60,5.55,10.61,5.56,-5.56,-5.55,-5.33,5.05,5.06,5.05
85.50,10.61,5.59,10.61,5.58,-5.59,-5.57,-5.36,5.03,5.02,5.03
86.35,10.60,5.61,10.60,5.61,-5.61,-5.59,-5.38,4.99,4.99,4.99
87.22,10.59,5.64,10.60,5.64,-5.64,-5.61,-5.41,4.95,4.96,4.96
88.09,10.60,5.68,10.60,5.67,-5.67,-5.64,-5.44,4.93,4.93,4.92
88.97,10.59,5.70,10.59,5.70,-5.70,-5.66,-5.48,4.89,4.89,4.90
89.86,10.58,5.72,10.59,5.73,-5.73,-5.68,-5.52,4.86,4.86,4.86
90.76,10.58,5.77,10.58,5.76,-5.76,-5.71,-5.57,4.83,4.82,4.82
91.66,10.57,5.78,10.58,5.79,-5.79,-5.73,-5.61,4.79,4.79,4.79
92.58,10.57,5.83,10.57,5.82,-5.82,-5.76,-5.67,4.76,4.76,4.74
93.51,10.56,5.84,10.57,5.85,-5.85,-5.78,-5.73,4.72,4.72,4.73
94.44,10.56,5.88,10.56,5.88,-5.88,-5.81,-5.79,4.69,4.68,4.69
95.39,10.55,5.90,10.55,5.90,-5.91,-5.84,-5.85,4.65,4.64,4.65
96.34,10.54,5.94,10.55,5.94,-5.94,-5.87,-5.92,4.60,4.60,4.60
97.30,10.53,5.97,10.54,5.97,-5.97,-5.90,-5.99,4.56,4.56,4.56
98.28,10.53,6.01,10.53,6.01,-6.01,-5.93,-6.07,4.52,4.52,4.53
99.26,10.52,6.05,10.53,6.05,-6.05,-5.96,-6.15,4.48,4.48,4.48
100.25,10.52,6.09,10.52,6.08,-6.08,-5.99,-6.23,4.44,4.44,4.44
101.25,10.51,6.12,10.51,6.12,-6.12,-6.02,-6.31,4.39,4.39,4.40
102.27,10.50,6.16,10.51,6.16,-6.16,-6.05,-6.40,4.35,4.35,4.35
103.29,10.50,6.20,10.50,6.20,-6.19,-6.09,-6.49,4.31,4.31,4.30
104.32,10.49,6.23,10.49,6.23,-6.23,-6.12,-6.58,4.26,4.26,4.26
105.37,10.48,6.26,10.48,6.27,-6.27,-6.15,-6.67,4.22,4.22,4.22
106.42,10.46,6.29,10.47,6.30,-6.30,-6.19,-6.76,4.16,4.17,4.17
107.48,10.46,6.34,10.46,6.34,-6.34,-6.23,-6.85,4.12,4.12,4.12
108.56,10.45,6.38,10.45,6.38,-6.38,-6.26,-6.94,4.08,4.07,4.07
109.64,10.44,6.42,10.44,6.42,-6.42,-6.30,-7.02,4.03,4.03,4.02
110.74,10.43,6.45,10.43,6.45,-6.46,-6.34,-7.11,3.98,3.98,3.98
111.85,10.42,6.49,10.42,6.50,-6.50,-6.37,-7.19,3.93,3.93,3.94
112.97,10.41,6.55,10.41,6.54,-6.54,-6.41,-7.27,3.88,3.88,3.87
114.10,10.40,6.58,10.40,6.58,-6.58,-6.45,-7.35,3.83,3.83,3.83
115.24,10.39,6.61,10.39,6.62,-6.62,-6.49,-7.41,3.78,3.78,3.78
116.39,10.38,6.66,10.38,6.66,-6.65,-6.52,-7.48,3.73,3.73,3.72
117.55,10.36,6.69,10.37,6.69,-6.69,-6.56,-7.53,3.68,3.68,3.67
118.73,10.35,6.73,10.35,6.72,-6.72,-6.60,-7.59,3.63,3.63,3.63
119.92,10.33,6.74,10.34,6.75,-6.75,-6.64,-7.63,3.58,3.58,3.59
121.12,10.32,6.78,10.32,6.78,-6.78,-6.68,-7.66,3.54,3.54,3.54
122.33,10.30,6.81,10.31,6.81,-6.81,-6.72,-7.68,3.50,3.50,3.50
123.55,10.29,6.83,10.29,6.83,-6.83,-6.75,-7.70,3.46,3.46,3.46
124.79,10.27,6.86,10.27,6.85,-6.86,-6.79,-7.71,3.41,3.41,3.42
126.03,10.25,6.87,10.26,6.88,-6.89,-6.83,-7.71,3.37,3.37,3.38
127.29,10.24,6.91,10.24,6.91,-6.91,-6.86,-7.69,3.33,3.33,3.34
128.57,10.22,6.94,10.23,6.94,-6.94,-6.90,-7.67,3.29,3.29,3.28
129.85,10.21,6.97,10.21,6.96,-6.96,-6.93,-7.64,3.26,3.25,3.25
131.15,10.19,6.98,10.19,6.98,-6.98,-6.97,-7.60,3.22,3.22,3.22
132.46,10.17,7.00,10.17,7.00,-6.99,-7.00,-7.55,3.18,3.18,3.17
133.79,10.15,7.00,10.15,7.01,-7.01,-7.03,-7.50,3.14,3.14,3.15
135.12,10.13,7.02,10.13,7.02,-7.02,-7.06,-7.44,3.11,3.11,3.11
136.48,10.11,7.03,10.11,7.02,-7.03,-7.09,-7.37,3.08,3.08,3.09
137.84,10.09,7.03,10.09,7.04,-7.04,-7.12,-7.30,3.06,3.06,3.07
139.22,10.07,7.05,10.08,7.04,-7.04,-7.15,-7.22,3.03,3.04,3.03
140.61,10.05,7.05,10.06,7.05,-7.04,-7.17,-7.14,3.01,3.01,3.00
142.02,10.04,7.04,10.04,7.04,-7.04,-7.20,-7.06,3.00,2.99,3.00
143.44,10.01,7.03,10.02,7.04,-7.04,-7.22,-6.97,2.97,2.98,2.98
144.87,9.99,7.04,10.00,7.04,-7.04,-7.24,-6.88,2.95,2.96,2.96
146.32,9.98,7.05,9.98,7.03,-7.04,-7.25,-6.79,2.95,2.94,2.94
147.78,9.95,7.02,9.96,7.03,-7.03,-7.27,-6.70,2.92,2.93,2.93
149.26,9.94,7.03,9.94,7.03,-7.03,-7.28,-6.61,2.92,2.91,2.92
150.75,9.91,7.02,9.92,7.02,-7.02,-7.30,-6.52,2.89,2.90,2.89
152.26,9.89,7.02,9.89,7.02,-7.01,-7.30,-6.44,2.88,2.88,2.88
153.78,9.87,7.01,9.87,7.01,-7.01,-7.31,-6.35,2.87,2.86,2.86
155.32,9.84,6.99,9.85,7.00,-7.00,-7.31,-6.26,2.84,2.85,2.85
156.88,9.82,6.99,9.82,6.99,-6.99,-7.31,-6.18,2.83,2.83,2.84
158.44,9.79,6.98,9.80,6.98,-6.98,-7.31,-6.10,2.81,2.82,2.82
160.03,9.77,6.98,9.77,6.98,-6.97,-7.31,-6.03,2.80,2.80,2.79
161.63,9.74,6.97,9.74,6.97,-6.96,-7.30,-5.96,2.78,2.78,2.77
163.24,9.71,6.95,9.72,6.95,-6.95,-7.29,-5.88,2.76,2.76,2.76
164.88,9.69,6.94,9.69,6.94,-6.94,-7.27,-5.82,2.75,2.75,2.75
166.53,9.66,6.93,9.66,6.93,-6.93,-7.26,-5.76,2.73,2.73,2.73
168.19,9.63,6.93,9.63,6.92,-6.92,-7.24,-5.70,2.71,2.71,2.71
169.87,9.60,6.92,9.60,6.91,-6.92,-7.22,-5.64,2.69,2.69,2.69
171.57,9.57,6.90,9.57,6.90,-6.91,-7.19,-5.60,2.67,2.67,2.67
173.29,9.54,6.89,9.54,6.89,-6.90,-7.16,-5.55,2.65,2.65,2.65
175.02,9.51,6.89,9.51,6.89,-6.89,-7.13,-5.51,2.62,2.62,2.63
176.77,9.47,6.88,9.48,6.88,-6.88,-7.09,-5.47,2.59,2.60,2.59
178.54,9.44,6.88,9.44,6.88,-6.87,-7.06,-5.44,2.57,2.57,2.56
180.32,9.40,6.86,9.40,6.86,-6.86,-7.02,-5.41,2.54,2.54,2.54
182.13,9.36,6.85,9.36,6.85,-6.85,-6.97,-5.38,2.51,2.51,2.51
183.95,9.31,6.83,9.32,6.84,-6.84,-6.93,-5.36,2.47,2.48,2.48
185.79,9.28,6.83,9.28,6.83,-6.83,-6.88,-5.34,2.46,2.45,2.46
187.65,9.24,6.82,9.24,6.82,-6.81,-6.83,-5.33,2.43,2.43,2.42
189.52,9.19,6.79,9.20,6.80,-6.79,-6.77,-5.32,2.40,2.41,2.40
191.42,9.15,6.78,9.15,6.77,-6.77,-6.72,-5.32,2.38,2.38,2.38
193.33,9.10,6.74,9.11,6.74,-6.75,-6.66,-5.31,2.35,2.36,2.37
195.27,9.06,6.72,9.06,6.72,-6.72,-6.60,-5.31,2.34,2.34,2.34
197.22,9.00,6.68,9.01,6.69,-6.69,-6.54,-5.32,2.31,2.32,2.32
199.19,8.96,6.68,8.96,6.67,-6.66,-6.47,-5.32,2.30,2.30,2.28
201.18,8.91,6.64,8.91,6.64,-6.63,-6.40,-5.34,2.28,2.28,2.27
203.19,8.85,6.59,8.86,6.60,-6.60,-6.34,-5.35,2.26,2.26,2.26
205.23,8.79,6.55,8.80,6.55,-6.56,-6.27,-5.36,2.24,2.24,2.24
207.28,8.74,6.50,8.74,6.51,-6.52,-6.19,-5.38,2.23,2.22,2.24
209.35,8.68,6.47,8.69,6.47,-6.47,-6.12,-5.39,2.21,2.21,2.21
211.44,8.63,6.44,8.63,6.43,-6.43,-6.05,-5.41,2.21,2.20,2.19
213.56,8.57,6.39,8.57,6.38,-6.38,-5.97,-5.43,2.19,2.19,2.19
215.69,8.50,6.32,8.51,6.33,-6.33,-5.89,-5.45,2.17,2.18,2.19
217.85,8.44,6.26,8.45,6.27,-6.28,-5.81,-5.46,2.17,2.17,2.18
220.03,8.38,6.22,8.38,6.22,-6.22,-5.74,-5.48,2.16,2.16,2.16
222.23,8.32,6.17,8.32,6.16,-6.16,-5.65,-5.50,2.17,2.16,2.15
224.45,8.25,6.09,8.26,6.10,-6.09,-5.57,-5.51,2.16,2.17,2.17
226.70,8.18,6.02,8.18,6.02,-6.02,-5.49,-5.52,2.17,2.17,2.16
228.96,8.11,5.95,8.11,5.94,-5.94,-5.41,-5.53,2.17,2.17,2.16
231.25,8.03,5.86,8.04,5.86,-5.86,-5.33,-5.53,2.17,2.17,2.18
233.57,7.96,5.77,7.96,5.78,-5.78,-5.24,-5.53,2.18,2.18,2.19
235.90,7.88,5.69,7.89,5.69,-5.70,-5.16,-5.53,2.19,2.19,2.19
238.26,7.81,5.62,7.81,5.61,-5.61,-5.08,-5.52,2.21,2.21,2.20
240.64,7.73,5.51,7.74,5.52,-5.51,-4.99,-5.50,2.22,2.22,2.22
243.05,7.66,5.43,7.66,5.42,-5.42,-4.91,-5.48,2.25,2.24,2.24
245.48,7.57,5.31,7.58,5.32,-5.32,-4.82,-5.46,2.25,2.26,2.26
247.93,7.49,5.22,7.50,5.22,-5.22,-4.74,-5.43,2.28,2.28,2.28
250.41,7.42,5.13,7.42,5.12,-5.11,-4.65,-5.39,2.31,2.30,2.29
252.92,7.33,5.01,7.33,5.01,-5.01,-4.57,-5.34,2.33,2.33,2.33
255.45,7.24,4.89,7.25,4.90,-4.90,-4.49,-5.29,2.35,2.35,2.35
258.00,7.15,4.77,7.16,4.78,-4.78,-4.40,-5.23,2.37,2.37,2.38
260.58,7.07,4.68,7.07,4.67,-4.67,-4.32,-5.17,2.40,2.40,2.40
263.19,6.97,4.55,6.98,4.56,-4.55,-4.24,-5.10,2.42,2.42,2.42
265.82,6.88,4.44,6.89,4.44,-4.43,-4.15,-5.02,2.45,2.45,2.45
268.48,6.79,4.32,6.79,4.32,-4.32,-4.07,-4.94,2.48,2.48,2.47
271.16,6.70,4.19,6.70,4.19,-4.19,-3.99,-4.86,2.51,2.50,2.51
273.87,6.59,4.07,6.60,4.07,-4.07,-3.91,-4.77,2.52,2.53,2.53
276.61,6.50,3.94,6.50,3.94,-3.95,-3.82,-4.67,2.56,2.56,2.56
279.38,6.40,3.82,6.40,3.82,-3.82,-3.74,-4.57,2.58,2.58,2.58
282.17,6.30,3.70,6.30,3.69,-3.69,-3.66,-4.47,2.61,2.61,2.61
284.99,6.19,3.56,6.20,3.56,-3.56,-3.58,-4.37,2.63,2.64,2.63
287.84,6.09,3.43,6.09,3.43,-3.43,-3.50,-4.26,2.66,2.66,2.66
290.72,5.99,3.29,5.99,3.30,-3.30,-3.42,-4.16,2.70,2.69,2.70
293.63,5.88,3.17,5.89,3.16,-3.16,-3.34,-4.05,2.72,2.72,2.72
296.57,5.78,3.03,5.78,3.03,-3.03,-3.27,-3.93,2.76,2.75,2.75
299.53,5.67,2.89,5.67,2.89,-2.89,-3.19,-3.82,2.78,2.78,2.78
302.53,5.56,2.75,5.57,2.75,-2.75,-3.11,-3.71,2.81,2.82,2.81
305.55,5.46,2.61,5.46,2.61,-2.61,-3.03,-3.60,2.85,2.85,2.86
308.61,5.36,2.48,5.36,2.47,-2.47,-2.96,-3.49,2.89,2.89,2.89
311.69,5.25,2.33,5.26,2.33,-2.33,-2.88,-3.38,2.92,2.92,2.92
314.81,5.15,2.19,5.15,2.20,-2.20,-2.81,-3.27,2.96,2.96,2.96
317.96,5.05,2.06,5.05,2.06,-2.06,-2.73,-3.16,2.99,2.99,2.99
321.14,4.95,1.94,4.95,1.93,-1.93,-2.66,-3.05,3.02,3.02,3.02
324.35,4.85,1.81,4.86,1.81,-1.81,-2.59,-2.94,3.05,3.05,3.05
327.59,4.76,1.68,4.76,1.68,-1.68,-2.51,-2.83,3.08,3.08,3.08
330.87,4.67,1.56,4.67,1.56,-1.56,-2.44,-2.73,3.11,3.11,3.11
334.18,4.58,1.45,4.59,1.45,-1.45,-2.37,-2.62,3.13,3.14,3.13
337.52,4.50,1.34,4.50,1.34,-1.34,-2.30,-2.52,3.17,3.16,3.16
340.90,4.42,1.24,4.42,1.24,-1.23,-2.23,-2.42,3.19,3.19,3.19
344.30,4.34,1.14,4.35,1.14,-1.13,-2.16,-2.32,3.21,3.21,3.21
347.75,4.27,1.04,4.27,1.04,-1.04,-2.09,-2.22,3.23,3.23,3.24
351.23,4.21,0.96,4.21,0.95,-0.96,-2.02,-2.12,3.26,3.25,3.25
354.74,4.14,0.87,4.15,0.88,-0.88,-1.95,-2.03,3.26,3.27,3.27
358.28,4.10,0.81,4.11,0.81,-0.82,-1.88,-1.94,3.29,3.29,3.29
361.87,4.07,0.76,4.07,0.76,-0.76,-1.81,-1.84,3.31,3.31,3.31
365.49,4.04,0.70,4.04,0.71,-0.71,-1.75,-1.75,3.33,3.33,3.34
369.14,4.02,0.68,4.03,0.68,-0.67,-1.68,-1.67,3.35,3.35,3.35
372.83,4.01,0.65,4.01,0.64,-0.64,-1.61,-1.58,3.37,3.37,3.37
376.56,4.01,0.63,4.01,0.62,-0.61,-1.55,-1.49,3.40,3.40,3.39
380.33,4.00,0.59,4.01,0.60,-0.59,-1.48,-1.41,3.41,3.41,3.42
384.13,4.01,0.58,4.01,0.58,-0.58,-1.41,-1.33,3.44,3.43,3.43
387.97,4.01,0.56,4.02,0.56,-0.57,-1.35,-1.24,3.45,3.45,3.45
391.85,4.03,0.56,4.03,0.56,-0.56,-1.28,-1.16,3.47,3.47,3.47
395.77,4.05,0.55,4.05,0.56,-0.56,-1.22,-1.08,3.50,3.50,3.50
399.73,4.08,0.56,4.08,0.56,-0.56,-1.15,-1.01,3.52,3.52,3.52
403.72,4.11,0.57,4.11,0.57,-0.57,-1.09,-0.93,3.55,3.54,3.54
407.76,4.14,0.58,4.14,0.58,-0.58,-1.03,-0.85,3.56,3.56,3.56
411.84,4.17,0.58,4.18,0.59,-0.59,-0.96,-0.78,3.58,3.59,3.59
415.96,4.22,0.61,4.22,0.61,-0.61,-0.90,-0.71,3.61,3.61,3.61
420.12,4.26,0.64,4.26,0.63,-0.64,-0.83,-0.63,3.63,3.63,3.63
424.32,4.30,0.65,4.31,0.65,-0.66,-0.77,-0.56,3.65,3.65,3.66
428.56,4.35,0.68,4.35,0.67,-0.68,-0.71,-0.49,3.67,3.67,3.68
432.85,4.39,0.70,4.40,0.70,-0.70,-0.64,-0.42,3.69,3.70,3.70
437.18,4.44,0.72,4.45,0.72,-0.72,-0.58,-0.36,3.73,3.73,3.73
441.55,4.49,0.74,4.49,0.74,-0.73,-0.51,-0.29,3.77,3.76,3.76
445.96,4.52,0.75,4.52,0.74,-0.73,-0.45,-0.22,3.80,3.79,3.78
450.42,4.53,0.74,4.53,0.73,-0.72,-0.39,-0.16,3.82,3.81,3.79
454.93,4.52,0.69,4.53,0.71,-0.70,-0.32,-0.09,3.82,3.83,3.83
459.48,4.53,0.68,4.53,0.67,-0.68,-0.26,-0.03,3.86,3.85,3.85
464.07,4.52,0.64,4.52,0.64,-0.64,-0.20,0.03,3.88,3.88,3.88
468.71,4.51,0.59,4.52,0.60,-0.61,-0.13,0.09,3.91,3.91,3.92
473.40,4.50,0.56,4.50,0.56,-0.56,-0.07,0.15,3.94,3.94,3.94
478.13,4.49,0.52,4.49,0.52,-0.52,-0.00,0.21,3.97,3.97,3.97
482.91,4.47,0.47,4.48,0.48,-0.48,0.06,0.27,4.00,4.00,4.00
487.74,4.46,0.43,4.46,0.43,-0.43,0.12,0.33,4.03,4.03,4.03
492.62,4.44,0.38,4.44,0.38,-0.38,0.19,0.39,4.06,4.06,4.06
497.55,4.42,0.34,4.42,0.33,-0.33,0.25,0.44,4.10,4.09,4.08
502.52,4.38,0.26,4.39,0.27,-0.27,0.32,0.50,4.11,4.11,4.12
507.55,4.35,0.21,4.36,0.21,-0.22,0.39,0.55,4.14,4.14,4.14
512.62,4.32,0.15,4.32,0.15,-0.15,0.45,0.61,4.17,4.17,4.17
517.75,4.29,0.09,4.29,0.09,-0.09,0.52,0.66,4.20,4.20,4.20
522.93,4.24,0.01,4.25,0.02,-0.02,0.59,0.72,4.22,4.23,4.23
528.16,4.20,-0.05,4.21,-0.05,0.05,0.65,0.77,4.25,4.25,4.25
