frequency,raw,error,smoothed,error_smoothed,equalization,parametric_eq,equalized_raw,equalized_smoothed,target
20,-14.46,-18.17,-14.50,-18.21,6.00,2.71,-8.46,-8.50,3.71
21,-13.88,-17.59,-13.84,-17.55,6.00,3.11,-7.88,-7.84,3.71
22,-13.21,-16.92,-13.20,-16.90,6.00,3.54,-7.21,-7.20,3.70
23,-12.58,-16.28,-12.58,-16.28,6.00,4.01,-6.58,-6.58,3.70
24,-11.97,-15.67,-11.98,-15.67,6.00,4.50,-5.97,-5.98,3.70
25,-11.39,-15.09,-11.39,-15.09,6.00,5.01,-5.39,-5.39,3.70
26,-10.82,-14.52,-10.83,-14.52,6.00,5.52,-4.82,-4.83,3.69
27,-10.28,-13.97,-10.29,-13.98,6.00,6.01,-4.28,-4.29,3.69
28,-9.76,-13.45,-9.77,-13.45,6.00,6.45,-3.76,-3.77,3.68
29,-9.25,-12.93,-9.26,-12.94,6.00,6.81,-3.25,-3.26,3.68
30,-8.77,-12.45,-8.78,-12.46,6.00,7.06,-2.77,-2.78,3.68
31,-8.32,-11.99,-8.32,-11.99,6.00,7.21,-2.32,-2.32,3.67
32,-7.88,-11.55,-7.88,-11.54,6.00,7.24,-1.88,-1.88,3.66
33,-7.44,-11.10,-7.45,-11.11,6.00,7.17,-1.44,-1.45,3.66
34,-7.04,-10.69,-7.05,-10.70,6.00,7.02,-1.04,-1.05,3.65
35,-6.65,-10.30,-6.66,-10.31,6.00,6.83,-0.65,-0.66,3.64
36,-6.27,-9.91,-6.29,-9.93,6.00,6.60,-0.27,-0.29,3.64
37,-5.90,-9.53,-5.94,-9.56,6.00,6.36,0.10,0.06,3.63
38,-5.58,-9.20,-5.60,-9.21,6.00,6.13,0.42,0.40,3.62
39,-5.25,-8.86,-5.27,-8.87,6.00,5.91,0.75,0.73,3.61
40,-4.94,-8.54,-4.95,-8.54,6.00,5.72,1.06,1.05,3.60
41,-4.64,-8.23,-4.63,-8.22,6.00,5.54,1.36,1.37,3.59
42,-4.35,-7.93,-4.33,-7.90,6.00,5.39,1.65,1.67,3.57
43,-4.08,-7.64,-4.03,-7.58,6.00,5.26,1.92,1.97,3.56
44,-3.80,-7.35,-3.73,-7.27,6.00,5.16,2.20,2.27,3.55
45,-3.50,-7.03,-3.43,-6.97,6.00,5.08,2.50,2.57,3.53
46,-3.19,-6.71,-3.15,-6.66,6.00,5.02,2.81,2.85,3.52
47,-2.90,-6.40,-2.86,-6.36,5.94,4.98,3.04,3.08,3.50
48,-2.61,-6.10,-2.59,-6.07,5.83,4.95,3.21,3.24,3.48
49,-2.34,-5.81,-2.33,-5.79,5.65,4.94,3.31,3.33,3.46
50,-2.09,-5.54,-2.08,-5.53,5.46,4.94,3.36,3.38,3.45
51,-1.84,-5.27,-1.85,-5.28,5.25,4.95,3.41,3.40,3.43
52,-1.61,-5.02,-1.65,-5.05,5.05,4.97,3.44,3.41,3.41
53,-1.42,-4.81,-1.47,-4.85,4.85,4.99,3.43,3.38,3.38
54,-1.24,-4.60,-1.32,-4.68,4.68,5.01,3.44,3.36,3.36
55,-1.11,-4.45,-1.20,-4.54,4.54,5.03,3.43,3.34,3.34
56,-1.02,-4.34,-1.12,-4.43,4.43,5.04,3.41,3.31,3.31
57,-0.96,-4.25,-1.06,-4.35,4.35,5.04,3.39,3.29,3.29
58,-0.96,-4.22,-1.04,-4.30,4.30,5.04,3.34,3.26,3.26
59,-0.97,-4.21,-1.05,-4.28,4.28,5.02,3.31,3.23,3.23
60,-1.01,-4.22,-1.08,-4.28,4.28,4.98,3.27,3.21,3.21
61,-1.09,-4.27,-1.12,-4.30,4.30,4.94,3.21,3.18,3.18
62,-1.17,-4.32,-1.18,-4.33,4.33,4.88,3.15,3.15,3.15
63,-1.25,-4.37,-1.24,-4.36,4.36,4.80,3.10,3.12,3.12
64,-1.33,-4.42,-1.29,-4.38,4.38,4.71,3.05,3.09,3.09
65,-1.41,-4.47,-1.34,-4.39,4.39,4.60,2.98,3.05,3.05
66,-1.44,-4.46,-1.37,-4.39,4.39,4.49,2.94,3.02,3.02
67,-1.48,-4.47,-1.37,-4.36,4.36,4.36,2.87,2.99,2.99
68,-1.44,-4.40,-1.35,-4.30,4.30,4.22,2.86,2.95,2.95
69,-1.41,-4.33,-1.30,-4.22,4.22,4.08,2.80,2.92,2.92
70,-1.32,-4.20,-1.22,-4.10,4.10,3.93,2.78,2.88,2.88
71,-1.18,-4.03,-1.11,-3.96,3.96,3.77,2.77,2.84,2.84
72,-1.04,-3.85,-0.98,-3.79,3.79,3.61,2.74,2.81,2.81
73,-0.85,-3.62,-0.82,-3.59,3.59,3.45,2.74,2.77,2.77
74,-0.66,-3.39,-0.64,-3.38,3.38,3.29,2.71,2.73,2.73
75,-0.46,-3.16,-0.46,-3.15,3.15,3.13,2.68,2.69,2.69
76,-0.26,-2.92,-0.26,-2.91,2.91,2.97,2.65,2.65,2.65
77,-0.05,-2.67,-0.07,-2.68,2.68,2.81,2.63,2.61,2.61
78,0.16,-2.42,0.12,-2.45,2.45,2.65,2.61,2.57,2.57
79,0.34,-2.20,0.30,-2.23,2.23,2.49,2.57,2.53,2.53
80,0.52,-1.97,0.46,-2.03,2.03,2.34,2.55,2.49,2.49
81,0.67,-1.78,0.59,-1.86,1.86,2.18,2.53,2.45,2.45
82,0.79,-1.62,0.70,-1.71,1.71,2.04,2.49,2.41,2.41
83,0.88,-1.49,0.78,-1.58,1.58,1.89,2.46,2.37,2.37
84,0.95,-1.38,0.84,-1.49,1.49,1.74,2.44,2.33,2.33
85,0.97,-1.32,0.86,-1.42,1.42,1.60,2.39,2.29,2.29
86,0.95,-1.30,0.86,-1.38,1.38,1.46,2.33,2.24,2.24
87,0.91,-1.30,0.84,-1.36,1.36,1.33,2.26,2.20,2.20
88,0.84,-1.32,0.81,-1.35,1.35,1.20,2.19,2.16,2.16
89,0.78,-1.34,0.77,-1.35,1.35,1.06,2.13,2.12,2.12
90,0.68,-1.40,0.72,-1.36,1.36,0.94,2.04,2.08,2.08
91,0.62,-1.42,0.67,-1.37,1.37,0.81,1.98,2.04,2.04
92,0.54,-1.46,0.64,-1.36,1.36,0.69,1.90,2.00,2.00
93,0.52,-1.44,0.61,-1.34,1.34,0.56,1.86,1.96,1.95
94,0.52,-1.40,0.61,-1.31,1.31,0.44,1.83,1.92,1.91
95,0.53,-1.35,0.62,-1.25,1.25,0.33,1.78,1.87,1.87
96,0.58,-1.26,0.66,-1.18,1.18,0.21,1.75,1.83,1.83
97,0.67,-1.13,0.71,-1.08,1.08,0.10,1.74,1.79,1.79
98,0.75,-1.01,0.79,-0.96,0.96,-0.01,1.71,1.75,1.75
99,0.86,-0.86,0.88,-0.83,0.83,-0.12,1.68,1.71,1.72
100,0.98,-0.70,0.99,-0.68,0.68,-0.23,1.65,1.67,1.68
101,1.11,-0.53,1.11,-0.52,0.52,-0.33,1.63,1.63,1.64
102,1.23,-0.37,1.23,-0.36,0.36,-0.43,1.58,1.59,1.60
104,1.45,-0.08,1.35,-0.19,0.19,-0.63,1.64,1.54,1.53
105,1.55,0.06,1.47,-0.03,0.03,-0.72,1.58,1.50,1.49
106,1.65,0.19,1.59,0.12,-0.12,-0.81,1.52,1.46,1.45
107,1.75,0.33,1.70,0.27,-0.27,-0.90,1.47,1.43,1.42
108,1.84,0.45,1.80,0.42,-0.42,-0.99,1.42,1.39,1.38
109,1.92,0.57,1.90,0.55,-0.55,-1.07,1.37,1.35,1.35
110,2.00,0.68,1.99,0.67,-0.67,-1.15,1.33,1.32,1.32
111,2.06,0.78,2.07,0.79,-0.79,-1.23,1.27,1.28,1.28
112,2.14,0.89,2.14,0.90,-0.90,-1.30,1.24,1.24,1.25
113,2.18,0.96,2.21,1.00,-1.00,-1.38,1.18,1.21,1.22
114,2.25,1.06,2.27,1.10,-1.10,-1.44,1.15,1.17,1.19
115,2.31,1.15,2.34,1.19,-1.19,-1.51,1.11,1.14,1.15
117,2.41,1.31,2.39,1.29,-1.29,-1.62,1.12,1.11,1.09
118,2.46,1.39,2.45,1.38,-1.38,-1.68,1.08,1.07,1.06
119,2.50,1.46,2.51,1.47,-1.47,-1.73,1.03,1.04,1.04
120,2.55,1.54,2.56,1.56,-1.56,-1.77,0.99,1.00,1.01
121,2.59,1.61,2.61,1.64,-1.64,-1.81,0.95,0.97,0.98
123,2.67,1.74,2.66,1.72,-1.72,-1.89,0.95,0.94,0.93
124,2.70,1.80,2.70,1.80,-1.80,-1.92,0.90,0.90,0.90
125,2.73,1.85,2.74,1.87,-1.87,-1.95,0.86,0.87,0.87
126,2.77,1.92,2.78,1.93,-1.93,-1.97,0.83,0.84,0.85
128,2.81,2.01,2.80,1.99,-1.99,-2.01,0.82,0.81,0.80
129,2.83,2.05,2.82,2.04,-2.04,-2.02,0.79,0.78,0.78
130,2.86,2.10,2.83,2.08,-2.08,-2.03,0.78,0.75,0.75
131,2.86,2.13,2.83,2.11,-2.11,-2.04,0.75,0.72,0.73
133,2.86,2.17,2.83,2.13,-2.13,-2.05,0.72,0.69,0.69
134,2.86,2.19,2.81,2.15,-2.15,-2.06,0.71,0.67,0.67
135,2.84,2.19,2.79,2.15,-2.15,-2.05,0.69,0.64,0.65
137,2.79,2.18,2.76,2.15,-2.15,-2.05,0.64,0.61,0.61
138,2.75,2.16,2.72,2.14,-2.14,-2.04,0.61,0.58,0.59
140,2.66,2.11,2.69,2.13,-2.13,-2.03,0.53,0.56,0.55
141,2.62,2.09,2.65,2.11,-2.11,-2.02,0.50,0.53,0.53
142,2.59,2.07,2.61,2.10,-2.10,-2.00,0.49,0.51,0.51
144,2.53,2.05,2.57,2.09,-2.09,-1.98,0.44,0.48,0.48
145,2.51,2.04,2.54,2.08,-2.08,-1.97,0.43,0.46,0.46
147,2.47,2.03,2.51,2.08,-2.08,-1.94,0.39,0.44,0.43
148,2.47,2.05,2.49,2.08,-2.08,-1.92,0.39,0.41,0.42
150,2.47,2.08,2.47,2.08,-2.08,-1.89,0.39,0.39,0.39
151,2.47,2.09,2.46,2.09,-2.09,-1.88,0.38,0.37,0.37
153,2.47,2.12,2.45,2.10,-2.10,-1.84,0.37,0.35,0.35
154,2.47,2.13,2.44,2.11,-2.11,-1.83,0.35,0.33,0.33
156,2.47,2.16,2.44,2.13,-2.13,-1.80,0.34,0.31,0.31
157,2.47,2.17,2.44,2.15,-2.15,-1.78,0.32,0.29,0.30
159,2.44,2.17,2.45,2.17,-2.17,-1.75,0.26,0.27,0.27
160,2.44,2.18,2.45,2.20,-2.20,-1.74,0.24,0.26,0.26
162,2.45,2.21,2.46,2.22,-2.22,-1.71,0.23,0.24,0.24
164,2.47,2.25,2.47,2.24,-2.24,-1.69,0.22,0.22,0.22
165,2.47,2.26,2.48,2.27,-2.27,-1.68,0.20,0.20,0.21
167,2.47,2.28,2.49,2.30,-2.30,-1.66,0.17,0.19,0.19
169,2.51,2.34,2.50,2.33,-2.33,-1.64,0.18,0.17,0.17
170,2.51,2.35,2.52,2.36,-2.36,-1.63,0.15,0.16,0.16
172,2.52,2.37,2.53,2.39,-2.39,-1.61,0.13,0.14,0.14
174,2.55,2.42,2.55,2.42,-2.42,-1.59,0.13,0.13,0.13
175,2.55,2.43,2.56,2.45,-2.45,-1.59,0.10,0.11,0.12
177,2.60,2.49,2.57,2.47,-2.47,-1.57,0.12,0.10,0.10
179,2.60,2.51,2.59,2.50,-2.50,-1.56,0.10,0.09,0.09
181,2.60,2.52,2.59,2.52,-2.52,-1.55,0.08,0.07,0.07
183,2.60,2.54,2.60,2.54,-2.54,-1.55,0.06,0.06,0.06
184,2.61,2.55,2.60,2.55,-2.55,-1.54,0.05,0.05,0.05
186,2.62,2.58,2.60,2.56,-2.56,-1.54,0.06,0.04,0.04
188,2.60,2.57,2.59,2.57,-2.57,-1.54,0.03,0.03,0.03
190,2.60,2.58,2.58,2.57,-2.57,-1.54,0.03,0.01,0.01
192,2.60,2.59,2.57,2.56,-2.56,-1.54,0.03,0.00,0.00
194,2.55,2.56,2.55,2.55,-2.55,-1.54,-0.01,-0.01,-0.01
196,2.54,2.56,2.52,2.54,-2.54,-1.54,-0.01,-0.02,-0.02
198,2.51,2.54,2.50,2.53,-2.53,-1.54,-0.02,-0.03,-0.03
200,2.47,2.51,2.47,2.51,-2.51,-1.55,-0.05,-0.04,-0.04
202,2.42,2.47,2.45,2.50,-2.50,-1.55,-0.08,-0.05,-0.05
204,2.40,2.45,2.42,2.48,-2.48,-1.56,-0.08,-0.06,-0.06
206,2.38,2.44,2.39,2.46,-2.46,-1.56,-0.08,-0.07,-0.07
208,2.34,2.41,2.37,2.44,-2.44,-1.57,-0.11,-0.07,-0.07
210,2.34,2.42,2.34,2.42,-2.42,-1.57,-0.09,-0.08,-0.08
212,2.32,2.40,2.32,2.40,-2.40,-1.58,-0.09,-0.09,-0.09
214,2.29,2.38,2.29,2.38,-2.38,-1.58,-0.10,-0.09,-0.09
216,2.29,2.38,2.27,2.36,-2.36,-1.59,-0.08,-0.10,-0.10
218,2.25,2.35,2.24,2.34,-2.34,-1.59,-0.09,-0.10,-0.10
221,2.22,2.32,2.21,2.31,-2.31,-1.60,-0.10,-0.11,-0.11
223,2.19,2.30,2.18,2.29,-2.29,-1.60,-0.10,-0.11,-0.11
225,2.15,2.26,2.14,2.25,-2.25,-1.60,-0.11,-0.11,-0.11
227,2.12,2.23,2.11,2.22,-2.22,-1.61,-0.10,-0.11,-0.11
229,2.08,2.19,2.07,2.18,-2.18,-1.61,-0.10,-0.11,-0.11
232,2.01,2.12,2.02,2.13,-2.13,-1.60,-0.13,-0.11,-0.11
234,1.97,2.07,1.98,2.09,-2.09,-1.60,-0.12,-0.11,-0.11
236,1.94,2.04,1.93,2.03,-2.03,-1.59,-0.10,-0.10,-0.10
239,1.88,1.98,1.88,1.98,-1.98,-1.58,-0.10,-0.10,-0.10
241,1.84,1.93,1.82,1.92,-1.92,-1.58,-0.08,-0.10,-0.10
244,1.75,1.84,1.77,1.86,-1.86,-1.56,-0.11,-0.09,-0.09
246,1.71,1.79,1.71,1.79,-1.79,-1.55,-0.08,-0.08,-0.08
248,1.67,1.74,1.65,1.72,-1.72,-1.53,-0.05,-0.07,-0.07
251,1.58,1.64,1.58,1.65,-1.65,-1.51,-0.07,-0.07,-0.07
253,1.54,1.59,1.52,1.57,-1.57,-1.49,-0.03,-0.06,-0.06
256,1.46,1.50,1.45,1.49,-1.49,-1.46,-0.04,-0.05,-0.05
259,1.37,1.40,1.38,1.41,-1.41,-1.43,-0.04,-0.03,-0.03
261,1.31,1.33,1.30,1.33,-1.33,-1.40,-0.02,-0.02,-0.02
264,1.21,1.22,1.23,1.24,-1.24,-1.36,-0.03,-0.01,-0.01
266,1.17,1.16,1.15,1.15,-1.15,-1.33,0.02,0.00,0.01
269,1.07,1.05,1.08,1.06,-1.06,-1.29,0.01,0.02,0.02
272,0.99,0.95,1.00,0.97,-0.97,-1.25,0.02,0.03,0.03
274,0.93,0.88,0.92,0.87,-0.87,-1.21,0.05,0.05,0.05
277,0.84,0.77,0.84,0.78,-0.78,-1.17,0.06,0.07,0.07
280,0.78,0.70,0.76,0.68,-0.68,-1.11,0.10,0.08,0.08
283,0.67,0.57,0.68,0.58,-0.58,-1.06,0.09,0.10,0.10
286,0.60,0.48,0.60,0.48,-0.48,-1.01,0.12,0.12,0.12
288,0.53,0.39,0.51,0.38,-0.38,-0.97,0.15,0.13,0.13
291,0.42,0.26,0.43,0.28,-0.28,-0.92,0.14,0.15,0.15
294,0.36,0.18,0.34,0.17,-0.17,-0.86,0.19,0.17,0.17
297,0.25,0.06,0.26,0.07,-0.07,-0.81,0.18,0.19,0.19
300,0.16,-0.05,0.17,-0.04,0.04,-0.75,0.20,0.21,0.21
303,0.09,-0.14,0.08,-0.15,0.15,-0.69,0.24,0.23,0.23
306,-0.01,-0.26,-0.01,-0.26,0.26,-0.64,0.25,0.25,0.25
309,-0.12,-0.39,-0.10,-0.38,0.38,-0.58,0.25,0.27,0.27
312,-0.19,-0.49,-0.20,-0.49,0.49,-0.52,0.30,0.29,0.29
316,-0.30,-0.62,-0.30,-0.61,0.61,-0.45,0.31,0.31,0.31
319,-0.40,-0.74,-0.40,-0.74,0.74,-0.39,0.33,0.33,0.33
322,-0.50,-0.86,-0.51,-0.87,0.87,-0.33,0.36,0.35,0.35
325,-0.57,-0.95,-0.62,-1.00,1.00,-0.28,0.42,0.38,0.38
328,-0.67,-1.07,-0.74,-1.13,1.13,-0.22,0.46,0.40,0.40
332,-0.79,-1.21,-0.85,-1.27,1.27,-0.15,0.47,0.42,0.42
335,-0.89,-1.33,-0.96,-1.40,1.40,-0.09,0.50,0.44,0.44
338,-0.98,-1.44,-1.07,-1.52,1.52,-0.04,0.54,0.46,0.46
342,-1.14,-1.62,-1.16,-1.64,1.64,0.04,0.49,0.48,0.48
345,-1.24,-1.74,-1.24,-1.74,1.74,0.09,0.50,0.50,0.50
349,-1.36,-1.88,-1.31,-1.82,1.82,0.16,0.46,0.51,0.51
352,-1.42,-1.96,-1.35,-1.88,1.88,0.22,0.46,0.53,0.53
356,-1.51,-2.06,-1.37,-1.92,1.92,0.29,0.41,0.55,0.55
359,-1.55,-2.12,-1.37,-1.93,1.93,0.34,0.38,0.57,0.57
363,-1.50,-2.09,-1.34,-1.92,1.92,0.41,0.42,0.58,0.58
366,-1.43,-2.03,-1.29,-1.89,1.89,0.46,0.46,0.60,0.60
370,-1.28,-1.90,-1.22,-1.84,1.84,0.53,0.55,0.61,0.61
374,-1.11,-1.74,-1.14,-1.77,1.77,0.60,0.66,0.63,0.63
377,-0.99,-1.63,-1.06,-1.69,1.69,0.65,0.70,0.64,0.64
381,-0.84,-1.50,-0.96,-1.62,1.62,0.72,0.77,0.65,0.65
385,-0.73,-1.40,-0.88,-1.54,1.54,0.78,0.81,0.66,0.66
389,-0.66,-1.34,-0.79,-1.47,1.47,0.85,0.80,0.67,0.67
393,-0.61,-1.30,-0.72,-1.41,1.41,0.91,0.79,0.68,0.68
397,-0.61,-1.31,-0.66,-1.35,1.35,0.98,0.74,0.69,0.69
401,-0.59,-1.30,-0.61,-1.31,1.31,1.04,0.72,0.70,0.70
405,-0.57,-1.28,-0.58,-1.29,1.29,1.10,0.71,0.71,0.71
409,-0.57,-1.29,-0.55,-1.27,1.27,1.16,0.70,0.72,0.72
413,-0.57,-1.30,-0.53,-1.26,1.26,1.22,0.69,0.73,0.73
417,-0.57,-1.31,-0.52,-1.26,1.26,1.28,0.68,0.73,0.73
421,-0.54,-1.28,-0.52,-1.26,1.26,1.34,0.71,0.74,0.74
425,-0.52,-1.27,-0.51,-1.26,1.26,1.39,0.74,0.75,0.75
430,-0.52,-1.28,-0.51,-1.27,1.27,1.46,0.74,0.76,0.75
434,-0.52,-1.29,-0.51,-1.27,1.27,1.51,0.75,0.76,0.76
438,-0.52,-1.29,-0.51,-1.28,1.28,1.56,0.75,0.77,0.77
443,-0.49,-1.27,-0.50,-1.28,1.28,1.62,0.79,0.78,0.78
447,-0.48,-1.27,-0.50,-1.29,1.29,1.67,0.80,0.79,0.79
451,-0.48,-1.28,-0.49,-1.29,1.29,1.71,0.81,0.80,0.80
456,-0.48,-1.29,-0.49,-1.30,1.30,1.76,0.82,0.81,0.81
460,-0.48,-1.30,-0.49,-1.31,1.31,1.80,0.82,0.82,0.82
465,-0.48,-1.31,-0.48,-1.31,1.31,1.85,0.83,0.83,0.83
470,-0.48,-1.32,-0.48,-1.32,1.32,1.89,0.84,0.84,0.84
474,-0.48,-1.34,-0.48,-1.33,1.33,1.92,0.85,0.85,0.85
479,-0.48,-1.35,-0.47,-1.34,1.34,1.95,0.86,0.87,0.87
484,-0.48,-1.36,-0.47,-1.35,1.35,1.98,0.87,0.88,0.88
489,-0.46,-1.36,-0.47,-1.36,1.36,2.00,0.90,0.90,0.90
494,-0.46,-1.38,-0.46,-1.38,1.38,2.02,0.91,0.91,0.91
499,-0.45,-1.38,-0.46,-1.39,1.39,2.04,0.94,0.93,0.93
504,-0.44,-1.39,-0.46,-1.40,1.40,2.05,0.96,0.95,0.95
509,-0.44,-1.41,-0.45,-1.41,1.41,2.06,0.97,0.96,0.96
514,-0.44,-1.42,-0.44,-1.42,1.42,2.06,0.98,0.98,0.98
519,-0.44,-1.44,-0.43,-1.44,1.44,2.07,0.99,1.00,1.00
524,-0.44,-1.46,-0.43,-1.45,1.45,2.06,1.00,1.02,1.02
529,-0.41,-1.45,-0.41,-1.45,1.45,2.06,1.04,1.04,1.04
535,-0.39,-1.45,-0.40,-1.46,1.46,2.05,1.07,1.06,1.06
540,-0.39,-1.47,-0.39,-1.47,1.47,2.04,1.07,1.08,1.08
545,-0.39,-1.49,-0.37,-1.47,1.47,2.03,1.08,1.10,1.10
551,-0.35,-1.47,-0.36,-1.48,1.48,2.01,1.12,1.12,1.12
556,-0.35,-1.49,-0.34,-1.48,1.48,1.99,1.13,1.14,1.14
562,-0.31,-1.47,-0.32,-1.48,1.48,1.97,1.17,1.16,1.16
568,-0.30,-1.48,-0.30,-1.48,1.48,1.94,1.18,1.18,1.18
573,-0.26,-1.46,-0.28,-1.48,1.48,1.92,1.21,1.20,1.20
579,-0.26,-1.48,-0.26,-1.48,1.48,1.89,1.21,1.22,1.22
585,-0.22,-1.46,-0.24,-1.47,1.47,1.87,1.25,1.24,1.24
591,-0.22,-1.48,-0.22,-1.47,1.47,1.84,1.25,1.26,1.26
596,-0.18,-1.46,-0.20,-1.47,1.47,1.81,1.29,1.28,1.28
602,-0.18,-1.48,-0.18,-1.47,1.47,1.79,1.29,1.29,1.29
608,-0.16,-1.47,-0.16,-1.47,1.47,1.76,1.31,1.31,1.31
615,-0.13,-1.46,-0.14,-1.47,1.47,1.72,1.34,1.33,1.33
621,-0.13,-1.48,-0.13,-1.47,1.47,1.70,1.34,1.34,1.34
627,-0.10,-1.46,-0.11,-1.47,1.47,1.67,1.37,1.36,1.36
633,-0.09,-1.47,-0.10,-1.47,1.47,1.64,1.38,1.37,1.37
639,-0.09,-1.48,-0.09,-1.48,1.48,1.62,1.38,1.39,1.39
646,-0.09,-1.49,-0.08,-1.48,1.48,1.59,1.39,1.40,1.40
652,-0.06,-1.48,-0.07,-1.49,1.49,1.56,1.42,1.41,1.41
659,-0.05,-1.48,-0.07,-1.49,1.49,1.53,1.44,1.43,1.43
665,-0.05,-1.49,-0.06,-1.50,1.50,1.51,1.45,1.44,1.44
672,-0.05,-1.50,-0.06,-1.50,1.50,1.49,1.45,1.45,1.45
679,-0.05,-1.51,-0.05,-1.51,1.51,1.46,1.46,1.46,1.46
686,-0.05,-1.52,-0.05,-1.52,1.52,1.44,1.46,1.47,1.47
692,-0.05,-1.53,-0.04,-1.52,1.52,1.42,1.47,1.48,1.48
699,-0.05,-1.54,-0.04,-1.52,1.52,1.40,1.47,1.49,1.49
706,-0.04,-1.54,-0.03,-1.53,1.53,1.38,1.49,1.50,1.50
713,-0.01,-1.52,-0.02,-1.53,1.53,1.37,1.52,1.51,1.51
721,-0.00,-1.52,-0.02,-1.53,1.53,1.35,1.53,1.52,1.52
728,-0.00,-1.53,-0.01,-1.53,1.53,1.33,1.53,1.52,1.52
735,-0.00,-1.53,-0.00,-1.53,1.53,1.32,1.53,1.53,1.53
742,-0.00,-1.54,0.00,-1.53,1.53,1.31,1.53,1.54,1.54
750,-0.00,-1.55,0.01,-1.53,1.53,1.29,1.53,1.55,1.55
757,0.04,-1.51,0.02,-1.53,1.53,1.28,1.57,1.55,1.55
765,0.04,-1.52,0.03,-1.53,1.53,1.27,1.57,1.56,1.56
773,0.04,-1.53,0.04,-1.53,1.53,1.27,1.56,1.56,1.56
780,0.04,-1.53,0.05,-1.52,1.52,1.26,1.56,1.57,1.57
788,0.04,-1.54,0.06,-1.52,1.52,1.25,1.55,1.57,1.57
796,0.08,-1.50,0.07,-1.51,1.51,1.24,1.59,1.58,1.58
804,0.08,-1.51,0.08,-1.50,1.50,1.24,1.58,1.58,1.58
812,0.08,-1.51,0.09,-1.50,1.50,1.24,1.57,1.59,1.59
820,0.08,-1.51,0.10,-1.49,1.49,1.23,1.56,1.59,1.59
828,0.13,-1.47,0.11,-1.48,1.48,1.23,1.61,1.59,1.59
837,0.13,-1.47,0.13,-1.47,1.47,1.23,1.60,1.59,1.60
845,0.13,-1.47,0.14,-1.46,1.46,1.22,1.59,1.60,1.60
853,0.16,-1.44,0.15,-1.45,1.45,1.22,1.61,1.60,1.60
862,0.17,-1.44,0.16,-1.45,1.45,1.22,1.61,1.60,1.60
871,0.17,-1.44,0.17,-1.44,1.44,1.22,1.61,1.61,1.61
879,0.17,-1.44,0.17,-1.44,1.44,1.22,1.61,1.61,1.61
888,0.17,-1.45,0.17,-1.44,1.44,1.22,1.61,1.62,1.62
897,0.17,-1.45,0.17,-1.45,1.45,1.22,1.62,1.62,1.62
906,0.17,-1.46,0.16,-1.46,1.46,1.22,1.63,1.63,1.63
915,0.17,-1.46,0.15,-1.48,1.48,1.21,1.65,1.63,1.63
924,0.17,-1.47,0.13,-1.51,1.51,1.21,1.67,1.64,1.64
933,0.17,-1.48,0.12,-1.53,1.53,1.21,1.70,1.65,1.65
943,0.13,-1.53,0.09,-1.56,1.56,1.21,1.69,1.66,1.66
952,0.13,-1.54,0.07,-1.59,1.59,1.21,1.72,1.67,1.67
962,0.08,-1.60,0.06,-1.62,1.62,1.20,1.70,1.68,1.68
971,0.07,-1.63,0.04,-1.65,1.65,1.20,1.72,1.69,1.69
981,0.04,-1.67,0.04,-1.67,1.67,1.20,1.70,1.71,1.71
991,0.03,-1.70,0.05,-1.68,1.68,1.19,1.71,1.72,1.72
1001,-0.00,-1.74,0.07,-1.68,1.68,1.18,1.67,1.74,1.74
1011,-0.00,-1.76,0.10,-1.66,1.66,1.18,1.66,1.76,1.76
1021,0.05,-1.73,0.15,-1.63,1.63,1.17,1.68,1.78,1.78
1031,0.12,-1.69,0.21,-1.59,1.59,1.16,1.71,1.80,1.80
1041,0.22,-1.61,0.29,-1.54,1.54,1.16,1.75,1.83,1.83
1052,0.36,-1.50,0.38,-1.47,1.47,1.15,1.83,1.85,1.85
1062,0.49,-1.39,0.48,-1.40,1.40,1.14,1.88,1.88,1.88
1073,0.65,-1.26,0.59,-1.32,1.32,1.12,1.96,1.91,1.91
1084,0.78,-1.16,0.70,-1.23,1.23,1.11,2.01,1.94,1.94
1094,0.88,-1.09,0.82,-1.15,1.15,1.10,2.03,1.97,1.97
1105,0.99,-1.01,0.93,-1.07,1.07,1.09,2.06,2.00,2.00
1116,1.07,-0.97,1.04,-0.99,0.99,1.08,2.06,2.03,2.03
1128,1.18,-0.89,1.15,-0.92,0.92,1.07,2.10,2.07,2.07
1139,1.27,-0.84,1.25,-0.86,0.86,1.05,2.12,2.10,2.10
1150,1.34,-0.81,1.35,-0.80,0.80,1.04,2.13,2.14,2.14
1162,1.44,-0.74,1.44,-0.74,0.74,1.03,2.18,2.18,2.18
1173,1.53,-0.70,1.53,-0.69,0.69,1.02,2.22,2.22,2.22
1185,1.60,-0.67,1.62,-0.65,0.65,1.00,2.24,2.27,2.27
1197,1.71,-0.60,1.71,-0.60,0.60,0.99,2.31,2.31,2.31
1209,1.79,-0.57,1.80,-0.56,0.56,0.98,2.35,2.36,2.36
1221,1.87,-0.54,1.89,-0.52,0.52,0.97,2.38,2.41,2.41
1233,1.97,-0.49,1.98,-0.47,0.47,0.95,2.44,2.46,2.46
1246,2.08,-0.43,2.08,-0.43,0.43,0.94,2.51,2.51,2.51
1258,2.16,-0.40,2.17,-0.39,0.39,0.93,2.55,2.56,2.56
1271,2.26,-0.36,2.26,-0.35,0.35,0.92,2.61,2.62,2.62
1283,2.36,-0.32,2.36,-0.31,0.31,0.91,2.67,2.67,2.67
1296,2.44,-0.30,2.45,-0.28,0.28,0.90,2.72,2.73,2.73
1309,2.55,-0.25,2.55,-0.25,0.25,0.89,2.79,2.79,2.79
1322,2.64,-0.22,2.63,-0.22,0.22,0.88,2.86,2.85,2.85
1335,2.72,-0.20,2.72,-0.20,0.20,0.88,2.92,2.92,2.92
1349,2.82,-0.17,2.80,-0.18,0.18,0.87,3.00,2.98,2.98
1362,2.89,-0.16,2.87,-0.18,0.18,0.86,3.06,3.05,3.05
1376,2.96,-0.16,2.94,-0.18,0.18,0.86,3.13,3.11,3.12
1390,3.03,-0.16,3.00,-0.19,0.19,0.85,3.21,3.18,3.18
1404,3.09,-0.17,3.05,-0.20,0.20,0.85,3.29,3.25,3.25
1418,3.14,-0.19,3.10,-0.23,0.23,0.84,3.36,3.32,3.32
1432,3.16,-0.24,3.14,-0.26,0.26,0.84,3.41,3.39,3.40
1446,3.20,-0.27,3.17,-0.29,0.29,0.84,3.49,3.47,3.47
1461,3.21,-0.34,3.21,-0.33,0.33,0.84,3.54,3.54,3.54
1475,3.25,-0.37,3.25,-0.37,0.37,0.84,3.62,3.62,3.62
1490,3.26,-0.44,3.29,-0.41,0.41,0.84,3.67,3.69,3.70
1505,3.31,-0.47,3.33,-0.44,0.44,0.84,3.75,3.77,3.77
1520,3.35,-0.51,3.38,-0.48,0.48,0.84,3.82,3.85,3.85
1535,3.40,-0.54,3.43,-0.50,0.50,0.84,3.90,3.94,3.94
1550,3.45,-0.57,3.50,-0.52,0.52,0.84,3.97,4.02,4.02
1566,3.54,-0.57,3.57,-0.54,0.54,0.84,4.07,4.11,4.11
1582,3.62,-0.58,3.65,-0.55,0.55,0.84,4.16,4.19,4.19
1597,3.72,-0.57,3.74,-0.55,0.55,0.85,4.27,4.29,4.28
1613,3.82,-0.56,3.83,-0.55,0.55,0.85,4.37,4.38,4.38
1629,3.93,-0.55,3.93,-0.55,0.55,0.86,4.47,4.47,4.47
1646,4.03,-0.54,4.03,-0.55,0.55,0.86,4.57,4.57,4.57
1662,4.13,-0.54,4.13,-0.55,0.55,0.86,4.67,4.67,4.67
1679,4.26,-0.52,4.23,-0.55,0.55,0.87,4.81,4.78,4.77
1696,4.36,-0.52,4.32,-0.56,0.56,0.88,4.92,4.88,4.88
1713,4.46,-0.53,4.41,-0.58,0.58,0.88,5.04,4.99,4.99
1730,4.53,-0.57,4.50,-0.61,0.61,0.89,5.13,5.10,5.10
1747,4.63,-0.59,4.58,-0.64,0.64,0.89,5.27,5.22,5.21
1764,4.68,-0.65,4.65,-0.68,0.68,0.90,5.36,5.33,5.33
1782,4.74,-0.71,4.72,-0.73,0.73,0.90,5.46,5.45,5.45
1800,4.79,-0.78,4.79,-0.78,0.78,0.91,5.57,5.57,5.57
1818,4.84,-0.85,4.85,-0.84,0.84,0.91,5.67,5.69,5.69
1836,4.91,-0.90,4.92,-0.89,0.89,0.92,5.80,5.81,5.81
1854,4.96,-0.98,4.98,-0.95,0.95,0.92,5.91,5.93,5.93
1873,5.01,-1.05,5.05,-1.01,1.01,0.93,6.02,6.06,6.06
1892,5.11,-1.08,5.12,-1.07,1.07,0.93,6.17,6.18,6.18
1911,5.17,-1.14,5.19,-1.12,1.12,0.93,6.28,6.31,6.31
1930,5.27,-1.17,5.27,-1.16,1.16,0.93,6.43,6.43,6.43
1949,5.35,-1.21,5.35,-1.21,1.21,0.94,6.55,6.56,6.56
1969,5.44,-1.24,5.44,-1.24,1.24,0.94,6.68,6.68,6.68
