frequency,raw,error,smoothed,error_smoothed,equalization,parametric_eq,equalized_raw,equalized_smoothed,target
20,-3.16,-4.81,-3.15,-4.80,4.80,4.56,1.63,1.65,1.65
21,-2.84,-4.49,-2.84,-4.49,4.49,4.37,1.65,1.65,1.65
22,-2.54,-4.19,-2.56,-4.21,4.21,4.18,1.66,1.65,1.65
23,-2.26,-3.91,-2.29,-3.94,3.94,3.99,1.68,1.65,1.65
24,-2.07,-3.72,-2.04,-3.69,3.69,3.80,1.62,1.65,1.65
25,-1.78,-3.43,-1.81,-3.46,3.46,3.61,1.68,1.65,1.65
26,-1.59,-3.23,-1.60,-3.25,3.25,3.43,1.66,1.65,1.65
27,-1.39,-3.04,-1.41,-3.06,3.06,3.25,1.67,1.65,1.65
28,-1.30,-2.95,-1.23,-2.88,2.88,3.08,1.58,1.65,1.65
29,-1.10,-2.75,-1.07,-2.72,2.72,2.91,1.61,1.65,1.65
30,-0.91,-2.56,-0.92,-2.57,2.57,2.75,1.65,1.65,1.65
31,-0.72,-2.37,-0.78,-2.43,2.43,2.60,1.71,1.65,1.65
32,-0.66,-2.30,-0.65,-2.30,2.30,2.46,1.64,1.65,1.65
33,-0.53,-2.17,-0.53,-2.17,2.17,2.33,1.65,1.65,1.65
34,-0.43,-2.08,-0.42,-2.06,2.06,2.20,1.63,1.65,1.65
35,-0.33,-1.98,-0.32,-1.96,1.96,2.08,1.63,1.65,1.65
36,-0.24,-1.88,-0.22,-1.87,1.87,1.97,1.63,1.65,1.65
37,-0.14,-1.79,-0.14,-1.78,1.78,1.87,1.64,1.64,1.64
38,-0.04,-1.69,-0.06,-1.71,1.71,1.77,1.66,1.64,1.64
39,0.05,-1.59,0.01,-1.64,1.64,1.68,1.69,1.64,1.64
40,0.05,-1.59,0.06,-1.58,1.58,1.60,1.63,1.64,1.64
41,0.05,-1.59,0.11,-1.53,1.53,1.53,1.58,1.64,1.64
42,0.15,-1.49,0.16,-1.48,1.48,1.46,1.64,1.64,1.64
43,0.24,-1.39,0.19,-1.45,1.45,1.40,1.69,1.64,1.64
44,0.24,-1.39,0.22,-1.42,1.42,1.35,1.67,1.64,1.64
45,0.24,-1.39,0.24,-1.40,1.40,1.31,1.64,1.64,1.64
46,0.24,-1.39,0.26,-1.38,1.38,1.27,1.62,1.64,1.64
47,0.24,-1.39,0.27,-1.36,1.36,1.24,1.61,1.63,1.63
48,0.24,-1.39,0.29,-1.34,1.34,1.22,1.59,1.63,1.63
49,0.34,-1.29,0.31,-1.32,1.32,1.20,1.66,1.63,1.63
50,0.34,-1.28,0.33,-1.30,1.30,1.18,1.64,1.63,1.63
51,0.34,-1.28,0.36,-1.27,1.27,1.17,1.61,1.62,1.62
52,0.36,-1.26,0.39,-1.23,1.23,1.17,1.59,1.62,1.62
53,0.44,-1.17,0.42,-1.20,1.20,1.17,1.64,1.62,1.62
54,0.44,-1.17,0.45,-1.16,1.16,1.18,1.60,1.61,1.61
55,0.44,-1.17,0.48,-1.13,1.13,1.18,1.57,1.61,1.61
56,0.53,-1.07,0.50,-1.10,1.10,1.19,1.63,1.60,1.60
57,0.53,-1.06,0.52,-1.07,1.07,1.20,1.61,1.60,1.60
58,0.53,-1.06,0.53,-1.06,1.06,1.21,1.59,1.59,1.59
59,0.53,-1.05,0.53,-1.05,1.05,1.22,1.58,1.58,1.58
60,0.61,-0.97,0.52,-1.05,1.05,1.23,1.66,1.58,1.58
61,0.56,-1.01,0.51,-1.06,1.06,1.24,1.62,1.57,1.57
62,0.44,-1.12,0.49,-1.07,1.07,1.25,1.51,1.56,1.56
63,0.44,-1.11,0.47,-1.08,1.08,1.25,1.52,1.55,1.55
64,0.42,-1.12,0.45,-1.09,1.09,1.25,1.51,1.54,1.54
65,0.36,-1.17,0.43,-1.10,1.10,1.24,1.46,1.53,1.53
66,0.44,-1.08,0.42,-1.09,1.09,1.23,1.53,1.51,1.51
67,0.44,-1.06,0.41,-1.09,1.09,1.22,1.52,1.50,1.50
68,0.44,-1.05,0.41,-1.07,1.07,1.19,1.51,1.49,1.49
69,0.44,-1.03,0.42,-1.06,1.06,1.16,1.49,1.47,1.47
70,0.44,-1.02,0.42,-1.03,1.03,1.13,1.47,1.45,1.45
71,0.44,-1.00,0.43,-1.00,1.00,1.08,1.44,1.44,1.44
72,0.44,-0.98,0.45,-0.97,0.97,1.04,1.41,1.42,1.42
73,0.44,-0.96,0.47,-0.92,0.92,0.98,1.36,1.40,1.40
74,0.44,-0.94,0.50,-0.87,0.87,0.92,1.31,1.37,1.37
75,0.53,-0.81,0.54,-0.81,0.81,0.85,1.34,1.35,1.35
76,0.62,-0.70,0.59,-0.73,0.73,0.78,1.36,1.32,1.32
77,0.65,-0.65,0.65,-0.65,0.65,0.70,1.30,1.30,1.30
78,0.73,-0.54,0.71,-0.56,0.56,0.62,1.29,1.27,1.27
79,0.82,-0.42,0.77,-0.47,0.47,0.54,1.29,1.24,1.24
80,0.82,-0.38,0.83,-0.38,0.38,0.45,1.20,1.21,1.21
81,0.82,-0.35,0.89,-0.28,0.28,0.37,1.11,1.17,1.17
82,0.91,-0.23,0.95,-0.19,0.19,0.28,1.10,1.14,1.14
83,0.97,-0.13,0.99,-0.11,0.11,0.18,1.08,1.10,1.10
84,1.13,0.07,1.03,-0.03,0.03,0.09,1.16,1.06,1.06
85,1.12,0.10,1.06,0.04,-0.04,-0.00,1.08,1.02,1.02
86,1.11,0.13,1.09,0.11,-0.11,-0.10,1.01,0.98,0.98
87,1.11,0.18,1.11,0.17,-0.17,-0.19,0.94,0.94,0.94
88,1.11,0.22,1.12,0.23,-0.23,-0.28,0.88,0.89,0.89
89,1.12,0.27,1.14,0.30,-0.30,-0.37,0.81,0.84,0.84
90,1.10,0.31,1.17,0.38,-0.38,-0.46,0.73,0.79,0.80
91,1.10,0.35,1.21,0.46,-0.46,-0.55,0.64,0.74,0.74
92,1.33,0.63,1.25,0.56,-0.56,-0.64,0.77,0.69,0.69
93,1.32,0.68,1.30,0.66,-0.66,-0.72,0.66,0.64,0.64
94,1.29,0.71,1.35,0.77,-0.77,-0.81,0.53,0.59,0.58
95,1.44,0.91,1.40,0.87,-0.87,-0.89,0.57,0.53,0.53
96,1.52,1.05,1.45,0.97,-0.97,-0.97,0.55,0.47,0.47
97,1.49,1.08,1.48,1.07,-1.07,-1.05,0.43,0.41,0.41
98,1.47,1.12,1.51,1.15,-1.15,-1.13,0.31,0.35,0.35
99,1.53,1.24,1.53,1.24,-1.24,-1.20,0.30,0.29,0.29
100,1.56,1.33,1.54,1.31,-1.31,-1.28,0.24,0.22,0.23
101,1.54,1.37,1.54,1.39,-1.39,-1.35,0.15,0.15,0.17
102,1.52,1.41,1.54,1.46,-1.46,-1.42,0.06,0.08,0.11
104,1.50,1.51,1.54,1.53,-1.53,-1.55,-0.03,0.01,-0.01
105,1.54,1.62,1.53,1.59,-1.59,-1.61,-0.05,-0.06,-0.08
106,1.57,1.70,1.52,1.65,-1.65,-1.67,-0.08,-0.13,-0.14
107,1.53,1.73,1.51,1.70,-1.70,-1.73,-0.17,-0.20,-0.20
108,1.50,1.76,1.49,1.75,-1.75,-1.79,-0.25,-0.26,-0.26
109,1.48,1.80,1.48,1.80,-1.80,-1.85,-0.32,-0.32,-0.32
110,1.46,1.84,1.47,1.85,-1.85,-1.90,-0.39,-0.38,-0.38
111,1.42,1.86,1.47,1.91,-1.91,-1.96,-0.48,-0.44,-0.44
112,1.41,1.90,1.47,1.96,-1.96,-2.01,-0.55,-0.50,-0.49
113,1.49,2.04,1.47,2.03,-2.03,-2.06,-0.53,-0.56,-0.55
114,1.51,2.11,1.48,2.10,-2.10,-2.10,-0.58,-0.61,-0.60
115,1.51,2.16,1.49,2.17,-2.17,-2.15,-0.66,-0.67,-0.65
117,1.51,2.27,1.50,2.24,-2.24,-2.24,-0.73,-0.73,-0.76
118,1.51,2.32,1.51,2.31,-2.31,-2.28,-0.79,-0.79,-0.81
119,1.52,2.37,1.52,2.37,-2.37,-2.33,-0.85,-0.85,-0.85
120,1.53,2.43,1.53,2.44,-2.44,-2.37,-0.91,-0.91,-0.90
121,1.53,2.48,1.54,2.50,-2.50,-2.40,-0.97,-0.96,-0.94
123,1.54,2.57,1.54,2.56,-2.56,-2.48,-1.02,-1.01,-1.03
124,1.55,2.62,1.55,2.61,-2.61,-2.51,-1.06,-1.06,-1.07
125,1.56,2.66,1.56,2.67,-2.67,-2.55,-1.11,-1.11,-1.11
126,1.56,2.71,1.56,2.72,-2.72,-2.58,-1.16,-1.16,-1.14
128,1.57,2.79,1.57,2.77,-2.77,-2.65,-1.20,-1.20,-1.22
129,1.58,2.83,1.58,2.82,-2.82,-2.68,-1.24,-1.24,-1.25
130,1.58,2.86,1.58,2.87,-2.87,-2.71,-1.28,-1.28,-1.28
131,1.59,2.90,1.59,2.91,-2.91,-2.74,-1.32,-1.32,-1.31
133,1.59,2.97,1.59,2.95,-2.95,-2.79,-1.36,-1.36,-1.37
134,1.60,3.00,1.60,3.00,-3.00,-2.82,-1.40,-1.40,-1.40
135,1.60,3.02,1.60,3.04,-3.04,-2.84,-1.44,-1.44,-1.42
137,1.60,3.08,1.60,3.07,-3.07,-2.89,-1.47,-1.47,-1.48
138,1.61,3.11,1.61,3.11,-3.11,-2.91,-1.50,-1.51,-1.50
140,1.61,3.16,1.61,3.15,-3.15,-2.96,-1.54,-1.54,-1.55
141,1.61,3.18,1.61,3.18,-3.18,-2.98,-1.57,-1.57,-1.57
142,1.61,3.20,1.61,3.21,-3.21,-3.00,-1.60,-1.60,-1.59
144,1.61,3.24,1.61,3.24,-3.24,-3.04,-1.63,-1.63,-1.63
145,1.61,3.26,1.61,3.27,-3.27,-3.06,-1.66,-1.66,-1.65
147,1.61,3.30,1.62,3.30,-3.30,-3.10,-1.69,-1.69,-1.69
148,1.61,3.32,1.62,3.33,-3.33,-3.11,-1.72,-1.71,-1.71
150,1.61,3.35,1.62,3.36,-3.36,-3.15,-1.75,-1.74,-1.74
151,1.61,3.37,1.62,3.38,-3.38,-3.16,-1.77,-1.76,-1.76
153,1.61,3.40,1.61,3.40,-3.40,-3.19,-1.79,-1.78,-1.79
154,1.61,3.41,1.60,3.40,-3.40,-3.21,-1.79,-1.81,-1.80
156,1.61,3.44,1.58,3.41,-3.41,-3.23,-1.80,-1.83,-1.83
157,1.61,3.45,1.55,3.40,-3.40,-3.25,-1.79,-1.85,-1.84
159,1.50,3.36,1.52,3.39,-3.39,-3.27,-1.89,-1.87,-1.87
160,1.50,3.37,1.49,3.37,-3.37,-3.28,-1.88,-1.88,-1.88
162,1.48,3.38,1.46,3.36,-3.36,-3.31,-1.87,-1.90,-1.90
164,1.42,3.34,1.43,3.35,-3.35,-3.33,-1.93,-1.92,-1.92
165,1.36,3.29,1.41,3.34,-3.34,-3.34,-1.98,-1.93,-1.93
167,1.29,3.24,1.41,3.35,-3.35,-3.36,-2.06,-1.94,-1.94
169,1.39,3.35,1.41,3.36,-3.36,-3.38,-1.97,-1.95,-1.96
170,1.48,3.44,1.42,3.38,-3.38,-3.38,-1.90,-1.96,-1.96
172,1.50,3.48,1.43,3.41,-3.41,-3.40,-1.90,-1.97,-1.97
174,1.48,3.46,1.45,3.43,-3.43,-3.42,-1.95,-1.98,-1.98
175,1.47,3.46,1.47,3.46,-3.46,-3.42,-1.98,-1.99,-1.98
177,1.45,3.44,1.49,3.48,-3.48,-3.44,-2.03,-1.99,-1.99
179,1.45,3.44,1.51,3.51,-3.51,-3.45,-2.06,-1.99,-1.99
181,1.57,3.57,1.54,3.53,-3.53,-3.46,-1.96,-2.00,-2.00
183,1.57,3.57,1.56,3.55,-3.55,-3.47,-1.98,-2.00,-2.00
184,1.58,3.58,1.58,3.58,-3.58,-3.48,-1.99,-2.00,-2.00
186,1.60,3.59,1.60,3.60,-3.60,-3.49,-2.00,-2.00,-2.00
188,1.61,3.61,1.62,3.61,-3.61,-3.50,-2.00,-1.99,-1.99
190,1.63,3.62,1.63,3.62,-3.62,-3.50,-2.00,-1.99,-1.99
192,1.64,3.63,1.64,3.63,-3.63,-3.51,-1.99,-1.99,-1.99
194,1.66,3.65,1.65,3.63,-3.63,-3.52,-1.98,-1.99,-1.99
196,1.67,3.66,1.65,3.63,-3.63,-3.52,-1.96,-1.98,-1.98
198,1.68,3.66,1.64,3.62,-3.62,-3.53,-1.94,-1.98,-1.98
200,1.62,3.60,1.64,3.61,-3.61,-3.54,-1.99,-1.98,-1.98
202,1.59,3.56,1.63,3.60,-3.60,-3.54,-2.02,-1.97,-1.97
204,1.61,3.58,1.62,3.59,-3.59,-3.54,-1.98,-1.97,-1.97
206,1.61,3.58,1.61,3.58,-3.58,-3.55,-1.97,-1.97,-1.97
208,1.61,3.57,1.61,3.57,-3.57,-3.55,-1.96,-1.96,-1.96
210,1.61,3.57,1.60,3.56,-3.56,-3.55,-1.95,-1.96,-1.96
212,1.61,3.56,1.60,3.56,-3.56,-3.55,-1.95,-1.95,-1.95
214,1.60,3.55,1.60,3.55,-3.55,-3.55,-1.95,-1.95,-1.95
216,1.60,3.55,1.60,3.55,-3.55,-3.55,-1.95,-1.95,-1.95
218,1.60,3.54,1.60,3.54,-3.54,-3.55,-1.94,-1.94,-1.94
221,1.59,3.53,1.60,3.54,-3.54,-3.55,-1.94,-1.94,-1.94
223,1.59,3.52,1.60,3.53,-3.53,-3.55,-1.94,-1.93,-1.93
225,1.59,3.52,1.60,3.52,-3.52,-3.55,-1.94,-1.93,-1.93
227,1.59,3.51,1.60,3.52,-3.52,-3.55,-1.93,-1.92,-1.92
229,1.59,3.51,1.59,3.51,-3.51,-3.55,-1.92,-1.92,-1.92
232,1.61,3.52,1.59,3.50,-3.50,-3.54,-1.89,-1.91,-1.91
234,1.63,3.53,1.59,3.49,-3.49,-3.54,-1.86,-1.90,-1.90
236,1.61,3.50,1.59,3.48,-3.48,-3.54,-1.87,-1.89,-1.89
239,1.54,3.43,1.59,3.47,-3.47,-3.53,-1.93,-1.88,-1.89
241,1.56,3.44,1.59,3.47,-3.47,-3.53,-1.90,-1.88,-1.88
244,1.58,3.45,1.60,3.46,-3.46,-3.52,-1.88,-1.87,-1.87
246,1.60,3.46,1.61,3.46,-3.46,-3.52,-1.86,-1.86,-1.86
248,1.62,3.47,1.62,3.47,-3.47,-3.51,-1.85,-1.85,-1.85
251,1.64,3.48,1.64,3.47,-3.47,-3.51,-1.83,-1.84,-1.84
253,1.66,3.48,1.66,3.48,-3.48,-3.50,-1.82,-1.83,-1.83
256,1.67,3.48,1.67,3.48,-3.48,-3.49,-1.81,-1.81,-1.81
259,1.68,3.48,1.68,3.48,-3.48,-3.48,-1.80,-1.80,-1.80
261,1.68,3.48,1.68,3.47,-3.47,-3.48,-1.79,-1.79,-1.79
264,1.68,3.47,1.67,3.45,-3.45,-3.47,-1.77,-1.78,-1.78
266,1.68,3.46,1.65,3.43,-3.43,-3.46,-1.74,-1.77,-1.77
269,1.68,3.44,1.63,3.39,-3.39,-3.45,-1.71,-1.76,-1.76
272,1.60,3.35,1.60,3.35,-3.35,-3.44,-1.76,-1.75,-1.75
274,1.58,3.32,1.57,3.31,-3.31,-3.43,-1.74,-1.75,-1.74
277,1.48,3.21,1.54,3.27,-3.27,-3.42,-1.80,-1.74,-1.74
280,1.48,3.21,1.51,3.24,-3.24,-3.41,-1.76,-1.73,-1.73
283,1.48,3.20,1.50,3.22,-3.22,-3.40,-1.74,-1.72,-1.72
286,1.49,3.20,1.49,3.20,-3.20,-3.38,-1.72,-1.71,-1.71
288,1.49,3.20,1.50,3.20,-3.20,-3.38,-1.70,-1.70,-1.70
291,1.51,3.20,1.50,3.20,-3.20,-3.36,-1.69,-1.69,-1.69
294,1.52,3.20,1.51,3.20,-3.20,-3.35,-1.68,-1.69,-1.69
297,1.53,3.21,1.53,3.20,-3.20,-3.34,-1.67,-1.68,-1.68
300,1.54,3.21,1.53,3.21,-3.21,-3.32,-1.66,-1.67,-1.67
303,1.55,3.22,1.54,3.20,-3.20,-3.31,-1.65,-1.66,-1.66
306,1.57,3.23,1.54,3.20,-3.20,-3.30,-1.63,-1.66,-1.66
309,1.57,3.22,1.54,3.19,-3.19,-3.28,-1.61,-1.65,-1.65
312,1.49,3.14,1.53,3.17,-3.17,-3.27,-1.68,-1.64,-1.64
316,1.49,3.12,1.52,3.16,-3.16,-3.25,-1.67,-1.64,-1.64
319,1.49,3.12,1.51,3.14,-3.14,-3.23,-1.65,-1.63,-1.63
322,1.49,3.11,1.50,3.13,-3.13,-3.22,-1.63,-1.62,-1.62
325,1.49,3.11,1.49,3.11,-3.11,-3.20,-1.62,-1.62,-1.62
328,1.49,3.10,1.47,3.08,-3.08,-3.19,-1.60,-1.61,-1.61
332,1.49,3.09,1.45,3.06,-3.06,-3.17,-1.57,-1.61,-1.61
335,1.48,3.09,1.43,3.03,-3.03,-3.15,-1.54,-1.60,-1.60
338,1.41,3.01,1.40,2.99,-2.99,-3.13,-1.58,-1.60,-1.60
342,1.35,2.94,1.37,2.96,-2.96,-3.11,-1.61,-1.59,-1.59
345,1.29,2.87,1.34,2.93,-2.93,-3.10,-1.64,-1.59,-1.59
349,1.29,2.87,1.32,2.90,-2.90,-3.07,-1.62,-1.58,-1.58
352,1.29,2.87,1.31,2.88,-2.88,-3.06,-1.60,-1.58,-1.58
356,1.29,2.87,1.30,2.87,-2.87,-3.04,-1.58,-1.58,-1.58
359,1.30,2.87,1.29,2.86,-2.86,-3.02,-1.57,-1.57,-1.57
363,1.30,2.87,1.29,2.86,-2.86,-3.00,-1.56,-1.57,-1.57
366,1.31,2.88,1.29,2.85,-2.85,-2.98,-1.55,-1.57,-1.57
370,1.32,2.88,1.28,2.85,-2.85,-2.96,-1.53,-1.57,-1.57
374,1.27,2.84,1.28,2.84,-2.84,-2.94,-1.57,-1.56,-1.56
377,1.23,2.79,1.27,2.83,-2.83,-2.92,-1.60,-1.56,-1.56
381,1.24,2.80,1.26,2.82,-2.82,-2.90,-1.58,-1.56,-1.56
385,1.25,2.80,1.25,2.80,-2.80,-2.87,-1.55,-1.55,-1.55
389,1.25,2.80,1.23,2.78,-2.78,-2.85,-1.52,-1.55,-1.55
393,1.26,2.80,1.21,2.75,-2.75,-2.83,-1.49,-1.54,-1.54
397,1.21,2.74,1.18,2.71,-2.71,-2.80,-1.50,-1.53,-1.53
401,1.16,2.68,1.15,2.67,-2.67,-2.78,-1.51,-1.52,-1.52
405,1.08,2.59,1.12,2.63,-2.63,-2.76,-1.55,-1.51,-1.51
409,1.06,2.56,1.10,2.59,-2.59,-2.74,-1.53,-1.49,-1.50
413,1.06,2.53,1.08,2.55,-2.55,-2.71,-1.50,-1.48,-1.48
417,1.05,2.51,1.06,2.52,-2.52,-2.69,-1.46,-1.46,-1.46
421,1.06,2.49,1.05,2.48,-2.48,-2.67,-1.43,-1.43,-1.44
425,1.06,2.47,1.05,2.45,-2.45,-2.64,-1.39,-1.41,-1.41
430,1.07,2.45,1.05,2.43,-2.43,-2.61,-1.36,-1.38,-1.38
434,1.08,2.43,1.06,2.41,-2.41,-2.59,-1.33,-1.35,-1.35
438,1.02,2.34,1.07,2.39,-2.39,-2.57,-1.36,-1.31,-1.32
443,1.06,2.34,1.09,2.37,-2.37,-2.54,-1.31,-1.28,-1.28
447,1.11,2.35,1.11,2.35,-2.35,-2.52,-1.25,-1.24,-1.24
451,1.16,2.36,1.14,2.34,-2.34,-2.49,-1.18,-1.20,-1.20
456,1.20,2.36,1.17,2.33,-2.33,-2.46,-1.13,-1.16,-1.16
460,1.18,2.30,1.20,2.32,-2.32,-2.44,-1.13,-1.12,-1.12
465,1.24,2.32,1.23,2.31,-2.31,-2.41,-1.06,-1.08,-1.08
470,1.26,2.29,1.26,2.30,-2.30,-2.38,-1.04,-1.04,-1.03
474,1.26,2.26,1.29,2.29,-2.29,-2.36,-1.02,-1.00,-1.00
479,1.32,2.28,1.32,2.28,-2.28,-2.33,-0.96,-0.96,-0.96
484,1.36,2.29,1.35,2.27,-2.27,-2.30,-0.91,-0.92,-0.92
489,1.40,2.30,1.37,2.26,-2.26,-2.28,-0.86,-0.89,-0.89
494,1.39,2.25,1.39,2.25,-2.25,-2.25,-0.87,-0.87,-0.86
499,1.37,2.21,1.40,2.24,-2.24,-2.22,-0.87,-0.84,-0.84
504,1.40,2.22,1.41,2.23,-2.23,-2.19,-0.84,-0.82,-0.82
509,1.41,2.22,1.41,2.22,-2.22,-2.16,-0.81,-0.81,-0.81
514,1.43,2.22,1.41,2.20,-2.20,-2.14,-0.78,-0.80,-0.80
519,1.42,2.21,1.39,2.18,-2.18,-2.11,-0.76,-0.79,-0.79
524,1.34,2.12,1.37,2.16,-2.16,-2.08,-0.82,-0.79,-0.79
529,1.32,2.11,1.34,2.13,-2.13,-2.05,-0.81,-0.79,-0.79
535,1.30,2.09,1.30,2.09,-2.09,-2.02,-0.80,-0.79,-0.79
540,1.27,2.07,1.25,2.05,-2.05,-1.99,-0.78,-0.80,-0.80
545,1.23,2.04,1.19,2.00,-2.00,-1.97,-0.77,-0.81,-0.81
551,1.18,2.00,1.11,1.94,-1.94,-1.93,-0.76,-0.82,-0.82
556,1.05,1.88,1.04,1.87,-1.87,-1.91,-0.82,-0.83,-0.83
562,0.95,1.79,0.96,1.81,-1.81,-1.88,-0.86,-0.84,-0.84
568,0.84,1.69,0.89,1.74,-1.74,-1.84,-0.91,-0.85,-0.85
573,0.79,1.66,0.83,1.69,-1.69,-1.82,-0.90,-0.86,-0.86
579,0.76,1.63,0.78,1.65,-1.65,-1.79,-0.89,-0.87,-0.87
585,0.74,1.61,0.75,1.62,-1.62,-1.75,-0.88,-0.87,-0.87
591,0.72,1.59,0.73,1.60,-1.60,-1.72,-0.88,-0.87,-0.87
596,0.72,1.58,0.72,1.59,-1.59,-1.70,-0.87,-0.87,-0.87
602,0.72,1.58,0.72,1.58,-1.58,-1.67,-0.86,-0.86,-0.86
608,0.73,1.58,0.72,1.57,-1.57,-1.64,-0.84,-0.85,-0.85
615,0.75,1.58,0.72,1.55,-1.55,-1.60,-0.81,-0.83,-0.83
621,0.77,1.58,0.72,1.53,-1.53,-1.57,-0.77,-0.81,-0.81
627,0.79,1.58,0.72,1.51,-1.51,-1.54,-0.72,-0.79,-0.79
633,0.72,1.49,0.73,1.49,-1.49,-1.51,-0.77,-0.76,-0.76
639,0.66,1.40,0.73,1.47,-1.47,-1.48,-0.81,-0.74,-0.74
646,0.70,1.41,0.75,1.45,-1.45,-1.45,-0.75,-0.71,-0.71
652,0.74,1.42,0.77,1.45,-1.45,-1.42,-0.70,-0.67,-0.67
659,0.79,1.43,0.81,1.45,-1.45,-1.38,-0.66,-0.64,-0.64
665,0.84,1.45,0.85,1.45,-1.45,-1.35,-0.61,-0.61,-0.60
672,0.89,1.46,0.89,1.46,-1.46,-1.32,-0.56,-0.57,-0.57
679,0.94,1.48,0.92,1.46,-1.46,-1.29,-0.52,-0.54,-0.54
686,0.99,1.49,0.95,1.46,-1.46,-1.26,-0.47,-0.50,-0.50
692,1.03,1.50,0.97,1.44,-1.44,-1.23,-0.42,-0.47,-0.47
699,0.96,1.40,0.98,1.42,-1.42,-1.19,-0.46,-0.44,-0.44
706,0.97,1.38,0.97,1.38,-1.38,-1.16,-0.41,-0.41,-0.41
713,0.98,1.36,0.95,1.33,-1.33,-1.13,-0.36,-0.39,-0.39
721,0.90,1.26,0.92,1.28,-1.28,-1.09,-0.38,-0.36,-0.36
728,0.85,1.19,0.88,1.22,-1.22,-1.06,-0.36,-0.34,-0.34
735,0.83,1.15,0.84,1.15,-1.15,-1.03,-0.32,-0.32,-0.32
742,0.80,1.10,0.79,1.09,-1.09,-1.00,-0.29,-0.30,-0.30
750,0.77,1.06,0.74,1.03,-1.03,-0.96,-0.26,-0.29,-0.28
757,0.68,0.95,0.70,0.97,-0.97,-0.93,-0.29,-0.27,-0.27
765,0.63,0.89,0.66,0.92,-0.92,-0.90,-0.29,-0.26,-0.26
773,0.61,0.86,0.62,0.87,-0.87,-0.86,-0.26,-0.25,-0.25
780,0.60,0.84,0.59,0.83,-0.83,-0.83,-0.23,-0.24,-0.24
788,0.59,0.82,0.56,0.79,-0.79,-0.80,-0.20,-0.23,-0.23
796,0.52,0.74,0.54,0.76,-0.76,-0.77,-0.24,-0.22,-0.22
804,0.50,0.71,0.53,0.74,-0.74,-0.73,-0.24,-0.21,-0.21
812,0.50,0.71,0.52,0.72,-0.72,-0.70,-0.22,-0.20,-0.20
820,0.51,0.71,0.51,0.71,-0.71,-0.67,-0.20,-0.20,-0.20
828,0.51,0.70,0.50,0.69,-0.69,-0.63,-0.18,-0.19,-0.19
837,0.51,0.70,0.49,0.67,-0.67,-0.60,-0.16,-0.18,-0.18
845,0.51,0.69,0.48,0.65,-0.65,-0.56,-0.14,-0.18,-0.18
853,0.49,0.66,0.46,0.63,-0.63,-0.53,-0.15,-0.17,-0.17
862,0.41,0.57,0.45,0.61,-0.61,-0.50,-0.20,-0.16,-0.16
871,0.40,0.55,0.43,0.58,-0.58,-0.46,-0.18,-0.15,-0.15
879,0.39,0.54,0.41,0.55,-0.55,-0.43,-0.16,-0.15,-0.15
888,0.38,0.52,0.38,0.52,-0.52,-0.39,-0.14,-0.14,-0.14
897,0.38,0.51,0.36,0.49,-0.49,-0.36,-0.11,-0.13,-0.13
906,0.37,0.49,0.33,0.45,-0.45,-0.32,-0.08,-0.12,-0.12
915,0.36,0.48,0.30,0.41,-0.41,-0.29,-0.05,-0.11,-0.11
924,0.23,0.33,0.27,0.37,-0.37,-0.25,-0.14,-0.10,-0.10
933,0.17,0.26,0.24,0.33,-0.33,-0.22,-0.16,-0.09,-0.09
943,0.17,0.25,0.20,0.28,-0.28,-0.18,-0.12,-0.08,-0.08
952,0.17,0.24,0.17,0.24,-0.24,-0.15,-0.07,-0.07,-0.07
962,0.17,0.23,0.14,0.19,-0.19,-0.11,-0.02,-0.05,-0.05
971,0.18,0.22,0.11,0.14,-0.14,-0.08,0.04,-0.04,-0.04
981,0.06,0.08,0.07,0.09,-0.09,-0.04,-0.03,-0.02,-0.02
991,0.01,0.02,0.03,0.04,-0.04,-0.00,-0.03,-0.01,-0.01
1001,-0.00,-0.01,-0.01,-0.02,0.02,0.03,0.02,0.01,0.01
1011,-0.07,-0.10,-0.05,-0.08,0.08,0.07,0.01,0.03,0.03
1021,-0.09,-0.14,-0.09,-0.14,0.14,0.11,0.06,0.06,0.05
1031,-0.10,-0.18,-0.12,-0.20,0.20,0.14,0.10,0.08,0.08
1041,-0.15,-0.25,-0.16,-0.26,0.26,0.18,0.11,0.10,0.10
1052,-0.16,-0.29,-0.18,-0.31,0.31,0.22,0.15,0.13,0.13
1062,-0.20,-0.36,-0.20,-0.36,0.36,0.25,0.15,0.16,0.16
1073,-0.24,-0.43,-0.20,-0.39,0.39,0.29,0.15,0.19,0.19
1084,-0.24,-0.46,-0.19,-0.42,0.42,0.33,0.18,0.22,0.22
1094,-0.22,-0.48,-0.18,-0.43,0.43,0.37,0.21,0.25,0.25
1105,-0.17,-0.46,-0.15,-0.44,0.44,0.41,0.27,0.29,0.29
1116,-0.11,-0.43,-0.13,-0.45,0.45,0.45,0.34,0.32,0.32
1128,-0.06,-0.42,-0.10,-0.46,0.46,0.49,0.40,0.36,0.36
1139,-0.06,-0.45,-0.09,-0.48,0.48,0.53,0.41,0.39,0.39
1150,-0.03,-0.45,-0.08,-0.50,0.50,0.58,0.47,0.42,0.42
1162,-0.03,-0.49,-0.08,-0.53,0.53,0.62,0.50,0.46,0.46
1173,-0.12,-0.61,-0.09,-0.58,0.58,0.66,0.45,0.49,0.49
1185,-0.16,-0.68,-0.11,-0.63,0.63,0.71,0.47,0.52,0.52
1197,-0.17,-0.72,-0.14,-0.68,0.68,0.76,0.51,0.55,0.55
1209,-0.17,-0.74,-0.17,-0.75,0.75,0.80,0.58,0.57,0.57
1221,-0.18,-0.78,-0.22,-0.82,0.82,0.85,0.64,0.60,0.60
1233,-0.23,-0.85,-0.27,-0.89,0.89,0.90,0.66,0.62,0.62
1246,-0.32,-0.96,-0.33,-0.97,0.97,0.96,0.65,0.64,0.64
1258,-0.43,-1.09,-0.40,-1.05,1.05,1.01,0.61,0.65,0.65
1271,-0.45,-1.12,-0.46,-1.13,1.13,1.07,0.67,0.67,0.67
1283,-0.48,-1.15,-0.53,-1.20,1.20,1.12,0.73,0.68,0.68
1296,-0.64,-1.32,-0.59,-1.27,1.27,1.18,0.63,0.68,0.68
1309,-0.73,-1.41,-0.65,-1.34,1.34,1.25,0.61,0.69,0.69
1322,-0.75,-1.44,-0.71,-1.40,1.40,1.31,0.65,0.69,0.69
1335,-0.75,-1.44,-0.76,-1.45,1.45,1.38,0.70,0.68,0.68
1349,-0.77,-1.45,-0.82,-1.50,1.50,1.45,0.73,0.68,0.68
1362,-0.82,-1.50,-0.87,-1.54,1.54,1.51,0.72,0.67,0.67
1376,-0.85,-1.52,-0.92,-1.59,1.59,1.58,0.73,0.67,0.67
1390,-1.02,-1.68,-0.97,-1.63,1.63,1.65,0.61,0.66,0.66
1404,-1.11,-1.76,-1.02,-1.67,1.67,1.72,0.56,0.65,0.65
1418,-1.08,-1.73,-1.08,-1.72,1.72,1.79,0.63,0.64,0.64
1432,-1.10,-1.73,-1.13,-1.76,1.76,1.85,0.66,0.63,0.63
1446,-1.15,-1.77,-1.18,-1.81,1.81,1.91,0.66,0.63,0.63
1461,-1.21,-1.83,-1.24,-1.86,1.86,1.96,0.64,0.62,0.62
1475,-1.27,-1.89,-1.29,-1.91,1.91,2.00,0.63,0.62,0.62
1490,-1.33,-1.94,-1.34,-1.96,1.96,2.04,0.63,0.62,0.61
1505,-1.42,-2.04,-1.39,-2.00,2.00,2.06,0.58,0.62,0.62
1520,-1.43,-2.05,-1.43,-2.05,2.05,2.08,0.63,0.62,0.62
1535,-1.43,-2.07,-1.46,-2.09,2.09,2.08,0.65,0.63,0.63
1550,-1.45,-2.10,-1.47,-2.12,2.12,2.08,0.67,0.65,0.65
1566,-1.54,-2.21,-1.47,-2.13,2.13,2.07,0.59,0.67,0.67
1582,-1.48,-2.17,-1.44,-2.13,2.13,2.05,0.66,0.69,0.69
1597,-1.41,-2.13,-1.40,-2.12,2.12,2.03,0.71,0.72,0.72
1613,-1.35,-2.10,-1.34,-2.10,2.10,2.00,0.75,0.76,0.75
1629,-1.29,-2.08,-1.27,-2.06,2.06,1.97,0.78,0.80,0.79
1646,-1.13,-1.97,-1.18,-2.02,2.02,1.94,0.90,0.84,0.84
1662,-1.06,-1.95,-1.09,-1.98,1.98,1.91,0.92,0.89,0.89
1679,-0.99,-1.94,-0.99,-1.94,1.94,1.88,0.95,0.95,0.95
1696,-0.92,-1.93,-0.89,-1.90,1.90,1.86,0.99,1.01,1.01
1713,-0.79,-1.87,-0.79,-1.87,1.87,1.84,1.08,1.08,1.08
1730,-0.66,-1.81,-0.69,-1.84,1.84,1.82,1.17,1.15,1.15
1747,-0.57,-1.80,-0.58,-1.81,1.81,1.81,1.24,1.23,1.23
1764,-0.48,-1.78,-0.47,-1.78,1.78,1.80,1.30,1.31,1.31
1782,-0.38,-1.77,-0.36,-1.75,1.75,1.79,1.37,1.39,1.39
1800,-0.27,-1.75,-0.25,-1.72,1.72,1.78,1.45,1.48,1.48
1818,-0.16,-1.73,-0.13,-1.70,1.70,1.78,1.54,1.57,1.57
1836,-0.04,-1.71,-0.02,-1.68,1.68,1.78,1.64,1.66,1.66
