frequency,raw,error,smoothed,error_smoothed,equalization,parametric_eq,fixed_band_eq,equalized_raw,equalized_smoothed,target
20.00,16.88,7.87,16.87,7.86,-7.87,-7.78,-3.21,9.01,9.01,9.01
20.20,16.85,7.85,16.85,7.85,-7.85,-7.76,-3.30,9.00,9.00,9.00
20.40,16.82,7.83,16.82,7.83,-7.83,-7.74,-3.39,8.98,8.99,8.99
20.61,16.79,7.81,16.79,7.81,-7.81,-7.73,-3.49,8.97,8.98,8.98
20.81,16.77,7.80,16.76,7.80,-7.79,-7.71,-3.59,8.97,8.97,8.97
21.02,16.74,7.78,16.73,7.78,-7.77,-7.69,-3.69,8.96,8.96,8.95
21.23,16.70,7.75,16.70,7.75,-7.75,-7.67,-3.79,8.94,8.95,8.94
21.44,16.66,7.72,16.66,7.73,-7.73,-7.65,-3.90,8.92,8.93,8.93
21.66,16.63,7.70,16.63,7.70,-7.71,-7.63,-4.01,8.92,8.92,8.92
21.87,16.60,7.68,16.60,7.68,-7.69,-7.61,-4.12,8.91,8.91,8.91
22.09,16.57,7.67,16.57,7.67,-7.66,-7.59,-4.23,8.90,8.90,8.90
22.31,16.54,7.65,16.53,7.64,-7.64,-7.57,-4.35,8.89,8.89,8.89
22.54,16.50,7.62,16.50,7.62,-7.62,-7.55,-4.47,8.88,8.88,8.88
22.76,16.47,7.60,16.47,7.60,-7.60,-7.53,-4.60,8.87,8.87,8.87
22.99,16.44,7.57,16.43,7.57,-7.57,-7.51,-4.72,8.86,8.86,8.87
23.22,16.40,7.54,16.40,7.55,-7.55,-7.48,-4.86,8.85,8.85,8.85
23.45,16.37,7.52,16.36,7.52,-7.52,-7.46,-4.99,8.84,8.84,8.84
23.69,16.33,7.49,16.33,7.50,-7.50,-7.44,-5.13,8.83,8.83,8.83
23.92,16.30,7.48,16.29,7.47,-7.47,-7.41,-5.27,8.83,8.82,8.82
24.16,16.26,7.45,16.26,7.45,-7.44,-7.39,-5.41,8.81,8.81,8.81
24.40,16.22,7.42,16.22,7.42,-7.41,-7.36,-5.55,8.80,8.81,8.80
24.65,16.18,7.38,16.17,7.38,-7.38,-7.34,-5.70,8.80,8.79,8.80
24.89,16.14,7.34,16.14,7.34,-7.35,-7.31,-5.85,8.79,8.79,8.79
25.14,16.10,7.30,16.10,7.31,-7.31,-7.29,-6.00,8.78,8.78,8.79
25.39,16.07,7.28,16.06,7.28,-7.28,-7.26,-6.15,8.79,8.78,8.78
25.65,16.03,7.25,16.03,7.25,-7.24,-7.24,-6.31,8.78,8.78,8.78
25.91,15.99,7.21,15.99,7.21,-7.21,-7.21,-6.46,8.78,8.78,8.78
26.16,15.95,7.17,15.95,7.17,-7.17,-7.18,-6.62,8.77,8.78,8.78
26.43,15.91,7.13,15.91,7.13,-7.13,-7.15,-6.77,8.77,8.77,8.77
26.69,15.87,7.10,15.87,7.10,-7.09,-7.12,-6.92,8.77,8.77,8.77
26.96,15.83,7.06,15.83,7.06,-7.06,-7.09,-7.08,8.77,8.77,8.77
27.23,15.79,7.02,15.78,7.02,-7.02,-7.06,-7.22,8.77,8.77,8.77
27.50,15.74,6.97,15.74,6.98,-6.98,-7.03,-7.37,8.76,8.76,8.76
27.77,15.70,6.93,15.70,6.94,-6.94,-7.00,-7.51,8.75,8.75,8.76
28.05,15.66,6.91,15.66,6.90,-6.91,-6.97,-7.65,8.75,8.75,8.75
28.33,15.62,6.87,15.62,6.87,-6.87,-6.94,-7.78,8.75,8.75,8.75
28.62,15.58,6.84,15.57,6.84,-6.84,-6.91,-7.90,8.74,8.74,8.73
28.90,15.53,6.79,15.53,6.80,-6.80,-6.88,-8.01,8.73,8.73,8.73
29.19,15.49,6.77,15.48,6.77,-6.77,-6.84,-8.12,8.72,8.72,8.72
29.48,15.44,6.73,15.44,6.73,-6.73,-6.81,-8.21,8.70,8.71,8.71
29.78,15.40,6.69,15.39,6.70,-6.69,-6.77,-8.30,8.70,8.70,8.70
30.08,15.35,6.66,15.35,6.66,-6.66,-6.74,-8.36,8.69,8.69,8.69
30.38,15.31,6.62,15.30,6.62,-6.62,-6.70,-8.43,8.69,8.69,8.69
30.68,15.26,6.57,15.26,6.58,-6.57,-6.67,-8.47,8.68,8.68,8.68
30.99,15.21,6.53,15.21,6.53,-6.53,-6.63,-8.50,8.67,8.68,8.68
31.30,15.17,6.49,15.16,6.49,-6.49,-6.59,-8.51,8.68,8.67,8.67
31.61,15.12,6.45,15.12,6.44,-6.44,-6.56,-8.52,8.67,8.67,8.67
31.93,15.07,6.39,15.07,6.40,-6.40,-6.52,-8.50,8.67,8.67,8.68
32.24,15.03,6.35,15.02,6.35,-6.35,-6.48,-8.47,8.68,8.67,8.67
32.57,14.98,6.31,14.98,6.30,-6.30,-6.44,-8.43,8.67,8.67,8.67
32.89,14.93,6.25,14.93,6.26,-6.26,-6.40,-8.38,8.67,8.67,8.67
33.22,14.89,6.22,14.88,6.21,-6.22,-6.36,-8.31,8.67,8.66,8.67
33.55,14.83,6.16,14.83,6.17,-6.17,-6.32,-8.24,8.65,8.66,8.66
33.89,14.79,6.14,14.78,6.13,-6.13,-6.28,-8.15,8.66,8.65,8.65
34.23,14.74,6.09,14.73,6.09,-6.09,-6.24,-8.06,8.65,8.64,8.64
34.57,14.69,6.05,14.69,6.05,-6.05,-6.20,-7.95,8.63,8.64,8.64
34.92,14.64,6.01,14.64,6.01,-6.01,-6.15,-7.84,8.62,8.62,8.62
35.27,14.59,5.98,14.59,5.98,-5.98,-6.11,-7.73,8.61,8.61,8.61
35.62,14.54,5.95,14.53,5.94,-5.94,-6.07,-7.61,8.59,8.59,8.59
35.97,14.48,5.90,14.48,5.91,-5.91,-6.02,-7.48,8.57,8.57,8.57
36.33,14.43,5.87,14.43,5.87,-5.87,-5.98,-7.36,8.55,8.55,8.56
36.70,14.38,5.85,14.37,5.84,-5.84,-5.93,-7.23,8.53,8.53,8.53
37.06,14.33,5.81,14.32,5.81,-5.81,-5.89,-7.10,8.51,8.51,8.51
37.43,14.27,5.78,14.27,5.78,-5.78,-5.84,-6.96,8.48,8.49,8.49
37.81,14.22,5.75,14.22,5.75,-5.75,-5.80,-6.83,8.46,8.47,8.47
38.19,14.17,5.73,14.17,5.72,-5.72,-5.75,-6.70,8.45,8.44,8.44
38.57,14.12,5.69,14.12,5.69,-5.69,-5.71,-6.58,8.43,8.43,8.42
38.95,14.07,5.66,14.06,5.66,-5.66,-5.66,-6.45,8.41,8.40,8.40
39.34,14.01,5.62,14.01,5.63,-5.62,-5.61,-6.32,8.38,8.39,8.39
39.74,13.96,5.59,13.96,5.59,-5.59,-5.56,-6.20,8.37,8.37,8.37
40.14,13.91,5.56,13.90,5.55,-5.55,-5.52,-6.08,8.36,8.35,8.35
40.54,13.85,5.51,13.85,5.51,-5.51,-5.47,-5.96,8.33,8.34,8.34
40.94,13.80,5.47,13.79,5.47,-5.47,-5.42,-5.85,8.32,8.32,8.33
41.35,13.74,5.43,13.74,5.43,-5.43,-5.37,-5.74,8.31,8.31,8.31
41.76,13.69,5.39,13.68,5.38,-5.39,-5.33,-5.63,8.30,8.30,8.30
42.18,13.64,5.34,13.63,5.34,-5.34,-5.28,-5.53,8.30,8.29,8.29
42.60,13.57,5.28,13.58,5.29,-5.29,-5.23,-5.43,8.27,8.28,8.28
43.03,13.53,5.25,13.52,5.24,-5.24,-5.18,-5.33,8.28,8.28,8.27
43.46,13.47,5.20,13.46,5.20,-5.19,-5.14,-5.24,8.27,8.27,8.27
43.90,13.41,5.14,13.41,5.15,-5.14,-5.09,-5.15,8.26,8.26,8.27
44.33,13.35,5.09,13.35,5.09,-5.09,-5.04,-5.07,8.25,8.25,8.25
44.78,13.29,5.04,13.29,5.04,-5.05,-4.99,-4.98,8.24,8.24,8.25
45.23,13.24,4.99,13.23,4.99,-5.00,-4.95,-4.91,8.24,8.24,8.24
45.68,13.18,4.95,13.18,4.95,-4.95,-4.90,-4.83,8.23,8.23,8.23
46.13,13.13,4.91,13.12,4.91,-4.90,-4.86,-4.76,8.22,8.22,8.21
46.60,13.07,4.86,13.07,4.86,-4.86,-4.81,-4.70,8.21,8.21,8.21
47.06,13.01,4.81,13.01,4.81,-4.82,-4.76,-4.63,8.19,8.19,8.19
47.53,12.95,4.77,12.95,4.77,-4.77,-4.72,-4.57,8.17,8.17,8.17
48.01,12.89,4.73,12.89,4.73,-4.73,-4.68,-4.52,8.15,8.16,8.16
48.49,12.84,4.70,12.83,4.69,-4.69,-4.63,-4.46,8.14,8.14,8.14
48.97,12.78,4.66,12.78,4.66,-4.66,-4.59,-4.41,8.12,8.12,8.12
49.46,12.72,4.62,12.72,4.62,-4.62,-4.55,-4.36,8.09,8.10,8.10
49.96,12.67,4.60,12.66,4.59,-4.59,-4.51,-4.32,8.08,8.07,8.07
50.46,12.60,4.55,12.60,4.55,-4.55,-4.47,-4.28,8.04,8.05,8.05
50.96,12.54,4.52,12.54,4.52,-4.52,-4.43,-4.24,8.02,8.02,8.02
51.47,12.49,4.49,12.48,4.49,-4.49,-4.39,-4.21,8.00,8.00,8.00
51.99,12.43,4.45,12.43,4.46,-4.45,-4.36,-4.17,7.97,7.98,7.97
52.51,12.38,4.43,12.37,4.42,-4.42,-4.32,-4.14,7.96,7.95,7.95
53.03,12.31,4.38,12.31,4.39,-4.39,-4.29,-4.11,7.92,7.93,7.92
53.56,12.25,4.35,12.25,4.35,-4.35,-4.25,-4.09,7.89,7.90,7.90
54.10,12.20,4.32,12.19,4.32,-4.32,-4.22,-4.06,7.88,7.87,7.87
54.64,12.13,4.28,12.13,4.28,-4.28,-4.19,-4.04,7.84,7.85,7.85
55.18,12.08,4.26,12.07,4.25,-4.25,-4.16,-4.01,7.82,7.82,7.82
55.74,12.01,4.22,12.01,4.22,-4.22,-4.13,-3.99,7.79,7.79,7.79
56.29,11.96,4.19,11.95,4.19,-4.19,-4.11,-3.98,7.76,7.76,7.76
56.86,11.89,4.16,11.89,4.16,-4.16,-4.08,-3.96,7.72,7.73,7.73
57.42,11.84,4.14,11.84,4.14,-4.13,-4.06,-3.94,7.70,7.70,7.70
58.00,11.78,4.11,11.78,4.11,-4.11,-4.04,-3.92,7.67,7.67,7.67
58.58,11.73,4.09,11.72,4.09,-4.08,-4.01,-3.91,7.64,7.64,7.63
59.16,11.66,4.06,11.66,4.06,-4.06,-3.99,-3.89,7.60,7.60,7.60
59.76,11.60,4.03,11.60,4.03,-4.03,-3.98,-3.88,7.56,7.56,7.57
60.35,11.54,4.01,11.54,4.01,-4.01,-3.96,-3.86,7.53,7.52,7.53
60.96,11.48,3.98,11.48,3.99,-3.99,-3.95,-3.85,7.49,7.49,7.49
61.57,11.42,3.97,11.42,3.97,-3.97,-3.93,-3.83,7.45,7.45,7.44
62.18,11.36,3.95,11.36,3.95,-3.95,-3.92,-3.82,7.41,7.41,7.41
62.80,11.30,3.93,11.30,3.94,-3.93,-3.91,-3.80,7.36,7.36,7.36
63.43,11.24,3.92,11.24,3.92,-3.92,-3.90,-3.79,7.32,7.32,7.31
64.07,11.18,3.91,11.18,3.90,-3.90,-3.89,-3.77,7.27,7.27,7.27
64.71,11.12,3.89,11.12,3.89,-3.89,-3.88,-3.76,7.23,7.23,7.23
65.35,11.06,3.87,11.06,3.87,-3.87,-3.88,-3.74,7.18,7.18,7.18
66.01,11.00,3.86,11.00,3.86,-3.86,-3.87,-3.73,7.13,7.14,7.14
66.67,10.95,3.86,10.94,3.85,-3.85,-3.87,-3.71,7.10,7.09,7.09
67.33,10.88,3.83,10.88,3.84,-3.84,-3.87,-3.70,7.04,7.04,7.04
68.01,10.82,3.82,10.82,3.83,-3.83,-3.87,-3.68,6.99,7.00,6.99
68.69,10.77,3.82,10.76,3.81,-3.81,-3.87,-3.67,6.95,6.94,6.94
69.37,10.70,3.80,10.70,3.80,-3.80,-3.87,-3.66,6.89,6.89,6.89
70.07,10.64,3.79,10.64,3.80,-3.80,-3.87,-3.65,6.84,6.85,6.85
70.77,10.59,3.79,10.58,3.79,-3.79,-3.87,-3.63,6.80,6.79,6.80
71.48,10.53,3.79,10.52,3.78,-3.78,-3.88,-3.62,6.75,6.74,6.74
72.19,10.46,3.77,10.46,3.78,-3.77,-3.88,-3.62,6.68,6.69,6.68
72.91,10.41,3.77,10.40,3.77,-3.77,-3.89,-3.61,6.64,6.63,6.64
73.64,10.35,3.77,10.34,3.76,-3.77,-3.89,-3.60,6.58,6.58,6.58
74.38,10.28,3.76,10.28,3.76,-3.76,-3.90,-3.60,6.51,6.52,6.52
75.12,10.23,3.77,10.22,3.76,-3.76,-3.90,-3.59,6.46,6.46,6.46
75.87,10.17,3.76,10.16,3.76,-3.76,-3.91,-3.59,6.40,6.40,6.41
76.63,10.11,3.76,10.11,3.76,-3.76,-3.92,-3.59,6.34,6.34,6.34
77.40,10.05,3.77,10.04,3.76,-3.77,-3.93,-3.60,6.28,6.28,6.28
78.17,9.99,3.77,9.99,3.77,-3.77,-3.94,-3.60,6.22,6.22,6.21
78.95,9.93,3.77,9.93,3.77,-3.77,-3.95,-3.61,6.15,6.15,6.16
79.74,9.88,3.79,9.87,3.78,-3.78,-3.95,-3.62,6.10,6.09,6.09
80.54,9.81,3.78,9.81,3.79,-3.79,-3.96,-3.63,6.02,6.02,6.02
81.35,9.76,3.79,9.75,3.80,-3.80,-3.97,-3.65,5.96,5.96,5.96
82.16,9.70,3.80,9.69,3.80,-3.81,-3.98,-3.67,5.89,5.89,5.89
82.98,9.64,3.82,9.64,3.82,-3.82,-3.99,-3.69,5.82,5.83,5.82
83.81,9.59,3.83,9.58,3.83,-3.83,-4.00,-3.71,5.76,5.76,5.76
84.65,9.54,3.85,9.53,3.84,-3.84,-4.02,-3.73,5.70,5.69,5.68
85.50,9.47,3.85,9.47,3.85,-3.85,-4.03,-3.76,5.61,5.62,5.62
86.35,9.42,3.86,9.41,3.86,-3.87,-4.04,-3.79,5.55,5.55,5.55
87.22,9.36,3.88,9.36,3.88,-3.88,-4.05,-3.83,5.48,5.48,5.48
88.09,9.31,3.89,9.30,3.89,-3.89,-4.06,-3.86,5.41,5.41,5.41
88.97,9.25,3.91,9.25,3.91,-3.91,-4.07,-3.90,5.34,5.34,5.33
89.86,9.20,3.93,9.19,3.93,-3.93,-4.08,-3.95,5.27,5.27,5.27
90.76,9.14,3.95,9.13,3.95,-3.95,-4.09,-3.99,5.19,5.19,5.19
91.66,9.08,3.96,9.08,3.96,-3.97,-4.10,-4.04,5.11,5.11,5.12
92.58,9.02,3.98,9.02,3.98,-3.99,-4.12,-4.09,5.03,5.03,5.04
93.51,8.97,4.01,8.96,4.01,-4.01,-4.13,-4.14,4.96,4.95,4.95
94.44,8.91,4.03,8.91,4.04,-4.04,-4.14,-4.20,4.87,4.87,4.87
95.39,8.86,4.07,8.85,4.06,-4.06,-4.15,-4.26,4.79,4.79,4.79
96.34,8.80,4.09,8.80,4.09,-4.09,-4.16,-4.32,4.70,4.71,4.71
97.30,8.75,4.12,8.74,4.12,-4.12,-4.18,-4.38,4.62,4.62,4.63
98.28,8.70,4.16,8.69,4.15,-4.15,-4.19,-4.45,4.54,4.54,4.53
99.26,8.63,4.18,8.64,4.19,-4.19,-4.20,-4.52,4.44,4.45,4.45
100.25,8.59,4.22,8.58,4.22,-4.22,-4.22,-4.59,4.37,4.36,4.36
101.25,8.52,4.25,8.52,4.25,-4.25,-4.23,-4.66,4.27,4.27,4.27
102.27,8.47,4.28,8.47,4.28,-4.28,-4.24,-4.73,4.19,4.19,4.19
103.29,8.42,4.31,8.41,4.31,-4.31,-4.26,-4.80,4.10,4.10,4.10
104.32,8.36,4.34,8.36,4.34,-4.34,-4.27,-4.87,4.01,4.02,4.02
105.37,8.31,4.37,8.30,4.37,-4.37,-4.29,-4.95,3.93,3.93,3.93
106.42,8.25,4.40,8.25,4.40,-4.40,-4.30,-5.02,3.84,3.85,3.85
107.48,8.20,4.43,8.20,4.43,-4.43,-4.32,-5.09,3.76,3.76,3.76
108.56,8.15,4.47,8.14,4.46,-4.46,-4.34,-5.16,3.69,3.68,3.68
109.64,8.09,4.48,8.09,4.49,-4.49,-4.36,-5.23,3.60,3.60,3.60
110.74,8.04,4.52,8.04,4.52,-4.52,-4.37,-5.30,3.52,3.52,3.52
111.85,7.99,4.55,7.99,4.55,-4.55,-4.39,-5.37,3.44,3.44,3.44
112.97,7.94,4.58,7.94,4.58,-4.58,-4.41,-5.43,3.36,3.36,3.35
114.10,7.89,4.62,7.88,4.61,-4.61,-4.43,-5.49,3.28,3.27,3.27
115.24,7.82,4.63,7.82,4.64,-4.64,-4.45,-5.54,3.18,3.18,3.19
116.39,7.77,4.67,7.77,4.67,-4.67,-4.47,-5.59,3.09,3.09,3.09
117.55,7.72,4.70,7.71,4.70,-4.71,-4.50,-5.64,3.01,3.01,3.01
118.73,7.67,4.74,7.66,4.74,-4.74,-4.52,-5.68,2.93,2.92,2.92
119.92,7.61,4.78,7.61,4.77,-4.77,-4.54,-5.71,2.83,2.83,2.83
121.12,7.55,4.81,7.55,4.81,-4.81,-4.57,-5.74,2.74,2.74,2.74
122.33,7.50,4.84,7.50,4.84,-4.84,-4.59,-5.76,2.65,2.65,2.65
123.55,7.45,4.88,7.44,4.88,-4.88,-4.62,-5.77,2.57,2.56,2.56
124.79,7.39,4.91,7.39,4.91,-4.91,-4.64,-5.78,2.47,2.47,2.48
126.03,7.33,4.94,7.33,4.95,-4.95,-4.67,-5.78,2.38,2.38,2.39
127.29,7.28,4.98,7.27,4.98,-4.98,-4.70,-5.77,2.30,2.29,2.29
128.57,7.23,5.02,7.22,5.01,-5.01,-4.72,-5.76,2.22,2.21,2.21
129.85,7.16,5.03,7.16,5.04,-5.04,-4.75,-5.74,2.12,2.12,2.12
131.15,7.11,5.07,7.10,5.07,-5.06,-4.78,-5.72,2.04,2.04,2.04
132.46,7.05,5.09,7.04,5.09,-5.09,-4.81,-5.68,1.96,1.96,1.95
133.79,6.99,5.10,6.99,5.11,-5.11,-4.84,-5.65,1.88,1.88,1.88
135.12,6.93,5.12,6.93,5.12,-5.12,-4.87,-5.60,1.80,1.80,1.80
136.48,6.87,5.13,6.87,5.14,-5.14,-4.90,-5.56,1.73,1.73,1.73
137.84,6.82,5.15,6.81,5.15,-5.15,-4.93,-5.51,1.67,1.66,1.66
139.22,6.76,5.16,6.75,5.16,-5.16,-4.96,-5.45,1.60,1.60,1.60
140.61,6.69,5.16,6.69,5.16,-5.17,-4.99,-5.39,1.52,1.53,1.53
142.02,6.64,5.17,6.63,5.17,-5.17,-5.02,-5.33,1.46,1.46,1.46
143.44,6.58,5.18,6.57,5.18,-5.18,-5.04,-5.27,1.40,1.40,1.40
144.87,6.52,5.18,6.52,5.18,-5.18,-5.07,-5.21,1.34,1.34,1.34
146.32,6.46,5.18,6.46,5.18,-5.18,-5.10,-5.14,1.27,1.27,1.27
147.78,6.40,5.18,6.40,5.18,-5.18,-5.13,-5.08,1.21,1.21,1.21
149.26,6.34,5.18,6.33,5.18,-5.18,-5.15,-5.01,1.16,1.15,1.15
150.75,6.27,5.17,6.27,5.18,-5.17,-5.18,-4.95,1.09,1.10,1.09
152.26,6.21,5.17,6.20,5.17,-5.17,-5.20,-4.88,1.04,1.04,1.04
153.78,6.14,5.16,6.14,5.16,-5.16,-5.22,-4.82,0.98,0.98,0.98
155.32,6.08,5.15,6.07,5.15,-5.15,-5.24,-4.76,0.93,0.92,0.92
156.88,6.01,5.14,6.01,5.14,-5.14,-5.26,-4.70,0.86,0.87,0.87
158.44,5.95,5.13,5.95,5.13,-5.13,-5.27,-4.64,0.81,0.81,0.82
160.03,5.89,5.12,5.88,5.12,-5.12,-5.29,-4.58,0.76,0.76,0.77
161.63,5.82,5.11,5.82,5.11,-5.12,-5.30,-4.53,0.70,0.70,0.70
163.24,5.76,5.11,5.76,5.11,-5.10,-5.31,-4.48,0.65,0.65,0.64
164.88,5.70,5.10,5.69,5.10,-5.09,-5.32,-4.43,0.60,0.60,0.60
166.53,5.64,5.09,5.63,5.08,-5.08,-5.32,-4.38,0.55,0.55,0.55
168.19,5.57,5.06,5.57,5.07,-5.07,-5.32,-4.34,0.50,0.50,0.50
169.87,5.51,5.05,5.50,5.05,-5.05,-5.32,-4.30,0.46,0.45,0.46
171.57,5.44,5.03,5.44,5.03,-5.03,-5.32,-4.26,0.40,0.41,0.40
173.29,5.38,5.01,5.37,5.01,-5.01,-5.31,-4.23,0.37,0.36,0.36
175.02,5.31,4.99,5.31,4.99,-4.99,-5.30,-4.20,0.32,0.32,0.32
176.77,5.25,4.97,5.24,4.96,-4.96,-5.29,-4.17,0.28,0.28,0.28
178.54,5.18,4.94,5.18,4.94,-4.94,-5.27,-4.15,0.24,0.24,0.24
180.32,5.12,4.91,5.11,4.91,-4.91,-5.26,-4.12,0.20,0.20,0.20
182.13,5.05,4.88,5.05,4.88,-4.89,-5.23,-4.11,0.16,0.16,0.16
183.95,4.99,4.86,4.99,4.86,-4.86,-5.21,-4.09,0.13,0.13,0.13
185.79,4.93,4.83,4.92,4.83,-4.83,-5.18,-4.08,0.10,0.09,0.09
187.65,4.87,4.81,4.86,4.80,-4.80,-5.15,-4.07,0.06,0.06,0.06
189.52,4.79,4.76,4.79,4.77,-4.77,-5.11,-4.06,0.01,0.02,0.03
191.42,4.73,4.74,4.73,4.74,-4.74,-5.08,-4.06,-0.02,-0.02,-0.02
193.33,4.67,4.71,4.66,4.71,-4.71,-5.04,-4.06,-0.04,-0.05,-0.05
195.27,4.60,4.68,4.60,4.68,-4.68,-5.00,-4.06,-0.08,-0.08,-0.08
197.22,4.54,4.65,4.53,4.64,-4.64,-4.95,-4.07,-0.10,-0.11,-0.11
199.19,4.47,4.60,4.47,4.60,-4.60,-4.91,-4.07,-0.14,-0.14,-0.14
201.18,4.40,4.56,4.40,4.57,-4.57,-4.86,-4.08,-0.17,-0.17,-0.17
203.19,4.34,4.53,4.33,4.53,-4.53,-4.81,-4.09,-0.19,-0.19,-0.19
205.23,4.27,4.49,4.27,4.49,-4.49,-4.76,-4.10,-0.22,-0.22,-0.22
207.28,4.21,4.45,4.20,4.45,-4.45,-4.71,-4.11,-0.24,-0.25,-0.24
209.35,4.14,4.41,4.14,4.41,-4.41,-4.65,-4.13,-0.27,-0.27,-0.27
211.44,4.08,4.37,4.07,4.37,-4.37,-4.59,-4.14,-0.29,-0.30,-0.29
213.56,4.01,4.33,4.01,4.33,-4.33,-4.54,-4.16,-0.32,-0.32,-0.33
215.69,3.95,4.29,3.94,4.29,-4.29,-4.48,-4.17,-0.34,-0.35,-0.35
217.85,3.88,4.25,3.88,4.25,-4.25,-4.42,-4.19,-0.37,-0.37,-0.37
220.03,3.82,4.21,3.82,4.21,-4.20,-4.36,-4.20,-0.39,-0.39,-0.39
222.23,3.76,4.17,3.75,4.16,-4.16,-4.30,-4.22,-0.40,-0.41,-0.41
224.45,3.69,4.12,3.69,4.12,-4.12,-4.24,-4.23,-0.43,-0.43,-0.43
226.70,3.62,4.07,3.62,4.07,-4.07,-4.18,-4.24,-0.46,-0.45,-0.45
228.96,3.56,4.02,3.56,4.03,-4.03,-4.12,-4.24,-0.48,-0.47,-0.47
231.25,3.51,3.99,3.50,3.99,-3.99,-4.06,-4.25,-0.48,-0.49,-0.49
233.57,3.44,3.94,3.44,3.95,-3.95,-4.00,-4.25,-0.51,-0.51,-0.50
235.90,3.38,3.92,3.38,3.91,-3.91,-3.94,-4.25,-0.53,-0.53,-0.54
238.26,3.32,3.87,3.32,3.87,-3.87,-3.88,-4.25,-0.55,-0.55,-0.56
240.64,3.26,3.83,3.26,3.83,-3.82,-3.82,-4.24,-0.57,-0.57,-0.57
243.05,3.20,3.78,3.20,3.78,-3.78,-3.76,-4.23,-0.59,-0.59,-0.59
245.48,3.14,3.74,3.14,3.74,-3.74,-3.70,-4.21,-0.60,-0.60,-0.60
247.93,3.08,3.69,3.08,3.69,-3.69,-3.65,-4.19,-0.62,-0.61,-0.62
250.41,3.03,3.65,3.02,3.65,-3.65,-3.59,-4.16,-0.62,-0.63,-0.63
252.92,2.96,3.60,2.96,3.60,-3.60,-3.54,-4.13,-0.65,-0.64,-0.64
255.45,2.90,3.55,2.90,3.55,-3.56,-3.48,-4.10,-0.66,-0.66,-0.65
258.00,2.85,3.51,2.84,3.51,-3.51,-3.43,-4.06,-0.67,-0.67,-0.67
260.58,2.79,3.46,2.79,3.47,-3.47,-3.38,-4.02,-0.68,-0.68,-0.68
263.19,2.74,3.44,2.73,3.43,-3.43,-3.33,-3.97,-0.69,-0.69,-0.70
265.82,2.68,3.39,2.68,3.39,-3.39,-3.28,-3.92,-0.71,-0.71,-0.71
268.48,2.62,3.34,2.62,3.34,-3.34,-3.24,-3.86,-0.73,-0.73,-0.72
271.16,2.57,3.31,2.56,3.30,-3.30,-3.19,-3.80,-0.74,-0.74,-0.74
273.87,2.51,3.26,2.51,3.26,-3.26,-3.15,-3.74,-0.76,-0.76,-0.75
276.61,2.46,3.23,2.45,3.22,-3.22,-3.10,-3.68,-0.76,-0.77,-0.77
279.38,2.39,3.17,2.40,3.18,-3.18,-3.06,-3.61,-0.79,-0.78,-0.78
282.17,2.35,3.14,2.34,3.13,-3.13,-3.02,-3.54,-0.79,-0.79,-0.80
284.99,2.29,3.08,2.28,3.09,-3.09,-2.98,-3.47,-0.80,-0.80,-0.80
287.84,2.23,3.03,2.23,3.04,-3.04,-2.94,-3.39,-0.81,-0.81,-0.81
290.72,2.18,3.00,2.17,2.99,-2.99,-2.90,-3.32,-0.82,-0.82,-0.82
293.63,2.12,2.95,2.12,2.95,-2.94,-2.87,-3.24,-0.83,-0.83,-0.83
296.57,2.06,2.89,2.06,2.90,-2.89,-2.83,-3.17,-0.84,-0.83,-0.84
299.53,2.01,2.84,2.00,2.84,-2.84,-2.79,-3.09,-0.84,-0.84,-0.84
302.53,1.95,2.80,1.94,2.79,-2.80,-2.75,-3.01,-0.85,-0.85,-0.85
305.55,1.89,2.74,1.89,2.74,-2.74,-2.71,-2.93,-0.86,-0.86,-0.85
308.61,1.83,2.69,1.83,2.69,-2.69,-2.67,-2.86,-0.87,-0.86,-0.87
311.69,1.78,2.64,1.78,2.64,-2.64,-2.63,-2.78,-0.87,-0.87,-0.86
314.81,1.73,2.60,1.72,2.59,-2.59,-2.59,-2.70,-0.86,-0.87,-0.88
317.96,1.67,2.54,1.67,2.54,-2.54,-2.55,-2.63,-0.87,-0.87,-0.87
321.14,1.61,2.48,1.61,2.49,-2.48,-2.50,-2.55,-0.88,-0.88,-0.88
324.35,1.55,2.43,1.55,2.43,-2.43,-2.46,-2.48,-0.89,-0.88,-0.88
327.59,1.50,2.38,1.49,2.37,-2.38,-2.41,-2.41,-0.89,-0.89,-0.88
330.87,1.44,2.32,1.44,2.32,-2.33,-2.36,-2.34,-0.89,-0.89,-0.88
334.18,1.39,2.28,1.39,2.28,-2.28,-2.31,-2.27,-0.89,-0.89,-0.89
337.52,1.34,2.23,1.33,2.23,-2.22,-2.26,-2.20,-0.89,-0.89,-0.89
340.90,1.29,2.18,1.28,2.18,-2.17,-2.20,-2.13,-0.89,-0.89,-0.90
344.30,1.23,2.12,1.23,2.12,-2.12,-2.15,-2.07,-0.90,-0.89,-0.89
347.75,1.18,2.06,1.18,2.07,-2.07,-2.09,-2.00,-0.89,-0.89,-0.89
351.23,1.13,2.03,1.12,2.01,-2.02,-2.04,-1.94,-0.89,-0.89,-0.90
354.74,1.08,1.96,1.07,1.97,-1.97,-1.98,-1.88,-0.89,-0.89,-0.88
358.28,1.02,1.91,1.02,1.92,-1.91,-1.92,-1.82,-0.90,-0.89,-0.90
361.87,0.98,1.87,0.97,1.86,-1.86,-1.87,-1.76,-0.89,-0.89,-0.89
365.49,0.92,1.81,0.92,1.82,-1.81,-1.81,-1.70,-0.90,-0.89,-0.89
369.14,0.87,1.76,0.87,1.76,-1.76,-1.76,-1.65,-0.90,-0.89,-0.90
372.83,0.83,1.72,0.82,1.71,-1.71,-1.70,-1.59,-0.89,-0.90,-0.89
376.56,0.77,1.66,0.77,1.67,-1.66,-1.65,-1.54,-0.90,-0.90,-0.89
380.33,0.72,1.61,0.72,1.62,-1.61,-1.60,-1.49,-0.90,-0.90,-0.90
384.13,0.67,1.58,0.66,1.57,-1.57,-1.54,-1.43,-0.90,-0.90,-0.91
387.97,0.62,1.52,0.62,1.52,-1.52,-1.49,-1.39,-0.90,-0.90,-0.90
391.85,0.57,1.46,0.57,1.47,-1.47,-1.44,-1.34,-0.90,-0.90,-0.90
395.77,0.53,1.42,0.52,1.42,-1.42,-1.39,-1.29,-0.90,-0.90,-0.90
399.73,0.48,1.38,0.48,1.38,-1.38,-1.34,-1.24,-0.90,-0.90,-0.90
403.72,0.43,1.33,0.43,1.33,-1.33,-1.30,-1.20,-0.90,-0.90,-0.90
407.76,0.39,1.29,0.38,1.29,-1.28,-1.25,-1.16,-0.90,-0.90,-0.91
411.84,0.34,1.24,0.34,1.24,-1.24,-1.21,-1.11,-0.90,-0.90,-0.91
415.96,0.30,1.20,0.29,1.20,-1.20,-1.16,-1.07,-0.90,-0.91,-0.90
420.12,0.24,1.15,0.24,1.15,-1.15,-1.12,-1.03,-0.92,-0.91,-0.91
424.32,0.20,1.11,0.20,1.11,-1.11,-1.08,-0.99,-0.92,-0.91,-0.91
428.56,0.16,1.07,0.15,1.07,-1.07,-1.03,-0.95,-0.91,-0.92,-0.92
432.85,0.11,1.02,0.11,1.03,-1.02,-0.99,-0.91,-0.92,-0.92,-0.92
437.18,0.06,0.98,0.06,0.99,-0.98,-0.95,-0.88,-0.92,-0.92,-0.93
441.55,0.02,0.95,0.01,0.94,-0.94,-0.92,-0.84,-0.92,-0.92,-0.93
445.96,-0.03,0.90,-0.03,0.90,-0.89,-0.88,-0.81,-0.93,-0.93,-0.93
450.42,-0.08,0.84,-0.08,0.85,-0.85,-0.84,-0.77,-0.93,-0.93,-0.92
454.93,-0.12,0.80,-0.13,0.80,-0.80,-0.80,-0.74,-0.93,-0.93,-0.93
459.48,-0.17,0.75,-0.17,0.75,-0.76,-0.77,-0.70,-0.93,-0.94,-0.93
464.07,-0.22,0.71,-0.22,0.72,-0.72,-0.73,-0.67,-0.94,-0.94,-0.94
468.71,-0.26,0.68,-0.26,0.67,-0.67,-0.70,-0.64,-0.94,-0.94,-0.94
473.40,-0.30,0.64,-0.31,0.63,-0.63,-0.66,-0.61,-0.93,-0.94,-0.94
478.13,-0.35,0.59,-0.35,0.59,-0.59,-0.63,-0.58,-0.94,-0.94,-0.94
482.91,-0.39,0.55,-0.39,0.55,-0.55,-0.59,-0.55,-0.94,-0.94,-0.94
487.74,-0.43,0.50,-0.44,0.50,-0.50,-0.56,-0.52,-0.94,-0.94,-0.93
492.62,-0.48,0.45,-0.48,0.46,-0.46,-0.53,-0.49,-0.94,-0.94,-0.94
497.55,-0.52,0.41,-0.52,0.41,-0.41,-0.49,-0.46,-0.93,-0.93,-0.94
