frequency,raw,error,smoothed,error_smoothed,equalization,equalized_raw,equalized_smoothed,target
20,-17.76245412824571,-17.7789332906399,-17.76000212128805,-17.776466907812495,5.999999999999999,-11.762454128245711,-11.76000212128805,0.016479162394188673
21,-17.094017094017097,-17.111663180486396,-17.143132495000557,-17.160780212616764,6.0,-11.094017094017097,-11.143132495000557,0.017646086469297995
22,-16.62068168212614,-16.63944425311871,-16.543187726302666,-16.561961354303076,6.0,-10.62068168212614,-10.543187726302666,0.01876257099257117
23,-15.906211337447376,-15.926038547182518,-15.960167815194378,-15.980010332871428,5.999999999999999,-9.906211337447377,-9.960167815194378,0.01982720973514196
24,-15.46947705003834,-15.490315393586126,-15.394072761675671,-15.414927148321802,5.999999999999998,-9.469477050038341,-9.394072761675673,0.020838343547786575
25,-14.850569997055874,-14.87236402597059,-14.845221888518765,-14.867033188570606,6.000000000000001,-8.850569997055874,-8.845221888518765,0.02179402891471538
26,-14.273820932194914,-14.296512936404891,-14.313137778760169,-14.335849149653374,6.0,-8.273820932194914,-8.313137778760169,0.022692004209976968
27,-13.736046941744695,-13.759581089291698,-13.797476366478627,-13.82102877328989,6.0,-7.736046941744695,-7.797476366478627,0.023534147547003226
28,-13.24193214208075,-13.266245617048682,-13.297930348037315,-13.322260918875408,6.0,-7.241932142080749,-7.297930348037315,0.02431347496793279
29,-12.991452991452997,-13.016477710797771,-12.814388126571405,-12.83942833660754,6.0,-6.991452991452997,-6.814388126571405,0.02502471934477457
30,-12.329672690928287,-12.35533394439925,-12.347170401499337,-12.3728449454997,6.0,-6.329672690928287,-6.347170401499337,0.025661253470963263
31,-11.922233907037636,-11.948448966597809,-11.896880611779906,-11.923106040682175,5.999999999999997,-5.922233907037639,-5.896880611779909,0.026215059560172893
32,-11.396011396011396,-11.42268820495353,-11.46420602369513,-11.490889733888405,5.999999999999999,-5.396011396011397,-5.464206023695131,0.0266768089421352
33,-10.959980016888483,-10.987016082262121,-11.049558069505094,-11.076597548331844,6.000000000000001,-4.9599800168884824,-5.0495580695050934,0.027036065373637452
34,-10.712250712250714,-10.739533098242918,-10.652691962916988,-10.679974237536458,5.999999999999998,-4.712250712250716,-4.65269196291699,0.027282385992203118
35,-10.322528369988412,-10.349933162283047,-10.272499552267758,-10.29990095346983,6.000000000000001,-4.322528369988411,-4.272499552267758,0.02740479229463677
36,-9.808775384800692,-9.836167712114587,-9.907057563479682,-9.934443743246522,5.999999999999999,-3.8087753848006924,-3.9070575634796834,0.02739232731389496
37,-9.543265019863195,-9.570499371468996,-9.553981430058567,-9.581207628835783,5.999999999999999,-3.5432650198631963,-3.5539814300585677,0.02723435160580001
38,-9.296992988230636,-9.323913766045639,-9.210998649393787,-9.237910182896012,6.000000000000002,-3.2969929882306346,-3.210998649393785,0.026920777815003127
39,-8.888888888888893,-8.915331107018055,-8.876560652769736,-8.902993553087,6.0,-2.888888888888893,-2.8765606527697365,0.026442218129161255
40,-8.630321361904512,-8.656111391498715,-8.550287542742797,-8.576069289951139,5.999999999999998,-2.630321361904514,-2.550287542742799,0.0257900295942024
41,-8.208142931498212,-8.233099319505428,-8.233080030640274,-8.258030292032231,5.999999999999999,-2.2081429314982133,-2.2330800306402745,0.024956388007214336
42,-7.801631063860823,-7.825565249424685,-7.926842553168999,-7.950773842192694,6.000000000000002,-1.801631063860821,-1.9268425531689974,0.023934185563861288
43,-7.7492877492877525,-7.7720046068089665,-7.63389076703279,-7.656608934646124,6.000000000000001,-1.7492877492877517,-1.6338907670327893,0.02271685752121444
44,-7.293447293447294,-7.314745418499305,-7.3562186746467795,-7.377523147694921,6.0,-1.2934472934472936,-1.3562186746467795,0.02129812505201123
45,-7.065527065527072,-7.085198727237233,-7.09484174822854,-7.114525438238813,5.999999999999998,-1.0655270655270739,-1.094841748228542,0.019671661710161104
46,-6.837606837606842,-6.855437529433392,-6.849402560069331,-6.86725137738413,6.0,-0.8376068376068417,-0.8494025600693309,0.017830691826550282
47,-6.609686609686613,-6.625454139302805,-6.618142239285904,-6.633934162179834,6.000000000000001,-0.6096866096866123,-0.6181422392859028,0.015767529616192544
48,-6.381766381766381,-6.395239473152619,-6.398233246605814,-6.411736912686051,5.971342055373136,-0.4104243263932448,-0.42689119123267805,0.013473091386238423
49,-6.250327198761411,-6.261263590940051,-6.186370429164171,-6.197343235512015,5.911027783406131,-0.3392994153552804,-0.2753426457580401,0.010936392178639842
50,-5.92592592592593,-5.934069974830842,-5.979455049279468,-5.987640767938895,5.820963063437928,-0.10496286248800235,-0.15849198584154056,0.008144048904911827
51,-5.8808411163856285,-5.885920927259333,-5.775192091756233,-5.780318027218975,5.70036810767089,-0.18047300871473837,-0.0748239840853433,0.005079810873704016
52,-5.5975286216941615,-5.5992527594106445,-5.572452288295963,-5.574226022571751,5.549260305527696,-0.04826831616646565,-0.023191982768267394,0.001724137716482943
53,-5.2421652421652425,-5.240219084530828,-5.371316270495361,-5.369422058368774,5.369422058368775,0.12725681620353235,-0.0018942121265865808,-0.0019461576344146359
54,-5.2421652421652425,-5.236207054907641,-5.172804169213774,-5.16689906057705,5.16689906057705,-0.07526618158819254,-0.005905108636723888,-0.005958187257600667
55,-5.014245014245021,-5.003901838320497,-4.978380129086912,-4.968089906225787,4.968089906225786,-0.04615510801923506,-0.010290222861126352,-0.010343175924523607
56,-4.786040418597724,-4.770903867699236,-4.789381826336425,-4.774296851332069,4.7742968513320685,-0.011743567265655841,-0.015084975004356238,-0.015136550898488199
57,-4.558404558404561,-4.538026627800109,-4.606542249321143,-4.586213320104681,4.58621332010468,0.027808761700119256,-0.02032892921646301,-0.020377930604452477
58,-4.330484330484332,-4.304373317504238,-4.42973909258078,-4.403673405647373,4.403673405647372,0.0731890751630404,-0.02606568693340794,-0.026111012980093662
59,-4.330484330484332,-4.298100962393691,-4.258032533161474,-4.22568984672312,4.22568984672312,-0.10479448376121159,-0.03234268643835403,-0.03238336809064091
60,-4.109220836268005,-4.069974693317046,-4.08995738982574,-4.050746473644665,4.050746473644666,-0.05847436262333883,-0.03921091618107386,-0.03924614295095896
61,-3.8746438746438794,-3.8278901851817806,-3.9239546950243174,-3.8772301428673916,3.877230142867392,0.002586268223512711,-0.04672455215692528,-0.04675368946209879
62,-3.874643874643879,-3.8196807462015636,-3.7587923681575544,-3.703851836408822,3.7038518364088215,-0.1707920382350574,-0.05494053174873281,-0.05496312844231532
63,-3.6467236467236512,-3.5827897826234274,-3.593846786688318,-3.5299287088874935,3.5299287088874935,-0.11679493783615769,-0.06391807780082459,-0.06393386410022384
64,-3.3217536384340294,-3.2480265745746544,-3.429181906135323,-3.355463718876858,3.3554637188768583,0.03371008044282897,-0.07371818725846468,-0.073727063859375
65,-3.1908831908831914,-3.1064780726586934,-3.265441975854513,-3.181038877137448,3.1810388771374476,-0.009844313745743793,-0.0844030987170652,-0.08440511822449803
66,-3.1908831908831914,-3.094852096448059,-3.103635809582791,-3.007600057524752,3.0076000575247526,-0.18328313335843882,-0.0960357520580386,-0.09603109443513258
67,-2.962962962962962,-2.8542947668814262,-2.9449103139756723,-2.8362310621336757,2.8362310621336753,-0.12673190082928665,-0.108679251841997,-0.10866819608153566
68,-2.735042735042739,-2.6126634962223445,-2.7903860991515383,-2.6679897541406437,2.6679897541406437,-0.06705298090209544,-0.12239634501089469,-0.12237923882039459
69,-2.708818501310131,-2.5715923513509553,-2.641078015690775,-2.5038290940799452,2.503829094079945,-0.20498940723018633,-0.13724892161083035,-0.1372261499591758
70,-2.50712250712251,-2.3538530099733443,-2.497877134277483,-2.3445795909631384,2.344579590963139,-0.16254291615937122,-0.15329754331434398,-0.1532694971491657
71,-2.279202279202281,-2.1086342303000722,-2.361547255053014,-2.1909462553591386,2.1909462553591386,-0.08825602384314246,-0.17060099969387554,-0.17056804890220878
72,-2.272084213901071,-2.0829058466232957,-2.2326932981180985,-2.043477407858319,2.043477407858319,-0.2286068060427522,-0.18921589025977958,-0.18917836727777537
73,-2.0512820512820515,-1.8421276202763517,-2.1116845467131515,-1.902488311766389,1.902488311766389,-0.14879373951566244,-0.20919623494676243,-0.20915443100569986
74,-2.0512820512820515,-1.8207347656652964,-1.9985483301506533,-1.7679552109543613,1.7679552109543617,-0.28332684032768984,-0.23059311919629155,-0.2305472856167552
75,-1.8810973888388567,-1.6276926729191308,-1.892873765210385,-1.6394193828418842,1.6394193828418842,-0.24167800599697253,-0.25345438236850093,-0.2534047159197259
76,-1.8233618233618287,-1.545590887937084,-1.7937727585967291,-1.5159484087692765,1.5159484087692767,-0.307413414592552,-0.2778243498274524,-0.2777709354247446
77,-1.6440647529692423,-1.3403784658993048,-1.6999365784522529,-1.3961930050315068,1.3961930050315066,-0.2478717479377357,-0.3037435734207463,-0.3036862870699375
78,-1.5954415954415992,-1.2642546456082666,-1.6098046463481028,-1.278556152919467,1.2785561529194667,-0.3168854425221326,-0.33124849342863616,-0.33118694983333263
79,-1.5954415954415995,-1.235136948991091,-1.5218298731456605,-1.1614589455387427,1.1614589455387434,-0.43398264990285607,-0.36037092760691714,-0.3603046464505084
80,-1.3675213675213698,-0.9764550190826995,-1.4347884095900363,-1.0436510073202663,1.0436510073202665,-0.32387036020110327,-0.3911374022697698,-0.3910663484386703
81,-1.3675213675213698,-0.9440273916554949,-1.3480522731539448,-0.9244837014060203,0.9244837014060204,-0.44303766611534934,-0.4235685717479244,-0.4234939758658749
82,-1.355212444359268,-0.8976083536462971,-1.261735212332334,-0.804056024428532,0.8040560244285321,-0.5511564199307358,-0.4576791879038019,-0.4576040907129708
83,-1.1396011396011403,-0.6461935554302483,-1.1766465812845357,-0.683167498398934,0.6831674983989341,-0.4564336412022062,-0.4934790828856016,-0.49340758417089203
84,-1.1396011396011403,-0.6086917798799543,-1.0940454044789907,-0.5630702438255526,0.5630702438255528,-0.5765308957755875,-0.5309751606534379,-0.530909359721186
85,-0.9116809116809108,-0.3415728963819644,-1.015261518577168,-0.4450881405363933,0.4450881405363933,-0.4665927711445175,-0.5701733780407747,-0.5701080152989464
86,-0.9116809116809108,-0.3006853824962872,-0.9413129250601608,-0.3302343957411479,0.33023439574114777,-0.581446515939763,-0.6110785293190131,-0.6109955291846236
87,-0.911680911680911,-0.25812395620210915,-0.87266451757861,-0.21897527218533475,0.21897527218533466,-0.6927056394955764,-0.6536892453932753,-0.6535569554788019
88,-0.8635386565662302,-0.16576852050752033,-0.8092265361013005,-0.11123956353768638,0.11123956353768637,-0.7522990930285438,-0.6979869725636141,-0.6977701360587099
89,-0.6837606837606887,0.059844753023210684,-0.7505918752448915,-0.006670743131916839,0.006670743131916847,-0.6770899406287718,-0.7439211321129746,-0.7436054367838993
90,-0.6837606837606885,0.10726483264352182,-0.6963999497138735,0.09499727018626938,-0.0949972701862694,-0.7787579539469579,-0.7913972199001429,-0.7910255164042104
91,-0.6837606837606885,0.15622445336056978,-0.6466445705071762,0.19363350989686706,-0.19363350989686703,-0.8773941936575556,-0.8402780804040432,-0.8399851371212583
92,-0.6837606837606887,0.20667034229886805,-0.6017542184113014,0.28865378004722886,-0.28865378004722886,-0.9724144638079175,-0.8904079984585302,-0.8904310260595567
93,-0.5482028942622145,0.3940989027427316,-0.5623701392974453,0.3792923996396734,-0.3792923996396735,-0.9274952939018879,-0.9416625389371187,-0.9423017970049461
94,-0.45584045584045907,0.5396874858102166,-0.528893492819336,0.4651214821859049,-0.4651214821859049,-0.920961938026364,-0.9940149750052408,-0.9955279416506757
95,-0.45584045584045907,0.5941914433926757,-0.5010004430466511,0.5465965539600816,-0.5465965539600816,-1.0024370098005406,-1.0475969970067327,-1.0500318992331348
96,-0.455840455840459,0.6498877569729857,-0.47736938412412744,0.6253543616252093,-0.6253543616252091,-1.081194817465668,-1.1027237457493366,-1.1057282128134447
97,-0.45584045584045907,0.7066833236981002,-0.45579638989580396,0.7040605783087623,-0.7040605783087622,-1.1599010341492213,-1.1598569682045663,-1.1625237795385592
98,-0.45584045584045907,0.7644777451285457,-0.43371663898949353,0.7857806175609294,-0.7857806175609295,-1.2416210734013886,-1.2194972565504232,-1.2203182009690048
99,-0.45584045584045907,0.8231637821286045,-0.4089695592391926,0.8730534143074201,-0.8730534143074199,-1.328893870147879,-1.2820229735466124,-1.2790042379690636
100,-0.45584045584045907,0.8826279168690289,-0.3805254043340036,0.9669943562147187,-0.9669943562147187,-1.4228348120551777,-1.3475197605487224,-1.338468372709488
101,-0.4268996596834455,0.9716918183562038,-0.3488878800263593,1.0667707365344434,-1.0667707365344439,-1.4936703962178894,-1.4156586165608032,-1.3985914780396493
102,-0.22792022792022953,1.2313293639529226,-0.3160056604926528,1.169668379995009,-1.1696683799950085,-1.397588607915238,-1.4856740404876612,-1.459249591873152
104,-0.22792022792022953,1.3543591885911592,-0.284713755100405,1.27175246165214,-1.2717524616521403,-1.4996726895723698,-1.5564662167525452,-1.5822794165113887
105,-0.22792022792022953,1.415781435927911,-0.2579017919940952,1.3689092638671703,-1.3689092638671698,-1.5968294917873993,-1.626811055861265,-1.6437016638481405
106,-0.22792022792022953,1.4772245080807753,-0.23769638773490864,1.4579270715606139,-1.4579270715606136,-1.685847299480843,-1.6956234592955224,-1.7051447360010048
107,-0.22792022792022953,1.5385573287875447,-0.22491860070777087,1.5372787843524334,-1.5372787843524331,-1.7651990122726626,-1.762197385060204,-1.7664775567077742
108,-0.22792022792022953,1.59964998331973,-0.21895849360518965,1.6073918835011947,-1.6073918835011947,-1.8353121114214241,-1.8263503771063843,-1.8275702112399594
109,-0.22792022792022953,1.6603748329059544,-0.21805658307954506,1.670372760714264,-1.6703727607142642,-1.8982929886344937,-1.8884293437938093,-1.888295060826184
110,-0.22792022792022953,1.720607625466374,-0.21986092262912732,1.7293171611173124,-1.7293171611173117,-1.9572373890375412,-1.949178083746439,-1.9485278533866035
111,-0.22792022792022953,1.7802285808622376,-0.2220769930145135,1.787432708046789,-1.7874327080467896,-2.015352935967019,-2.009509701061303,-2.008148808782467
112,-0.22792022792022953,1.8391234280552426,-0.2230443841412008,1.8472096353004734,-1.8472096353004739,-2.0751298632207034,-2.0702540194416748,-2.067043655975472
113,-0.22792022792022953,1.8971843715181294,-0.2221287344528127,1.909824076883613,-1.9098240768836128,-2.1377443048038423,-2.1319528113364257,-2.125104599438359
114,-0.22792022792022953,1.9543109650115902,-0.21987304655004622,1.9748814947873752,-1.9748814947873756,-2.2028017227076053,-2.1947545413374216,-2.1822311929318197
115,-0.22792022792022953,2.010410872475595,-0.2178906406908853,2.04053377562513,-2.0405337756251303,-2.2684540035453598,-2.2584244163160156,-2.2383311003958246
117,-0.22792022792022953,2.120113214375651,-0.2185087408600318,2.103939819043883,-2.103939819043882,-2.3318600469641115,-2.322448559903914,-2.3480334422958804
118,-0.22792022792022953,2.1727935786547543,-0.22420552813298522,2.1619803928530668,-2.1619803928530668,-2.3899006207732962,-2.386185920986052,-2.400713806574984
119,-0.22792022792022953,2.2241776904176667,-0.236936057323067,2.2120792131886997,-2.2120792131886997,-2.439999441108929,-2.449015270511767,-2.452097918337896
120,-0.22792022792022953,2.27421738511298,-0.25750224034811386,2.252934764412619,-2.252934764412619,-2.4808549923328487,-2.510437004760733,-2.5021376130332094
121,-0.22792022792022953,2.322874012478717,-0.28515698751581653,2.284956555203814,-2.284956555203814,-2.5128767831240433,-2.57011354271963,-2.5507942403989463
123,-0.22792022792022953,2.41751661904773,-0.31760720390493297,2.3102498602421786,-2.310249860242178,-2.5381700881624076,-2.6278570641471113,-2.6454368469679594
124,-0.4161056997188479,2.273836286184568,-0.35148073662014145,2.332108522766041,-2.332108522766041,-2.748214222484889,-2.6835892593861823,-2.689941985903416
125,-0.45584045584045907,2.2771527843577637,-0.3831720839900306,2.354127762274109,-2.3541277622741084,-2.8099682181145673,-2.737299846264139,-2.7329932401982227
126,-0.45584045584045907,2.318751280657185,-0.40983694649888436,2.379183786069477,-2.3791837860694764,-2.8350242419099354,-2.789020732568361,-2.774591736497644
128,-0.45584045584045907,2.3997286545680425,-0.43023002350206774,2.408587805790609,-2.40858780579061,-2.864428261631069,-2.838817829292678,-2.8555691104085015
129,-0.455840455840459,2.4371463573912195,-0.44511322705938383,2.4416772699515157,-2.441677269951516,-2.897517725791975,-2.8867904970109,-2.8929868132316785
130,-0.45584045584045907,2.4731651134927923,-0.4570959210833496,2.475969096969962,-2.4759690969699624,-2.9318095528104213,-2.9330650180533118,-2.9290055693332513
131,-0.455840455840459,2.5078119386954834,-0.4699543842486339,2.5078198598924173,-2.5078198598924177,-2.9636603157328767,-2.9777742441410515,-2.9636523945359423
133,-0.45584045584045907,2.575569057543813,-0.4876413732363955,2.5333849943490074,-2.533384994349008,-2.989225450189467,-3.0210263675854034,-3.031409513384272
134,-0.455840455840459,2.606350899135022,-0.5132774857289683,2.549597377228965,-2.5495973772289657,-3.0054378330694247,-3.062874862957934,-3.062191354975481
135,-0.45584045584045907,2.63588364402148,-0.5483925009338777,2.554911275203612,-2.5549112752036125,-3.0107517310440715,-3.10330377613749,-3.091724099861939
137,-0.6837606837606884,2.4660337815772135,-0.5925810927035635,2.5496555803813,-2.5496555803812995,-3.233416264141988,-3.142236673084863,-3.149794465337902
138,-0.6837606837606885,2.4920744538590673,-0.6436053496510291,2.535961749213267,-2.5359617492132673,-3.2197224329739558,-3.1795670988642963,-3.1758351376197558
140,-0.6837606837606885,2.5435282862993036,-0.6978680006224243,2.5173305188294948,-2.517330518829494,-3.2010912025901823,-3.215198519451918,-3.227288970059992
141,-0.6837606837606887,2.566377252671602,-0.7511229278814333,2.497954569752159,-2.4979545697521592,-3.1817152535128477,-3.2490774976335928,-3.2501379364322904
142,-0.7938178596295338,2.478167199724166,-0.7992801400470546,2.4819273092521286,-2.481927309252129,-3.275745168881663,-3.281207449299184,-3.2719850593537
144,-0.911680911680911,2.4038279466097503,-0.8391752954112259,2.472464376237093,-2.472464376237093,-3.3841452879180043,-3.3116396716483187,-3.3155088582906616
145,-0.9116809116809108,2.4228837429295704,-0.8691852089759415,2.471263341364689,-2.471263341364689,-3.3829442530455998,-3.3404485503406303,-3.3345646546104812
147,-0.9116809116809108,2.4611279896920686,-0.8895758068694365,2.478128220128148,-2.4781282201281476,-3.3898091318090584,-3.367704026997584,-3.3728089013729794
148,-0.911680911680911,2.477671884112884,-0.902484085764776,2.4909700097053555,-2.490970009705355,-3.4026509213862663,-3.393454095470131,-3.389352795793795
150,-0.9116809116809108,2.5111740154533866,-0.9114836825803934,2.506240454555825,-2.506240454555826,-3.4179213662367367,-3.4177241371362195,-3.4228549271342974
151,-0.9116809116809108,2.525463413351847,-0.9207743290885013,2.5197569362569805,-2.519756936256981,-3.4314378479378917,-3.4405312653454825,-3.437144325032758
153,-0.9116809116809108,2.554722478503776,-0.9341525009442266,2.5277523519570506,-2.5277523519570506,-3.4394332636379614,-3.4619048529012773,-3.466403390184687
154,-0.9116809116809108,2.566990308477949,-0.9540216067382157,2.527880606485197,-2.527880606485197,-3.4395615181661077,-3.4819022132234125,-3.47867122015886
156,-0.9116809116809108,2.5924621140414703,-0.9807340555437314,2.5198774667620754,-2.519877466762075,-3.4315583784429857,-3.5006115223058063,-3.504143025722381
