frequency,raw
20.00,-0.31
20.20,-0.25
20.40,-0.20
20.61,-0.14
20.81,-0.09
21.02,-0.03
21.23,0.04
21.44,0.10
21.66,0.17
21.87,0.24
22.09,0.31
22.31,0.38
22.54,0.44
22.76,0.51
22.99,0.58
23.22,0.63
23.45,0.69
23.69,0.75
23.92,0.80
24.16,0.86
24.40,0.92
24.65,0.98
24.89,1.04
25.14,1.10
25.39,1.15
25.65,1.20
25.91,1.25
26.16,1.30
26.43,1.35
26.69,1.39
26.96,1.44
27.23,1.49
27.50,1.54
27.77,1.59
28.05,1.64
28.33,1.68
28.62,1.72
28.90,1.76
29.19,1.80
29.48,1.84
29.78,1.88
30.08,1.92
30.38,1.97
30.68,2.02
30.99,2.07
31.30,2.11
31.61,2.16
31.93,2.21
32.24,2.26
32.57,2.31
32.89,2.36
33.22,2.41
33.55,2.45
33.89,2.49
34.23,2.53
34.57,2.58
34.92,2.63
35.27,2.67
35.62,2.70
35.97,2.74
36.33,2.78
36.70,2.82
37.06,2.85
37.43,2.88
37.81,2.91
38.19,2.94
38.57,2.97
38.95,3.00
39.34,3.02
39.74,3.04
40.14,3.07
40.54,3.09
40.94,3.11
41.35,3.14
41.76,3.17
42.18,3.20
42.60,3.21
43.03,3.23
43.46,3.26
43.90,3.28
44.33,3.30
44.78,3.32
45.23,3.34
45.68,3.36
46.13,3.39
46.60,3.41
47.06,3.43
47.53,3.45
48.01,3.46
48.49,3.49
48.97,3.52
49.46,3.54
49.96,3.57
50.46,3.58
50.96,3.59
51.47,3.60
51.99,3.61
52.51,3.64
53.03,3.66
53.56,3.68
54.10,3.70
54.64,3.71
55.18,3.72
55.74,3.74
56.29,3.76
56.86,3.79
57.42,3.80
58.00,3.80
58.58,3.83
59.16,3.85
59.76,3.87
60.35,3.88
60.96,3.89
61.57,3.90
62.18,3.91
62.80,3.93
63.43,3.95
64.07,3.97
64.71,3.98
65.35,3.99
66.01,3.99
66.67,4.00
67.33,4.02
68.01,4.03
68.69,4.03
69.37,4.03
70.07,4.03
70.77,4.05
71.48,4.07
72.19,4.08
72.91,4.08
73.64,4.08
74.38,4.08
75.12,4.08
75.87,4.08
76.63,4.11
77.40,4.13
78.17,4.13
78.95,4.13
79.74,4.13
80.54,4.15
81.35,4.17
82.16,4.17
82.98,4.17
83.81,4.17
84.65,4.17
85.50,4.17
86.35,4.17
87.22,4.17
88.09,4.17
88.97,4.17
89.86,4.17
90.76,4.18
91.66,4.21
92.58,4.22
93.51,4.22
94.44,4.22
95.39,4.22
96.34,4.22
97.30,4.22
98.28,4.23
99.26,4.24
100.25,4.24
101.25,4.25
102.27,4.27
103.29,4.27
104.32,4.27
105.37,4.27
106.42,4.27
107.48,4.27
108.56,4.27
109.64,4.27
110.74,4.27
111.85,4.27
112.97,4.27
114.10,4.26
115.24,4.24
116.39,4.24
117.55,4.24
118.73,4.24
119.92,4.24
121.12,4.22
122.33,4.22
123.55,4.22
124.79,4.22
126.03,4.22
127.29,4.22
128.57,4.22
129.85,4.22
131.15,4.22
132.46,4.22
133.79,4.24
135.12,4.27
136.48,4.26
137.84,4.24
139.22,4.24
140.61,4.24
142.02,4.24
143.44,4.24
144.87,4.22
146.32,4.22
147.78,4.22
149.26,4.21
150.75,4.19
152.26,4.18
153.78,4.17
155.32,4.17
156.88,4.17
158.44,4.17
160.03,4.17
161.63,4.15
163.24,4.13
164.88,4.13
166.53,4.13
168.19,4.10
169.87,4.08
171.57,4.08
173.29,4.07
175.02,4.04
176.77,4.03
178.54,4.03
180.32,4.03
182.13,4.03
183.95,4.03
185.79,4.03
187.65,4.02
189.52,4.00
191.42,3.99
193.33,3.99
195.27,3.99
197.22,3.99
199.19,3.98
201.18,3.96
203.19,3.94
205.23,3.94
207.28,3.91
209.35,3.89
211.44,3.87
213.56,3.85
215.69,3.85
217.85,3.85
220.03,3.82
222.23,3.80
224.45,3.78
226.70,3.75
228.96,3.75
231.25,3.75
233.57,3.72
235.90,3.71
238.26,3.67
240.64,3.66
243.05,3.66
245.48,3.62
247.93,3.61
250.41,3.59
252.92,3.57
255.45,3.53
258.00,3.52
260.58,3.49
263.19,3.47
265.82,3.43
268.48,3.41
271.16,3.39
273.87,3.38
276.61,3.34
279.38,3.33
282.17,3.30
284.99,3.29
287.84,3.29
290.72,3.24
293.63,3.24
296.57,3.21
299.53,3.19
302.53,3.17
305.55,3.15
308.61,3.14
311.69,3.10
314.81,3.08
317.96,3.06
321.14,3.02
324.35,2.99
327.59,2.96
330.87,2.93
334.18,2.92
337.52,2.89
340.90,2.88
344.30,2.83
347.75,2.79
351.23,2.78
354.74,2.75
358.28,2.71
361.87,2.69
365.49,2.65
369.14,2.62
372.83,2.60
376.56,2.57
380.33,2.55
384.13,2.51
387.97,2.50
391.85,2.46
395.77,2.45
399.73,2.42
403.72,2.39
407.76,2.36
411.84,2.32
415.96,2.30
420.12,2.27
424.32,2.24
428.56,2.21
432.85,2.18
437.18,2.15
441.55,2.13
445.96,2.09
450.42,2.05
454.93,2.03
459.48,2.00
464.07,1.97
468.71,1.93
473.40,1.89
478.13,1.85
482.91,1.82
487.74,1.78
492.62,1.75
497.55,1.70
502.52,1.66
507.55,1.62
512.62,1.58
517.75,1.55
522.93,1.52
528.16,1.48
533.44,1.43
538.77,1.40
544.16,1.35
549.60,1.32
555.10,1.29
560.65,1.25
566.25,1.20
571.92,1.17
577.64,1.14
583.41,1.09
589.25,1.05
595.14,1.02
601.09,0.97
607.10,0.93
613.17,0.89
619.30,0.85
625.50,0.80
631.75,0.77
638.07,0.73
644.45,0.69
650.89,0.65
657.40,0.62
663.98,0.59
670.62,0.55
677.32,0.50
684.10,0.47
690.94,0.44
697.85,0.40
704.83,0.38
711.87,0.33
718.99,0.29
726.18,0.27
733.44,0.23
740.78,0.21
748.19,0.17
755.67,0.14
763.23,0.12
770.86,0.08
778.57,0.04
786.35,0.02
794.22,-0.01
802.16,-0.04
810.18,-0.06
818.28,-0.08
826.46,-0.11
834.73,-0.12
843.08,-0.12
851.51,-0.12
860.02,-0.14
868.62,-0.14
877.31,-0.14
886.08,-0.14
894.94,-0.14
903.89,-0.14
912.93,-0.14
922.06,-0.12
931.28,-0.12
940.59,-0.12
950.00,-0.12
959.50,-0.08
969.09,-0.07
978.78,-0.05
988.57,-0.02
998.46,-0.01
1008.44,0.02
1018.53,0.06
1028.71,0.11
1039.00,0.16
1049.39,0.22
1059.88,0.29
1070.48,0.36
1081.19,0.45
1092.00,0.53
1102.92,0.62
1113.95,0.70
1125.09,0.79
1136.34,0.87
1147.70,0.97
1159.18,1.07
1170.77,1.15
1182.48,1.25
1194.30,1.32
1206.25,1.41
1218.31,1.49
1230.49,1.59
1242.80,1.66
1255.22,1.75
1267.78,1.83
1280.45,1.91
1293.26,2.00
1306.19,2.07
1319.25,2.14
1332.45,2.22
1345.77,2.30
1359.23,2.38
1372.82,2.44
1386.55,2.51
1400.41,2.57
1414.42,2.64
1428.56,2.70
1442.85,2.77
1457.28,2.85
1471.85,2.92
1486.57,2.99
1501.43,3.06
1516.45,3.12
1531.61,3.19
1546.93,3.27
1562.40,3.34
1578.02,3.41
1593.80,3.48
1609.74,3.55
1625.84,3.63
1642.10,3.73
1658.52,3.80
1675.10,3.89
1691.85,3.99
1708.77,4.07
1725.86,4.17
1743.12,4.25
1760.55,4.35
1778.15,4.46
1795.94,4.54
1813.90,4.65
1832.03,4.76
1850.36,4.87
1868.86,4.98
1887.55,5.08
1906.42,5.19
1925.49,5.32
1944.74,5.44
1964.19,5.56
1983.83,5.68
2003.67,5.80
2023.71,5.93
2043.94,6.05
2064.38,6.16
2085.03,6.26
2105.88,6.39
2126.94,6.53
2148.20,6.64
2169.69,6.74
2191.38,6.86
2213.30,6.97
2235.43,7.05
2257.78,7.16
2280.36,7.27
2303.17,7.34
2326.20,7.43
2349.46,7.51
2372.95,7.58
2396.68,7.62
2420.65,7.66
2444.86,7.65
2469.31,7.63
2494.00,7.59
2518.94,7.54
2544.13,7.46
2569.57,7.35
2595.27,7.23
2621.22,7.08
2647.43,6.92
2673.90,6.72
2700.64,6.50
2727.65,6.28
2754.93,6.04
2782.48,5.81
2810.30,5.58
2838.40,5.36
2866.79,5.14
2895.46,4.93
2924.41,4.76
2953.65,4.61
2983.19,4.45
3013.02,4.33
3043.15,4.22
3073.58,4.11
3104.32,4.04
3135.36,3.95
3166.72,3.88
3198.38,3.81
3230.37,3.75
3262.67,3.70
3295.30,3.65
3328.25,3.61
3361.53,3.56
3395.15,3.52
3429.10,3.48
3463.39,3.44
3498.03,3.42
3533.01,3.39
3568.34,3.38
3604.02,3.38
3640.06,3.38
3676.46,3.38
3713.22,3.38
3750.36,3.38
3787.86,3.38
3825.74,3.42
3864.00,3.43
3902.64,3.46
3941.66,3.50
3981.08,3.53
4020.89,3.58
4061.10,3.64
4101.71,3.67
4142.73,3.72
4184.15,3.79
4226.00,3.87
4268.26,3.95
4310.94,4.03
4354.05,4.10
4397.59,4.20
4441.56,4.29
4485.98,4.37
4530.84,4.48
4576.15,4.59
4621.91,4.71
4668.13,4.82
4714.81,4.94
4761.96,5.06
4809.58,5.18
4857.67,5.30
4906.25,5.40
4955.31,5.51
5004.87,5.59
5054.91,5.68
5105.46,5.76
5156.52,5.82
5208.08,5.85
5260.16,5.89
5312.77,5.90
5365.89,5.86
5419.55,5.83
5473.75,5.79
5528.49,5.73
5583.77,5.67
5639.61,5.58
5696.00,5.47
5752.96,5.37
5810.49,5.24
5868.60,5.12
5927.28,4.99
5986.56,4.87
6046.42,4.76
6106.89,4.66
6167.96,4.59
6229.64,4.54
6291.93,4.52
6354.85,4.57
6418.40,4.64
6482.58,4.74
6547.41,4.88
6612.88,5.05
6679.01,5.25
6745.80,5.48
6813.26,5.73
6881.39,6.00
6950.21,6.31
7019.71,6.67
7089.91,7.05
7160.81,7.47
7232.41,7.94
7304.74,8.45
7377.79,8.93
7451.56,9.41
7526.08,9.88
7601.34,10.24
7677.35,10.56
7754.13,10.79
7831.67,10.78
7909.98,10.58
7989.08,10.23
8068.98,9.71
8149.67,9.09
8231.16,8.35
8313.47,7.54
8396.61,6.70
8480.57,5.82
8565.38,4.93
8651.03,4.05
8737.54,3.17
8824.92,2.27
8913.17,1.39
9002.30,0.49
9092.32,-0.42
9183.25,-1.36
9275.08,-2.27
9367.83,-3.13
9461.51,-3.89
9556.12,-4.56
9651.68,-5.07
9748.20,-5.42
9845.68,-5.59
9944.14,-5.57
10043.58,-5.37
10144.02,-5.07
10245.46,-4.67
10347.91,-4.21
10451.39,-3.73
10555.91,-3.24
10661.46,-2.75
10768.08,-2.32
10875.76,-1.93
10984.52,-1.61
11094.36,-1.39
11205.31,-1.25
11317.36,-1.20
11430.53,-1.22
11544.84,-1.31
11660.29,-1.43
11776.89,-1.57
11894.66,-1.72
12013.60,-1.89
12133.74,-2.00
12255.08,-2.12
12377.63,-2.20
12501.41,-2.28
12626.42,-2.35
12752.68,-2.42
12880.21,-2.48
13009.01,-2.55
13139.10,-2.66
13270.49,-2.77
13403.20,-2.91
13537.23,-3.11
13672.60,-3.39
13809.33,-3.75
13947.42,-4.21
14086.90,-4.79
14227.77,-5.46
14370.04,-6.22
14513.74,-7.05
14658.88,-7.96
14805.47,-8.92
14953.52,-9.90
15103.06,-10.92
15254.09,-11.94
15406.63,-12.95
15560.70,-13.93
15716.30,-14.88
15873.47,-15.79
16032.20,-16.60
16192.52,-17.16
16354.45,-17.54
16517.99,-17.81
16683.17,-17.85
16850.01,-17.84
17018.51,-17.83
17188.69,-17.82
17360.58,-17.81
17534.18,-17.80
17709.53,-17.65
17886.62,-17.51
18065.49,-17.32
18246.14,-17.24
18428.60,-17.40
18612.89,-17.54
18799.02,-17.73
18987.01,-17.94
19176.88,-18.16
19368.65,-18.37
19562.33,-18.59
19757.96,-18.81
19955.54,-19.03
