frequency,raw,error,smoothed,error_smoothed,equalization,parametric_eq,fixed_band_eq,equalized_raw,equalized_smoothed,target
20.00,-25.52,-24.29,-25.51,-24.30,6.00,4.31,2.85,-19.52,-19.51,-1.23
20.20,-25.35,-24.17,-25.35,-24.18,6.00,4.38,2.93,-19.35,-19.35,-1.18
20.40,-25.19,-24.05,-25.18,-24.05,6.00,4.45,3.01,-19.19,-19.18,-1.13
20.61,-25.02,-23.92,-25.03,-23.93,6.00,4.52,3.10,-19.02,-19.03,-1.10
20.81,-24.85,-23.79,-24.87,-23.80,6.00,4.59,3.18,-18.85,-18.87,-1.05
21.02,-24.69,-23.67,-24.71,-23.67,6.00,4.66,3.27,-18.69,-18.71,-1.01
21.23,-24.54,-23.54,-24.55,-23.54,6.00,4.73,3.37,-18.54,-18.55,-0.99
21.44,-24.40,-23.42,-24.40,-23.40,6.00,4.81,3.46,-18.40,-18.40,-0.97
21.66,-24.26,-23.31,-24.24,-23.27,6.00,4.88,3.56,-18.26,-18.24,-0.96
21.87,-24.11,-23.16,-24.09,-23.14,6.00,4.95,3.66,-18.11,-18.09,-0.95
22.09,-23.96,-23.03,-23.94,-23.00,6.00,5.02,3.77,-17.96,-17.94,-0.93
22.31,-23.80,-22.88,-23.79,-22.86,6.00,5.10,3.88,-17.80,-17.79,-0.92
22.54,-23.64,-22.73,-23.64,-22.72,6.00,5.17,3.99,-17.64,-17.64,-0.92
22.76,-23.48,-22.56,-23.50,-22.58,6.00,5.24,4.10,-17.48,-17.50,-0.92
22.99,-23.32,-22.39,-23.35,-22.44,6.00,5.32,4.22,-17.32,-17.35,-0.93
23.22,-23.18,-22.25,-23.21,-22.30,6.00,5.39,4.33,-17.18,-17.21,-0.93
23.45,-23.05,-22.12,-23.06,-22.15,6.00,5.46,4.45,-17.05,-17.06,-0.93
23.69,-22.91,-21.99,-22.91,-22.00,6.00,5.53,4.58,-16.91,-16.91,-0.92
23.92,-22.77,-21.85,-22.76,-21.85,6.00,5.60,4.70,-16.77,-16.76,-0.92
24.16,-22.63,-21.72,-22.61,-21.70,6.00,5.67,4.83,-16.63,-16.61,-0.91
24.40,-22.48,-21.58,-22.45,-21.54,6.00,5.74,4.96,-16.48,-16.45,-0.90
24.65,-22.34,-21.43,-22.30,-21.39,6.00,5.81,5.10,-16.34,-16.30,-0.91
24.89,-22.19,-21.28,-22.14,-21.23,6.00,5.88,5.23,-16.19,-16.14,-0.91
25.14,-22.02,-21.11,-21.99,-21.08,6.00,5.95,5.37,-16.02,-15.99,-0.91
25.39,-21.83,-20.92,-21.83,-20.92,6.00,6.01,5.51,-15.83,-15.83,-0.90
25.65,-21.65,-20.75,-21.66,-20.75,6.00,6.08,5.64,-15.65,-15.66,-0.90
25.91,-21.46,-20.55,-21.49,-20.59,6.00,6.14,5.78,-15.46,-15.49,-0.91
26.16,-21.30,-20.38,-21.33,-20.42,6.00,6.20,5.92,-15.30,-15.33,-0.91
26.43,-21.15,-20.24,-21.17,-20.27,6.00,6.26,6.06,-15.15,-15.17,-0.91
26.69,-21.01,-20.09,-21.02,-20.11,6.00,6.32,6.20,-15.01,-15.02,-0.91
26.96,-20.86,-19.96,-20.87,-19.96,6.00,6.37,6.33,-14.86,-14.87,-0.91
27.23,-20.70,-19.80,-20.72,-19.81,6.00,6.43,6.47,-14.70,-14.72,-0.91
27.50,-20.54,-19.63,-20.57,-19.65,6.00,6.48,6.60,-14.54,-14.57,-0.91
27.77,-20.38,-19.46,-20.41,-19.50,6.00,6.52,6.72,-14.38,-14.41,-0.92
28.05,-20.23,-19.31,-20.26,-19.34,6.00,6.57,6.84,-14.23,-14.26,-0.92
28.33,-20.12,-19.19,-20.10,-19.18,6.00,6.61,6.96,-14.12,-14.10,-0.93
28.62,-20.01,-19.08,-19.94,-19.02,6.00,6.65,7.07,-14.01,-13.94,-0.93
28.90,-19.90,-18.98,-19.78,-18.86,6.00,6.69,7.17,-13.90,-13.78,-0.92
29.19,-19.71,-18.78,-19.62,-18.70,6.00,6.73,7.26,-13.71,-13.62,-0.93
29.48,-19.48,-18.56,-19.45,-18.53,6.00,6.76,7.35,-13.48,-13.45,-0.91
29.78,-19.25,-18.33,-19.29,-18.36,6.00,6.78,7.42,-13.25,-13.29,-0.92
30.08,-19.04,-18.13,-19.12,-18.19,6.00,6.81,7.49,-13.04,-13.12,-0.91
30.38,-18.89,-17.97,-18.95,-18.02,6.00,6.83,7.54,-12.89,-12.95,-0.93
30.68,-18.74,-17.81,-18.78,-17.85,6.00,6.85,7.58,-12.74,-12.78,-0.93
30.99,-18.59,-17.66,-18.61,-17.68,6.00,6.86,7.61,-12.59,-12.61,-0.93
31.30,-18.43,-17.50,-18.44,-17.51,6.00,6.87,7.63,-12.43,-12.44,-0.93
31.61,-18.27,-17.34,-18.26,-17.33,6.00,6.88,7.64,-12.27,-12.26,-0.93
31.93,-18.11,-17.18,-18.10,-17.16,6.00,6.89,7.63,-12.11,-12.10,-0.93
32.24,-17.95,-17.00,-17.94,-17.00,6.00,6.89,7.62,-11.95,-11.94,-0.94
32.57,-17.79,-16.86,-17.78,-16.84,6.00,6.88,7.59,-11.79,-11.78,-0.93
32.89,-17.63,-16.69,-17.63,-16.68,6.00,6.88,7.55,-11.63,-11.63,-0.94
33.22,-17.47,-16.52,-17.47,-16.52,6.00,6.87,7.51,-11.47,-11.47,-0.95
33.55,-17.31,-16.36,-17.31,-16.36,6.00,6.85,7.45,-11.31,-11.31,-0.95
33.89,-17.15,-16.19,-17.15,-16.20,6.00,6.84,7.38,-11.15,-11.15,-0.96
34.23,-16.99,-16.04,-16.99,-16.03,6.00,6.82,7.31,-10.99,-10.99,-0.95
34.57,-16.84,-15.88,-16.83,-15.87,6.00,6.79,7.23,-10.84,-10.83,-0.96
34.92,-16.68,-15.72,-16.67,-15.70,6.00,6.77,7.15,-10.68,-10.67,-0.97
35.27,-16.51,-15.54,-16.51,-15.54,6.00,6.74,7.06,-10.51,-10.51,-0.97
35.62,-16.33,-15.36,-16.34,-15.37,6.00,6.71,6.97,-10.33,-10.34,-0.97
35.97,-16.15,-15.18,-16.17,-15.21,6.00,6.68,6.87,-10.15,-10.17,-0.97
36.33,-16.00,-15.03,-16.01,-15.04,6.00,6.64,6.78,-10.00,-10.01,-0.96
36.70,-15.85,-14.87,-15.84,-14.87,6.00,6.60,6.68,-9.85,-9.84,-0.98
37.06,-15.69,-14.71,-15.67,-14.70,6.00,6.56,6.58,-9.69,-9.67,-0.98
37.43,-15.52,-14.56,-15.50,-14.53,6.00,6.52,6.48,-9.52,-9.50,-0.96
37.81,-15.35,-14.39,-15.33,-14.36,6.00,6.48,6.38,-9.35,-9.33,-0.96
38.19,-15.17,-14.20,-15.16,-14.19,6.00,6.44,6.28,-9.17,-9.16,-0.97
38.57,-14.97,-14.01,-14.99,-14.03,6.00,6.39,6.19,-8.97,-8.99,-0.96
38.95,-14.78,-13.83,-14.82,-13.86,6.00,6.35,6.09,-8.78,-8.82,-0.95
39.34,-14.62,-13.66,-14.65,-13.69,6.00,6.30,6.00,-8.62,-8.65,-0.95
39.74,-14.46,-13.50,-14.48,-13.52,6.00,6.25,5.91,-8.46,-8.48,-0.96
40.14,-14.30,-13.35,-14.31,-13.35,6.00,6.21,5.83,-8.30,-8.31,-0.95
40.54,-14.13,-13.18,-14.13,-13.18,6.00,6.16,5.75,-8.13,-8.13,-0.95
40.94,-13.97,-13.01,-13.95,-13.00,6.00,6.11,5.67,-7.97,-7.95,-0.96
41.35,-13.80,-12.84,-13.77,-12.81,6.00,6.07,5.59,-7.80,-7.77,-0.96
41.76,-13.63,-12.66,-13.59,-12.63,6.00,6.02,5.52,-7.63,-7.59,-0.97
42.18,-13.45,-12.49,-13.42,-12.45,6.00,5.98,5.45,-7.45,-7.42,-0.96
42.60,-13.26,-12.28,-13.24,-12.26,6.00,5.94,5.39,-7.26,-7.24,-0.97
43.03,-13.07,-12.09,-13.06,-12.07,6.00,5.90,5.32,-7.07,-7.06,-0.98
43.46,-12.87,-11.89,-12.88,-11.88,6.00,5.86,5.27,-6.87,-6.88,-0.98
43.90,-12.68,-11.67,-12.69,-11.69,6.00,5.82,5.22,-6.68,-6.69,-1.01
44.33,-12.48,-11.46,-12.51,-11.49,6.00,5.79,5.17,-6.48,-6.51,-1.02
44.78,-12.28,-11.24,-12.33,-11.30,6.00,5.76,5.12,-6.28,-6.33,-1.04
45.23,-12.12,-11.08,-12.15,-11.11,6.00,5.73,5.08,-6.12,-6.15,-1.04
45.68,-12.00,-10.94,-11.97,-10.92,6.00,5.70,5.05,-6.00,-5.97,-1.06
46.13,-11.84,-10.77,-11.79,-10.73,6.00,5.68,5.01,-5.84,-5.79,-1.07
46.60,-11.61,-10.54,-11.61,-10.54,6.00,5.67,4.98,-5.61,-5.61,-1.07
47.06,-11.39,-10.31,-11.43,-10.35,6.00,5.65,4.96,-5.39,-5.43,-1.08
47.53,-11.24,-10.15,-11.26,-10.17,6.00,5.65,4.94,-5.24,-5.26,-1.09
48.01,-11.10,-10.01,-11.09,-9.99,6.00,5.64,4.92,-5.10,-5.09,-1.09
48.49,-10.93,-9.83,-10.92,-9.80,6.00,5.64,4.90,-4.93,-4.92,-1.10
48.97,-10.77,-9.65,-10.74,-9.62,6.00,5.65,4.89,-4.77,-4.74,-1.12
49.46,-10.58,-9.44,-10.57,-9.44,6.00,5.66,4.88,-4.58,-4.57,-1.14
49.96,-10.39,-9.24,-10.39,-9.25,6.00,5.68,4.88,-4.39,-4.39,-1.15
50.46,-10.19,-9.04,-10.21,-9.06,6.00,5.70,4.87,-4.19,-4.21,-1.15
50.96,-9.99,-8.83,-10.02,-8.86,6.00,5.73,4.87,-3.99,-4.02,-1.16
51.47,-9.86,-8.68,-9.84,-8.68,6.00,5.76,4.87,-3.86,-3.84,-1.18
51.99,-9.74,-8.55,-9.67,-8.50,6.00,5.79,4.87,-3.74,-3.67,-1.19
52.51,-9.50,-8.32,-9.49,-8.30,6.00,5.83,4.87,-3.50,-3.49,-1.18
53.03,-9.26,-8.08,-9.30,-8.10,6.00,5.87,4.87,-3.26,-3.30,-1.18
53.56,-9.10,-7.91,-9.10,-7.91,6.00,5.90,4.88,-3.10,-3.10,-1.19
54.10,-8.93,-7.73,-8.92,-7.71,6.00,5.94,4.88,-2.93,-2.92,-1.20
54.64,-8.74,-7.53,-8.74,-7.53,6.00,5.96,4.88,-2.74,-2.74,-1.21
55.18,-8.55,-7.33,-8.56,-7.35,6.00,5.99,4.89,-2.55,-2.56,-1.21
55.74,-8.37,-7.15,-8.39,-7.17,6.00,6.00,4.89,-2.37,-2.39,-1.22
56.29,-8.21,-6.98,-8.21,-6.98,6.00,6.00,4.88,-2.21,-2.21,-1.23
56.86,-8.05,-6.81,-8.03,-6.80,6.00,5.98,4.88,-2.05,-2.03,-1.24
57.42,-7.83,-6.57,-7.85,-6.60,6.00,5.95,4.87,-1.83,-1.85,-1.26
58.00,-7.58,-6.32,-7.67,-6.41,5.98,5.90,4.86,-1.60,-1.70,-1.26
58.58,-7.49,-6.23,-7.51,-6.23,5.92,5.82,4.85,-1.57,-1.59,-1.26
59.16,-7.39,-6.11,-7.34,-6.05,5.84,5.73,4.83,-1.55,-1.51,-1.28
59.76,-7.24,-5.95,-7.18,-5.86,5.73,5.61,4.81,-1.52,-1.45,-1.29
60.35,-7.07,-5.74,-7.01,-5.67,5.59,5.48,4.78,-1.48,-1.42,-1.33
60.96,-6.87,-5.52,-6.84,-5.48,5.44,5.33,4.75,-1.43,-1.40,-1.35
61.57,-6.66,-5.28,-6.68,-5.29,5.28,5.16,4.71,-1.38,-1.40,-1.38
62.18,-6.46,-5.04,-6.52,-5.10,5.10,4.98,4.66,-1.36,-1.42,-1.42
62.80,-6.31,-4.85,-6.36,-4.90,4.90,4.78,4.61,-1.40,-1.45,-1.46
63.43,-6.20,-4.71,-6.20,-4.72,4.72,4.58,4.56,-1.48,-1.48,-1.49
64.07,-6.08,-4.55,-6.05,-4.53,4.53,4.38,4.50,-1.55,-1.52,-1.53
64.71,-5.94,-4.37,-5.90,-4.34,4.34,4.17,4.43,-1.60,-1.56,-1.57
65.35,-5.76,-4.16,-5.75,-4.15,4.15,3.96,4.36,-1.61,-1.59,-1.60
66.01,-5.55,-3.92,-5.60,-3.97,3.97,3.75,4.28,-1.58,-1.63,-1.63
66.67,-5.41,-3.74,-5.46,-3.79,3.79,3.55,4.20,-1.62,-1.67,-1.67
67.33,-5.30,-3.59,-5.33,-3.62,3.62,3.34,4.11,-1.68,-1.71,-1.71
68.01,-5.22,-3.48,-5.20,-3.45,3.45,3.14,4.02,-1.77,-1.75,-1.74
68.69,-5.08,-3.30,-5.08,-3.29,3.29,2.95,3.92,-1.79,-1.79,-1.78
69.37,-4.95,-3.12,-4.95,-3.12,3.12,2.76,3.82,-1.82,-1.83,-1.82
70.07,-4.83,-2.96,-4.81,-2.95,2.95,2.57,3.71,-1.88,-1.87,-1.87
70.77,-4.69,-2.79,-4.67,-2.76,2.76,2.40,3.61,-1.92,-1.91,-1.90
71.48,-4.58,-2.64,-4.54,-2.59,2.59,2.22,3.50,-1.99,-1.95,-1.94
72.19,-4.46,-2.46,-4.42,-2.42,2.42,2.06,3.38,-2.03,-2.00,-2.00
72.91,-4.31,-2.27,-4.30,-2.26,2.26,1.89,3.27,-2.05,-2.04,-2.04
73.64,-4.18,-2.09,-4.18,-2.09,2.09,1.74,3.15,-2.09,-2.08,-2.08
74.38,-4.06,-1.93,-4.06,-1.93,1.93,1.59,3.04,-2.13,-2.13,-2.13
75.12,-3.94,-1.76,-3.92,-1.75,1.75,1.44,2.92,-2.19,-2.17,-2.18
75.87,-3.78,-1.56,-3.79,-1.57,1.57,1.30,2.80,-2.21,-2.21,-2.22
76.63,-3.58,-1.32,-3.67,-1.41,1.41,1.17,2.68,-2.17,-2.25,-2.26
77.40,-3.48,-1.18,-3.56,-1.26,1.26,1.03,2.56,-2.22,-2.29,-2.30
78.17,-3.48,-1.13,-3.45,-1.11,1.11,0.91,2.43,-2.36,-2.33,-2.35
78.95,-3.42,-1.05,-3.33,-0.96,0.96,0.78,2.31,-2.46,-2.37,-2.36
79.74,-3.29,-0.88,-3.21,-0.80,0.80,0.66,2.19,-2.49,-2.40,-2.40
80.54,-3.09,-0.65,-3.12,-0.68,0.68,0.55,2.07,-2.41,-2.44,-2.43
81.35,-2.97,-0.49,-3.04,-0.56,0.56,0.44,1.95,-2.41,-2.47,-2.47
82.16,-2.94,-0.43,-2.94,-0.44,0.44,0.33,1.83,-2.50,-2.50,-2.51
82.98,-2.65,-0.12,-2.84,-0.30,0.30,0.23,1.71,-2.35,-2.54,-2.53
83.81,-2.82,-0.25,-2.74,-0.17,0.17,0.13,1.59,-2.65,-2.57,-2.57
84.65,-2.86,-0.26,-2.66,-0.06,0.06,0.03,1.48,-2.80,-2.60,-2.60
85.50,-2.63,-0.00,-2.60,0.04,-0.04,-0.06,1.36,-2.67,-2.63,-2.63
86.35,-2.38,0.28,-2.52,0.15,-0.15,-0.16,1.24,-2.53,-2.67,-2.66
87.22,-2.36,0.34,-2.44,0.26,-0.26,-0.24,1.12,-2.62,-2.70,-2.69
88.09,-2.46,0.27,-2.37,0.37,-0.37,-0.33,1.01,-2.83,-2.73,-2.73
88.97,-2.56,0.21,-2.32,0.45,-0.45,-0.41,0.89,-3.01,-2.77,-2.77
89.86,-2.07,0.73,-2.27,0.53,-0.53,-0.49,0.78,-2.60,-2.80,-2.80
90.76,-1.99,0.85,-2.20,0.63,-0.63,-0.56,0.66,-2.62,-2.83,-2.84
91.66,-2.05,0.81,-2.14,0.72,-0.72,-0.63,0.55,-2.77,-2.87,-2.86
92.58,-2.24,0.67,-2.10,0.80,-0.80,-0.70,0.44,-3.04,-2.90,-2.91
93.51,-2.32,0.62,-2.04,0.90,-0.90,-0.77,0.33,-3.21,-2.93,-2.94
94.44,-2.06,0.91,-2.00,0.96,-0.96,-0.83,0.22,-3.02,-2.96,-2.97
95.39,-1.81,1.18,-1.98,1.02,-1.02,-0.89,0.10,-2.83,-3.00,-2.99
96.34,-1.91,1.12,-1.96,1.06,-1.06,-0.95,-0.01,-2.97,-3.03,-3.03
97.30,-2.01,1.05,-1.94,1.12,-1.12,-1.00,-0.11,-3.13,-3.06,-3.06
98.28,-1.96,1.13,-1.92,1.16,-1.16,-1.05,-0.22,-3.12,-3.09,-3.09
99.26,-1.79,1.33,-1.93,1.19,-1.19,-1.10,-0.33,-2.98,-3.12,-3.12
100.25,-1.78,1.37,-1.94,1.21,-1.21,-1.15,-0.44,-2.99,-3.15,-3.15
101.25,-1.98,1.20,-1.93,1.25,-1.25,-1.19,-0.54,-3.23,-3.18,-3.18
102.27,-1.99,1.22,-1.93,1.28,-1.28,-1.23,-0.64,-3.27,-3.21,-3.20
103.29,-2.00,1.25,-1.95,1.29,-1.29,-1.27,-0.75,-3.29,-3.24,-3.24
104.32,-2.02,1.24,-1.99,1.28,-1.28,-1.30,-0.85,-3.30,-3.27,-3.26
105.37,-2.04,1.25,-2.05,1.26,-1.26,-1.33,-0.95,-3.29,-3.30,-3.29
106.42,-2.07,1.25,-2.09,1.24,-1.24,-1.36,-1.04,-3.31,-3.33,-3.32
107.48,-2.09,1.27,-2.12,1.24,-1.24,-1.39,-1.14,-3.33,-3.37,-3.36
108.56,-2.12,1.28,-2.16,1.24,-1.24,-1.41,-1.23,-3.36,-3.40,-3.40
109.64,-2.14,1.29,-2.19,1.24,-1.24,-1.43,-1.32,-3.38,-3.43,-3.43
110.74,-2.15,1.32,-2.23,1.24,-1.24,-1.45,-1.40,-3.39,-3.47,-3.47
111.85,-2.32,1.17,-2.26,1.24,-1.24,-1.46,-1.49,-3.56,-3.50,-3.49
112.97,-2.53,1.01,-2.27,1.27,-1.27,-1.48,-1.57,-3.80,-3.53,-3.54
114.10,-2.39,1.18,-2.28,1.28,-1.28,-1.49,-1.64,-3.67,-3.56,-3.57
115.24,-2.29,1.30,-2.30,1.29,-1.29,-1.50,-1.71,-3.58,-3.59,-3.59
116.39,-2.29,1.34,-2.30,1.32,-1.32,-1.50,-1.78,-3.61,-3.62,-3.63
117.55,-2.28,1.37,-2.30,1.34,-1.34,-1.51,-1.84,-3.62,-3.64,-3.65
118.73,-2.28,1.40,-2.33,1.34,-1.34,-1.51,-1.90,-3.62,-3.67,-3.68
119.92,-2.27,1.41,-2.35,1.33,-1.33,-1.51,-1.95,-3.60,-3.69,-3.68
121.12,-2.28,1.43,-2.36,1.35,-1.35,-1.51,-2.00,-3.63,-3.70,-3.71
122.33,-2.43,1.30,-2.36,1.36,-1.36,-1.51,-2.04,-3.79,-3.72,-3.73
123.55,-2.32,1.41,-2.37,1.37,-1.37,-1.51,-2.07,-3.69,-3.74,-3.73
124.79,-2.21,1.54,-2.37,1.38,-1.38,-1.50,-2.10,-3.59,-3.75,-3.75
126.03,-2.44,1.32,-2.38,1.39,-1.39,-1.49,-2.13,-3.82,-3.77,-3.76
127.29,-2.43,1.34,-2.41,1.37,-1.37,-1.48,-2.15,-3.80,-3.78,-3.77
128.57,-2.42,1.37,-2.44,1.35,-1.35,-1.47,-2.16,-3.77,-3.79,-3.79
129.85,-2.66,1.15,-2.46,1.34,-1.34,-1.46,-2.17,-4.00,-3.80,-3.81
131.15,-2.76,1.06,-2.49,1.32,-1.32,-1.45,-2.17,-4.08,-3.82,-3.82
132.46,-2.38,1.45,-2.53,1.30,-1.30,-1.44,-2.17,-3.68,-3.83,-3.83
133.79,-2.30,1.54,-2.56,1.28,-1.28,-1.43,-2.16,-3.58,-3.84,-3.84
135.12,-2.60,1.27,-2.59,1.26,-1.26,-1.41,-2.15,-3.86,-3.85,-3.86
136.48,-2.60,1.27,-2.61,1.26,-1.26,-1.40,-2.14,-3.86,-3.87,-3.87
137.84,-2.60,1.29,-2.62,1.26,-1.26,-1.38,-2.12,-3.86,-3.88,-3.89
139.22,-2.65,1.26,-2.63,1.26,-1.26,-1.36,-2.10,-3.91,-3.89,-3.91
140.61,-2.69,1.24,-2.65,1.26,-1.26,-1.35,-2.07,-3.95,-3.91,-3.92
142.02,-2.76,1.16,-2.68,1.25,-1.25,-1.33,-2.04,-4.01,-3.93,-3.92
143.44,-2.78,1.16,-2.72,1.23,-1.23,-1.31,-2.01,-4.01,-3.95,-3.94
144.87,-2.79,1.18,-2.74,1.23,-1.23,-1.29,-1.98,-4.02,-3.97,-3.97
146.32,-2.79,1.21,-2.77,1.24,-1.24,-1.28,-1.94,-4.03,-4.00,-4.00
147.78,-2.76,1.25,-2.82,1.22,-1.22,-1.26,-1.91,-3.98,-4.04,-4.01
149.26,-2.61,1.44,-2.85,1.22,-1.22,-1.24,-1.87,-3.83,-4.08,-4.05
150.75,-2.67,1.43,-2.87,1.26,-1.26,-1.22,-1.83,-3.93,-4.12,-4.10
152.26,-2.91,1.25,-2.88,1.29,-1.29,-1.20,-1.79,-4.20,-4.17,-4.16
153.78,-3.19,1.02,-2.89,1.33,-1.33,-1.18,-1.75,-4.52,-4.23,-4.21
155.32,-3.14,1.13,-2.92,1.36,-1.36,-1.16,-1.71,-4.50,-4.29,-4.27
156.88,-3.00,1.34,-2.96,1.38,-1.38,-1.14,-1.67,-4.38,-4.34,-4.34
158.44,-2.99,1.42,-3.01,1.40,-1.40,-1.12,-1.63,-4.39,-4.40,-4.41
160.03,-2.82,1.66,-3.06,1.40,-1.40,-1.10,-1.59,-4.22,-4.46,-4.48
161.63,-3.07,1.47,-3.11,1.40,-1.40,-1.09,-1.55,-4.47,-4.52,-4.54
163.24,-3.27,1.32,-3.17,1.40,-1.40,-1.07,-1.51,-4.67,-4.57,-4.59
164.88,-3.08,1.55,-3.23,1.38,-1.38,-1.05,-1.48,-4.46,-4.61,-4.63
166.53,-3.02,1.65,-3.28,1.37,-1.37,-1.03,-1.44,-4.39,-4.65,-4.67
168.19,-3.19,1.51,-3.29,1.39,-1.39,-1.01,-1.40,-4.58,-4.68,-4.70
169.87,-3.46,1.27,-3.30,1.40,-1.40,-0.99,-1.37,-4.86,-4.70,-4.73
171.57,-3.64,1.09,-3.32,1.40,-1.40,-0.98,-1.33,-5.04,-4.72,-4.73
173.29,-3.52,1.22,-3.36,1.37,-1.37,-0.96,-1.30,-4.89,-4.73,-4.74
175.02,-3.44,1.30,-3.39,1.34,-1.34,-0.94,-1.27,-4.78,-4.74,-4.74
176.77,-3.44,1.30,-3.42,1.32,-1.32,-0.92,-1.23,-4.76,-4.74,-4.74
178.54,-3.44,1.30,-3.44,1.30,-1.30,-0.91,-1.20,-4.74,-4.74,-4.74
180.32,-3.44,1.29,-3.43,1.30,-1.30,-0.89,-1.17,-4.74,-4.73,-4.72
182.13,-3.36,1.35,-3.44,1.29,-1.29,-0.88,-1.15,-4.65,-4.73,-4.71
183.95,-3.17,1.54,-3.46,1.27,-1.27,-0.86,-1.12,-4.44,-4.73,-4.71
185.79,-3.31,1.40,-3.44,1.29,-1.29,-0.84,-1.09,-4.60,-4.73,-4.71
187.65,-3.47,1.25,-3.41,1.32,-1.32,-0.83,-1.07,-4.79,-4.73,-4.72
189.52,-3.48,1.24,-3.38,1.35,-1.35,-0.81,-1.04,-4.83,-4.73,-4.72
191.42,-3.47,1.27,-3.37,1.37,-1.37,-0.80,-1.02,-4.84,-4.74,-4.74
193.33,-3.45,1.30,-3.37,1.38,-1.38,-0.78,-1.00,-4.83,-4.75,-4.75
195.27,-3.44,1.32,-3.36,1.39,-1.39,-0.77,-0.98,-4.83,-4.76,-4.76
197.22,-3.42,1.35,-3.37,1.40,-1.40,-0.76,-0.96,-4.82,-4.77,-4.77
199.19,-3.41,1.38,-3.39,1.39,-1.39,-0.74,-0.94,-4.80,-4.78,-4.79
201.18,-3.41,1.39,-3.41,1.39,-1.39,-0.73,-0.92,-4.80,-4.80,-4.80
203.19,-3.27,1.54,-3.44,1.38,-1.38,-0.72,-0.90,-4.65,-4.81,-4.81
205.23,-3.23,1.60,-3.46,1.37,-1.37,-0.71,-0.88,-4.60,-4.83,-4.83
207.28,-3.41,1.42,-3.48,1.37,-1.37,-0.69,-0.87,-4.78,-4.84,-4.83
209.35,-3.50,1.35,-3.49,1.36,-1.36,-0.68,-0.85,-4.86,-4.86,-4.85
211.44,-3.50,1.38,-3.51,1.36,-1.36,-0.67,-0.83,-4.86,-4.87,-4.88
213.56,-3.51,1.37,-3.51,1.37,-1.37,-0.66,-0.82,-4.88,-4.88,-4.88
215.69,-3.62,1.27,-3.52,1.37,-1.37,-0.65,-0.80,-4.99,-4.89,-4.89
217.85,-3.84,1.06,-3.55,1.35,-1.35,-0.64,-0.79,-5.19,-4.90,-4.89
220.03,-3.70,1.20,-3.58,1.32,-1.32,-0.63,-0.78,-5.02,-4.90,-4.90
222.23,-3.62,1.30,-3.61,1.29,-1.29,-0.62,-0.76,-4.91,-4.90,-4.92
224.45,-3.62,1.29,-3.64,1.26,-1.26,-0.61,-0.75,-4.88,-4.90,-4.91
226.70,-3.62,1.28,-3.67,1.23,-1.23,-0.60,-0.73,-4.85,-4.90,-4.90
228.96,-3.62,1.27,-3.67,1.22,-1.22,-0.59,-0.72,-4.84,-4.89,-4.89
231.25,-3.43,1.45,-3.66,1.22,-1.22,-0.58,-0.71,-4.64,-4.88,-4.88
233.57,-3.50,1.36,-3.68,1.18,-1.18,-0.57,-0.69,-4.68,-4.86,-4.86
235.90,-3.68,1.17,-3.71,1.13,-1.13,-0.56,-0.68,-4.81,-4.84,-4.85
238.26,-3.93,0.91,-3.72,1.11,-1.11,-0.56,-0.67,-5.04,-4.83,-4.84
240.64,-3.94,0.87,-3.72,1.08,-1.08,-0.55,-0.65,-5.02,-4.80,-4.81
243.05,-3.79,0.99,-3.74,1.04,-1.04,-0.54,-0.64,-4.83,-4.78,-4.78
245.48,-3.72,1.03,-3.78,0.97,-0.97,-0.53,-0.62,-4.69,-4.75,-4.75
247.93,-3.75,0.97,-3.83,0.89,-0.89,-0.53,-0.61,-4.64,-4.73,-4.72
250.41,-3.79,0.91,-3.87,0.83,-0.83,-0.52,-0.59,-4.62,-4.70,-4.70
252.92,-3.86,0.81,-3.90,0.77,-0.77,-0.51,-0.58,-4.63,-4.68,-4.67
255.45,-4.05,0.59,-3.95,0.70,-0.70,-0.51,-0.56,-4.75,-4.65,-4.64
258.00,-4.13,0.48,-3.98,0.64,-0.64,-0.50,-0.54,-4.77,-4.62,-4.61
260.58,-3.87,0.73,-4.00,0.60,-0.60,-0.50,-0.52,-4.47,-4.59,-4.60
263.19,-3.77,0.79,-4.01,0.56,-0.56,-0.49,-0.51,-4.33,-4.57,-4.56
265.82,-4.19,0.36,-4.03,0.51,-0.51,-0.49,-0.49,-4.70,-4.54,-4.55
268.48,-4.16,0.36,-4.07,0.44,-0.44,-0.48,-0.47,-4.60,-4.51,-4.52
271.16,-4.20,0.28,-4.13,0.36,-0.36,-0.48,-0.45,-4.56,-4.49,-4.48
273.87,-4.21,0.26,-4.17,0.29,-0.29,-0.47,-0.43,-4.50,-4.46,-4.47
276.61,-4.04,0.39,-4.19,0.24,-0.24,-0.47,-0.41,-4.28,-4.43,-4.43
279.38,-4.20,0.20,-4.21,0.19,-0.19,-0.46,-0.39,-4.39,-4.40,-4.40
282.17,-4.27,0.11,-4.23,0.15,-0.15,-0.46,-0.37,-4.41,-4.37,-4.38
284.99,-4.17,0.17,-4.25,0.10,-0.10,-0.46,-0.35,-4.27,-4.34,-4.34
287.84,-4.23,0.09,-4.27,0.04,-0.04,-0.45,-0.33,-4.27,-4.31,-4.32
290.72,-4.40,-0.12,-4.31,-0.03,0.03,-0.45,-0.30,-4.37,-4.28,-4.28
293.63,-4.41,-0.15,-4.32,-0.07,0.07,-0.45,-0.28,-4.34,-4.25,-4.26
296.57,-4.40,-0.18,-4.32,-0.10,0.10,-0.45,-0.26,-4.30,-4.22,-4.22
299.53,-4.39,-0.20,-4.35,-0.16,0.16,-0.44,-0.24,-4.23,-4.19,-4.19
302.53,-4.24,-0.07,-4.37,-0.21,0.21,-0.44,-0.21,-4.03,-4.16,-4.17
305.55,-4.23,-0.10,-4.39,-0.25,0.25,-0.44,-0.19,-3.98,-4.14,-4.13
308.61,-4.42,-0.31,-4.40,-0.28,0.28,-0.44,-0.17,-4.13,-4.11,-4.11
311.69,-4.45,-0.37,-4.39,-0.31,0.31,-0.44,-0.14,-4.14,-4.09,-4.08
314.81,-4.44,-0.39,-4.40,-0.33,0.33,-0.43,-0.12,-4.11,-4.06,-4.05
317.96,-4.44,-0.41,-4.41,-0.37,0.37,-0.43,-0.09,-4.07,-4.04,-4.03
321.14,-4.44,-0.41,-4.40,-0.38,0.38,-0.43,-0.07,-4.06,-4.02,-4.03
324.35,-4.44,-0.43,-4.39,-0.39,0.39,-0.43,-0.04,-4.05,-4.00,-4.01
327.59,-4.44,-0.45,-4.41,-0.42,0.42,-0.43,-0.02,-4.02,-3.99,-3.99
330.87,-4.44,-0.46,-4.43,-0.45,0.45,-0.43,0.01,-3.99,-3.97,-3.98
334.18,-4.38,-0.42,-4.44,-0.48,0.48,-0.43,0.03,-3.90,-3.96,-3.96
337.52,-4.28,-0.33,-4.47,-0.52,0.52,-0.43,0.06,-3.76,-3.95,-3.95
340.90,-4.45,-0.51,-4.49,-0.54,0.54,-0.43,0.08,-3.91,-3.94,-3.94
344.30,-4.54,-0.61,-4.49,-0.56,0.56,-0.43,0.11,-3.98,-3.93,-3.93
347.75,-4.55,-0.62,-4.51,-0.59,0.59,-0.43,0.14,-3.96,-3.93,-3.93
351.23,-4.53,-0.61,-4.54,-0.62,0.62,-0.43,0.16,-3.91,-3.92,-3.92
354.74,-4.47,-0.55,-4.56,-0.64,0.64,-0.44,0.19,-3.83,-3.92,-3.92
358.28,-4.70,-0.79,-4.59,-0.67,0.67,-0.44,0.22,-4.03,-3.91,-3.91
361.87,-4.79,-0.88,-4.62,-0.71,0.71,-0.44,0.24,-4.08,-3.91,-3.91
365.49,-4.63,-0.73,-4.65,-0.74,0.74,-0.44,0.27,-3.89,-3.91,-3.90
369.14,-4.65,-0.73,-4.69,-0.78,0.78,-0.44,0.30,-3.87,-3.91,-3.92
372.83,-4.78,-0.86,-4.73,-0.82,0.82,-0.44,0.33,-3.96,-3.91,-3.92
376.56,-4.72,-0.80,-4.77,-0.86,0.86,-0.45,0.35,-3.86,-3.91,-3.92
380.33,-4.71,-0.80,-4.80,-0.89,0.89,-0.45,0.38,-3.82,-3.92,-3.91
384.13,-4.86,-0.95,-4.85,-0.93,0.93,-0.45,0.41,-3.93,-3.92,-3.91
387.97,-4.83,-0.91,-4.90,-0.98,0.98,-0.46,0.44,-3.85,-3.92,-3.92
391.85,-4.87,-0.94,-4.96,-1.03,1.03,-0.46,0.46,-3.84,-3.93,-3.93
395.77,-5.05,-1.13,-5.02,-1.08,1.08,-0.46,0.49,-3.97,-3.93,-3.92
399.73,-5.07,-1.14,-5.07,-1.13,1.13,-0.47,0.52,-3.94,-3.94,-3.93
