frequency,raw
20.00,1.10
20.20,1.15
20.40,1.21
20.61,1.27
20.81,1.33
21.02,1.39
21.23,1.44
21.44,1.50
21.66,1.56
21.87,1.62
22.09,1.68
22.31,1.73
22.54,1.79
22.76,1.84
22.99,1.90
23.22,1.96
23.45,2.01
23.69,2.07
23.92,2.13
24.16,2.18
24.40,2.23
24.65,2.29
24.89,2.34
25.14,2.40
25.39,2.45
25.65,2.50
25.91,2.55
26.16,2.60
26.43,2.66
26.69,2.71
26.96,2.76
27.23,2.81
27.50,2.85
27.77,2.90
28.05,2.96
28.33,3.00
28.62,3.05
28.90,3.09
29.19,3.14
29.48,3.18
29.78,3.23
30.08,3.27
30.38,3.32
30.68,3.36
30.99,3.41
31.30,3.46
31.61,3.50
31.93,3.55
32.24,3.60
32.57,3.64
32.89,3.68
33.22,3.73
33.55,3.76
33.89,3.81
34.23,3.85
34.57,3.89
34.92,3.93
35.27,3.97
35.62,4.01
35.97,4.04
36.33,4.08
36.70,4.12
37.06,4.16
37.43,4.19
37.81,4.23
38.19,4.26
38.57,4.30
38.95,4.34
39.34,4.37
39.74,4.40
40.14,4.44
40.54,4.46
40.94,4.50
41.35,4.53
41.76,4.56
42.18,4.59
42.60,4.62
43.03,4.65
43.46,4.68
43.90,4.71
44.33,4.73
44.78,4.75
45.23,4.78
45.68,4.80
46.13,4.83
46.60,4.85
47.06,4.88
47.53,4.89
48.01,4.91
48.49,4.94
48.97,4.96
49.46,4.98
49.96,5.00
50.46,5.01
50.96,5.03
51.47,5.05
51.99,5.07
52.51,5.08
53.03,5.09
53.56,5.10
54.10,5.12
54.64,5.13
55.18,5.15
55.74,5.16
56.29,5.17
56.86,5.18
57.42,5.19
58.00,5.20
58.58,5.21
59.16,5.21
59.76,5.21
60.35,5.22
60.96,5.23
61.57,5.23
62.18,5.22
62.80,5.23
63.43,5.23
64.07,5.23
64.71,5.23
65.35,5.22
66.01,5.22
66.67,5.22
67.33,5.20
68.01,5.20
68.69,5.20
69.37,5.19
70.07,5.18
70.77,5.17
71.48,5.16
72.19,5.14
72.91,5.13
73.64,5.12
74.38,5.10
75.12,5.09
75.87,5.07
76.63,5.05
77.40,5.03
78.17,5.02
78.95,4.99
79.74,4.97
80.54,4.94
81.35,4.92
82.16,4.90
82.98,4.87
83.81,4.85
84.65,4.82
85.50,4.78
86.35,4.76
87.22,4.72
88.09,4.69
88.97,4.65
89.86,4.62
90.76,4.58
91.66,4.54
92.58,4.50
93.51,4.46
94.44,4.42
95.39,4.38
96.34,4.33
97.30,4.29
98.28,4.25
99.26,4.19
100.25,4.15
101.25,4.09
102.27,4.04
103.29,3.99
104.32,3.94
105.37,3.88
106.42,3.82
107.48,3.76
108.56,3.70
109.64,3.64
110.74,3.58
111.85,3.52
112.97,3.45
114.10,3.38
115.24,3.31
116.39,3.24
117.55,3.17
118.73,3.10
119.92,3.02
121.12,2.95
122.33,2.88
123.55,2.80
124.79,2.73
126.03,2.64
127.29,2.57
128.57,2.49
129.85,2.40
131.15,2.32
132.46,2.23
133.79,2.14
135.12,2.05
136.48,1.96
137.84,1.88
139.22,1.78
140.61,1.68
142.02,1.59
143.44,1.50
144.87,1.40
146.32,1.31
147.78,1.21
149.26,1.12
150.75,1.01
152.26,0.92
153.78,0.82
155.32,0.73
156.88,0.62
158.44,0.53
160.03,0.44
161.63,0.34
163.24,0.25
164.88,0.16
166.53,0.07
168.19,-0.03
169.87,-0.11
171.57,-0.20
173.29,-0.28
175.02,-0.36
176.77,-0.44
178.54,-0.51
180.32,-0.58
182.13,-0.66
183.95,-0.72
185.79,-0.78
187.65,-0.83
189.52,-0.89
191.42,-0.94
193.33,-0.98
195.27,-1.03
197.22,-1.07
199.19,-1.11
201.18,-1.14
203.19,-1.17
205.23,-1.21
207.28,-1.23
209.35,-1.26
211.44,-1.28
213.56,-1.31
215.69,-1.33
217.85,-1.35
220.03,-1.37
222.23,-1.39
224.45,-1.41
226.70,-1.43
228.96,-1.45
231.25,-1.46
233.57,-1.48
235.90,-1.48
238.26,-1.49
240.64,-1.50
243.05,-1.50
245.48,-1.51
247.93,-1.52
250.41,-1.51
252.92,-1.51
255.45,-1.51
258.00,-1.51
260.58,-1.50
263.19,-1.49
265.82,-1.49
268.48,-1.48
271.16,-1.47
273.87,-1.47
276.61,-1.45
279.38,-1.45
282.17,-1.43
284.99,-1.42
287.84,-1.41
290.72,-1.39
293.63,-1.38
296.57,-1.37
299.53,-1.36
302.53,-1.35
305.55,-1.34
308.61,-1.33
311.69,-1.32
314.81,-1.30
317.96,-1.30
321.14,-1.28
324.35,-1.28
327.59,-1.27
330.87,-1.26
334.18,-1.25
337.52,-1.24
340.90,-1.23
344.30,-1.23
347.75,-1.22
351.23,-1.21
354.74,-1.21
358.28,-1.21
361.87,-1.19
365.49,-1.19
369.14,-1.19
372.83,-1.18
376.56,-1.18
380.33,-1.18
384.13,-1.18
387.97,-1.18
391.85,-1.18
395.77,-1.18
399.73,-1.18
403.72,-1.18
407.76,-1.18
411.84,-1.18
415.96,-1.18
420.12,-1.19
424.32,-1.19
428.56,-1.20
432.85,-1.20
437.18,-1.21
441.55,-1.21
445.96,-1.22
450.42,-1.23
454.93,-1.24
459.48,-1.25
464.07,-1.26
468.71,-1.26
473.40,-1.27
478.13,-1.28
482.91,-1.29
487.74,-1.30
492.62,-1.32
497.55,-1.32
502.52,-1.34
507.55,-1.35
512.62,-1.36
517.75,-1.37
522.93,-1.40
528.16,-1.40
533.44,-1.41
538.77,-1.43
544.16,-1.45
549.60,-1.46
555.10,-1.47
560.65,-1.49
566.25,-1.51
571.92,-1.52
577.64,-1.54
583.41,-1.55
589.25,-1.56
595.14,-1.58
601.09,-1.59
607.10,-1.60
613.17,-1.62
619.30,-1.63
625.50,-1.64
631.75,-1.65
638.07,-1.66
644.45,-1.67
650.89,-1.69
657.40,-1.70
663.98,-1.71
670.62,-1.71
677.32,-1.73
684.10,-1.73
690.94,-1.74
697.85,-1.75
704.83,-1.76
711.87,-1.76
718.99,-1.77
726.18,-1.77
733.44,-1.77
740.78,-1.77
748.19,-1.77
755.67,-1.77
763.23,-1.77
770.86,-1.76
778.57,-1.76
786.35,-1.75
794.22,-1.74
802.16,-1.73
810.18,-1.72
818.28,-1.71
826.46,-1.69
834.73,-1.66
843.08,-1.63
851.51,-1.60
860.02,-1.55
868.62,-1.50
877.31,-1.44
886.08,-1.38
894.94,-1.31
903.89,-1.22
912.93,-1.13
922.06,-1.02
931.28,-0.92
940.59,-0.80
950.00,-0.67
959.50,-0.55
969.09,-0.42
978.78,-0.30
988.57,-0.16
998.46,-0.02
1008.44,0.11
1018.53,0.25
1028.71,0.39
1039.00,0.52
1049.39,0.66
1059.88,0.81
1070.48,0.95
1081.19,1.09
1092.00,1.23
1102.92,1.37
1113.95,1.51
1125.09,1.65
1136.34,1.79
1147.70,1.93
1159.18,2.06
1170.77,2.19
1182.48,2.32
1194.30,2.44
1206.25,2.57
1218.31,2.68
1230.49,2.79
1242.80,2.91
1255.22,3.01
1267.78,3.11
1280.45,3.21
1293.26,3.29
1306.19,3.38
1319.25,3.47
1332.45,3.54
1345.77,3.62
1359.23,3.69
1372.82,3.76
1386.55,3.83
1400.41,3.90
1414.42,3.96
1428.56,4.02
1442.85,4.07
1457.28,4.13
1471.85,4.18
1486.57,4.23
1501.43,4.28
1516.45,4.33
1531.61,4.38
1546.93,4.42
1562.40,4.47
1578.02,4.51
1593.80,4.56
1609.74,4.60
1625.84,4.65
1642.10,4.69
1658.52,4.74
1675.10,4.77
1691.85,4.82
1708.77,4.86
1725.86,4.91
1743.12,4.96
1760.55,5.00
1778.15,5.05
1795.94,5.09
1813.90,5.15
1832.03,5.19
1850.36,5.24
1868.86,5.30
1887.55,5.35
1906.42,5.40
1925.49,5.46
1944.74,5.51
1964.19,5.58
1983.83,5.63
2003.67,5.69
2023.71,5.75
2043.94,5.81
2064.38,5.87
2085.03,5.94
2105.88,6.00
2126.94,6.06
2148.20,6.13
2169.69,6.19
2191.38,6.25
2213.30,6.32
2235.43,6.39
2257.78,6.46
2280.36,6.52
2303.17,6.59
2326.20,6.66
2349.46,6.73
2372.95,6.79
2396.68,6.86
2420.65,6.93
2444.86,7.00
2469.31,7.07
2494.00,7.14
2518.94,7.20
2544.13,7.27
2569.57,7.35
2595.27,7.40
2621.22,7.47
2647.43,7.54
2673.90,7.60
2700.64,7.67
2727.65,7.72
2754.93,7.78
2782.48,7.85
2810.30,7.89
2838.40,7.95
2866.79,8.01
2895.46,8.05
2924.41,8.10
2953.65,8.14
2983.19,8.18
3013.02,8.21
3043.15,8.25
3073.58,8.28
3104.32,8.30
3135.36,8.32
3166.72,8.33
3198.38,8.33
3230.37,8.34
3262.67,8.34
3295.30,8.33
3328.25,8.32
3361.53,8.29
3395.15,8.27
3429.10,8.23
3463.39,8.20
3498.03,8.15
3533.01,8.09
3568.34,8.04
3604.02,7.97
3640.06,7.90
3676.46,7.82
3713.22,7.73
3750.36,7.65
3787.86,7.56
3825.74,7.46
3864.00,7.36
3902.64,7.25
3941.66,7.15
3981.08,7.03
4020.89,6.91
4061.10,6.78
4101.71,6.66
4142.73,6.54
4184.15,6.41
4226.00,6.27
4268.26,6.14
4310.94,6.00
4354.05,5.86
4397.59,5.72
4441.56,5.58
4485.98,5.43
4530.84,5.28
4576.15,5.13
4621.91,4.99
4668.13,4.84
4714.81,4.68
4761.96,4.53
4809.58,4.37
4857.67,4.21
4906.25,4.05
4955.31,3.89
5004.87,3.74
5054.91,3.58
5105.46,3.42
5156.52,3.27
5208.08,3.10
5260.16,2.96
5312.77,2.80
5365.89,2.65
5419.55,2.50
5473.75,2.35
5528.49,2.22
5583.77,2.08
5639.61,1.94
5696.00,1.82
5752.96,1.70
5810.49,1.58
5868.60,1.48
5927.28,1.37
5986.56,1.29
6046.42,1.21
6106.89,1.15
6167.96,1.09
6229.64,1.05
6291.93,1.02
6354.85,1.00
6418.40,1.01
6482.58,1.03
6547.41,1.07
6612.88,1.13
6679.01,1.22
6745.80,1.34
6813.26,1.48
6881.39,1.66
6950.21,1.87
7019.71,2.12
7089.91,2.42
7160.81,2.77
7232.41,3.15
7304.74,3.63
7377.79,4.16
7451.56,4.73
7526.08,5.39
7601.34,6.09
7677.35,6.82
7754.13,7.52
7831.67,8.13
7909.98,8.65
7989.08,8.95
8068.98,9.01
8149.67,8.88
8231.16,8.49
8313.47,7.85
8396.61,7.07
8480.57,6.17
8565.38,5.23
8651.03,4.30
8737.54,3.40
8824.92,2.63
8913.17,1.97
9002.30,1.39
9092.32,0.97
9183.25,0.65
9275.08,0.43
9367.83,0.33
9461.51,0.36
9556.12,0.46
9651.68,0.69
9748.20,1.05
9845.68,1.51
9944.14,2.08
10043.58,2.82
10144.02,3.65
10245.46,4.57
10347.91,5.53
10451.39,6.44
10555.91,7.23
10661.46,7.78
10768.08,8.03
10875.76,8.01
10984.52,7.63
11094.36,6.88
11205.31,5.94
11317.36,4.78
11430.53,3.50
11544.84,2.22
11660.29,0.95
11776.89,-0.20
11894.66,-1.28
12013.60,-2.29
12133.74,-3.19
12255.08,-4.03
12377.63,-4.84
12501.41,-5.58
12626.42,-6.27
12752.68,-6.94
12880.21,-7.57
13009.01,-8.17
13139.10,-8.74
13270.49,-9.29
13403.20,-9.81
13537.23,-10.30
13672.60,-10.78
13809.33,-11.23
13947.42,-11.66
14086.90,-12.06
14227.77,-12.43
14370.04,-12.77
14513.74,-13.10
14658.88,-13.39
14805.47,-13.65
14953.52,-13.88
15103.06,-14.08
15254.09,-14.23
15406.63,-14.36
15560.70,-14.46
15716.30,-14.49
15873.47,-14.48
16032.20,-14.44
16192.52,-14.33
16354.45,-14.17
16517.99,-13.96
16683.17,-13.66
16850.01,-13.28
17018.51,-12.84
17188.69,-12.29
17360.58,-11.65
17534.18,-10.94
17709.53,-10.19
17886.62,-9.38
18065.49,-8.62
18246.14,-7.90
18428.60,-7.44
18612.89,-7.19
18799.02,-7.15
18987.01,-7.51
19176.88,-8.15
19368.65,-9.01
19562.33,-10.12
19757.96,-11.37
19955.54,-12.67
