frequency,raw,error,smoothed,error_smoothed,equalization,parametric_eq,equalized_raw,equalized_smoothed,target
20,-13.40,-15.05,-13.34,-14.98,6.00,4.80,-7.40,-7.34,1.65
21,-12.71,-14.36,-12.75,-14.40,6.00,4.98,-6.71,-6.75,1.65
22,-12.12,-13.77,-12.20,-13.85,6.00,5.15,-6.12,-6.20,1.65
23,-11.69,-13.33,-11.67,-13.32,6.00,5.30,-5.69,-5.67,1.65
24,-11.20,-12.85,-11.17,-12.82,6.00,5.45,-5.20,-5.17,1.65
25,-10.60,-12.25,-10.70,-12.35,6.00,5.58,-4.60,-4.70,1.65
26,-10.31,-11.96,-10.26,-11.90,6.00,5.71,-4.31,-4.26,1.65
27,-9.84,-11.49,-9.84,-11.49,6.00,5.82,-3.84,-3.84,1.65
28,-9.49,-11.14,-9.45,-11.10,6.00,5.92,-3.49,-3.45,1.65
29,-9.07,-10.71,-9.08,-10.73,6.00,6.02,-3.07,-3.08,1.65
30,-8.69,-10.33,-8.73,-10.38,6.00,6.10,-2.69,-2.73,1.65
31,-8.39,-10.03,-8.40,-10.05,6.00,6.18,-2.39,-2.40,1.65
32,-8.16,-9.80,-8.09,-9.74,6.00,6.25,-2.16,-2.09,1.65
33,-7.79,-9.43,-7.80,-9.44,6.00,6.31,-1.79,-1.80,1.65
34,-7.57,-9.22,-7.52,-9.16,6.00,6.37,-1.57,-1.52,1.65
35,-7.18,-8.82,-7.26,-8.90,6.00,6.42,-1.18,-1.26,1.65
36,-6.98,-8.62,-7.01,-8.66,6.00,6.46,-0.98,-1.01,1.65
37,-6.81,-8.45,-6.78,-8.43,6.00,6.50,-0.81,-0.78,1.64
38,-6.58,-8.22,-6.57,-8.21,6.00,6.53,-0.58,-0.57,1.64
39,-6.40,-8.05,-6.37,-8.01,6.00,6.56,-0.40,-0.37,1.64
40,-6.21,-7.85,-6.18,-7.82,6.00,6.58,-0.21,-0.18,1.64
41,-5.97,-7.61,-6.01,-7.65,6.00,6.60,0.03,-0.01,1.64
42,-5.84,-7.48,-5.85,-7.49,6.00,6.61,0.16,0.15,1.64
43,-5.67,-7.31,-5.70,-7.34,6.00,6.62,0.33,0.30,1.64
44,-5.54,-7.18,-5.57,-7.21,6.00,6.63,0.46,0.43,1.64
45,-5.47,-7.11,-5.45,-7.09,6.00,6.63,0.53,0.55,1.64
46,-5.37,-7.00,-5.35,-6.98,6.00,6.63,0.63,0.65,1.64
47,-5.27,-6.90,-5.26,-6.89,6.00,6.63,0.73,0.74,1.63
48,-5.17,-6.80,-5.17,-6.80,6.00,6.62,0.83,0.83,1.63
49,-5.07,-6.70,-5.09,-6.72,6.00,6.62,0.93,0.91,1.63
50,-5.07,-6.69,-5.02,-6.65,6.00,6.61,0.93,0.98,1.63
51,-4.97,-6.59,-4.96,-6.58,6.00,6.59,1.03,1.04,1.62
52,-4.87,-6.49,-4.90,-6.52,6.00,6.58,1.13,1.10,1.62
53,-4.87,-6.48,-4.84,-6.46,6.00,6.56,1.13,1.16,1.62
54,-4.76,-6.38,-4.80,-6.41,6.00,6.55,1.24,1.20,1.61
55,-4.76,-6.37,-4.76,-6.36,6.00,6.53,1.24,1.24,1.61
56,-4.76,-6.37,-4.72,-6.33,6.00,6.51,1.24,1.28,1.60
57,-4.66,-6.26,-4.70,-6.29,6.00,6.49,1.34,1.30,1.60
58,-4.66,-6.25,-4.68,-6.27,6.00,6.46,1.34,1.32,1.59
59,-4.66,-6.25,-4.67,-6.25,6.00,6.44,1.34,1.33,1.58
60,-4.66,-6.24,-4.66,-6.24,6.00,6.41,1.34,1.34,1.58
61,-4.66,-6.23,-4.66,-6.23,6.00,6.39,1.34,1.34,1.57
62,-4.66,-6.22,-4.66,-6.22,6.00,6.36,1.34,1.34,1.56
63,-4.66,-6.21,-4.67,-6.22,6.00,6.33,1.34,1.33,1.55
64,-4.66,-6.20,-4.68,-6.21,6.00,6.30,1.34,1.32,1.54
65,-4.66,-6.19,-4.68,-6.21,6.00,6.28,1.34,1.32,1.53
66,-4.72,-6.23,-4.69,-6.20,6.00,6.25,1.28,1.31,1.51
67,-4.77,-6.27,-4.69,-6.19,6.00,6.22,1.23,1.31,1.50
68,-4.76,-6.25,-4.70,-6.18,6.00,6.19,1.24,1.30,1.49
69,-4.64,-6.11,-4.71,-6.18,6.00,6.16,1.36,1.29,1.47
70,-4.66,-6.12,-4.73,-6.18,6.00,6.13,1.34,1.27,1.45
71,-4.72,-6.15,-4.76,-6.19,6.00,6.09,1.28,1.24,1.44
72,-4.80,-6.22,-4.80,-6.21,6.00,6.06,1.20,1.20,1.42
73,-4.86,-6.25,-4.85,-6.25,6.00,6.03,1.14,1.15,1.40
74,-4.85,-6.22,-4.92,-6.29,6.00,6.00,1.15,1.08,1.37
75,-5.06,-6.41,-4.99,-6.34,6.00,5.97,0.94,1.01,1.35
76,-5.06,-6.38,-5.07,-6.40,6.00,5.94,0.94,0.93,1.32
77,-5.14,-6.44,-5.15,-6.45,6.00,5.91,0.86,0.85,1.30
78,-5.22,-6.49,-5.22,-6.49,6.00,5.88,0.78,0.78,1.27
79,-5.29,-6.53,-5.28,-6.51,6.00,5.84,0.71,0.72,1.24
80,-5.37,-6.58,-5.32,-6.53,6.00,5.81,0.63,0.68,1.21
81,-5.37,-6.54,-5.35,-6.52,6.00,5.78,0.63,0.65,1.17
82,-5.37,-6.51,-5.36,-6.50,6.00,5.75,0.63,0.64,1.14
83,-5.37,-6.47,-5.36,-6.47,6.00,5.72,0.63,0.64,1.10
84,-5.37,-6.43,-5.35,-6.42,6.00,5.69,0.63,0.65,1.06
85,-5.37,-6.39,-5.34,-6.36,6.00,5.66,0.63,0.66,1.02
86,-5.28,-6.26,-5.32,-6.30,6.00,5.63,0.72,0.68,0.98
87,-5.25,-6.18,-5.30,-6.23,6.00,5.60,0.75,0.70,0.94
88,-5.27,-6.16,-5.28,-6.17,6.00,5.57,0.73,0.72,0.89
89,-5.27,-6.11,-5.27,-6.11,5.99,5.55,0.73,0.72,0.84
90,-5.26,-6.06,-5.26,-6.05,5.98,5.52,0.71,0.72,0.80
91,-5.26,-6.01,-5.25,-6.00,5.95,5.49,0.69,0.70,0.74
92,-5.26,-5.95,-5.25,-5.94,5.92,5.46,0.66,0.67,0.69
93,-5.26,-5.90,-5.25,-5.89,5.88,5.44,0.62,0.63,0.64
94,-5.26,-5.84,-5.25,-5.84,5.84,5.41,0.58,0.59,0.58
95,-5.26,-5.79,-5.25,-5.78,5.78,5.39,0.52,0.53,0.53
96,-5.26,-5.74,-5.26,-5.73,5.73,5.36,0.47,0.47,0.47
97,-5.27,-5.68,-5.27,-5.68,5.68,5.34,0.41,0.41,0.41
98,-5.28,-5.63,-5.29,-5.64,5.64,5.31,0.36,0.35,0.35
99,-5.29,-5.58,-5.31,-5.60,5.60,5.29,0.31,0.29,0.29
100,-5.30,-5.54,-5.35,-5.57,5.57,5.27,0.27,0.22,0.23
101,-5.36,-5.53,-5.39,-5.54,5.54,5.24,0.19,0.15,0.17
102,-5.47,-5.58,-5.44,-5.52,5.52,5.22,0.05,0.08,0.11
104,-5.50,-5.49,-5.50,-5.51,5.51,5.18,0.01,0.01,-0.01
105,-5.59,-5.51,-5.56,-5.50,5.50,5.16,-0.09,-0.06,-0.08
106,-5.61,-5.48,-5.61,-5.48,5.48,5.14,-0.13,-0.13,-0.14
107,-5.64,-5.44,-5.67,-5.47,5.47,5.12,-0.17,-0.20,-0.20
108,-5.76,-5.50,-5.72,-5.46,5.46,5.11,-0.30,-0.26,-0.26
109,-5.82,-5.50,-5.77,-5.45,5.45,5.09,-0.38,-0.32,-0.32
110,-5.81,-5.43,-5.81,-5.43,5.43,5.07,-0.37,-0.38,-0.38
111,-5.80,-5.37,-5.86,-5.42,5.42,5.06,-0.38,-0.44,-0.44
112,-5.81,-5.32,-5.91,-5.41,5.41,5.05,-0.40,-0.50,-0.49
113,-6.01,-5.46,-5.96,-5.40,5.40,5.03,-0.61,-0.56,-0.55
114,-6.08,-5.48,-6.00,-5.39,5.39,5.02,-0.69,-0.61,-0.60
115,-6.05,-5.39,-6.05,-5.38,5.38,5.01,-0.67,-0.67,-0.65
117,-6.05,-5.29,-6.10,-5.36,5.36,4.99,-0.69,-0.73,-0.76
118,-6.14,-5.34,-6.15,-5.35,5.35,4.98,-0.79,-0.79,-0.81
119,-6.25,-5.40,-6.19,-5.34,5.34,4.97,-0.91,-0.85,-0.85
120,-6.23,-5.33,-6.24,-5.33,5.33,4.96,-0.90,-0.91,-0.90
121,-6.20,-5.25,-6.28,-5.32,5.32,4.96,-0.88,-0.96,-0.94
123,-6.28,-5.24,-6.32,-5.31,5.31,4.95,-0.97,-1.01,-1.03
124,-6.43,-5.36,-6.36,-5.29,5.29,4.95,-1.14,-1.06,-1.07
125,-6.44,-5.33,-6.39,-5.28,5.28,4.94,-1.16,-1.11,-1.11
126,-6.40,-5.26,-6.42,-5.26,5.26,4.94,-1.14,-1.16,-1.14
128,-6.39,-5.17,-6.44,-5.23,5.23,4.95,-1.16,-1.20,-1.22
129,-6.49,-5.24,-6.45,-5.21,5.21,4.95,-1.28,-1.24,-1.25
130,-6.54,-5.26,-6.47,-5.18,5.18,4.95,-1.36,-1.28,-1.28
131,-6.50,-5.19,-6.48,-5.16,5.16,4.96,-1.35,-1.32,-1.31
133,-6.43,-5.05,-6.50,-5.14,5.14,4.97,-1.29,-1.36,-1.37
134,-6.40,-5.01,-6.52,-5.12,5.12,4.98,-1.28,-1.40,-1.40
135,-6.48,-5.06,-6.55,-5.11,5.11,5.00,-1.37,-1.44,-1.42
137,-6.72,-5.24,-6.58,-5.11,5.11,5.02,-1.61,-1.47,-1.48
138,-6.69,-5.18,-6.62,-5.11,5.11,5.04,-1.57,-1.51,-1.50
140,-6.65,-5.10,-6.66,-5.12,5.12,5.07,-1.53,-1.54,-1.55
141,-6.65,-5.08,-6.71,-5.14,5.14,5.09,-1.51,-1.57,-1.57
142,-6.78,-5.19,-6.76,-5.16,5.16,5.11,-1.62,-1.60,-1.59
144,-6.75,-5.12,-6.81,-5.18,5.18,5.16,-1.58,-1.63,-1.63
145,-6.76,-5.10,-6.85,-5.20,5.20,5.19,-1.56,-1.66,-1.65
147,-7.03,-5.34,-6.90,-5.21,5.21,5.24,-1.82,-1.69,-1.69
148,-7.02,-5.31,-6.94,-5.22,5.22,5.27,-1.79,-1.71,-1.71
150,-6.95,-5.21,-6.97,-5.24,5.24,5.34,-1.72,-1.74,-1.74
151,-6.95,-5.20,-7.01,-5.25,5.25,5.38,-1.71,-1.76,-1.76
153,-7.15,-5.36,-7.05,-5.26,5.26,5.45,-1.89,-1.78,-1.79
154,-7.15,-5.34,-7.09,-5.29,5.29,5.49,-1.86,-1.81,-1.80
156,-7.05,-5.22,-7.16,-5.33,5.33,5.58,-1.72,-1.83,-1.83
157,-7.10,-5.26,-7.24,-5.39,5.39,5.62,-1.71,-1.85,-1.84
159,-7.26,-5.39,-7.33,-5.47,5.47,5.72,-1.79,-1.87,-1.87
160,-7.39,-5.52,-7.44,-5.56,5.56,5.77,-1.84,-1.88,-1.88
162,-7.53,-5.63,-7.55,-5.65,5.65,5.87,-1.88,-1.90,-1.90
164,-7.70,-5.78,-7.66,-5.75,5.75,5.98,-1.96,-1.92,-1.92
165,-7.95,-6.03,-7.76,-5.83,5.83,6.03,-2.13,-1.93,-1.93
167,-7.97,-6.02,-7.83,-5.89,5.89,6.14,-2.08,-1.94,-1.94
169,-7.87,-5.92,-7.88,-5.93,5.93,6.25,-1.95,-1.95,-1.96
170,-7.88,-5.92,-7.91,-5.95,5.95,6.31,-1.93,-1.96,-1.96
172,-7.89,-5.91,-7.93,-5.96,5.96,6.42,-1.93,-1.97,-1.97
174,-7.89,-5.91,-7.94,-5.96,5.96,6.52,-1.93,-1.98,-1.98
175,-7.90,-5.92,-7.95,-5.96,5.96,6.57,-1.94,-1.99,-1.98
177,-7.90,-5.91,-7.96,-5.97,5.97,6.67,-1.94,-1.99,-1.99
179,-7.90,-5.91,-7.97,-5.98,5.97,6.75,-1.93,-2.00,-1.99
181,-8.16,-6.16,-7.99,-5.99,5.98,6.82,-2.18,-2.01,-2.00
183,-8.07,-6.07,-8.01,-6.01,5.99,6.88,-2.08,-2.02,-2.00
184,-7.99,-5.99,-8.02,-6.03,5.99,6.91,-1.99,-2.03,-2.00
186,-7.97,-5.98,-8.04,-6.05,6.00,6.94,-1.98,-2.05,-2.00
188,-7.96,-5.96,-8.06,-6.07,6.00,6.95,-1.96,-2.06,-1.99
190,-8.15,-6.16,-8.08,-6.08,6.00,6.95,-2.15,-2.08,-1.99
192,-8.18,-6.19,-8.09,-6.10,6.00,6.93,-2.18,-2.09,-1.99
194,-8.01,-6.02,-8.09,-6.10,6.00,6.88,-2.01,-2.09,-1.99
196,-8.00,-6.01,-8.08,-6.10,6.00,6.82,-2.00,-2.08,-1.98
198,-8.08,-6.10,-8.06,-6.08,6.00,6.74,-2.08,-2.06,-1.98
200,-8.28,-6.30,-8.03,-6.05,5.99,6.65,-2.29,-2.04,-1.98
202,-8.06,-6.09,-7.99,-6.01,5.97,6.54,-2.09,-2.01,-1.97
204,-7.74,-5.78,-7.94,-5.97,5.94,6.42,-1.80,-2.00,-1.97
206,-7.95,-5.98,-7.89,-5.93,5.91,6.30,-2.04,-1.98,-1.97
208,-7.83,-5.87,-7.85,-5.89,5.88,6.16,-1.94,-1.97,-1.96
210,-7.62,-5.66,-7.82,-5.86,5.86,6.02,-1.76,-1.96,-1.96
212,-7.78,-5.82,-7.80,-5.85,5.85,5.88,-1.93,-1.95,-1.95
214,-7.86,-5.91,-7.79,-5.84,5.84,5.73,-2.02,-1.95,-1.95
216,-7.82,-5.88,-7.78,-5.84,5.84,5.58,-1.99,-1.95,-1.95
218,-7.78,-5.83,-7.77,-5.83,5.83,5.44,-1.95,-1.94,-1.94
221,-7.64,-5.70,-7.74,-5.80,5.80,5.22,-1.84,-1.94,-1.94
223,-7.65,-5.71,-7.69,-5.76,5.76,5.08,-1.89,-1.93,-1.93
225,-7.78,-5.85,-7.61,-5.68,5.68,4.94,-2.10,-1.93,-1.93
227,-7.60,-5.68,-7.49,-5.57,5.57,4.80,-2.03,-1.92,-1.92
229,-7.42,-5.50,-7.35,-5.43,5.43,4.67,-1.99,-1.92,-1.92
232,-7.15,-5.24,-7.17,-5.26,5.26,4.47,-1.90,-1.91,-1.91
234,-6.95,-5.05,-6.96,-5.06,5.06,4.35,-1.89,-1.90,-1.90
236,-6.70,-4.81,-6.75,-4.85,4.85,4.23,-1.85,-1.89,-1.89
239,-6.48,-4.59,-6.52,-4.64,4.64,4.05,-1.84,-1.88,-1.89
241,-6.31,-4.43,-6.30,-4.43,4.43,3.93,-1.88,-1.88,-1.88
244,-6.05,-4.18,-6.09,-4.23,4.23,3.77,-1.82,-1.87,-1.87
246,-5.87,-4.01,-5.90,-4.04,4.04,3.66,-1.83,-1.86,-1.86
248,-5.72,-3.87,-5.72,-3.87,3.87,3.56,-1.85,-1.85,-1.85
251,-5.51,-3.67,-5.55,-3.72,3.72,3.41,-1.79,-1.84,-1.84
253,-5.48,-3.65,-5.40,-3.58,3.58,3.31,-1.90,-1.83,-1.83
256,-5.26,-3.45,-5.27,-3.45,3.45,3.16,-1.81,-1.81,-1.81
259,-5.12,-3.31,-5.14,-3.34,3.34,3.02,-1.78,-1.80,-1.80
261,-5.01,-3.22,-5.02,-3.23,3.23,2.93,-1.78,-1.79,-1.79
264,-4.84,-3.06,-4.91,-3.13,3.13,2.80,-1.72,-1.78,-1.78
266,-4.78,-3.00,-4.80,-3.02,3.02,2.71,-1.76,-1.77,-1.77
269,-4.76,-2.99,-4.68,-2.91,2.91,2.58,-1.84,-1.76,-1.76
272,-4.59,-2.84,-4.55,-2.79,2.79,2.45,-1.80,-1.75,-1.75
274,-4.46,-2.72,-4.41,-2.67,2.67,2.37,-1.80,-1.75,-1.74
277,-4.28,-2.55,-4.26,-2.53,2.53,2.25,-1.76,-1.74,-1.74
280,-4.07,-2.35,-4.10,-2.38,2.38,2.12,-1.70,-1.73,-1.73
283,-3.90,-2.18,-3.94,-2.22,2.22,2.00,-1.68,-1.72,-1.72
286,-3.74,-2.03,-3.77,-2.05,2.05,1.88,-1.69,-1.71,-1.71
288,-3.62,-1.91,-3.59,-1.89,1.89,1.80,-1.73,-1.70,-1.70
291,-3.41,-1.71,-3.41,-1.72,1.72,1.67,-1.69,-1.69,-1.69
294,-3.25,-1.56,-3.23,-1.55,1.55,1.55,-1.70,-1.69,-1.69
297,-3.04,-1.36,-3.05,-1.37,1.37,1.43,-1.67,-1.68,-1.68
300,-2.88,-1.21,-2.87,-1.20,1.20,1.31,-1.68,-1.67,-1.67
303,-2.69,-1.03,-2.70,-1.03,1.03,1.19,-1.66,-1.66,-1.66
306,-2.53,-0.87,-2.52,-0.86,0.86,1.07,-1.67,-1.66,-1.66
309,-2.38,-0.73,-2.35,-0.70,0.70,0.94,-1.68,-1.65,-1.65
312,-2.18,-0.54,-2.19,-0.54,0.54,0.82,-1.64,-1.64,-1.64
316,-1.98,-0.34,-2.03,-0.40,0.40,0.66,-1.58,-1.64,-1.64
319,-1.86,-0.23,-1.89,-0.26,0.26,0.54,-1.60,-1.63,-1.63
322,-1.73,-0.10,-1.76,-0.13,0.13,0.42,-1.59,-1.62,-1.62
325,-1.65,-0.03,-1.64,-0.02,0.02,0.30,-1.63,-1.62,-1.62
328,-1.52,0.09,-1.52,0.09,-0.09,0.18,-1.61,-1.61,-1.61
332,-1.43,0.18,-1.42,0.19,-0.19,0.03,-1.62,-1.61,-1.61
335,-1.41,0.19,-1.31,0.29,-0.29,-0.09,-1.69,-1.60,-1.60
338,-1.25,0.35,-1.22,0.38,-0.38,-0.20,-1.63,-1.60,-1.60
342,-1.01,0.58,-1.12,0.47,-0.47,-0.34,-1.48,-1.59,-1.59
345,-0.96,0.62,-1.03,0.56,-0.56,-0.45,-1.52,-1.59,-1.59
349,-1.01,0.57,-0.94,0.64,-0.64,-0.58,-1.65,-1.58,-1.58
352,-0.95,0.63,-0.86,0.72,-0.72,-0.68,-1.67,-1.58,-1.58
356,-0.76,0.81,-0.78,0.80,-0.80,-0.80,-1.56,-1.58,-1.58
359,-0.66,0.91,-0.70,0.87,-0.87,-0.88,-1.53,-1.57,-1.57
363,-0.61,0.96,-0.63,0.94,-0.94,-0.98,-1.55,-1.57,-1.57
366,-0.56,1.01,-0.57,1.00,-1.00,-1.05,-1.56,-1.57,-1.57
370,-0.54,1.03,-0.51,1.06,-1.06,-1.13,-1.59,-1.57,-1.57
374,-0.43,1.13,-0.46,1.10,-1.10,-1.20,-1.54,-1.56,-1.56
377,-0.42,1.14,-0.41,1.15,-1.15,-1.24,-1.57,-1.56,-1.56
381,-0.42,1.14,-0.37,1.18,-1.18,-1.28,-1.60,-1.56,-1.56
385,-0.33,1.22,-0.34,1.21,-1.21,-1.32,-1.54,-1.55,-1.55
389,-0.30,1.24,-0.32,1.23,-1.23,-1.34,-1.53,-1.55,-1.55
393,-0.30,1.24,-0.30,1.24,-1.24,-1.35,-1.54,-1.54,-1.54
397,-0.30,1.23,-0.30,1.23,-1.23,-1.35,-1.53,-1.53,-1.53
401,-0.30,1.22,-0.30,1.22,-1.22,-1.33,-1.52,-1.52,-1.52
405,-0.30,1.21,-0.31,1.20,-1.20,-1.31,-1.50,-1.51,-1.51
409,-0.30,1.19,-0.34,1.16,-1.16,-1.28,-1.46,-1.49,-1.50
413,-0.36,1.12,-0.36,1.11,-1.11,-1.25,-1.47,-1.48,-1.48
417,-0.41,1.05,-0.39,1.06,-1.06,-1.20,-1.47,-1.46,-1.46
421,-0.41,1.03,-0.42,1.01,-1.01,-1.15,-1.42,-1.43,-1.44
425,-0.48,0.93,-0.45,0.96,-0.96,-1.10,-1.43,-1.41,-1.41
430,-0.49,0.89,-0.48,0.90,-0.90,-1.03,-1.40,-1.38,-1.38
434,-0.50,0.85,-0.49,0.86,-0.86,-0.97,-1.35,-1.35,-1.35
438,-0.54,0.77,-0.50,0.82,-0.82,-0.91,-1.36,-1.31,-1.32
443,-0.51,0.77,-0.50,0.78,-0.78,-0.83,-1.29,-1.28,-1.28
447,-0.46,0.78,-0.49,0.75,-0.75,-0.76,-1.22,-1.24,-1.24
451,-0.45,0.75,-0.47,0.72,-0.72,-0.70,-1.18,-1.20,-1.20
456,-0.45,0.70,-0.46,0.70,-0.70,-0.62,-1.15,-1.16,-1.16
460,-0.47,0.64,-0.45,0.67,-0.67,-0.56,-1.14,-1.12,-1.12
465,-0.43,0.64,-0.44,0.64,-0.64,-0.49,-1.07,-1.08,-1.08
470,-0.41,0.63,-0.43,0.61,-0.61,-0.41,-1.01,-1.04,-1.03
474,-0.41,0.58,-0.42,0.57,-0.57,-0.36,-0.99,-1.00,-1.00
479,-0.43,0.53,-0.43,0.53,-0.53,-0.29,-0.96,-0.96,-0.96
484,-0.42,0.51,-0.43,0.49,-0.49,-0.23,-0.91,-0.92,-0.92
489,-0.48,0.42,-0.44,0.45,-0.45,-0.16,-0.93,-0.89,-0.89
494,-0.44,0.42,-0.46,0.41,-0.41,-0.11,-0.85,-0.87,-0.86
499,-0.47,0.37,-0.47,0.37,-0.37,-0.05,-0.84,-0.84,-0.84
504,-0.49,0.33,-0.49,0.33,-0.33,-0.00,-0.82,-0.82,-0.82
509,-0.57,0.24,-0.52,0.29,-0.29,0.05,-0.86,-0.81,-0.81
514,-0.56,0.24,-0.54,0.25,-0.25,0.09,-0.81,-0.80,-0.80
519,-0.55,0.24,-0.58,0.21,-0.21,0.13,-0.77,-0.79,-0.79
524,-0.58,0.20,-0.62,0.17,-0.17,0.17,-0.75,-0.79,-0.79
529,-0.67,0.12,-0.67,0.12,-0.12,0.21,-0.79,-0.79,-0.79
535,-0.69,0.10,-0.73,0.06,-0.06,0.25,-0.75,-0.79,-0.79
540,-0.79,0.02,-0.80,0.00,-0.00,0.28,-0.79,-0.80,-0.80
545,-0.86,-0.05,-0.87,-0.06,0.06,0.31,-0.80,-0.81,-0.81
551,-1.01,-0.19,-0.95,-0.13,0.13,0.34,-0.88,-0.82,-0.82
556,-1.06,-0.23,-1.03,-0.20,0.20,0.36,-0.86,-0.83,-0.83
562,-1.11,-0.27,-1.11,-0.26,0.26,0.39,-0.85,-0.84,-0.84
568,-1.16,-0.31,-1.18,-0.33,0.33,0.41,-0.83,-0.85,-0.85
573,-1.20,-0.34,-1.25,-0.39,0.39,0.43,-0.81,-0.86,-0.86
579,-1.34,-0.47,-1.32,-0.45,0.45,0.45,-0.89,-0.87,-0.87
585,-1.36,-0.49,-1.37,-0.51,0.51,0.47,-0.86,-0.87,-0.87
591,-1.48,-0.61,-1.42,-0.55,0.55,0.48,-0.92,-0.87,-0.87
596,-1.48,-0.62,-1.46,-0.60,0.60,0.49,-0.88,-0.87,-0.87
602,-1.48,-0.62,-1.49,-0.64,0.64,0.50,-0.84,-0.86,-0.86
608,-1.47,-0.62,-1.51,-0.67,0.67,0.51,-0.80,-0.85,-0.85
615,-1.55,-0.72,-1.52,-0.69,0.69,0.52,-0.86,-0.83,-0.83
621,-1.53,-0.72,-1.51,-0.70,0.70,0.53,-0.83,-0.81,-0.81
627,-1.51,-0.72,-1.50,-0.71,0.71,0.54,-0.79,-0.79,-0.79
633,-1.48,-0.71,-1.48,-0.71,0.71,0.54,-0.76,-0.76,-0.76
639,-1.44,-0.71,-1.45,-0.71,0.71,0.55,-0.73,-0.74,-0.74
646,-1.41,-0.70,-1.41,-0.70,0.70,0.55,-0.70,-0.71,-0.71
652,-1.36,-0.69,-1.36,-0.69,0.69,0.55,-0.67,-0.67,-0.67
659,-1.32,-0.68,-1.32,-0.68,0.68,0.55,-0.64,-0.64,-0.64
665,-1.26,-0.66,-1.27,-0.66,0.66,0.55,-0.60,-0.61,-0.60
672,-1.21,-0.64,-1.21,-0.64,0.64,0.55,-0.57,-0.57,-0.57
679,-1.16,-0.63,-1.16,-0.62,0.62,0.55,-0.54,-0.54,-0.54
686,-1.12,-0.61,-1.11,-0.60,0.60,0.55,-0.51,-0.50,-0.50
692,-1.08,-0.61,-1.06,-0.59,0.59,0.55,-0.49,-0.47,-0.47
699,-1.05,-0.61,-1.02,-0.58,0.58,0.54,-0.47,-0.44,-0.44
706,-0.94,-0.52,-0.99,-0.58,0.58,0.54,-0.35,-0.41,-0.41
713,-0.93,-0.55,-0.98,-0.59,0.59,0.53,-0.34,-0.39,-0.39
721,-0.94,-0.58,-0.97,-0.61,0.61,0.53,-0.33,-0.36,-0.36
728,-0.96,-0.62,-0.97,-0.63,0.63,0.52,-0.32,-0.34,-0.34
735,-0.98,-0.66,-0.98,-0.66,0.66,0.52,-0.32,-0.32,-0.32
742,-1.01,-0.71,-0.99,-0.69,0.69,0.51,-0.32,-0.30,-0.30
750,-1.04,-0.75,-1.01,-0.72,0.72,0.50,-0.32,-0.29,-0.28
757,-1.07,-0.80,-1.01,-0.74,0.74,0.50,-0.32,-0.27,-0.27
765,-0.99,-0.73,-1.01,-0.75,0.75,0.49,-0.24,-0.26,-0.26
773,-1.00,-0.75,-1.01,-0.76,0.76,0.48,-0.24,-0.25,-0.25
780,-1.02,-0.78,-0.99,-0.75,0.75,0.47,-0.26,-0.24,-0.24
788,-0.92,-0.70,-0.97,-0.74,0.74,0.47,-0.18,-0.23,-0.23
796,-0.91,-0.69,-0.94,-0.72,0.72,0.46,-0.20,-0.22,-0.22
804,-0.94,-0.73,-0.90,-0.69,0.69,0.45,-0.25,-0.21,-0.21
812,-0.89,-0.69,-0.86,-0.65,0.65,0.44,-0.24,-0.20,-0.20
820,-0.81,-0.61,-0.81,-0.61,0.61,0.43,-0.20,-0.20,-0.20
828,-0.74,-0.55,-0.75,-0.56,0.56,0.42,-0.18,-0.19,-0.19
837,-0.68,-0.50,-0.70,-0.51,0.51,0.41,-0.17,-0.18,-0.18
845,-0.66,-0.48,-0.64,-0.46,0.46,0.40,-0.19,-0.18,-0.18
853,-0.61,-0.44,-0.59,-0.42,0.42,0.39,-0.19,-0.17,-0.17
862,-0.52,-0.36,-0.54,-0.38,0.38,0.38,-0.14,-0.16,-0.16
871,-0.46,-0.31,-0.50,-0.35,0.35,0.37,-0.12,-0.15,-0.15
879,-0.39,-0.24,-0.47,-0.32,0.32,0.36,-0.07,-0.15,-0.15
888,-0.42,-0.28,-0.44,-0.30,0.30,0.34,-0.12,-0.14,-0.14
897,-0.44,-0.31,-0.41,-0.28,0.28,0.33,-0.17,-0.13,-0.13
906,-0.45,-0.33,-0.37,-0.25,0.25,0.32,-0.20,-0.12,-0.12
915,-0.35,-0.24,-0.34,-0.23,0.23,0.31,-0.13,-0.11,-0.11
924,-0.36,-0.26,-0.30,-0.19,0.19,0.29,-0.16,-0.10,-0.10
933,-0.27,-0.18,-0.25,-0.16,0.16,0.28,-0.11,-0.09,-0.09
943,-0.10,-0.02,-0.20,-0.12,0.12,0.27,0.02,-0.08,-0.08
952,-0.10,-0.03,-0.15,-0.09,0.09,0.26,-0.01,-0.07,-0.07
962,-0.14,-0.08,-0.11,-0.05,0.05,0.24,-0.09,-0.05,-0.05
971,-0.14,-0.10,-0.06,-0.02,0.02,0.23,-0.12,-0.04,-0.04
981,0.01,0.03,-0.02,-0.00,0.00,0.21,0.01,-0.02,-0.02
991,0.05,0.05,0.01,0.01,-0.01,0.20,0.03,-0.01,-0.01
1001,-0.01,-0.02,0.03,0.01,-0.01,0.18,-0.02,0.01,0.01
1011,0.01,-0.02,0.04,0.00,-0.00,0.17,0.01,0.03,0.03
1021,0.04,-0.02,0.03,-0.02,0.02,0.15,0.06,0.06,0.05
1031,0.07,-0.01,0.01,-0.07,0.07,0.14,0.13,0.08,0.08
1041,0.11,0.00,-0.02,-0.12,0.12,0.12,0.23,0.10,0.10
1052,-0.04,-0.17,-0.06,-0.19,0.19,0.10,0.15,0.13,0.13
1062,-0.15,-0.31,-0.10,-0.26,0.26,0.08,0.10,0.16,0.16
1073,-0.13,-0.32,-0.13,-0.32,0.32,0.06,0.19,0.19,0.19
1084,-0.14,-0.36,-0.15,-0.37,0.37,0.04,0.23,0.22,0.22
1094,-0.24,-0.50,-0.15,-0.40,0.40,0.03,0.16,0.25,0.25
1105,-0.19,-0.47,-0.11,-0.40,0.40,0.01,0.22,0.29,0.29
1116,-0.15,-0.47,-0.06,-0.38,0.38,-0.01,0.23,0.32,0.32
1128,0.02,-0.34,0.03,-0.33,0.33,-0.04,0.34,0.36,0.36
1139,0.18,-0.21,0.13,-0.26,0.26,-0.06,0.44,0.39,0.39
1150,0.26,-0.16,0.25,-0.18,0.18,-0.08,0.44,0.42,0.42
1162,0.35,-0.11,0.36,-0.10,0.10,-0.11,0.44,0.46,0.46
1173,0.56,0.07,0.47,-0.02,0.02,-0.13,0.57,0.49,0.49
1185,0.68,0.16,0.57,0.05,-0.05,-0.16,0.63,0.52,0.52
1197,0.60,0.06,0.65,0.10,-0.10,-0.19,0.50,0.55,0.55
1209,0.63,0.05,0.71,0.14,-0.14,-0.22,0.49,0.57,0.57
1221,0.76,0.16,0.76,0.16,-0.16,-0.25,0.60,0.60,0.60
1233,0.88,0.26,0.79,0.17,-0.17,-0.28,0.71,0.62,0.62
1246,0.87,0.23,0.81,0.17,-0.17,-0.31,0.70,0.64,0.64
1258,0.88,0.23,0.83,0.18,-0.18,-0.34,0.70,0.65,0.65
1271,0.80,0.13,0.86,0.19,-0.19,-0.38,0.61,0.67,0.67
1283,0.81,0.13,0.89,0.22,-0.22,-0.42,0.59,0.68,0.68
1296,0.91,0.23,0.95,0.27,-0.27,-0.46,0.64,0.68,0.68
1309,0.96,0.28,1.02,0.34,-0.34,-0.50,0.63,0.69,0.69
1322,1.07,0.38,1.11,0.43,-0.43,-0.54,0.64,0.69,0.69
1335,1.18,0.49,1.22,0.53,-0.53,-0.59,0.64,0.68,0.68
1349,1.42,0.74,1.34,0.66,-0.66,-0.64,0.76,0.68,0.68
1362,1.54,0.87,1.46,0.79,-0.79,-0.69,0.76,0.67,0.67
1376,1.56,0.90,1.58,0.92,-0.92,-0.74,0.64,0.67,0.67
1390,1.73,1.07,1.71,1.05,-1.05,-0.80,0.68,0.66,0.66
1404,1.89,1.24,1.82,1.17,-1.17,-0.86,0.72,0.65,0.65
1418,1.87,1.23,1.93,1.29,-1.29,-0.92,0.58,0.64,0.64
1432,2.00,1.37,2.04,1.41,-1.41,-0.99,0.59,0.63,0.63
1446,2.17,1.54,2.15,1.52,-1.52,-1.06,0.64,0.63,0.63
1461,2.27,1.65,2.26,1.64,-1.64,-1.13,0.63,0.62,0.62
1475,2.43,1.81,2.38,1.76,-1.76,-1.21,0.67,0.62,0.62
1490,2.56,1.94,2.50,1.88,-1.88,-1.29,0.68,0.62,0.61
1505,2.44,1.82,2.62,2.01,-2.01,-1.38,0.43,0.62,0.62
1520,2.63,2.01,2.76,2.13,-2.13,-1.47,0.49,0.62,0.62
1535,3.00,2.36,2.89,2.26,-2.26,-1.56,0.73,0.63,0.63
1550,3.09,2.45,3.03,2.38,-2.38,-1.65,0.71,0.65,0.65
1566,3.22,2.56,3.16,2.49,-2.49,-1.76,0.73,0.67,0.67
1582,3.35,2.66,3.29,2.59,-2.59,-1.87,0.75,0.69,0.69
1597,3.25,2.53,3.40,2.68,-2.68,-1.98,0.58,0.72,0.72
1613,3.40,2.64,3.50,2.74,-2.74,-2.09,0.66,0.76,0.75
1629,3.72,2.93,3.58,2.79,-2.79,-2.21,0.93,0.80,0.79
1646,3.81,2.97,3.66,2.82,-2.82,-2.33,0.99,0.84,0.84
1662,3.82,2.93,3.73,2.84,-2.84,-2.45,0.98,0.89,0.89
