frequency,raw,error,smoothed,error_smoothed,equalization,parametric_eq,equalized_raw,equalized_smoothed,target
20,-13.40,-15.04,-13.34,-14.98,6.00,5.13,-7.40,-7.34,1.64
21,-12.71,-14.35,-12.75,-14.39,6.00,5.29,-6.71,-6.75,1.64
22,-12.12,-13.76,-12.20,-13.83,6.00,5.43,-6.12,-6.20,1.64
23,-11.69,-13.32,-11.67,-13.30,6.00,5.56,-5.69,-5.67,1.63
24,-11.20,-12.83,-11.17,-12.80,6.00,5.68,-5.20,-5.17,1.63
25,-10.60,-12.23,-10.70,-12.33,6.00,5.79,-4.60,-4.70,1.63
26,-10.31,-11.94,-10.26,-11.88,6.00,5.89,-4.31,-4.26,1.62
27,-9.84,-11.46,-9.84,-11.46,6.00,5.97,-3.84,-3.84,1.62
28,-9.49,-11.11,-9.45,-11.07,6.00,6.05,-3.49,-3.45,1.62
29,-9.07,-10.68,-9.08,-10.69,6.00,6.11,-3.07,-3.08,1.61
30,-8.69,-10.30,-8.73,-10.34,6.00,6.17,-2.69,-2.73,1.61
31,-8.39,-9.99,-8.40,-10.00,6.00,6.23,-2.39,-2.40,1.60
32,-8.16,-9.75,-8.09,-9.69,6.00,6.27,-2.16,-2.09,1.60
33,-7.79,-9.38,-7.80,-9.39,6.00,6.31,-1.79,-1.80,1.59
34,-7.57,-9.16,-7.52,-9.10,6.00,6.34,-1.57,-1.52,1.58
35,-7.18,-8.75,-7.26,-8.83,6.00,6.37,-1.18,-1.26,1.58
36,-6.98,-8.55,-7.01,-8.58,6.00,6.39,-0.98,-1.01,1.57
37,-6.81,-8.37,-6.78,-8.34,6.00,6.40,-0.81,-0.78,1.56
38,-6.58,-8.13,-6.57,-8.12,6.00,6.42,-0.58,-0.57,1.55
39,-6.40,-7.94,-6.37,-7.91,6.00,6.42,-0.40,-0.37,1.54
40,-6.21,-7.74,-6.18,-7.71,6.00,6.43,-0.21,-0.18,1.53
41,-5.97,-7.49,-6.01,-7.52,6.00,6.43,0.03,-0.01,1.52
42,-5.84,-7.35,-5.85,-7.35,6.00,6.43,0.16,0.15,1.51
43,-5.67,-7.16,-5.70,-7.19,6.00,6.42,0.33,0.30,1.49
44,-5.54,-7.02,-5.57,-7.05,6.00,6.41,0.46,0.43,1.48
45,-5.47,-6.93,-5.45,-6.92,6.00,6.40,0.53,0.55,1.46
46,-5.37,-6.82,-5.35,-6.80,6.00,6.39,0.63,0.65,1.45
47,-5.27,-6.70,-5.26,-6.69,6.00,6.37,0.73,0.74,1.43
48,-5.17,-6.58,-5.17,-6.59,6.00,6.35,0.83,0.83,1.42
49,-5.07,-6.46,-5.09,-6.49,6.00,6.34,0.93,0.91,1.40
50,-5.07,-6.44,-5.02,-6.40,6.00,6.31,0.93,0.98,1.38
51,-4.97,-6.32,-4.96,-6.31,6.00,6.29,1.03,1.04,1.36
52,-4.87,-6.20,-4.90,-6.23,6.00,6.27,1.13,1.10,1.34
53,-4.87,-6.18,-4.84,-6.16,6.00,6.24,1.13,1.16,1.32
54,-4.76,-6.06,-4.80,-6.09,5.99,6.22,1.23,1.19,1.29
55,-4.76,-6.04,-4.76,-6.03,5.97,6.19,1.20,1.21,1.27
56,-4.76,-6.01,-4.72,-5.97,5.94,6.16,1.17,1.21,1.25
57,-4.66,-5.88,-4.70,-5.92,5.90,6.13,1.24,1.21,1.22
58,-4.66,-5.86,-4.68,-5.87,5.87,6.10,1.20,1.19,1.19
59,-4.66,-5.83,-4.67,-5.83,5.83,6.07,1.17,1.17,1.17
60,-4.66,-5.80,-4.66,-5.80,5.80,6.04,1.14,1.14,1.14
61,-4.66,-5.77,-4.66,-5.77,5.77,6.01,1.11,1.11,1.11
62,-4.66,-5.74,-4.66,-5.74,5.74,5.98,1.08,1.08,1.08
63,-4.66,-5.71,-4.67,-5.72,5.72,5.95,1.06,1.05,1.05
64,-4.66,-5.68,-4.68,-5.69,5.69,5.92,1.03,1.02,1.02
65,-4.66,-5.65,-4.68,-5.67,5.67,5.89,1.00,0.99,0.99
66,-4.72,-5.67,-4.69,-5.64,5.64,5.85,0.92,0.95,0.95
67,-4.77,-5.69,-4.69,-5.61,5.61,5.82,0.84,0.92,0.92
68,-4.76,-5.65,-4.70,-5.58,5.58,5.79,0.82,0.88,0.88
69,-4.64,-5.49,-4.71,-5.56,5.56,5.76,0.91,0.85,0.85
70,-4.66,-5.48,-4.73,-5.54,5.54,5.72,0.88,0.81,0.81
71,-4.72,-5.49,-4.76,-5.53,5.53,5.69,0.82,0.78,0.78
72,-4.80,-5.54,-4.80,-5.54,5.54,5.66,0.74,0.74,0.74
73,-4.86,-5.56,-4.85,-5.56,5.56,5.63,0.70,0.70,0.70
74,-4.85,-5.51,-4.92,-5.58,5.58,5.60,0.74,0.66,0.66
75,-5.06,-5.68,-4.99,-5.62,5.62,5.56,0.56,0.62,0.62
76,-5.06,-5.65,-5.07,-5.66,5.66,5.53,0.60,0.59,0.59
77,-5.14,-5.69,-5.15,-5.69,5.69,5.50,0.55,0.55,0.55
78,-5.22,-5.73,-5.22,-5.72,5.72,5.47,0.50,0.51,0.51
79,-5.29,-5.76,-5.28,-5.74,5.74,5.44,0.45,0.47,0.47
80,-5.37,-5.79,-5.32,-5.75,5.75,5.41,0.38,0.42,0.42
81,-5.37,-5.75,-5.35,-5.73,5.73,5.38,0.37,0.38,0.38
82,-5.37,-5.71,-5.36,-5.71,5.71,5.35,0.34,0.34,0.34
83,-5.37,-5.67,-5.36,-5.67,5.67,5.32,0.30,0.30,0.30
84,-5.37,-5.63,-5.35,-5.61,5.61,5.30,0.25,0.26,0.26
85,-5.37,-5.59,-5.34,-5.56,5.56,5.27,0.19,0.22,0.22
86,-5.28,-5.46,-5.32,-5.49,5.49,5.24,0.21,0.18,0.18
87,-5.25,-5.38,-5.30,-5.43,5.43,5.22,0.19,0.14,0.14
88,-5.27,-5.36,-5.28,-5.37,5.37,5.19,0.11,0.09,0.09
89,-5.27,-5.32,-5.27,-5.32,5.32,5.16,0.05,0.05,0.05
90,-5.26,-5.27,-5.26,-5.27,5.27,5.14,0.01,0.01,0.01
91,-5.26,-5.23,-5.25,-5.22,5.22,5.12,-0.04,-0.03,-0.03
92,-5.26,-5.19,-5.25,-5.18,5.18,5.09,-0.08,-0.07,-0.07
93,-5.26,-5.15,-5.25,-5.14,5.14,5.07,-0.12,-0.11,-0.11
94,-5.26,-5.11,-5.25,-5.10,5.10,5.05,-0.16,-0.15,-0.15
95,-5.26,-5.07,-5.25,-5.06,5.06,5.03,-0.20,-0.19,-0.20
96,-5.26,-5.03,-5.26,-5.02,5.02,5.01,-0.24,-0.23,-0.24
97,-5.27,-4.99,-5.27,-4.99,4.99,4.99,-0.28,-0.27,-0.28
98,-5.28,-4.96,-5.29,-4.97,4.97,4.97,-0.31,-0.32,-0.32
99,-5.29,-4.93,-5.31,-4.95,4.95,4.95,-0.34,-0.36,-0.36
100,-5.30,-4.91,-5.35,-4.95,4.95,4.93,-0.36,-0.40,-0.39
101,-5.36,-4.92,-5.39,-4.95,4.95,4.92,-0.41,-0.44,-0.43
102,-5.47,-5.00,-5.44,-4.96,4.96,4.90,-0.52,-0.49,-0.47
104,-5.50,-4.95,-5.50,-4.97,4.97,4.87,-0.53,-0.53,-0.55
105,-5.59,-5.01,-5.56,-4.98,4.98,4.86,-0.61,-0.57,-0.58
106,-5.61,-5.00,-5.61,-5.00,5.00,4.85,-0.61,-0.61,-0.62
107,-5.64,-4.99,-5.67,-5.02,5.02,4.84,-0.62,-0.65,-0.65
108,-5.76,-5.07,-5.72,-5.03,5.03,4.83,-0.72,-0.69,-0.69
109,-5.82,-5.10,-5.77,-5.05,5.05,4.82,-0.78,-0.72,-0.72
110,-5.81,-5.06,-5.81,-5.06,5.06,4.81,-0.75,-0.75,-0.75
111,-5.80,-5.02,-5.86,-5.08,5.08,4.80,-0.73,-0.78,-0.78
112,-5.81,-5.00,-5.91,-5.09,5.09,4.80,-0.72,-0.81,-0.81
113,-6.01,-5.17,-5.96,-5.11,5.11,4.79,-0.90,-0.84,-0.84
114,-6.08,-5.21,-6.00,-5.13,5.13,4.79,-0.95,-0.88,-0.87
115,-6.05,-5.15,-6.05,-5.15,5.15,4.78,-0.90,-0.91,-0.90
117,-6.05,-5.10,-6.10,-5.16,5.16,4.78,-0.89,-0.94,-0.95
118,-6.14,-5.17,-6.15,-5.18,5.18,4.78,-0.97,-0.97,-0.98
119,-6.25,-5.25,-6.19,-5.20,5.20,4.78,-1.06,-1.00,-1.00
120,-6.23,-5.21,-6.24,-5.21,5.21,4.79,-1.02,-1.02,-1.02
121,-6.20,-5.16,-6.28,-5.23,5.23,4.79,-0.97,-1.05,-1.04
123,-6.28,-5.19,-6.32,-5.24,5.24,4.80,-1.03,-1.08,-1.09
124,-6.43,-5.33,-6.36,-5.25,5.25,4.81,-1.18,-1.10,-1.11
125,-6.44,-5.32,-6.39,-5.26,5.26,4.82,-1.18,-1.13,-1.12
126,-6.40,-5.26,-6.42,-5.27,5.27,4.83,-1.14,-1.15,-1.14
128,-6.39,-5.21,-6.44,-5.26,5.26,4.86,-1.13,-1.17,-1.18
129,-6.49,-5.29,-6.45,-5.26,5.26,4.87,-1.23,-1.19,-1.20
130,-6.54,-5.33,-6.47,-5.25,5.25,4.89,-1.29,-1.22,-1.21
131,-6.50,-5.27,-6.48,-5.24,5.24,4.90,-1.26,-1.24,-1.23
133,-6.43,-5.16,-6.50,-5.24,5.24,4.94,-1.19,-1.26,-1.26
134,-6.40,-5.13,-6.52,-5.24,5.24,4.96,-1.16,-1.28,-1.28
135,-6.48,-5.19,-6.55,-5.25,5.25,4.99,-1.23,-1.30,-1.29
137,-6.72,-5.39,-6.58,-5.26,5.26,5.04,-1.46,-1.32,-1.33
138,-6.69,-5.35,-6.62,-5.28,5.28,5.07,-1.41,-1.34,-1.34
140,-6.65,-5.28,-6.66,-5.30,5.30,5.13,-1.35,-1.36,-1.37
141,-6.65,-5.27,-6.71,-5.33,5.33,5.16,-1.33,-1.38,-1.38
142,-6.78,-5.38,-6.76,-5.35,5.35,5.19,-1.42,-1.40,-1.40
144,-6.75,-5.32,-6.81,-5.38,5.38,5.27,-1.37,-1.42,-1.43
145,-6.76,-5.32,-6.85,-5.41,5.41,5.31,-1.35,-1.45,-1.44
147,-7.03,-5.56,-6.90,-5.43,5.43,5.39,-1.60,-1.47,-1.47
148,-7.02,-5.53,-6.94,-5.45,5.45,5.43,-1.57,-1.49,-1.48
150,-6.95,-5.44,-6.97,-5.47,5.47,5.52,-1.49,-1.51,-1.51
151,-6.95,-5.43,-7.01,-5.48,5.48,5.57,-1.47,-1.53,-1.52
153,-7.15,-5.60,-7.05,-5.50,5.50,5.67,-1.65,-1.55,-1.55
154,-7.15,-5.58,-7.09,-5.53,5.53,5.72,-1.62,-1.56,-1.56
156,-7.05,-5.47,-7.16,-5.57,5.57,5.82,-1.48,-1.58,-1.59
157,-7.10,-5.50,-7.24,-5.63,5.63,5.88,-1.46,-1.60,-1.60
159,-7.26,-5.64,-7.33,-5.71,5.71,5.99,-1.55,-1.62,-1.62
160,-7.39,-5.76,-7.44,-5.80,5.80,6.04,-1.59,-1.64,-1.63
162,-7.53,-5.88,-7.55,-5.90,5.95,6.15,-1.58,-1.61,-1.65
164,-7.70,-6.03,-7.66,-5.99,6.01,6.27,-1.69,-1.65,-1.67
165,-7.95,-6.27,-7.76,-6.07,6.01,6.32,-1.94,-1.74,-1.68
167,-7.97,-6.27,-7.83,-6.13,6.01,6.43,-1.96,-1.82,-1.70
169,-7.87,-6.16,-7.88,-6.17,6.00,6.54,-1.87,-1.88,-1.72
170,-7.88,-6.16,-7.91,-6.19,6.00,6.59,-1.88,-1.91,-1.72
172,-7.89,-6.15,-7.93,-6.19,6.00,6.68,-1.89,-1.93,-1.74
174,-7.89,-6.15,-7.94,-6.19,6.00,6.77,-1.89,-1.94,-1.75
175,-7.90,-6.15,-7.95,-6.19,6.00,6.81,-1.90,-1.95,-1.75
177,-7.90,-6.14,-7.96,-6.20,6.00,6.88,-1.90,-1.96,-1.76
179,-7.90,-6.13,-7.97,-6.20,6.00,6.93,-1.90,-1.97,-1.77
181,-8.16,-6.38,-7.99,-6.21,6.00,6.98,-2.16,-1.99,-1.78
183,-8.07,-6.29,-8.01,-6.23,6.00,7.00,-2.07,-2.01,-1.78
184,-7.99,-6.20,-8.02,-6.24,6.00,7.01,-1.99,-2.02,-1.78
186,-7.97,-6.19,-8.04,-6.26,6.00,7.01,-1.97,-2.04,-1.79
188,-7.96,-6.17,-8.06,-6.27,6.00,6.99,-1.96,-2.06,-1.79
190,-8.15,-6.36,-8.08,-6.28,6.00,6.96,-2.15,-2.08,-1.79
192,-8.18,-6.38,-8.09,-6.29,6.00,6.91,-2.18,-2.09,-1.79
194,-8.01,-6.22,-8.09,-6.29,6.00,6.84,-2.01,-2.09,-1.79
196,-8.00,-6.20,-8.08,-6.28,6.00,6.76,-2.00,-2.08,-1.80
198,-8.08,-6.28,-8.06,-6.26,6.00,6.67,-2.08,-2.06,-1.80
200,-8.28,-6.48,-8.03,-6.23,6.00,6.57,-2.28,-2.03,-1.80
202,-8.06,-6.26,-7.99,-6.19,6.00,6.45,-2.06,-1.99,-1.80
204,-7.74,-5.95,-7.94,-6.14,6.00,6.33,-1.74,-1.94,-1.80
206,-7.95,-6.15,-7.89,-6.09,6.00,6.21,-1.95,-1.89,-1.80
208,-7.83,-6.03,-7.85,-6.05,6.00,6.08,-1.83,-1.85,-1.80
210,-7.62,-5.82,-7.82,-6.02,6.00,5.94,-1.62,-1.82,-1.80
212,-7.78,-5.98,-7.80,-6.00,6.00,5.81,-1.78,-1.80,-1.80
214,-7.86,-6.06,-7.79,-5.99,6.00,5.67,-1.86,-1.79,-1.80
216,-7.82,-6.02,-7.78,-5.98,6.00,5.53,-1.82,-1.78,-1.80
218,-7.78,-5.98,-7.77,-5.97,5.99,5.39,-1.79,-1.78,-1.80
221,-7.64,-5.84,-7.74,-5.94,5.94,5.19,-1.70,-1.80,-1.80
223,-7.65,-5.84,-7.69,-5.89,5.89,5.06,-1.75,-1.80,-1.80
225,-7.78,-5.98,-7.61,-5.81,5.81,4.93,-1.97,-1.80,-1.80
227,-7.60,-5.80,-7.49,-5.70,5.70,4.80,-1.90,-1.80,-1.80
229,-7.42,-5.62,-7.35,-5.55,5.55,4.67,-1.87,-1.79,-1.79
232,-7.15,-5.36,-7.17,-5.38,5.38,4.49,-1.78,-1.79,-1.79
234,-6.95,-5.17,-6.96,-5.18,5.18,4.37,-1.78,-1.79,-1.79
236,-6.70,-4.92,-6.75,-4.96,4.96,4.25,-1.74,-1.78,-1.78
239,-6.48,-4.70,-6.52,-4.75,4.75,4.08,-1.73,-1.78,-1.78
241,-6.31,-4.54,-6.30,-4.53,4.53,3.97,-1.77,-1.77,-1.77
244,-6.05,-4.28,-6.09,-4.33,4.33,3.81,-1.72,-1.76,-1.77
246,-5.87,-4.11,-5.90,-4.14,4.14,3.71,-1.73,-1.76,-1.76
248,-5.72,-3.97,-5.72,-3.97,3.97,3.61,-1.75,-1.75,-1.75
251,-5.51,-3.76,-5.55,-3.81,3.81,3.46,-1.70,-1.74,-1.74
253,-5.48,-3.74,-5.40,-3.67,3.67,3.36,-1.81,-1.74,-1.73
256,-5.26,-3.53,-5.27,-3.54,3.54,3.22,-1.72,-1.73,-1.73
259,-5.12,-3.39,-5.14,-3.42,3.42,3.08,-1.69,-1.72,-1.72
261,-5.01,-3.30,-5.02,-3.31,3.31,2.99,-1.70,-1.71,-1.71
264,-4.84,-3.14,-4.91,-3.21,3.21,2.86,-1.64,-1.71,-1.71
266,-4.78,-3.08,-4.80,-3.10,3.10,2.77,-1.68,-1.70,-1.70
269,-4.76,-3.06,-4.68,-2.99,2.99,2.64,-1.77,-1.69,-1.69
272,-4.59,-2.91,-4.55,-2.87,2.87,2.52,-1.73,-1.68,-1.68
274,-4.46,-2.79,-4.41,-2.73,2.73,2.43,-1.73,-1.68,-1.68
277,-4.28,-2.61,-4.26,-2.59,2.59,2.31,-1.69,-1.67,-1.67
280,-4.07,-2.41,-4.10,-2.44,2.44,2.18,-1.63,-1.66,-1.66
283,-3.90,-2.24,-3.94,-2.28,2.28,2.06,-1.62,-1.66,-1.66
286,-3.74,-2.09,-3.77,-2.11,2.11,1.93,-1.63,-1.65,-1.65
288,-3.62,-1.97,-3.59,-1.94,1.94,1.85,-1.67,-1.64,-1.64
291,-3.41,-1.77,-3.41,-1.77,1.77,1.73,-1.63,-1.64,-1.64
294,-3.25,-1.61,-3.23,-1.60,1.60,1.60,-1.65,-1.63,-1.63
297,-3.04,-1.42,-3.05,-1.43,1.43,1.48,-1.62,-1.63,-1.63
300,-2.88,-1.26,-2.87,-1.25,1.25,1.35,-1.63,-1.62,-1.62
303,-2.69,-1.08,-2.70,-1.08,1.08,1.23,-1.61,-1.62,-1.62
306,-2.53,-0.92,-2.52,-0.91,0.91,1.10,-1.62,-1.61,-1.61
309,-2.38,-0.78,-2.35,-0.74,0.74,0.98,-1.64,-1.60,-1.60
312,-2.18,-0.58,-2.19,-0.59,0.59,0.85,-1.60,-1.60,-1.60
316,-1.98,-0.39,-2.03,-0.44,0.44,0.69,-1.54,-1.59,-1.59
319,-1.86,-0.27,-1.89,-0.30,0.30,0.56,-1.56,-1.59,-1.59
322,-1.73,-0.14,-1.76,-0.17,0.17,0.44,-1.55,-1.58,-1.58
325,-1.65,-0.07,-1.64,-0.06,0.06,0.31,-1.59,-1.58,-1.58
328,-1.52,0.05,-1.52,0.05,-0.05,0.19,-1.57,-1.57,-1.57
332,-1.43,0.14,-1.42,0.15,-0.15,0.03,-1.58,-1.57,-1.57
335,-1.41,0.16,-1.31,0.25,-0.25,-0.09,-1.66,-1.57,-1.57
338,-1.25,0.32,-1.22,0.35,-0.35,-0.20,-1.59,-1.56,-1.56
342,-1.01,0.55,-1.12,0.44,-0.44,-0.35,-1.44,-1.56,-1.56
345,-0.96,0.59,-1.03,0.53,-0.53,-0.46,-1.49,-1.56,-1.56
349,-1.01,0.54,-0.94,0.61,-0.61,-0.59,-1.62,-1.55,-1.55
352,-0.95,0.60,-0.86,0.69,-0.69,-0.69,-1.64,-1.55,-1.55
356,-0.76,0.79,-0.78,0.77,-0.77,-0.81,-1.53,-1.55,-1.55
359,-0.66,0.89,-0.70,0.85,-0.85,-0.89,-1.51,-1.55,-1.55
363,-0.61,0.93,-0.63,0.91,-0.91,-0.99,-1.53,-1.55,-1.54
366,-0.56,0.98,-0.57,0.98,-0.98,-1.06,-1.54,-1.54,-1.54
370,-0.54,1.00,-0.51,1.03,-1.03,-1.14,-1.57,-1.54,-1.54
374,-0.43,1.11,-0.46,1.08,-1.08,-1.20,-1.51,-1.54,-1.54
377,-0.42,1.12,-0.41,1.12,-1.12,-1.24,-1.55,-1.54,-1.54
381,-0.42,1.12,-0.37,1.16,-1.16,-1.29,-1.58,-1.54,-1.54
385,-0.33,1.20,-0.34,1.19,-1.19,-1.31,-1.52,-1.53,-1.53
389,-0.30,1.22,-0.32,1.21,-1.21,-1.33,-1.51,-1.53,-1.53
393,-0.30,1.22,-0.30,1.22,-1.22,-1.33,-1.52,-1.52,-1.52
397,-0.30,1.22,-0.30,1.22,-1.22,-1.33,-1.51,-1.51,-1.51
401,-0.30,1.21,-0.30,1.20,-1.20,-1.31,-1.50,-1.50,-1.50
405,-0.30,1.19,-0.31,1.18,-1.18,-1.28,-1.48,-1.49,-1.49
409,-0.30,1.17,-0.34,1.14,-1.14,-1.25,-1.45,-1.48,-1.48
413,-0.36,1.11,-0.36,1.10,-1.10,-1.20,-1.46,-1.46,-1.46
417,-0.41,1.03,-0.39,1.05,-1.05,-1.15,-1.46,-1.44,-1.44
421,-0.41,1.01,-0.42,1.00,-1.00,-1.10,-1.40,-1.42,-1.42
425,-0.48,0.92,-0.45,0.94,-0.94,-1.04,-1.42,-1.39,-1.40
430,-0.49,0.88,-0.48,0.89,-0.89,-0.97,-1.38,-1.37,-1.37
434,-0.50,0.84,-0.49,0.85,-0.85,-0.90,-1.34,-1.34,-1.34
438,-0.54,0.76,-0.50,0.80,-0.80,-0.84,-1.35,-1.30,-1.30
443,-0.51,0.76,-0.50,0.77,-0.77,-0.76,-1.28,-1.27,-1.27
447,-0.46,0.76,-0.49,0.74,-0.74,-0.69,-1.20,-1.23,-1.23
451,-0.45,0.74,-0.47,0.71,-0.71,-0.63,-1.17,-1.19,-1.19
456,-0.45,0.69,-0.46,0.69,-0.69,-0.55,-1.14,-1.15,-1.15
460,-0.47,0.63,-0.45,0.66,-0.66,-0.49,-1.13,-1.11,-1.11
465,-0.43,0.63,-0.44,0.63,-0.63,-0.42,-1.06,-1.07,-1.07
470,-0.41,0.62,-0.43,0.60,-0.60,-0.35,-1.00,-1.03,-1.03
474,-0.41,0.57,-0.42,0.56,-0.56,-0.29,-0.98,-0.99,-0.99
479,-0.43,0.52,-0.43,0.52,-0.52,-0.23,-0.95,-0.95,-0.95
484,-0.42,0.50,-0.43,0.48,-0.48,-0.16,-0.90,-0.92,-0.92
489,-0.48,0.41,-0.44,0.44,-0.44,-0.10,-0.92,-0.89,-0.88
494,-0.44,0.42,-0.46,0.40,-0.40,-0.05,-0.84,-0.86,-0.86
499,-0.47,0.36,-0.47,0.36,-0.36,0.00,-0.83,-0.84,-0.83
504,-0.49,0.32,-0.49,0.32,-0.32,0.05,-0.82,-0.82,-0.81
509,-0.57,0.23,-0.52,0.29,-0.29,0.09,-0.85,-0.80,-0.80
514,-0.56,0.23,-0.54,0.25,-0.25,0.14,-0.81,-0.79,-0.79
519,-0.55,0.23,-0.58,0.21,-0.21,0.17,-0.76,-0.78,-0.78
524,-0.58,0.20,-0.62,0.16,-0.16,0.21,-0.75,-0.78,-0.78
529,-0.67,0.11,-0.67,0.11,-0.11,0.24,-0.78,-0.78,-0.78
535,-0.69,0.10,-0.73,0.06,-0.06,0.28,-0.75,-0.79,-0.79
540,-0.79,0.01,-0.80,-0.00,0.00,0.31,-0.78,-0.80,-0.80
545,-0.86,-0.06,-0.87,-0.07,0.07,0.33,-0.80,-0.81,-0.80
551,-1.01,-0.19,-0.95,-0.13,0.13,0.36,-0.87,-0.82,-0.82
556,-1.06,-0.23,-1.03,-0.20,0.20,0.38,-0.86,-0.83,-0.83
562,-1.11,-0.27,-1.11,-0.27,0.27,0.40,-0.84,-0.84,-0.84
568,-1.16,-0.31,-1.18,-0.33,0.33,0.42,-0.82,-0.85,-0.85
573,-1.20,-0.35,-1.25,-0.40,0.40,0.44,-0.81,-0.86,-0.86
579,-1.34,-0.47,-1.32,-0.46,0.46,0.45,-0.88,-0.86,-0.86
585,-1.36,-0.50,-1.37,-0.51,0.51,0.47,-0.85,-0.86,-0.87
591,-1.48,-0.61,-1.42,-0.56,0.56,0.48,-0.92,-0.86,-0.87
596,-1.48,-0.62,-1.46,-0.60,0.60,0.49,-0.88,-0.86,-0.86
602,-1.48,-0.62,-1.49,-0.64,0.64,0.50,-0.84,-0.85,-0.86
608,-1.47,-0.62,-1.51,-0.67,0.67,0.51,-0.80,-0.84,-0.84
615,-1.55,-0.72,-1.52,-0.69,0.69,0.51,-0.86,-0.83,-0.83
621,-1.53,-0.72,-1.51,-0.71,0.71,0.52,-0.82,-0.81,-0.81
627,-1.51,-0.72,-1.50,-0.71,0.71,0.52,-0.79,-0.79,-0.79
633,-1.48,-0.72,-1.48,-0.72,0.72,0.53,-0.76,-0.76,-0.76
639,-1.44,-0.71,-1.45,-0.71,0.71,0.53,-0.73,-0.73,-0.73
646,-1.41,-0.70,-1.41,-0.71,0.71,0.53,-0.70,-0.70,-0.70
652,-1.36,-0.69,-1.36,-0.69,0.69,0.53,-0.67,-0.67,-0.67
659,-1.32,-0.68,-1.32,-0.68,0.68,0.53,-0.64,-0.64,-0.64
665,-1.26,-0.66,-1.27,-0.66,0.66,0.53,-0.60,-0.60,-0.60
672,-1.21,-0.65,-1.21,-0.64,0.64,0.53,-0.57,-0.57,-0.57
679,-1.16,-0.63,-1.16,-0.62,0.62,0.52,-0.54,-0.53,-0.53
686,-1.12,-0.62,-1.11,-0.61,0.61,0.52,-0.51,-0.50,-0.50
692,-1.08,-0.61,-1.06,-0.59,0.59,0.52,-0.49,-0.47,-0.47
699,-1.05,-0.61,-1.02,-0.58,0.58,0.51,-0.47,-0.44,-0.44
706,-0.94,-0.53,-0.99,-0.58,0.58,0.51,-0.35,-0.41,-0.41
713,-0.93,-0.55,-0.98,-0.59,0.59,0.50,-0.34,-0.38,-0.38
721,-0.94,-0.58,-0.97,-0.61,0.61,0.50,-0.33,-0.36,-0.36
728,-0.96,-0.62,-0.97,-0.63,0.63,0.49,-0.32,-0.34,-0.34
735,-0.98,-0.67,-0.98,-0.66,0.66,0.48,-0.32,-0.32,-0.32
742,-1.01,-0.71,-0.99,-0.69,0.69,0.48,-0.32,-0.30,-0.30
750,-1.04,-0.76,-1.01,-0.72,0.72,0.47,-0.32,-0.28,-0.28
757,-1.07,-0.80,-1.01,-0.74,0.74,0.46,-0.32,-0.27,-0.27
765,-0.99,-0.73,-1.01,-0.76,0.76,0.46,-0.24,-0.26,-0.26
773,-1.00,-0.75,-1.01,-0.76,0.76,0.45,-0.24,-0.25,-0.25
780,-1.02,-0.78,-0.99,-0.76,0.76,0.44,-0.26,-0.24,-0.24
788,-0.92,-0.70,-0.97,-0.74,0.74,0.43,-0.18,-0.23,-0.23
796,-0.91,-0.70,-0.94,-0.72,0.72,0.42,-0.19,-0.22,-0.22
804,-0.94,-0.73,-0.90,-0.69,0.69,0.41,-0.25,-0.21,-0.21
812,-0.89,-0.69,-0.86,-0.65,0.65,0.40,-0.24,-0.20,-0.20
820,-0.81,-0.61,-0.81,-0.61,0.61,0.40,-0.20,-0.20,-0.20
828,-0.74,-0.55,-0.75,-0.56,0.56,0.39,-0.18,-0.19,-0.19
837,-0.68,-0.50,-0.70,-0.51,0.51,0.38,-0.17,-0.18,-0.18
845,-0.66,-0.48,-0.64,-0.47,0.47,0.37,-0.19,-0.18,-0.18
853,-0.61,-0.44,-0.59,-0.42,0.42,0.36,-0.19,-0.17,-0.17
862,-0.52,-0.36,-0.54,-0.38,0.38,0.35,-0.14,-0.16,-0.16
871,-0.46,-0.31,-0.50,-0.35,0.35,0.33,-0.12,-0.15,-0.15
879,-0.39,-0.24,-0.47,-0.32,0.32,0.33,-0.07,-0.15,-0.15
888,-0.42,-0.28,-0.44,-0.30,0.30,0.31,-0.12,-0.14,-0.14
897,-0.44,-0.31,-0.41,-0.28,0.28,0.30,-0.17,-0.13,-0.13
906,-0.45,-0.33,-0.37,-0.25,0.25,0.29,-0.20,-0.12,-0.12
915,-0.35,-0.24,-0.34,-0.23,0.23,0.28,-0.13,-0.11,-0.11
924,-0.36,-0.26,-0.30,-0.19,0.19,0.27,-0.16,-0.10,-0.10
933,-0.27,-0.18,-0.25,-0.16,0.16,0.26,-0.11,-0.09,-0.09
943,-0.10,-0.03,-0.20,-0.12,0.12,0.24,0.02,-0.08,-0.08
952,-0.10,-0.03,-0.15,-0.09,0.09,0.23,-0.01,-0.07,-0.07
962,-0.14,-0.08,-0.11,-0.05,0.05,0.22,-0.09,-0.05,-0.05
971,-0.14,-0.11,-0.06,-0.02,0.02,0.21,-0.12,-0.04,-0.04
981,0.01,0.03,-0.02,-0.00,0.00,0.19,0.01,-0.02,-0.02
991,0.05,0.05,0.01,0.01,-0.01,0.18,0.03,-0.01,-0.01
1001,-0.01,-0.02,0.03,0.01,-0.01,0.17,-0.02,0.01,0.01
1011,0.01,-0.02,0.04,0.00,-0.00,0.15,0.01,0.03,0.03
1021,0.04,-0.02,0.03,-0.02,0.02,0.14,0.06,0.06,0.06
1031,0.07,-0.01,0.01,-0.07,0.07,0.12,0.13,0.08,0.08
1041,0.11,0.00,-0.02,-0.12,0.12,0.11,0.23,0.10,0.10
1052,-0.04,-0.17,-0.06,-0.19,0.19,0.09,0.15,0.13,0.13
1062,-0.15,-0.31,-0.10,-0.26,0.26,0.08,0.10,0.16,0.16
1073,-0.13,-0.32,-0.13,-0.32,0.32,0.06,0.19,0.19,0.19
1084,-0.14,-0.36,-0.15,-0.37,0.37,0.04,0.24,0.22,0.22
1094,-0.24,-0.50,-0.15,-0.40,0.40,0.03,0.16,0.25,0.25
1105,-0.19,-0.47,-0.11,-0.40,0.40,0.01,0.22,0.29,0.29
1116,-0.15,-0.47,-0.06,-0.38,0.38,-0.01,0.23,0.32,0.32
1128,0.02,-0.34,0.03,-0.33,0.33,-0.03,0.34,0.36,0.36
1139,0.18,-0.21,0.13,-0.26,0.26,-0.05,0.44,0.39,0.39
1150,0.26,-0.16,0.25,-0.18,0.18,-0.07,0.44,0.42,0.42
1162,0.35,-0.11,0.36,-0.10,0.10,-0.10,0.44,0.46,0.46
1173,0.56,0.07,0.47,-0.02,0.02,-0.12,0.57,0.49,0.49
1185,0.68,0.16,0.57,0.05,-0.05,-0.14,0.63,0.52,0.52
1197,0.60,0.05,0.65,0.10,-0.10,-0.17,0.50,0.55,0.55
1209,0.63,0.05,0.71,0.14,-0.14,-0.19,0.49,0.57,0.57
1221,0.76,0.16,0.76,0.16,-0.16,-0.22,0.60,0.60,0.60
1233,0.88,0.26,0.79,0.17,-0.17,-0.25,0.71,0.62,0.62
1246,0.87,0.23,0.81,0.17,-0.17,-0.28,0.70,0.64,0.64
1258,0.88,0.23,0.83,0.18,-0.18,-0.31,0.70,0.65,0.65
1271,0.80,0.13,0.86,0.19,-0.19,-0.34,0.61,0.67,0.67
1283,0.81,0.13,0.89,0.22,-0.22,-0.37,0.59,0.68,0.68
1296,0.91,0.23,0.95,0.27,-0.27,-0.41,0.64,0.68,0.68
1309,0.96,0.28,1.02,0.34,-0.34,-0.45,0.63,0.69,0.69
1322,1.07,0.38,1.11,0.43,-0.43,-0.49,0.64,0.69,0.69
1335,1.18,0.49,1.22,0.53,-0.53,-0.53,0.64,0.68,0.68
1349,1.42,0.73,1.34,0.66,-0.66,-0.58,0.76,0.68,0.68
1362,1.54,0.87,1.46,0.79,-0.79,-0.62,0.76,0.67,0.67
1376,1.56,0.90,1.58,0.92,-0.92,-0.67,0.65,0.67,0.67
1390,1.73,1.07,1.71,1.05,-1.05,-0.72,0.68,0.66,0.66
1404,1.89,1.24,1.82,1.17,-1.17,-0.78,0.72,0.65,0.65
1418,1.87,1.23,1.93,1.29,-1.29,-0.84,0.58,0.64,0.64
1432,2.00,1.37,2.04,1.41,-1.41,-0.90,0.59,0.63,0.63
1446,2.17,1.54,2.15,1.52,-1.52,-0.96,0.64,0.63,0.63
1461,2.27,1.65,2.26,1.64,-1.64,-1.03,0.63,0.62,0.62
1475,2.43,1.81,2.38,1.76,-1.76,-1.10,0.67,0.62,0.62
1490,2.56,1.94,2.50,1.88,-1.88,-1.18,0.68,0.62,0.62
1505,2.44,1.82,2.62,2.01,-2.01,-1.26,0.43,0.62,0.62
1520,2.63,2.01,2.76,2.13,-2.13,-1.34,0.49,0.62,0.62
1535,3.00,2.36,2.89,2.26,-2.26,-1.43,0.73,0.63,0.63
1550,3.09,2.45,3.03,2.38,-2.38,-1.52,0.71,0.65,0.65
1566,3.22,2.56,3.16,2.49,-2.49,-1.62,0.73,0.67,0.67
1582,3.35,2.66,3.29,2.59,-2.59,-1.72,0.75,0.69,0.69
1597,3.25,2.53,3.40,2.68,-2.68,-1.82,0.58,0.72,0.72
1613,3.40,2.64,3.50,2.74,-2.74,-1.93,0.66,0.76,0.75
1629,3.72,2.93,3.58,2.79,-2.79,-2.04,0.93,0.80,0.79
1646,3.81,2.97,3.66,2.82,-2.82,-2.17,0.99,0.84,0.84
