frequency,raw,error,smoothed,error_smoothed,equalization,parametric_eq,fixed_band_eq,equalized_raw,equalized_smoothed,target
20.00,3.04,4.62,3.04,4.63,-4.62,-5.71,-2.71,-1.59,-1.58,-1.58
20.20,3.07,4.65,3.06,4.65,-4.65,-5.72,-2.78,-1.58,-1.58,-1.58
20.40,3.08,4.66,3.09,4.67,-4.67,-5.72,-2.86,-1.59,-1.58,-1.58
20.61,3.11,4.69,3.11,4.69,-4.69,-5.72,-2.94,-1.58,-1.58,-1.58
20.81,3.14,4.72,3.13,4.72,-4.72,-5.72,-3.02,-1.58,-1.59,-1.58
21.02,3.16,4.74,3.16,4.75,-4.75,-5.73,-3.11,-1.59,-1.59,-1.58
21.23,3.18,4.78,3.18,4.78,-4.78,-5.73,-3.20,-1.60,-1.60,-1.60
21.44,3.20,4.81,3.20,4.82,-4.82,-5.73,-3.29,-1.62,-1.62,-1.62
21.66,3.22,4.85,3.22,4.86,-4.85,-5.74,-3.38,-1.63,-1.63,-1.64
21.87,3.24,4.90,3.24,4.89,-4.89,-5.74,-3.48,-1.65,-1.65,-1.66
22.09,3.27,4.94,3.26,4.93,-4.93,-5.74,-3.58,-1.66,-1.67,-1.67
22.31,3.28,4.98,3.28,4.98,-4.98,-5.74,-3.68,-1.70,-1.70,-1.70
22.54,3.30,5.02,3.30,5.02,-5.02,-5.75,-3.78,-1.72,-1.72,-1.72
22.76,3.33,5.07,3.32,5.07,-5.07,-5.75,-3.89,-1.74,-1.75,-1.74
22.99,3.35,5.12,3.35,5.12,-5.12,-5.75,-4.00,-1.77,-1.77,-1.77
23.22,3.37,5.17,3.37,5.17,-5.16,-5.76,-4.11,-1.79,-1.79,-1.80
23.45,3.40,5.22,3.40,5.21,-5.21,-5.76,-4.23,-1.81,-1.81,-1.82
23.69,3.43,5.26,3.43,5.26,-5.25,-5.77,-4.35,-1.82,-1.83,-1.83
23.92,3.45,5.30,3.45,5.30,-5.30,-5.77,-4.46,-1.85,-1.84,-1.85
24.16,3.48,5.34,3.48,5.34,-5.34,-5.78,-4.59,-1.86,-1.86,-1.86
24.40,3.50,5.38,3.50,5.38,-5.38,-5.78,-4.71,-1.88,-1.88,-1.88
24.65,3.52,5.42,3.52,5.42,-5.42,-5.78,-4.84,-1.90,-1.90,-1.90
24.89,3.55,5.47,3.55,5.46,-5.46,-5.79,-4.96,-1.91,-1.92,-1.92
25.14,3.57,5.50,3.57,5.50,-5.50,-5.79,-5.09,-1.93,-1.93,-1.93
25.39,3.59,5.54,3.59,5.54,-5.54,-5.80,-5.22,-1.95,-1.95,-1.95
25.65,3.62,5.58,3.62,5.58,-5.59,-5.81,-5.35,-1.97,-1.97,-1.96
25.91,3.64,5.63,3.64,5.63,-5.63,-5.81,-5.48,-1.99,-1.99,-1.99
26.16,3.66,5.66,3.66,5.67,-5.66,-5.82,-5.61,-2.00,-2.00,-2.00
26.43,3.69,5.70,3.69,5.71,-5.70,-5.82,-5.74,-2.01,-2.02,-2.01
26.69,3.71,5.74,3.71,5.74,-5.74,-5.83,-5.87,-2.03,-2.03,-2.03
26.96,3.74,5.78,3.74,5.78,-5.78,-5.84,-6.00,-2.04,-2.04,-2.04
27.23,3.76,5.81,3.76,5.81,-5.82,-5.85,-6.13,-2.06,-2.06,-2.06
27.50,3.78,5.85,3.78,5.85,-5.85,-5.85,-6.25,-2.07,-2.07,-2.07
27.77,3.80,5.89,3.80,5.89,-5.89,-5.86,-6.37,-2.09,-2.09,-2.09
28.05,3.83,5.93,3.82,5.92,-5.92,-5.87,-6.49,-2.09,-2.10,-2.10
28.33,3.84,5.96,3.84,5.96,-5.95,-5.88,-6.60,-2.11,-2.11,-2.12
28.62,3.86,5.99,3.86,5.99,-5.98,-5.89,-6.70,-2.12,-2.13,-2.13
28.90,3.87,6.01,3.87,6.01,-6.01,-5.90,-6.80,-2.14,-2.14,-2.14
29.19,3.88,6.04,3.88,6.04,-6.04,-5.91,-6.89,-2.16,-2.16,-2.16
29.48,3.90,6.06,3.90,6.06,-6.07,-5.92,-6.98,-2.17,-2.17,-2.16
29.78,3.92,6.09,3.92,6.09,-6.09,-5.93,-7.05,-2.17,-2.18,-2.17
30.08,3.93,6.11,3.93,6.12,-6.12,-5.94,-7.12,-2.19,-2.19,-2.18
30.38,3.94,6.14,3.94,6.14,-6.14,-5.96,-7.17,-2.20,-2.20,-2.21
30.68,3.95,6.17,3.95,6.17,-6.17,-5.97,-7.22,-2.22,-2.22,-2.22
30.99,3.96,6.20,3.96,6.19,-6.19,-5.98,-7.26,-2.23,-2.23,-2.24
31.30,3.96,6.21,3.96,6.21,-6.21,-6.00,-7.28,-2.25,-2.25,-2.25
31.61,3.97,6.23,3.96,6.23,-6.23,-6.01,-7.30,-2.26,-2.27,-2.26
31.93,3.96,6.24,3.96,6.24,-6.25,-6.03,-7.30,-2.29,-2.29,-2.28
32.24,3.95,6.26,3.96,6.26,-6.26,-6.04,-7.30,-2.31,-2.30,-2.31
32.57,3.96,6.28,3.95,6.28,-6.28,-6.06,-7.28,-2.32,-2.32,-2.32
32.89,3.95,6.29,3.95,6.29,-6.29,-6.07,-7.26,-2.34,-2.34,-2.34
33.22,3.94,6.31,3.94,6.30,-6.30,-6.09,-7.22,-2.36,-2.36,-2.37
33.55,3.93,6.31,3.93,6.31,-6.31,-6.11,-7.18,-2.38,-2.38,-2.38
33.89,3.92,6.32,3.92,6.32,-6.32,-6.12,-7.13,-2.40,-2.40,-2.40
34.23,3.91,6.33,3.91,6.33,-6.33,-6.14,-7.08,-2.42,-2.42,-2.42
34.57,3.90,6.34,3.90,6.34,-6.34,-6.15,-7.02,-2.44,-2.44,-2.44
34.92,3.89,6.35,3.89,6.35,-6.34,-6.16,-6.95,-2.45,-2.46,-2.47
35.27,3.87,6.35,3.87,6.35,-6.35,-6.18,-6.88,-2.48,-2.48,-2.48
35.62,3.85,6.35,3.85,6.35,-6.35,-6.19,-6.81,-2.50,-2.50,-2.50
35.97,3.83,6.35,3.83,6.35,-6.35,-6.20,-6.73,-2.52,-2.52,-2.52
36.33,3.82,6.35,3.81,6.35,-6.35,-6.20,-6.65,-2.53,-2.54,-2.53
36.70,3.79,6.35,3.80,6.35,-6.35,-6.21,-6.57,-2.56,-2.56,-2.56
37.06,3.78,6.36,3.78,6.35,-6.35,-6.21,-6.49,-2.57,-2.57,-2.58
37.43,3.76,6.35,3.76,6.35,-6.35,-6.21,-6.41,-2.59,-2.59,-2.59
37.81,3.73,6.34,3.73,6.35,-6.35,-6.21,-6.33,-2.62,-2.61,-2.61
38.19,3.71,6.35,3.71,6.34,-6.34,-6.21,-6.25,-2.63,-2.63,-2.64
38.57,3.68,6.33,3.68,6.33,-6.34,-6.20,-6.18,-2.66,-2.65,-2.65
38.95,3.66,6.33,3.66,6.33,-6.33,-6.19,-6.10,-2.67,-2.67,-2.67
39.34,3.63,6.32,3.63,6.32,-6.32,-6.19,-6.03,-2.69,-2.69,-2.70
39.74,3.60,6.32,3.60,6.31,-6.31,-6.17,-5.96,-2.71,-2.71,-2.72
40.14,3.58,6.30,3.57,6.30,-6.30,-6.16,-5.89,-2.72,-2.73,-2.72
40.54,3.54,6.28,3.55,6.29,-6.29,-6.15,-5.83,-2.75,-2.74,-2.74
40.94,3.52,6.28,3.52,6.28,-6.28,-6.14,-5.77,-2.76,-2.76,-2.76
41.35,3.49,6.27,3.49,6.26,-6.26,-6.12,-5.71,-2.77,-2.77,-2.78
41.76,3.46,6.24,3.46,6.25,-6.24,-6.11,-5.66,-2.78,-2.78,-2.79
42.18,3.42,6.22,3.42,6.22,-6.23,-6.09,-5.61,-2.81,-2.80,-2.80
42.60,3.39,6.21,3.39,6.20,-6.21,-6.07,-5.56,-2.82,-2.82,-2.82
43.03,3.35,6.18,3.35,6.19,-6.19,-6.06,-5.52,-2.84,-2.84,-2.83
43.46,3.32,6.17,3.32,6.17,-6.18,-6.04,-5.48,-2.86,-2.86,-2.85
43.90,3.29,6.17,3.29,6.16,-6.16,-6.03,-5.45,-2.87,-2.87,-2.88
44.33,3.26,6.15,3.26,6.15,-6.15,-6.01,-5.42,-2.89,-2.89,-2.89
44.78,3.22,6.13,3.22,6.13,-6.13,-6.00,-5.39,-2.91,-2.91,-2.91
45.23,3.19,6.12,3.19,6.12,-6.11,-5.99,-5.37,-2.92,-2.92,-2.93
45.68,3.15,6.10,3.15,6.10,-6.09,-5.97,-5.35,-2.94,-2.94,-2.95
46.13,3.12,6.08,3.12,6.08,-6.07,-5.96,-5.34,-2.95,-2.95,-2.96
46.60,3.08,6.05,3.08,6.05,-6.05,-5.95,-5.33,-2.97,-2.97,-2.97
47.06,3.04,6.02,3.04,6.02,-6.03,-5.93,-5.32,-2.99,-2.99,-2.98
47.53,3.00,6.00,3.00,5.99,-6.00,-5.92,-5.32,-3.00,-3.00,-3.00
48.01,2.96,5.97,2.96,5.97,-5.98,-5.91,-5.32,-3.02,-3.02,-3.01
48.49,2.92,5.95,2.92,5.95,-5.96,-5.90,-5.33,-3.04,-3.04,-3.03
48.97,2.88,5.94,2.88,5.94,-5.93,-5.89,-5.33,-3.05,-3.06,-3.06
49.46,2.83,5.92,2.83,5.92,-5.91,-5.87,-5.35,-3.08,-3.08,-3.09
49.96,2.79,5.90,2.79,5.89,-5.89,-5.86,-5.36,-3.10,-3.10,-3.11
50.46,2.75,5.86,2.75,5.87,-5.87,-5.85,-5.38,-3.12,-3.12,-3.11
50.96,2.71,5.84,2.71,5.85,-5.85,-5.84,-5.40,-3.14,-3.14,-3.13
51.47,2.67,5.83,2.67,5.82,-5.82,-5.83,-5.42,-3.15,-3.15,-3.16
51.99,2.63,5.81,2.63,5.80,-5.80,-5.82,-5.44,-3.17,-3.17,-3.18
52.51,2.58,5.76,2.58,5.77,-5.77,-5.81,-5.47,-3.19,-3.19,-3.18
53.03,2.54,5.74,2.54,5.75,-5.75,-5.80,-5.49,-3.21,-3.21,-3.20
53.56,2.50,5.72,2.50,5.72,-5.72,-5.79,-5.52,-3.22,-3.22,-3.22
54.10,2.46,5.70,2.46,5.70,-5.70,-5.78,-5.54,-3.24,-3.24,-3.24
54.64,2.41,5.67,2.41,5.67,-5.67,-5.77,-5.57,-3.26,-3.26,-3.26
55.18,2.36,5.64,2.36,5.65,-5.65,-5.76,-5.60,-3.29,-3.28,-3.28
55.74,2.32,5.62,2.32,5.62,-5.62,-5.75,-5.63,-3.30,-3.30,-3.30
56.29,2.27,5.58,2.27,5.59,-5.59,-5.74,-5.65,-3.32,-3.32,-3.32
56.86,2.23,5.57,2.23,5.56,-5.56,-5.73,-5.67,-3.33,-3.34,-3.34
57.42,2.18,5.54,2.18,5.53,-5.53,-5.72,-5.69,-3.35,-3.36,-3.36
58.00,2.13,5.50,2.13,5.51,-5.50,-5.71,-5.71,-3.37,-3.37,-3.37
58.58,2.08,5.47,2.08,5.47,-5.47,-5.69,-5.73,-3.39,-3.39,-3.39
59.16,2.04,5.45,2.04,5.44,-5.44,-5.68,-5.74,-3.40,-3.41,-3.41
59.76,1.99,5.41,1.99,5.41,-5.41,-5.67,-5.75,-3.42,-3.42,-3.42
60.35,1.94,5.38,1.94,5.38,-5.38,-5.66,-5.75,-3.45,-3.44,-3.45
60.96,1.89,5.34,1.89,5.35,-5.36,-5.65,-5.75,-3.47,-3.47,-3.45
61.57,1.84,5.32,1.84,5.32,-5.33,-5.64,-5.75,-3.49,-3.49,-3.48
62.18,1.80,5.31,1.80,5.30,-5.30,-5.62,-5.74,-3.50,-3.51,-3.51
62.80,1.75,5.28,1.75,5.28,-5.27,-5.61,-5.72,-3.52,-3.53,-3.53
63.43,1.70,5.25,1.70,5.25,-5.24,-5.60,-5.70,-3.54,-3.54,-3.55
64.07,1.65,5.22,1.65,5.22,-5.21,-5.58,-5.68,-3.56,-3.56,-3.57
64.71,1.61,5.19,1.60,5.18,-5.18,-5.57,-5.65,-3.57,-3.58,-3.58
65.35,1.55,5.14,1.55,5.15,-5.15,-5.55,-5.62,-3.60,-3.60,-3.59
66.01,1.51,5.11,1.51,5.11,-5.12,-5.54,-5.58,-3.61,-3.61,-3.60
66.67,1.46,5.08,1.46,5.08,-5.08,-5.52,-5.54,-3.62,-3.62,-3.62
67.33,1.42,5.05,1.41,5.05,-5.05,-5.51,-5.50,-3.63,-3.63,-3.63
68.01,1.36,5.01,1.36,5.01,-5.02,-5.49,-5.45,-3.66,-3.65,-3.65
68.69,1.32,4.98,1.32,4.98,-4.98,-5.47,-5.40,-3.66,-3.67,-3.66
69.37,1.27,4.95,1.27,4.95,-4.95,-5.46,-5.35,-3.68,-3.68,-3.68
70.07,1.23,4.93,1.23,4.92,-4.92,-5.44,-5.30,-3.69,-3.69,-3.70
70.77,1.18,4.89,1.18,4.89,-4.89,-5.42,-5.24,-3.71,-3.71,-3.71
71.48,1.14,4.87,1.14,4.87,-4.87,-5.40,-5.18,-3.73,-3.73,-3.73
72.19,1.09,4.83,1.09,4.84,-4.84,-5.39,-5.13,-3.75,-3.75,-3.75
72.91,1.05,4.82,1.04,4.81,-4.82,-5.37,-5.07,-3.77,-3.77,-3.77
73.64,1.00,4.79,1.00,4.79,-4.79,-5.35,-5.01,-3.79,-3.79,-3.79
74.38,0.95,4.76,0.96,4.77,-4.77,-5.33,-4.95,-3.82,-3.82,-3.81
75.12,0.92,4.76,0.91,4.75,-4.75,-5.31,-4.89,-3.83,-3.84,-3.85
75.87,0.87,4.73,0.87,4.73,-4.73,-5.29,-4.84,-3.86,-3.86,-3.86
76.63,0.83,4.71,0.83,4.71,-4.71,-5.26,-4.78,-3.88,-3.88,-3.88
77.40,0.78,4.69,0.78,4.69,-4.69,-5.24,-4.73,-3.91,-3.91,-3.91
78.17,0.74,4.68,0.74,4.67,-4.67,-5.22,-4.68,-3.93,-3.93,-3.95
78.95,0.70,4.65,0.69,4.65,-4.66,-5.20,-4.63,-3.96,-3.96,-3.95
79.74,0.65,4.63,0.65,4.64,-4.64,-5.18,-4.58,-3.99,-3.99,-3.98
80.54,0.61,4.62,0.61,4.63,-4.63,-5.15,-4.54,-4.02,-4.02,-4.01
81.35,0.58,4.62,0.57,4.62,-4.62,-5.13,-4.49,-4.04,-4.04,-4.04
82.16,0.53,4.61,0.53,4.61,-4.60,-5.10,-4.45,-4.07,-4.07,-4.08
82.98,0.49,4.59,0.49,4.59,-4.59,-5.08,-4.42,-4.10,-4.10,-4.10
83.81,0.45,4.59,0.45,4.58,-4.58,-5.06,-4.38,-4.13,-4.14,-4.14
84.65,0.40,4.57,0.41,4.57,-4.57,-5.03,-4.35,-4.17,-4.17,-4.17
85.50,0.37,4.57,0.36,4.56,-4.56,-5.01,-4.32,-4.19,-4.20,-4.20
86.35,0.32,4.55,0.32,4.55,-4.55,-4.98,-4.30,-4.23,-4.23,-4.23
87.22,0.28,4.54,0.28,4.54,-4.55,-4.95,-4.28,-4.27,-4.26,-4.26
88.09,0.24,4.54,0.24,4.53,-4.54,-4.93,-4.26,-4.30,-4.30,-4.30
88.97,0.20,4.52,0.20,4.53,-4.53,-4.90,-4.24,-4.33,-4.33,-4.32
89.86,0.16,4.52,0.16,4.52,-4.52,-4.88,-4.23,-4.36,-4.36,-4.36
90.76,0.11,4.52,0.11,4.52,-4.51,-4.85,-4.22,-4.40,-4.40,-4.41
91.66,0.07,4.50,0.07,4.51,-4.50,-4.82,-4.21,-4.43,-4.44,-4.43
92.58,0.03,4.51,0.03,4.50,-4.50,-4.80,-4.21,-4.47,-4.47,-4.48
93.51,-0.02,4.48,-0.01,4.49,-4.49,-4.77,-4.21,-4.51,-4.50,-4.50
94.44,-0.05,4.48,-0.05,4.48,-4.49,-4.75,-4.21,-4.54,-4.54,-4.54
95.39,-0.09,4.48,-0.10,4.48,-4.48,-4.72,-4.22,-4.57,-4.58,-4.57
96.34,-0.14,4.48,-0.14,4.48,-4.48,-4.69,-4.23,-4.62,-4.62,-4.62
97.30,-0.18,4.48,-0.18,4.48,-4.48,-4.67,-4.24,-4.66,-4.66,-4.66
98.28,-0.22,4.48,-0.22,4.48,-4.48,-4.64,-4.25,-4.70,-4.70,-4.70
99.26,-0.26,4.49,-0.26,4.48,-4.48,-4.62,-4.27,-4.74,-4.74,-4.75
100.25,-0.30,4.49,-0.30,4.48,-4.48,-4.59,-4.28,-4.78,-4.79,-4.79
101.25,-0.35,4.47,-0.35,4.48,-4.48,-4.56,-4.30,-4.83,-4.83,-4.83
102.27,-0.39,4.48,-0.39,4.48,-4.48,-4.54,-4.33,-4.87,-4.87,-4.87
103.29,-0.43,4.49,-0.43,4.49,-4.48,-4.52,-4.35,-4.91,-4.92,-4.92
104.32,-0.48,4.48,-0.48,4.49,-4.48,-4.49,-4.37,-4.97,-4.96,-4.96
105.37,-0.52,4.48,-0.52,4.48,-4.49,-4.47,-4.40,-5.01,-5.01,-5.00
106.42,-0.57,4.48,-0.57,4.48,-4.49,-4.44,-4.43,-5.06,-5.06,-5.05
107.48,-0.61,4.49,-0.61,4.49,-4.49,-4.42,-4.45,-5.10,-5.10,-5.10
108.56,-0.65,4.50,-0.66,4.50,-4.49,-4.40,-4.48,-5.14,-5.15,-5.15
109.64,-0.70,4.50,-0.70,4.50,-4.50,-4.38,-4.51,-5.20,-5.20,-5.20
110.74,-0.74,4.50,-0.74,4.50,-4.50,-4.36,-4.54,-5.25,-5.24,-5.24
111.85,-0.78,4.51,-0.79,4.51,-4.51,-4.34,-4.56,-5.29,-5.30,-5.29
112.97,-0.83,4.53,-0.83,4.52,-4.52,-4.32,-4.59,-5.35,-5.35,-5.36
114.10,-0.88,4.52,-0.87,4.52,-4.53,-4.30,-4.61,-5.41,-5.40,-5.40
115.24,-0.91,4.53,-0.92,4.53,-4.53,-4.28,-4.63,-5.44,-5.45,-5.44
116.39,-0.96,4.54,-0.96,4.54,-4.54,-4.26,-4.65,-5.50,-5.50,-5.50
117.55,-1.00,4.55,-1.00,4.55,-4.54,-4.24,-4.67,-5.54,-5.54,-5.55
118.73,-1.05,4.55,-1.05,4.55,-4.54,-4.23,-4.69,-5.59,-5.59,-5.60
119.92,-1.09,4.54,-1.09,4.55,-4.54,-4.21,-4.70,-5.63,-5.64,-5.63
121.12,-1.14,4.54,-1.14,4.54,-4.54,-4.20,-4.71,-5.68,-5.68,-5.68
122.33,-1.18,4.55,-1.18,4.54,-4.54,-4.19,-4.71,-5.72,-5.72,-5.73
123.55,-1.23,4.53,-1.23,4.54,-4.54,-4.17,-4.71,-5.77,-5.77,-5.76
124.79,-1.27,4.54,-1.27,4.53,-4.54,-4.16,-4.71,-5.81,-5.81,-5.81
126.03,-1.31,4.53,-1.31,4.53,-4.54,-4.15,-4.71,-5.85,-5.85,-5.84
127.29,-1.36,4.53,-1.36,4.53,-4.54,-4.14,-4.70,-5.90,-5.89,-5.89
128.57,-1.40,4.54,-1.40,4.53,-4.53,-4.13,-4.69,-5.94,-5.93,-5.94
129.85,-1.44,4.53,-1.44,4.54,-4.53,-4.13,-4.67,-5.97,-5.97,-5.98
131.15,-1.48,4.53,-1.48,4.53,-4.53,-4.12,-4.65,-6.01,-6.01,-6.01
132.46,-1.52,4.53,-1.52,4.52,-4.52,-4.11,-4.63,-6.04,-6.04,-6.05
133.79,-1.56,4.51,-1.56,4.52,-4.51,-4.11,-4.61,-6.07,-6.08,-6.07
135.12,-1.61,4.50,-1.61,4.50,-4.50,-4.11,-4.58,-6.11,-6.11,-6.11
136.48,-1.65,4.48,-1.65,4.48,-4.49,-4.10,-4.55,-6.14,-6.14,-6.14
137.84,-1.69,4.46,-1.69,4.47,-4.47,-4.10,-4.52,-6.16,-6.17,-6.16
139.22,-1.73,4.46,-1.73,4.46,-4.46,-4.10,-4.49,-6.19,-6.19,-6.20
140.61,-1.77,4.45,-1.77,4.44,-4.44,-4.10,-4.46,-6.21,-6.21,-6.22
142.02,-1.81,4.41,-1.81,4.42,-4.42,-4.10,-4.42,-6.23,-6.23,-6.22
143.44,-1.85,4.39,-1.85,4.40,-4.40,-4.11,-4.39,-6.25,-6.25,-6.24
144.87,-1.89,4.38,-1.89,4.37,-4.38,-4.11,-4.35,-6.27,-6.27,-6.27
146.32,-1.92,4.36,-1.92,4.36,-4.36,-4.12,-4.32,-6.28,-6.28,-6.29
147.78,-1.96,4.33,-1.96,4.34,-4.34,-4.12,-4.28,-6.30,-6.30,-6.29
149.26,-1.99,4.32,-2.00,4.31,-4.31,-4.13,-4.25,-6.30,-6.31,-6.31
150.75,-2.04,4.29,-2.03,4.29,-4.29,-4.13,-4.22,-6.33,-6.33,-6.33
152.26,-2.07,4.28,-2.07,4.28,-4.27,-4.14,-4.19,-6.34,-6.34,-6.35
153.78,-2.10,4.26,-2.11,4.25,-4.25,-4.15,-4.15,-6.35,-6.36,-6.36
155.32,-2.14,4.23,-2.14,4.23,-4.23,-4.16,-4.13,-6.37,-6.37,-6.37
156.88,-2.18,4.21,-2.18,4.21,-4.21,-4.17,-4.10,-6.39,-6.39,-6.39
158.44,-2.21,4.20,-2.21,4.20,-4.20,-4.18,-4.07,-6.41,-6.41,-6.41
160.03,-2.24,4.19,-2.24,4.19,-4.19,-4.19,-4.05,-6.43,-6.43,-6.43
161.63,-2.27,4.18,-2.27,4.18,-4.18,-4.21,-4.03,-6.45,-6.45,-6.45
163.24,-2.29,4.17,-2.29,4.17,-4.17,-4.22,-4.01,-6.47,-6.46,-6.46
164.88,-2.30,4.17,-2.30,4.17,-4.18,-4.23,-4.00,-6.48,-6.48,-6.47
166.53,-2.31,4.18,-2.31,4.18,-4.19,-4.24,-3.98,-6.50,-6.50,-6.49
168.19,-2.31,4.21,-2.31,4.20,-4.20,-4.26,-3.97,-6.51,-6.52,-6.52
169.87,-2.32,4.22,-2.32,4.22,-4.22,-4.27,-3.97,-6.54,-6.54,-6.54
171.57,-2.31,4.24,-2.31,4.24,-4.24,-4.29,-3.96,-6.56,-6.56,-6.55
173.29,-2.31,4.26,-2.31,4.27,-4.27,-4.30,-3.96,-6.58,-6.58,-6.57
175.02,-2.30,4.30,-2.30,4.30,-4.29,-4.32,-3.96,-6.60,-6.60,-6.60
176.77,-2.30,4.33,-2.30,4.33,-4.32,-4.33,-3.97,-6.62,-6.62,-6.63
178.54,-2.31,4.35,-2.31,4.35,-4.34,-4.35,-3.97,-6.65,-6.65,-6.66
180.32,-2.32,4.36,-2.32,4.36,-4.35,-4.36,-3.98,-6.68,-6.68,-6.68
182.13,-2.34,4.37,-2.34,4.37,-4.37,-4.38,-4.00,-6.71,-6.71,-6.71
183.95,-2.37,4.37,-2.36,4.38,-4.38,-4.39,-4.01,-6.75,-6.74,-6.74
185.79,-2.38,4.39,-2.39,4.38,-4.38,-4.41,-4.03,-6.76,-6.77,-6.77
187.65,-2.41,4.39,-2.41,4.39,-4.39,-4.42,-4.05,-6.80,-6.80,-6.80
189.52,-2.44,4.38,-2.43,4.39,-4.39,-4.44,-4.08,-6.84,-6.83,-6.82
191.42,-2.44,4.41,-2.45,4.40,-4.40,-4.45,-4.11,-6.84,-6.85,-6.85
193.33,-2.46,4.40,-2.46,4.40,-4.41,-4.46,-4.14,-6.88,-6.87,-6.86
195.27,-2.46,4.42,-2.46,4.42,-4.43,-4.47,-4.17,-6.89,-6.89,-6.88
197.22,-2.47,4.43,-2.47,4.44,-4.44,-4.49,-4.20,-6.91,-6.91,-6.90
199.19,-2.47,4.47,-2.47,4.46,-4.45,-4.50,-4.24,-6.92,-6.92,-6.94
201.18,-2.48,4.47,-2.48,4.47,-4.46,-4.51,-4.28,-6.94,-6.95,-6.95
203.19,-2.49,4.47,-2.49,4.48,-4.47,-4.52,-4.32,-6.96,-6.96,-6.96
205.23,-2.50,4.48,-2.50,4.48,-4.48,-4.52,-4.36,-6.98,-6.98,-6.98
207.28,-2.51,4.47,-2.51,4.48,-4.48,-4.53,-4.40,-6.99,-6.99,-6.98
209.35,-2.53,4.48,-2.53,4.48,-4.47,-4.54,-4.44,-7.01,-7.00,-7.01
211.44,-2.55,4.48,-2.55,4.47,-4.47,-4.54,-4.48,-7.02,-7.02,-7.03
213.56,-2.58,4.46,-2.58,4.45,-4.45,-4.55,-4.53,-7.03,-7.03,-7.04
215.69,-2.61,4.43,-2.61,4.43,-4.44,-4.55,-4.57,-7.05,-7.05,-7.04
217.85,-2.64,4.40,-2.64,4.41,-4.42,-4.55,-4.61,-7.06,-7.06,-7.04
220.03,-2.66,4.40,-2.66,4.39,-4.40,-4.55,-4.65,-7.06,-7.06,-7.06
222.23,-2.69,4.38,-2.69,4.37,-4.37,-4.55,-4.69,-7.06,-7.06,-7.07
224.45,-2.72,4.34,-2.72,4.35,-4.34,-4.55,-4.73,-7.06,-7.06,-7.06
226.70,-2.75,4.31,-2.75,4.31,-4.31,-4.55,-4.76,-7.06,-7.06,-7.06
228.96,-2.78,4.28,-2.78,4.27,-4.28,-4.54,-4.79,-7.06,-7.06,-7.06
231.25,-2.81,4.24,-2.81,4.24,-4.24,-4.54,-4.82,-7.05,-7.05,-7.05
233.57,-2.84,4.19,-2.84,4.20,-4.20,-4.53,-4.84,-7.04,-7.04,-7.03
235.90,-2.87,4.16,-2.87,4.16,-4.16,-4.52,-4.86,-7.03,-7.03,-7.03
238.26,-2.90,4.12,-2.90,4.12,-4.11,-4.51,-4.88,-7.01,-7.01,-7.02
240.64,-2.94,4.06,-2.94,4.07,-4.06,-4.50,-4.89,-7.00,-7.00,-7.00
243.05,-2.97,4.02,-2.97,4.01,-4.01,-4.48,-4.90,-6.98,-6.98,-6.99
245.48,-3.01,3.95,-3.01,3.96,-3.95,-4.47,-4.90,-6.96,-6.96,-6.96
247.93,-3.04,3.91,-3.04,3.90,-3.89,-4.45,-4.89,-6.93,-6.93,-6.95
250.41,-3.08,3.85,-3.08,3.84,-3.83,-4.43,-4.88,-6.92,-6.91,-6.93
252.92,-3.11,3.78,-3.11,3.78,-3.78,-4.41,-4.87,-6.89,-6.90,-6.90
255.45,-3.14,3.73,-3.14,3.73,-3.74,-4.39,-4.84,-6.88,-6.88,-6.87
258.00,-3.15,3.69,-3.15,3.70,-3.71,-4.37,-4.82,-6.86,-6.86,-6.84
260.58,-3.13,3.70,-3.14,3.69,-3.70,-4.35,-4.78,-6.83,-6.84,-6.83
263.19,-3.11,3.69,-3.11,3.70,-3.71,-4.32,-4.75,-6.82,-6.81,-6.80
265.82,-3.05,3.73,-3.05,3.72,-3.74,-4.30,-4.70,-6.79,-6.79,-6.78
268.48,-2.98,3.77,-2.98,3.77,-3.78,-4.27,-4.66,-6.77,-6.76,-6.75
271.16,-2.88,3.83,-2.88,3.84,-3.85,-4.24,-4.60,-6.73,-6.73,-6.71
273.87,-2.77,3.93,-2.77,3.92,-3.93,-4.21,-4.55,-6.70,-6.70,-6.70
276.61,-2.65,4.01,-2.65,4.02,-4.02,-4.18,-4.49,-6.67,-6.67,-6.66
279.38,-2.51,4.13,-2.52,4.13,-4.12,-4.15,-4.43,-6.63,-6.63,-6.64
282.17,-2.39,4.23,-2.39,4.22,-4.21,-4.11,-4.36,-6.60,-6.60,-6.62
284.99,-2.27,4.32,-2.27,4.31,-4.30,-4.08,-4.30,-6.57,-6.57,-6.59
287.84,-2.18,4.38,-2.17,4.39,-4.37,-4.04,-4.23,-6.55,-6.55,-6.56
290.72,-2.08,4.44,-2.08,4.45,-4.44,-4.01,-4.16,-6.52,-6.52,-6.52
293.63,-2.01,4.50,-2.01,4.49,-4.48,-3.97,-4.09,-6.49,-6.49,-6.51
296.57,-1.95,4.52,-1.95,4.52,-4.51,-3.93,-4.02,-6.46,-6.46,-6.47
299.53,-1.92,4.52,-1.92,4.52,-4.52,-3.90,-3.94,-6.44,-6.44,-6.44
302.53,-1.89,4.52,-1.89,4.52,-4.51,-3.86,-3.87,-6.40,-6.41,-6.41
305.55,-1.88,4.49,-1.88,4.50,-4.50,-3.82,-3.80,-6.38,-6.37,-6.37
308.61,-1.86,4.48,-1.86,4.47,-4.47,-3.78,-3.73,-6.34,-6.34,-6.34
311.69,-1.86,4.44,-1.86,4.44,-4.44,-3.74,-3.66,-6.30,-6.30,-6.30
314.81,-1.86,4.40,-1.86,4.40,-4.40,-3.70,-3.59,-6.26,-6.27,-6.26
317.96,-1.88,4.35,-1.87,4.36,-4.36,-3.65,-3.52,-6.24,-6.24,-6.23
321.14,-1.88,4.33,-1.89,4.32,-4.32,-3.61,-3.46,-6.20,-6.21,-6.21
324.35,-1.90,4.28,-1.90,4.28,-4.28,-3.57,-3.39,-6.18,-6.18,-6.18
327.59,-1.91,4.23,-1.91,4.23,-4.24,-3.53,-3.33,-6.15,-6.15,-6.14
330.87,-1.92,4.19,-1.92,4.19,-4.20,-3.48,-3.27,-6.12,-6.12,-6.11
334.18,-1.94,4.15,-1.94,4.15,-4.16,-3.44,-3.21,-6.10,-6.10,-6.09
337.52,-1.95,4.11,-1.95,4.11,-4.13,-3.40,-3.15,-6.08,-6.08,-6.06
340.90,-1.97,4.06,-1.97,4.07,-4.09,-3.36,-3.09,-6.06,-6.06,-6.04
344.30,-1.99,4.03,-1.99,4.03,-4.04,-3.31,-3.04,-6.03,-6.03,-6.02
347.75,-2.01,3.98,-2.00,3.99,-3.98,-3.27,-2.99,-5.99,-5.97,-5.99
351.23,-2.02,3.95,-2.03,3.94,-3.90,-3.23,-2.94,-5.92,-5.93,-5.97
354.74,-2.07,3.88,-2.10,3.85,-3.80,-3.19,-2.89,-5.88,-5.90,-5.95
358.28,-2.21,3.72,-2.20,3.73,-3.70,-3.14,-2.84,-5.91,-5.90,-5.93
361.87,-2.35,3.56,-2.34,3.57,-3.57,-3.10,-2.80,-5.92,-5.91,-5.91
365.49,-2.48,3.40,-2.48,3.41,-3.44,-3.06,-2.76,-5.92,-5.92,-5.88
369.14,-2.61,3.26,-2.61,3.26,-3.29,-3.02,-2.72,-5.90,-5.90,-5.87
372.83,-2.73,3.13,-2.73,3.13,-3.14,-2.98,-2.69,-5.87,-5.87,-5.86
376.56,-2.84,3.00,-2.85,2.99,-2.99,-2.94,-2.65,-5.83,-5.84,-5.84
380.33,-2.96,2.85,-2.96,2.85,-2.85,-2.90,-2.62,-5.81,-5.81,-5.81
384.13,-3.07,2.72,-3.07,2.72,-2.72,-2.86,-2.59,-5.79,-5.79,-5.79
387.97,-3.18,2.59,-3.18,2.59,-2.59,-2.82,-2.56,-5.77,-5.77,-5.77
391.85,-3.28,2.47,-3.28,2.47,-2.47,-2.78,-2.53,-5.75,-5.75,-5.75
395.77,-3.37,2.35,-3.37,2.35,-2.35,-2.75,-2.51,-5.72,-5.72,-5.72
399.73,-3.45,2.25,-3.46,2.25,-2.24,-2.71,-2.48,-5.69,-5.70,-5.70
403.72,-3.54,2.14,-3.54,2.14,-2.14,-2.67,-2.46,-5.68,-5.68,-5.68
407.76,-3.62,2.04,-3.62,2.04,-2.04,-2.64,-2.44,-5.66,-5.66,-5.66
411.84,-3.70,1.93,-3.69,1.94,-1.95,-2.60,-2.43,-5.65,-5.64,-5.63
415.96,-3.75,1.86,-3.76,1.86,-1.86,-2.57,-2.41,-5.61,-5.62,-5.61
420.12,-3.81,1.78,-3.81,1.78,-1.78,-2.54,-2.40,-5.59,-5.59,-5.60
424.32,-3.85,1.72,-3.85,1.72,-1.71,-2.51,-2.38,-5.56,-5.56,-5.57
428.56,-3.89,1.66,-3.89,1.66,-1.65,-2.47,-2.37,-5.54,-5.54,-5.55
432.85,-3.92,1.61,-3.92,1.61,-1.60,-2.44,-2.36,-5.52,-5.52,-5.53
437.18,-3.93,1.57,-3.94,1.56,-1.57,-2.42,-2.35,-5.50,-5.51,-5.50
441.55,-3.94,1.53,-3.94,1.53,-1.56,-2.39,-2.34,-5.50,-5.50,-5.47
445.96,-3.94,1.51,-3.92,1.53,-1.56,-2.36,-2.33,-5.50,-5.47,-5.45
