frequency,raw,smoothed,error,error_smoothed,equalization,parametric_eq,fixed_band_eq,equalized_raw,equalized_smoothed,target
20.00,15.10,15.10,7.11,7.12,-7.12,-8.30,-3.97,7.98,7.98,7.98
20.20,15.16,15.15,7.18,7.17,-7.17,-8.30,-4.08,7.99,7.98,7.98
20.40,15.21,15.21,7.23,7.22,-7.22,-8.30,-4.18,7.98,7.98,7.98
20.61,15.26,15.26,7.28,7.28,-7.28,-8.30,-4.30,7.98,7.98,7.98
20.81,15.31,15.31,7.33,7.33,-7.33,-8.30,-4.41,7.98,7.98,7.98
21.02,15.36,15.36,7.38,7.38,-7.38,-8.30,-4.54,7.98,7.98,7.98
21.23,15.41,15.41,7.43,7.43,-7.43,-8.30,-4.66,7.98,7.98,7.98
21.44,15.45,15.45,7.47,7.47,-7.47,-8.31,-4.79,7.98,7.98,7.98
21.66,15.50,15.50,7.52,7.52,-7.52,-8.31,-4.91,7.98,7.98,7.98
21.87,15.54,15.54,7.56,7.56,-7.56,-8.31,-5.05,7.98,7.98,7.98
22.09,15.59,15.59,7.61,7.61,-7.61,-8.31,-5.18,7.98,7.98,7.98
22.31,15.63,15.63,7.65,7.65,-7.65,-8.31,-5.33,7.98,7.98,7.98
22.54,15.67,15.67,7.69,7.69,-7.69,-8.31,-5.47,7.97,7.98,7.97
22.76,15.71,15.71,7.73,7.73,-7.74,-8.31,-5.62,7.97,7.97,7.97
22.99,15.75,15.75,7.78,7.78,-7.78,-8.31,-5.77,7.97,7.97,7.97
23.22,15.79,15.79,7.82,7.82,-7.82,-8.32,-5.93,7.97,7.97,7.97
23.45,15.83,15.83,7.86,7.86,-7.86,-8.32,-6.09,7.97,7.97,7.97
23.69,15.87,15.87,7.90,7.90,-7.90,-8.32,-6.25,7.97,7.97,7.97
23.92,15.91,15.91,7.94,7.94,-7.94,-8.32,-6.42,7.97,7.97,7.97
24.16,15.94,15.94,7.97,7.97,-7.98,-8.32,-6.59,7.96,7.97,7.97
24.40,15.98,15.98,8.01,8.01,-8.02,-8.32,-6.76,7.96,7.96,7.97
24.65,16.02,16.02,8.05,8.05,-8.05,-8.33,-6.94,7.97,7.97,7.97
24.89,16.06,16.06,8.10,8.09,-8.09,-8.33,-7.12,7.97,7.97,7.96
25.14,16.09,16.09,8.13,8.13,-8.12,-8.33,-7.30,7.97,7.97,7.96
25.39,16.12,16.12,8.16,8.16,-8.16,-8.33,-7.48,7.96,7.96,7.96
25.65,16.15,16.15,8.19,8.19,-8.19,-8.33,-7.67,7.96,7.96,7.96
25.91,16.18,16.18,8.22,8.22,-8.22,-8.33,-7.86,7.96,7.96,7.96
26.16,16.21,16.21,8.25,8.25,-8.25,-8.33,-8.05,7.95,7.95,7.96
26.43,16.24,16.24,8.28,8.28,-8.29,-8.34,-8.24,7.95,7.95,7.95
26.69,16.27,16.27,8.32,8.31,-8.32,-8.34,-8.42,7.95,7.95,7.95
26.96,16.30,16.30,8.35,8.35,-8.35,-8.34,-8.61,7.95,7.95,7.95
27.23,16.33,16.33,8.38,8.38,-8.38,-8.34,-8.80,7.95,7.95,7.95
27.50,16.36,16.36,8.41,8.41,-8.41,-8.34,-8.98,7.95,7.95,7.95
27.77,16.38,16.38,8.43,8.44,-8.43,-8.34,-9.16,7.94,7.95,7.95
28.05,16.41,16.41,8.46,8.46,-8.46,-8.35,-9.33,7.95,7.94,7.94
28.33,16.43,16.43,8.49,8.49,-8.49,-8.35,-9.50,7.94,7.94,7.94
28.62,16.45,16.45,8.51,8.51,-8.51,-8.35,-9.66,7.94,7.94,7.94
28.90,16.48,16.47,8.54,8.53,-8.53,-8.35,-9.81,7.94,7.94,7.94
29.19,16.49,16.49,8.55,8.56,-8.56,-8.35,-9.95,7.93,7.93,7.93
29.48,16.51,16.51,8.58,8.58,-8.58,-8.35,-10.08,7.93,7.93,7.93
29.78,16.53,16.53,8.60,8.60,-8.60,-8.35,-10.20,7.93,7.93,7.93
30.08,16.55,16.55,8.62,8.62,-8.62,-8.36,-10.29,7.93,7.93,7.93
30.38,16.56,16.56,8.63,8.64,-8.64,-8.36,-10.38,7.92,7.92,7.92
30.68,16.58,16.58,8.66,8.65,-8.66,-8.36,-10.45,7.92,7.92,7.92
30.99,16.59,16.59,8.67,8.67,-8.67,-8.36,-10.51,7.92,7.92,7.92
31.30,16.61,16.61,8.69,8.69,-8.69,-8.36,-10.54,7.92,7.92,7.92
31.61,16.62,16.62,8.71,8.71,-8.70,-8.36,-10.57,7.91,7.91,7.91
31.93,16.63,16.63,8.72,8.72,-8.72,-8.36,-10.57,7.91,7.91,7.91
32.24,16.64,16.64,8.73,8.73,-8.73,-8.37,-10.57,7.91,7.91,7.91
32.57,16.65,16.65,8.75,8.75,-8.74,-8.37,-10.54,7.90,7.90,7.90
32.89,16.66,16.66,8.76,8.76,-8.76,-8.37,-10.50,7.90,7.90,7.90
33.22,16.66,16.66,8.76,8.77,-8.77,-8.37,-10.44,7.89,7.89,7.90
33.55,16.67,16.67,8.78,8.78,-8.78,-8.37,-10.38,7.89,7.89,7.89
33.89,16.67,16.67,8.78,8.78,-8.78,-8.37,-10.30,7.88,7.89,7.89
34.23,16.68,16.68,8.80,8.79,-8.79,-8.37,-10.22,7.89,7.88,7.88
34.57,16.68,16.68,8.80,8.80,-8.80,-8.37,-10.13,7.88,7.88,7.88
34.92,16.68,16.68,8.80,8.81,-8.81,-8.38,-10.03,7.87,7.87,7.87
35.27,16.68,16.68,8.81,8.81,-8.81,-8.38,-9.92,7.87,7.87,7.87
35.62,16.69,16.68,8.82,8.82,-8.82,-8.38,-9.81,7.87,7.86,7.86
35.97,16.68,16.68,8.82,8.82,-8.82,-8.38,-9.70,7.86,7.86,7.86
36.33,16.68,16.68,8.82,8.83,-8.82,-8.38,-9.59,7.85,7.86,7.85
36.70,16.68,16.67,8.83,8.82,-8.83,-8.38,-9.47,7.85,7.85,7.85
37.06,16.67,16.67,8.83,8.83,-8.83,-8.38,-9.36,7.84,7.84,7.84
37.43,16.66,16.66,8.82,8.83,-8.83,-8.38,-9.24,7.83,7.84,7.84
37.81,16.66,16.66,8.83,8.83,-8.82,-8.38,-9.13,7.83,7.83,7.83
38.19,16.65,16.65,8.82,8.82,-8.82,-8.38,-9.02,7.83,7.83,7.82
38.57,16.64,16.64,8.82,8.82,-8.82,-8.38,-8.92,7.82,7.82,7.82
38.95,16.62,16.62,8.81,8.81,-8.81,-8.38,-8.81,7.81,7.81,7.81
39.34,16.61,16.61,8.80,8.81,-8.81,-8.38,-8.71,7.80,7.80,7.80
39.74,16.60,16.59,8.80,8.80,-8.80,-8.38,-8.62,7.80,7.79,7.80
40.14,16.58,16.58,8.79,8.79,-8.79,-8.38,-8.53,7.79,7.79,7.79
40.54,16.56,16.56,8.78,8.78,-8.78,-8.38,-8.44,7.78,7.78,7.78
40.94,16.55,16.55,8.77,8.77,-8.77,-8.38,-8.36,7.78,7.78,7.77
41.35,16.53,16.53,8.76,8.76,-8.76,-8.38,-8.29,7.77,7.77,7.76
41.76,16.51,16.51,8.75,8.75,-8.75,-8.38,-8.22,7.76,7.76,7.76
42.18,16.48,16.48,8.73,8.73,-8.73,-8.38,-8.16,7.74,7.75,7.75
42.60,16.46,16.46,8.72,8.72,-8.72,-8.38,-8.10,7.74,7.73,7.74
43.03,16.43,16.43,8.70,8.70,-8.71,-8.38,-8.05,7.72,7.73,7.73
43.46,16.41,16.41,8.69,8.69,-8.69,-8.37,-8.00,7.72,7.72,7.72
43.90,16.39,16.38,8.68,8.68,-8.68,-8.37,-7.96,7.71,7.71,7.71
44.33,16.36,16.36,8.66,8.66,-8.66,-8.37,-7.92,7.70,7.70,7.70
44.78,16.34,16.34,8.65,8.65,-8.65,-8.37,-7.89,7.69,7.69,7.69
45.23,16.31,16.31,8.63,8.64,-8.64,-8.37,-7.87,7.67,7.67,7.67
45.68,16.29,16.29,8.63,8.62,-8.63,-8.36,-7.85,7.66,7.66,7.66
46.13,16.26,16.26,8.61,8.61,-8.61,-8.36,-7.84,7.64,7.65,7.65
46.60,16.24,16.24,8.60,8.60,-8.60,-8.36,-7.83,7.64,7.64,7.64
47.06,16.22,16.21,8.60,8.59,-8.59,-8.36,-7.83,7.63,7.62,7.62
47.53,16.19,16.19,8.58,8.58,-8.58,-8.35,-7.84,7.61,7.61,7.61
48.01,16.17,16.17,8.57,8.57,-8.57,-8.35,-7.84,7.59,7.59,7.59
48.49,16.15,16.14,8.57,8.56,-8.57,-8.34,-7.86,7.58,7.58,7.58
48.97,16.12,16.12,8.55,8.56,-8.56,-8.34,-7.88,7.56,7.56,7.56
49.46,16.10,16.10,8.55,8.55,-8.55,-8.34,-7.90,7.55,7.55,7.55
49.96,16.07,16.07,8.54,8.54,-8.54,-8.33,-7.93,7.53,7.53,7.53
50.46,16.05,16.05,8.53,8.53,-8.53,-8.33,-7.96,7.52,7.52,7.52
50.96,16.02,16.02,8.52,8.52,-8.51,-8.32,-7.99,7.51,7.50,7.50
51.47,15.98,15.98,8.50,8.50,-8.50,-8.31,-8.03,7.48,7.48,7.48
51.99,15.94,15.94,8.48,8.48,-8.48,-8.31,-8.07,7.46,7.46,7.46
52.51,15.90,15.90,8.46,8.46,-8.46,-8.30,-8.11,7.44,7.44,7.44
53.03,15.86,15.86,8.44,8.44,-8.44,-8.29,-8.16,7.42,7.42,7.42
53.56,15.82,15.82,8.42,8.42,-8.42,-8.29,-8.20,7.40,7.40,7.40
54.10,15.78,15.77,8.40,8.39,-8.39,-8.28,-8.25,7.38,7.38,7.38
54.64,15.73,15.73,8.37,8.37,-8.37,-8.27,-8.30,7.36,7.36,7.36
55.18,15.68,15.68,8.34,8.35,-8.35,-8.26,-8.34,7.33,7.33,7.34
55.74,15.64,15.64,8.33,8.32,-8.32,-8.25,-8.39,7.31,7.31,7.31
56.29,15.59,15.59,8.30,8.30,-8.30,-8.24,-8.43,7.29,7.29,7.29
56.86,15.54,15.54,8.28,8.28,-8.28,-8.23,-8.47,7.26,7.26,7.26
57.42,15.49,15.49,8.25,8.25,-8.25,-8.22,-8.51,7.24,7.24,7.24
58.00,15.44,15.44,8.23,8.22,-8.22,-8.21,-8.54,7.21,7.21,7.21
58.58,15.38,15.38,8.19,8.20,-8.20,-8.20,-8.57,7.18,7.19,7.18
59.16,15.33,15.33,8.17,8.17,-8.17,-8.19,-8.59,7.16,7.16,7.16
59.76,15.27,15.27,8.14,8.14,-8.14,-8.18,-8.61,7.13,7.13,7.13
60.35,15.21,15.21,8.11,8.11,-8.11,-8.16,-8.62,7.10,7.10,7.10
60.96,15.15,15.15,8.08,8.08,-8.08,-8.15,-8.62,7.07,7.07,7.07
61.57,15.09,15.09,8.05,8.05,-8.05,-8.14,-8.62,7.04,7.04,7.04
62.18,15.03,15.02,8.03,8.02,-8.02,-8.12,-8.61,7.01,7.00,7.00
62.80,14.96,14.96,7.99,7.99,-7.99,-8.11,-8.59,6.96,6.97,6.97
63.43,14.90,14.90,7.96,7.96,-7.96,-8.09,-8.56,6.93,6.93,6.94
64.07,14.84,14.83,7.94,7.93,-7.94,-8.08,-8.53,6.90,6.90,6.90
64.71,14.77,14.77,7.90,7.91,-7.91,-8.06,-8.49,6.86,6.86,6.86
65.35,14.71,14.71,7.88,7.88,-7.88,-8.04,-8.45,6.83,6.83,6.83
66.01,14.64,14.64,7.85,7.85,-7.85,-8.03,-8.39,6.79,6.79,6.79
66.67,14.58,14.58,7.83,7.83,-7.82,-8.01,-8.34,6.75,6.75,6.75
67.33,14.51,14.51,7.80,7.80,-7.80,-7.99,-8.27,6.71,6.71,6.71
68.01,14.44,14.44,7.77,7.77,-7.77,-7.97,-8.20,6.67,6.67,6.67
68.69,14.37,14.37,7.74,7.74,-7.75,-7.95,-8.13,6.62,6.62,6.63
69.37,14.31,14.30,7.72,7.72,-7.72,-7.93,-8.05,6.59,6.58,6.58
70.07,14.24,14.24,7.70,7.70,-7.70,-7.91,-7.97,6.54,6.54,6.54
70.77,14.17,14.17,7.67,7.67,-7.67,-7.89,-7.89,6.50,6.50,6.49
71.48,14.10,14.10,7.65,7.65,-7.65,-7.86,-7.81,6.45,6.45,6.45
72.19,14.02,14.02,7.62,7.62,-7.62,-7.84,-7.72,6.40,6.40,6.40
72.91,13.95,13.95,7.59,7.60,-7.60,-7.82,-7.64,6.35,6.35,6.35
73.64,13.88,13.87,7.57,7.57,-7.57,-7.79,-7.55,6.31,6.30,6.30
74.38,13.80,13.80,7.54,7.55,-7.55,-7.77,-7.47,6.25,6.25,6.25
75.12,13.73,13.73,7.53,7.52,-7.52,-7.74,-7.39,6.20,6.20,6.20
75.87,13.65,13.65,7.50,7.50,-7.50,-7.72,-7.31,6.15,6.15,6.15
76.63,13.58,13.58,7.48,7.48,-7.48,-7.69,-7.23,6.10,6.10,6.10
77.40,13.50,13.50,7.46,7.45,-7.46,-7.67,-7.15,6.04,6.04,6.04
78.17,13.42,13.42,7.43,7.43,-7.43,-7.64,-7.08,5.98,5.99,5.99
78.95,13.34,13.34,7.41,7.41,-7.41,-7.61,-7.01,5.93,5.93,5.93
79.74,13.27,13.27,7.39,7.39,-7.39,-7.58,-6.94,5.88,5.88,5.87
80.54,13.19,13.19,7.37,7.37,-7.37,-7.56,-6.88,5.82,5.82,5.82
81.35,13.11,13.11,7.35,7.35,-7.35,-7.53,-6.82,5.76,5.76,5.76
82.16,13.02,13.02,7.32,7.33,-7.33,-7.50,-6.77,5.69,5.69,5.70
82.98,12.94,12.94,7.30,7.30,-7.31,-7.47,-6.72,5.63,5.63,5.63
83.81,12.86,12.86,7.29,7.29,-7.29,-7.44,-6.68,5.57,5.57,5.57
84.65,12.78,12.78,7.27,7.27,-7.27,-7.41,-6.63,5.51,5.51,5.51
85.50,12.70,12.70,7.25,7.25,-7.25,-7.38,-6.60,5.45,5.45,5.45
86.35,12.61,12.61,7.23,7.23,-7.23,-7.35,-6.57,5.38,5.38,5.38
87.22,12.53,12.53,7.21,7.21,-7.21,-7.32,-6.54,5.32,5.32,5.32
88.09,12.44,12.44,7.19,7.19,-7.19,-7.29,-6.52,5.25,5.25,5.25
88.97,12.36,12.36,7.17,7.17,-7.17,-7.26,-6.50,5.19,5.18,5.18
89.86,12.27,12.27,7.15,7.15,-7.15,-7.23,-6.49,5.11,5.12,5.12
90.76,12.19,12.19,7.14,7.14,-7.14,-7.20,-6.48,5.05,5.05,5.05
91.66,12.10,12.10,7.12,7.12,-7.12,-7.17,-6.48,4.98,4.98,4.98
92.58,12.02,12.01,7.11,7.10,-7.10,-7.14,-6.48,4.91,4.91,4.91
93.51,11.93,11.93,7.09,7.09,-7.09,-7.11,-6.49,4.84,4.84,4.84
94.44,11.84,11.84,7.07,7.07,-7.07,-7.08,-6.50,4.77,4.77,4.77
95.39,11.76,11.76,7.06,7.05,-7.05,-7.05,-6.51,4.70,4.70,4.70
96.34,11.67,11.67,7.04,7.04,-7.04,-7.02,-6.53,4.63,4.63,4.63
97.30,11.58,11.58,7.02,7.02,-7.02,-6.99,-6.56,4.56,4.56,4.56
98.28,11.49,11.49,7.00,7.00,-7.00,-6.96,-6.58,4.49,4.48,4.49
99.26,11.40,11.40,6.98,6.98,-6.99,-6.93,-6.61,4.41,4.41,4.41
100.25,11.31,11.31,6.97,6.97,-6.97,-6.91,-6.65,4.34,4.34,4.34
101.25,11.22,11.22,6.95,6.95,-6.95,-6.88,-6.69,4.27,4.27,4.27
102.27,11.13,11.13,6.93,6.93,-6.93,-6.85,-6.73,4.20,4.20,4.20
103.29,11.04,11.04,6.92,6.91,-6.91,-6.82,-6.77,4.13,4.12,4.12
104.32,10.94,10.94,6.89,6.89,-6.89,-6.79,-6.81,4.04,4.05,4.05
105.37,10.85,10.85,6.87,6.87,-6.88,-6.77,-6.85,3.97,3.97,3.98
106.42,10.76,10.76,6.85,6.85,-6.86,-6.74,-6.90,3.90,3.90,3.90
107.48,10.67,10.67,6.84,6.84,-6.84,-6.72,-6.95,3.83,3.83,3.83
108.56,10.58,10.58,6.82,6.82,-6.82,-6.69,-6.99,3.76,3.76,3.76
109.64,10.49,10.49,6.80,6.80,-6.80,-6.67,-7.04,3.69,3.69,3.68
110.74,10.40,10.40,6.79,6.79,-6.78,-6.64,-7.08,3.61,3.61,3.61
111.85,10.31,10.31,6.77,6.77,-6.77,-6.62,-7.12,3.54,3.54,3.54
112.97,10.21,10.21,6.74,6.74,-6.75,-6.60,-7.16,3.46,3.47,3.47
114.10,10.12,10.12,6.72,6.72,-6.72,-6.58,-7.20,3.39,3.40,3.40
115.24,10.03,10.03,6.70,6.70,-6.70,-6.55,-7.23,3.33,3.33,3.33
116.39,9.94,9.93,6.68,6.68,-6.68,-6.53,-7.26,3.26,3.26,3.25
117.55,9.84,9.84,6.65,6.66,-6.65,-6.51,-7.28,3.18,3.19,3.18
118.73,9.74,9.74,6.62,6.63,-6.63,-6.49,-7.29,3.11,3.11,3.11
119.92,9.65,9.64,6.60,6.60,-6.60,-6.47,-7.30,3.05,3.04,3.04
121.12,9.55,9.55,6.57,6.57,-6.57,-6.45,-7.31,2.97,2.97,2.98
122.33,9.45,9.45,6.54,6.55,-6.54,-6.44,-7.30,2.90,2.91,2.91
123.55,9.36,9.36,6.52,6.52,-6.51,-6.42,-7.29,2.84,2.84,2.84
124.79,9.26,9.26,6.49,6.48,-6.48,-6.40,-7.27,2.78,2.77,2.77
126.03,9.16,9.16,6.45,6.45,-6.45,-6.38,-7.25,2.71,2.71,2.71
127.29,9.06,9.06,6.42,6.42,-6.42,-6.36,-7.21,2.64,2.64,2.64
128.57,8.96,8.96,6.38,6.38,-6.39,-6.35,-7.17,2.57,2.58,2.58
129.85,8.87,8.87,6.36,6.35,-6.35,-6.33,-7.12,2.52,2.51,2.51
131.15,8.77,8.77,6.32,6.32,-6.32,-6.31,-7.06,2.45,2.45,2.45
132.46,8.68,8.68,6.29,6.29,-6.29,-6.30,-7.00,2.39,2.39,2.39
133.79,8.58,8.58,6.25,6.25,-6.26,-6.28,-6.93,2.32,2.32,2.33
135.12,8.49,8.49,6.22,6.22,-6.23,-6.26,-6.86,2.26,2.26,2.27
136.48,8.40,8.40,6.19,6.19,-6.20,-6.24,-6.78,2.20,2.20,2.21
137.84,8.32,8.31,6.17,6.17,-6.17,-6.23,-6.69,2.15,2.15,2.15
139.22,8.23,8.23,6.14,6.14,-6.14,-6.21,-6.61,2.09,2.09,2.09
140.61,8.15,8.15,6.11,6.12,-6.11,-6.19,-6.51,2.03,2.03,2.03
142.02,8.07,8.07,6.09,6.09,-6.09,-6.17,-6.42,1.98,1.98,1.98
143.44,7.99,7.99,6.06,6.07,-6.06,-6.15,-6.32,1.93,1.93,1.92
144.87,7.91,7.91,6.04,6.04,-6.03,-6.13,-6.22,1.88,1.88,1.87
146.32,7.83,7.83,6.01,6.01,-6.01,-6.11,-6.12,1.82,1.82,1.82
147.78,7.75,7.75,5.97,5.98,-5.98,-6.08,-6.03,1.77,1.77,1.78
149.26,7.67,7.67,5.94,5.95,-5.95,-6.06,-5.93,1.72,1.72,1.73
150.75,7.60,7.60,5.92,5.92,-5.93,-6.04,-5.83,1.67,1.67,1.68
152.26,7.53,7.53,5.90,5.90,-5.90,-6.01,-5.73,1.63,1.63,1.63
153.78,7.46,7.46,5.88,5.88,-5.88,-5.98,-5.63,1.58,1.58,1.58
155.32,7.39,7.39,5.86,5.86,-5.85,-5.95,-5.54,1.53,1.53,1.53
156.88,7.32,7.32,5.83,5.83,-5.83,-5.92,-5.44,1.49,1.49,1.49
158.44,7.25,7.25,5.80,5.81,-5.81,-5.89,-5.35,1.44,1.44,1.44
160.03,7.18,7.18,5.78,5.78,-5.78,-5.85,-5.26,1.40,1.40,1.40
161.63,7.10,7.10,5.75,5.75,-5.75,-5.82,-5.18,1.35,1.35,1.35
163.24,7.03,7.03,5.72,5.72,-5.72,-5.78,-5.09,1.31,1.31,1.31
164.88,6.95,6.95,5.68,5.68,-5.68,-5.74,-5.01,1.27,1.27,1.27
166.53,6.87,6.87,5.64,5.64,-5.64,-5.70,-4.94,1.23,1.23,1.23
168.19,6.79,6.79,5.60,5.60,-5.60,-5.66,-4.86,1.19,1.19,1.19
169.87,6.71,6.71,5.56,5.56,-5.56,-5.62,-4.79,1.15,1.15,1.15
171.57,6.63,6.63,5.51,5.51,-5.51,-5.57,-4.72,1.12,1.12,1.11
173.29,6.54,6.54,5.46,5.46,-5.46,-5.52,-4.66,1.08,1.08,1.08
175.02,6.46,6.46,5.41,5.41,-5.41,-5.47,-4.60,1.05,1.04,1.04
176.77,6.37,6.37,5.36,5.36,-5.36,-5.42,-4.54,1.01,1.01,1.01
178.54,6.29,6.29,5.31,5.31,-5.31,-5.37,-4.49,0.98,0.98,0.98
180.32,6.21,6.20,5.26,5.26,-5.26,-5.31,-4.44,0.95,0.95,0.95
182.13,6.12,6.12,5.20,5.21,-5.20,-5.26,-4.39,0.91,0.92,0.92
183.95,6.04,6.04,5.15,5.15,-5.15,-5.20,-4.35,0.89,0.89,0.89
185.79,5.95,5.95,5.09,5.09,-5.09,-5.14,-4.31,0.86,0.86,0.86
187.65,5.87,5.87,5.04,5.04,-5.04,-5.08,-4.27,0.83,0.83,0.83
189.52,5.78,5.78,4.98,4.98,-4.98,-5.02,-4.24,0.80,0.80,0.80
191.42,5.69,5.69,4.91,4.92,-4.92,-4.95,-4.20,0.77,0.77,0.77
193.33,5.60,5.60,4.85,4.85,-4.85,-4.89,-4.18,0.74,0.75,0.75
195.27,5.52,5.51,4.80,4.79,-4.79,-4.82,-4.15,0.73,0.72,0.72
197.22,5.43,5.43,4.73,4.73,-4.73,-4.76,-4.13,0.70,0.70,0.70
199.19,5.34,5.34,4.66,4.67,-4.67,-4.69,-4.10,0.67,0.67,0.68
201.18,5.26,5.25,4.61,4.60,-4.60,-4.62,-4.09,0.65,0.65,0.65
203.19,5.17,5.17,4.54,4.54,-4.54,-4.55,-4.07,0.63,0.63,0.63
205.23,5.09,5.09,4.48,4.48,-4.48,-4.48,-4.05,0.61,0.61,0.61
207.28,5.01,5.00,4.42,4.42,-4.42,-4.41,-4.04,0.59,0.59,0.59
209.35,4.92,4.92,4.35,4.35,-4.35,-4.34,-4.03,0.57,0.57,0.57
211.44,4.84,4.84,4.29,4.29,-4.29,-4.27,-4.02,0.55,0.55,0.55
213.56,4.76,4.75,4.23,4.22,-4.22,-4.20,-4.01,0.53,0.53,0.53
215.69,4.67,4.67,4.16,4.16,-4.16,-4.13,-3.99,0.51,0.51,0.51
217.85,4.59,4.59,4.09,4.09,-4.09,-4.05,-3.98,0.49,0.49,0.49
220.03,4.51,4.50,4.03,4.03,-4.03,-3.98,-3.97,0.48,0.48,0.48
222.23,4.42,4.42,3.96,3.96,-3.96,-3.91,-3.96,0.46,0.46,0.46
224.45,4.34,4.34,3.89,3.90,-3.90,-3.84,-3.95,0.44,0.44,0.44
226.70,4.26,4.26,3.83,3.83,-3.83,-3.76,-3.94,0.43,0.42,0.43
228.96,4.18,4.18,3.76,3.76,-3.77,-3.69,-3.92,0.41,0.41,0.41
231.25,4.10,4.10,3.70,3.70,-3.70,-3.62,-3.90,0.39,0.40,0.40
233.57,4.03,4.02,3.64,3.64,-3.64,-3.55,-3.88,0.39,0.38,0.38
235.90,3.95,3.95,3.59,3.58,-3.58,-3.48,-3.86,0.37,0.37,0.36
238.26,3.87,3.87,3.52,3.52,-3.52,-3.41,-3.84,0.35,0.35,0.35
240.64,3.79,3.79,3.45,3.46,-3.45,-3.34,-3.81,0.33,0.34,0.34
243.05,3.72,3.71,3.39,3.39,-3.39,-3.27,-3.78,0.33,0.32,0.32
245.48,3.64,3.64,3.33,3.33,-3.33,-3.20,-3.74,0.31,0.31,0.31
247.93,3.56,3.56,3.26,3.26,-3.26,-3.13,-3.70,0.30,0.30,0.30
250.41,3.49,3.48,3.20,3.19,-3.20,-3.06,-3.66,0.29,0.29,0.29
252.92,3.41,3.41,3.13,3.13,-3.13,-2.99,-3.62,0.28,0.28,0.28
255.45,3.34,3.34,3.06,3.06,-3.06,-2.93,-3.57,0.27,0.28,0.28
258.00,3.27,3.27,3.00,3.00,-3.00,-2.86,-3.51,0.27,0.27,0.27
260.58,3.20,3.19,2.94,2.93,-2.93,-2.79,-3.45,0.26,0.26,0.26
263.19,3.12,3.12,2.87,2.87,-2.87,-2.73,-3.39,0.25,0.25,0.25
265.82,3.05,3.05,2.81,2.81,-2.81,-2.66,-3.33,0.24,0.24,0.24
268.48,2.98,2.98,2.75,2.74,-2.75,-2.60,-3.26,0.23,0.23,0.23
271.16,2.91,2.91,2.68,2.68,-2.68,-2.54,-3.19,0.22,0.22,0.22
273.87,2.84,2.84,2.62,2.62,-2.62,-2.47,-3.12,0.22,0.22,0.22
276.61,2.77,2.77,2.56,2.56,-2.56,-2.41,-3.04,0.21,0.21,0.21
279.38,2.70,2.70,2.50,2.50,-2.49,-2.35,-2.96,0.21,0.21,0.20
282.17,2.63,2.63,2.43,2.43,-2.43,-2.29,-2.88,0.20,0.20,0.19
284.99,2.56,2.56,2.36,2.36,-2.36,-2.23,-2.80,0.20,0.20,0.20
287.84,2.49,2.49,2.29,2.29,-2.29,-2.17,-2.71,0.19,0.19,0.20
290.72,2.42,2.42,2.22,2.22,-2.23,-2.11,-2.63,0.19,0.19,0.19
293.63,2.35,2.35,2.16,2.16,-2.16,-2.05,-2.54,0.19,0.19,0.19
296.57,2.29,2.29,2.10,2.09,-2.09,-2.00,-2.45,0.20,0.19,0.19
299.53,2.22,2.22,2.02,2.03,-2.03,-1.94,-2.36,0.19,0.19,0.20
302.53,2.16,2.16,1.97,1.96,-1.96,-1.88,-2.27,0.20,0.20,0.19
305.55,2.09,2.09,1.89,1.90,-1.90,-1.83,-2.18,0.19,0.19,0.20
308.61,2.03,2.03,1.84,1.83,-1.83,-1.77,-2.09,0.19,0.19,0.19
311.69,1.96,1.96,1.76,1.77,-1.77,-1.72,-2.00,0.19,0.19,0.20
314.81,1.90,1.90,1.71,1.71,-1.71,-1.67,-1.91,0.19,0.19,0.19
317.96,1.84,1.84,1.64,1.64,-1.64,-1.61,-1.83,0.20,0.20,0.20
321.14,1.78,1.78,1.59,1.58,-1.58,-1.56,-1.74,0.20,0.20,0.19
324.35,1.72,1.72,1.52,1.52,-1.52,-1.51,-1.65,0.20,0.20,0.20
327.59,1.66,1.66,1.44,1.45,-1.45,-1.46,-1.56,0.21,0.21,0.21
330.87,1.60,1.60,1.39,1.39,-1.39,-1.40,-1.47,0.21,0.21,0.21
334.18,1.54,1.54,1.32,1.32,-1.32,-1.35,-1.38,0.21,0.21,0.22
337.52,1.48,1.48,1.27,1.26,-1.26,-1.30,-1.29,0.22,0.22,0.21
340.90,1.42,1.42,1.20,1.20,-1.20,-1.25,-1.21,0.22,0.22,0.22
344.30,1.36,1.36,1.13,1.13,-1.13,-1.20,-1.12,0.23,0.22,0.23
347.75,1.30,1.30,1.07,1.07,-1.07,-1.15,-1.04,0.23,0.23,0.23
351.23,1.24,1.24,1.01,1.01,-1.01,-1.10,-0.95,0.23,0.23,0.23
354.74,1.19,1.18,0.94,0.94,-0.95,-1.06,-0.87,0.24,0.24,0.25
358.28,1.13,1.13,0.89,0.89,-0.89,-1.01,-0.78,0.24,0.24,0.24
361.87,1.08,1.08,0.83,0.83,-0.83,-0.96,-0.70,0.25,0.25,0.25
365.49,1.03,1.02,0.77,0.77,-0.77,-0.91,-0.62,0.26,0.26,0.26
369.14,0.97,0.97,0.71,0.71,-0.71,-0.86,-0.53,0.26,0.26,0.25
372.83,0.92,0.92,0.65,0.65,-0.65,-0.81,-0.45,0.27,0.27,0.27
376.56,0.86,0.86,0.59,0.59,-0.59,-0.77,-0.37,0.27,0.27,0.27
380.33,0.81,0.81,0.53,0.53,-0.53,-0.72,-0.29,0.28,0.28,0.28
384.13,0.75,0.75,0.47,0.47,-0.47,-0.67,-0.21,0.28,0.28,0.28
387.97,0.70,0.70,0.41,0.41,-0.41,-0.62,-0.13,0.29,0.29,0.29
391.85,0.65,0.65,0.34,0.34,-0.35,-0.58,-0.06,0.30,0.30,0.31
395.77,0.60,0.60,0.29,0.28,-0.29,-0.53,0.02,0.31,0.31,0.31
399.73,0.55,0.55,0.23,0.23,-0.23,-0.48,0.10,0.31,0.31,0.32
403.72,0.50,0.50,0.17,0.18,-0.18,-0.43,0.17,0.32,0.32,0.32
407.76,0.45,0.45,0.13,0.12,-0.12,-0.38,0.25,0.32,0.33,0.32
411.84,0.41,0.40,0.08,0.07,-0.07,-0.34,0.32,0.34,0.33,0.33
415.96,0.36,0.36,0.02,0.02,-0.02,-0.29,0.40,0.34,0.34,0.34
420.12,0.31,0.31,-0.03,-0.03,0.03,-0.24,0.47,0.34,0.34,0.34
424.32,0.26,0.26,-0.09,-0.09,0.09,-0.19,0.54,0.34,0.35,0.35
428.56,0.22,0.21,-0.14,-0.14,0.14,-0.14,0.61,0.36,0.35,0.35
432.85,0.17,0.17,-0.20,-0.20,0.20,-0.09,0.68,0.36,0.36,0.36
437.18,0.12,0.12,-0.25,-0.25,0.25,-0.04,0.74,0.37,0.37,0.37
441.55,0.08,0.08,-0.30,-0.31,0.31,0.01,0.81,0.39,0.38,0.38
445.96,0.03,0.03,-0.36,-0.36,0.36,0.06,0.87,0.39,0.39,0.39
450.42,-0.01,-0.01,-0.42,-0.42,0.41,0.11,0.93,0.40,0.40,0.41
454.93,-0.06,-0.06,-0.48,-0.48,0.47,0.17,0.99,0.41,0.41,0.42
459.48,-0.10,-0.10,-0.53,-0.52,0.52,0.22,1.04,0.42,0.42,0.43
464.07,-0.14,-0.14,-0.57,-0.57,0.57,0.27,1.09,0.43,0.43,0.42
468.71,-0.18,-0.18,-0.62,-0.62,0.62,0.33,1.14,0.44,0.44,0.43
473.40,-0.22,-0.23,-0.66,-0.67,0.67,0.38,1.19,0.45,0.45,0.44
478.13,-0.27,-0.27,-0.72,-0.72,0.73,0.44,1.23,0.45,0.46,0.45
482.91,-0.31,-0.31,-0.78,-0.78,0.78,0.50,1.28,0.47,0.47,0.47
487.74,-0.35,-0.36,-0.83,-0.83,0.83,0.56,1.31,0.48,0.47,0.48
492.62,-0.40,-0.40,-0.89,-0.89,0.89,0.61,1.35,0.48,0.49,0.49
497.55,-0.44,-0.44,-0.94,-0.94,0.94,0.67,1.38,0.50,0.50,0.50
502.52,-0.48,-0.48,-0.99,-0.99,0.99,0.73,1.41,0.51,0.51,0.51
507.55,-0.52,-0.52,-1.05,-1.04,1.05,0.80,1.43,0.52,0.52,0.53
512.62,-0.56,-0.56,-1.10,-1.10,1.10,0.86,1.46,0.53,0.53,0.54
