frequency,raw
20,-20.03
21,-19.28
22,-18.75
23,-18.05
24,-17.49
25,-16.81
26,-16.42
27,-15.90
28,-15.30
29,-14.77
30,-14.22
31,-13.86
32,-13.30
33,-12.96
34,-12.46
35,-12.01
36,-11.57
37,-11.20
38,-10.79
39,-10.42
40,-10.03
41,-9.67
42,-9.29
43,-8.91
44,-8.59
45,-8.31
46,-7.99
47,-7.71
48,-7.43
49,-7.12
50,-6.78
51,-6.49
52,-6.18
53,-5.92
54,-5.68
55,-5.40
56,-5.18
57,-4.88
58,-4.62
59,-4.32
60,-4.12
61,-3.90
62,-3.69
63,-3.48
64,-3.29
65,-3.08
66,-2.92
67,-2.75
68,-2.58
69,-2.38
70,-2.19
71,-2.06
72,-1.92
73,-1.80
74,-1.64
75,-1.54
76,-1.40
77,-1.25
78,-1.18
79,-1.09
80,-1.03
81,-0.95
82,-0.80
83,-0.73
84,-0.62
85,-0.49
86,-0.42
87,-0.35
88,-0.24
89,-0.19
90,-0.15
91,-0.02
92,-0.01
93,0.01
94,0.14
95,0.14
96,0.15
97,0.18
98,0.26
99,0.31
100,0.30
101,0.28
102,0.34
104,0.34
105,0.31
106,0.29
107,0.26
108,0.24
109,0.22
110,0.22
111,0.19
112,0.17
113,0.16
114,0.16
115,0.15
117,0.15
118,0.16
119,0.16
120,0.17
121,0.15
123,0.08
124,0.04
125,0.04
126,0.06
128,0.07
129,0.06
130,-0.02
131,-0.02
133,-0.08
134,-0.12
135,-0.12
137,-0.11
138,-0.14
140,-0.17
141,-0.20
142,-0.23
144,-0.25
145,-0.30
147,-0.42
148,-0.46
150,-0.47
151,-0.46
153,-0.48
154,-0.50
156,-0.66
157,-0.67
159,-0.65
160,-0.66
162,-0.73
164,-0.81
165,-0.86
167,-0.92
169,-1.01
170,-1.03
172,-1.11
174,-1.18
175,-1.26
177,-1.29
179,-1.27
181,-1.40
183,-1.45
184,-1.47
186,-1.47
188,-1.46
190,-1.51
192,-1.55
194,-1.61
196,-1.64
198,-1.66
200,-1.71
202,-1.74
204,-1.87
206,-1.91
208,-1.89
210,-1.99
212,-2.06
214,-2.18
216,-2.17
218,-2.09
221,-2.19
223,-2.24
225,-2.38
227,-2.34
229,-2.30
232,-2.48
234,-2.51
236,-2.55
239,-2.55
241,-2.66
244,-2.74
246,-2.71
248,-2.67
251,-2.66
253,-2.79
256,-2.82
259,-2.83
261,-2.85
264,-2.90
266,-2.97
269,-3.04
272,-3.14
274,-3.21
277,-3.20
280,-3.28
283,-3.41
286,-3.45
288,-3.44
291,-3.43
294,-3.56
297,-3.62
300,-3.72
303,-3.87
306,-3.89
309,-3.91
312,-3.96
316,-4.05
319,-4.08
322,-4.07
325,-4.28
328,-4.34
332,-4.22
335,-4.17
338,-4.23
342,-4.20
345,-4.26
349,-4.39
352,-4.43
356,-4.53
359,-4.59
363,-4.58
366,-4.62
370,-4.76
374,-4.79
377,-4.81
381,-4.85
385,-4.96
389,-4.93
393,-5.06
397,-5.14
401,-5.27
405,-5.28
409,-5.26
413,-5.54
417,-5.60
421,-5.56
425,-5.68
430,-5.70
434,-5.70
438,-5.88
443,-5.80
447,-5.77
451,-5.88
456,-5.86
460,-5.99
465,-5.76
470,-5.73
474,-5.96
479,-5.90
484,-5.76
489,-5.80
494,-5.91
499,-5.91
504,-5.88
509,-6.05
514,-6.18
519,-6.15
524,-6.23
529,-6.33
535,-6.28
540,-6.44
545,-6.62
551,-6.67
556,-6.78
562,-7.16
568,-6.98
573,-6.99
579,-7.25
585,-7.49
591,-7.50
596,-7.39
602,-7.77
608,-7.79
615,-7.63
621,-7.96
627,-7.96
633,-7.70
639,-7.60
646,-7.78
652,-7.86
659,-7.88
665,-7.91
672,-7.83
679,-7.84
686,-8.03
692,-7.96
699,-7.54
706,-7.05
713,-7.15
721,-7.46
728,-7.68
735,-7.48
742,-7.15
750,-7.10
757,-7.05
765,-7.20
773,-7.16
780,-6.78
788,-6.35
796,-6.18
804,-6.11
812,-5.89
820,-5.55
828,-5.34
837,-4.95
845,-4.61
853,-4.25
862,-3.81
871,-3.54
879,-3.31
888,-2.91
897,-2.65
906,-2.42
915,-1.96
924,-1.78
933,-1.48
943,-1.33
952,-1.11
962,-0.86
971,-0.60
981,-0.32
991,-0.12
1001,0.01
1011,0.20
1021,0.38
1031,0.45
1041,0.58
1052,0.72
1062,0.68
1073,0.81
1084,0.92
1094,0.91
1105,1.02
1116,1.15
1128,1.33
1139,1.39
1150,1.58
1162,1.63
1173,1.69
1185,1.90
1197,2.06
1209,2.11
1221,2.19
1233,2.29
1246,2.36
1258,2.41
1271,2.53
1283,2.65
1296,2.61
1309,2.63
1322,2.73
1335,2.72
1349,2.64
1362,2.65
1376,2.64
1390,2.70
1404,2.79
1418,2.78
1432,2.79
1446,2.91
1461,3.02
1475,2.99
1490,3.08
1505,3.20
1520,3.23
1535,3.37
1550,3.41
1566,3.45
1582,3.58
1597,3.59
1613,3.62
1629,3.71
1646,3.77
1662,3.77
1679,3.92
1696,3.90
1713,4.01
1730,4.11
1747,4.11
1764,4.19
1782,4.24
1800,4.26
1818,4.30
1836,4.29
1854,4.23
1873,4.24
1892,4.32
1911,4.38
1930,4.37
1949,4.37
1969,4.39
1988,4.37
2008,4.33
2028,4.15
2048,4.14
2069,4.11
2090,4.09
2111,4.07
2132,4.09
2153,4.07
2175,4.01
2196,3.99
2218,4.03
2240,3.96
2263,3.86
2285,3.88
2308,3.79
2331,3.67
2355,3.71
2378,3.64
2402,3.57
2426,3.51
2450,3.45
2475,3.31
2500,3.20
2525,3.24
2550,3.28
2575,3.27
2601,3.27
2627,3.27
2653,3.28
2680,3.32
2707,3.37
2734,3.40
2761,3.39
2789,3.43
2817,3.46
2845,3.49
2873,3.47
2902,3.44
2931,3.40
2960,3.38
2990,3.45
3020,3.51
3050,3.63
3080,3.75
3111,3.92
3142,4.09
3174,4.30
3206,4.49
3238,4.63
3270,4.78
3303,4.94
3336,5.06
3369,5.22
3403,5.38
3437,5.56
3471,5.75
3506,5.95
3541,6.12
3576,6.27
3612,6.36
3648,6.34
3685,6.26
3721,6.16
3759,5.96
3796,5.74
3834,5.54
3873,5.28
3911,5.00
3950,4.68
3990,4.21
4030,3.84
4070,3.46
4111,3.07
4152,2.67
4193,2.32
4235,1.81
4278,1.38
4321,1.06
4364,0.68
4407,0.23
4451,-0.10
4496,-0.51
4541,-1.03
4586,-1.27
4632,-1.57
4679,-2.01
4725,-2.29
4773,-2.63
4820,-2.96
4868,-3.26
4917,-3.52
4966,-3.87
5016,-4.26
5066,-4.54
5117,-4.77
5168,-5.09
5220,-5.45
5272,-5.70
5325,-5.93
5378,-6.12
5432,-6.25
5486,-6.39
5541,-6.43
5596,-6.51
5652,-6.73
5709,-6.97
5766,-7.13
5823,-7.26
5882,-7.34
5940,-7.50
6000,-7.65
6060,-7.78
6120,-7.93
6182,-8.07
6244,-8.27
6306,-8.39
6369,-8.50
6433,-8.66
6497,-8.70
6562,-8.68
6628,-8.69
6694,-8.59
6761,-8.41
6828,-7.98
6897,-7.88
6966,-7.67
7035,-7.45
7106,-7.34
7177,-7.08
7249,-6.72
7321,-6.40
7394,-6.13
7468,-5.62
7543,-5.38
7618,-5.14
7694,-4.65
7771,-4.15
7849,-3.79
7928,-3.14
8007,-2.40
8087,-1.68
8168,-0.98
8250,0.23
8332,1.07
8415,1.65
8499,2.44
8584,2.40
8670,2.25
8757,1.87
8845,1.84
8933,1.83
9022,1.76
9113,1.96
9204,2.03
9296,1.79
9389,1.45
9483,1.10
9577,0.66
9673,0.07
9770,-0.42
9868,-0.99
9966,-1.42
10066,-1.70
10167,-1.78
10268,-1.76
10371,-2.20
10475,-2.66
10579,-2.84
10685,-3.20
10792,-3.17
10900,-3.14
11009,-3.01
11119,-3.66
11230,-3.96
11343,-4.86
11456,-5.72
11571,-7.35
11686,-8.94
11803,-10.46
11921,-12.56
12040,-14.89
12161,-16.34
12282,-17.76
12405,-17.00
12529,-18.95
12655,-19.99
12781,-19.73
12909,-20.27
13038,-20.40
13168,-20.43
13300,-20.91
13433,-21.37
13567,-21.56
13703,-20.02
13840,-19.58
13978,-19.30
14118,-18.38
14259,-18.01
14402,-17.56
14546,-17.29
14692,-17.97
14838,-18.37
14987,-18.42
15137,-17.75
15288,-17.12
15441,-17.09
15595,-17.61
15751,-17.79
15909,-17.33
16068,-16.05
16229,-15.42
16391,-14.31
16555,-13.92
16720,-13.73
16888,-13.20
17056,-12.86
17227,-12.10
17399,-11.53
17573,-11.33
17749,-11.42
17926,-11.41
18106,-11.13
18287,-10.63
18470,-10.07
18654,-9.54
18841,-8.89
19029,-8.44
19220,-8.77
19412,-9.30
19606,-9.67
19802,-9.62
20000,-10.15
