frequency,raw,error,smoothed,error_smoothed,equalization,parametric_eq,fixed_band_eq,equalized_raw,equalized_smoothed,target
20.00,3.59,2.54,3.59,2.54,-2.54,-3.96,-1.77,1.05,1.06,1.05
20.20,3.61,2.56,3.61,2.55,-2.55,-3.96,-1.82,1.06,1.06,1.05
20.40,3.62,2.57,3.62,2.57,-2.57,-3.96,-1.87,1.05,1.06,1.05
20.61,3.64,2.59,3.64,2.59,-2.59,-3.97,-1.93,1.05,1.05,1.05
20.81,3.66,2.61,3.66,2.61,-2.61,-3.97,-1.98,1.05,1.05,1.05
21.02,3.68,2.63,3.68,2.63,-2.64,-3.97,-2.04,1.04,1.04,1.05
21.23,3.70,2.67,3.70,2.66,-2.67,-3.97,-2.10,1.03,1.03,1.03
21.44,3.72,2.70,3.72,2.70,-2.70,-3.97,-2.16,1.02,1.02,1.02
21.66,3.74,2.74,3.75,2.74,-2.74,-3.97,-2.22,1.00,1.00,1.00
21.87,3.77,2.79,3.77,2.79,-2.78,-3.98,-2.29,0.99,0.99,0.98
22.09,3.80,2.83,3.80,2.83,-2.83,-3.98,-2.36,0.97,0.97,0.97
22.31,3.82,2.88,3.82,2.88,-2.88,-3.98,-2.42,0.94,0.94,0.94
22.54,3.84,2.92,3.85,2.93,-2.93,-3.98,-2.49,0.91,0.92,0.92
22.76,3.88,2.98,3.87,2.98,-2.98,-3.98,-2.57,0.90,0.89,0.90
22.99,3.90,3.03,3.90,3.03,-3.03,-3.99,-2.64,0.87,0.87,0.87
23.22,3.92,3.08,3.93,3.08,-3.08,-3.99,-2.71,0.84,0.85,0.84
23.45,3.95,3.13,3.95,3.13,-3.12,-3.99,-2.79,0.83,0.83,0.82
23.69,3.98,3.17,3.98,3.18,-3.17,-3.99,-2.87,0.81,0.81,0.81
23.92,4.01,3.22,4.01,3.22,-3.22,-3.99,-2.95,0.80,0.79,0.79
24.16,4.03,3.25,4.03,3.26,-3.26,-4.00,-3.03,0.77,0.77,0.78
24.40,4.05,3.29,4.06,3.30,-3.30,-4.00,-3.11,0.75,0.75,0.76
24.65,4.08,3.34,4.08,3.34,-3.35,-4.00,-3.19,0.73,0.73,0.74
24.89,4.11,3.40,4.11,3.39,-3.39,-4.00,-3.28,0.72,0.72,0.72
25.14,4.14,3.44,4.14,3.44,-3.44,-4.01,-3.36,0.70,0.70,0.71
25.39,4.17,3.49,4.17,3.48,-3.48,-4.01,-3.45,0.69,0.69,0.69
25.65,4.20,3.53,4.20,3.53,-3.53,-4.01,-3.54,0.67,0.67,0.68
25.91,4.23,3.59,4.23,3.58,-3.58,-4.01,-3.62,0.65,0.65,0.65
26.16,4.26,3.63,4.26,3.62,-3.62,-4.02,-3.71,0.64,0.64,0.63
26.43,4.28,3.66,4.28,3.67,-3.66,-4.02,-3.79,0.62,0.62,0.62
26.69,4.31,3.71,4.31,3.71,-3.71,-4.02,-3.88,0.61,0.61,0.60
26.96,4.34,3.75,4.34,3.75,-3.75,-4.03,-3.96,0.60,0.59,0.59
27.23,4.37,3.79,4.36,3.78,-3.79,-4.03,-4.05,0.59,0.58,0.58
27.50,4.38,3.81,4.39,3.82,-3.83,-4.03,-4.13,0.56,0.56,0.57
27.77,4.41,3.86,4.41,3.86,-3.86,-4.04,-4.20,0.55,0.55,0.55
28.05,4.44,3.90,4.44,3.90,-3.90,-4.04,-4.28,0.54,0.54,0.54
28.33,4.46,3.94,4.46,3.94,-3.94,-4.04,-4.35,0.53,0.53,0.52
28.62,4.48,3.97,4.48,3.98,-3.97,-4.05,-4.42,0.51,0.51,0.51
28.90,4.50,4.00,4.50,4.01,-4.01,-4.05,-4.48,0.50,0.50,0.50
29.19,4.52,4.05,4.52,4.04,-4.04,-4.05,-4.54,0.48,0.48,0.48
29.48,4.54,4.07,4.54,4.07,-4.07,-4.06,-4.60,0.47,0.47,0.48
29.78,4.56,4.10,4.56,4.10,-4.10,-4.06,-4.65,0.46,0.46,0.46
30.08,4.58,4.13,4.58,4.13,-4.13,-4.06,-4.69,0.45,0.45,0.45
30.38,4.59,4.16,4.60,4.16,-4.16,-4.07,-4.73,0.43,0.44,0.43
30.68,4.61,4.19,4.61,4.19,-4.19,-4.07,-4.76,0.42,0.42,0.42
30.99,4.63,4.23,4.63,4.22,-4.22,-4.08,-4.79,0.41,0.41,0.40
31.30,4.63,4.24,4.64,4.25,-4.24,-4.08,-4.80,0.39,0.39,0.39
31.61,4.64,4.26,4.64,4.27,-4.27,-4.09,-4.82,0.37,0.37,0.38
31.93,4.64,4.29,4.64,4.29,-4.29,-4.09,-4.82,0.35,0.35,0.36
32.24,4.64,4.32,4.65,4.31,-4.31,-4.09,-4.83,0.33,0.33,0.32
32.57,4.65,4.34,4.64,4.33,-4.33,-4.10,-4.82,0.32,0.31,0.31
32.89,4.64,4.34,4.65,4.35,-4.35,-4.10,-4.81,0.29,0.30,0.30
33.22,4.64,4.37,4.64,4.37,-4.37,-4.11,-4.79,0.27,0.28,0.27
33.55,4.64,4.38,4.64,4.38,-4.38,-4.11,-4.77,0.26,0.25,0.26
33.89,4.63,4.39,4.63,4.40,-4.40,-4.12,-4.75,0.23,0.23,0.24
34.23,4.62,4.41,4.63,4.41,-4.41,-4.12,-4.72,0.21,0.21,0.22
34.57,4.62,4.43,4.62,4.42,-4.42,-4.13,-4.68,0.20,0.19,0.19
34.92,4.61,4.44,4.61,4.44,-4.43,-4.14,-4.65,0.18,0.18,0.17
35.27,4.60,4.44,4.60,4.45,-4.44,-4.14,-4.61,0.16,0.16,0.16
35.62,4.59,4.45,4.59,4.45,-4.45,-4.15,-4.57,0.14,0.14,0.14
35.97,4.57,4.46,4.57,4.45,-4.46,-4.15,-4.52,0.11,0.12,0.12
36.33,4.56,4.46,4.56,4.46,-4.46,-4.16,-4.48,0.10,0.10,0.10
36.70,4.54,4.46,4.54,4.46,-4.47,-4.16,-4.43,0.07,0.08,0.08
37.06,4.53,4.47,4.53,4.47,-4.47,-4.17,-4.39,0.06,0.06,0.06
37.43,4.52,4.48,4.52,4.48,-4.48,-4.18,-4.34,0.05,0.04,0.05
37.81,4.50,4.48,4.50,4.48,-4.48,-4.18,-4.30,0.02,0.02,0.02
38.19,4.49,4.49,4.49,4.48,-4.48,-4.19,-4.25,0.01,0.00,0.00
38.57,4.46,4.47,4.47,4.48,-4.48,-4.19,-4.21,-0.02,-0.02,-0.01
38.95,4.45,4.49,4.45,4.49,-4.48,-4.20,-4.16,-0.03,-0.03,-0.03
39.34,4.43,4.49,4.43,4.49,-4.48,-4.21,-4.12,-0.05,-0.05,-0.06
39.74,4.41,4.49,4.41,4.48,-4.48,-4.21,-4.08,-0.07,-0.07,-0.08
40.14,4.38,4.47,4.39,4.47,-4.48,-4.22,-4.04,-0.09,-0.09,-0.08
40.54,4.36,4.47,4.36,4.47,-4.47,-4.22,-4.01,-0.11,-0.11,-0.11
40.94,4.34,4.46,4.34,4.46,-4.46,-4.23,-3.98,-0.12,-0.12,-0.12
41.35,4.32,4.47,4.32,4.46,-4.46,-4.23,-3.94,-0.14,-0.13,-0.14
41.76,4.30,4.45,4.30,4.45,-4.45,-4.24,-3.92,-0.15,-0.15,-0.15
42.18,4.28,4.44,4.28,4.44,-4.44,-4.25,-3.89,-0.16,-0.17,-0.16
42.60,4.25,4.44,4.25,4.43,-4.44,-4.25,-3.87,-0.19,-0.18,-0.19
43.03,4.23,4.42,4.23,4.43,-4.43,-4.26,-3.85,-0.20,-0.20,-0.19
43.46,4.21,4.43,4.21,4.43,-4.43,-4.26,-3.83,-0.22,-0.22,-0.21
43.90,4.19,4.43,4.19,4.42,-4.42,-4.26,-3.81,-0.23,-0.23,-0.24
44.33,4.17,4.43,4.17,4.42,-4.42,-4.27,-3.80,-0.25,-0.25,-0.25
44.78,4.14,4.41,4.14,4.42,-4.41,-4.27,-3.79,-0.27,-0.27,-0.27
45.23,4.12,4.42,4.12,4.41,-4.41,-4.28,-3.79,-0.29,-0.29,-0.29
45.68,4.09,4.40,4.10,4.40,-4.40,-4.28,-3.78,-0.31,-0.30,-0.31
46.13,4.07,4.40,4.07,4.39,-4.39,-4.28,-3.78,-0.32,-0.32,-0.32
46.60,4.05,4.38,4.05,4.38,-4.38,-4.28,-3.78,-0.33,-0.33,-0.33
47.06,4.02,4.37,4.03,4.37,-4.37,-4.29,-3.79,-0.35,-0.35,-0.35
47.53,4.00,4.36,4.00,4.36,-4.37,-4.29,-3.80,-0.36,-0.36,-0.36
48.01,3.98,4.35,3.98,4.35,-4.36,-4.29,-3.81,-0.38,-0.38,-0.37
48.49,3.95,4.35,3.95,4.35,-4.35,-4.29,-3.82,-0.40,-0.40,-0.40
48.97,3.93,4.35,3.93,4.35,-4.35,-4.29,-3.83,-0.42,-0.42,-0.42
49.46,3.90,4.35,3.91,4.35,-4.35,-4.29,-3.85,-0.45,-0.44,-0.45
49.96,3.88,4.36,3.88,4.35,-4.35,-4.29,-3.87,-0.46,-0.46,-0.48
50.46,3.87,4.35,3.86,4.35,-4.34,-4.29,-3.89,-0.47,-0.48,-0.47
50.96,3.84,4.33,3.84,4.34,-4.34,-4.29,-3.92,-0.50,-0.50,-0.49
51.47,3.82,4.34,3.82,4.34,-4.34,-4.28,-3.94,-0.52,-0.52,-0.52
51.99,3.80,4.34,3.80,4.34,-4.34,-4.28,-3.97,-0.53,-0.54,-0.54
52.51,3.78,4.33,3.78,4.33,-4.33,-4.28,-4.00,-0.55,-0.55,-0.55
53.03,3.76,4.33,3.76,4.33,-4.33,-4.28,-4.02,-0.57,-0.57,-0.57
53.56,3.74,4.33,3.74,4.33,-4.33,-4.27,-4.05,-0.59,-0.59,-0.59
54.10,3.73,4.34,3.72,4.33,-4.33,-4.27,-4.08,-0.60,-0.61,-0.61
54.64,3.70,4.33,3.71,4.33,-4.33,-4.26,-4.11,-0.63,-0.63,-0.63
55.18,3.69,4.34,3.69,4.34,-4.34,-4.26,-4.14,-0.64,-0.64,-0.65
55.74,3.68,4.35,3.68,4.34,-4.34,-4.26,-4.17,-0.66,-0.66,-0.67
56.29,3.66,4.34,3.66,4.34,-4.34,-4.25,-4.20,-0.68,-0.68,-0.68
56.86,3.64,4.34,3.65,4.35,-4.35,-4.25,-4.23,-0.71,-0.70,-0.70
57.42,3.63,4.35,3.63,4.35,-4.35,-4.24,-4.25,-0.72,-0.72,-0.72
58.00,3.62,4.36,3.62,4.36,-4.35,-4.24,-4.28,-0.73,-0.73,-0.73
58.58,3.60,4.36,3.61,4.36,-4.35,-4.23,-4.30,-0.75,-0.75,-0.76
59.16,3.59,4.36,3.59,4.36,-4.36,-4.23,-4.32,-0.76,-0.77,-0.77
59.76,3.57,4.36,3.57,4.36,-4.36,-4.22,-4.34,-0.79,-0.79,-0.78
60.35,3.55,4.36,3.55,4.35,-4.36,-4.22,-4.35,-0.81,-0.81,-0.81
60.96,3.53,4.34,3.54,4.36,-4.37,-4.21,-4.37,-0.84,-0.83,-0.81
61.57,3.52,4.37,3.52,4.37,-4.37,-4.21,-4.38,-0.85,-0.85,-0.85
62.18,3.51,4.38,3.51,4.38,-4.37,-4.20,-4.38,-0.86,-0.87,-0.87
62.80,3.49,4.38,3.49,4.38,-4.38,-4.19,-4.39,-0.88,-0.88,-0.89
63.43,3.47,4.39,3.47,4.38,-4.38,-4.19,-4.39,-0.90,-0.90,-0.92
64.07,3.44,4.37,3.45,4.38,-4.37,-4.18,-4.39,-0.93,-0.93,-0.93
64.71,3.43,4.37,3.42,4.37,-4.37,-4.18,-4.38,-0.94,-0.94,-0.94
65.35,3.40,4.36,3.40,4.36,-4.36,-4.17,-4.38,-0.96,-0.96,-0.96
66.01,3.37,4.34,3.38,4.35,-4.35,-4.17,-4.37,-0.98,-0.97,-0.97
66.67,3.35,4.34,3.35,4.33,-4.33,-4.16,-4.36,-0.98,-0.99,-0.99
67.33,3.32,4.32,3.32,4.32,-4.32,-4.16,-4.34,-0.99,-1.00,-0.99
68.01,3.28,4.30,3.29,4.30,-4.30,-4.15,-4.33,-1.02,-1.01,-1.01
68.69,3.25,4.28,3.25,4.28,-4.28,-4.15,-4.31,-1.02,-1.03,-1.03
69.37,3.21,4.26,3.21,4.26,-4.25,-4.14,-4.29,-1.04,-1.04,-1.05
70.07,3.17,4.23,3.17,4.23,-4.23,-4.14,-4.27,-1.06,-1.06,-1.06
70.77,3.13,4.20,3.13,4.20,-4.20,-4.14,-4.25,-1.07,-1.08,-1.07
71.48,3.08,4.18,3.08,4.17,-4.18,-4.13,-4.23,-1.09,-1.09,-1.09
72.19,3.03,4.14,3.04,4.15,-4.15,-4.13,-4.21,-1.12,-1.11,-1.11
72.91,2.99,4.12,2.98,4.12,-4.12,-4.13,-4.19,-1.13,-1.13,-1.13
73.64,2.93,4.09,2.93,4.09,-4.09,-4.12,-4.17,-1.16,-1.15,-1.16
74.38,2.88,4.05,2.88,4.06,-4.06,-4.12,-4.16,-1.18,-1.18,-1.17
75.12,2.83,4.04,2.83,4.03,-4.03,-4.12,-4.14,-1.20,-1.20,-1.21
75.87,2.78,4.01,2.78,4.00,-4.00,-4.11,-4.12,-1.22,-1.22,-1.22
76.63,2.72,3.96,2.72,3.97,-3.97,-4.11,-4.11,-1.25,-1.25,-1.24
77.40,2.67,3.94,2.67,3.94,-3.94,-4.11,-4.09,-1.27,-1.27,-1.27
78.17,2.62,3.93,2.62,3.92,-3.92,-4.11,-4.08,-1.30,-1.30,-1.31
78.95,2.57,3.89,2.57,3.89,-3.90,-4.11,-4.07,-1.33,-1.33,-1.32
79.74,2.52,3.87,2.52,3.87,-3.88,-4.11,-4.07,-1.36,-1.35,-1.35
80.54,2.48,3.86,2.48,3.86,-3.86,-4.11,-4.06,-1.38,-1.38,-1.38
81.35,2.45,3.86,2.45,3.85,-3.85,-4.11,-4.06,-1.40,-1.41,-1.41
82.16,2.41,3.85,2.41,3.85,-3.85,-4.11,-4.06,-1.43,-1.43,-1.44
82.98,2.38,3.84,2.38,3.85,-3.84,-4.11,-4.07,-1.46,-1.46,-1.46
83.81,2.35,3.85,2.35,3.85,-3.85,-4.12,-4.08,-1.49,-1.50,-1.50
84.65,2.31,3.85,2.32,3.85,-3.85,-4.12,-4.09,-1.54,-1.53,-1.54
85.50,2.30,3.86,2.30,3.86,-3.86,-4.12,-4.10,-1.56,-1.57,-1.56
86.35,2.28,3.87,2.28,3.87,-3.88,-4.13,-4.11,-1.59,-1.60,-1.59
87.22,2.26,3.89,2.27,3.89,-3.89,-4.13,-4.13,-1.63,-1.63,-1.63
88.09,2.26,3.92,2.26,3.91,-3.92,-4.14,-4.16,-1.65,-1.66,-1.66
88.97,2.25,3.94,2.25,3.94,-3.94,-4.15,-4.18,-1.69,-1.69,-1.69
89.86,2.24,3.96,2.25,3.97,-3.97,-4.16,-4.21,-1.73,-1.73,-1.72
90.76,2.24,4.01,2.24,4.01,-4.00,-4.17,-4.24,-1.76,-1.76,-1.77
91.66,2.24,4.04,2.24,4.04,-4.04,-4.18,-4.28,-1.80,-1.80,-1.80
92.58,2.24,4.08,2.24,4.08,-4.08,-4.19,-4.32,-1.83,-1.83,-1.84
93.51,2.24,4.10,2.25,4.11,-4.11,-4.20,-4.36,-1.87,-1.87,-1.86
94.44,2.26,4.16,2.25,4.16,-4.16,-4.22,-4.40,-1.89,-1.90,-1.90
95.39,2.26,4.20,2.26,4.20,-4.20,-4.23,-4.45,-1.94,-1.94,-1.94
96.34,2.26,4.25,2.26,4.24,-4.24,-4.25,-4.50,-1.98,-1.98,-1.98
97.30,2.26,4.28,2.27,4.29,-4.29,-4.27,-4.55,-2.03,-2.02,-2.02
98.28,2.28,4.34,2.27,4.34,-4.34,-4.29,-4.61,-2.06,-2.06,-2.06
99.26,2.28,4.39,2.28,4.39,-4.39,-4.31,-4.66,-2.11,-2.11,-2.11
100.25,2.28,4.43,2.29,4.43,-4.43,-4.33,-4.72,-2.15,-2.15,-2.15
101.25,2.29,4.48,2.29,4.48,-4.48,-4.36,-4.78,-2.19,-2.19,-2.19
102.27,2.29,4.53,2.29,4.53,-4.53,-4.38,-4.84,-2.24,-2.24,-2.24
103.29,2.29,4.58,2.29,4.58,-4.57,-4.41,-4.90,-2.28,-2.28,-2.29
104.32,2.29,4.62,2.29,4.62,-4.62,-4.44,-4.97,-2.32,-2.32,-2.33
105.37,2.29,4.66,2.29,4.66,-4.66,-4.47,-5.03,-2.37,-2.37,-2.37
106.42,2.27,4.69,2.28,4.69,-4.70,-4.50,-5.09,-2.43,-2.42,-2.41
107.48,2.27,4.74,2.27,4.73,-4.74,-4.53,-5.16,-2.46,-2.46,-2.46
108.56,2.26,4.78,2.26,4.77,-4.77,-4.57,-5.22,-2.51,-2.51,-2.51
109.64,2.25,4.81,2.25,4.81,-4.81,-4.61,-5.28,-2.56,-2.56,-2.56
110.74,2.23,4.83,2.23,4.84,-4.84,-4.64,-5.33,-2.61,-2.61,-2.60
111.85,2.22,4.87,2.22,4.87,-4.88,-4.68,-5.39,-2.65,-2.66,-2.65
112.97,2.19,4.91,2.20,4.90,-4.91,-4.72,-5.44,-2.71,-2.71,-2.72
114.10,2.17,4.93,2.17,4.93,-4.93,-4.76,-5.49,-2.76,-2.76,-2.76
115.24,2.15,4.96,2.15,4.96,-4.96,-4.81,-5.53,-2.81,-2.81,-2.81
116.39,2.12,4.99,2.12,4.98,-4.98,-4.85,-5.57,-2.86,-2.86,-2.86
117.55,2.09,5.00,2.09,5.00,-5.00,-4.89,-5.60,-2.91,-2.91,-2.91
118.73,2.06,5.02,2.06,5.02,-5.01,-4.94,-5.63,-2.95,-2.95,-2.96
119.92,2.03,5.03,2.03,5.03,-5.03,-4.98,-5.65,-2.99,-3.00,-3.00
121.12,1.99,5.03,1.99,5.04,-5.04,-5.02,-5.66,-3.04,-3.04,-3.04
122.33,1.95,5.04,1.96,5.04,-5.04,-5.07,-5.66,-3.09,-3.09,-3.09
123.55,1.92,5.05,1.92,5.05,-5.05,-5.11,-5.67,-3.13,-3.13,-3.13
124.79,1.88,5.05,1.88,5.05,-5.06,-5.15,-5.65,-3.18,-3.17,-3.17
126.03,1.85,5.06,1.85,5.06,-5.06,-5.19,-5.64,-3.21,-3.22,-3.21
127.29,1.81,5.06,1.81,5.07,-5.07,-5.22,-5.61,-3.26,-3.26,-3.25
128.57,1.78,5.09,1.78,5.08,-5.08,-5.26,-5.58,-3.30,-3.30,-3.30
129.85,1.75,5.09,1.75,5.09,-5.08,-5.29,-5.54,-3.33,-3.33,-3.34
131.15,1.71,5.08,1.72,5.09,-5.08,-5.32,-5.50,-3.37,-3.37,-3.37
132.46,1.68,5.10,1.68,5.09,-5.08,-5.34,-5.44,-3.40,-3.41,-3.41
133.79,1.64,5.08,1.64,5.08,-5.08,-5.36,-5.38,-3.44,-3.44,-3.44
135.12,1.60,5.08,1.60,5.07,-5.07,-5.38,-5.32,-3.47,-3.47,-3.48
136.48,1.56,5.06,1.56,5.06,-5.06,-5.39,-5.25,-3.50,-3.50,-3.50
137.84,1.52,5.04,1.52,5.05,-5.05,-5.39,-5.17,-3.53,-3.53,-3.52
139.22,1.48,5.04,1.48,5.04,-5.03,-5.40,-5.09,-3.55,-3.55,-3.56
140.61,1.44,5.03,1.44,5.02,-5.01,-5.39,-5.01,-3.57,-3.57,-3.59
142.02,1.40,4.99,1.40,4.99,-4.99,-5.38,-4.92,-3.59,-3.59,-3.59
143.44,1.35,4.96,1.36,4.97,-4.97,-5.36,-4.83,-3.61,-3.61,-3.60
144.87,1.31,4.94,1.31,4.94,-4.94,-5.34,-4.74,-3.63,-3.63,-3.63
146.32,1.27,4.92,1.27,4.91,-4.91,-5.31,-4.64,-3.64,-3.64,-3.65
147.78,1.22,4.88,1.22,4.88,-4.88,-5.28,-4.55,-3.66,-3.66,-3.65
149.26,1.17,4.84,1.17,4.85,-4.85,-5.24,-4.45,-3.68,-3.67,-3.67
150.75,1.12,4.82,1.12,4.81,-4.81,-5.20,-4.35,-3.69,-3.69,-3.69
152.26,1.07,4.78,1.07,4.78,-4.78,-5.14,-4.26,-3.71,-3.71,-3.71
153.78,1.02,4.74,1.02,4.74,-4.74,-5.09,-4.16,-3.72,-3.72,-3.72
155.32,0.97,4.71,0.97,4.70,-4.71,-5.03,-4.07,-3.73,-3.74,-3.74
156.88,0.91,4.66,0.91,4.66,-4.67,-4.97,-3.97,-3.76,-3.75,-3.75
158.44,0.85,4.62,0.86,4.63,-4.63,-4.90,-3.88,-3.78,-3.77,-3.77
160.03,0.80,4.59,0.80,4.59,-4.59,-4.83,-3.78,-3.79,-3.79,-3.79
161.63,0.74,4.55,0.74,4.55,-4.55,-4.76,-3.69,-3.81,-3.81,-3.81
163.24,0.68,4.50,0.69,4.51,-4.51,-4.68,-3.60,-3.82,-3.82,-3.82
164.88,0.63,4.46,0.63,4.46,-4.46,-4.61,-3.52,-3.83,-3.84,-3.83
166.53,0.56,4.41,0.56,4.42,-4.42,-4.53,-3.43,-3.86,-3.86,-3.85
168.19,0.50,4.38,0.50,4.38,-4.38,-4.45,-3.35,-3.87,-3.88,-3.88
169.87,0.43,4.33,0.43,4.33,-4.33,-4.37,-3.27,-3.90,-3.90,-3.90
171.57,0.37,4.29,0.37,4.28,-4.29,-4.29,-3.19,-3.92,-3.92,-3.92
173.29,0.30,4.24,0.30,4.24,-4.24,-4.22,-3.11,-3.94,-3.94,-3.93
175.02,0.23,4.19,0.23,4.20,-4.20,-4.14,-3.04,-3.97,-3.96,-3.96
176.77,0.16,4.16,0.16,4.15,-4.15,-4.06,-2.96,-3.99,-3.99,-4.00
178.54,0.09,4.11,0.09,4.11,-4.11,-3.99,-2.89,-4.02,-4.02,-4.02
180.32,0.01,4.06,0.01,4.06,-4.06,-3.92,-2.83,-4.05,-4.05,-4.05
182.13,-0.06,4.01,-0.06,4.01,-4.02,-3.85,-2.76,-4.08,-4.08,-4.07
183.95,-0.14,3.97,-0.13,3.97,-3.97,-3.79,-2.70,-4.11,-4.10,-4.11
185.79,-0.21,3.92,-0.21,3.92,-3.92,-3.72,-2.64,-4.13,-4.13,-4.13
187.65,-0.29,3.87,-0.29,3.87,-3.86,-3.66,-2.58,-4.15,-4.15,-4.16
189.52,-0.38,3.81,-0.37,3.81,-3.81,-3.61,-2.52,-4.19,-4.18,-4.19
191.42,-0.45,3.76,-0.45,3.75,-3.75,-3.55,-2.46,-4.20,-4.21,-4.21
193.33,-0.54,3.68,-0.54,3.68,-3.69,-3.50,-2.41,-4.23,-4.23,-4.22
195.27,-0.62,3.62,-0.62,3.62,-3.63,-3.45,-2.36,-4.25,-4.25,-4.24
197.22,-0.71,3.55,-0.71,3.56,-3.57,-3.40,-2.31,-4.28,-4.27,-4.26
199.19,-0.79,3.52,-0.79,3.51,-3.50,-3.35,-2.26,-4.29,-4.29,-4.30
201.18,-0.87,3.45,-0.87,3.44,-3.44,-3.29,-2.22,-4.30,-4.31,-4.31
203.19,-0.96,3.37,-0.96,3.37,-3.37,-3.24,-2.17,-4.33,-4.33,-4.33
205.23,-1.05,3.30,-1.05,3.29,-3.30,-3.19,-2.13,-4.35,-4.35,-4.34
207.28,-1.13,3.22,-1.13,3.22,-3.23,-3.13,-2.09,-4.36,-4.36,-4.34
209.35,-1.22,3.16,-1.22,3.16,-3.15,-3.06,-2.05,-4.37,-4.37,-4.37
211.44,-1.30,3.09,-1.30,3.08,-3.08,-2.99,-2.01,-4.38,-4.38,-4.39
213.56,-1.40,3.00,-1.40,3.00,-3.00,-2.92,-1.97,-4.40,-4.39,-4.40
215.69,-1.49,2.91,-1.49,2.91,-2.92,-2.84,-1.93,-4.41,-4.41,-4.40
217.85,-1.59,2.82,-1.59,2.83,-2.83,-2.75,-1.90,-4.42,-4.42,-4.41
220.03,-1.68,2.75,-1.68,2.74,-2.75,-2.66,-1.86,-4.42,-4.42,-4.43
222.23,-1.77,2.66,-1.77,2.66,-2.65,-2.56,-1.83,-4.42,-4.42,-4.43
224.45,-1.86,2.56,-1.86,2.57,-2.56,-2.46,-1.79,-4.42,-4.42,-4.42
226.70,-1.96,2.47,-1.96,2.47,-2.46,-2.36,-1.76,-4.42,-4.42,-4.43
228.96,-2.05,2.37,-2.05,2.36,-2.36,-2.25,-1.73,-4.41,-4.42,-4.42
231.25,-2.16,2.25,-2.15,2.26,-2.26,-2.15,-1.70,-4.42,-4.41,-4.41
233.57,-2.25,2.15,-2.25,2.15,-2.16,-2.05,-1.66,-4.40,-4.41,-4.40
235.90,-2.35,2.04,-2.35,2.04,-2.05,-1.94,-1.63,-4.40,-4.39,-4.39
238.26,-2.44,1.95,-2.44,1.94,-1.94,-1.84,-1.60,-4.38,-4.38,-4.39
240.64,-2.54,1.82,-2.54,1.83,-1.83,-1.74,-1.57,-4.37,-4.36,-4.36
243.05,-2.63,1.72,-2.63,1.72,-1.71,-1.64,-1.54,-4.34,-4.35,-4.35
245.48,-2.73,1.60,-2.73,1.60,-1.60,-1.55,-1.50,-4.33,-4.33,-4.32
247.93,-2.82,1.49,-2.82,1.49,-1.49,-1.45,-1.47,-4.31,-4.31,-4.31
250.41,-2.91,1.38,-2.91,1.38,-1.38,-1.36,-1.44,-4.29,-4.28,-4.29
252.92,-2.99,1.27,-3.00,1.27,-1.27,-1.27,-1.40,-4.25,-4.26,-4.26
255.45,-3.09,1.14,-3.08,1.15,-1.15,-1.18,-1.37,-4.24,-4.24,-4.23
258.00,-3.17,1.04,-3.17,1.04,-1.05,-1.09,-1.34,-4.21,-4.21,-4.21
260.58,-3.25,0.94,-3.25,0.94,-0.94,-1.00,-1.30,-4.19,-4.19,-4.19
263.19,-3.33,0.84,-3.33,0.84,-0.83,-0.91,-1.27,-4.16,-4.16,-4.16
265.82,-3.41,0.73,-3.40,0.73,-0.73,-0.83,-1.23,-4.14,-4.13,-4.14
268.48,-3.48,0.63,-3.48,0.63,-0.63,-0.74,-1.20,-4.11,-4.11,-4.11
271.16,-3.55,0.53,-3.55,0.53,-0.53,-0.65,-1.16,-4.08,-4.08,-4.08
273.87,-3.63,0.43,-3.62,0.43,-0.43,-0.56,-1.13,-4.06,-4.06,-4.06
276.61,-3.69,0.33,-3.69,0.34,-0.34,-0.48,-1.09,-4.03,-4.03,-4.02
279.38,-3.75,0.26,-3.75,0.25,-0.26,-0.39,-1.06,-4.00,-4.01,-4.01
282.17,-3.81,0.17,-3.81,0.17,-0.17,-0.30,-1.02,-3.98,-3.98,-3.98
284.99,-3.86,0.09,-3.86,0.09,-0.09,-0.21,-0.98,-3.95,-3.95,-3.95
287.84,-3.91,0.02,-3.91,0.02,-0.02,-0.12,-0.94,-3.92,-3.92,-3.92
290.72,-3.95,-0.06,-3.95,-0.06,0.06,-0.03,-0.91,-3.89,-3.89,-3.89
293.63,-3.99,-0.12,-3.99,-0.13,0.13,0.07,-0.87,-3.86,-3.86,-3.87
296.57,-4.03,-0.20,-4.03,-0.19,0.20,0.16,-0.83,-3.83,-3.83,-3.83
299.53,-4.06,-0.25,-4.06,-0.26,0.26,0.25,-0.80,-3.80,-3.80,-3.80
302.53,-4.10,-0.32,-4.10,-0.33,0.33,0.34,-0.76,-3.77,-3.77,-3.78
305.55,-4.13,-0.40,-4.13,-0.39,0.39,0.42,-0.72,-3.74,-3.74,-3.73
308.61,-4.15,-0.45,-4.15,-0.45,0.45,0.51,-0.68,-3.70,-3.70,-3.70
311.69,-4.17,-0.51,-4.17,-0.51,0.50,0.58,-0.65,-3.67,-3.67,-3.66
314.81,-4.18,-0.55,-4.18,-0.55,0.55,0.66,-0.61,-3.62,-3.63,-3.62
317.96,-4.20,-0.60,-4.20,-0.60,0.60,0.72,-0.57,-3.59,-3.59,-3.60
321.14,-4.21,-0.64,-4.21,-0.65,0.65,0.78,-0.53,-3.56,-3.56,-3.57
324.35,-4.23,-0.69,-4.23,-0.69,0.69,0.83,-0.50,-3.54,-3.54,-3.54
327.59,-4.24,-0.74,-4.24,-0.73,0.73,0.87,-0.46,-3.51,-3.51,-3.50
330.87,-4.24,-0.76,-4.24,-0.77,0.76,0.90,-0.42,-3.48,-3.48,-3.47
334.18,-4.25,-0.79,-4.24,-0.79,0.80,0.91,-0.39,-3.45,-3.45,-3.46
337.52,-4.24,-0.81,-4.24,-0.81,0.83,0.92,-0.35,-3.41,-3.41,-3.43
340.90,-4.24,-0.84,-4.24,-0.84,0.85,0.92,-0.31,-3.39,-3.39,-3.40
344.30,-4.23,-0.85,-4.23,-0.86,0.86,0.90,-0.28,-3.36,-3.37,-3.38
347.75,-4.23,-0.88,-4.23,-0.88,0.87,0.88,-0.24,-3.36,-3.36,-3.35
351.23,-4.21,-0.88,-4.21,-0.88,0.86,0.85,-0.20,-3.35,-3.36,-3.33
354.74,-4.19,-0.88,-4.17,-0.86,0.83,0.82,-0.17,-3.36,-3.34,-3.31
358.28,-4.11,-0.81,-4.11,-0.82,0.80,0.78,-0.13,-3.31,-3.31,-3.29
361.87,-4.02,-0.74,-4.03,-0.75,0.75,0.73,-0.09,-3.27,-3.28,-3.28
365.49,-3.94,-0.69,-3.94,-0.68,0.69,0.69,-0.06,-3.25,-3.24,-3.25
369.14,-3.85,-0.61,-3.85,-0.61,0.63,0.64,-0.02,-3.22,-3.22,-3.24
372.83,-3.77,-0.55,-3.77,-0.55,0.56,0.59,0.02,-3.21,-3.21,-3.22
376.56,-3.68,-0.48,-3.68,-0.48,0.49,0.55,0.05,-3.19,-3.19,-3.20
380.33,-3.60,-0.43,-3.60,-0.43,0.43,0.50,0.09,-3.17,-3.17,-3.17
384.13,-3.52,-0.37,-3.52,-0.37,0.37,0.46,0.13,-3.15,-3.15,-3.15
387.97,-3.45,-0.32,-3.44,-0.31,0.31,0.42,0.16,-3.14,-3.13,-3.13
391.85,-3.37,-0.26,-3.37,-0.26,0.26,0.38,0.20,-3.11,-3.11,-3.11
395.77,-3.30,-0.21,-3.30,-0.21,0.21,0.34,0.23,-3.08,-3.08,-3.08
399.73,-3.23,-0.16,-3.23,-0.17,0.17,0.30,0.27,-3.06,-3.06,-3.06
403.72,-3.18,-0.13,-3.18,-0.13,0.13,0.27,0.30,-3.05,-3.04,-3.05
407.76,-3.12,-0.09,-3.12,-0.10,0.10,0.23,0.34,-3.02,-3.02,-3.03
411.84,-3.08,-0.08,-3.07,-0.07,0.07,0.20,0.37,-3.01,-3.00,-3.00
415.96,-3.02,-0.04,-3.02,-0.05,0.04,0.18,0.40,-2.97,-2.98,-2.98
420.12,-2.98,-0.02,-2.98,-0.02,0.02,0.15,0.44,-2.96,-2.96,-2.96
424.32,-2.94,-0.01,-2.94,-0.00,0.00,0.13,0.47,-2.94,-2.93,-2.93
428.56,-2.90,0.01,-2.90,0.01,-0.01,0.10,0.50,-2.91,-2.91,-2.91
432.85,-2.87,0.02,-2.87,0.02,-0.02,0.08,0.53,-2.89,-2.89,-2.89
437.18,-2.84,0.02,-2.83,0.03,-0.03,0.06,0.56,-2.86,-2.86,-2.86
441.55,-2.80,0.03,-2.80,0.03,-0.02,0.05,0.59,-2.82,-2.83,-2.83
445.96,-2.78,0.03,-2.78,0.03,-0.01,0.03,0.61,-2.79,-2.80,-2.81
450.42,-2.78,0.01,-2.78,0.01,0.00,0.01,0.64,-2.78,-2.77,-2.79
454.93,-2.78,-0.03,-2.78,-0.02,0.02,-0.00,0.66,-2.76,-2.76,-2.75
459.48,-2.78,-0.05,-2.78,-0.05,0.04,-0.01,0.68,-2.73,-2.73,-2.73
464.07,-2.78,-0.08,-2.78,-0.08,0.07,-0.03,0.70,-2.71,-2.71,-2.70
468.71,-2.77,-0.11,-2.77,-0.10,0.10,-0.04,0.71,-2.67,-2.68,-2.66
