frequency,raw,error,smoothed,error_smoothed,equalization,parametric_eq,fixed_band_eq,equalized_raw,equalized_smoothed,target
20.00,-0.11,-3.62,-0.11,-3.61,3.62,3.56,0.97,3.51,3.51,3.51
20.20,-0.07,-3.58,-0.08,-3.59,3.59,3.54,1.00,3.52,3.51,3.51
20.40,-0.05,-3.56,-0.05,-3.56,3.56,3.52,1.03,3.51,3.51,3.51
20.61,-0.02,-3.53,-0.02,-3.53,3.53,3.50,1.06,3.51,3.51,3.51
20.81,0.01,-3.50,0.01,-3.50,3.50,3.47,1.09,3.51,3.51,3.51
21.02,0.03,-3.48,0.03,-3.47,3.47,3.45,1.13,3.50,3.50,3.51
21.23,0.06,-3.43,0.06,-3.43,3.43,3.43,1.16,3.49,3.49,3.49
21.44,0.08,-3.40,0.08,-3.40,3.40,3.40,1.20,3.48,3.48,3.48
21.66,0.10,-3.36,0.10,-3.36,3.36,3.38,1.23,3.46,3.46,3.46
21.87,0.12,-3.32,0.12,-3.32,3.32,3.36,1.27,3.44,3.44,3.44
22.09,0.14,-3.29,0.14,-3.28,3.28,3.33,1.31,3.42,3.42,3.43
22.31,0.16,-3.24,0.16,-3.24,3.24,3.31,1.35,3.40,3.40,3.40
22.54,0.17,-3.21,0.18,-3.20,3.20,3.28,1.39,3.37,3.37,3.38
22.76,0.20,-3.16,0.19,-3.16,3.16,3.26,1.43,3.36,3.35,3.36
22.99,0.21,-3.12,0.21,-3.12,3.12,3.23,1.48,3.33,3.33,3.33
23.22,0.22,-3.08,0.22,-3.08,3.08,3.21,1.52,3.30,3.31,3.30
23.45,0.24,-3.04,0.24,-3.04,3.05,3.18,1.56,3.29,3.28,3.28
23.69,0.25,-3.02,0.25,-3.01,3.01,3.16,1.61,3.26,3.26,3.26
23.92,0.27,-2.97,0.27,-2.98,2.98,3.13,1.66,3.25,3.25,3.24
24.16,0.28,-2.95,0.28,-2.95,2.95,3.10,1.70,3.23,3.23,3.23
24.40,0.29,-2.92,0.29,-2.92,2.92,3.08,1.75,3.21,3.21,3.21
24.65,0.30,-2.89,0.30,-2.89,2.89,3.05,1.80,3.19,3.19,3.19
24.89,0.31,-2.86,0.31,-2.86,2.86,3.02,1.85,3.17,3.18,3.17
25.14,0.33,-2.83,0.33,-2.83,2.83,2.99,1.90,3.16,3.16,3.16
25.39,0.34,-2.80,0.34,-2.80,2.80,2.97,1.95,3.14,3.14,3.14
25.65,0.35,-2.78,0.35,-2.77,2.77,2.94,2.00,3.12,3.13,3.13
25.91,0.37,-2.73,0.37,-2.74,2.74,2.91,2.05,3.11,3.11,3.10
26.16,0.38,-2.71,0.38,-2.71,2.71,2.88,2.10,3.09,3.09,3.09
26.43,0.39,-2.69,0.39,-2.68,2.68,2.85,2.15,3.07,3.08,3.08
26.69,0.41,-2.65,0.41,-2.65,2.66,2.82,2.19,3.07,3.06,3.06
26.96,0.42,-2.63,0.42,-2.63,2.63,2.79,2.24,3.05,3.05,3.05
27.23,0.44,-2.60,0.44,-2.60,2.60,2.77,2.28,3.04,3.04,3.04
27.50,0.45,-2.58,0.45,-2.57,2.57,2.74,2.33,3.02,3.02,3.03
27.77,0.46,-2.55,0.46,-2.55,2.54,2.71,2.37,3.00,3.01,3.01
28.05,0.48,-2.52,0.48,-2.52,2.51,2.68,2.41,2.99,2.99,3.00
28.33,0.49,-2.48,0.49,-2.48,2.48,2.64,2.44,2.97,2.98,2.97
28.62,0.51,-2.45,0.51,-2.45,2.45,2.61,2.48,2.96,2.96,2.96
28.90,0.53,-2.42,0.53,-2.42,2.42,2.58,2.51,2.95,2.95,2.95
29.19,0.54,-2.39,0.55,-2.39,2.39,2.55,2.54,2.93,2.94,2.93
29.48,0.57,-2.36,0.57,-2.36,2.36,2.52,2.56,2.93,2.93,2.93
29.78,0.59,-2.33,0.59,-2.33,2.33,2.49,2.58,2.92,2.92,2.92
30.08,0.61,-2.30,0.61,-2.30,2.30,2.46,2.60,2.91,2.91,2.91
30.38,0.62,-2.27,0.63,-2.26,2.26,2.42,2.61,2.88,2.89,2.89
30.68,0.65,-2.23,0.65,-2.23,2.23,2.39,2.62,2.88,2.87,2.88
30.99,0.67,-2.19,0.67,-2.19,2.19,2.36,2.63,2.86,2.86,2.86
31.30,0.69,-2.15,0.69,-2.15,2.15,2.33,2.62,2.84,2.85,2.84
31.61,0.72,-2.11,0.72,-2.11,2.11,2.29,2.62,2.83,2.83,2.83
31.93,0.74,-2.07,0.74,-2.07,2.07,2.26,2.61,2.81,2.81,2.81
32.24,0.76,-2.02,0.76,-2.03,2.02,2.23,2.60,2.78,2.79,2.78
32.57,0.79,-1.98,0.79,-1.98,1.98,2.19,2.58,2.77,2.77,2.77
32.89,0.82,-1.94,0.82,-1.93,1.93,2.16,2.56,2.75,2.75,2.76
33.22,0.85,-1.88,0.85,-1.89,1.89,2.13,2.53,2.74,2.73,2.73
33.55,0.87,-1.84,0.87,-1.84,1.84,2.09,2.50,2.71,2.71,2.71
33.89,0.90,-1.79,0.90,-1.79,1.79,2.06,2.47,2.69,2.69,2.69
34.23,0.93,-1.74,0.93,-1.74,1.74,2.02,2.43,2.67,2.67,2.67
34.57,0.96,-1.69,0.96,-1.69,1.70,1.99,2.39,2.66,2.65,2.65
34.92,0.98,-1.65,0.98,-1.65,1.65,1.95,2.35,2.63,2.63,2.63
35.27,1.01,-1.61,1.01,-1.60,1.60,1.92,2.31,2.61,2.61,2.62
35.62,1.04,-1.55,1.04,-1.55,1.55,1.88,2.26,2.59,2.59,2.59
35.97,1.07,-1.50,1.07,-1.50,1.50,1.85,2.21,2.57,2.57,2.57
36.33,1.11,-1.45,1.10,-1.45,1.45,1.81,2.16,2.56,2.56,2.56
36.70,1.13,-1.41,1.13,-1.40,1.40,1.78,2.11,2.53,2.54,2.54
37.06,1.16,-1.35,1.16,-1.36,1.36,1.74,2.06,2.52,2.52,2.51
37.43,1.19,-1.31,1.19,-1.31,1.31,1.71,2.01,2.50,2.50,2.50
37.81,1.22,-1.26,1.22,-1.26,1.26,1.67,1.95,2.48,2.48,2.48
38.19,1.25,-1.21,1.25,-1.22,1.21,1.63,1.90,2.46,2.46,2.46
38.57,1.27,-1.17,1.27,-1.17,1.17,1.60,1.85,2.44,2.44,2.44
38.95,1.29,-1.13,1.30,-1.12,1.13,1.56,1.79,2.42,2.42,2.42
39.34,1.32,-1.08,1.32,-1.08,1.09,1.52,1.74,2.41,2.40,2.40
39.74,1.34,-1.04,1.34,-1.04,1.05,1.49,1.68,2.39,2.38,2.38
40.14,1.35,-1.02,1.36,-1.01,1.01,1.45,1.63,2.36,2.37,2.37
40.54,1.37,-0.98,1.37,-0.98,0.98,1.41,1.58,2.35,2.35,2.35
40.94,1.39,-0.94,1.39,-0.95,0.95,1.38,1.53,2.34,2.33,2.34
41.35,1.40,-0.91,1.40,-0.91,0.92,1.34,1.48,2.32,2.32,2.31
41.76,1.42,-0.89,1.42,-0.89,0.89,1.30,1.43,2.31,2.31,2.31
42.18,1.43,-0.86,1.43,-0.86,0.86,1.27,1.38,2.29,2.29,2.29
42.60,1.43,-0.84,1.43,-0.84,0.84,1.23,1.33,2.27,2.27,2.27
43.03,1.44,-0.83,1.44,-0.82,0.82,1.19,1.28,2.26,2.26,2.27
43.46,1.44,-0.80,1.44,-0.80,0.80,1.16,1.24,2.24,2.24,2.24
43.90,1.45,-0.77,1.45,-0.78,0.77,1.12,1.19,2.22,2.22,2.22
44.33,1.45,-0.75,1.45,-0.75,0.75,1.08,1.15,2.20,2.20,2.20
44.78,1.44,-0.75,1.45,-0.74,0.74,1.04,1.11,2.18,2.18,2.19
45.23,1.45,-0.71,1.45,-0.72,0.72,1.01,1.06,2.17,2.17,2.16
45.68,1.44,-0.71,1.44,-0.70,0.71,0.97,1.02,2.15,2.15,2.15
46.13,1.45,-0.68,1.45,-0.69,0.69,0.93,0.98,2.14,2.14,2.13
46.60,1.44,-0.69,1.44,-0.68,0.68,0.89,0.94,2.12,2.12,2.13
47.06,1.44,-0.67,1.44,-0.67,0.67,0.86,0.90,2.11,2.11,2.11
47.53,1.43,-0.66,1.43,-0.67,0.66,0.82,0.87,2.09,2.09,2.09
48.01,1.43,-0.66,1.43,-0.65,0.65,0.78,0.83,2.08,2.07,2.09
48.49,1.42,-0.64,1.42,-0.64,0.63,0.75,0.79,2.05,2.05,2.06
48.97,1.41,-0.62,1.41,-0.62,0.62,0.71,0.76,2.03,2.03,2.03
49.46,1.41,-0.60,1.41,-0.60,0.61,0.68,0.72,2.02,2.01,2.01
49.96,1.40,-0.58,1.40,-0.59,0.59,0.64,0.69,1.99,2.00,1.98
50.46,1.40,-0.58,1.40,-0.58,0.58,0.60,0.66,1.98,1.98,1.98
50.96,1.39,-0.57,1.39,-0.57,0.56,0.57,0.62,1.95,1.96,1.96
51.47,1.39,-0.55,1.39,-0.55,0.55,0.53,0.59,1.94,1.94,1.94
51.99,1.38,-0.54,1.38,-0.54,0.54,0.50,0.56,1.92,1.92,1.92
52.51,1.38,-0.53,1.38,-0.52,0.52,0.46,0.53,1.90,1.90,1.91
53.03,1.38,-0.51,1.38,-0.51,0.51,0.43,0.49,1.89,1.89,1.89
53.56,1.38,-0.49,1.38,-0.49,0.49,0.40,0.46,1.87,1.87,1.87
54.10,1.38,-0.47,1.38,-0.47,0.47,0.36,0.43,1.85,1.85,1.85
54.64,1.37,-0.46,1.37,-0.46,0.46,0.33,0.40,1.83,1.83,1.83
55.18,1.37,-0.44,1.37,-0.44,0.43,0.30,0.37,1.81,1.81,1.81
55.74,1.38,-0.41,1.38,-0.42,0.41,0.27,0.34,1.79,1.79,1.79
56.29,1.38,-0.40,1.38,-0.39,0.39,0.24,0.30,1.77,1.77,1.78
56.86,1.39,-0.37,1.39,-0.36,0.37,0.20,0.27,1.76,1.76,1.76
57.42,1.40,-0.33,1.40,-0.34,0.34,0.17,0.24,1.74,1.74,1.73
58.00,1.41,-0.31,1.41,-0.31,0.32,0.14,0.20,1.73,1.72,1.72
58.58,1.41,-0.29,1.42,-0.29,0.29,0.11,0.17,1.70,1.70,1.70
59.16,1.43,-0.26,1.43,-0.26,0.26,0.08,0.14,1.69,1.69,1.69
59.76,1.44,-0.23,1.44,-0.23,0.23,0.05,0.10,1.67,1.67,1.67
60.35,1.46,-0.19,1.46,-0.20,0.19,0.02,0.06,1.65,1.65,1.65
60.96,1.47,-0.17,1.47,-0.16,0.15,-0.01,0.03,1.62,1.63,1.64
61.57,1.49,-0.12,1.49,-0.12,0.11,-0.04,-0.01,1.60,1.61,1.61
62.18,1.52,-0.06,1.52,-0.07,0.07,-0.08,-0.05,1.59,1.59,1.58
62.80,1.54,-0.03,1.54,-0.02,0.03,-0.11,-0.09,1.57,1.57,1.57
63.43,1.57,0.03,1.57,0.02,-0.02,-0.15,-0.13,1.55,1.55,1.54
64.07,1.59,0.07,1.59,0.07,-0.07,-0.19,-0.18,1.52,1.53,1.52
64.71,1.63,0.11,1.63,0.11,-0.12,-0.24,-0.22,1.51,1.51,1.52
65.35,1.66,0.16,1.66,0.16,-0.17,-0.29,-0.27,1.49,1.50,1.50
66.01,1.70,0.21,1.70,0.22,-0.22,-0.34,-0.31,1.48,1.49,1.49
66.67,1.75,0.28,1.74,0.27,-0.27,-0.39,-0.36,1.48,1.47,1.47
67.33,1.79,0.33,1.79,0.33,-0.33,-0.45,-0.41,1.46,1.46,1.46
68.01,1.83,0.39,1.84,0.39,-0.39,-0.51,-0.46,1.44,1.44,1.44
68.69,1.89,0.46,1.88,0.46,-0.46,-0.57,-0.51,1.43,1.43,1.43
69.37,1.93,0.52,1.93,0.52,-0.52,-0.63,-0.56,1.41,1.41,1.41
70.07,1.99,0.59,1.99,0.59,-0.59,-0.70,-0.62,1.40,1.40,1.40
70.77,2.05,0.67,2.05,0.67,-0.67,-0.77,-0.67,1.38,1.38,1.38
71.48,2.11,0.75,2.11,0.74,-0.74,-0.84,-0.73,1.37,1.37,1.36
72.19,2.16,0.81,2.16,0.82,-0.82,-0.91,-0.79,1.34,1.35,1.35
72.91,2.22,0.90,2.22,0.89,-0.90,-0.98,-0.85,1.32,1.32,1.32
73.64,2.27,0.97,2.27,0.97,-0.97,-1.05,-0.91,1.30,1.30,1.30
74.38,2.33,1.05,2.33,1.06,-1.05,-1.12,-0.97,1.28,1.28,1.28
75.12,2.39,1.14,2.39,1.14,-1.13,-1.19,-1.03,1.26,1.26,1.25
75.87,2.45,1.22,2.45,1.21,-1.21,-1.26,-1.10,1.24,1.24,1.23
76.63,2.50,1.29,2.50,1.29,-1.29,-1.33,-1.16,1.21,1.21,1.21
77.40,2.55,1.36,2.55,1.37,-1.37,-1.40,-1.23,1.18,1.19,1.19
78.17,2.60,1.45,2.60,1.44,-1.44,-1.47,-1.30,1.16,1.16,1.15
78.95,2.65,1.51,2.65,1.52,-1.52,-1.54,-1.37,1.13,1.13,1.14
79.74,2.70,1.59,2.70,1.59,-1.60,-1.60,-1.44,1.10,1.10,1.11
80.54,2.74,1.66,2.75,1.67,-1.67,-1.67,-1.51,1.07,1.08,1.08
81.35,2.80,1.75,2.79,1.75,-1.75,-1.74,-1.59,1.05,1.05,1.05
82.16,2.84,1.82,2.84,1.82,-1.82,-1.81,-1.67,1.02,1.02,1.02
82.98,2.89,1.89,2.89,1.90,-1.89,-1.87,-1.74,1.00,0.99,1.00
83.81,2.93,1.98,2.93,1.97,-1.97,-1.94,-1.82,0.96,0.96,0.95
84.65,2.96,2.04,2.97,2.04,-2.04,-2.01,-1.90,0.92,0.93,0.92
85.50,3.00,2.10,3.00,2.11,-2.11,-2.07,-1.99,0.89,0.89,0.90
86.35,3.04,2.18,3.04,2.18,-2.18,-2.14,-2.07,0.86,0.86,0.86
87.22,3.07,2.24,3.07,2.24,-2.25,-2.20,-2.16,0.82,0.83,0.83
88.09,3.11,2.32,3.11,2.31,-2.31,-2.27,-2.25,0.80,0.80,0.79
88.97,3.14,2.37,3.14,2.38,-2.38,-2.33,-2.34,0.76,0.76,0.77
89.86,3.17,2.44,3.17,2.44,-2.44,-2.39,-2.43,0.73,0.73,0.73
90.76,3.20,2.51,3.20,2.51,-2.50,-2.46,-2.52,0.70,0.69,0.69
91.66,3.22,2.56,3.22,2.57,-2.57,-2.52,-2.62,0.65,0.66,0.66
92.58,3.25,2.64,3.25,2.63,-2.63,-2.58,-2.71,0.62,0.62,0.61
93.51,3.27,2.67,3.28,2.69,-2.69,-2.65,-2.81,0.58,0.59,0.60
94.44,3.31,2.75,3.30,2.75,-2.75,-2.71,-2.91,0.56,0.55,0.56
95.39,3.33,2.81,3.32,2.81,-2.81,-2.77,-3.01,0.52,0.52,0.52
96.34,3.34,2.87,3.35,2.87,-2.87,-2.83,-3.12,0.47,0.48,0.47
97.30,3.36,2.93,3.36,2.93,-2.93,-2.89,-3.22,0.43,0.43,0.43
98.28,3.39,3.00,3.38,2.99,-2.99,-2.95,-3.33,0.40,0.39,0.39
99.26,3.40,3.05,3.40,3.05,-3.05,-3.01,-3.43,0.35,0.35,0.35
100.25,3.42,3.11,3.42,3.11,-3.11,-3.07,-3.54,0.31,0.31,0.31
101.25,3.44,3.17,3.44,3.17,-3.17,-3.13,-3.65,0.27,0.26,0.27
102.27,3.45,3.23,3.45,3.24,-3.23,-3.19,-3.75,0.22,0.22,0.22
103.29,3.47,3.30,3.47,3.29,-3.29,-3.25,-3.86,0.18,0.18,0.17
104.32,3.48,3.35,3.48,3.35,-3.35,-3.30,-3.97,0.13,0.13,0.13
105.37,3.49,3.40,3.49,3.40,-3.41,-3.36,-4.08,0.08,0.09,0.09
106.42,3.50,3.46,3.50,3.46,-3.46,-3.42,-4.18,0.04,0.04,0.04
107.48,3.51,3.52,3.51,3.52,-3.52,-3.47,-4.29,-0.01,-0.01,-0.01
108.56,3.52,3.58,3.52,3.58,-3.58,-3.53,-4.39,-0.06,-0.06,-0.06
109.64,3.54,3.65,3.54,3.64,-3.64,-3.58,-4.49,-0.10,-0.10,-0.11
110.74,3.55,3.70,3.55,3.70,-3.70,-3.63,-4.59,-0.15,-0.15,-0.15
111.85,3.56,3.76,3.56,3.76,-3.77,-3.68,-4.68,-0.21,-0.21,-0.20
112.97,3.58,3.84,3.58,3.83,-3.84,-3.74,-4.77,-0.26,-0.26,-0.26
114.10,3.59,3.89,3.60,3.90,-3.90,-3.79,-4.85,-0.31,-0.31,-0.30
115.24,3.62,3.97,3.62,3.97,-3.97,-3.84,-4.93,-0.35,-0.35,-0.35
116.39,3.64,4.05,3.64,4.04,-4.04,-3.88,-5.01,-0.40,-0.40,-0.41
117.55,3.65,4.11,3.66,4.11,-4.10,-3.93,-5.07,-0.45,-0.45,-0.46
118.73,3.67,4.17,3.67,4.17,-4.17,-3.98,-5.13,-0.50,-0.50,-0.50
119.92,3.69,4.23,3.69,4.23,-4.23,-4.02,-5.18,-0.54,-0.54,-0.54
121.12,3.70,4.29,3.70,4.29,-4.29,-4.07,-5.23,-0.59,-0.59,-0.59
122.33,3.72,4.35,3.72,4.35,-4.35,-4.11,-5.27,-0.63,-0.63,-0.63
123.55,3.73,4.40,3.73,4.40,-4.40,-4.15,-5.30,-0.67,-0.67,-0.67
124.79,3.74,4.46,3.74,4.45,-4.46,-4.19,-5.32,-0.72,-0.72,-0.72
126.03,3.75,4.50,3.75,4.50,-4.51,-4.23,-5.34,-0.76,-0.76,-0.75
127.29,3.76,4.55,3.76,4.56,-4.56,-4.27,-5.34,-0.80,-0.80,-0.79
128.57,3.76,4.61,3.77,4.61,-4.61,-4.31,-5.34,-0.85,-0.84,-0.85
129.85,3.78,4.66,3.77,4.66,-4.65,-4.34,-5.32,-0.87,-0.88,-0.88
131.15,3.77,4.69,3.78,4.70,-4.69,-4.38,-5.31,-0.92,-0.91,-0.92
132.46,3.78,4.74,3.78,4.73,-4.73,-4.41,-5.28,-0.95,-0.95,-0.96
133.79,3.78,4.76,3.78,4.76,-4.76,-4.45,-5.25,-0.98,-0.99,-0.98
135.12,3.77,4.79,3.77,4.79,-4.79,-4.48,-5.21,-1.02,-1.02,-1.02
136.48,3.77,4.81,3.77,4.81,-4.81,-4.51,-5.17,-1.04,-1.05,-1.04
137.84,3.76,4.82,3.76,4.83,-4.83,-4.53,-5.12,-1.07,-1.07,-1.06
139.22,3.75,4.85,3.75,4.85,-4.84,-4.56,-5.06,-1.09,-1.09,-1.10
140.61,3.74,4.87,3.74,4.86,-4.85,-4.58,-5.01,-1.11,-1.11,-1.13
142.02,3.73,4.86,3.73,4.86,-4.86,-4.61,-4.95,-1.13,-1.13,-1.13
143.44,3.71,4.86,3.71,4.86,-4.86,-4.63,-4.88,-1.15,-1.15,-1.15
144.87,3.69,4.87,3.69,4.86,-4.87,-4.65,-4.82,-1.18,-1.17,-1.18
146.32,3.68,4.87,3.68,4.86,-4.87,-4.67,-4.75,-1.19,-1.19,-1.19
147.78,3.66,4.86,3.66,4.86,-4.86,-4.69,-4.68,-1.20,-1.20,-1.20
149.26,3.65,4.86,3.65,4.86,-4.87,-4.70,-4.61,-1.22,-1.22,-1.21
150.75,3.63,4.87,3.63,4.87,-4.87,-4.72,-4.54,-1.24,-1.24,-1.24
152.26,3.62,4.87,3.62,4.87,-4.88,-4.73,-4.47,-1.26,-1.26,-1.25
153.78,3.61,4.88,3.61,4.88,-4.88,-4.74,-4.40,-1.27,-1.27,-1.27
155.32,3.61,4.89,3.61,4.89,-4.90,-4.75,-4.34,-1.29,-1.29,-1.28
156.88,3.61,4.90,3.61,4.91,-4.91,-4.76,-4.27,-1.30,-1.30,-1.29
158.44,3.61,4.92,3.61,4.92,-4.92,-4.77,-4.20,-1.31,-1.31,-1.31
160.03,3.61,4.95,3.61,4.94,-4.94,-4.77,-4.14,-1.33,-1.33,-1.34
161.63,3.60,4.96,3.61,4.96,-4.95,-4.78,-4.08,-1.35,-1.35,-1.36
163.24,3.60,4.97,3.60,4.97,-4.96,-4.78,-4.02,-1.36,-1.36,-1.37
164.88,3.60,4.98,3.59,4.98,-4.97,-4.78,-3.96,-1.37,-1.38,-1.38
166.53,3.58,4.98,3.58,4.98,-4.98,-4.78,-3.91,-1.40,-1.40,-1.40
168.19,3.57,4.99,3.57,4.99,-4.98,-4.78,-3.86,-1.41,-1.42,-1.42
169.87,3.54,4.98,3.54,4.98,-4.98,-4.77,-3.81,-1.44,-1.44,-1.44
171.57,3.52,4.98,3.52,4.98,-4.98,-4.76,-3.76,-1.46,-1.47,-1.46
173.29,3.49,4.97,3.49,4.97,-4.98,-4.76,-3.72,-1.49,-1.49,-1.48
175.02,3.47,4.97,3.47,4.98,-4.98,-4.75,-3.68,-1.51,-1.51,-1.50
176.77,3.44,4.98,3.44,4.98,-4.97,-4.74,-3.64,-1.53,-1.53,-1.54
178.54,3.41,4.98,3.41,4.97,-4.97,-4.72,-3.61,-1.56,-1.56,-1.57
180.32,3.37,4.96,3.37,4.96,-4.96,-4.71,-3.58,-1.59,-1.59,-1.59
182.13,3.33,4.95,3.33,4.95,-4.95,-4.69,-3.55,-1.62,-1.62,-1.62
183.95,3.28,4.93,3.29,4.94,-4.94,-4.68,-3.52,-1.66,-1.65,-1.65
185.79,3.25,4.92,3.25,4.92,-4.92,-4.66,-3.50,-1.67,-1.68,-1.67
187.65,3.21,4.92,3.20,4.91,-4.90,-4.63,-3.48,-1.69,-1.70,-1.71
189.52,3.15,4.88,3.16,4.89,-4.88,-4.61,-3.46,-1.73,-1.72,-1.73
191.42,3.11,4.86,3.11,4.86,-4.86,-4.59,-3.44,-1.75,-1.75,-1.75
193.33,3.06,4.82,3.06,4.82,-4.83,-4.56,-3.43,-1.77,-1.77,-1.76
195.27,3.01,4.80,3.01,4.80,-4.80,-4.53,-3.42,-1.79,-1.79,-1.79
197.22,2.95,4.76,2.95,4.77,-4.77,-4.50,-3.41,-1.82,-1.81,-1.81
199.19,2.90,4.75,2.90,4.74,-4.73,-4.47,-3.40,-1.83,-1.83,-1.85
201.18,2.84,4.70,2.84,4.70,-4.69,-4.44,-3.40,-1.85,-1.85,-1.86
203.19,2.77,4.64,2.77,4.65,-4.65,-4.40,-3.39,-1.88,-1.87,-1.87
205.23,2.71,4.60,2.71,4.59,-4.60,-4.36,-3.39,-1.89,-1.89,-1.89
207.28,2.64,4.53,2.64,4.54,-4.55,-4.32,-3.39,-1.91,-1.90,-1.89
209.35,2.57,4.49,2.57,4.49,-4.49,-4.28,-3.39,-1.92,-1.91,-1.92
211.44,2.50,4.44,2.50,4.43,-4.42,-4.24,-3.39,-1.92,-1.93,-1.94
213.56,2.42,4.37,2.42,4.36,-4.36,-4.19,-3.39,-1.94,-1.94,-1.95
215.69,2.33,4.27,2.33,4.28,-4.28,-4.15,-3.39,-1.95,-1.95,-1.94
217.85,2.24,4.19,2.24,4.20,-4.20,-4.10,-3.39,-1.96,-1.96,-1.95
220.03,2.16,4.13,2.16,4.12,-4.12,-4.05,-3.39,-1.96,-1.96,-1.97
222.23,2.06,4.04,2.06,4.03,-4.03,-4.00,-3.39,-1.97,-1.97,-1.98
224.45,1.97,3.93,1.97,3.94,-3.93,-3.94,-3.39,-1.96,-1.96,-1.96
226.70,1.86,3.83,1.87,3.84,-3.83,-3.88,-3.38,-1.97,-1.96,-1.97
228.96,1.77,3.74,1.76,3.73,-3.72,-3.83,-3.38,-1.95,-1.96,-1.97
231.25,1.66,3.61,1.66,3.62,-3.62,-3.77,-3.37,-1.96,-1.95,-1.95
233.57,1.56,3.50,1.56,3.51,-3.51,-3.70,-3.36,-1.95,-1.95,-1.94
235.90,1.47,3.41,1.47,3.40,-3.41,-3.64,-3.35,-1.94,-1.94,-1.94
238.26,1.38,3.31,1.38,3.31,-3.31,-3.57,-3.33,-1.93,-1.93,-1.93
240.64,1.30,3.21,1.30,3.21,-3.22,-3.50,-3.31,-1.92,-1.92,-1.91
243.05,1.24,3.13,1.24,3.13,-3.14,-3.43,-3.29,-1.90,-1.90,-1.89
245.48,1.19,3.06,1.19,3.06,-3.07,-3.36,-3.27,-1.88,-1.88,-1.87
247.93,1.15,3.00,1.15,3.01,-3.02,-3.28,-3.24,-1.87,-1.86,-1.85
250.41,1.13,2.97,1.13,2.96,-2.97,-3.21,-3.20,-1.84,-1.84,-1.84
252.92,1.12,2.92,1.12,2.92,-2.93,-3.13,-3.16,-1.81,-1.81,-1.80
255.45,1.11,2.89,1.11,2.89,-2.89,-3.05,-3.12,-1.78,-1.78,-1.78
258.00,1.11,2.86,1.11,2.86,-2.86,-2.96,-3.08,-1.75,-1.75,-1.75
260.58,1.10,2.83,1.10,2.83,-2.82,-2.88,-3.03,-1.72,-1.72,-1.73
263.19,1.08,2.79,1.08,2.79,-2.78,-2.79,-2.98,-1.70,-1.69,-1.71
265.82,1.06,2.74,1.06,2.74,-2.73,-2.70,-2.92,-1.67,-1.67,-1.68
268.48,1.02,2.68,1.02,2.67,-2.66,-2.61,-2.86,-1.64,-1.64,-1.66
271.16,0.97,2.59,0.97,2.60,-2.59,-2.51,-2.80,-1.62,-1.62,-1.62
273.87,0.91,2.51,0.91,2.51,-2.51,-2.42,-2.73,-1.60,-1.60,-1.60
276.61,0.84,2.41,0.84,2.41,-2.42,-2.32,-2.66,-1.58,-1.58,-1.57
279.38,0.77,2.32,0.77,2.32,-2.32,-2.22,-2.59,-1.55,-1.55,-1.55
282.17,0.69,2.21,0.69,2.21,-2.21,-2.11,-2.52,-1.52,-1.52,-1.52
284.99,0.61,2.11,0.61,2.10,-2.10,-2.01,-2.44,-1.49,-1.50,-1.50
287.84,0.51,1.98,0.52,1.98,-1.98,-1.90,-2.36,-1.47,-1.47,-1.47
290.72,0.42,1.85,0.42,1.86,-1.86,-1.80,-2.28,-1.44,-1.44,-1.43
293.63,0.32,1.73,0.32,1.73,-1.73,-1.69,-2.20,-1.41,-1.41,-1.41
296.57,0.21,1.59,0.21,1.59,-1.59,-1.58,-2.12,-1.38,-1.37,-1.38
299.53,0.10,1.45,0.10,1.45,-1.44,-1.46,-2.04,-1.34,-1.34,-1.35
302.53,-0.02,1.30,-0.02,1.29,-1.29,-1.35,-1.96,-1.31,-1.31,-1.32
305.55,-0.15,1.12,-0.14,1.14,-1.13,-1.23,-1.87,-1.28,-1.28,-1.27
308.61,-0.27,0.98,-0.27,0.97,-0.97,-1.12,-1.79,-1.24,-1.24,-1.25
311.69,-0.40,0.81,-0.40,0.80,-0.80,-1.00,-1.71,-1.20,-1.20,-1.21
314.81,-0.54,0.63,-0.54,0.63,-0.63,-0.88,-1.62,-1.17,-1.17,-1.17
317.96,-0.68,0.46,-0.68,0.46,-0.45,-0.76,-1.54,-1.13,-1.13,-1.14
321.14,-0.82,0.29,-0.82,0.29,-0.28,-0.64,-1.46,-1.10,-1.10,-1.11
324.35,-0.96,0.12,-0.96,0.12,-0.12,-0.52,-1.37,-1.08,-1.08,-1.08
327.59,-1.09,-0.04,-1.09,-0.04,0.04,-0.40,-1.29,-1.05,-1.06,-1.05
330.87,-1.21,-0.19,-1.21,-0.19,0.18,-0.28,-1.20,-1.03,-1.03,-1.02
334.18,-1.32,-0.32,-1.31,-0.32,0.30,-0.16,-1.12,-1.02,-1.01,-1.00
337.52,-1.39,-0.42,-1.39,-0.42,0.41,-0.04,-1.04,-0.98,-0.99,-0.97
340.90,-1.45,-0.51,-1.45,-0.51,0.49,0.08,-0.96,-0.96,-0.96,-0.94
344.30,-1.50,-0.58,-1.49,-0.57,0.56,0.19,-0.88,-0.94,-0.93,-0.92
347.75,-1.51,-0.61,-1.51,-0.61,0.60,0.31,-0.80,-0.91,-0.91,-0.89
351.23,-1.51,-0.63,-1.52,-0.64,0.64,0.42,-0.71,-0.87,-0.88,-0.88
354.74,-1.51,-0.65,-1.51,-0.65,0.66,0.53,-0.63,-0.85,-0.85,-0.86
358.28,-1.51,-0.67,-1.51,-0.67,0.68,0.64,-0.55,-0.83,-0.83,-0.84
361.87,-1.50,-0.68,-1.50,-0.69,0.69,0.74,-0.48,-0.81,-0.81,-0.82
365.49,-1.50,-0.71,-1.50,-0.71,0.72,0.84,-0.40,-0.78,-0.79,-0.79
369.14,-1.51,-0.73,-1.51,-0.73,0.74,0.94,-0.32,-0.77,-0.77,-0.78
372.83,-1.53,-0.77,-1.53,-0.77,0.78,1.03,-0.24,-0.75,-0.75,-0.76
376.56,-1.55,-0.81,-1.55,-0.81,0.82,1.12,-0.16,-0.73,-0.73,-0.74
380.33,-1.59,-0.88,-1.59,-0.87,0.87,1.20,-0.09,-0.72,-0.72,-0.71
384.13,-1.62,-0.92,-1.62,-0.93,0.93,1.28,-0.01,-0.69,-0.70,-0.70
387.97,-1.67,-0.99,-1.66,-0.99,0.98,1.35,0.06,-0.69,-0.68,-0.68
391.85,-1.70,-1.04,-1.70,-1.05,1.05,1.42,0.14,-0.65,-0.66,-0.66
395.77,-1.74,-1.11,-1.74,-1.11,1.11,1.48,0.21,-0.63,-0.63,-0.63
399.73,-1.78,-1.17,-1.78,-1.17,1.17,1.53,0.29,-0.61,-0.61,-0.61
403.72,-1.82,-1.23,-1.82,-1.23,1.23,1.58,0.36,-0.59,-0.59,-0.59
407.76,-1.85,-1.28,-1.85,-1.29,1.28,1.62,0.43,-0.57,-0.57,-0.57
411.84,-1.89,-1.35,-1.88,-1.34,1.34,1.66,0.50,-0.55,-0.55,-0.54
415.96,-1.91,-1.39,-1.91,-1.39,1.39,1.68,0.57,-0.52,-0.52,-0.52
420.12,-1.93,-1.43,-1.93,-1.44,1.43,1.70,0.64,-0.50,-0.50,-0.50
424.32,-1.95,-1.48,-1.95,-1.47,1.48,1.72,0.71,-0.47,-0.47,-0.47
428.56,-1.97,-1.52,-1.97,-1.51,1.51,1.73,0.77,-0.46,-0.45,-0.45
432.85,-1.98,-1.55,-1.98,-1.55,1.55,1.73,0.84,-0.43,-0.43,-0.43
437.18,-1.98,-1.58,-1.98,-1.58,1.58,1.73,0.90,-0.40,-0.41,-0.40
441.55,-1.98,-1.61,-1.98,-1.60,1.60,1.72,0.96,-0.38,-0.38,-0.37
445.96,-1.98,-1.62,-1.98,-1.62,1.62,1.70,1.02,-0.36,-0.36,-0.36
450.42,-1.96,-1.62,-1.96,-1.63,1.64,1.68,1.07,-0.32,-0.33,-0.34
454.93,-1.95,-1.65,-1.95,-1.64,1.65,1.66,1.12,-0.30,-0.30,-0.30
459.48,-1.92,-1.64,-1.92,-1.65,1.65,1.63,1.17,-0.27,-0.27,-0.28
464.07,-1.90,-1.65,-1.90,-1.66,1.66,1.60,1.22,-0.24,-0.24,-0.25
468.71,-1.87,-1.66,-1.87,-1.65,1.65,1.56,1.27,-0.22,-0.22,-0.21
473.40,-1.83,-1.64,-1.83,-1.65,1.64,1.52,1.31,-0.19,-0.19,-0.19
478.13,-1.78,-1.62,-1.79,-1.63,1.63,1.48,1.34,-0.15,-0.16,-0.16
482.91,-1.74,-1.61,-1.74,-1.61,1.60,1.44,1.38,-0.14,-0.13,-0.13
487.74,-1.68,-1.58,-1.68,-1.58,1.58,1.39,1.41,-0.10,-0.10,-0.10
492.62,-1.61,-1.54,-1.61,-1.54,1.54,1.34,1.44,-0.07,-0.07,-0.07
497.55,-1.54,-1.49,-1.55,-1.50,1.50,1.29,1.46,-0.04,-0.04,-0.05
502.52,-1.48,-1.47,-1.47,-1.46,1.46,1.24,1.48,-0.02,-0.02,-0.01
507.55,-1.40,-1.41,-1.40,-1.41,1.41,1.19,1.49,0.01,0.01,0.01
