frequency,raw
20.00,4.80
20.20,4.82
20.40,4.84
20.61,4.86
20.81,4.88
21.02,4.90
21.23,4.90
21.44,4.90
21.66,4.90
21.87,4.90
22.09,4.90
22.31,4.90
22.54,4.90
22.76,4.90
22.99,4.90
23.22,4.93
23.45,4.97
23.69,5.00
23.92,5.04
24.16,5.06
24.40,5.07
24.65,5.08
24.89,5.09
25.14,5.10
25.39,5.10
25.65,5.10
25.91,5.10
26.16,5.10
26.43,5.10
26.69,5.10
26.96,5.10
27.23,5.10
27.50,5.10
27.77,5.10
28.05,5.10
28.33,5.10
28.62,5.10
28.90,5.10
29.19,5.10
29.48,5.10
29.78,5.10
30.08,5.10
30.38,5.08
30.68,5.07
30.99,5.06
31.30,5.10
31.61,5.15
31.93,5.19
32.24,5.20
32.57,5.20
32.89,5.20
33.22,5.20
33.55,5.20
33.89,5.20
34.23,5.20
34.57,5.20
34.92,5.20
35.27,5.20
35.62,5.20
35.97,5.20
36.33,5.25
36.70,5.30
37.06,5.34
37.43,5.32
37.81,5.31
38.19,5.29
38.57,5.28
38.95,5.27
39.34,5.28
39.74,5.30
40.14,5.29
40.54,5.25
40.94,5.21
41.35,5.20
41.76,5.20
42.18,5.20
42.60,5.20
43.03,5.20
43.46,5.20
43.90,5.20
44.33,5.20
44.78,5.20
45.23,5.20
45.68,5.20
46.13,5.20
46.60,5.20
47.06,5.20
47.53,5.20
48.01,5.20
48.49,5.20
48.97,5.19
49.46,5.13
49.96,5.08
50.46,5.08
50.96,5.09
51.47,5.05
51.99,5.00
52.51,5.00
53.03,5.00
53.56,4.92
54.10,4.86
54.64,4.89
55.18,4.90
55.74,4.90
56.29,4.90
56.86,4.90
57.42,4.90
58.00,4.90
58.58,4.90
59.16,4.89
59.76,4.87
60.35,4.91
60.96,4.99
61.57,5.00
62.18,5.00
62.80,5.00
63.43,5.00
64.07,5.00
64.71,5.00
65.35,5.00
66.01,5.00
66.67,5.00
67.33,5.00
68.01,5.00
68.69,5.00
69.37,5.00
70.07,5.00
70.77,5.00
71.48,5.00
72.19,5.00
72.91,5.00
73.64,5.00
74.38,5.03
75.12,5.08
75.87,5.13
76.63,5.11
77.40,5.08
78.17,5.07
78.95,5.13
79.74,5.18
80.54,5.20
81.35,5.20
82.16,5.20
82.98,5.20
83.81,5.20
84.65,5.20
85.50,5.20
86.35,5.20
87.22,5.20
88.09,5.20
88.97,5.20
89.86,5.20
90.76,5.20
91.66,5.21
92.58,5.23
93.51,5.15
94.44,5.03
95.39,4.99
96.34,5.00
97.30,4.99
98.28,4.99
99.26,4.97
100.25,4.96
101.25,4.95
102.27,4.92
103.29,4.85
104.32,4.79
105.37,4.77
106.42,4.74
107.48,4.72
108.56,4.69
109.64,4.67
110.74,4.65
111.85,4.64
112.97,4.63
114.10,4.58
115.24,4.51
116.39,4.45
117.55,4.42
118.73,4.39
119.92,4.33
121.12,4.34
122.33,4.34
123.55,4.30
124.79,4.25
126.03,4.18
127.29,4.18
128.57,4.15
129.85,4.09
131.15,4.03
132.46,4.01
133.79,4.00
135.12,3.99
136.48,3.93
137.84,3.87
139.22,3.89
140.61,3.92
142.02,3.83
143.44,3.80
144.87,3.81
146.32,3.80
147.78,3.79
149.26,3.94
150.75,4.03
152.26,4.01
153.78,4.06
155.32,4.17
156.88,4.25
158.44,4.30
160.03,4.29
161.63,4.19
163.24,4.09
164.88,3.93
166.53,3.81
168.19,3.70
169.87,3.55
171.57,3.44
173.29,3.41
175.02,3.46
176.77,3.51
178.54,3.60
180.32,3.73
182.13,3.78
183.95,3.78
185.79,3.89
187.65,3.92
189.52,3.93
191.42,3.94
193.33,3.96
195.27,3.97
197.22,3.97
199.19,3.89
201.18,3.82
203.19,3.75
205.23,3.69
207.28,3.63
209.35,3.56
211.44,3.52
213.56,3.50
215.69,3.46
217.85,3.32
220.03,3.30
222.23,3.25
224.45,3.20
226.70,3.08
228.96,2.93
231.25,2.83
233.57,2.75
235.90,2.67
238.26,2.58
240.64,2.47
243.05,2.39
245.48,2.32
247.93,2.24
250.41,2.18
252.92,2.08
255.45,2.06
258.00,2.04
260.58,2.02
263.19,2.03
265.82,2.07
268.48,1.99
271.16,2.04
273.87,2.08
276.61,2.06
279.38,2.15
282.17,2.18
284.99,2.15
287.84,2.13
290.72,2.31
293.63,2.39
296.57,2.43
299.53,2.49
302.53,2.60
305.55,2.76
308.61,2.82
311.69,2.86
314.81,2.92
317.96,2.96
321.14,2.97
324.35,2.97
327.59,2.97
330.87,2.97
334.18,2.96
337.52,2.96
340.90,2.96
344.30,2.96
347.75,2.96
351.23,2.96
354.74,2.95
358.28,2.89
361.87,2.83
365.49,2.79
369.14,2.71
372.83,2.65
376.56,2.62
380.33,2.59
384.13,2.53
387.97,2.50
391.85,2.40
395.77,2.32
399.73,2.25
403.72,2.18
407.76,2.13
411.84,2.04
415.96,1.94
420.12,1.83
424.32,1.73
428.56,1.70
432.85,1.66
437.18,1.62
441.55,1.60
445.96,1.56
450.42,1.57
454.93,1.56
459.48,1.54
464.07,1.55
468.71,1.55
473.40,1.59
478.13,1.65
482.91,1.69
487.74,1.66
492.62,1.67
497.55,1.63
502.52,1.62
507.55,1.56
512.62,1.54
517.75,1.57
522.93,1.56
528.16,1.47
533.44,1.37
538.77,1.31
544.16,1.28
549.60,1.15
555.10,1.04
560.65,0.93
566.25,0.80
571.92,0.70
577.64,0.54
583.41,0.46
589.25,0.39
595.14,0.33
601.09,0.20
607.10,0.15
613.17,0.15
619.30,0.06
625.50,-0.02
631.75,-0.05
638.07,-0.08
644.45,-0.13
650.89,-0.15
657.40,-0.17
663.98,-0.20
670.62,-0.28
677.32,-0.26
684.10,-0.26
690.94,-0.30
697.85,-0.34
704.83,-0.24
711.87,-0.20
718.99,-0.26
726.18,-0.38
733.44,-0.40
740.78,-0.40
748.19,-0.42
755.67,-0.45
763.23,-0.34
770.86,-0.47
778.57,-0.57
786.35,-0.52
794.22,-0.51
802.16,-0.51
810.18,-0.51
818.28,-0.50
826.46,-0.40
834.73,-0.39
843.08,-0.48
851.51,-0.34
860.02,-0.30
868.62,-0.31
877.31,-0.32
886.08,-0.25
894.94,-0.23
903.89,-0.16
912.93,-0.15
922.06,-0.15
931.28,-0.15
940.59,-0.15
950.00,-0.15
959.50,-0.22
969.09,-0.20
978.78,-0.07
988.57,-0.01
998.46,-0.00
1008.44,0.06
1018.53,0.10
1028.71,0.00
1039.00,-0.01
1049.39,0.03
1059.88,0.07
1070.48,0.13
1081.19,0.21
1092.00,0.18
1102.92,0.18
1113.95,0.22
1125.09,0.22
1136.34,0.24
1147.70,0.30
1159.18,0.33
1170.77,0.27
1182.48,0.26
1194.30,0.25
1206.25,0.30
1218.31,0.32
1230.49,0.31
1242.80,0.32
1255.22,0.32
1267.78,0.31
1280.45,0.39
1293.26,0.46
1306.19,0.48
1319.25,0.53
1332.45,0.56
1345.77,0.56
1359.23,0.62
1372.82,0.63
1386.55,0.62
1400.41,0.59
1414.42,0.57
1428.56,0.53
1442.85,0.54
1457.28,0.59
1471.85,0.58
1486.57,0.60
1501.43,0.67
1516.45,0.70
1531.61,0.67
1546.93,0.72
1562.40,0.78
1578.02,0.77
1593.80,0.81
1609.74,0.87
1625.84,0.94
1642.10,1.00
1658.52,1.06
1675.10,1.13
1691.85,1.20
1708.77,1.27
1725.86,1.28
1743.12,1.35
1760.55,1.37
1778.15,1.36
1795.94,1.34
1813.90,1.28
1832.03,1.23
1850.36,1.30
1868.86,1.41
1887.55,1.54
1906.42,1.59
1925.49,1.58
1944.74,1.46
1964.19,1.41
1983.83,1.36
2003.67,1.36
2023.71,1.37
2043.94,1.47
2064.38,1.60
2085.03,1.74
2105.88,1.79
2126.94,1.90
2148.20,2.06
2169.69,2.21
2191.38,2.32
2213.30,2.47
2235.43,2.67
2257.78,2.80
2280.36,2.88
2303.17,3.03
2326.20,3.21
2349.46,3.36
2372.95,3.47
2396.68,3.57
2420.65,3.66
2444.86,3.77
2469.31,3.85
2494.00,3.99
2518.94,4.12
2544.13,4.27
2569.57,4.44
2595.27,4.63
2621.22,4.91
2647.43,5.12
2673.90,5.29
2700.64,5.46
2727.65,5.68
2754.93,5.95
2782.48,6.16
2810.30,6.35
2838.40,6.52
2866.79,6.65
2895.46,6.81
2924.41,7.00
2953.65,7.22
2983.19,7.46
3013.02,7.64
3043.15,7.77
3073.58,7.91
3104.32,8.17
3135.36,8.39
3166.72,8.57
3198.38,8.75
3230.37,8.91
3262.67,8.94
3295.30,8.88
3328.25,8.85
3361.53,8.90
3395.15,9.01
3429.10,9.10
3463.39,9.06
3498.03,8.99
3533.01,8.92
3568.34,8.87
3604.02,8.71
3640.06,8.51
3676.46,8.23
3713.22,7.80
3750.36,7.43
3787.86,7.08
3825.74,6.65
3864.00,6.26
3902.64,5.81
3941.66,5.40
3981.08,5.09
4020.89,4.73
4061.10,4.26
4101.71,3.72
4142.73,3.16
4184.15,2.68
4226.00,2.14
4268.26,1.57
4310.94,1.14
4354.05,0.68
4397.59,0.15
4441.56,-0.17
4485.98,-0.46
4530.84,-0.84
4576.15,-1.13
4621.91,-1.55
4668.13,-2.25
4714.81,-2.87
4761.96,-3.60
4809.58,-4.20
4857.67,-4.65
4906.25,-4.74
4955.31,-4.63
5004.87,-4.66
5054.91,-4.58
5105.46,-4.50
5156.52,-4.50
5208.08,-4.57
5260.16,-4.50
5312.77,-4.14
5365.89,-3.61
5419.55,-3.40
5473.75,-3.37
5528.49,-3.32
5583.77,-3.21
5639.61,-2.99
5696.00,-3.02
5752.96,-3.42
5810.49,-3.76
5868.60,-3.97
5927.28,-4.14
5986.56,-4.36
6046.42,-4.90
6106.89,-5.42
6167.96,-6.06
6229.64,-6.48
6291.93,-6.71
6354.85,-6.77
6418.40,-6.80
6482.58,-6.80
6547.41,-6.88
6612.88,-7.09
6679.01,-7.13
6745.80,-7.16
6813.26,-6.77
6881.39,-6.54
6950.21,-6.21
7019.71,-5.89
7089.91,-5.86
7160.81,-5.78
7232.41,-5.81
7304.74,-6.08
7377.79,-6.30
7451.56,-6.71
7526.08,-7.08
7601.34,-6.61
7677.35,-5.95
7754.13,-5.72
7831.67,-5.68
7909.98,-5.51
7989.08,-4.81
8068.98,-4.07
8149.67,-3.69
8231.16,-3.15
8313.47,-4.32
8396.61,-5.44
8480.57,-5.95
8565.38,-6.58
8651.03,-5.90
8737.54,-4.66
8824.92,-4.21
8913.17,-4.82
9002.30,-6.19
9092.32,-6.97
9183.25,-7.81
9275.08,-8.60
9367.83,-9.23
9461.51,-9.93
9556.12,-10.50
9651.68,-11.16
9748.20,-11.67
9845.68,-13.08
9944.14,-13.63
10043.58,-11.51
10144.02,-10.19
10245.46,-10.70
10347.91,-11.59
10451.39,-11.73
10555.91,-11.38
10661.46,-11.58
10768.08,-12.64
10875.76,-12.24
10984.52,-10.43
11094.36,-8.65
11205.31,-7.15
11317.36,-6.90
11430.53,-8.25
11544.84,-9.68
11660.29,-10.47
11776.89,-10.52
11894.66,-9.19
12013.60,-9.24
12133.74,-8.80
12255.08,-6.25
12377.63,-5.38
12501.41,-5.83
12626.42,-7.84
12752.68,-10.20
12880.21,-11.71
13009.01,-13.02
13139.10,-12.00
13270.49,-11.92
13403.20,-12.24
13537.23,-12.74
13672.60,-12.12
13809.33,-11.49
13947.42,-10.27
14086.90,-9.78
14227.77,-10.69
14370.04,-12.27
14513.74,-12.40
14658.88,-12.02
14805.47,-11.29
14953.52,-9.89
15103.06,-8.26
15254.09,-7.46
15406.63,-7.43
15560.70,-7.56
15716.30,-7.73
15873.47,-9.05
16032.20,-10.49
16192.52,-11.33
16354.45,-12.00
16517.99,-12.43
16683.17,-12.92
16850.01,-13.23
17018.51,-13.51
17188.69,-13.60
17360.58,-13.67
17534.18,-13.86
17709.53,-13.86
17886.62,-13.30
18065.49,-12.60
18246.14,-11.71
18428.60,-10.85
18612.89,-10.29
18799.02,-10.03
18987.01,-10.11
19176.88,-10.44
19368.65,-10.96
19562.33,-11.59
19757.96,-13.06
19955.54,-13.96
