frequency,raw,smoothed,error,error_smoothed,equalization,parametric_eq,fixed_band_eq,equalized_raw,equalized_smoothed,target
20.00,-6.68,-6.68,-11.15,-11.15,6.00,5.22,2.72,-0.68,-0.68,4.47
20.20,-6.61,-6.61,-11.11,-11.11,6.00,5.27,2.80,-0.61,-0.61,4.50
20.40,-6.54,-6.54,-11.07,-11.07,6.00,5.31,2.87,-0.54,-0.54,4.53
20.61,-6.47,-6.47,-11.02,-11.03,6.00,5.35,2.96,-0.47,-0.47,4.55
20.81,-6.40,-6.40,-10.98,-10.98,6.00,5.40,3.04,-0.40,-0.40,4.58
21.02,-6.33,-6.33,-10.94,-10.93,6.00,5.45,3.13,-0.33,-0.33,4.61
21.23,-6.26,-6.26,-10.88,-10.88,6.00,5.49,3.22,-0.26,-0.26,4.62
21.44,-6.19,-6.19,-10.82,-10.82,6.00,5.54,3.31,-0.19,-0.19,4.63
21.66,-6.13,-6.13,-10.77,-10.76,6.00,5.58,3.41,-0.13,-0.13,4.64
21.87,-6.07,-6.07,-10.71,-10.72,6.00,5.63,3.51,-0.07,-0.07,4.64
22.09,-6.03,-6.03,-10.68,-10.68,6.00,5.67,3.61,-0.03,-0.03,4.65
22.31,-6.01,-6.01,-10.66,-10.66,6.00,5.72,3.71,-0.01,-0.01,4.65
22.54,-5.99,-6.00,-10.64,-10.64,6.00,5.76,3.82,0.01,0.00,4.65
22.76,-5.99,-5.99,-10.64,-10.63,6.00,5.80,3.93,0.01,0.01,4.65
22.99,-5.99,-5.99,-10.63,-10.63,6.00,5.85,4.04,0.01,0.01,4.64
23.22,-5.98,-5.98,-10.62,-10.62,6.00,5.89,4.16,0.02,0.02,4.64
23.45,-5.96,-5.96,-10.59,-10.59,6.00,5.93,4.27,0.04,0.04,4.63
23.69,-5.92,-5.92,-10.55,-10.55,6.00,5.98,4.39,0.08,0.08,4.63
23.92,-5.86,-5.85,-10.49,-10.49,6.00,6.02,4.51,0.14,0.15,4.63
24.16,-5.76,-5.76,-10.40,-10.40,6.00,6.06,4.64,0.24,0.24,4.64
24.40,-5.65,-5.65,-10.29,-10.29,6.00,6.10,4.76,0.35,0.35,4.64
24.65,-5.52,-5.52,-10.15,-10.15,6.00,6.13,4.89,0.48,0.48,4.63
24.89,-5.38,-5.38,-10.01,-10.01,6.00,6.17,5.02,0.62,0.62,4.63
25.14,-5.24,-5.24,-9.87,-9.87,6.00,6.20,5.15,0.76,0.76,4.63
25.39,-5.11,-5.11,-9.74,-9.74,6.00,6.24,5.29,0.89,0.89,4.63
25.65,-4.99,-4.99,-9.62,-9.61,6.00,6.27,5.42,1.01,1.01,4.63
25.91,-4.88,-4.88,-9.50,-9.50,6.00,6.30,5.55,1.12,1.12,4.62
26.16,-4.78,-4.78,-9.39,-9.39,6.00,6.32,5.69,1.22,1.22,4.61
26.43,-4.68,-4.69,-9.30,-9.30,6.00,6.35,5.82,1.32,1.31,4.61
26.69,-4.60,-4.60,-9.21,-9.21,6.00,6.37,5.95,1.40,1.40,4.61
26.96,-4.51,-4.51,-9.12,-9.12,6.00,6.39,6.08,1.49,1.49,4.61
27.23,-4.43,-4.43,-9.04,-9.04,6.00,6.41,6.20,1.57,1.57,4.61
27.50,-4.36,-4.36,-8.97,-8.96,6.00,6.42,6.32,1.64,1.64,4.61
27.77,-4.29,-4.29,-8.89,-8.89,6.00,6.43,6.44,1.71,1.71,4.60
28.05,-4.23,-4.24,-8.83,-8.83,6.00,6.44,6.55,1.77,1.76,4.60
28.33,-4.18,-4.18,-8.76,-8.77,6.00,6.44,6.66,1.82,1.82,4.58
28.62,-4.11,-4.11,-8.69,-8.69,6.00,6.44,6.76,1.89,1.89,4.58
28.90,-4.02,-4.02,-8.60,-8.60,6.00,6.44,6.84,1.98,1.98,4.58
29.19,-3.89,-3.89,-8.46,-8.47,6.00,6.43,6.92,2.11,2.11,4.57
29.48,-3.74,-3.73,-8.32,-8.30,6.00,6.42,6.99,2.26,2.27,4.58
29.78,-3.53,-3.54,-8.10,-8.11,6.00,6.41,7.05,2.47,2.46,4.57
30.08,-3.33,-3.33,-7.90,-7.89,6.00,6.39,7.09,2.67,2.67,4.56
30.38,-3.12,-3.12,-7.68,-7.67,6.00,6.37,7.13,2.88,2.88,4.55
30.68,-2.92,-2.93,-7.47,-7.48,6.00,6.34,7.14,3.08,3.07,4.55
30.99,-2.77,-2.77,-7.31,-7.31,6.00,6.31,7.15,3.23,3.23,4.54
31.30,-2.65,-2.65,-7.19,-7.19,6.00,6.27,7.14,3.35,3.35,4.54
31.61,-2.56,-2.57,-7.09,-7.10,6.00,6.23,7.12,3.44,3.43,4.53
31.93,-2.51,-2.51,-7.03,-7.03,6.00,6.19,7.08,3.49,3.49,4.52
32.24,-2.49,-2.49,-7.00,-7.00,6.00,6.14,7.03,3.51,3.51,4.51
32.57,-2.47,-2.47,-6.98,-6.98,6.00,6.09,6.97,3.53,3.53,4.51
32.89,-2.46,-2.46,-6.96,-6.96,6.00,6.03,6.89,3.54,3.54,4.50
33.22,-2.43,-2.43,-6.92,-6.93,6.00,5.97,6.80,3.57,3.57,4.49
33.55,-2.40,-2.39,-6.89,-6.88,6.01,5.91,6.70,3.61,3.61,4.49
33.89,-2.32,-2.32,-6.80,-6.80,6.02,5.84,6.59,3.70,3.70,4.47
34.23,-2.22,-2.22,-6.69,-6.69,6.02,5.76,6.47,3.80,3.80,4.47
34.57,-2.10,-2.10,-6.56,-6.55,6.02,5.68,6.34,3.92,3.93,4.46
34.92,-1.95,-1.96,-6.40,-6.41,6.01,5.60,6.21,4.06,4.05,4.45
35.27,-1.80,-1.80,-6.24,-6.24,5.98,5.52,6.06,4.18,4.18,4.44
35.62,-1.65,-1.65,-6.08,-6.08,5.93,5.43,5.91,4.28,4.28,4.43
35.97,-1.50,-1.51,-5.91,-5.93,5.87,5.34,5.76,4.37,4.36,4.41
36.33,-1.38,-1.38,-5.79,-5.78,5.78,5.25,5.60,4.40,4.41,4.41
36.70,-1.26,-1.26,-5.66,-5.66,5.68,5.15,5.44,4.42,4.42,4.40
37.06,-1.15,-1.15,-5.53,-5.54,5.57,5.05,5.28,4.42,4.42,4.38
37.43,-1.04,-1.04,-5.42,-5.42,5.44,4.95,5.12,4.40,4.40,4.38
37.81,-0.93,-0.93,-5.30,-5.30,5.30,4.84,4.95,4.37,4.37,4.36
38.19,-0.82,-0.82,-5.17,-5.17,5.16,4.73,4.78,4.34,4.34,4.35
38.57,-0.69,-0.69,-5.04,-5.03,5.02,4.63,4.62,4.33,4.33,4.35
38.95,-0.56,-0.56,-4.89,-4.89,4.89,4.51,4.45,4.33,4.33,4.33
39.34,-0.42,-0.42,-4.73,-4.74,4.75,4.40,4.28,4.33,4.33,4.32
39.74,-0.29,-0.29,-4.59,-4.59,4.61,4.29,4.12,4.32,4.32,4.30
40.14,-0.16,-0.16,-4.46,-4.46,4.47,4.17,3.96,4.30,4.30,4.29
40.54,-0.04,-0.04,-4.32,-4.32,4.32,4.05,3.79,4.28,4.28,4.28
40.94,0.09,0.09,-4.18,-4.18,4.17,3.93,3.63,4.26,4.26,4.27
41.35,0.23,0.23,-4.03,-4.03,4.01,3.81,3.47,4.24,4.25,4.26
41.76,0.38,0.38,-3.87,-3.87,3.86,3.69,3.31,4.24,4.24,4.25
42.18,0.53,0.53,-3.71,-3.71,3.70,3.57,3.16,4.23,4.23,4.24
42.60,0.69,0.69,-3.54,-3.54,3.53,3.45,3.00,4.23,4.23,4.23
43.03,0.85,0.84,-3.37,-3.37,3.37,3.33,2.85,4.22,4.22,4.22
43.46,0.99,0.99,-3.21,-3.21,3.22,3.21,2.70,4.21,4.21,4.20
43.90,1.12,1.12,-3.06,-3.06,3.07,3.08,2.55,4.19,4.19,4.18
44.33,1.24,1.24,-2.92,-2.92,2.94,2.96,2.40,4.18,4.18,4.16
44.78,1.34,1.34,-2.80,-2.80,2.82,2.84,2.25,4.16,4.16,4.14
45.23,1.42,1.42,-2.70,-2.70,2.72,2.72,2.11,4.14,4.14,4.12
45.68,1.48,1.48,-2.62,-2.62,2.64,2.59,1.97,4.12,4.12,4.10
46.13,1.53,1.53,-2.55,-2.56,2.57,2.47,1.83,4.10,4.10,4.08
46.60,1.57,1.57,-2.51,-2.50,2.50,2.35,1.69,4.07,4.07,4.08
47.06,1.60,1.60,-2.46,-2.46,2.44,2.23,1.55,4.04,4.04,4.06
47.53,1.64,1.64,-2.40,-2.40,2.37,2.11,1.42,4.01,4.01,4.04
48.01,1.69,1.69,-2.34,-2.33,2.30,1.99,1.28,3.99,3.99,4.03
48.49,1.76,1.76,-2.24,-2.23,2.22,1.87,1.15,3.98,3.98,3.99
48.97,1.84,1.84,-2.12,-2.13,2.13,1.75,1.02,3.97,3.96,3.96
49.46,1.92,1.92,-2.01,-2.01,2.03,1.63,0.89,3.95,3.95,3.93
49.96,2.00,2.00,-1.90,-1.91,1.92,1.51,0.76,3.92,3.92,3.90
50.46,2.09,2.08,-1.80,-1.80,1.81,1.40,0.64,3.90,3.89,3.89
50.96,2.17,2.17,-1.70,-1.69,1.69,1.28,0.52,3.86,3.87,3.87
51.47,2.26,2.26,-1.57,-1.58,1.57,1.17,0.39,3.83,3.83,3.83
51.99,2.36,2.36,-1.45,-1.46,1.45,1.05,0.28,3.81,3.81,3.81
52.51,2.46,2.46,-1.34,-1.33,1.32,0.94,0.16,3.78,3.78,3.80
53.03,2.58,2.58,-1.19,-1.19,1.18,0.83,0.04,3.76,3.76,3.77
53.56,2.70,2.70,-1.05,-1.05,1.03,0.72,-0.07,3.73,3.73,3.75
54.10,2.83,2.83,-0.89,-0.89,0.88,0.61,-0.18,3.71,3.71,3.72
54.64,2.97,2.97,-0.73,-0.73,0.72,0.50,-0.29,3.69,3.69,3.69
55.18,3.10,3.10,-0.57,-0.57,0.57,0.40,-0.39,3.67,3.67,3.67
55.74,3.23,3.23,-0.41,-0.41,0.42,0.29,-0.49,3.65,3.65,3.64
56.29,3.35,3.35,-0.27,-0.27,0.28,0.19,-0.59,3.63,3.63,3.62
56.86,3.47,3.46,-0.13,-0.13,0.15,0.08,-0.69,3.62,3.61,3.60
57.42,3.55,3.55,-0.02,-0.02,0.04,-0.02,-0.78,3.59,3.60,3.57
58.00,3.63,3.62,0.08,0.08,-0.05,-0.12,-0.87,3.58,3.57,3.55
58.58,3.67,3.67,0.14,0.14,-0.13,-0.22,-0.95,3.54,3.54,3.53
59.16,3.71,3.71,0.20,0.20,-0.20,-0.31,-1.03,3.51,3.51,3.51
59.76,3.74,3.74,0.25,0.25,-0.26,-0.41,-1.11,3.48,3.48,3.49
60.35,3.77,3.77,0.32,0.31,-0.32,-0.51,-1.18,3.45,3.45,3.45
60.96,3.80,3.80,0.37,0.37,-0.38,-0.60,-1.25,3.41,3.42,3.43
61.57,3.84,3.84,0.45,0.45,-0.46,-0.69,-1.32,3.38,3.38,3.39
62.18,3.89,3.89,0.53,0.53,-0.54,-0.78,-1.38,3.35,3.35,3.35
62.80,3.96,3.96,0.63,0.63,-0.64,-0.87,-1.43,3.32,3.32,3.33
63.43,4.05,4.05,0.75,0.75,-0.76,-0.96,-1.48,3.29,3.29,3.29
64.07,4.15,4.15,0.88,0.88,-0.90,-1.05,-1.53,3.25,3.26,3.27
64.71,4.28,4.28,1.04,1.04,-1.05,-1.14,-1.58,3.23,3.23,3.24
65.35,4.42,4.42,1.21,1.20,-1.21,-1.22,-1.62,3.21,3.21,3.22
66.01,4.57,4.57,1.38,1.38,-1.38,-1.30,-1.65,3.18,3.19,3.19
66.67,4.73,4.73,1.57,1.57,-1.57,-1.39,-1.69,3.16,3.16,3.16
67.33,4.89,4.89,1.76,1.76,-1.76,-1.47,-1.72,3.13,3.13,3.13
68.01,5.05,5.05,1.95,1.95,-1.95,-1.55,-1.75,3.10,3.10,3.10
68.69,5.21,5.21,2.14,2.14,-2.14,-1.62,-1.77,3.07,3.07,3.07
69.37,5.36,5.36,2.33,2.33,-2.33,-1.70,-1.79,3.03,3.04,3.03
70.07,5.52,5.52,2.52,2.51,-2.51,-1.78,-1.81,3.01,3.01,3.00
70.77,5.66,5.66,2.68,2.69,-2.69,-1.85,-1.83,2.97,2.97,2.98
71.48,5.80,5.80,2.86,2.86,-2.85,-1.92,-1.85,2.94,2.95,2.94
72.19,5.93,5.93,3.02,3.02,-3.01,-1.99,-1.87,2.91,2.91,2.91
72.91,6.05,6.05,3.18,3.17,-3.16,-2.06,-1.88,2.88,2.88,2.87
73.64,6.15,6.15,3.31,3.31,-3.31,-2.13,-1.90,2.84,2.84,2.84
74.38,6.24,6.24,3.43,3.44,-3.44,-2.20,-1.91,2.80,2.81,2.81
75.12,6.33,6.33,3.56,3.56,-3.56,-2.26,-1.92,2.77,2.77,2.77
75.87,6.41,6.41,3.67,3.67,-3.67,-2.33,-1.94,2.74,2.74,2.74
76.63,6.48,6.48,3.77,3.77,-3.78,-2.39,-1.95,2.70,2.70,2.71
77.40,6.55,6.55,3.87,3.87,-3.88,-2.45,-1.97,2.67,2.67,2.68
78.17,6.60,6.61,3.96,3.96,-3.96,-2.51,-1.98,2.63,2.64,2.64
78.95,6.66,6.66,4.05,4.05,-4.05,-2.57,-2.00,2.61,2.61,2.61
79.74,6.70,6.70,4.12,4.12,-4.12,-2.63,-2.01,2.58,2.58,2.58
80.54,6.73,6.73,4.18,4.18,-4.18,-2.69,-2.03,2.55,2.55,2.55
81.35,6.75,6.75,4.24,4.23,-4.23,-2.74,-2.05,2.52,2.51,2.51
82.16,6.75,6.75,4.27,4.27,-4.27,-2.79,-2.07,2.48,2.48,2.48
82.98,6.74,6.74,4.29,4.30,-4.30,-2.85,-2.09,2.44,2.44,2.45
83.81,6.72,6.72,4.32,4.31,-4.31,-2.90,-2.12,2.41,2.41,2.40
84.65,6.68,6.68,4.31,4.31,-4.31,-2.95,-2.14,2.37,2.37,2.37
85.50,6.63,6.63,4.29,4.30,-4.29,-2.99,-2.17,2.34,2.33,2.34
86.35,6.56,6.56,4.26,4.26,-4.26,-3.04,-2.20,2.30,2.30,2.30
87.22,6.48,6.48,4.22,4.22,-4.22,-3.08,-2.23,2.26,2.26,2.26
88.09,6.39,6.39,4.17,4.17,-4.16,-3.13,-2.26,2.23,2.23,2.22
88.97,6.28,6.28,4.09,4.10,-4.09,-3.17,-2.29,2.19,2.19,2.19
89.86,6.15,6.15,4.00,4.01,-4.00,-3.21,-2.33,2.15,2.15,2.14
90.76,6.01,6.01,3.92,3.91,-3.90,-3.25,-2.37,2.11,2.11,2.09
91.66,5.86,5.86,3.80,3.80,-3.79,-3.29,-2.40,2.07,2.06,2.06
92.58,5.70,5.70,3.69,3.69,-3.68,-3.32,-2.45,2.02,2.02,2.01
93.51,5.54,5.54,3.57,3.57,-3.58,-3.36,-2.49,1.96,1.97,1.97
94.44,5.39,5.39,3.46,3.46,-3.47,-3.39,-2.53,1.91,1.91,1.93
95.39,5.25,5.25,3.37,3.37,-3.38,-3.42,-2.58,1.87,1.86,1.88
96.34,5.12,5.12,3.29,3.29,-3.31,-3.45,-2.63,1.81,1.82,1.83
97.30,5.02,5.02,3.23,3.24,-3.25,-3.47,-2.68,1.77,1.77,1.78
98.28,4.94,4.94,3.20,3.20,-3.21,-3.50,-2.73,1.73,1.73,1.74
99.26,4.87,4.87,3.18,3.17,-3.18,-3.52,-2.78,1.69,1.69,1.69
100.25,4.81,4.81,3.16,3.16,-3.17,-3.54,-2.84,1.64,1.64,1.65
101.25,4.77,4.77,3.17,3.17,-3.17,-3.56,-2.89,1.60,1.60,1.60
102.27,4.74,4.74,3.18,3.18,-3.18,-3.58,-2.95,1.56,1.56,1.56
103.29,4.71,4.71,3.21,3.20,-3.19,-3.60,-3.00,1.52,1.51,1.50
104.32,4.67,4.67,3.21,3.21,-3.21,-3.61,-3.06,1.46,1.47,1.46
105.37,4.64,4.64,3.22,3.22,-3.22,-3.62,-3.12,1.42,1.42,1.42
106.42,4.60,4.60,3.23,3.23,-3.22,-3.63,-3.17,1.38,1.38,1.37
107.48,4.56,4.56,3.23,3.23,-3.22,-3.64,-3.23,1.34,1.33,1.32
108.56,4.50,4.50,3.23,3.23,-3.22,-3.64,-3.28,1.28,1.28,1.27
109.64,4.44,4.44,3.22,3.21,-3.21,-3.64,-3.34,1.23,1.23,1.22
110.74,4.37,4.37,3.19,3.19,-3.20,-3.64,-3.39,1.17,1.17,1.18
111.85,4.30,4.30,3.17,3.18,-3.19,-3.64,-3.45,1.11,1.11,1.13
112.97,4.23,4.23,3.16,3.16,-3.17,-3.63,-3.49,1.06,1.06,1.07
114.10,4.17,4.17,3.15,3.15,-3.15,-3.62,-3.54,1.01,1.01,1.02
115.24,4.11,4.11,3.14,3.14,-3.14,-3.61,-3.59,0.97,0.97,0.97
116.39,4.04,4.04,3.13,3.13,-3.12,-3.59,-3.63,0.92,0.92,0.91
117.55,3.97,3.97,3.11,3.11,-3.11,-3.57,-3.67,0.86,0.86,0.86
118.73,3.90,3.90,3.10,3.10,-3.10,-3.55,-3.71,0.80,0.81,0.80
119.92,3.84,3.84,3.08,3.08,-3.08,-3.52,-3.74,0.76,0.75,0.76
121.12,3.77,3.77,3.06,3.07,-3.07,-3.50,-3.77,0.70,0.70,0.71
122.33,3.71,3.71,3.06,3.05,-3.05,-3.46,-3.80,0.66,0.66,0.65
123.55,3.65,3.65,3.04,3.04,-3.04,-3.43,-3.82,0.61,0.61,0.61
124.79,3.59,3.59,3.03,3.03,-3.03,-3.39,-3.83,0.56,0.56,0.56
126.03,3.53,3.53,3.02,3.02,-3.02,-3.35,-3.85,0.51,0.51,0.51
127.29,3.47,3.47,3.01,3.01,-3.01,-3.31,-3.86,0.46,0.46,0.46
128.57,3.41,3.41,3.01,3.00,-3.01,-3.26,-3.86,0.40,0.40,0.40
129.85,3.35,3.35,3.00,3.00,-3.00,-3.21,-3.86,0.35,0.35,0.35
131.15,3.30,3.30,2.99,2.99,-2.99,-3.16,-3.86,0.31,0.31,0.30
132.46,3.25,3.25,2.99,2.99,-2.99,-3.11,-3.86,0.26,0.26,0.26
133.79,3.20,3.20,2.98,2.98,-2.98,-3.06,-3.85,0.22,0.22,0.22
135.12,3.14,3.14,2.97,2.97,-2.97,-3.00,-3.84,0.17,0.17,0.16
136.48,3.09,3.09,2.96,2.96,-2.97,-2.95,-3.82,0.12,0.12,0.13
137.84,3.04,3.04,2.95,2.96,-2.96,-2.90,-3.81,0.08,0.08,0.09
139.22,2.99,2.99,2.96,2.95,-2.95,-2.85,-3.79,0.04,0.04,0.03
140.61,2.94,2.94,2.95,2.95,-2.94,-2.81,-3.77,-0.00,-0.00,-0.01
142.02,2.90,2.90,2.93,2.94,-2.94,-2.77,-3.74,-0.04,-0.04,-0.03
143.44,2.85,2.85,2.92,2.93,-2.93,-2.74,-3.72,-0.08,-0.08,-0.07
144.87,2.81,2.81,2.92,2.92,-2.93,-2.71,-3.70,-0.12,-0.12,-0.11
146.32,2.77,2.77,2.92,2.92,-2.93,-2.69,-3.67,-0.16,-0.15,-0.15
147.78,2.74,2.74,2.92,2.92,-2.92,-2.68,-3.65,-0.18,-0.18,-0.18
149.26,2.70,2.70,2.92,2.92,-2.91,-2.68,-3.63,-0.21,-0.22,-0.22
150.75,2.65,2.65,2.92,2.91,-2.90,-2.68,-3.60,-0.25,-0.25,-0.27
152.26,2.60,2.60,2.90,2.90,-2.89,-2.70,-3.58,-0.29,-0.29,-0.30
153.78,2.55,2.54,2.89,2.89,-2.88,-2.72,-3.56,-0.34,-0.34,-0.34
155.32,2.49,2.49,2.87,2.87,-2.88,-2.75,-3.54,-0.39,-0.38,-0.38
156.88,2.44,2.44,2.86,2.86,-2.87,-2.79,-3.52,-0.43,-0.43,-0.42
158.44,2.40,2.40,2.86,2.86,-2.87,-2.83,-3.51,-0.47,-0.47,-0.46
160.03,2.36,2.36,2.86,2.87,-2.87,-2.88,-3.49,-0.51,-0.51,-0.50
161.63,2.34,2.34,2.88,2.88,-2.88,-2.94,-3.48,-0.54,-0.55,-0.55
163.24,2.32,2.32,2.91,2.90,-2.90,-2.99,-3.47,-0.58,-0.58,-0.59
164.88,2.30,2.30,2.92,2.92,-2.93,-3.05,-3.46,-0.63,-0.62,-0.62
166.53,2.30,2.30,2.95,2.95,-2.96,-3.11,-3.46,-0.66,-0.66,-0.65
168.19,2.30,2.30,2.99,2.99,-2.99,-3.17,-3.46,-0.69,-0.69,-0.69
169.87,2.30,2.30,3.03,3.03,-3.03,-3.23,-3.46,-0.73,-0.73,-0.73
171.57,2.31,2.31,3.08,3.07,-3.07,-3.29,-3.46,-0.76,-0.76,-0.77
173.29,2.31,2.31,3.11,3.11,-3.11,-3.35,-3.46,-0.80,-0.80,-0.80
175.02,2.31,2.31,3.15,3.15,-3.15,-3.41,-3.47,-0.84,-0.84,-0.84
176.77,2.31,2.31,3.19,3.19,-3.19,-3.46,-3.48,-0.88,-0.88,-0.88
178.54,2.31,2.31,3.24,3.23,-3.23,-3.51,-3.50,-0.92,-0.92,-0.93
180.32,2.31,2.31,3.27,3.27,-3.27,-3.56,-3.51,-0.96,-0.96,-0.96
182.13,2.31,2.31,3.30,3.31,-3.31,-3.61,-3.53,-1.00,-1.00,-0.99
183.95,2.32,2.32,3.36,3.35,-3.36,-3.65,-3.55,-1.04,-1.04,-1.04
185.79,2.33,2.33,3.40,3.40,-3.41,-3.69,-3.58,-1.08,-1.08,-1.07
187.65,2.35,2.35,3.46,3.46,-3.46,-3.73,-3.60,-1.11,-1.11,-1.11
189.52,2.38,2.38,3.52,3.52,-3.52,-3.77,-3.63,-1.14,-1.14,-1.14
191.42,2.41,2.41,3.58,3.58,-3.58,-3.80,-3.66,-1.17,-1.17,-1.17
193.33,2.45,2.45,3.65,3.65,-3.65,-3.83,-3.70,-1.20,-1.20,-1.20
195.27,2.49,2.49,3.71,3.71,-3.71,-3.86,-3.73,-1.22,-1.23,-1.22
197.22,2.53,2.53,3.78,3.78,-3.78,-3.89,-3.77,-1.25,-1.25,-1.25
199.19,2.56,2.56,3.85,3.85,-3.84,-3.91,-3.81,-1.28,-1.28,-1.29
201.18,2.60,2.59,3.91,3.90,-3.89,-3.93,-3.85,-1.30,-1.30,-1.31
203.19,2.62,2.62,3.94,3.95,-3.94,-3.95,-3.89,-1.33,-1.32,-1.32
205.23,2.65,2.65,4.00,3.99,-3.99,-3.97,-3.94,-1.34,-1.34,-1.35
207.28,2.67,2.67,4.02,4.03,-4.03,-3.98,-3.98,-1.36,-1.36,-1.35
209.35,2.68,2.68,4.06,4.06,-4.06,-3.99,-4.03,-1.38,-1.38,-1.38
211.44,2.69,2.69,4.09,4.08,-4.09,-4.01,-4.07,-1.40,-1.40,-1.40
213.56,2.70,2.70,4.10,4.11,-4.11,-4.01,-4.11,-1.41,-1.41,-1.41
215.69,2.71,2.71,4.12,4.12,-4.13,-4.02,-4.16,-1.42,-1.42,-1.41
217.85,2.72,2.72,4.14,4.14,-4.14,-4.02,-4.20,-1.42,-1.42,-1.42
220.03,2.72,2.72,4.15,4.15,-4.15,-4.03,-4.24,-1.43,-1.43,-1.43
222.23,2.72,2.72,4.16,4.16,-4.15,-4.03,-4.28,-1.43,-1.43,-1.45
224.45,2.72,2.72,4.16,4.16,-4.16,-4.03,-4.31,-1.44,-1.44,-1.44
226.70,2.71,2.71,4.15,4.15,-4.15,-4.03,-4.35,-1.44,-1.44,-1.44
228.96,2.71,2.71,4.15,4.14,-4.15,-4.02,-4.38,-1.44,-1.44,-1.44
231.25,2.70,2.70,4.13,4.13,-4.14,-4.01,-4.40,-1.44,-1.44,-1.43
233.57,2.69,2.69,4.12,4.12,-4.12,-4.01,-4.42,-1.43,-1.43,-1.43
235.90,2.68,2.68,4.11,4.11,-4.10,-4.00,-4.43,-1.42,-1.42,-1.43
238.26,2.67,2.67,4.10,4.09,-4.08,-3.99,-4.45,-1.41,-1.41,-1.43
240.64,2.65,2.65,4.07,4.06,-4.06,-3.97,-4.45,-1.41,-1.41,-1.42
243.05,2.62,2.62,4.03,4.03,-4.03,-3.96,-4.45,-1.41,-1.40,-1.41
245.48,2.60,2.60,3.99,3.99,-4.00,-3.94,-4.44,-1.40,-1.40,-1.39
247.93,2.58,2.58,3.96,3.96,-3.97,-3.93,-4.43,-1.39,-1.39,-1.38
250.41,2.56,2.56,3.94,3.94,-3.94,-3.91,-4.41,-1.38,-1.38,-1.38
252.92,2.55,2.55,3.91,3.91,-3.92,-3.89,-4.38,-1.37,-1.37,-1.36
255.45,2.55,2.55,3.88,3.89,-3.90,-3.86,-4.35,-1.35,-1.35,-1.34
258.00,2.55,2.55,3.87,3.87,-3.88,-3.84,-4.31,-1.33,-1.33,-1.32
260.58,2.56,2.56,3.87,3.86,-3.86,-3.81,-4.26,-1.30,-1.30,-1.31
263.19,2.56,2.56,3.85,3.85,-3.84,-3.79,-4.21,-1.28,-1.28,-1.29
265.82,2.57,2.56,3.84,3.83,-3.82,-3.76,-4.15,-1.26,-1.26,-1.27
268.48,2.56,2.56,3.81,3.81,-3.80,-3.73,-4.09,-1.24,-1.24,-1.25
271.16,2.55,2.55,3.77,3.78,-3.78,-3.70,-4.02,-1.23,-1.22,-1.22
273.87,2.54,2.54,3.75,3.74,-3.74,-3.67,-3.95,-1.20,-1.21,-1.21
276.61,2.52,2.52,3.70,3.71,-3.71,-3.63,-3.87,-1.19,-1.19,-1.19
279.38,2.50,2.50,3.67,3.67,-3.67,-3.60,-3.79,-1.17,-1.17,-1.17
282.17,2.48,2.48,3.64,3.63,-3.63,-3.56,-3.71,-1.15,-1.15,-1.16
284.99,2.45,2.45,3.58,3.59,-3.59,-3.52,-3.62,-1.14,-1.14,-1.13
287.84,2.43,2.43,3.54,3.54,-3.55,-3.48,-3.53,-1.12,-1.12,-1.12
290.72,2.41,2.41,3.50,3.50,-3.51,-3.44,-3.44,-1.10,-1.10,-1.09
293.63,2.39,2.39,3.46,3.46,-3.47,-3.40,-3.34,-1.08,-1.08,-1.07
296.57,2.37,2.37,3.42,3.42,-3.42,-3.36,-3.25,-1.05,-1.05,-1.05
299.53,2.35,2.35,3.38,3.38,-3.38,-3.31,-3.15,-1.03,-1.03,-1.03
302.53,2.33,2.33,3.35,3.34,-3.34,-3.27,-3.05,-1.01,-1.01,-1.02
305.55,2.31,2.31,3.29,3.30,-3.29,-3.22,-2.95,-0.98,-0.98,-0.98
308.61,2.29,2.29,3.25,3.25,-3.24,-3.17,-2.86,-0.95,-0.96,-0.96
311.69,2.26,2.26,3.20,3.19,-3.19,-3.12,-2.76,-0.93,-0.93,-0.94
314.81,2.23,2.23,3.13,3.14,-3.14,-3.07,-2.66,-0.91,-0.91,-0.90
317.96,2.19,2.19,3.07,3.08,-3.08,-3.02,-2.56,-0.89,-0.89,-0.88
321.14,2.16,2.16,3.03,3.02,-3.02,-2.97,-2.47,-0.86,-0.87,-0.87
324.35,2.12,2.12,2.97,2.97,-2.96,-2.92,-2.37,-0.84,-0.84,-0.85
327.59,2.08,2.08,2.90,2.90,-2.90,-2.87,-2.27,-0.82,-0.82,-0.82
330.87,2.03,2.03,2.84,2.84,-2.84,-2.82,-2.18,-0.81,-0.80,-0.81
334.18,1.99,1.99,2.78,2.77,-2.77,-2.76,-2.08,-0.78,-0.78,-0.79
337.52,1.94,1.94,2.71,2.71,-2.71,-2.71,-1.99,-0.77,-0.77,-0.77
340.90,1.90,1.90,2.64,2.64,-2.64,-2.65,-1.90,-0.75,-0.75,-0.74
344.30,1.85,1.85,2.58,2.58,-2.58,-2.60,-1.81,-0.74,-0.73,-0.73
347.75,1.82,1.82,2.53,2.52,-2.53,-2.54,-1.72,-0.71,-0.71,-0.71
351.23,1.78,1.78,2.47,2.47,-2.48,-2.48,-1.63,-0.70,-0.70,-0.69
354.74,1.75,1.75,2.42,2.43,-2.43,-2.42,-1.54,-0.68,-0.68,-0.67
358.28,1.73,1.73,2.38,2.38,-2.39,-2.36,-1.46,-0.66,-0.66,-0.66
361.87,1.72,1.72,2.36,2.35,-2.36,-2.30,-1.37,-0.64,-0.64,-0.64
365.49,1.70,1.70,2.32,2.32,-2.33,-2.24,-1.29,-0.63,-0.62,-0.62
369.14,1.69,1.69,2.30,2.30,-2.29,-2.18,-1.21,-0.60,-0.61,-0.61
372.83,1.67,1.67,2.26,2.26,-2.26,-2.12,-1.13,-0.59,-0.59,-0.59
376.56,1.65,1.65,2.23,2.23,-2.22,-2.06,-1.05,-0.57,-0.57,-0.58
380.33,1.62,1.62,2.18,2.18,-2.18,-1.99,-0.97,-0.56,-0.56,-0.56
384.13,1.59,1.59,2.14,2.14,-2.13,-1.93,-0.89,-0.54,-0.54,-0.55
387.97,1.54,1.54,2.08,2.08,-2.07,-1.87,-0.82,-0.53,-0.53,-0.54
391.85,1.48,1.48,2.01,2.01,-2.00,-1.80,-0.74,-0.52,-0.52,-0.53
395.77,1.41,1.41,1.92,1.93,-1.92,-1.73,-0.67,-0.51,-0.51,-0.51
399.73,1.34,1.33,1.84,1.84,-1.84,-1.66,-0.59,-0.50,-0.50,-0.50
403.72,1.25,1.25,1.74,1.74,-1.75,-1.59,-0.52,-0.50,-0.50,-0.50
407.76,1.16,1.16,1.65,1.65,-1.65,-1.52,-0.45,-0.49,-0.49,-0.49
411.84,1.07,1.07,1.54,1.54,-1.55,-1.45,-0.38,-0.48,-0.48,-0.47
415.96,0.98,0.98,1.44,1.44,-1.44,-1.38,-0.32,-0.46,-0.46,-0.46
420.12,0.88,0.88,1.33,1.33,-1.33,-1.30,-0.25,-0.45,-0.45,-0.45
424.32,0.78,0.78,1.22,1.22,-1.22,-1.22,-0.19,-0.44,-0.44,-0.44
428.56,0.67,0.67,1.10,1.11,-1.10,-1.14,-0.12,-0.43,-0.43,-0.43
432.85,0.57,0.57,0.99,0.99,-0.99,-1.06,-0.06,-0.42,-0.42,-0.42
437.18,0.46,0.46,0.87,0.87,-0.87,-0.98,-0.00,-0.41,-0.41,-0.41
441.55,0.36,0.36,0.76,0.76,-0.76,-0.89,0.05,-0.40,-0.41,-0.40
445.96,0.25,0.25,0.64,0.64,-0.65,-0.81,0.11,-0.40,-0.40,-0.39
450.42,0.16,0.16,0.54,0.53,-0.54,-0.72,0.16,-0.38,-0.38,-0.38
454.93,0.07,0.07,0.43,0.43,-0.44,-0.62,0.22,-0.37,-0.37,-0.36
459.48,-0.01,-0.01,0.34,0.33,-0.33,-0.53,0.26,-0.34,-0.35,-0.35
464.07,-0.10,-0.10,0.23,0.23,-0.23,-0.43,0.31,-0.33,-0.33,-0.33
468.71,-0.18,-0.18,0.13,0.13,-0.12,-0.32,0.36,-0.30,-0.30,-0.31
473.40,-0.27,-0.27,0.03,0.02,-0.01,-0.22,0.40,-0.28,-0.29,-0.30
478.13,-0.37,-0.37,-0.09,-0.09,0.10,-0.11,0.44,-0.27,-0.27,-0.28
482.91,-0.48,-0.48,-0.21,-0.21,0.21,0.01,0.48,-0.27,-0.27,-0.27
487.74,-0.58,-0.58,-0.33,-0.33,0.33,0.12,0.51,-0.26,-0.26,-0.25
492.62,-0.69,-0.69,-0.46,-0.45,0.44,0.24,0.54,-0.25,-0.25,-0.23
497.55,-0.79,-0.79,-0.57,-0.57,0.56,0.36,0.57,-0.23,-0.23,-0.23
502.52,-0.89,-0.89,-0.69,-0.68,0.68,0.49,0.60,-0.22,-0.21,-0.21
