frequency,raw,error,smoothed,error_smoothed,equalization,parametric_eq,equalized_raw,equalized_smoothed,target
20,8.06,7.13,8.04,7.10,-7.10,-2.83,0.96,0.93,0.93
21,7.93,7.00,7.92,6.99,-6.99,-3.24,0.94,0.93,0.93
22,7.79,6.86,7.81,6.88,-6.88,-3.69,0.91,0.93,0.93
23,7.68,6.75,7.70,6.77,-6.77,-4.17,0.91,0.93,0.93
24,7.58,6.66,7.60,6.67,-6.67,-4.68,0.91,0.93,0.93
25,7.47,6.55,7.49,6.57,-6.57,-5.21,0.90,0.92,0.92
26,7.37,6.45,7.39,6.47,-6.47,-5.73,0.90,0.92,0.92
27,7.27,6.36,7.29,6.37,-6.37,-6.23,0.90,0.92,0.92
28,7.18,6.27,7.19,6.28,-6.28,-6.67,0.90,0.91,0.91
29,7.10,6.19,7.10,6.19,-6.19,-7.03,0.91,0.91,0.91
30,7.02,6.12,7.01,6.10,-6.10,-7.28,0.92,0.90,0.90
31,6.93,6.03,6.91,6.02,-6.02,-7.41,0.92,0.90,0.90
32,6.83,5.94,6.82,5.93,-5.93,-7.41,0.90,0.89,0.89
33,6.74,5.86,6.73,5.85,-5.85,-7.31,0.90,0.89,0.89
34,6.64,5.76,6.64,5.76,-5.76,-7.12,0.88,0.88,0.88
35,6.55,5.68,6.55,5.68,-5.68,-6.88,0.87,0.87,0.87
36,6.46,5.60,6.46,5.60,-5.60,-6.61,0.87,0.86,0.86
37,6.37,5.52,6.37,5.51,-5.51,-6.33,0.86,0.85,0.85
38,6.28,5.44,6.28,5.43,-5.43,-6.05,0.85,0.85,0.85
39,6.19,5.36,6.19,5.35,-5.35,-5.79,0.84,0.84,0.84
40,6.10,5.28,6.10,5.27,-5.27,-5.55,0.83,0.82,0.82
41,6.01,5.20,6.01,5.20,-5.20,-5.33,0.82,0.81,0.81
42,5.92,5.12,5.92,5.12,-5.12,-5.14,0.80,0.80,0.80
43,5.83,5.04,5.84,5.05,-5.05,-4.97,0.78,0.79,0.79
44,5.75,4.98,5.76,4.98,-4.98,-4.82,0.77,0.77,0.77
45,5.67,4.91,5.68,4.92,-4.92,-4.70,0.75,0.76,0.76
46,5.59,4.85,5.60,4.86,-4.86,-4.60,0.73,0.74,0.74
47,5.52,4.79,5.53,4.80,-4.80,-4.51,0.72,0.73,0.73
48,5.45,4.74,5.46,4.75,-4.75,-4.44,0.70,0.71,0.71
49,5.39,4.70,5.40,4.71,-4.71,-4.39,0.69,0.69,0.69
50,5.33,4.66,5.34,4.66,-4.66,-4.35,0.67,0.67,0.67
51,5.27,4.62,5.28,4.62,-4.62,-4.32,0.65,0.65,0.65
52,5.22,4.59,5.22,4.59,-4.59,-4.31,0.63,0.63,0.63
53,5.17,4.56,5.17,4.56,-4.56,-4.29,0.62,0.61,0.61
54,5.12,4.53,5.11,4.53,-4.53,-4.29,0.60,0.59,0.59
55,5.07,4.51,5.06,4.50,-4.50,-4.28,0.57,0.57,0.57
56,5.01,4.47,5.01,4.47,-4.47,-4.28,0.54,0.54,0.54
57,4.96,4.45,4.96,4.45,-4.45,-4.28,0.52,0.52,0.52
58,4.90,4.41,4.91,4.42,-4.42,-4.28,0.48,0.49,0.49
59,4.84,4.38,4.86,4.40,-4.40,-4.27,0.45,0.46,0.46
60,4.79,4.36,4.81,4.37,-4.37,-4.26,0.42,0.43,0.43
61,4.74,4.34,4.75,4.34,-4.34,-4.25,0.40,0.41,0.41
62,4.69,4.32,4.69,4.31,-4.31,-4.23,0.38,0.38,0.38
63,4.64,4.30,4.63,4.28,-4.28,-4.21,0.36,0.35,0.35
64,4.59,4.28,4.56,4.25,-4.25,-4.19,0.34,0.31,0.31
65,4.53,4.25,4.49,4.21,-4.21,-4.16,0.32,0.28,0.28
66,4.45,4.20,4.42,4.17,-4.17,-4.13,0.28,0.25,0.25
67,4.36,4.15,4.34,4.13,-4.13,-4.09,0.24,0.21,0.21
68,4.26,4.08,4.26,4.08,-4.08,-4.06,0.18,0.18,0.18
69,4.16,4.02,4.18,4.03,-4.03,-4.02,0.13,0.14,0.14
70,4.07,3.96,4.09,3.98,-3.98,-3.98,0.09,0.11,0.11
71,3.98,3.91,4.01,3.93,-3.93,-3.94,0.05,0.07,0.07
72,3.90,3.87,3.92,3.89,-3.89,-3.91,0.02,0.04,0.04
73,3.83,3.83,3.84,3.84,-3.84,-3.87,-0.01,-0.00,-0.00
74,3.76,3.80,3.75,3.79,-3.79,-3.84,-0.03,-0.04,-0.04
75,3.68,3.76,3.67,3.75,-3.75,-3.81,-0.07,-0.08,-0.08
76,3.60,3.72,3.59,3.71,-3.71,-3.78,-0.11,-0.12,-0.12
77,3.51,3.67,3.51,3.67,-3.67,-3.76,-0.16,-0.16,-0.16
78,3.43,3.63,3.44,3.64,-3.64,-3.74,-0.21,-0.20,-0.20
79,3.36,3.60,3.37,3.61,-3.61,-3.72,-0.25,-0.24,-0.24
80,3.30,3.58,3.30,3.58,-3.58,-3.71,-0.28,-0.28,-0.28
81,3.24,3.56,3.24,3.56,-3.56,-3.70,-0.32,-0.32,-0.32
82,3.18,3.54,3.18,3.54,-3.54,-3.69,-0.36,-0.36,-0.36
83,3.13,3.54,3.13,3.53,-3.53,-3.69,-0.40,-0.40,-0.40
84,3.08,3.53,3.08,3.52,-3.52,-3.70,-0.44,-0.45,-0.44
85,3.03,3.52,3.04,3.52,-3.52,-3.70,-0.49,-0.49,-0.49
86,2.98,3.51,3.00,3.52,-3.52,-3.71,-0.54,-0.53,-0.53
87,2.95,3.52,2.96,3.53,-3.53,-3.73,-0.58,-0.57,-0.57
88,2.92,3.53,2.94,3.55,-3.55,-3.74,-0.63,-0.61,-0.61
89,2.91,3.56,2.91,3.57,-3.57,-3.77,-0.66,-0.65,-0.65
90,2.89,3.59,2.90,3.59,-3.59,-3.79,-0.70,-0.69,-0.69
91,2.88,3.62,2.89,3.62,-3.62,-3.82,-0.74,-0.73,-0.74
92,2.88,3.66,2.88,3.65,-3.65,-3.85,-0.77,-0.77,-0.78
93,2.87,3.69,2.87,3.69,-3.69,-3.88,-0.82,-0.82,-0.82
94,2.87,3.73,2.87,3.73,-3.73,-3.92,-0.86,-0.86,-0.86
95,2.87,3.77,2.88,3.77,-3.77,-3.96,-0.90,-0.90,-0.90
96,2.88,3.82,2.88,3.82,-3.82,-4.00,-0.94,-0.94,-0.94
97,2.90,3.88,2.89,3.87,-3.87,-4.04,-0.96,-0.98,-0.98
98,2.91,3.93,2.89,3.91,-3.91,-4.09,-1.00,-1.02,-1.02
99,2.91,3.97,2.90,3.96,-3.96,-4.14,-1.05,-1.06,-1.06
100,2.92,4.02,2.91,4.01,-4.01,-4.18,-1.09,-1.10,-1.10
101,2.91,4.05,2.92,4.07,-4.07,-4.23,-1.15,-1.15,-1.13
102,2.91,4.08,2.93,4.12,-4.12,-4.28,-1.20,-1.19,-1.17
104,2.92,4.17,2.94,4.17,-4.17,-4.38,-1.24,-1.23,-1.25
105,2.93,4.21,2.95,4.22,-4.22,-4.43,-1.28,-1.27,-1.28
106,2.94,4.26,2.95,4.26,-4.26,-4.48,-1.32,-1.31,-1.32
107,2.96,4.32,2.96,4.31,-4.31,-4.53,-1.35,-1.35,-1.35
108,2.97,4.36,2.97,4.35,-4.35,-4.57,-1.38,-1.38,-1.39
109,2.98,4.40,2.97,4.39,-4.39,-4.62,-1.41,-1.42,-1.42
110,2.98,4.44,2.97,4.43,-4.43,-4.66,-1.44,-1.46,-1.46
111,2.98,4.47,2.96,4.46,-4.46,-4.70,-1.48,-1.49,-1.49
112,2.97,4.49,2.96,4.49,-4.49,-4.74,-1.51,-1.53,-1.52
113,2.96,4.52,2.95,4.51,-4.51,-4.77,-1.55,-1.56,-1.55
114,2.94,4.53,2.93,4.53,-4.53,-4.80,-1.59,-1.60,-1.59
115,2.93,4.55,2.92,4.55,-4.55,-4.83,-1.62,-1.63,-1.62
117,2.87,4.55,2.90,4.56,-4.56,-4.87,-1.69,-1.67,-1.68
118,2.84,4.55,2.87,4.57,-4.57,-4.89,-1.73,-1.70,-1.71
119,2.82,4.56,2.85,4.58,-4.58,-4.90,-1.76,-1.73,-1.74
120,2.80,4.57,2.82,4.58,-4.58,-4.90,-1.78,-1.77,-1.76
121,2.78,4.57,2.78,4.58,-4.58,-4.90,-1.80,-1.80,-1.79
123,2.74,4.59,2.74,4.58,-4.58,-4.89,-1.84,-1.84,-1.85
124,2.73,4.60,2.70,4.57,-4.57,-4.88,-1.84,-1.87,-1.87
125,2.69,4.59,2.65,4.55,-4.55,-4.86,-1.86,-1.90,-1.90
126,2.65,4.58,2.60,4.53,-4.53,-4.84,-1.88,-1.93,-1.92
128,2.54,4.51,2.55,4.51,-4.51,-4.78,-1.97,-1.96,-1.97
129,2.47,4.47,2.49,4.48,-4.48,-4.75,-2.01,-1.99,-2.00
130,2.40,4.42,2.43,4.45,-4.45,-4.71,-2.05,-2.02,-2.02
131,2.35,4.39,2.36,4.41,-4.41,-4.66,-2.06,-2.05,-2.04
133,2.25,4.34,2.29,4.37,-4.37,-4.57,-2.12,-2.08,-2.08
134,2.22,4.33,2.22,4.33,-4.33,-4.51,-2.11,-2.11,-2.11
135,2.18,4.31,2.15,4.28,-4.28,-4.46,-2.10,-2.13,-2.13
137,2.08,4.25,2.07,4.23,-4.23,-4.34,-2.15,-2.16,-2.17
138,2.03,4.22,1.99,4.18,-4.18,-4.27,-2.15,-2.19,-2.19
140,1.90,4.12,1.91,4.13,-4.13,-4.14,-2.22,-2.21,-2.22
141,1.82,4.06,1.83,4.07,-4.07,-4.07,-2.25,-2.24,-2.24
142,1.75,4.01,1.75,4.01,-4.01,-4.01,-2.26,-2.26,-2.26
144,1.63,3.92,1.66,3.95,-3.95,-3.86,-2.32,-2.29,-2.29
145,1.56,3.87,1.57,3.88,-3.88,-3.79,-2.32,-2.31,-2.31
147,1.45,3.79,1.48,3.82,-3.82,-3.65,-2.37,-2.34,-2.34
148,1.41,3.77,1.39,3.75,-3.75,-3.57,-2.34,-2.36,-2.35
150,1.30,3.69,1.30,3.68,-3.68,-3.42,-2.38,-2.38,-2.38
151,1.25,3.65,1.21,3.61,-3.61,-3.35,-2.36,-2.40,-2.40
153,1.12,3.55,1.12,3.54,-3.54,-3.21,-2.42,-2.42,-2.43
154,1.05,3.49,1.03,3.47,-3.47,-3.13,-2.41,-2.44,-2.44
156,0.90,3.37,0.93,3.39,-3.39,-2.99,-2.49,-2.46,-2.46
157,0.83,3.31,0.84,3.32,-3.32,-2.92,-2.48,-2.48,-2.48
159,0.70,3.20,0.74,3.24,-3.24,-2.78,-2.54,-2.50,-2.50
160,0.64,3.15,0.64,3.16,-3.16,-2.71,-2.52,-2.52,-2.51
162,0.53,3.07,0.54,3.08,-3.08,-2.57,-2.55,-2.53,-2.53
164,0.43,2.99,0.44,3.00,-3.00,-2.44,-2.56,-2.55,-2.55
165,0.37,2.94,0.34,2.91,-2.91,-2.37,-2.54,-2.57,-2.57
167,0.26,2.85,0.24,2.82,-2.82,-2.24,-2.56,-2.58,-2.58
169,0.13,2.74,0.14,2.74,-2.74,-2.12,-2.60,-2.60,-2.60
170,0.07,2.68,0.03,2.65,-2.65,-2.06,-2.57,-2.61,-2.61
172,-0.07,2.56,-0.08,2.55,-2.55,-1.93,-2.62,-2.63,-2.63
174,-0.21,2.44,-0.18,2.46,-2.46,-1.82,-2.67,-2.64,-2.65
175,-0.27,2.39,-0.29,2.37,-2.37,-1.76,-2.63,-2.66,-2.65
177,-0.40,2.27,-0.40,2.27,-2.27,-1.64,-2.67,-2.67,-2.67
179,-0.54,2.15,-0.51,2.17,-2.17,-1.53,-2.71,-2.68,-2.69
181,-0.67,2.03,-0.62,2.08,-2.08,-1.42,-2.74,-2.70,-2.70
183,-0.78,1.93,-0.73,1.98,-1.98,-1.32,-2.76,-2.71,-2.71
184,-0.84,1.88,-0.84,1.88,-1.88,-1.27,-2.72,-2.72,-2.72
186,-0.94,1.79,-0.95,1.78,-1.78,-1.16,-2.72,-2.73,-2.73
188,-1.03,1.72,-1.06,1.68,-1.68,-1.07,-2.71,-2.74,-2.74
190,-1.14,1.62,-1.18,1.58,-1.58,-0.97,-2.72,-2.76,-2.76
192,-1.26,1.51,-1.29,1.48,-1.48,-0.87,-2.74,-2.77,-2.77
194,-1.38,1.40,-1.40,1.38,-1.38,-0.78,-2.75,-2.78,-2.78
196,-1.51,1.28,-1.51,1.28,-1.28,-0.69,-2.78,-2.79,-2.79
198,-1.64,1.16,-1.62,1.17,-1.17,-0.60,-2.81,-2.80,-2.80
200,-1.75,1.06,-1.73,1.07,-1.07,-0.52,-2.82,-2.81,-2.81
202,-1.87,0.95,-1.84,0.97,-0.97,-0.43,-2.84,-2.81,-2.81
204,-1.97,0.86,-1.95,0.88,-0.88,-0.35,-2.85,-2.82,-2.82
206,-2.07,0.76,-2.05,0.78,-0.78,-0.27,-2.85,-2.83,-2.83
208,-2.17,0.67,-2.15,0.69,-0.69,-0.20,-2.86,-2.84,-2.84
210,-2.26,0.59,-2.25,0.60,-0.60,-0.12,-2.86,-2.85,-2.85
212,-2.35,0.51,-2.34,0.51,-0.51,-0.05,-2.86,-2.85,-2.85
214,-2.43,0.43,-2.43,0.43,-0.43,0.02,-2.86,-2.86,-2.86
216,-2.51,0.36,-2.53,0.34,-0.34,0.09,-2.85,-2.87,-2.87
218,-2.58,0.30,-2.62,0.26,-0.26,0.16,-2.83,-2.87,-2.87
221,-2.71,0.17,-2.71,0.17,-0.17,0.25,-2.88,-2.88,-2.88
223,-2.80,0.09,-2.80,0.09,-0.09,0.31,-2.88,-2.89,-2.89
225,-2.90,-0.00,-2.90,-0.00,0.00,0.37,-2.90,-2.89,-2.89
227,-2.99,-0.09,-2.99,-0.09,0.09,0.43,-2.90,-2.90,-2.90
229,-3.08,-0.17,-3.09,-0.18,0.18,0.48,-2.90,-2.90,-2.90
232,-3.20,-0.29,-3.18,-0.27,0.27,0.56,-2.92,-2.91,-2.91
234,-3.29,-0.37,-3.28,-0.37,0.37,0.60,-2.92,-2.92,-2.92
236,-3.36,-0.44,-3.38,-0.46,0.46,0.65,-2.90,-2.92,-2.92
239,-3.48,-0.55,-3.48,-0.56,0.56,0.71,-2.92,-2.93,-2.93
241,-3.56,-0.63,-3.58,-0.65,0.65,0.75,-2.90,-2.93,-2.93
244,-3.69,-0.75,-3.68,-0.75,0.75,0.81,-2.94,-2.94,-2.94
246,-3.77,-0.83,-3.78,-0.84,0.84,0.84,-2.93,-2.94,-2.94
248,-3.86,-0.91,-3.88,-0.93,0.93,0.87,-2.92,-2.94,-2.94
251,-3.99,-1.04,-3.97,-1.02,1.02,0.91,-2.96,-2.95,-2.95
253,-4.07,-1.12,-4.06,-1.11,1.11,0.94,-2.96,-2.95,-2.95
256,-4.17,-1.21,-4.14,-1.19,1.19,0.97,-2.98,-2.96,-2.96
259,-4.26,-1.30,-4.22,-1.26,1.26,1.00,-2.99,-2.96,-2.96
261,-4.32,-1.36,-4.30,-1.33,1.33,1.02,-2.98,-2.96,-2.96
264,-4.39,-1.42,-4.37,-1.40,1.40,1.05,-2.99,-2.97,-2.97
266,-4.43,-1.46,-4.43,-1.46,1.46,1.06,-2.97,-2.97,-2.97
269,-4.48,-1.51,-4.49,-1.51,1.51,1.08,-2.97,-2.97,-2.97
272,-4.54,-1.56,-4.54,-1.56,1.56,1.10,-2.98,-2.98,-2.98
274,-4.57,-1.59,-4.59,-1.61,1.61,1.11,-2.96,-2.98,-2.98
277,-4.62,-1.64,-4.63,-1.65,1.65,1.12,-2.97,-2.98,-2.98
280,-4.66,-1.67,-4.67,-1.68,1.68,1.13,-2.97,-2.98,-2.98
283,-4.70,-1.71,-4.70,-1.72,1.72,1.14,-2.98,-2.99,-2.99
286,-4.74,-1.75,-4.74,-1.75,1.75,1.15,-2.99,-2.99,-2.99
288,-4.76,-1.77,-4.77,-1.77,1.77,1.15,-2.98,-2.99,-2.99
291,-4.80,-1.80,-4.79,-1.80,1.80,1.16,-3.00,-2.99,-2.99
294,-4.82,-1.82,-4.82,-1.82,1.82,1.16,-3.00,-3.00,-3.00
297,-4.84,-1.84,-4.84,-1.84,1.84,1.16,-3.00,-3.00,-3.00
300,-4.86,-1.86,-4.85,-1.85,1.85,1.17,-3.01,-3.00,-3.00
303,-4.87,-1.86,-4.87,-1.86,1.86,1.17,-3.01,-3.00,-3.00
306,-4.88,-1.87,-4.87,-1.87,1.87,1.18,-3.01,-3.01,-3.01
309,-4.89,-1.88,-4.88,-1.87,1.87,1.18,-3.02,-3.01,-3.01
312,-4.89,-1.88,-4.88,-1.87,1.87,1.18,-3.02,-3.01,-3.01
316,-4.88,-1.87,-4.88,-1.87,1.87,1.19,-3.01,-3.01,-3.01
319,-4.88,-1.87,-4.87,-1.86,1.86,1.20,-3.02,-3.01,-3.01
322,-4.87,-1.85,-4.87,-1.85,1.85,1.20,-3.02,-3.01,-3.01
325,-4.86,-1.84,-4.86,-1.84,1.84,1.21,-3.02,-3.02,-3.02
328,-4.85,-1.83,-4.84,-1.83,1.83,1.21,-3.02,-3.02,-3.02
332,-4.83,-1.81,-4.83,-1.81,1.81,1.22,-3.02,-3.02,-3.02
335,-4.82,-1.80,-4.82,-1.80,1.80,1.23,-3.02,-3.02,-3.02
338,-4.80,-1.78,-4.80,-1.78,1.78,1.24,-3.02,-3.02,-3.02
342,-4.78,-1.76,-4.79,-1.77,1.77,1.25,-3.01,-3.02,-3.02
345,-4.77,-1.74,-4.78,-1.75,1.75,1.27,-3.02,-3.02,-3.02
349,-4.75,-1.72,-4.76,-1.74,1.74,1.28,-3.01,-3.02,-3.03
352,-4.73,-1.70,-4.75,-1.72,1.72,1.29,-3.00,-3.03,-3.03
356,-4.72,-1.69,-4.74,-1.71,1.71,1.31,-3.01,-3.03,-3.03
359,-4.73,-1.70,-4.73,-1.70,1.70,1.32,-3.03,-3.03,-3.03
363,-4.72,-1.69,-4.72,-1.69,1.69,1.34,-3.03,-3.03,-3.03
366,-4.72,-1.69,-4.70,-1.67,1.67,1.36,-3.05,-3.03,-3.03
370,-4.70,-1.67,-4.69,-1.66,1.66,1.38,-3.04,-3.03,-3.03
374,-4.69,-1.65,-4.67,-1.64,1.64,1.40,-3.05,-3.03,-3.03
377,-4.67,-1.63,-4.66,-1.62,1.62,1.42,-3.05,-3.04,-3.04
381,-4.65,-1.61,-4.64,-1.60,1.60,1.45,-3.05,-3.04,-3.04
385,-4.63,-1.59,-4.62,-1.58,1.58,1.47,-3.05,-3.04,-3.04
389,-4.60,-1.56,-4.59,-1.55,1.55,1.50,-3.05,-3.04,-3.04
393,-4.57,-1.53,-4.57,-1.53,1.53,1.52,-3.04,-3.04,-3.04
397,-4.54,-1.50,-4.54,-1.50,1.50,1.55,-3.04,-3.04,-3.04
401,-4.51,-1.46,-4.51,-1.47,1.47,1.58,-3.04,-3.04,-3.04
405,-4.48,-1.43,-4.48,-1.44,1.44,1.60,-3.04,-3.05,-3.04
409,-4.45,-1.40,-4.46,-1.41,1.41,1.63,-3.04,-3.05,-3.05
413,-4.42,-1.37,-4.43,-1.38,1.38,1.66,-3.04,-3.05,-3.05
417,-4.40,-1.35,-4.40,-1.35,1.35,1.68,-3.05,-3.05,-3.05
421,-4.37,-1.32,-4.37,-1.32,1.32,1.71,-3.04,-3.05,-3.05
425,-4.34,-1.29,-4.34,-1.30,1.30,1.74,-3.04,-3.05,-3.05
430,-4.31,-1.26,-4.32,-1.27,1.27,1.77,-3.04,-3.05,-3.05
434,-4.30,-1.25,-4.29,-1.25,1.25,1.79,-3.05,-3.04,-3.04
438,-4.27,-1.23,-4.27,-1.23,1.23,1.81,-3.04,-3.04,-3.04
443,-4.26,-1.22,-4.24,-1.20,1.20,1.84,-3.05,-3.04,-3.04
447,-4.25,-1.21,-4.22,-1.19,1.19,1.86,-3.06,-3.04,-3.04
451,-4.23,-1.20,-4.20,-1.17,1.17,1.88,-3.06,-3.03,-3.03
456,-4.20,-1.17,-4.18,-1.16,1.16,1.90,-3.04,-3.03,-3.03
460,-4.17,-1.15,-4.17,-1.15,1.15,1.91,-3.02,-3.02,-3.02
465,-4.13,-1.11,-4.16,-1.14,1.14,1.93,-2.99,-3.01,-3.01
470,-4.11,-1.10,-4.15,-1.14,1.14,1.94,-2.97,-3.01,-3.01
474,-4.10,-1.10,-4.14,-1.15,1.15,1.95,-2.95,-3.00,-3.00
479,-4.10,-1.11,-4.14,-1.16,1.16,1.95,-2.94,-2.99,-2.99
484,-4.12,-1.14,-4.15,-1.17,1.17,1.96,-2.95,-2.98,-2.98
489,-4.15,-1.18,-4.15,-1.19,1.19,1.96,-2.96,-2.96,-2.96
494,-4.18,-1.23,-4.16,-1.21,1.21,1.95,-2.97,-2.95,-2.95
499,-4.19,-1.25,-4.17,-1.23,1.23,1.94,-2.96,-2.94,-2.94
504,-4.21,-1.29,-4.17,-1.25,1.25,1.93,-2.96,-2.92,-2.92
509,-4.21,-1.30,-4.18,-1.28,1.28,1.92,-2.93,-2.90,-2.90
514,-4.20,-1.31,-4.18,-1.30,1.30,1.90,-2.90,-2.89,-2.89
519,-4.19,-1.32,-4.18,-1.32,1.32,1.88,-2.87,-2.87,-2.87
524,-4.18,-1.33,-4.18,-1.33,1.33,1.86,-2.84,-2.85,-2.85
529,-4.18,-1.35,-4.18,-1.35,1.35,1.83,-2.83,-2.83,-2.83
535,-4.16,-1.35,-4.17,-1.36,1.36,1.80,-2.80,-2.81,-2.81
540,-4.16,-1.37,-4.16,-1.37,1.37,1.77,-2.79,-2.78,-2.78
545,-4.15,-1.39,-4.14,-1.38,1.38,1.73,-2.77,-2.76,-2.76
551,-4.14,-1.40,-4.12,-1.39,1.39,1.69,-2.75,-2.74,-2.74
556,-4.11,-1.40,-4.10,-1.39,1.39,1.66,-2.72,-2.71,-2.71
562,-4.09,-1.40,-4.08,-1.39,1.39,1.61,-2.69,-2.69,-2.69
568,-4.06,-1.40,-4.06,-1.40,1.40,1.56,-2.66,-2.66,-2.66
573,-4.03,-1.40,-4.03,-1.40,1.40,1.52,-2.63,-2.63,-2.63
579,-4.01,-1.40,-4.01,-1.40,1.40,1.47,-2.61,-2.60,-2.60
585,-3.97,-1.39,-3.98,-1.41,1.41,1.42,-2.56,-2.58,-2.58
591,-3.95,-1.40,-3.96,-1.41,1.41,1.37,-2.54,-2.55,-2.55
596,-3.93,-1.41,-3.93,-1.42,1.42,1.33,-2.51,-2.52,-2.52
602,-3.91,-1.42,-3.91,-1.43,1.43,1.27,-2.48,-2.49,-2.49
608,-3.88,-1.42,-3.89,-1.43,1.43,1.22,-2.44,-2.45,-2.45
615,-3.86,-1.44,-3.87,-1.45,1.45,1.16,-2.41,-2.42,-2.42
621,-3.84,-1.45,-3.85,-1.46,1.46,1.11,-2.38,-2.39,-2.39
627,-3.81,-1.45,-3.83,-1.47,1.47,1.06,-2.34,-2.36,-2.36
633,-3.80,-1.47,-3.80,-1.48,1.48,1.01,-2.32,-2.32,-2.32
639,-3.78,-1.49,-3.78,-1.49,1.49,0.95,-2.29,-2.29,-2.29
646,-3.76,-1.50,-3.76,-1.50,1.50,0.90,-2.26,-2.25,-2.25
652,-3.73,-1.51,-3.73,-1.51,1.51,0.85,-2.22,-2.22,-2.22
659,-3.71,-1.52,-3.70,-1.51,1.51,0.79,-2.19,-2.18,-2.18
665,-3.68,-1.53,-3.66,-1.51,1.51,0.74,-2.17,-2.15,-2.15
672,-3.64,-1.53,-3.62,-1.51,1.51,0.68,-2.13,-2.11,-2.11
679,-3.59,-1.51,-3.57,-1.50,1.50,0.63,-2.09,-2.08,-2.08
686,-3.52,-1.48,-3.52,-1.48,1.48,0.57,-2.04,-2.04,-2.04
692,-3.47,-1.47,-3.45,-1.45,1.45,0.53,-2.01,-2.00,-2.00
699,-3.40,-1.43,-3.39,-1.42,1.42,0.47,-1.97,-1.96,-1.96
706,-3.32,-1.39,-3.31,-1.39,1.39,0.42,-1.93,-1.93,-1.93
713,-3.25,-1.36,-3.23,-1.35,1.35,0.37,-1.90,-1.89,-1.89
721,-3.17,-1.32,-3.15,-1.30,1.30,0.31,-1.87,-1.85,-1.85
728,-3.08,-1.27,-3.07,-1.25,1.25,0.26,-1.82,-1.81,-1.81
735,-2.99,-1.21,-2.98,-1.20,1.20,0.21,-1.78,-1.77,-1.77
742,-2.88,-1.14,-2.89,-1.15,1.15,0.17,-1.72,-1.74,-1.74
750,-2.78,-1.08,-2.80,-1.10,1.10,0.11,-1.68,-1.70,-1.70
757,-2.69,-1.03,-2.71,-1.05,1.05,0.06,-1.63,-1.66,-1.66
765,-2.60,-0.97,-2.63,-1.01,1.01,0.01,-1.59,-1.62,-1.62
773,-2.51,-0.92,-2.55,-0.96,0.96,-0.04,-1.55,-1.59,-1.59
780,-2.45,-0.90,-2.47,-0.91,0.91,-0.08,-1.53,-1.55,-1.55
788,-2.37,-0.85,-2.39,-0.87,0.87,-0.13,-1.50,-1.52,-1.51
796,-2.30,-0.82,-2.31,-0.83,0.83,-0.18,-1.47,-1.48,-1.48
804,-2.24,-0.79,-2.23,-0.79,0.79,-0.23,-1.45,-1.45,-1.45
812,-2.16,-0.75,-2.16,-0.74,0.74,-0.27,-1.41,-1.41,-1.41
820,-2.10,-0.72,-2.08,-0.70,0.70,-0.32,-1.40,-1.38,-1.38
828,-2.04,-0.69,-2.00,-0.65,0.65,-0.36,-1.39,-1.35,-1.35
837,-1.94,-0.62,-1.91,-0.60,0.60,-0.41,-1.34,-1.31,-1.31
845,-1.86,-0.58,-1.83,-0.54,0.54,-0.45,-1.31,-1.28,-1.28
853,-1.76,-0.51,-1.74,-0.49,0.49,-0.48,-1.27,-1.25,-1.25
862,-1.64,-0.42,-1.65,-0.42,0.42,-0.53,-1.21,-1.22,-1.22
871,-1.53,-0.34,-1.55,-0.36,0.36,-0.57,-1.17,-1.19,-1.19
879,-1.43,-0.27,-1.45,-0.29,0.29,-0.60,-1.14,-1.16,-1.16
888,-1.33,-0.19,-1.35,-0.22,0.22,-0.63,-1.11,-1.13,-1.13
897,-1.24,-0.13,-1.25,-0.15,0.15,-0.67,-1.09,-1.11,-1.11
906,-1.14,-0.06,-1.15,-0.07,0.07,-0.70,-1.07,-1.08,-1.08
915,-1.04,0.01,-1.04,0.01,-0.01,-0.73,-1.05,-1.05,-1.05
924,-0.95,0.08,-0.93,0.09,-0.09,-0.75,-1.04,-1.02,-1.02
933,-0.85,0.15,-0.82,0.18,-0.18,-0.78,-1.02,-1.00,-1.00
943,-0.73,0.24,-0.71,0.26,-0.26,-0.80,-0.99,-0.97,-0.97
952,-0.62,0.32,-0.59,0.35,-0.35,-0.82,-0.97,-0.94,-0.94
962,-0.50,0.42,-0.47,0.44,-0.44,-0.83,-0.94,-0.92,-0.92
971,-0.38,0.51,-0.36,0.53,-0.53,-0.84,-0.91,-0.89,-0.89
981,-0.24,0.63,-0.24,0.62,-0.62,-0.85,-0.86,-0.86,-0.86
991,-0.11,0.73,-0.12,0.71,-0.71,-0.86,-0.82,-0.84,-0.84
1001,0.01,0.82,-0.01,0.80,-0.80,-0.86,-0.79,-0.81,-0.81
1011,0.13,0.91,0.11,0.89,-0.89,-0.86,-0.76,-0.78,-0.78
1021,0.23,0.99,0.22,0.97,-0.97,-0.86,-0.74,-0.75,-0.76
1031,0.33,1.06,0.32,1.05,-1.05,-0.85,-0.71,-0.73,-0.73
1041,0.41,1.11,0.42,1.12,-1.12,-0.84,-0.70,-0.70,-0.70
1052,0.50,1.17,0.51,1.18,-1.18,-0.83,-0.68,-0.67,-0.67
1062,0.58,1.23,0.59,1.24,-1.24,-0.81,-0.65,-0.64,-0.64
1073,0.67,1.29,0.67,1.28,-1.28,-0.80,-0.61,-0.61,-0.61
1084,0.74,1.33,0.74,1.32,-1.32,-0.77,-0.58,-0.59,-0.59
1094,0.80,1.36,0.80,1.36,-1.36,-0.75,-0.55,-0.56,-0.56
1105,0.86,1.39,0.85,1.38,-1.38,-0.73,-0.52,-0.53,-0.53
1116,0.90,1.40,0.90,1.39,-1.39,-0.70,-0.49,-0.50,-0.50
1128,0.93,1.40,0.93,1.40,-1.40,-0.67,-0.47,-0.47,-0.47
1139,0.95,1.39,0.96,1.39,-1.39,-0.64,-0.44,-0.44,-0.44
1150,0.96,1.37,0.97,1.37,-1.37,-0.60,-0.41,-0.40,-0.40
1162,0.97,1.35,0.97,1.34,-1.34,-0.57,-0.37,-0.37,-0.37
1173,0.97,1.31,0.96,1.30,-1.30,-0.53,-0.33,-0.34,-0.34
1185,0.96,1.27,0.94,1.25,-1.25,-0.50,-0.29,-0.31,-0.31
1197,0.94,1.22,0.91,1.18,-1.18,-0.46,-0.24,-0.28,-0.28
1209,0.92,1.17,0.86,1.11,-1.11,-0.42,-0.19,-0.25,-0.24
1221,0.87,1.08,0.81,1.02,-1.02,-0.38,-0.15,-0.21,-0.21
1233,0.81,0.99,0.75,0.93,-0.93,-0.34,-0.12,-0.18,-0.18
1246,0.74,0.89,0.69,0.83,-0.83,-0.29,-0.09,-0.15,-0.15
1258,0.66,0.77,0.63,0.74,-0.74,-0.25,-0.08,-0.11,-0.11
1271,0.59,0.67,0.57,0.65,-0.65,-0.21,-0.06,-0.08,-0.08
1283,0.52,0.56,0.53,0.57,-0.57,-0.16,-0.05,-0.04,-0.04
1296,0.45,0.46,0.50,0.51,-0.51,-0.12,-0.06,-0.01,-0.01
1309,0.42,0.39,0.50,0.47,-0.47,-0.07,-0.05,0.03,0.03
1322,0.40,0.34,0.51,0.45,-0.45,-0.03,-0.05,0.06,0.06
1335,0.41,0.31,0.55,0.45,-0.45,0.01,-0.04,0.10,0.10
1349,0.47,0.34,0.62,0.48,-0.48,0.06,-0.01,0.14,0.14
1362,0.56,0.39,0.71,0.53,-0.53,0.11,0.03,0.17,0.17
1376,0.69,0.48,0.81,0.60,-0.60,0.15,0.09,0.21,0.21
1390,0.87,0.62,0.94,0.69,-0.69,0.20,0.18,0.25,0.25
1404,1.05,0.77,1.07,0.79,-0.79,0.25,0.27,0.29,0.29
1418,1.25,0.93,1.21,0.88,-0.88,0.29,0.37,0.32,0.32
1432,1.43,1.07,1.34,0.98,-0.98,0.34,0.46,0.36,0.36
1446,1.58,1.18,1.46,1.05,-1.05,0.39,0.53,0.40,0.40
1461,1.70,1.26,1.56,1.12,-1.12,0.44,0.59,0.44,0.44
1475,1.77,1.29,1.64,1.15,-1.15,0.48,0.62,0.48,0.48
1490,1.80,1.28,1.69,1.17,-1.17,0.53,0.63,0.52,0.52
1505,1.80,1.24,1.72,1.15,-1.15,0.58,0.65,0.56,0.56
1520,1.77,1.17,1.72,1.11,-1.11,0.63,0.66,0.60,0.60
1535,1.71,1.07,1.69,1.04,-1.04,0.67,0.67,0.65,0.65
1550,1.65,0.96,1.64,0.96,-0.96,0.72,0.70,0.69,0.69
1566,1.57,0.84,1.58,0.85,-0.85,0.77,0.72,0.73,0.73
1582,1.48,0.71,1.50,0.73,-0.73,0.82,0.75,0.77,0.77
1597,1.40,0.59,1.42,0.60,-0.60,0.86,0.80,0.82,0.82
1613,1.30,0.44,1.33,0.47,-0.47,0.91,0.83,0.86,0.86
1629,1.20,0.30,1.24,0.34,-0.34,0.96,0.86,0.90,0.90
1646,1.11,0.16,1.16,0.21,-0.21,1.01,0.90,0.95,0.95
1662,1.04,0.05,1.09,0.09,-0.09,1.05,0.95,0.99,0.99
1679,0.97,-0.07,1.02,-0.02,0.02,1.10,0.99,1.04,1.04
1696,0.92,-0.16,0.97,-0.12,0.12,1.15,1.04,1.08,1.09
1713,0.88,-0.25,0.92,-0.21,0.21,1.19,1.09,1.13,1.13
