frequency,raw,error,smoothed,error_smoothed,equalization,equalized_raw,equalized_smoothed,target
20,-12.170670483635005,-12.956556684480873,-12.004049555154204,-12.789920408773924,5.999999999999999,-6.170670483635006,-6.004049555154205,0.785886200845868
21,-11.223821493069275,-12.009688741677557,-11.349496531500291,-12.135366134360172,6.0,-5.223821493069275,-5.349496531500291,0.7858672486082812
22,-10.6318891010723,-11.417731557708734,-10.722970919480293,-11.508825690521578,6.0,-4.6318891010723,-4.722970919480293,0.7858424566364333
23,-10.046733259397818,-10.832543678099277,-10.12447271909421,-10.910299077258136,6.0,-4.0467332593978185,-4.124472719094211,0.7858104187014585
24,-9.512442316390084,-10.298211792044217,-9.554001930342029,-10.339786294569837,5.999999999999998,-3.5124423163900858,-3.5540019303420305,0.7857694756541327
25,-8.987822543216568,-9.773540227195234,-9.01319829950976,-9.798928565077407,6.0,-2.987822543216568,-3.01319829950976,0.7857176839786661
26,-8.669941125157518,-9.455593907206627,-8.500231894038437,-9.285894501655967,6.000000000000001,-2.669941125157517,-2.5002318940384365,0.7856527820491079
27,-7.947857846034148,-8.733430000071689,-8.013290879452043,-8.798870701180267,5.999999999999999,-1.9478578460341485,-2.013290879452044,0.7855721540375402
28,-7.449891066499616,-8.235363857928327,-7.549712743748993,-8.33519206802456,6.000000000000001,-1.4498910664996147,-1.5497127437489917,0.785472791428711
29,-7.212354353584573,-7.997705605686026,-7.106263874717694,-7.891621370354308,6.000000000000001,-1.2123543535845718,-1.1062638747176932,0.7853512521014525
30,-6.6242451362030375,-7.40944875314805,-6.680143430810656,-7.46535368767612,5.999999999999999,-0.6242451362030383,-0.6801434308106566,0.7852036169450121
31,-6.194362956501293,-6.979388400488112,-6.269040297673502,-7.054073160188295,6.0,-0.1943629565012932,-0.26904029767350224,0.785025443986819
32,-6.044334954620495,-6.82914667463908,-5.871502456781285,-6.65632251575372,5.9415661808861575,-0.10276877373433724,0.07006372410487227,0.784811720018586
33,-5.494048523755271,-6.278605333475053,-5.486933862780713,-6.271499945963596,5.8205019529619335,0.3264534292066621,0.33356809018122036,0.7845568097197813
34,-5.120685443997457,-5.904939846289271,-5.115286053758576,-5.899550612479947,5.64253389310315,0.5218484491056925,0.5272478393445743,0.7842544022918139
35,-4.684856109493513,-5.468753565126593,-4.756700199689935,-5.540608645991304,5.418915350588436,0.7340592410949229,0.6622151508985006,0.7838974556330802
36,-4.383131971562476,-5.1666101096671095,-4.411114218221758,-5.194604159288852,5.157331859015922,0.7741998874534453,0.7462176407941632,0.7834781381046327
37,-4.0465614413507405,-4.829549209309804,-4.078060056771917,-4.861060444418047,4.8610604444180465,0.814499003067306,0.7830003876461298,0.7829877679590638
38,-3.706798188191392,-4.489214938723068,-3.7567259969648026,-4.539156207201047,4.539156207201048,0.8323580190096558,0.782430210236245,0.7824167505316759
39,-3.6117510913666133,-4.393505604690072,-3.446232312916815,-4.228001154875847,4.228001154875847,0.6162500635092338,0.7817688419590323,0.7817545133234582
40,-3.1629477824855714,-3.943937221626008,-3.1459897486716537,-3.9269944115240802,3.9269944115240807,0.7640466290385093,0.781004662852427,0.7809894391404364
41,-2.7744842626311663,-3.5545930601250357,-2.8559429279814212,-3.636067863782429,3.6360678637824293,0.861583601151263,0.7801249358010081,0.7801087974938694
42,-2.6716735687942093,-3.4507722433054027,-2.5765592646007676,-3.3556750037624834,3.355675003762483,0.6840014349682737,0.7791157391617154,0.7790986745111934
43,-2.2659022037343246,-3.043846105393247,-2.308552174701328,-3.0865140718965307,3.08651407189653,0.8206118681622052,0.777961897195202,0.7779439016589222
44,-1.9693388681091133,-2.7459668517455116,-2.0524669904300548,-2.8291138981158963,2.8291138981158954,0.8597750300067821,0.7766469076858407,0.7766279836363985
45,-1.8367544486340168,-2.6118874744978573,-1.8083437501817616,-2.58349661895135,2.5834966189513495,0.7467421703173327,0.7751528687695879,0.7751330258638407
46,-1.4244974884631332,-2.1979371505229763,-1.575646143617409,-2.349106549551886,2.3491065495518866,0.9246090610887534,0.7734604059344776,0.7734396620598432
47,-1.566206361789317,-2.3377333442721233,-1.3535191188688058,-2.1250677187209757,2.1250677187209757,0.5588613569316587,0.7715485998521698,0.7715269824828064
48,-1.1495499329627568,-1.9189223964605762,-1.1412686208489093,-1.9106635366816689,1.9106635366816689,0.7611136037189121,0.7693949158327595,0.7693724634978194
49,-0.9118112779627071,-1.6787631771882188,-0.938829913463225,-1.7058050489063405,1.7058050489063399,0.7939937709436328,0.7669751354431149,0.7669518992255115
50,-0.7678188108817222,-1.532058147013903,-0.7469741391216111,-1.5112374301900342,1.5112374301900338,0.7434186193083115,0.7642632910684226,0.7642393361321806
51,-0.5737930160992544,-1.3350000276301623,-0.5671117264230247,-1.3283433307924695,1.328343330792469,0.7545503146932147,0.7612316043694444,0.761207011530908
52,-0.36014346448004797,-1.1179687615609142,-0.40073578887297256,-1.158586218589781,1.1585862185897808,0.7984427541097329,0.7578504297168083,0.7578252970808661
53,-0.20365623465864297,-0.9577188831544119,-0.24872268363511219,-1.0028108874838755,1.002810887483876,0.7991546528252329,0.7540882038487637,0.7540626484957689
54,-0.07408097564284104,-0.8239665384441238,-0.11078741856342564,-0.8606988216714323,0.8606988216714322,0.7866178460285912,0.7499114031080065,0.7498855628012828
55,0.042155379803978724,-0.7031031648096467,0.014661605538431204,-0.7306229041993979,0.7306229041993978,0.7727782840033766,0.745284509737829,0.7452585446136255
56,0.14273008560815298,-0.597413997437217,0.1301869896169608,-0.6099829992345321,0.6099829992345321,0.7527130848426851,0.740169988851493,0.74014408304537
57,0.06521271776605249,-0.669289923211093,0.23862416205837772,-0.49590411575980525,0.4959041157598051,0.5611168335258576,0.7345282778181828,0.7345026409771456
58,0.34387950653299953,-0.3844131520291148,0.34228868299160015,-0.3860291069494206,0.38602910694942066,0.7299086134824202,0.7283177899410208,0.7282926585621143
59,0.5271836831711249,-0.19428688977887731,0.4423929960980877,-0.27910193832590935,0.2791019383259094,0.8062856214970342,0.7214949344239971,0.7214705729500022
60,0.47188411785616297,-0.24210673846820213,0.538889029158009,-0.1751251255733532,0.17512512557335322,0.6470092434295162,0.7140141547313622,0.7139908563243651
61,0.6456037825964718,-0.06020229183888204,0.630782936900739,-0.07504505063047859,0.07504505063047859,0.7206488332269504,0.7058279875312177,0.7058060744353538
62,0.7461785759172057,0.04931160804285484,0.7167889987760819,0.01990185429818925,-0.019901854298189244,0.7262767216190165,0.6968871444778927,0.6968669678743509
63,0.8467533278072887,0.1596307694376342,0.7960716362976462,0.10893101718087875,-0.10893101718087878,0.7378223106264099,0.6871406191167675,0.6871225583696545
64,0.846753243919031,0.17023296154276057,0.8688063771882872,0.19227055596855697,-0.19227055596855697,0.6544826879504739,0.6765358212197303,0.6765202823762704
65,0.9473276501786237,0.28232149599881573,0.9363699027126979,0.2713511620744341,-0.271351162074434,0.6759764881041898,0.6650187406382639,0.665006154179808
66,1.0479017581768022,0.39537679755093347,1.0011085974235663,0.34857445445298463,-0.3485744544529847,0.6993273037238175,0.6525341429705815,0.6525249606258687
67,0.9883226278020073,0.3493021383885212,1.0657778139412972,0.4267520147147123,-0.4267520147147122,0.5615706130872951,0.6390257992265851,0.6390204894134861
68,1.1316055828814529,0.507169790235988,1.1328422503193258,0.5084054996879388,-0.5084054996879389,0.6232000831935139,0.6244367506313869,0.6244357926454649
69,1.1082441555529612,0.4995306685511607,1.2038556164081355,0.5951460074275627,-0.5951460074275627,0.5130981481253984,0.6087096089805728,0.6087134870018005
70,1.3898538993031972,0.7980578078157574,1.2790970638092363,0.687310169740642,-0.6873101697406423,0.702543729562555,0.591786894068594,0.5917960914874398
71,1.3093967415754555,0.7357703383786423,1.3575537065541354,0.7839422949471339,-0.7839422949471342,0.5254544466283213,0.5736114116070012,0.5736264031968132
72,1.4130146254796843,0.8588667145487328,1.4372338548486727,0.883107180759517,-0.8831071807595168,0.5299074447201675,0.554126674089156,0.5541479109309515
73,1.5507903469889284,1.0174851011911628,1.5157051578643006,0.9824277982159881,-0.9824277982159881,0.5683625487729402,0.5332773596483125,0.5333052457977656
74,1.5508014874388854,1.0397568203145877,1.5906984176823387,1.0796886196677238,-1.0796886196677238,0.47111286777116157,0.5110097980146149,0.5110446671242976
75,1.7284147358686088,1.2411001547506257,1.660609438661077,1.1733369707092345,-1.1733369707092345,0.5550777651593743,0.48727246795184254,0.4873145811179831
76,1.7900363190976072,1.3279702303545697,1.7247672699967458,1.2627507728022287,-1.262750772802229,0.5272855462953783,0.4620164971945169,0.46206608874303745
77,1.7117306362334794,1.2764770779892771,1.7834080649544712,1.3482118747629954,-1.3482118747629954,0.363518761470484,0.4351961901914758,0.4352535582442023
78,1.852507463342163,1.4456722466673555,1.8373818105745126,1.4306121508908114,-1.4306121508908114,0.4218953124513516,0.40676965968370116,0.4068352166748075
79,1.8524508868371647,1.4756771331403353,1.8876999688235951,1.511000323757445,-1.5110003237574454,0.3414505630797193,0.3766996450661497,0.3767737536968294
80,1.9425117021604732,1.597474772310482,1.935081233565401,1.5901267425684185,-1.5901267425684187,0.3523849595920545,0.3449544909969824,0.3450369298499911
81,1.9528175891000268,1.6412194086271448,1.9796526002158705,1.668143571725185,-1.6681435717251851,0.28467401737484166,0.3115090284906854,0.311598180472882
82,2.0532605488239657,1.7768233432805487,2.0209098257640177,1.7445649399285301,-1.74456493992853,0.3086956088954358,0.2763448858354878,0.276437205543417
83,2.053147122569753,1.813606587636266,2.0579471857814853,1.8184974299039156,-1.8184974299039158,0.23464969266583724,0.23944975587756945,0.23954053493348715
84,2.0531004601935803,1.8521984022043023,2.0898633547493315,1.8890477399597327,-1.8890477399597332,0.1640527202338471,0.2008156147895983,0.20090205798927796
85,2.1596818528965,1.9991583468972092,2.116178501527952,1.9557415981876347,-1.9557415981876347,0.20394025470886534,0.16043690334031746,0.16052350599929088
86,2.1852399173998927,2.066825041361707,2.13708900944454,2.0187781596470207,-2.0187781596470202,0.16646175775287242,0.1183108497975196,0.11841487603818557
87,2.1545913681999767,2.079996583288483,2.1534484750550966,2.0790059571139756,-2.079005957113976,0.07558541108600059,0.07444251794112056,0.07459478491149385
88,2.1554502479665323,2.1263595054655635,2.166475398681368,2.137619587139735,-2.137619587139735,0.017830660826797295,0.02885581154163308,0.02909074250096877
89,2.1566187613414787,2.1746794266033085,2.177304149981275,2.1956959177903768,-2.1956959177903768,-0.03907715644889809,-0.0183917678091019,-0.01806066526182981
90,2.1459116800757965,2.212725372358946,2.186565520975236,2.2537628895011723,-2.253762889501173,-0.10785120942537674,-0.06719736852593705,-0.0668136922831497
91,2.119315096619633,2.236428550540042,2.1941725627310835,2.3115868373735076,-2.3115868373735067,-0.19227174075387365,-0.11741427464242316,-0.11711345392040906
92,2.235301192884103,2.404197252132785,2.1993999685266,2.368276236403517,-2.368276236403517,-0.13297504351941392,-0.16887626787691712,-0.16889605924868167
93,2.262376903406457,2.484465760110181,2.2012201409329926,2.422667930493544,-2.422667930493544,-0.1602910270870872,-0.22144778956055156,-0.22208885670372425
94,2.262363792528236,2.538974585943917,2.1987526924500598,2.4738434264029703,-2.4738434264029703,-0.21147963387473423,-0.2750907339529105,-0.27661079341568096
95,2.2043498006030218,2.5367226866101342,2.19164327287596,2.521568826692567,-2.521568826692567,-0.31721902608954533,-0.32992555381660704,-0.33237288600711246
96,2.11689527282027,2.5061740708628713,2.1802278587820996,2.566484567741443,-2.5664845677414423,-0.4495892949211724,-0.3862567089593427,-0.38927879804260135
97,2.1449710544630944,2.5921965712391715,2.165436688924438,2.6099729301216383,-2.609972930121638,-0.46500187565854345,-0.4445362411971998,-0.447225516776077
98,2.1431509286236543,2.6492550480634667,2.1484988664391382,2.6537552875068835,-2.6537552875068835,-0.5106043588832292,-0.5052564210677453,-0.5061041194398124
99,2.13179605261542,2.6975966697619915,2.1305757237531786,2.6993647769656084,-2.6993647769656084,-0.5675687243501883,-0.5687890532124298,-0.5658006171465715
100,2.1173499474689264,2.743546810085519,2.1124557404139415,2.747671061258523,-2.747671061258523,-0.6303211137895968,-0.6352153208445817,-0.6261968626165926
101,2.099916066253196,2.7870875727177973,2.0943969669370346,2.798601109633931,-2.798601109633931,-0.6986850433807348,-0.7042041426968964,-0.6871715064646011
102,2.079802470267211,2.8284034560109537,2.076137293920749,2.851127815133577,-2.8511278151335766,-0.7713253448663657,-0.7749905212128274,-0.7486009857437428
104,2.0575116616618274,2.9298368147021168,2.0570415895159053,2.9035194405785028,-2.9035194405785023,-0.8460077789166749,-0.846477851062597,-0.8723251530402893
105,2.0337122069982723,2.9680828654270925,2.036333115927899,2.953781107359629,-2.95378110735963,-0.9200689003613576,-0.9174479914317311,-0.9343706584288203
106,2.0091950641463123,3.005569632916928,2.0133569475232242,3.0001814143406516,-3.0001814143406516,-0.9909863501943392,-0.9868244668174273,-0.9963745687706158
107,1.9848190429705053,3.043036081595492,1.987826229546236,3.0417386014315966,-3.041738601431597,-1.0569195584610918,-1.0539123718853611,-1.0582170386249867
108,1.9614506882972296,3.081232381988877,1.9599961162714408,3.0785387631955157,-3.0785387631955157,-1.117088074898286,-1.118542646924075,-1.1197816936916474
109,1.939904075312805,3.120860475520164,1.930702411252902,3.1117799277298355,-3.1117799277298355,-1.1718758524170305,-1.1810775164769334,-1.1809564002073594
110,1.9208856622979025,3.1625196158985753,1.9012148441738077,3.143492444997398,-3.143492444997398,-1.2226067826994957,-1.2422776008235905,-1.2416339536006729
111,1.9049486243389568,3.206661304108172,1.8729059553370822,3.1759798124207457,-3.1759798124207466,-1.2710311880817897,-1.3030738570836644,-1.301712679769215
112,1.869031356748444,3.2301283013186985,1.846818332817064,3.211132810033355,-3.2111328100333556,-1.3421014532849116,-1.3643144772162916,-1.3610969445702543
113,1.7241744717511522,3.1438720410481684,1.8232889457584973,3.2498485245765747,-3.249848524576574,-1.5256740528254216,-1.4265595788180765,-1.419697569297016
114,1.731508421723012,3.2089405737052594,1.8018099360932716,3.291785345101329,-3.29178534510133,-1.5602769233783182,-1.4899754090080586,-1.4774321519822475
115,1.7757464227378517,3.30997171900913,1.7812379805336769,3.335581855682883,-3.3355818556828827,-1.559835432945031,-1.5543438751492058,-1.5342252962712783
117,1.8016473563277853,3.4463688237355194,1.7603196201457894,3.3794858606449782,-3.3794858606449774,-1.577838504317192,-1.619166240499188,-1.644721467407734
118,1.8405499488191848,3.5388595226821877,1.7383367101907772,3.4221513233703926,-3.4221513233703917,-1.581601374551207,-1.6838146131796146,-1.698309573863003
119,1.7780573863329594,3.5287836716836685,1.7155793673874697,3.463257966212562,-3.463257966212561,-1.6852005798796017,-1.7476785988250914,-1.750726285350709
120,1.6916645730717783,3.493596318110764,1.6933878297964768,3.5036546774675896,-3.503654677467589,-1.8119901043958109,-1.8102668476711123,-1.8019317450389858
121,1.609987315139726,3.46188012723226,1.6736735277824455,3.5449208201228353,-3.5449208201228357,-1.9349335049831098,-1.8712472923403902,-1.8518928120925344
123,1.575292996792859,3.523274183427783,1.6580674094566015,3.5885022365716175,-3.588502236571618,-2.013209239778759,-1.9304348271150165,-1.947981186634924
124,1.6141081045915249,3.608181370068671,1.6470409498681784,3.6347920492959247,-3.6347920492959256,-2.020683944704401,-1.9877510994277472,-1.9940732654771458
125,1.6215927276362154,3.6604425372443123,1.6394006335794526,3.6825837977277054,-3.6825837977277054,-2.06099107009149,-2.0431831641482527,-2.038849809608097
126,1.6286582898568356,3.7109649812587153,1.632427978261226,3.7291858485401077,-3.7291858485401077,-2.100527558683272,-2.0967578702788816,-2.0823066914018797
128,1.6352468145320669,3.8005149839346632,1.6226701912087569,3.771204164019453,-3.771204164019455,-2.135957349487388,-2.1485339728106982,-2.1652681694025966
129,1.687253793589105,3.892040358263908,1.6070996512768134,3.8057015880751086,-3.8057015880751095,-2.1184477944860047,-2.198601936798296,-2.204786564674803
130,1.7073556412103796,3.950367771141932,1.5841858168980028,3.8312636259242963,-3.831263625924297,-2.1239079847139175,-2.2470778090262944,-2.2430121299315524
131,1.5913133282928646,3.871273831032271,1.5544436629013654,3.84852695144766,-3.8485269514476603,-2.2572136231547955,-2.294083288546295,-2.279960502739406
133,1.3989846046203027,3.749086666115961,1.5202333695022976,3.859948295203754,-3.859948295203755,-2.460963690583452,-2.3397149257014576,-2.3501020614956585
134,1.4444114970468096,3.8277508426551994,1.4848954147916609,3.86890989366443,-3.8689098936644295,-2.42449839661762,-2.3840144788727686,-2.38333934560839
135,1.464045748924439,3.8794327448313926,1.451575461835385,3.878530051686875,-3.8785300516868744,-2.4144843027624354,-2.4269545898514893,-2.4153869959069536
137,1.3882209104490668,3.8642417991031217,1.4222047331447738,3.890652809728264,-3.8906528097282633,-2.5024318992791965,-2.4684480765834893,-2.476020888654055
138,1.2889247680836151,3.7935886289270746,1.3970111087337158,3.905389791893048,-3.905389791893048,-2.616465023809433,-2.508378683159332,-2.5046638608434595
140,1.4194034561772981,3.978153594772635,1.3746955616990792,3.921336813977078,-3.921336813977078,-2.5019333577997798,-2.5466412522779986,-2.558750138595337
141,1.453173496466508,4.037427950487661,1.3531311307866367,3.9363061984642806,-3.9363061984642815,-2.4831327019977736,-2.5831750676776446,-2.5842544540211527
142,1.3943903531399569,4.003164423712079,1.3302488213202637,3.9482265338193567,-3.9482265338193576,-2.5538361806794008,-2.617977712499094,-2.6087740705721214
144,1.2731159625739117,3.928099227201173,1.3047429165924176,3.9558390545868427,-3.9558390545868427,-2.682723092012931,-2.651096137994425,-2.6549832646272615
145,1.272989742369291,3.949724349391728,1.2763554243106388,3.958957279659547,-3.958957279659547,-2.6859675372902556,-2.682601855348908,-2.6767346070224365
147,1.2428904739094355,3.9605736947194865,1.2457103535258234,3.9582736935824685,-3.9582736935824694,-2.7153832196730336,-2.7125633400566462,-2.7176832208100508
148,1.1247646700963467,3.8617049535496464,1.2138577421921521,3.954886169147612,-3.9548861691476116,-2.830121499051265,-2.7410284269554595,-2.7369402834532996
150,1.1392168292243583,3.9123823666501405,1.1817749100723824,3.9497984269107995,-3.949798426910801,-2.8105815976864426,-2.7680235168384186,-2.773165537425782
151,1.2353542004502918,4.025544386098732,1.15003645067266,3.943604226340522,-3.943604226340523,-2.708250025890231,-2.7935677756678627,-2.79019018564844
153,1.1688770159260853,3.9910766805122773,1.1187409069281515,3.9364344177005988,-3.9364344177005983,-2.7675574017745133,-2.817693510772447,-2.8221996645861918
154,1.071698728437053,3.908935546015242,1.0876432215231417,3.9281049256651883,-3.9281049256651888,-2.856406197228136,-2.8404617041420472,-2.837236817578189
156,1.0723876940899209,3.9378888660151814,1.0563587047871072,3.9183235026803684,-3.9183235026803693,-2.8459358085904487,-2.861964797893262,-2.8655011719252608
157,0.9869302518283619,3.8657064288225036,1.0245083970040356,3.9068236516059613,-3.9068236516059605,-2.9198933997775987,-2.8823152546019246,-2.878776176994142
159,0.9023169744687177,3.806042560914529,0.9917484228332183,3.8933733457344344,-3.893373345734435,-2.991056371265717,-2.9016249229012168,-2.9037255864458116
