frequency,raw,error,smoothed,error_smoothed,equalization,parametric_eq,fixed_band_eq,equalized_raw,equalized_smoothed,target
20.00,-13.51,-15.90,-13.52,-15.91,6.00,5.61,2.94,-7.51,-7.52,2.39
20.20,-13.47,-15.89,-13.44,-15.86,6.00,5.63,3.03,-7.47,-7.44,2.42
20.40,-13.36,-15.81,-13.35,-15.80,6.00,5.65,3.11,-7.36,-7.35,2.45
20.61,-13.24,-15.71,-13.24,-15.71,6.00,5.68,3.20,-7.24,-7.24,2.47
20.81,-13.09,-15.60,-13.10,-15.60,6.00,5.70,3.29,-7.09,-7.10,2.50
21.02,-12.96,-15.49,-12.96,-15.48,6.00,5.72,3.39,-6.96,-6.96,2.53
21.23,-12.82,-15.36,-12.81,-15.35,6.00,5.75,3.48,-6.82,-6.81,2.54
21.44,-12.65,-15.20,-12.66,-15.21,6.00,5.77,3.58,-6.65,-6.66,2.55
21.66,-12.51,-15.07,-12.51,-15.07,6.00,5.79,3.68,-6.51,-6.51,2.56
21.87,-12.36,-14.92,-12.36,-14.92,6.00,5.81,3.79,-6.36,-6.36,2.56
22.09,-12.20,-14.77,-12.21,-14.78,6.00,5.84,3.89,-6.20,-6.21,2.57
22.31,-12.06,-14.63,-12.06,-14.63,6.00,5.86,4.01,-6.06,-6.06,2.57
22.54,-11.93,-14.50,-11.92,-14.49,6.00,5.88,4.12,-5.93,-5.92,2.57
22.76,-11.77,-14.33,-11.77,-14.34,6.00,5.91,4.24,-5.77,-5.77,2.57
22.99,-11.63,-14.18,-11.62,-14.18,6.00,5.93,4.35,-5.63,-5.62,2.56
23.22,-11.47,-14.02,-11.47,-14.03,6.00,5.95,4.48,-5.47,-5.47,2.56
23.45,-11.33,-13.88,-11.32,-13.87,6.00,5.97,4.60,-5.33,-5.32,2.56
23.69,-11.16,-13.72,-11.16,-13.72,6.00,6.00,4.73,-5.16,-5.16,2.56
23.92,-11.00,-13.56,-11.01,-13.57,6.00,6.02,4.86,-5.00,-5.01,2.56
24.16,-10.85,-13.42,-10.86,-13.42,6.00,6.04,4.99,-4.85,-4.86,2.57
24.40,-10.71,-13.28,-10.71,-13.27,6.00,6.06,5.13,-4.71,-4.71,2.56
24.65,-10.56,-13.11,-10.56,-13.12,6.00,6.08,5.26,-4.56,-4.56,2.55
24.89,-10.41,-12.97,-10.41,-12.96,6.00,6.10,5.40,-4.41,-4.41,2.55
25.14,-10.25,-12.81,-10.26,-12.81,6.00,6.12,5.54,-4.25,-4.26,2.55
25.39,-10.10,-12.66,-10.11,-12.66,6.00,6.13,5.69,-4.10,-4.11,2.55
25.65,-9.97,-12.52,-9.96,-12.51,6.00,6.15,5.83,-3.97,-3.96,2.55
25.91,-9.82,-12.36,-9.82,-12.36,6.00,6.17,5.97,-3.82,-3.82,2.54
26.16,-9.66,-12.21,-9.68,-12.22,6.00,6.18,6.11,-3.66,-3.68,2.54
26.43,-9.56,-12.10,-9.54,-12.08,6.00,6.20,6.26,-3.56,-3.54,2.54
26.69,-9.40,-11.94,-9.40,-11.94,6.00,6.21,6.40,-3.40,-3.40,2.54
26.96,-9.25,-11.79,-9.26,-11.80,6.00,6.22,6.54,-3.25,-3.26,2.54
27.23,-9.11,-11.65,-9.11,-11.65,6.00,6.23,6.67,-3.11,-3.11,2.54
27.50,-8.97,-11.50,-8.96,-11.50,6.00,6.25,6.81,-2.97,-2.96,2.54
27.77,-8.82,-11.35,-8.82,-11.35,6.00,6.25,6.93,-2.82,-2.82,2.53
28.05,-8.67,-11.19,-8.67,-11.20,6.00,6.26,7.06,-2.67,-2.67,2.53
28.33,-8.53,-11.04,-8.52,-11.04,6.00,6.26,7.17,-2.53,-2.52,2.52
28.62,-8.38,-10.89,-8.37,-10.89,6.00,6.27,7.28,-2.38,-2.37,2.51
28.90,-8.23,-10.74,-8.22,-10.74,6.00,6.27,7.38,-2.23,-2.22,2.51
29.19,-8.07,-10.57,-8.07,-10.58,6.00,6.27,7.47,-2.07,-2.07,2.50
29.48,-7.91,-10.43,-7.91,-10.42,6.00,6.27,7.55,-1.91,-1.91,2.51
29.78,-7.76,-10.26,-7.76,-10.27,6.00,6.27,7.62,-1.76,-1.76,2.50
30.08,-7.62,-10.12,-7.62,-10.12,6.00,6.26,7.67,-1.62,-1.62,2.50
30.38,-7.48,-9.97,-7.47,-9.96,6.00,6.25,7.72,-1.48,-1.47,2.49
30.68,-7.32,-9.80,-7.32,-9.81,6.00,6.24,7.75,-1.32,-1.32,2.49
30.99,-7.18,-9.65,-7.17,-9.65,6.00,6.23,7.76,-1.18,-1.17,2.48
31.30,-7.03,-9.50,-7.03,-9.51,6.00,6.21,7.76,-1.03,-1.03,2.48
31.61,-6.88,-9.35,-6.88,-9.35,6.00,6.20,7.75,-0.88,-0.88,2.47
31.93,-6.74,-9.20,-6.73,-9.19,6.00,6.18,7.72,-0.74,-0.73,2.46
32.24,-6.56,-9.02,-6.58,-9.03,6.00,6.16,7.68,-0.56,-0.58,2.45
32.57,-6.43,-8.88,-6.43,-8.88,6.00,6.13,7.62,-0.43,-0.43,2.45
32.89,-6.28,-8.73,-6.28,-8.72,6.00,6.11,7.55,-0.28,-0.28,2.45
33.22,-6.13,-8.56,-6.13,-8.57,6.00,6.08,7.47,-0.13,-0.13,2.44
33.55,-5.98,-8.42,-5.98,-8.42,6.00,6.05,7.38,0.02,0.02,2.44
33.89,-5.84,-8.26,-5.83,-8.26,6.00,6.01,7.27,0.16,0.17,2.42
34.23,-5.69,-8.11,-5.69,-8.11,6.00,5.97,7.16,0.31,0.31,2.42
34.57,-5.55,-7.96,-5.54,-7.95,6.00,5.93,7.04,0.45,0.46,2.41
34.92,-5.40,-7.80,-5.40,-7.80,6.00,5.89,6.92,0.60,0.60,2.40
35.27,-5.24,-7.64,-5.25,-7.64,6.00,5.85,6.78,0.76,0.75,2.40
35.62,-5.11,-7.49,-5.10,-7.48,6.00,5.80,6.64,0.89,0.90,2.38
35.97,-4.94,-7.32,-4.95,-7.33,6.00,5.75,6.50,1.06,1.05,2.37
36.33,-4.79,-7.17,-4.80,-7.17,6.00,5.70,6.35,1.21,1.20,2.37
36.70,-4.67,-7.03,-4.65,-7.01,6.00,5.64,6.20,1.33,1.35,2.36
37.06,-4.50,-6.85,-4.52,-6.87,6.01,5.59,6.05,1.51,1.50,2.35
37.43,-4.37,-6.72,-4.38,-6.71,6.02,5.53,5.89,1.65,1.65,2.34
37.81,-4.25,-6.58,-4.23,-6.56,6.03,5.46,5.74,1.78,1.79,2.33
38.19,-4.09,-6.41,-4.10,-6.42,6.02,5.40,5.59,1.93,1.92,2.32
38.57,-3.96,-6.27,-3.95,-6.27,6.00,5.33,5.43,2.04,2.04,2.32
38.95,-3.82,-6.13,-3.82,-6.12,5.95,5.26,5.28,2.13,2.14,2.30
39.34,-3.66,-5.95,-3.68,-5.97,5.88,5.19,5.13,2.22,2.20,2.29
39.74,-3.56,-5.83,-3.55,-5.82,5.80,5.12,4.98,2.24,2.25,2.28
40.14,-3.41,-5.68,-3.41,-5.68,5.69,5.04,4.83,2.28,2.27,2.27
40.54,-3.28,-5.54,-3.28,-5.54,5.56,4.97,4.68,2.28,2.28,2.26
40.94,-3.14,-5.39,-3.13,-5.39,5.41,4.89,4.54,2.28,2.28,2.26
41.35,-2.99,-5.23,-2.99,-5.24,5.26,4.81,4.39,2.27,2.27,2.24
41.76,-2.85,-5.09,-2.85,-5.09,5.10,4.72,4.25,2.25,2.25,2.24
42.18,-2.72,-4.95,-2.71,-4.94,4.95,4.64,4.12,2.23,2.23,2.24
42.60,-2.57,-4.79,-2.58,-4.80,4.80,4.55,3.98,2.23,2.22,2.22
43.03,-2.46,-4.67,-2.44,-4.66,4.65,4.46,3.85,2.20,2.21,2.22
43.46,-2.31,-4.51,-2.31,-4.51,4.51,4.37,3.72,2.20,2.19,2.20
43.90,-2.19,-4.37,-2.19,-4.37,4.36,4.28,3.59,2.18,2.18,2.18
44.33,-2.05,-4.22,-2.05,-4.22,4.22,4.19,3.47,2.17,2.17,2.16
44.78,-1.93,-4.08,-1.93,-4.07,4.08,4.10,3.34,2.15,2.15,2.15
45.23,-1.80,-3.93,-1.80,-3.94,3.94,4.00,3.22,2.14,2.14,2.13
45.68,-1.69,-3.80,-1.69,-3.81,3.80,3.91,3.11,2.12,2.12,2.12
46.13,-1.57,-3.68,-1.57,-3.67,3.67,3.81,2.99,2.10,2.10,2.10
46.60,-1.45,-3.54,-1.44,-3.54,3.54,3.71,2.88,2.09,2.10,2.10
47.06,-1.32,-3.40,-1.33,-3.41,3.41,3.61,2.77,2.09,2.09,2.08
47.53,-1.21,-3.27,-1.22,-3.29,3.28,3.51,2.66,2.08,2.07,2.06
48.01,-1.13,-3.19,-1.11,-3.16,3.16,3.41,2.56,2.03,2.05,2.06
48.49,-1.02,-3.05,-1.01,-3.05,3.04,3.31,2.46,2.02,2.03,2.03
48.97,-0.91,-2.91,-0.92,-2.93,2.92,3.20,2.36,2.01,2.00,2.00
49.46,-0.83,-2.80,-0.82,-2.80,2.80,3.10,2.26,1.98,1.99,1.98
49.96,-0.74,-2.69,-0.73,-2.69,2.69,2.99,2.16,1.96,1.96,1.95
50.46,-0.63,-2.57,-0.64,-2.58,2.58,2.89,2.07,1.96,1.94,1.94
50.96,-0.57,-2.49,-0.55,-2.47,2.47,2.78,1.98,1.91,1.92,1.93
51.47,-0.47,-2.36,-0.47,-2.37,2.37,2.68,1.89,1.90,1.90,1.90
51.99,-0.39,-2.27,-0.39,-2.27,2.27,2.57,1.80,1.88,1.88,1.88
52.51,-0.31,-2.18,-0.30,-2.17,2.17,2.46,1.71,1.86,1.87,1.87
53.03,-0.22,-2.07,-0.23,-2.08,2.07,2.36,1.63,1.86,1.85,1.85
53.56,-0.16,-1.99,-0.15,-1.98,1.98,2.25,1.55,1.82,1.83,1.83
54.10,-0.08,-1.89,-0.07,-1.88,1.88,2.14,1.47,1.80,1.81,1.81
54.64,0.01,-1.78,0.00,-1.79,1.79,2.03,1.39,1.80,1.79,1.79
55.18,0.07,-1.70,0.08,-1.69,1.69,1.93,1.32,1.77,1.78,1.77
55.74,0.15,-1.60,0.15,-1.60,1.60,1.82,1.24,1.75,1.76,1.75
56.29,0.23,-1.50,0.22,-1.51,1.51,1.71,1.17,1.75,1.74,1.74
56.86,0.28,-1.43,0.29,-1.42,1.42,1.61,1.10,1.71,1.72,1.72
57.42,0.36,-1.33,0.36,-1.34,1.34,1.50,1.04,1.71,1.70,1.70
58.00,0.42,-1.26,0.43,-1.26,1.26,1.39,0.97,1.68,1.69,1.68
58.58,0.49,-1.18,0.50,-1.17,1.18,1.29,0.91,1.67,1.68,1.67
59.16,0.56,-1.09,0.56,-1.10,1.10,1.18,0.85,1.67,1.66,1.66
59.76,0.61,-1.03,0.61,-1.03,1.02,1.08,0.79,1.64,1.64,1.64
60.35,0.66,-0.96,0.67,-0.95,0.94,0.97,0.73,1.61,1.61,1.62
60.96,0.72,-0.88,0.73,-0.87,0.87,0.87,0.68,1.59,1.59,1.60
61.57,0.79,-0.78,0.79,-0.79,0.79,0.77,0.63,1.58,1.57,1.57
62.18,0.84,-0.70,0.85,-0.70,0.71,0.67,0.58,1.55,1.55,1.54
62.80,0.90,-0.62,0.91,-0.62,0.62,0.57,0.53,1.53,1.53,1.53
63.43,0.96,-0.54,0.97,-0.54,0.54,0.47,0.48,1.50,1.50,1.50
64.07,1.03,-0.45,1.03,-0.46,0.45,0.38,0.44,1.49,1.48,1.48
64.71,1.09,-0.37,1.10,-0.37,0.36,0.28,0.39,1.46,1.46,1.47
65.35,1.16,-0.29,1.17,-0.28,0.28,0.19,0.35,1.44,1.44,1.45
66.01,1.24,-0.19,1.24,-0.19,0.19,0.10,0.31,1.43,1.43,1.43
66.67,1.32,-0.09,1.32,-0.10,0.10,0.01,0.27,1.42,1.41,1.41
67.33,1.38,-0.01,1.39,-0.00,0.01,-0.08,0.24,1.39,1.40,1.39
68.01,1.45,0.08,1.46,0.09,-0.08,-0.16,0.20,1.37,1.37,1.37
68.69,1.53,0.18,1.52,0.17,-0.17,-0.24,0.17,1.36,1.35,1.35
69.37,1.58,0.25,1.59,0.26,-0.26,-0.32,0.14,1.33,1.33,1.33
70.07,1.64,0.34,1.65,0.34,-0.34,-0.40,0.10,1.31,1.31,1.31
70.77,1.70,0.41,1.70,0.41,-0.42,-0.48,0.07,1.29,1.29,1.30
71.48,1.76,0.49,1.76,0.49,-0.49,-0.55,0.04,1.28,1.27,1.27
72.19,1.80,0.55,1.81,0.56,-0.56,-0.62,0.01,1.25,1.25,1.25
72.91,1.84,0.62,1.84,0.62,-0.62,-0.68,-0.02,1.23,1.23,1.23
73.64,1.88,0.68,1.88,0.68,-0.67,-0.75,-0.04,1.21,1.20,1.20
74.38,1.89,0.71,1.91,0.73,-0.72,-0.81,-0.07,1.17,1.19,1.18
75.12,1.94,0.78,1.93,0.77,-0.76,-0.87,-0.10,1.18,1.17,1.16
75.87,1.94,0.80,1.94,0.80,-0.80,-0.92,-0.13,1.15,1.14,1.14
76.63,1.94,0.82,1.95,0.83,-0.82,-0.98,-0.15,1.12,1.13,1.13
77.40,1.94,0.84,1.95,0.84,-0.84,-1.03,-0.18,1.10,1.11,1.11
78.17,1.94,0.86,1.94,0.86,-0.85,-1.07,-0.21,1.09,1.09,1.08
78.95,1.94,0.87,1.93,0.86,-0.86,-1.12,-0.23,1.08,1.07,1.07
79.74,1.89,0.84,1.92,0.87,-0.86,-1.16,-0.26,1.03,1.05,1.05
80.54,1.89,0.86,1.89,0.86,-0.86,-1.20,-0.29,1.03,1.03,1.03
81.35,1.89,0.88,1.87,0.86,-0.87,-1.23,-0.32,1.03,1.01,1.01
82.16,1.84,0.86,1.86,0.87,-0.87,-1.26,-0.34,0.97,0.99,0.99
82.98,1.84,0.87,1.85,0.88,-0.88,-1.30,-0.37,0.96,0.97,0.98
83.81,1.84,0.90,1.84,0.89,-0.90,-1.32,-0.40,0.95,0.94,0.94
84.65,1.84,0.92,1.84,0.91,-0.92,-1.35,-0.43,0.93,0.92,0.92
85.50,1.84,0.94,1.85,0.94,-0.95,-1.37,-0.46,0.90,0.90,0.91
86.35,1.84,0.96,1.86,0.97,-0.98,-1.39,-0.49,0.86,0.87,0.88
87.22,1.89,1.03,1.88,1.02,-1.02,-1.41,-0.52,0.87,0.86,0.86
88.09,1.89,1.06,1.90,1.07,-1.07,-1.43,-0.55,0.83,0.84,0.83
88.97,1.94,1.12,1.93,1.12,-1.11,-1.44,-0.58,0.83,0.82,0.82
89.86,1.94,1.15,1.95,1.16,-1.16,-1.45,-0.62,0.78,0.79,0.79
90.76,1.98,1.23,1.97,1.21,-1.21,-1.46,-0.65,0.78,0.77,0.76
91.66,1.98,1.24,1.99,1.25,-1.25,-1.47,-0.68,0.73,0.74,0.74
92.58,2.00,1.30,2.01,1.30,-1.30,-1.48,-0.72,0.71,0.71,0.70
93.51,2.03,1.35,2.02,1.34,-1.34,-1.48,-0.75,0.70,0.69,0.69
94.44,2.03,1.37,2.03,1.38,-1.38,-1.49,-0.79,0.66,0.66,0.66
95.39,2.03,1.40,2.04,1.41,-1.41,-1.49,-0.82,0.62,0.63,0.63
96.34,2.03,1.44,2.03,1.44,-1.44,-1.49,-0.86,0.59,0.59,0.59
97.30,2.03,1.47,2.03,1.47,-1.47,-1.49,-0.90,0.56,0.56,0.56
98.28,2.03,1.50,2.04,1.50,-1.50,-1.49,-0.93,0.54,0.54,0.54
99.26,2.03,1.53,2.03,1.52,-1.52,-1.49,-0.97,0.51,0.51,0.51
100.25,2.03,1.56,2.02,1.54,-1.54,-1.49,-1.01,0.50,0.48,0.48
101.25,1.98,1.53,2.00,1.55,-1.55,-1.49,-1.05,0.43,0.45,0.45
102.27,1.98,1.56,1.98,1.56,-1.56,-1.48,-1.08,0.42,0.42,0.42
103.29,1.94,1.56,1.95,1.56,-1.56,-1.48,-1.12,0.38,0.39,0.38
104.32,1.93,1.57,1.93,1.57,-1.56,-1.48,-1.16,0.37,0.36,0.36
105.37,1.89,1.56,1.89,1.56,-1.56,-1.47,-1.20,0.33,0.33,0.33
106.42,1.84,1.54,1.85,1.55,-1.55,-1.47,-1.23,0.29,0.30,0.30
107.48,1.81,1.54,1.81,1.54,-1.54,-1.46,-1.27,0.27,0.27,0.27
108.56,1.76,1.53,1.77,1.53,-1.53,-1.46,-1.30,0.23,0.24,0.23
109.64,1.73,1.53,1.72,1.52,-1.52,-1.45,-1.34,0.22,0.21,0.20
110.74,1.67,1.50,1.68,1.51,-1.50,-1.44,-1.37,0.17,0.18,0.18
111.85,1.62,1.48,1.63,1.49,-1.49,-1.44,-1.40,0.14,0.14,0.15
112.97,1.59,1.50,1.58,1.47,-1.47,-1.43,-1.43,0.12,0.10,0.10
114.10,1.52,1.46,1.53,1.46,-1.46,-1.42,-1.46,0.06,0.07,0.07
115.24,1.46,1.43,1.47,1.44,-1.45,-1.42,-1.49,0.02,0.03,0.03
116.39,1.42,1.43,1.42,1.43,-1.43,-1.41,-1.51,-0.01,-0.01,-0.01
117.55,1.37,1.42,1.38,1.42,-1.42,-1.40,-1.54,-0.05,-0.04,-0.05
118.73,1.34,1.43,1.34,1.42,-1.41,-1.40,-1.56,-0.07,-0.08,-0.08
119.92,1.29,1.40,1.30,1.41,-1.41,-1.39,-1.57,-0.11,-0.11,-0.11
121.12,1.25,1.40,1.26,1.40,-1.41,-1.38,-1.59,-0.15,-0.15,-0.15
122.33,1.22,1.41,1.22,1.40,-1.40,-1.38,-1.60,-0.18,-0.18,-0.18
123.55,1.19,1.40,1.19,1.40,-1.41,-1.37,-1.61,-0.21,-0.21,-0.21
124.79,1.16,1.41,1.17,1.41,-1.41,-1.36,-1.62,-0.24,-0.24,-0.24
126.03,1.13,1.41,1.13,1.41,-1.41,-1.36,-1.63,-0.28,-0.28,-0.28
127.29,1.10,1.42,1.10,1.42,-1.42,-1.35,-1.63,-0.31,-0.32,-0.31
128.57,1.05,1.41,1.07,1.42,-1.42,-1.34,-1.63,-0.37,-0.35,-0.36
129.85,1.04,1.43,1.03,1.42,-1.42,-1.33,-1.62,-0.38,-0.39,-0.39
131.15,1.00,1.43,1.00,1.42,-1.42,-1.33,-1.62,-0.42,-0.42,-0.42
132.46,0.96,1.42,0.97,1.43,-1.43,-1.32,-1.61,-0.46,-0.45,-0.46
133.79,0.94,1.42,0.94,1.43,-1.43,-1.31,-1.60,-0.48,-0.49,-0.48
135.12,0.91,1.43,0.91,1.42,-1.42,-1.30,-1.59,-0.51,-0.52,-0.52
136.48,0.87,1.41,0.88,1.42,-1.42,-1.30,-1.57,-0.55,-0.54,-0.54
137.84,0.83,1.40,0.84,1.41,-1.41,-1.29,-1.56,-0.58,-0.58,-0.57
139.22,0.80,1.41,0.80,1.41,-1.40,-1.28,-1.54,-0.60,-0.60,-0.61
140.61,0.76,1.40,0.77,1.40,-1.40,-1.27,-1.52,-0.63,-0.63,-0.64
142.02,0.73,1.38,0.73,1.38,-1.38,-1.26,-1.50,-0.65,-0.66,-0.65
143.44,0.68,1.36,0.69,1.37,-1.37,-1.25,-1.48,-0.69,-0.68,-0.68
144.87,0.65,1.36,0.65,1.35,-1.36,-1.25,-1.45,-0.70,-0.70,-0.70
146.32,0.62,1.35,0.61,1.34,-1.34,-1.24,-1.43,-0.72,-0.73,-0.73
147.78,0.56,1.31,0.57,1.32,-1.33,-1.23,-1.41,-0.76,-0.75,-0.75
149.26,0.53,1.31,0.53,1.31,-1.31,-1.22,-1.38,-0.78,-0.78,-0.77
150.75,0.49,1.30,0.49,1.29,-1.30,-1.21,-1.36,-0.80,-0.80,-0.81
152.26,0.45,1.29,0.45,1.28,-1.28,-1.20,-1.33,-0.83,-0.83,-0.83
153.78,0.41,1.27,0.41,1.27,-1.27,-1.19,-1.31,-0.86,-0.86,-0.86
155.32,0.36,1.25,0.37,1.26,-1.26,-1.17,-1.28,-0.89,-0.89,-0.89
156.88,0.33,1.25,0.33,1.24,-1.25,-1.16,-1.26,-0.91,-0.91,-0.91
158.44,0.29,1.24,0.29,1.23,-1.23,-1.15,-1.23,-0.94,-0.94,-0.94
160.03,0.24,1.22,0.25,1.22,-1.22,-1.14,-1.21,-0.97,-0.97,-0.97
161.63,0.19,1.20,0.20,1.20,-1.20,-1.13,-1.19,-1.01,-1.00,-1.01
163.24,0.15,1.19,0.15,1.18,-1.18,-1.11,-1.17,-1.03,-1.03,-1.04
164.88,0.10,1.16,0.10,1.16,-1.16,-1.10,-1.14,-1.06,-1.06,-1.06
166.53,0.05,1.14,0.06,1.14,-1.14,-1.09,-1.12,-1.09,-1.09,-1.08
168.19,0.00,1.12,0.01,1.12,-1.12,-1.08,-1.10,-1.11,-1.11,-1.11
169.87,-0.04,1.11,-0.04,1.10,-1.09,-1.06,-1.08,-1.13,-1.13,-1.14
171.57,-0.09,1.08,-0.09,1.07,-1.07,-1.05,-1.06,-1.16,-1.16,-1.17
173.29,-0.16,1.04,-0.15,1.04,-1.05,-1.03,-1.04,-1.20,-1.20,-1.20
175.02,-0.22,1.01,-0.21,1.02,-1.02,-1.02,-1.03,-1.24,-1.23,-1.22
176.77,-0.27,0.99,-0.26,0.99,-1.00,-1.01,-1.01,-1.27,-1.27,-1.26
178.54,-0.31,0.99,-0.31,0.98,-0.98,-0.99,-1.00,-1.29,-1.29,-1.29
180.32,-0.36,0.96,-0.36,0.96,-0.96,-0.98,-0.98,-1.32,-1.32,-1.32
182.13,-0.41,0.94,-0.40,0.95,-0.95,-0.96,-0.97,-1.35,-1.35,-1.34
183.95,-0.45,0.93,-0.44,0.93,-0.93,-0.95,-0.95,-1.38,-1.38,-1.38
185.79,-0.48,0.93,-0.48,0.92,-0.92,-0.93,-0.94,-1.40,-1.40,-1.40
187.65,-0.53,0.91,-0.52,0.91,-0.91,-0.92,-0.93,-1.44,-1.43,-1.44
189.52,-0.56,0.90,-0.56,0.90,-0.90,-0.90,-0.92,-1.46,-1.46,-1.46
191.42,-0.60,0.89,-0.59,0.89,-0.89,-0.89,-0.91,-1.49,-1.49,-1.48
193.33,-0.62,0.89,-0.62,0.88,-0.89,-0.87,-0.90,-1.50,-1.51,-1.50
195.27,-0.66,0.87,-0.65,0.88,-0.88,-0.86,-0.89,-1.54,-1.53,-1.53
197.22,-0.67,0.88,-0.67,0.88,-0.88,-0.84,-0.89,-1.54,-1.55,-1.55
199.19,-0.70,0.88,-0.70,0.87,-0.87,-0.83,-0.88,-1.56,-1.57,-1.58
201.18,-0.72,0.87,-0.72,0.87,-0.86,-0.81,-0.87,-1.58,-1.58,-1.59
203.19,-0.76,0.84,-0.75,0.85,-0.85,-0.80,-0.87,-1.61,-1.60,-1.60
205.23,-0.76,0.86,-0.77,0.84,-0.84,-0.78,-0.86,-1.60,-1.61,-1.62
207.28,-0.81,0.81,-0.80,0.83,-0.83,-0.76,-0.85,-1.64,-1.63,-1.62
209.35,-0.81,0.83,-0.82,0.82,-0.82,-0.75,-0.85,-1.63,-1.64,-1.64
211.44,-0.86,0.80,-0.84,0.81,-0.81,-0.73,-0.84,-1.67,-1.65,-1.66
213.56,-0.86,0.80,-0.86,0.80,-0.80,-0.72,-0.84,-1.66,-1.66,-1.65
215.69,-0.86,0.80,-0.87,0.78,-0.79,-0.70,-0.84,-1.65,-1.67,-1.65
217.85,-0.90,0.76,-0.88,0.78,-0.78,-0.69,-0.83,-1.68,-1.66,-1.66
220.03,-0.90,0.77,-0.89,0.78,-0.77,-0.67,-0.83,-1.67,-1.66,-1.67
222.23,-0.90,0.78,-0.90,0.77,-0.76,-0.66,-0.82,-1.65,-1.66,-1.68
224.45,-0.90,0.77,-0.91,0.75,-0.75,-0.64,-0.82,-1.64,-1.66,-1.66
226.70,-0.95,0.71,-0.93,0.73,-0.73,-0.63,-0.81,-1.68,-1.66,-1.66
228.96,-0.95,0.71,-0.94,0.71,-0.72,-0.61,-0.80,-1.66,-1.66,-1.66
231.25,-0.95,0.70,-0.95,0.70,-0.70,-0.60,-0.80,-1.65,-1.65,-1.64
233.57,-0.95,0.69,-0.95,0.69,-0.69,-0.58,-0.79,-1.63,-1.64,-1.64
235.90,-0.97,0.67,-0.97,0.67,-0.67,-0.57,-0.78,-1.63,-1.63,-1.63
238.26,-0.99,0.64,-0.98,0.65,-0.65,-0.55,-0.78,-1.63,-1.62,-1.63
240.64,-0.99,0.63,-0.98,0.63,-0.63,-0.54,-0.77,-1.61,-1.61,-1.62
243.05,-0.99,0.62,-0.99,0.61,-0.60,-0.52,-0.76,-1.59,-1.60,-1.60
245.48,-1.00,0.59,-1.00,0.58,-0.58,-0.51,-0.75,-1.58,-1.58,-1.59
247.93,-1.03,0.55,-1.02,0.56,-0.56,-0.50,-0.73,-1.58,-1.58,-1.57
250.41,-1.04,0.53,-1.03,0.53,-0.53,-0.48,-0.72,-1.57,-1.56,-1.57
252.92,-1.04,0.50,-1.04,0.50,-0.51,-0.47,-0.71,-1.54,-1.55,-1.54
255.45,-1.04,0.48,-1.04,0.48,-0.49,-0.45,-0.69,-1.52,-1.52,-1.52
258.00,-1.04,0.46,-1.04,0.46,-0.47,-0.44,-0.68,-1.50,-1.50,-1.50
260.58,-1.04,0.45,-1.04,0.45,-0.45,-0.42,-0.66,-1.48,-1.48,-1.48
263.19,-1.04,0.42,-1.03,0.43,-0.43,-0.41,-0.64,-1.47,-1.46,-1.46
265.82,-1.02,0.43,-1.02,0.42,-0.41,-0.39,-0.62,-1.43,-1.43,-1.44
268.48,-1.02,0.40,-1.02,0.40,-0.39,-0.38,-0.60,-1.41,-1.41,-1.42
271.16,-1.02,0.37,-1.01,0.38,-0.37,-0.37,-0.58,-1.39,-1.39,-1.39
273.87,-1.02,0.36,-1.01,0.35,-0.35,-0.35,-0.56,-1.37,-1.37,-1.37
276.61,-1.02,0.33,-1.02,0.33,-0.33,-0.34,-0.54,-1.35,-1.35,-1.35
279.38,-1.02,0.31,-1.02,0.31,-0.31,-0.32,-0.52,-1.32,-1.33,-1.33
282.17,-1.04,0.28,-1.03,0.28,-0.28,-0.31,-0.50,-1.32,-1.31,-1.31
284.99,-1.04,0.25,-1.04,0.25,-0.26,-0.29,-0.47,-1.29,-1.29,-1.28
287.84,-1.04,0.23,-1.04,0.23,-0.23,-0.28,-0.45,-1.27,-1.27,-1.27
290.72,-1.04,0.20,-1.04,0.21,-0.21,-0.26,-0.42,-1.24,-1.24,-1.24
293.63,-1.04,0.19,-1.03,0.19,-0.18,-0.25,-0.40,-1.22,-1.22,-1.22
296.57,-1.04,0.16,-1.03,0.16,-0.15,-0.23,-0.37,-1.19,-1.19,-1.19
299.53,-1.04,0.14,-1.04,0.13,-0.12,-0.22,-0.34,-1.16,-1.16,-1.18
302.53,-1.06,0.10,-1.06,0.09,-0.09,-0.20,-0.32,-1.14,-1.15,-1.16
305.55,-1.09,0.04,-1.08,0.05,-0.06,-0.19,-0.29,-1.14,-1.13,-1.12
308.61,-1.09,0.02,-1.09,0.01,-0.02,-0.17,-0.26,-1.11,-1.11,-1.10
311.69,-1.09,-0.01,-1.09,-0.02,0.01,-0.16,-0.24,-1.08,-1.08,-1.08
314.81,-1.09,-0.05,-1.09,-0.04,0.04,-0.14,-0.21,-1.05,-1.05,-1.04
317.96,-1.09,-0.07,-1.09,-0.07,0.06,-0.13,-0.18,-1.02,-1.02,-1.02
321.14,-1.09,-0.08,-1.09,-0.09,0.09,-0.11,-0.15,-1.00,-1.00,-1.00
324.35,-1.09,-0.10,-1.09,-0.11,0.11,-0.09,-0.13,-0.98,-0.98,-0.98
327.59,-1.09,-0.13,-1.09,-0.13,0.13,-0.08,-0.10,-0.96,-0.96,-0.95
330.87,-1.09,-0.15,-1.09,-0.15,0.15,-0.06,-0.07,-0.94,-0.94,-0.94
334.18,-1.09,-0.17,-1.09,-0.17,0.17,-0.04,-0.04,-0.92,-0.92,-0.92
337.52,-1.09,-0.19,-1.09,-0.19,0.19,-0.03,-0.01,-0.90,-0.90,-0.90
340.90,-1.09,-0.22,-1.09,-0.21,0.21,-0.01,0.01,-0.88,-0.88,-0.87
344.30,-1.09,-0.23,-1.09,-0.23,0.23,0.01,0.04,-0.86,-0.86,-0.85
347.75,-1.09,-0.25,-1.09,-0.25,0.25,0.03,0.07,-0.84,-0.84,-0.83
351.23,-1.09,-0.27,-1.09,-0.27,0.27,0.04,0.10,-0.81,-0.81,-0.81
354.74,-1.09,-0.29,-1.08,-0.29,0.30,0.06,0.13,-0.79,-0.79,-0.80
358.28,-1.09,-0.31,-1.09,-0.31,0.32,0.08,0.16,-0.77,-0.77,-0.78
361.87,-1.09,-0.33,-1.10,-0.34,0.34,0.10,0.19,-0.75,-0.76,-0.76
365.49,-1.13,-0.39,-1.11,-0.37,0.36,0.12,0.22,-0.76,-0.75,-0.74
369.14,-1.13,-0.40,-1.12,-0.40,0.39,0.14,0.24,-0.74,-0.73,-0.73
372.83,-1.13,-0.41,-1.13,-0.41,0.42,0.16,0.27,-0.71,-0.71,-0.71
376.56,-1.13,-0.42,-1.13,-0.43,0.44,0.18,0.30,-0.69,-0.69,-0.70
380.33,-1.13,-0.45,-1.14,-0.46,0.46,0.21,0.33,-0.66,-0.68,-0.67
384.13,-1.17,-0.50,-1.16,-0.49,0.49,0.23,0.36,-0.68,-0.67,-0.66
387.97,-1.18,-0.52,-1.17,-0.52,0.51,0.25,0.39,-0.67,-0.67,-0.66
391.85,-1.18,-0.53,-1.18,-0.54,0.53,0.27,0.42,-0.65,-0.65,-0.65
395.77,-1.18,-0.55,-1.17,-0.54,0.55,0.30,0.45,-0.63,-0.62,-0.63
399.73,-1.18,-0.56,-1.18,-0.56,0.57,0.32,0.48,-0.60,-0.60,-0.62
403.72,-1.18,-0.57,-1.19,-0.58,0.59,0.35,0.51,-0.58,-0.60,-0.61
407.76,-1.21,-0.61,-1.20,-0.61,0.61,0.37,0.54,-0.60,-0.59,-0.60
411.84,-1.23,-0.65,-1.22,-0.64,0.63,0.40,0.57,-0.60,-0.59,-0.58
415.96,-1.23,-0.66,-1.23,-0.66,0.65,0.43,0.59,-0.58,-0.58,-0.57
420.12,-1.23,-0.67,-1.23,-0.67,0.66,0.46,0.62,-0.56,-0.57,-0.56
424.32,-1.23,-0.67,-1.23,-0.67,0.68,0.48,0.65,-0.55,-0.55,-0.55
428.56,-1.23,-0.68,-1.23,-0.68,0.69,0.51,0.68,-0.54,-0.54,-0.54
432.85,-1.23,-0.69,-1.23,-0.70,0.70,0.54,0.70,-0.53,-0.53,-0.53
437.18,-1.23,-0.70,-1.23,-0.71,0.70,0.57,0.73,-0.52,-0.53,-0.52
441.55,-1.23,-0.72,-1.22,-0.71,0.71,0.60,0.76,-0.52,-0.51,-0.50
445.96,-1.22,-0.72,-1.21,-0.71,0.71,0.63,0.78,-0.50,-0.49,-0.49
450.42,-1.18,-0.69,-1.19,-0.71,0.72,0.67,0.80,-0.46,-0.47,-0.48
454.93,-1.18,-0.71,-1.18,-0.71,0.72,0.70,0.83,-0.46,-0.46,-0.46
459.48,-1.18,-0.72,-1.17,-0.72,0.72,0.73,0.85,-0.45,-0.45,-0.46
464.07,-1.18,-0.74,-1.17,-0.73,0.73,0.76,0.87,-0.45,-0.44,-0.44
468.71,-1.16,-0.74,-1.15,-0.73,0.73,0.79,0.89,-0.43,-0.42,-0.42
