frequency,raw,error,smoothed,error_smoothed,equalization,equalized_raw,equalized_smoothed,target
20,-9.116809116809122,-9.133288279203311,-9.08334196393657,-9.099806750461042,5.999999999999998,-3.116809116809124,-3.0833419639365722,0.016479162394188673
21,-8.660968660968663,-8.678614747437962,-8.66373014149975,-8.68137785911598,5.999999999999999,-2.6609686609686642,-2.6637301414997507,0.017646086469297995
22,-8.205128205128206,-8.223890776120777,-8.267811257768093,-8.286584885768521,6.0,-2.205128205128206,-2.267811257768093,0.01876257099257117
23,-7.929003360239401,-7.948830569974543,-7.895585312741602,-7.9154278304186665,6.0,-1.9290033602394008,-1.895585312741602,0.01982720973514196
24,-7.521367521367524,-7.54220586491531,-7.547052306420268,-7.567906693066405,5.999999999999997,-1.5213675213675266,-1.5470523064202704,0.020838343547786575
25,-7.101282247768128,-7.123076276682843,-7.224528682113418,-7.246339982165262,6.000000000000001,-1.1012822477681272,-1.2245286821134167,0.02179402891471538
26,-6.980373638747622,-7.0030656429575995,-6.925118285292685,-6.947829656185891,6.0,-0.9803736387476221,-0.9251182852926849,0.022692004209976968
27,-6.670519876217629,-6.694054023764632,-6.646324849222919,-6.669877256034184,5.999999999999999,-0.6705198762176297,-0.6463248492229203,0.023534147547003226
28,-6.396805663571398,-6.421119138539331,-6.3849576970648405,-6.409288267902932,5.961809641752646,-0.4349960218187521,-0.42314805531219424,0.02431347496793279
29,-6.153846153846153,-6.178870873190927,-6.1377039547175265,-6.162744164753661,5.883218182529502,-0.2706279713166513,-0.2544857721880245,0.02502471934477457
30,-5.92592592592593,-5.951587179396894,-5.902588422575568,-5.9282629665759305,5.7684863225553835,-0.15743960337054652,-0.13410210002018452,0.025661253470963263
31,-5.6980056980057014,-5.724220757565874,-5.678625027927312,-5.7048504568295835,5.628190443445491,-0.06981525456021043,-0.050434584481821254,0.026215059560172893
32,-5.470085470085472,-5.496762279027607,-5.465878985504721,-5.492562695697997,5.468744012379149,-0.0013414577063226574,0.0028650268744279117,0.0266768089421352
33,-5.261974318882783,-5.28901038425642,-5.265001645350497,-5.292041124177251,5.292041124177251,0.030066805294468146,0.027039478826753616,0.027036065373637452
34,-5.014245014245022,-5.041527400237225,-5.076544796871996,-5.1038270714914695,5.10382707149147,0.08958205724644852,0.0272822746194743,0.027282385992203118
35,-4.8524428999029485,-4.879847692197585,-4.900558086206115,-4.927959487408191,4.927959487408191,0.07551658750524215,0.02740140120207535,0.02740479229463677
36,-4.786324786324791,-4.813717113638686,-4.736374482382456,-4.7637606621493,4.7637606621493,-0.022564124175490363,0.027386179766843988,0.02739232731389496
37,-4.558404558404562,-4.585638910010362,-4.582749668783572,-4.60997586756079,4.60997586756079,0.05157130915622776,0.027226198777217547,0.02723435160580001
38,-4.51066820190585,-4.537588979720853,-4.438245897225501,-4.46515743072773,4.46515743072773,-0.04551077117811975,0.02691153350222919,0.026920777815003127
39,-4.330484330484332,-4.356926548613493,-4.3016468516164945,-4.328079751933759,4.328079751933759,-0.0024045785505730777,0.026432900317264085,0.026442218129161255
40,-4.102564102564103,-4.1283541321583055,-4.17223746955986,-4.198019216768202,4.198019216768203,0.0954551142040998,0.025781747208342587,0.0257900295942024
41,-4.102564102564102,-4.1275204905713165,-4.049808531391484,-4.074758792783438,4.074758792783438,-0.02780530978066409,0.024950261391953887,0.024956388007214336
42,-3.8746438746438794,-3.8985780602077407,-3.934389922756509,-3.958321211780202,3.9583212117802025,0.08367733713632308,0.02393128902369357,0.023934185563861288
43,-3.874643874643879,-3.8973607321650934,-3.8258498450757683,-3.848568012689101,3.848568012689101,-0.026075861954777846,0.022718167613332785,0.02271685752121444
44,-3.646723646723651,-3.668021771775662,-3.72357507419694,-3.744879547245082,3.7448795472450827,0.09815590052143186,0.021304473048142647,0.02129812505201123
45,-3.646723646723651,-3.666395308433812,-3.6264485068876313,-3.646132196897904,3.6461321968979035,-0.0005914498257473255,0.019683690010272148,0.019671661710161104
46,-3.583195380222987,-3.601026072049537,-3.533233148504783,-3.5510819658195825,3.5510819658195825,-0.03211341440340432,0.01784881731479926,0.017830691826550282
47,-3.4188034188034213,-3.434570948419614,-3.4432926083252084,-3.45908453121914,3.4590845312191405,0.04028111241571919,0.015791922893932053,0.015767529616192544
48,-3.418803418803421,-3.4322765101896593,-3.357388233098862,-3.3708918991790986,3.370891899179099,-0.04791151962432183,0.013503666080237231,0.013473091386238423
49,-3.2873642357984503,-3.29830062797709,-3.2781711617214127,-3.2891439680692565,3.289143968069255,0.0017797322708048569,0.010972806347842479,0.010936392178639842
50,-3.1908831908831914,-3.199027239788103,-3.210007723003272,-3.2181934416626987,3.2181934416626983,0.027310250779506884,0.0081857186594263,0.008144048904911827
51,-3.1908831908831914,-3.1959630017568954,-3.15796524963276,-3.1630911850955012,3.1630911850955004,-0.027792005787691032,0.005125935462740205,0.005079810873704016
52,-3.1908831908831914,-3.1926073285996743,-3.12610519843326,-3.127878932709046,3.1278789327090455,-0.0630042581741459,0.0017737342757855323,0.001724137716482943
53,-2.9629629629629624,-2.9610168053285477,-3.1155757720371096,-3.113681559910523,3.113681559910524,0.1507185969475615,-0.0018942121265856926,-0.0019461576344146359
54,-2.962962962962962,-2.9570047757053612,-3.12322242055904,-3.117317311922316,3.1173173119223154,0.15435434895935352,-0.005905108636724776,-0.005958187257600667
55,-2.962962962962962,-2.9526197870384383,-3.1414171503502732,-3.1311269274891487,3.1311269274891482,0.16816396452618632,-0.01029022286112502,-0.010343175924523607
56,-3.1908831908831914,-3.175746639984703,-3.1594989648530865,-3.144413989848733,3.1444139898487338,-0.04646920103445762,-0.015084975004352685,-0.015136550898488199
57,-3.418803418803421,-3.3984254881989684,-3.16668222989854,-3.1463533006820774,3.146353300682076,-0.2724501181213448,-0.020328929216463898,-0.020377930604452477
58,-3.418803418803421,-3.392692405823327,-3.155698832588592,-3.1296331456551854,3.129633145655185,-0.28917027314823596,-0.02606568693340705,-0.026111012980093662
59,-3.1908831908831914,-3.1584998227925505,-3.1260175418416316,-3.093674855403279,3.093674855403279,-0.09720833547991248,-0.0323426864383527,-0.03238336809064091
60,-3.1908831908831914,-3.1516370479322324,-3.085423537045293,-3.0462126208642184,3.0462126208642184,-0.144670570018973,-0.03921091618107475,-0.03924614295095896
61,-2.962962962962962,-2.916209273500863,-3.049120421639149,-3.002395869482223,3.0023958694822235,0.03943290651926157,-0.046724552156925725,-0.04675368946209879
62,-2.962962962962962,-2.9079998345206466,-3.036253693577235,-2.981313161828503,2.9813131618285036,0.018350198865541678,-0.05494053174873148,-0.05496312844231532
63,-2.962962962962962,-2.899029098862738,-3.064622061274596,-3.0007039834737714,3.000703983473772,0.037741020510809964,-0.06391807780082415,-0.06393386410022384
64,-2.962962962962962,-2.889235899103587,-3.145040983984333,-3.0713227967258683,3.0713227967258687,0.10835983376290681,-0.07371818725846424,-0.073727063859375
65,-3.0123612075013337,-2.9279560892768357,-3.2770830528995347,-3.192679954182471,3.1926799541824704,0.18031874668113668,-0.0844030987170643,-0.08440511822449803
66,-3.1908831908831914,-3.094852096448059,-3.4476142453668084,-3.3515784933087693,3.3515784933087707,0.16069530242557928,-0.09603575205803772,-0.09603109443513258
67,-3.5823098553400294,-3.4736416592584938,-3.632743695662773,-3.524064443820777,3.5240644438207767,-0.05824541151925278,-0.10867925184199656,-0.10866819608153566
68,-3.972356366484334,-3.8499771276639394,-3.80276215961535,-3.6803658146044556,3.680365814604456,-0.291990551879878,-0.1223963450108938,-0.12237923882039459
69,-4.330484330484332,-4.193258180525156,-3.9287128881177225,-3.7914639665068925,3.791463966506892,-0.5390203639774396,-0.13724892161083035,-0.1372261499591758
70,-4.330484330484333,-4.177214833335167,-3.988740861243517,-3.835443317929173,3.8354433179291734,-0.4950410125551592,-0.15329754331434353,-0.1532694971491657
71,-4.102564102564103,-3.9319960536618943,-3.9724747090758097,-3.8018737093819333,3.8018737093819337,-0.3006903931821694,-0.170600999693876,-0.17056804890220878
72,-3.86752580934267,-3.6783474420648945,-3.8823628670188906,-3.6931469767591114,3.6931469767591114,-0.17437883258355846,-0.18921589025977914,-0.18917836727777537
73,-3.646723646723651,-3.437569215717951,-3.731860985359881,-3.522664750413119,3.522664750413119,-0.1240588963105318,-0.20919623494676198,-0.20915443100569986
74,-3.418803418803421,-3.1882561331866657,-3.5413014555654945,-3.310708336369203,3.310708336369204,-0.10809508243421684,-0.23059311919629044,-0.2305472856167552
75,-3.248618756360221,-2.995214040440495,-3.3328537869762433,-3.0793994046077433,3.0793994046077433,-0.16921935175247782,-0.25345438236850004,-0.2534047159197259
76,-3.127823184852387,-2.8500522494276423,-3.126044621018477,-2.8482202711910243,2.8482202711910243,-0.2796029136613627,-0.27782434982745263,-0.2777709354247446
77,-2.7836658925703808,-2.4799796055004433,-2.9348896950535726,-2.6311461216328276,2.6311461216328276,-0.1525197709375532,-0.303743573420745,-0.3036862870699375
78,-2.7350427350427395,-2.403855785209407,-2.767007850122739,-2.435759356694103,2.4357593566941023,-0.2992833783486373,-0.3312484934286366,-0.33118694983333263
79,-2.7350427350427395,-2.374738088592231,-2.6244202297400694,-2.264049302133151,2.264049302133152,-0.47099343290958773,-0.3603709276069176,-0.3603046464505084
80,-2.50712250712251,-2.11605615868384,-2.50531644531187,-2.1141790430420997,2.1141790430421,-0.3929434640804099,-0.39113740226977,-0.3910663484386703
81,-2.3620159289692753,-1.9385219531034004,-2.4059893104382817,-1.9824207386903572,1.9824207386903574,-0.37959519027891786,-0.4235685717479243,-0.4234939758658749
82,-2.2792022792022806,-1.8215981884893098,-2.3223507668818932,-1.8646715789780903,1.8646715789780908,-0.4145307002241898,-0.45767918790380246,-0.4576040907129708
83,-2.2792022792022806,-1.7857946950313885,-2.2507917562700284,-1.757312673384426,1.7573126733844262,-0.5218896058178544,-0.49347908288560216,-0.49340758417089203
84,-2.2792022792022806,-1.7482929194810946,-2.188465028419098,-1.6574898677656589,1.6574898677656598,-0.6217124114366208,-0.5309751606534383,-0.530909359721186
85,-2.051282051282051,-1.4811740359831047,-2.1332358563701037,-1.563062478329329,1.5630624783293292,-0.4882195729527219,-0.5701733780407745,-0.5701080152989464
86,-2.0512820512820515,-1.440286522097428,-2.083540115923677,-1.4724615866046638,1.472461586604663,-0.5788204646773885,-0.611078529319014,-0.6109955291846236
87,-2.0512820512820515,-1.3977250958032497,-2.038275481478881,-1.3845862360856054,1.3845862360856052,-0.6666958151964464,-0.6536892453932757,-0.6535569554788019
88,-2.051282051282051,-1.3535119152233412,-1.996726214253333,-1.2987392416897188,1.2987392416897192,-0.7525428095923319,-0.6979869725636139,-0.6977701360587099
89,-2.0512820512820515,-1.3076766144981522,-1.9584600387072086,-1.214538906594234,1.214538906594234,-0.8367431446878175,-0.7439211321129746,-0.7436054367838993
90,-1.8673225898337722,-1.0762970734295618,-1.9231592508698374,-1.1317620309696945,1.1317620309696945,-0.7355605588640777,-0.7913972199001429,-0.7910255164042104
91,-1.8233618233618287,-0.9833766862405704,-1.890421722503862,-1.050143642099819,1.0501436420998187,-0.77321818126201,-0.8402780804040433,-0.8399851371212583
92,-1.8233618233618287,-0.932930797302272,-1.8596264024245244,-0.9692184039659942,0.9692184039659939,-0.8541434193958348,-0.8904079984585305,-0.8904310260595567
93,-1.8233618233618287,-0.8810600263568826,-1.8299519735139556,-0.8882894345768368,0.888289434576837,-0.9350723887849918,-0.9416625389371186,-0.9423017970049461
94,-1.8233618233618287,-0.827833881711153,-1.80056185535585,-0.8065468803506091,0.8065468803506093,-1.0168149430112194,-0.9940149750052407,-0.9955279416506757
95,-1.8233618233618287,-0.773329924128694,-1.770868197474786,-0.7232712004680535,0.7232712004680535,-1.1000906228937752,-1.0475969970067325,-1.0500318992331348
96,-1.8233618233618287,-0.717633610548384,-1.7407252373426405,-0.6380014915933038,0.6380014915933037,-1.185360331768525,-1.1027237457493368,-1.1057282128134447
97,-1.7187083911349532,-0.556184611596394,-1.710422565928028,-0.5505655977234619,0.5505655977234618,-1.1681427934114914,-1.1598569682045663,-1.1625237795385592
98,-1.5954415954415995,-0.3751233944725947,-1.6804503876662436,-0.4609531311158206,0.4609531311158206,-1.1344884643257789,-1.219497256550423,-1.2203182009690048
99,-1.5954415954415995,-0.3164373574725359,-1.6511403390878323,-0.3691173655412194,0.3691173655412192,-1.2263242299003803,-1.282022973546613,-1.2790042379690636
100,-1.5954415954415995,-0.25697322273211154,-1.6223725215704832,-0.2748527610217607,0.27485276102176076,-1.3205888344198387,-1.3475197605487224,-1.338468372709488
101,-1.5954415954415992,-0.1968501174019499,-1.5935270324094013,-0.17786841584859844,0.17786841584859847,-1.4175731795930009,-1.415658616560803,-1.3985914780396493
102,-1.5954415954415992,-0.13619200356844718,-1.5637450671182485,-0.07807102663058677,0.07807102663058678,-1.5173705688110124,-1.4856740404876616,-1.459249591873152
104,-1.5954415954415992,-0.013162178930210544,-1.5324065707600796,0.024059645992465586,-0.024059645992465593,-1.6195012414340648,-1.5564662167525452,-1.5822794165113887
105,-1.5954415954415992,0.04826006840654129,-1.4996097767093532,0.12720127915191226,-0.12720127915191226,-1.7226428745935114,-1.6268110558612654,-1.6437016638481405
106,-1.433986963565225,0.2711577724357799,-1.4664171537190707,0.2292063055764514,-0.22920630557645136,-1.6631932691416762,-1.695623459295522,-1.7051447360010048
107,-1.3675213675213698,0.3989561891864044,-1.4347265191804883,0.32747086587971563,-0.3274708658797157,-1.6949922334010854,-1.762197385060204,-1.7664775567077742
108,-1.3675213675213698,0.4600488437185897,-1.4067906098907788,0.4195597672156051,-0.4195597672156051,-1.7870811347369748,-1.8263503771063838,-1.8275702112399594
109,-1.3675213675213698,0.5207736933048142,-1.3845633905737482,0.5038659532200601,-0.5038659532200602,-1.87138732074143,-1.8884293437938084,-1.888295060826184
110,-1.3675213675213698,0.5810064858652337,-1.3691238603415519,0.5800542234048874,-0.5800542234048873,-1.947575590926257,-1.9491780837464392,-1.9485278533866035
111,-1.3675213675213698,0.6406274412610973,-1.3603898111372834,0.6491198899240188,-0.6491198899240187,-2.0166412574453885,-2.009509701061302,-2.008148808782467
112,-1.3675213675213698,0.6995222884541024,-1.3572106755395894,0.713043343902084,-0.7130433439020842,-2.0805647114234542,-2.0702540194416734,-2.067043655975472
113,-1.3675213675213698,0.7575832319169891,-1.3577802367972098,0.7741725745392152,-0.7741725745392151,-2.1416939420605847,-2.131952811336425,-2.125104599438359
114,-1.3675213675213698,0.8147098254104499,-1.3601997630374496,0.8345547782999712,-0.8345547782999714,-2.202076145821341,-2.1947545413374208,-2.1822311929318197
115,-1.3675213675213698,0.8708097328744548,-1.3629881324558086,0.8954362838602062,-0.8954362838602065,-2.2629576513815763,-2.258424416316015,-2.2383311003958246
117,-1.3675213675213698,0.9805120747745106,-1.3653777899587811,0.9570707699451335,-0.9570707699451333,-2.324592137466503,-2.3224485599039144,-2.3480334422958804
118,-1.3675213675213698,1.033192439053614,-1.367323888791777,1.0188620321942747,-1.0188620321942745,-2.386383399715644,-2.386185920986051,-2.400713806574984
119,-1.3675213675213698,1.0845765508165264,-1.3692500536353014,1.0797652168764649,-1.0797652168764647,-2.447286584397834,-2.449015270511766,-2.452097918337896
120,-1.3675213675213698,1.1346162455118396,-1.3716296436834376,1.1388073610772953,-1.138807361077295,-2.506328728598665,-2.5104370047607327,-2.5021376130332094
121,-1.3675213675213698,1.1832728728775765,-1.3745430518570534,1.1955704908625768,-1.1955704908625768,-2.5630918583839466,-2.57011354271963,-2.5507942403989463
123,-1.36752136752137,1.2779154794465895,-1.3773566082969682,1.2505004558501438,-1.2505004558501436,-2.618021823371514,-2.6278570641471117,-2.6454368469679594
124,-1.3675213675213695,1.3224206183820464,-1.3786389858814037,1.304950273504779,-1.304950273504779,-2.6724716410261484,-2.6835892593861828,-2.689941985903416
125,-1.3675213675213698,1.3654718726768529,-1.376370497995129,1.360929348269011,-1.3609293482690108,-2.7284507157903803,-2.73729984626414,-2.7329932401982227
126,-1.3675213675213698,1.407070368976274,-1.3684173508845143,1.4206033816838475,-1.4206033816838475,-2.7881247492052172,-2.789020732568362,-2.774591736497644
128,-1.3675213675213698,1.4880477428871317,-1.3531538982312261,1.4856639310614512,-1.4856639310614514,-2.8531852985828214,-2.838817829292678,-2.8555691104085015
129,-1.3675213675213695,1.525465445710309,-1.3300497180129467,1.5567407789979533,-1.5567407789979537,-2.9242621465193235,-2.8867904970109004,-2.8929868132316785
130,-1.3675213675213698,1.5614842018118815,-1.3000251667569878,1.633039851296324,-1.6330398512963247,-3.0005612188176944,-2.9330650180533127,-2.9290055693332513
131,-1.328974208763188,1.6346781857727544,-1.2654340319318629,1.7123402122091886,-1.7123402122091886,-3.041314420972377,-2.9777742441410515,-2.9636523945359423
133,-1.1396011396011405,1.8918083737831315,-1.2296434208664209,1.7913829467189828,-1.7913829467189832,-2.930984086320124,-3.021026367585404,-3.031409513384272
134,-1.1396011396011403,1.9225902153743406,-1.196312134735974,1.86656272822196,-1.8665627282219603,-3.0061638678231004,-3.0628748629579343,-3.062191354975481
135,-1.1396011396011405,1.9521229602607983,-1.1685708997841409,1.9347328763533493,-1.9347328763533493,-3.0743340159544896,-3.10330377613749,-3.091724099861939
137,-1.1396011396011403,2.0101933257367617,-1.148341587261829,1.993895085823035,-1.9938950858230349,-3.1334962254241754,-3.142236673084864,-3.149794465337902
138,-1.1396011396011403,2.0362339980186155,-1.135986016709655,2.0435810821546414,-2.043581082154642,-3.183182221755782,-3.179567098864297,-3.1758351376197558
140,-1.1396011396011403,2.0876878304588518,-1.1303699604265114,2.084828559025408,-2.084828559025408,-3.2244296986265484,-3.2151985194519197,-3.227288970059992
141,-1.1396011396011403,2.11053679683115,-1.1293068195772935,2.1197706780562986,-2.119770678056298,-3.2593718176574384,-3.249077497633592,-3.2501379364322904
142,-1.1396011396011403,2.13238391975256,-1.13024849475517,2.150958954544012,-2.1509589545440124,-3.2905600941451527,-3.2812074492991825,-3.2719850593537
144,-1.1396011396011405,2.175907718689521,-1.131040774947737,2.180598896700581,-2.1805988967005803,-3.3202000363017206,-3.311639671648317,-3.3155088582906616
145,-1.1396011396011405,2.1949635150093405,-1.1305581978477137,2.2098903524929163,-2.2098903524929168,-3.3494914920940575,-3.3404485503406303,-3.3345646546104812
147,-1.1396011396011403,2.233207761771839,-1.1290660788111853,2.2386379481863994,-2.238637948186399,-3.3782390877875392,-3.3677040269975844,-3.3728089013729794
148,-1.1396011396011403,2.2497516561926547,-1.1282114096694282,2.2652426858007035,-2.2652426858007026,-3.404843825401843,-3.3934540954701307,-3.389352795793795
150,-1.1396011396011403,2.283253787533157,-1.130613662367594,2.287110474768625,-2.2871104747686255,-3.426711614369766,-3.4177241371362195,-3.4228549271342974
151,-1.1396011396011403,2.2975431854316177,-1.1391124099914247,2.301418855354058,-2.3014188553540587,-3.441019994955199,-3.4405312653454834,-3.437144325032758
153,-1.1396011396011405,2.3268022505835466,-1.1558260369958626,2.3060788159054155,-2.306078815905415,-3.445679955506556,-3.4619048529012777,-3.466403390184687
154,-1.1396011396011403,2.3390700805577196,-1.1812614605769118,2.300640752646501,-2.300640752646501,-3.4402418922476414,-3.481902213223413,-3.47867122015886
