frequency,raw,smoothed,error,error_smoothed,equalization,parametric_eq,fixed_band_eq,equalized_raw,equalized_smoothed,target
20.00,-6.38,-6.38,-11.32,-11.32,6.00,6.35,2.84,-0.38,-0.38,4.94
20.20,-6.29,-6.28,-11.26,-11.26,6.00,6.34,2.92,-0.29,-0.28,4.97
20.40,-6.19,-6.19,-11.19,-11.19,6.00,6.34,3.00,-0.19,-0.19,5.00
20.61,-6.10,-6.10,-11.12,-11.12,6.00,6.34,3.09,-0.10,-0.10,5.02
20.81,-6.00,-6.00,-11.05,-11.05,6.00,6.33,3.17,0.00,0.00,5.05
21.02,-5.91,-5.91,-10.99,-10.98,6.00,6.33,3.26,0.09,0.09,5.08
21.23,-5.81,-5.81,-10.90,-10.90,6.00,6.33,3.36,0.19,0.19,5.09
21.44,-5.72,-5.71,-10.82,-10.82,6.00,6.32,3.45,0.28,0.29,5.10
21.66,-5.62,-5.62,-10.73,-10.73,6.00,6.32,3.55,0.38,0.38,5.11
21.87,-5.53,-5.53,-10.64,-10.64,6.00,6.31,3.65,0.47,0.47,5.11
22.09,-5.45,-5.46,-10.57,-10.57,6.00,6.31,3.75,0.55,0.54,5.12
22.31,-5.40,-5.39,-10.52,-10.51,6.00,6.31,3.86,0.60,0.61,5.12
22.54,-5.35,-5.34,-10.47,-10.46,6.00,6.30,3.97,0.65,0.66,5.12
22.76,-5.29,-5.29,-10.41,-10.41,6.00,6.30,4.08,0.71,0.71,5.12
22.99,-5.24,-5.24,-10.34,-10.35,6.00,6.29,4.20,0.76,0.76,5.11
23.22,-5.19,-5.18,-10.29,-10.29,6.00,6.29,4.32,0.81,0.82,5.11
23.45,-5.13,-5.14,-10.23,-10.24,6.00,6.28,4.44,0.87,0.86,5.11
23.69,-5.08,-5.08,-10.18,-10.19,6.00,6.28,4.56,0.92,0.92,5.10
23.92,-5.03,-5.02,-10.13,-10.12,6.00,6.27,4.68,0.97,0.98,5.10
24.16,-4.94,-4.93,-10.05,-10.04,6.00,6.27,4.81,1.06,1.07,5.11
24.40,-4.83,-4.83,-9.94,-9.94,6.00,6.26,4.94,1.17,1.17,5.11
24.65,-4.72,-4.72,-9.82,-9.82,6.00,6.26,5.07,1.28,1.28,5.10
24.89,-4.61,-4.61,-9.71,-9.71,6.00,6.25,5.21,1.39,1.39,5.10
25.14,-4.51,-4.51,-9.61,-9.61,6.00,6.25,5.34,1.49,1.49,5.10
25.39,-4.43,-4.42,-9.52,-9.52,6.00,6.24,5.48,1.57,1.58,5.10
25.65,-4.35,-4.34,-9.45,-9.44,6.00,6.24,5.62,1.65,1.66,5.10
25.91,-4.27,-4.28,-9.36,-9.37,6.00,6.23,5.76,1.73,1.72,5.09
26.16,-4.22,-4.22,-9.30,-9.30,6.00,6.22,5.89,1.78,1.78,5.09
26.43,-4.18,-4.18,-9.26,-9.26,6.00,6.22,6.03,1.82,1.82,5.08
26.69,-4.14,-4.14,-9.22,-9.22,6.00,6.21,6.17,1.86,1.86,5.08
26.96,-4.11,-4.10,-9.19,-9.18,6.00,6.21,6.30,1.89,1.90,5.08
27.23,-4.05,-4.05,-9.13,-9.13,6.00,6.20,6.44,1.95,1.95,5.08
27.50,-3.99,-3.99,-9.07,-9.07,6.00,6.19,6.57,2.01,2.01,5.08
27.77,-3.94,-3.93,-9.00,-9.01,6.00,6.19,6.69,2.06,2.07,5.07
28.05,-3.88,-3.88,-8.94,-8.94,6.00,6.18,6.81,2.12,2.12,5.07
28.33,-3.81,-3.81,-8.86,-8.87,6.00,6.17,6.93,2.19,2.19,5.05
28.62,-3.74,-3.74,-8.79,-8.79,6.00,6.17,7.04,2.26,2.26,5.05
28.90,-3.66,-3.65,-8.71,-8.70,6.00,6.16,7.14,2.34,2.35,5.05
29.19,-3.56,-3.55,-8.60,-8.59,6.00,6.15,7.24,2.44,2.45,5.04
29.48,-3.43,-3.43,-8.47,-8.47,6.00,6.15,7.32,2.57,2.57,5.05
29.78,-3.30,-3.31,-8.34,-8.34,6.00,6.14,7.40,2.70,2.69,5.04
30.08,-3.20,-3.21,-8.23,-8.24,6.00,6.13,7.46,2.80,2.79,5.03
30.38,-3.14,-3.13,-8.16,-8.16,6.00,6.12,7.52,2.86,2.87,5.02
30.68,-3.09,-3.08,-8.11,-8.10,6.00,6.12,7.56,2.91,2.92,5.02
30.99,-3.03,-3.04,-8.04,-8.05,6.00,6.11,7.60,2.97,2.96,5.01
31.30,-3.01,-3.01,-8.01,-8.02,6.00,6.10,7.62,2.99,2.99,5.01
31.61,-2.99,-2.99,-7.99,-7.99,6.00,6.09,7.63,3.01,3.01,5.00
31.93,-2.97,-2.96,-7.96,-7.95,6.00,6.08,7.63,3.03,3.04,4.99
32.24,-2.91,-2.91,-7.89,-7.89,6.00,6.08,7.62,3.09,3.09,4.98
32.57,-2.84,-2.84,-7.82,-7.82,6.00,6.07,7.59,3.16,3.16,4.98
32.89,-2.77,-2.77,-7.74,-7.74,6.00,6.06,7.56,3.23,3.23,4.97
33.22,-2.69,-2.69,-7.65,-7.65,6.00,6.05,7.51,3.31,3.31,4.96
33.55,-2.61,-2.61,-7.57,-7.57,6.00,6.04,7.46,3.39,3.39,4.96
33.89,-2.53,-2.53,-7.47,-7.48,6.00,6.03,7.40,3.47,3.47,4.95
34.23,-2.45,-2.44,-7.39,-7.38,6.00,6.03,7.33,3.55,3.56,4.94
34.57,-2.37,-2.37,-7.30,-7.30,6.00,6.02,7.26,3.63,3.63,4.93
34.92,-2.30,-2.31,-7.22,-7.23,6.00,6.01,7.18,3.70,3.69,4.92
35.27,-2.28,-2.29,-7.19,-7.20,6.00,6.00,7.09,3.72,3.71,4.91
35.62,-2.28,-2.28,-7.18,-7.18,6.00,5.99,7.00,3.72,3.72,4.90
35.97,-2.28,-2.25,-7.16,-7.14,6.00,5.98,6.91,3.72,3.75,4.89
36.33,-2.20,-2.19,-7.08,-7.07,6.00,5.97,6.82,3.80,3.81,4.88
36.70,-2.12,-2.12,-6.99,-6.99,6.00,5.97,6.72,3.88,3.88,4.87
37.06,-2.05,-2.07,-6.90,-6.93,6.00,5.96,6.62,3.95,3.93,4.85
37.43,-2.05,-2.04,-6.90,-6.89,6.00,5.95,6.53,3.95,3.96,4.85
37.81,-2.05,-2.04,-6.88,-6.88,6.00,5.94,6.43,3.95,3.96,4.84
38.19,-2.05,-2.05,-6.87,-6.87,6.00,5.94,6.33,3.95,3.95,4.82
38.57,-2.05,-2.05,-6.86,-6.86,6.00,5.93,6.24,3.95,3.95,4.82
38.95,-2.05,-2.05,-6.85,-6.85,6.00,5.92,6.15,3.95,3.95,4.80
39.34,-2.05,-2.05,-6.83,-6.84,6.00,5.92,6.06,3.95,3.95,4.79
39.74,-2.05,-2.04,-6.82,-6.82,6.00,5.92,5.97,3.95,3.96,4.77
40.14,-2.02,-2.00,-6.78,-6.77,6.00,5.91,5.89,3.98,4.00,4.77
40.54,-1.93,-1.93,-6.68,-6.68,6.00,5.91,5.81,4.07,4.07,4.75
40.94,-1.83,-1.83,-6.57,-6.57,6.00,5.91,5.73,4.17,4.17,4.74
41.35,-1.74,-1.73,-6.47,-6.46,6.00,5.91,5.65,4.26,4.27,4.73
41.76,-1.64,-1.65,-6.36,-6.37,6.00,5.91,5.58,4.37,4.35,4.72
42.18,-1.59,-1.61,-6.30,-6.32,6.00,5.91,5.52,4.42,4.39,4.72
42.60,-1.59,-1.58,-6.29,-6.29,6.00,5.92,5.45,4.41,4.42,4.70
43.03,-1.58,-1.54,-6.27,-6.23,6.00,5.93,5.39,4.42,4.46,4.69
43.46,-1.48,-1.48,-6.15,-6.15,5.99,5.93,5.34,4.51,4.51,4.67
43.90,-1.38,-1.41,-6.03,-6.06,5.98,5.94,5.29,4.60,4.57,4.65
44.33,-1.36,-1.36,-5.99,-5.99,5.97,5.95,5.24,4.62,4.61,4.63
44.78,-1.36,-1.35,-5.97,-5.96,5.97,5.96,5.20,4.61,4.63,4.61
45.23,-1.36,-1.35,-5.95,-5.94,5.97,5.96,5.16,4.61,4.62,4.59
45.68,-1.36,-1.36,-5.93,-5.94,5.97,5.96,5.12,4.61,4.61,4.57
46.13,-1.39,-1.41,-5.94,-5.97,5.97,5.96,5.09,4.58,4.56,4.56
46.60,-1.50,-1.49,-6.04,-6.03,5.98,5.95,5.06,4.48,4.49,4.55
47.06,-1.60,-1.60,-6.13,-6.13,5.98,5.93,5.04,4.38,4.38,4.53
47.53,-1.71,-1.71,-6.22,-6.22,5.99,5.90,5.02,4.29,4.28,4.51
48.01,-1.82,-1.81,-6.31,-6.30,6.01,5.86,5.00,4.19,4.20,4.50
48.49,-1.88,-1.89,-6.34,-6.35,6.02,5.82,4.99,4.15,4.14,4.47
48.97,-1.95,-1.92,-6.38,-6.36,6.03,5.77,4.98,4.08,4.11,4.43
49.46,-1.89,-1.89,-6.29,-6.30,6.02,5.72,4.97,4.13,4.12,4.40
49.96,-1.83,-1.82,-6.20,-6.20,5.99,5.66,4.97,4.16,4.17,4.37
50.46,-1.71,-1.71,-6.07,-6.07,5.95,5.61,4.96,4.24,4.24,4.36
50.96,-1.60,-1.63,-5.93,-5.96,5.89,5.55,4.96,4.29,4.26,4.34
51.47,-1.54,-1.54,-5.84,-5.85,5.81,5.49,4.96,4.28,4.27,4.30
51.99,-1.49,-1.43,-5.77,-5.71,5.72,5.44,4.97,4.23,4.29,4.28
52.51,-1.31,-1.31,-5.58,-5.57,5.61,5.38,4.97,4.31,4.30,4.27
53.03,-1.14,-1.21,-5.38,-5.45,5.50,5.33,4.98,4.36,4.29,4.24
53.56,-1.14,-1.13,-5.35,-5.35,5.37,5.28,4.98,4.23,4.24,4.22
54.10,-1.12,-1.07,-5.31,-5.26,5.24,5.23,4.99,4.12,4.17,4.19
54.64,-0.99,-0.99,-5.15,-5.16,5.12,5.18,5.00,4.13,4.13,4.17
55.18,-0.87,-0.87,-5.01,-5.01,5.00,5.13,5.00,4.14,4.14,4.14
55.74,-0.74,-0.76,-4.85,-4.88,4.90,5.08,5.00,4.16,4.13,4.11
56.29,-0.68,-0.70,-4.77,-4.79,4.80,5.03,5.01,4.12,4.10,4.09
56.86,-0.68,-0.63,-4.74,-4.69,4.71,4.99,5.01,4.03,4.08,4.07
57.42,-0.58,-0.56,-4.61,-4.60,4.62,4.94,5.00,4.05,4.06,4.04
58.00,-0.45,-0.50,-4.47,-4.51,4.54,4.89,5.00,4.09,4.04,4.02
58.58,-0.45,-0.45,-4.45,-4.45,4.46,4.85,4.99,4.01,4.01,4.00
59.16,-0.45,-0.44,-4.43,-4.42,4.39,4.80,4.98,3.94,3.94,3.98
59.76,-0.45,-0.42,-4.40,-4.37,4.32,4.75,4.96,3.87,3.90,3.96
60.35,-0.37,-0.35,-4.29,-4.28,4.25,4.71,4.94,3.88,3.90,3.93
60.96,-0.23,-0.27,-4.13,-4.17,4.18,4.66,4.91,3.96,3.91,3.90
61.57,-0.22,-0.22,-4.08,-4.08,4.13,4.61,4.88,3.91,3.91,3.86
62.18,-0.22,-0.21,-4.04,-4.03,4.07,4.56,4.85,3.85,3.87,3.83
62.80,-0.22,-0.22,-4.02,-4.01,4.01,4.52,4.81,3.80,3.80,3.80
63.43,-0.22,-0.22,-3.98,-3.99,3.97,4.47,4.76,3.75,3.75,3.77
64.07,-0.22,-0.22,-3.96,-3.96,3.93,4.42,4.71,3.71,3.71,3.74
64.71,-0.22,-0.22,-3.93,-3.93,3.92,4.37,4.65,3.70,3.70,3.71
65.35,-0.22,-0.21,-3.90,-3.90,3.91,4.31,4.59,3.70,3.70,3.69
66.01,-0.22,-0.21,-3.88,-3.87,3.92,4.26,4.53,3.70,3.71,3.66
66.67,-0.22,-0.25,-3.85,-3.88,3.92,4.21,4.46,3.71,3.67,3.63
67.33,-0.30,-0.32,-3.90,-3.92,3.93,4.16,4.38,3.63,3.61,3.60
68.01,-0.45,-0.39,-4.02,-3.96,3.94,4.10,4.30,3.50,3.55,3.57
68.69,-0.45,-0.45,-3.99,-3.99,3.95,4.05,4.22,3.50,3.50,3.54
69.37,-0.45,-0.46,-3.95,-3.97,3.95,3.99,4.13,3.50,3.48,3.51
70.07,-0.45,-0.45,-3.92,-3.93,3.92,3.93,4.04,3.48,3.47,3.47
70.77,-0.45,-0.46,-3.90,-3.91,3.88,3.88,3.95,3.43,3.42,3.45
71.48,-0.45,-0.43,-3.86,-3.84,3.81,3.82,3.86,3.36,3.38,3.41
72.19,-0.41,-0.37,-3.79,-3.75,3.73,3.76,3.76,3.32,3.36,3.38
72.91,-0.24,-0.30,-3.58,-3.64,3.64,3.70,3.67,3.40,3.34,3.34
73.64,-0.22,-0.21,-3.52,-3.51,3.54,3.64,3.57,3.32,3.33,3.31
74.38,-0.16,-0.12,-3.44,-3.40,3.44,3.58,3.47,3.28,3.32,3.28
75.12,-0.04,-0.07,-3.28,-3.31,3.34,3.51,3.37,3.30,3.27,3.24
75.87,-0.01,-0.02,-3.22,-3.23,3.24,3.45,3.27,3.23,3.22,3.21
76.63,0.00,0.01,-3.18,-3.17,3.15,3.39,3.17,3.15,3.16,3.18
77.40,0.03,0.05,-3.12,-3.09,3.07,3.32,3.07,3.11,3.13,3.15
78.17,0.10,0.12,-3.01,-3.00,3.00,3.25,2.97,3.10,3.12,3.11
78.95,0.22,0.19,-2.86,-2.90,2.92,3.19,2.87,3.15,3.11,3.09
79.74,0.23,0.23,-2.82,-2.83,2.84,3.12,2.77,3.07,3.07,3.05
80.54,0.23,0.23,-2.79,-2.79,2.76,3.05,2.67,2.99,2.99,3.02
81.35,0.23,0.26,-2.75,-2.73,2.69,2.98,2.58,2.92,2.95,2.98
82.16,0.28,0.33,-2.67,-2.62,2.61,2.91,2.48,2.90,2.94,2.95
82.98,0.46,0.40,-2.46,-2.51,2.54,2.84,2.39,3.01,2.94,2.92
83.81,0.46,0.46,-2.41,-2.42,2.47,2.77,2.29,2.93,2.93,2.87
84.65,0.46,0.47,-2.37,-2.37,2.39,2.70,2.20,2.85,2.87,2.84
85.50,0.46,0.45,-2.35,-2.36,2.31,2.63,2.11,2.77,2.75,2.81
86.35,0.46,0.49,-2.31,-2.28,2.22,2.56,2.02,2.69,2.71,2.77
87.22,0.51,0.56,-2.22,-2.17,2.15,2.48,1.93,2.66,2.70,2.73
88.09,0.69,0.63,-2.00,-2.06,2.08,2.41,1.85,2.77,2.71,2.69
88.97,0.69,0.69,-1.97,-1.96,2.02,2.33,1.76,2.71,2.71,2.66
89.86,0.69,0.71,-1.92,-1.90,1.96,2.26,1.68,2.65,2.67,2.62
90.76,0.69,0.69,-1.87,-1.88,1.90,2.18,1.59,2.59,2.59,2.56
91.66,0.69,0.69,-1.84,-1.83,1.83,2.11,1.51,2.52,2.52,2.53
92.58,0.69,0.68,-1.79,-1.80,1.76,2.03,1.43,2.45,2.44,2.48
93.51,0.69,0.68,-1.75,-1.76,1.69,1.96,1.35,2.39,2.38,2.44
94.44,0.69,0.73,-1.71,-1.67,1.62,1.88,1.28,2.32,2.35,2.40
95.39,0.78,0.80,-1.57,-1.56,1.55,1.80,1.20,2.33,2.35,2.36
96.34,0.91,0.86,-1.39,-1.44,1.47,1.73,1.12,2.39,2.34,2.30
97.30,0.91,0.91,-1.34,-1.34,1.40,1.65,1.05,2.31,2.31,2.26
98.28,0.91,0.92,-1.30,-1.29,1.32,1.57,0.98,2.23,2.25,2.21
99.26,0.91,0.91,-1.25,-1.25,1.25,1.50,0.90,2.17,2.17,2.17
100.25,0.91,0.91,-1.21,-1.21,1.19,1.42,0.83,2.11,2.11,2.12
101.25,0.91,0.91,-1.16,-1.16,1.15,1.34,0.76,2.06,2.06,2.07
102.27,0.91,0.91,-1.11,-1.11,1.10,1.27,0.70,2.02,2.02,2.03
103.29,0.91,0.91,-1.06,-1.07,1.06,1.19,0.63,1.98,1.98,1.97
104.32,0.91,0.91,-1.02,-1.02,1.02,1.12,0.57,1.93,1.93,1.93
105.37,0.91,0.91,-0.98,-0.98,0.98,1.04,0.50,1.89,1.89,1.89
106.42,0.91,0.91,-0.93,-0.93,0.93,0.97,0.44,1.84,1.84,1.84
107.48,0.91,0.91,-0.88,-0.88,0.88,0.89,0.38,1.79,1.79,1.80
108.56,0.91,0.91,-0.83,-0.83,0.83,0.82,0.32,1.74,1.74,1.74
109.64,0.91,0.91,-0.78,-0.78,0.79,0.74,0.26,1.70,1.70,1.69
110.74,0.91,0.91,-0.74,-0.73,0.74,0.67,0.20,1.66,1.66,1.65
111.85,0.91,0.91,-0.69,-0.68,0.70,0.60,0.15,1.61,1.61,1.60
112.97,0.91,0.91,-0.62,-0.63,0.64,0.53,0.10,1.55,1.55,1.54
114.10,0.91,0.91,-0.58,-0.58,0.57,0.46,0.04,1.48,1.48,1.49
115.24,0.91,0.90,-0.52,-0.54,0.49,0.39,-0.01,1.41,1.39,1.44
116.39,0.91,0.92,-0.47,-0.46,0.41,0.32,-0.05,1.32,1.33,1.38
117.55,0.93,0.98,-0.39,-0.35,0.33,0.25,-0.10,1.26,1.31,1.33
118.73,1.09,1.05,-0.18,-0.22,0.24,0.18,-0.14,1.33,1.29,1.27
119.92,1.14,1.12,-0.09,-0.11,0.16,0.12,-0.18,1.30,1.27,1.23
121.12,1.14,1.15,-0.04,-0.02,0.07,0.05,-0.22,1.22,1.23,1.18
122.33,1.14,1.15,0.02,0.02,-0.00,-0.01,-0.26,1.14,1.15,1.13
123.55,1.14,1.14,0.06,0.06,-0.07,-0.07,-0.30,1.07,1.07,1.08
124.79,1.14,1.14,0.11,0.11,-0.13,-0.13,-0.33,1.01,1.01,1.03
126.03,1.14,1.14,0.16,0.16,-0.18,-0.20,-0.36,0.96,0.96,0.98
127.29,1.14,1.14,0.21,0.21,-0.22,-0.25,-0.39,0.92,0.92,0.93
128.57,1.14,1.14,0.27,0.27,-0.27,-0.31,-0.42,0.88,0.88,0.87
129.85,1.14,1.14,0.32,0.32,-0.31,-0.37,-0.44,0.83,0.83,0.82
131.15,1.14,1.14,0.37,0.37,-0.36,-0.42,-0.47,0.78,0.78,0.78
132.46,1.14,1.14,0.41,0.41,-0.41,-0.48,-0.49,0.73,0.73,0.73
133.79,1.14,1.14,0.45,0.46,-0.46,-0.53,-0.51,0.68,0.68,0.69
135.12,1.14,1.14,0.51,0.50,-0.50,-0.58,-0.53,0.64,0.64,0.64
136.48,1.14,1.14,0.54,0.54,-0.55,-0.63,-0.55,0.60,0.60,0.60
137.84,1.14,1.14,0.59,0.59,-0.59,-0.68,-0.56,0.55,0.55,0.56
139.22,1.14,1.14,0.64,0.63,-0.63,-0.73,-0.58,0.51,0.51,0.50
140.61,1.14,1.14,0.68,0.67,-0.67,-0.77,-0.59,0.47,0.47,0.46
142.02,1.14,1.14,0.70,0.71,-0.71,-0.81,-0.61,0.43,0.43,0.44
143.44,1.14,1.14,0.75,0.75,-0.75,-0.86,-0.62,0.39,0.39,0.40
144.87,1.14,1.14,0.79,0.78,-0.79,-0.90,-0.63,0.35,0.35,0.36
146.32,1.14,1.14,0.83,0.82,-0.83,-0.94,-0.64,0.31,0.31,0.32
147.78,1.14,1.14,0.85,0.86,-0.88,-0.97,-0.65,0.27,0.27,0.29
149.26,1.14,1.14,0.89,0.90,-0.91,-1.01,-0.66,0.23,0.23,0.25
150.75,1.14,1.15,0.94,0.94,-0.94,-1.05,-0.67,0.21,0.21,0.20
152.26,1.14,1.15,0.98,0.99,-0.95,-1.08,-0.68,0.19,0.21,0.17
153.78,1.14,1.12,1.01,0.99,-0.95,-1.11,-0.69,0.19,0.17,0.13
155.32,1.09,1.06,1.01,0.97,-0.94,-1.14,-0.70,0.15,0.12,0.09
156.88,0.93,0.99,0.88,0.94,-0.92,-1.17,-0.71,0.01,0.07,0.05
158.44,0.91,0.90,0.90,0.89,-0.90,-1.20,-0.73,0.01,0.00,0.01
160.03,0.85,0.81,0.88,0.85,-0.88,-1.22,-0.74,-0.02,-0.06,-0.03
161.63,0.72,0.76,0.80,0.83,-0.86,-1.25,-0.75,-0.14,-0.10,-0.07
163.24,0.69,0.70,0.81,0.81,-0.85,-1.27,-0.76,-0.16,-0.15,-0.11
164.88,0.69,0.68,0.84,0.83,-0.85,-1.29,-0.78,-0.16,-0.17,-0.14
166.53,0.69,0.69,0.88,0.87,-0.87,-1.31,-0.79,-0.18,-0.18,-0.18
168.19,0.69,0.69,0.91,0.91,-0.90,-1.33,-0.80,-0.21,-0.21,-0.22
169.87,0.69,0.69,0.95,0.95,-0.93,-1.35,-0.82,-0.24,-0.24,-0.26
171.57,0.69,0.69,0.99,0.99,-0.97,-1.36,-0.84,-0.28,-0.28,-0.30
173.29,0.69,0.69,1.02,1.02,-1.01,-1.38,-0.85,-0.32,-0.32,-0.33
175.02,0.69,0.69,1.06,1.06,-1.06,-1.39,-0.87,-0.36,-0.36,-0.37
176.77,0.69,0.69,1.11,1.11,-1.11,-1.40,-0.89,-0.42,-0.42,-0.41
178.54,0.69,0.68,1.15,1.14,-1.17,-1.41,-0.91,-0.48,-0.49,-0.46
180.32,0.69,0.69,1.18,1.18,-1.24,-1.42,-0.93,-0.54,-0.55,-0.49
182.13,0.69,0.73,1.22,1.25,-1.29,-1.43,-0.95,-0.60,-0.56,-0.52
183.95,0.78,0.81,1.35,1.37,-1.33,-1.44,-0.97,-0.55,-0.53,-0.56
185.79,0.90,0.86,1.50,1.46,-1.37,-1.44,-0.99,-0.47,-0.52,-0.60
187.65,0.91,0.85,1.55,1.49,-1.41,-1.45,-1.01,-0.50,-0.56,-0.64
189.52,0.74,0.79,1.41,1.46,-1.44,-1.45,-1.04,-0.69,-0.64,-0.67
191.42,0.69,0.72,1.39,1.42,-1.46,-1.45,-1.06,-0.76,-0.74,-0.70
193.33,0.69,0.68,1.42,1.40,-1.47,-1.45,-1.09,-0.78,-0.79,-0.73
195.27,0.69,0.69,1.45,1.44,-1.48,-1.45,-1.11,-0.78,-0.79,-0.75
197.22,0.69,0.69,1.47,1.48,-1.48,-1.45,-1.14,-0.79,-0.79,-0.78
199.19,0.69,0.69,1.51,1.50,-1.49,-1.45,-1.16,-0.80,-0.80,-0.82
201.18,0.69,0.69,1.53,1.53,-1.51,-1.45,-1.19,-0.82,-0.82,-0.83
203.19,0.69,0.69,1.54,1.55,-1.54,-1.44,-1.22,-0.85,-0.85,-0.85
205.23,0.69,0.69,1.57,1.56,-1.56,-1.44,-1.25,-0.87,-0.87,-0.88
207.28,0.69,0.69,1.57,1.58,-1.58,-1.43,-1.27,-0.89,-0.89,-0.88
209.35,0.69,0.69,1.60,1.60,-1.60,-1.42,-1.30,-0.91,-0.91,-0.91
211.44,0.69,0.69,1.62,1.61,-1.62,-1.42,-1.33,-0.93,-0.93,-0.93
213.56,0.69,0.69,1.63,1.63,-1.64,-1.41,-1.35,-0.94,-0.94,-0.93
215.69,0.69,0.69,1.63,1.63,-1.65,-1.40,-1.38,-0.96,-0.96,-0.94
217.85,0.69,0.69,1.64,1.64,-1.66,-1.39,-1.40,-0.97,-0.97,-0.95
220.03,0.69,0.69,1.65,1.65,-1.65,-1.38,-1.42,-0.96,-0.96,-0.96
222.23,0.69,0.71,1.67,1.68,-1.63,-1.37,-1.45,-0.94,-0.92,-0.97
224.45,0.69,0.69,1.66,1.66,-1.61,-1.36,-1.47,-0.91,-0.92,-0.97
226.70,0.69,0.64,1.66,1.61,-1.58,-1.34,-1.49,-0.88,-0.94,-0.97
228.96,0.53,0.57,1.50,1.53,-1.54,-1.33,-1.51,-1.01,-0.97,-0.97
231.25,0.48,0.50,1.44,1.46,-1.50,-1.32,-1.52,-1.02,-1.01,-0.96
233.57,0.46,0.46,1.42,1.42,-1.47,-1.30,-1.53,-1.01,-1.01,-0.96
235.90,0.46,0.46,1.42,1.42,-1.44,-1.28,-1.55,-0.98,-0.98,-0.96
238.26,0.46,0.46,1.42,1.41,-1.41,-1.27,-1.55,-0.95,-0.95,-0.96
240.64,0.46,0.46,1.41,1.41,-1.39,-1.25,-1.56,-0.93,-0.93,-0.95
243.05,0.46,0.46,1.40,1.40,-1.38,-1.24,-1.56,-0.92,-0.92,-0.94
245.48,0.46,0.46,1.39,1.39,-1.38,-1.22,-1.56,-0.92,-0.92,-0.92
247.93,0.46,0.46,1.37,1.38,-1.37,-1.20,-1.56,-0.91,-0.91,-0.91
250.41,0.46,0.46,1.37,1.36,-1.36,-1.18,-1.56,-0.90,-0.90,-0.91
252.92,0.46,0.46,1.35,1.35,-1.35,-1.16,-1.55,-0.89,-0.89,-0.89
255.45,0.46,0.46,1.33,1.33,-1.34,-1.14,-1.54,-0.88,-0.88,-0.86
258.00,0.46,0.46,1.31,1.31,-1.33,-1.12,-1.53,-0.87,-0.87,-0.85
260.58,0.46,0.46,1.30,1.30,-1.31,-1.10,-1.51,-0.85,-0.85,-0.84
263.19,0.46,0.46,1.28,1.28,-1.28,-1.08,-1.49,-0.82,-0.82,-0.81
265.82,0.46,0.47,1.26,1.27,-1.24,-1.06,-1.47,-0.78,-0.77,-0.80
268.48,0.46,0.47,1.24,1.25,-1.20,-1.04,-1.45,-0.74,-0.73,-0.78
271.16,0.46,0.43,1.22,1.19,-1.15,-1.01,-1.42,-0.68,-0.72,-0.75
273.87,0.38,0.36,1.12,1.10,-1.09,-0.99,-1.39,-0.71,-0.73,-0.74
276.61,0.25,0.29,0.97,1.01,-1.04,-0.97,-1.36,-0.79,-0.75,-0.71
279.38,0.23,0.24,0.93,0.94,-0.99,-0.94,-1.33,-0.76,-0.75,-0.70
282.17,0.23,0.22,0.92,0.90,-0.94,-0.92,-1.30,-0.71,-0.72,-0.68
284.99,0.23,0.23,0.89,0.89,-0.90,-0.90,-1.26,-0.66,-0.67,-0.66
287.84,0.23,0.23,0.88,0.87,-0.86,-0.87,-1.22,-0.63,-0.63,-0.64
290.72,0.23,0.23,0.85,0.85,-0.84,-0.85,-1.19,-0.61,-0.61,-0.62
293.63,0.23,0.23,0.84,0.83,-0.82,-0.82,-1.15,-0.59,-0.59,-0.60
296.57,0.23,0.23,0.81,0.81,-0.81,-0.80,-1.11,-0.58,-0.58,-0.58
299.53,0.23,0.23,0.79,0.79,-0.79,-0.77,-1.07,-0.56,-0.56,-0.56
302.53,0.23,0.23,0.78,0.77,-0.77,-0.74,-1.02,-0.54,-0.54,-0.55
305.55,0.23,0.23,0.74,0.75,-0.74,-0.72,-0.98,-0.51,-0.51,-0.51
308.61,0.23,0.23,0.73,0.72,-0.72,-0.69,-0.94,-0.49,-0.49,-0.49
311.69,0.23,0.23,0.70,0.69,-0.70,-0.66,-0.90,-0.47,-0.47,-0.47
314.81,0.23,0.23,0.66,0.67,-0.68,-0.64,-0.86,-0.45,-0.45,-0.43
317.96,0.23,0.23,0.65,0.65,-0.66,-0.61,-0.81,-0.43,-0.43,-0.41
321.14,0.23,0.23,0.63,0.63,-0.64,-0.58,-0.77,-0.41,-0.41,-0.40
324.35,0.23,0.23,0.61,0.61,-0.61,-0.55,-0.73,-0.38,-0.38,-0.38
327.59,0.23,0.24,0.58,0.60,-0.57,-0.52,-0.69,-0.33,-0.32,-0.35
330.87,0.23,0.23,0.57,0.57,-0.52,-0.50,-0.64,-0.29,-0.28,-0.34
334.18,0.23,0.19,0.55,0.50,-0.47,-0.47,-0.60,-0.23,-0.28,-0.32
337.52,0.10,0.12,0.40,0.42,-0.41,-0.44,-0.56,-0.31,-0.30,-0.30
340.90,0.02,0.05,0.30,0.32,-0.36,-0.41,-0.52,-0.34,-0.31,-0.27
344.30,0.00,0.00,0.26,0.26,-0.31,-0.38,-0.48,-0.31,-0.31,-0.26
347.75,0.00,-0.00,0.24,0.23,-0.26,-0.35,-0.44,-0.26,-0.27,-0.24
351.23,0.00,0.00,0.22,0.22,-0.22,-0.32,-0.39,-0.22,-0.22,-0.22
354.74,0.00,0.00,0.20,0.20,-0.19,-0.29,-0.35,-0.19,-0.19,-0.20
358.28,0.00,0.00,0.19,0.19,-0.18,-0.26,-0.31,-0.18,-0.18,-0.18
361.87,0.00,0.00,0.17,0.17,-0.18,-0.23,-0.27,-0.17,-0.17,-0.17
365.49,0.00,0.00,0.16,0.16,-0.17,-0.20,-0.24,-0.17,-0.17,-0.16
369.14,0.00,0.00,0.15,0.15,-0.16,-0.17,-0.20,-0.15,-0.15,-0.15
372.83,0.00,0.00,0.13,0.14,-0.13,-0.13,-0.16,-0.13,-0.13,-0.13
376.56,0.00,0.02,0.13,0.13,-0.10,-0.10,-0.12,-0.09,-0.08,-0.12
380.33,0.00,0.00,0.10,0.10,-0.06,-0.07,-0.08,-0.05,-0.05,-0.10
384.13,0.00,-0.05,0.09,0.04,-0.01,-0.04,-0.04,-0.01,-0.06,-0.09
387.97,-0.15,-0.12,-0.07,-0.04,0.03,-0.01,-0.01,-0.11,-0.08,-0.08
391.85,-0.21,-0.18,-0.14,-0.12,0.08,0.02,0.03,-0.13,-0.11,-0.07
395.77,-0.22,-0.23,-0.17,-0.17,0.12,0.05,0.07,-0.10,-0.10,-0.05
399.73,-0.22,-0.22,-0.17,-0.18,0.16,0.08,0.10,-0.06,-0.06,-0.04
403.72,-0.22,-0.22,-0.18,-0.19,0.19,0.11,0.14,-0.03,-0.03,-0.03
407.76,-0.22,-0.22,-0.19,-0.20,0.20,0.14,0.17,-0.02,-0.02,-0.03
411.84,-0.22,-0.22,-0.21,-0.21,0.21,0.17,0.21,-0.01,-0.01,-0.01
415.96,-0.22,-0.22,-0.22,-0.22,0.21,0.21,0.24,-0.01,-0.01,0.00
420.12,-0.22,-0.22,-0.23,-0.23,0.23,0.24,0.28,0.01,0.01,0.01
424.32,-0.22,-0.21,-0.24,-0.23,0.25,0.27,0.31,0.04,0.05,0.02
428.56,-0.22,-0.21,-0.25,-0.24,0.29,0.29,0.34,0.07,0.08,0.03
432.85,-0.22,-0.26,-0.26,-0.29,0.33,0.32,0.37,0.12,0.08,0.04
437.18,-0.33,-0.32,-0.37,-0.37,0.38,0.35,0.40,0.05,0.06,0.05
441.55,-0.42,-0.39,-0.48,-0.45,0.42,0.38,0.43,0.01,0.03,0.07
445.96,-0.45,-0.44,-0.52,-0.52,0.47,0.41,0.46,0.02,0.02,0.07
450.42,-0.45,-0.45,-0.53,-0.54,0.51,0.44,0.49,0.06,0.05,0.08
454.93,-0.45,-0.45,-0.55,-0.55,0.55,0.46,0.51,0.10,0.10,0.10
459.48,-0.45,-0.45,-0.56,-0.56,0.57,0.49,0.54,0.13,0.13,0.11
464.07,-0.45,-0.45,-0.58,-0.58,0.59,0.51,0.56,0.14,0.14,0.13
468.71,-0.45,-0.45,-0.60,-0.59,0.60,0.54,0.58,0.16,0.16,0.15
473.40,-0.45,-0.45,-0.61,-0.61,0.61,0.56,0.60,0.16,0.16,0.16
478.13,-0.45,-0.45,-0.63,-0.62,0.63,0.58,0.62,0.18,0.18,0.18
482.91,-0.45,-0.45,-0.64,-0.64,0.65,0.60,0.64,0.20,0.20,0.19
487.74,-0.45,-0.45,-0.66,-0.66,0.67,0.62,0.65,0.22,0.22,0.21
492.62,-0.45,-0.45,-0.67,-0.67,0.68,0.64,0.67,0.24,0.24,0.23
497.55,-0.45,-0.45,-0.68,-0.69,0.69,0.66,0.68,0.25,0.25,0.24
502.52,-0.45,-0.45,-0.70,-0.70,0.69,0.68,0.69,0.25,0.24,0.26
507.55,-0.45,-0.46,-0.71,-0.73,0.68,0.70,0.70,0.24,0.22,0.27
