frequency,raw,error,smoothed,error_smoothed,equalization,parametric_eq,fixed_band_eq,equalized_raw,equalized_smoothed,target
20.00,-6.88,-7.37,-6.88,-7.40,6.00,5.67,2.46,-0.88,-0.88,0.49
20.20,-6.79,-7.37,-6.79,-7.38,6.00,5.72,2.53,-0.79,-0.79,0.58
20.40,-6.70,-7.36,-6.70,-7.36,6.00,5.77,2.60,-0.70,-0.70,0.66
20.61,-6.61,-7.33,-6.61,-7.34,6.00,5.82,2.68,-0.61,-0.61,0.73
20.81,-6.51,-7.33,-6.52,-7.32,6.00,5.87,2.75,-0.51,-0.52,0.82
21.02,-6.42,-7.32,-6.43,-7.30,6.00,5.91,2.83,-0.42,-0.43,0.90
21.23,-6.33,-7.29,-6.33,-7.27,6.00,5.95,2.91,-0.33,-0.33,0.96
21.44,-6.24,-7.26,-6.24,-7.24,6.00,5.99,3.00,-0.24,-0.24,1.02
21.66,-6.15,-7.22,-6.15,-7.20,6.00,6.03,3.09,-0.15,-0.15,1.07
21.87,-6.05,-7.17,-6.06,-7.17,6.00,6.06,3.17,-0.05,-0.06,1.12
22.09,-5.96,-7.13,-5.97,-7.13,6.00,6.09,3.27,0.04,0.03,1.17
22.31,-5.87,-7.09,-5.87,-7.09,6.00,6.12,3.36,0.13,0.13,1.22
22.54,-5.79,-7.04,-5.78,-7.04,6.00,6.14,3.46,0.21,0.22,1.25
22.76,-5.69,-6.99,-5.69,-6.99,6.00,6.16,3.55,0.31,0.31,1.30
22.99,-5.59,-6.92,-5.60,-6.93,6.00,6.18,3.66,0.41,0.40,1.32
23.22,-5.50,-6.87,-5.50,-6.88,6.00,6.19,3.76,0.50,0.50,1.36
23.45,-5.41,-6.82,-5.41,-6.82,6.00,6.21,3.86,0.59,0.59,1.40
23.69,-5.32,-6.76,-5.32,-6.77,6.00,6.21,3.97,0.68,0.68,1.44
23.92,-5.22,-6.71,-5.22,-6.71,6.00,6.22,4.08,0.78,0.78,1.48
24.16,-5.13,-6.67,-5.13,-6.65,6.00,6.22,4.19,0.87,0.87,1.53
24.40,-5.03,-6.59,-5.04,-6.59,6.00,6.21,4.30,0.97,0.96,1.56
24.65,-4.94,-6.54,-4.94,-6.53,6.00,6.21,4.42,1.06,1.06,1.59
24.89,-4.85,-6.47,-4.85,-6.48,6.00,6.20,4.53,1.15,1.15,1.62
25.14,-4.76,-6.42,-4.76,-6.42,6.00,6.18,4.65,1.24,1.24,1.66
25.39,-4.66,-6.35,-4.66,-6.36,6.00,6.16,4.77,1.34,1.34,1.69
25.65,-4.57,-6.30,-4.57,-6.30,6.00,6.14,4.88,1.43,1.43,1.73
25.91,-4.48,-6.22,-4.48,-6.23,6.00,6.12,5.00,1.52,1.52,1.75
26.16,-4.38,-6.16,-4.39,-6.17,5.99,6.09,5.12,1.61,1.61,1.78
26.43,-4.30,-6.11,-4.29,-6.11,5.98,6.06,5.23,1.68,1.69,1.82
26.69,-4.20,-6.05,-4.20,-6.05,5.96,6.03,5.35,1.75,1.76,1.85
26.96,-4.10,-5.98,-4.11,-5.98,5.92,5.99,5.46,1.82,1.82,1.88
27.23,-4.01,-5.93,-4.01,-5.92,5.89,5.95,5.57,1.87,1.87,1.92
27.50,-3.92,-5.87,-3.92,-5.86,5.84,5.91,5.67,1.92,1.92,1.95
27.77,-3.83,-5.80,-3.83,-5.80,5.79,5.86,5.77,1.96,1.96,1.97
28.05,-3.73,-5.74,-3.74,-5.74,5.74,5.81,5.87,2.00,2.00,2.00
28.33,-3.64,-5.67,-3.64,-5.67,5.67,5.76,5.96,2.03,2.03,2.02
28.62,-3.56,-5.61,-3.55,-5.61,5.61,5.71,6.04,2.06,2.06,2.05
28.90,-3.46,-5.55,-3.46,-5.55,5.55,5.65,6.12,2.09,2.09,2.09
29.19,-3.37,-5.48,-3.37,-5.49,5.49,5.60,6.19,2.12,2.12,2.11
29.48,-3.28,-5.44,-3.29,-5.44,5.44,5.54,6.25,2.15,2.15,2.16
29.78,-3.19,-5.37,-3.20,-5.38,5.38,5.48,6.30,2.18,2.18,2.18
30.08,-3.11,-5.31,-3.11,-5.32,5.32,5.41,6.33,2.21,2.21,2.21
30.38,-3.02,-5.26,-3.03,-5.26,5.26,5.35,6.36,2.24,2.23,2.24
30.68,-2.94,-5.21,-2.95,-5.21,5.21,5.28,6.38,2.26,2.26,2.27
30.99,-2.86,-5.15,-2.86,-5.15,5.15,5.21,6.39,2.29,2.29,2.28
31.30,-2.78,-5.10,-2.78,-5.10,5.10,5.15,6.39,2.31,2.31,2.31
31.61,-2.70,-5.05,-2.70,-5.04,5.04,5.08,6.37,2.34,2.34,2.34
31.93,-2.62,-4.98,-2.62,-4.98,4.98,5.01,6.35,2.36,2.36,2.36
32.24,-2.54,-4.92,-2.54,-4.92,4.92,4.93,6.31,2.38,2.39,2.38
32.57,-2.45,-4.86,-2.46,-4.87,4.87,4.86,6.26,2.41,2.41,2.41
32.89,-2.37,-4.81,-2.38,-4.81,4.81,4.79,6.20,2.43,2.43,2.44
33.22,-2.29,-4.75,-2.30,-4.75,4.75,4.71,6.14,2.45,2.45,2.45
33.55,-2.21,-4.69,-2.22,-4.69,4.69,4.64,6.06,2.47,2.47,2.47
33.89,-2.14,-4.63,-2.14,-4.62,4.62,4.57,5.98,2.48,2.49,2.48
34.23,-2.05,-4.56,-2.06,-4.56,4.56,4.49,5.89,2.50,2.50,2.51
34.57,-1.97,-4.49,-1.98,-4.49,4.49,4.42,5.79,2.52,2.52,2.52
34.92,-1.89,-4.42,-1.90,-4.42,4.42,4.34,5.69,2.53,2.53,2.53
35.27,-1.81,-4.36,-1.82,-4.35,4.35,4.27,5.58,2.54,2.54,2.54
35.62,-1.73,-4.28,-1.74,-4.28,4.28,4.19,5.46,2.55,2.55,2.54
35.97,-1.66,-4.21,-1.66,-4.21,4.21,4.11,5.35,2.55,2.55,2.55
36.33,-1.58,-4.15,-1.58,-4.14,4.14,4.04,5.23,2.55,2.56,2.57
36.70,-1.50,-4.07,-1.50,-4.06,4.06,3.96,5.11,2.56,2.56,2.57
37.06,-1.42,-3.99,-1.42,-3.98,3.98,3.89,4.98,2.56,2.57,2.56
37.43,-1.33,-3.90,-1.34,-3.91,3.91,3.81,4.86,2.57,2.57,2.57
37.81,-1.25,-3.82,-1.26,-3.83,3.83,3.74,4.73,2.57,2.57,2.57
38.19,-1.17,-3.74,-1.18,-3.75,3.75,3.66,4.61,2.57,2.57,2.57
38.57,-1.10,-3.68,-1.10,-3.67,3.67,3.59,4.48,2.56,2.57,2.57
38.95,-1.02,-3.59,-1.02,-3.59,3.59,3.52,4.35,2.56,2.56,2.57
39.34,-0.94,-3.50,-0.94,-3.51,3.51,3.44,4.23,2.56,2.56,2.56
39.74,-0.86,-3.42,-0.87,-3.43,3.43,3.37,4.11,2.56,2.56,2.55
40.14,-0.79,-3.35,-0.79,-3.35,3.35,3.30,3.98,2.55,2.56,2.55
40.54,-0.71,-3.26,-0.72,-3.27,3.27,3.23,3.86,2.56,2.55,2.55
40.94,-0.64,-3.19,-0.65,-3.19,3.19,3.16,3.74,2.55,2.55,2.54
41.35,-0.57,-3.11,-0.57,-3.11,3.11,3.09,3.63,2.54,2.54,2.54
41.76,-0.49,-3.03,-0.50,-3.03,3.03,3.02,3.51,2.54,2.53,2.54
42.18,-0.42,-2.96,-0.43,-2.95,2.95,2.95,3.40,2.53,2.53,2.53
42.60,-0.35,-2.87,-0.36,-2.87,2.87,2.88,3.29,2.52,2.52,2.52
43.03,-0.29,-2.82,-0.28,-2.79,2.79,2.81,3.18,2.50,2.51,2.52
43.46,-0.22,-2.73,-0.21,-2.71,2.71,2.74,3.07,2.49,2.50,2.51
43.90,-0.15,-2.65,-0.14,-2.64,2.64,2.67,2.96,2.48,2.49,2.50
44.33,-0.07,-2.55,-0.07,-2.56,2.56,2.61,2.86,2.49,2.49,2.48
44.78,0.01,-2.47,-0.00,-2.48,2.48,2.54,2.76,2.49,2.48,2.48
45.23,0.08,-2.39,0.07,-2.40,2.40,2.47,2.66,2.48,2.47,2.46
45.68,0.15,-2.31,0.14,-2.32,2.32,2.41,2.57,2.47,2.46,2.46
46.13,0.21,-2.24,0.21,-2.25,2.25,2.34,2.47,2.45,2.46,2.45
46.60,0.28,-2.18,0.28,-2.17,2.17,2.28,2.38,2.45,2.45,2.45
47.06,0.35,-2.10,0.35,-2.10,2.10,2.22,2.29,2.44,2.44,2.45
47.53,0.42,-2.03,0.41,-2.02,2.02,2.15,2.20,2.44,2.44,2.44
48.01,0.49,-1.96,0.48,-1.95,1.95,2.09,2.12,2.44,2.43,2.45
48.49,0.55,-1.89,0.55,-1.88,1.88,2.03,2.03,2.43,2.43,2.44
48.97,0.62,-1.82,0.61,-1.82,1.82,1.97,1.95,2.43,2.43,2.43
49.46,0.68,-1.74,0.68,-1.75,1.75,1.91,1.87,2.43,2.43,2.42
49.96,0.74,-1.67,0.74,-1.69,1.69,1.85,1.79,2.42,2.43,2.41
50.46,0.81,-1.61,0.80,-1.63,1.63,1.79,1.71,2.43,2.43,2.42
50.96,0.87,-1.57,0.87,-1.56,1.56,1.73,1.64,2.43,2.43,2.43
51.47,0.94,-1.49,0.93,-1.50,1.50,1.67,1.56,2.44,2.43,2.42
51.99,1.00,-1.43,0.99,-1.44,1.44,1.61,1.49,2.43,2.43,2.43
52.51,1.06,-1.38,1.06,-1.37,1.37,1.55,1.42,2.43,2.43,2.44
53.03,1.12,-1.32,1.12,-1.31,1.31,1.50,1.35,2.43,2.43,2.44
53.56,1.18,-1.26,1.18,-1.24,1.24,1.44,1.28,2.42,2.43,2.44
54.10,1.24,-1.20,1.25,-1.18,1.18,1.38,1.22,2.42,2.43,2.44
54.64,1.31,-1.12,1.31,-1.11,1.11,1.33,1.15,2.42,2.43,2.43
55.18,1.38,-1.05,1.38,-1.05,1.05,1.27,1.09,2.43,2.43,2.43
55.74,1.44,-0.98,1.44,-0.98,0.98,1.22,1.03,2.42,2.42,2.42
56.29,1.51,-0.91,1.50,-0.91,0.91,1.16,0.96,2.42,2.42,2.42
56.86,1.57,-0.84,1.57,-0.84,0.84,1.11,0.90,2.41,2.41,2.40
57.42,1.64,-0.76,1.63,-0.77,0.77,1.05,0.84,2.41,2.40,2.39
58.00,1.70,-0.69,1.69,-0.70,0.70,1.00,0.79,2.39,2.39,2.39
58.58,1.75,-0.63,1.75,-0.63,0.63,0.95,0.73,2.37,2.37,2.38
59.16,1.80,-0.58,1.80,-0.56,0.56,0.89,0.67,2.35,2.36,2.37
59.76,1.86,-0.50,1.86,-0.49,0.49,0.84,0.62,2.34,2.35,2.36
60.35,1.91,-0.43,1.91,-0.42,0.42,0.79,0.56,2.33,2.33,2.34
60.96,1.96,-0.38,1.95,-0.36,0.36,0.74,0.51,2.32,2.31,2.33
61.57,2.01,-0.29,1.99,-0.31,0.31,0.69,0.46,2.31,2.30,2.30
62.18,2.05,-0.23,2.03,-0.25,0.25,0.63,0.41,2.30,2.28,2.27
62.80,2.08,-0.19,2.07,-0.20,0.20,0.58,0.36,2.28,2.27,2.27
63.43,2.11,-0.13,2.10,-0.15,0.15,0.53,0.30,2.26,2.26,2.24
64.07,2.13,-0.11,2.13,-0.11,0.11,0.48,0.26,2.24,2.24,2.23
64.71,2.16,-0.07,2.16,-0.08,0.08,0.43,0.21,2.23,2.23,2.22
65.35,2.18,-0.04,2.18,-0.04,0.04,0.38,0.16,2.22,2.23,2.22
66.01,2.20,-0.02,2.20,-0.02,0.02,0.33,0.11,2.21,2.22,2.22
66.67,2.23,0.01,2.22,0.00,-0.00,0.28,0.06,2.22,2.22,2.22
67.33,2.25,0.03,2.24,0.02,-0.02,0.23,0.01,2.23,2.22,2.22
68.01,2.27,0.05,2.26,0.04,-0.04,0.18,-0.03,2.23,2.22,2.22
68.69,2.28,0.06,2.27,0.05,-0.05,0.13,-0.08,2.23,2.22,2.22
69.37,2.30,0.07,2.29,0.07,-0.07,0.08,-0.13,2.23,2.22,2.23
70.07,2.31,0.08,2.31,0.08,-0.08,0.03,-0.17,2.22,2.23,2.23
70.77,2.33,0.08,2.33,0.10,-0.10,-0.02,-0.22,2.23,2.23,2.24
71.48,2.34,0.10,2.35,0.12,-0.12,-0.07,-0.27,2.22,2.23,2.24
72.19,2.37,0.13,2.38,0.14,-0.14,-0.11,-0.31,2.22,2.23,2.24
72.91,2.39,0.14,2.40,0.17,-0.17,-0.16,-0.36,2.22,2.24,2.24
73.64,2.42,0.18,2.43,0.19,-0.19,-0.21,-0.41,2.22,2.24,2.24
74.38,2.46,0.21,2.46,0.22,-0.22,-0.26,-0.45,2.23,2.24,2.24
75.12,2.50,0.26,2.49,0.26,-0.26,-0.31,-0.50,2.24,2.24,2.24
75.87,2.54,0.30,2.53,0.29,-0.29,-0.36,-0.55,2.24,2.24,2.24
76.63,2.58,0.33,2.57,0.33,-0.33,-0.41,-0.60,2.25,2.24,2.24
77.40,2.61,0.37,2.61,0.37,-0.37,-0.46,-0.65,2.24,2.24,2.23
78.17,2.65,0.42,2.65,0.41,-0.41,-0.51,-0.70,2.24,2.24,2.23
78.95,2.69,0.44,2.69,0.45,-0.45,-0.56,-0.75,2.24,2.24,2.25
79.74,2.73,0.48,2.73,0.48,-0.48,-0.61,-0.80,2.25,2.25,2.25
80.54,2.78,0.53,2.77,0.51,-0.51,-0.65,-0.85,2.26,2.26,2.25
81.35,2.82,0.56,2.81,0.55,-0.55,-0.70,-0.91,2.27,2.26,2.26
82.16,2.86,0.59,2.85,0.57,-0.57,-0.75,-0.96,2.28,2.27,2.27
82.98,2.89,0.60,2.88,0.60,-0.60,-0.80,-1.02,2.29,2.29,2.28
83.81,2.93,0.63,2.92,0.62,-0.62,-0.85,-1.07,2.30,2.30,2.29
84.65,2.97,0.67,2.96,0.65,-0.65,-0.90,-1.13,2.32,2.31,2.30
85.50,3.00,0.67,2.99,0.67,-0.67,-0.95,-1.19,2.33,2.32,2.32
86.35,3.03,0.68,3.03,0.69,-0.69,-1.00,-1.25,2.33,2.34,2.34
87.22,3.07,0.72,3.07,0.72,-0.72,-1.05,-1.31,2.35,2.35,2.35
88.09,3.10,0.73,3.10,0.74,-0.74,-1.10,-1.37,2.35,2.36,2.36
88.97,3.13,0.75,3.14,0.77,-0.77,-1.16,-1.43,2.36,2.37,2.38
89.86,3.16,0.78,3.17,0.80,-0.80,-1.21,-1.50,2.36,2.37,2.38
90.76,3.21,0.83,3.20,0.83,-0.83,-1.26,-1.56,2.38,2.37,2.37
91.66,3.25,0.87,3.23,0.86,-0.86,-1.31,-1.63,2.38,2.37,2.38
92.58,3.29,0.92,3.27,0.91,-0.91,-1.36,-1.69,2.38,2.36,2.36
93.51,3.32,0.95,3.31,0.95,-0.95,-1.41,-1.76,2.36,2.35,2.36
94.44,3.35,1.00,3.34,1.01,-1.01,-1.46,-1.83,2.34,2.34,2.35
95.39,3.38,1.05,3.38,1.07,-1.07,-1.52,-1.90,2.31,2.32,2.33
96.34,3.41,1.11,3.42,1.13,-1.13,-1.57,-1.97,2.28,2.29,2.30
97.30,3.44,1.17,3.45,1.19,-1.19,-1.62,-2.05,2.24,2.26,2.26
98.28,3.48,1.24,3.49,1.26,-1.26,-1.67,-2.12,2.21,2.23,2.23
99.26,3.53,1.33,3.53,1.34,-1.34,-1.73,-2.19,2.19,2.19,2.19
100.25,3.59,1.43,3.57,1.41,-1.41,-1.78,-2.27,2.17,2.16,2.16
101.25,3.64,1.52,3.61,1.50,-1.50,-1.83,-2.34,2.14,2.12,2.12
102.27,3.69,1.61,3.66,1.58,-1.58,-1.89,-2.42,2.10,2.08,2.08
103.29,3.72,1.69,3.71,1.67,-1.67,-1.94,-2.49,2.04,2.04,2.03
104.32,3.75,1.75,3.76,1.77,-1.77,-2.00,-2.57,1.98,1.99,2.00
105.37,3.79,1.84,3.82,1.87,-1.87,-2.05,-2.64,1.92,1.95,1.95
106.42,3.85,1.94,3.87,1.96,-1.96,-2.11,-2.71,1.88,1.91,1.91
107.48,3.91,2.04,3.93,2.06,-2.06,-2.16,-2.79,1.85,1.87,1.87
108.56,3.98,2.15,3.99,2.16,-2.16,-2.22,-2.86,1.82,1.83,1.83
109.64,4.07,2.28,4.05,2.26,-2.26,-2.27,-2.93,1.81,1.79,1.79
110.74,4.13,2.36,4.11,2.35,-2.35,-2.33,-3.00,1.77,1.76,1.76
111.85,4.19,2.45,4.17,2.45,-2.45,-2.39,-3.06,1.74,1.72,1.73
112.97,4.25,2.56,4.23,2.54,-2.54,-2.44,-3.13,1.71,1.69,1.68
114.10,4.31,2.64,4.29,2.63,-2.63,-2.50,-3.19,1.68,1.66,1.67
115.24,4.38,2.75,4.35,2.72,-2.72,-2.56,-3.25,1.66,1.64,1.63
116.39,4.41,2.81,4.41,2.80,-2.80,-2.61,-3.30,1.61,1.61,1.60
117.55,4.46,2.87,4.47,2.88,-2.88,-2.67,-3.36,1.58,1.59,1.58
118.73,4.53,2.97,4.52,2.95,-2.95,-2.73,-3.40,1.57,1.57,1.55
119.92,4.58,3.03,4.57,3.02,-3.02,-2.78,-3.45,1.55,1.55,1.55
121.12,4.62,3.09,4.62,3.09,-3.09,-2.84,-3.49,1.52,1.53,1.53
122.33,4.66,3.14,4.67,3.16,-3.16,-2.90,-3.52,1.50,1.52,1.51
123.55,4.71,3.20,4.72,3.22,-3.22,-2.96,-3.55,1.48,1.50,1.51
124.79,4.77,3.27,4.77,3.28,-3.28,-3.01,-3.58,1.48,1.49,1.49
126.03,4.83,3.34,4.82,3.34,-3.34,-3.07,-3.60,1.49,1.48,1.49
127.29,4.86,3.38,4.86,3.40,-3.40,-3.13,-3.62,1.46,1.47,1.47
128.57,4.90,3.45,4.91,3.45,-3.45,-3.19,-3.63,1.44,1.46,1.45
129.85,4.96,3.51,4.95,3.50,-3.50,-3.25,-3.64,1.45,1.44,1.45
131.15,5.02,3.58,4.98,3.55,-3.55,-3.30,-3.64,1.46,1.43,1.43
132.46,5.04,3.63,5.02,3.60,-3.60,-3.36,-3.65,1.44,1.42,1.41
133.79,5.07,3.66,5.05,3.64,-3.64,-3.42,-3.64,1.42,1.40,1.41
135.12,5.09,3.70,5.07,3.68,-3.68,-3.47,-3.64,1.40,1.39,1.39
136.48,5.10,3.72,5.09,3.72,-3.72,-3.53,-3.63,1.37,1.37,1.38
137.84,5.12,3.76,5.11,3.76,-3.76,-3.59,-3.61,1.36,1.35,1.36
139.22,5.13,3.80,5.13,3.80,-3.80,-3.64,-3.60,1.33,1.33,1.33
140.61,5.15,3.84,5.15,3.83,-3.83,-3.70,-3.58,1.31,1.32,1.31
142.02,5.17,3.87,5.17,3.87,-3.87,-3.75,-3.57,1.29,1.30,1.30
143.44,5.18,3.90,5.19,3.91,-3.91,-3.81,-3.55,1.27,1.28,1.28
144.87,5.19,3.93,5.20,3.95,-3.95,-3.86,-3.53,1.24,1.25,1.25
146.32,5.20,3.97,5.23,3.99,-3.99,-3.92,-3.51,1.20,1.23,1.23
147.78,5.23,4.02,5.25,4.04,-4.04,-3.97,-3.49,1.18,1.21,1.21
149.26,5.27,4.08,5.28,4.10,-4.10,-4.02,-3.47,1.17,1.18,1.18
150.75,5.30,4.15,5.31,4.15,-4.15,-4.07,-3.45,1.14,1.15,1.15
152.26,5.33,4.20,5.34,4.21,-4.21,-4.12,-3.43,1.11,1.12,1.13
153.78,5.37,4.26,5.37,4.27,-4.27,-4.17,-3.41,1.10,1.10,1.10
155.32,5.40,4.33,5.39,4.33,-4.33,-4.22,-3.39,1.07,1.07,1.07
156.88,5.44,4.39,5.42,4.39,-4.39,-4.27,-3.38,1.05,1.03,1.05
158.44,5.45,4.44,5.45,4.44,-4.44,-4.31,-3.36,1.00,1.00,1.00
160.03,5.48,4.50,5.47,4.50,-4.50,-4.36,-3.35,0.98,0.97,0.97
161.63,5.50,4.56,5.48,4.54,-4.54,-4.40,-3.34,0.95,0.94,0.93
163.24,5.51,4.60,5.49,4.58,-4.58,-4.44,-3.33,0.92,0.91,0.90
164.88,5.52,4.64,5.50,4.62,-4.62,-4.48,-3.32,0.89,0.87,0.87
166.53,5.51,4.66,5.49,4.65,-4.65,-4.52,-3.32,0.86,0.84,0.84
168.19,5.50,4.68,5.49,4.67,-4.67,-4.55,-3.32,0.82,0.81,0.81
169.87,5.48,4.69,5.47,4.69,-4.69,-4.59,-3.32,0.79,0.78,0.79
171.57,5.46,4.70,5.45,4.70,-4.70,-4.62,-3.32,0.76,0.76,0.76
173.29,5.44,4.71,5.43,4.70,-4.70,-4.65,-3.33,0.74,0.73,0.73
175.02,5.40,4.69,5.40,4.69,-4.69,-4.68,-3.34,0.70,0.70,0.70
176.77,5.37,4.69,5.37,4.68,-4.68,-4.70,-3.35,0.68,0.68,0.68
178.54,5.34,4.68,5.33,4.67,-4.67,-4.73,-3.37,0.67,0.66,0.65
180.32,5.31,4.67,5.30,4.66,-4.66,-4.75,-3.38,0.65,0.64,0.64
182.13,5.28,4.65,5.27,4.64,-4.64,-4.76,-3.40,0.63,0.63,0.62
183.95,5.23,4.62,5.24,4.63,-4.63,-4.78,-3.43,0.59,0.61,0.61
185.79,5.20,4.60,5.22,4.62,-4.62,-4.79,-3.45,0.57,0.60,0.59
187.65,5.18,4.59,5.20,4.62,-4.62,-4.80,-3.48,0.56,0.59,0.58
189.52,5.15,4.57,5.18,4.61,-4.61,-4.81,-3.51,0.54,0.58,0.58
191.42,5.14,4.57,5.17,4.60,-4.60,-4.81,-3.54,0.53,0.57,0.57
193.33,5.14,4.57,5.16,4.60,-4.60,-4.81,-3.58,0.53,0.56,0.56
195.27,5.15,4.58,5.15,4.60,-4.60,-4.81,-3.61,0.54,0.55,0.56
197.22,5.16,4.61,5.15,4.60,-4.60,-4.81,-3.65,0.56,0.55,0.55
199.19,5.16,4.63,5.14,4.60,-4.60,-4.80,-3.69,0.56,0.54,0.53
201.18,5.16,4.63,5.13,4.60,-4.60,-4.79,-3.73,0.56,0.53,0.53
203.19,5.15,4.62,5.12,4.59,-4.59,-4.77,-3.77,0.55,0.53,0.53
205.23,5.13,4.61,5.11,4.59,-4.59,-4.75,-3.82,0.54,0.52,0.52
207.28,5.10,4.58,5.09,4.58,-4.58,-4.73,-3.86,0.52,0.51,0.52
209.35,5.08,4.57,5.07,4.56,-4.56,-4.71,-3.90,0.51,0.51,0.51
211.44,5.06,4.56,5.04,4.54,-4.54,-4.68,-3.95,0.51,0.50,0.49
213.56,5.02,4.52,5.01,4.52,-4.52,-4.65,-3.99,0.50,0.49,0.49
215.69,4.97,4.47,4.97,4.48,-4.48,-4.61,-4.03,0.48,0.49,0.49
217.85,4.92,4.44,4.93,4.45,-4.45,-4.58,-4.07,0.47,0.48,0.48
220.03,4.89,4.42,4.89,4.41,-4.41,-4.53,-4.11,0.47,0.47,0.47
222.23,4.85,4.39,4.84,4.38,-4.38,-4.49,-4.14,0.47,0.46,0.45
224.45,4.79,4.33,4.79,4.34,-4.34,-4.44,-4.18,0.45,0.45,0.45
226.70,4.73,4.28,4.74,4.30,-4.30,-4.39,-4.21,0.43,0.44,0.45
228.96,4.67,4.23,4.69,4.26,-4.26,-4.34,-4.23,0.41,0.43,0.44
231.25,4.63,4.19,4.63,4.21,-4.21,-4.28,-4.25,0.41,0.42,0.43
233.57,4.58,4.16,4.57,4.16,-4.16,-4.22,-4.27,0.41,0.41,0.42
235.90,4.51,4.10,4.51,4.12,-4.12,-4.16,-4.28,0.39,0.40,0.40
238.26,4.47,4.08,4.45,4.07,-4.07,-4.09,-4.28,0.40,0.39,0.39
240.64,4.40,4.02,4.39,4.01,-4.01,-4.02,-4.28,0.39,0.38,0.37
243.05,4.34,3.97,4.32,3.95,-3.95,-3.95,-4.27,0.39,0.37,0.37
245.48,4.26,3.90,4.25,3.88,-3.88,-3.88,-4.25,0.37,0.37,0.36
247.93,4.17,3.81,4.17,3.81,-3.81,-3.80,-4.23,0.35,0.36,0.36
250.41,4.11,3.77,4.10,3.74,-3.74,-3.72,-4.20,0.37,0.36,0.34
252.92,4.01,3.65,4.02,3.66,-3.66,-3.64,-4.16,0.35,0.36,0.36
255.45,3.94,3.57,3.93,3.57,-3.57,-3.56,-4.12,0.37,0.36,0.36
258.00,3.87,3.50,3.84,3.47,-3.47,-3.47,-4.06,0.39,0.37,0.37
260.58,3.76,3.38,3.75,3.38,-3.38,-3.38,-4.01,0.38,0.38,0.37
263.19,3.67,3.28,3.66,3.27,-3.27,-3.29,-3.94,0.39,0.39,0.39
265.82,3.56,3.16,3.57,3.17,-3.17,-3.20,-3.87,0.39,0.40,0.40
268.48,3.48,3.05,3.48,3.06,-3.06,-3.11,-3.79,0.42,0.42,0.42
271.16,3.39,2.95,3.38,2.95,-2.95,-3.01,-3.70,0.44,0.43,0.44
273.87,3.27,2.81,3.29,2.84,-2.84,-2.92,-3.61,0.43,0.45,0.46
276.61,3.19,2.70,3.19,2.72,-2.72,-2.82,-3.52,0.46,0.47,0.48
279.38,3.11,2.62,3.10,2.61,-2.61,-2.72,-3.42,0.49,0.49,0.49
282.17,3.02,2.51,3.01,2.50,-2.50,-2.62,-3.31,0.51,0.50,0.51
284.99,2.92,2.39,2.91,2.39,-2.39,-2.51,-3.20,0.52,0.52,0.52
287.84,2.82,2.28,2.82,2.28,-2.28,-2.41,-3.09,0.53,0.54,0.54
290.72,2.75,2.18,2.74,2.18,-2.18,-2.30,-2.98,0.57,0.56,0.57
293.63,2.66,2.08,2.66,2.07,-2.07,-2.20,-2.86,0.58,0.58,0.57
296.57,2.57,1.96,2.57,1.97,-1.97,-2.09,-2.74,0.60,0.60,0.60
299.53,2.49,1.87,2.49,1.87,-1.87,-1.98,-2.62,0.61,0.62,0.62
302.53,2.41,1.78,2.42,1.77,-1.77,-1.88,-2.50,0.63,0.64,0.63
305.55,2.34,1.67,2.35,1.68,-1.68,-1.77,-2.38,0.66,0.67,0.67
308.61,2.27,1.58,2.27,1.59,-1.59,-1.66,-2.25,0.68,0.69,0.68
311.69,2.20,1.48,2.21,1.49,-1.49,-1.55,-2.13,0.70,0.71,0.71
314.81,2.14,1.39,2.14,1.40,-1.40,-1.44,-2.00,0.73,0.73,0.75
317.96,2.08,1.31,2.07,1.32,-1.32,-1.33,-1.87,0.76,0.76,0.77
321.14,2.02,1.23,2.01,1.23,-1.23,-1.22,-1.75,0.79,0.78,0.79
324.35,1.95,1.14,1.95,1.14,-1.14,-1.11,-1.62,0.80,0.81,0.80
327.59,1.89,1.05,1.89,1.06,-1.06,-1.00,-1.50,0.83,0.83,0.83
330.87,1.84,0.99,1.82,0.97,-0.97,-0.88,-1.37,0.87,0.86,0.85
334.18,1.77,0.89,1.76,0.88,-0.88,-0.77,-1.24,0.89,0.88,0.88
337.52,1.69,0.79,1.69,0.79,-0.79,-0.66,-1.12,0.90,0.91,0.90
340.90,1.63,0.70,1.62,0.69,-0.69,-0.55,-0.99,0.93,0.93,0.93
344.30,1.55,0.59,1.55,0.60,-0.60,-0.44,-0.87,0.95,0.95,0.95
347.75,1.48,0.50,1.47,0.49,-0.49,-0.34,-0.74,0.98,0.98,0.97
351.23,1.41,0.40,1.39,0.39,-0.39,-0.23,-0.62,1.02,1.00,1.00
354.74,1.33,0.30,1.31,0.28,-0.28,-0.12,-0.49,1.05,1.03,1.03
358.28,1.22,0.17,1.22,0.17,-0.17,-0.01,-0.37,1.05,1.05,1.05
361.87,1.14,0.06,1.13,0.05,-0.05,0.09,-0.25,1.09,1.08,1.08
365.49,1.04,-0.07,1.04,-0.07,0.07,0.20,-0.12,1.10,1.10,1.11
369.14,0.95,-0.17,0.94,-0.18,0.18,0.30,-0.00,1.13,1.13,1.12
372.83,0.86,-0.29,0.85,-0.30,0.30,0.40,0.12,1.16,1.15,1.15
376.56,0.74,-0.43,0.75,-0.42,0.42,0.50,0.24,1.16,1.17,1.16
380.33,0.64,-0.57,0.65,-0.54,0.54,0.60,0.36,1.18,1.19,1.20
384.13,0.54,-0.68,0.55,-0.66,0.66,0.70,0.48,1.20,1.21,1.21
387.97,0.45,-0.79,0.45,-0.78,0.78,0.80,0.60,1.23,1.23,1.23
391.85,0.36,-0.89,0.35,-0.90,0.90,0.89,0.72,1.25,1.25,1.24
395.77,0.26,-1.01,0.25,-1.01,1.01,0.98,0.84,1.27,1.26,1.27
399.73,0.17,-1.11,0.15,-1.12,1.12,1.08,0.96,1.29,1.27,1.28
403.72,0.06,-1.22,0.05,-1.23,1.23,1.16,1.08,1.29,1.28,1.28
407.76,-0.05,-1.34,-0.05,-1.34,1.34,1.25,1.19,1.29,1.29,1.29
411.84,-0.16,-1.46,-0.15,-1.45,1.45,1.33,1.31,1.28,1.29,1.30
415.96,-0.26,-1.56,-0.26,-1.55,1.55,1.41,1.42,1.29,1.29,1.30
420.12,-0.35,-1.65,-0.36,-1.65,1.65,1.49,1.53,1.30,1.29,1.30
424.32,-0.45,-1.75,-0.46,-1.75,1.75,1.57,1.64,1.30,1.29,1.30
428.56,-0.53,-1.83,-0.56,-1.85,1.85,1.64,1.74,1.31,1.29,1.30
432.85,-0.63,-1.92,-0.65,-1.94,1.94,1.71,1.85,1.31,1.29,1.28
437.18,-0.74,-2.03,-0.75,-2.04,2.04,1.78,1.95,1.29,1.29,1.28
441.55,-0.82,-2.11,-0.84,-2.12,2.12,1.84,2.05,1.30,1.28,1.28
445.96,-0.92,-2.20,-0.92,-2.20,2.20,1.91,2.14,1.28,1.28,1.27
450.42,-1.02,-2.30,-1.00,-2.28,2.28,1.96,2.23,1.25,1.28,1.27
454.93,-1.09,-2.37,-1.07,-2.35,2.35,2.02,2.31,1.25,1.27,1.27
459.48,-1.15,-2.42,-1.14,-2.41,2.41,2.07,2.39,1.26,1.27,1.26
464.07,-1.21,-2.49,-1.19,-2.46,2.46,2.12,2.47,1.25,1.27,1.27
468.71,-1.26,-2.53,-1.24,-2.51,2.51,2.17,2.54,1.25,1.27,1.27
473.40,-1.30,-2.57,-1.28,-2.55,2.55,2.21,2.60,1.25,1.27,1.27
478.13,-1.32,-2.60,-1.31,-2.59,2.59,2.25,2.66,1.26,1.27,1.28
482.91,-1.34,-2.61,-1.34,-2.61,2.61,2.28,2.71,1.27,1.27,1.27
487.74,-1.35,-2.63,-1.36,-2.63,2.63,2.31,2.76,1.28,1.28,1.28
492.62,-1.35,-2.64,-1.37,-2.65,2.65,2.34,2.80,1.29,1.28,1.29
497.55,-1.36,-2.64,-1.37,-2.66,2.66,2.37,2.83,1.29,1.28,1.28
502.52,-1.36,-2.65,-1.38,-2.67,2.67,2.39,2.86,1.30,1.29,1.29
507.55,-1.35,-2.64,-1.38,-2.67,2.67,2.41,2.87,1.32,1.29,1.29
512.62,-1.35,-2.65,-1.38,-2.68,2.68,2.42,2.89,1.32,1.30,1.30
517.75,-1.36,-2.67,-1.37,-2.68,2.68,2.44,2.89,1.32,1.31,1.31
522.93,-1.36,-2.68,-1.36,-2.68,2.68,2.44,2.89,1.32,1.32,1.32
528.16,-1.35,-2.67,-1.35,-2.68,2.68,2.45,2.88,1.32,1.33,1.32
533.44,-1.34,-2.67,-1.34,-2.67,2.67,2.45,2.87,1.33,1.34,1.33
538.77,-1.31,-2.66,-1.32,-2.66,2.66,2.46,2.85,1.35,1.35,1.35
